frequency,raw,error,smoothed,error_smoothed,equalization,parametric_eq,fixed_band_eq,equalized_raw,equalized_smoothed,target
20.00,-18.49,-24.66,-18.49,-24.66,6.00,5.82,2.56,-12.49,-12.49,6.17
20.20,-18.33,-24.50,-18.33,-24.51,6.00,5.84,2.63,-12.33,-12.33,6.17
20.40,-18.17,-24.35,-18.17,-24.35,6.00,5.86,2.70,-12.17,-12.17,6.18
20.61,-18.01,-24.20,-18.01,-24.20,6.00,5.88,2.78,-12.01,-12.01,6.19
20.81,-17.85,-24.04,-17.85,-24.04,6.00,5.89,2.85,-11.85,-11.85,6.19
21.02,-17.69,-23.89,-17.69,-23.89,6.00,5.91,2.93,-11.69,-11.69,6.20
21.23,-17.54,-23.74,-17.54,-23.74,6.00,5.92,3.02,-11.54,-11.54,6.20
21.44,-17.38,-23.59,-17.38,-23.59,6.00,5.93,3.10,-11.38,-11.38,6.21
21.66,-17.23,-23.45,-17.23,-23.44,6.00,5.94,3.19,-11.23,-11.23,6.22
21.87,-17.07,-23.29,-17.07,-23.29,6.00,5.95,3.28,-11.07,-11.07,6.22
22.09,-16.91,-23.14,-16.91,-23.14,6.00,5.96,3.37,-10.91,-10.91,6.23
22.31,-16.75,-22.99,-16.75,-22.98,6.00,5.96,3.46,-10.75,-10.75,6.24
22.54,-16.59,-22.83,-16.59,-22.83,6.00,5.97,3.56,-10.59,-10.59,6.24
22.76,-16.43,-22.68,-16.43,-22.68,6.00,5.98,3.66,-10.43,-10.43,6.25
22.99,-16.27,-22.53,-16.27,-22.53,6.00,5.98,3.76,-10.27,-10.27,6.26
23.22,-16.12,-22.39,-16.12,-22.39,6.00,5.99,3.86,-10.12,-10.12,6.27
23.45,-15.97,-22.25,-15.97,-22.25,6.00,5.99,3.97,-9.97,-9.97,6.28
23.69,-15.82,-22.11,-15.82,-22.11,6.00,5.99,4.08,-9.82,-9.82,6.29
23.92,-15.67,-21.96,-15.67,-21.96,6.00,6.00,4.19,-9.67,-9.67,6.30
24.16,-15.52,-21.82,-15.52,-21.82,6.00,6.00,4.30,-9.52,-9.52,6.31
24.40,-15.36,-21.67,-15.36,-21.68,6.00,6.00,4.41,-9.36,-9.36,6.32
24.65,-15.21,-21.55,-15.21,-21.54,6.00,6.01,4.53,-9.21,-9.21,6.34
24.89,-15.06,-21.40,-15.05,-21.40,6.00,6.01,4.65,-9.06,-9.05,6.34
25.14,-14.90,-21.25,-14.90,-21.26,6.00,6.01,4.76,-8.90,-8.90,6.35
25.39,-14.75,-21.11,-14.75,-21.11,6.00,6.01,4.88,-8.75,-8.75,6.36
25.65,-14.60,-20.97,-14.60,-20.97,6.00,6.01,5.00,-8.60,-8.60,6.37
25.91,-14.45,-20.85,-14.45,-20.84,6.00,6.02,5.12,-8.45,-8.45,6.39
26.16,-14.29,-20.69,-14.29,-20.69,6.00,6.02,5.24,-8.29,-8.29,6.40
26.43,-14.14,-20.55,-14.14,-20.55,6.00,6.02,5.36,-8.14,-8.14,6.41
26.69,-13.99,-20.41,-13.99,-20.41,6.00,6.02,5.48,-7.99,-7.99,6.42
26.96,-13.84,-20.28,-13.84,-20.28,6.00,6.02,5.60,-7.84,-7.84,6.44
27.23,-13.68,-20.13,-13.68,-20.13,6.00,6.02,5.72,-7.68,-7.68,6.45
27.50,-13.52,-19.99,-13.52,-19.99,6.00,6.02,5.83,-7.52,-7.52,6.47
27.77,-13.36,-19.84,-13.36,-19.84,6.00,6.02,5.94,-7.36,-7.36,6.48
28.05,-13.20,-19.70,-13.20,-19.70,6.00,6.02,6.05,-7.20,-7.20,6.50
28.33,-13.05,-19.56,-13.05,-19.56,6.00,6.02,6.15,-7.05,-7.05,6.51
28.62,-12.90,-19.43,-12.90,-19.42,6.00,6.02,6.25,-6.90,-6.90,6.53
28.90,-12.74,-19.27,-12.75,-19.29,6.00,6.02,6.34,-6.74,-6.75,6.53
29.19,-12.61,-19.16,-12.61,-19.16,6.00,6.02,6.43,-6.61,-6.61,6.55
29.48,-12.48,-19.04,-12.48,-19.04,6.00,6.02,6.51,-6.48,-6.48,6.56
29.78,-12.35,-18.93,-12.35,-18.93,6.00,6.02,6.58,-6.35,-6.35,6.58
30.08,-12.21,-18.80,-12.21,-18.80,6.00,6.02,6.65,-6.21,-6.21,6.59
30.38,-12.06,-18.67,-12.06,-18.67,6.00,6.02,6.71,-6.06,-6.06,6.61
30.68,-11.91,-18.53,-11.91,-18.53,6.00,6.02,6.76,-5.91,-5.91,6.62
30.99,-11.76,-18.40,-11.77,-18.40,6.00,6.02,6.80,-5.76,-5.77,6.64
31.30,-11.63,-18.28,-11.63,-18.28,6.00,6.01,6.84,-5.63,-5.63,6.65
31.61,-11.50,-18.17,-11.50,-18.16,6.00,6.01,6.86,-5.50,-5.50,6.67
31.93,-11.38,-18.06,-11.38,-18.06,6.00,6.01,6.88,-5.38,-5.38,6.67
32.24,-11.27,-17.96,-11.27,-17.96,6.00,6.01,6.89,-5.27,-5.27,6.69
32.57,-11.17,-17.87,-11.17,-17.87,6.00,6.01,6.89,-5.17,-5.17,6.70
32.89,-11.06,-17.78,-11.06,-17.78,6.00,6.00,6.89,-5.06,-5.06,6.72
33.22,-10.96,-17.69,-10.96,-17.69,6.00,6.00,6.88,-4.96,-4.96,6.73
33.55,-10.85,-17.60,-10.85,-17.59,6.00,6.00,6.86,-4.85,-4.85,6.75
33.89,-10.74,-17.50,-10.74,-17.50,6.00,5.99,6.84,-4.74,-4.74,6.75
34.23,-10.63,-17.40,-10.62,-17.39,6.00,5.99,6.81,-4.63,-4.62,6.77
34.57,-10.52,-17.30,-10.52,-17.30,6.00,5.99,6.78,-4.52,-4.52,6.78
34.92,-10.42,-17.21,-10.44,-17.23,6.00,5.99,6.74,-4.42,-4.44,6.79
35.27,-10.39,-17.20,-10.40,-17.20,6.00,5.98,6.70,-4.39,-4.40,6.81
35.62,-10.38,-17.20,-10.38,-17.20,6.00,5.98,6.66,-4.38,-4.38,6.82
35.97,-10.38,-17.20,-10.35,-17.17,6.00,5.98,6.62,-4.38,-4.35,6.82
36.33,-10.28,-17.11,-10.27,-17.10,6.00,5.97,6.57,-4.28,-4.27,6.83
36.70,-10.17,-17.01,-10.18,-17.02,6.00,5.97,6.53,-4.17,-4.18,6.84
37.06,-10.08,-16.93,-10.10,-16.95,6.00,5.97,6.49,-4.08,-4.10,6.85
37.43,-10.07,-16.92,-10.06,-16.92,6.00,5.97,6.44,-4.07,-4.06,6.85
37.81,-10.06,-16.92,-10.05,-16.91,6.00,5.96,6.40,-4.06,-4.05,6.86
38.19,-10.05,-16.92,-10.05,-16.92,6.00,5.96,6.36,-4.05,-4.05,6.87
38.57,-10.05,-16.93,-10.05,-16.93,6.00,5.96,6.32,-4.05,-4.05,6.88
38.95,-10.05,-16.93,-10.05,-16.93,6.00,5.96,6.28,-4.05,-4.05,6.88
39.34,-10.04,-16.93,-10.04,-16.93,6.00,5.96,6.25,-4.04,-4.04,6.89
39.74,-10.02,-16.92,-10.02,-16.91,6.00,5.96,6.22,-4.02,-4.02,6.90
40.14,-9.97,-16.86,-9.95,-16.84,6.00,5.96,6.19,-3.97,-3.95,6.89
40.54,-9.86,-16.76,-9.86,-16.76,6.00,5.96,6.17,-3.86,-3.86,6.90
40.94,-9.75,-16.66,-9.78,-16.69,6.00,5.96,6.15,-3.75,-3.78,6.91
41.35,-9.73,-16.64,-9.73,-16.65,6.00,5.96,6.13,-3.73,-3.73,6.91
41.76,-9.73,-16.65,-9.72,-16.64,6.00,5.97,6.12,-3.73,-3.72,6.92
42.18,-9.73,-16.66,-9.73,-16.66,6.00,5.97,6.11,-3.73,-3.73,6.93
42.60,-9.73,-16.66,-9.73,-16.66,6.00,5.97,6.11,-3.73,-3.73,6.93
43.03,-9.73,-16.67,-9.71,-16.65,6.00,5.98,6.11,-3.73,-3.71,6.94
43.46,-9.66,-16.60,-9.67,-16.61,6.00,5.98,6.11,-3.66,-3.67,6.94
43.90,-9.60,-16.55,-9.60,-16.55,6.00,5.98,6.12,-3.60,-3.60,6.95
44.33,-9.52,-16.48,-9.52,-16.48,6.00,5.99,6.14,-3.52,-3.52,6.96
44.78,-9.45,-16.42,-9.46,-16.43,6.00,5.99,6.16,-3.45,-3.46,6.97
45.23,-9.41,-16.38,-9.42,-16.40,6.00,6.00,6.18,-3.41,-3.42,6.97
45.68,-9.41,-16.40,-9.40,-16.39,6.00,6.01,6.21,-3.41,-3.40,6.99
46.13,-9.40,-16.39,-9.40,-16.39,6.00,6.01,6.24,-3.40,-3.40,6.99
46.60,-9.36,-16.37,-9.36,-16.37,6.00,6.02,6.28,-3.36,-3.36,7.01
47.06,-9.32,-16.33,-9.30,-16.31,6.00,6.03,6.32,-3.32,-3.30,7.01
47.53,-9.20,-16.23,-9.20,-16.23,6.00,6.03,6.37,-3.20,-3.20,7.03
48.01,-9.09,-16.12,-9.11,-16.14,6.00,6.04,6.42,-3.09,-3.11,7.03
48.49,-9.02,-16.06,-9.02,-16.06,6.00,6.04,6.47,-3.02,-3.02,7.04
48.97,-8.95,-16.00,-8.95,-16.00,6.00,6.05,6.53,-2.95,-2.95,7.05
49.46,-8.86,-15.92,-8.87,-15.92,6.00,6.06,6.59,-2.86,-2.87,7.06
49.96,-8.77,-15.83,-8.75,-15.81,6.00,6.06,6.65,-2.77,-2.75,7.06
50.46,-8.61,-15.67,-8.61,-15.68,6.00,6.07,6.72,-2.61,-2.61,7.06
50.96,-8.44,-15.52,-8.48,-15.55,6.00,6.07,6.79,-2.44,-2.48,7.08
51.47,-8.35,-15.43,-8.35,-15.43,6.00,6.08,6.86,-2.35,-2.35,7.08
51.99,-8.26,-15.34,-8.23,-15.31,6.00,6.08,6.93,-2.26,-2.23,7.08
52.51,-8.11,-15.19,-8.11,-15.19,6.00,6.08,7.01,-2.11,-2.11,7.08
53.03,-7.96,-15.04,-7.98,-15.06,6.00,6.08,7.08,-1.96,-1.98,7.08
53.56,-7.85,-14.94,-7.85,-14.94,6.00,6.09,7.15,-1.85,-1.85,7.09
54.10,-7.74,-14.83,-7.74,-14.83,6.00,6.09,7.22,-1.74,-1.74,7.09
54.64,-7.63,-14.72,-7.63,-14.72,6.00,6.09,7.29,-1.63,-1.63,7.09
55.18,-7.51,-14.59,-7.51,-14.60,6.00,6.09,7.36,-1.51,-1.51,7.08
55.74,-7.40,-14.48,-7.39,-14.47,6.00,6.08,7.42,-1.40,-1.39,7.08
56.29,-7.29,-14.37,-7.28,-14.36,6.00,6.08,7.48,-1.29,-1.28,7.08
56.86,-7.18,-14.25,-7.20,-14.27,6.00,6.08,7.54,-1.18,-1.20,7.07
57.42,-7.15,-14.22,-7.15,-14.22,6.00,6.07,7.58,-1.15,-1.15,7.07
58.00,-7.14,-14.19,-7.13,-14.19,6.00,6.07,7.62,-1.14,-1.13,7.05
58.58,-7.14,-14.19,-7.14,-14.19,6.00,6.06,7.65,-1.14,-1.14,7.05
59.16,-7.14,-14.18,-7.14,-14.18,6.00,6.06,7.68,-1.14,-1.14,7.04
59.76,-7.14,-14.16,-7.14,-14.17,6.00,6.05,7.69,-1.14,-1.14,7.02
60.35,-7.14,-14.15,-7.14,-14.15,6.00,6.04,7.69,-1.14,-1.14,7.01
60.96,-7.14,-14.14,-7.14,-14.14,6.00,6.03,7.68,-1.14,-1.14,7.00
61.57,-7.14,-14.12,-7.14,-14.12,6.00,6.02,7.65,-1.14,-1.14,6.98
62.18,-7.14,-14.11,-7.14,-14.11,6.00,6.01,7.62,-1.14,-1.14,6.97
62.80,-7.14,-14.09,-7.14,-14.09,6.00,6.00,7.57,-1.14,-1.14,6.95
63.43,-7.14,-14.07,-7.13,-14.06,6.00,5.99,7.51,-1.14,-1.13,6.93
64.07,-7.14,-14.05,-7.13,-14.04,6.00,5.97,7.44,-1.14,-1.13,6.91
64.71,-7.15,-14.04,-7.20,-14.08,6.00,5.96,7.35,-1.15,-1.20,6.89
65.35,-7.27,-14.14,-7.29,-14.16,6.00,5.95,7.25,-1.27,-1.29,6.87
66.01,-7.46,-14.31,-7.39,-14.24,6.00,5.94,7.15,-1.46,-1.39,6.85
66.67,-7.46,-14.29,-7.46,-14.29,6.00,5.93,7.03,-1.46,-1.46,6.83
67.33,-7.47,-14.28,-7.49,-14.30,6.00,5.91,6.90,-1.47,-1.49,6.81
68.01,-7.49,-14.27,-7.52,-14.31,6.00,5.90,6.76,-1.49,-1.52,6.78
68.69,-7.61,-14.37,-7.61,-14.37,6.00,5.89,6.61,-1.61,-1.61,6.76
69.37,-7.71,-14.45,-7.70,-14.44,6.00,5.89,6.46,-1.71,-1.70,6.74
70.07,-7.78,-14.50,-7.76,-14.48,6.00,5.88,6.30,-1.78,-1.76,6.72
70.77,-7.76,-14.46,-7.75,-14.44,6.00,5.87,6.13,-1.76,-1.75,6.70
71.48,-7.67,-14.34,-7.68,-14.35,6.00,5.87,5.96,-1.67,-1.68,6.67
72.19,-7.56,-14.21,-7.56,-14.22,6.00,5.87,5.79,-1.56,-1.56,6.65
72.91,-7.44,-14.08,-7.45,-14.08,6.00,5.87,5.61,-1.44,-1.45,6.64
73.64,-7.33,-13.94,-7.34,-13.95,6.00,5.88,5.43,-1.33,-1.34,6.61
74.38,-7.22,-13.82,-7.21,-13.81,6.00,5.88,5.25,-1.22,-1.21,6.60
75.12,-7.08,-13.65,-7.05,-13.63,6.00,5.90,5.06,-1.08,-1.05,6.57
75.87,-6.86,-13.41,-6.86,-13.41,6.00,5.91,4.88,-0.86,-0.86,6.55
76.63,-6.64,-13.18,-6.66,-13.20,6.00,5.93,4.69,-0.64,-0.66,6.54
77.40,-6.46,-12.98,-6.49,-13.01,6.00,5.95,4.51,-0.46,-0.49,6.52
78.17,-6.32,-12.82,-6.31,-12.81,6.00,5.98,4.32,-0.32,-0.31,6.50
78.95,-6.12,-12.60,-6.06,-12.54,6.00,6.01,4.14,-0.12,-0.06,6.48
79.74,-5.71,-12.17,-5.70,-12.16,6.00,6.04,3.96,0.29,0.30,6.46
80.54,-5.22,-11.66,-5.25,-11.69,6.00,6.08,3.77,0.78,0.75,6.44
81.35,-4.74,-11.16,-4.77,-11.20,6.00,6.11,3.59,1.26,1.23,6.42
82.16,-4.29,-10.69,-4.27,-10.67,6.00,6.14,3.41,1.71,1.73,6.40
82.98,-3.81,-10.19,-3.74,-10.11,6.00,6.17,3.23,2.19,2.26,6.38
83.81,-3.14,-9.49,-3.19,-9.54,6.00,6.18,3.05,2.86,2.81,6.36
84.65,-2.63,-8.96,-2.67,-9.00,6.00,6.19,2.88,3.37,3.33,6.33
85.50,-2.21,-8.52,-2.20,-8.51,6.02,6.18,2.70,3.81,3.82,6.31
86.35,-1.83,-8.11,-1.81,-8.09,6.05,6.15,2.53,4.22,4.24,6.28
87.22,-1.43,-7.69,-1.42,-7.68,6.07,6.10,2.36,4.64,4.65,6.26
88.09,-1.02,-7.26,-1.05,-7.29,6.07,6.02,2.19,5.05,5.02,6.24
88.97,-0.68,-6.90,-0.68,-6.90,6.02,5.90,2.02,5.34,5.34,6.22
89.86,-0.34,-6.54,-0.32,-6.51,5.92,5.76,1.85,5.58,5.61,6.19
90.76,0.05,-6.12,0.06,-6.11,5.77,5.58,1.69,5.82,5.83,6.17
91.66,0.46,-5.69,0.44,-5.71,5.56,5.37,1.52,6.02,6.00,6.15
92.58,0.83,-5.29,0.81,-5.31,5.29,5.13,1.36,6.12,6.10,6.12
93.51,1.16,-4.94,1.18,-4.92,4.97,4.86,1.20,6.12,6.15,6.10
94.44,1.53,-4.55,1.55,-4.53,4.60,4.57,1.04,6.13,6.15,6.08
95.39,1.93,-4.12,1.90,-4.16,4.22,4.27,0.88,6.15,6.11,6.05
96.34,2.26,-3.77,2.25,-3.78,3.82,3.94,0.72,6.08,6.08,6.03
97.30,2.55,-3.45,2.60,-3.40,3.44,3.61,0.57,5.99,6.04,6.01
98.28,2.95,-3.03,2.92,-3.05,3.08,3.27,0.42,6.03,6.00,5.98
99.26,3.26,-2.69,3.22,-2.73,2.74,2.92,0.26,6.00,5.96,5.95
100.25,3.49,-2.44,3.51,-2.42,2.40,2.58,0.11,5.89,5.91,5.93
101.25,3.74,-2.16,3.78,-2.12,2.08,2.24,-0.04,5.82,5.86,5.90
102.27,4.10,-1.77,4.09,-1.78,1.76,1.89,-0.18,5.86,5.85,5.87
103.29,4.42,-1.41,4.41,-1.43,1.45,1.56,-0.33,5.87,5.86,5.83
104.32,4.71,-1.09,4.69,-1.11,1.14,1.22,-0.47,5.85,5.84,5.80
105.37,4.93,-0.84,4.93,-0.84,0.84,0.90,-0.61,5.76,5.77,5.77
106.42,5.16,-0.57,5.18,-0.56,0.53,0.58,-0.75,5.69,5.71,5.73
107.48,5.42,-0.27,5.44,-0.26,0.23,0.26,-0.88,5.65,5.67,5.69
108.56,5.73,0.08,5.72,0.06,-0.07,-0.04,-1.01,5.66,5.64,5.65
109.64,6.00,0.39,5.98,0.37,-0.36,-0.33,-1.14,5.64,5.62,5.61
110.74,6.22,0.64,6.23,0.65,-0.64,-0.62,-1.27,5.58,5.58,5.58
111.85,6.44,0.90,6.45,0.91,-0.91,-0.89,-1.39,5.53,5.54,5.54
112.97,6.66,1.17,6.67,1.18,-1.17,-1.15,-1.51,5.49,5.50,5.49
114.10,6.89,1.44,6.89,1.44,-1.42,-1.40,-1.62,5.47,5.47,5.45
115.24,7.10,1.70,7.08,1.67,-1.65,-1.64,-1.73,5.45,5.43,5.40
116.39,7.23,1.87,7.22,1.86,-1.86,-1.86,-1.83,5.37,5.36,5.36
117.55,7.35,2.03,7.36,2.04,-2.07,-2.07,-1.93,5.28,5.29,5.32
118.73,7.48,2.20,7.51,2.23,-2.27,-2.27,-2.02,5.21,5.24,5.28
119.92,7.69,2.46,7.67,2.44,-2.45,-2.46,-2.11,5.23,5.22,5.23
121.12,7.85,2.65,7.83,2.64,-2.63,-2.63,-2.19,5.22,5.20,5.19
122.33,7.96,2.80,7.97,2.81,-2.79,-2.79,-2.26,5.17,5.18,5.16
123.55,8.08,2.96,8.08,2.96,-2.95,-2.95,-2.33,5.13,5.14,5.12
124.79,8.19,3.10,8.19,3.11,-3.09,-3.09,-2.39,5.10,5.10,5.09
126.03,8.30,3.25,8.29,3.24,-3.23,-3.22,-2.45,5.07,5.06,5.05
127.29,8.38,3.36,8.37,3.35,-3.36,-3.35,-2.50,5.02,5.01,5.02
128.57,8.43,3.45,8.43,3.45,-3.47,-3.46,-2.55,4.96,4.96,4.98
129.85,8.48,3.53,8.50,3.55,-3.57,-3.57,-2.58,4.91,4.93,4.95
131.15,8.58,3.66,8.59,3.67,-3.66,-3.68,-2.62,4.92,4.93,4.92
132.46,8.69,3.81,8.68,3.79,-3.76,-3.78,-2.65,4.93,4.92,4.88
133.79,8.76,3.90,8.73,3.88,-3.85,-3.88,-2.67,4.91,4.88,4.86
135.12,8.76,3.93,8.76,3.93,-3.94,-3.97,-2.69,4.82,4.82,4.83
136.48,8.76,3.96,8.78,3.98,-4.04,-4.06,-2.71,4.72,4.75,4.80
137.84,8.83,4.06,8.85,4.08,-4.12,-4.14,-2.72,4.71,4.72,4.77
139.22,8.94,4.20,8.94,4.20,-4.20,-4.22,-2.72,4.74,4.74,4.74
140.61,9.05,4.34,9.02,4.31,-4.27,-4.30,-2.73,4.78,4.75,4.71
142.02,9.08,4.39,9.08,4.39,-4.34,-4.38,-2.73,4.74,4.74,4.69
143.44,9.08,4.42,9.09,4.43,-4.40,-4.44,-2.73,4.68,4.69,4.66
144.87,9.08,4.44,9.08,4.45,-4.45,-4.51,-2.73,4.63,4.63,4.64
146.32,9.08,4.48,9.08,4.48,-4.49,-4.57,-2.73,4.59,4.59,4.60
147.78,9.08,4.51,9.08,4.51,-4.52,-4.62,-2.72,4.56,4.56,4.57
149.26,9.08,4.53,9.08,4.53,-4.54,-4.67,-2.72,4.54,4.54,4.55
150.75,9.08,4.56,9.08,4.56,-4.56,-4.72,-2.72,4.52,4.52,4.52
152.26,9.08,4.58,9.08,4.58,-4.59,-4.75,-2.71,4.49,4.49,4.50
153.78,9.08,4.61,9.08,4.61,-4.62,-4.79,-2.71,4.46,4.46,4.47
155.32,9.08,4.64,9.08,4.64,-4.65,-4.81,-2.70,4.43,4.43,4.44
156.88,9.08,4.66,9.08,4.66,-4.67,-4.83,-2.70,4.41,4.41,4.42
158.44,9.08,4.68,9.08,4.69,-4.68,-4.83,-2.70,4.40,4.40,4.40
160.03,9.08,4.71,9.09,4.72,-4.68,-4.84,-2.70,4.40,4.40,4.37
161.63,9.08,4.73,9.07,4.73,-4.68,-4.83,-2.70,4.40,4.39,4.35
163.24,9.03,4.71,9.02,4.70,-4.67,-4.81,-2.70,4.36,4.35,4.31
164.88,8.94,4.64,8.93,4.64,-4.65,-4.79,-2.71,4.29,4.28,4.30
166.53,8.82,4.55,8.84,4.58,-4.63,-4.76,-2.71,4.19,4.22,4.27
168.19,8.77,4.53,8.79,4.55,-4.60,-4.72,-2.72,4.17,4.19,4.24
169.87,8.76,4.55,8.76,4.55,-4.56,-4.67,-2.73,4.20,4.20,4.21
171.57,8.76,4.58,8.74,4.56,-4.52,-4.62,-2.74,4.24,4.21,4.18
173.29,8.69,4.54,8.68,4.52,-4.49,-4.56,-2.76,4.20,4.19,4.15
175.02,8.59,4.46,8.59,4.46,-4.45,-4.49,-2.77,4.14,4.14,4.13
176.77,8.47,4.38,8.50,4.41,-4.42,-4.43,-2.79,4.05,4.08,4.09
178.54,8.44,4.37,8.44,4.37,-4.38,-4.36,-2.81,4.06,4.05,4.07
180.32,8.39,4.36,8.37,4.33,-4.34,-4.29,-2.84,4.05,4.03,4.03
182.13,8.30,4.29,8.29,4.29,-4.29,-4.22,-2.86,4.01,4.00,4.01
183.95,8.18,4.21,8.21,4.24,-4.24,-4.16,-2.89,3.94,3.97,3.97
185.79,8.12,4.18,8.14,4.19,-4.20,-4.10,-2.92,3.92,3.94,3.94
187.65,8.10,4.19,8.07,4.16,-4.15,-4.05,-2.96,3.95,3.92,3.91
189.52,8.01,4.13,8.00,4.12,-4.11,-4.00,-2.99,3.90,3.89,3.88
191.42,7.90,4.05,7.91,4.06,-4.06,-3.97,-3.03,3.84,3.86,3.85
193.33,7.81,3.99,7.83,4.01,-4.01,-3.94,-3.07,3.80,3.82,3.82
195.27,7.78,3.98,7.77,3.98,-3.97,-3.91,-3.11,3.81,3.80,3.80
197.22,7.72,3.96,7.69,3.93,-3.93,-3.89,-3.15,3.79,3.76,3.76
199.19,7.61,3.88,7.61,3.88,-3.90,-3.88,-3.20,3.71,3.71,3.73
201.18,7.50,3.81,7.52,3.83,-3.86,-3.86,-3.24,3.64,3.67,3.69
203.19,7.46,3.80,7.48,3.82,-3.82,-3.85,-3.29,3.64,3.66,3.66
205.23,7.46,3.83,7.45,3.82,-3.79,-3.84,-3.33,3.67,3.66,3.63
207.28,7.45,3.85,7.39,3.79,-3.76,-3.82,-3.38,3.69,3.63,3.60
209.35,7.29,3.72,7.30,3.73,-3.73,-3.81,-3.43,3.56,3.57,3.57
211.44,7.16,3.62,7.21,3.67,-3.70,-3.79,-3.48,3.46,3.51,3.54
213.56,7.14,3.63,7.14,3.64,-3.67,-3.77,-3.53,3.47,3.48,3.51
215.69,7.14,3.67,7.12,3.65,-3.64,-3.75,-3.57,3.50,3.48,3.47
217.85,7.08,3.65,7.06,3.63,-3.61,-3.72,-3.62,3.47,3.46,3.43
220.03,6.98,3.58,6.97,3.57,-3.57,-3.69,-3.67,3.41,3.40,3.40
222.23,6.86,3.48,6.88,3.51,-3.54,-3.66,-3.71,3.32,3.35,3.38
224.45,6.81,3.47,6.84,3.50,-3.50,-3.62,-3.75,3.31,3.34,3.34
226.70,6.81,3.50,6.81,3.49,-3.46,-3.58,-3.79,3.35,3.34,3.31
228.96,6.81,3.53,6.74,3.46,-3.43,-3.54,-3.82,3.38,3.32,3.28
231.25,6.64,3.38,6.65,3.39,-3.39,-3.50,-3.86,3.25,3.26,3.26
233.57,6.51,3.27,6.55,3.32,-3.36,-3.46,-3.88,3.15,3.19,3.24
235.90,6.49,3.27,6.49,3.27,-3.33,-3.41,-3.91,3.16,3.16,3.22
238.26,6.49,3.29,6.49,3.28,-3.30,-3.37,-3.93,3.19,3.19,3.20
240.64,6.49,3.31,6.49,3.31,-3.26,-3.32,-3.94,3.23,3.23,3.18
243.05,6.47,3.30,6.45,3.28,-3.22,-3.27,-3.95,3.25,3.23,3.17
245.48,6.39,3.24,6.38,3.22,-3.20,-3.22,-3.96,3.19,3.18,3.15
247.93,6.27,3.13,6.28,3.14,-3.17,-3.17,-3.96,3.10,3.11,3.14
250.41,6.18,3.06,6.20,3.08,-3.13,-3.12,-3.95,3.05,3.07,3.12
252.92,6.16,3.05,6.17,3.06,-3.08,-3.07,-3.94,3.08,3.09,3.11
255.45,6.16,3.06,6.15,3.05,-3.02,-3.02,-3.92,3.14,3.13,3.10
258.00,6.13,3.05,6.11,3.03,-2.97,-2.97,-3.90,3.16,3.14,3.08
260.58,6.04,2.96,6.03,2.96,-2.93,-2.92,-3.87,3.11,3.10,3.08
263.19,5.93,2.87,5.94,2.88,-2.91,-2.87,-3.84,3.02,3.03,3.06
265.82,5.84,2.79,5.87,2.82,-2.88,-2.82,-3.80,2.96,2.98,3.05
268.48,5.84,2.80,5.83,2.80,-2.85,-2.76,-3.76,2.99,2.98,3.04
271.16,5.84,2.82,5.84,2.82,-2.81,-2.71,-3.71,3.03,3.03,3.02
273.87,5.84,2.83,5.85,2.84,-2.77,-2.66,-3.66,3.07,3.07,3.01
276.61,5.84,2.84,5.81,2.81,-2.74,-2.62,-3.61,3.10,3.07,3.00
279.38,5.74,2.76,5.73,2.75,-2.71,-2.57,-3.55,3.03,3.02,2.98
282.17,5.62,2.65,5.64,2.67,-2.69,-2.52,-3.49,2.93,2.94,2.97
284.99,5.54,2.58,5.55,2.60,-2.67,-2.47,-3.43,2.87,2.89,2.96
287.84,5.51,2.57,5.51,2.57,-2.63,-2.42,-3.36,2.88,2.88,2.94
290.72,5.51,2.58,5.51,2.58,-2.59,-2.38,-3.30,2.92,2.92,2.93
293.63,5.51,2.59,5.51,2.59,-2.55,-2.33,-3.23,2.96,2.97,2.92
296.57,5.51,2.60,5.49,2.58,-2.51,-2.28,-3.16,3.00,2.98,2.91
299.53,5.43,2.54,5.42,2.53,-2.48,-2.24,-3.09,2.95,2.94,2.89
302.53,5.33,2.45,5.33,2.45,-2.47,-2.19,-3.02,2.86,2.86,2.88
305.55,5.22,2.36,5.24,2.38,-2.44,-2.15,-2.96,2.78,2.80,2.86
308.61,5.19,2.34,5.20,2.35,-2.42,-2.11,-2.89,2.77,2.78,2.85
311.69,5.19,2.36,5.19,2.35,-2.38,-2.06,-2.82,2.81,2.81,2.83
314.81,5.19,2.38,5.19,2.38,-2.34,-2.02,-2.75,2.85,2.85,2.81
317.96,5.19,2.39,5.18,2.38,-2.31,-1.98,-2.68,2.88,2.86,2.80
321.14,5.13,2.35,5.11,2.33,-2.29,-1.94,-2.62,2.84,2.82,2.78
324.35,5.02,2.25,5.02,2.26,-2.26,-1.90,-2.55,2.76,2.76,2.77
327.59,4.91,2.16,4.93,2.18,-2.23,-1.86,-2.49,2.68,2.70,2.75
330.87,4.87,2.14,4.88,2.15,-2.19,-1.82,-2.43,2.68,2.69,2.73
334.18,4.86,2.15,4.86,2.15,-2.14,-1.78,-2.37,2.72,2.72,2.71
337.52,4.86,2.16,4.83,2.13,-2.09,-1.74,-2.31,2.77,2.74,2.70
340.90,4.78,2.10,4.77,2.08,-2.06,-1.71,-2.25,2.72,2.71,2.68
344.30,4.67,2.00,4.68,2.01,-2.02,-1.67,-2.19,2.65,2.65,2.67
347.75,4.57,1.92,4.59,1.94,-1.99,-1.64,-2.14,2.58,2.60,2.65
351.23,4.54,1.91,4.55,1.92,-1.95,-1.60,-2.09,2.59,2.60,2.63
354.74,4.54,1.93,4.53,1.92,-1.91,-1.57,-2.03,2.63,2.63,2.61
358.28,4.53,1.94,4.50,1.91,-1.87,-1.53,-1.98,2.66,2.64,2.59
361.87,4.44,1.87,4.43,1.86,-1.83,-1.50,-1.94,2.61,2.60,2.57
365.49,4.33,1.77,4.34,1.78,-1.80,-1.47,-1.89,2.53,2.54,2.56
369.14,4.24,1.70,4.26,1.72,-1.76,-1.43,-1.84,2.48,2.50,2.54
372.83,4.22,1.69,4.23,1.70,-1.72,-1.40,-1.80,2.50,2.51,2.53
376.56,4.22,1.71,4.21,1.70,-1.67,-1.37,-1.76,2.55,2.54,2.51
380.33,4.19,1.70,4.17,1.68,-1.62,-1.34,-1.72,2.57,2.54,2.49
384.13,4.09,1.61,4.09,1.61,-1.58,-1.31,-1.68,2.51,2.51,2.48
387.97,3.98,1.52,3.99,1.54,-1.55,-1.28,-1.64,2.43,2.44,2.46
391.85,3.91,1.47,3.92,1.48,-1.53,-1.25,-1.61,2.38,2.39,2.44
395.77,3.89,1.46,3.89,1.46,-1.52,-1.22,-1.57,2.37,2.37,2.43
399.73,3.89,1.47,3.88,1.46,-1.49,-1.19,-1.54,2.40,2.39,2.42
403.72,3.89,1.48,3.89,1.48,-1.47,-1.17,-1.51,2.42,2.43,2.41
407.76,3.89,1.49,3.90,1.50,-1.44,-1.14,-1.47,2.45,2.46,2.40
411.84,3.89,1.51,3.87,1.49,-1.42,-1.11,-1.44,2.47,2.46,2.38
415.96,3.83,1.46,3.81,1.44,-1.40,-1.09,-1.42,2.43,2.41,2.37
420.12,3.72,1.36,3.73,1.37,-1.38,-1.06,-1.39,2.34,2.35,2.36
424.32,3.62,1.27,3.64,1.29,-1.35,-1.03,-1.36,2.27,2.29,2.35
428.56,3.58,1.24,3.58,1.25,-1.32,-1.01,-1.33,2.26,2.27,2.34
432.85,3.57,1.25,3.57,1.25,-1.28,-0.98,-1.31,2.29,2.29,2.32
437.18,3.57,1.26,3.58,1.27,-1.24,-0.96,-1.28,2.33,2.34,2.31
441.55,3.57,1.27,3.56,1.27,-1.20,-0.94,-1.26,2.37,2.36,2.30
445.96,3.53,1.25,3.51,1.23,-1.17,-0.91,-1.23,2.36,2.34,2.28
450.42,3.42,1.16,3.42,1.16,-1.14,-0.89,-1.21,2.28,2.28,2.26
454.93,3.32,1.07,3.33,1.09,-1.12,-0.87,-1.18,2.20,2.21,2.25
459.48,3.25,1.02,3.26,1.04,-1.10,-0.84,-1.16,2.15,2.16,2.23
464.07,3.24,1.03,3.24,1.03,-1.09,-0.82,-1.13,2.15,2.15,2.21
468.71,3.24,1.06,3.23,1.05,-1.07,-0.80,-1.11,2.17,2.17,2.18
473.40,3.24,1.07,3.25,1.07,-1.06,-0.78,-1.08,2.18,2.19,2.17
