frequency,raw,error,smoothed,error_smoothed,equalization,parametric_eq,fixed_band_eq,equalized_raw,equalized_smoothed,target
20.00,-7.31,-11.38,-7.31,-11.37,6.00,5.53,2.82,-1.31,-1.31,4.06
20.20,-7.25,-11.29,-7.25,-11.29,6.00,5.56,2.90,-1.25,-1.25,4.03
20.40,-7.18,-11.19,-7.19,-11.20,6.00,5.59,2.98,-1.18,-1.19,4.01
20.61,-7.12,-11.12,-7.12,-11.11,6.00,5.62,3.06,-1.12,-1.12,3.99
20.81,-7.06,-11.03,-7.06,-11.03,6.00,5.65,3.15,-1.06,-1.06,3.97
21.02,-6.99,-10.94,-7.00,-10.95,6.00,5.68,3.24,-0.99,-1.00,3.95
21.23,-6.93,-10.86,-6.93,-10.86,6.00,5.71,3.33,-0.93,-0.93,3.93
21.44,-6.87,-10.78,-6.87,-10.78,6.00,5.74,3.42,-0.87,-0.87,3.91
21.66,-6.80,-10.69,-6.80,-10.70,6.00,5.76,3.52,-0.80,-0.80,3.89
21.87,-6.74,-10.62,-6.74,-10.62,6.00,5.79,3.62,-0.74,-0.74,3.88
22.09,-6.67,-10.53,-6.67,-10.54,6.00,5.82,3.72,-0.67,-0.67,3.86
22.31,-6.61,-10.46,-6.61,-10.46,6.00,5.84,3.82,-0.61,-0.61,3.85
22.54,-6.54,-10.38,-6.54,-10.38,6.00,5.87,3.93,-0.54,-0.54,3.84
22.76,-6.48,-10.31,-6.48,-10.31,6.00,5.89,4.04,-0.48,-0.48,3.83
22.99,-6.41,-10.23,-6.41,-10.23,6.00,5.92,4.15,-0.41,-0.41,3.82
23.22,-6.35,-10.16,-6.35,-10.16,6.00,5.94,4.27,-0.35,-0.35,3.81
23.45,-6.28,-10.08,-6.28,-10.08,6.00,5.96,4.39,-0.28,-0.28,3.80
23.69,-6.22,-10.01,-6.22,-10.01,6.00,5.99,4.51,-0.22,-0.22,3.79
23.92,-6.15,-9.94,-6.15,-9.94,6.00,6.01,4.63,-0.15,-0.15,3.79
24.16,-6.09,-9.87,-6.09,-9.87,6.00,6.03,4.76,-0.09,-0.09,3.78
24.40,-6.02,-9.80,-6.02,-9.79,6.00,6.05,4.88,-0.02,-0.02,3.77
24.65,-5.95,-9.72,-5.95,-9.72,6.00,6.07,5.01,0.05,0.05,3.76
24.89,-5.89,-9.65,-5.89,-9.65,6.00,6.08,5.14,0.11,0.11,3.76
25.14,-5.82,-9.57,-5.82,-9.58,6.00,6.10,5.28,0.18,0.18,3.75
25.39,-5.76,-9.50,-5.76,-9.50,6.00,6.12,5.41,0.24,0.24,3.74
25.65,-5.69,-9.43,-5.69,-9.43,6.00,6.14,5.55,0.31,0.31,3.74
25.91,-5.62,-9.35,-5.63,-9.36,6.00,6.15,5.68,0.38,0.37,3.73
26.16,-5.56,-9.29,-5.56,-9.29,6.00,6.16,5.81,0.44,0.44,3.73
26.43,-5.49,-9.22,-5.49,-9.22,6.00,6.18,5.95,0.51,0.51,3.73
26.69,-5.43,-9.15,-5.43,-9.15,6.00,6.19,6.08,0.57,0.57,3.72
26.96,-5.36,-9.08,-5.36,-9.08,6.00,6.20,6.21,0.64,0.64,3.72
27.23,-5.29,-9.00,-5.30,-9.00,6.00,6.21,6.34,0.71,0.70,3.71
27.50,-5.23,-8.94,-5.23,-8.93,6.00,6.22,6.47,0.77,0.77,3.70
27.77,-5.16,-8.86,-5.16,-8.86,6.00,6.23,6.59,0.84,0.84,3.70
28.05,-5.10,-8.79,-5.10,-8.80,6.00,6.24,6.71,0.90,0.90,3.69
28.33,-5.03,-8.72,-5.03,-8.72,6.00,6.25,6.82,0.97,0.97,3.69
28.62,-4.96,-8.65,-4.96,-8.65,6.00,6.26,6.93,1.04,1.04,3.69
28.90,-4.89,-8.57,-4.89,-8.58,6.00,6.26,7.02,1.11,1.11,3.68
29.19,-4.83,-8.51,-4.83,-8.51,6.00,6.27,7.11,1.17,1.17,3.68
29.48,-4.76,-8.44,-4.76,-8.44,6.00,6.27,7.20,1.24,1.24,3.68
29.78,-4.70,-8.38,-4.70,-8.37,6.00,6.27,7.27,1.30,1.30,3.67
30.08,-4.63,-8.30,-4.63,-8.30,6.00,6.28,7.33,1.37,1.37,3.67
30.38,-4.56,-8.22,-4.56,-8.23,6.00,6.28,7.38,1.44,1.44,3.66
30.68,-4.49,-8.15,-4.49,-8.15,6.00,6.28,7.42,1.51,1.51,3.66
30.99,-4.42,-8.08,-4.43,-8.08,6.00,6.28,7.45,1.58,1.57,3.66
31.30,-4.36,-8.02,-4.36,-8.01,6.00,6.27,7.47,1.64,1.64,3.65
31.61,-4.30,-7.94,-4.30,-7.94,6.00,6.27,7.48,1.70,1.70,3.64
31.93,-4.23,-7.87,-4.24,-7.88,6.00,6.27,7.47,1.77,1.76,3.64
32.24,-4.17,-7.81,-4.17,-7.81,6.00,6.26,7.45,1.83,1.83,3.64
32.57,-4.11,-7.74,-4.11,-7.74,6.00,6.26,7.43,1.89,1.89,3.63
32.89,-4.04,-7.67,-4.04,-7.67,6.00,6.25,7.39,1.96,1.96,3.62
33.22,-3.98,-7.60,-3.99,-7.60,6.00,6.24,7.34,2.02,2.01,3.62
33.55,-3.93,-7.54,-3.93,-7.54,6.00,6.23,7.29,2.07,2.07,3.61
33.89,-3.87,-7.48,-3.87,-7.48,6.00,6.22,7.22,2.13,2.13,3.61
34.23,-3.81,-7.42,-3.81,-7.41,6.00,6.21,7.15,2.19,2.19,3.60
34.57,-3.75,-7.34,-3.75,-7.35,6.00,6.20,7.07,2.25,2.25,3.59
34.92,-3.69,-7.28,-3.69,-7.28,6.00,6.19,6.99,2.31,2.31,3.59
35.27,-3.63,-7.22,-3.63,-7.21,6.00,6.17,6.90,2.37,2.37,3.59
35.62,-3.57,-7.14,-3.57,-7.15,6.00,6.16,6.81,2.43,2.43,3.57
35.97,-3.51,-7.08,-3.51,-7.08,6.00,6.14,6.71,2.49,2.49,3.57
36.33,-3.46,-7.03,-3.46,-7.02,6.00,6.12,6.61,2.54,2.54,3.57
36.70,-3.40,-6.96,-3.40,-6.96,6.00,6.10,6.51,2.60,2.60,3.56
37.06,-3.34,-6.90,-3.34,-6.90,6.00,6.08,6.41,2.66,2.66,3.56
37.43,-3.28,-6.83,-3.28,-6.83,6.00,6.06,6.31,2.72,2.72,3.54
37.81,-3.21,-6.75,-3.21,-6.75,6.00,6.04,6.21,2.79,2.79,3.54
38.19,-3.15,-6.69,-3.16,-6.69,6.00,6.02,6.11,2.85,2.84,3.54
38.57,-3.10,-6.62,-3.10,-6.62,6.00,6.00,6.01,2.90,2.90,3.52
38.95,-3.05,-6.57,-3.05,-6.56,6.00,5.97,5.92,2.95,2.95,3.52
39.34,-2.99,-6.49,-2.99,-6.50,6.00,5.95,5.82,3.01,3.01,3.50
39.74,-2.94,-6.44,-2.94,-6.43,6.00,5.92,5.73,3.06,3.06,3.50
40.14,-2.88,-6.37,-2.88,-6.37,6.00,5.89,5.64,3.12,3.12,3.48
40.54,-2.83,-6.31,-2.83,-6.31,6.01,5.86,5.55,3.17,3.17,3.48
40.94,-2.78,-6.25,-2.78,-6.25,6.01,5.83,5.47,3.23,3.23,3.47
41.35,-2.73,-6.20,-2.73,-6.20,6.01,5.80,5.39,3.28,3.28,3.47
41.76,-2.68,-6.14,-2.68,-6.14,6.01,5.77,5.31,3.33,3.33,3.46
42.18,-2.63,-6.09,-2.63,-6.09,6.00,5.73,5.24,3.36,3.36,3.45
42.60,-2.58,-6.03,-2.58,-6.03,5.97,5.70,5.17,3.39,3.39,3.45
43.03,-2.53,-5.98,-2.53,-5.98,5.95,5.67,5.10,3.41,3.42,3.45
43.46,-2.47,-5.92,-2.47,-5.92,5.91,5.63,5.04,3.43,3.43,3.45
43.90,-2.41,-5.85,-2.42,-5.86,5.86,5.59,4.98,3.45,3.44,3.44
44.33,-2.36,-5.79,-2.36,-5.79,5.80,5.55,4.93,3.44,3.44,3.43
44.78,-2.31,-5.74,-2.31,-5.73,5.74,5.51,4.88,3.43,3.43,3.42
45.23,-2.25,-5.67,-2.25,-5.67,5.67,5.47,4.83,3.42,3.42,3.42
45.68,-2.19,-5.60,-2.20,-5.60,5.61,5.43,4.79,3.42,3.41,3.41
46.13,-2.14,-5.54,-2.14,-5.54,5.54,5.39,4.75,3.40,3.40,3.40
46.60,-2.09,-5.48,-2.09,-5.48,5.48,5.35,4.71,3.39,3.39,3.39
47.06,-2.04,-5.42,-2.04,-5.42,5.42,5.30,4.68,3.38,3.38,3.38
47.53,-1.99,-5.35,-1.99,-5.36,5.35,5.26,4.65,3.36,3.36,3.36
48.01,-1.94,-5.29,-1.94,-5.29,5.29,5.21,4.62,3.35,3.35,3.35
48.49,-1.89,-5.23,-1.89,-5.23,5.23,5.17,4.60,3.33,3.34,3.34
48.97,-1.83,-5.16,-1.83,-5.16,5.16,5.12,4.58,3.33,3.33,3.33
49.46,-1.78,-5.10,-1.78,-5.10,5.10,5.07,4.56,3.32,3.32,3.32
49.96,-1.72,-5.03,-1.72,-5.03,5.04,5.02,4.55,3.32,3.31,3.31
50.46,-1.67,-4.97,-1.67,-4.97,4.98,4.97,4.54,3.30,3.30,3.30
50.96,-1.62,-4.91,-1.62,-4.91,4.91,4.92,4.53,3.29,3.29,3.28
51.47,-1.58,-4.86,-1.58,-4.86,4.85,4.86,4.52,3.27,3.28,3.28
51.99,-1.53,-4.80,-1.53,-4.80,4.79,4.81,4.51,3.26,3.26,3.27
52.51,-1.48,-4.74,-1.48,-4.74,4.73,4.76,4.51,3.25,3.25,3.25
53.03,-1.43,-4.67,-1.43,-4.67,4.67,4.70,4.50,3.24,3.24,3.24
53.56,-1.38,-4.61,-1.39,-4.62,4.61,4.65,4.50,3.23,3.23,3.23
54.10,-1.34,-4.56,-1.34,-4.56,4.55,4.59,4.49,3.21,3.21,3.22
54.64,-1.29,-4.50,-1.29,-4.49,4.49,4.53,4.49,3.20,3.20,3.21
55.18,-1.23,-4.42,-1.23,-4.43,4.43,4.48,4.48,3.20,3.19,3.19
55.74,-1.18,-4.35,-1.19,-4.36,4.37,4.42,4.48,3.19,3.18,3.17
56.29,-1.14,-4.31,-1.14,-4.30,4.31,4.36,4.47,3.17,3.17,3.17
56.86,-1.11,-4.26,-1.11,-4.25,4.26,4.30,4.46,3.15,3.15,3.15
57.42,-1.07,-4.20,-1.07,-4.21,4.20,4.24,4.45,3.13,3.13,3.13
58.00,-1.03,-4.15,-1.04,-4.15,4.15,4.18,4.43,3.12,3.11,3.12
58.58,-1.00,-4.10,-1.00,-4.10,4.10,4.11,4.42,3.09,3.10,3.10
59.16,-0.96,-4.04,-0.96,-4.05,4.04,4.05,4.40,3.08,3.08,3.08
59.76,-0.92,-3.99,-0.92,-3.99,3.98,3.99,4.37,3.06,3.06,3.07
60.35,-0.88,-3.93,-0.88,-3.93,3.92,3.92,4.34,3.04,3.04,3.05
60.96,-0.83,-3.86,-0.84,-3.86,3.86,3.86,4.31,3.03,3.03,3.03
61.57,-0.79,-3.80,-0.79,-3.80,3.80,3.79,4.27,3.01,3.01,3.00
62.18,-0.75,-3.73,-0.75,-3.73,3.73,3.73,4.23,2.98,2.98,2.98
62.80,-0.71,-3.67,-0.71,-3.67,3.67,3.66,4.19,2.96,2.96,2.96
63.43,-0.67,-3.60,-0.67,-3.60,3.61,3.59,4.13,2.94,2.93,2.93
64.07,-0.64,-3.55,-0.64,-3.54,3.55,3.53,4.08,2.90,2.91,2.90
64.71,-0.60,-3.48,-0.60,-3.48,3.48,3.46,4.02,2.88,2.88,2.88
65.35,-0.57,-3.42,-0.57,-3.42,3.42,3.39,3.95,2.85,2.85,2.85
66.01,-0.54,-3.36,-0.54,-3.36,3.36,3.32,3.88,2.82,2.82,2.82
66.67,-0.51,-3.31,-0.51,-3.31,3.30,3.25,3.81,2.79,2.79,2.79
67.33,-0.48,-3.25,-0.48,-3.24,3.23,3.18,3.73,2.75,2.76,2.76
68.01,-0.44,-3.17,-0.44,-3.17,3.17,3.11,3.65,2.73,2.73,2.73
68.69,-0.40,-3.10,-0.40,-3.10,3.11,3.04,3.57,2.71,2.71,2.70
69.37,-0.36,-3.03,-0.36,-3.03,3.04,2.97,3.48,2.68,2.68,2.67
70.07,-0.33,-2.97,-0.33,-2.97,2.98,2.90,3.39,2.65,2.65,2.64
70.77,-0.31,-2.91,-0.31,-2.91,2.92,2.82,3.29,2.60,2.61,2.60
71.48,-0.28,-2.86,-0.28,-2.86,2.85,2.75,3.20,2.57,2.57,2.58
72.19,-0.25,-2.79,-0.25,-2.79,2.78,2.68,3.10,2.53,2.53,2.54
72.91,-0.21,-2.72,-0.22,-2.72,2.72,2.61,3.00,2.50,2.50,2.51
73.64,-0.18,-2.65,-0.18,-2.65,2.65,2.53,2.90,2.47,2.47,2.47
74.38,-0.14,-2.58,-0.14,-2.58,2.58,2.46,2.80,2.44,2.44,2.44
75.12,-0.09,-2.49,-0.10,-2.50,2.51,2.38,2.70,2.41,2.41,2.40
75.87,-0.06,-2.43,-0.06,-2.43,2.43,2.31,2.59,2.37,2.38,2.37
76.63,-0.02,-2.35,-0.02,-2.35,2.36,2.24,2.49,2.34,2.34,2.33
77.40,0.01,-2.28,0.01,-2.29,2.29,2.16,2.39,2.30,2.29,2.29
78.17,0.04,-2.22,0.04,-2.21,2.21,2.09,2.29,2.25,2.25,2.26
78.95,0.07,-2.15,0.07,-2.14,2.14,2.01,2.18,2.20,2.21,2.21
79.74,0.11,-2.06,0.11,-2.07,2.06,1.94,2.08,2.17,2.17,2.17
80.54,0.15,-1.99,0.15,-1.98,1.98,1.86,1.98,2.13,2.13,2.14
81.35,0.20,-1.89,0.20,-1.89,1.90,1.79,1.88,2.09,2.09,2.09
82.16,0.24,-1.80,0.24,-1.81,1.81,1.71,1.78,2.05,2.05,2.04
82.98,0.28,-1.72,0.28,-1.72,1.72,1.64,1.68,2.00,2.00,2.00
83.81,0.31,-1.64,0.31,-1.64,1.64,1.56,1.58,1.94,1.95,1.95
84.65,0.35,-1.56,0.35,-1.56,1.55,1.49,1.48,1.90,1.90,1.91
85.50,0.39,-1.47,0.39,-1.47,1.46,1.41,1.38,1.85,1.85,1.86
86.35,0.44,-1.37,0.44,-1.37,1.38,1.33,1.28,1.81,1.81,1.81
87.22,0.48,-1.28,0.48,-1.28,1.29,1.26,1.19,1.77,1.77,1.76
88.09,0.51,-1.20,0.51,-1.20,1.21,1.18,1.09,1.72,1.72,1.71
88.97,0.53,-1.13,0.53,-1.12,1.13,1.11,1.00,1.66,1.66,1.65
89.86,0.55,-1.05,0.55,-1.05,1.05,1.03,0.90,1.60,1.60,1.60
90.76,0.57,-0.98,0.57,-0.98,0.97,0.96,0.81,1.54,1.54,1.55
91.66,0.59,-0.91,0.59,-0.90,0.89,0.88,0.72,1.48,1.48,1.49
92.58,0.62,-0.82,0.62,-0.82,0.81,0.81,0.63,1.43,1.43,1.44
93.51,0.66,-0.73,0.65,-0.73,0.73,0.73,0.53,1.39,1.38,1.38
94.44,0.69,-0.64,0.69,-0.64,0.64,0.66,0.44,1.33,1.34,1.33
95.39,0.73,-0.55,0.73,-0.55,0.56,0.58,0.35,1.29,1.28,1.27
96.34,0.76,-0.46,0.76,-0.47,0.47,0.51,0.27,1.23,1.23,1.22
97.30,0.78,-0.39,0.78,-0.39,0.38,0.43,0.18,1.16,1.16,1.17
98.28,0.81,-0.31,0.81,-0.31,0.30,0.36,0.09,1.11,1.10,1.11
99.26,0.83,-0.23,0.84,-0.22,0.21,0.29,0.00,1.04,1.05,1.06
100.25,0.87,-0.13,0.87,-0.13,0.13,0.21,-0.08,1.00,1.00,1.00
101.25,0.90,-0.04,0.89,-0.05,0.06,0.14,-0.17,0.95,0.95,0.94
102.27,0.92,0.03,0.92,0.03,-0.02,0.06,-0.25,0.90,0.90,0.88
103.29,0.93,0.10,0.93,0.10,-0.09,-0.01,-0.33,0.84,0.84,0.83
104.32,0.94,0.16,0.94,0.16,-0.16,-0.08,-0.41,0.78,0.78,0.78
105.37,0.95,0.23,0.95,0.23,-0.23,-0.15,-0.49,0.72,0.72,0.72
106.42,0.96,0.30,0.96,0.29,-0.29,-0.23,-0.57,0.66,0.66,0.66
107.48,0.97,0.35,0.97,0.36,-0.36,-0.30,-0.65,0.61,0.61,0.62
108.56,0.99,0.43,0.98,0.43,-0.43,-0.37,-0.73,0.56,0.55,0.56
109.64,1.00,0.50,1.00,0.50,-0.50,-0.44,-0.80,0.49,0.49,0.50
110.74,1.01,0.57,1.02,0.58,-0.58,-0.51,-0.88,0.43,0.44,0.44
111.85,1.05,0.66,1.05,0.66,-0.66,-0.58,-0.95,0.38,0.38,0.39
112.97,1.09,0.75,1.08,0.75,-0.75,-0.65,-1.02,0.34,0.34,0.34
114.10,1.12,0.84,1.12,0.84,-0.83,-0.72,-1.09,0.28,0.29,0.28
115.24,1.15,0.92,1.15,0.92,-0.92,-0.79,-1.16,0.23,0.23,0.23
116.39,1.18,1.01,1.18,1.01,-1.01,-0.86,-1.22,0.17,0.17,0.17
117.55,1.21,1.08,1.21,1.09,-1.09,-0.93,-1.28,0.12,0.12,0.12
118.73,1.24,1.17,1.24,1.17,-1.17,-1.00,-1.34,0.07,0.07,0.07
119.92,1.27,1.25,1.27,1.25,-1.25,-1.06,-1.40,0.02,0.02,0.01
121.12,1.29,1.33,1.29,1.32,-1.31,-1.13,-1.45,-0.03,-0.03,-0.04
122.33,1.30,1.38,1.30,1.39,-1.38,-1.20,-1.51,-0.08,-0.08,-0.08
123.55,1.31,1.44,1.31,1.44,-1.43,-1.26,-1.55,-0.13,-0.13,-0.14
124.79,1.31,1.49,1.31,1.49,-1.49,-1.33,-1.60,-0.18,-0.18,-0.18
126.03,1.31,1.54,1.31,1.53,-1.53,-1.40,-1.65,-0.23,-0.23,-0.23
127.29,1.30,1.57,1.30,1.57,-1.58,-1.46,-1.69,-0.28,-0.28,-0.27
128.57,1.29,1.61,1.29,1.62,-1.62,-1.53,-1.73,-0.33,-0.33,-0.32
129.85,1.29,1.66,1.29,1.66,-1.66,-1.59,-1.77,-0.37,-0.38,-0.37
131.15,1.29,1.71,1.29,1.70,-1.71,-1.65,-1.80,-0.42,-0.42,-0.42
132.46,1.29,1.75,1.29,1.75,-1.75,-1.72,-1.84,-0.46,-0.46,-0.46
133.79,1.29,1.79,1.29,1.80,-1.80,-1.78,-1.87,-0.51,-0.51,-0.51
135.12,1.29,1.84,1.29,1.84,-1.84,-1.84,-1.90,-0.55,-0.55,-0.55
136.48,1.29,1.89,1.29,1.89,-1.89,-1.90,-1.93,-0.60,-0.60,-0.60
137.84,1.29,1.93,1.29,1.93,-1.93,-1.97,-1.95,-0.64,-0.64,-0.64
139.22,1.29,1.98,1.29,1.98,-1.97,-2.03,-1.98,-0.68,-0.68,-0.69
140.61,1.29,2.02,1.29,2.02,-2.01,-2.09,-2.01,-0.72,-0.72,-0.73
142.02,1.29,2.05,1.28,2.05,-2.05,-2.15,-2.03,-0.76,-0.76,-0.76
143.44,1.28,2.08,1.28,2.08,-2.08,-2.21,-2.05,-0.80,-0.81,-0.81
144.87,1.27,2.12,1.27,2.11,-2.12,-2.27,-2.08,-0.85,-0.85,-0.85
146.32,1.27,2.15,1.27,2.15,-2.16,-2.33,-2.10,-0.89,-0.89,-0.88
147.78,1.28,2.19,1.28,2.19,-2.20,-2.39,-2.13,-0.92,-0.92,-0.92
149.26,1.29,2.24,1.29,2.24,-2.24,-2.45,-2.15,-0.95,-0.95,-0.95
150.75,1.31,2.29,1.31,2.29,-2.29,-2.50,-2.18,-0.98,-0.98,-0.98
152.26,1.32,2.34,1.32,2.34,-2.34,-2.56,-2.20,-1.02,-1.02,-1.02
153.78,1.35,2.40,1.35,2.40,-2.40,-2.62,-2.23,-1.05,-1.05,-1.05
155.32,1.37,2.45,1.37,2.45,-2.46,-2.68,-2.26,-1.09,-1.09,-1.08
156.88,1.41,2.52,1.41,2.52,-2.53,-2.73,-2.29,-1.12,-1.12,-1.11
158.44,1.44,2.59,1.45,2.59,-2.60,-2.79,-2.32,-1.16,-1.15,-1.15
160.03,1.50,2.68,1.49,2.67,-2.67,-2.85,-2.35,-1.17,-1.18,-1.18
161.63,1.54,2.75,1.54,2.75,-2.74,-2.91,-2.38,-1.20,-1.20,-1.21
163.24,1.58,2.81,1.59,2.82,-2.82,-2.96,-2.42,-1.24,-1.23,-1.23
164.88,1.64,2.90,1.63,2.89,-2.89,-3.02,-2.46,-1.26,-1.26,-1.26
166.53,1.68,2.97,1.68,2.97,-2.97,-3.08,-2.50,-1.29,-1.29,-1.29
168.19,1.72,3.04,1.73,3.05,-3.05,-3.13,-2.54,-1.33,-1.32,-1.32
169.87,1.79,3.13,1.78,3.12,-3.12,-3.19,-2.58,-1.34,-1.35,-1.34
171.57,1.84,3.20,1.84,3.20,-3.20,-3.25,-2.63,-1.36,-1.36,-1.36
173.29,1.88,3.27,1.89,3.28,-3.27,-3.30,-2.67,-1.39,-1.38,-1.39
175.02,1.95,3.36,1.94,3.35,-3.34,-3.36,-2.72,-1.40,-1.40,-1.42
176.77,1.99,3.42,1.99,3.42,-3.42,-3.42,-2.77,-1.43,-1.43,-1.43
178.54,2.03,3.48,2.03,3.48,-3.49,-3.48,-2.83,-1.46,-1.46,-1.45
180.32,2.07,3.55,2.07,3.55,-3.55,-3.53,-2.88,-1.49,-1.48,-1.48
182.13,2.11,3.61,2.12,3.62,-3.62,-3.59,-2.94,-1.51,-1.50,-1.50
183.95,2.18,3.70,2.17,3.69,-3.69,-3.65,-3.00,-1.51,-1.52,-1.52
185.79,2.22,3.76,2.22,3.76,-3.76,-3.71,-3.07,-1.54,-1.54,-1.54
187.65,2.26,3.82,2.26,3.82,-3.82,-3.77,-3.13,-1.57,-1.56,-1.56
189.52,2.30,3.88,2.30,3.88,-3.89,-3.82,-3.20,-1.59,-1.59,-1.58
191.42,2.35,3.95,2.35,3.95,-3.95,-3.88,-3.27,-1.60,-1.60,-1.60
193.33,2.39,4.01,2.39,4.01,-4.01,-3.94,-3.34,-1.62,-1.62,-1.62
195.27,2.44,4.08,2.43,4.07,-4.06,-3.99,-3.41,-1.62,-1.63,-1.64
197.22,2.47,4.12,2.46,4.12,-4.11,-4.05,-3.48,-1.64,-1.65,-1.66
199.19,2.49,4.16,2.49,4.16,-4.16,-4.10,-3.56,-1.67,-1.67,-1.67
201.18,2.51,4.19,2.51,4.19,-4.20,-4.15,-3.63,-1.69,-1.69,-1.68
203.19,2.54,4.23,2.54,4.23,-4.24,-4.20,-3.71,-1.70,-1.70,-1.69
205.23,2.56,4.26,2.56,4.26,-4.27,-4.24,-3.79,-1.71,-1.71,-1.70
207.28,2.58,4.29,2.58,4.29,-4.29,-4.29,-3.87,-1.71,-1.71,-1.71
209.35,2.60,4.33,2.60,4.32,-4.31,-4.33,-3.95,-1.71,-1.72,-1.73
211.44,2.61,4.34,2.61,4.34,-4.33,-4.36,-4.02,-1.72,-1.72,-1.73
213.56,2.61,4.35,2.61,4.35,-4.35,-4.40,-4.10,-1.74,-1.74,-1.75
215.69,2.60,4.36,2.60,4.36,-4.36,-4.42,-4.18,-1.76,-1.76,-1.76
217.85,2.59,4.36,2.59,4.36,-4.37,-4.45,-4.25,-1.78,-1.77,-1.77
220.03,2.59,4.36,2.59,4.36,-4.37,-4.46,-4.33,-1.78,-1.78,-1.77
222.23,2.59,4.37,2.59,4.37,-4.38,-4.48,-4.40,-1.79,-1.79,-1.78
224.45,2.59,4.38,2.59,4.38,-4.38,-4.48,-4.47,-1.80,-1.80,-1.79
226.70,2.59,4.39,2.59,4.39,-4.39,-4.49,-4.53,-1.80,-1.80,-1.81
228.96,2.59,4.39,2.59,4.40,-4.40,-4.49,-4.60,-1.81,-1.81,-1.81
231.25,2.59,4.40,2.59,4.40,-4.40,-4.48,-4.65,-1.81,-1.81,-1.82
233.57,2.59,4.41,2.59,4.41,-4.41,-4.48,-4.71,-1.82,-1.82,-1.83
235.90,2.59,4.41,2.59,4.42,-4.41,-4.47,-4.75,-1.83,-1.83,-1.82
238.26,2.59,4.42,2.59,4.42,-4.42,-4.45,-4.80,-1.83,-1.83,-1.83
240.64,2.59,4.42,2.59,4.42,-4.42,-4.44,-4.83,-1.84,-1.84,-1.83
243.05,2.59,4.42,2.59,4.42,-4.43,-4.42,-4.87,-1.84,-1.84,-1.83
245.48,2.60,4.43,2.60,4.43,-4.43,-4.40,-4.89,-1.83,-1.84,-1.83
247.93,2.60,4.43,2.60,4.43,-4.44,-4.38,-4.91,-1.84,-1.83,-1.84
250.41,2.61,4.44,2.61,4.44,-4.44,-4.36,-4.92,-1.83,-1.83,-1.83
252.92,2.61,4.44,2.61,4.44,-4.43,-4.34,-4.93,-1.82,-1.83,-1.83
255.45,2.60,4.43,2.60,4.43,-4.43,-4.32,-4.93,-1.83,-1.83,-1.83
258.00,2.59,4.42,2.59,4.42,-4.42,-4.30,-4.92,-1.83,-1.83,-1.83
260.58,2.57,4.40,2.57,4.40,-4.40,-4.28,-4.91,-1.83,-1.83,-1.83
263.19,2.55,4.39,2.54,4.38,-4.38,-4.27,-4.89,-1.83,-1.83,-1.84
265.82,2.51,4.35,2.52,4.35,-4.35,-4.25,-4.86,-1.84,-1.84,-1.84
268.48,2.49,4.33,2.48,4.33,-4.32,-4.23,-4.83,-1.83,-1.84,-1.84
271.16,2.45,4.29,2.45,4.29,-4.29,-4.21,-4.80,-1.84,-1.84,-1.84
273.87,2.41,4.26,2.41,4.26,-4.26,-4.20,-4.76,-1.85,-1.85,-1.85
276.61,2.38,4.22,2.38,4.22,-4.23,-4.18,-4.72,-1.85,-1.85,-1.84
279.38,2.35,4.20,2.35,4.19,-4.19,-4.17,-4.67,-1.85,-1.85,-1.85
282.17,2.32,4.16,2.32,4.17,-4.17,-4.15,-4.63,-1.85,-1.85,-1.84
284.99,2.30,4.15,2.29,4.14,-4.14,-4.14,-4.58,-1.84,-1.85,-1.85
287.84,2.27,4.12,2.27,4.12,-4.13,-4.13,-4.52,-1.86,-1.86,-1.85
290.72,2.25,4.11,2.25,4.11,-4.12,-4.12,-4.47,-1.87,-1.87,-1.86
293.63,2.24,4.10,2.24,4.10,-4.11,-4.10,-4.41,-1.87,-1.87,-1.86
296.57,2.24,4.10,2.24,4.10,-4.11,-4.09,-4.36,-1.87,-1.87,-1.86
299.53,2.25,4.11,2.25,4.11,-4.12,-4.08,-4.30,-1.87,-1.87,-1.86
302.53,2.27,4.13,2.26,4.13,-4.12,-4.08,-4.25,-1.85,-1.86,-1.86
305.55,2.28,4.14,2.28,4.14,-4.13,-4.07,-4.19,-1.85,-1.85,-1.87
308.61,2.28,4.14,2.28,4.14,-4.13,-4.06,-4.14,-1.85,-1.85,-1.86
311.69,2.28,4.14,2.28,4.14,-4.13,-4.05,-4.09,-1.85,-1.86,-1.86
314.81,2.27,4.12,2.27,4.13,-4.13,-4.04,-4.04,-1.86,-1.86,-1.85
317.96,2.26,4.12,2.26,4.12,-4.11,-4.03,-3.99,-1.85,-1.85,-1.86
321.14,2.25,4.10,2.24,4.10,-4.09,-4.03,-3.94,-1.84,-1.85,-1.85
324.35,2.22,4.07,2.22,4.07,-4.06,-4.02,-3.89,-1.85,-1.85,-1.85
327.59,2.18,4.03,2.19,4.04,-4.03,-4.01,-3.85,-1.86,-1.85,-1.86
330.87,2.16,4.01,2.15,4.00,-4.00,-4.01,-3.81,-1.84,-1.85,-1.85
334.18,2.12,3.96,2.12,3.96,-3.97,-4.00,-3.77,-1.85,-1.85,-1.84
337.52,2.08,3.92,2.09,3.93,-3.93,-3.99,-3.73,-1.85,-1.84,-1.84
340.90,2.06,3.89,2.05,3.89,-3.90,-3.98,-3.70,-1.84,-1.84,-1.84
344.30,2.03,3.87,2.03,3.87,-3.86,-3.98,-3.67,-1.83,-1.84,-1.84
347.75,2.00,3.84,2.00,3.84,-3.83,-3.97,-3.64,-1.84,-1.83,-1.84
351.23,1.97,3.81,1.97,3.81,-3.81,-3.96,-3.62,-1.84,-1.84,-1.84
354.74,1.95,3.78,1.95,3.78,-3.79,-3.95,-3.59,-1.84,-1.84,-1.83
358.28,1.93,3.76,1.93,3.76,-3.78,-3.94,-3.58,-1.85,-1.85,-1.84
361.87,1.92,3.76,1.92,3.76,-3.76,-3.94,-3.56,-1.85,-1.84,-1.84
365.49,1.92,3.76,1.92,3.76,-3.76,-3.93,-3.54,-1.84,-1.84,-1.84
369.14,1.93,3.77,1.92,3.76,-3.75,-3.92,-3.53,-1.82,-1.83,-1.84
372.83,1.92,3.76,1.92,3.76,-3.75,-3.91,-3.53,-1.83,-1.83,-1.84
376.56,1.92,3.75,1.92,3.76,-3.76,-3.90,-3.52,-1.84,-1.84,-1.83
380.33,1.92,3.75,1.92,3.76,-3.76,-3.89,-3.52,-1.84,-1.84,-1.84
384.13,1.93,3.76,1.93,3.76,-3.77,-3.88,-3.52,-1.84,-1.84,-1.84
387.97,1.94,3.78,1.94,3.78,-3.78,-3.87,-3.52,-1.84,-1.84,-1.84
391.85,1.96,3.79,1.96,3.79,-3.79,-3.86,-3.52,-1.83,-1.83,-1.83
395.77,1.98,3.81,1.98,3.81,-3.81,-3.84,-3.53,-1.83,-1.83,-1.83
399.73,2.00,3.82,2.00,3.82,-3.82,-3.83,-3.54,-1.82,-1.82,-1.82
403.72,2.02,3.84,2.02,3.84,-3.83,-3.82,-3.54,-1.81,-1.81,-1.82
407.76,2.03,3.84,2.03,3.84,-3.84,-3.81,-3.56,-1.81,-1.81,-1.81
411.84,2.04,3.85,2.04,3.85,-3.85,-3.79,-3.57,-1.81,-1.81,-1.81
415.96,2.04,3.84,2.04,3.85,-3.85,-3.78,-3.58,-1.81,-1.81,-1.81
420.12,2.04,3.85,2.04,3.85,-3.84,-3.77,-3.60,-1.81,-1.80,-1.81
424.32,2.04,3.85,2.04,3.84,-3.84,-3.75,-3.61,-1.80,-1.80,-1.81
428.56,2.03,3.83,2.03,3.83,-3.83,-3.74,-3.63,-1.80,-1.80,-1.80
432.85,2.02,3.82,2.02,3.82,-3.82,-3.72,-3.65,-1.80,-1.80,-1.80
437.18,2.01,3.81,2.01,3.81,-3.81,-3.70,-3.66,-1.80,-1.80,-1.80
441.55,2.00,3.80,2.00,3.80,-3.80,-3.69,-3.68,-1.80,-1.80,-1.80
445.96,1.99,3.79,1.99,3.79,-3.79,-3.67,-3.69,-1.80,-1.80,-1.80
450.42,1.98,3.78,1.98,3.78,-3.78,-3.65,-3.71,-1.80,-1.80,-1.80
454.93,1.96,3.76,1.96,3.76,-3.76,-3.64,-3.72,-1.80,-1.80,-1.80
459.48,1.94,3.74,1.94,3.74,-3.75,-3.62,-3.73,-1.81,-1.81,-1.80
464.07,1.92,3.72,1.92,3.73,-3.73,-3.60,-3.74,-1.81,-1.81,-1.80
468.71,1.91,3.71,1.91,3.71,-3.71,-3.58,-3.75,-1.80,-1.80,-1.80
473.40,1.89,3.69,1.89,3.69,-3.69,-3.56,-3.75,-1.80,-1.80,-1.81
478.13,1.87,3.66,1.87,3.67,-3.66,-3.54,-3.75,-1.79,-1.79,-1.80
482.91,1.84,3.64,1.84,3.64,-3.63,-3.52,-3.75,-1.79,-1.79,-1.80
487.74,1.81,3.61,1.81,3.60,-3.60,-3.50,-3.75,-1.79,-1.79,-1.80
492.62,1.77,3.57,1.77,3.57,-3.57,-3.48,-3.74,-1.80,-1.80,-1.80
