frequency,raw,error,smoothed,error_smoothed,equalization,parametric_eq,fixed_band_eq,equalized_raw,equalized_smoothed,target
20.00,-15.39,-18.17,-15.39,-18.18,6.00,5.55,3.08,-9.39,-9.39,2.78
20.20,-15.21,-18.00,-15.20,-18.00,6.00,5.56,3.17,-9.21,-9.20,2.79
20.40,-15.03,-17.84,-15.02,-17.82,6.00,5.58,3.26,-9.03,-9.02,2.80
20.61,-14.86,-17.66,-14.85,-17.66,6.00,5.59,3.35,-8.86,-8.85,2.80
20.81,-14.68,-17.50,-14.68,-17.50,6.00,5.61,3.45,-8.68,-8.68,2.81
21.02,-14.52,-17.33,-14.53,-17.35,6.00,5.62,3.55,-8.52,-8.53,2.81
21.23,-14.41,-17.23,-14.40,-17.22,6.00,5.64,3.65,-8.41,-8.40,2.82
21.44,-14.28,-17.11,-14.29,-17.11,6.00,5.66,3.75,-8.28,-8.29,2.82
21.66,-14.18,-17.00,-14.18,-17.00,6.00,5.67,3.86,-8.18,-8.18,2.82
21.87,-14.06,-16.88,-14.06,-16.88,6.00,5.69,3.97,-8.06,-8.06,2.82
22.09,-13.93,-16.77,-13.94,-16.76,6.00,5.71,4.08,-7.93,-7.94,2.83
22.31,-13.80,-16.63,-13.80,-16.63,6.00,5.73,4.19,-7.80,-7.80,2.83
22.54,-13.67,-16.49,-13.67,-16.49,6.00,5.74,4.31,-7.67,-7.67,2.82
22.76,-13.54,-16.34,-13.54,-16.35,6.00,5.76,4.43,-7.54,-7.54,2.81
22.99,-13.41,-16.22,-13.39,-16.20,6.00,5.78,4.56,-7.41,-7.39,2.81
23.22,-13.24,-16.04,-13.24,-16.04,6.00,5.80,4.69,-7.24,-7.24,2.81
23.45,-13.07,-15.86,-13.07,-15.87,6.00,5.82,4.82,-7.07,-7.07,2.80
23.69,-12.90,-15.70,-12.90,-15.70,6.00,5.84,4.95,-6.90,-6.90,2.80
23.92,-12.72,-15.52,-12.72,-15.52,6.00,5.85,5.08,-6.72,-6.72,2.80
24.16,-12.54,-15.34,-12.54,-15.34,6.00,5.87,5.22,-6.54,-6.54,2.80
24.40,-12.34,-15.14,-12.34,-15.14,6.00,5.89,5.36,-6.34,-6.34,2.80
24.65,-12.16,-14.95,-12.15,-14.94,6.00,5.91,5.51,-6.16,-6.15,2.79
24.89,-11.95,-14.75,-11.97,-14.76,6.00,5.93,5.65,-5.95,-5.97,2.79
25.14,-11.81,-14.61,-11.82,-14.62,6.00,5.95,5.80,-5.81,-5.82,2.79
25.39,-11.71,-14.50,-11.71,-14.50,6.00,5.97,5.95,-5.71,-5.71,2.78
25.65,-11.63,-14.41,-11.62,-14.40,6.00,5.99,6.10,-5.63,-5.62,2.78
25.91,-11.53,-14.31,-11.52,-14.30,6.00,6.01,6.25,-5.53,-5.52,2.78
26.16,-11.38,-14.16,-11.39,-14.17,6.00,6.03,6.40,-5.38,-5.39,2.78
26.43,-11.24,-14.02,-11.24,-14.02,6.00,6.05,6.55,-5.24,-5.24,2.78
26.69,-11.09,-13.87,-11.09,-13.87,6.00,6.06,6.70,-5.09,-5.09,2.78
26.96,-10.94,-13.72,-10.94,-13.72,6.00,6.08,6.84,-4.94,-4.94,2.78
27.23,-10.78,-13.56,-10.78,-13.56,6.00,6.10,6.99,-4.78,-4.78,2.78
27.50,-10.62,-13.39,-10.62,-13.40,6.00,6.12,7.13,-4.62,-4.62,2.78
27.77,-10.44,-13.22,-10.45,-13.22,6.00,6.14,7.26,-4.44,-4.45,2.78
28.05,-10.27,-13.05,-10.26,-13.03,6.00,6.16,7.39,-4.27,-4.26,2.78
28.33,-10.04,-12.82,-10.04,-12.82,6.00,6.17,7.51,-4.04,-4.04,2.77
28.62,-9.82,-12.59,-9.82,-12.59,6.00,6.19,7.63,-3.82,-3.82,2.77
28.90,-9.60,-12.38,-9.62,-12.40,6.00,6.21,7.73,-3.60,-3.62,2.78
29.19,-9.46,-12.24,-9.46,-12.24,6.00,6.22,7.83,-3.46,-3.46,2.78
29.48,-9.36,-12.14,-9.35,-12.13,6.00,6.24,7.92,-3.36,-3.35,2.78
29.78,-9.26,-12.05,-9.25,-12.04,6.00,6.25,7.99,-3.26,-3.25,2.79
30.08,-9.16,-11.95,-9.15,-11.94,6.00,6.26,8.05,-3.16,-3.15,2.79
30.38,-9.03,-11.81,-9.03,-11.82,6.00,6.28,8.10,-3.03,-3.03,2.79
30.68,-8.90,-11.68,-8.90,-11.69,6.00,6.29,8.12,-2.90,-2.90,2.79
30.99,-8.77,-11.55,-8.76,-11.54,6.00,6.30,8.14,-2.77,-2.76,2.78
31.30,-8.61,-11.39,-8.61,-11.39,6.00,6.31,8.14,-2.61,-2.61,2.78
31.61,-8.45,-11.23,-8.45,-11.23,6.00,6.32,8.13,-2.45,-2.45,2.78
31.93,-8.29,-11.07,-8.29,-11.07,6.00,6.32,8.09,-2.29,-2.29,2.78
32.24,-8.14,-10.91,-8.16,-10.93,6.00,6.33,8.05,-2.14,-2.16,2.77
32.57,-8.03,-10.79,-8.03,-10.79,6.00,6.33,7.99,-2.03,-2.03,2.77
32.89,-7.89,-10.66,-7.88,-10.64,6.00,6.34,7.92,-1.89,-1.88,2.76
33.22,-7.71,-10.46,-7.69,-10.45,6.00,6.34,7.83,-1.71,-1.69,2.75
33.55,-7.48,-10.23,-7.48,-10.23,6.00,6.34,7.74,-1.48,-1.48,2.75
33.89,-7.26,-10.00,-7.28,-10.02,6.00,6.33,7.62,-1.26,-1.28,2.74
34.23,-7.10,-9.83,-7.10,-9.84,6.00,6.33,7.51,-1.10,-1.10,2.74
34.57,-6.97,-9.70,-6.96,-9.69,6.00,6.32,7.38,-0.97,-0.96,2.74
34.92,-6.84,-9.57,-6.84,-9.57,6.00,6.31,7.24,-0.84,-0.84,2.73
35.27,-6.72,-9.45,-6.71,-9.44,6.00,6.30,7.10,-0.72,-0.71,2.73
35.62,-6.59,-9.32,-6.59,-9.32,6.00,6.29,6.95,-0.59,-0.59,2.73
35.97,-6.46,-9.19,-6.47,-9.19,6.00,6.27,6.80,-0.46,-0.47,2.73
36.33,-6.34,-9.07,-6.35,-9.07,6.00,6.25,6.65,-0.34,-0.35,2.72
36.70,-6.22,-8.94,-6.22,-8.94,6.00,6.23,6.49,-0.22,-0.22,2.72
37.06,-6.07,-8.79,-6.05,-8.77,6.00,6.21,6.33,-0.07,-0.05,2.72
37.43,-5.87,-8.59,-5.87,-8.59,6.00,6.18,6.17,0.13,0.13,2.72
37.81,-5.67,-8.39,-5.69,-8.40,6.00,6.15,6.01,0.33,0.31,2.72
38.19,-5.51,-8.23,-5.51,-8.23,6.00,6.12,5.85,0.49,0.49,2.72
38.57,-5.39,-8.10,-5.38,-8.10,6.00,6.08,5.69,0.61,0.62,2.72
38.95,-5.25,-7.98,-5.27,-7.99,6.00,6.04,5.53,0.75,0.73,2.72
39.34,-5.15,-7.88,-5.16,-7.88,6.00,6.00,5.37,0.85,0.84,2.72
39.74,-5.05,-7.76,-5.03,-7.75,6.00,5.95,5.21,0.95,0.97,2.72
40.14,-4.89,-7.60,-4.86,-7.58,6.00,5.90,5.06,1.11,1.14,2.71
40.54,-4.63,-7.34,-4.64,-7.35,6.00,5.84,4.91,1.37,1.36,2.71
40.94,-4.37,-7.08,-4.37,-7.08,6.00,5.79,4.76,1.63,1.63,2.71
41.35,-4.11,-6.81,-4.09,-6.79,6.01,5.72,4.61,1.91,1.92,2.70
41.76,-3.83,-6.52,-3.86,-6.55,6.03,5.66,4.46,2.19,2.16,2.69
42.18,-3.68,-6.36,-3.72,-6.40,6.03,5.59,4.32,2.36,2.31,2.68
42.60,-3.65,-6.33,-3.64,-6.32,6.03,5.52,4.18,2.38,2.39,2.68
43.03,-3.62,-6.29,-3.57,-6.25,6.01,5.44,4.04,2.39,2.43,2.68
43.46,-3.48,-6.15,-3.48,-6.15,5.96,5.36,3.91,2.49,2.48,2.67
43.90,-3.33,-5.98,-3.34,-6.00,5.89,5.28,3.78,2.56,2.55,2.66
44.33,-3.17,-5.83,-3.18,-5.83,5.79,5.20,3.65,2.61,2.61,2.65
44.78,-3.02,-5.66,-3.02,-5.66,5.66,5.10,3.53,2.64,2.64,2.65
45.23,-2.86,-5.50,-2.86,-5.50,5.50,5.01,3.40,2.64,2.64,2.64
45.68,-2.69,-5.32,-2.68,-5.32,5.32,4.91,3.28,2.63,2.63,2.64
46.13,-2.49,-5.13,-2.48,-5.12,5.13,4.81,3.16,2.63,2.65,2.64
46.60,-2.28,-4.91,-2.27,-4.91,4.95,4.71,3.05,2.67,2.67,2.63
47.06,-2.06,-4.69,-2.08,-4.72,4.78,4.60,2.94,2.73,2.70,2.64
47.53,-1.93,-4.57,-1.92,-4.56,4.64,4.49,2.83,2.71,2.72,2.64
48.01,-1.80,-4.44,-1.79,-4.43,4.49,4.38,2.72,2.69,2.70,2.64
48.49,-1.68,-4.32,-1.68,-4.32,4.33,4.26,2.61,2.65,2.65,2.65
48.97,-1.57,-4.22,-1.59,-4.24,4.16,4.14,2.51,2.60,2.57,2.65
49.46,-1.47,-4.12,-1.48,-4.14,3.99,4.02,2.41,2.52,2.51,2.65
49.96,-1.37,-4.03,-1.26,-3.92,3.82,3.89,2.31,2.45,2.56,2.67
50.46,-1.00,-3.67,-0.99,-3.66,3.65,3.77,2.21,2.66,2.67,2.67
50.96,-0.61,-3.29,-0.72,-3.39,3.49,3.64,2.12,2.89,2.78,2.68
51.47,-0.51,-3.19,-0.50,-3.18,3.33,3.50,2.03,2.82,2.83,2.68
51.99,-0.43,-3.11,-0.40,-3.08,3.17,3.37,1.93,2.75,2.78,2.68
52.51,-0.35,-3.03,-0.35,-3.03,3.03,3.23,1.84,2.68,2.68,2.68
53.03,-0.27,-2.95,-0.28,-2.97,2.90,3.09,1.76,2.63,2.62,2.68
53.56,-0.20,-2.88,-0.19,-2.87,2.80,2.95,1.67,2.60,2.61,2.68
54.10,-0.10,-2.79,-0.03,-2.73,2.70,2.80,1.59,2.60,2.66,2.69
54.64,0.15,-2.54,0.11,-2.58,2.60,2.66,1.50,2.75,2.71,2.69
55.18,0.31,-2.38,0.24,-2.45,2.48,2.51,1.42,2.80,2.72,2.69
55.74,0.30,-2.38,0.36,-2.33,2.35,2.36,1.34,2.66,2.71,2.68
56.29,0.42,-2.27,0.47,-2.21,2.21,2.21,1.26,2.62,2.67,2.68
56.86,0.65,-2.03,0.61,-2.06,2.04,2.06,1.18,2.70,2.66,2.68
57.42,0.80,-1.86,0.78,-1.88,1.87,1.91,1.11,2.67,2.65,2.67
58.00,0.93,-1.72,0.93,-1.73,1.68,1.75,1.03,2.61,2.61,2.65
58.58,1.06,-1.58,1.08,-1.56,1.49,1.60,0.95,2.55,2.57,2.64
59.16,1.25,-1.38,1.29,-1.34,1.31,1.44,0.88,2.56,2.60,2.63
59.76,1.55,-1.06,1.53,-1.08,1.15,1.28,0.81,2.70,2.68,2.61
60.35,1.76,-0.82,1.74,-0.85,0.99,1.12,0.73,2.75,2.73,2.59
60.96,1.89,-0.67,1.87,-0.70,0.83,0.97,0.66,2.72,2.70,2.56
61.57,1.89,-0.65,1.89,-0.65,0.66,0.81,0.59,2.56,2.55,2.54
62.18,1.88,-0.62,1.88,-0.62,0.50,0.65,0.52,2.38,2.38,2.50
62.80,1.90,-0.57,1.95,-0.51,0.34,0.49,0.45,2.23,2.29,2.47
63.43,2.10,-0.32,2.13,-0.29,0.19,0.33,0.38,2.30,2.33,2.42
64.07,2.40,0.02,2.37,-0.01,0.06,0.17,0.31,2.46,2.43,2.38
64.71,2.62,0.29,2.59,0.25,-0.10,0.01,0.24,2.53,2.49,2.34
65.35,2.72,0.43,2.69,0.39,-0.27,-0.15,0.17,2.45,2.42,2.30
66.01,2.71,0.45,2.72,0.46,-0.47,-0.31,0.11,2.25,2.25,2.26
66.67,2.72,0.50,2.78,0.56,-0.65,-0.47,0.04,2.07,2.13,2.22
67.33,2.87,0.67,2.89,0.70,-0.82,-0.62,-0.03,2.05,2.07,2.19
68.01,3.13,0.98,3.06,0.91,-0.96,-0.78,-0.10,2.17,2.10,2.15
68.69,3.23,1.11,3.30,1.18,-1.10,-0.93,-0.17,2.13,2.20,2.12
69.37,3.44,1.35,3.44,1.36,-1.25,-1.09,-0.24,2.19,2.20,2.09
70.07,3.66,1.61,3.50,1.44,-1.40,-1.24,-0.30,2.26,2.09,2.06
70.77,3.44,1.42,3.56,1.53,-1.56,-1.39,-0.37,1.89,2.00,2.03
71.48,3.55,1.55,3.64,1.64,-1.70,-1.54,-0.44,1.86,1.94,2.00
72.19,3.79,1.83,3.74,1.77,-1.82,-1.69,-0.51,1.98,1.92,1.97
72.91,3.97,2.04,3.90,1.97,-1.93,-1.83,-0.58,2.04,1.97,1.93
73.64,3.96,2.06,4.00,2.10,-2.04,-1.97,-0.66,1.92,1.96,1.90
74.38,4.02,2.16,4.05,2.18,-2.17,-2.11,-0.73,1.85,1.88,1.87
75.12,4.13,2.30,4.09,2.27,-2.31,-2.25,-0.80,1.82,1.78,1.83
75.87,4.15,2.37,4.19,2.40,-2.46,-2.38,-0.88,1.70,1.73,1.78
76.63,4.28,2.54,4.28,2.54,-2.60,-2.52,-0.95,1.69,1.69,1.75
77.40,4.41,2.71,4.42,2.72,-2.73,-2.64,-1.03,1.69,1.69,1.70
78.17,4.53,2.87,4.56,2.90,-2.85,-2.77,-1.10,1.69,1.71,1.66
78.95,4.71,3.10,4.65,3.03,-2.96,-2.89,-1.18,1.75,1.68,1.61
79.74,4.68,3.11,4.70,3.13,-3.08,-3.00,-1.26,1.61,1.63,1.57
80.54,4.70,3.18,4.73,3.20,-3.18,-3.12,-1.34,1.52,1.55,1.52
81.35,4.74,3.26,4.73,3.24,-3.28,-3.22,-1.42,1.47,1.45,1.48
82.16,4.76,3.32,4.76,3.32,-3.36,-3.33,-1.51,1.40,1.40,1.44
82.98,4.79,3.39,4.81,3.41,-3.44,-3.43,-1.59,1.35,1.36,1.40
83.81,4.86,3.50,4.86,3.50,-3.53,-3.52,-1.68,1.34,1.34,1.36
84.65,4.94,3.62,4.93,3.61,-3.62,-3.61,-1.77,1.33,1.32,1.33
85.50,5.00,3.72,5.01,3.73,-3.71,-3.70,-1.86,1.29,1.30,1.29
86.35,5.06,3.82,5.06,3.82,-3.80,-3.78,-1.95,1.26,1.26,1.24
87.22,5.12,3.93,5.10,3.90,-3.89,-3.86,-2.04,1.23,1.21,1.20
88.09,5.11,3.96,5.15,3.99,-3.97,-3.93,-2.14,1.14,1.17,1.15
88.97,5.18,4.06,5.17,4.06,-4.05,-3.99,-2.24,1.14,1.13,1.12
89.86,5.21,4.14,5.18,4.11,-4.11,-4.06,-2.33,1.10,1.07,1.07
90.76,5.17,4.14,5.20,4.17,-4.17,-4.11,-2.44,1.01,1.03,1.03
91.66,5.19,4.20,5.20,4.21,-4.22,-4.16,-2.54,0.97,0.98,0.99
92.58,5.22,4.27,5.21,4.26,-4.27,-4.21,-2.64,0.95,0.94,0.96
93.51,5.23,4.32,5.23,4.32,-4.32,-4.26,-2.75,0.91,0.91,0.91
94.44,5.23,4.36,5.23,4.36,-4.36,-4.29,-2.86,0.87,0.87,0.87
95.39,5.23,4.40,5.24,4.41,-4.41,-4.33,-2.96,0.83,0.84,0.84
96.34,5.24,4.44,5.25,4.45,-4.44,-4.36,-3.07,0.80,0.81,0.80
97.30,5.26,4.50,5.24,4.48,-4.47,-4.38,-3.19,0.79,0.77,0.76
98.28,5.21,4.50,5.23,4.51,-4.49,-4.40,-3.30,0.72,0.74,0.72
99.26,5.19,4.52,5.20,4.52,-4.51,-4.42,-3.41,0.68,0.69,0.68
100.25,5.17,4.53,5.15,4.51,-4.52,-4.43,-3.53,0.65,0.63,0.64
101.25,5.11,4.51,5.11,4.51,-4.53,-4.44,-3.64,0.58,0.58,0.60
102.27,5.04,4.49,5.07,4.52,-4.53,-4.45,-3.76,0.51,0.54,0.55
103.29,5.03,4.53,5.03,4.53,-4.53,-4.45,-3.87,0.50,0.50,0.51
104.32,5.01,4.56,5.00,4.54,-4.53,-4.45,-3.99,0.48,0.47,0.46
105.37,4.96,4.55,4.95,4.54,-4.52,-4.45,-4.10,0.44,0.43,0.42
106.42,4.87,4.50,4.90,4.53,-4.52,-4.44,-4.22,0.36,0.38,0.37
107.48,4.84,4.52,4.83,4.51,-4.51,-4.44,-4.33,0.33,0.32,0.32
108.56,4.78,4.51,4.77,4.49,-4.50,-4.42,-4.43,0.28,0.26,0.27
109.64,4.69,4.47,4.73,4.50,-4.49,-4.41,-4.54,0.20,0.23,0.23
110.74,4.66,4.48,4.66,4.47,-4.48,-4.40,-4.64,0.18,0.18,0.19
111.85,4.64,4.49,4.60,4.45,-4.47,-4.38,-4.74,0.17,0.13,0.15
112.97,4.51,4.40,4.57,4.46,-4.46,-4.36,-4.83,0.05,0.11,0.11
114.10,4.52,4.45,4.54,4.47,-4.45,-4.34,-4.92,0.07,0.09,0.07
115.24,4.55,4.51,4.50,4.46,-4.44,-4.31,-5.00,0.11,0.06,0.05
116.39,4.47,4.46,4.45,4.44,-4.44,-4.29,-5.08,0.04,0.02,0.01
117.55,4.35,4.36,4.40,4.41,-4.42,-4.26,-5.15,-0.07,-0.02,-0.01
118.73,4.31,4.35,4.35,4.39,-4.40,-4.24,-5.21,-0.09,-0.05,-0.03
119.92,4.38,4.43,4.33,4.37,-4.38,-4.21,-5.26,0.01,-0.05,-0.05
121.12,4.31,4.38,4.30,4.37,-4.34,-4.18,-5.30,-0.03,-0.04,-0.07
122.33,4.21,4.29,4.26,4.34,-4.31,-4.14,-5.33,-0.09,-0.04,-0.08
123.55,4.18,4.28,4.16,4.26,-4.27,-4.11,-5.36,-0.08,-0.10,-0.10
124.79,4.13,4.24,4.09,4.20,-4.22,-4.08,-5.37,-0.09,-0.13,-0.11
126.03,3.96,4.09,4.05,4.18,-4.17,-4.05,-5.38,-0.21,-0.12,-0.12
127.29,4.01,4.15,3.98,4.12,-4.13,-4.01,-5.37,-0.11,-0.15,-0.14
128.57,3.97,4.13,3.91,4.07,-4.08,-3.98,-5.37,-0.10,-0.16,-0.15
129.85,3.80,3.97,3.88,4.04,-4.03,-3.94,-5.34,-0.22,-0.15,-0.16
131.15,3.80,3.98,3.80,3.97,-3.98,-3.90,-5.31,-0.18,-0.19,-0.18
132.46,3.77,3.97,3.73,3.93,-3.94,-3.87,-5.27,-0.16,-0.21,-0.20
133.79,3.65,3.86,3.69,3.90,-3.89,-3.83,-5.22,-0.23,-0.19,-0.21
135.12,3.62,3.85,3.63,3.86,-3.84,-3.79,-5.16,-0.21,-0.21,-0.23
136.48,3.58,3.82,3.55,3.80,-3.80,-3.75,-5.11,-0.21,-0.24,-0.24
137.84,3.48,3.74,3.48,3.74,-3.75,-3.71,-5.04,-0.27,-0.27,-0.26
139.22,3.38,3.66,3.41,3.69,-3.71,-3.68,-4.96,-0.32,-0.30,-0.28
140.61,3.33,3.63,3.36,3.66,-3.67,-3.64,-4.88,-0.33,-0.31,-0.30
142.02,3.35,3.67,3.31,3.63,-3.63,-3.60,-4.80,-0.27,-0.32,-0.32
143.44,3.26,3.61,3.26,3.61,-3.58,-3.56,-4.72,-0.32,-0.32,-0.34
144.87,3.16,3.54,3.20,3.57,-3.55,-3.52,-4.63,-0.38,-0.35,-0.37
146.32,3.14,3.54,3.11,3.51,-3.51,-3.48,-4.54,-0.37,-0.40,-0.40
147.78,3.04,3.48,3.05,3.48,-3.49,-3.44,-4.44,-0.44,-0.44,-0.43
149.26,2.96,3.43,2.99,3.46,-3.47,-3.40,-4.35,-0.50,-0.47,-0.47
150.75,2.94,3.46,2.91,3.42,-3.45,-3.36,-4.25,-0.50,-0.54,-0.51
152.26,2.84,3.41,2.84,3.40,-3.43,-3.32,-4.16,-0.59,-0.59,-0.57
153.78,2.73,3.36,2.79,3.41,-3.42,-3.28,-4.06,-0.68,-0.63,-0.62
155.32,2.74,3.43,2.73,3.41,-3.40,-3.24,-3.97,-0.66,-0.67,-0.68
156.88,2.71,3.45,2.68,3.42,-3.39,-3.20,-3.87,-0.68,-0.71,-0.74
158.44,2.60,3.40,2.60,3.40,-3.37,-3.16,-3.78,-0.77,-0.77,-0.80
160.03,2.48,3.33,2.50,3.35,-3.35,-3.12,-3.69,-0.87,-0.85,-0.85
161.63,2.40,3.29,2.41,3.30,-3.32,-3.08,-3.60,-0.92,-0.92,-0.89
163.24,2.34,3.28,2.34,3.28,-3.28,-3.04,-3.51,-0.94,-0.94,-0.94
164.88,2.26,3.23,2.27,3.24,-3.23,-3.00,-3.42,-0.97,-0.96,-0.97
166.53,2.20,3.20,2.18,3.18,-3.17,-2.96,-3.33,-0.97,-0.99,-1.00
168.19,2.08,3.10,2.10,3.12,-3.11,-2.92,-3.25,-1.02,-1.01,-1.02
169.87,2.00,3.03,2.01,3.04,-3.04,-2.88,-3.17,-1.03,-1.03,-1.03
171.57,1.93,2.97,1.92,2.95,-2.96,-2.84,-3.09,-1.03,-1.05,-1.03
173.29,1.83,2.87,1.86,2.89,-2.89,-2.80,-3.01,-1.05,-1.03,-1.03
175.02,1.78,2.80,1.78,2.80,-2.80,-2.76,-2.94,-1.02,-1.02,-1.02
176.77,1.74,2.75,1.71,2.72,-2.72,-2.72,-2.87,-0.98,-1.01,-1.00
178.54,1.62,2.61,1.65,2.64,-2.64,-2.68,-2.80,-1.02,-0.99,-0.99
180.32,1.58,2.55,1.60,2.56,-2.56,-2.64,-2.73,-0.98,-0.96,-0.97
182.13,1.55,2.50,1.54,2.49,-2.48,-2.60,-2.66,-0.93,-0.95,-0.95
183.95,1.50,2.43,1.48,2.41,-2.41,-2.57,-2.60,-0.91,-0.93,-0.93
185.79,1.40,2.32,1.42,2.34,-2.35,-2.53,-2.54,-0.94,-0.93,-0.92
187.65,1.33,2.25,1.37,2.28,-2.29,-2.49,-2.48,-0.95,-0.92,-0.91
189.52,1.34,2.25,1.31,2.22,-2.23,-2.45,-2.42,-0.89,-0.92,-0.91
191.42,1.28,2.19,1.27,2.17,-2.18,-2.41,-2.37,-0.90,-0.91,-0.91
193.33,1.20,2.10,1.24,2.14,-2.13,-2.38,-2.32,-0.93,-0.89,-0.90
195.27,1.18,2.09,1.18,2.09,-2.08,-2.34,-2.26,-0.89,-0.89,-0.90
197.22,1.16,2.08,1.14,2.04,-2.02,-2.30,-2.22,-0.86,-0.89,-0.91
199.19,1.06,1.98,1.08,2.00,-1.97,-2.27,-2.17,-0.91,-0.89,-0.92
201.18,1.00,1.93,1.00,1.92,-1.92,-2.23,-2.12,-0.92,-0.92,-0.93
203.19,0.92,1.86,0.92,1.85,-1.87,-2.19,-2.08,-0.95,-0.95,-0.94
205.23,0.83,1.78,0.86,1.80,-1.82,-2.16,-2.04,-0.99,-0.97,-0.95
207.28,0.81,1.77,0.80,1.76,-1.78,-2.12,-1.99,-0.96,-0.98,-0.96
209.35,0.76,1.73,0.76,1.73,-1.74,-2.09,-1.95,-0.97,-0.97,-0.97
211.44,0.72,1.71,0.74,1.72,-1.70,-2.05,-1.91,-0.98,-0.97,-0.99
213.56,0.71,1.71,0.70,1.70,-1.68,-2.02,-1.88,-0.96,-0.98,-0.99
215.69,0.66,1.68,0.65,1.66,-1.66,-1.98,-1.84,-0.99,-1.00,-1.01
217.85,0.60,1.62,0.60,1.63,-1.64,-1.95,-1.80,-1.04,-1.04,-1.02
220.03,0.54,1.58,0.58,1.61,-1.63,-1.91,-1.77,-1.08,-1.05,-1.04
222.23,0.56,1.61,0.56,1.61,-1.61,-1.88,-1.73,-1.05,-1.05,-1.05
224.45,0.59,1.65,0.56,1.61,-1.61,-1.85,-1.70,-1.01,-1.05,-1.05
226.70,0.53,1.60,0.54,1.60,-1.60,-1.81,-1.66,-1.07,-1.06,-1.06
228.96,0.50,1.57,0.52,1.59,-1.60,-1.78,-1.63,-1.10,-1.08,-1.07
231.25,0.50,1.57,0.52,1.59,-1.60,-1.75,-1.60,-1.10,-1.08,-1.07
233.57,0.55,1.63,0.53,1.60,-1.60,-1.71,-1.56,-1.04,-1.07,-1.07
235.90,0.53,1.60,0.53,1.60,-1.58,-1.68,-1.53,-1.05,-1.05,-1.07
238.26,0.51,1.58,0.53,1.59,-1.56,-1.65,-1.49,-1.05,-1.03,-1.06
240.64,0.51,1.56,0.50,1.56,-1.54,-1.62,-1.46,-1.02,-1.03,-1.05
243.05,0.48,1.53,0.48,1.53,-1.51,-1.59,-1.42,-1.03,-1.03,-1.05
245.48,0.43,1.47,0.43,1.47,-1.48,-1.55,-1.39,-1.05,-1.05,-1.04
247.93,0.39,1.43,0.38,1.41,-1.45,-1.52,-1.35,-1.06,-1.08,-1.04
250.41,0.30,1.34,0.34,1.37,-1.41,-1.49,-1.32,-1.11,-1.07,-1.03
252.92,0.32,1.35,0.33,1.36,-1.36,-1.46,-1.28,-1.04,-1.04,-1.03
255.45,0.34,1.37,0.31,1.34,-1.31,-1.43,-1.24,-0.97,-1.00,-1.03
258.00,0.29,1.33,0.30,1.34,-1.27,-1.40,-1.20,-0.98,-0.97,-1.04
260.58,0.23,1.27,0.23,1.27,-1.24,-1.37,-1.16,-1.00,-1.01,-1.04
263.19,0.17,1.22,0.14,1.18,-1.21,-1.34,-1.12,-1.04,-1.07,-1.04
265.82,0.02,1.07,0.07,1.11,-1.19,-1.31,-1.08,-1.16,-1.12,-1.05
268.48,0.02,1.08,0.04,1.10,-1.15,-1.28,-1.04,-1.13,-1.11,-1.05
271.16,0.06,1.12,0.07,1.12,-1.12,-1.25,-1.00,-1.06,-1.05,-1.06
273.87,0.13,1.19,0.10,1.16,-1.09,-1.22,-0.95,-0.95,-0.99,-1.06
276.61,0.10,1.17,0.08,1.14,-1.06,-1.19,-0.91,-0.96,-0.98,-1.06
279.38,-0.01,1.06,0.03,1.09,-1.06,-1.16,-0.86,-1.06,-1.03,-1.07
282.17,-0.03,1.03,-0.03,1.03,-1.07,-1.13,-0.82,-1.09,-1.10,-1.06
284.99,-0.04,1.02,-0.04,1.02,-1.09,-1.10,-0.77,-1.12,-1.13,-1.05
287.84,-0.03,1.03,-0.01,1.05,-1.12,-1.07,-0.73,-1.15,-1.13,-1.06
290.72,0.08,1.13,0.06,1.11,-1.17,-1.05,-0.68,-1.08,-1.11,-1.05
293.63,0.14,1.19,0.17,1.21,-1.23,-1.02,-0.63,-1.08,-1.05,-1.04
296.57,0.29,1.33,0.29,1.33,-1.29,-0.99,-0.59,-1.00,-1.00,-1.03
299.53,0.40,1.44,0.38,1.41,-1.37,-0.96,-0.54,-0.96,-0.99,-1.04
302.53,0.44,1.47,0.44,1.48,-1.43,-0.93,-0.49,-0.99,-0.99,-1.03
305.55,0.45,1.49,0.47,1.50,-1.47,-0.90,-0.44,-1.02,-1.01,-1.03
308.61,0.46,1.50,0.46,1.49,-1.49,-0.87,-0.39,-1.03,-1.03,-1.03
311.69,0.45,1.49,0.44,1.48,-1.48,-0.84,-0.35,-1.03,-1.04,-1.04
314.81,0.39,1.44,0.41,1.46,-1.45,-0.81,-0.30,-1.06,-1.04,-1.05
317.96,0.36,1.41,0.35,1.41,-1.40,-0.79,-0.25,-1.04,-1.05,-1.05
321.14,0.27,1.34,0.27,1.33,-1.34,-0.76,-0.20,-1.06,-1.06,-1.06
324.35,0.18,1.25,0.17,1.24,-1.26,-0.73,-0.15,-1.07,-1.08,-1.06
327.59,0.05,1.13,0.07,1.15,-1.16,-0.70,-0.10,-1.11,-1.09,-1.08
330.87,-0.06,1.03,-0.03,1.06,-1.05,-0.67,-0.05,-1.11,-1.09,-1.09
334.18,-0.12,0.98,-0.16,0.94,-0.92,-0.64,0.00,-1.04,-1.08,-1.10
337.52,-0.30,0.82,-0.29,0.81,-0.77,-0.61,0.06,-1.07,-1.07,-1.11
340.90,-0.48,0.64,-0.45,0.67,-0.62,-0.57,0.11,-1.10,-1.07,-1.11
344.30,-0.62,0.51,-0.64,0.49,-0.47,-0.54,0.16,-1.09,-1.11,-1.13
347.75,-0.80,0.35,-0.83,0.31,-0.34,-0.51,0.21,-1.13,-1.16,-1.15
351.23,-1.04,0.12,-1.01,0.14,-0.21,-0.48,0.26,-1.25,-1.22,-1.16
354.74,-1.19,-0.02,-1.16,0.01,-0.10,-0.45,0.32,-1.28,-1.26,-1.17
358.28,-1.25,-0.07,-1.23,-0.05,0.00,-0.41,0.37,-1.24,-1.23,-1.18
361.87,-1.25,-0.05,-1.26,-0.06,0.08,-0.38,0.42,-1.17,-1.18,-1.19
365.49,-1.26,-0.04,-1.30,-0.09,0.14,-0.35,0.47,-1.12,-1.16,-1.21
369.14,-1.38,-0.15,-1.35,-0.13,0.18,-0.31,0.53,-1.20,-1.18,-1.22
372.83,-1.45,-0.21,-1.43,-0.20,0.21,-0.27,0.58,-1.24,-1.23,-1.24
376.56,-1.49,-0.24,-1.51,-0.26,0.23,-0.24,0.64,-1.25,-1.27,-1.25
380.33,-1.56,-0.30,-1.53,-0.28,0.26,-0.20,0.69,-1.30,-1.27,-1.26
384.13,-1.57,-0.30,-1.55,-0.28,0.29,-0.16,0.75,-1.28,-1.26,-1.27
387.97,-1.55,-0.27,-1.58,-0.30,0.31,-0.12,0.80,-1.23,-1.27,-1.28
391.85,-1.61,-0.32,-1.61,-0.32,0.33,-0.08,0.85,-1.28,-1.28,-1.29
395.77,-1.67,-0.36,-1.64,-0.34,0.34,-0.04,0.91,-1.33,-1.31,-1.30
399.73,-1.68,-0.36,-1.68,-0.36,0.34,0.01,0.96,-1.34,-1.34,-1.31
403.72,-1.68,-0.35,-1.69,-0.36,0.34,0.05,1.02,-1.34,-1.35,-1.32
407.76,-1.69,-0.34,-1.68,-0.34,0.34,0.10,1.07,-1.34,-1.34,-1.34
411.84,-1.69,-0.33,-1.68,-0.32,0.35,0.15,1.12,-1.34,-1.33,-1.36
415.96,-1.68,-0.31,-1.69,-0.33,0.35,0.20,1.18,-1.33,-1.34,-1.37
420.12,-1.70,-0.33,-1.71,-0.34,0.36,0.25,1.23,-1.34,-1.36,-1.37
424.32,-1.77,-0.39,-1.74,-0.37,0.37,0.31,1.28,-1.40,-1.38,-1.38
428.56,-1.77,-0.39,-1.76,-0.38,0.37,0.36,1.33,-1.39,-1.38,-1.38
432.85,-1.76,-0.39,-1.76,-0.39,0.37,0.42,1.37,-1.39,-1.39,-1.37
437.18,-1.73,-0.37,-1.75,-0.39,0.35,0.48,1.42,-1.37,-1.40,-1.36
441.55,-1.76,-0.42,-1.75,-0.41,0.34,0.55,1.46,-1.41,-1.41,-1.34
445.96,-1.76,-0.44,-1.73,-0.41,0.35,0.61,1.51,-1.41,-1.39,-1.32
450.42,-1.70,-0.40,-1.69,-0.40,0.37,0.68,1.55,-1.32,-1.32,-1.29
454.93,-1.63,-0.37,-1.59,-0.34,0.43,0.75,1.58,-1.20,-1.16,-1.25
459.48,-1.58,-0.36,-1.58,-0.36,0.52,0.83,1.62,-1.05,-1.06,-1.21
464.07,-1.62,-0.43,-1.74,-0.56,0.66,0.90,1.65,-0.96,-1.08,-1.18
468.71,-2.11,-0.96,-2.10,-0.96,0.85,0.98,1.68,-1.26,-1.25,-1.14
473.40,-2.62,-1.51,-2.58,-1.48,1.09,1.06,1.70,-1.53,-1.49,-1.10
