frequency,raw,error,smoothed,error_smoothed,equalization,parametric_eq,fixed_band_eq,equalized_raw,equalized_smoothed,target
20.00,-9.89,-9.61,-9.89,-9.61,6.00,6.71,1.96,-3.89,-3.89,-0.28
20.20,-9.73,-9.46,-9.73,-9.45,6.00,6.65,2.02,-3.73,-3.73,-0.27
20.40,-9.57,-9.30,-9.56,-9.30,6.00,6.59,2.08,-3.57,-3.56,-0.26
20.61,-9.41,-9.15,-9.41,-9.15,6.00,6.53,2.14,-3.41,-3.41,-0.26
20.81,-9.25,-8.99,-9.25,-8.99,6.00,6.47,2.20,-3.25,-3.25,-0.25
21.02,-9.09,-8.84,-9.10,-8.85,6.00,6.41,2.27,-3.09,-3.10,-0.25
21.23,-8.96,-8.71,-8.96,-8.71,6.00,6.34,2.34,-2.96,-2.96,-0.24
21.44,-8.84,-8.59,-8.83,-8.58,6.00,6.28,2.41,-2.84,-2.83,-0.24
21.66,-8.71,-8.47,-8.70,-8.46,6.00,6.22,2.48,-2.71,-2.70,-0.24
21.87,-8.58,-8.33,-8.59,-8.35,6.00,6.15,2.55,-2.58,-2.59,-0.24
22.09,-8.49,-8.25,-8.50,-8.26,6.00,6.09,2.63,-2.49,-2.50,-0.23
22.31,-8.45,-8.21,-8.44,-8.20,6.00,6.02,2.70,-2.45,-2.44,-0.24
22.54,-8.41,-8.16,-8.41,-8.17,6.00,5.96,2.78,-2.41,-2.41,-0.25
22.76,-8.36,-8.10,-8.37,-8.12,6.00,5.89,2.86,-2.36,-2.37,-0.26
22.99,-8.32,-8.06,-8.28,-8.02,6.00,5.83,2.95,-2.32,-2.28,-0.26
23.22,-8.14,-7.88,-8.14,-7.88,6.00,5.76,3.03,-2.14,-2.14,-0.26
23.45,-7.95,-7.68,-7.96,-7.70,6.00,5.69,3.12,-1.95,-1.96,-0.27
23.69,-7.75,-7.48,-7.75,-7.49,6.00,5.62,3.21,-1.75,-1.75,-0.27
23.92,-7.56,-7.29,-7.56,-7.29,6.00,5.56,3.30,-1.56,-1.56,-0.27
24.16,-7.37,-7.10,-7.36,-7.09,6.00,5.49,3.39,-1.37,-1.36,-0.27
24.40,-7.17,-6.90,-7.16,-6.89,6.00,5.42,3.48,-1.16,-1.16,-0.27
24.65,-6.97,-6.70,-6.96,-6.69,6.00,5.35,3.58,-0.97,-0.96,-0.27
24.89,-6.77,-6.50,-6.78,-6.51,6.00,5.28,3.67,-0.77,-0.78,-0.27
25.14,-6.62,-6.35,-6.62,-6.35,6.00,5.22,3.77,-0.62,-0.62,-0.27
25.39,-6.49,-6.20,-6.47,-6.19,6.00,5.15,3.87,-0.48,-0.47,-0.28
25.65,-6.37,-6.09,-6.35,-6.07,6.03,5.08,3.96,-0.34,-0.33,-0.28
25.91,-6.25,-5.97,-6.28,-6.00,6.05,5.01,4.06,-0.20,-0.23,-0.28
26.16,-6.26,-5.98,-6.28,-5.99,6.06,4.94,4.16,-0.20,-0.21,-0.28
26.43,-6.35,-6.06,-6.37,-6.09,6.04,4.87,4.25,-0.31,-0.34,-0.28
26.69,-6.45,-6.16,-6.46,-6.18,5.97,4.80,4.35,-0.48,-0.50,-0.29
26.96,-6.54,-6.25,-6.43,-6.15,5.85,4.72,4.44,-0.69,-0.59,-0.29
27.23,-6.25,-5.96,-6.25,-5.96,5.69,4.65,4.53,-0.56,-0.56,-0.29
27.50,-5.89,-5.60,-5.91,-5.62,5.50,4.58,4.62,-0.39,-0.41,-0.29
27.77,-5.52,-5.24,-5.53,-5.25,5.29,4.51,4.70,-0.23,-0.24,-0.29
28.05,-5.20,-4.91,-5.25,-4.96,5.10,4.44,4.78,-0.10,-0.16,-0.29
28.33,-5.07,-4.78,-5.04,-4.75,4.93,4.37,4.85,-0.13,-0.11,-0.29
28.62,-4.93,-4.64,-4.90,-4.61,4.81,4.29,4.92,-0.13,-0.09,-0.29
28.90,-4.80,-4.52,-4.84,-4.55,4.70,4.22,4.98,-0.10,-0.13,-0.28
29.19,-4.81,-4.52,-4.84,-4.55,4.62,4.15,5.04,-0.19,-0.22,-0.28
29.48,-4.91,-4.62,-4.93,-4.65,4.55,4.08,5.09,-0.36,-0.38,-0.28
29.78,-5.01,-4.73,-4.98,-4.70,4.46,4.01,5.13,-0.55,-0.52,-0.28
30.08,-4.99,-4.71,-4.90,-4.62,4.35,3.93,5.17,-0.64,-0.54,-0.28
30.38,-4.63,-4.35,-4.63,-4.35,4.22,3.86,5.19,-0.42,-0.41,-0.28
30.68,-4.25,-3.97,-4.28,-4.00,4.06,3.79,5.21,-0.19,-0.22,-0.28
30.99,-3.89,-3.61,-3.97,-3.68,3.87,3.72,5.22,-0.02,-0.09,-0.28
31.30,-3.79,-3.51,-3.78,-3.50,3.67,3.64,5.21,-0.12,-0.11,-0.28
31.61,-3.70,-3.41,-3.68,-3.39,3.47,3.57,5.20,-0.23,-0.20,-0.28
31.93,-3.61,-3.32,-3.60,-3.31,3.29,3.50,5.18,-0.32,-0.30,-0.29
32.24,-3.49,-3.19,-3.49,-3.20,3.15,3.43,5.15,-0.34,-0.34,-0.30
32.57,-3.36,-3.06,-3.36,-3.06,3.02,3.35,5.11,-0.34,-0.35,-0.30
32.89,-3.23,-2.93,-3.23,-2.92,2.88,3.28,5.06,-0.35,-0.35,-0.30
33.22,-3.09,-2.78,-3.09,-2.78,2.71,3.21,5.01,-0.37,-0.38,-0.31
33.55,-2.94,-2.62,-2.95,-2.63,2.54,3.14,4.95,-0.40,-0.41,-0.31
33.89,-2.80,-2.47,-2.78,-2.46,2.38,3.07,4.87,-0.42,-0.40,-0.33
34.23,-2.60,-2.27,-2.56,-2.23,2.27,2.99,4.80,-0.33,-0.30,-0.33
34.57,-2.38,-2.05,-2.36,-2.02,2.20,2.92,4.72,-0.18,-0.15,-0.33
34.92,-2.15,-1.82,-2.25,-1.92,2.18,2.85,4.63,0.03,-0.07,-0.33
35.27,-2.28,-1.94,-2.32,-1.98,2.18,2.78,4.54,-0.10,-0.14,-0.33
35.62,-2.52,-2.18,-2.49,-2.15,2.17,2.71,4.44,-0.35,-0.32,-0.34
35.97,-2.75,-2.41,-2.67,-2.33,2.14,2.64,4.34,-0.60,-0.53,-0.34
36.33,-2.72,-2.38,-2.75,-2.41,2.10,2.57,4.24,-0.61,-0.65,-0.34
36.70,-2.66,-2.32,-2.68,-2.34,2.06,2.50,4.13,-0.60,-0.63,-0.34
37.06,-2.54,-2.20,-2.45,-2.10,2.00,2.44,4.02,-0.54,-0.45,-0.35
37.43,-2.17,-1.82,-2.15,-1.80,1.93,2.37,3.91,-0.25,-0.22,-0.35
37.81,-1.80,-1.46,-1.89,-1.54,1.83,2.30,3.80,0.03,-0.06,-0.34
38.19,-1.71,-1.36,-1.81,-1.46,1.73,2.23,3.69,0.02,-0.08,-0.34
38.57,-1.91,-1.56,-1.89,-1.54,1.64,2.17,3.58,-0.27,-0.25,-0.35
38.95,-2.12,-1.78,-2.01,-1.66,1.58,2.10,3.47,-0.54,-0.43,-0.34
39.34,-2.04,-1.69,-2.04,-1.70,1.54,2.04,3.36,-0.49,-0.50,-0.34
39.74,-1.93,-1.58,-1.96,-1.62,1.51,1.97,3.25,-0.42,-0.45,-0.35
40.14,-1.84,-1.49,-1.86,-1.51,1.46,1.91,3.14,-0.38,-0.40,-0.35
40.54,-1.77,-1.41,-1.77,-1.42,1.36,1.85,3.03,-0.41,-0.41,-0.35
40.94,-1.70,-1.34,-1.65,-1.29,1.24,1.79,2.92,-0.46,-0.41,-0.36
41.35,-1.49,-1.13,-1.48,-1.11,1.09,1.73,2.82,-0.39,-0.38,-0.36
41.76,-1.26,-0.88,-1.29,-0.91,0.97,1.67,2.71,-0.29,-0.32,-0.38
42.18,-1.10,-0.72,-1.10,-0.72,0.86,1.61,2.61,-0.24,-0.24,-0.38
42.60,-1.02,-0.63,-1.00,-0.62,0.78,1.55,2.50,-0.24,-0.23,-0.38
43.03,-0.96,-0.57,-1.03,-0.64,0.70,1.49,2.40,-0.26,-0.33,-0.39
43.46,-1.09,-0.70,-1.10,-0.70,0.63,1.44,2.30,-0.46,-0.47,-0.39
43.90,-1.23,-0.82,-1.13,-0.73,0.58,1.38,2.21,-0.64,-0.55,-0.41
44.33,-1.12,-0.70,-1.10,-0.68,0.55,1.33,2.11,-0.56,-0.54,-0.41
44.78,-0.94,-0.52,-0.99,-0.57,0.53,1.28,2.02,-0.41,-0.46,-0.42
45.23,-0.85,-0.43,-0.87,-0.45,0.51,1.23,1.92,-0.34,-0.36,-0.42
45.68,-0.85,-0.42,-0.84,-0.41,0.49,1.18,1.83,-0.36,-0.35,-0.43
46.13,-0.86,-0.43,-0.86,-0.43,0.48,1.13,1.74,-0.38,-0.38,-0.43
46.60,-0.91,-0.48,-0.91,-0.48,0.51,1.08,1.65,-0.40,-0.40,-0.43
47.06,-0.96,-0.53,-0.94,-0.51,0.57,1.03,1.57,-0.39,-0.37,-0.43
47.53,-1.01,-0.58,-1.00,-0.58,0.65,0.99,1.48,-0.35,-0.35,-0.42
48.01,-1.06,-0.64,-1.12,-0.70,0.73,0.95,1.40,-0.32,-0.39,-0.42
48.49,-1.26,-0.84,-1.26,-0.84,0.79,0.90,1.32,-0.47,-0.47,-0.42
48.97,-1.45,-1.03,-1.38,-0.97,0.82,0.86,1.24,-0.63,-0.56,-0.41
49.46,-1.40,-0.99,-1.42,-1.01,0.82,0.82,1.16,-0.58,-0.60,-0.41
49.96,-1.34,-0.94,-1.29,-0.89,0.80,0.79,1.08,-0.54,-0.49,-0.40
50.46,-1.11,-0.71,-1.10,-0.71,0.76,0.75,1.01,-0.35,-0.34,-0.40
50.96,-0.87,-0.48,-0.97,-0.58,0.69,0.71,0.93,-0.18,-0.28,-0.39
51.47,-0.89,-0.50,-0.89,-0.50,0.60,0.68,0.86,-0.29,-0.29,-0.38
51.99,-0.93,-0.54,-0.88,-0.50,0.51,0.65,0.79,-0.42,-0.37,-0.38
52.51,-0.89,-0.51,-0.89,-0.50,0.45,0.62,0.72,-0.44,-0.43,-0.38
53.03,-0.85,-0.47,-0.83,-0.45,0.43,0.59,0.65,-0.42,-0.40,-0.38
53.56,-0.78,-0.40,-0.78,-0.40,0.44,0.56,0.59,-0.34,-0.34,-0.38
54.10,-0.75,-0.38,-0.78,-0.41,0.47,0.53,0.53,-0.28,-0.31,-0.37
54.64,-0.86,-0.49,-0.86,-0.49,0.52,0.51,0.46,-0.33,-0.34,-0.37
55.18,-0.99,-0.62,-1.00,-0.63,0.59,0.48,0.40,-0.40,-0.41,-0.37
55.74,-1.16,-0.77,-1.10,-0.72,0.69,0.46,0.35,-0.47,-0.41,-0.38
56.29,-1.22,-0.83,-1.17,-0.78,0.81,0.44,0.29,-0.41,-0.36,-0.38
56.86,-1.17,-0.78,-1.29,-0.90,0.95,0.42,0.24,-0.22,-0.34,-0.39
57.42,-1.40,-1.00,-1.43,-1.04,1.08,0.40,0.19,-0.32,-0.35,-0.40
58.00,-1.73,-1.32,-1.60,-1.19,1.20,0.38,0.14,-0.53,-0.41,-0.41
58.58,-1.77,-1.34,-1.80,-1.37,1.29,0.37,0.10,-0.48,-0.51,-0.42
59.16,-1.85,-1.41,-1.92,-1.48,1.37,0.35,0.06,-0.48,-0.55,-0.44
59.76,-2.03,-1.58,-1.96,-1.51,1.45,0.34,0.02,-0.57,-0.51,-0.45
60.35,-2.04,-1.56,-1.99,-1.51,1.53,0.32,-0.02,-0.51,-0.46,-0.48
60.96,-1.93,-1.43,-1.98,-1.48,1.58,0.31,-0.05,-0.35,-0.40,-0.50
61.57,-1.98,-1.45,-2.02,-1.49,1.60,0.30,-0.08,-0.37,-0.41,-0.53
62.18,-2.10,-1.54,-2.13,-1.57,1.61,0.29,-0.11,-0.49,-0.52,-0.56
62.80,-2.33,-1.73,-2.26,-1.66,1.59,0.28,-0.14,-0.73,-0.66,-0.60
63.43,-2.34,-1.69,-2.31,-1.67,1.57,0.27,-0.16,-0.77,-0.74,-0.64
64.07,-2.25,-1.57,-2.28,-1.60,1.53,0.26,-0.18,-0.72,-0.76,-0.68
64.71,-2.19,-1.46,-2.20,-1.47,1.47,0.26,-0.20,-0.72,-0.73,-0.73
65.35,-2.12,-1.35,-2.12,-1.35,1.39,0.25,-0.21,-0.73,-0.73,-0.77
66.01,-2.06,-1.25,-2.05,-1.25,1.28,0.24,-0.23,-0.78,-0.77,-0.81
66.67,-1.97,-1.12,-1.96,-1.12,1.15,0.24,-0.24,-0.82,-0.81,-0.84
67.33,-1.88,-1.00,-1.88,-1.00,1.01,0.24,-0.24,-0.87,-0.88,-0.87
68.01,-1.77,-0.85,-1.80,-0.89,0.86,0.23,-0.25,-0.91,-0.95,-0.91
68.69,-1.74,-0.79,-1.70,-0.75,0.71,0.23,-0.25,-1.03,-0.99,-0.94
69.37,-1.61,-0.63,-1.58,-0.60,0.57,0.22,-0.25,-1.04,-1.01,-0.98
70.07,-1.41,-0.40,-1.46,-0.45,0.44,0.22,-0.25,-0.97,-1.02,-1.01
70.77,-1.34,-0.30,-1.33,-0.29,0.33,0.22,-0.25,-1.01,-1.00,-1.04
71.48,-1.25,-0.19,-1.23,-0.16,0.24,0.22,-0.25,-1.01,-0.99,-1.06
72.19,-1.18,-0.08,-1.20,-0.10,0.17,0.21,-0.24,-1.00,-1.02,-1.10
72.91,-1.17,-0.04,-1.21,-0.08,0.12,0.21,-0.24,-1.05,-1.09,-1.13
73.64,-1.29,-0.12,-1.26,-0.10,0.09,0.21,-0.23,-1.20,-1.17,-1.16
74.38,-1.35,-0.15,-1.33,-0.12,0.07,0.21,-0.23,-1.27,-1.25,-1.20
75.12,-1.36,-0.12,-1.36,-0.13,0.07,0.21,-0.22,-1.29,-1.29,-1.24
75.87,-1.36,-0.08,-1.36,-0.08,0.06,0.21,-0.21,-1.30,-1.31,-1.28
76.63,-1.36,-0.04,-1.36,-0.04,0.03,0.21,-0.20,-1.33,-1.33,-1.32
77.40,-1.36,0.01,-1.36,0.01,-0.01,0.21,-0.19,-1.37,-1.37,-1.37
78.17,-1.36,0.05,-1.36,0.04,-0.06,0.21,-0.18,-1.41,-1.42,-1.40
78.95,-1.36,0.09,-1.36,0.09,-0.11,0.20,-0.17,-1.47,-1.48,-1.45
79.74,-1.36,0.13,-1.35,0.15,-0.16,0.20,-0.16,-1.52,-1.51,-1.49
80.54,-1.33,0.21,-1.27,0.27,-0.21,0.20,-0.15,-1.53,-1.48,-1.54
81.35,-1.25,0.33,-1.30,0.28,-0.24,0.20,-0.14,-1.48,-1.54,-1.58
82.16,-1.21,0.41,-1.35,0.28,-0.25,0.20,-0.13,-1.46,-1.60,-1.62
82.98,-1.60,0.07,-1.38,0.28,-0.26,0.20,-0.12,-1.86,-1.64,-1.66
83.81,-1.41,0.30,-1.43,0.28,-0.27,0.20,-0.10,-1.68,-1.70,-1.70
84.65,-1.36,0.38,-1.49,0.25,-0.29,0.20,-0.09,-1.65,-1.78,-1.74
85.50,-1.52,0.26,-1.51,0.27,-0.30,0.20,-0.08,-1.82,-1.81,-1.78
86.35,-1.67,0.15,-1.57,0.25,-0.31,0.20,-0.07,-1.98,-1.89,-1.82
87.22,-1.59,0.28,-1.57,0.29,-0.33,0.19,-0.06,-1.92,-1.91,-1.87
88.09,-1.46,0.45,-1.52,0.39,-0.36,0.19,-0.05,-1.82,-1.88,-1.91
88.97,-1.47,0.48,-1.49,0.46,-0.40,0.19,-0.04,-1.87,-1.88,-1.95
89.86,-1.54,0.45,-1.53,0.47,-0.43,0.19,-0.03,-1.97,-1.96,-1.99
90.76,-1.61,0.43,-1.60,0.43,-0.46,0.19,-0.03,-2.07,-2.07,-2.04
91.66,-1.66,0.41,-1.65,0.43,-0.48,0.19,-0.02,-2.13,-2.12,-2.07
92.58,-1.68,0.43,-1.65,0.46,-0.47,0.19,-0.01,-2.15,-2.11,-2.11
93.51,-1.64,0.51,-1.66,0.49,-0.43,0.19,0.00,-2.07,-2.09,-2.15
94.44,-1.68,0.51,-1.73,0.46,-0.37,0.19,0.01,-2.05,-2.10,-2.19
95.39,-1.87,0.36,-1.87,0.36,-0.30,0.19,0.02,-2.17,-2.17,-2.23
96.34,-2.07,0.20,-2.01,0.25,-0.25,0.19,0.03,-2.32,-2.26,-2.26
97.30,-2.16,0.14,-2.15,0.15,-0.22,0.19,0.04,-2.37,-2.37,-2.30
98.28,-2.21,0.14,-2.30,0.05,-0.18,0.19,0.04,-2.39,-2.47,-2.35
99.26,-2.39,-0.00,-2.37,0.02,-0.13,0.19,0.05,-2.52,-2.50,-2.39
100.25,-2.51,-0.08,-2.35,0.07,-0.08,0.19,0.06,-2.59,-2.43,-2.43
101.25,-2.27,0.20,-2.34,0.13,-0.05,0.20,0.07,-2.32,-2.39,-2.46
102.27,-2.21,0.30,-2.35,0.16,-0.03,0.20,0.08,-2.24,-2.39,-2.51
103.29,-2.51,0.05,-2.42,0.14,-0.02,0.20,0.09,-2.53,-2.45,-2.56
104.32,-2.67,-0.06,-2.64,-0.04,-0.01,0.21,0.10,-2.68,-2.66,-2.61
105.37,-2.72,-0.07,-2.80,-0.15,0.01,0.21,0.11,-2.71,-2.80,-2.65
106.42,-2.96,-0.26,-2.78,-0.08,0.04,0.22,0.12,-2.92,-2.74,-2.69
107.48,-2.76,-0.01,-2.79,-0.05,0.08,0.22,0.13,-2.68,-2.71,-2.74
108.56,-2.64,0.15,-2.86,-0.07,0.12,0.23,0.14,-2.52,-2.75,-2.79
109.64,-3.07,-0.23,-2.92,-0.08,0.14,0.24,0.15,-2.93,-2.78,-2.84
110.74,-3.13,-0.25,-3.05,-0.17,0.15,0.24,0.17,-2.98,-2.90,-2.88
111.85,-3.05,-0.13,-3.14,-0.22,0.16,0.25,0.18,-2.89,-2.98,-2.92
112.97,-3.14,-0.19,-3.13,-0.18,0.17,0.27,0.20,-2.97,-2.96,-2.95
114.10,-3.18,-0.19,-3.18,-0.19,0.20,0.28,0.21,-2.97,-2.97,-2.99
115.24,-3.25,-0.23,-3.25,-0.23,0.24,0.29,0.23,-3.01,-3.01,-3.02
116.39,-3.31,-0.25,-3.29,-0.24,0.26,0.30,0.25,-3.05,-3.03,-3.05
117.55,-3.34,-0.27,-3.35,-0.28,0.29,0.32,0.27,-3.05,-3.06,-3.07
118.73,-3.40,-0.30,-3.41,-0.31,0.31,0.34,0.29,-3.08,-3.10,-3.10
119.92,-3.49,-0.37,-3.47,-0.36,0.35,0.35,0.32,-3.14,-3.13,-3.11
121.12,-3.53,-0.40,-3.53,-0.40,0.38,0.37,0.34,-3.15,-3.15,-3.13
122.33,-3.58,-0.43,-3.58,-0.43,0.41,0.40,0.37,-3.17,-3.17,-3.15
123.55,-3.61,-0.45,-3.61,-0.45,0.43,0.42,0.39,-3.17,-3.17,-3.16
124.79,-3.65,-0.47,-3.65,-0.47,0.47,0.44,0.43,-3.17,-3.17,-3.18
126.03,-3.69,-0.50,-3.69,-0.50,0.52,0.47,0.46,-3.16,-3.17,-3.19
127.29,-3.75,-0.55,-3.75,-0.55,0.58,0.50,0.49,-3.17,-3.17,-3.20
128.57,-3.82,-0.60,-3.80,-0.58,0.64,0.53,0.53,-3.18,-3.16,-3.22
129.85,-3.88,-0.65,-3.87,-0.65,0.69,0.56,0.57,-3.19,-3.18,-3.23
131.15,-3.95,-0.71,-4.02,-0.77,0.75,0.59,0.60,-3.20,-3.27,-3.24
132.46,-4.15,-0.89,-4.17,-0.90,0.81,0.63,0.65,-3.34,-3.36,-3.26
133.79,-4.35,-1.07,-4.19,-0.91,0.86,0.66,0.69,-3.49,-3.33,-3.27
135.12,-4.22,-0.92,-4.20,-0.91,0.90,0.70,0.74,-3.32,-3.31,-3.30
136.48,-4.00,-0.69,-4.23,-0.92,0.94,0.74,0.78,-3.06,-3.29,-3.31
137.84,-4.36,-1.03,-4.28,-0.95,0.99,0.79,0.83,-3.37,-3.28,-3.33
139.22,-4.48,-1.13,-4.35,-1.00,1.04,0.83,0.88,-3.44,-3.30,-3.35
140.61,-4.38,-1.01,-4.42,-1.05,1.08,0.88,0.94,-3.30,-3.33,-3.36
142.02,-4.34,-0.96,-4.43,-1.05,1.11,0.93,0.99,-3.23,-3.32,-3.38
143.44,-4.54,-1.13,-4.56,-1.16,1.14,0.99,1.05,-3.40,-3.42,-3.41
144.87,-4.76,-1.32,-4.73,-1.30,1.17,1.04,1.11,-3.59,-3.56,-3.44
146.32,-4.92,-1.46,-4.78,-1.32,1.20,1.10,1.17,-3.72,-3.58,-3.46
147.78,-4.73,-1.23,-4.74,-1.25,1.22,1.16,1.23,-3.51,-3.52,-3.50
149.26,-4.57,-1.03,-4.71,-1.17,1.24,1.22,1.29,-3.33,-3.47,-3.53
150.75,-4.77,-1.19,-4.75,-1.17,1.27,1.29,1.36,-3.50,-3.48,-3.58
152.26,-4.95,-1.32,-4.90,-1.26,1.31,1.36,1.42,-3.64,-3.59,-3.63
153.78,-5.08,-1.39,-5.06,-1.38,1.36,1.43,1.49,-3.72,-3.70,-3.69
155.32,-5.16,-1.41,-5.18,-1.44,1.45,1.50,1.56,-3.71,-3.74,-3.75
156.88,-5.32,-1.52,-5.31,-1.51,1.56,1.57,1.64,-3.76,-3.75,-3.80
158.44,-5.48,-1.61,-5.49,-1.63,1.68,1.65,1.71,-3.80,-3.81,-3.86
160.03,-5.69,-1.77,-5.71,-1.79,1.79,1.73,1.79,-3.89,-3.91,-3.92
161.63,-5.94,-1.98,-5.93,-1.97,1.89,1.82,1.87,-4.05,-4.05,-3.96
163.24,-6.11,-2.10,-6.10,-2.10,1.96,1.90,1.94,-4.15,-4.14,-4.01
164.88,-6.23,-2.19,-6.15,-2.11,2.02,1.99,2.03,-4.21,-4.13,-4.04
166.53,-6.13,-2.06,-6.16,-2.09,2.08,2.08,2.11,-4.05,-4.07,-4.07
168.19,-6.08,-1.99,-6.17,-2.08,2.15,2.17,2.20,-3.93,-4.02,-4.08
169.87,-6.25,-2.16,-6.21,-2.12,2.22,2.27,2.28,-4.03,-3.99,-4.09
171.57,-6.34,-2.24,-6.30,-2.20,2.29,2.37,2.37,-4.05,-4.01,-4.10
173.29,-6.41,-2.31,-6.41,-2.31,2.38,2.47,2.46,-4.03,-4.03,-4.10
175.02,-6.49,-2.40,-6.56,-2.48,2.48,2.57,2.56,-4.01,-4.08,-4.08
176.77,-6.73,-2.66,-6.75,-2.68,2.60,2.67,2.65,-4.13,-4.15,-4.07
178.54,-7.00,-2.94,-6.89,-2.83,2.73,2.78,2.75,-4.26,-4.15,-4.06
180.32,-6.98,-2.95,-6.95,-2.92,2.88,2.89,2.85,-4.10,-4.08,-4.03
182.13,-6.92,-2.90,-6.99,-2.97,3.01,3.00,2.95,-3.91,-3.98,-4.02
183.95,-6.99,-3.00,-7.08,-3.08,3.13,3.11,3.05,-3.86,-3.95,-3.99
185.79,-7.28,-3.29,-7.20,-3.22,3.24,3.22,3.16,-4.04,-3.96,-3.98
187.65,-7.44,-3.46,-7.34,-3.37,3.34,3.33,3.27,-4.10,-4.00,-3.98
189.52,-7.36,-3.39,-7.49,-3.52,3.46,3.45,3.38,-3.90,-4.03,-3.97
191.42,-7.60,-3.62,-7.60,-3.63,3.61,3.57,3.49,-3.99,-3.99,-3.97
193.33,-7.80,-3.83,-7.68,-3.71,3.79,3.68,3.60,-4.01,-3.89,-3.97
195.27,-7.81,-3.84,-7.81,-3.83,3.97,3.80,3.71,-3.84,-3.83,-3.97
197.22,-7.84,-3.86,-8.00,-4.03,4.15,3.91,3.83,-3.69,-3.86,-3.98
199.19,-8.25,-4.27,-8.27,-4.29,4.30,4.03,3.94,-3.95,-3.97,-3.98
201.18,-8.70,-4.71,-8.54,-4.55,4.41,4.14,4.06,-4.28,-4.12,-3.99
203.19,-8.72,-4.72,-8.69,-4.69,4.49,4.26,4.18,-4.23,-4.21,-4.00
205.23,-8.64,-4.63,-8.71,-4.70,4.52,4.37,4.29,-4.12,-4.19,-4.01
207.28,-8.61,-4.59,-8.67,-4.65,4.54,4.48,4.41,-4.07,-4.13,-4.02
209.35,-8.69,-4.66,-8.60,-4.56,4.54,4.58,4.53,-4.14,-4.05,-4.03
211.44,-8.57,-4.52,-8.46,-4.42,4.55,4.69,4.64,-4.02,-3.92,-4.05
213.56,-8.30,-4.24,-8.42,-4.36,4.57,4.79,4.75,-3.73,-3.86,-4.06
215.69,-8.36,-4.28,-8.52,-4.44,4.64,4.88,4.86,-3.72,-3.88,-4.08
217.85,-8.89,-4.80,-8.75,-4.66,4.78,4.97,4.97,-4.11,-3.96,-4.09
220.03,-9.15,-5.04,-9.06,-4.96,4.97,5.06,5.08,-4.18,-4.09,-4.10
222.23,-9.25,-5.14,-9.34,-5.23,5.19,5.14,5.17,-4.06,-4.15,-4.11
224.45,-9.55,-5.43,-9.57,-5.45,5.41,5.21,5.27,-4.13,-4.16,-4.12
226.70,-9.89,-5.76,-9.87,-5.74,5.63,5.28,5.35,-4.26,-4.24,-4.13
228.96,-10.19,-6.06,-10.19,-6.06,5.81,5.34,5.44,-4.38,-4.38,-4.13
231.25,-10.44,-6.31,-10.40,-6.27,5.95,5.39,5.51,-4.49,-4.45,-4.13
233.57,-10.59,-6.45,-10.54,-6.41,6.05,5.43,5.57,-4.54,-4.49,-4.14
235.90,-10.57,-6.44,-10.66,-6.52,6.09,5.46,5.63,-4.48,-4.56,-4.13
238.26,-10.80,-6.67,-10.80,-6.68,6.09,5.49,5.68,-4.71,-4.72,-4.13
240.64,-10.99,-6.87,-11.01,-6.89,6.03,5.51,5.71,-4.96,-4.98,-4.11
243.05,-11.22,-7.11,-11.24,-7.13,5.93,5.52,5.73,-5.29,-5.31,-4.11
245.48,-11.30,-7.19,-11.24,-7.13,5.79,5.51,5.74,-5.51,-5.45,-4.11
247.93,-11.10,-7.00,-10.93,-6.83,5.62,5.50,5.75,-5.48,-5.32,-4.10
250.41,-10.39,-6.29,-10.50,-6.40,5.39,5.48,5.73,-4.99,-5.10,-4.10
252.92,-9.77,-5.68,-9.95,-5.86,5.15,5.45,5.71,-4.61,-4.80,-4.09
255.45,-9.60,-5.50,-9.35,-5.26,4.92,5.41,5.67,-4.67,-4.43,-4.10
258.00,-8.87,-4.77,-8.87,-4.77,4.72,5.36,5.63,-4.15,-4.16,-4.10
260.58,-8.33,-4.22,-8.50,-4.40,4.53,5.30,5.57,-3.80,-3.97,-4.10
263.19,-8.27,-4.16,-8.27,-4.16,4.37,5.24,5.50,-3.89,-3.90,-4.11
265.82,-8.33,-4.22,-8.27,-4.16,4.24,5.17,5.42,-4.09,-4.03,-4.11
268.48,-8.41,-4.29,-8.40,-4.29,4.13,5.09,5.33,-4.28,-4.28,-4.12
271.16,-8.38,-4.26,-8.43,-4.31,4.06,5.00,5.23,-4.32,-4.37,-4.12
273.87,-8.51,-4.38,-8.33,-4.21,4.05,4.91,5.13,-4.45,-4.28,-4.12
276.61,-8.14,-4.01,-8.17,-4.04,4.11,4.80,5.01,-4.03,-4.06,-4.13
279.38,-7.97,-3.84,-8.06,-3.93,4.21,4.70,4.89,-3.76,-3.85,-4.13
282.17,-8.08,-3.95,-8.13,-4.01,4.33,4.58,4.76,-3.75,-3.80,-4.12
284.99,-8.40,-4.28,-8.43,-4.31,4.45,4.47,4.63,-3.95,-3.98,-4.12
287.84,-8.88,-4.76,-8.76,-4.64,4.56,4.34,4.49,-4.32,-4.20,-4.12
290.72,-9.01,-4.89,-9.02,-4.91,4.68,4.22,4.35,-4.33,-4.34,-4.11
293.63,-9.09,-4.98,-9.10,-4.99,4.78,4.08,4.20,-4.31,-4.32,-4.11
296.57,-9.10,-5.00,-9.05,-4.95,4.83,3.95,4.05,-4.27,-4.22,-4.10
299.53,-8.88,-4.78,-8.95,-4.85,4.81,3.81,3.90,-4.07,-4.14,-4.10
302.53,-8.81,-4.71,-8.77,-4.67,4.70,3.67,3.75,-4.11,-4.07,-4.09
305.55,-8.58,-4.48,-8.56,-4.46,4.51,3.52,3.60,-4.07,-4.05,-4.10
308.61,-8.29,-4.19,-8.35,-4.25,4.27,3.37,3.44,-4.02,-4.08,-4.10
311.69,-8.12,-4.02,-8.08,-3.98,4.01,3.22,3.29,-4.11,-4.08,-4.10
314.81,-7.84,-3.72,-7.82,-3.71,3.73,3.06,3.13,-4.11,-4.09,-4.11
317.96,-7.53,-3.41,-7.56,-3.44,3.45,2.91,2.98,-4.07,-4.10,-4.12
321.14,-7.29,-3.16,-7.29,-3.16,3.17,2.74,2.83,-4.12,-4.11,-4.13
324.35,-7.01,-2.88,-7.02,-2.89,2.89,2.58,2.67,-4.12,-4.13,-4.13
327.59,-6.80,-2.66,-6.76,-2.61,2.61,2.41,2.52,-4.19,-4.14,-4.14
330.87,-6.46,-2.30,-6.47,-2.32,2.33,2.24,2.37,-4.13,-4.14,-4.15
334.18,-6.18,-2.01,-6.20,-2.04,2.05,2.07,2.21,-4.13,-4.15,-4.17
337.52,-5.93,-1.75,-5.94,-1.77,1.77,1.89,2.06,-4.16,-4.17,-4.18
340.90,-5.73,-1.55,-5.70,-1.51,1.49,1.71,1.91,-4.24,-4.20,-4.18
344.30,-5.45,-1.26,-5.43,-1.23,1.21,1.52,1.76,-4.24,-4.22,-4.19
347.75,-5.12,-0.91,-5.15,-0.94,0.93,1.33,1.62,-4.19,-4.22,-4.21
351.23,-4.86,-0.64,-4.87,-0.65,0.65,1.14,1.47,-4.21,-4.22,-4.22
354.74,-4.62,-0.38,-4.61,-0.37,0.37,0.94,1.32,-4.25,-4.23,-4.23
358.28,-4.37,-0.12,-4.36,-0.11,0.11,0.74,1.18,-4.26,-4.25,-4.25
361.87,-4.10,0.16,-4.11,0.15,-0.14,0.53,1.03,-4.24,-4.25,-4.26
365.49,-3.87,0.41,-3.87,0.40,-0.37,0.32,0.89,-4.24,-4.25,-4.28
369.14,-3.67,0.62,-3.67,0.61,-0.58,0.11,0.75,-4.25,-4.26,-4.29
372.83,-3.51,0.79,-3.51,0.79,-0.78,-0.11,0.61,-4.29,-4.28,-4.30
376.56,-3.37,0.94,-3.36,0.95,-0.96,-0.34,0.47,-4.33,-4.32,-4.31
380.33,-3.22,1.10,-3.23,1.10,-1.12,-0.56,0.33,-4.34,-4.35,-4.32
384.13,-3.10,1.24,-3.09,1.24,-1.27,-0.79,0.19,-4.37,-4.36,-4.33
387.97,-2.97,1.38,-2.96,1.39,-1.40,-1.02,0.06,-4.37,-4.36,-4.35
391.85,-2.82,1.54,-2.83,1.53,-1.52,-1.25,-0.08,-4.34,-4.35,-4.36
395.77,-2.71,1.66,-2.70,1.67,-1.64,-1.49,-0.21,-4.35,-4.33,-4.37
399.73,-2.59,1.79,-2.61,1.77,-1.75,-1.71,-0.35,-4.34,-4.36,-4.38
403.72,-2.54,1.85,-2.56,1.84,-1.85,-1.93,-0.48,-4.39,-4.41,-4.39
407.76,-2.54,1.87,-2.49,1.91,-1.94,-2.15,-0.61,-4.48,-4.44,-4.41
411.84,-2.43,1.99,-2.42,2.00,-2.02,-2.35,-0.74,-4.45,-4.44,-4.42
415.96,-2.31,2.12,-2.33,2.10,-2.09,-2.53,-0.86,-4.40,-4.42,-4.43
420.12,-2.24,2.19,-2.25,2.18,-2.15,-2.71,-0.99,-4.39,-4.40,-4.43
424.32,-2.22,2.22,-2.22,2.22,-2.20,-2.86,-1.11,-4.42,-4.42,-4.44
428.56,-2.21,2.23,-2.19,2.25,-2.25,-2.99,-1.23,-4.46,-4.44,-4.44
432.85,-2.17,2.27,-2.16,2.28,-2.29,-3.09,-1.35,-4.46,-4.45,-4.43
437.18,-2.09,2.34,-2.10,2.32,-2.34,-3.17,-1.46,-4.42,-4.44,-4.42
441.55,-2.04,2.37,-2.05,2.36,-2.38,-3.22,-1.58,-4.41,-4.42,-4.41
