frequency,raw
20.00,3.76
20.20,3.80
20.40,3.83
20.61,3.86
20.81,3.89
21.02,3.92
21.23,3.95
21.44,3.99
21.66,4.02
21.87,4.04
22.09,4.07
22.31,4.09
22.54,4.11
22.76,4.13
22.99,4.15
23.22,4.17
23.45,4.19
23.69,4.21
23.92,4.23
24.16,4.25
24.40,4.26
24.65,4.28
24.89,4.29
25.14,4.30
25.39,4.32
25.65,4.33
25.91,4.35
26.16,4.36
26.43,4.36
26.69,4.38
26.96,4.39
27.23,4.41
27.50,4.42
27.77,4.42
28.05,4.44
28.33,4.45
28.62,4.46
28.90,4.48
29.19,4.48
29.48,4.49
29.78,4.50
30.08,4.50
30.38,4.52
30.68,4.52
30.99,4.53
31.30,4.54
31.61,4.55
31.93,4.56
32.24,4.56
32.57,4.57
32.89,4.57
33.22,4.57
33.55,4.59
33.89,4.59
34.23,4.59
34.57,4.59
34.92,4.59
35.27,4.59
35.62,4.59
35.97,4.59
36.33,4.59
36.70,4.58
37.06,4.58
37.43,4.59
37.81,4.59
38.19,4.59
38.57,4.60
38.95,4.60
39.34,4.61
39.74,4.61
40.14,4.62
40.54,4.62
40.94,4.62
41.35,4.62
41.76,4.62
42.18,4.62
42.60,4.62
43.03,4.61
43.46,4.61
43.90,4.61
44.33,4.61
44.78,4.61
45.23,4.61
45.68,4.61
46.13,4.61
46.60,4.61
47.06,4.61
47.53,4.62
48.01,4.62
48.49,4.62
48.97,4.62
49.46,4.62
49.96,4.62
50.46,4.62
50.96,4.62
51.47,4.61
51.99,4.61
52.51,4.61
53.03,4.61
53.56,4.61
54.10,4.60
54.64,4.60
55.18,4.60
55.74,4.60
56.29,4.59
56.86,4.59
57.42,4.59
58.00,4.58
58.58,4.58
59.16,4.58
59.76,4.57
60.35,4.57
60.96,4.57
61.57,4.57
62.18,4.57
62.80,4.57
63.43,4.57
64.07,4.57
64.71,4.57
65.35,4.57
66.01,4.57
66.67,4.57
67.33,4.57
68.01,4.57
68.69,4.57
69.37,4.57
70.07,4.57
70.77,4.57
71.48,4.56
72.19,4.56
72.91,4.56
73.64,4.56
74.38,4.55
75.12,4.56
75.87,4.56
76.63,4.57
77.40,4.57
78.17,4.55
78.95,4.54
79.74,4.53
80.54,4.51
81.35,4.49
82.16,4.47
82.98,4.44
83.81,4.42
84.65,4.37
85.50,4.35
86.35,4.32
87.22,4.28
88.09,4.26
88.97,4.23
89.86,4.21
90.76,4.19
91.66,4.18
92.58,4.16
93.51,4.16
94.44,4.16
95.39,4.17
96.34,4.18
97.30,4.18
98.28,4.19
99.26,4.20
100.25,4.20
101.25,4.19
102.27,4.18
103.29,4.17
104.32,4.14
105.37,4.12
106.42,4.09
107.48,4.05
108.56,4.01
109.64,3.97
110.74,3.94
111.85,3.90
112.97,3.86
114.10,3.83
115.24,3.82
116.39,3.81
117.55,3.79
118.73,3.80
119.92,3.80
121.12,3.81
122.33,3.81
123.55,3.82
124.79,3.82
126.03,3.81
127.29,3.79
128.57,3.78
129.85,3.74
131.15,3.71
132.46,3.68
133.79,3.65
135.12,3.60
136.48,3.58
137.84,3.54
139.22,3.52
140.61,3.49
142.02,3.45
143.44,3.44
144.87,3.44
146.32,3.43
147.78,3.43
149.26,3.42
150.75,3.40
152.26,3.38
153.78,3.35
155.32,3.31
156.88,3.27
158.44,3.25
160.03,3.20
161.63,3.18
163.24,3.15
164.88,3.13
166.53,3.11
168.19,3.09
169.87,3.04
171.57,3.02
173.29,3.01
175.02,2.98
176.77,2.94
178.54,2.92
180.32,2.89
182.13,2.86
183.95,2.82
185.79,2.80
187.65,2.78
189.52,2.75
191.42,2.73
193.33,2.70
195.27,2.67
197.22,2.65
199.19,2.63
201.18,2.59
203.19,2.56
205.23,2.53
207.28,2.50
209.35,2.47
211.44,2.43
213.56,2.40
215.69,2.36
217.85,2.32
220.03,2.29
222.23,2.26
224.45,2.23
226.70,2.19
228.96,2.16
231.25,2.14
233.57,2.12
235.90,2.07
238.26,2.05
240.64,2.01
243.05,1.96
245.48,1.93
247.93,1.89
250.41,1.86
252.92,1.83
255.45,1.80
258.00,1.78
260.58,1.73
263.19,1.69
265.82,1.64
268.48,1.60
271.16,1.56
273.87,1.51
276.61,1.48
279.38,1.46
282.17,1.44
284.99,1.41
287.84,1.36
290.72,1.31
293.63,1.27
296.57,1.22
299.53,1.17
302.53,1.13
305.55,1.10
308.61,1.07
311.69,1.04
314.81,1.00
317.96,0.96
321.14,0.89
324.35,0.85
327.59,0.81
330.87,0.77
334.18,0.72
337.52,0.68
340.90,0.63
344.30,0.58
347.75,0.54
351.23,0.49
354.74,0.44
358.28,0.38
361.87,0.34
365.49,0.29
369.14,0.25
372.83,0.20
376.56,0.14
380.33,0.10
384.13,0.06
387.97,0.03
391.85,-0.02
395.77,-0.05
399.73,-0.10
403.72,-0.14
407.76,-0.20
411.84,-0.24
415.96,-0.28
420.12,-0.32
424.32,-0.35
428.56,-0.41
432.85,-0.46
437.18,-0.50
441.55,-0.55
445.96,-0.59
450.42,-0.64
454.93,-0.69
459.48,-0.73
464.07,-0.78
468.71,-0.83
473.40,-0.88
478.13,-0.93
482.91,-0.97
487.74,-1.00
492.62,-1.04
497.55,-1.08
502.52,-1.12
507.55,-1.17
512.62,-1.22
517.75,-1.27
522.93,-1.30
528.16,-1.33
533.44,-1.35
538.77,-1.39
544.16,-1.43
549.60,-1.48
555.10,-1.53
560.65,-1.58
566.25,-1.61
571.92,-1.65
577.64,-1.68
583.41,-1.70
589.25,-1.74
595.14,-1.80
601.09,-1.84
607.10,-1.89
613.17,-1.95
619.30,-1.99
625.50,-2.03
631.75,-2.06
638.07,-2.08
644.45,-2.10
650.89,-2.12
657.40,-2.15
663.98,-2.19
670.62,-2.22
677.32,-2.25
684.10,-2.28
690.94,-2.31
697.85,-2.34
704.83,-2.37
711.87,-2.41
718.99,-2.44
726.18,-2.47
733.44,-2.50
740.78,-2.52
748.19,-2.54
755.67,-2.55
763.23,-2.57
770.86,-2.56
778.57,-2.55
786.35,-2.55
794.22,-2.53
802.16,-2.53
810.18,-2.53
818.28,-2.53
826.46,-2.52
834.73,-2.52
843.08,-2.51
851.51,-2.50
860.02,-2.49
868.62,-2.48
877.31,-2.47
886.08,-2.45
894.94,-2.43
903.89,-2.42
912.93,-2.41
922.06,-2.39
931.28,-2.36
940.59,-2.32
950.00,-2.27
959.50,-2.22
969.09,-2.17
978.78,-2.11
988.57,-2.03
998.46,-1.95
1008.44,-1.85
1018.53,-1.75
1028.71,-1.63
1039.00,-1.50
1049.39,-1.37
1059.88,-1.22
1070.48,-1.09
1081.19,-0.96
1092.00,-0.81
1102.92,-0.66
1113.95,-0.50
1125.09,-0.35
1136.34,-0.19
1147.70,-0.02
1159.18,0.16
1170.77,0.33
1182.48,0.50
1194.30,0.69
1206.25,0.87
1218.31,1.07
1230.49,1.27
1242.80,1.47
1255.22,1.70
1267.78,1.91
1280.45,2.11
1293.26,2.32
1306.19,2.52
1319.25,2.73
1332.45,2.92
1345.77,3.11
1359.23,3.32
1372.82,3.51
1386.55,3.70
1400.41,3.90
1414.42,4.10
1428.56,4.28
1442.85,4.46
1457.28,4.63
1471.85,4.79
1486.57,4.94
1501.43,5.09
1516.45,5.22
1531.61,5.35
1546.93,5.46
1562.40,5.55
1578.02,5.65
1593.80,5.74
1609.74,5.78
1625.84,5.82
1642.10,5.87
1658.52,5.90
1675.10,5.89
1691.85,5.88
1708.77,5.86
1725.86,5.83
1743.12,5.78
1760.55,5.70
1778.15,5.63
1795.94,5.52
1813.90,5.41
1832.03,5.27
1850.36,5.12
1868.86,4.96
1887.55,4.78
1906.42,4.61
1925.49,4.42
1944.74,4.21
1964.19,4.00
1983.83,3.78
2003.67,3.57
2023.71,3.36
2043.94,3.13
2064.38,2.89
2085.03,2.67
2105.88,2.47
2126.94,2.26
2148.20,2.05
2169.69,1.86
2191.38,1.67
2213.30,1.50
2235.43,1.35
2257.78,1.21
2280.36,1.08
2303.17,0.98
2326.20,0.87
2349.46,0.80
2372.95,0.73
2396.68,0.68
2420.65,0.63
2444.86,0.60
2469.31,0.56
2494.00,0.52
2518.94,0.48
2544.13,0.44
2569.57,0.40
2595.27,0.34
2621.22,0.29
2647.43,0.24
2673.90,0.17
2700.64,0.10
2727.65,0.02
2754.93,-0.05
2782.48,-0.09
2810.30,-0.14
2838.40,-0.18
2866.79,-0.20
2895.46,-0.19
2924.41,-0.16
2953.65,-0.11
2983.19,-0.04
3013.02,0.06
3043.15,0.17
3073.58,0.31
3104.32,0.48
3135.36,0.68
3166.72,0.89
3198.38,1.12
3230.37,1.35
3262.67,1.61
3295.30,1.85
3328.25,2.10
3361.53,2.35
3395.15,2.60
3429.10,2.82
3463.39,3.03
3498.03,3.22
3533.01,3.40
3568.34,3.52
3604.02,3.61
3640.06,3.70
3676.46,3.74
3713.22,3.74
3750.36,3.72
3787.86,3.67
3825.74,3.58
3864.00,3.47
3902.64,3.30
3941.66,3.11
3981.08,2.89
4020.89,2.64
4061.10,2.34
4101.71,2.00
4142.73,1.64
4184.15,1.25
4226.00,0.83
4268.26,0.43
4310.94,0.00
4354.05,-0.46
4397.59,-0.91
4441.56,-1.36
4485.98,-1.82
4530.84,-2.27
4576.15,-2.72
4621.91,-3.17
4668.13,-3.58
4714.81,-4.01
4761.96,-4.42
4809.58,-4.83
4857.67,-5.22
4906.25,-5.59
4955.31,-5.96
5004.87,-6.31
5054.91,-6.63
5105.46,-6.95
5156.52,-7.25
5208.08,-7.55
5260.16,-7.83
5312.77,-8.09
5365.89,-8.35
5419.55,-8.58
5473.75,-8.80
5528.49,-9.01
5583.77,-9.18
5639.61,-9.33
5696.00,-9.45
5752.96,-9.54
5810.49,-9.58
5868.60,-9.59
5927.28,-9.55
5986.56,-9.48
6046.42,-9.35
6106.89,-9.20
6167.96,-8.99
6229.64,-8.75
6291.93,-8.48
6354.85,-8.15
6418.40,-7.76
6482.58,-7.33
6547.41,-6.87
6612.88,-6.37
6679.01,-5.85
6745.80,-5.27
6813.26,-4.64
6881.39,-3.97
6950.21,-3.25
7019.71,-2.47
7089.91,-1.64
7160.81,-0.76
7232.41,0.15
7304.74,1.10
7377.79,2.06
7451.56,3.02
7526.08,3.96
7601.34,4.86
7677.35,5.69
7754.13,6.41
7831.67,7.02
7909.98,7.51
7989.08,7.86
8068.98,8.04
8149.67,8.09
8231.16,8.00
8313.47,7.78
8396.61,7.47
8480.57,7.06
8565.38,6.59
8651.03,6.04
8737.54,5.45
8824.92,4.83
8913.17,4.20
9002.30,3.56
9092.32,2.92
9183.25,2.26
9275.08,1.62
9367.83,0.98
9461.51,0.31
9556.12,-0.38
9651.68,-1.06
9748.20,-1.74
9845.68,-2.43
9944.14,-3.10
10043.58,-3.74
10144.02,-4.38
10245.46,-4.97
10347.91,-5.55
10451.39,-6.12
10555.91,-6.68
10661.46,-7.24
10768.08,-7.79
10875.76,-8.35
10984.52,-8.92
11094.36,-9.47
11205.31,-10.02
11317.36,-10.54
11430.53,-11.03
11544.84,-11.49
11660.29,-11.90
11776.89,-12.27
11894.66,-12.56
12013.60,-12.78
12133.74,-12.91
12255.08,-12.98
12377.63,-12.98
12501.41,-12.92
12626.42,-12.82
12752.68,-12.68
12880.21,-12.53
13009.01,-12.35
13139.10,-12.18
13270.49,-12.02
13403.20,-11.85
13537.23,-11.68
13672.60,-11.51
13809.33,-11.35
13947.42,-11.22
14086.90,-11.09
14227.77,-11.01
14370.04,-10.97
14513.74,-10.99
14658.88,-11.08
14805.47,-11.24
14953.52,-11.48
15103.06,-11.80
15254.09,-12.16
15406.63,-12.57
15560.70,-13.01
15716.30,-13.47
15873.47,-13.94
16032.20,-14.42
16192.52,-14.92
16354.45,-15.45
16517.99,-16.01
16683.17,-16.60
16850.01,-17.26
17018.51,-18.00
17188.69,-18.79
17360.58,-19.68
17534.18,-20.71
17709.53,-21.92
17886.62,-23.29
18065.49,-24.87
18246.14,-26.45
18428.60,-28.09
18612.89,-29.83
18799.02,-31.66
18987.01,-33.60
19176.88,-35.64
19368.65,-37.77
19562.33,-39.99
19757.96,-42.32
19955.54,-44.76
