frequency,raw,error,smoothed,error_smoothed,equalization,parametric_eq,fixed_band_eq,equalized_raw,equalized_smoothed,target
20.00,-8.44,-14.32,-8.44,-14.32,6.00,6.06,2.65,-2.44,-2.44,5.87
20.20,-8.27,-14.16,-8.28,-14.16,6.00,6.07,2.72,-2.27,-2.28,5.88
20.40,-8.11,-14.01,-8.11,-14.00,6.00,6.08,2.81,-2.11,-2.11,5.89
20.61,-7.95,-13.84,-7.95,-13.84,6.00,6.09,2.89,-1.95,-1.95,5.89
20.81,-7.78,-13.69,-7.78,-13.69,6.00,6.10,2.97,-1.78,-1.78,5.90
21.02,-7.61,-13.52,-7.62,-13.52,6.00,6.11,3.06,-1.61,-1.62,5.90
21.23,-7.45,-13.37,-7.45,-13.36,6.00,6.11,3.15,-1.45,-1.45,5.91
21.44,-7.28,-13.20,-7.28,-13.20,6.00,6.12,3.25,-1.28,-1.28,5.91
21.66,-7.12,-13.03,-7.12,-13.03,6.00,6.12,3.34,-1.12,-1.12,5.91
21.87,-6.95,-12.86,-6.95,-12.87,6.00,6.13,3.44,-0.95,-0.95,5.91
22.09,-6.79,-12.72,-6.80,-12.72,6.00,6.13,3.55,-0.79,-0.80,5.92
22.31,-6.65,-12.57,-6.65,-12.57,6.00,6.13,3.65,-0.65,-0.65,5.92
22.54,-6.51,-12.42,-6.51,-12.42,6.00,6.13,3.76,-0.51,-0.51,5.91
22.76,-6.36,-12.27,-6.37,-12.27,6.00,6.13,3.87,-0.36,-0.37,5.90
22.99,-6.23,-12.13,-6.21,-12.11,6.00,6.13,3.98,-0.23,-0.21,5.90
23.22,-6.05,-11.95,-6.05,-11.94,6.00,6.13,4.10,-0.05,-0.05,5.90
23.45,-5.86,-11.75,-5.87,-11.76,6.00,6.12,4.22,0.14,0.13,5.89
23.69,-5.69,-11.58,-5.68,-11.57,6.00,6.12,4.34,0.31,0.32,5.89
23.92,-5.50,-11.39,-5.51,-11.40,6.00,6.12,4.46,0.50,0.49,5.89
24.16,-5.35,-11.24,-5.35,-11.24,6.00,6.11,4.59,0.65,0.65,5.89
24.40,-5.21,-11.10,-5.21,-11.10,6.00,6.10,4.72,0.79,0.79,5.89
24.65,-5.08,-10.96,-5.07,-10.96,6.00,6.10,4.85,0.92,0.93,5.89
24.89,-4.94,-10.83,-4.94,-10.83,6.00,6.09,4.98,1.06,1.06,5.89
25.14,-4.81,-10.70,-4.82,-10.70,6.00,6.08,5.12,1.19,1.18,5.89
25.39,-4.69,-10.57,-4.70,-10.58,6.00,6.07,5.26,1.31,1.30,5.88
25.65,-4.58,-10.45,-4.58,-10.45,6.00,6.05,5.39,1.42,1.42,5.88
25.91,-4.46,-10.33,-4.45,-10.33,6.00,6.04,5.53,1.54,1.55,5.88
26.16,-4.31,-10.19,-4.31,-10.18,6.00,6.03,5.67,1.69,1.69,5.88
26.43,-4.16,-10.03,-4.16,-10.03,6.00,6.01,5.81,1.84,1.84,5.87
26.69,-3.99,-9.87,-4.00,-9.87,6.00,6.00,5.94,2.01,2.00,5.87
26.96,-3.85,-9.72,-3.85,-9.72,6.00,5.98,6.08,2.15,2.15,5.87
27.23,-3.71,-9.58,-3.70,-9.58,6.00,5.96,6.21,2.29,2.30,5.87
27.50,-3.57,-9.44,-3.57,-9.44,6.00,5.94,6.34,2.43,2.43,5.87
27.77,-3.43,-9.30,-3.43,-9.30,6.00,5.92,6.46,2.57,2.57,5.87
28.05,-3.29,-9.16,-3.28,-9.15,6.00,5.90,6.58,2.71,2.72,5.87
28.33,-3.11,-8.98,-3.12,-8.99,6.00,5.88,6.70,2.89,2.88,5.87
28.62,-2.95,-8.82,-2.94,-8.81,6.00,5.86,6.81,3.05,3.06,5.87
28.90,-2.76,-8.64,-2.78,-8.65,6.00,5.83,6.91,3.24,3.22,5.88
29.19,-2.63,-8.51,-2.64,-8.52,6.00,5.81,7.00,3.37,3.36,5.88
29.48,-2.52,-8.40,-2.52,-8.40,6.00,5.78,7.08,3.48,3.48,5.88
29.78,-2.41,-8.29,-2.41,-8.29,6.00,5.75,7.15,3.59,3.59,5.88
30.08,-2.29,-8.17,-2.28,-8.16,6.00,5.72,7.21,3.71,3.72,5.88
30.38,-2.13,-8.01,-2.13,-8.01,6.00,5.69,7.25,3.87,3.87,5.88
30.68,-1.97,-7.85,-1.97,-7.85,6.00,5.66,7.29,4.03,4.03,5.88
30.99,-1.81,-7.69,-1.81,-7.69,6.00,5.63,7.31,4.19,4.19,5.88
31.30,-1.65,-7.53,-1.65,-7.53,6.00,5.60,7.32,4.35,4.35,5.88
31.61,-1.50,-7.37,-1.49,-7.37,6.00,5.56,7.31,4.50,4.51,5.88
31.93,-1.35,-7.22,-1.35,-7.22,6.00,5.53,7.29,4.65,4.65,5.88
32.24,-1.21,-7.08,-1.22,-7.09,6.00,5.49,7.26,4.79,4.78,5.87
32.57,-1.10,-6.96,-1.09,-6.96,6.00,5.45,7.22,4.90,4.91,5.86
32.89,-0.98,-6.85,-0.98,-6.84,6.01,5.41,7.16,5.03,5.03,5.86
33.22,-0.87,-6.73,-0.88,-6.73,6.02,5.37,7.09,5.15,5.14,5.85
33.55,-0.77,-6.62,-0.78,-6.62,6.03,5.33,7.01,5.25,5.25,5.85
33.89,-0.67,-6.50,-0.65,-6.49,6.02,5.28,6.93,5.36,5.37,5.84
34.23,-0.52,-6.35,-0.51,-6.34,6.00,5.24,6.83,5.48,5.49,5.84
34.57,-0.33,-6.17,-0.34,-6.17,5.96,5.19,6.73,5.62,5.62,5.83
34.92,-0.16,-5.99,-0.17,-6.00,5.90,5.14,6.61,5.74,5.73,5.83
35.27,-0.02,-5.85,-0.02,-5.85,5.82,5.10,6.50,5.80,5.80,5.83
35.62,0.11,-5.71,0.12,-5.71,5.72,5.04,6.38,5.83,5.84,5.83
35.97,0.25,-5.58,0.24,-5.58,5.60,4.99,6.25,5.85,5.85,5.83
36.33,0.37,-5.46,0.37,-5.45,5.47,4.94,6.12,5.84,5.84,5.82
36.70,0.49,-5.33,0.49,-5.33,5.35,4.88,5.99,5.84,5.84,5.82
37.06,0.62,-5.20,0.62,-5.20,5.22,4.83,5.86,5.84,5.84,5.82
37.43,0.74,-5.08,0.74,-5.08,5.11,4.77,5.73,5.84,5.85,5.82
37.81,0.86,-4.96,0.86,-4.96,5.00,4.71,5.59,5.87,5.86,5.82
38.19,0.95,-4.87,0.94,-4.88,4.89,4.64,5.46,5.85,5.83,5.82
38.57,1.02,-4.80,1.01,-4.81,4.78,4.58,5.33,5.80,5.80,5.82
38.95,1.07,-4.76,1.10,-4.72,4.67,4.51,5.20,5.74,5.77,5.83
39.34,1.23,-4.60,1.23,-4.60,4.55,4.44,5.07,5.78,5.78,5.82
39.74,1.38,-4.44,1.37,-4.45,4.43,4.37,4.94,5.82,5.81,5.82
40.14,1.53,-4.28,1.53,-4.29,4.31,4.30,4.81,5.85,5.84,5.82
40.54,1.65,-4.16,1.66,-4.16,4.19,4.22,4.69,5.85,5.85,5.81
40.94,1.78,-4.03,1.77,-4.04,4.07,4.14,4.57,5.85,5.84,5.81
41.35,1.87,-3.94,1.87,-3.94,3.96,4.06,4.45,5.82,5.83,5.81
41.76,1.96,-3.84,1.96,-3.84,3.85,3.97,4.33,5.80,5.81,5.79
42.18,2.05,-3.74,2.04,-3.75,3.74,3.88,4.22,5.79,5.78,5.79
42.60,2.13,-3.66,2.12,-3.66,3.64,3.79,4.11,5.77,5.76,5.78
43.03,2.21,-3.58,2.22,-3.56,3.53,3.69,4.01,5.74,5.75,5.78
43.46,2.33,-3.45,2.33,-3.45,3.42,3.59,3.90,5.74,5.74,5.78
43.90,2.45,-3.31,2.45,-3.32,3.30,3.48,3.80,5.75,5.75,5.76
44.33,2.58,-3.18,2.58,-3.18,3.18,3.37,3.70,5.76,5.76,5.76
44.78,2.70,-3.05,2.70,-3.05,3.06,3.25,3.61,5.76,5.76,5.75
45.23,2.82,-2.92,2.83,-2.91,2.94,3.13,3.52,5.76,5.77,5.75
45.68,2.95,-2.79,2.95,-2.80,2.83,3.01,3.43,5.78,5.77,5.74
46.13,3.06,-2.69,3.03,-2.71,2.72,2.89,3.34,5.78,5.75,5.75
46.60,3.09,-2.65,3.10,-2.64,2.63,2.76,3.26,5.73,5.73,5.74
47.06,3.15,-2.60,3.19,-2.56,2.55,2.64,3.18,5.70,5.74,5.74
47.53,3.29,-2.46,3.28,-2.47,2.47,2.52,3.10,5.76,5.75,5.75
48.01,3.41,-2.34,3.36,-2.39,2.39,2.41,3.03,5.80,5.75,5.75
48.49,3.42,-2.34,3.42,-2.34,2.32,2.31,2.96,5.73,5.74,5.76
48.97,3.43,-2.33,3.48,-2.28,2.25,2.22,2.88,5.68,5.73,5.76
49.46,3.56,-2.21,3.55,-2.21,2.19,2.15,2.82,5.75,5.75,5.76
49.96,3.68,-2.09,3.67,-2.10,2.14,2.09,2.75,5.82,5.81,5.77
50.46,3.75,-2.02,3.76,-2.02,2.09,2.05,2.69,5.84,5.85,5.78
50.96,3.82,-1.97,3.77,-2.02,2.04,2.01,2.62,5.86,5.81,5.79
51.47,3.76,-2.04,3.75,-2.04,2.00,1.99,2.56,5.76,5.75,5.79
51.99,3.69,-2.11,3.78,-2.02,1.97,1.97,2.50,5.65,5.74,5.79
52.51,3.83,-1.96,3.83,-1.96,1.94,1.96,2.44,5.77,5.77,5.79
53.03,3.99,-1.81,3.91,-1.88,1.90,1.95,2.38,5.89,5.81,5.79
53.56,3.96,-1.84,3.96,-1.84,1.87,1.94,2.33,5.83,5.83,5.79
54.10,3.94,-1.87,3.95,-1.85,1.84,1.93,2.27,5.77,5.79,5.81
54.64,3.94,-1.87,3.95,-1.85,1.81,1.92,2.21,5.74,5.76,5.81
55.18,3.98,-1.83,4.00,-1.80,1.79,1.91,2.15,5.77,5.79,5.80
55.74,4.07,-1.72,4.05,-1.74,1.79,1.90,2.10,5.87,5.85,5.79
56.29,4.09,-1.70,4.07,-1.72,1.81,1.88,2.04,5.90,5.88,5.79
56.86,4.04,-1.76,4.02,-1.77,1.82,1.86,1.98,5.86,5.84,5.79
57.42,3.93,-1.84,3.93,-1.85,1.83,1.85,1.92,5.77,5.76,5.78
58.00,3.82,-1.95,3.86,-1.91,1.83,1.83,1.86,5.65,5.70,5.77
58.58,3.85,-1.91,3.84,-1.91,1.84,1.81,1.80,5.68,5.68,5.75
59.16,3.88,-1.87,3.87,-1.87,1.84,1.80,1.74,5.71,5.70,5.74
59.76,3.91,-1.81,3.91,-1.82,1.83,1.78,1.67,5.74,5.73,5.73
60.35,3.94,-1.77,3.93,-1.77,1.80,1.77,1.60,5.74,5.73,5.70
60.96,3.94,-1.74,3.95,-1.73,1.77,1.76,1.53,5.70,5.72,5.68
61.57,3.96,-1.70,3.95,-1.70,1.72,1.75,1.46,5.68,5.67,5.65
62.18,3.96,-1.66,3.93,-1.68,1.69,1.75,1.39,5.64,5.62,5.62
62.80,3.91,-1.68,3.93,-1.65,1.66,1.74,1.31,5.56,5.58,5.58
63.43,3.91,-1.63,3.92,-1.62,1.63,1.73,1.23,5.53,5.54,5.54
64.07,3.94,-1.56,3.90,-1.59,1.59,1.72,1.15,5.53,5.49,5.50
64.71,3.90,-1.56,3.91,-1.55,1.55,1.71,1.07,5.44,5.45,5.45
65.35,3.90,-1.52,3.91,-1.50,1.49,1.68,0.98,5.38,5.40,5.41
66.01,3.94,-1.44,3.92,-1.46,1.42,1.63,0.89,5.36,5.34,5.37
66.67,3.97,-1.37,3.98,-1.36,1.35,1.57,0.80,5.31,5.32,5.34
67.33,4.04,-1.27,4.06,-1.25,1.26,1.49,0.70,5.29,5.31,5.31
68.01,4.16,-1.10,4.13,-1.13,1.16,1.39,0.60,5.32,5.29,5.27
68.69,4.22,-1.02,4.21,-1.03,1.05,1.27,0.50,5.26,5.25,5.24
69.37,4.27,-0.94,4.27,-0.93,0.92,1.13,0.40,5.19,5.20,5.20
70.07,4.34,-0.84,4.35,-0.82,0.79,0.97,0.30,5.13,5.14,5.17
70.77,4.46,-0.68,4.46,-0.68,0.66,0.80,0.19,5.12,5.12,5.14
71.48,4.59,-0.52,4.59,-0.52,0.53,0.63,0.08,5.13,5.12,5.12
72.19,4.73,-0.36,4.71,-0.37,0.40,0.45,-0.03,5.13,5.11,5.08
72.91,4.82,-0.23,4.82,-0.23,0.26,0.27,-0.14,5.08,5.08,5.05
73.64,4.91,-0.11,4.91,-0.10,0.11,0.09,-0.26,5.02,5.03,5.01
74.38,5.01,0.03,5.00,0.02,-0.04,-0.08,-0.38,4.96,4.96,4.98
75.12,5.12,0.17,5.11,0.17,-0.20,-0.26,-0.49,4.92,4.91,4.94
75.87,5.21,0.31,5.23,0.33,-0.36,-0.42,-0.62,4.85,4.87,4.90
76.63,5.38,0.52,5.37,0.51,-0.52,-0.59,-0.74,4.86,4.85,4.86
77.40,5.53,0.71,5.51,0.70,-0.68,-0.75,-0.86,4.84,4.83,4.81
78.17,5.66,0.88,5.65,0.88,-0.85,-0.90,-0.99,4.80,4.80,4.77
78.95,5.76,1.03,5.77,1.04,-1.02,-1.05,-1.11,4.73,4.75,4.72
79.74,5.89,1.20,5.88,1.20,-1.20,-1.20,-1.24,4.69,4.69,4.68
80.54,6.00,1.36,5.99,1.35,-1.37,-1.34,-1.37,4.63,4.62,4.63
81.35,6.10,1.51,6.11,1.51,-1.53,-1.49,-1.51,4.57,4.58,4.59
82.16,6.22,1.66,6.24,1.69,-1.70,-1.63,-1.64,4.52,4.54,4.55
82.98,6.40,1.89,6.38,1.87,-1.86,-1.76,-1.78,4.53,4.52,4.51
83.81,6.53,2.06,6.51,2.04,-2.02,-1.90,-1.92,4.50,4.48,4.47
84.65,6.63,2.19,6.64,2.21,-2.19,-2.03,-2.05,4.43,4.45,4.44
85.50,6.74,2.35,6.76,2.36,-2.36,-2.16,-2.20,4.38,4.39,4.39
86.35,6.89,2.54,6.87,2.53,-2.54,-2.29,-2.34,4.35,4.34,4.35
87.22,7.00,2.70,6.99,2.69,-2.71,-2.42,-2.48,4.29,4.28,4.30
88.09,7.10,2.85,7.12,2.86,-2.88,-2.55,-2.63,4.22,4.24,4.26
88.97,7.24,3.02,7.26,3.04,-3.05,-2.67,-2.78,4.19,4.21,4.22
89.86,7.41,3.24,7.40,3.23,-3.22,-2.80,-2.93,4.20,4.19,4.18
90.76,7.55,3.42,7.55,3.41,-3.38,-2.92,-3.09,4.18,4.17,4.13
91.66,7.67,3.57,7.66,3.57,-3.54,-3.05,-3.24,4.13,4.13,4.09
92.58,7.76,3.70,7.76,3.70,-3.69,-3.17,-3.40,4.06,4.07,4.06
93.51,7.84,3.83,7.84,3.83,-3.84,-3.30,-3.56,4.00,4.00,4.01
94.44,7.93,3.95,7.93,3.96,-3.98,-3.42,-3.72,3.94,3.95,3.97
95.39,8.01,4.08,8.03,4.09,-4.11,-3.54,-3.88,3.90,3.91,3.94
96.34,8.14,4.24,8.13,4.23,-4.23,-3.66,-4.05,3.90,3.90,3.90
97.30,8.24,4.38,8.23,4.38,-4.35,-3.78,-4.21,3.89,3.89,3.86
98.28,8.32,4.52,8.32,4.50,-4.46,-3.90,-4.38,3.86,3.85,3.81
99.26,8.38,4.60,8.37,4.60,-4.58,-4.02,-4.55,3.79,3.79,3.77
100.25,8.42,4.68,8.41,4.68,-4.70,-4.14,-4.72,3.71,3.71,3.73
101.25,8.47,4.77,8.46,4.77,-4.83,-4.26,-4.89,3.64,3.64,3.69
102.27,8.52,4.87,8.54,4.90,-4.95,-4.38,-5.07,3.56,3.59,3.64
103.29,8.66,5.06,8.65,5.05,-5.08,-4.49,-5.24,3.58,3.57,3.59
104.32,8.78,5.23,8.76,5.21,-5.20,-4.61,-5.41,3.57,3.56,3.54
105.37,8.85,5.35,8.86,5.36,-5.32,-4.73,-5.58,3.53,3.54,3.51
106.42,8.93,5.47,8.92,5.47,-5.44,-4.84,-5.75,3.49,3.49,3.46
107.48,8.97,5.56,8.97,5.56,-5.54,-4.96,-5.92,3.43,3.43,3.41
108.56,8.99,5.63,8.99,5.64,-5.62,-5.07,-6.09,3.36,3.37,3.36
109.64,9.02,5.71,9.00,5.69,-5.68,-5.19,-6.25,3.33,3.32,3.31
110.74,9.00,5.73,9.00,5.73,-5.72,-5.30,-6.41,3.27,3.27,3.27
111.85,8.98,5.75,8.98,5.76,-5.75,-5.41,-6.56,3.23,3.23,3.23
112.97,8.97,5.77,8.97,5.78,-5.77,-5.52,-6.71,3.19,3.20,3.19
114.10,8.97,5.81,8.96,5.80,-5.79,-5.63,-6.86,3.17,3.16,3.15
115.24,8.95,5.82,8.92,5.80,-5.82,-5.74,-6.99,3.13,3.10,3.12
116.39,8.90,5.81,8.91,5.82,-5.85,-5.85,-7.12,3.05,3.06,3.09
117.55,8.89,5.82,8.93,5.87,-5.89,-5.96,-7.24,3.00,3.04,3.07
118.73,9.02,5.97,8.98,5.94,-5.94,-6.06,-7.35,3.07,3.04,3.04
119.92,9.08,6.05,9.05,6.02,-6.01,-6.17,-7.45,3.06,3.03,3.02
121.12,9.09,6.08,9.11,6.10,-6.10,-6.27,-7.54,2.99,3.01,3.01
122.33,9.15,6.16,9.16,6.17,-6.19,-6.38,-7.62,2.96,2.97,2.99
123.55,9.25,6.27,9.25,6.27,-6.30,-6.48,-7.68,2.95,2.95,2.98
124.79,9.37,6.41,9.36,6.40,-6.41,-6.58,-7.74,2.97,2.96,2.96
126.03,9.48,6.53,9.48,6.54,-6.52,-6.68,-7.78,2.96,2.97,2.95
127.29,9.59,6.65,9.58,6.65,-6.63,-6.77,-7.81,2.96,2.95,2.93
128.57,9.67,6.76,9.66,6.75,-6.73,-6.87,-7.83,2.94,2.93,2.92
129.85,9.73,6.82,9.76,6.86,-6.85,-6.96,-7.84,2.88,2.91,2.90
131.15,9.86,6.97,9.84,6.95,-6.96,-7.05,-7.83,2.90,2.88,2.89
132.46,9.95,7.08,9.92,7.05,-7.07,-7.14,-7.82,2.88,2.86,2.87
133.79,10.00,7.14,10.01,7.16,-7.17,-7.23,-7.80,2.82,2.84,2.86
135.12,10.09,7.25,10.10,7.26,-7.28,-7.32,-7.77,2.81,2.82,2.83
136.48,10.20,7.38,10.19,7.37,-7.38,-7.40,-7.73,2.82,2.81,2.82
137.84,10.30,7.49,10.30,7.50,-7.48,-7.49,-7.69,2.82,2.82,2.80
139.22,10.39,7.60,10.39,7.61,-7.58,-7.57,-7.64,2.81,2.82,2.78
140.61,10.48,7.71,10.45,7.69,-7.67,-7.64,-7.59,2.81,2.78,2.76
142.02,10.51,7.76,10.50,7.75,-7.76,-7.72,-7.53,2.75,2.74,2.75
143.44,10.51,7.79,10.54,7.82,-7.84,-7.79,-7.47,2.67,2.70,2.72
144.87,10.58,7.89,10.58,7.89,-7.92,-7.86,-7.41,2.66,2.66,2.69
146.32,10.66,7.99,10.64,7.98,-7.99,-7.93,-7.34,2.66,2.65,2.66
147.78,10.70,8.07,10.69,8.06,-8.07,-7.99,-7.28,2.63,2.62,2.63
149.26,10.70,8.10,10.70,8.11,-8.13,-8.06,-7.22,2.57,2.57,2.59
150.75,10.70,8.15,10.70,8.15,-8.18,-8.11,-7.15,2.52,2.52,2.55
152.26,10.69,8.19,10.69,8.20,-8.19,-8.17,-7.09,2.50,2.50,2.49
153.78,10.66,8.22,10.66,8.22,-8.15,-8.22,-7.03,2.50,2.50,2.44
155.32,10.60,8.22,10.58,8.20,-8.08,-8.27,-6.97,2.52,2.50,2.38
156.88,10.45,8.12,10.44,8.12,-7.97,-8.32,-6.92,2.47,2.47,2.32
158.44,10.22,7.96,10.22,7.96,-7.87,-8.36,-6.87,2.36,2.35,2.26
160.03,10.01,7.80,9.96,7.75,-7.78,-8.41,-6.82,2.23,2.18,2.21
161.63,9.68,7.51,9.73,7.56,-7.72,-8.44,-6.77,1.95,2.01,2.17
163.24,9.59,7.47,9.61,7.49,-7.71,-8.48,-6.73,1.88,1.90,2.12
164.88,9.63,7.54,9.64,7.56,-7.74,-8.51,-6.70,1.89,1.90,2.09
166.53,9.82,7.77,9.82,7.76,-7.82,-8.53,-6.67,2.00,1.99,2.06
168.19,10.06,8.02,10.04,8.00,-7.95,-8.56,-6.64,2.10,2.09,2.04
169.87,10.27,8.23,10.26,8.23,-8.12,-8.58,-6.62,2.15,2.14,2.03
171.57,10.45,8.42,10.43,8.40,-8.30,-8.60,-6.60,2.15,2.13,2.02
173.29,10.57,8.54,10.56,8.53,-8.47,-8.61,-6.59,2.10,2.09,2.03
175.02,10.65,8.60,10.67,8.63,-8.61,-8.62,-6.58,2.04,2.06,2.04
176.77,10.78,8.72,10.76,8.71,-8.71,-8.62,-6.58,2.06,2.05,2.05
178.54,10.84,8.77,10.84,8.77,-8.78,-8.63,-6.58,2.06,2.07,2.07
180.32,10.92,8.82,10.91,8.82,-8.82,-8.63,-6.59,2.10,2.09,2.09
182.13,10.96,8.85,10.95,8.83,-8.84,-8.62,-6.61,2.11,2.11,2.11
183.95,10.97,8.83,10.97,8.84,-8.85,-8.62,-6.62,2.11,2.12,2.14
185.79,10.98,8.83,10.99,8.84,-8.85,-8.60,-6.65,2.13,2.14,2.14
187.65,10.99,8.84,10.99,8.84,-8.84,-8.59,-6.67,2.15,2.16,2.15
189.52,11.01,8.85,10.97,8.82,-8.81,-8.57,-6.71,2.20,2.16,2.16
191.42,10.93,8.77,10.94,8.78,-8.77,-8.55,-6.74,2.16,2.17,2.15
193.33,10.87,8.70,10.89,8.74,-8.72,-8.53,-6.78,2.14,2.17,2.16
195.27,10.86,8.70,10.84,8.69,-8.68,-8.50,-6.83,2.18,2.17,2.16
197.22,10.81,8.66,10.78,8.63,-8.63,-8.47,-6.88,2.17,2.15,2.15
199.19,10.72,8.57,10.72,8.57,-8.59,-8.43,-6.93,2.12,2.12,2.15
201.18,10.63,8.49,10.65,8.51,-8.56,-8.40,-6.99,2.07,2.09,2.14
203.19,10.61,8.48,10.61,8.48,-8.53,-8.36,-7.04,2.07,2.08,2.13
205.23,10.61,8.49,10.60,8.49,-8.51,-8.31,-7.10,2.10,2.10,2.12
207.28,10.61,8.50,10.60,8.50,-8.48,-8.26,-7.17,2.12,2.12,2.11
209.35,10.60,8.50,10.58,8.49,-8.45,-8.22,-7.23,2.14,2.13,2.10
211.44,10.53,8.45,10.54,8.45,-8.41,-8.16,-7.30,2.11,2.12,2.08
213.56,10.48,8.41,10.46,8.39,-8.36,-8.11,-7.36,2.11,2.10,2.07
215.69,10.36,8.30,10.36,8.31,-8.30,-8.05,-7.43,2.06,2.07,2.05
217.85,10.26,8.21,10.26,8.22,-8.21,-7.99,-7.49,2.04,2.05,2.04
220.03,10.16,8.13,10.15,8.12,-8.12,-7.93,-7.55,2.04,2.03,2.03
222.23,10.04,8.02,10.03,8.01,-8.02,-7.86,-7.61,2.01,2.01,2.02
224.45,9.91,7.89,9.91,7.90,-7.92,-7.79,-7.67,1.98,1.99,2.01
226.70,9.79,7.78,9.80,7.80,-7.83,-7.72,-7.72,1.96,1.98,2.00
228.96,9.72,7.72,9.71,7.71,-7.73,-7.65,-7.76,1.98,1.98,2.00
231.25,9.65,7.64,9.63,7.64,-7.64,-7.57,-7.80,2.01,1.99,2.00
233.57,9.56,7.56,9.56,7.56,-7.55,-7.49,-7.83,2.01,2.01,2.00
235.90,9.48,7.48,9.48,7.48,-7.46,-7.41,-7.85,2.01,2.02,2.00
238.26,9.40,7.39,9.39,7.38,-7.37,-7.33,-7.86,2.03,2.02,2.00
240.64,9.30,7.28,9.29,7.27,-7.28,-7.25,-7.87,2.02,2.01,2.02
243.05,9.18,7.15,9.19,7.17,-7.17,-7.16,-7.86,2.00,2.01,2.02
245.48,9.08,7.05,9.09,7.06,-7.06,-7.07,-7.84,2.01,2.03,2.03
247.93,9.00,6.97,8.99,6.95,-6.95,-6.98,-7.81,2.06,2.04,2.03
250.41,8.88,6.85,8.88,6.84,-6.83,-6.89,-7.77,2.06,2.05,2.04
252.92,8.74,6.69,8.75,6.71,-6.70,-6.79,-7.72,2.03,2.05,2.04
255.45,8.62,6.58,8.61,6.57,-6.58,-6.70,-7.65,2.04,2.03,2.04
258.00,8.49,6.45,8.47,6.44,-6.45,-6.60,-7.58,2.03,2.02,2.03
260.58,8.34,6.30,8.34,6.31,-6.32,-6.50,-7.49,2.01,2.02,2.03
263.19,8.20,6.17,8.21,6.18,-6.19,-6.40,-7.39,2.00,2.02,2.03
265.82,8.09,6.06,8.08,6.06,-6.05,-6.30,-7.28,2.03,2.03,2.02
268.48,7.97,5.95,7.95,5.93,-5.92,-6.19,-7.16,2.05,2.03,2.02
271.16,7.81,5.79,7.81,5.79,-5.78,-6.09,-7.04,2.03,2.03,2.02
273.87,7.63,5.62,7.65,5.64,-5.63,-5.98,-6.90,2.00,2.02,2.01
276.61,7.50,5.49,7.49,5.48,-5.48,-5.87,-6.76,2.01,2.01,2.01
279.38,7.34,5.33,7.34,5.33,-5.33,-5.76,-6.61,2.01,2.01,2.01
282.17,7.20,5.18,7.19,5.18,-5.18,-5.65,-6.46,2.02,2.01,2.01
284.99,7.03,5.02,7.04,5.02,-5.03,-5.53,-6.30,2.01,2.01,2.02
287.84,6.90,4.89,6.89,4.87,-4.88,-5.42,-6.14,2.02,2.01,2.02
290.72,6.75,4.72,6.75,4.73,-4.75,-5.30,-5.98,2.00,2.01,2.02
293.63,6.63,4.59,6.63,4.60,-4.61,-5.19,-5.81,2.01,2.01,2.03
296.57,6.51,4.47,6.51,4.47,-4.48,-5.07,-5.64,2.03,2.03,2.04
299.53,6.41,4.37,6.41,4.37,-4.35,-4.95,-5.47,2.06,2.06,2.04
302.53,6.31,4.26,6.29,4.25,-4.23,-4.83,-5.30,2.08,2.06,2.04
305.55,6.17,4.12,6.16,4.11,-4.11,-4.71,-5.13,2.06,2.05,2.04
308.61,6.01,3.97,6.02,3.98,-3.99,-4.58,-4.95,2.01,2.03,2.04
311.69,5.88,3.84,5.89,3.85,-3.88,-4.46,-4.78,2.00,2.01,2.04
314.81,5.79,3.76,5.77,3.74,-3.76,-4.34,-4.61,2.03,2.01,2.03
317.96,5.67,3.64,5.67,3.64,-3.64,-4.21,-4.44,2.03,2.03,2.02
321.14,5.54,3.52,5.56,3.54,-3.52,-4.09,-4.28,2.02,2.04,2.01
324.35,5.46,3.44,5.43,3.42,-3.39,-3.96,-4.11,2.06,2.03,2.01
327.59,5.29,3.30,5.29,3.29,-3.27,-3.83,-3.95,2.03,2.02,2.00
330.87,5.13,3.14,5.15,3.16,-3.15,-3.71,-3.78,1.98,2.00,1.99
334.18,5.01,3.03,5.00,3.02,-3.03,-3.58,-3.62,1.98,1.97,1.98
337.52,4.88,2.91,4.86,2.89,-2.92,-3.45,-3.46,1.96,1.95,1.96
340.90,4.74,2.77,4.74,2.78,-2.81,-3.32,-3.31,1.92,1.93,1.96
344.30,4.62,2.66,4.63,2.68,-2.72,-3.19,-3.15,1.90,1.91,1.95
347.75,4.55,2.62,4.55,2.61,-2.63,-3.07,-3.00,1.91,1.91,1.93
351.23,4.50,2.58,4.49,2.57,-2.55,-2.94,-2.85,1.94,1.93,1.92
354.74,4.43,2.52,4.44,2.53,-2.48,-2.81,-2.70,1.94,1.96,1.91
358.28,4.38,2.48,4.35,2.46,-2.42,-2.68,-2.55,1.95,1.93,1.90
361.87,4.29,2.40,4.25,2.37,-2.37,-2.56,-2.40,1.92,1.88,1.89
365.49,4.11,2.24,4.17,2.30,-2.32,-2.43,-2.26,1.79,1.85,1.86
369.14,4.09,2.23,4.09,2.24,-2.27,-2.30,-2.12,1.81,1.82,1.85
372.83,4.09,2.24,4.04,2.20,-2.24,-2.18,-1.98,1.85,1.80,1.84
376.56,4.00,2.16,4.01,2.18,-2.20,-2.05,-1.84,1.80,1.82,1.83
380.33,3.96,2.13,3.98,2.16,-2.16,-1.93,-1.71,1.79,1.81,1.82
384.13,3.96,2.15,3.94,2.13,-2.13,-1.81,-1.57,1.83,1.82,1.81
387.97,3.92,2.12,3.91,2.11,-2.08,-1.69,-1.44,1.84,1.83,1.80
391.85,3.86,2.07,3.84,2.06,-2.02,-1.57,-1.31,1.84,1.83,1.79
395.77,3.74,1.96,3.74,1.96,-1.93,-1.45,-1.18,1.80,1.80,1.78
399.73,3.61,1.84,3.62,1.85,-1.83,-1.34,-1.06,1.77,1.79,1.77
403.72,3.48,1.72,3.47,1.72,-1.71,-1.23,-0.93,1.76,1.76,1.76
407.76,3.34,1.60,3.31,1.57,-1.58,-1.12,-0.81,1.76,1.73,1.73
411.84,3.14,1.41,3.14,1.42,-1.44,-1.01,-0.69,1.70,1.71,1.72
415.96,2.96,1.24,2.98,1.27,-1.29,-0.90,-0.57,1.67,1.70,1.71
420.12,2.85,1.13,2.84,1.13,-1.14,-0.80,-0.46,1.71,1.70,1.71
424.32,2.73,1.02,2.71,1.00,-0.99,-0.70,-0.34,1.73,1.71,1.70
428.56,2.57,0.86,2.57,0.87,-0.86,-0.60,-0.23,1.71,1.71,1.70
432.85,2.44,0.72,2.44,0.73,-0.74,-0.51,-0.13,1.70,1.70,1.71
437.18,2.32,0.59,2.32,0.60,-0.63,-0.42,-0.02,1.69,1.70,1.72
441.55,2.25,0.50,2.24,0.50,-0.52,-0.33,0.08,1.72,1.71,1.74
445.96,2.17,0.41,2.17,0.41,-0.43,-0.24,0.18,1.74,1.74,1.76
450.42,2.13,0.34,2.13,0.34,-0.33,-0.16,0.27,1.79,1.80,1.79
454.93,2.09,0.26,2.09,0.27,-0.24,-0.08,0.36,1.85,1.86,1.83
459.48,2.08,0.21,2.06,0.19,-0.15,-0.01,0.45,1.92,1.91,1.87
464.07,2.01,0.11,1.99,0.09,-0.07,0.06,0.53,1.93,1.92,1.90
468.71,1.92,-0.02,1.92,-0.02,0.01,0.13,0.61,1.92,1.92,1.94
473.40,1.82,-0.16,1.85,-0.12,0.09,0.20,0.68,1.90,1.94,1.98
478.13,1.83,-0.19,1.81,-0.20,0.17,0.26,0.75,2.00,1.98,2.02
482.91,1.81,-0.24,1.79,-0.26,0.26,0.32,0.81,2.07,2.05,2.05
487.74,1.75,-0.33,1.77,-0.31,0.35,0.37,0.87,2.10,2.12,2.08
492.62,1.72,-0.38,1.71,-0.38,0.43,0.42,0.93,2.15,2.15,2.10
497.55,1.66,-0.46,1.63,-0.49,0.50,0.47,0.98,2.16,2.13,2.12
502.52,1.53,-0.60,1.52,-0.61,0.57,0.52,1.02,2.10,2.09,2.13
507.55,1.39,-0.74,1.42,-0.70,0.65,0.56,1.06,2.03,2.07,2.13
512.62,1.33,-0.79,1.36,-0.75,0.72,0.60,1.10,2.05,2.09,2.11
517.75,1.37,-0.73,1.32,-0.78,0.80,0.64,1.13,2.16,2.11,2.09
522.93,1.28,-0.80,1.24,-0.83,0.87,0.67,1.16,2.14,2.11,2.07
528.16,1.11,-0.93,1.14,-0.90,0.93,0.70,1.18,2.04,2.07,2.03
533.44,0.98,-1.01,0.99,-1.00,0.99,0.73,1.20,1.97,1.98,1.98
