frequency,raw,error,smoothed,error_smoothed,equalization,parametric_eq,fixed_band_eq,equalized_raw,equalized_smoothed,target
20.00,-11.58,-12.96,-11.58,-12.96,6.00,5.57,2.83,-5.58,-5.58,1.38
20.20,-11.44,-12.83,-11.44,-12.83,6.00,5.61,2.91,-5.44,-5.44,1.39
20.40,-11.30,-12.70,-11.30,-12.69,6.00,5.66,3.00,-5.30,-5.30,1.40
20.61,-11.16,-12.56,-11.16,-12.56,6.00,5.70,3.08,-5.16,-5.16,1.40
20.81,-11.02,-12.43,-11.02,-12.43,6.00,5.74,3.17,-5.02,-5.02,1.41
21.02,-10.88,-12.29,-10.88,-12.29,6.00,5.78,3.26,-4.88,-4.88,1.41
21.23,-10.75,-12.17,-10.75,-12.17,6.00,5.82,3.35,-4.75,-4.75,1.42
21.44,-10.62,-12.04,-10.62,-12.04,6.00,5.85,3.45,-4.62,-4.62,1.42
21.66,-10.49,-11.91,-10.49,-11.91,6.00,5.89,3.55,-4.49,-4.49,1.42
21.87,-10.36,-11.78,-10.36,-11.79,6.00,5.92,3.65,-4.36,-4.36,1.42
22.09,-10.24,-11.67,-10.24,-11.66,6.00,5.96,3.75,-4.24,-4.24,1.43
22.31,-10.11,-11.54,-10.11,-11.53,6.00,5.99,3.86,-4.11,-4.11,1.43
22.54,-9.98,-11.40,-9.98,-11.40,6.00,6.02,3.97,-3.98,-3.98,1.42
22.76,-9.85,-11.26,-9.85,-11.26,6.00,6.05,4.08,-3.85,-3.85,1.41
22.99,-9.72,-11.13,-9.73,-11.13,6.00,6.08,4.20,-3.72,-3.73,1.41
23.22,-9.61,-11.02,-9.61,-11.02,6.00,6.11,4.31,-3.61,-3.61,1.41
23.45,-9.51,-10.91,-9.51,-10.91,6.00,6.13,4.43,-3.51,-3.51,1.40
23.69,-9.41,-10.81,-9.41,-10.81,6.00,6.16,4.56,-3.41,-3.41,1.40
23.92,-9.31,-10.71,-9.30,-10.70,6.00,6.18,4.68,-3.31,-3.30,1.40
24.16,-9.17,-10.57,-9.17,-10.57,6.00,6.20,4.81,-3.17,-3.17,1.40
24.40,-9.01,-10.41,-9.01,-10.41,6.00,6.22,4.94,-3.01,-3.01,1.40
24.65,-8.86,-10.26,-8.85,-10.25,6.00,6.23,5.07,-2.86,-2.85,1.40
24.89,-8.70,-10.10,-8.71,-10.11,6.00,6.25,5.20,-2.70,-2.71,1.40
25.14,-8.58,-9.98,-8.59,-9.98,6.00,6.26,5.34,-2.58,-2.59,1.40
25.39,-8.49,-9.88,-8.49,-9.88,6.00,6.27,5.47,-2.49,-2.49,1.39
25.65,-8.41,-9.80,-8.41,-9.79,6.00,6.28,5.61,-2.41,-2.41,1.39
25.91,-8.32,-9.71,-8.32,-9.71,6.00,6.29,5.74,-2.32,-2.32,1.39
26.16,-8.23,-9.62,-8.23,-9.62,6.00,6.30,5.88,-2.23,-2.23,1.39
26.43,-8.13,-9.52,-8.14,-9.52,6.00,6.30,6.01,-2.13,-2.14,1.39
26.69,-8.03,-9.42,-8.04,-9.43,6.00,6.30,6.15,-2.03,-2.04,1.39
26.96,-7.94,-9.33,-7.93,-9.32,6.00,6.30,6.28,-1.94,-1.93,1.39
27.23,-7.80,-9.19,-7.80,-9.19,6.00,6.30,6.41,-1.80,-1.80,1.39
27.50,-7.66,-9.05,-7.67,-9.05,6.00,6.29,6.53,-1.66,-1.67,1.39
27.77,-7.52,-8.91,-7.52,-8.91,6.00,6.29,6.65,-1.52,-1.52,1.39
28.05,-7.39,-8.78,-7.39,-8.78,6.00,6.28,6.77,-1.39,-1.39,1.39
28.33,-7.26,-8.65,-7.26,-8.65,6.00,6.27,6.88,-1.26,-1.26,1.39
28.62,-7.13,-8.52,-7.13,-8.52,6.00,6.25,6.98,-1.13,-1.13,1.39
28.90,-7.00,-8.40,-7.01,-8.41,6.00,6.24,7.08,-1.00,-1.01,1.40
29.19,-6.91,-8.31,-6.91,-8.31,6.00,6.22,7.16,-0.91,-0.91,1.40
29.48,-6.83,-8.23,-6.83,-8.23,6.00,6.20,7.24,-0.83,-0.83,1.40
29.78,-6.75,-8.16,-6.75,-8.16,6.00,6.18,7.30,-0.75,-0.75,1.41
30.08,-6.66,-8.07,-6.65,-8.06,6.00,6.16,7.35,-0.66,-0.65,1.41
30.38,-6.53,-7.94,-6.54,-7.94,6.00,6.13,7.40,-0.53,-0.54,1.41
30.68,-6.40,-7.81,-6.41,-7.81,6.00,6.10,7.42,-0.40,-0.41,1.41
30.99,-6.27,-7.68,-6.27,-7.68,6.00,6.07,7.44,-0.27,-0.27,1.41
31.30,-6.14,-7.55,-6.14,-7.55,6.00,6.04,7.44,-0.14,-0.14,1.41
31.61,-6.01,-7.42,-6.01,-7.42,6.00,6.01,7.43,-0.01,-0.01,1.41
31.93,-5.88,-7.29,-5.89,-7.30,6.00,5.97,7.41,0.12,0.11,1.41
32.24,-5.78,-7.18,-5.78,-7.19,6.00,5.94,7.37,0.22,0.22,1.40
32.57,-5.69,-7.09,-5.69,-7.09,6.00,5.90,7.32,0.31,0.31,1.40
32.89,-5.60,-7.00,-5.60,-6.99,6.00,5.86,7.26,0.40,0.40,1.40
33.22,-5.50,-6.89,-5.50,-6.89,6.00,5.81,7.19,0.50,0.50,1.39
33.55,-5.39,-6.78,-5.39,-6.78,6.00,5.77,7.11,0.61,0.61,1.39
33.89,-5.28,-6.66,-5.28,-6.66,6.01,5.72,7.02,0.73,0.74,1.38
34.23,-5.15,-6.53,-5.15,-6.53,6.02,5.68,6.92,0.87,0.87,1.38
34.57,-5.02,-6.40,-5.02,-6.40,6.02,5.63,6.81,1.00,1.01,1.38
34.92,-4.88,-6.26,-4.89,-6.27,6.01,5.58,6.70,1.13,1.12,1.38
35.27,-4.77,-6.15,-4.78,-6.16,5.99,5.52,6.57,1.22,1.21,1.38
35.62,-4.68,-6.06,-4.68,-6.05,5.94,5.47,6.45,1.26,1.27,1.38
35.97,-4.58,-5.96,-4.57,-5.95,5.88,5.41,6.32,1.30,1.31,1.38
36.33,-4.45,-5.83,-4.45,-5.83,5.79,5.36,6.19,1.35,1.34,1.38
36.70,-4.32,-5.70,-4.32,-5.70,5.70,5.30,6.05,1.38,1.38,1.38
37.06,-4.19,-5.57,-4.19,-5.57,5.61,5.24,5.91,1.42,1.42,1.38
37.43,-4.07,-5.45,-4.07,-5.45,5.51,5.18,5.77,1.44,1.44,1.38
37.81,-3.95,-5.34,-3.96,-5.34,5.40,5.11,5.63,1.45,1.44,1.39
38.19,-3.87,-5.26,-3.88,-5.27,5.30,5.05,5.49,1.43,1.41,1.39
38.57,-3.82,-5.21,-3.82,-5.21,5.20,4.99,5.35,1.38,1.38,1.39
38.95,-3.77,-5.17,-3.75,-5.14,5.10,4.92,5.21,1.33,1.35,1.40
39.34,-3.65,-5.05,-3.65,-5.05,5.00,4.85,5.08,1.35,1.35,1.40
39.74,-3.52,-4.92,-3.53,-4.93,4.90,4.79,4.94,1.37,1.37,1.40
40.14,-3.38,-4.78,-3.38,-4.78,4.79,4.72,4.81,1.41,1.41,1.40
40.54,-3.25,-4.65,-3.25,-4.65,4.68,4.65,4.67,1.42,1.43,1.40
40.94,-3.11,-4.51,-3.13,-4.53,4.56,4.58,4.54,1.45,1.43,1.40
41.35,-3.03,-4.43,-3.03,-4.43,4.44,4.51,4.41,1.41,1.41,1.40
41.76,-2.95,-4.34,-2.94,-4.33,4.33,4.44,4.29,1.38,1.39,1.39
42.18,-2.86,-4.25,-2.85,-4.24,4.22,4.36,4.16,1.36,1.37,1.39
42.60,-2.74,-4.13,-2.74,-4.13,4.12,4.29,4.04,1.38,1.38,1.39
43.03,-2.62,-4.01,-2.64,-4.03,4.02,4.21,3.92,1.40,1.38,1.39
43.46,-2.54,-3.93,-2.54,-3.93,3.92,4.14,3.81,1.38,1.38,1.39
43.90,-2.46,-3.84,-2.45,-3.83,3.83,4.06,3.69,1.37,1.39,1.38
44.33,-2.35,-3.73,-2.35,-3.73,3.74,3.99,3.58,1.39,1.39,1.38
44.78,-2.24,-3.62,-2.25,-3.63,3.65,3.91,3.47,1.41,1.39,1.38
45.23,-2.16,-3.54,-2.17,-3.55,3.56,3.83,3.36,1.40,1.38,1.38
45.68,-2.11,-3.49,-2.10,-3.48,3.47,3.76,3.26,1.36,1.37,1.38
46.13,-2.04,-3.43,-2.02,-3.41,3.39,3.68,3.16,1.35,1.37,1.39
46.60,-1.92,-3.31,-1.93,-3.32,3.31,3.60,3.06,1.38,1.38,1.39
47.06,-1.81,-3.21,-1.82,-3.22,3.22,3.52,2.97,1.41,1.40,1.40
47.53,-1.72,-3.13,-1.72,-3.13,3.14,3.44,2.87,1.42,1.42,1.41
48.01,-1.63,-3.05,-1.64,-3.06,3.06,3.36,2.78,1.43,1.42,1.42
48.49,-1.56,-2.99,-1.56,-2.99,2.98,3.28,2.69,1.42,1.42,1.43
48.97,-1.48,-2.92,-1.46,-2.90,2.90,3.21,2.60,1.42,1.44,1.44
49.46,-1.36,-2.81,-1.36,-2.81,2.83,3.13,2.52,1.47,1.47,1.45
49.96,-1.24,-2.71,-1.28,-2.74,2.75,3.05,2.44,1.51,1.47,1.47
50.46,-1.21,-2.69,-1.21,-2.69,2.68,2.97,2.36,1.47,1.47,1.48
50.96,-1.18,-2.68,-1.14,-2.64,2.62,2.89,2.28,1.44,1.48,1.50
51.47,-1.06,-2.57,-1.06,-2.57,2.56,2.80,2.20,1.50,1.50,1.51
51.99,-0.93,-2.45,-0.97,-2.49,2.50,2.72,2.13,1.56,1.53,1.52
52.51,-0.89,-2.42,-0.89,-2.42,2.44,2.64,2.06,1.55,1.55,1.53
53.03,-0.86,-2.40,-0.84,-2.38,2.39,2.56,1.99,1.53,1.55,1.54
53.56,-0.79,-2.34,-0.79,-2.34,2.34,2.48,1.92,1.55,1.55,1.55
54.10,-0.72,-2.29,-0.73,-2.30,2.29,2.40,1.85,1.57,1.56,1.57
54.64,-0.67,-2.25,-0.66,-2.24,2.25,2.32,1.79,1.58,1.59,1.58
55.18,-0.61,-2.20,-0.61,-2.20,2.21,2.25,1.72,1.60,1.60,1.59
55.74,-0.56,-2.15,-0.57,-2.17,2.17,2.17,1.66,1.61,1.60,1.59
56.29,-0.53,-2.13,-0.54,-2.14,2.12,2.09,1.60,1.59,1.58,1.60
56.86,-0.52,-2.13,-0.49,-2.10,2.07,2.01,1.55,1.55,1.58,1.61
57.42,-0.43,-2.04,-0.42,-2.03,2.01,1.93,1.49,1.58,1.58,1.61
58.00,-0.32,-1.93,-0.33,-1.94,1.94,1.85,1.44,1.62,1.61,1.61
58.58,-0.24,-1.85,-0.25,-1.86,1.87,1.77,1.39,1.63,1.62,1.61
59.16,-0.17,-1.78,-0.18,-1.79,1.80,1.70,1.34,1.63,1.62,1.61
59.76,-0.13,-1.74,-0.11,-1.71,1.72,1.62,1.29,1.59,1.62,1.61
60.35,-0.05,-1.65,-0.03,-1.63,1.65,1.55,1.24,1.60,1.61,1.60
60.96,0.07,-1.52,0.03,-1.56,1.57,1.47,1.20,1.64,1.60,1.59
61.57,0.08,-1.50,0.08,-1.50,1.50,1.40,1.15,1.58,1.58,1.58
62.18,0.10,-1.46,0.12,-1.44,1.43,1.32,1.11,1.53,1.55,1.56
62.80,0.16,-1.38,0.16,-1.38,1.36,1.25,1.07,1.52,1.51,1.54
63.43,0.22,-1.29,0.22,-1.29,1.28,1.18,1.03,1.49,1.49,1.51
64.07,0.29,-1.20,0.29,-1.20,1.19,1.10,0.99,1.48,1.48,1.49
64.71,0.35,-1.11,0.35,-1.11,1.11,1.03,0.96,1.46,1.46,1.46
65.35,0.42,-1.02,0.42,-1.02,1.03,0.96,0.92,1.45,1.45,1.44
66.01,0.48,-0.94,0.48,-0.94,0.95,0.89,0.89,1.43,1.43,1.42
66.67,0.55,-0.85,0.55,-0.85,0.87,0.83,0.86,1.42,1.42,1.40
67.33,0.61,-0.78,0.60,-0.78,0.79,0.76,0.83,1.40,1.39,1.39
68.01,0.67,-0.70,0.65,-0.72,0.71,0.70,0.80,1.38,1.36,1.37
68.69,0.68,-0.68,0.71,-0.65,0.64,0.63,0.77,1.32,1.35,1.36
69.37,0.76,-0.59,0.77,-0.58,0.56,0.57,0.74,1.32,1.33,1.35
70.07,0.88,-0.46,0.83,-0.51,0.50,0.51,0.72,1.38,1.33,1.34
70.77,0.88,-0.45,0.91,-0.42,0.43,0.45,0.69,1.31,1.34,1.33
71.48,0.96,-0.37,0.98,-0.35,0.37,0.39,0.67,1.33,1.35,1.33
72.19,1.05,-0.27,1.02,-0.30,0.31,0.33,0.64,1.36,1.33,1.32
72.91,1.08,-0.23,1.07,-0.24,0.24,0.28,0.62,1.32,1.31,1.31
73.64,1.08,-0.22,1.09,-0.21,0.19,0.22,0.60,1.27,1.28,1.30
74.38,1.11,-0.18,1.13,-0.16,0.14,0.17,0.58,1.24,1.26,1.29
75.12,1.18,-0.10,1.19,-0.09,0.09,0.12,0.55,1.27,1.28,1.28
75.87,1.27,0.01,1.25,-0.02,0.05,0.07,0.53,1.31,1.29,1.26
76.63,1.29,0.04,1.29,0.04,-0.00,0.02,0.51,1.29,1.28,1.25
77.40,1.29,0.06,1.29,0.06,-0.06,-0.02,0.49,1.23,1.23,1.23
78.17,1.29,0.07,1.29,0.07,-0.11,-0.07,0.47,1.18,1.18,1.22
78.95,1.28,0.08,1.32,0.12,-0.16,-0.11,0.45,1.12,1.16,1.20
79.74,1.38,0.19,1.37,0.19,-0.21,-0.15,0.43,1.17,1.17,1.19
80.54,1.46,0.29,1.44,0.27,-0.25,-0.19,0.42,1.21,1.19,1.17
81.35,1.49,0.33,1.48,0.33,-0.28,-0.22,0.40,1.21,1.20,1.16
82.16,1.49,0.34,1.50,0.35,-0.31,-0.25,0.38,1.18,1.18,1.15
82.98,1.49,0.35,1.49,0.35,-0.34,-0.29,0.36,1.15,1.15,1.14
83.81,1.49,0.36,1.49,0.36,-0.36,-0.31,0.34,1.13,1.13,1.13
84.65,1.49,0.36,1.49,0.36,-0.37,-0.34,0.32,1.11,1.11,1.13
85.50,1.49,0.37,1.49,0.37,-0.39,-0.37,0.31,1.10,1.10,1.12
86.35,1.49,0.38,1.48,0.37,-0.40,-0.39,0.29,1.09,1.08,1.11
87.22,1.49,0.39,1.50,0.40,-0.42,-0.41,0.27,1.07,1.08,1.10
88.09,1.50,0.41,1.53,0.43,-0.44,-0.43,0.25,1.06,1.09,1.09
88.97,1.59,0.50,1.56,0.47,-0.46,-0.45,0.24,1.13,1.10,1.09
89.86,1.59,0.51,1.59,0.51,-0.48,-0.46,0.22,1.11,1.10,1.08
90.76,1.59,0.52,1.60,0.52,-0.50,-0.47,0.20,1.09,1.09,1.07
91.66,1.59,0.52,1.59,0.52,-0.52,-0.48,0.18,1.07,1.07,1.07
92.58,1.59,0.52,1.59,0.52,-0.53,-0.49,0.16,1.06,1.06,1.07
93.51,1.59,0.53,1.59,0.53,-0.54,-0.49,0.15,1.05,1.05,1.06
94.44,1.59,0.53,1.59,0.53,-0.54,-0.50,0.13,1.05,1.05,1.06
95.39,1.59,0.53,1.59,0.53,-0.53,-0.50,0.11,1.06,1.06,1.06
96.34,1.59,0.53,1.59,0.53,-0.53,-0.50,0.09,1.06,1.06,1.06
97.30,1.58,0.52,1.58,0.53,-0.52,-0.50,0.08,1.06,1.06,1.06
98.28,1.57,0.52,1.57,0.52,-0.51,-0.49,0.06,1.06,1.06,1.05
99.26,1.56,0.51,1.56,0.51,-0.51,-0.49,0.04,1.05,1.05,1.05
100.25,1.54,0.49,1.54,0.49,-0.50,-0.48,0.03,1.04,1.04,1.05
101.25,1.52,0.47,1.52,0.48,-0.49,-0.47,0.01,1.03,1.03,1.05
102.27,1.51,0.47,1.51,0.47,-0.48,-0.46,-0.01,1.03,1.03,1.04
103.29,1.50,0.47,1.50,0.47,-0.46,-0.44,-0.02,1.03,1.03,1.03
104.32,1.48,0.46,1.48,0.46,-0.44,-0.43,-0.04,1.04,1.04,1.02
105.37,1.46,0.44,1.46,0.45,-0.42,-0.41,-0.05,1.04,1.05,1.02
106.42,1.43,0.42,1.42,0.41,-0.39,-0.39,-0.07,1.04,1.03,1.01
107.48,1.37,0.37,1.36,0.36,-0.36,-0.37,-0.08,1.01,1.00,1.00
108.56,1.28,0.29,1.30,0.31,-0.34,-0.35,-0.09,0.94,0.96,0.99
109.64,1.25,0.27,1.25,0.27,-0.31,-0.33,-0.10,0.94,0.94,0.98
110.74,1.24,0.26,1.23,0.25,-0.28,-0.31,-0.11,0.96,0.95,0.98
111.85,1.22,0.24,1.22,0.25,-0.25,-0.28,-0.12,0.97,0.98,0.98
112.97,1.22,0.24,1.23,0.25,-0.21,-0.26,-0.13,1.01,1.02,0.98
114.10,1.21,0.23,1.21,0.23,-0.18,-0.23,-0.14,1.03,1.03,0.98
115.24,1.20,0.21,1.16,0.17,-0.14,-0.20,-0.14,1.06,1.02,0.99
116.39,1.08,0.09,1.09,0.10,-0.11,-0.17,-0.15,0.97,0.98,0.99
117.55,1.00,-0.01,1.03,0.03,-0.07,-0.14,-0.15,0.93,0.96,1.01
118.73,1.00,-0.02,1.00,-0.02,-0.02,-0.11,-0.15,0.98,0.98,1.02
119.92,1.02,-0.02,1.01,-0.03,0.02,-0.08,-0.15,1.04,1.04,1.04
121.12,1.03,-0.03,1.02,-0.04,0.06,-0.05,-0.15,1.09,1.08,1.06
122.33,1.02,-0.06,1.00,-0.08,0.09,-0.02,-0.15,1.11,1.09,1.08
123.55,0.96,-0.14,0.97,-0.13,0.11,0.02,-0.14,1.07,1.08,1.10
124.79,0.92,-0.20,0.95,-0.17,0.14,0.05,-0.13,1.06,1.09,1.12
126.03,0.96,-0.18,0.96,-0.18,0.18,0.09,-0.12,1.14,1.14,1.14
127.29,0.99,-0.17,0.98,-0.18,0.22,0.12,-0.11,1.21,1.20,1.16
128.57,1.00,-0.18,0.97,-0.21,0.27,0.16,-0.10,1.26,1.23,1.18
129.85,0.90,-0.30,0.92,-0.28,0.31,0.19,-0.08,1.21,1.22,1.20
131.15,0.85,-0.37,0.84,-0.37,0.35,0.23,-0.06,1.20,1.19,1.22
132.46,0.78,-0.45,0.79,-0.44,0.38,0.27,-0.04,1.16,1.18,1.23
133.79,0.77,-0.48,0.78,-0.47,0.42,0.30,-0.02,1.19,1.20,1.25
135.12,0.80,-0.46,0.79,-0.48,0.46,0.34,-0.00,1.26,1.24,1.26
136.48,0.80,-0.48,0.80,-0.48,0.50,0.38,0.02,1.30,1.30,1.28
137.84,0.80,-0.49,0.79,-0.49,0.53,0.42,0.05,1.33,1.33,1.29
139.22,0.77,-0.53,0.76,-0.54,0.57,0.46,0.08,1.34,1.33,1.30
140.61,0.72,-0.59,0.72,-0.59,0.61,0.49,0.11,1.33,1.33,1.31
142.02,0.67,-0.65,0.68,-0.63,0.65,0.53,0.14,1.32,1.33,1.32
143.44,0.63,-0.69,0.63,-0.69,0.69,0.57,0.17,1.32,1.32,1.32
144.87,0.60,-0.72,0.57,-0.75,0.72,0.61,0.20,1.32,1.29,1.32
146.32,0.49,-0.83,0.51,-0.81,0.75,0.65,0.24,1.24,1.26,1.32
147.78,0.46,-0.85,0.49,-0.82,0.78,0.68,0.27,1.24,1.27,1.31
149.26,0.49,-0.81,0.49,-0.80,0.81,0.72,0.31,1.29,1.30,1.30
150.75,0.54,-0.74,0.51,-0.76,0.82,0.76,0.35,1.36,1.34,1.28
152.26,0.51,-0.74,0.49,-0.76,0.82,0.80,0.39,1.33,1.31,1.25
153.78,0.42,-0.80,0.41,-0.81,0.81,0.84,0.43,1.23,1.22,1.22
155.32,0.31,-0.87,0.32,-0.86,0.80,0.87,0.47,1.11,1.12,1.18
156.88,0.24,-0.91,0.27,-0.87,0.80,0.91,0.51,1.04,1.07,1.15
158.44,0.28,-0.83,0.29,-0.83,0.80,0.95,0.55,1.08,1.08,1.11
160.03,0.33,-0.75,0.32,-0.76,0.80,0.99,0.59,1.13,1.12,1.08
161.63,0.35,-0.71,0.32,-0.73,0.81,1.02,0.64,1.16,1.13,1.06
163.24,0.26,-0.77,0.25,-0.78,0.82,1.06,0.68,1.07,1.07,1.03
164.88,0.16,-0.86,0.16,-0.86,0.83,1.10,0.73,0.99,1.00,1.02
166.53,0.06,-0.95,0.11,-0.90,0.87,1.13,0.78,0.93,0.98,1.01
168.19,0.09,-0.92,0.10,-0.91,0.92,1.17,0.82,1.01,1.02,1.01
169.87,0.14,-0.88,0.07,-0.95,0.99,1.20,0.87,1.13,1.06,1.02
171.57,0.02,-1.01,0.00,-1.03,1.06,1.24,0.92,1.07,1.06,1.03
173.29,-0.13,-1.18,-0.09,-1.14,1.12,1.27,0.97,0.99,1.03,1.05
175.02,-0.19,-1.27,-0.16,-1.24,1.17,1.31,1.02,0.98,1.01,1.08
176.77,-0.15,-1.26,-0.17,-1.28,1.23,1.34,1.07,1.08,1.06,1.11
178.54,-0.14,-1.28,-0.15,-1.29,1.30,1.37,1.12,1.16,1.15,1.14
180.32,-0.14,-1.32,-0.14,-1.32,1.36,1.41,1.17,1.22,1.22,1.18
182.13,-0.15,-1.36,-0.16,-1.37,1.41,1.44,1.23,1.26,1.26,1.21
183.95,-0.19,-1.44,-0.19,-1.44,1.45,1.47,1.28,1.26,1.26,1.25
185.79,-0.23,-1.50,-0.24,-1.51,1.48,1.51,1.34,1.25,1.24,1.27
187.65,-0.29,-1.58,-0.27,-1.56,1.51,1.54,1.39,1.22,1.24,1.29
189.52,-0.28,-1.59,-0.29,-1.59,1.54,1.57,1.45,1.26,1.26,1.31
191.42,-0.27,-1.59,-0.27,-1.60,1.59,1.60,1.51,1.31,1.31,1.32
193.33,-0.26,-1.60,-0.23,-1.57,1.62,1.63,1.56,1.36,1.39,1.34
195.27,-0.21,-1.56,-0.23,-1.58,1.64,1.66,1.62,1.43,1.41,1.35
197.22,-0.22,-1.57,-0.28,-1.63,1.66,1.69,1.68,1.44,1.38,1.35
199.19,-0.38,-1.74,-0.35,-1.71,1.68,1.72,1.74,1.30,1.33,1.36
201.18,-0.47,-1.83,-0.42,-1.78,1.71,1.75,1.80,1.24,1.29,1.36
203.19,-0.43,-1.79,-0.43,-1.79,1.75,1.78,1.85,1.32,1.32,1.36
205.23,-0.39,-1.75,-0.39,-1.75,1.79,1.81,1.91,1.40,1.40,1.36
207.28,-0.35,-1.71,-0.41,-1.76,1.83,1.83,1.97,1.48,1.42,1.36
209.35,-0.46,-1.82,-0.48,-1.84,1.86,1.86,2.03,1.40,1.37,1.36
211.44,-0.63,-1.98,-0.58,-1.93,1.88,1.89,2.09,1.25,1.31,1.35
213.56,-0.65,-2.00,-0.63,-1.97,1.91,1.91,2.14,1.26,1.29,1.35
215.69,-0.62,-1.96,-0.63,-1.97,1.95,1.94,2.20,1.33,1.32,1.34
217.85,-0.57,-1.91,-0.61,-1.94,1.99,1.97,2.25,1.42,1.39,1.34
220.03,-0.64,-1.97,-0.64,-1.97,2.04,1.99,2.31,1.39,1.39,1.33
222.23,-0.71,-2.04,-0.73,-2.06,2.07,2.01,2.36,1.36,1.34,1.33
224.45,-0.83,-2.16,-0.81,-2.13,2.09,2.04,2.41,1.26,1.28,1.33
226.70,-0.88,-2.21,-0.84,-2.17,2.12,2.06,2.45,1.24,1.28,1.33
228.96,-0.82,-2.15,-0.84,-2.17,2.15,2.09,2.50,1.33,1.31,1.33
231.25,-0.82,-2.16,-0.85,-2.18,2.19,2.11,2.54,1.37,1.35,1.34
233.57,-0.85,-2.19,-0.86,-2.20,2.24,2.13,2.58,1.39,1.38,1.34
235.90,-0.93,-2.28,-0.88,-2.23,2.28,2.15,2.62,1.35,1.40,1.35
238.26,-0.89,-2.25,-0.92,-2.28,2.31,2.17,2.65,1.42,1.39,1.36
240.64,-0.94,-2.32,-0.97,-2.35,2.34,2.19,2.68,1.40,1.37,1.38
243.05,-1.03,-2.42,-1.02,-2.40,2.37,2.21,2.71,1.33,1.35,1.39
245.48,-1.09,-2.49,-1.05,-2.45,2.39,2.23,2.73,1.29,1.33,1.40
247.93,-1.03,-2.44,-1.04,-2.45,2.40,2.25,2.75,1.37,1.35,1.41
250.41,-0.99,-2.41,-1.00,-2.42,2.41,2.27,2.76,1.42,1.41,1.42
252.92,-0.97,-2.40,-0.96,-2.39,2.42,2.29,2.77,1.45,1.46,1.43
255.45,-0.95,-2.38,-0.96,-2.39,2.44,2.31,2.78,1.49,1.48,1.43
258.00,-0.97,-2.40,-0.98,-2.41,2.47,2.33,2.78,1.50,1.49,1.43
260.58,-1.03,-2.46,-1.01,-2.44,2.50,2.34,2.78,1.47,1.49,1.43
263.19,-1.09,-2.52,-1.09,-2.52,2.54,2.36,2.78,1.45,1.45,1.43
265.82,-1.14,-2.57,-1.19,-2.62,2.58,2.37,2.77,1.44,1.39,1.43
268.48,-1.31,-2.74,-1.26,-2.69,2.61,2.39,2.77,1.30,1.36,1.43
271.16,-1.32,-2.75,-1.29,-2.72,2.65,2.41,2.75,1.33,1.36,1.43
273.87,-1.25,-2.68,-1.30,-2.72,2.68,2.42,2.74,1.43,1.39,1.43
276.61,-1.25,-2.68,-1.25,-2.68,2.71,2.43,2.72,1.46,1.47,1.43
279.38,-1.25,-2.68,-1.21,-2.64,2.73,2.45,2.70,1.48,1.53,1.43
282.17,-1.18,-2.62,-1.23,-2.67,2.74,2.46,2.68,1.56,1.51,1.44
284.99,-1.23,-2.68,-1.29,-2.74,2.74,2.47,2.66,1.51,1.44,1.45
287.84,-1.41,-2.86,-1.34,-2.79,2.74,2.49,2.64,1.33,1.40,1.45
290.72,-1.41,-2.87,-1.35,-2.81,2.74,2.50,2.61,1.33,1.39,1.46
293.63,-1.23,-2.70,-1.30,-2.77,2.73,2.51,2.59,1.50,1.44,1.47
296.57,-1.20,-2.68,-1.22,-2.70,2.72,2.52,2.56,1.52,1.50,1.48
299.53,-1.20,-2.68,-1.19,-2.67,2.70,2.53,2.54,1.50,1.51,1.48
302.53,-1.20,-2.69,-1.19,-2.67,2.66,2.54,2.51,1.46,1.47,1.49
305.55,-1.16,-2.65,-1.15,-2.64,2.62,2.55,2.49,1.46,1.47,1.49
308.61,-1.10,-2.59,-1.11,-2.59,2.59,2.56,2.46,1.49,1.49,1.49
311.69,-1.05,-2.54,-1.06,-2.54,2.57,2.56,2.44,1.52,1.51,1.49
314.81,-1.04,-2.52,-1.04,-2.52,2.56,2.57,2.42,1.52,1.52,1.48
317.96,-1.04,-2.52,-1.05,-2.53,2.55,2.58,2.40,1.51,1.50,1.48
321.14,-1.09,-2.56,-1.09,-2.56,2.55,2.59,2.38,1.46,1.46,1.47
324.35,-1.14,-2.61,-1.13,-2.59,2.55,2.59,2.36,1.41,1.43,1.47
327.59,-1.15,-2.61,-1.15,-2.61,2.58,2.60,2.34,1.42,1.43,1.46
330.87,-1.15,-2.60,-1.15,-2.59,2.61,2.60,2.32,1.46,1.46,1.45
334.18,-1.15,-2.59,-1.16,-2.60,2.65,2.61,2.31,1.50,1.49,1.44
337.52,-1.18,-2.61,-1.21,-2.64,2.69,2.61,2.29,1.51,1.48,1.43
340.90,-1.30,-2.73,-1.29,-2.71,2.72,2.62,2.28,1.42,1.44,1.43
344.30,-1.37,-2.79,-1.37,-2.78,2.76,2.62,2.27,1.39,1.39,1.42
347.75,-1.44,-2.84,-1.43,-2.83,2.79,2.63,2.26,1.35,1.36,1.40
351.23,-1.45,-2.84,-1.45,-2.84,2.81,2.63,2.26,1.36,1.36,1.39
354.74,-1.45,-2.83,-1.46,-2.84,2.82,2.63,2.25,1.37,1.37,1.38
358.28,-1.45,-2.82,-1.45,-2.82,2.82,2.63,2.25,1.37,1.37,1.37
361.87,-1.44,-2.80,-1.45,-2.81,2.80,2.63,2.25,1.36,1.35,1.36
365.49,-1.44,-2.78,-1.44,-2.78,2.77,2.64,2.25,1.33,1.34,1.34
369.14,-1.43,-2.76,-1.40,-2.73,2.74,2.64,2.25,1.31,1.33,1.33
372.83,-1.35,-2.67,-1.37,-2.68,2.69,2.64,2.25,1.34,1.33,1.32
376.56,-1.31,-2.62,-1.33,-2.64,2.65,2.64,2.26,1.34,1.32,1.31
380.33,-1.31,-2.61,-1.31,-2.61,2.61,2.63,2.26,1.30,1.30,1.30
384.13,-1.30,-2.59,-1.29,-2.58,2.56,2.63,2.27,1.26,1.27,1.29
387.97,-1.28,-2.56,-1.26,-2.54,2.53,2.63,2.28,1.25,1.26,1.28
391.85,-1.21,-2.48,-1.23,-2.50,2.50,2.63,2.30,1.29,1.27,1.27
395.77,-1.19,-2.45,-1.19,-2.45,2.48,2.63,2.31,1.29,1.29,1.26
399.73,-1.19,-2.44,-1.19,-2.44,2.47,2.63,2.32,1.28,1.28,1.25
403.72,-1.20,-2.44,-1.23,-2.46,2.47,2.62,2.34,1.27,1.24,1.24
407.76,-1.28,-2.50,-1.25,-2.47,2.48,2.62,2.35,1.20,1.22,1.22
411.84,-1.30,-2.51,-1.28,-2.49,2.49,2.61,2.37,1.19,1.21,1.21
415.96,-1.28,-2.48,-1.32,-2.52,2.51,2.61,2.39,1.23,1.19,1.20
420.12,-1.34,-2.54,-1.34,-2.53,2.53,2.61,2.41,1.19,1.19,1.20
424.32,-1.38,-2.57,-1.37,-2.56,2.55,2.60,2.42,1.17,1.18,1.19
428.56,-1.38,-2.57,-1.38,-2.57,2.55,2.59,2.44,1.17,1.17,1.19
432.85,-1.37,-2.57,-1.37,-2.57,2.55,2.59,2.46,1.18,1.18,1.20
437.18,-1.34,-2.55,-1.34,-2.55,2.54,2.58,2.48,1.20,1.20,1.21
441.55,-1.31,-2.54,-1.31,-2.53,2.53,2.58,2.50,1.22,1.22,1.23
445.96,-1.26,-2.51,-1.26,-2.51,2.52,2.57,2.51,1.26,1.26,1.25
450.42,-1.21,-2.49,-1.20,-2.49,2.51,2.56,2.53,1.30,1.30,1.28
454.93,-1.15,-2.47,-1.15,-2.47,2.49,2.55,2.55,1.34,1.34,1.32
459.48,-1.09,-2.45,-1.12,-2.47,2.48,2.54,2.56,1.39,1.37,1.36
464.07,-1.10,-2.49,-1.09,-2.48,2.48,2.54,2.57,1.38,1.39,1.39
468.71,-1.07,-2.50,-1.06,-2.49,2.47,2.53,2.58,1.40,1.41,1.43
473.40,-1.01,-2.48,-1.02,-2.49,2.46,2.52,2.59,1.45,1.45,1.47
478.13,-0.96,-2.47,-0.96,-2.47,2.46,2.51,2.60,1.50,1.50,1.51
482.91,-0.91,-2.45,-0.91,-2.45,2.45,2.50,2.60,1.54,1.54,1.54
487.74,-0.87,-2.44,-0.87,-2.44,2.45,2.49,2.60,1.58,1.57,1.57
492.62,-0.84,-2.43,-0.83,-2.43,2.44,2.48,2.60,1.60,1.61,1.59
497.55,-0.81,-2.42,-0.81,-2.41,2.43,2.47,2.60,1.62,1.63,1.61
502.52,-0.78,-2.40,-0.80,-2.42,2.43,2.46,2.60,1.65,1.63,1.62
507.55,-0.80,-2.42,-0.81,-2.42,2.42,2.44,2.59,1.62,1.62,1.62
512.62,-0.84,-2.45,-0.82,-2.43,2.42,2.43,2.58,1.58,1.59,1.61
517.75,-0.84,-2.43,-0.84,-2.43,2.41,2.42,2.56,1.57,1.57,1.59
