frequency,raw,error,smoothed,error_smoothed,equalization,parametric_eq,fixed_band_eq,equalized_raw,equalized_smoothed,target
20.00,-31.61,-26.38,-31.60,-26.36,6.00,5.84,2.69,-25.61,-25.60,-5.24
20.20,-31.57,-26.37,-31.58,-26.39,6.00,5.85,2.77,-25.57,-25.58,-5.20
20.40,-31.54,-26.38,-31.56,-26.39,6.00,5.86,2.85,-25.54,-25.56,-5.16
20.61,-31.50,-26.36,-31.51,-26.38,6.00,5.88,2.93,-25.50,-25.51,-5.14
20.81,-31.46,-26.36,-31.47,-26.37,6.00,5.89,3.01,-25.46,-25.47,-5.10
21.02,-31.42,-26.36,-31.39,-26.32,6.00,5.90,3.09,-25.42,-25.39,-5.06
21.23,-31.27,-26.22,-31.28,-26.23,6.00,5.91,3.18,-25.27,-25.28,-5.05
21.44,-31.12,-26.09,-31.13,-26.10,6.00,5.92,3.27,-25.12,-25.13,-5.03
21.66,-30.98,-25.96,-30.97,-25.94,6.00,5.93,3.37,-24.98,-24.97,-5.02
21.87,-30.82,-25.80,-30.83,-25.81,6.00,5.94,3.46,-24.82,-24.83,-5.02
22.09,-30.70,-25.69,-30.72,-25.71,6.00,5.95,3.56,-24.70,-24.72,-5.01
22.31,-30.64,-25.63,-30.64,-25.63,6.00,5.96,3.66,-24.64,-24.64,-5.01
22.54,-30.58,-25.57,-30.59,-25.57,6.00,5.96,3.76,-24.58,-24.59,-5.01
22.76,-30.52,-25.50,-30.53,-25.51,6.00,5.97,3.87,-24.52,-24.53,-5.02
22.99,-30.46,-25.43,-30.44,-25.41,6.00,5.97,3.98,-24.46,-24.44,-5.03
23.22,-30.32,-25.29,-30.33,-25.29,6.00,5.98,4.09,-24.32,-24.33,-5.03
23.45,-30.18,-25.14,-30.19,-25.15,6.00,5.98,4.20,-24.18,-24.19,-5.04
23.69,-30.04,-24.99,-30.03,-24.99,6.00,5.99,4.32,-24.04,-24.03,-5.04
23.92,-29.89,-24.85,-29.89,-24.86,6.00,5.99,4.44,-23.89,-23.89,-5.04
24.16,-29.76,-24.73,-29.77,-24.73,6.00,6.00,4.56,-23.76,-23.77,-5.03
24.40,-29.65,-24.62,-29.65,-24.61,6.00,6.00,4.68,-23.65,-23.65,-5.03
24.65,-29.54,-24.50,-29.54,-24.50,6.00,6.00,4.80,-23.54,-23.54,-5.04
24.89,-29.43,-24.39,-29.43,-24.39,6.00,6.00,4.93,-23.43,-23.43,-5.04
25.14,-29.33,-24.29,-29.33,-24.29,6.00,6.00,5.06,-23.33,-23.33,-5.05
25.39,-29.24,-24.20,-29.23,-24.18,6.00,6.01,5.19,-23.24,-23.23,-5.05
25.65,-29.15,-24.10,-29.15,-24.09,6.00,6.01,5.32,-23.15,-23.15,-5.06
25.91,-29.06,-24.00,-29.08,-24.02,6.00,6.01,5.45,-23.06,-23.08,-5.07
26.16,-29.04,-23.98,-29.05,-23.98,6.00,6.01,5.58,-23.04,-23.05,-5.07
26.43,-29.05,-23.98,-29.06,-23.99,6.00,6.01,5.70,-23.05,-23.06,-5.07
26.69,-29.06,-23.99,-29.07,-24.00,6.00,6.01,5.83,-23.06,-23.07,-5.07
26.96,-29.08,-24.00,-29.03,-23.96,6.00,6.01,5.96,-23.08,-23.03,-5.08
27.23,-28.93,-23.85,-28.92,-23.84,6.00,6.01,6.09,-22.93,-22.92,-5.08
27.50,-28.73,-23.65,-28.74,-23.66,6.00,6.01,6.21,-22.73,-22.74,-5.08
27.77,-28.54,-23.45,-28.55,-23.46,6.00,6.01,6.33,-22.54,-22.55,-5.09
28.05,-28.37,-23.28,-28.40,-23.31,6.00,6.00,6.44,-22.37,-22.40,-5.09
28.33,-28.31,-23.21,-28.31,-23.21,6.00,6.00,6.55,-22.31,-22.31,-5.10
28.62,-28.25,-23.15,-28.25,-23.14,6.00,6.00,6.66,-22.25,-22.25,-5.10
28.90,-28.19,-23.09,-28.18,-23.08,6.00,6.00,6.75,-22.19,-22.18,-5.10
29.19,-28.09,-22.99,-28.09,-22.99,6.00,6.00,6.85,-22.09,-22.09,-5.11
29.48,-27.98,-22.89,-27.99,-22.89,6.00,6.00,6.93,-21.98,-21.99,-5.10
29.78,-27.86,-22.76,-27.87,-22.76,6.00,5.99,7.01,-21.86,-21.87,-5.11
30.08,-27.75,-22.65,-27.74,-22.63,6.00,5.99,7.07,-21.75,-21.74,-5.10
30.38,-27.61,-22.49,-27.61,-22.50,6.00,5.99,7.13,-21.61,-21.61,-5.12
30.68,-27.47,-22.35,-27.48,-22.35,6.00,5.99,7.18,-21.47,-21.48,-5.12
30.99,-27.34,-22.21,-27.33,-22.20,6.00,5.98,7.22,-21.34,-21.33,-5.13
31.30,-27.18,-22.04,-27.17,-22.04,6.00,5.98,7.25,-21.18,-21.17,-5.13
31.61,-27.01,-21.88,-27.01,-21.87,6.00,5.98,7.27,-21.01,-21.01,-5.13
31.93,-26.86,-21.70,-26.88,-21.73,6.00,5.98,7.28,-20.86,-20.88,-5.16
32.24,-26.78,-21.62,-26.79,-21.63,6.00,5.97,7.28,-20.78,-20.79,-5.17
32.57,-26.74,-21.57,-26.73,-21.56,6.00,5.97,7.27,-20.74,-20.73,-5.17
32.89,-26.70,-21.52,-26.70,-21.52,6.00,5.97,7.25,-20.70,-20.70,-5.18
33.22,-26.66,-21.46,-26.67,-21.47,6.00,5.97,7.23,-20.66,-20.67,-5.20
33.55,-26.62,-21.42,-26.63,-21.42,6.00,5.96,7.20,-20.62,-20.63,-5.20
33.89,-26.58,-21.36,-26.57,-21.35,6.00,5.96,7.16,-20.58,-20.57,-5.22
34.23,-26.49,-21.27,-26.49,-21.26,6.00,5.96,7.11,-20.49,-20.49,-5.23
34.57,-26.38,-21.13,-26.39,-21.15,6.00,5.96,7.06,-20.38,-20.39,-5.25
34.92,-26.27,-21.01,-26.27,-21.01,6.00,5.96,7.01,-20.27,-20.27,-5.26
35.27,-26.13,-20.87,-26.13,-20.86,6.00,5.95,6.95,-20.13,-20.13,-5.26
35.62,-25.98,-20.70,-25.99,-20.71,6.00,5.95,6.89,-19.98,-19.99,-5.28
35.97,-25.83,-20.54,-25.83,-20.54,6.00,5.95,6.83,-19.83,-19.83,-5.30
36.33,-25.69,-20.39,-25.69,-20.38,6.00,5.95,6.76,-19.69,-19.69,-5.30
36.70,-25.55,-20.24,-25.55,-20.24,6.00,5.95,6.70,-19.55,-19.55,-5.31
37.06,-25.43,-20.11,-25.45,-20.13,6.00,5.95,6.63,-19.43,-19.45,-5.32
37.43,-25.36,-20.05,-25.36,-20.04,6.00,5.95,6.57,-19.36,-19.36,-5.32
37.81,-25.29,-19.97,-25.28,-19.95,6.00,5.95,6.50,-19.29,-19.28,-5.33
38.19,-25.19,-19.85,-25.19,-19.85,6.00,5.95,6.44,-19.19,-19.19,-5.34
38.57,-25.06,-19.73,-25.07,-19.73,6.00,5.95,6.38,-19.06,-19.07,-5.33
38.95,-24.93,-19.59,-24.93,-19.59,6.00,5.95,6.32,-18.93,-18.93,-5.35
39.34,-24.80,-19.45,-24.80,-19.45,6.00,5.95,6.27,-18.80,-18.80,-5.35
39.74,-24.67,-19.31,-24.67,-19.31,6.00,5.95,6.21,-18.67,-18.67,-5.36
40.14,-24.55,-19.19,-24.57,-19.20,6.00,5.95,6.16,-18.55,-18.57,-5.37
40.54,-24.48,-19.11,-24.48,-19.11,6.00,5.95,6.12,-18.48,-18.48,-5.37
40.94,-24.40,-19.03,-24.40,-19.02,6.00,5.95,6.08,-18.40,-18.40,-5.37
41.35,-24.31,-18.93,-24.31,-18.93,6.00,5.95,6.04,-18.31,-18.31,-5.39
41.76,-24.21,-18.81,-24.21,-18.81,6.00,5.96,6.00,-18.21,-18.21,-5.40
42.18,-24.10,-18.70,-24.10,-18.69,6.00,5.96,5.97,-18.10,-18.10,-5.40
42.60,-23.98,-18.56,-23.98,-18.57,6.00,5.96,5.95,-17.98,-17.98,-5.42
43.03,-23.86,-18.44,-23.87,-18.44,6.00,5.96,5.93,-17.86,-17.87,-5.42
43.46,-23.75,-18.31,-23.75,-18.31,6.00,5.97,5.91,-17.75,-17.75,-5.45
43.90,-23.65,-18.18,-23.66,-18.19,6.00,5.97,5.90,-17.65,-17.66,-5.47
44.33,-23.56,-18.08,-23.57,-18.08,6.00,5.97,5.89,-17.56,-17.57,-5.49
44.78,-23.48,-17.97,-23.48,-17.97,6.00,5.98,5.89,-17.48,-17.48,-5.51
45.23,-23.38,-17.86,-23.38,-17.86,6.00,5.98,5.89,-17.38,-17.38,-5.53
45.68,-23.27,-17.73,-23.27,-17.73,6.00,5.98,5.89,-17.27,-17.27,-5.54
46.13,-23.15,-17.60,-23.15,-17.60,6.00,5.99,5.90,-17.15,-17.15,-5.56
46.60,-23.01,-17.45,-23.02,-17.45,6.00,5.99,5.92,-17.01,-17.02,-5.56
47.06,-22.87,-17.30,-22.87,-17.30,6.00,5.99,5.94,-16.87,-16.87,-5.57
47.53,-22.72,-17.15,-22.72,-17.15,6.00,6.00,5.96,-16.72,-16.72,-5.57
48.01,-22.57,-16.99,-22.58,-16.99,6.00,6.00,5.98,-16.57,-16.58,-5.58
48.49,-22.45,-16.86,-22.45,-16.86,6.00,6.00,6.01,-16.45,-16.45,-5.60
48.97,-22.34,-16.73,-22.36,-16.75,6.00,6.01,6.05,-16.34,-16.36,-5.61
49.46,-22.28,-16.66,-22.28,-16.66,6.00,6.01,6.09,-16.28,-16.28,-5.62
49.96,-22.23,-16.60,-22.23,-16.60,6.00,6.02,6.13,-16.23,-16.23,-5.64
50.46,-22.14,-16.52,-22.15,-16.52,6.00,6.02,6.17,-16.14,-16.15,-5.63
50.96,-22.05,-16.42,-21.99,-16.35,6.00,6.02,6.22,-16.05,-15.99,-5.63
51.47,-21.78,-16.14,-21.78,-16.14,6.00,6.03,6.26,-15.78,-15.78,-5.64
51.99,-21.50,-15.85,-21.57,-15.92,6.00,6.03,6.31,-15.50,-15.57,-5.65
52.51,-21.36,-15.71,-21.36,-15.71,6.00,6.03,6.37,-15.36,-15.36,-5.65
53.03,-21.24,-15.59,-21.17,-15.52,6.00,6.03,6.42,-15.24,-15.17,-5.65
53.56,-20.99,-15.34,-21.00,-15.35,6.00,6.04,6.47,-14.99,-15.00,-5.66
54.10,-20.79,-15.13,-20.86,-15.19,6.00,6.04,6.52,-14.79,-14.86,-5.67
54.64,-20.78,-15.12,-20.77,-15.10,6.00,6.04,6.57,-14.78,-14.77,-5.67
55.18,-20.77,-15.10,-20.76,-15.08,6.00,6.04,6.62,-14.77,-14.76,-5.68
55.74,-20.77,-15.08,-20.77,-15.09,6.00,6.04,6.67,-14.77,-14.77,-5.69
56.29,-20.75,-15.06,-20.75,-15.05,6.00,6.04,6.72,-14.75,-14.75,-5.69
56.86,-20.70,-14.99,-20.69,-14.98,6.00,6.04,6.76,-14.70,-14.69,-5.71
57.42,-20.60,-14.88,-20.60,-14.88,6.00,6.04,6.80,-14.60,-14.60,-5.72
58.00,-20.48,-14.75,-20.50,-14.76,6.00,6.04,6.83,-14.48,-14.50,-5.74
58.58,-20.38,-14.63,-20.38,-14.63,6.00,6.04,6.86,-14.38,-14.38,-5.75
59.16,-20.27,-14.51,-20.26,-14.49,6.00,6.04,6.89,-14.27,-14.26,-5.76
59.76,-20.13,-14.35,-20.15,-14.36,6.00,6.04,6.90,-14.13,-14.15,-5.79
60.35,-20.03,-14.22,-20.05,-14.24,6.00,6.04,6.91,-14.03,-14.05,-5.81
60.96,-19.96,-14.13,-19.96,-14.12,6.00,6.04,6.92,-13.96,-13.96,-5.83
61.57,-19.87,-13.99,-19.86,-13.99,6.00,6.04,6.92,-13.87,-13.86,-5.88
62.18,-19.75,-13.84,-19.73,-13.82,6.00,6.04,6.90,-13.75,-13.73,-5.91
62.80,-19.56,-13.61,-19.57,-13.62,6.00,6.03,6.89,-13.56,-13.57,-5.95
63.43,-19.40,-13.42,-19.41,-13.42,6.00,6.03,6.86,-13.40,-13.41,-5.99
64.07,-19.26,-13.24,-19.27,-13.25,6.00,6.03,6.83,-13.26,-13.27,-6.02
64.71,-19.16,-13.10,-19.16,-13.10,6.00,6.02,6.79,-13.16,-13.16,-6.06
65.35,-19.05,-12.96,-19.05,-12.95,6.00,6.02,6.74,-13.05,-13.05,-6.09
66.01,-18.92,-12.80,-18.93,-12.81,6.00,6.02,6.68,-12.92,-12.93,-6.13
66.67,-18.81,-12.65,-18.81,-12.65,6.00,6.01,6.62,-12.81,-12.81,-6.17
67.33,-18.68,-12.49,-18.67,-12.47,6.00,6.01,6.56,-12.68,-12.67,-6.20
68.01,-18.53,-12.30,-18.54,-12.30,6.00,6.01,6.48,-12.53,-12.54,-6.24
68.69,-18.39,-12.12,-18.40,-12.12,6.00,6.00,6.41,-12.39,-12.40,-6.28
69.37,-18.27,-11.95,-18.27,-11.96,6.00,6.00,6.33,-12.27,-12.27,-6.32
70.07,-18.17,-11.81,-18.16,-11.81,6.00,5.99,6.24,-12.17,-12.16,-6.36
70.77,-18.05,-11.66,-18.07,-11.67,6.00,5.99,6.16,-12.05,-12.07,-6.39
71.48,-17.97,-11.54,-17.98,-11.55,6.00,5.98,6.07,-11.97,-11.98,-6.44
72.19,-17.89,-11.41,-17.87,-11.39,6.00,5.98,5.98,-11.89,-11.87,-6.48
72.91,-17.76,-11.23,-17.73,-11.20,6.00,5.98,5.88,-11.76,-11.73,-6.53
73.64,-17.55,-10.97,-17.58,-11.00,6.00,5.97,5.79,-11.55,-11.58,-6.58
74.38,-17.40,-10.78,-17.43,-10.80,6.00,5.97,5.70,-11.40,-11.43,-6.62
75.12,-17.32,-10.65,-17.31,-10.65,6.00,5.97,5.61,-11.32,-11.31,-6.67
75.87,-17.23,-10.53,-17.24,-10.53,6.00,5.97,5.51,-11.23,-11.24,-6.71
76.63,-17.15,-10.41,-17.15,-10.40,6.00,5.96,5.42,-11.15,-11.15,-6.74
77.40,-17.03,-10.25,-17.02,-10.24,6.00,5.96,5.34,-11.03,-11.02,-6.78
78.17,-16.87,-10.05,-16.86,-10.04,6.00,5.96,5.25,-10.87,-10.86,-6.82
78.95,-16.67,-9.82,-16.69,-9.84,6.00,5.97,5.16,-10.67,-10.69,-6.85
79.74,-16.52,-9.64,-16.54,-9.66,6.00,5.97,5.08,-10.52,-10.54,-6.88
80.54,-16.41,-9.50,-16.41,-9.50,6.00,5.97,5.00,-10.41,-10.41,-6.91
81.35,-16.30,-9.36,-16.28,-9.34,6.00,5.98,4.93,-10.30,-10.28,-6.94
82.16,-16.16,-9.19,-16.16,-9.19,6.00,5.98,4.85,-10.16,-10.16,-6.97
82.98,-16.02,-9.03,-16.07,-9.07,6.00,5.99,4.78,-10.02,-10.07,-6.99
83.81,-15.99,-8.96,-15.99,-8.96,6.00,6.00,4.71,-9.99,-9.99,-7.03
84.65,-15.95,-8.89,-15.90,-8.84,6.00,6.01,4.65,-9.95,-9.90,-7.07
85.50,-15.79,-8.70,-15.78,-8.69,6.00,6.02,4.59,-9.79,-9.78,-7.09
86.35,-15.59,-8.47,-15.64,-8.51,6.00,6.03,4.53,-9.59,-9.64,-7.12
87.22,-15.48,-8.32,-15.48,-8.33,6.00,6.04,4.48,-9.48,-9.48,-7.16
88.09,-15.38,-8.19,-15.36,-8.17,6.00,6.05,4.43,-9.38,-9.36,-7.19
88.97,-15.24,-8.02,-15.26,-8.03,6.00,6.06,4.38,-9.24,-9.26,-7.22
89.86,-15.13,-7.88,-15.14,-7.88,6.00,6.08,4.34,-9.13,-9.14,-7.26
90.76,-15.02,-7.73,-15.01,-7.72,6.00,6.09,4.30,-9.02,-9.01,-7.29
91.66,-14.88,-7.56,-14.88,-7.55,6.00,6.10,4.26,-8.88,-8.88,-7.32
92.58,-14.72,-7.37,-14.73,-7.38,6.00,6.10,4.23,-8.72,-8.73,-7.35
93.51,-14.59,-7.21,-14.60,-7.22,6.00,6.10,4.20,-8.59,-8.60,-7.38
94.44,-14.48,-7.07,-14.48,-7.07,6.00,6.10,4.17,-8.48,-8.48,-7.41
95.39,-14.37,-6.94,-14.36,-6.92,6.01,6.09,4.15,-8.37,-8.35,-7.44
96.34,-14.24,-6.77,-14.26,-6.78,6.02,6.08,4.13,-8.23,-8.24,-7.48
97.30,-14.15,-6.65,-14.17,-6.67,6.02,6.06,4.11,-8.13,-8.15,-7.50
98.28,-14.10,-6.57,-14.10,-6.57,6.02,6.02,4.09,-8.08,-8.07,-7.53
99.26,-14.02,-6.47,-13.99,-6.43,6.01,5.98,4.08,-8.01,-7.98,-7.55
100.25,-13.86,-6.28,-13.86,-6.28,5.98,5.93,4.06,-7.88,-7.87,-7.58
101.25,-13.66,-6.05,-13.71,-6.10,5.94,5.86,4.05,-7.73,-7.77,-7.61
102.27,-13.58,-5.94,-13.57,-5.93,5.87,5.78,4.05,-7.72,-7.70,-7.64
103.29,-13.47,-5.78,-13.46,-5.79,5.78,5.70,4.04,-7.70,-7.69,-7.69
104.32,-13.36,-5.65,-13.38,-5.67,5.66,5.60,4.03,-7.70,-7.71,-7.71
105.37,-13.28,-5.54,-13.27,-5.53,5.54,5.49,4.02,-7.75,-7.74,-7.75
106.42,-13.17,-5.40,-13.16,-5.38,5.40,5.37,4.02,-7.78,-7.76,-7.78
107.48,-13.03,-5.22,-13.04,-5.22,5.25,5.25,4.01,-7.78,-7.79,-7.82
108.56,-12.91,-5.06,-12.93,-5.08,5.10,5.11,4.00,-7.81,-7.83,-7.86
109.64,-12.84,-4.95,-12.83,-4.94,4.96,4.98,3.99,-7.88,-7.88,-7.89
110.74,-12.75,-4.83,-12.74,-4.81,4.81,4.83,3.98,-7.94,-7.92,-7.92
111.85,-12.63,-4.68,-12.64,-4.68,4.67,4.69,3.97,-7.97,-7.98,-7.95
112.97,-12.51,-4.51,-12.54,-4.55,4.52,4.54,3.96,-8.00,-8.02,-8.00
114.10,-12.44,-4.42,-12.42,-4.39,4.37,4.39,3.94,-8.07,-8.05,-8.02
115.24,-12.30,-4.25,-12.28,-4.22,4.23,4.23,3.92,-8.07,-8.05,-8.06
116.39,-12.12,-4.04,-12.14,-4.05,4.08,4.08,3.89,-8.04,-8.06,-8.09
117.55,-11.97,-3.86,-12.01,-3.90,3.93,3.93,3.86,-8.04,-8.08,-8.11
118.73,-11.92,-3.78,-11.90,-3.77,3.78,3.77,3.83,-8.14,-8.13,-8.14
119.92,-11.83,-3.68,-11.80,-3.64,3.62,3.62,3.79,-8.21,-8.17,-8.15
121.12,-11.65,-3.48,-11.68,-3.50,3.47,3.47,3.74,-8.18,-8.21,-8.18
122.33,-11.51,-3.32,-11.53,-3.34,3.32,3.31,3.69,-8.20,-8.21,-8.19
123.55,-11.38,-3.19,-11.36,-3.16,3.16,3.16,3.64,-8.22,-8.20,-8.20
124.79,-11.22,-3.00,-11.22,-3.00,3.01,3.01,3.57,-8.21,-8.21,-8.22
126.03,-11.05,-2.82,-11.08,-2.84,2.86,2.86,3.51,-8.19,-8.22,-8.24
127.29,-10.95,-2.70,-10.94,-2.69,2.70,2.71,3.43,-8.25,-8.24,-8.25
128.57,-10.83,-2.56,-10.82,-2.54,2.55,2.55,3.35,-8.28,-8.26,-8.28
129.85,-10.68,-2.39,-10.70,-2.41,2.41,2.40,3.26,-8.28,-8.29,-8.29
131.15,-10.56,-2.26,-10.57,-2.27,2.26,2.25,3.17,-8.30,-8.31,-8.30
132.46,-10.45,-2.14,-10.45,-2.13,2.12,2.10,3.07,-8.33,-8.33,-8.32
133.79,-10.33,-2.02,-10.31,-1.99,1.97,1.95,2.96,-8.36,-8.34,-8.32
135.12,-10.16,-1.81,-10.17,-1.84,1.83,1.80,2.85,-8.33,-8.34,-8.35
136.48,-10.01,-1.66,-10.04,-1.68,1.69,1.65,2.74,-8.33,-8.35,-8.35
137.84,-9.92,-1.55,-9.91,-1.53,1.54,1.50,2.62,-8.38,-8.37,-8.37
139.22,-9.79,-1.39,-9.79,-1.39,1.40,1.34,2.49,-8.40,-8.39,-8.40
140.61,-9.66,-1.24,-9.67,-1.26,1.25,1.19,2.36,-8.41,-8.41,-8.42
142.02,-9.52,-1.11,-9.54,-1.11,1.11,1.04,2.23,-8.41,-8.42,-8.42
143.44,-9.43,-1.00,-9.41,-0.98,0.98,0.89,2.09,-8.46,-8.44,-8.44
144.87,-9.29,-0.83,-9.29,-0.84,0.84,0.73,1.95,-8.45,-8.45,-8.46
146.32,-9.17,-0.68,-9.18,-0.70,0.71,0.58,1.81,-8.47,-8.48,-8.49
147.78,-9.07,-0.56,-9.08,-0.56,0.57,0.43,1.67,-8.50,-8.51,-8.52
149.26,-8.98,-0.43,-8.97,-0.42,0.42,0.28,1.52,-8.56,-8.55,-8.55
150.75,-8.88,-0.28,-8.87,-0.27,0.26,0.12,1.37,-8.62,-8.61,-8.61
152.26,-8.74,-0.09,-8.77,-0.11,0.09,-0.03,1.22,-8.66,-8.68,-8.65
153.78,-8.65,0.05,-8.65,0.05,-0.10,-0.18,1.07,-8.75,-8.75,-8.70
155.32,-8.53,0.23,-8.52,0.25,-0.29,-0.33,0.91,-8.82,-8.81,-8.77
156.88,-8.37,0.45,-8.35,0.48,-0.48,-0.48,0.76,-8.86,-8.83,-8.82
158.44,-8.16,0.73,-8.17,0.71,-0.67,-0.63,0.60,-8.84,-8.85,-8.89
160.03,-7.98,0.97,-8.03,0.92,-0.86,-0.77,0.44,-8.85,-8.89,-8.95
161.63,-7.93,1.07,-7.91,1.09,-1.04,-0.92,0.28,-8.98,-8.96,-9.00
163.24,-7.85,1.21,-7.84,1.22,-1.22,-1.07,0.12,-9.07,-9.05,-9.06
164.88,-7.74,1.35,-7.76,1.34,-1.38,-1.21,-0.04,-9.12,-9.13,-9.09
166.53,-7.65,1.48,-7.64,1.50,-1.53,-1.35,-0.20,-9.18,-9.16,-9.13
168.19,-7.52,1.64,-7.52,1.64,-1.66,-1.49,-0.36,-9.18,-9.18,-9.16
169.87,-7.38,1.81,-7.40,1.79,-1.78,-1.63,-0.52,-9.16,-9.18,-9.19
171.57,-7.30,1.91,-7.29,1.92,-1.89,-1.77,-0.69,-9.20,-9.18,-9.21
173.29,-7.18,2.03,-7.19,2.03,-2.01,-1.91,-0.85,-9.19,-9.19,-9.22
175.02,-7.09,2.13,-7.09,2.13,-2.12,-2.04,-1.02,-9.21,-9.21,-9.22
176.77,-7.00,2.22,-7.00,2.22,-2.22,-2.17,-1.18,-9.22,-9.22,-9.23
178.54,-6.91,2.32,-6.92,2.30,-2.32,-2.31,-1.35,-9.23,-9.24,-9.23
180.32,-6.84,2.38,-6.82,2.40,-2.42,-2.44,-1.52,-9.26,-9.24,-9.22
182.13,-6.72,2.49,-6.71,2.51,-2.52,-2.57,-1.69,-9.24,-9.23,-9.21
183.95,-6.56,2.65,-6.60,2.62,-2.63,-2.69,-1.86,-9.19,-9.22,-9.22
185.79,-6.48,2.74,-6.49,2.73,-2.74,-2.82,-2.03,-9.23,-9.24,-9.22
187.65,-6.40,2.83,-6.38,2.85,-2.87,-2.95,-2.20,-9.27,-9.25,-9.23
189.52,-6.27,2.96,-6.25,2.99,-3.00,-3.07,-2.37,-9.27,-9.25,-9.24
191.42,-6.09,3.16,-6.12,3.13,-3.12,-3.19,-2.55,-9.22,-9.24,-9.25
193.33,-5.97,3.29,-5.99,3.27,-3.25,-3.31,-2.72,-9.22,-9.24,-9.26
195.27,-5.90,3.37,-5.88,3.40,-3.37,-3.43,-2.89,-9.27,-9.25,-9.27
197.22,-5.79,3.50,-5.79,3.51,-3.49,-3.55,-3.07,-9.28,-9.28,-9.30
199.19,-5.68,3.63,-5.70,3.61,-3.61,-3.67,-3.24,-9.30,-9.32,-9.32
201.18,-5.61,3.71,-5.62,3.71,-3.74,-3.78,-3.42,-9.35,-9.35,-9.33
203.19,-5.54,3.79,-5.53,3.81,-3.85,-3.90,-3.59,-9.40,-9.38,-9.34
205.23,-5.43,3.93,-5.42,3.94,-3.96,-4.01,-3.77,-9.40,-9.38,-9.37
207.28,-5.29,4.07,-5.28,4.09,-4.07,-4.12,-3.94,-9.36,-9.35,-9.37
209.35,-5.13,4.26,-5.18,4.21,-4.17,-4.22,-4.11,-9.31,-9.36,-9.40
211.44,-5.10,4.31,-5.10,4.30,-4.27,-4.33,-4.28,-9.38,-9.38,-9.41
213.56,-5.09,4.33,-5.04,4.38,-4.37,-4.43,-4.45,-9.46,-9.41,-9.42
215.69,-4.97,4.46,-4.99,4.44,-4.46,-4.52,-4.62,-9.43,-9.45,-9.43
217.85,-4.90,4.54,-4.93,4.52,-4.54,-4.62,-4.78,-9.45,-9.47,-9.44
220.03,-4.85,4.60,-4.85,4.60,-4.62,-4.71,-4.94,-9.47,-9.47,-9.46
222.23,-4.81,4.65,-4.77,4.69,-4.69,-4.79,-5.09,-9.51,-9.46,-9.46
224.45,-4.67,4.78,-4.68,4.78,-4.77,-4.87,-5.24,-9.44,-9.45,-9.45
226.70,-4.54,4.91,-4.61,4.84,-4.84,-4.95,-5.39,-9.38,-9.44,-9.45
228.96,-4.56,4.88,-4.52,4.92,-4.91,-5.02,-5.52,-9.47,-9.42,-9.45
231.25,-4.48,4.95,-4.46,4.98,-4.97,-5.08,-5.65,-9.46,-9.43,-9.43
233.57,-4.34,5.07,-4.39,5.03,-5.04,-5.14,-5.78,-9.38,-9.43,-9.42
235.90,-4.31,5.09,-4.30,5.11,-5.10,-5.19,-5.89,-9.41,-9.40,-9.40
238.26,-4.23,5.15,-4.23,5.15,-5.16,-5.24,-6.00,-9.39,-9.39,-9.38
240.64,-4.14,5.21,-4.16,5.19,-5.22,-5.28,-6.09,-9.36,-9.38,-9.35
243.05,-4.10,5.22,-4.05,5.27,-5.27,-5.31,-6.18,-9.37,-9.32,-9.32
245.48,-3.94,5.35,-3.95,5.35,-5.32,-5.34,-6.26,-9.27,-9.28,-9.30
247.93,-3.82,5.45,-3.88,5.39,-5.38,-5.37,-6.32,-9.20,-9.26,-9.27
250.41,-3.83,5.42,-3.81,5.44,-5.42,-5.39,-6.38,-9.26,-9.23,-9.26
252.92,-3.81,5.41,-3.75,5.47,-5.47,-5.42,-6.42,-9.28,-9.22,-9.22
255.45,-3.65,5.54,-3.70,5.50,-5.52,-5.44,-6.45,-9.17,-9.22,-9.19
258.00,-3.60,5.58,-3.63,5.54,-5.56,-5.47,-6.48,-9.17,-9.20,-9.18
260.58,-3.60,5.56,-3.56,5.60,-5.60,-5.50,-6.49,-9.20,-9.16,-9.16
263.19,-3.52,5.61,-3.51,5.63,-5.63,-5.53,-6.49,-9.15,-9.14,-9.14
265.82,-3.40,5.72,-3.45,5.67,-5.66,-5.57,-6.49,-9.06,-9.10,-9.12
268.48,-3.40,5.69,-3.38,5.72,-5.69,-5.61,-6.48,-9.09,-9.06,-9.09
271.16,-3.33,5.73,-3.34,5.73,-5.71,-5.66,-6.46,-9.05,-9.05,-9.07
273.87,-3.31,5.74,-3.33,5.71,-5.74,-5.71,-6.43,-9.05,-9.07,-9.05
276.61,-3.31,5.71,-3.30,5.73,-5.75,-5.76,-6.40,-9.07,-9.05,-9.02
279.38,-3.28,5.71,-3.25,5.75,-5.77,-5.81,-6.36,-9.05,-9.02,-9.00
282.17,-3.16,5.82,-3.19,5.79,-5.78,-5.86,-6.32,-8.94,-8.97,-8.98
284.99,-3.11,5.83,-3.14,5.81,-5.79,-5.90,-6.27,-8.90,-8.93,-8.94
287.84,-3.10,5.81,-3.09,5.82,-5.80,-5.94,-6.22,-8.90,-8.89,-8.92
290.72,-3.09,5.79,-3.06,5.82,-5.81,-5.98,-6.17,-8.91,-8.87,-8.88
293.63,-2.99,5.86,-3.03,5.82,-5.83,-6.01,-6.12,-8.82,-8.86,-8.85
296.57,-2.97,5.84,-2.98,5.84,-5.85,-6.04,-6.07,-8.82,-8.83,-8.81
299.53,-2.96,5.83,-2.94,5.85,-5.87,-6.07,-6.02,-8.83,-8.81,-8.80
302.53,-2.89,5.88,-2.90,5.86,-5.88,-6.09,-5.96,-8.78,-8.78,-8.77
305.55,-2.85,5.88,-2.84,5.90,-5.91,-6.10,-5.91,-8.76,-8.75,-8.73
308.61,-2.75,5.96,-2.78,5.94,-5.93,-6.11,-5.86,-8.68,-8.70,-8.71
311.69,-2.73,5.96,-2.72,5.97,-5.95,-6.12,-5.81,-8.68,-8.67,-8.69
314.81,-2.66,5.99,-2.67,6.00,-5.98,-6.13,-5.77,-8.64,-8.64,-8.66
317.96,-2.62,6.03,-2.64,6.00,-6.00,-6.13,-5.72,-8.62,-8.64,-8.65
321.14,-2.62,6.01,-2.61,6.02,-6.02,-6.13,-5.68,-8.65,-8.64,-8.63
324.35,-2.61,6.01,-2.60,6.02,-6.04,-6.13,-5.64,-8.66,-8.64,-8.62
327.59,-2.55,6.05,-2.57,6.04,-6.06,-6.12,-5.61,-8.61,-8.62,-8.60
330.87,-2.53,6.06,-2.52,6.08,-6.07,-6.11,-5.58,-8.61,-8.59,-8.60
334.18,-2.46,6.12,-2.48,6.11,-6.09,-6.11,-5.55,-8.55,-8.57,-8.59
337.52,-2.44,6.14,-2.46,6.12,-6.11,-6.10,-5.53,-8.55,-8.57,-8.58
340.90,-2.44,6.12,-2.44,6.13,-6.13,-6.09,-5.51,-8.57,-8.57,-8.56
344.30,-2.44,6.11,-2.42,6.13,-6.15,-6.08,-5.49,-8.59,-8.56,-8.55
347.75,-2.37,6.17,-2.39,6.16,-6.16,-6.07,-5.48,-8.53,-8.54,-8.54
351.23,-2.34,6.19,-2.36,6.18,-6.17,-6.05,-5.47,-8.51,-8.53,-8.53
354.74,-2.34,6.19,-2.34,6.19,-6.18,-6.04,-5.47,-8.52,-8.52,-8.53
358.28,-2.34,6.18,-2.34,6.19,-6.19,-6.03,-5.47,-8.53,-8.52,-8.53
361.87,-2.33,6.19,-2.34,6.19,-6.20,-6.02,-5.47,-8.53,-8.53,-8.53
365.49,-2.32,6.20,-2.33,6.19,-6.20,-6.01,-5.48,-8.53,-8.53,-8.52
369.14,-2.32,6.20,-2.30,6.22,-6.21,-6.00,-5.49,-8.54,-8.51,-8.52
372.83,-2.28,6.24,-2.28,6.24,-6.23,-5.98,-5.51,-8.51,-8.51,-8.52
376.56,-2.23,6.29,-2.28,6.23,-6.24,-5.97,-5.53,-8.48,-8.53,-8.52
