frequency,raw,error,smoothed,error_smoothed,equalization,parametric_eq,fixed_band_eq,equalized_raw,equalized_smoothed,target
20.00,1.62,-0.05,1.61,-0.06,0.08,-0.32,-0.50,1.70,1.69,1.68
20.20,1.62,-0.08,1.64,-0.07,0.07,-0.33,-0.51,1.69,1.71,1.71
20.40,1.65,-0.08,1.66,-0.07,0.06,-0.34,-0.52,1.72,1.73,1.74
20.61,1.71,-0.04,1.70,-0.06,0.05,-0.36,-0.54,1.76,1.75,1.75
20.81,1.74,-0.04,1.74,-0.04,0.04,-0.37,-0.55,1.78,1.78,1.79
21.02,1.77,-0.04,1.79,-0.02,0.02,-0.39,-0.57,1.79,1.81,1.81
21.23,1.83,0.01,1.82,-0.00,0.00,-0.40,-0.58,1.83,1.82,1.82
21.44,1.86,0.03,1.86,0.03,-0.02,-0.42,-0.60,1.84,1.84,1.83
21.66,1.89,0.05,1.90,0.06,-0.05,-0.44,-0.62,1.84,1.85,1.84
21.87,1.93,0.09,1.93,0.08,-0.09,-0.45,-0.63,1.85,1.85,1.84
22.09,1.97,0.12,1.97,0.12,-0.12,-0.47,-0.65,1.85,1.85,1.85
22.31,2.00,0.15,2.01,0.15,-0.16,-0.48,-0.67,1.84,1.85,1.85
22.54,2.04,0.19,2.05,0.19,-0.20,-0.50,-0.69,1.85,1.85,1.85
22.76,2.09,0.24,2.09,0.24,-0.23,-0.52,-0.71,1.86,1.85,1.85
22.99,2.12,0.28,2.12,0.28,-0.27,-0.54,-0.72,1.85,1.85,1.84
23.22,2.15,0.31,2.16,0.32,-0.31,-0.56,-0.74,1.84,1.85,1.84
23.45,2.18,0.34,2.19,0.35,-0.34,-0.57,-0.76,1.84,1.84,1.84
23.69,2.23,0.39,2.22,0.38,-0.38,-0.59,-0.79,1.85,1.84,1.84
23.92,2.25,0.41,2.25,0.41,-0.41,-0.61,-0.81,1.84,1.84,1.84
24.16,2.28,0.43,2.29,0.44,-0.45,-0.63,-0.83,1.83,1.84,1.85
24.40,2.32,0.48,2.32,0.48,-0.48,-0.65,-0.85,1.84,1.84,1.85
24.65,2.36,0.52,2.36,0.52,-0.52,-0.67,-0.87,1.84,1.84,1.84
24.89,2.39,0.56,2.39,0.56,-0.55,-0.69,-0.89,1.84,1.84,1.84
25.14,2.42,0.59,2.43,0.59,-0.59,-0.71,-0.92,1.83,1.84,1.84
25.39,2.46,0.63,2.46,0.62,-0.62,-0.73,-0.94,1.84,1.83,1.84
25.65,2.49,0.66,2.49,0.66,-0.66,-0.75,-0.96,1.83,1.83,1.83
25.91,2.52,0.70,2.53,0.70,-0.70,-0.78,-0.99,1.83,1.83,1.82
26.16,2.55,0.73,2.56,0.73,-0.73,-0.80,-1.01,1.82,1.83,1.82
26.43,2.60,0.78,2.59,0.77,-0.77,-0.82,-1.03,1.84,1.82,1.82
26.69,2.61,0.79,2.62,0.80,-0.80,-0.84,-1.06,1.81,1.82,1.82
26.96,2.65,0.83,2.66,0.83,-0.83,-0.87,-1.08,1.82,1.82,1.82
27.23,2.69,0.87,2.68,0.86,-0.87,-0.89,-1.10,1.82,1.81,1.82
27.50,2.72,0.90,2.72,0.91,-0.90,-0.92,-1.13,1.82,1.82,1.82
27.77,2.74,0.93,2.75,0.94,-0.94,-0.94,-1.15,1.80,1.81,1.81
28.05,2.79,0.98,2.78,0.97,-0.97,-0.97,-1.17,1.82,1.80,1.81
28.33,2.80,1.01,2.81,1.01,-1.01,-0.99,-1.19,1.79,1.80,1.80
28.62,2.83,1.04,2.84,1.05,-1.04,-1.02,-1.21,1.79,1.80,1.80
28.90,2.88,1.09,2.87,1.08,-1.08,-1.04,-1.24,1.81,1.79,1.79
29.19,2.89,1.11,2.90,1.11,-1.11,-1.07,-1.26,1.78,1.79,1.78
29.48,2.93,1.14,2.93,1.14,-1.14,-1.10,-1.28,1.79,1.78,1.79
29.78,2.95,1.17,2.95,1.17,-1.18,-1.13,-1.29,1.77,1.78,1.78
30.08,2.98,1.20,2.99,1.21,-1.21,-1.16,-1.31,1.77,1.78,1.78
30.38,3.02,1.25,3.02,1.25,-1.25,-1.18,-1.33,1.78,1.77,1.77
30.68,3.05,1.28,3.05,1.29,-1.28,-1.21,-1.35,1.77,1.77,1.77
30.99,3.07,1.32,3.08,1.32,-1.31,-1.24,-1.36,1.76,1.76,1.76
31.30,3.11,1.36,3.10,1.35,-1.35,-1.28,-1.38,1.76,1.76,1.75
31.61,3.12,1.37,3.13,1.38,-1.38,-1.31,-1.39,1.74,1.75,1.75
31.93,3.16,1.42,3.16,1.42,-1.42,-1.34,-1.40,1.75,1.74,1.74
32.24,3.18,1.45,3.19,1.45,-1.45,-1.37,-1.41,1.73,1.74,1.73
32.57,3.21,1.48,3.21,1.48,-1.48,-1.40,-1.43,1.73,1.73,1.73
32.89,3.24,1.52,3.24,1.51,-1.51,-1.44,-1.44,1.73,1.72,1.73
33.22,3.25,1.54,3.26,1.55,-1.55,-1.47,-1.45,1.70,1.72,1.72
33.55,3.30,1.59,3.29,1.58,-1.58,-1.50,-1.46,1.72,1.71,1.71
33.89,3.31,1.61,3.32,1.62,-1.62,-1.54,-1.46,1.70,1.70,1.70
34.23,3.35,1.65,3.35,1.65,-1.65,-1.57,-1.47,1.70,1.70,1.70
34.57,3.37,1.68,3.37,1.68,-1.68,-1.61,-1.48,1.69,1.69,1.69
34.92,3.39,1.72,3.40,1.72,-1.72,-1.65,-1.49,1.67,1.68,1.68
35.27,3.43,1.76,3.42,1.75,-1.75,-1.68,-1.50,1.68,1.67,1.67
35.62,3.44,1.78,3.44,1.78,-1.79,-1.72,-1.51,1.66,1.66,1.66
35.97,3.47,1.82,3.47,1.82,-1.82,-1.76,-1.51,1.65,1.65,1.65
36.33,3.48,1.84,3.49,1.85,-1.85,-1.79,-1.52,1.63,1.64,1.65
36.70,3.53,1.90,3.52,1.89,-1.88,-1.83,-1.53,1.65,1.63,1.63
37.06,3.53,1.91,3.54,1.92,-1.92,-1.87,-1.54,1.62,1.63,1.62
37.43,3.57,1.95,3.57,1.95,-1.95,-1.90,-1.55,1.62,1.62,1.62
37.81,3.58,1.98,3.58,1.98,-1.98,-1.94,-1.56,1.60,1.61,1.61
38.19,3.61,2.02,3.61,2.01,-2.01,-1.98,-1.57,1.60,1.60,1.59
38.57,3.62,2.03,3.63,2.04,-2.04,-2.02,-1.58,1.58,1.59,1.59
38.95,3.65,2.08,3.65,2.07,-2.07,-2.05,-1.59,1.58,1.57,1.58
39.34,3.67,2.11,3.67,2.10,-2.11,-2.09,-1.61,1.57,1.56,1.56
39.74,3.67,2.12,3.69,2.13,-2.14,-2.13,-1.62,1.54,1.55,1.55
40.14,3.72,2.17,3.71,2.17,-2.16,-2.16,-1.64,1.56,1.55,1.55
40.54,3.72,2.19,3.73,2.20,-2.19,-2.20,-1.65,1.53,1.54,1.53
40.94,3.76,2.23,3.75,2.22,-2.22,-2.23,-1.67,1.54,1.53,1.53
41.35,3.76,2.25,3.76,2.24,-2.24,-2.26,-1.69,1.52,1.52,1.52
41.76,3.76,2.25,3.78,2.27,-2.27,-2.30,-1.71,1.49,1.51,1.51
42.18,3.81,2.30,3.79,2.29,-2.30,-2.33,-1.73,1.52,1.50,1.51
42.60,3.81,2.32,3.81,2.31,-2.32,-2.36,-1.75,1.49,1.49,1.49
43.03,3.81,2.32,3.83,2.35,-2.35,-2.39,-1.78,1.46,1.48,1.49
43.46,3.86,2.39,3.84,2.37,-2.38,-2.42,-1.80,1.48,1.46,1.47
43.90,3.86,2.41,3.86,2.41,-2.41,-2.44,-1.83,1.46,1.45,1.45
44.33,3.86,2.43,3.88,2.45,-2.44,-2.47,-1.86,1.43,1.44,1.43
44.78,3.90,2.48,3.89,2.47,-2.46,-2.49,-1.89,1.44,1.42,1.42
45.23,3.90,2.50,3.90,2.50,-2.49,-2.52,-1.92,1.41,1.40,1.40
45.68,3.90,2.51,3.91,2.52,-2.52,-2.54,-1.95,1.38,1.39,1.39
46.13,3.90,2.53,3.91,2.54,-2.54,-2.57,-1.98,1.36,1.37,1.37
46.60,3.93,2.57,3.93,2.57,-2.57,-2.59,-2.02,1.37,1.36,1.37
47.06,3.95,2.60,3.94,2.59,-2.59,-2.61,-2.06,1.37,1.36,1.35
47.53,3.95,2.62,3.95,2.62,-2.61,-2.63,-2.09,1.34,1.34,1.33
48.01,3.95,2.63,3.95,2.63,-2.64,-2.65,-2.13,1.32,1.32,1.33
48.49,3.95,2.65,3.95,2.65,-2.66,-2.67,-2.17,1.29,1.29,1.30
48.97,3.95,2.68,3.95,2.68,-2.69,-2.69,-2.21,1.26,1.26,1.27
49.46,3.96,2.72,3.96,2.72,-2.72,-2.71,-2.26,1.24,1.24,1.25
49.96,3.97,2.75,3.98,2.75,-2.75,-2.73,-2.30,1.22,1.23,1.22
50.46,4.00,2.79,3.99,2.79,-2.78,-2.74,-2.34,1.22,1.21,1.21
50.96,4.00,2.81,4.00,2.82,-2.81,-2.76,-2.39,1.20,1.20,1.19
51.47,4.00,2.84,4.01,2.84,-2.83,-2.78,-2.43,1.17,1.17,1.16
51.99,4.00,2.86,4.00,2.85,-2.86,-2.80,-2.48,1.15,1.15,1.14
52.51,4.00,2.87,4.00,2.87,-2.88,-2.81,-2.52,1.13,1.13,1.14
53.03,4.00,2.89,4.00,2.89,-2.89,-2.83,-2.57,1.11,1.11,1.12
53.56,4.00,2.91,4.00,2.91,-2.91,-2.85,-2.62,1.09,1.10,1.10
54.10,4.00,2.93,4.00,2.93,-2.92,-2.87,-2.66,1.08,1.08,1.08
54.64,4.00,2.95,4.00,2.94,-2.93,-2.88,-2.71,1.07,1.06,1.06
55.18,3.98,2.95,3.98,2.95,-2.95,-2.90,-2.75,1.04,1.04,1.04
55.74,3.97,2.96,3.97,2.95,-2.96,-2.92,-2.80,1.01,1.01,1.01
56.29,3.95,2.95,3.96,2.96,-2.97,-2.93,-2.84,0.98,0.99,1.00
56.86,3.95,2.97,3.95,2.97,-2.98,-2.95,-2.88,0.97,0.97,0.98
57.42,3.95,2.99,3.96,2.99,-2.98,-2.97,-2.92,0.97,0.97,0.96
58.00,3.95,3.01,3.95,3.00,-2.99,-2.98,-2.96,0.96,0.96,0.95
58.58,3.95,3.02,3.94,3.00,-3.00,-3.00,-3.00,0.95,0.94,0.93
59.16,3.90,2.98,3.92,3.00,-3.01,-3.02,-3.03,0.90,0.91,0.92
59.76,3.90,3.00,3.91,3.00,-3.01,-3.03,-3.07,0.89,0.89,0.91
60.35,3.90,3.02,3.89,3.01,-3.02,-3.05,-3.10,0.88,0.87,0.88
60.96,3.89,3.03,3.89,3.03,-3.03,-3.06,-3.13,0.86,0.86,0.87
61.57,3.86,3.03,3.87,3.04,-3.03,-3.07,-3.15,0.83,0.84,0.83
62.18,3.86,3.06,3.85,3.04,-3.04,-3.09,-3.18,0.82,0.81,0.81
62.80,3.83,3.04,3.84,3.05,-3.04,-3.10,-3.20,0.79,0.79,0.79
63.43,3.81,3.05,3.82,3.05,-3.05,-3.11,-3.22,0.77,0.77,0.76
64.07,3.81,3.07,3.80,3.05,-3.05,-3.12,-3.23,0.76,0.75,0.75
64.71,3.76,3.03,3.78,3.05,-3.05,-3.14,-3.25,0.71,0.73,0.73
65.35,3.76,3.05,3.75,3.04,-3.05,-3.14,-3.26,0.72,0.71,0.71
66.01,3.72,3.03,3.73,3.04,-3.05,-3.15,-3.27,0.68,0.69,0.69
66.67,3.72,3.05,3.72,3.04,-3.04,-3.16,-3.28,0.68,0.67,0.67
67.33,3.70,3.05,3.70,3.04,-3.04,-3.17,-3.29,0.66,0.65,0.65
68.01,3.67,3.04,3.68,3.05,-3.05,-3.17,-3.29,0.63,0.64,0.63
68.69,3.67,3.06,3.66,3.05,-3.05,-3.17,-3.30,0.62,0.61,0.61
69.37,3.64,3.05,3.64,3.05,-3.05,-3.18,-3.30,0.59,0.59,0.59
70.07,3.62,3.05,3.63,3.06,-3.06,-3.18,-3.30,0.56,0.57,0.57
70.77,3.62,3.06,3.62,3.07,-3.07,-3.17,-3.31,0.55,0.55,0.56
71.48,3.62,3.09,3.61,3.08,-3.08,-3.17,-3.31,0.54,0.53,0.53
72.19,3.60,3.09,3.60,3.09,-3.09,-3.16,-3.31,0.51,0.51,0.51
72.91,3.58,3.09,3.59,3.10,-3.11,-3.16,-3.31,0.48,0.48,0.49
73.64,3.58,3.12,3.58,3.12,-3.12,-3.15,-3.32,0.46,0.46,0.46
74.38,3.58,3.13,3.58,3.14,-3.14,-3.13,-3.32,0.45,0.45,0.45
75.12,3.58,3.16,3.58,3.16,-3.15,-3.12,-3.32,0.43,0.43,0.42
75.87,3.58,3.18,3.57,3.17,-3.16,-3.11,-3.33,0.42,0.41,0.41
76.63,3.56,3.17,3.56,3.17,-3.17,-3.09,-3.34,0.39,0.39,0.39
77.40,3.53,3.16,3.55,3.18,-3.18,-3.07,-3.35,0.35,0.37,0.37
78.17,3.53,3.19,3.53,3.18,-3.18,-3.05,-3.36,0.35,0.35,0.34
78.95,3.53,3.20,3.52,3.18,-3.18,-3.04,-3.37,0.35,0.33,0.34
79.74,3.48,3.17,3.50,3.18,-3.18,-3.02,-3.38,0.30,0.32,0.32
80.54,3.48,3.19,3.47,3.18,-3.18,-3.00,-3.40,0.31,0.30,0.30
81.35,3.44,3.17,3.45,3.17,-3.17,-2.99,-3.42,0.27,0.28,0.28
82.16,3.43,3.18,3.43,3.17,-3.17,-2.98,-3.44,0.27,0.26,0.26
82.98,3.39,3.15,3.40,3.16,-3.16,-2.97,-3.46,0.23,0.24,0.24
83.81,3.37,3.16,3.37,3.16,-3.15,-2.97,-3.49,0.22,0.22,0.21
84.65,3.35,3.16,3.34,3.15,-3.15,-2.98,-3.52,0.20,0.19,0.19
85.50,3.31,3.13,3.32,3.15,-3.15,-2.99,-3.55,0.16,0.18,0.18
86.35,3.30,3.15,3.31,3.15,-3.15,-3.01,-3.58,0.15,0.16,0.15
87.22,3.30,3.17,3.29,3.16,-3.16,-3.04,-3.62,0.14,0.13,0.13
88.09,3.28,3.18,3.28,3.17,-3.17,-3.07,-3.66,0.11,0.10,0.11
88.97,3.25,3.16,3.27,3.19,-3.19,-3.12,-3.71,0.06,0.08,0.09
89.86,3.28,3.21,3.28,3.21,-3.22,-3.16,-3.75,0.06,0.06,0.07
90.76,3.30,3.27,3.29,3.25,-3.25,-3.22,-3.80,0.05,0.04,0.03
91.66,3.30,3.29,3.31,3.30,-3.29,-3.28,-3.85,0.01,0.02,0.02
92.58,3.31,3.33,3.32,3.34,-3.33,-3.35,-3.91,-0.02,-0.01,-0.02
93.51,3.35,3.39,3.34,3.38,-3.39,-3.41,-3.96,-0.03,-0.04,-0.04
94.44,3.37,3.43,3.37,3.44,-3.44,-3.48,-4.02,-0.07,-0.07,-0.06
95.39,3.40,3.49,3.41,3.50,-3.51,-3.56,-4.08,-0.10,-0.10,-0.09
96.34,3.45,3.58,3.45,3.57,-3.57,-3.63,-4.15,-0.12,-0.13,-0.13
97.30,3.49,3.65,3.49,3.65,-3.65,-3.70,-4.21,-0.15,-0.15,-0.15
98.28,3.54,3.72,3.54,3.73,-3.72,-3.77,-4.28,-0.18,-0.18,-0.18
99.26,3.59,3.80,3.59,3.80,-3.80,-3.85,-4.35,-0.21,-0.21,-0.21
100.25,3.63,3.87,3.64,3.87,-3.87,-3.91,-4.42,-0.24,-0.24,-0.24
101.25,3.68,3.95,3.68,3.95,-3.95,-3.98,-4.50,-0.27,-0.27,-0.27
102.27,3.73,4.03,3.73,4.03,-4.02,-4.05,-4.57,-0.29,-0.29,-0.29
103.29,3.77,4.10,3.77,4.10,-4.09,-4.12,-4.65,-0.32,-0.32,-0.33
104.32,3.81,4.16,3.81,4.17,-4.16,-4.18,-4.72,-0.35,-0.35,-0.35
105.37,3.85,4.23,3.85,4.23,-4.23,-4.24,-4.80,-0.38,-0.38,-0.38
106.42,3.88,4.29,3.88,4.29,-4.30,-4.30,-4.87,-0.41,-0.42,-0.41
107.48,3.91,4.35,3.92,4.36,-4.36,-4.36,-4.94,-0.45,-0.44,-0.44
108.56,3.95,4.43,3.95,4.43,-4.42,-4.42,-5.01,-0.47,-0.47,-0.47
109.64,4.00,4.50,3.99,4.49,-4.49,-4.48,-5.08,-0.48,-0.50,-0.50
110.74,4.01,4.54,4.02,4.55,-4.55,-4.53,-5.15,-0.54,-0.53,-0.53
111.85,4.04,4.60,4.05,4.61,-4.61,-4.59,-5.21,-0.57,-0.56,-0.56
112.97,4.07,4.68,4.07,4.66,-4.67,-4.64,-5.27,-0.60,-0.61,-0.61
114.10,4.09,4.73,4.10,4.73,-4.73,-4.69,-5.33,-0.64,-0.64,-0.63
115.24,4.11,4.78,4.11,4.79,-4.79,-4.74,-5.37,-0.68,-0.68,-0.67
116.39,4.14,4.85,4.14,4.84,-4.84,-4.80,-5.42,-0.70,-0.71,-0.71
117.55,4.14,4.89,4.16,4.90,-4.89,-4.85,-5.45,-0.75,-0.74,-0.74
118.73,4.18,4.96,4.17,4.95,-4.94,-4.90,-5.48,-0.76,-0.77,-0.78
119.92,4.18,4.99,4.18,4.99,-4.99,-4.94,-5.50,-0.80,-0.80,-0.81
121.12,4.18,5.02,4.19,5.03,-5.03,-4.99,-5.52,-0.84,-0.84,-0.84
122.33,4.18,5.06,4.18,5.06,-5.06,-5.03,-5.52,-0.88,-0.88,-0.88
123.55,4.18,5.09,4.18,5.09,-5.10,-5.08,-5.53,-0.92,-0.92,-0.90
124.79,4.18,5.12,4.19,5.12,-5.13,-5.11,-5.51,-0.95,-0.94,-0.94
126.03,4.18,5.15,4.18,5.15,-5.16,-5.15,-5.49,-0.97,-0.97,-0.97
127.29,4.18,5.19,4.17,5.18,-5.18,-5.17,-5.46,-1.00,-1.01,-1.01
128.57,4.15,5.20,4.16,5.21,-5.20,-5.20,-5.43,-1.05,-1.04,-1.05
129.85,4.14,5.22,4.14,5.22,-5.22,-5.21,-5.38,-1.07,-1.08,-1.08
131.15,4.11,5.23,4.11,5.23,-5.23,-5.22,-5.33,-1.12,-1.11,-1.11
132.46,4.09,5.24,4.09,5.23,-5.23,-5.21,-5.26,-1.14,-1.14,-1.15
133.79,4.05,5.22,4.06,5.23,-5.23,-5.21,-5.20,-1.18,-1.18,-1.17
135.12,4.02,5.23,4.02,5.22,-5.22,-5.18,-5.12,-1.20,-1.21,-1.21
136.48,3.97,5.20,3.98,5.21,-5.21,-5.16,-5.04,-1.24,-1.23,-1.23
137.84,3.93,5.19,3.93,5.20,-5.19,-5.12,-4.95,-1.26,-1.26,-1.26
139.22,3.88,5.18,3.88,5.17,-5.17,-5.08,-4.85,-1.28,-1.29,-1.30
140.61,3.81,5.14,3.82,5.14,-5.13,-5.02,-4.75,-1.32,-1.31,-1.33
142.02,3.75,5.09,3.75,5.10,-5.10,-4.97,-4.65,-1.34,-1.34,-1.33
143.44,3.69,5.05,3.69,5.05,-5.05,-4.90,-4.55,-1.36,-1.36,-1.36
144.87,3.61,5.00,3.61,5.00,-5.00,-4.83,-4.44,-1.39,-1.39,-1.39
146.32,3.54,4.96,3.54,4.95,-4.95,-4.76,-4.33,-1.41,-1.41,-1.42
147.78,3.44,4.87,3.45,4.89,-4.89,-4.69,-4.21,-1.45,-1.44,-1.43
149.26,3.37,4.83,3.36,4.82,-4.82,-4.61,-4.10,-1.45,-1.46,-1.46
150.75,3.26,4.75,3.27,4.75,-4.75,-4.53,-3.98,-1.49,-1.49,-1.49
152.26,3.16,4.68,3.17,4.69,-4.68,-4.45,-3.87,-1.51,-1.51,-1.52
153.78,3.07,4.61,3.06,4.60,-4.60,-4.37,-3.75,-1.52,-1.54,-1.54
155.32,2.94,4.51,2.94,4.51,-4.51,-4.29,-3.63,-1.57,-1.57,-1.57
156.88,2.80,4.40,2.82,4.41,-4.41,-4.21,-3.52,-1.61,-1.60,-1.59
158.44,2.68,4.31,2.68,4.31,-4.32,-4.13,-3.40,-1.63,-1.63,-1.63
160.03,2.56,4.22,2.55,4.21,-4.21,-4.04,-3.29,-1.65,-1.66,-1.66
161.63,2.41,4.10,2.42,4.11,-4.10,-3.96,-3.17,-1.69,-1.68,-1.69
163.24,2.27,3.99,2.27,3.99,-3.98,-3.88,-3.06,-1.71,-1.71,-1.72
164.88,2.13,3.87,2.13,3.87,-3.87,-3.79,-2.95,-1.73,-1.74,-1.74
166.53,1.97,3.74,1.98,3.74,-3.74,-3.70,-2.84,-1.77,-1.77,-1.77
168.19,1.82,3.62,1.82,3.62,-3.62,-3.62,-2.73,-1.80,-1.80,-1.80
169.87,1.66,3.49,1.66,3.49,-3.49,-3.53,-2.62,-1.83,-1.83,-1.82
171.57,1.50,3.35,1.50,3.36,-3.36,-3.44,-2.51,-1.86,-1.86,-1.85
173.29,1.34,3.22,1.35,3.23,-3.23,-3.35,-2.41,-1.89,-1.88,-1.88
175.02,1.19,3.10,1.19,3.10,-3.10,-3.25,-2.31,-1.91,-1.91,-1.91
176.77,1.03,2.97,1.03,2.97,-2.97,-3.16,-2.21,-1.93,-1.94,-1.94
178.54,0.86,2.84,0.86,2.83,-2.83,-3.06,-2.11,-1.97,-1.97,-1.98
180.32,0.68,2.69,0.69,2.70,-2.69,-2.97,-2.01,-2.01,-2.00,-2.00
182.13,0.52,2.55,0.52,2.55,-2.55,-2.87,-1.91,-2.03,-2.04,-2.03
183.95,0.35,2.42,0.35,2.41,-2.41,-2.77,-1.82,-2.06,-2.06,-2.06
185.79,0.17,2.26,0.18,2.27,-2.27,-2.66,-1.72,-2.09,-2.08,-2.09
187.65,0.01,2.13,0.01,2.12,-2.12,-2.56,-1.63,-2.10,-2.11,-2.12
189.52,-0.17,1.98,-0.17,1.97,-1.97,-2.45,-1.54,-2.14,-2.14,-2.14
191.42,-0.36,1.81,-0.35,1.82,-1.82,-2.34,-1.45,-2.18,-2.17,-2.17
193.33,-0.53,1.66,-0.53,1.66,-1.67,-2.23,-1.37,-2.20,-2.19,-2.19
195.27,-0.69,1.52,-0.70,1.51,-1.52,-2.12,-1.28,-2.20,-2.22,-2.21
197.22,-0.88,1.35,-0.87,1.37,-1.37,-2.00,-1.20,-2.24,-2.23,-2.23
199.19,-1.04,1.23,-1.04,1.22,-1.22,-1.89,-1.12,-2.25,-2.25,-2.26
201.18,-1.19,1.09,-1.20,1.07,-1.07,-1.77,-1.04,-2.26,-2.27,-2.27
203.19,-1.37,0.92,-1.36,0.93,-0.93,-1.65,-0.96,-2.30,-2.29,-2.28
205.23,-1.51,0.80,-1.51,0.79,-0.79,-1.53,-0.88,-2.30,-2.30,-2.30
207.28,-1.66,0.65,-1.66,0.66,-0.66,-1.40,-0.81,-2.32,-2.32,-2.30
209.35,-1.79,0.54,-1.79,0.54,-0.54,-1.28,-0.74,-2.32,-2.33,-2.32
211.44,-1.92,0.42,-1.92,0.42,-0.42,-1.16,-0.67,-2.34,-2.33,-2.34
213.56,-2.04,0.30,-2.04,0.31,-0.31,-1.03,-0.60,-2.34,-2.34,-2.34
215.69,-2.14,0.20,-2.14,0.20,-0.20,-0.91,-0.53,-2.34,-2.35,-2.34
217.85,-2.25,0.10,-2.24,0.11,-0.11,-0.79,-0.47,-2.36,-2.35,-2.35
220.03,-2.33,0.03,-2.33,0.02,-0.02,-0.66,-0.40,-2.35,-2.36,-2.36
222.23,-2.42,-0.05,-2.41,-0.05,0.06,-0.54,-0.34,-2.36,-2.36,-2.36
224.45,-2.48,-0.13,-2.48,-0.12,0.13,-0.42,-0.29,-2.35,-2.35,-2.35
226.70,-2.54,-0.19,-2.54,-0.19,0.19,-0.30,-0.23,-2.35,-2.35,-2.35
228.96,-2.59,-0.24,-2.59,-0.25,0.24,-0.19,-0.18,-2.35,-2.35,-2.35
231.25,-2.64,-0.31,-2.63,-0.30,0.29,-0.08,-0.13,-2.35,-2.34,-2.33
233.57,-2.66,-0.33,-2.67,-0.34,0.33,0.03,-0.08,-2.33,-2.34,-2.33
235.90,-2.70,-0.37,-2.69,-0.36,0.37,0.14,-0.04,-2.33,-2.32,-2.33
238.26,-2.71,-0.39,-2.71,-0.39,0.40,0.23,0.00,-2.31,-2.31,-2.32
240.64,-2.71,-0.40,-2.72,-0.42,0.42,0.33,0.04,-2.29,-2.30,-2.31
243.05,-2.75,-0.45,-2.74,-0.44,0.44,0.41,0.07,-2.30,-2.29,-2.29
245.48,-2.75,-0.47,-2.75,-0.47,0.46,0.49,0.10,-2.28,-2.28,-2.28
247.93,-2.75,-0.48,-2.75,-0.48,0.48,0.57,0.13,-2.27,-2.27,-2.26
250.41,-2.75,-0.49,-2.75,-0.50,0.50,0.63,0.16,-2.25,-2.25,-2.26
252.92,-2.75,-0.51,-2.74,-0.51,0.51,0.69,0.18,-2.24,-2.23,-2.23
255.45,-2.74,-0.53,-2.73,-0.52,0.52,0.74,0.19,-2.22,-2.21,-2.21
258.00,-2.71,-0.51,-2.72,-0.53,0.53,0.78,0.21,-2.18,-2.19,-2.19
260.58,-2.71,-0.53,-2.71,-0.53,0.53,0.81,0.22,-2.17,-2.17,-2.18
263.19,-2.71,-0.56,-2.69,-0.54,0.54,0.84,0.23,-2.17,-2.15,-2.15
265.82,-2.66,-0.52,-2.67,-0.54,0.54,0.86,0.24,-2.12,-2.13,-2.14
268.48,-2.66,-0.55,-2.65,-0.54,0.54,0.87,0.24,-2.12,-2.11,-2.11
271.16,-2.62,-0.53,-2.62,-0.54,0.54,0.86,0.24,-2.08,-2.08,-2.08
273.87,-2.61,-0.54,-2.60,-0.54,0.53,0.86,0.24,-2.07,-2.07,-2.07
276.61,-2.57,-0.53,-2.57,-0.53,0.53,0.84,0.23,-2.04,-2.05,-2.04
279.38,-2.55,-0.52,-2.55,-0.52,0.52,0.83,0.23,-2.03,-2.03,-2.02
282.17,-2.52,-0.51,-2.51,-0.51,0.51,0.80,0.22,-2.01,-2.00,-2.01
284.99,-2.47,-0.49,-2.48,-0.49,0.50,0.77,0.21,-1.97,-1.98,-1.98
287.84,-2.44,-0.47,-2.44,-0.48,0.48,0.73,0.20,-1.96,-1.96,-1.96
290.72,-2.41,-0.47,-2.40,-0.46,0.46,0.69,0.18,-1.95,-1.94,-1.94
293.63,-2.36,-0.44,-2.36,-0.45,0.44,0.64,0.17,-1.92,-1.92,-1.92
296.57,-2.32,-0.43,-2.32,-0.42,0.42,0.59,0.15,-1.90,-1.90,-1.89
299.53,-2.27,-0.39,-2.27,-0.39,0.40,0.54,0.14,-1.87,-1.87,-1.87
302.53,-2.22,-0.36,-2.22,-0.37,0.37,0.49,0.12,-1.85,-1.85,-1.86
305.55,-2.17,-0.35,-2.17,-0.34,0.35,0.43,0.10,-1.82,-1.82,-1.82
308.61,-2.12,-0.32,-2.12,-0.32,0.32,0.38,0.08,-1.80,-1.80,-1.80
311.69,-2.07,-0.29,-2.07,-0.30,0.29,0.32,0.06,-1.77,-1.77,-1.77
314.81,-2.02,-0.28,-2.01,-0.27,0.27,0.26,0.04,-1.75,-1.75,-1.74
317.96,-1.96,-0.24,-1.96,-0.24,0.24,0.20,0.01,-1.72,-1.73,-1.72
321.14,-1.91,-0.21,-1.91,-0.21,0.21,0.14,-0.01,-1.70,-1.70,-1.70
324.35,-1.86,-0.18,-1.85,-0.17,0.18,0.08,-0.03,-1.68,-1.67,-1.68
327.59,-1.80,-0.14,-1.80,-0.14,0.15,0.03,-0.05,-1.65,-1.65,-1.65
330.87,-1.75,-0.11,-1.75,-0.11,0.12,-0.03,-0.08,-1.63,-1.63,-1.64
334.18,-1.71,-0.09,-1.70,-0.09,0.09,-0.08,-0.10,-1.62,-1.61,-1.62
337.52,-1.66,-0.06,-1.66,-0.06,0.06,-0.14,-0.12,-1.60,-1.60,-1.60
340.90,-1.61,-0.04,-1.61,-0.04,0.03,-0.19,-0.15,-1.57,-1.58,-1.57
344.30,-1.57,-0.01,-1.57,-0.01,0.01,-0.24,-0.17,-1.56,-1.56,-1.55
347.75,-1.52,0.02,-1.52,0.02,-0.02,-0.29,-0.20,-1.54,-1.54,-1.53
351.23,-1.47,0.05,-1.46,0.05,-0.05,-0.34,-0.22,-1.52,-1.52,-1.52
354.74,-1.41,0.09,-1.41,0.08,-0.08,-0.38,-0.25,-1.49,-1.50,-1.50
358.28,-1.36,0.12,-1.36,0.12,-0.12,-0.42,-0.27,-1.47,-1.48,-1.48
361.87,-1.32,0.14,-1.31,0.15,-0.15,-0.47,-0.30,-1.47,-1.46,-1.46
365.49,-1.26,0.18,-1.26,0.18,-0.18,-0.51,-0.32,-1.44,-1.44,-1.44
369.14,-1.22,0.21,-1.21,0.22,-0.22,-0.54,-0.35,-1.43,-1.43,-1.43
372.83,-1.16,0.26,-1.16,0.25,-0.25,-0.58,-0.37,-1.41,-1.41,-1.41
376.56,-1.12,0.29,-1.12,0.28,-0.28,-0.62,-0.40,-1.40,-1.40,-1.40
380.33,-1.08,0.30,-1.07,0.31,-0.31,-0.65,-0.42,-1.39,-1.38,-1.38
384.13,-1.02,0.35,-1.02,0.35,-0.35,-0.68,-0.45,-1.37,-1.37,-1.37
387.97,-0.97,0.39,-0.97,0.38,-0.38,-0.71,-0.47,-1.35,-1.36,-1.36
391.85,-0.94,0.41,-0.93,0.42,-0.42,-0.73,-0.50,-1.35,-1.34,-1.35
395.77,-0.88,0.45,-0.88,0.45,-0.45,-0.76,-0.52,-1.33,-1.34,-1.33
399.73,-0.84,0.48,-0.84,0.48,-0.48,-0.78,-0.54,-1.32,-1.32,-1.32
403.72,-0.80,0.51,-0.79,0.52,-0.52,-0.81,-0.57,-1.31,-1.31,-1.31
407.76,-0.74,0.56,-0.75,0.55,-0.55,-0.83,-0.59,-1.29,-1.30,-1.30
411.84,-0.71,0.58,-0.70,0.58,-0.58,-0.85,-0.62,-1.29,-1.28,-1.28
415.96,-0.66,0.62,-0.66,0.61,-0.61,-0.86,-0.64,-1.27,-1.28,-1.27
420.12,-0.63,0.64,-0.62,0.64,-0.64,-0.88,-0.66,-1.27,-1.27,-1.26
424.32,-0.59,0.67,-0.58,0.67,-0.67,-0.90,-0.69,-1.26,-1.26,-1.26
428.56,-0.54,0.71,-0.54,0.70,-0.70,-0.91,-0.71,-1.24,-1.25,-1.25
432.85,-0.51,0.73,-0.50,0.73,-0.73,-0.92,-0.73,-1.24,-1.23,-1.24
437.18,-0.46,0.77,-0.46,0.76,-0.76,-0.93,-0.75,-1.22,-1.22,-1.23
441.55,-0.43,0.78,-0.43,0.78,-0.79,-0.94,-0.77,-1.21,-1.21,-1.21
445.96,-0.39,0.81,-0.39,0.81,-0.81,-0.95,-0.79,-1.20,-1.20,-1.20
450.42,-0.36,0.83,-0.35,0.83,-0.83,-0.96,-0.81,-1.19,-1.19,-1.19
454.93,-0.31,0.86,-0.31,0.86,-0.86,-0.97,-0.83,-1.16,-1.17,-1.17
459.48,-0.28,0.88,-0.28,0.88,-0.88,-0.97,-0.84,-1.15,-1.16,-1.16
464.07,-0.25,0.89,-0.25,0.90,-0.90,-0.98,-0.86,-1.14,-1.14,-1.14
468.71,-0.22,0.90,-0.22,0.91,-0.92,-0.98,-0.87,-1.13,-1.13,-1.12
473.40,-0.18,0.93,-0.18,0.93,-0.93,-0.98,-0.89,-1.11,-1.11,-1.11
478.13,-0.15,0.94,-0.14,0.95,-0.95,-0.99,-0.90,-1.10,-1.09,-1.09
482.91,-0.10,0.98,-0.11,0.97,-0.97,-0.99,-0.91,-1.06,-1.07,-1.08
487.74,-0.09,0.98,-0.08,0.98,-0.98,-0.99,-0.92,-1.07,-1.06,-1.06
