frequency,raw,error,smoothed,error_smoothed,equalization,parametric_eq,fixed_band_eq,equalized_raw,equalized_smoothed,target
20.00,-5.94,-7.74,-5.93,-7.74,6.00,5.49,2.59,0.06,0.07,1.81
20.20,-5.89,-7.73,-5.89,-7.74,6.00,5.54,2.66,0.11,0.11,1.85
20.40,-5.85,-7.72,-5.84,-7.72,6.00,5.58,2.74,0.15,0.16,1.88
20.61,-5.80,-7.70,-5.80,-7.71,6.00,5.63,2.82,0.20,0.20,1.91
20.81,-5.75,-7.68,-5.75,-7.69,6.00,5.68,2.90,0.25,0.25,1.94
21.02,-5.70,-7.66,-5.70,-7.66,6.00,5.72,2.98,0.30,0.30,1.97
21.23,-5.65,-7.63,-5.65,-7.63,6.00,5.76,3.07,0.35,0.35,1.99
21.44,-5.60,-7.59,-5.59,-7.59,6.00,5.81,3.16,0.40,0.41,2.00
21.66,-5.54,-7.54,-5.54,-7.55,6.00,5.84,3.25,0.46,0.46,2.01
21.87,-5.49,-7.50,-5.49,-7.50,6.00,5.88,3.34,0.51,0.51,2.02
22.09,-5.44,-7.46,-5.44,-7.46,6.00,5.92,3.43,0.56,0.56,2.03
22.31,-5.39,-7.42,-5.39,-7.42,6.00,5.95,3.53,0.61,0.61,2.04
22.54,-5.35,-7.38,-5.34,-7.38,6.00,5.99,3.63,0.65,0.66,2.04
22.76,-5.30,-7.33,-5.30,-7.33,6.00,6.02,3.73,0.70,0.70,2.04
22.99,-5.25,-7.28,-5.25,-7.28,6.00,6.05,3.84,0.75,0.75,2.03
23.22,-5.20,-7.24,-5.19,-7.23,6.00,6.07,3.95,0.80,0.81,2.04
23.45,-5.14,-7.18,-5.14,-7.19,6.00,6.10,4.06,0.86,0.86,2.04
23.69,-5.09,-7.14,-5.09,-7.14,6.00,6.12,4.17,0.91,0.91,2.05
23.92,-5.04,-7.09,-5.03,-7.09,6.00,6.14,4.28,0.96,0.97,2.05
24.16,-4.98,-7.04,-4.98,-7.04,6.00,6.16,4.40,1.02,1.02,2.06
24.40,-4.93,-6.99,-4.93,-6.98,6.00,6.17,4.52,1.07,1.07,2.06
24.65,-4.88,-6.93,-4.87,-6.93,6.00,6.19,4.63,1.12,1.13,2.05
24.89,-4.82,-6.87,-4.82,-6.87,6.00,6.20,4.76,1.18,1.18,2.05
25.14,-4.77,-6.82,-4.76,-6.81,6.00,6.21,4.88,1.23,1.24,2.05
25.39,-4.71,-6.75,-4.70,-6.75,6.00,6.21,5.00,1.29,1.30,2.04
25.65,-4.65,-6.69,-4.64,-6.68,6.00,6.22,5.12,1.35,1.36,2.04
25.91,-4.59,-6.62,-4.60,-6.63,6.00,6.22,5.25,1.41,1.40,2.03
26.16,-4.57,-6.58,-4.57,-6.59,6.00,6.22,5.37,1.43,1.43,2.02
26.43,-4.57,-6.58,-4.57,-6.58,6.00,6.22,5.49,1.43,1.43,2.02
26.69,-4.57,-6.57,-4.57,-6.58,6.00,6.21,5.61,1.43,1.43,2.01
26.96,-4.57,-6.57,-4.55,-6.56,6.00,6.21,5.73,1.43,1.45,2.01
27.23,-4.52,-6.51,-4.52,-6.51,6.00,6.20,5.85,1.48,1.48,2.00
27.50,-4.46,-6.45,-4.47,-6.46,6.00,6.18,5.96,1.54,1.53,2.00
27.77,-4.41,-6.38,-4.40,-6.38,6.00,6.17,6.07,1.59,1.60,1.97
28.05,-4.35,-6.32,-4.34,-6.31,6.00,6.15,6.18,1.65,1.66,1.97
28.33,-4.28,-6.24,-4.27,-6.23,6.00,6.14,6.28,1.73,1.73,1.96
28.62,-4.21,-6.16,-4.20,-6.15,6.01,6.11,6.37,1.80,1.81,1.95
28.90,-4.13,-6.08,-4.14,-6.09,6.01,6.09,6.46,1.89,1.87,1.95
29.19,-4.11,-6.05,-4.11,-6.06,6.01,6.07,6.54,1.90,1.89,1.94
29.48,-4.11,-6.06,-4.11,-6.05,5.99,6.04,6.61,1.89,1.89,1.95
29.78,-4.11,-6.04,-4.10,-6.04,5.97,6.01,6.67,1.87,1.87,1.94
30.08,-4.09,-6.01,-4.07,-6.00,5.95,5.98,6.73,1.86,1.88,1.93
30.38,-4.02,-5.93,-4.01,-5.93,5.92,5.95,6.77,1.90,1.91,1.92
30.68,-3.95,-5.86,-3.95,-5.86,5.89,5.92,6.80,1.94,1.94,1.92
30.99,-3.88,-5.78,-3.90,-5.80,5.85,5.88,6.83,1.97,1.95,1.90
31.30,-3.88,-5.78,-3.88,-5.78,5.80,5.85,6.84,1.93,1.93,1.90
31.61,-3.88,-5.78,-3.87,-5.77,5.76,5.81,6.84,1.88,1.88,1.90
31.93,-3.88,-5.77,-3.86,-5.75,5.71,5.77,6.84,1.83,1.85,1.89
32.24,-3.83,-5.69,-3.81,-5.69,5.67,5.73,6.82,1.85,1.86,1.87
32.57,-3.75,-5.61,-3.75,-5.62,5.64,5.69,6.79,1.89,1.89,1.87
32.89,-3.68,-5.55,-3.69,-5.56,5.60,5.65,6.76,1.92,1.91,1.88
33.22,-3.66,-5.52,-3.66,-5.53,5.55,5.60,6.71,1.90,1.89,1.86
33.55,-3.66,-5.52,-3.66,-5.52,5.51,5.56,6.66,1.85,1.85,1.86
33.89,-3.66,-5.51,-3.64,-5.49,5.46,5.51,6.60,1.80,1.82,1.85
34.23,-3.61,-5.46,-3.59,-5.44,5.42,5.47,6.53,1.81,1.82,1.85
34.57,-3.53,-5.36,-3.53,-5.37,5.38,5.42,6.46,1.85,1.85,1.84
34.92,-3.45,-5.28,-3.47,-5.30,5.34,5.37,6.38,1.89,1.87,1.84
35.27,-3.43,-5.26,-3.44,-5.27,5.29,5.33,6.29,1.86,1.85,1.83
35.62,-3.43,-5.25,-3.42,-5.25,5.23,5.28,6.21,1.81,1.81,1.82
35.97,-3.43,-5.25,-3.40,-5.22,5.18,5.23,6.12,1.75,1.78,1.82
36.33,-3.35,-5.16,-3.34,-5.16,5.13,5.18,6.02,1.78,1.79,1.82
36.70,-3.27,-5.07,-3.27,-5.08,5.09,5.13,5.93,1.83,1.82,1.81
37.06,-3.20,-4.99,-3.22,-5.01,5.06,5.08,5.83,1.86,1.84,1.79
37.43,-3.20,-4.99,-3.19,-4.98,5.03,5.03,5.74,1.83,1.84,1.79
37.81,-3.20,-4.97,-3.19,-4.97,4.99,4.98,5.64,1.79,1.80,1.78
38.19,-3.20,-4.96,-3.20,-4.97,4.95,4.93,5.55,1.75,1.74,1.77
38.57,-3.20,-4.96,-3.20,-4.96,4.90,4.88,5.45,1.71,1.70,1.76
38.95,-3.20,-4.95,-3.17,-4.92,4.87,4.84,5.36,1.67,1.70,1.75
39.34,-3.12,-4.85,-3.11,-4.85,4.84,4.79,5.27,1.72,1.73,1.74
39.74,-3.03,-4.75,-3.04,-4.77,4.80,4.74,5.18,1.78,1.76,1.72
40.14,-2.97,-4.70,-2.98,-4.71,4.77,4.69,5.09,1.80,1.78,1.73
40.54,-2.97,-4.68,-2.96,-4.68,4.73,4.64,5.00,1.76,1.77,1.72
40.94,-2.97,-4.68,-2.96,-4.68,4.68,4.59,4.92,1.72,1.72,1.71
41.35,-2.97,-4.67,-2.97,-4.68,4.64,4.54,4.84,1.67,1.66,1.70
41.76,-2.97,-4.66,-2.96,-4.65,4.59,4.50,4.76,1.63,1.64,1.70
42.18,-2.93,-4.61,-2.90,-4.59,4.55,4.45,4.69,1.63,1.65,1.68
42.60,-2.84,-4.50,-2.84,-4.51,4.51,4.40,4.62,1.67,1.67,1.67
43.03,-2.75,-4.40,-2.78,-4.43,4.46,4.36,4.55,1.71,1.68,1.65
43.46,-2.75,-4.38,-2.74,-4.37,4.41,4.31,4.49,1.66,1.66,1.63
43.90,-2.75,-4.34,-2.74,-4.34,4.36,4.27,4.43,1.61,1.62,1.60
44.33,-2.75,-4.32,-2.75,-4.32,4.31,4.23,4.37,1.57,1.56,1.57
44.78,-2.75,-4.29,-2.74,-4.28,4.28,4.18,4.31,1.53,1.54,1.55
45.23,-2.73,-4.25,-2.72,-4.24,4.25,4.14,4.26,1.52,1.53,1.52
45.68,-2.70,-4.19,-2.70,-4.20,4.22,4.10,4.21,1.52,1.52,1.50
46.13,-2.69,-4.17,-2.71,-4.19,4.18,4.06,4.17,1.50,1.47,1.48
46.60,-2.72,-4.19,-2.72,-4.18,4.14,4.02,4.12,1.43,1.43,1.47
47.06,-2.74,-4.19,-2.68,-4.14,4.10,3.98,4.08,1.37,1.42,1.46
47.53,-2.63,-4.07,-2.63,-4.08,4.06,3.95,4.05,1.44,1.44,1.44
48.01,-2.52,-3.96,-2.56,-4.00,4.03,3.91,4.01,1.51,1.47,1.45
48.49,-2.52,-3.96,-2.51,-3.94,4.00,3.87,3.98,1.48,1.49,1.44
48.97,-2.52,-3.94,-2.51,-3.93,3.97,3.84,3.95,1.46,1.46,1.42
49.46,-2.52,-3.93,-2.52,-3.94,3.94,3.80,3.93,1.43,1.42,1.42
49.96,-2.52,-3.93,-2.51,-3.93,3.91,3.77,3.90,1.40,1.40,1.42
50.46,-2.50,-3.93,-2.49,-3.92,3.89,3.74,3.88,1.39,1.39,1.43
50.96,-2.47,-3.90,-2.47,-3.89,3.86,3.71,3.86,1.40,1.40,1.43
51.47,-2.43,-3.85,-2.43,-3.86,3.84,3.68,3.85,1.41,1.41,1.42
51.99,-2.39,-3.80,-2.38,-3.80,3.80,3.65,3.83,1.42,1.42,1.42
52.51,-2.34,-3.75,-2.33,-3.75,3.76,3.63,3.82,1.43,1.43,1.42
53.03,-2.29,-3.68,-2.30,-3.70,3.72,3.60,3.80,1.43,1.42,1.40
53.56,-2.29,-3.66,-2.28,-3.66,3.68,3.57,3.79,1.39,1.40,1.38
54.10,-2.29,-3.65,-2.28,-3.64,3.65,3.55,3.78,1.36,1.37,1.36
54.64,-2.29,-3.62,-2.29,-3.61,3.62,3.53,3.77,1.33,1.33,1.33
55.18,-2.29,-3.58,-2.29,-3.59,3.59,3.51,3.76,1.31,1.31,1.30
55.74,-2.29,-3.55,-2.29,-3.56,3.56,3.49,3.75,1.28,1.28,1.27
56.29,-2.29,-3.53,-2.29,-3.53,3.52,3.47,3.74,1.24,1.24,1.25
56.86,-2.29,-3.50,-2.30,-3.51,3.47,3.45,3.72,1.19,1.17,1.21
57.42,-2.29,-3.46,-2.29,-3.47,3.42,3.43,3.71,1.13,1.13,1.17
58.00,-2.29,-3.43,-2.24,-3.38,3.35,3.42,3.70,1.06,1.11,1.14
58.58,-2.16,-3.26,-2.17,-3.28,3.28,3.40,3.68,1.13,1.12,1.11
59.16,-2.06,-3.14,-2.10,-3.18,3.21,3.39,3.67,1.16,1.12,1.08
59.76,-2.06,-3.11,-2.05,-3.10,3.14,3.38,3.65,1.09,1.10,1.05
60.35,-2.06,-3.06,-2.05,-3.06,3.08,3.37,3.63,1.02,1.03,1.01
60.96,-2.06,-3.03,-2.06,-3.02,3.02,3.36,3.61,0.96,0.96,0.97
61.57,-2.06,-2.97,-2.06,-2.98,2.97,3.35,3.58,0.91,0.91,0.92
62.18,-2.06,-2.94,-2.06,-2.94,2.93,3.34,3.56,0.87,0.87,0.88
62.80,-2.06,-2.90,-2.06,-2.90,2.89,3.33,3.53,0.84,0.84,0.85
63.43,-2.06,-2.86,-2.06,-2.86,2.86,3.32,3.50,0.80,0.80,0.80
64.07,-2.06,-2.83,-2.06,-2.83,2.82,3.32,3.46,0.77,0.77,0.77
64.71,-2.06,-2.79,-2.06,-2.79,2.78,3.31,3.43,0.73,0.73,0.73
65.35,-2.06,-2.76,-2.06,-2.76,2.74,3.31,3.39,0.68,0.68,0.71
66.01,-2.06,-2.72,-2.06,-2.73,2.69,3.30,3.35,0.64,0.64,0.67
66.67,-2.06,-2.71,-2.05,-2.70,2.66,3.30,3.31,0.60,0.60,0.65
67.33,-2.06,-2.68,-2.05,-2.67,2.65,3.29,3.27,0.59,0.60,0.62
68.01,-2.06,-2.66,-2.05,-2.65,2.67,3.29,3.22,0.61,0.61,0.60
68.69,-2.08,-2.65,-2.08,-2.65,2.73,3.28,3.18,0.65,0.65,0.58
69.37,-2.17,-2.72,-2.16,-2.72,2.83,3.28,3.13,0.66,0.67,0.56
70.07,-2.32,-2.85,-2.35,-2.88,2.98,3.27,3.08,0.67,0.64,0.54
70.77,-2.63,-3.15,-2.66,-3.19,3.20,3.27,3.03,0.57,0.54,0.52
71.48,-3.06,-3.57,-3.06,-3.57,3.45,3.26,2.98,0.39,0.39,0.51
72.19,-3.52,-4.00,-3.47,-3.96,3.71,3.25,2.93,0.19,0.24,0.49
72.91,-3.81,-4.27,-3.80,-4.27,3.93,3.24,2.88,0.13,0.13,0.46
73.64,-4.01,-4.44,-4.02,-4.46,4.10,3.23,2.83,0.10,0.09,0.44
74.38,-4.11,-4.53,-4.10,-4.52,4.20,3.22,2.78,0.09,0.09,0.42
75.12,-4.08,-4.47,-4.06,-4.46,4.20,3.21,2.73,0.13,0.14,0.40
75.87,-3.92,-4.29,-3.89,-4.27,4.13,3.19,2.68,0.21,0.24,0.37
76.63,-3.63,-3.98,-3.63,-3.98,4.00,3.17,2.63,0.38,0.37,0.35
77.40,-3.34,-3.67,-3.37,-3.70,3.82,3.16,2.58,0.49,0.46,0.33
78.17,-3.11,-3.42,-3.13,-3.45,3.61,3.14,2.53,0.50,0.48,0.32
78.95,-2.98,-3.29,-2.95,-3.26,3.37,3.11,2.49,0.40,0.42,0.32
79.74,-2.81,-3.11,-2.81,-3.11,3.14,3.09,2.44,0.33,0.33,0.31
80.54,-2.67,-2.96,-2.69,-2.99,2.94,3.06,2.40,0.27,0.24,0.30
81.35,-2.57,-2.86,-2.55,-2.85,2.78,3.03,2.35,0.21,0.23,0.30
82.16,-2.45,-2.74,-2.39,-2.69,2.65,3.00,2.31,0.20,0.26,0.30
82.98,-2.20,-2.50,-2.23,-2.53,2.54,2.97,2.27,0.35,0.31,0.30
83.81,-2.08,-2.38,-2.11,-2.41,2.47,2.93,2.23,0.39,0.36,0.30
84.65,-2.06,-2.37,-2.04,-2.35,2.42,2.89,2.20,0.37,0.38,0.31
85.50,-2.06,-2.38,-2.03,-2.35,2.41,2.86,2.16,0.36,0.38,0.33
86.35,-2.06,-2.39,-2.08,-2.41,2.44,2.81,2.13,0.38,0.36,0.33
87.22,-2.11,-2.45,-2.14,-2.48,2.50,2.77,2.09,0.39,0.36,0.35
88.09,-2.29,-2.64,-2.22,-2.58,2.58,2.73,2.06,0.29,0.35,0.35
88.97,-2.29,-2.65,-2.33,-2.70,2.66,2.68,2.03,0.38,0.33,0.37
89.86,-2.44,-2.82,-2.43,-2.80,2.75,2.64,2.00,0.31,0.32,0.38
90.76,-2.51,-2.88,-2.48,-2.86,2.82,2.59,1.98,0.31,0.34,0.37
91.66,-2.52,-2.90,-2.52,-2.91,2.87,2.54,1.95,0.35,0.35,0.39
92.58,-2.52,-2.90,-2.52,-2.91,2.91,2.49,1.93,0.39,0.39,0.38
93.51,-2.52,-2.91,-2.52,-2.91,2.93,2.44,1.91,0.42,0.42,0.39
94.44,-2.52,-2.91,-2.52,-2.91,2.94,2.39,1.89,0.42,0.42,0.40
95.39,-2.52,-2.90,-2.52,-2.91,2.93,2.34,1.87,0.41,0.41,0.39
96.34,-2.52,-2.90,-2.52,-2.91,2.91,2.29,1.85,0.39,0.38,0.38
97.30,-2.52,-2.90,-2.53,-2.91,2.87,2.23,1.83,0.36,0.34,0.38
98.28,-2.52,-2.89,-2.49,-2.86,2.83,2.18,1.82,0.31,0.34,0.37
99.26,-2.46,-2.82,-2.42,-2.79,2.78,2.13,1.80,0.32,0.35,0.36
100.25,-2.29,-2.64,-2.36,-2.71,2.71,2.08,1.79,0.43,0.36,0.36
101.25,-2.29,-2.63,-2.28,-2.63,2.64,2.03,1.78,0.36,0.36,0.35
102.27,-2.26,-2.59,-2.21,-2.54,2.57,1.98,1.76,0.31,0.36,0.34
103.29,-2.14,-2.44,-2.15,-2.46,2.48,1.93,1.75,0.34,0.33,0.31
104.32,-2.06,-2.34,-2.10,-2.38,2.38,1.88,1.74,0.33,0.29,0.29
105.37,-2.06,-2.32,-2.06,-2.31,2.29,1.83,1.73,0.23,0.24,0.26
106.42,-2.06,-2.29,-2.01,-2.23,2.20,1.78,1.72,0.15,0.19,0.23
107.48,-1.96,-2.14,-1.95,-2.13,2.12,1.73,1.71,0.16,0.17,0.18
108.56,-1.84,-1.97,-1.88,-2.01,2.04,1.69,1.70,0.20,0.16,0.13
109.64,-1.83,-1.92,-1.83,-1.92,1.96,1.64,1.70,0.13,0.13,0.09
110.74,-1.83,-1.87,-1.82,-1.86,1.89,1.59,1.69,0.06,0.07,0.04
111.85,-1.83,-1.83,-1.83,-1.82,1.82,1.55,1.68,-0.00,-0.00,0.00
112.97,-1.83,-1.76,-1.83,-1.77,1.77,1.50,1.67,-0.06,-0.06,-0.07
114.10,-1.83,-1.72,-1.83,-1.72,1.72,1.46,1.66,-0.11,-0.11,-0.10
115.24,-1.83,-1.66,-1.83,-1.66,1.67,1.42,1.65,-0.16,-0.16,-0.16
116.39,-1.83,-1.62,-1.83,-1.62,1.61,1.38,1.64,-0.22,-0.22,-0.21
117.55,-1.83,-1.57,-1.85,-1.59,1.54,1.34,1.62,-0.28,-0.30,-0.26
118.73,-1.83,-1.53,-1.81,-1.52,1.48,1.30,1.61,-0.35,-0.34,-0.30
119.92,-1.82,-1.49,-1.75,-1.42,1.41,1.26,1.60,-0.41,-0.34,-0.32
121.12,-1.61,-1.25,-1.68,-1.32,1.34,1.22,1.58,-0.26,-0.33,-0.36
122.33,-1.61,-1.22,-1.62,-1.23,1.28,1.18,1.57,-0.32,-0.33,-0.39
123.55,-1.61,-1.21,-1.59,-1.18,1.23,1.14,1.55,-0.38,-0.36,-0.40
124.79,-1.61,-1.18,-1.61,-1.18,1.18,1.11,1.53,-0.42,-0.42,-0.43
126.03,-1.61,-1.15,-1.61,-1.16,1.14,1.07,1.51,-0.46,-0.46,-0.45
127.29,-1.61,-1.14,-1.61,-1.13,1.12,1.04,1.49,-0.49,-0.49,-0.47
128.57,-1.61,-1.11,-1.61,-1.11,1.10,1.00,1.46,-0.51,-0.51,-0.50
129.85,-1.61,-1.08,-1.61,-1.08,1.08,0.97,1.44,-0.53,-0.53,-0.52
131.15,-1.61,-1.06,-1.61,-1.06,1.07,0.94,1.41,-0.54,-0.54,-0.55
132.46,-1.61,-1.04,-1.61,-1.04,1.05,0.90,1.39,-0.55,-0.55,-0.57
133.79,-1.61,-1.03,-1.61,-1.02,1.03,0.87,1.36,-0.57,-0.57,-0.58
135.12,-1.61,-0.99,-1.61,-1.00,1.01,0.84,1.33,-0.60,-0.60,-0.61
136.48,-1.61,-0.98,-1.61,-0.98,0.97,0.81,1.30,-0.63,-0.63,-0.62
137.84,-1.61,-0.95,-1.62,-0.96,0.93,0.78,1.27,-0.67,-0.68,-0.65
139.22,-1.61,-0.91,-1.61,-0.93,0.88,0.75,1.24,-0.72,-0.73,-0.69
140.61,-1.61,-0.89,-1.57,-0.86,0.83,0.72,1.20,-0.78,-0.74,-0.71
142.02,-1.50,-0.78,-1.50,-0.77,0.77,0.69,1.17,-0.72,-0.73,-0.72
143.44,-1.41,-0.66,-1.43,-0.68,0.71,0.66,1.14,-0.69,-0.72,-0.75
144.87,-1.38,-0.60,-1.38,-0.60,0.65,0.64,1.10,-0.73,-0.73,-0.78
146.32,-1.38,-0.56,-1.37,-0.56,0.59,0.61,1.07,-0.79,-0.78,-0.81
147.78,-1.38,-0.54,-1.37,-0.53,0.52,0.58,1.03,-0.86,-0.85,-0.84
149.26,-1.38,-0.50,-1.38,-0.50,0.46,0.56,1.00,-0.91,-0.91,-0.87
150.75,-1.38,-0.45,-1.38,-0.45,0.42,0.53,0.96,-0.96,-0.96,-0.93
152.26,-1.38,-0.39,-1.37,-0.39,0.38,0.50,0.92,-1.00,-0.99,-0.98
153.78,-1.38,-0.33,-1.36,-0.32,0.35,0.48,0.89,-1.02,-1.01,-1.05
155.32,-1.38,-0.27,-1.38,-0.28,0.33,0.45,0.85,-1.05,-1.06,-1.11
156.88,-1.40,-0.23,-1.44,-0.27,0.30,0.43,0.81,-1.09,-1.14,-1.16
158.44,-1.55,-0.32,-1.52,-0.29,0.28,0.40,0.78,-1.27,-1.24,-1.23
160.03,-1.61,-0.32,-1.58,-0.30,0.26,0.38,0.74,-1.34,-1.32,-1.29
161.63,-1.61,-0.28,-1.62,-0.28,0.25,0.35,0.70,-1.36,-1.37,-1.33
163.24,-1.61,-0.23,-1.61,-0.24,0.24,0.33,0.67,-1.37,-1.38,-1.38
164.88,-1.61,-0.20,-1.61,-0.20,0.22,0.30,0.63,-1.39,-1.39,-1.41
166.53,-1.61,-0.17,-1.61,-0.17,0.18,0.28,0.60,-1.42,-1.42,-1.44
168.19,-1.61,-0.14,-1.62,-0.15,0.14,0.25,0.56,-1.47,-1.48,-1.47
169.87,-1.61,-0.12,-1.61,-0.13,0.09,0.22,0.53,-1.52,-1.52,-1.48
171.57,-1.61,-0.11,-1.56,-0.07,0.04,0.20,0.49,-1.57,-1.52,-1.49
173.29,-1.47,0.02,-1.48,0.01,-0.00,0.17,0.46,-1.47,-1.49,-1.49
175.02,-1.38,0.11,-1.41,0.08,-0.04,0.15,0.42,-1.41,-1.45,-1.49
176.77,-1.38,0.12,-1.37,0.12,-0.07,0.12,0.39,-1.44,-1.43,-1.49
178.54,-1.38,0.11,-1.37,0.12,-0.09,0.10,0.35,-1.47,-1.46,-1.49
180.32,-1.38,0.11,-1.38,0.11,-0.11,0.07,0.32,-1.49,-1.49,-1.48
182.13,-1.38,0.10,-1.38,0.10,-0.12,0.04,0.29,-1.50,-1.50,-1.48
183.95,-1.38,0.11,-1.38,0.10,-0.12,0.01,0.25,-1.50,-1.50,-1.48
185.79,-1.38,0.10,-1.38,0.11,-0.12,-0.01,0.22,-1.50,-1.50,-1.48
187.65,-1.38,0.12,-1.38,0.12,-0.12,-0.04,0.19,-1.50,-1.50,-1.50
189.52,-1.38,0.14,-1.38,0.13,-0.13,-0.07,0.15,-1.51,-1.51,-1.51
191.42,-1.38,0.15,-1.38,0.15,-0.14,-0.10,0.12,-1.52,-1.52,-1.52
193.33,-1.38,0.16,-1.38,0.16,-0.16,-0.13,0.09,-1.53,-1.53,-1.54
195.27,-1.38,0.17,-1.38,0.17,-0.17,-0.16,0.06,-1.55,-1.55,-1.55
197.22,-1.38,0.18,-1.38,0.19,-0.19,-0.18,0.02,-1.57,-1.57,-1.56
199.19,-1.38,0.21,-1.38,0.21,-0.21,-0.21,-0.01,-1.58,-1.58,-1.59
201.18,-1.38,0.22,-1.38,0.22,-0.22,-0.24,-0.04,-1.60,-1.60,-1.60
203.19,-1.38,0.23,-1.38,0.24,-0.24,-0.27,-0.07,-1.61,-1.61,-1.61
205.23,-1.38,0.25,-1.38,0.25,-0.25,-0.29,-0.10,-1.63,-1.63,-1.63
207.28,-1.38,0.26,-1.38,0.27,-0.27,-0.32,-0.13,-1.65,-1.65,-1.64
209.35,-1.38,0.28,-1.38,0.29,-0.29,-0.34,-0.15,-1.66,-1.66,-1.66
211.44,-1.38,0.31,-1.38,0.30,-0.30,-0.36,-0.18,-1.68,-1.68,-1.69
213.56,-1.38,0.32,-1.38,0.32,-0.32,-0.38,-0.21,-1.69,-1.69,-1.70
215.69,-1.38,0.32,-1.38,0.33,-0.33,-0.40,-0.24,-1.71,-1.71,-1.69
217.85,-1.38,0.34,-1.38,0.34,-0.34,-0.41,-0.26,-1.72,-1.72,-1.71
220.03,-1.38,0.35,-1.38,0.35,-0.35,-0.42,-0.28,-1.73,-1.73,-1.73
222.23,-1.38,0.37,-1.38,0.37,-0.36,-0.43,-0.31,-1.74,-1.74,-1.75
224.45,-1.38,0.37,-1.38,0.37,-0.37,-0.43,-0.33,-1.74,-1.74,-1.75
226.70,-1.38,0.38,-1.38,0.37,-0.37,-0.43,-0.35,-1.75,-1.75,-1.75
228.96,-1.38,0.37,-1.38,0.37,-0.38,-0.43,-0.37,-1.75,-1.75,-1.75
231.25,-1.38,0.37,-1.38,0.37,-0.38,-0.42,-0.39,-1.76,-1.76,-1.75
233.57,-1.38,0.38,-1.38,0.38,-0.38,-0.41,-0.40,-1.76,-1.76,-1.75
235.90,-1.38,0.38,-1.38,0.38,-0.38,-0.40,-0.42,-1.75,-1.75,-1.76
238.26,-1.38,0.38,-1.38,0.38,-0.37,-0.38,-0.43,-1.75,-1.75,-1.75
240.64,-1.38,0.37,-1.38,0.37,-0.37,-0.37,-0.44,-1.74,-1.74,-1.75
243.05,-1.38,0.36,-1.38,0.36,-0.36,-0.35,-0.45,-1.73,-1.73,-1.73
245.48,-1.38,0.34,-1.38,0.35,-0.34,-0.33,-0.45,-1.72,-1.72,-1.72
247.93,-1.38,0.33,-1.38,0.33,-0.33,-0.31,-0.46,-1.71,-1.71,-1.70
250.41,-1.38,0.32,-1.38,0.32,-0.32,-0.29,-0.46,-1.69,-1.69,-1.70
252.92,-1.38,0.30,-1.38,0.30,-0.30,-0.26,-0.46,-1.67,-1.67,-1.67
255.45,-1.38,0.27,-1.38,0.28,-0.28,-0.24,-0.46,-1.66,-1.66,-1.65
258.00,-1.38,0.26,-1.38,0.26,-0.26,-0.22,-0.46,-1.64,-1.64,-1.63
260.58,-1.38,0.25,-1.38,0.24,-0.24,-0.19,-0.45,-1.62,-1.62,-1.63
263.19,-1.38,0.22,-1.38,0.23,-0.23,-0.17,-0.45,-1.60,-1.60,-1.60
265.82,-1.38,0.21,-1.38,0.21,-0.21,-0.15,-0.44,-1.58,-1.58,-1.58
268.48,-1.38,0.19,-1.38,0.19,-0.19,-0.13,-0.43,-1.56,-1.56,-1.57
271.16,-1.38,0.16,-1.38,0.17,-0.17,-0.10,-0.41,-1.54,-1.54,-1.54
273.87,-1.38,0.15,-1.38,0.15,-0.15,-0.08,-0.40,-1.52,-1.52,-1.52
276.61,-1.38,0.12,-1.38,0.12,-0.12,-0.06,-0.39,-1.50,-1.50,-1.50
279.38,-1.38,0.10,-1.38,0.10,-0.10,-0.04,-0.37,-1.48,-1.48,-1.48
282.17,-1.38,0.08,-1.38,0.08,-0.07,-0.02,-0.35,-1.45,-1.45,-1.45
284.99,-1.38,0.05,-1.38,0.05,-0.05,0.01,-0.33,-1.42,-1.42,-1.43
287.84,-1.38,0.02,-1.38,0.02,-0.02,0.03,-0.31,-1.40,-1.40,-1.40
290.72,-1.38,-0.00,-1.38,-0.00,-0.00,0.05,-0.29,-1.38,-1.38,-1.37
293.63,-1.38,-0.02,-1.38,-0.03,0.02,0.07,-0.27,-1.36,-1.36,-1.35
296.57,-1.38,-0.06,-1.38,-0.05,0.04,0.09,-0.25,-1.34,-1.34,-1.32
299.53,-1.38,-0.08,-1.38,-0.07,0.06,0.11,-0.22,-1.31,-1.31,-1.30
302.53,-1.38,-0.08,-1.38,-0.09,0.10,0.13,-0.20,-1.28,-1.28,-1.29
305.55,-1.38,-0.12,-1.36,-0.10,0.15,0.15,-0.17,-1.23,-1.22,-1.25
308.61,-1.38,-0.13,-1.38,-0.13,0.20,0.17,-0.15,-1.18,-1.18,-1.25
311.69,-1.38,-0.16,-1.43,-0.21,0.25,0.19,-0.12,-1.13,-1.18,-1.22
314.81,-1.52,-0.32,-1.50,-0.29,0.29,0.20,-0.10,-1.23,-1.21,-1.20
317.96,-1.60,-0.40,-1.57,-0.37,0.32,0.22,-0.07,-1.28,-1.25,-1.19
321.14,-1.61,-0.41,-1.62,-0.43,0.33,0.24,-0.04,-1.27,-1.29,-1.19
324.35,-1.61,-0.41,-1.60,-0.41,0.34,0.26,-0.02,-1.27,-1.26,-1.20
327.59,-1.57,-0.39,-1.53,-0.35,0.33,0.28,0.01,-1.23,-1.20,-1.18
330.87,-1.43,-0.26,-1.46,-0.28,0.32,0.29,0.04,-1.11,-1.14,-1.17
334.18,-1.38,-0.21,-1.40,-0.23,0.30,0.31,0.07,-1.08,-1.10,-1.17
337.52,-1.38,-0.22,-1.37,-0.21,0.27,0.33,0.10,-1.10,-1.09,-1.15
340.90,-1.38,-0.24,-1.37,-0.24,0.26,0.35,0.12,-1.12,-1.12,-1.13
344.30,-1.38,-0.26,-1.38,-0.26,0.25,0.36,0.15,-1.12,-1.12,-1.11
347.75,-1.38,-0.28,-1.38,-0.28,0.26,0.38,0.18,-1.11,-1.11,-1.10
351.23,-1.38,-0.30,-1.38,-0.30,0.29,0.39,0.21,-1.09,-1.09,-1.08
354.74,-1.38,-0.32,-1.38,-0.32,0.31,0.41,0.24,-1.06,-1.06,-1.06
358.28,-1.38,-0.35,-1.38,-0.34,0.34,0.42,0.27,-1.03,-1.03,-1.03
361.87,-1.38,-0.37,-1.38,-0.37,0.37,0.43,0.30,-1.01,-1.01,-1.01
365.49,-1.38,-0.39,-1.38,-0.39,0.39,0.44,0.33,-0.99,-0.99,-0.98
369.14,-1.38,-0.40,-1.38,-0.41,0.41,0.46,0.36,-0.97,-0.97,-0.97
372.83,-1.38,-0.42,-1.38,-0.42,0.43,0.47,0.39,-0.95,-0.95,-0.95
376.56,-1.38,-0.44,-1.38,-0.45,0.45,0.48,0.42,-0.93,-0.93,-0.94
380.33,-1.38,-0.47,-1.38,-0.47,0.46,0.49,0.45,-0.91,-0.91,-0.91
384.13,-1.38,-0.49,-1.38,-0.48,0.48,0.50,0.48,-0.90,-0.90,-0.89
387.97,-1.38,-0.49,-1.38,-0.49,0.49,0.50,0.51,-0.88,-0.88,-0.89
391.85,-1.38,-0.50,-1.38,-0.50,0.50,0.51,0.54,-0.87,-0.87,-0.88
395.77,-1.38,-0.52,-1.38,-0.51,0.52,0.52,0.57,-0.86,-0.86,-0.86
399.73,-1.38,-0.53,-1.38,-0.53,0.53,0.52,0.60,-0.85,-0.85,-0.85
403.72,-1.38,-0.54,-1.38,-0.54,0.54,0.53,0.63,-0.84,-0.84,-0.84
407.76,-1.38,-0.54,-1.38,-0.54,0.55,0.53,0.66,-0.83,-0.83,-0.83
411.84,-1.38,-0.55,-1.38,-0.56,0.55,0.53,0.69,-0.82,-0.82,-0.82
415.96,-1.38,-0.56,-1.38,-0.56,0.56,0.54,0.71,-0.82,-0.82,-0.81
420.12,-1.38,-0.57,-1.38,-0.57,0.57,0.54,0.74,-0.81,-0.81,-0.80
424.32,-1.38,-0.57,-1.38,-0.58,0.57,0.54,0.77,-0.80,-0.80,-0.80
428.56,-1.38,-0.58,-1.38,-0.58,0.58,0.54,0.80,-0.80,-0.80,-0.79
432.85,-1.38,-0.58,-1.38,-0.58,0.59,0.54,0.82,-0.79,-0.79,-0.80
437.18,-1.38,-0.59,-1.38,-0.59,0.59,0.54,0.85,-0.78,-0.78,-0.79
441.55,-1.38,-0.60,-1.38,-0.60,0.60,0.54,0.87,-0.78,-0.78,-0.78
445.96,-1.38,-0.61,-1.38,-0.61,0.61,0.54,0.90,-0.77,-0.77,-0.77
450.42,-1.38,-0.61,-1.38,-0.61,0.61,0.54,0.92,-0.76,-0.76,-0.77
454.93,-1.38,-0.63,-1.38,-0.62,0.63,0.54,0.94,-0.75,-0.75,-0.75
459.48,-1.38,-0.63,-1.38,-0.64,0.64,0.54,0.96,-0.73,-0.73,-0.75
464.07,-1.38,-0.65,-1.38,-0.65,0.66,0.54,0.98,-0.72,-0.72,-0.73
468.71,-1.38,-0.67,-1.38,-0.66,0.67,0.54,0.99,-0.70,-0.70,-0.71
473.40,-1.38,-0.67,-1.38,-0.67,0.68,0.55,1.01,-0.70,-0.70,-0.71
478.13,-1.38,-0.69,-1.38,-0.69,0.67,0.55,1.02,-0.70,-0.71,-0.69
