frequency,raw,error,smoothed,error_smoothed,equalization,parametric_eq,fixed_band_eq,equalized_raw,equalized_smoothed,target
20.00,-12.92,-13.37,-12.91,-13.37,6.00,6.83,2.83,-6.92,-6.91,0.45
20.20,-12.79,-13.28,-12.79,-13.28,6.00,6.81,2.92,-6.79,-6.79,0.49
20.40,-12.66,-13.20,-12.66,-13.19,6.00,6.79,3.00,-6.66,-6.66,0.53
20.61,-12.54,-13.09,-12.54,-13.09,6.00,6.78,3.08,-6.54,-6.54,0.55
20.81,-12.40,-12.99,-12.41,-13.00,6.00,6.76,3.17,-6.40,-6.41,0.59
21.02,-12.29,-12.92,-12.28,-12.90,6.00,6.74,3.26,-6.29,-6.28,0.63
21.23,-12.16,-12.80,-12.15,-12.81,6.00,6.72,3.35,-6.16,-6.15,0.65
21.44,-12.02,-12.69,-12.03,-12.70,6.00,6.70,3.45,-6.02,-6.03,0.67
21.66,-11.90,-12.59,-11.89,-12.58,6.00,6.69,3.55,-5.90,-5.89,0.69
21.87,-11.76,-12.46,-11.76,-12.46,6.00,6.67,3.65,-5.76,-5.76,0.70
22.09,-11.62,-12.34,-11.63,-12.34,6.00,6.65,3.76,-5.62,-5.63,0.72
22.31,-11.49,-12.22,-11.49,-12.22,6.00,6.63,3.86,-5.49,-5.49,0.73
22.54,-11.37,-12.09,-11.37,-12.10,6.00,6.61,3.97,-5.37,-5.37,0.73
22.76,-11.23,-11.97,-11.24,-11.97,6.00,6.59,4.09,-5.23,-5.24,0.74
22.99,-11.11,-11.84,-11.10,-11.84,6.00,6.57,4.20,-5.11,-5.10,0.74
23.22,-10.97,-11.71,-10.97,-11.72,6.00,6.55,4.32,-4.97,-4.97,0.75
23.45,-10.83,-11.59,-10.84,-11.59,6.00,6.52,4.44,-4.83,-4.84,0.76
23.69,-10.71,-11.47,-10.70,-11.47,6.00,6.50,4.57,-4.71,-4.70,0.76
23.92,-10.56,-11.35,-10.57,-11.35,6.00,6.48,4.69,-4.56,-4.57,0.78
24.16,-10.43,-11.24,-10.43,-11.23,6.00,6.46,4.82,-4.43,-4.43,0.80
24.40,-10.30,-11.12,-10.30,-11.11,6.00,6.44,4.95,-4.30,-4.30,0.81
24.65,-10.17,-10.98,-10.17,-10.99,6.00,6.41,5.08,-4.17,-4.17,0.81
24.89,-10.03,-10.87,-10.03,-10.86,6.00,6.39,5.22,-4.03,-4.03,0.83
25.14,-9.89,-10.74,-9.90,-10.74,6.00,6.37,5.35,-3.89,-3.90,0.84
25.39,-9.76,-10.61,-9.76,-10.61,6.00,6.35,5.49,-3.76,-3.76,0.85
25.65,-9.63,-10.49,-9.63,-10.49,6.00,6.32,5.63,-3.63,-3.63,0.86
25.91,-9.50,-10.37,-9.49,-10.36,6.00,6.30,5.77,-3.50,-3.49,0.87
26.16,-9.35,-10.23,-9.36,-10.24,6.00,6.28,5.91,-3.35,-3.36,0.88
26.43,-9.23,-10.12,-9.22,-10.11,6.00,6.25,6.04,-3.23,-3.22,0.89
26.69,-9.09,-9.99,-9.09,-9.99,6.00,6.23,6.18,-3.09,-3.09,0.91
26.96,-8.95,-9.86,-8.95,-9.87,6.00,6.21,6.31,-2.95,-2.95,0.92
27.23,-8.82,-9.74,-8.81,-9.74,6.00,6.18,6.44,-2.82,-2.81,0.93
27.50,-8.68,-9.62,-8.68,-9.62,6.00,6.16,6.57,-2.68,-2.68,0.94
27.77,-8.54,-9.49,-8.54,-9.49,6.00,6.14,6.70,-2.54,-2.54,0.94
28.05,-8.40,-9.37,-8.41,-9.36,6.00,6.12,6.82,-2.40,-2.41,0.96
28.33,-8.27,-9.24,-8.27,-9.24,6.00,6.09,6.92,-2.27,-2.27,0.96
28.62,-8.14,-9.12,-8.14,-9.12,6.00,6.07,7.03,-2.14,-2.14,0.98
28.90,-8.00,-8.99,-8.00,-8.99,6.00,6.05,7.13,-2.00,-2.00,0.99
29.19,-7.87,-8.86,-7.87,-8.87,6.00,6.03,7.21,-1.87,-1.87,1.00
29.48,-7.73,-8.75,-7.73,-8.75,6.00,6.01,7.29,-1.73,-1.73,1.02
29.78,-7.60,-8.62,-7.60,-8.63,6.00,5.99,7.36,-1.60,-1.60,1.03
30.08,-7.47,-8.50,-7.47,-8.50,6.00,5.98,7.41,-1.47,-1.47,1.04
30.38,-7.34,-8.38,-7.34,-8.38,6.00,5.96,7.45,-1.34,-1.34,1.04
30.68,-7.21,-8.26,-7.21,-8.26,6.00,5.95,7.48,-1.21,-1.21,1.05
30.99,-7.08,-8.14,-7.07,-8.14,6.00,5.93,7.50,-1.08,-1.07,1.06
31.30,-6.94,-8.01,-6.94,-8.01,6.00,5.93,7.49,-0.94,-0.94,1.07
31.61,-6.81,-7.89,-6.81,-7.89,6.00,5.92,7.48,-0.81,-0.81,1.09
31.93,-6.68,-7.76,-6.68,-7.77,6.00,5.91,7.45,-0.68,-0.68,1.09
32.24,-6.54,-7.64,-6.55,-7.64,6.00,5.91,7.42,-0.54,-0.55,1.10
32.57,-6.42,-7.52,-6.41,-7.52,6.00,5.91,7.36,-0.42,-0.41,1.10
32.89,-6.27,-7.40,-6.28,-7.40,6.00,5.92,7.30,-0.27,-0.28,1.12
33.22,-6.14,-7.27,-6.15,-7.27,6.00,5.93,7.22,-0.14,-0.15,1.12
33.55,-6.02,-7.16,-6.02,-7.15,6.00,5.93,7.13,-0.02,-0.02,1.14
33.89,-5.90,-7.03,-5.90,-7.04,6.00,5.94,7.03,0.10,0.10,1.14
34.23,-5.77,-6.92,-5.77,-6.92,6.00,5.95,6.93,0.23,0.23,1.16
34.57,-5.65,-6.80,-5.64,-6.80,6.00,5.95,6.81,0.36,0.36,1.15
34.92,-5.52,-6.68,-5.52,-6.68,6.01,5.95,6.69,0.49,0.49,1.16
35.27,-5.40,-6.57,-5.40,-6.56,6.02,5.94,6.56,0.62,0.62,1.17
35.62,-5.28,-6.44,-5.27,-6.44,6.02,5.92,6.43,0.75,0.75,1.17
35.97,-5.15,-6.32,-5.16,-6.33,6.02,5.87,6.29,0.86,0.86,1.16
36.33,-5.03,-6.22,-5.03,-6.21,5.99,5.82,6.15,0.96,0.96,1.18
36.70,-4.92,-6.10,-4.92,-6.09,5.96,5.75,6.01,1.04,1.04,1.18
37.06,-4.79,-5.96,-4.79,-5.97,5.90,5.67,5.86,1.10,1.10,1.17
37.43,-4.67,-5.85,-4.67,-5.84,5.82,5.58,5.72,1.15,1.15,1.17
37.81,-4.55,-5.72,-4.55,-5.72,5.73,5.48,5.57,1.18,1.18,1.17
38.19,-4.43,-5.59,-4.43,-5.60,5.61,5.38,5.42,1.19,1.19,1.17
38.57,-4.31,-5.48,-4.30,-5.47,5.49,5.27,5.27,1.18,1.19,1.18
38.95,-4.17,-5.34,-4.18,-5.34,5.36,5.16,5.13,1.18,1.18,1.16
39.34,-4.05,-5.21,-4.06,-5.21,5.22,5.06,4.98,1.17,1.17,1.16
39.74,-3.94,-5.08,-3.93,-5.08,5.09,4.95,4.84,1.15,1.16,1.15
40.14,-3.82,-4.97,-3.82,-4.96,4.97,4.85,4.70,1.15,1.15,1.15
40.54,-3.70,-4.84,-3.70,-4.84,4.84,4.75,4.56,1.15,1.14,1.14
40.94,-3.58,-4.73,-3.58,-4.72,4.72,4.65,4.42,1.14,1.14,1.14
41.35,-3.47,-4.61,-3.46,-4.60,4.60,4.56,4.28,1.14,1.14,1.14
41.76,-3.34,-4.48,-3.35,-4.49,4.48,4.47,4.15,1.14,1.14,1.14
42.18,-3.22,-4.37,-3.23,-4.37,4.37,4.38,4.02,1.14,1.14,1.14
42.60,-3.11,-4.25,-3.11,-4.25,4.25,4.29,3.89,1.14,1.14,1.14
43.03,-3.00,-4.14,-3.00,-4.14,4.14,4.21,3.76,1.14,1.14,1.14
43.46,-2.89,-4.02,-2.89,-4.03,4.02,4.12,3.64,1.14,1.13,1.14
43.90,-2.79,-3.92,-2.78,-3.91,3.91,4.04,3.52,1.13,1.13,1.13
44.33,-2.67,-3.80,-2.68,-3.81,3.80,3.96,3.40,1.13,1.13,1.13
44.78,-2.57,-3.69,-2.57,-3.70,3.70,3.88,3.28,1.13,1.13,1.12
45.23,-2.47,-3.60,-2.46,-3.58,3.60,3.80,3.17,1.13,1.14,1.13
45.68,-2.36,-3.48,-2.36,-3.49,3.50,3.72,3.06,1.14,1.14,1.12
46.13,-2.25,-3.38,-2.26,-3.40,3.40,3.64,2.95,1.14,1.14,1.13
46.60,-2.18,-3.32,-2.17,-3.30,3.30,3.56,2.84,1.13,1.13,1.14
47.06,-2.09,-3.22,-2.08,-3.22,3.21,3.48,2.74,1.12,1.13,1.14
47.53,-1.98,-3.11,-1.98,-3.12,3.11,3.40,2.64,1.14,1.13,1.14
48.01,-1.88,-3.03,-1.88,-3.02,3.01,3.32,2.54,1.14,1.14,1.15
48.49,-1.78,-2.92,-1.78,-2.92,2.92,3.24,2.44,1.14,1.14,1.15
48.97,-1.69,-2.81,-1.69,-2.82,2.82,3.16,2.35,1.13,1.13,1.13
49.46,-1.60,-2.72,-1.59,-2.71,2.72,3.07,2.26,1.12,1.13,1.12
49.96,-1.51,-2.61,-1.51,-2.62,2.62,2.99,2.17,1.12,1.12,1.10
50.46,-1.42,-2.53,-1.42,-2.53,2.53,2.91,2.08,1.11,1.11,1.12
50.96,-1.34,-2.44,-1.33,-2.43,2.44,2.83,1.99,1.10,1.11,1.11
51.47,-1.25,-2.33,-1.25,-2.35,2.35,2.75,1.91,1.10,1.10,1.09
51.99,-1.17,-2.26,-1.17,-2.26,2.27,2.67,1.83,1.10,1.10,1.09
52.51,-1.10,-2.19,-1.09,-2.18,2.18,2.58,1.75,1.09,1.09,1.09
53.03,-1.03,-2.11,-1.03,-2.11,2.10,2.50,1.67,1.07,1.07,1.08
53.56,-0.96,-2.03,-0.96,-2.02,2.01,2.42,1.59,1.06,1.06,1.07
54.10,-0.89,-1.94,-0.88,-1.94,1.93,2.33,1.52,1.05,1.05,1.05
54.64,-0.81,-1.85,-0.81,-1.85,1.85,2.25,1.44,1.04,1.04,1.04
55.18,-0.73,-1.77,-0.73,-1.76,1.77,2.16,1.37,1.03,1.03,1.03
55.74,-0.66,-1.67,-0.66,-1.68,1.68,2.08,1.30,1.03,1.02,1.01
56.29,-0.60,-1.60,-0.60,-1.60,1.60,1.99,1.24,1.00,1.00,1.01
56.86,-0.54,-1.52,-0.53,-1.52,1.52,1.91,1.17,0.98,0.99,0.99
57.42,-0.47,-1.43,-0.47,-1.44,1.44,1.82,1.11,0.97,0.97,0.96
58.00,-0.41,-1.36,-0.41,-1.36,1.36,1.74,1.04,0.95,0.95,0.95
58.58,-0.35,-1.28,-0.34,-1.28,1.28,1.65,0.98,0.93,0.94,0.94
59.16,-0.28,-1.20,-0.28,-1.21,1.20,1.56,0.92,0.92,0.92,0.93
59.76,-0.22,-1.13,-0.21,-1.12,1.12,1.48,0.87,0.90,0.90,0.91
60.35,-0.16,-1.04,-0.15,-1.04,1.04,1.39,0.81,0.88,0.89,0.89
60.96,-0.09,-0.95,-0.09,-0.95,0.95,1.30,0.76,0.87,0.86,0.86
61.57,-0.04,-0.86,-0.04,-0.87,0.87,1.22,0.70,0.84,0.83,0.83
62.18,0.01,-0.79,0.02,-0.79,0.79,1.13,0.65,0.80,0.80,0.80
62.80,0.06,-0.71,0.07,-0.70,0.71,1.04,0.60,0.77,0.77,0.78
63.43,0.12,-0.62,0.12,-0.63,0.62,0.96,0.55,0.75,0.75,0.75
64.07,0.18,-0.54,0.18,-0.54,0.54,0.87,0.50,0.73,0.72,0.72
64.71,0.23,-0.47,0.24,-0.46,0.46,0.78,0.46,0.70,0.70,0.70
65.35,0.29,-0.38,0.30,-0.38,0.38,0.70,0.41,0.68,0.68,0.68
66.01,0.35,-0.30,0.35,-0.30,0.30,0.61,0.37,0.66,0.65,0.66
66.67,0.40,-0.22,0.41,-0.22,0.23,0.53,0.33,0.63,0.63,0.63
67.33,0.45,-0.14,0.46,-0.15,0.15,0.44,0.29,0.60,0.61,0.60
68.01,0.50,-0.07,0.50,-0.07,0.07,0.36,0.25,0.58,0.58,0.58
68.69,0.55,0.01,0.55,0.00,0.00,0.27,0.21,0.55,0.55,0.55
69.37,0.59,0.07,0.60,0.07,-0.07,0.19,0.17,0.52,0.52,0.53
70.07,0.64,0.14,0.64,0.14,-0.15,0.11,0.13,0.50,0.50,0.51
70.77,0.69,0.21,0.69,0.21,-0.22,0.03,0.09,0.48,0.48,0.48
71.48,0.74,0.28,0.74,0.28,-0.29,-0.05,0.05,0.46,0.46,0.46
72.19,0.79,0.36,0.79,0.36,-0.35,-0.13,0.02,0.44,0.44,0.44
72.91,0.83,0.42,0.84,0.42,-0.42,-0.21,-0.02,0.42,0.42,0.41
73.64,0.87,0.49,0.88,0.49,-0.48,-0.29,-0.06,0.40,0.40,0.39
74.38,0.91,0.54,0.91,0.54,-0.54,-0.36,-0.09,0.38,0.38,0.37
75.12,0.95,0.60,0.95,0.59,-0.59,-0.44,-0.13,0.36,0.36,0.36
75.87,0.98,0.63,0.99,0.64,-0.64,-0.51,-0.17,0.34,0.34,0.35
76.63,1.02,0.69,1.02,0.69,-0.70,-0.59,-0.20,0.33,0.33,0.33
77.40,1.06,0.74,1.06,0.74,-0.74,-0.66,-0.24,0.32,0.32,0.33
78.17,1.10,0.80,1.11,0.79,-0.79,-0.73,-0.27,0.31,0.31,0.31
78.95,1.15,0.84,1.15,0.84,-0.84,-0.80,-0.31,0.31,0.31,0.31
79.74,1.19,0.89,1.19,0.89,-0.89,-0.86,-0.35,0.30,0.30,0.30
80.54,1.23,0.94,1.23,0.94,-0.94,-0.93,-0.38,0.29,0.29,0.29
81.35,1.26,0.98,1.27,0.99,-0.99,-0.99,-0.42,0.27,0.28,0.28
82.16,1.30,1.03,1.31,1.04,-1.04,-1.06,-0.46,0.27,0.27,0.27
82.98,1.35,1.08,1.35,1.09,-1.08,-1.12,-0.50,0.27,0.27,0.27
83.81,1.38,1.14,1.39,1.13,-1.12,-1.18,-0.54,0.27,0.27,0.25
84.65,1.41,1.17,1.41,1.17,-1.16,-1.23,-0.58,0.26,0.26,0.25
85.50,1.43,1.19,1.43,1.20,-1.19,-1.29,-0.62,0.24,0.24,0.24
86.35,1.45,1.22,1.45,1.22,-1.23,-1.34,-0.66,0.23,0.23,0.23
87.22,1.47,1.25,1.47,1.25,-1.26,-1.40,-0.70,0.21,0.21,0.23
88.09,1.49,1.28,1.50,1.28,-1.30,-1.45,-0.74,0.20,0.20,0.21
88.97,1.53,1.32,1.53,1.32,-1.33,-1.50,-0.79,0.20,0.20,0.22
89.86,1.56,1.36,1.57,1.36,-1.37,-1.55,-0.83,0.20,0.20,0.20
90.76,1.60,1.42,1.61,1.41,-1.40,-1.59,-0.87,0.20,0.20,0.19
91.66,1.64,1.45,1.64,1.46,-1.44,-1.64,-0.92,0.20,0.20,0.19
92.58,1.67,1.50,1.67,1.49,-1.48,-1.68,-0.97,0.20,0.19,0.18
93.51,1.69,1.52,1.70,1.52,-1.52,-1.72,-1.01,0.18,0.18,0.18
94.44,1.71,1.54,1.72,1.55,-1.56,-1.76,-1.06,0.15,0.16,0.17
95.39,1.74,1.58,1.74,1.58,-1.60,-1.80,-1.11,0.14,0.14,0.17
96.34,1.77,1.64,1.78,1.63,-1.64,-1.84,-1.16,0.13,0.13,0.14
97.30,1.81,1.68,1.81,1.68,-1.68,-1.87,-1.20,0.13,0.13,0.13
98.28,1.84,1.72,1.85,1.73,-1.72,-1.90,-1.25,0.12,0.13,0.12
99.26,1.88,1.78,1.88,1.77,-1.76,-1.94,-1.30,0.12,0.12,0.11
100.25,1.89,1.80,1.90,1.80,-1.79,-1.97,-1.35,0.10,0.10,0.10
101.25,1.90,1.82,1.90,1.82,-1.82,-2.00,-1.40,0.09,0.09,0.08
102.27,1.89,1.83,1.90,1.84,-1.83,-2.03,-1.45,0.06,0.07,0.06
103.29,1.88,1.85,1.89,1.85,-1.84,-2.05,-1.50,0.04,0.05,0.03
104.32,1.87,1.85,1.87,1.85,-1.84,-2.08,-1.55,0.03,0.02,0.02
105.37,1.83,1.84,1.84,1.84,-1.84,-2.10,-1.60,-0.00,0.00,-0.00
106.42,1.79,1.82,1.80,1.82,-1.83,-2.13,-1.65,-0.03,-0.03,-0.02
107.48,1.76,1.81,1.76,1.81,-1.82,-2.15,-1.70,-0.05,-0.06,-0.05
108.56,1.72,1.81,1.72,1.81,-1.81,-2.17,-1.75,-0.09,-0.09,-0.09
109.64,1.68,1.80,1.69,1.80,-1.81,-2.19,-1.80,-0.12,-0.12,-0.12
110.74,1.65,1.81,1.65,1.80,-1.81,-2.21,-1.84,-0.15,-0.16,-0.15
111.85,1.61,1.80,1.62,1.81,-1.82,-2.23,-1.89,-0.20,-0.20,-0.18
112.97,1.59,1.82,1.59,1.82,-1.83,-2.24,-1.93,-0.23,-0.24,-0.23
114.10,1.57,1.84,1.57,1.84,-1.85,-2.26,-1.97,-0.27,-0.27,-0.27
115.24,1.55,1.86,1.56,1.87,-1.87,-2.27,-2.01,-0.31,-0.31,-0.31
116.39,1.54,1.90,1.54,1.89,-1.89,-2.29,-2.05,-0.34,-0.35,-0.35
117.55,1.52,1.91,1.52,1.92,-1.91,-2.30,-2.08,-0.38,-0.38,-0.39
118.73,1.50,1.94,1.50,1.93,-1.93,-2.31,-2.12,-0.42,-0.42,-0.44
119.92,1.47,1.95,1.48,1.95,-1.94,-2.32,-2.15,-0.47,-0.46,-0.47
121.12,1.44,1.95,1.45,1.96,-1.95,-2.33,-2.18,-0.50,-0.50,-0.51
122.33,1.42,1.97,1.42,1.96,-1.96,-2.34,-2.20,-0.53,-0.53,-0.54
123.55,1.39,1.96,1.39,1.96,-1.96,-2.35,-2.22,-0.57,-0.57,-0.57
124.79,1.35,1.96,1.36,1.96,-1.96,-2.36,-2.24,-0.61,-0.61,-0.60
126.03,1.31,1.95,1.32,1.96,-1.97,-2.36,-2.26,-0.65,-0.65,-0.64
127.29,1.29,1.96,1.29,1.97,-1.97,-2.37,-2.27,-0.68,-0.68,-0.67
128.57,1.27,1.99,1.27,1.98,-1.98,-2.37,-2.28,-0.71,-0.71,-0.71
129.85,1.24,1.98,1.25,1.99,-1.99,-2.38,-2.29,-0.75,-0.74,-0.74
131.15,1.23,2.00,1.23,2.00,-2.00,-2.38,-2.29,-0.77,-0.77,-0.77
132.46,1.22,2.02,1.22,2.01,-2.02,-2.39,-2.29,-0.79,-0.80,-0.79
133.79,1.21,2.03,1.22,2.03,-2.03,-2.39,-2.30,-0.82,-0.82,-0.81
135.12,1.20,2.05,1.20,2.04,-2.04,-2.39,-2.29,-0.84,-0.84,-0.84
136.48,1.19,2.06,1.19,2.06,-2.05,-2.39,-2.29,-0.86,-0.86,-0.86
137.84,1.17,2.06,1.18,2.07,-2.05,-2.39,-2.28,-0.88,-0.88,-0.88
139.22,1.15,2.08,1.15,2.07,-2.06,-2.39,-2.28,-0.90,-0.90,-0.92
140.61,1.12,2.07,1.12,2.06,-2.05,-2.39,-2.27,-0.93,-0.93,-0.94
142.02,1.08,2.03,1.09,2.04,-2.05,-2.39,-2.26,-0.96,-0.96,-0.95
143.44,1.05,2.03,1.06,2.03,-2.04,-2.39,-2.25,-0.99,-0.99,-0.98
144.87,1.02,2.03,1.03,2.03,-2.04,-2.39,-2.24,-1.01,-1.01,-1.00
146.32,1.00,2.03,1.00,2.03,-2.03,-2.38,-2.23,-1.03,-1.03,-1.03
147.78,0.97,2.02,0.98,2.03,-2.02,-2.38,-2.22,-1.05,-1.05,-1.05
149.26,0.95,2.03,0.95,2.02,-2.02,-2.38,-2.21,-1.07,-1.07,-1.07
150.75,0.91,2.02,0.92,2.02,-2.02,-2.37,-2.20,-1.10,-1.10,-1.11
152.26,0.88,2.02,0.89,2.02,-2.02,-2.37,-2.19,-1.14,-1.13,-1.14
153.78,0.85,2.02,0.85,2.02,-2.02,-2.37,-2.18,-1.17,-1.17,-1.16
155.32,0.82,2.02,0.83,2.02,-2.03,-2.36,-2.17,-1.20,-1.20,-1.20
156.88,0.79,2.01,0.80,2.02,-2.03,-2.36,-2.16,-1.24,-1.23,-1.22
158.44,0.78,2.04,0.78,2.03,-2.04,-2.35,-2.15,-1.25,-1.26,-1.25
160.03,0.75,2.05,0.76,2.05,-2.04,-2.34,-2.15,-1.29,-1.28,-1.29
161.63,0.73,2.06,0.73,2.06,-2.04,-2.34,-2.14,-1.31,-1.31,-1.32
163.24,0.70,2.07,0.69,2.05,-2.04,-2.33,-2.14,-1.33,-1.34,-1.36
164.88,0.64,2.03,0.65,2.04,-2.03,-2.33,-2.14,-1.39,-1.38,-1.38
166.53,0.60,2.03,0.61,2.03,-2.02,-2.32,-2.14,-1.42,-1.42,-1.42
168.19,0.56,2.02,0.56,2.01,-2.01,-2.31,-2.14,-1.45,-1.46,-1.45
169.87,0.50,1.99,0.51,2.00,-2.01,-2.31,-2.14,-1.51,-1.50,-1.49
171.57,0.46,1.99,0.46,1.99,-2.01,-2.30,-2.15,-1.54,-1.54,-1.53
173.29,0.42,2.00,0.42,1.99,-2.01,-2.29,-2.15,-1.59,-1.59,-1.57
175.02,0.39,2.01,0.40,2.01,-2.02,-2.29,-2.16,-1.63,-1.63,-1.61
176.77,0.37,2.03,0.37,2.04,-2.04,-2.28,-2.17,-1.66,-1.66,-1.66
178.54,0.35,2.07,0.36,2.07,-2.05,-2.28,-2.18,-1.70,-1.69,-1.71
180.32,0.33,2.09,0.33,2.09,-2.07,-2.27,-2.19,-1.73,-1.74,-1.76
182.13,0.30,2.11,0.29,2.10,-2.08,-2.26,-2.21,-1.78,-1.79,-1.80
183.95,0.23,2.09,0.25,2.10,-2.10,-2.26,-2.23,-1.86,-1.85,-1.86
185.79,0.19,2.10,0.20,2.10,-2.11,-2.25,-2.25,-1.92,-1.91,-1.90
187.65,0.16,2.12,0.16,2.11,-2.12,-2.25,-2.27,-1.96,-1.96,-1.95
189.52,0.13,2.13,0.13,2.13,-2.14,-2.24,-2.29,-2.00,-2.00,-2.00
191.42,0.10,2.15,0.10,2.15,-2.15,-2.24,-2.31,-2.04,-2.04,-2.04
193.33,0.07,2.16,0.08,2.16,-2.16,-2.24,-2.33,-2.09,-2.08,-2.08
195.27,0.05,2.18,0.05,2.18,-2.18,-2.23,-2.36,-2.12,-2.13,-2.12
197.22,0.02,2.20,0.02,2.20,-2.19,-2.23,-2.39,-2.17,-2.17,-2.18
199.19,-0.01,2.22,-0.01,2.22,-2.21,-2.23,-2.42,-2.21,-2.21,-2.23
201.18,-0.04,2.23,-0.03,2.23,-2.23,-2.23,-2.44,-2.26,-2.26,-2.27
203.19,-0.06,2.24,-0.06,2.24,-2.25,-2.23,-2.47,-2.30,-2.31,-2.30
205.23,-0.08,2.26,-0.08,2.26,-2.27,-2.23,-2.50,-2.35,-2.35,-2.34
207.28,-0.10,2.27,-0.09,2.29,-2.30,-2.23,-2.53,-2.40,-2.40,-2.37
209.35,-0.10,2.32,-0.09,2.32,-2.34,-2.23,-2.56,-2.44,-2.44,-2.42
211.44,-0.09,2.38,-0.09,2.37,-2.38,-2.23,-2.59,-2.47,-2.47,-2.47
213.56,-0.08,2.42,-0.07,2.42,-2.42,-2.23,-2.62,-2.50,-2.49,-2.50
215.69,-0.06,2.47,-0.06,2.47,-2.46,-2.24,-2.65,-2.52,-2.52,-2.53
217.85,-0.06,2.51,-0.06,2.51,-2.50,-2.24,-2.68,-2.55,-2.55,-2.56
220.03,-0.06,2.55,-0.05,2.54,-2.53,-2.25,-2.71,-2.58,-2.58,-2.60
222.23,-0.07,2.56,-0.06,2.56,-2.55,-2.26,-2.73,-2.62,-2.61,-2.63
224.45,-0.08,2.57,-0.08,2.57,-2.56,-2.26,-2.75,-2.64,-2.64,-2.65
226.70,-0.11,2.56,-0.10,2.56,-2.56,-2.27,-2.77,-2.67,-2.67,-2.66
228.96,-0.14,2.56,-0.13,2.56,-2.56,-2.28,-2.79,-2.69,-2.69,-2.69
231.25,-0.16,2.54,-0.16,2.54,-2.54,-2.29,-2.80,-2.70,-2.70,-2.70
233.57,-0.19,2.53,-0.19,2.52,-2.52,-2.30,-2.82,-2.71,-2.71,-2.71
235.90,-0.24,2.48,-0.23,2.50,-2.50,-2.31,-2.82,-2.73,-2.72,-2.72
238.26,-0.26,2.48,-0.26,2.47,-2.47,-2.32,-2.83,-2.72,-2.73,-2.74
240.64,-0.30,2.44,-0.29,2.44,-2.44,-2.33,-2.83,-2.73,-2.73,-2.73
243.05,-0.33,2.40,-0.33,2.41,-2.41,-2.34,-2.83,-2.73,-2.73,-2.73
245.48,-0.36,2.38,-0.36,2.37,-2.38,-2.35,-2.82,-2.73,-2.73,-2.73
247.93,-0.39,2.34,-0.38,2.35,-2.35,-2.35,-2.81,-2.73,-2.73,-2.73
250.41,-0.41,2.33,-0.41,2.32,-2.32,-2.36,-2.79,-2.73,-2.73,-2.73
252.92,-0.42,2.29,-0.42,2.29,-2.31,-2.36,-2.77,-2.72,-2.72,-2.71
255.45,-0.43,2.27,-0.42,2.28,-2.29,-2.37,-2.74,-2.71,-2.71,-2.69
258.00,-0.42,2.27,-0.42,2.27,-2.28,-2.37,-2.71,-2.69,-2.69,-2.69
260.58,-0.41,2.28,-0.41,2.27,-2.26,-2.36,-2.67,-2.67,-2.67,-2.68
263.19,-0.41,2.26,-0.40,2.27,-2.25,-2.36,-2.63,-2.66,-2.66,-2.67
265.82,-0.40,2.26,-0.40,2.26,-2.25,-2.35,-2.59,-2.64,-2.64,-2.66
268.48,-0.40,2.24,-0.40,2.24,-2.24,-2.34,-2.54,-2.63,-2.63,-2.63
271.16,-0.40,2.22,-0.39,2.23,-2.23,-2.32,-2.49,-2.62,-2.62,-2.62
273.87,-0.40,2.22,-0.40,2.21,-2.22,-2.30,-2.44,-2.62,-2.62,-2.61
276.61,-0.40,2.20,-0.40,2.20,-2.21,-2.28,-2.38,-2.61,-2.61,-2.60
279.38,-0.40,2.19,-0.39,2.19,-2.20,-2.25,-2.32,-2.60,-2.59,-2.59
282.17,-0.39,2.19,-0.38,2.19,-2.19,-2.22,-2.25,-2.57,-2.57,-2.57
284.99,-0.38,2.18,-0.38,2.18,-2.17,-2.19,-2.19,-2.55,-2.55,-2.55
287.84,-0.38,2.17,-0.38,2.17,-2.16,-2.15,-2.12,-2.53,-2.54,-2.55
290.72,-0.39,2.15,-0.38,2.15,-2.14,-2.11,-2.05,-2.53,-2.53,-2.53
293.63,-0.40,2.13,-0.40,2.12,-2.12,-2.07,-1.98,-2.52,-2.52,-2.52
296.57,-0.43,2.08,-0.42,2.09,-2.09,-2.03,-1.90,-2.52,-2.52,-2.51
299.53,-0.45,2.05,-0.44,2.06,-2.06,-1.98,-1.83,-2.51,-2.50,-2.50
302.53,-0.47,2.03,-0.47,2.02,-2.02,-1.93,-1.75,-2.49,-2.49,-2.49
305.55,-0.49,1.99,-0.49,1.99,-1.98,-1.88,-1.67,-2.47,-2.47,-2.47
308.61,-0.52,1.95,-0.52,1.94,-1.94,-1.83,-1.60,-2.45,-2.45,-2.47
311.69,-0.56,1.89,-0.56,1.89,-1.89,-1.78,-1.52,-2.44,-2.44,-2.45
314.81,-0.61,1.83,-0.60,1.83,-1.83,-1.73,-1.44,-2.44,-2.44,-2.43
317.96,-0.65,1.78,-0.65,1.77,-1.78,-1.68,-1.36,-2.42,-2.43,-2.42
321.14,-0.70,1.72,-0.70,1.72,-1.72,-1.63,-1.28,-2.42,-2.42,-2.42
324.35,-0.75,1.66,-0.74,1.66,-1.66,-1.58,-1.21,-2.41,-2.41,-2.41
327.59,-0.80,1.60,-0.80,1.60,-1.61,-1.53,-1.13,-2.40,-2.40,-2.40
330.87,-0.85,1.55,-0.85,1.55,-1.55,-1.48,-1.05,-2.39,-2.40,-2.39
334.18,-0.90,1.49,-0.90,1.49,-1.49,-1.43,-0.97,-2.39,-2.39,-2.38
337.52,-0.95,1.44,-0.94,1.43,-1.44,-1.38,-0.89,-2.39,-2.38,-2.38
340.90,-0.99,1.38,-0.99,1.38,-1.38,-1.33,-0.82,-2.37,-2.37,-2.37
344.30,-1.04,1.33,-1.03,1.33,-1.32,-1.28,-0.74,-2.36,-2.36,-2.37
347.75,-1.08,1.28,-1.08,1.28,-1.27,-1.23,-0.66,-2.34,-2.35,-2.36
351.23,-1.15,1.21,-1.14,1.22,-1.21,-1.18,-0.59,-2.35,-2.35,-2.36
354.74,-1.21,1.16,-1.21,1.15,-1.15,-1.14,-0.51,-2.36,-2.36,-2.36
358.28,-1.28,1.08,-1.28,1.08,-1.09,-1.09,-0.43,-2.37,-2.37,-2.35
361.87,-1.34,1.02,-1.34,1.02,-1.03,-1.04,-0.36,-2.37,-2.37,-2.35
365.49,-1.40,0.96,-1.39,0.97,-0.98,-1.00,-0.28,-2.37,-2.37,-2.36
369.14,-1.44,0.93,-1.44,0.93,-0.92,-0.95,-0.21,-2.36,-2.36,-2.37
372.83,-1.49,0.88,-1.49,0.88,-0.87,-0.90,-0.13,-2.36,-2.36,-2.37
376.56,-1.54,0.83,-1.54,0.83,-0.82,-0.85,-0.06,-2.36,-2.36,-2.37
380.33,-1.60,0.76,-1.59,0.77,-0.78,-0.81,0.01,-2.38,-2.37,-2.36
384.13,-1.65,0.73,-1.64,0.73,-0.74,-0.76,0.09,-2.38,-2.38,-2.37
387.97,-1.69,0.69,-1.68,0.69,-0.70,-0.71,0.16,-2.38,-2.38,-2.37
391.85,-1.72,0.67,-1.72,0.66,-0.65,-0.66,0.23,-2.37,-2.37,-2.38
395.77,-1.76,0.62,-1.76,0.62,-0.61,-0.61,0.30,-2.37,-2.37,-2.37
399.73,-1.81,0.58,-1.81,0.58,-0.57,-0.56,0.37,-2.37,-2.38,-2.39
403.72,-1.87,0.52,-1.86,0.52,-0.52,-0.51,0.44,-2.39,-2.38,-2.39
407.76,-1.92,0.47,-1.91,0.47,-0.48,-0.46,0.51,-2.39,-2.39,-2.39
411.84,-1.96,0.42,-1.96,0.42,-0.43,-0.40,0.58,-2.38,-2.38,-2.38
415.96,-2.01,0.37,-2.01,0.37,-0.37,-0.34,0.64,-2.38,-2.38,-2.38
420.12,-2.07,0.31,-2.07,0.31,-0.31,-0.28,0.70,-2.38,-2.38,-2.38
424.32,-2.14,0.24,-2.13,0.25,-0.25,-0.22,0.77,-2.39,-2.38,-2.38
428.56,-2.20,0.19,-2.20,0.19,-0.19,-0.15,0.83,-2.38,-2.39,-2.39
432.85,-2.27,0.13,-2.27,0.12,-0.12,-0.09,0.88,-2.39,-2.39,-2.39
437.18,-2.35,0.05,-2.34,0.05,-0.05,-0.01,0.94,-2.39,-2.39,-2.39
441.55,-2.43,-0.04,-2.42,-0.03,0.04,0.06,0.99,-2.39,-2.38,-2.38
445.96,-2.50,-0.11,-2.50,-0.12,0.12,0.14,1.04,-2.37,-2.38,-2.38
450.42,-2.60,-0.20,-2.60,-0.21,0.21,0.23,1.09,-2.38,-2.38,-2.39
454.93,-2.70,-0.31,-2.70,-0.31,0.31,0.32,1.13,-2.38,-2.39,-2.38
459.48,-2.81,-0.42,-2.80,-0.41,0.41,0.41,1.17,-2.39,-2.38,-2.38
464.07,-2.91,-0.52,-2.90,-0.52,0.52,0.51,1.20,-2.38,-2.38,-2.39
468.71,-3.00,-0.62,-3.01,-0.63,0.63,0.61,1.23,-2.37,-2.38,-2.38
