frequency,raw,error,smoothed,error_smoothed,equalization,parametric_eq,fixed_band_eq,equalized_raw,equalized_smoothed,target
20.00,-8.70,-7.21,-8.70,-7.21,6.00,6.04,1.90,-2.70,-2.70,-1.49
20.20,-8.57,-7.17,-8.57,-7.17,6.00,6.15,1.96,-2.57,-2.57,-1.40
20.40,-8.43,-7.12,-8.43,-7.12,6.00,6.24,2.01,-2.43,-2.43,-1.31
20.61,-8.30,-7.06,-8.30,-7.07,6.00,6.33,2.07,-2.30,-2.30,-1.24
20.81,-8.17,-7.02,-8.17,-7.02,6.00,6.41,2.13,-2.17,-2.17,-1.15
21.02,-8.04,-6.97,-8.04,-6.96,6.00,6.48,2.19,-2.04,-2.04,-1.07
21.23,-7.90,-6.89,-7.90,-6.90,6.00,6.53,2.26,-1.90,-1.90,-1.01
21.44,-7.77,-6.82,-7.77,-6.83,6.00,6.58,2.32,-1.77,-1.77,-0.95
21.66,-7.64,-6.76,-7.64,-6.75,6.00,6.61,2.39,-1.64,-1.64,-0.88
21.87,-7.51,-6.68,-7.51,-6.68,6.00,6.63,2.46,-1.51,-1.51,-0.83
22.09,-7.37,-6.59,-7.37,-6.59,6.00,6.64,2.53,-1.36,-1.37,-0.78
22.31,-7.24,-6.51,-7.24,-6.51,6.01,6.63,2.60,-1.23,-1.23,-0.73
22.54,-7.10,-6.42,-7.10,-6.42,6.02,6.61,2.68,-1.09,-1.09,-0.68
22.76,-6.97,-6.33,-6.97,-6.33,6.02,6.58,2.75,-0.95,-0.95,-0.64
22.99,-6.84,-6.24,-6.84,-6.24,6.01,6.53,2.83,-0.83,-0.83,-0.60
23.22,-6.70,-6.14,-6.70,-6.15,5.99,6.47,2.91,-0.71,-0.71,-0.56
23.45,-6.57,-6.06,-6.57,-6.05,5.96,6.40,2.99,-0.61,-0.61,-0.51
23.69,-6.43,-5.96,-6.43,-5.96,5.91,6.32,3.08,-0.52,-0.52,-0.47
23.92,-6.29,-5.86,-6.29,-5.87,5.85,6.24,3.16,-0.43,-0.44,-0.43
24.16,-6.16,-5.78,-6.16,-5.77,5.78,6.14,3.25,-0.38,-0.38,-0.38
24.40,-6.03,-5.68,-6.03,-5.68,5.70,6.03,3.34,-0.33,-0.33,-0.34
24.65,-5.90,-5.59,-5.90,-5.59,5.60,5.92,3.42,-0.30,-0.29,-0.31
24.89,-5.77,-5.49,-5.76,-5.49,5.50,5.80,3.51,-0.26,-0.26,-0.27
25.14,-5.63,-5.39,-5.63,-5.40,5.40,5.68,3.60,-0.23,-0.23,-0.23
25.39,-5.50,-5.30,-5.50,-5.30,5.30,5.55,3.69,-0.19,-0.19,-0.19
25.65,-5.37,-5.21,-5.37,-5.21,5.21,5.42,3.78,-0.16,-0.16,-0.16
25.91,-5.24,-5.12,-5.24,-5.12,5.11,5.29,3.87,-0.13,-0.13,-0.13
26.16,-5.11,-5.02,-5.11,-5.02,5.02,5.15,3.96,-0.09,-0.09,-0.09
26.43,-4.97,-4.91,-4.97,-4.92,4.92,5.02,4.05,-0.05,-0.05,-0.06
26.69,-4.84,-4.82,-4.84,-4.82,4.83,4.88,4.13,-0.01,-0.01,-0.02
26.96,-4.71,-4.73,-4.71,-4.73,4.73,4.75,4.22,0.02,0.02,0.02
27.23,-4.58,-4.63,-4.58,-4.64,4.64,4.61,4.30,0.06,0.05,0.05
27.50,-4.46,-4.55,-4.46,-4.55,4.54,4.48,4.38,0.08,0.09,0.09
27.77,-4.33,-4.45,-4.33,-4.45,4.45,4.35,4.45,0.12,0.12,0.12
28.05,-4.21,-4.37,-4.21,-4.36,4.35,4.22,4.52,0.15,0.15,0.16
28.33,-4.08,-4.26,-4.08,-4.26,4.26,4.09,4.59,0.18,0.18,0.18
28.62,-3.95,-4.17,-3.95,-4.17,4.17,3.97,4.65,0.22,0.22,0.22
28.90,-3.82,-4.07,-3.82,-4.08,4.08,3.85,4.70,0.26,0.26,0.26
29.19,-3.70,-3.98,-3.70,-3.99,3.99,3.73,4.75,0.29,0.29,0.29
29.48,-3.58,-3.91,-3.58,-3.90,3.90,3.61,4.79,0.33,0.33,0.33
29.78,-3.46,-3.81,-3.46,-3.82,3.82,3.49,4.82,0.36,0.36,0.35
30.08,-3.34,-3.73,-3.35,-3.74,3.74,3.38,4.84,0.40,0.39,0.39
30.38,-3.24,-3.66,-3.24,-3.66,3.66,3.27,4.86,0.42,0.43,0.42
30.68,-3.13,-3.59,-3.13,-3.58,3.58,3.17,4.87,0.45,0.45,0.46
30.99,-3.02,-3.50,-3.02,-3.51,3.51,3.06,4.87,0.49,0.48,0.48
31.30,-2.92,-3.44,-2.92,-3.43,3.43,2.96,4.86,0.51,0.51,0.52
31.61,-2.81,-3.36,-2.81,-3.35,3.35,2.87,4.84,0.54,0.54,0.55
31.93,-2.70,-3.28,-2.70,-3.27,3.27,2.77,4.81,0.57,0.57,0.57
32.24,-2.59,-3.18,-2.59,-3.19,3.19,2.68,4.77,0.61,0.60,0.59
32.57,-2.49,-3.11,-2.49,-3.11,3.11,2.59,4.73,0.62,0.63,0.62
32.89,-2.38,-3.04,-2.38,-3.04,3.03,2.50,4.67,0.65,0.65,0.66
33.22,-2.28,-2.96,-2.28,-2.95,2.95,2.42,4.61,0.67,0.67,0.68
33.55,-2.17,-2.87,-2.17,-2.87,2.87,2.34,4.54,0.70,0.70,0.70
33.89,-2.06,-2.78,-2.06,-2.78,2.79,2.26,4.47,0.73,0.72,0.72
34.23,-1.96,-2.70,-1.96,-2.70,2.70,2.18,4.39,0.74,0.74,0.74
34.57,-1.86,-2.62,-1.86,-2.62,2.62,2.10,4.30,0.76,0.76,0.76
34.92,-1.76,-2.53,-1.76,-2.54,2.54,2.03,4.21,0.78,0.78,0.77
35.27,-1.66,-2.46,-1.66,-2.46,2.45,1.96,4.11,0.79,0.79,0.80
35.62,-1.57,-2.38,-1.57,-2.37,2.37,1.89,4.01,0.80,0.80,0.81
35.97,-1.47,-2.28,-1.47,-2.29,2.29,1.82,3.91,0.82,0.82,0.82
36.33,-1.37,-2.20,-1.37,-2.20,2.21,1.75,3.80,0.84,0.83,0.83
36.70,-1.28,-2.12,-1.28,-2.12,2.12,1.69,3.69,0.84,0.85,0.84
37.06,-1.19,-2.04,-1.19,-2.04,2.04,1.63,3.58,0.86,0.86,0.85
37.43,-1.10,-1.96,-1.10,-1.96,1.96,1.57,3.47,0.86,0.86,0.87
37.81,-1.01,-1.88,-1.01,-1.89,1.88,1.51,3.36,0.87,0.87,0.87
38.19,-0.93,-1.81,-0.93,-1.81,1.80,1.45,3.24,0.87,0.87,0.88
38.57,-0.84,-1.73,-0.84,-1.72,1.72,1.39,3.13,0.88,0.88,0.89
38.95,-0.75,-1.63,-0.75,-1.64,1.64,1.33,3.01,0.89,0.88,0.88
39.34,-0.67,-1.55,-0.66,-1.55,1.55,1.28,2.90,0.89,0.89,0.88
39.74,-0.58,-1.47,-0.58,-1.47,1.47,1.22,2.79,0.89,0.89,0.89
40.14,-0.50,-1.39,-0.50,-1.39,1.39,1.17,2.67,0.89,0.89,0.89
40.54,-0.42,-1.30,-0.42,-1.30,1.31,1.12,2.56,0.89,0.89,0.88
40.94,-0.34,-1.23,-0.34,-1.22,1.22,1.07,2.45,0.89,0.88,0.89
41.35,-0.26,-1.14,-0.26,-1.15,1.14,1.02,2.34,0.88,0.89,0.89
41.76,-0.18,-1.07,-0.18,-1.07,1.06,0.97,2.23,0.89,0.89,0.89
42.18,-0.09,-0.99,-0.09,-0.98,0.98,0.91,2.12,0.90,0.89,0.90
42.60,-0.01,-0.90,-0.01,-0.91,0.90,0.86,2.01,0.90,0.90,0.89
43.03,0.07,-0.83,0.07,-0.83,0.83,0.81,1.91,0.90,0.90,0.90
43.46,0.14,-0.75,0.14,-0.75,0.75,0.76,1.80,0.89,0.89,0.89
43.90,0.21,-0.67,0.21,-0.67,0.67,0.71,1.70,0.88,0.89,0.88
44.33,0.28,-0.59,0.28,-0.60,0.60,0.66,1.59,0.88,0.88,0.88
44.78,0.34,-0.53,0.34,-0.53,0.53,0.61,1.49,0.87,0.87,0.87
45.23,0.40,-0.47,0.40,-0.46,0.47,0.56,1.39,0.87,0.87,0.87
45.68,0.46,-0.40,0.46,-0.40,0.40,0.51,1.29,0.86,0.86,0.86
46.13,0.52,-0.33,0.52,-0.34,0.34,0.45,1.20,0.87,0.86,0.85
46.60,0.57,-0.29,0.57,-0.28,0.28,0.40,1.10,0.86,0.86,0.86
47.06,0.63,-0.23,0.63,-0.23,0.23,0.34,1.01,0.86,0.85,0.86
47.53,0.68,-0.18,0.68,-0.18,0.17,0.29,0.91,0.85,0.85,0.86
48.01,0.74,-0.13,0.74,-0.12,0.11,0.23,0.82,0.85,0.85,0.87
48.49,0.80,-0.05,0.80,-0.06,0.05,0.17,0.73,0.85,0.85,0.85
48.97,0.86,0.01,0.86,0.01,-0.00,0.11,0.64,0.86,0.86,0.85
49.46,0.91,0.07,0.91,0.07,-0.06,0.05,0.55,0.85,0.86,0.84
49.96,0.96,0.13,0.96,0.12,-0.11,-0.02,0.46,0.85,0.85,0.83
50.46,1.00,0.15,1.00,0.15,-0.15,-0.08,0.38,0.85,0.85,0.85
50.96,1.04,0.18,1.04,0.19,-0.20,-0.14,0.29,0.85,0.85,0.86
51.47,1.08,0.23,1.08,0.23,-0.23,-0.20,0.21,0.85,0.85,0.85
51.99,1.13,0.27,1.13,0.27,-0.27,-0.26,0.13,0.87,0.86,0.86
52.51,1.17,0.30,1.17,0.30,-0.29,-0.31,0.05,0.88,0.87,0.87
53.03,1.20,0.32,1.20,0.32,-0.32,-0.36,-0.03,0.88,0.88,0.88
53.56,1.23,0.35,1.23,0.35,-0.35,-0.41,-0.11,0.88,0.88,0.88
54.10,1.26,0.38,1.26,0.37,-0.37,-0.44,-0.18,0.89,0.89,0.88
54.64,1.29,0.40,1.29,0.40,-0.40,-0.47,-0.26,0.89,0.89,0.89
55.18,1.31,0.42,1.31,0.42,-0.42,-0.50,-0.33,0.89,0.89,0.89
55.74,1.33,0.44,1.33,0.44,-0.44,-0.51,-0.40,0.89,0.89,0.89
56.29,1.35,0.46,1.35,0.46,-0.46,-0.52,-0.46,0.89,0.89,0.89
56.86,1.36,0.47,1.36,0.48,-0.48,-0.52,-0.53,0.88,0.88,0.89
57.42,1.37,0.49,1.38,0.49,-0.49,-0.52,-0.59,0.88,0.88,0.88
58.00,1.39,0.52,1.39,0.51,-0.51,-0.52,-0.65,0.88,0.88,0.88
58.58,1.40,0.53,1.40,0.53,-0.52,-0.51,-0.71,0.88,0.88,0.87
59.16,1.41,0.54,1.41,0.54,-0.53,-0.50,-0.76,0.88,0.87,0.87
59.76,1.40,0.54,1.41,0.54,-0.55,-0.49,-0.81,0.85,0.86,0.87
60.35,1.40,0.55,1.40,0.55,-0.56,-0.48,-0.86,0.84,0.84,0.85
60.96,1.40,0.56,1.40,0.56,-0.57,-0.47,-0.90,0.83,0.83,0.84
61.57,1.39,0.58,1.39,0.58,-0.58,-0.47,-0.95,0.81,0.81,0.81
62.18,1.39,0.60,1.39,0.60,-0.59,-0.46,-0.98,0.80,0.80,0.79
62.80,1.38,0.60,1.38,0.61,-0.60,-0.46,-1.02,0.78,0.78,0.78
63.43,1.37,0.62,1.37,0.61,-0.61,-0.46,-1.05,0.76,0.76,0.75
64.07,1.36,0.61,1.36,0.61,-0.61,-0.46,-1.08,0.75,0.75,0.75
64.71,1.35,0.61,1.35,0.62,-0.62,-0.46,-1.11,0.73,0.73,0.74
65.35,1.35,0.62,1.35,0.62,-0.62,-0.46,-1.14,0.73,0.73,0.73
66.01,1.34,0.62,1.34,0.62,-0.62,-0.47,-1.16,0.72,0.72,0.72
66.67,1.34,0.63,1.34,0.62,-0.62,-0.47,-1.18,0.72,0.72,0.71
67.33,1.34,0.63,1.34,0.63,-0.62,-0.48,-1.20,0.72,0.72,0.71
68.01,1.34,0.63,1.34,0.63,-0.63,-0.49,-1.21,0.72,0.72,0.71
68.69,1.34,0.63,1.34,0.63,-0.63,-0.50,-1.23,0.71,0.71,0.71
69.37,1.34,0.63,1.34,0.63,-0.63,-0.51,-1.24,0.71,0.71,0.71
70.07,1.34,0.63,1.34,0.63,-0.63,-0.53,-1.25,0.71,0.71,0.71
70.77,1.34,0.62,1.34,0.63,-0.63,-0.54,-1.26,0.71,0.71,0.72
71.48,1.34,0.63,1.34,0.63,-0.63,-0.56,-1.26,0.71,0.71,0.71
72.19,1.34,0.63,1.34,0.63,-0.63,-0.57,-1.27,0.71,0.71,0.71
72.91,1.34,0.63,1.34,0.64,-0.63,-0.59,-1.28,0.71,0.71,0.71
73.64,1.34,0.65,1.34,0.64,-0.64,-0.61,-1.28,0.70,0.70,0.69
74.38,1.34,0.64,1.34,0.65,-0.65,-0.63,-1.29,0.69,0.69,0.70
75.12,1.35,0.66,1.35,0.66,-0.66,-0.65,-1.29,0.69,0.69,0.69
75.87,1.36,0.67,1.36,0.67,-0.68,-0.67,-1.30,0.68,0.68,0.69
76.63,1.38,0.69,1.38,0.69,-0.69,-0.69,-1.30,0.69,0.69,0.69
77.40,1.40,0.71,1.40,0.71,-0.71,-0.71,-1.31,0.69,0.69,0.69
78.17,1.42,0.74,1.42,0.73,-0.72,-0.73,-1.31,0.70,0.70,0.68
78.95,1.44,0.75,1.44,0.75,-0.74,-0.76,-1.32,0.70,0.70,0.69
79.74,1.45,0.75,1.45,0.75,-0.75,-0.78,-1.32,0.70,0.71,0.70
80.54,1.47,0.76,1.47,0.76,-0.76,-0.81,-1.33,0.71,0.71,0.71
81.35,1.49,0.77,1.49,0.77,-0.77,-0.83,-1.34,0.72,0.72,0.72
82.16,1.51,0.78,1.51,0.77,-0.78,-0.86,-1.35,0.73,0.73,0.73
82.98,1.53,0.77,1.53,0.78,-0.79,-0.89,-1.36,0.74,0.75,0.76
83.81,1.56,0.79,1.56,0.80,-0.80,-0.91,-1.37,0.76,0.77,0.77
84.65,1.60,0.83,1.60,0.81,-0.81,-0.94,-1.38,0.79,0.78,0.77
85.50,1.63,0.82,1.63,0.83,-0.83,-0.97,-1.39,0.80,0.80,0.81
86.35,1.67,0.84,1.67,0.85,-0.85,-1.00,-1.40,0.82,0.82,0.83
87.22,1.71,0.87,1.71,0.87,-0.88,-1.03,-1.42,0.84,0.84,0.84
88.09,1.75,0.90,1.75,0.90,-0.90,-1.06,-1.43,0.85,0.85,0.85
88.97,1.80,0.93,1.79,0.93,-0.93,-1.09,-1.45,0.87,0.87,0.87
89.86,1.83,0.95,1.84,0.96,-0.96,-1.13,-1.47,0.88,0.88,0.88
90.76,1.87,1.00,1.87,0.99,-0.98,-1.16,-1.49,0.89,0.89,0.87
91.66,1.90,1.02,1.90,1.02,-1.01,-1.19,-1.51,0.89,0.88,0.88
92.58,1.92,1.05,1.92,1.05,-1.05,-1.23,-1.53,0.87,0.87,0.87
93.51,1.94,1.07,1.94,1.07,-1.08,-1.26,-1.56,0.86,0.86,0.87
94.44,1.96,1.10,1.96,1.11,-1.12,-1.29,-1.58,0.84,0.84,0.86
95.39,1.99,1.15,1.99,1.15,-1.16,-1.33,-1.61,0.83,0.83,0.84
96.34,2.02,1.21,2.02,1.20,-1.20,-1.37,-1.63,0.82,0.82,0.82
97.30,2.04,1.25,2.04,1.25,-1.24,-1.40,-1.66,0.80,0.80,0.79
98.28,2.05,1.29,2.05,1.30,-1.28,-1.44,-1.69,0.77,0.77,0.76
99.26,2.06,1.33,2.06,1.33,-1.32,-1.48,-1.72,0.74,0.74,0.73
100.25,2.06,1.37,2.06,1.37,-1.36,-1.51,-1.74,0.70,0.69,0.69
101.25,2.05,1.40,2.05,1.40,-1.40,-1.55,-1.77,0.65,0.65,0.65
102.27,2.04,1.42,2.04,1.43,-1.43,-1.59,-1.81,0.61,0.61,0.62
103.29,2.04,1.47,2.04,1.46,-1.47,-1.63,-1.84,0.57,0.57,0.57
104.32,2.04,1.50,2.04,1.50,-1.50,-1.67,-1.87,0.54,0.54,0.54
105.37,2.04,1.54,2.04,1.54,-1.54,-1.70,-1.90,0.50,0.50,0.50
106.42,2.04,1.57,2.04,1.57,-1.57,-1.74,-1.93,0.47,0.47,0.47
107.48,2.04,1.61,2.04,1.61,-1.61,-1.78,-1.96,0.43,0.43,0.43
108.56,2.04,1.65,2.04,1.65,-1.64,-1.82,-1.99,0.40,0.40,0.40
109.64,2.04,1.68,2.04,1.68,-1.68,-1.86,-2.02,0.36,0.36,0.36
110.74,2.04,1.71,2.04,1.71,-1.71,-1.90,-2.04,0.33,0.33,0.33
111.85,2.04,1.73,2.04,1.74,-1.74,-1.93,-2.07,0.30,0.30,0.31
112.97,2.04,1.78,2.04,1.77,-1.77,-1.97,-2.10,0.27,0.27,0.26
114.10,2.04,1.80,2.04,1.80,-1.80,-2.01,-2.12,0.24,0.24,0.24
115.24,2.04,1.83,2.04,1.83,-1.83,-2.04,-2.14,0.22,0.22,0.21
116.39,2.04,1.85,2.04,1.85,-1.85,-2.08,-2.16,0.19,0.19,0.19
117.55,2.04,1.87,2.04,1.87,-1.87,-2.11,-2.18,0.17,0.17,0.17
118.73,2.04,1.89,2.04,1.89,-1.89,-2.14,-2.19,0.15,0.15,0.15
119.92,2.04,1.90,2.04,1.90,-1.90,-2.17,-2.21,0.14,0.14,0.14
121.12,2.04,1.91,2.04,1.91,-1.92,-2.21,-2.22,0.13,0.13,0.13
122.33,2.04,1.93,2.04,1.93,-1.93,-2.23,-2.22,0.11,0.11,0.11
123.55,2.04,1.94,2.04,1.94,-1.94,-2.26,-2.23,0.10,0.10,0.10
124.79,2.04,1.95,2.04,1.95,-1.95,-2.29,-2.23,0.09,0.09,0.09
126.03,2.04,1.97,2.04,1.96,-1.97,-2.31,-2.23,0.07,0.07,0.07
127.29,2.04,1.97,2.04,1.98,-1.98,-2.34,-2.22,0.06,0.06,0.07
128.57,2.04,2.00,2.04,1.99,-1.99,-2.36,-2.21,0.05,0.05,0.04
129.85,2.04,2.01,2.04,2.01,-2.01,-2.38,-2.20,0.04,0.04,0.03
131.15,2.04,2.02,2.04,2.02,-2.02,-2.39,-2.19,0.02,0.02,0.02
132.46,2.04,2.04,2.04,2.03,-2.03,-2.41,-2.17,0.01,0.01,0.01
133.79,2.04,2.04,2.04,2.05,-2.05,-2.42,-2.15,-0.01,-0.01,0.00
135.12,2.04,2.07,2.04,2.06,-2.06,-2.43,-2.13,-0.02,-0.02,-0.03
136.48,2.04,2.07,2.04,2.07,-2.08,-2.44,-2.11,-0.04,-0.04,-0.03
137.84,2.04,2.09,2.04,2.10,-2.10,-2.44,-2.09,-0.05,-0.05,-0.05
139.22,2.04,2.12,2.04,2.11,-2.12,-2.45,-2.06,-0.07,-0.08,-0.08
140.61,2.04,2.14,2.04,2.13,-2.14,-2.45,-2.03,-0.10,-0.10,-0.10
142.02,2.04,2.15,2.04,2.15,-2.16,-2.45,-2.00,-0.12,-0.11,-0.11
143.44,2.05,2.18,2.05,2.18,-2.18,-2.45,-1.97,-0.13,-0.13,-0.12
144.87,2.06,2.21,2.06,2.21,-2.20,-2.44,-1.94,-0.14,-0.15,-0.15
146.32,2.06,2.24,2.06,2.23,-2.22,-2.44,-1.91,-0.16,-0.17,-0.18
147.78,2.05,2.24,2.05,2.24,-2.24,-2.43,-1.87,-0.19,-0.19,-0.18
149.26,2.04,2.25,2.04,2.26,-2.26,-2.42,-1.84,-0.21,-0.22,-0.21
150.75,2.02,2.28,2.02,2.27,-2.26,-2.41,-1.81,-0.24,-0.24,-0.26
152.26,2.00,2.28,2.00,2.28,-2.27,-2.40,-1.77,-0.27,-0.27,-0.28
153.78,1.97,2.27,1.97,2.28,-2.27,-2.38,-1.74,-0.30,-0.30,-0.30
155.32,1.94,2.28,1.94,2.27,-2.27,-2.37,-1.71,-0.33,-0.33,-0.34
156.88,1.90,2.26,1.90,2.26,-2.27,-2.35,-1.67,-0.37,-0.37,-0.36
158.44,1.87,2.26,1.87,2.26,-2.27,-2.33,-1.64,-0.40,-0.40,-0.39
160.03,1.83,2.26,1.84,2.27,-2.27,-2.31,-1.61,-0.44,-0.43,-0.43
161.63,1.81,2.27,1.81,2.27,-2.27,-2.29,-1.58,-0.46,-0.46,-0.46
163.24,1.79,2.28,1.79,2.28,-2.28,-2.27,-1.55,-0.48,-0.49,-0.49
164.88,1.76,2.27,1.77,2.28,-2.28,-2.25,-1.52,-0.52,-0.51,-0.51
166.53,1.74,2.28,1.74,2.29,-2.29,-2.24,-1.49,-0.55,-0.55,-0.54
168.19,1.72,2.30,1.72,2.29,-2.29,-2.22,-1.46,-0.57,-0.58,-0.58
169.87,1.69,2.29,1.70,2.30,-2.30,-2.20,-1.44,-0.61,-0.60,-0.60
171.57,1.67,2.30,1.68,2.30,-2.30,-2.18,-1.41,-0.63,-0.63,-0.63
173.29,1.66,2.32,1.65,2.30,-2.31,-2.16,-1.38,-0.65,-0.66,-0.65
175.02,1.63,2.30,1.63,2.31,-2.31,-2.15,-1.36,-0.68,-0.68,-0.67
176.77,1.60,2.31,1.61,2.31,-2.31,-2.14,-1.34,-0.71,-0.70,-0.71
178.54,1.58,2.31,1.58,2.31,-2.30,-2.12,-1.32,-0.72,-0.72,-0.73
180.32,1.56,2.31,1.56,2.30,-2.30,-2.11,-1.30,-0.73,-0.74,-0.75
182.13,1.53,2.28,1.53,2.29,-2.28,-2.11,-1.28,-0.75,-0.75,-0.75
183.95,1.49,2.27,1.49,2.27,-2.26,-2.10,-1.26,-0.77,-0.77,-0.78
185.79,1.45,2.24,1.46,2.24,-2.24,-2.10,-1.24,-0.79,-0.79,-0.79
187.65,1.42,2.22,1.42,2.22,-2.22,-2.10,-1.23,-0.80,-0.80,-0.80
189.52,1.38,2.20,1.38,2.20,-2.20,-2.10,-1.21,-0.82,-0.82,-0.82
191.42,1.34,2.17,1.34,2.17,-2.18,-2.10,-1.20,-0.84,-0.84,-0.83
193.33,1.30,2.14,1.31,2.15,-2.16,-2.11,-1.18,-0.86,-0.86,-0.84
195.27,1.28,2.13,1.28,2.14,-2.15,-2.12,-1.17,-0.87,-0.87,-0.85
197.22,1.26,2.12,1.26,2.13,-2.13,-2.12,-1.16,-0.87,-0.87,-0.86
199.19,1.24,2.14,1.24,2.12,-2.11,-2.13,-1.15,-0.87,-0.87,-0.90
201.18,1.21,2.11,1.21,2.11,-2.09,-2.13,-1.14,-0.88,-0.88,-0.90
203.19,1.17,2.08,1.17,2.08,-2.07,-2.13,-1.13,-0.90,-0.90,-0.91
205.23,1.12,2.05,1.12,2.04,-2.04,-2.12,-1.12,-0.92,-0.92,-0.93
207.28,1.07,2.00,1.08,2.01,-2.01,-2.10,-1.11,-0.94,-0.94,-0.93
209.35,1.03,1.98,1.03,1.97,-1.98,-2.08,-1.10,-0.95,-0.95,-0.94
211.44,0.98,1.94,0.98,1.94,-1.94,-2.04,-1.10,-0.96,-0.96,-0.96
213.56,0.93,1.89,0.93,1.89,-1.90,-2.00,-1.09,-0.97,-0.97,-0.96
215.69,0.89,1.85,0.89,1.85,-1.86,-1.94,-1.08,-0.97,-0.97,-0.96
217.85,0.84,1.81,0.85,1.82,-1.82,-1.88,-1.08,-0.98,-0.97,-0.97
220.03,0.81,1.80,0.81,1.79,-1.77,-1.81,-1.07,-0.96,-0.97,-0.99
222.23,0.76,1.75,0.75,1.74,-1.72,-1.73,-1.06,-0.96,-0.97,-0.99
224.45,0.69,1.67,0.69,1.68,-1.67,-1.66,-1.06,-0.98,-0.98,-0.98
226.70,0.61,1.60,0.62,1.60,-1.61,-1.58,-1.05,-1.00,-0.99,-0.99
228.96,0.54,1.53,0.55,1.54,-1.55,-1.50,-1.04,-1.01,-1.00,-0.99
231.25,0.49,1.48,0.48,1.48,-1.49,-1.42,-1.04,-1.00,-1.01,-0.99
233.57,0.43,1.43,0.42,1.42,-1.43,-1.35,-1.03,-1.00,-1.00,-1.00
235.90,0.35,1.35,0.36,1.36,-1.37,-1.28,-1.02,-1.02,-1.01,-1.00
238.26,0.30,1.32,0.30,1.31,-1.31,-1.20,-1.01,-1.01,-1.01,-1.02
240.64,0.23,1.24,0.24,1.25,-1.25,-1.14,-1.00,-1.02,-1.01,-1.01
243.05,0.18,1.20,0.18,1.19,-1.19,-1.07,-0.99,-1.01,-1.01,-1.02
245.48,0.12,1.14,0.11,1.13,-1.13,-1.01,-0.98,-1.01,-1.02,-1.01
247.93,0.03,1.05,0.04,1.06,-1.06,-0.95,-0.97,-1.03,-1.02,-1.02
250.41,-0.02,1.00,-0.02,0.99,-1.00,-0.89,-0.96,-1.02,-1.02,-1.02
252.92,-0.09,0.92,-0.08,0.92,-0.93,-0.83,-0.95,-1.02,-1.01,-1.01
255.45,-0.14,0.85,-0.14,0.86,-0.86,-0.78,-0.93,-1.00,-1.00,-0.99
258.00,-0.19,0.80,-0.20,0.79,-0.79,-0.72,-0.92,-0.98,-0.99,-0.99
260.58,-0.26,0.72,-0.25,0.72,-0.72,-0.67,-0.90,-0.98,-0.97,-0.98
263.19,-0.31,0.65,-0.31,0.65,-0.65,-0.62,-0.89,-0.96,-0.96,-0.96
265.82,-0.37,0.58,-0.36,0.58,-0.58,-0.57,-0.87,-0.95,-0.94,-0.95
268.48,-0.42,0.51,-0.42,0.51,-0.51,-0.52,-0.85,-0.93,-0.93,-0.93
271.16,-0.47,0.45,-0.48,0.44,-0.44,-0.47,-0.84,-0.91,-0.92,-0.92
273.87,-0.55,0.35,-0.54,0.36,-0.37,-0.42,-0.82,-0.92,-0.91,-0.90
276.61,-0.59,0.29,-0.59,0.30,-0.30,-0.37,-0.80,-0.89,-0.89,-0.88
279.38,-0.64,0.24,-0.64,0.24,-0.24,-0.32,-0.78,-0.88,-0.88,-0.88
282.17,-0.68,0.19,-0.68,0.18,-0.18,-0.27,-0.76,-0.86,-0.86,-0.87
284.99,-0.72,0.12,-0.72,0.12,-0.13,-0.22,-0.74,-0.85,-0.85,-0.84
287.84,-0.77,0.07,-0.76,0.07,-0.08,-0.17,-0.72,-0.84,-0.84,-0.83
290.72,-0.80,0.02,-0.80,0.02,-0.02,-0.11,-0.70,-0.82,-0.82,-0.82
293.63,-0.82,-0.02,-0.82,-0.03,0.03,-0.06,-0.67,-0.79,-0.80,-0.80
296.57,-0.85,-0.08,-0.85,-0.07,0.08,-0.01,-0.65,-0.77,-0.77,-0.77
299.53,-0.88,-0.11,-0.88,-0.12,0.13,0.05,-0.63,-0.75,-0.75,-0.76
302.53,-0.92,-0.17,-0.92,-0.18,0.19,0.11,-0.61,-0.73,-0.73,-0.75
305.55,-0.96,-0.25,-0.96,-0.24,0.24,0.16,-0.59,-0.72,-0.72,-0.71
308.61,-1.00,-0.31,-1.00,-0.31,0.30,0.22,-0.57,-0.70,-0.70,-0.69
311.69,-1.03,-0.37,-1.03,-0.37,0.36,0.28,-0.54,-0.67,-0.67,-0.66
314.81,-1.05,-0.42,-1.05,-0.42,0.42,0.35,-0.52,-0.63,-0.63,-0.63
317.96,-1.08,-0.47,-1.08,-0.47,0.48,0.41,-0.50,-0.60,-0.60,-0.61
321.14,-1.11,-0.53,-1.11,-0.53,0.53,0.47,-0.48,-0.58,-0.58,-0.58
324.35,-1.14,-0.58,-1.14,-0.58,0.59,0.54,-0.46,-0.55,-0.55,-0.56
327.59,-1.18,-0.65,-1.17,-0.64,0.64,0.60,-0.44,-0.54,-0.53,-0.53
330.87,-1.19,-0.68,-1.19,-0.69,0.68,0.66,-0.42,-0.51,-0.51,-0.50
334.18,-1.21,-0.72,-1.21,-0.73,0.72,0.72,-0.39,-0.49,-0.49,-0.49
337.52,-1.23,-0.77,-1.22,-0.77,0.76,0.78,-0.37,-0.47,-0.46,-0.46
340.90,-1.23,-0.80,-1.23,-0.80,0.79,0.84,-0.35,-0.44,-0.44,-0.43
344.30,-1.23,-0.83,-1.23,-0.82,0.82,0.89,-0.33,-0.41,-0.41,-0.40
347.75,-1.22,-0.84,-1.22,-0.84,0.85,0.93,-0.31,-0.37,-0.37,-0.38
351.23,-1.21,-0.86,-1.21,-0.86,0.87,0.97,-0.29,-0.33,-0.34,-0.35
354.74,-1.21,-0.89,-1.21,-0.89,0.90,1.00,-0.27,-0.31,-0.31,-0.32
358.28,-1.22,-0.91,-1.22,-0.92,0.92,1.03,-0.25,-0.30,-0.30,-0.31
361.87,-1.23,-0.95,-1.23,-0.95,0.94,1.05,-0.23,-0.29,-0.28,-0.28
365.49,-1.23,-0.97,-1.23,-0.97,0.96,1.05,-0.21,-0.27,-0.27,-0.26
369.14,-1.22,-0.98,-1.22,-0.98,0.98,1.06,-0.19,-0.24,-0.24,-0.24
372.83,-1.21,-0.99,-1.21,-0.99,0.99,1.05,-0.17,-0.22,-0.22,-0.22
376.56,-1.19,-0.99,-1.19,-0.99,1.00,1.03,-0.16,-0.19,-0.19,-0.20
380.33,-1.17,-1.00,-1.17,-0.99,1.00,1.01,-0.14,-0.17,-0.17,-0.17
384.13,-1.15,-0.99,-1.15,-0.99,0.99,0.98,-0.12,-0.16,-0.16,-0.16
387.97,-1.14,-0.99,-1.13,-0.98,0.98,0.95,-0.10,-0.16,-0.15,-0.15
391.85,-1.11,-0.97,-1.11,-0.97,0.96,0.91,-0.08,-0.15,-0.14,-0.14
395.77,-1.07,-0.94,-1.07,-0.95,0.94,0.86,-0.07,-0.13,-0.13,-0.12
399.73,-1.03,-0.91,-1.03,-0.91,0.91,0.82,-0.05,-0.12,-0.12,-0.12
403.72,-0.99,-0.88,-0.98,-0.88,0.87,0.77,-0.03,-0.12,-0.11,-0.11
407.76,-0.93,-0.83,-0.93,-0.84,0.83,0.73,-0.01,-0.10,-0.10,-0.10
411.84,-0.87,-0.79,-0.87,-0.79,0.79,0.68,0.00,-0.08,-0.08,-0.08
415.96,-0.82,-0.74,-0.82,-0.74,0.75,0.63,0.02,-0.07,-0.07,-0.08
420.12,-0.77,-0.69,-0.77,-0.70,0.71,0.59,0.03,-0.06,-0.07,-0.08
424.32,-0.74,-0.66,-0.74,-0.66,0.67,0.54,0.05,-0.07,-0.07,-0.08
428.56,-0.70,-0.62,-0.70,-0.62,0.62,0.50,0.06,-0.08,-0.08,-0.08
432.85,-0.67,-0.59,-0.67,-0.59,0.58,0.45,0.07,-0.09,-0.09,-0.08
437.18,-0.63,-0.55,-0.63,-0.55,0.54,0.41,0.09,-0.09,-0.09,-0.08
441.55,-0.59,-0.51,-0.59,-0.51,0.50,0.37,0.10,-0.09,-0.09,-0.08
445.96,-0.55,-0.47,-0.55,-0.46,0.46,0.33,0.11,-0.09,-0.09,-0.08
450.42,-0.50,-0.41,-0.50,-0.41,0.42,0.30,0.12,-0.08,-0.08,-0.09
454.93,-0.46,-0.37,-0.46,-0.37,0.38,0.26,0.13,-0.08,-0.08,-0.09
459.48,-0.42,-0.33,-0.43,-0.33,0.34,0.23,0.14,-0.07,-0.08,-0.09
464.07,-0.40,-0.31,-0.40,-0.31,0.31,0.20,0.14,-0.09,-0.09,-0.09
468.71,-0.38,-0.30,-0.37,-0.28,0.28,0.16,0.15,-0.10,-0.09,-0.08
473.40,-0.34,-0.24,-0.34,-0.25,0.24,0.13,0.16,-0.10,-0.10,-0.09
478.13,-0.30,-0.21,-0.31,-0.22,0.21,0.11,0.16,-0.09,-0.10,-0.08
482.91,-0.27,-0.17,-0.27,-0.18,0.18,0.08,0.16,-0.09,-0.09,-0.09
487.74,-0.23,-0.14,-0.23,-0.14,0.14,0.05,0.16,-0.09,-0.09,-0.09
