frequency,raw,error,smoothed,error_smoothed,equalization,parametric_eq,fixed_band_eq,equalized_raw,equalized_smoothed,target
20.00,2.71,-0.83,2.71,-0.83,0.83,-0.14,-0.02,3.54,3.54,3.55
20.20,2.75,-0.79,2.76,-0.79,0.79,-0.14,-0.02,3.55,3.55,3.55
20.40,2.80,-0.75,2.80,-0.76,0.76,-0.14,-0.02,3.56,3.56,3.56
20.61,2.84,-0.72,2.85,-0.72,0.72,-0.14,-0.02,3.56,3.56,3.57
20.81,2.89,-0.67,2.89,-0.68,0.68,-0.14,-0.02,3.57,3.57,3.57
21.02,2.93,-0.64,2.94,-0.64,0.64,-0.14,-0.02,3.57,3.58,3.58
21.23,2.98,-0.59,2.98,-0.60,0.60,-0.14,-0.02,3.58,3.58,3.58
21.44,3.03,-0.55,3.03,-0.56,0.56,-0.14,-0.02,3.59,3.59,3.59
21.66,3.07,-0.52,3.08,-0.51,0.51,-0.14,-0.02,3.59,3.59,3.59
21.87,3.12,-0.47,3.12,-0.48,0.47,-0.14,-0.02,3.59,3.59,3.59
22.09,3.17,-0.43,3.17,-0.43,0.42,-0.14,-0.02,3.60,3.60,3.60
22.31,3.22,-0.39,3.23,-0.38,0.38,-0.14,-0.03,3.60,3.60,3.61
22.54,3.28,-0.33,3.29,-0.33,0.33,-0.14,-0.03,3.62,3.62,3.61
22.76,3.34,-0.28,3.34,-0.28,0.29,-0.14,-0.03,3.63,3.63,3.62
22.99,3.40,-0.23,3.40,-0.23,0.25,-0.14,-0.03,3.65,3.64,3.63
23.22,3.44,-0.20,3.44,-0.20,0.21,-0.14,-0.03,3.65,3.65,3.64
23.45,3.48,-0.17,3.48,-0.17,0.17,-0.14,-0.03,3.65,3.65,3.65
23.69,3.52,-0.14,3.52,-0.14,0.13,-0.14,-0.03,3.65,3.65,3.66
23.92,3.56,-0.11,3.57,-0.10,0.10,-0.14,-0.03,3.66,3.66,3.67
24.16,3.61,-0.07,3.61,-0.07,0.06,-0.14,-0.03,3.68,3.68,3.68
24.40,3.66,-0.03,3.66,-0.03,0.03,-0.14,-0.03,3.69,3.69,3.69
24.65,3.71,0.00,3.71,0.01,-0.01,-0.14,-0.03,3.71,3.71,3.71
24.89,3.75,0.04,3.76,0.04,-0.04,-0.14,-0.03,3.71,3.72,3.72
25.14,3.80,0.08,3.80,0.07,-0.08,-0.14,-0.03,3.73,3.72,3.73
25.39,3.84,0.11,3.85,0.11,-0.11,-0.14,-0.04,3.73,3.73,3.74
25.65,3.89,0.15,3.90,0.15,-0.15,-0.14,-0.04,3.75,3.75,3.75
25.91,3.94,0.18,3.94,0.18,-0.17,-0.14,-0.04,3.77,3.77,3.77
26.16,3.98,0.21,3.98,0.21,-0.20,-0.14,-0.04,3.79,3.78,3.78
26.43,4.01,0.23,4.01,0.23,-0.22,-0.14,-0.04,3.79,3.79,3.78
26.69,4.03,0.24,4.03,0.24,-0.24,-0.15,-0.04,3.80,3.80,3.79
26.96,4.05,0.24,4.05,0.24,-0.25,-0.15,-0.04,3.81,3.80,3.81
27.23,4.06,0.24,4.07,0.25,-0.25,-0.15,-0.04,3.81,3.82,3.82
27.50,4.08,0.24,4.08,0.25,-0.25,-0.15,-0.04,3.83,3.83,3.84
27.77,4.10,0.25,4.10,0.25,-0.24,-0.15,-0.04,3.86,3.86,3.85
28.05,4.10,0.23,4.11,0.24,-0.23,-0.15,-0.04,3.87,3.88,3.87
28.33,4.11,0.24,4.11,0.23,-0.21,-0.15,-0.04,3.90,3.90,3.88
28.62,4.10,0.21,4.10,0.20,-0.20,-0.15,-0.05,3.91,3.90,3.90
28.90,4.08,0.18,4.09,0.18,-0.18,-0.15,-0.05,3.91,3.91,3.91
29.19,4.06,0.14,4.07,0.15,-0.16,-0.15,-0.05,3.91,3.91,3.93
29.48,4.06,0.13,4.06,0.13,-0.14,-0.15,-0.05,3.92,3.92,3.93
29.78,4.06,0.11,4.07,0.12,-0.13,-0.15,-0.05,3.94,3.94,3.95
30.08,4.08,0.12,4.08,0.11,-0.12,-0.15,-0.05,3.96,3.96,3.96
30.38,4.09,0.11,4.09,0.12,-0.12,-0.15,-0.05,3.97,3.98,3.98
30.68,4.11,0.12,4.12,0.13,-0.13,-0.15,-0.05,3.99,3.99,3.99
30.99,4.14,0.14,4.14,0.14,-0.14,-0.15,-0.05,4.01,4.01,4.01
31.30,4.17,0.16,4.17,0.15,-0.15,-0.15,-0.05,4.02,4.02,4.02
31.61,4.20,0.17,4.20,0.17,-0.17,-0.15,-0.05,4.03,4.03,4.04
31.93,4.23,0.19,4.23,0.19,-0.19,-0.15,-0.05,4.05,4.05,4.04
32.24,4.26,0.20,4.26,0.20,-0.20,-0.15,-0.05,4.06,4.06,4.06
32.57,4.29,0.22,4.29,0.22,-0.22,-0.15,-0.05,4.07,4.07,4.07
32.89,4.32,0.24,4.32,0.24,-0.24,-0.15,-0.05,4.09,4.09,4.09
33.22,4.35,0.26,4.35,0.25,-0.25,-0.15,-0.05,4.10,4.10,4.10
33.55,4.37,0.26,4.38,0.26,-0.26,-0.15,-0.05,4.11,4.11,4.12
33.89,4.39,0.27,4.40,0.27,-0.27,-0.15,-0.05,4.13,4.13,4.12
34.23,4.41,0.27,4.41,0.27,-0.27,-0.15,-0.05,4.14,4.14,4.14
34.57,4.42,0.27,4.43,0.28,-0.27,-0.15,-0.05,4.16,4.16,4.15
34.92,4.43,0.28,4.43,0.27,-0.26,-0.15,-0.05,4.17,4.17,4.16
35.27,4.43,0.26,4.43,0.26,-0.26,-0.16,-0.05,4.18,4.18,4.17
35.62,4.42,0.24,4.42,0.24,-0.24,-0.16,-0.05,4.18,4.18,4.18
35.97,4.41,0.22,4.42,0.23,-0.23,-0.16,-0.05,4.18,4.18,4.19
36.33,4.41,0.22,4.41,0.22,-0.22,-0.16,-0.05,4.19,4.19,4.20
36.70,4.41,0.21,4.41,0.21,-0.21,-0.16,-0.05,4.20,4.20,4.21
37.06,4.41,0.20,4.41,0.20,-0.20,-0.16,-0.05,4.21,4.21,4.21
37.43,4.41,0.19,4.41,0.19,-0.19,-0.16,-0.05,4.22,4.22,4.22
37.81,4.41,0.19,4.41,0.19,-0.18,-0.16,-0.05,4.23,4.23,4.23
38.19,4.41,0.18,4.41,0.18,-0.18,-0.16,-0.05,4.24,4.24,4.23
38.57,4.41,0.17,4.41,0.17,-0.17,-0.16,-0.05,4.24,4.24,4.24
38.95,4.41,0.17,4.41,0.16,-0.17,-0.16,-0.05,4.25,4.25,4.25
39.34,4.41,0.16,4.41,0.16,-0.16,-0.16,-0.05,4.25,4.25,4.26
39.74,4.41,0.15,4.41,0.16,-0.16,-0.16,-0.05,4.26,4.26,4.26
40.14,4.41,0.16,4.41,0.15,-0.15,-0.16,-0.05,4.26,4.26,4.26
40.54,4.41,0.15,4.41,0.15,-0.15,-0.16,-0.05,4.27,4.27,4.26
40.94,4.41,0.14,4.41,0.14,-0.14,-0.16,-0.05,4.27,4.27,4.27
41.35,4.41,0.14,4.41,0.14,-0.14,-0.16,-0.05,4.28,4.28,4.28
41.76,4.41,0.13,4.41,0.13,-0.13,-0.16,-0.05,4.28,4.28,4.28
42.18,4.41,0.12,4.41,0.12,-0.13,-0.16,-0.06,4.29,4.29,4.29
42.60,4.41,0.12,4.41,0.12,-0.12,-0.17,-0.06,4.29,4.29,4.29
43.03,4.41,0.11,4.41,0.11,-0.11,-0.17,-0.06,4.30,4.30,4.30
43.46,4.41,0.11,4.41,0.11,-0.11,-0.17,-0.06,4.31,4.31,4.31
43.90,4.41,0.10,4.41,0.10,-0.10,-0.17,-0.06,4.31,4.31,4.31
44.33,4.41,0.09,4.41,0.09,-0.09,-0.17,-0.06,4.32,4.32,4.33
44.78,4.41,0.08,4.41,0.08,-0.08,-0.17,-0.06,4.33,4.33,4.33
45.23,4.41,0.08,4.41,0.08,-0.08,-0.17,-0.06,4.34,4.34,4.34
45.68,4.41,0.06,4.41,0.07,-0.07,-0.17,-0.06,4.35,4.35,4.35
46.13,4.41,0.06,4.41,0.06,-0.06,-0.17,-0.06,4.36,4.36,4.35
46.60,4.41,0.05,4.41,0.05,-0.05,-0.17,-0.06,4.36,4.36,4.37
47.06,4.41,0.04,4.41,0.04,-0.04,-0.17,-0.06,4.37,4.37,4.37
47.53,4.41,0.03,4.41,0.03,-0.03,-0.17,-0.06,4.38,4.38,4.39
48.01,4.41,0.03,4.41,0.02,-0.02,-0.17,-0.06,4.39,4.39,4.39
48.49,4.41,0.01,4.41,0.02,-0.01,-0.17,-0.06,4.40,4.40,4.40
48.97,4.41,0.01,4.41,0.01,-0.00,-0.18,-0.06,4.41,4.41,4.40
49.46,4.41,-0.00,4.41,-0.00,0.01,-0.18,-0.07,4.42,4.42,4.42
49.96,4.40,-0.02,4.41,-0.01,0.02,-0.18,-0.07,4.42,4.43,4.42
50.46,4.40,-0.02,4.40,-0.03,0.03,-0.18,-0.07,4.43,4.43,4.42
50.96,4.39,-0.04,4.39,-0.04,0.04,-0.18,-0.07,4.43,4.43,4.43
51.47,4.38,-0.05,4.39,-0.04,0.04,-0.18,-0.07,4.42,4.43,4.43
51.99,4.39,-0.04,4.39,-0.04,0.03,-0.18,-0.07,4.43,4.43,4.44
52.51,4.40,-0.03,4.40,-0.03,0.03,-0.18,-0.07,4.43,4.43,4.44
53.03,4.42,-0.01,4.42,-0.02,0.01,-0.18,-0.07,4.43,4.43,4.44
53.56,4.44,-0.00,4.45,0.00,-0.01,-0.18,-0.07,4.43,4.44,4.45
54.10,4.48,0.04,4.48,0.03,-0.03,-0.18,-0.08,4.45,4.45,4.45
54.64,4.51,0.07,4.51,0.06,-0.06,-0.19,-0.08,4.45,4.45,4.45
55.18,4.53,0.10,4.54,0.10,-0.09,-0.19,-0.08,4.45,4.45,4.44
55.74,4.55,0.12,4.56,0.12,-0.11,-0.19,-0.08,4.44,4.44,4.44
56.29,4.57,0.14,4.57,0.14,-0.13,-0.19,-0.08,4.44,4.44,4.43
56.86,4.58,0.16,4.58,0.16,-0.15,-0.19,-0.08,4.43,4.43,4.42
57.42,4.58,0.16,4.59,0.17,-0.17,-0.19,-0.09,4.42,4.42,4.42
58.00,4.58,0.18,4.59,0.17,-0.18,-0.19,-0.09,4.41,4.41,4.41
58.58,4.58,0.18,4.58,0.18,-0.18,-0.19,-0.09,4.40,4.40,4.40
59.16,4.57,0.18,4.57,0.18,-0.18,-0.19,-0.09,4.39,4.39,4.39
59.76,4.56,0.19,4.56,0.18,-0.18,-0.19,-0.09,4.38,4.38,4.38
60.35,4.54,0.18,4.54,0.18,-0.17,-0.20,-0.09,4.37,4.37,4.36
60.96,4.52,0.18,4.52,0.17,-0.16,-0.20,-0.10,4.36,4.36,4.35
61.57,4.49,0.16,4.49,0.16,-0.16,-0.20,-0.10,4.34,4.34,4.33
62.18,4.46,0.15,4.46,0.14,-0.15,-0.20,-0.10,4.31,4.31,4.32
62.80,4.43,0.13,4.44,0.13,-0.15,-0.20,-0.10,4.29,4.29,4.30
63.43,4.41,0.13,4.41,0.13,-0.15,-0.20,-0.11,4.26,4.26,4.29
64.07,4.40,0.15,4.40,0.14,-0.16,-0.20,-0.11,4.24,4.25,4.26
64.71,4.40,0.16,4.41,0.17,-0.17,-0.20,-0.11,4.23,4.23,4.24
65.35,4.41,0.19,4.41,0.19,-0.19,-0.21,-0.11,4.22,4.22,4.22
66.01,4.42,0.22,4.42,0.22,-0.21,-0.21,-0.12,4.21,4.21,4.20
66.67,4.42,0.24,4.42,0.24,-0.23,-0.21,-0.12,4.20,4.20,4.18
67.33,4.41,0.25,4.42,0.25,-0.24,-0.21,-0.12,4.17,4.17,4.17
68.01,4.40,0.27,4.40,0.26,-0.25,-0.21,-0.12,4.15,4.15,4.14
68.69,4.37,0.26,4.38,0.26,-0.26,-0.21,-0.13,4.11,4.12,4.11
69.37,4.35,0.26,4.35,0.26,-0.26,-0.21,-0.13,4.09,4.09,4.09
70.07,4.32,0.25,4.32,0.25,-0.25,-0.22,-0.13,4.07,4.07,4.07
70.77,4.29,0.24,4.29,0.25,-0.25,-0.22,-0.14,4.05,4.05,4.05
71.48,4.26,0.24,4.26,0.24,-0.24,-0.22,-0.14,4.03,4.03,4.03
72.19,4.23,0.23,4.23,0.23,-0.23,-0.22,-0.14,4.01,4.01,4.00
72.91,4.20,0.21,4.20,0.22,-0.22,-0.22,-0.15,3.99,3.99,3.99
73.64,4.17,0.21,4.17,0.21,-0.21,-0.22,-0.15,3.97,3.96,3.96
74.38,4.14,0.19,4.14,0.20,-0.20,-0.23,-0.16,3.94,3.94,3.95
75.12,4.11,0.19,4.12,0.19,-0.20,-0.23,-0.16,3.91,3.92,3.92
75.87,4.10,0.20,4.10,0.20,-0.20,-0.23,-0.17,3.90,3.90,3.91
76.63,4.09,0.20,4.09,0.20,-0.21,-0.23,-0.17,3.88,3.88,3.89
77.40,4.09,0.22,4.09,0.22,-0.22,-0.23,-0.17,3.87,3.87,3.87
78.17,4.08,0.23,4.09,0.23,-0.23,-0.23,-0.18,3.85,3.85,3.86
78.95,4.08,0.25,4.08,0.25,-0.25,-0.24,-0.18,3.84,3.84,3.84
79.74,4.08,0.27,4.08,0.26,-0.26,-0.24,-0.19,3.82,3.82,3.82
80.54,4.07,0.28,4.07,0.28,-0.27,-0.24,-0.19,3.81,3.81,3.80
81.35,4.06,0.29,4.06,0.28,-0.27,-0.24,-0.20,3.79,3.79,3.78
82.16,4.03,0.28,4.04,0.28,-0.28,-0.24,-0.21,3.76,3.76,3.76
82.98,4.01,0.28,4.01,0.28,-0.27,-0.25,-0.21,3.74,3.74,3.74
83.81,3.98,0.27,3.98,0.27,-0.27,-0.25,-0.22,3.72,3.72,3.71
84.65,3.95,0.26,3.95,0.26,-0.26,-0.25,-0.22,3.69,3.69,3.69
85.50,3.91,0.24,3.92,0.25,-0.25,-0.25,-0.23,3.67,3.67,3.67
86.35,3.88,0.24,3.88,0.24,-0.24,-0.26,-0.24,3.64,3.64,3.65
87.22,3.85,0.23,3.85,0.23,-0.23,-0.26,-0.24,3.62,3.62,3.62
88.09,3.82,0.23,3.83,0.22,-0.23,-0.26,-0.25,3.60,3.60,3.60
88.97,3.80,0.22,3.80,0.22,-0.23,-0.26,-0.26,3.58,3.58,3.58
89.86,3.78,0.22,3.78,0.23,-0.23,-0.27,-0.27,3.55,3.55,3.56
90.76,3.77,0.24,3.77,0.23,-0.24,-0.27,-0.27,3.53,3.53,3.53
91.66,3.76,0.25,3.77,0.25,-0.26,-0.27,-0.28,3.51,3.51,3.52
92.58,3.76,0.27,3.76,0.27,-0.27,-0.27,-0.29,3.49,3.49,3.49
93.51,3.76,0.30,3.76,0.29,-0.29,-0.28,-0.30,3.47,3.47,3.47
94.44,3.76,0.31,3.76,0.32,-0.31,-0.28,-0.31,3.46,3.45,3.45
95.39,3.75,0.33,3.76,0.33,-0.32,-0.28,-0.31,3.43,3.43,3.42
96.34,3.74,0.34,3.74,0.34,-0.33,-0.28,-0.32,3.41,3.41,3.40
97.30,3.72,0.35,3.72,0.34,-0.34,-0.29,-0.33,3.38,3.38,3.38
98.28,3.69,0.34,3.69,0.34,-0.35,-0.29,-0.34,3.35,3.35,3.35
99.26,3.66,0.34,3.67,0.34,-0.35,-0.29,-0.35,3.31,3.32,3.32
100.25,3.64,0.34,3.64,0.34,-0.35,-0.30,-0.36,3.29,3.29,3.30
101.25,3.62,0.35,3.62,0.35,-0.35,-0.30,-0.37,3.28,3.27,3.28
102.27,3.59,0.35,3.59,0.35,-0.34,-0.30,-0.38,3.25,3.25,3.25
103.29,3.56,0.35,3.56,0.35,-0.34,-0.31,-0.39,3.22,3.22,3.21
104.32,3.52,0.34,3.52,0.34,-0.34,-0.31,-0.39,3.19,3.19,3.18
105.37,3.48,0.33,3.48,0.34,-0.33,-0.31,-0.40,3.15,3.15,3.15
106.42,3.44,0.33,3.44,0.33,-0.33,-0.32,-0.41,3.11,3.11,3.11
107.48,3.40,0.33,3.40,0.32,-0.33,-0.32,-0.42,3.07,3.07,3.08
108.56,3.36,0.33,3.36,0.33,-0.33,-0.33,-0.43,3.03,3.03,3.04
109.64,3.32,0.32,3.33,0.33,-0.34,-0.33,-0.44,2.98,2.99,3.00
110.74,3.30,0.34,3.30,0.34,-0.35,-0.33,-0.45,2.95,2.95,2.96
111.85,3.28,0.36,3.28,0.36,-0.36,-0.34,-0.45,2.92,2.92,2.92
112.97,3.26,0.39,3.26,0.38,-0.37,-0.34,-0.46,2.89,2.89,2.88
114.10,3.23,0.40,3.23,0.40,-0.39,-0.34,-0.47,2.85,2.85,2.84
115.24,3.20,0.41,3.20,0.41,-0.39,-0.35,-0.48,2.81,2.81,2.79
116.39,3.15,0.40,3.16,0.40,-0.40,-0.35,-0.48,2.76,2.76,2.75
117.55,3.11,0.41,3.11,0.40,-0.40,-0.36,-0.49,2.71,2.71,2.71
118.73,3.06,0.39,3.07,0.40,-0.40,-0.36,-0.49,2.66,2.67,2.67
119.92,3.02,0.40,3.02,0.40,-0.40,-0.37,-0.50,2.62,2.62,2.62
121.12,2.98,0.39,2.98,0.39,-0.40,-0.37,-0.50,2.58,2.58,2.59
122.33,2.94,0.39,2.95,0.40,-0.41,-0.37,-0.50,2.54,2.54,2.55
123.55,2.92,0.41,2.92,0.40,-0.42,-0.38,-0.51,2.51,2.51,2.52
124.79,2.90,0.42,2.91,0.42,-0.43,-0.38,-0.51,2.48,2.48,2.48
126.03,2.89,0.44,2.89,0.44,-0.43,-0.39,-0.51,2.46,2.46,2.45
127.29,2.87,0.46,2.87,0.45,-0.44,-0.39,-0.51,2.43,2.43,2.42
128.57,2.84,0.46,2.85,0.46,-0.45,-0.40,-0.51,2.39,2.40,2.38
129.85,2.81,0.46,2.81,0.47,-0.46,-0.40,-0.51,2.36,2.36,2.35
131.15,2.78,0.47,2.78,0.46,-0.46,-0.41,-0.51,2.32,2.32,2.32
132.46,2.74,0.46,2.75,0.46,-0.46,-0.41,-0.50,2.28,2.28,2.29
133.79,2.71,0.45,2.72,0.45,-0.47,-0.41,-0.50,2.25,2.25,2.26
135.12,2.69,0.46,2.69,0.46,-0.47,-0.42,-0.50,2.23,2.22,2.23
136.48,2.66,0.46,2.67,0.47,-0.47,-0.42,-0.50,2.19,2.20,2.20
137.84,2.65,0.48,2.65,0.48,-0.47,-0.43,-0.49,2.18,2.18,2.17
139.22,2.63,0.49,2.63,0.49,-0.48,-0.43,-0.49,2.15,2.15,2.14
140.61,2.60,0.49,2.61,0.49,-0.48,-0.44,-0.48,2.12,2.13,2.12
142.02,2.58,0.49,2.58,0.49,-0.48,-0.44,-0.48,2.10,2.10,2.10
143.44,2.55,0.48,2.55,0.48,-0.48,-0.44,-0.47,2.07,2.07,2.07
144.87,2.52,0.48,2.52,0.48,-0.48,-0.45,-0.47,2.04,2.04,2.04
146.32,2.48,0.48,2.49,0.48,-0.47,-0.45,-0.46,2.01,2.01,2.01
147.78,2.45,0.47,2.45,0.47,-0.47,-0.45,-0.45,1.98,1.98,1.98
149.26,2.41,0.46,2.42,0.46,-0.47,-0.46,-0.45,1.95,1.95,1.96
150.75,2.38,0.45,2.38,0.45,-0.46,-0.46,-0.44,1.92,1.92,1.93
152.26,2.35,0.45,2.36,0.45,-0.47,-0.46,-0.44,1.89,1.89,1.91
153.78,2.33,0.46,2.34,0.46,-0.47,-0.47,-0.43,1.87,1.87,1.87
155.32,2.32,0.47,2.32,0.47,-0.47,-0.47,-0.43,1.86,1.85,1.85
156.88,2.30,0.48,2.30,0.48,-0.47,-0.47,-0.42,1.84,1.84,1.83
158.44,2.27,0.47,2.28,0.47,-0.46,-0.47,-0.41,1.81,1.81,1.81
160.03,2.24,0.47,2.24,0.47,-0.45,-0.48,-0.41,1.79,1.79,1.77
161.63,2.20,0.45,2.20,0.45,-0.44,-0.48,-0.40,1.76,1.76,1.75
163.24,2.16,0.44,2.16,0.44,-0.43,-0.48,-0.40,1.73,1.73,1.72
164.88,2.11,0.41,2.12,0.42,-0.42,-0.48,-0.39,1.69,1.70,1.70
166.53,2.07,0.40,2.07,0.40,-0.41,-0.48,-0.39,1.66,1.66,1.67
168.19,2.03,0.39,2.03,0.39,-0.41,-0.48,-0.39,1.63,1.63,1.65
169.87,2.00,0.39,2.01,0.39,-0.40,-0.48,-0.38,1.60,1.60,1.62
171.57,1.98,0.39,1.99,0.40,-0.40,-0.48,-0.38,1.58,1.58,1.59
173.29,1.97,0.41,1.97,0.41,-0.40,-0.48,-0.38,1.57,1.57,1.56
175.02,1.95,0.42,1.95,0.42,-0.40,-0.48,-0.37,1.55,1.55,1.54
176.77,1.92,0.42,1.92,0.42,-0.40,-0.48,-0.37,1.52,1.52,1.50
178.54,1.88,0.41,1.88,0.41,-0.40,-0.48,-0.37,1.48,1.48,1.47
180.32,1.84,0.41,1.84,0.40,-0.40,-0.48,-0.37,1.45,1.45,1.44
182.13,1.79,0.38,1.80,0.39,-0.39,-0.47,-0.36,1.40,1.41,1.41
183.95,1.75,0.38,1.75,0.38,-0.38,-0.47,-0.36,1.37,1.37,1.38
185.79,1.71,0.37,1.71,0.37,-0.38,-0.47,-0.36,1.34,1.34,1.34
187.65,1.68,0.36,1.68,0.36,-0.38,-0.47,-0.36,1.31,1.31,1.32
189.52,1.65,0.37,1.66,0.37,-0.38,-0.46,-0.36,1.28,1.28,1.29
191.42,1.63,0.38,1.64,0.38,-0.38,-0.46,-0.36,1.25,1.26,1.26
193.33,1.62,0.40,1.62,0.39,-0.39,-0.45,-0.36,1.24,1.23,1.22
195.27,1.60,0.40,1.60,0.40,-0.39,-0.45,-0.36,1.21,1.21,1.20
197.22,1.57,0.40,1.57,0.41,-0.40,-0.44,-0.36,1.18,1.18,1.17
199.19,1.54,0.41,1.54,0.41,-0.40,-0.44,-0.36,1.14,1.14,1.14
201.18,1.50,0.41,1.51,0.41,-0.40,-0.43,-0.36,1.10,1.10,1.10
203.19,1.47,0.41,1.47,0.40,-0.41,-0.43,-0.36,1.07,1.06,1.07
205.23,1.43,0.40,1.43,0.40,-0.41,-0.42,-0.36,1.02,1.02,1.04
207.28,1.40,0.40,1.41,0.40,-0.42,-0.41,-0.36,0.99,0.99,1.01
209.35,1.38,0.41,1.39,0.41,-0.42,-0.41,-0.36,0.96,0.96,0.98
211.44,1.37,0.44,1.37,0.43,-0.43,-0.40,-0.36,0.95,0.94,0.94
213.56,1.35,0.44,1.35,0.45,-0.43,-0.39,-0.36,0.92,0.92,0.91
215.69,1.32,0.45,1.32,0.45,-0.43,-0.38,-0.37,0.89,0.89,0.87
217.85,1.28,0.45,1.28,0.45,-0.43,-0.37,-0.37,0.85,0.85,0.83
220.03,1.23,0.43,1.24,0.43,-0.43,-0.36,-0.37,0.81,0.81,0.80
222.23,1.19,0.42,1.19,0.42,-0.42,-0.35,-0.36,0.78,0.77,0.78
224.45,1.14,0.40,1.14,0.40,-0.41,-0.34,-0.36,0.74,0.74,0.74
226.70,1.09,0.38,1.10,0.39,-0.39,-0.33,-0.36,0.70,0.70,0.71
228.96,1.05,0.37,1.06,0.37,-0.38,-0.32,-0.36,0.67,0.67,0.69
231.25,1.02,0.36,1.02,0.36,-0.37,-0.31,-0.36,0.65,0.65,0.66
233.57,0.99,0.35,1.00,0.36,-0.36,-0.30,-0.36,0.64,0.64,0.64
235.90,0.97,0.36,0.97,0.35,-0.35,-0.29,-0.35,0.63,0.62,0.62
238.26,0.94,0.34,0.94,0.34,-0.34,-0.27,-0.35,0.61,0.61,0.60
240.64,0.91,0.33,0.92,0.33,-0.32,-0.26,-0.34,0.59,0.59,0.58
243.05,0.88,0.32,0.88,0.31,-0.31,-0.25,-0.34,0.57,0.57,0.57
245.48,0.84,0.29,0.84,0.29,-0.29,-0.23,-0.33,0.55,0.55,0.55
247.93,0.80,0.27,0.81,0.27,-0.28,-0.22,-0.32,0.53,0.53,0.54
250.41,0.77,0.25,0.77,0.25,-0.26,-0.20,-0.31,0.52,0.52,0.52
252.92,0.74,0.24,0.74,0.24,-0.24,-0.19,-0.31,0.51,0.51,0.51
255.45,0.71,0.22,0.71,0.22,-0.21,-0.17,-0.30,0.50,0.50,0.49
258.00,0.67,0.20,0.68,0.20,-0.19,-0.15,-0.28,0.49,0.49,0.48
260.58,0.64,0.17,0.64,0.17,-0.16,-0.14,-0.27,0.48,0.48,0.47
263.19,0.59,0.13,0.59,0.13,-0.13,-0.12,-0.26,0.46,0.46,0.46
265.82,0.54,0.10,0.55,0.10,-0.10,-0.10,-0.25,0.44,0.44,0.45
268.48,0.49,0.06,0.50,0.06,-0.07,-0.08,-0.23,0.42,0.43,0.43
271.16,0.45,0.04,0.45,0.04,-0.04,-0.06,-0.22,0.41,0.41,0.42
273.87,0.41,0.01,0.41,0.01,-0.01,-0.04,-0.20,0.41,0.40,0.40
276.61,0.37,-0.02,0.37,-0.02,0.02,-0.02,-0.19,0.40,0.39,0.39
279.38,0.32,-0.05,0.33,-0.05,0.05,0.00,-0.17,0.38,0.38,0.38
282.17,0.28,-0.08,0.28,-0.08,0.08,0.03,-0.15,0.36,0.37,0.36
284.99,0.24,-0.11,0.24,-0.11,0.11,0.05,-0.13,0.35,0.35,0.35
287.84,0.20,-0.13,0.20,-0.13,0.14,0.07,-0.12,0.34,0.34,0.34
290.72,0.16,-0.16,0.16,-0.16,0.17,0.10,-0.10,0.33,0.33,0.33
293.63,0.12,-0.19,0.12,-0.19,0.19,0.12,-0.08,0.31,0.31,0.31
296.57,0.08,-0.22,0.08,-0.22,0.21,0.15,-0.06,0.29,0.29,0.30
299.53,0.04,-0.24,0.05,-0.24,0.23,0.17,-0.04,0.27,0.28,0.29
302.53,0.01,-0.26,0.02,-0.25,0.25,0.20,-0.01,0.26,0.26,0.27
305.55,-0.01,-0.26,-0.01,-0.26,0.26,0.23,0.01,0.26,0.25,0.25
308.61,-0.03,-0.27,-0.03,-0.27,0.28,0.25,0.03,0.25,0.25,0.24
311.69,-0.06,-0.28,-0.06,-0.28,0.29,0.28,0.05,0.23,0.24,0.23
314.81,-0.09,-0.29,-0.09,-0.30,0.31,0.30,0.07,0.22,0.22,0.21
317.96,-0.13,-0.32,-0.13,-0.32,0.32,0.33,0.10,0.19,0.19,0.19
321.14,-0.17,-0.34,-0.16,-0.34,0.34,0.35,0.12,0.17,0.17,0.17
324.35,-0.20,-0.36,-0.20,-0.36,0.35,0.37,0.15,0.16,0.15,0.16
327.59,-0.24,-0.37,-0.23,-0.37,0.37,0.39,0.17,0.13,0.13,0.14
330.87,-0.27,-0.39,-0.26,-0.39,0.38,0.41,0.19,0.12,0.12,0.13
334.18,-0.29,-0.39,-0.29,-0.40,0.40,0.42,0.22,0.11,0.11,0.10
337.52,-0.32,-0.41,-0.31,-0.40,0.41,0.44,0.24,0.09,0.09,0.09
340.90,-0.34,-0.41,-0.34,-0.41,0.41,0.45,0.27,0.08,0.07,0.07
344.30,-0.37,-0.43,-0.36,-0.42,0.42,0.45,0.30,0.05,0.05,0.06
347.75,-0.39,-0.42,-0.39,-0.42,0.42,0.46,0.32,0.03,0.03,0.04
351.23,-0.41,-0.42,-0.40,-0.43,0.42,0.46,0.35,0.01,0.01,0.02
354.74,-0.42,-0.42,-0.42,-0.42,0.42,0.46,0.38,0.00,-0.00,0.00
358.28,-0.44,-0.42,-0.43,-0.42,0.42,0.46,0.40,-0.02,-0.02,-0.02
361.87,-0.45,-0.41,-0.45,-0.41,0.41,0.45,0.43,-0.03,-0.03,-0.04
365.49,-0.47,-0.42,-0.46,-0.41,0.41,0.44,0.46,-0.05,-0.05,-0.05
369.14,-0.48,-0.41,-0.48,-0.41,0.42,0.43,0.49,-0.06,-0.06,-0.07
372.83,-0.50,-0.41,-0.50,-0.41,0.42,0.42,0.52,-0.08,-0.08,-0.08
376.56,-0.53,-0.42,-0.52,-0.42,0.43,0.40,0.54,-0.10,-0.10,-0.10
380.33,-0.56,-0.43,-0.56,-0.44,0.44,0.39,0.57,-0.12,-0.12,-0.12
384.13,-0.59,-0.45,-0.59,-0.45,0.45,0.38,0.60,-0.14,-0.14,-0.13
387.97,-0.62,-0.46,-0.61,-0.46,0.46,0.36,0.63,-0.16,-0.15,-0.16
391.85,-0.64,-0.47,-0.64,-0.47,0.47,0.34,0.66,-0.17,-0.17,-0.17
395.77,-0.66,-0.48,-0.65,-0.48,0.47,0.33,0.69,-0.19,-0.18,-0.18
399.73,-0.67,-0.48,-0.67,-0.48,0.47,0.31,0.72,-0.20,-0.20,-0.19
403.72,-0.67,-0.47,-0.67,-0.47,0.46,0.30,0.75,-0.21,-0.21,-0.20
407.76,-0.67,-0.46,-0.66,-0.45,0.44,0.29,0.78,-0.23,-0.22,-0.21
411.84,-0.65,-0.41,-0.65,-0.42,0.42,0.28,0.80,-0.23,-0.23,-0.23
415.96,-0.63,-0.38,-0.63,-0.39,0.39,0.27,0.83,-0.24,-0.24,-0.24
420.12,-0.61,-0.35,-0.61,-0.35,0.35,0.26,0.86,-0.25,-0.25,-0.25
424.32,-0.59,-0.32,-0.59,-0.32,0.32,0.25,0.88,-0.27,-0.26,-0.26
428.56,-0.57,-0.29,-0.57,-0.29,0.29,0.24,0.91,-0.28,-0.28,-0.27
432.85,-0.55,-0.25,-0.55,-0.26,0.26,0.24,0.93,-0.29,-0.29,-0.29
437.18,-0.54,-0.23,-0.53,-0.23,0.24,0.24,0.96,-0.30,-0.30,-0.31
441.55,-0.53,-0.21,-0.53,-0.21,0.22,0.24,0.98,-0.31,-0.31,-0.32
445.96,-0.54,-0.20,-0.54,-0.20,0.21,0.24,1.00,-0.33,-0.33,-0.34
450.42,-0.56,-0.20,-0.55,-0.20,0.20,0.24,1.02,-0.35,-0.35,-0.36
454.93,-0.58,-0.21,-0.57,-0.20,0.20,0.25,1.04,-0.37,-0.37,-0.37
459.48,-0.60,-0.21,-0.60,-0.21,0.21,0.25,1.05,-0.39,-0.39,-0.39
464.07,-0.63,-0.22,-0.63,-0.22,0.22,0.26,1.06,-0.41,-0.41,-0.41
468.71,-0.66,-0.23,-0.66,-0.23,0.23,0.28,1.07,-0.43,-0.43,-0.43
473.40,-0.70,-0.26,-0.69,-0.25,0.24,0.29,1.08,-0.45,-0.45,-0.44
478.13,-0.73,-0.27,-0.72,-0.26,0.26,0.31,1.09,-0.47,-0.46,-0.46
482.91,-0.75,-0.28,-0.75,-0.28,0.27,0.33,1.09,-0.47,-0.48,-0.47
487.74,-0.78,-0.28,-0.78,-0.29,0.29,0.35,1.09,-0.49,-0.49,-0.49
492.62,-0.81,-0.30,-0.81,-0.31,0.31,0.38,1.09,-0.50,-0.50,-0.50
497.55,-0.85,-0.33,-0.84,-0.33,0.32,0.40,1.08,-0.52,-0.51,-0.51
502.52,-0.87,-0.34,-0.87,-0.35,0.35,0.44,1.07,-0.52,-0.52,-0.52
507.55,-0.91,-0.37,-0.91,-0.37,0.37,0.47,1.06,-0.53,-0.53,-0.53
512.62,-0.95,-0.39,-0.95,-0.40,0.40,0.51,1.05,-0.54,-0.54,-0.55
517.75,-1.01,-0.44,-1.00,-0.44,0.44,0.56,1.03,-0.56,-0.56,-0.56
522.93,-1.07,-0.48,-1.07,-0.48,0.49,0.61,1.01,-0.58,-0.58,-0.58
528.16,-1.14,-0.53,-1.14,-0.53,0.54,0.66,0.99,-0.59,-0.60,-0.60
