frequency,raw,error,smoothed,error_smoothed,equalization,parametric_eq,fixed_band_eq,equalized_raw,equalized_smoothed,target
20.00,7.60,3.24,7.60,3.24,-3.24,-2.23,-0.96,4.36,4.36,4.36
20.20,7.51,3.17,7.51,3.17,-3.17,-2.23,-0.99,4.34,4.34,4.34
20.40,7.41,3.10,7.41,3.10,-3.10,-2.23,-1.02,4.31,4.32,4.31
20.61,7.32,3.03,7.32,3.03,-3.03,-2.23,-1.05,4.30,4.29,4.29
20.81,7.23,2.96,7.23,2.96,-2.96,-2.23,-1.08,4.27,4.27,4.27
21.02,7.14,2.90,7.14,2.90,-2.90,-2.23,-1.11,4.24,4.25,4.24
21.23,7.06,2.84,7.06,2.84,-2.84,-2.23,-1.15,4.23,4.22,4.22
21.44,6.98,2.78,6.98,2.78,-2.78,-2.23,-1.18,4.20,4.20,4.20
21.66,6.90,2.72,6.90,2.72,-2.72,-2.23,-1.21,4.18,4.18,4.18
21.87,6.83,2.67,6.83,2.67,-2.67,-2.23,-1.25,4.16,4.16,4.16
22.09,6.76,2.62,6.76,2.62,-2.63,-2.23,-1.29,4.13,4.13,4.14
22.31,6.69,2.57,6.69,2.58,-2.58,-2.23,-1.33,4.11,4.11,4.12
22.54,6.63,2.54,6.63,2.54,-2.54,-2.23,-1.36,4.09,4.09,4.09
22.76,6.57,2.50,6.57,2.50,-2.50,-2.23,-1.40,4.07,4.07,4.07
22.99,6.51,2.46,6.51,2.46,-2.46,-2.23,-1.44,4.05,4.05,4.05
23.22,6.45,2.42,6.45,2.42,-2.42,-2.23,-1.49,4.03,4.03,4.03
23.45,6.40,2.38,6.40,2.38,-2.38,-2.23,-1.53,4.02,4.01,4.02
23.69,6.34,2.35,6.35,2.35,-2.35,-2.23,-1.57,3.99,4.00,4.00
23.92,6.30,2.32,6.30,2.31,-2.31,-2.23,-1.62,3.99,3.98,3.99
24.16,6.25,2.29,6.25,2.28,-2.28,-2.23,-1.66,3.97,3.97,3.97
24.40,6.20,2.25,6.20,2.25,-2.25,-2.23,-1.71,3.95,3.95,3.95
24.65,6.16,2.22,6.16,2.22,-2.22,-2.23,-1.75,3.94,3.94,3.94
24.89,6.12,2.20,6.12,2.20,-2.20,-2.23,-1.80,3.92,3.92,3.92
25.14,6.09,2.18,6.09,2.18,-2.18,-2.23,-1.85,3.91,3.91,3.91
25.39,6.06,2.16,6.06,2.16,-2.16,-2.23,-1.89,3.90,3.90,3.90
25.65,6.03,2.14,6.03,2.14,-2.14,-2.23,-1.94,3.89,3.89,3.89
25.91,6.01,2.13,6.01,2.13,-2.13,-2.23,-1.99,3.88,3.88,3.88
26.16,5.98,2.11,5.98,2.12,-2.12,-2.23,-2.04,3.86,3.87,3.87
26.43,5.96,2.11,5.96,2.11,-2.11,-2.23,-2.08,3.85,3.86,3.85
26.69,5.94,2.10,5.94,2.10,-2.10,-2.23,-2.13,3.84,3.84,3.84
26.96,5.92,2.09,5.92,2.09,-2.09,-2.23,-2.17,3.83,3.83,3.83
27.23,5.90,2.08,5.90,2.08,-2.08,-2.23,-2.22,3.82,3.82,3.82
27.50,5.87,2.07,5.88,2.07,-2.07,-2.23,-2.26,3.80,3.81,3.81
27.77,5.86,2.06,5.86,2.06,-2.06,-2.23,-2.30,3.80,3.80,3.81
28.05,5.85,2.06,5.85,2.06,-2.06,-2.23,-2.35,3.79,3.79,3.79
28.33,5.84,2.06,5.84,2.05,-2.05,-2.23,-2.38,3.79,3.79,3.78
28.62,5.83,2.05,5.83,2.05,-2.05,-2.23,-2.42,3.79,3.78,3.78
28.90,5.81,2.04,5.82,2.04,-2.04,-2.23,-2.45,3.77,3.77,3.77
29.19,5.80,2.03,5.81,2.04,-2.04,-2.23,-2.49,3.76,3.77,3.77
29.48,5.80,2.04,5.80,2.04,-2.04,-2.23,-2.51,3.77,3.76,3.76
29.78,5.79,2.03,5.79,2.03,-2.03,-2.23,-2.54,3.76,3.76,3.76
30.08,5.78,2.03,5.78,2.03,-2.03,-2.23,-2.56,3.75,3.75,3.75
30.38,5.77,2.03,5.77,2.03,-2.03,-2.23,-2.58,3.74,3.74,3.75
30.68,5.76,2.03,5.76,2.03,-2.03,-2.23,-2.60,3.73,3.73,3.73
30.99,5.76,2.04,5.76,2.03,-2.03,-2.23,-2.61,3.73,3.73,3.72
31.30,5.74,2.02,5.75,2.03,-2.02,-2.23,-2.62,3.72,3.72,3.72
31.61,5.74,2.03,5.74,2.03,-2.02,-2.23,-2.63,3.72,3.71,3.71
31.93,5.72,2.02,5.72,2.02,-2.02,-2.23,-2.63,3.70,3.70,3.70
32.24,5.71,2.01,5.71,2.02,-2.02,-2.23,-2.63,3.69,3.69,3.70
32.57,5.70,2.02,5.70,2.02,-2.02,-2.23,-2.62,3.68,3.68,3.69
32.89,5.69,2.02,5.69,2.02,-2.02,-2.23,-2.62,3.67,3.67,3.67
33.22,5.69,2.03,5.69,2.02,-2.03,-2.23,-2.60,3.67,3.66,3.66
33.55,5.68,2.03,5.68,2.03,-2.03,-2.23,-2.59,3.65,3.65,3.65
33.89,5.67,2.03,5.68,2.04,-2.03,-2.23,-2.58,3.64,3.64,3.64
34.23,5.67,2.04,5.67,2.04,-2.04,-2.23,-2.56,3.63,3.63,3.63
34.57,5.67,2.05,5.67,2.05,-2.05,-2.23,-2.54,3.62,3.62,3.62
34.92,5.67,2.06,5.67,2.06,-2.05,-2.23,-2.52,3.62,3.61,3.61
35.27,5.66,2.06,5.66,2.06,-2.06,-2.23,-2.49,3.60,3.60,3.60
35.62,5.66,2.06,5.66,2.07,-2.07,-2.23,-2.47,3.59,3.59,3.60
35.97,5.66,2.08,5.66,2.07,-2.08,-2.23,-2.44,3.58,3.58,3.59
36.33,5.67,2.09,5.66,2.08,-2.09,-2.22,-2.41,3.58,3.58,3.58
36.70,5.66,2.09,5.67,2.10,-2.10,-2.22,-2.39,3.56,3.57,3.57
37.06,5.67,2.11,5.67,2.11,-2.11,-2.22,-2.36,3.56,3.56,3.56
37.43,5.68,2.13,5.68,2.13,-2.12,-2.22,-2.33,3.56,3.56,3.56
37.81,5.68,2.14,5.68,2.14,-2.13,-2.22,-2.30,3.55,3.55,3.54
38.19,5.69,2.15,5.69,2.15,-2.15,-2.22,-2.27,3.54,3.54,3.54
38.57,5.68,2.15,5.69,2.16,-2.16,-2.22,-2.24,3.52,3.53,3.53
38.95,5.69,2.17,5.69,2.17,-2.17,-2.22,-2.22,3.52,3.52,3.52
39.34,5.70,2.19,5.70,2.18,-2.18,-2.22,-2.19,3.52,3.51,3.51
39.74,5.70,2.19,5.70,2.20,-2.20,-2.22,-2.17,3.50,3.50,3.51
40.14,5.70,2.21,5.71,2.21,-2.21,-2.22,-2.14,3.49,3.50,3.49
40.54,5.71,2.22,5.71,2.22,-2.22,-2.22,-2.12,3.49,3.49,3.49
40.94,5.72,2.25,5.72,2.24,-2.24,-2.22,-2.09,3.48,3.48,3.48
41.35,5.72,2.25,5.72,2.25,-2.25,-2.22,-2.07,3.47,3.47,3.47
41.76,5.72,2.26,5.73,2.27,-2.26,-2.21,-2.05,3.46,3.46,3.46
42.18,5.73,2.28,5.73,2.28,-2.28,-2.21,-2.03,3.45,3.45,3.45
42.60,5.73,2.29,5.73,2.29,-2.29,-2.21,-2.02,3.44,3.44,3.44
43.03,5.73,2.30,5.73,2.30,-2.30,-2.21,-2.00,3.43,3.43,3.44
43.46,5.73,2.31,5.74,2.31,-2.31,-2.21,-1.99,3.42,3.42,3.42
43.90,5.74,2.33,5.74,2.32,-2.32,-2.21,-1.97,3.42,3.42,3.42
44.33,5.74,2.33,5.74,2.33,-2.33,-2.21,-1.96,3.41,3.41,3.41
44.78,5.73,2.34,5.73,2.34,-2.34,-2.21,-1.95,3.40,3.40,3.40
45.23,5.73,2.34,5.73,2.34,-2.34,-2.20,-1.94,3.39,3.39,3.39
45.68,5.72,2.34,5.73,2.34,-2.34,-2.20,-1.94,3.38,3.38,3.38
46.13,5.73,2.35,5.72,2.35,-2.35,-2.20,-1.93,3.38,3.38,3.38
46.60,5.72,2.35,5.72,2.35,-2.35,-2.20,-1.93,3.37,3.37,3.37
47.06,5.71,2.34,5.72,2.35,-2.35,-2.20,-1.93,3.37,3.37,3.37
47.53,5.71,2.35,5.70,2.34,-2.34,-2.20,-1.92,3.37,3.36,3.36
48.01,5.69,2.34,5.69,2.34,-2.34,-2.19,-1.93,3.35,3.35,3.35
48.49,5.68,2.33,5.68,2.34,-2.34,-2.19,-1.93,3.34,3.35,3.35
48.97,5.67,2.33,5.67,2.33,-2.33,-2.19,-1.93,3.34,3.34,3.34
49.46,5.66,2.33,5.66,2.33,-2.33,-2.19,-1.93,3.33,3.33,3.33
49.96,5.64,2.32,5.65,2.32,-2.32,-2.19,-1.94,3.32,3.32,3.32
50.46,5.63,2.31,5.63,2.32,-2.31,-2.18,-1.95,3.32,3.32,3.32
50.96,5.62,2.31,5.62,2.31,-2.31,-2.18,-1.95,3.31,3.31,3.31
51.47,5.60,2.30,5.60,2.30,-2.30,-2.18,-1.96,3.30,3.30,3.30
51.99,5.58,2.29,5.58,2.29,-2.29,-2.17,-1.97,3.29,3.29,3.29
52.51,5.56,2.28,5.56,2.28,-2.28,-2.17,-1.98,3.28,3.28,3.28
53.03,5.54,2.27,5.54,2.27,-2.27,-2.17,-1.99,3.27,3.27,3.27
53.56,5.52,2.26,5.52,2.26,-2.26,-2.17,-2.00,3.26,3.26,3.26
54.10,5.51,2.26,5.50,2.25,-2.25,-2.16,-2.01,3.26,3.25,3.25
54.64,5.48,2.24,5.49,2.24,-2.24,-2.16,-2.02,3.24,3.24,3.24
55.18,5.46,2.23,5.46,2.23,-2.23,-2.16,-2.03,3.23,3.23,3.23
55.74,5.44,2.22,5.44,2.22,-2.22,-2.15,-2.04,3.22,3.22,3.22
56.29,5.41,2.20,5.42,2.21,-2.21,-2.15,-2.05,3.21,3.21,3.21
56.86,5.39,2.19,5.39,2.19,-2.19,-2.14,-2.06,3.20,3.20,3.20
57.42,5.37,2.19,5.37,2.18,-2.18,-2.14,-2.07,3.19,3.19,3.19
58.00,5.34,2.16,5.34,2.16,-2.16,-2.14,-2.08,3.18,3.18,3.18
58.58,5.31,2.14,5.31,2.15,-2.15,-2.13,-2.08,3.16,3.17,3.17
59.16,5.29,2.13,5.29,2.13,-2.13,-2.13,-2.09,3.16,3.16,3.16
59.76,5.26,2.12,5.26,2.12,-2.12,-2.12,-2.09,3.14,3.15,3.14
60.35,5.24,2.10,5.24,2.10,-2.10,-2.12,-2.10,3.14,3.13,3.14
60.96,5.20,2.08,5.21,2.08,-2.09,-2.11,-2.10,3.12,3.12,3.12
61.57,5.18,2.07,5.18,2.07,-2.07,-2.11,-2.10,3.11,3.11,3.11
62.18,5.15,2.06,5.15,2.06,-2.05,-2.10,-2.10,3.10,3.10,3.09
62.80,5.12,2.04,5.12,2.04,-2.04,-2.10,-2.09,3.08,3.08,3.08
63.43,5.09,2.02,5.09,2.02,-2.02,-2.09,-2.09,3.07,3.07,3.07
64.07,5.05,2.00,5.06,2.00,-2.00,-2.09,-2.09,3.05,3.05,3.05
64.71,5.02,1.99,5.02,1.98,-1.99,-2.08,-2.08,3.03,3.03,3.04
65.35,4.99,1.97,4.99,1.97,-1.97,-2.07,-2.07,3.02,3.01,3.02
66.01,4.95,1.95,4.96,1.96,-1.96,-2.07,-2.06,3.00,3.00,3.00
66.67,4.92,1.94,4.92,1.94,-1.94,-2.06,-2.05,2.98,2.98,2.98
67.33,4.89,1.93,4.89,1.93,-1.93,-2.06,-2.04,2.97,2.96,2.96
68.01,4.85,1.91,4.86,1.91,-1.91,-2.05,-2.03,2.94,2.94,2.94
68.69,4.82,1.90,4.82,1.90,-1.90,-2.04,-2.01,2.92,2.92,2.92
69.37,4.78,1.88,4.78,1.88,-1.88,-2.03,-2.00,2.90,2.90,2.90
70.07,4.74,1.86,4.75,1.87,-1.87,-2.03,-1.98,2.87,2.88,2.88
70.77,4.71,1.86,4.71,1.85,-1.85,-2.02,-1.97,2.86,2.85,2.85
71.48,4.67,1.84,4.67,1.84,-1.84,-2.01,-1.95,2.83,2.83,2.83
72.19,4.63,1.82,4.64,1.83,-1.83,-2.00,-1.94,2.81,2.81,2.81
72.91,4.60,1.82,4.59,1.81,-1.81,-2.00,-1.92,2.79,2.78,2.78
73.64,4.55,1.80,4.55,1.80,-1.80,-1.99,-1.91,2.75,2.75,2.75
74.38,4.51,1.79,4.52,1.79,-1.79,-1.98,-1.89,2.72,2.73,2.72
75.12,4.48,1.78,4.48,1.78,-1.78,-1.97,-1.88,2.70,2.70,2.70
75.87,4.44,1.78,4.44,1.77,-1.77,-1.96,-1.86,2.67,2.67,2.66
76.63,4.40,1.77,4.40,1.77,-1.77,-1.95,-1.85,2.63,2.63,2.64
77.40,4.35,1.75,4.36,1.76,-1.76,-1.95,-1.84,2.59,2.60,2.60
78.17,4.32,1.76,4.32,1.76,-1.76,-1.94,-1.82,2.56,2.56,2.56
78.95,4.28,1.76,4.28,1.76,-1.76,-1.93,-1.81,2.52,2.52,2.52
79.74,4.24,1.76,4.24,1.76,-1.76,-1.92,-1.80,2.49,2.48,2.48
80.54,4.19,1.75,4.20,1.75,-1.76,-1.91,-1.79,2.44,2.44,2.44
81.35,4.16,1.76,4.16,1.76,-1.76,-1.90,-1.78,2.40,2.40,2.40
82.16,4.12,1.76,4.12,1.76,-1.76,-1.89,-1.78,2.36,2.36,2.36
82.98,4.08,1.76,4.08,1.76,-1.76,-1.88,-1.77,2.32,2.32,2.32
83.81,4.04,1.76,4.04,1.76,-1.76,-1.87,-1.77,2.28,2.28,2.28
84.65,3.99,1.76,4.00,1.76,-1.76,-1.86,-1.76,2.23,2.23,2.23
85.50,3.95,1.77,3.95,1.76,-1.76,-1.86,-1.76,2.19,2.19,2.18
86.35,3.91,1.76,3.91,1.76,-1.76,-1.85,-1.76,2.15,2.15,2.15
87.22,3.86,1.75,3.87,1.76,-1.76,-1.84,-1.76,2.10,2.10,2.11
88.09,3.83,1.77,3.83,1.76,-1.76,-1.83,-1.76,2.07,2.06,2.06
88.97,3.78,1.76,3.78,1.76,-1.76,-1.82,-1.77,2.02,2.02,2.02
89.86,3.74,1.77,3.74,1.77,-1.76,-1.81,-1.77,1.98,1.98,1.97
90.76,3.70,1.76,3.70,1.77,-1.76,-1.80,-1.78,1.94,1.94,1.94
91.66,3.66,1.77,3.66,1.76,-1.76,-1.79,-1.78,1.90,1.90,1.89
92.58,3.62,1.76,3.62,1.76,-1.77,-1.79,-1.79,1.86,1.85,1.86
93.51,3.57,1.76,3.58,1.77,-1.77,-1.78,-1.80,1.81,1.81,1.81
94.44,3.54,1.77,3.54,1.77,-1.76,-1.77,-1.81,1.78,1.77,1.77
95.39,3.50,1.77,3.50,1.77,-1.77,-1.76,-1.83,1.74,1.73,1.73
96.34,3.45,1.76,3.46,1.77,-1.77,-1.76,-1.84,1.68,1.69,1.69
97.30,3.41,1.77,3.41,1.77,-1.77,-1.75,-1.85,1.64,1.64,1.64
98.28,3.37,1.77,3.37,1.77,-1.77,-1.74,-1.87,1.60,1.60,1.61
99.26,3.33,1.77,3.33,1.77,-1.78,-1.74,-1.89,1.55,1.55,1.56
100.25,3.29,1.78,3.29,1.78,-1.78,-1.73,-1.90,1.51,1.51,1.51
101.25,3.25,1.79,3.25,1.79,-1.79,-1.73,-1.92,1.46,1.46,1.46
102.27,3.21,1.80,3.21,1.80,-1.79,-1.72,-1.94,1.42,1.42,1.41
103.29,3.16,1.80,3.17,1.80,-1.80,-1.72,-1.96,1.36,1.37,1.36
104.32,3.12,1.81,3.12,1.81,-1.80,-1.71,-1.98,1.32,1.32,1.32
105.37,3.08,1.81,3.08,1.81,-1.81,-1.71,-2.00,1.27,1.27,1.27
106.42,3.03,1.81,3.03,1.82,-1.82,-1.71,-2.02,1.21,1.22,1.22
107.48,2.99,1.82,2.99,1.82,-1.82,-1.71,-2.04,1.17,1.17,1.17
108.56,2.95,1.83,2.95,1.83,-1.83,-1.71,-2.05,1.12,1.12,1.12
109.64,2.91,1.84,2.91,1.84,-1.84,-1.71,-2.07,1.08,1.08,1.07
110.74,2.87,1.84,2.87,1.85,-1.84,-1.71,-2.09,1.03,1.03,1.03
111.85,2.83,1.85,2.83,1.85,-1.85,-1.71,-2.11,0.98,0.98,0.98
112.97,2.79,1.86,2.79,1.86,-1.86,-1.71,-2.12,0.93,0.93,0.93
114.10,2.74,1.86,2.75,1.86,-1.87,-1.71,-2.14,0.88,0.88,0.88
115.24,2.71,1.88,2.71,1.87,-1.87,-1.72,-2.15,0.84,0.84,0.84
116.39,2.67,1.88,2.67,1.88,-1.88,-1.72,-2.16,0.79,0.79,0.79
117.55,2.63,1.89,2.63,1.89,-1.88,-1.73,-2.17,0.75,0.75,0.74
118.73,2.59,1.90,2.59,1.89,-1.89,-1.73,-2.18,0.70,0.70,0.70
119.92,2.55,1.89,2.55,1.89,-1.89,-1.74,-2.18,0.66,0.66,0.66
121.12,2.51,1.90,2.51,1.90,-1.90,-1.75,-2.19,0.61,0.62,0.61
122.33,2.47,1.89,2.48,1.90,-1.90,-1.76,-2.19,0.57,0.58,0.58
123.55,2.44,1.91,2.44,1.90,-1.90,-1.77,-2.19,0.54,0.54,0.53
124.79,2.40,1.90,2.40,1.91,-1.90,-1.78,-2.18,0.50,0.50,0.50
126.03,2.36,1.91,2.36,1.91,-1.91,-1.79,-2.18,0.45,0.46,0.46
127.29,2.33,1.91,2.33,1.91,-1.91,-1.80,-2.17,0.42,0.42,0.42
128.57,2.29,1.90,2.30,1.91,-1.91,-1.81,-2.16,0.38,0.38,0.39
129.85,2.27,1.93,2.27,1.92,-1.92,-1.82,-2.14,0.36,0.35,0.35
131.15,2.23,1.92,2.23,1.92,-1.92,-1.83,-2.13,0.31,0.32,0.31
132.46,2.20,1.92,2.20,1.92,-1.92,-1.85,-2.11,0.29,0.28,0.28
133.79,2.16,1.91,2.16,1.91,-1.91,-1.86,-2.09,0.25,0.25,0.25
135.12,2.13,1.91,2.13,1.91,-1.91,-1.87,-2.06,0.22,0.22,0.22
136.48,2.09,1.90,2.09,1.90,-1.90,-1.88,-2.04,0.19,0.19,0.19
137.84,2.06,1.89,2.06,1.90,-1.90,-1.90,-2.01,0.16,0.16,0.17
139.22,2.03,1.89,2.03,1.89,-1.89,-1.91,-1.99,0.14,0.14,0.14
140.61,1.99,1.88,2.00,1.88,-1.88,-1.92,-1.96,0.11,0.12,0.11
142.02,1.96,1.87,1.96,1.87,-1.87,-1.93,-1.93,0.09,0.09,0.09
143.44,1.93,1.86,1.93,1.86,-1.86,-1.94,-1.90,0.07,0.07,0.08
144.87,1.89,1.84,1.90,1.84,-1.85,-1.94,-1.87,0.04,0.05,0.05
146.32,1.87,1.84,1.87,1.84,-1.84,-1.95,-1.84,0.04,0.03,0.03
147.78,1.83,1.82,1.84,1.82,-1.82,-1.95,-1.80,0.01,0.01,0.02
149.26,1.81,1.82,1.81,1.81,-1.81,-1.96,-1.77,0.00,-0.00,-0.01
150.75,1.77,1.80,1.77,1.80,-1.80,-1.96,-1.74,-0.02,-0.02,-0.02
152.26,1.74,1.78,1.74,1.78,-1.78,-1.96,-1.71,-0.04,-0.04,-0.04
153.78,1.71,1.76,1.71,1.76,-1.76,-1.95,-1.67,-0.05,-0.05,-0.05
155.32,1.68,1.75,1.68,1.75,-1.75,-1.95,-1.64,-0.07,-0.07,-0.07
156.88,1.65,1.73,1.65,1.73,-1.73,-1.94,-1.61,-0.08,-0.08,-0.08
158.44,1.62,1.71,1.62,1.71,-1.71,-1.93,-1.58,-0.09,-0.09,-0.09
160.03,1.59,1.69,1.59,1.69,-1.69,-1.91,-1.55,-0.10,-0.10,-0.10
161.63,1.56,1.67,1.56,1.67,-1.67,-1.90,-1.52,-0.11,-0.11,-0.11
163.24,1.53,1.65,1.53,1.66,-1.66,-1.88,-1.49,-0.13,-0.12,-0.12
164.88,1.51,1.64,1.51,1.64,-1.64,-1.86,-1.46,-0.13,-0.13,-0.13
166.53,1.48,1.62,1.48,1.62,-1.62,-1.84,-1.43,-0.14,-0.14,-0.14
168.19,1.45,1.60,1.45,1.60,-1.60,-1.81,-1.41,-0.15,-0.15,-0.15
169.87,1.42,1.58,1.42,1.58,-1.59,-1.78,-1.38,-0.16,-0.16,-0.16
171.57,1.40,1.58,1.40,1.57,-1.57,-1.75,-1.36,-0.17,-0.17,-0.18
173.29,1.36,1.54,1.37,1.55,-1.55,-1.72,-1.33,-0.19,-0.18,-0.18
175.02,1.34,1.53,1.34,1.53,-1.53,-1.69,-1.31,-0.19,-0.19,-0.19
176.77,1.31,1.52,1.31,1.51,-1.51,-1.66,-1.29,-0.20,-0.20,-0.21
178.54,1.28,1.49,1.28,1.50,-1.50,-1.62,-1.27,-0.21,-0.21,-0.21
180.32,1.25,1.48,1.25,1.48,-1.48,-1.59,-1.25,-0.23,-0.23,-0.23
182.13,1.22,1.46,1.22,1.46,-1.46,-1.55,-1.23,-0.24,-0.24,-0.24
183.95,1.18,1.44,1.19,1.45,-1.44,-1.51,-1.21,-0.26,-0.26,-0.26
185.79,1.16,1.43,1.16,1.43,-1.43,-1.48,-1.20,-0.27,-0.27,-0.27
187.65,1.13,1.41,1.13,1.41,-1.41,-1.44,-1.18,-0.28,-0.28,-0.28
189.52,1.09,1.39,1.10,1.40,-1.39,-1.40,-1.17,-0.30,-0.29,-0.30
191.42,1.07,1.38,1.07,1.37,-1.37,-1.36,-1.15,-0.30,-0.31,-0.31
193.33,1.03,1.35,1.03,1.36,-1.36,-1.32,-1.14,-0.32,-0.32,-0.32
195.27,1.00,1.34,1.00,1.33,-1.33,-1.29,-1.13,-0.33,-0.34,-0.33
197.22,0.96,1.32,0.96,1.31,-1.31,-1.25,-1.12,-0.35,-0.35,-0.35
199.19,0.92,1.29,0.93,1.29,-1.29,-1.21,-1.11,-0.37,-0.36,-0.37
201.18,0.89,1.28,0.88,1.27,-1.27,-1.17,-1.10,-0.38,-0.38,-0.39
203.19,0.84,1.24,0.84,1.24,-1.25,-1.14,-1.09,-0.40,-0.40,-0.40
205.23,0.80,1.22,0.81,1.22,-1.22,-1.10,-1.08,-0.42,-0.42,-0.42
207.28,0.77,1.20,0.77,1.20,-1.20,-1.07,-1.07,-0.43,-0.44,-0.43
209.35,0.73,1.18,0.73,1.18,-1.18,-1.03,-1.06,-0.45,-0.45,-0.45
211.44,0.70,1.17,0.70,1.17,-1.16,-1.00,-1.05,-0.46,-0.46,-0.47
213.56,0.67,1.15,0.67,1.15,-1.15,-0.97,-1.05,-0.47,-0.48,-0.47
215.69,0.64,1.13,0.64,1.13,-1.13,-0.94,-1.04,-0.49,-0.49,-0.49
217.85,0.60,1.10,0.61,1.11,-1.11,-0.91,-1.03,-0.51,-0.50,-0.50
220.03,0.58,1.10,0.58,1.10,-1.09,-0.88,-1.02,-0.51,-0.52,-0.52
222.23,0.55,1.08,0.55,1.08,-1.08,-0.85,-1.02,-0.52,-0.53,-0.53
224.45,0.52,1.06,0.52,1.06,-1.06,-0.82,-1.01,-0.54,-0.53,-0.53
226.70,0.49,1.03,0.49,1.04,-1.04,-0.79,-1.00,-0.55,-0.54,-0.54
228.96,0.47,1.02,0.47,1.02,-1.02,-0.76,-1.00,-0.55,-0.55,-0.55
231.25,0.44,1.00,0.44,1.00,-1.00,-0.74,-0.99,-0.55,-0.55,-0.56
233.57,0.42,0.97,0.42,0.98,-0.97,-0.71,-0.98,-0.55,-0.55,-0.55
235.90,0.39,0.95,0.40,0.95,-0.95,-0.69,-0.97,-0.56,-0.56,-0.56
238.26,0.38,0.94,0.38,0.93,-0.93,-0.66,-0.96,-0.55,-0.55,-0.55
240.64,0.35,0.90,0.36,0.91,-0.91,-0.64,-0.95,-0.56,-0.55,-0.55
243.05,0.34,0.90,0.34,0.89,-0.89,-0.62,-0.94,-0.55,-0.55,-0.56
245.48,0.31,0.86,0.32,0.87,-0.87,-0.60,-0.93,-0.56,-0.55,-0.55
247.93,0.30,0.85,0.30,0.85,-0.85,-0.58,-0.92,-0.55,-0.55,-0.55
250.41,0.28,0.82,0.28,0.83,-0.83,-0.55,-0.90,-0.55,-0.55,-0.54
252.92,0.27,0.82,0.27,0.81,-0.81,-0.53,-0.89,-0.54,-0.54,-0.55
255.45,0.24,0.78,0.25,0.79,-0.79,-0.52,-0.88,-0.55,-0.54,-0.54
258.00,0.23,0.77,0.23,0.77,-0.77,-0.50,-0.86,-0.54,-0.54,-0.54
260.58,0.22,0.76,0.22,0.76,-0.76,-0.48,-0.85,-0.54,-0.54,-0.54
263.19,0.20,0.75,0.20,0.74,-0.74,-0.46,-0.83,-0.54,-0.54,-0.54
265.82,0.18,0.72,0.19,0.73,-0.73,-0.44,-0.81,-0.55,-0.54,-0.54
268.48,0.17,0.71,0.17,0.72,-0.71,-0.43,-0.79,-0.54,-0.54,-0.54
271.16,0.16,0.71,0.16,0.70,-0.70,-0.41,-0.77,-0.54,-0.54,-0.55
273.87,0.14,0.69,0.14,0.69,-0.69,-0.40,-0.75,-0.55,-0.55,-0.55
276.61,0.12,0.67,0.13,0.67,-0.67,-0.38,-0.73,-0.55,-0.55,-0.54
279.38,0.11,0.66,0.11,0.66,-0.66,-0.37,-0.71,-0.55,-0.55,-0.55
282.17,0.10,0.65,0.10,0.64,-0.65,-0.35,-0.69,-0.54,-0.55,-0.55
284.99,0.08,0.62,0.08,0.63,-0.63,-0.34,-0.67,-0.55,-0.55,-0.54
287.84,0.07,0.62,0.07,0.62,-0.62,-0.33,-0.65,-0.55,-0.55,-0.55
290.72,0.06,0.60,0.06,0.60,-0.60,-0.31,-0.63,-0.54,-0.54,-0.54
293.63,0.05,0.59,0.05,0.59,-0.59,-0.30,-0.60,-0.54,-0.54,-0.54
296.57,0.03,0.57,0.04,0.57,-0.57,-0.29,-0.58,-0.54,-0.54,-0.53
299.53,0.02,0.56,0.02,0.55,-0.55,-0.27,-0.56,-0.53,-0.53,-0.54
302.53,0.00,0.53,0.00,0.53,-0.53,-0.26,-0.54,-0.53,-0.53,-0.53
305.55,-0.02,0.50,-0.01,0.51,-0.51,-0.25,-0.51,-0.53,-0.52,-0.52
308.61,-0.03,0.49,-0.03,0.48,-0.48,-0.24,-0.49,-0.51,-0.51,-0.51
311.69,-0.05,0.46,-0.05,0.46,-0.46,-0.23,-0.47,-0.50,-0.50,-0.51
314.81,-0.07,0.43,-0.07,0.43,-0.43,-0.22,-0.44,-0.49,-0.50,-0.50
317.96,-0.10,0.39,-0.09,0.40,-0.40,-0.21,-0.42,-0.50,-0.49,-0.49
321.14,-0.12,0.36,-0.12,0.36,-0.37,-0.20,-0.40,-0.48,-0.48,-0.48
324.35,-0.14,0.34,-0.14,0.33,-0.34,-0.19,-0.38,-0.47,-0.48,-0.48
327.59,-0.17,0.30,-0.17,0.30,-0.31,-0.18,-0.35,-0.47,-0.47,-0.47
330.87,-0.19,0.28,-0.19,0.27,-0.28,-0.17,-0.33,-0.46,-0.47,-0.47
334.18,-0.22,0.24,-0.22,0.25,-0.25,-0.16,-0.31,-0.47,-0.46,-0.46
337.52,-0.24,0.22,-0.24,0.22,-0.22,-0.15,-0.28,-0.46,-0.46,-0.46
340.90,-0.26,0.20,-0.26,0.19,-0.19,-0.14,-0.26,-0.45,-0.46,-0.45
344.30,-0.29,0.17,-0.29,0.17,-0.17,-0.13,-0.24,-0.46,-0.46,-0.46
347.75,-0.32,0.14,-0.32,0.14,-0.14,-0.12,-0.22,-0.46,-0.46,-0.46
351.23,-0.34,0.12,-0.34,0.12,-0.12,-0.11,-0.20,-0.46,-0.46,-0.46
354.74,-0.37,0.09,-0.37,0.10,-0.10,-0.10,-0.17,-0.47,-0.46,-0.46
358.28,-0.39,0.08,-0.39,0.08,-0.08,-0.09,-0.15,-0.47,-0.47,-0.47
361.87,-0.41,0.06,-0.41,0.06,-0.06,-0.08,-0.13,-0.47,-0.47,-0.47
365.49,-0.44,0.04,-0.44,0.04,-0.04,-0.07,-0.11,-0.48,-0.47,-0.47
369.14,-0.46,0.02,-0.45,0.02,-0.02,-0.06,-0.09,-0.48,-0.48,-0.48
372.83,-0.47,0.01,-0.47,0.00,-0.00,-0.06,-0.07,-0.47,-0.47,-0.48
376.56,-0.48,-0.01,-0.48,-0.01,0.01,-0.05,-0.04,-0.47,-0.47,-0.47
380.33,-0.50,-0.03,-0.50,-0.03,0.03,-0.04,-0.02,-0.47,-0.47,-0.47
384.13,-0.51,-0.04,-0.51,-0.04,0.04,-0.03,-0.00,-0.47,-0.47,-0.47
387.97,-0.52,-0.06,-0.52,-0.06,0.05,-0.02,0.02,-0.46,-0.47,-0.46
391.85,-0.53,-0.07,-0.52,-0.07,0.07,-0.01,0.04,-0.46,-0.46,-0.46
395.77,-0.53,-0.08,-0.53,-0.08,0.08,-0.00,0.06,-0.45,-0.45,-0.45
399.73,-0.53,-0.09,-0.53,-0.09,0.09,0.01,0.08,-0.44,-0.45,-0.44
403.72,-0.54,-0.09,-0.54,-0.10,0.09,0.02,0.10,-0.44,-0.44,-0.44
407.76,-0.54,-0.10,-0.54,-0.10,0.10,0.02,0.12,-0.44,-0.44,-0.44
411.84,-0.54,-0.11,-0.54,-0.11,0.11,0.03,0.14,-0.43,-0.43,-0.43
415.96,-0.53,-0.11,-0.53,-0.11,0.11,0.04,0.16,-0.42,-0.42,-0.42
420.12,-0.53,-0.11,-0.53,-0.11,0.11,0.05,0.18,-0.42,-0.41,-0.42
424.32,-0.52,-0.11,-0.52,-0.11,0.11,0.06,0.20,-0.40,-0.41,-0.41
428.56,-0.52,-0.12,-0.52,-0.12,0.11,0.07,0.22,-0.40,-0.40,-0.40
432.85,-0.51,-0.12,-0.51,-0.12,0.12,0.08,0.24,-0.39,-0.39,-0.39
437.18,-0.50,-0.12,-0.50,-0.12,0.12,0.09,0.26,-0.38,-0.38,-0.38
441.55,-0.49,-0.12,-0.49,-0.12,0.12,0.10,0.27,-0.37,-0.37,-0.37
445.96,-0.48,-0.12,-0.48,-0.12,0.13,0.11,0.29,-0.35,-0.36,-0.36
450.42,-0.48,-0.13,-0.48,-0.13,0.13,0.12,0.31,-0.34,-0.35,-0.35
454.93,-0.49,-0.15,-0.48,-0.14,0.14,0.13,0.32,-0.35,-0.34,-0.34
459.48,-0.49,-0.16,-0.49,-0.16,0.15,0.14,0.34,-0.34,-0.34,-0.33
464.07,-0.49,-0.16,-0.49,-0.17,0.17,0.15,0.35,-0.32,-0.33,-0.32
468.71,-0.50,-0.18,-0.50,-0.18,0.18,0.16,0.37,-0.32,-0.32,-0.31
473.40,-0.50,-0.19,-0.50,-0.19,0.19,0.17,0.38,-0.31,-0.31,-0.30
478.13,-0.50,-0.20,-0.50,-0.21,0.21,0.18,0.40,-0.29,-0.29,-0.30
482.91,-0.50,-0.22,-0.50,-0.22,0.22,0.19,0.41,-0.28,-0.28,-0.28
487.74,-0.50,-0.23,-0.50,-0.23,0.24,0.21,0.42,-0.26,-0.26,-0.27
492.62,-0.50,-0.25,-0.50,-0.25,0.25,0.22,0.43,-0.25,-0.25,-0.25
497.55,-0.50,-0.26,-0.50,-0.26,0.27,0.23,0.44,-0.23,-0.23,-0.24
502.52,-0.50,-0.28,-0.50,-0.28,0.28,0.24,0.45,-0.22,-0.22,-0.22
507.55,-0.50,-0.30,-0.50,-0.30,0.30,0.25,0.46,-0.20,-0.20,-0.20
