frequency,raw,error,smoothed,error_smoothed,equalization,parametric_eq,fixed_band_eq,equalized_raw,equalized_smoothed,target
20.00,14.85,7.38,14.84,7.37,-7.38,-7.54,-3.02,7.47,7.46,7.47
20.20,14.84,7.38,14.84,7.38,-7.38,-7.53,-3.10,7.46,7.46,7.46
20.40,14.83,7.37,14.83,7.38,-7.38,-7.52,-3.19,7.45,7.46,7.46
20.61,14.83,7.38,14.83,7.38,-7.37,-7.52,-3.28,7.45,7.45,7.45
20.81,14.82,7.38,14.82,7.38,-7.37,-7.51,-3.37,7.45,7.45,7.44
21.02,14.81,7.38,14.81,7.37,-7.36,-7.50,-3.47,7.45,7.45,7.43
21.23,14.79,7.36,14.79,7.36,-7.35,-7.49,-3.57,7.44,7.44,7.43
21.44,14.77,7.33,14.77,7.33,-7.33,-7.47,-3.67,7.43,7.43,7.44
21.66,14.74,7.31,14.74,7.31,-7.32,-7.46,-3.77,7.42,7.42,7.43
21.87,14.72,7.29,14.72,7.29,-7.30,-7.45,-3.88,7.42,7.42,7.43
22.09,14.70,7.28,14.70,7.28,-7.28,-7.43,-3.99,7.42,7.42,7.42
22.31,14.68,7.26,14.68,7.26,-7.26,-7.41,-4.10,7.42,7.42,7.42
22.54,14.66,7.25,14.66,7.24,-7.24,-7.40,-4.21,7.42,7.42,7.41
22.76,14.64,7.22,14.64,7.23,-7.22,-7.38,-4.33,7.42,7.42,7.42
22.99,14.62,7.20,14.62,7.21,-7.20,-7.36,-4.45,7.42,7.42,7.42
23.22,14.60,7.19,14.59,7.19,-7.18,-7.34,-4.58,7.42,7.42,7.41
23.45,14.57,7.16,14.57,7.16,-7.17,-7.32,-4.70,7.40,7.40,7.40
23.69,14.55,7.14,14.54,7.14,-7.16,-7.30,-4.83,7.39,7.38,7.40
23.92,14.53,7.12,14.53,7.13,-7.16,-7.28,-4.96,7.36,7.37,7.40
24.16,14.54,7.13,14.54,7.13,-7.16,-7.26,-5.10,7.37,7.38,7.41
24.40,14.57,7.15,14.57,7.15,-7.16,-7.24,-5.23,7.41,7.41,7.42
24.65,14.60,7.18,14.60,7.18,-7.15,-7.22,-5.37,7.45,7.46,7.42
24.89,14.63,7.21,14.61,7.19,-7.13,-7.19,-5.51,7.50,7.48,7.42
25.14,14.59,7.18,14.58,7.17,-7.11,-7.17,-5.65,7.48,7.48,7.41
25.39,14.52,7.11,14.52,7.11,-7.09,-7.15,-5.80,7.43,7.43,7.41
25.65,14.44,7.03,14.43,7.03,-7.08,-7.12,-5.94,7.36,7.36,7.41
25.91,14.36,6.95,14.38,6.97,-7.06,-7.10,-6.09,7.30,7.32,7.41
26.16,14.35,6.94,14.36,6.95,-7.03,-7.07,-6.23,7.31,7.32,7.41
26.43,14.38,6.98,14.38,6.98,-6.99,-7.05,-6.38,7.38,7.39,7.40
26.69,14.41,7.01,14.41,7.02,-6.95,-7.02,-6.52,7.46,7.46,7.39
26.96,14.44,7.05,14.40,7.02,-6.90,-7.00,-6.66,7.54,7.50,7.38
27.23,14.33,6.96,14.32,6.95,-6.86,-6.97,-6.80,7.47,7.46,7.37
27.50,14.19,6.82,14.19,6.82,-6.82,-6.95,-6.94,7.37,7.37,7.37
27.77,14.06,6.69,14.06,6.69,-6.78,-6.92,-7.07,7.28,7.28,7.37
28.05,13.95,6.58,13.99,6.62,-6.73,-6.89,-7.19,7.22,7.26,7.37
28.33,13.98,6.61,13.97,6.61,-6.67,-6.87,-7.32,7.31,7.30,7.37
28.62,14.01,6.65,14.00,6.63,-6.62,-6.84,-7.43,7.39,7.38,7.36
28.90,14.03,6.66,14.01,6.65,-6.58,-6.82,-7.54,7.44,7.43,7.36
29.19,14.00,6.63,13.99,6.63,-6.56,-6.79,-7.64,7.44,7.43,7.36
29.48,13.94,6.57,13.94,6.57,-6.55,-6.76,-7.73,7.39,7.39,7.37
29.78,13.88,6.51,13.88,6.51,-6.54,-6.74,-7.81,7.34,7.35,7.37
30.08,13.84,6.46,13.85,6.47,-6.52,-6.71,-7.88,7.32,7.33,7.38
30.38,13.84,6.47,13.84,6.47,-6.50,-6.68,-7.94,7.34,7.34,7.37
30.68,13.85,6.48,13.84,6.48,-6.48,-6.66,-7.98,7.37,7.36,7.37
30.99,13.85,6.49,13.84,6.49,-6.47,-6.63,-8.02,7.38,7.37,7.35
31.30,13.84,6.49,13.84,6.48,-6.47,-6.61,-8.04,7.37,7.36,7.35
31.61,13.82,6.47,13.82,6.47,-6.47,-6.58,-8.05,7.34,7.35,7.35
31.93,13.80,6.46,13.80,6.46,-6.47,-6.55,-8.05,7.32,7.33,7.34
32.24,13.79,6.45,13.79,6.46,-6.46,-6.53,-8.04,7.32,7.33,7.34
32.57,13.78,6.45,13.78,6.46,-6.44,-6.50,-8.01,7.34,7.34,7.32
32.89,13.76,6.45,13.75,6.44,-6.41,-6.48,-7.98,7.35,7.35,7.31
33.22,13.72,6.41,13.71,6.40,-6.36,-6.45,-7.93,7.35,7.35,7.31
33.55,13.65,6.34,13.65,6.35,-6.32,-6.43,-7.88,7.33,7.33,7.31
33.89,13.58,6.27,13.58,6.28,-6.29,-6.40,-7.82,7.29,7.30,7.30
34.23,13.52,6.23,13.51,6.21,-6.26,-6.38,-7.75,7.26,7.25,7.29
34.57,13.45,6.16,13.44,6.16,-6.23,-6.35,-7.67,7.22,7.22,7.29
34.92,13.39,6.11,13.41,6.13,-6.19,-6.33,-7.59,7.20,7.22,7.28
35.27,13.41,6.13,13.43,6.16,-6.15,-6.30,-7.50,7.26,7.28,7.28
35.62,13.46,6.20,13.46,6.20,-6.12,-6.28,-7.41,7.34,7.35,7.26
35.97,13.52,6.27,13.45,6.20,-6.10,-6.26,-7.32,7.42,7.35,7.25
36.33,13.36,6.12,13.34,6.10,-6.09,-6.23,-7.22,7.27,7.25,7.23
36.70,13.18,5.96,13.21,5.99,-6.07,-6.21,-7.12,7.11,7.14,7.22
37.06,13.06,5.85,13.14,5.93,-6.04,-6.19,-7.03,7.02,7.10,7.20
37.43,13.17,5.98,13.17,5.99,-6.00,-6.16,-6.93,7.17,7.17,7.19
37.81,13.28,6.11,13.22,6.05,-5.97,-6.14,-6.83,7.31,7.25,7.17
38.19,13.24,6.09,13.17,6.03,-5.95,-6.12,-6.73,7.29,7.22,7.14
38.57,13.04,5.92,13.05,5.93,-5.94,-6.10,-6.64,7.10,7.11,7.12
38.95,12.85,5.75,12.94,5.85,-5.94,-6.07,-6.55,6.91,7.01,7.09
39.34,12.92,5.85,12.93,5.86,-5.93,-6.05,-6.46,6.99,7.00,7.07
39.74,13.02,5.97,12.97,5.93,-5.91,-6.03,-6.37,7.11,7.06,7.05
40.14,13.03,6.01,12.98,5.96,-5.88,-6.01,-6.28,7.15,7.10,7.02
40.54,12.90,5.90,12.91,5.91,-5.85,-5.99,-6.20,7.05,7.05,6.99
40.94,12.77,5.80,12.81,5.84,-5.84,-5.97,-6.12,6.93,6.97,6.97
41.35,12.73,5.77,12.73,5.78,-5.82,-5.95,-6.05,6.90,6.91,6.95
41.76,12.71,5.78,12.70,5.76,-5.80,-5.92,-5.98,6.90,6.89,6.93
42.18,12.68,5.77,12.67,5.76,-5.77,-5.90,-5.91,6.90,6.90,6.91
42.60,12.64,5.75,12.64,5.75,-5.74,-5.88,-5.85,6.90,6.90,6.89
43.03,12.60,5.74,12.60,5.74,-5.73,-5.86,-5.79,6.87,6.87,6.86
43.46,12.56,5.72,12.56,5.72,-5.72,-5.84,-5.74,6.84,6.84,6.84
43.90,12.52,5.70,12.52,5.70,-5.72,-5.82,-5.69,6.80,6.80,6.82
44.33,12.48,5.69,12.47,5.68,-5.70,-5.80,-5.64,6.78,6.77,6.79
44.78,12.43,5.67,12.44,5.68,-5.67,-5.79,-5.60,6.75,6.77,6.76
45.23,12.41,5.67,12.42,5.69,-5.65,-5.77,-5.56,6.76,6.78,6.74
45.68,12.40,5.69,12.38,5.68,-5.62,-5.75,-5.53,6.78,6.76,6.70
46.13,12.34,5.67,12.28,5.61,-5.60,-5.73,-5.50,6.74,6.68,6.67
46.60,12.15,5.51,12.16,5.52,-5.57,-5.71,-5.47,6.58,6.59,6.64
47.06,12.00,5.39,12.11,5.50,-5.55,-5.69,-5.45,6.45,6.55,6.61
47.53,12.10,5.52,12.09,5.52,-5.54,-5.67,-5.43,6.55,6.55,6.58
48.01,12.19,5.67,12.07,5.54,-5.54,-5.66,-5.42,6.65,6.52,6.52
48.49,12.02,5.53,12.02,5.53,-5.54,-5.64,-5.41,6.48,6.48,6.49
48.97,11.86,5.41,11.98,5.53,-5.54,-5.62,-5.40,6.31,6.43,6.45
49.46,11.95,5.54,11.96,5.55,-5.54,-5.60,-5.40,6.41,6.42,6.41
49.96,12.06,5.70,11.95,5.59,-5.53,-5.58,-5.40,6.53,6.43,6.36
50.46,11.92,5.59,11.91,5.58,-5.50,-5.57,-5.40,6.42,6.41,6.33
50.96,11.75,5.45,11.81,5.51,-5.47,-5.55,-5.40,6.27,6.34,6.30
51.47,11.69,5.42,11.69,5.42,-5.45,-5.53,-5.41,6.23,6.23,6.27
51.99,11.64,5.41,11.58,5.35,-5.44,-5.52,-5.42,6.20,6.14,6.23
52.51,11.52,5.33,11.52,5.33,-5.42,-5.50,-5.43,6.10,6.10,6.19
53.03,11.42,5.26,11.52,5.37,-5.40,-5.48,-5.44,6.01,6.12,6.16
53.56,11.56,5.44,11.54,5.42,-5.39,-5.47,-5.46,6.16,6.14,6.11
54.10,11.65,5.58,11.54,5.47,-5.40,-5.45,-5.47,6.25,6.15,6.07
54.64,11.48,5.45,11.50,5.47,-5.41,-5.43,-5.48,6.07,6.09,6.03
55.18,11.35,5.36,11.38,5.39,-5.41,-5.42,-5.50,5.93,5.97,5.99
55.74,11.29,5.34,11.32,5.36,-5.41,-5.40,-5.51,5.88,5.91,5.95
56.29,11.30,5.38,11.32,5.40,-5.39,-5.38,-5.52,5.91,5.93,5.92
56.86,11.36,5.46,11.27,5.39,-5.36,-5.37,-5.53,6.00,5.91,5.89
57.42,11.22,5.38,11.20,5.35,-5.33,-5.35,-5.54,5.89,5.87,5.84
58.00,11.01,5.19,11.12,5.30,-5.30,-5.34,-5.55,5.71,5.82,5.82
58.58,11.06,5.26,11.03,5.24,-5.28,-5.32,-5.55,5.78,5.75,5.80
59.16,11.05,5.28,10.98,5.21,-5.26,-5.30,-5.56,5.79,5.72,5.77
59.76,10.92,5.18,10.99,5.26,-5.23,-5.29,-5.55,5.69,5.76,5.74
60.35,10.91,5.22,10.94,5.25,-5.21,-5.27,-5.55,5.70,5.74,5.69
60.96,10.98,5.32,10.85,5.20,-5.19,-5.26,-5.54,5.79,5.66,5.65
61.57,10.75,5.15,10.78,5.18,-5.18,-5.24,-5.53,5.57,5.59,5.60
62.18,10.60,5.05,10.70,5.15,-5.18,-5.23,-5.51,5.42,5.52,5.55
62.80,10.69,5.20,10.64,5.15,-5.19,-5.21,-5.49,5.50,5.45,5.49
63.43,10.67,5.22,10.62,5.18,-5.19,-5.20,-5.47,5.48,5.43,5.45
64.07,10.59,5.19,10.59,5.18,-5.19,-5.18,-5.44,5.40,5.40,5.40
64.71,10.50,5.13,10.56,5.20,-5.18,-5.16,-5.41,5.32,5.38,5.36
65.35,10.51,5.19,10.53,5.21,-5.17,-5.15,-5.37,5.34,5.36,5.32
66.01,10.59,5.31,10.48,5.21,-5.16,-5.13,-5.33,5.43,5.33,5.28
66.67,10.39,5.15,10.41,5.18,-5.14,-5.12,-5.29,5.25,5.27,5.24
67.33,10.26,5.08,10.30,5.11,-5.13,-5.10,-5.24,5.13,5.17,5.18
68.01,10.20,5.06,10.17,5.03,-5.11,-5.09,-5.19,5.09,5.07,5.14
68.69,10.12,5.02,10.14,5.04,-5.09,-5.07,-5.14,5.03,5.05,5.10
69.37,10.10,5.04,10.11,5.06,-5.07,-5.06,-5.09,5.02,5.04,5.06
70.07,10.13,5.12,10.08,5.08,-5.06,-5.04,-5.04,5.07,5.02,5.00
70.77,10.04,5.08,10.04,5.08,-5.05,-5.03,-4.98,4.99,4.99,4.96
71.48,9.97,5.05,9.98,5.07,-5.05,-5.01,-4.92,4.92,4.94,4.91
72.19,9.91,5.04,9.91,5.05,-5.04,-4.99,-4.87,4.86,4.87,4.87
72.91,9.87,5.05,9.85,5.03,-5.04,-4.98,-4.81,4.83,4.81,4.81
73.64,9.78,5.01,9.78,5.01,-5.02,-4.96,-4.75,4.76,4.76,4.77
74.38,9.70,4.97,9.71,4.98,-4.99,-4.95,-4.69,4.71,4.72,4.73
75.12,9.65,4.96,9.65,4.96,-4.96,-4.93,-4.64,4.69,4.69,4.69
75.87,9.60,4.94,9.60,4.95,-4.93,-4.92,-4.58,4.67,4.67,4.66
76.63,9.55,4.94,9.53,4.92,-4.91,-4.90,-4.53,4.64,4.63,4.61
77.40,9.46,4.88,9.45,4.87,-4.88,-4.88,-4.48,4.57,4.57,4.58
78.17,9.35,4.81,9.36,4.82,-4.86,-4.87,-4.43,4.49,4.50,4.53
78.95,9.30,4.79,9.31,4.80,-4.83,-4.85,-4.38,4.47,4.48,4.51
79.74,9.27,4.79,9.29,4.82,-4.80,-4.83,-4.33,4.46,4.49,4.48
80.54,9.30,4.86,9.27,4.83,-4.78,-4.82,-4.29,4.51,4.49,4.44
81.35,9.26,4.85,9.19,4.79,-4.76,-4.80,-4.25,4.49,4.43,4.41
82.16,9.08,4.70,9.11,4.74,-4.75,-4.79,-4.21,4.33,4.37,4.38
82.98,8.96,4.63,9.03,4.69,-4.73,-4.77,-4.17,4.23,4.30,4.33
83.81,9.03,4.73,8.97,4.68,-4.71,-4.75,-4.14,4.32,4.26,4.29
84.65,8.96,4.70,8.97,4.71,-4.69,-4.74,-4.11,4.27,4.28,4.26
85.50,8.92,4.70,8.93,4.72,-4.67,-4.72,-4.08,4.25,4.26,4.22
86.35,8.88,4.70,8.82,4.64,-4.65,-4.70,-4.06,4.23,4.17,4.18
87.22,8.73,4.59,8.76,4.62,-4.63,-4.68,-4.04,4.09,4.12,4.13
88.09,8.61,4.51,8.70,4.60,-4.62,-4.67,-4.02,3.99,4.08,4.09
88.97,8.75,4.70,8.63,4.58,-4.59,-4.65,-4.00,4.15,4.04,4.05
89.86,8.58,4.57,8.60,4.60,-4.57,-4.63,-3.99,4.01,4.04,4.01
90.76,8.50,4.53,8.54,4.58,-4.54,-4.61,-3.98,3.96,4.00,3.96
91.66,8.49,4.58,8.42,4.51,-4.52,-4.60,-3.97,3.96,3.90,3.91
92.58,8.33,4.46,8.36,4.49,-4.52,-4.58,-3.97,3.81,3.84,3.87
93.51,8.26,4.44,8.29,4.47,-4.51,-4.56,-3.97,3.75,3.78,3.82
94.44,8.27,4.49,8.23,4.46,-4.49,-4.54,-3.97,3.78,3.74,3.78
95.39,8.20,4.48,8.22,4.49,-4.47,-4.52,-3.98,3.72,3.74,3.72
96.34,8.16,4.49,8.17,4.51,-4.45,-4.51,-3.98,3.70,3.72,3.66
97.30,8.14,4.53,8.08,4.48,-4.44,-4.49,-3.99,3.70,3.65,3.61
98.28,7.97,4.42,7.98,4.43,-4.42,-4.47,-4.01,3.55,3.56,3.55
99.26,7.84,4.35,7.87,4.38,-4.40,-4.45,-4.02,3.44,3.47,3.48
100.25,7.76,4.33,7.76,4.33,-4.37,-4.43,-4.04,3.39,3.39,3.43
101.25,7.72,4.34,7.69,4.32,-4.34,-4.41,-4.06,3.38,3.36,3.38
102.27,7.62,4.30,7.63,4.31,-4.31,-4.39,-4.07,3.31,3.32,3.32
103.29,7.56,4.29,7.55,4.28,-4.28,-4.37,-4.10,3.28,3.27,3.26
104.32,7.47,4.25,7.47,4.26,-4.26,-4.35,-4.12,3.21,3.21,3.22
105.37,7.38,4.23,7.39,4.23,-4.23,-4.33,-4.14,3.15,3.15,3.15
106.42,7.31,4.21,7.30,4.21,-4.20,-4.31,-4.16,3.11,3.10,3.10
107.48,7.22,4.19,7.23,4.19,-4.17,-4.29,-4.19,3.05,3.05,3.03
108.56,7.15,4.16,7.13,4.15,-4.14,-4.27,-4.21,3.01,3.00,2.98
109.64,7.04,4.11,7.03,4.11,-4.10,-4.25,-4.23,2.94,2.93,2.93
110.74,6.92,4.05,6.93,4.06,-4.07,-4.23,-4.25,2.85,2.87,2.87
111.85,6.85,4.03,6.84,4.02,-4.04,-4.21,-4.28,2.81,2.80,2.82
112.97,6.77,3.99,6.77,4.00,-4.02,-4.19,-4.29,2.75,2.75,2.78
114.10,6.72,3.99,6.71,3.99,-4.00,-4.17,-4.31,2.72,2.71,2.73
115.24,6.66,4.00,6.66,3.99,-3.99,-4.15,-4.33,2.66,2.66,2.66
116.39,6.60,3.98,6.60,3.98,-3.99,-4.13,-4.34,2.61,2.61,2.62
117.55,6.56,3.99,6.56,3.99,-3.99,-4.10,-4.35,2.57,2.57,2.57
118.73,6.51,3.98,6.53,4.00,-3.98,-4.08,-4.35,2.52,2.54,2.53
119.92,6.50,4.02,6.48,3.99,-3.97,-4.06,-4.36,2.52,2.51,2.48
121.12,6.45,3.99,6.42,3.97,-3.95,-4.04,-4.36,2.50,2.47,2.46
122.33,6.33,3.91,6.38,3.96,-3.93,-4.01,-4.35,2.40,2.45,2.41
123.55,6.30,3.92,6.28,3.90,-3.90,-3.99,-4.34,2.40,2.38,2.38
124.79,6.26,3.91,6.19,3.84,-3.87,-3.97,-4.33,2.39,2.32,2.35
126.03,6.03,3.72,6.12,3.81,-3.84,-3.95,-4.31,2.19,2.28,2.31
127.29,6.06,3.79,6.05,3.78,-3.81,-3.92,-4.29,2.24,2.24,2.27
128.57,6.03,3.80,5.99,3.76,-3.78,-3.90,-4.26,2.25,2.20,2.22
129.85,5.97,3.77,5.98,3.78,-3.75,-3.87,-4.24,2.21,2.22,2.20
131.15,5.87,3.71,5.91,3.76,-3.73,-3.85,-4.20,2.14,2.18,2.16
132.46,5.91,3.79,5.84,3.73,-3.70,-3.83,-4.16,2.20,2.14,2.12
133.79,5.74,3.67,5.78,3.70,-3.68,-3.80,-4.12,2.06,2.10,2.07
135.12,5.69,3.65,5.68,3.64,-3.66,-3.78,-4.08,2.03,2.02,2.03
136.48,5.62,3.62,5.58,3.58,-3.63,-3.75,-4.03,1.98,1.95,2.00
137.84,5.47,3.50,5.56,3.60,-3.61,-3.73,-3.98,1.86,1.95,1.96
139.22,5.53,3.62,5.50,3.58,-3.58,-3.70,-3.93,1.94,1.92,1.91
140.61,5.55,3.66,5.45,3.57,-3.56,-3.68,-3.88,1.98,1.89,1.88
142.02,5.32,3.48,5.41,3.57,-3.54,-3.65,-3.82,1.78,1.87,1.84
143.44,5.33,3.53,5.33,3.53,-3.52,-3.63,-3.76,1.80,1.81,1.80
144.87,5.32,3.55,5.26,3.50,-3.51,-3.60,-3.71,1.81,1.75,1.77
146.32,5.21,3.48,5.24,3.51,-3.50,-3.57,-3.65,1.71,1.74,1.73
147.78,5.16,3.47,5.16,3.47,-3.48,-3.55,-3.59,1.68,1.68,1.69
149.26,5.12,3.47,5.07,3.42,-3.46,-3.52,-3.53,1.66,1.62,1.65
150.75,4.98,3.37,5.04,3.43,-3.43,-3.49,-3.47,1.55,1.61,1.60
152.26,4.98,3.40,5.00,3.43,-3.40,-3.47,-3.41,1.58,1.60,1.58
153.78,5.02,3.49,4.94,3.40,-3.37,-3.44,-3.36,1.65,1.57,1.53
155.32,4.87,3.36,4.87,3.37,-3.34,-3.41,-3.30,1.52,1.53,1.51
156.88,4.73,3.27,4.77,3.31,-3.31,-3.38,-3.24,1.41,1.45,1.46
158.44,4.67,3.25,4.66,3.24,-3.29,-3.36,-3.19,1.38,1.38,1.42
160.03,4.61,3.23,4.60,3.23,-3.26,-3.33,-3.14,1.35,1.34,1.38
161.63,4.56,3.22,4.55,3.22,-3.23,-3.30,-3.08,1.33,1.33,1.34
163.24,4.50,3.21,4.50,3.21,-3.19,-3.27,-3.03,1.30,1.31,1.28
164.88,4.43,3.18,4.44,3.19,-3.16,-3.24,-2.99,1.26,1.27,1.24
166.53,4.38,3.18,4.36,3.16,-3.14,-3.22,-2.94,1.24,1.22,1.20
168.19,4.27,3.11,4.27,3.11,-3.11,-3.19,-2.90,1.16,1.16,1.16
169.87,4.17,3.06,4.18,3.07,-3.08,-3.16,-2.85,1.08,1.10,1.11
171.57,4.10,3.03,4.10,3.03,-3.05,-3.13,-2.81,1.05,1.05,1.06
173.29,4.05,3.02,4.04,3.02,-3.02,-3.10,-2.77,1.03,1.02,1.03
175.02,3.98,3.00,3.98,3.00,-3.00,-3.07,-2.74,0.98,0.98,0.98
176.77,3.93,2.99,3.92,2.98,-2.99,-3.04,-2.70,0.94,0.94,0.94
178.54,3.87,2.96,3.87,2.97,-2.98,-3.01,-2.67,0.89,0.89,0.90
180.32,3.82,2.96,3.82,2.96,-2.97,-2.98,-2.64,0.84,0.85,0.86
182.13,3.78,2.96,3.78,2.96,-2.97,-2.95,-2.61,0.81,0.82,0.82
183.95,3.77,2.98,3.77,2.98,-2.96,-2.92,-2.59,0.81,0.81,0.79
185.79,3.72,2.97,3.73,2.98,-2.95,-2.89,-2.56,0.76,0.77,0.74
187.65,3.72,3.00,3.66,2.95,-2.95,-2.86,-2.54,0.77,0.71,0.71
189.52,3.56,2.88,3.61,2.92,-2.94,-2.83,-2.52,0.62,0.67,0.67
191.42,3.52,2.86,3.56,2.91,-2.93,-2.79,-2.50,0.59,0.64,0.66
193.33,3.58,2.96,3.51,2.89,-2.90,-2.76,-2.48,0.67,0.60,0.62
195.27,3.48,2.90,3.49,2.90,-2.88,-2.73,-2.47,0.60,0.61,0.58
197.22,3.39,2.85,3.43,2.89,-2.86,-2.70,-2.46,0.53,0.57,0.54
199.19,3.39,2.87,3.34,2.83,-2.84,-2.67,-2.44,0.55,0.50,0.51
201.18,3.27,2.79,3.28,2.80,-2.81,-2.64,-2.43,0.45,0.46,0.48
203.19,3.19,2.73,3.23,2.77,-2.79,-2.60,-2.42,0.40,0.44,0.45
205.23,3.19,2.76,3.16,2.74,-2.76,-2.57,-2.41,0.43,0.41,0.43
207.28,3.15,2.74,3.14,2.74,-2.73,-2.54,-2.41,0.42,0.41,0.40
209.35,3.07,2.71,3.09,2.72,-2.70,-2.51,-2.40,0.37,0.39,0.36
211.44,3.05,2.71,2.99,2.66,-2.67,-2.47,-2.39,0.38,0.32,0.33
213.56,2.89,2.59,2.93,2.62,-2.63,-2.44,-2.38,0.26,0.29,0.30
215.69,2.82,2.54,2.87,2.59,-2.59,-2.41,-2.38,0.23,0.28,0.28
217.85,2.88,2.62,2.81,2.56,-2.54,-2.38,-2.37,0.33,0.26,0.26
220.03,2.75,2.53,2.74,2.51,-2.49,-2.34,-2.37,0.26,0.24,0.21
222.23,2.62,2.42,2.64,2.45,-2.44,-2.31,-2.36,0.18,0.20,0.19
224.45,2.52,2.35,2.54,2.37,-2.39,-2.27,-2.35,0.13,0.15,0.17
226.70,2.49,2.34,2.47,2.32,-2.35,-2.24,-2.34,0.14,0.13,0.15
228.96,2.44,2.30,2.43,2.29,-2.30,-2.21,-2.33,0.13,0.12,0.14
231.25,2.37,2.25,2.38,2.26,-2.26,-2.17,-2.32,0.11,0.12,0.12
233.57,2.34,2.23,2.32,2.22,-2.22,-2.14,-2.31,0.11,0.10,0.11
235.90,2.28,2.19,2.29,2.19,-2.19,-2.10,-2.29,0.09,0.10,0.09
238.26,2.25,2.16,2.27,2.18,-2.16,-2.07,-2.28,0.09,0.11,0.08
240.64,2.25,2.15,2.23,2.14,-2.12,-2.04,-2.26,0.13,0.11,0.09
243.05,2.21,2.12,2.17,2.09,-2.08,-2.00,-2.24,0.13,0.09,0.09
245.48,2.09,2.00,2.14,2.05,-2.04,-1.97,-2.22,0.05,0.09,0.09
247.93,2.07,1.99,2.09,2.00,-2.01,-1.93,-2.19,0.06,0.08,0.08
250.41,2.11,2.01,2.04,1.94,-1.97,-1.90,-2.17,0.13,0.06,0.09
252.92,1.99,1.89,2.00,1.91,-1.94,-1.86,-2.14,0.05,0.06,0.10
255.45,1.91,1.83,1.97,1.89,-1.90,-1.83,-2.10,0.01,0.07,0.08
258.00,1.96,1.89,1.95,1.87,-1.87,-1.79,-2.07,0.09,0.08,0.07
260.58,1.99,1.92,1.93,1.86,-1.83,-1.75,-2.03,0.16,0.10,0.07
263.19,1.87,1.81,1.88,1.82,-1.79,-1.72,-1.99,0.08,0.09,0.06
265.82,1.77,1.71,1.80,1.75,-1.74,-1.68,-1.95,0.03,0.06,0.05
268.48,1.72,1.68,1.71,1.67,-1.68,-1.65,-1.91,0.03,0.03,0.04
271.16,1.67,1.64,1.66,1.63,-1.63,-1.61,-1.86,0.04,0.03,0.02
273.87,1.59,1.57,1.60,1.59,-1.57,-1.57,-1.81,0.01,0.02,0.02
276.61,1.55,1.54,1.51,1.50,-1.52,-1.54,-1.77,0.02,-0.02,0.00
279.38,1.41,1.42,1.42,1.43,-1.47,-1.50,-1.71,-0.06,-0.05,-0.01
282.17,1.34,1.34,1.39,1.40,-1.42,-1.46,-1.66,-0.08,-0.03,-0.01
284.99,1.38,1.39,1.37,1.38,-1.38,-1.43,-1.61,-0.00,-0.01,-0.01
287.84,1.42,1.42,1.36,1.38,-1.34,-1.39,-1.55,0.08,0.02,-0.01
290.72,1.33,1.35,1.32,1.34,-1.30,-1.35,-1.50,0.02,0.02,-0.02
293.63,1.22,1.24,1.24,1.26,-1.27,-1.32,-1.44,-0.05,-0.03,-0.02
296.57,1.18,1.20,1.18,1.20,-1.23,-1.28,-1.38,-0.06,-0.06,-0.02
299.53,1.14,1.15,1.16,1.18,-1.19,-1.24,-1.33,-0.06,-0.03,-0.01
302.53,1.17,1.18,1.15,1.16,-1.15,-1.20,-1.27,0.02,0.00,-0.02
305.55,1.15,1.17,1.11,1.12,-1.10,-1.16,-1.21,0.05,0.01,-0.02
308.61,1.02,1.03,1.05,1.07,-1.05,-1.13,-1.15,-0.03,-0.00,-0.01
311.69,0.97,0.98,0.98,1.00,-1.01,-1.09,-1.09,-0.04,-0.03,-0.02
314.81,0.94,0.96,0.92,0.94,-0.97,-1.05,-1.03,-0.03,-0.04,-0.02
317.96,0.90,0.92,0.89,0.91,-0.92,-1.01,-0.97,-0.02,-0.03,-0.02
321.14,0.83,0.85,0.85,0.87,-0.87,-0.97,-0.91,-0.04,-0.02,-0.02
324.35,0.82,0.84,0.81,0.83,-0.82,-0.93,-0.85,-0.00,-0.01,-0.03
327.59,0.76,0.78,0.75,0.78,-0.77,-0.89,-0.79,-0.01,-0.01,-0.02
330.87,0.70,0.72,0.69,0.72,-0.71,-0.85,-0.74,-0.02,-0.02,-0.02
334.18,0.62,0.65,0.63,0.65,-0.66,-0.82,-0.68,-0.04,-0.03,-0.03
337.52,0.57,0.59,0.58,0.60,-0.60,-0.78,-0.62,-0.03,-0.02,-0.03
340.90,0.53,0.55,0.52,0.54,-0.54,-0.74,-0.56,-0.01,-0.01,-0.02
344.30,0.49,0.50,0.46,0.48,-0.48,-0.70,-0.50,0.01,-0.02,-0.01
347.75,0.38,0.39,0.40,0.41,-0.42,-0.66,-0.44,-0.04,-0.02,-0.01
351.23,0.32,0.33,0.34,0.34,-0.36,-0.61,-0.39,-0.04,-0.02,-0.02
354.74,0.31,0.30,0.29,0.30,-0.30,-0.57,-0.33,0.00,-0.01,0.00
358.28,0.26,0.26,0.26,0.25,-0.25,-0.53,-0.27,0.01,0.00,0.00
361.87,0.23,0.22,0.22,0.21,-0.20,-0.49,-0.21,0.02,0.02,0.01
365.49,0.16,0.14,0.17,0.15,-0.15,-0.45,-0.16,0.00,0.02,0.02
369.14,0.15,0.12,0.14,0.11,-0.11,-0.41,-0.10,0.04,0.03,0.03
372.83,0.09,0.05,0.10,0.07,-0.06,-0.37,-0.05,0.03,0.03,0.03
376.56,0.07,0.04,0.06,0.03,-0.02,-0.32,0.01,0.05,0.04,0.02
380.33,0.01,-0.02,0.01,-0.02,0.01,-0.28,0.07,0.02,0.02,0.03
384.13,-0.03,-0.06,-0.04,-0.07,0.05,-0.24,0.12,0.01,0.01,0.03
387.97,-0.08,-0.12,-0.08,-0.11,0.08,-0.20,0.18,0.00,0.01,0.04
391.85,-0.10,-0.14,-0.09,-0.12,0.12,-0.15,0.23,0.02,0.03,0.04
395.77,-0.10,-0.13,-0.10,-0.13,0.16,-0.11,0.29,0.05,0.05,0.03
399.73,-0.10,-0.12,-0.13,-0.16,0.19,-0.07,0.34,0.09,0.06,0.02
403.72,-0.20,-0.23,-0.20,-0.21,0.23,-0.02,0.40,0.03,0.04,0.02
407.76,-0.28,-0.30,-0.28,-0.29,0.27,0.02,0.45,-0.01,-0.00,0.01
411.84,-0.35,-0.35,-0.35,-0.35,0.32,0.07,0.50,-0.03,-0.03,0.00
415.96,-0.39,-0.39,-0.38,-0.37,0.37,0.11,0.55,-0.02,-0.01,0.00
420.12,-0.40,-0.39,-0.41,-0.41,0.42,0.15,0.61,0.02,0.01,-0.01
424.32,-0.42,-0.42,-0.46,-0.46,0.47,0.20,0.66,0.05,0.01,-0.00
428.56,-0.52,-0.54,-0.50,-0.52,0.51,0.25,0.71,-0.01,0.01,0.02
432.85,-0.55,-0.59,-0.53,-0.57,0.55,0.29,0.76,-0.00,0.02,0.04
437.18,-0.53,-0.59,-0.54,-0.60,0.58,0.34,0.81,0.05,0.04,0.06
441.55,-0.51,-0.60,-0.52,-0.61,0.62,0.38,0.85,0.11,0.09,0.09
445.96,-0.52,-0.65,-0.52,-0.65,0.65,0.43,0.90,0.13,0.13,0.13
450.42,-0.51,-0.69,-0.52,-0.69,0.69,0.48,0.95,0.17,0.17,0.17
454.93,-0.52,-0.75,-0.50,-0.72,0.72,0.52,0.99,0.20,0.22,0.22
459.48,-0.47,-0.75,-0.47,-0.75,0.75,0.57,1.03,0.28,0.29,0.27
464.07,-0.41,-0.75,-0.45,-0.78,0.80,0.62,1.07,0.38,0.35,0.34
468.71,-0.43,-0.83,-0.43,-0.83,0.85,0.67,1.11,0.41,0.42,0.40
473.40,-0.45,-0.90,-0.43,-0.89,0.90,0.71,1.15,0.44,0.46,0.45
478.13,-0.43,-0.94,-0.44,-0.95,0.95,0.76,1.19,0.52,0.51,0.51
482.91,-0.44,-1.00,-0.44,-1.01,1.00,0.81,1.22,0.56,0.56,0.56
487.74,-0.44,-1.05,-0.45,-1.06,1.05,0.86,1.25,0.61,0.60,0.61
492.62,-0.48,-1.13,-0.47,-1.11,1.10,0.91,1.29,0.61,0.63,0.65
497.55,-0.47,-1.15,-0.46,-1.15,1.13,0.96,1.31,0.66,0.67,0.68
502.52,-0.45,-1.16,-0.46,-1.17,1.17,1.01,1.34,0.71,0.70,0.71
507.55,-0.45,-1.19,-0.47,-1.20,1.20,1.05,1.37,0.74,0.73,0.74
512.62,-0.49,-1.24,-0.48,-1.23,1.23,1.10,1.39,0.74,0.75,0.75
