frequency,raw,error,smoothed,error_smoothed,equalization,parametric_eq,fixed_band_eq,equalized_raw,equalized_smoothed,target
20.00,-4.32,-3.38,-4.33,-3.38,3.40,2.88,1.02,-0.93,-0.93,-0.95
20.20,-4.31,-3.37,-4.30,-3.36,3.36,2.89,1.05,-0.95,-0.94,-0.94
20.40,-4.28,-3.34,-4.28,-3.33,3.33,2.91,1.09,-0.96,-0.95,-0.94
20.61,-4.24,-3.30,-4.25,-3.30,3.29,2.93,1.12,-0.95,-0.95,-0.94
20.81,-4.20,-3.26,-4.21,-3.27,3.26,2.94,1.15,-0.94,-0.95,-0.94
21.02,-4.17,-3.23,-4.17,-3.23,3.22,2.95,1.19,-0.95,-0.95,-0.94
21.23,-4.13,-3.19,-4.13,-3.19,3.19,2.96,1.22,-0.94,-0.94,-0.94
21.44,-4.08,-3.14,-4.09,-3.15,3.15,2.97,1.26,-0.93,-0.94,-0.94
21.66,-4.05,-3.12,-4.05,-3.11,3.11,2.98,1.30,-0.94,-0.93,-0.94
21.87,-4.01,-3.08,-4.01,-3.07,3.08,2.99,1.34,-0.93,-0.93,-0.94
22.09,-3.96,-3.03,-3.97,-3.04,3.04,2.99,1.38,-0.92,-0.93,-0.93
22.31,-3.94,-3.01,-3.94,-3.00,3.00,2.99,1.42,-0.94,-0.93,-0.93
22.54,-3.90,-2.97,-3.90,-2.97,2.97,3.00,1.46,-0.93,-0.93,-0.93
22.76,-3.87,-2.94,-3.88,-2.94,2.94,3.00,1.50,-0.94,-0.94,-0.93
22.99,-3.84,-2.91,-3.84,-2.91,2.90,2.99,1.55,-0.94,-0.93,-0.93
23.22,-3.80,-2.87,-3.80,-2.87,2.87,2.99,1.59,-0.93,-0.93,-0.93
23.45,-3.75,-2.82,-3.77,-2.84,2.84,2.99,1.64,-0.91,-0.93,-0.93
23.69,-3.73,-2.81,-3.73,-2.80,2.80,2.98,1.69,-0.93,-0.93,-0.93
23.92,-3.71,-2.79,-3.70,-2.77,2.77,2.97,1.73,-0.94,-0.93,-0.93
24.16,-3.66,-2.74,-3.67,-2.74,2.74,2.96,1.78,-0.92,-0.93,-0.93
24.40,-3.63,-2.71,-3.63,-2.71,2.71,2.95,1.83,-0.92,-0.92,-0.92
24.65,-3.61,-2.69,-3.61,-2.68,2.69,2.94,1.88,-0.93,-0.92,-0.92
24.89,-3.57,-2.65,-3.58,-2.66,2.66,2.92,1.93,-0.91,-0.92,-0.92
25.14,-3.56,-2.64,-3.55,-2.63,2.63,2.91,1.99,-0.93,-0.92,-0.92
25.39,-3.52,-2.60,-3.53,-2.61,2.60,2.89,2.04,-0.92,-0.92,-0.92
25.65,-3.50,-2.58,-3.50,-2.58,2.58,2.88,2.09,-0.92,-0.92,-0.92
25.91,-3.48,-2.56,-3.47,-2.55,2.55,2.86,2.14,-0.93,-0.92,-0.92
26.16,-3.43,-2.51,-3.44,-2.53,2.53,2.84,2.19,-0.91,-0.92,-0.92
26.43,-3.42,-2.50,-3.41,-2.50,2.50,2.82,2.24,-0.92,-0.91,-0.92
26.69,-3.38,-2.47,-3.39,-2.47,2.47,2.79,2.29,-0.91,-0.92,-0.92
26.96,-3.36,-2.45,-3.36,-2.45,2.45,2.77,2.34,-0.92,-0.92,-0.92
27.23,-3.34,-2.43,-3.34,-2.42,2.42,2.75,2.39,-0.92,-0.92,-0.92
27.50,-3.30,-2.39,-3.31,-2.40,2.40,2.72,2.44,-0.91,-0.92,-0.91
27.77,-3.29,-2.38,-3.29,-2.37,2.37,2.70,2.48,-0.92,-0.92,-0.91
28.05,-3.26,-2.35,-3.26,-2.35,2.35,2.67,2.52,-0.91,-0.91,-0.91
28.33,-3.24,-2.33,-3.24,-2.33,2.33,2.64,2.56,-0.91,-0.91,-0.91
28.62,-3.21,-2.30,-3.22,-2.31,2.31,2.61,2.60,-0.91,-0.91,-0.91
28.90,-3.20,-2.29,-3.20,-2.28,2.29,2.59,2.64,-0.92,-0.91,-0.91
29.19,-3.18,-2.27,-3.18,-2.27,2.27,2.56,2.67,-0.92,-0.92,-0.91
29.48,-3.15,-2.24,-3.16,-2.25,2.24,2.53,2.70,-0.91,-0.92,-0.91
29.78,-3.15,-2.24,-3.14,-2.23,2.23,2.50,2.72,-0.93,-0.91,-0.91
30.08,-3.10,-2.19,-3.11,-2.20,2.21,2.47,2.74,-0.90,-0.91,-0.91
30.38,-3.10,-2.19,-3.09,-2.18,2.19,2.44,2.76,-0.92,-0.90,-0.91
30.68,-3.06,-2.15,-3.08,-2.17,2.17,2.41,2.78,-0.89,-0.91,-0.91
30.99,-3.06,-2.15,-3.06,-2.15,2.15,2.38,2.79,-0.91,-0.91,-0.91
31.30,-3.06,-2.15,-3.04,-2.13,2.13,2.34,2.79,-0.93,-0.91,-0.91
31.61,-3.01,-2.10,-3.03,-2.12,2.12,2.31,2.79,-0.90,-0.92,-0.91
31.93,-3.01,-2.10,-3.01,-2.10,2.10,2.28,2.79,-0.91,-0.91,-0.91
32.24,-3.01,-2.10,-2.99,-2.08,2.09,2.25,2.79,-0.93,-0.90,-0.91
32.57,-2.96,-2.05,-2.98,-2.07,2.07,2.22,2.78,-0.89,-0.91,-0.91
32.89,-2.96,-2.05,-2.96,-2.05,2.06,2.19,2.76,-0.91,-0.91,-0.91
33.22,-2.96,-2.05,-2.94,-2.03,2.04,2.16,2.75,-0.92,-0.90,-0.91
33.55,-2.92,-2.01,-2.94,-2.03,2.03,2.13,2.73,-0.90,-0.91,-0.91
33.89,-2.92,-2.01,-2.92,-2.01,2.01,2.10,2.70,-0.91,-0.91,-0.91
34.23,-2.92,-2.01,-2.91,-2.00,2.00,2.07,2.68,-0.92,-0.91,-0.91
34.57,-2.89,-1.98,-2.90,-1.98,1.99,2.04,2.65,-0.91,-0.91,-0.91
34.92,-2.87,-1.96,-2.88,-1.97,1.97,2.01,2.62,-0.90,-0.91,-0.91
35.27,-2.87,-1.96,-2.87,-1.96,1.96,1.98,2.58,-0.91,-0.91,-0.91
35.62,-2.87,-1.96,-2.87,-1.95,1.95,1.96,2.55,-0.92,-0.92,-0.91
35.97,-2.86,-1.95,-2.85,-1.94,1.94,1.93,2.51,-0.92,-0.91,-0.91
36.33,-2.82,-1.91,-2.84,-1.92,1.93,1.90,2.48,-0.90,-0.91,-0.91
36.70,-2.82,-1.91,-2.82,-1.91,1.92,1.87,2.44,-0.91,-0.91,-0.91
37.06,-2.82,-1.91,-2.82,-1.91,1.90,1.85,2.40,-0.92,-0.92,-0.92
37.43,-2.82,-1.91,-2.82,-1.90,1.90,1.82,2.36,-0.93,-0.93,-0.92
37.81,-2.82,-1.90,-2.81,-1.89,1.89,1.80,2.33,-0.94,-0.92,-0.92
38.19,-2.78,-1.86,-2.80,-1.88,1.88,1.77,2.29,-0.90,-0.92,-0.92
38.57,-2.78,-1.86,-2.78,-1.86,1.87,1.75,2.25,-0.91,-0.91,-0.92
38.95,-2.78,-1.86,-2.78,-1.86,1.87,1.73,2.21,-0.92,-0.91,-0.92
39.34,-2.78,-1.86,-2.78,-1.86,1.86,1.70,2.17,-0.93,-0.93,-0.92
39.74,-2.78,-1.86,-2.78,-1.86,1.85,1.68,2.14,-0.94,-0.94,-0.93
40.14,-2.78,-1.85,-2.77,-1.85,1.84,1.66,2.10,-0.95,-0.94,-0.93
40.54,-2.76,-1.83,-2.76,-1.83,1.83,1.64,2.07,-0.93,-0.93,-0.93
40.94,-2.73,-1.80,-2.74,-1.81,1.82,1.62,2.04,-0.91,-0.92,-0.93
41.35,-2.73,-1.80,-2.73,-1.80,1.81,1.60,2.00,-0.92,-0.92,-0.93
41.76,-2.73,-1.80,-2.73,-1.79,1.80,1.59,1.97,-0.93,-0.93,-0.94
42.18,-2.73,-1.79,-2.73,-1.80,1.79,1.57,1.94,-0.94,-0.94,-0.94
42.60,-2.73,-1.79,-2.73,-1.79,1.78,1.55,1.92,-0.95,-0.95,-0.94
43.03,-2.73,-1.79,-2.72,-1.78,1.77,1.54,1.89,-0.96,-0.95,-0.94
43.46,-2.71,-1.77,-2.71,-1.76,1.76,1.52,1.87,-0.95,-0.95,-0.95
43.90,-2.68,-1.73,-2.69,-1.74,1.75,1.51,1.84,-0.93,-0.94,-0.95
44.33,-2.68,-1.73,-2.68,-1.73,1.74,1.50,1.82,-0.95,-0.95,-0.95
44.78,-2.68,-1.73,-2.67,-1.72,1.72,1.49,1.80,-0.96,-0.95,-0.96
45.23,-2.67,-1.71,-2.67,-1.70,1.70,1.48,1.78,-0.97,-0.96,-0.96
45.68,-2.64,-1.68,-2.66,-1.69,1.69,1.47,1.76,-0.96,-0.97,-0.96
46.13,-2.64,-1.67,-2.64,-1.67,1.67,1.46,1.75,-0.97,-0.97,-0.97
46.60,-2.64,-1.67,-2.62,-1.65,1.65,1.45,1.73,-0.99,-0.97,-0.97
47.06,-2.59,-1.61,-2.61,-1.63,1.63,1.44,1.72,-0.96,-0.98,-0.98
47.53,-2.59,-1.61,-2.59,-1.61,1.61,1.44,1.71,-0.98,-0.98,-0.98
48.01,-2.58,-1.59,-2.57,-1.58,1.59,1.43,1.70,-1.00,-0.98,-0.99
48.49,-2.54,-1.55,-2.56,-1.57,1.57,1.43,1.69,-0.98,-0.99,-0.99
48.97,-2.54,-1.54,-2.54,-1.54,1.54,1.43,1.68,-1.00,-0.99,-1.00
49.46,-2.53,-1.53,-2.52,-1.52,1.52,1.43,1.67,-1.01,-1.00,-1.00
49.96,-2.50,-1.49,-2.51,-1.50,1.50,1.43,1.67,-1.00,-1.01,-1.01
50.46,-2.50,-1.49,-2.50,-1.49,1.48,1.43,1.66,-1.02,-1.02,-1.02
50.96,-2.50,-1.48,-2.49,-1.47,1.46,1.43,1.66,-1.04,-1.03,-1.02
51.47,-2.48,-1.45,-2.48,-1.45,1.45,1.43,1.65,-1.04,-1.03,-1.03
51.99,-2.45,-1.42,-2.46,-1.43,1.43,1.43,1.65,-1.02,-1.03,-1.04
52.51,-2.45,-1.41,-2.45,-1.41,1.41,1.44,1.65,-1.04,-1.04,-1.04
53.03,-2.45,-1.40,-2.45,-1.40,1.40,1.44,1.64,-1.05,-1.05,-1.05
53.56,-2.45,-1.39,-2.45,-1.39,1.39,1.45,1.64,-1.06,-1.06,-1.06
54.10,-2.45,-1.38,-2.45,-1.38,1.39,1.45,1.64,-1.07,-1.06,-1.07
54.64,-2.45,-1.38,-2.45,-1.38,1.38,1.46,1.63,-1.07,-1.07,-1.08
55.18,-2.45,-1.37,-2.47,-1.38,1.38,1.47,1.63,-1.07,-1.09,-1.09
55.74,-2.50,-1.41,-2.48,-1.39,1.38,1.48,1.62,-1.12,-1.10,-1.10
56.29,-2.50,-1.40,-2.50,-1.39,1.39,1.48,1.62,-1.12,-1.11,-1.10
56.86,-2.50,-1.39,-2.51,-1.40,1.39,1.49,1.61,-1.11,-1.12,-1.12
57.42,-2.51,-1.39,-2.52,-1.39,1.39,1.50,1.60,-1.12,-1.12,-1.13
58.00,-2.54,-1.41,-2.53,-1.39,1.40,1.50,1.59,-1.14,-1.13,-1.14
58.58,-2.54,-1.39,-2.55,-1.40,1.40,1.51,1.58,-1.14,-1.15,-1.15
59.16,-2.57,-1.41,-2.57,-1.41,1.41,1.52,1.57,-1.16,-1.16,-1.16
59.76,-2.59,-1.42,-2.59,-1.41,1.42,1.52,1.56,-1.18,-1.17,-1.17
60.35,-2.59,-1.41,-2.61,-1.42,1.42,1.52,1.54,-1.17,-1.18,-1.18
60.96,-2.64,-1.44,-2.63,-1.43,1.43,1.52,1.52,-1.21,-1.20,-1.20
61.57,-2.64,-1.43,-2.65,-1.44,1.44,1.52,1.50,-1.21,-1.22,-1.21
62.18,-2.68,-1.46,-2.67,-1.44,1.44,1.52,1.48,-1.24,-1.23,-1.23
62.80,-2.68,-1.44,-2.68,-1.44,1.44,1.52,1.46,-1.24,-1.24,-1.24
63.43,-2.68,-1.43,-2.70,-1.45,1.45,1.51,1.43,-1.24,-1.26,-1.26
64.07,-2.73,-1.46,-2.71,-1.44,1.45,1.50,1.40,-1.28,-1.26,-1.27
64.71,-2.73,-1.45,-2.73,-1.44,1.45,1.49,1.37,-1.28,-1.28,-1.29
65.35,-2.73,-1.43,-2.75,-1.45,1.45,1.48,1.34,-1.29,-1.31,-1.30
66.01,-2.77,-1.45,-2.76,-1.44,1.44,1.46,1.30,-1.33,-1.32,-1.32
66.67,-2.78,-1.44,-2.78,-1.44,1.43,1.44,1.26,-1.35,-1.34,-1.34
67.33,-2.78,-1.43,-2.79,-1.43,1.42,1.41,1.22,-1.36,-1.36,-1.36
68.01,-2.78,-1.41,-2.78,-1.41,1.41,1.39,1.18,-1.37,-1.37,-1.38
68.69,-2.78,-1.39,-2.78,-1.39,1.39,1.36,1.14,-1.39,-1.39,-1.39
69.37,-2.78,-1.37,-2.79,-1.37,1.37,1.32,1.09,-1.41,-1.42,-1.41
70.07,-2.78,-1.35,-2.78,-1.34,1.34,1.29,1.04,-1.44,-1.44,-1.44
70.77,-2.78,-1.33,-2.77,-1.31,1.31,1.25,1.00,-1.47,-1.46,-1.46
71.48,-2.73,-1.25,-2.75,-1.27,1.27,1.20,0.95,-1.46,-1.48,-1.48
72.19,-2.73,-1.23,-2.73,-1.23,1.23,1.16,0.89,-1.50,-1.50,-1.50
72.91,-2.70,-1.18,-2.70,-1.18,1.18,1.11,0.84,-1.52,-1.52,-1.52
73.64,-2.68,-1.14,-2.68,-1.13,1.13,1.06,0.79,-1.55,-1.55,-1.55
74.38,-2.64,-1.07,-2.64,-1.07,1.07,1.01,0.74,-1.57,-1.57,-1.57
75.12,-2.61,-1.02,-2.61,-1.02,1.02,0.95,0.68,-1.60,-1.60,-1.59
75.87,-2.57,-0.95,-2.58,-0.95,0.96,0.90,0.63,-1.62,-1.62,-1.62
76.63,-2.54,-0.90,-2.54,-0.89,0.90,0.84,0.57,-1.65,-1.64,-1.65
77.40,-2.50,-0.83,-2.50,-0.83,0.83,0.78,0.51,-1.67,-1.67,-1.67
78.17,-2.46,-0.76,-2.47,-0.77,0.77,0.72,0.45,-1.69,-1.70,-1.70
78.95,-2.43,-0.71,-2.43,-0.71,0.71,0.66,0.40,-1.73,-1.73,-1.73
79.74,-2.40,-0.65,-2.40,-0.64,0.64,0.59,0.34,-1.76,-1.76,-1.76
80.54,-2.36,-0.58,-2.36,-0.58,0.57,0.53,0.28,-1.79,-1.79,-1.78
81.35,-2.31,-0.50,-2.32,-0.51,0.50,0.47,0.22,-1.81,-1.82,-1.81
82.16,-2.28,-0.44,-2.28,-0.44,0.44,0.40,0.16,-1.85,-1.84,-1.84
82.98,-2.24,-0.37,-2.24,-0.36,0.36,0.34,0.10,-1.88,-1.87,-1.87
83.81,-2.19,-0.29,-2.20,-0.29,0.29,0.28,0.04,-1.90,-1.90,-1.90
84.65,-2.15,-0.22,-2.15,-0.22,0.22,0.21,-0.02,-1.93,-1.93,-1.94
85.50,-2.11,-0.14,-2.11,-0.15,0.15,0.15,-0.08,-1.97,-1.97,-1.97
86.35,-2.08,-0.08,-2.07,-0.07,0.07,0.09,-0.14,-2.01,-2.00,-2.00
87.22,-2.03,0.00,-2.04,-0.00,0.00,0.02,-0.20,-2.03,-2.04,-2.03
88.09,-1.99,0.07,-1.99,0.07,-0.07,-0.04,-0.26,-2.06,-2.07,-2.07
88.97,-1.96,0.14,-1.96,0.14,-0.14,-0.10,-0.32,-2.11,-2.10,-2.10
89.86,-1.91,0.22,-1.92,0.21,-0.22,-0.16,-0.38,-2.13,-2.14,-2.14
90.76,-1.89,0.28,-1.88,0.29,-0.29,-0.22,-0.44,-2.18,-2.17,-2.17
91.66,-1.84,0.36,-1.85,0.36,-0.35,-0.28,-0.51,-2.20,-2.20,-2.21
92.58,-1.81,0.43,-1.82,0.42,-0.42,-0.34,-0.57,-2.23,-2.24,-2.24
93.51,-1.80,0.47,-1.79,0.49,-0.49,-0.40,-0.63,-2.29,-2.28,-2.28
94.44,-1.75,0.56,-1.77,0.55,-0.55,-0.46,-0.69,-2.30,-2.31,-2.31
95.39,-1.75,0.60,-1.74,0.61,-0.61,-0.52,-0.76,-2.36,-2.35,-2.35
96.34,-1.71,0.67,-1.72,0.67,-0.66,-0.58,-0.82,-2.38,-2.38,-2.39
97.30,-1.70,0.72,-1.71,0.72,-0.72,-0.64,-0.88,-2.42,-2.42,-2.42
98.28,-1.70,0.76,-1.69,0.78,-0.77,-0.70,-0.94,-2.47,-2.46,-2.46
99.26,-1.66,0.84,-1.68,0.82,-0.83,-0.75,-1.01,-2.49,-2.50,-2.50
100.25,-1.66,0.87,-1.66,0.87,-0.88,-0.81,-1.07,-2.54,-2.54,-2.54
101.25,-1.66,0.91,-1.64,0.93,-0.93,-0.86,-1.13,-2.59,-2.57,-2.57
102.27,-1.61,1.00,-1.63,0.98,-0.98,-0.92,-1.19,-2.60,-2.61,-2.61
103.29,-1.61,1.04,-1.62,1.03,-1.03,-0.97,-1.26,-2.65,-2.65,-2.65
104.32,-1.61,1.08,-1.60,1.09,-1.09,-1.03,-1.32,-2.70,-2.68,-2.69
105.37,-1.59,1.13,-1.59,1.14,-1.14,-1.08,-1.38,-2.73,-2.72,-2.73
106.42,-1.56,1.20,-1.57,1.19,-1.19,-1.13,-1.44,-2.75,-2.76,-2.76
107.48,-1.56,1.24,-1.56,1.24,-1.24,-1.19,-1.49,-2.80,-2.80,-2.80
108.56,-1.56,1.28,-1.56,1.28,-1.28,-1.24,-1.55,-2.85,-2.84,-2.84
109.64,-1.56,1.32,-1.55,1.33,-1.33,-1.29,-1.61,-2.89,-2.88,-2.88
110.74,-1.53,1.38,-1.54,1.38,-1.38,-1.34,-1.66,-2.91,-2.92,-2.92
111.85,-1.52,1.43,-1.53,1.43,-1.42,-1.39,-1.71,-2.94,-2.95,-2.95
112.97,-1.52,1.47,-1.52,1.47,-1.46,-1.44,-1.76,-2.98,-2.98,-2.99
114.10,-1.52,1.50,-1.52,1.51,-1.50,-1.49,-1.81,-3.02,-3.02,-3.03
115.24,-1.52,1.54,-1.52,1.54,-1.54,-1.53,-1.85,-3.06,-3.06,-3.06
116.39,-1.52,1.58,-1.52,1.58,-1.58,-1.58,-1.90,-3.10,-3.10,-3.10
117.55,-1.52,1.61,-1.52,1.61,-1.62,-1.63,-1.94,-3.14,-3.14,-3.14
118.73,-1.52,1.65,-1.52,1.65,-1.66,-1.67,-1.97,-3.18,-3.18,-3.17
119.92,-1.52,1.69,-1.52,1.69,-1.70,-1.72,-2.00,-3.22,-3.22,-3.21
121.12,-1.51,1.73,-1.51,1.74,-1.74,-1.76,-2.03,-3.25,-3.25,-3.24
122.33,-1.49,1.79,-1.49,1.79,-1.78,-1.80,-2.06,-3.28,-3.28,-3.28
123.55,-1.47,1.84,-1.48,1.83,-1.83,-1.85,-2.08,-3.30,-3.30,-3.31
124.79,-1.47,1.88,-1.47,1.88,-1.87,-1.89,-2.10,-3.34,-3.34,-3.35
126.03,-1.47,1.91,-1.47,1.91,-1.91,-1.93,-2.12,-3.38,-3.38,-3.38
127.29,-1.47,1.94,-1.47,1.94,-1.94,-1.96,-2.13,-3.41,-3.41,-3.41
128.57,-1.47,1.97,-1.47,1.97,-1.98,-2.00,-2.14,-3.45,-3.45,-3.45
129.85,-1.47,2.01,-1.47,2.01,-2.01,-2.04,-2.14,-3.48,-3.48,-3.48
131.15,-1.47,2.04,-1.47,2.04,-2.04,-2.07,-2.15,-3.51,-3.51,-3.51
132.46,-1.47,2.07,-1.47,2.07,-2.07,-2.11,-2.15,-3.54,-3.54,-3.54
133.79,-1.47,2.10,-1.47,2.10,-2.10,-2.14,-2.14,-3.58,-3.58,-3.57
135.12,-1.47,2.13,-1.47,2.13,-2.13,-2.17,-2.14,-3.60,-3.60,-3.60
136.48,-1.47,2.16,-1.47,2.16,-2.16,-2.20,-2.13,-3.63,-3.63,-3.63
137.84,-1.47,2.19,-1.47,2.19,-2.18,-2.23,-2.12,-3.65,-3.65,-3.66
139.22,-1.47,2.22,-1.48,2.21,-2.20,-2.25,-2.10,-3.68,-3.68,-3.69
140.61,-1.48,2.23,-1.49,2.23,-2.23,-2.28,-2.09,-3.71,-3.72,-3.72
142.02,-1.51,2.23,-1.51,2.24,-2.25,-2.30,-2.07,-3.76,-3.75,-3.74
143.44,-1.52,2.25,-1.52,2.25,-2.26,-2.32,-2.05,-3.79,-3.78,-3.77
144.87,-1.52,2.27,-1.52,2.28,-2.28,-2.34,-2.03,-3.80,-3.80,-3.80
146.32,-1.52,2.30,-1.53,2.30,-2.29,-2.36,-2.02,-3.82,-3.82,-3.82
147.78,-1.52,2.32,-1.54,2.31,-2.31,-2.38,-2.00,-3.83,-3.84,-3.85
149.26,-1.56,2.31,-1.55,2.33,-2.32,-2.39,-1.97,-3.88,-3.87,-3.87
150.75,-1.56,2.33,-1.56,2.33,-2.33,-2.40,-1.95,-3.89,-3.89,-3.89
152.26,-1.56,2.36,-1.58,2.34,-2.34,-2.41,-1.93,-3.90,-3.92,-3.92
153.78,-1.60,2.34,-1.59,2.35,-2.35,-2.42,-1.91,-3.95,-3.94,-3.94
155.32,-1.61,2.35,-1.61,2.35,-2.35,-2.43,-1.89,-3.96,-3.96,-3.96
156.88,-1.61,2.37,-1.63,2.35,-2.36,-2.43,-1.88,-3.97,-3.99,-3.98
158.44,-1.66,2.34,-1.65,2.36,-2.36,-2.43,-1.86,-4.02,-4.01,-4.00
160.03,-1.66,2.36,-1.67,2.36,-2.36,-2.43,-1.84,-4.02,-4.03,-4.02
161.63,-1.68,2.36,-1.68,2.36,-2.36,-2.43,-1.82,-4.04,-4.04,-4.04
163.24,-1.70,2.36,-1.70,2.37,-2.36,-2.43,-1.81,-4.06,-4.06,-4.06
164.88,-1.70,2.38,-1.72,2.36,-2.36,-2.43,-1.79,-4.06,-4.08,-4.08
166.53,-1.75,2.35,-1.74,2.36,-2.36,-2.42,-1.78,-4.11,-4.10,-4.10
168.19,-1.75,2.36,-1.76,2.35,-2.35,-2.41,-1.77,-4.11,-4.12,-4.12
169.87,-1.79,2.34,-1.79,2.35,-2.35,-2.40,-1.76,-4.14,-4.14,-4.13
171.57,-1.80,2.35,-1.80,2.34,-2.35,-2.39,-1.75,-4.15,-4.15,-4.15
173.29,-1.82,2.34,-1.82,2.34,-2.34,-2.38,-1.74,-4.17,-4.16,-4.16
175.02,-1.84,2.34,-1.84,2.34,-2.34,-2.36,-1.73,-4.18,-4.18,-4.18
176.77,-1.84,2.35,-1.86,2.33,-2.33,-2.34,-1.73,-4.18,-4.19,-4.19
178.54,-1.89,2.32,-1.87,2.34,-2.33,-2.33,-1.73,-4.22,-4.20,-4.21
180.32,-1.89,2.33,-1.89,2.33,-2.33,-2.31,-1.72,-4.22,-4.22,-4.22
182.13,-1.89,2.34,-1.91,2.32,-2.33,-2.29,-1.72,-4.22,-4.24,-4.24
183.95,-1.94,2.31,-1.92,2.32,-2.33,-2.26,-1.72,-4.27,-4.25,-4.25
185.79,-1.94,2.32,-1.94,2.32,-2.33,-2.24,-1.73,-4.27,-4.26,-4.26
187.65,-1.94,2.33,-1.95,2.32,-2.32,-2.21,-1.73,-4.27,-4.28,-4.27
189.52,-1.96,2.32,-1.96,2.33,-2.32,-2.19,-1.73,-4.28,-4.28,-4.28
191.42,-1.98,2.31,-1.98,2.32,-2.32,-2.16,-1.74,-4.30,-4.29,-4.30
193.33,-1.98,2.32,-1.99,2.31,-2.31,-2.13,-1.75,-4.29,-4.31,-4.31
195.27,-2.02,2.29,-2.01,2.30,-2.30,-2.10,-1.75,-4.33,-4.32,-4.32
197.22,-2.03,2.29,-2.03,2.29,-2.29,-2.07,-1.76,-4.32,-4.33,-4.33
199.19,-2.06,2.27,-2.06,2.27,-2.28,-2.04,-1.77,-4.34,-4.34,-4.34
201.18,-2.08,2.26,-2.09,2.26,-2.26,-2.01,-1.78,-4.34,-4.34,-4.35
203.19,-2.12,2.23,-2.12,2.24,-2.24,-1.98,-1.79,-4.36,-4.35,-4.35
205.23,-2.15,2.21,-2.15,2.21,-2.21,-1.94,-1.80,-4.36,-4.36,-4.36
207.28,-2.18,2.19,-2.19,2.18,-2.18,-1.91,-1.82,-4.37,-4.37,-4.37
209.35,-2.24,2.14,-2.23,2.15,-2.15,-1.88,-1.83,-4.39,-4.38,-4.38
211.44,-2.27,2.11,-2.28,2.11,-2.12,-1.84,-1.84,-4.39,-4.39,-4.39
213.56,-2.32,2.07,-2.32,2.07,-2.07,-1.81,-1.85,-4.40,-4.40,-4.39
215.69,-2.37,2.03,-2.37,2.03,-2.03,-1.77,-1.86,-4.40,-4.40,-4.40
217.85,-2.43,1.97,-2.43,1.97,-1.97,-1.73,-1.87,-4.40,-4.40,-4.41
220.03,-2.51,1.90,-2.51,1.91,-1.90,-1.70,-1.87,-4.41,-4.41,-4.41
222.23,-2.58,1.84,-2.59,1.83,-1.82,-1.66,-1.88,-4.40,-4.41,-4.42
224.45,-2.69,1.73,-2.68,1.74,-1.73,-1.62,-1.88,-4.42,-4.41,-4.42
226.70,-2.78,1.65,-2.79,1.64,-1.62,-1.58,-1.89,-4.40,-4.41,-4.43
228.96,-2.91,1.52,-2.92,1.52,-1.50,-1.55,-1.88,-4.42,-4.42,-4.44
231.25,-3.05,1.39,-3.05,1.39,-1.38,-1.51,-1.88,-4.43,-4.43,-4.44
233.57,-3.19,1.25,-3.19,1.25,-1.25,-1.47,-1.88,-4.45,-4.45,-4.45
235.90,-3.33,1.12,-3.33,1.12,-1.13,-1.43,-1.87,-4.46,-4.46,-4.45
238.26,-3.46,0.99,-3.46,1.00,-1.01,-1.39,-1.86,-4.48,-4.47,-4.45
240.64,-3.56,0.90,-3.57,0.89,-0.91,-1.35,-1.84,-4.47,-4.48,-4.46
243.05,-3.66,0.80,-3.66,0.80,-0.82,-1.31,-1.82,-4.48,-4.48,-4.46
245.48,-3.73,0.73,-3.72,0.74,-0.75,-1.27,-1.80,-4.48,-4.47,-4.47
247.93,-3.77,0.70,-3.78,0.69,-0.69,-1.23,-1.78,-4.46,-4.47,-4.47
250.41,-3.80,0.67,-3.81,0.66,-0.65,-1.19,-1.75,-4.46,-4.47,-4.47
252.92,-3.85,0.62,-3.84,0.64,-0.63,-1.15,-1.71,-4.49,-4.48,-4.48
255.45,-3.85,0.63,-3.86,0.62,-0.63,-1.11,-1.67,-4.49,-4.49,-4.48
258.00,-3.85,0.63,-3.85,0.63,-0.65,-1.07,-1.63,-4.50,-4.50,-4.48
260.58,-3.82,0.66,-3.82,0.66,-0.68,-1.03,-1.59,-4.50,-4.50,-4.49
263.19,-3.78,0.71,-3.78,0.70,-0.72,-0.99,-1.54,-4.50,-4.50,-4.49
265.82,-3.73,0.76,-3.73,0.76,-0.77,-0.95,-1.48,-4.50,-4.49,-4.49
268.48,-3.67,0.82,-3.67,0.82,-0.82,-0.90,-1.43,-4.49,-4.49,-4.49
271.16,-3.61,0.88,-3.62,0.88,-0.86,-0.86,-1.37,-4.48,-4.48,-4.49
273.87,-3.57,0.92,-3.57,0.92,-0.91,-0.82,-1.30,-4.48,-4.48,-4.50
276.61,-3.54,0.96,-3.54,0.96,-0.94,-0.77,-1.24,-4.48,-4.48,-4.50
279.38,-3.52,0.98,-3.52,0.98,-0.96,-0.73,-1.17,-4.49,-4.49,-4.50
282.17,-3.52,0.98,-3.52,0.98,-0.97,-0.69,-1.10,-4.49,-4.50,-4.50
284.99,-3.53,0.97,-3.54,0.96,-0.97,-0.64,-1.02,-4.50,-4.51,-4.50
287.84,-3.57,0.93,-3.56,0.94,-0.95,-0.60,-0.94,-4.53,-4.51,-4.50
290.72,-3.59,0.91,-3.59,0.91,-0.93,-0.55,-0.86,-4.52,-4.52,-4.51
293.63,-3.62,0.89,-3.63,0.88,-0.89,-0.50,-0.78,-4.51,-4.52,-4.51
296.57,-3.68,0.83,-3.67,0.83,-0.84,-0.45,-0.70,-4.52,-4.51,-4.51
299.53,-3.73,0.78,-3.73,0.78,-0.77,-0.41,-0.62,-4.50,-4.50,-4.51
302.53,-3.81,0.70,-3.81,0.70,-0.68,-0.36,-0.53,-4.50,-4.50,-4.51
305.55,-3.90,0.61,-3.91,0.60,-0.58,-0.31,-0.44,-4.48,-4.49,-4.51
308.61,-4.03,0.48,-4.03,0.49,-0.45,-0.25,-0.35,-4.49,-4.48,-4.51
311.69,-4.16,0.35,-4.17,0.34,-0.31,-0.20,-0.26,-4.48,-4.48,-4.51
314.81,-4.32,0.19,-4.33,0.18,-0.16,-0.15,-0.17,-4.48,-4.49,-4.51
317.96,-4.50,0.01,-4.50,0.02,-0.01,-0.09,-0.08,-4.51,-4.51,-4.51
321.14,-4.66,-0.15,-4.66,-0.15,0.13,-0.04,0.02,-4.53,-4.53,-4.51
324.35,-4.81,-0.30,-4.81,-0.30,0.25,0.02,0.11,-4.56,-4.56,-4.51
327.59,-4.92,-0.41,-4.92,-0.41,0.35,0.08,0.20,-4.58,-4.57,-4.51
330.87,-5.00,-0.49,-4.99,-0.48,0.42,0.14,0.30,-4.58,-4.57,-4.51
334.18,-5.01,-0.50,-5.01,-0.50,0.46,0.20,0.40,-4.55,-4.55,-4.52
337.52,-5.01,-0.50,-5.00,-0.49,0.49,0.27,0.50,-4.52,-4.51,-4.52
340.90,-4.97,-0.46,-4.99,-0.47,0.50,0.33,0.59,-4.47,-4.49,-4.52
344.30,-4.97,-0.46,-4.99,-0.47,0.50,0.40,0.69,-4.47,-4.48,-4.52
347.75,-5.01,-0.50,-4.99,-0.48,0.51,0.47,0.79,-4.50,-4.48,-4.52
351.23,-5.02,-0.51,-5.03,-0.51,0.53,0.53,0.89,-4.49,-4.50,-4.52
354.74,-5.05,-0.54,-5.07,-0.55,0.57,0.60,1.00,-4.49,-4.50,-4.51
358.28,-5.13,-0.62,-5.12,-0.61,0.62,0.68,1.10,-4.51,-4.50,-4.51
361.87,-5.18,-0.67,-5.19,-0.68,0.68,0.75,1.20,-4.50,-4.51,-4.51
365.49,-5.28,-0.77,-5.27,-0.76,0.76,0.82,1.31,-4.52,-4.51,-4.51
369.14,-5.34,-0.83,-5.35,-0.84,0.84,0.89,1.41,-4.51,-4.52,-4.51
372.83,-5.45,-0.94,-5.44,-0.93,0.91,0.96,1.52,-4.54,-4.53,-4.51
376.56,-5.51,-1.00,-5.52,-1.00,0.99,1.03,1.62,-4.52,-4.53,-4.51
380.33,-5.59,-1.08,-5.59,-1.08,1.06,1.10,1.73,-4.53,-4.53,-4.51
384.13,-5.65,-1.14,-5.65,-1.13,1.13,1.17,1.84,-4.53,-4.52,-4.51
387.97,-5.70,-1.19,-5.70,-1.19,1.19,1.24,1.94,-4.51,-4.51,-4.51
391.85,-5.74,-1.23,-5.75,-1.24,1.25,1.30,2.05,-4.50,-4.50,-4.51
395.77,-5.80,-1.29,-5.80,-1.29,1.30,1.37,2.16,-4.50,-4.50,-4.51
399.73,-5.86,-1.35,-5.86,-1.35,1.36,1.43,2.26,-4.50,-4.50,-4.51
403.72,-5.92,-1.41,-5.92,-1.41,1.42,1.49,2.37,-4.51,-4.51,-4.51
407.76,-5.98,-1.47,-5.99,-1.48,1.48,1.55,2.48,-4.51,-4.51,-4.51
411.84,-6.05,-1.54,-6.05,-1.54,1.54,1.60,2.58,-4.51,-4.51,-4.51
415.96,-6.11,-1.61,-6.11,-1.60,1.60,1.65,2.69,-4.51,-4.51,-4.51
420.12,-6.17,-1.67,-6.18,-1.67,1.67,1.71,2.79,-4.50,-4.51,-4.51
424.32,-6.24,-1.74,-6.24,-1.74,1.74,1.76,2.89,-4.50,-4.51,-4.51
428.56,-6.32,-1.82,-6.31,-1.81,1.81,1.81,2.98,-4.52,-4.50,-4.50
432.85,-6.37,-1.87,-6.38,-1.88,1.88,1.86,3.08,-4.49,-4.50,-4.50
