frequency,raw,error,smoothed,error_smoothed,equalization,parametric_eq,fixed_band_eq,equalized_raw,equalized_smoothed,target
20.00,-4.32,-3.82,-4.33,-3.83,3.84,2.88,1.23,-0.48,-0.49,-0.50
20.20,-4.31,-3.81,-4.30,-3.80,3.80,2.88,1.27,-0.51,-0.50,-0.50
20.40,-4.28,-3.78,-4.28,-3.77,3.77,2.88,1.31,-0.51,-0.51,-0.50
20.61,-4.24,-3.74,-4.25,-3.74,3.73,2.87,1.35,-0.51,-0.51,-0.50
20.81,-4.20,-3.70,-4.21,-3.70,3.70,2.87,1.39,-0.51,-0.51,-0.50
21.02,-4.17,-3.67,-4.17,-3.66,3.66,2.86,1.43,-0.51,-0.51,-0.50
21.23,-4.13,-3.63,-4.13,-3.62,3.62,2.86,1.47,-0.51,-0.51,-0.50
21.44,-4.08,-3.58,-4.09,-3.59,3.59,2.86,1.51,-0.50,-0.51,-0.50
21.66,-4.05,-3.55,-4.05,-3.54,3.55,2.85,1.56,-0.51,-0.50,-0.51
21.87,-4.01,-3.51,-4.01,-3.50,3.51,2.85,1.61,-0.50,-0.50,-0.51
22.09,-3.96,-3.46,-3.97,-3.47,3.47,2.84,1.65,-0.49,-0.50,-0.51
22.31,-3.94,-3.44,-3.94,-3.43,3.43,2.84,1.70,-0.51,-0.50,-0.51
22.54,-3.90,-3.40,-3.90,-3.40,3.40,2.83,1.75,-0.51,-0.51,-0.51
22.76,-3.87,-3.36,-3.88,-3.37,3.36,2.83,1.81,-0.51,-0.51,-0.51
22.99,-3.84,-3.33,-3.84,-3.33,3.33,2.83,1.86,-0.52,-0.51,-0.51
23.22,-3.80,-3.29,-3.80,-3.29,3.29,2.82,1.91,-0.51,-0.51,-0.51
23.45,-3.75,-3.24,-3.77,-3.26,3.26,2.82,1.97,-0.49,-0.51,-0.51
23.69,-3.73,-3.22,-3.73,-3.22,3.22,2.81,2.02,-0.51,-0.51,-0.51
23.92,-3.71,-3.20,-3.70,-3.19,3.19,2.80,2.08,-0.52,-0.51,-0.51
24.16,-3.66,-3.15,-3.67,-3.16,3.16,2.80,2.14,-0.50,-0.51,-0.51
24.40,-3.63,-3.12,-3.63,-3.12,3.13,2.79,2.20,-0.50,-0.51,-0.51
24.65,-3.61,-3.10,-3.61,-3.09,3.10,2.79,2.26,-0.51,-0.51,-0.51
24.89,-3.57,-3.06,-3.58,-3.07,3.07,2.78,2.32,-0.50,-0.51,-0.51
25.14,-3.56,-3.05,-3.55,-3.04,3.04,2.77,2.38,-0.52,-0.51,-0.51
25.39,-3.52,-3.01,-3.53,-3.02,3.01,2.77,2.44,-0.51,-0.52,-0.51
25.65,-3.50,-2.99,-3.50,-2.99,2.98,2.76,2.50,-0.52,-0.52,-0.51
25.91,-3.48,-2.97,-3.47,-2.96,2.96,2.75,2.57,-0.53,-0.52,-0.51
26.16,-3.43,-2.92,-3.44,-2.93,2.93,2.75,2.63,-0.50,-0.52,-0.52
26.43,-3.42,-2.91,-3.41,-2.90,2.90,2.74,2.69,-0.52,-0.51,-0.52
26.69,-3.38,-2.87,-3.39,-2.87,2.87,2.73,2.75,-0.51,-0.51,-0.52
26.96,-3.36,-2.85,-3.36,-2.85,2.85,2.72,2.81,-0.52,-0.52,-0.52
27.23,-3.34,-2.82,-3.34,-2.82,2.82,2.72,2.86,-0.52,-0.52,-0.52
27.50,-3.30,-2.78,-3.31,-2.79,2.79,2.71,2.92,-0.51,-0.52,-0.52
27.77,-3.29,-2.77,-3.29,-2.77,2.77,2.70,2.97,-0.53,-0.52,-0.52
28.05,-3.26,-2.74,-3.26,-2.74,2.74,2.69,3.02,-0.52,-0.52,-0.52
28.33,-3.24,-2.72,-3.24,-2.72,2.72,2.68,3.07,-0.52,-0.52,-0.52
28.62,-3.21,-2.69,-3.22,-2.70,2.70,2.67,3.12,-0.52,-0.52,-0.52
28.90,-3.20,-2.68,-3.20,-2.67,2.67,2.66,3.16,-0.53,-0.52,-0.52
29.19,-3.18,-2.66,-3.18,-2.66,2.65,2.65,3.20,-0.53,-0.53,-0.52
29.48,-3.15,-2.63,-3.16,-2.63,2.63,2.64,3.23,-0.52,-0.53,-0.53
29.78,-3.15,-2.63,-3.14,-2.61,2.61,2.63,3.27,-0.54,-0.53,-0.53
30.08,-3.10,-2.57,-3.11,-2.59,2.59,2.62,3.29,-0.51,-0.53,-0.53
30.38,-3.10,-2.57,-3.09,-2.56,2.57,2.61,3.32,-0.53,-0.52,-0.53
30.68,-3.06,-2.53,-3.08,-2.54,2.55,2.60,3.33,-0.51,-0.53,-0.53
30.99,-3.06,-2.53,-3.06,-2.53,2.53,2.59,3.35,-0.53,-0.53,-0.53
31.30,-3.06,-2.53,-3.04,-2.51,2.51,2.58,3.35,-0.55,-0.53,-0.53
31.61,-3.01,-2.48,-3.03,-2.50,2.49,2.56,3.36,-0.52,-0.54,-0.54
31.93,-3.01,-2.48,-3.01,-2.48,2.47,2.55,3.35,-0.54,-0.54,-0.54
32.24,-3.01,-2.47,-2.99,-2.45,2.46,2.54,3.35,-0.55,-0.53,-0.54
32.57,-2.96,-2.42,-2.98,-2.44,2.44,2.53,3.33,-0.52,-0.54,-0.54
32.89,-2.96,-2.42,-2.96,-2.42,2.42,2.51,3.32,-0.54,-0.54,-0.54
33.22,-2.96,-2.42,-2.94,-2.40,2.41,2.50,3.30,-0.56,-0.54,-0.54
33.55,-2.92,-2.38,-2.94,-2.39,2.39,2.48,3.28,-0.53,-0.55,-0.54
33.89,-2.92,-2.38,-2.92,-2.38,2.37,2.47,3.25,-0.55,-0.55,-0.55
34.23,-2.92,-2.37,-2.91,-2.36,2.36,2.45,3.22,-0.56,-0.55,-0.55
34.57,-2.89,-2.34,-2.90,-2.34,2.35,2.44,3.18,-0.55,-0.55,-0.55
34.92,-2.87,-2.32,-2.88,-2.33,2.33,2.42,3.15,-0.54,-0.55,-0.55
35.27,-2.87,-2.32,-2.87,-2.32,2.32,2.41,3.11,-0.56,-0.56,-0.56
35.62,-2.87,-2.32,-2.87,-2.31,2.30,2.39,3.07,-0.57,-0.56,-0.56
35.97,-2.86,-2.30,-2.85,-2.29,2.29,2.38,3.02,-0.57,-0.56,-0.56
36.33,-2.82,-2.26,-2.84,-2.27,2.28,2.36,2.98,-0.54,-0.56,-0.56
36.70,-2.82,-2.26,-2.82,-2.26,2.27,2.35,2.93,-0.56,-0.56,-0.56
37.06,-2.82,-2.26,-2.82,-2.26,2.25,2.33,2.89,-0.57,-0.57,-0.57
37.43,-2.82,-2.25,-2.82,-2.25,2.24,2.31,2.84,-0.58,-0.58,-0.57
37.81,-2.82,-2.25,-2.81,-2.24,2.23,2.30,2.79,-0.59,-0.58,-0.57
38.19,-2.78,-2.21,-2.80,-2.22,2.22,2.28,2.75,-0.56,-0.57,-0.58
38.57,-2.78,-2.20,-2.78,-2.21,2.22,2.27,2.70,-0.57,-0.57,-0.58
38.95,-2.78,-2.20,-2.78,-2.20,2.21,2.25,2.66,-0.58,-0.57,-0.58
39.34,-2.78,-2.20,-2.78,-2.20,2.19,2.24,2.61,-0.59,-0.59,-0.58
39.74,-2.78,-2.19,-2.78,-2.20,2.18,2.23,2.57,-0.60,-0.60,-0.59
40.14,-2.78,-2.19,-2.77,-2.18,2.17,2.21,2.52,-0.61,-0.60,-0.59
40.54,-2.76,-2.17,-2.76,-2.16,2.16,2.20,2.48,-0.60,-0.60,-0.60
40.94,-2.73,-2.13,-2.74,-2.14,2.15,2.19,2.44,-0.58,-0.59,-0.60
41.35,-2.73,-2.13,-2.73,-2.13,2.14,2.17,2.40,-0.59,-0.59,-0.60
41.76,-2.73,-2.13,-2.73,-2.12,2.13,2.16,2.36,-0.60,-0.60,-0.61
42.18,-2.73,-2.12,-2.73,-2.12,2.12,2.15,2.33,-0.61,-0.62,-0.61
42.60,-2.73,-2.12,-2.73,-2.12,2.11,2.14,2.29,-0.63,-0.63,-0.62
43.03,-2.73,-2.11,-2.72,-2.10,2.09,2.13,2.26,-0.64,-0.63,-0.62
43.46,-2.71,-2.09,-2.71,-2.08,2.08,2.12,2.23,-0.63,-0.63,-0.62
43.90,-2.68,-2.05,-2.69,-2.06,2.07,2.11,2.20,-0.61,-0.62,-0.63
44.33,-2.68,-2.05,-2.68,-2.05,2.06,2.10,2.17,-0.63,-0.63,-0.63
44.78,-2.68,-2.04,-2.67,-2.04,2.04,2.09,2.15,-0.64,-0.64,-0.64
45.23,-2.67,-2.03,-2.67,-2.02,2.02,2.08,2.12,-0.65,-0.65,-0.65
45.68,-2.64,-1.99,-2.66,-2.01,2.00,2.07,2.10,-0.64,-0.66,-0.65
46.13,-2.64,-1.99,-2.64,-1.98,1.98,2.06,2.08,-0.66,-0.66,-0.66
46.60,-2.64,-1.98,-2.62,-1.96,1.96,2.05,2.06,-0.68,-0.66,-0.66
47.06,-2.59,-1.92,-2.61,-1.94,1.94,2.04,2.04,-0.65,-0.67,-0.67
47.53,-2.59,-1.92,-2.59,-1.91,1.92,2.03,2.03,-0.68,-0.67,-0.68
48.01,-2.58,-1.90,-2.57,-1.89,1.89,2.02,2.01,-0.69,-0.68,-0.68
48.49,-2.54,-1.85,-2.56,-1.87,1.87,2.01,2.00,-0.67,-0.69,-0.69
48.97,-2.54,-1.85,-2.54,-1.84,1.85,2.00,1.99,-0.70,-0.69,-0.70
49.46,-2.53,-1.83,-2.52,-1.82,1.82,1.99,1.98,-0.71,-0.70,-0.70
49.96,-2.50,-1.79,-2.51,-1.80,1.80,1.98,1.97,-0.70,-0.71,-0.71
50.46,-2.50,-1.78,-2.50,-1.79,1.78,1.97,1.96,-0.72,-0.72,-0.72
50.96,-2.50,-1.78,-2.49,-1.76,1.76,1.95,1.95,-0.74,-0.73,-0.73
51.47,-2.48,-1.75,-2.48,-1.74,1.74,1.94,1.94,-0.74,-0.74,-0.74
51.99,-2.45,-1.71,-2.46,-1.72,1.72,1.93,1.94,-0.73,-0.74,-0.74
52.51,-2.45,-1.70,-2.45,-1.70,1.70,1.91,1.93,-0.75,-0.75,-0.75
53.03,-2.45,-1.69,-2.45,-1.69,1.69,1.90,1.93,-0.76,-0.76,-0.76
53.56,-2.45,-1.68,-2.45,-1.68,1.68,1.88,1.92,-0.77,-0.77,-0.77
54.10,-2.45,-1.67,-2.45,-1.67,1.67,1.86,1.92,-0.78,-0.78,-0.78
54.64,-2.45,-1.66,-2.45,-1.66,1.67,1.85,1.91,-0.79,-0.79,-0.79
55.18,-2.45,-1.65,-2.47,-1.67,1.66,1.83,1.90,-0.79,-0.80,-0.80
55.74,-2.50,-1.69,-2.48,-1.67,1.66,1.81,1.90,-0.84,-0.82,-0.81
56.29,-2.50,-1.68,-2.50,-1.67,1.67,1.79,1.89,-0.84,-0.83,-0.83
56.86,-2.50,-1.66,-2.51,-1.67,1.67,1.77,1.88,-0.83,-0.84,-0.84
57.42,-2.51,-1.66,-2.52,-1.67,1.67,1.75,1.87,-0.84,-0.85,-0.85
58.00,-2.54,-1.68,-2.53,-1.67,1.67,1.73,1.86,-0.87,-0.86,-0.86
58.58,-2.54,-1.67,-2.55,-1.68,1.68,1.70,1.85,-0.86,-0.88,-0.88
59.16,-2.57,-1.68,-2.57,-1.68,1.68,1.68,1.84,-0.89,-0.89,-0.89
59.76,-2.59,-1.69,-2.59,-1.68,1.69,1.66,1.82,-0.91,-0.90,-0.90
60.35,-2.59,-1.68,-2.61,-1.69,1.69,1.63,1.80,-0.90,-0.92,-0.92
60.96,-2.64,-1.71,-2.63,-1.70,1.70,1.60,1.78,-0.95,-0.93,-0.93
61.57,-2.64,-1.70,-2.65,-1.71,1.70,1.58,1.76,-0.94,-0.95,-0.95
62.18,-2.68,-1.72,-2.67,-1.71,1.70,1.55,1.73,-0.98,-0.97,-0.96
62.80,-2.68,-1.70,-2.68,-1.70,1.71,1.52,1.71,-0.98,-0.98,-0.98
63.43,-2.68,-1.69,-2.70,-1.71,1.71,1.49,1.68,-0.97,-1.00,-1.00
64.07,-2.73,-1.72,-2.71,-1.70,1.71,1.46,1.65,-1.02,-1.00,-1.01
64.71,-2.73,-1.70,-2.73,-1.70,1.71,1.43,1.61,-1.03,-1.03,-1.03
65.35,-2.73,-1.68,-2.75,-1.70,1.70,1.40,1.57,-1.03,-1.05,-1.05
66.01,-2.77,-1.71,-2.76,-1.70,1.70,1.37,1.54,-1.08,-1.07,-1.07
66.67,-2.78,-1.70,-2.78,-1.69,1.69,1.33,1.50,-1.09,-1.09,-1.09
67.33,-2.78,-1.68,-2.79,-1.68,1.68,1.30,1.45,-1.11,-1.11,-1.10
68.01,-2.78,-1.66,-2.78,-1.66,1.66,1.27,1.41,-1.12,-1.12,-1.13
68.69,-2.78,-1.64,-2.78,-1.64,1.64,1.23,1.36,-1.14,-1.14,-1.15
69.37,-2.78,-1.62,-2.79,-1.62,1.62,1.19,1.31,-1.17,-1.17,-1.17
70.07,-2.78,-1.59,-2.78,-1.59,1.59,1.16,1.26,-1.19,-1.19,-1.19
70.77,-2.78,-1.57,-2.77,-1.56,1.55,1.12,1.21,-1.23,-1.22,-1.21
71.48,-2.73,-1.50,-2.75,-1.52,1.51,1.08,1.16,-1.22,-1.24,-1.23
72.19,-2.73,-1.47,-2.73,-1.47,1.47,1.04,1.10,-1.26,-1.26,-1.26
72.91,-2.70,-1.42,-2.70,-1.42,1.42,1.00,1.05,-1.28,-1.28,-1.28
73.64,-2.68,-1.38,-2.68,-1.37,1.37,0.96,0.99,-1.31,-1.31,-1.31
74.38,-2.64,-1.31,-2.64,-1.31,1.31,0.91,0.93,-1.33,-1.33,-1.33
75.12,-2.61,-1.26,-2.61,-1.25,1.25,0.87,0.87,-1.36,-1.36,-1.36
75.87,-2.57,-1.19,-2.58,-1.19,1.19,0.82,0.81,-1.38,-1.38,-1.38
76.63,-2.54,-1.13,-2.54,-1.13,1.13,0.78,0.75,-1.41,-1.41,-1.41
77.40,-2.50,-1.07,-2.50,-1.06,1.07,0.73,0.69,-1.43,-1.43,-1.44
78.17,-2.46,-1.00,-2.47,-1.00,1.00,0.69,0.63,-1.46,-1.46,-1.47
78.95,-2.43,-0.94,-2.43,-0.94,0.94,0.64,0.57,-1.49,-1.49,-1.49
79.74,-2.40,-0.88,-2.40,-0.87,0.87,0.59,0.51,-1.53,-1.52,-1.52
80.54,-2.36,-0.81,-2.36,-0.81,0.80,0.54,0.45,-1.56,-1.56,-1.55
81.35,-2.31,-0.73,-2.32,-0.74,0.74,0.49,0.39,-1.58,-1.59,-1.58
82.16,-2.28,-0.67,-2.28,-0.67,0.67,0.44,0.33,-1.62,-1.61,-1.61
82.98,-2.24,-0.60,-2.24,-0.59,0.59,0.39,0.26,-1.65,-1.64,-1.64
83.81,-2.19,-0.52,-2.20,-0.52,0.52,0.34,0.20,-1.67,-1.67,-1.68
84.65,-2.15,-0.44,-2.15,-0.45,0.45,0.29,0.14,-1.70,-1.71,-1.71
85.50,-2.11,-0.37,-2.11,-0.37,0.37,0.24,0.08,-1.74,-1.74,-1.74
86.35,-2.08,-0.31,-2.07,-0.30,0.30,0.18,0.01,-1.78,-1.77,-1.77
87.22,-2.03,-0.22,-2.04,-0.23,0.23,0.13,-0.05,-1.81,-1.81,-1.81
88.09,-1.99,-0.15,-1.99,-0.15,0.15,0.08,-0.11,-1.84,-1.84,-1.84
88.97,-1.96,-0.09,-1.96,-0.08,0.08,0.02,-0.18,-1.88,-1.88,-1.88
89.86,-1.91,-0.00,-1.92,-0.01,0.01,-0.04,-0.24,-1.90,-1.91,-1.91
90.76,-1.89,0.05,-1.88,0.07,-0.06,-0.09,-0.30,-1.96,-1.94,-1.95
91.66,-1.84,0.14,-1.85,0.13,-0.13,-0.15,-0.37,-1.97,-1.98,-1.98
92.58,-1.81,0.21,-1.82,0.20,-0.20,-0.20,-0.43,-2.01,-2.02,-2.02
93.51,-1.80,0.25,-1.79,0.27,-0.26,-0.26,-0.50,-2.07,-2.05,-2.05
94.44,-1.75,0.34,-1.77,0.33,-0.33,-0.32,-0.56,-2.08,-2.09,-2.09
95.39,-1.75,0.38,-1.74,0.39,-0.39,-0.37,-0.62,-2.14,-2.12,-2.13
96.34,-1.71,0.45,-1.72,0.44,-0.44,-0.43,-0.69,-2.15,-2.16,-2.17
97.30,-1.70,0.50,-1.71,0.50,-0.50,-0.49,-0.75,-2.20,-2.20,-2.20
98.28,-1.70,0.54,-1.69,0.55,-0.55,-0.55,-0.82,-2.25,-2.24,-2.24
99.26,-1.66,0.62,-1.68,0.60,-0.61,-0.60,-0.88,-2.27,-2.28,-2.28
100.25,-1.66,0.65,-1.66,0.65,-0.66,-0.66,-0.94,-2.32,-2.32,-2.32
101.25,-1.66,0.69,-1.64,0.71,-0.71,-0.72,-1.01,-2.37,-2.35,-2.35
102.27,-1.61,0.78,-1.63,0.76,-0.76,-0.78,-1.07,-2.38,-2.39,-2.39
103.29,-1.61,0.82,-1.62,0.81,-0.82,-0.83,-1.13,-2.43,-2.43,-2.43
104.32,-1.61,0.86,-1.60,0.87,-0.87,-0.89,-1.19,-2.48,-2.47,-2.47
105.37,-1.59,0.92,-1.59,0.92,-0.92,-0.95,-1.25,-2.51,-2.51,-2.51
106.42,-1.56,0.98,-1.57,0.97,-0.97,-1.00,-1.31,-2.53,-2.54,-2.55
107.48,-1.56,1.02,-1.56,1.02,-1.02,-1.06,-1.37,-2.58,-2.58,-2.58
108.56,-1.56,1.06,-1.56,1.06,-1.07,-1.11,-1.43,-2.63,-2.63,-2.62
109.64,-1.56,1.10,-1.55,1.11,-1.12,-1.16,-1.48,-2.68,-2.67,-2.66
110.74,-1.53,1.17,-1.54,1.16,-1.16,-1.22,-1.54,-2.69,-2.70,-2.70
111.85,-1.52,1.21,-1.53,1.21,-1.20,-1.27,-1.59,-2.73,-2.73,-2.74
112.97,-1.52,1.25,-1.52,1.25,-1.25,-1.32,-1.64,-2.77,-2.77,-2.77
114.10,-1.52,1.29,-1.52,1.29,-1.29,-1.37,-1.69,-2.81,-2.81,-2.81
115.24,-1.52,1.33,-1.52,1.33,-1.32,-1.42,-1.73,-2.85,-2.85,-2.85
116.39,-1.52,1.36,-1.52,1.36,-1.36,-1.47,-1.77,-2.89,-2.89,-2.89
117.55,-1.52,1.40,-1.52,1.40,-1.40,-1.52,-1.81,-2.93,-2.93,-2.92
118.73,-1.52,1.44,-1.52,1.44,-1.44,-1.57,-1.85,-2.97,-2.97,-2.96
119.92,-1.52,1.47,-1.52,1.48,-1.49,-1.61,-1.88,-3.01,-3.01,-3.00
121.12,-1.51,1.52,-1.51,1.52,-1.53,-1.66,-1.91,-3.04,-3.04,-3.03
122.33,-1.49,1.57,-1.49,1.57,-1.57,-1.70,-1.93,-3.06,-3.06,-3.07
123.55,-1.47,1.63,-1.48,1.62,-1.61,-1.74,-1.96,-3.09,-3.09,-3.10
124.79,-1.47,1.66,-1.47,1.66,-1.66,-1.78,-1.98,-3.13,-3.13,-3.14
126.03,-1.47,1.70,-1.47,1.70,-1.69,-1.82,-1.99,-3.17,-3.17,-3.17
127.29,-1.47,1.73,-1.47,1.73,-1.73,-1.86,-2.00,-3.20,-3.20,-3.20
128.57,-1.47,1.77,-1.47,1.77,-1.77,-1.89,-2.01,-3.24,-3.24,-3.24
129.85,-1.47,1.80,-1.47,1.80,-1.80,-1.93,-2.02,-3.27,-3.27,-3.27
131.15,-1.47,1.83,-1.47,1.83,-1.83,-1.96,-2.02,-3.31,-3.31,-3.30
132.46,-1.47,1.86,-1.47,1.86,-1.87,-1.99,-2.02,-3.34,-3.34,-3.33
133.79,-1.47,1.89,-1.47,1.89,-1.90,-2.02,-2.01,-3.37,-3.37,-3.37
135.12,-1.47,1.92,-1.47,1.92,-1.93,-2.04,-2.00,-3.40,-3.40,-3.40
136.48,-1.47,1.95,-1.47,1.96,-1.95,-2.07,-2.00,-3.43,-3.42,-3.43
137.84,-1.47,1.98,-1.47,1.99,-1.98,-2.09,-1.98,-3.45,-3.45,-3.46
139.22,-1.47,2.01,-1.48,2.01,-2.00,-2.12,-1.97,-3.47,-3.48,-3.49
140.61,-1.48,2.03,-1.49,2.03,-2.02,-2.14,-1.95,-3.51,-3.51,-3.51
142.02,-1.51,2.03,-1.51,2.04,-2.04,-2.16,-1.94,-3.56,-3.55,-3.54
143.44,-1.52,2.05,-1.52,2.05,-2.06,-2.17,-1.92,-3.59,-3.58,-3.57
144.87,-1.52,2.08,-1.52,2.08,-2.08,-2.19,-1.90,-3.60,-3.60,-3.60
146.32,-1.52,2.10,-1.53,2.10,-2.10,-2.20,-1.88,-3.62,-3.62,-3.62
147.78,-1.52,2.13,-1.54,2.11,-2.11,-2.21,-1.85,-3.63,-3.65,-3.65
149.26,-1.56,2.11,-1.55,2.13,-2.12,-2.22,-1.83,-3.69,-3.67,-3.68
150.75,-1.56,2.14,-1.56,2.14,-2.14,-2.23,-1.81,-3.70,-3.70,-3.70
152.26,-1.56,2.16,-1.58,2.14,-2.15,-2.23,-1.79,-3.71,-3.73,-3.72
153.78,-1.60,2.15,-1.59,2.16,-2.16,-2.24,-1.77,-3.76,-3.74,-3.75
155.32,-1.61,2.16,-1.61,2.16,-2.16,-2.24,-1.75,-3.77,-3.77,-3.77
156.88,-1.61,2.18,-1.63,2.16,-2.17,-2.24,-1.72,-3.78,-3.80,-3.79
158.44,-1.66,2.15,-1.65,2.17,-2.17,-2.24,-1.70,-3.83,-3.82,-3.81
160.03,-1.66,2.17,-1.67,2.17,-2.17,-2.24,-1.68,-3.84,-3.84,-3.84
161.63,-1.68,2.17,-1.68,2.17,-2.18,-2.23,-1.67,-3.86,-3.86,-3.86
163.24,-1.70,2.18,-1.70,2.18,-2.18,-2.23,-1.65,-3.88,-3.87,-3.88
164.88,-1.70,2.19,-1.72,2.18,-2.18,-2.22,-1.63,-3.88,-3.89,-3.90
166.53,-1.75,2.16,-1.74,2.18,-2.18,-2.21,-1.61,-3.93,-3.91,-3.92
168.19,-1.75,2.18,-1.76,2.17,-2.17,-2.20,-1.60,-3.93,-3.94,-3.94
169.87,-1.79,2.16,-1.79,2.17,-2.17,-2.19,-1.59,-3.96,-3.96,-3.95
171.57,-1.80,2.17,-1.80,2.17,-2.17,-2.18,-1.57,-3.97,-3.97,-3.97
173.29,-1.82,2.17,-1.82,2.17,-2.17,-2.16,-1.56,-3.99,-3.99,-3.99
175.02,-1.84,2.16,-1.84,2.17,-2.16,-2.15,-1.55,-4.01,-4.00,-4.00
176.77,-1.84,2.18,-1.86,2.16,-2.16,-2.13,-1.54,-4.00,-4.02,-4.02
178.54,-1.89,2.14,-1.87,2.16,-2.16,-2.11,-1.54,-4.05,-4.03,-4.04
180.32,-1.89,2.16,-1.89,2.16,-2.16,-2.09,-1.53,-4.05,-4.05,-4.05
182.13,-1.89,2.17,-1.91,2.15,-2.16,-2.07,-1.53,-4.05,-4.07,-4.07
183.95,-1.94,2.14,-1.92,2.16,-2.16,-2.05,-1.52,-4.10,-4.08,-4.08
185.79,-1.94,2.15,-1.94,2.16,-2.16,-2.03,-1.52,-4.10,-4.10,-4.10
187.65,-1.94,2.17,-1.95,2.15,-2.16,-2.01,-1.52,-4.10,-4.11,-4.11
189.52,-1.96,2.16,-1.96,2.16,-2.16,-1.98,-1.52,-4.12,-4.12,-4.12
191.42,-1.98,2.15,-1.98,2.16,-2.16,-1.96,-1.52,-4.14,-4.13,-4.13
193.33,-1.98,2.16,-1.99,2.15,-2.15,-1.93,-1.52,-4.13,-4.15,-4.15
195.27,-2.02,2.14,-2.01,2.15,-2.15,-1.91,-1.53,-4.17,-4.16,-4.16
197.22,-2.03,2.14,-2.03,2.14,-2.14,-1.88,-1.53,-4.17,-4.17,-4.17
199.19,-2.06,2.12,-2.06,2.12,-2.12,-1.85,-1.53,-4.18,-4.18,-4.18
201.18,-2.08,2.11,-2.09,2.11,-2.10,-1.83,-1.54,-4.19,-4.19,-4.19
203.19,-2.12,2.08,-2.12,2.09,-2.08,-1.80,-1.54,-4.21,-4.20,-4.20
205.23,-2.15,2.06,-2.15,2.06,-2.06,-1.77,-1.55,-4.21,-4.21,-4.21
207.28,-2.18,2.04,-2.19,2.03,-2.04,-1.74,-1.56,-4.22,-4.23,-4.22
209.35,-2.24,1.99,-2.23,2.00,-2.01,-1.71,-1.56,-4.25,-4.24,-4.23
211.44,-2.27,1.97,-2.28,1.97,-1.97,-1.68,-1.57,-4.24,-4.25,-4.24
213.56,-2.32,1.93,-2.32,1.93,-1.93,-1.65,-1.57,-4.25,-4.25,-4.25
215.69,-2.37,1.89,-2.37,1.89,-1.88,-1.61,-1.58,-4.26,-4.26,-4.26
217.85,-2.43,1.83,-2.43,1.83,-1.83,-1.58,-1.58,-4.26,-4.26,-4.27
220.03,-2.51,1.76,-2.51,1.77,-1.76,-1.55,-1.58,-4.28,-4.27,-4.28
222.23,-2.58,1.70,-2.59,1.69,-1.69,-1.52,-1.58,-4.27,-4.27,-4.28
224.45,-2.69,1.60,-2.68,1.61,-1.59,-1.48,-1.58,-4.29,-4.28,-4.29
226.70,-2.78,1.52,-2.79,1.51,-1.49,-1.45,-1.58,-4.27,-4.28,-4.30
228.96,-2.91,1.39,-2.92,1.39,-1.37,-1.42,-1.58,-4.28,-4.29,-4.30
231.25,-3.05,1.26,-3.05,1.26,-1.25,-1.38,-1.57,-4.30,-4.30,-4.31
233.57,-3.19,1.13,-3.19,1.12,-1.13,-1.35,-1.56,-4.32,-4.32,-4.32
235.90,-3.33,0.99,-3.33,0.99,-1.00,-1.32,-1.55,-4.34,-4.34,-4.32
238.26,-3.46,0.87,-3.46,0.87,-0.89,-1.28,-1.54,-4.35,-4.35,-4.33
240.64,-3.56,0.77,-3.57,0.77,-0.79,-1.25,-1.52,-4.35,-4.36,-4.34
243.05,-3.66,0.68,-3.66,0.68,-0.70,-1.21,-1.50,-4.36,-4.36,-4.34
245.48,-3.73,0.61,-3.72,0.62,-0.63,-1.17,-1.48,-4.36,-4.35,-4.35
247.93,-3.77,0.58,-3.78,0.57,-0.57,-1.14,-1.45,-4.34,-4.35,-4.35
250.41,-3.80,0.55,-3.81,0.54,-0.54,-1.10,-1.42,-4.34,-4.35,-4.36
252.92,-3.85,0.51,-3.84,0.52,-0.52,-1.07,-1.39,-4.37,-4.36,-4.36
255.45,-3.85,0.51,-3.86,0.51,-0.52,-1.03,-1.36,-4.37,-4.38,-4.37
258.00,-3.85,0.52,-3.85,0.52,-0.54,-0.99,-1.32,-4.39,-4.39,-4.37
260.58,-3.82,0.55,-3.82,0.55,-0.57,-0.96,-1.27,-4.39,-4.39,-4.38
263.19,-3.78,0.60,-3.78,0.60,-0.61,-0.92,-1.23,-4.39,-4.39,-4.38
265.82,-3.73,0.65,-3.73,0.66,-0.66,-0.88,-1.18,-4.39,-4.39,-4.38
268.48,-3.67,0.72,-3.67,0.72,-0.71,-0.85,-1.12,-4.38,-4.38,-4.39
271.16,-3.61,0.78,-3.62,0.77,-0.76,-0.81,-1.07,-4.37,-4.38,-4.39
273.87,-3.57,0.82,-3.57,0.82,-0.81,-0.77,-1.01,-4.38,-4.38,-4.40
276.61,-3.54,0.86,-3.54,0.86,-0.84,-0.73,-0.95,-4.38,-4.38,-4.40
279.38,-3.52,0.88,-3.52,0.88,-0.87,-0.69,-0.88,-4.39,-4.39,-4.40
282.17,-3.52,0.88,-3.52,0.88,-0.88,-0.65,-0.82,-4.40,-4.40,-4.41
284.99,-3.53,0.88,-3.54,0.87,-0.87,-0.61,-0.75,-4.41,-4.41,-4.41
287.84,-3.57,0.84,-3.56,0.85,-0.86,-0.57,-0.68,-4.43,-4.42,-4.41
290.72,-3.59,0.82,-3.59,0.82,-0.84,-0.53,-0.60,-4.43,-4.43,-4.41
293.63,-3.62,0.80,-3.63,0.79,-0.80,-0.49,-0.53,-4.42,-4.43,-4.42
296.57,-3.68,0.74,-3.67,0.75,-0.75,-0.45,-0.45,-4.43,-4.42,-4.42
299.53,-3.73,0.69,-3.73,0.69,-0.68,-0.41,-0.37,-4.41,-4.42,-4.42
302.53,-3.81,0.61,-3.81,0.61,-0.60,-0.37,-0.29,-4.41,-4.41,-4.43
305.55,-3.90,0.53,-3.91,0.52,-0.50,-0.33,-0.21,-4.40,-4.40,-4.43
308.61,-4.03,0.40,-4.03,0.40,-0.37,-0.28,-0.13,-4.40,-4.40,-4.43
311.69,-4.16,0.27,-4.17,0.26,-0.23,-0.24,-0.04,-4.40,-4.40,-4.43
314.81,-4.32,0.11,-4.33,0.11,-0.08,-0.20,0.04,-4.41,-4.41,-4.43
317.96,-4.50,-0.07,-4.50,-0.06,0.07,-0.15,0.13,-4.44,-4.43,-4.44
321.14,-4.66,-0.22,-4.66,-0.22,0.20,-0.11,0.21,-4.46,-4.46,-4.44
324.35,-4.81,-0.37,-4.81,-0.37,0.32,-0.06,0.30,-4.49,-4.49,-4.44
327.59,-4.92,-0.48,-4.92,-0.48,0.42,-0.01,0.39,-4.50,-4.50,-4.44
330.87,-5.00,-0.56,-4.99,-0.55,0.49,0.04,0.48,-4.51,-4.50,-4.44
334.18,-5.01,-0.57,-5.01,-0.57,0.53,0.09,0.57,-4.48,-4.48,-4.45
337.52,-5.01,-0.56,-5.00,-0.55,0.56,0.14,0.66,-4.46,-4.45,-4.45
340.90,-4.97,-0.52,-4.99,-0.54,0.56,0.19,0.76,-4.41,-4.42,-4.45
344.30,-4.97,-0.52,-4.99,-0.53,0.57,0.24,0.85,-4.41,-4.42,-4.45
347.75,-5.01,-0.56,-4.99,-0.54,0.57,0.29,0.94,-4.44,-4.42,-4.45
351.23,-5.02,-0.57,-5.03,-0.57,0.59,0.35,1.04,-4.43,-4.43,-4.45
354.74,-5.05,-0.60,-5.07,-0.61,0.62,0.40,1.14,-4.43,-4.44,-4.46
358.28,-5.13,-0.68,-5.12,-0.66,0.68,0.46,1.23,-4.46,-4.44,-4.46
361.87,-5.18,-0.72,-5.19,-0.73,0.74,0.52,1.33,-4.44,-4.45,-4.46
365.49,-5.28,-0.82,-5.27,-0.81,0.81,0.58,1.43,-4.47,-4.46,-4.46
369.14,-5.34,-0.88,-5.35,-0.89,0.89,0.64,1.53,-4.45,-4.46,-4.46
372.83,-5.45,-0.99,-5.44,-0.98,0.97,0.70,1.63,-4.49,-4.47,-4.46
376.56,-5.51,-1.05,-5.52,-1.05,1.04,0.76,1.73,-4.47,-4.48,-4.46
380.33,-5.59,-1.13,-5.59,-1.13,1.11,0.83,1.83,-4.48,-4.48,-4.46
384.13,-5.65,-1.19,-5.65,-1.18,1.17,0.90,1.94,-4.48,-4.47,-4.47
387.97,-5.70,-1.24,-5.70,-1.23,1.23,0.97,2.04,-4.47,-4.47,-4.47
391.85,-5.74,-1.28,-5.75,-1.28,1.29,1.04,2.14,-4.45,-4.46,-4.47
395.77,-5.80,-1.33,-5.80,-1.33,1.34,1.11,2.25,-4.46,-4.46,-4.47
399.73,-5.86,-1.39,-5.86,-1.39,1.40,1.19,2.35,-4.46,-4.46,-4.47
403.72,-5.92,-1.45,-5.92,-1.45,1.45,1.26,2.45,-4.47,-4.47,-4.47
407.76,-5.98,-1.51,-5.99,-1.51,1.51,1.34,2.55,-4.47,-4.47,-4.47
411.84,-6.05,-1.58,-6.05,-1.58,1.57,1.42,2.65,-4.48,-4.47,-4.47
415.96,-6.11,-1.64,-6.11,-1.64,1.64,1.51,2.75,-4.47,-4.47,-4.47
420.12,-6.17,-1.70,-6.18,-1.71,1.70,1.59,2.85,-4.47,-4.48,-4.47
424.32,-6.24,-1.77,-6.24,-1.77,1.77,1.68,2.95,-4.47,-4.47,-4.47
428.56,-6.32,-1.85,-6.31,-1.84,1.84,1.77,3.04,-4.49,-4.47,-4.47
432.85,-6.37,-1.90,-6.38,-1.91,1.91,1.86,3.13,-4.47,-4.47,-4.48
