frequency,raw,error,smoothed,error_smoothed,equalization,parametric_eq,fixed_band_eq,equalized_raw,equalized_smoothed,target
20.00,3.88,-1.68,3.89,-1.68,1.68,1.59,0.56,5.57,5.57,5.56
20.20,3.91,-1.65,3.91,-1.65,1.65,1.57,0.58,5.57,5.57,5.56
20.40,3.94,-1.63,3.94,-1.63,1.63,1.55,0.60,5.57,5.57,5.57
20.61,3.97,-1.61,3.97,-1.61,1.60,1.54,0.61,5.58,5.58,5.58
20.81,4.00,-1.58,4.01,-1.58,1.58,1.52,0.63,5.58,5.58,5.58
21.02,4.03,-1.56,4.04,-1.55,1.55,1.50,0.65,5.59,5.59,5.59
21.23,4.07,-1.52,4.07,-1.52,1.53,1.49,0.67,5.60,5.60,5.59
21.44,4.11,-1.50,4.10,-1.50,1.50,1.47,0.69,5.61,5.61,5.60
21.66,4.13,-1.48,4.14,-1.47,1.48,1.46,0.71,5.61,5.61,5.61
21.87,4.17,-1.45,4.16,-1.45,1.45,1.44,0.74,5.61,5.61,5.61
22.09,4.19,-1.43,4.19,-1.43,1.43,1.42,0.76,5.62,5.62,5.62
22.31,4.23,-1.41,4.22,-1.40,1.40,1.41,0.78,5.63,5.63,5.63
22.54,4.25,-1.38,4.25,-1.38,1.38,1.40,0.81,5.63,5.63,5.63
22.76,4.28,-1.36,4.29,-1.36,1.36,1.38,0.83,5.64,5.64,5.64
22.99,4.31,-1.34,4.31,-1.34,1.34,1.37,0.85,5.65,5.65,5.65
23.22,4.34,-1.32,4.34,-1.32,1.32,1.35,0.88,5.66,5.66,5.66
23.45,4.36,-1.31,4.37,-1.30,1.30,1.34,0.91,5.66,5.67,5.67
23.69,4.39,-1.29,4.40,-1.28,1.28,1.33,0.93,5.68,5.68,5.68
23.92,4.43,-1.26,4.42,-1.26,1.27,1.32,0.96,5.69,5.69,5.69
24.16,4.45,-1.24,4.45,-1.25,1.25,1.30,0.99,5.70,5.70,5.70
24.40,4.48,-1.23,4.48,-1.23,1.23,1.29,1.02,5.71,5.71,5.71
24.65,4.50,-1.22,4.50,-1.22,1.22,1.28,1.04,5.72,5.72,5.73
24.89,4.53,-1.20,4.53,-1.21,1.20,1.27,1.07,5.74,5.74,5.74
25.14,4.56,-1.19,4.56,-1.19,1.19,1.26,1.10,5.75,5.75,5.75
25.39,4.59,-1.17,4.58,-1.17,1.18,1.25,1.13,5.76,5.76,5.76
25.65,4.60,-1.16,4.60,-1.16,1.17,1.25,1.16,5.77,5.77,5.77
25.91,4.62,-1.16,4.62,-1.16,1.15,1.24,1.19,5.78,5.78,5.78
26.16,4.64,-1.15,4.65,-1.15,1.14,1.23,1.22,5.79,5.79,5.79
26.43,4.66,-1.14,4.67,-1.14,1.13,1.23,1.25,5.80,5.80,5.80
26.69,4.69,-1.12,4.69,-1.12,1.13,1.22,1.28,5.82,5.82,5.81
26.96,4.71,-1.12,4.71,-1.11,1.12,1.22,1.31,5.83,5.83,5.83
27.23,4.73,-1.11,4.74,-1.11,1.11,1.21,1.34,5.85,5.85,5.84
27.50,4.75,-1.11,4.75,-1.11,1.11,1.21,1.36,5.86,5.86,5.86
27.77,4.76,-1.11,4.77,-1.10,1.10,1.20,1.39,5.87,5.87,5.87
28.05,4.78,-1.11,4.79,-1.10,1.10,1.20,1.42,5.88,5.89,5.89
28.33,4.80,-1.09,4.80,-1.10,1.10,1.20,1.44,5.90,5.90,5.90
28.62,4.82,-1.09,4.82,-1.09,1.10,1.20,1.47,5.92,5.92,5.92
28.90,4.83,-1.09,4.84,-1.09,1.09,1.20,1.49,5.93,5.93,5.93
29.19,4.85,-1.09,4.85,-1.09,1.09,1.20,1.51,5.95,5.94,5.95
29.48,4.86,-1.09,4.87,-1.09,1.09,1.20,1.53,5.95,5.96,5.96
29.78,4.88,-1.09,4.88,-1.09,1.09,1.20,1.55,5.97,5.97,5.97
30.08,4.89,-1.09,4.90,-1.09,1.09,1.20,1.57,5.98,5.98,5.98
30.38,4.91,-1.09,4.91,-1.09,1.09,1.21,1.59,6.00,6.00,6.00
30.68,4.92,-1.09,4.92,-1.09,1.09,1.21,1.60,6.02,6.02,6.01
30.99,4.93,-1.10,4.93,-1.10,1.10,1.22,1.61,6.03,6.03,6.03
31.30,4.93,-1.10,4.94,-1.10,1.10,1.22,1.62,6.04,6.04,6.04
31.61,4.94,-1.11,4.94,-1.11,1.11,1.23,1.63,6.06,6.06,6.06
31.93,4.94,-1.12,4.94,-1.12,1.12,1.23,1.64,6.07,6.07,6.07
32.24,4.94,-1.14,4.95,-1.14,1.14,1.24,1.64,6.08,6.08,6.09
32.57,4.94,-1.15,4.94,-1.15,1.15,1.25,1.65,6.09,6.09,6.09
32.89,4.94,-1.17,4.94,-1.17,1.16,1.26,1.65,6.11,6.11,6.11
33.22,4.94,-1.18,4.94,-1.18,1.18,1.27,1.65,6.12,6.12,6.12
33.55,4.94,-1.19,4.95,-1.19,1.19,1.28,1.65,6.14,6.14,6.14
33.89,4.94,-1.20,4.94,-1.21,1.21,1.29,1.64,6.15,6.15,6.15
34.23,4.94,-1.22,4.94,-1.22,1.22,1.30,1.64,6.17,6.16,6.17
34.57,4.93,-1.24,4.94,-1.24,1.24,1.31,1.64,6.17,6.17,6.17
34.92,4.93,-1.25,4.93,-1.25,1.25,1.33,1.63,6.19,6.18,6.18
35.27,4.92,-1.28,4.93,-1.27,1.27,1.34,1.63,6.19,6.19,6.20
35.62,4.92,-1.28,4.92,-1.29,1.28,1.36,1.62,6.21,6.21,6.21
35.97,4.91,-1.30,4.91,-1.30,1.30,1.37,1.61,6.22,6.21,6.22
36.33,4.90,-1.32,4.91,-1.32,1.32,1.39,1.60,6.22,6.23,6.22
36.70,4.89,-1.34,4.89,-1.34,1.34,1.41,1.60,6.24,6.24,6.23
37.06,4.88,-1.36,4.88,-1.36,1.37,1.42,1.59,6.25,6.24,6.24
37.43,4.85,-1.39,4.86,-1.39,1.39,1.44,1.58,6.25,6.25,6.25
37.81,4.83,-1.42,4.84,-1.42,1.42,1.46,1.57,6.26,6.26,6.25
38.19,4.81,-1.45,4.81,-1.45,1.45,1.48,1.57,6.26,6.26,6.26
38.57,4.78,-1.48,4.78,-1.48,1.48,1.50,1.56,6.26,6.26,6.27
38.95,4.75,-1.52,4.76,-1.52,1.51,1.52,1.56,6.27,6.27,6.28
39.34,4.73,-1.55,4.74,-1.55,1.54,1.55,1.55,6.28,6.28,6.28
39.74,4.71,-1.58,4.71,-1.57,1.57,1.57,1.55,6.29,6.29,6.29
40.14,4.69,-1.59,4.69,-1.60,1.60,1.59,1.54,6.30,6.29,6.29
40.54,4.66,-1.63,4.67,-1.63,1.63,1.61,1.54,6.30,6.30,6.29
40.94,4.63,-1.67,4.64,-1.66,1.66,1.64,1.54,6.30,6.30,6.30
41.35,4.61,-1.69,4.61,-1.69,1.69,1.66,1.54,6.31,6.30,6.31
41.76,4.58,-1.73,4.59,-1.73,1.72,1.69,1.54,6.31,6.31,6.31
42.18,4.56,-1.75,4.56,-1.76,1.75,1.72,1.54,6.32,6.32,6.32
42.60,4.53,-1.79,4.54,-1.79,1.79,1.74,1.55,6.32,6.32,6.32
43.03,4.51,-1.82,4.52,-1.81,1.82,1.77,1.55,6.33,6.33,6.33
43.46,4.49,-1.84,4.49,-1.84,1.85,1.79,1.56,6.34,6.34,6.34
43.90,4.47,-1.87,4.47,-1.87,1.88,1.82,1.56,6.35,6.35,6.34
44.33,4.44,-1.91,4.45,-1.90,1.91,1.85,1.57,6.35,6.35,6.36
44.78,4.42,-1.94,4.42,-1.94,1.94,1.88,1.58,6.36,6.36,6.36
45.23,4.40,-1.96,4.40,-1.97,1.96,1.90,1.59,6.37,6.37,6.37
45.68,4.38,-2.00,4.39,-1.99,1.99,1.93,1.60,6.38,6.38,6.38
46.13,4.37,-2.01,4.37,-2.02,2.02,1.96,1.62,6.39,6.39,6.39
46.60,4.35,-2.05,4.36,-2.04,2.04,1.99,1.63,6.40,6.40,6.40
47.06,4.34,-2.06,4.35,-2.06,2.06,2.01,1.65,6.41,6.41,6.40
47.53,4.33,-2.08,4.33,-2.08,2.08,2.04,1.66,6.42,6.42,6.42
48.01,4.32,-2.10,4.32,-2.10,2.10,2.06,1.68,6.43,6.42,6.42
48.49,4.31,-2.12,4.32,-2.12,2.12,2.09,1.70,6.43,6.43,6.44
48.97,4.30,-2.13,4.31,-2.13,2.13,2.11,1.72,6.44,6.44,6.44
49.46,4.30,-2.15,4.30,-2.15,2.15,2.13,1.74,6.45,6.45,6.45
49.96,4.29,-2.16,4.30,-2.16,2.16,2.16,1.76,6.45,6.46,6.45
50.46,4.29,-2.16,4.29,-2.17,2.17,2.18,1.78,6.47,6.46,6.46
50.96,4.28,-2.18,4.29,-2.18,2.18,2.20,1.80,6.47,6.47,6.47
51.47,4.28,-2.19,4.28,-2.19,2.19,2.21,1.82,6.47,6.47,6.47
51.99,4.27,-2.20,4.28,-2.20,2.19,2.23,1.84,6.47,6.47,6.47
52.51,4.27,-2.20,4.27,-2.20,2.20,2.24,1.86,6.47,6.47,6.47
53.03,4.27,-2.20,4.28,-2.20,2.20,2.26,1.88,6.47,6.47,6.47
53.56,4.28,-2.20,4.29,-2.20,2.19,2.27,1.90,6.48,6.48,6.48
54.10,4.29,-2.19,4.29,-2.19,2.19,2.27,1.92,6.48,6.48,6.48
54.64,4.30,-2.18,4.30,-2.18,2.18,2.28,1.94,6.49,6.49,6.48
55.18,4.30,-2.17,4.31,-2.17,2.18,2.28,1.96,6.48,6.48,6.47
55.74,4.30,-2.17,4.31,-2.17,2.17,2.28,1.97,6.48,6.48,6.47
56.29,4.30,-2.17,4.30,-2.16,2.16,2.28,1.98,6.47,6.47,6.47
56.86,4.30,-2.16,4.30,-2.16,2.16,2.27,2.00,6.46,6.46,6.46
57.42,4.30,-2.15,4.30,-2.15,2.15,2.27,2.01,6.45,6.45,6.46
58.00,4.30,-2.14,4.30,-2.14,2.14,2.26,2.01,6.45,6.45,6.45
58.58,4.30,-2.14,4.30,-2.14,2.13,2.24,2.02,6.44,6.44,6.44
59.16,4.30,-2.13,4.31,-2.12,2.12,2.22,2.02,6.43,6.43,6.43
59.76,4.30,-2.11,4.31,-2.11,2.12,2.20,2.01,6.42,6.42,6.42
60.35,4.30,-2.10,4.30,-2.10,2.11,2.18,2.01,6.41,6.41,6.40
60.96,4.29,-2.09,4.30,-2.09,2.10,2.15,2.00,6.39,6.39,6.39
61.57,4.28,-2.09,4.29,-2.08,2.09,2.12,1.99,6.37,6.38,6.37
62.18,4.28,-2.07,4.28,-2.08,2.08,2.09,1.97,6.36,6.36,6.36
62.80,4.27,-2.07,4.27,-2.07,2.07,2.05,1.95,6.34,6.34,6.34
63.43,4.26,-2.06,4.26,-2.06,2.05,2.01,1.93,6.32,6.32,6.33
64.07,4.25,-2.04,4.26,-2.04,2.04,1.97,1.90,6.29,6.30,6.30
64.71,4.26,-2.02,4.26,-2.02,2.02,1.92,1.87,6.28,6.28,6.28
65.35,4.27,-1.99,4.27,-1.99,1.99,1.87,1.83,6.27,6.27,6.26
66.01,4.28,-1.96,4.28,-1.96,1.96,1.82,1.80,6.25,6.25,6.24
66.67,4.29,-1.93,4.29,-1.93,1.93,1.76,1.75,6.22,6.22,6.23
67.33,4.30,-1.90,4.31,-1.89,1.89,1.71,1.71,6.20,6.20,6.21
68.01,4.33,-1.84,4.33,-1.85,1.84,1.65,1.66,6.18,6.18,6.18
68.69,4.36,-1.79,4.36,-1.79,1.79,1.58,1.61,6.16,6.15,6.15
69.37,4.39,-1.74,4.40,-1.74,1.74,1.52,1.56,6.13,6.13,6.13
70.07,4.43,-1.68,4.44,-1.68,1.67,1.45,1.50,6.11,6.11,6.11
70.77,4.48,-1.60,4.49,-1.60,1.60,1.38,1.44,6.09,6.09,6.09
71.48,4.54,-1.52,4.54,-1.52,1.53,1.30,1.38,6.07,6.07,6.07
72.19,4.60,-1.44,4.60,-1.44,1.44,1.23,1.32,6.05,6.05,6.04
72.91,4.67,-1.35,4.67,-1.35,1.35,1.15,1.26,6.02,6.02,6.03
73.64,4.74,-1.26,4.75,-1.26,1.25,1.07,1.19,6.00,6.00,6.00
74.38,4.83,-1.15,4.84,-1.15,1.15,0.99,1.13,5.98,5.98,5.99
75.12,4.94,-1.03,4.93,-1.04,1.03,0.91,1.06,5.97,5.96,5.96
75.87,5.03,-0.92,5.03,-0.92,0.92,0.82,0.99,5.94,5.95,5.95
76.63,5.14,-0.79,5.13,-0.79,0.79,0.73,0.92,5.93,5.93,5.93
77.40,5.24,-0.67,5.24,-0.67,0.67,0.64,0.85,5.91,5.91,5.91
78.17,5.36,-0.54,5.36,-0.54,0.54,0.55,0.78,5.89,5.89,5.89
78.95,5.47,-0.41,5.47,-0.40,0.41,0.46,0.70,5.87,5.88,5.87
79.74,5.59,-0.27,5.58,-0.27,0.28,0.36,0.63,5.86,5.86,5.85
80.54,5.69,-0.14,5.69,-0.14,0.15,0.27,0.56,5.84,5.84,5.83
81.35,5.79,-0.02,5.79,-0.02,0.02,0.17,0.49,5.82,5.82,5.81
82.16,5.88,0.09,5.89,0.10,-0.10,0.07,0.41,5.78,5.79,5.79
82.98,5.99,0.22,5.99,0.22,-0.23,-0.03,0.34,5.76,5.76,5.77
83.81,6.09,0.35,6.09,0.35,-0.35,-0.13,0.27,5.74,5.74,5.75
84.65,6.19,0.47,6.20,0.47,-0.47,-0.23,0.19,5.72,5.72,5.72
85.50,6.29,0.59,6.29,0.59,-0.59,-0.34,0.12,5.70,5.70,5.70
86.35,6.38,0.71,6.38,0.71,-0.70,-0.44,0.04,5.68,5.68,5.68
87.22,6.46,0.81,6.47,0.82,-0.81,-0.54,-0.03,5.65,5.66,5.65
88.09,6.55,0.93,6.55,0.92,-0.91,-0.65,-0.10,5.64,5.64,5.63
88.97,6.61,1.00,6.62,1.01,-1.00,-0.76,-0.18,5.61,5.62,5.61
89.86,6.67,1.09,6.68,1.09,-1.08,-0.86,-0.25,5.59,5.60,5.59
90.76,6.72,1.16,6.72,1.16,-1.15,-0.97,-0.33,5.57,5.57,5.56
91.66,6.76,1.22,6.76,1.22,-1.22,-1.07,-0.40,5.55,5.54,5.54
92.58,6.79,1.28,6.80,1.28,-1.28,-1.17,-0.48,5.51,5.51,5.52
93.51,6.82,1.33,6.83,1.33,-1.34,-1.28,-0.55,5.48,5.49,5.49
94.44,6.85,1.38,6.86,1.39,-1.40,-1.38,-0.63,5.46,5.46,5.47
95.39,6.89,1.45,6.89,1.44,-1.46,-1.47,-0.70,5.44,5.43,5.44
96.34,6.92,1.50,6.93,1.50,-1.51,-1.57,-0.78,5.41,5.41,5.43
97.30,6.96,1.57,6.97,1.57,-1.57,-1.66,-0.85,5.40,5.40,5.40
98.28,7.00,1.64,7.00,1.63,-1.62,-1.75,-0.93,5.38,5.38,5.37
99.26,7.03,1.69,7.03,1.69,-1.67,-1.83,-1.00,5.36,5.36,5.34
100.25,7.04,1.72,7.04,1.73,-1.72,-1.90,-1.08,5.33,5.33,5.32
101.25,7.04,1.75,7.05,1.76,-1.76,-1.98,-1.15,5.29,5.29,5.29
102.27,7.05,1.79,7.05,1.79,-1.80,-2.04,-1.22,5.26,5.25,5.26
103.29,7.05,1.83,7.06,1.83,-1.84,-2.10,-1.29,5.22,5.22,5.22
104.32,7.05,1.86,7.06,1.86,-1.87,-2.15,-1.36,5.18,5.19,5.19
105.37,7.06,1.90,7.06,1.90,-1.90,-2.19,-1.43,5.16,5.16,5.16
106.42,7.05,1.93,7.06,1.93,-1.93,-2.23,-1.50,5.12,5.12,5.13
107.48,7.05,1.97,7.05,1.97,-1.96,-2.26,-1.57,5.10,5.09,5.09
108.56,7.03,1.99,7.04,1.99,-1.98,-2.28,-1.63,5.06,5.06,5.05
109.64,7.02,2.02,7.02,2.01,-1.99,-2.29,-1.69,5.03,5.03,5.01
110.74,6.98,2.02,6.98,2.01,-2.00,-2.30,-1.75,4.98,4.98,4.97
111.85,6.93,2.01,6.94,2.01,-2.01,-2.30,-1.81,4.92,4.92,4.93
112.97,6.88,2.00,6.88,2.00,-2.02,-2.29,-1.87,4.87,4.86,4.88
114.10,6.83,1.99,6.84,2.00,-2.03,-2.27,-1.92,4.81,4.82,4.84
115.24,6.81,2.02,6.82,2.02,-2.04,-2.25,-1.96,4.78,4.78,4.79
116.39,6.80,2.05,6.80,2.04,-2.05,-2.22,-2.01,4.76,4.75,4.76
117.55,6.77,2.07,6.78,2.06,-2.06,-2.19,-2.05,4.72,4.72,4.71
118.73,6.74,2.07,6.74,2.07,-2.07,-2.15,-2.08,4.68,4.68,4.67
119.92,6.70,2.08,6.71,2.08,-2.07,-2.11,-2.11,4.63,4.63,4.62
121.12,6.66,2.08,6.67,2.08,-2.07,-2.07,-2.14,4.59,4.60,4.59
122.33,6.63,2.08,6.63,2.08,-2.07,-2.02,-2.16,4.57,4.56,4.55
123.55,6.58,2.07,6.57,2.06,-2.06,-1.97,-2.18,4.53,4.52,4.52
124.79,6.50,2.03,6.51,2.03,-2.04,-1.92,-2.19,4.47,4.47,4.48
126.03,6.43,1.99,6.45,2.01,-2.02,-1.87,-2.20,4.42,4.43,4.44
127.29,6.40,1.99,6.39,1.98,-1.99,-1.81,-2.20,4.41,4.40,4.41
128.57,6.34,1.97,6.34,1.96,-1.96,-1.76,-2.19,4.38,4.38,4.38
129.85,6.27,1.93,6.28,1.94,-1.92,-1.70,-2.19,4.35,4.35,4.34
131.15,6.19,1.89,6.21,1.90,-1.89,-1.65,-2.18,4.31,4.32,4.31
132.46,6.14,1.87,6.13,1.85,-1.85,-1.60,-2.16,4.30,4.29,4.28
133.79,6.06,1.81,6.05,1.80,-1.80,-1.54,-2.14,4.26,4.25,4.25
135.12,5.94,1.72,5.97,1.74,-1.75,-1.49,-2.11,4.19,4.22,4.22
136.48,5.89,1.70,5.88,1.69,-1.70,-1.44,-2.08,4.19,4.18,4.19
137.84,5.79,1.63,5.81,1.64,-1.65,-1.39,-2.05,4.15,4.16,4.16
139.22,5.73,1.60,5.73,1.60,-1.59,-1.34,-2.02,4.14,4.14,4.13
140.61,5.66,1.56,5.65,1.55,-1.54,-1.29,-1.98,4.12,4.11,4.10
142.02,5.55,1.47,5.57,1.49,-1.49,-1.24,-1.94,4.07,4.08,4.08
143.44,5.49,1.44,5.48,1.43,-1.43,-1.19,-1.90,4.06,4.05,4.06
144.87,5.38,1.35,5.40,1.37,-1.38,-1.15,-1.85,4.01,4.02,4.03
146.32,5.32,1.33,5.32,1.32,-1.32,-1.10,-1.80,4.01,4.00,3.99
147.78,5.22,1.26,5.23,1.26,-1.26,-1.06,-1.76,3.97,3.97,3.97
149.26,5.14,1.20,5.14,1.20,-1.20,-1.02,-1.71,3.95,3.95,3.94
150.75,5.04,1.13,5.05,1.13,-1.13,-0.98,-1.66,3.91,3.92,3.92
152.26,4.96,1.07,4.96,1.07,-1.07,-0.94,-1.61,3.90,3.90,3.89
153.78,4.86,1.01,4.86,1.00,-1.00,-0.90,-1.55,3.87,3.87,3.86
155.32,4.77,0.94,4.77,0.93,-0.93,-0.86,-1.50,3.85,3.84,3.83
156.88,4.66,0.84,4.67,0.85,-0.86,-0.82,-1.45,3.80,3.81,3.81
158.44,4.57,0.78,4.57,0.78,-0.79,-0.79,-1.40,3.79,3.78,3.79
160.03,4.47,0.72,4.48,0.72,-0.72,-0.75,-1.35,3.76,3.76,3.76
161.63,4.39,0.66,4.39,0.66,-0.65,-0.72,-1.29,3.74,3.74,3.74
163.24,4.31,0.61,4.30,0.59,-0.59,-0.69,-1.24,3.72,3.71,3.71
164.88,4.20,0.52,4.22,0.53,-0.54,-0.65,-1.19,3.67,3.68,3.69
166.53,4.13,0.48,4.14,0.48,-0.48,-0.62,-1.14,3.65,3.65,3.66
168.19,4.07,0.44,4.06,0.43,-0.44,-0.59,-1.09,3.64,3.62,3.63
169.87,3.98,0.38,4.00,0.40,-0.40,-0.56,-1.04,3.59,3.61,3.60
171.57,3.94,0.37,3.94,0.36,-0.36,-0.53,-0.99,3.59,3.58,3.57
173.29,3.88,0.34,3.88,0.33,-0.33,-0.50,-0.94,3.56,3.55,3.55
175.02,3.80,0.28,3.82,0.30,-0.30,-0.46,-0.89,3.51,3.52,3.52
176.77,3.76,0.28,3.76,0.27,-0.27,-0.43,-0.85,3.49,3.49,3.48
178.54,3.70,0.25,3.71,0.25,-0.25,-0.40,-0.80,3.45,3.46,3.46
180.32,3.66,0.24,3.66,0.24,-0.23,-0.37,-0.75,3.43,3.43,3.42
182.13,3.61,0.22,3.61,0.22,-0.22,-0.34,-0.71,3.40,3.39,3.40
183.95,3.56,0.20,3.57,0.20,-0.21,-0.31,-0.66,3.36,3.36,3.36
185.79,3.52,0.19,3.53,0.20,-0.20,-0.28,-0.62,3.33,3.33,3.33
187.65,3.50,0.20,3.50,0.19,-0.19,-0.26,-0.58,3.31,3.31,3.31
189.52,3.46,0.19,3.46,0.19,-0.19,-0.23,-0.54,3.28,3.28,3.27
191.42,3.42,0.18,3.43,0.18,-0.18,-0.20,-0.49,3.24,3.24,3.24
193.33,3.38,0.17,3.39,0.18,-0.18,-0.17,-0.45,3.21,3.21,3.21
195.27,3.35,0.17,3.36,0.17,-0.17,-0.14,-0.41,3.18,3.18,3.19
197.22,3.32,0.17,3.32,0.17,-0.16,-0.11,-0.37,3.16,3.16,3.16
199.19,3.28,0.16,3.28,0.16,-0.15,-0.08,-0.34,3.13,3.13,3.13
201.18,3.23,0.15,3.24,0.15,-0.14,-0.06,-0.30,3.09,3.09,3.09
203.19,3.18,0.13,3.19,0.13,-0.13,-0.03,-0.26,3.06,3.06,3.06
205.23,3.13,0.11,3.13,0.11,-0.11,-0.01,-0.22,3.02,3.02,3.03
207.28,3.08,0.09,3.09,0.09,-0.09,0.02,-0.19,2.99,2.99,3.00
209.35,3.03,0.07,3.04,0.07,-0.07,0.04,-0.16,2.96,2.97,2.97
211.44,2.98,0.06,2.98,0.05,-0.05,0.06,-0.12,2.94,2.94,2.93
213.56,2.92,0.03,2.92,0.02,-0.02,0.08,-0.09,2.90,2.90,2.90
215.69,2.85,-0.01,2.86,-0.00,0.01,0.10,-0.06,2.86,2.86,2.86
217.85,2.78,-0.04,2.79,-0.04,0.03,0.11,-0.03,2.82,2.83,2.82
220.03,2.73,-0.06,2.73,-0.06,0.06,0.13,0.00,2.80,2.79,2.80
222.23,2.67,-0.09,2.67,-0.09,0.09,0.14,0.03,2.76,2.76,2.77
224.45,2.61,-0.12,2.62,-0.12,0.12,0.15,0.06,2.73,2.73,2.73
226.70,2.56,-0.14,2.56,-0.14,0.14,0.15,0.08,2.70,2.70,2.70
228.96,2.51,-0.16,2.52,-0.16,0.16,0.16,0.11,2.67,2.68,2.68
231.25,2.47,-0.18,2.48,-0.18,0.18,0.16,0.13,2.65,2.65,2.65
233.57,2.44,-0.19,2.44,-0.19,0.19,0.16,0.15,2.63,2.63,2.63
235.90,2.40,-0.20,2.41,-0.20,0.20,0.16,0.17,2.60,2.61,2.61
238.26,2.38,-0.21,2.39,-0.20,0.21,0.16,0.19,2.59,2.59,2.59
240.64,2.37,-0.20,2.37,-0.20,0.21,0.15,0.21,2.58,2.58,2.58
243.05,2.36,-0.20,2.36,-0.20,0.20,0.15,0.22,2.57,2.56,2.56
245.48,2.34,-0.20,2.35,-0.20,0.20,0.14,0.24,2.54,2.54,2.55
247.93,2.33,-0.20,2.34,-0.19,0.19,0.13,0.25,2.52,2.52,2.53
250.41,2.33,-0.18,2.34,-0.18,0.17,0.12,0.26,2.51,2.51,2.52
252.92,2.34,-0.16,2.34,-0.16,0.16,0.11,0.27,2.50,2.50,2.50
255.45,2.35,-0.13,2.35,-0.14,0.15,0.10,0.28,2.50,2.50,2.49
258.00,2.35,-0.12,2.36,-0.12,0.13,0.09,0.28,2.48,2.49,2.47
260.58,2.35,-0.12,2.36,-0.11,0.11,0.07,0.29,2.47,2.47,2.47
263.19,2.35,-0.10,2.35,-0.10,0.10,0.06,0.29,2.45,2.45,2.46
265.82,2.35,-0.09,2.35,-0.09,0.09,0.05,0.29,2.44,2.44,2.44
268.48,2.35,-0.07,2.35,-0.07,0.07,0.04,0.29,2.43,2.43,2.43
271.16,2.35,-0.06,2.35,-0.06,0.06,0.03,0.29,2.41,2.41,2.41
273.87,2.35,-0.05,2.35,-0.05,0.05,0.02,0.29,2.40,2.40,2.40
276.61,2.35,-0.03,2.35,-0.03,0.03,0.01,0.28,2.39,2.39,2.39
279.38,2.35,-0.02,2.35,-0.02,0.02,-0.00,0.28,2.38,2.38,2.38
282.17,2.35,-0.01,2.35,-0.01,0.01,-0.01,0.27,2.36,2.36,2.36
284.99,2.35,0.01,2.35,0.01,-0.00,-0.02,0.26,2.35,2.35,2.35
287.84,2.35,0.02,2.35,0.02,-0.02,-0.03,0.26,2.34,2.34,2.34
290.72,2.35,0.03,2.35,0.03,-0.03,-0.04,0.25,2.32,2.32,2.32
293.63,2.35,0.04,2.35,0.04,-0.04,-0.05,0.24,2.31,2.31,2.31
296.57,2.35,0.06,2.36,0.06,-0.06,-0.05,0.23,2.29,2.29,2.30
299.53,2.35,0.07,2.36,0.07,-0.08,-0.06,0.22,2.28,2.28,2.29
302.53,2.36,0.09,2.36,0.09,-0.10,-0.06,0.21,2.27,2.27,2.27
305.55,2.36,0.11,2.37,0.11,-0.11,-0.07,0.20,2.25,2.25,2.25
308.61,2.37,0.13,2.37,0.13,-0.13,-0.08,0.19,2.24,2.24,2.24
311.69,2.37,0.15,2.37,0.15,-0.14,-0.08,0.18,2.23,2.23,2.23
314.81,2.36,0.16,2.37,0.16,-0.15,-0.08,0.17,2.21,2.22,2.21
317.96,2.35,0.16,2.35,0.16,-0.15,-0.09,0.15,2.20,2.20,2.19
321.14,2.33,0.16,2.33,0.16,-0.15,-0.09,0.14,2.18,2.18,2.17
324.35,2.30,0.14,2.31,0.15,-0.15,-0.09,0.13,2.16,2.16,2.16
327.59,2.27,0.14,2.28,0.14,-0.13,-0.10,0.12,2.14,2.14,2.14
330.87,2.24,0.12,2.24,0.12,-0.12,-0.10,0.10,2.12,2.12,2.13
334.18,2.21,0.11,2.21,0.10,-0.10,-0.10,0.09,2.11,2.11,2.11
337.52,2.17,0.08,2.18,0.09,-0.09,-0.10,0.08,2.09,2.09,2.09
340.90,2.14,0.07,2.14,0.07,-0.07,-0.10,0.07,2.07,2.07,2.07
344.30,2.11,0.05,2.11,0.06,-0.06,-0.10,0.05,2.06,2.06,2.06
347.75,2.08,0.04,2.09,0.05,-0.05,-0.10,0.04,2.04,2.04,2.04
351.23,2.06,0.05,2.06,0.04,-0.04,-0.10,0.03,2.02,2.02,2.02
354.74,2.04,0.04,2.04,0.04,-0.04,-0.10,0.02,2.01,2.00,2.01
358.28,2.01,0.03,2.02,0.04,-0.04,-0.10,0.00,1.97,1.98,1.99
361.87,2.01,0.05,2.01,0.04,-0.05,-0.10,-0.01,1.96,1.96,1.97
365.49,2.01,0.06,2.01,0.06,-0.07,-0.10,-0.02,1.95,1.95,1.95
369.14,2.01,0.08,2.02,0.08,-0.08,-0.10,-0.03,1.93,1.94,1.93
372.83,2.02,0.10,2.02,0.10,-0.10,-0.10,-0.05,1.92,1.92,1.92
376.56,2.02,0.12,2.03,0.13,-0.12,-0.10,-0.06,1.90,1.90,1.90
380.33,2.03,0.15,2.03,0.15,-0.15,-0.10,-0.07,1.89,1.88,1.88
384.13,2.03,0.17,2.03,0.17,-0.17,-0.10,-0.08,1.87,1.86,1.87
387.97,2.03,0.19,2.04,0.19,-0.19,-0.10,-0.09,1.84,1.85,1.85
391.85,2.04,0.21,2.05,0.21,-0.21,-0.10,-0.11,1.84,1.84,1.84
395.77,2.05,0.23,2.05,0.23,-0.22,-0.10,-0.12,1.83,1.83,1.83
399.73,2.05,0.24,2.05,0.24,-0.23,-0.10,-0.13,1.82,1.82,1.82
403.72,2.04,0.24,2.05,0.24,-0.24,-0.09,-0.14,1.81,1.81,1.81
407.76,2.03,0.24,2.03,0.24,-0.24,-0.09,-0.15,1.80,1.79,1.79
411.84,2.01,0.24,2.02,0.24,-0.23,-0.09,-0.16,1.78,1.78,1.77
415.96,1.99,0.23,1.99,0.23,-0.22,-0.09,-0.17,1.77,1.77,1.76
420.12,1.96,0.21,1.96,0.21,-0.21,-0.09,-0.18,1.76,1.76,1.75
424.32,1.93,0.19,1.93,0.19,-0.19,-0.09,-0.19,1.74,1.74,1.74
428.56,1.89,0.16,1.90,0.17,-0.17,-0.09,-0.20,1.73,1.73,1.73
432.85,1.86,0.15,1.86,0.15,-0.15,-0.08,-0.21,1.72,1.71,1.71
437.18,1.82,0.12,1.83,0.13,-0.13,-0.08,-0.22,1.70,1.70,1.70
441.55,1.79,0.10,1.79,0.11,-0.11,-0.08,-0.23,1.68,1.68,1.69
445.96,1.76,0.10,1.76,0.09,-0.10,-0.08,-0.24,1.67,1.66,1.67
450.42,1.73,0.09,1.74,0.08,-0.09,-0.08,-0.24,1.64,1.64,1.65
454.93,1.71,0.08,1.72,0.08,-0.09,-0.07,-0.25,1.62,1.62,1.64
459.48,1.70,0.09,1.71,0.09,-0.10,-0.07,-0.26,1.61,1.61,1.62
464.07,1.70,0.11,1.70,0.10,-0.11,-0.07,-0.26,1.59,1.59,1.60
468.71,1.70,0.13,1.70,0.12,-0.12,-0.07,-0.26,1.58,1.58,1.58
473.40,1.70,0.14,1.71,0.14,-0.14,-0.07,-0.27,1.57,1.57,1.57
478.13,1.70,0.16,1.70,0.16,-0.15,-0.07,-0.27,1.56,1.56,1.55
482.91,1.69,0.16,1.70,0.16,-0.15,-0.06,-0.27,1.54,1.55,1.54
487.74,1.68,0.17,1.68,0.16,-0.15,-0.06,-0.27,1.54,1.53,1.52
492.62,1.65,0.15,1.66,0.15,-0.14,-0.06,-0.27,1.51,1.51,1.51
497.55,1.62,0.13,1.63,0.13,-0.13,-0.06,-0.27,1.50,1.50,1.50
502.52,1.59,0.11,1.59,0.11,-0.11,-0.06,-0.27,1.48,1.48,1.49
507.55,1.56,0.09,1.56,0.09,-0.09,-0.05,-0.26,1.47,1.47,1.47
512.62,1.52,0.07,1.53,0.07,-0.07,-0.05,-0.26,1.45,1.46,1.45
517.75,1.49,0.05,1.49,0.05,-0.06,-0.05,-0.25,1.44,1.44,1.44
522.93,1.46,0.04,1.46,0.04,-0.04,-0.05,-0.25,1.42,1.42,1.42
528.16,1.43,0.03,1.44,0.03,-0.04,-0.05,-0.24,1.40,1.40,1.40
533.44,1.41,0.03,1.41,0.03,-0.04,-0.04,-0.23,1.38,1.38,1.38
538.77,1.39,0.03,1.40,0.04,-0.04,-0.04,-0.22,1.35,1.36,1.36
544.16,1.39,0.05,1.39,0.05,-0.06,-0.04,-0.21,1.34,1.34,1.34
549.60,1.38,0.07,1.38,0.07,-0.07,-0.04,-0.20,1.32,1.31,1.31
555.10,1.37,0.08,1.38,0.09,-0.08,-0.04,-0.19,1.29,1.29,1.29
560.65,1.36,0.10,1.36,0.10,-0.10,-0.03,-0.17,1.27,1.27,1.26
566.25,1.35,0.12,1.35,0.11,-0.11,-0.03,-0.16,1.25,1.24,1.23
