frequency,raw,error,smoothed,error_smoothed,equalization,parametric_eq,fixed_band_eq,equalized_raw,equalized_smoothed,target
20.00,-8.65,-14.12,-8.65,-14.11,6.00,5.40,2.68,-2.65,-2.65,5.47
20.20,-8.59,-14.05,-8.59,-14.06,6.00,5.42,2.75,-2.59,-2.59,5.47
20.40,-8.52,-13.99,-8.52,-14.00,6.00,5.45,2.83,-2.52,-2.52,5.48
20.61,-8.46,-13.95,-8.46,-13.94,6.00,5.48,2.91,-2.46,-2.46,5.48
20.81,-8.40,-13.88,-8.40,-13.88,6.00,5.51,2.99,-2.40,-2.40,5.49
21.02,-8.33,-13.82,-8.33,-13.82,6.00,5.53,3.08,-2.33,-2.33,5.49
21.23,-8.27,-13.76,-8.27,-13.76,6.00,5.56,3.16,-2.27,-2.27,5.49
21.44,-8.20,-13.70,-8.20,-13.70,6.00,5.59,3.25,-2.20,-2.20,5.50
21.66,-8.13,-13.64,-8.13,-13.64,6.00,5.61,3.34,-2.13,-2.13,5.51
21.87,-8.07,-13.58,-8.06,-13.58,6.00,5.64,3.44,-2.07,-2.06,5.51
22.09,-8.00,-13.52,-8.00,-13.52,6.00,5.66,3.54,-2.00,-2.00,5.52
22.31,-7.93,-13.46,-7.93,-13.46,6.00,5.69,3.64,-1.93,-1.93,5.53
22.54,-7.87,-13.40,-7.87,-13.40,6.00,5.71,3.74,-1.87,-1.87,5.53
22.76,-7.80,-13.34,-7.80,-13.34,6.00,5.74,3.84,-1.80,-1.80,5.54
22.99,-7.73,-13.28,-7.73,-13.28,6.00,5.76,3.95,-1.73,-1.73,5.55
23.22,-7.66,-13.22,-7.66,-13.22,6.00,5.78,4.06,-1.66,-1.66,5.56
23.45,-7.59,-13.16,-7.59,-13.16,6.00,5.81,4.17,-1.59,-1.59,5.57
23.69,-7.52,-13.10,-7.52,-13.10,6.00,5.83,4.29,-1.52,-1.52,5.58
23.92,-7.45,-13.04,-7.45,-13.04,6.00,5.85,4.41,-1.45,-1.45,5.59
24.16,-7.38,-12.98,-7.38,-12.98,6.00,5.87,4.53,-1.38,-1.38,5.60
24.40,-7.32,-12.93,-7.32,-12.93,6.00,5.90,4.65,-1.32,-1.32,5.61
24.65,-7.25,-12.88,-7.25,-12.87,6.00,5.92,4.77,-1.25,-1.25,5.63
24.89,-7.18,-12.82,-7.18,-12.82,6.00,5.94,4.89,-1.18,-1.18,5.64
25.14,-7.11,-12.76,-7.11,-12.76,6.00,5.96,5.02,-1.11,-1.11,5.65
25.39,-7.04,-12.70,-7.04,-12.70,6.00,5.98,5.15,-1.04,-1.04,5.66
25.65,-6.97,-12.64,-6.97,-12.64,6.00,6.00,5.28,-0.97,-0.97,5.67
25.91,-6.91,-12.60,-6.91,-12.59,6.00,6.01,5.41,-0.91,-0.91,5.69
26.16,-6.84,-12.53,-6.84,-12.53,6.00,6.03,5.53,-0.84,-0.84,5.70
26.43,-6.77,-12.48,-6.77,-12.48,6.00,6.05,5.66,-0.77,-0.77,5.71
26.69,-6.70,-12.41,-6.70,-12.42,6.00,6.07,5.79,-0.70,-0.70,5.71
26.96,-6.63,-12.36,-6.63,-12.36,6.00,6.09,5.92,-0.63,-0.63,5.73
27.23,-6.56,-12.30,-6.56,-12.31,6.00,6.10,6.04,-0.56,-0.56,5.74
27.50,-6.49,-12.25,-6.49,-12.25,6.00,6.12,6.16,-0.49,-0.49,5.76
27.77,-6.42,-12.19,-6.42,-12.19,6.00,6.13,6.28,-0.42,-0.42,5.77
28.05,-6.35,-12.14,-6.35,-12.14,6.00,6.15,6.39,-0.35,-0.35,5.79
28.33,-6.28,-12.08,-6.28,-12.08,6.00,6.16,6.50,-0.28,-0.28,5.80
28.62,-6.21,-12.03,-6.21,-12.03,6.00,6.18,6.60,-0.21,-0.21,5.82
28.90,-6.14,-11.97,-6.14,-11.97,6.00,6.19,6.70,-0.14,-0.14,5.83
29.19,-6.07,-11.92,-6.07,-11.92,6.00,6.21,6.79,-0.07,-0.07,5.85
29.48,-6.00,-11.86,-6.00,-11.86,6.00,6.22,6.87,0.00,0.00,5.86
29.78,-5.93,-11.81,-5.93,-11.80,6.00,6.23,6.95,0.07,0.07,5.88
30.08,-5.86,-11.75,-5.86,-11.75,6.00,6.24,7.01,0.14,0.14,5.88
30.38,-5.80,-11.70,-5.80,-11.70,6.00,6.26,7.07,0.20,0.20,5.90
30.68,-5.74,-11.65,-5.74,-11.65,6.00,6.27,7.12,0.26,0.26,5.91
30.99,-5.67,-11.60,-5.67,-11.60,6.00,6.28,7.16,0.33,0.33,5.93
31.30,-5.60,-11.54,-5.60,-11.55,6.00,6.29,7.18,0.40,0.40,5.94
31.61,-5.54,-11.50,-5.54,-11.49,6.00,6.30,7.20,0.46,0.46,5.96
31.93,-5.47,-11.44,-5.47,-11.44,6.00,6.31,7.21,0.53,0.53,5.97
32.24,-5.40,-11.39,-5.40,-11.39,6.00,6.32,7.21,0.60,0.60,5.99
32.57,-5.34,-11.33,-5.34,-11.33,6.00,6.33,7.20,0.66,0.66,6.00
32.89,-5.27,-11.28,-5.27,-11.28,6.00,6.33,7.18,0.73,0.73,6.01
33.22,-5.21,-11.23,-5.21,-11.23,6.00,6.34,7.16,0.79,0.79,6.02
33.55,-5.14,-11.18,-5.14,-11.18,6.00,6.35,7.12,0.86,0.86,6.04
33.89,-5.07,-11.12,-5.07,-11.12,6.00,6.35,7.08,0.93,0.93,6.05
34.23,-5.00,-11.07,-5.00,-11.06,6.00,6.36,7.04,1.00,1.00,6.07
34.57,-4.93,-11.00,-4.93,-11.01,6.00,6.37,6.98,1.07,1.07,6.08
34.92,-4.86,-10.94,-4.86,-10.95,6.00,6.37,6.93,1.14,1.14,6.08
35.27,-4.79,-10.89,-4.79,-10.89,6.00,6.38,6.87,1.21,1.21,6.10
35.62,-4.72,-10.83,-4.72,-10.83,6.00,6.38,6.81,1.28,1.28,6.11
35.97,-4.65,-10.77,-4.65,-10.77,6.00,6.38,6.74,1.35,1.35,6.12
36.33,-4.59,-10.71,-4.59,-10.71,6.00,6.39,6.68,1.41,1.41,6.13
36.70,-4.52,-10.65,-4.52,-10.65,6.00,6.39,6.61,1.48,1.48,6.13
37.06,-4.46,-10.60,-4.46,-10.60,6.00,6.39,6.54,1.54,1.54,6.14
37.43,-4.40,-10.55,-4.40,-10.55,6.00,6.39,6.48,1.60,1.60,6.15
37.81,-4.34,-10.50,-4.34,-10.49,6.00,6.40,6.41,1.66,1.66,6.16
38.19,-4.28,-10.44,-4.28,-10.44,6.00,6.40,6.35,1.72,1.72,6.16
38.57,-4.21,-10.38,-4.21,-10.38,6.00,6.40,6.28,1.79,1.79,6.17
38.95,-4.15,-10.33,-4.15,-10.33,6.00,6.40,6.22,1.85,1.85,6.18
39.34,-4.09,-10.27,-4.09,-10.27,6.00,6.40,6.17,1.91,1.91,6.18
39.74,-4.03,-10.22,-4.03,-10.22,6.00,6.40,6.11,1.97,1.97,6.19
40.14,-3.97,-10.16,-3.97,-10.16,6.00,6.39,6.06,2.03,2.03,6.19
40.54,-3.92,-10.11,-3.92,-10.11,6.00,6.39,6.01,2.08,2.08,6.19
40.94,-3.87,-10.07,-3.87,-10.07,6.00,6.39,5.97,2.13,2.13,6.20
41.35,-3.81,-10.02,-3.81,-10.02,6.00,6.39,5.93,2.19,2.19,6.21
41.76,-3.76,-9.97,-3.76,-9.97,6.00,6.38,5.89,2.24,2.24,6.21
42.18,-3.70,-9.92,-3.70,-9.92,6.00,6.38,5.86,2.30,2.30,6.22
42.60,-3.64,-9.86,-3.64,-9.87,6.00,6.38,5.83,2.36,2.36,6.23
43.03,-3.59,-9.82,-3.59,-9.82,6.00,6.37,5.81,2.41,2.41,6.23
43.46,-3.54,-9.78,-3.54,-9.78,6.00,6.37,5.79,2.46,2.46,6.24
43.90,-3.49,-9.73,-3.49,-9.74,6.00,6.36,5.77,2.51,2.51,6.24
44.33,-3.45,-9.71,-3.45,-9.70,6.00,6.35,5.76,2.55,2.55,6.26
44.78,-3.40,-9.66,-3.40,-9.66,6.00,6.35,5.76,2.60,2.60,6.26
45.23,-3.35,-9.62,-3.35,-9.62,6.00,6.34,5.76,2.65,2.65,6.27
45.68,-3.31,-9.59,-3.31,-9.59,6.00,6.33,5.76,2.69,2.69,6.28
46.13,-3.26,-9.55,-3.26,-9.55,6.00,6.33,5.77,2.74,2.74,6.29
46.60,-3.22,-9.52,-3.22,-9.52,6.00,6.32,5.78,2.78,2.78,6.30
47.06,-3.17,-9.48,-3.17,-9.48,6.00,6.31,5.79,2.83,2.83,6.31
47.53,-3.13,-9.45,-3.13,-9.45,6.00,6.30,5.81,2.87,2.87,6.32
48.01,-3.09,-9.41,-3.09,-9.41,6.00,6.29,5.84,2.91,2.91,6.32
48.49,-3.05,-9.39,-3.05,-9.38,6.00,6.28,5.86,2.95,2.95,6.34
48.97,-3.01,-9.35,-3.01,-9.35,6.00,6.27,5.89,2.99,2.99,6.34
49.46,-2.97,-9.32,-2.97,-9.32,6.00,6.26,5.93,3.03,3.03,6.35
49.96,-2.93,-9.28,-2.93,-9.28,6.00,6.25,5.96,3.07,3.07,6.36
50.46,-2.89,-9.25,-2.89,-9.25,6.00,6.24,6.00,3.11,3.11,6.36
50.96,-2.85,-9.22,-2.85,-9.22,6.00,6.23,6.05,3.15,3.15,6.37
51.47,-2.82,-9.19,-2.82,-9.19,6.00,6.21,6.09,3.18,3.18,6.37
51.99,-2.78,-9.15,-2.78,-9.15,6.00,6.20,6.14,3.22,3.22,6.37
52.51,-2.74,-9.11,-2.74,-9.11,6.00,6.19,6.18,3.26,3.26,6.37
53.03,-2.70,-9.07,-2.70,-9.07,6.00,6.18,6.23,3.30,3.30,6.38
53.56,-2.65,-9.04,-2.65,-9.04,6.00,6.16,6.28,3.35,3.35,6.39
54.10,-2.61,-9.00,-2.61,-9.00,6.00,6.15,6.33,3.39,3.39,6.39
54.64,-2.57,-8.96,-2.57,-8.95,6.00,6.14,6.38,3.43,3.43,6.39
55.18,-2.53,-8.90,-2.53,-8.91,6.00,6.12,6.43,3.47,3.47,6.38
55.74,-2.49,-8.86,-2.49,-8.86,6.00,6.11,6.47,3.51,3.51,6.37
56.29,-2.44,-8.81,-2.44,-8.81,6.00,6.09,6.52,3.56,3.56,6.37
56.86,-2.39,-8.75,-2.39,-8.76,6.00,6.08,6.56,3.61,3.61,6.36
57.42,-2.34,-8.70,-2.34,-8.70,6.00,6.06,6.60,3.66,3.66,6.36
58.00,-2.29,-8.64,-2.29,-8.64,6.00,6.05,6.63,3.71,3.71,6.35
58.58,-2.24,-8.58,-2.24,-8.59,6.00,6.03,6.66,3.76,3.76,6.34
59.16,-2.20,-8.53,-2.19,-8.53,6.00,6.02,6.68,3.80,3.81,6.33
59.76,-2.14,-8.46,-2.14,-8.46,6.00,6.00,6.70,3.86,3.86,6.32
60.35,-2.08,-8.38,-2.08,-8.38,6.00,5.99,6.71,3.92,3.92,6.30
60.96,-2.01,-8.30,-2.01,-8.30,6.00,5.97,6.72,3.99,3.99,6.29
61.57,-1.95,-8.22,-1.95,-8.22,6.00,5.96,6.71,4.05,4.05,6.27
62.18,-1.88,-8.14,-1.88,-8.14,6.00,5.94,6.71,4.12,4.12,6.26
62.80,-1.82,-8.06,-1.82,-8.06,6.00,5.93,6.69,4.18,4.18,6.24
63.43,-1.77,-8.00,-1.77,-7.99,6.00,5.91,6.67,4.23,4.23,6.23
64.07,-1.71,-7.91,-1.71,-7.91,6.00,5.90,6.64,4.29,4.29,6.20
64.71,-1.66,-7.84,-1.65,-7.84,6.00,5.89,6.60,4.34,4.35,6.18
65.35,-1.59,-7.75,-1.59,-7.76,6.00,5.87,6.56,4.41,4.41,6.16
66.01,-1.53,-7.68,-1.53,-7.68,6.00,5.86,6.51,4.47,4.47,6.15
66.67,-1.47,-7.60,-1.47,-7.59,6.00,5.85,6.46,4.53,4.53,6.13
67.33,-1.41,-7.52,-1.41,-7.52,6.00,5.84,6.40,4.59,4.59,6.11
68.01,-1.36,-7.44,-1.36,-7.44,6.00,5.83,6.33,4.64,4.64,6.08
68.69,-1.31,-7.37,-1.31,-7.37,6.00,5.82,6.26,4.69,4.69,6.06
69.37,-1.26,-7.29,-1.26,-7.30,6.00,5.81,6.19,4.74,4.74,6.03
70.07,-1.22,-7.23,-1.22,-7.23,6.00,5.81,6.11,4.78,4.78,6.01
70.77,-1.17,-7.16,-1.17,-7.16,6.00,5.81,6.03,4.83,4.83,5.99
71.48,-1.12,-7.09,-1.12,-7.09,6.00,5.80,5.95,4.88,4.88,5.97
72.19,-1.07,-7.01,-1.07,-7.01,6.00,5.81,5.86,4.93,4.93,5.94
72.91,-1.02,-6.95,-1.02,-6.95,6.00,5.81,5.78,4.98,4.98,5.93
73.64,-0.97,-6.87,-0.97,-6.88,6.00,5.82,5.69,5.03,5.03,5.91
74.38,-0.93,-6.82,-0.93,-6.82,6.00,5.83,5.61,5.07,5.07,5.89
75.12,-0.89,-6.75,-0.89,-6.75,6.00,5.84,5.52,5.11,5.11,5.86
75.87,-0.85,-6.70,-0.85,-6.69,6.00,5.86,5.44,5.15,5.15,5.85
76.63,-0.80,-6.63,-0.80,-6.63,6.00,5.87,5.36,5.20,5.20,5.83
77.40,-0.76,-6.57,-0.76,-6.57,6.00,5.89,5.27,5.24,5.24,5.81
78.17,-0.71,-6.50,-0.71,-6.50,6.00,5.92,5.19,5.29,5.29,5.79
78.95,-0.66,-6.43,-0.66,-6.43,6.00,5.94,5.12,5.34,5.34,5.77
79.74,-0.60,-6.35,-0.60,-6.36,6.01,5.95,5.04,5.41,5.40,5.76
80.54,-0.55,-6.28,-0.55,-6.28,6.01,5.97,4.97,5.46,5.46,5.74
81.35,-0.50,-6.21,-0.50,-6.22,6.01,5.97,4.89,5.51,5.51,5.71
82.16,-0.46,-6.15,-0.46,-6.16,6.01,5.97,4.83,5.55,5.54,5.69
82.98,-0.43,-6.10,-0.43,-6.10,5.99,5.95,4.76,5.56,5.56,5.67
83.81,-0.40,-6.05,-0.40,-6.05,5.97,5.92,4.70,5.57,5.58,5.65
84.65,-0.36,-5.99,-0.36,-5.98,5.94,5.88,4.64,5.58,5.58,5.63
85.50,-0.31,-5.91,-0.31,-5.91,5.90,5.82,4.58,5.59,5.59,5.60
86.35,-0.26,-5.84,-0.26,-5.84,5.85,5.76,4.53,5.60,5.59,5.58
87.22,-0.22,-5.77,-0.22,-5.78,5.80,5.68,4.48,5.58,5.58,5.55
88.09,-0.19,-5.72,-0.19,-5.72,5.74,5.60,4.44,5.55,5.55,5.53
88.97,-0.16,-5.67,-0.16,-5.67,5.67,5.52,4.39,5.51,5.51,5.51
89.86,-0.13,-5.62,-0.12,-5.61,5.61,5.44,4.35,5.48,5.48,5.49
90.76,-0.08,-5.54,-0.08,-5.55,5.54,5.36,4.32,5.46,5.46,5.46
91.66,-0.04,-5.48,-0.04,-5.48,5.48,5.28,4.29,5.44,5.44,5.45
92.58,0.01,-5.41,0.01,-5.41,5.41,5.21,4.26,5.42,5.42,5.42
93.51,0.05,-5.34,0.05,-5.34,5.35,5.13,4.23,5.40,5.40,5.39
94.44,0.09,-5.28,0.09,-5.28,5.28,5.06,4.21,5.37,5.38,5.37
95.39,0.14,-5.21,0.14,-5.21,5.21,5.00,4.19,5.35,5.35,5.35
96.34,0.18,-5.15,0.18,-5.15,5.14,4.93,4.17,5.32,5.32,5.33
97.30,0.22,-5.08,0.22,-5.08,5.07,4.87,4.15,5.29,5.30,5.30
98.28,0.26,-5.01,0.26,-5.01,5.01,4.81,4.14,5.27,5.27,5.27
99.26,0.31,-4.93,0.31,-4.94,4.94,4.76,4.13,5.25,5.25,5.24
100.25,0.35,-4.87,0.36,-4.87,4.87,4.70,4.12,5.22,5.23,5.22
101.25,0.40,-4.79,0.40,-4.79,4.80,4.65,4.12,5.20,5.20,5.19
102.27,0.44,-4.72,0.43,-4.73,4.73,4.60,4.11,5.17,5.16,5.16
103.29,0.46,-4.66,0.46,-4.66,4.66,4.55,4.11,5.12,5.12,5.13
104.32,0.49,-4.60,0.50,-4.60,4.58,4.51,4.11,5.08,5.08,5.10
105.37,0.54,-4.53,0.54,-4.52,4.51,4.46,4.11,5.05,5.05,5.07
106.42,0.59,-4.44,0.59,-4.44,4.44,4.42,4.11,5.03,5.03,5.03
107.48,0.63,-4.36,0.63,-4.36,4.37,4.37,4.12,5.00,5.00,4.99
108.56,0.67,-4.28,0.67,-4.28,4.30,4.33,4.12,4.97,4.96,4.95
109.64,0.69,-4.22,0.69,-4.22,4.23,4.29,4.12,4.92,4.92,4.91
110.74,0.71,-4.16,0.71,-4.16,4.16,4.25,4.13,4.87,4.87,4.87
111.85,0.72,-4.11,0.72,-4.10,4.10,4.20,4.13,4.82,4.82,4.83
112.97,0.74,-4.04,0.75,-4.04,4.04,4.16,4.13,4.78,4.78,4.78
114.10,0.77,-3.97,0.77,-3.98,3.97,4.12,4.13,4.75,4.74,4.74
115.24,0.79,-3.90,0.79,-3.91,3.91,4.09,4.13,4.70,4.70,4.70
116.39,0.80,-3.86,0.80,-3.85,3.85,4.05,4.12,4.65,4.66,4.66
117.55,0.82,-3.79,0.82,-3.79,3.79,4.01,4.12,4.61,4.61,4.61
118.73,0.84,-3.73,0.84,-3.73,3.72,3.97,4.11,4.56,4.56,4.57
119.92,0.87,-3.65,0.87,-3.65,3.65,3.93,4.10,4.52,4.53,4.53
121.12,0.91,-3.58,0.90,-3.59,3.58,3.90,4.09,4.50,4.49,4.49
122.33,0.93,-3.52,0.93,-3.52,3.52,3.86,4.08,4.45,4.45,4.45
123.55,0.96,-3.46,0.97,-3.45,3.45,3.82,4.06,4.41,4.41,4.42
124.79,1.00,-3.38,1.00,-3.38,3.38,3.79,4.04,4.38,4.38,4.38
126.03,1.04,-3.31,1.03,-3.31,3.31,3.75,4.01,4.35,4.35,4.35
127.29,1.06,-3.25,1.06,-3.25,3.25,3.72,3.98,4.31,4.32,4.31
128.57,1.08,-3.20,1.08,-3.19,3.20,3.68,3.95,4.28,4.28,4.28
129.85,1.10,-3.14,1.10,-3.14,3.15,3.65,3.92,4.25,4.25,4.24
131.15,1.11,-3.10,1.11,-3.10,3.11,3.61,3.88,4.22,4.22,4.21
132.46,1.12,-3.06,1.12,-3.07,3.07,3.58,3.84,4.19,4.19,4.18
133.79,1.11,-3.05,1.11,-3.04,3.04,3.55,3.80,4.15,4.15,4.16
135.12,1.10,-3.02,1.10,-3.02,3.02,3.51,3.76,4.12,4.12,4.12
136.48,1.09,-3.00,1.09,-3.00,2.99,3.48,3.71,4.08,4.08,4.09
137.84,1.09,-2.97,1.09,-2.97,2.97,3.45,3.66,4.06,4.06,4.06
139.22,1.09,-2.94,1.09,-2.94,2.94,3.42,3.61,4.03,4.03,4.03
140.61,1.09,-2.91,1.09,-2.92,2.92,3.38,3.56,4.01,4.01,4.00
142.02,1.09,-2.90,1.09,-2.89,2.89,3.35,3.51,3.98,3.98,3.99
143.44,1.09,-2.87,1.09,-2.87,2.86,3.32,3.45,3.96,3.96,3.96
144.87,1.09,-2.84,1.09,-2.84,2.84,3.29,3.40,3.93,3.93,3.93
146.32,1.09,-2.80,1.09,-2.81,2.81,3.26,3.34,3.90,3.90,3.89
147.78,1.09,-2.78,1.09,-2.78,2.78,3.23,3.29,3.87,3.87,3.87
149.26,1.09,-2.75,1.09,-2.75,2.75,3.20,3.23,3.84,3.84,3.84
150.75,1.09,-2.73,1.09,-2.73,2.73,3.17,3.18,3.82,3.82,3.82
152.26,1.09,-2.70,1.09,-2.70,2.70,3.14,3.12,3.79,3.79,3.79
153.78,1.09,-2.67,1.09,-2.67,2.67,3.11,3.07,3.76,3.76,3.76
155.32,1.09,-2.65,1.09,-2.65,2.65,3.08,3.02,3.74,3.74,3.74
156.88,1.09,-2.62,1.09,-2.62,2.62,3.05,2.96,3.71,3.71,3.71
158.44,1.09,-2.60,1.09,-2.60,2.60,3.02,2.91,3.69,3.69,3.69
160.03,1.09,-2.57,1.09,-2.57,2.57,3.00,2.86,3.66,3.66,3.66
161.63,1.09,-2.55,1.09,-2.55,2.55,2.97,2.82,3.64,3.64,3.64
163.24,1.09,-2.52,1.09,-2.52,2.52,2.94,2.77,3.61,3.61,3.61
164.88,1.09,-2.50,1.09,-2.50,2.50,2.91,2.72,3.59,3.59,3.59
166.53,1.09,-2.47,1.09,-2.47,2.47,2.89,2.68,3.56,3.56,3.56
168.19,1.09,-2.44,1.09,-2.44,2.44,2.86,2.64,3.53,3.53,3.53
169.87,1.09,-2.41,1.09,-2.41,2.41,2.84,2.60,3.50,3.50,3.50
171.57,1.09,-2.38,1.09,-2.39,2.39,2.81,2.56,3.48,3.48,3.48
173.29,1.09,-2.36,1.09,-2.36,2.36,2.79,2.52,3.45,3.45,3.45
175.02,1.09,-2.33,1.09,-2.33,2.33,2.76,2.49,3.42,3.42,3.42
176.77,1.09,-2.30,1.09,-2.30,2.30,2.74,2.45,3.39,3.39,3.39
178.54,1.09,-2.27,1.09,-2.27,2.27,2.71,2.42,3.36,3.36,3.36
180.32,1.09,-2.23,1.09,-2.24,2.23,2.69,2.39,3.32,3.32,3.32
182.13,1.09,-2.21,1.09,-2.20,2.20,2.67,2.36,3.29,3.29,3.30
183.95,1.10,-2.17,1.10,-2.17,2.16,2.65,2.34,3.27,3.26,3.27
185.79,1.10,-2.13,1.10,-2.13,2.13,2.62,2.31,3.23,3.23,3.23
187.65,1.11,-2.10,1.11,-2.10,2.10,2.60,2.29,3.21,3.21,3.21
189.52,1.11,-2.07,1.11,-2.06,2.07,2.58,2.27,3.18,3.18,3.18
191.42,1.11,-2.03,1.11,-2.04,2.04,2.56,2.25,3.15,3.15,3.14
193.33,1.10,-2.01,1.10,-2.01,2.02,2.54,2.23,3.12,3.12,3.11
195.27,1.09,-2.00,1.09,-2.00,2.00,2.52,2.22,3.09,3.09,3.09
197.22,1.07,-1.99,1.07,-1.99,1.99,2.50,2.20,3.06,3.06,3.06
199.19,1.04,-1.99,1.04,-1.98,1.98,2.48,2.19,3.02,3.03,3.03
201.18,1.01,-1.98,1.01,-1.98,1.98,2.46,2.18,2.99,2.99,2.99
203.19,0.98,-1.98,0.98,-1.98,1.98,2.44,2.17,2.96,2.96,2.96
205.23,0.95,-1.98,0.95,-1.98,1.98,2.43,2.16,2.93,2.92,2.93
207.28,0.91,-1.99,0.91,-1.98,1.98,2.41,2.15,2.89,2.89,2.90
209.35,0.88,-1.99,0.88,-1.98,1.97,2.39,2.14,2.85,2.86,2.87
211.44,0.86,-1.97,0.86,-1.98,1.97,2.38,2.13,2.83,2.83,2.83
213.56,0.83,-1.97,0.83,-1.96,1.96,2.36,2.13,2.79,2.80,2.80
215.69,0.81,-1.95,0.81,-1.95,1.95,2.35,2.12,2.77,2.76,2.76
217.85,0.78,-1.94,0.78,-1.95,1.95,2.33,2.12,2.73,2.73,2.72
220.03,0.76,-1.94,0.76,-1.93,1.94,2.32,2.12,2.70,2.70,2.70
222.23,0.74,-1.93,0.74,-1.93,1.93,2.31,2.11,2.67,2.67,2.67
224.45,0.71,-1.92,0.71,-1.93,1.93,2.29,2.11,2.64,2.64,2.63
226.70,0.68,-1.92,0.68,-1.92,1.92,2.28,2.11,2.60,2.61,2.61
228.96,0.65,-1.93,0.65,-1.92,1.92,2.27,2.11,2.57,2.58,2.58
231.25,0.63,-1.92,0.63,-1.93,1.93,2.26,2.11,2.56,2.55,2.55
233.57,0.60,-1.94,0.60,-1.93,1.93,2.25,2.10,2.53,2.53,2.54
235.90,0.57,-1.94,0.57,-1.94,1.94,2.24,2.10,2.51,2.51,2.51
238.26,0.55,-1.94,0.55,-1.95,1.95,2.23,2.10,2.50,2.50,2.49
240.64,0.52,-1.96,0.52,-1.95,1.96,2.22,2.10,2.48,2.48,2.48
243.05,0.50,-1.96,0.49,-1.97,1.97,2.21,2.10,2.47,2.47,2.46
245.48,0.46,-1.99,0.46,-1.99,1.99,2.20,2.09,2.45,2.45,2.45
247.93,0.42,-2.01,0.43,-2.01,2.00,2.19,2.09,2.42,2.43,2.43
250.41,0.40,-2.02,0.39,-2.03,2.02,2.19,2.09,2.42,2.41,2.42
252.92,0.36,-2.04,0.37,-2.04,2.03,2.18,2.08,2.39,2.40,2.40
255.45,0.34,-2.05,0.34,-2.05,2.05,2.17,2.08,2.39,2.39,2.39
258.00,0.32,-2.05,0.32,-2.06,2.06,2.17,2.08,2.38,2.38,2.38
260.58,0.29,-2.08,0.29,-2.07,2.07,2.16,2.07,2.37,2.37,2.37
263.19,0.27,-2.09,0.27,-2.09,2.09,2.16,2.07,2.36,2.36,2.36
265.82,0.24,-2.10,0.24,-2.10,2.11,2.16,2.06,2.35,2.35,2.34
268.48,0.21,-2.12,0.21,-2.12,2.13,2.15,2.06,2.34,2.34,2.33
271.16,0.18,-2.14,0.17,-2.14,2.15,2.15,2.05,2.33,2.32,2.32
273.87,0.13,-2.17,0.13,-2.17,2.17,2.15,2.05,2.30,2.30,2.30
276.61,0.09,-2.20,0.09,-2.20,2.19,2.15,2.04,2.28,2.29,2.29
279.38,0.06,-2.22,0.06,-2.22,2.21,2.15,2.04,2.27,2.27,2.28
282.17,0.02,-2.24,0.02,-2.24,2.24,2.15,2.03,2.26,2.26,2.26
284.99,-0.01,-2.26,-0.01,-2.26,2.25,2.15,2.03,2.25,2.25,2.25
287.84,-0.04,-2.28,-0.04,-2.27,2.27,2.15,2.02,2.23,2.24,2.24
290.72,-0.06,-2.28,-0.06,-2.29,2.29,2.15,2.02,2.23,2.23,2.23
293.63,-0.09,-2.30,-0.09,-2.30,2.31,2.16,2.02,2.22,2.22,2.21
296.57,-0.12,-2.32,-0.12,-2.32,2.32,2.16,2.02,2.20,2.20,2.20
299.53,-0.15,-2.34,-0.15,-2.34,2.34,2.16,2.02,2.19,2.19,2.19
302.53,-0.18,-2.35,-0.18,-2.35,2.36,2.17,2.02,2.18,2.18,2.18
305.55,-0.21,-2.36,-0.21,-2.37,2.37,2.17,2.02,2.16,2.16,2.15
308.61,-0.25,-2.39,-0.25,-2.39,2.39,2.18,2.02,2.14,2.14,2.14
311.69,-0.29,-2.42,-0.28,-2.41,2.40,2.18,2.03,2.11,2.12,2.13
314.81,-0.31,-2.42,-0.31,-2.42,2.41,2.19,2.03,2.11,2.10,2.11
317.96,-0.34,-2.43,-0.34,-2.43,2.43,2.20,2.04,2.09,2.09,2.10
321.14,-0.36,-2.43,-0.36,-2.44,2.44,2.21,2.05,2.08,2.07,2.07
324.35,-0.39,-2.45,-0.39,-2.44,2.45,2.21,2.06,2.06,2.06,2.06
327.59,-0.41,-2.45,-0.41,-2.45,2.46,2.22,2.07,2.05,2.05,2.04
330.87,-0.43,-2.46,-0.44,-2.46,2.47,2.23,2.08,2.04,2.03,2.03
334.18,-0.47,-2.48,-0.47,-2.48,2.49,2.24,2.09,2.02,2.02,2.01
337.52,-0.51,-2.50,-0.51,-2.50,2.50,2.25,2.11,1.99,2.00,2.00
340.90,-0.54,-2.51,-0.54,-2.52,2.52,2.27,2.13,1.98,1.97,1.97
344.30,-0.58,-2.54,-0.58,-2.54,2.53,2.28,2.14,1.95,1.95,1.96
347.75,-0.61,-2.55,-0.61,-2.55,2.54,2.29,2.17,1.93,1.93,1.94
351.23,-0.64,-2.56,-0.64,-2.56,2.55,2.30,2.19,1.91,1.91,1.92
354.74,-0.66,-2.57,-0.66,-2.57,2.56,2.32,2.21,1.90,1.90,1.91
358.28,-0.69,-2.58,-0.68,-2.57,2.57,2.33,2.24,1.88,1.89,1.89
361.87,-0.70,-2.57,-0.70,-2.57,2.58,2.35,2.26,1.88,1.88,1.87
365.49,-0.73,-2.58,-0.73,-2.59,2.60,2.36,2.29,1.87,1.86,1.86
369.14,-0.77,-2.60,-0.77,-2.60,2.61,2.38,2.32,1.84,1.85,1.83
372.83,-0.81,-2.63,-0.81,-2.63,2.63,2.39,2.36,1.82,1.82,1.82
376.56,-0.85,-2.65,-0.85,-2.65,2.65,2.41,2.39,1.80,1.80,1.80
380.33,-0.89,-2.67,-0.89,-2.68,2.67,2.42,2.42,1.78,1.78,1.78
384.13,-0.93,-2.70,-0.93,-2.70,2.69,2.44,2.46,1.76,1.76,1.77
387.97,-0.97,-2.72,-0.96,-2.72,2.71,2.46,2.50,1.74,1.75,1.75
391.85,-0.99,-2.73,-0.99,-2.73,2.73,2.47,2.54,1.74,1.73,1.74
395.77,-1.02,-2.75,-1.02,-2.74,2.74,2.49,2.58,1.72,1.73,1.73
399.73,-1.04,-2.76,-1.04,-2.76,2.76,2.51,2.62,1.72,1.72,1.72
403.72,-1.06,-2.77,-1.06,-2.77,2.77,2.53,2.66,1.71,1.71,1.71
407.76,-1.09,-2.79,-1.09,-2.78,2.78,2.55,2.70,1.70,1.70,1.70
411.84,-1.11,-2.78,-1.12,-2.79,2.80,2.56,2.74,1.69,1.68,1.68
415.96,-1.15,-2.81,-1.15,-2.81,2.82,2.58,2.79,1.67,1.67,1.66
420.12,-1.18,-2.83,-1.18,-2.83,2.83,2.60,2.83,1.65,1.65,1.65
424.32,-1.21,-2.85,-1.21,-2.85,2.85,2.62,2.87,1.64,1.64,1.64
428.56,-1.24,-2.87,-1.24,-2.87,2.87,2.63,2.91,1.63,1.63,1.63
432.85,-1.27,-2.88,-1.27,-2.89,2.88,2.65,2.95,1.61,1.61,1.61
437.18,-1.30,-2.90,-1.29,-2.90,2.90,2.67,2.99,1.60,1.60,1.60
441.55,-1.32,-2.91,-1.32,-2.91,2.91,2.69,3.03,1.59,1.59,1.59
445.96,-1.35,-2.92,-1.35,-2.92,2.93,2.70,3.07,1.58,1.58,1.57
450.42,-1.39,-2.94,-1.38,-2.94,2.94,2.72,3.10,1.55,1.56,1.55
454.93,-1.41,-2.95,-1.42,-2.95,2.95,2.74,3.13,1.54,1.54,1.54
459.48,-1.45,-2.97,-1.44,-2.96,2.96,2.75,3.16,1.51,1.52,1.52
464.07,-1.47,-2.97,-1.47,-2.97,2.97,2.77,3.18,1.50,1.50,1.50
468.71,-1.49,-2.97,-1.50,-2.98,2.98,2.78,3.21,1.49,1.48,1.48
473.40,-1.52,-2.99,-1.52,-2.98,2.98,2.79,3.22,1.46,1.46,1.47
478.13,-1.54,-2.99,-1.54,-2.99,2.98,2.81,3.24,1.44,1.44,1.45
482.91,-1.55,-2.99,-1.55,-2.98,2.97,2.82,3.25,1.42,1.43,1.44
487.74,-1.54,-2.96,-1.54,-2.96,2.96,2.83,3.26,1.42,1.42,1.42
492.62,-1.53,-2.94,-1.53,-2.94,2.94,2.84,3.26,1.41,1.41,1.41
497.55,-1.52,-2.92,-1.52,-2.91,2.92,2.85,3.25,1.40,1.40,1.40
502.52,-1.50,-2.89,-1.50,-2.88,2.88,2.86,3.25,1.38,1.39,1.39
507.55,-1.47,-2.85,-1.47,-2.85,2.84,2.86,3.23,1.37,1.37,1.38
512.62,-1.45,-2.81,-1.45,-2.81,2.80,2.87,3.22,1.35,1.35,1.36
517.75,-1.41,-2.76,-1.41,-2.76,2.75,2.88,3.20,1.34,1.33,1.35
