frequency,raw,error,smoothed,error_smoothed,equalization,parametric_eq,fixed_band_eq,equalized_raw,equalized_smoothed,target
20.00,-5.32,-9.60,-5.32,-9.60,6.00,5.29,2.19,0.68,0.68,4.28
20.20,-5.22,-9.48,-5.23,-9.48,6.00,5.36,2.26,0.78,0.77,4.26
20.40,-5.13,-9.36,-5.13,-9.36,6.00,5.44,2.33,0.87,0.87,4.23
20.61,-5.03,-9.24,-5.03,-9.24,6.00,5.51,2.40,0.97,0.97,4.21
20.81,-4.93,-9.12,-4.93,-9.12,6.00,5.58,2.47,1.07,1.07,4.18
21.02,-4.84,-9.00,-4.84,-9.00,6.00,5.65,2.54,1.16,1.16,4.15
21.23,-4.74,-8.88,-4.75,-8.88,6.00,5.71,2.62,1.26,1.25,4.13
21.44,-4.66,-8.78,-4.66,-8.77,6.00,5.78,2.70,1.34,1.34,4.11
21.66,-4.57,-8.67,-4.57,-8.67,6.00,5.84,2.78,1.43,1.43,4.09
21.87,-4.49,-8.56,-4.49,-8.56,6.00,5.89,2.86,1.51,1.51,4.07
22.09,-4.40,-8.45,-4.40,-8.46,6.00,5.94,2.95,1.60,1.60,4.05
22.31,-4.31,-8.34,-4.31,-8.34,6.00,5.99,3.03,1.69,1.69,4.03
22.54,-4.22,-8.23,-4.22,-8.23,6.00,6.04,3.12,1.78,1.78,4.00
22.76,-4.12,-8.10,-4.13,-8.11,6.00,6.08,3.22,1.88,1.87,3.98
22.99,-4.03,-7.99,-4.03,-7.99,6.00,6.11,3.31,1.97,1.97,3.96
23.22,-3.93,-7.87,-3.93,-7.88,6.00,6.14,3.41,2.07,2.07,3.94
23.45,-3.83,-7.76,-3.83,-7.76,6.00,6.17,3.51,2.17,2.17,3.93
23.69,-3.73,-7.65,-3.73,-7.65,6.00,6.19,3.61,2.27,2.27,3.91
23.92,-3.63,-7.53,-3.64,-7.53,6.00,6.20,3.71,2.37,2.36,3.90
24.16,-3.54,-7.42,-3.54,-7.43,6.00,6.21,3.81,2.46,2.46,3.88
24.40,-3.45,-7.32,-3.45,-7.32,6.00,6.21,3.92,2.55,2.55,3.87
24.65,-3.35,-7.21,-3.35,-7.21,6.00,6.20,4.02,2.65,2.65,3.86
24.89,-3.25,-7.09,-3.25,-7.09,6.00,6.19,4.13,2.75,2.75,3.84
25.14,-3.14,-6.97,-3.14,-6.97,6.00,6.18,4.24,2.86,2.86,3.83
25.39,-3.04,-6.86,-3.04,-6.86,6.00,6.15,4.35,2.96,2.96,3.82
25.65,-2.93,-6.74,-2.93,-6.74,6.00,6.13,4.46,3.07,3.07,3.81
25.91,-2.83,-6.63,-2.83,-6.63,6.01,6.09,4.57,3.18,3.18,3.80
26.16,-2.73,-6.52,-2.73,-6.52,6.02,6.05,4.68,3.29,3.29,3.79
26.43,-2.63,-6.40,-2.63,-6.40,6.02,6.00,4.78,3.39,3.39,3.77
26.69,-2.53,-6.29,-2.53,-6.29,6.01,5.95,4.89,3.48,3.48,3.76
26.96,-2.43,-6.18,-2.44,-6.18,6.00,5.89,4.99,3.56,3.56,3.74
27.23,-2.34,-6.08,-2.34,-6.08,5.96,5.83,5.09,3.62,3.62,3.73
27.50,-2.25,-5.98,-2.25,-5.97,5.91,5.76,5.19,3.66,3.67,3.72
27.77,-2.15,-5.87,-2.15,-5.87,5.85,5.68,5.28,3.70,3.70,3.72
28.05,-2.05,-5.76,-2.05,-5.77,5.77,5.61,5.37,3.72,3.72,3.71
28.33,-1.96,-5.66,-1.96,-5.66,5.68,5.52,5.45,3.72,3.72,3.70
28.62,-1.85,-5.55,-1.86,-5.56,5.58,5.43,5.52,3.72,3.72,3.70
28.90,-1.76,-5.45,-1.76,-5.45,5.46,5.34,5.59,3.70,3.70,3.69
29.19,-1.66,-5.35,-1.66,-5.34,5.35,5.25,5.65,3.69,3.69,3.69
29.48,-1.55,-5.23,-1.55,-5.23,5.24,5.15,5.70,3.68,3.68,3.68
29.78,-1.45,-5.13,-1.45,-5.13,5.13,5.05,5.74,3.67,3.67,3.68
30.08,-1.34,-5.01,-1.35,-5.02,5.02,4.94,5.77,3.67,3.67,3.67
30.38,-1.25,-4.92,-1.25,-4.91,4.91,4.84,5.79,3.65,3.66,3.66
30.68,-1.14,-4.80,-1.14,-4.80,4.80,4.73,5.80,3.65,3.65,3.65
30.99,-1.03,-4.68,-1.04,-4.68,4.68,4.62,5.79,3.65,3.65,3.64
31.30,-0.93,-4.57,-0.93,-4.57,4.57,4.50,5.78,3.64,3.64,3.64
31.61,-0.82,-4.45,-0.83,-4.46,4.46,4.39,5.75,3.63,3.63,3.63
31.93,-0.72,-4.34,-0.72,-4.34,4.34,4.27,5.71,3.62,3.62,3.62
32.24,-0.61,-4.23,-0.61,-4.23,4.22,4.15,5.66,3.61,3.61,3.62
32.57,-0.50,-4.11,-0.50,-4.11,4.10,4.04,5.60,3.60,3.60,3.61
32.89,-0.39,-3.99,-0.39,-3.99,3.98,3.92,5.52,3.59,3.59,3.59
33.22,-0.28,-3.86,-0.28,-3.86,3.87,3.80,5.44,3.58,3.58,3.58
33.55,-0.17,-3.74,-0.17,-3.74,3.75,3.68,5.35,3.57,3.57,3.57
33.89,-0.06,-3.62,-0.06,-3.62,3.62,3.56,5.24,3.56,3.56,3.56
34.23,0.05,-3.50,0.05,-3.50,3.50,3.44,5.13,3.55,3.55,3.55
34.57,0.16,-3.39,0.16,-3.38,3.39,3.32,5.02,3.54,3.54,3.55
34.92,0.27,-3.27,0.27,-3.27,3.27,3.20,4.89,3.53,3.53,3.53
35.27,0.38,-3.15,0.38,-3.15,3.15,3.08,4.76,3.52,3.52,3.52
35.62,0.49,-3.03,0.49,-3.03,3.03,2.96,4.62,3.52,3.52,3.52
35.97,0.60,-2.91,0.60,-2.91,2.91,2.84,4.48,3.51,3.51,3.51
36.33,0.72,-2.79,0.71,-2.79,2.79,2.72,4.34,3.51,3.50,3.51
36.70,0.82,-2.68,0.83,-2.67,2.67,2.60,4.19,3.48,3.49,3.49
37.06,0.94,-2.54,0.94,-2.55,2.55,2.49,4.04,3.49,3.49,3.48
37.43,1.06,-2.42,1.05,-2.43,2.43,2.37,3.88,3.49,3.48,3.48
37.81,1.16,-2.31,1.17,-2.30,2.31,2.25,3.73,3.46,3.47,3.47
38.19,1.28,-2.19,1.28,-2.19,2.19,2.14,3.57,3.46,3.46,3.46
38.57,1.39,-2.06,1.39,-2.07,2.07,2.03,3.41,3.45,3.45,3.45
38.95,1.50,-1.95,1.50,-1.95,1.94,1.91,3.25,3.44,3.44,3.45
39.34,1.61,-1.83,1.61,-1.82,1.82,1.80,3.09,3.43,3.44,3.43
39.74,1.73,-1.70,1.72,-1.71,1.70,1.69,2.93,3.43,3.43,3.43
40.14,1.84,-1.58,1.84,-1.58,1.58,1.58,2.77,3.42,3.42,3.42
40.54,1.95,-1.47,1.95,-1.46,1.46,1.47,2.61,3.41,3.41,3.42
40.94,2.07,-1.33,2.06,-1.34,1.34,1.37,2.46,3.41,3.40,3.40
41.35,2.17,-1.23,2.17,-1.22,1.22,1.26,2.30,3.39,3.40,3.40
41.76,2.29,-1.10,2.29,-1.10,1.10,1.15,2.14,3.39,3.39,3.38
42.18,2.40,-0.98,2.40,-0.98,0.98,1.05,1.98,3.38,3.38,3.38
42.60,2.51,-0.86,2.51,-0.86,0.86,0.95,1.83,3.37,3.37,3.37
43.03,2.62,-0.74,2.62,-0.74,0.74,0.85,1.67,3.36,3.36,3.36
43.46,2.73,-0.62,2.73,-0.62,0.62,0.74,1.52,3.35,3.35,3.35
43.90,2.85,-0.50,2.84,-0.50,0.50,0.65,1.36,3.35,3.34,3.34
44.33,2.96,-0.38,2.95,-0.38,0.38,0.55,1.21,3.34,3.34,3.34
44.78,3.06,-0.27,3.06,-0.27,0.27,0.45,1.06,3.32,3.33,3.32
45.23,3.17,-0.15,3.17,-0.15,0.15,0.35,0.91,3.32,3.32,3.32
45.68,3.27,-0.05,3.27,-0.04,0.04,0.26,0.76,3.30,3.31,3.31
46.13,3.39,0.08,3.38,0.07,-0.07,0.17,0.61,3.31,3.31,3.31
46.60,3.49,0.18,3.49,0.19,-0.18,0.07,0.46,3.30,3.31,3.30
47.06,3.59,0.29,3.59,0.29,-0.29,-0.02,0.32,3.30,3.30,3.30
47.53,3.69,0.40,3.68,0.39,-0.39,-0.11,0.17,3.30,3.29,3.29
48.01,3.78,0.49,3.78,0.49,-0.50,-0.20,0.02,3.28,3.28,3.28
48.49,3.87,0.59,3.87,0.59,-0.60,-0.28,-0.12,3.27,3.27,3.28
48.97,3.96,0.69,3.96,0.69,-0.69,-0.37,-0.26,3.27,3.26,3.27
49.46,4.05,0.79,4.05,0.79,-0.79,-0.46,-0.41,3.26,3.26,3.26
49.96,4.14,0.88,4.14,0.88,-0.88,-0.54,-0.55,3.26,3.26,3.26
50.46,4.23,0.98,4.22,0.98,-0.97,-0.63,-0.69,3.25,3.25,3.25
50.96,4.31,1.07,4.31,1.07,-1.06,-0.71,-0.83,3.25,3.24,3.24
51.47,4.38,1.15,4.38,1.15,-1.15,-0.79,-0.96,3.23,3.23,3.23
51.99,4.46,1.23,4.46,1.23,-1.23,-0.87,-1.10,3.22,3.22,3.22
52.51,4.53,1.31,4.53,1.31,-1.32,-0.95,-1.23,3.21,3.21,3.21
53.03,4.60,1.39,4.60,1.39,-1.39,-1.03,-1.36,3.20,3.21,3.21
53.56,4.67,1.47,4.67,1.47,-1.47,-1.10,-1.49,3.20,3.20,3.20
54.10,4.74,1.55,4.73,1.55,-1.55,-1.18,-1.62,3.19,3.19,3.19
54.64,4.79,1.61,4.80,1.62,-1.62,-1.25,-1.74,3.17,3.18,3.18
55.18,4.86,1.69,4.86,1.69,-1.69,-1.33,-1.86,3.17,3.17,3.17
55.74,4.92,1.76,4.91,1.76,-1.76,-1.40,-1.97,3.16,3.16,3.16
56.29,4.97,1.82,4.97,1.83,-1.82,-1.47,-2.09,3.14,3.15,3.14
56.86,5.02,1.89,5.02,1.89,-1.89,-1.54,-2.19,3.13,3.13,3.13
57.42,5.07,1.95,5.07,1.94,-1.94,-1.61,-2.30,3.12,3.12,3.12
58.00,5.12,2.00,5.12,2.00,-2.00,-1.68,-2.40,3.12,3.11,3.12
58.58,5.16,2.05,5.16,2.06,-2.06,-1.75,-2.49,3.10,3.10,3.11
59.16,5.21,2.12,5.20,2.11,-2.11,-1.82,-2.58,3.10,3.09,3.09
59.76,5.24,2.16,5.24,2.16,-2.16,-1.88,-2.66,3.08,3.08,3.08
60.35,5.28,2.20,5.28,2.21,-2.21,-1.95,-2.74,3.07,3.07,3.07
60.96,5.31,2.25,5.31,2.25,-2.26,-2.01,-2.81,3.05,3.06,3.06
61.57,5.35,2.30,5.35,2.30,-2.30,-2.07,-2.87,3.05,3.05,3.04
62.18,5.38,2.35,5.38,2.35,-2.34,-2.13,-2.93,3.03,3.03,3.03
62.80,5.41,2.39,5.40,2.39,-2.38,-2.19,-2.98,3.02,3.02,3.01
63.43,5.43,2.42,5.43,2.43,-2.42,-2.25,-3.03,3.00,3.00,3.01
64.07,5.45,2.46,5.45,2.46,-2.46,-2.31,-3.07,2.98,2.99,2.99
64.71,5.48,2.51,5.47,2.50,-2.50,-2.37,-3.11,2.98,2.97,2.97
65.35,5.49,2.53,5.49,2.54,-2.54,-2.43,-3.14,2.95,2.95,2.95
66.01,5.51,2.57,5.51,2.57,-2.58,-2.48,-3.16,2.93,2.93,2.94
66.67,5.53,2.61,5.53,2.61,-2.61,-2.54,-3.18,2.92,2.92,2.92
67.33,5.55,2.65,5.54,2.65,-2.65,-2.59,-3.20,2.90,2.90,2.90
68.01,5.56,2.68,5.56,2.68,-2.68,-2.65,-3.21,2.88,2.88,2.88
68.69,5.57,2.71,5.57,2.71,-2.71,-2.70,-3.21,2.86,2.86,2.86
69.37,5.58,2.74,5.58,2.74,-2.74,-2.75,-3.22,2.84,2.84,2.84
70.07,5.59,2.77,5.59,2.77,-2.77,-2.80,-3.22,2.82,2.82,2.81
70.77,5.59,2.80,5.59,2.80,-2.80,-2.85,-3.21,2.79,2.79,2.79
71.48,5.60,2.83,5.59,2.82,-2.82,-2.90,-3.21,2.77,2.77,2.77
72.19,5.59,2.84,5.59,2.85,-2.85,-2.94,-3.20,2.74,2.74,2.74
72.91,5.60,2.88,5.59,2.88,-2.88,-2.99,-3.19,2.72,2.72,2.72
73.64,5.59,2.90,5.59,2.90,-2.90,-3.04,-3.18,2.69,2.69,2.69
74.38,5.59,2.93,5.59,2.93,-2.93,-3.08,-3.17,2.66,2.66,2.66
75.12,5.59,2.95,5.59,2.96,-2.96,-3.12,-3.16,2.63,2.63,2.63
75.87,5.59,2.99,5.58,2.98,-2.99,-3.17,-3.15,2.60,2.60,2.60
76.63,5.58,3.01,5.58,3.01,-3.02,-3.21,-3.14,2.56,2.56,2.57
77.40,5.58,3.05,5.58,3.05,-3.05,-3.25,-3.13,2.53,2.53,2.53
78.17,5.58,3.08,5.58,3.08,-3.08,-3.29,-3.13,2.50,2.49,2.49
78.95,5.58,3.12,5.57,3.12,-3.12,-3.33,-3.12,2.46,2.46,2.46
79.74,5.57,3.15,5.57,3.15,-3.15,-3.36,-3.11,2.42,2.42,2.42
80.54,5.56,3.18,5.56,3.19,-3.19,-3.40,-3.11,2.37,2.38,2.38
81.35,5.56,3.22,5.55,3.22,-3.22,-3.44,-3.11,2.34,2.33,2.33
82.16,5.55,3.25,5.55,3.25,-3.25,-3.47,-3.11,2.29,2.29,2.29
82.98,5.54,3.29,5.54,3.29,-3.29,-3.51,-3.11,2.25,2.25,2.25
83.81,5.53,3.32,5.53,3.32,-3.32,-3.54,-3.11,2.21,2.21,2.21
84.65,5.51,3.35,5.51,3.35,-3.35,-3.57,-3.12,2.16,2.16,2.16
85.50,5.50,3.38,5.49,3.38,-3.38,-3.60,-3.12,2.12,2.12,2.11
86.35,5.48,3.40,5.48,3.40,-3.41,-3.63,-3.13,2.07,2.07,2.08
87.22,5.46,3.42,5.46,3.43,-3.43,-3.66,-3.15,2.03,2.03,2.03
88.09,5.45,3.46,5.44,3.45,-3.46,-3.69,-3.16,1.99,1.99,1.99
88.97,5.43,3.48,5.43,3.48,-3.48,-3.72,-3.18,1.95,1.95,1.94
89.86,5.41,3.51,5.41,3.51,-3.50,-3.74,-3.20,1.90,1.91,1.90
90.76,5.39,3.53,5.39,3.53,-3.52,-3.77,-3.22,1.86,1.86,1.86
91.66,5.37,3.55,5.36,3.55,-3.55,-3.80,-3.25,1.82,1.82,1.82
92.58,5.34,3.56,5.34,3.56,-3.57,-3.82,-3.27,1.77,1.77,1.78
93.51,5.32,3.59,5.32,3.59,-3.59,-3.84,-3.30,1.73,1.73,1.73
94.44,5.30,3.60,5.30,3.60,-3.61,-3.86,-3.34,1.69,1.69,1.69
95.39,5.28,3.63,5.27,3.63,-3.63,-3.88,-3.37,1.65,1.65,1.65
96.34,5.25,3.64,5.25,3.65,-3.65,-3.90,-3.41,1.60,1.61,1.61
97.30,5.23,3.67,5.23,3.67,-3.67,-3.92,-3.45,1.56,1.56,1.56
98.28,5.21,3.69,5.20,3.69,-3.69,-3.94,-3.49,1.52,1.52,1.52
99.26,5.18,3.71,5.18,3.71,-3.71,-3.96,-3.53,1.47,1.47,1.47
100.25,5.16,3.73,5.15,3.73,-3.73,-3.98,-3.58,1.43,1.42,1.42
101.25,5.13,3.75,5.13,3.75,-3.75,-3.99,-3.62,1.37,1.37,1.37
102.27,5.10,3.77,5.10,3.78,-3.78,-4.01,-3.67,1.32,1.32,1.32
103.29,5.08,3.80,5.08,3.80,-3.80,-4.02,-3.72,1.28,1.28,1.28
104.32,5.05,3.82,5.05,3.82,-3.82,-4.03,-3.77,1.23,1.23,1.23
105.37,5.03,3.85,5.02,3.85,-3.85,-4.04,-3.82,1.18,1.18,1.18
106.42,4.99,3.86,4.99,3.87,-3.87,-4.06,-3.87,1.12,1.12,1.13
107.48,4.97,3.89,4.97,3.89,-3.89,-4.07,-3.92,1.08,1.08,1.08
108.56,4.94,3.91,4.94,3.91,-3.91,-4.07,-3.96,1.03,1.03,1.03
109.64,4.92,3.94,4.92,3.94,-3.93,-4.08,-4.01,0.98,0.98,0.98
110.74,4.89,3.96,4.89,3.96,-3.95,-4.09,-4.06,0.93,0.93,0.93
111.85,4.86,3.98,4.86,3.98,-3.98,-4.10,-4.11,0.88,0.88,0.88
112.97,4.83,4.00,4.82,3.99,-4.00,-4.10,-4.15,0.83,0.83,0.83
114.10,4.79,4.00,4.79,4.01,-4.01,-4.11,-4.19,0.77,0.78,0.78
115.24,4.77,4.03,4.77,4.03,-4.03,-4.11,-4.23,0.74,0.74,0.74
116.39,4.74,4.05,4.74,4.05,-4.05,-4.12,-4.27,0.69,0.69,0.69
117.55,4.71,4.07,4.71,4.06,-4.06,-4.12,-4.30,0.65,0.64,0.64
118.73,4.67,4.08,4.67,4.08,-4.07,-4.12,-4.33,0.59,0.60,0.59
119.92,4.64,4.08,4.64,4.09,-4.09,-4.12,-4.35,0.55,0.55,0.56
121.12,4.61,4.10,4.61,4.10,-4.10,-4.12,-4.37,0.51,0.51,0.51
122.33,4.58,4.11,4.58,4.11,-4.11,-4.12,-4.39,0.47,0.47,0.47
123.55,4.55,4.12,4.55,4.12,-4.12,-4.12,-4.40,0.43,0.43,0.43
124.79,4.52,4.13,4.52,4.13,-4.13,-4.12,-4.41,0.39,0.39,0.39
126.03,4.49,4.14,4.48,4.13,-4.14,-4.11,-4.41,0.35,0.35,0.35
127.29,4.45,4.14,4.45,4.14,-4.14,-4.11,-4.41,0.30,0.31,0.31
128.57,4.42,4.14,4.42,4.15,-4.15,-4.11,-4.41,0.27,0.27,0.28
129.85,4.40,4.16,4.39,4.15,-4.15,-4.10,-4.40,0.24,0.24,0.23
131.15,4.36,4.16,4.36,4.16,-4.16,-4.10,-4.38,0.20,0.20,0.20
132.46,4.33,4.16,4.33,4.16,-4.16,-4.09,-4.36,0.17,0.17,0.17
133.79,4.30,4.16,4.30,4.16,-4.16,-4.08,-4.34,0.14,0.14,0.14
135.12,4.27,4.16,4.26,4.16,-4.16,-4.07,-4.32,0.11,0.10,0.11
136.48,4.23,4.15,4.23,4.15,-4.16,-4.07,-4.29,0.07,0.07,0.07
137.84,4.20,4.14,4.20,4.15,-4.15,-4.06,-4.26,0.04,0.05,0.05
139.22,4.18,4.15,4.17,4.15,-4.15,-4.05,-4.22,0.03,0.02,0.02
140.61,4.15,4.15,4.15,4.15,-4.15,-4.04,-4.19,0.00,0.00,-0.00
142.02,4.12,4.14,4.12,4.14,-4.14,-4.03,-4.15,-0.02,-0.02,-0.02
143.44,4.09,4.13,4.09,4.13,-4.13,-4.01,-4.11,-0.05,-0.05,-0.04
144.87,4.06,4.13,4.06,4.12,-4.13,-4.00,-4.07,-0.07,-0.07,-0.07
146.32,4.04,4.12,4.04,4.12,-4.12,-3.99,-4.03,-0.08,-0.09,-0.09
147.78,4.01,4.11,4.01,4.12,-4.11,-3.98,-3.99,-0.11,-0.10,-0.10
149.26,3.99,4.11,3.98,4.11,-4.10,-3.96,-3.96,-0.12,-0.12,-0.13
150.75,3.95,4.09,3.95,4.09,-4.09,-3.95,-3.92,-0.15,-0.14,-0.14
152.26,3.93,4.08,3.93,4.08,-4.08,-3.93,-3.88,-0.15,-0.16,-0.16
153.78,3.90,4.07,3.90,4.07,-4.07,-3.92,-3.84,-0.17,-0.17,-0.17
155.32,3.88,4.06,3.87,4.06,-4.06,-3.90,-3.81,-0.18,-0.18,-0.18
156.88,3.85,4.04,3.85,4.04,-4.04,-3.89,-3.77,-0.20,-0.20,-0.20
158.44,3.82,4.03,3.82,4.03,-4.03,-3.87,-3.74,-0.21,-0.21,-0.21
160.03,3.80,4.02,3.79,4.01,-4.02,-3.85,-3.71,-0.22,-0.22,-0.22
161.63,3.77,4.00,3.77,4.00,-4.00,-3.84,-3.68,-0.23,-0.23,-0.23
163.24,3.75,3.99,3.75,3.99,-3.99,-3.82,-3.65,-0.24,-0.24,-0.24
164.88,3.73,3.98,3.73,3.98,-3.98,-3.80,-3.63,-0.25,-0.25,-0.25
166.53,3.71,3.97,3.71,3.97,-3.97,-3.78,-3.61,-0.26,-0.26,-0.26
168.19,3.69,3.96,3.69,3.95,-3.95,-3.76,-3.59,-0.27,-0.27,-0.27
169.87,3.66,3.93,3.66,3.94,-3.94,-3.75,-3.57,-0.29,-0.28,-0.28
171.57,3.65,3.94,3.64,3.93,-3.93,-3.73,-3.56,-0.29,-0.29,-0.29
173.29,3.62,3.92,3.62,3.92,-3.92,-3.71,-3.55,-0.30,-0.30,-0.30
175.02,3.61,3.92,3.60,3.91,-3.91,-3.69,-3.54,-0.30,-0.31,-0.31
176.77,3.58,3.90,3.58,3.90,-3.90,-3.67,-3.53,-0.32,-0.32,-0.32
178.54,3.56,3.89,3.56,3.89,-3.89,-3.65,-3.53,-0.33,-0.33,-0.33
180.32,3.54,3.88,3.53,3.88,-3.88,-3.63,-3.53,-0.34,-0.35,-0.34
182.13,3.51,3.87,3.51,3.87,-3.87,-3.61,-3.53,-0.36,-0.36,-0.36
183.95,3.48,3.85,3.49,3.86,-3.86,-3.59,-3.54,-0.38,-0.37,-0.37
185.79,3.47,3.86,3.46,3.85,-3.85,-3.57,-3.55,-0.38,-0.39,-0.39
187.65,3.44,3.84,3.44,3.84,-3.84,-3.54,-3.56,-0.40,-0.40,-0.40
189.52,3.41,3.82,3.41,3.83,-3.82,-3.52,-3.57,-0.42,-0.41,-0.41
191.42,3.39,3.81,3.39,3.81,-3.81,-3.50,-3.59,-0.42,-0.42,-0.43
193.33,3.36,3.80,3.36,3.79,-3.80,-3.48,-3.61,-0.44,-0.44,-0.44
195.27,3.33,3.78,3.33,3.78,-3.78,-3.46,-3.63,-0.45,-0.45,-0.45
197.22,3.29,3.76,3.30,3.76,-3.76,-3.44,-3.65,-0.48,-0.47,-0.47
199.19,3.27,3.75,3.27,3.75,-3.75,-3.42,-3.67,-0.48,-0.48,-0.48
201.18,3.24,3.74,3.23,3.73,-3.73,-3.40,-3.70,-0.49,-0.50,-0.50
203.19,3.20,3.71,3.20,3.71,-3.71,-3.38,-3.72,-0.52,-0.51,-0.51
205.23,3.16,3.69,3.16,3.69,-3.70,-3.36,-3.75,-0.54,-0.53,-0.53
207.28,3.14,3.68,3.13,3.68,-3.68,-3.34,-3.78,-0.54,-0.55,-0.54
209.35,3.10,3.66,3.10,3.66,-3.66,-3.32,-3.81,-0.57,-0.56,-0.56
211.44,3.08,3.66,3.07,3.65,-3.65,-3.30,-3.84,-0.57,-0.58,-0.58
213.56,3.04,3.63,3.04,3.63,-3.63,-3.28,-3.87,-0.59,-0.59,-0.59
215.69,3.01,3.61,3.01,3.61,-3.62,-3.27,-3.90,-0.61,-0.61,-0.61
217.85,2.98,3.59,2.98,3.60,-3.60,-3.25,-3.93,-0.62,-0.62,-0.62
220.03,2.95,3.58,2.95,3.58,-3.58,-3.23,-3.96,-0.63,-0.63,-0.63
222.23,2.93,3.57,2.92,3.56,-3.56,-3.21,-3.99,-0.63,-0.64,-0.64
224.45,2.89,3.54,2.89,3.54,-3.54,-3.20,-4.01,-0.65,-0.65,-0.65
226.70,2.86,3.51,2.86,3.51,-3.51,-3.18,-4.03,-0.65,-0.65,-0.65
228.96,2.83,3.49,2.82,3.49,-3.49,-3.17,-4.05,-0.66,-0.66,-0.66
231.25,2.79,3.46,2.79,3.46,-3.45,-3.16,-4.07,-0.67,-0.66,-0.67
233.57,2.76,3.42,2.76,3.42,-3.42,-3.14,-4.09,-0.66,-0.66,-0.66
235.90,2.72,3.39,2.72,3.39,-3.39,-3.13,-4.10,-0.67,-0.67,-0.67
238.26,2.69,3.35,2.68,3.35,-3.35,-3.12,-4.10,-0.66,-0.66,-0.67
240.64,2.64,3.30,2.64,3.31,-3.31,-3.11,-4.11,-0.67,-0.67,-0.66
243.05,2.61,3.27,2.60,3.26,-3.27,-3.11,-4.10,-0.66,-0.67,-0.67
245.48,2.56,3.22,2.56,3.22,-3.22,-3.10,-4.10,-0.67,-0.66,-0.66
247.93,2.52,3.17,2.52,3.18,-3.18,-3.09,-4.09,-0.66,-0.65,-0.66
250.41,2.49,3.14,2.48,3.14,-3.13,-3.09,-4.07,-0.64,-0.65,-0.65
252.92,2.44,3.09,2.44,3.09,-3.08,-3.09,-4.05,-0.64,-0.65,-0.66
255.45,2.39,3.04,2.39,3.04,-3.03,-3.09,-4.02,-0.65,-0.64,-0.65
258.00,2.34,2.98,2.34,2.99,-2.99,-3.10,-3.99,-0.65,-0.65,-0.64
260.58,2.30,2.95,2.29,2.94,-2.94,-3.10,-3.96,-0.64,-0.65,-0.65
263.19,2.25,2.90,2.25,2.90,-2.90,-3.11,-3.92,-0.65,-0.65,-0.65
265.82,2.22,2.86,2.22,2.87,-2.86,-3.12,-3.87,-0.65,-0.65,-0.65
268.48,2.19,2.84,2.19,2.84,-2.84,-3.14,-3.83,-0.65,-0.65,-0.65
271.16,2.18,2.83,2.17,2.82,-2.83,-3.16,-3.77,-0.65,-0.66,-0.65
273.87,2.17,2.82,2.17,2.83,-2.84,-3.18,-3.72,-0.67,-0.67,-0.66
276.61,2.19,2.84,2.19,2.85,-2.86,-3.20,-3.66,-0.67,-0.67,-0.65
279.38,2.24,2.89,2.23,2.89,-2.90,-3.23,-3.60,-0.67,-0.67,-0.65
282.17,2.30,2.95,2.30,2.95,-2.96,-3.26,-3.53,-0.67,-0.67,-0.66
284.99,2.38,3.03,2.38,3.03,-3.04,-3.30,-3.47,-0.66,-0.66,-0.65
287.84,2.48,3.13,2.48,3.13,-3.13,-3.33,-3.40,-0.65,-0.65,-0.65
290.72,2.59,3.23,2.58,3.23,-3.23,-3.37,-3.33,-0.64,-0.64,-0.64
293.63,2.70,3.34,2.69,3.34,-3.33,-3.42,-3.26,-0.63,-0.64,-0.65
296.57,2.80,3.44,2.80,3.44,-3.44,-3.46,-3.19,-0.64,-0.64,-0.64
299.53,2.91,3.55,2.91,3.55,-3.55,-3.51,-3.12,-0.64,-0.64,-0.64
302.53,3.02,3.65,3.01,3.65,-3.65,-3.56,-3.05,-0.64,-0.64,-0.63
305.55,3.12,3.74,3.12,3.75,-3.75,-3.60,-2.98,-0.64,-0.63,-0.63
308.61,3.22,3.84,3.22,3.84,-3.84,-3.64,-2.91,-0.63,-0.62,-0.62
311.69,3.31,3.92,3.31,3.92,-3.92,-3.68,-2.83,-0.61,-0.61,-0.61
314.81,3.39,3.99,3.38,3.99,-3.98,-3.72,-2.76,-0.59,-0.60,-0.60
317.96,3.44,4.03,3.44,4.03,-4.02,-3.74,-2.69,-0.58,-0.58,-0.59
321.14,3.47,4.05,3.47,4.06,-4.04,-3.76,-2.63,-0.57,-0.57,-0.59
324.35,3.48,4.06,3.47,4.05,-4.03,-3.76,-2.56,-0.55,-0.56,-0.58
327.59,3.44,4.01,3.44,4.01,-3.99,-3.75,-2.49,-0.56,-0.55,-0.57
330.87,3.38,3.95,3.38,3.95,-3.93,-3.73,-2.43,-0.55,-0.55,-0.57
334.18,3.30,3.86,3.29,3.86,-3.85,-3.69,-2.36,-0.55,-0.55,-0.56
337.52,3.19,3.75,3.19,3.75,-3.74,-3.64,-2.30,-0.55,-0.55,-0.56
340.90,3.07,3.62,3.07,3.63,-3.62,-3.58,-2.24,-0.55,-0.55,-0.56
344.30,2.94,3.49,2.94,3.50,-3.50,-3.51,-2.18,-0.56,-0.56,-0.56
347.75,2.81,3.37,2.80,3.36,-3.38,-3.43,-2.12,-0.57,-0.58,-0.56
351.23,2.68,3.24,2.67,3.24,-3.26,-3.33,-2.07,-0.59,-0.59,-0.56
354.74,2.55,3.11,2.56,3.13,-3.16,-3.24,-2.01,-0.61,-0.59,-0.56
358.28,2.48,3.05,2.47,3.04,-3.06,-3.14,-1.96,-0.59,-0.59,-0.57
361.87,2.41,2.98,2.40,2.97,-2.98,-3.03,-1.91,-0.57,-0.58,-0.57
365.49,2.34,2.91,2.34,2.92,-2.91,-2.93,-1.86,-0.57,-0.57,-0.57
369.14,2.28,2.85,2.28,2.85,-2.84,-2.82,-1.81,-0.57,-0.57,-0.58
372.83,2.22,2.79,2.22,2.79,-2.79,-2.72,-1.76,-0.57,-0.57,-0.58
376.56,2.17,2.74,2.16,2.74,-2.73,-2.62,-1.72,-0.56,-0.57,-0.57
380.33,2.11,2.68,2.11,2.68,-2.68,-2.52,-1.67,-0.57,-0.57,-0.57
384.13,2.06,2.63,2.05,2.62,-2.62,-2.42,-1.63,-0.56,-0.57,-0.57
387.97,2.00,2.56,2.00,2.56,-2.56,-2.33,-1.59,-0.57,-0.56,-0.56
391.85,1.95,2.51,1.95,2.51,-2.50,-2.24,-1.55,-0.56,-0.56,-0.56
395.77,1.90,2.45,1.90,2.45,-2.45,-2.15,-1.51,-0.55,-0.55,-0.55
399.73,1.85,2.39,1.85,2.39,-2.39,-2.07,-1.47,-0.54,-0.54,-0.54
403.72,1.79,2.33,1.79,2.33,-2.33,-1.99,-1.44,-0.54,-0.54,-0.54
407.76,1.74,2.27,1.74,2.27,-2.27,-1.91,-1.40,-0.53,-0.54,-0.53
411.84,1.68,2.20,1.68,2.21,-2.21,-1.84,-1.37,-0.54,-0.53,-0.52
415.96,1.64,2.15,1.63,2.15,-2.15,-1.77,-1.34,-0.52,-0.52,-0.52
420.12,1.59,2.10,1.58,2.10,-2.10,-1.70,-1.31,-0.51,-0.51,-0.52
424.32,1.53,2.03,1.53,2.04,-2.04,-1.64,-1.27,-0.51,-0.51,-0.51
428.56,1.48,1.97,1.47,1.97,-1.98,-1.57,-1.24,-0.50,-0.50,-0.50
432.85,1.42,1.91,1.42,1.91,-1.92,-1.51,-1.22,-0.50,-0.49,-0.49
437.18,1.37,1.85,1.37,1.85,-1.85,-1.45,-1.19,-0.48,-0.48,-0.48
441.55,1.32,1.79,1.32,1.78,-1.77,-1.39,-1.16,-0.45,-0.46,-0.47
445.96,1.26,1.72,1.25,1.71,-1.69,-1.34,-1.13,-0.43,-0.44,-0.46
450.42,1.17,1.62,1.17,1.62,-1.60,-1.28,-1.11,-0.44,-0.44,-0.45
454.93,1.07,1.51,1.07,1.51,-1.51,-1.22,-1.08,-0.44,-0.44,-0.44
459.48,0.98,1.41,0.98,1.41,-1.41,-1.17,-1.06,-0.44,-0.44,-0.43
464.07,0.89,1.31,0.89,1.31,-1.31,-1.12,-1.03,-0.43,-0.43,-0.42
468.71,0.80,1.21,0.80,1.21,-1.21,-1.07,-1.01,-0.41,-0.42,-0.41
473.40,0.71,1.11,0.71,1.11,-1.11,-1.01,-0.98,-0.40,-0.40,-0.40
478.13,0.62,1.01,0.62,1.01,-1.01,-0.96,-0.96,-0.39,-0.39,-0.39
482.91,0.54,0.91,0.54,0.91,-0.91,-0.91,-0.93,-0.38,-0.38,-0.37
487.74,0.46,0.82,0.46,0.82,-0.82,-0.86,-0.91,-0.36,-0.36,-0.36
492.62,0.39,0.73,0.39,0.73,-0.73,-0.80,-0.89,-0.34,-0.34,-0.34
497.55,0.32,0.65,0.32,0.65,-0.64,-0.75,-0.87,-0.33,-0.33,-0.33
502.52,0.25,0.56,0.25,0.56,-0.56,-0.69,-0.84,-0.31,-0.31,-0.31
507.55,0.18,0.47,0.18,0.48,-0.48,-0.64,-0.82,-0.30,-0.30,-0.29
512.62,0.12,0.39,0.12,0.40,-0.40,-0.58,-0.80,-0.28,-0.28,-0.27
