frequency,raw,error,smoothed,error_smoothed,equalization,parametric_eq,fixed_band_eq,equalized_raw,equalized_smoothed,target
20.00,18.36,6.89,18.36,6.89,-6.89,-6.38,-3.02,11.47,11.47,11.47
20.20,18.35,6.91,18.34,6.90,-6.90,-6.38,-3.11,11.44,11.44,11.44
20.40,18.34,6.92,18.33,6.91,-6.91,-6.38,-3.19,11.42,11.42,11.42
20.61,18.32,6.92,18.32,6.92,-6.92,-6.38,-3.29,11.39,11.40,11.40
20.81,18.31,6.93,18.31,6.93,-6.93,-6.38,-3.38,11.37,11.37,11.38
21.02,18.30,6.94,18.29,6.94,-6.94,-6.38,-3.47,11.36,11.35,11.36
21.23,18.29,6.95,18.28,6.95,-6.95,-6.38,-3.57,11.34,11.34,11.34
21.44,18.27,6.95,18.27,6.95,-6.95,-6.38,-3.67,11.31,11.32,11.32
21.66,18.26,6.96,18.26,6.96,-6.96,-6.38,-3.77,11.30,11.30,11.30
21.87,18.25,6.96,18.24,6.96,-6.96,-6.38,-3.88,11.29,11.28,11.28
22.09,18.23,6.96,18.23,6.96,-6.96,-6.38,-3.99,11.26,11.27,11.26
22.31,18.22,6.96,18.22,6.96,-6.96,-6.38,-4.10,11.25,11.25,11.25
22.54,18.21,6.96,18.20,6.96,-6.96,-6.38,-4.22,11.24,11.24,11.24
22.76,18.19,6.95,18.19,6.96,-6.96,-6.38,-4.33,11.23,11.23,11.23
22.99,18.18,6.95,18.18,6.95,-6.96,-6.38,-4.45,11.22,11.22,11.22
23.22,18.17,6.96,18.16,6.95,-6.95,-6.38,-4.58,11.22,11.21,11.21
23.45,18.15,6.95,18.15,6.95,-6.95,-6.38,-4.70,11.20,11.20,11.20
23.69,18.14,6.95,18.13,6.94,-6.94,-6.38,-4.84,11.20,11.19,11.19
23.92,18.12,6.93,18.12,6.93,-6.94,-6.38,-4.97,11.18,11.18,11.19
24.16,18.11,6.93,18.11,6.93,-6.93,-6.38,-5.10,11.18,11.18,11.18
24.40,18.10,6.92,18.10,6.92,-6.92,-6.38,-5.24,11.17,11.17,11.18
24.65,18.09,6.92,18.09,6.92,-6.92,-6.38,-5.38,11.17,11.17,11.17
24.89,18.08,6.91,18.07,6.91,-6.91,-6.38,-5.52,11.16,11.16,11.16
25.14,18.06,6.90,18.06,6.90,-6.90,-6.38,-5.66,11.15,11.16,11.15
25.39,18.05,6.90,18.04,6.90,-6.90,-6.38,-5.80,11.15,11.15,11.14
25.65,18.03,6.88,18.03,6.89,-6.89,-6.38,-5.95,11.14,11.14,11.14
25.91,18.02,6.89,18.01,6.88,-6.88,-6.38,-6.10,11.14,11.14,11.13
26.16,18.00,6.87,18.00,6.87,-6.87,-6.38,-6.24,11.13,11.13,11.13
26.43,17.98,6.85,17.98,6.85,-6.86,-6.38,-6.39,11.12,11.12,11.13
26.69,17.97,6.85,17.96,6.84,-6.85,-6.38,-6.53,11.12,11.12,11.12
26.96,17.95,6.83,17.95,6.83,-6.84,-6.38,-6.68,11.11,11.11,11.12
27.23,17.94,6.83,17.93,6.83,-6.83,-6.38,-6.82,11.11,11.11,11.11
27.50,17.92,6.81,17.92,6.82,-6.82,-6.38,-6.96,11.10,11.10,11.10
27.77,17.91,6.80,17.91,6.81,-6.81,-6.38,-7.09,11.10,11.10,11.10
28.05,17.90,6.81,17.89,6.80,-6.80,-6.38,-7.22,11.10,11.09,11.09
28.33,17.88,6.79,17.88,6.79,-6.79,-6.38,-7.34,11.09,11.09,11.09
28.62,17.87,6.78,17.86,6.78,-6.78,-6.38,-7.46,11.09,11.09,11.09
28.90,17.85,6.77,17.85,6.77,-6.77,-6.38,-7.57,11.08,11.08,11.08
29.19,17.84,6.76,17.83,6.76,-6.76,-6.38,-7.67,11.08,11.08,11.07
29.48,17.82,6.74,17.82,6.74,-6.74,-6.38,-7.76,11.07,11.07,11.07
29.78,17.80,6.73,17.80,6.73,-6.73,-6.38,-7.85,11.06,11.07,11.07
30.08,17.79,6.72,17.78,6.72,-6.72,-6.38,-7.92,11.07,11.06,11.07
30.38,17.77,6.71,17.77,6.71,-6.71,-6.38,-7.99,11.06,11.06,11.06
30.68,17.76,6.70,17.75,6.70,-6.70,-6.38,-8.03,11.06,11.06,11.06
30.99,17.74,6.68,17.74,6.69,-6.69,-6.38,-8.08,11.05,11.05,11.05
31.30,17.73,6.68,17.73,6.68,-6.68,-6.38,-8.10,11.05,11.05,11.05
31.61,17.72,6.68,17.71,6.67,-6.67,-6.38,-8.12,11.04,11.04,11.04
31.93,17.70,6.66,17.70,6.66,-6.66,-6.38,-8.12,11.03,11.04,11.04
32.24,17.69,6.65,17.69,6.66,-6.66,-6.37,-8.11,11.03,11.03,11.03
32.57,17.68,6.65,17.67,6.65,-6.65,-6.37,-8.09,11.03,11.02,11.02
32.89,17.66,6.64,17.66,6.64,-6.64,-6.37,-8.06,11.02,11.02,11.02
33.22,17.65,6.63,17.64,6.63,-6.63,-6.37,-8.02,11.02,11.02,11.02
33.55,17.63,6.62,17.63,6.62,-6.62,-6.37,-7.97,11.01,11.01,11.00
33.89,17.61,6.61,17.60,6.60,-6.60,-6.37,-7.91,11.00,11.00,11.00
34.23,17.58,6.58,17.58,6.59,-6.59,-6.37,-7.84,10.99,10.99,11.00
34.57,17.56,6.57,17.56,6.57,-6.57,-6.36,-7.77,10.99,10.99,10.98
34.92,17.54,6.56,17.53,6.55,-6.55,-6.36,-7.69,10.98,10.98,10.98
35.27,17.51,6.53,17.51,6.54,-6.53,-6.36,-7.61,10.97,10.98,10.98
35.62,17.49,6.52,17.48,6.52,-6.52,-6.36,-7.52,10.97,10.97,10.96
35.97,17.46,6.50,17.46,6.50,-6.50,-6.35,-7.43,10.96,10.96,10.96
36.33,17.44,6.48,17.44,6.48,-6.48,-6.35,-7.34,10.95,10.95,10.96
36.70,17.42,6.46,17.42,6.47,-6.47,-6.35,-7.25,10.95,10.95,10.95
37.06,17.41,6.46,17.40,6.46,-6.46,-6.35,-7.15,10.95,10.95,10.95
37.43,17.39,6.45,17.38,6.45,-6.45,-6.34,-7.06,10.94,10.94,10.93
37.81,17.37,6.44,17.37,6.44,-6.44,-6.34,-6.97,10.93,10.93,10.93
38.19,17.35,6.42,17.35,6.43,-6.43,-6.34,-6.87,10.92,10.92,10.93
38.57,17.34,6.42,17.33,6.42,-6.42,-6.33,-6.78,10.92,10.91,10.91
38.95,17.32,6.41,17.32,6.41,-6.41,-6.33,-6.70,10.91,10.91,10.91
39.34,17.30,6.40,17.30,6.40,-6.40,-6.32,-6.61,10.90,10.90,10.89
39.74,17.28,6.39,17.27,6.39,-6.39,-6.32,-6.53,10.89,10.89,10.89
40.14,17.25,6.38,17.25,6.38,-6.37,-6.31,-6.45,10.87,10.88,10.87
40.54,17.23,6.36,17.22,6.36,-6.36,-6.31,-6.37,10.87,10.87,10.87
40.94,17.20,6.34,17.20,6.34,-6.34,-6.30,-6.30,10.86,10.86,10.86
41.35,17.18,6.32,17.17,6.32,-6.32,-6.30,-6.23,10.86,10.85,10.85
41.76,17.15,6.30,17.15,6.30,-6.30,-6.29,-6.17,10.85,10.85,10.85
42.18,17.12,6.28,17.12,6.28,-6.28,-6.28,-6.11,10.84,10.84,10.84
42.60,17.10,6.26,17.10,6.26,-6.26,-6.28,-6.05,10.83,10.83,10.83
43.03,17.08,6.24,17.08,6.24,-6.25,-6.27,-6.00,10.83,10.83,10.84
43.46,17.06,6.23,17.06,6.23,-6.23,-6.26,-5.95,10.83,10.83,10.83
43.90,17.04,6.21,17.04,6.21,-6.22,-6.25,-5.91,10.82,10.82,10.82
44.33,17.02,6.20,17.02,6.20,-6.20,-6.24,-5.87,10.82,10.82,10.81
44.78,17.00,6.19,17.00,6.19,-6.19,-6.23,-5.83,10.81,10.81,10.81
45.23,16.98,6.18,16.97,6.18,-6.17,-6.22,-5.80,10.81,10.80,10.80
45.68,16.95,6.16,16.95,6.16,-6.15,-6.21,-5.78,10.79,10.79,10.79
46.13,16.92,6.14,16.92,6.14,-6.14,-6.20,-5.76,10.78,10.78,10.78
46.60,16.89,6.12,16.89,6.12,-6.12,-6.19,-5.74,10.77,10.77,10.77
47.06,16.86,6.09,16.86,6.10,-6.10,-6.18,-5.73,10.75,10.75,10.76
47.53,16.83,6.08,16.83,6.08,-6.08,-6.17,-5.72,10.74,10.74,10.74
48.01,16.80,6.07,16.80,6.07,-6.07,-6.15,-5.71,10.73,10.73,10.73
48.49,16.78,6.06,16.77,6.05,-6.05,-6.14,-5.71,10.72,10.72,10.72
48.97,16.75,6.04,16.75,6.04,-6.04,-6.12,-5.71,10.71,10.71,10.71
49.46,16.73,6.03,16.72,6.03,-6.03,-6.11,-5.72,10.70,10.70,10.70
49.96,16.70,6.01,16.70,6.01,-6.01,-6.09,-5.73,10.69,10.69,10.69
50.46,16.68,6.00,16.67,6.00,-5.99,-6.08,-5.74,10.68,10.68,10.67
50.96,16.65,5.98,16.65,5.98,-5.97,-6.06,-5.75,10.67,10.67,10.66
51.47,16.62,5.96,16.61,5.96,-5.96,-6.04,-5.77,10.66,10.66,10.66
51.99,16.58,5.93,16.58,5.93,-5.93,-6.02,-5.79,10.64,10.64,10.64
52.51,16.54,5.91,16.54,5.91,-5.91,-6.00,-5.81,10.62,10.63,10.63
53.03,16.51,5.89,16.51,5.89,-5.89,-5.98,-5.83,10.61,10.61,10.62
53.56,16.48,5.87,16.48,5.87,-5.87,-5.96,-5.86,10.60,10.60,10.60
54.10,16.45,5.85,16.45,5.85,-5.86,-5.94,-5.88,10.59,10.59,10.60
54.64,16.42,5.84,16.42,5.84,-5.84,-5.92,-5.91,10.58,10.58,10.58
55.18,16.39,5.82,16.39,5.82,-5.82,-5.90,-5.93,10.56,10.56,10.56
55.74,16.36,5.81,16.36,5.81,-5.81,-5.88,-5.95,10.55,10.55,10.55
56.29,16.34,5.80,16.33,5.80,-5.79,-5.86,-5.98,10.54,10.54,10.54
56.86,16.31,5.79,16.30,5.78,-5.78,-5.84,-6.00,10.53,10.52,10.52
57.42,16.27,5.76,16.27,5.76,-5.76,-5.82,-6.02,10.50,10.51,10.50
58.00,16.24,5.74,16.24,5.75,-5.75,-5.80,-6.04,10.49,10.49,10.49
58.58,16.21,5.73,16.20,5.73,-5.73,-5.78,-6.05,10.48,10.47,10.47
59.16,16.17,5.71,16.17,5.71,-5.72,-5.76,-6.06,10.45,10.46,10.45
59.76,16.14,5.69,16.14,5.70,-5.70,-5.74,-6.07,10.44,10.44,10.44
60.35,16.11,5.69,16.10,5.68,-5.69,-5.72,-6.08,10.42,10.42,10.42
60.96,16.07,5.67,16.07,5.67,-5.67,-5.71,-6.08,10.39,10.40,10.40
61.57,16.04,5.66,16.04,5.66,-5.66,-5.69,-6.07,10.37,10.38,10.37
62.18,16.01,5.66,16.00,5.65,-5.65,-5.68,-6.07,10.36,10.35,10.35
62.80,15.97,5.64,15.97,5.64,-5.64,-5.67,-6.05,10.33,10.33,10.33
63.43,15.93,5.63,15.93,5.63,-5.63,-5.66,-6.04,10.30,10.30,10.30
64.07,15.90,5.62,15.89,5.62,-5.62,-5.65,-6.02,10.28,10.28,10.27
64.71,15.86,5.61,15.86,5.61,-5.61,-5.64,-5.99,10.25,10.25,10.25
65.35,15.82,5.60,15.81,5.59,-5.59,-5.63,-5.97,10.22,10.22,10.22
66.01,15.77,5.57,15.77,5.58,-5.58,-5.62,-5.93,10.19,10.19,10.19
66.67,15.73,5.56,15.73,5.56,-5.57,-5.62,-5.90,10.16,10.16,10.16
67.33,15.69,5.55,15.69,5.55,-5.55,-5.61,-5.86,10.14,10.14,10.13
68.01,15.65,5.54,15.64,5.54,-5.54,-5.61,-5.82,10.11,10.11,10.10
68.69,15.60,5.52,15.60,5.52,-5.52,-5.60,-5.78,10.08,10.08,10.07
69.37,15.55,5.51,15.55,5.51,-5.50,-5.60,-5.73,10.04,10.04,10.04
70.07,15.50,5.49,15.50,5.49,-5.49,-5.60,-5.68,10.01,10.00,10.01
70.77,15.45,5.47,15.45,5.47,-5.48,-5.59,-5.63,9.97,9.97,9.97
71.48,15.41,5.46,15.41,5.46,-5.47,-5.59,-5.58,9.94,9.94,9.95
72.19,15.37,5.45,15.37,5.45,-5.45,-5.58,-5.54,9.91,9.91,9.91
72.91,15.33,5.45,15.33,5.45,-5.44,-5.58,-5.49,9.88,9.88,9.88
73.64,15.29,5.44,15.28,5.44,-5.44,-5.57,-5.44,9.85,9.85,9.84
74.38,15.25,5.43,15.24,5.43,-5.43,-5.57,-5.39,9.81,9.81,9.81
75.12,15.20,5.42,15.20,5.42,-5.43,-5.56,-5.34,9.77,9.78,9.78
75.87,15.17,5.42,15.16,5.42,-5.42,-5.55,-5.29,9.74,9.74,9.75
76.63,15.13,5.42,15.12,5.42,-5.42,-5.54,-5.25,9.71,9.70,9.71
77.40,15.09,5.42,15.09,5.42,-5.42,-5.54,-5.21,9.67,9.67,9.66
78.17,15.05,5.41,15.05,5.42,-5.41,-5.53,-5.17,9.63,9.63,9.63
78.95,15.01,5.42,15.01,5.42,-5.41,-5.52,-5.13,9.59,9.60,9.59
79.74,14.97,5.42,14.96,5.41,-5.41,-5.51,-5.10,9.55,9.55,9.55
80.54,14.92,5.40,14.92,5.41,-5.41,-5.49,-5.06,9.50,9.51,9.51
81.35,14.87,5.40,14.87,5.40,-5.41,-5.48,-5.04,9.46,9.46,9.47
82.16,14.83,5.40,14.83,5.40,-5.41,-5.47,-5.01,9.42,9.42,9.42
82.98,14.79,5.41,14.79,5.41,-5.41,-5.46,-4.99,9.38,9.38,9.38
83.81,14.75,5.42,14.75,5.42,-5.40,-5.44,-4.97,9.34,9.34,9.33
84.65,14.71,5.42,14.70,5.41,-5.40,-5.43,-4.95,9.30,9.30,9.29
85.50,14.65,5.40,14.65,5.40,-5.40,-5.41,-4.94,9.25,9.24,9.24
86.35,14.59,5.39,14.59,5.39,-5.40,-5.40,-4.93,9.19,9.19,9.19
87.22,14.53,5.38,14.53,5.39,-5.40,-5.38,-4.93,9.13,9.13,9.14
88.09,14.49,5.39,14.48,5.39,-5.40,-5.36,-4.93,9.09,9.09,9.09
88.97,14.44,5.39,14.44,5.40,-5.39,-5.35,-4.93,9.04,9.04,9.04
89.86,14.40,5.41,14.39,5.40,-5.39,-5.33,-4.94,9.00,9.00,8.99
90.76,14.34,5.40,14.34,5.40,-5.40,-5.31,-4.95,8.94,8.94,8.94
91.66,14.29,5.40,14.29,5.40,-5.40,-5.29,-4.96,8.88,8.88,8.89
92.58,14.24,5.40,14.23,5.40,-5.41,-5.27,-4.98,8.83,8.83,8.83
93.51,14.18,5.40,14.18,5.40,-5.41,-5.26,-5.00,8.77,8.77,8.78
94.44,14.14,5.41,14.13,5.41,-5.41,-5.24,-5.03,8.73,8.73,8.72
95.39,14.09,5.42,14.09,5.42,-5.41,-5.22,-5.05,8.68,8.68,8.67
96.34,14.05,5.43,14.04,5.42,-5.41,-5.20,-5.09,8.64,8.63,8.62
97.30,13.99,5.42,13.98,5.42,-5.41,-5.18,-5.12,8.58,8.57,8.57
98.28,13.92,5.40,13.92,5.41,-5.41,-5.17,-5.16,8.50,8.51,8.52
99.26,13.87,5.41,13.87,5.41,-5.42,-5.15,-5.19,8.45,8.45,8.46
100.25,13.82,5.41,13.81,5.41,-5.42,-5.13,-5.24,8.39,8.39,8.40
101.25,13.77,5.42,13.77,5.42,-5.43,-5.11,-5.28,8.34,8.34,8.35
102.27,13.72,5.42,13.72,5.43,-5.43,-5.10,-5.33,8.28,8.29,8.29
103.29,13.69,5.45,13.68,5.44,-5.44,-5.08,-5.37,8.25,8.25,8.24
104.32,13.65,5.46,13.64,5.45,-5.44,-5.07,-5.42,8.20,8.19,8.19
105.37,13.59,5.45,13.59,5.46,-5.45,-5.05,-5.47,8.14,8.14,8.13
106.42,13.53,5.45,13.53,5.45,-5.45,-5.04,-5.52,8.08,8.08,8.08
107.48,13.48,5.45,13.47,5.45,-5.45,-5.02,-5.57,8.03,8.02,8.03
108.56,13.42,5.44,13.42,5.44,-5.44,-5.01,-5.62,7.97,7.97,7.97
109.64,13.36,5.44,13.36,5.44,-5.44,-4.99,-5.67,7.92,7.92,7.92
110.74,13.30,5.43,13.30,5.43,-5.43,-4.98,-5.71,7.86,7.87,7.86
111.85,13.24,5.43,13.24,5.43,-5.43,-4.97,-5.76,7.81,7.81,7.81
112.97,13.18,5.42,13.17,5.41,-5.42,-4.96,-5.80,7.76,7.75,7.76
114.10,13.11,5.40,13.11,5.41,-5.41,-4.95,-5.84,7.70,7.70,7.71
115.24,13.05,5.40,13.05,5.40,-5.40,-4.94,-5.87,7.64,7.65,7.65
116.39,13.01,5.41,13.00,5.40,-5.40,-4.93,-5.90,7.61,7.60,7.60
117.55,12.95,5.39,12.94,5.39,-5.39,-4.92,-5.92,7.56,7.55,7.55
118.73,12.88,5.38,12.88,5.38,-5.38,-4.91,-5.94,7.50,7.50,7.50
119.92,12.82,5.37,12.81,5.37,-5.37,-4.90,-5.96,7.44,7.44,7.45
121.12,12.75,5.35,12.76,5.36,-5.36,-4.90,-5.97,7.38,7.40,7.39
122.33,12.71,5.36,12.70,5.36,-5.35,-4.89,-5.97,7.36,7.35,7.35
123.55,12.66,5.36,12.64,5.34,-5.34,-4.89,-5.96,7.32,7.30,7.30
124.79,12.58,5.32,12.58,5.33,-5.33,-4.88,-5.95,7.25,7.25,7.26
126.03,12.51,5.30,12.52,5.31,-5.32,-4.88,-5.94,7.19,7.20,7.21
127.29,12.47,5.30,12.46,5.30,-5.30,-4.88,-5.91,7.16,7.16,7.17
128.57,12.42,5.30,12.41,5.29,-5.29,-4.87,-5.88,7.12,7.11,7.12
129.85,12.35,5.28,12.35,5.28,-5.28,-4.87,-5.84,7.07,7.07,7.07
131.15,12.29,5.27,12.29,5.27,-5.27,-4.87,-5.80,7.02,7.03,7.02
132.46,12.25,5.26,12.23,5.25,-5.26,-4.87,-5.74,6.99,6.98,6.98
133.79,12.18,5.24,12.18,5.24,-5.24,-4.87,-5.69,6.93,6.93,6.94
135.12,12.11,5.22,12.12,5.23,-5.23,-4.87,-5.63,6.88,6.89,6.89
136.48,12.07,5.22,12.05,5.21,-5.21,-4.87,-5.56,6.86,6.85,6.85
137.84,11.99,5.18,12.00,5.20,-5.18,-4.86,-5.49,6.80,6.82,6.80
139.22,11.94,5.18,11.92,5.17,-5.16,-4.86,-5.42,6.78,6.77,6.76
140.61,11.86,5.14,11.85,5.13,-5.13,-4.86,-5.34,6.73,6.72,6.71
142.02,11.75,5.06,11.77,5.09,-5.10,-4.86,-5.26,6.65,6.67,6.68
143.44,11.71,5.06,11.70,5.06,-5.07,-4.86,-5.18,6.64,6.63,6.64
144.87,11.64,5.03,11.63,5.03,-5.03,-4.86,-5.10,6.60,6.60,6.60
146.32,11.58,5.00,11.57,5.01,-5.00,-4.86,-5.01,6.57,6.57,6.57
147.78,11.50,4.96,11.50,4.97,-4.97,-4.85,-4.93,6.53,6.53,6.53
149.26,11.44,4.94,11.43,4.93,-4.93,-4.85,-4.84,6.50,6.50,6.49
150.75,11.36,4.89,11.36,4.90,-4.90,-4.84,-4.76,6.46,6.47,6.47
152.26,11.31,4.87,11.30,4.87,-4.86,-4.84,-4.67,6.45,6.44,6.43
153.78,11.23,4.83,11.22,4.82,-4.82,-4.83,-4.59,6.40,6.40,6.40
155.32,11.16,4.78,11.15,4.79,-4.79,-4.82,-4.51,6.37,6.37,6.37
156.88,11.07,4.73,11.08,4.74,-4.75,-4.81,-4.43,6.32,6.33,6.34
158.44,11.02,4.71,11.01,4.70,-4.71,-4.80,-4.35,6.30,6.29,6.30
160.03,10.94,4.66,10.94,4.67,-4.68,-4.78,-4.27,6.26,6.27,6.27
161.63,10.88,4.64,10.88,4.64,-4.64,-4.77,-4.20,6.24,6.24,6.24
163.24,10.83,4.61,10.82,4.60,-4.60,-4.75,-4.12,6.23,6.22,6.22
164.88,10.75,4.56,10.76,4.57,-4.55,-4.73,-4.05,6.19,6.20,6.19
166.53,10.69,4.53,10.68,4.52,-4.51,-4.71,-3.98,6.18,6.17,6.16
168.19,10.62,4.48,10.60,4.46,-4.46,-4.68,-3.92,6.15,6.14,6.13
169.87,10.51,4.39,10.52,4.41,-4.41,-4.66,-3.85,6.09,6.11,6.11
171.57,10.44,4.35,10.44,4.35,-4.36,-4.63,-3.79,6.07,6.08,6.09
173.29,10.38,4.31,10.36,4.30,-4.31,-4.60,-3.74,6.07,6.05,6.06
175.02,10.29,4.25,10.29,4.25,-4.26,-4.57,-3.68,6.03,6.03,6.04
176.77,10.22,4.19,10.22,4.20,-4.21,-4.53,-3.63,6.01,6.02,6.02
178.54,10.16,4.16,10.16,4.16,-4.15,-4.49,-3.58,6.00,6.00,6.00
180.32,10.10,4.12,10.09,4.12,-4.10,-4.45,-3.53,5.99,5.99,5.97
182.13,10.03,4.07,10.02,4.06,-4.05,-4.41,-3.49,5.97,5.96,5.95
183.95,9.93,4.00,9.93,4.00,-4.00,-4.36,-3.45,5.92,5.93,5.93
185.79,9.85,3.94,9.85,3.94,-3.95,-4.32,-3.41,5.89,5.90,5.91
187.65,9.78,3.89,9.78,3.89,-3.90,-4.27,-3.37,5.87,5.87,5.89
189.52,9.72,3.85,9.71,3.85,-3.85,-4.21,-3.34,5.86,5.86,5.87
191.42,9.66,3.81,9.65,3.80,-3.81,-4.16,-3.31,5.85,5.85,5.85
193.33,9.59,3.76,9.59,3.76,-3.76,-4.10,-3.28,5.83,5.83,5.83
195.27,9.53,3.72,9.52,3.71,-3.70,-4.04,-3.26,5.82,5.82,5.81
197.22,9.46,3.66,9.46,3.66,-3.65,-3.98,-3.23,5.80,5.80,5.79
199.19,9.39,3.61,9.39,3.61,-3.60,-3.92,-3.21,5.78,5.79,5.78
201.18,9.32,3.55,9.31,3.55,-3.55,-3.86,-3.19,5.77,5.77,5.77
203.19,9.24,3.48,9.24,3.48,-3.49,-3.79,-3.17,5.75,5.75,5.75
205.23,9.17,3.42,9.17,3.42,-3.43,-3.72,-3.15,5.74,5.74,5.75
207.28,9.10,3.36,9.10,3.37,-3.37,-3.66,-3.14,5.73,5.73,5.73
209.35,9.04,3.32,9.03,3.31,-3.31,-3.58,-3.12,5.73,5.72,5.72
211.44,8.97,3.25,8.96,3.25,-3.25,-3.51,-3.10,5.71,5.71,5.71
213.56,8.90,3.20,8.89,3.19,-3.20,-3.44,-3.09,5.70,5.70,5.70
215.69,8.82,3.13,8.82,3.13,-3.14,-3.37,-3.08,5.68,5.68,5.69
217.85,8.76,3.08,8.76,3.08,-3.08,-3.29,-3.06,5.67,5.68,5.67
220.03,8.71,3.03,8.70,3.03,-3.03,-3.22,-3.05,5.68,5.67,5.67
222.23,8.65,2.99,8.64,2.98,-2.97,-3.14,-3.03,5.68,5.67,5.66
224.45,8.56,2.91,8.56,2.91,-2.91,-3.07,-3.02,5.64,5.65,5.65
226.70,8.49,2.85,8.49,2.85,-2.85,-2.99,-3.00,5.63,5.64,5.64
228.96,8.42,2.78,8.42,2.79,-2.79,-2.91,-2.98,5.62,5.63,5.64
231.25,8.37,2.74,8.36,2.73,-2.73,-2.83,-2.96,5.63,5.63,5.63
233.57,8.31,2.69,8.30,2.68,-2.67,-2.76,-2.94,5.63,5.62,5.62
235.90,8.22,2.60,8.23,2.62,-2.61,-2.68,-2.91,5.60,5.62,5.62
238.26,8.17,2.56,8.16,2.55,-2.55,-2.60,-2.89,5.61,5.61,5.61
240.64,8.10,2.49,8.10,2.49,-2.49,-2.52,-2.86,5.60,5.61,5.61
243.05,8.05,2.44,8.04,2.43,-2.43,-2.44,-2.82,5.62,5.61,5.61
245.48,7.99,2.38,7.98,2.37,-2.37,-2.36,-2.79,5.62,5.61,5.61
247.93,7.91,2.30,7.92,2.31,-2.31,-2.29,-2.75,5.60,5.61,5.60
250.41,7.86,2.25,7.85,2.25,-2.25,-2.21,-2.71,5.60,5.60,5.61
252.92,7.80,2.19,7.80,2.19,-2.20,-2.13,-2.66,5.60,5.60,5.61
255.45,7.75,2.14,7.75,2.14,-2.14,-2.05,-2.61,5.61,5.61,5.61
258.00,7.70,2.09,7.69,2.09,-2.09,-1.98,-2.56,5.61,5.61,5.60
260.58,7.64,2.03,7.64,2.04,-2.03,-1.90,-2.51,5.60,5.61,5.61
263.19,7.59,1.99,7.58,1.98,-1.98,-1.82,-2.45,5.60,5.60,5.60
265.82,7.53,1.93,7.53,1.93,-1.93,-1.75,-2.39,5.59,5.60,5.59
268.48,7.48,1.88,7.47,1.88,-1.88,-1.67,-2.33,5.59,5.59,5.60
271.16,7.43,1.83,7.42,1.83,-1.83,-1.60,-2.26,5.59,5.59,5.59
273.87,7.36,1.77,7.37,1.78,-1.78,-1.53,-2.19,5.58,5.59,5.59
276.61,7.32,1.73,7.32,1.73,-1.73,-1.45,-2.12,5.59,5.59,5.59
279.38,7.28,1.69,7.27,1.68,-1.67,-1.38,-2.05,5.60,5.60,5.59
282.17,7.23,1.64,7.22,1.63,-1.62,-1.31,-1.97,5.60,5.60,5.59
284.99,7.16,1.57,7.15,1.57,-1.57,-1.23,-1.89,5.59,5.58,5.59
287.84,7.08,1.50,7.09,1.51,-1.52,-1.16,-1.81,5.56,5.57,5.58
290.72,7.03,1.45,7.03,1.45,-1.46,-1.09,-1.73,5.56,5.57,5.58
293.63,6.99,1.41,6.98,1.41,-1.41,-1.02,-1.65,5.58,5.57,5.57
296.57,6.93,1.36,6.93,1.36,-1.35,-0.95,-1.57,5.57,5.58,5.57
299.53,6.88,1.30,6.87,1.31,-1.30,-0.88,-1.48,5.58,5.58,5.57
302.53,6.82,1.25,6.82,1.25,-1.24,-0.81,-1.40,5.57,5.57,5.57
305.55,6.76,1.19,6.76,1.19,-1.19,-0.75,-1.31,5.57,5.57,5.57
308.61,6.70,1.12,6.70,1.13,-1.13,-0.68,-1.23,5.56,5.56,5.57
311.69,6.64,1.07,6.64,1.07,-1.07,-0.61,-1.14,5.56,5.57,5.57
314.81,6.59,1.01,6.58,1.01,-1.01,-0.55,-1.06,5.58,5.57,5.57
317.96,6.53,0.95,6.53,0.95,-0.95,-0.48,-0.97,5.58,5.58,5.57
321.14,6.47,0.89,6.46,0.88,-0.88,-0.41,-0.88,5.58,5.58,5.58
324.35,6.39,0.81,6.39,0.82,-0.82,-0.35,-0.80,5.57,5.57,5.58
327.59,6.32,0.74,6.33,0.75,-0.75,-0.28,-0.71,5.57,5.58,5.57
330.87,6.27,0.69,6.26,0.68,-0.68,-0.22,-0.62,5.59,5.58,5.58
334.18,6.20,0.61,6.19,0.61,-0.61,-0.16,-0.53,5.59,5.59,5.59
337.52,6.12,0.53,6.12,0.53,-0.53,-0.09,-0.45,5.58,5.59,5.58
340.90,6.05,0.45,6.04,0.45,-0.46,-0.03,-0.36,5.59,5.58,5.59
344.30,5.97,0.38,5.97,0.38,-0.38,0.03,-0.27,5.58,5.58,5.59
347.75,5.90,0.31,5.90,0.31,-0.31,0.09,-0.19,5.59,5.59,5.59
351.23,5.83,0.24,5.82,0.24,-0.23,0.15,-0.10,5.59,5.59,5.58
354.74,5.76,0.16,5.75,0.16,-0.15,0.21,-0.01,5.60,5.59,5.59
358.28,5.66,0.07,5.67,0.08,-0.08,0.28,0.07,5.58,5.59,5.59
361.87,5.59,-0.00,5.58,-0.00,-0.00,0.34,0.16,5.59,5.58,5.59
365.49,5.51,-0.08,5.51,-0.08,0.08,0.40,0.25,5.58,5.58,5.59
369.14,5.44,-0.15,5.44,-0.15,0.15,0.45,0.33,5.59,5.59,5.58
372.83,5.37,-0.22,5.36,-0.23,0.23,0.51,0.42,5.59,5.59,5.58
376.56,5.28,-0.31,5.28,-0.30,0.30,0.57,0.51,5.58,5.58,5.59
380.33,5.21,-0.38,5.21,-0.38,0.37,0.63,0.59,5.58,5.58,5.59
384.13,5.15,-0.44,5.14,-0.45,0.44,0.69,0.68,5.59,5.58,5.59
387.97,5.08,-0.51,5.07,-0.51,0.51,0.75,0.77,5.59,5.59,5.59
391.85,5.01,-0.59,5.01,-0.58,0.59,0.81,0.85,5.59,5.59,5.59
395.77,4.94,-0.66,4.94,-0.65,0.66,0.86,0.94,5.59,5.60,5.59
399.73,4.88,-0.73,4.87,-0.73,0.73,0.92,1.02,5.61,5.60,5.60
403.72,4.81,-0.79,4.80,-0.80,0.80,0.98,1.11,5.61,5.60,5.60
407.76,4.72,-0.89,4.73,-0.88,0.88,1.04,1.20,5.60,5.61,5.61
411.84,4.65,-0.96,4.65,-0.96,0.96,1.09,1.28,5.61,5.61,5.61
415.96,4.59,-1.03,4.58,-1.04,1.04,1.15,1.36,5.62,5.61,5.62
420.12,4.51,-1.11,4.50,-1.11,1.12,1.21,1.45,5.62,5.62,5.62
424.32,4.42,-1.20,4.42,-1.19,1.19,1.26,1.53,5.61,5.62,5.61
428.56,4.35,-1.28,4.34,-1.28,1.27,1.32,1.61,5.62,5.61,5.62
432.85,4.27,-1.36,4.27,-1.36,1.35,1.37,1.69,5.62,5.62,5.62
437.18,4.19,-1.43,4.20,-1.42,1.43,1.43,1.77,5.61,5.62,5.62
441.55,4.14,-1.48,4.12,-1.50,1.50,1.49,1.85,5.64,5.62,5.62
445.96,4.06,-1.56,4.05,-1.57,1.57,1.54,1.93,5.63,5.62,5.62
450.42,3.97,-1.65,3.98,-1.64,1.64,1.60,2.00,5.61,5.62,5.62
454.93,3.90,-1.72,3.90,-1.72,1.71,1.65,2.08,5.60,5.61,5.62
459.48,3.85,-1.77,3.84,-1.78,1.77,1.71,2.15,5.62,5.61,5.62
464.07,3.78,-1.84,3.78,-1.84,1.84,1.76,2.22,5.62,5.62,5.62
468.71,3.72,-1.90,3.71,-1.90,1.91,1.82,2.28,5.62,5.62,5.61
473.40,3.64,-1.98,3.65,-1.97,1.97,1.88,2.35,5.61,5.62,5.61
478.13,3.59,-2.04,3.58,-2.04,2.04,1.93,2.41,5.62,5.62,5.62
