frequency,raw,error,smoothed,error_smoothed,equalization,parametric_eq,fixed_band_eq,equalized_raw,equalized_smoothed,target
20.00,1.79,1.84,1.79,1.84,-1.84,-2.12,-1.19,-0.05,-0.05,-0.05
20.20,1.81,1.89,1.81,1.88,-1.88,-2.14,-1.23,-0.07,-0.07,-0.08
20.40,1.83,1.93,1.83,1.93,-1.93,-2.16,-1.27,-0.10,-0.10,-0.10
20.61,1.85,1.97,1.85,1.97,-1.97,-2.18,-1.31,-0.12,-0.12,-0.12
20.81,1.87,2.01,1.87,2.01,-2.01,-2.20,-1.35,-0.14,-0.14,-0.14
21.02,1.89,2.05,1.89,2.05,-2.05,-2.22,-1.39,-0.16,-0.16,-0.16
21.23,1.91,2.09,1.91,2.09,-2.09,-2.23,-1.43,-0.18,-0.18,-0.18
21.44,1.93,2.13,1.93,2.12,-2.12,-2.25,-1.48,-0.19,-0.20,-0.20
21.66,1.94,2.16,1.94,2.16,-2.16,-2.27,-1.52,-0.22,-0.21,-0.22
21.87,1.96,2.19,1.96,2.19,-2.19,-2.29,-1.57,-0.23,-0.23,-0.23
22.09,1.98,2.23,1.98,2.22,-2.22,-2.30,-1.62,-0.24,-0.24,-0.25
22.31,2.00,2.26,2.00,2.25,-2.25,-2.32,-1.67,-0.25,-0.26,-0.26
22.54,2.01,2.28,2.01,2.28,-2.28,-2.34,-1.72,-0.27,-0.27,-0.27
22.76,2.03,2.31,2.03,2.31,-2.31,-2.35,-1.77,-0.28,-0.28,-0.28
22.99,2.05,2.34,2.05,2.34,-2.34,-2.37,-1.83,-0.29,-0.29,-0.29
23.22,2.07,2.37,2.07,2.37,-2.36,-2.39,-1.88,-0.29,-0.29,-0.30
23.45,2.08,2.39,2.08,2.39,-2.39,-2.40,-1.94,-0.31,-0.30,-0.31
23.69,2.10,2.42,2.10,2.41,-2.41,-2.42,-2.00,-0.31,-0.31,-0.32
23.92,2.11,2.43,2.11,2.43,-2.44,-2.44,-2.05,-0.32,-0.32,-0.32
24.16,2.13,2.46,2.13,2.46,-2.46,-2.45,-2.11,-0.33,-0.33,-0.33
24.40,2.15,2.48,2.15,2.48,-2.48,-2.47,-2.17,-0.33,-0.33,-0.33
24.65,2.17,2.51,2.17,2.50,-2.50,-2.48,-2.24,-0.33,-0.33,-0.34
24.89,2.18,2.52,2.18,2.52,-2.52,-2.50,-2.30,-0.34,-0.34,-0.34
25.14,2.20,2.55,2.20,2.54,-2.54,-2.51,-2.36,-0.34,-0.34,-0.35
25.39,2.21,2.56,2.21,2.56,-2.56,-2.53,-2.42,-0.35,-0.35,-0.35
25.65,2.23,2.59,2.23,2.58,-2.58,-2.54,-2.49,-0.35,-0.35,-0.36
25.91,2.24,2.60,2.24,2.60,-2.60,-2.56,-2.55,-0.36,-0.36,-0.36
26.16,2.26,2.63,2.26,2.62,-2.62,-2.57,-2.61,-0.36,-0.36,-0.37
26.43,2.27,2.64,2.27,2.64,-2.64,-2.59,-2.68,-0.37,-0.37,-0.37
26.69,2.28,2.66,2.28,2.66,-2.66,-2.60,-2.74,-0.38,-0.37,-0.38
26.96,2.30,2.68,2.30,2.67,-2.68,-2.62,-2.80,-0.38,-0.38,-0.38
27.23,2.31,2.69,2.31,2.69,-2.69,-2.63,-2.86,-0.38,-0.38,-0.38
27.50,2.33,2.72,2.33,2.71,-2.71,-2.64,-2.92,-0.38,-0.38,-0.39
27.77,2.34,2.73,2.34,2.73,-2.73,-2.66,-2.98,-0.39,-0.39,-0.39
28.05,2.35,2.75,2.35,2.74,-2.75,-2.67,-3.04,-0.39,-0.39,-0.40
28.33,2.36,2.76,2.36,2.76,-2.76,-2.68,-3.09,-0.40,-0.40,-0.40
28.62,2.37,2.77,2.37,2.78,-2.77,-2.69,-3.14,-0.40,-0.40,-0.40
28.90,2.39,2.80,2.39,2.79,-2.79,-2.71,-3.19,-0.40,-0.40,-0.41
29.19,2.40,2.81,2.40,2.80,-2.80,-2.72,-3.23,-0.40,-0.40,-0.41
29.48,2.40,2.81,2.41,2.81,-2.81,-2.73,-3.27,-0.41,-0.41,-0.41
29.78,2.41,2.82,2.41,2.82,-2.82,-2.74,-3.31,-0.41,-0.41,-0.41
30.08,2.42,2.83,2.42,2.83,-2.83,-2.75,-3.34,-0.41,-0.41,-0.41
30.38,2.43,2.84,2.43,2.84,-2.84,-2.76,-3.37,-0.41,-0.41,-0.41
30.68,2.44,2.86,2.44,2.85,-2.85,-2.77,-3.40,-0.41,-0.41,-0.42
30.99,2.45,2.87,2.45,2.86,-2.86,-2.78,-3.42,-0.41,-0.41,-0.42
31.30,2.45,2.87,2.45,2.87,-2.87,-2.79,-3.43,-0.42,-0.42,-0.42
31.61,2.46,2.88,2.46,2.88,-2.88,-2.80,-3.44,-0.42,-0.42,-0.42
31.93,2.46,2.89,2.46,2.88,-2.89,-2.81,-3.45,-0.43,-0.43,-0.43
32.24,2.46,2.89,2.46,2.89,-2.89,-2.82,-3.45,-0.43,-0.43,-0.43
32.57,2.47,2.91,2.47,2.90,-2.90,-2.83,-3.45,-0.43,-0.43,-0.44
32.89,2.47,2.91,2.47,2.91,-2.91,-2.84,-3.44,-0.44,-0.44,-0.44
33.22,2.47,2.91,2.47,2.91,-2.91,-2.85,-3.43,-0.44,-0.44,-0.44
33.55,2.48,2.92,2.48,2.92,-2.92,-2.86,-3.42,-0.44,-0.44,-0.44
33.89,2.48,2.93,2.48,2.92,-2.92,-2.87,-3.40,-0.44,-0.44,-0.45
34.23,2.48,2.93,2.48,2.93,-2.93,-2.87,-3.38,-0.45,-0.45,-0.45
34.57,2.48,2.94,2.48,2.94,-2.93,-2.88,-3.36,-0.45,-0.45,-0.46
34.92,2.48,2.94,2.48,2.94,-2.94,-2.89,-3.33,-0.46,-0.46,-0.46
35.27,2.48,2.94,2.48,2.94,-2.94,-2.89,-3.30,-0.46,-0.46,-0.46
35.62,2.48,2.94,2.48,2.94,-2.94,-2.90,-3.27,-0.46,-0.46,-0.46
35.97,2.48,2.95,2.48,2.94,-2.94,-2.91,-3.24,-0.46,-0.46,-0.47
36.33,2.47,2.94,2.47,2.94,-2.94,-2.91,-3.21,-0.47,-0.46,-0.47
36.70,2.47,2.94,2.47,2.93,-2.94,-2.92,-3.18,-0.47,-0.47,-0.47
37.06,2.46,2.93,2.46,2.93,-2.94,-2.92,-3.14,-0.47,-0.47,-0.47
37.43,2.46,2.93,2.46,2.93,-2.94,-2.93,-3.11,-0.48,-0.48,-0.47
37.81,2.46,2.94,2.46,2.93,-2.94,-2.93,-3.08,-0.48,-0.48,-0.48
38.19,2.46,2.94,2.46,2.94,-2.94,-2.94,-3.04,-0.48,-0.48,-0.48
38.57,2.46,2.95,2.46,2.95,-2.94,-2.94,-3.01,-0.48,-0.48,-0.49
38.95,2.46,2.95,2.46,2.95,-2.95,-2.94,-2.98,-0.49,-0.49,-0.49
39.34,2.46,2.96,2.46,2.95,-2.95,-2.95,-2.95,-0.49,-0.49,-0.50
39.74,2.46,2.96,2.46,2.96,-2.96,-2.95,-2.92,-0.50,-0.50,-0.50
40.14,2.46,2.96,2.46,2.96,-2.96,-2.95,-2.89,-0.50,-0.50,-0.50
40.54,2.46,2.97,2.46,2.96,-2.96,-2.95,-2.86,-0.50,-0.50,-0.51
40.94,2.46,2.97,2.46,2.97,-2.96,-2.96,-2.83,-0.50,-0.50,-0.51
41.35,2.46,2.97,2.46,2.97,-2.96,-2.96,-2.81,-0.50,-0.50,-0.51
41.76,2.46,2.97,2.46,2.96,-2.96,-2.96,-2.79,-0.50,-0.50,-0.51
42.18,2.46,2.96,2.46,2.96,-2.96,-2.96,-2.77,-0.50,-0.50,-0.50
42.60,2.46,2.96,2.46,2.96,-2.96,-2.96,-2.75,-0.50,-0.50,-0.50
43.03,2.46,2.96,2.46,2.96,-2.96,-2.96,-2.73,-0.50,-0.50,-0.50
43.46,2.46,2.96,2.46,2.96,-2.95,-2.96,-2.72,-0.49,-0.49,-0.50
43.90,2.46,2.96,2.46,2.95,-2.95,-2.96,-2.71,-0.49,-0.49,-0.50
44.33,2.46,2.95,2.46,2.95,-2.95,-2.96,-2.70,-0.49,-0.49,-0.49
44.78,2.46,2.95,2.46,2.95,-2.95,-2.96,-2.69,-0.49,-0.49,-0.49
45.23,2.46,2.95,2.46,2.95,-2.95,-2.96,-2.68,-0.49,-0.49,-0.49
45.68,2.46,2.95,2.46,2.95,-2.95,-2.95,-2.68,-0.49,-0.49,-0.49
46.13,2.46,2.95,2.46,2.95,-2.95,-2.95,-2.68,-0.49,-0.49,-0.49
46.60,2.46,2.96,2.46,2.95,-2.95,-2.95,-2.68,-0.49,-0.49,-0.50
47.06,2.46,2.96,2.46,2.96,-2.96,-2.95,-2.68,-0.50,-0.50,-0.50
47.53,2.46,2.96,2.46,2.96,-2.96,-2.94,-2.68,-0.50,-0.50,-0.50
48.01,2.46,2.96,2.46,2.96,-2.96,-2.94,-2.69,-0.50,-0.50,-0.50
48.49,2.46,2.97,2.46,2.96,-2.96,-2.94,-2.69,-0.50,-0.50,-0.51
48.97,2.46,2.97,2.46,2.97,-2.96,-2.93,-2.70,-0.50,-0.50,-0.51
49.46,2.46,2.97,2.46,2.97,-2.97,-2.93,-2.71,-0.51,-0.51,-0.51
49.96,2.46,2.97,2.46,2.96,-2.97,-2.92,-2.73,-0.51,-0.51,-0.51
50.46,2.46,2.96,2.46,2.96,-2.97,-2.92,-2.74,-0.51,-0.51,-0.50
50.96,2.47,2.97,2.47,2.97,-2.97,-2.91,-2.75,-0.50,-0.50,-0.50
51.47,2.47,2.97,2.47,2.97,-2.97,-2.91,-2.77,-0.50,-0.50,-0.50
51.99,2.48,2.98,2.48,2.97,-2.97,-2.90,-2.79,-0.49,-0.49,-0.50
52.51,2.48,2.97,2.48,2.97,-2.97,-2.89,-2.80,-0.49,-0.49,-0.49
53.03,2.48,2.97,2.48,2.97,-2.97,-2.89,-2.82,-0.49,-0.49,-0.49
53.56,2.47,2.96,2.47,2.96,-2.96,-2.88,-2.84,-0.49,-0.49,-0.49
54.10,2.47,2.96,2.47,2.96,-2.96,-2.87,-2.86,-0.48,-0.49,-0.49
54.64,2.46,2.95,2.46,2.95,-2.95,-2.87,-2.87,-0.49,-0.48,-0.49
55.18,2.46,2.94,2.46,2.94,-2.94,-2.86,-2.89,-0.48,-0.48,-0.48
55.74,2.45,2.93,2.45,2.92,-2.92,-2.85,-2.91,-0.47,-0.48,-0.48
56.29,2.43,2.91,2.44,2.91,-2.91,-2.84,-2.92,-0.48,-0.47,-0.48
56.86,2.42,2.89,2.42,2.89,-2.89,-2.83,-2.93,-0.47,-0.47,-0.47
57.42,2.41,2.88,2.41,2.88,-2.87,-2.82,-2.95,-0.46,-0.47,-0.47
58.00,2.39,2.86,2.39,2.86,-2.85,-2.81,-2.96,-0.46,-0.46,-0.47
58.58,2.37,2.84,2.37,2.84,-2.83,-2.80,-2.97,-0.46,-0.46,-0.47
59.16,2.35,2.81,2.35,2.81,-2.81,-2.79,-2.97,-0.46,-0.46,-0.46
59.76,2.33,2.79,2.33,2.79,-2.79,-2.78,-2.98,-0.46,-0.46,-0.46
60.35,2.31,2.77,2.31,2.76,-2.76,-2.77,-2.98,-0.45,-0.45,-0.46
60.96,2.29,2.74,2.29,2.74,-2.74,-2.76,-2.98,-0.45,-0.45,-0.45
61.57,2.27,2.72,2.27,2.72,-2.72,-2.75,-2.97,-0.45,-0.45,-0.45
62.18,2.25,2.70,2.25,2.70,-2.70,-2.74,-2.97,-0.45,-0.45,-0.45
62.80,2.23,2.68,2.23,2.68,-2.68,-2.73,-2.96,-0.45,-0.45,-0.45
63.43,2.21,2.66,2.21,2.66,-2.66,-2.71,-2.95,-0.45,-0.45,-0.45
64.07,2.20,2.65,2.20,2.65,-2.65,-2.70,-2.93,-0.45,-0.45,-0.45
64.71,2.19,2.64,2.19,2.64,-2.64,-2.69,-2.91,-0.45,-0.45,-0.45
65.35,2.18,2.63,2.18,2.63,-2.62,-2.68,-2.89,-0.44,-0.44,-0.45
66.01,2.17,2.62,2.17,2.61,-2.61,-2.66,-2.87,-0.44,-0.44,-0.45
66.67,2.15,2.60,2.15,2.60,-2.60,-2.65,-2.84,-0.45,-0.45,-0.45
67.33,2.13,2.58,2.14,2.58,-2.58,-2.64,-2.81,-0.45,-0.45,-0.45
68.01,2.12,2.57,2.12,2.57,-2.57,-2.62,-2.78,-0.45,-0.45,-0.45
68.69,2.11,2.56,2.11,2.55,-2.56,-2.61,-2.75,-0.45,-0.45,-0.45
69.37,2.09,2.54,2.09,2.54,-2.54,-2.59,-2.72,-0.45,-0.45,-0.45
70.07,2.08,2.53,2.08,2.53,-2.52,-2.58,-2.68,-0.44,-0.45,-0.45
70.77,2.06,2.51,2.06,2.51,-2.51,-2.56,-2.65,-0.45,-0.45,-0.45
71.48,2.05,2.50,2.05,2.49,-2.49,-2.55,-2.61,-0.44,-0.45,-0.45
72.19,2.03,2.47,2.03,2.47,-2.48,-2.53,-2.57,-0.44,-0.44,-0.44
72.91,2.01,2.45,2.01,2.45,-2.46,-2.52,-2.53,-0.44,-0.44,-0.44
73.64,2.00,2.44,2.00,2.43,-2.43,-2.50,-2.49,-0.43,-0.43,-0.44
74.38,1.98,2.41,1.98,2.41,-2.41,-2.48,-2.46,-0.43,-0.42,-0.43
75.12,1.96,2.39,1.96,2.39,-2.38,-2.47,-2.42,-0.42,-0.42,-0.43
75.87,1.93,2.36,1.93,2.35,-2.34,-2.45,-2.38,-0.41,-0.42,-0.43
76.63,1.89,2.31,1.89,2.31,-2.31,-2.43,-2.34,-0.42,-0.42,-0.42
77.40,1.85,2.27,1.85,2.27,-2.27,-2.42,-2.30,-0.42,-0.41,-0.42
78.17,1.82,2.23,1.82,2.23,-2.23,-2.40,-2.26,-0.41,-0.41,-0.41
78.95,1.78,2.19,1.78,2.19,-2.19,-2.38,-2.23,-0.41,-0.41,-0.41
79.74,1.74,2.15,1.74,2.15,-2.15,-2.36,-2.19,-0.41,-0.41,-0.41
80.54,1.71,2.11,1.71,2.11,-2.11,-2.35,-2.16,-0.40,-0.40,-0.40
81.35,1.68,2.08,1.68,2.08,-2.08,-2.33,-2.12,-0.40,-0.40,-0.40
82.16,1.65,2.05,1.65,2.05,-2.05,-2.31,-2.09,-0.40,-0.40,-0.40
82.98,1.62,2.02,1.62,2.02,-2.02,-2.29,-2.06,-0.40,-0.40,-0.40
83.81,1.60,2.00,1.60,2.00,-1.99,-2.27,-2.03,-0.39,-0.39,-0.40
84.65,1.58,1.98,1.58,1.97,-1.97,-2.25,-2.00,-0.39,-0.39,-0.40
85.50,1.56,1.95,1.56,1.95,-1.94,-2.23,-1.98,-0.38,-0.38,-0.39
86.35,1.53,1.92,1.53,1.92,-1.92,-2.21,-1.95,-0.39,-0.38,-0.39
87.22,1.51,1.90,1.51,1.90,-1.90,-2.19,-1.93,-0.39,-0.39,-0.39
88.09,1.49,1.88,1.49,1.88,-1.88,-2.18,-1.91,-0.39,-0.39,-0.39
88.97,1.47,1.86,1.47,1.86,-1.87,-2.16,-1.88,-0.40,-0.39,-0.39
89.86,1.46,1.85,1.46,1.85,-1.86,-2.14,-1.87,-0.40,-0.40,-0.39
90.76,1.46,1.85,1.46,1.85,-1.85,-2.12,-1.85,-0.39,-0.39,-0.39
91.66,1.46,1.85,1.46,1.85,-1.85,-2.10,-1.83,-0.39,-0.39,-0.39
92.58,1.47,1.86,1.47,1.86,-1.85,-2.07,-1.82,-0.38,-0.38,-0.39
93.51,1.48,1.87,1.48,1.86,-1.86,-2.05,-1.80,-0.38,-0.38,-0.39
94.44,1.48,1.87,1.48,1.87,-1.86,-2.03,-1.79,-0.38,-0.38,-0.39
95.39,1.48,1.87,1.48,1.87,-1.86,-2.01,-1.78,-0.38,-0.38,-0.39
96.34,1.48,1.87,1.48,1.86,-1.86,-1.99,-1.77,-0.38,-0.38,-0.39
97.30,1.48,1.86,1.48,1.86,-1.86,-1.97,-1.76,-0.38,-0.38,-0.38
98.28,1.48,1.86,1.48,1.86,-1.86,-1.95,-1.75,-0.38,-0.38,-0.38
99.26,1.48,1.86,1.48,1.86,-1.86,-1.93,-1.74,-0.38,-0.38,-0.38
100.25,1.48,1.86,1.48,1.86,-1.86,-1.91,-1.74,-0.38,-0.38,-0.38
101.25,1.48,1.86,1.48,1.86,-1.86,-1.89,-1.73,-0.38,-0.38,-0.38
102.27,1.48,1.86,1.48,1.86,-1.86,-1.86,-1.73,-0.38,-0.38,-0.38
103.29,1.49,1.87,1.49,1.86,-1.87,-1.84,-1.73,-0.38,-0.38,-0.38
104.32,1.49,1.86,1.49,1.87,-1.87,-1.82,-1.72,-0.38,-0.37,-0.37
105.37,1.50,1.87,1.50,1.87,-1.87,-1.80,-1.72,-0.37,-0.37,-0.37
106.42,1.51,1.88,1.51,1.87,-1.87,-1.78,-1.72,-0.36,-0.36,-0.37
107.48,1.51,1.87,1.51,1.87,-1.86,-1.75,-1.72,-0.35,-0.35,-0.36
108.56,1.49,1.85,1.50,1.86,-1.85,-1.73,-1.72,-0.35,-0.35,-0.36
109.64,1.48,1.84,1.48,1.83,-1.83,-1.71,-1.72,-0.35,-0.35,-0.36
110.74,1.46,1.82,1.45,1.81,-1.80,-1.69,-1.71,-0.34,-0.35,-0.36
111.85,1.42,1.77,1.43,1.78,-1.78,-1.67,-1.71,-0.36,-0.35,-0.35
112.97,1.39,1.74,1.39,1.74,-1.75,-1.64,-1.71,-0.35,-0.35,-0.35
114.10,1.36,1.71,1.36,1.70,-1.71,-1.62,-1.70,-0.35,-0.35,-0.35
115.24,1.32,1.67,1.33,1.67,-1.67,-1.60,-1.70,-0.35,-0.34,-0.35
116.39,1.30,1.65,1.30,1.64,-1.63,-1.58,-1.70,-0.33,-0.34,-0.35
117.55,1.27,1.61,1.26,1.61,-1.60,-1.55,-1.69,-0.33,-0.33,-0.34
118.73,1.23,1.57,1.23,1.57,-1.57,-1.53,-1.68,-0.34,-0.34,-0.34
119.92,1.19,1.53,1.20,1.53,-1.54,-1.51,-1.67,-0.35,-0.35,-0.34
121.12,1.17,1.50,1.17,1.50,-1.52,-1.49,-1.66,-0.35,-0.35,-0.33
122.33,1.16,1.49,1.16,1.49,-1.50,-1.46,-1.65,-0.34,-0.34,-0.33
123.55,1.16,1.48,1.16,1.48,-1.49,-1.44,-1.64,-0.33,-0.33,-0.32
124.79,1.16,1.48,1.16,1.48,-1.47,-1.42,-1.62,-0.31,-0.31,-0.32
126.03,1.16,1.48,1.16,1.47,-1.46,-1.39,-1.61,-0.30,-0.30,-0.32
127.29,1.15,1.46,1.15,1.46,-1.45,-1.37,-1.59,-0.30,-0.30,-0.31
128.57,1.14,1.45,1.14,1.44,-1.44,-1.35,-1.57,-0.29,-0.30,-0.31
129.85,1.12,1.42,1.12,1.42,-1.42,-1.33,-1.55,-0.30,-0.30,-0.30
131.15,1.09,1.39,1.10,1.39,-1.39,-1.30,-1.53,-0.30,-0.29,-0.30
132.46,1.07,1.37,1.07,1.36,-1.36,-1.28,-1.50,-0.29,-0.30,-0.30
133.79,1.04,1.34,1.03,1.33,-1.33,-1.26,-1.48,-0.29,-0.29,-0.30
135.12,0.99,1.29,1.00,1.30,-1.29,-1.23,-1.45,-0.30,-0.29,-0.30
136.48,0.97,1.27,0.96,1.26,-1.26,-1.21,-1.42,-0.29,-0.29,-0.30
137.84,0.93,1.22,0.93,1.22,-1.22,-1.19,-1.39,-0.29,-0.29,-0.29
139.22,0.90,1.19,0.90,1.19,-1.19,-1.17,-1.36,-0.29,-0.29,-0.29
140.61,0.88,1.17,0.87,1.16,-1.16,-1.14,-1.33,-0.28,-0.29,-0.29
142.02,0.84,1.13,0.85,1.13,-1.14,-1.12,-1.30,-0.30,-0.29,-0.29
143.44,0.83,1.12,0.83,1.11,-1.12,-1.10,-1.27,-0.29,-0.29,-0.29
144.87,0.81,1.09,0.81,1.09,-1.11,-1.07,-1.24,-0.29,-0.29,-0.28
146.32,0.81,1.09,0.81,1.09,-1.10,-1.05,-1.20,-0.29,-0.29,-0.28
147.78,0.82,1.10,0.82,1.09,-1.10,-1.03,-1.17,-0.28,-0.28,-0.28
149.26,0.83,1.10,0.83,1.10,-1.10,-1.01,-1.14,-0.27,-0.27,-0.27
150.75,0.84,1.11,0.84,1.11,-1.11,-0.98,-1.10,-0.27,-0.26,-0.27
152.26,0.85,1.12,0.85,1.11,-1.11,-0.96,-1.07,-0.26,-0.26,-0.27
153.78,0.86,1.12,0.86,1.12,-1.11,-0.94,-1.03,-0.25,-0.25,-0.26
155.32,0.86,1.12,0.86,1.12,-1.11,-0.92,-1.00,-0.25,-0.25,-0.26
156.88,0.85,1.11,0.85,1.10,-1.10,-0.89,-0.97,-0.25,-0.25,-0.26
158.44,0.84,1.09,0.84,1.09,-1.08,-0.87,-0.93,-0.24,-0.25,-0.25
160.03,0.81,1.06,0.82,1.06,-1.06,-0.85,-0.90,-0.25,-0.24,-0.25
161.63,0.79,1.04,0.79,1.04,-1.03,-0.83,-0.86,-0.24,-0.24,-0.25
163.24,0.76,1.01,0.76,1.00,-1.00,-0.80,-0.83,-0.24,-0.25,-0.25
164.88,0.72,0.97,0.72,0.97,-0.97,-0.78,-0.80,-0.25,-0.25,-0.25
166.53,0.69,0.93,0.69,0.93,-0.94,-0.76,-0.77,-0.25,-0.25,-0.24
168.19,0.66,0.90,0.66,0.90,-0.91,-0.74,-0.74,-0.24,-0.25,-0.24
169.87,0.63,0.87,0.64,0.87,-0.87,-0.71,-0.70,-0.24,-0.24,-0.24
171.57,0.61,0.84,0.61,0.84,-0.84,-0.69,-0.67,-0.23,-0.23,-0.23
173.29,0.59,0.82,0.58,0.81,-0.81,-0.67,-0.64,-0.21,-0.22,-0.23
175.02,0.55,0.78,0.55,0.78,-0.77,-0.65,-0.61,-0.22,-0.22,-0.23
176.77,0.52,0.75,0.52,0.75,-0.74,-0.62,-0.58,-0.22,-0.22,-0.23
178.54,0.49,0.71,0.49,0.71,-0.71,-0.60,-0.55,-0.22,-0.22,-0.22
180.32,0.46,0.68,0.46,0.68,-0.69,-0.58,-0.52,-0.22,-0.23,-0.22
182.13,0.43,0.65,0.43,0.65,-0.66,-0.56,-0.50,-0.23,-0.23,-0.22
183.95,0.40,0.62,0.41,0.63,-0.63,-0.54,-0.47,-0.23,-0.22,-0.22
185.79,0.38,0.61,0.38,0.60,-0.60,-0.51,-0.44,-0.22,-0.22,-0.23
187.65,0.36,0.59,0.35,0.58,-0.57,-0.49,-0.41,-0.21,-0.22,-0.23
189.52,0.32,0.55,0.32,0.55,-0.54,-0.47,-0.39,-0.22,-0.22,-0.23
191.42,0.29,0.52,0.29,0.52,-0.52,-0.45,-0.36,-0.22,-0.22,-0.23
193.33,0.26,0.48,0.26,0.48,-0.49,-0.43,-0.34,-0.23,-0.23,-0.22
195.27,0.24,0.46,0.24,0.46,-0.47,-0.40,-0.31,-0.22,-0.23,-0.22
197.22,0.22,0.44,0.22,0.43,-0.44,-0.38,-0.28,-0.22,-0.22,-0.22
199.19,0.20,0.42,0.20,0.42,-0.42,-0.36,-0.26,-0.22,-0.22,-0.22
201.18,0.19,0.40,0.19,0.40,-0.41,-0.34,-0.23,-0.21,-0.22,-0.21
203.19,0.18,0.39,0.18,0.39,-0.39,-0.32,-0.21,-0.21,-0.21,-0.21
205.23,0.17,0.38,0.17,0.37,-0.37,-0.30,-0.19,-0.20,-0.20,-0.21
207.28,0.16,0.36,0.16,0.36,-0.35,-0.27,-0.16,-0.19,-0.19,-0.20
209.35,0.14,0.34,0.14,0.34,-0.33,-0.25,-0.14,-0.19,-0.18,-0.20
211.44,0.12,0.32,0.11,0.31,-0.30,-0.23,-0.12,-0.18,-0.19,-0.20
213.56,0.08,0.27,0.08,0.27,-0.27,-0.21,-0.09,-0.19,-0.19,-0.19
215.69,0.04,0.23,0.05,0.23,-0.24,-0.19,-0.07,-0.20,-0.19,-0.19
217.85,0.01,0.20,0.01,0.20,-0.21,-0.17,-0.05,-0.20,-0.20,-0.19
220.03,-0.01,0.18,-0.01,0.17,-0.18,-0.15,-0.03,-0.19,-0.19,-0.19
222.23,-0.04,0.14,-0.04,0.14,-0.14,-0.12,-0.01,-0.18,-0.18,-0.18
224.45,-0.06,0.12,-0.07,0.11,-0.11,-0.10,0.01,-0.17,-0.18,-0.18
226.70,-0.10,0.08,-0.09,0.08,-0.08,-0.08,0.03,-0.18,-0.17,-0.18
228.96,-0.12,0.06,-0.12,0.06,-0.05,-0.06,0.05,-0.17,-0.17,-0.18
231.25,-0.14,0.03,-0.15,0.02,-0.02,-0.04,0.08,-0.16,-0.17,-0.17
233.57,-0.17,-0.00,-0.17,-0.01,0.01,-0.02,0.09,-0.16,-0.17,-0.17
235.90,-0.21,-0.05,-0.20,-0.04,0.04,0.00,0.11,-0.17,-0.16,-0.16
238.26,-0.23,-0.07,-0.23,-0.07,0.07,0.02,0.13,-0.16,-0.16,-0.16
240.64,-0.25,-0.10,-0.25,-0.10,0.11,0.05,0.15,-0.14,-0.14,-0.15
243.05,-0.27,-0.13,-0.27,-0.13,0.14,0.07,0.17,-0.13,-0.13,-0.14
245.48,-0.30,-0.16,-0.31,-0.17,0.18,0.09,0.19,-0.12,-0.13,-0.14
247.93,-0.35,-0.22,-0.34,-0.21,0.21,0.11,0.21,-0.14,-0.13,-0.13
250.41,-0.37,-0.25,-0.37,-0.25,0.25,0.13,0.23,-0.12,-0.13,-0.12
252.92,-0.40,-0.29,-0.40,-0.29,0.28,0.15,0.24,-0.12,-0.12,-0.11
255.45,-0.42,-0.31,-0.42,-0.31,0.30,0.17,0.26,-0.11,-0.11,-0.11
258.00,-0.43,-0.33,-0.43,-0.33,0.33,0.19,0.28,-0.10,-0.10,-0.10
260.58,-0.45,-0.35,-0.45,-0.35,0.35,0.21,0.29,-0.10,-0.09,-0.10
263.19,-0.46,-0.37,-0.46,-0.37,0.38,0.23,0.31,-0.08,-0.09,-0.09
265.82,-0.48,-0.39,-0.48,-0.39,0.40,0.25,0.33,-0.08,-0.08,-0.09
268.48,-0.50,-0.42,-0.50,-0.41,0.42,0.27,0.34,-0.08,-0.07,-0.08
271.16,-0.51,-0.43,-0.52,-0.44,0.45,0.30,0.36,-0.06,-0.07,-0.08
273.87,-0.55,-0.47,-0.54,-0.47,0.48,0.32,0.38,-0.07,-0.07,-0.08
276.61,-0.58,-0.51,-0.57,-0.50,0.51,0.34,0.39,-0.07,-0.07,-0.07
279.38,-0.60,-0.53,-0.61,-0.54,0.54,0.36,0.41,-0.06,-0.06,-0.07
282.17,-0.64,-0.57,-0.64,-0.57,0.58,0.38,0.43,-0.06,-0.06,-0.07
284.99,-0.67,-0.61,-0.67,-0.61,0.61,0.40,0.44,-0.06,-0.06,-0.06
287.84,-0.71,-0.65,-0.71,-0.65,0.65,0.42,0.46,-0.06,-0.06,-0.06
290.72,-0.74,-0.68,-0.74,-0.68,0.67,0.44,0.48,-0.07,-0.07,-0.06
293.63,-0.77,-0.71,-0.77,-0.71,0.70,0.46,0.50,-0.07,-0.07,-0.06
296.57,-0.78,-0.72,-0.78,-0.72,0.71,0.48,0.52,-0.06,-0.07,-0.06
299.53,-0.79,-0.73,-0.79,-0.73,0.73,0.50,0.53,-0.06,-0.06,-0.06
302.53,-0.79,-0.74,-0.79,-0.74,0.74,0.52,0.55,-0.05,-0.05,-0.05
305.55,-0.79,-0.74,-0.79,-0.74,0.74,0.54,0.57,-0.05,-0.04,-0.05
308.61,-0.78,-0.74,-0.79,-0.75,0.75,0.56,0.59,-0.03,-0.03,-0.04
311.69,-0.79,-0.75,-0.79,-0.75,0.76,0.58,0.61,-0.03,-0.03,-0.04
314.81,-0.80,-0.77,-0.80,-0.77,0.78,0.60,0.63,-0.02,-0.02,-0.03
317.96,-0.81,-0.78,-0.81,-0.79,0.80,0.62,0.65,-0.01,-0.02,-0.03
321.14,-0.84,-0.82,-0.84,-0.82,0.82,0.64,0.68,-0.02,-0.02,-0.02
324.35,-0.87,-0.85,-0.87,-0.85,0.86,0.66,0.70,-0.01,-0.02,-0.02
327.59,-0.91,-0.89,-0.91,-0.89,0.89,0.68,0.72,-0.02,-0.01,-0.02
330.87,-0.94,-0.93,-0.94,-0.93,0.93,0.70,0.75,-0.01,-0.01,-0.01
334.18,-0.97,-0.96,-0.97,-0.97,0.97,0.72,0.77,0.00,-0.00,-0.01
337.52,-1.01,-1.01,-1.01,-1.01,1.01,0.73,0.80,-0.00,0.00,0.00
340.90,-1.04,-1.05,-1.04,-1.05,1.05,0.75,0.82,0.01,0.01,0.01
344.30,-1.07,-1.08,-1.07,-1.08,1.08,0.77,0.85,0.01,0.01,0.01
347.75,-1.09,-1.10,-1.09,-1.11,1.10,0.79,0.88,0.01,0.01,0.01
351.23,-1.11,-1.12,-1.11,-1.13,1.12,0.81,0.90,0.01,0.01,0.01
354.74,-1.13,-1.15,-1.12,-1.14,1.14,0.83,0.93,0.01,0.01,0.02
358.28,-1.13,-1.15,-1.13,-1.15,1.14,0.85,0.96,0.02,0.01,0.02
361.87,-1.13,-1.15,-1.13,-1.15,1.15,0.87,0.99,0.02,0.02,0.02
365.49,-1.12,-1.14,-1.12,-1.14,1.15,0.88,1.03,0.03,0.03,0.02
369.14,-1.12,-1.14,-1.12,-1.14,1.15,0.90,1.06,0.03,0.03,0.02
372.83,-1.11,-1.13,-1.11,-1.14,1.14,0.92,1.09,0.04,0.03,0.02
376.56,-1.11,-1.14,-1.11,-1.14,1.14,0.94,1.12,0.03,0.03,0.03
380.33,-1.11,-1.14,-1.11,-1.14,1.14,0.96,1.16,0.03,0.03,0.03
384.13,-1.11,-1.14,-1.11,-1.14,1.13,0.97,1.19,0.03,0.03,0.03
387.97,-1.10,-1.13,-1.10,-1.14,1.13,0.99,1.23,0.03,0.03,0.03
391.85,-1.10,-1.14,-1.10,-1.14,1.14,1.01,1.26,0.04,0.04,0.04
395.77,-1.09,-1.13,-1.09,-1.14,1.14,1.03,1.30,0.05,0.05,0.04
399.73,-1.09,-1.14,-1.09,-1.14,1.15,1.04,1.34,0.06,0.05,0.05
403.72,-1.10,-1.15,-1.10,-1.15,1.16,1.06,1.37,0.06,0.06,0.05
407.76,-1.11,-1.17,-1.11,-1.17,1.17,1.07,1.41,0.06,0.07,0.06
411.84,-1.12,-1.18,-1.13,-1.19,1.20,1.09,1.45,0.08,0.07,0.06
415.96,-1.15,-1.22,-1.15,-1.22,1.22,1.11,1.48,0.07,0.07,0.07
420.12,-1.18,-1.25,-1.18,-1.25,1.25,1.12,1.52,0.07,0.08,0.07
424.32,-1.21,-1.28,-1.21,-1.29,1.28,1.14,1.55,0.08,0.08,0.07
428.56,-1.24,-1.32,-1.24,-1.32,1.32,1.15,1.59,0.08,0.08,0.08
432.85,-1.28,-1.36,-1.28,-1.36,1.36,1.17,1.62,0.08,0.08,0.08
437.18,-1.31,-1.39,-1.31,-1.39,1.39,1.18,1.65,0.08,0.09,0.08
441.55,-1.34,-1.42,-1.34,-1.42,1.43,1.20,1.69,0.09,0.09,0.08
445.96,-1.37,-1.45,-1.37,-1.46,1.46,1.21,1.72,0.09,0.09,0.08
450.42,-1.41,-1.49,-1.40,-1.49,1.49,1.23,1.74,0.08,0.08,0.08
454.93,-1.43,-1.51,-1.43,-1.51,1.51,1.24,1.77,0.08,0.08,0.08
459.48,-1.45,-1.53,-1.45,-1.53,1.52,1.25,1.80,0.07,0.07,0.08
464.07,-1.46,-1.54,-1.46,-1.54,1.53,1.27,1.82,0.07,0.07,0.08
468.71,-1.46,-1.54,-1.46,-1.54,1.54,1.28,1.84,0.08,0.08,0.08
