frequency,raw,error,smoothed,error_smoothed,equalization,parametric_eq,fixed_band_eq,equalized_raw,equalized_smoothed,target
20.00,2.99,-2.54,2.99,-2.54,2.54,2.01,0.89,5.53,5.53,5.53
20.20,2.97,-2.53,2.97,-2.54,2.54,2.00,0.92,5.51,5.51,5.50
20.40,2.95,-2.53,2.95,-2.53,2.54,2.00,0.94,5.49,5.48,5.48
20.61,2.93,-2.53,2.93,-2.53,2.53,2.00,0.97,5.46,5.46,5.46
20.81,2.92,-2.52,2.92,-2.52,2.52,2.00,1.00,5.44,5.44,5.44
21.02,2.91,-2.51,2.91,-2.51,2.51,1.99,1.03,5.42,5.42,5.42
21.23,2.90,-2.50,2.90,-2.50,2.50,1.99,1.06,5.40,5.40,5.40
21.44,2.90,-2.48,2.90,-2.48,2.48,1.99,1.09,5.38,5.38,5.38
21.66,2.90,-2.46,2.90,-2.46,2.46,1.99,1.13,5.36,5.36,5.36
21.87,2.90,-2.45,2.90,-2.44,2.45,1.98,1.16,5.35,5.35,5.35
22.09,2.91,-2.42,2.91,-2.42,2.42,1.98,1.20,5.33,5.33,5.33
22.31,2.92,-2.40,2.92,-2.40,2.40,1.98,1.23,5.32,5.32,5.32
22.54,2.93,-2.38,2.93,-2.37,2.37,1.97,1.27,5.30,5.31,5.31
22.76,2.95,-2.35,2.95,-2.35,2.34,1.97,1.31,5.29,5.29,5.30
22.99,2.97,-2.32,2.97,-2.32,2.31,1.97,1.35,5.28,5.28,5.29
23.22,2.99,-2.29,2.99,-2.28,2.28,1.96,1.39,5.27,5.27,5.28
23.45,3.02,-2.24,3.02,-2.25,2.25,1.96,1.43,5.27,5.27,5.26
23.69,3.05,-2.20,3.05,-2.21,2.21,1.96,1.47,5.26,5.26,5.25
23.92,3.08,-2.17,3.08,-2.17,2.17,1.95,1.51,5.25,5.25,5.25
24.16,3.11,-2.13,3.11,-2.13,2.13,1.95,1.55,5.24,5.24,5.24
24.40,3.14,-2.10,3.14,-2.10,2.10,1.95,1.60,5.24,5.24,5.24
24.65,3.17,-2.06,3.17,-2.06,2.06,1.94,1.64,5.23,5.23,5.23
24.89,3.20,-2.03,3.20,-2.03,2.02,1.94,1.68,5.22,5.22,5.23
25.14,3.22,-2.00,3.23,-1.99,1.99,1.94,1.73,5.21,5.22,5.22
25.39,3.25,-1.96,3.25,-1.96,1.97,1.93,1.77,5.22,5.21,5.21
25.65,3.27,-1.94,3.27,-1.94,1.94,1.93,1.82,5.21,5.21,5.21
25.91,3.28,-1.92,3.28,-1.92,1.93,1.92,1.86,5.21,5.21,5.20
26.16,3.29,-1.90,3.29,-1.91,1.91,1.92,1.91,5.20,5.20,5.19
26.43,3.29,-1.90,3.29,-1.90,1.91,1.92,1.95,5.20,5.19,5.19
26.69,3.28,-1.90,3.28,-1.90,1.90,1.91,1.99,5.18,5.18,5.18
26.96,3.27,-1.91,3.27,-1.91,1.90,1.91,2.04,5.17,5.17,5.18
27.23,3.26,-1.91,3.26,-1.91,1.90,1.90,2.08,5.16,5.17,5.17
27.50,3.26,-1.91,3.26,-1.91,1.90,1.90,2.12,5.16,5.16,5.17
27.77,3.26,-1.91,3.26,-1.90,1.90,1.89,2.16,5.16,5.16,5.17
28.05,3.26,-1.90,3.26,-1.90,1.90,1.89,2.19,5.16,5.16,5.16
28.33,3.26,-1.89,3.26,-1.89,1.90,1.88,2.23,5.16,5.16,5.15
28.62,3.26,-1.89,3.26,-1.89,1.89,1.88,2.26,5.15,5.15,5.15
28.90,3.26,-1.88,3.26,-1.88,1.89,1.87,2.29,5.15,5.15,5.14
29.19,3.26,-1.88,3.26,-1.88,1.88,1.87,2.32,5.14,5.14,5.14
29.48,3.26,-1.88,3.26,-1.88,1.88,1.86,2.34,5.14,5.14,5.14
29.78,3.26,-1.88,3.26,-1.88,1.87,1.86,2.36,5.13,5.13,5.14
30.08,3.26,-1.87,3.26,-1.87,1.87,1.85,2.38,5.13,5.13,5.13
30.38,3.26,-1.86,3.26,-1.87,1.87,1.85,2.39,5.13,5.13,5.12
30.68,3.26,-1.86,3.26,-1.86,1.86,1.84,2.40,5.12,5.12,5.12
30.99,3.26,-1.86,3.26,-1.86,1.86,1.83,2.41,5.12,5.12,5.12
31.30,3.26,-1.86,3.26,-1.85,1.85,1.83,2.41,5.11,5.11,5.12
31.61,3.26,-1.84,3.26,-1.85,1.85,1.82,2.41,5.11,5.11,5.10
31.93,3.26,-1.84,3.26,-1.84,1.84,1.82,2.41,5.10,5.10,5.10
32.24,3.26,-1.84,3.26,-1.83,1.84,1.81,2.40,5.10,5.10,5.10
32.57,3.26,-1.83,3.26,-1.83,1.83,1.80,2.39,5.09,5.09,5.09
32.89,3.26,-1.82,3.26,-1.82,1.82,1.80,2.38,5.08,5.08,5.08
33.22,3.26,-1.82,3.26,-1.82,1.82,1.79,2.36,5.08,5.08,5.08
33.55,3.26,-1.81,3.26,-1.81,1.81,1.78,2.34,5.07,5.07,5.07
33.89,3.26,-1.81,3.26,-1.81,1.80,1.78,2.32,5.06,5.06,5.07
34.23,3.26,-1.80,3.26,-1.80,1.80,1.77,2.29,5.06,5.06,5.06
34.57,3.26,-1.79,3.26,-1.79,1.80,1.76,2.26,5.06,5.06,5.05
34.92,3.26,-1.79,3.26,-1.79,1.80,1.75,2.23,5.06,5.05,5.05
35.27,3.25,-1.79,3.25,-1.79,1.79,1.75,2.20,5.04,5.04,5.04
35.62,3.24,-1.79,3.24,-1.79,1.79,1.74,2.16,5.03,5.03,5.03
35.97,3.24,-1.79,3.24,-1.79,1.78,1.73,2.13,5.02,5.02,5.03
36.33,3.24,-1.78,3.24,-1.78,1.77,1.72,2.09,5.01,5.01,5.02
36.70,3.25,-1.77,3.25,-1.76,1.76,1.71,2.05,5.01,5.01,5.02
37.06,3.27,-1.74,3.27,-1.74,1.74,1.71,2.02,5.01,5.01,5.01
37.43,3.29,-1.71,3.29,-1.71,1.71,1.70,1.98,5.00,5.00,5.00
37.81,3.31,-1.68,3.31,-1.68,1.68,1.69,1.94,4.99,5.00,4.99
38.19,3.34,-1.65,3.34,-1.65,1.65,1.68,1.90,4.99,4.99,4.99
38.57,3.37,-1.61,3.37,-1.61,1.61,1.67,1.86,4.98,4.98,4.98
38.95,3.40,-1.57,3.40,-1.57,1.57,1.66,1.82,4.97,4.97,4.97
39.34,3.43,-1.53,3.43,-1.53,1.53,1.65,1.78,4.96,4.96,4.96
39.74,3.46,-1.49,3.46,-1.49,1.49,1.64,1.75,4.95,4.95,4.95
40.14,3.49,-1.45,3.49,-1.45,1.45,1.63,1.71,4.94,4.94,4.94
40.54,3.52,-1.41,3.52,-1.41,1.41,1.62,1.67,4.93,4.93,4.93
40.94,3.55,-1.37,3.55,-1.37,1.38,1.61,1.64,4.93,4.93,4.92
41.35,3.57,-1.35,3.57,-1.35,1.35,1.60,1.60,4.92,4.92,4.92
41.76,3.59,-1.32,3.59,-1.32,1.33,1.59,1.57,4.92,4.92,4.91
42.18,3.60,-1.30,3.60,-1.30,1.31,1.58,1.53,4.91,4.91,4.90
42.60,3.61,-1.29,3.61,-1.29,1.30,1.57,1.50,4.91,4.91,4.90
43.03,3.61,-1.29,3.61,-1.29,1.29,1.55,1.47,4.90,4.90,4.90
43.46,3.60,-1.29,3.60,-1.29,1.29,1.54,1.44,4.89,4.89,4.89
43.90,3.60,-1.29,3.60,-1.29,1.28,1.53,1.41,4.88,4.88,4.89
44.33,3.59,-1.29,3.59,-1.29,1.28,1.52,1.39,4.87,4.87,4.88
44.78,3.59,-1.28,3.59,-1.28,1.28,1.50,1.36,4.87,4.87,4.87
45.23,3.59,-1.27,3.59,-1.27,1.27,1.49,1.33,4.86,4.86,4.86
45.68,3.59,-1.26,3.59,-1.26,1.26,1.48,1.31,4.85,4.85,4.85
46.13,3.59,-1.25,3.59,-1.26,1.25,1.46,1.29,4.84,4.84,4.84
46.60,3.59,-1.25,3.59,-1.25,1.24,1.45,1.27,4.83,4.83,4.84
47.06,3.59,-1.24,3.59,-1.23,1.23,1.44,1.24,4.82,4.82,4.83
47.53,3.59,-1.22,3.59,-1.22,1.22,1.42,1.22,4.81,4.81,4.81
48.01,3.59,-1.21,3.59,-1.21,1.21,1.41,1.21,4.80,4.80,4.80
48.49,3.59,-1.20,3.59,-1.19,1.20,1.39,1.19,4.79,4.79,4.79
48.97,3.59,-1.18,3.59,-1.18,1.18,1.38,1.17,4.77,4.77,4.77
49.46,3.59,-1.17,3.59,-1.17,1.17,1.36,1.15,4.76,4.76,4.76
49.96,3.59,-1.16,3.59,-1.16,1.16,1.35,1.14,4.75,4.75,4.75
50.46,3.59,-1.15,3.59,-1.15,1.15,1.33,1.13,4.74,4.74,4.74
50.96,3.59,-1.14,3.59,-1.14,1.14,1.31,1.11,4.73,4.73,4.73
51.47,3.59,-1.13,3.59,-1.13,1.13,1.30,1.10,4.72,4.72,4.72
51.99,3.59,-1.12,3.59,-1.12,1.12,1.28,1.08,4.71,4.71,4.71
52.51,3.59,-1.11,3.59,-1.11,1.10,1.26,1.07,4.69,4.69,4.70
53.03,3.59,-1.09,3.59,-1.09,1.09,1.24,1.06,4.68,4.68,4.68
53.56,3.59,-1.08,3.59,-1.08,1.08,1.22,1.05,4.67,4.67,4.67
54.10,3.59,-1.07,3.59,-1.07,1.07,1.20,1.04,4.66,4.66,4.66
54.64,3.59,-1.05,3.59,-1.05,1.05,1.18,1.02,4.64,4.64,4.64
55.18,3.59,-1.04,3.59,-1.04,1.04,1.16,1.01,4.63,4.63,4.63
55.74,3.59,-1.02,3.59,-1.02,1.02,1.14,1.00,4.61,4.61,4.61
56.29,3.59,-1.01,3.59,-1.01,1.01,1.12,0.99,4.60,4.60,4.60
56.86,3.59,-1.00,3.59,-1.00,1.00,1.10,0.98,4.59,4.59,4.59
57.42,3.59,-0.98,3.59,-0.98,0.98,1.08,0.96,4.57,4.57,4.57
58.00,3.59,-0.97,3.59,-0.96,0.96,1.06,0.95,4.55,4.55,4.56
58.58,3.59,-0.95,3.59,-0.95,0.95,1.04,0.94,4.54,4.54,4.54
59.16,3.59,-0.93,3.59,-0.93,0.93,1.01,0.92,4.52,4.52,4.52
59.76,3.59,-0.92,3.59,-0.91,0.91,0.99,0.90,4.50,4.50,4.51
60.35,3.59,-0.89,3.59,-0.89,0.89,0.97,0.89,4.48,4.48,4.48
60.96,3.59,-0.87,3.59,-0.87,0.87,0.94,0.87,4.46,4.46,4.46
61.57,3.59,-0.85,3.59,-0.85,0.85,0.92,0.85,4.44,4.44,4.44
62.18,3.59,-0.82,3.59,-0.82,0.83,0.89,0.83,4.42,4.42,4.41
62.80,3.59,-0.80,3.59,-0.80,0.80,0.87,0.81,4.39,4.39,4.39
63.43,3.59,-0.78,3.59,-0.78,0.78,0.84,0.79,4.37,4.37,4.37
64.07,3.59,-0.75,3.59,-0.75,0.75,0.81,0.77,4.34,4.34,4.34
64.71,3.59,-0.72,3.59,-0.72,0.72,0.79,0.74,4.31,4.31,4.31
65.35,3.59,-0.70,3.59,-0.70,0.70,0.76,0.72,4.29,4.29,4.29
66.01,3.59,-0.67,3.59,-0.67,0.67,0.73,0.69,4.26,4.26,4.26
66.67,3.59,-0.64,3.59,-0.64,0.64,0.70,0.66,4.23,4.23,4.23
67.33,3.59,-0.61,3.59,-0.61,0.61,0.67,0.63,4.20,4.20,4.20
68.01,3.59,-0.58,3.59,-0.58,0.58,0.64,0.60,4.17,4.17,4.17
68.69,3.59,-0.55,3.59,-0.55,0.55,0.61,0.57,4.14,4.14,4.14
69.37,3.59,-0.51,3.59,-0.51,0.52,0.58,0.54,4.11,4.11,4.10
70.07,3.59,-0.48,3.59,-0.48,0.48,0.55,0.51,4.07,4.07,4.07
70.77,3.59,-0.45,3.59,-0.45,0.45,0.52,0.48,4.04,4.04,4.04
71.48,3.59,-0.42,3.59,-0.42,0.42,0.48,0.44,4.01,4.01,4.01
72.19,3.59,-0.39,3.59,-0.39,0.39,0.45,0.41,3.98,3.98,3.98
72.91,3.59,-0.35,3.59,-0.35,0.35,0.42,0.37,3.94,3.94,3.94
73.64,3.59,-0.32,3.59,-0.32,0.32,0.38,0.34,3.91,3.91,3.91
74.38,3.59,-0.29,3.59,-0.29,0.29,0.35,0.30,3.88,3.88,3.88
75.12,3.59,-0.25,3.59,-0.25,0.25,0.31,0.27,3.84,3.84,3.84
75.87,3.59,-0.22,3.59,-0.22,0.22,0.28,0.23,3.81,3.81,3.81
76.63,3.59,-0.18,3.59,-0.18,0.18,0.24,0.19,3.77,3.77,3.77
77.40,3.59,-0.14,3.59,-0.14,0.14,0.20,0.15,3.73,3.73,3.73
78.17,3.59,-0.11,3.59,-0.10,0.10,0.16,0.12,3.69,3.69,3.70
78.95,3.59,-0.06,3.59,-0.06,0.07,0.12,0.08,3.66,3.66,3.65
79.74,3.59,-0.02,3.59,-0.03,0.02,0.09,0.04,3.61,3.61,3.61
80.54,3.59,0.01,3.59,0.02,-0.02,0.05,0.00,3.57,3.57,3.58
81.35,3.59,0.06,3.59,0.06,-0.06,0.00,-0.04,3.53,3.53,3.53
82.16,3.59,0.10,3.59,0.10,-0.10,-0.04,-0.08,3.49,3.49,3.49
82.98,3.59,0.15,3.59,0.15,-0.15,-0.08,-0.12,3.44,3.44,3.44
83.81,3.59,0.20,3.59,0.19,-0.19,-0.12,-0.16,3.40,3.40,3.39
84.65,3.59,0.23,3.59,0.24,-0.24,-0.16,-0.20,3.35,3.35,3.36
85.50,3.59,0.28,3.59,0.28,-0.29,-0.21,-0.24,3.30,3.30,3.31
86.35,3.59,0.33,3.59,0.33,-0.33,-0.25,-0.28,3.26,3.26,3.26
87.22,3.59,0.38,3.59,0.38,-0.38,-0.29,-0.32,3.21,3.21,3.21
88.09,3.59,0.43,3.59,0.43,-0.43,-0.34,-0.36,3.16,3.16,3.16
88.97,3.59,0.48,3.59,0.48,-0.48,-0.38,-0.40,3.11,3.11,3.11
89.86,3.59,0.53,3.59,0.53,-0.53,-0.43,-0.44,3.06,3.06,3.06
90.76,3.59,0.59,3.59,0.59,-0.59,-0.48,-0.48,3.00,3.00,3.00
91.66,3.59,0.64,3.59,0.64,-0.64,-0.52,-0.52,2.95,2.95,2.95
92.58,3.59,0.69,3.59,0.69,-0.69,-0.57,-0.57,2.90,2.90,2.90
93.51,3.59,0.75,3.59,0.75,-0.75,-0.62,-0.61,2.84,2.84,2.84
94.44,3.59,0.80,3.59,0.80,-0.80,-0.66,-0.65,2.79,2.79,2.79
95.39,3.59,0.85,3.59,0.85,-0.85,-0.71,-0.70,2.74,2.74,2.74
96.34,3.59,0.91,3.59,0.91,-0.90,-0.76,-0.74,2.69,2.69,2.68
97.30,3.59,0.95,3.59,0.96,-0.96,-0.81,-0.78,2.63,2.63,2.64
98.28,3.59,1.01,3.59,1.01,-1.01,-0.86,-0.83,2.58,2.58,2.58
99.26,3.59,1.07,3.59,1.06,-1.07,-0.91,-0.87,2.52,2.52,2.52
100.25,3.59,1.12,3.59,1.12,-1.13,-0.96,-0.91,2.46,2.46,2.47
101.25,3.59,1.18,3.59,1.18,-1.19,-1.01,-0.96,2.40,2.41,2.41
102.27,3.60,1.24,3.60,1.24,-1.24,-1.06,-1.00,2.36,2.36,2.36
103.29,3.61,1.31,3.61,1.30,-1.30,-1.11,-1.05,2.31,2.31,2.30
104.32,3.61,1.36,3.61,1.36,-1.35,-1.16,-1.09,2.26,2.26,2.25
105.37,3.61,1.41,3.61,1.41,-1.40,-1.21,-1.13,2.21,2.20,2.20
106.42,3.60,1.46,3.60,1.45,-1.45,-1.26,-1.18,2.15,2.15,2.14
107.48,3.58,1.49,3.58,1.49,-1.49,-1.32,-1.22,2.09,2.09,2.09
108.56,3.56,1.52,3.56,1.52,-1.52,-1.37,-1.26,2.04,2.04,2.04
109.64,3.53,1.55,3.53,1.55,-1.55,-1.42,-1.30,1.98,1.98,1.98
110.74,3.51,1.58,3.51,1.58,-1.58,-1.47,-1.35,1.93,1.93,1.93
111.85,3.48,1.61,3.48,1.60,-1.60,-1.52,-1.39,1.88,1.88,1.87
112.97,3.44,1.61,3.44,1.62,-1.62,-1.57,-1.43,1.82,1.82,1.83
114.10,3.41,1.64,3.41,1.64,-1.64,-1.63,-1.47,1.77,1.77,1.77
115.24,3.38,1.66,3.38,1.66,-1.66,-1.68,-1.50,1.72,1.71,1.72
116.39,3.35,1.69,3.35,1.69,-1.69,-1.73,-1.54,1.66,1.66,1.66
117.55,3.32,1.70,3.32,1.71,-1.71,-1.78,-1.58,1.61,1.61,1.62
118.73,3.30,1.74,3.30,1.74,-1.74,-1.83,-1.61,1.56,1.56,1.56
119.92,3.28,1.77,3.28,1.77,-1.77,-1.88,-1.65,1.51,1.51,1.51
121.12,3.26,1.80,3.26,1.80,-1.81,-1.93,-1.68,1.45,1.45,1.46
122.33,3.25,1.84,3.25,1.84,-1.85,-1.99,-1.71,1.40,1.40,1.41
123.55,3.25,1.89,3.25,1.89,-1.90,-2.04,-1.74,1.35,1.36,1.36
124.79,3.26,1.94,3.26,1.94,-1.94,-2.09,-1.77,1.32,1.32,1.32
126.03,3.27,2.00,3.27,1.99,-1.99,-2.14,-1.80,1.28,1.28,1.27
127.29,3.27,2.04,3.27,2.04,-2.03,-2.19,-1.82,1.24,1.24,1.23
128.57,3.27,2.09,3.27,2.09,-2.07,-2.24,-1.85,1.20,1.19,1.18
129.85,3.25,2.12,3.25,2.12,-2.11,-2.29,-1.87,1.14,1.14,1.13
131.15,3.23,2.15,3.23,2.14,-2.14,-2.34,-1.89,1.09,1.09,1.08
132.46,3.20,2.15,3.20,2.16,-2.16,-2.38,-1.91,1.04,1.04,1.05
133.79,3.18,2.18,3.18,2.18,-2.18,-2.43,-1.93,1.00,1.00,1.00
135.12,3.15,2.19,3.15,2.19,-2.19,-2.48,-1.95,0.96,0.95,0.96
136.48,3.11,2.20,3.12,2.21,-2.20,-2.53,-1.97,0.91,0.91,0.91
137.84,3.08,2.21,3.08,2.22,-2.21,-2.57,-1.99,0.87,0.87,0.87
139.22,3.05,2.23,3.04,2.22,-2.22,-2.62,-2.01,0.83,0.83,0.82
140.61,3.01,2.23,3.01,2.23,-2.22,-2.67,-2.02,0.79,0.79,0.78
142.02,2.97,2.22,2.98,2.23,-2.23,-2.71,-2.04,0.74,0.74,0.75
143.44,2.95,2.24,2.95,2.24,-2.25,-2.76,-2.06,0.70,0.70,0.71
144.87,2.93,2.26,2.93,2.26,-2.27,-2.80,-2.08,0.66,0.66,0.67
146.32,2.92,2.28,2.92,2.29,-2.29,-2.84,-2.09,0.63,0.63,0.64
147.78,2.92,2.32,2.92,2.32,-2.33,-2.89,-2.11,0.59,0.59,0.60
149.26,2.93,2.37,2.93,2.37,-2.38,-2.93,-2.13,0.55,0.55,0.56
150.75,2.95,2.42,2.95,2.43,-2.43,-2.97,-2.15,0.52,0.52,0.53
152.26,2.99,2.49,2.99,2.50,-2.49,-3.01,-2.18,0.50,0.50,0.50
153.78,3.04,2.58,3.03,2.57,-2.56,-3.05,-2.20,0.48,0.47,0.46
155.32,3.08,2.64,3.08,2.65,-2.64,-3.09,-2.22,0.44,0.44,0.44
156.88,3.12,2.72,3.12,2.72,-2.72,-3.13,-2.25,0.40,0.40,0.40
158.44,3.17,2.80,3.17,2.80,-2.81,-3.17,-2.27,0.36,0.36,0.37
160.03,3.22,2.88,3.22,2.89,-2.90,-3.20,-2.30,0.32,0.33,0.34
161.63,3.29,2.98,3.29,2.98,-2.99,-3.24,-2.33,0.30,0.30,0.31
163.24,3.36,3.08,3.36,3.08,-3.08,-3.28,-2.36,0.28,0.28,0.28
164.88,3.43,3.18,3.43,3.18,-3.18,-3.31,-2.40,0.25,0.26,0.25
166.53,3.50,3.27,3.50,3.27,-3.27,-3.34,-2.43,0.23,0.23,0.23
168.19,3.57,3.37,3.57,3.37,-3.36,-3.38,-2.47,0.21,0.21,0.20
169.87,3.63,3.45,3.63,3.45,-3.45,-3.41,-2.51,0.18,0.18,0.18
171.57,3.69,3.54,3.69,3.53,-3.53,-3.44,-2.55,0.16,0.15,0.15
173.29,3.73,3.60,3.73,3.61,-3.61,-3.47,-2.59,0.12,0.13,0.13
175.02,3.78,3.68,3.78,3.68,-3.68,-3.50,-2.64,0.10,0.10,0.10
176.77,3.82,3.73,3.82,3.74,-3.74,-3.53,-2.69,0.08,0.08,0.09
178.54,3.86,3.80,3.86,3.80,-3.80,-3.56,-2.74,0.06,0.06,0.06
180.32,3.89,3.85,3.89,3.85,-3.85,-3.58,-2.79,0.04,0.04,0.04
182.13,3.91,3.89,3.91,3.89,-3.89,-3.61,-2.84,0.02,0.02,0.02
183.95,3.92,3.93,3.92,3.93,-3.92,-3.63,-2.90,-0.00,-0.00,-0.01
185.79,3.93,3.96,3.93,3.96,-3.95,-3.66,-2.95,-0.02,-0.02,-0.03
187.65,3.93,3.98,3.93,3.98,-3.98,-3.68,-3.01,-0.05,-0.04,-0.05
189.52,3.94,4.01,3.93,4.00,-4.00,-3.70,-3.08,-0.06,-0.07,-0.07
191.42,3.93,4.02,3.93,4.02,-4.02,-3.72,-3.14,-0.09,-0.09,-0.09
193.33,3.92,4.03,3.92,4.03,-4.04,-3.74,-3.20,-0.12,-0.12,-0.11
195.27,3.91,4.03,3.92,4.04,-4.05,-3.76,-3.27,-0.14,-0.14,-0.12
197.22,3.92,4.06,3.92,4.06,-4.07,-3.77,-3.34,-0.15,-0.15,-0.14
199.19,3.93,4.09,3.93,4.09,-4.08,-3.79,-3.41,-0.15,-0.15,-0.16
201.18,3.94,4.11,3.93,4.10,-4.10,-3.80,-3.48,-0.16,-0.16,-0.17
203.19,3.93,4.11,3.93,4.11,-4.10,-3.82,-3.55,-0.17,-0.17,-0.18
205.23,3.92,4.11,3.92,4.11,-4.11,-3.83,-3.62,-0.19,-0.19,-0.19
207.28,3.91,4.11,3.91,4.11,-4.11,-3.84,-3.69,-0.20,-0.20,-0.20
209.35,3.89,4.11,3.89,4.10,-4.10,-3.85,-3.76,-0.21,-0.21,-0.22
211.44,3.87,4.09,3.87,4.09,-4.09,-3.86,-3.84,-0.22,-0.22,-0.22
213.56,3.84,4.08,3.84,4.08,-4.07,-3.87,-3.91,-0.23,-0.23,-0.24
215.69,3.81,4.06,3.81,4.06,-4.06,-3.88,-3.98,-0.25,-0.25,-0.25
217.85,3.78,4.04,3.78,4.04,-4.04,-3.88,-4.05,-0.26,-0.26,-0.26
220.03,3.75,4.01,3.75,4.02,-4.02,-3.89,-4.11,-0.27,-0.27,-0.26
222.23,3.72,4.00,3.72,4.00,-4.01,-3.89,-4.18,-0.29,-0.28,-0.28
224.45,3.70,3.99,3.70,3.99,-3.99,-3.89,-4.24,-0.29,-0.29,-0.29
226.70,3.68,3.98,3.68,3.97,-3.97,-3.89,-4.30,-0.29,-0.29,-0.30
228.96,3.66,3.96,3.66,3.96,-3.95,-3.90,-4.35,-0.29,-0.30,-0.30
231.25,3.63,3.94,3.63,3.94,-3.93,-3.89,-4.40,-0.30,-0.31,-0.31
233.57,3.60,3.92,3.60,3.92,-3.92,-3.89,-4.45,-0.32,-0.31,-0.32
235.90,3.57,3.89,3.57,3.90,-3.90,-3.89,-4.49,-0.33,-0.32,-0.32
238.26,3.55,3.88,3.55,3.87,-3.87,-3.89,-4.52,-0.32,-0.33,-0.33
240.64,3.52,3.85,3.52,3.85,-3.85,-3.88,-4.55,-0.33,-0.33,-0.33
243.05,3.50,3.83,3.50,3.83,-3.83,-3.88,-4.58,-0.33,-0.33,-0.33
245.48,3.48,3.80,3.48,3.80,-3.80,-3.87,-4.59,-0.32,-0.33,-0.32
247.93,3.45,3.78,3.45,3.78,-3.78,-3.86,-4.61,-0.33,-0.32,-0.33
250.41,3.43,3.76,3.43,3.76,-3.75,-3.85,-4.61,-0.32,-0.33,-0.33
252.92,3.40,3.73,3.40,3.73,-3.73,-3.84,-4.61,-0.33,-0.33,-0.33
255.45,3.37,3.70,3.37,3.70,-3.71,-3.83,-4.60,-0.34,-0.33,-0.33
258.00,3.35,3.68,3.35,3.68,-3.68,-3.82,-4.59,-0.33,-0.33,-0.33
260.58,3.33,3.66,3.33,3.66,-3.66,-3.81,-4.57,-0.33,-0.33,-0.33
263.19,3.31,3.65,3.31,3.64,-3.64,-3.79,-4.54,-0.33,-0.33,-0.34
265.82,3.28,3.62,3.28,3.62,-3.61,-3.78,-4.51,-0.33,-0.33,-0.34
268.48,3.25,3.59,3.25,3.59,-3.59,-3.76,-4.47,-0.34,-0.34,-0.34
271.16,3.22,3.56,3.22,3.56,-3.57,-3.75,-4.43,-0.35,-0.35,-0.34
273.87,3.19,3.54,3.19,3.54,-3.54,-3.73,-4.38,-0.35,-0.35,-0.35
276.61,3.17,3.52,3.17,3.52,-3.52,-3.71,-4.33,-0.35,-0.35,-0.35
279.38,3.15,3.50,3.15,3.50,-3.50,-3.70,-4.28,-0.35,-0.35,-0.35
282.17,3.13,3.48,3.13,3.47,-3.47,-3.68,-4.22,-0.34,-0.34,-0.35
284.99,3.10,3.45,3.10,3.45,-3.45,-3.66,-4.17,-0.35,-0.35,-0.35
287.84,3.07,3.43,3.07,3.43,-3.42,-3.64,-4.10,-0.35,-0.35,-0.36
290.72,3.04,3.40,3.04,3.40,-3.40,-3.61,-4.04,-0.36,-0.36,-0.36
293.63,3.01,3.37,3.01,3.37,-3.37,-3.59,-3.98,-0.36,-0.36,-0.36
296.57,2.98,3.35,2.98,3.35,-3.35,-3.57,-3.91,-0.37,-0.37,-0.37
299.53,2.96,3.32,2.96,3.33,-3.33,-3.55,-3.85,-0.37,-0.37,-0.36
302.53,2.94,3.31,2.94,3.31,-3.31,-3.52,-3.78,-0.37,-0.37,-0.37
305.55,2.93,3.30,2.93,3.30,-3.30,-3.50,-3.72,-0.37,-0.37,-0.37
308.61,2.92,3.28,2.92,3.29,-3.29,-3.47,-3.65,-0.37,-0.37,-0.36
311.69,2.92,3.29,2.92,3.28,-3.29,-3.45,-3.59,-0.37,-0.37,-0.37
314.81,2.92,3.28,2.92,3.29,-3.29,-3.42,-3.52,-0.37,-0.36,-0.36
317.96,2.93,3.29,2.93,3.29,-3.29,-3.39,-3.46,-0.36,-0.36,-0.36
321.14,2.94,3.30,2.94,3.30,-3.29,-3.37,-3.40,-0.35,-0.36,-0.36
324.35,2.94,3.30,2.94,3.30,-3.30,-3.34,-3.34,-0.36,-0.36,-0.36
327.59,2.94,3.30,2.94,3.30,-3.30,-3.31,-3.29,-0.36,-0.36,-0.36
330.87,2.95,3.31,2.95,3.31,-3.31,-3.28,-3.23,-0.36,-0.36,-0.36
334.18,2.96,3.31,2.96,3.31,-3.31,-3.26,-3.18,-0.35,-0.35,-0.35
337.52,2.96,3.31,2.96,3.31,-3.31,-3.23,-3.13,-0.35,-0.35,-0.35
340.90,2.96,3.30,2.96,3.31,-3.30,-3.20,-3.08,-0.34,-0.34,-0.34
344.30,2.95,3.30,2.95,3.30,-3.29,-3.17,-3.03,-0.34,-0.34,-0.35
347.75,2.94,3.29,2.94,3.28,-3.28,-3.14,-2.99,-0.34,-0.34,-0.35
351.23,2.92,3.27,2.92,3.27,-3.26,-3.11,-2.95,-0.34,-0.34,-0.35
354.74,2.89,3.23,2.89,3.24,-3.24,-3.08,-2.91,-0.35,-0.35,-0.34
358.28,2.87,3.22,2.87,3.21,-3.22,-3.05,-2.87,-0.35,-0.35,-0.35
361.87,2.84,3.19,2.84,3.18,-3.19,-3.02,-2.83,-0.35,-0.35,-0.35
365.49,2.81,3.16,2.81,3.16,-3.17,-2.99,-2.80,-0.36,-0.36,-0.35
369.14,2.78,3.13,2.78,3.13,-3.14,-2.95,-2.77,-0.36,-0.35,-0.35
372.83,2.76,3.11,2.76,3.11,-3.11,-2.92,-2.74,-0.35,-0.35,-0.35
376.56,2.74,3.08,2.74,3.09,-3.08,-2.89,-2.71,-0.34,-0.34,-0.34
380.33,2.71,3.06,2.71,3.06,-3.05,-2.86,-2.69,-0.34,-0.34,-0.35
384.13,2.68,3.03,2.68,3.03,-3.02,-2.83,-2.67,-0.34,-0.34,-0.35
387.97,2.64,2.99,2.64,2.99,-2.98,-2.80,-2.64,-0.34,-0.34,-0.35
391.85,2.61,2.95,2.61,2.95,-2.95,-2.77,-2.63,-0.34,-0.34,-0.34
395.77,2.57,2.91,2.57,2.91,-2.92,-2.73,-2.61,-0.35,-0.35,-0.34
399.73,2.54,2.87,2.54,2.88,-2.89,-2.70,-2.59,-0.35,-0.35,-0.33
403.72,2.51,2.85,2.51,2.84,-2.86,-2.67,-2.58,-0.35,-0.35,-0.34
407.76,2.49,2.82,2.49,2.82,-2.83,-2.64,-2.57,-0.34,-0.34,-0.33
411.84,2.47,2.80,2.47,2.80,-2.80,-2.61,-2.55,-0.33,-0.33,-0.33
415.96,2.46,2.78,2.45,2.78,-2.77,-2.57,-2.54,-0.31,-0.31,-0.32
420.12,2.43,2.75,2.43,2.75,-2.74,-2.54,-2.53,-0.31,-0.31,-0.32
424.32,2.40,2.72,2.40,2.72,-2.70,-2.51,-2.53,-0.30,-0.30,-0.32
428.56,2.36,2.67,2.36,2.67,-2.67,-2.48,-2.52,-0.31,-0.31,-0.31
432.85,2.31,2.62,2.31,2.63,-2.63,-2.45,-2.51,-0.32,-0.31,-0.31
437.18,2.27,2.58,2.27,2.58,-2.59,-2.42,-2.50,-0.32,-0.32,-0.31
441.55,2.23,2.55,2.23,2.54,-2.55,-2.39,-2.49,-0.32,-0.32,-0.32
445.96,2.19,2.51,2.19,2.51,-2.51,-2.35,-2.49,-0.32,-0.33,-0.32
450.42,2.15,2.47,2.16,2.47,-2.48,-2.32,-2.48,-0.33,-0.33,-0.32
454.93,2.13,2.45,2.13,2.45,-2.46,-2.29,-2.47,-0.33,-0.33,-0.32
459.48,2.11,2.43,2.11,2.43,-2.43,-2.26,-2.46,-0.32,-0.32,-0.32
464.07,2.09,2.41,2.09,2.41,-2.41,-2.23,-2.45,-0.32,-0.32,-0.32
468.71,2.07,2.39,2.07,2.39,-2.38,-2.20,-2.44,-0.31,-0.31,-0.32
473.40,2.05,2.37,2.05,2.37,-2.36,-2.17,-2.43,-0.31,-0.31,-0.32
478.13,2.02,2.33,2.02,2.34,-2.33,-2.14,-2.41,-0.31,-0.31,-0.31
482.91,1.99,2.30,1.99,2.30,-2.30,-2.11,-2.40,-0.31,-0.31,-0.31
487.74,1.96,2.27,1.96,2.27,-2.27,-2.08,-2.38,-0.31,-0.31,-0.31
492.62,1.92,2.23,1.92,2.23,-2.24,-2.05,-2.36,-0.32,-0.32,-0.31
497.55,1.89,2.19,1.89,2.20,-2.21,-2.02,-2.34,-0.32,-0.32,-0.30
502.52,1.87,2.18,1.87,2.18,-2.19,-1.99,-2.31,-0.32,-0.32,-0.31
507.55,1.85,2.16,1.85,2.16,-2.16,-1.96,-2.29,-0.31,-0.31,-0.31
512.62,1.84,2.15,1.84,2.14,-2.13,-1.93,-2.26,-0.29,-0.30,-0.31
517.75,1.82,2.12,1.82,2.12,-2.11,-1.91,-2.23,-0.29,-0.29,-0.30
522.93,1.79,2.09,1.79,2.09,-2.07,-1.88,-2.20,-0.28,-0.29,-0.30
528.16,1.75,2.05,1.75,2.05,-2.04,-1.85,-2.17,-0.29,-0.29,-0.30
