frequency,raw
20.00,-7.89
20.20,-7.82
20.40,-7.75
20.61,-7.69
20.81,-7.63
21.02,-7.57
21.23,-7.51
21.44,-7.44
21.66,-7.38
21.87,-7.33
22.09,-7.27
22.31,-7.22
22.54,-7.17
22.76,-7.11
22.99,-7.06
23.22,-7.01
23.45,-6.96
23.69,-6.91
23.92,-6.87
24.16,-6.82
24.40,-6.78
24.65,-6.73
24.89,-6.69
25.14,-6.64
25.39,-6.59
25.65,-6.55
25.91,-6.49
26.16,-6.45
26.43,-6.42
26.69,-6.37
26.96,-6.33
27.23,-6.28
27.50,-6.24
27.77,-6.21
28.05,-6.16
28.33,-6.13
28.62,-6.09
28.90,-6.04
29.19,-6.01
29.48,-5.97
29.78,-5.94
30.08,-5.90
30.38,-5.86
30.68,-5.82
30.99,-5.79
31.30,-5.76
31.61,-5.72
31.93,-5.69
32.24,-5.66
32.57,-5.62
32.89,-5.60
33.22,-5.57
33.55,-5.54
33.89,-5.51
34.23,-5.48
34.57,-5.44
34.92,-5.42
35.27,-5.39
35.62,-5.36
35.97,-5.33
36.33,-5.31
36.70,-5.28
37.06,-5.26
37.43,-5.22
37.81,-5.19
38.19,-5.17
38.57,-5.15
38.95,-5.13
39.34,-5.10
39.74,-5.08
40.14,-5.05
40.54,-5.03
40.94,-5.01
41.35,-4.99
41.76,-4.97
42.18,-4.95
42.60,-4.93
43.03,-4.92
43.46,-4.89
43.90,-4.87
44.33,-4.84
44.78,-4.82
45.23,-4.80
45.68,-4.78
46.13,-4.76
46.60,-4.74
47.06,-4.72
47.53,-4.69
48.01,-4.67
48.49,-4.65
48.97,-4.62
49.46,-4.61
49.96,-4.60
50.46,-4.60
50.96,-4.59
51.47,-4.59
51.99,-4.58
52.51,-4.57
53.03,-4.56
53.56,-4.54
54.10,-4.53
54.64,-4.51
55.18,-4.49
55.74,-4.48
56.29,-4.47
56.86,-4.45
57.42,-4.44
58.00,-4.43
58.58,-4.42
59.16,-4.42
59.76,-4.41
60.35,-4.39
60.96,-4.36
61.57,-4.34
62.18,-4.32
62.80,-4.31
63.43,-4.29
64.07,-4.27
64.71,-4.25
65.35,-4.23
66.01,-4.22
66.67,-4.21
67.33,-4.21
68.01,-4.22
68.69,-4.22
69.37,-4.22
70.07,-4.23
70.77,-4.23
71.48,-4.23
72.19,-4.22
72.91,-4.20
73.64,-4.18
74.38,-4.17
75.12,-4.15
75.87,-4.13
76.63,-4.10
77.40,-4.08
78.17,-4.06
78.95,-4.04
79.74,-4.01
80.54,-3.99
81.35,-3.97
82.16,-3.96
82.98,-3.94
83.81,-3.93
84.65,-3.93
85.50,-3.93
86.35,-3.93
87.22,-3.94
88.09,-3.96
88.97,-3.97
89.86,-3.98
90.76,-3.98
91.66,-3.97
92.58,-3.96
93.51,-3.94
94.44,-3.92
95.39,-3.90
96.34,-3.87
97.30,-3.84
98.28,-3.81
99.26,-3.78
100.25,-3.74
101.25,-3.71
102.27,-3.69
103.29,-3.67
104.32,-3.66
105.37,-3.65
106.42,-3.64
107.48,-3.64
108.56,-3.65
109.64,-3.66
110.74,-3.68
111.85,-3.68
112.97,-3.68
114.10,-3.67
115.24,-3.64
116.39,-3.63
117.55,-3.61
118.73,-3.58
119.92,-3.53
121.12,-3.50
122.33,-3.48
123.55,-3.45
124.79,-3.43
126.03,-3.40
127.29,-3.40
128.57,-3.38
129.85,-3.37
131.15,-3.37
132.46,-3.39
133.79,-3.41
135.12,-3.42
136.48,-3.41
137.84,-3.39
139.22,-3.38
140.61,-3.36
142.02,-3.33
143.44,-3.31
144.87,-3.27
146.32,-3.25
147.78,-3.22
149.26,-3.19
150.75,-3.17
152.26,-3.14
153.78,-3.12
155.32,-3.12
156.88,-3.11
158.44,-3.11
160.03,-3.11
161.63,-3.10
163.24,-3.10
164.88,-3.07
166.53,-3.05
168.19,-3.02
169.87,-2.99
171.57,-2.96
173.29,-2.93
175.02,-2.89
176.77,-2.88
178.54,-2.86
180.32,-2.85
182.13,-2.84
183.95,-2.81
185.79,-2.79
187.65,-2.77
189.52,-2.75
191.42,-2.74
193.33,-2.70
195.27,-2.67
197.22,-2.64
199.19,-2.62
201.18,-2.60
203.19,-2.58
205.23,-2.56
207.28,-2.52
209.35,-2.49
211.44,-2.47
213.56,-2.44
215.69,-2.41
217.85,-2.38
220.03,-2.37
222.23,-2.35
224.45,-2.32
226.70,-2.29
228.96,-2.27
231.25,-2.25
233.57,-2.21
235.90,-2.18
238.26,-2.16
240.64,-2.14
243.05,-2.14
245.48,-2.12
247.93,-2.09
250.41,-2.08
252.92,-2.05
255.45,-2.04
258.00,-2.00
260.58,-1.98
263.19,-1.94
265.82,-1.90
268.48,-1.89
271.16,-1.86
273.87,-1.83
276.61,-1.82
279.38,-1.80
282.17,-1.79
284.99,-1.75
287.84,-1.71
290.72,-1.67
293.63,-1.63
296.57,-1.60
299.53,-1.58
302.53,-1.55
305.55,-1.53
308.61,-1.51
311.69,-1.49
314.81,-1.49
317.96,-1.46
321.14,-1.43
324.35,-1.40
327.59,-1.36
330.87,-1.34
334.18,-1.33
337.52,-1.29
340.90,-1.29
344.30,-1.26
347.75,-1.22
351.23,-1.19
354.74,-1.17
358.28,-1.15
361.87,-1.14
365.49,-1.12
369.14,-1.11
372.83,-1.10
376.56,-1.09
380.33,-1.08
384.13,-1.06
387.97,-1.03
391.85,-1.01
395.77,-0.98
399.73,-0.95
403.72,-0.92
407.76,-0.90
411.84,-0.87
415.96,-0.86
420.12,-0.83
424.32,-0.82
428.56,-0.82
432.85,-0.83
437.18,-0.84
441.55,-0.85
445.96,-0.85
450.42,-0.85
454.93,-0.85
459.48,-0.85
464.07,-0.85
468.71,-0.85
473.40,-0.85
478.13,-0.86
482.91,-0.86
487.74,-0.86
492.62,-0.86
497.55,-0.87
502.52,-0.87
507.55,-0.87
512.62,-0.87
517.75,-0.88
522.93,-0.88
528.16,-0.88
533.44,-0.88
538.77,-0.89
544.16,-0.89
549.60,-0.89
555.10,-0.89
560.65,-0.89
566.25,-0.89
571.92,-0.89
577.64,-0.89
583.41,-0.88
589.25,-0.88
595.14,-0.89
601.09,-0.90
607.10,-0.91
613.17,-0.94
619.30,-0.96
625.50,-0.99
631.75,-1.02
638.07,-1.07
644.45,-1.10
650.89,-1.13
657.40,-1.16
663.98,-1.20
670.62,-1.22
677.32,-1.24
684.10,-1.25
690.94,-1.27
697.85,-1.29
704.83,-1.32
711.87,-1.34
718.99,-1.36
726.18,-1.39
733.44,-1.42
740.78,-1.44
748.19,-1.47
755.67,-1.50
763.23,-1.55
770.86,-1.59
778.57,-1.63
786.35,-1.67
794.22,-1.70
802.16,-1.73
810.18,-1.76
818.28,-1.78
826.46,-1.80
834.73,-1.81
843.08,-1.83
851.51,-1.85
860.02,-1.87
868.62,-1.90
877.31,-1.92
886.08,-1.93
894.94,-1.93
903.89,-1.93
912.93,-1.93
922.06,-1.92
931.28,-1.93
940.59,-1.94
950.00,-1.95
959.50,-1.96
969.09,-1.97
978.78,-1.97
988.57,-1.95
998.46,-1.93
1008.44,-1.91
1018.53,-1.88
1028.71,-1.84
1039.00,-1.79
1049.39,-1.74
1059.88,-1.70
1070.48,-1.66
1081.19,-1.61
1092.00,-1.56
1102.92,-1.49
1113.95,-1.42
1125.09,-1.36
1136.34,-1.30
1147.70,-1.25
1159.18,-1.19
1170.77,-1.13
1182.48,-1.07
1194.30,-1.01
1206.25,-0.95
1218.31,-0.88
1230.49,-0.79
1242.80,-0.70
1255.22,-0.61
1267.78,-0.53
1280.45,-0.46
1293.26,-0.40
1306.19,-0.35
1319.25,-0.30
1332.45,-0.25
1345.77,-0.20
1359.23,-0.15
1372.82,-0.09
1386.55,-0.02
1400.41,0.03
1414.42,0.10
1428.56,0.17
1442.85,0.23
1457.28,0.29
1471.85,0.34
1486.57,0.38
1501.43,0.43
1516.45,0.47
1531.61,0.52
1546.93,0.57
1562.40,0.61
1578.02,0.66
1593.80,0.70
1609.74,0.74
1625.84,0.79
1642.10,0.85
1658.52,0.92
1675.10,0.99
1691.85,1.07
1708.77,1.14
1725.86,1.23
1743.12,1.32
1760.55,1.40
1778.15,1.49
1795.94,1.55
1813.90,1.63
1832.03,1.73
1850.36,1.82
1868.86,1.91
1887.55,2.01
1906.42,2.11
1925.49,2.22
1944.74,2.32
1964.19,2.43
1983.83,2.55
2003.67,2.67
2023.71,2.80
2043.94,2.94
2064.38,3.08
2085.03,3.22
2105.88,3.37
2126.94,3.53
2148.20,3.68
2169.69,3.84
2191.38,4.02
2213.30,4.18
2235.43,4.36
2257.78,4.53
2280.36,4.70
2303.17,4.88
2326.20,5.05
2349.46,5.22
2372.95,5.39
2396.68,5.56
2420.65,5.72
2444.86,5.88
2469.31,6.03
2494.00,6.17
2518.94,6.30
2544.13,6.43
2569.57,6.53
2595.27,6.61
2621.22,6.71
2647.43,6.81
2673.90,6.86
2700.64,6.92
2727.65,6.95
2754.93,6.98
2782.48,7.00
2810.30,7.01
2838.40,7.03
2866.79,7.03
2895.46,7.01
2924.41,6.99
2953.65,6.97
2983.19,6.93
3013.02,6.88
3043.15,6.82
3073.58,6.74
3104.32,6.67
3135.36,6.59
3166.72,6.50
3198.38,6.42
3230.37,6.31
3262.67,6.21
3295.30,6.10
3328.25,6.00
3361.53,5.90
3395.15,5.80
3429.10,5.71
3463.39,5.64
3498.03,5.55
3533.01,5.48
3568.34,5.40
3604.02,5.35
3640.06,5.33
3676.46,5.32
3713.22,5.31
3750.36,5.34
3787.86,5.37
3825.74,5.40
3864.00,5.45
3902.64,5.51
3941.66,5.60
3981.08,5.70
4020.89,5.83
4061.10,5.96
4101.71,6.10
4142.73,6.27
4184.15,6.44
4226.00,6.61
4268.26,6.78
4310.94,6.94
4354.05,7.12
4397.59,7.32
4441.56,7.50
4485.98,7.68
4530.84,7.86
4576.15,8.04
4621.91,8.20
4668.13,8.36
4714.81,8.50
4761.96,8.63
4809.58,8.77
4857.67,8.89
4906.25,9.00
4955.31,9.10
5004.87,9.18
5054.91,9.25
5105.46,9.27
5156.52,9.29
5208.08,9.26
5260.16,9.22
5312.77,9.16
5365.89,9.07
5419.55,8.96
5473.75,8.85
5528.49,8.71
5583.77,8.57
5639.61,8.42
5696.00,8.24
5752.96,8.07
5810.49,7.91
5868.60,7.75
5927.28,7.58
5986.56,7.43
6046.42,7.27
6106.89,7.12
6167.96,7.00
6229.64,6.88
6291.93,6.78
6354.85,6.68
6418.40,6.64
6482.58,6.61
6547.41,6.60
6612.88,6.61
6679.01,6.64
6745.80,6.69
6813.26,6.77
6881.39,6.88
6950.21,6.99
7019.71,7.16
7089.91,7.38
7160.81,7.63
7232.41,7.91
7304.74,8.21
7377.79,8.54
7451.56,8.89
7526.08,9.27
7601.34,9.66
7677.35,10.04
7754.13,10.42
7831.67,10.79
7909.98,11.13
7989.08,11.42
8068.98,11.66
8149.67,11.87
8231.16,12.01
8313.47,12.08
8396.61,12.10
8480.57,12.05
8565.38,11.95
8651.03,11.77
8737.54,11.53
8824.92,11.25
8913.17,10.91
9002.30,10.54
9092.32,10.15
9183.25,9.72
9275.08,9.30
9367.83,8.88
9461.51,8.44
9556.12,8.00
9651.68,7.54
9748.20,7.09
9845.68,6.61
9944.14,6.11
10043.58,5.59
10144.02,5.04
10245.46,4.46
10347.91,3.85
10451.39,3.21
10555.91,2.55
10661.46,1.85
10768.08,1.14
10875.76,0.42
10984.52,-0.28
11094.36,-0.98
11205.31,-1.67
11317.36,-2.30
11430.53,-2.89
11544.84,-3.45
11660.29,-3.95
11776.89,-4.42
11894.66,-4.82
12013.60,-5.18
12133.74,-5.50
12255.08,-5.79
12377.63,-6.05
12501.41,-6.31
12626.42,-6.57
12752.68,-6.84
12880.21,-7.17
13009.01,-7.51
13139.10,-7.91
13270.49,-8.36
13403.20,-8.83
13537.23,-9.31
13672.60,-9.78
13809.33,-10.21
13947.42,-10.61
14086.90,-10.93
14227.77,-11.18
14370.04,-11.34
14513.74,-11.43
14658.88,-11.44
14805.47,-11.38
14953.52,-11.23
15103.06,-11.05
15254.09,-10.83
15406.63,-10.59
15560.70,-10.33
15716.30,-10.09
15873.47,-9.85
16032.20,-9.65
16192.52,-9.48
16354.45,-9.36
16517.99,-9.25
16683.17,-9.16
16850.01,-9.11
17018.51,-9.08
17188.69,-9.11
17360.58,-9.19
17534.18,-9.35
17709.53,-9.62
17886.62,-9.97
18065.49,-10.43
18246.14,-10.78
18428.60,-11.10
18612.89,-11.44
18799.02,-11.80
18987.01,-12.18
19176.88,-12.58
19368.65,-13.00
19562.33,-13.43
19757.96,-13.88
19955.54,-14.36
