frequency,raw,error,smoothed,error_smoothed,equalization,parametric_eq,fixed_band_eq,equalized_raw,equalized_smoothed,target
20.00,10.42,6.95,10.42,6.95,-6.94,-7.25,-3.44,3.48,3.48,3.48
20.20,10.47,7.03,10.47,7.02,-7.02,-7.27,-3.54,3.45,3.45,3.45
20.40,10.51,7.09,10.52,7.09,-7.09,-7.29,-3.63,3.42,3.43,3.43
20.61,10.56,7.15,10.56,7.15,-7.16,-7.30,-3.73,3.41,3.40,3.41
20.81,10.60,7.22,10.60,7.21,-7.22,-7.32,-3.84,3.39,3.38,3.39
21.02,10.63,7.27,10.64,7.27,-7.27,-7.33,-3.94,3.36,3.37,3.37
21.23,10.67,7.33,10.67,7.32,-7.33,-7.35,-4.05,3.35,3.35,3.35
21.44,10.70,7.38,10.70,7.37,-7.37,-7.37,-4.16,3.33,3.33,3.33
21.66,10.72,7.41,10.73,7.42,-7.42,-7.38,-4.28,3.31,3.31,3.31
21.87,10.75,7.46,10.75,7.45,-7.45,-7.40,-4.40,3.30,3.30,3.30
22.09,10.76,7.49,10.77,7.49,-7.49,-7.41,-4.52,3.28,3.28,3.28
22.31,10.78,7.52,10.78,7.52,-7.51,-7.42,-4.64,3.27,3.27,3.27
22.54,10.79,7.54,10.79,7.54,-7.53,-7.44,-4.77,3.26,3.26,3.26
22.76,10.80,7.56,10.80,7.55,-7.55,-7.45,-4.90,3.26,3.25,3.25
22.99,10.79,7.56,10.80,7.56,-7.56,-7.46,-5.04,3.24,3.24,3.24
23.22,10.78,7.56,10.79,7.56,-7.56,-7.48,-5.17,3.22,3.23,3.23
23.45,10.78,7.57,10.78,7.56,-7.57,-7.49,-5.32,3.22,3.21,3.22
23.69,10.77,7.57,10.78,7.57,-7.57,-7.50,-5.46,3.20,3.21,3.21
23.92,10.77,7.57,10.77,7.57,-7.57,-7.51,-5.61,3.20,3.20,3.21
24.16,10.77,7.58,10.77,7.57,-7.57,-7.52,-5.76,3.20,3.20,3.20
24.40,10.77,7.58,10.77,7.58,-7.58,-7.53,-5.91,3.20,3.19,3.20
24.65,10.77,7.59,10.77,7.58,-7.58,-7.54,-6.06,3.19,3.19,3.19
24.89,10.77,7.59,10.77,7.59,-7.59,-7.55,-6.22,3.18,3.18,3.19
25.14,10.77,7.60,10.77,7.60,-7.60,-7.56,-6.38,3.18,3.18,3.18
25.39,10.77,7.61,10.77,7.60,-7.60,-7.57,-6.54,3.17,3.17,3.17
25.65,10.77,7.61,10.77,7.61,-7.61,-7.58,-6.71,3.17,3.17,3.17
25.91,10.77,7.62,10.77,7.61,-7.61,-7.59,-6.87,3.16,3.16,3.16
26.16,10.77,7.62,10.77,7.62,-7.62,-7.60,-7.03,3.16,3.16,3.16
26.43,10.77,7.62,10.77,7.62,-7.62,-7.61,-7.20,3.15,3.15,3.16
26.69,10.77,7.63,10.77,7.62,-7.62,-7.62,-7.36,3.15,3.15,3.15
26.96,10.77,7.63,10.77,7.63,-7.63,-7.62,-7.52,3.15,3.15,3.15
27.23,10.77,7.64,10.77,7.63,-7.63,-7.63,-7.68,3.14,3.14,3.14
27.50,10.77,7.64,10.77,7.64,-7.64,-7.64,-7.84,3.14,3.14,3.14
27.77,10.77,7.64,10.77,7.64,-7.64,-7.64,-7.99,3.13,3.13,3.14
28.05,10.77,7.65,10.77,7.64,-7.64,-7.65,-8.14,3.13,3.13,3.13
28.33,10.77,7.65,10.77,7.65,-7.65,-7.66,-8.28,3.13,3.13,3.13
28.62,10.77,7.65,10.77,7.65,-7.65,-7.66,-8.42,3.13,3.13,3.13
28.90,10.77,7.66,10.77,7.65,-7.65,-7.67,-8.55,3.12,3.12,3.12
29.19,10.77,7.66,10.77,7.65,-7.65,-7.67,-8.67,3.12,3.12,3.12
29.48,10.77,7.66,10.77,7.66,-7.66,-7.68,-8.78,3.12,3.12,3.12
29.78,10.77,7.66,10.77,7.66,-7.66,-7.68,-8.88,3.12,3.12,3.12
30.08,10.77,7.66,10.77,7.66,-7.66,-7.68,-8.96,3.11,3.11,3.12
30.38,10.77,7.67,10.77,7.66,-7.66,-7.69,-9.04,3.11,3.11,3.11
30.68,10.77,7.67,10.77,7.66,-7.66,-7.69,-9.10,3.11,3.11,3.11
30.99,10.77,7.67,10.77,7.67,-7.67,-7.69,-9.15,3.11,3.11,3.11
31.30,10.77,7.67,10.77,7.67,-7.67,-7.70,-9.18,3.10,3.10,3.11
31.61,10.77,7.68,10.77,7.67,-7.67,-7.70,-9.20,3.10,3.10,3.10
31.93,10.77,7.68,10.77,7.68,-7.68,-7.70,-9.21,3.10,3.10,3.10
32.24,10.77,7.68,10.77,7.68,-7.68,-7.70,-9.21,3.10,3.10,3.10
32.57,10.77,7.69,10.77,7.68,-7.68,-7.70,-9.19,3.09,3.09,3.09
32.89,10.77,7.69,10.77,7.69,-7.69,-7.70,-9.16,3.09,3.09,3.09
33.22,10.77,7.69,10.77,7.69,-7.69,-7.70,-9.12,3.09,3.09,3.09
33.55,10.77,7.70,10.77,7.69,-7.69,-7.70,-9.07,3.08,3.08,3.08
33.89,10.77,7.70,10.77,7.70,-7.70,-7.70,-9.01,3.08,3.08,3.08
34.23,10.77,7.70,10.77,7.70,-7.70,-7.70,-8.94,3.07,3.07,3.08
34.57,10.77,7.71,10.77,7.70,-7.70,-7.70,-8.86,3.07,3.07,3.07
34.92,10.77,7.71,10.77,7.71,-7.71,-7.70,-8.78,3.07,3.07,3.07
35.27,10.77,7.71,10.77,7.71,-7.71,-7.70,-8.70,3.07,3.07,3.07
35.62,10.77,7.72,10.77,7.71,-7.71,-7.70,-8.61,3.06,3.06,3.06
35.97,10.77,7.72,10.77,7.71,-7.71,-7.70,-8.51,3.06,3.06,3.06
36.33,10.77,7.72,10.77,7.72,-7.71,-7.69,-8.42,3.06,3.06,3.06
36.70,10.77,7.72,10.77,7.72,-7.72,-7.69,-8.32,3.06,3.06,3.06
37.06,10.77,7.72,10.77,7.72,-7.72,-7.69,-8.23,3.06,3.06,3.06
37.43,10.77,7.73,10.77,7.72,-7.72,-7.68,-8.13,3.05,3.05,3.05
37.81,10.77,7.73,10.77,7.73,-7.72,-7.68,-8.04,3.05,3.05,3.05
38.19,10.77,7.73,10.77,7.73,-7.73,-7.68,-7.94,3.04,3.04,3.05
38.57,10.77,7.74,10.77,7.73,-7.74,-7.67,-7.85,3.03,3.03,3.04
38.95,10.77,7.74,10.78,7.74,-7.75,-7.67,-7.77,3.02,3.03,3.04
39.34,10.78,7.76,10.78,7.75,-7.76,-7.66,-7.68,3.02,3.03,3.03
39.74,10.79,7.77,10.79,7.77,-7.77,-7.66,-7.60,3.03,3.03,3.03
40.14,10.80,7.79,10.80,7.78,-7.77,-7.65,-7.52,3.03,3.03,3.02
40.54,10.80,7.79,10.80,7.78,-7.77,-7.65,-7.45,3.03,3.03,3.02
40.94,10.79,7.78,10.80,7.78,-7.77,-7.64,-7.38,3.02,3.03,3.02
41.35,10.78,7.77,10.78,7.76,-7.76,-7.63,-7.32,3.02,3.02,3.02
41.76,10.76,7.75,10.76,7.75,-7.74,-7.62,-7.26,3.02,3.02,3.02
42.18,10.74,7.73,10.74,7.72,-7.72,-7.62,-7.21,3.02,3.02,3.02
42.60,10.71,7.69,10.71,7.69,-7.69,-7.61,-7.16,3.02,3.02,3.02
43.03,10.68,7.66,10.68,7.66,-7.66,-7.60,-7.11,3.02,3.02,3.03
43.46,10.65,7.63,10.65,7.63,-7.63,-7.59,-7.07,3.02,3.02,3.03
43.90,10.62,7.60,10.62,7.59,-7.60,-7.58,-7.04,3.03,3.03,3.03
44.33,10.59,7.57,10.59,7.57,-7.56,-7.58,-7.01,3.03,3.03,3.03
44.78,10.56,7.54,10.56,7.53,-7.53,-7.57,-6.99,3.03,3.03,3.03
45.23,10.53,7.51,10.53,7.50,-7.50,-7.56,-6.97,3.03,3.03,3.03
45.68,10.50,7.48,10.51,7.48,-7.48,-7.55,-6.96,3.03,3.03,3.03
46.13,10.48,7.46,10.48,7.45,-7.46,-7.54,-6.95,3.03,3.03,3.03
46.60,10.46,7.44,10.46,7.43,-7.44,-7.52,-6.94,3.03,3.02,3.03
47.06,10.44,7.42,10.44,7.42,-7.42,-7.51,-6.95,3.02,3.02,3.03
47.53,10.43,7.42,10.43,7.41,-7.42,-7.50,-6.95,3.02,3.02,3.02
48.01,10.42,7.41,10.43,7.41,-7.41,-7.49,-6.96,3.01,3.01,3.02
48.49,10.43,7.42,10.43,7.41,-7.41,-7.48,-6.98,3.02,3.01,3.02
48.97,10.43,7.42,10.44,7.42,-7.42,-7.46,-7.00,3.01,3.02,3.02
49.46,10.44,7.43,10.44,7.43,-7.43,-7.45,-7.02,3.02,3.02,3.02
49.96,10.45,7.44,10.45,7.44,-7.44,-7.44,-7.05,3.02,3.02,3.02
50.46,10.46,7.45,10.46,7.45,-7.44,-7.42,-7.08,3.02,3.02,3.02
50.96,10.47,7.46,10.47,7.45,-7.45,-7.41,-7.11,3.03,3.03,3.02
51.47,10.47,7.45,10.48,7.45,-7.45,-7.40,-7.15,3.03,3.03,3.03
51.99,10.47,7.45,10.47,7.44,-7.44,-7.38,-7.19,3.03,3.03,3.03
52.51,10.46,7.44,10.46,7.43,-7.43,-7.37,-7.23,3.03,3.03,3.03
53.03,10.44,7.42,10.45,7.42,-7.41,-7.35,-7.27,3.03,3.03,3.03
53.56,10.42,7.40,10.42,7.39,-7.39,-7.33,-7.32,3.03,3.03,3.03
54.10,10.40,7.37,10.40,7.37,-7.37,-7.32,-7.36,3.04,3.03,3.04
54.64,10.37,7.34,10.38,7.34,-7.34,-7.30,-7.40,3.04,3.04,3.04
55.18,10.35,7.32,10.35,7.31,-7.31,-7.29,-7.45,3.05,3.04,3.04
55.74,10.31,7.28,10.32,7.27,-7.27,-7.27,-7.49,3.04,3.04,3.04
56.29,10.28,7.24,10.29,7.24,-7.24,-7.25,-7.52,3.05,3.05,3.05
56.86,10.25,7.21,10.25,7.20,-7.20,-7.23,-7.56,3.05,3.05,3.05
57.42,10.22,7.18,10.22,7.17,-7.17,-7.21,-7.59,3.05,3.05,3.05
58.00,10.19,7.14,10.20,7.14,-7.14,-7.20,-7.62,3.05,3.05,3.06
58.58,10.17,7.12,10.17,7.11,-7.12,-7.18,-7.65,3.06,3.05,3.06
59.16,10.14,7.09,10.15,7.09,-7.10,-7.16,-7.67,3.05,3.05,3.06
59.76,10.13,7.07,10.14,7.07,-7.08,-7.14,-7.68,3.05,3.06,3.07
60.35,10.13,7.07,10.13,7.06,-7.07,-7.12,-7.69,3.06,3.06,3.07
60.96,10.13,7.07,10.13,7.06,-7.06,-7.10,-7.69,3.07,3.07,3.07
61.57,10.12,7.06,10.13,7.06,-7.06,-7.08,-7.68,3.07,3.07,3.07
62.18,10.12,7.06,10.13,7.06,-7.05,-7.05,-7.67,3.07,3.07,3.07
62.80,10.12,7.06,10.12,7.05,-7.04,-7.03,-7.65,3.08,3.08,3.07
63.43,10.11,7.05,10.11,7.04,-7.03,-7.01,-7.62,3.08,3.08,3.07
64.07,10.09,7.03,10.09,7.02,-7.01,-6.99,-7.58,3.08,3.08,3.07
64.71,10.06,7.00,10.07,7.00,-6.99,-6.97,-7.54,3.07,3.07,3.07
65.35,10.03,6.97,10.03,6.97,-6.97,-6.94,-7.49,3.06,3.06,3.07
66.01,10.00,6.94,10.00,6.94,-6.94,-6.92,-7.44,3.06,3.06,3.07
66.67,9.97,6.91,9.98,6.91,-6.92,-6.89,-7.38,3.06,3.06,3.07
67.33,9.95,6.89,9.95,6.88,-6.89,-6.87,-7.31,3.07,3.06,3.07
68.01,9.92,6.86,9.93,6.86,-6.86,-6.85,-7.24,3.07,3.07,3.07
68.69,9.90,6.84,9.90,6.83,-6.83,-6.82,-7.16,3.07,3.07,3.07
69.37,9.87,6.81,9.87,6.81,-6.80,-6.80,-7.08,3.07,3.07,3.07
70.07,9.84,6.78,9.84,6.78,-6.77,-6.77,-7.00,3.07,3.07,3.07
70.77,9.81,6.75,9.81,6.74,-6.74,-6.74,-6.91,3.07,3.07,3.07
71.48,9.78,6.71,9.78,6.71,-6.71,-6.72,-6.83,3.07,3.07,3.08
72.19,9.75,6.68,9.75,6.68,-6.68,-6.69,-6.74,3.07,3.07,3.08
72.91,9.72,6.65,9.72,6.64,-6.65,-6.66,-6.65,3.08,3.08,3.08
73.64,9.69,6.62,9.70,6.62,-6.62,-6.64,-6.56,3.08,3.08,3.08
74.38,9.67,6.59,9.67,6.59,-6.59,-6.61,-6.47,3.08,3.08,3.09
75.12,9.65,6.57,9.65,6.56,-6.56,-6.58,-6.38,3.09,3.09,3.09
75.87,9.63,6.54,9.63,6.54,-6.54,-6.55,-6.29,3.10,3.09,3.10
76.63,9.60,6.51,9.61,6.51,-6.51,-6.52,-6.20,3.10,3.10,3.10
77.40,9.58,6.49,9.58,6.48,-6.48,-6.49,-6.12,3.10,3.10,3.10
78.17,9.56,6.46,9.56,6.46,-6.45,-6.46,-6.04,3.11,3.11,3.11
78.95,9.53,6.43,9.54,6.43,-6.42,-6.43,-5.96,3.11,3.12,3.11
79.74,9.50,6.40,9.50,6.39,-6.39,-6.40,-5.88,3.12,3.12,3.11
80.54,9.47,6.36,9.47,6.35,-6.36,-6.37,-5.81,3.12,3.11,3.12
81.35,9.43,6.32,9.44,6.32,-6.33,-6.34,-5.74,3.11,3.11,3.12
82.16,9.40,6.29,9.41,6.29,-6.30,-6.31,-5.67,3.11,3.11,3.12
82.98,9.38,6.27,9.38,6.26,-6.27,-6.28,-5.61,3.11,3.11,3.12
83.81,9.36,6.25,9.36,6.24,-6.24,-6.25,-5.55,3.12,3.12,3.12
84.65,9.34,6.22,9.35,6.22,-6.22,-6.21,-5.49,3.13,3.13,3.13
85.50,9.32,6.20,9.32,6.20,-6.19,-6.18,-5.44,3.13,3.13,3.13
86.35,9.30,6.18,9.30,6.17,-6.16,-6.15,-5.39,3.14,3.14,3.13
87.22,9.26,6.14,9.27,6.14,-6.13,-6.11,-5.35,3.13,3.14,3.13
88.09,9.23,6.11,9.23,6.10,-6.10,-6.08,-5.31,3.14,3.14,3.13
88.97,9.19,6.07,9.19,6.06,-6.06,-6.05,-5.27,3.13,3.13,3.13
89.86,9.14,6.02,9.15,6.02,-6.03,-6.01,-5.24,3.12,3.12,3.13
90.76,9.10,5.98,9.11,5.98,-5.99,-5.98,-5.21,3.11,3.12,3.13
91.66,9.07,5.95,9.07,5.94,-5.96,-5.94,-5.19,3.12,3.12,3.13
92.58,9.04,5.92,9.05,5.92,-5.92,-5.91,-5.16,3.12,3.12,3.13
93.51,9.02,5.90,9.02,5.89,-5.89,-5.87,-5.15,3.13,3.13,3.13
94.44,8.99,5.87,9.00,5.87,-5.86,-5.83,-5.13,3.14,3.14,3.13
95.39,8.96,5.84,8.96,5.84,-5.82,-5.80,-5.12,3.14,3.14,3.13
96.34,8.93,5.81,8.93,5.80,-5.79,-5.76,-5.12,3.14,3.14,3.13
97.30,8.88,5.75,8.89,5.75,-5.75,-5.72,-5.11,3.13,3.14,3.14
98.28,8.84,5.71,8.85,5.71,-5.71,-5.69,-5.11,3.13,3.13,3.14
99.26,8.80,5.67,8.80,5.66,-5.67,-5.65,-5.12,3.13,3.13,3.14
100.25,8.76,5.63,8.76,5.63,-5.63,-5.61,-5.12,3.14,3.14,3.14
101.25,8.72,5.59,8.72,5.59,-5.59,-5.57,-5.13,3.14,3.14,3.14
102.27,8.68,5.55,8.68,5.54,-5.54,-5.53,-5.14,3.14,3.14,3.14
103.29,8.64,5.51,8.64,5.50,-5.50,-5.49,-5.15,3.14,3.14,3.14
104.32,8.59,5.45,8.60,5.46,-5.46,-5.46,-5.16,3.13,3.14,3.15
105.37,8.56,5.42,8.56,5.42,-5.42,-5.42,-5.17,3.15,3.15,3.15
106.42,8.53,5.39,8.53,5.37,-5.37,-5.38,-5.19,3.16,3.16,3.15
107.48,8.48,5.33,8.48,5.33,-5.32,-5.34,-5.20,3.16,3.17,3.16
108.56,8.43,5.28,8.43,5.28,-5.27,-5.30,-5.22,3.17,3.17,3.16
109.64,8.37,5.22,8.38,5.22,-5.22,-5.26,-5.24,3.16,3.16,3.16
110.74,8.32,5.17,8.32,5.16,-5.17,-5.21,-5.25,3.16,3.15,3.16
111.85,8.26,5.11,8.27,5.10,-5.11,-5.17,-5.26,3.15,3.15,3.16
112.97,8.21,5.05,8.22,5.05,-5.06,-5.13,-5.27,3.15,3.16,3.17
114.10,8.17,5.01,8.17,5.01,-5.01,-5.09,-5.28,3.16,3.16,3.17
115.24,8.13,4.97,8.13,4.96,-4.96,-5.05,-5.29,3.17,3.17,3.17
116.39,8.09,4.93,8.09,4.92,-4.91,-5.01,-5.29,3.18,3.18,3.17
117.55,8.04,4.87,8.04,4.87,-4.86,-4.96,-5.29,3.18,3.18,3.18
118.73,7.99,4.82,7.99,4.82,-4.81,-4.92,-5.29,3.18,3.18,3.18
119.92,7.94,4.77,7.94,4.76,-4.77,-4.88,-5.28,3.18,3.18,3.18
121.12,7.89,4.72,7.90,4.72,-4.72,-4.84,-5.27,3.18,3.18,3.18
122.33,7.85,4.67,7.85,4.67,-4.67,-4.79,-5.25,3.18,3.18,3.19
123.55,7.81,4.63,7.81,4.62,-4.63,-4.75,-5.23,3.19,3.19,3.19
124.79,7.77,4.58,7.78,4.58,-4.58,-4.71,-5.20,3.19,3.20,3.20
126.03,7.74,4.55,7.74,4.54,-4.54,-4.66,-5.17,3.20,3.20,3.20
127.29,7.70,4.50,7.70,4.50,-4.50,-4.62,-5.13,3.21,3.20,3.21
128.57,7.66,4.46,7.67,4.46,-4.46,-4.57,-5.09,3.21,3.21,3.21
129.85,7.62,4.42,7.63,4.42,-4.42,-4.53,-5.04,3.21,3.21,3.21
131.15,7.59,4.39,7.59,4.38,-4.37,-4.48,-4.99,3.22,3.22,3.21
132.46,7.55,4.34,7.55,4.34,-4.33,-4.44,-4.94,3.22,3.22,3.22
133.79,7.51,4.30,7.51,4.29,-4.29,-4.39,-4.88,3.23,3.22,3.22
135.12,7.46,4.25,7.46,4.24,-4.25,-4.35,-4.81,3.22,3.21,3.22
136.48,7.41,4.20,7.42,4.20,-4.21,-4.30,-4.74,3.20,3.21,3.22
137.84,7.37,4.16,7.38,4.16,-4.18,-4.26,-4.67,3.20,3.20,3.22
139.22,7.35,4.14,7.35,4.13,-4.14,-4.21,-4.60,3.21,3.21,3.22
140.61,7.33,4.12,7.33,4.11,-4.11,-4.17,-4.52,3.22,3.22,3.22
142.02,7.31,4.09,7.32,4.09,-4.08,-4.12,-4.44,3.23,3.24,3.23
143.44,7.29,4.07,7.29,4.06,-4.05,-4.07,-4.36,3.25,3.24,3.23
144.87,7.26,4.04,7.26,4.03,-4.02,-4.03,-4.28,3.25,3.24,3.23
146.32,7.22,3.99,7.22,3.99,-3.99,-3.98,-4.20,3.24,3.24,3.24
147.78,7.18,3.95,7.18,3.95,-3.95,-3.93,-4.12,3.23,3.23,3.24
149.26,7.14,3.91,7.15,3.91,-3.92,-3.89,-4.04,3.22,3.23,3.24
150.75,7.12,3.88,7.12,3.88,-3.89,-3.84,-3.95,3.24,3.24,3.25
152.26,7.10,3.86,7.10,3.85,-3.85,-3.79,-3.87,3.25,3.25,3.25
153.78,7.07,3.83,7.08,3.82,-3.82,-3.75,-3.79,3.25,3.26,3.25
155.32,7.04,3.79,7.05,3.79,-3.79,-3.70,-3.71,3.26,3.26,3.26
156.88,7.01,3.76,7.01,3.75,-3.75,-3.65,-3.63,3.26,3.26,3.26
158.44,6.97,3.72,6.98,3.72,-3.71,-3.60,-3.55,3.26,3.26,3.26
160.03,6.93,3.68,6.94,3.68,-3.67,-3.56,-3.47,3.27,3.27,3.26
161.63,6.89,3.64,6.89,3.63,-3.62,-3.51,-3.39,3.27,3.27,3.26
163.24,6.84,3.58,6.84,3.58,-3.57,-3.46,-3.32,3.27,3.27,3.27
164.88,6.78,3.52,6.78,3.52,-3.52,-3.41,-3.25,3.27,3.27,3.27
166.53,6.72,3.46,6.73,3.46,-3.47,-3.37,-3.18,3.26,3.26,3.27
168.19,6.67,3.41,6.67,3.40,-3.42,-3.32,-3.11,3.26,3.26,3.27
169.87,6.62,3.35,6.63,3.35,-3.36,-3.27,-3.04,3.26,3.26,3.28
171.57,6.58,3.31,6.59,3.31,-3.31,-3.22,-2.98,3.27,3.28,3.28
173.29,6.55,3.28,6.55,3.27,-3.26,-3.17,-2.92,3.30,3.29,3.28
175.02,6.50,3.23,6.50,3.22,-3.20,-3.12,-2.86,3.30,3.30,3.28
176.77,6.44,3.16,6.45,3.16,-3.15,-3.08,-2.80,3.30,3.30,3.29
178.54,6.38,3.10,6.38,3.10,-3.10,-3.03,-2.74,3.29,3.29,3.29
180.32,6.32,3.04,6.32,3.03,-3.05,-2.98,-2.69,3.28,3.28,3.29
182.13,6.26,2.98,6.27,2.98,-2.99,-2.93,-2.64,3.27,3.27,3.29
183.95,6.21,2.93,6.22,2.93,-2.94,-2.88,-2.59,3.27,3.28,3.29
185.79,6.18,2.90,6.18,2.89,-2.90,-2.83,-2.54,3.29,3.29,3.29
187.65,6.15,2.87,6.15,2.86,-2.85,-2.78,-2.49,3.30,3.30,3.29
189.52,6.11,2.83,6.11,2.82,-2.81,-2.73,-2.45,3.30,3.30,3.29
191.42,6.06,2.78,6.06,2.78,-2.77,-2.69,-2.41,3.29,3.29,3.29
193.33,6.01,2.73,6.02,2.73,-2.73,-2.64,-2.37,3.28,3.28,3.29
195.27,5.97,2.69,5.97,2.69,-2.69,-2.59,-2.33,3.28,3.28,3.29
197.22,5.93,2.65,5.94,2.65,-2.65,-2.54,-2.29,3.29,3.29,3.29
199.19,5.90,2.62,5.90,2.61,-2.60,-2.49,-2.25,3.30,3.30,3.29
201.18,5.86,2.57,5.86,2.56,-2.56,-2.44,-2.22,3.31,3.30,3.30
203.19,5.81,2.52,5.81,2.51,-2.51,-2.39,-2.19,3.30,3.30,3.30
205.23,5.76,2.46,5.76,2.46,-2.47,-2.34,-2.16,3.30,3.30,3.31
207.28,5.71,2.41,5.72,2.41,-2.42,-2.29,-2.13,3.30,3.30,3.31
209.35,5.67,2.37,5.67,2.36,-2.37,-2.24,-2.10,3.31,3.31,3.31
211.44,5.63,2.32,5.64,2.32,-2.32,-2.19,-2.07,3.32,3.32,3.32
213.56,5.59,2.28,5.59,2.27,-2.26,-2.14,-2.04,3.33,3.33,3.32
215.69,5.54,2.23,5.54,2.22,-2.21,-2.09,-2.01,3.34,3.33,3.32
217.85,5.47,2.16,5.48,2.16,-2.15,-2.04,-1.98,3.32,3.33,3.32
220.03,5.41,2.09,5.41,2.09,-2.10,-1.99,-1.96,3.32,3.32,3.33
222.23,5.35,2.03,5.35,2.03,-2.04,-1.94,-1.93,3.31,3.31,3.33
224.45,5.30,1.98,5.30,1.97,-1.98,-1.90,-1.90,3.32,3.32,3.33
226.70,5.25,1.93,5.26,1.93,-1.93,-1.85,-1.87,3.33,3.33,3.33
228.96,5.21,1.88,5.21,1.88,-1.87,-1.80,-1.85,3.34,3.34,3.34
231.25,5.16,1.83,5.16,1.82,-1.81,-1.75,-1.82,3.35,3.35,3.34
233.57,5.10,1.77,5.10,1.76,-1.76,-1.70,-1.79,3.35,3.35,3.34
235.90,5.04,1.70,5.04,1.70,-1.70,-1.65,-1.76,3.34,3.34,3.35
238.26,4.98,1.64,4.99,1.64,-1.64,-1.60,-1.73,3.34,3.34,3.35
240.64,4.93,1.58,4.94,1.58,-1.58,-1.55,-1.69,3.35,3.36,3.36
243.05,4.89,1.53,4.89,1.52,-1.52,-1.50,-1.66,3.37,3.37,3.37
245.48,4.84,1.47,4.84,1.47,-1.46,-1.45,-1.62,3.39,3.38,3.38
247.93,4.78,1.41,4.79,1.41,-1.40,-1.40,-1.59,3.38,3.39,3.38
250.41,4.73,1.35,4.73,1.34,-1.34,-1.35,-1.55,3.39,3.39,3.39
252.92,4.67,1.28,4.68,1.28,-1.29,-1.30,-1.51,3.39,3.39,3.40
255.45,4.62,1.22,4.63,1.22,-1.23,-1.25,-1.47,3.39,3.40,3.41
258.00,4.58,1.18,4.58,1.17,-1.18,-1.20,-1.43,3.41,3.41,3.41
260.58,4.54,1.13,4.54,1.13,-1.12,-1.15,-1.38,3.42,3.42,3.42
263.19,4.50,1.09,4.50,1.08,-1.07,-1.10,-1.33,3.43,3.43,3.42
265.82,4.44,1.03,4.45,1.02,-1.02,-1.05,-1.29,3.42,3.42,3.42
268.48,4.39,0.97,4.39,0.97,-0.98,-0.99,-1.24,3.42,3.42,3.43
271.16,4.34,0.92,4.35,0.92,-0.93,-0.94,-1.19,3.42,3.42,3.43
273.87,4.30,0.88,4.31,0.88,-0.87,-0.89,-1.14,3.43,3.43,3.43
276.61,4.27,0.84,4.27,0.83,-0.82,-0.84,-1.08,3.45,3.45,3.44
279.38,4.22,0.79,4.22,0.78,-0.77,-0.79,-1.03,3.46,3.45,3.44
282.17,4.16,0.72,4.17,0.72,-0.71,-0.74,-0.97,3.45,3.45,3.45
284.99,4.10,0.66,4.10,0.66,-0.66,-0.69,-0.92,3.44,3.44,3.45
287.84,4.04,0.60,4.04,0.60,-0.61,-0.64,-0.86,3.43,3.44,3.45
290.72,3.99,0.55,3.99,0.55,-0.56,-0.59,-0.80,3.44,3.44,3.45
293.63,3.94,0.50,3.95,0.50,-0.50,-0.54,-0.74,3.44,3.45,3.45
296.57,3.91,0.47,3.91,0.46,-0.45,-0.49,-0.68,3.46,3.46,3.45
299.53,3.87,0.42,3.87,0.42,-0.40,-0.44,-0.62,3.47,3.47,3.46
302.53,3.82,0.37,3.83,0.37,-0.36,-0.39,-0.56,3.47,3.47,3.46
305.55,3.77,0.32,3.77,0.31,-0.31,-0.34,-0.50,3.46,3.46,3.46
308.61,3.72,0.26,3.72,0.26,-0.27,-0.28,-0.44,3.46,3.46,3.47
311.69,3.67,0.21,3.68,0.21,-0.22,-0.23,-0.38,3.45,3.46,3.47
314.81,3.64,0.17,3.64,0.17,-0.17,-0.18,-0.32,3.47,3.47,3.48
317.96,3.61,0.14,3.61,0.13,-0.13,-0.13,-0.25,3.49,3.48,3.48
321.14,3.57,0.09,3.57,0.09,-0.08,-0.08,-0.19,3.49,3.49,3.49
324.35,3.52,0.04,3.52,0.04,-0.03,-0.03,-0.12,3.49,3.49,3.49
327.59,3.47,-0.01,3.48,-0.02,0.01,0.02,-0.06,3.49,3.49,3.49
330.87,3.43,-0.06,3.43,-0.06,0.06,0.07,0.00,3.49,3.49,3.50
334.18,3.39,-0.11,3.40,-0.11,0.11,0.13,0.07,3.51,3.51,3.51
337.52,3.35,-0.15,3.35,-0.16,0.17,0.18,0.14,3.52,3.52,3.51
340.90,3.30,-0.21,3.30,-0.22,0.22,0.23,0.20,3.53,3.52,3.52
344.30,3.23,-0.28,3.24,-0.28,0.28,0.28,0.27,3.52,3.52,3.52
347.75,3.17,-0.34,3.18,-0.34,0.34,0.33,0.33,3.52,3.52,3.52
351.23,3.11,-0.40,3.11,-0.41,0.40,0.39,0.40,3.52,3.52,3.52
354.74,3.05,-0.47,3.05,-0.47,0.47,0.44,0.47,3.52,3.52,3.53
358.28,2.99,-0.53,3.00,-0.53,0.53,0.49,0.54,3.52,3.53,3.53
361.87,2.94,-0.58,2.94,-0.59,0.59,0.54,0.60,3.53,3.53,3.53
365.49,2.88,-0.64,2.88,-0.64,0.65,0.59,0.67,3.53,3.53,3.53
369.14,2.82,-0.70,2.82,-0.71,0.71,0.65,0.74,3.53,3.53,3.53
372.83,2.76,-0.76,2.76,-0.77,0.77,0.70,0.81,3.53,3.53,3.53
376.56,2.70,-0.83,2.71,-0.83,0.82,0.75,0.88,3.53,3.53,3.54
380.33,2.65,-0.88,2.65,-0.88,0.88,0.80,0.95,3.53,3.53,3.54
384.13,2.60,-0.93,2.61,-0.93,0.93,0.86,1.02,3.54,3.54,3.54
387.97,2.56,-0.97,2.56,-0.98,0.99,0.91,1.09,3.55,3.55,3.54
391.85,2.50,-1.04,2.51,-1.04,1.04,0.96,1.16,3.55,3.55,3.55
395.77,2.45,-1.09,2.46,-1.09,1.09,1.01,1.23,3.55,3.55,3.55
399.73,2.40,-1.15,2.41,-1.15,1.15,1.07,1.31,3.55,3.55,3.56
403.72,2.36,-1.19,2.36,-1.20,1.20,1.12,1.38,3.56,3.56,3.56
407.76,2.31,-1.25,2.32,-1.25,1.25,1.17,1.45,3.57,3.57,3.57
411.84,2.27,-1.29,2.27,-1.30,1.31,1.22,1.52,3.58,3.58,3.57
415.96,2.21,-1.36,2.22,-1.36,1.36,1.28,1.59,3.58,3.58,3.58
420.12,2.16,-1.41,2.16,-1.42,1.41,1.33,1.66,3.58,3.58,3.58
424.32,2.10,-1.47,2.11,-1.48,1.47,1.38,1.73,3.57,3.57,3.58
428.56,2.05,-1.53,2.06,-1.53,1.52,1.43,1.79,3.57,3.58,3.59
432.85,2.01,-1.57,2.01,-1.57,1.57,1.49,1.86,3.59,3.59,3.59
437.18,1.97,-1.61,1.97,-1.62,1.63,1.54,1.93,3.60,3.60,3.59
441.55,1.92,-1.66,1.92,-1.67,1.68,1.59,1.99,3.60,3.60,3.59
445.96,1.86,-1.72,1.86,-1.73,1.73,1.64,2.05,3.59,3.59,3.59
450.42,1.80,-1.78,1.80,-1.78,1.78,1.70,2.11,3.58,3.58,3.59
454.93,1.74,-1.84,1.75,-1.84,1.83,1.75,2.17,3.57,3.58,3.59
459.48,1.70,-1.88,1.70,-1.88,1.88,1.80,2.23,3.58,3.58,3.59
464.07,1.66,-1.92,1.66,-1.93,1.93,1.85,2.28,3.59,3.59,3.59
468.71,1.62,-1.96,1.62,-1.97,1.98,1.90,2.33,3.60,3.60,3.59
473.40,1.57,-2.01,1.57,-2.02,2.03,1.95,2.38,3.60,3.60,3.59
478.13,1.52,-2.07,1.52,-2.07,2.08,2.00,2.43,3.60,3.60,3.60
482.91,1.46,-2.13,1.47,-2.13,2.13,2.06,2.47,3.59,3.59,3.60
487.74,1.41,-2.18,1.41,-2.19,2.18,2.11,2.51,3.59,3.59,3.60
492.62,1.36,-2.23,1.37,-2.24,2.23,2.16,2.54,3.59,3.59,3.60
497.55,1.32,-2.28,1.32,-2.28,2.28,2.21,2.58,3.60,3.60,3.61
502.52,1.28,-2.32,1.28,-2.32,2.33,2.26,2.61,3.61,3.61,3.61
507.55,1.24,-2.36,1.24,-2.37,2.37,2.31,2.63,3.62,3.61,3.61
512.62,1.20,-2.40,1.20,-2.41,2.42,2.36,2.65,3.62,3.62,3.61
517.75,1.15,-2.46,1.16,-2.46,2.46,2.40,2.67,3.61,3.62,3.62
522.93,1.11,-2.50,1.11,-2.50,2.50,2.45,2.69,3.62,3.62,3.62
528.16,1.07,-2.54,1.08,-2.54,2.54,2.50,2.70,3.62,3.62,3.62
