frequency,raw,error,smoothed,error_smoothed,equalization,parametric_eq,fixed_band_eq,equalized_raw,equalized_smoothed,target
20.00,3.50,-1.39,3.50,-1.39,1.39,1.17,0.29,4.89,4.89,4.89
20.20,3.52,-1.35,3.52,-1.36,1.36,1.15,0.30,4.88,4.88,4.87
20.40,3.54,-1.32,3.54,-1.33,1.33,1.14,0.31,4.87,4.87,4.86
20.61,3.56,-1.30,3.56,-1.30,1.30,1.13,0.32,4.86,4.86,4.86
20.81,3.57,-1.27,3.57,-1.27,1.27,1.11,0.33,4.84,4.85,4.84
21.02,3.59,-1.24,3.59,-1.24,1.24,1.09,0.34,4.83,4.84,4.83
21.23,3.61,-1.21,3.61,-1.22,1.22,1.08,0.36,4.83,4.83,4.82
21.44,3.63,-1.20,3.63,-1.19,1.19,1.06,0.37,4.82,4.82,4.83
21.66,3.65,-1.17,3.65,-1.17,1.17,1.05,0.38,4.81,4.82,4.82
21.87,3.67,-1.14,3.67,-1.14,1.14,1.03,0.40,4.81,4.81,4.81
22.09,3.69,-1.11,3.69,-1.11,1.11,1.01,0.41,4.80,4.80,4.80
22.31,3.71,-1.09,3.71,-1.09,1.09,1.00,0.43,4.80,4.80,4.80
22.54,3.73,-1.06,3.73,-1.06,1.06,0.98,0.44,4.79,4.79,4.79
22.76,3.75,-1.05,3.75,-1.04,1.04,0.96,0.46,4.79,4.79,4.80
22.99,3.77,-1.02,3.77,-1.02,1.01,0.94,0.47,4.78,4.78,4.79
23.22,3.79,-0.99,3.79,-0.99,0.99,0.92,0.49,4.78,4.78,4.78
23.45,3.81,-0.97,3.81,-0.97,0.97,0.91,0.51,4.78,4.78,4.78
23.69,3.83,-0.95,3.83,-0.95,0.95,0.89,0.52,4.78,4.78,4.78
23.92,3.84,-0.93,3.84,-0.93,0.93,0.87,0.54,4.77,4.78,4.77
24.16,3.86,-0.91,3.86,-0.92,0.91,0.85,0.56,4.77,4.77,4.77
24.40,3.88,-0.90,3.88,-0.90,0.89,0.83,0.58,4.77,4.77,4.78
24.65,3.90,-0.88,3.90,-0.88,0.87,0.81,0.60,4.77,4.77,4.78
24.89,3.92,-0.85,3.92,-0.85,0.85,0.79,0.61,4.77,4.77,4.77
25.14,3.94,-0.82,3.94,-0.82,0.83,0.77,0.63,4.77,4.77,4.76
25.39,3.96,-0.80,3.96,-0.80,0.80,0.75,0.65,4.76,4.76,4.76
25.65,3.98,-0.77,3.98,-0.77,0.78,0.73,0.67,4.76,4.76,4.75
25.91,4.00,-0.75,4.00,-0.75,0.75,0.71,0.68,4.75,4.75,4.75
26.16,4.02,-0.74,4.02,-0.73,0.73,0.69,0.70,4.75,4.75,4.76
26.43,4.04,-0.71,4.04,-0.71,0.71,0.67,0.72,4.74,4.75,4.75
26.69,4.06,-0.69,4.06,-0.69,0.68,0.65,0.73,4.74,4.74,4.75
26.96,4.08,-0.67,4.08,-0.66,0.66,0.62,0.75,4.74,4.74,4.74
27.23,4.10,-0.63,4.10,-0.64,0.64,0.60,0.76,4.74,4.74,4.73
27.50,4.12,-0.61,4.12,-0.62,0.62,0.58,0.78,4.74,4.74,4.73
27.77,4.13,-0.61,4.13,-0.60,0.60,0.56,0.79,4.73,4.74,4.74
28.05,4.15,-0.59,4.15,-0.59,0.59,0.54,0.80,4.74,4.74,4.74
28.33,4.17,-0.57,4.17,-0.57,0.57,0.52,0.81,4.74,4.74,4.74
28.62,4.19,-0.55,4.19,-0.55,0.55,0.49,0.82,4.74,4.74,4.74
28.90,4.21,-0.54,4.21,-0.53,0.53,0.47,0.83,4.74,4.74,4.75
29.19,4.23,-0.52,4.23,-0.51,0.52,0.45,0.83,4.75,4.75,4.75
29.48,4.25,-0.49,4.25,-0.50,0.50,0.43,0.83,4.75,4.75,4.74
29.78,4.27,-0.47,4.27,-0.48,0.48,0.40,0.83,4.75,4.75,4.74
30.08,4.28,-0.48,4.28,-0.47,0.46,0.38,0.83,4.74,4.75,4.76
30.38,4.30,-0.45,4.30,-0.45,0.45,0.36,0.83,4.75,4.75,4.75
30.68,4.32,-0.43,4.32,-0.43,0.43,0.33,0.82,4.75,4.75,4.75
30.99,4.34,-0.41,4.34,-0.41,0.41,0.31,0.82,4.75,4.75,4.75
31.30,4.35,-0.39,4.35,-0.39,0.39,0.29,0.80,4.74,4.74,4.74
31.61,4.37,-0.37,4.37,-0.37,0.37,0.26,0.79,4.74,4.74,4.74
31.93,4.39,-0.34,4.39,-0.35,0.35,0.24,0.78,4.74,4.73,4.73
32.24,4.40,-0.33,4.40,-0.32,0.33,0.21,0.76,4.73,4.73,4.73
32.57,4.42,-0.30,4.42,-0.30,0.30,0.19,0.74,4.72,4.72,4.72
32.89,4.43,-0.28,4.43,-0.28,0.28,0.16,0.71,4.71,4.71,4.71
33.22,4.45,-0.26,4.45,-0.26,0.26,0.14,0.69,4.71,4.71,4.71
33.55,4.47,-0.24,4.47,-0.23,0.23,0.11,0.66,4.70,4.70,4.71
33.89,4.49,-0.21,4.49,-0.21,0.21,0.09,0.63,4.70,4.70,4.70
34.23,4.51,-0.17,4.51,-0.17,0.18,0.06,0.60,4.69,4.69,4.68
34.57,4.53,-0.15,4.53,-0.15,0.15,0.04,0.57,4.68,4.68,4.68
34.92,4.55,-0.12,4.55,-0.12,0.12,0.01,0.53,4.67,4.67,4.67
35.27,4.56,-0.11,4.56,-0.10,0.10,-0.02,0.49,4.66,4.66,4.67
35.62,4.58,-0.06,4.58,-0.07,0.07,-0.04,0.46,4.65,4.65,4.64
35.97,4.60,-0.04,4.60,-0.04,0.04,-0.07,0.42,4.64,4.64,4.64
36.33,4.61,-0.01,4.61,-0.01,0.01,-0.10,0.37,4.62,4.63,4.62
36.70,4.63,0.02,4.63,0.02,-0.02,-0.13,0.33,4.61,4.61,4.61
37.06,4.64,0.04,4.64,0.04,-0.05,-0.16,0.29,4.59,4.59,4.60
37.43,4.66,0.08,4.66,0.08,-0.08,-0.19,0.24,4.58,4.58,4.58
37.81,4.67,0.10,4.67,0.11,-0.11,-0.21,0.20,4.56,4.56,4.57
38.19,4.69,0.14,4.69,0.14,-0.14,-0.24,0.15,4.55,4.55,4.55
38.57,4.70,0.17,4.70,0.17,-0.17,-0.27,0.10,4.53,4.53,4.53
38.95,4.71,0.20,4.71,0.20,-0.20,-0.31,0.06,4.51,4.51,4.51
39.34,4.72,0.24,4.72,0.23,-0.23,-0.34,0.01,4.49,4.49,4.48
39.74,4.72,0.25,4.72,0.26,-0.26,-0.37,-0.04,4.46,4.46,4.47
40.14,4.73,0.29,4.73,0.29,-0.29,-0.40,-0.09,4.44,4.44,4.44
40.54,4.74,0.31,4.74,0.32,-0.32,-0.43,-0.14,4.42,4.42,4.43
40.94,4.75,0.35,4.75,0.35,-0.34,-0.47,-0.19,4.41,4.40,4.40
41.35,4.76,0.37,4.76,0.37,-0.37,-0.50,-0.25,4.39,4.39,4.39
41.76,4.77,0.40,4.77,0.40,-0.41,-0.54,-0.30,4.36,4.37,4.37
42.18,4.79,0.44,4.79,0.44,-0.44,-0.57,-0.35,4.35,4.35,4.35
42.60,4.80,0.47,4.80,0.47,-0.48,-0.61,-0.40,4.32,4.33,4.33
43.03,4.82,0.52,4.82,0.52,-0.52,-0.64,-0.46,4.30,4.31,4.30
43.46,4.84,0.56,4.84,0.56,-0.56,-0.68,-0.51,4.28,4.28,4.28
43.90,4.86,0.60,4.86,0.60,-0.60,-0.72,-0.56,4.26,4.26,4.26
44.33,4.88,0.64,4.88,0.64,-0.64,-0.76,-0.62,4.24,4.24,4.24
44.78,4.90,0.69,4.90,0.68,-0.69,-0.80,-0.67,4.21,4.21,4.21
45.23,4.92,0.73,4.92,0.73,-0.74,-0.84,-0.73,4.18,4.19,4.19
45.68,4.94,0.78,4.94,0.78,-0.78,-0.88,-0.79,4.16,4.16,4.16
46.13,4.96,0.84,4.96,0.83,-0.83,-0.92,-0.84,4.13,4.12,4.12
46.60,4.97,0.88,4.97,0.88,-0.88,-0.96,-0.90,4.09,4.09,4.09
47.06,4.99,0.93,4.99,0.93,-0.93,-1.01,-0.96,4.06,4.06,4.06
47.53,5.01,0.98,5.01,0.98,-0.98,-1.05,-1.01,4.03,4.02,4.03
48.01,5.02,1.04,5.02,1.03,-1.04,-1.09,-1.07,3.98,3.99,3.98
48.49,5.03,1.08,5.03,1.09,-1.09,-1.14,-1.13,3.94,3.95,3.95
48.97,5.05,1.14,5.05,1.14,-1.13,-1.18,-1.19,3.92,3.91,3.91
49.46,5.06,1.18,5.06,1.19,-1.18,-1.23,-1.25,3.88,3.87,3.88
49.96,5.07,1.24,5.07,1.24,-1.23,-1.27,-1.30,3.84,3.84,3.83
50.46,5.08,1.28,5.08,1.28,-1.28,-1.32,-1.36,3.80,3.80,3.80
50.96,5.10,1.33,5.10,1.33,-1.33,-1.37,-1.42,3.77,3.77,3.77
51.47,5.11,1.37,5.11,1.37,-1.38,-1.41,-1.48,3.73,3.74,3.74
51.99,5.13,1.42,5.13,1.42,-1.42,-1.46,-1.54,3.71,3.71,3.71
52.51,5.15,1.48,5.15,1.47,-1.47,-1.50,-1.60,3.68,3.68,3.67
53.03,5.16,1.51,5.16,1.52,-1.52,-1.55,-1.66,3.64,3.64,3.65
53.56,5.17,1.57,5.17,1.56,-1.57,-1.59,-1.71,3.60,3.60,3.60
54.10,5.18,1.61,5.18,1.61,-1.62,-1.63,-1.77,3.56,3.56,3.57
54.64,5.19,1.66,5.19,1.66,-1.66,-1.67,-1.82,3.53,3.53,3.53
55.18,5.20,1.71,5.20,1.71,-1.71,-1.72,-1.88,3.49,3.49,3.49
55.74,5.21,1.76,5.21,1.75,-1.74,-1.76,-1.93,3.47,3.46,3.45
56.29,5.21,1.78,5.21,1.79,-1.78,-1.80,-1.99,3.43,3.44,3.43
56.86,5.22,1.81,5.22,1.82,-1.81,-1.83,-2.04,3.41,3.41,3.41
57.42,5.22,1.85,5.22,1.84,-1.83,-1.87,-2.09,3.39,3.38,3.37
58.00,5.21,1.87,5.21,1.86,-1.86,-1.91,-2.13,3.35,3.35,3.34
58.58,5.20,1.87,5.20,1.88,-1.88,-1.94,-2.18,3.32,3.32,3.33
59.16,5.19,1.89,5.19,1.89,-1.91,-1.98,-2.22,3.28,3.28,3.30
59.76,5.19,1.92,5.19,1.92,-1.94,-2.01,-2.26,3.25,3.25,3.27
60.35,5.19,1.96,5.19,1.96,-1.97,-2.04,-2.30,3.22,3.22,3.23
60.96,5.19,2.01,5.19,2.01,-2.01,-2.08,-2.34,3.18,3.18,3.18
61.57,5.19,2.06,5.19,2.05,-2.05,-2.11,-2.37,3.14,3.14,3.13
62.18,5.19,2.10,5.19,2.10,-2.10,-2.14,-2.41,3.09,3.09,3.09
62.80,5.19,2.15,5.19,2.15,-2.14,-2.18,-2.44,3.05,3.05,3.04
63.43,5.19,2.19,5.19,2.19,-2.18,-2.21,-2.46,3.01,3.01,3.00
64.07,5.19,2.23,5.19,2.23,-2.22,-2.24,-2.49,2.97,2.97,2.96
64.71,5.18,2.25,5.18,2.26,-2.25,-2.28,-2.51,2.93,2.93,2.93
65.35,5.18,2.29,5.18,2.29,-2.29,-2.31,-2.53,2.89,2.89,2.89
66.01,5.17,2.32,5.17,2.31,-2.32,-2.35,-2.55,2.85,2.85,2.85
66.67,5.16,2.34,5.16,2.35,-2.36,-2.39,-2.57,2.80,2.81,2.82
67.33,5.16,2.39,5.16,2.39,-2.39,-2.43,-2.58,2.77,2.77,2.77
68.01,5.17,2.44,5.17,2.44,-2.44,-2.46,-2.60,2.73,2.73,2.73
68.69,5.18,2.49,5.18,2.48,-2.48,-2.50,-2.61,2.70,2.70,2.69
69.37,5.19,2.53,5.19,2.53,-2.53,-2.55,-2.62,2.66,2.66,2.66
70.07,5.20,2.57,5.20,2.58,-2.59,-2.59,-2.63,2.61,2.62,2.63
70.77,5.22,2.64,5.22,2.64,-2.64,-2.63,-2.64,2.57,2.57,2.58
71.48,5.24,2.70,5.24,2.70,-2.71,-2.68,-2.65,2.53,2.53,2.54
72.19,5.26,2.77,5.26,2.77,-2.77,-2.72,-2.66,2.49,2.49,2.49
72.91,5.28,2.83,5.28,2.83,-2.83,-2.77,-2.67,2.45,2.46,2.45
73.64,5.31,2.90,5.31,2.90,-2.89,-2.82,-2.68,2.42,2.41,2.41
74.38,5.33,2.96,5.33,2.96,-2.95,-2.87,-2.69,2.38,2.38,2.37
75.12,5.35,3.01,5.35,3.02,-3.02,-2.92,-2.71,2.33,2.34,2.34
75.87,5.38,3.07,5.38,3.07,-3.07,-2.97,-2.72,2.31,2.31,2.31
76.63,5.41,3.13,5.41,3.13,-3.13,-3.02,-2.73,2.28,2.28,2.28
77.40,5.43,3.18,5.43,3.19,-3.18,-3.07,-2.74,2.25,2.25,2.25
78.17,5.46,3.24,5.46,3.24,-3.23,-3.12,-2.76,2.23,2.22,2.22
78.95,5.48,3.29,5.48,3.28,-3.28,-3.18,-2.78,2.20,2.19,2.19
79.74,5.49,3.32,5.50,3.33,-3.33,-3.23,-2.80,2.16,2.16,2.17
80.54,5.51,3.38,5.51,3.37,-3.38,-3.28,-2.82,2.13,2.13,2.13
81.35,5.53,3.42,5.53,3.42,-3.42,-3.34,-2.84,2.11,2.10,2.11
82.16,5.54,3.46,5.54,3.46,-3.46,-3.39,-2.86,2.08,2.08,2.08
82.98,5.55,3.51,5.55,3.50,-3.50,-3.44,-2.89,2.05,2.05,2.04
83.81,5.55,3.54,5.55,3.54,-3.54,-3.49,-2.92,2.01,2.01,2.01
84.65,5.55,3.57,5.55,3.57,-3.57,-3.54,-2.95,1.98,1.98,1.98
85.50,5.54,3.60,5.54,3.60,-3.60,-3.59,-2.98,1.94,1.94,1.94
86.35,5.53,3.62,5.53,3.62,-3.62,-3.64,-3.02,1.91,1.91,1.91
87.22,5.52,3.64,5.52,3.64,-3.65,-3.69,-3.06,1.87,1.87,1.88
88.09,5.50,3.66,5.50,3.66,-3.66,-3.74,-3.10,1.84,1.84,1.84
88.97,5.48,3.68,5.48,3.68,-3.68,-3.78,-3.14,1.80,1.80,1.80
89.86,5.45,3.69,5.45,3.69,-3.69,-3.82,-3.18,1.76,1.77,1.76
90.76,5.43,3.70,5.43,3.70,-3.70,-3.86,-3.23,1.73,1.73,1.73
91.66,5.40,3.71,5.40,3.71,-3.70,-3.90,-3.28,1.70,1.70,1.69
92.58,5.37,3.71,5.37,3.71,-3.71,-3.94,-3.33,1.66,1.66,1.66
93.51,5.33,3.71,5.33,3.71,-3.71,-3.97,-3.39,1.62,1.62,1.62
94.44,5.30,3.71,5.30,3.72,-3.72,-4.00,-3.44,1.58,1.58,1.59
95.39,5.27,3.73,5.27,3.73,-3.73,-4.03,-3.50,1.54,1.54,1.54
96.34,5.24,3.74,5.24,3.74,-3.74,-4.06,-3.56,1.50,1.50,1.50
97.30,5.21,3.75,5.21,3.75,-3.76,-4.09,-3.62,1.45,1.46,1.46
98.28,5.19,3.77,5.19,3.77,-3.78,-4.11,-3.69,1.41,1.42,1.42
99.26,5.18,3.80,5.18,3.80,-3.80,-4.13,-3.75,1.38,1.38,1.38
100.25,5.17,3.83,5.17,3.83,-3.83,-4.15,-3.82,1.34,1.34,1.34
101.25,5.17,3.85,5.17,3.86,-3.86,-4.17,-3.89,1.31,1.31,1.32
102.27,5.17,3.89,5.17,3.89,-3.89,-4.18,-3.96,1.28,1.28,1.28
103.29,5.18,3.93,5.18,3.92,-3.92,-4.19,-4.03,1.26,1.25,1.25
104.32,5.18,3.95,5.18,3.96,-3.96,-4.21,-4.10,1.22,1.22,1.23
105.37,5.19,4.00,5.19,4.00,-3.99,-4.22,-4.17,1.20,1.19,1.19
106.42,5.19,4.03,5.19,4.03,-4.03,-4.23,-4.24,1.16,1.16,1.16
107.48,5.19,4.07,5.19,4.07,-4.06,-4.24,-4.31,1.13,1.13,1.12
108.56,5.19,4.09,5.19,4.10,-4.10,-4.24,-4.38,1.09,1.10,1.10
109.64,5.19,4.13,5.19,4.13,-4.13,-4.25,-4.45,1.06,1.06,1.06
110.74,5.19,4.16,5.19,4.16,-4.16,-4.26,-4.52,1.03,1.03,1.03
111.85,5.19,4.20,5.19,4.20,-4.20,-4.27,-4.58,0.99,0.99,0.99
112.97,5.19,4.23,5.19,4.23,-4.23,-4.27,-4.65,0.96,0.96,0.96
114.10,5.19,4.26,5.19,4.27,-4.27,-4.28,-4.71,0.92,0.92,0.93
115.24,5.19,4.31,5.19,4.30,-4.31,-4.28,-4.76,0.88,0.88,0.88
116.39,5.19,4.35,5.19,4.35,-4.34,-4.29,-4.82,0.85,0.85,0.84
117.55,5.19,4.38,5.19,4.38,-4.38,-4.30,-4.87,0.81,0.81,0.81
118.73,5.19,4.42,5.19,4.42,-4.41,-4.30,-4.91,0.78,0.78,0.77
119.92,5.19,4.45,5.19,4.45,-4.44,-4.31,-4.95,0.75,0.75,0.74
121.12,5.19,4.47,5.19,4.48,-4.48,-4.32,-4.99,0.71,0.71,0.72
122.33,5.19,4.50,5.19,4.50,-4.51,-4.33,-5.02,0.68,0.68,0.69
123.55,5.19,4.54,5.19,4.53,-4.54,-4.34,-5.04,0.65,0.65,0.65
124.79,5.19,4.56,5.19,4.57,-4.58,-4.34,-5.06,0.61,0.62,0.63
126.03,5.20,4.61,5.20,4.61,-4.61,-4.35,-5.08,0.59,0.59,0.59
127.29,5.21,4.65,5.21,4.65,-4.65,-4.37,-5.09,0.56,0.56,0.56
128.57,5.21,4.68,5.21,4.68,-4.68,-4.38,-5.09,0.53,0.53,0.53
129.85,5.20,4.71,5.20,4.72,-4.71,-4.39,-5.09,0.49,0.49,0.49
131.15,5.19,4.74,5.19,4.74,-4.74,-4.40,-5.08,0.45,0.46,0.45
132.46,5.18,4.77,5.17,4.76,-4.75,-4.42,-5.07,0.43,0.42,0.41
133.79,5.15,4.78,5.15,4.78,-4.77,-4.43,-5.06,0.38,0.38,0.37
135.12,5.11,4.77,5.12,4.77,-4.78,-4.45,-5.04,0.33,0.34,0.34
136.48,5.09,4.77,5.08,4.77,-4.78,-4.46,-5.01,0.31,0.31,0.32
137.84,5.05,4.77,5.05,4.77,-4.78,-4.48,-4.99,0.27,0.28,0.28
139.22,5.02,4.78,5.02,4.77,-4.77,-4.50,-4.96,0.25,0.25,0.24
140.61,4.99,4.77,4.98,4.77,-4.77,-4.51,-4.93,0.22,0.22,0.22
142.02,4.94,4.76,4.95,4.76,-4.76,-4.53,-4.90,0.18,0.19,0.18
143.44,4.92,4.77,4.92,4.76,-4.76,-4.55,-4.87,0.16,0.16,0.15
144.87,4.89,4.75,4.89,4.76,-4.76,-4.57,-4.83,0.13,0.13,0.14
146.32,4.88,4.77,4.87,4.76,-4.76,-4.59,-4.80,0.12,0.11,0.11
147.78,4.85,4.76,4.85,4.76,-4.77,-4.61,-4.76,0.08,0.08,0.09
149.26,4.84,4.78,4.84,4.78,-4.79,-4.63,-4.73,0.05,0.05,0.06
150.75,4.84,4.80,4.84,4.80,-4.81,-4.66,-4.69,0.03,0.03,0.04
152.26,4.85,4.83,4.85,4.84,-4.84,-4.68,-4.66,0.01,0.01,0.02
153.78,4.87,4.88,4.87,4.87,-4.87,-4.70,-4.63,-0.00,-0.00,-0.01
155.32,4.88,4.91,4.88,4.91,-4.90,-4.72,-4.60,-0.02,-0.02,-0.03
156.88,4.89,4.95,4.89,4.94,-4.93,-4.74,-4.57,-0.04,-0.05,-0.06
158.44,4.88,4.97,4.88,4.97,-4.96,-4.77,-4.55,-0.08,-0.08,-0.09
160.03,4.87,4.98,4.87,4.99,-4.98,-4.79,-4.53,-0.11,-0.11,-0.11
161.63,4.85,4.99,4.85,5.00,-4.99,-4.81,-4.51,-0.14,-0.14,-0.14
163.24,4.83,5.01,4.83,5.00,-5.00,-4.84,-4.49,-0.17,-0.18,-0.18
164.88,4.79,5.00,4.80,5.01,-5.01,-4.86,-4.47,-0.22,-0.21,-0.21
166.53,4.77,5.01,4.77,5.01,-5.01,-4.88,-4.46,-0.24,-0.24,-0.24
168.19,4.74,5.01,4.74,5.01,-5.01,-4.90,-4.45,-0.27,-0.27,-0.27
169.87,4.70,5.01,4.71,5.01,-5.01,-4.93,-4.45,-0.31,-0.30,-0.31
171.57,4.67,5.01,4.67,5.01,-5.00,-4.95,-4.45,-0.33,-0.33,-0.34
173.29,4.64,5.01,4.63,5.01,-5.01,-4.97,-4.45,-0.37,-0.37,-0.37
175.02,4.60,5.01,4.60,5.01,-5.01,-4.99,-4.45,-0.41,-0.41,-0.41
176.77,4.57,5.01,4.57,5.01,-5.02,-5.01,-4.46,-0.45,-0.45,-0.44
178.54,4.55,5.02,4.55,5.02,-5.04,-5.03,-4.47,-0.49,-0.49,-0.47
180.32,4.54,5.05,4.54,5.05,-5.06,-5.05,-4.49,-0.52,-0.52,-0.51
182.13,4.54,5.08,4.54,5.08,-5.09,-5.07,-4.51,-0.55,-0.55,-0.54
183.95,4.54,5.11,4.54,5.12,-5.12,-5.09,-4.53,-0.58,-0.58,-0.57
185.79,4.54,5.15,4.54,5.15,-5.15,-5.11,-4.55,-0.61,-0.61,-0.61
187.65,4.54,5.18,4.54,5.19,-5.17,-5.12,-4.58,-0.63,-0.64,-0.64
189.52,4.53,5.21,4.53,5.21,-5.20,-5.14,-4.61,-0.67,-0.67,-0.68
191.42,4.52,5.23,4.52,5.23,-5.22,-5.15,-4.65,-0.70,-0.71,-0.71
193.33,4.49,5.23,4.49,5.24,-5.23,-5.17,-4.68,-0.74,-0.74,-0.74
195.27,4.46,5.24,4.46,5.24,-5.24,-5.18,-4.72,-0.78,-0.78,-0.78
197.22,4.43,5.25,4.43,5.24,-5.24,-5.20,-4.77,-0.81,-0.81,-0.82
199.19,4.40,5.23,4.40,5.24,-5.24,-5.21,-4.81,-0.84,-0.84,-0.83
201.18,4.37,5.24,4.37,5.23,-5.23,-5.22,-4.86,-0.86,-0.87,-0.87
203.19,4.33,5.22,4.33,5.22,-5.23,-5.23,-4.91,-0.90,-0.89,-0.89
205.23,4.30,5.21,4.30,5.21,-5.22,-5.23,-4.96,-0.92,-0.92,-0.91
207.28,4.28,5.21,4.28,5.21,-5.22,-5.24,-5.01,-0.94,-0.94,-0.93
209.35,4.26,5.22,4.26,5.21,-5.22,-5.25,-5.06,-0.96,-0.96,-0.96
211.44,4.24,5.22,4.24,5.22,-5.22,-5.25,-5.12,-0.98,-0.98,-0.98
213.56,4.22,5.22,4.22,5.22,-5.23,-5.25,-5.17,-1.01,-1.00,-1.00
215.69,4.21,5.23,4.21,5.23,-5.23,-5.26,-5.22,-1.02,-1.02,-1.02
217.85,4.19,5.23,4.19,5.23,-5.23,-5.26,-5.27,-1.04,-1.04,-1.04
220.03,4.18,5.24,4.18,5.24,-5.23,-5.26,-5.32,-1.05,-1.06,-1.06
222.23,4.16,5.25,4.16,5.25,-5.23,-5.25,-5.37,-1.07,-1.07,-1.09
224.45,4.14,5.25,4.13,5.24,-5.23,-5.25,-5.42,-1.09,-1.09,-1.11
226.70,4.10,5.22,4.10,5.22,-5.22,-5.25,-5.46,-1.12,-1.12,-1.12
228.96,4.06,5.19,4.07,5.20,-5.21,-5.24,-5.50,-1.15,-1.14,-1.13
231.25,4.04,5.19,4.04,5.18,-5.19,-5.23,-5.53,-1.15,-1.16,-1.15
233.57,4.01,5.17,4.01,5.17,-5.17,-5.22,-5.57,-1.16,-1.16,-1.16
235.90,3.98,5.16,3.98,5.16,-5.15,-5.21,-5.59,-1.17,-1.17,-1.18
238.26,3.96,5.15,3.96,5.13,-5.13,-5.20,-5.61,-1.17,-1.17,-1.19
240.64,3.93,5.10,3.93,5.11,-5.11,-5.19,-5.63,-1.18,-1.18,-1.17
243.05,3.90,5.08,3.90,5.08,-5.08,-5.17,-5.63,-1.18,-1.18,-1.18
245.48,3.86,5.06,3.86,5.06,-5.06,-5.16,-5.64,-1.20,-1.20,-1.20
247.93,3.82,5.03,3.83,5.03,-5.03,-5.14,-5.63,-1.21,-1.20,-1.21
250.41,3.80,4.99,3.79,4.99,-5.00,-5.12,-5.62,-1.20,-1.21,-1.20
252.92,3.77,4.96,3.77,4.97,-4.98,-5.10,-5.60,-1.21,-1.21,-1.19
255.45,3.75,4.95,3.75,4.95,-4.95,-5.08,-5.57,-1.20,-1.20,-1.20
258.00,3.74,4.94,3.73,4.93,-4.93,-5.05,-5.54,-1.19,-1.19,-1.20
260.58,3.71,4.91,3.71,4.91,-4.90,-5.03,-5.50,-1.19,-1.19,-1.20
263.19,3.68,4.88,3.68,4.88,-4.87,-5.00,-5.46,-1.19,-1.19,-1.20
265.82,3.64,4.84,3.64,4.85,-4.84,-4.98,-5.41,-1.20,-1.19,-1.20
268.48,3.61,4.81,3.60,4.80,-4.80,-4.95,-5.35,-1.19,-1.20,-1.20
271.16,3.56,4.77,3.56,4.76,-4.77,-4.92,-5.29,-1.21,-1.21,-1.21
273.87,3.51,4.71,3.52,4.72,-4.73,-4.89,-5.22,-1.22,-1.22,-1.20
276.61,3.48,4.69,3.48,4.69,-4.70,-4.86,-5.15,-1.22,-1.22,-1.21
279.38,3.45,4.67,3.45,4.66,-4.67,-4.83,-5.08,-1.22,-1.22,-1.22
282.17,3.43,4.64,3.43,4.64,-4.64,-4.79,-5.00,-1.21,-1.21,-1.21
284.99,3.41,4.61,3.41,4.61,-4.61,-4.76,-4.92,-1.20,-1.20,-1.20
287.84,3.38,4.57,3.38,4.58,-4.58,-4.72,-4.84,-1.20,-1.20,-1.19
290.72,3.35,4.56,3.35,4.55,-4.54,-4.68,-4.75,-1.19,-1.19,-1.21
293.63,3.32,4.52,3.32,4.52,-4.51,-4.65,-4.67,-1.19,-1.19,-1.20
296.57,3.29,4.48,3.29,4.48,-4.47,-4.61,-4.58,-1.18,-1.18,-1.19
299.53,3.25,4.44,3.25,4.43,-4.43,-4.57,-4.50,-1.18,-1.18,-1.19
302.53,3.20,4.38,3.20,4.39,-4.39,-4.53,-4.41,-1.19,-1.19,-1.18
305.55,3.16,4.34,3.16,4.34,-4.35,-4.49,-4.33,-1.19,-1.19,-1.18
308.61,3.13,4.30,3.13,4.30,-4.32,-4.45,-4.24,-1.19,-1.19,-1.17
311.69,3.10,4.26,3.11,4.27,-4.28,-4.40,-4.16,-1.18,-1.17,-1.16
314.81,3.09,4.25,3.09,4.24,-4.24,-4.36,-4.07,-1.15,-1.16,-1.16
317.96,3.07,4.22,3.07,4.22,-4.21,-4.32,-3.99,-1.14,-1.14,-1.15
321.14,3.04,4.18,3.04,4.19,-4.17,-4.27,-3.91,-1.13,-1.13,-1.14
324.35,3.01,4.15,3.01,4.14,-4.13,-4.23,-3.84,-1.12,-1.12,-1.14
327.59,2.97,4.09,2.97,4.10,-4.09,-4.18,-3.76,-1.12,-1.12,-1.12
330.87,2.92,4.04,2.92,4.04,-4.05,-4.13,-3.69,-1.13,-1.12,-1.12
334.18,2.88,4.00,2.88,3.99,-4.00,-4.09,-3.62,-1.12,-1.12,-1.12
337.52,2.84,3.94,2.84,3.95,-3.96,-4.04,-3.55,-1.12,-1.12,-1.10
340.90,2.81,3.91,2.81,3.91,-3.92,-3.99,-3.48,-1.11,-1.11,-1.10
344.30,2.78,3.87,2.79,3.88,-3.88,-3.95,-3.41,-1.10,-1.09,-1.09
347.75,2.77,3.85,2.77,3.85,-3.84,-3.90,-3.35,-1.07,-1.08,-1.08
351.23,2.75,3.82,2.74,3.81,-3.80,-3.85,-3.29,-1.05,-1.06,-1.07
354.74,2.71,3.77,2.71,3.78,-3.76,-3.80,-3.24,-1.05,-1.05,-1.06
358.28,2.67,3.73,2.67,3.73,-3.71,-3.75,-3.18,-1.04,-1.05,-1.06
361.87,2.62,3.68,2.62,3.67,-3.67,-3.70,-3.13,-1.05,-1.05,-1.06
365.49,2.57,3.61,2.57,3.62,-3.62,-3.65,-3.08,-1.05,-1.05,-1.04
369.14,2.53,3.56,2.53,3.56,-3.58,-3.60,-3.03,-1.05,-1.05,-1.03
372.83,2.49,3.51,2.49,3.51,-3.53,-3.55,-2.99,-1.04,-1.04,-1.02
376.56,2.45,3.48,2.46,3.48,-3.49,-3.50,-2.95,-1.04,-1.03,-1.03
380.33,2.43,3.45,2.43,3.45,-3.44,-3.45,-2.91,-1.01,-1.01,-1.02
384.13,2.41,3.42,2.40,3.41,-3.40,-3.40,-2.87,-0.99,-1.00,-1.01
387.97,2.37,3.37,2.37,3.37,-3.35,-3.35,-2.83,-0.98,-0.98,-1.00
391.85,2.33,3.31,2.33,3.32,-3.31,-3.30,-2.80,-0.98,-0.97,-0.98
395.77,2.29,3.27,2.29,3.27,-3.26,-3.25,-2.77,-0.97,-0.97,-0.98
399.73,2.24,3.21,2.24,3.21,-3.21,-3.20,-2.74,-0.97,-0.97,-0.97
403.72,2.19,3.14,2.19,3.15,-3.16,-3.15,-2.71,-0.97,-0.97,-0.95
407.76,2.14,3.09,2.15,3.09,-3.11,-3.10,-2.68,-0.97,-0.96,-0.95
411.84,2.11,3.05,2.11,3.05,-3.06,-3.05,-2.66,-0.95,-0.95,-0.94
415.96,2.09,3.02,2.09,3.02,-3.02,-3.00,-2.63,-0.93,-0.94,-0.93
420.12,2.06,2.99,2.06,2.99,-2.98,-2.95,-2.61,-0.92,-0.91,-0.93
424.32,2.04,2.96,2.04,2.95,-2.94,-2.90,-2.59,-0.90,-0.90,-0.92
428.56,2.01,2.91,2.01,2.91,-2.90,-2.85,-2.57,-0.89,-0.89,-0.90
432.85,1.97,2.85,1.97,2.86,-2.86,-2.80,-2.55,-0.89,-0.89,-0.88
437.18,1.93,2.82,1.93,2.82,-2.82,-2.76,-2.53,-0.89,-0.88,-0.89
441.55,1.89,2.77,1.89,2.77,-2.77,-2.71,-2.51,-0.88,-0.88,-0.88
445.96,1.85,2.72,1.85,2.73,-2.73,-2.66,-2.49,-0.88,-0.88,-0.87
450.42,1.81,2.67,1.82,2.68,-2.68,-2.61,-2.48,-0.87,-0.87,-0.86
454.93,1.79,2.64,1.79,2.64,-2.64,-2.56,-2.46,-0.85,-0.86,-0.85
459.48,1.76,2.61,1.76,2.60,-2.61,-2.51,-2.44,-0.85,-0.84,-0.85
464.07,1.74,2.57,1.74,2.57,-2.57,-2.47,-2.42,-0.83,-0.83,-0.83
468.71,1.72,2.55,1.72,2.54,-2.54,-2.42,-2.40,-0.82,-0.82,-0.83
473.40,1.69,2.51,1.69,2.51,-2.51,-2.37,-2.38,-0.82,-0.81,-0.82
478.13,1.67,2.48,1.67,2.48,-2.48,-2.32,-2.36,-0.81,-0.81,-0.81
482.91,1.65,2.45,1.65,2.45,-2.45,-2.28,-2.34,-0.80,-0.80,-0.80
487.74,1.63,2.42,1.63,2.42,-2.42,-2.23,-2.32,-0.79,-0.79,-0.79
492.62,1.61,2.39,1.61,2.39,-2.39,-2.18,-2.30,-0.78,-0.78,-0.78
497.55,1.58,2.35,1.58,2.35,-2.36,-2.14,-2.28,-0.78,-0.77,-0.77
502.52,1.56,2.32,1.56,2.32,-2.32,-2.09,-2.25,-0.76,-0.76,-0.76
507.55,1.55,2.29,1.55,2.29,-2.29,-2.05,-2.23,-0.74,-0.74,-0.74
512.62,1.53,2.26,1.53,2.26,-2.25,-2.00,-2.20,-0.72,-0.73,-0.73
517.75,1.50,2.21,1.50,2.22,-2.21,-1.96,-2.17,-0.71,-0.71,-0.71
