frequency,raw,error,smoothed,error_smoothed,equalization,parametric_eq,fixed_band_eq,equalized_raw,equalized_smoothed,target
20.00,-22.13,-23.48,-22.13,-23.48,6.00,6.33,2.65,-16.13,-16.13,1.34
20.20,-22.00,-23.36,-22.00,-23.35,6.00,6.33,2.73,-16.00,-16.00,1.35
20.40,-21.86,-23.22,-21.87,-23.23,6.00,6.33,2.81,-15.86,-15.87,1.36
20.61,-21.73,-23.10,-21.73,-23.10,6.00,6.32,2.89,-15.73,-15.73,1.36
20.81,-21.60,-22.97,-21.60,-22.97,6.00,6.32,2.97,-15.60,-15.60,1.37
21.02,-21.46,-22.83,-21.46,-22.83,6.00,6.32,3.05,-15.46,-15.46,1.37
21.23,-21.31,-22.69,-21.31,-22.69,6.00,6.32,3.14,-15.31,-15.31,1.38
21.44,-21.15,-22.53,-21.16,-22.54,6.00,6.31,3.23,-15.15,-15.16,1.38
21.66,-21.00,-22.39,-21.00,-22.38,6.00,6.31,3.32,-15.00,-15.00,1.38
21.87,-20.84,-22.22,-20.84,-22.23,6.00,6.31,3.42,-14.84,-14.84,1.38
22.09,-20.69,-22.08,-20.69,-22.08,6.00,6.31,3.51,-14.69,-14.69,1.39
22.31,-20.53,-21.92,-20.53,-21.92,6.00,6.31,3.62,-14.53,-14.53,1.39
22.54,-20.38,-21.76,-20.38,-21.76,6.00,6.30,3.72,-14.38,-14.38,1.38
22.76,-20.23,-21.60,-20.23,-21.60,6.00,6.30,3.82,-14.23,-14.23,1.37
22.99,-20.08,-21.45,-20.09,-21.46,6.00,6.30,3.93,-14.08,-14.09,1.37
23.22,-19.95,-21.32,-19.95,-21.32,6.00,6.30,4.04,-13.95,-13.95,1.37
23.45,-19.83,-21.19,-19.83,-21.19,6.00,6.29,4.15,-13.83,-13.83,1.36
23.69,-19.70,-21.06,-19.70,-21.06,6.00,6.29,4.27,-13.70,-13.70,1.36
23.92,-19.58,-20.94,-19.58,-20.94,6.00,6.29,4.38,-13.58,-13.58,1.36
24.16,-19.45,-20.81,-19.45,-20.81,6.00,6.28,4.51,-13.45,-13.45,1.36
24.40,-19.32,-20.68,-19.33,-20.68,6.00,6.28,4.63,-13.32,-13.33,1.36
24.65,-19.19,-20.55,-19.20,-20.55,6.00,6.28,4.75,-13.19,-13.20,1.36
24.89,-19.07,-20.42,-19.06,-20.41,6.00,6.27,4.88,-13.07,-13.06,1.36
25.14,-18.90,-20.25,-18.90,-20.25,6.00,6.27,5.00,-12.90,-12.90,1.35
25.39,-18.72,-20.06,-18.72,-20.07,6.00,6.27,5.13,-12.72,-12.72,1.34
25.65,-18.53,-19.88,-18.53,-19.88,6.00,6.26,5.26,-12.53,-12.53,1.34
25.91,-18.35,-19.70,-18.36,-19.70,6.00,6.26,5.39,-12.35,-12.36,1.34
26.16,-18.19,-19.53,-18.20,-19.54,6.00,6.26,5.52,-12.19,-12.20,1.34
26.43,-18.05,-19.40,-18.05,-19.39,6.00,6.25,5.65,-12.05,-12.05,1.34
26.69,-17.91,-19.25,-17.91,-19.25,6.00,6.25,5.77,-11.91,-11.91,1.34
26.96,-17.77,-19.11,-17.78,-19.12,6.00,6.25,5.90,-11.77,-11.78,1.34
27.23,-17.64,-18.98,-17.64,-18.98,6.00,6.24,6.02,-11.64,-11.64,1.34
27.50,-17.51,-18.85,-17.51,-18.85,6.00,6.24,6.15,-11.51,-11.51,1.34
27.77,-17.38,-18.72,-17.38,-18.72,6.00,6.23,6.26,-11.38,-11.38,1.34
28.05,-17.25,-18.59,-17.25,-18.59,6.00,6.23,6.38,-11.25,-11.25,1.34
28.33,-17.12,-18.46,-17.13,-18.47,6.00,6.23,6.49,-11.12,-11.13,1.34
28.62,-17.00,-18.34,-17.00,-18.34,6.00,6.22,6.59,-11.00,-11.00,1.33
28.90,-16.87,-18.21,-16.86,-18.20,6.00,6.22,6.69,-10.87,-10.86,1.34
29.19,-16.69,-18.03,-16.68,-18.03,6.00,6.21,6.78,-10.69,-10.68,1.34
29.48,-16.48,-17.82,-16.48,-17.83,6.00,6.21,6.86,-10.48,-10.48,1.34
29.78,-16.28,-17.63,-16.29,-17.63,6.00,6.20,6.94,-10.28,-10.29,1.35
30.08,-16.09,-17.44,-16.11,-17.46,6.00,6.20,7.00,-10.09,-10.11,1.35
30.38,-15.96,-17.31,-15.96,-17.31,6.00,6.19,7.06,-9.96,-9.96,1.35
30.68,-15.83,-17.18,-15.83,-17.17,6.00,6.19,7.11,-9.83,-9.83,1.35
30.99,-15.70,-17.05,-15.70,-17.05,6.00,6.18,7.15,-9.70,-9.70,1.35
31.30,-15.57,-16.92,-15.57,-16.92,6.00,6.18,7.17,-9.57,-9.57,1.34
31.61,-15.44,-16.78,-15.44,-16.79,6.00,6.17,7.19,-9.44,-9.44,1.34
31.93,-15.31,-16.65,-15.31,-16.64,6.00,6.16,7.20,-9.31,-9.31,1.34
32.24,-15.16,-16.49,-15.16,-16.49,6.00,6.16,7.20,-9.16,-9.16,1.33
32.57,-15.00,-16.33,-15.00,-16.33,6.00,6.15,7.19,-9.00,-9.00,1.33
32.89,-14.84,-16.17,-14.84,-16.16,6.00,6.15,7.17,-8.84,-8.84,1.33
33.22,-14.68,-16.00,-14.68,-16.00,6.00,6.14,7.14,-8.68,-8.68,1.31
33.55,-14.53,-15.84,-14.53,-15.84,6.00,6.13,7.10,-8.53,-8.53,1.31
33.89,-14.37,-15.67,-14.38,-15.68,6.00,6.13,7.06,-8.37,-8.38,1.30
34.23,-14.24,-15.54,-14.24,-15.54,6.00,6.12,7.01,-8.24,-8.24,1.30
34.57,-14.11,-15.41,-14.11,-15.41,6.00,6.11,6.96,-8.11,-8.11,1.30
34.92,-13.99,-15.29,-13.98,-15.28,6.00,6.10,6.90,-7.99,-7.98,1.29
35.27,-13.83,-15.13,-13.83,-15.13,6.00,6.10,6.83,-7.83,-7.83,1.29
35.62,-13.67,-14.96,-13.67,-14.96,6.00,6.09,6.77,-7.67,-7.67,1.29
35.97,-13.50,-14.79,-13.50,-14.79,6.00,6.08,6.70,-7.50,-7.50,1.29
36.33,-13.34,-14.63,-13.34,-14.62,6.00,6.07,6.63,-7.34,-7.34,1.29
36.70,-13.17,-14.46,-13.17,-14.45,6.00,6.06,6.55,-7.17,-7.17,1.28
37.06,-13.01,-14.29,-13.01,-14.29,6.00,6.06,6.48,-7.01,-7.01,1.28
37.43,-12.85,-14.13,-12.85,-14.13,6.00,6.05,6.41,-6.85,-6.85,1.28
37.81,-12.69,-13.98,-12.69,-13.97,6.00,6.04,6.34,-6.69,-6.69,1.28
38.19,-12.53,-13.81,-12.52,-13.81,6.00,6.03,6.27,-6.53,-6.52,1.28
38.57,-12.36,-13.64,-12.36,-13.64,6.00,6.02,6.20,-6.36,-6.36,1.28
38.95,-12.19,-13.48,-12.21,-13.49,6.00,6.01,6.13,-6.19,-6.21,1.29
39.34,-12.07,-13.35,-12.07,-13.35,6.00,6.00,6.07,-6.07,-6.07,1.28
39.74,-11.95,-13.23,-11.95,-13.23,6.00,5.99,6.01,-5.95,-5.95,1.28
40.14,-11.83,-13.11,-11.83,-13.11,6.00,5.98,5.95,-5.83,-5.83,1.28
40.54,-11.70,-12.97,-11.71,-12.98,6.00,5.97,5.89,-5.70,-5.71,1.27
40.94,-11.58,-12.85,-11.57,-12.84,6.00,5.96,5.84,-5.58,-5.57,1.27
41.35,-11.41,-12.68,-11.41,-12.68,6.00,5.94,5.79,-5.41,-5.41,1.26
41.76,-11.25,-12.50,-11.25,-12.51,6.00,5.93,5.75,-5.25,-5.25,1.25
42.18,-11.09,-12.34,-11.10,-12.34,6.00,5.92,5.71,-5.09,-5.10,1.25
42.60,-10.94,-12.18,-10.94,-12.18,6.00,5.91,5.67,-4.94,-4.94,1.24
43.03,-10.79,-12.03,-10.78,-12.02,6.00,5.89,5.64,-4.79,-4.78,1.24
43.46,-10.61,-11.84,-10.61,-11.84,6.00,5.88,5.61,-4.61,-4.61,1.23
43.90,-10.44,-11.66,-10.45,-11.67,6.00,5.87,5.59,-4.44,-4.45,1.22
44.33,-10.29,-11.50,-10.29,-11.51,6.00,5.85,5.57,-4.29,-4.29,1.21
44.78,-10.14,-11.35,-10.14,-11.35,6.00,5.84,5.55,-4.14,-4.14,1.21
45.23,-9.99,-11.20,-9.98,-11.18,6.00,5.82,5.54,-3.99,-3.98,1.20
45.68,-9.82,-11.02,-9.83,-11.02,6.00,5.81,5.53,-3.82,-3.83,1.20
46.13,-9.66,-10.86,-9.68,-10.87,6.00,5.79,5.53,-3.66,-3.68,1.20
46.60,-9.54,-10.74,-9.54,-10.73,6.00,5.78,5.53,-3.54,-3.54,1.20
47.06,-9.41,-10.61,-9.40,-10.60,6.00,5.76,5.54,-3.41,-3.40,1.20
47.53,-9.27,-10.47,-9.27,-10.47,6.00,5.74,5.55,-3.27,-3.27,1.20
48.01,-9.13,-10.34,-9.14,-10.34,6.00,5.72,5.56,-3.13,-3.14,1.21
48.49,-9.01,-10.22,-9.01,-10.22,6.00,5.71,5.58,-3.01,-3.01,1.21
48.97,-8.89,-10.10,-8.89,-10.10,6.00,5.69,5.59,-2.89,-2.89,1.21
49.46,-8.77,-9.99,-8.77,-9.99,6.00,5.67,5.62,-2.77,-2.77,1.21
49.96,-8.65,-9.88,-8.64,-9.87,6.00,5.65,5.64,-2.65,-2.64,1.23
50.46,-8.51,-9.74,-8.51,-9.74,6.00,5.63,5.67,-2.51,-2.51,1.23
50.96,-8.37,-9.61,-8.39,-9.62,6.00,5.61,5.70,-2.37,-2.39,1.24
51.47,-8.25,-9.49,-8.25,-9.50,6.00,5.59,5.73,-2.25,-2.25,1.24
51.99,-8.13,-9.38,-8.11,-9.36,6.00,5.57,5.77,-2.13,-2.11,1.24
52.51,-7.95,-9.20,-7.95,-9.19,6.00,5.54,5.80,-1.95,-1.95,1.24
53.03,-7.76,-9.01,-7.78,-9.02,6.00,5.52,5.84,-1.76,-1.78,1.24
53.56,-7.60,-8.85,-7.60,-8.85,6.00,5.50,5.88,-1.60,-1.60,1.25
54.10,-7.44,-8.70,-7.44,-8.69,6.00,5.47,5.91,-1.44,-1.44,1.26
54.64,-7.30,-8.56,-7.30,-8.56,6.00,5.45,5.95,-1.30,-1.30,1.25
55.18,-7.17,-8.42,-7.18,-8.43,6.00,5.42,5.98,-1.17,-1.18,1.25
55.74,-7.06,-8.31,-7.06,-8.30,6.00,5.40,6.01,-1.06,-1.06,1.24
56.29,-6.94,-8.18,-6.93,-8.18,6.00,5.37,6.04,-0.94,-0.93,1.24
56.86,-6.80,-8.04,-6.80,-8.04,6.00,5.34,6.07,-0.80,-0.80,1.24
57.42,-6.67,-7.90,-6.67,-7.90,6.00,5.31,6.09,-0.67,-0.67,1.23
58.00,-6.54,-7.76,-6.55,-7.77,6.00,5.29,6.11,-0.54,-0.55,1.21
58.58,-6.44,-7.64,-6.43,-7.64,6.00,5.26,6.12,-0.44,-0.43,1.20
59.16,-6.32,-7.51,-6.31,-7.49,6.00,5.23,6.13,-0.32,-0.31,1.19
59.76,-6.16,-7.34,-6.18,-7.35,6.00,5.19,6.14,-0.16,-0.18,1.17
60.35,-6.04,-7.19,-6.05,-7.20,6.00,5.16,6.13,-0.04,-0.05,1.15
60.96,-5.93,-7.06,-5.91,-7.03,6.00,5.13,6.12,0.07,0.09,1.13
61.57,-5.77,-6.87,-5.78,-6.88,6.01,5.10,6.11,0.24,0.23,1.10
62.18,-5.64,-6.71,-5.67,-6.73,6.02,5.06,6.08,0.38,0.35,1.06
62.80,-5.58,-6.61,-5.57,-6.60,6.03,5.03,6.05,0.45,0.45,1.03
63.43,-5.50,-6.48,-5.49,-6.48,6.02,4.99,6.02,0.52,0.53,0.98
64.07,-5.41,-6.36,-5.40,-6.34,6.00,4.95,5.97,0.59,0.61,0.95
64.71,-5.27,-6.17,-5.28,-6.18,5.97,4.92,5.92,0.69,0.69,0.90
65.35,-5.14,-6.00,-5.15,-6.01,5.91,4.88,5.86,0.77,0.76,0.86
66.01,-5.03,-5.85,-5.04,-5.86,5.83,4.84,5.80,0.80,0.79,0.82
66.67,-4.94,-5.72,-4.94,-5.72,5.72,4.80,5.73,0.78,0.79,0.78
67.33,-4.84,-5.59,-4.84,-5.59,5.60,4.76,5.65,0.76,0.76,0.75
68.01,-4.74,-5.45,-4.73,-5.45,5.45,4.71,5.57,0.71,0.72,0.71
68.69,-4.61,-5.29,-4.61,-5.29,5.30,4.67,5.49,0.69,0.69,0.68
69.37,-4.48,-5.13,-4.49,-5.13,5.14,4.63,5.40,0.66,0.66,0.65
70.07,-4.36,-4.98,-4.36,-4.98,4.99,4.58,5.30,0.63,0.64,0.62
70.77,-4.24,-4.83,-4.24,-4.83,4.86,4.54,5.20,0.62,0.62,0.59
71.48,-4.14,-4.71,-4.15,-4.71,4.73,4.49,5.10,0.59,0.59,0.56
72.19,-4.06,-4.59,-4.06,-4.59,4.61,4.44,5.00,0.55,0.55,0.53
72.91,-4.00,-4.50,-4.00,-4.50,4.50,4.39,4.90,0.50,0.50,0.50
73.64,-3.94,-4.40,-3.95,-4.41,4.39,4.35,4.79,0.45,0.44,0.46
74.38,-3.88,-4.31,-3.87,-4.30,4.29,4.30,4.69,0.40,0.42,0.43
75.12,-3.82,-4.21,-3.80,-4.19,4.18,4.24,4.58,0.36,0.38,0.39
75.87,-3.67,-4.02,-3.73,-4.08,4.06,4.19,4.48,0.39,0.33,0.34
76.63,-3.68,-3.99,-3.64,-3.95,3.94,4.14,4.37,0.26,0.30,0.31
77.40,-3.59,-3.85,-3.56,-3.82,3.81,4.09,4.27,0.22,0.25,0.26
78.17,-3.42,-3.64,-3.48,-3.70,3.68,4.03,4.16,0.25,0.20,0.22
78.95,-3.40,-3.57,-3.37,-3.55,3.55,3.98,4.06,0.14,0.17,0.17
79.74,-3.29,-3.43,-3.29,-3.42,3.43,3.92,3.96,0.14,0.14,0.13
80.54,-3.21,-3.30,-3.21,-3.30,3.32,3.86,3.86,0.11,0.12,0.09
81.35,-3.14,-3.19,-3.14,-3.19,3.23,3.80,3.76,0.09,0.09,0.05
82.16,-3.08,-3.09,-3.12,-3.12,3.16,3.75,3.66,0.08,0.04,0.00
82.98,-3.15,-3.11,-3.12,-3.09,3.10,3.69,3.57,-0.05,-0.02,-0.04
83.81,-3.15,-3.07,-3.14,-3.07,3.05,3.63,3.48,-0.10,-0.09,-0.08
84.65,-3.15,-3.04,-3.16,-3.04,3.00,3.57,3.39,-0.15,-0.15,-0.11
85.50,-3.15,-3.00,-3.15,-3.00,2.96,3.51,3.30,-0.19,-0.19,-0.15
86.35,-3.15,-2.95,-3.16,-2.96,2.92,3.44,3.21,-0.23,-0.23,-0.20
87.22,-3.15,-2.91,-3.15,-2.91,2.90,3.38,3.13,-0.25,-0.25,-0.24
88.09,-3.14,-2.86,-3.11,-2.83,2.87,3.32,3.05,-0.27,-0.24,-0.28
88.97,-3.07,-2.75,-3.09,-2.77,2.84,3.25,2.97,-0.23,-0.25,-0.32
89.86,-3.06,-2.70,-3.12,-2.75,2.81,3.19,2.89,-0.25,-0.30,-0.36
90.76,-3.20,-2.79,-3.19,-2.78,2.78,3.13,2.82,-0.42,-0.41,-0.41
91.66,-3.28,-2.84,-3.25,-2.81,2.74,3.06,2.74,-0.55,-0.52,-0.44
92.58,-3.28,-2.80,-3.25,-2.77,2.69,3.00,2.68,-0.60,-0.57,-0.48
93.51,-3.17,-2.64,-3.18,-2.66,2.62,2.93,2.61,-0.55,-0.56,-0.53
94.44,-3.06,-2.50,-3.11,-2.54,2.55,2.86,2.54,-0.51,-0.56,-0.56
95.39,-3.04,-2.44,-3.04,-2.44,2.46,2.80,2.48,-0.59,-0.58,-0.60
96.34,-3.01,-2.37,-2.97,-2.33,2.35,2.73,2.42,-0.66,-0.62,-0.64
97.30,-2.89,-2.22,-2.90,-2.22,2.23,2.67,2.36,-0.67,-0.67,-0.68
98.28,-2.78,-2.06,-2.83,-2.11,2.11,2.60,2.30,-0.67,-0.73,-0.72
99.26,-2.78,-2.02,-2.75,-1.99,2.00,2.53,2.24,-0.78,-0.75,-0.76
100.25,-2.73,-1.93,-2.69,-1.89,1.90,2.47,2.19,-0.83,-0.79,-0.80
101.25,-2.57,-1.73,-2.64,-1.80,1.81,2.40,2.13,-0.76,-0.83,-0.84
102.27,-2.60,-1.72,-2.59,-1.70,1.72,2.33,2.08,-0.89,-0.87,-0.89
103.29,-2.58,-1.65,-2.56,-1.63,1.63,2.27,2.03,-0.95,-0.93,-0.93
104.32,-2.55,-1.57,-2.56,-1.58,1.55,2.20,1.99,-1.00,-1.01,-0.98
105.37,-2.52,-1.50,-2.52,-1.49,1.48,2.14,1.94,-1.04,-1.04,-1.02
106.42,-2.48,-1.41,-2.48,-1.41,1.42,2.07,1.90,-1.06,-1.06,-1.07
107.48,-2.45,-1.33,-2.46,-1.34,1.36,2.01,1.85,-1.09,-1.10,-1.12
108.56,-2.45,-1.29,-2.45,-1.29,1.31,1.95,1.81,-1.14,-1.14,-1.16
109.64,-2.47,-1.26,-2.47,-1.26,1.27,1.88,1.77,-1.20,-1.20,-1.21
110.74,-2.49,-1.24,-2.49,-1.24,1.23,1.82,1.73,-1.26,-1.25,-1.25
111.85,-2.51,-1.22,-2.51,-1.22,1.20,1.76,1.69,-1.31,-1.31,-1.29
112.97,-2.51,-1.18,-2.52,-1.19,1.17,1.70,1.65,-1.34,-1.34,-1.33
114.10,-2.52,-1.16,-2.52,-1.16,1.14,1.64,1.62,-1.38,-1.38,-1.36
115.24,-2.52,-1.13,-2.52,-1.13,1.12,1.58,1.58,-1.40,-1.40,-1.39
116.39,-2.52,-1.09,-2.52,-1.10,1.10,1.53,1.55,-1.42,-1.43,-1.43
117.55,-2.52,-1.08,-2.52,-1.07,1.08,1.47,1.51,-1.44,-1.44,-1.45
118.73,-2.51,-1.04,-2.51,-1.04,1.06,1.42,1.48,-1.45,-1.44,-1.47
119.92,-2.51,-1.02,-2.51,-1.03,1.05,1.36,1.45,-1.46,-1.46,-1.49
121.12,-2.51,-1.01,-2.54,-1.04,1.04,1.31,1.42,-1.47,-1.50,-1.50
122.33,-2.59,-1.07,-2.57,-1.05,1.03,1.26,1.38,-1.56,-1.54,-1.52
123.55,-2.61,-1.08,-2.59,-1.06,1.02,1.21,1.35,-1.59,-1.57,-1.53
124.79,-2.58,-1.03,-2.59,-1.05,1.01,1.17,1.32,-1.57,-1.58,-1.55
126.03,-2.57,-1.01,-2.57,-1.01,1.01,1.12,1.29,-1.56,-1.56,-1.56
127.29,-2.56,-0.98,-2.56,-0.98,1.01,1.08,1.26,-1.55,-1.55,-1.58
128.57,-2.56,-0.97,-2.57,-0.99,1.02,1.03,1.24,-1.54,-1.55,-1.59
129.85,-2.61,-1.01,-2.61,-1.01,1.04,1.00,1.21,-1.58,-1.58,-1.60
131.15,-2.66,-1.05,-2.66,-1.04,1.05,0.96,1.18,-1.61,-1.61,-1.62
132.46,-2.72,-1.08,-2.71,-1.07,1.06,0.92,1.15,-1.66,-1.65,-1.64
133.79,-2.74,-1.09,-2.76,-1.11,1.08,0.89,1.12,-1.66,-1.68,-1.65
135.12,-2.80,-1.13,-2.81,-1.14,1.10,0.86,1.10,-1.70,-1.71,-1.67
136.48,-2.86,-1.18,-2.83,-1.15,1.13,0.83,1.07,-1.73,-1.70,-1.68
137.84,-2.84,-1.14,-2.82,-1.12,1.15,0.80,1.04,-1.69,-1.67,-1.70
139.22,-2.79,-1.07,-2.84,-1.12,1.17,0.78,1.02,-1.62,-1.67,-1.72
140.61,-2.82,-1.08,-2.88,-1.14,1.18,0.76,0.99,-1.64,-1.70,-1.74
142.02,-3.03,-1.28,-2.95,-1.19,1.19,0.74,0.97,-1.84,-1.76,-1.76
143.44,-3.02,-1.24,-3.02,-1.24,1.19,0.73,0.94,-1.83,-1.83,-1.78
144.87,-3.02,-1.21,-3.04,-1.23,1.18,0.71,0.92,-1.84,-1.86,-1.81
146.32,-3.02,-1.19,-3.02,-1.19,1.17,0.71,0.90,-1.85,-1.85,-1.84
147.78,-3.03,-1.16,-3.03,-1.16,1.15,0.70,0.87,-1.88,-1.88,-1.87
149.26,-3.03,-1.12,-3.03,-1.12,1.12,0.70,0.85,-1.91,-1.91,-1.91
150.75,-3.03,-1.08,-3.02,-1.07,1.08,0.69,0.83,-1.95,-1.94,-1.95
152.26,-3.03,-1.03,-3.03,-1.02,1.03,0.70,0.81,-2.01,-2.00,-2.01
153.78,-3.02,-0.96,-3.07,-1.01,0.99,0.70,0.79,-2.03,-2.08,-2.06
155.32,-3.14,-1.02,-3.12,-1.00,0.98,0.72,0.76,-2.16,-2.14,-2.12
156.88,-3.20,-1.03,-3.15,-0.97,1.00,0.73,0.74,-2.20,-2.15,-2.18
158.44,-3.18,-0.94,-3.20,-0.96,1.05,0.75,0.72,-2.13,-2.15,-2.24
160.03,-3.23,-0.94,-3.27,-0.98,1.11,0.77,0.70,-2.12,-2.16,-2.29
161.63,-3.42,-1.09,-3.45,-1.12,1.17,0.79,0.68,-2.25,-2.28,-2.33
163.24,-3.67,-1.29,-3.68,-1.30,1.24,0.82,0.67,-2.44,-2.44,-2.38
164.88,-3.94,-1.53,-3.85,-1.44,1.30,0.85,0.65,-2.64,-2.55,-2.41
166.53,-3.91,-1.47,-3.92,-1.48,1.37,0.88,0.63,-2.54,-2.55,-2.44
168.19,-3.87,-1.41,-3.90,-1.44,1.42,0.92,0.61,-2.45,-2.48,-2.46
169.87,-3.85,-1.39,-3.86,-1.39,1.46,0.95,0.59,-2.39,-2.40,-2.47
171.57,-3.86,-1.39,-3.88,-1.41,1.48,0.99,0.58,-2.39,-2.41,-2.47
173.29,-3.91,-1.44,-3.91,-1.44,1.46,1.04,0.56,-2.45,-2.45,-2.47
175.02,-3.97,-1.51,-3.94,-1.48,1.44,1.08,0.55,-2.53,-2.50,-2.46
176.77,-3.89,-1.45,-3.92,-1.47,1.42,1.13,0.53,-2.47,-2.50,-2.44
178.54,-3.90,-1.47,-3.85,-1.42,1.41,1.18,0.51,-2.49,-2.44,-2.43
180.32,-3.74,-1.34,-3.78,-1.38,1.40,1.23,0.50,-2.34,-2.38,-2.40
182.13,-3.72,-1.33,-3.75,-1.36,1.39,1.28,0.49,-2.33,-2.36,-2.39
183.95,-3.75,-1.39,-3.73,-1.36,1.38,1.32,0.47,-2.37,-2.35,-2.36
185.79,-3.74,-1.38,-3.74,-1.38,1.37,1.37,0.46,-2.37,-2.37,-2.36
187.65,-3.73,-1.38,-3.73,-1.38,1.37,1.42,0.44,-2.36,-2.36,-2.35
189.52,-3.71,-1.37,-3.70,-1.36,1.39,1.46,0.43,-2.33,-2.32,-2.34
191.42,-3.70,-1.35,-3.71,-1.37,1.40,1.50,0.42,-2.30,-2.30,-2.35
193.33,-3.70,-1.36,-3.75,-1.41,1.42,1.53,0.40,-2.28,-2.33,-2.34
195.27,-3.83,-1.49,-3.80,-1.45,1.43,1.56,0.39,-2.40,-2.37,-2.34
197.22,-3.86,-1.51,-3.82,-1.47,1.43,1.58,0.38,-2.43,-2.39,-2.35
199.19,-3.78,-1.43,-3.81,-1.45,1.41,1.60,0.37,-2.38,-2.40,-2.35
201.18,-3.74,-1.38,-3.77,-1.40,1.38,1.61,0.35,-2.36,-2.39,-2.37
203.19,-3.73,-1.36,-3.74,-1.36,1.35,1.61,0.34,-2.39,-2.39,-2.38
205.23,-3.73,-1.35,-3.70,-1.31,1.31,1.60,0.33,-2.42,-2.39,-2.39
207.28,-3.65,-1.26,-3.62,-1.22,1.26,1.58,0.32,-2.39,-2.36,-2.40
209.35,-3.51,-1.11,-3.56,-1.15,1.21,1.56,0.31,-2.30,-2.35,-2.40
211.44,-3.49,-1.07,-3.54,-1.12,1.16,1.52,0.29,-2.33,-2.38,-2.42
213.56,-3.61,-1.18,-3.58,-1.14,1.14,1.48,0.28,-2.48,-2.44,-2.43
215.69,-3.64,-1.19,-3.59,-1.14,1.11,1.42,0.27,-2.53,-2.48,-2.45
217.85,-3.58,-1.12,-3.56,-1.10,1.08,1.36,0.26,-2.50,-2.48,-2.46
220.03,-3.44,-0.96,-3.51,-1.03,1.06,1.29,0.24,-2.39,-2.45,-2.48
222.23,-3.47,-0.99,-3.50,-1.01,1.02,1.21,0.23,-2.45,-2.47,-2.49
224.45,-3.54,-1.05,-3.50,-1.01,0.98,1.13,0.21,-2.56,-2.53,-2.49
226.70,-3.52,-1.02,-3.49,-0.99,0.92,1.03,0.20,-2.60,-2.57,-2.50
228.96,-3.39,-0.88,-3.36,-0.86,0.85,0.93,0.19,-2.54,-2.51,-2.51
231.25,-3.25,-0.75,-3.28,-0.77,0.79,0.83,0.17,-2.46,-2.49,-2.50
233.57,-3.08,-0.57,-3.23,-0.72,0.75,0.73,0.16,-2.34,-2.48,-2.51
235.90,-3.34,-0.83,-3.15,-0.65,0.70,0.61,0.14,-2.64,-2.45,-2.51
238.26,-3.11,-0.61,-3.08,-0.58,0.64,0.50,0.12,-2.47,-2.44,-2.50
240.64,-2.89,-0.40,-3.05,-0.56,0.57,0.39,0.10,-2.32,-2.48,-2.49
243.05,-3.00,-0.52,-3.03,-0.54,0.51,0.27,0.09,-2.49,-2.52,-2.48
245.48,-3.15,-0.67,-3.05,-0.57,0.46,0.16,0.07,-2.70,-2.59,-2.48
247.93,-3.04,-0.57,-2.94,-0.47,0.40,0.04,0.05,-2.64,-2.54,-2.47
250.41,-2.72,-0.25,-2.76,-0.29,0.34,-0.07,0.03,-2.38,-2.42,-2.47
252.92,-2.45,0.01,-2.64,-0.17,0.27,-0.18,0.01,-2.18,-2.36,-2.46
255.45,-2.65,-0.18,-2.60,-0.13,0.20,-0.29,-0.02,-2.45,-2.40,-2.47
258.00,-2.73,-0.26,-2.60,-0.12,0.11,-0.40,-0.04,-2.62,-2.49,-2.47
260.58,-2.52,-0.04,-2.56,-0.08,0.01,-0.51,-0.06,-2.51,-2.55,-2.48
263.19,-2.38,0.10,-2.45,0.03,-0.09,-0.61,-0.09,-2.47,-2.54,-2.48
265.82,-2.33,0.16,-2.33,0.16,-0.18,-0.72,-0.11,-2.51,-2.50,-2.49
268.48,-2.31,0.18,-2.23,0.26,-0.26,-0.82,-0.14,-2.57,-2.49,-2.49
271.16,-2.07,0.42,-2.10,0.39,-0.36,-0.91,-0.17,-2.43,-2.46,-2.49
273.87,-1.94,0.56,-1.97,0.53,-0.47,-1.01,-0.20,-2.41,-2.43,-2.50
276.61,-1.84,0.66,-1.87,0.63,-0.59,-1.10,-0.23,-2.43,-2.46,-2.50
279.38,-1.83,0.67,-1.82,0.68,-0.72,-1.19,-0.26,-2.55,-2.54,-2.50
282.17,-1.78,0.72,-1.72,0.78,-0.84,-1.27,-0.29,-2.62,-2.57,-2.50
284.99,-1.58,0.91,-1.59,0.91,-0.97,-1.35,-0.32,-2.55,-2.55,-2.49
287.84,-1.36,1.13,-1.41,1.08,-1.09,-1.43,-0.35,-2.45,-2.50,-2.49
290.72,-1.25,1.24,-1.23,1.25,-1.21,-1.51,-0.38,-2.46,-2.44,-2.49
293.63,-1.10,1.38,-1.07,1.41,-1.34,-1.58,-0.42,-2.44,-2.41,-2.48
296.57,-0.94,1.53,-0.96,1.51,-1.47,-1.65,-0.45,-2.41,-2.44,-2.47
299.53,-0.82,1.65,-0.88,1.59,-1.61,-1.71,-0.49,-2.43,-2.49,-2.48
302.53,-0.84,1.63,-0.80,1.67,-1.74,-1.78,-0.52,-2.58,-2.53,-2.47
305.55,-0.73,1.74,-0.67,1.80,-1.85,-1.84,-0.56,-2.58,-2.51,-2.47
308.61,-0.49,1.98,-0.50,1.97,-1.96,-1.90,-0.60,-2.45,-2.46,-2.47
311.69,-0.28,2.19,-0.37,2.10,-2.07,-1.96,-0.64,-2.35,-2.44,-2.48
314.81,-0.27,2.22,-0.28,2.20,-2.17,-2.01,-0.68,-2.44,-2.45,-2.49
317.96,-0.34,2.15,-0.21,2.28,-2.27,-2.06,-0.72,-2.61,-2.49,-2.49
321.14,-0.11,2.39,-0.19,2.31,-2.36,-2.11,-0.76,-2.47,-2.55,-2.50
324.35,-0.04,2.46,-0.07,2.43,-2.44,-2.16,-0.80,-2.48,-2.51,-2.50
327.59,-0.08,2.43,0.05,2.56,-2.50,-2.20,-0.85,-2.59,-2.46,-2.52
330.87,0.20,2.73,0.05,2.58,-2.56,-2.24,-0.89,-2.37,-2.51,-2.53
334.18,0.08,2.62,0.07,2.61,-2.62,-2.28,-0.93,-2.54,-2.55,-2.54
337.52,-0.03,2.52,0.11,2.65,-2.67,-2.32,-0.98,-2.70,-2.57,-2.55
340.90,0.17,2.72,0.12,2.67,-2.72,-2.36,-1.03,-2.55,-2.60,-2.55
344.30,0.24,2.80,0.20,2.76,-2.76,-2.39,-1.08,-2.53,-2.57,-2.56
347.75,0.24,2.82,0.26,2.84,-2.80,-2.43,-1.12,-2.57,-2.55,-2.59
351.23,0.25,2.85,0.25,2.85,-2.85,-2.46,-1.17,-2.60,-2.59,-2.60
354.74,0.25,2.86,0.25,2.86,-2.88,-2.49,-1.22,-2.63,-2.63,-2.61
358.28,0.25,2.87,0.24,2.86,-2.90,-2.51,-1.28,-2.65,-2.66,-2.62
361.87,0.26,2.89,0.28,2.92,-2.89,-2.54,-1.33,-2.63,-2.60,-2.63
365.49,0.26,2.91,0.31,2.96,-2.86,-2.56,-1.38,-2.60,-2.55,-2.65
369.14,0.39,3.05,0.27,2.93,-2.83,-2.59,-1.44,-2.44,-2.57,-2.66
372.83,0.18,2.85,0.17,2.85,-2.82,-2.61,-1.49,-2.64,-2.65,-2.67
376.56,-0.03,2.65,0.05,2.73,-2.82,-2.63,-1.55,-2.85,-2.78,-2.69
380.33,-0.03,2.67,-0.03,2.67,-2.83,-2.65,-1.60,-2.87,-2.87,-2.70
384.13,-0.01,2.70,0.01,2.72,-2.85,-2.66,-1.66,-2.86,-2.83,-2.71
387.97,0.16,2.88,0.12,2.84,-2.85,-2.68,-1.72,-2.69,-2.73,-2.72
391.85,0.21,2.94,0.22,2.95,-2.85,-2.69,-1.78,-2.65,-2.63,-2.73
395.77,0.28,3.02,0.29,3.03,-2.86,-2.71,-1.84,-2.59,-2.58,-2.74
399.73,0.32,3.07,0.26,3.01,-2.89,-2.72,-1.90,-2.57,-2.63,-2.75
403.72,0.18,2.94,0.17,2.94,-2.92,-2.73,-1.96,-2.74,-2.74,-2.76
407.76,0.05,2.83,0.06,2.85,-2.94,-2.74,-2.02,-2.90,-2.88,-2.78
411.84,-0.03,2.76,0.02,2.81,-2.96,-2.75,-2.08,-3.00,-2.94,-2.79
415.96,0.06,2.86,0.07,2.87,-2.99,-2.76,-2.14,-2.93,-2.92,-2.80
420.12,0.22,3.02,0.17,2.98,-3.01,-2.77,-2.20,-2.79,-2.84,-2.81
424.32,0.27,3.08,0.29,3.11,-3.04,-2.77,-2.26,-2.77,-2.75,-2.82
428.56,0.36,3.18,0.36,3.17,-3.08,-2.78,-2.32,-2.72,-2.72,-2.82
