frequency,raw,error,smoothed,error_smoothed,equalization,parametric_eq,fixed_band_eq,equalized_raw,equalized_smoothed,target
20.00,8.66,8.80,8.66,8.80,-8.80,-9.00,-3.70,-0.13,-0.13,-0.14
20.20,8.63,8.80,8.63,8.80,-8.79,-8.99,-3.80,-0.16,-0.16,-0.17
20.40,8.60,8.79,8.60,8.79,-8.79,-8.98,-3.90,-0.19,-0.19,-0.19
20.61,8.57,8.78,8.58,8.78,-8.79,-8.97,-4.00,-0.21,-0.21,-0.21
20.81,8.55,8.78,8.55,8.78,-8.78,-8.96,-4.11,-0.23,-0.23,-0.23
21.02,8.52,8.77,8.52,8.77,-8.77,-8.94,-4.22,-0.25,-0.25,-0.25
21.23,8.49,8.76,8.49,8.76,-8.76,-8.93,-4.34,-0.27,-0.27,-0.27
21.44,8.46,8.75,8.46,8.75,-8.75,-8.92,-4.46,-0.29,-0.29,-0.29
21.66,8.43,8.74,8.44,8.74,-8.74,-8.90,-4.58,-0.31,-0.30,-0.31
21.87,8.41,8.73,8.41,8.73,-8.73,-8.88,-4.70,-0.31,-0.32,-0.32
22.09,8.38,8.72,8.38,8.72,-8.71,-8.86,-4.83,-0.33,-0.33,-0.34
22.31,8.35,8.70,8.35,8.70,-8.69,-8.84,-4.96,-0.34,-0.34,-0.35
22.54,8.31,8.67,8.32,8.67,-8.67,-8.82,-5.09,-0.36,-0.36,-0.36
22.76,8.28,8.65,8.28,8.65,-8.65,-8.80,-5.23,-0.37,-0.37,-0.37
22.99,8.25,8.63,8.25,8.63,-8.63,-8.78,-5.37,-0.38,-0.38,-0.38
23.22,8.22,8.61,8.22,8.61,-8.61,-8.75,-5.52,-0.39,-0.39,-0.39
23.45,8.19,8.59,8.19,8.59,-8.59,-8.73,-5.67,-0.40,-0.40,-0.40
23.69,8.16,8.57,8.16,8.57,-8.56,-8.70,-5.82,-0.40,-0.40,-0.41
23.92,8.13,8.54,8.13,8.54,-8.54,-8.68,-5.97,-0.41,-0.41,-0.41
24.16,8.10,8.52,8.10,8.52,-8.51,-8.65,-6.13,-0.41,-0.41,-0.42
24.40,8.07,8.49,8.07,8.49,-8.49,-8.62,-6.29,-0.42,-0.42,-0.42
24.65,8.04,8.47,8.04,8.46,-8.46,-8.60,-6.45,-0.42,-0.42,-0.43
24.89,8.00,8.43,8.01,8.43,-8.44,-8.57,-6.62,-0.43,-0.43,-0.43
25.14,7.97,8.41,7.97,8.41,-8.41,-8.54,-6.79,-0.44,-0.44,-0.44
25.39,7.94,8.38,7.94,8.38,-8.38,-8.51,-6.96,-0.44,-0.44,-0.44
25.65,7.91,8.36,7.91,8.36,-8.36,-8.48,-7.13,-0.44,-0.44,-0.45
25.91,7.88,8.33,7.88,8.33,-8.33,-8.45,-7.30,-0.45,-0.45,-0.45
26.16,7.85,8.31,7.85,8.30,-8.30,-8.42,-7.47,-0.45,-0.45,-0.46
26.43,7.81,8.27,7.82,8.28,-8.27,-8.39,-7.64,-0.46,-0.46,-0.46
26.69,7.78,8.25,7.78,8.25,-8.25,-8.35,-7.82,-0.46,-0.46,-0.47
26.96,7.75,8.22,7.75,8.21,-8.22,-8.32,-7.98,-0.46,-0.47,-0.47
27.23,7.71,8.18,7.72,8.19,-8.19,-8.29,-8.15,-0.47,-0.47,-0.47
27.50,7.68,8.16,7.68,8.16,-8.16,-8.26,-8.32,-0.48,-0.48,-0.48
27.77,7.65,8.13,7.65,8.13,-8.13,-8.23,-8.48,-0.48,-0.48,-0.48
28.05,7.61,8.10,7.62,8.10,-8.10,-8.19,-8.63,-0.49,-0.48,-0.49
28.33,7.58,8.07,7.58,8.07,-8.07,-8.16,-8.78,-0.49,-0.49,-0.49
28.62,7.55,8.04,7.55,8.04,-8.04,-8.13,-8.92,-0.49,-0.49,-0.49
28.90,7.51,8.01,7.52,8.01,-8.01,-8.10,-9.05,-0.50,-0.49,-0.50
29.19,7.48,7.98,7.48,7.98,-7.98,-8.06,-9.17,-0.49,-0.49,-0.50
29.48,7.45,7.95,7.45,7.95,-7.94,-8.03,-9.27,-0.49,-0.50,-0.50
29.78,7.41,7.91,7.42,7.91,-7.91,-8.00,-9.37,-0.50,-0.49,-0.50
30.08,7.38,7.88,7.38,7.88,-7.88,-7.96,-9.45,-0.49,-0.50,-0.50
30.38,7.34,7.84,7.34,7.84,-7.84,-7.93,-9.52,-0.50,-0.50,-0.50
30.68,7.30,7.81,7.30,7.81,-7.81,-7.90,-9.58,-0.50,-0.50,-0.51
30.99,7.26,7.77,7.26,7.77,-7.77,-7.86,-9.61,-0.51,-0.51,-0.51
31.30,7.23,7.74,7.23,7.74,-7.74,-7.83,-9.64,-0.51,-0.51,-0.51
31.61,7.19,7.70,7.19,7.70,-7.71,-7.80,-9.64,-0.51,-0.51,-0.51
31.93,7.16,7.68,7.16,7.67,-7.67,-7.76,-9.63,-0.51,-0.51,-0.52
32.24,7.12,7.64,7.12,7.64,-7.64,-7.73,-9.61,-0.52,-0.52,-0.52
32.57,7.09,7.62,7.09,7.61,-7.61,-7.70,-9.57,-0.52,-0.52,-0.53
32.89,7.05,7.58,7.05,7.58,-7.58,-7.66,-9.51,-0.53,-0.52,-0.53
33.22,7.02,7.55,7.02,7.55,-7.55,-7.63,-9.45,-0.52,-0.53,-0.53
33.55,6.98,7.51,6.98,7.51,-7.52,-7.60,-9.37,-0.53,-0.53,-0.53
33.89,6.94,7.48,6.95,7.48,-7.48,-7.56,-9.28,-0.54,-0.54,-0.54
34.23,6.91,7.45,6.91,7.45,-7.45,-7.53,-9.19,-0.54,-0.54,-0.54
34.57,6.88,7.43,6.88,7.43,-7.42,-7.50,-9.08,-0.54,-0.54,-0.55
34.92,6.85,7.40,6.85,7.40,-7.39,-7.46,-8.97,-0.54,-0.54,-0.55
35.27,6.82,7.37,6.82,7.37,-7.37,-7.43,-8.85,-0.54,-0.55,-0.55
35.62,6.78,7.33,6.79,7.34,-7.34,-7.40,-8.73,-0.55,-0.55,-0.55
35.97,6.75,7.31,6.75,7.31,-7.30,-7.36,-8.60,-0.55,-0.55,-0.56
36.33,6.72,7.28,6.72,7.27,-7.27,-7.33,-8.48,-0.55,-0.55,-0.56
36.70,6.68,7.24,6.68,7.24,-7.24,-7.30,-8.35,-0.56,-0.56,-0.56
37.06,6.64,7.20,6.65,7.20,-7.20,-7.27,-8.22,-0.56,-0.56,-0.56
37.43,6.61,7.17,6.61,7.17,-7.17,-7.23,-8.09,-0.56,-0.56,-0.56
37.81,6.57,7.14,6.57,7.14,-7.13,-7.20,-7.96,-0.56,-0.56,-0.57
38.19,6.53,7.10,6.53,7.10,-7.10,-7.17,-7.83,-0.57,-0.57,-0.57
38.57,6.49,7.07,6.49,7.06,-7.06,-7.14,-7.71,-0.57,-0.58,-0.58
38.95,6.44,7.02,6.45,7.03,-7.03,-7.10,-7.58,-0.59,-0.58,-0.58
39.34,6.41,7.00,6.41,6.99,-6.99,-7.07,-7.46,-0.58,-0.58,-0.59
39.74,6.37,6.96,6.37,6.96,-6.96,-7.04,-7.35,-0.59,-0.59,-0.59
40.14,6.33,6.92,6.33,6.92,-6.92,-7.01,-7.23,-0.59,-0.59,-0.59
40.54,6.29,6.89,6.29,6.89,-6.88,-6.97,-7.12,-0.59,-0.59,-0.60
40.94,6.25,6.85,6.25,6.85,-6.85,-6.94,-7.02,-0.59,-0.60,-0.60
41.35,6.21,6.81,6.21,6.81,-6.81,-6.91,-6.92,-0.60,-0.60,-0.60
41.76,6.17,6.77,6.17,6.77,-6.77,-6.88,-6.82,-0.60,-0.60,-0.60
42.18,6.14,6.73,6.14,6.73,-6.73,-6.84,-6.73,-0.59,-0.59,-0.59
42.60,6.10,6.69,6.10,6.69,-6.69,-6.81,-6.64,-0.59,-0.58,-0.59
43.03,6.07,6.66,6.07,6.65,-6.65,-6.78,-6.56,-0.58,-0.58,-0.59
43.46,6.02,6.61,6.02,6.61,-6.61,-6.75,-6.48,-0.58,-0.58,-0.59
43.90,5.98,6.57,5.98,6.57,-6.57,-6.71,-6.41,-0.58,-0.58,-0.59
44.33,5.94,6.52,5.94,6.52,-6.53,-6.68,-6.34,-0.59,-0.58,-0.58
44.78,5.91,6.49,5.91,6.49,-6.49,-6.65,-6.28,-0.58,-0.58,-0.58
45.23,5.87,6.45,5.87,6.45,-6.46,-6.62,-6.22,-0.58,-0.58,-0.58
45.68,5.84,6.42,5.84,6.42,-6.42,-6.58,-6.16,-0.58,-0.58,-0.58
46.13,5.81,6.39,5.81,6.39,-6.39,-6.55,-6.11,-0.58,-0.58,-0.58
46.60,5.78,6.37,5.78,6.36,-6.36,-6.52,-6.06,-0.58,-0.58,-0.59
47.06,5.75,6.34,5.75,6.33,-6.33,-6.49,-6.02,-0.58,-0.58,-0.59
47.53,5.71,6.30,5.72,6.30,-6.30,-6.45,-5.99,-0.59,-0.59,-0.59
48.01,5.68,6.27,5.68,6.27,-6.27,-6.42,-5.95,-0.59,-0.59,-0.59
48.49,5.65,6.25,5.65,6.24,-6.24,-6.39,-5.92,-0.59,-0.59,-0.60
48.97,5.62,6.22,5.62,6.22,-6.21,-6.35,-5.90,-0.59,-0.59,-0.60
49.46,5.58,6.18,5.58,6.18,-6.17,-6.32,-5.87,-0.59,-0.59,-0.60
49.96,5.54,6.14,5.55,6.14,-6.14,-6.29,-5.85,-0.59,-0.59,-0.60
50.46,5.51,6.10,5.51,6.10,-6.10,-6.25,-5.84,-0.59,-0.59,-0.59
50.96,5.47,6.06,5.47,6.06,-6.07,-6.22,-5.82,-0.60,-0.59,-0.59
51.47,5.44,6.03,5.44,6.03,-6.03,-6.19,-5.81,-0.59,-0.59,-0.59
51.99,5.41,6.00,5.42,6.00,-6.00,-6.15,-5.81,-0.59,-0.59,-0.59
52.51,5.39,5.97,5.39,5.97,-5.97,-6.12,-5.80,-0.58,-0.58,-0.58
53.03,5.37,5.95,5.37,5.95,-5.95,-6.08,-5.79,-0.57,-0.58,-0.58
53.56,5.34,5.92,5.35,5.92,-5.92,-6.05,-5.79,-0.58,-0.57,-0.58
54.10,5.32,5.90,5.32,5.90,-5.89,-6.01,-5.79,-0.57,-0.57,-0.58
54.64,5.29,5.87,5.29,5.86,-5.86,-5.98,-5.79,-0.57,-0.57,-0.58
55.18,5.26,5.83,5.26,5.83,-5.83,-5.94,-5.78,-0.57,-0.57,-0.57
55.74,5.23,5.80,5.23,5.80,-5.80,-5.91,-5.78,-0.57,-0.57,-0.57
56.29,5.20,5.77,5.20,5.76,-5.77,-5.88,-5.78,-0.57,-0.57,-0.57
56.86,5.17,5.73,5.17,5.73,-5.73,-5.84,-5.78,-0.56,-0.56,-0.56
57.42,5.14,5.70,5.14,5.70,-5.70,-5.80,-5.77,-0.56,-0.56,-0.56
58.00,5.11,5.67,5.11,5.67,-5.67,-5.77,-5.76,-0.56,-0.56,-0.56
58.58,5.08,5.64,5.08,5.64,-5.64,-5.73,-5.75,-0.55,-0.55,-0.56
59.16,5.05,5.60,5.05,5.60,-5.60,-5.70,-5.74,-0.55,-0.55,-0.55
59.76,5.02,5.57,5.02,5.57,-5.57,-5.66,-5.73,-0.55,-0.55,-0.55
60.35,4.99,5.54,4.99,5.54,-5.53,-5.63,-5.71,-0.54,-0.54,-0.55
60.96,4.96,5.50,4.96,5.50,-5.50,-5.59,-5.68,-0.54,-0.54,-0.54
61.57,4.93,5.47,4.93,5.47,-5.47,-5.55,-5.66,-0.53,-0.54,-0.54
62.18,4.89,5.43,4.89,5.43,-5.43,-5.52,-5.63,-0.54,-0.54,-0.54
62.80,4.85,5.39,4.86,5.39,-5.40,-5.48,-5.60,-0.54,-0.54,-0.54
63.43,4.82,5.36,4.82,5.36,-5.36,-5.44,-5.56,-0.54,-0.54,-0.54
64.07,4.79,5.33,4.79,5.32,-5.33,-5.41,-5.52,-0.53,-0.54,-0.54
64.71,4.75,5.29,4.75,5.29,-5.29,-5.37,-5.47,-0.54,-0.53,-0.54
65.35,4.71,5.25,4.71,5.25,-5.25,-5.33,-5.42,-0.54,-0.53,-0.54
66.01,4.67,5.21,4.67,5.21,-5.20,-5.29,-5.37,-0.53,-0.53,-0.54
66.67,4.63,5.17,4.63,5.17,-5.16,-5.26,-5.32,-0.53,-0.53,-0.54
67.33,4.58,5.12,4.58,5.12,-5.11,-5.22,-5.26,-0.53,-0.53,-0.54
68.01,4.53,5.07,4.53,5.07,-5.06,-5.18,-5.20,-0.53,-0.54,-0.54
68.69,4.47,5.01,4.48,5.01,-5.02,-5.14,-5.13,-0.54,-0.54,-0.54
69.37,4.42,4.96,4.42,4.96,-4.97,-5.10,-5.07,-0.55,-0.54,-0.54
70.07,4.38,4.92,4.38,4.92,-4.92,-5.06,-5.00,-0.54,-0.54,-0.54
70.77,4.33,4.87,4.34,4.87,-4.88,-5.03,-4.93,-0.55,-0.54,-0.54
71.48,4.30,4.84,4.30,4.83,-4.84,-4.99,-4.86,-0.53,-0.54,-0.54
72.19,4.26,4.79,4.26,4.80,-4.79,-4.95,-4.79,-0.53,-0.53,-0.53
72.91,4.23,4.76,4.23,4.76,-4.75,-4.91,-4.72,-0.52,-0.52,-0.53
73.64,4.20,4.73,4.20,4.72,-4.71,-4.87,-4.65,-0.51,-0.51,-0.53
74.38,4.16,4.68,4.16,4.68,-4.67,-4.83,-4.58,-0.51,-0.51,-0.52
75.12,4.11,4.63,4.11,4.63,-4.63,-4.79,-4.51,-0.52,-0.52,-0.52
75.87,4.07,4.59,4.07,4.59,-4.59,-4.75,-4.44,-0.52,-0.52,-0.52
76.63,4.03,4.54,4.04,4.55,-4.56,-4.71,-4.37,-0.52,-0.52,-0.51
77.40,4.01,4.52,4.01,4.51,-4.52,-4.67,-4.31,-0.50,-0.51,-0.51
78.17,3.98,4.48,3.98,4.48,-4.48,-4.64,-4.24,-0.50,-0.50,-0.50
78.95,3.95,4.45,3.95,4.45,-4.44,-4.60,-4.18,-0.49,-0.49,-0.50
79.74,3.92,4.42,3.92,4.41,-4.41,-4.56,-4.12,-0.49,-0.49,-0.50
80.54,3.89,4.38,3.89,4.38,-4.38,-4.52,-4.06,-0.49,-0.49,-0.49
81.35,3.85,4.34,3.85,4.34,-4.34,-4.48,-4.00,-0.49,-0.49,-0.49
82.16,3.81,4.30,3.82,4.30,-4.30,-4.44,-3.95,-0.49,-0.49,-0.49
82.98,3.78,4.27,3.78,4.27,-4.26,-4.40,-3.90,-0.48,-0.48,-0.49
83.81,3.75,4.24,3.75,4.23,-4.22,-4.36,-3.85,-0.47,-0.48,-0.49
84.65,3.70,4.19,3.71,4.19,-4.18,-4.32,-3.80,-0.48,-0.47,-0.49
85.50,3.66,4.14,3.66,4.14,-4.14,-4.28,-3.76,-0.48,-0.48,-0.48
86.35,3.61,4.09,3.61,4.09,-4.10,-4.24,-3.72,-0.49,-0.49,-0.48
87.22,3.57,4.05,3.57,4.05,-4.06,-4.20,-3.68,-0.49,-0.49,-0.48
88.09,3.54,4.02,3.54,4.02,-4.03,-4.16,-3.64,-0.49,-0.49,-0.48
88.97,3.51,3.99,3.52,3.99,-4.00,-4.12,-3.61,-0.49,-0.48,-0.48
89.86,3.50,3.98,3.50,3.98,-3.97,-4.08,-3.58,-0.47,-0.48,-0.48
90.76,3.48,3.96,3.48,3.96,-3.95,-4.04,-3.55,-0.47,-0.47,-0.48
91.66,3.46,3.94,3.46,3.94,-3.92,-4.00,-3.53,-0.46,-0.46,-0.48
92.58,3.43,3.91,3.43,3.91,-3.89,-3.96,-3.50,-0.46,-0.47,-0.48
93.51,3.39,3.87,3.39,3.87,-3.87,-3.92,-3.48,-0.47,-0.47,-0.48
94.44,3.35,3.83,3.36,3.83,-3.84,-3.88,-3.47,-0.48,-0.48,-0.48
95.39,3.32,3.80,3.32,3.80,-3.80,-3.84,-3.45,-0.48,-0.48,-0.48
96.34,3.29,3.77,3.29,3.76,-3.77,-3.80,-3.44,-0.48,-0.48,-0.48
97.30,3.26,3.73,3.27,3.74,-3.74,-3.76,-3.43,-0.48,-0.47,-0.47
98.28,3.24,3.71,3.24,3.71,-3.71,-3.72,-3.42,-0.47,-0.47,-0.47
99.26,3.22,3.69,3.22,3.68,-3.69,-3.68,-3.41,-0.46,-0.47,-0.47
100.25,3.19,3.66,3.20,3.66,-3.66,-3.64,-3.41,-0.47,-0.47,-0.47
101.25,3.17,3.64,3.17,3.64,-3.64,-3.60,-3.40,-0.46,-0.47,-0.47
102.27,3.14,3.61,3.15,3.61,-3.61,-3.56,-3.40,-0.47,-0.46,-0.47
103.29,3.12,3.59,3.12,3.59,-3.58,-3.52,-3.40,-0.46,-0.46,-0.47
104.32,3.10,3.56,3.10,3.56,-3.55,-3.48,-3.40,-0.45,-0.45,-0.46
105.37,3.07,3.53,3.07,3.53,-3.52,-3.44,-3.40,-0.45,-0.45,-0.46
106.42,3.03,3.49,3.04,3.49,-3.49,-3.40,-3.40,-0.46,-0.45,-0.46
107.48,3.00,3.45,3.00,3.45,-3.45,-3.36,-3.40,-0.45,-0.45,-0.45
108.56,2.96,3.41,2.97,3.42,-3.42,-3.32,-3.41,-0.45,-0.45,-0.45
109.64,2.94,3.39,2.94,3.38,-3.38,-3.28,-3.41,-0.44,-0.44,-0.45
110.74,2.91,3.36,2.91,3.35,-3.35,-3.25,-3.41,-0.44,-0.44,-0.45
111.85,2.87,3.31,2.88,3.32,-3.32,-3.21,-3.41,-0.45,-0.44,-0.44
112.97,2.84,3.28,2.84,3.28,-3.29,-3.17,-3.41,-0.45,-0.45,-0.44
114.10,2.82,3.26,2.82,3.26,-3.26,-3.13,-3.41,-0.44,-0.44,-0.44
115.24,2.80,3.24,2.81,3.24,-3.24,-3.09,-3.41,-0.44,-0.43,-0.44
116.39,2.79,3.23,2.79,3.22,-3.22,-3.06,-3.41,-0.42,-0.43,-0.44
117.55,2.77,3.20,2.77,3.20,-3.19,-3.02,-3.40,-0.42,-0.42,-0.43
118.73,2.74,3.17,2.74,3.17,-3.17,-2.98,-3.39,-0.43,-0.43,-0.43
119.92,2.71,3.14,2.72,3.14,-3.14,-2.94,-3.38,-0.43,-0.43,-0.43
121.12,2.69,3.11,2.70,3.12,-3.12,-2.91,-3.37,-0.43,-0.42,-0.42
122.33,2.68,3.10,2.68,3.09,-3.09,-2.87,-3.36,-0.41,-0.41,-0.42
123.55,2.66,3.07,2.65,3.06,-3.06,-2.83,-3.34,-0.40,-0.41,-0.41
124.79,2.62,3.03,2.62,3.03,-3.03,-2.80,-3.32,-0.41,-0.40,-0.41
126.03,2.58,2.99,2.59,3.00,-3.00,-2.76,-3.29,-0.41,-0.40,-0.41
127.29,2.57,2.97,2.56,2.96,-2.97,-2.72,-3.27,-0.39,-0.40,-0.40
128.57,2.54,2.94,2.54,2.93,-2.93,-2.69,-3.24,-0.39,-0.40,-0.40
129.85,2.50,2.89,2.51,2.90,-2.90,-2.65,-3.21,-0.40,-0.39,-0.39
131.15,2.47,2.86,2.48,2.86,-2.86,-2.62,-3.17,-0.39,-0.39,-0.39
132.46,2.45,2.84,2.45,2.83,-2.83,-2.58,-3.13,-0.38,-0.39,-0.39
133.79,2.42,2.81,2.42,2.80,-2.80,-2.55,-3.09,-0.38,-0.38,-0.39
135.12,2.37,2.76,2.38,2.77,-2.77,-2.51,-3.05,-0.40,-0.39,-0.39
136.48,2.35,2.74,2.35,2.73,-2.74,-2.48,-3.01,-0.39,-0.39,-0.39
137.84,2.32,2.70,2.33,2.71,-2.71,-2.44,-2.96,-0.39,-0.38,-0.38
139.22,2.31,2.69,2.30,2.68,-2.68,-2.41,-2.92,-0.37,-0.38,-0.38
140.61,2.28,2.66,2.28,2.66,-2.65,-2.38,-2.87,-0.37,-0.37,-0.38
142.02,2.24,2.62,2.25,2.63,-2.63,-2.34,-2.82,-0.38,-0.37,-0.38
143.44,2.23,2.61,2.22,2.60,-2.60,-2.31,-2.77,-0.36,-0.37,-0.38
144.87,2.19,2.56,2.20,2.57,-2.57,-2.28,-2.71,-0.38,-0.37,-0.37
146.32,2.18,2.55,2.17,2.54,-2.54,-2.24,-2.66,-0.35,-0.36,-0.37
147.78,2.14,2.51,2.14,2.51,-2.51,-2.21,-2.61,-0.36,-0.36,-0.37
149.26,2.11,2.47,2.11,2.48,-2.47,-2.18,-2.56,-0.36,-0.36,-0.36
150.75,2.08,2.44,2.08,2.44,-2.44,-2.15,-2.50,-0.36,-0.36,-0.36
152.26,2.05,2.41,2.05,2.40,-2.41,-2.12,-2.45,-0.36,-0.36,-0.36
153.78,2.02,2.37,2.02,2.38,-2.38,-2.08,-2.40,-0.36,-0.35,-0.35
155.32,2.00,2.35,2.00,2.35,-2.35,-2.05,-2.35,-0.35,-0.35,-0.35
156.88,1.97,2.32,1.97,2.32,-2.32,-2.02,-2.30,-0.35,-0.35,-0.35
158.44,1.95,2.29,1.95,2.29,-2.29,-1.99,-2.25,-0.34,-0.34,-0.34
160.03,1.92,2.26,1.93,2.26,-2.26,-1.96,-2.20,-0.34,-0.33,-0.34
161.63,1.90,2.24,1.90,2.23,-2.23,-1.93,-2.15,-0.32,-0.33,-0.34
163.24,1.87,2.21,1.86,2.20,-2.19,-1.90,-2.10,-0.32,-0.33,-0.34
164.88,1.81,2.15,1.83,2.16,-2.15,-1.87,-2.06,-0.34,-0.33,-0.34
166.53,1.78,2.11,1.78,2.11,-2.11,-1.84,-2.01,-0.33,-0.33,-0.33
168.19,1.75,2.08,1.74,2.07,-2.07,-1.81,-1.97,-0.32,-0.33,-0.33
169.87,1.70,2.03,1.71,2.03,-2.04,-1.78,-1.92,-0.33,-0.33,-0.33
171.57,1.67,1.99,1.67,1.99,-2.00,-1.76,-1.88,-0.33,-0.32,-0.32
173.29,1.64,1.96,1.64,1.96,-1.96,-1.73,-1.84,-0.32,-0.32,-0.32
175.02,1.61,1.93,1.61,1.93,-1.93,-1.70,-1.80,-0.32,-0.32,-0.32
176.77,1.58,1.90,1.59,1.90,-1.90,-1.67,-1.77,-0.32,-0.31,-0.32
178.54,1.56,1.87,1.57,1.88,-1.87,-1.64,-1.73,-0.31,-0.30,-0.31
180.32,1.55,1.86,1.54,1.85,-1.85,-1.62,-1.70,-0.29,-0.30,-0.31
182.13,1.52,1.83,1.51,1.82,-1.82,-1.59,-1.66,-0.30,-0.30,-0.31
183.95,1.47,1.78,1.48,1.79,-1.79,-1.56,-1.63,-0.32,-0.31,-0.31
185.79,1.44,1.76,1.45,1.76,-1.76,-1.54,-1.60,-0.32,-0.32,-0.32
187.65,1.42,1.74,1.42,1.73,-1.73,-1.51,-1.57,-0.31,-0.32,-0.32
189.52,1.39,1.71,1.39,1.71,-1.71,-1.49,-1.54,-0.31,-0.31,-0.32
191.42,1.36,1.68,1.36,1.68,-1.67,-1.46,-1.51,-0.31,-0.31,-0.32
193.33,1.33,1.64,1.34,1.65,-1.64,-1.43,-1.49,-0.31,-0.31,-0.31
195.27,1.31,1.62,1.31,1.62,-1.62,-1.41,-1.46,-0.30,-0.31,-0.31
197.22,1.28,1.59,1.28,1.59,-1.59,-1.38,-1.44,-0.30,-0.31,-0.31
199.19,1.25,1.56,1.25,1.56,-1.56,-1.36,-1.41,-0.31,-0.31,-0.31
201.18,1.22,1.52,1.23,1.53,-1.53,-1.34,-1.39,-0.31,-0.30,-0.30
203.19,1.20,1.50,1.20,1.50,-1.50,-1.31,-1.37,-0.30,-0.30,-0.30
205.23,1.18,1.48,1.18,1.47,-1.47,-1.29,-1.35,-0.29,-0.29,-0.30
207.28,1.16,1.45,1.16,1.45,-1.45,-1.26,-1.33,-0.28,-0.29,-0.29
209.35,1.13,1.42,1.14,1.42,-1.42,-1.24,-1.31,-0.29,-0.29,-0.29
211.44,1.11,1.40,1.11,1.39,-1.39,-1.22,-1.29,-0.28,-0.29,-0.29
213.56,1.08,1.36,1.08,1.36,-1.37,-1.19,-1.27,-0.29,-0.28,-0.28
215.69,1.06,1.34,1.06,1.34,-1.34,-1.17,-1.26,-0.28,-0.28,-0.28
217.85,1.04,1.32,1.04,1.32,-1.32,-1.15,-1.24,-0.27,-0.27,-0.28
220.03,1.02,1.30,1.02,1.29,-1.29,-1.13,-1.22,-0.27,-0.27,-0.28
222.23,0.99,1.26,0.99,1.26,-1.26,-1.10,-1.20,-0.27,-0.27,-0.27
224.45,0.96,1.23,0.96,1.23,-1.23,-1.08,-1.19,-0.27,-0.27,-0.27
226.70,0.93,1.20,0.93,1.20,-1.20,-1.06,-1.17,-0.27,-0.27,-0.27
228.96,0.90,1.17,0.91,1.17,-1.17,-1.04,-1.15,-0.26,-0.26,-0.27
231.25,0.88,1.14,0.88,1.14,-1.13,-1.02,-1.14,-0.25,-0.25,-0.26
233.57,0.85,1.11,0.85,1.10,-1.10,-1.00,-1.12,-0.24,-0.25,-0.26
235.90,0.80,1.05,0.81,1.06,-1.06,-0.98,-1.10,-0.26,-0.25,-0.25
238.26,0.77,1.02,0.77,1.02,-1.02,-0.96,-1.08,-0.25,-0.25,-0.25
240.64,0.74,0.98,0.74,0.98,-0.98,-0.94,-1.06,-0.24,-0.24,-0.24
243.05,0.71,0.94,0.71,0.94,-0.95,-0.92,-1.05,-0.23,-0.23,-0.23
245.48,0.69,0.92,0.69,0.91,-0.91,-0.90,-1.03,-0.22,-0.22,-0.23
247.93,0.65,0.87,0.66,0.87,-0.87,-0.88,-1.01,-0.22,-0.22,-0.22
250.41,0.63,0.84,0.63,0.84,-0.84,-0.86,-0.99,-0.21,-0.21,-0.21
252.92,0.60,0.80,0.60,0.80,-0.81,-0.84,-0.96,-0.20,-0.20,-0.20
255.45,0.58,0.78,0.58,0.77,-0.77,-0.82,-0.94,-0.19,-0.19,-0.20
258.00,0.55,0.74,0.55,0.74,-0.73,-0.80,-0.92,-0.18,-0.18,-0.19
260.58,0.52,0.71,0.52,0.70,-0.70,-0.78,-0.90,-0.17,-0.18,-0.19
263.19,0.48,0.66,0.48,0.66,-0.66,-0.76,-0.87,-0.18,-0.18,-0.18
265.82,0.43,0.61,0.44,0.62,-0.62,-0.74,-0.85,-0.19,-0.18,-0.18
268.48,0.41,0.58,0.41,0.58,-0.59,-0.72,-0.82,-0.17,-0.18,-0.17
271.16,0.38,0.55,0.38,0.54,-0.55,-0.71,-0.80,-0.17,-0.17,-0.17
273.87,0.34,0.51,0.35,0.51,-0.51,-0.69,-0.77,-0.17,-0.16,-0.17
276.61,0.32,0.48,0.32,0.48,-0.48,-0.67,-0.74,-0.15,-0.15,-0.16
279.38,0.30,0.46,0.29,0.45,-0.44,-0.65,-0.72,-0.14,-0.15,-0.16
282.17,0.26,0.42,0.27,0.42,-0.41,-0.63,-0.69,-0.15,-0.14,-0.16
284.99,0.23,0.38,0.23,0.38,-0.38,-0.62,-0.66,-0.15,-0.15,-0.15
287.84,0.20,0.35,0.20,0.35,-0.35,-0.60,-0.63,-0.15,-0.15,-0.15
290.72,0.17,0.32,0.17,0.32,-0.33,-0.58,-0.61,-0.16,-0.16,-0.15
293.63,0.15,0.30,0.15,0.30,-0.31,-0.56,-0.58,-0.16,-0.16,-0.15
296.57,0.14,0.29,0.14,0.29,-0.30,-0.55,-0.55,-0.15,-0.15,-0.15
299.53,0.14,0.29,0.14,0.28,-0.29,-0.53,-0.52,-0.15,-0.15,-0.15
302.53,0.14,0.28,0.15,0.28,-0.28,-0.51,-0.49,-0.14,-0.14,-0.14
305.55,0.15,0.29,0.15,0.29,-0.28,-0.49,-0.46,-0.13,-0.13,-0.14
308.61,0.16,0.29,0.16,0.29,-0.28,-0.48,-0.43,-0.12,-0.12,-0.13
311.69,0.16,0.29,0.16,0.29,-0.28,-0.46,-0.40,-0.12,-0.12,-0.13
314.81,0.16,0.28,0.16,0.28,-0.28,-0.44,-0.37,-0.12,-0.12,-0.12
317.96,0.16,0.28,0.16,0.28,-0.28,-0.43,-0.34,-0.12,-0.12,-0.12
321.14,0.16,0.27,0.16,0.27,-0.27,-0.41,-0.31,-0.11,-0.11,-0.11
324.35,0.16,0.27,0.16,0.27,-0.27,-0.39,-0.28,-0.11,-0.11,-0.11
327.59,0.16,0.27,0.16,0.27,-0.26,-0.38,-0.25,-0.10,-0.10,-0.11
330.87,0.16,0.26,0.16,0.26,-0.26,-0.36,-0.22,-0.10,-0.10,-0.10
334.18,0.16,0.26,0.16,0.26,-0.25,-0.34,-0.19,-0.09,-0.09,-0.10
337.52,0.16,0.25,0.16,0.25,-0.25,-0.33,-0.16,-0.09,-0.09,-0.09
340.90,0.16,0.24,0.16,0.24,-0.24,-0.31,-0.13,-0.08,-0.08,-0.08
344.30,0.16,0.24,0.16,0.24,-0.24,-0.29,-0.10,-0.08,-0.08,-0.08
347.75,0.16,0.24,0.16,0.24,-0.24,-0.28,-0.06,-0.07,-0.07,-0.08
351.23,0.16,0.24,0.16,0.24,-0.23,-0.26,-0.03,-0.07,-0.07,-0.08
354.74,0.16,0.23,0.16,0.23,-0.23,-0.24,-0.00,-0.07,-0.07,-0.07
358.28,0.16,0.23,0.16,0.23,-0.23,-0.23,0.03,-0.07,-0.07,-0.07
361.87,0.16,0.23,0.16,0.23,-0.23,-0.21,0.06,-0.07,-0.07,-0.07
365.49,0.16,0.23,0.16,0.23,-0.24,-0.19,0.09,-0.07,-0.07,-0.07
369.14,0.17,0.24,0.17,0.24,-0.24,-0.18,0.12,-0.07,-0.07,-0.07
372.83,0.17,0.24,0.18,0.24,-0.24,-0.16,0.15,-0.07,-0.06,-0.07
376.56,0.18,0.24,0.18,0.24,-0.24,-0.14,0.18,-0.06,-0.06,-0.06
380.33,0.18,0.24,0.18,0.24,-0.23,-0.12,0.21,-0.05,-0.06,-0.06
384.13,0.17,0.23,0.18,0.23,-0.23,-0.11,0.24,-0.05,-0.05,-0.06
387.97,0.16,0.22,0.16,0.22,-0.21,-0.09,0.28,-0.05,-0.05,-0.06
391.85,0.15,0.20,0.15,0.20,-0.19,-0.07,0.31,-0.04,-0.04,-0.05
395.77,0.12,0.17,0.12,0.17,-0.16,-0.05,0.34,-0.04,-0.04,-0.05
399.73,0.09,0.13,0.10,0.13,-0.13,-0.04,0.37,-0.04,-0.04,-0.04
403.72,0.06,0.10,0.06,0.10,-0.10,-0.02,0.40,-0.03,-0.03,-0.04
407.76,0.03,0.06,0.03,0.06,-0.06,-0.00,0.43,-0.03,-0.03,-0.03
411.84,-0.01,0.02,-0.00,0.02,-0.02,0.02,0.46,-0.03,-0.03,-0.03
415.96,-0.04,-0.02,-0.04,-0.02,0.01,0.04,0.49,-0.02,-0.03,-0.02
420.12,-0.07,-0.05,-0.07,-0.05,0.04,0.05,0.51,-0.02,-0.02,-0.02
424.32,-0.10,-0.08,-0.09,-0.08,0.07,0.07,0.54,-0.02,-0.02,-0.02
428.56,-0.11,-0.10,-0.11,-0.10,0.10,0.09,0.57,-0.01,-0.01,-0.01
432.85,-0.13,-0.12,-0.13,-0.12,0.12,0.11,0.60,-0.01,-0.01,-0.01
437.18,-0.15,-0.14,-0.14,-0.14,0.14,0.13,0.62,-0.01,-0.00,-0.01
441.55,-0.16,-0.15,-0.16,-0.16,0.16,0.15,0.65,0.00,-0.00,-0.01
445.96,-0.18,-0.17,-0.18,-0.18,0.18,0.17,0.67,-0.00,-0.00,-0.01
450.42,-0.21,-0.20,-0.20,-0.20,0.20,0.19,0.69,-0.01,-0.01,-0.01
454.93,-0.23,-0.22,-0.23,-0.22,0.22,0.21,0.71,-0.01,-0.01,-0.01
459.48,-0.25,-0.24,-0.25,-0.24,0.24,0.23,0.73,-0.00,-0.00,-0.01
464.07,-0.27,-0.26,-0.27,-0.26,0.27,0.25,0.75,0.00,0.00,-0.01
468.71,-0.30,-0.29,-0.30,-0.29,0.30,0.27,0.76,0.00,0.00,-0.01
