frequency,raw,error,smoothed,error_smoothed,equalization,parametric_eq,fixed_band_eq,equalized_raw,equalized_smoothed,target
20.00,-6.72,-10.96,-6.72,-10.96,6.00,6.63,2.51,-0.72,-0.72,4.24
20.20,-6.60,-10.88,-6.60,-10.88,6.00,6.60,2.59,-0.60,-0.60,4.28
20.40,-6.48,-10.80,-6.48,-10.80,6.00,6.57,2.66,-0.48,-0.48,4.32
20.61,-6.36,-10.70,-6.36,-10.71,6.00,6.54,2.74,-0.36,-0.36,4.34
20.81,-6.24,-10.62,-6.24,-10.62,6.00,6.51,2.82,-0.24,-0.24,4.38
21.02,-6.12,-10.54,-6.12,-10.53,6.00,6.48,2.90,-0.12,-0.12,4.42
21.23,-5.99,-10.42,-5.99,-10.43,6.00,6.45,2.99,0.01,0.01,4.43
21.44,-5.87,-10.32,-5.87,-10.32,6.00,6.42,3.07,0.13,0.13,4.45
21.66,-5.74,-10.20,-5.74,-10.19,6.00,6.39,3.16,0.26,0.26,4.46
21.87,-5.61,-10.07,-5.61,-10.07,6.00,6.36,3.25,0.39,0.39,4.46
22.09,-5.48,-9.95,-5.48,-9.95,6.00,6.32,3.35,0.52,0.52,4.47
22.31,-5.35,-9.82,-5.35,-9.82,6.00,6.29,3.45,0.65,0.65,4.47
22.54,-5.22,-9.69,-5.21,-9.68,6.00,6.26,3.55,0.78,0.79,4.47
22.76,-5.09,-9.55,-5.09,-9.54,6.00,6.22,3.65,0.91,0.91,4.46
22.99,-4.96,-9.41,-4.98,-9.43,6.00,6.19,3.75,1.04,1.02,4.45
23.22,-4.90,-9.35,-4.90,-9.34,6.00,6.15,3.86,1.10,1.10,4.45
23.45,-4.84,-9.27,-4.85,-9.28,6.00,6.12,3.97,1.16,1.15,4.44
23.69,-4.79,-9.23,-4.80,-9.23,6.00,6.08,4.08,1.21,1.20,4.44
23.92,-4.74,-9.17,-4.71,-9.15,6.00,6.04,4.19,1.26,1.29,4.43
24.16,-4.59,-9.03,-4.58,-9.02,6.00,6.01,4.31,1.41,1.42,4.44
24.40,-4.39,-8.83,-4.40,-8.84,6.00,5.97,4.43,1.61,1.60,4.44
24.65,-4.20,-8.63,-4.19,-8.63,6.00,5.93,4.55,1.80,1.81,4.43
24.89,-4.00,-8.43,-4.01,-8.45,6.00,5.89,4.67,2.00,1.99,4.43
25.14,-3.86,-8.29,-3.87,-8.30,6.00,5.85,4.79,2.14,2.13,4.43
25.39,-3.77,-8.20,-3.76,-8.19,6.00,5.81,4.91,2.23,2.24,4.43
25.65,-3.67,-8.09,-3.67,-8.09,6.00,5.77,5.04,2.33,2.33,4.42
25.91,-3.58,-7.99,-3.56,-7.98,6.00,5.73,5.16,2.42,2.44,4.41
26.16,-3.43,-7.84,-3.43,-7.84,6.00,5.68,5.29,2.57,2.57,4.41
26.43,-3.27,-7.68,-3.27,-7.67,6.00,5.64,5.41,2.73,2.73,4.41
26.69,-3.10,-7.51,-3.10,-7.50,6.00,5.60,5.53,2.90,2.90,4.41
26.96,-2.94,-7.34,-2.96,-7.36,6.00,5.55,5.65,3.06,3.04,4.40
27.23,-2.85,-7.25,-2.85,-7.25,6.00,5.51,5.76,3.15,3.15,4.40
27.50,-2.78,-7.17,-2.78,-7.17,6.00,5.46,5.88,3.22,3.22,4.40
27.77,-2.72,-7.10,-2.71,-7.10,6.00,5.41,5.98,3.28,3.29,4.38
28.05,-2.65,-7.03,-2.64,-7.03,6.00,5.37,6.09,3.35,3.36,4.38
28.33,-2.57,-6.94,-2.58,-6.95,6.00,5.32,6.18,3.43,3.42,4.37
28.62,-2.49,-6.86,-2.50,-6.87,6.01,5.27,6.27,3.52,3.51,4.37
28.90,-2.42,-6.79,-2.40,-6.77,6.02,5.22,6.35,3.60,3.62,4.37
29.19,-2.28,-6.65,-2.27,-6.65,6.02,5.17,6.43,3.74,3.75,4.37
29.48,-2.12,-6.50,-2.12,-6.49,6.01,5.12,6.49,3.89,3.89,4.38
29.78,-1.95,-6.32,-1.96,-6.33,6.00,5.07,6.54,4.05,4.04,4.37
30.08,-1.80,-6.18,-1.81,-6.17,5.97,5.02,6.58,4.17,4.16,4.38
30.38,-1.67,-6.03,-1.66,-6.02,5.93,4.96,6.61,4.26,4.27,4.35
30.68,-1.54,-5.89,-1.54,-5.89,5.88,4.91,6.63,4.34,4.35,4.35
30.99,-1.41,-5.75,-1.43,-5.78,5.81,4.85,6.63,4.40,4.38,4.34
31.30,-1.35,-5.69,-1.35,-5.70,5.72,4.80,6.62,4.37,4.37,4.34
31.61,-1.29,-5.63,-1.29,-5.62,5.61,4.74,6.61,4.32,4.32,4.34
31.93,-1.23,-5.55,-1.21,-5.53,5.48,4.69,6.57,4.25,4.28,4.32
32.24,-1.09,-5.39,-1.08,-5.39,5.35,4.63,6.53,4.26,4.27,4.31
32.57,-0.91,-5.22,-0.92,-5.22,5.21,4.57,6.46,4.29,4.29,4.30
32.89,-0.74,-5.03,-0.75,-5.04,5.07,4.51,6.40,4.33,4.32,4.29
33.22,-0.61,-4.88,-0.61,-4.89,4.94,4.45,6.31,4.33,4.33,4.27
33.55,-0.50,-4.77,-0.49,-4.76,4.80,4.39,6.22,4.30,4.31,4.27
33.89,-0.39,-4.64,-0.39,-4.65,4.66,4.33,6.12,4.27,4.27,4.25
34.23,-0.30,-4.55,-0.30,-4.54,4.53,4.26,6.01,4.23,4.22,4.25
34.57,-0.21,-4.43,-0.21,-4.43,4.40,4.20,5.89,4.19,4.19,4.22
34.92,-0.11,-4.32,-0.10,-4.32,4.29,4.14,5.77,4.18,4.18,4.21
35.27,0.02,-4.19,0.03,-4.17,4.17,4.07,5.64,4.19,4.20,4.21
35.62,0.16,-4.03,0.16,-4.03,4.05,4.00,5.50,4.21,4.21,4.19
35.97,0.30,-3.87,0.28,-3.90,3.92,3.94,5.36,4.22,4.20,4.17
36.33,0.38,-3.79,0.37,-3.79,3.79,3.87,5.22,4.17,4.16,4.17
36.70,0.45,-3.71,0.46,-3.70,3.67,3.80,5.07,4.12,4.13,4.16
37.06,0.54,-3.60,0.57,-3.58,3.56,3.73,4.92,4.10,4.13,4.15
37.43,0.70,-3.45,0.71,-3.43,3.47,3.66,4.77,4.17,4.18,4.15
37.81,0.87,-3.27,0.84,-3.30,3.38,3.59,4.61,4.25,4.22,4.14
38.19,0.94,-3.19,0.90,-3.23,3.29,3.52,4.46,4.23,4.19,4.13
38.57,0.92,-3.21,0.93,-3.20,3.19,3.45,4.31,4.11,4.12,4.14
38.95,0.90,-3.22,0.96,-3.16,3.09,3.37,4.15,3.99,4.04,4.12
39.34,1.05,-3.07,1.05,-3.06,2.97,3.30,4.00,4.03,4.03,4.12
39.74,1.22,-2.89,1.20,-2.91,2.86,3.22,3.85,4.08,4.06,4.11
40.14,1.38,-2.72,1.37,-2.73,2.75,3.15,3.69,4.13,4.13,4.10
40.54,1.51,-2.59,1.52,-2.58,2.64,3.07,3.54,4.15,4.16,4.10
40.94,1.65,-2.44,1.64,-2.45,2.52,2.99,3.39,4.17,4.15,4.10
41.35,1.73,-2.35,1.73,-2.35,2.39,2.91,3.24,4.12,4.12,4.08
41.76,1.81,-2.26,1.81,-2.26,2.26,2.83,3.10,4.07,4.08,4.07
42.18,1.88,-2.18,1.87,-2.19,2.14,2.75,2.95,4.02,4.01,4.06
42.60,1.95,-2.10,1.95,-2.10,2.03,2.67,2.81,3.98,3.97,4.05
43.03,2.02,-2.02,2.07,-1.97,1.93,2.59,2.66,3.95,3.99,4.04
43.46,2.20,-1.82,2.20,-1.82,1.83,2.51,2.52,4.04,4.04,4.02
43.90,2.38,-1.62,2.33,-1.67,1.74,2.42,2.38,4.12,4.07,3.99
44.33,2.42,-1.56,2.42,-1.56,1.65,2.34,2.25,4.07,4.07,3.98
44.78,2.43,-1.52,2.44,-1.52,1.55,2.25,2.11,3.98,3.99,3.95
45.23,2.43,-1.51,2.42,-1.52,1.46,2.17,1.98,3.89,3.88,3.94
45.68,2.44,-1.48,2.45,-1.47,1.38,2.08,1.85,3.82,3.83,3.92
46.13,2.50,-1.41,2.56,-1.35,1.31,1.99,1.71,3.82,3.87,3.91
46.60,2.70,-1.20,2.69,-1.21,1.24,1.91,1.59,3.94,3.93,3.90
47.06,2.87,-1.03,2.78,-1.11,1.16,1.82,1.46,4.03,3.95,3.90
47.53,2.83,-1.06,2.83,-1.05,1.07,1.73,1.33,3.90,3.91,3.89
48.01,2.79,-1.09,2.86,-1.01,0.98,1.64,1.21,3.77,3.84,3.88
48.49,2.92,-0.95,2.92,-0.95,0.89,1.55,1.09,3.81,3.80,3.87
48.97,3.05,-0.80,3.03,-0.82,0.81,1.46,0.97,3.86,3.84,3.85
49.46,3.13,-0.71,3.14,-0.70,0.75,1.37,0.85,3.88,3.89,3.84
49.96,3.21,-0.61,3.19,-0.65,0.70,1.28,0.73,3.91,3.89,3.82
50.46,3.20,-0.63,3.20,-0.63,0.67,1.19,0.61,3.87,3.86,3.84
50.96,3.17,-0.66,3.20,-0.62,0.64,1.09,0.50,3.81,3.85,3.83
51.47,3.20,-0.62,3.20,-0.62,0.63,1.00,0.39,3.83,3.83,3.82
51.99,3.23,-0.58,3.19,-0.62,0.62,0.91,0.28,3.85,3.81,3.81
52.51,3.18,-0.63,3.18,-0.63,0.61,0.82,0.17,3.79,3.79,3.81
53.03,3.14,-0.67,3.18,-0.63,0.59,0.73,0.06,3.73,3.77,3.81
53.56,3.21,-0.59,3.20,-0.60,0.54,0.63,-0.04,3.75,3.74,3.80
54.10,3.27,-0.52,3.26,-0.54,0.49,0.54,-0.14,3.76,3.75,3.79
54.64,3.34,-0.45,3.35,-0.44,0.42,0.45,-0.24,3.76,3.78,3.79
55.18,3.43,-0.35,3.45,-0.33,0.36,0.36,-0.33,3.79,3.81,3.78
55.74,3.56,-0.21,3.54,-0.23,0.29,0.26,-0.43,3.85,3.83,3.77
56.29,3.62,-0.15,3.61,-0.15,0.22,0.17,-0.52,3.84,3.83,3.77
56.86,3.63,-0.12,3.63,-0.12,0.15,0.08,-0.60,3.78,3.78,3.75
57.42,3.62,-0.11,3.62,-0.11,0.09,-0.01,-0.69,3.71,3.71,3.73
58.00,3.61,-0.11,3.64,-0.09,0.04,-0.10,-0.77,3.65,3.67,3.72
58.58,3.68,-0.03,3.68,-0.03,-0.00,-0.19,-0.84,3.68,3.68,3.71
59.16,3.74,0.05,3.74,0.05,-0.04,-0.28,-0.92,3.70,3.70,3.70
59.76,3.80,0.13,3.79,0.12,-0.08,-0.37,-0.99,3.72,3.71,3.67
60.35,3.81,0.16,3.80,0.15,-0.12,-0.46,-1.05,3.69,3.68,3.65
60.96,3.78,0.16,3.78,0.16,-0.17,-0.54,-1.11,3.61,3.61,3.62
61.57,3.75,0.17,3.76,0.18,-0.21,-0.63,-1.17,3.54,3.55,3.58
62.18,3.75,0.21,3.77,0.23,-0.25,-0.71,-1.22,3.50,3.52,3.54
62.80,3.81,0.31,3.80,0.29,-0.29,-0.79,-1.27,3.52,3.51,3.51
63.43,3.83,0.36,3.82,0.35,-0.32,-0.88,-1.32,3.51,3.50,3.47
64.07,3.83,0.40,3.83,0.40,-0.35,-0.96,-1.36,3.48,3.48,3.43
64.71,3.82,0.43,3.81,0.41,-0.40,-1.03,-1.39,3.42,3.41,3.39
65.35,3.81,0.44,3.80,0.44,-0.46,-1.11,-1.43,3.35,3.34,3.37
66.01,3.78,0.45,3.82,0.49,-0.53,-1.19,-1.46,3.25,3.29,3.33
66.67,3.87,0.58,3.86,0.57,-0.61,-1.26,-1.48,3.26,3.25,3.29
67.33,3.95,0.69,3.93,0.68,-0.70,-1.33,-1.51,3.25,3.23,3.26
68.01,4.02,0.80,4.02,0.80,-0.81,-1.40,-1.53,3.21,3.21,3.22
68.69,4.10,0.92,4.12,0.95,-0.94,-1.47,-1.55,3.16,3.19,3.18
69.37,4.22,1.08,4.23,1.09,-1.08,-1.54,-1.56,3.14,3.15,3.14
70.07,4.37,1.27,4.32,1.22,-1.22,-1.60,-1.58,3.15,3.10,3.10
70.77,4.39,1.33,4.41,1.34,-1.36,-1.66,-1.59,3.03,3.05,3.06
71.48,4.46,1.44,4.50,1.48,-1.48,-1.72,-1.60,2.98,3.02,3.02
72.19,4.58,1.60,4.59,1.61,-1.59,-1.78,-1.61,2.99,3.00,2.98
72.91,4.71,1.79,4.67,1.74,-1.68,-1.84,-1.62,3.03,2.98,2.92
73.64,4.70,1.82,4.68,1.80,-1.76,-1.89,-1.62,2.94,2.92,2.88
74.38,4.64,1.81,4.66,1.83,-1.82,-1.94,-1.63,2.82,2.84,2.83
75.12,4.60,1.81,4.66,1.87,-1.89,-1.99,-1.64,2.71,2.77,2.79
75.87,4.71,1.96,4.68,1.93,-1.96,-2.04,-1.64,2.75,2.72,2.75
76.63,4.73,2.02,4.69,1.97,-2.03,-2.08,-1.65,2.70,2.66,2.71
77.40,4.70,2.02,4.72,2.04,-2.10,-2.12,-1.65,2.60,2.62,2.68
78.17,4.69,2.05,4.76,2.12,-2.16,-2.16,-1.66,2.53,2.60,2.64
78.95,4.87,2.26,4.84,2.23,-2.22,-2.20,-1.67,2.65,2.62,2.61
79.74,4.96,2.38,4.92,2.34,-2.27,-2.24,-1.68,2.69,2.65,2.58
80.54,4.96,2.41,4.97,2.41,-2.31,-2.27,-1.69,2.65,2.66,2.55
81.35,4.91,2.39,4.91,2.39,-2.33,-2.30,-1.70,2.58,2.58,2.52
82.16,4.85,2.36,4.84,2.34,-2.34,-2.33,-1.71,2.51,2.50,2.49
82.98,4.73,2.26,4.75,2.29,-2.34,-2.36,-1.72,2.39,2.42,2.47
83.81,4.70,2.27,4.69,2.26,-2.33,-2.38,-1.73,2.37,2.37,2.43
84.65,4.66,2.26,4.68,2.28,-2.32,-2.41,-1.75,2.34,2.36,2.40
85.50,4.68,2.31,4.70,2.33,-2.33,-2.43,-1.77,2.36,2.37,2.37
86.35,4.73,2.39,4.68,2.34,-2.35,-2.45,-1.78,2.38,2.33,2.34
87.22,4.70,2.39,4.68,2.37,-2.39,-2.47,-1.80,2.31,2.30,2.31
88.09,4.62,2.35,4.70,2.42,-2.43,-2.48,-1.82,2.19,2.27,2.27
88.97,4.75,2.50,4.74,2.50,-2.48,-2.50,-1.85,2.27,2.26,2.25
89.86,4.83,2.62,4.79,2.58,-2.54,-2.51,-1.87,2.29,2.25,2.21
90.76,4.84,2.66,4.81,2.63,-2.60,-2.53,-1.90,2.24,2.21,2.18
91.66,4.77,2.62,4.79,2.64,-2.66,-2.54,-1.92,2.11,2.13,2.15
92.58,4.74,2.62,4.79,2.67,-2.72,-2.55,-1.95,2.02,2.07,2.12
93.51,4.84,2.75,4.84,2.74,-2.78,-2.56,-1.98,2.06,2.06,2.09
94.44,4.94,2.88,4.90,2.84,-2.83,-2.56,-2.01,2.11,2.07,2.06
95.39,4.94,2.90,4.95,2.91,-2.87,-2.57,-2.05,2.07,2.07,2.04
96.34,4.94,2.94,4.95,2.95,-2.91,-2.58,-2.08,2.03,2.04,2.00
97.30,4.93,2.96,4.93,2.96,-2.95,-2.58,-2.12,1.98,1.99,1.97
98.28,4.92,2.98,4.92,2.97,-2.98,-2.58,-2.15,1.94,1.94,1.94
99.26,4.90,2.97,4.89,2.96,-2.99,-2.59,-2.19,1.91,1.90,1.93
100.25,4.86,2.96,4.89,2.99,-2.99,-2.59,-2.23,1.87,1.89,1.90
101.25,4.85,2.98,4.88,3.01,-2.99,-2.59,-2.27,1.86,1.89,1.87
102.27,4.91,3.07,4.84,3.00,-2.99,-2.59,-2.31,1.92,1.85,1.84
103.29,4.78,2.99,4.80,2.99,-2.99,-2.59,-2.35,1.79,1.80,1.79
104.32,4.70,2.93,4.74,2.97,-3.00,-2.59,-2.39,1.71,1.74,1.77
105.37,4.70,2.96,4.69,2.95,-3.00,-2.59,-2.43,1.70,1.69,1.74
106.42,4.68,2.97,4.69,2.98,-3.00,-2.59,-2.47,1.69,1.69,1.71
107.48,4.68,3.01,4.68,3.02,-2.99,-2.58,-2.51,1.70,1.70,1.67
108.56,4.68,3.05,4.64,3.01,-2.97,-2.58,-2.55,1.71,1.67,1.63
109.64,4.57,2.98,4.59,2.99,-2.95,-2.58,-2.58,1.62,1.64,1.59
110.74,4.49,2.93,4.51,2.95,-2.94,-2.57,-2.62,1.55,1.58,1.57
111.85,4.46,2.92,4.43,2.90,-2.92,-2.57,-2.66,1.54,1.51,1.54
112.97,4.36,2.87,4.37,2.87,-2.91,-2.56,-2.69,1.45,1.46,1.49
114.10,4.31,2.84,4.31,2.84,-2.88,-2.56,-2.72,1.43,1.42,1.47
115.24,4.25,2.82,4.27,2.84,-2.86,-2.55,-2.75,1.39,1.41,1.44
116.39,4.26,2.85,4.28,2.87,-2.84,-2.55,-2.78,1.42,1.44,1.41
117.55,4.29,2.91,4.26,2.88,-2.83,-2.54,-2.80,1.46,1.43,1.38
118.73,4.26,2.91,4.21,2.84,-2.82,-2.53,-2.82,1.44,1.39,1.36
119.92,4.08,2.73,4.13,2.79,-2.81,-2.52,-2.83,1.28,1.32,1.35
121.12,4.04,2.72,4.08,2.75,-2.79,-2.52,-2.85,1.25,1.29,1.32
122.33,4.07,2.76,4.07,2.76,-2.78,-2.51,-2.85,1.29,1.29,1.31
123.55,4.11,2.81,4.06,2.77,-2.76,-2.50,-2.86,1.35,1.31,1.30
124.79,4.05,2.77,4.02,2.74,-2.73,-2.49,-2.86,1.32,1.29,1.28
126.03,3.90,2.64,3.97,2.71,-2.71,-2.48,-2.86,1.19,1.26,1.26
127.29,3.93,2.68,3.93,2.68,-2.68,-2.47,-2.85,1.25,1.25,1.25
128.57,3.92,2.69,3.89,2.66,-2.65,-2.46,-2.84,1.27,1.25,1.23
129.85,3.87,2.66,3.85,2.63,-2.61,-2.44,-2.83,1.26,1.24,1.21
131.15,3.75,2.55,3.77,2.56,-2.56,-2.43,-2.81,1.19,1.21,1.20
132.46,3.66,2.47,3.70,2.50,-2.51,-2.42,-2.79,1.15,1.19,1.19
133.79,3.65,2.46,3.62,2.44,-2.46,-2.41,-2.77,1.19,1.16,1.19
135.12,3.59,2.43,3.57,2.40,-2.41,-2.39,-2.74,1.18,1.16,1.16
136.48,3.48,2.32,3.51,2.36,-2.36,-2.38,-2.71,1.12,1.15,1.16
137.84,3.45,2.31,3.45,2.31,-2.31,-2.37,-2.68,1.14,1.13,1.14
139.22,3.39,2.28,3.39,2.27,-2.27,-2.35,-2.64,1.12,1.11,1.11
140.61,3.35,2.26,3.35,2.25,-2.24,-2.34,-2.60,1.11,1.11,1.09
142.02,3.28,2.19,3.29,2.21,-2.21,-2.32,-2.56,1.07,1.08,1.09
143.44,3.26,2.19,3.25,2.18,-2.19,-2.30,-2.52,1.07,1.06,1.07
144.87,3.19,2.14,3.20,2.15,-2.17,-2.29,-2.48,1.02,1.03,1.05
146.32,3.16,2.14,3.17,2.14,-2.15,-2.27,-2.44,1.01,1.02,1.02
147.78,3.13,2.14,3.12,2.13,-2.13,-2.25,-2.40,1.00,0.99,0.99
149.26,3.07,2.11,3.07,2.12,-2.10,-2.23,-2.35,0.97,0.97,0.96
150.75,2.99,2.09,3.00,2.09,-2.07,-2.21,-2.31,0.92,0.93,0.90
152.26,2.93,2.07,2.92,2.06,-2.04,-2.19,-2.27,0.90,0.88,0.86
153.78,2.81,2.00,2.81,2.01,-2.00,-2.17,-2.22,0.81,0.81,0.81
155.32,2.70,1.96,2.70,1.95,-1.96,-2.15,-2.18,0.74,0.74,0.74
156.88,2.57,1.88,2.58,1.89,-1.92,-2.13,-2.14,0.65,0.66,0.69
158.44,2.47,1.85,2.47,1.85,-1.87,-2.11,-2.10,0.60,0.60,0.62
160.03,2.37,1.81,2.38,1.82,-1.82,-2.09,-2.05,0.55,0.56,0.56
161.63,2.31,1.80,2.30,1.80,-1.78,-2.07,-2.01,0.54,0.53,0.51
163.24,2.23,1.78,2.21,1.76,-1.74,-2.04,-1.97,0.50,0.48,0.45
164.88,2.11,1.69,2.12,1.71,-1.70,-2.02,-1.94,0.41,0.42,0.42
166.53,2.02,1.64,2.03,1.65,-1.68,-2.00,-1.90,0.34,0.35,0.38
168.19,1.96,1.61,1.96,1.61,-1.65,-1.97,-1.86,0.31,0.31,0.35
169.87,1.92,1.60,1.93,1.61,-1.63,-1.95,-1.83,0.30,0.30,0.32
171.57,1.91,1.61,1.91,1.61,-1.60,-1.92,-1.80,0.31,0.31,0.30
173.29,1.91,1.61,1.89,1.60,-1.58,-1.89,-1.77,0.34,0.32,0.30
175.02,1.87,1.58,1.87,1.58,-1.55,-1.87,-1.74,0.32,0.32,0.29
176.77,1.81,1.53,1.83,1.55,-1.53,-1.84,-1.71,0.28,0.30,0.28
178.54,1.80,1.52,1.78,1.49,-1.50,-1.81,-1.68,0.30,0.28,0.28
180.32,1.73,1.44,1.74,1.46,-1.46,-1.79,-1.66,0.27,0.28,0.29
182.13,1.70,1.40,1.72,1.43,-1.42,-1.76,-1.63,0.28,0.30,0.30
183.95,1.71,1.42,1.68,1.38,-1.39,-1.73,-1.61,0.32,0.29,0.29
185.79,1.65,1.36,1.64,1.35,-1.36,-1.70,-1.59,0.29,0.28,0.29
187.65,1.56,1.29,1.60,1.32,-1.33,-1.67,-1.57,0.23,0.27,0.28
189.52,1.56,1.29,1.54,1.27,-1.30,-1.64,-1.55,0.26,0.24,0.27
191.42,1.52,1.26,1.52,1.26,-1.28,-1.61,-1.53,0.24,0.24,0.26
193.33,1.49,1.24,1.52,1.27,-1.25,-1.58,-1.51,0.24,0.27,0.25
195.27,1.50,1.27,1.48,1.25,-1.22,-1.55,-1.50,0.28,0.27,0.24
197.22,1.46,1.25,1.42,1.21,-1.19,-1.52,-1.48,0.27,0.24,0.21
199.19,1.33,1.14,1.35,1.15,-1.15,-1.49,-1.47,0.18,0.20,0.19
201.18,1.24,1.06,1.28,1.10,-1.11,-1.45,-1.46,0.13,0.17,0.18
203.19,1.24,1.07,1.22,1.06,-1.07,-1.42,-1.44,0.17,0.15,0.17
205.23,1.21,1.07,1.17,1.02,-1.02,-1.39,-1.43,0.19,0.15,0.14
207.28,1.10,0.96,1.13,0.99,-0.98,-1.36,-1.42,0.12,0.15,0.14
209.35,1.04,0.93,1.05,0.94,-0.94,-1.32,-1.41,0.10,0.11,0.11
211.44,1.02,0.93,0.98,0.89,-0.91,-1.29,-1.40,0.11,0.07,0.09
213.56,0.93,0.85,0.95,0.87,-0.88,-1.25,-1.39,0.06,0.08,0.08
215.69,0.90,0.83,0.93,0.85,-0.84,-1.22,-1.37,0.06,0.09,0.08
217.85,0.94,0.87,0.90,0.84,-0.81,-1.19,-1.36,0.13,0.09,0.07
220.03,0.88,0.83,0.88,0.83,-0.79,-1.15,-1.35,0.09,0.09,0.05
222.23,0.83,0.79,0.84,0.79,-0.78,-1.11,-1.34,0.05,0.06,0.04
224.45,0.81,0.76,0.80,0.75,-0.79,-1.08,-1.32,0.03,0.01,0.05
226.70,0.78,0.72,0.82,0.77,-0.81,-1.04,-1.31,-0.02,0.02,0.06
228.96,0.87,0.81,0.88,0.82,-0.84,-1.01,-1.29,0.03,0.04,0.06
231.25,1.01,0.94,0.96,0.89,-0.91,-0.97,-1.28,0.11,0.05,0.07
233.57,1.04,0.95,1.06,0.97,-0.99,-0.93,-1.26,0.05,0.07,0.09
235.90,1.14,1.04,1.16,1.06,-1.08,-0.90,-1.24,0.06,0.08,0.10
238.26,1.27,1.15,1.28,1.16,-1.18,-0.86,-1.22,0.09,0.10,0.12
240.64,1.45,1.30,1.44,1.29,-1.28,-0.82,-1.19,0.17,0.16,0.15
243.05,1.58,1.40,1.59,1.41,-1.35,-0.78,-1.17,0.23,0.23,0.18
245.48,1.69,1.48,1.67,1.47,-1.41,-0.74,-1.14,0.28,0.27,0.21
247.93,1.73,1.50,1.71,1.48,-1.44,-0.71,-1.11,0.29,0.27,0.23
250.41,1.67,1.42,1.71,1.45,-1.44,-0.67,-1.07,0.23,0.27,0.25
252.92,1.68,1.40,1.68,1.40,-1.42,-0.63,-1.04,0.26,0.26,0.28
255.45,1.67,1.36,1.65,1.35,-1.37,-0.59,-1.00,0.31,0.28,0.31
258.00,1.60,1.28,1.61,1.29,-1.29,-0.55,-0.96,0.31,0.33,0.32
260.58,1.54,1.20,1.53,1.19,-1.19,-0.51,-0.92,0.35,0.35,0.34
263.19,1.45,1.09,1.44,1.08,-1.08,-0.47,-0.88,0.38,0.37,0.36
265.82,1.32,0.94,1.35,0.97,-0.96,-0.42,-0.83,0.37,0.39,0.38
268.48,1.26,0.85,1.24,0.83,-0.83,-0.38,-0.78,0.43,0.41,0.41
271.16,1.13,0.70,1.13,0.70,-0.70,-0.34,-0.73,0.43,0.43,0.43
273.87,1.00,0.55,1.01,0.56,-0.56,-0.30,-0.68,0.44,0.44,0.45
276.61,0.89,0.42,0.88,0.41,-0.43,-0.26,-0.62,0.46,0.45,0.48
279.38,0.77,0.27,0.79,0.29,-0.31,-0.21,-0.56,0.47,0.48,0.50
282.17,0.70,0.18,0.71,0.19,-0.19,-0.17,-0.50,0.51,0.53,0.52
284.99,0.67,0.12,0.64,0.08,-0.08,-0.13,-0.44,0.59,0.56,0.56
287.84,0.56,-0.02,0.56,-0.02,0.02,-0.08,-0.38,0.58,0.58,0.58
290.72,0.47,-0.15,0.50,-0.12,0.11,-0.04,-0.32,0.58,0.61,0.62
293.63,0.43,-0.22,0.44,-0.21,0.19,0.01,-0.25,0.62,0.63,0.65
296.57,0.44,-0.24,0.41,-0.27,0.26,0.05,-0.19,0.70,0.67,0.68
299.53,0.37,-0.33,0.37,-0.33,0.33,0.10,-0.12,0.70,0.71,0.70
302.53,0.33,-0.40,0.34,-0.40,0.40,0.15,-0.05,0.73,0.74,0.73
305.55,0.28,-0.49,0.30,-0.46,0.47,0.19,0.02,0.75,0.77,0.77
308.61,0.28,-0.50,0.25,-0.53,0.55,0.24,0.09,0.83,0.80,0.78
311.69,0.21,-0.59,0.20,-0.61,0.62,0.29,0.16,0.83,0.82,0.80
314.81,0.12,-0.72,0.15,-0.68,0.69,0.34,0.23,0.82,0.85,0.84
317.96,0.09,-0.76,0.08,-0.77,0.77,0.39,0.31,0.86,0.84,0.85
321.14,0.03,-0.83,0.00,-0.86,0.83,0.44,0.38,0.86,0.84,0.87
324.35,-0.08,-0.95,-0.05,-0.93,0.90,0.49,0.46,0.82,0.85,0.87
327.59,-0.12,-1.01,-0.10,-0.98,0.97,0.54,0.54,0.85,0.87,0.89
330.87,-0.11,-1.01,-0.12,-1.02,1.03,0.59,0.61,0.92,0.91,0.90
334.18,-0.12,-1.03,-0.15,-1.06,1.09,0.64,0.69,0.97,0.94,0.91
337.52,-0.20,-1.12,-0.20,-1.12,1.15,0.69,0.77,0.95,0.95,0.92
340.90,-0.29,-1.22,-0.26,-1.20,1.20,0.75,0.85,0.91,0.94,0.93
344.30,-0.32,-1.26,-0.33,-1.27,1.26,0.80,0.93,0.94,0.93,0.94
347.75,-0.38,-1.33,-0.38,-1.34,1.32,0.85,1.02,0.94,0.94,0.95
351.23,-0.43,-1.39,-0.43,-1.39,1.39,0.91,1.10,0.96,0.96,0.96
354.74,-0.49,-1.45,-0.47,-1.43,1.45,0.97,1.18,0.96,0.98,0.96
358.28,-0.51,-1.48,-0.52,-1.49,1.51,1.02,1.27,1.00,0.99,0.97
361.87,-0.57,-1.54,-0.59,-1.56,1.56,1.08,1.35,0.99,0.97,0.97
365.49,-0.66,-1.63,-0.65,-1.62,1.59,1.14,1.44,0.94,0.94,0.97
369.14,-0.72,-1.69,-0.70,-1.67,1.62,1.20,1.53,0.91,0.93,0.97
372.83,-0.72,-1.69,-0.71,-1.69,1.65,1.26,1.62,0.93,0.94,0.97
376.56,-0.69,-1.66,-0.72,-1.69,1.69,1.32,1.71,1.00,0.97,0.97
380.33,-0.71,-1.70,-0.70,-1.68,1.72,1.38,1.80,1.01,1.01,0.99
384.13,-0.75,-1.73,-0.72,-1.70,1.75,1.44,1.89,1.00,1.03,0.98
387.97,-0.72,-1.70,-0.77,-1.75,1.79,1.50,1.98,1.07,1.02,0.98
391.85,-0.85,-1.83,-0.84,-1.82,1.84,1.56,2.07,0.99,1.00,0.98
395.77,-0.94,-1.93,-0.92,-1.90,1.89,1.63,2.16,0.95,0.97,0.99
399.73,-1.00,-1.98,-1.00,-1.98,1.94,1.69,2.25,0.95,0.95,0.99
403.72,-1.05,-2.02,-1.04,-2.02,2.00,1.75,2.34,0.95,0.96,0.97
407.76,-1.06,-2.03,-1.09,-2.07,2.05,1.82,2.44,0.99,0.96,0.97
411.84,-1.15,-2.13,-1.14,-2.11,2.10,1.89,2.53,0.95,0.96,0.98
415.96,-1.19,-2.16,-1.16,-2.14,2.14,1.95,2.62,0.95,0.98,0.97
420.12,-1.18,-2.15,-1.17,-2.15,2.18,2.02,2.71,1.00,1.00,0.97
424.32,-1.15,-2.13,-1.20,-2.17,2.21,2.09,2.80,1.06,1.01,0.98
428.56,-1.23,-2.21,-1.24,-2.22,2.23,2.15,2.88,1.00,0.99,0.98
432.85,-1.33,-2.33,-1.28,-2.28,2.26,2.22,2.97,0.93,0.97,1.00
437.18,-1.31,-2.33,-1.30,-2.32,2.28,2.29,3.05,0.97,0.99,1.02
441.55,-1.26,-2.32,-1.28,-2.33,2.31,2.36,3.13,1.05,1.03,1.06
445.96,-1.22,-2.31,-1.25,-2.33,2.34,2.43,3.21,1.12,1.09,1.09
450.42,-1.25,-2.37,-1.22,-2.34,2.37,2.49,3.29,1.12,1.15,1.12
454.93,-1.22,-2.40,-1.20,-2.37,2.40,2.56,3.36,1.18,1.20,1.18
459.48,-1.16,-2.37,-1.20,-2.42,2.43,2.63,3.42,1.27,1.23,1.22
464.07,-1.20,-2.47,-1.19,-2.46,2.46,2.70,3.48,1.26,1.27,1.28
468.71,-1.22,-2.54,-1.19,-2.52,2.50,2.77,3.54,1.28,1.31,1.32
473.40,-1.18,-2.55,-1.20,-2.57,2.55,2.83,3.59,1.37,1.35,1.37
478.13,-1.19,-2.61,-1.18,-2.60,2.61,2.90,3.64,1.42,1.43,1.42
482.91,-1.18,-2.64,-1.17,-2.64,2.67,2.96,3.68,1.49,1.50,1.46
487.74,-1.16,-2.67,-1.19,-2.70,2.73,3.03,3.71,1.57,1.53,1.51
492.62,-1.23,-2.78,-1.23,-2.78,2.79,3.09,3.74,1.56,1.55,1.55
497.55,-1.31,-2.89,-1.29,-2.87,2.85,3.15,3.76,1.54,1.56,1.58
502.52,-1.34,-2.95,-1.32,-2.93,2.90,3.22,3.78,1.57,1.58,1.61
507.55,-1.34,-2.96,-1.35,-2.97,2.96,3.27,3.79,1.62,1.61,1.62
512.62,-1.35,-2.98,-1.39,-3.02,3.02,3.33,3.79,1.67,1.63,1.63
517.75,-1.47,-3.11,-1.44,-3.08,3.08,3.39,3.79,1.61,1.64,1.64
522.93,-1.52,-3.15,-1.51,-3.13,3.14,3.44,3.78,1.62,1.63,1.63
528.16,-1.57,-3.17,-1.57,-3.17,3.20,3.49,3.76,1.63,1.63,1.60
533.44,-1.63,-3.21,-1.64,-3.22,3.26,3.54,3.74,1.63,1.62,1.58
538.77,-1.73,-3.27,-1.76,-3.31,3.32,3.59,3.71,1.60,1.56,1.54
