frequency,raw,error,smoothed,error_smoothed,equalization,parametric_eq,fixed_band_eq,equalized_raw,equalized_smoothed,target
20.00,0.99,-3.89,0.99,-3.88,3.88,3.30,1.43,4.87,4.87,4.87
20.20,0.99,-3.85,0.99,-3.86,3.86,3.30,1.48,4.85,4.85,4.84
20.40,0.99,-3.83,0.99,-3.83,3.84,3.30,1.52,4.82,4.82,4.82
20.61,0.99,-3.81,0.99,-3.81,3.81,3.30,1.57,4.80,4.80,4.80
20.81,0.99,-3.79,0.99,-3.79,3.79,3.29,1.61,4.78,4.78,4.78
21.02,0.99,-3.77,0.99,-3.77,3.77,3.29,1.66,4.76,4.76,4.76
21.23,0.99,-3.75,0.99,-3.75,3.75,3.29,1.71,4.74,4.74,4.74
21.44,0.99,-3.73,0.99,-3.73,3.73,3.29,1.76,4.72,4.72,4.72
21.66,0.99,-3.71,0.99,-3.71,3.71,3.28,1.81,4.70,4.70,4.70
21.87,0.99,-3.70,0.99,-3.70,3.70,3.28,1.87,4.69,4.69,4.69
22.09,0.99,-3.68,0.99,-3.68,3.68,3.28,1.92,4.67,4.67,4.67
22.31,0.99,-3.67,0.99,-3.67,3.67,3.27,1.98,4.66,4.66,4.66
22.54,0.99,-3.66,0.99,-3.66,3.66,3.27,2.03,4.65,4.65,4.65
22.76,0.99,-3.65,0.99,-3.65,3.65,3.27,2.10,4.64,4.64,4.64
22.99,0.99,-3.64,0.99,-3.64,3.64,3.26,2.16,4.63,4.63,4.63
23.22,0.98,-3.64,0.98,-3.63,3.64,3.26,2.22,4.62,4.62,4.62
23.45,0.98,-3.63,0.97,-3.63,3.63,3.26,2.28,4.61,4.61,4.60
23.69,0.97,-3.63,0.97,-3.63,3.62,3.25,2.35,4.59,4.59,4.59
23.92,0.97,-3.62,0.97,-3.62,3.61,3.25,2.41,4.58,4.58,4.59
24.16,0.98,-3.60,0.98,-3.60,3.60,3.24,2.48,4.57,4.58,4.58
24.40,1.00,-3.58,1.00,-3.58,3.58,3.24,2.55,4.57,4.57,4.58
24.65,1.02,-3.55,1.02,-3.56,3.55,3.24,2.62,4.57,4.57,4.57
24.89,1.04,-3.53,1.04,-3.52,3.52,3.23,2.69,4.56,4.56,4.57
25.14,1.07,-3.49,1.07,-3.49,3.49,3.23,2.76,4.56,4.56,4.56
25.39,1.10,-3.45,1.10,-3.45,3.46,3.22,2.83,4.55,4.55,4.55
25.65,1.13,-3.42,1.13,-3.41,3.42,3.22,2.90,4.55,4.55,4.55
25.91,1.16,-3.38,1.16,-3.38,3.38,3.21,2.97,4.54,4.54,4.54
26.16,1.19,-3.35,1.19,-3.34,3.34,3.21,3.04,4.53,4.53,4.53
26.43,1.22,-3.31,1.22,-3.31,3.31,3.20,3.11,4.53,4.53,4.53
26.69,1.25,-3.27,1.25,-3.28,3.28,3.20,3.18,4.52,4.52,4.52
26.96,1.27,-3.25,1.27,-3.24,3.25,3.19,3.25,4.51,4.52,4.52
27.23,1.30,-3.21,1.30,-3.22,3.22,3.19,3.32,4.52,4.52,4.51
27.50,1.32,-3.19,1.32,-3.19,3.20,3.18,3.38,4.51,4.51,4.51
27.77,1.33,-3.18,1.33,-3.17,3.18,3.18,3.45,4.51,4.51,4.51
28.05,1.34,-3.16,1.34,-3.16,3.17,3.17,3.51,4.51,4.50,4.49
28.33,1.34,-3.16,1.34,-3.15,3.16,3.17,3.56,4.50,4.50,4.49
28.62,1.34,-3.15,1.34,-3.15,3.15,3.16,3.62,4.49,4.49,4.49
28.90,1.33,-3.15,1.33,-3.16,3.15,3.15,3.67,4.48,4.48,4.48
29.19,1.32,-3.16,1.32,-3.16,3.15,3.15,3.71,4.47,4.47,4.48
29.48,1.32,-3.16,1.32,-3.16,3.15,3.14,3.75,4.47,4.47,4.48
29.78,1.32,-3.16,1.32,-3.16,3.15,3.14,3.79,4.47,4.47,4.48
30.08,1.32,-3.15,1.32,-3.15,3.15,3.13,3.82,4.47,4.47,4.47
30.38,1.32,-3.14,1.32,-3.15,3.15,3.12,3.85,4.46,4.46,4.46
30.68,1.32,-3.14,1.32,-3.14,3.14,3.11,3.87,4.46,4.46,4.46
30.99,1.32,-3.14,1.32,-3.14,3.14,3.11,3.89,4.46,4.46,4.46
31.30,1.32,-3.14,1.32,-3.13,3.14,3.10,3.90,4.45,4.45,4.46
31.61,1.32,-3.12,1.32,-3.13,3.13,3.09,3.90,4.45,4.45,4.44
31.93,1.32,-3.12,1.31,-3.13,3.13,3.08,3.90,4.45,4.45,4.44
32.24,1.31,-3.13,1.31,-3.13,3.13,3.07,3.90,4.44,4.44,4.44
32.57,1.30,-3.13,1.30,-3.13,3.13,3.07,3.88,4.43,4.43,4.43
32.89,1.30,-3.12,1.30,-3.13,3.12,3.06,3.87,4.42,4.42,4.42
33.22,1.30,-3.12,1.30,-3.12,3.11,3.05,3.84,4.41,4.41,4.42
33.55,1.30,-3.11,1.30,-3.11,3.10,3.04,3.82,4.40,4.41,4.41
33.89,1.32,-3.09,1.32,-3.09,3.08,3.03,3.79,4.40,4.40,4.40
34.23,1.34,-3.06,1.34,-3.06,3.06,3.02,3.76,4.40,4.40,4.40
34.57,1.36,-3.03,1.36,-3.03,3.03,3.01,3.72,4.39,4.39,4.39
34.92,1.38,-3.01,1.38,-3.01,3.00,3.00,3.68,4.38,4.38,4.39
35.27,1.41,-2.97,1.41,-2.97,2.97,2.98,3.63,4.38,4.38,4.38
35.62,1.44,-2.93,1.44,-2.93,2.93,2.97,3.59,4.37,4.37,4.37
35.97,1.48,-2.89,1.48,-2.89,2.89,2.96,3.54,4.37,4.37,4.36
36.33,1.51,-2.85,1.51,-2.85,2.86,2.95,3.49,4.36,4.36,4.36
36.70,1.54,-2.82,1.54,-2.82,2.82,2.94,3.44,4.36,4.36,4.36
37.06,1.57,-2.78,1.57,-2.78,2.78,2.92,3.39,4.35,4.35,4.35
37.43,1.59,-2.75,1.59,-2.75,2.75,2.91,3.34,4.34,4.34,4.34
37.81,1.62,-2.72,1.62,-2.72,2.72,2.89,3.29,4.34,4.34,4.33
38.19,1.64,-2.69,1.64,-2.69,2.69,2.88,3.24,4.33,4.33,4.33
38.57,1.65,-2.67,1.65,-2.67,2.67,2.86,3.19,4.32,4.32,4.32
38.95,1.66,-2.65,1.66,-2.65,2.65,2.85,3.14,4.31,4.31,4.31
39.34,1.67,-2.63,1.66,-2.64,2.64,2.83,3.09,4.31,4.30,4.30
39.74,1.66,-2.63,1.66,-2.63,2.63,2.82,3.04,4.29,4.29,4.29
40.14,1.65,-2.63,1.65,-2.62,2.62,2.80,3.00,4.27,4.28,4.27
40.54,1.65,-2.62,1.64,-2.62,2.62,2.78,2.95,4.27,4.26,4.27
40.94,1.64,-2.62,1.64,-2.62,2.62,2.77,2.91,4.26,4.26,4.26
41.35,1.64,-2.62,1.64,-2.62,2.61,2.75,2.87,4.25,4.25,4.26
41.76,1.64,-2.61,1.64,-2.61,2.61,2.73,2.83,4.25,4.25,4.25
42.18,1.64,-2.61,1.64,-2.61,2.61,2.71,2.79,4.25,4.25,4.24
42.60,1.64,-2.60,1.64,-2.60,2.60,2.69,2.75,4.24,4.24,4.24
43.03,1.64,-2.60,1.64,-2.60,2.60,2.68,2.72,4.24,4.24,4.24
43.46,1.64,-2.60,1.64,-2.59,2.59,2.66,2.69,4.23,4.23,4.23
43.90,1.64,-2.59,1.64,-2.59,2.59,2.64,2.66,4.23,4.23,4.23
44.33,1.64,-2.58,1.64,-2.58,2.58,2.62,2.63,4.22,4.22,4.22
44.78,1.64,-2.57,1.64,-2.57,2.57,2.61,2.60,4.21,4.21,4.21
45.23,1.64,-2.56,1.64,-2.56,2.56,2.59,2.58,4.20,4.20,4.20
45.68,1.64,-2.55,1.64,-2.55,2.56,2.58,2.56,4.19,4.19,4.19
46.13,1.64,-2.55,1.64,-2.55,2.54,2.56,2.54,4.18,4.18,4.18
46.60,1.64,-2.54,1.64,-2.54,2.53,2.55,2.52,4.17,4.17,4.18
47.06,1.64,-2.53,1.64,-2.52,2.52,2.53,2.50,4.16,4.16,4.17
47.53,1.64,-2.51,1.64,-2.51,2.51,2.52,2.49,4.15,4.15,4.15
48.01,1.64,-2.50,1.64,-2.50,2.50,2.51,2.48,4.14,4.14,4.14
48.49,1.64,-2.49,1.64,-2.49,2.49,2.50,2.47,4.13,4.13,4.12
48.97,1.64,-2.48,1.64,-2.48,2.48,2.49,2.46,4.11,4.11,4.11
49.46,1.64,-2.46,1.64,-2.46,2.46,2.48,2.45,4.10,4.10,4.10
49.96,1.64,-2.45,1.64,-2.45,2.45,2.47,2.44,4.09,4.09,4.09
50.46,1.64,-2.44,1.64,-2.44,2.44,2.46,2.44,4.08,4.08,4.08
50.96,1.64,-2.43,1.64,-2.43,2.43,2.45,2.44,4.07,4.07,4.07
51.47,1.64,-2.42,1.64,-2.42,2.42,2.44,2.43,4.06,4.06,4.06
51.99,1.64,-2.41,1.64,-2.41,2.41,2.43,2.43,4.05,4.05,4.05
52.51,1.64,-2.40,1.64,-2.40,2.40,2.42,2.43,4.03,4.03,4.04
53.03,1.64,-2.38,1.64,-2.38,2.38,2.41,2.43,4.02,4.02,4.02
53.56,1.64,-2.37,1.64,-2.37,2.37,2.40,2.43,4.01,4.01,4.01
54.10,1.64,-2.36,1.64,-2.36,2.36,2.38,2.43,4.00,4.00,4.00
54.64,1.64,-2.35,1.64,-2.34,2.34,2.37,2.43,3.98,3.98,3.98
55.18,1.64,-2.33,1.64,-2.33,2.33,2.36,2.43,3.97,3.97,3.97
55.74,1.64,-2.31,1.64,-2.32,2.32,2.35,2.43,3.95,3.95,3.95
56.29,1.64,-2.30,1.64,-2.30,2.30,2.33,2.43,3.94,3.94,3.94
56.86,1.64,-2.29,1.64,-2.29,2.29,2.32,2.42,3.93,3.93,3.93
57.42,1.64,-2.27,1.64,-2.27,2.27,2.30,2.42,3.91,3.91,3.91
58.00,1.64,-2.26,1.64,-2.25,2.26,2.28,2.41,3.89,3.89,3.90
58.58,1.64,-2.24,1.64,-2.24,2.24,2.26,2.41,3.88,3.88,3.88
59.16,1.64,-2.22,1.64,-2.22,2.22,2.25,2.40,3.86,3.86,3.86
59.76,1.64,-2.21,1.64,-2.20,2.20,2.23,2.39,3.84,3.84,3.85
60.35,1.64,-2.19,1.64,-2.18,2.18,2.21,2.37,3.82,3.82,3.82
60.96,1.64,-2.16,1.64,-2.16,2.16,2.19,2.36,3.80,3.80,3.80
61.57,1.64,-2.14,1.64,-2.14,2.14,2.17,2.34,3.78,3.78,3.78
62.18,1.64,-2.12,1.64,-2.12,2.12,2.14,2.32,3.76,3.76,3.75
62.80,1.64,-2.09,1.64,-2.09,2.09,2.12,2.30,3.73,3.73,3.73
63.43,1.64,-2.07,1.64,-2.07,2.07,2.10,2.27,3.71,3.71,3.70
64.07,1.64,-2.04,1.64,-2.04,2.04,2.07,2.25,3.68,3.68,3.68
64.71,1.64,-2.01,1.64,-2.01,2.01,2.05,2.22,3.65,3.65,3.65
65.35,1.64,-1.99,1.64,-1.99,1.99,2.02,2.18,3.62,3.62,3.62
66.01,1.64,-1.96,1.64,-1.96,1.96,2.00,2.15,3.60,3.60,3.60
66.67,1.64,-1.93,1.64,-1.93,1.93,1.97,2.11,3.57,3.57,3.57
67.33,1.64,-1.90,1.64,-1.90,1.90,1.94,2.07,3.54,3.54,3.54
68.01,1.64,-1.87,1.64,-1.87,1.87,1.92,2.03,3.51,3.51,3.51
68.69,1.64,-1.84,1.64,-1.84,1.84,1.89,1.99,3.48,3.48,3.48
69.37,1.64,-1.81,1.64,-1.81,1.81,1.86,1.94,3.45,3.45,3.44
70.07,1.64,-1.77,1.64,-1.77,1.78,1.83,1.90,3.41,3.41,3.41
70.77,1.64,-1.74,1.64,-1.74,1.74,1.80,1.85,3.38,3.38,3.38
71.48,1.64,-1.72,1.64,-1.71,1.71,1.76,1.80,3.35,3.35,3.35
72.19,1.64,-1.68,1.64,-1.68,1.67,1.73,1.75,3.31,3.31,3.32
72.91,1.64,-1.64,1.64,-1.64,1.64,1.70,1.70,3.28,3.28,3.28
73.64,1.65,-1.60,1.64,-1.60,1.60,1.66,1.65,3.25,3.24,3.25
74.38,1.65,-1.57,1.65,-1.56,1.56,1.63,1.60,3.21,3.21,3.22
75.12,1.66,-1.52,1.66,-1.52,1.52,1.59,1.55,3.18,3.18,3.18
75.87,1.67,-1.48,1.66,-1.48,1.49,1.56,1.49,3.16,3.15,3.15
76.63,1.66,-1.45,1.66,-1.45,1.46,1.52,1.44,3.11,3.12,3.11
77.40,1.65,-1.42,1.65,-1.42,1.43,1.49,1.39,3.07,3.08,3.07
78.17,1.64,-1.40,1.64,-1.40,1.40,1.45,1.34,3.04,3.04,3.04
78.95,1.62,-1.38,1.62,-1.38,1.38,1.41,1.28,3.00,3.00,2.99
79.74,1.60,-1.35,1.60,-1.36,1.36,1.37,1.23,2.96,2.96,2.95
80.54,1.57,-1.35,1.57,-1.34,1.34,1.33,1.18,2.91,2.91,2.92
81.35,1.54,-1.33,1.54,-1.33,1.33,1.29,1.13,2.87,2.87,2.87
82.16,1.51,-1.32,1.51,-1.32,1.32,1.25,1.08,2.83,2.83,2.83
82.98,1.48,-1.30,1.48,-1.30,1.30,1.21,1.03,2.78,2.78,2.78
83.81,1.45,-1.28,1.45,-1.29,1.29,1.17,0.98,2.74,2.74,2.73
84.65,1.42,-1.28,1.42,-1.27,1.28,1.13,0.93,2.69,2.69,2.70
85.50,1.39,-1.26,1.39,-1.26,1.26,1.09,0.88,2.65,2.65,2.65
86.35,1.36,-1.24,1.36,-1.24,1.23,1.04,0.83,2.59,2.60,2.60
87.22,1.34,-1.21,1.34,-1.21,1.21,1.00,0.78,2.55,2.54,2.55
88.09,1.32,-1.18,1.32,-1.18,1.18,0.96,0.73,2.49,2.49,2.50
88.97,1.30,-1.15,1.30,-1.14,1.14,0.91,0.69,2.43,2.44,2.45
89.86,1.30,-1.10,1.30,-1.10,1.09,0.87,0.64,2.39,2.39,2.39
90.76,1.30,-1.04,1.30,-1.05,1.04,0.82,0.59,2.34,2.34,2.34
91.66,1.30,-0.99,1.30,-0.99,0.99,0.78,0.55,2.29,2.29,2.29
92.58,1.31,-0.93,1.31,-0.93,0.93,0.73,0.50,2.24,2.24,2.24
93.51,1.32,-0.86,1.31,-0.87,0.87,0.68,0.46,2.19,2.19,2.18
94.44,1.32,-0.81,1.32,-0.81,0.82,0.64,0.42,2.14,2.14,2.13
95.39,1.32,-0.76,1.32,-0.76,0.76,0.59,0.37,2.08,2.08,2.07
96.34,1.32,-0.70,1.32,-0.70,0.71,0.55,0.33,2.02,2.02,2.02
97.30,1.32,-0.66,1.32,-0.65,0.65,0.50,0.29,1.97,1.97,1.97
98.28,1.32,-0.60,1.32,-0.60,0.60,0.45,0.25,1.92,1.92,1.92
99.26,1.32,-0.55,1.32,-0.55,0.54,0.40,0.20,1.86,1.86,1.86
100.25,1.32,-0.49,1.32,-0.49,0.49,0.36,0.16,1.80,1.80,1.81
101.25,1.32,-0.43,1.32,-0.43,0.43,0.31,0.12,1.75,1.75,1.75
102.27,1.32,-0.38,1.32,-0.37,0.37,0.26,0.08,1.69,1.69,1.70
103.29,1.33,-0.31,1.33,-0.31,0.31,0.22,0.05,1.64,1.64,1.64
104.32,1.34,-0.25,1.34,-0.25,0.26,0.17,0.01,1.59,1.59,1.59
105.37,1.34,-0.20,1.34,-0.20,0.20,0.12,-0.03,1.54,1.54,1.54
106.42,1.34,-0.14,1.34,-0.15,0.15,0.07,-0.07,1.49,1.49,1.48
107.48,1.33,-0.11,1.33,-0.10,0.10,0.03,-0.11,1.43,1.43,1.43
108.56,1.32,-0.06,1.32,-0.06,0.06,-0.02,-0.14,1.38,1.38,1.38
109.64,1.30,-0.02,1.30,-0.02,0.03,-0.07,-0.18,1.32,1.33,1.32
110.74,1.28,0.01,1.28,0.01,-0.01,-0.11,-0.21,1.27,1.27,1.27
111.85,1.25,0.04,1.25,0.04,-0.03,-0.16,-0.24,1.21,1.21,1.21
112.97,1.22,0.05,1.22,0.06,-0.06,-0.20,-0.28,1.16,1.16,1.16
114.10,1.19,0.08,1.19,0.08,-0.08,-0.25,-0.31,1.11,1.11,1.11
115.24,1.16,0.10,1.16,0.10,-0.10,-0.29,-0.34,1.05,1.05,1.05
116.39,1.13,0.13,1.13,0.12,-0.12,-0.34,-0.37,1.00,1.00,1.00
117.55,1.10,0.14,1.10,0.14,-0.14,-0.38,-0.40,0.95,0.95,0.96
118.73,1.07,0.17,1.07,0.17,-0.17,-0.43,-0.43,0.90,0.90,0.90
119.92,1.04,0.19,1.04,0.19,-0.19,-0.47,-0.46,0.85,0.85,0.85
121.12,1.02,0.22,1.02,0.22,-0.22,-0.51,-0.48,0.80,0.80,0.80
122.33,1.00,0.24,1.00,0.24,-0.25,-0.56,-0.51,0.75,0.75,0.75
123.55,0.98,0.28,0.98,0.28,-0.28,-0.60,-0.53,0.70,0.70,0.70
124.79,0.97,0.31,0.97,0.31,-0.32,-0.64,-0.55,0.65,0.65,0.66
126.03,0.97,0.36,0.97,0.36,-0.36,-0.68,-0.58,0.60,0.61,0.61
127.29,0.98,0.41,0.97,0.41,-0.41,-0.72,-0.60,0.57,0.57,0.57
128.57,0.98,0.46,0.98,0.46,-0.46,-0.76,-0.62,0.52,0.53,0.52
129.85,0.99,0.52,0.99,0.51,-0.50,-0.80,-0.63,0.48,0.48,0.47
131.15,0.99,0.56,0.99,0.56,-0.55,-0.84,-0.65,0.43,0.43,0.42
132.46,0.99,0.60,0.99,0.61,-0.60,-0.87,-0.67,0.39,0.39,0.39
133.79,0.99,0.65,0.99,0.65,-0.65,-0.91,-0.69,0.34,0.34,0.34
135.12,0.99,0.69,0.99,0.69,-0.70,-0.94,-0.70,0.29,0.29,0.29
136.48,0.99,0.74,0.99,0.74,-0.74,-0.98,-0.72,0.25,0.25,0.25
137.84,0.99,0.78,0.99,0.78,-0.78,-1.01,-0.73,0.21,0.21,0.21
139.22,0.99,0.83,0.99,0.83,-0.83,-1.05,-0.75,0.16,0.16,0.16
140.61,0.99,0.87,0.99,0.87,-0.87,-1.08,-0.76,0.12,0.12,0.12
142.02,0.99,0.90,0.99,0.91,-0.91,-1.11,-0.77,0.08,0.08,0.09
143.44,0.99,0.94,0.99,0.94,-0.94,-1.14,-0.79,0.05,0.05,0.05
144.87,0.99,0.98,0.99,0.98,-0.98,-1.17,-0.80,0.01,0.01,0.01
146.32,0.99,1.01,0.99,1.02,-1.01,-1.20,-0.81,-0.02,-0.02,-0.02
147.78,0.99,1.05,0.98,1.05,-1.04,-1.23,-0.83,-0.05,-0.06,-0.06
149.26,0.98,1.08,0.98,1.07,-1.07,-1.26,-0.84,-0.09,-0.10,-0.10
150.75,0.97,1.10,0.97,1.10,-1.11,-1.29,-0.86,-0.14,-0.13,-0.13
152.26,0.97,1.13,0.97,1.13,-1.14,-1.31,-0.87,-0.17,-0.17,-0.16
153.78,0.98,1.18,0.98,1.17,-1.18,-1.34,-0.89,-0.20,-0.20,-0.20
155.32,0.99,1.21,0.99,1.22,-1.22,-1.36,-0.90,-0.24,-0.23,-0.22
156.88,1.01,1.27,1.01,1.27,-1.27,-1.39,-0.92,-0.26,-0.26,-0.26
158.44,1.03,1.32,1.03,1.32,-1.32,-1.41,-0.93,-0.29,-0.29,-0.29
160.03,1.06,1.38,1.06,1.38,-1.38,-1.43,-0.95,-0.32,-0.32,-0.32
161.63,1.09,1.44,1.09,1.44,-1.44,-1.45,-0.97,-0.35,-0.35,-0.36
163.24,1.12,1.49,1.12,1.50,-1.50,-1.47,-0.99,-0.38,-0.38,-0.38
164.88,1.15,1.55,1.15,1.56,-1.56,-1.49,-1.01,-0.41,-0.41,-0.41
166.53,1.18,1.61,1.18,1.61,-1.61,-1.51,-1.02,-0.43,-0.43,-0.44
168.19,1.21,1.67,1.21,1.67,-1.67,-1.53,-1.05,-0.46,-0.46,-0.46
169.87,1.24,1.72,1.24,1.72,-1.72,-1.54,-1.07,-0.48,-0.48,-0.48
171.57,1.27,1.78,1.27,1.77,-1.77,-1.56,-1.09,-0.50,-0.51,-0.51
173.29,1.29,1.82,1.29,1.82,-1.82,-1.57,-1.11,-0.53,-0.53,-0.53
175.02,1.31,1.87,1.31,1.87,-1.86,-1.59,-1.14,-0.56,-0.55,-0.56
176.77,1.33,1.90,1.33,1.90,-1.90,-1.60,-1.16,-0.57,-0.58,-0.57
178.54,1.34,1.94,1.34,1.94,-1.94,-1.61,-1.19,-0.60,-0.60,-0.60
180.32,1.35,1.97,1.35,1.97,-1.97,-1.63,-1.22,-0.62,-0.62,-0.62
182.13,1.35,1.99,1.35,1.99,-1.99,-1.64,-1.25,-0.64,-0.64,-0.64
183.95,1.35,2.01,1.35,2.01,-2.02,-1.65,-1.28,-0.67,-0.67,-0.67
185.79,1.34,2.03,1.34,2.03,-2.03,-1.66,-1.31,-0.69,-0.69,-0.69
187.65,1.34,2.05,1.34,2.05,-2.05,-1.67,-1.34,-0.71,-0.71,-0.71
189.52,1.33,2.06,1.33,2.06,-2.06,-1.67,-1.37,-0.73,-0.73,-0.73
191.42,1.32,2.07,1.32,2.07,-2.06,-1.68,-1.40,-0.74,-0.74,-0.75
193.33,1.30,2.06,1.30,2.07,-2.06,-1.69,-1.44,-0.76,-0.76,-0.77
195.27,1.28,2.06,1.28,2.06,-2.06,-1.69,-1.47,-0.78,-0.78,-0.78
197.22,1.25,2.05,1.25,2.05,-2.05,-1.70,-1.50,-0.80,-0.80,-0.80
199.19,1.22,2.04,1.22,2.04,-2.03,-1.70,-1.54,-0.82,-0.81,-0.82
201.18,1.19,2.01,1.19,2.02,-2.02,-1.71,-1.58,-0.83,-0.83,-0.83
203.19,1.16,2.00,1.16,2.00,-2.00,-1.71,-1.61,-0.84,-0.84,-0.84
205.23,1.13,1.98,1.13,1.98,-1.98,-1.71,-1.65,-0.85,-0.85,-0.85
207.28,1.10,1.96,1.10,1.96,-1.97,-1.72,-1.68,-0.87,-0.87,-0.86
209.35,1.07,1.95,1.07,1.95,-1.95,-1.72,-1.72,-0.88,-0.88,-0.88
211.44,1.05,1.93,1.05,1.94,-1.94,-1.72,-1.75,-0.89,-0.89,-0.88
213.56,1.04,1.93,1.03,1.93,-1.93,-1.72,-1.79,-0.89,-0.90,-0.90
215.69,1.02,1.93,1.02,1.93,-1.93,-1.72,-1.82,-0.91,-0.91,-0.91
217.85,1.01,1.93,1.01,1.92,-1.92,-1.72,-1.86,-0.91,-0.92,-0.92
220.03,0.99,1.91,0.99,1.92,-1.92,-1.71,-1.89,-0.93,-0.93,-0.92
222.23,0.98,1.91,0.98,1.91,-1.91,-1.71,-1.92,-0.93,-0.94,-0.94
224.45,0.96,1.91,0.96,1.90,-1.90,-1.71,-1.95,-0.95,-0.95,-0.95
226.70,0.94,1.90,0.94,1.90,-1.89,-1.71,-1.98,-0.96,-0.95,-0.96
228.96,0.92,1.88,0.92,1.88,-1.88,-1.70,-2.00,-0.96,-0.96,-0.96
231.25,0.90,1.87,0.90,1.87,-1.86,-1.70,-2.03,-0.96,-0.97,-0.97
233.57,0.87,1.85,0.87,1.85,-1.84,-1.69,-2.05,-0.97,-0.97,-0.98
235.90,0.84,1.82,0.84,1.82,-1.82,-1.69,-2.07,-0.98,-0.98,-0.98
238.26,0.81,1.80,0.81,1.79,-1.79,-1.68,-2.09,-0.98,-0.98,-0.99
240.64,0.78,1.77,0.78,1.76,-1.76,-1.68,-2.10,-0.99,-0.99,-0.99
243.05,0.75,1.73,0.75,1.74,-1.74,-1.67,-2.11,-0.99,-0.99,-0.99
245.48,0.72,1.70,0.72,1.71,-1.71,-1.66,-2.12,-0.99,-0.99,-0.98
247.93,0.70,1.69,0.70,1.69,-1.69,-1.66,-2.12,-1.00,-1.00,-0.99
250.41,0.68,1.67,0.68,1.67,-1.68,-1.65,-2.12,-1.00,-1.00,-0.99
252.92,0.67,1.66,0.67,1.66,-1.67,-1.64,-2.12,-1.00,-1.00,-0.99
255.45,0.67,1.65,0.67,1.66,-1.66,-1.63,-2.12,-1.00,-1.00,-0.99
258.00,0.67,1.66,0.67,1.66,-1.66,-1.62,-2.11,-0.99,-0.99,-0.99
260.58,0.67,1.66,0.67,1.66,-1.66,-1.61,-2.10,-0.99,-0.99,-0.99
263.19,0.67,1.66,0.67,1.66,-1.65,-1.60,-2.09,-0.98,-0.99,-1.00
265.82,0.66,1.66,0.66,1.65,-1.64,-1.60,-2.07,-0.99,-0.99,-1.00
268.48,0.64,1.64,0.64,1.64,-1.63,-1.59,-2.05,-0.99,-0.99,-1.00
271.16,0.61,1.61,0.61,1.62,-1.61,-1.57,-2.03,-1.01,-1.00,-1.00
273.87,0.59,1.60,0.59,1.59,-1.59,-1.56,-2.00,-1.00,-1.00,-1.01
276.61,0.56,1.56,0.56,1.57,-1.56,-1.55,-1.98,-1.00,-1.01,-1.01
279.38,0.53,1.54,0.53,1.53,-1.53,-1.54,-1.95,-1.00,-1.01,-1.01
282.17,0.49,1.49,0.49,1.50,-1.50,-1.53,-1.92,-1.01,-1.01,-1.01
284.99,0.46,1.47,0.46,1.47,-1.47,-1.52,-1.89,-1.02,-1.02,-1.01
287.84,0.43,1.44,0.43,1.44,-1.45,-1.51,-1.86,-1.02,-1.02,-1.02
290.72,0.40,1.42,0.40,1.42,-1.42,-1.50,-1.82,-1.02,-1.02,-1.02
293.63,0.38,1.40,0.38,1.40,-1.40,-1.48,-1.79,-1.03,-1.03,-1.02
296.57,0.36,1.39,0.36,1.38,-1.39,-1.47,-1.76,-1.03,-1.03,-1.03
299.53,0.35,1.37,0.35,1.37,-1.38,-1.46,-1.72,-1.03,-1.03,-1.02
302.53,0.34,1.37,0.34,1.37,-1.37,-1.45,-1.68,-1.04,-1.04,-1.03
305.55,0.34,1.37,0.34,1.37,-1.37,-1.43,-1.65,-1.03,-1.03,-1.03
308.61,0.34,1.36,0.34,1.37,-1.37,-1.42,-1.61,-1.03,-1.03,-1.02
311.69,0.35,1.38,0.34,1.37,-1.36,-1.41,-1.58,-1.01,-1.02,-1.03
314.81,0.34,1.36,0.34,1.36,-1.35,-1.39,-1.54,-1.02,-1.02,-1.02
317.96,0.33,1.35,0.33,1.35,-1.34,-1.38,-1.51,-1.01,-1.01,-1.02
321.14,0.31,1.33,0.31,1.33,-1.33,-1.37,-1.47,-1.02,-1.02,-1.02
324.35,0.29,1.31,0.29,1.31,-1.30,-1.35,-1.44,-1.01,-1.02,-1.02
327.59,0.26,1.28,0.26,1.28,-1.28,-1.34,-1.41,-1.02,-1.02,-1.02
330.87,0.23,1.24,0.23,1.25,-1.25,-1.33,-1.37,-1.02,-1.02,-1.02
334.18,0.20,1.21,0.20,1.21,-1.21,-1.31,-1.34,-1.01,-1.01,-1.01
337.52,0.17,1.18,0.17,1.18,-1.18,-1.30,-1.31,-1.01,-1.01,-1.01
340.90,0.14,1.14,0.14,1.14,-1.15,-1.29,-1.28,-1.01,-1.01,-1.00
344.30,0.11,1.12,0.11,1.12,-1.12,-1.27,-1.25,-1.01,-1.01,-1.01
347.75,0.08,1.09,0.08,1.09,-1.09,-1.26,-1.23,-1.01,-1.01,-1.01
351.23,0.06,1.07,0.06,1.07,-1.06,-1.24,-1.20,-1.01,-1.01,-1.01
354.74,0.04,1.04,0.04,1.04,-1.05,-1.23,-1.17,-1.01,-1.01,-1.00
358.28,0.02,1.02,0.02,1.03,-1.03,-1.22,-1.15,-1.01,-1.01,-1.01
361.87,0.01,1.02,0.01,1.01,-1.02,-1.20,-1.12,-1.01,-1.01,-1.01
365.49,-0.00,1.01,0.00,1.01,-1.01,-1.19,-1.10,-1.02,-1.01,-1.01
369.14,-0.00,1.01,0.00,1.01,-1.01,-1.17,-1.08,-1.01,-1.01,-1.01
372.83,0.01,1.02,0.00,1.01,-1.01,-1.16,-1.05,-1.00,-1.01,-1.01
376.56,0.01,1.01,0.01,1.02,-1.02,-1.15,-1.03,-1.01,-1.00,-1.01
380.33,0.02,1.03,0.02,1.02,-1.02,-1.13,-1.01,-1.00,-1.01,-1.01
384.13,0.02,1.03,0.02,1.02,-1.03,-1.12,-1.00,-1.01,-1.01,-1.01
387.97,0.02,1.03,0.02,1.03,-1.03,-1.10,-0.98,-1.01,-1.01,-1.01
391.85,0.03,1.03,0.03,1.03,-1.04,-1.09,-0.96,-1.01,-1.01,-1.00
395.77,0.04,1.04,0.03,1.04,-1.04,-1.08,-0.94,-1.00,-1.00,-1.00
399.73,0.04,1.03,0.04,1.04,-1.03,-1.06,-0.93,-1.00,-0.99,-0.99
403.72,0.04,1.03,0.04,1.03,-1.03,-1.05,-0.91,-0.99,-0.99,-1.00
407.76,0.04,1.03,0.03,1.02,-1.02,-1.04,-0.90,-0.98,-0.98,-0.99
411.84,0.02,1.01,0.02,1.01,-1.00,-1.02,-0.89,-0.99,-0.98,-0.99
415.96,0.01,0.99,0.00,0.99,-0.98,-1.01,-0.87,-0.98,-0.98,-0.98
420.12,-0.02,0.96,-0.02,0.96,-0.96,-1.00,-0.86,-0.98,-0.98,-0.98
424.32,-0.04,0.94,-0.04,0.93,-0.93,-0.98,-0.85,-0.98,-0.98,-0.98
428.56,-0.07,0.90,-0.07,0.90,-0.91,-0.97,-0.84,-0.98,-0.98,-0.97
432.85,-0.10,0.87,-0.10,0.87,-0.88,-0.96,-0.83,-0.98,-0.98,-0.97
437.18,-0.13,0.84,-0.13,0.84,-0.84,-0.94,-0.82,-0.98,-0.98,-0.97
441.55,-0.16,0.81,-0.16,0.81,-0.81,-0.93,-0.81,-0.97,-0.97,-0.98
445.96,-0.19,0.79,-0.19,0.78,-0.78,-0.92,-0.80,-0.97,-0.98,-0.98
450.42,-0.22,0.76,-0.22,0.76,-0.75,-0.91,-0.79,-0.98,-0.98,-0.98
454.93,-0.25,0.73,-0.25,0.73,-0.73,-0.89,-0.78,-0.98,-0.98,-0.98
459.48,-0.27,0.71,-0.28,0.70,-0.71,-0.88,-0.78,-0.98,-0.98,-0.98
464.07,-0.30,0.68,-0.30,0.68,-0.69,-0.87,-0.77,-0.99,-0.98,-0.98
468.71,-0.31,0.67,-0.31,0.67,-0.67,-0.86,-0.76,-0.98,-0.98,-0.98
473.40,-0.32,0.66,-0.32,0.65,-0.66,-0.85,-0.75,-0.98,-0.98,-0.98
478.13,-0.33,0.64,-0.33,0.65,-0.66,-0.84,-0.75,-0.99,-0.98,-0.97
482.91,-0.32,0.65,-0.33,0.65,-0.65,-0.82,-0.74,-0.97,-0.98,-0.97
487.74,-0.32,0.65,-0.32,0.65,-0.65,-0.81,-0.74,-0.97,-0.97,-0.97
492.62,-0.31,0.66,-0.31,0.66,-0.66,-0.80,-0.73,-0.97,-0.97,-0.97
497.55,-0.30,0.66,-0.31,0.66,-0.66,-0.79,-0.72,-0.96,-0.96,-0.97
502.52,-0.30,0.66,-0.30,0.67,-0.66,-0.78,-0.72,-0.96,-0.96,-0.97
507.55,-0.30,0.66,-0.30,0.66,-0.66,-0.77,-0.71,-0.96,-0.96,-0.97
512.62,-0.30,0.67,-0.30,0.66,-0.66,-0.76,-0.71,-0.96,-0.96,-0.97
517.75,-0.30,0.66,-0.30,0.66,-0.66,-0.75,-0.70,-0.96,-0.96,-0.96
522.93,-0.30,0.66,-0.30,0.66,-0.66,-0.74,-0.70,-0.96,-0.96,-0.96
