frequency,raw,error,smoothed,error_smoothed,equalization,parametric_eq,fixed_band_eq,equalized_raw,equalized_smoothed,target
20.00,12.29,4.10,12.29,4.10,-4.10,-3.88,-1.82,8.19,8.19,8.18
20.20,12.29,4.11,12.29,4.12,-4.12,-3.88,-1.88,8.17,8.17,8.17
20.40,12.29,4.13,12.29,4.13,-4.13,-3.88,-1.93,8.15,8.15,8.15
20.61,12.29,4.15,12.29,4.15,-4.15,-3.88,-1.99,8.14,8.14,8.14
20.81,12.29,4.17,12.29,4.16,-4.16,-3.88,-2.05,8.13,8.13,8.12
21.02,12.29,4.18,12.29,4.17,-4.18,-3.88,-2.11,8.11,8.11,8.11
21.23,12.29,4.19,12.29,4.19,-4.19,-3.88,-2.17,8.10,8.10,8.10
21.44,12.29,4.20,12.29,4.20,-4.20,-3.88,-2.23,8.09,8.09,8.09
21.66,12.29,4.22,12.29,4.21,-4.21,-3.88,-2.29,8.08,8.08,8.07
21.87,12.29,4.22,12.29,4.22,-4.22,-3.88,-2.36,8.07,8.07,8.07
22.09,12.29,4.23,12.29,4.23,-4.23,-3.88,-2.43,8.06,8.06,8.06
22.31,12.29,4.24,12.29,4.24,-4.24,-3.88,-2.50,8.05,8.05,8.05
22.54,12.29,4.25,12.29,4.25,-4.25,-3.88,-2.57,8.04,8.04,8.04
22.76,12.29,4.26,12.29,4.26,-4.26,-3.88,-2.65,8.03,8.03,8.03
22.99,12.29,4.26,12.29,4.27,-4.27,-3.89,-2.72,8.02,8.02,8.03
23.22,12.29,4.27,12.29,4.27,-4.27,-3.89,-2.80,8.02,8.02,8.02
23.45,12.29,4.27,12.29,4.27,-4.27,-3.89,-2.88,8.02,8.02,8.01
23.69,12.29,4.27,12.29,4.28,-4.27,-3.89,-2.96,8.02,8.02,8.01
23.92,12.29,4.27,12.28,4.27,-4.26,-3.89,-3.04,8.03,8.02,8.01
24.16,12.27,4.26,12.27,4.26,-4.25,-3.89,-3.13,8.02,8.02,8.01
24.40,12.25,4.24,12.25,4.23,-4.23,-3.89,-3.21,8.02,8.01,8.01
24.65,12.22,4.21,12.22,4.21,-4.21,-3.89,-3.30,8.01,8.01,8.01
24.89,12.20,4.19,12.20,4.19,-4.19,-3.89,-3.39,8.01,8.01,8.01
25.14,12.18,4.17,12.17,4.16,-4.16,-3.89,-3.47,8.01,8.01,8.01
25.39,12.15,4.14,12.15,4.14,-4.14,-3.89,-3.56,8.00,8.00,8.01
25.65,12.12,4.12,12.12,4.12,-4.13,-3.89,-3.65,7.99,7.99,8.00
25.91,12.10,4.10,12.10,4.11,-4.12,-3.89,-3.74,7.98,7.98,8.00
26.16,12.09,4.10,12.09,4.10,-4.11,-3.89,-3.83,7.98,7.98,7.98
26.43,12.09,4.10,12.09,4.11,-4.11,-3.89,-3.92,7.98,7.98,7.98
26.69,12.09,4.12,12.09,4.11,-4.11,-3.89,-4.01,7.97,7.97,7.97
26.96,12.09,4.13,12.09,4.12,-4.12,-3.89,-4.09,7.97,7.97,7.96
27.23,12.09,4.13,12.09,4.13,-4.13,-3.89,-4.18,7.96,7.96,7.96
27.50,12.09,4.14,12.09,4.14,-4.14,-3.89,-4.26,7.95,7.95,7.95
27.77,12.09,4.15,12.09,4.15,-4.15,-3.90,-4.34,7.94,7.94,7.94
28.05,12.09,4.16,12.09,4.16,-4.16,-3.90,-4.42,7.93,7.93,7.93
28.33,12.09,4.16,12.09,4.17,-4.16,-3.90,-4.49,7.93,7.93,7.92
28.62,12.09,4.17,12.09,4.17,-4.17,-3.90,-4.56,7.92,7.92,7.92
28.90,12.09,4.18,12.09,4.17,-4.17,-3.90,-4.62,7.92,7.92,7.91
29.19,12.09,4.17,12.09,4.17,-4.17,-3.90,-4.69,7.91,7.91,7.92
29.48,12.09,4.17,12.09,4.17,-4.18,-3.90,-4.74,7.91,7.91,7.92
29.78,12.09,4.17,12.09,4.17,-4.18,-3.90,-4.79,7.91,7.91,7.92
30.08,12.09,4.17,12.09,4.17,-4.18,-3.90,-4.83,7.91,7.91,7.91
30.38,12.09,4.18,12.09,4.18,-4.18,-3.90,-4.87,7.91,7.91,7.91
30.68,12.09,4.18,12.09,4.18,-4.17,-3.90,-4.90,7.92,7.92,7.91
30.99,12.09,4.18,12.08,4.17,-4.16,-3.90,-4.93,7.93,7.92,7.91
31.30,12.06,4.15,12.06,4.15,-4.14,-3.90,-4.94,7.92,7.92,7.91
31.61,12.03,4.12,12.03,4.13,-4.12,-3.90,-4.95,7.91,7.91,7.90
31.93,12.00,4.10,12.00,4.10,-4.10,-3.90,-4.96,7.90,7.90,7.90
32.24,11.97,4.08,11.96,4.07,-4.07,-3.90,-4.95,7.89,7.89,7.89
32.57,11.93,4.04,11.93,4.04,-4.05,-3.90,-4.94,7.87,7.88,7.89
32.89,11.90,4.01,11.90,4.02,-4.04,-3.90,-4.93,7.86,7.87,7.88
33.22,11.89,4.01,11.89,4.01,-4.02,-3.90,-4.91,7.86,7.87,7.88
33.55,11.89,4.01,11.89,4.01,-4.02,-3.90,-4.88,7.87,7.87,7.88
33.89,11.89,4.02,11.89,4.02,-4.02,-3.90,-4.85,7.87,7.87,7.86
34.23,11.89,4.03,11.89,4.03,-4.02,-3.90,-4.82,7.87,7.87,7.86
34.57,11.89,4.03,11.89,4.03,-4.03,-3.90,-4.78,7.86,7.86,7.86
34.92,11.89,4.03,11.89,4.03,-4.04,-3.90,-4.73,7.85,7.85,7.86
35.27,11.89,4.04,11.89,4.04,-4.04,-3.90,-4.69,7.85,7.85,7.85
35.62,11.89,4.04,11.89,4.04,-4.04,-3.90,-4.64,7.85,7.85,7.85
35.97,11.89,4.05,11.88,4.04,-4.03,-3.90,-4.59,7.86,7.85,7.83
36.33,11.87,4.04,11.87,4.03,-4.01,-3.90,-4.54,7.85,7.85,7.83
36.70,11.84,4.01,11.84,4.01,-3.99,-3.89,-4.48,7.84,7.85,7.83
37.06,11.81,3.98,11.80,3.98,-3.97,-3.89,-4.43,7.83,7.83,7.82
37.43,11.76,3.95,11.75,3.94,-3.96,-3.89,-4.38,7.80,7.80,7.81
37.81,11.71,3.90,11.72,3.91,-3.94,-3.89,-4.32,7.77,7.78,7.80
38.19,11.69,3.90,11.69,3.90,-3.93,-3.89,-4.27,7.76,7.76,7.79
38.57,11.69,3.91,11.68,3.91,-3.92,-3.89,-4.22,7.76,7.76,7.78
38.95,11.69,3.93,11.69,3.92,-3.93,-3.89,-4.16,7.76,7.76,7.76
39.34,11.69,3.93,11.69,3.94,-3.94,-3.89,-4.11,7.75,7.75,7.76
39.74,11.69,3.95,11.69,3.95,-3.95,-3.88,-4.06,7.74,7.74,7.74
40.14,11.69,3.96,11.69,3.96,-3.96,-3.88,-4.02,7.73,7.73,7.73
40.54,11.69,3.98,11.69,3.98,-3.96,-3.88,-3.97,7.73,7.73,7.71
40.94,11.69,3.98,11.68,3.98,-3.95,-3.88,-3.93,7.73,7.73,7.70
41.35,11.66,3.96,11.66,3.96,-3.94,-3.87,-3.89,7.72,7.72,7.70
41.76,11.63,3.94,11.63,3.94,-3.92,-3.87,-3.85,7.71,7.71,7.69
42.18,11.59,3.90,11.58,3.90,-3.90,-3.87,-3.82,7.69,7.68,7.68
42.60,11.54,3.86,11.54,3.86,-3.88,-3.86,-3.78,7.66,7.66,7.68
43.03,11.49,3.82,11.50,3.83,-3.86,-3.86,-3.76,7.63,7.65,7.67
43.46,11.49,3.82,11.49,3.82,-3.84,-3.86,-3.73,7.64,7.64,7.66
43.90,11.49,3.82,11.48,3.82,-3.84,-3.85,-3.70,7.65,7.65,7.67
44.33,11.49,3.83,11.49,3.83,-3.83,-3.85,-3.68,7.65,7.65,7.66
44.78,11.49,3.84,11.49,3.84,-3.83,-3.84,-3.66,7.65,7.66,7.65
45.23,11.49,3.85,11.49,3.85,-3.83,-3.84,-3.65,7.66,7.66,7.64
45.68,11.49,3.85,11.49,3.85,-3.82,-3.83,-3.63,7.67,7.67,7.63
46.13,11.48,3.85,11.46,3.84,-3.81,-3.83,-3.62,7.67,7.65,7.62
46.60,11.42,3.80,11.42,3.81,-3.79,-3.82,-3.62,7.62,7.63,7.62
47.06,11.37,3.76,11.37,3.77,-3.78,-3.81,-3.61,7.59,7.59,7.61
47.53,11.33,3.73,11.32,3.73,-3.77,-3.81,-3.61,7.56,7.56,7.60
48.01,11.29,3.71,11.30,3.72,-3.76,-3.80,-3.61,7.53,7.54,7.58
48.49,11.29,3.72,11.29,3.72,-3.75,-3.79,-3.61,7.54,7.54,7.56
48.97,11.29,3.74,11.29,3.74,-3.74,-3.79,-3.62,7.55,7.54,7.54
49.46,11.29,3.76,11.29,3.76,-3.74,-3.78,-3.62,7.55,7.55,7.53
49.96,11.29,3.77,11.29,3.77,-3.73,-3.77,-3.63,7.56,7.56,7.52
50.46,11.27,3.76,11.27,3.76,-3.72,-3.76,-3.64,7.55,7.55,7.51
50.96,11.25,3.74,11.23,3.73,-3.71,-3.75,-3.66,7.54,7.52,7.51
51.47,11.18,3.68,11.18,3.69,-3.70,-3.74,-3.67,7.48,7.48,7.49
51.99,11.11,3.63,11.13,3.65,-3.69,-3.73,-3.69,7.42,7.44,7.48
52.51,11.10,3.64,11.10,3.64,-3.68,-3.72,-3.70,7.42,7.42,7.46
53.03,11.09,3.65,11.09,3.65,-3.66,-3.71,-3.72,7.43,7.43,7.44
53.56,11.09,3.66,11.09,3.66,-3.64,-3.70,-3.74,7.45,7.44,7.43
54.10,11.08,3.67,11.08,3.67,-3.63,-3.69,-3.76,7.45,7.45,7.41
54.64,11.05,3.65,11.04,3.65,-3.62,-3.68,-3.78,7.43,7.43,7.39
55.18,11.01,3.63,10.99,3.62,-3.61,-3.67,-3.80,7.40,7.38,7.38
55.74,10.93,3.57,10.94,3.58,-3.61,-3.65,-3.82,7.32,7.34,7.36
56.29,10.90,3.55,10.90,3.56,-3.60,-3.64,-3.84,7.30,7.30,7.34
56.86,10.89,3.56,10.89,3.56,-3.59,-3.63,-3.85,7.30,7.30,7.33
57.42,10.89,3.58,10.89,3.58,-3.58,-3.62,-3.87,7.31,7.31,7.31
58.00,10.89,3.60,10.88,3.60,-3.57,-3.61,-3.88,7.32,7.32,7.29
58.58,10.87,3.60,10.86,3.60,-3.56,-3.61,-3.90,7.31,7.30,7.27
59.16,10.83,3.58,10.82,3.58,-3.56,-3.60,-3.91,7.27,7.27,7.25
59.76,10.77,3.54,10.77,3.54,-3.55,-3.59,-3.92,7.21,7.22,7.23
60.35,10.72,3.51,10.72,3.52,-3.54,-3.58,-3.93,7.17,7.18,7.20
60.96,10.69,3.50,10.70,3.51,-3.53,-3.58,-3.93,7.16,7.17,7.19
61.57,10.69,3.52,10.68,3.52,-3.52,-3.57,-3.93,7.17,7.17,7.17
62.18,10.68,3.53,10.67,3.52,-3.50,-3.57,-3.93,7.18,7.17,7.14
62.80,10.64,3.53,10.63,3.52,-3.50,-3.57,-3.93,7.14,7.14,7.11
63.43,10.58,3.49,10.58,3.49,-3.50,-3.57,-3.93,7.08,7.08,7.09
64.07,10.52,3.47,10.53,3.48,-3.50,-3.57,-3.92,7.02,7.03,7.05
64.71,10.49,3.47,10.49,3.47,-3.50,-3.57,-3.91,6.99,6.99,7.02
65.35,10.48,3.49,10.48,3.49,-3.50,-3.57,-3.89,6.98,6.98,6.99
66.01,10.48,3.52,10.47,3.51,-3.50,-3.57,-3.88,6.98,6.97,6.96
66.67,10.45,3.53,10.45,3.53,-3.50,-3.58,-3.86,6.94,6.95,6.92
67.33,10.42,3.53,10.42,3.53,-3.51,-3.58,-3.84,6.91,6.90,6.89
68.01,10.38,3.53,10.36,3.51,-3.52,-3.58,-3.82,6.86,6.84,6.85
68.69,10.31,3.49,10.32,3.51,-3.53,-3.59,-3.80,6.78,6.79,6.82
69.37,10.28,3.50,10.29,3.52,-3.53,-3.59,-3.78,6.75,6.76,6.77
70.07,10.28,3.54,10.28,3.54,-3.53,-3.60,-3.75,6.74,6.74,6.74
70.77,10.28,3.58,10.26,3.56,-3.54,-3.60,-3.73,6.74,6.73,6.70
71.48,10.23,3.56,10.22,3.56,-3.54,-3.61,-3.70,6.69,6.68,6.66
72.19,10.16,3.54,10.16,3.54,-3.54,-3.61,-3.68,6.61,6.62,6.62
72.91,10.09,3.51,10.11,3.53,-3.55,-3.61,-3.65,6.54,6.56,6.58
73.64,10.08,3.53,10.09,3.54,-3.55,-3.62,-3.63,6.53,6.54,6.55
74.38,10.08,3.57,10.06,3.56,-3.55,-3.62,-3.60,6.53,6.52,6.51
75.12,10.06,3.59,10.03,3.56,-3.55,-3.62,-3.58,6.51,6.48,6.47
75.87,9.95,3.53,9.97,3.54,-3.55,-3.63,-3.56,6.40,6.42,6.42
76.63,9.90,3.52,9.91,3.53,-3.55,-3.63,-3.53,6.35,6.36,6.38
77.40,9.88,3.54,9.88,3.54,-3.56,-3.63,-3.51,6.32,6.32,6.34
78.17,9.88,3.58,9.87,3.57,-3.56,-3.63,-3.50,6.31,6.31,6.30
78.95,9.86,3.60,9.84,3.59,-3.57,-3.64,-3.48,6.29,6.27,6.25
79.74,9.80,3.59,9.79,3.58,-3.58,-3.64,-3.47,6.22,6.22,6.21
80.54,9.73,3.56,9.74,3.57,-3.58,-3.64,-3.45,6.15,6.16,6.17
81.35,9.68,3.56,9.70,3.58,-3.59,-3.64,-3.44,6.09,6.12,6.12
82.16,9.68,3.60,9.67,3.60,-3.59,-3.64,-3.43,6.09,6.08,6.08
82.98,9.68,3.66,9.63,3.60,-3.60,-3.64,-3.43,6.08,6.03,6.02
83.81,9.55,3.57,9.57,3.60,-3.60,-3.64,-3.43,5.95,5.97,5.97
84.65,9.49,3.56,9.51,3.59,-3.61,-3.64,-3.42,5.88,5.91,5.93
85.50,9.48,3.61,9.47,3.60,-3.62,-3.64,-3.43,5.86,5.85,5.87
86.35,9.46,3.64,9.45,3.63,-3.63,-3.63,-3.43,5.83,5.82,5.82
87.22,9.42,3.66,9.41,3.65,-3.63,-3.63,-3.44,5.78,5.77,5.76
88.09,9.36,3.65,9.36,3.65,-3.64,-3.63,-3.45,5.72,5.71,5.71
88.97,9.28,3.63,9.31,3.66,-3.65,-3.63,-3.46,5.62,5.65,5.65
89.86,9.28,3.69,9.26,3.67,-3.67,-3.63,-3.47,5.61,5.59,5.58
90.76,9.22,3.69,9.21,3.68,-3.69,-3.63,-3.49,5.53,5.52,5.53
91.66,9.17,3.70,9.17,3.70,-3.71,-3.63,-3.51,5.46,5.46,5.47
92.58,9.11,3.70,9.12,3.71,-3.73,-3.62,-3.53,5.38,5.39,5.41
93.51,9.08,3.73,9.09,3.75,-3.75,-3.62,-3.56,5.33,5.34,5.34
94.44,9.08,3.80,9.07,3.79,-3.77,-3.62,-3.59,5.30,5.29,5.28
95.39,9.05,3.83,9.03,3.82,-3.80,-3.62,-3.62,5.25,5.23,5.21
96.34,8.97,3.82,8.97,3.83,-3.83,-3.62,-3.65,5.14,5.15,5.15
97.30,8.91,3.83,8.92,3.84,-3.85,-3.62,-3.68,5.06,5.07,5.08
98.28,8.86,3.85,8.88,3.87,-3.87,-3.62,-3.72,4.99,5.01,5.01
99.26,8.85,3.91,8.83,3.90,-3.88,-3.62,-3.76,4.96,4.95,4.93
100.25,8.80,3.94,8.77,3.91,-3.90,-3.62,-3.80,4.90,4.87,4.86
101.25,8.67,3.89,8.69,3.91,-3.91,-3.62,-3.84,4.76,4.78,4.78
102.27,8.59,3.88,8.61,3.90,-3.92,-3.62,-3.88,4.67,4.69,4.71
103.29,8.55,3.92,8.54,3.91,-3.92,-3.62,-3.92,4.63,4.62,4.63
104.32,8.50,3.94,8.48,3.93,-3.92,-3.62,-3.96,4.58,4.56,4.55
105.37,8.41,3.94,8.41,3.94,-3.91,-3.62,-4.01,4.49,4.49,4.47
106.42,8.31,3.92,8.32,3.93,-3.91,-3.63,-4.05,4.39,4.40,4.39
107.48,8.23,3.91,8.22,3.91,-3.92,-3.63,-4.10,4.31,4.30,4.31
108.56,8.14,3.90,8.14,3.90,-3.93,-3.63,-4.14,4.21,4.20,4.24
109.64,8.06,3.90,8.08,3.91,-3.94,-3.64,-4.18,4.12,4.14,4.16
110.74,8.03,3.93,8.03,3.94,-3.95,-3.64,-4.22,4.08,4.08,4.10
111.85,8.01,3.99,7.99,3.97,-3.95,-3.65,-4.26,4.06,4.04,4.02
112.97,7.95,3.99,7.95,3.99,-3.95,-3.65,-4.29,3.99,4.00,3.96
114.10,7.89,4.00,7.89,4.00,-3.96,-3.66,-4.33,3.93,3.92,3.89
115.24,7.81,3.98,7.80,3.98,-3.97,-3.67,-4.36,3.83,3.83,3.83
116.39,7.73,3.97,7.72,3.96,-3.99,-3.68,-4.39,3.74,3.73,3.76
117.55,7.64,3.93,7.65,3.95,-4.00,-3.68,-4.41,3.64,3.66,3.71
118.73,7.60,3.95,7.62,3.97,-4.00,-3.69,-4.43,3.59,3.61,3.64
119.92,7.61,4.02,7.60,4.01,-4.01,-3.70,-4.45,3.60,3.59,3.59
121.12,7.60,4.07,7.58,4.05,-4.01,-3.71,-4.46,3.58,3.56,3.53
122.33,7.54,4.06,7.54,4.06,-4.02,-3.72,-4.46,3.51,3.52,3.47
123.55,7.47,4.04,7.48,4.05,-4.03,-3.73,-4.47,3.43,3.45,3.43
124.79,7.42,4.04,7.41,4.03,-4.04,-3.74,-4.46,3.38,3.37,3.38
126.03,7.35,4.03,7.35,4.02,-4.04,-3.76,-4.45,3.30,3.30,3.32
127.29,7.29,4.01,7.30,4.03,-4.04,-3.77,-4.44,3.24,3.26,3.28
128.57,7.26,4.03,7.27,4.04,-4.04,-3.78,-4.42,3.22,3.23,3.23
129.85,7.26,4.07,7.23,4.04,-4.03,-3.79,-4.39,3.22,3.19,3.18
131.15,7.18,4.04,7.18,4.04,-4.03,-3.80,-4.37,3.15,3.15,3.13
132.46,7.10,4.01,7.12,4.04,-4.03,-3.82,-4.33,3.07,3.09,3.09
133.79,7.07,4.04,7.06,4.03,-4.03,-3.83,-4.30,3.04,3.03,3.03
135.12,7.02,4.03,7.01,4.03,-4.02,-3.84,-4.25,2.99,2.99,2.99
136.48,6.96,4.02,6.95,4.02,-4.02,-3.85,-4.21,2.94,2.94,2.94
137.84,6.89,4.00,6.89,4.00,-4.01,-3.86,-4.16,2.88,2.88,2.89
139.22,6.83,3.99,6.83,3.99,-4.01,-3.88,-4.11,2.82,2.83,2.84
140.61,6.79,4.00,6.78,3.99,-4.00,-3.89,-4.05,2.79,2.78,2.79
142.02,6.72,3.98,6.74,4.00,-3.99,-3.90,-4.00,2.73,2.75,2.74
143.44,6.70,4.01,6.69,4.00,-3.99,-3.91,-3.94,2.71,2.71,2.69
144.87,6.66,4.01,6.63,3.98,-3.98,-3.91,-3.88,2.68,2.65,2.65
146.32,6.54,3.94,6.56,3.97,-3.97,-3.92,-3.82,2.57,2.59,2.60
147.78,6.48,3.94,6.49,3.95,-3.96,-3.93,-3.76,2.51,2.53,2.54
149.26,6.45,3.96,6.43,3.94,-3.95,-3.93,-3.70,2.50,2.48,2.49
150.75,6.39,3.95,6.38,3.94,-3.94,-3.94,-3.64,2.45,2.45,2.44
152.26,6.32,3.92,6.33,3.93,-3.92,-3.94,-3.58,2.40,2.41,2.40
153.78,6.27,3.91,6.26,3.91,-3.90,-3.94,-3.52,2.36,2.36,2.36
155.32,6.21,3.89,6.21,3.89,-3.89,-3.94,-3.47,2.32,2.32,2.32
156.88,6.14,3.87,6.14,3.87,-3.87,-3.94,-3.41,2.27,2.28,2.27
158.44,6.09,3.85,6.08,3.84,-3.85,-3.94,-3.35,2.24,2.23,2.24
160.03,6.01,3.81,6.02,3.82,-3.82,-3.93,-3.30,2.18,2.19,2.20
161.63,5.95,3.79,5.95,3.79,-3.80,-3.92,-3.24,2.15,2.15,2.15
163.24,5.90,3.78,5.89,3.77,-3.78,-3.92,-3.19,2.12,2.11,2.11
164.88,5.82,3.74,5.83,3.75,-3.76,-3.90,-3.14,2.06,2.07,2.07
166.53,5.78,3.74,5.77,3.73,-3.73,-3.89,-3.09,2.05,2.04,2.04
168.19,5.70,3.70,5.71,3.71,-3.71,-3.87,-3.05,1.99,2.01,2.00
169.87,5.66,3.70,5.64,3.68,-3.68,-3.86,-3.00,1.98,1.97,1.96
171.57,5.58,3.66,5.57,3.65,-3.65,-3.84,-2.96,1.93,1.92,1.92
173.29,5.48,3.59,5.51,3.62,-3.61,-3.81,-2.92,1.87,1.90,1.89
175.02,5.44,3.59,5.43,3.58,-3.58,-3.79,-2.89,1.86,1.85,1.85
176.77,5.40,3.57,5.36,3.54,-3.55,-3.76,-2.85,1.85,1.81,1.83
178.54,5.27,3.48,5.30,3.51,-3.52,-3.73,-2.82,1.75,1.79,1.79
180.32,5.24,3.47,5.24,3.47,-3.48,-3.70,-2.79,1.75,1.76,1.77
182.13,5.21,3.46,5.19,3.44,-3.46,-3.67,-2.76,1.75,1.73,1.75
183.95,5.15,3.42,5.16,3.44,-3.43,-3.63,-2.73,1.72,1.73,1.72
185.79,5.11,3.41,5.11,3.41,-3.40,-3.59,-2.71,1.71,1.71,1.69
187.65,5.07,3.39,5.06,3.38,-3.37,-3.55,-2.69,1.70,1.69,1.68
189.52,5.01,3.35,5.01,3.35,-3.35,-3.51,-2.67,1.66,1.66,1.66
191.42,4.95,3.31,4.95,3.31,-3.32,-3.47,-2.65,1.63,1.63,1.64
193.33,4.91,3.28,4.90,3.28,-3.29,-3.42,-2.63,1.61,1.61,1.62
195.27,4.86,3.24,4.86,3.25,-3.26,-3.38,-2.62,1.60,1.60,1.62
197.22,4.83,3.23,4.83,3.23,-3.23,-3.33,-2.61,1.60,1.60,1.60
199.19,4.78,3.20,4.78,3.20,-3.19,-3.28,-2.60,1.59,1.60,1.58
201.18,4.75,3.18,4.73,3.17,-3.15,-3.23,-2.59,1.60,1.59,1.56
203.19,4.67,3.12,4.67,3.12,-3.11,-3.17,-2.58,1.56,1.56,1.55
205.23,4.59,3.06,4.59,3.06,-3.06,-3.12,-2.57,1.53,1.53,1.53
207.28,4.51,2.99,4.51,3.00,-3.01,-3.07,-2.56,1.49,1.50,1.52
209.35,4.45,2.96,4.45,2.95,-2.96,-3.01,-2.56,1.48,1.48,1.49
211.44,4.39,2.91,4.39,2.91,-2.91,-2.95,-2.55,1.48,1.48,1.48
213.56,4.32,2.85,4.32,2.86,-2.86,-2.90,-2.55,1.46,1.47,1.46
215.69,4.27,2.83,4.25,2.81,-2.81,-2.84,-2.54,1.46,1.45,1.44
217.85,4.18,2.75,4.19,2.76,-2.76,-2.78,-2.54,1.42,1.43,1.43
220.03,4.11,2.70,4.11,2.71,-2.71,-2.72,-2.53,1.40,1.41,1.41
222.23,4.06,2.66,4.05,2.65,-2.66,-2.66,-2.52,1.40,1.39,1.39
224.45,3.98,2.59,3.98,2.60,-2.60,-2.60,-2.52,1.37,1.38,1.38
226.70,3.93,2.56,3.92,2.55,-2.55,-2.54,-2.51,1.38,1.37,1.37
228.96,3.85,2.49,3.86,2.50,-2.49,-2.48,-2.50,1.36,1.37,1.36
231.25,3.80,2.44,3.80,2.44,-2.43,-2.42,-2.49,1.37,1.37,1.36
233.57,3.76,2.41,3.73,2.38,-2.37,-2.36,-2.48,1.39,1.36,1.35
235.90,3.65,2.30,3.66,2.31,-2.31,-2.30,-2.46,1.34,1.35,1.35
238.26,3.59,2.25,3.59,2.24,-2.25,-2.24,-2.45,1.34,1.34,1.34
240.64,3.53,2.17,3.53,2.18,-2.20,-2.18,-2.43,1.33,1.34,1.35
243.05,3.49,2.13,3.49,2.14,-2.14,-2.12,-2.41,1.34,1.34,1.35
245.48,3.46,2.10,3.45,2.09,-2.10,-2.06,-2.38,1.36,1.35,1.36
247.93,3.40,2.04,3.40,2.04,-2.05,-2.00,-2.36,1.34,1.35,1.36
250.41,3.37,2.01,3.36,2.00,-2.01,-1.94,-2.33,1.36,1.35,1.36
252.92,3.30,1.94,3.33,1.97,-1.96,-1.88,-2.30,1.33,1.37,1.36
255.45,3.32,1.95,3.30,1.94,-1.92,-1.82,-2.26,1.40,1.39,1.36
258.00,3.28,1.92,3.25,1.90,-1.87,-1.76,-2.22,1.41,1.39,1.36
260.58,3.19,1.84,3.19,1.84,-1.82,-1.70,-2.18,1.37,1.37,1.35
263.19,3.09,1.74,3.10,1.76,-1.77,-1.65,-2.14,1.32,1.33,1.34
265.82,3.03,1.70,3.02,1.68,-1.72,-1.59,-2.10,1.30,1.29,1.33
268.48,2.95,1.63,2.97,1.65,-1.67,-1.53,-2.05,1.27,1.29,1.32
271.16,2.92,1.61,2.93,1.62,-1.62,-1.48,-2.00,1.29,1.31,1.31
273.87,2.92,1.63,2.88,1.58,-1.57,-1.42,-1.95,1.35,1.30,1.29
276.61,2.82,1.53,2.83,1.54,-1.52,-1.37,-1.89,1.29,1.30,1.28
279.38,2.74,1.46,2.77,1.49,-1.48,-1.31,-1.84,1.26,1.29,1.28
282.17,2.72,1.45,2.69,1.42,-1.43,-1.26,-1.78,1.29,1.26,1.26
284.99,2.65,1.39,2.64,1.38,-1.38,-1.20,-1.72,1.27,1.26,1.26
287.84,2.54,1.28,2.58,1.32,-1.32,-1.15,-1.66,1.21,1.25,1.25
290.72,2.54,1.30,2.50,1.25,-1.27,-1.10,-1.60,1.27,1.23,1.24
293.63,2.43,1.19,2.45,1.21,-1.21,-1.04,-1.54,1.21,1.23,1.24
296.57,2.38,1.15,2.40,1.17,-1.16,-0.99,-1.48,1.22,1.24,1.23
299.53,2.38,1.14,2.34,1.10,-1.11,-0.94,-1.41,1.26,1.22,1.24
302.53,2.29,1.05,2.29,1.06,-1.06,-0.89,-1.35,1.22,1.23,1.23
305.55,2.21,0.99,2.24,1.02,-1.01,-0.84,-1.28,1.19,1.23,1.22
308.61,2.21,0.99,2.18,0.96,-0.96,-0.79,-1.22,1.25,1.22,1.22
311.69,2.14,0.93,2.13,0.92,-0.91,-0.74,-1.15,1.23,1.22,1.21
314.81,2.05,0.85,2.08,0.88,-0.86,-0.69,-1.09,1.19,1.22,1.20
317.96,2.02,0.82,2.00,0.80,-0.81,-0.64,-1.02,1.21,1.19,1.20
321.14,1.96,0.77,1.93,0.74,-0.77,-0.59,-0.96,1.19,1.17,1.19
324.35,1.84,0.66,1.88,0.70,-0.71,-0.55,-0.89,1.12,1.16,1.18
327.59,1.82,0.65,1.82,0.65,-0.66,-0.50,-0.83,1.15,1.16,1.17
330.87,1.81,0.64,1.79,0.62,-0.61,-0.45,-0.76,1.20,1.18,1.16
334.18,1.74,0.58,1.74,0.58,-0.55,-0.40,-0.70,1.18,1.19,1.16
337.52,1.69,0.53,1.67,0.51,-0.49,-0.36,-0.63,1.20,1.18,1.16
340.90,1.56,0.41,1.58,0.43,-0.42,-0.31,-0.57,1.13,1.15,1.15
344.30,1.49,0.34,1.50,0.36,-0.35,-0.27,-0.50,1.14,1.15,1.14
347.75,1.43,0.29,1.42,0.29,-0.28,-0.22,-0.44,1.15,1.14,1.14
351.23,1.36,0.23,1.34,0.21,-0.21,-0.18,-0.38,1.15,1.13,1.13
354.74,1.26,0.13,1.25,0.12,-0.14,-0.13,-0.31,1.11,1.10,1.13
358.28,1.14,0.01,1.17,0.05,-0.08,-0.09,-0.25,1.05,1.09,1.12
361.87,1.12,-0.00,1.13,0.00,-0.03,-0.04,-0.19,1.08,1.09,1.12
365.49,1.13,0.01,1.11,-0.01,0.01,0.00,-0.12,1.14,1.12,1.12
369.14,1.10,-0.02,1.09,-0.03,0.05,0.05,-0.06,1.15,1.14,1.12
372.83,1.05,-0.07,1.05,-0.07,0.10,0.09,-0.00,1.14,1.14,1.12
376.56,0.98,-0.14,0.99,-0.12,0.14,0.14,0.06,1.11,1.13,1.12
380.33,0.94,-0.17,0.93,-0.18,0.18,0.18,0.12,1.12,1.11,1.10
384.13,0.88,-0.22,0.87,-0.23,0.22,0.22,0.18,1.10,1.10,1.10
387.97,0.81,-0.28,0.81,-0.28,0.27,0.27,0.25,1.08,1.09,1.09
391.85,0.75,-0.33,0.75,-0.33,0.33,0.31,0.31,1.07,1.07,1.08
395.77,0.69,-0.38,0.69,-0.38,0.38,0.35,0.37,1.06,1.06,1.07
399.73,0.62,-0.44,0.62,-0.43,0.43,0.40,0.43,1.04,1.05,1.06
403.72,0.57,-0.48,0.56,-0.48,0.47,0.44,0.49,1.04,1.04,1.04
407.76,0.49,-0.54,0.50,-0.52,0.52,0.48,0.55,1.01,1.03,1.02
411.84,0.46,-0.55,0.44,-0.57,0.58,0.53,0.61,1.03,1.02,1.01
415.96,0.39,-0.61,0.38,-0.61,0.63,0.57,0.66,1.02,1.01,1.00
420.12,0.31,-0.68,0.32,-0.67,0.69,0.61,0.72,0.99,1.01,0.99
424.32,0.27,-0.72,0.24,-0.74,0.74,0.65,0.78,1.01,0.99,0.99
428.56,0.18,-0.81,0.18,-0.81,0.80,0.70,0.83,0.98,0.99,0.99
432.85,0.11,-0.89,0.14,-0.86,0.86,0.74,0.89,0.97,1.00,1.00
437.18,0.12,-0.90,0.09,-0.92,0.91,0.78,0.94,1.03,1.00,1.02
441.55,0.09,-0.95,0.06,-0.97,0.95,0.83,1.00,1.04,1.01,1.03
445.96,0.02,-1.05,0.05,-1.02,0.99,0.87,1.05,1.01,1.04,1.06
450.42,0.04,-1.06,0.06,-1.04,1.03,0.91,1.10,1.07,1.09,1.10
454.93,0.11,-1.03,0.09,-1.05,1.06,0.95,1.15,1.16,1.15,1.14
459.48,0.16,-1.03,0.12,-1.06,1.08,1.00,1.20,1.24,1.21,1.19
464.07,0.13,-1.10,0.13,-1.10,1.12,1.04,1.24,1.24,1.25,1.23
468.71,0.10,-1.18,0.13,-1.15,1.15,1.08,1.29,1.25,1.28,1.28
473.40,0.14,-1.19,0.14,-1.19,1.19,1.13,1.33,1.33,1.33,1.33
478.13,0.18,-1.20,0.16,-1.22,1.24,1.17,1.37,1.41,1.40,1.38
482.91,0.16,-1.26,0.15,-1.27,1.29,1.21,1.41,1.45,1.44,1.42
487.74,0.12,-1.34,0.10,-1.35,1.34,1.26,1.45,1.46,1.44,1.46
492.62,0.03,-1.46,0.07,-1.41,1.40,1.30,1.48,1.43,1.47,1.49
497.55,0.03,-1.48,0.05,-1.46,1.45,1.34,1.51,1.48,1.50,1.51
502.52,0.08,-1.45,0.01,-1.51,1.50,1.38,1.55,1.58,1.51,1.52
507.55,-0.02,-1.56,-0.01,-1.54,1.55,1.43,1.57,1.53,1.54,1.53
512.62,-0.10,-1.63,-0.06,-1.59,1.59,1.47,1.60,1.49,1.53,1.52
517.75,-0.09,-1.62,-0.12,-1.64,1.63,1.51,1.63,1.54,1.51,1.52
522.93,-0.15,-1.65,-0.16,-1.66,1.66,1.56,1.65,1.51,1.50,1.50
