frequency,raw,error,smoothed,error_smoothed,equalization,parametric_eq,fixed_band_eq,equalized_raw,equalized_smoothed,target
20.00,-9.68,-9.06,-9.68,-9.06,6.00,5.85,2.55,-3.68,-3.68,-0.62
20.20,-9.57,-8.99,-9.56,-8.99,6.00,5.88,2.62,-3.57,-3.56,-0.58
20.40,-9.45,-8.92,-9.45,-8.91,6.00,5.91,2.70,-3.45,-3.45,-0.54
20.61,-9.34,-8.82,-9.34,-8.83,6.00,5.93,2.77,-3.34,-3.34,-0.52
20.81,-9.22,-8.75,-9.23,-8.75,6.00,5.96,2.85,-3.22,-3.23,-0.48
21.02,-9.12,-8.68,-9.11,-8.67,6.00,5.98,2.93,-3.12,-3.11,-0.44
21.23,-9.01,-8.59,-9.00,-8.59,6.00,6.00,3.02,-3.01,-3.00,-0.42
21.44,-8.88,-8.49,-8.89,-8.49,6.00,6.02,3.11,-2.88,-2.89,-0.40
21.66,-8.78,-8.40,-8.77,-8.39,6.00,6.04,3.19,-2.78,-2.77,-0.38
21.87,-8.66,-8.29,-8.66,-8.30,6.00,6.05,3.29,-2.66,-2.66,-0.37
22.09,-8.54,-8.19,-8.55,-8.20,6.00,6.06,3.38,-2.54,-2.55,-0.35
22.31,-8.43,-8.09,-8.43,-8.09,6.00,6.07,3.48,-2.43,-2.43,-0.34
22.54,-8.32,-7.98,-8.32,-7.98,6.00,6.08,3.58,-2.32,-2.32,-0.34
22.76,-8.20,-7.87,-8.21,-7.87,6.00,6.08,3.68,-2.20,-2.21,-0.33
22.99,-8.10,-7.77,-8.09,-7.76,6.00,6.08,3.78,-2.10,-2.09,-0.33
23.22,-7.98,-7.65,-7.98,-7.66,6.00,6.08,3.89,-1.98,-1.98,-0.32
23.45,-7.86,-7.55,-7.86,-7.55,6.00,6.08,4.00,-1.86,-1.86,-0.31
23.69,-7.75,-7.45,-7.75,-7.45,6.00,6.07,4.11,-1.75,-1.75,-0.30
23.92,-7.63,-7.35,-7.63,-7.35,6.00,6.06,4.22,-1.63,-1.63,-0.28
24.16,-7.51,-7.25,-7.52,-7.25,6.00,6.05,4.34,-1.51,-1.52,-0.26
24.40,-7.40,-7.15,-7.40,-7.15,6.00,6.04,4.46,-1.40,-1.40,-0.25
24.65,-7.30,-7.04,-7.29,-7.05,6.00,6.02,4.58,-1.30,-1.29,-0.25
24.89,-7.18,-6.95,-7.18,-6.95,6.00,6.00,4.70,-1.18,-1.18,-0.23
25.14,-7.07,-6.85,-7.07,-6.85,6.00,5.98,4.82,-1.07,-1.07,-0.22
25.39,-6.96,-6.75,-6.96,-6.75,6.00,5.96,4.94,-0.96,-0.96,-0.21
25.65,-6.86,-6.65,-6.86,-6.65,6.00,5.93,5.07,-0.85,-0.85,-0.21
25.91,-6.75,-6.55,-6.75,-6.55,6.01,5.90,5.19,-0.74,-0.74,-0.20
26.16,-6.63,-6.45,-6.64,-6.45,6.02,5.87,5.31,-0.62,-0.62,-0.19
26.43,-6.53,-6.35,-6.53,-6.35,6.02,5.83,5.43,-0.51,-0.51,-0.18
26.69,-6.42,-6.26,-6.42,-6.25,6.01,5.80,5.55,-0.41,-0.41,-0.16
26.96,-6.31,-6.16,-6.31,-6.16,5.99,5.76,5.67,-0.32,-0.31,-0.15
27.23,-6.20,-6.06,-6.20,-6.06,5.96,5.72,5.79,-0.24,-0.24,-0.14
27.50,-6.09,-5.97,-6.09,-5.96,5.91,5.67,5.90,-0.17,-0.18,-0.12
27.77,-5.98,-5.86,-5.98,-5.87,5.85,5.63,6.01,-0.13,-0.13,-0.12
28.05,-5.87,-5.77,-5.88,-5.77,5.78,5.58,6.11,-0.10,-0.10,-0.10
28.33,-5.77,-5.67,-5.77,-5.68,5.69,5.53,6.21,-0.08,-0.08,-0.10
28.62,-5.67,-5.58,-5.67,-5.58,5.60,5.48,6.29,-0.07,-0.07,-0.08
28.90,-5.56,-5.49,-5.56,-5.49,5.50,5.43,6.37,-0.06,-0.06,-0.07
29.19,-5.46,-5.39,-5.46,-5.40,5.40,5.37,6.45,-0.05,-0.05,-0.06
29.48,-5.35,-5.31,-5.36,-5.31,5.31,5.32,6.51,-0.04,-0.05,-0.05
29.78,-5.26,-5.22,-5.26,-5.22,5.22,5.26,6.56,-0.03,-0.04,-0.04
30.08,-5.17,-5.14,-5.16,-5.14,5.13,5.20,6.60,-0.03,-0.03,-0.03
30.38,-5.07,-5.05,-5.07,-5.05,5.05,5.14,6.63,-0.02,-0.02,-0.02
30.68,-4.98,-4.97,-4.97,-4.96,4.96,5.08,6.65,-0.01,-0.01,-0.01
30.99,-4.88,-4.88,-4.88,-4.88,4.88,5.02,6.65,-0.00,-0.00,-0.00
31.30,-4.79,-4.79,-4.78,-4.79,4.79,4.95,6.65,0.00,0.01,0.01
31.61,-4.69,-4.71,-4.69,-4.71,4.71,4.89,6.63,0.02,0.02,0.03
31.93,-4.59,-4.61,-4.59,-4.62,4.62,4.82,6.59,0.04,0.03,0.03
32.24,-4.50,-4.54,-4.50,-4.54,4.54,4.75,6.55,0.04,0.04,0.03
32.57,-4.42,-4.46,-4.42,-4.46,4.46,4.69,6.49,0.05,0.05,0.04
32.89,-4.33,-4.40,-4.33,-4.39,4.39,4.62,6.42,0.05,0.05,0.06
33.22,-4.25,-4.30,-4.25,-4.31,4.31,4.55,6.34,0.07,0.06,0.06
33.55,-4.16,-4.24,-4.17,-4.24,4.24,4.48,6.26,0.07,0.07,0.08
33.89,-4.09,-4.16,-4.08,-4.16,4.17,4.41,6.16,0.08,0.08,0.08
34.23,-4.01,-4.10,-4.01,-4.09,4.09,4.33,6.05,0.09,0.09,0.09
34.57,-3.93,-4.02,-3.93,-4.02,4.03,4.26,5.94,0.10,0.10,0.09
34.92,-3.86,-3.96,-3.86,-3.96,3.96,4.19,5.82,0.10,0.10,0.10
35.27,-3.79,-3.90,-3.79,-3.89,3.89,4.12,5.69,0.10,0.10,0.11
35.62,-3.72,-3.82,-3.71,-3.82,3.82,4.05,5.56,0.11,0.11,0.11
35.97,-3.64,-3.75,-3.64,-3.76,3.76,3.97,5.43,0.11,0.11,0.10
36.33,-3.57,-3.70,-3.58,-3.69,3.69,3.90,5.29,0.12,0.12,0.12
36.70,-3.52,-3.64,-3.51,-3.63,3.63,3.83,5.15,0.12,0.12,0.12
37.06,-3.45,-3.56,-3.45,-3.57,3.57,3.76,5.00,0.12,0.12,0.11
37.43,-3.39,-3.51,-3.40,-3.51,3.52,3.68,4.86,0.12,0.12,0.12
37.81,-3.35,-3.46,-3.34,-3.46,3.46,3.61,4.71,0.11,0.11,0.11
38.19,-3.30,-3.41,-3.29,-3.41,3.40,3.54,4.57,0.11,0.11,0.11
38.57,-3.25,-3.36,-3.25,-3.36,3.35,3.47,4.42,0.10,0.10,0.12
38.95,-3.19,-3.30,-3.20,-3.30,3.30,3.39,4.28,0.10,0.10,0.10
39.34,-3.14,-3.25,-3.14,-3.25,3.25,3.32,4.13,0.10,0.10,0.10
39.74,-3.10,-3.18,-3.10,-3.19,3.20,3.25,3.99,0.10,0.10,0.09
40.14,-3.05,-3.14,-3.05,-3.14,3.14,3.18,3.85,0.10,0.10,0.10
40.54,-3.01,-3.09,-3.01,-3.09,3.10,3.11,3.71,0.09,0.09,0.08
40.94,-2.97,-3.05,-2.96,-3.05,3.05,3.04,3.57,0.08,0.08,0.09
41.35,-2.92,-3.00,-2.92,-3.00,3.00,2.97,3.43,0.08,0.08,0.08
41.76,-2.86,-2.95,-2.87,-2.95,2.95,2.90,3.30,0.08,0.08,0.08
42.18,-2.82,-2.90,-2.82,-2.90,2.90,2.84,3.16,0.08,0.08,0.09
42.60,-2.76,-2.85,-2.76,-2.85,2.85,2.77,3.03,0.08,0.09,0.08
43.03,-2.72,-2.80,-2.71,-2.80,2.80,2.70,2.90,0.08,0.09,0.09
43.46,-2.66,-2.74,-2.66,-2.74,2.74,2.63,2.78,0.09,0.09,0.08
43.90,-2.61,-2.69,-2.61,-2.69,2.69,2.57,2.65,0.08,0.08,0.08
44.33,-2.56,-2.63,-2.56,-2.63,2.63,2.50,2.53,0.08,0.08,0.08
44.78,-2.51,-2.58,-2.50,-2.58,2.57,2.43,2.41,0.07,0.07,0.07
45.23,-2.45,-2.52,-2.44,-2.51,2.51,2.37,2.29,0.07,0.07,0.08
45.68,-2.38,-2.45,-2.38,-2.45,2.45,2.30,2.17,0.08,0.07,0.07
46.13,-2.30,-2.38,-2.31,-2.39,2.39,2.23,2.06,0.08,0.08,0.07
46.60,-2.24,-2.32,-2.23,-2.32,2.32,2.17,1.94,0.09,0.09,0.09
47.06,-2.17,-2.25,-2.16,-2.25,2.25,2.10,1.83,0.09,0.09,0.08
47.53,-2.09,-2.17,-2.09,-2.18,2.18,2.03,1.72,0.09,0.09,0.09
48.01,-2.02,-2.12,-2.01,-2.11,2.10,1.96,1.62,0.08,0.08,0.10
48.49,-1.94,-2.03,-1.93,-2.02,2.02,1.88,1.51,0.08,0.08,0.09
48.97,-1.85,-1.92,-1.85,-1.93,1.93,1.81,1.41,0.08,0.08,0.08
49.46,-1.77,-1.84,-1.77,-1.83,1.84,1.73,1.30,0.07,0.07,0.07
49.96,-1.69,-1.74,-1.68,-1.74,1.75,1.66,1.20,0.06,0.07,0.05
50.46,-1.60,-1.66,-1.60,-1.65,1.66,1.58,1.10,0.06,0.06,0.06
50.96,-1.51,-1.56,-1.51,-1.56,1.56,1.49,1.01,0.06,0.06,0.06
51.47,-1.42,-1.45,-1.42,-1.46,1.47,1.41,0.91,0.05,0.05,0.04
51.99,-1.33,-1.37,-1.33,-1.37,1.37,1.33,0.82,0.04,0.04,0.04
52.51,-1.25,-1.29,-1.24,-1.28,1.28,1.24,0.73,0.03,0.03,0.04
53.03,-1.16,-1.19,-1.16,-1.19,1.18,1.15,0.64,0.03,0.03,0.03
53.56,-1.07,-1.09,-1.07,-1.09,1.09,1.06,0.55,0.02,0.02,0.02
54.10,-0.99,-0.99,-0.98,-0.99,0.99,0.97,0.46,0.01,0.01,0.00
54.64,-0.90,-0.89,-0.90,-0.89,0.90,0.88,0.38,0.00,-0.00,-0.01
55.18,-0.82,-0.80,-0.82,-0.80,0.80,0.79,0.29,-0.01,-0.01,-0.02
55.74,-0.75,-0.71,-0.74,-0.71,0.71,0.70,0.21,-0.04,-0.03,-0.04
56.29,-0.67,-0.63,-0.67,-0.62,0.62,0.61,0.13,-0.05,-0.05,-0.04
56.86,-0.60,-0.54,-0.59,-0.53,0.53,0.51,0.05,-0.07,-0.06,-0.06
57.42,-0.51,-0.43,-0.51,-0.44,0.44,0.42,-0.02,-0.08,-0.08,-0.08
58.00,-0.44,-0.34,-0.44,-0.34,0.35,0.33,-0.10,-0.09,-0.09,-0.10
58.58,-0.37,-0.26,-0.36,-0.26,0.26,0.24,-0.17,-0.10,-0.10,-0.11
59.16,-0.29,-0.17,-0.29,-0.17,0.17,0.15,-0.24,-0.12,-0.12,-0.12
59.76,-0.23,-0.09,-0.22,-0.09,0.08,0.06,-0.30,-0.14,-0.14,-0.13
60.35,-0.16,0.00,-0.16,0.00,-0.01,-0.03,-0.37,-0.16,-0.17,-0.16
60.96,-0.09,0.10,-0.09,0.10,-0.10,-0.13,-0.43,-0.19,-0.19,-0.18
61.57,-0.03,0.19,-0.02,0.19,-0.19,-0.22,-0.50,-0.22,-0.21,-0.22
62.18,0.04,0.29,0.04,0.28,-0.28,-0.31,-0.56,-0.24,-0.24,-0.24
62.80,0.10,0.37,0.10,0.38,-0.37,-0.40,-0.61,-0.27,-0.27,-0.27
63.43,0.16,0.46,0.17,0.46,-0.46,-0.49,-0.67,-0.30,-0.29,-0.30
64.07,0.23,0.56,0.23,0.55,-0.55,-0.58,-0.73,-0.32,-0.32,-0.32
64.71,0.29,0.63,0.30,0.64,-0.64,-0.67,-0.78,-0.35,-0.34,-0.34
65.35,0.36,0.73,0.36,0.73,-0.73,-0.76,-0.83,-0.36,-0.37,-0.37
66.01,0.42,0.81,0.42,0.81,-0.82,-0.85,-0.88,-0.39,-0.39,-0.39
66.67,0.48,0.90,0.49,0.90,-0.91,-0.94,-0.93,-0.42,-0.42,-0.42
67.33,0.54,0.99,0.55,0.99,-0.99,-1.03,-0.97,-0.45,-0.45,-0.45
68.01,0.61,1.08,0.61,1.08,-1.08,-1.12,-1.02,-0.47,-0.47,-0.47
68.69,0.68,1.18,0.68,1.18,-1.17,-1.21,-1.07,-0.49,-0.49,-0.50
69.37,0.74,1.26,0.75,1.27,-1.26,-1.30,-1.11,-0.52,-0.51,-0.52
70.07,0.81,1.35,0.81,1.35,-1.35,-1.39,-1.15,-0.54,-0.54,-0.54
70.77,0.87,1.44,0.88,1.44,-1.44,-1.48,-1.20,-0.56,-0.56,-0.56
71.48,0.93,1.52,0.94,1.52,-1.53,-1.57,-1.24,-0.59,-0.59,-0.59
72.19,1.00,1.61,1.00,1.61,-1.61,-1.65,-1.28,-0.61,-0.62,-0.61
72.91,1.05,1.69,1.06,1.69,-1.70,-1.73,-1.33,-0.64,-0.64,-0.63
73.64,1.12,1.78,1.13,1.78,-1.78,-1.81,-1.37,-0.66,-0.65,-0.66
74.38,1.19,1.87,1.19,1.87,-1.86,-1.89,-1.41,-0.67,-0.67,-0.67
75.12,1.26,1.95,1.26,1.95,-1.94,-1.97,-1.46,-0.67,-0.68,-0.69
75.87,1.31,2.01,1.32,2.02,-2.01,-2.04,-1.50,-0.70,-0.69,-0.70
76.63,1.37,2.09,1.38,2.09,-2.09,-2.10,-1.55,-0.71,-0.71,-0.71
77.40,1.43,2.16,1.43,2.15,-2.16,-2.16,-1.59,-0.72,-0.72,-0.72
78.17,1.48,2.22,1.49,2.22,-2.22,-2.22,-1.64,-0.74,-0.73,-0.74
78.95,1.54,2.28,1.54,2.28,-2.29,-2.28,-1.69,-0.74,-0.74,-0.74
79.74,1.59,2.34,1.60,2.35,-2.35,-2.33,-1.74,-0.76,-0.75,-0.75
80.54,1.65,2.41,1.65,2.41,-2.41,-2.39,-1.79,-0.76,-0.76,-0.76
81.35,1.70,2.47,1.71,2.47,-2.48,-2.43,-1.84,-0.77,-0.77,-0.77
82.16,1.76,2.54,1.76,2.54,-2.53,-2.48,-1.89,-0.77,-0.77,-0.78
82.98,1.80,2.59,1.81,2.60,-2.59,-2.53,-1.94,-0.78,-0.78,-0.78
83.81,1.85,2.66,1.85,2.65,-2.64,-2.58,-2.00,-0.79,-0.79,-0.80
84.65,1.89,2.70,1.89,2.70,-2.69,-2.62,-2.06,-0.80,-0.80,-0.81
85.50,1.92,2.73,1.93,2.74,-2.74,-2.67,-2.12,-0.82,-0.82,-0.81
86.35,1.96,2.79,1.96,2.79,-2.79,-2.72,-2.18,-0.83,-0.83,-0.82
87.22,2.00,2.83,2.00,2.83,-2.84,-2.77,-2.24,-0.83,-0.83,-0.83
88.09,2.04,2.89,2.05,2.88,-2.89,-2.81,-2.31,-0.84,-0.84,-0.84
88.97,2.09,2.93,2.09,2.93,-2.93,-2.86,-2.37,-0.84,-0.85,-0.84
89.86,2.12,2.98,2.13,2.98,-2.98,-2.91,-2.44,-0.86,-0.86,-0.85
90.76,2.16,3.03,2.17,3.03,-3.03,-2.96,-2.51,-0.87,-0.87,-0.87
91.66,2.20,3.07,2.21,3.08,-3.08,-3.01,-2.59,-0.88,-0.87,-0.87
92.58,2.25,3.14,2.25,3.13,-3.13,-3.05,-2.66,-0.87,-0.88,-0.88
93.51,2.29,3.18,2.30,3.18,-3.18,-3.10,-2.73,-0.88,-0.88,-0.88
94.44,2.33,3.22,2.33,3.22,-3.22,-3.15,-2.81,-0.89,-0.89,-0.89
95.39,2.36,3.26,2.36,3.26,-3.26,-3.20,-2.89,-0.90,-0.90,-0.90
96.34,2.38,3.31,2.39,3.31,-3.31,-3.25,-2.97,-0.92,-0.92,-0.92
97.30,2.41,3.35,2.41,3.34,-3.34,-3.30,-3.06,-0.93,-0.93,-0.93
98.28,2.43,3.38,2.43,3.38,-3.38,-3.35,-3.14,-0.95,-0.95,-0.94
99.26,2.45,3.42,2.46,3.41,-3.42,-3.40,-3.22,-0.96,-0.96,-0.96
100.25,2.47,3.44,2.47,3.44,-3.45,-3.45,-3.31,-0.97,-0.97,-0.97
101.25,2.48,3.47,2.49,3.48,-3.47,-3.50,-3.40,-0.99,-0.99,-0.99
102.27,2.49,3.50,2.49,3.50,-3.50,-3.55,-3.48,-1.00,-1.00,-1.01
103.29,2.49,3.53,2.50,3.53,-3.52,-3.60,-3.57,-1.02,-1.02,-1.04
104.32,2.49,3.54,2.49,3.54,-3.54,-3.65,-3.66,-1.04,-1.05,-1.05
105.37,2.48,3.56,2.48,3.56,-3.56,-3.70,-3.75,-1.08,-1.08,-1.08
106.42,2.47,3.57,2.47,3.57,-3.58,-3.75,-3.84,-1.11,-1.11,-1.10
107.48,2.46,3.59,2.47,3.60,-3.60,-3.80,-3.92,-1.14,-1.14,-1.13
108.56,2.46,3.63,2.46,3.62,-3.63,-3.84,-4.01,-1.17,-1.17,-1.16
109.64,2.46,3.66,2.46,3.66,-3.66,-3.89,-4.09,-1.20,-1.20,-1.19
110.74,2.46,3.70,2.46,3.70,-3.69,-3.94,-4.18,-1.23,-1.23,-1.23
111.85,2.46,3.73,2.46,3.73,-3.73,-3.99,-4.26,-1.27,-1.27,-1.26
112.97,2.46,3.78,2.46,3.77,-3.77,-4.03,-4.34,-1.31,-1.31,-1.31
114.10,2.46,3.81,2.46,3.81,-3.81,-4.08,-4.41,-1.35,-1.35,-1.35
115.24,2.46,3.85,2.46,3.86,-3.86,-4.13,-4.48,-1.39,-1.39,-1.39
116.39,2.46,3.90,2.46,3.90,-3.90,-4.17,-4.55,-1.43,-1.43,-1.44
117.55,2.46,3.94,2.46,3.94,-3.94,-4.22,-4.61,-1.47,-1.47,-1.47
118.73,2.46,3.98,2.46,3.98,-3.98,-4.26,-4.67,-1.51,-1.51,-1.52
119.92,2.46,4.02,2.46,4.02,-4.02,-4.31,-4.72,-1.55,-1.55,-1.56
121.12,2.46,4.06,2.46,4.06,-4.05,-4.35,-4.77,-1.59,-1.59,-1.59
122.33,2.46,4.09,2.46,4.09,-4.09,-4.39,-4.82,-1.63,-1.63,-1.63
123.55,2.46,4.12,2.46,4.12,-4.13,-4.44,-4.85,-1.66,-1.66,-1.66
124.79,2.46,4.16,2.46,4.16,-4.16,-4.48,-4.89,-1.70,-1.70,-1.69
126.03,2.46,4.19,2.46,4.19,-4.20,-4.52,-4.91,-1.73,-1.73,-1.73
127.29,2.46,4.23,2.46,4.23,-4.23,-4.56,-4.93,-1.76,-1.76,-1.76
128.57,2.46,4.27,2.46,4.26,-4.26,-4.60,-4.95,-1.80,-1.80,-1.81
129.85,2.46,4.29,2.46,4.30,-4.29,-4.64,-4.96,-1.83,-1.83,-1.83
131.15,2.46,4.33,2.46,4.32,-4.32,-4.68,-4.97,-1.86,-1.86,-1.86
132.46,2.46,4.35,2.46,4.35,-4.35,-4.72,-4.97,-1.88,-1.88,-1.88
133.79,2.46,4.37,2.46,4.38,-4.38,-4.76,-4.96,-1.91,-1.91,-1.91
135.12,2.46,4.40,2.46,4.40,-4.40,-4.79,-4.96,-1.94,-1.94,-1.94
136.48,2.46,4.42,2.46,4.42,-4.43,-4.83,-4.95,-1.96,-1.96,-1.96
137.84,2.46,4.44,2.46,4.45,-4.45,-4.87,-4.93,-1.98,-1.98,-1.98
139.22,2.46,4.48,2.46,4.48,-4.47,-4.90,-4.91,-2.01,-2.01,-2.02
140.61,2.46,4.50,2.46,4.50,-4.50,-4.94,-4.90,-2.03,-2.03,-2.04
142.02,2.46,4.51,2.46,4.52,-4.52,-4.97,-4.87,-2.05,-2.05,-2.05
143.44,2.46,4.54,2.46,4.54,-4.54,-5.00,-4.85,-2.08,-2.08,-2.07
144.87,2.46,4.57,2.46,4.56,-4.57,-5.04,-4.83,-2.10,-2.10,-2.10
146.32,2.46,4.59,2.46,4.59,-4.59,-5.07,-4.81,-2.13,-2.13,-2.13
147.78,2.46,4.61,2.46,4.61,-4.61,-5.10,-4.78,-2.15,-2.15,-2.14
149.26,2.46,4.63,2.46,4.64,-4.64,-5.13,-4.76,-2.18,-2.18,-2.17
150.75,2.46,4.67,2.46,4.67,-4.67,-5.16,-4.74,-2.20,-2.20,-2.21
152.26,2.46,4.70,2.46,4.70,-4.70,-5.19,-4.71,-2.23,-2.23,-2.24
153.78,2.46,4.73,2.46,4.73,-4.73,-5.21,-4.70,-2.26,-2.26,-2.26
155.32,2.46,4.76,2.46,4.76,-4.76,-5.24,-4.68,-2.29,-2.29,-2.30
156.88,2.46,4.78,2.46,4.79,-4.79,-5.27,-4.66,-2.33,-2.33,-2.32
158.44,2.46,4.82,2.46,4.82,-4.82,-5.29,-4.65,-2.36,-2.36,-2.35
160.03,2.46,4.86,2.46,4.85,-4.85,-5.32,-4.64,-2.39,-2.39,-2.39
161.63,2.46,4.89,2.46,4.89,-4.89,-5.34,-4.63,-2.42,-2.42,-2.42
163.24,2.46,4.93,2.46,4.92,-4.92,-5.36,-4.62,-2.45,-2.45,-2.46
164.88,2.46,4.95,2.46,4.95,-4.95,-5.39,-4.62,-2.49,-2.49,-2.48
166.53,2.46,4.99,2.46,4.98,-4.99,-5.41,-4.62,-2.52,-2.52,-2.52
168.19,2.46,5.02,2.46,5.02,-5.02,-5.43,-4.62,-2.56,-2.56,-2.55
169.87,2.46,5.05,2.46,5.06,-5.06,-5.45,-4.63,-2.59,-2.59,-2.59
171.57,2.46,5.09,2.46,5.09,-5.10,-5.47,-4.64,-2.63,-2.63,-2.63
173.29,2.46,5.14,2.46,5.13,-5.14,-5.49,-4.65,-2.67,-2.67,-2.67
175.02,2.46,5.18,2.46,5.18,-5.18,-5.50,-4.67,-2.71,-2.71,-2.71
176.77,2.46,5.22,2.46,5.23,-5.22,-5.52,-4.69,-2.76,-2.76,-2.76
178.54,2.46,5.28,2.46,5.27,-5.27,-5.53,-4.72,-2.81,-2.81,-2.81
180.32,2.46,5.32,2.46,5.32,-5.32,-5.55,-4.75,-2.86,-2.86,-2.86
182.13,2.46,5.37,2.46,5.37,-5.37,-5.56,-4.78,-2.91,-2.91,-2.90
183.95,2.46,5.42,2.47,5.42,-5.42,-5.58,-4.82,-2.96,-2.96,-2.96
185.79,2.47,5.47,2.47,5.47,-5.48,-5.59,-4.85,-3.00,-3.00,-3.00
187.65,2.47,5.53,2.48,5.53,-5.53,-5.60,-4.90,-3.05,-3.05,-3.05
189.52,2.48,5.58,2.48,5.58,-5.58,-5.61,-4.94,-3.09,-3.10,-3.10
191.42,2.48,5.62,2.48,5.62,-5.63,-5.62,-4.99,-3.14,-3.14,-3.14
193.33,2.48,5.67,2.49,5.67,-5.67,-5.63,-5.04,-3.19,-3.18,-3.18
195.27,2.48,5.71,2.48,5.71,-5.71,-5.63,-5.10,-3.22,-3.23,-3.22
197.22,2.47,5.75,2.47,5.75,-5.74,-5.64,-5.16,-3.27,-3.27,-3.27
199.19,2.45,5.78,2.46,5.78,-5.77,-5.65,-5.22,-3.31,-3.31,-3.33
201.18,2.43,5.80,2.43,5.80,-5.79,-5.65,-5.28,-3.35,-3.35,-3.37
203.19,2.40,5.80,2.40,5.80,-5.80,-5.65,-5.35,-3.40,-3.40,-3.40
205.23,2.37,5.81,2.37,5.80,-5.81,-5.66,-5.41,-3.44,-3.44,-3.44
207.28,2.33,5.80,2.34,5.81,-5.82,-5.66,-5.48,-3.48,-3.48,-3.47
209.35,2.30,5.82,2.30,5.82,-5.82,-5.66,-5.55,-3.52,-3.52,-3.51
211.44,2.27,5.84,2.27,5.82,-5.83,-5.66,-5.62,-3.55,-3.56,-3.56
213.56,2.23,5.83,2.24,5.83,-5.84,-5.66,-5.69,-3.60,-3.60,-3.59
215.69,2.20,5.82,2.21,5.83,-5.84,-5.66,-5.75,-3.64,-3.64,-3.62
217.85,2.18,5.84,2.19,5.85,-5.85,-5.66,-5.82,-3.67,-3.67,-3.66
220.03,2.17,5.87,2.17,5.87,-5.86,-5.66,-5.89,-3.69,-3.69,-3.70
222.23,2.16,5.89,2.16,5.88,-5.87,-5.65,-5.95,-3.71,-3.71,-3.72
224.45,2.14,5.89,2.14,5.89,-5.88,-5.65,-6.01,-3.74,-3.74,-3.74
226.70,2.12,5.88,2.13,5.89,-5.88,-5.64,-6.07,-3.76,-3.76,-3.76
228.96,2.10,5.89,2.11,5.88,-5.88,-5.63,-6.12,-3.78,-3.78,-3.78
231.25,2.08,5.88,2.08,5.88,-5.88,-5.63,-6.17,-3.79,-3.79,-3.79
233.57,2.06,5.87,2.06,5.87,-5.87,-5.62,-6.22,-3.80,-3.80,-3.81
235.90,2.03,5.85,2.03,5.85,-5.85,-5.61,-6.25,-3.81,-3.81,-3.81
238.26,2.00,5.83,2.01,5.83,-5.82,-5.60,-6.29,-3.82,-3.82,-3.83
240.64,1.97,5.80,1.97,5.80,-5.79,-5.59,-6.31,-3.82,-3.82,-3.82
243.05,1.94,5.76,1.94,5.76,-5.76,-5.58,-6.33,-3.82,-3.82,-3.82
245.48,1.90,5.73,1.90,5.73,-5.73,-5.57,-6.34,-3.82,-3.82,-3.82
247.93,1.86,5.68,1.87,5.69,-5.69,-5.56,-6.34,-3.83,-3.82,-3.82
250.41,1.84,5.67,1.84,5.66,-5.66,-5.54,-6.34,-3.82,-3.82,-3.82
252.92,1.82,5.62,1.82,5.62,-5.63,-5.53,-6.33,-3.81,-3.81,-3.80
255.45,1.80,5.59,1.81,5.60,-5.61,-5.51,-6.30,-3.80,-3.80,-3.78
258.00,1.79,5.57,1.80,5.57,-5.59,-5.50,-6.28,-3.79,-3.79,-3.78
260.58,1.79,5.57,1.80,5.57,-5.57,-5.48,-6.24,-3.78,-3.77,-3.77
263.19,1.80,5.56,1.80,5.56,-5.56,-5.46,-6.20,-3.75,-3.75,-3.76
265.82,1.81,5.56,1.81,5.56,-5.55,-5.45,-6.15,-3.73,-3.73,-3.75
268.48,1.82,5.55,1.82,5.55,-5.54,-5.43,-6.10,-3.71,-3.72,-3.72
271.16,1.82,5.53,1.82,5.54,-5.53,-5.41,-6.03,-3.71,-3.71,-3.71
273.87,1.82,5.52,1.83,5.52,-5.52,-5.39,-5.97,-3.70,-3.70,-3.70
276.61,1.82,5.51,1.82,5.51,-5.51,-5.37,-5.90,-3.69,-3.69,-3.68
279.38,1.82,5.50,1.82,5.50,-5.50,-5.35,-5.82,-3.67,-3.67,-3.68
282.17,1.82,5.48,1.82,5.48,-5.49,-5.33,-5.75,-3.66,-3.66,-3.66
284.99,1.82,5.47,1.82,5.47,-5.48,-5.30,-5.66,-3.65,-3.65,-3.64
287.84,1.82,5.46,1.83,5.46,-5.47,-5.28,-5.58,-3.64,-3.64,-3.63
290.72,1.83,5.45,1.83,5.45,-5.46,-5.26,-5.50,-3.62,-3.62,-3.62
293.63,1.83,5.44,1.83,5.44,-5.44,-5.23,-5.41,-3.61,-3.61,-3.61
296.57,1.83,5.43,1.84,5.43,-5.43,-5.21,-5.33,-3.59,-3.59,-3.59
299.53,1.83,5.42,1.83,5.42,-5.41,-5.19,-5.24,-3.58,-3.58,-3.59
302.53,1.82,5.40,1.82,5.40,-5.39,-5.16,-5.15,-3.56,-3.57,-3.58
305.55,1.80,5.36,1.81,5.37,-5.36,-5.13,-5.07,-3.56,-3.56,-3.56
308.61,1.78,5.34,1.78,5.33,-5.33,-5.11,-4.98,-3.54,-3.54,-3.55
311.69,1.75,5.29,1.76,5.29,-5.29,-5.08,-4.90,-3.54,-3.53,-3.53
314.81,1.73,5.25,1.73,5.25,-5.25,-5.05,-4.82,-3.52,-3.52,-3.52
317.96,1.70,5.21,1.70,5.21,-5.21,-5.03,-4.74,-3.51,-3.51,-3.51
321.14,1.66,5.16,1.67,5.17,-5.17,-5.00,-4.66,-3.51,-3.50,-3.50
324.35,1.63,5.13,1.63,5.13,-5.13,-4.97,-4.58,-3.50,-3.50,-3.49
327.59,1.60,5.09,1.61,5.09,-5.09,-4.94,-4.51,-3.49,-3.49,-3.48
330.87,1.58,5.06,1.58,5.06,-5.06,-4.91,-4.44,-3.48,-3.48,-3.47
334.18,1.56,5.03,1.56,5.03,-5.03,-4.88,-4.37,-3.46,-3.47,-3.47
337.52,1.53,5.00,1.54,5.00,-4.99,-4.85,-4.31,-3.46,-3.46,-3.47
340.90,1.51,4.96,1.51,4.97,-4.96,-4.82,-4.25,-3.45,-3.45,-3.45
344.30,1.48,4.93,1.49,4.93,-4.94,-4.79,-4.19,-3.45,-3.45,-3.45
347.75,1.46,4.91,1.46,4.91,-4.91,-4.76,-4.13,-3.44,-3.45,-3.44
351.23,1.43,4.88,1.44,4.88,-4.88,-4.73,-4.08,-3.45,-3.45,-3.44
354.74,1.41,4.86,1.41,4.85,-4.86,-4.69,-4.03,-3.44,-3.44,-3.44
358.28,1.38,4.82,1.39,4.82,-4.83,-4.66,-3.98,-3.45,-3.44,-3.44
361.87,1.36,4.80,1.36,4.80,-4.80,-4.63,-3.94,-3.44,-3.44,-3.44
365.49,1.33,4.77,1.34,4.78,-4.77,-4.60,-3.90,-3.44,-3.43,-3.44
369.14,1.31,4.76,1.31,4.75,-4.74,-4.57,-3.86,-3.43,-3.43,-3.45
372.83,1.27,4.72,1.27,4.72,-4.71,-4.53,-3.83,-3.43,-3.43,-3.45
376.56,1.22,4.67,1.23,4.68,-4.67,-4.50,-3.79,-3.45,-3.44,-3.45
380.33,1.18,4.63,1.18,4.63,-4.64,-4.47,-3.77,-3.46,-3.46,-3.44
384.13,1.13,4.59,1.14,4.59,-4.61,-4.43,-3.74,-3.47,-3.47,-3.45
387.97,1.10,4.56,1.10,4.56,-4.57,-4.40,-3.72,-3.47,-3.47,-3.45
391.85,1.07,4.54,1.07,4.53,-4.54,-4.37,-3.70,-3.46,-3.46,-3.46
395.77,1.04,4.50,1.04,4.51,-4.50,-4.33,-3.68,-3.46,-3.46,-3.45
399.73,1.01,4.48,1.01,4.48,-4.46,-4.30,-3.66,-3.45,-3.45,-3.47
403.72,0.97,4.44,0.97,4.44,-4.43,-4.26,-3.65,-3.45,-3.45,-3.47
407.76,0.93,4.40,0.93,4.39,-4.39,-4.23,-3.63,-3.45,-3.46,-3.47
411.84,0.87,4.33,0.88,4.34,-4.34,-4.20,-3.62,-3.47,-3.46,-3.46
415.96,0.83,4.29,0.83,4.29,-4.30,-4.16,-3.62,-3.46,-3.47,-3.46
420.12,0.78,4.24,0.78,4.24,-4.25,-4.13,-3.61,-3.47,-3.47,-3.46
424.32,0.73,4.19,0.74,4.20,-4.20,-4.09,-3.60,-3.47,-3.46,-3.46
428.56,0.68,4.15,0.68,4.15,-4.15,-4.06,-3.60,-3.46,-3.46,-3.47
432.85,0.63,4.10,0.63,4.10,-4.10,-4.03,-3.60,-3.46,-3.46,-3.47
437.18,0.58,4.06,0.59,4.05,-4.05,-3.99,-3.59,-3.46,-3.46,-3.47
441.55,0.53,4.00,0.53,4.00,-4.00,-3.96,-3.59,-3.46,-3.46,-3.46
445.96,0.48,3.95,0.48,3.95,-3.95,-3.92,-3.59,-3.46,-3.47,-3.46
450.42,0.42,3.90,0.43,3.89,-3.90,-3.89,-3.59,-3.48,-3.47,-3.47
454.93,0.38,3.85,0.38,3.85,-3.86,-3.86,-3.59,-3.47,-3.47,-3.46
459.48,0.34,3.81,0.35,3.81,-3.82,-3.82,-3.59,-3.47,-3.47,-3.46
464.07,0.31,3.78,0.31,3.77,-3.78,-3.79,-3.58,-3.46,-3.46,-3.46
468.71,0.28,3.74,0.28,3.74,-3.74,-3.76,-3.58,-3.46,-3.46,-3.45
