frequency,raw,error,smoothed,error_smoothed,equalization,parametric_eq,fixed_band_eq,equalized_raw,equalized_smoothed,target
20.00,-3.85,-8.66,-3.85,-8.66,6.00,6.26,2.71,2.15,2.15,4.81
20.20,-3.77,-8.59,-3.77,-8.59,6.00,6.25,2.79,2.23,2.23,4.82
20.40,-3.69,-8.52,-3.69,-8.51,6.00,6.24,2.87,2.31,2.31,4.83
20.61,-3.61,-8.44,-3.61,-8.44,6.00,6.23,2.95,2.39,2.39,4.83
20.81,-3.52,-8.36,-3.52,-8.36,6.00,6.22,3.04,2.48,2.48,4.84
21.02,-3.44,-8.28,-3.45,-8.29,6.00,6.21,3.12,2.56,2.55,4.84
21.23,-3.38,-8.23,-3.38,-8.22,6.00,6.20,3.21,2.62,2.62,4.85
21.44,-3.32,-8.17,-3.32,-8.17,6.00,6.19,3.31,2.68,2.68,4.85
21.66,-3.26,-8.11,-3.26,-8.11,6.00,6.19,3.40,2.74,2.74,4.85
21.87,-3.20,-8.05,-3.20,-8.05,6.00,6.18,3.50,2.80,2.80,4.85
22.09,-3.13,-7.99,-3.13,-7.99,6.00,6.17,3.60,2.87,2.87,4.85
22.31,-3.07,-7.93,-3.07,-7.92,6.00,6.15,3.70,2.93,2.93,4.85
22.54,-3.01,-7.86,-3.01,-7.86,6.00,6.14,3.80,2.99,2.99,4.84
22.76,-2.95,-7.78,-2.95,-7.79,6.00,6.13,3.91,3.05,3.05,4.83
22.99,-2.88,-7.71,-2.88,-7.72,6.00,6.12,4.02,3.12,3.12,4.83
23.22,-2.82,-7.65,-2.82,-7.65,6.00,6.11,4.14,3.18,3.18,4.83
23.45,-2.76,-7.58,-2.76,-7.59,6.00,6.10,4.25,3.24,3.24,4.82
23.69,-2.70,-7.52,-2.70,-7.53,6.00,6.09,4.37,3.30,3.30,4.82
23.92,-2.64,-7.46,-2.64,-7.46,6.00,6.08,4.49,3.36,3.36,4.82
24.16,-2.57,-7.39,-2.57,-7.39,6.00,6.06,4.62,3.43,3.43,4.82
24.40,-2.49,-7.31,-2.49,-7.31,6.00,6.05,4.74,3.51,3.51,4.82
24.65,-2.42,-7.24,-2.42,-7.24,6.00,6.04,4.87,3.58,3.58,4.82
24.89,-2.34,-7.16,-2.35,-7.17,6.00,6.03,5.00,3.66,3.65,4.82
25.14,-2.29,-7.11,-2.29,-7.11,6.00,6.01,5.13,3.71,3.71,4.82
25.39,-2.25,-7.06,-2.25,-7.06,6.00,6.00,5.26,3.75,3.75,4.81
25.65,-2.21,-7.02,-2.21,-7.02,6.00,5.99,5.39,3.79,3.79,4.81
25.91,-2.16,-6.97,-2.16,-6.97,6.00,5.97,5.52,3.84,3.84,4.81
26.16,-2.11,-6.92,-2.11,-6.92,6.00,5.96,5.66,3.89,3.89,4.81
26.43,-2.06,-6.87,-2.06,-6.87,6.00,5.94,5.79,3.94,3.94,4.81
26.69,-2.00,-6.81,-2.01,-6.81,6.00,5.93,5.92,4.00,3.99,4.80
26.96,-1.95,-6.76,-1.95,-6.75,6.00,5.91,6.05,4.05,4.05,4.80
27.23,-1.88,-6.69,-1.88,-6.68,6.00,5.90,6.17,4.12,4.12,4.80
27.50,-1.81,-6.61,-1.81,-6.62,6.00,5.88,6.30,4.19,4.19,4.80
27.77,-1.75,-6.55,-1.75,-6.55,6.00,5.87,6.41,4.25,4.25,4.80
28.05,-1.68,-6.48,-1.69,-6.49,6.00,5.85,6.53,4.32,4.31,4.80
28.33,-1.64,-6.44,-1.64,-6.44,6.00,5.83,6.64,4.36,4.36,4.80
28.62,-1.60,-6.40,-1.60,-6.40,6.00,5.82,6.74,4.40,4.40,4.80
28.90,-1.55,-6.36,-1.55,-6.36,6.00,5.80,6.84,4.45,4.45,4.81
29.19,-1.50,-6.31,-1.50,-6.31,6.00,5.78,6.93,4.50,4.51,4.81
29.48,-1.44,-6.25,-1.44,-6.25,6.00,5.76,7.00,4.56,4.56,4.80
29.78,-1.38,-6.20,-1.38,-6.19,6.00,5.74,7.07,4.62,4.62,4.81
30.08,-1.32,-6.13,-1.32,-6.13,6.00,5.72,7.13,4.68,4.68,4.81
30.38,-1.26,-6.07,-1.26,-6.07,6.00,5.71,7.18,4.73,4.74,4.81
30.68,-1.20,-6.01,-1.20,-6.01,5.99,5.69,7.21,4.79,4.79,4.81
30.99,-1.14,-5.95,-1.16,-5.96,5.97,5.67,7.24,4.83,4.82,4.81
31.30,-1.13,-5.94,-1.13,-5.94,5.95,5.65,7.25,4.82,4.82,4.81
31.61,-1.12,-5.93,-1.12,-5.92,5.92,5.62,7.25,4.80,4.80,4.81
31.93,-1.11,-5.92,-1.10,-5.90,5.89,5.60,7.24,4.77,4.78,4.80
32.24,-1.06,-5.85,-1.06,-5.86,5.84,5.58,7.22,4.78,4.78,4.79
32.57,-1.00,-5.79,-1.00,-5.79,5.79,5.56,7.18,4.78,4.78,4.79
32.89,-0.93,-5.72,-0.94,-5.72,5.72,5.54,7.14,4.79,4.79,4.79
33.22,-0.87,-5.65,-0.88,-5.66,5.66,5.51,7.09,4.79,4.78,4.78
33.55,-0.82,-5.60,-0.82,-5.59,5.59,5.49,7.03,4.77,4.77,4.78
33.89,-0.76,-5.53,-0.76,-5.52,5.52,5.47,6.95,4.76,4.76,4.76
34.23,-0.69,-5.45,-0.69,-5.45,5.46,5.44,6.87,4.77,4.77,4.76
34.57,-0.62,-5.38,-0.62,-5.38,5.41,5.42,6.79,4.78,4.79,4.76
34.92,-0.55,-5.31,-0.57,-5.32,5.36,5.39,6.70,4.80,4.79,4.76
35.27,-0.53,-5.29,-0.54,-5.30,5.31,5.37,6.60,4.78,4.77,4.76
35.62,-0.53,-5.29,-0.53,-5.28,5.26,5.34,6.50,4.73,4.73,4.75
35.97,-0.53,-5.28,-0.51,-5.26,5.22,5.31,6.39,4.69,4.72,4.75
36.33,-0.46,-5.21,-0.46,-5.21,5.19,5.29,6.29,4.73,4.73,4.75
36.70,-0.39,-5.14,-0.40,-5.14,5.15,5.26,6.18,4.76,4.76,4.75
37.06,-0.33,-5.08,-0.34,-5.09,5.12,5.23,6.07,4.79,4.77,4.74
37.43,-0.31,-5.05,-0.31,-5.06,5.07,5.20,5.95,4.76,4.76,4.74
37.81,-0.30,-5.05,-0.29,-5.03,5.03,5.17,5.84,4.73,4.74,4.75
38.19,-0.26,-5.01,-0.26,-5.00,4.98,5.14,5.73,4.72,4.72,4.75
38.57,-0.20,-4.94,-0.20,-4.95,4.93,5.11,5.62,4.73,4.73,4.74
38.95,-0.14,-4.89,-0.14,-4.89,4.89,5.08,5.51,4.74,4.74,4.75
39.34,-0.08,-4.83,-0.08,-4.83,4.84,5.05,5.41,4.76,4.76,4.75
39.74,-0.03,-4.77,-0.03,-4.78,4.79,5.02,5.30,4.76,4.76,4.74
40.14,0.01,-4.73,0.01,-4.73,4.74,4.99,5.20,4.75,4.75,4.74
40.54,0.04,-4.70,0.04,-4.70,4.70,4.95,5.10,4.73,4.73,4.74
40.94,0.07,-4.66,0.07,-4.66,4.65,4.92,5.00,4.72,4.72,4.73
41.35,0.11,-4.62,0.11,-4.62,4.60,4.88,4.91,4.71,4.71,4.73
41.76,0.15,-4.56,0.15,-4.57,4.56,4.85,4.81,4.71,4.71,4.71
42.18,0.19,-4.52,0.19,-4.52,4.53,4.81,4.73,4.72,4.72,4.71
42.60,0.23,-4.48,0.23,-4.48,4.49,4.78,4.64,4.72,4.72,4.71
43.03,0.27,-4.43,0.26,-4.44,4.45,4.74,4.56,4.72,4.71,4.70
43.46,0.28,-4.42,0.28,-4.41,4.42,4.70,4.48,4.69,4.70,4.70
43.90,0.30,-4.38,0.30,-4.39,4.38,4.67,4.40,4.68,4.68,4.68
44.33,0.32,-4.36,0.32,-4.36,4.34,4.63,4.33,4.66,4.66,4.68
44.78,0.35,-4.32,0.35,-4.32,4.30,4.59,4.26,4.65,4.66,4.67
45.23,0.39,-4.28,0.39,-4.28,4.27,4.55,4.20,4.66,4.66,4.67
45.68,0.44,-4.22,0.44,-4.23,4.24,4.51,4.13,4.68,4.67,4.66
46.13,0.48,-4.19,0.48,-4.19,4.21,4.47,4.07,4.68,4.68,4.66
46.60,0.51,-4.15,0.51,-4.15,4.17,4.43,4.02,4.68,4.68,4.66
47.06,0.53,-4.13,0.53,-4.14,4.14,4.39,3.97,4.66,4.66,4.66
47.53,0.55,-4.12,0.55,-4.12,4.10,4.35,3.92,4.65,4.65,4.67
48.01,0.57,-4.10,0.58,-4.09,4.07,4.30,3.87,4.64,4.64,4.67
48.49,0.62,-4.05,0.62,-4.05,4.04,4.26,3.82,4.66,4.65,4.67
48.97,0.67,-4.01,0.67,-4.01,4.01,4.22,3.78,4.68,4.68,4.68
49.46,0.72,-3.96,0.72,-3.96,3.99,4.17,3.74,4.71,4.71,4.68
49.96,0.77,-3.92,0.75,-3.93,3.96,4.13,3.71,4.73,4.72,4.69
50.46,0.77,-3.92,0.77,-3.93,3.94,4.08,3.67,4.71,4.71,4.69
50.96,0.77,-3.94,0.78,-3.92,3.91,4.03,3.64,4.68,4.69,4.70
51.47,0.79,-3.92,0.79,-3.91,3.89,3.99,3.61,4.67,4.68,4.71
51.99,0.82,-3.89,0.82,-3.89,3.86,3.94,3.58,4.68,4.68,4.71
52.51,0.86,-3.85,0.85,-3.85,3.84,3.89,3.55,4.70,4.70,4.71
53.03,0.89,-3.82,0.90,-3.81,3.82,3.85,3.53,4.71,4.72,4.71
53.56,0.94,-3.77,0.93,-3.78,3.81,3.80,3.50,4.74,4.74,4.71
54.10,0.97,-3.75,0.96,-3.76,3.79,3.75,3.48,4.76,4.75,4.72
54.64,0.97,-3.75,0.97,-3.75,3.77,3.70,3.45,4.74,4.74,4.72
55.18,0.97,-3.75,0.97,-3.74,3.74,3.65,3.43,4.71,4.72,4.72
55.74,0.97,-3.74,0.96,-3.75,3.72,3.60,3.41,4.68,4.68,4.71
56.29,0.97,-3.74,0.97,-3.74,3.68,3.55,3.38,4.65,4.65,4.71
56.86,0.98,-3.72,1.01,-3.69,3.65,3.50,3.36,4.63,4.66,4.70
57.42,1.07,-3.62,1.07,-3.62,3.62,3.45,3.34,4.69,4.69,4.69
58.00,1.18,-3.50,1.14,-3.54,3.58,3.40,3.31,4.76,4.72,4.68
58.58,1.18,-3.49,1.18,-3.48,3.54,3.35,3.29,4.72,4.73,4.67
59.16,1.18,-3.47,1.19,-3.46,3.50,3.30,3.26,4.68,4.69,4.65
59.76,1.18,-3.46,1.17,-3.46,3.45,3.24,3.23,4.63,4.62,4.64
60.35,1.18,-3.44,1.18,-3.44,3.40,3.19,3.20,4.57,4.57,4.61
60.96,1.18,-3.41,1.20,-3.40,3.34,3.14,3.17,4.52,4.54,4.59
61.57,1.24,-3.33,1.24,-3.32,3.29,3.09,3.14,4.53,4.53,4.56
62.18,1.30,-3.23,1.30,-3.23,3.23,3.04,3.10,4.53,4.53,4.53
62.80,1.36,-3.13,1.35,-3.14,3.17,2.99,3.07,4.53,4.52,4.49
63.43,1.38,-3.07,1.37,-3.07,3.11,2.93,3.03,4.49,4.48,4.45
64.07,1.38,-3.03,1.38,-3.02,3.05,2.88,2.99,4.43,4.43,4.41
64.71,1.38,-2.98,1.38,-2.98,3.00,2.83,2.95,4.37,4.38,4.36
65.35,1.38,-2.94,1.38,-2.94,2.95,2.78,2.90,4.33,4.33,4.32
66.01,1.38,-2.91,1.38,-2.91,2.91,2.73,2.85,4.29,4.29,4.28
66.67,1.38,-2.87,1.38,-2.87,2.86,2.67,2.81,4.24,4.24,4.25
67.33,1.38,-2.84,1.37,-2.84,2.81,2.62,2.76,4.19,4.18,4.22
68.01,1.38,-2.80,1.38,-2.80,2.76,2.57,2.70,4.13,4.13,4.18
68.69,1.40,-2.75,1.42,-2.73,2.70,2.52,2.65,4.09,4.12,4.15
69.37,1.47,-2.64,1.48,-2.63,2.63,2.47,2.60,4.10,4.12,4.11
70.07,1.58,-2.50,1.54,-2.54,2.57,2.42,2.54,4.15,4.11,4.08
70.77,1.58,-2.47,1.58,-2.47,2.52,2.37,2.49,4.09,4.10,4.05
71.48,1.58,-2.45,1.59,-2.43,2.46,2.32,2.43,4.04,4.05,4.03
72.19,1.58,-2.42,1.58,-2.41,2.42,2.27,2.37,3.99,3.99,3.99
72.91,1.58,-2.38,1.58,-2.38,2.38,2.22,2.31,3.95,3.95,3.96
73.64,1.58,-2.35,1.58,-2.35,2.34,2.17,2.25,3.92,3.92,3.93
74.38,1.58,-2.31,1.58,-2.31,2.31,2.12,2.20,3.89,3.89,3.89
75.12,1.58,-2.28,1.57,-2.28,2.27,2.08,2.14,3.85,3.84,3.85
75.87,1.58,-2.23,1.57,-2.24,2.22,2.03,2.08,3.80,3.79,3.81
76.63,1.58,-2.19,1.59,-2.17,2.16,1.98,2.02,3.74,3.75,3.77
77.40,1.62,-2.11,1.62,-2.11,2.09,1.94,1.96,3.71,3.71,3.72
78.17,1.68,-2.01,1.66,-2.03,2.02,1.89,1.91,3.70,3.67,3.69
78.95,1.68,-1.96,1.70,-1.93,1.94,1.85,1.85,3.62,3.65,3.64
79.74,1.75,-1.85,1.74,-1.85,1.87,1.80,1.79,3.62,3.62,3.60
80.54,1.78,-1.77,1.77,-1.79,1.81,1.76,1.74,3.58,3.57,3.55
81.35,1.78,-1.73,1.78,-1.73,1.75,1.71,1.68,3.52,3.53,3.51
82.16,1.78,-1.69,1.78,-1.68,1.69,1.67,1.63,3.47,3.47,3.47
82.98,1.78,-1.65,1.78,-1.65,1.65,1.62,1.58,3.43,3.43,3.43
83.81,1.78,-1.61,1.78,-1.61,1.61,1.58,1.52,3.39,3.39,3.38
84.65,1.78,-1.57,1.78,-1.57,1.57,1.54,1.47,3.35,3.35,3.35
85.50,1.78,-1.53,1.78,-1.53,1.52,1.50,1.42,3.30,3.30,3.31
86.35,1.78,-1.49,1.77,-1.49,1.47,1.46,1.37,3.25,3.25,3.27
87.22,1.78,-1.44,1.78,-1.44,1.42,1.42,1.32,3.20,3.20,3.22
88.09,1.79,-1.39,1.81,-1.38,1.36,1.38,1.27,3.15,3.17,3.18
88.97,1.85,-1.30,1.84,-1.30,1.31,1.34,1.23,3.15,3.14,3.14
89.86,1.88,-1.22,1.87,-1.23,1.25,1.30,1.18,3.13,3.12,3.10
90.76,1.89,-1.17,1.89,-1.17,1.19,1.26,1.14,3.08,3.08,3.05
91.66,1.89,-1.13,1.89,-1.13,1.14,1.22,1.09,3.03,3.03,3.02
92.58,1.89,-1.09,1.89,-1.09,1.09,1.18,1.05,2.98,2.98,2.98
93.51,1.89,-1.05,1.89,-1.05,1.05,1.15,1.00,2.94,2.94,2.94
94.44,1.89,-1.01,1.89,-1.01,1.01,1.11,0.96,2.89,2.89,2.90
95.39,1.89,-0.97,1.88,-0.98,0.96,1.07,0.92,2.85,2.85,2.86
96.34,1.88,-0.95,1.88,-0.94,0.92,1.04,0.88,2.80,2.80,2.83
97.30,1.89,-0.90,1.90,-0.89,0.88,1.00,0.84,2.76,2.77,2.79
98.28,1.92,-0.82,1.92,-0.83,0.83,0.97,0.80,2.75,2.75,2.74
99.26,1.95,-0.75,1.93,-0.77,0.79,0.93,0.76,2.73,2.72,2.70
100.25,1.94,-0.73,1.94,-0.73,0.74,0.90,0.73,2.68,2.68,2.66
101.25,1.92,-0.71,1.93,-0.70,0.71,0.86,0.69,2.62,2.63,2.63
102.27,1.91,-0.67,1.91,-0.67,0.67,0.83,0.66,2.58,2.58,2.58
103.29,1.89,-0.64,1.89,-0.64,0.64,0.79,0.62,2.53,2.53,2.53
104.32,1.87,-0.61,1.87,-0.61,0.61,0.76,0.59,2.48,2.48,2.48
105.37,1.85,-0.59,1.85,-0.59,0.59,0.73,0.55,2.44,2.44,2.44
106.42,1.83,-0.57,1.83,-0.57,0.57,0.70,0.52,2.40,2.39,2.39
107.48,1.80,-0.55,1.80,-0.54,0.54,0.66,0.49,2.34,2.35,2.35
108.56,1.78,-0.52,1.78,-0.52,0.52,0.63,0.46,2.30,2.30,2.30
109.64,1.76,-0.49,1.76,-0.50,0.50,0.60,0.43,2.26,2.25,2.25
110.74,1.74,-0.47,1.74,-0.47,0.47,0.57,0.40,2.21,2.21,2.21
111.85,1.72,-0.46,1.72,-0.45,0.45,0.54,0.37,2.17,2.17,2.17
112.97,1.71,-0.43,1.71,-0.43,0.42,0.51,0.34,2.13,2.13,2.14
114.10,1.70,-0.40,1.70,-0.40,0.40,0.48,0.31,2.09,2.10,2.10
115.24,1.70,-0.37,1.70,-0.37,0.37,0.45,0.29,2.07,2.07,2.07
116.39,1.70,-0.34,1.70,-0.34,0.34,0.42,0.26,2.04,2.04,2.03
117.55,1.71,-0.31,1.70,-0.31,0.31,0.40,0.24,2.02,2.02,2.02
118.73,1.71,-0.28,1.71,-0.28,0.28,0.37,0.21,1.99,1.99,1.99
119.92,1.72,-0.26,1.72,-0.26,0.25,0.34,0.19,1.97,1.97,1.98
121.12,1.73,-0.23,1.72,-0.23,0.23,0.32,0.17,1.96,1.95,1.96
122.33,1.73,-0.22,1.73,-0.21,0.21,0.29,0.15,1.94,1.94,1.94
123.55,1.74,-0.19,1.75,-0.18,0.19,0.26,0.13,1.93,1.94,1.93
124.79,1.75,-0.17,1.75,-0.17,0.18,0.24,0.11,1.93,1.93,1.91
126.03,1.76,-0.14,1.73,-0.17,0.18,0.21,0.09,1.94,1.91,1.90
127.29,1.70,-0.19,1.71,-0.18,0.18,0.19,0.08,1.88,1.89,1.89
128.57,1.67,-0.20,1.69,-0.19,0.18,0.16,0.06,1.85,1.87,1.87
129.85,1.67,-0.19,1.67,-0.19,0.18,0.14,0.05,1.85,1.85,1.86
131.15,1.68,-0.17,1.66,-0.19,0.18,0.12,0.03,1.86,1.84,1.85
132.46,1.64,-0.19,1.64,-0.19,0.19,0.10,0.02,1.83,1.82,1.83
133.79,1.60,-0.22,1.61,-0.20,0.19,0.08,0.00,1.79,1.80,1.81
135.12,1.59,-0.21,1.60,-0.20,0.19,0.05,-0.01,1.78,1.79,1.79
136.48,1.60,-0.19,1.59,-0.19,0.20,0.03,-0.02,1.80,1.79,1.78
137.84,1.60,-0.17,1.58,-0.19,0.21,0.01,-0.03,1.81,1.78,1.76
139.22,1.54,-0.21,1.55,-0.19,0.22,-0.01,-0.04,1.76,1.77,1.74
140.61,1.50,-0.23,1.51,-0.21,0.23,-0.03,-0.05,1.73,1.74,1.73
142.02,1.50,-0.21,1.47,-0.24,0.24,-0.04,-0.06,1.73,1.70,1.71
143.44,1.43,-0.25,1.44,-0.24,0.23,-0.06,-0.07,1.66,1.67,1.68
144.87,1.40,-0.25,1.41,-0.25,0.22,-0.08,-0.08,1.62,1.63,1.65
146.32,1.40,-0.23,1.39,-0.23,0.20,-0.10,-0.09,1.60,1.60,1.63
147.78,1.40,-0.19,1.42,-0.18,0.17,-0.11,-0.10,1.56,1.58,1.59
149.26,1.46,-0.10,1.45,-0.10,0.11,-0.13,-0.11,1.57,1.56,1.56
150.75,1.50,-0.01,1.47,-0.04,0.03,-0.14,-0.12,1.53,1.50,1.51
152.26,1.50,0.04,1.51,0.05,-0.07,-0.16,-0.13,1.43,1.44,1.46
153.78,1.52,0.12,1.55,0.15,-0.17,-0.17,-0.14,1.35,1.38,1.40
155.32,1.62,0.28,1.61,0.26,-0.28,-0.19,-0.14,1.34,1.32,1.34
156.88,1.70,0.41,1.68,0.40,-0.39,-0.20,-0.15,1.31,1.29,1.29
158.44,1.73,0.50,1.75,0.52,-0.49,-0.21,-0.16,1.24,1.26,1.23
160.03,1.80,0.62,1.78,0.60,-0.58,-0.22,-0.17,1.22,1.20,1.17
161.63,1.80,0.66,1.80,0.67,-0.66,-0.23,-0.18,1.14,1.14,1.13
163.24,1.80,0.72,1.81,0.72,-0.71,-0.25,-0.19,1.09,1.10,1.08
164.88,1.80,0.74,1.80,0.75,-0.74,-0.26,-0.20,1.06,1.06,1.05
166.53,1.79,0.76,1.79,0.76,-0.75,-0.27,-0.21,1.04,1.04,1.02
168.19,1.76,0.75,1.75,0.74,-0.72,-0.28,-0.22,1.03,1.02,1.01
169.87,1.69,0.69,1.69,0.70,-0.68,-0.29,-0.23,1.01,1.01,1.00
171.57,1.62,0.63,1.62,0.63,-0.63,-0.30,-0.24,0.99,1.00,0.99
173.29,1.56,0.57,1.55,0.56,-0.56,-0.30,-0.25,1.00,0.99,0.99
175.02,1.48,0.47,1.49,0.48,-0.49,-0.31,-0.26,0.99,1.00,1.01
176.77,1.42,0.40,1.42,0.40,-0.41,-0.32,-0.27,1.01,1.01,1.02
178.54,1.37,0.33,1.35,0.31,-0.33,-0.33,-0.28,1.04,1.02,1.03
180.32,1.29,0.23,1.31,0.25,-0.26,-0.34,-0.29,1.03,1.05,1.06
182.13,1.26,0.18,1.28,0.20,-0.19,-0.34,-0.30,1.07,1.09,1.07
183.95,1.27,0.17,1.23,0.14,-0.13,-0.35,-0.32,1.14,1.11,1.10
185.79,1.21,0.10,1.19,0.09,-0.08,-0.36,-0.33,1.13,1.11,1.11
187.65,1.12,0.01,1.15,0.04,-0.05,-0.36,-0.34,1.07,1.10,1.11
189.52,1.12,-0.00,1.12,0.00,-0.03,-0.37,-0.36,1.09,1.08,1.12
191.42,1.13,0.01,1.12,-0.01,-0.03,-0.37,-0.37,1.09,1.08,1.12
193.33,1.14,0.01,1.14,0.02,-0.04,-0.38,-0.38,1.09,1.10,1.12
195.27,1.17,0.05,1.18,0.06,-0.06,-0.39,-0.40,1.10,1.12,1.12
197.22,1.23,0.12,1.23,0.11,-0.09,-0.39,-0.41,1.14,1.13,1.11
199.19,1.28,0.17,1.26,0.16,-0.12,-0.40,-0.42,1.16,1.14,1.11
201.18,1.29,0.19,1.29,0.19,-0.16,-0.40,-0.44,1.13,1.13,1.10
203.19,1.29,0.20,1.30,0.21,-0.19,-0.41,-0.45,1.10,1.10,1.09
205.23,1.30,0.22,1.29,0.21,-0.22,-0.41,-0.47,1.07,1.07,1.08
207.28,1.30,0.23,1.30,0.23,-0.25,-0.42,-0.48,1.04,1.05,1.07
209.35,1.30,0.24,1.32,0.27,-0.28,-0.43,-0.49,1.01,1.04,1.06
211.44,1.37,0.33,1.35,0.31,-0.32,-0.43,-0.51,1.05,1.03,1.04
213.56,1.39,0.36,1.38,0.35,-0.35,-0.44,-0.52,1.04,1.03,1.03
215.69,1.39,0.38,1.40,0.39,-0.39,-0.45,-0.53,1.00,1.02,1.01
217.85,1.42,0.41,1.42,0.42,-0.42,-0.46,-0.54,1.00,1.00,1.00
220.03,1.46,0.47,1.45,0.46,-0.45,-0.46,-0.56,1.01,1.00,0.99
222.23,1.48,0.50,1.47,0.49,-0.48,-0.47,-0.57,1.00,0.99,0.98
224.45,1.48,0.51,1.48,0.51,-0.50,-0.48,-0.58,0.98,0.98,0.97
226.70,1.48,0.52,1.48,0.52,-0.52,-0.49,-0.59,0.96,0.96,0.96
228.96,1.48,0.52,1.48,0.52,-0.53,-0.51,-0.60,0.95,0.95,0.96
231.25,1.49,0.53,1.49,0.53,-0.54,-0.52,-0.61,0.95,0.95,0.96
233.57,1.50,0.55,1.50,0.54,-0.54,-0.53,-0.61,0.96,0.96,0.95
235.90,1.51,0.55,1.51,0.55,-0.55,-0.55,-0.62,0.96,0.96,0.96
238.26,1.53,0.57,1.53,0.56,-0.56,-0.57,-0.62,0.97,0.97,0.96
240.64,1.55,0.57,1.54,0.57,-0.58,-0.58,-0.63,0.97,0.97,0.97
243.05,1.56,0.58,1.56,0.58,-0.60,-0.60,-0.63,0.96,0.96,0.98
245.48,1.58,0.59,1.58,0.60,-0.62,-0.62,-0.63,0.95,0.96,0.98
247.93,1.61,0.62,1.63,0.64,-0.66,-0.64,-0.63,0.95,0.97,0.99
250.41,1.70,0.70,1.68,0.69,-0.69,-0.66,-0.63,1.01,0.99,0.99
252.92,1.74,0.74,1.73,0.73,-0.72,-0.68,-0.63,1.02,1.00,1.00
255.45,1.75,0.75,1.76,0.76,-0.75,-0.69,-0.63,1.00,1.01,0.99
258.00,1.76,0.77,1.76,0.77,-0.77,-0.71,-0.62,0.99,1.00,0.99
260.58,1.77,0.78,1.77,0.79,-0.77,-0.72,-0.61,1.00,1.00,0.98
263.19,1.77,0.79,1.77,0.79,-0.76,-0.73,-0.61,1.01,1.01,0.98
265.82,1.77,0.79,1.75,0.77,-0.74,-0.73,-0.60,1.03,1.01,0.98
268.48,1.69,0.72,1.69,0.72,-0.71,-0.72,-0.59,0.98,0.98,0.97
271.16,1.63,0.66,1.63,0.66,-0.68,-0.71,-0.58,0.95,0.95,0.97
273.87,1.55,0.58,1.57,0.61,-0.65,-0.70,-0.56,0.90,0.92,0.97
276.61,1.55,0.59,1.55,0.59,-0.63,-0.68,-0.55,0.92,0.92,0.96
279.38,1.55,0.59,1.54,0.58,-0.61,-0.66,-0.54,0.94,0.93,0.96
282.17,1.56,0.59,1.55,0.59,-0.59,-0.63,-0.52,0.96,0.96,0.97
284.99,1.56,0.59,1.56,0.60,-0.58,-0.60,-0.51,0.98,0.98,0.97
287.84,1.57,0.60,1.57,0.60,-0.57,-0.58,-0.49,1.00,1.00,0.97
290.72,1.58,0.60,1.57,0.59,-0.56,-0.55,-0.47,1.02,1.01,0.98
293.63,1.55,0.57,1.54,0.56,-0.54,-0.52,-0.46,1.01,1.01,0.98
296.57,1.51,0.52,1.50,0.51,-0.51,-0.50,-0.44,1.00,0.99,0.99
299.53,1.44,0.45,1.46,0.47,-0.48,-0.47,-0.42,0.95,0.98,0.99
302.53,1.43,0.43,1.42,0.43,-0.46,-0.45,-0.40,0.97,0.97,1.00
305.55,1.41,0.42,1.39,0.40,-0.43,-0.42,-0.38,0.98,0.96,0.99
308.61,1.36,0.37,1.37,0.38,-0.40,-0.40,-0.37,0.96,0.97,0.99
311.69,1.35,0.36,1.36,0.38,-0.37,-0.38,-0.35,0.98,0.99,0.99
314.81,1.36,0.38,1.36,0.38,-0.35,-0.36,-0.33,1.01,1.01,0.98
317.96,1.36,0.38,1.34,0.36,-0.32,-0.34,-0.31,1.03,1.01,0.97
321.14,1.30,0.34,1.28,0.32,-0.30,-0.32,-0.29,1.00,0.98,0.96
324.35,1.19,0.23,1.22,0.26,-0.28,-0.31,-0.27,0.91,0.94,0.96
327.59,1.15,0.20,1.16,0.22,-0.25,-0.29,-0.25,0.90,0.91,0.95
330.87,1.16,0.22,1.15,0.21,-0.23,-0.28,-0.23,0.93,0.92,0.94
334.18,1.15,0.22,1.15,0.22,-0.21,-0.26,-0.21,0.94,0.94,0.92
337.52,1.15,0.24,1.12,0.20,-0.19,-0.25,-0.19,0.95,0.93,0.91
340.90,1.07,0.16,1.08,0.17,-0.18,-0.24,-0.18,0.88,0.90,0.91
344.30,1.03,0.13,1.05,0.16,-0.18,-0.22,-0.16,0.85,0.88,0.90
347.75,1.04,0.16,1.04,0.16,-0.16,-0.21,-0.14,0.88,0.88,0.88
351.23,1.06,0.19,1.05,0.18,-0.15,-0.20,-0.12,0.91,0.90,0.87
354.74,1.05,0.19,1.03,0.17,-0.13,-0.19,-0.10,0.91,0.89,0.86
358.28,0.98,0.13,0.97,0.13,-0.12,-0.18,-0.08,0.86,0.85,0.84
361.87,0.90,0.07,0.91,0.08,-0.11,-0.17,-0.07,0.79,0.80,0.83
365.49,0.86,0.05,0.87,0.06,-0.10,-0.16,-0.05,0.76,0.77,0.81
369.14,0.87,0.07,0.87,0.06,-0.09,-0.15,-0.03,0.78,0.78,0.80
372.83,0.88,0.09,0.88,0.09,-0.08,-0.13,-0.01,0.80,0.81,0.79
376.56,0.89,0.11,0.87,0.10,-0.07,-0.12,0.01,0.82,0.80,0.78
380.33,0.87,0.10,0.84,0.08,-0.07,-0.11,0.02,0.80,0.77,0.77
384.13,0.78,0.02,0.81,0.06,-0.07,-0.10,0.04,0.70,0.74,0.76
387.97,0.79,0.04,0.80,0.06,-0.07,-0.09,0.06,0.72,0.73,0.74
391.85,0.82,0.08,0.81,0.08,-0.07,-0.08,0.08,0.75,0.74,0.73
395.77,0.84,0.12,0.81,0.09,-0.06,-0.07,0.09,0.78,0.75,0.72
399.73,0.79,0.08,0.79,0.08,-0.06,-0.06,0.11,0.73,0.73,0.71
403.72,0.73,0.03,0.74,0.04,-0.05,-0.05,0.13,0.67,0.69,0.70
407.76,0.71,0.03,0.70,0.02,-0.06,-0.04,0.14,0.65,0.65,0.68
411.84,0.69,0.02,0.71,0.04,-0.06,-0.03,0.16,0.63,0.65,0.67
415.96,0.72,0.06,0.72,0.06,-0.06,-0.02,0.18,0.66,0.66,0.66
420.12,0.76,0.10,0.73,0.07,-0.06,-0.01,0.19,0.70,0.66,0.66
424.32,0.72,0.07,0.73,0.08,-0.07,0.01,0.21,0.65,0.66,0.65
428.56,0.72,0.07,0.73,0.08,-0.07,0.02,0.22,0.64,0.65,0.65
432.85,0.73,0.07,0.73,0.08,-0.08,0.03,0.24,0.65,0.65,0.66
437.18,0.76,0.09,0.75,0.08,-0.09,0.04,0.25,0.67,0.66,0.67
441.55,0.78,0.09,0.76,0.08,-0.08,0.06,0.27,0.70,0.68,0.68
445.96,0.76,0.05,0.78,0.08,-0.07,0.07,0.28,0.69,0.71,0.70
450.42,0.79,0.06,0.80,0.06,-0.06,0.08,0.30,0.73,0.74,0.73
454.93,0.85,0.08,0.82,0.05,-0.05,0.10,0.31,0.80,0.78,0.77
459.48,0.84,0.03,0.84,0.03,-0.03,0.11,0.32,0.81,0.81,0.81
464.07,0.85,0.01,0.85,0.00,-0.01,0.13,0.33,0.84,0.84,0.84
468.71,0.84,-0.04,0.85,-0.03,0.02,0.14,0.35,0.86,0.87,0.88
473.40,0.87,-0.05,0.87,-0.05,0.05,0.16,0.36,0.92,0.92,0.92
478.13,0.89,-0.07,0.87,-0.08,0.08,0.17,0.37,0.97,0.96,0.96
482.91,0.88,-0.11,0.88,-0.11,0.12,0.19,0.38,1.00,1.00,0.99
487.74,0.85,-0.17,0.87,-0.15,0.16,0.21,0.39,1.01,1.03,1.02
492.62,0.86,-0.18,0.84,-0.20,0.21,0.23,0.40,1.07,1.05,1.04
497.55,0.81,-0.25,0.80,-0.25,0.26,0.25,0.41,1.06,1.06,1.06
502.52,0.75,-0.32,0.76,-0.31,0.31,0.27,0.41,1.05,1.07,1.07
507.55,0.70,-0.37,0.70,-0.36,0.36,0.29,0.42,1.06,1.06,1.07
512.62,0.66,-0.40,0.65,-0.41,0.41,0.31,0.43,1.06,1.06,1.06
517.75,0.59,-0.45,0.59,-0.45,0.45,0.33,0.43,1.04,1.04,1.04
522.93,0.52,-0.50,0.52,-0.50,0.49,0.35,0.44,1.01,1.00,1.02
528.16,0.44,-0.54,0.43,-0.54,0.52,0.38,0.45,0.96,0.96,0.98
533.44,0.35,-0.58,0.37,-0.56,0.56,0.40,0.45,0.90,0.92,0.93
538.77,0.30,-0.58,0.30,-0.57,0.59,0.42,0.46,0.89,0.89,0.88
544.16,0.26,-0.56,0.23,-0.59,0.61,0.45,0.46,0.87,0.84,0.82
549.60,0.14,-0.62,0.14,-0.61,0.64,0.47,0.46,0.77,0.77,0.76
555.10,0.03,-0.66,0.03,-0.65,0.65,0.50,0.47,0.68,0.68,0.68
