frequency,raw,error,smoothed,error_smoothed,equalization,parametric_eq,fixed_band_eq,equalized_raw,equalized_smoothed,target
20.00,-0.00,-6.04,-0.00,-6.04,6.02,5.60,1.93,6.02,6.02,6.04
20.20,0.05,-5.99,0.04,-5.99,5.98,5.58,1.99,6.03,6.02,6.04
20.40,0.09,-5.95,0.09,-5.95,5.94,5.56,2.05,6.03,6.03,6.04
20.61,0.14,-5.91,0.14,-5.91,5.90,5.53,2.11,6.04,6.04,6.05
20.81,0.19,-5.86,0.18,-5.86,5.86,5.51,2.17,6.05,6.04,6.05
21.02,0.23,-5.82,0.23,-5.82,5.82,5.49,2.23,6.04,6.05,6.05
21.23,0.28,-5.77,0.28,-5.77,5.77,5.46,2.30,6.05,6.05,6.05
21.44,0.33,-5.73,0.33,-5.73,5.73,5.44,2.37,6.06,6.06,6.06
21.66,0.38,-5.68,0.37,-5.68,5.68,5.41,2.44,6.06,6.06,6.05
21.87,0.42,-5.64,0.42,-5.64,5.63,5.39,2.51,6.05,6.06,6.05
22.09,0.47,-5.59,0.47,-5.59,5.59,5.36,2.59,6.05,6.05,6.05
22.31,0.52,-5.55,0.52,-5.54,5.54,5.34,2.66,6.06,6.06,6.06
22.54,0.57,-5.49,0.57,-5.49,5.49,5.31,2.74,6.05,6.06,6.05
22.76,0.63,-5.44,0.62,-5.44,5.44,5.28,2.82,6.06,6.06,6.06
22.99,0.68,-5.39,0.68,-5.38,5.39,5.25,2.91,6.06,6.06,6.06
23.22,0.73,-5.34,0.73,-5.33,5.33,5.23,2.99,6.06,6.06,6.06
23.45,0.79,-5.27,0.78,-5.28,5.28,5.20,3.08,6.07,6.06,6.06
23.69,0.84,-5.23,0.84,-5.23,5.22,5.17,3.17,6.06,6.06,6.06
23.92,0.89,-5.18,0.89,-5.17,5.17,5.14,3.26,6.06,6.06,6.07
24.16,0.94,-5.12,0.94,-5.13,5.12,5.11,3.35,6.06,6.06,6.06
24.40,0.99,-5.07,0.99,-5.07,5.07,5.08,3.44,6.06,6.06,6.06
24.65,1.03,-5.03,1.03,-5.02,5.03,5.05,3.53,6.06,6.07,6.06
24.89,1.08,-4.97,1.07,-4.98,5.00,5.02,3.63,6.08,6.07,6.05
25.14,1.11,-4.94,1.10,-4.95,4.97,4.99,3.73,6.07,6.07,6.05
25.39,1.12,-4.92,1.12,-4.92,4.93,4.96,3.82,6.05,6.05,6.04
25.65,1.13,-4.91,1.13,-4.91,4.90,4.93,3.92,6.03,6.02,6.04
25.91,1.14,-4.89,1.15,-4.88,4.86,4.90,4.02,6.00,6.01,6.03
26.16,1.18,-4.85,1.18,-4.84,4.82,4.87,4.12,6.00,6.00,6.03
26.43,1.24,-4.78,1.23,-4.79,4.77,4.84,4.21,6.00,6.00,6.02
26.69,1.30,-4.72,1.30,-4.72,4.71,4.81,4.31,6.01,6.01,6.02
26.96,1.36,-4.66,1.36,-4.66,4.66,4.78,4.40,6.01,6.01,6.02
27.23,1.42,-4.60,1.42,-4.59,4.60,4.74,4.49,6.02,6.02,6.01
27.50,1.48,-4.53,1.48,-4.53,4.55,4.71,4.58,6.03,6.03,6.00
27.77,1.53,-4.47,1.53,-4.48,4.51,4.68,4.67,6.04,6.04,6.00
28.05,1.58,-4.43,1.57,-4.44,4.47,4.65,4.75,6.05,6.04,6.01
28.33,1.58,-4.43,1.58,-4.43,4.44,4.61,4.83,6.01,6.02,6.01
28.62,1.59,-4.42,1.58,-4.43,4.40,4.58,4.90,5.99,5.99,6.01
28.90,1.59,-4.42,1.60,-4.41,4.37,4.55,4.97,5.96,5.97,6.01
29.19,1.63,-4.38,1.64,-4.37,4.34,4.51,5.03,5.97,5.98,6.01
29.48,1.70,-4.31,1.70,-4.31,4.31,4.48,5.08,6.01,6.01,6.01
29.78,1.77,-4.24,1.76,-4.24,4.28,4.44,5.13,6.05,6.04,6.01
30.08,1.82,-4.18,1.80,-4.20,4.24,4.41,5.17,6.06,6.04,6.00
30.38,1.82,-4.18,1.82,-4.18,4.19,4.37,5.20,6.01,6.01,5.99
30.68,1.82,-4.18,1.82,-4.17,4.15,4.34,5.23,5.96,5.97,5.99
30.99,1.82,-4.16,1.84,-4.15,4.10,4.30,5.24,5.92,5.94,5.98
31.30,1.89,-4.09,1.89,-4.09,4.07,4.27,5.25,5.95,5.96,5.98
31.61,1.96,-4.01,1.95,-4.02,4.03,4.23,5.25,5.99,5.99,5.97
31.93,2.03,-3.94,2.01,-3.95,3.99,4.20,5.24,6.02,6.01,5.97
32.24,2.05,-3.91,2.04,-3.92,3.95,4.16,5.22,5.99,5.98,5.96
32.57,2.05,-3.90,2.05,-3.90,3.89,4.13,5.20,5.94,5.94,5.95
32.89,2.05,-3.90,2.06,-3.88,3.85,4.09,5.16,5.89,5.91,5.94
33.22,2.10,-3.84,2.11,-3.83,3.80,4.05,5.12,5.90,5.91,5.94
33.55,2.18,-3.75,2.17,-3.76,3.76,4.02,5.08,5.94,5.94,5.93
33.89,2.25,-3.67,2.24,-3.69,3.72,3.98,5.02,5.97,5.96,5.92
34.23,2.28,-3.64,2.27,-3.65,3.68,3.95,4.96,5.95,5.94,5.92
34.57,2.28,-3.63,2.28,-3.63,3.62,3.91,4.90,5.90,5.90,5.91
34.92,2.28,-3.63,2.30,-3.61,3.57,3.87,4.83,5.85,5.87,5.90
35.27,2.34,-3.57,2.35,-3.55,3.52,3.84,4.76,5.86,5.87,5.90
35.62,2.42,-3.48,2.41,-3.49,3.49,3.80,4.68,5.90,5.90,5.90
35.97,2.49,-3.40,2.47,-3.42,3.46,3.76,4.60,5.95,5.93,5.89
36.33,2.50,-3.39,2.50,-3.38,3.43,3.73,4.52,5.93,5.94,5.89
36.70,2.51,-3.38,2.51,-3.37,3.40,3.69,4.44,5.91,5.91,5.88
37.06,2.51,-3.37,2.50,-3.38,3.37,3.65,4.35,5.88,5.88,5.88
37.43,2.51,-3.37,2.50,-3.38,3.34,3.61,4.27,5.85,5.84,5.88
37.81,2.51,-3.38,2.52,-3.37,3.31,3.58,4.18,5.82,5.83,5.89
38.19,2.55,-3.34,2.57,-3.32,3.28,3.54,4.09,5.83,5.85,5.88
38.57,2.64,-3.24,2.63,-3.25,3.25,3.50,4.01,5.89,5.88,5.88
38.95,2.72,-3.16,2.69,-3.18,3.22,3.47,3.92,5.94,5.92,5.88
39.34,2.73,-3.15,2.73,-3.15,3.20,3.43,3.84,5.92,5.93,5.88
39.74,2.73,-3.14,2.73,-3.14,3.17,3.39,3.76,5.90,5.91,5.87
40.14,2.73,-3.14,2.73,-3.14,3.15,3.35,3.68,5.88,5.88,5.87
40.54,2.73,-3.14,2.73,-3.14,3.13,3.32,3.60,5.86,5.86,5.87
40.94,2.73,-3.13,2.72,-3.14,3.11,3.28,3.52,5.84,5.83,5.86
41.35,2.73,-3.12,2.72,-3.13,3.08,3.24,3.45,5.81,5.80,5.85
41.76,2.73,-3.11,2.74,-3.10,3.05,3.20,3.37,5.77,5.78,5.83
42.18,2.77,-3.05,2.79,-3.03,3.00,3.17,3.30,5.77,5.79,5.82
42.60,2.87,-2.94,2.86,-2.94,2.95,3.13,3.23,5.82,5.82,5.81
43.03,2.96,-2.83,2.93,-2.86,2.91,3.09,3.17,5.87,5.84,5.79
43.46,2.96,-2.81,2.96,-2.81,2.87,3.05,3.10,5.82,5.83,5.77
43.90,2.96,-2.80,2.97,-2.79,2.83,3.02,3.04,5.78,5.79,5.75
44.33,2.96,-2.78,2.96,-2.78,2.79,2.98,2.98,5.74,5.74,5.74
44.78,2.96,-2.77,2.95,-2.77,2.75,2.94,2.92,5.71,5.70,5.72
45.23,2.96,-2.75,2.95,-2.76,2.71,2.91,2.87,5.67,5.66,5.71
45.68,2.96,-2.74,2.96,-2.73,2.68,2.87,2.82,5.63,5.64,5.69
46.13,2.99,-2.70,3.02,-2.67,2.64,2.83,2.77,5.63,5.66,5.69
46.60,3.10,-2.59,3.09,-2.59,2.60,2.79,2.72,5.70,5.69,5.68
47.06,3.19,-2.49,3.16,-2.52,2.56,2.76,2.68,5.75,5.72,5.68
47.53,3.19,-2.48,3.19,-2.48,2.53,2.72,2.63,5.72,5.72,5.67
48.01,3.19,-2.49,3.20,-2.48,2.50,2.68,2.59,5.69,5.70,5.67
48.49,3.19,-2.49,3.19,-2.49,2.49,2.65,2.55,5.67,5.67,5.68
48.97,3.19,-2.49,3.19,-2.49,2.48,2.61,2.52,5.67,5.67,5.68
49.46,3.19,-2.50,3.19,-2.50,2.49,2.57,2.48,5.68,5.68,5.68
49.96,3.19,-2.50,3.19,-2.50,2.51,2.54,2.45,5.69,5.69,5.69
50.46,3.19,-2.51,3.19,-2.51,2.52,2.50,2.42,5.71,5.71,5.70
50.96,3.19,-2.51,3.19,-2.51,2.52,2.47,2.39,5.71,5.71,5.70
51.47,3.19,-2.51,3.19,-2.51,2.51,2.43,2.36,5.70,5.69,5.70
51.99,3.19,-2.51,3.18,-2.52,2.48,2.39,2.33,5.67,5.66,5.69
52.51,3.19,-2.50,3.19,-2.50,2.45,2.36,2.30,5.64,5.64,5.69
53.03,3.20,-2.48,3.24,-2.44,2.41,2.32,2.28,5.61,5.65,5.68
53.56,3.32,-2.35,3.31,-2.36,2.36,2.29,2.26,5.68,5.67,5.67
54.10,3.42,-2.24,3.38,-2.27,2.31,2.25,2.23,5.73,5.69,5.66
54.64,3.42,-2.22,3.42,-2.21,2.26,2.22,2.21,5.68,5.69,5.64
55.18,3.42,-2.20,3.43,-2.19,2.22,2.18,2.19,5.63,5.64,5.62
55.74,3.42,-2.18,3.42,-2.18,2.17,2.15,2.17,5.59,5.59,5.60
56.29,3.42,-2.15,3.42,-2.15,2.14,2.11,2.15,5.55,5.55,5.56
56.86,3.42,-2.13,3.42,-2.12,2.11,2.08,2.12,5.53,5.53,5.54
57.42,3.42,-2.09,3.42,-2.09,2.08,2.04,2.10,5.50,5.50,5.51
58.00,3.42,-2.06,3.42,-2.06,2.06,2.01,2.08,5.48,5.48,5.48
58.58,3.42,-2.03,3.42,-2.03,2.03,1.97,2.06,5.45,5.45,5.45
59.16,3.42,-1.99,3.42,-1.99,2.00,1.94,2.04,5.41,5.41,5.41
59.76,3.42,-1.96,3.42,-1.96,1.96,1.90,2.01,5.38,5.38,5.38
60.35,3.42,-1.93,3.42,-1.93,1.93,1.87,1.99,5.35,5.35,5.34
60.96,3.42,-1.89,3.42,-1.90,1.90,1.83,1.97,5.31,5.31,5.31
61.57,3.42,-1.87,3.42,-1.86,1.86,1.80,1.94,5.28,5.28,5.29
62.18,3.42,-1.83,3.42,-1.83,1.83,1.77,1.91,5.25,5.25,5.25
62.80,3.42,-1.80,3.42,-1.80,1.79,1.73,1.89,5.21,5.21,5.21
63.43,3.42,-1.76,3.42,-1.76,1.76,1.70,1.86,5.17,5.17,5.18
64.07,3.42,-1.72,3.42,-1.72,1.72,1.67,1.83,5.14,5.14,5.14
64.71,3.42,-1.69,3.42,-1.69,1.69,1.63,1.80,5.10,5.10,5.10
65.35,3.42,-1.65,3.42,-1.65,1.65,1.60,1.77,5.07,5.07,5.07
66.01,3.42,-1.62,3.42,-1.62,1.62,1.57,1.73,5.04,5.04,5.04
66.67,3.42,-1.59,3.42,-1.59,1.59,1.54,1.70,5.01,5.01,5.01
67.33,3.42,-1.57,3.42,-1.57,1.57,1.50,1.66,4.98,4.98,4.99
68.01,3.42,-1.54,3.42,-1.54,1.54,1.47,1.63,4.96,4.96,4.96
68.69,3.42,-1.52,3.42,-1.52,1.53,1.44,1.59,4.94,4.94,4.94
69.37,3.42,-1.51,3.42,-1.51,1.51,1.41,1.56,4.93,4.93,4.93
70.07,3.42,-1.50,3.42,-1.50,1.50,1.37,1.52,4.91,4.91,4.91
70.77,3.42,-1.48,3.42,-1.48,1.48,1.34,1.48,4.90,4.90,4.90
71.48,3.42,-1.47,3.42,-1.47,1.47,1.31,1.44,4.89,4.89,4.89
72.19,3.42,-1.46,3.42,-1.46,1.46,1.28,1.40,4.88,4.88,4.88
72.91,3.42,-1.45,3.42,-1.45,1.45,1.25,1.36,4.87,4.87,4.87
73.64,3.42,-1.44,3.42,-1.44,1.43,1.22,1.32,4.85,4.85,4.86
74.38,3.42,-1.42,3.42,-1.42,1.42,1.19,1.28,4.84,4.84,4.84
75.12,3.42,-1.41,3.42,-1.40,1.40,1.15,1.24,4.82,4.82,4.82
75.87,3.42,-1.38,3.42,-1.38,1.38,1.12,1.20,4.80,4.80,4.80
76.63,3.42,-1.36,3.42,-1.36,1.37,1.09,1.16,4.78,4.78,4.78
77.40,3.42,-1.35,3.42,-1.34,1.34,1.06,1.12,4.76,4.76,4.76
78.17,3.42,-1.33,3.42,-1.32,1.32,1.03,1.08,4.74,4.74,4.74
78.95,3.42,-1.30,3.42,-1.30,1.30,1.00,1.04,4.72,4.72,4.72
79.74,3.42,-1.28,3.42,-1.28,1.28,0.97,1.01,4.70,4.70,4.70
80.54,3.42,-1.26,3.42,-1.26,1.26,0.94,0.97,4.68,4.68,4.68
81.35,3.42,-1.24,3.42,-1.24,1.24,0.91,0.93,4.65,4.65,4.66
82.16,3.42,-1.22,3.42,-1.22,1.22,0.88,0.89,4.63,4.63,4.63
82.98,3.42,-1.19,3.42,-1.20,1.20,0.85,0.85,4.62,4.62,4.61
83.81,3.42,-1.18,3.42,-1.18,1.19,0.82,0.82,4.61,4.61,4.60
84.65,3.42,-1.16,3.42,-1.16,1.18,0.79,0.78,4.60,4.60,4.58
85.50,3.42,-1.15,3.42,-1.15,1.16,0.76,0.75,4.58,4.58,4.56
86.35,3.42,-1.13,3.42,-1.13,1.13,0.73,0.71,4.55,4.55,4.55
87.22,3.42,-1.12,3.40,-1.13,1.09,0.70,0.67,4.51,4.49,4.54
88.09,3.42,-1.10,3.42,-1.10,1.05,0.68,0.64,4.47,4.47,4.52
88.97,3.42,-1.09,3.47,-1.03,1.01,0.65,0.61,4.43,4.48,4.51
89.86,3.57,-0.91,3.54,-0.94,0.96,0.62,0.57,4.53,4.50,4.48
90.76,3.63,-0.84,3.60,-0.86,0.91,0.59,0.54,4.54,4.52,4.46
91.66,3.64,-0.81,3.64,-0.80,0.85,0.56,0.51,4.49,4.50,4.45
92.58,3.64,-0.79,3.63,-0.79,0.79,0.53,0.47,4.43,4.42,4.43
93.51,3.64,-0.77,3.63,-0.78,0.72,0.50,0.44,4.36,4.36,4.41
94.44,3.65,-0.75,3.68,-0.71,0.66,0.47,0.41,4.31,4.35,4.39
95.39,3.74,-0.64,3.75,-0.63,0.61,0.45,0.38,4.35,4.36,4.38
96.34,3.87,-0.49,3.82,-0.54,0.57,0.42,0.35,4.43,4.39,4.36
97.30,3.87,-0.47,3.87,-0.47,0.52,0.39,0.32,4.39,4.39,4.34
98.28,3.87,-0.45,3.88,-0.44,0.48,0.36,0.29,4.34,4.36,4.32
99.26,3.87,-0.44,3.87,-0.43,0.43,0.33,0.26,4.30,4.30,4.30
100.25,3.87,-0.41,3.87,-0.41,0.40,0.31,0.23,4.27,4.27,4.27
101.25,3.87,-0.39,3.87,-0.39,0.37,0.28,0.20,4.24,4.24,4.25
102.27,3.87,-0.36,3.87,-0.36,0.35,0.25,0.17,4.21,4.21,4.23
103.29,3.87,-0.33,3.87,-0.33,0.32,0.22,0.14,4.19,4.19,4.20
104.32,3.87,-0.29,3.87,-0.29,0.29,0.19,0.11,4.15,4.15,4.16
105.37,3.87,-0.25,3.87,-0.25,0.24,0.17,0.09,4.11,4.11,4.12
106.42,3.87,-0.21,3.87,-0.21,0.19,0.14,0.06,4.06,4.06,4.08
107.48,3.87,-0.16,3.87,-0.16,0.14,0.11,0.03,4.01,4.01,4.03
108.56,3.87,-0.10,3.87,-0.11,0.10,0.08,0.00,3.97,3.97,3.97
109.64,3.87,-0.05,3.87,-0.05,0.07,0.06,-0.02,3.93,3.94,3.92
110.74,3.87,-0.00,3.89,0.02,0.04,0.03,-0.05,3.91,3.93,3.87
111.85,3.87,0.05,3.85,0.03,0.02,0.00,-0.07,3.88,3.87,3.82
112.97,3.85,0.08,3.78,0.02,-0.00,-0.03,-0.10,3.85,3.78,3.76
114.10,3.64,-0.08,3.71,-0.01,-0.02,-0.05,-0.12,3.62,3.69,3.71
115.24,3.64,-0.03,3.65,-0.02,-0.03,-0.08,-0.15,3.61,3.61,3.67
116.39,3.64,0.02,3.62,-0.00,-0.04,-0.11,-0.17,3.59,3.57,3.62
117.55,3.64,0.07,3.64,0.06,-0.06,-0.13,-0.19,3.58,3.58,3.57
118.73,3.64,0.10,3.64,0.10,-0.08,-0.16,-0.22,3.56,3.56,3.53
119.92,3.64,0.14,3.64,0.14,-0.11,-0.19,-0.24,3.52,3.52,3.50
121.12,3.64,0.18,3.64,0.18,-0.17,-0.22,-0.26,3.47,3.47,3.46
122.33,3.64,0.21,3.62,0.20,-0.23,-0.24,-0.28,3.41,3.39,3.42
123.55,3.64,0.24,3.64,0.25,-0.29,-0.27,-0.30,3.34,3.35,3.40
124.79,3.64,0.28,3.69,0.33,-0.36,-0.30,-0.32,3.28,3.33,3.36
126.03,3.80,0.46,3.76,0.43,-0.42,-0.32,-0.34,3.37,3.34,3.34
127.29,3.85,0.54,3.83,0.52,-0.49,-0.35,-0.36,3.36,3.34,3.31
128.57,3.87,0.59,3.87,0.59,-0.54,-0.38,-0.38,3.32,3.33,3.28
129.85,3.87,0.61,3.87,0.62,-0.59,-0.41,-0.40,3.28,3.28,3.25
131.15,3.87,0.64,3.87,0.64,-0.63,-0.43,-0.42,3.23,3.24,3.23
132.46,3.87,0.67,3.88,0.68,-0.67,-0.46,-0.43,3.20,3.21,3.20
133.79,3.87,0.70,3.85,0.68,-0.69,-0.49,-0.45,3.18,3.16,3.17
135.12,3.86,0.71,3.83,0.69,-0.71,-0.51,-0.47,3.15,3.12,3.15
136.48,3.76,0.64,3.82,0.71,-0.73,-0.54,-0.48,3.03,3.09,3.12
137.84,3.85,0.76,3.83,0.74,-0.76,-0.57,-0.50,3.09,3.07,3.08
139.22,3.87,0.80,3.85,0.79,-0.79,-0.59,-0.52,3.08,3.06,3.06
140.61,3.87,0.83,3.88,0.84,-0.82,-0.62,-0.54,3.05,3.06,3.04
142.02,3.87,0.86,3.87,0.86,-0.85,-0.65,-0.55,3.02,3.02,3.01
143.44,3.87,0.89,3.87,0.89,-0.88,-0.67,-0.57,2.98,2.98,2.98
144.87,3.87,0.92,3.87,0.92,-0.92,-0.70,-0.59,2.95,2.95,2.95
146.32,3.87,0.95,3.87,0.95,-0.96,-0.73,-0.60,2.91,2.91,2.92
147.78,3.87,0.99,3.87,0.99,-0.99,-0.75,-0.62,2.87,2.87,2.88
149.26,3.87,1.02,3.87,1.03,-1.03,-0.78,-0.64,2.84,2.84,2.84
150.75,3.87,1.07,3.87,1.07,-1.07,-0.81,-0.66,2.80,2.80,2.80
152.26,3.87,1.11,3.87,1.12,-1.12,-0.83,-0.68,2.75,2.75,2.75
153.78,3.87,1.17,3.87,1.17,-1.18,-0.86,-0.70,2.69,2.69,2.70
155.32,3.87,1.22,3.87,1.22,-1.24,-0.89,-0.72,2.63,2.63,2.65
156.88,3.87,1.27,3.87,1.27,-1.29,-0.91,-0.74,2.58,2.58,2.59
158.44,3.87,1.32,3.87,1.32,-1.34,-0.94,-0.76,2.53,2.53,2.55
160.03,3.87,1.36,3.87,1.36,-1.36,-0.97,-0.78,2.51,2.51,2.51
161.63,3.87,1.40,3.89,1.42,-1.36,-0.99,-0.80,2.50,2.52,2.47
163.24,3.87,1.43,3.87,1.44,-1.34,-1.02,-0.82,2.53,2.53,2.44
164.88,3.87,1.46,3.80,1.39,-1.30,-1.04,-0.85,2.56,2.49,2.41
166.53,3.66,1.27,3.67,1.28,-1.25,-1.07,-0.87,2.41,2.42,2.39
168.19,3.49,1.12,3.53,1.16,-1.20,-1.10,-0.89,2.29,2.33,2.37
169.87,3.42,1.05,3.43,1.06,-1.15,-1.12,-0.92,2.27,2.28,2.36
171.57,3.42,1.05,3.40,1.04,-1.11,-1.15,-0.95,2.31,2.30,2.37
173.29,3.42,1.05,3.39,1.03,-1.08,-1.17,-0.97,2.34,2.32,2.37
175.02,3.42,1.04,3.42,1.05,-1.06,-1.20,-1.00,2.35,2.36,2.37
176.77,3.42,1.03,3.48,1.09,-1.07,-1.22,-1.03,2.34,2.40,2.39
178.54,3.59,1.19,3.55,1.15,-1.10,-1.25,-1.06,2.48,2.44,2.40
180.32,3.64,1.22,3.61,1.20,-1.15,-1.27,-1.09,2.49,2.46,2.42
182.13,3.64,1.21,3.64,1.21,-1.20,-1.30,-1.12,2.44,2.43,2.43
183.95,3.64,1.20,3.64,1.21,-1.25,-1.32,-1.16,2.39,2.40,2.44
185.79,3.64,1.19,3.70,1.25,-1.29,-1.35,-1.19,2.35,2.40,2.44
187.65,3.81,1.36,3.77,1.32,-1.33,-1.37,-1.22,2.48,2.44,2.45
189.52,3.87,1.42,3.84,1.39,-1.36,-1.39,-1.26,2.51,2.48,2.45
191.42,3.87,1.42,3.88,1.44,-1.39,-1.42,-1.29,2.48,2.49,2.44
193.33,3.87,1.44,3.87,1.44,-1.42,-1.44,-1.33,2.45,2.46,2.43
195.27,3.87,1.44,3.87,1.44,-1.44,-1.47,-1.37,2.43,2.43,2.43
197.22,3.87,1.44,3.87,1.44,-1.45,-1.49,-1.40,2.42,2.42,2.43
199.19,3.87,1.45,3.87,1.45,-1.45,-1.51,-1.44,2.41,2.41,2.42
201.18,3.87,1.46,3.87,1.46,-1.45,-1.53,-1.48,2.41,2.41,2.41
203.19,3.87,1.47,3.87,1.47,-1.46,-1.56,-1.52,2.41,2.41,2.40
205.23,3.87,1.48,3.87,1.48,-1.49,-1.58,-1.56,2.38,2.38,2.39
207.28,3.87,1.50,3.85,1.48,-1.52,-1.60,-1.60,2.34,2.33,2.37
209.35,3.87,1.52,3.87,1.52,-1.57,-1.62,-1.63,2.30,2.30,2.35
211.44,3.87,1.53,3.92,1.59,-1.61,-1.64,-1.67,2.25,2.31,2.34
213.56,4.03,1.71,4.00,1.67,-1.66,-1.66,-1.71,2.36,2.33,2.32
215.69,4.10,1.78,4.07,1.76,-1.71,-1.68,-1.75,2.39,2.35,2.31
217.85,4.10,1.80,4.11,1.81,-1.76,-1.70,-1.78,2.34,2.35,2.30
220.03,4.10,1.81,4.10,1.82,-1.80,-1.72,-1.82,2.30,2.31,2.29
222.23,4.10,1.83,4.10,1.83,-1.83,-1.74,-1.85,2.27,2.27,2.27
224.45,4.10,1.83,4.10,1.84,-1.85,-1.76,-1.89,2.25,2.25,2.26
226.70,4.10,1.85,4.10,1.85,-1.86,-1.78,-1.92,2.23,2.23,2.25
228.96,4.10,1.86,4.10,1.86,-1.87,-1.80,-1.95,2.23,2.23,2.24
231.25,4.10,1.87,4.10,1.87,-1.87,-1.81,-1.98,2.22,2.22,2.22
233.57,4.10,1.88,4.10,1.88,-1.88,-1.83,-2.01,2.22,2.22,2.22
235.90,4.10,1.89,4.10,1.89,-1.89,-1.85,-2.03,2.21,2.21,2.21
238.26,4.10,1.90,4.10,1.90,-1.90,-1.86,-2.05,2.20,2.20,2.20
240.64,4.10,1.91,4.10,1.91,-1.91,-1.88,-2.07,2.19,2.19,2.19
243.05,4.10,1.91,4.10,1.91,-1.91,-1.89,-2.09,2.19,2.19,2.18
245.48,4.10,1.92,4.10,1.92,-1.92,-1.91,-2.11,2.18,2.18,2.18
247.93,4.10,1.92,4.10,1.92,-1.92,-1.92,-2.12,2.17,2.17,2.17
250.41,4.10,1.93,4.10,1.93,-1.93,-1.94,-2.13,2.17,2.17,2.17
252.92,4.10,1.93,4.10,1.93,-1.93,-1.95,-2.13,2.16,2.16,2.16
255.45,4.10,1.94,4.10,1.94,-1.94,-1.96,-2.14,2.16,2.16,2.16
258.00,4.10,1.94,4.10,1.94,-1.94,-1.97,-2.14,2.15,2.15,2.16
260.58,4.10,1.95,4.10,1.95,-1.95,-1.98,-2.14,2.15,2.15,2.15
263.19,4.10,1.96,4.10,1.96,-1.96,-1.99,-2.14,2.14,2.14,2.14
265.82,4.10,1.96,4.10,1.96,-1.96,-2.00,-2.13,2.13,2.13,2.13
268.48,4.10,1.97,4.10,1.97,-1.97,-2.01,-2.12,2.13,2.13,2.13
271.16,4.10,1.98,4.10,1.98,-1.98,-2.02,-2.11,2.12,2.12,2.12
273.87,4.10,1.98,4.10,1.98,-1.98,-2.03,-2.10,2.11,2.11,2.11
276.61,4.10,1.99,4.10,1.99,-1.99,-2.04,-2.09,2.11,2.11,2.11
279.38,4.10,2.00,4.10,2.00,-2.00,-2.04,-2.08,2.10,2.10,2.10
282.17,4.10,2.00,4.10,2.00,-2.00,-2.05,-2.06,2.10,2.10,2.09
284.99,4.10,2.01,4.10,2.01,-2.00,-2.05,-2.05,2.09,2.09,2.09
287.84,4.10,2.01,4.10,2.01,-2.01,-2.06,-2.03,2.09,2.09,2.09
290.72,4.10,2.01,4.10,2.01,-2.01,-2.06,-2.01,2.09,2.09,2.09
293.63,4.10,2.01,4.10,2.01,-2.01,-2.07,-1.99,2.08,2.08,2.08
296.57,4.10,2.02,4.10,2.02,-2.02,-2.07,-1.98,2.08,2.08,2.08
299.53,4.10,2.02,4.10,2.02,-2.02,-2.07,-1.96,2.08,2.08,2.08
302.53,4.10,2.03,4.10,2.03,-2.03,-2.07,-1.94,2.07,2.07,2.07
305.55,4.10,2.03,4.10,2.03,-2.04,-2.07,-1.92,2.06,2.06,2.06
308.61,4.10,2.04,4.10,2.04,-2.05,-2.07,-1.91,2.04,2.04,2.06
311.69,4.10,2.05,4.10,2.05,-2.07,-2.07,-1.89,2.03,2.03,2.05
314.81,4.10,2.06,4.10,2.06,-2.07,-2.07,-1.87,2.03,2.03,2.04
317.96,4.10,2.07,4.10,2.08,-2.07,-2.07,-1.86,2.03,2.03,2.03
321.14,4.10,2.09,4.11,2.10,-2.06,-2.07,-1.85,2.04,2.05,2.00
324.35,4.10,2.11,4.09,2.09,-2.04,-2.06,-1.83,2.06,2.04,1.99
327.59,4.07,2.09,4.03,2.05,-2.02,-2.06,-1.82,2.05,2.00,1.98
330.87,3.92,1.95,3.95,1.98,-2.00,-2.06,-1.81,1.92,1.95,1.97
334.18,3.87,1.91,3.89,1.93,-1.98,-2.05,-1.80,1.89,1.91,1.96
337.52,3.87,1.92,3.86,1.91,-1.96,-2.05,-1.80,1.91,1.90,1.95
340.90,3.87,1.92,3.86,1.92,-1.94,-2.04,-1.79,1.93,1.93,1.94
344.30,3.87,1.93,3.87,1.93,-1.92,-2.03,-1.78,1.94,1.94,1.93
347.75,3.87,1.94,3.87,1.94,-1.92,-2.02,-1.78,1.95,1.95,1.93
351.23,3.87,1.94,3.87,1.94,-1.92,-2.02,-1.78,1.94,1.94,1.93
354.74,3.87,1.94,3.87,1.94,-1.93,-2.01,-1.78,1.94,1.94,1.93
358.28,3.87,1.94,3.87,1.94,-1.94,-2.00,-1.78,1.93,1.93,1.93
361.87,3.87,1.93,3.87,1.93,-1.94,-1.99,-1.78,1.93,1.93,1.94
365.49,3.87,1.93,3.87,1.93,-1.93,-1.98,-1.79,1.93,1.93,1.94
369.14,3.87,1.93,3.87,1.93,-1.93,-1.97,-1.79,1.94,1.94,1.94
372.83,3.87,1.93,3.87,1.93,-1.93,-1.96,-1.80,1.94,1.94,1.93
376.56,3.87,1.92,3.87,1.93,-1.93,-1.94,-1.81,1.94,1.94,1.94
380.33,3.87,1.93,3.87,1.93,-1.93,-1.93,-1.82,1.94,1.94,1.94
384.13,3.87,1.93,3.87,1.93,-1.93,-1.92,-1.83,1.94,1.94,1.94
387.97,3.87,1.93,3.87,1.93,-1.93,-1.90,-1.84,1.94,1.94,1.94
391.85,3.87,1.93,3.87,1.93,-1.92,-1.89,-1.85,1.94,1.94,1.94
395.77,3.87,1.93,3.87,1.93,-1.92,-1.88,-1.86,1.94,1.94,1.94
399.73,3.87,1.92,3.87,1.92,-1.93,-1.86,-1.88,1.94,1.94,1.95
403.72,3.87,1.92,3.87,1.92,-1.93,-1.85,-1.89,1.94,1.94,1.95
407.76,3.87,1.92,3.87,1.92,-1.94,-1.83,-1.91,1.93,1.93,1.95
411.84,3.87,1.92,3.87,1.92,-1.93,-1.81,-1.92,1.93,1.93,1.95
415.96,3.87,1.92,3.87,1.92,-1.92,-1.80,-1.94,1.94,1.94,1.95
420.12,3.87,1.92,3.88,1.93,-1.91,-1.78,-1.96,1.96,1.97,1.95
424.32,3.87,1.92,3.87,1.93,-1.88,-1.76,-1.97,1.99,2.00,1.94
428.56,3.87,1.92,3.83,1.89,-1.85,-1.74,-1.99,2.02,1.98,1.94
432.85,3.78,1.83,3.77,1.82,-1.82,-1.73,-2.00,1.96,1.95,1.94
437.18,3.66,1.72,3.70,1.76,-1.79,-1.71,-2.01,1.87,1.91,1.94
441.55,3.64,1.71,3.64,1.71,-1.76,-1.69,-2.03,1.88,1.88,1.93
445.96,3.64,1.71,3.63,1.69,-1.74,-1.67,-2.04,1.90,1.89,1.93
450.42,3.64,1.71,3.64,1.71,-1.72,-1.65,-2.05,1.92,1.91,1.93
454.93,3.64,1.71,3.64,1.71,-1.71,-1.63,-2.05,1.93,1.93,1.93
459.48,3.64,1.72,3.64,1.71,-1.71,-1.61,-2.06,1.93,1.93,1.92
464.07,3.64,1.71,3.64,1.71,-1.70,-1.59,-2.06,1.94,1.94,1.93
468.71,3.64,1.71,3.65,1.73,-1.68,-1.57,-2.06,1.96,1.98,1.93
473.40,3.64,1.71,3.63,1.70,-1.65,-1.55,-2.06,1.98,1.98,1.93
478.13,3.64,1.71,3.58,1.65,-1.62,-1.53,-2.05,2.02,1.96,1.93
482.91,3.47,1.53,3.51,1.57,-1.58,-1.51,-2.04,1.88,1.92,1.94
487.74,3.42,1.48,3.44,1.50,-1.55,-1.49,-2.03,1.87,1.89,1.94
492.62,3.42,1.47,3.40,1.46,-1.53,-1.47,-2.01,1.89,1.88,1.95
497.55,3.42,1.47,3.41,1.46,-1.50,-1.44,-1.99,1.92,1.91,1.95
502.52,3.42,1.46,3.42,1.46,-1.48,-1.42,-1.97,1.94,1.94,1.96
507.55,3.42,1.45,3.42,1.46,-1.45,-1.40,-1.94,1.97,1.97,1.97
512.62,3.42,1.45,3.43,1.46,-1.42,-1.38,-1.91,2.00,2.01,1.97
517.75,3.42,1.44,3.41,1.43,-1.37,-1.36,-1.88,2.05,2.03,1.98
522.93,3.36,1.38,3.33,1.36,-1.30,-1.33,-1.84,2.05,2.03,1.98
528.16,3.22,1.24,3.23,1.25,-1.21,-1.31,-1.80,2.01,2.02,1.98
533.44,3.07,1.09,3.09,1.11,-1.09,-1.29,-1.76,1.97,1.99,1.98
538.77,2.98,1.00,2.95,0.98,-0.97,-1.26,-1.71,2.01,1.98,1.98
544.16,2.80,0.82,2.82,0.84,-0.85,-1.24,-1.66,1.94,1.96,1.98
549.60,2.72,0.75,2.69,0.72,-0.75,-1.22,-1.60,1.97,1.93,1.97
555.10,2.55,0.59,2.58,0.62,-0.67,-1.19,-1.55,1.87,1.90,1.96
560.65,2.51,0.56,2.51,0.56,-0.63,-1.17,-1.49,1.88,1.88,1.94
