frequency,raw
20.00,-24.75
20.20,-24.68
20.40,-24.61
20.61,-24.54
20.81,-24.47
21.02,-24.39
21.23,-24.18
21.44,-23.98
21.66,-23.76
21.87,-23.56
22.09,-23.39
22.31,-23.28
22.54,-23.16
22.76,-23.04
22.99,-22.93
23.22,-22.80
23.45,-22.68
23.69,-22.55
23.92,-22.43
24.16,-22.42
24.40,-22.46
24.65,-22.49
24.89,-22.53
25.14,-22.38
25.39,-22.08
25.65,-21.79
25.91,-21.51
26.16,-21.30
26.43,-21.17
26.69,-21.04
26.96,-20.90
27.23,-20.91
27.50,-20.94
27.77,-20.96
28.05,-20.92
28.33,-20.61
28.62,-20.30
28.90,-19.98
29.19,-19.79
29.48,-19.66
29.78,-19.53
30.08,-19.40
30.38,-19.27
30.68,-19.14
30.99,-19.01
31.30,-18.93
31.61,-18.85
31.93,-18.77
32.24,-18.66
32.57,-18.55
32.89,-18.44
33.22,-18.35
33.55,-18.25
33.89,-18.15
34.23,-17.96
34.57,-17.73
34.92,-17.50
35.27,-17.31
35.62,-17.15
35.97,-16.97
36.33,-16.85
36.70,-16.72
37.06,-16.60
37.43,-16.46
37.81,-16.33
38.19,-16.20
38.57,-16.07
38.95,-15.93
39.34,-15.94
39.74,-15.95
40.14,-15.83
40.54,-15.48
40.94,-15.13
41.35,-14.97
41.76,-14.83
42.18,-14.71
42.60,-14.58
43.03,-14.46
43.46,-14.33
43.90,-14.21
44.33,-14.08
44.78,-13.95
45.23,-13.90
45.68,-13.93
46.13,-13.86
46.60,-13.54
47.06,-13.24
47.53,-13.10
48.01,-12.95
48.49,-12.83
48.97,-12.70
49.46,-12.53
49.96,-12.36
50.46,-12.24
50.96,-12.13
51.47,-12.04
51.99,-11.95
52.51,-11.92
53.03,-11.88
53.56,-11.55
54.10,-11.25
54.64,-11.11
55.18,-10.98
55.74,-10.87
56.29,-10.73
56.86,-10.58
57.42,-10.46
58.00,-10.35
58.58,-10.18
59.16,-10.06
59.76,-10.08
60.35,-10.04
60.96,-9.97
61.57,-9.72
62.18,-9.50
62.80,-9.35
63.43,-9.23
64.07,-9.10
64.71,-8.96
65.35,-8.82
66.01,-8.70
66.67,-8.56
67.33,-8.44
68.01,-8.31
68.69,-8.41
69.37,-8.31
70.07,-8.06
70.77,-7.83
71.48,-7.67
72.19,-7.56
72.91,-7.52
73.64,-7.62
74.38,-7.48
75.12,-7.09
75.87,-6.69
76.63,-6.99
77.40,-7.14
78.17,-6.97
78.95,-6.68
79.74,-6.57
80.54,-6.67
81.35,-6.47
82.16,-5.99
82.98,-6.44
83.81,-6.31
84.65,-6.18
85.50,-5.81
86.35,-5.61
87.22,-5.87
88.09,-6.12
88.97,-5.54
89.86,-5.35
90.76,-5.76
91.66,-5.61
92.58,-5.38
93.51,-5.27
94.44,-5.19
95.39,-5.20
96.34,-5.38
97.30,-5.37
98.28,-4.91
99.26,-4.53
100.25,-4.79
101.25,-5.20
102.27,-4.98
103.29,-5.09
104.32,-5.09
105.37,-4.84
106.42,-4.67
107.48,-4.74
108.56,-4.94
109.64,-4.91
110.74,-4.31
111.85,-4.31
112.97,-4.48
114.10,-4.48
115.24,-4.51
116.39,-4.72
117.55,-4.67
118.73,-4.39
119.92,-4.34
121.12,-4.32
122.33,-4.31
123.55,-4.46
124.79,-4.63
126.03,-4.62
127.29,-4.35
128.57,-4.19
129.85,-4.18
131.15,-4.18
132.46,-4.17
133.79,-4.16
135.12,-4.15
136.48,-4.15
137.84,-4.14
139.22,-4.02
140.61,-3.89
142.02,-4.20
143.44,-4.23
144.87,-4.12
146.32,-4.09
147.78,-4.07
149.26,-4.06
150.75,-4.05
152.26,-4.04
153.78,-4.04
155.32,-4.03
156.88,-4.02
158.44,-4.02
160.03,-4.01
161.63,-4.00
163.24,-3.99
164.88,-3.99
166.53,-3.98
168.19,-3.98
169.87,-4.00
171.57,-4.19
173.29,-4.05
175.02,-3.86
176.77,-3.87
178.54,-3.86
180.32,-3.85
182.13,-3.85
183.95,-3.84
185.79,-3.82
187.65,-3.81
189.52,-3.80
191.42,-3.64
193.33,-3.57
195.27,-3.76
197.22,-3.85
199.19,-3.84
201.18,-3.83
203.19,-3.83
205.23,-3.82
207.28,-3.89
209.35,-4.01
211.44,-3.89
213.56,-3.74
215.69,-3.72
217.85,-3.72
220.03,-3.71
222.23,-3.72
224.45,-3.72
226.70,-3.71
228.96,-3.71
231.25,-3.71
233.57,-3.70
235.90,-3.70
238.26,-3.69
240.64,-3.69
243.05,-3.84
245.48,-3.90
247.93,-3.57
250.41,-3.55
252.92,-3.54
255.45,-3.54
258.00,-3.53
260.58,-3.53
263.19,-3.52
265.82,-3.28
268.48,-3.21
271.16,-3.35
273.87,-3.41
276.61,-3.41
279.38,-3.41
282.17,-3.39
284.99,-3.49
287.84,-3.60
290.72,-3.58
293.63,-3.29
296.57,-3.23
299.53,-3.23
302.53,-3.22
305.55,-3.20
308.61,-3.19
311.69,-3.18
314.81,-3.17
317.96,-3.21
321.14,-3.33
324.35,-3.23
327.59,-3.07
330.87,-3.05
334.18,-3.05
337.52,-3.05
340.90,-3.05
344.30,-3.05
347.75,-3.05
351.23,-3.04
354.74,-3.03
358.28,-3.03
361.87,-3.02
365.49,-3.02
369.14,-3.01
372.83,-3.13
376.56,-3.17
380.33,-2.93
384.13,-2.93
387.97,-3.03
391.85,-2.80
395.77,-2.70
399.73,-2.65
403.72,-2.73
407.76,-2.86
411.84,-2.89
415.96,-2.88
420.12,-2.87
424.32,-2.86
428.56,-2.85
432.85,-2.85
437.18,-2.84
441.55,-2.83
445.96,-2.90
450.42,-2.97
454.93,-2.75
459.48,-2.67
464.07,-2.65
468.71,-2.65
473.40,-2.63
478.13,-2.63
482.91,-2.58
487.74,-2.53
492.62,-2.56
497.55,-2.25
502.52,-2.17
507.55,-2.26
512.62,-2.26
517.75,-2.26
522.93,-2.24
528.16,-2.23
533.44,-2.10
538.77,-1.94
544.16,-1.91
549.60,-2.06
555.10,-2.12
560.65,-2.20
566.25,-2.30
571.92,-2.14
577.64,-2.05
583.41,-2.03
589.25,-2.02
595.14,-2.01
601.09,-2.00
607.10,-1.99
613.17,-2.12
619.30,-2.17
625.50,-1.78
631.75,-1.66
638.07,-1.77
644.45,-1.80
650.89,-1.80
657.40,-1.80
663.98,-1.80
670.62,-1.80
677.32,-1.68
684.10,-1.68
690.94,-1.83
697.85,-1.64
704.83,-1.35
711.87,-1.32
718.99,-1.49
726.18,-1.56
733.44,-1.58
740.78,-1.55
748.19,-1.52
755.67,-1.50
763.23,-1.53
770.86,-1.33
778.57,-1.27
786.35,-1.40
794.22,-1.62
802.16,-1.76
810.18,-1.56
818.28,-1.28
826.46,-1.40
834.73,-1.22
843.08,-1.28
851.51,-1.62
860.02,-1.50
868.62,-1.34
877.31,-1.17
886.08,-1.29
894.94,-1.40
903.89,-1.37
912.93,-1.33
922.06,-1.31
931.28,-1.33
940.59,-1.26
950.00,-1.24
959.50,-1.19
969.09,-1.17
978.78,-1.16
988.57,-1.15
998.46,-1.08
1008.44,-1.02
1018.53,-0.91
1028.71,-0.86
1039.00,-0.82
1049.39,-0.77
1059.88,-0.71
1070.48,-0.66
1081.19,-0.59
1092.00,-0.56
1102.92,-0.65
1113.95,-0.41
1125.09,-0.02
1136.34,0.05
1147.70,-0.00
1159.18,-0.15
1170.77,-0.11
1182.48,0.12
1194.30,0.48
1206.25,0.64
1218.31,0.68
1230.49,0.88
1242.80,1.02
1255.22,1.10
1267.78,0.93
1280.45,0.97
1293.26,1.36
1306.19,1.48
1319.25,1.49
1332.45,1.42
1345.77,1.62
1359.23,1.86
1372.82,2.02
1386.55,2.04
1400.41,2.11
1414.42,2.15
1428.56,2.10
1442.85,2.13
1457.28,2.11
1471.85,2.23
1486.57,2.37
1501.43,2.43
1516.45,2.48
1531.61,2.49
1546.93,2.53
1562.40,2.69
1578.02,2.76
1593.80,2.79
1609.74,2.81
1625.84,2.82
1642.10,2.92
1658.52,3.02
1675.10,3.11
1691.85,3.19
1708.77,3.25
1725.86,3.35
1743.12,3.43
1760.55,3.46
1778.15,3.52
1795.94,3.50
1813.90,3.46
1832.03,3.50
1850.36,3.60
1868.86,3.64
1887.55,3.60
1906.42,3.60
1925.49,3.60
1944.74,3.65
1964.19,3.71
1983.83,3.70
2003.67,3.67
2023.71,3.60
2043.94,3.67
2064.38,3.73
2085.03,3.72
2105.88,3.71
2126.94,3.79
2148.20,3.83
2169.69,3.74
2191.38,3.75
2213.30,3.89
2235.43,3.98
2257.78,3.91
2280.36,3.89
2303.17,3.91
2326.20,3.88
2349.46,4.01
2372.95,4.13
2396.68,4.09
2420.65,3.98
2444.86,3.95
2469.31,3.88
2494.00,4.00
2518.94,4.32
2544.13,4.40
2569.57,4.40
2595.27,4.33
2621.22,4.45
2647.43,4.69
2673.90,5.02
2700.64,5.03
2727.65,4.89
2754.93,4.85
2782.48,4.86
2810.30,4.86
2838.40,4.81
2866.79,4.76
2895.46,4.71
2924.41,4.74
2953.65,4.52
2983.19,4.45
3013.02,4.76
3043.15,4.80
3073.58,4.57
3104.32,4.76
3135.36,5.02
3166.72,5.13
3198.38,5.03
3230.37,4.99
3262.67,5.01
3295.30,4.91
3328.25,4.83
3361.53,4.80
3395.15,4.77
3429.10,4.52
3463.39,4.31
3498.03,4.47
3533.01,4.56
3568.34,4.59
3604.02,4.69
3640.06,4.71
3676.46,4.48
3713.22,4.37
3750.36,4.35
3787.86,4.28
3825.74,4.21
3864.00,4.29
3902.64,4.14
3941.66,4.06
3981.08,4.12
4020.89,4.14
4061.10,4.17
4101.71,4.23
4142.73,4.22
4184.15,4.23
4226.00,4.28
4268.26,4.15
4310.94,3.97
4354.05,3.88
4397.59,4.02
4441.56,4.06
4485.98,4.09
4530.84,4.07
4576.15,4.12
4621.91,4.19
4668.13,4.21
4714.81,4.30
4761.96,4.29
4809.58,4.30
4857.67,4.43
4906.25,4.56
4955.31,4.54
5004.87,4.65
5054.91,4.79
5105.46,4.89
5156.52,4.95
5208.08,5.14
5260.16,5.42
5312.77,5.81
5365.89,6.14
5419.55,6.39
5473.75,6.61
5528.49,6.92
5583.77,7.21
5639.61,7.39
5696.00,7.54
5752.96,7.87
5810.49,8.07
5868.60,8.25
5927.28,8.37
5986.56,8.22
6046.42,8.14
6106.89,8.15
6167.96,8.18
6229.64,7.87
6291.93,7.43
6354.85,7.19
6418.40,7.29
6482.58,7.37
6547.41,7.12
6612.88,6.88
6679.01,6.57
6745.80,6.33
6813.26,5.91
6881.39,5.86
6950.21,5.94
7019.71,6.05
7089.91,5.92
7160.81,5.74
7232.41,5.78
7304.74,5.86
7377.79,5.85
7451.56,5.77
7526.08,5.58
7601.34,5.37
7677.35,5.58
7754.13,5.74
7831.67,5.61
7909.98,5.52
7989.08,5.71
8068.98,6.06
8149.67,6.19
8231.16,6.28
8313.47,6.43
8396.61,5.99
8480.57,5.11
8565.38,3.73
8651.03,2.58
8737.54,1.76
8824.92,0.94
8913.17,0.21
9002.30,-0.40
9092.32,-1.61
9183.25,-2.57
9275.08,-3.01
9367.83,-4.21
9461.51,-5.28
9556.12,-6.01
9651.68,-6.52
9748.20,-7.18
9845.68,-8.17
9944.14,-9.02
10043.58,-9.91
10144.02,-10.68
10245.46,-11.33
10347.91,-11.78
10451.39,-12.32
10555.91,-13.00
10661.46,-13.55
10768.08,-14.12
10875.76,-14.29
10984.52,-14.20
11094.36,-14.14
11205.31,-13.75
11317.36,-13.50
11430.53,-13.50
11544.84,-13.65
11660.29,-13.44
11776.89,-12.98
11894.66,-12.81
12013.60,-13.17
12133.74,-13.26
12255.08,-12.35
12377.63,-11.46
12501.41,-11.25
12626.42,-11.93
12752.68,-11.92
12880.21,-11.99
13009.01,-11.88
13139.10,-11.54
13270.49,-11.36
13403.20,-12.14
13537.23,-12.81
13672.60,-11.75
13809.33,-11.27
13947.42,-10.86
14086.90,-9.95
14227.77,-9.41
14370.04,-8.85
14513.74,-8.18
14658.88,-7.46
14805.47,-6.84
14953.52,-6.73
15103.06,-7.09
15254.09,-7.29
15406.63,-7.69
15560.70,-8.44
15716.30,-8.86
15873.47,-9.18
16032.20,-9.59
16192.52,-9.72
16354.45,-9.81
16517.99,-10.08
16683.17,-10.44
16850.01,-10.75
17018.51,-11.24
17188.69,-11.80
17360.58,-12.27
17534.18,-12.86
17709.53,-13.44
17886.62,-13.98
18065.49,-14.59
18246.14,-15.43
18428.60,-16.49
18612.89,-17.09
18799.02,-17.30
18987.01,-19.09
19176.88,-20.50
19368.65,-21.19
19562.33,-21.54
19757.96,-22.35
19955.54,-22.12
