frequency,raw,error,smoothed,error_smoothed,equalization,parametric_eq,fixed_band_eq,equalized_raw,equalized_smoothed,target
20.00,0.96,-7.41,0.95,-7.42,6.00,6.18,2.32,6.96,6.95,8.37
20.20,0.99,-7.38,1.00,-7.37,6.00,6.17,2.39,6.99,7.00,8.37
20.40,1.03,-7.34,1.05,-7.33,6.00,6.17,2.47,7.03,7.05,8.37
20.61,1.10,-7.27,1.10,-7.28,6.00,6.16,2.54,7.10,7.10,8.37
20.81,1.16,-7.21,1.15,-7.22,6.00,6.15,2.62,7.16,7.15,8.37
21.02,1.20,-7.17,1.21,-7.17,6.00,6.14,2.69,7.20,7.21,8.37
21.23,1.25,-7.12,1.25,-7.12,6.00,6.13,2.78,7.25,7.25,8.37
21.44,1.30,-7.07,1.30,-7.07,6.00,6.12,2.86,7.30,7.30,8.37
21.66,1.36,-7.01,1.36,-7.01,6.00,6.11,2.94,7.36,7.36,8.37
21.87,1.42,-6.95,1.42,-6.95,6.00,6.09,3.03,7.42,7.42,8.37
22.09,1.48,-6.89,1.48,-6.89,6.00,6.08,3.12,7.48,7.48,8.37
22.31,1.53,-6.84,1.54,-6.83,6.00,6.07,3.22,7.53,7.54,8.37
22.54,1.59,-6.78,1.59,-6.78,6.00,6.05,3.31,7.59,7.59,8.37
22.76,1.65,-6.72,1.65,-6.72,6.00,6.03,3.41,7.65,7.65,8.37
22.99,1.70,-6.67,1.71,-6.66,6.00,6.02,3.51,7.70,7.71,8.37
23.22,1.76,-6.61,1.76,-6.61,6.00,6.00,3.61,7.76,7.76,8.37
23.45,1.81,-6.55,1.81,-6.55,6.00,5.98,3.72,7.81,7.81,8.37
23.69,1.86,-6.50,1.87,-6.50,6.00,5.96,3.83,7.86,7.87,8.37
23.92,1.92,-6.44,1.92,-6.45,6.00,5.94,3.94,7.92,7.92,8.37
24.16,1.97,-6.39,1.97,-6.39,6.00,5.92,4.05,7.97,7.97,8.36
24.40,2.03,-6.33,2.03,-6.33,6.00,5.90,4.16,8.04,8.03,8.36
24.65,2.08,-6.28,2.09,-6.28,6.01,5.87,4.28,8.09,8.09,8.36
24.89,2.14,-6.22,2.14,-6.22,6.01,5.85,4.39,8.15,8.15,8.36
25.14,2.19,-6.17,2.19,-6.17,6.01,5.82,4.51,8.20,8.20,8.36
25.39,2.23,-6.13,2.24,-6.12,6.00,5.80,4.63,8.24,8.24,8.36
25.65,2.28,-6.08,2.29,-6.07,5.99,5.77,4.75,8.27,8.28,8.36
25.91,2.34,-6.02,2.34,-6.02,5.97,5.75,4.87,8.31,8.31,8.36
26.16,2.40,-5.96,2.39,-5.96,5.94,5.72,4.99,8.35,8.34,8.36
26.43,2.44,-5.92,2.44,-5.91,5.91,5.69,5.11,8.35,8.35,8.36
26.69,2.49,-5.86,2.49,-5.86,5.87,5.66,5.23,8.36,8.36,8.36
26.96,2.54,-5.81,2.54,-5.81,5.82,5.63,5.34,8.36,8.36,8.36
27.23,2.60,-5.75,2.60,-5.76,5.77,5.61,5.46,8.37,8.37,8.35
27.50,2.65,-5.70,2.65,-5.71,5.71,5.57,5.57,8.37,8.36,8.35
27.77,2.69,-5.66,2.70,-5.65,5.66,5.54,5.67,8.35,8.36,8.35
28.05,2.74,-5.61,2.74,-5.61,5.61,5.51,5.78,8.35,8.35,8.35
28.33,2.79,-5.56,2.79,-5.56,5.56,5.48,5.87,8.35,8.35,8.35
28.62,2.83,-5.52,2.84,-5.51,5.51,5.45,5.97,8.34,8.34,8.35
28.90,2.88,-5.46,2.89,-5.46,5.46,5.41,6.05,8.34,8.35,8.35
29.19,2.94,-5.40,2.94,-5.41,5.41,5.38,6.13,8.35,8.34,8.35
29.48,2.99,-5.35,2.99,-5.36,5.36,5.34,6.20,8.35,8.35,8.34
29.78,3.02,-5.32,3.04,-5.31,5.31,5.31,6.26,8.33,8.34,8.34
30.08,3.09,-5.25,3.08,-5.26,5.26,5.27,6.31,8.35,8.34,8.34
30.38,3.13,-5.21,3.13,-5.21,5.21,5.24,6.35,8.34,8.34,8.34
30.68,3.18,-5.16,3.18,-5.15,5.16,5.20,6.38,8.34,8.34,8.34
30.99,3.23,-5.10,3.23,-5.11,5.11,5.16,6.40,8.34,8.33,8.34
31.30,3.27,-5.06,3.28,-5.06,5.06,5.13,6.41,8.33,8.33,8.33
31.61,3.32,-5.01,3.32,-5.01,5.01,5.09,6.41,8.33,8.33,8.33
31.93,3.37,-4.96,3.37,-4.96,4.96,5.05,6.39,8.33,8.33,8.33
32.24,3.41,-4.91,3.42,-4.91,4.91,5.01,6.37,8.33,8.33,8.33
32.57,3.46,-4.86,3.46,-4.86,4.87,4.97,6.34,8.33,8.33,8.33
32.89,3.50,-4.82,3.50,-4.82,4.82,4.93,6.29,8.32,8.32,8.32
33.22,3.55,-4.77,3.55,-4.77,4.77,4.89,6.24,8.33,8.32,8.32
33.55,3.58,-4.74,3.59,-4.73,4.73,4.85,6.18,8.31,8.32,8.32
33.89,3.64,-4.67,3.63,-4.68,4.68,4.81,6.11,8.32,8.32,8.32
34.23,3.67,-4.64,3.68,-4.64,4.63,4.77,6.04,8.31,8.31,8.31
34.57,3.72,-4.59,3.72,-4.59,4.59,4.73,5.95,8.31,8.31,8.31
34.92,3.76,-4.55,3.77,-4.54,4.54,4.69,5.87,8.30,8.31,8.31
35.27,3.81,-4.49,3.81,-4.49,4.49,4.64,5.77,8.30,8.30,8.30
35.62,3.86,-4.44,3.86,-4.44,4.45,4.60,5.68,8.31,8.30,8.30
35.97,3.89,-4.41,3.90,-4.40,4.40,4.56,5.58,8.29,8.30,8.30
36.33,3.95,-4.34,3.94,-4.35,4.35,4.51,5.48,8.31,8.30,8.29
36.70,3.98,-4.31,3.98,-4.31,4.31,4.47,5.37,8.29,8.29,8.29
37.06,4.02,-4.26,4.02,-4.26,4.26,4.43,5.26,8.29,8.29,8.29
37.43,4.06,-4.22,4.06,-4.22,4.22,4.38,5.16,8.28,8.28,8.28
37.81,4.09,-4.19,4.10,-4.18,4.17,4.34,5.05,8.27,8.28,8.28
38.19,4.15,-4.12,4.14,-4.13,4.13,4.29,4.94,8.28,8.27,8.28
38.57,4.18,-4.09,4.19,-4.08,4.09,4.25,4.84,8.27,8.27,8.27
38.95,4.23,-4.03,4.23,-4.04,4.04,4.21,4.73,8.27,8.27,8.27
39.34,4.26,-4.00,4.27,-4.00,4.00,4.16,4.63,8.26,8.26,8.26
39.74,4.30,-3.96,4.31,-3.95,3.95,4.11,4.53,8.25,8.26,8.26
40.14,4.35,-3.90,4.34,-3.91,3.91,4.07,4.42,8.26,8.25,8.25
40.54,4.38,-3.86,4.38,-3.86,3.86,4.02,4.33,8.24,8.25,8.25
40.94,4.42,-3.82,4.42,-3.82,3.82,3.98,4.23,8.24,8.24,8.24
41.35,4.46,-3.77,4.46,-3.78,3.77,3.93,4.14,8.24,8.23,8.24
41.76,4.50,-3.73,4.50,-3.73,3.73,3.89,4.04,8.23,8.23,8.23
42.18,4.53,-3.69,4.54,-3.69,3.68,3.84,3.96,8.22,8.22,8.22
42.60,4.58,-3.64,4.58,-3.64,3.64,3.79,3.87,8.22,8.22,8.22
43.03,4.61,-3.60,4.62,-3.60,3.60,3.75,3.79,8.21,8.21,8.21
43.46,4.65,-3.55,4.66,-3.55,3.55,3.70,3.71,8.20,8.21,8.20
43.90,4.70,-3.50,4.69,-3.50,3.51,3.65,3.63,8.21,8.20,8.20
44.33,4.73,-3.46,4.73,-3.46,3.46,3.61,3.55,8.20,8.20,8.19
44.78,4.76,-3.42,4.77,-3.41,3.42,3.56,3.48,8.18,8.19,8.18
45.23,4.81,-3.36,4.81,-3.37,3.37,3.51,3.41,8.18,8.17,8.17
45.68,4.85,-3.31,4.85,-3.32,3.31,3.47,3.34,8.16,8.16,8.17
46.13,4.88,-3.27,4.89,-3.27,3.25,3.42,3.28,8.13,8.14,8.16
46.60,4.94,-3.21,4.94,-3.20,3.18,3.37,3.22,8.12,8.12,8.15
47.06,5.01,-3.13,5.01,-3.13,3.11,3.32,3.16,8.12,8.12,8.14
47.53,5.09,-3.04,5.09,-3.04,3.03,3.28,3.10,8.12,8.12,8.13
48.01,5.17,-2.95,5.17,-2.95,2.96,3.23,3.05,8.13,8.12,8.12
48.49,5.23,-2.88,5.23,-2.88,2.90,3.18,3.00,8.13,8.13,8.11
48.97,5.27,-2.83,5.28,-2.82,2.85,3.13,2.95,8.12,8.13,8.10
49.46,5.32,-2.77,5.30,-2.78,2.81,3.09,2.90,8.14,8.12,8.09
49.96,5.30,-2.77,5.31,-2.77,2.80,3.04,2.86,8.10,8.11,8.08
50.46,5.28,-2.78,5.29,-2.78,2.80,2.99,2.81,8.08,8.09,8.07
50.96,5.25,-2.80,5.25,-2.81,2.81,2.94,2.77,8.06,8.06,8.05
51.47,5.21,-2.83,5.21,-2.83,2.82,2.90,2.73,8.03,8.03,8.04
51.99,5.16,-2.86,5.17,-2.86,2.83,2.85,2.70,7.99,8.00,8.03
52.51,5.14,-2.87,5.15,-2.87,2.83,2.80,2.66,7.97,7.98,8.01
53.03,5.14,-2.86,5.15,-2.85,2.82,2.75,2.62,7.96,7.97,8.00
53.56,5.18,-2.80,5.17,-2.81,2.80,2.71,2.59,7.98,7.97,7.99
54.10,5.21,-2.76,5.21,-2.76,2.76,2.66,2.55,7.98,7.97,7.97
54.64,5.24,-2.71,5.25,-2.71,2.72,2.61,2.52,7.96,7.97,7.95
55.18,5.28,-2.66,5.28,-2.66,2.67,2.56,2.49,7.95,7.95,7.94
55.74,5.31,-2.61,5.31,-2.61,2.62,2.52,2.46,7.93,7.93,7.92
56.29,5.34,-2.56,5.34,-2.56,2.57,2.47,2.42,7.91,7.91,7.90
56.86,5.37,-2.51,5.37,-2.52,2.52,2.42,2.39,7.89,7.89,7.89
57.42,5.40,-2.47,5.40,-2.47,2.47,2.37,2.36,7.87,7.87,7.87
58.00,5.42,-2.43,5.43,-2.42,2.42,2.33,2.33,7.85,7.85,7.85
58.58,5.46,-2.37,5.45,-2.38,2.38,2.28,2.29,7.84,7.83,7.83
59.16,5.46,-2.35,5.47,-2.34,2.33,2.23,2.26,7.79,7.81,7.81
59.76,5.51,-2.28,5.50,-2.29,2.29,2.18,2.22,7.80,7.79,7.79
60.35,5.51,-2.25,5.52,-2.24,2.24,2.14,2.19,7.75,7.76,7.77
60.96,5.56,-2.18,5.55,-2.19,2.20,2.09,2.15,7.76,7.75,7.75
61.57,5.56,-2.16,5.57,-2.15,2.15,2.04,2.11,7.72,7.72,7.72
62.18,5.60,-2.10,5.59,-2.11,2.11,1.99,2.07,7.71,7.70,7.70
62.80,5.60,-2.07,5.61,-2.06,2.06,1.95,2.03,7.66,7.67,7.67
63.43,5.63,-2.02,5.63,-2.02,2.02,1.90,1.99,7.65,7.65,7.65
64.07,5.65,-1.97,5.65,-1.97,1.97,1.85,1.94,7.62,7.62,7.62
64.71,5.66,-1.93,5.67,-1.93,1.93,1.80,1.90,7.59,7.60,7.60
65.35,5.70,-1.87,5.69,-1.88,1.88,1.76,1.85,7.58,7.57,7.57
66.01,5.70,-1.84,5.71,-1.83,1.83,1.71,1.80,7.54,7.55,7.54
66.67,5.73,-1.78,5.72,-1.79,1.79,1.66,1.75,7.52,7.51,7.51
67.33,5.74,-1.74,5.74,-1.74,1.74,1.61,1.70,7.48,7.48,7.48
68.01,5.74,-1.71,5.76,-1.69,1.69,1.57,1.65,7.43,7.45,7.45
68.69,5.79,-1.63,5.77,-1.65,1.64,1.52,1.59,7.44,7.41,7.42
69.37,5.79,-1.60,5.79,-1.60,1.60,1.47,1.54,7.39,7.39,7.39
70.07,5.79,-1.56,5.81,-1.54,1.55,1.43,1.48,7.34,7.36,7.36
70.77,5.84,-1.48,5.82,-1.50,1.50,1.38,1.43,7.34,7.32,7.32
71.48,5.84,-1.44,5.84,-1.45,1.45,1.33,1.37,7.29,7.29,7.29
72.19,5.84,-1.41,5.85,-1.40,1.40,1.28,1.31,7.24,7.25,7.25
72.91,5.85,-1.36,5.86,-1.36,1.35,1.24,1.25,7.21,7.21,7.22
73.64,5.88,-1.30,5.87,-1.31,1.30,1.19,1.19,7.19,7.17,7.18
74.38,5.88,-1.26,5.88,-1.26,1.25,1.14,1.13,7.14,7.14,7.14
75.12,5.88,-1.22,5.90,-1.20,1.20,1.09,1.07,7.09,7.10,7.10
75.87,5.92,-1.14,5.91,-1.15,1.15,1.05,1.01,7.07,7.06,7.06
76.63,5.93,-1.09,5.93,-1.10,1.10,1.00,0.95,7.03,7.02,7.02
77.40,5.93,-1.05,5.93,-1.04,1.04,0.95,0.89,6.98,6.98,6.98
78.17,5.93,-1.00,5.94,-0.99,0.99,0.90,0.83,6.92,6.93,6.94
78.95,5.95,-0.94,5.96,-0.94,0.94,0.85,0.77,6.89,6.89,6.89
79.74,5.98,-0.87,5.97,-0.88,0.88,0.81,0.70,6.86,6.85,6.85
80.54,5.98,-0.82,5.98,-0.82,0.83,0.76,0.64,6.81,6.81,6.80
81.35,5.98,-0.78,5.98,-0.78,0.77,0.71,0.58,6.76,6.76,6.76
82.16,5.98,-0.73,5.99,-0.72,0.72,0.66,0.52,6.70,6.71,6.71
82.98,5.99,-0.67,6.00,-0.67,0.66,0.61,0.46,6.66,6.66,6.66
83.81,6.02,-0.59,6.01,-0.60,0.61,0.57,0.39,6.63,6.62,6.62
84.65,6.02,-0.55,6.02,-0.55,0.55,0.52,0.33,6.58,6.58,6.57
85.50,6.02,-0.50,6.02,-0.50,0.50,0.47,0.27,6.52,6.52,6.52
86.35,6.02,-0.45,6.02,-0.45,0.44,0.42,0.21,6.46,6.46,6.47
87.22,6.02,-0.39,6.03,-0.39,0.38,0.37,0.15,6.40,6.41,6.42
88.09,6.04,-0.32,6.05,-0.32,0.32,0.32,0.09,6.36,6.36,6.37
88.97,6.07,-0.24,6.06,-0.25,0.26,0.27,0.02,6.33,6.32,6.31
89.86,6.07,-0.19,6.07,-0.19,0.20,0.23,-0.04,6.27,6.27,6.26
90.76,6.07,-0.14,6.08,-0.13,0.14,0.18,-0.10,6.21,6.22,6.21
91.66,6.07,-0.08,6.07,-0.08,0.08,0.13,-0.16,6.16,6.16,6.15
92.58,6.07,-0.03,6.07,-0.03,0.03,0.08,-0.22,6.10,6.10,6.10
93.51,6.07,0.03,6.07,0.03,-0.03,0.03,-0.29,6.04,6.04,6.04
94.44,6.07,0.08,6.07,0.08,-0.09,-0.02,-0.35,5.98,5.98,5.99
95.39,6.07,0.14,6.07,0.14,-0.15,-0.07,-0.41,5.92,5.92,5.93
96.34,6.07,0.20,6.08,0.20,-0.21,-0.12,-0.47,5.86,5.87,5.88
97.30,6.09,0.27,6.10,0.28,-0.28,-0.17,-0.53,5.81,5.82,5.82
98.28,6.12,0.36,6.11,0.35,-0.34,-0.22,-0.60,5.78,5.77,5.76
99.26,6.12,0.42,6.12,0.42,-0.41,-0.27,-0.66,5.71,5.71,5.71
100.25,6.12,0.47,6.13,0.48,-0.47,-0.32,-0.72,5.65,5.65,5.65
101.25,6.12,0.53,6.12,0.53,-0.53,-0.37,-0.78,5.59,5.59,5.59
102.27,6.12,0.59,6.12,0.59,-0.59,-0.42,-0.84,5.54,5.54,5.53
103.29,6.12,0.65,6.12,0.64,-0.64,-0.47,-0.90,5.49,5.48,5.48
104.32,6.11,0.69,6.11,0.69,-0.69,-0.52,-0.96,5.43,5.42,5.42
105.37,6.09,0.73,6.09,0.73,-0.74,-0.57,-1.02,5.36,5.36,5.36
106.42,6.07,0.77,6.08,0.78,-0.79,-0.62,-1.07,5.29,5.29,5.30
107.48,6.07,0.83,6.07,0.83,-0.84,-0.67,-1.13,5.24,5.23,5.24
108.56,6.07,0.89,6.07,0.88,-0.89,-0.72,-1.19,5.18,5.18,5.19
109.64,6.07,0.94,6.07,0.94,-0.94,-0.77,-1.24,5.13,5.13,5.13
110.74,6.07,1.00,6.07,1.00,-1.00,-0.82,-1.29,5.07,5.07,5.07
111.85,6.07,1.06,6.07,1.06,-1.06,-0.87,-1.34,5.01,5.01,5.01
112.97,6.07,1.11,6.07,1.11,-1.11,-0.92,-1.39,4.96,4.96,4.96
114.10,6.07,1.17,6.07,1.17,-1.17,-0.97,-1.44,4.91,4.91,4.90
115.24,6.07,1.23,6.07,1.23,-1.22,-1.02,-1.49,4.85,4.86,4.84
116.39,6.07,1.28,6.06,1.28,-1.27,-1.06,-1.53,4.80,4.80,4.79
117.55,6.05,1.32,6.05,1.32,-1.32,-1.11,-1.57,4.74,4.73,4.73
118.73,6.02,1.34,6.03,1.36,-1.36,-1.16,-1.61,4.66,4.67,4.68
119.92,6.02,1.40,6.02,1.40,-1.41,-1.21,-1.64,4.61,4.61,4.62
121.12,6.02,1.45,6.02,1.45,-1.46,-1.26,-1.67,4.57,4.56,4.57
122.33,6.02,1.51,6.02,1.51,-1.50,-1.31,-1.70,4.52,4.52,4.52
123.55,6.02,1.56,6.02,1.55,-1.55,-1.36,-1.73,4.47,4.47,4.46
124.79,6.01,1.60,6.01,1.60,-1.59,-1.40,-1.75,4.42,4.41,4.41
126.03,5.98,1.62,5.99,1.63,-1.64,-1.45,-1.77,4.34,4.36,4.36
127.29,5.98,1.67,5.99,1.68,-1.68,-1.50,-1.79,4.30,4.31,4.31
128.57,5.98,1.72,5.98,1.72,-1.72,-1.54,-1.80,4.26,4.26,4.26
129.85,5.98,1.77,5.97,1.76,-1.75,-1.59,-1.82,4.23,4.21,4.21
131.15,5.93,1.77,5.95,1.80,-1.79,-1.63,-1.82,4.14,4.17,4.16
132.46,5.93,1.82,5.93,1.82,-1.82,-1.67,-1.83,4.11,4.11,4.11
133.79,5.93,1.87,5.91,1.85,-1.86,-1.72,-1.83,4.08,4.05,4.06
135.12,5.88,1.87,5.90,1.88,-1.89,-1.76,-1.84,3.99,4.01,4.02
136.48,5.88,1.91,5.89,1.92,-1.92,-1.80,-1.84,3.96,3.97,3.97
137.84,5.88,1.96,5.87,1.94,-1.95,-1.84,-1.83,3.93,3.92,3.93
139.22,5.86,1.98,5.87,1.99,-1.98,-1.88,-1.83,3.89,3.89,3.88
140.61,5.84,2.01,5.85,2.01,-2.00,-1.92,-1.83,3.84,3.85,3.84
142.02,5.84,2.05,5.83,2.03,-2.03,-1.96,-1.82,3.82,3.80,3.79
143.44,5.79,2.04,5.80,2.05,-2.05,-1.99,-1.81,3.74,3.75,3.75
144.87,5.78,2.07,5.78,2.07,-2.07,-2.03,-1.80,3.71,3.71,3.71
146.32,5.74,2.07,5.75,2.08,-2.09,-2.06,-1.80,3.65,3.66,3.67
147.78,5.74,2.11,5.73,2.10,-2.11,-2.10,-1.79,3.63,3.63,3.63
149.26,5.71,2.12,5.72,2.12,-2.13,-2.13,-1.78,3.59,3.59,3.59
150.75,5.70,2.15,5.71,2.15,-2.15,-2.16,-1.77,3.55,3.56,3.56
152.26,5.70,2.18,5.69,2.17,-2.17,-2.18,-1.76,3.53,3.52,3.52
153.78,5.66,2.18,5.67,2.19,-2.19,-2.21,-1.75,3.47,3.48,3.48
155.32,5.65,2.20,5.66,2.21,-2.21,-2.24,-1.74,3.44,3.45,3.45
156.88,5.65,2.24,5.64,2.23,-2.23,-2.26,-1.73,3.42,3.42,3.41
158.44,5.63,2.25,5.63,2.25,-2.24,-2.28,-1.73,3.39,3.39,3.38
160.03,5.60,2.25,5.61,2.26,-2.25,-2.30,-1.72,3.35,3.36,3.35
161.63,5.58,2.26,5.58,2.26,-2.26,-2.32,-1.72,3.32,3.32,3.32
163.24,5.56,2.28,5.56,2.27,-2.27,-2.34,-1.71,3.29,3.29,3.29
164.88,5.51,2.26,5.53,2.27,-2.27,-2.35,-1.71,3.24,3.25,3.26
166.53,5.51,2.28,5.50,2.27,-2.27,-2.37,-1.71,3.24,3.22,3.23
168.19,5.46,2.26,5.47,2.27,-2.27,-2.38,-1.71,3.19,3.20,3.20
169.87,5.44,2.27,5.44,2.27,-2.27,-2.39,-1.71,3.17,3.18,3.17
171.57,5.41,2.27,5.41,2.26,-2.26,-2.40,-1.71,3.15,3.14,3.15
173.29,5.37,2.25,5.37,2.25,-2.25,-2.40,-1.72,3.12,3.12,3.12
175.02,5.33,2.24,5.34,2.25,-2.24,-2.41,-1.72,3.09,3.10,3.09
176.77,5.30,2.23,5.30,2.23,-2.23,-2.41,-1.73,3.07,3.07,3.07
178.54,5.27,2.23,5.26,2.22,-2.21,-2.41,-1.74,3.06,3.05,3.05
180.32,5.21,2.19,5.22,2.20,-2.20,-2.41,-1.75,3.01,3.03,3.02
182.13,5.18,2.18,5.18,2.18,-2.18,-2.41,-1.76,3.00,3.00,3.00
183.95,5.14,2.16,5.14,2.16,-2.16,-2.40,-1.77,2.98,2.97,2.98
185.79,5.10,2.15,5.10,2.15,-2.15,-2.40,-1.79,2.95,2.96,2.96
187.65,5.06,2.13,5.07,2.13,-2.13,-2.39,-1.80,2.93,2.93,2.94
189.52,5.04,2.13,5.04,2.12,-2.12,-2.38,-1.82,2.92,2.92,2.92
191.42,5.00,2.10,5.01,2.11,-2.12,-2.37,-1.84,2.89,2.89,2.90
193.33,5.00,2.12,4.99,2.11,-2.11,-2.36,-1.85,2.89,2.87,2.88
195.27,4.95,2.09,4.97,2.11,-2.11,-2.34,-1.87,2.84,2.85,2.86
197.22,4.95,2.11,4.96,2.11,-2.11,-2.33,-1.90,2.84,2.84,2.84
199.19,4.95,2.13,4.94,2.12,-2.12,-2.31,-1.92,2.84,2.83,2.83
201.18,4.94,2.13,4.93,2.12,-2.12,-2.29,-1.94,2.82,2.82,2.81
203.19,4.90,2.11,4.92,2.12,-2.12,-2.27,-1.96,2.78,2.80,2.79
205.23,4.90,2.12,4.90,2.12,-2.12,-2.25,-1.99,2.79,2.78,2.78
207.28,4.88,2.12,4.88,2.11,-2.11,-2.23,-2.01,2.77,2.77,2.77
209.35,4.86,2.11,4.86,2.11,-2.11,-2.20,-2.03,2.76,2.76,2.75
211.44,4.83,2.10,4.83,2.10,-2.10,-2.18,-2.06,2.74,2.74,2.74
213.56,4.81,2.09,4.81,2.09,-2.09,-2.15,-2.08,2.73,2.72,2.72
215.69,4.77,2.06,4.78,2.07,-2.07,-2.12,-2.10,2.70,2.71,2.71
217.85,4.77,2.07,4.76,2.06,-2.06,-2.10,-2.13,2.71,2.70,2.70
220.03,4.72,2.04,4.73,2.05,-2.05,-2.07,-2.15,2.68,2.69,2.69
222.23,4.72,2.05,4.71,2.03,-2.03,-2.04,-2.17,2.69,2.68,2.68
224.45,4.67,2.01,4.68,2.02,-2.02,-2.01,-2.19,2.66,2.66,2.66
226.70,4.66,2.01,4.66,2.01,-2.01,-1.98,-2.20,2.66,2.66,2.65
228.96,4.63,1.99,4.64,1.99,-2.00,-1.94,-2.22,2.64,2.64,2.64
231.25,4.63,2.00,4.62,1.98,-1.99,-1.91,-2.23,2.64,2.63,2.63
233.57,4.58,1.96,4.60,1.97,-1.98,-1.88,-2.24,2.60,2.61,2.62
235.90,4.58,1.97,4.58,1.97,-1.98,-1.85,-2.24,2.60,2.60,2.61
238.26,4.58,1.98,4.58,1.98,-1.98,-1.81,-2.25,2.60,2.60,2.61
240.64,4.58,1.99,4.58,1.98,-1.97,-1.78,-2.25,2.61,2.61,2.60
243.05,4.58,1.99,4.57,1.98,-1.97,-1.74,-2.25,2.61,2.60,2.59
245.48,4.53,1.95,4.55,1.97,-1.96,-1.71,-2.24,2.57,2.58,2.58
247.93,4.53,1.96,4.52,1.95,-1.95,-1.67,-2.23,2.58,2.57,2.57
250.41,4.49,1.93,4.50,1.93,-1.93,-1.64,-2.22,2.56,2.57,2.57
252.92,4.48,1.92,4.48,1.92,-1.91,-1.60,-2.20,2.57,2.56,2.56
255.45,4.44,1.89,4.44,1.89,-1.88,-1.56,-2.18,2.56,2.56,2.55
258.00,4.40,1.86,4.40,1.86,-1.86,-1.53,-2.16,2.55,2.55,2.54
260.58,4.36,1.82,4.36,1.82,-1.83,-1.49,-2.13,2.54,2.53,2.54
263.19,4.31,1.78,4.32,1.79,-1.80,-1.46,-2.10,2.52,2.52,2.53
265.82,4.28,1.76,4.28,1.76,-1.76,-1.42,-2.06,2.52,2.52,2.53
268.48,4.25,1.73,4.25,1.73,-1.73,-1.38,-2.03,2.52,2.52,2.52
271.16,4.22,1.71,4.22,1.70,-1.70,-1.35,-1.99,2.52,2.52,2.52
273.87,4.18,1.67,4.18,1.67,-1.66,-1.31,-1.94,2.52,2.52,2.51
276.61,4.13,1.63,4.14,1.63,-1.63,-1.27,-1.90,2.50,2.51,2.50
279.38,4.09,1.59,4.09,1.59,-1.59,-1.24,-1.85,2.50,2.50,2.50
282.17,4.05,1.56,4.05,1.55,-1.55,-1.20,-1.80,2.50,2.50,2.50
284.99,4.00,1.51,4.01,1.51,-1.51,-1.16,-1.75,2.49,2.49,2.49
287.84,3.96,1.48,3.96,1.47,-1.47,-1.13,-1.70,2.49,2.49,2.49
290.72,3.91,1.43,3.91,1.43,-1.43,-1.09,-1.64,2.48,2.48,2.48
293.63,3.87,1.39,3.87,1.39,-1.40,-1.06,-1.58,2.48,2.47,2.48
296.57,3.82,1.35,3.83,1.36,-1.36,-1.02,-1.53,2.47,2.47,2.47
299.53,3.79,1.32,3.79,1.32,-1.32,-0.98,-1.47,2.47,2.47,2.47
302.53,3.76,1.30,3.75,1.29,-1.28,-0.95,-1.41,2.48,2.47,2.47
305.55,3.70,1.24,3.71,1.25,-1.25,-0.91,-1.35,2.46,2.47,2.46
308.61,3.67,1.21,3.67,1.21,-1.21,-0.88,-1.29,2.46,2.46,2.46
311.69,3.62,1.17,3.63,1.17,-1.17,-0.84,-1.23,2.45,2.46,2.46
314.81,3.59,1.14,3.59,1.14,-1.14,-0.81,-1.17,2.46,2.45,2.45
317.96,3.56,1.11,3.55,1.10,-1.10,-0.77,-1.11,2.46,2.45,2.45
321.14,3.50,1.05,3.51,1.06,-1.06,-0.74,-1.05,2.44,2.45,2.45
324.35,3.47,1.03,3.47,1.02,-1.02,-0.70,-0.99,2.45,2.45,2.45
327.59,3.42,0.98,3.42,0.98,-0.98,-0.67,-0.94,2.44,2.44,2.44
330.87,3.39,0.95,3.39,0.94,-0.94,-0.63,-0.88,2.45,2.44,2.44
334.18,3.33,0.89,3.34,0.90,-0.90,-0.60,-0.82,2.43,2.44,2.44
337.52,3.30,0.87,3.30,0.86,-0.86,-0.56,-0.76,2.44,2.44,2.44
340.90,3.25,0.82,3.25,0.82,-0.82,-0.53,-0.70,2.43,2.43,2.43
344.30,3.21,0.78,3.21,0.78,-0.78,-0.50,-0.64,2.43,2.43,2.43
347.75,3.16,0.73,3.16,0.73,-0.73,-0.46,-0.59,2.43,2.43,2.43
351.23,3.11,0.69,3.12,0.69,-0.69,-0.43,-0.53,2.43,2.43,2.43
354.74,3.07,0.65,3.07,0.64,-0.64,-0.39,-0.47,2.43,2.43,2.43
358.28,3.02,0.60,3.02,0.59,-0.59,-0.36,-0.42,2.43,2.43,2.42
361.87,2.96,0.54,2.96,0.54,-0.54,-0.33,-0.36,2.42,2.42,2.42
365.49,2.90,0.48,2.91,0.49,-0.49,-0.29,-0.31,2.41,2.42,2.42
369.14,2.86,0.44,2.85,0.44,-0.44,-0.26,-0.25,2.42,2.41,2.42
372.83,2.80,0.39,2.81,0.39,-0.39,-0.22,-0.20,2.41,2.41,2.42
376.56,2.76,0.35,2.76,0.35,-0.35,-0.19,-0.14,2.42,2.42,2.42
380.33,2.72,0.31,2.71,0.30,-0.30,-0.16,-0.09,2.42,2.41,2.41
384.13,2.66,0.25,2.67,0.26,-0.25,-0.12,-0.04,2.41,2.42,2.41
387.97,2.62,0.21,2.62,0.21,-0.21,-0.09,0.01,2.41,2.41,2.41
391.85,2.58,0.17,2.57,0.16,-0.17,-0.06,0.07,2.42,2.41,2.41
395.77,2.52,0.11,2.53,0.12,-0.12,-0.02,0.12,2.40,2.41,2.41
399.73,2.48,0.07,2.48,0.07,-0.08,0.01,0.17,2.41,2.41,2.41
403.72,2.44,0.04,2.43,0.03,-0.03,0.05,0.22,2.41,2.40,2.41
407.76,2.38,-0.02,2.39,-0.01,0.02,0.08,0.27,2.40,2.41,2.41
411.84,2.34,-0.06,2.34,-0.06,0.06,0.12,0.32,2.41,2.41,2.40
415.96,2.30,-0.10,2.30,-0.11,0.11,0.15,0.37,2.41,2.41,2.40
420.12,2.24,-0.16,2.25,-0.16,0.16,0.19,0.42,2.40,2.40,2.40
424.32,2.20,-0.20,2.19,-0.21,0.21,0.22,0.47,2.41,2.40,2.40
428.56,2.13,-0.27,2.14,-0.26,0.25,0.26,0.51,2.39,2.40,2.40
432.85,2.10,-0.30,2.10,-0.30,0.30,0.29,0.56,2.40,2.40,2.40
437.18,2.05,-0.35,2.05,-0.35,0.35,0.33,0.61,2.40,2.40,2.40
441.55,2.00,-0.40,2.00,-0.39,0.39,0.36,0.65,2.40,2.40,2.40
445.96,1.95,-0.45,1.96,-0.44,0.44,0.40,0.69,2.39,2.40,2.40
450.42,1.91,-0.48,1.91,-0.49,0.49,0.44,0.74,2.40,2.40,2.40
454.93,1.86,-0.53,1.86,-0.54,0.54,0.47,0.78,2.40,2.40,2.40
459.48,1.81,-0.58,1.81,-0.58,0.58,0.51,0.82,2.40,2.40,2.40
464.07,1.76,-0.63,1.77,-0.63,0.63,0.55,0.86,2.39,2.40,2.39
468.71,1.72,-0.67,1.71,-0.68,0.68,0.59,0.90,2.40,2.39,2.39
473.40,1.66,-0.73,1.67,-0.73,0.73,0.63,0.93,2.39,2.39,2.39
478.13,1.61,-0.78,1.62,-0.78,0.77,0.67,0.97,2.39,2.39,2.39
482.91,1.57,-0.82,1.57,-0.83,0.82,0.71,1.00,2.39,2.39,2.39
487.74,1.52,-0.87,1.52,-0.87,0.87,0.75,1.04,2.39,2.39,2.39
492.62,1.47,-0.92,1.48,-0.91,0.91,0.79,1.07,2.39,2.39,2.39
497.55,1.44,-0.95,1.43,-0.96,0.96,0.84,1.10,2.40,2.39,2.39
502.52,1.38,-1.01,1.39,-1.00,1.01,0.88,1.13,2.39,2.39,2.39
507.55,1.33,-1.06,1.34,-1.05,1.05,0.92,1.15,2.38,2.39,2.39
512.62,1.30,-1.09,1.29,-1.10,1.10,0.97,1.18,2.40,2.39,2.39
517.75,1.24,-1.15,1.25,-1.14,1.14,1.02,1.20,2.38,2.39,2.39
522.93,1.19,-1.20,1.20,-1.19,1.19,1.06,1.23,2.38,2.39,2.39
528.16,1.16,-1.23,1.15,-1.24,1.23,1.11,1.25,2.40,2.39,2.39
533.44,1.10,-1.29,1.11,-1.28,1.28,1.16,1.27,2.38,2.39,2.39
538.77,1.07,-1.32,1.07,-1.32,1.32,1.21,1.29,2.39,2.39,2.39
544.16,1.02,-1.37,1.02,-1.37,1.37,1.26,1.31,2.39,2.39,2.39
549.60,0.97,-1.41,0.98,-1.41,1.41,1.32,1.33,2.38,2.39,2.39
555.10,0.93,-1.45,0.93,-1.46,1.46,1.37,1.35,2.39,2.39,2.39
560.65,0.88,-1.50,0.88,-1.50,1.50,1.42,1.37,2.39,2.39,2.39
566.25,0.83,-1.55,0.84,-1.55,1.55,1.48,1.39,2.38,2.39,2.39
