frequency,raw,error,smoothed,error_smoothed,equalization,parametric_eq,fixed_band_eq,equalized_raw,equalized_smoothed,target
20.00,-23.48,-23.93,-23.47,-23.93,6.00,5.89,2.71,-17.48,-17.47,0.46
20.20,-23.34,-23.79,-23.34,-23.79,6.00,5.89,2.79,-17.34,-17.34,0.46
20.40,-23.19,-23.65,-23.20,-23.66,6.00,5.89,2.87,-17.19,-17.20,0.45
20.61,-23.06,-23.52,-23.06,-23.52,6.00,5.89,2.95,-17.06,-17.06,0.46
20.81,-22.92,-23.39,-22.92,-23.39,6.00,5.89,3.03,-16.92,-16.92,0.46
21.02,-22.79,-23.25,-22.78,-23.25,6.00,5.90,3.12,-16.79,-16.78,0.46
21.23,-22.64,-23.10,-22.64,-23.10,6.00,5.90,3.20,-16.64,-16.64,0.46
21.44,-22.48,-22.96,-22.49,-22.96,6.00,5.90,3.30,-16.48,-16.49,0.47
21.66,-22.34,-22.81,-22.34,-22.81,6.00,5.90,3.39,-16.34,-16.34,0.47
21.87,-22.18,-22.66,-22.18,-22.66,6.00,5.90,3.49,-16.18,-16.18,0.47
22.09,-22.02,-22.50,-22.03,-22.50,6.00,5.90,3.58,-16.02,-16.03,0.47
22.31,-21.86,-22.35,-21.87,-22.34,6.00,5.91,3.69,-15.86,-15.87,0.48
22.54,-21.72,-22.19,-21.71,-22.19,6.00,5.91,3.79,-15.72,-15.71,0.47
22.76,-21.55,-22.04,-21.56,-22.04,6.00,5.91,3.90,-15.55,-15.56,0.48
22.99,-21.40,-21.88,-21.40,-21.88,6.00,5.91,4.00,-15.40,-15.40,0.48
23.22,-21.24,-21.72,-21.24,-21.72,6.00,5.91,4.12,-15.24,-15.24,0.48
23.45,-21.08,-21.55,-21.08,-21.56,6.00,5.91,4.23,-15.08,-15.08,0.48
23.69,-20.93,-21.41,-20.92,-21.40,6.00,5.92,4.35,-14.93,-14.92,0.48
23.92,-20.76,-21.25,-20.77,-21.25,6.00,5.92,4.47,-14.76,-14.77,0.49
24.16,-20.61,-21.09,-20.62,-21.10,6.00,5.92,4.59,-14.61,-14.62,0.48
24.40,-20.46,-20.94,-20.46,-20.94,6.00,5.92,4.71,-14.46,-14.46,0.48
24.65,-20.32,-20.79,-20.31,-20.79,6.00,5.92,4.84,-14.32,-14.31,0.48
24.89,-20.15,-20.62,-20.16,-20.63,6.00,5.92,4.96,-14.15,-14.16,0.47
25.14,-20.01,-20.48,-20.01,-20.48,6.00,5.93,5.09,-14.01,-14.01,0.47
25.39,-19.86,-20.32,-19.87,-20.33,6.00,5.93,5.22,-13.86,-13.87,0.45
25.65,-19.73,-20.18,-19.73,-20.18,6.00,5.93,5.35,-13.73,-13.73,0.45
25.91,-19.58,-20.02,-19.57,-20.01,6.00,5.93,5.48,-13.58,-13.57,0.44
26.16,-19.39,-19.84,-19.39,-19.83,6.00,5.93,5.62,-13.39,-13.39,0.44
26.43,-19.20,-19.63,-19.20,-19.63,6.00,5.94,5.75,-13.20,-13.20,0.43
26.69,-19.00,-19.43,-18.99,-19.43,6.00,5.94,5.88,-13.00,-12.99,0.43
26.96,-18.79,-19.22,-18.81,-19.23,6.00,5.94,6.00,-12.79,-12.81,0.43
27.23,-18.64,-19.07,-18.64,-19.06,6.00,5.94,6.13,-12.64,-12.64,0.43
27.50,-18.50,-18.92,-18.49,-18.91,6.00,5.94,6.25,-12.50,-12.49,0.42
27.77,-18.35,-18.77,-18.35,-18.78,6.00,5.95,6.37,-12.35,-12.35,0.42
28.05,-18.22,-18.64,-18.22,-18.64,6.00,5.95,6.49,-12.22,-12.22,0.43
28.33,-18.09,-18.51,-18.09,-18.51,6.00,5.95,6.60,-12.09,-12.09,0.43
28.62,-17.96,-18.38,-17.96,-18.39,6.00,5.95,6.71,-11.96,-11.96,0.43
28.90,-17.83,-18.25,-17.82,-18.24,6.00,5.95,6.81,-11.83,-11.82,0.42
29.19,-17.66,-18.08,-17.65,-18.07,6.00,5.96,6.90,-11.66,-11.65,0.42
29.48,-17.46,-17.89,-17.47,-17.89,6.00,5.96,6.98,-11.46,-11.47,0.42
29.78,-17.28,-17.70,-17.28,-17.70,6.00,5.96,7.06,-11.28,-11.28,0.42
30.08,-17.10,-17.51,-17.11,-17.53,6.00,5.96,7.13,-11.10,-11.11,0.41
30.38,-16.97,-17.38,-16.97,-17.38,6.00,5.97,7.19,-10.97,-10.97,0.41
30.68,-16.85,-17.25,-16.85,-17.25,6.00,5.97,7.24,-10.85,-10.85,0.41
30.99,-16.73,-17.12,-16.71,-17.11,6.00,5.97,7.28,-10.73,-10.71,0.40
31.30,-16.54,-16.93,-16.54,-16.93,6.00,5.97,7.30,-10.54,-10.54,0.39
31.61,-16.35,-16.73,-16.35,-16.74,6.00,5.97,7.33,-10.35,-10.35,0.38
31.93,-16.15,-16.53,-16.15,-16.53,6.00,5.98,7.33,-10.15,-10.15,0.38
32.24,-15.96,-16.33,-15.96,-16.33,6.00,5.98,7.33,-9.96,-9.96,0.37
32.57,-15.78,-16.14,-15.77,-16.14,6.00,5.98,7.32,-9.78,-9.77,0.36
32.89,-15.58,-15.94,-15.59,-15.95,6.00,5.98,7.31,-9.58,-9.59,0.36
33.22,-15.42,-15.77,-15.42,-15.77,6.00,5.99,7.28,-9.42,-9.42,0.35
33.55,-15.25,-15.60,-15.25,-15.59,6.00,5.99,7.24,-9.25,-9.25,0.34
33.89,-15.10,-15.43,-15.10,-15.44,6.00,5.99,7.20,-9.10,-9.10,0.33
34.23,-14.96,-15.29,-14.96,-15.29,6.00,5.99,7.15,-8.96,-8.96,0.33
34.57,-14.83,-15.14,-14.82,-15.14,6.00,6.00,7.10,-8.83,-8.82,0.32
34.92,-14.69,-15.00,-14.68,-15.00,6.00,6.00,7.04,-8.69,-8.68,0.32
35.27,-14.52,-14.83,-14.52,-14.83,6.00,6.00,6.97,-8.52,-8.52,0.31
35.62,-14.34,-14.65,-14.34,-14.65,6.00,6.00,6.91,-8.34,-8.34,0.31
35.97,-14.15,-14.45,-14.16,-14.46,6.00,6.01,6.84,-8.15,-8.16,0.30
36.33,-13.98,-14.28,-13.99,-14.29,6.00,6.01,6.77,-7.98,-7.99,0.30
36.70,-13.83,-14.12,-13.82,-14.11,6.00,6.01,6.70,-7.83,-7.82,0.29
37.06,-13.65,-13.94,-13.65,-13.94,6.00,6.01,6.63,-7.65,-7.65,0.29
37.43,-13.46,-13.75,-13.46,-13.76,6.00,6.02,6.56,-7.46,-7.46,0.29
37.81,-13.28,-13.57,-13.28,-13.57,6.00,6.02,6.48,-7.28,-7.28,0.30
38.19,-13.10,-13.39,-13.10,-13.39,6.00,6.02,6.41,-7.10,-7.10,0.29
38.57,-12.95,-13.24,-12.94,-13.23,6.00,6.02,6.35,-6.95,-6.94,0.29
38.95,-12.78,-13.07,-12.80,-13.09,6.00,6.03,6.28,-6.78,-6.80,0.29
39.34,-12.69,-12.97,-12.70,-12.98,6.00,6.03,6.22,-6.69,-6.70,0.28
39.74,-12.61,-12.89,-12.59,-12.87,6.00,6.03,6.16,-6.61,-6.59,0.28
40.14,-12.49,-12.76,-12.46,-12.74,6.00,6.03,6.10,-6.49,-6.46,0.28
40.54,-12.30,-12.57,-12.30,-12.58,6.00,6.04,6.04,-6.30,-6.30,0.27
40.94,-12.12,-12.38,-12.14,-12.41,6.00,6.04,5.99,-6.12,-6.14,0.27
41.35,-12.01,-12.26,-12.00,-12.26,6.00,6.04,5.95,-6.01,-6.00,0.25
41.76,-11.91,-12.15,-11.90,-12.14,6.00,6.04,5.90,-5.91,-5.90,0.24
42.18,-11.82,-12.04,-11.82,-12.05,6.00,6.04,5.86,-5.82,-5.82,0.23
42.60,-11.72,-11.93,-11.72,-11.93,6.00,6.05,5.83,-5.72,-5.72,0.21
43.03,-11.62,-11.81,-11.58,-11.78,6.00,6.05,5.80,-5.62,-5.58,0.20
43.46,-11.42,-11.59,-11.42,-11.59,6.00,6.05,5.77,-5.42,-5.42,0.17
43.90,-11.23,-11.39,-11.25,-11.41,6.00,6.05,5.75,-5.23,-5.25,0.16
44.33,-11.10,-11.24,-11.10,-11.24,6.00,6.06,5.73,-5.10,-5.10,0.14
44.78,-11.00,-11.13,-10.99,-11.11,6.00,6.06,5.71,-5.00,-4.99,0.13
45.23,-10.90,-11.01,-10.88,-10.99,6.00,6.06,5.70,-4.90,-4.88,0.11
45.68,-10.79,-10.88,-10.80,-10.90,6.00,6.06,5.70,-4.79,-4.80,0.10
46.13,-10.72,-10.81,-10.75,-10.84,6.00,6.06,5.70,-4.72,-4.75,0.09
46.60,-10.72,-10.80,-10.71,-10.79,6.00,6.06,5.70,-4.72,-4.71,0.09
47.06,-10.70,-10.78,-10.67,-10.75,6.00,6.07,5.71,-4.70,-4.67,0.08
47.53,-10.58,-10.65,-10.58,-10.66,6.00,6.07,5.72,-4.58,-4.58,0.07
48.01,-10.45,-10.52,-10.44,-10.51,6.00,6.07,5.73,-4.45,-4.44,0.08
48.49,-10.25,-10.33,-10.25,-10.33,6.00,6.07,5.75,-4.25,-4.25,0.08
48.97,-10.05,-10.13,-10.03,-10.11,6.00,6.07,5.77,-4.05,-4.03,0.08
49.46,-9.84,-9.92,-9.82,-9.91,6.00,6.07,5.80,-3.84,-3.82,0.08
49.96,-9.62,-9.70,-9.67,-9.77,6.00,6.07,5.82,-3.62,-3.67,0.09
50.46,-9.59,-9.69,-9.59,-9.68,6.00,6.08,5.86,-3.59,-3.59,0.10
50.96,-9.58,-9.68,-9.54,-9.64,6.00,6.08,5.89,-3.58,-3.54,0.10
51.47,-9.53,-9.63,-9.52,-9.62,6.00,6.08,5.93,-3.53,-3.52,0.10
51.99,-9.48,-9.57,-9.52,-9.62,6.00,6.08,5.96,-3.48,-3.52,0.09
52.51,-9.53,-9.61,-9.52,-9.61,6.00,6.08,6.00,-3.53,-3.52,0.08
53.03,-9.57,-9.64,-9.50,-9.58,6.00,6.08,6.04,-3.57,-3.50,0.08
53.56,-9.45,-9.51,-9.45,-9.52,6.00,6.08,6.09,-3.45,-3.45,0.07
54.10,-9.35,-9.40,-9.38,-9.43,6.00,6.08,6.13,-3.35,-3.38,0.06
54.64,-9.35,-9.38,-9.35,-9.39,6.00,6.08,6.17,-3.35,-3.35,0.04
55.18,-9.39,-9.40,-9.41,-9.42,6.00,6.08,6.21,-3.39,-3.41,0.01
55.74,-9.52,-9.51,-9.50,-9.49,6.00,6.08,6.26,-3.52,-3.50,-0.01
56.29,-9.58,-9.54,-9.56,-9.53,6.00,6.08,6.29,-3.58,-3.56,-0.04
56.86,-9.58,-9.52,-9.55,-9.48,6.00,6.08,6.33,-3.58,-3.55,-0.06
57.42,-9.48,-9.38,-9.48,-9.38,6.00,6.08,6.37,-3.48,-3.48,-0.09
58.00,-9.35,-9.22,-9.40,-9.28,6.00,6.08,6.40,-3.35,-3.40,-0.12
58.58,-9.35,-9.19,-9.34,-9.18,6.00,6.08,6.43,-3.35,-3.34,-0.16
59.16,-9.31,-9.11,-9.27,-9.08,6.00,6.08,6.46,-3.31,-3.27,-0.19
59.76,-9.18,-8.95,-9.17,-8.95,6.00,6.07,6.48,-3.18,-3.17,-0.22
60.35,-9.05,-8.79,-9.05,-8.79,6.00,6.07,6.50,-3.05,-3.05,-0.26
60.96,-8.91,-8.61,-8.96,-8.67,6.00,6.07,6.51,-2.91,-2.96,-0.29
61.57,-8.90,-8.58,-8.88,-8.56,6.00,6.07,6.52,-2.90,-2.88,-0.32
62.18,-8.86,-8.50,-8.81,-8.45,6.00,6.07,6.52,-2.86,-2.81,-0.35
62.80,-8.71,-8.32,-8.73,-8.34,6.00,6.07,6.52,-2.71,-2.73,-0.39
63.43,-8.63,-8.20,-8.63,-8.21,6.00,6.06,6.51,-2.63,-2.63,-0.43
64.07,-8.56,-8.09,-8.54,-8.08,6.00,6.06,6.50,-2.56,-2.54,-0.46
64.71,-8.48,-7.98,-8.49,-7.98,6.00,6.06,6.48,-2.48,-2.49,-0.50
65.35,-8.44,-7.90,-8.45,-7.92,6.00,6.06,6.46,-2.44,-2.45,-0.54
66.01,-8.44,-7.87,-8.44,-7.87,6.00,6.05,6.44,-2.44,-2.44,-0.57
66.67,-8.44,-7.84,-8.40,-7.81,6.00,6.05,6.41,-2.44,-2.40,-0.60
67.33,-8.37,-7.75,-8.34,-7.72,6.00,6.05,6.37,-2.37,-2.34,-0.62
68.01,-8.22,-7.57,-8.27,-7.62,6.00,6.04,6.34,-2.22,-2.27,-0.65
68.69,-8.22,-7.55,-8.22,-7.55,6.00,6.04,6.30,-2.22,-2.22,-0.67
69.37,-8.22,-7.54,-8.20,-7.52,6.00,6.03,6.25,-2.22,-2.20,-0.68
70.07,-8.22,-7.53,-8.22,-7.52,6.00,6.03,6.21,-2.22,-2.22,-0.69
70.77,-8.22,-7.51,-8.22,-7.51,6.00,6.03,6.17,-2.22,-2.22,-0.70
71.48,-8.22,-7.50,-8.22,-7.50,6.00,6.02,6.12,-2.22,-2.22,-0.72
72.19,-8.22,-7.49,-8.22,-7.49,6.00,6.02,6.07,-2.22,-2.22,-0.73
72.91,-8.22,-7.48,-8.22,-7.48,6.00,6.01,6.03,-2.22,-2.22,-0.73
73.64,-8.22,-7.47,-8.22,-7.47,6.00,6.01,5.98,-2.22,-2.22,-0.75
74.38,-8.22,-7.45,-8.22,-7.45,6.00,6.00,5.93,-2.22,-2.22,-0.76
75.12,-8.22,-7.44,-8.22,-7.43,6.00,6.00,5.89,-2.22,-2.22,-0.78
75.87,-8.22,-7.41,-8.22,-7.41,6.00,5.99,5.85,-2.22,-2.22,-0.80
76.63,-8.22,-7.39,-8.22,-7.40,6.00,5.99,5.81,-2.22,-2.22,-0.82
77.40,-8.22,-7.38,-8.22,-7.38,6.00,5.98,5.77,-2.22,-2.22,-0.84
78.17,-8.22,-7.36,-8.22,-7.36,6.00,5.98,5.73,-2.22,-2.22,-0.86
78.95,-8.22,-7.33,-8.22,-7.33,6.00,5.97,5.70,-2.22,-2.22,-0.89
79.74,-8.22,-7.31,-8.22,-7.31,6.00,5.97,5.67,-2.22,-2.22,-0.90
80.54,-8.22,-7.29,-8.22,-7.29,6.00,5.96,5.64,-2.22,-2.22,-0.92
81.35,-8.22,-7.27,-8.22,-7.27,6.00,5.96,5.62,-2.22,-2.22,-0.94
82.16,-8.22,-7.25,-8.20,-7.24,6.00,5.95,5.60,-2.22,-2.20,-0.97
82.98,-8.22,-7.23,-8.22,-7.23,6.00,5.95,5.58,-2.22,-2.22,-0.99
83.81,-8.22,-7.22,-8.27,-7.27,6.00,5.94,5.57,-2.22,-2.27,-1.00
84.65,-8.36,-7.34,-8.34,-7.32,6.00,5.94,5.56,-2.36,-2.34,-1.02
85.50,-8.44,-7.40,-8.40,-7.37,6.00,5.93,5.56,-2.44,-2.40,-1.03
86.35,-8.44,-7.39,-8.45,-7.40,6.00,5.93,5.56,-2.44,-2.45,-1.05
87.22,-8.44,-7.38,-8.43,-7.37,6.00,5.93,5.56,-2.44,-2.43,-1.06
88.09,-8.44,-7.36,-8.44,-7.36,6.00,5.92,5.57,-2.44,-2.44,-1.07
88.97,-8.44,-7.35,-8.49,-7.40,6.00,5.92,5.58,-2.44,-2.49,-1.09
89.86,-8.60,-7.48,-8.56,-7.45,6.00,5.91,5.60,-2.60,-2.56,-1.11
90.76,-8.66,-7.53,-8.63,-7.50,6.00,5.91,5.62,-2.66,-2.63,-1.13
91.66,-8.67,-7.52,-8.68,-7.53,6.00,5.90,5.64,-2.67,-2.68,-1.14
92.58,-8.67,-7.51,-8.67,-7.51,6.00,5.90,5.67,-2.67,-2.67,-1.16
93.51,-8.67,-7.49,-8.67,-7.49,6.00,5.90,5.71,-2.67,-2.67,-1.18
94.44,-8.67,-7.47,-8.67,-7.47,6.00,5.89,5.74,-2.67,-2.67,-1.19
95.39,-8.67,-7.46,-8.67,-7.46,6.00,5.89,5.78,-2.67,-2.67,-1.21
96.34,-8.67,-7.44,-8.66,-7.43,6.00,5.89,5.83,-2.67,-2.66,-1.23
97.30,-8.67,-7.42,-8.65,-7.41,6.00,5.89,5.87,-2.67,-2.65,-1.24
98.28,-8.67,-7.40,-8.69,-7.43,6.00,5.88,5.93,-2.67,-2.69,-1.26
99.26,-8.73,-7.45,-8.76,-7.48,6.00,5.88,5.98,-2.73,-2.76,-1.28
100.25,-8.89,-7.58,-8.83,-7.53,6.00,5.88,6.04,-2.89,-2.83,-1.31
101.25,-8.90,-7.57,-8.89,-7.56,6.00,5.88,6.10,-2.90,-2.89,-1.33
102.27,-8.90,-7.54,-8.91,-7.56,6.00,5.88,6.16,-2.90,-2.91,-1.35
103.29,-8.90,-7.51,-8.90,-7.51,6.00,5.88,6.22,-2.90,-2.90,-1.38
104.32,-8.90,-7.48,-8.89,-7.47,6.00,5.88,6.28,-2.90,-2.89,-1.42
105.37,-8.90,-7.44,-8.89,-7.43,6.00,5.87,6.35,-2.90,-2.89,-1.46
106.42,-8.90,-7.40,-8.93,-7.43,6.00,5.87,6.41,-2.90,-2.93,-1.50
107.48,-9.00,-7.45,-9.00,-7.45,6.00,5.87,6.48,-3.00,-3.00,-1.55
108.56,-9.12,-7.51,-9.07,-7.47,6.00,5.87,6.54,-3.12,-3.07,-1.60
109.64,-9.13,-7.47,-9.13,-7.48,6.00,5.87,6.61,-3.13,-3.13,-1.65
110.74,-9.13,-7.43,-9.13,-7.43,6.00,5.87,6.67,-3.13,-3.13,-1.70
111.85,-9.13,-7.38,-9.11,-7.36,6.00,5.87,6.73,-3.13,-3.11,-1.75
112.97,-9.13,-7.32,-9.15,-7.35,6.00,5.87,6.78,-3.13,-3.15,-1.81
114.10,-9.17,-7.31,-9.21,-7.36,6.00,5.87,6.83,-3.17,-3.21,-1.85
115.24,-9.35,-7.44,-9.28,-7.38,6.00,5.87,6.88,-3.35,-3.28,-1.90
116.39,-9.35,-7.40,-9.34,-7.39,6.00,5.87,6.92,-3.35,-3.34,-1.95
117.55,-9.35,-7.35,-9.34,-7.35,6.00,5.87,6.96,-3.35,-3.34,-1.99
118.73,-9.35,-7.32,-9.36,-7.33,6.00,5.87,6.99,-3.35,-3.36,-2.03
119.92,-9.36,-7.29,-9.43,-7.36,6.00,5.87,7.01,-3.36,-3.43,-2.07
121.12,-9.58,-7.47,-9.50,-7.40,6.00,5.87,7.02,-3.58,-3.50,-2.10
122.33,-9.58,-7.44,-9.55,-7.42,6.00,5.87,7.03,-3.58,-3.55,-2.14
123.55,-9.58,-7.41,-9.60,-7.43,6.00,5.87,7.03,-3.58,-3.60,-2.16
124.79,-9.58,-7.38,-9.63,-7.44,6.00,5.87,7.01,-3.58,-3.63,-2.20
126.03,-9.74,-7.51,-9.70,-7.48,6.00,5.87,7.00,-3.74,-3.70,-2.22
127.29,-9.79,-7.54,-9.76,-7.51,6.00,5.87,6.97,-3.79,-3.76,-2.25
128.57,-9.81,-7.53,-9.80,-7.53,6.00,5.86,6.94,-3.81,-3.80,-2.28
129.85,-9.81,-7.50,-9.83,-7.53,6.00,5.86,6.89,-3.81,-3.83,-2.30
131.15,-9.86,-7.53,-9.89,-7.56,6.00,5.86,6.84,-3.86,-3.89,-2.32
132.46,-9.99,-7.63,-9.94,-7.59,6.00,5.86,6.78,-3.99,-3.94,-2.36
133.79,-10.04,-7.65,-10.02,-7.64,6.00,5.86,6.72,-4.04,-4.02,-2.39
135.12,-10.05,-7.64,-10.11,-7.70,6.00,5.86,6.64,-4.05,-4.11,-2.41
136.48,-10.21,-7.77,-10.18,-7.74,6.00,5.86,6.56,-4.21,-4.18,-2.44
137.84,-10.27,-7.80,-10.24,-7.77,6.00,5.87,6.48,-4.27,-4.24,-2.47
139.22,-10.27,-7.78,-10.28,-7.79,6.00,5.87,6.39,-4.27,-4.28,-2.49
140.61,-10.27,-7.75,-10.27,-7.75,6.00,5.87,6.30,-4.27,-4.27,-2.52
142.02,-10.27,-7.72,-10.25,-7.71,6.00,5.87,6.21,-4.27,-4.25,-2.54
143.44,-10.27,-7.69,-10.27,-7.69,6.00,5.88,6.11,-4.27,-4.27,-2.57
144.87,-10.27,-7.67,-10.32,-7.72,6.00,5.88,6.01,-4.27,-4.32,-2.60
146.32,-10.42,-7.78,-10.39,-7.76,6.00,5.88,5.91,-4.42,-4.39,-2.64
147.78,-10.49,-7.81,-10.46,-7.79,6.00,5.89,5.81,-4.49,-4.46,-2.67
149.26,-10.49,-7.78,-10.50,-7.79,6.00,5.90,5.71,-4.49,-4.50,-2.71
150.75,-10.49,-7.73,-10.49,-7.74,6.00,5.90,5.61,-4.49,-4.49,-2.75
152.26,-10.49,-7.69,-10.47,-7.68,6.00,5.91,5.51,-4.49,-4.47,-2.80
153.78,-10.49,-7.64,-10.51,-7.66,6.00,5.92,5.41,-4.49,-4.51,-2.85
155.32,-10.54,-7.63,-10.57,-7.67,6.00,5.94,5.31,-4.54,-4.57,-2.90
156.88,-10.70,-7.74,-10.64,-7.68,6.00,5.95,5.21,-4.70,-4.64,-2.95
158.44,-10.72,-7.72,-10.72,-7.72,6.00,5.96,5.12,-4.72,-4.72,-3.00
160.03,-10.78,-7.74,-10.82,-7.78,6.00,5.97,5.03,-4.78,-4.82,-3.04
161.63,-10.92,-7.84,-10.91,-7.84,6.00,5.99,4.94,-4.92,-4.91,-3.08
163.24,-11.09,-7.98,-11.06,-7.95,6.00,6.01,4.85,-5.09,-5.06,-3.11
164.88,-11.18,-8.04,-11.21,-8.07,6.00,6.03,4.77,-5.18,-5.21,-3.14
166.53,-11.36,-8.20,-11.31,-8.15,6.00,6.04,4.69,-5.36,-5.31,-3.16
168.19,-11.41,-8.23,-11.41,-8.23,6.00,6.06,4.61,-5.41,-5.41,-3.18
169.87,-11.46,-8.27,-11.50,-8.32,6.00,6.08,4.53,-5.46,-5.50,-3.19
171.57,-11.60,-8.41,-11.56,-8.38,6.00,6.10,4.46,-5.60,-5.56,-3.18
173.29,-11.63,-8.45,-11.61,-8.43,6.00,6.12,4.39,-5.63,-5.61,-3.18
175.02,-11.63,-8.45,-11.64,-8.46,6.00,6.14,4.33,-5.63,-5.64,-3.18
176.77,-11.63,-8.46,-11.63,-8.47,6.00,6.17,4.27,-5.63,-5.63,-3.16
178.54,-11.63,-8.48,-11.63,-8.48,6.00,6.18,4.21,-5.63,-5.63,-3.15
180.32,-11.63,-8.49,-11.63,-8.49,6.00,6.20,4.15,-5.63,-5.63,-3.13
182.13,-11.63,-8.51,-11.63,-8.50,6.00,6.22,4.10,-5.63,-5.63,-3.12
183.95,-11.63,-8.51,-11.63,-8.51,6.00,6.24,4.05,-5.63,-5.63,-3.11
185.79,-11.63,-8.52,-11.63,-8.52,6.00,6.25,4.01,-5.63,-5.63,-3.11
187.65,-11.63,-8.53,-11.63,-8.52,6.00,6.27,3.96,-5.63,-5.63,-3.10
189.52,-11.63,-8.52,-11.63,-8.52,6.00,6.27,3.92,-5.63,-5.63,-3.10
191.42,-11.63,-8.52,-11.63,-8.52,6.00,6.28,3.89,-5.63,-5.63,-3.11
193.33,-11.63,-8.51,-11.63,-8.51,6.00,6.28,3.85,-5.63,-5.63,-3.12
195.27,-11.63,-8.51,-11.63,-8.51,6.00,6.28,3.82,-5.63,-5.63,-3.12
197.22,-11.63,-8.50,-11.63,-8.50,6.00,6.27,3.79,-5.63,-5.63,-3.12
199.19,-11.63,-8.49,-11.63,-8.49,6.00,6.26,3.76,-5.63,-5.63,-3.13
201.18,-11.63,-8.48,-11.63,-8.48,6.00,6.24,3.74,-5.63,-5.63,-3.14
203.19,-11.63,-8.47,-11.63,-8.47,6.00,6.21,3.71,-5.63,-5.63,-3.15
205.23,-11.63,-8.46,-11.63,-8.46,6.00,6.18,3.69,-5.63,-5.63,-3.17
207.28,-11.63,-8.44,-11.63,-8.44,6.00,6.14,3.67,-5.63,-5.63,-3.18
209.35,-11.63,-8.42,-11.63,-8.43,6.00,6.09,3.65,-5.63,-5.63,-3.20
211.44,-11.63,-8.41,-11.65,-8.43,6.00,6.03,3.63,-5.63,-5.65,-3.21
213.56,-11.63,-8.39,-11.63,-8.40,6.00,5.96,3.61,-5.63,-5.63,-3.23
215.69,-11.63,-8.38,-11.57,-8.33,6.00,5.89,3.59,-5.63,-5.57,-3.24
217.85,-11.43,-8.17,-11.48,-8.22,6.00,5.80,3.58,-5.43,-5.48,-3.26
220.03,-11.32,-8.05,-11.32,-8.05,6.02,5.70,3.56,-5.30,-5.30,-3.27
222.23,-11.13,-7.84,-11.09,-7.81,6.04,5.60,3.54,-5.08,-5.04,-3.28
224.45,-10.81,-7.51,-10.80,-7.51,6.06,5.48,3.52,-4.74,-4.74,-3.29
226.70,-10.43,-7.12,-10.43,-7.12,6.06,5.35,3.50,-4.36,-4.37,-3.31
228.96,-10.04,-6.72,-10.04,-6.72,6.02,5.22,3.47,-4.01,-4.01,-3.32
231.25,-9.66,-6.32,-9.68,-6.35,5.94,5.07,3.45,-3.72,-3.75,-3.33
233.57,-9.36,-6.02,-9.37,-6.03,5.79,4.92,3.42,-3.56,-3.58,-3.34
235.90,-9.10,-5.75,-9.08,-5.73,5.59,4.76,3.39,-3.50,-3.48,-3.35
238.26,-8.79,-5.42,-8.77,-5.41,5.35,4.59,3.35,-3.44,-3.42,-3.36
240.64,-8.42,-5.05,-8.41,-5.04,5.06,4.40,3.32,-3.35,-3.34,-3.37
243.05,-8.02,-4.64,-8.02,-4.64,4.74,4.21,3.28,-3.28,-3.28,-3.37
245.48,-7.63,-4.25,-7.66,-4.28,4.39,4.01,3.23,-3.24,-3.27,-3.38
247.93,-7.34,-3.95,-7.34,-3.96,4.02,3.81,3.18,-3.31,-3.32,-3.38
250.41,-7.07,-3.68,-7.06,-3.67,3.67,3.60,3.13,-3.40,-3.39,-3.39
252.92,-6.79,-3.39,-6.76,-3.37,3.34,3.38,3.08,-3.45,-3.43,-3.39
255.45,-6.45,-3.05,-6.44,-3.05,3.03,3.15,3.01,-3.42,-3.42,-3.40
258.00,-6.11,-2.70,-6.12,-2.71,2.73,2.92,2.95,-3.38,-3.39,-3.40
260.58,-5.80,-2.39,-5.81,-2.40,2.43,2.68,2.88,-3.37,-3.38,-3.41
263.19,-5.53,-2.10,-5.53,-2.12,2.11,2.44,2.81,-3.41,-3.42,-3.42
265.82,-5.28,-1.85,-5.26,-1.84,1.80,2.19,2.74,-3.48,-3.46,-3.43
268.48,-4.99,-1.56,-4.97,-1.54,1.48,1.94,2.66,-3.50,-3.49,-3.43
271.16,-4.66,-1.21,-4.65,-1.22,1.18,1.69,2.58,-3.47,-3.47,-3.44
273.87,-4.33,-0.88,-4.32,-0.88,0.89,1.43,2.49,-3.43,-3.43,-3.45
276.61,-4.00,-0.54,-4.00,-0.55,0.61,1.17,2.40,-3.38,-3.39,-3.45
279.38,-3.74,-0.27,-3.74,-0.28,0.34,0.90,2.31,-3.40,-3.40,-3.46
282.17,-3.50,-0.03,-3.53,-0.06,0.08,0.64,2.22,-3.42,-3.45,-3.47
284.99,-3.38,0.10,-3.34,0.13,-0.16,0.37,2.12,-3.53,-3.50,-3.47
287.84,-3.17,0.31,-3.13,0.34,-0.37,0.10,2.03,-3.54,-3.50,-3.47
290.72,-2.91,0.57,-2.92,0.56,-0.57,-0.16,1.93,-3.47,-3.48,-3.48
293.63,-2.65,0.83,-2.68,0.80,-0.75,-0.43,1.82,-3.40,-3.43,-3.48
296.57,-2.53,0.96,-2.51,0.97,-0.93,-0.69,1.72,-3.46,-3.45,-3.48
299.53,-2.35,1.14,-2.38,1.11,-1.12,-0.95,1.62,-3.47,-3.50,-3.49
302.53,-2.29,1.21,-2.23,1.26,-1.31,-1.20,1.51,-3.60,-3.54,-3.50
305.55,-2.06,1.44,-2.04,1.46,-1.51,-1.45,1.41,-3.56,-3.55,-3.50
308.61,-1.80,1.71,-1.84,1.66,-1.70,-1.69,1.30,-3.49,-3.54,-3.50
311.69,-1.63,1.89,-1.61,1.90,-1.88,-1.91,1.19,-3.51,-3.50,-3.51
314.81,-1.46,2.07,-1.44,2.09,-2.07,-2.13,1.08,-3.52,-3.50,-3.53
317.96,-1.24,2.30,-1.27,2.27,-2.25,-2.33,0.98,-3.48,-3.52,-3.54
321.14,-1.15,2.41,-1.12,2.44,-2.43,-2.52,0.87,-3.57,-3.55,-3.56
324.35,-0.97,2.61,-0.98,2.59,-2.59,-2.69,0.76,-3.55,-3.57,-3.57
327.59,-0.89,2.70,-0.87,2.71,-2.73,-2.85,0.65,-3.62,-3.60,-3.58
330.87,-0.74,2.86,-0.76,2.84,-2.85,-2.98,0.54,-3.58,-3.60,-3.60
334.18,-0.69,2.92,-0.66,2.95,-2.94,-3.10,0.43,-3.63,-3.60,-3.61
337.52,-0.56,3.06,-0.56,3.05,-3.02,-3.19,0.32,-3.58,-3.59,-3.62
340.90,-0.49,3.14,-0.50,3.12,-3.09,-3.28,0.21,-3.58,-3.60,-3.62
344.30,-0.47,3.17,-0.46,3.17,-3.15,-3.33,0.10,-3.62,-3.62,-3.63
347.75,-0.47,3.17,-0.47,3.16,-3.20,-3.38,-0.02,-3.66,-3.67,-3.63
351.23,-0.47,3.17,-0.47,3.17,-3.23,-3.40,-0.13,-3.69,-3.70,-3.64
354.74,-0.47,3.17,-0.41,3.23,-3.24,-3.41,-0.24,-3.71,-3.65,-3.64
358.28,-0.36,3.28,-0.36,3.28,-3.24,-3.41,-0.35,-3.60,-3.60,-3.64
361.87,-0.26,3.37,-0.34,3.29,-3.24,-3.39,-0.46,-3.49,-3.58,-3.63
365.49,-0.40,3.24,-0.36,3.27,-3.23,-3.36,-0.57,-3.63,-3.60,-3.63
369.14,-0.46,3.18,-0.42,3.21,-3.23,-3.33,-0.69,-3.68,-3.65,-3.63
372.83,-0.47,3.17,-0.47,3.16,-3.22,-3.28,-0.80,-3.69,-3.69,-3.63
376.56,-0.47,3.16,-0.47,3.16,-3.20,-3.23,-0.91,-3.67,-3.67,-3.63
380.33,-0.47,3.16,-0.47,3.16,-3.17,-3.18,-1.03,-3.64,-3.64,-3.63
384.13,-0.47,3.16,-0.45,3.17,-3.14,-3.12,-1.14,-3.61,-3.59,-3.63
387.97,-0.47,3.16,-0.47,3.16,-3.11,-3.06,-1.25,-3.58,-3.58,-3.63
391.85,-0.48,3.15,-0.53,3.10,-3.08,-2.99,-1.36,-3.55,-3.60,-3.63
395.77,-0.63,3.00,-0.60,3.03,-3.04,-2.93,-1.48,-3.66,-3.63,-3.63
399.73,-0.69,2.93,-0.65,2.98,-2.98,-2.87,-1.59,-3.67,-3.63,-3.62
403.72,-0.69,2.94,-0.70,2.93,-2.93,-2.81,-1.70,-3.62,-3.63,-3.62
407.76,-0.69,2.94,-0.74,2.88,-2.88,-2.75,-1.81,-3.56,-3.62,-3.62
411.84,-0.83,2.80,-0.81,2.82,-2.83,-2.69,-1.92,-3.65,-3.63,-3.62
