frequency,raw,error,smoothed,error_smoothed,equalization,parametric_eq,fixed_band_eq,equalized_raw,equalized_smoothed,target
20.00,-9.80,-12.44,-9.80,-12.44,6.00,5.84,2.65,-3.80,-3.80,2.64
20.20,-9.72,-12.42,-9.72,-12.42,6.00,5.85,2.73,-3.72,-3.72,2.70
20.40,-9.65,-12.40,-9.65,-12.40,6.00,5.85,2.81,-3.65,-3.65,2.75
20.61,-9.57,-12.38,-9.57,-12.38,6.00,5.85,2.89,-3.57,-3.57,2.81
20.81,-9.50,-12.36,-9.50,-12.36,6.00,5.85,2.97,-3.50,-3.50,2.86
21.02,-9.42,-12.34,-9.42,-12.34,6.00,5.86,3.05,-3.42,-3.42,2.92
21.23,-9.35,-12.32,-9.35,-12.32,6.00,5.86,3.14,-3.35,-3.35,2.97
21.44,-9.27,-12.29,-9.27,-12.29,6.00,5.86,3.23,-3.27,-3.27,3.02
21.66,-9.20,-12.27,-9.20,-12.27,6.00,5.86,3.32,-3.20,-3.20,3.07
21.87,-9.12,-12.24,-9.12,-12.24,6.00,5.87,3.41,-3.12,-3.12,3.12
22.09,-9.05,-12.22,-9.05,-12.22,6.00,5.87,3.51,-3.05,-3.05,3.17
22.31,-8.97,-12.19,-8.97,-12.19,6.00,5.87,3.61,-2.97,-2.97,3.22
22.54,-8.89,-12.15,-8.89,-12.15,6.00,5.88,3.71,-2.89,-2.89,3.26
22.76,-8.81,-12.12,-8.81,-12.12,6.00,5.88,3.82,-2.81,-2.81,3.31
22.99,-8.73,-12.08,-8.73,-12.08,6.00,5.88,3.92,-2.73,-2.73,3.35
23.22,-8.66,-12.06,-8.66,-12.05,6.00,5.89,4.03,-2.66,-2.66,3.40
23.45,-8.58,-12.02,-8.58,-12.02,6.00,5.89,4.15,-2.58,-2.58,3.44
23.69,-8.51,-12.00,-8.51,-11.99,6.00,5.89,4.26,-2.51,-2.51,3.49
23.92,-8.43,-11.96,-8.43,-11.96,6.00,5.90,4.38,-2.43,-2.43,3.53
24.16,-8.36,-11.93,-8.36,-11.93,6.00,5.90,4.50,-2.36,-2.36,3.58
24.40,-8.28,-11.89,-8.28,-11.89,6.00,5.90,4.62,-2.28,-2.28,3.62
24.65,-8.20,-11.85,-8.20,-11.86,6.00,5.91,4.74,-2.20,-2.20,3.65
24.89,-8.12,-11.81,-8.12,-11.82,6.00,5.91,4.87,-2.12,-2.12,3.69
25.14,-8.05,-11.78,-8.04,-11.78,6.00,5.91,4.99,-2.05,-2.04,3.73
25.39,-7.97,-11.74,-7.97,-11.74,6.00,5.92,5.12,-1.97,-1.97,3.77
25.65,-7.89,-11.70,-7.89,-11.71,6.00,5.92,5.25,-1.89,-1.89,3.81
25.91,-7.82,-11.67,-7.82,-11.67,6.00,5.92,5.38,-1.82,-1.82,3.85
26.16,-7.74,-11.63,-7.74,-11.63,6.00,5.93,5.51,-1.74,-1.74,3.89
26.43,-7.66,-11.58,-7.66,-11.58,6.00,5.93,5.63,-1.66,-1.66,3.92
26.69,-7.58,-11.54,-7.58,-11.54,6.00,5.94,5.76,-1.58,-1.58,3.96
26.96,-7.50,-11.50,-7.50,-11.50,6.00,5.94,5.89,-1.50,-1.50,4.00
27.23,-7.43,-11.46,-7.43,-11.46,6.00,5.94,6.01,-1.43,-1.43,4.03
27.50,-7.35,-11.42,-7.35,-11.42,6.00,5.95,6.13,-1.35,-1.35,4.07
27.77,-7.28,-11.38,-7.28,-11.38,6.00,5.95,6.25,-1.28,-1.28,4.11
28.05,-7.21,-11.34,-7.20,-11.34,6.00,5.96,6.37,-1.21,-1.20,4.13
28.33,-7.13,-11.30,-7.13,-11.31,6.00,5.96,6.47,-1.13,-1.13,4.17
28.62,-7.05,-11.26,-7.05,-11.26,6.00,5.96,6.58,-1.05,-1.05,4.21
28.90,-6.98,-11.23,-6.98,-11.23,6.00,5.97,6.68,-0.98,-0.98,4.25
29.19,-6.90,-11.18,-6.90,-11.19,6.00,5.97,6.77,-0.90,-0.90,4.28
29.48,-6.83,-11.15,-6.83,-11.15,6.00,5.98,6.85,-0.83,-0.83,4.32
29.78,-6.75,-11.11,-6.75,-11.11,6.00,5.98,6.93,-0.75,-0.75,4.36
30.08,-6.68,-11.07,-6.68,-11.07,6.00,5.99,6.99,-0.68,-0.68,4.39
30.38,-6.61,-11.04,-6.61,-11.03,6.00,5.99,7.05,-0.61,-0.61,4.42
30.68,-6.54,-10.99,-6.54,-10.99,6.00,5.99,7.10,-0.54,-0.54,4.45
30.99,-6.46,-10.95,-6.46,-10.95,6.00,6.00,7.14,-0.46,-0.46,4.49
31.30,-6.39,-10.91,-6.39,-10.92,6.00,6.00,7.17,-0.39,-0.39,4.52
31.61,-6.33,-10.88,-6.33,-10.88,6.00,6.01,7.19,-0.33,-0.33,4.55
31.93,-6.26,-10.84,-6.26,-10.84,6.00,6.01,7.20,-0.26,-0.26,4.58
32.24,-6.19,-10.80,-6.19,-10.79,6.00,6.02,7.20,-0.19,-0.19,4.61
32.57,-6.11,-10.75,-6.11,-10.75,6.00,6.02,7.19,-0.11,-0.11,4.64
32.89,-6.04,-10.70,-6.04,-10.70,6.00,6.03,7.18,-0.04,-0.04,4.66
33.22,-5.98,-10.66,-5.97,-10.66,6.00,6.03,7.15,0.02,0.03,4.68
33.55,-5.91,-10.62,-5.91,-10.62,6.00,6.04,7.12,0.09,0.09,4.71
33.89,-5.84,-10.57,-5.84,-10.57,6.00,6.04,7.08,0.16,0.16,4.73
34.23,-5.78,-10.53,-5.78,-10.53,6.00,6.04,7.03,0.22,0.22,4.75
34.57,-5.71,-10.48,-5.71,-10.48,6.00,6.05,6.98,0.29,0.29,4.77
34.92,-5.65,-10.44,-5.65,-10.44,6.00,6.05,6.93,0.35,0.35,4.79
35.27,-5.58,-10.39,-5.58,-10.39,6.00,6.06,6.86,0.42,0.42,4.81
35.62,-5.52,-10.35,-5.52,-10.35,6.00,6.06,6.80,0.48,0.48,4.83
35.97,-5.45,-10.30,-5.46,-10.30,6.00,6.07,6.74,0.55,0.54,4.85
36.33,-5.40,-10.25,-5.40,-10.25,6.00,6.07,6.67,0.60,0.60,4.85
36.70,-5.34,-10.21,-5.34,-10.21,6.00,6.08,6.60,0.66,0.66,4.87
37.06,-5.28,-10.17,-5.28,-10.16,6.00,6.08,6.54,0.72,0.72,4.89
37.43,-5.22,-10.11,-5.22,-10.12,6.00,6.09,6.47,0.78,0.78,4.90
37.81,-5.15,-10.06,-5.15,-10.06,6.00,6.09,6.40,0.85,0.85,4.91
38.19,-5.09,-10.01,-5.09,-10.01,6.00,6.10,6.33,0.91,0.91,4.92
38.57,-5.03,-9.96,-5.03,-9.96,6.00,6.10,6.27,0.97,0.97,4.93
38.95,-4.97,-9.90,-4.97,-9.90,6.00,6.11,6.21,1.03,1.03,4.93
39.34,-4.91,-9.85,-4.91,-9.85,6.00,6.11,6.15,1.09,1.09,4.94
39.74,-4.85,-9.80,-4.85,-9.79,6.00,6.11,6.09,1.15,1.15,4.95
40.14,-4.79,-9.73,-4.79,-9.74,6.00,6.12,6.04,1.21,1.21,4.94
40.54,-4.73,-9.68,-4.73,-9.68,6.00,6.12,5.99,1.27,1.27,4.95
40.94,-4.68,-9.64,-4.68,-9.63,6.00,6.13,5.94,1.32,1.32,4.96
41.35,-4.62,-9.57,-4.62,-9.57,6.00,6.13,5.90,1.38,1.38,4.95
41.76,-4.56,-9.52,-4.56,-9.52,6.00,6.14,5.86,1.44,1.44,4.96
42.18,-4.50,-9.45,-4.50,-9.46,6.00,6.14,5.82,1.50,1.50,4.95
42.60,-4.44,-9.40,-4.44,-9.40,6.00,6.14,5.79,1.56,1.56,4.96
43.03,-4.39,-9.35,-4.39,-9.35,6.00,6.15,5.76,1.61,1.61,4.96
43.46,-4.34,-9.30,-4.34,-9.30,6.00,6.15,5.74,1.66,1.66,4.96
43.90,-4.30,-9.26,-4.30,-9.26,6.00,6.16,5.72,1.70,1.70,4.96
44.33,-4.25,-9.21,-4.25,-9.21,6.00,6.16,5.71,1.75,1.75,4.96
44.78,-4.20,-9.16,-4.20,-9.16,6.00,6.16,5.70,1.80,1.80,4.96
45.23,-4.14,-9.10,-4.14,-9.10,6.00,6.17,5.69,1.86,1.86,4.96
45.68,-4.09,-9.04,-4.09,-9.04,6.00,6.17,5.69,1.91,1.91,4.95
46.13,-4.04,-8.99,-4.03,-8.99,6.00,6.17,5.70,1.96,1.97,4.95
46.60,-3.98,-8.93,-3.98,-8.93,6.00,6.17,5.70,2.02,2.02,4.95
47.06,-3.93,-8.88,-3.93,-8.88,6.00,6.18,5.71,2.07,2.07,4.95
47.53,-3.89,-8.83,-3.89,-8.83,6.00,6.18,5.73,2.11,2.11,4.94
48.01,-3.85,-8.79,-3.85,-8.79,6.00,6.18,5.75,2.15,2.15,4.94
48.49,-3.81,-8.75,-3.81,-8.74,6.00,6.18,5.77,2.19,2.19,4.94
48.97,-3.76,-8.69,-3.76,-8.69,6.00,6.19,5.80,2.24,2.24,4.93
49.46,-3.71,-8.64,-3.71,-8.64,6.00,6.19,5.83,2.29,2.29,4.93
49.96,-3.66,-8.58,-3.66,-8.59,6.00,6.19,5.86,2.34,2.34,4.92
50.46,-3.62,-8.55,-3.62,-8.54,6.00,6.19,5.89,2.38,2.38,4.93
50.96,-3.57,-8.49,-3.57,-8.49,6.00,6.19,5.93,2.43,2.43,4.92
51.47,-3.53,-8.45,-3.53,-8.44,6.00,6.19,5.97,2.47,2.47,4.92
51.99,-3.48,-8.39,-3.48,-8.39,6.00,6.19,6.01,2.52,2.52,4.91
52.51,-3.43,-8.33,-3.43,-8.34,6.00,6.19,6.06,2.57,2.57,4.90
53.03,-3.39,-8.29,-3.39,-8.29,6.00,6.19,6.10,2.61,2.61,4.90
53.56,-3.35,-8.24,-3.35,-8.24,6.00,6.19,6.14,2.65,2.65,4.89
54.10,-3.31,-8.19,-3.31,-8.20,6.00,6.19,6.19,2.69,2.69,4.88
54.64,-3.28,-8.15,-3.28,-8.15,6.00,6.19,6.23,2.72,2.72,4.87
55.18,-3.25,-8.11,-3.25,-8.11,6.00,6.19,6.28,2.75,2.75,4.86
55.74,-3.21,-8.06,-3.21,-8.06,6.00,6.18,6.32,2.79,2.79,4.85
56.29,-3.17,-8.00,-3.17,-8.01,6.00,6.18,6.36,2.83,2.83,4.83
56.86,-3.14,-7.96,-3.14,-7.95,6.00,6.18,6.39,2.86,2.86,4.82
57.42,-3.10,-7.89,-3.10,-7.89,6.00,6.18,6.43,2.90,2.90,4.80
58.00,-3.06,-7.83,-3.06,-7.84,6.00,6.17,6.46,2.94,2.94,4.77
58.58,-3.03,-7.78,-3.03,-7.78,6.00,6.17,6.48,2.97,2.97,4.75
59.16,-2.99,-7.72,-2.99,-7.72,6.00,6.16,6.51,3.01,3.01,4.73
59.76,-2.95,-7.65,-2.95,-7.65,6.00,6.16,6.52,3.05,3.05,4.70
60.35,-2.92,-7.59,-2.92,-7.59,6.00,6.15,6.53,3.08,3.08,4.67
60.96,-2.88,-7.52,-2.88,-7.53,6.00,6.14,6.54,3.12,3.12,4.64
61.57,-2.85,-7.47,-2.85,-7.46,6.00,6.14,6.54,3.15,3.15,4.62
62.18,-2.82,-7.40,-2.82,-7.41,6.00,6.13,6.53,3.18,3.18,4.58
62.80,-2.80,-7.36,-2.80,-7.36,6.00,6.12,6.52,3.20,3.20,4.56
63.43,-2.78,-7.31,-2.78,-7.31,6.00,6.11,6.50,3.22,3.22,4.53
64.07,-2.76,-7.26,-2.76,-7.26,6.00,6.10,6.47,3.24,3.24,4.50
64.71,-2.73,-7.21,-2.73,-7.21,6.00,6.09,6.44,3.27,3.27,4.48
65.35,-2.71,-7.17,-2.71,-7.16,6.00,6.08,6.40,3.29,3.29,4.46
66.01,-2.68,-7.12,-2.68,-7.12,6.00,6.07,6.36,3.32,3.32,4.44
66.67,-2.65,-7.07,-2.65,-7.07,6.00,6.06,6.31,3.35,3.35,4.42
67.33,-2.63,-7.03,-2.63,-7.03,6.00,6.05,6.25,3.37,3.37,4.40
68.01,-2.61,-7.00,-2.61,-7.00,6.00,6.03,6.19,3.39,3.39,4.39
68.69,-2.58,-6.96,-2.58,-6.96,6.00,6.02,6.13,3.42,3.42,4.38
69.37,-2.55,-6.92,-2.55,-6.92,6.00,6.00,6.07,3.45,3.45,4.37
70.07,-2.52,-6.88,-2.52,-6.87,6.00,5.99,6.00,3.48,3.48,4.36
70.77,-2.48,-6.82,-2.49,-6.83,6.00,5.97,5.93,3.52,3.51,4.34
71.48,-2.46,-6.80,-2.46,-6.79,6.00,5.95,5.85,3.54,3.54,4.34
72.19,-2.43,-6.76,-2.43,-6.76,6.00,5.93,5.78,3.57,3.57,4.33
72.91,-2.41,-6.72,-2.41,-6.73,6.00,5.92,5.70,3.59,3.59,4.31
73.64,-2.40,-6.70,-2.40,-6.70,6.00,5.90,5.63,3.60,3.60,4.30
74.38,-2.39,-6.67,-2.39,-6.67,6.00,5.88,5.55,3.61,3.61,4.28
75.12,-2.38,-6.65,-2.37,-6.64,6.00,5.85,5.48,3.62,3.63,4.27
75.87,-2.35,-6.60,-2.35,-6.61,6.00,5.83,5.41,3.65,3.65,4.25
76.63,-2.33,-6.57,-2.33,-6.56,6.00,5.81,5.33,3.67,3.67,4.24
77.40,-2.31,-6.52,-2.31,-6.52,6.00,5.78,5.26,3.69,3.69,4.21
78.17,-2.28,-6.47,-2.28,-6.47,6.00,5.76,5.19,3.72,3.72,4.19
78.95,-2.25,-6.42,-2.25,-6.42,6.00,5.73,5.13,3.75,3.75,4.17
79.74,-2.23,-6.38,-2.23,-6.38,6.00,5.71,5.06,3.77,3.77,4.15
80.54,-2.20,-6.33,-2.21,-6.34,6.00,5.68,5.00,3.80,3.79,4.13
81.35,-2.19,-6.30,-2.19,-6.30,6.00,5.65,4.94,3.81,3.81,4.11
82.16,-2.18,-6.27,-2.18,-6.27,6.01,5.62,4.89,3.83,3.83,4.09
82.98,-2.16,-6.23,-2.16,-6.24,6.01,5.59,4.83,3.85,3.85,4.07
83.81,-2.14,-6.20,-2.14,-6.19,6.01,5.56,4.78,3.87,3.87,4.06
84.65,-2.10,-6.15,-2.10,-6.15,6.01,5.53,4.73,3.91,3.91,4.05
85.50,-2.06,-6.09,-2.06,-6.09,6.00,5.50,4.69,3.94,3.94,4.03
86.35,-2.01,-6.03,-2.01,-6.03,5.98,5.47,4.65,3.97,3.97,4.02
87.22,-1.97,-5.98,-1.97,-5.98,5.95,5.43,4.62,3.98,3.98,4.01
88.09,-1.93,-5.92,-1.93,-5.92,5.91,5.40,4.58,3.98,3.98,3.99
88.97,-1.89,-5.87,-1.89,-5.87,5.87,5.36,4.55,3.98,3.98,3.98
89.86,-1.85,-5.81,-1.84,-5.81,5.81,5.33,4.53,3.96,3.97,3.96
90.76,-1.79,-5.74,-1.80,-5.75,5.75,5.29,4.50,3.96,3.96,3.95
91.66,-1.75,-5.68,-1.75,-5.68,5.69,5.25,4.48,3.94,3.94,3.93
92.58,-1.70,-5.62,-1.70,-5.61,5.62,5.21,4.47,3.92,3.92,3.92
93.51,-1.65,-5.54,-1.65,-5.55,5.55,5.17,4.45,3.90,3.90,3.89
94.44,-1.61,-5.48,-1.61,-5.48,5.48,5.13,4.44,3.87,3.87,3.87
95.39,-1.57,-5.42,-1.57,-5.42,5.41,5.09,4.44,3.84,3.85,3.85
96.34,-1.53,-5.35,-1.53,-5.35,5.34,5.05,4.43,3.81,3.81,3.82
97.30,-1.49,-5.27,-1.49,-5.28,5.27,5.01,4.43,3.78,3.78,3.78
98.28,-1.45,-5.20,-1.45,-5.20,5.20,4.97,4.43,3.75,3.75,3.75
99.26,-1.40,-5.12,-1.40,-5.12,5.12,4.93,4.44,3.72,3.72,3.72
100.25,-1.36,-5.04,-1.36,-5.04,5.04,4.88,4.45,3.68,3.68,3.68
101.25,-1.32,-4.96,-1.32,-4.96,4.96,4.84,4.45,3.64,3.64,3.64
102.27,-1.27,-4.87,-1.28,-4.88,4.88,4.80,4.46,3.61,3.60,3.60
103.29,-1.25,-4.81,-1.24,-4.81,4.80,4.75,4.48,3.55,3.56,3.56
104.32,-1.21,-4.73,-1.20,-4.72,4.72,4.71,4.49,3.51,3.52,3.52
105.37,-1.16,-4.64,-1.16,-4.64,4.64,4.66,4.50,3.48,3.48,3.48
106.42,-1.12,-4.55,-1.12,-4.55,4.57,4.62,4.52,3.45,3.44,3.43
107.48,-1.09,-4.48,-1.09,-4.48,4.49,4.57,4.53,3.40,3.40,3.39
108.56,-1.07,-4.41,-1.07,-4.42,4.41,4.53,4.55,3.34,3.34,3.34
109.64,-1.06,-4.36,-1.05,-4.35,4.34,4.48,4.57,3.28,3.29,3.30
110.74,-1.02,-4.28,-1.02,-4.28,4.27,4.43,4.58,3.25,3.25,3.26
111.85,-0.98,-4.20,-0.98,-4.20,4.20,4.39,4.59,3.22,3.22,3.22
112.97,-0.94,-4.12,-0.94,-4.12,4.13,4.34,4.61,3.19,3.19,3.18
114.10,-0.91,-4.05,-0.91,-4.05,4.06,4.29,4.62,3.15,3.15,3.14
115.24,-0.88,-3.99,-0.88,-3.99,4.00,4.25,4.63,3.12,3.11,3.11
116.39,-0.86,-3.93,-0.86,-3.93,3.93,4.20,4.63,3.07,3.07,3.07
117.55,-0.84,-3.88,-0.84,-3.88,3.87,4.15,4.64,3.03,3.03,3.04
118.73,-0.81,-3.82,-0.81,-3.81,3.81,4.11,4.64,3.00,3.00,3.01
119.92,-0.77,-3.75,-0.77,-3.75,3.75,4.06,4.63,2.98,2.98,2.98
121.12,-0.73,-3.68,-0.74,-3.69,3.70,4.01,4.63,2.97,2.96,2.95
122.33,-0.71,-3.65,-0.71,-3.64,3.65,3.97,4.62,2.94,2.94,2.94
123.55,-0.69,-3.60,-0.68,-3.60,3.61,3.92,4.60,2.92,2.92,2.91
124.79,-0.66,-3.55,-0.67,-3.56,3.57,3.88,4.58,2.91,2.90,2.89
126.03,-0.65,-3.52,-0.65,-3.52,3.54,3.83,4.56,2.89,2.88,2.87
127.29,-0.65,-3.50,-0.65,-3.50,3.51,3.79,4.53,2.86,2.86,2.85
128.57,-0.65,-3.49,-0.65,-3.49,3.48,3.74,4.50,2.83,2.83,2.84
129.85,-0.65,-3.46,-0.65,-3.47,3.46,3.70,4.47,2.81,2.81,2.81
131.15,-0.64,-3.44,-0.64,-3.44,3.43,3.65,4.43,2.79,2.79,2.80
132.46,-0.63,-3.41,-0.62,-3.40,3.39,3.61,4.39,2.77,2.77,2.78
133.79,-0.60,-3.36,-0.60,-3.36,3.36,3.56,4.34,2.76,2.75,2.76
135.12,-0.57,-3.31,-0.57,-3.31,3.31,3.52,4.29,2.74,2.74,2.74
136.48,-0.55,-3.27,-0.54,-3.26,3.26,3.48,4.24,2.71,2.72,2.72
137.84,-0.51,-3.21,-0.51,-3.21,3.21,3.44,4.18,2.70,2.69,2.70
139.22,-0.48,-3.15,-0.48,-3.15,3.15,3.39,4.13,2.67,2.67,2.67
140.61,-0.45,-3.10,-0.44,-3.09,3.09,3.35,4.07,2.64,2.65,2.65
142.02,-0.40,-3.02,-0.41,-3.03,3.04,3.31,4.01,2.64,2.63,2.62
143.44,-0.38,-2.98,-0.38,-2.98,2.98,3.27,3.95,2.60,2.60,2.60
144.87,-0.35,-2.93,-0.35,-2.93,2.93,3.23,3.89,2.58,2.58,2.58
146.32,-0.34,-2.89,-0.33,-2.89,2.89,3.19,3.82,2.55,2.56,2.55
147.78,-0.31,-2.85,-0.31,-2.85,2.85,3.15,3.76,2.54,2.54,2.54
149.26,-0.30,-2.81,-0.30,-2.81,2.82,3.11,3.69,2.52,2.52,2.51
150.75,-0.30,-2.79,-0.30,-2.79,2.79,3.08,3.63,2.49,2.49,2.49
152.26,-0.31,-2.77,-0.31,-2.77,2.77,3.04,3.57,2.46,2.46,2.46
153.78,-0.32,-2.76,-0.32,-2.76,2.75,3.00,3.51,2.43,2.43,2.44
155.32,-0.32,-2.74,-0.32,-2.74,2.73,2.97,3.45,2.41,2.41,2.42
156.88,-0.32,-2.72,-0.32,-2.72,2.72,2.93,3.38,2.40,2.40,2.40
158.44,-0.32,-2.70,-0.32,-2.70,2.70,2.90,3.33,2.38,2.38,2.38
160.03,-0.32,-2.68,-0.32,-2.68,2.68,2.86,3.27,2.36,2.36,2.36
161.63,-0.32,-2.67,-0.32,-2.66,2.67,2.83,3.21,2.35,2.35,2.35
163.24,-0.32,-2.65,-0.32,-2.65,2.65,2.79,3.16,2.33,2.33,2.33
164.88,-0.32,-2.63,-0.32,-2.63,2.63,2.76,3.11,2.31,2.31,2.31
166.53,-0.32,-2.62,-0.32,-2.61,2.61,2.73,3.05,2.29,2.29,2.30
168.19,-0.32,-2.60,-0.32,-2.60,2.60,2.70,3.01,2.28,2.28,2.28
169.87,-0.32,-2.58,-0.32,-2.59,2.59,2.67,2.96,2.27,2.27,2.26
171.57,-0.32,-2.57,-0.32,-2.57,2.58,2.64,2.91,2.26,2.26,2.25
173.29,-0.32,-2.57,-0.32,-2.56,2.57,2.61,2.87,2.25,2.25,2.25
175.02,-0.32,-2.56,-0.32,-2.56,2.56,2.58,2.83,2.24,2.24,2.24
176.77,-0.32,-2.54,-0.32,-2.55,2.55,2.55,2.79,2.23,2.23,2.22
178.54,-0.32,-2.55,-0.32,-2.55,2.55,2.52,2.76,2.23,2.23,2.23
180.32,-0.32,-2.54,-0.32,-2.54,2.54,2.50,2.72,2.22,2.22,2.22
182.13,-0.32,-2.54,-0.32,-2.54,2.54,2.47,2.69,2.22,2.22,2.22
183.95,-0.32,-2.53,-0.32,-2.54,2.54,2.45,2.66,2.22,2.22,2.21
185.79,-0.32,-2.54,-0.32,-2.54,2.54,2.42,2.63,2.22,2.22,2.22
187.65,-0.32,-2.54,-0.32,-2.54,2.54,2.40,2.60,2.22,2.22,2.22
189.52,-0.32,-2.53,-0.32,-2.54,2.54,2.37,2.58,2.22,2.22,2.21
191.42,-0.33,-2.54,-0.33,-2.54,2.55,2.35,2.56,2.22,2.22,2.21
193.33,-0.34,-2.55,-0.34,-2.55,2.55,2.33,2.53,2.21,2.21,2.21
195.27,-0.34,-2.55,-0.34,-2.55,2.55,2.30,2.52,2.21,2.20,2.21
197.22,-0.35,-2.55,-0.34,-2.55,2.54,2.28,2.50,2.19,2.20,2.20
199.19,-0.34,-2.54,-0.34,-2.54,2.54,2.26,2.48,2.20,2.20,2.20
201.18,-0.33,-2.52,-0.33,-2.53,2.52,2.24,2.47,2.19,2.19,2.19
203.19,-0.32,-2.51,-0.32,-2.51,2.50,2.22,2.45,2.18,2.18,2.19
205.23,-0.30,-2.48,-0.30,-2.48,2.48,2.20,2.44,2.18,2.18,2.18
207.28,-0.27,-2.44,-0.27,-2.45,2.44,2.18,2.43,2.17,2.17,2.17
209.35,-0.24,-2.41,-0.24,-2.41,2.41,2.17,2.42,2.17,2.17,2.17
211.44,-0.20,-2.36,-0.20,-2.37,2.37,2.15,2.41,2.17,2.16,2.16
213.56,-0.17,-2.32,-0.17,-2.32,2.33,2.13,2.40,2.16,2.16,2.15
215.69,-0.13,-2.29,-0.13,-2.28,2.29,2.12,2.40,2.16,2.16,2.16
217.85,-0.09,-2.24,-0.10,-2.24,2.24,2.10,2.39,2.15,2.15,2.15
220.03,-0.07,-2.21,-0.07,-2.21,2.21,2.08,2.38,2.14,2.14,2.14
222.23,-0.04,-2.17,-0.04,-2.17,2.17,2.07,2.37,2.13,2.13,2.13
224.45,-0.02,-2.14,-0.02,-2.14,2.14,2.06,2.37,2.12,2.13,2.12
226.70,0.01,-2.11,0.01,-2.11,2.12,2.04,2.36,2.13,2.13,2.12
228.96,0.02,-2.09,0.02,-2.09,2.10,2.03,2.35,2.12,2.12,2.11
231.25,0.02,-2.08,0.02,-2.08,2.09,2.02,2.34,2.11,2.11,2.10
233.57,0.02,-2.07,0.02,-2.07,2.07,2.00,2.34,2.09,2.09,2.09
235.90,0.01,-2.07,0.01,-2.07,2.06,1.99,2.33,2.07,2.07,2.08
238.26,0.00,-2.07,0.00,-2.06,2.06,1.98,2.32,2.06,2.06,2.07
240.64,0.00,-2.06,-0.00,-2.06,2.05,1.97,2.30,2.05,2.05,2.06
243.05,0.00,-2.04,-0.00,-2.04,2.04,1.96,2.29,2.04,2.04,2.04
245.48,0.00,-2.03,-0.00,-2.03,2.03,1.95,2.28,2.03,2.03,2.03
247.93,0.00,-2.02,-0.00,-2.02,2.02,1.94,2.26,2.02,2.02,2.02
250.41,0.00,-2.01,-0.00,-2.01,2.01,1.93,2.25,2.01,2.01,2.01
252.92,0.00,-2.00,-0.00,-2.00,2.00,1.92,2.23,2.00,2.00,2.00
255.45,0.00,-1.99,-0.00,-1.99,1.99,1.91,2.21,1.99,1.99,1.99
258.00,0.00,-1.98,-0.00,-1.98,1.98,1.90,2.19,1.98,1.98,1.98
260.58,0.00,-1.97,-0.00,-1.97,1.97,1.89,2.17,1.97,1.97,1.97
263.19,0.00,-1.97,-0.00,-1.97,1.97,1.89,2.14,1.97,1.97,1.97
265.82,0.00,-1.96,-0.00,-1.96,1.96,1.88,2.12,1.96,1.96,1.96
268.48,0.00,-1.95,-0.00,-1.95,1.95,1.87,2.09,1.95,1.95,1.95
271.16,0.00,-1.94,-0.00,-1.94,1.94,1.87,2.07,1.94,1.94,1.94
273.87,0.00,-1.93,-0.00,-1.93,1.93,1.86,2.04,1.93,1.93,1.93
276.61,0.00,-1.92,-0.00,-1.92,1.92,1.85,2.01,1.92,1.92,1.92
279.38,0.00,-1.91,-0.00,-1.91,1.91,1.85,1.98,1.91,1.91,1.91
282.17,0.00,-1.90,-0.00,-1.90,1.90,1.84,1.95,1.90,1.90,1.90
284.99,0.00,-1.89,-0.00,-1.89,1.89,1.84,1.92,1.89,1.89,1.89
287.84,0.00,-1.87,-0.00,-1.87,1.87,1.83,1.89,1.87,1.87,1.87
290.72,0.00,-1.86,-0.00,-1.86,1.86,1.83,1.86,1.86,1.86,1.86
293.63,0.00,-1.85,-0.00,-1.85,1.85,1.82,1.83,1.85,1.85,1.85
296.57,0.00,-1.83,-0.00,-1.83,1.84,1.82,1.80,1.84,1.84,1.83
299.53,0.00,-1.82,-0.00,-1.82,1.82,1.81,1.77,1.82,1.82,1.82
302.53,0.00,-1.81,-0.00,-1.81,1.81,1.81,1.74,1.81,1.81,1.81
305.55,0.00,-1.80,-0.00,-1.80,1.80,1.80,1.72,1.80,1.80,1.80
308.61,0.00,-1.78,-0.00,-1.78,1.78,1.80,1.69,1.78,1.78,1.78
311.69,0.00,-1.77,0.00,-1.77,1.77,1.79,1.66,1.77,1.77,1.77
314.81,0.00,-1.76,0.00,-1.76,1.76,1.79,1.63,1.76,1.76,1.76
317.96,0.00,-1.75,0.00,-1.75,1.75,1.78,1.60,1.75,1.75,1.75
321.14,0.00,-1.75,0.00,-1.74,1.74,1.78,1.58,1.74,1.74,1.75
324.35,0.00,-1.73,0.00,-1.74,1.74,1.78,1.55,1.74,1.74,1.73
327.59,0.00,-1.73,0.00,-1.73,1.73,1.77,1.53,1.73,1.73,1.73
330.87,0.00,-1.72,0.00,-1.72,1.72,1.77,1.51,1.72,1.72,1.72
334.18,0.00,-1.72,0.00,-1.72,1.72,1.76,1.48,1.72,1.72,1.72
337.52,0.00,-1.72,0.00,-1.71,1.71,1.76,1.46,1.71,1.71,1.72
340.90,0.00,-1.71,0.00,-1.71,1.71,1.75,1.44,1.71,1.71,1.71
344.30,0.00,-1.70,0.00,-1.70,1.71,1.75,1.42,1.71,1.71,1.70
347.75,0.00,-1.70,0.00,-1.70,1.70,1.74,1.40,1.70,1.70,1.70
351.23,0.00,-1.70,0.00,-1.70,1.70,1.74,1.38,1.70,1.70,1.70
354.74,0.00,-1.70,0.00,-1.70,1.70,1.73,1.37,1.70,1.70,1.70
358.28,0.00,-1.70,0.00,-1.70,1.70,1.73,1.35,1.70,1.70,1.70
361.87,0.00,-1.70,0.00,-1.70,1.70,1.72,1.34,1.70,1.70,1.70
365.49,0.00,-1.70,0.00,-1.70,1.70,1.72,1.32,1.70,1.70,1.70
369.14,0.00,-1.69,0.00,-1.70,1.70,1.71,1.31,1.70,1.70,1.69
372.83,0.00,-1.70,0.00,-1.70,1.70,1.70,1.30,1.70,1.70,1.70
376.56,0.00,-1.70,0.00,-1.70,1.70,1.70,1.29,1.70,1.70,1.70
380.33,0.00,-1.69,0.00,-1.70,1.69,1.69,1.28,1.69,1.69,1.69
384.13,0.00,-1.69,0.00,-1.69,1.69,1.68,1.27,1.69,1.69,1.69
387.97,0.00,-1.69,0.00,-1.69,1.69,1.67,1.26,1.69,1.69,1.69
391.85,0.00,-1.69,0.00,-1.69,1.69,1.67,1.26,1.69,1.69,1.69
395.77,0.00,-1.69,0.00,-1.68,1.68,1.66,1.25,1.68,1.68,1.69
399.73,0.00,-1.68,0.00,-1.68,1.68,1.65,1.24,1.68,1.68,1.68
403.72,0.00,-1.68,-0.00,-1.67,1.68,1.64,1.24,1.68,1.68,1.68
407.76,-0.00,-1.66,-0.00,-1.67,1.68,1.63,1.23,1.68,1.67,1.66
411.84,-0.01,-1.67,-0.01,-1.67,1.67,1.62,1.23,1.66,1.66,1.66
415.96,-0.01,-1.66,-0.01,-1.67,1.66,1.61,1.23,1.65,1.65,1.65
420.12,-0.02,-1.66,-0.02,-1.66,1.65,1.60,1.22,1.63,1.64,1.64
424.32,-0.02,-1.64,-0.02,-1.64,1.64,1.59,1.22,1.62,1.62,1.62
428.56,-0.01,-1.62,-0.01,-1.62,1.62,1.58,1.22,1.61,1.61,1.61
432.85,-0.00,-1.60,0.00,-1.59,1.59,1.57,1.22,1.59,1.59,1.60
437.18,0.02,-1.56,0.02,-1.56,1.56,1.56,1.21,1.58,1.57,1.58
441.55,0.04,-1.52,0.04,-1.52,1.52,1.55,1.21,1.56,1.56,1.56
445.96,0.07,-1.48,0.07,-1.47,1.47,1.54,1.21,1.54,1.54,1.55
450.42,0.11,-1.42,0.11,-1.42,1.42,1.52,1.21,1.53,1.53,1.53
454.93,0.14,-1.37,0.14,-1.37,1.37,1.51,1.21,1.51,1.51,1.51
459.48,0.18,-1.32,0.17,-1.32,1.32,1.50,1.20,1.50,1.49,1.50
464.07,0.20,-1.28,0.21,-1.27,1.27,1.48,1.20,1.47,1.48,1.48
468.71,0.24,-1.23,0.24,-1.22,1.22,1.47,1.20,1.46,1.46,1.47
473.40,0.28,-1.17,0.27,-1.17,1.18,1.46,1.19,1.46,1.45,1.45
478.13,0.30,-1.13,0.30,-1.13,1.14,1.44,1.19,1.44,1.44,1.43
482.91,0.32,-1.10,0.32,-1.10,1.11,1.43,1.18,1.43,1.43,1.42
487.74,0.33,-1.08,0.34,-1.08,1.08,1.41,1.18,1.41,1.42,1.41
492.62,0.35,-1.05,0.35,-1.06,1.07,1.40,1.17,1.42,1.41,1.40
497.55,0.35,-1.04,0.35,-1.05,1.05,1.38,1.16,1.40,1.40,1.39
502.52,0.34,-1.04,0.34,-1.04,1.05,1.37,1.15,1.39,1.39,1.38
507.55,0.33,-1.05,0.33,-1.05,1.04,1.35,1.14,1.37,1.37,1.38
