frequency,raw,error,smoothed,error_smoothed,equalization,parametric_eq,fixed_band_eq,equalized_raw,equalized_smoothed,target
20.00,-15.36,-16.05,-15.36,-16.05,6.00,5.83,3.00,-9.36,-9.36,0.69
20.20,-15.22,-15.95,-15.22,-15.95,6.00,5.84,3.09,-9.22,-9.22,0.73
20.40,-15.08,-15.85,-15.08,-15.84,6.00,5.85,3.17,-9.08,-9.08,0.77
20.61,-14.94,-15.73,-14.94,-15.74,6.00,5.85,3.26,-8.94,-8.94,0.79
20.81,-14.80,-15.63,-14.80,-15.63,6.00,5.86,3.35,-8.80,-8.80,0.83
21.02,-14.66,-15.53,-14.66,-15.52,6.00,5.87,3.45,-8.66,-8.66,0.87
21.23,-14.53,-15.41,-14.53,-15.42,6.00,5.87,3.55,-8.53,-8.53,0.88
21.44,-14.41,-15.31,-14.41,-15.30,6.00,5.88,3.65,-8.41,-8.41,0.90
21.66,-14.28,-15.19,-14.28,-15.18,6.00,5.89,3.75,-8.28,-8.28,0.91
21.87,-14.15,-15.06,-14.15,-15.06,6.00,5.89,3.86,-8.15,-8.15,0.91
22.09,-14.02,-14.94,-14.02,-14.93,6.00,5.90,3.97,-8.02,-8.02,0.92
22.31,-13.88,-14.79,-13.88,-14.80,6.00,5.91,4.08,-7.88,-7.88,0.92
22.54,-13.74,-14.66,-13.74,-14.66,6.00,5.91,4.20,-7.74,-7.74,0.92
22.76,-13.61,-14.51,-13.61,-14.51,6.00,5.92,4.32,-7.61,-7.61,0.91
22.99,-13.47,-14.37,-13.48,-14.37,6.00,5.93,4.44,-7.47,-7.48,0.90
23.22,-13.35,-14.25,-13.35,-14.24,6.00,5.93,4.56,-7.35,-7.35,0.89
23.45,-13.23,-14.11,-13.23,-14.12,6.00,5.94,4.69,-7.23,-7.23,0.88
23.69,-13.11,-14.00,-13.12,-14.00,6.00,5.95,4.82,-7.11,-7.12,0.88
23.92,-13.00,-13.88,-12.99,-13.88,6.00,5.96,4.95,-7.00,-6.99,0.88
24.16,-12.86,-13.75,-12.86,-13.75,6.00,5.96,5.09,-6.86,-6.86,0.89
24.40,-12.71,-13.60,-12.71,-13.60,6.00,5.97,5.22,-6.71,-6.71,0.89
24.65,-12.56,-13.44,-12.56,-13.44,6.00,5.98,5.36,-6.56,-6.56,0.88
24.89,-12.41,-13.29,-12.42,-13.30,6.00,5.99,5.50,-6.41,-6.42,0.88
25.14,-12.30,-13.18,-12.31,-13.19,6.00,6.00,5.65,-6.30,-6.31,0.88
25.39,-12.22,-13.10,-12.21,-13.09,6.00,6.00,5.79,-6.22,-6.21,0.88
25.65,-12.13,-13.00,-12.13,-13.00,6.00,6.01,5.94,-6.13,-6.13,0.87
25.91,-12.05,-12.91,-12.04,-12.90,6.00,6.02,6.08,-6.05,-6.04,0.86
26.16,-11.93,-12.79,-11.93,-12.78,6.00,6.03,6.23,-5.93,-5.93,0.86
26.43,-11.79,-12.65,-11.79,-12.65,6.00,6.03,6.38,-5.79,-5.79,0.86
26.69,-11.65,-12.51,-11.65,-12.51,6.00,6.04,6.52,-5.65,-5.65,0.86
26.96,-11.51,-12.36,-11.52,-12.36,6.00,6.05,6.66,-5.51,-5.52,0.85
27.23,-11.38,-12.23,-11.38,-12.22,6.00,6.06,6.80,-5.38,-5.38,0.84
27.50,-11.24,-12.08,-11.24,-12.08,6.00,6.06,6.94,-5.24,-5.24,0.84
27.77,-11.10,-11.93,-11.10,-11.94,6.00,6.07,7.07,-5.10,-5.10,0.83
28.05,-10.97,-11.80,-10.97,-11.79,6.00,6.08,7.20,-4.97,-4.97,0.83
28.33,-10.83,-11.65,-10.83,-11.66,6.00,6.08,7.32,-4.83,-4.83,0.82
28.62,-10.70,-11.52,-10.70,-11.52,6.00,6.09,7.43,-4.70,-4.70,0.82
28.90,-10.57,-11.39,-10.57,-11.39,6.00,6.10,7.53,-4.57,-4.57,0.82
29.19,-10.43,-11.25,-10.43,-11.25,6.00,6.10,7.63,-4.43,-4.43,0.82
29.48,-10.30,-11.13,-10.30,-11.12,6.00,6.11,7.71,-4.30,-4.30,0.83
29.78,-10.17,-10.99,-10.17,-10.99,6.00,6.11,7.79,-4.17,-4.17,0.82
30.08,-10.04,-10.87,-10.04,-10.86,6.00,6.12,7.85,-4.04,-4.04,0.82
30.38,-9.91,-10.72,-9.91,-10.72,6.00,6.12,7.90,-3.91,-3.91,0.80
30.68,-9.78,-10.58,-9.78,-10.58,6.00,6.13,7.93,-3.78,-3.78,0.80
30.99,-9.65,-10.44,-9.65,-10.45,6.00,6.13,7.95,-3.65,-3.65,0.79
31.30,-9.52,-10.31,-9.52,-10.31,6.00,6.13,7.95,-3.52,-3.52,0.79
31.61,-9.39,-10.18,-9.39,-10.17,6.00,6.14,7.95,-3.39,-3.39,0.79
31.93,-9.26,-10.03,-9.26,-10.03,6.00,6.14,7.92,-3.26,-3.26,0.77
32.24,-9.13,-9.88,-9.13,-9.89,6.00,6.14,7.89,-3.13,-3.13,0.75
32.57,-9.01,-9.76,-9.00,-9.75,6.00,6.14,7.84,-3.01,-3.00,0.75
32.89,-8.88,-9.62,-8.89,-9.63,6.00,6.14,7.78,-2.88,-2.89,0.74
33.22,-8.79,-9.51,-8.80,-9.53,6.00,6.14,7.70,-2.79,-2.80,0.72
33.55,-8.72,-9.44,-8.72,-9.43,6.00,6.14,7.62,-2.72,-2.72,0.72
33.89,-8.64,-9.34,-8.63,-9.33,6.00,6.13,7.52,-2.64,-2.63,0.70
34.23,-8.51,-9.20,-8.50,-9.19,6.00,6.13,7.42,-2.51,-2.50,0.69
34.57,-8.34,-9.01,-8.35,-9.02,6.00,6.12,7.31,-2.34,-2.35,0.67
34.92,-8.17,-8.83,-8.18,-8.84,6.00,6.12,7.19,-2.17,-2.18,0.66
35.27,-8.02,-8.68,-8.02,-8.67,6.00,6.11,7.06,-2.02,-2.02,0.66
35.62,-7.88,-8.52,-7.88,-8.52,6.00,6.10,6.94,-1.88,-1.88,0.64
35.97,-7.74,-8.36,-7.74,-8.37,6.00,6.09,6.80,-1.74,-1.74,0.62
36.33,-7.62,-8.24,-7.62,-8.23,6.00,6.07,6.66,-1.62,-1.62,0.62
36.70,-7.49,-8.10,-7.49,-8.10,6.00,6.06,6.52,-1.49,-1.49,0.61
37.06,-7.37,-7.96,-7.37,-7.97,6.00,6.04,6.38,-1.37,-1.37,0.60
37.43,-7.24,-7.84,-7.24,-7.83,6.00,6.03,6.24,-1.24,-1.24,0.60
37.81,-7.11,-7.70,-7.11,-7.70,6.00,6.01,6.10,-1.11,-1.11,0.59
38.19,-6.99,-7.57,-6.99,-7.57,6.00,5.99,5.96,-0.99,-0.99,0.58
38.57,-6.87,-7.45,-6.86,-7.44,6.00,5.96,5.81,-0.87,-0.86,0.58
38.95,-6.74,-7.31,-6.75,-7.33,6.00,5.94,5.67,-0.74,-0.75,0.57
39.34,-6.65,-7.22,-6.65,-7.22,6.00,5.91,5.54,-0.65,-0.65,0.57
39.74,-6.56,-7.12,-6.55,-7.11,6.00,5.88,5.40,-0.56,-0.55,0.55
40.14,-6.45,-7.00,-6.44,-6.99,6.00,5.85,5.26,-0.45,-0.44,0.55
40.54,-6.29,-6.84,-6.30,-6.85,6.00,5.81,5.13,-0.29,-0.29,0.55
40.94,-6.14,-6.68,-6.15,-6.69,6.01,5.78,5.00,-0.13,-0.13,0.54
41.35,-6.01,-6.54,-6.00,-6.53,6.02,5.74,4.88,0.01,0.02,0.53
41.76,-5.87,-6.38,-5.88,-6.39,6.02,5.70,4.75,0.16,0.15,0.52
42.18,-5.76,-6.27,-5.76,-6.27,6.01,5.65,4.63,0.25,0.25,0.51
42.60,-5.66,-6.16,-5.66,-6.16,5.98,5.60,4.51,0.32,0.32,0.50
43.03,-5.56,-6.05,-5.56,-6.05,5.93,5.55,4.40,0.37,0.36,0.49
43.46,-5.47,-5.94,-5.47,-5.94,5.86,5.50,4.28,0.40,0.40,0.47
43.90,-5.37,-5.81,-5.36,-5.81,5.79,5.45,4.18,0.42,0.43,0.44
44.33,-5.25,-5.68,-5.24,-5.66,5.70,5.39,4.07,0.45,0.46,0.43
44.78,-5.11,-5.51,-5.13,-5.54,5.60,5.32,3.97,0.49,0.47,0.40
45.23,-5.03,-5.42,-5.05,-5.44,5.49,5.26,3.87,0.46,0.43,0.39
45.68,-5.01,-5.38,-4.99,-5.36,5.37,5.19,3.77,0.36,0.38,0.37
46.13,-4.95,-5.31,-4.93,-5.28,5.26,5.12,3.68,0.31,0.33,0.36
46.60,-4.82,-5.17,-4.83,-5.18,5.14,5.05,3.59,0.32,0.32,0.35
47.06,-4.69,-5.03,-4.70,-5.04,5.03,4.97,3.50,0.34,0.34,0.34
47.53,-4.57,-4.91,-4.57,-4.91,4.92,4.89,3.41,0.35,0.35,0.34
48.01,-4.46,-4.79,-4.47,-4.79,4.80,4.81,3.33,0.34,0.33,0.33
48.49,-4.36,-4.67,-4.36,-4.68,4.67,4.72,3.25,0.31,0.31,0.31
48.97,-4.26,-4.56,-4.24,-4.54,4.54,4.64,3.17,0.28,0.30,0.30
49.46,-4.12,-4.41,-4.12,-4.40,4.41,4.55,3.10,0.29,0.29,0.29
49.96,-3.97,-4.24,-3.99,-4.27,4.28,4.45,3.02,0.31,0.28,0.27
50.46,-3.87,-4.15,-3.87,-4.15,4.15,4.35,2.95,0.28,0.28,0.28
50.96,-3.78,-4.06,-3.76,-4.03,4.03,4.25,2.89,0.25,0.28,0.28
51.47,-3.64,-3.91,-3.64,-3.91,3.91,4.15,2.82,0.27,0.27,0.27
51.99,-3.50,-3.76,-3.52,-3.79,3.80,4.05,2.75,0.30,0.28,0.26
52.51,-3.42,-3.68,-3.41,-3.67,3.69,3.94,2.69,0.27,0.27,0.26
53.03,-3.33,-3.59,-3.33,-3.58,3.58,3.83,2.63,0.25,0.25,0.26
53.56,-3.24,-3.49,-3.24,-3.49,3.48,3.72,2.57,0.24,0.23,0.25
54.10,-3.15,-3.39,-3.14,-3.38,3.37,3.60,2.51,0.22,0.23,0.24
54.64,-3.02,-3.26,-3.03,-3.26,3.26,3.48,2.45,0.24,0.24,0.24
55.18,-2.91,-3.14,-2.92,-3.15,3.15,3.37,2.40,0.24,0.24,0.23
55.74,-2.81,-3.03,-2.81,-3.03,3.04,3.24,2.34,0.23,0.23,0.22
56.29,-2.72,-2.94,-2.72,-2.93,2.92,3.12,2.28,0.20,0.21,0.22
56.86,-2.62,-2.82,-2.62,-2.81,2.80,3.00,2.23,0.18,0.19,0.20
57.42,-2.51,-2.69,-2.50,-2.69,2.68,2.87,2.18,0.17,0.18,0.18
58.00,-2.38,-2.55,-2.38,-2.55,2.56,2.74,2.12,0.18,0.18,0.17
58.58,-2.26,-2.42,-2.27,-2.43,2.44,2.61,2.07,0.18,0.17,0.16
59.16,-2.16,-2.30,-2.17,-2.31,2.31,2.48,2.01,0.15,0.14,0.14
59.76,-2.08,-2.20,-2.06,-2.19,2.18,2.35,1.96,0.10,0.12,0.12
60.35,-1.97,-2.07,-1.96,-2.06,2.05,2.22,1.91,0.08,0.09,0.10
60.96,-1.84,-1.91,-1.87,-1.94,1.92,2.08,1.85,0.08,0.05,0.07
61.57,-1.78,-1.81,-1.77,-1.80,1.80,1.95,1.80,0.02,0.03,0.03
62.18,-1.70,-1.69,-1.66,-1.66,1.68,1.81,1.74,-0.02,0.01,-0.01
62.80,-1.55,-1.50,-1.59,-1.55,1.56,1.68,1.69,0.01,-0.03,-0.05
63.43,-1.50,-1.42,-1.52,-1.44,1.44,1.54,1.63,-0.06,-0.08,-0.08
64.07,-1.50,-1.38,-1.45,-1.33,1.32,1.41,1.57,-0.18,-0.13,-0.12
64.71,-1.37,-1.21,-1.37,-1.22,1.20,1.27,1.52,-0.17,-0.17,-0.16
65.35,-1.26,-1.07,-1.28,-1.09,1.09,1.14,1.46,-0.17,-0.20,-0.18
66.01,-1.18,-0.96,-1.20,-0.98,0.97,1.00,1.40,-0.21,-0.23,-0.22
66.67,-1.15,-0.89,-1.12,-0.86,0.86,0.87,1.34,-0.29,-0.26,-0.26
67.33,-1.06,-0.77,-1.03,-0.73,0.74,0.73,1.28,-0.32,-0.29,-0.29
68.01,-0.90,-0.57,-0.94,-0.61,0.62,0.60,1.22,-0.28,-0.32,-0.33
68.69,-0.85,-0.48,-0.88,-0.51,0.50,0.47,1.16,-0.35,-0.37,-0.37
69.37,-0.83,-0.42,-0.82,-0.40,0.39,0.34,1.10,-0.44,-0.43,-0.41
70.07,-0.82,-0.36,-0.75,-0.29,0.28,0.22,1.03,-0.54,-0.47,-0.46
70.77,-0.61,-0.12,-0.65,-0.16,0.17,0.09,0.97,-0.44,-0.48,-0.49
71.48,-0.53,0.00,-0.58,-0.04,0.06,-0.03,0.90,-0.47,-0.51,-0.53
72.19,-0.52,0.05,-0.51,0.06,-0.05,-0.15,0.84,-0.57,-0.56,-0.57
72.91,-0.54,0.09,-0.48,0.14,-0.16,-0.27,0.78,-0.69,-0.64,-0.63
73.64,-0.41,0.26,-0.44,0.24,-0.27,-0.38,0.71,-0.68,-0.70,-0.67
74.38,-0.34,0.38,-0.37,0.35,-0.37,-0.49,0.64,-0.71,-0.75,-0.72
75.12,-0.32,0.44,-0.28,0.48,-0.47,-0.60,0.58,-0.79,-0.75,-0.76
75.87,-0.23,0.57,-0.21,0.59,-0.57,-0.70,0.51,-0.80,-0.78,-0.80
76.63,-0.10,0.74,-0.16,0.68,-0.67,-0.81,0.44,-0.77,-0.83,-0.84
77.40,-0.10,0.77,-0.11,0.77,-0.76,-0.90,0.38,-0.86,-0.87,-0.87
78.17,-0.15,0.76,-0.06,0.85,-0.84,-1.00,0.31,-0.99,-0.91,-0.91
78.95,0.01,0.95,-0.04,0.90,-0.91,-1.09,0.24,-0.90,-0.96,-0.94
79.74,0.02,0.99,-0.02,0.95,-0.96,-1.17,0.17,-0.94,-0.98,-0.97
80.54,-0.01,0.99,0.05,1.05,-1.00,-1.25,0.10,-1.01,-0.95,-1.00
81.35,0.04,1.07,0.08,1.10,-1.05,-1.33,0.03,-1.01,-0.97,-1.03
82.16,0.17,1.23,0.05,1.10,-1.11,-1.40,-0.04,-0.94,-1.06,-1.06
82.98,0.02,1.10,0.01,1.10,-1.16,-1.47,-0.11,-1.14,-1.15,-1.08
83.81,-0.13,0.99,0.01,1.13,-1.21,-1.53,-0.18,-1.34,-1.20,-1.12
84.65,0.07,1.23,0.07,1.22,-1.27,-1.60,-0.25,-1.20,-1.20,-1.16
85.50,0.26,1.44,0.18,1.36,-1.32,-1.65,-0.33,-1.06,-1.14,-1.18
86.35,0.30,1.51,0.27,1.48,-1.39,-1.70,-0.40,-1.09,-1.12,-1.21
87.22,0.22,1.47,0.26,1.50,-1.48,-1.75,-0.47,-1.26,-1.22,-1.24
88.09,0.22,1.50,0.21,1.49,-1.56,-1.79,-0.55,-1.34,-1.35,-1.28
88.97,0.22,1.52,0.25,1.55,-1.63,-1.83,-0.62,-1.41,-1.38,-1.30
89.86,0.28,1.62,0.33,1.67,-1.67,-1.87,-0.70,-1.39,-1.34,-1.34
90.76,0.47,1.84,0.39,1.76,-1.69,-1.90,-0.77,-1.22,-1.30,-1.37
91.66,0.42,1.82,0.42,1.82,-1.70,-1.93,-0.85,-1.28,-1.28,-1.40
92.58,0.35,1.79,0.36,1.79,-1.71,-1.95,-0.93,-1.36,-1.35,-1.44
93.51,0.26,1.72,0.22,1.68,-1.73,-1.98,-1.00,-1.47,-1.50,-1.46
94.44,0.11,1.60,0.15,1.64,-1.74,-2.00,-1.08,-1.63,-1.59,-1.49
95.39,0.07,1.59,0.13,1.65,-1.74,-2.01,-1.16,-1.67,-1.61,-1.52
96.34,0.20,1.75,0.15,1.70,-1.74,-2.02,-1.24,-1.54,-1.59,-1.55
97.30,0.22,1.80,0.20,1.78,-1.74,-2.04,-1.32,-1.52,-1.54,-1.58
98.28,0.21,1.82,0.22,1.82,-1.76,-2.04,-1.40,-1.55,-1.54,-1.61
99.26,0.19,1.82,0.19,1.82,-1.79,-2.05,-1.48,-1.60,-1.60,-1.63
100.25,0.17,1.82,0.17,1.82,-1.83,-2.05,-1.56,-1.66,-1.66,-1.65
101.25,0.15,1.83,0.15,1.84,-1.85,-2.06,-1.63,-1.70,-1.70,-1.68
102.27,0.14,1.85,0.14,1.85,-1.87,-2.06,-1.71,-1.73,-1.73,-1.71
103.29,0.13,1.89,0.13,1.88,-1.88,-2.06,-1.79,-1.75,-1.75,-1.76
104.32,0.11,1.89,0.11,1.89,-1.90,-2.05,-1.87,-1.79,-1.79,-1.78
105.37,0.09,1.90,0.09,1.90,-1.91,-2.05,-1.94,-1.82,-1.82,-1.81
106.42,0.06,1.90,0.06,1.91,-1.92,-2.05,-2.02,-1.86,-1.85,-1.84
107.48,0.04,1.92,0.04,1.92,-1.91,-2.04,-2.09,-1.87,-1.88,-1.88
108.56,0.01,1.93,0.02,1.94,-1.90,-2.03,-2.16,-1.89,-1.89,-1.92
109.64,-0.01,1.95,0.02,1.97,-1.90,-2.03,-2.23,-1.91,-1.88,-1.96
110.74,-0.02,1.97,-0.06,1.93,-1.90,-2.02,-2.30,-1.92,-1.96,-1.99
111.85,-0.08,1.93,-0.18,1.83,-1.90,-2.01,-2.36,-1.98,-2.09,-2.01
112.97,-0.38,1.68,-0.23,1.83,-1.90,-2.00,-2.42,-2.28,-2.13,-2.06
114.10,-0.30,1.78,-0.22,1.87,-1.91,-1.99,-2.48,-2.21,-2.13,-2.08
115.24,-0.01,2.11,-0.18,1.93,-1.92,-1.98,-2.53,-1.93,-2.11,-2.12
116.39,-0.13,2.01,-0.13,2.01,-1.94,-1.97,-2.59,-2.07,-2.08,-2.14
117.55,-0.23,1.94,-0.18,1.99,-1.97,-1.96,-2.63,-2.20,-2.15,-2.17
118.73,-0.25,1.95,-0.24,1.95,-1.99,-1.95,-2.67,-2.24,-2.23,-2.20
119.92,-0.24,1.96,-0.20,2.01,-2.01,-1.94,-2.70,-2.25,-2.22,-2.20
121.12,-0.11,2.12,-0.17,2.05,-2.03,-1.93,-2.74,-2.14,-2.20,-2.23
122.33,-0.16,2.08,-0.18,2.05,-2.03,-1.92,-2.76,-2.19,-2.21,-2.24
123.55,-0.26,1.99,-0.23,2.03,-2.02,-1.91,-2.78,-2.28,-2.25,-2.25
124.79,-0.31,1.96,-0.29,1.98,-2.01,-1.90,-2.79,-2.32,-2.30,-2.27
126.03,-0.31,1.98,-0.31,1.98,-1.99,-1.89,-2.81,-2.30,-2.30,-2.29
127.29,-0.30,2.00,-0.32,1.99,-1.97,-1.88,-2.81,-2.27,-2.29,-2.30
128.57,-0.33,1.99,-0.34,1.98,-1.95,-1.87,-2.81,-2.28,-2.29,-2.32
129.85,-0.39,1.95,-0.39,1.95,-1.94,-1.86,-2.80,-2.33,-2.32,-2.34
131.15,-0.45,1.90,-0.44,1.91,-1.94,-1.85,-2.79,-2.39,-2.38,-2.35
132.46,-0.47,1.89,-0.48,1.88,-1.96,-1.84,-2.77,-2.43,-2.44,-2.36
133.79,-0.48,1.88,-0.46,1.91,-1.97,-1.83,-2.75,-2.45,-2.43,-2.36
135.12,-0.46,1.93,-0.42,1.96,-1.97,-1.83,-2.72,-2.43,-2.39,-2.39
136.48,-0.32,2.07,-0.40,1.99,-1.96,-1.82,-2.69,-2.28,-2.36,-2.39
137.84,-0.41,2.00,-0.37,2.05,-1.93,-1.81,-2.66,-2.34,-2.30,-2.41
139.22,-0.45,1.99,-0.40,2.04,-1.91,-1.80,-2.62,-2.36,-2.31,-2.44
140.61,-0.41,2.05,-0.53,1.93,-1.90,-1.79,-2.58,-2.31,-2.42,-2.46
142.02,-0.67,1.79,-0.67,1.80,-1.88,-1.79,-2.54,-2.55,-2.55,-2.46
143.44,-0.86,1.62,-0.77,1.71,-1.85,-1.78,-2.49,-2.71,-2.61,-2.48
144.87,-0.84,1.66,-0.79,1.71,-1.81,-1.77,-2.44,-2.65,-2.60,-2.50
146.32,-0.66,1.87,-0.73,1.79,-1.78,-1.77,-2.39,-2.44,-2.51,-2.53
147.78,-0.64,1.92,-0.70,1.86,-1.76,-1.76,-2.34,-2.40,-2.46,-2.56
149.26,-0.79,1.80,-0.74,1.85,-1.77,-1.75,-2.29,-2.56,-2.51,-2.59
150.75,-0.86,1.79,-0.85,1.79,-1.79,-1.75,-2.24,-2.65,-2.63,-2.65
152.26,-0.92,1.77,-0.94,1.76,-1.82,-1.74,-2.18,-2.74,-2.76,-2.69
153.78,-0.98,1.76,-0.98,1.76,-1.84,-1.73,-2.13,-2.82,-2.82,-2.74
155.32,-1.03,1.78,-0.99,1.82,-1.85,-1.72,-2.08,-2.88,-2.84,-2.81
156.88,-0.99,1.87,-0.99,1.87,-1.85,-1.72,-2.02,-2.84,-2.84,-2.86
158.44,-0.95,1.98,-1.02,1.91,-1.85,-1.71,-1.97,-2.80,-2.87,-2.93
160.03,-1.10,1.89,-1.07,1.92,-1.86,-1.70,-1.92,-2.96,-2.93,-2.99
161.63,-1.19,1.85,-1.17,1.88,-1.87,-1.69,-1.87,-3.06,-3.04,-3.04
163.24,-1.25,1.85,-1.26,1.83,-1.87,-1.68,-1.82,-3.12,-3.13,-3.10
164.88,-1.33,1.80,-1.32,1.82,-1.85,-1.67,-1.77,-3.18,-3.17,-3.13
166.53,-1.37,1.80,-1.38,1.80,-1.81,-1.66,-1.72,-3.18,-3.19,-3.17
168.19,-1.44,1.76,-1.44,1.76,-1.76,-1.65,-1.67,-3.20,-3.20,-3.20
169.87,-1.49,1.74,-1.47,1.75,-1.71,-1.64,-1.62,-3.20,-3.18,-3.23
171.57,-1.55,1.70,-1.53,1.72,-1.65,-1.62,-1.57,-3.20,-3.19,-3.25
173.29,-1.55,1.71,-1.63,1.63,-1.61,-1.61,-1.53,-3.16,-3.24,-3.26
175.02,-1.75,1.51,-1.74,1.52,-1.57,-1.59,-1.49,-3.32,-3.32,-3.26
176.77,-1.89,1.38,-1.81,1.46,-1.54,-1.57,-1.44,-3.43,-3.34,-3.27
178.54,-1.83,1.44,-1.81,1.45,-1.51,-1.55,-1.40,-3.34,-3.32,-3.27
180.32,-1.72,1.54,-1.80,1.46,-1.47,-1.54,-1.36,-3.19,-3.27,-3.26
182.13,-1.75,1.50,-1.79,1.47,-1.43,-1.52,-1.32,-3.18,-3.21,-3.25
183.95,-1.90,1.36,-1.78,1.48,-1.39,-1.49,-1.28,-3.29,-3.17,-3.26
185.79,-1.80,1.46,-1.83,1.44,-1.37,-1.47,-1.25,-3.17,-3.20,-3.26
187.65,-1.79,1.49,-1.90,1.37,-1.36,-1.45,-1.21,-3.15,-3.27,-3.28
189.52,-2.03,1.25,-1.98,1.30,-1.36,-1.42,-1.18,-3.39,-3.34,-3.28
191.42,-2.13,1.16,-2.06,1.23,-1.35,-1.40,-1.14,-3.48,-3.41,-3.29
193.33,-2.06,1.24,-2.06,1.24,-1.34,-1.37,-1.11,-3.40,-3.39,-3.30
195.27,-1.96,1.36,-1.99,1.33,-1.31,-1.35,-1.08,-3.27,-3.30,-3.32
197.22,-1.91,1.43,-1.93,1.40,-1.29,-1.32,-1.05,-3.20,-3.22,-3.34
199.19,-1.98,1.38,-1.95,1.41,-1.28,-1.29,-1.02,-3.26,-3.22,-3.36
201.18,-2.00,1.37,-2.05,1.32,-1.27,-1.27,-0.99,-3.27,-3.31,-3.37
203.19,-2.16,1.22,-2.18,1.21,-1.25,-1.24,-0.96,-3.41,-3.43,-3.38
205.23,-2.34,1.07,-2.27,1.13,-1.24,-1.21,-0.94,-3.57,-3.51,-3.41
207.28,-2.32,1.09,-2.30,1.12,-1.21,-1.18,-0.91,-3.53,-3.51,-3.41
209.35,-2.26,1.18,-2.27,1.17,-1.17,-1.15,-0.89,-3.43,-3.44,-3.44
211.44,-2.20,1.26,-2.25,1.20,-1.15,-1.12,-0.86,-3.35,-3.40,-3.46
213.56,-2.27,1.20,-2.29,1.18,-1.14,-1.10,-0.84,-3.41,-3.43,-3.47
215.69,-2.38,1.10,-2.33,1.15,-1.14,-1.07,-0.81,-3.52,-3.47,-3.48
217.85,-2.39,1.09,-2.36,1.13,-1.14,-1.04,-0.79,-3.53,-3.50,-3.48
220.03,-2.34,1.16,-2.38,1.12,-1.12,-1.01,-0.77,-3.46,-3.51,-3.50
222.23,-2.37,1.14,-2.40,1.10,-1.10,-0.98,-0.75,-3.47,-3.50,-3.51
224.45,-2.48,1.02,-2.42,1.08,-1.07,-0.95,-0.72,-3.55,-3.49,-3.50
226.70,-2.46,1.03,-2.46,1.04,-1.04,-0.92,-0.70,-3.50,-3.50,-3.49
228.96,-2.44,1.05,-2.50,0.99,-1.00,-0.90,-0.68,-3.45,-3.51,-3.49
231.25,-2.55,0.93,-2.52,0.96,-0.96,-0.87,-0.66,-3.51,-3.48,-3.48
233.57,-2.58,0.88,-2.54,0.93,-0.91,-0.84,-0.64,-3.49,-3.45,-3.46
235.90,-2.54,0.91,-2.56,0.89,-0.86,-0.81,-0.62,-3.40,-3.42,-3.45
238.26,-2.53,0.90,-2.59,0.84,-0.82,-0.79,-0.60,-3.35,-3.41,-3.43
240.64,-2.66,0.74,-2.64,0.76,-0.78,-0.76,-0.58,-3.44,-3.42,-3.40
243.05,-2.73,0.64,-2.69,0.68,-0.73,-0.73,-0.55,-3.46,-3.43,-3.37
245.48,-2.71,0.63,-2.70,0.64,-0.68,-0.70,-0.53,-3.39,-3.38,-3.34
247.93,-2.66,0.66,-2.67,0.65,-0.63,-0.68,-0.51,-3.29,-3.29,-3.32
250.41,-2.62,0.68,-2.65,0.65,-0.58,-0.65,-0.49,-3.20,-3.23,-3.30
252.92,-2.68,0.59,-2.68,0.59,-0.54,-0.62,-0.47,-3.22,-3.23,-3.27
255.45,-2.75,0.49,-2.76,0.49,-0.51,-0.60,-0.45,-3.26,-3.27,-3.24
258.00,-2.83,0.40,-2.80,0.42,-0.49,-0.57,-0.42,-3.32,-3.29,-3.23
260.58,-2.83,0.38,-2.79,0.42,-0.47,-0.54,-0.40,-3.30,-3.26,-3.21
263.19,-2.70,0.49,-2.75,0.44,-0.46,-0.51,-0.38,-3.16,-3.21,-3.19
265.82,-2.67,0.50,-2.69,0.48,-0.46,-0.49,-0.36,-3.13,-3.15,-3.17
268.48,-2.70,0.45,-2.67,0.48,-0.46,-0.46,-0.33,-3.16,-3.13,-3.15
271.16,-2.65,0.47,-2.67,0.45,-0.47,-0.43,-0.31,-3.12,-3.14,-3.12
273.87,-2.67,0.43,-2.64,0.46,-0.46,-0.40,-0.28,-3.13,-3.10,-3.10
276.61,-2.61,0.47,-2.59,0.48,-0.43,-0.38,-0.26,-3.04,-3.02,-3.08
279.38,-2.54,0.51,-2.58,0.47,-0.39,-0.35,-0.24,-2.93,-2.97,-3.05
282.17,-2.60,0.43,-2.62,0.40,-0.35,-0.32,-0.21,-2.95,-2.97,-3.03
284.99,-2.72,0.28,-2.72,0.27,-0.31,-0.29,-0.19,-3.03,-3.03,-3.00
287.84,-2.84,0.13,-2.80,0.17,-0.27,-0.26,-0.16,-3.11,-3.07,-2.97
290.72,-2.84,0.09,-2.80,0.13,-0.23,-0.23,-0.13,-3.07,-3.03,-2.93
293.63,-2.70,0.20,-2.75,0.16,-0.18,-0.20,-0.11,-2.88,-2.93,-2.90
296.57,-2.67,0.20,-2.68,0.19,-0.15,-0.17,-0.08,-2.82,-2.83,-2.87
299.53,-2.66,0.19,-2.65,0.19,-0.12,-0.14,-0.05,-2.78,-2.78,-2.85
302.53,-2.68,0.14,-2.69,0.13,-0.10,-0.11,-0.03,-2.78,-2.79,-2.82
305.55,-2.73,0.05,-2.74,0.05,-0.07,-0.07,-0.00,-2.80,-2.81,-2.79
308.61,-2.79,-0.02,-2.76,0.00,-0.03,-0.04,0.03,-2.82,-2.79,-2.77
311.69,-2.80,-0.05,-2.76,-0.02,0.03,-0.01,0.06,-2.77,-2.74,-2.75
314.81,-2.72,-0.01,-2.77,-0.05,0.09,0.03,0.08,-2.63,-2.67,-2.71
317.96,-2.80,-0.10,-2.84,-0.14,0.16,0.06,0.11,-2.64,-2.68,-2.70
321.14,-2.93,-0.24,-2.93,-0.24,0.23,0.10,0.14,-2.70,-2.70,-2.69
324.35,-3.11,-0.43,-3.00,-0.33,0.29,0.14,0.17,-2.82,-2.72,-2.68
327.59,-2.99,-0.33,-3.04,-0.38,0.35,0.18,0.20,-2.64,-2.69,-2.66
330.87,-3.01,-0.36,-3.05,-0.40,0.40,0.22,0.23,-2.61,-2.65,-2.65
334.18,-3.09,-0.45,-3.06,-0.42,0.44,0.26,0.26,-2.65,-2.62,-2.64
337.52,-3.12,-0.48,-3.11,-0.48,0.47,0.30,0.29,-2.65,-2.64,-2.64
340.90,-3.13,-0.51,-3.13,-0.51,0.48,0.34,0.32,-2.65,-2.65,-2.62
344.30,-3.13,-0.52,-3.13,-0.52,0.50,0.38,0.35,-2.63,-2.64,-2.61
347.75,-3.13,-0.53,-3.13,-0.53,0.52,0.43,0.38,-2.61,-2.61,-2.60
351.23,-3.12,-0.53,-3.11,-0.52,0.55,0.47,0.42,-2.57,-2.56,-2.59
354.74,-3.12,-0.53,-3.11,-0.52,0.60,0.52,0.45,-2.52,-2.51,-2.59
358.28,-3.12,-0.54,-3.16,-0.57,0.64,0.57,0.48,-2.48,-2.52,-2.58
361.87,-3.23,-0.64,-3.26,-0.68,0.68,0.62,0.52,-2.55,-2.58,-2.59
365.49,-3.41,-0.83,-3.36,-0.78,0.73,0.67,0.55,-2.68,-2.63,-2.58
369.14,-3.46,-0.88,-3.43,-0.85,0.78,0.72,0.58,-2.68,-2.65,-2.58
372.83,-3.43,-0.85,-3.45,-0.87,0.83,0.77,0.62,-2.60,-2.62,-2.58
376.56,-3.41,-0.83,-3.43,-0.86,0.87,0.82,0.65,-2.54,-2.57,-2.58
380.33,-3.45,-0.89,-3.45,-0.88,0.90,0.87,0.69,-2.55,-2.55,-2.56
384.13,-3.49,-0.92,-3.49,-0.92,0.91,0.92,0.72,-2.58,-2.57,-2.57
387.97,-3.53,-0.96,-3.52,-0.95,0.93,0.97,0.76,-2.60,-2.59,-2.57
391.85,-3.53,-0.96,-3.52,-0.95,0.95,1.02,0.79,-2.58,-2.57,-2.57
395.77,-3.53,-0.96,-3.53,-0.96,0.99,1.07,0.83,-2.54,-2.54,-2.57
399.73,-3.54,-0.97,-3.57,-1.00,1.04,1.11,0.86,-2.50,-2.52,-2.57
403.72,-3.65,-1.07,-3.64,-1.07,1.11,1.16,0.90,-2.54,-2.53,-2.58
407.76,-3.74,-1.16,-3.74,-1.17,1.17,1.20,0.93,-2.57,-2.57,-2.58
411.84,-3.85,-1.28,-3.83,-1.26,1.24,1.24,0.97,-2.61,-2.59,-2.57
415.96,-3.92,-1.34,-3.91,-1.34,1.32,1.28,1.00,-2.60,-2.60,-2.58
420.12,-3.95,-1.37,-3.98,-1.40,1.39,1.31,1.04,-2.56,-2.59,-2.58
424.32,-4.05,-1.48,-4.02,-1.45,1.44,1.34,1.07,-2.61,-2.58,-2.57
428.56,-4.06,-1.49,-4.06,-1.49,1.48,1.37,1.10,-2.58,-2.58,-2.57
432.85,-4.05,-1.50,-4.07,-1.52,1.49,1.39,1.13,-2.56,-2.58,-2.55
437.18,-4.06,-1.53,-4.03,-1.50,1.49,1.40,1.16,-2.57,-2.54,-2.53
441.55,-3.99,-1.50,-4.00,-1.50,1.48,1.41,1.19,-2.51,-2.52,-2.49
