frequency,raw,error,smoothed,error_smoothed,equalization,parametric_eq,fixed_band_eq,equalized_raw,equalized_smoothed,target
20.00,6.10,-3.94,6.10,-3.94,3.94,-0.63,-0.94,10.04,10.05,10.04
20.20,6.33,-3.71,6.33,-3.70,3.70,-0.65,-0.97,10.04,10.04,10.04
20.40,6.56,-3.46,6.56,-3.47,3.47,-0.67,-0.99,10.03,10.03,10.03
20.61,6.78,-3.25,6.79,-3.24,3.24,-0.68,-1.02,10.01,10.02,10.03
20.81,7.01,-3.00,7.01,-3.01,3.01,-0.70,-1.05,10.02,10.02,10.02
21.02,7.23,-2.78,7.23,-2.78,2.78,-0.72,-1.08,10.01,10.01,10.02
21.23,7.45,-2.55,7.45,-2.55,2.55,-0.74,-1.12,10.01,10.01,10.01
21.44,7.67,-2.33,7.67,-2.33,2.33,-0.76,-1.15,10.01,10.00,10.01
21.66,7.89,-2.11,7.89,-2.11,2.11,-0.78,-1.18,10.00,10.00,10.00
21.87,8.11,-1.89,8.11,-1.89,1.89,-0.80,-1.22,10.00,10.00,10.00
22.09,8.31,-1.67,8.31,-1.67,1.67,-0.82,-1.25,9.99,9.99,9.99
22.31,8.53,-1.46,8.52,-1.46,1.46,-0.84,-1.29,9.99,9.98,9.98
22.54,8.72,-1.27,8.73,-1.26,1.25,-0.87,-1.33,9.97,9.98,9.98
22.76,8.93,-1.04,8.93,-1.05,1.05,-0.89,-1.37,9.98,9.97,9.97
22.99,9.12,-0.85,9.13,-0.84,0.84,-0.92,-1.41,9.97,9.97,9.97
23.22,9.32,-0.64,9.32,-0.64,0.65,-0.94,-1.45,9.97,9.97,9.96
23.45,9.51,-0.45,9.51,-0.45,0.46,-0.97,-1.49,9.97,9.96,9.96
23.69,9.69,-0.27,9.69,-0.26,0.27,-1.00,-1.53,9.96,9.96,9.96
23.92,9.87,-0.08,9.87,-0.08,0.09,-1.03,-1.57,9.96,9.96,9.95
24.16,10.04,0.09,10.04,0.09,-0.09,-1.06,-1.61,9.95,9.95,9.95
24.40,10.20,0.26,10.21,0.26,-0.26,-1.09,-1.66,9.94,9.95,9.95
24.65,10.36,0.41,10.37,0.42,-0.43,-1.12,-1.70,9.93,9.94,9.95
24.89,10.53,0.60,10.53,0.59,-0.59,-1.15,-1.75,9.95,9.94,9.94
25.14,10.68,0.75,10.68,0.75,-0.74,-1.19,-1.80,9.94,9.94,9.94
25.39,10.83,0.90,10.84,0.90,-0.90,-1.22,-1.84,9.94,9.94,9.94
25.65,10.98,1.05,10.98,1.05,-1.05,-1.26,-1.89,9.93,9.93,9.94
25.91,11.13,1.19,11.13,1.19,-1.19,-1.30,-1.93,9.94,9.93,9.93
26.16,11.26,1.33,11.27,1.33,-1.33,-1.34,-1.98,9.93,9.93,9.93
26.43,11.40,1.47,11.40,1.47,-1.47,-1.39,-2.03,9.93,9.93,9.93
26.69,11.53,1.61,11.53,1.61,-1.60,-1.43,-2.07,9.93,9.93,9.92
26.96,11.66,1.74,11.66,1.74,-1.73,-1.48,-2.12,9.93,9.92,9.92
27.23,11.78,1.86,11.78,1.86,-1.86,-1.53,-2.16,9.92,9.92,9.92
27.50,11.89,1.97,11.90,1.98,-1.98,-1.58,-2.21,9.91,9.92,9.92
27.77,12.01,2.10,12.01,2.10,-2.10,-1.63,-2.25,9.92,9.91,9.92
28.05,12.12,2.22,12.12,2.21,-2.21,-1.69,-2.29,9.91,9.91,9.91
28.33,12.22,2.32,12.23,2.32,-2.32,-1.75,-2.33,9.90,9.91,9.91
28.62,12.33,2.43,12.33,2.43,-2.43,-1.81,-2.37,9.90,9.90,9.90
28.90,12.42,2.53,12.43,2.53,-2.53,-1.87,-2.41,9.89,9.89,9.89
29.19,12.52,2.63,12.52,2.63,-2.63,-1.94,-2.44,9.89,9.89,9.89
29.48,12.61,2.72,12.61,2.73,-2.73,-2.01,-2.47,9.89,9.88,9.89
29.78,12.70,2.82,12.70,2.82,-2.82,-2.08,-2.50,9.88,9.88,9.88
30.08,12.78,2.90,12.78,2.91,-2.91,-2.16,-2.53,9.87,9.88,9.88
30.38,12.87,3.00,12.87,2.99,-2.99,-2.24,-2.55,9.88,9.88,9.87
30.68,12.94,3.07,12.94,3.07,-3.07,-2.32,-2.58,9.87,9.87,9.87
30.99,13.02,3.15,13.02,3.15,-3.15,-2.41,-2.60,9.87,9.87,9.87
31.30,13.09,3.22,13.09,3.22,-3.22,-2.49,-2.61,9.87,9.87,9.87
31.61,13.16,3.28,13.16,3.29,-3.29,-2.59,-2.63,9.88,9.87,9.88
31.93,13.22,3.35,13.22,3.35,-3.35,-2.68,-2.64,9.87,9.87,9.88
32.24,13.28,3.41,13.28,3.41,-3.41,-2.78,-2.65,9.87,9.87,9.87
32.57,13.34,3.47,13.34,3.47,-3.47,-2.88,-2.65,9.87,9.87,9.87
32.89,13.40,3.53,13.40,3.53,-3.53,-2.99,-2.66,9.87,9.87,9.87
33.22,13.45,3.59,13.45,3.58,-3.58,-3.10,-2.66,9.87,9.87,9.87
33.55,13.49,3.63,13.50,3.63,-3.63,-3.21,-2.66,9.86,9.86,9.86
33.89,13.54,3.68,13.54,3.68,-3.68,-3.32,-2.65,9.86,9.86,9.86
34.23,13.58,3.73,13.58,3.73,-3.73,-3.43,-2.65,9.85,9.85,9.85
34.57,13.61,3.77,13.61,3.77,-3.77,-3.54,-2.65,9.84,9.84,9.85
34.92,13.64,3.81,13.64,3.81,-3.81,-3.65,-2.64,9.83,9.83,9.83
35.27,13.67,3.85,13.67,3.85,-3.85,-3.76,-2.63,9.82,9.82,9.82
35.62,13.70,3.90,13.70,3.88,-3.88,-3.87,-2.62,9.82,9.81,9.81
35.97,13.71,3.91,13.71,3.91,-3.92,-3.97,-2.61,9.80,9.80,9.80
36.33,13.72,3.93,13.73,3.94,-3.95,-4.06,-2.60,9.78,9.78,9.79
36.70,13.74,3.98,13.74,3.97,-3.97,-4.15,-2.59,9.77,9.77,9.77
37.06,13.75,4.00,13.75,4.00,-4.00,-4.23,-2.58,9.76,9.75,9.75
37.43,13.75,4.01,13.76,4.02,-4.02,-4.30,-2.57,9.74,9.74,9.74
37.81,13.76,4.04,13.76,4.03,-4.03,-4.36,-2.56,9.73,9.73,9.72
38.19,13.76,4.05,13.76,4.05,-4.05,-4.41,-2.56,9.71,9.71,9.71
38.57,13.76,4.06,13.76,4.06,-4.06,-4.44,-2.55,9.70,9.70,9.71
38.95,13.76,4.07,13.76,4.07,-4.07,-4.46,-2.54,9.69,9.69,9.69
39.34,13.75,4.07,13.75,4.07,-4.07,-4.47,-2.54,9.68,9.68,9.68
39.74,13.74,4.07,13.74,4.07,-4.07,-4.47,-2.53,9.67,9.67,9.67
40.14,13.73,4.07,13.73,4.07,-4.07,-4.45,-2.53,9.67,9.66,9.66
40.54,13.70,4.05,13.71,4.06,-4.06,-4.42,-2.53,9.64,9.65,9.65
40.94,13.70,4.06,13.70,4.05,-4.05,-4.38,-2.53,9.65,9.65,9.65
41.35,13.68,4.04,13.68,4.04,-4.04,-4.33,-2.53,9.64,9.64,9.64
41.76,13.65,4.02,13.66,4.02,-4.02,-4.28,-2.53,9.63,9.63,9.64
42.18,13.63,4.00,13.63,4.00,-4.00,-4.21,-2.54,9.63,9.63,9.63
42.60,13.60,3.98,13.60,3.98,-3.98,-4.14,-2.54,9.62,9.62,9.62
43.03,13.58,3.97,13.58,3.97,-3.96,-4.07,-2.55,9.62,9.62,9.62
43.46,13.55,3.94,13.55,3.94,-3.94,-3.99,-2.56,9.62,9.61,9.61
43.90,13.52,3.92,13.52,3.91,-3.91,-3.91,-2.57,9.61,9.61,9.60
44.33,13.48,3.88,13.49,3.88,-3.89,-3.83,-2.59,9.60,9.60,9.61
44.78,13.45,3.85,13.45,3.86,-3.86,-3.76,-2.61,9.59,9.59,9.60
45.23,13.42,3.83,13.42,3.83,-3.83,-3.68,-2.62,9.59,9.59,9.59
45.68,13.39,3.80,13.39,3.80,-3.81,-3.60,-2.64,9.59,9.59,9.59
46.13,13.36,3.78,13.36,3.78,-3.78,-3.53,-2.67,9.58,9.58,9.58
46.60,13.32,3.75,13.33,3.75,-3.75,-3.45,-2.69,9.57,9.58,9.57
47.06,13.29,3.73,13.29,3.72,-3.72,-3.39,-2.72,9.57,9.57,9.57
47.53,13.25,3.70,13.25,3.69,-3.69,-3.32,-2.74,9.56,9.56,9.56
48.01,13.20,3.66,13.21,3.66,-3.66,-3.26,-2.77,9.54,9.54,9.55
48.49,13.16,3.64,13.16,3.63,-3.63,-3.20,-2.80,9.53,9.53,9.53
48.97,13.11,3.60,13.12,3.60,-3.60,-3.14,-2.84,9.51,9.52,9.51
49.46,13.07,3.57,13.07,3.57,-3.57,-3.09,-2.87,9.50,9.50,9.50
49.96,13.02,3.54,13.02,3.53,-3.54,-3.04,-2.91,9.49,9.48,9.48
50.46,12.96,3.49,12.97,3.50,-3.50,-2.99,-2.94,9.46,9.47,9.47
50.96,12.92,3.47,12.92,3.47,-3.47,-2.95,-2.98,9.45,9.45,9.45
51.47,12.87,3.44,12.87,3.44,-3.44,-2.91,-3.02,9.43,9.43,9.44
51.99,12.82,3.41,12.83,3.41,-3.41,-2.88,-3.06,9.41,9.42,9.41
52.51,12.78,3.38,12.77,3.38,-3.38,-2.84,-3.10,9.41,9.40,9.40
53.03,12.72,3.34,12.73,3.35,-3.34,-2.81,-3.14,9.38,9.38,9.39
53.56,12.67,3.31,12.68,3.31,-3.31,-2.78,-3.17,9.36,9.37,9.36
54.10,12.63,3.29,12.63,3.28,-3.28,-2.76,-3.21,9.36,9.35,9.35
54.64,12.57,3.24,12.58,3.25,-3.24,-2.74,-3.25,9.33,9.33,9.33
55.18,12.53,3.22,12.53,3.21,-3.21,-2.72,-3.29,9.32,9.32,9.31
55.74,12.48,3.18,12.48,3.18,-3.19,-2.70,-3.33,9.30,9.30,9.31
56.29,12.44,3.15,12.44,3.15,-3.16,-2.68,-3.36,9.28,9.28,9.29
56.86,12.40,3.13,12.40,3.13,-3.14,-2.67,-3.40,9.27,9.27,9.27
57.42,12.37,3.12,12.37,3.12,-3.12,-2.66,-3.43,9.26,9.25,9.25
58.00,12.33,3.10,12.33,3.10,-3.10,-2.65,-3.46,9.24,9.24,9.24
58.58,12.30,3.09,12.30,3.08,-3.08,-2.64,-3.49,9.23,9.22,9.22
59.16,12.25,3.06,12.25,3.06,-3.06,-2.63,-3.51,9.20,9.20,9.20
59.76,12.21,3.04,12.21,3.04,-3.03,-2.63,-3.53,9.18,9.18,9.17
60.35,12.16,3.01,12.17,3.02,-3.01,-2.62,-3.55,9.15,9.15,9.15
60.96,12.12,3.00,12.12,2.99,-2.99,-2.62,-3.57,9.13,9.13,9.12
61.57,12.06,2.96,12.06,2.96,-2.97,-2.62,-3.58,9.10,9.10,9.10
62.18,12.00,2.93,12.01,2.94,-2.94,-2.62,-3.59,9.06,9.07,9.07
62.80,11.96,2.92,11.96,2.91,-2.92,-2.62,-3.59,9.04,9.04,9.04
63.43,11.91,2.90,11.91,2.90,-2.90,-2.62,-3.60,9.01,9.01,9.01
64.07,11.86,2.88,11.87,2.88,-2.88,-2.63,-3.60,8.98,8.98,8.98
64.71,11.82,2.87,11.82,2.86,-2.87,-2.63,-3.59,8.96,8.95,8.95
65.35,11.77,2.85,11.78,2.85,-2.85,-2.64,-3.58,8.92,8.92,8.92
66.01,11.73,2.84,11.74,2.84,-2.84,-2.64,-3.57,8.89,8.90,8.90
66.67,11.70,2.83,11.69,2.83,-2.83,-2.65,-3.56,8.88,8.87,8.87
67.33,11.65,2.81,11.66,2.82,-2.81,-2.66,-3.55,8.84,8.84,8.84
68.01,11.61,2.80,11.61,2.80,-2.80,-2.67,-3.53,8.81,8.81,8.81
68.69,11.57,2.80,11.57,2.79,-2.79,-2.68,-3.51,8.78,8.77,8.78
69.37,11.52,2.78,11.53,2.78,-2.79,-2.69,-3.49,8.73,8.74,8.74
70.07,11.49,2.78,11.49,2.78,-2.78,-2.70,-3.46,8.71,8.71,8.71
70.77,11.45,2.77,11.45,2.78,-2.78,-2.71,-3.44,8.67,8.67,8.68
71.48,11.41,2.78,11.41,2.78,-2.77,-2.72,-3.41,8.64,8.64,8.63
72.19,11.37,2.78,11.38,2.78,-2.77,-2.73,-3.39,8.60,8.60,8.60
72.91,11.34,2.78,11.34,2.78,-2.77,-2.75,-3.36,8.57,8.57,8.56
73.64,11.30,2.78,11.30,2.77,-2.77,-2.76,-3.33,8.53,8.53,8.52
74.38,11.26,2.77,11.27,2.77,-2.78,-2.77,-3.31,8.48,8.49,8.50
75.12,11.23,2.78,11.23,2.78,-2.78,-2.79,-3.28,8.45,8.45,8.46
75.87,11.21,2.80,11.21,2.79,-2.79,-2.80,-3.26,8.42,8.41,8.42
76.63,11.18,2.81,11.18,2.81,-2.81,-2.82,-3.23,8.38,8.38,8.38
77.40,11.15,2.82,11.15,2.82,-2.82,-2.83,-3.21,8.33,8.33,8.33
78.17,11.13,2.84,11.13,2.84,-2.84,-2.85,-3.19,8.29,8.29,8.29
78.95,11.10,2.85,11.11,2.86,-2.86,-2.86,-3.17,8.24,8.25,8.25
79.74,11.09,2.89,11.09,2.88,-2.88,-2.88,-3.15,8.21,8.20,8.20
80.54,11.06,2.90,11.07,2.90,-2.90,-2.89,-3.13,8.16,8.16,8.16
81.35,11.05,2.93,11.05,2.93,-2.93,-2.91,-3.12,8.12,8.12,8.12
82.16,11.03,2.95,11.03,2.95,-2.95,-2.93,-3.11,8.08,8.08,8.08
82.98,11.01,2.98,11.01,2.98,-2.98,-2.94,-3.10,8.03,8.03,8.03
83.81,10.99,3.00,10.99,3.00,-3.00,-2.96,-3.09,7.99,7.99,7.99
84.65,10.97,3.03,10.97,3.03,-3.03,-2.98,-3.08,7.94,7.94,7.94
85.50,10.95,3.06,10.95,3.05,-3.05,-2.99,-3.08,7.90,7.90,7.89
86.35,10.93,3.08,10.93,3.08,-3.08,-3.01,-3.07,7.85,7.85,7.85
87.22,10.90,3.10,10.91,3.11,-3.11,-3.03,-3.07,7.80,7.80,7.80
88.09,10.89,3.14,10.89,3.13,-3.13,-3.04,-3.08,7.76,7.75,7.75
88.97,10.86,3.15,10.86,3.16,-3.16,-3.06,-3.08,7.70,7.71,7.71
89.86,10.84,3.19,10.84,3.18,-3.18,-3.08,-3.09,7.66,7.66,7.66
90.76,10.81,3.20,10.81,3.21,-3.21,-3.09,-3.10,7.61,7.61,7.61
91.66,10.79,3.23,10.79,3.23,-3.23,-3.11,-3.11,7.56,7.56,7.56
92.58,10.76,3.26,10.76,3.25,-3.25,-3.13,-3.13,7.51,7.51,7.50
93.51,10.73,3.27,10.73,3.28,-3.27,-3.14,-3.14,7.46,7.46,7.46
94.44,10.70,3.30,10.70,3.30,-3.30,-3.16,-3.16,7.41,7.40,7.40
95.39,10.66,3.31,10.66,3.32,-3.32,-3.17,-3.18,7.35,7.35,7.35
96.34,10.63,3.34,10.63,3.34,-3.34,-3.19,-3.21,7.29,7.29,7.29
97.30,10.59,3.36,10.59,3.36,-3.36,-3.20,-3.23,7.23,7.23,7.24
98.28,10.56,3.38,10.56,3.38,-3.38,-3.22,-3.26,7.18,7.18,7.18
99.26,10.51,3.40,10.52,3.40,-3.41,-3.24,-3.29,7.11,7.11,7.11
100.25,10.49,3.44,10.48,3.43,-3.43,-3.25,-3.32,7.06,7.05,7.05
101.25,10.44,3.45,10.45,3.45,-3.46,-3.26,-3.35,6.98,6.99,7.00
102.27,10.41,3.48,10.41,3.48,-3.48,-3.28,-3.38,6.93,6.93,6.93
103.29,10.38,3.51,10.38,3.51,-3.51,-3.29,-3.41,6.87,6.87,6.87
104.32,10.34,3.54,10.35,3.54,-3.54,-3.31,-3.45,6.81,6.81,6.80
105.37,10.31,3.57,10.31,3.56,-3.56,-3.32,-3.48,6.75,6.75,6.75
106.42,10.27,3.58,10.27,3.59,-3.59,-3.33,-3.52,6.69,6.69,6.69
107.48,10.23,3.60,10.23,3.61,-3.61,-3.35,-3.55,6.62,6.63,6.63
108.56,10.19,3.63,10.19,3.63,-3.63,-3.36,-3.59,6.56,6.56,6.56
109.64,10.15,3.65,10.15,3.65,-3.65,-3.37,-3.62,6.51,6.50,6.50
110.74,10.10,3.65,10.11,3.66,-3.66,-3.38,-3.65,6.44,6.45,6.45
111.85,10.06,3.68,10.06,3.68,-3.67,-3.39,-3.68,6.39,6.39,6.38
112.97,10.01,3.69,10.01,3.69,-3.68,-3.40,-3.71,6.33,6.33,6.32
114.10,9.95,3.70,9.95,3.69,-3.69,-3.42,-3.74,6.26,6.26,6.26
115.24,9.88,3.68,9.89,3.70,-3.70,-3.43,-3.77,6.19,6.19,6.20
116.39,9.83,3.71,9.83,3.70,-3.70,-3.43,-3.79,6.13,6.12,6.12
117.55,9.76,3.70,9.76,3.70,-3.71,-3.44,-3.81,6.05,6.05,6.06
118.73,9.70,3.71,9.70,3.71,-3.72,-3.45,-3.83,5.98,5.98,5.99
119.92,9.64,3.72,9.64,3.72,-3.73,-3.46,-3.84,5.91,5.91,5.92
121.12,9.58,3.74,9.59,3.74,-3.74,-3.47,-3.85,5.84,5.84,5.84
122.33,9.53,3.76,9.53,3.76,-3.76,-3.48,-3.86,5.77,5.77,5.77
123.55,9.47,3.77,9.47,3.77,-3.77,-3.48,-3.86,5.70,5.70,5.70
124.79,9.41,3.79,9.41,3.79,-3.79,-3.49,-3.86,5.62,5.62,5.63
126.03,9.34,3.80,9.35,3.80,-3.80,-3.49,-3.86,5.54,5.55,5.54
127.29,9.28,3.81,9.28,3.81,-3.81,-3.50,-3.85,5.48,5.48,5.47
128.57,9.22,3.82,9.22,3.81,-3.81,-3.50,-3.83,5.42,5.41,5.40
129.85,9.14,3.81,9.15,3.81,-3.80,-3.51,-3.82,5.34,5.34,5.33
131.15,9.07,3.80,9.07,3.80,-3.79,-3.51,-3.80,5.28,5.28,5.27
132.46,8.99,3.78,8.99,3.78,-3.78,-3.51,-3.78,5.21,5.21,5.22
133.79,8.91,3.75,8.92,3.76,-3.76,-3.52,-3.75,5.15,5.16,5.16
135.12,8.84,3.74,8.84,3.73,-3.74,-3.52,-3.72,5.11,5.10,5.10
136.48,8.76,3.71,8.76,3.71,-3.71,-3.52,-3.69,5.05,5.05,5.06
137.84,8.68,3.68,8.68,3.68,-3.68,-3.52,-3.65,5.00,5.00,5.00
139.22,8.60,3.65,8.60,3.65,-3.65,-3.52,-3.62,4.95,4.96,4.96
140.61,8.52,3.61,8.53,3.61,-3.61,-3.52,-3.58,4.91,4.91,4.91
142.02,8.45,3.58,8.45,3.58,-3.58,-3.52,-3.54,4.88,4.87,4.87
143.44,8.37,3.54,8.37,3.54,-3.54,-3.52,-3.50,4.83,4.83,4.83
144.87,8.29,3.50,8.29,3.50,-3.50,-3.51,-3.45,4.79,4.79,4.79
146.32,8.21,3.46,8.22,3.47,-3.46,-3.51,-3.41,4.75,4.75,4.75
147.78,8.14,3.42,8.14,3.42,-3.43,-3.51,-3.37,4.71,4.71,4.72
149.26,8.07,3.39,8.07,3.39,-3.40,-3.50,-3.33,4.68,4.67,4.68
150.75,7.99,3.35,8.00,3.36,-3.37,-3.50,-3.29,4.63,4.63,4.64
152.26,7.94,3.34,7.94,3.33,-3.34,-3.49,-3.24,4.60,4.60,4.61
153.78,7.88,3.31,7.88,3.31,-3.31,-3.49,-3.20,4.57,4.57,4.57
155.32,7.83,3.30,7.83,3.29,-3.29,-3.48,-3.16,4.54,4.54,4.53
156.88,7.77,3.27,7.77,3.27,-3.27,-3.47,-3.12,4.51,4.50,4.50
158.44,7.71,3.24,7.72,3.25,-3.25,-3.46,-3.09,4.47,4.47,4.47
160.03,7.66,3.23,7.66,3.22,-3.23,-3.46,-3.05,4.44,4.43,4.43
161.63,7.60,3.20,7.60,3.20,-3.20,-3.45,-3.02,4.40,4.40,4.40
163.24,7.55,3.18,7.56,3.18,-3.18,-3.44,-2.98,4.37,4.38,4.37
164.88,7.51,3.17,7.51,3.16,-3.16,-3.43,-2.95,4.35,4.35,4.34
166.53,7.46,3.14,7.46,3.14,-3.13,-3.42,-2.92,4.33,4.32,4.32
168.19,7.40,3.11,7.41,3.11,-3.11,-3.40,-2.90,4.29,4.30,4.29
169.87,7.36,3.09,7.36,3.09,-3.09,-3.39,-2.87,4.27,4.27,4.27
171.57,7.31,3.06,7.31,3.07,-3.07,-3.38,-2.85,4.24,4.24,4.25
173.29,7.27,3.05,7.27,3.05,-3.05,-3.36,-2.83,4.22,4.22,4.22
175.02,7.23,3.03,7.23,3.03,-3.03,-3.35,-2.81,4.20,4.20,4.20
176.77,7.20,3.02,7.20,3.02,-3.02,-3.34,-2.80,4.18,4.18,4.18
178.54,7.17,3.01,7.17,3.01,-3.01,-3.32,-2.78,4.16,4.16,4.16
180.32,7.14,2.99,7.14,3.00,-3.00,-3.30,-2.77,4.14,4.14,4.15
182.13,7.11,2.99,7.11,2.99,-2.99,-3.29,-2.76,4.12,4.12,4.13
183.95,7.08,2.98,7.09,2.98,-2.98,-3.27,-2.75,4.10,4.11,4.10
185.79,7.06,2.97,7.06,2.97,-2.97,-3.25,-2.75,4.09,4.09,4.09
187.65,7.03,2.96,7.03,2.96,-2.96,-3.24,-2.75,4.08,4.07,4.07
189.52,7.00,2.95,7.00,2.95,-2.94,-3.22,-2.74,4.06,4.06,4.05
191.42,6.97,2.93,6.97,2.93,-2.93,-3.20,-2.74,4.04,4.04,4.04
193.33,6.94,2.92,6.94,2.92,-2.92,-3.18,-2.75,4.02,4.03,4.02
195.27,6.91,2.91,6.91,2.90,-2.90,-3.16,-2.75,4.01,4.01,4.01
197.22,6.88,2.89,6.88,2.89,-2.89,-3.14,-2.76,3.99,3.99,3.99
199.19,6.84,2.86,6.85,2.87,-2.87,-3.11,-2.76,3.97,3.98,3.98
201.18,6.82,2.86,6.82,2.86,-2.86,-3.09,-2.77,3.96,3.96,3.97
203.19,6.80,2.85,6.80,2.85,-2.85,-3.07,-2.78,3.95,3.95,3.95
205.23,6.77,2.84,6.77,2.84,-2.84,-3.05,-2.79,3.94,3.94,3.94
207.28,6.74,2.82,6.74,2.82,-2.82,-3.02,-2.80,3.92,3.92,3.92
209.35,6.71,2.81,6.72,2.81,-2.81,-3.00,-2.81,3.90,3.90,3.91
211.44,6.69,2.80,6.69,2.80,-2.80,-2.97,-2.83,3.89,3.89,3.89
213.56,6.67,2.79,6.67,2.79,-2.79,-2.95,-2.84,3.89,3.88,3.88
215.69,6.64,2.78,6.64,2.78,-2.77,-2.92,-2.85,3.87,3.87,3.87
217.85,6.61,2.76,6.61,2.76,-2.75,-2.90,-2.86,3.86,3.86,3.85
220.03,6.57,2.73,6.58,2.73,-2.73,-2.87,-2.87,3.84,3.84,3.84
222.23,6.54,2.71,6.54,2.71,-2.71,-2.84,-2.88,3.83,3.83,3.83
224.45,6.50,2.68,6.50,2.68,-2.68,-2.82,-2.89,3.82,3.82,3.82
226.70,6.46,2.65,6.47,2.66,-2.66,-2.79,-2.90,3.80,3.81,3.81
228.96,6.43,2.63,6.43,2.63,-2.63,-2.76,-2.90,3.80,3.80,3.80
231.25,6.39,2.60,6.39,2.61,-2.61,-2.73,-2.91,3.79,3.79,3.79
233.57,6.35,2.58,6.35,2.58,-2.58,-2.70,-2.91,3.77,3.77,3.77
235.90,6.31,2.55,6.31,2.55,-2.55,-2.67,-2.90,3.76,3.76,3.76
238.26,6.27,2.52,6.27,2.53,-2.52,-2.64,-2.90,3.75,3.75,3.75
240.64,6.23,2.50,6.23,2.50,-2.50,-2.61,-2.89,3.74,3.74,3.73
243.05,6.20,2.48,6.19,2.47,-2.47,-2.58,-2.88,3.73,3.73,3.72
245.48,6.15,2.44,6.16,2.44,-2.44,-2.55,-2.87,3.71,3.72,3.72
247.93,6.11,2.40,6.12,2.41,-2.41,-2.52,-2.85,3.70,3.71,3.71
250.41,6.08,2.38,6.08,2.38,-2.38,-2.49,-2.83,3.70,3.69,3.70
252.92,6.04,2.36,6.04,2.35,-2.36,-2.46,-2.80,3.69,3.69,3.68
255.45,6.00,2.33,6.01,2.33,-2.33,-2.42,-2.77,3.67,3.68,3.68
258.00,5.97,2.30,5.97,2.30,-2.30,-2.39,-2.74,3.67,3.67,3.67
260.58,5.93,2.28,5.93,2.28,-2.28,-2.36,-2.70,3.65,3.66,3.65
263.19,5.90,2.25,5.90,2.25,-2.25,-2.32,-2.66,3.65,3.65,3.65
265.82,5.86,2.23,5.86,2.23,-2.23,-2.29,-2.62,3.64,3.64,3.63
268.48,5.82,2.20,5.82,2.20,-2.20,-2.25,-2.58,3.62,3.63,3.63
271.16,5.79,2.18,5.79,2.17,-2.17,-2.22,-2.53,3.62,3.62,3.61
273.87,5.74,2.14,5.75,2.14,-2.14,-2.18,-2.48,3.60,3.60,3.61
276.61,5.71,2.12,5.71,2.11,-2.12,-2.15,-2.42,3.60,3.59,3.59
279.38,5.66,2.08,5.67,2.09,-2.09,-2.11,-2.37,3.57,3.58,3.59
282.17,5.63,2.06,5.63,2.06,-2.06,-2.08,-2.31,3.57,3.57,3.57
284.99,5.59,2.04,5.59,2.03,-2.03,-2.04,-2.25,3.56,3.55,3.56
287.84,5.54,2.00,5.55,2.01,-2.01,-2.00,-2.19,3.54,3.54,3.54
290.72,5.51,1.98,5.51,1.98,-1.98,-1.97,-2.13,3.53,3.53,3.53
293.63,5.47,1.95,5.47,1.95,-1.95,-1.93,-2.06,3.52,3.52,3.52
296.57,5.43,1.92,5.43,1.92,-1.92,-1.89,-2.00,3.51,3.51,3.51
299.53,5.39,1.90,5.39,1.89,-1.89,-1.85,-1.94,3.50,3.50,3.50
302.53,5.35,1.86,5.35,1.86,-1.86,-1.82,-1.87,3.49,3.49,3.49
305.55,5.31,1.83,5.31,1.83,-1.83,-1.78,-1.81,3.48,3.48,3.48
308.61,5.27,1.80,5.27,1.80,-1.80,-1.74,-1.74,3.47,3.47,3.48
311.69,5.23,1.76,5.23,1.77,-1.77,-1.70,-1.67,3.46,3.47,3.47
314.81,5.20,1.74,5.20,1.74,-1.74,-1.66,-1.61,3.46,3.46,3.46
317.96,5.17,1.72,5.17,1.71,-1.71,-1.62,-1.54,3.46,3.46,3.46
321.14,5.14,1.69,5.14,1.69,-1.69,-1.58,-1.48,3.45,3.45,3.45
324.35,5.10,1.66,5.10,1.66,-1.66,-1.54,-1.41,3.44,3.44,3.44
327.59,5.07,1.63,5.07,1.64,-1.64,-1.50,-1.35,3.43,3.44,3.44
330.87,5.04,1.62,5.04,1.61,-1.61,-1.46,-1.29,3.43,3.43,3.43
334.18,5.02,1.60,5.02,1.59,-1.59,-1.42,-1.23,3.43,3.43,3.42
337.52,4.98,1.56,4.98,1.57,-1.56,-1.37,-1.16,3.42,3.42,3.42
340.90,4.95,1.54,4.95,1.53,-1.54,-1.33,-1.10,3.42,3.41,3.41
344.30,4.90,1.50,4.91,1.51,-1.51,-1.29,-1.04,3.39,3.40,3.41
347.75,4.87,1.48,4.87,1.48,-1.48,-1.25,-0.98,3.39,3.39,3.39
351.23,4.84,1.46,4.83,1.45,-1.45,-1.20,-0.92,3.39,3.38,3.38
354.74,4.79,1.42,4.80,1.42,-1.42,-1.16,-0.86,3.37,3.38,3.37
358.28,4.75,1.38,4.76,1.39,-1.39,-1.12,-0.81,3.36,3.37,3.37
361.87,4.72,1.36,4.71,1.36,-1.36,-1.07,-0.75,3.36,3.35,3.36
365.49,4.67,1.33,4.67,1.33,-1.33,-1.03,-0.69,3.34,3.34,3.35
369.14,4.62,1.29,4.63,1.30,-1.30,-0.98,-0.64,3.32,3.33,3.33
372.83,4.59,1.27,4.58,1.26,-1.26,-0.94,-0.58,3.33,3.32,3.32
376.56,4.54,1.23,4.54,1.23,-1.23,-0.89,-0.53,3.31,3.31,3.31
380.33,4.49,1.19,4.50,1.20,-1.20,-0.84,-0.48,3.30,3.30,3.30
384.13,4.45,1.16,4.45,1.16,-1.16,-0.80,-0.42,3.29,3.29,3.29
387.97,4.39,1.12,4.40,1.12,-1.12,-0.75,-0.37,3.27,3.28,3.28
391.85,4.34,1.08,4.34,1.08,-1.08,-0.70,-0.32,3.27,3.27,3.27
395.77,4.29,1.04,4.29,1.03,-1.03,-0.65,-0.27,3.26,3.26,3.25
399.73,4.23,0.99,4.23,0.99,-0.99,-0.60,-0.22,3.25,3.25,3.24
403.72,4.17,0.93,4.17,0.93,-0.94,-0.55,-0.17,3.24,3.24,3.24
407.76,4.11,0.88,4.11,0.88,-0.89,-0.50,-0.12,3.23,3.23,3.23
411.84,4.05,0.83,4.05,0.83,-0.83,-0.45,-0.07,3.22,3.22,3.22
415.96,3.99,0.78,3.99,0.78,-0.78,-0.40,-0.02,3.21,3.21,3.21
420.12,3.91,0.71,3.92,0.72,-0.72,-0.35,0.03,3.19,3.20,3.20
424.32,3.85,0.67,3.85,0.66,-0.66,-0.30,0.08,3.19,3.19,3.19
428.56,3.78,0.61,3.78,0.60,-0.60,-0.24,0.13,3.18,3.18,3.18
432.85,3.70,0.54,3.70,0.54,-0.54,-0.19,0.18,3.16,3.16,3.17
437.18,3.62,0.47,3.63,0.47,-0.47,-0.14,0.22,3.15,3.15,3.15
441.55,3.55,0.41,3.55,0.41,-0.41,-0.08,0.27,3.14,3.14,3.14
445.96,3.47,0.35,3.47,0.34,-0.34,-0.03,0.32,3.13,3.13,3.12
450.42,3.38,0.27,3.38,0.27,-0.27,0.03,0.36,3.11,3.11,3.11
454.93,3.29,0.19,3.30,0.20,-0.20,0.09,0.41,3.09,3.10,3.10
459.48,3.21,0.13,3.21,0.12,-0.13,0.15,0.46,3.09,3.08,3.08
464.07,3.12,0.05,3.12,0.05,-0.05,0.21,0.50,3.07,3.07,3.07
468.71,3.03,-0.03,3.03,-0.03,0.02,0.27,0.55,3.06,3.06,3.06
473.40,2.94,-0.11,2.94,-0.11,0.10,0.33,0.59,3.04,3.04,3.05
478.13,2.84,-0.19,2.85,-0.18,0.18,0.39,0.64,3.02,3.03,3.03
482.91,2.76,-0.26,2.76,-0.26,0.26,0.45,0.68,3.03,3.02,3.02
487.74,2.66,-0.35,2.66,-0.35,0.35,0.52,0.73,3.01,3.01,3.01
492.62,2.56,-0.43,2.56,-0.43,0.43,0.58,0.77,3.00,3.00,3.00
497.55,2.46,-0.52,2.46,-0.52,0.52,0.65,0.82,2.98,2.98,2.99
502.52,2.36,-0.61,2.36,-0.61,0.61,0.71,0.86,2.97,2.97,2.98
507.55,2.25,-0.70,2.25,-0.70,0.71,0.78,0.91,2.96,2.96,2.96
512.62,2.14,-0.80,2.15,-0.80,0.80,0.85,0.96,2.94,2.95,2.94
517.75,2.04,-0.89,2.04,-0.90,0.90,0.92,1.00,2.94,2.93,2.93
