frequency,raw,error,smoothed,error_smoothed,equalization,parametric_eq,fixed_band_eq,equalized_raw,equalized_smoothed,target
20.00,-18.22,-17.45,-18.22,-17.45,6.00,5.82,2.81,-12.22,-12.22,-0.77
20.20,-18.08,-17.31,-18.08,-17.31,6.00,5.82,2.89,-12.08,-12.08,-0.77
20.40,-17.93,-17.17,-17.93,-17.17,6.00,5.82,2.97,-11.93,-11.93,-0.76
20.61,-17.79,-17.04,-17.79,-17.04,6.00,5.82,3.05,-11.79,-11.79,-0.75
20.81,-17.65,-16.90,-17.65,-16.90,6.00,5.82,3.14,-11.65,-11.65,-0.75
21.02,-17.51,-16.77,-17.50,-16.76,6.00,5.82,3.23,-11.51,-11.50,-0.74
21.23,-17.36,-16.62,-17.36,-16.63,6.00,5.82,3.32,-11.36,-11.36,-0.74
21.44,-17.22,-16.49,-17.22,-16.49,6.00,5.82,3.42,-11.22,-11.22,-0.73
21.66,-17.08,-16.36,-17.07,-16.35,6.00,5.82,3.51,-11.08,-11.07,-0.72
21.87,-16.93,-16.21,-16.93,-16.21,6.00,5.82,3.61,-10.93,-10.93,-0.72
22.09,-16.79,-16.08,-16.79,-16.08,6.00,5.81,3.71,-10.79,-10.79,-0.71
22.31,-16.64,-15.94,-16.64,-15.94,6.00,5.81,3.82,-10.64,-10.64,-0.70
22.54,-16.50,-15.80,-16.50,-15.80,6.00,5.81,3.93,-10.50,-10.50,-0.70
22.76,-16.35,-15.66,-16.35,-15.66,6.00,5.81,4.04,-10.35,-10.35,-0.69
22.99,-16.21,-15.53,-16.21,-15.53,6.00,5.81,4.15,-10.21,-10.21,-0.68
23.22,-16.06,-15.39,-16.06,-15.39,6.00,5.81,4.27,-10.06,-10.06,-0.67
23.45,-15.91,-15.25,-15.91,-15.25,6.00,5.81,4.39,-9.91,-9.91,-0.66
23.69,-15.76,-15.11,-15.76,-15.11,6.00,5.81,4.51,-9.76,-9.76,-0.65
23.92,-15.62,-14.98,-15.61,-14.97,6.00,5.81,4.63,-9.62,-9.61,-0.64
24.16,-15.47,-14.84,-15.47,-14.84,6.00,5.81,4.76,-9.47,-9.47,-0.63
24.40,-15.32,-14.70,-15.32,-14.70,6.00,5.81,4.89,-9.32,-9.32,-0.62
24.65,-15.17,-14.57,-15.17,-14.57,6.00,5.81,5.02,-9.17,-9.17,-0.60
24.89,-15.02,-14.43,-15.02,-14.43,6.00,5.80,5.15,-9.02,-9.02,-0.59
25.14,-14.88,-14.30,-14.87,-14.29,6.00,5.80,5.28,-8.88,-8.87,-0.58
25.39,-14.73,-14.16,-14.73,-14.16,6.00,5.80,5.42,-8.73,-8.73,-0.57
25.65,-14.58,-14.02,-14.58,-14.02,6.00,5.80,5.56,-8.58,-8.58,-0.56
25.91,-14.43,-13.89,-14.43,-13.89,6.00,5.80,5.69,-8.43,-8.43,-0.54
26.16,-14.29,-13.76,-14.29,-13.75,6.00,5.80,5.83,-8.29,-8.29,-0.53
26.43,-14.14,-13.62,-14.14,-13.62,6.00,5.80,5.96,-8.14,-8.14,-0.52
26.69,-13.99,-13.48,-13.99,-13.48,6.00,5.80,6.10,-7.99,-7.99,-0.51
26.96,-13.84,-13.35,-13.84,-13.35,6.00,5.80,6.23,-7.84,-7.84,-0.49
27.23,-13.70,-13.22,-13.70,-13.22,6.00,5.79,6.36,-7.70,-7.70,-0.48
27.50,-13.55,-13.09,-13.55,-13.09,6.00,5.79,6.49,-7.55,-7.55,-0.46
27.77,-13.40,-12.95,-13.40,-12.95,6.00,5.79,6.61,-7.40,-7.40,-0.45
28.05,-13.25,-12.82,-13.25,-12.82,6.00,5.79,6.74,-7.25,-7.25,-0.43
28.33,-13.11,-12.69,-13.11,-12.69,6.00,5.79,6.85,-7.11,-7.11,-0.42
28.62,-12.96,-12.56,-12.96,-12.56,6.00,5.79,6.96,-6.96,-6.96,-0.40
28.90,-12.82,-12.43,-12.82,-12.43,6.00,5.78,7.06,-6.82,-6.82,-0.39
29.19,-12.67,-12.30,-12.67,-12.30,6.00,5.78,7.16,-6.67,-6.67,-0.37
29.48,-12.53,-12.17,-12.53,-12.17,6.00,5.78,7.24,-6.53,-6.53,-0.36
29.78,-12.38,-12.04,-12.38,-12.04,6.00,5.78,7.32,-6.38,-6.38,-0.34
30.08,-12.24,-11.91,-12.24,-11.91,6.00,5.78,7.38,-6.24,-6.24,-0.33
30.38,-12.10,-11.79,-12.10,-11.79,6.00,5.77,7.44,-6.10,-6.10,-0.31
30.68,-11.96,-11.66,-11.96,-11.66,6.00,5.77,7.48,-5.96,-5.96,-0.30
30.99,-11.83,-11.55,-11.82,-11.54,6.00,5.77,7.52,-5.83,-5.82,-0.28
31.30,-11.68,-11.41,-11.68,-11.41,6.00,5.77,7.54,-5.68,-5.68,-0.27
31.61,-11.54,-11.29,-11.54,-11.29,6.00,5.76,7.55,-5.54,-5.54,-0.25
31.93,-11.39,-11.15,-11.39,-11.16,6.00,5.76,7.55,-5.39,-5.39,-0.24
32.24,-11.26,-11.04,-11.25,-11.03,6.00,5.76,7.54,-5.26,-5.25,-0.22
32.57,-11.12,-10.91,-11.12,-10.91,6.00,5.76,7.52,-5.12,-5.12,-0.21
32.89,-10.98,-10.79,-10.98,-10.79,6.00,5.75,7.49,-4.98,-4.98,-0.19
33.22,-10.85,-10.67,-10.85,-10.67,6.00,5.75,7.44,-4.85,-4.85,-0.18
33.55,-10.72,-10.56,-10.71,-10.55,6.00,5.75,7.40,-4.72,-4.71,-0.16
33.89,-10.58,-10.43,-10.58,-10.44,6.00,5.74,7.34,-4.58,-4.58,-0.15
34.23,-10.45,-10.32,-10.45,-10.32,6.00,5.74,7.27,-4.45,-4.45,-0.13
34.57,-10.33,-10.21,-10.33,-10.21,6.00,5.74,7.20,-4.33,-4.33,-0.12
34.92,-10.20,-10.09,-10.20,-10.10,6.00,5.73,7.13,-4.20,-4.20,-0.11
35.27,-10.08,-9.99,-10.08,-9.98,6.00,5.73,7.04,-4.08,-4.08,-0.09
35.62,-9.95,-9.87,-9.95,-9.87,6.00,5.73,6.96,-3.95,-3.95,-0.08
35.97,-9.83,-9.76,-9.83,-9.76,6.00,5.72,6.87,-3.83,-3.83,-0.07
36.33,-9.71,-9.65,-9.71,-9.65,6.00,5.72,6.78,-3.71,-3.71,-0.06
36.70,-9.60,-9.55,-9.60,-9.55,6.00,5.71,6.69,-3.60,-3.60,-0.05
37.06,-9.48,-9.44,-9.48,-9.44,6.00,5.71,6.60,-3.48,-3.48,-0.04
37.43,-9.36,-9.33,-9.36,-9.33,6.00,5.70,6.51,-3.36,-3.36,-0.03
37.81,-9.23,-9.21,-9.23,-9.21,6.00,5.70,6.41,-3.23,-3.23,-0.02
38.19,-9.11,-9.10,-9.11,-9.10,6.00,5.69,6.32,-3.11,-3.11,-0.01
38.57,-8.98,-8.98,-8.98,-8.98,6.00,5.69,6.23,-2.98,-2.98,0.00
38.95,-8.85,-8.86,-8.85,-8.86,6.00,5.68,6.15,-2.85,-2.85,0.01
39.34,-8.73,-8.75,-8.73,-8.75,6.00,5.68,6.06,-2.73,-2.73,0.02
39.74,-8.61,-8.64,-8.61,-8.63,6.00,5.67,5.98,-2.61,-2.61,0.03
40.14,-8.49,-8.52,-8.49,-8.52,6.00,5.67,5.90,-2.49,-2.49,0.03
40.54,-8.36,-8.40,-8.36,-8.40,6.00,5.66,5.82,-2.36,-2.36,0.04
40.94,-8.24,-8.29,-8.24,-8.29,6.00,5.65,5.75,-2.24,-2.24,0.05
41.35,-8.12,-8.18,-8.12,-8.18,6.00,5.64,5.68,-2.12,-2.12,0.06
41.76,-8.00,-8.07,-8.00,-8.07,6.00,5.64,5.61,-2.00,-2.00,0.07
42.18,-7.88,-7.96,-7.88,-7.96,6.00,5.63,5.55,-1.88,-1.88,0.08
42.60,-7.76,-7.85,-7.76,-7.85,6.00,5.62,5.49,-1.76,-1.76,0.09
43.03,-7.64,-7.74,-7.64,-7.74,6.00,5.61,5.43,-1.64,-1.64,0.10
43.46,-7.53,-7.64,-7.53,-7.64,6.00,5.61,5.38,-1.53,-1.53,0.11
43.90,-7.43,-7.55,-7.42,-7.55,6.00,5.60,5.33,-1.43,-1.42,0.12
44.33,-7.32,-7.46,-7.32,-7.46,6.00,5.59,5.29,-1.32,-1.32,0.14
44.78,-7.22,-7.37,-7.22,-7.37,6.00,5.58,5.25,-1.22,-1.22,0.15
45.23,-7.12,-7.28,-7.12,-7.28,6.00,5.57,5.22,-1.12,-1.12,0.16
45.68,-7.02,-7.20,-7.02,-7.20,6.00,5.56,5.18,-1.02,-1.02,0.18
46.13,-6.92,-7.11,-6.91,-7.11,6.00,5.55,5.16,-0.92,-0.91,0.19
46.60,-6.81,-7.02,-6.81,-7.02,6.00,5.54,5.13,-0.81,-0.81,0.21
47.06,-6.71,-6.93,-6.71,-6.93,6.00,5.52,5.11,-0.71,-0.71,0.22
47.53,-6.62,-6.86,-6.62,-6.86,6.00,5.51,5.10,-0.62,-0.62,0.24
48.01,-6.53,-6.78,-6.53,-6.78,6.00,5.50,5.09,-0.53,-0.53,0.25
48.49,-6.44,-6.71,-6.44,-6.71,6.00,5.49,5.08,-0.44,-0.44,0.27
48.97,-6.35,-6.63,-6.35,-6.63,6.00,5.47,5.07,-0.35,-0.35,0.28
49.46,-6.26,-6.56,-6.26,-6.56,6.00,5.46,5.07,-0.26,-0.26,0.30
49.96,-6.18,-6.49,-6.18,-6.49,6.00,5.44,5.07,-0.18,-0.18,0.31
50.46,-6.09,-6.41,-6.09,-6.42,6.01,5.43,5.07,-0.08,-0.09,0.32
50.96,-6.01,-6.35,-6.01,-6.34,6.01,5.41,5.07,0.00,0.00,0.34
51.47,-5.92,-6.27,-5.92,-6.27,6.01,5.40,5.08,0.09,0.09,0.35
51.99,-5.84,-6.20,-5.84,-6.20,6.01,5.38,5.09,0.17,0.17,0.36
52.51,-5.76,-6.13,-5.76,-6.13,6.00,5.36,5.10,0.24,0.24,0.37
53.03,-5.68,-6.06,-5.68,-6.06,5.98,5.34,5.11,0.30,0.30,0.38
53.56,-5.60,-6.00,-5.60,-6.00,5.95,5.32,5.12,0.35,0.35,0.40
54.10,-5.52,-5.93,-5.52,-5.93,5.91,5.30,5.14,0.39,0.39,0.41
54.64,-5.44,-5.86,-5.44,-5.86,5.86,5.28,5.15,0.42,0.42,0.42
55.18,-5.37,-5.79,-5.37,-5.79,5.80,5.26,5.16,0.43,0.43,0.42
55.74,-5.29,-5.72,-5.29,-5.72,5.73,5.24,5.18,0.44,0.44,0.43
56.29,-5.22,-5.66,-5.21,-5.65,5.66,5.21,5.19,0.44,0.44,0.44
56.86,-5.13,-5.57,-5.13,-5.57,5.58,5.19,5.20,0.45,0.45,0.44
57.42,-5.05,-5.50,-5.05,-5.50,5.50,5.16,5.20,0.45,0.45,0.45
58.00,-4.97,-5.42,-4.97,-5.42,5.43,5.13,5.21,0.46,0.46,0.45
58.58,-4.89,-5.35,-4.89,-5.35,5.35,5.10,5.21,0.46,0.46,0.46
59.16,-4.82,-5.28,-4.82,-5.27,5.27,5.07,5.21,0.45,0.46,0.46
59.76,-4.74,-5.20,-4.74,-5.20,5.19,5.04,5.21,0.46,0.46,0.46
60.35,-4.66,-5.12,-4.66,-5.12,5.12,5.01,5.20,0.46,0.46,0.46
60.96,-4.58,-5.04,-4.58,-5.04,5.04,4.98,5.19,0.46,0.46,0.46
61.57,-4.50,-4.96,-4.50,-4.96,4.96,4.94,5.17,0.46,0.46,0.46
62.18,-4.42,-4.88,-4.42,-4.88,4.89,4.90,5.16,0.47,0.46,0.46
62.80,-4.35,-4.81,-4.35,-4.81,4.81,4.87,5.13,0.46,0.46,0.46
63.43,-4.28,-4.74,-4.28,-4.73,4.73,4.82,5.10,0.45,0.45,0.46
64.07,-4.21,-4.66,-4.21,-4.66,4.66,4.78,5.07,0.45,0.45,0.45
64.71,-4.13,-4.58,-4.13,-4.58,4.58,4.74,5.04,0.45,0.45,0.45
65.35,-4.06,-4.51,-4.06,-4.51,4.51,4.69,5.00,0.45,0.45,0.45
66.01,-3.99,-4.44,-3.99,-4.44,4.44,4.64,4.95,0.45,0.45,0.45
66.67,-3.92,-4.37,-3.92,-4.37,4.37,4.59,4.91,0.45,0.45,0.45
67.33,-3.85,-4.30,-3.85,-4.30,4.30,4.54,4.86,0.45,0.45,0.45
68.01,-3.80,-4.24,-3.79,-4.24,4.23,4.49,4.80,0.44,0.44,0.44
68.69,-3.73,-4.17,-3.73,-4.17,4.17,4.43,4.75,0.44,0.44,0.44
69.37,-3.67,-4.11,-3.67,-4.11,4.11,4.37,4.69,0.44,0.44,0.44
70.07,-3.60,-4.04,-3.60,-4.04,4.04,4.31,4.63,0.45,0.44,0.44
70.77,-3.55,-3.99,-3.54,-3.98,3.98,4.25,4.57,0.44,0.44,0.44
71.48,-3.49,-3.93,-3.49,-3.93,3.93,4.19,4.50,0.44,0.44,0.44
72.19,-3.43,-3.87,-3.43,-3.87,3.88,4.12,4.44,0.45,0.45,0.44
72.91,-3.38,-3.83,-3.37,-3.82,3.83,4.06,4.38,0.45,0.45,0.45
73.64,-3.32,-3.77,-3.32,-3.78,3.78,4.00,4.31,0.46,0.46,0.45
74.38,-3.28,-3.74,-3.28,-3.73,3.73,3.93,4.25,0.46,0.46,0.46
75.12,-3.23,-3.69,-3.23,-3.69,3.69,3.87,4.18,0.46,0.46,0.46
75.87,-3.19,-3.66,-3.19,-3.66,3.65,3.81,4.12,0.46,0.46,0.47
76.63,-3.14,-3.62,-3.13,-3.61,3.61,3.75,4.06,0.47,0.47,0.48
77.40,-3.08,-3.57,-3.08,-3.57,3.57,3.70,4.00,0.49,0.49,0.49
78.17,-3.03,-3.53,-3.03,-3.53,3.53,3.65,3.94,0.50,0.50,0.50
78.95,-2.98,-3.49,-2.98,-3.49,3.49,3.61,3.88,0.52,0.51,0.51
79.74,-2.94,-3.46,-2.93,-3.45,3.46,3.56,3.82,0.52,0.53,0.52
80.54,-2.89,-3.42,-2.89,-3.42,3.43,3.53,3.77,0.54,0.54,0.53
81.35,-2.85,-3.39,-2.85,-3.39,3.40,3.50,3.71,0.55,0.54,0.54
82.16,-2.82,-3.37,-2.82,-3.37,3.37,3.47,3.66,0.55,0.55,0.55
82.98,-2.79,-3.35,-2.78,-3.34,3.34,3.45,3.61,0.55,0.56,0.56
83.81,-2.75,-3.32,-2.75,-3.32,3.32,3.43,3.57,0.57,0.57,0.57
84.65,-2.71,-3.29,-2.71,-3.29,3.29,3.41,3.52,0.58,0.58,0.58
85.50,-2.68,-3.27,-2.67,-3.26,3.27,3.39,3.48,0.59,0.59,0.59
86.35,-2.64,-3.24,-2.64,-3.24,3.24,3.38,3.44,0.60,0.60,0.60
87.22,-2.61,-3.22,-2.61,-3.22,3.22,3.37,3.41,0.61,0.61,0.61
88.09,-2.58,-3.20,-2.57,-3.20,3.19,3.35,3.37,0.61,0.62,0.62
88.97,-2.53,-3.17,-2.53,-3.17,3.17,3.34,3.34,0.64,0.63,0.64
89.86,-2.50,-3.15,-2.50,-3.15,3.15,3.33,3.31,0.65,0.65,0.65
90.76,-2.46,-3.12,-2.46,-3.12,3.13,3.31,3.29,0.67,0.67,0.66
91.66,-2.43,-3.11,-2.43,-3.11,3.12,3.30,3.27,0.69,0.68,0.68
92.58,-2.41,-3.10,-2.41,-3.10,3.10,3.28,3.24,0.69,0.70,0.69
93.51,-2.39,-3.09,-2.39,-3.09,3.09,3.26,3.23,0.70,0.70,0.70
94.44,-2.37,-3.09,-2.37,-3.09,3.08,3.24,3.21,0.71,0.71,0.72
95.39,-2.35,-3.08,-2.35,-3.08,3.07,3.22,3.19,0.73,0.73,0.73
96.34,-2.33,-3.08,-2.33,-3.08,3.07,3.20,3.18,0.74,0.74,0.75
97.30,-2.31,-3.07,-2.31,-3.06,3.06,3.18,3.17,0.75,0.76,0.76
98.28,-2.28,-3.05,-2.28,-3.05,3.06,3.15,3.16,0.78,0.78,0.77
99.26,-2.26,-3.04,-2.26,-3.04,3.05,3.13,3.16,0.79,0.79,0.78
100.25,-2.24,-3.04,-2.24,-3.04,3.05,3.10,3.15,0.81,0.81,0.80
101.25,-2.23,-3.04,-2.23,-3.04,3.04,3.07,3.15,0.81,0.81,0.81
102.27,-2.22,-3.04,-2.22,-3.03,3.03,3.04,3.15,0.81,0.81,0.82
103.29,-2.20,-3.02,-2.20,-3.02,3.01,3.01,3.15,0.82,0.81,0.82
104.32,-2.18,-3.01,-2.18,-3.01,3.00,2.98,3.15,0.82,0.82,0.83
105.37,-2.15,-2.99,-2.15,-2.98,2.97,2.95,3.15,0.83,0.83,0.84
106.42,-2.11,-2.95,-2.11,-2.95,2.95,2.91,3.15,0.84,0.83,0.84
107.48,-2.08,-2.92,-2.08,-2.92,2.92,2.88,3.16,0.84,0.84,0.84
108.56,-2.04,-2.88,-2.04,-2.88,2.88,2.85,3.16,0.85,0.84,0.84
109.64,-2.01,-2.85,-2.01,-2.85,2.85,2.81,3.16,0.85,0.85,0.84
110.74,-1.98,-2.82,-1.98,-2.82,2.83,2.78,3.16,0.85,0.85,0.84
111.85,-1.96,-2.80,-1.96,-2.80,2.81,2.75,3.17,0.85,0.85,0.84
112.97,-1.95,-2.78,-1.95,-2.78,2.79,2.72,3.17,0.84,0.84,0.83
114.10,-1.94,-2.77,-1.94,-2.77,2.78,2.68,3.17,0.84,0.83,0.83
115.24,-1.95,-2.77,-1.95,-2.77,2.77,2.65,3.17,0.82,0.82,0.82
116.39,-1.96,-2.78,-1.95,-2.77,2.77,2.62,3.16,0.81,0.81,0.82
117.55,-1.96,-2.77,-1.96,-2.77,2.77,2.59,3.16,0.81,0.81,0.81
118.73,-1.97,-2.78,-1.97,-2.77,2.77,2.56,3.15,0.80,0.80,0.81
119.92,-1.97,-2.77,-1.97,-2.77,2.77,2.53,3.14,0.80,0.80,0.80
121.12,-1.97,-2.77,-1.97,-2.77,2.77,2.50,3.13,0.80,0.80,0.80
122.33,-1.97,-2.77,-1.97,-2.77,2.77,2.47,3.12,0.80,0.80,0.80
123.55,-1.97,-2.77,-1.97,-2.77,2.77,2.44,3.11,0.80,0.80,0.80
124.79,-1.97,-2.77,-1.97,-2.77,2.77,2.41,3.09,0.80,0.80,0.80
126.03,-1.97,-2.77,-1.97,-2.77,2.77,2.39,3.07,0.80,0.80,0.80
127.29,-1.97,-2.77,-1.97,-2.77,2.77,2.37,3.04,0.80,0.80,0.80
128.57,-1.97,-2.77,-1.97,-2.77,2.78,2.34,3.02,0.81,0.81,0.80
129.85,-1.98,-2.78,-1.98,-2.77,2.78,2.32,2.99,0.80,0.81,0.80
131.15,-1.98,-2.78,-1.98,-2.78,2.78,2.30,2.96,0.81,0.80,0.80
132.46,-1.99,-2.79,-1.99,-2.79,2.79,2.28,2.93,0.80,0.80,0.80
133.79,-1.99,-2.80,-1.98,-2.79,2.78,2.26,2.89,0.79,0.80,0.81
135.12,-1.97,-2.78,-1.97,-2.78,2.78,2.25,2.86,0.81,0.80,0.81
136.48,-1.96,-2.77,-1.96,-2.77,2.76,2.23,2.82,0.81,0.81,0.81
137.84,-1.94,-2.75,-1.94,-2.75,2.75,2.22,2.78,0.81,0.81,0.81
139.22,-1.92,-2.73,-1.92,-2.73,2.73,2.21,2.74,0.81,0.81,0.81
140.61,-1.89,-2.70,-1.89,-2.70,2.70,2.20,2.69,0.81,0.81,0.81
142.02,-1.85,-2.67,-1.85,-2.67,2.67,2.19,2.65,0.82,0.82,0.82
143.44,-1.82,-2.64,-1.82,-2.64,2.64,2.18,2.61,0.82,0.82,0.82
144.87,-1.78,-2.60,-1.78,-2.60,2.60,2.17,2.56,0.82,0.82,0.82
146.32,-1.76,-2.57,-1.75,-2.57,2.57,2.17,2.51,0.81,0.82,0.81
147.78,-1.72,-2.53,-1.72,-2.53,2.53,2.17,2.47,0.82,0.81,0.81
149.26,-1.70,-2.51,-1.70,-2.51,2.50,2.17,2.42,0.81,0.81,0.81
150.75,-1.67,-2.48,-1.67,-2.48,2.48,2.17,2.38,0.81,0.81,0.81
152.26,-1.65,-2.46,-1.65,-2.45,2.46,2.17,2.33,0.81,0.81,0.81
153.78,-1.63,-2.43,-1.63,-2.43,2.44,2.17,2.28,0.81,0.81,0.80
155.32,-1.62,-2.42,-1.62,-2.42,2.43,2.18,2.24,0.81,0.81,0.80
156.88,-1.62,-2.42,-1.62,-2.42,2.43,2.18,2.20,0.81,0.81,0.80
158.44,-1.63,-2.43,-1.63,-2.43,2.42,2.19,2.15,0.79,0.79,0.80
160.03,-1.64,-2.43,-1.63,-2.43,2.42,2.20,2.11,0.78,0.79,0.79
161.63,-1.64,-2.43,-1.64,-2.43,2.42,2.20,2.07,0.78,0.78,0.79
163.24,-1.64,-2.42,-1.64,-2.42,2.42,2.21,2.03,0.78,0.78,0.78
164.88,-1.64,-2.42,-1.64,-2.42,2.41,2.22,1.99,0.78,0.78,0.78
166.53,-1.64,-2.41,-1.64,-2.41,2.41,2.22,1.95,0.77,0.77,0.77
168.19,-1.64,-2.40,-1.64,-2.40,2.40,2.23,1.91,0.76,0.76,0.76
169.87,-1.64,-2.39,-1.64,-2.39,2.39,2.23,1.88,0.75,0.75,0.75
171.57,-1.64,-2.38,-1.64,-2.38,2.38,2.23,1.84,0.74,0.75,0.74
173.29,-1.64,-2.37,-1.64,-2.37,2.37,2.24,1.81,0.74,0.74,0.73
175.02,-1.64,-2.36,-1.64,-2.36,2.37,2.24,1.78,0.73,0.73,0.72
176.77,-1.65,-2.35,-1.65,-2.35,2.36,2.23,1.75,0.71,0.71,0.70
178.54,-1.66,-2.35,-1.66,-2.35,2.34,2.23,1.72,0.69,0.69,0.69
180.32,-1.67,-2.34,-1.66,-2.34,2.33,2.22,1.69,0.66,0.66,0.67
182.13,-1.66,-2.32,-1.66,-2.32,2.31,2.21,1.66,0.65,0.65,0.66
183.95,-1.65,-2.29,-1.65,-2.29,2.28,2.20,1.64,0.63,0.64,0.64
185.79,-1.63,-2.25,-1.63,-2.25,2.25,2.18,1.61,0.62,0.62,0.62
187.65,-1.61,-2.22,-1.61,-2.22,2.22,2.16,1.59,0.61,0.61,0.61
189.52,-1.59,-2.18,-1.59,-2.18,2.18,2.13,1.57,0.59,0.59,0.59
191.42,-1.56,-2.13,-1.56,-2.13,2.13,2.11,1.55,0.57,0.57,0.57
193.33,-1.53,-2.08,-1.53,-2.08,2.08,2.08,1.53,0.55,0.55,0.55
195.27,-1.49,-2.03,-1.49,-2.03,2.03,2.04,1.51,0.54,0.54,0.54
197.22,-1.46,-1.98,-1.46,-1.98,1.98,2.01,1.49,0.52,0.52,0.52
199.19,-1.43,-1.93,-1.43,-1.93,1.92,1.97,1.48,0.49,0.49,0.50
201.18,-1.40,-1.87,-1.40,-1.87,1.87,1.93,1.46,0.47,0.47,0.47
203.19,-1.37,-1.82,-1.37,-1.82,1.82,1.89,1.44,0.45,0.45,0.45
205.23,-1.34,-1.77,-1.34,-1.77,1.78,1.84,1.43,0.44,0.44,0.43
207.28,-1.32,-1.73,-1.32,-1.73,1.74,1.80,1.42,0.42,0.42,0.41
209.35,-1.30,-1.69,-1.30,-1.69,1.70,1.75,1.41,0.41,0.40,0.39
211.44,-1.30,-1.66,-1.30,-1.66,1.68,1.70,1.39,0.38,0.38,0.36
213.56,-1.31,-1.65,-1.31,-1.65,1.65,1.65,1.38,0.35,0.34,0.34
215.69,-1.33,-1.64,-1.33,-1.63,1.63,1.60,1.37,0.30,0.31,0.31
217.85,-1.34,-1.62,-1.34,-1.62,1.61,1.56,1.36,0.27,0.27,0.28
220.03,-1.34,-1.60,-1.34,-1.60,1.58,1.51,1.35,0.24,0.24,0.26
222.23,-1.33,-1.57,-1.33,-1.57,1.55,1.46,1.34,0.22,0.22,0.24
224.45,-1.32,-1.53,-1.31,-1.52,1.52,1.41,1.33,0.20,0.21,0.21
226.70,-1.28,-1.47,-1.29,-1.48,1.48,1.36,1.31,0.20,0.19,0.19
228.96,-1.26,-1.43,-1.26,-1.43,1.43,1.32,1.30,0.17,0.17,0.17
231.25,-1.24,-1.39,-1.23,-1.38,1.39,1.27,1.29,0.15,0.16,0.15
233.57,-1.20,-1.34,-1.20,-1.34,1.34,1.23,1.28,0.14,0.14,0.14
235.90,-1.16,-1.28,-1.16,-1.29,1.29,1.18,1.27,0.13,0.12,0.12
238.26,-1.13,-1.24,-1.13,-1.24,1.24,1.14,1.26,0.11,0.11,0.11
240.64,-1.10,-1.20,-1.10,-1.20,1.20,1.10,1.24,0.10,0.10,0.10
243.05,-1.07,-1.16,-1.07,-1.16,1.15,1.06,1.23,0.09,0.09,0.09
245.48,-1.04,-1.12,-1.04,-1.12,1.12,1.02,1.21,0.08,0.08,0.08
247.93,-1.01,-1.08,-1.01,-1.08,1.08,0.98,1.20,0.07,0.07,0.07
250.41,-0.99,-1.05,-0.99,-1.05,1.06,0.94,1.18,0.07,0.07,0.06
252.92,-0.98,-1.03,-0.98,-1.02,1.04,0.91,1.16,0.06,0.06,0.05
255.45,-0.97,-1.01,-0.97,-1.01,1.02,0.87,1.15,0.05,0.05,0.04
258.00,-0.97,-1.00,-0.97,-1.01,1.01,0.84,1.13,0.04,0.04,0.03
260.58,-0.98,-1.01,-0.98,-1.00,1.00,0.81,1.11,0.02,0.02,0.03
263.19,-0.99,-1.01,-0.98,-1.00,1.00,0.78,1.09,0.01,0.01,0.02
265.82,-0.99,-1.00,-0.99,-1.00,0.99,0.75,1.07,0.00,0.00,0.01
268.48,-0.99,-0.99,-0.99,-0.99,0.98,0.72,1.04,-0.00,-0.00,0.00
271.16,-0.99,-0.98,-0.99,-0.98,0.98,0.69,1.02,-0.01,-0.01,-0.01
273.87,-0.99,-0.97,-0.99,-0.97,0.97,0.67,1.00,-0.02,-0.02,-0.02
276.61,-0.99,-0.96,-0.99,-0.96,0.96,0.64,0.98,-0.03,-0.03,-0.03
279.38,-0.99,-0.95,-0.99,-0.95,0.95,0.61,0.95,-0.04,-0.04,-0.04
282.17,-0.99,-0.94,-0.99,-0.94,0.94,0.59,0.93,-0.05,-0.05,-0.05
284.99,-0.99,-0.93,-0.99,-0.93,0.93,0.57,0.90,-0.05,-0.05,-0.06
287.84,-0.99,-0.92,-0.99,-0.92,0.93,0.55,0.88,-0.06,-0.06,-0.07
290.72,-1.00,-0.92,-1.00,-0.92,0.92,0.52,0.85,-0.07,-0.07,-0.08
293.63,-1.01,-0.92,-1.01,-0.92,0.92,0.50,0.83,-0.09,-0.09,-0.09
296.57,-1.01,-0.91,-1.01,-0.91,0.91,0.48,0.80,-0.10,-0.10,-0.10
299.53,-1.02,-0.91,-1.01,-0.90,0.90,0.46,0.77,-0.12,-0.12,-0.11
302.53,-1.01,-0.89,-1.01,-0.89,0.88,0.44,0.75,-0.13,-0.13,-0.12
305.55,-1.00,-0.86,-1.00,-0.86,0.86,0.43,0.72,-0.14,-0.14,-0.14
308.61,-0.98,-0.83,-0.98,-0.83,0.83,0.41,0.70,-0.15,-0.15,-0.15
311.69,-0.95,-0.79,-0.95,-0.79,0.79,0.39,0.67,-0.16,-0.16,-0.16
314.81,-0.93,-0.75,-0.93,-0.75,0.75,0.38,0.65,-0.18,-0.18,-0.18
317.96,-0.90,-0.71,-0.90,-0.71,0.70,0.36,0.62,-0.19,-0.19,-0.19
321.14,-0.87,-0.66,-0.86,-0.66,0.66,0.35,0.60,-0.21,-0.21,-0.21
324.35,-0.83,-0.61,-0.83,-0.61,0.61,0.33,0.57,-0.22,-0.22,-0.22
327.59,-0.79,-0.55,-0.80,-0.56,0.56,0.32,0.55,-0.23,-0.24,-0.24
330.87,-0.77,-0.52,-0.76,-0.51,0.51,0.30,0.52,-0.26,-0.25,-0.25
334.18,-0.74,-0.47,-0.73,-0.47,0.47,0.29,0.50,-0.27,-0.27,-0.27
337.52,-0.70,-0.42,-0.71,-0.43,0.42,0.28,0.47,-0.27,-0.28,-0.28
340.90,-0.69,-0.39,-0.68,-0.38,0.39,0.26,0.45,-0.30,-0.29,-0.30
344.30,-0.66,-0.35,-0.66,-0.35,0.36,0.25,0.42,-0.30,-0.31,-0.31
347.75,-0.65,-0.32,-0.65,-0.32,0.33,0.24,0.40,-0.32,-0.32,-0.33
351.23,-0.65,-0.30,-0.65,-0.30,0.31,0.23,0.38,-0.34,-0.34,-0.35
354.74,-0.65,-0.29,-0.65,-0.29,0.29,0.22,0.35,-0.36,-0.36,-0.36
358.28,-0.66,-0.28,-0.66,-0.28,0.28,0.21,0.33,-0.38,-0.38,-0.38
361.87,-0.67,-0.27,-0.66,-0.27,0.26,0.19,0.31,-0.41,-0.40,-0.40
365.49,-0.67,-0.26,-0.67,-0.26,0.25,0.18,0.29,-0.42,-0.42,-0.41
369.14,-0.67,-0.24,-0.67,-0.24,0.24,0.17,0.27,-0.43,-0.44,-0.43
372.83,-0.67,-0.23,-0.67,-0.22,0.22,0.16,0.24,-0.45,-0.45,-0.44
376.56,-0.67,-0.21,-0.67,-0.21,0.20,0.15,0.22,-0.47,-0.47,-0.46
380.33,-0.66,-0.18,-0.66,-0.18,0.18,0.14,0.20,-0.48,-0.48,-0.48
384.13,-0.66,-0.17,-0.65,-0.16,0.16,0.13,0.18,-0.49,-0.49,-0.49
387.97,-0.65,-0.14,-0.65,-0.14,0.15,0.13,0.16,-0.50,-0.50,-0.51
391.85,-0.65,-0.13,-0.65,-0.13,0.14,0.12,0.14,-0.51,-0.51,-0.52
395.77,-0.66,-0.13,-0.66,-0.13,0.13,0.11,0.12,-0.53,-0.52,-0.53
399.73,-0.67,-0.13,-0.67,-0.13,0.13,0.10,0.10,-0.54,-0.54,-0.54
403.72,-0.69,-0.14,-0.69,-0.14,0.14,0.09,0.08,-0.55,-0.55,-0.55
407.76,-0.71,-0.15,-0.71,-0.15,0.15,0.08,0.06,-0.56,-0.56,-0.56
411.84,-0.74,-0.16,-0.74,-0.16,0.17,0.07,0.04,-0.57,-0.57,-0.58
415.96,-0.77,-0.18,-0.77,-0.18,0.18,0.07,0.02,-0.58,-0.59,-0.59
420.12,-0.81,-0.21,-0.81,-0.21,0.20,0.06,0.00,-0.60,-0.60,-0.60
424.32,-0.84,-0.23,-0.84,-0.23,0.23,0.05,-0.01,-0.61,-0.61,-0.61
428.56,-0.87,-0.25,-0.87,-0.25,0.25,0.04,-0.03,-0.62,-0.62,-0.62
432.85,-0.90,-0.26,-0.90,-0.26,0.26,0.03,-0.05,-0.63,-0.63,-0.64
437.18,-0.93,-0.28,-0.93,-0.28,0.28,0.03,-0.07,-0.65,-0.65,-0.65
441.55,-0.96,-0.30,-0.96,-0.29,0.29,0.02,-0.08,-0.67,-0.67,-0.66
445.96,-0.98,-0.30,-0.98,-0.30,0.29,0.01,-0.10,-0.68,-0.69,-0.68
450.42,-1.00,-0.30,-1.00,-0.30,0.29,0.00,-0.11,-0.71,-0.70,-0.70
454.93,-1.01,-0.30,-1.01,-0.29,0.29,-0.01,-0.13,-0.72,-0.72,-0.71
459.48,-1.01,-0.28,-1.01,-0.28,0.27,-0.01,-0.14,-0.73,-0.74,-0.73
464.07,-1.01,-0.26,-1.01,-0.26,0.26,-0.02,-0.16,-0.75,-0.75,-0.75
