frequency,raw,error,smoothed,error_smoothed,equalization,parametric_eq,fixed_band_eq,equalized_raw,equalized_smoothed,target
20.00,-12.58,-12.41,-12.58,-12.41,6.00,5.89,2.78,-6.58,-6.58,-0.17
20.20,-12.47,-12.39,-12.46,-12.38,6.00,5.89,2.86,-6.47,-6.46,-0.08
20.40,-12.35,-12.37,-12.35,-12.36,6.00,5.89,2.94,-6.35,-6.35,0.01
20.61,-12.24,-12.32,-12.24,-12.33,6.00,5.89,3.02,-6.24,-6.24,0.08
20.81,-12.12,-12.29,-12.13,-12.30,6.00,5.89,3.11,-6.12,-6.13,0.17
21.02,-12.02,-12.26,-12.01,-12.26,6.00,5.89,3.20,-6.02,-6.01,0.25
21.23,-11.91,-12.21,-11.90,-12.21,6.00,5.89,3.29,-5.91,-5.90,0.31
21.44,-11.78,-12.15,-11.79,-12.16,6.00,5.88,3.38,-5.78,-5.79,0.37
21.66,-11.68,-12.11,-11.67,-12.11,6.00,5.88,3.48,-5.68,-5.67,0.44
21.87,-11.56,-12.05,-11.56,-12.05,6.00,5.88,3.58,-5.56,-5.56,0.49
22.09,-11.44,-11.98,-11.45,-11.99,6.00,5.88,3.68,-5.44,-5.45,0.54
22.31,-11.33,-11.92,-11.33,-11.92,6.00,5.88,3.79,-5.33,-5.33,0.59
22.54,-11.22,-11.85,-11.22,-11.85,6.00,5.88,3.89,-5.22,-5.22,0.64
22.76,-11.10,-11.78,-11.11,-11.78,6.00,5.87,4.00,-5.10,-5.11,0.68
22.99,-11.00,-11.71,-10.99,-11.71,6.00,5.87,4.12,-5.00,-4.99,0.72
23.22,-10.88,-11.63,-10.87,-11.63,6.00,5.87,4.23,-4.88,-4.87,0.76
23.45,-10.75,-11.56,-10.76,-11.56,6.00,5.87,4.35,-4.75,-4.76,0.81
23.69,-10.64,-11.48,-10.64,-11.48,6.00,5.87,4.47,-4.64,-4.64,0.84
23.92,-10.52,-11.41,-10.52,-11.41,6.00,5.87,4.59,-4.52,-4.52,0.88
24.16,-10.40,-11.34,-10.41,-11.34,6.00,5.86,4.72,-4.40,-4.41,0.93
24.40,-10.29,-11.27,-10.29,-11.26,6.00,5.86,4.85,-4.29,-4.29,0.97
24.65,-10.18,-11.18,-10.18,-11.18,6.00,5.86,4.98,-4.18,-4.18,1.00
24.89,-10.06,-11.11,-10.06,-11.10,6.00,5.86,5.11,-4.06,-4.06,1.04
25.14,-9.94,-11.03,-9.95,-11.03,6.00,5.86,5.24,-3.94,-3.95,1.08
25.39,-9.83,-10.95,-9.83,-10.95,6.00,5.86,5.38,-3.83,-3.83,1.12
25.65,-9.72,-10.88,-9.72,-10.87,6.00,5.85,5.51,-3.72,-3.72,1.16
25.91,-9.60,-10.79,-9.60,-10.79,6.00,5.85,5.65,-3.60,-3.60,1.19
26.16,-9.48,-10.71,-9.48,-10.71,6.00,5.85,5.78,-3.48,-3.48,1.23
26.43,-9.37,-10.62,-9.37,-10.63,6.00,5.85,5.92,-3.37,-3.37,1.26
26.69,-9.25,-10.54,-9.25,-10.55,6.00,5.85,6.05,-3.25,-3.25,1.30
26.96,-9.14,-10.47,-9.13,-10.47,6.00,5.85,6.18,-3.14,-3.13,1.34
27.23,-9.02,-10.38,-9.02,-10.39,6.00,5.84,6.31,-3.02,-3.02,1.37
27.50,-8.91,-10.31,-8.90,-10.31,6.00,5.84,6.44,-2.91,-2.90,1.40
27.77,-8.78,-10.22,-8.79,-10.22,6.00,5.84,6.56,-2.78,-2.79,1.43
28.05,-8.67,-10.15,-8.67,-10.14,6.00,5.84,6.68,-2.67,-2.67,1.47
28.33,-8.56,-10.06,-8.56,-10.06,6.00,5.84,6.79,-2.56,-2.56,1.49
28.62,-8.45,-9.98,-8.45,-9.98,6.00,5.84,6.90,-2.45,-2.45,1.53
28.90,-8.33,-9.90,-8.34,-9.90,6.00,5.84,7.00,-2.33,-2.34,1.57
29.19,-8.23,-9.82,-8.22,-9.83,6.00,5.84,7.09,-2.23,-2.22,1.60
29.48,-8.11,-9.76,-8.11,-9.75,6.00,5.84,7.17,-2.11,-2.11,1.65
29.78,-8.00,-9.66,-8.00,-9.67,6.00,5.83,7.25,-2.00,-2.00,1.67
30.08,-7.89,-9.59,-7.89,-9.59,6.00,5.83,7.31,-1.89,-1.89,1.70
30.38,-7.78,-9.51,-7.77,-9.51,6.00,5.83,7.36,-1.78,-1.77,1.73
30.68,-7.67,-9.44,-7.66,-9.43,6.00,5.83,7.40,-1.67,-1.66,1.77
30.99,-7.55,-9.34,-7.55,-9.35,6.00,5.83,7.43,-1.55,-1.55,1.79
31.30,-7.45,-9.28,-7.45,-9.27,6.00,5.84,7.45,-1.45,-1.45,1.83
31.61,-7.35,-9.20,-7.34,-9.20,6.00,5.84,7.46,-1.35,-1.34,1.86
31.93,-7.24,-9.12,-7.24,-9.12,6.00,5.84,7.45,-1.24,-1.24,1.89
32.24,-7.13,-9.04,-7.14,-9.05,6.00,5.84,7.43,-1.13,-1.14,1.91
32.57,-7.04,-8.97,-7.03,-8.97,6.00,5.84,7.40,-1.04,-1.03,1.93
32.89,-6.93,-8.91,-6.93,-8.90,6.00,5.85,7.36,-0.93,-0.93,1.97
33.22,-6.83,-8.83,-6.83,-8.82,6.00,5.85,7.31,-0.83,-0.83,1.99
33.55,-6.73,-8.74,-6.74,-8.75,6.00,5.85,7.26,-0.73,-0.74,2.01
33.89,-6.64,-8.66,-6.63,-8.67,6.00,5.86,7.19,-0.64,-0.63,2.03
34.23,-6.54,-8.59,-6.53,-8.58,6.00,5.86,7.12,-0.54,-0.53,2.05
34.57,-6.43,-8.50,-6.43,-8.50,6.00,5.87,7.03,-0.43,-0.43,2.07
34.92,-6.33,-8.41,-6.33,-8.41,6.00,5.88,6.95,-0.33,-0.33,2.08
35.27,-6.23,-8.33,-6.23,-8.33,6.00,5.89,6.86,-0.23,-0.23,2.11
35.62,-6.13,-8.24,-6.13,-8.24,6.00,5.90,6.76,-0.13,-0.13,2.12
35.97,-6.03,-8.16,-6.03,-8.16,6.00,5.91,6.66,-0.03,-0.03,2.12
36.33,-5.93,-8.08,-5.93,-8.07,6.00,5.92,6.56,0.07,0.07,2.14
36.70,-5.84,-7.99,-5.84,-7.99,6.00,5.93,6.46,0.16,0.16,2.15
37.06,-5.73,-7.89,-5.74,-7.90,6.00,5.95,6.36,0.27,0.26,2.16
37.43,-5.64,-7.82,-5.64,-7.81,6.00,5.96,6.25,0.36,0.36,2.17
37.81,-5.55,-7.73,-5.55,-7.73,6.00,5.98,6.15,0.45,0.45,2.18
38.19,-5.45,-7.63,-5.45,-7.64,6.00,6.00,6.05,0.55,0.55,2.19
38.57,-5.36,-7.55,-5.35,-7.54,6.00,6.02,5.95,0.64,0.65,2.20
38.95,-5.25,-7.45,-5.26,-7.45,6.00,6.04,5.85,0.75,0.74,2.19
39.34,-5.16,-7.35,-5.17,-7.36,6.00,6.06,5.75,0.84,0.83,2.19
39.74,-5.09,-7.28,-5.08,-7.27,6.00,6.08,5.65,0.91,0.92,2.20
40.14,-5.00,-7.19,-4.99,-7.19,6.00,6.10,5.56,1.00,1.01,2.19
40.54,-4.91,-7.09,-4.91,-7.10,6.00,6.11,5.47,1.09,1.09,2.19
40.94,-4.81,-7.01,-4.82,-7.01,6.00,6.13,5.38,1.19,1.18,2.19
41.35,-4.74,-6.93,-4.73,-6.92,6.00,6.14,5.30,1.26,1.27,2.19
41.76,-4.64,-6.84,-4.64,-6.84,6.00,6.15,5.22,1.36,1.36,2.20
42.18,-4.55,-6.76,-4.56,-6.76,6.00,6.15,5.14,1.45,1.44,2.20
42.60,-4.47,-6.67,-4.47,-6.67,6.00,6.15,5.07,1.53,1.53,2.20
43.03,-4.39,-6.59,-4.39,-6.59,6.00,6.14,5.00,1.62,1.61,2.20
43.46,-4.31,-6.50,-4.30,-6.50,6.01,6.13,4.93,1.70,1.70,2.20
43.90,-4.22,-6.40,-4.22,-6.41,6.01,6.10,4.87,1.79,1.79,2.18
44.33,-4.13,-6.31,-4.14,-6.32,6.01,6.07,4.81,1.88,1.87,2.18
44.78,-4.07,-6.24,-4.06,-6.23,6.01,6.03,4.75,1.94,1.95,2.17
45.23,-3.99,-6.15,-3.98,-6.15,6.00,5.99,4.70,2.01,2.02,2.17
45.68,-3.91,-6.07,-3.91,-6.07,5.98,5.94,4.65,2.08,2.07,2.16
46.13,-3.83,-5.99,-3.84,-6.00,5.95,5.88,4.61,2.12,2.12,2.16
46.60,-3.77,-5.93,-3.76,-5.92,5.91,5.83,4.57,2.14,2.15,2.16
47.06,-3.70,-5.86,-3.70,-5.86,5.86,5.76,4.53,2.16,2.16,2.17
47.53,-3.63,-5.78,-3.63,-5.79,5.79,5.70,4.50,2.17,2.17,2.16
48.01,-3.56,-5.73,-3.55,-5.72,5.72,5.64,4.47,2.17,2.17,2.17
48.49,-3.49,-5.64,-3.48,-5.64,5.65,5.57,4.44,2.16,2.16,2.16
48.97,-3.40,-5.55,-3.41,-5.56,5.57,5.50,4.41,2.16,2.16,2.15
49.46,-3.34,-5.48,-3.34,-5.48,5.49,5.44,4.39,2.15,2.15,2.14
49.96,-3.27,-5.40,-3.27,-5.41,5.41,5.37,4.37,2.15,2.15,2.13
50.46,-3.20,-5.35,-3.20,-5.34,5.34,5.31,4.35,2.15,2.15,2.15
50.96,-3.13,-5.28,-3.12,-5.27,5.27,5.24,4.34,2.15,2.15,2.16
51.47,-3.05,-5.19,-3.05,-5.20,5.20,5.17,4.33,2.16,2.16,2.15
51.99,-2.98,-5.14,-2.97,-5.13,5.14,5.11,4.31,2.16,2.16,2.16
52.51,-2.90,-5.07,-2.90,-5.07,5.07,5.04,4.30,2.17,2.17,2.17
53.03,-2.83,-5.01,-2.82,-5.00,5.00,4.97,4.29,2.17,2.17,2.18
53.56,-2.75,-4.93,-2.75,-4.93,4.93,4.90,4.29,2.18,2.18,2.18
54.10,-2.68,-4.86,-2.67,-4.85,4.85,4.83,4.28,2.18,2.18,2.18
54.64,-2.59,-4.78,-2.59,-4.78,4.78,4.76,4.27,2.19,2.19,2.19
55.18,-2.50,-4.70,-2.51,-4.70,4.70,4.69,4.26,2.19,2.19,2.19
55.74,-2.44,-4.63,-2.43,-4.62,4.62,4.62,4.25,2.18,2.19,2.19
56.29,-2.34,-4.53,-2.34,-4.53,4.53,4.55,4.24,2.19,2.19,2.19
56.86,-2.26,-4.44,-2.26,-4.44,4.45,4.47,4.23,2.19,2.19,2.19
57.42,-2.17,-4.35,-2.18,-4.36,4.36,4.39,4.22,2.19,2.19,2.17
58.00,-2.11,-4.28,-2.10,-4.27,4.28,4.31,4.20,2.17,2.18,2.17
58.58,-2.03,-4.19,-2.02,-4.19,4.19,4.23,4.18,2.16,2.17,2.17
59.16,-1.94,-4.11,-1.94,-4.11,4.10,4.14,4.16,2.15,2.16,2.16
59.76,-1.86,-4.02,-1.86,-4.02,4.01,4.06,4.14,2.15,2.15,2.16
60.35,-1.77,-3.92,-1.77,-3.92,3.92,3.97,4.11,2.14,2.14,2.15
60.96,-1.70,-3.83,-1.69,-3.82,3.82,3.88,4.08,2.13,2.13,2.13
61.57,-1.62,-3.72,-1.62,-3.73,3.73,3.79,4.05,2.11,2.11,2.11
62.18,-1.55,-3.63,-1.55,-3.63,3.64,3.70,4.01,2.09,2.09,2.08
62.80,-1.47,-3.55,-1.47,-3.54,3.55,3.61,3.97,2.07,2.07,2.08
63.43,-1.41,-3.45,-1.40,-3.46,3.46,3.52,3.93,2.05,2.06,2.05
64.07,-1.33,-3.37,-1.33,-3.37,3.37,3.43,3.88,2.05,2.04,2.04
64.71,-1.27,-3.30,-1.26,-3.29,3.29,3.35,3.83,2.03,2.03,2.03
65.35,-1.19,-3.22,-1.19,-3.22,3.22,3.27,3.77,2.02,2.02,2.03
66.01,-1.13,-3.14,-1.13,-3.15,3.14,3.20,3.71,2.02,2.02,2.02
66.67,-1.07,-3.07,-1.06,-3.08,3.08,3.13,3.65,2.01,2.01,2.01
67.33,-1.00,-3.01,-1.00,-3.01,3.02,3.07,3.58,2.01,2.01,2.01
68.01,-0.95,-2.95,-0.95,-2.96,2.96,3.01,3.51,2.02,2.01,2.01
68.69,-0.90,-2.90,-0.90,-2.90,2.91,2.97,3.44,2.01,2.01,2.01
69.37,-0.86,-2.86,-0.85,-2.86,2.86,2.93,3.37,2.01,2.01,2.01
70.07,-0.82,-2.82,-0.81,-2.82,2.82,2.90,3.29,2.01,2.01,2.01
70.77,-0.78,-2.79,-0.78,-2.79,2.78,2.87,3.21,2.01,2.00,2.01
71.48,-0.75,-2.76,-0.74,-2.75,2.74,2.85,3.13,2.00,2.00,2.01
72.19,-0.71,-2.71,-0.70,-2.71,2.71,2.83,3.05,2.00,2.00,2.01
72.91,-0.67,-2.67,-0.67,-2.67,2.67,2.82,2.97,2.01,2.00,2.00
73.64,-0.65,-2.63,-0.64,-2.63,2.64,2.80,2.88,1.99,2.00,1.99
74.38,-0.62,-2.61,-0.61,-2.60,2.60,2.79,2.80,1.98,1.99,1.99
75.12,-0.58,-2.56,-0.58,-2.57,2.56,2.77,2.71,1.99,1.98,1.99
75.87,-0.55,-2.54,-0.54,-2.53,2.53,2.76,2.63,1.98,1.98,1.99
76.63,-0.51,-2.49,-0.51,-2.49,2.49,2.74,2.54,1.99,1.98,1.98
77.40,-0.48,-2.46,-0.48,-2.46,2.46,2.72,2.46,1.99,1.98,1.99
78.17,-0.45,-2.42,-0.44,-2.43,2.43,2.70,2.38,1.99,1.99,1.98
78.95,-0.42,-2.41,-0.41,-2.40,2.41,2.68,2.29,1.99,1.99,1.99
79.74,-0.39,-2.39,-0.38,-2.38,2.39,2.65,2.21,2.00,2.01,2.00
80.54,-0.36,-2.37,-0.36,-2.37,2.37,2.62,2.13,2.02,2.01,2.01
81.35,-0.34,-2.36,-0.34,-2.36,2.36,2.59,2.05,2.03,2.02,2.02
82.16,-0.33,-2.36,-0.32,-2.36,2.35,2.55,1.97,2.03,2.03,2.03
82.98,-0.31,-2.36,-0.30,-2.35,2.35,2.51,1.89,2.04,2.04,2.06
83.81,-0.29,-2.35,-0.28,-2.35,2.35,2.47,1.81,2.06,2.06,2.07
84.65,-0.26,-2.33,-0.26,-2.35,2.35,2.42,1.73,2.09,2.09,2.08
85.50,-0.24,-2.35,-0.24,-2.34,2.35,2.38,1.65,2.12,2.12,2.11
86.35,-0.23,-2.36,-0.22,-2.35,2.36,2.32,1.58,2.14,2.14,2.13
87.22,-0.22,-2.36,-0.22,-2.36,2.37,2.27,1.50,2.15,2.15,2.15
88.09,-0.22,-2.37,-0.22,-2.38,2.38,2.21,1.43,2.17,2.16,2.15
88.97,-0.23,-2.40,-0.22,-2.39,2.39,2.16,1.36,2.17,2.17,2.18
89.86,-0.23,-2.41,-0.23,-2.41,2.40,2.09,1.29,2.18,2.18,2.18
90.76,-0.23,-2.40,-0.23,-2.41,2.41,2.03,1.22,2.18,2.18,2.18
91.66,-0.23,-2.42,-0.22,-2.41,2.41,1.97,1.15,2.18,2.18,2.19
92.58,-0.22,-2.39,-0.21,-2.40,2.39,1.90,1.08,2.18,2.18,2.18
93.51,-0.20,-2.37,-0.20,-2.38,2.37,1.83,1.01,2.18,2.17,2.18
94.44,-0.18,-2.35,-0.17,-2.34,2.34,1.76,0.94,2.16,2.16,2.17
95.39,-0.15,-2.30,-0.14,-2.30,2.29,1.69,0.88,2.14,2.15,2.16
96.34,-0.11,-2.23,-0.10,-2.23,2.23,1.61,0.81,2.12,2.12,2.13
97.30,-0.06,-2.16,-0.06,-2.16,2.16,1.54,0.75,2.10,2.10,2.10
98.28,-0.01,-2.08,-0.00,-2.08,2.07,1.46,0.69,2.07,2.07,2.07
99.26,0.05,-1.99,0.06,-1.98,1.98,1.38,0.63,2.04,2.04,2.05
100.25,0.12,-1.88,0.13,-1.88,1.89,1.30,0.56,2.01,2.02,2.01
101.25,0.20,-1.76,0.20,-1.77,1.79,1.22,0.50,1.99,1.99,1.97
102.27,0.27,-1.67,0.26,-1.67,1.68,1.14,0.44,1.96,1.95,1.94
103.29,0.32,-1.57,0.33,-1.57,1.57,1.06,0.39,1.90,1.90,1.89
104.32,0.38,-1.48,0.40,-1.46,1.45,0.97,0.33,1.84,1.85,1.86
105.37,0.48,-1.34,0.48,-1.35,1.33,0.89,0.27,1.82,1.81,1.83
106.42,0.58,-1.21,0.58,-1.22,1.21,0.80,0.21,1.79,1.78,1.80
107.48,0.68,-1.08,0.68,-1.08,1.07,0.72,0.16,1.75,1.75,1.76
108.56,0.78,-0.94,0.79,-0.93,0.94,0.63,0.10,1.72,1.72,1.72
109.64,0.90,-0.79,0.89,-0.80,0.79,0.54,0.05,1.69,1.69,1.68
110.74,1.00,-0.65,1.00,-0.65,0.65,0.45,-0.01,1.66,1.66,1.66
111.85,1.10,-0.53,1.11,-0.51,0.52,0.36,-0.06,1.62,1.63,1.64
112.97,1.22,-0.37,1.23,-0.37,0.39,0.27,-0.12,1.61,1.62,1.59
114.10,1.33,-0.24,1.33,-0.24,0.26,0.18,-0.17,1.60,1.59,1.57
115.24,1.42,-0.12,1.41,-0.13,0.15,0.09,-0.22,1.57,1.56,1.54
116.39,1.47,-0.05,1.48,-0.04,0.03,0.00,-0.27,1.51,1.52,1.53
117.55,1.54,0.04,1.56,0.06,-0.07,-0.09,-0.32,1.47,1.49,1.50
118.73,1.65,0.17,1.65,0.16,-0.17,-0.18,-0.37,1.48,1.48,1.48
119.92,1.75,0.28,1.75,0.28,-0.27,-0.27,-0.42,1.48,1.48,1.48
121.12,1.85,0.39,1.84,0.38,-0.37,-0.36,-0.47,1.49,1.47,1.46
122.33,1.91,0.47,1.92,0.47,-0.47,-0.46,-0.52,1.45,1.45,1.45
123.55,1.98,0.54,2.00,0.56,-0.57,-0.55,-0.57,1.42,1.44,1.44
124.79,2.08,0.66,2.09,0.66,-0.67,-0.64,-0.62,1.42,1.42,1.43
126.03,2.19,0.78,2.17,0.76,-0.76,-0.73,-0.66,1.43,1.41,1.41
127.29,2.25,0.85,2.26,0.86,-0.86,-0.82,-0.71,1.39,1.40,1.41
128.57,2.33,0.95,2.35,0.96,-0.96,-0.92,-0.76,1.38,1.39,1.39
129.85,2.44,1.07,2.43,1.06,-1.06,-1.01,-0.80,1.39,1.38,1.37
131.15,2.53,1.17,2.52,1.15,-1.15,-1.10,-0.85,1.38,1.36,1.36
132.46,2.58,1.24,2.60,1.25,-1.25,-1.19,-0.90,1.34,1.35,1.35
133.79,2.66,1.32,2.67,1.34,-1.34,-1.28,-0.94,1.32,1.33,1.35
135.12,2.77,1.46,2.76,1.43,-1.43,-1.38,-0.99,1.34,1.32,1.32
136.48,2.82,1.51,2.84,1.53,-1.52,-1.47,-1.04,1.30,1.32,1.32
137.84,2.91,1.62,2.90,1.61,-1.61,-1.56,-1.09,1.31,1.30,1.30
139.22,2.96,1.70,2.97,1.69,-1.69,-1.65,-1.13,1.27,1.28,1.27
140.61,3.01,1.77,3.03,1.78,-1.77,-1.74,-1.18,1.24,1.26,1.25
142.02,3.10,1.86,3.09,1.85,-1.86,-1.83,-1.23,1.25,1.23,1.24
143.44,3.14,1.92,3.15,1.93,-1.94,-1.92,-1.28,1.21,1.21,1.22
144.87,3.21,2.02,3.21,2.01,-2.02,-2.01,-1.33,1.20,1.19,1.20
146.32,3.26,2.09,3.27,2.09,-2.10,-2.09,-1.38,1.17,1.17,1.17
147.78,3.33,2.17,3.33,2.18,-2.18,-2.18,-1.43,1.16,1.15,1.16
149.26,3.38,2.25,3.39,2.26,-2.25,-2.27,-1.48,1.13,1.13,1.14
150.75,3.44,2.35,3.44,2.34,-2.33,-2.36,-1.54,1.12,1.11,1.09
152.26,3.48,2.41,3.48,2.41,-2.40,-2.44,-1.59,1.09,1.08,1.07
153.78,3.51,2.47,3.52,2.48,-2.47,-2.53,-1.65,1.05,1.05,1.05
155.32,3.54,2.53,3.55,2.53,-2.53,-2.61,-1.71,1.01,1.01,1.01
156.88,3.58,2.59,3.58,2.59,-2.60,-2.69,-1.77,0.98,0.98,0.99
158.44,3.60,2.65,3.61,2.66,-2.66,-2.78,-1.83,0.94,0.95,0.96
160.03,3.64,2.73,3.64,2.72,-2.73,-2.86,-1.89,0.92,0.91,0.92
161.63,3.67,2.79,3.68,2.79,-2.79,-2.94,-1.95,0.88,0.89,0.89
163.24,3.70,2.85,3.72,2.86,-2.85,-3.02,-2.02,0.85,0.86,0.86
164.88,3.76,2.93,3.75,2.92,-2.91,-3.10,-2.09,0.85,0.84,0.84
166.53,3.78,2.98,3.79,2.98,-2.98,-3.18,-2.15,0.81,0.81,0.81
168.19,3.81,3.05,3.82,3.04,-3.04,-3.25,-2.23,0.78,0.78,0.77
169.87,3.84,3.09,3.84,3.09,-3.10,-3.33,-2.30,0.75,0.74,0.75
171.57,3.86,3.14,3.87,3.15,-3.16,-3.40,-2.37,0.71,0.71,0.72
173.29,3.89,3.20,3.90,3.20,-3.21,-3.47,-2.45,0.68,0.69,0.70
175.02,3.93,3.26,3.93,3.26,-3.26,-3.54,-2.53,0.67,0.67,0.68
176.77,3.96,3.32,3.96,3.32,-3.31,-3.62,-2.61,0.66,0.65,0.64
178.54,3.98,3.37,3.99,3.36,-3.35,-3.68,-2.70,0.64,0.64,0.62
180.32,3.99,3.39,4.00,3.40,-3.38,-3.75,-2.78,0.62,0.62,0.60
182.13,4.01,3.42,4.01,3.42,-3.40,-3.82,-2.87,0.61,0.60,0.60
183.95,4.00,3.43,4.00,3.43,-3.42,-3.88,-2.96,0.58,0.58,0.57
185.79,3.99,3.44,3.99,3.43,-3.44,-3.94,-3.05,0.56,0.56,0.56
187.65,3.97,3.43,3.98,3.44,-3.45,-4.00,-3.14,0.53,0.53,0.54
189.52,3.97,3.44,3.98,3.45,-3.46,-4.06,-3.24,0.52,0.52,0.53
191.42,3.98,3.47,3.98,3.46,-3.47,-4.12,-3.33,0.52,0.51,0.52
193.33,3.99,3.49,3.99,3.48,-3.49,-4.17,-3.43,0.51,0.51,0.51
195.27,4.00,3.51,4.00,3.51,-3.51,-4.22,-3.53,0.50,0.49,0.49
197.22,4.01,3.53,4.02,3.54,-3.54,-4.27,-3.63,0.48,0.48,0.48
199.19,4.03,3.58,4.04,3.57,-3.57,-4.32,-3.74,0.46,0.46,0.45
201.18,4.06,3.61,4.06,3.62,-3.62,-4.37,-3.84,0.45,0.45,0.45
203.19,4.10,3.66,4.10,3.67,-3.67,-4.41,-3.94,0.44,0.44,0.44
205.23,4.14,3.72,4.15,3.72,-3.72,-4.45,-4.05,0.42,0.42,0.42
207.28,4.20,3.78,4.20,3.79,-3.79,-4.49,-4.15,0.41,0.41,0.42
209.35,4.25,3.85,4.26,3.86,-3.86,-4.53,-4.26,0.39,0.39,0.40
211.44,4.32,3.94,4.32,3.93,-3.94,-4.56,-4.36,0.39,0.38,0.38
213.56,4.39,4.01,4.40,4.02,-4.02,-4.59,-4.46,0.37,0.38,0.38
215.69,4.49,4.11,4.49,4.11,-4.11,-4.62,-4.56,0.39,0.38,0.38
217.85,4.58,4.21,4.58,4.20,-4.20,-4.65,-4.66,0.39,0.38,0.38
220.03,4.65,4.30,4.66,4.29,-4.29,-4.67,-4.76,0.37,0.37,0.36
222.23,4.73,4.38,4.73,4.38,-4.38,-4.69,-4.85,0.36,0.36,0.35
224.45,4.81,4.45,4.82,4.46,-4.47,-4.71,-4.93,0.35,0.35,0.36
226.70,4.90,4.55,4.91,4.55,-4.56,-4.72,-5.02,0.35,0.35,0.36
228.96,5.00,4.66,4.99,4.64,-4.65,-4.74,-5.09,0.36,0.35,0.35
231.25,5.07,4.72,5.08,4.73,-4.74,-4.75,-5.16,0.34,0.35,0.35
233.57,5.16,4.82,5.17,4.82,-4.82,-4.75,-5.23,0.34,0.34,0.35
235.90,5.25,4.92,5.24,4.91,-4.90,-4.76,-5.28,0.35,0.34,0.34
238.26,5.30,4.98,5.32,4.99,-4.98,-4.76,-5.34,0.32,0.33,0.32
240.64,5.38,5.06,5.38,5.05,-5.05,-4.76,-5.37,0.33,0.33,0.33
243.05,5.43,5.11,5.44,5.11,-5.11,-4.76,-5.41,0.32,0.33,0.32
245.48,5.49,5.17,5.49,5.17,-5.16,-4.75,-5.43,0.33,0.33,0.33
247.93,5.53,5.21,5.53,5.21,-5.20,-4.74,-5.45,0.33,0.33,0.32
250.41,5.55,5.24,5.56,5.24,-5.24,-4.73,-5.45,0.32,0.32,0.32
252.92,5.58,5.25,5.58,5.25,-5.26,-4.72,-5.45,0.32,0.32,0.33
255.45,5.60,5.26,5.61,5.27,-5.28,-4.70,-5.43,0.33,0.33,0.35
258.00,5.62,5.27,5.63,5.28,-5.28,-4.68,-5.41,0.34,0.35,0.35
260.58,5.65,5.30,5.65,5.28,-5.27,-4.66,-5.38,0.38,0.37,0.36
263.19,5.65,5.27,5.65,5.28,-5.26,-4.64,-5.34,0.39,0.39,0.38
265.82,5.64,5.26,5.65,5.26,-5.24,-4.61,-5.29,0.40,0.41,0.39
268.48,5.62,5.22,5.62,5.21,-5.22,-4.59,-5.24,0.41,0.40,0.41
271.16,5.59,5.17,5.59,5.17,-5.18,-4.56,-5.17,0.41,0.41,0.42
273.87,5.55,5.12,5.57,5.13,-5.15,-4.53,-5.11,0.41,0.42,0.44
276.61,5.54,5.09,5.54,5.09,-5.10,-4.49,-5.03,0.44,0.44,0.45
279.38,5.52,5.06,5.52,5.06,-5.05,-4.46,-4.95,0.47,0.47,0.46
282.17,5.48,5.02,5.49,5.01,-5.00,-4.42,-4.87,0.49,0.49,0.47
284.99,5.44,4.95,5.44,4.95,-4.94,-4.38,-4.78,0.50,0.50,0.49
287.84,5.38,4.88,5.39,4.89,-4.88,-4.34,-4.69,0.50,0.51,0.50
290.72,5.33,4.82,5.34,4.81,-4.82,-4.30,-4.59,0.51,0.51,0.52
293.63,5.28,4.75,5.28,4.75,-4.76,-4.26,-4.50,0.53,0.53,0.54
296.57,5.23,4.67,5.24,4.68,-4.69,-4.21,-4.40,0.55,0.55,0.56
299.53,5.19,4.62,5.19,4.62,-4.62,-4.17,-4.30,0.57,0.57,0.57
302.53,5.15,4.57,5.15,4.56,-4.55,-4.12,-4.20,0.60,0.60,0.59
305.55,5.10,4.48,5.11,4.49,-4.49,-4.07,-4.10,0.61,0.62,0.63
308.61,5.06,4.42,5.07,4.42,-4.43,-4.02,-4.00,0.64,0.64,0.64
311.69,5.02,4.35,5.03,4.36,-4.36,-3.97,-3.90,0.66,0.67,0.67
314.81,5.00,4.30,5.00,4.30,-4.29,-3.92,-3.80,0.71,0.71,0.71
317.96,4.96,4.24,4.96,4.23,-4.23,-3.87,-3.70,0.74,0.73,0.73
321.14,4.91,4.16,4.91,4.16,-4.16,-3.82,-3.61,0.76,0.76,0.75
324.35,4.85,4.08,4.86,4.08,-4.09,-3.77,-3.51,0.77,0.77,0.77
327.59,4.80,4.00,4.81,4.00,-4.01,-3.71,-3.42,0.79,0.79,0.80
330.87,4.75,3.93,4.76,3.93,-3.93,-3.66,-3.33,0.82,0.82,0.83
334.18,4.70,3.86,4.71,3.85,-3.85,-3.60,-3.24,0.85,0.85,0.85
337.52,4.65,3.78,4.65,3.77,-3.76,-3.55,-3.15,0.89,0.88,0.88
340.90,4.58,3.68,4.59,3.68,-3.67,-3.49,-3.07,0.91,0.91,0.90
344.30,4.51,3.58,4.52,3.59,-3.58,-3.44,-2.98,0.93,0.93,0.93
347.75,4.44,3.49,4.44,3.49,-3.49,-3.38,-2.90,0.96,0.96,0.95
351.23,4.36,3.39,4.37,3.39,-3.39,-3.33,-2.82,0.97,0.98,0.98
354.74,4.29,3.29,4.29,3.29,-3.29,-3.27,-2.74,1.00,1.00,1.01
358.28,4.21,3.19,4.22,3.19,-3.20,-3.21,-2.67,1.02,1.02,1.03
361.87,4.15,3.10,4.15,3.10,-3.10,-3.16,-2.60,1.05,1.05,1.06
365.49,4.08,3.01,4.08,3.01,-3.01,-3.10,-2.53,1.07,1.07,1.07
369.14,4.01,2.92,4.02,2.92,-2.92,-3.04,-2.46,1.09,1.09,1.09
372.83,3.95,2.84,3.95,2.83,-2.84,-2.99,-2.39,1.12,1.11,1.11
376.56,3.87,2.74,3.88,2.75,-2.75,-2.93,-2.33,1.12,1.13,1.13
380.33,3.82,2.67,3.82,2.67,-2.67,-2.87,-2.26,1.15,1.15,1.16
384.13,3.76,2.60,3.76,2.59,-2.59,-2.82,-2.20,1.17,1.17,1.17
387.97,3.69,2.52,3.69,2.51,-2.51,-2.76,-2.15,1.18,1.18,1.18
391.85,3.62,2.44,3.62,2.43,-2.43,-2.70,-2.09,1.19,1.19,1.19
395.77,3.54,2.34,3.56,2.35,-2.35,-2.65,-2.03,1.19,1.20,1.21
399.73,3.49,2.28,3.49,2.28,-2.27,-2.59,-1.98,1.22,1.22,1.21
403.72,3.43,2.21,3.43,2.20,-2.19,-2.54,-1.93,1.24,1.23,1.22
407.76,3.35,2.12,3.36,2.12,-2.12,-2.48,-1.88,1.24,1.24,1.23
411.84,3.28,2.03,3.29,2.04,-2.04,-2.42,-1.83,1.24,1.24,1.25
415.96,3.21,1.96,3.21,1.96,-1.97,-2.37,-1.79,1.25,1.24,1.25
420.12,3.14,1.89,3.14,1.89,-1.90,-2.32,-1.74,1.24,1.24,1.25
424.32,3.07,1.82,3.08,1.83,-1.83,-2.26,-1.70,1.24,1.25,1.25
428.56,3.02,1.78,3.02,1.77,-1.77,-2.21,-1.65,1.25,1.25,1.25
432.85,2.96,1.72,2.96,1.71,-1.71,-2.15,-1.61,1.25,1.25,1.25
437.18,2.90,1.66,2.91,1.66,-1.66,-2.10,-1.57,1.25,1.25,1.25
441.55,2.85,1.61,2.85,1.61,-1.61,-2.05,-1.53,1.25,1.25,1.25
445.96,2.80,1.56,2.80,1.56,-1.55,-1.99,-1.49,1.25,1.24,1.25
450.42,2.74,1.51,2.75,1.51,-1.50,-1.94,-1.45,1.24,1.24,1.24
454.93,2.68,1.45,2.69,1.46,-1.45,-1.89,-1.41,1.23,1.24,1.24
459.48,2.64,1.41,2.64,1.41,-1.40,-1.84,-1.38,1.24,1.24,1.24
464.07,2.59,1.36,2.59,1.35,-1.35,-1.79,-1.34,1.24,1.24,1.23
468.71,2.54,1.30,2.54,1.31,-1.31,-1.74,-1.30,1.24,1.24,1.24
473.40,2.49,1.26,2.50,1.26,-1.27,-1.69,-1.27,1.23,1.23,1.23
478.13,2.46,1.22,2.46,1.22,-1.23,-1.64,-1.23,1.23,1.23,1.24
482.91,2.43,1.20,2.44,1.20,-1.20,-1.59,-1.20,1.23,1.23,1.23
487.74,2.41,1.17,2.42,1.17,-1.18,-1.54,-1.16,1.24,1.24,1.24
492.62,2.40,1.15,2.40,1.16,-1.16,-1.49,-1.13,1.25,1.25,1.25
497.55,2.39,1.14,2.39,1.14,-1.14,-1.44,-1.09,1.26,1.26,1.25
502.52,2.38,1.12,2.38,1.12,-1.12,-1.39,-1.06,1.26,1.26,1.26
507.55,2.36,1.10,2.37,1.11,-1.10,-1.34,-1.02,1.26,1.27,1.26
512.62,2.35,1.08,2.36,1.08,-1.08,-1.30,-0.99,1.27,1.27,1.27
