frequency,raw,error,smoothed,error_smoothed,equalization,parametric_eq,fixed_band_eq,equalized_raw,equalized_smoothed,target
20.00,-12.50,-17.59,-12.51,-17.61,6.00,4.76,2.87,-6.50,-6.51,5.09
20.20,-12.31,-17.41,-12.30,-17.40,6.00,4.83,2.95,-6.31,-6.30,5.10
20.40,-12.12,-17.23,-12.11,-17.22,6.00,4.89,3.03,-6.12,-6.11,5.11
20.61,-11.93,-17.05,-11.92,-17.04,6.00,4.96,3.12,-5.93,-5.92,5.11
20.81,-11.74,-16.86,-11.74,-16.86,6.00,5.02,3.21,-5.74,-5.74,5.12
21.02,-11.56,-16.68,-11.58,-16.71,6.00,5.09,3.30,-5.56,-5.58,5.12
21.23,-11.46,-16.59,-11.46,-16.59,6.00,5.15,3.39,-5.46,-5.46,5.13
21.44,-11.37,-16.50,-11.36,-16.49,6.00,5.21,3.49,-5.37,-5.36,5.13
21.66,-11.27,-16.40,-11.27,-16.41,6.00,5.28,3.59,-5.27,-5.27,5.13
21.87,-11.18,-16.31,-11.17,-16.31,6.00,5.34,3.69,-5.18,-5.17,5.13
22.09,-11.07,-16.21,-11.06,-16.20,6.00,5.40,3.80,-5.07,-5.06,5.14
22.31,-10.95,-16.09,-10.95,-16.08,6.00,5.46,3.90,-4.95,-4.95,5.14
22.54,-10.82,-15.95,-10.83,-15.96,6.00,5.52,4.01,-4.82,-4.83,5.13
22.76,-10.70,-15.82,-10.70,-15.83,6.00,5.58,4.13,-4.70,-4.70,5.12
22.99,-10.58,-15.70,-10.57,-15.68,6.00,5.64,4.24,-4.58,-4.57,5.12
23.22,-10.42,-15.54,-10.42,-15.54,6.00,5.70,4.36,-4.42,-4.42,5.12
23.45,-10.26,-15.37,-10.27,-15.38,6.00,5.75,4.48,-4.26,-4.27,5.11
23.69,-10.11,-15.22,-10.10,-15.21,6.00,5.81,4.61,-4.11,-4.10,5.11
23.92,-9.95,-15.06,-9.95,-15.06,6.00,5.86,4.73,-3.95,-3.95,5.11
24.16,-9.80,-14.91,-9.80,-14.91,6.00,5.91,4.86,-3.80,-3.80,5.11
24.40,-9.65,-14.75,-9.65,-14.76,6.00,5.96,4.99,-3.65,-3.65,5.11
24.65,-9.51,-14.62,-9.50,-14.61,6.00,6.00,5.12,-3.51,-3.50,5.11
24.89,-9.36,-14.46,-9.36,-14.47,6.00,6.05,5.26,-3.36,-3.36,5.11
25.14,-9.23,-14.33,-9.23,-14.33,6.00,6.09,5.39,-3.23,-3.23,5.11
25.39,-9.10,-14.19,-9.10,-14.20,6.00,6.13,5.53,-3.10,-3.10,5.10
25.65,-8.98,-14.07,-8.98,-14.08,6.00,6.17,5.67,-2.98,-2.98,5.10
25.91,-8.86,-13.96,-8.84,-13.94,6.00,6.20,5.80,-2.86,-2.84,5.10
26.16,-8.69,-13.78,-8.69,-13.78,6.00,6.24,5.94,-2.69,-2.69,5.09
26.43,-8.51,-13.61,-8.51,-13.60,6.00,6.27,6.08,-2.51,-2.51,5.09
26.69,-8.33,-13.42,-8.33,-13.42,6.00,6.29,6.21,-2.33,-2.33,5.09
26.96,-8.15,-13.24,-8.17,-13.26,6.00,6.31,6.35,-2.15,-2.17,5.09
27.23,-8.03,-13.12,-8.03,-13.12,6.00,6.33,6.48,-2.03,-2.03,5.09
27.50,-7.93,-13.02,-7.92,-13.02,6.00,6.35,6.60,-1.93,-1.92,5.09
27.77,-7.82,-12.91,-7.82,-12.91,6.00,6.36,6.73,-1.82,-1.82,5.09
28.05,-7.71,-12.80,-7.69,-12.78,6.00,6.37,6.84,-1.71,-1.69,5.09
28.33,-7.55,-12.64,-7.55,-12.64,6.00,6.38,6.96,-1.55,-1.55,5.09
28.62,-7.38,-12.47,-7.38,-12.48,6.00,6.38,7.06,-1.38,-1.38,5.09
28.90,-7.22,-12.32,-7.22,-12.31,6.00,6.38,7.16,-1.22,-1.22,5.10
29.19,-7.07,-12.16,-7.07,-12.17,6.00,6.37,7.25,-1.07,-1.07,5.10
29.48,-6.94,-12.03,-6.94,-12.04,6.00,6.36,7.33,-0.94,-0.94,5.10
29.78,-6.81,-11.91,-6.81,-11.91,6.00,6.35,7.40,-0.81,-0.81,5.10
30.08,-6.68,-11.78,-6.68,-11.78,6.00,6.33,7.46,-0.68,-0.68,5.10
30.38,-6.55,-11.65,-6.55,-11.65,6.00,6.31,7.50,-0.55,-0.55,5.10
30.68,-6.42,-11.52,-6.42,-11.52,6.00,6.29,7.54,-0.42,-0.42,5.10
30.99,-6.29,-11.39,-6.29,-11.39,6.00,6.27,7.56,-0.29,-0.29,5.10
31.30,-6.16,-11.26,-6.16,-11.26,6.00,6.24,7.58,-0.16,-0.16,5.10
31.61,-6.03,-11.13,-6.03,-11.13,6.00,6.21,7.58,-0.03,-0.03,5.10
31.93,-5.90,-11.00,-5.90,-10.99,6.00,6.18,7.56,0.10,0.10,5.10
32.24,-5.77,-10.85,-5.77,-10.86,6.00,6.15,7.54,0.23,0.23,5.09
32.57,-5.65,-10.73,-5.65,-10.73,6.00,6.12,7.50,0.35,0.35,5.08
32.89,-5.52,-10.60,-5.52,-10.60,6.00,6.10,7.46,0.48,0.48,5.08
33.22,-5.40,-10.47,-5.40,-10.47,6.00,6.07,7.40,0.60,0.60,5.07
33.55,-5.27,-10.34,-5.27,-10.34,6.00,6.04,7.33,0.73,0.73,5.07
33.89,-5.15,-10.21,-5.14,-10.20,6.00,6.02,7.26,0.85,0.86,5.06
34.23,-5.01,-10.06,-5.01,-10.06,6.00,6.00,7.17,0.99,0.99,5.06
34.57,-4.86,-9.91,-4.86,-9.91,6.00,5.98,7.08,1.14,1.14,5.05
34.92,-4.71,-9.76,-4.71,-9.76,6.00,5.97,6.99,1.29,1.29,5.05
35.27,-4.56,-9.61,-4.56,-9.61,6.00,5.96,6.89,1.44,1.44,5.05
35.62,-4.42,-9.47,-4.42,-9.47,6.00,5.95,6.78,1.58,1.58,5.05
35.97,-4.28,-9.32,-4.28,-9.33,6.00,5.95,6.67,1.72,1.72,5.05
36.33,-4.16,-9.20,-4.15,-9.20,6.00,5.95,6.56,1.84,1.85,5.04
36.70,-4.03,-9.07,-4.03,-9.07,6.00,5.95,6.45,1.97,1.97,5.04
37.06,-3.91,-8.95,-3.90,-8.94,6.00,5.96,6.34,2.09,2.10,5.04
37.43,-3.78,-8.81,-3.77,-8.81,6.00,5.96,6.22,2.22,2.23,5.04
37.81,-3.65,-8.69,-3.66,-8.70,6.00,5.97,6.11,2.35,2.34,5.04
38.19,-3.58,-8.62,-3.60,-8.65,6.00,5.98,5.99,2.42,2.40,5.04
38.57,-3.56,-8.60,-3.56,-8.60,6.00,5.99,5.88,2.44,2.44,5.04
38.95,-3.53,-8.57,-3.48,-8.52,6.00,6.00,5.77,2.47,2.52,5.05
39.34,-3.36,-8.40,-3.36,-8.40,6.00,6.01,5.66,2.64,2.64,5.04
39.74,-3.17,-8.21,-3.19,-8.23,6.00,6.02,5.55,2.83,2.81,5.04
40.14,-3.00,-8.04,-3.00,-8.04,6.00,6.03,5.44,3.00,3.00,5.04
40.54,-2.84,-7.87,-2.84,-7.87,6.00,6.04,5.34,3.16,3.16,5.03
40.94,-2.68,-7.71,-2.69,-7.72,6.00,6.05,5.24,3.32,3.31,5.03
41.35,-2.55,-7.57,-2.55,-7.57,6.00,6.05,5.14,3.45,3.45,5.03
41.76,-2.42,-7.43,-2.41,-7.43,6.00,6.06,5.05,3.58,3.59,5.01
42.18,-2.29,-7.30,-2.29,-7.30,6.00,6.06,4.96,3.71,3.71,5.01
42.60,-2.17,-7.17,-2.16,-7.17,6.00,6.06,4.87,3.83,3.84,5.00
43.03,-2.04,-7.04,-2.04,-7.04,6.00,6.06,4.79,3.96,3.96,5.00
43.46,-1.92,-6.91,-1.92,-6.91,6.01,6.06,4.71,4.09,4.09,5.00
43.90,-1.79,-6.77,-1.79,-6.77,6.02,6.04,4.63,4.23,4.23,4.98
44.33,-1.66,-6.63,-1.65,-6.63,6.02,6.03,4.55,4.36,4.36,4.98
44.78,-1.53,-6.50,-1.54,-6.51,6.01,6.01,4.48,4.48,4.47,4.97
45.23,-1.42,-6.39,-1.45,-6.41,5.99,5.98,4.41,4.57,4.54,4.97
45.68,-1.35,-6.31,-1.33,-6.29,5.97,5.94,4.35,4.62,4.64,4.96
46.13,-1.22,-6.18,-1.14,-6.10,5.94,5.90,4.29,4.73,4.80,4.97
46.60,-0.93,-5.89,-0.95,-5.91,5.90,5.85,4.23,4.96,4.95,4.96
47.06,-0.70,-5.66,-0.81,-5.78,5.83,5.79,4.18,5.13,5.02,4.96
47.53,-0.75,-5.72,-0.74,-5.71,5.75,5.72,4.12,5.00,5.01,4.97
48.01,-0.80,-5.77,-0.72,-5.69,5.66,5.64,4.08,4.86,4.94,4.97
48.49,-0.65,-5.62,-0.66,-5.63,5.57,5.56,4.03,4.92,4.91,4.98
48.97,-0.50,-5.48,-0.50,-5.48,5.47,5.47,3.99,4.97,4.97,4.98
49.46,-0.33,-5.31,-0.32,-5.31,5.36,5.38,3.95,5.04,5.04,4.98
49.96,-0.16,-5.15,-0.21,-5.21,5.26,5.28,3.91,5.10,5.04,4.99
50.46,-0.13,-5.12,-0.13,-5.13,5.14,5.18,3.87,5.01,5.00,5.00
50.96,-0.11,-5.12,-0.05,-5.06,5.00,5.07,3.84,4.90,4.95,5.01
51.47,0.06,-4.95,0.06,-4.95,4.87,4.96,3.81,4.93,4.93,5.01
51.99,0.24,-4.77,0.23,-4.78,4.75,4.85,3.78,4.99,4.98,5.01
52.51,0.41,-4.60,0.41,-4.60,4.64,4.75,3.75,5.05,5.05,5.01
53.03,0.57,-4.44,0.56,-4.46,4.54,4.64,3.72,5.11,5.10,5.01
53.56,0.65,-4.36,0.65,-4.37,4.44,4.53,3.70,5.09,5.09,5.01
54.10,0.71,-4.31,0.69,-4.33,4.35,4.42,3.67,5.06,5.04,5.02
54.64,0.72,-4.30,0.74,-4.28,4.26,4.32,3.65,4.98,5.00,5.02
55.18,0.77,-4.25,0.81,-4.21,4.17,4.21,3.62,4.94,4.98,5.02
55.74,0.92,-4.09,0.88,-4.14,4.09,4.11,3.60,5.01,4.97,5.01
56.29,1.00,-4.01,0.97,-4.05,4.00,4.01,3.57,5.01,4.97,5.01
56.86,1.02,-3.99,1.09,-3.92,3.91,3.91,3.55,4.94,5.00,5.01
57.42,1.18,-3.82,1.20,-3.80,3.82,3.81,3.53,5.00,5.02,5.00
58.00,1.39,-3.60,1.32,-3.67,3.71,3.72,3.50,5.10,5.03,4.99
58.58,1.42,-3.55,1.42,-3.55,3.60,3.63,3.47,5.02,5.02,4.97
59.16,1.45,-3.51,1.47,-3.49,3.49,3.54,3.45,4.94,4.96,4.96
59.76,1.51,-3.44,1.53,-3.42,3.37,3.45,3.42,4.88,4.90,4.95
60.35,1.61,-3.31,1.62,-3.30,3.27,3.36,3.39,4.88,4.89,4.92
60.96,1.75,-3.15,1.73,-3.17,3.17,3.28,3.35,4.92,4.90,4.90
61.57,1.82,-3.05,1.82,-3.05,3.08,3.19,3.32,4.90,4.89,4.87
62.18,1.88,-2.96,1.89,-2.95,2.98,3.11,3.28,4.86,4.87,4.84
62.80,1.94,-2.86,1.96,-2.84,2.87,3.03,3.24,4.81,4.83,4.80
63.43,2.01,-2.74,1.99,-2.77,2.75,2.95,3.20,4.76,4.74,4.76
64.07,2.06,-2.66,2.00,-2.72,2.65,2.87,3.16,4.71,4.65,4.72
64.71,1.98,-2.69,2.07,-2.60,2.56,2.80,3.11,4.54,4.63,4.67
65.35,2.10,-2.53,2.17,-2.47,2.48,2.72,3.07,4.58,4.65,4.63
66.01,2.39,-2.20,2.25,-2.34,2.40,2.65,3.02,4.79,4.66,4.59
66.67,2.31,-2.24,2.33,-2.23,2.32,2.57,2.97,4.63,4.65,4.56
67.33,2.27,-2.25,2.30,-2.22,2.24,2.50,2.92,4.51,4.54,4.53
68.01,2.27,-2.21,2.22,-2.27,2.16,2.43,2.86,4.44,4.38,4.49
68.69,2.19,-2.26,2.28,-2.18,2.10,2.36,2.81,4.29,4.38,4.45
69.37,2.32,-2.10,2.37,-2.05,2.05,2.29,2.75,4.37,4.42,4.42
70.07,2.58,-1.81,2.45,-1.94,2.00,2.22,2.69,4.58,4.45,4.39
70.77,2.50,-1.86,2.49,-1.87,1.94,2.15,2.63,4.44,4.43,4.36
71.48,2.42,-1.91,2.47,-1.87,1.88,2.08,2.57,4.30,4.35,4.34
72.19,2.39,-1.91,2.43,-1.87,1.82,2.01,2.51,4.21,4.24,4.30
72.91,2.48,-1.79,2.47,-1.80,1.76,1.94,2.45,4.24,4.23,4.27
73.64,2.54,-1.69,2.53,-1.71,1.72,1.87,2.39,4.26,4.24,4.23
74.38,2.57,-1.63,2.57,-1.63,1.67,1.80,2.33,4.24,4.24,4.20
75.12,2.57,-1.59,2.56,-1.60,1.62,1.73,2.27,4.19,4.18,4.16
75.87,2.56,-1.55,2.54,-1.58,1.56,1.66,2.21,4.12,4.09,4.12
76.63,2.50,-1.58,2.54,-1.53,1.49,1.59,2.14,3.99,4.04,4.08
77.40,2.55,-1.48,2.58,-1.46,1.43,1.52,2.08,3.98,4.01,4.03
78.17,2.67,-1.32,2.62,-1.37,1.38,1.45,2.02,4.05,4.00,3.99
78.95,2.67,-1.27,2.67,-1.27,1.32,1.38,1.96,3.99,4.00,3.94
79.74,2.67,-1.23,2.68,-1.22,1.26,1.31,1.90,3.93,3.94,3.90
80.54,2.66,-1.19,2.64,-1.21,1.19,1.24,1.85,3.85,3.83,3.85
81.35,2.63,-1.18,2.64,-1.17,1.13,1.17,1.79,3.76,3.77,3.81
82.16,2.62,-1.15,2.67,-1.10,1.07,1.10,1.73,3.70,3.75,3.77
82.98,2.76,-0.97,2.72,-1.01,1.02,1.04,1.67,3.79,3.74,3.73
83.81,2.77,-0.92,2.76,-0.93,0.97,0.97,1.62,3.74,3.73,3.69
84.65,2.77,-0.88,2.77,-0.88,0.91,0.90,1.56,3.68,3.69,3.65
85.50,2.75,-0.86,2.74,-0.87,0.85,0.84,1.51,3.60,3.58,3.61
86.35,2.72,-0.85,2.75,-0.82,0.78,0.78,1.46,3.50,3.52,3.57
87.22,2.74,-0.78,2.78,-0.75,0.71,0.72,1.40,3.46,3.49,3.52
88.09,2.87,-0.61,2.82,-0.66,0.65,0.66,1.35,3.52,3.48,3.48
88.97,2.87,-0.57,2.87,-0.57,0.59,0.61,1.30,3.46,3.46,3.44
89.86,2.87,-0.53,2.89,-0.51,0.54,0.56,1.25,3.41,3.42,3.40
90.76,2.88,-0.47,2.88,-0.48,0.48,0.51,1.21,3.37,3.36,3.35
91.66,2.88,-0.43,2.88,-0.43,0.44,0.47,1.16,3.32,3.32,3.31
92.58,2.88,-0.40,2.89,-0.38,0.40,0.43,1.11,3.28,3.29,3.28
93.51,2.88,-0.35,2.87,-0.36,0.37,0.40,1.07,3.25,3.24,3.23
94.44,2.85,-0.34,2.83,-0.37,0.35,0.38,1.02,3.20,3.18,3.19
95.39,2.77,-0.38,2.79,-0.36,0.34,0.35,0.98,3.11,3.13,3.15
96.34,2.74,-0.37,2.78,-0.33,0.33,0.34,0.93,3.07,3.11,3.12
97.30,2.80,-0.28,2.77,-0.31,0.31,0.33,0.89,3.11,3.08,3.08
98.28,2.78,-0.25,2.74,-0.29,0.30,0.32,0.85,3.08,3.04,3.03
99.26,2.66,-0.33,2.70,-0.30,0.29,0.32,0.81,2.96,2.99,2.99
100.25,2.62,-0.33,2.64,-0.31,0.29,0.32,0.77,2.92,2.93,2.95
101.25,2.61,-0.30,2.61,-0.30,0.30,0.32,0.73,2.91,2.91,2.91
102.27,2.60,-0.26,2.60,-0.26,0.31,0.33,0.70,2.91,2.91,2.86
103.29,2.56,-0.25,2.53,-0.28,0.31,0.34,0.66,2.87,2.84,2.81
104.32,2.46,-0.30,2.44,-0.33,0.31,0.35,0.62,2.77,2.75,2.76
105.37,2.30,-0.42,2.35,-0.37,0.32,0.37,0.59,2.62,2.67,2.72
106.42,2.29,-0.38,2.29,-0.38,0.32,0.39,0.56,2.62,2.62,2.68
107.48,2.29,-0.33,2.28,-0.34,0.34,0.40,0.53,2.63,2.62,2.63
108.56,2.28,-0.30,2.29,-0.29,0.35,0.42,0.50,2.63,2.64,2.58
109.64,2.27,-0.26,2.23,-0.30,0.36,0.44,0.47,2.63,2.58,2.53
110.74,2.15,-0.34,2.13,-0.36,0.36,0.46,0.44,2.52,2.50,2.49
111.85,1.98,-0.47,2.04,-0.41,0.37,0.48,0.41,2.36,2.41,2.45
112.97,1.97,-0.44,1.99,-0.42,0.39,0.50,0.39,2.36,2.38,2.41
114.10,1.99,-0.38,1.97,-0.40,0.40,0.52,0.37,2.39,2.37,2.37
115.24,1.99,-0.35,1.94,-0.40,0.42,0.54,0.35,2.41,2.36,2.34
116.39,1.85,-0.45,1.87,-0.45,0.44,0.56,0.33,2.30,2.31,2.31
117.55,1.76,-0.53,1.82,-0.47,0.46,0.58,0.31,2.22,2.27,2.29
118.73,1.78,-0.48,1.79,-0.47,0.46,0.60,0.30,2.24,2.25,2.26
119.92,1.84,-0.40,1.78,-0.46,0.47,0.61,0.28,2.31,2.26,2.24
121.12,1.76,-0.47,1.75,-0.48,0.49,0.63,0.27,2.25,2.24,2.23
122.33,1.66,-0.55,1.69,-0.52,0.51,0.65,0.26,2.17,2.20,2.21
123.55,1.62,-0.57,1.66,-0.54,0.53,0.66,0.26,2.16,2.19,2.19
124.79,1.65,-0.53,1.64,-0.54,0.55,0.68,0.25,2.20,2.20,2.18
126.03,1.68,-0.48,1.60,-0.56,0.58,0.69,0.25,2.26,2.18,2.16
127.29,1.51,-0.64,1.54,-0.61,0.60,0.71,0.25,2.12,2.14,2.15
128.57,1.42,-0.71,1.48,-0.66,0.63,0.72,0.25,2.06,2.11,2.14
129.85,1.45,-0.67,1.45,-0.67,0.66,0.73,0.25,2.11,2.11,2.12
131.15,1.47,-0.64,1.44,-0.67,0.68,0.74,0.26,2.15,2.12,2.11
132.46,1.43,-0.66,1.39,-0.70,0.71,0.76,0.27,2.14,2.10,2.09
133.79,1.29,-0.78,1.34,-0.74,0.74,0.77,0.28,2.03,2.07,2.07
135.12,1.25,-0.80,1.29,-0.77,0.76,0.78,0.29,2.01,2.05,2.05
136.48,1.30,-0.74,1.26,-0.78,0.78,0.79,0.30,2.08,2.04,2.04
137.84,1.25,-0.77,1.23,-0.80,0.80,0.80,0.31,2.05,2.03,2.02
139.22,1.16,-0.84,1.17,-0.84,0.83,0.81,0.33,1.99,2.00,2.00
140.61,1.07,-0.91,1.11,-0.87,0.86,0.82,0.35,1.93,1.97,1.98
142.02,1.08,-0.88,1.09,-0.87,0.88,0.83,0.37,1.96,1.97,1.96
143.44,1.11,-0.83,1.07,-0.87,0.89,0.84,0.39,2.00,1.96,1.94
144.87,1.04,-0.87,1.01,-0.90,0.91,0.85,0.41,1.95,1.92,1.91
146.32,0.90,-0.98,0.94,-0.94,0.92,0.86,0.44,1.82,1.86,1.88
147.78,0.85,-1.00,0.89,-0.96,0.93,0.87,0.46,1.78,1.82,1.85
149.26,0.88,-0.93,0.88,-0.93,0.93,0.88,0.49,1.81,1.81,1.81
150.75,0.91,-0.85,0.85,-0.92,0.94,0.89,0.52,1.85,1.78,1.77
152.26,0.79,-0.92,0.79,-0.92,0.94,0.90,0.54,1.73,1.73,1.71
153.78,0.66,-1.00,0.72,-0.94,0.93,0.91,0.57,1.59,1.65,1.66
155.32,0.67,-0.92,0.66,-0.94,0.92,0.92,0.60,1.59,1.58,1.59
156.88,0.64,-0.90,0.62,-0.92,0.91,0.93,0.64,1.55,1.53,1.54
158.44,0.59,-0.89,0.58,-0.90,0.90,0.94,0.67,1.49,1.48,1.48
160.03,0.51,-0.92,0.53,-0.90,0.89,0.95,0.70,1.40,1.42,1.43
161.63,0.49,-0.90,0.50,-0.88,0.89,0.96,0.73,1.38,1.39,1.39
163.24,0.48,-0.86,0.47,-0.87,0.89,0.97,0.77,1.37,1.36,1.34
164.88,0.45,-0.86,0.44,-0.87,0.89,0.98,0.80,1.34,1.33,1.31
166.53,0.39,-0.89,0.38,-0.90,0.90,0.99,0.84,1.30,1.29,1.28
168.19,0.30,-0.96,0.32,-0.94,0.93,1.00,0.88,1.23,1.25,1.26
169.87,0.26,-0.99,0.28,-0.97,0.97,1.01,0.92,1.23,1.25,1.25
171.57,0.25,-0.99,0.24,-1.01,1.02,1.03,0.95,1.27,1.26,1.24
173.29,0.22,-1.03,0.21,-1.04,1.06,1.04,0.99,1.29,1.27,1.25
175.02,0.15,-1.11,0.16,-1.10,1.11,1.05,1.03,1.26,1.27,1.26
176.77,0.10,-1.17,0.10,-1.18,1.15,1.06,1.08,1.25,1.25,1.27
178.54,0.04,-1.25,0.05,-1.24,1.19,1.07,1.12,1.24,1.25,1.29
180.32,0.04,-1.27,0.04,-1.27,1.23,1.09,1.16,1.28,1.28,1.31
182.13,0.05,-1.28,0.06,-1.27,1.28,1.10,1.20,1.33,1.34,1.33
183.95,0.08,-1.27,0.08,-1.27,1.31,1.11,1.25,1.39,1.39,1.35
185.79,0.08,-1.28,0.05,-1.31,1.34,1.13,1.29,1.43,1.39,1.36
187.65,0.00,-1.37,-0.00,-1.37,1.38,1.14,1.34,1.38,1.37,1.37
189.52,-0.09,-1.46,-0.05,-1.42,1.41,1.16,1.38,1.32,1.36,1.37
191.42,-0.10,-1.47,-0.09,-1.46,1.45,1.17,1.43,1.35,1.36,1.37
193.33,-0.07,-1.45,-0.10,-1.48,1.48,1.19,1.48,1.41,1.38,1.38
195.27,-0.12,-1.50,-0.12,-1.50,1.51,1.20,1.52,1.39,1.39,1.38
197.22,-0.18,-1.55,-0.18,-1.55,1.53,1.22,1.57,1.36,1.36,1.37
199.19,-0.24,-1.60,-0.23,-1.60,1.55,1.23,1.62,1.32,1.32,1.37
201.18,-0.27,-1.62,-0.24,-1.59,1.57,1.25,1.67,1.31,1.34,1.36
203.19,-0.23,-1.57,-0.23,-1.58,1.60,1.27,1.72,1.37,1.37,1.35
205.23,-0.19,-1.52,-0.23,-1.56,1.62,1.29,1.76,1.43,1.39,1.34
207.28,-0.27,-1.59,-0.27,-1.59,1.63,1.30,1.81,1.37,1.37,1.33
209.35,-0.35,-1.67,-0.35,-1.66,1.65,1.32,1.86,1.30,1.30,1.32
211.44,-0.44,-1.74,-0.42,-1.72,1.67,1.34,1.91,1.23,1.25,1.30
213.56,-0.46,-1.75,-0.44,-1.73,1.69,1.36,1.96,1.24,1.25,1.29
215.69,-0.44,-1.71,-0.45,-1.72,1.72,1.38,2.00,1.29,1.28,1.27
217.85,-0.44,-1.70,-0.46,-1.72,1.76,1.40,2.05,1.32,1.29,1.26
220.03,-0.51,-1.75,-0.51,-1.76,1.78,1.42,2.09,1.27,1.27,1.25
222.23,-0.58,-1.82,-0.57,-1.81,1.80,1.44,2.13,1.22,1.23,1.24
224.45,-0.64,-1.87,-0.62,-1.85,1.82,1.46,2.18,1.18,1.21,1.23
226.70,-0.65,-1.87,-0.65,-1.87,1.85,1.48,2.21,1.21,1.20,1.22
228.96,-0.65,-1.87,-0.69,-1.91,1.90,1.50,2.25,1.25,1.22,1.22
231.25,-0.74,-1.96,-0.70,-1.92,1.96,1.52,2.29,1.22,1.26,1.22
233.57,-0.77,-1.98,-0.74,-1.95,2.02,1.54,2.32,1.25,1.28,1.21
235.90,-0.74,-1.96,-0.81,-2.03,2.06,1.57,2.35,1.33,1.25,1.22
238.26,-0.88,-2.10,-0.89,-2.12,2.10,1.59,2.38,1.22,1.21,1.22
240.64,-1.04,-2.28,-0.98,-2.21,2.13,1.61,2.40,1.10,1.16,1.24
243.05,-1.03,-2.27,-1.02,-2.26,2.16,1.64,2.42,1.14,1.14,1.24
245.48,-0.97,-2.22,-0.97,-2.22,2.19,1.66,2.44,1.22,1.22,1.25
247.93,-0.90,-2.15,-0.90,-2.16,2.20,1.68,2.46,1.31,1.30,1.25
250.41,-0.84,-2.10,-0.89,-2.14,2.21,1.71,2.47,1.37,1.33,1.26
252.92,-0.92,-2.18,-0.91,-2.17,2.21,1.73,2.48,1.29,1.30,1.26
255.45,-0.97,-2.23,-0.94,-2.20,2.20,1.76,2.49,1.23,1.26,1.26
258.00,-0.97,-2.22,-0.97,-2.23,2.19,1.78,2.49,1.22,1.22,1.25
260.58,-0.96,-2.21,-0.97,-2.22,2.19,1.81,2.49,1.23,1.22,1.25
263.19,-0.96,-2.20,-0.96,-2.21,2.19,1.84,2.49,1.23,1.23,1.25
265.82,-0.96,-2.20,-0.96,-2.21,2.19,1.86,2.48,1.23,1.23,1.24
268.48,-0.97,-2.21,-0.96,-2.20,2.20,1.89,2.48,1.23,1.24,1.24
271.16,-0.97,-2.20,-0.95,-2.18,2.21,1.91,2.47,1.24,1.26,1.23
273.87,-0.93,-2.16,-0.96,-2.19,2.23,1.94,2.45,1.30,1.27,1.23
276.61,-0.96,-2.19,-0.98,-2.21,2.25,1.97,2.44,1.29,1.27,1.23
279.38,-1.06,-2.28,-1.02,-2.25,2.28,1.99,2.42,1.22,1.26,1.23
282.17,-1.07,-2.30,-1.09,-2.32,2.31,2.02,2.41,1.24,1.22,1.23
284.99,-1.14,-2.38,-1.16,-2.39,2.34,2.04,2.39,1.20,1.18,1.24
287.84,-1.22,-2.45,-1.19,-2.42,2.37,2.07,2.37,1.15,1.18,1.24
290.72,-1.21,-2.45,-1.17,-2.41,2.39,2.10,2.35,1.18,1.22,1.24
293.63,-1.11,-2.36,-1.14,-2.39,2.40,2.12,2.33,1.29,1.26,1.25
296.57,-1.07,-2.33,-1.13,-2.38,2.41,2.15,2.31,1.34,1.28,1.26
299.53,-1.18,-2.43,-1.14,-2.40,2.42,2.18,2.29,1.24,1.28,1.26
302.53,-1.20,-2.46,-1.16,-2.43,2.43,2.20,2.27,1.23,1.27,1.26
305.55,-1.17,-2.43,-1.17,-2.44,2.44,2.23,2.25,1.27,1.27,1.26
308.61,-1.14,-2.40,-1.17,-2.43,2.46,2.25,2.23,1.32,1.29,1.26
311.69,-1.22,-2.48,-1.22,-2.48,2.49,2.28,2.21,1.27,1.26,1.26
314.81,-1.30,-2.54,-1.29,-2.54,2.51,2.30,2.19,1.22,1.22,1.25
317.96,-1.38,-2.62,-1.35,-2.59,2.55,2.32,2.18,1.17,1.20,1.24
321.14,-1.37,-2.60,-1.36,-2.59,2.59,2.35,2.16,1.22,1.23,1.23
324.35,-1.34,-2.57,-1.37,-2.60,2.63,2.37,2.15,1.29,1.26,1.23
327.59,-1.38,-2.60,-1.41,-2.62,2.68,2.39,2.13,1.30,1.27,1.22
330.87,-1.49,-2.70,-1.47,-2.67,2.72,2.41,2.12,1.23,1.26,1.21
334.18,-1.57,-2.76,-1.55,-2.74,2.75,2.43,2.11,1.18,1.20,1.20
337.52,-1.58,-2.76,-1.62,-2.80,2.76,2.45,2.10,1.18,1.14,1.18
340.90,-1.66,-2.84,-1.64,-2.82,2.75,2.47,2.09,1.09,1.11,1.18
344.30,-1.65,-2.82,-1.63,-2.79,2.72,2.49,2.09,1.07,1.09,1.17
347.75,-1.57,-2.72,-1.57,-2.73,2.67,2.51,2.08,1.10,1.09,1.15
351.23,-1.47,-2.61,-1.48,-2.62,2.60,2.53,2.08,1.13,1.12,1.14
354.74,-1.38,-2.51,-1.38,-2.51,2.53,2.54,2.08,1.15,1.15,1.13
358.28,-1.30,-2.41,-1.29,-2.40,2.47,2.56,2.08,1.17,1.18,1.12
361.87,-1.23,-2.33,-1.22,-2.32,2.41,2.57,2.08,1.19,1.19,1.10
365.49,-1.17,-2.25,-1.20,-2.28,2.38,2.58,2.09,1.21,1.18,1.08
369.14,-1.23,-2.30,-1.25,-2.32,2.36,2.59,2.09,1.13,1.11,1.07
372.83,-1.33,-2.39,-1.33,-2.39,2.35,2.60,2.10,1.02,1.02,1.06
376.56,-1.45,-2.50,-1.38,-2.44,2.35,2.61,2.11,0.90,0.97,1.05
380.33,-1.38,-2.42,-1.39,-2.43,2.36,2.62,2.12,0.98,0.97,1.04
384.13,-1.33,-2.36,-1.36,-2.39,2.36,2.63,2.13,1.03,1.00,1.03
387.97,-1.32,-2.34,-1.31,-2.33,2.35,2.63,2.14,1.03,1.04,1.02
391.85,-1.31,-2.32,-1.31,-2.31,2.34,2.64,2.16,1.03,1.03,1.01
395.77,-1.31,-2.31,-1.31,-2.31,2.32,2.64,2.17,1.01,1.01,1.00
399.73,-1.31,-2.29,-1.31,-2.30,2.31,2.64,2.19,1.00,1.00,0.99
403.72,-1.32,-2.29,-1.30,-2.27,2.31,2.64,2.20,0.99,1.01,0.98
407.76,-1.32,-2.27,-1.32,-2.28,2.32,2.64,2.22,1.00,1.00,0.95
411.84,-1.32,-2.26,-1.39,-2.33,2.33,2.64,2.24,1.02,0.95,0.94
415.96,-1.49,-2.42,-1.44,-2.38,2.35,2.63,2.26,0.86,0.90,0.93
420.12,-1.53,-2.46,-1.48,-2.40,2.35,2.63,2.28,0.82,0.87,0.93
424.32,-1.44,-2.36,-1.48,-2.40,2.35,2.62,2.30,0.91,0.87,0.92
428.56,-1.41,-2.33,-1.43,-2.35,2.34,2.61,2.32,0.93,0.91,0.92
432.85,-1.40,-2.33,-1.39,-2.32,2.33,2.60,2.34,0.94,0.95,0.93
437.18,-1.37,-2.31,-1.37,-2.31,2.33,2.59,2.36,0.96,0.96,0.94
441.55,-1.33,-2.29,-1.32,-2.28,2.32,2.58,2.37,0.99,1.00,0.96
445.96,-1.29,-2.27,-1.28,-2.26,2.32,2.57,2.39,1.03,1.04,0.98
450.42,-1.23,-2.24,-1.28,-2.29,2.31,2.55,2.41,1.08,1.03,1.01
454.93,-1.28,-2.33,-1.29,-2.34,2.30,2.54,2.42,1.02,1.01,1.05
459.48,-1.36,-2.45,-1.28,-2.36,2.29,2.52,2.44,0.93,1.01,1.09
464.07,-1.22,-2.34,-1.23,-2.35,2.28,2.50,2.45,1.07,1.05,1.12
468.71,-1.11,-2.27,-1.14,-2.30,2.28,2.48,2.46,1.17,1.15,1.16
473.40,-1.04,-2.24,-1.03,-2.23,2.29,2.47,2.47,1.25,1.26,1.20
478.13,-0.98,-2.22,-0.96,-2.20,2.29,2.44,2.47,1.31,1.33,1.24
482.91,-0.94,-2.20,-0.96,-2.22,2.28,2.42,2.47,1.35,1.33,1.27
487.74,-0.93,-2.22,-0.99,-2.28,2.28,2.40,2.48,1.35,1.29,1.30
492.62,-1.08,-2.39,-1.01,-2.33,2.27,2.38,2.47,1.19,1.26,1.32
497.55,-1.04,-2.37,-1.01,-2.34,2.27,2.35,2.47,1.23,1.26,1.34
502.52,-0.93,-2.27,-0.97,-2.31,2.27,2.33,2.46,1.34,1.30,1.35
507.55,-0.89,-2.23,-0.90,-2.24,2.25,2.30,2.45,1.37,1.36,1.34
512.62,-0.87,-2.20,-0.86,-2.20,2.23,2.28,2.44,1.36,1.37,1.33
517.75,-0.86,-2.17,-0.86,-2.18,2.20,2.25,2.42,1.34,1.34,1.31
