frequency,raw,error,smoothed,error_smoothed,equalization,parametric_eq,fixed_band_eq,equalized_raw,equalized_smoothed,target
20.00,-4.28,-12.75,-4.27,-12.75,6.00,7.42,2.74,1.72,1.73,8.47
20.20,-4.19,-12.70,-4.19,-12.70,6.00,7.39,2.82,1.81,1.81,8.51
20.40,-4.09,-12.63,-4.10,-12.64,6.00,7.35,2.90,1.91,1.90,8.54
20.61,-4.00,-12.57,-4.00,-12.58,6.00,7.31,2.99,2.00,2.00,8.57
20.81,-3.90,-12.50,-3.90,-12.51,6.00,7.28,3.07,2.10,2.10,8.60
21.02,-3.81,-12.44,-3.79,-12.42,6.00,7.24,3.16,2.19,2.21,8.63
21.23,-3.66,-12.31,-3.66,-12.31,6.00,7.20,3.25,2.34,2.34,8.65
21.44,-3.52,-12.18,-3.52,-12.18,6.00,7.16,3.35,2.48,2.48,8.66
21.66,-3.37,-12.04,-3.37,-12.04,6.00,7.13,3.44,2.63,2.63,8.67
21.87,-3.22,-11.90,-3.22,-11.91,6.00,7.09,3.54,2.78,2.78,8.68
22.09,-3.09,-11.78,-3.09,-11.78,6.00,7.05,3.64,2.91,2.91,8.69
22.31,-2.98,-11.68,-2.97,-11.67,6.00,7.01,3.75,3.02,3.03,8.70
22.54,-2.86,-11.56,-2.86,-11.56,6.00,6.97,3.85,3.14,3.14,8.70
22.76,-2.75,-11.45,-2.75,-11.45,6.00,6.93,3.96,3.25,3.25,8.70
22.99,-2.64,-11.34,-2.63,-11.33,6.00,6.89,4.08,3.36,3.37,8.70
23.22,-2.49,-11.20,-2.49,-11.20,6.00,6.85,4.19,3.51,3.51,8.71
23.45,-2.34,-11.05,-2.34,-11.05,6.00,6.81,4.31,3.66,3.66,8.71
23.69,-2.19,-10.91,-2.19,-10.91,6.00,6.77,4.43,3.81,3.81,8.72
23.92,-2.05,-10.77,-2.05,-10.77,6.00,6.73,4.55,3.95,3.95,8.72
24.16,-1.93,-10.66,-1.93,-10.66,6.00,6.69,4.68,4.07,4.07,8.73
24.40,-1.83,-10.55,-1.83,-10.55,6.00,6.65,4.81,4.17,4.17,8.73
24.65,-1.73,-10.45,-1.73,-10.45,6.00,6.61,4.94,4.27,4.27,8.72
24.89,-1.62,-10.33,-1.62,-10.33,6.00,6.56,5.07,4.38,4.38,8.72
25.14,-1.51,-10.22,-1.50,-10.21,6.00,6.52,5.20,4.49,4.50,8.71
25.39,-1.38,-10.08,-1.38,-10.09,6.00,6.48,5.33,4.62,4.62,8.70
25.65,-1.25,-9.95,-1.25,-9.95,6.00,6.44,5.47,4.75,4.75,8.70
25.91,-1.13,-9.82,-1.13,-9.82,6.00,6.40,5.60,4.87,4.87,8.69
26.16,-1.01,-9.69,-1.01,-9.70,6.00,6.36,5.74,4.99,4.99,8.68
26.43,-0.91,-9.59,-0.91,-9.59,6.00,6.32,5.87,5.09,5.09,8.68
26.69,-0.81,-9.48,-0.81,-9.48,6.00,6.28,6.00,5.19,5.19,8.67
26.96,-0.71,-9.38,-0.70,-9.37,6.00,6.24,6.13,5.29,5.30,8.67
27.23,-0.58,-9.24,-0.58,-9.24,6.00,6.21,6.26,5.42,5.42,8.66
27.50,-0.44,-9.10,-0.44,-9.10,6.00,6.17,6.38,5.56,5.56,8.66
27.77,-0.30,-8.93,-0.30,-8.95,6.00,6.13,6.50,5.70,5.70,8.64
28.05,-0.17,-8.80,-0.16,-8.80,6.00,6.10,6.61,5.83,5.84,8.64
28.33,-0.03,-8.65,-0.03,-8.66,6.00,6.06,6.72,5.97,5.97,8.63
28.62,0.10,-8.52,0.10,-8.52,6.00,6.03,6.82,6.10,6.10,8.61
28.90,0.23,-8.38,0.23,-8.38,6.00,6.00,6.91,6.23,6.23,8.61
29.19,0.36,-8.24,0.36,-8.25,6.00,5.97,6.99,6.36,6.36,8.60
29.48,0.49,-8.12,0.49,-8.11,6.00,5.95,7.06,6.49,6.49,8.61
29.78,0.62,-7.98,0.62,-7.98,6.00,5.92,7.12,6.62,6.62,8.60
30.08,0.75,-7.84,0.75,-7.84,6.00,5.90,7.17,6.75,6.75,8.59
30.38,0.87,-7.71,0.87,-7.71,6.00,5.88,7.20,6.87,6.87,8.58
30.68,0.99,-7.59,0.99,-7.58,6.00,5.87,7.22,6.99,6.99,8.58
30.99,1.11,-7.46,1.10,-7.46,6.00,5.86,7.23,7.11,7.10,8.57
31.30,1.21,-7.35,1.20,-7.36,6.00,5.85,7.22,7.21,7.20,8.56
31.61,1.30,-7.26,1.30,-7.25,6.00,5.84,7.21,7.30,7.30,8.56
31.93,1.40,-7.15,1.41,-7.14,6.00,5.84,7.17,7.40,7.41,8.55
32.24,1.53,-7.00,1.53,-7.01,6.00,5.84,7.13,7.53,7.53,8.53
32.57,1.67,-6.86,1.67,-6.86,6.00,5.85,7.06,7.67,7.67,8.53
32.89,1.81,-6.72,1.82,-6.71,6.01,5.85,6.99,7.82,7.83,8.54
33.22,1.97,-6.55,1.97,-6.55,6.02,5.85,6.90,8.00,8.00,8.52
33.55,2.12,-6.40,2.13,-6.39,6.03,5.84,6.81,8.15,8.16,8.52
33.89,2.28,-6.23,2.26,-6.25,6.02,5.83,6.70,8.30,8.28,8.51
34.23,2.37,-6.14,2.36,-6.15,5.99,5.81,6.59,8.36,8.35,8.51
34.57,2.43,-6.07,2.43,-6.07,5.94,5.78,6.46,8.37,8.37,8.50
34.92,2.49,-6.00,2.52,-5.98,5.87,5.73,6.33,8.36,8.39,8.49
35.27,2.64,-5.85,2.65,-5.84,5.79,5.67,6.19,8.42,8.44,8.49
35.62,2.82,-5.66,2.81,-5.67,5.68,5.59,6.05,8.50,8.50,8.48
35.97,3.00,-5.48,2.97,-5.51,5.57,5.49,5.90,8.57,8.54,8.48
36.33,3.09,-5.38,3.09,-5.38,5.45,5.39,5.75,8.54,8.54,8.48
36.70,3.18,-5.28,3.19,-5.27,5.31,5.27,5.60,8.49,8.50,8.46
37.06,3.27,-5.18,3.27,-5.18,5.17,5.14,5.44,8.45,8.45,8.45
37.43,3.37,-5.08,3.37,-5.08,5.04,5.01,5.28,8.41,8.41,8.45
37.81,3.47,-4.96,3.48,-4.96,4.91,4.88,5.12,8.38,8.39,8.43
38.19,3.60,-4.82,3.61,-4.82,4.79,4.74,4.96,8.39,8.40,8.42
38.57,3.75,-4.67,3.75,-4.66,4.67,4.60,4.80,8.42,8.43,8.42
38.95,3.91,-4.49,3.89,-4.51,4.55,4.47,4.64,8.46,8.44,8.41
39.34,4.01,-4.38,4.01,-4.38,4.43,4.34,4.48,8.44,8.44,8.39
39.74,4.10,-4.28,4.11,-4.28,4.30,4.21,4.32,8.40,8.40,8.38
40.14,4.19,-4.20,4.18,-4.19,4.17,4.09,4.16,8.36,8.36,8.39
40.54,4.28,-4.09,4.28,-4.10,4.06,3.97,4.01,8.34,8.33,8.37
40.94,4.37,-4.00,4.40,-3.97,3.95,3.85,3.85,8.32,8.34,8.37
41.35,4.53,-3.82,4.54,-3.82,3.84,3.73,3.70,8.37,8.38,8.35
41.76,4.69,-3.66,4.67,-3.67,3.73,3.62,3.55,8.42,8.40,8.35
42.18,4.80,-3.54,4.76,-3.58,3.60,3.51,3.40,8.40,8.36,8.34
42.60,4.82,-3.50,4.83,-3.50,3.46,3.41,3.26,8.28,8.28,8.32
43.03,4.85,-3.46,4.91,-3.39,3.32,3.30,3.11,8.17,8.23,8.31
43.46,5.05,-3.23,5.05,-3.23,3.18,3.20,2.97,8.24,8.23,8.28
43.90,5.25,-3.00,5.22,-3.04,3.05,3.10,2.83,8.30,8.27,8.25
44.33,5.37,-2.85,5.37,-2.85,2.92,3.00,2.69,8.29,8.30,8.22
44.78,5.47,-2.73,5.47,-2.73,2.79,2.90,2.55,8.26,8.25,8.20
45.23,5.54,-2.63,5.52,-2.65,2.65,2.80,2.42,8.19,8.17,8.17
45.68,5.57,-2.58,5.58,-2.57,2.52,2.70,2.29,8.09,8.11,8.15
46.13,5.64,-2.49,5.69,-2.45,2.41,2.61,2.16,8.05,8.10,8.13
46.60,5.82,-2.31,5.81,-2.31,2.31,2.51,2.03,8.13,8.12,8.12
47.06,5.98,-2.13,5.93,-2.18,2.21,2.41,1.90,8.19,8.14,8.11
47.53,6.01,-2.08,6.01,-2.09,2.12,2.32,1.78,8.13,8.13,8.09
48.01,6.03,-2.06,6.06,-2.03,2.02,2.22,1.65,8.05,8.08,8.10
48.49,6.12,-1.97,6.12,-1.97,1.93,2.13,1.53,8.05,8.05,8.09
48.97,6.21,-1.86,6.22,-1.86,1.85,2.03,1.41,8.06,8.07,8.07
49.46,6.32,-1.74,6.32,-1.74,1.77,1.93,1.30,8.09,8.10,8.06
49.96,6.43,-1.64,6.40,-1.67,1.70,1.84,1.18,8.13,8.10,8.07
50.46,6.46,-1.62,6.46,-1.62,1.62,1.74,1.07,8.08,8.08,8.08
50.96,6.48,-1.60,6.51,-1.57,1.54,1.65,0.95,8.02,8.05,8.08
51.47,6.57,-1.50,6.57,-1.51,1.46,1.55,0.85,8.03,8.03,8.07
51.99,6.66,-1.40,6.67,-1.39,1.38,1.45,0.74,8.04,8.06,8.06
52.51,6.78,-1.28,6.78,-1.28,1.30,1.35,0.63,8.08,8.08,8.06
53.03,6.89,-1.15,6.85,-1.20,1.22,1.25,0.53,8.11,8.07,8.04
53.56,6.89,-1.13,6.90,-1.13,1.13,1.15,0.43,8.02,8.03,8.02
54.10,6.91,-1.09,6.96,-1.04,1.04,1.05,0.33,7.95,8.00,8.00
54.64,7.04,-0.93,7.02,-0.96,0.95,0.95,0.23,7.99,7.96,7.97
55.18,7.12,-0.82,7.08,-0.86,0.85,0.85,0.13,7.98,7.94,7.94
55.74,7.12,-0.79,7.16,-0.76,0.77,0.75,0.04,7.89,7.92,7.91
56.29,7.19,-0.70,7.22,-0.67,0.68,0.64,-0.05,7.87,7.90,7.89
56.86,7.32,-0.54,7.27,-0.58,0.58,0.53,-0.13,7.90,7.86,7.86
57.42,7.35,-0.47,7.34,-0.48,0.49,0.43,-0.22,7.84,7.83,7.82
58.00,7.35,-0.43,7.41,-0.38,0.39,0.32,-0.30,7.74,7.80,7.78
58.58,7.48,-0.27,7.47,-0.29,0.29,0.21,-0.38,7.77,7.75,7.75
59.16,7.58,-0.15,7.53,-0.19,0.18,0.10,-0.45,7.76,7.71,7.73
59.76,7.58,-0.11,7.61,-0.08,0.06,-0.01,-0.53,7.64,7.67,7.69
60.35,7.66,0.01,7.68,0.03,-0.06,-0.13,-0.60,7.60,7.62,7.65
60.96,7.79,0.17,7.79,0.19,-0.19,-0.24,-0.66,7.60,7.61,7.62
61.57,7.93,0.37,7.91,0.34,-0.32,-0.35,-0.72,7.61,7.59,7.56
62.18,8.03,0.51,8.00,0.47,-0.45,-0.47,-0.78,7.58,7.55,7.52
62.80,8.03,0.54,8.08,0.59,-0.58,-0.58,-0.84,7.45,7.49,7.49
63.43,8.13,0.69,8.15,0.70,-0.71,-0.70,-0.89,7.42,7.44,7.44
64.07,8.26,0.84,8.22,0.81,-0.82,-0.81,-0.94,7.44,7.39,7.42
64.71,8.30,0.92,8.32,0.94,-0.93,-0.93,-0.99,7.37,7.39,7.38
65.35,8.37,1.02,8.39,1.05,-1.03,-1.04,-1.04,7.35,7.37,7.35
66.01,8.49,1.18,8.45,1.13,-1.12,-1.14,-1.08,7.37,7.33,7.31
66.67,8.49,1.20,8.50,1.21,-1.20,-1.25,-1.12,7.29,7.29,7.29
67.33,8.52,1.26,8.55,1.28,-1.29,-1.35,-1.16,7.23,7.26,7.26
68.01,8.59,1.35,8.60,1.35,-1.37,-1.44,-1.19,7.22,7.22,7.24
68.69,8.68,1.46,8.65,1.43,-1.45,-1.53,-1.23,7.23,7.20,7.22
69.37,8.72,1.52,8.72,1.52,-1.52,-1.62,-1.26,7.20,7.20,7.20
70.07,8.74,1.56,8.79,1.61,-1.60,-1.69,-1.29,7.14,7.20,7.18
70.77,8.89,1.72,8.86,1.69,-1.68,-1.76,-1.32,7.21,7.18,7.17
71.48,8.94,1.79,8.90,1.75,-1.76,-1.82,-1.34,7.18,7.14,7.15
72.19,8.94,1.81,8.95,1.82,-1.85,-1.88,-1.37,7.10,7.11,7.13
72.91,8.94,1.84,9.00,1.89,-1.92,-1.93,-1.40,7.02,7.08,7.11
73.64,9.09,2.01,9.07,1.98,-1.98,-1.97,-1.42,7.11,7.08,7.08
74.38,9.17,2.10,9.14,2.08,-2.04,-2.01,-1.45,7.13,7.10,7.07
75.12,9.17,2.13,9.18,2.14,-2.08,-2.05,-1.48,7.09,7.10,7.04
75.87,9.17,2.16,9.18,2.16,-2.13,-2.08,-1.50,7.04,7.05,7.01
76.63,9.17,2.17,9.17,2.18,-2.18,-2.11,-1.53,6.99,6.99,7.00
77.40,9.17,2.19,9.15,2.18,-2.23,-2.13,-1.55,6.94,6.93,6.98
78.17,9.17,2.21,9.17,2.21,-2.27,-2.16,-1.58,6.90,6.90,6.96
78.95,9.17,2.21,9.23,2.27,-2.31,-2.18,-1.61,6.86,6.92,6.96
79.74,9.34,2.39,9.30,2.35,-2.35,-2.20,-1.64,7.00,6.96,6.95
80.54,9.40,2.46,9.37,2.43,-2.38,-2.23,-1.67,7.02,6.99,6.95
81.35,9.40,2.46,9.41,2.47,-2.41,-2.25,-1.70,6.99,7.00,6.94
82.16,9.40,2.46,9.41,2.46,-2.44,-2.27,-1.73,6.96,6.97,6.94
82.98,9.40,2.45,9.40,2.45,-2.46,-2.29,-1.77,6.94,6.94,6.95
83.81,9.40,2.45,9.40,2.45,-2.46,-2.31,-1.80,6.94,6.94,6.95
84.65,9.40,2.44,9.40,2.44,-2.45,-2.34,-1.84,6.95,6.95,6.96
85.50,9.40,2.42,9.40,2.43,-2.43,-2.36,-1.88,6.97,6.97,6.98
86.35,9.40,2.42,9.40,2.42,-2.42,-2.38,-1.91,6.98,6.98,6.98
87.22,9.40,2.40,9.40,2.40,-2.40,-2.40,-1.96,7.00,7.00,7.00
88.09,9.40,2.40,9.40,2.39,-2.39,-2.42,-2.00,7.01,7.01,7.01
88.97,9.40,2.38,9.40,2.38,-2.37,-2.45,-2.04,7.03,7.03,7.02
89.86,9.40,2.36,9.40,2.37,-2.36,-2.47,-2.09,7.04,7.04,7.04
90.76,9.40,2.37,9.40,2.36,-2.35,-2.49,-2.14,7.05,7.05,7.03
91.66,9.40,2.36,9.40,2.36,-2.36,-2.51,-2.19,7.04,7.04,7.05
92.58,9.40,2.36,9.39,2.35,-2.37,-2.53,-2.24,7.03,7.02,7.04
93.51,9.40,2.35,9.39,2.34,-2.40,-2.55,-2.29,7.00,6.99,7.05
94.44,9.40,2.34,9.44,2.39,-2.43,-2.57,-2.35,6.97,7.01,7.06
95.39,9.50,2.45,9.51,2.46,-2.46,-2.59,-2.40,7.04,7.05,7.05
96.34,9.63,2.59,9.58,2.54,-2.50,-2.61,-2.46,7.13,7.08,7.04
97.30,9.63,2.59,9.63,2.59,-2.54,-2.63,-2.52,7.09,7.10,7.04
98.28,9.63,2.59,9.64,2.61,-2.57,-2.65,-2.58,7.06,7.07,7.04
99.26,9.63,2.60,9.63,2.60,-2.60,-2.67,-2.64,7.03,7.03,7.03
100.25,9.63,2.61,9.63,2.61,-2.62,-2.69,-2.70,7.01,7.01,7.02
101.25,9.63,2.62,9.63,2.62,-2.63,-2.71,-2.76,7.00,7.00,7.01
102.27,9.63,2.63,9.63,2.63,-2.64,-2.73,-2.83,6.99,6.99,7.00
103.29,9.63,2.65,9.63,2.65,-2.66,-2.75,-2.89,6.97,6.97,6.98
104.32,9.63,2.67,9.63,2.67,-2.68,-2.77,-2.95,6.95,6.95,6.96
105.37,9.63,2.70,9.63,2.70,-2.70,-2.79,-3.02,6.93,6.93,6.93
106.42,9.63,2.73,9.63,2.74,-2.74,-2.82,-3.08,6.89,6.89,6.90
107.48,9.63,2.78,9.63,2.78,-2.78,-2.84,-3.14,6.85,6.85,6.85
108.56,9.63,2.83,9.63,2.82,-2.82,-2.87,-3.20,6.81,6.81,6.80
109.64,9.63,2.86,9.63,2.87,-2.86,-2.89,-3.27,6.77,6.77,6.77
110.74,9.63,2.91,9.63,2.91,-2.91,-2.92,-3.32,6.72,6.72,6.72
111.85,9.63,2.95,9.63,2.96,-2.96,-2.95,-3.38,6.67,6.67,6.68
112.97,9.63,3.02,9.63,3.01,-3.01,-2.98,-3.43,6.62,6.62,6.61
114.10,9.63,3.06,9.63,3.06,-3.06,-3.01,-3.49,6.57,6.57,6.58
115.24,9.63,3.11,9.63,3.11,-3.11,-3.05,-3.54,6.52,6.52,6.52
116.39,9.63,3.16,9.63,3.16,-3.16,-3.08,-3.58,6.47,6.47,6.47
117.55,9.63,3.21,9.63,3.20,-3.21,-3.11,-3.62,6.42,6.42,6.42
118.73,9.63,3.24,9.63,3.24,-3.25,-3.15,-3.66,6.38,6.38,6.39
119.92,9.63,3.27,9.63,3.27,-3.28,-3.19,-3.70,6.35,6.35,6.36
121.12,9.63,3.30,9.63,3.30,-3.30,-3.22,-3.73,6.33,6.33,6.33
122.33,9.63,3.33,9.65,3.34,-3.30,-3.26,-3.75,6.33,6.34,6.30
123.55,9.63,3.35,9.63,3.35,-3.30,-3.29,-3.78,6.33,6.33,6.29
124.79,9.63,3.37,9.58,3.31,-3.29,-3.33,-3.79,6.34,6.29,6.26
126.03,9.47,3.23,9.51,3.27,-3.28,-3.37,-3.80,6.19,6.23,6.24
127.29,9.42,3.20,9.44,3.22,-3.26,-3.40,-3.81,6.16,6.17,6.22
128.57,9.40,3.21,9.39,3.20,-3.25,-3.43,-3.81,6.15,6.14,6.19
129.85,9.40,3.23,9.40,3.23,-3.25,-3.47,-3.81,6.15,6.15,6.17
131.15,9.40,3.26,9.40,3.25,-3.25,-3.50,-3.81,6.15,6.15,6.14
132.46,9.40,3.28,9.40,3.28,-3.26,-3.53,-3.80,6.14,6.14,6.12
133.79,9.40,3.29,9.40,3.29,-3.29,-3.56,-3.78,6.11,6.11,6.11
135.12,9.40,3.32,9.40,3.31,-3.32,-3.58,-3.76,6.08,6.08,6.08
136.48,9.40,3.33,9.40,3.34,-3.35,-3.61,-3.74,6.05,6.05,6.07
137.84,9.40,3.36,9.40,3.37,-3.37,-3.63,-3.72,6.03,6.03,6.04
139.22,9.40,3.40,9.40,3.39,-3.38,-3.66,-3.70,6.02,6.02,6.00
140.61,9.40,3.42,9.42,3.43,-3.38,-3.67,-3.67,6.02,6.04,5.98
142.02,9.40,3.43,9.39,3.42,-3.37,-3.69,-3.64,6.03,6.02,5.97
143.44,9.39,3.44,9.33,3.39,-3.36,-3.71,-3.61,6.03,5.97,5.95
144.87,9.21,3.29,9.26,3.34,-3.36,-3.73,-3.57,5.85,5.90,5.92
146.32,9.18,3.30,9.20,3.31,-3.35,-3.74,-3.54,5.83,5.84,5.88
147.78,9.17,3.31,9.16,3.30,-3.36,-3.75,-3.51,5.81,5.80,5.86
149.26,9.17,3.35,9.17,3.35,-3.38,-3.76,-3.47,5.80,5.79,5.82
150.75,9.17,3.40,9.17,3.40,-3.40,-3.77,-3.44,5.77,5.77,5.77
152.26,9.17,3.46,9.17,3.46,-3.45,-3.78,-3.41,5.72,5.72,5.71
153.78,9.17,3.52,9.17,3.52,-3.51,-3.78,-3.38,5.66,5.66,5.65
155.32,9.17,3.58,9.17,3.58,-3.58,-3.78,-3.35,5.59,5.59,5.59
156.88,9.17,3.64,9.17,3.64,-3.65,-3.79,-3.32,5.52,5.52,5.53
158.44,9.17,3.70,9.17,3.70,-3.71,-3.79,-3.29,5.46,5.46,5.47
160.03,9.17,3.76,9.17,3.75,-3.75,-3.79,-3.26,5.42,5.42,5.41
161.63,9.17,3.80,9.19,3.82,-3.77,-3.78,-3.24,5.40,5.41,5.37
163.24,9.17,3.85,9.17,3.84,-3.79,-3.78,-3.22,5.38,5.38,5.32
164.88,9.17,3.88,9.11,3.82,-3.79,-3.77,-3.20,5.38,5.32,5.29
166.53,8.99,3.73,9.03,3.78,-3.79,-3.77,-3.18,5.21,5.25,5.26
168.19,8.94,3.71,8.97,3.73,-3.77,-3.76,-3.16,5.17,5.19,5.23
169.87,8.94,3.73,8.93,3.71,-3.76,-3.75,-3.15,5.18,5.17,5.21
171.57,8.94,3.73,8.94,3.73,-3.74,-3.74,-3.14,5.20,5.19,5.21
173.29,8.94,3.73,8.94,3.73,-3.73,-3.73,-3.13,5.21,5.21,5.21
175.02,8.94,3.73,8.94,3.73,-3.72,-3.71,-3.12,5.22,5.22,5.21
176.77,8.94,3.73,8.94,3.73,-3.72,-3.70,-3.12,5.22,5.22,5.21
178.54,8.94,3.73,8.94,3.73,-3.72,-3.68,-3.12,5.22,5.22,5.21
180.32,8.94,3.73,8.94,3.73,-3.73,-3.67,-3.12,5.22,5.22,5.22
182.13,8.94,3.72,8.94,3.72,-3.73,-3.65,-3.12,5.21,5.21,5.22
183.95,8.94,3.72,8.94,3.72,-3.73,-3.63,-3.13,5.21,5.21,5.22
185.79,8.94,3.72,8.94,3.73,-3.73,-3.61,-3.13,5.21,5.21,5.22
187.65,8.94,3.74,8.94,3.74,-3.74,-3.59,-3.14,5.20,5.20,5.20
189.52,8.94,3.76,8.94,3.75,-3.76,-3.57,-3.16,5.18,5.18,5.19
191.42,8.94,3.77,8.94,3.77,-3.78,-3.55,-3.17,5.17,5.17,5.17
193.33,8.94,3.78,8.94,3.78,-3.79,-3.52,-3.19,5.15,5.15,5.16
195.27,8.94,3.79,8.94,3.79,-3.80,-3.50,-3.21,5.14,5.14,5.15
197.22,8.94,3.80,8.94,3.81,-3.80,-3.47,-3.23,5.14,5.14,5.14
199.19,8.94,3.84,8.95,3.84,-3.80,-3.45,-3.25,5.14,5.15,5.11
201.18,8.94,3.85,8.93,3.83,-3.78,-3.42,-3.28,5.16,5.14,5.09
203.19,8.90,3.82,8.87,3.79,-3.77,-3.40,-3.30,5.13,5.10,5.08
205.23,8.78,3.72,8.80,3.73,-3.75,-3.37,-3.33,5.03,5.05,5.06
207.28,8.72,3.67,8.74,3.69,-3.74,-3.34,-3.35,4.98,5.01,5.05
209.35,8.72,3.69,8.71,3.68,-3.72,-3.31,-3.38,5.00,4.99,5.03
211.44,8.72,3.72,8.72,3.70,-3.71,-3.28,-3.41,5.01,5.00,5.01
213.56,8.72,3.72,8.72,3.72,-3.71,-3.25,-3.44,5.01,5.01,5.00
215.69,8.72,3.72,8.72,3.73,-3.72,-3.22,-3.47,5.00,5.00,5.00
217.85,8.72,3.74,8.72,3.74,-3.74,-3.19,-3.49,4.98,4.98,4.98
220.03,8.72,3.76,8.72,3.76,-3.76,-3.16,-3.52,4.96,4.96,4.96
222.23,8.72,3.78,8.72,3.77,-3.78,-3.13,-3.54,4.94,4.94,4.94
224.45,8.72,3.77,8.72,3.78,-3.78,-3.10,-3.57,4.94,4.94,4.95
226.70,8.72,3.78,8.72,3.78,-3.77,-3.07,-3.59,4.95,4.96,4.94
228.96,8.72,3.78,8.74,3.79,-3.74,-3.04,-3.61,4.98,4.99,4.94
231.25,8.72,3.77,8.70,3.76,-3.72,-3.00,-3.62,5.00,4.98,4.95
233.57,8.68,3.74,8.63,3.69,-3.68,-2.97,-3.64,5.00,4.95,4.94
235.90,8.50,3.57,8.56,3.62,-3.65,-2.94,-3.65,4.85,4.91,4.93
238.26,8.49,3.55,8.50,3.56,-3.62,-2.90,-3.66,4.87,4.88,4.94
240.64,8.49,3.55,8.47,3.53,-3.59,-2.87,-3.66,4.90,4.89,4.94
243.05,8.49,3.54,8.49,3.53,-3.55,-2.83,-3.66,4.94,4.94,4.96
245.48,8.49,3.52,8.50,3.53,-3.51,-2.80,-3.65,4.98,4.99,4.97
247.93,8.49,3.51,8.50,3.52,-3.47,-2.77,-3.64,5.02,5.03,4.98
250.41,8.49,3.50,8.47,3.47,-3.43,-2.73,-3.63,5.06,5.04,4.99
252.92,8.44,3.43,8.41,3.39,-3.38,-2.70,-3.61,5.06,5.02,5.01
255.45,8.29,3.25,8.34,3.30,-3.33,-2.66,-3.59,4.96,5.01,5.04
258.00,8.26,3.20,8.29,3.24,-3.26,-2.63,-3.56,5.00,5.03,5.06
260.58,8.26,3.20,8.23,3.17,-3.19,-2.59,-3.53,5.07,5.05,5.06
263.19,8.24,3.15,8.18,3.10,-3.10,-2.56,-3.50,5.14,5.08,5.09
265.82,8.05,2.95,8.12,3.01,-3.01,-2.52,-3.46,5.04,5.11,5.10
268.48,8.03,2.91,8.07,2.94,-2.91,-2.48,-3.41,5.12,5.16,5.12
271.16,8.03,2.89,7.98,2.84,-2.80,-2.45,-3.37,5.23,5.18,5.15
273.87,7.95,2.79,7.88,2.72,-2.69,-2.41,-3.32,5.26,5.19,5.16
276.61,7.69,2.50,7.75,2.57,-2.57,-2.38,-3.27,5.12,5.18,5.19
279.38,7.59,2.39,7.64,2.43,-2.45,-2.34,-3.21,5.14,5.19,5.20
282.17,7.58,2.35,7.54,2.31,-2.33,-2.31,-3.16,5.25,5.20,5.23
284.99,7.52,2.26,7.48,2.22,-2.23,-2.27,-3.10,5.29,5.24,5.26
287.84,7.36,2.08,7.41,2.13,-2.14,-2.24,-3.04,5.22,5.27,5.29
290.72,7.35,2.04,7.36,2.05,-2.07,-2.20,-2.98,5.28,5.29,5.31
293.63,7.35,2.02,7.34,2.00,-2.01,-2.16,-2.91,5.34,5.33,5.33
296.57,7.35,1.98,7.35,1.99,-1.97,-2.13,-2.85,5.38,5.38,5.37
299.53,7.35,1.97,7.35,1.97,-1.94,-2.09,-2.79,5.41,5.41,5.38
302.53,7.35,1.96,7.35,1.95,-1.93,-2.06,-2.72,5.42,5.42,5.39
305.55,7.35,1.92,7.34,1.92,-1.94,-2.02,-2.66,5.41,5.40,5.43
308.61,7.35,1.91,7.35,1.91,-1.95,-1.99,-2.60,5.40,5.40,5.44
311.69,7.35,1.89,7.40,1.94,-1.98,-1.95,-2.54,5.37,5.42,5.46
314.81,7.49,2.01,7.47,1.99,-2.00,-1.92,-2.47,5.49,5.47,5.48
317.96,7.57,2.08,7.54,2.05,-2.02,-1.88,-2.41,5.55,5.52,5.49
321.14,7.58,2.09,7.59,2.10,-2.05,-1.85,-2.35,5.53,5.54,5.49
324.35,7.58,2.09,7.59,2.09,-2.07,-1.81,-2.29,5.51,5.52,5.49
327.59,7.58,2.08,7.58,2.08,-2.09,-1.78,-2.24,5.49,5.49,5.50
330.87,7.58,2.07,7.58,2.07,-2.10,-1.74,-2.18,5.48,5.48,5.51
334.18,7.58,2.07,7.58,2.06,-2.08,-1.71,-2.12,5.50,5.50,5.51
337.52,7.58,2.05,7.59,2.06,-2.05,-1.67,-2.07,5.53,5.54,5.53
340.90,7.58,2.03,7.59,2.04,-2.00,-1.64,-2.02,5.58,5.59,5.55
344.30,7.58,2.01,7.56,1.99,-1.95,-1.60,-1.97,5.63,5.61,5.57
347.75,7.52,1.94,7.50,1.91,-1.90,-1.57,-1.92,5.63,5.60,5.58
351.23,7.39,1.79,7.42,1.82,-1.84,-1.53,-1.87,5.55,5.58,5.60
354.74,7.35,1.73,7.36,1.74,-1.79,-1.50,-1.82,5.56,5.58,5.62
358.28,7.35,1.70,7.34,1.69,-1.74,-1.46,-1.78,5.61,5.60,5.65
361.87,7.35,1.68,7.35,1.68,-1.69,-1.43,-1.73,5.66,5.66,5.67
365.49,7.35,1.65,7.35,1.66,-1.65,-1.39,-1.69,5.70,5.70,5.70
369.14,7.35,1.64,7.35,1.64,-1.63,-1.36,-1.65,5.72,5.72,5.71
372.83,7.35,1.63,7.35,1.62,-1.61,-1.32,-1.61,5.74,5.74,5.73
376.56,7.35,1.61,7.35,1.60,-1.60,-1.29,-1.57,5.75,5.75,5.74
380.33,7.35,1.58,7.35,1.58,-1.59,-1.26,-1.54,5.76,5.76,5.77
384.13,7.35,1.56,7.35,1.57,-1.58,-1.22,-1.50,5.77,5.77,5.79
387.97,7.35,1.56,7.35,1.55,-1.57,-1.19,-1.47,5.78,5.78,5.79
391.85,7.35,1.55,7.35,1.55,-1.56,-1.15,-1.43,5.79,5.79,5.80
395.77,7.35,1.53,7.35,1.54,-1.53,-1.12,-1.40,5.82,5.82,5.82
399.73,7.35,1.52,7.36,1.54,-1.50,-1.08,-1.37,5.85,5.87,5.83
403.72,7.35,1.51,7.35,1.51,-1.46,-1.05,-1.34,5.89,5.89,5.84
407.76,7.35,1.50,7.30,1.45,-1.42,-1.01,-1.31,5.93,5.88,5.85
411.84,7.21,1.36,7.23,1.37,-1.38,-0.98,-1.28,5.83,5.85,5.86
415.96,7.13,1.27,7.16,1.30,-1.34,-0.95,-1.25,5.79,5.82,5.86
420.12,7.12,1.25,7.11,1.24,-1.30,-0.91,-1.22,5.82,5.81,5.87
424.32,7.12,1.25,7.11,1.24,-1.28,-0.88,-1.20,5.84,5.84,5.87
428.56,7.12,1.24,7.12,1.24,-1.25,-0.84,-1.17,5.87,5.87,5.88
432.85,7.12,1.24,7.12,1.24,-1.23,-0.81,-1.14,5.89,5.89,5.88
437.18,7.12,1.23,7.12,1.23,-1.21,-0.77,-1.11,5.91,5.91,5.89
441.55,7.12,1.22,7.14,1.24,-1.18,-0.74,-1.08,5.94,5.95,5.90
445.96,7.12,1.21,7.12,1.21,-1.15,-0.70,-1.05,5.97,5.96,5.91
450.42,7.12,1.21,7.06,1.14,-1.12,-0.66,-1.02,6.01,5.94,5.91
454.93,6.94,1.01,6.98,1.06,-1.07,-0.63,-0.99,5.87,5.91,5.93
459.48,6.89,0.96,6.92,0.98,-1.03,-0.59,-0.96,5.86,5.89,5.93
464.07,6.89,0.94,6.88,0.93,-0.99,-0.55,-0.92,5.91,5.89,5.95
468.71,6.89,0.92,6.89,0.93,-0.95,-0.52,-0.89,5.94,5.94,5.97
473.40,6.89,0.92,6.89,0.92,-0.91,-0.48,-0.85,5.98,5.98,5.97
478.13,6.89,0.90,6.89,0.91,-0.89,-0.44,-0.81,6.00,6.00,5.99
482.91,6.89,0.89,6.89,0.89,-0.87,-0.41,-0.77,6.02,6.02,6.00
487.74,6.89,0.87,6.89,0.86,-0.86,-0.37,-0.73,6.03,6.03,6.03
492.62,6.89,0.84,6.89,0.84,-0.85,-0.33,-0.69,6.04,6.04,6.06
497.55,6.89,0.82,6.89,0.82,-0.83,-0.29,-0.64,6.06,6.06,6.07
502.52,6.89,0.80,6.89,0.80,-0.80,-0.25,-0.60,6.09,6.09,6.09
507.55,6.89,0.78,6.90,0.78,-0.76,-0.21,-0.55,6.13,6.14,6.11
512.62,6.89,0.75,6.90,0.76,-0.71,-0.17,-0.50,6.18,6.19,6.14
517.75,6.89,0.72,6.87,0.70,-0.67,-0.13,-0.44,6.22,6.20,6.17
522.93,6.83,0.64,6.80,0.61,-0.62,-0.08,-0.39,6.21,6.18,6.19
528.16,6.69,0.48,6.73,0.52,-0.56,-0.04,-0.33,6.13,6.17,6.21
533.44,6.66,0.43,6.67,0.44,-0.49,0.00,-0.27,6.17,6.18,6.23
538.77,6.66,0.41,6.67,0.41,-0.41,0.05,-0.21,6.25,6.26,6.25
544.16,6.66,0.39,6.66,0.39,-0.32,0.09,-0.14,6.34,6.34,6.27
