frequency,raw
20.00,-4.42
20.20,-4.36
20.40,-4.32
20.61,-4.26
20.81,-4.21
21.02,-4.16
21.23,-4.12
21.44,-4.10
21.66,-4.07
21.87,-4.05
22.09,-4.02
22.31,-4.01
22.54,-3.98
22.76,-3.96
22.99,-3.94
23.22,-3.92
23.45,-3.89
23.69,-3.87
23.92,-3.85
24.16,-3.83
24.40,-3.83
24.65,-3.80
24.89,-3.79
25.14,-3.76
25.39,-3.74
25.65,-3.72
25.91,-3.70
26.16,-3.66
26.43,-3.64
26.69,-3.61
26.96,-3.59
27.23,-3.57
27.50,-3.56
27.77,-3.54
28.05,-3.51
28.33,-3.50
28.62,-3.47
28.90,-3.46
29.19,-3.44
29.48,-3.41
29.78,-3.38
30.08,-3.36
30.38,-3.35
30.68,-3.33
30.99,-3.30
31.30,-3.29
31.61,-3.27
31.93,-3.26
32.24,-3.26
32.57,-3.24
32.89,-3.22
33.22,-3.20
33.55,-3.19
33.89,-3.18
34.23,-3.18
34.57,-3.16
34.92,-3.16
35.27,-3.15
35.62,-3.14
35.97,-3.14
36.33,-3.12
36.70,-3.12
37.06,-3.11
37.43,-3.09
37.81,-3.08
38.19,-3.07
38.57,-3.05
38.95,-3.03
39.34,-3.01
39.74,-2.99
40.14,-2.96
40.54,-2.94
40.94,-2.90
41.35,-2.86
41.76,-2.83
42.18,-2.79
42.60,-2.75
43.03,-2.72
43.46,-2.67
43.90,-2.63
44.33,-2.58
44.78,-2.54
45.23,-2.48
45.68,-2.45
46.13,-2.39
46.60,-2.35
47.06,-2.30
47.53,-2.26
48.01,-2.22
48.49,-2.19
48.97,-2.15
49.46,-2.11
49.96,-2.08
50.46,-2.03
50.96,-1.99
51.47,-1.96
51.99,-1.93
52.51,-1.90
53.03,-1.87
53.56,-1.83
54.10,-1.80
54.64,-1.79
55.18,-1.76
55.74,-1.74
56.29,-1.72
56.86,-1.70
57.42,-1.68
58.00,-1.67
58.58,-1.67
59.16,-1.66
59.76,-1.66
60.35,-1.65
60.96,-1.66
61.57,-1.65
62.18,-1.65
62.80,-1.64
63.43,-1.65
64.07,-1.65
64.71,-1.65
65.35,-1.65
66.01,-1.65
66.67,-1.64
67.33,-1.63
68.01,-1.64
68.69,-1.62
69.37,-1.61
70.07,-1.60
70.77,-1.59
71.48,-1.58
72.19,-1.56
72.91,-1.55
73.64,-1.54
74.38,-1.52
75.12,-1.50
75.87,-1.48
76.63,-1.46
77.40,-1.44
78.17,-1.41
78.95,-1.39
79.74,-1.36
80.54,-1.33
81.35,-1.30
82.16,-1.28
82.98,-1.26
83.81,-1.23
84.65,-1.22
85.50,-1.19
86.35,-1.18
87.22,-1.17
88.09,-1.15
88.97,-1.14
89.86,-1.14
90.76,-1.13
91.66,-1.14
92.58,-1.14
93.51,-1.14
94.44,-1.15
95.39,-1.16
96.34,-1.18
97.30,-1.20
98.28,-1.21
99.26,-1.22
100.25,-1.24
101.25,-1.26
102.27,-1.29
103.29,-1.31
104.32,-1.34
105.37,-1.37
106.42,-1.41
107.48,-1.44
108.56,-1.47
109.64,-1.51
110.74,-1.56
111.85,-1.60
112.97,-1.65
114.10,-1.71
115.24,-1.75
116.39,-1.81
117.55,-1.88
118.73,-1.94
119.92,-2.01
121.12,-2.09
122.33,-2.16
123.55,-2.22
124.79,-2.30
126.03,-2.36
127.29,-2.42
128.57,-2.48
129.85,-2.53
131.15,-2.60
132.46,-2.64
133.79,-2.69
135.12,-2.74
136.48,-2.79
137.84,-2.85
139.22,-2.88
140.61,-2.92
142.02,-2.95
143.44,-2.99
144.87,-3.02
146.32,-3.05
147.78,-3.08
149.26,-3.09
150.75,-3.13
152.26,-3.15
153.78,-3.16
155.32,-3.18
156.88,-3.19
158.44,-3.21
160.03,-3.22
161.63,-3.23
163.24,-3.22
164.88,-3.22
166.53,-3.22
168.19,-3.22
169.87,-3.22
171.57,-3.20
173.29,-3.19
175.02,-3.17
176.77,-3.16
178.54,-3.13
180.32,-3.11
182.13,-3.09
183.95,-3.06
185.79,-3.03
187.65,-3.00
189.52,-2.98
191.42,-2.94
193.33,-2.90
195.27,-2.88
197.22,-2.84
199.19,-2.80
201.18,-2.75
203.19,-2.71
205.23,-2.67
207.28,-2.62
209.35,-2.57
211.44,-2.51
213.56,-2.46
215.69,-2.42
217.85,-2.37
220.03,-2.33
222.23,-2.28
224.45,-2.24
226.70,-2.20
228.96,-2.16
231.25,-2.13
233.57,-2.09
235.90,-2.06
238.26,-2.01
240.64,-1.99
243.05,-1.95
245.48,-1.93
247.93,-1.90
250.41,-1.85
252.92,-1.83
255.45,-1.80
258.00,-1.77
260.58,-1.72
263.19,-1.69
265.82,-1.66
268.48,-1.63
271.16,-1.59
273.87,-1.57
276.61,-1.53
279.38,-1.50
282.17,-1.47
284.99,-1.44
287.84,-1.43
290.72,-1.39
293.63,-1.37
296.57,-1.35
299.53,-1.34
302.53,-1.31
305.55,-1.30
308.61,-1.29
311.69,-1.28
314.81,-1.26
317.96,-1.25
321.14,-1.24
324.35,-1.24
327.59,-1.22
330.87,-1.22
334.18,-1.21
337.52,-1.20
340.90,-1.19
344.30,-1.18
347.75,-1.17
351.23,-1.16
354.74,-1.16
358.28,-1.22
361.87,-1.29
365.49,-1.35
369.14,-1.41
372.83,-1.46
376.56,-1.51
380.33,-1.58
384.13,-1.63
387.97,-1.68
391.85,-1.74
395.77,-1.79
399.73,-1.84
403.72,-1.89
407.76,-1.94
411.84,-2.00
415.96,-2.02
420.12,-2.07
424.32,-2.11
428.56,-2.15
432.85,-2.19
437.18,-2.22
441.55,-2.24
445.96,-2.27
450.42,-2.24
454.93,-2.22
459.48,-2.18
464.07,-2.15
468.71,-2.12
473.40,-2.09
478.13,-2.05
482.91,-2.02
487.74,-1.99
492.62,-1.95
497.55,-1.91
502.52,-1.88
507.55,-1.85
512.62,-1.81
517.75,-1.77
522.93,-1.73
528.16,-1.69
533.44,-1.64
538.77,-1.60
544.16,-1.57
549.60,-1.52
555.10,-1.48
560.65,-1.44
566.25,-1.39
571.92,-1.34
577.64,-1.31
583.41,-1.27
589.25,-1.23
595.14,-1.21
601.09,-1.18
607.10,-1.15
613.17,-1.13
619.30,-1.10
625.50,-1.08
631.75,-1.07
638.07,-1.05
644.45,-1.03
650.89,-1.01
657.40,-0.99
663.98,-0.98
670.62,-0.96
677.32,-0.94
684.10,-0.93
690.94,-0.91
697.85,-0.89
704.83,-0.87
711.87,-0.86
718.99,-0.83
726.18,-0.82
733.44,-0.79
740.78,-0.77
748.19,-0.76
755.67,-0.73
763.23,-0.72
770.86,-0.71
778.57,-0.70
786.35,-0.70
794.22,-0.70
802.16,-0.69
810.18,-0.70
818.28,-0.69
826.46,-0.69
834.73,-0.68
843.08,-0.66
851.51,-0.66
860.02,-0.65
868.62,-0.62
877.31,-0.60
886.08,-0.58
894.94,-0.55
903.89,-0.53
912.93,-0.49
922.06,-0.45
931.28,-0.42
940.59,-0.36
950.00,-0.31
959.50,-0.27
969.09,-0.21
978.78,-0.14
988.57,-0.08
998.46,-0.02
1008.44,0.05
1018.53,0.12
1028.71,0.17
1039.00,0.24
1049.39,0.30
1059.88,0.35
1070.48,0.39
1081.19,0.42
1092.00,0.46
1102.92,0.48
1113.95,0.50
1125.09,0.51
1136.34,0.51
1147.70,0.52
1159.18,0.50
1170.77,0.50
1182.48,0.49
1194.30,0.49
1206.25,0.47
1218.31,0.46
1230.49,0.44
1242.80,0.43
1255.22,0.44
1267.78,0.44
1280.45,0.44
1293.26,0.46
1306.19,0.49
1319.25,0.51
1332.45,0.56
1345.77,0.60
1359.23,0.65
1372.82,0.72
1386.55,0.78
1400.41,0.86
1414.42,0.92
1428.56,1.00
1442.85,1.08
1457.28,1.16
1471.85,1.25
1486.57,1.33
1501.43,1.42
1516.45,1.51
1531.61,1.59
1546.93,1.70
1562.40,1.80
1578.02,1.91
1593.80,2.03
1609.74,2.15
1625.84,2.29
1642.10,2.42
1658.52,2.56
1675.10,2.73
1691.85,2.90
1708.77,3.09
1725.86,3.27
1743.12,3.46
1760.55,3.66
1778.15,3.85
1795.94,4.03
1813.90,4.20
1832.03,4.35
1850.36,4.47
1868.86,4.55
1887.55,4.58
1906.42,4.55
1925.49,4.47
1944.74,4.34
1964.19,4.11
1983.83,3.84
2003.67,3.53
2023.71,3.19
2043.94,2.86
2064.38,2.52
2085.03,2.25
2105.88,2.04
2126.94,1.91
2148.20,1.87
2169.69,1.93
2191.38,2.07
2213.30,2.27
2235.43,2.55
2257.78,2.86
2280.36,3.20
2303.17,3.55
2326.20,3.91
2349.46,4.26
2372.95,4.60
2396.68,4.92
2420.65,5.23
2444.86,5.53
2469.31,5.79
2494.00,6.04
2518.94,6.27
2544.13,6.50
2569.57,6.70
2595.27,6.89
2621.22,7.07
2647.43,7.23
2673.90,7.39
2700.64,7.53
2727.65,7.67
2754.93,7.80
2782.48,7.91
2810.30,7.99
2838.40,8.06
2866.79,8.11
2895.46,8.11
2924.41,8.10
2953.65,8.05
2983.19,7.96
3013.02,7.86
3043.15,7.76
3073.58,7.61
3104.32,7.43
3135.36,7.17
3166.72,6.71
3198.38,6.11
3230.37,5.39
3262.67,4.60
3295.30,3.86
3328.25,3.22
3361.53,2.75
3395.15,2.54
3429.10,2.50
3463.39,2.64
3498.03,2.91
3533.01,3.17
3568.34,3.44
3604.02,3.44
3640.06,3.29
3676.46,2.98
3713.22,2.49
3750.36,1.98
3787.86,1.47
3825.74,0.98
3864.00,0.59
3902.64,0.25
3941.66,-0.03
3981.08,-0.21
4020.89,-0.38
4061.10,-0.53
4101.71,-0.73
4142.73,-0.95
4184.15,-1.20
4226.00,-1.46
4268.26,-1.67
4310.94,-1.82
4354.05,-1.84
4397.59,-1.74
4441.56,-1.55
4485.98,-1.23
4530.84,-0.90
4576.15,-0.56
4621.91,-0.24
4668.13,-0.07
4714.81,0.03
4761.96,0.03
4809.58,-0.06
4857.67,-0.19
4906.25,-0.34
4955.31,-0.46
5004.87,-0.56
5054.91,-0.65
5105.46,-0.70
5156.52,-0.73
5208.08,-0.74
5260.16,-0.72
5312.77,-0.65
5365.89,-0.56
5419.55,-0.45
5473.75,-0.29
5528.49,-0.11
5583.77,0.07
5639.61,0.33
5696.00,0.63
5752.96,0.94
5810.49,1.31
5868.60,1.72
5927.28,2.15
5986.56,2.59
6046.42,2.99
6106.89,3.36
6167.96,3.63
6229.64,3.75
6291.93,3.76
6354.85,3.62
6418.40,3.28
6482.58,2.88
6547.41,2.38
6612.88,1.85
6679.01,1.33
6745.80,0.83
6813.26,0.40
6881.39,0.04
6950.21,-0.28
7019.71,-0.54
7089.91,-0.74
7160.81,-0.92
7232.41,-1.04
7304.74,-1.10
7377.79,-1.13
7451.56,-1.09
7526.08,-0.95
7601.34,-0.76
7677.35,-0.57
7754.13,-0.33
7831.67,-0.12
7909.98,0.06
7989.08,0.18
8068.98,0.25
8149.67,0.25
8231.16,0.21
8313.47,0.17
8396.61,0.13
8480.57,0.13
8565.38,0.05
8651.03,-0.07
8737.54,-0.26
8824.92,-0.76
8913.17,-1.47
9002.30,-2.36
9092.32,-3.71
9183.25,-5.23
9275.08,-6.80
9367.83,-8.33
9461.51,-9.50
9556.12,-10.34
9651.68,-10.68
9748.20,-10.47
9845.68,-9.99
9944.14,-9.30
10043.58,-8.63
10144.02,-8.11
10245.46,-7.80
10347.91,-7.98
10451.39,-8.46
10555.91,-9.17
10661.46,-10.01
10768.08,-10.70
10875.76,-11.24
10984.52,-11.45
11094.36,-11.23
11205.31,-10.76
11317.36,-9.99
11430.53,-9.01
11544.84,-7.97
11660.29,-6.88
11776.89,-5.86
11894.66,-4.95
12013.60,-4.15
12133.74,-3.59
12255.08,-3.17
12377.63,-2.85
12501.41,-2.66
12626.42,-2.53
12752.68,-2.45
12880.21,-2.38
13009.01,-2.28
13139.10,-2.19
13270.49,-2.15
13403.20,-2.17
13537.23,-2.28
13672.60,-2.48
13809.33,-2.82
13947.42,-3.28
14086.90,-3.85
14227.77,-4.56
14370.04,-5.40
14513.74,-6.32
14658.88,-7.39
14805.47,-8.54
14953.52,-9.68
15103.06,-10.78
15254.09,-11.79
15406.63,-12.60
15560.70,-13.20
15716.30,-13.31
15873.47,-13.08
16032.20,-12.52
16192.52,-11.44
16354.45,-10.23
16517.99,-9.01
16683.17,-7.86
16850.01,-7.08
17018.51,-6.63
17188.69,-6.67
17360.58,-7.13
17534.18,-7.84
17709.53,-8.76
17886.62,-9.79
18065.49,-10.62
18246.14,-11.38
18428.60,-11.87
18612.89,-12.22
18799.02,-12.44
18987.01,-12.52
19176.88,-12.58
19368.65,-12.62
19562.33,-12.74
19757.96,-12.85
19955.54,-12.97
