frequency,raw,error,smoothed,error_smoothed,equalization,parametric_eq,fixed_band_eq,equalized_raw,equalized_smoothed,target
20.00,-9.55,-12.20,-9.56,-12.21,6.00,5.57,2.81,-3.55,-3.56,2.65
20.20,-9.38,-12.04,-9.37,-12.03,6.00,5.61,2.89,-3.38,-3.37,2.66
20.40,-9.21,-11.88,-9.20,-11.86,6.00,5.65,2.97,-3.21,-3.20,2.67
20.61,-9.04,-11.71,-9.03,-11.70,6.00,5.70,3.06,-3.04,-3.03,2.67
20.81,-8.87,-11.55,-8.87,-11.55,6.00,5.74,3.15,-2.87,-2.87,2.68
21.02,-8.71,-11.39,-8.74,-11.42,6.00,5.77,3.24,-2.71,-2.74,2.68
21.23,-8.64,-11.33,-8.64,-11.32,6.00,5.81,3.33,-2.64,-2.64,2.69
21.44,-8.57,-11.26,-8.56,-11.25,6.00,5.85,3.43,-2.57,-2.56,2.69
21.66,-8.50,-11.19,-8.50,-11.19,6.00,5.89,3.53,-2.50,-2.50,2.69
21.87,-8.43,-11.12,-8.43,-11.12,6.00,5.92,3.63,-2.43,-2.43,2.69
22.09,-8.34,-11.04,-8.34,-11.04,6.00,5.96,3.74,-2.34,-2.34,2.70
22.31,-8.24,-10.94,-8.24,-10.93,6.00,5.99,3.84,-2.24,-2.24,2.70
22.54,-8.13,-10.82,-8.13,-10.82,6.00,6.02,3.95,-2.13,-2.13,2.69
22.76,-8.02,-10.70,-8.02,-10.71,6.00,6.05,4.07,-2.02,-2.02,2.68
22.99,-7.91,-10.59,-7.91,-10.59,6.00,6.08,4.18,-1.91,-1.91,2.68
23.22,-7.79,-10.47,-7.79,-10.46,6.00,6.11,4.30,-1.79,-1.79,2.68
23.45,-7.66,-10.33,-7.67,-10.34,6.00,6.14,4.42,-1.66,-1.67,2.67
23.69,-7.54,-10.21,-7.54,-10.21,6.00,6.16,4.55,-1.54,-1.54,2.67
23.92,-7.41,-10.08,-7.41,-10.08,6.00,6.19,4.67,-1.41,-1.41,2.67
24.16,-7.29,-9.96,-7.29,-9.96,6.00,6.21,4.80,-1.29,-1.29,2.67
24.40,-7.17,-9.84,-7.17,-9.84,6.00,6.23,4.93,-1.17,-1.17,2.67
24.65,-7.04,-9.71,-7.05,-9.72,6.00,6.25,5.06,-1.04,-1.05,2.67
24.89,-6.92,-9.59,-6.91,-9.58,6.00,6.26,5.20,-0.92,-0.91,2.67
25.14,-6.77,-9.44,-6.76,-9.43,6.00,6.28,5.33,-0.77,-0.76,2.67
25.39,-6.60,-9.26,-6.60,-9.26,6.00,6.29,5.47,-0.60,-0.60,2.66
25.65,-6.43,-9.09,-6.43,-9.09,6.00,6.30,5.61,-0.43,-0.43,2.66
25.91,-6.26,-8.92,-6.28,-8.94,6.00,6.31,5.74,-0.26,-0.28,2.66
26.16,-6.17,-8.83,-6.18,-8.84,6.00,6.32,5.88,-0.17,-0.18,2.66
26.43,-6.12,-8.78,-6.13,-8.79,6.00,6.32,6.02,-0.12,-0.13,2.66
26.69,-6.08,-8.74,-6.08,-8.74,6.00,6.33,6.15,-0.08,-0.08,2.66
26.96,-6.03,-8.69,-6.00,-8.65,6.00,6.33,6.28,-0.03,0.00,2.66
27.23,-5.85,-8.51,-5.85,-8.51,6.00,6.33,6.41,0.15,0.15,2.66
27.50,-5.64,-8.30,-5.64,-8.30,6.00,6.32,6.54,0.36,0.36,2.66
27.77,-5.44,-8.10,-5.44,-8.10,6.00,6.32,6.66,0.56,0.56,2.66
28.05,-5.27,-7.93,-5.31,-7.97,6.00,6.31,6.77,0.73,0.69,2.66
28.33,-5.26,-7.92,-5.26,-7.92,6.00,6.30,6.88,0.74,0.74,2.66
28.62,-5.25,-7.91,-5.24,-7.91,6.00,6.29,6.98,0.75,0.76,2.66
28.90,-5.24,-7.91,-5.22,-7.88,6.00,6.27,7.07,0.76,0.78,2.67
29.19,-5.15,-7.82,-5.14,-7.81,6.00,6.25,7.15,0.85,0.86,2.67
29.48,-5.02,-7.69,-5.03,-7.71,6.00,6.23,7.22,0.98,0.97,2.67
29.78,-4.89,-7.57,-4.89,-7.57,6.00,6.21,7.28,1.11,1.11,2.68
30.08,-4.75,-7.43,-4.75,-7.43,6.00,6.19,7.33,1.25,1.25,2.68
30.38,-4.60,-7.28,-4.60,-7.28,6.00,6.16,7.36,1.40,1.40,2.68
30.68,-4.44,-7.12,-4.44,-7.12,6.00,6.13,7.38,1.56,1.56,2.68
30.99,-4.29,-6.97,-4.30,-6.98,6.00,6.09,7.38,1.71,1.70,2.68
31.30,-4.18,-6.86,-4.18,-6.86,6.00,6.06,7.37,1.82,1.82,2.68
31.61,-4.08,-6.76,-4.08,-6.75,6.00,6.02,7.35,1.92,1.92,2.68
31.93,-3.97,-6.65,-3.98,-6.65,6.00,5.98,7.31,2.03,2.02,2.68
32.24,-3.88,-6.55,-3.87,-6.54,6.02,5.94,7.25,2.14,2.15,2.67
32.57,-3.78,-6.45,-3.78,-6.45,6.05,5.89,7.19,2.26,2.27,2.67
32.89,-3.69,-6.36,-3.71,-6.38,6.04,5.84,7.10,2.35,2.33,2.67
33.22,-3.68,-6.34,-3.71,-6.38,5.99,5.79,7.01,2.31,2.28,2.66
33.55,-3.70,-6.36,-3.73,-6.38,5.92,5.74,6.91,2.22,2.20,2.66
33.89,-3.73,-6.38,-3.65,-6.30,5.85,5.68,6.79,2.12,2.20,2.65
34.23,-3.46,-6.11,-3.38,-6.03,5.78,5.62,6.66,2.32,2.40,2.65
34.57,-3.03,-5.68,-3.03,-5.68,5.73,5.56,6.53,2.70,2.70,2.65
34.92,-2.62,-5.26,-2.76,-5.41,5.69,5.50,6.39,3.08,2.93,2.65
35.27,-2.68,-5.33,-2.73,-5.37,5.66,5.43,6.24,2.98,2.93,2.65
35.62,-2.90,-5.55,-2.86,-5.51,5.62,5.36,6.08,2.72,2.76,2.65
35.97,-3.11,-5.76,-3.03,-5.68,5.56,5.29,5.92,2.45,2.54,2.65
36.33,-3.06,-5.71,-3.08,-5.73,5.50,5.22,5.76,2.44,2.42,2.65
36.70,-2.98,-5.63,-3.00,-5.65,5.44,5.14,5.59,2.46,2.43,2.65
37.06,-2.87,-5.52,-2.82,-5.47,5.39,5.06,5.42,2.52,2.57,2.65
37.43,-2.62,-5.27,-2.61,-5.27,5.32,4.98,5.25,2.70,2.71,2.65
37.81,-2.37,-5.03,-2.41,-5.07,5.21,4.90,5.08,2.84,2.80,2.66
38.19,-2.23,-4.89,-2.26,-4.92,5.07,4.82,4.91,2.84,2.81,2.66
38.57,-2.20,-4.86,-2.19,-4.85,4.91,4.73,4.73,2.71,2.73,2.66
38.95,-2.16,-4.83,-2.14,-4.81,4.75,4.64,4.56,2.59,2.61,2.67
39.34,-2.06,-4.73,-2.08,-4.74,4.60,4.55,4.38,2.54,2.53,2.67
39.74,-1.95,-4.62,-1.95,-4.62,4.47,4.46,4.21,2.52,2.52,2.67
40.14,-1.78,-4.45,-1.72,-4.39,4.35,4.36,4.04,2.57,2.63,2.67
40.54,-1.49,-4.16,-1.48,-4.15,4.25,4.27,3.87,2.75,2.76,2.67
40.94,-1.20,-3.87,-1.31,-3.98,4.14,4.17,3.70,2.94,2.83,2.67
41.35,-1.22,-3.89,-1.24,-3.90,4.04,4.07,3.53,2.82,2.81,2.67
41.76,-1.30,-3.96,-1.25,-3.91,3.95,3.97,3.36,2.65,2.70,2.66
42.18,-1.30,-3.96,-1.28,-3.94,3.86,3.86,3.20,2.56,2.59,2.66
42.60,-1.21,-3.87,-1.23,-3.88,3.78,3.76,3.03,2.57,2.55,2.66
43.03,-1.12,-3.78,-1.13,-3.79,3.70,3.65,2.87,2.58,2.57,2.66
43.46,-1.00,-3.66,-1.00,-3.66,3.61,3.54,2.71,2.61,2.60,2.66
43.90,-0.87,-3.52,-0.85,-3.50,3.50,3.43,2.55,2.63,2.65,2.65
44.33,-0.68,-3.33,-0.67,-3.32,3.38,3.32,2.39,2.70,2.70,2.65
44.78,-0.47,-3.12,-0.50,-3.15,3.22,3.20,2.24,2.75,2.72,2.65
45.23,-0.33,-2.98,-0.35,-3.00,3.05,3.09,2.09,2.71,2.69,2.65
45.68,-0.24,-2.89,-0.23,-2.88,2.86,2.97,1.93,2.62,2.63,2.65
46.13,-0.13,-2.79,-0.12,-2.78,2.68,2.86,1.78,2.55,2.56,2.66
46.60,0.05,-2.61,0.04,-2.62,2.51,2.74,1.63,2.56,2.55,2.66
47.06,0.25,-2.42,0.31,-2.36,2.35,2.62,1.49,2.60,2.66,2.67
47.53,0.57,-2.11,0.57,-2.10,2.20,2.50,1.34,2.77,2.77,2.68
48.01,0.88,-1.81,0.76,-1.93,2.05,2.37,1.20,2.93,2.81,2.69
48.49,0.86,-1.84,0.86,-1.84,1.91,2.25,1.06,2.77,2.78,2.70
48.97,0.83,-1.88,0.92,-1.79,1.78,2.13,0.91,2.61,2.70,2.71
49.46,0.99,-1.73,0.99,-1.74,1.66,2.00,0.78,2.65,2.65,2.72
49.96,1.16,-1.58,1.12,-1.61,1.55,1.88,0.64,2.71,2.68,2.74
50.46,1.28,-1.47,1.28,-1.47,1.46,1.75,0.50,2.74,2.74,2.75
50.96,1.40,-1.37,1.41,-1.36,1.36,1.62,0.37,2.75,2.77,2.77
51.47,1.54,-1.24,1.54,-1.24,1.24,1.49,0.24,2.78,2.78,2.78
51.99,1.68,-1.11,1.68,-1.11,1.11,1.36,0.11,2.79,2.79,2.79
52.51,1.81,-0.99,1.81,-0.99,0.99,1.23,-0.02,2.80,2.80,2.80
53.03,1.95,-0.86,1.94,-0.87,0.88,1.10,-0.15,2.83,2.82,2.81
53.56,2.06,-0.76,2.06,-0.76,0.79,0.97,-0.27,2.85,2.86,2.82
54.10,2.17,-0.67,2.19,-0.64,0.70,0.84,-0.39,2.87,2.90,2.84
54.64,2.31,-0.54,2.28,-0.57,0.60,0.71,-0.51,2.91,2.88,2.85
55.18,2.39,-0.47,2.33,-0.52,0.49,0.58,-0.62,2.88,2.82,2.86
55.74,2.35,-0.51,2.40,-0.47,0.37,0.44,-0.73,2.72,2.77,2.86
56.29,2.46,-0.41,2.50,-0.37,0.26,0.31,-0.84,2.72,2.76,2.87
56.86,2.71,-0.17,2.70,-0.17,0.14,0.18,-0.95,2.85,2.85,2.88
57.42,2.94,0.06,2.93,0.05,0.02,0.04,-1.05,2.96,2.96,2.88
58.00,3.17,0.29,3.11,0.23,-0.11,-0.09,-1.15,3.06,3.00,2.88
58.58,3.20,0.32,3.20,0.32,-0.26,-0.22,-1.24,2.94,2.94,2.88
59.16,3.25,0.37,3.26,0.38,-0.43,-0.36,-1.33,2.82,2.83,2.88
59.76,3.31,0.43,3.35,0.48,-0.59,-0.49,-1.41,2.72,2.77,2.88
60.35,3.50,0.63,3.52,0.65,-0.73,-0.62,-1.49,2.77,2.79,2.87
60.96,3.77,0.91,3.72,0.86,-0.86,-0.76,-1.57,2.91,2.86,2.86
61.57,3.91,1.06,3.92,1.07,-0.98,-0.89,-1.64,2.92,2.93,2.85
62.18,4.04,1.21,4.06,1.23,-1.12,-1.02,-1.70,2.92,2.94,2.83
62.80,4.17,1.36,4.12,1.31,-1.27,-1.15,-1.76,2.90,2.85,2.81
63.43,4.17,1.39,4.15,1.37,-1.41,-1.28,-1.82,2.76,2.74,2.78
64.07,4.14,1.38,4.19,1.44,-1.53,-1.41,-1.87,2.61,2.66,2.76
64.71,4.28,1.55,4.31,1.58,-1.64,-1.54,-1.92,2.64,2.67,2.73
65.35,4.47,1.76,4.47,1.76,-1.74,-1.67,-1.96,2.73,2.73,2.71
66.01,4.70,2.01,4.61,1.92,-1.84,-1.80,-2.00,2.86,2.77,2.69
66.67,4.67,2.00,4.69,2.01,-1.95,-1.93,-2.04,2.71,2.73,2.67
67.33,4.69,2.03,4.71,2.05,-2.08,-2.05,-2.07,2.61,2.63,2.66
68.01,4.75,2.11,4.74,2.10,-2.21,-2.18,-2.10,2.54,2.53,2.64
68.69,4.85,2.22,4.92,2.29,-2.33,-2.30,-2.12,2.52,2.59,2.63
69.37,5.07,2.45,5.06,2.45,-2.43,-2.42,-2.15,2.64,2.63,2.62
70.07,5.35,2.74,5.17,2.56,-2.52,-2.54,-2.17,2.82,2.65,2.61
70.77,5.14,2.54,5.28,2.68,-2.62,-2.66,-2.19,2.52,2.67,2.60
71.48,5.30,2.70,5.37,2.77,-2.71,-2.77,-2.20,2.58,2.65,2.60
72.19,5.54,2.95,5.40,2.81,-2.82,-2.88,-2.22,2.72,2.58,2.59
72.91,5.50,2.92,5.46,2.88,-2.92,-2.99,-2.23,2.58,2.54,2.58
73.64,5.40,2.83,5.51,2.94,-3.00,-3.10,-2.25,2.40,2.51,2.57
74.38,5.53,2.97,5.59,3.03,-3.09,-3.21,-2.26,2.44,2.51,2.56
75.12,5.83,3.28,5.74,3.19,-3.18,-3.31,-2.28,2.64,2.55,2.55
75.87,5.92,3.39,5.87,3.34,-3.29,-3.41,-2.29,2.63,2.58,2.53
76.63,5.90,3.38,5.95,3.44,-3.40,-3.51,-2.30,2.50,2.56,2.52
77.40,5.96,3.46,5.98,3.48,-3.51,-3.60,-2.32,2.45,2.47,2.50
78.17,6.10,3.61,6.06,3.58,-3.61,-3.69,-2.34,2.49,2.45,2.49
78.95,6.14,3.67,6.19,3.72,-3.71,-3.78,-2.35,2.43,2.48,2.47
79.74,6.31,3.85,6.28,3.83,-3.79,-3.86,-2.37,2.51,2.49,2.46
80.54,6.37,3.93,6.32,3.88,-3.86,-3.94,-2.39,2.50,2.46,2.44
81.35,6.35,3.92,6.37,3.94,-3.93,-4.02,-2.41,2.42,2.45,2.43
82.16,6.35,3.93,6.41,3.99,-3.98,-4.09,-2.43,2.37,2.43,2.42
82.98,6.50,4.09,6.45,4.04,-4.03,-4.16,-2.46,2.46,2.42,2.41
83.81,6.53,4.13,6.49,4.09,-4.09,-4.22,-2.49,2.44,2.40,2.40
84.65,6.49,4.09,6.52,4.13,-4.14,-4.28,-2.51,2.34,2.38,2.40
85.50,6.52,4.13,6.56,4.17,-4.21,-4.34,-2.55,2.30,2.34,2.39
86.35,6.64,4.26,6.61,4.23,-4.29,-4.39,-2.58,2.34,2.31,2.38
87.22,6.73,4.36,6.69,4.32,-4.37,-4.43,-2.61,2.36,2.32,2.37
88.09,6.73,4.37,6.83,4.47,-4.43,-4.47,-2.65,2.30,2.40,2.36
88.97,6.92,4.56,6.92,4.56,-4.49,-4.51,-2.69,2.43,2.43,2.36
89.86,7.12,4.77,6.97,4.62,-4.54,-4.54,-2.73,2.58,2.43,2.35
90.76,6.90,4.56,6.99,4.65,-4.58,-4.57,-2.78,2.31,2.41,2.34
91.66,6.92,4.58,6.95,4.61,-4.62,-4.59,-2.82,2.30,2.32,2.34
92.58,6.96,4.62,6.90,4.57,-4.66,-4.61,-2.87,2.30,2.24,2.34
93.51,6.92,4.59,6.95,4.62,-4.69,-4.62,-2.92,2.23,2.27,2.33
94.44,6.97,4.64,7.00,4.67,-4.71,-4.63,-2.98,2.26,2.29,2.33
95.39,7.10,4.77,7.05,4.72,-4.73,-4.63,-3.03,2.37,2.32,2.33
96.34,7.11,4.78,7.10,4.77,-4.74,-4.63,-3.09,2.37,2.36,2.33
97.30,7.11,4.78,7.14,4.82,-4.76,-4.63,-3.14,2.35,2.39,2.33
98.28,7.13,4.81,7.15,4.83,-4.77,-4.62,-3.20,2.36,2.38,2.32
99.26,7.19,4.87,7.11,4.79,-4.78,-4.61,-3.27,2.41,2.33,2.32
100.25,7.07,4.75,7.05,4.73,-4.76,-4.59,-3.33,2.31,2.29,2.32
101.25,6.89,4.57,7.00,4.68,-4.73,-4.57,-3.39,2.16,2.26,2.32
102.27,6.99,4.68,6.96,4.66,-4.69,-4.54,-3.45,2.30,2.27,2.31
103.29,7.00,4.70,6.96,4.66,-4.64,-4.51,-3.52,2.35,2.32,2.30
104.32,6.96,4.67,6.95,4.65,-4.59,-4.48,-3.58,2.37,2.35,2.29
105.37,6.85,4.56,6.85,4.57,-4.54,-4.44,-3.65,2.30,2.31,2.29
106.42,6.75,4.47,6.75,4.48,-4.50,-4.40,-3.71,2.25,2.25,2.28
107.48,6.67,4.40,6.69,4.42,-4.45,-4.36,-3.77,2.21,2.23,2.27
108.56,6.63,4.37,6.64,4.38,-4.41,-4.31,-3.83,2.22,2.23,2.26
109.64,6.63,4.38,6.58,4.33,-4.35,-4.26,-3.89,2.28,2.23,2.25
110.74,6.53,4.28,6.54,4.29,-4.29,-4.21,-3.94,2.24,2.26,2.25
111.85,6.46,4.21,6.51,4.26,-4.23,-4.15,-3.99,2.23,2.28,2.25
112.97,6.48,4.23,6.43,4.19,-4.17,-4.09,-4.04,2.31,2.27,2.25
114.10,6.41,4.16,6.37,4.12,-4.10,-4.03,-4.08,2.30,2.26,2.25
115.24,6.23,3.97,6.30,4.04,-4.04,-3.97,-4.12,2.19,2.26,2.26
116.39,6.22,3.96,6.20,3.94,-3.96,-3.90,-4.16,2.25,2.23,2.26
117.55,6.17,3.89,6.14,3.86,-3.89,-3.84,-4.18,2.28,2.25,2.28
118.73,6.05,3.76,6.10,3.81,-3.81,-3.77,-4.21,2.23,2.29,2.29
119.92,6.07,3.76,6.04,3.73,-3.73,-3.70,-4.22,2.33,2.30,2.31
121.12,6.00,3.67,5.99,3.66,-3.66,-3.63,-4.23,2.34,2.33,2.33
122.33,5.92,3.57,5.95,3.60,-3.57,-3.55,-4.23,2.35,2.37,2.35
123.55,5.89,3.52,5.87,3.50,-3.49,-3.48,-4.22,2.40,2.38,2.37
124.79,5.80,3.41,5.79,3.40,-3.39,-3.40,-4.20,2.40,2.39,2.39
126.03,5.69,3.28,5.71,3.30,-3.29,-3.32,-4.18,2.39,2.41,2.41
127.29,5.62,3.19,5.62,3.19,-3.19,-3.25,-4.15,2.43,2.43,2.43
128.57,5.55,3.10,5.54,3.09,-3.09,-3.17,-4.11,2.46,2.45,2.45
129.85,5.47,3.00,5.46,2.99,-3.00,-3.09,-4.07,2.47,2.46,2.47
131.15,5.36,2.87,5.37,2.88,-2.90,-3.00,-4.01,2.46,2.46,2.49
132.46,5.28,2.78,5.29,2.79,-2.81,-2.92,-3.95,2.47,2.48,2.50
133.79,5.23,2.71,5.23,2.72,-2.72,-2.84,-3.88,2.50,2.51,2.52
135.12,5.20,2.67,5.19,2.66,-2.64,-2.76,-3.81,2.56,2.55,2.53
136.48,5.14,2.59,5.13,2.58,-2.56,-2.67,-3.73,2.58,2.57,2.55
137.84,5.05,2.49,5.06,2.50,-2.48,-2.59,-3.64,2.57,2.58,2.56
139.22,4.96,2.39,4.96,2.39,-2.40,-2.51,-3.55,2.56,2.57,2.57
140.61,4.90,2.32,4.88,2.30,-2.32,-2.42,-3.46,2.58,2.56,2.58
142.02,4.78,2.19,4.82,2.23,-2.24,-2.34,-3.36,2.54,2.58,2.59
143.44,4.75,2.16,4.74,2.15,-2.16,-2.25,-3.26,2.59,2.59,2.59
144.87,4.71,2.12,4.67,2.07,-2.07,-2.17,-3.15,2.64,2.59,2.59
146.32,4.56,1.97,4.60,2.01,-1.99,-2.08,-3.04,2.57,2.61,2.59
147.78,4.51,1.93,4.52,1.93,-1.92,-2.00,-2.93,2.59,2.60,2.58
149.26,4.45,1.88,4.42,1.86,-1.85,-1.91,-2.82,2.59,2.57,2.57
150.75,4.34,1.79,4.32,1.77,-1.80,-1.83,-2.71,2.54,2.52,2.55
152.26,4.21,1.69,4.22,1.70,-1.74,-1.74,-2.59,2.47,2.48,2.52
153.78,4.09,1.60,4.15,1.67,-1.69,-1.66,-2.48,2.40,2.46,2.49
155.32,4.13,1.68,4.10,1.65,-1.64,-1.57,-2.36,2.49,2.45,2.45
156.88,4.10,1.68,4.03,1.62,-1.59,-1.49,-2.24,2.50,2.44,2.42
158.44,3.91,1.53,3.96,1.58,-1.55,-1.41,-2.13,2.36,2.41,2.38
160.03,3.83,1.48,3.86,1.51,-1.50,-1.32,-2.01,2.33,2.36,2.35
161.63,3.80,1.47,3.77,1.44,-1.44,-1.24,-1.89,2.36,2.32,2.33
163.24,3.71,1.41,3.68,1.38,-1.38,-1.16,-1.78,2.33,2.30,2.30
164.88,3.56,1.27,3.58,1.29,-1.30,-1.08,-1.66,2.25,2.28,2.29
166.53,3.47,1.19,3.49,1.21,-1.22,-0.99,-1.54,2.25,2.27,2.28
168.19,3.42,1.14,3.41,1.13,-1.13,-0.91,-1.43,2.29,2.29,2.28
169.87,3.37,1.08,3.33,1.04,-1.03,-0.83,-1.32,2.34,2.30,2.29
171.57,3.23,0.93,3.24,0.94,-0.92,-0.75,-1.20,2.31,2.31,2.30
173.29,3.10,0.78,3.14,0.82,-0.81,-0.67,-1.09,2.29,2.33,2.32
175.02,3.07,0.72,3.05,0.70,-0.70,-0.59,-0.98,2.37,2.35,2.35
176.77,2.99,0.61,2.96,0.58,-0.58,-0.51,-0.86,2.41,2.38,2.38
178.54,2.86,0.45,2.88,0.47,-0.47,-0.44,-0.75,2.39,2.41,2.41
180.32,2.78,0.33,2.79,0.34,-0.37,-0.36,-0.64,2.41,2.42,2.45
182.13,2.73,0.25,2.72,0.24,-0.27,-0.28,-0.53,2.46,2.45,2.48
183.95,2.68,0.16,2.68,0.17,-0.18,-0.21,-0.42,2.50,2.50,2.52
185.79,2.64,0.10,2.64,0.10,-0.09,-0.13,-0.32,2.55,2.55,2.54
187.65,2.60,0.04,2.59,0.03,-0.01,-0.06,-0.21,2.59,2.59,2.56
189.52,2.54,-0.04,2.55,-0.03,0.07,0.02,-0.10,2.61,2.62,2.58
191.42,2.48,-0.11,2.47,-0.13,0.14,0.09,0.00,2.62,2.61,2.59
193.33,2.40,-0.21,2.38,-0.23,0.20,0.16,0.11,2.60,2.58,2.61
195.27,2.27,-0.35,2.30,-0.31,0.27,0.24,0.21,2.54,2.57,2.62
197.22,2.24,-0.38,2.25,-0.37,0.33,0.31,0.32,2.57,2.58,2.62
199.19,2.25,-0.38,2.22,-0.40,0.40,0.38,0.42,2.64,2.62,2.63
201.18,2.21,-0.42,2.22,-0.41,0.46,0.45,0.52,2.67,2.67,2.63
203.19,2.16,-0.47,2.16,-0.47,0.52,0.51,0.62,2.67,2.67,2.63
205.23,2.11,-0.52,2.06,-0.57,0.57,0.58,0.72,2.68,2.63,2.63
207.28,1.94,-0.69,1.99,-0.63,0.63,0.65,0.82,2.57,2.62,2.63
209.35,1.89,-0.74,1.92,-0.71,0.69,0.72,0.91,2.58,2.61,2.63
211.44,1.92,-0.70,1.83,-0.79,0.76,0.78,1.01,2.68,2.59,2.62
213.56,1.75,-0.87,1.79,-0.83,0.84,0.84,1.10,2.58,2.62,2.62
215.69,1.66,-0.95,1.73,-0.88,0.91,0.91,1.19,2.57,2.63,2.61
217.85,1.73,-0.88,1.63,-0.98,0.98,0.97,1.28,2.71,2.61,2.61
220.03,1.55,-1.05,1.55,-1.05,1.05,1.03,1.37,2.60,2.61,2.60
222.23,1.42,-1.18,1.47,-1.13,1.13,1.09,1.45,2.55,2.60,2.60
224.45,1.39,-1.21,1.40,-1.20,1.20,1.15,1.53,2.59,2.60,2.60
226.70,1.36,-1.24,1.34,-1.26,1.27,1.21,1.61,2.63,2.61,2.60
228.96,1.33,-1.27,1.25,-1.35,1.34,1.27,1.69,2.66,2.59,2.60
231.25,1.12,-1.49,1.17,-1.43,1.40,1.33,1.76,2.52,2.57,2.61
233.57,1.06,-1.55,1.13,-1.48,1.46,1.38,1.83,2.52,2.59,2.61
235.90,1.16,-1.46,1.10,-1.52,1.51,1.44,1.89,2.67,2.61,2.62
238.26,1.14,-1.49,1.10,-1.53,1.57,1.49,1.95,2.70,2.66,2.63
240.64,1.02,-1.63,1.05,-1.59,1.62,1.54,2.01,2.64,2.67,2.65
243.05,0.97,-1.69,0.98,-1.68,1.68,1.60,2.06,2.65,2.66,2.66
245.48,0.92,-1.75,0.92,-1.75,1.73,1.65,2.11,2.65,2.65,2.67
247.93,0.91,-1.77,0.89,-1.79,1.80,1.70,2.15,2.70,2.68,2.68
250.41,0.81,-1.88,0.84,-1.85,1.87,1.75,2.19,2.68,2.71,2.69
252.92,0.80,-1.90,0.76,-1.94,1.95,1.79,2.22,2.74,2.71,2.70
255.45,0.68,-2.02,0.68,-2.02,2.03,1.84,2.25,2.70,2.70,2.70
258.00,0.57,-2.13,0.62,-2.08,2.10,1.89,2.28,2.67,2.72,2.70
260.58,0.57,-2.13,0.54,-2.16,2.16,1.93,2.30,2.73,2.69,2.70
263.19,0.51,-2.19,0.45,-2.25,2.21,1.97,2.32,2.72,2.66,2.70
265.82,0.34,-2.36,0.41,-2.29,2.25,2.02,2.34,2.59,2.66,2.70
268.48,0.33,-2.37,0.38,-2.32,2.29,2.06,2.35,2.62,2.67,2.70
271.16,0.46,-2.24,0.36,-2.34,2.33,2.10,2.36,2.78,2.68,2.70
273.87,0.38,-2.32,0.38,-2.32,2.36,2.14,2.36,2.74,2.74,2.70
276.61,0.29,-2.41,0.38,-2.32,2.39,2.17,2.37,2.68,2.77,2.70
279.38,0.38,-2.32,0.33,-2.37,2.42,2.21,2.37,2.80,2.75,2.70
282.17,0.34,-2.37,0.27,-2.44,2.44,2.25,2.36,2.78,2.71,2.71
284.99,0.18,-2.54,0.23,-2.49,2.45,2.28,2.36,2.63,2.68,2.72
287.84,0.12,-2.60,0.19,-2.53,2.46,2.32,2.36,2.58,2.65,2.72
290.72,0.26,-2.47,0.21,-2.52,2.46,2.35,2.35,2.72,2.67,2.73
293.63,0.29,-2.45,0.26,-2.47,2.47,2.38,2.35,2.76,2.74,2.74
296.57,0.30,-2.45,0.31,-2.44,2.48,2.41,2.34,2.78,2.79,2.75
299.53,0.31,-2.44,0.35,-2.40,2.47,2.44,2.33,2.78,2.82,2.75
302.53,0.37,-2.39,0.35,-2.41,2.46,2.47,2.32,2.83,2.81,2.76
305.55,0.41,-2.35,0.31,-2.45,2.45,2.50,2.32,2.86,2.76,2.76
308.61,0.20,-2.56,0.27,-2.49,2.44,2.52,2.31,2.64,2.71,2.76
311.69,0.21,-2.55,0.27,-2.49,2.43,2.55,2.30,2.64,2.70,2.76
314.81,0.32,-2.43,0.30,-2.45,2.41,2.57,2.30,2.73,2.71,2.75
317.96,0.44,-2.31,0.37,-2.38,2.39,2.59,2.30,2.83,2.76,2.75
321.14,0.38,-2.36,0.40,-2.34,2.36,2.62,2.29,2.74,2.76,2.74
324.35,0.37,-2.37,0.41,-2.33,2.33,2.64,2.29,2.70,2.74,2.74
327.59,0.44,-2.29,0.42,-2.31,2.30,2.66,2.29,2.73,2.71,2.73
330.87,0.46,-2.26,0.46,-2.26,2.28,2.68,2.29,2.74,2.74,2.72
334.18,0.48,-2.23,0.47,-2.24,2.28,2.69,2.29,2.76,2.75,2.71
337.52,0.46,-2.24,0.45,-2.26,2.29,2.71,2.30,2.75,2.74,2.70
340.90,0.39,-2.31,0.40,-2.29,2.32,2.73,2.30,2.71,2.73,2.70
344.30,0.34,-2.35,0.33,-2.35,2.35,2.74,2.31,2.69,2.68,2.69
347.75,0.27,-2.40,0.25,-2.42,2.38,2.76,2.32,2.65,2.64,2.67
351.23,0.18,-2.48,0.19,-2.46,2.42,2.77,2.33,2.60,2.61,2.66
354.74,0.14,-2.51,0.16,-2.49,2.45,2.78,2.34,2.59,2.62,2.65
358.28,0.16,-2.48,0.14,-2.49,2.48,2.79,2.36,2.64,2.63,2.64
361.87,0.16,-2.47,0.13,-2.49,2.51,2.80,2.38,2.67,2.64,2.63
365.49,0.09,-2.52,0.11,-2.50,2.53,2.81,2.40,2.62,2.64,2.61
369.14,0.07,-2.53,0.07,-2.53,2.55,2.82,2.42,2.62,2.62,2.60
372.83,0.04,-2.55,0.03,-2.56,2.56,2.83,2.44,2.60,2.59,2.59
376.56,-0.00,-2.58,-0.01,-2.59,2.58,2.84,2.46,2.58,2.56,2.58
380.33,-0.07,-2.64,-0.06,-2.63,2.60,2.84,2.49,2.53,2.54,2.57
384.13,-0.10,-2.66,-0.09,-2.65,2.62,2.85,2.52,2.52,2.53,2.56
387.97,-0.10,-2.65,-0.09,-2.64,2.65,2.85,2.55,2.55,2.56,2.55
391.85,-0.09,-2.63,-0.10,-2.64,2.68,2.86,2.58,2.58,2.58,2.54
395.77,-0.10,-2.63,-0.14,-2.67,2.69,2.86,2.61,2.59,2.56,2.53
399.73,-0.21,-2.73,-0.20,-2.72,2.71,2.86,2.64,2.50,2.51,2.52
403.72,-0.29,-2.80,-0.26,-2.77,2.73,2.86,2.67,2.44,2.47,2.51
407.76,-0.30,-2.79,-0.30,-2.79,2.76,2.87,2.71,2.46,2.46,2.49
411.84,-0.30,-2.78,-0.30,-2.78,2.79,2.87,2.75,2.49,2.49,2.48
415.96,-0.30,-2.77,-0.32,-2.79,2.83,2.87,2.78,2.53,2.51,2.47
420.12,-0.35,-2.82,-0.37,-2.83,2.87,2.86,2.82,2.52,2.50,2.47
424.32,-0.45,-2.91,-0.42,-2.88,2.90,2.86,2.85,2.45,2.48,2.46
428.56,-0.48,-2.94,-0.48,-2.94,2.93,2.86,2.89,2.45,2.45,2.46
432.85,-0.49,-2.96,-0.51,-2.98,2.95,2.86,2.93,2.46,2.44,2.47
437.18,-0.53,-3.01,-0.52,-3.00,2.97,2.86,2.96,2.44,2.45,2.48
441.55,-0.51,-3.01,-0.51,-3.00,2.98,2.85,3.00,2.46,2.47,2.50
445.96,-0.47,-2.99,-0.47,-2.99,2.97,2.85,3.03,2.50,2.50,2.52
450.42,-0.41,-2.96,-0.42,-2.97,2.97,2.84,3.06,2.55,2.55,2.55
454.93,-0.36,-2.95,-0.36,-2.94,2.96,2.84,3.09,2.59,2.60,2.59
459.48,-0.30,-2.93,-0.29,-2.92,2.95,2.83,3.12,2.65,2.65,2.63
464.07,-0.23,-2.89,-0.25,-2.91,2.95,2.83,3.14,2.72,2.70,2.66
468.71,-0.21,-2.91,-0.22,-2.92,2.95,2.82,3.17,2.74,2.73,2.70
473.40,-0.21,-2.95,-0.21,-2.95,2.96,2.82,3.19,2.75,2.75,2.74
478.13,-0.22,-3.00,-0.22,-2.99,2.97,2.81,3.20,2.75,2.76,2.78
482.91,-0.21,-3.02,-0.21,-3.02,2.98,2.80,3.22,2.77,2.78,2.81
487.74,-0.18,-3.02,-0.18,-3.02,2.99,2.79,3.23,2.81,2.81,2.84
492.62,-0.14,-3.00,-0.15,-3.01,3.00,2.79,3.23,2.86,2.85,2.86
497.55,-0.11,-2.99,-0.11,-2.99,2.99,2.78,3.23,2.88,2.88,2.88
502.52,-0.09,-2.98,-0.09,-2.98,2.98,2.77,3.23,2.89,2.89,2.89
507.55,-0.07,-2.96,-0.07,-2.96,2.95,2.76,3.23,2.88,2.89,2.89
512.62,-0.05,-2.93,-0.05,-2.93,2.93,2.75,3.22,2.88,2.87,2.88
517.75,-0.04,-2.90,-0.05,-2.91,2.90,2.74,3.21,2.86,2.86,2.86
522.93,-0.05,-2.89,-0.05,-2.88,2.89,2.73,3.19,2.83,2.84,2.84
528.16,-0.06,-2.86,-0.05,-2.85,2.87,2.72,3.17,2.81,2.82,2.80
533.44,-0.07,-2.82,-0.08,-2.83,2.86,2.71,3.15,2.79,2.78,2.75
