frequency,raw,error,smoothed,error_smoothed,equalization,parametric_eq,fixed_band_eq,equalized_raw,equalized_smoothed,target
20.00,7.34,2.05,7.34,2.05,-2.05,-2.21,-1.21,5.28,5.28,5.29
20.20,7.35,2.08,7.34,2.07,-2.07,-2.22,-1.24,5.28,5.27,5.27
20.40,7.35,2.09,7.35,2.09,-2.08,-2.23,-1.28,5.26,5.26,5.26
20.61,7.36,2.10,7.36,2.10,-2.10,-2.24,-1.31,5.25,5.25,5.26
20.81,7.37,2.13,7.36,2.12,-2.12,-2.25,-1.35,5.25,5.24,5.24
21.02,7.38,2.15,7.38,2.15,-2.14,-2.26,-1.39,5.24,5.24,5.23
21.23,7.39,2.17,7.39,2.16,-2.16,-2.27,-1.43,5.23,5.23,5.22
21.44,7.41,2.18,7.40,2.18,-2.18,-2.28,-1.47,5.22,5.22,5.23
21.66,7.42,2.20,7.42,2.20,-2.21,-2.29,-1.51,5.21,5.21,5.22
21.87,7.44,2.23,7.44,2.23,-2.23,-2.30,-1.55,5.21,5.20,5.21
22.09,7.46,2.26,7.45,2.26,-2.26,-2.31,-1.60,5.20,5.20,5.20
22.31,7.48,2.28,7.48,2.29,-2.29,-2.32,-1.64,5.19,5.19,5.19
22.54,7.51,2.32,7.51,2.32,-2.32,-2.33,-1.69,5.19,5.19,5.18
22.76,7.54,2.34,7.54,2.35,-2.35,-2.34,-1.74,5.18,5.18,5.19
22.99,7.57,2.38,7.57,2.39,-2.39,-2.35,-1.79,5.18,5.18,5.18
23.22,7.60,2.42,7.60,2.42,-2.42,-2.36,-1.84,5.18,5.18,5.17
23.45,7.63,2.45,7.62,2.45,-2.45,-2.37,-1.89,5.18,5.17,5.17
23.69,7.65,2.47,7.65,2.48,-2.47,-2.39,-1.94,5.17,5.18,5.17
23.92,7.68,2.51,7.68,2.50,-2.50,-2.40,-1.99,5.18,5.18,5.17
24.16,7.70,2.53,7.69,2.52,-2.51,-2.41,-2.05,5.18,5.18,5.17
24.40,7.71,2.53,7.71,2.53,-2.52,-2.42,-2.10,5.18,5.18,5.18
24.65,7.71,2.53,7.71,2.53,-2.53,-2.43,-2.16,5.17,5.18,5.18
24.89,7.71,2.54,7.70,2.53,-2.53,-2.45,-2.22,5.17,5.17,5.17
25.14,7.70,2.54,7.70,2.54,-2.54,-2.46,-2.27,5.16,5.16,5.16
25.39,7.69,2.53,7.69,2.54,-2.54,-2.47,-2.33,5.15,5.15,5.15
25.65,7.69,2.54,7.69,2.54,-2.55,-2.49,-2.39,5.14,5.14,5.14
25.91,7.70,2.55,7.69,2.55,-2.56,-2.50,-2.45,5.14,5.14,5.14
26.16,7.71,2.56,7.71,2.56,-2.57,-2.51,-2.50,5.13,5.13,5.15
26.43,7.73,2.59,7.73,2.58,-2.59,-2.53,-2.56,5.13,5.13,5.14
26.69,7.76,2.62,7.75,2.61,-2.62,-2.54,-2.62,5.14,5.14,5.14
26.96,7.79,2.65,7.78,2.65,-2.65,-2.56,-2.68,5.14,5.14,5.14
27.23,7.82,2.69,7.82,2.69,-2.68,-2.57,-2.73,5.14,5.14,5.13
27.50,7.85,2.72,7.85,2.72,-2.71,-2.58,-2.79,5.13,5.13,5.13
27.77,7.88,2.74,7.88,2.75,-2.75,-2.60,-2.84,5.13,5.13,5.13
28.05,7.91,2.77,7.91,2.78,-2.78,-2.61,-2.89,5.13,5.13,5.13
28.33,7.94,2.81,7.94,2.80,-2.81,-2.63,-2.94,5.13,5.13,5.13
28.62,7.97,2.84,7.96,2.83,-2.83,-2.64,-2.99,5.13,5.13,5.13
28.90,7.99,2.85,7.99,2.85,-2.85,-2.66,-3.04,5.13,5.14,5.14
29.19,8.01,2.87,8.01,2.87,-2.87,-2.68,-3.08,5.14,5.14,5.14
29.48,8.03,2.89,8.02,2.89,-2.88,-2.69,-3.12,5.14,5.14,5.13
29.78,8.04,2.90,8.03,2.90,-2.89,-2.71,-3.16,5.15,5.14,5.13
30.08,8.04,2.89,8.04,2.90,-2.89,-2.73,-3.20,5.14,5.14,5.15
30.38,8.04,2.90,8.04,2.90,-2.90,-2.74,-3.23,5.14,5.14,5.14
30.68,8.04,2.90,8.03,2.89,-2.90,-2.76,-3.26,5.14,5.14,5.14
30.99,8.03,2.89,8.03,2.89,-2.90,-2.78,-3.28,5.13,5.13,5.13
31.30,8.03,2.89,8.02,2.89,-2.90,-2.79,-3.30,5.13,5.13,5.13
31.61,8.02,2.89,8.02,2.89,-2.90,-2.81,-3.32,5.12,5.12,5.13
31.93,8.02,2.90,8.02,2.90,-2.90,-2.83,-3.34,5.12,5.12,5.12
32.24,8.02,2.90,8.02,2.90,-2.90,-2.85,-3.35,5.11,5.11,5.12
32.57,8.02,2.91,8.02,2.91,-2.91,-2.87,-3.36,5.11,5.11,5.10
32.89,8.02,2.92,8.02,2.91,-2.91,-2.88,-3.37,5.10,5.10,5.10
33.22,8.02,2.92,8.02,2.92,-2.92,-2.90,-3.37,5.10,5.10,5.10
33.55,8.02,2.92,8.02,2.93,-2.93,-2.92,-3.37,5.09,5.09,5.09
33.89,8.02,2.93,8.02,2.93,-2.93,-2.94,-3.37,5.08,5.08,5.08
34.23,8.02,2.95,8.02,2.94,-2.94,-2.96,-3.36,5.07,5.07,5.07
34.57,8.02,2.95,8.02,2.95,-2.95,-2.98,-3.36,5.07,5.07,5.07
34.92,8.02,2.96,8.02,2.96,-2.96,-3.00,-3.35,5.06,5.06,5.05
35.27,8.02,2.96,8.02,2.97,-2.97,-3.02,-3.34,5.05,5.05,5.06
35.62,8.02,2.99,8.02,2.98,-2.98,-3.04,-3.33,5.03,5.03,5.03
35.97,8.02,2.99,8.02,2.99,-2.99,-3.06,-3.32,5.02,5.02,5.02
36.33,8.02,3.01,8.02,3.01,-3.01,-3.08,-3.31,5.01,5.01,5.01
36.70,8.02,3.02,8.02,3.02,-3.02,-3.10,-3.30,5.00,5.00,4.99
37.06,8.02,3.04,8.02,3.03,-3.04,-3.12,-3.29,4.98,4.98,4.98
37.43,8.02,3.05,8.02,3.05,-3.05,-3.15,-3.28,4.96,4.96,4.97
37.81,8.02,3.06,8.02,3.07,-3.07,-3.17,-3.27,4.95,4.95,4.95
38.19,8.02,3.09,8.02,3.08,-3.09,-3.19,-3.26,4.93,4.93,4.93
38.57,8.02,3.10,8.02,3.11,-3.11,-3.21,-3.25,4.91,4.91,4.91
38.95,8.02,3.13,8.02,3.13,-3.13,-3.23,-3.25,4.89,4.89,4.89
39.34,8.02,3.15,8.02,3.15,-3.15,-3.26,-3.24,4.87,4.87,4.86
39.74,8.02,3.17,8.02,3.17,-3.17,-3.28,-3.24,4.85,4.85,4.85
40.14,8.02,3.19,8.02,3.19,-3.19,-3.30,-3.24,4.83,4.83,4.82
40.54,8.02,3.21,8.02,3.21,-3.21,-3.32,-3.24,4.81,4.81,4.81
40.94,8.02,3.24,8.02,3.23,-3.23,-3.35,-3.24,4.79,4.79,4.78
41.35,8.02,3.25,8.02,3.25,-3.25,-3.37,-3.25,4.77,4.77,4.76
41.76,8.02,3.27,8.02,3.27,-3.27,-3.40,-3.25,4.75,4.75,4.75
42.18,8.02,3.28,8.02,3.29,-3.29,-3.42,-3.26,4.73,4.73,4.73
42.60,8.02,3.31,8.02,3.31,-3.31,-3.44,-3.27,4.70,4.70,4.70
43.03,8.02,3.34,8.02,3.33,-3.33,-3.47,-3.29,4.68,4.68,4.68
43.46,8.02,3.36,8.02,3.36,-3.35,-3.49,-3.30,4.66,4.66,4.66
43.90,8.02,3.38,8.02,3.38,-3.38,-3.52,-3.32,4.64,4.64,4.63
44.33,8.02,3.40,8.02,3.40,-3.40,-3.54,-3.34,4.61,4.61,4.62
44.78,8.02,3.43,8.02,3.43,-3.43,-3.57,-3.37,4.59,4.59,4.59
45.23,8.02,3.45,8.02,3.45,-3.46,-3.59,-3.39,4.56,4.56,4.57
45.68,8.02,3.49,8.02,3.49,-3.49,-3.62,-3.42,4.53,4.53,4.53
46.13,8.02,3.52,8.02,3.52,-3.52,-3.64,-3.45,4.50,4.50,4.49
46.60,8.02,3.55,8.02,3.55,-3.55,-3.67,-3.49,4.47,4.47,4.46
47.06,8.02,3.58,8.02,3.59,-3.59,-3.69,-3.52,4.43,4.43,4.43
47.53,8.02,3.61,8.02,3.62,-3.62,-3.72,-3.56,4.39,4.39,4.40
48.01,8.02,3.66,8.02,3.66,-3.66,-3.75,-3.60,4.36,4.36,4.35
48.49,8.02,3.69,8.02,3.69,-3.70,-3.77,-3.64,4.32,4.32,4.32
48.97,8.02,3.74,8.02,3.74,-3.73,-3.80,-3.69,4.28,4.28,4.28
49.46,8.02,3.77,8.02,3.77,-3.77,-3.83,-3.73,4.25,4.25,4.25
49.96,8.02,3.82,8.02,3.81,-3.81,-3.85,-3.78,4.21,4.21,4.20
50.46,8.02,3.84,8.02,3.84,-3.84,-3.88,-3.83,4.18,4.18,4.18
50.96,8.02,3.87,8.02,3.88,-3.87,-3.91,-3.88,4.14,4.14,4.14
51.47,8.02,3.91,8.02,3.91,-3.91,-3.93,-3.94,4.11,4.11,4.11
51.99,8.02,3.94,8.02,3.94,-3.94,-3.96,-3.99,4.08,4.08,4.08
52.51,8.02,3.97,8.02,3.97,-3.97,-3.99,-4.04,4.04,4.04,4.04
53.03,8.02,4.00,8.02,4.00,-4.01,-4.01,-4.10,4.01,4.01,4.02
53.56,8.02,4.04,8.02,4.04,-4.04,-4.04,-4.15,3.97,3.97,3.97
54.10,8.02,4.08,8.02,4.08,-4.08,-4.07,-4.21,3.94,3.94,3.94
54.64,8.02,4.11,8.02,4.12,-4.12,-4.10,-4.26,3.90,3.90,3.90
55.18,8.02,4.16,8.02,4.16,-4.15,-4.12,-4.32,3.87,3.87,3.86
55.74,8.02,4.20,8.02,4.19,-4.19,-4.15,-4.37,3.83,3.83,3.82
56.29,8.02,4.22,8.02,4.22,-4.22,-4.18,-4.42,3.80,3.80,3.80
56.86,8.02,4.24,8.02,4.25,-4.25,-4.21,-4.47,3.76,3.76,3.77
57.42,8.02,4.28,8.02,4.28,-4.28,-4.23,-4.51,3.73,3.73,3.73
58.00,8.03,4.32,8.03,4.32,-4.32,-4.26,-4.56,3.71,3.71,3.70
58.58,8.04,4.34,8.04,4.35,-4.35,-4.29,-4.60,3.69,3.69,3.69
59.16,8.05,4.38,8.04,4.38,-4.38,-4.32,-4.64,3.66,3.66,3.66
59.76,8.05,4.41,8.04,4.41,-4.42,-4.34,-4.67,3.63,3.63,3.63
60.35,8.04,4.45,8.04,4.45,-4.45,-4.37,-4.71,3.59,3.59,3.59
60.96,8.03,4.48,8.03,4.48,-4.48,-4.40,-4.73,3.55,3.55,3.55
61.57,8.01,4.51,8.01,4.51,-4.50,-4.43,-4.76,3.50,3.50,3.50
62.18,7.99,4.53,7.98,4.53,-4.53,-4.45,-4.78,3.46,3.46,3.45
62.80,7.96,4.55,7.96,4.55,-4.54,-4.48,-4.79,3.41,3.41,3.41
63.43,7.93,4.56,7.93,4.56,-4.56,-4.51,-4.80,3.37,3.37,3.36
64.07,7.90,4.57,7.90,4.57,-4.57,-4.53,-4.81,3.33,3.33,3.33
64.71,7.87,4.58,7.87,4.58,-4.58,-4.56,-4.82,3.29,3.29,3.29
65.35,7.84,4.58,7.84,4.58,-4.59,-4.59,-4.82,3.25,3.25,3.25
66.01,7.81,4.59,7.81,4.59,-4.59,-4.61,-4.82,3.21,3.21,3.21
66.67,7.78,4.59,7.78,4.60,-4.60,-4.64,-4.81,3.18,3.18,3.19
67.33,7.75,4.61,7.75,4.61,-4.61,-4.67,-4.80,3.13,3.14,3.14
68.01,7.73,4.63,7.72,4.63,-4.63,-4.69,-4.79,3.10,3.10,3.10
68.69,7.71,4.65,7.70,4.65,-4.65,-4.72,-4.78,3.06,3.06,3.05
69.37,7.69,4.66,7.69,4.67,-4.67,-4.75,-4.76,3.01,3.02,3.02
70.07,7.68,4.69,7.68,4.69,-4.70,-4.77,-4.74,2.97,2.97,2.99
70.77,7.68,4.73,7.68,4.73,-4.74,-4.80,-4.73,2.93,2.93,2.95
71.48,7.68,4.78,7.68,4.78,-4.78,-4.82,-4.71,2.89,2.90,2.90
72.19,7.69,4.83,7.68,4.83,-4.82,-4.85,-4.69,2.86,2.86,2.86
72.91,7.69,4.87,7.69,4.87,-4.87,-4.87,-4.67,2.82,2.82,2.82
73.64,7.70,4.92,7.69,4.92,-4.91,-4.90,-4.65,2.79,2.79,2.77
74.38,7.70,4.96,7.70,4.96,-4.95,-4.92,-4.63,2.75,2.75,2.73
75.12,7.70,4.99,7.70,4.99,-4.99,-4.95,-4.61,2.71,2.71,2.71
75.87,7.70,5.02,7.70,5.02,-5.02,-4.97,-4.60,2.67,2.67,2.68
76.63,7.70,5.05,7.70,5.05,-5.06,-4.99,-4.58,2.64,2.64,2.65
77.40,7.70,5.08,7.70,5.08,-5.09,-5.02,-4.57,2.61,2.61,2.62
78.17,7.70,5.11,7.70,5.11,-5.12,-5.04,-4.56,2.58,2.58,2.58
78.95,7.71,5.14,7.71,5.15,-5.15,-5.06,-4.55,2.56,2.56,2.56
79.74,7.72,5.18,7.71,5.18,-5.18,-5.09,-4.54,2.54,2.54,2.54
80.54,7.72,5.21,7.72,5.21,-5.20,-5.11,-4.54,2.51,2.51,2.50
81.35,7.72,5.24,7.71,5.23,-5.23,-5.13,-4.54,2.49,2.48,2.48
82.16,7.71,5.25,7.70,5.25,-5.25,-5.15,-4.54,2.45,2.45,2.45
82.98,7.69,5.27,7.69,5.27,-5.27,-5.17,-4.55,2.42,2.42,2.42
83.81,7.67,5.29,7.67,5.28,-5.28,-5.19,-4.56,2.38,2.39,2.38
84.65,7.65,5.29,7.64,5.29,-5.29,-5.22,-4.57,2.35,2.35,2.35
85.50,7.62,5.30,7.62,5.30,-5.30,-5.24,-4.58,2.32,2.32,2.31
86.35,7.59,5.30,7.59,5.30,-5.30,-5.26,-4.60,2.28,2.29,2.28
87.22,7.56,5.30,7.56,5.30,-5.30,-5.28,-4.62,2.25,2.25,2.25
88.09,7.53,5.31,7.52,5.30,-5.31,-5.30,-4.65,2.22,2.22,2.21
88.97,7.49,5.30,7.49,5.31,-5.31,-5.32,-4.68,2.18,2.18,2.18
89.86,7.46,5.31,7.46,5.31,-5.32,-5.34,-4.71,2.14,2.14,2.14
90.76,7.44,5.33,7.43,5.32,-5.32,-5.35,-4.75,2.11,2.11,2.11
91.66,7.41,5.33,7.41,5.34,-5.34,-5.37,-4.78,2.07,2.07,2.08
92.58,7.40,5.35,7.40,5.35,-5.36,-5.39,-4.83,2.04,2.04,2.04
93.51,7.39,5.38,7.38,5.37,-5.38,-5.41,-4.87,2.00,2.00,2.01
94.44,7.38,5.40,7.38,5.40,-5.41,-5.43,-4.92,1.97,1.97,1.98
95.39,7.37,5.43,7.37,5.43,-5.44,-5.44,-4.97,1.93,1.93,1.93
96.34,7.36,5.47,7.36,5.47,-5.47,-5.46,-5.03,1.89,1.89,1.89
97.30,7.36,5.50,7.35,5.50,-5.50,-5.48,-5.09,1.86,1.86,1.85
98.28,7.35,5.53,7.34,5.53,-5.52,-5.49,-5.15,1.83,1.82,1.82
99.26,7.33,5.56,7.33,5.55,-5.54,-5.51,-5.21,1.79,1.79,1.77
100.25,7.31,5.57,7.30,5.56,-5.55,-5.53,-5.28,1.75,1.75,1.74
101.25,7.28,5.56,7.28,5.57,-5.56,-5.54,-5.35,1.71,1.71,1.72
102.27,7.25,5.56,7.25,5.56,-5.57,-5.56,-5.42,1.68,1.68,1.68
103.29,7.22,5.57,7.22,5.56,-5.56,-5.57,-5.49,1.65,1.65,1.65
104.32,7.19,5.56,7.19,5.56,-5.56,-5.59,-5.56,1.62,1.62,1.63
105.37,7.16,5.56,7.16,5.56,-5.56,-5.60,-5.64,1.60,1.59,1.59
106.42,7.13,5.56,7.13,5.56,-5.56,-5.62,-5.71,1.57,1.56,1.57
107.48,7.10,5.56,7.10,5.56,-5.57,-5.63,-5.78,1.53,1.53,1.53
108.56,7.08,5.57,7.07,5.57,-5.58,-5.64,-5.86,1.50,1.50,1.51
109.64,7.06,5.59,7.06,5.59,-5.59,-5.66,-5.93,1.46,1.46,1.47
110.74,7.05,5.60,7.05,5.61,-5.62,-5.67,-6.00,1.43,1.43,1.44
111.85,7.05,5.64,7.04,5.64,-5.64,-5.68,-6.07,1.40,1.40,1.41
112.97,7.05,5.67,7.05,5.67,-5.67,-5.70,-6.13,1.37,1.37,1.37
114.10,7.05,5.70,7.05,5.71,-5.71,-5.71,-6.20,1.34,1.34,1.35
115.24,7.05,5.74,7.04,5.74,-5.74,-5.72,-6.25,1.31,1.31,1.30
116.39,7.04,5.78,7.04,5.77,-5.76,-5.73,-6.31,1.27,1.28,1.26
117.55,7.03,5.79,7.02,5.80,-5.78,-5.74,-6.36,1.24,1.24,1.23
118.73,7.01,5.82,7.00,5.81,-5.80,-5.76,-6.40,1.21,1.20,1.19
119.92,6.98,5.81,6.98,5.81,-5.81,-5.77,-6.44,1.17,1.17,1.17
121.12,6.96,5.81,6.95,5.82,-5.81,-5.78,-6.48,1.14,1.14,1.14
122.33,6.93,5.81,6.93,5.81,-5.82,-5.79,-6.50,1.11,1.11,1.11
123.55,6.90,5.82,6.90,5.81,-5.82,-5.80,-6.52,1.08,1.08,1.08
124.79,6.87,5.81,6.87,5.81,-5.82,-5.81,-6.54,1.05,1.05,1.06
126.03,6.84,5.82,6.83,5.81,-5.82,-5.82,-6.55,1.01,1.01,1.02
127.29,6.81,5.82,6.81,5.82,-5.83,-5.83,-6.54,0.98,0.98,0.99
128.57,6.79,5.83,6.79,5.83,-5.84,-5.84,-6.54,0.95,0.95,0.96
129.85,6.78,5.86,6.77,5.85,-5.85,-5.85,-6.53,0.92,0.92,0.92
131.15,6.76,5.87,6.76,5.87,-5.87,-5.86,-6.51,0.89,0.89,0.88
132.46,6.74,5.89,6.74,5.89,-5.89,-5.87,-6.49,0.85,0.85,0.84
133.79,6.72,5.91,6.72,5.91,-5.90,-5.88,-6.46,0.81,0.81,0.81
135.12,6.70,5.92,6.70,5.92,-5.92,-5.89,-6.42,0.78,0.78,0.77
136.48,6.68,5.92,6.68,5.93,-5.93,-5.90,-6.39,0.75,0.75,0.76
137.84,6.66,5.93,6.66,5.94,-5.94,-5.91,-6.35,0.72,0.72,0.72
139.22,6.64,5.96,6.63,5.95,-5.95,-5.92,-6.30,0.69,0.69,0.68
140.61,6.61,5.95,6.61,5.96,-5.95,-5.93,-6.25,0.65,0.66,0.66
142.02,6.59,5.96,6.58,5.96,-5.95,-5.93,-6.21,0.63,0.63,0.62
143.44,6.56,5.96,6.56,5.96,-5.96,-5.94,-6.15,0.60,0.60,0.59
144.87,6.53,5.94,6.53,5.95,-5.96,-5.95,-6.10,0.57,0.57,0.58
146.32,6.51,5.95,6.51,5.95,-5.95,-5.96,-6.05,0.55,0.55,0.55
147.78,6.49,5.95,6.48,5.95,-5.95,-5.96,-6.00,0.54,0.53,0.53
149.26,6.46,5.95,6.46,5.95,-5.94,-5.97,-5.95,0.51,0.51,0.51
150.75,6.43,5.95,6.43,5.94,-5.94,-5.98,-5.90,0.49,0.49,0.48
152.26,6.40,5.93,6.39,5.93,-5.93,-5.98,-5.85,0.47,0.46,0.46
153.78,6.36,5.92,6.36,5.92,-5.93,-5.99,-5.80,0.43,0.43,0.44
155.32,6.33,5.91,6.33,5.92,-5.92,-6.00,-5.76,0.40,0.41,0.41
156.88,6.31,5.92,6.30,5.91,-5.92,-6.00,-5.71,0.38,0.38,0.39
158.44,6.28,5.92,6.28,5.92,-5.92,-6.01,-5.67,0.35,0.35,0.36
160.03,6.26,5.92,6.26,5.93,-5.93,-6.01,-5.63,0.33,0.33,0.33
161.63,6.24,5.93,6.23,5.94,-5.94,-6.02,-5.60,0.30,0.30,0.30
163.24,6.22,5.95,6.21,5.95,-5.94,-6.02,-5.57,0.27,0.27,0.26
164.88,6.19,5.95,6.19,5.96,-5.95,-6.03,-5.54,0.23,0.24,0.23
166.53,6.17,5.96,6.17,5.97,-5.96,-6.03,-5.52,0.21,0.21,0.20
168.19,6.15,5.97,6.14,5.97,-5.97,-6.03,-5.50,0.18,0.18,0.17
169.87,6.12,5.98,6.11,5.97,-5.97,-6.04,-5.48,0.15,0.14,0.14
171.57,6.08,5.97,6.08,5.97,-5.97,-6.04,-5.47,0.10,0.11,0.11
173.29,6.05,5.97,6.05,5.97,-5.98,-6.04,-5.46,0.07,0.07,0.07
175.02,6.02,5.98,6.02,5.98,-5.98,-6.05,-5.46,0.04,0.04,0.04
176.77,5.99,5.98,5.99,5.98,-5.99,-6.05,-5.46,-0.00,0.00,0.00
178.54,5.97,5.99,5.96,5.99,-6.00,-6.05,-5.47,-0.03,-0.03,-0.02
180.32,5.94,6.00,5.94,6.00,-6.01,-6.05,-5.47,-0.07,-0.07,-0.06
182.13,5.92,6.01,5.92,6.01,-6.02,-6.05,-5.49,-0.10,-0.10,-0.10
183.95,5.90,6.02,5.90,6.03,-6.03,-6.05,-5.50,-0.13,-0.13,-0.13
185.79,5.88,6.05,5.88,6.04,-6.04,-6.05,-5.53,-0.16,-0.16,-0.17
187.65,5.86,6.06,5.85,6.05,-6.04,-6.05,-5.55,-0.19,-0.19,-0.20
189.52,5.82,6.06,5.82,6.06,-6.05,-6.05,-5.58,-0.23,-0.23,-0.24
191.42,5.79,6.06,5.79,6.05,-6.05,-6.05,-5.61,-0.27,-0.27,-0.27
193.33,5.75,6.05,5.75,6.05,-6.05,-6.05,-5.65,-0.31,-0.31,-0.30
195.27,5.72,6.05,5.71,6.05,-6.05,-6.04,-5.69,-0.34,-0.34,-0.34
197.22,5.68,6.05,5.68,6.05,-6.05,-6.04,-5.73,-0.37,-0.37,-0.38
199.19,5.65,6.04,5.65,6.05,-6.05,-6.04,-5.77,-0.40,-0.40,-0.39
201.18,5.63,6.06,5.62,6.05,-6.05,-6.03,-5.82,-0.42,-0.43,-0.43
203.19,5.60,6.04,5.60,6.05,-6.05,-6.03,-5.87,-0.45,-0.45,-0.45
205.23,5.58,6.05,5.58,6.04,-6.05,-6.03,-5.92,-0.47,-0.47,-0.47
207.28,5.56,6.04,5.55,6.05,-6.05,-6.02,-5.98,-0.49,-0.49,-0.49
209.35,5.53,6.05,5.53,6.05,-6.05,-6.02,-6.03,-0.52,-0.52,-0.52
211.44,5.52,6.06,5.51,6.05,-6.05,-6.01,-6.09,-0.53,-0.54,-0.54
213.56,5.49,6.04,5.49,6.05,-6.05,-6.00,-6.14,-0.56,-0.56,-0.56
215.69,5.47,6.05,5.46,6.05,-6.04,-6.00,-6.20,-0.58,-0.58,-0.58
217.85,5.44,6.04,5.43,6.04,-6.04,-5.99,-6.26,-0.60,-0.61,-0.60
220.03,5.41,6.03,5.41,6.03,-6.04,-5.98,-6.31,-0.63,-0.63,-0.63
222.23,5.38,6.02,5.38,6.03,-6.03,-5.97,-6.36,-0.65,-0.65,-0.65
224.45,5.36,6.03,5.35,6.02,-6.02,-5.96,-6.41,-0.67,-0.67,-0.67
226.70,5.33,6.01,5.33,6.01,-6.01,-5.95,-6.46,-0.69,-0.68,-0.68
228.96,5.31,6.00,5.31,6.00,-6.00,-5.94,-6.50,-0.70,-0.70,-0.69
231.25,5.29,6.00,5.28,5.99,-5.99,-5.93,-6.54,-0.70,-0.71,-0.71
233.57,5.26,5.98,5.26,5.98,-5.97,-5.92,-6.58,-0.72,-0.72,-0.72
235.90,5.23,5.97,5.23,5.97,-5.96,-5.91,-6.60,-0.73,-0.73,-0.74
238.26,5.20,5.95,5.20,5.94,-5.94,-5.90,-6.63,-0.74,-0.74,-0.75
240.64,5.17,5.91,5.17,5.91,-5.92,-5.88,-6.64,-0.75,-0.75,-0.74
243.05,5.14,5.89,5.14,5.89,-5.90,-5.87,-6.65,-0.76,-0.76,-0.75
245.48,5.12,5.88,5.11,5.88,-5.88,-5.85,-6.65,-0.77,-0.77,-0.77
247.93,5.10,5.87,5.10,5.87,-5.87,-5.84,-6.65,-0.78,-0.78,-0.78
250.41,5.09,5.85,5.09,5.86,-5.87,-5.82,-6.64,-0.78,-0.78,-0.76
252.92,5.10,5.86,5.09,5.86,-5.87,-5.81,-6.62,-0.77,-0.78,-0.76
255.45,5.10,5.86,5.10,5.86,-5.87,-5.79,-6.59,-0.77,-0.77,-0.77
258.00,5.11,5.87,5.11,5.88,-5.87,-5.77,-6.56,-0.76,-0.76,-0.77
260.58,5.12,5.89,5.11,5.88,-5.87,-5.76,-6.51,-0.75,-0.76,-0.77
263.19,5.11,5.87,5.10,5.87,-5.86,-5.74,-6.46,-0.76,-0.76,-0.77
265.82,5.09,5.86,5.09,5.86,-5.85,-5.72,-6.41,-0.77,-0.76,-0.78
268.48,5.07,5.84,5.07,5.84,-5.84,-5.70,-6.35,-0.77,-0.77,-0.77
271.16,5.05,5.82,5.04,5.82,-5.82,-5.68,-6.28,-0.78,-0.78,-0.78
273.87,5.02,5.79,5.01,5.79,-5.80,-5.66,-6.21,-0.78,-0.79,-0.77
276.61,4.99,5.76,4.99,5.77,-5.78,-5.64,-6.14,-0.79,-0.79,-0.78
279.38,4.96,5.75,4.96,5.75,-5.75,-5.62,-6.06,-0.79,-0.79,-0.79
282.17,4.95,5.72,4.94,5.72,-5.72,-5.59,-5.97,-0.77,-0.78,-0.78
284.99,4.92,5.69,4.92,5.69,-5.69,-5.57,-5.89,-0.77,-0.77,-0.77
287.84,4.89,5.65,4.89,5.66,-5.66,-5.55,-5.80,-0.77,-0.77,-0.77
290.72,4.86,5.64,4.85,5.63,-5.62,-5.52,-5.71,-0.76,-0.77,-0.78
293.63,4.82,5.59,4.82,5.59,-5.58,-5.50,-5.62,-0.77,-0.77,-0.78
296.57,4.78,5.54,4.78,5.55,-5.54,-5.47,-5.54,-0.77,-0.77,-0.76
299.53,4.74,5.50,4.73,5.50,-5.51,-5.44,-5.45,-0.77,-0.77,-0.77
302.53,4.70,5.46,4.70,5.46,-5.47,-5.42,-5.36,-0.78,-0.77,-0.76
305.55,4.67,5.42,4.67,5.42,-5.44,-5.39,-5.27,-0.77,-0.77,-0.75
308.61,4.65,5.39,4.65,5.40,-5.40,-5.36,-5.18,-0.76,-0.75,-0.75
311.69,4.64,5.38,4.63,5.37,-5.37,-5.33,-5.09,-0.73,-0.74,-0.74
314.81,4.62,5.35,4.61,5.35,-5.33,-5.30,-5.01,-0.72,-0.72,-0.73
317.96,4.59,5.31,4.58,5.31,-5.29,-5.27,-4.93,-0.71,-0.71,-0.73
321.14,4.55,5.27,4.55,5.27,-5.25,-5.24,-4.85,-0.71,-0.71,-0.72
324.35,4.50,5.22,4.50,5.21,-5.21,-5.21,-4.77,-0.72,-0.71,-0.72
327.59,4.46,5.15,4.45,5.16,-5.17,-5.18,-4.70,-0.71,-0.71,-0.70
330.87,4.41,5.11,4.41,5.11,-5.12,-5.14,-4.63,-0.72,-0.71,-0.70
334.18,4.37,5.07,4.37,5.06,-5.08,-5.11,-4.56,-0.71,-0.71,-0.70
337.52,4.34,5.02,4.34,5.03,-5.03,-5.08,-4.49,-0.70,-0.70,-0.68
340.90,4.32,4.99,4.31,4.99,-4.99,-5.04,-4.43,-0.67,-0.68,-0.68
344.30,4.29,4.96,4.29,4.96,-4.95,-5.01,-4.37,-0.66,-0.66,-0.67
347.75,4.26,4.92,4.26,4.92,-4.91,-4.97,-4.32,-0.65,-0.65,-0.66
351.23,4.23,4.88,4.22,4.87,-4.86,-4.93,-4.26,-0.64,-0.64,-0.65
354.74,4.18,4.81,4.18,4.82,-4.82,-4.90,-4.21,-0.64,-0.63,-0.64
358.28,4.14,4.77,4.13,4.77,-4.77,-4.86,-4.17,-0.63,-0.63,-0.64
361.87,4.09,4.73,4.08,4.72,-4.72,-4.82,-4.12,-0.63,-0.64,-0.64
365.49,4.04,4.66,4.04,4.66,-4.68,-4.78,-4.08,-0.64,-0.64,-0.62
369.14,4.00,4.61,4.00,4.61,-4.63,-4.74,-4.05,-0.64,-0.63,-0.61
372.83,3.97,4.57,3.97,4.58,-4.59,-4.70,-4.01,-0.62,-0.62,-0.61
376.56,3.95,4.55,3.95,4.55,-4.55,-4.66,-3.98,-0.60,-0.61,-0.61
380.33,3.93,4.53,3.92,4.52,-4.51,-4.62,-3.95,-0.59,-0.59,-0.60
384.13,3.90,4.49,3.90,4.49,-4.47,-4.58,-3.93,-0.58,-0.58,-0.59
387.97,3.87,4.45,3.86,4.44,-4.43,-4.54,-3.91,-0.57,-0.57,-0.58
391.85,3.83,4.39,3.83,4.40,-4.39,-4.49,-3.89,-0.57,-0.56,-0.56
395.77,3.79,4.35,3.79,4.35,-4.35,-4.45,-3.87,-0.56,-0.57,-0.57
399.73,3.75,4.30,3.75,4.30,-4.31,-4.41,-3.85,-0.56,-0.56,-0.56
403.72,3.71,4.24,3.71,4.25,-4.27,-4.36,-3.84,-0.56,-0.56,-0.54
407.76,3.69,4.22,3.68,4.21,-4.22,-4.32,-3.83,-0.54,-0.54,-0.53
411.84,3.66,4.18,3.66,4.18,-4.18,-4.27,-3.82,-0.53,-0.52,-0.52
415.96,3.64,4.15,3.64,4.15,-4.14,-4.22,-3.81,-0.50,-0.50,-0.51
420.12,3.61,4.12,3.60,4.11,-4.10,-4.18,-3.80,-0.49,-0.49,-0.51
424.32,3.57,4.07,3.56,4.06,-4.05,-4.13,-3.79,-0.49,-0.49,-0.50
428.56,3.52,4.00,3.52,4.01,-4.01,-4.08,-3.79,-0.49,-0.49,-0.49
432.85,3.48,3.94,3.48,3.96,-3.96,-4.03,-3.78,-0.49,-0.49,-0.47
437.18,3.44,3.91,3.44,3.91,-3.92,-3.98,-3.78,-0.48,-0.48,-0.48
441.55,3.41,3.87,3.40,3.87,-3.87,-3.93,-3.77,-0.46,-0.47,-0.47
445.96,3.36,3.82,3.36,3.82,-3.82,-3.88,-3.76,-0.46,-0.46,-0.46
450.42,3.32,3.77,3.32,3.77,-3.76,-3.83,-3.76,-0.45,-0.45,-0.45
454.93,3.28,3.72,3.28,3.72,-3.71,-3.78,-3.75,-0.44,-0.44,-0.44
459.48,3.24,3.67,3.24,3.67,-3.66,-3.73,-3.74,-0.43,-0.43,-0.43
464.07,3.20,3.61,3.19,3.61,-3.61,-3.68,-3.73,-0.41,-0.42,-0.41
468.71,3.15,3.56,3.15,3.56,-3.56,-3.63,-3.71,-0.41,-0.41,-0.41
473.40,3.10,3.50,3.10,3.50,-3.51,-3.57,-3.70,-0.41,-0.41,-0.40
478.13,3.06,3.45,3.05,3.45,-3.46,-3.52,-3.68,-0.40,-0.40,-0.40
482.91,3.02,3.40,3.02,3.40,-3.41,-3.47,-3.65,-0.39,-0.39,-0.39
487.74,2.98,3.35,2.98,3.36,-3.36,-3.41,-3.63,-0.38,-0.38,-0.38
492.62,2.95,3.31,2.94,3.31,-3.31,-3.36,-3.60,-0.36,-0.37,-0.37
497.55,2.91,3.26,2.91,3.27,-3.26,-3.30,-3.57,-0.35,-0.35,-0.36
502.52,2.88,3.22,2.87,3.22,-3.21,-3.25,-3.54,-0.34,-0.34,-0.35
507.55,2.84,3.17,2.83,3.17,-3.16,-3.19,-3.50,-0.33,-0.33,-0.33
512.62,2.80,3.12,2.80,3.11,-3.12,-3.13,-3.46,-0.32,-0.32,-0.32
517.75,2.76,3.06,2.76,3.06,-3.07,-3.08,-3.41,-0.31,-0.31,-0.30
