frequency,raw,error,smoothed,error_smoothed,equalization,parametric_eq,fixed_band_eq,equalized_raw,equalized_smoothed,target
20.00,3.09,-4.01,3.08,-4.02,3.92,3.78,1.45,7.01,7.00,7.10
20.20,3.13,-3.96,3.13,-3.95,3.92,3.78,1.49,7.05,7.06,7.09
20.40,3.17,-3.92,3.18,-3.90,3.92,3.77,1.54,7.09,7.10,7.08
20.61,3.21,-3.87,3.22,-3.86,3.91,3.77,1.58,7.12,7.13,7.07
20.81,3.25,-3.82,3.25,-3.81,3.90,3.76,1.63,7.15,7.16,7.06
21.02,3.29,-3.77,3.26,-3.80,3.89,3.76,1.68,7.18,7.16,7.05
21.23,3.24,-3.81,3.24,-3.81,3.88,3.75,1.74,7.12,7.13,7.05
21.44,3.19,-3.87,3.19,-3.86,3.87,3.74,1.79,7.06,7.06,7.06
21.66,3.14,-3.91,3.13,-3.92,3.88,3.74,1.84,7.02,7.01,7.05
21.87,3.10,-3.95,3.11,-3.94,3.88,3.73,1.90,6.98,6.98,7.05
22.09,3.10,-3.94,3.12,-3.93,3.87,3.72,1.96,6.96,6.98,7.04
22.31,3.17,-3.87,3.16,-3.88,3.84,3.71,2.02,7.01,7.00,7.04
22.54,3.24,-3.79,3.24,-3.80,3.80,3.70,2.08,7.04,7.04,7.03
22.76,3.32,-3.72,3.32,-3.72,3.75,3.69,2.14,7.07,7.07,7.04
22.99,3.39,-3.65,3.38,-3.66,3.69,3.68,2.20,7.08,7.07,7.04
23.22,3.42,-3.61,3.42,-3.61,3.63,3.67,2.27,7.05,7.06,7.03
23.45,3.45,-3.58,3.46,-3.57,3.59,3.66,2.34,7.03,7.04,7.03
23.69,3.49,-3.54,3.49,-3.54,3.55,3.65,2.40,7.04,7.04,7.03
23.92,3.52,-3.51,3.51,-3.52,3.52,3.63,2.47,7.04,7.04,7.03
24.16,3.54,-3.50,3.54,-3.50,3.50,3.62,2.54,7.04,7.04,7.04
24.40,3.55,-3.50,3.55,-3.49,3.48,3.61,2.62,7.03,7.04,7.05
24.65,3.57,-3.48,3.56,-3.48,3.46,3.59,2.69,7.03,7.03,7.05
24.89,3.58,-3.47,3.58,-3.46,3.44,3.58,2.76,7.02,7.03,7.04
25.14,3.60,-3.43,3.60,-3.43,3.42,3.56,2.83,7.02,7.03,7.03
25.39,3.63,-3.40,3.63,-3.40,3.40,3.55,2.91,7.03,7.03,7.03
25.65,3.66,-3.37,3.66,-3.38,3.38,3.53,2.98,7.04,7.04,7.03
25.91,3.68,-3.35,3.68,-3.35,3.36,3.51,3.06,7.04,7.04,7.03
26.16,3.69,-3.34,3.69,-3.34,3.35,3.50,3.13,7.04,7.03,7.03
26.43,3.69,-3.33,3.69,-3.33,3.34,3.48,3.20,7.03,7.04,7.02
26.69,3.69,-3.33,3.69,-3.32,3.35,3.46,3.27,7.04,7.04,7.02
26.96,3.69,-3.32,3.68,-3.33,3.36,3.44,3.34,7.05,7.04,7.01
27.23,3.66,-3.34,3.65,-3.35,3.36,3.42,3.41,7.02,7.02,7.00
27.50,3.62,-3.38,3.61,-3.38,3.36,3.40,3.48,6.98,6.97,7.00
27.77,3.59,-3.41,3.59,-3.40,3.34,3.38,3.54,6.93,6.93,6.99
28.05,3.58,-3.41,3.60,-3.39,3.31,3.36,3.60,6.89,6.92,6.99
28.33,3.67,-3.32,3.67,-3.32,3.28,3.34,3.65,6.95,6.95,6.99
28.62,3.76,-3.22,3.76,-3.23,3.24,3.32,3.71,7.00,7.00,6.98
28.90,3.86,-3.13,3.84,-3.15,3.20,3.30,3.75,7.06,7.04,6.99
29.19,3.89,-3.10,3.88,-3.11,3.17,3.27,3.80,7.06,7.05,6.99
29.48,3.89,-3.11,3.90,-3.10,3.14,3.25,3.83,7.03,7.04,7.00
29.78,3.89,-3.11,3.89,-3.11,3.13,3.23,3.87,7.02,7.02,6.99
30.08,3.88,-3.12,3.88,-3.12,3.12,3.20,3.89,7.00,7.00,7.00
30.38,3.86,-3.13,3.85,-3.14,3.12,3.18,3.91,6.97,6.97,6.99
30.68,3.84,-3.15,3.83,-3.16,3.11,3.15,3.93,6.95,6.94,6.99
30.99,3.81,-3.17,3.83,-3.15,3.10,3.13,3.94,6.91,6.93,6.98
31.30,3.86,-3.12,3.86,-3.11,3.08,3.10,3.94,6.94,6.95,6.98
31.61,3.92,-3.06,3.91,-3.06,3.06,3.08,3.93,6.98,6.97,6.97
31.93,3.98,-2.98,3.96,-3.00,3.03,3.05,3.92,7.00,6.99,6.96
32.24,3.99,-2.97,3.99,-2.97,2.99,3.03,3.90,6.98,6.98,6.96
32.57,3.99,-2.96,3.99,-2.95,2.97,3.00,3.88,6.96,6.96,6.95
32.89,3.99,-2.95,3.99,-2.95,2.96,2.97,3.85,6.95,6.95,6.94
33.22,3.99,-2.94,3.99,-2.94,2.96,2.94,3.81,6.95,6.95,6.93
33.55,3.99,-2.94,3.99,-2.94,2.97,2.92,3.77,6.96,6.96,6.93
33.89,3.99,-2.94,3.98,-2.95,2.98,2.89,3.73,6.97,6.96,6.93
34.23,3.95,-2.97,3.93,-2.98,2.98,2.86,3.68,6.93,6.91,6.92
34.57,3.90,-3.01,3.89,-3.02,2.96,2.83,3.62,6.86,6.85,6.91
34.92,3.84,-3.06,3.88,-3.02,2.93,2.80,3.56,6.77,6.81,6.90
35.27,3.93,-2.98,3.94,-2.95,2.89,2.77,3.50,6.81,6.83,6.91
35.62,4.06,-2.83,4.05,-2.84,2.84,2.74,3.44,6.90,6.89,6.88
35.97,4.19,-2.68,4.15,-2.72,2.79,2.71,3.37,6.98,6.94,6.87
36.33,4.20,-2.66,4.20,-2.66,2.74,2.68,3.30,6.93,6.93,6.86
36.70,4.19,-2.65,4.20,-2.64,2.68,2.65,3.23,6.87,6.89,6.84
37.06,4.19,-2.64,4.19,-2.64,2.64,2.62,3.16,6.82,6.83,6.83
37.43,4.19,-2.63,4.19,-2.62,2.60,2.58,3.09,6.79,6.79,6.82
37.81,4.19,-2.60,4.19,-2.60,2.58,2.55,3.01,6.77,6.77,6.79
38.19,4.19,-2.58,4.19,-2.58,2.57,2.52,2.94,6.76,6.76,6.77
38.57,4.19,-2.55,4.19,-2.55,2.56,2.49,2.86,6.74,6.74,6.74
38.95,4.19,-2.53,4.19,-2.53,2.54,2.45,2.79,6.72,6.72,6.72
39.34,4.19,-2.51,4.19,-2.51,2.51,2.42,2.72,6.70,6.70,6.69
39.74,4.19,-2.48,4.19,-2.48,2.48,2.39,2.65,6.67,6.67,6.67
40.14,4.19,-2.46,4.19,-2.45,2.45,2.35,2.57,6.64,6.64,6.64
40.54,4.20,-2.42,4.19,-2.43,2.41,2.32,2.50,6.61,6.60,6.62
40.94,4.20,-2.39,4.21,-2.39,2.38,2.28,2.43,6.57,6.58,6.59
41.35,4.23,-2.35,4.23,-2.34,2.34,2.25,2.37,6.57,6.57,6.58
41.76,4.27,-2.28,4.26,-2.29,2.30,2.22,2.30,6.57,6.56,6.55
42.18,4.29,-2.25,4.28,-2.25,2.27,2.18,2.23,6.55,6.55,6.54
42.60,4.29,-2.22,4.29,-2.22,2.23,2.15,2.17,6.52,6.52,6.51
43.03,4.29,-2.19,4.29,-2.20,2.20,2.11,2.10,6.49,6.49,6.48
43.46,4.29,-2.18,4.29,-2.17,2.17,2.07,2.04,6.46,6.46,6.47
43.90,4.29,-2.15,4.29,-2.15,2.14,2.04,1.98,6.43,6.43,6.44
44.33,4.29,-2.12,4.29,-2.13,2.11,2.00,1.93,6.40,6.40,6.41
44.78,4.29,-2.10,4.29,-2.10,2.09,1.97,1.87,6.38,6.38,6.38
45.23,4.29,-2.08,4.29,-2.07,2.07,1.93,1.81,6.36,6.36,6.37
45.68,4.29,-2.04,4.29,-2.04,2.06,1.89,1.76,6.34,6.34,6.33
46.13,4.29,-2.00,4.29,-2.00,2.04,1.86,1.71,6.32,6.33,6.29
46.60,4.29,-1.97,4.29,-1.97,2.01,1.82,1.66,6.30,6.30,6.26
47.06,4.28,-1.95,4.25,-1.98,1.97,1.78,1.61,6.25,6.21,6.23
47.53,4.22,-1.98,4.21,-1.98,1.92,1.74,1.56,6.14,6.13,6.20
48.01,4.15,-1.99,4.22,-1.93,1.87,1.71,1.51,6.02,6.09,6.14
48.49,4.27,-1.84,4.26,-1.85,1.81,1.67,1.47,6.08,6.08,6.11
48.97,4.38,-1.69,4.33,-1.73,1.76,1.63,1.42,6.14,6.09,6.07
49.46,4.39,-1.64,4.39,-1.64,1.70,1.59,1.38,6.09,6.09,6.03
49.96,4.39,-1.59,4.40,-1.59,1.64,1.55,1.34,6.03,6.04,5.98
50.46,4.39,-1.57,4.39,-1.57,1.58,1.52,1.30,5.97,5.97,5.96
50.96,4.39,-1.54,4.39,-1.53,1.53,1.48,1.26,5.91,5.91,5.92
51.47,4.39,-1.50,4.39,-1.50,1.48,1.44,1.22,5.87,5.87,5.89
51.99,4.39,-1.46,4.39,-1.47,1.45,1.40,1.18,5.84,5.84,5.85
52.51,4.39,-1.43,4.39,-1.43,1.43,1.36,1.15,5.82,5.82,5.82
53.03,4.39,-1.39,4.39,-1.39,1.40,1.32,1.11,5.79,5.79,5.78
53.56,4.39,-1.35,4.39,-1.35,1.36,1.28,1.08,5.74,5.74,5.74
54.10,4.39,-1.30,4.39,-1.31,1.30,1.24,1.04,5.69,5.69,5.69
54.64,4.39,-1.27,4.38,-1.27,1.25,1.20,1.01,5.63,5.63,5.66
55.18,4.39,-1.22,4.38,-1.23,1.19,1.16,0.98,5.58,5.57,5.61
55.74,4.40,-1.18,4.42,-1.16,1.13,1.12,0.95,5.53,5.55,5.57
56.29,4.46,-1.09,4.48,-1.06,1.08,1.08,0.91,5.54,5.56,5.55
56.86,4.58,-0.94,4.53,-0.98,1.03,1.05,0.88,5.60,5.55,5.52
57.42,4.56,-0.90,4.54,-0.93,0.98,1.01,0.85,5.54,5.52,5.46
58.00,4.49,-0.95,4.52,-0.92,0.95,0.96,0.82,5.44,5.47,5.44
58.58,4.49,-0.93,4.49,-0.93,0.92,0.92,0.79,5.41,5.41,5.42
59.16,4.49,-0.90,4.48,-0.91,0.89,0.88,0.76,5.38,5.37,5.39
59.76,4.49,-0.87,4.49,-0.87,0.87,0.84,0.72,5.35,5.35,5.36
60.35,4.48,-0.83,4.47,-0.84,0.83,0.80,0.69,5.31,5.31,5.31
60.96,4.46,-0.82,4.45,-0.82,0.79,0.76,0.66,5.25,5.24,5.28
61.57,4.44,-0.79,4.45,-0.77,0.73,0.72,0.63,5.17,5.18,5.22
62.18,4.45,-0.72,4.48,-0.69,0.67,0.68,0.60,5.11,5.15,5.17
62.80,4.56,-0.56,4.53,-0.58,0.60,0.64,0.57,5.16,5.13,5.12
63.43,4.60,-0.47,4.58,-0.49,0.53,0.60,0.53,5.13,5.11,5.07
64.07,4.60,-0.43,4.61,-0.42,0.46,0.56,0.50,5.06,5.07,5.03
64.71,4.60,-0.39,4.60,-0.38,0.40,0.52,0.47,5.00,5.00,4.99
65.35,4.60,-0.34,4.60,-0.35,0.34,0.48,0.44,4.94,4.94,4.94
66.01,4.60,-0.30,4.60,-0.30,0.29,0.43,0.40,4.89,4.89,4.90
66.67,4.60,-0.27,4.60,-0.26,0.25,0.39,0.37,4.85,4.85,4.86
67.33,4.60,-0.21,4.60,-0.21,0.21,0.35,0.33,4.81,4.81,4.80
68.01,4.60,-0.17,4.60,-0.17,0.17,0.31,0.30,4.77,4.77,4.76
68.69,4.60,-0.12,4.60,-0.12,0.12,0.27,0.26,4.72,4.72,4.72
69.37,4.60,-0.08,4.60,-0.08,0.08,0.23,0.23,4.68,4.68,4.68
70.07,4.60,-0.03,4.60,-0.03,0.03,0.19,0.19,4.63,4.63,4.63
70.77,4.60,0.01,4.60,0.01,-0.02,0.14,0.15,4.58,4.58,4.58
71.48,4.60,0.06,4.60,0.06,-0.06,0.10,0.12,4.53,4.53,4.54
72.19,4.60,0.11,4.60,0.11,-0.11,0.06,0.08,4.49,4.49,4.49
72.91,4.60,0.16,4.60,0.16,-0.16,0.02,0.04,4.44,4.44,4.44
73.64,4.60,0.21,4.60,0.21,-0.20,-0.02,0.00,4.40,4.40,4.39
74.38,4.60,0.25,4.60,0.25,-0.24,-0.07,-0.04,4.36,4.36,4.35
75.12,4.60,0.29,4.60,0.28,-0.28,-0.11,-0.08,4.32,4.32,4.31
75.87,4.60,0.32,4.60,0.32,-0.33,-0.15,-0.12,4.27,4.27,4.28
76.63,4.60,0.37,4.60,0.36,-0.37,-0.19,-0.16,4.23,4.23,4.23
77.40,4.60,0.40,4.60,0.40,-0.41,-0.23,-0.20,4.18,4.18,4.20
78.17,4.60,0.44,4.59,0.43,-0.45,-0.28,-0.24,4.15,4.14,4.16
78.95,4.60,0.46,4.61,0.48,-0.48,-0.32,-0.28,4.12,4.13,4.13
79.74,4.62,0.52,4.64,0.55,-0.50,-0.36,-0.32,4.12,4.14,4.10
80.54,4.68,0.61,4.64,0.57,-0.52,-0.40,-0.36,4.15,4.11,4.07
81.35,4.64,0.61,4.60,0.57,-0.54,-0.45,-0.41,4.10,4.06,4.03
82.16,4.49,0.48,4.55,0.55,-0.56,-0.49,-0.45,3.93,3.99,4.00
82.98,4.49,0.53,4.49,0.53,-0.58,-0.53,-0.49,3.91,3.92,3.96
83.81,4.49,0.57,4.47,0.55,-0.60,-0.57,-0.54,3.89,3.88,3.92
84.65,4.49,0.61,4.49,0.61,-0.62,-0.61,-0.58,3.87,3.87,3.88
85.50,4.49,0.65,4.49,0.65,-0.64,-0.66,-0.63,3.84,3.84,3.84
86.35,4.49,0.69,4.49,0.69,-0.68,-0.70,-0.68,3.81,3.81,3.80
87.22,4.50,0.74,4.50,0.74,-0.73,-0.74,-0.72,3.77,3.77,3.76
88.09,4.50,0.78,4.50,0.78,-0.77,-0.78,-0.77,3.72,3.72,3.72
88.97,4.50,0.82,4.50,0.82,-0.82,-0.83,-0.82,3.68,3.68,3.68
89.86,4.50,0.87,4.50,0.87,-0.87,-0.87,-0.87,3.63,3.63,3.63
90.76,4.50,0.91,4.50,0.91,-0.91,-0.91,-0.92,3.59,3.59,3.59
91.66,4.50,0.96,4.50,0.96,-0.96,-0.95,-0.97,3.54,3.54,3.54
92.58,4.50,1.01,4.50,1.01,-1.01,-1.00,-1.02,3.49,3.49,3.49
93.51,4.50,1.05,4.50,1.05,-1.06,-1.04,-1.07,3.44,3.44,3.45
94.44,4.50,1.10,4.50,1.10,-1.11,-1.08,-1.12,3.39,3.39,3.40
95.39,4.50,1.15,4.50,1.15,-1.16,-1.12,-1.17,3.34,3.34,3.34
96.34,4.50,1.21,4.50,1.21,-1.21,-1.17,-1.23,3.29,3.29,3.29
97.30,4.49,1.26,4.49,1.26,-1.25,-1.21,-1.28,3.23,3.23,3.23
98.28,4.48,1.30,4.48,1.31,-1.30,-1.25,-1.33,3.18,3.18,3.18
99.26,4.47,1.36,4.46,1.35,-1.35,-1.29,-1.39,3.12,3.12,3.11
100.25,4.45,1.40,4.45,1.39,-1.39,-1.34,-1.44,3.05,3.05,3.05
101.25,4.43,1.43,4.43,1.44,-1.44,-1.38,-1.50,2.99,3.00,3.00
102.27,4.42,1.47,4.42,1.47,-1.48,-1.42,-1.55,2.94,2.94,2.95
103.29,4.41,1.52,4.40,1.51,-1.51,-1.46,-1.61,2.89,2.89,2.89
104.32,4.39,1.55,4.39,1.55,-1.55,-1.50,-1.66,2.84,2.84,2.84
105.37,4.36,1.59,4.36,1.59,-1.58,-1.55,-1.72,2.78,2.78,2.77
106.42,4.34,1.61,4.34,1.62,-1.61,-1.59,-1.77,2.72,2.72,2.72
107.48,4.32,1.66,4.31,1.65,-1.65,-1.63,-1.82,2.67,2.67,2.66
108.56,4.29,1.68,4.29,1.69,-1.69,-1.67,-1.88,2.60,2.61,2.61
109.64,4.27,1.72,4.27,1.72,-1.73,-1.71,-1.93,2.54,2.54,2.55
110.74,4.25,1.75,4.24,1.75,-1.77,-1.75,-1.98,2.48,2.48,2.49
111.85,4.23,1.78,4.23,1.78,-1.81,-1.80,-2.03,2.42,2.42,2.45
112.97,4.22,1.82,4.24,1.85,-1.84,-1.84,-2.07,2.38,2.40,2.40
114.10,4.25,1.90,4.25,1.91,-1.87,-1.88,-2.12,2.37,2.38,2.35
115.24,4.30,2.01,4.24,1.94,-1.91,-1.92,-2.17,2.39,2.33,2.29
116.39,4.18,1.94,4.20,1.96,-1.94,-1.96,-2.21,2.24,2.26,2.24
117.55,4.12,1.92,4.15,1.96,-1.97,-2.00,-2.25,2.15,2.18,2.20
118.73,4.13,1.98,4.12,1.97,-2.00,-2.04,-2.29,2.13,2.11,2.15
119.92,4.13,2.02,4.13,2.01,-2.03,-2.08,-2.32,2.09,2.09,2.11
121.12,4.14,2.06,4.14,2.07,-2.07,-2.12,-2.36,2.07,2.07,2.08
122.33,4.15,2.11,4.15,2.11,-2.10,-2.16,-2.39,2.05,2.05,2.04
123.55,4.16,2.15,4.16,2.15,-2.14,-2.20,-2.41,2.02,2.01,2.00
124.79,4.16,2.19,4.16,2.19,-2.19,-2.24,-2.44,1.97,1.97,1.97
126.03,4.17,2.24,4.17,2.24,-2.23,-2.28,-2.46,1.93,1.93,1.93
127.29,4.18,2.29,4.18,2.28,-2.28,-2.31,-2.48,1.90,1.90,1.89
128.57,4.18,2.33,4.18,2.33,-2.32,-2.35,-2.50,1.85,1.86,1.85
129.85,4.19,2.37,4.19,2.37,-2.37,-2.39,-2.51,1.81,1.81,1.82
131.15,4.19,2.41,4.19,2.41,-2.43,-2.43,-2.53,1.76,1.76,1.78
132.46,4.20,2.46,4.19,2.45,-2.48,-2.47,-2.54,1.72,1.72,1.74
133.79,4.20,2.50,4.20,2.50,-2.52,-2.50,-2.55,1.68,1.68,1.69
135.12,4.21,2.55,4.23,2.57,-2.56,-2.54,-2.55,1.65,1.68,1.66
136.48,4.26,2.64,4.25,2.63,-2.59,-2.58,-2.56,1.67,1.66,1.62
137.84,4.29,2.70,4.24,2.66,-2.62,-2.61,-2.56,1.67,1.62,1.59
139.22,4.18,2.65,4.20,2.66,-2.64,-2.65,-2.56,1.54,1.56,1.53
140.61,4.12,2.61,4.15,2.64,-2.67,-2.68,-2.57,1.45,1.48,1.51
142.02,4.12,2.65,4.11,2.65,-2.69,-2.72,-2.57,1.43,1.42,1.47
143.44,4.12,2.69,4.11,2.68,-2.71,-2.75,-2.57,1.40,1.40,1.42
144.87,4.12,2.72,4.12,2.73,-2.74,-2.78,-2.57,1.38,1.38,1.39
146.32,4.12,2.76,4.12,2.76,-2.76,-2.82,-2.57,1.36,1.36,1.35
147.78,4.12,2.80,4.12,2.81,-2.79,-2.85,-2.57,1.33,1.34,1.31
149.26,4.12,2.84,4.13,2.85,-2.82,-2.88,-2.57,1.30,1.31,1.28
150.75,4.12,2.89,4.09,2.86,-2.85,-2.91,-2.57,1.27,1.24,1.23
152.26,4.08,2.88,4.05,2.85,-2.87,-2.95,-2.57,1.21,1.18,1.20
153.78,3.96,2.80,4.04,2.88,-2.89,-2.98,-2.57,1.07,1.15,1.16
155.32,4.03,2.90,4.03,2.90,-2.90,-3.01,-2.58,1.13,1.13,1.13
156.88,4.10,3.01,4.01,2.93,-2.92,-3.04,-2.58,1.18,1.10,1.09
158.44,3.97,2.92,4.00,2.95,-2.93,-3.07,-2.59,1.04,1.07,1.04
160.03,3.92,2.92,3.95,2.95,-2.95,-3.09,-2.59,0.97,1.00,1.00
161.63,3.92,2.96,3.91,2.95,-2.98,-3.12,-2.60,0.94,0.92,0.96
163.24,3.91,3.00,3.91,3.00,-3.02,-3.15,-2.62,0.89,0.89,0.91
164.88,3.91,3.04,3.91,3.04,-3.05,-3.18,-2.63,0.86,0.86,0.87
166.53,3.91,3.09,3.90,3.08,-3.09,-3.20,-2.64,0.82,0.81,0.82
168.19,3.90,3.12,3.90,3.12,-3.12,-3.23,-2.66,0.78,0.78,0.78
169.87,3.89,3.15,3.91,3.18,-3.15,-3.25,-2.68,0.74,0.76,0.73
171.57,3.92,3.23,3.91,3.22,-3.18,-3.27,-2.70,0.74,0.73,0.69
173.29,3.92,3.27,3.88,3.24,-3.21,-3.30,-2.72,0.71,0.67,0.65
175.02,3.82,3.21,3.84,3.24,-3.23,-3.32,-2.75,0.59,0.61,0.61
176.77,3.78,3.22,3.79,3.23,-3.26,-3.34,-2.78,0.52,0.54,0.56
178.54,3.77,3.24,3.76,3.24,-3.29,-3.36,-2.81,0.48,0.48,0.53
180.32,3.77,3.28,3.77,3.28,-3.31,-3.38,-2.84,0.45,0.45,0.48
182.13,3.78,3.34,3.78,3.33,-3.34,-3.40,-2.87,0.44,0.44,0.44
183.95,3.79,3.38,3.80,3.39,-3.37,-3.42,-2.91,0.42,0.43,0.41
185.79,3.80,3.43,3.80,3.43,-3.39,-3.44,-2.95,0.41,0.41,0.37
187.65,3.82,3.48,3.79,3.46,-3.42,-3.45,-2.99,0.40,0.38,0.34
189.52,3.75,3.45,3.77,3.46,-3.44,-3.47,-3.03,0.30,0.32,0.30
191.42,3.74,3.46,3.73,3.45,-3.47,-3.49,-3.08,0.27,0.26,0.28
193.33,3.69,3.45,3.69,3.45,-3.49,-3.50,-3.12,0.20,0.20,0.24
195.27,3.67,3.47,3.68,3.48,-3.51,-3.51,-3.17,0.15,0.17,0.20
197.22,3.69,3.52,3.68,3.51,-3.54,-3.53,-3.22,0.15,0.14,0.17
199.19,3.70,3.56,3.69,3.56,-3.56,-3.54,-3.27,0.14,0.13,0.14
201.18,3.70,3.60,3.72,3.61,-3.58,-3.55,-3.33,0.11,0.13,0.10
203.19,3.73,3.65,3.72,3.64,-3.61,-3.56,-3.38,0.12,0.11,0.08
205.23,3.73,3.68,3.70,3.65,-3.63,-3.57,-3.43,0.10,0.07,0.05
207.28,3.65,3.62,3.67,3.64,-3.64,-3.57,-3.49,0.01,0.02,0.03
209.35,3.61,3.63,3.63,3.64,-3.65,-3.58,-3.54,-0.04,-0.02,-0.02
211.44,3.61,3.65,3.61,3.65,-3.65,-3.59,-3.59,-0.05,-0.05,-0.04
213.56,3.60,3.67,3.58,3.65,-3.65,-3.59,-3.65,-0.06,-0.08,-0.07
215.69,3.56,3.66,3.54,3.64,-3.65,-3.60,-3.70,-0.09,-0.11,-0.10
217.85,3.46,3.58,3.52,3.64,-3.65,-3.60,-3.75,-0.19,-0.13,-0.12
220.03,3.50,3.66,3.50,3.65,-3.65,-3.60,-3.80,-0.15,-0.15,-0.16
222.23,3.53,3.71,3.48,3.66,-3.65,-3.60,-3.85,-0.12,-0.17,-0.18
224.45,3.45,3.65,3.46,3.66,-3.65,-3.60,-3.90,-0.20,-0.20,-0.20
226.70,3.39,3.61,3.41,3.64,-3.66,-3.60,-3.94,-0.27,-0.24,-0.22
228.96,3.39,3.62,3.39,3.63,-3.66,-3.60,-3.98,-0.27,-0.26,-0.23
231.25,3.41,3.66,3.41,3.66,-3.66,-3.60,-4.02,-0.25,-0.26,-0.25
233.57,3.43,3.69,3.41,3.68,-3.66,-3.60,-4.05,-0.23,-0.25,-0.26
235.90,3.40,3.68,3.39,3.67,-3.66,-3.59,-4.07,-0.26,-0.27,-0.28
238.26,3.35,3.64,3.38,3.66,-3.65,-3.59,-4.10,-0.30,-0.28,-0.29
240.64,3.36,3.64,3.36,3.64,-3.64,-3.58,-4.12,-0.29,-0.29,-0.28
243.05,3.37,3.66,3.34,3.63,-3.63,-3.57,-4.13,-0.26,-0.29,-0.29
245.48,3.32,3.61,3.34,3.63,-3.62,-3.56,-4.13,-0.30,-0.28,-0.29
247.93,3.31,3.60,3.31,3.60,-3.60,-3.55,-4.14,-0.29,-0.28,-0.30
250.41,3.32,3.60,3.29,3.57,-3.59,-3.54,-4.13,-0.27,-0.30,-0.28
252.92,3.25,3.53,3.27,3.56,-3.58,-3.53,-4.12,-0.34,-0.31,-0.28
255.45,3.26,3.56,3.26,3.55,-3.58,-3.52,-4.11,-0.33,-0.32,-0.30
258.00,3.27,3.57,3.26,3.56,-3.58,-3.51,-4.08,-0.32,-0.32,-0.30
260.58,3.27,3.58,3.27,3.58,-3.58,-3.49,-4.06,-0.31,-0.31,-0.31
263.19,3.28,3.59,3.28,3.60,-3.57,-3.48,-4.02,-0.29,-0.28,-0.32
265.82,3.27,3.59,3.28,3.60,-3.55,-3.46,-3.99,-0.28,-0.28,-0.32
268.48,3.27,3.61,3.23,3.56,-3.53,-3.45,-3.94,-0.26,-0.30,-0.34
271.16,3.16,3.51,3.17,3.52,-3.50,-3.43,-3.90,-0.34,-0.34,-0.35
273.87,3.06,3.42,3.10,3.46,-3.47,-3.41,-3.85,-0.42,-0.38,-0.36
276.61,3.06,3.43,3.03,3.41,-3.44,-3.39,-3.79,-0.39,-0.41,-0.37
279.38,3.00,3.39,3.00,3.38,-3.42,-3.37,-3.74,-0.42,-0.42,-0.39
282.17,2.97,3.35,2.98,3.37,-3.39,-3.35,-3.68,-0.42,-0.41,-0.38
284.99,2.97,3.36,2.97,3.36,-3.37,-3.33,-3.61,-0.40,-0.40,-0.39
287.84,2.98,3.36,2.98,3.37,-3.35,-3.31,-3.55,-0.37,-0.37,-0.38
290.72,2.99,3.38,2.98,3.37,-3.33,-3.29,-3.48,-0.35,-0.35,-0.40
293.63,2.96,3.36,2.95,3.35,-3.31,-3.26,-3.41,-0.36,-0.36,-0.40
296.57,2.92,3.31,2.91,3.31,-3.29,-3.24,-3.34,-0.37,-0.38,-0.39
299.53,2.85,3.24,2.87,3.26,-3.27,-3.21,-3.28,-0.42,-0.40,-0.39
302.53,2.84,3.23,2.83,3.22,-3.25,-3.19,-3.21,-0.41,-0.42,-0.39
305.55,2.82,3.21,2.80,3.19,-3.22,-3.16,-3.14,-0.41,-0.42,-0.39
308.61,2.77,3.16,2.78,3.17,-3.20,-3.13,-3.07,-0.43,-0.41,-0.39
311.69,2.76,3.15,2.77,3.16,-3.17,-3.10,-3.00,-0.41,-0.40,-0.39
314.81,2.77,3.16,2.77,3.17,-3.14,-3.07,-2.93,-0.37,-0.37,-0.39
317.96,2.77,3.17,2.76,3.16,-3.11,-3.04,-2.86,-0.35,-0.36,-0.40
321.14,2.75,3.15,2.71,3.11,-3.09,-3.01,-2.80,-0.34,-0.38,-0.40
324.35,2.61,3.01,2.64,3.04,-3.05,-2.98,-2.73,-0.45,-0.41,-0.40
327.59,2.57,2.96,2.59,2.99,-3.02,-2.95,-2.67,-0.45,-0.43,-0.40
330.87,2.56,2.96,2.55,2.95,-2.97,-2.92,-2.61,-0.42,-0.42,-0.40
334.18,2.56,2.97,2.54,2.94,-2.93,-2.89,-2.55,-0.37,-0.39,-0.41
337.52,2.49,2.89,2.49,2.89,-2.88,-2.85,-2.49,-0.39,-0.39,-0.40
340.90,2.44,2.83,2.44,2.84,-2.83,-2.82,-2.43,-0.39,-0.39,-0.39
344.30,2.37,2.76,2.39,2.78,-2.78,-2.78,-2.37,-0.41,-0.39,-0.39
347.75,2.36,2.75,2.35,2.74,-2.74,-2.75,-2.32,-0.38,-0.39,-0.39
351.23,2.31,2.70,2.30,2.68,-2.69,-2.71,-2.27,-0.38,-0.39,-0.39
354.74,2.26,2.63,2.25,2.63,-2.64,-2.68,-2.22,-0.38,-0.39,-0.37
358.28,2.18,2.55,2.21,2.58,-2.58,-2.64,-2.17,-0.40,-0.38,-0.37
361.87,2.17,2.53,2.18,2.54,-2.54,-2.60,-2.12,-0.37,-0.36,-0.37
365.49,2.18,2.54,2.15,2.50,-2.50,-2.56,-2.08,-0.32,-0.35,-0.36
369.14,2.11,2.46,2.11,2.46,-2.46,-2.53,-2.03,-0.35,-0.35,-0.35
372.83,2.05,2.39,2.06,2.41,-2.42,-2.49,-1.99,-0.37,-0.36,-0.34
376.56,2.01,2.36,2.02,2.37,-2.39,-2.45,-1.95,-0.38,-0.37,-0.35
380.33,2.01,2.35,2.01,2.35,-2.36,-2.41,-1.91,-0.35,-0.35,-0.34
384.13,2.01,2.35,1.99,2.33,-2.32,-2.37,-1.88,-0.32,-0.33,-0.35
387.97,1.96,2.30,1.97,2.31,-2.29,-2.33,-1.84,-0.33,-0.32,-0.34
391.85,1.93,2.27,1.93,2.27,-2.25,-2.29,-1.81,-0.32,-0.32,-0.34
395.77,1.87,2.22,1.87,2.22,-2.21,-2.24,-1.78,-0.34,-0.33,-0.35
399.73,1.82,2.18,1.81,2.17,-2.16,-2.20,-1.74,-0.35,-0.35,-0.36
403.72,1.75,2.10,1.74,2.10,-2.12,-2.16,-1.71,-0.37,-0.38,-0.35
407.76,1.68,2.04,1.68,2.05,-2.07,-2.12,-1.69,-0.39,-0.39,-0.36
411.84,1.62,1.99,1.64,2.01,-2.02,-2.07,-1.66,-0.40,-0.38,-0.37
415.96,1.61,1.98,1.60,1.98,-1.97,-2.03,-1.63,-0.36,-0.37,-0.37
420.12,1.59,1.97,1.56,1.95,-1.93,-1.98,-1.60,-0.34,-0.36,-0.39
424.32,1.52,1.90,1.52,1.89,-1.89,-1.94,-1.58,-0.37,-0.37,-0.38
428.56,1.46,1.82,1.48,1.84,-1.86,-1.89,-1.55,-0.40,-0.38,-0.36
432.85,1.45,1.79,1.46,1.80,-1.82,-1.85,-1.53,-0.37,-0.36,-0.34
437.18,1.47,1.79,1.46,1.78,-1.78,-1.80,-1.50,-0.31,-0.32,-0.32
441.55,1.48,1.77,1.47,1.76,-1.74,-1.75,-1.48,-0.26,-0.27,-0.29
445.96,1.46,1.71,1.47,1.72,-1.70,-1.71,-1.46,-0.24,-0.22,-0.25
450.42,1.47,1.67,1.46,1.66,-1.65,-1.66,-1.43,-0.18,-0.19,-0.20
454.93,1.46,1.61,1.45,1.60,-1.61,-1.61,-1.41,-0.15,-0.15,-0.15
459.48,1.43,1.53,1.45,1.54,-1.55,-1.56,-1.38,-0.13,-0.11,-0.10
464.07,1.46,1.49,1.45,1.49,-1.50,-1.52,-1.36,-0.04,-0.05,-0.03
468.71,1.46,1.43,1.47,1.45,-1.44,-1.47,-1.33,0.02,0.03,0.03
473.40,1.49,1.41,1.47,1.39,-1.38,-1.42,-1.30,0.10,0.09,0.08
478.13,1.47,1.33,1.45,1.32,-1.33,-1.37,-1.27,0.14,0.12,0.13
482.91,1.42,1.23,1.44,1.25,-1.27,-1.32,-1.25,0.15,0.17,0.18
487.74,1.41,1.17,1.45,1.22,-1.21,-1.27,-1.22,0.20,0.24,0.23
492.62,1.48,1.21,1.44,1.17,-1.15,-1.21,-1.19,0.33,0.29,0.27
497.55,1.47,1.17,1.43,1.12,-1.10,-1.16,-1.15,0.37,0.33,0.30
502.52,1.34,1.01,1.39,1.06,-1.05,-1.11,-1.12,0.29,0.35,0.33
507.55,1.33,0.97,1.32,0.97,-1.00,-1.06,-1.09,0.33,0.32,0.36
512.62,1.31,0.94,1.27,0.90,-0.95,-1.01,-1.05,0.35,0.32,0.37
517.75,1.22,0.84,1.28,0.90,-0.91,-0.95,-1.01,0.31,0.37,0.38
522.93,1.25,0.88,1.25,0.88,-0.85,-0.90,-0.98,0.39,0.40,0.37
528.16,1.28,0.92,1.19,0.83,-0.80,-0.84,-0.94,0.47,0.39,0.36
533.44,1.08,0.74,1.12,0.78,-0.75,-0.79,-0.90,0.33,0.37,0.34
538.77,0.98,0.67,1.02,0.71,-0.70,-0.73,-0.85,0.28,0.32,0.31
