frequency,raw,error,smoothed,error_smoothed,equalization,parametric_eq,fixed_band_eq,equalized_raw,equalized_smoothed,target
20.00,-2.29,-2.56,-2.30,-2.57,2.58,2.40,0.61,0.29,0.28,0.27
20.20,-2.28,-2.55,-2.27,-2.54,2.54,2.37,0.63,0.26,0.27,0.27
20.40,-2.23,-2.50,-2.23,-2.50,2.50,2.35,0.65,0.27,0.27,0.27
20.61,-2.20,-2.47,-2.19,-2.47,2.46,2.32,0.67,0.26,0.26,0.27
20.81,-2.14,-2.41,-2.15,-2.42,2.42,2.29,0.69,0.28,0.27,0.27
21.02,-2.11,-2.39,-2.11,-2.38,2.38,2.26,0.71,0.27,0.27,0.28
21.23,-2.06,-2.34,-2.06,-2.34,2.34,2.23,0.73,0.28,0.28,0.28
21.44,-2.02,-2.30,-2.02,-2.30,2.30,2.21,0.76,0.28,0.28,0.28
21.66,-1.97,-2.25,-1.98,-2.25,2.26,2.18,0.78,0.28,0.28,0.28
21.87,-1.94,-2.22,-1.93,-2.21,2.21,2.15,0.81,0.27,0.28,0.28
22.09,-1.89,-2.17,-1.89,-2.17,2.17,2.12,0.83,0.28,0.28,0.28
22.31,-1.85,-2.13,-1.85,-2.14,2.14,2.09,0.86,0.29,0.28,0.28
22.54,-1.82,-2.10,-1.81,-2.10,2.10,2.06,0.89,0.28,0.29,0.28
22.76,-1.77,-2.05,-1.78,-2.06,2.06,2.03,0.91,0.29,0.28,0.28
22.99,-1.74,-2.03,-1.74,-2.03,2.03,2.00,0.94,0.29,0.28,0.29
23.22,-1.71,-2.00,-1.71,-1.99,1.99,1.97,0.97,0.28,0.29,0.29
23.45,-1.67,-1.96,-1.67,-1.96,1.96,1.94,1.00,0.29,0.29,0.29
23.69,-1.63,-1.92,-1.63,-1.92,1.92,1.91,1.03,0.29,0.29,0.29
23.92,-1.59,-1.88,-1.59,-1.88,1.88,1.88,1.06,0.29,0.29,0.29
24.16,-1.56,-1.85,-1.56,-1.85,1.85,1.85,1.09,0.29,0.29,0.29
24.40,-1.53,-1.82,-1.52,-1.82,1.81,1.82,1.13,0.28,0.29,0.29
24.65,-1.49,-1.78,-1.49,-1.78,1.78,1.79,1.16,0.29,0.29,0.29
24.89,-1.44,-1.73,-1.45,-1.74,1.74,1.76,1.19,0.30,0.30,0.29
25.14,-1.41,-1.70,-1.41,-1.70,1.71,1.73,1.22,0.30,0.30,0.29
25.39,-1.38,-1.67,-1.38,-1.67,1.68,1.70,1.26,0.30,0.30,0.29
25.65,-1.35,-1.65,-1.35,-1.65,1.64,1.67,1.29,0.29,0.29,0.30
25.91,-1.32,-1.62,-1.32,-1.62,1.61,1.64,1.32,0.29,0.29,0.30
26.16,-1.29,-1.59,-1.29,-1.59,1.58,1.61,1.36,0.29,0.29,0.30
26.43,-1.26,-1.56,-1.25,-1.55,1.55,1.58,1.39,0.29,0.30,0.30
26.69,-1.21,-1.51,-1.22,-1.52,1.52,1.55,1.42,0.31,0.30,0.30
26.96,-1.19,-1.49,-1.19,-1.49,1.49,1.52,1.45,0.30,0.30,0.30
27.23,-1.16,-1.46,-1.15,-1.46,1.46,1.49,1.48,0.30,0.30,0.30
27.50,-1.12,-1.42,-1.13,-1.43,1.43,1.47,1.51,0.31,0.30,0.30
27.77,-1.10,-1.40,-1.09,-1.40,1.40,1.44,1.54,0.30,0.30,0.30
28.05,-1.07,-1.37,-1.06,-1.36,1.37,1.41,1.57,0.30,0.30,0.30
28.33,-1.02,-1.32,-1.04,-1.34,1.34,1.38,1.59,0.32,0.30,0.30
28.62,-1.01,-1.31,-1.00,-1.31,1.31,1.35,1.61,0.30,0.31,0.30
28.90,-0.98,-1.28,-0.98,-1.28,1.28,1.32,1.63,0.30,0.30,0.30
29.19,-0.94,-1.24,-0.95,-1.25,1.25,1.29,1.65,0.31,0.30,0.30
29.48,-0.93,-1.23,-0.92,-1.22,1.22,1.27,1.67,0.29,0.30,0.30
29.78,-0.88,-1.19,-0.89,-1.20,1.19,1.24,1.68,0.31,0.30,0.31
30.08,-0.86,-1.17,-0.86,-1.16,1.17,1.21,1.69,0.31,0.31,0.31
30.38,-0.84,-1.15,-0.83,-1.14,1.14,1.18,1.70,0.30,0.31,0.31
30.68,-0.79,-1.10,-0.80,-1.11,1.11,1.16,1.71,0.32,0.31,0.31
30.99,-0.79,-1.10,-0.78,-1.08,1.09,1.13,1.71,0.30,0.31,0.31
31.30,-0.74,-1.05,-0.75,-1.06,1.06,1.10,1.71,0.32,0.31,0.31
31.61,-0.74,-1.05,-0.73,-1.04,1.03,1.07,1.70,0.29,0.30,0.31
31.93,-0.70,-1.01,-0.70,-1.01,1.01,1.05,1.70,0.31,0.31,0.31
32.24,-0.68,-0.99,-0.68,-0.98,0.98,1.02,1.69,0.30,0.31,0.31
32.57,-0.65,-0.96,-0.65,-0.96,0.96,1.00,1.67,0.31,0.31,0.31
32.89,-0.62,-0.93,-0.63,-0.93,0.93,0.97,1.66,0.31,0.31,0.31
33.22,-0.61,-0.92,-0.60,-0.91,0.91,0.94,1.64,0.30,0.30,0.31
33.55,-0.58,-0.89,-0.58,-0.89,0.88,0.92,1.62,0.30,0.30,0.31
33.89,-0.56,-0.87,-0.56,-0.86,0.86,0.89,1.59,0.30,0.30,0.31
34.23,-0.52,-0.83,-0.53,-0.83,0.84,0.87,1.57,0.32,0.31,0.31
34.57,-0.51,-0.82,-0.51,-0.81,0.81,0.84,1.54,0.30,0.31,0.31
34.92,-0.48,-0.79,-0.48,-0.79,0.79,0.82,1.51,0.31,0.31,0.30
35.27,-0.47,-0.77,-0.46,-0.77,0.77,0.79,1.48,0.30,0.30,0.30
35.62,-0.44,-0.74,-0.44,-0.75,0.74,0.77,1.44,0.30,0.30,0.30
35.97,-0.42,-0.72,-0.42,-0.72,0.72,0.74,1.41,0.30,0.30,0.30
36.33,-0.40,-0.70,-0.40,-0.70,0.70,0.72,1.37,0.30,0.30,0.30
36.70,-0.37,-0.67,-0.37,-0.68,0.68,0.70,1.34,0.31,0.30,0.30
37.06,-0.36,-0.66,-0.36,-0.66,0.66,0.67,1.30,0.30,0.30,0.30
37.43,-0.33,-0.63,-0.34,-0.63,0.63,0.65,1.26,0.30,0.30,0.30
37.81,-0.33,-0.63,-0.32,-0.61,0.61,0.62,1.22,0.28,0.30,0.30
38.19,-0.28,-0.58,-0.29,-0.59,0.59,0.60,1.18,0.31,0.30,0.30
38.57,-0.28,-0.58,-0.27,-0.57,0.57,0.58,1.14,0.29,0.30,0.30
38.95,-0.25,-0.54,-0.25,-0.55,0.55,0.55,1.10,0.30,0.30,0.29
39.34,-0.23,-0.52,-0.24,-0.53,0.53,0.53,1.06,0.30,0.29,0.29
39.74,-0.23,-0.52,-0.22,-0.51,0.51,0.51,1.02,0.28,0.29,0.29
40.14,-0.19,-0.48,-0.20,-0.49,0.49,0.49,0.98,0.30,0.29,0.29
40.54,-0.19,-0.48,-0.18,-0.46,0.47,0.46,0.94,0.28,0.29,0.29
40.94,-0.15,-0.43,-0.16,-0.44,0.45,0.44,0.90,0.30,0.29,0.28
41.35,-0.14,-0.42,-0.14,-0.43,0.43,0.42,0.86,0.29,0.28,0.28
41.76,-0.14,-0.42,-0.12,-0.40,0.41,0.39,0.82,0.27,0.28,0.28
42.18,-0.10,-0.38,-0.11,-0.39,0.39,0.37,0.78,0.29,0.27,0.28
42.60,-0.09,-0.36,-0.09,-0.37,0.37,0.35,0.75,0.28,0.28,0.27
43.03,-0.09,-0.36,-0.07,-0.35,0.35,0.33,0.71,0.26,0.28,0.27
43.46,-0.05,-0.32,-0.07,-0.34,0.33,0.31,0.67,0.28,0.26,0.27
43.90,-0.05,-0.32,-0.05,-0.32,0.31,0.28,0.63,0.26,0.26,0.27
44.33,-0.05,-0.31,-0.03,-0.29,0.29,0.26,0.60,0.24,0.26,0.26
44.78,-0.00,-0.26,-0.02,-0.28,0.27,0.24,0.56,0.27,0.25,0.26
45.23,0.00,-0.26,-0.00,-0.26,0.25,0.22,0.53,0.25,0.25,0.26
45.68,0.00,-0.25,0.02,-0.23,0.23,0.20,0.49,0.23,0.26,0.25
46.13,0.05,-0.20,0.03,-0.22,0.22,0.18,0.46,0.27,0.24,0.25
46.60,0.05,-0.19,0.05,-0.19,0.20,0.15,0.43,0.25,0.25,0.24
47.06,0.05,-0.19,0.07,-0.17,0.18,0.13,0.39,0.23,0.25,0.24
47.53,0.09,-0.14,0.08,-0.16,0.16,0.11,0.36,0.25,0.24,0.23
48.01,0.09,-0.14,0.08,-0.15,0.14,0.09,0.33,0.23,0.22,0.23
48.49,0.09,-0.13,0.10,-0.13,0.12,0.07,0.30,0.21,0.22,0.22
48.97,0.09,-0.13,0.11,-0.11,0.11,0.05,0.26,0.20,0.21,0.22
49.46,0.14,-0.07,0.12,-0.09,0.09,0.03,0.23,0.23,0.21,0.21
49.96,0.14,-0.07,0.13,-0.07,0.07,0.00,0.20,0.21,0.21,0.21
50.46,0.14,-0.06,0.15,-0.05,0.05,-0.02,0.17,0.19,0.20,0.20
50.96,0.14,-0.05,0.15,-0.04,0.04,-0.04,0.14,0.18,0.19,0.19
51.47,0.18,-0.01,0.17,-0.02,0.02,-0.06,0.11,0.20,0.19,0.19
51.99,0.19,0.01,0.18,0.01,0.00,-0.08,0.08,0.19,0.18,0.18
52.51,0.19,0.02,0.19,0.02,-0.02,-0.10,0.05,0.17,0.17,0.17
53.03,0.19,0.03,0.19,0.03,-0.03,-0.12,0.03,0.16,0.16,0.16
53.56,0.19,0.03,0.20,0.05,-0.05,-0.14,-0.00,0.14,0.15,0.16
54.10,0.23,0.08,0.22,0.07,-0.06,-0.17,-0.03,0.17,0.15,0.15
54.64,0.23,0.09,0.23,0.09,-0.08,-0.19,-0.06,0.15,0.15,0.14
55.18,0.23,0.10,0.23,0.10,-0.10,-0.21,-0.08,0.13,0.14,0.13
55.74,0.23,0.11,0.23,0.10,-0.12,-0.23,-0.11,0.11,0.11,0.12
56.29,0.23,0.12,0.23,0.12,-0.13,-0.25,-0.14,0.10,0.10,0.11
56.86,0.23,0.13,0.25,0.15,-0.15,-0.27,-0.16,0.08,0.09,0.10
57.42,0.28,0.19,0.26,0.17,-0.17,-0.30,-0.19,0.11,0.10,0.09
58.00,0.28,0.20,0.28,0.20,-0.18,-0.32,-0.21,0.10,0.09,0.08
58.58,0.28,0.21,0.28,0.22,-0.20,-0.34,-0.24,0.08,0.08,0.07
59.16,0.28,0.22,0.28,0.22,-0.22,-0.36,-0.26,0.06,0.06,0.06
59.76,0.28,0.24,0.28,0.23,-0.25,-0.38,-0.29,0.03,0.03,0.04
60.35,0.28,0.25,0.28,0.25,-0.27,-0.40,-0.31,0.01,0.02,0.03
60.96,0.29,0.27,0.30,0.28,-0.29,-0.43,-0.34,0.00,0.01,0.02
61.57,0.32,0.32,0.31,0.31,-0.30,-0.45,-0.36,0.01,0.01,0.00
62.18,0.33,0.34,0.33,0.34,-0.32,-0.47,-0.38,0.01,0.00,-0.01
62.80,0.33,0.35,0.33,0.36,-0.34,-0.49,-0.40,-0.01,-0.01,-0.02
63.43,0.33,0.37,0.33,0.37,-0.37,-0.52,-0.43,-0.04,-0.03,-0.04
64.07,0.33,0.39,0.33,0.39,-0.39,-0.54,-0.45,-0.06,-0.06,-0.06
64.71,0.33,0.40,0.33,0.40,-0.41,-0.56,-0.47,-0.08,-0.08,-0.07
65.35,0.33,0.42,0.33,0.42,-0.43,-0.58,-0.49,-0.10,-0.10,-0.09
66.01,0.33,0.43,0.34,0.45,-0.45,-0.61,-0.51,-0.12,-0.11,-0.10
66.67,0.36,0.48,0.35,0.48,-0.47,-0.63,-0.53,-0.11,-0.12,-0.12
67.33,0.37,0.51,0.37,0.51,-0.50,-0.65,-0.56,-0.13,-0.13,-0.14
68.01,0.37,0.53,0.37,0.53,-0.52,-0.68,-0.58,-0.15,-0.15,-0.16
68.69,0.37,0.55,0.37,0.55,-0.54,-0.70,-0.60,-0.17,-0.17,-0.18
69.37,0.37,0.57,0.37,0.57,-0.57,-0.72,-0.62,-0.20,-0.20,-0.20
70.07,0.37,0.59,0.37,0.59,-0.59,-0.75,-0.64,-0.22,-0.22,-0.22
70.77,0.37,0.61,0.37,0.61,-0.62,-0.77,-0.66,-0.25,-0.25,-0.24
71.48,0.37,0.63,0.37,0.63,-0.64,-0.79,-0.69,-0.27,-0.27,-0.26
72.19,0.37,0.65,0.38,0.66,-0.67,-0.82,-0.71,-0.30,-0.29,-0.28
72.91,0.40,0.71,0.39,0.70,-0.70,-0.84,-0.73,-0.30,-0.31,-0.31
73.64,0.41,0.74,0.41,0.74,-0.73,-0.87,-0.75,-0.32,-0.32,-0.33
74.38,0.42,0.77,0.42,0.77,-0.76,-0.89,-0.78,-0.34,-0.34,-0.35
75.12,0.42,0.80,0.42,0.80,-0.79,-0.92,-0.80,-0.37,-0.37,-0.38
75.87,0.42,0.82,0.42,0.83,-0.82,-0.94,-0.82,-0.40,-0.40,-0.40
76.63,0.42,0.85,0.42,0.85,-0.85,-0.97,-0.85,-0.43,-0.43,-0.43
77.40,0.42,0.88,0.42,0.88,-0.88,-0.99,-0.88,-0.46,-0.46,-0.46
78.17,0.42,0.90,0.42,0.90,-0.91,-1.02,-0.90,-0.49,-0.49,-0.48
78.95,0.42,0.93,0.42,0.93,-0.93,-1.04,-0.93,-0.51,-0.51,-0.51
79.74,0.42,0.96,0.42,0.96,-0.96,-1.07,-0.96,-0.54,-0.54,-0.54
80.54,0.42,0.99,0.42,0.99,-0.99,-1.09,-0.98,-0.57,-0.57,-0.57
81.35,0.42,1.02,0.42,1.02,-1.02,-1.12,-1.01,-0.60,-0.60,-0.60
82.16,0.42,1.05,0.42,1.05,-1.05,-1.14,-1.04,-0.63,-0.63,-0.63
82.98,0.42,1.08,0.42,1.08,-1.08,-1.17,-1.07,-0.66,-0.66,-0.66
83.81,0.42,1.11,0.42,1.11,-1.11,-1.20,-1.11,-0.69,-0.69,-0.69
84.65,0.42,1.14,0.42,1.14,-1.14,-1.22,-1.14,-0.72,-0.72,-0.72
85.50,0.42,1.17,0.42,1.17,-1.17,-1.25,-1.17,-0.75,-0.75,-0.75
86.35,0.42,1.20,0.42,1.20,-1.20,-1.28,-1.21,-0.78,-0.78,-0.78
87.22,0.42,1.24,0.42,1.24,-1.24,-1.30,-1.24,-0.82,-0.82,-0.82
88.09,0.42,1.27,0.42,1.27,-1.27,-1.33,-1.28,-0.85,-0.85,-0.85
88.97,0.42,1.30,0.42,1.30,-1.30,-1.36,-1.32,-0.88,-0.88,-0.88
89.86,0.42,1.34,0.42,1.34,-1.34,-1.38,-1.35,-0.92,-0.92,-0.92
90.76,0.42,1.37,0.42,1.37,-1.37,-1.41,-1.39,-0.95,-0.95,-0.95
91.66,0.42,1.41,0.42,1.41,-1.41,-1.44,-1.44,-0.99,-0.99,-0.99
92.58,0.42,1.44,0.42,1.44,-1.44,-1.46,-1.48,-1.02,-1.02,-1.02
93.51,0.42,1.48,0.42,1.48,-1.48,-1.49,-1.52,-1.06,-1.06,-1.06
94.44,0.42,1.52,0.42,1.52,-1.52,-1.52,-1.56,-1.10,-1.10,-1.10
95.39,0.42,1.55,0.42,1.55,-1.55,-1.55,-1.61,-1.13,-1.13,-1.13
96.34,0.42,1.59,0.42,1.59,-1.59,-1.58,-1.65,-1.17,-1.17,-1.17
97.30,0.42,1.63,0.42,1.63,-1.63,-1.60,-1.70,-1.21,-1.21,-1.21
98.28,0.42,1.66,0.42,1.66,-1.66,-1.63,-1.74,-1.24,-1.24,-1.24
99.26,0.42,1.70,0.42,1.70,-1.70,-1.66,-1.79,-1.28,-1.28,-1.28
100.25,0.42,1.74,0.42,1.74,-1.74,-1.69,-1.84,-1.32,-1.32,-1.32
101.25,0.42,1.78,0.42,1.78,-1.78,-1.71,-1.89,-1.36,-1.36,-1.36
102.27,0.42,1.82,0.42,1.82,-1.82,-1.74,-1.93,-1.40,-1.40,-1.40
103.29,0.42,1.85,0.42,1.85,-1.85,-1.77,-1.98,-1.43,-1.43,-1.43
104.32,0.42,1.89,0.42,1.89,-1.89,-1.80,-2.03,-1.47,-1.47,-1.47
105.37,0.42,1.93,0.42,1.93,-1.92,-1.83,-2.08,-1.50,-1.50,-1.51
106.42,0.42,1.97,0.41,1.96,-1.95,-1.85,-2.12,-1.53,-1.54,-1.55
107.48,0.41,2.00,0.40,1.99,-1.99,-1.88,-2.17,-1.58,-1.59,-1.59
108.56,0.37,1.99,0.38,2.01,-2.02,-1.91,-2.22,-1.65,-1.63,-1.62
109.64,0.37,2.03,0.37,2.03,-2.04,-1.94,-2.26,-1.67,-1.67,-1.66
110.74,0.37,2.07,0.37,2.07,-2.07,-1.96,-2.31,-1.70,-1.71,-1.70
111.85,0.37,2.11,0.37,2.11,-2.10,-1.99,-2.35,-1.73,-1.73,-1.74
112.97,0.37,2.14,0.37,2.14,-2.13,-2.02,-2.39,-1.76,-1.77,-1.77
114.10,0.36,2.17,0.35,2.16,-2.16,-2.04,-2.43,-1.80,-1.81,-1.81
115.24,0.33,2.18,0.34,2.19,-2.19,-2.07,-2.46,-1.86,-1.85,-1.85
116.39,0.33,2.21,0.33,2.22,-2.22,-2.10,-2.50,-1.89,-1.89,-1.88
117.55,0.33,2.25,0.33,2.25,-2.25,-2.12,-2.53,-1.92,-1.92,-1.92
118.73,0.33,2.29,0.33,2.29,-2.28,-2.15,-2.56,-1.95,-1.95,-1.96
119.92,0.33,2.32,0.32,2.31,-2.30,-2.18,-2.58,-1.97,-1.99,-1.99
121.12,0.29,2.32,0.30,2.33,-2.33,-2.20,-2.61,-2.04,-2.03,-2.03
122.33,0.28,2.34,0.29,2.35,-2.36,-2.23,-2.63,-2.08,-2.07,-2.06
123.55,0.28,2.38,0.28,2.38,-2.38,-2.25,-2.64,-2.10,-2.10,-2.10
124.79,0.28,2.41,0.28,2.41,-2.40,-2.28,-2.65,-2.12,-2.13,-2.13
126.03,0.28,2.44,0.26,2.43,-2.43,-2.30,-2.66,-2.15,-2.16,-2.17
127.29,0.23,2.43,0.25,2.44,-2.45,-2.33,-2.67,-2.22,-2.20,-2.20
128.57,0.23,2.46,0.24,2.47,-2.47,-2.35,-2.67,-2.24,-2.23,-2.23
129.85,0.23,2.49,0.22,2.49,-2.49,-2.37,-2.67,-2.26,-2.27,-2.26
131.15,0.23,2.52,0.22,2.51,-2.51,-2.39,-2.67,-2.28,-2.29,-2.29
132.46,0.19,2.52,0.21,2.53,-2.53,-2.42,-2.67,-2.34,-2.32,-2.33
133.79,0.19,2.55,0.19,2.55,-2.55,-2.44,-2.66,-2.36,-2.35,-2.36
135.12,0.19,2.58,0.18,2.56,-2.57,-2.46,-2.65,-2.38,-2.39,-2.39
136.48,0.17,2.59,0.17,2.58,-2.58,-2.48,-2.63,-2.41,-2.42,-2.42
137.84,0.14,2.58,0.16,2.60,-2.60,-2.50,-2.62,-2.46,-2.44,-2.44
139.22,0.14,2.61,0.14,2.61,-2.61,-2.52,-2.60,-2.47,-2.47,-2.47
140.61,0.14,2.64,0.12,2.62,-2.62,-2.54,-2.58,-2.48,-2.50,-2.50
142.02,0.09,2.62,0.11,2.64,-2.64,-2.56,-2.56,-2.55,-2.53,-2.53
143.44,0.09,2.64,0.09,2.65,-2.65,-2.57,-2.54,-2.56,-2.56,-2.55
144.87,0.09,2.67,0.07,2.65,-2.66,-2.59,-2.52,-2.57,-2.59,-2.58
146.32,0.05,2.66,0.07,2.67,-2.67,-2.61,-2.50,-2.62,-2.60,-2.61
147.78,0.05,2.68,0.05,2.68,-2.68,-2.62,-2.48,-2.63,-2.63,-2.63
149.26,0.05,2.71,0.03,2.69,-2.69,-2.64,-2.45,-2.64,-2.66,-2.66
150.75,0.01,2.69,0.02,2.70,-2.70,-2.65,-2.43,-2.69,-2.67,-2.68
152.26,0.00,2.70,0.00,2.70,-2.70,-2.66,-2.41,-2.70,-2.70,-2.70
153.78,-0.00,2.72,-0.02,2.70,-2.71,-2.68,-2.39,-2.71,-2.73,-2.72
155.32,-0.05,2.70,-0.03,2.71,-2.71,-2.69,-2.37,-2.76,-2.75,-2.75
156.88,-0.05,2.72,-0.05,2.71,-2.72,-2.70,-2.35,-2.77,-2.77,-2.77
158.44,-0.06,2.73,-0.07,2.72,-2.72,-2.71,-2.33,-2.78,-2.79,-2.79
160.03,-0.09,2.72,-0.08,2.73,-2.72,-2.72,-2.31,-2.81,-2.80,-2.81
161.63,-0.09,2.74,-0.10,2.72,-2.72,-2.73,-2.29,-2.81,-2.83,-2.83
163.24,-0.13,2.72,-0.12,2.73,-2.73,-2.74,-2.28,-2.86,-2.84,-2.85
164.88,-0.14,2.72,-0.14,2.73,-2.73,-2.74,-2.26,-2.87,-2.86,-2.86
166.53,-0.14,2.74,-0.16,2.73,-2.73,-2.75,-2.25,-2.87,-2.88,-2.88
168.19,-0.19,2.71,-0.18,2.72,-2.72,-2.75,-2.24,-2.91,-2.90,-2.90
169.87,-0.19,2.73,-0.20,2.72,-2.72,-2.76,-2.23,-2.91,-2.92,-2.92
171.57,-0.23,2.70,-0.22,2.72,-2.72,-2.76,-2.22,-2.95,-2.94,-2.93
173.29,-0.23,2.72,-0.23,2.72,-2.72,-2.76,-2.22,-2.95,-2.95,-2.95
175.02,-0.23,2.73,-0.25,2.72,-2.71,-2.77,-2.21,-2.94,-2.96,-2.96
176.77,-0.28,2.70,-0.26,2.71,-2.71,-2.77,-2.21,-2.99,-2.97,-2.98
178.54,-0.28,2.71,-0.29,2.70,-2.70,-2.77,-2.21,-2.98,-2.99,-2.99
180.32,-0.32,2.69,-0.31,2.69,-2.70,-2.77,-2.21,-3.02,-3.01,-3.01
182.13,-0.33,2.69,-0.33,2.69,-2.69,-2.77,-2.21,-3.02,-3.02,-3.02
183.95,-0.34,2.69,-0.35,2.69,-2.69,-2.76,-2.22,-3.03,-3.03,-3.03
185.79,-0.37,2.68,-0.36,2.68,-2.68,-2.76,-2.22,-3.05,-3.04,-3.05
187.65,-0.37,2.69,-0.38,2.67,-2.67,-2.76,-2.23,-3.04,-3.06,-3.06
189.52,-0.41,2.66,-0.40,2.67,-2.67,-2.75,-2.24,-3.08,-3.07,-3.07
191.42,-0.42,2.66,-0.42,2.66,-2.66,-2.74,-2.25,-3.08,-3.08,-3.08
193.33,-0.43,2.66,-0.44,2.65,-2.65,-2.74,-2.26,-3.08,-3.09,-3.09
195.27,-0.47,2.63,-0.46,2.64,-2.64,-2.73,-2.28,-3.11,-3.10,-3.10
197.22,-0.47,2.64,-0.48,2.63,-2.63,-2.72,-2.29,-3.10,-3.11,-3.11
199.19,-0.51,2.61,-0.50,2.62,-2.62,-2.71,-2.31,-3.13,-3.12,-3.12
201.18,-0.51,2.62,-0.52,2.61,-2.61,-2.71,-2.32,-3.12,-3.13,-3.13
203.19,-0.55,2.59,-0.54,2.60,-2.60,-2.69,-2.34,-3.15,-3.14,-3.14
205.23,-0.56,2.59,-0.56,2.59,-2.59,-2.68,-2.36,-3.15,-3.15,-3.15
207.28,-0.57,2.58,-0.58,2.58,-2.57,-2.67,-2.38,-3.14,-3.15,-3.15
209.35,-0.61,2.55,-0.60,2.56,-2.56,-2.66,-2.40,-3.17,-3.16,-3.16
211.44,-0.61,2.56,-0.62,2.55,-2.55,-2.65,-2.42,-3.16,-3.17,-3.17
213.56,-0.65,2.53,-0.64,2.54,-2.54,-2.63,-2.44,-3.19,-3.18,-3.18
215.69,-0.65,2.53,-0.66,2.53,-2.53,-2.62,-2.46,-3.18,-3.19,-3.18
217.85,-0.68,2.51,-0.68,2.51,-2.52,-2.61,-2.48,-3.20,-3.19,-3.19
220.03,-0.70,2.50,-0.69,2.50,-2.50,-2.59,-2.50,-3.20,-3.20,-3.20
222.23,-0.70,2.50,-0.71,2.49,-2.49,-2.58,-2.52,-3.19,-3.20,-3.20
224.45,-0.74,2.47,-0.73,2.48,-2.47,-2.56,-2.53,-3.21,-3.20,-3.21
226.70,-0.74,2.47,-0.75,2.46,-2.46,-2.54,-2.55,-3.20,-3.21,-3.21
228.96,-0.79,2.43,-0.78,2.44,-2.44,-2.53,-2.57,-3.23,-3.22,-3.22
231.25,-0.79,2.43,-0.80,2.42,-2.43,-2.51,-2.58,-3.22,-3.23,-3.22
233.57,-0.83,2.40,-0.82,2.41,-2.41,-2.49,-2.59,-3.24,-3.24,-3.23
235.90,-0.84,2.39,-0.84,2.39,-2.40,-2.47,-2.60,-3.24,-3.24,-3.23
238.26,-0.85,2.39,-0.86,2.38,-2.38,-2.46,-2.61,-3.23,-3.24,-3.24
240.64,-0.88,2.36,-0.87,2.37,-2.37,-2.44,-2.61,-3.25,-3.24,-3.24
243.05,-0.88,2.37,-0.89,2.35,-2.35,-2.42,-2.62,-3.23,-3.24,-3.25
245.48,-0.93,2.32,-0.91,2.34,-2.34,-2.40,-2.62,-3.27,-3.25,-3.25
247.93,-0.93,2.32,-0.94,2.32,-2.32,-2.38,-2.61,-3.25,-3.26,-3.25
250.41,-0.95,2.31,-0.95,2.30,-2.31,-2.36,-2.61,-3.26,-3.26,-3.26
252.92,-0.98,2.28,-0.97,2.29,-2.29,-2.34,-2.60,-3.27,-3.26,-3.26
255.45,-0.98,2.28,-0.99,2.27,-2.27,-2.32,-2.59,-3.25,-3.26,-3.26
258.00,-1.02,2.25,-1.01,2.26,-2.26,-2.30,-2.58,-3.28,-3.27,-3.27
260.58,-1.02,2.25,-1.03,2.24,-2.24,-2.28,-2.56,-3.26,-3.27,-3.27
263.19,-1.05,2.22,-1.05,2.23,-2.22,-2.26,-2.55,-3.27,-3.27,-3.27
265.82,-1.07,2.20,-1.06,2.21,-2.21,-2.24,-2.53,-3.28,-3.27,-3.27
268.48,-1.07,2.21,-1.09,2.19,-2.19,-2.22,-2.50,-3.26,-3.28,-3.28
271.16,-1.12,2.16,-1.10,2.18,-2.18,-2.20,-2.48,-3.30,-3.28,-3.28
273.87,-1.12,2.16,-1.12,2.16,-2.16,-2.18,-2.45,-3.28,-3.28,-3.28
276.61,-1.13,2.15,-1.14,2.15,-2.14,-2.16,-2.43,-3.27,-3.28,-3.28
279.38,-1.16,2.12,-1.15,2.13,-2.13,-2.14,-2.40,-3.29,-3.28,-3.28
282.17,-1.16,2.13,-1.18,2.11,-2.11,-2.12,-2.37,-3.27,-3.29,-3.29
284.99,-1.21,2.08,-1.19,2.10,-2.10,-2.10,-2.33,-3.31,-3.29,-3.29
287.84,-1.21,2.08,-1.21,2.08,-2.08,-2.08,-2.30,-3.29,-3.29,-3.29
290.72,-1.21,2.08,-1.23,2.06,-2.06,-2.06,-2.27,-3.27,-3.29,-3.29
293.63,-1.26,2.03,-1.25,2.05,-2.04,-2.04,-2.23,-3.30,-3.29,-3.29
296.57,-1.26,2.03,-1.27,2.02,-2.03,-2.02,-2.20,-3.29,-3.30,-3.29
299.53,-1.30,1.99,-1.29,2.01,-2.01,-2.00,-2.17,-3.31,-3.30,-3.29
302.53,-1.30,1.99,-1.30,1.99,-1.99,-1.98,-2.13,-3.29,-3.29,-3.29
305.55,-1.30,2.00,-1.32,1.97,-1.98,-1.96,-2.10,-3.28,-3.30,-3.30
308.61,-1.35,1.95,-1.33,1.97,-1.96,-1.95,-2.07,-3.31,-3.29,-3.30
311.69,-1.35,1.95,-1.35,1.95,-1.94,-1.93,-2.03,-3.29,-3.29,-3.30
314.81,-1.35,1.95,-1.37,1.93,-1.93,-1.91,-2.00,-3.28,-3.30,-3.30
317.96,-1.40,1.90,-1.38,1.92,-1.91,-1.89,-1.97,-3.31,-3.30,-3.30
321.14,-1.40,1.90,-1.40,1.90,-1.90,-1.87,-1.94,-3.30,-3.30,-3.30
324.35,-1.41,1.89,-1.42,1.88,-1.88,-1.85,-1.91,-3.29,-3.31,-3.30
327.59,-1.44,1.86,-1.42,1.87,-1.87,-1.84,-1.88,-3.31,-3.29,-3.30
330.87,-1.44,1.86,-1.44,1.86,-1.85,-1.82,-1.86,-3.29,-3.30,-3.30
334.18,-1.44,1.86,-1.46,1.84,-1.84,-1.80,-1.83,-3.28,-3.30,-3.30
337.52,-1.49,1.81,-1.47,1.83,-1.82,-1.79,-1.80,-3.31,-3.29,-3.30
340.90,-1.49,1.81,-1.49,1.81,-1.81,-1.77,-1.78,-3.30,-3.30,-3.30
344.30,-1.49,1.81,-1.51,1.79,-1.79,-1.76,-1.76,-3.28,-3.31,-3.30
347.75,-1.54,1.76,-1.52,1.78,-1.78,-1.74,-1.74,-3.32,-3.30,-3.30
351.23,-1.54,1.76,-1.53,1.77,-1.77,-1.73,-1.72,-3.31,-3.30,-3.30
354.74,-1.54,1.76,-1.55,1.75,-1.75,-1.71,-1.70,-3.29,-3.30,-3.30
358.28,-1.54,1.76,-1.55,1.75,-1.74,-1.70,-1.68,-3.28,-3.30,-3.30
361.87,-1.58,1.72,-1.57,1.73,-1.73,-1.68,-1.66,-3.31,-3.30,-3.30
365.49,-1.58,1.72,-1.57,1.72,-1.72,-1.67,-1.65,-3.30,-3.29,-3.30
369.14,-1.58,1.72,-1.58,1.71,-1.71,-1.66,-1.63,-3.29,-3.30,-3.30
372.83,-1.58,1.72,-1.59,1.70,-1.70,-1.64,-1.62,-3.28,-3.29,-3.30
376.56,-1.62,1.68,-1.61,1.69,-1.69,-1.63,-1.61,-3.31,-3.30,-3.30
380.33,-1.63,1.67,-1.62,1.67,-1.68,-1.62,-1.60,-3.31,-3.30,-3.30
384.13,-1.63,1.67,-1.63,1.67,-1.67,-1.61,-1.59,-3.30,-3.30,-3.30
387.97,-1.63,1.67,-1.63,1.67,-1.66,-1.60,-1.58,-3.29,-3.29,-3.30
391.85,-1.63,1.67,-1.64,1.65,-1.65,-1.59,-1.58,-3.28,-3.29,-3.30
395.77,-1.66,1.63,-1.66,1.64,-1.64,-1.58,-1.57,-3.30,-3.30,-3.29
399.73,-1.68,1.61,-1.67,1.62,-1.63,-1.57,-1.57,-3.31,-3.30,-3.29
403.72,-1.68,1.61,-1.68,1.61,-1.62,-1.56,-1.56,-3.30,-3.30,-3.29
407.76,-1.68,1.61,-1.68,1.61,-1.61,-1.55,-1.56,-3.29,-3.29,-3.29
411.84,-1.68,1.61,-1.68,1.61,-1.60,-1.54,-1.56,-3.28,-3.28,-3.29
415.96,-1.68,1.61,-1.69,1.60,-1.59,-1.54,-1.56,-3.27,-3.28,-3.29
420.12,-1.71,1.58,-1.70,1.59,-1.59,-1.53,-1.56,-3.30,-3.29,-3.29
424.32,-1.72,1.57,-1.72,1.57,-1.58,-1.52,-1.56,-3.30,-3.30,-3.29
428.56,-1.72,1.57,-1.72,1.57,-1.58,-1.52,-1.56,-3.30,-3.30,-3.29
432.85,-1.72,1.57,-1.72,1.57,-1.57,-1.51,-1.56,-3.29,-3.29,-3.29
437.18,-1.72,1.57,-1.72,1.57,-1.57,-1.51,-1.57,-3.29,-3.29,-3.29
441.55,-1.72,1.57,-1.72,1.57,-1.56,-1.50,-1.57,-3.28,-3.28,-3.29
445.96,-1.72,1.57,-1.72,1.57,-1.56,-1.50,-1.58,-3.28,-3.28,-3.29
450.42,-1.72,1.56,-1.72,1.56,-1.56,-1.50,-1.58,-3.28,-3.28,-3.28
454.93,-1.72,1.56,-1.72,1.56,-1.56,-1.50,-1.58,-3.28,-3.28,-3.28
459.48,-1.72,1.56,-1.72,1.56,-1.56,-1.49,-1.59,-3.28,-3.28,-3.28
464.07,-1.72,1.56,-1.72,1.56,-1.56,-1.49,-1.59,-3.28,-3.28,-3.28
468.71,-1.72,1.56,-1.72,1.56,-1.56,-1.49,-1.60,-3.28,-3.28,-3.28
