frequency,raw,error,smoothed,error_smoothed,equalization,parametric_eq,fixed_band_eq,equalized_raw,equalized_smoothed,target
20.00,4.03,-2.94,4.03,-2.93,2.93,2.91,0.19,6.96,6.97,6.96
20.20,4.08,-2.88,4.07,-2.88,2.89,2.84,0.19,6.96,6.96,6.95
20.40,4.12,-2.84,4.12,-2.83,2.83,2.78,0.20,6.95,6.95,6.95
20.61,4.17,-2.78,4.17,-2.78,2.78,2.72,0.21,6.95,6.95,6.94
20.81,4.22,-2.72,4.22,-2.73,2.72,2.65,0.22,6.94,6.94,6.94
21.02,4.27,-2.67,4.27,-2.66,2.66,2.59,0.22,6.93,6.93,6.94
21.23,4.33,-2.59,4.32,-2.60,2.60,2.53,0.23,6.93,6.92,6.92
21.44,4.37,-2.53,4.37,-2.53,2.53,2.46,0.24,6.90,6.90,6.90
21.66,4.42,-2.46,4.42,-2.46,2.46,2.40,0.25,6.88,6.88,6.88
21.87,4.47,-2.38,4.47,-2.38,2.38,2.33,0.26,6.85,6.86,6.85
22.09,4.53,-2.30,4.52,-2.31,2.31,2.27,0.27,6.84,6.83,6.83
22.31,4.58,-2.23,4.58,-2.23,2.23,2.21,0.28,6.81,6.81,6.81
22.54,4.63,-2.15,4.63,-2.15,2.15,2.14,0.29,6.78,6.78,6.78
22.76,4.69,-2.06,4.68,-2.07,2.07,2.08,0.30,6.76,6.75,6.75
22.99,4.73,-1.99,4.73,-1.99,1.99,2.01,0.31,6.72,6.72,6.72
23.22,4.78,-1.91,4.78,-1.91,1.91,1.95,0.32,6.69,6.70,6.69
23.45,4.84,-1.83,4.83,-1.83,1.84,1.89,0.33,6.68,6.67,6.67
23.69,4.89,-1.76,4.89,-1.76,1.76,1.82,0.34,6.65,6.65,6.65
23.92,4.94,-1.69,4.94,-1.69,1.69,1.76,0.35,6.63,6.63,6.63
24.16,5.00,-1.62,4.99,-1.62,1.62,1.69,0.36,6.62,6.61,6.62
24.40,5.04,-1.56,5.04,-1.55,1.55,1.63,0.37,6.58,6.59,6.60
24.65,5.10,-1.48,5.10,-1.48,1.47,1.57,0.38,6.57,6.57,6.58
24.89,5.15,-1.41,5.15,-1.40,1.40,1.50,0.39,6.55,6.55,6.55
25.14,5.21,-1.33,5.21,-1.33,1.33,1.44,0.40,6.54,6.54,6.53
25.39,5.26,-1.25,5.26,-1.26,1.26,1.38,0.42,6.52,6.52,6.51
25.65,5.31,-1.20,5.31,-1.19,1.19,1.31,0.43,6.50,6.50,6.50
25.91,5.36,-1.12,5.36,-1.12,1.12,1.25,0.44,6.48,6.48,6.47
26.16,5.41,-1.05,5.41,-1.05,1.05,1.19,0.45,6.46,6.46,6.46
26.43,5.46,-0.98,5.46,-0.98,0.99,1.13,0.46,6.45,6.45,6.44
26.69,5.51,-0.92,5.51,-0.92,0.92,1.06,0.47,6.43,6.43,6.43
26.96,5.55,-0.86,5.55,-0.86,0.86,1.00,0.47,6.41,6.41,6.41
27.23,5.60,-0.80,5.60,-0.80,0.80,0.94,0.48,6.39,6.39,6.40
27.50,5.64,-0.74,5.64,-0.74,0.73,0.88,0.49,6.37,6.37,6.38
27.77,5.69,-0.67,5.69,-0.67,0.67,0.82,0.49,6.36,6.36,6.36
28.05,5.73,-0.62,5.73,-0.61,0.61,0.76,0.50,6.34,6.34,6.35
28.33,5.77,-0.55,5.77,-0.55,0.56,0.70,0.50,6.33,6.33,6.32
28.62,5.82,-0.49,5.81,-0.50,0.50,0.64,0.51,6.32,6.31,6.30
28.90,5.85,-0.45,5.85,-0.44,0.45,0.58,0.51,6.30,6.30,6.30
29.19,5.89,-0.39,5.89,-0.40,0.39,0.52,0.51,6.28,6.28,6.28
29.48,5.93,-0.35,5.93,-0.35,0.34,0.46,0.51,6.27,6.27,6.28
29.78,5.97,-0.29,5.97,-0.29,0.29,0.40,0.50,6.26,6.26,6.26
30.08,6.01,-0.24,6.01,-0.24,0.24,0.34,0.50,6.25,6.24,6.25
30.38,6.04,-0.19,6.04,-0.18,0.19,0.28,0.49,6.22,6.23,6.23
30.68,6.08,-0.13,6.08,-0.13,0.14,0.23,0.48,6.21,6.21,6.21
30.99,6.11,-0.08,6.11,-0.08,0.09,0.17,0.47,6.19,6.19,6.18
31.30,6.14,-0.04,6.14,-0.03,0.04,0.11,0.46,6.17,6.18,6.17
31.61,6.17,0.01,6.17,0.01,-0.01,0.06,0.45,6.16,6.15,6.16
31.93,6.19,0.06,6.19,0.06,-0.06,0.00,0.43,6.13,6.13,6.13
32.24,6.21,0.10,6.21,0.10,-0.10,-0.05,0.41,6.11,6.11,6.11
32.57,6.23,0.14,6.23,0.14,-0.14,-0.11,0.39,6.09,6.09,6.09
32.89,6.25,0.17,6.25,0.18,-0.18,-0.16,0.37,6.07,6.07,6.08
33.22,6.28,0.23,6.27,0.22,-0.22,-0.21,0.35,6.05,6.05,6.04
33.55,6.29,0.26,6.29,0.26,-0.26,-0.26,0.32,6.02,6.03,6.03
33.89,6.31,0.31,6.31,0.30,-0.31,-0.31,0.30,6.00,6.00,6.00
34.23,6.33,0.34,6.33,0.35,-0.35,-0.36,0.27,5.98,5.98,5.99
34.57,6.35,0.39,6.35,0.39,-0.39,-0.41,0.24,5.96,5.96,5.96
34.92,6.37,0.43,6.37,0.43,-0.43,-0.46,0.21,5.94,5.94,5.93
35.27,6.39,0.47,6.39,0.47,-0.47,-0.51,0.17,5.92,5.92,5.92
35.62,6.41,0.51,6.41,0.51,-0.51,-0.56,0.14,5.90,5.90,5.90
35.97,6.42,0.55,6.42,0.54,-0.55,-0.61,0.10,5.87,5.88,5.87
36.33,6.44,0.58,6.43,0.58,-0.58,-0.65,0.07,5.86,5.85,5.85
36.70,6.44,0.61,6.44,0.62,-0.62,-0.70,0.03,5.82,5.83,5.83
37.06,6.46,0.66,6.46,0.65,-0.65,-0.74,-0.01,5.81,5.81,5.80
37.43,6.47,0.68,6.47,0.68,-0.68,-0.78,-0.05,5.79,5.79,5.79
37.81,6.48,0.71,6.48,0.72,-0.71,-0.83,-0.09,5.76,5.77,5.76
38.19,6.50,0.76,6.49,0.75,-0.75,-0.87,-0.13,5.75,5.74,5.74
38.57,6.50,0.77,6.50,0.78,-0.78,-0.91,-0.17,5.72,5.72,5.73
38.95,6.51,0.80,6.51,0.81,-0.81,-0.95,-0.22,5.70,5.70,5.71
39.34,6.52,0.84,6.52,0.84,-0.84,-0.99,-0.26,5.68,5.68,5.68
39.74,6.53,0.88,6.53,0.87,-0.87,-1.03,-0.30,5.66,5.66,5.65
40.14,6.54,0.90,6.54,0.90,-0.90,-1.06,-0.35,5.64,5.64,5.64
40.54,6.54,0.93,6.54,0.93,-0.93,-1.10,-0.39,5.61,5.61,5.61
40.94,6.56,0.96,6.55,0.96,-0.96,-1.13,-0.44,5.60,5.59,5.60
41.35,6.56,0.98,6.56,0.99,-0.98,-1.17,-0.49,5.57,5.58,5.57
41.76,6.58,1.02,6.58,1.02,-1.01,-1.20,-0.54,5.57,5.56,5.56
42.18,6.59,1.04,6.58,1.04,-1.04,-1.23,-0.58,5.55,5.54,5.55
42.60,6.59,1.07,6.59,1.06,-1.07,-1.26,-0.63,5.52,5.53,5.52
43.03,6.60,1.08,6.60,1.09,-1.10,-1.29,-0.68,5.50,5.50,5.52
43.46,6.61,1.12,6.61,1.12,-1.13,-1.32,-0.73,5.48,5.48,5.49
43.90,6.62,1.16,6.62,1.15,-1.16,-1.35,-0.78,5.46,5.46,5.46
44.33,6.63,1.20,6.63,1.19,-1.19,-1.38,-0.83,5.44,5.44,5.43
44.78,6.64,1.22,6.64,1.22,-1.22,-1.40,-0.89,5.42,5.42,5.42
45.23,6.65,1.26,6.65,1.26,-1.25,-1.43,-0.94,5.40,5.40,5.39
45.68,6.66,1.28,6.66,1.28,-1.28,-1.45,-0.99,5.38,5.38,5.38
46.13,6.67,1.32,6.67,1.31,-1.31,-1.47,-1.05,5.36,5.36,5.35
46.60,6.68,1.33,6.68,1.34,-1.34,-1.49,-1.10,5.34,5.34,5.34
47.06,6.69,1.36,6.69,1.36,-1.36,-1.52,-1.16,5.33,5.33,5.33
47.53,6.70,1.39,6.70,1.39,-1.39,-1.54,-1.21,5.31,5.31,5.31
48.01,6.71,1.41,6.71,1.42,-1.42,-1.55,-1.27,5.29,5.29,5.30
48.49,6.72,1.45,6.71,1.45,-1.45,-1.57,-1.32,5.27,5.26,5.27
48.97,6.72,1.48,6.72,1.48,-1.48,-1.59,-1.38,5.24,5.24,5.24
49.46,6.73,1.51,6.73,1.52,-1.51,-1.61,-1.44,5.21,5.21,5.21
49.96,6.74,1.55,6.74,1.55,-1.55,-1.62,-1.49,5.19,5.19,5.19
50.46,6.75,1.58,6.75,1.58,-1.58,-1.63,-1.55,5.17,5.17,5.17
50.96,6.76,1.61,6.76,1.61,-1.60,-1.65,-1.61,5.15,5.15,5.15
51.47,6.76,1.64,6.76,1.64,-1.63,-1.66,-1.66,5.13,5.13,5.12
51.99,6.77,1.67,6.76,1.66,-1.66,-1.67,-1.72,5.11,5.11,5.10
52.51,6.77,1.67,6.77,1.68,-1.68,-1.68,-1.78,5.08,5.08,5.09
53.03,6.77,1.69,6.77,1.70,-1.71,-1.69,-1.83,5.06,5.07,5.07
53.56,6.78,1.73,6.78,1.73,-1.73,-1.70,-1.89,5.05,5.05,5.04
54.10,6.79,1.76,6.78,1.75,-1.75,-1.71,-1.94,5.03,5.03,5.02
54.64,6.78,1.77,6.78,1.78,-1.78,-1.72,-1.99,5.00,5.01,5.00
55.18,6.78,1.79,6.78,1.80,-1.80,-1.73,-2.04,4.98,4.98,4.98
55.74,6.79,1.83,6.78,1.82,-1.82,-1.74,-2.09,4.97,4.96,4.96
56.29,6.78,1.84,6.79,1.85,-1.84,-1.74,-2.14,4.93,4.94,4.94
56.86,6.79,1.87,6.79,1.87,-1.86,-1.75,-2.18,4.93,4.92,4.92
57.42,6.79,1.89,6.78,1.88,-1.88,-1.75,-2.22,4.91,4.91,4.90
58.00,6.78,1.89,6.78,1.90,-1.89,-1.76,-2.26,4.88,4.89,4.88
58.58,6.78,1.91,6.78,1.91,-1.91,-1.76,-2.30,4.87,4.87,4.87
59.16,6.78,1.92,6.77,1.92,-1.92,-1.77,-2.33,4.85,4.85,4.86
59.76,6.77,1.93,6.77,1.93,-1.94,-1.77,-2.36,4.83,4.83,4.83
60.35,6.76,1.95,6.76,1.95,-1.95,-1.78,-2.39,4.81,4.81,4.81
60.96,6.75,1.95,6.75,1.96,-1.97,-1.78,-2.42,4.78,4.78,4.80
61.57,6.75,1.99,6.74,1.98,-1.98,-1.78,-2.44,4.77,4.76,4.76
62.18,6.74,2.00,6.74,2.00,-1.99,-1.79,-2.45,4.74,4.74,4.73
62.80,6.73,2.01,6.73,2.01,-2.01,-1.79,-2.47,4.72,4.72,4.72
63.43,6.72,2.03,6.71,2.02,-2.02,-1.79,-2.48,4.70,4.70,4.69
64.07,6.70,2.02,6.70,2.03,-2.03,-1.80,-2.49,4.67,4.68,4.67
64.71,6.69,2.03,6.69,2.03,-2.03,-1.80,-2.49,4.65,4.65,4.66
65.35,6.68,2.04,6.67,2.03,-2.04,-1.80,-2.49,4.64,4.63,4.64
66.01,6.66,2.04,6.66,2.04,-2.04,-1.80,-2.49,4.61,4.62,4.62
66.67,6.65,2.05,6.65,2.05,-2.05,-1.81,-2.48,4.60,4.60,4.60
67.33,6.64,2.06,6.63,2.05,-2.05,-1.81,-2.47,4.59,4.58,4.58
68.01,6.62,2.06,6.62,2.06,-2.05,-1.81,-2.46,4.56,4.56,4.56
68.69,6.60,2.06,6.60,2.06,-2.06,-1.82,-2.45,4.54,4.54,4.54
69.37,6.58,2.06,6.58,2.06,-2.06,-1.82,-2.43,4.52,4.52,4.52
70.07,6.57,2.07,6.56,2.06,-2.06,-1.82,-2.41,4.50,4.50,4.50
70.77,6.55,2.06,6.55,2.06,-2.07,-1.83,-2.39,4.48,4.48,4.49
71.48,6.53,2.07,6.53,2.07,-2.07,-1.83,-2.37,4.46,4.46,4.46
72.19,6.51,2.07,6.51,2.07,-2.07,-1.84,-2.35,4.44,4.44,4.44
72.91,6.49,2.08,6.49,2.08,-2.08,-1.84,-2.33,4.41,4.41,4.41
73.64,6.47,2.09,6.47,2.08,-2.08,-1.85,-2.30,4.39,4.39,4.38
74.38,6.44,2.07,6.44,2.08,-2.08,-1.85,-2.28,4.36,4.36,4.37
75.12,6.43,2.09,6.42,2.08,-2.08,-1.86,-2.26,4.35,4.34,4.34
75.87,6.40,2.08,6.40,2.08,-2.08,-1.86,-2.23,4.31,4.32,4.31
76.63,6.38,2.08,6.38,2.08,-2.08,-1.87,-2.21,4.29,4.29,4.30
77.40,6.35,2.08,6.35,2.09,-2.09,-1.88,-2.19,4.26,4.27,4.27
78.17,6.33,2.10,6.33,2.09,-2.09,-1.89,-2.17,4.24,4.24,4.23
78.95,6.31,2.09,6.30,2.09,-2.09,-1.89,-2.14,4.22,4.21,4.21
79.74,6.28,2.08,6.28,2.09,-2.09,-1.90,-2.12,4.18,4.19,4.19
80.54,6.26,2.09,6.26,2.09,-2.10,-1.91,-2.10,4.16,4.16,4.16
81.35,6.24,2.10,6.23,2.10,-2.10,-1.92,-2.08,4.14,4.13,4.13
82.16,6.21,2.10,6.21,2.11,-2.10,-1.93,-2.07,4.10,4.11,4.10
82.98,6.19,2.11,6.19,2.11,-2.11,-1.94,-2.05,4.08,4.08,4.08
83.81,6.16,2.12,6.16,2.11,-2.11,-1.95,-2.04,4.05,4.05,4.04
84.65,6.13,2.12,6.13,2.12,-2.11,-1.96,-2.02,4.01,4.01,4.01
85.50,6.10,2.11,6.10,2.12,-2.12,-1.98,-2.01,3.98,3.98,3.99
86.35,6.07,2.12,6.07,2.12,-2.12,-1.99,-2.00,3.95,3.95,3.95
87.22,6.04,2.12,6.04,2.12,-2.12,-2.00,-1.99,3.92,3.92,3.92
88.09,6.02,2.13,6.01,2.12,-2.12,-2.01,-1.98,3.90,3.89,3.89
88.97,5.99,2.13,5.98,2.13,-2.12,-2.03,-1.98,3.87,3.86,3.86
89.86,5.95,2.11,5.95,2.12,-2.12,-2.04,-1.97,3.82,3.83,3.84
90.76,5.92,2.13,5.92,2.12,-2.13,-2.05,-1.97,3.79,3.79,3.79
91.66,5.89,2.12,5.89,2.13,-2.13,-2.07,-1.97,3.76,3.76,3.76
92.58,5.86,2.14,5.86,2.13,-2.13,-2.08,-1.97,3.73,3.73,3.72
93.51,5.83,2.13,5.83,2.13,-2.14,-2.10,-1.97,3.69,3.70,3.70
94.44,5.81,2.14,5.80,2.14,-2.14,-2.11,-1.97,3.67,3.66,3.67
95.39,5.77,2.14,5.77,2.14,-2.15,-2.12,-1.98,3.62,3.62,3.63
96.34,5.74,2.16,5.74,2.15,-2.15,-2.14,-1.98,3.58,3.59,3.58
97.30,5.71,2.16,5.71,2.16,-2.16,-2.15,-1.99,3.55,3.55,3.54
98.28,5.68,2.17,5.68,2.17,-2.17,-2.17,-2.00,3.51,3.51,3.51
99.26,5.65,2.18,5.64,2.18,-2.17,-2.18,-2.01,3.47,3.47,3.47
100.25,5.61,2.18,5.61,2.18,-2.18,-2.20,-2.02,3.43,3.43,3.43
101.25,5.58,2.19,5.58,2.19,-2.19,-2.21,-2.03,3.39,3.39,3.39
102.27,5.55,2.19,5.54,2.19,-2.20,-2.23,-2.04,3.35,3.35,3.35
103.29,5.51,2.21,5.51,2.21,-2.20,-2.24,-2.06,3.30,3.31,3.30
104.32,5.48,2.21,5.48,2.22,-2.21,-2.26,-2.07,3.26,3.26,3.27
105.37,5.45,2.23,5.44,2.22,-2.22,-2.27,-2.09,3.23,3.22,3.22
106.42,5.41,2.23,5.41,2.23,-2.23,-2.28,-2.10,3.18,3.18,3.18
107.48,5.38,2.24,5.38,2.24,-2.24,-2.30,-2.12,3.14,3.14,3.14
108.56,5.35,2.26,5.34,2.25,-2.25,-2.31,-2.13,3.09,3.09,3.08
109.64,5.31,2.26,5.31,2.26,-2.27,-2.32,-2.15,3.04,3.05,3.05
110.74,5.28,2.28,5.28,2.28,-2.28,-2.33,-2.17,3.00,3.00,3.00
111.85,5.24,2.28,5.24,2.29,-2.29,-2.34,-2.18,2.95,2.95,2.96
112.97,5.21,2.32,5.21,2.30,-2.30,-2.35,-2.20,2.90,2.90,2.89
114.10,5.17,2.31,5.17,2.32,-2.32,-2.36,-2.21,2.85,2.85,2.86
115.24,5.14,2.33,5.14,2.33,-2.33,-2.37,-2.22,2.81,2.81,2.81
116.39,5.11,2.35,5.10,2.34,-2.34,-2.38,-2.24,2.77,2.76,2.76
117.55,5.07,2.35,5.07,2.35,-2.35,-2.38,-2.25,2.72,2.72,2.71
118.73,5.03,2.36,5.03,2.36,-2.36,-2.39,-2.26,2.67,2.67,2.67
119.92,5.00,2.37,5.00,2.37,-2.37,-2.39,-2.27,2.63,2.63,2.63
121.12,4.96,2.37,4.96,2.38,-2.37,-2.40,-2.28,2.58,2.59,2.59
122.33,4.93,2.39,4.93,2.38,-2.38,-2.40,-2.28,2.55,2.55,2.54
123.55,4.89,2.38,4.89,2.38,-2.39,-2.40,-2.29,2.50,2.50,2.51
124.79,4.86,2.39,4.86,2.39,-2.39,-2.40,-2.29,2.47,2.46,2.47
126.03,4.82,2.39,4.82,2.39,-2.40,-2.41,-2.29,2.42,2.42,2.43
127.29,4.79,2.41,4.79,2.40,-2.41,-2.41,-2.29,2.38,2.38,2.38
128.57,4.75,2.41,4.75,2.41,-2.41,-2.40,-2.29,2.34,2.34,2.34
129.85,4.73,2.43,4.72,2.42,-2.42,-2.40,-2.29,2.31,2.30,2.30
131.15,4.69,2.42,4.69,2.43,-2.42,-2.40,-2.29,2.27,2.27,2.26
132.46,4.66,2.43,4.66,2.43,-2.42,-2.40,-2.28,2.23,2.23,2.23
133.79,4.63,2.43,4.62,2.43,-2.43,-2.39,-2.28,2.20,2.20,2.20
135.12,4.59,2.43,4.59,2.42,-2.43,-2.39,-2.27,2.16,2.16,2.16
136.48,4.56,2.42,4.56,2.42,-2.42,-2.39,-2.26,2.14,2.13,2.14
137.84,4.52,2.41,4.52,2.42,-2.42,-2.38,-2.25,2.10,2.11,2.11
139.22,4.50,2.42,4.50,2.41,-2.41,-2.38,-2.24,2.09,2.08,2.08
140.61,4.47,2.42,4.47,2.41,-2.41,-2.37,-2.23,2.06,2.06,2.05
142.02,4.44,2.39,4.44,2.40,-2.40,-2.37,-2.22,2.04,2.04,2.04
143.44,4.41,2.39,4.41,2.39,-2.39,-2.37,-2.21,2.02,2.02,2.02
144.87,4.38,2.38,4.38,2.38,-2.38,-2.37,-2.20,2.00,2.00,2.00
146.32,4.36,2.38,4.36,2.37,-2.37,-2.37,-2.19,1.98,1.98,1.98
147.78,4.33,2.36,4.33,2.36,-2.37,-2.37,-2.18,1.96,1.96,1.97
149.26,4.31,2.36,4.30,2.36,-2.36,-2.37,-2.17,1.95,1.95,1.95
150.75,4.27,2.35,4.27,2.35,-2.35,-2.37,-2.16,1.92,1.93,1.92
152.26,4.25,2.35,4.25,2.35,-2.34,-2.37,-2.16,1.91,1.91,1.90
153.78,4.23,2.34,4.22,2.34,-2.34,-2.38,-2.15,1.89,1.89,1.89
155.32,4.20,2.33,4.20,2.33,-2.33,-2.38,-2.15,1.87,1.87,1.87
156.88,4.18,2.32,4.18,2.32,-2.33,-2.39,-2.14,1.85,1.85,1.85
158.44,4.15,2.32,4.15,2.32,-2.33,-2.39,-2.14,1.82,1.83,1.83
160.03,4.14,2.33,4.13,2.32,-2.32,-2.40,-2.14,1.81,1.81,1.81
161.63,4.11,2.33,4.11,2.33,-2.32,-2.41,-2.14,1.78,1.79,1.78
163.24,4.09,2.33,4.09,2.33,-2.33,-2.41,-2.14,1.76,1.77,1.76
164.88,4.08,2.33,4.07,2.33,-2.33,-2.42,-2.14,1.75,1.75,1.75
166.53,4.06,2.33,4.06,2.33,-2.33,-2.42,-2.14,1.73,1.73,1.73
168.19,4.04,2.34,4.04,2.33,-2.33,-2.43,-2.15,1.71,1.71,1.70
169.87,4.02,2.33,4.02,2.34,-2.34,-2.43,-2.16,1.68,1.68,1.68
171.57,4.00,2.34,4.00,2.34,-2.34,-2.44,-2.17,1.66,1.66,1.66
173.29,3.98,2.34,3.98,2.34,-2.35,-2.44,-2.18,1.63,1.63,1.64
175.02,3.97,2.36,3.96,2.36,-2.36,-2.44,-2.19,1.61,1.60,1.61
176.77,3.95,2.37,3.95,2.37,-2.37,-2.44,-2.21,1.58,1.58,1.58
178.54,3.93,2.39,3.93,2.39,-2.38,-2.44,-2.22,1.54,1.55,1.54
180.32,3.92,2.40,3.91,2.40,-2.40,-2.45,-2.24,1.52,1.52,1.51
182.13,3.90,2.41,3.89,2.41,-2.41,-2.44,-2.26,1.49,1.48,1.49
183.95,3.87,2.42,3.88,2.43,-2.43,-2.44,-2.28,1.44,1.45,1.45
185.79,3.86,2.44,3.86,2.44,-2.44,-2.44,-2.31,1.42,1.42,1.42
187.65,3.85,2.46,3.84,2.45,-2.45,-2.44,-2.33,1.40,1.39,1.39
189.52,3.82,2.45,3.83,2.46,-2.46,-2.43,-2.36,1.36,1.36,1.36
191.42,3.81,2.48,3.81,2.47,-2.47,-2.43,-2.38,1.34,1.34,1.33
193.33,3.79,2.48,3.79,2.48,-2.48,-2.42,-2.41,1.31,1.31,1.31
195.27,3.77,2.49,3.77,2.49,-2.49,-2.41,-2.44,1.28,1.28,1.28
197.22,3.74,2.48,3.75,2.50,-2.49,-2.41,-2.47,1.24,1.25,1.26
199.19,3.73,2.51,3.73,2.50,-2.50,-2.40,-2.51,1.23,1.23,1.22
201.18,3.72,2.51,3.71,2.51,-2.51,-2.39,-2.54,1.21,1.20,1.20
203.19,3.69,2.50,3.69,2.51,-2.51,-2.38,-2.57,1.18,1.18,1.18
205.23,3.67,2.51,3.67,2.51,-2.52,-2.37,-2.61,1.15,1.16,1.15
207.28,3.66,2.50,3.66,2.51,-2.52,-2.37,-2.64,1.14,1.14,1.15
209.35,3.65,2.52,3.65,2.53,-2.52,-2.36,-2.67,1.12,1.12,1.12
211.44,3.64,2.54,3.64,2.53,-2.53,-2.35,-2.71,1.11,1.11,1.10
213.56,3.62,2.53,3.62,2.53,-2.53,-2.34,-2.74,1.09,1.09,1.09
215.69,3.61,2.52,3.61,2.53,-2.53,-2.33,-2.77,1.08,1.08,1.09
217.85,3.59,2.52,3.59,2.52,-2.53,-2.32,-2.80,1.06,1.07,1.07
220.03,3.59,2.53,3.59,2.52,-2.52,-2.31,-2.83,1.07,1.06,1.06
222.23,3.58,2.52,3.58,2.52,-2.51,-2.30,-2.86,1.06,1.06,1.05
224.45,3.57,2.50,3.57,2.51,-2.50,-2.29,-2.88,1.07,1.07,1.07
226.70,3.56,2.49,3.56,2.49,-2.49,-2.29,-2.90,1.07,1.07,1.07
228.96,3.56,2.49,3.55,2.47,-2.48,-2.28,-2.92,1.08,1.07,1.07
231.25,3.54,2.45,3.54,2.46,-2.46,-2.27,-2.93,1.08,1.08,1.09
233.57,3.53,2.44,3.53,2.44,-2.44,-2.27,-2.94,1.08,1.09,1.09
235.90,3.53,2.43,3.52,2.42,-2.42,-2.26,-2.95,1.10,1.10,1.10
238.26,3.52,2.41,3.52,2.41,-2.40,-2.26,-2.95,1.12,1.12,1.11
240.64,3.51,2.38,3.51,2.39,-2.38,-2.26,-2.95,1.13,1.13,1.13
243.05,3.52,2.37,3.51,2.36,-2.36,-2.25,-2.94,1.16,1.15,1.15
245.48,3.50,2.33,3.50,2.34,-2.34,-2.25,-2.93,1.16,1.17,1.17
247.93,3.50,2.30,3.50,2.32,-2.32,-2.25,-2.91,1.18,1.19,1.19
250.41,3.51,2.31,3.50,2.29,-2.29,-2.26,-2.88,1.21,1.21,1.20
252.92,3.51,2.27,3.50,2.27,-2.27,-2.26,-2.86,1.24,1.23,1.23
255.45,3.50,2.24,3.51,2.25,-2.25,-2.26,-2.82,1.25,1.26,1.26
258.00,3.51,2.23,3.51,2.23,-2.23,-2.26,-2.78,1.28,1.28,1.28
260.58,3.52,2.22,3.51,2.21,-2.21,-2.27,-2.73,1.31,1.30,1.30
263.19,3.52,2.19,3.52,2.20,-2.19,-2.27,-2.68,1.33,1.33,1.33
265.82,3.52,2.18,3.52,2.17,-2.17,-2.27,-2.63,1.35,1.35,1.34
268.48,3.53,2.15,3.53,2.15,-2.16,-2.27,-2.57,1.37,1.37,1.38
271.16,3.54,2.13,3.54,2.13,-2.14,-2.27,-2.50,1.40,1.39,1.41
273.87,3.55,2.13,3.55,2.12,-2.13,-2.26,-2.43,1.42,1.42,1.42
276.61,3.56,2.11,3.56,2.12,-2.12,-2.25,-2.36,1.44,1.44,1.45
279.38,3.59,2.12,3.58,2.11,-2.12,-2.23,-2.29,1.47,1.47,1.46
282.17,3.60,2.11,3.60,2.11,-2.11,-2.21,-2.21,1.49,1.49,1.49
284.99,3.62,2.10,3.62,2.10,-2.11,-2.18,-2.12,1.51,1.51,1.52
287.84,3.64,2.09,3.64,2.09,-2.10,-2.14,-2.04,1.54,1.54,1.55
290.72,3.66,2.09,3.66,2.08,-2.09,-2.10,-1.95,1.57,1.57,1.57
293.63,3.67,2.07,3.67,2.07,-2.07,-2.05,-1.86,1.60,1.60,1.60
296.57,3.67,2.04,3.67,2.04,-2.03,-2.00,-1.77,1.63,1.63,1.63
299.53,3.66,2.00,3.66,2.00,-1.99,-1.94,-1.67,1.67,1.67,1.65
302.53,3.63,1.96,3.63,1.95,-1.93,-1.87,-1.58,1.70,1.70,1.67
305.55,3.59,1.87,3.59,1.88,-1.86,-1.80,-1.48,1.73,1.73,1.72
308.61,3.54,1.79,3.54,1.79,-1.78,-1.73,-1.39,1.76,1.76,1.75
311.69,3.48,1.69,3.48,1.69,-1.69,-1.65,-1.29,1.79,1.79,1.78
314.81,3.41,1.58,3.41,1.59,-1.59,-1.57,-1.19,1.82,1.82,1.83
317.96,3.33,1.48,3.33,1.48,-1.49,-1.49,-1.09,1.84,1.85,1.85
321.14,3.27,1.39,3.26,1.38,-1.39,-1.41,-0.99,1.88,1.87,1.88
324.35,3.19,1.28,3.19,1.29,-1.29,-1.33,-0.89,1.89,1.90,1.91
327.59,3.13,1.19,3.13,1.19,-1.21,-1.24,-0.80,1.92,1.92,1.93
330.87,3.08,1.12,3.07,1.11,-1.12,-1.16,-0.70,1.95,1.95,1.96
334.18,3.02,1.04,3.03,1.04,-1.05,-1.08,-0.60,1.97,1.97,1.98
337.52,2.99,0.99,2.98,0.98,-0.98,-1.00,-0.50,2.00,2.00,2.00
340.90,2.94,0.91,2.94,0.91,-0.92,-0.91,-0.40,2.02,2.02,2.03
344.30,2.90,0.85,2.90,0.86,-0.86,-0.83,-0.30,2.04,2.04,2.05
347.75,2.86,0.79,2.86,0.80,-0.79,-0.75,-0.20,2.07,2.07,2.06
351.23,2.83,0.75,2.82,0.74,-0.72,-0.67,-0.10,2.11,2.10,2.08
354.74,2.78,0.68,2.77,0.67,-0.65,-0.59,0.00,2.13,2.12,2.10
358.28,2.70,0.58,2.70,0.58,-0.57,-0.51,0.10,2.13,2.13,2.12
361.87,2.62,0.48,2.62,0.48,-0.49,-0.43,0.20,2.13,2.14,2.14
365.49,2.54,0.38,2.54,0.38,-0.40,-0.36,0.30,2.14,2.14,2.16
369.14,2.47,0.30,2.47,0.30,-0.31,-0.28,0.40,2.16,2.16,2.17
372.83,2.39,0.20,2.39,0.21,-0.21,-0.20,0.50,2.17,2.18,2.19
376.56,2.33,0.13,2.32,0.12,-0.12,-0.12,0.60,2.21,2.20,2.19
380.33,2.25,0.03,2.25,0.03,-0.03,-0.04,0.70,2.22,2.22,2.22
384.13,2.19,-0.05,2.19,-0.05,0.05,0.04,0.80,2.24,2.24,2.24
387.97,2.12,-0.14,2.12,-0.14,0.14,0.12,0.90,2.26,2.26,2.26
391.85,2.05,-0.22,2.05,-0.22,0.22,0.20,1.00,2.27,2.28,2.27
395.77,1.99,-0.31,1.99,-0.31,0.31,0.28,1.09,2.30,2.30,2.30
399.73,1.93,-0.39,1.93,-0.39,0.39,0.36,1.19,2.32,2.32,2.32
403.72,1.87,-0.47,1.86,-0.47,0.48,0.44,1.29,2.34,2.34,2.34
407.76,1.80,-0.56,1.80,-0.56,0.56,0.52,1.39,2.35,2.36,2.36
411.84,1.74,-0.65,1.74,-0.64,0.64,0.60,1.48,2.37,2.38,2.39
415.96,1.69,-0.72,1.68,-0.72,0.71,0.68,1.58,2.40,2.40,2.40
420.12,1.63,-0.80,1.63,-0.79,0.79,0.75,1.67,2.42,2.43,2.42
424.32,1.58,-0.87,1.57,-0.87,0.87,0.83,1.77,2.45,2.45,2.44
428.56,1.52,-0.94,1.52,-0.94,0.95,0.90,1.86,2.47,2.47,2.46
432.85,1.46,-1.02,1.46,-1.02,1.03,0.97,1.95,2.49,2.49,2.48
437.18,1.41,-1.10,1.40,-1.11,1.10,1.04,2.03,2.51,2.51,2.51
441.55,1.36,-1.18,1.35,-1.18,1.18,1.11,2.12,2.54,2.53,2.54
445.96,1.29,-1.27,1.30,-1.26,1.25,1.18,2.20,2.54,2.55,2.56
450.42,1.26,-1.32,1.26,-1.33,1.32,1.24,2.29,2.58,2.58,2.58
454.93,1.22,-1.40,1.22,-1.39,1.39,1.30,2.36,2.61,2.61,2.62
459.48,1.19,-1.45,1.19,-1.45,1.46,1.37,2.44,2.65,2.65,2.64
464.07,1.15,-1.52,1.15,-1.52,1.53,1.43,2.51,2.68,2.67,2.67
468.71,1.11,-1.59,1.11,-1.59,1.59,1.49,2.58,2.70,2.70,2.70
473.40,1.07,-1.66,1.07,-1.66,1.66,1.54,2.64,2.73,2.73,2.73
478.13,1.03,-1.73,1.02,-1.73,1.73,1.60,2.71,2.75,2.75,2.76
482.91,0.98,-1.80,0.98,-1.80,1.79,1.66,2.76,2.77,2.77,2.78
487.74,0.94,-1.87,0.94,-1.86,1.86,1.72,2.82,2.80,2.80,2.81
492.62,0.91,-1.93,0.90,-1.93,1.93,1.79,2.86,2.84,2.84,2.84
497.55,0.87,-2.00,0.86,-2.00,2.00,1.85,2.91,2.87,2.87,2.86
502.52,0.82,-2.08,0.82,-2.07,2.07,1.91,2.95,2.89,2.89,2.89
507.55,0.77,-2.15,0.77,-2.14,2.15,1.98,2.98,2.91,2.92,2.91
512.62,0.72,-2.22,0.72,-2.22,2.22,2.05,3.02,2.94,2.94,2.93
517.75,0.67,-2.29,0.67,-2.30,2.30,2.12,3.04,2.97,2.97,2.96
522.93,0.61,-2.38,0.61,-2.38,2.38,2.20,3.07,2.99,2.99,2.99
528.16,0.55,-2.46,0.55,-2.46,2.47,2.28,3.09,3.02,3.02,3.01
533.44,0.49,-2.54,0.48,-2.55,2.55,2.36,3.10,3.04,3.04,3.03
538.77,0.42,-2.64,0.42,-2.64,2.64,2.44,3.12,3.06,3.06,3.06
544.16,0.36,-2.73,0.36,-2.73,2.73,2.53,3.13,3.09,3.09,3.09
549.60,0.30,-2.82,0.30,-2.82,2.81,2.63,3.14,3.11,3.11,3.12
555.10,0.24,-2.90,0.24,-2.91,2.90,2.72,3.14,3.14,3.14,3.14
