frequency,raw
20.00,-5.81
20.20,-5.78
20.40,-5.73
20.61,-5.69
20.81,-5.64
21.02,-5.59
21.23,-5.54
21.44,-5.49
21.66,-5.43
21.87,-5.39
22.09,-5.32
22.31,-5.22
22.54,-5.11
22.76,-5.01
22.99,-4.92
23.22,-4.87
23.45,-4.81
23.69,-4.76
23.92,-4.71
24.16,-4.64
24.40,-4.59
24.65,-4.53
24.89,-4.47
25.14,-4.41
25.39,-4.35
25.65,-4.28
25.91,-4.21
26.16,-4.16
26.43,-4.11
26.69,-4.06
26.96,-4.01
27.23,-3.94
27.50,-3.87
27.77,-3.79
28.05,-3.74
28.33,-3.80
28.62,-3.85
28.90,-3.91
29.19,-3.89
29.48,-3.82
29.78,-3.75
30.08,-3.68
30.38,-3.63
30.68,-3.58
30.99,-3.53
31.30,-3.43
31.61,-3.34
31.93,-3.23
32.24,-3.20
32.57,-3.19
32.89,-3.19
33.22,-3.13
33.55,-3.04
33.89,-2.97
34.23,-2.93
34.57,-2.92
34.92,-2.92
35.27,-2.86
35.62,-2.77
35.97,-2.70
36.33,-2.69
36.70,-2.67
37.06,-2.67
37.43,-2.67
37.81,-2.67
38.19,-2.68
38.57,-2.68
38.95,-2.68
39.34,-2.66
39.74,-2.65
40.14,-2.61
40.54,-2.53
40.94,-2.45
41.35,-2.43
41.76,-2.42
42.18,-2.36
42.60,-2.26
43.03,-2.16
43.46,-2.14
43.90,-2.13
44.33,-2.04
44.78,-1.92
45.23,-1.86
45.68,-1.85
46.13,-1.82
46.60,-1.70
47.06,-1.61
47.53,-1.62
48.01,-1.62
48.49,-1.63
48.97,-1.64
49.46,-1.65
49.96,-1.66
50.46,-1.57
50.96,-1.46
51.47,-1.46
51.99,-1.46
52.51,-1.47
53.03,-1.46
53.56,-1.46
54.10,-1.43
54.64,-1.29
55.18,-1.20
55.74,-1.19
56.29,-1.18
56.86,-1.16
57.42,-1.14
58.00,-1.12
58.58,-1.10
59.16,-1.08
59.76,-1.06
60.35,-0.95
60.96,-0.80
61.57,-0.78
62.18,-0.76
62.80,-0.73
63.43,-0.81
64.07,-0.91
64.71,-0.89
65.35,-0.87
66.01,-0.86
66.67,-1.00
67.33,-1.10
68.01,-1.17
68.69,-1.28
69.37,-1.41
70.07,-1.54
70.77,-1.55
71.48,-1.56
72.19,-1.57
72.91,-1.58
73.64,-1.44
74.38,-1.31
75.12,-1.20
75.87,-1.17
76.63,-1.05
77.40,-0.95
78.17,-0.85
78.95,-0.74
79.74,-0.57
80.54,-0.43
81.35,-0.34
82.16,-0.30
82.98,-0.31
83.81,-0.33
84.65,-0.19
85.50,-0.12
86.35,-0.14
87.22,-0.16
88.09,-0.18
88.97,-0.19
89.86,-0.21
90.76,-0.23
91.66,-0.25
92.58,-0.27
93.51,-0.19
94.44,-0.09
95.39,-0.09
96.34,-0.11
97.30,-0.13
98.28,-0.15
99.26,-0.17
100.25,-0.18
101.25,-0.19
102.27,-0.20
103.29,-0.21
104.32,-0.21
105.37,-0.15
106.42,-0.01
107.48,0.03
108.56,0.04
109.64,0.06
110.74,0.07
111.85,0.09
112.97,0.10
114.10,0.11
115.24,0.13
116.39,0.14
117.55,0.15
118.73,0.15
119.92,0.16
121.12,0.16
122.33,0.15
123.55,0.25
124.79,0.37
126.03,0.37
127.29,0.36
128.57,0.36
129.85,0.35
131.15,0.35
132.46,0.35
133.79,0.34
135.12,0.34
136.48,0.34
137.84,0.34
139.22,0.34
140.61,0.34
142.02,0.34
143.44,0.34
144.87,0.34
146.32,0.35
147.78,0.36
149.26,0.37
150.75,0.39
152.26,0.42
153.78,0.45
155.32,0.48
156.88,0.50
158.44,0.53
160.03,0.55
161.63,0.57
163.24,0.58
164.88,0.59
166.53,0.60
168.19,0.60
169.87,0.64
171.57,0.77
173.29,0.79
175.02,0.76
176.77,0.74
178.54,0.71
180.32,0.68
182.13,0.65
183.95,0.63
185.79,0.61
187.65,0.60
189.52,0.59
191.42,0.58
193.33,0.57
195.27,0.57
197.22,0.56
199.19,0.56
201.18,0.56
203.19,0.57
205.23,0.57
207.28,0.58
209.35,0.59
211.44,0.59
213.56,0.60
215.69,0.61
217.85,0.61
220.03,0.53
222.23,0.43
224.45,0.40
226.70,0.41
228.96,0.41
231.25,0.42
233.57,0.42
235.90,0.43
238.26,0.43
240.64,0.44
243.05,0.44
245.48,0.44
247.93,0.44
250.41,0.44
252.92,0.44
255.45,0.45
258.00,0.45
260.58,0.45
263.19,0.46
265.82,0.46
268.48,0.47
271.16,0.47
273.87,0.48
276.61,0.48
279.38,0.49
282.17,0.49
284.99,0.49
287.84,0.49
290.72,0.49
293.63,0.49
296.57,0.50
299.53,0.50
302.53,0.51
305.55,0.51
308.61,0.52
311.69,0.53
314.81,0.54
317.96,0.55
321.14,0.57
324.35,0.58
327.59,0.59
330.87,0.60
334.18,0.62
337.52,0.62
340.90,0.63
344.30,0.64
347.75,0.64
351.23,0.64
354.74,0.54
358.28,0.43
361.87,0.41
365.49,0.41
369.14,0.41
372.83,0.41
376.56,0.40
380.33,0.40
384.13,0.40
387.97,0.25
391.85,0.19
395.77,0.18
399.73,0.18
403.72,0.09
407.76,-0.02
411.84,-0.05
415.96,-0.05
420.12,-0.05
424.32,-0.04
428.56,-0.04
432.85,-0.04
437.18,-0.04
441.55,-0.03
445.96,-0.03
450.42,-0.02
454.93,0.16
459.48,0.21
464.07,0.21
468.71,0.21
473.40,0.21
478.13,0.21
482.91,0.21
487.74,0.21
492.62,0.20
497.55,0.19
502.52,0.19
507.55,0.18
512.62,0.18
517.75,0.18
522.93,0.17
528.16,0.17
533.44,0.18
538.77,0.18
544.16,0.18
549.60,0.17
555.10,0.01
560.65,-0.02
566.25,-0.01
571.92,-0.00
577.64,0.02
583.41,0.03
589.25,0.04
595.14,0.05
601.09,0.06
607.10,0.07
613.17,-0.05
619.30,-0.13
625.50,-0.13
631.75,-0.12
638.07,-0.11
644.45,-0.10
650.89,-0.10
657.40,-0.09
663.98,-0.09
670.62,-0.08
677.32,-0.08
684.10,-0.08
690.94,-0.08
697.85,-0.08
704.83,-0.08
711.87,-0.08
718.99,-0.08
726.18,-0.09
733.44,-0.09
740.78,-0.09
748.19,-0.09
755.67,-0.10
763.23,-0.10
770.86,-0.11
778.57,-0.11
786.35,-0.12
794.22,-0.12
802.16,-0.12
810.18,-0.13
818.28,-0.13
826.46,-0.12
834.73,-0.12
843.08,-0.10
851.51,-0.09
860.02,-0.06
868.62,-0.04
877.31,-0.01
886.08,0.03
894.94,0.06
903.89,0.09
912.93,-0.00
922.06,-0.06
931.28,-0.06
940.59,-0.04
950.00,0.03
959.50,0.18
969.09,0.23
978.78,0.24
988.57,0.25
998.46,0.25
1008.44,0.25
1018.53,0.26
1028.71,0.26
1039.00,0.27
1049.39,0.14
1059.88,0.07
1070.48,0.08
1081.19,0.10
1092.00,0.11
1102.92,0.12
1113.95,0.13
1125.09,0.13
1136.34,0.13
1147.70,0.13
1159.18,0.13
1170.77,0.12
1182.48,0.11
1194.30,0.10
1206.25,-0.07
1218.31,-0.16
1230.49,-0.17
1242.80,-0.18
1255.22,-0.18
1267.78,-0.19
1280.45,-0.18
1293.26,-0.18
1306.19,-0.16
1319.25,-0.15
1332.45,-0.14
1345.77,-0.12
1359.23,-0.10
1372.82,-0.09
1386.55,-0.07
1400.41,0.11
1414.42,0.18
1428.56,0.19
1442.85,0.20
1457.28,0.33
1471.85,0.43
1486.57,0.46
1501.43,0.51
1516.45,0.70
1531.61,0.86
1546.93,1.01
1562.40,1.08
1578.02,1.27
1593.80,1.38
1609.74,1.42
1625.84,1.53
1642.10,1.72
1658.52,1.80
1675.10,2.00
1691.85,2.12
1708.77,2.34
1725.86,2.49
1743.12,2.66
1760.55,2.82
1778.15,2.95
1795.94,3.00
1813.90,3.21
1832.03,3.31
1850.36,3.52
1868.86,3.67
1887.55,3.94
1906.42,4.10
1925.49,4.30
1944.74,4.41
1964.19,4.62
1983.83,4.76
2003.67,5.01
2023.71,5.17
2043.94,5.36
2064.38,5.44
2085.03,5.64
2105.88,5.70
2126.94,5.77
2148.20,5.90
2169.69,6.04
2191.38,6.13
2213.30,6.16
2235.43,6.18
2257.78,6.35
2280.36,6.49
2303.17,6.62
2326.20,6.68
2349.46,6.86
2372.95,6.95
2396.68,6.96
2420.65,7.02
2444.86,7.16
2469.31,7.19
2494.00,7.31
2518.94,7.37
2544.13,7.52
2569.57,7.56
2595.27,7.72
2621.22,7.91
2647.43,8.09
2673.90,8.12
2700.64,8.20
2727.65,8.17
2754.93,8.25
2782.48,8.40
2810.30,8.52
2838.40,8.52
2866.79,8.54
2895.46,8.63
2924.41,8.72
2953.65,8.82
2983.19,8.91
3013.02,9.02
3043.15,9.20
3073.58,9.35
3104.32,9.58
3135.36,9.69
3166.72,9.67
3198.38,9.77
3230.37,9.92
3262.67,9.93
3295.30,10.01
3328.25,10.07
3361.53,10.23
3395.15,10.20
3429.10,10.20
3463.39,10.23
3498.03,10.17
3533.01,10.10
3568.34,10.24
3604.02,10.26
3640.06,10.16
3676.46,10.07
3713.22,10.08
3750.36,10.14
3787.86,10.04
3825.74,9.92
3864.00,9.93
3902.64,9.84
3941.66,9.71
3981.08,9.58
4020.89,9.44
4061.10,9.30
4101.71,9.16
4142.73,9.00
4184.15,8.83
4226.00,8.66
4268.26,8.47
4310.94,8.30
4354.05,8.12
4397.59,7.95
4441.56,7.78
4485.98,7.71
4530.84,7.66
4576.15,7.69
4621.91,7.61
4668.13,7.50
4714.81,7.39
4761.96,7.38
4809.58,7.41
4857.67,7.50
4906.25,7.67
4955.31,7.86
5004.87,8.08
5054.91,8.41
5105.46,8.76
5156.52,9.26
5208.08,9.86
5260.16,10.49
5312.77,11.08
5365.89,11.57
5419.55,12.09
5473.75,12.60
5528.49,13.07
5583.77,13.45
5639.61,13.67
5696.00,13.77
5752.96,13.74
5810.49,13.72
5868.60,13.60
5927.28,13.31
5986.56,13.07
6046.42,12.92
6106.89,12.75
6167.96,12.50
6229.64,12.30
6291.93,12.03
6354.85,11.76
6418.40,11.52
6482.58,11.48
6547.41,11.25
6612.88,10.92
6679.01,10.56
6745.80,10.19
6813.26,9.91
6881.39,9.60
6950.21,9.44
7019.71,9.20
7089.91,8.98
7160.81,8.83
7232.41,8.75
7304.74,8.80
7377.79,8.93
7451.56,9.09
7526.08,9.37
7601.34,9.69
7677.35,10.06
7754.13,10.35
7831.67,10.61
7909.98,10.65
7989.08,10.70
8068.98,10.66
8149.67,10.65
8231.16,10.49
8313.47,10.30
8396.61,10.08
8480.57,9.77
8565.38,9.25
8651.03,8.69
8737.54,7.97
8824.92,7.17
8913.17,6.35
9002.30,5.36
9092.32,4.47
9183.25,3.37
9275.08,2.35
9367.83,1.53
9461.51,0.94
9556.12,0.54
9651.68,0.34
9748.20,0.54
9845.68,1.13
9944.14,1.75
10043.58,2.18
10144.02,2.41
10245.46,2.50
10347.91,2.36
10451.39,2.04
10555.91,1.70
10661.46,1.44
10768.08,1.17
10875.76,0.93
10984.52,0.36
11094.36,-0.25
11205.31,-0.98
11317.36,-1.62
11430.53,-2.07
11544.84,-2.47
11660.29,-2.60
11776.89,-2.25
11894.66,-1.42
12013.60,-0.39
12133.74,0.64
12255.08,1.52
12377.63,2.25
12501.41,2.73
12626.42,2.95
12752.68,2.65
12880.21,1.96
13009.01,1.34
13139.10,0.84
13270.49,0.34
13403.20,-0.16
13537.23,-0.50
13672.60,-0.98
13809.33,-1.52
13947.42,-2.07
14086.90,-2.68
14227.77,-3.18
14370.04,-3.64
14513.74,-4.01
14658.88,-4.28
14805.47,-4.51
14953.52,-4.77
15103.06,-5.32
15254.09,-6.22
15406.63,-7.65
15560.70,-10.09
15716.30,-13.10
15873.47,-15.17
16032.20,-13.81
16192.52,-10.07
16354.45,-6.30
16517.99,-3.65
16683.17,-2.49
16850.01,-2.00
17018.51,-1.90
17188.69,-2.05
17360.58,-2.41
17534.18,-2.86
17709.53,-3.72
17886.62,-4.80
18065.49,-5.82
18246.14,-6.74
18428.60,-7.56
18612.89,-8.37
18799.02,-8.98
18987.01,-9.53
19176.88,-9.99
19368.65,-10.35
19562.33,-10.62
19757.96,-10.69
19955.54,-10.79
