frequency,raw,error,smoothed,error_smoothed,equalization,parametric_eq,fixed_band_eq,equalized_raw,equalized_smoothed,target
20.00,-17.31,-18.79,-17.31,-18.79,6.00,5.30,2.74,-11.31,-11.31,1.48
20.20,-17.16,-18.70,-17.16,-18.70,6.00,5.33,2.82,-11.16,-11.16,1.54
20.40,-17.02,-18.61,-17.02,-18.61,6.00,5.35,2.90,-11.02,-11.02,1.59
20.61,-16.87,-18.52,-16.87,-18.52,6.00,5.38,2.98,-10.87,-10.87,1.65
20.81,-16.72,-18.42,-16.72,-18.43,6.00,5.40,3.06,-10.72,-10.72,1.70
21.02,-16.58,-18.34,-16.58,-18.33,6.00,5.43,3.15,-10.58,-10.58,1.76
21.23,-16.43,-18.24,-16.43,-18.24,6.00,5.45,3.24,-10.43,-10.43,1.81
21.44,-16.29,-18.15,-16.28,-18.15,6.00,5.48,3.33,-10.29,-10.28,1.86
21.66,-16.14,-18.05,-16.14,-18.05,6.00,5.50,3.42,-10.14,-10.14,1.91
21.87,-15.99,-17.95,-15.99,-17.95,6.00,5.53,3.52,-9.99,-9.99,1.96
22.09,-15.85,-17.86,-15.84,-17.85,6.00,5.55,3.62,-9.85,-9.84,2.01
22.31,-15.70,-17.76,-15.70,-17.75,6.00,5.57,3.72,-9.70,-9.70,2.06
22.54,-15.55,-17.65,-15.55,-17.65,6.00,5.59,3.82,-9.55,-9.55,2.10
22.76,-15.40,-17.55,-15.40,-17.54,6.00,5.61,3.93,-9.40,-9.40,2.15
22.99,-15.25,-17.44,-15.25,-17.44,6.00,5.63,4.04,-9.25,-9.25,2.19
23.22,-15.10,-17.34,-15.10,-17.33,6.00,5.65,4.15,-9.10,-9.10,2.24
23.45,-14.95,-17.22,-14.95,-17.23,6.00,5.67,4.26,-8.95,-8.95,2.28
23.69,-14.80,-17.13,-14.80,-17.13,6.00,5.69,4.38,-8.80,-8.80,2.33
23.92,-14.66,-17.02,-14.65,-17.02,6.00,5.71,4.50,-8.66,-8.65,2.37
24.16,-14.51,-16.92,-14.51,-16.92,6.00,5.72,4.62,-8.51,-8.51,2.42
24.40,-14.36,-16.81,-14.36,-16.81,6.00,5.74,4.74,-8.36,-8.36,2.46
24.65,-14.21,-16.70,-14.20,-16.70,6.00,5.76,4.87,-8.21,-8.20,2.49
24.89,-14.05,-16.58,-14.05,-16.58,6.00,5.77,5.00,-8.05,-8.05,2.54
25.14,-13.90,-16.47,-13.90,-16.47,6.00,5.78,5.12,-7.90,-7.90,2.57
25.39,-13.75,-16.36,-13.75,-16.36,6.00,5.80,5.25,-7.75,-7.75,2.61
25.65,-13.60,-16.25,-13.60,-16.25,6.00,5.81,5.38,-7.60,-7.60,2.65
25.91,-13.45,-16.14,-13.45,-16.14,6.00,5.82,5.51,-7.45,-7.45,2.69
26.16,-13.31,-16.04,-13.31,-16.03,6.00,5.83,5.64,-7.31,-7.31,2.73
26.43,-13.16,-15.92,-13.16,-15.92,6.00,5.84,5.77,-7.16,-7.16,2.76
26.69,-13.01,-15.81,-13.01,-15.81,6.00,5.85,5.90,-7.01,-7.01,2.80
26.96,-12.86,-15.70,-12.86,-15.70,6.00,5.86,6.02,-6.86,-6.86,2.84
27.23,-12.72,-15.59,-12.72,-15.59,6.00,5.86,6.15,-6.72,-6.72,2.87
27.50,-12.57,-15.48,-12.57,-15.48,6.00,5.87,6.27,-6.57,-6.57,2.91
27.77,-12.42,-15.36,-12.42,-15.36,6.00,5.88,6.39,-6.42,-6.42,2.95
28.05,-12.27,-15.24,-12.27,-15.25,6.00,5.88,6.50,-6.27,-6.27,2.98
28.33,-12.13,-15.14,-12.13,-15.14,6.00,5.88,6.61,-6.13,-6.13,3.02
28.62,-11.98,-15.04,-11.98,-15.03,6.00,5.89,6.71,-5.98,-5.98,3.05
28.90,-11.84,-14.93,-11.84,-14.93,6.00,5.89,6.81,-5.84,-5.84,3.09
29.19,-11.69,-14.81,-11.69,-14.82,6.00,5.89,6.90,-5.69,-5.69,3.12
29.48,-11.55,-14.71,-11.54,-14.71,6.00,5.89,6.98,-5.55,-5.54,3.16
29.78,-11.40,-14.60,-11.40,-14.60,6.00,5.89,7.05,-5.40,-5.40,3.20
30.08,-11.26,-14.49,-11.26,-14.50,6.00,5.89,7.12,-5.26,-5.26,3.23
30.38,-11.13,-14.40,-11.13,-14.40,6.00,5.88,7.17,-5.13,-5.13,3.27
30.68,-11.00,-14.30,-11.00,-14.30,6.00,5.88,7.22,-5.00,-5.00,3.30
30.99,-10.88,-14.22,-10.87,-14.21,6.00,5.88,7.25,-4.88,-4.87,3.34
31.30,-10.74,-14.11,-10.74,-14.11,6.00,5.88,7.28,-4.74,-4.74,3.37
31.61,-10.61,-14.00,-10.61,-14.00,6.00,5.87,7.29,-4.61,-4.61,3.39
31.93,-10.47,-13.89,-10.47,-13.90,6.00,5.87,7.30,-4.47,-4.47,3.42
32.24,-10.34,-13.79,-10.34,-13.79,6.00,5.87,7.30,-4.34,-4.34,3.45
32.57,-10.21,-13.69,-10.20,-13.68,6.00,5.86,7.28,-4.21,-4.20,3.48
32.89,-10.07,-13.58,-10.07,-13.58,6.00,5.86,7.26,-4.07,-4.07,3.51
33.22,-9.94,-13.47,-9.94,-13.47,6.00,5.85,7.23,-3.94,-3.94,3.53
33.55,-9.81,-13.36,-9.81,-13.36,6.00,5.85,7.19,-3.81,-3.81,3.56
33.89,-9.68,-13.25,-9.68,-13.26,6.00,5.85,7.15,-3.68,-3.68,3.57
34.23,-9.56,-13.15,-9.56,-13.15,6.00,5.85,7.10,-3.56,-3.56,3.59
34.57,-9.43,-13.05,-9.43,-13.05,6.00,5.85,7.04,-3.43,-3.43,3.62
34.92,-9.31,-12.95,-9.31,-12.95,6.00,5.85,6.98,-3.31,-3.31,3.64
35.27,-9.18,-12.84,-9.18,-12.84,6.00,5.85,6.91,-3.18,-3.18,3.66
35.62,-9.05,-12.72,-9.05,-12.72,6.00,5.85,6.85,-3.05,-3.05,3.68
35.97,-8.92,-12.61,-8.92,-12.61,6.00,5.85,6.78,-2.92,-2.92,3.69
36.33,-8.79,-12.49,-8.79,-12.49,6.00,5.86,6.70,-2.79,-2.79,3.70
36.70,-8.66,-12.38,-8.66,-12.38,6.00,5.86,6.63,-2.66,-2.66,3.72
37.06,-8.54,-12.27,-8.53,-12.27,6.00,5.87,6.56,-2.54,-2.53,3.74
37.43,-8.41,-12.15,-8.41,-12.16,6.00,5.87,6.48,-2.41,-2.41,3.74
37.81,-8.28,-12.04,-8.28,-12.04,6.00,5.88,6.41,-2.28,-2.28,3.76
38.19,-8.16,-11.93,-8.16,-11.92,6.00,5.88,6.34,-2.16,-2.16,3.77
38.57,-8.03,-11.80,-8.03,-11.80,6.00,5.89,6.27,-2.03,-2.03,3.78
38.95,-7.90,-11.68,-7.90,-11.68,6.00,5.90,6.20,-1.90,-1.90,3.78
39.34,-7.77,-11.56,-7.77,-11.56,6.00,5.90,6.14,-1.77,-1.77,3.79
39.74,-7.64,-11.44,-7.64,-11.43,6.00,5.91,6.08,-1.64,-1.64,3.80
40.14,-7.51,-11.30,-7.51,-11.31,6.00,5.91,6.02,-1.51,-1.51,3.79
40.54,-7.38,-11.18,-7.38,-11.18,6.00,5.92,5.96,-1.38,-1.38,3.80
40.94,-7.26,-11.06,-7.25,-11.06,6.00,5.92,5.91,-1.26,-1.25,3.81
41.35,-7.13,-10.93,-7.12,-10.93,6.00,5.93,5.86,-1.13,-1.12,3.80
41.76,-6.99,-10.80,-6.99,-10.80,6.00,5.93,5.81,-0.99,-0.99,3.81
42.18,-6.86,-10.66,-6.86,-10.67,6.00,5.93,5.77,-0.86,-0.86,3.81
42.60,-6.74,-10.55,-6.73,-10.54,6.00,5.93,5.74,-0.74,-0.73,3.81
43.03,-6.61,-10.42,-6.61,-10.42,6.00,5.93,5.70,-0.61,-0.61,3.81
43.46,-6.49,-10.30,-6.49,-10.30,6.00,5.93,5.67,-0.49,-0.49,3.81
43.90,-6.37,-10.18,-6.37,-10.18,6.00,5.93,5.65,-0.37,-0.37,3.81
44.33,-6.25,-10.06,-6.25,-10.06,6.00,5.93,5.63,-0.25,-0.25,3.81
44.78,-6.12,-9.93,-6.12,-9.93,6.00,5.93,5.61,-0.12,-0.12,3.81
45.23,-6.00,-9.81,-6.00,-9.81,6.00,5.92,5.60,0.00,-0.00,3.81
45.68,-5.88,-9.69,-5.88,-9.69,6.00,5.92,5.59,0.12,0.12,3.81
46.13,-5.76,-9.56,-5.75,-9.56,6.00,5.91,5.59,0.24,0.25,3.80
46.60,-5.63,-9.44,-5.63,-9.43,6.00,5.91,5.59,0.37,0.37,3.81
47.06,-5.50,-9.30,-5.51,-9.31,6.00,5.90,5.59,0.50,0.49,3.80
47.53,-5.39,-9.18,-5.38,-9.18,6.00,5.89,5.60,0.61,0.62,3.80
48.01,-5.27,-9.07,-5.27,-9.06,6.00,5.88,5.61,0.73,0.73,3.80
48.49,-5.15,-8.94,-5.15,-8.94,6.00,5.87,5.63,0.85,0.85,3.79
48.97,-5.04,-8.82,-5.03,-8.82,6.00,5.87,5.65,0.96,0.97,3.79
49.46,-4.92,-8.71,-4.92,-8.71,6.00,5.86,5.67,1.08,1.08,3.79
49.96,-4.81,-8.59,-4.81,-8.59,6.00,5.85,5.69,1.19,1.19,3.78
50.46,-4.70,-8.48,-4.70,-8.48,6.00,5.84,5.72,1.30,1.30,3.78
50.96,-4.59,-8.36,-4.59,-8.37,6.00,5.83,5.75,1.41,1.41,3.78
51.47,-4.48,-8.26,-4.48,-8.25,6.00,5.82,5.78,1.52,1.52,3.78
51.99,-4.37,-8.14,-4.37,-8.14,6.00,5.81,5.81,1.63,1.63,3.77
52.51,-4.26,-8.02,-4.26,-8.02,6.00,5.80,5.85,1.74,1.74,3.76
53.03,-4.15,-7.91,-4.16,-7.91,6.00,5.79,5.88,1.85,1.84,3.76
53.56,-4.06,-7.81,-4.06,-7.81,6.00,5.79,5.92,1.94,1.94,3.75
54.10,-3.97,-7.71,-3.96,-7.71,6.00,5.78,5.95,2.03,2.04,3.74
54.64,-3.87,-7.60,-3.87,-7.60,6.00,5.78,5.98,2.13,2.13,3.73
55.18,-3.77,-7.49,-3.77,-7.49,6.00,5.78,6.01,2.23,2.23,3.72
55.74,-3.67,-7.38,-3.67,-7.38,6.00,5.78,6.04,2.33,2.33,3.71
56.29,-3.57,-7.26,-3.57,-7.27,6.00,5.78,6.07,2.43,2.43,3.69
56.86,-3.48,-7.16,-3.48,-7.15,6.00,5.78,6.09,2.52,2.52,3.68
57.42,-3.39,-7.04,-3.39,-7.04,6.00,5.78,6.11,2.61,2.61,3.66
58.00,-3.29,-6.92,-3.29,-6.93,6.00,5.78,6.12,2.71,2.71,3.63
58.58,-3.20,-6.81,-3.20,-6.81,6.00,5.77,6.13,2.80,2.81,3.61
59.16,-3.10,-6.69,-3.10,-6.69,6.01,5.76,6.13,2.91,2.91,3.59
59.76,-3.01,-6.57,-3.01,-6.57,6.02,5.73,6.13,3.01,3.01,3.56
60.35,-2.92,-6.45,-2.92,-6.45,6.02,5.70,6.12,3.10,3.10,3.53
60.96,-2.83,-6.33,-2.83,-6.33,6.01,5.66,6.10,3.18,3.19,3.51
61.57,-2.73,-6.21,-2.73,-6.21,5.99,5.60,6.07,3.26,3.26,3.48
62.18,-2.64,-6.08,-2.64,-6.09,5.95,5.54,6.04,3.32,3.31,3.44
62.80,-2.55,-5.97,-2.55,-5.97,5.90,5.46,6.00,3.35,3.35,3.42
63.43,-2.46,-5.85,-2.46,-5.85,5.83,5.39,5.95,3.37,3.37,3.39
64.07,-2.37,-5.73,-2.36,-5.73,5.74,5.31,5.89,3.37,3.37,3.37
64.71,-2.27,-5.61,-2.27,-5.61,5.64,5.22,5.83,3.37,3.36,3.34
65.35,-2.18,-5.50,-2.18,-5.50,5.53,5.14,5.76,3.35,3.34,3.32
66.01,-2.10,-5.40,-2.09,-5.39,5.41,5.05,5.68,3.31,3.32,3.30
66.67,-2.00,-5.28,-2.00,-5.28,5.29,4.97,5.59,3.29,3.29,3.28
67.33,-1.91,-5.17,-1.91,-5.18,5.17,4.89,5.50,3.27,3.26,3.26
68.01,-1.82,-5.07,-1.81,-5.07,5.07,4.80,5.40,3.25,3.25,3.25
68.69,-1.72,-4.96,-1.72,-4.96,4.96,4.72,5.29,3.24,3.24,3.24
69.37,-1.63,-4.86,-1.63,-4.86,4.86,4.64,5.18,3.23,3.23,3.23
70.07,-1.54,-4.76,-1.53,-4.75,4.76,4.56,5.07,3.22,3.22,3.22
70.77,-1.44,-4.64,-1.44,-4.65,4.65,4.48,4.95,3.21,3.21,3.21
71.48,-1.35,-4.55,-1.35,-4.55,4.55,4.41,4.83,3.20,3.20,3.20
72.19,-1.26,-4.45,-1.26,-4.45,4.45,4.33,4.71,3.19,3.19,3.19
72.91,-1.17,-4.34,-1.17,-4.34,4.34,4.25,4.58,3.17,3.17,3.18
73.64,-1.08,-4.24,-1.07,-4.24,4.23,4.17,4.46,3.16,3.16,3.16
74.38,-0.98,-4.12,-0.98,-4.13,4.13,4.10,4.33,3.15,3.14,3.15
75.12,-0.89,-4.02,-0.89,-4.02,4.02,4.02,4.20,3.13,3.13,3.13
75.87,-0.80,-3.91,-0.79,-3.91,3.90,3.94,4.07,3.11,3.11,3.11
76.63,-0.70,-3.79,-0.70,-3.79,3.79,3.86,3.94,3.09,3.09,3.10
77.40,-0.61,-3.68,-0.60,-3.68,3.68,3.79,3.81,3.07,3.07,3.07
78.17,-0.51,-3.56,-0.51,-3.56,3.56,3.71,3.68,3.06,3.05,3.05
78.95,-0.42,-3.45,-0.42,-3.45,3.45,3.63,3.55,3.03,3.03,3.03
79.74,-0.34,-3.35,-0.33,-3.34,3.34,3.55,3.42,3.00,3.01,3.01
80.54,-0.25,-3.24,-0.25,-3.24,3.24,3.47,3.29,2.99,2.99,2.99
81.35,-0.16,-3.13,-0.16,-3.13,3.13,3.39,3.17,2.97,2.97,2.97
82.16,-0.08,-3.03,-0.08,-3.03,3.03,3.30,3.04,2.95,2.95,2.95
82.98,0.00,-2.93,0.00,-2.93,2.94,3.22,2.92,2.94,2.94,2.93
83.81,0.07,-2.84,0.07,-2.84,2.84,3.14,2.80,2.91,2.91,2.91
84.65,0.15,-2.75,0.15,-2.75,2.75,3.05,2.68,2.90,2.90,2.90
85.50,0.22,-2.67,0.22,-2.66,2.66,2.97,2.56,2.88,2.88,2.89
86.35,0.30,-2.57,0.30,-2.57,2.57,2.88,2.44,2.87,2.87,2.87
87.22,0.38,-2.48,0.38,-2.48,2.48,2.80,2.32,2.86,2.86,2.86
88.09,0.46,-2.38,0.46,-2.39,2.40,2.71,2.21,2.86,2.85,2.85
88.97,0.52,-2.31,0.52,-2.31,2.31,2.63,2.10,2.84,2.84,2.83
89.86,0.58,-2.23,0.58,-2.23,2.23,2.54,1.98,2.82,2.82,2.81
90.76,0.64,-2.16,0.64,-2.16,2.16,2.45,1.87,2.80,2.80,2.80
91.66,0.70,-2.08,0.70,-2.08,2.08,2.36,1.77,2.78,2.78,2.78
92.58,0.76,-2.00,0.76,-2.00,2.00,2.27,1.66,2.76,2.76,2.76
93.51,0.82,-1.92,0.82,-1.92,1.92,2.18,1.55,2.74,2.74,2.74
94.44,0.87,-1.85,0.87,-1.84,1.84,2.09,1.45,2.71,2.71,2.72
95.39,0.93,-1.76,0.93,-1.76,1.75,2.00,1.35,2.68,2.68,2.69
96.34,0.99,-1.67,0.99,-1.67,1.65,1.90,1.25,2.64,2.65,2.66
97.30,1.06,-1.56,1.06,-1.56,1.56,1.81,1.15,2.62,2.62,2.63
98.28,1.14,-1.45,1.14,-1.46,1.46,1.72,1.05,2.60,2.60,2.60
99.26,1.20,-1.36,1.20,-1.35,1.37,1.63,0.96,2.57,2.57,2.56
100.25,1.26,-1.26,1.26,-1.26,1.28,1.53,0.86,2.54,2.54,2.52
101.25,1.31,-1.17,1.31,-1.17,1.18,1.44,0.77,2.50,2.49,2.48
102.27,1.36,-1.08,1.35,-1.09,1.09,1.35,0.68,2.45,2.44,2.44
103.29,1.38,-1.02,1.39,-1.01,1.00,1.25,0.59,2.38,2.38,2.40
104.32,1.42,-0.93,1.43,-0.92,0.90,1.16,0.50,2.32,2.33,2.35
105.37,1.48,-0.83,1.48,-0.83,0.81,1.06,0.41,2.29,2.29,2.31
106.42,1.55,-0.71,1.55,-0.72,0.71,0.97,0.33,2.26,2.26,2.26
107.48,1.61,-0.61,1.61,-0.61,0.62,0.88,0.25,2.23,2.23,2.22
108.56,1.67,-0.50,1.67,-0.51,0.52,0.78,0.17,2.20,2.19,2.17
109.64,1.72,-0.41,1.71,-0.42,0.43,0.69,0.09,2.15,2.15,2.13
110.74,1.74,-0.34,1.75,-0.34,0.35,0.59,0.01,2.09,2.10,2.09
111.85,1.78,-0.27,1.78,-0.26,0.26,0.50,-0.06,2.05,2.05,2.05
112.97,1.82,-0.19,1.82,-0.19,0.18,0.41,-0.13,2.01,2.00,2.01
114.10,1.85,-0.12,1.85,-0.11,0.11,0.32,-0.20,1.96,1.96,1.97
115.24,1.89,-0.04,1.89,-0.04,0.03,0.23,-0.27,1.92,1.92,1.93
116.39,1.92,0.03,1.92,0.03,-0.04,0.14,-0.33,1.88,1.88,1.89
117.55,1.96,0.10,1.97,0.11,-0.12,0.05,-0.39,1.85,1.86,1.87
118.73,2.02,0.19,2.02,0.19,-0.18,-0.04,-0.45,1.84,1.84,1.83
119.92,2.08,0.28,2.07,0.27,-0.25,-0.13,-0.50,1.83,1.82,1.80
121.12,2.11,0.34,2.11,0.33,-0.31,-0.21,-0.55,1.80,1.80,1.77
122.33,2.13,0.37,2.13,0.38,-0.37,-0.30,-0.60,1.76,1.76,1.76
123.55,2.15,0.42,2.15,0.42,-0.43,-0.38,-0.65,1.73,1.73,1.73
124.79,2.17,0.47,2.18,0.47,-0.48,-0.46,-0.69,1.69,1.70,1.71
126.03,2.21,0.52,2.21,0.52,-0.53,-0.54,-0.73,1.68,1.68,1.69
127.29,2.24,0.57,2.24,0.57,-0.58,-0.62,-0.76,1.66,1.66,1.67
128.57,2.27,0.62,2.28,0.63,-0.63,-0.70,-0.79,1.64,1.65,1.65
129.85,2.32,0.69,2.32,0.69,-0.69,-0.77,-0.82,1.64,1.64,1.63
131.15,2.37,0.76,2.36,0.75,-0.74,-0.85,-0.85,1.63,1.62,1.62
132.46,2.39,0.80,2.40,0.80,-0.80,-0.92,-0.87,1.60,1.60,1.59
133.79,2.42,0.85,2.42,0.85,-0.85,-0.99,-0.90,1.57,1.57,1.57
135.12,2.45,0.90,2.45,0.90,-0.90,-1.05,-0.91,1.55,1.55,1.55
136.48,2.47,0.94,2.48,0.95,-0.95,-1.12,-0.93,1.52,1.53,1.53
137.84,2.51,1.00,2.50,0.99,-1.00,-1.18,-0.95,1.52,1.51,1.51
139.22,2.52,1.04,2.52,1.04,-1.04,-1.24,-0.96,1.48,1.48,1.48
140.61,2.54,1.08,2.55,1.09,-1.09,-1.30,-0.97,1.45,1.46,1.46
142.02,2.57,1.14,2.57,1.13,-1.13,-1.35,-0.98,1.44,1.43,1.43
143.44,2.59,1.18,2.59,1.18,-1.18,-1.40,-0.99,1.41,1.41,1.41
144.87,2.62,1.23,2.62,1.23,-1.23,-1.45,-1.00,1.40,1.39,1.39
146.32,2.63,1.27,2.64,1.27,-1.27,-1.50,-1.01,1.36,1.36,1.36
147.78,2.66,1.32,2.66,1.32,-1.32,-1.54,-1.01,1.34,1.34,1.34
149.26,2.68,1.36,2.68,1.36,-1.37,-1.59,-1.02,1.31,1.31,1.32
150.75,2.71,1.42,2.71,1.42,-1.42,-1.63,-1.02,1.29,1.29,1.29
152.26,2.73,1.46,2.74,1.47,-1.47,-1.66,-1.03,1.26,1.26,1.27
153.78,2.77,1.53,2.77,1.52,-1.52,-1.70,-1.03,1.25,1.25,1.24
155.32,2.80,1.57,2.80,1.57,-1.58,-1.73,-1.04,1.22,1.22,1.23
156.88,2.84,1.63,2.84,1.63,-1.63,-1.75,-1.05,1.21,1.21,1.21
158.44,2.86,1.67,2.87,1.68,-1.68,-1.78,-1.05,1.18,1.19,1.19
160.03,2.90,1.74,2.90,1.73,-1.72,-1.80,-1.06,1.18,1.17,1.17
161.63,2.92,1.77,2.92,1.77,-1.76,-1.82,-1.06,1.16,1.16,1.15
163.24,2.93,1.80,2.94,1.80,-1.80,-1.84,-1.07,1.14,1.14,1.13
164.88,2.95,1.84,2.95,1.83,-1.82,-1.86,-1.08,1.13,1.13,1.11
166.53,2.95,1.85,2.95,1.85,-1.84,-1.87,-1.09,1.11,1.11,1.11
168.19,2.94,1.85,2.94,1.86,-1.85,-1.88,-1.10,1.09,1.09,1.09
169.87,2.93,1.86,2.93,1.86,-1.87,-1.89,-1.11,1.07,1.07,1.07
171.57,2.92,1.86,2.92,1.86,-1.88,-1.90,-1.12,1.05,1.05,1.06
173.29,2.92,1.87,2.92,1.87,-1.88,-1.90,-1.14,1.04,1.04,1.05
175.02,2.93,1.88,2.93,1.88,-1.89,-1.90,-1.15,1.04,1.03,1.05
176.77,2.93,1.90,2.94,1.90,-1.90,-1.90,-1.16,1.03,1.04,1.03
178.54,2.94,1.91,2.94,1.91,-1.91,-1.90,-1.18,1.04,1.04,1.04
180.32,2.95,1.92,2.94,1.92,-1.91,-1.90,-1.20,1.04,1.04,1.03
182.13,2.94,1.92,2.94,1.92,-1.91,-1.90,-1.21,1.03,1.03,1.03
183.95,2.93,1.91,2.93,1.91,-1.90,-1.89,-1.23,1.03,1.03,1.02
185.79,2.92,1.89,2.92,1.89,-1.89,-1.88,-1.25,1.03,1.03,1.03
187.65,2.90,1.88,2.90,1.88,-1.87,-1.87,-1.27,1.03,1.03,1.02
189.52,2.87,1.85,2.87,1.85,-1.85,-1.86,-1.30,1.02,1.02,1.02
191.42,2.84,1.82,2.84,1.82,-1.82,-1.85,-1.32,1.02,1.02,1.02
193.33,2.81,1.79,2.81,1.80,-1.79,-1.84,-1.34,1.02,1.02,1.02
195.27,2.78,1.77,2.78,1.76,-1.76,-1.83,-1.37,1.02,1.02,1.02
197.22,2.75,1.74,2.75,1.73,-1.73,-1.81,-1.39,1.02,1.02,1.01
199.19,2.71,1.70,2.71,1.70,-1.70,-1.80,-1.42,1.01,1.01,1.01
201.18,2.68,1.68,2.68,1.67,-1.68,-1.78,-1.44,1.01,1.01,1.00
203.19,2.65,1.65,2.65,1.65,-1.65,-1.76,-1.47,1.00,1.00,1.00
205.23,2.62,1.63,2.62,1.63,-1.64,-1.75,-1.50,0.98,0.98,0.99
207.28,2.60,1.62,2.60,1.62,-1.63,-1.73,-1.52,0.97,0.97,0.98
209.35,2.59,1.61,2.59,1.61,-1.63,-1.71,-1.55,0.97,0.97,0.98
211.44,2.59,1.62,2.59,1.62,-1.63,-1.69,-1.58,0.96,0.97,0.97
213.56,2.60,1.64,2.60,1.63,-1.63,-1.67,-1.60,0.97,0.97,0.97
215.69,2.61,1.64,2.61,1.64,-1.64,-1.65,-1.63,0.98,0.97,0.97
217.85,2.61,1.65,2.61,1.65,-1.64,-1.63,-1.65,0.97,0.97,0.96
220.03,2.60,1.65,2.60,1.65,-1.64,-1.62,-1.68,0.97,0.97,0.95
222.23,2.59,1.65,2.59,1.64,-1.63,-1.60,-1.70,0.96,0.96,0.94
224.45,2.56,1.62,2.56,1.62,-1.62,-1.58,-1.72,0.95,0.94,0.94
226.70,2.52,1.59,2.53,1.60,-1.60,-1.56,-1.75,0.92,0.93,0.93
228.96,2.49,1.57,2.50,1.57,-1.58,-1.54,-1.77,0.92,0.92,0.92
231.25,2.47,1.55,2.46,1.55,-1.55,-1.52,-1.78,0.92,0.91,0.92
233.57,2.43,1.53,2.43,1.53,-1.53,-1.50,-1.80,0.90,0.90,0.90
235.90,2.39,1.50,2.40,1.51,-1.51,-1.49,-1.81,0.88,0.89,0.90
238.26,2.37,1.49,2.37,1.48,-1.49,-1.47,-1.82,0.88,0.88,0.88
240.64,2.34,1.47,2.34,1.47,-1.48,-1.45,-1.83,0.87,0.87,0.87
243.05,2.32,1.46,2.32,1.46,-1.47,-1.44,-1.84,0.86,0.86,0.86
245.48,2.30,1.46,2.30,1.46,-1.46,-1.42,-1.84,0.84,0.84,0.84
247.93,2.29,1.45,2.29,1.45,-1.45,-1.41,-1.84,0.84,0.83,0.84
250.41,2.27,1.45,2.27,1.45,-1.45,-1.39,-1.84,0.82,0.82,0.82
252.92,2.26,1.44,2.26,1.45,-1.45,-1.38,-1.83,0.82,0.82,0.82
255.45,2.25,1.45,2.25,1.44,-1.44,-1.37,-1.83,0.81,0.81,0.81
258.00,2.24,1.44,2.24,1.44,-1.43,-1.36,-1.82,0.81,0.81,0.80
260.58,2.21,1.42,2.21,1.42,-1.42,-1.35,-1.80,0.80,0.80,0.79
263.19,2.19,1.41,2.19,1.41,-1.40,-1.34,-1.79,0.79,0.79,0.78
265.82,2.15,1.37,2.16,1.38,-1.38,-1.33,-1.77,0.77,0.78,0.78
268.48,2.13,1.37,2.13,1.36,-1.36,-1.33,-1.75,0.78,0.77,0.77
271.16,2.09,1.33,2.09,1.33,-1.33,-1.32,-1.73,0.76,0.76,0.76
273.87,2.05,1.30,2.06,1.31,-1.31,-1.32,-1.70,0.74,0.75,0.75
276.61,2.02,1.29,2.02,1.28,-1.29,-1.31,-1.68,0.74,0.74,0.74
279.38,2.00,1.27,2.00,1.27,-1.27,-1.31,-1.65,0.73,0.72,0.73
282.17,1.97,1.25,1.97,1.25,-1.26,-1.31,-1.62,0.71,0.71,0.72
284.99,1.95,1.25,1.95,1.25,-1.26,-1.31,-1.59,0.69,0.69,0.71
287.84,1.94,1.25,1.94,1.25,-1.26,-1.31,-1.55,0.68,0.68,0.69
290.72,1.94,1.26,1.94,1.26,-1.27,-1.31,-1.52,0.67,0.67,0.68
293.63,1.95,1.28,1.95,1.28,-1.28,-1.30,-1.49,0.67,0.67,0.67
296.57,1.96,1.31,1.96,1.30,-1.29,-1.30,-1.45,0.67,0.67,0.66
299.53,1.96,1.32,1.96,1.31,-1.30,-1.30,-1.42,0.66,0.66,0.64
302.53,1.94,1.31,1.95,1.31,-1.30,-1.30,-1.38,0.64,0.64,0.63
305.55,1.92,1.30,1.92,1.30,-1.30,-1.29,-1.35,0.62,0.62,0.62
308.61,1.90,1.29,1.90,1.29,-1.29,-1.28,-1.31,0.61,0.60,0.61
311.69,1.86,1.27,1.87,1.28,-1.28,-1.27,-1.27,0.58,0.59,0.59
314.81,1.84,1.26,1.84,1.26,-1.26,-1.26,-1.24,0.58,0.58,0.58
317.96,1.81,1.24,1.81,1.24,-1.24,-1.24,-1.20,0.57,0.57,0.57
321.14,1.78,1.21,1.78,1.22,-1.22,-1.22,-1.17,0.56,0.56,0.57
324.35,1.75,1.19,1.75,1.19,-1.20,-1.20,-1.13,0.56,0.56,0.56
327.59,1.72,1.17,1.73,1.17,-1.17,-1.18,-1.10,0.55,0.55,0.56
330.87,1.70,1.16,1.70,1.15,-1.15,-1.15,-1.06,0.55,0.55,0.54
334.18,1.67,1.13,1.67,1.13,-1.12,-1.13,-1.03,0.55,0.54,0.54
337.52,1.63,1.09,1.64,1.10,-1.10,-1.10,-1.00,0.53,0.54,0.54
340.90,1.61,1.08,1.61,1.07,-1.08,-1.07,-0.97,0.54,0.53,0.53
344.30,1.57,1.04,1.58,1.05,-1.05,-1.04,-0.93,0.52,0.53,0.53
347.75,1.55,1.02,1.55,1.02,-1.02,-1.01,-0.90,0.53,0.53,0.53
351.23,1.52,1.00,1.52,1.00,-1.00,-0.98,-0.87,0.52,0.53,0.53
354.74,1.50,0.98,1.50,0.97,-0.97,-0.95,-0.84,0.53,0.53,0.52
358.28,1.47,0.95,1.47,0.94,-0.94,-0.92,-0.82,0.53,0.53,0.52
361.87,1.43,0.91,1.44,0.91,-0.91,-0.89,-0.79,0.52,0.52,0.52
365.49,1.40,0.88,1.41,0.88,-0.89,-0.86,-0.76,0.51,0.52,0.52
369.14,1.38,0.86,1.38,0.86,-0.86,-0.84,-0.73,0.52,0.52,0.52
372.83,1.36,0.83,1.36,0.83,-0.84,-0.81,-0.71,0.53,0.52,0.53
376.56,1.33,0.80,1.33,0.81,-0.81,-0.79,-0.68,0.52,0.52,0.53
380.33,1.31,0.79,1.31,0.79,-0.79,-0.77,-0.66,0.52,0.52,0.52
384.13,1.29,0.78,1.29,0.77,-0.77,-0.75,-0.63,0.52,0.52,0.52
387.97,1.27,0.76,1.27,0.76,-0.76,-0.72,-0.61,0.52,0.52,0.52
391.85,1.25,0.74,1.25,0.74,-0.74,-0.71,-0.58,0.52,0.52,0.51
395.77,1.23,0.72,1.23,0.72,-0.72,-0.69,-0.56,0.52,0.52,0.51
399.73,1.21,0.71,1.21,0.70,-0.70,-0.67,-0.54,0.52,0.51,0.50
403.72,1.18,0.68,1.18,0.68,-0.68,-0.65,-0.52,0.51,0.50,0.50
407.76,1.14,0.65,1.15,0.65,-0.66,-0.64,-0.50,0.49,0.49,0.49
411.84,1.12,0.63,1.12,0.63,-0.64,-0.62,-0.48,0.49,0.48,0.49
415.96,1.09,0.61,1.09,0.61,-0.62,-0.61,-0.46,0.47,0.47,0.48
420.12,1.06,0.59,1.07,0.60,-0.60,-0.59,-0.44,0.46,0.47,0.47
424.32,1.04,0.59,1.04,0.58,-0.58,-0.58,-0.42,0.46,0.45,0.45
428.56,1.01,0.57,1.01,0.57,-0.57,-0.57,-0.41,0.44,0.44,0.44
432.85,0.98,0.55,0.98,0.56,-0.56,-0.55,-0.39,0.43,0.43,0.43
437.18,0.95,0.54,0.95,0.54,-0.54,-0.54,-0.37,0.41,0.41,0.41
441.55,0.92,0.53,0.92,0.53,-0.53,-0.53,-0.36,0.39,0.39,0.39
445.96,0.89,0.52,0.89,0.52,-0.52,-0.52,-0.34,0.37,0.37,0.38
450.42,0.86,0.51,0.86,0.51,-0.51,-0.51,-0.33,0.35,0.36,0.36
454.93,0.84,0.51,0.84,0.50,-0.50,-0.50,-0.32,0.35,0.34,0.34
459.48,0.80,0.48,0.81,0.49,-0.48,-0.49,-0.30,0.32,0.32,0.33
464.07,0.78,0.48,0.78,0.47,-0.47,-0.49,-0.29,0.31,0.31,0.30
468.71,0.75,0.46,0.75,0.46,-0.46,-0.48,-0.28,0.29,0.29,0.29
473.40,0.72,0.45,0.73,0.45,-0.45,-0.47,-0.27,0.27,0.28,0.27
478.13,0.70,0.44,0.70,0.44,-0.44,-0.46,-0.26,0.26,0.26,0.26
482.91,0.68,0.43,0.68,0.43,-0.43,-0.45,-0.25,0.25,0.25,0.25
487.74,0.66,0.42,0.66,0.42,-0.42,-0.45,-0.25,0.24,0.24,0.24
492.62,0.64,0.41,0.64,0.41,-0.41,-0.44,-0.24,0.23,0.23,0.23
497.55,0.62,0.40,0.62,0.40,-0.40,-0.43,-0.23,0.22,0.22,0.22
