frequency,raw,error,smoothed,error_smoothed,equalization,parametric_eq,fixed_band_eq,equalized_raw,equalized_smoothed,target
20.00,1.16,-3.81,1.16,-3.81,3.81,3.66,1.40,4.96,4.96,4.96
20.20,1.16,-3.78,1.16,-3.78,3.78,3.66,1.44,4.94,4.94,4.93
20.40,1.16,-3.76,1.16,-3.76,3.76,3.65,1.48,4.91,4.91,4.91
20.61,1.16,-3.74,1.16,-3.74,3.73,3.64,1.53,4.89,4.89,4.89
20.81,1.16,-3.72,1.16,-3.72,3.71,3.64,1.57,4.87,4.87,4.87
21.02,1.16,-3.70,1.16,-3.70,3.69,3.63,1.62,4.85,4.85,4.85
21.23,1.16,-3.68,1.16,-3.67,3.67,3.62,1.67,4.83,4.83,4.83
21.44,1.16,-3.65,1.16,-3.66,3.65,3.61,1.72,4.81,4.81,4.81
21.66,1.16,-3.63,1.16,-3.64,3.64,3.61,1.77,4.79,4.79,4.79
21.87,1.16,-3.62,1.16,-3.62,3.62,3.60,1.83,4.78,4.78,4.78
22.09,1.16,-3.60,1.16,-3.61,3.61,3.59,1.88,4.76,4.76,4.76
22.31,1.16,-3.59,1.16,-3.59,3.60,3.58,1.94,4.75,4.75,4.75
22.54,1.16,-3.58,1.16,-3.58,3.59,3.57,2.00,4.74,4.74,4.74
22.76,1.16,-3.57,1.15,-3.58,3.58,3.55,2.05,4.74,4.73,4.73
22.99,1.15,-3.57,1.15,-3.57,3.57,3.54,2.11,4.72,4.72,4.72
23.22,1.14,-3.57,1.14,-3.57,3.57,3.53,2.18,4.70,4.70,4.71
23.45,1.14,-3.56,1.13,-3.56,3.56,3.52,2.24,4.69,4.69,4.70
23.69,1.14,-3.55,1.14,-3.55,3.54,3.51,2.30,4.68,4.68,4.69
23.92,1.16,-3.53,1.15,-3.53,3.53,3.49,2.37,4.68,4.68,4.68
24.16,1.17,-3.51,1.17,-3.51,3.50,3.48,2.43,4.67,4.67,4.67
24.40,1.19,-3.49,1.19,-3.48,3.48,3.47,2.50,4.66,4.67,4.67
24.65,1.22,-3.45,1.21,-3.45,3.45,3.45,2.57,4.66,4.66,4.66
24.89,1.25,-3.42,1.24,-3.41,3.41,3.44,2.64,4.66,4.66,4.66
25.14,1.28,-3.38,1.28,-3.38,3.38,3.42,2.71,4.65,4.65,4.65
25.39,1.31,-3.33,1.31,-3.34,3.34,3.41,2.78,4.65,4.65,4.64
25.65,1.34,-3.30,1.34,-3.30,3.30,3.40,2.85,4.64,4.64,4.64
25.91,1.36,-3.26,1.37,-3.27,3.27,3.38,2.92,4.63,4.63,4.63
26.16,1.40,-3.23,1.39,-3.23,3.23,3.36,2.99,4.63,4.63,4.63
26.43,1.42,-3.20,1.42,-3.20,3.20,3.35,3.05,4.62,4.62,4.63
26.69,1.45,-3.17,1.45,-3.17,3.17,3.33,3.12,4.61,4.62,4.62
26.96,1.48,-3.14,1.47,-3.14,3.15,3.32,3.19,4.62,4.62,4.61
27.23,1.49,-3.12,1.49,-3.12,3.13,3.30,3.25,4.61,4.61,4.60
27.50,1.50,-3.11,1.50,-3.10,3.11,3.28,3.32,4.61,4.61,4.60
27.77,1.51,-3.10,1.50,-3.09,3.10,3.27,3.38,4.61,4.60,4.60
28.05,1.51,-3.08,1.50,-3.09,3.09,3.25,3.44,4.60,4.60,4.59
28.33,1.50,-3.09,1.50,-3.09,3.09,3.23,3.49,4.59,4.59,4.59
28.62,1.49,-3.10,1.49,-3.09,3.09,3.22,3.54,4.57,4.58,4.59
28.90,1.49,-3.09,1.48,-3.09,3.09,3.20,3.59,4.57,4.57,4.58
29.19,1.49,-3.09,1.48,-3.09,3.09,3.18,3.63,4.57,4.57,4.57
29.48,1.49,-3.09,1.49,-3.09,3.09,3.17,3.67,4.57,4.57,4.57
29.78,1.49,-3.09,1.49,-3.09,3.09,3.15,3.71,4.57,4.57,4.57
30.08,1.49,-3.08,1.49,-3.08,3.08,3.13,3.74,4.57,4.57,4.57
30.38,1.49,-3.07,1.49,-3.08,3.08,3.11,3.77,4.56,4.56,4.56
30.68,1.49,-3.07,1.49,-3.07,3.07,3.10,3.79,4.56,4.56,4.56
30.99,1.49,-3.07,1.49,-3.07,3.07,3.08,3.80,4.55,4.55,4.55
31.30,1.49,-3.07,1.49,-3.06,3.06,3.06,3.81,4.55,4.55,4.55
31.61,1.49,-3.06,1.49,-3.06,3.06,3.05,3.82,4.54,4.54,4.54
31.93,1.49,-3.05,1.49,-3.05,3.05,3.03,3.82,4.54,4.54,4.54
32.24,1.49,-3.05,1.49,-3.05,3.05,3.01,3.81,4.53,4.53,4.54
32.57,1.49,-3.04,1.49,-3.04,3.04,2.99,3.80,4.53,4.53,4.52
32.89,1.49,-3.04,1.49,-3.04,3.04,2.98,3.78,4.52,4.52,4.52
33.22,1.49,-3.03,1.48,-3.03,3.04,2.96,3.76,4.52,4.52,4.52
33.55,1.49,-3.02,1.48,-3.03,3.03,2.94,3.74,4.52,4.52,4.51
33.89,1.48,-3.03,1.48,-3.03,3.03,2.93,3.71,4.51,4.51,4.51
34.23,1.48,-3.03,1.47,-3.03,3.03,2.91,3.68,4.51,4.50,4.50
34.57,1.47,-3.02,1.46,-3.03,3.03,2.89,3.64,4.49,4.49,4.49
34.92,1.46,-3.03,1.46,-3.03,3.02,2.88,3.60,4.48,4.48,4.49
35.27,1.47,-3.02,1.46,-3.02,3.01,2.86,3.56,4.48,4.47,4.48
35.62,1.47,-3.01,1.47,-3.00,3.00,2.84,3.52,4.46,4.47,4.47
35.97,1.49,-2.98,1.48,-2.98,2.98,2.83,3.47,4.47,4.47,4.47
36.33,1.51,-2.96,1.50,-2.96,2.96,2.81,3.43,4.46,4.46,4.46
36.70,1.53,-2.94,1.53,-2.93,2.93,2.80,3.38,4.46,4.46,4.46
37.06,1.56,-2.90,1.56,-2.90,2.90,2.78,3.33,4.45,4.45,4.46
37.43,1.59,-2.86,1.58,-2.86,2.86,2.77,3.28,4.45,4.45,4.44
37.81,1.62,-2.82,1.62,-2.82,2.82,2.75,3.23,4.44,4.44,4.44
38.19,1.65,-2.79,1.65,-2.79,2.78,2.74,3.19,4.43,4.43,4.43
38.57,1.68,-2.75,1.68,-2.75,2.74,2.72,3.14,4.42,4.42,4.42
38.95,1.71,-2.71,1.71,-2.71,2.71,2.71,3.09,4.41,4.41,4.42
39.34,1.74,-2.67,1.74,-2.67,2.67,2.69,3.04,4.40,4.40,4.40
39.74,1.77,-2.63,1.76,-2.63,2.63,2.68,3.00,4.40,4.40,4.40
40.14,1.79,-2.60,1.79,-2.60,2.60,2.66,2.95,4.39,4.39,4.38
40.54,1.81,-2.57,1.80,-2.57,2.58,2.65,2.91,4.38,4.38,4.38
40.94,1.82,-2.56,1.82,-2.55,2.56,2.64,2.87,4.37,4.38,4.37
41.35,1.83,-2.54,1.82,-2.54,2.55,2.62,2.83,4.37,4.37,4.37
41.76,1.83,-2.53,1.83,-2.53,2.54,2.61,2.79,4.36,4.36,4.36
42.18,1.83,-2.53,1.82,-2.53,2.53,2.60,2.75,4.36,4.36,4.35
42.60,1.82,-2.53,1.82,-2.53,2.53,2.58,2.72,4.35,4.35,4.35
43.03,1.81,-2.54,1.81,-2.54,2.53,2.57,2.69,4.34,4.34,4.35
43.46,1.81,-2.54,1.80,-2.54,2.53,2.56,2.66,4.33,4.33,4.34
43.90,1.81,-2.53,1.80,-2.53,2.53,2.55,2.63,4.33,4.33,4.34
44.33,1.81,-2.52,1.81,-2.52,2.52,2.53,2.60,4.33,4.33,4.33
44.78,1.81,-2.52,1.81,-2.52,2.52,2.52,2.58,4.32,4.32,4.32
45.23,1.81,-2.51,1.81,-2.51,2.51,2.51,2.55,4.32,4.32,4.31
45.68,1.81,-2.50,1.81,-2.50,2.50,2.50,2.53,4.31,4.31,4.31
46.13,1.81,-2.49,1.81,-2.49,2.49,2.49,2.52,4.30,4.30,4.30
46.60,1.81,-2.48,1.81,-2.48,2.48,2.48,2.50,4.29,4.29,4.29
47.06,1.81,-2.47,1.81,-2.47,2.47,2.46,2.48,4.27,4.27,4.28
47.53,1.81,-2.45,1.81,-2.46,2.46,2.45,2.47,4.26,4.26,4.26
48.01,1.81,-2.44,1.81,-2.44,2.45,2.44,2.46,4.25,4.25,4.25
48.49,1.81,-2.43,1.81,-2.43,2.43,2.43,2.45,4.24,4.24,4.24
48.97,1.81,-2.42,1.81,-2.42,2.42,2.42,2.44,4.23,4.23,4.23
49.46,1.81,-2.41,1.81,-2.41,2.41,2.41,2.44,4.22,4.22,4.22
49.96,1.81,-2.40,1.81,-2.40,2.40,2.40,2.43,4.21,4.21,4.21
50.46,1.81,-2.39,1.81,-2.39,2.39,2.38,2.43,4.20,4.20,4.19
50.96,1.81,-2.38,1.81,-2.38,2.38,2.37,2.42,4.19,4.19,4.18
51.47,1.81,-2.37,1.81,-2.37,2.37,2.36,2.42,4.17,4.17,4.18
51.99,1.81,-2.36,1.81,-2.36,2.36,2.35,2.42,4.16,4.16,4.17
52.51,1.81,-2.35,1.81,-2.35,2.35,2.34,2.42,4.15,4.15,4.15
53.03,1.81,-2.33,1.81,-2.33,2.34,2.33,2.42,4.14,4.14,4.14
53.56,1.81,-2.32,1.81,-2.32,2.32,2.32,2.42,4.13,4.13,4.12
54.10,1.81,-2.31,1.81,-2.31,2.31,2.30,2.42,4.12,4.12,4.12
54.64,1.81,-2.30,1.81,-2.30,2.30,2.29,2.42,4.10,4.10,4.10
55.18,1.81,-2.28,1.81,-2.28,2.28,2.28,2.42,4.09,4.09,4.09
55.74,1.81,-2.27,1.81,-2.27,2.27,2.27,2.42,4.07,4.07,4.07
56.29,1.81,-2.26,1.81,-2.25,2.26,2.25,2.42,4.06,4.06,4.06
56.86,1.81,-2.24,1.81,-2.24,2.24,2.24,2.42,4.05,4.05,4.05
57.42,1.81,-2.22,1.81,-2.23,2.23,2.23,2.41,4.03,4.03,4.03
58.00,1.81,-2.21,1.81,-2.21,2.21,2.21,2.41,4.02,4.02,4.02
58.58,1.81,-2.19,1.81,-2.19,2.19,2.20,2.40,4.00,4.00,4.00
59.16,1.81,-2.17,1.81,-2.18,2.18,2.18,2.39,3.98,3.98,3.98
59.76,1.81,-2.16,1.81,-2.16,2.16,2.17,2.38,3.96,3.96,3.97
60.35,1.81,-2.14,1.81,-2.14,2.14,2.15,2.37,3.94,3.94,3.95
60.96,1.81,-2.12,1.81,-2.12,2.12,2.14,2.36,3.92,3.92,3.92
61.57,1.81,-2.10,1.81,-2.10,2.10,2.12,2.34,3.90,3.90,3.90
62.18,1.81,-2.07,1.81,-2.07,2.07,2.10,2.32,3.88,3.88,3.88
62.80,1.81,-2.05,1.81,-2.05,2.05,2.08,2.30,3.86,3.86,3.85
63.43,1.81,-2.02,1.81,-2.02,2.02,2.07,2.27,3.83,3.83,3.83
64.07,1.81,-2.00,1.81,-2.00,2.00,2.05,2.24,3.80,3.80,3.80
64.71,1.81,-1.97,1.81,-1.97,1.97,2.03,2.21,3.78,3.78,3.78
65.35,1.81,-1.94,1.80,-1.94,1.94,2.01,2.18,3.75,3.74,3.75
66.01,1.81,-1.92,1.80,-1.92,1.91,1.99,2.14,3.71,3.71,3.72
66.67,1.81,-1.89,1.81,-1.88,1.88,1.97,2.11,3.68,3.68,3.69
67.33,1.82,-1.85,1.82,-1.85,1.84,1.94,2.07,3.66,3.66,3.66
68.01,1.83,-1.81,1.82,-1.81,1.81,1.92,2.02,3.64,3.63,3.63
68.69,1.83,-1.77,1.83,-1.77,1.78,1.90,1.98,3.61,3.61,3.60
69.37,1.83,-1.74,1.82,-1.74,1.75,1.87,1.94,3.58,3.58,3.57
70.07,1.82,-1.72,1.81,-1.72,1.73,1.85,1.89,3.54,3.54,3.53
70.77,1.80,-1.71,1.80,-1.71,1.71,1.82,1.84,3.51,3.51,3.50
71.48,1.78,-1.70,1.78,-1.70,1.70,1.79,1.79,3.47,3.47,3.48
72.19,1.76,-1.69,1.75,-1.69,1.69,1.77,1.74,3.44,3.44,3.44
72.91,1.73,-1.68,1.73,-1.68,1.68,1.74,1.69,3.40,3.41,3.40
73.64,1.70,-1.67,1.70,-1.67,1.67,1.71,1.64,3.37,3.37,3.37
74.38,1.67,-1.67,1.67,-1.67,1.67,1.68,1.58,3.34,3.34,3.34
75.12,1.64,-1.66,1.64,-1.67,1.67,1.65,1.53,3.30,3.30,3.30
75.87,1.61,-1.66,1.60,-1.66,1.66,1.62,1.47,3.27,3.27,3.27
76.63,1.58,-1.65,1.58,-1.65,1.65,1.58,1.42,3.23,3.23,3.23
77.40,1.55,-1.64,1.55,-1.64,1.65,1.55,1.37,3.19,3.19,3.19
78.17,1.53,-1.63,1.52,-1.63,1.63,1.52,1.31,3.16,3.15,3.16
78.95,1.50,-1.62,1.50,-1.62,1.61,1.48,1.26,3.11,3.11,3.11
79.74,1.48,-1.59,1.48,-1.59,1.59,1.44,1.20,3.06,3.07,3.07
80.54,1.47,-1.57,1.46,-1.57,1.56,1.41,1.15,3.02,3.02,3.03
81.35,1.46,-1.53,1.46,-1.53,1.52,1.37,1.10,2.98,2.98,2.99
82.16,1.46,-1.49,1.46,-1.48,1.48,1.33,1.04,2.93,2.94,2.94
82.98,1.47,-1.43,1.46,-1.43,1.43,1.29,0.99,2.90,2.90,2.89
83.81,1.48,-1.37,1.47,-1.37,1.38,1.25,0.94,2.86,2.86,2.85
84.65,1.49,-1.32,1.48,-1.32,1.33,1.21,0.89,2.81,2.81,2.81
85.50,1.49,-1.27,1.49,-1.27,1.28,1.17,0.84,2.76,2.76,2.76
86.35,1.49,-1.22,1.49,-1.22,1.22,1.13,0.79,2.71,2.71,2.71
87.22,1.49,-1.17,1.49,-1.17,1.17,1.09,0.74,2.66,2.66,2.66
88.09,1.49,-1.12,1.49,-1.12,1.12,1.05,0.69,2.60,2.60,2.60
88.97,1.49,-1.07,1.49,-1.07,1.07,1.00,0.64,2.55,2.55,2.55
89.86,1.49,-1.01,1.49,-1.01,1.01,0.96,0.59,2.50,2.50,2.50
90.76,1.49,-0.96,1.49,-0.96,0.96,0.92,0.54,2.45,2.45,2.45
91.66,1.49,-0.91,1.49,-0.91,0.91,0.87,0.49,2.39,2.39,2.39
92.58,1.49,-0.85,1.49,-0.85,0.85,0.83,0.45,2.34,2.34,2.34
93.51,1.49,-0.80,1.49,-0.80,0.80,0.78,0.40,2.28,2.28,2.28
94.44,1.49,-0.74,1.49,-0.74,0.74,0.73,0.35,2.23,2.23,2.23
95.39,1.49,-0.69,1.49,-0.69,0.69,0.69,0.31,2.17,2.17,2.17
96.34,1.49,-0.63,1.49,-0.63,0.63,0.64,0.26,2.12,2.12,2.12
97.30,1.49,-0.58,1.49,-0.58,0.58,0.59,0.22,2.06,2.06,2.07
98.28,1.49,-0.53,1.49,-0.53,0.52,0.54,0.17,2.01,2.01,2.01
99.26,1.49,-0.47,1.49,-0.47,0.47,0.50,0.13,1.95,1.95,1.96
100.25,1.49,-0.41,1.49,-0.41,0.41,0.45,0.08,1.90,1.90,1.90
101.25,1.49,-0.36,1.49,-0.35,0.36,0.40,0.04,1.84,1.84,1.84
102.27,1.49,-0.30,1.49,-0.30,0.30,0.35,-0.00,1.79,1.79,1.78
103.29,1.49,-0.24,1.49,-0.24,0.24,0.30,-0.04,1.73,1.73,1.72
104.32,1.49,-0.19,1.49,-0.19,0.19,0.25,-0.08,1.67,1.67,1.68
105.37,1.49,-0.13,1.49,-0.13,0.13,0.20,-0.12,1.62,1.62,1.62
106.42,1.49,-0.08,1.49,-0.08,0.08,0.15,-0.16,1.56,1.56,1.56
107.48,1.49,-0.03,1.49,-0.02,0.02,0.11,-0.20,1.51,1.51,1.51
108.56,1.49,0.03,1.48,0.03,-0.03,0.06,-0.24,1.45,1.45,1.46
109.64,1.49,0.09,1.49,0.09,-0.09,0.01,-0.28,1.39,1.39,1.40
110.74,1.49,0.14,1.49,0.15,-0.15,-0.04,-0.32,1.33,1.34,1.34
111.85,1.50,0.21,1.49,0.21,-0.21,-0.09,-0.35,1.29,1.28,1.28
112.97,1.50,0.26,1.50,0.27,-0.27,-0.14,-0.39,1.23,1.23,1.24
114.10,1.51,0.33,1.50,0.33,-0.32,-0.19,-0.42,1.19,1.19,1.18
115.24,1.51,0.38,1.50,0.38,-0.37,-0.24,-0.45,1.14,1.13,1.12
116.39,1.50,0.43,1.49,0.42,-0.42,-0.29,-0.48,1.08,1.08,1.07
117.55,1.48,0.45,1.48,0.46,-0.46,-0.34,-0.51,1.02,1.02,1.02
118.73,1.46,0.49,1.46,0.49,-0.49,-0.39,-0.54,0.96,0.96,0.97
119.92,1.44,0.52,1.44,0.52,-0.52,-0.43,-0.57,0.91,0.91,0.91
121.12,1.42,0.56,1.41,0.55,-0.55,-0.48,-0.60,0.87,0.87,0.86
122.33,1.39,0.57,1.39,0.57,-0.57,-0.53,-0.62,0.82,0.82,0.82
123.55,1.36,0.59,1.36,0.59,-0.59,-0.58,-0.65,0.77,0.77,0.76
124.79,1.33,0.61,1.32,0.60,-0.61,-0.62,-0.67,0.72,0.72,0.72
126.03,1.29,0.62,1.29,0.62,-0.62,-0.67,-0.69,0.66,0.67,0.67
127.29,1.26,0.63,1.26,0.63,-0.64,-0.72,-0.71,0.62,0.62,0.63
128.57,1.24,0.66,1.23,0.66,-0.66,-0.76,-0.73,0.58,0.57,0.58
129.85,1.21,0.68,1.21,0.68,-0.68,-0.81,-0.75,0.53,0.53,0.53
131.15,1.19,0.71,1.18,0.70,-0.70,-0.85,-0.77,0.48,0.48,0.48
132.46,1.17,0.73,1.16,0.73,-0.73,-0.90,-0.79,0.43,0.43,0.44
133.79,1.15,0.75,1.15,0.76,-0.76,-0.94,-0.80,0.38,0.39,0.39
135.12,1.14,0.79,1.14,0.79,-0.80,-0.98,-0.81,0.34,0.34,0.35
136.48,1.14,0.84,1.13,0.83,-0.83,-1.03,-0.83,0.30,0.30,0.30
137.84,1.14,0.88,1.13,0.88,-0.87,-1.07,-0.84,0.26,0.26,0.25
139.22,1.13,0.92,1.13,0.92,-0.91,-1.11,-0.85,0.21,0.21,0.21
140.61,1.13,0.96,1.13,0.96,-0.96,-1.15,-0.87,0.17,0.17,0.17
142.02,1.14,1.00,1.13,1.00,-1.01,-1.19,-0.88,0.13,0.13,0.13
143.44,1.15,1.05,1.15,1.05,-1.06,-1.23,-0.89,0.09,0.09,0.09
144.87,1.17,1.11,1.16,1.11,-1.11,-1.27,-0.90,0.06,0.05,0.05
146.32,1.18,1.15,1.18,1.16,-1.16,-1.30,-0.91,0.01,0.02,0.02
147.78,1.21,1.22,1.20,1.22,-1.22,-1.34,-0.92,-0.02,-0.02,-0.02
149.26,1.24,1.29,1.23,1.28,-1.28,-1.38,-0.93,-0.05,-0.06,-0.06
150.75,1.26,1.34,1.26,1.35,-1.35,-1.41,-0.94,-0.09,-0.09,-0.08
152.26,1.29,1.41,1.29,1.41,-1.41,-1.45,-0.96,-0.13,-0.12,-0.12
153.78,1.33,1.48,1.32,1.47,-1.47,-1.48,-0.97,-0.15,-0.15,-0.16
155.32,1.36,1.54,1.36,1.54,-1.54,-1.51,-0.98,-0.18,-0.18,-0.18
156.88,1.39,1.60,1.39,1.60,-1.60,-1.54,-0.99,-0.22,-0.22,-0.22
158.44,1.42,1.66,1.41,1.66,-1.66,-1.57,-1.01,-0.25,-0.25,-0.25
160.03,1.44,1.72,1.44,1.72,-1.72,-1.60,-1.02,-0.29,-0.29,-0.28
161.63,1.47,1.78,1.46,1.77,-1.78,-1.63,-1.04,-0.31,-0.31,-0.31
163.24,1.49,1.82,1.49,1.83,-1.83,-1.66,-1.05,-0.34,-0.34,-0.33
164.88,1.52,1.88,1.51,1.88,-1.87,-1.68,-1.07,-0.36,-0.36,-0.36
166.53,1.53,1.92,1.52,1.92,-1.90,-1.71,-1.09,-0.38,-0.38,-0.39
168.19,1.53,1.95,1.53,1.94,-1.93,-1.73,-1.11,-0.41,-0.41,-0.42
169.87,1.52,1.95,1.51,1.96,-1.95,-1.76,-1.13,-0.43,-0.44,-0.44
171.57,1.50,1.96,1.49,1.96,-1.96,-1.78,-1.15,-0.46,-0.47,-0.47
173.29,1.47,1.96,1.47,1.96,-1.96,-1.80,-1.17,-0.50,-0.49,-0.49
175.02,1.45,1.96,1.44,1.96,-1.96,-1.82,-1.19,-0.52,-0.52,-0.52
176.77,1.42,1.95,1.41,1.95,-1.95,-1.84,-1.21,-0.54,-0.54,-0.53
178.54,1.39,1.94,1.39,1.94,-1.95,-1.85,-1.24,-0.56,-0.56,-0.56
180.32,1.36,1.93,1.36,1.93,-1.94,-1.87,-1.26,-0.58,-0.58,-0.58
182.13,1.33,1.93,1.33,1.93,-1.93,-1.89,-1.29,-0.60,-0.60,-0.60
183.95,1.30,1.92,1.30,1.92,-1.92,-1.90,-1.32,-0.62,-0.62,-0.62
185.79,1.27,1.91,1.26,1.91,-1.91,-1.91,-1.35,-0.64,-0.64,-0.64
187.65,1.24,1.90,1.23,1.90,-1.90,-1.92,-1.37,-0.66,-0.66,-0.66
189.52,1.21,1.89,1.21,1.89,-1.89,-1.93,-1.40,-0.69,-0.68,-0.68
191.42,1.19,1.89,1.18,1.89,-1.89,-1.94,-1.44,-0.70,-0.70,-0.70
193.33,1.17,1.89,1.16,1.88,-1.89,-1.95,-1.47,-0.72,-0.73,-0.72
195.27,1.15,1.89,1.15,1.89,-1.89,-1.96,-1.50,-0.75,-0.74,-0.74
197.22,1.14,1.89,1.14,1.89,-1.90,-1.97,-1.53,-0.76,-0.76,-0.76
199.19,1.14,1.91,1.13,1.90,-1.91,-1.97,-1.57,-0.77,-0.78,-0.77
201.18,1.14,1.92,1.14,1.92,-1.92,-1.97,-1.60,-0.79,-0.79,-0.78
203.19,1.15,1.94,1.15,1.94,-1.94,-1.98,-1.63,-0.79,-0.79,-0.80
205.23,1.16,1.96,1.15,1.96,-1.96,-1.98,-1.67,-0.80,-0.81,-0.80
207.28,1.17,1.98,1.16,1.98,-1.98,-1.98,-1.70,-0.81,-0.82,-0.82
209.35,1.17,2.00,1.17,2.00,-2.00,-1.98,-1.74,-0.83,-0.83,-0.83
211.44,1.18,2.01,1.18,2.01,-2.01,-1.98,-1.77,-0.84,-0.83,-0.83
213.56,1.19,2.03,1.18,2.03,-2.02,-1.98,-1.81,-0.84,-0.84,-0.85
215.69,1.18,2.04,1.18,2.04,-2.03,-1.97,-1.84,-0.85,-0.85,-0.86
217.85,1.17,2.04,1.17,2.04,-2.03,-1.97,-1.87,-0.87,-0.86,-0.87
220.03,1.16,2.03,1.15,2.03,-2.03,-1.96,-1.90,-0.87,-0.88,-0.87
222.23,1.14,2.02,1.13,2.02,-2.02,-1.96,-1.93,-0.88,-0.89,-0.89
224.45,1.11,2.00,1.11,2.01,-2.01,-1.95,-1.96,-0.90,-0.90,-0.90
226.70,1.09,1.99,1.08,1.99,-1.99,-1.95,-1.99,-0.90,-0.90,-0.91
228.96,1.06,1.96,1.05,1.97,-1.96,-1.94,-2.01,-0.91,-0.91,-0.91
231.25,1.03,1.94,1.02,1.94,-1.94,-1.93,-2.04,-0.91,-0.92,-0.92
233.57,0.99,1.91,0.99,1.91,-1.91,-1.92,-2.06,-0.93,-0.92,-0.93
235.90,0.96,1.88,0.95,1.89,-1.88,-1.91,-2.08,-0.93,-0.93,-0.93
238.26,0.93,1.86,0.92,1.86,-1.86,-1.90,-2.09,-0.93,-0.93,-0.94
240.64,0.90,1.83,0.90,1.83,-1.83,-1.89,-2.10,-0.94,-0.94,-0.93
243.05,0.88,1.81,0.87,1.81,-1.81,-1.87,-2.11,-0.94,-0.94,-0.93
245.48,0.86,1.79,0.86,1.79,-1.80,-1.86,-2.12,-0.94,-0.94,-0.93
247.93,0.85,1.78,0.84,1.78,-1.78,-1.85,-2.13,-0.94,-0.94,-0.94
250.41,0.84,1.77,0.84,1.77,-1.78,-1.84,-2.13,-0.94,-0.94,-0.94
252.92,0.84,1.77,0.83,1.77,-1.77,-1.82,-2.12,-0.94,-0.94,-0.93
255.45,0.84,1.76,0.83,1.76,-1.77,-1.81,-2.12,-0.93,-0.93,-0.93
258.00,0.83,1.76,0.83,1.76,-1.76,-1.79,-2.11,-0.94,-0.93,-0.94
260.58,0.83,1.76,0.82,1.76,-1.75,-1.78,-2.10,-0.93,-0.93,-0.93
263.19,0.82,1.75,0.81,1.75,-1.74,-1.76,-2.09,-0.93,-0.93,-0.94
265.82,0.80,1.74,0.79,1.73,-1.73,-1.74,-2.07,-0.93,-0.93,-0.94
268.48,0.77,1.71,0.77,1.71,-1.71,-1.73,-2.05,-0.94,-0.94,-0.94
271.16,0.74,1.68,0.74,1.68,-1.68,-1.71,-2.03,-0.95,-0.95,-0.95
273.87,0.71,1.66,0.71,1.65,-1.65,-1.69,-2.00,-0.95,-0.95,-0.95
276.61,0.68,1.62,0.68,1.62,-1.62,-1.68,-1.98,-0.95,-0.95,-0.95
279.38,0.65,1.60,0.65,1.59,-1.59,-1.66,-1.95,-0.95,-0.95,-0.95
282.17,0.62,1.56,0.61,1.56,-1.56,-1.64,-1.92,-0.95,-0.95,-0.95
284.99,0.59,1.54,0.58,1.54,-1.54,-1.62,-1.89,-0.95,-0.95,-0.95
287.84,0.56,1.51,0.56,1.51,-1.51,-1.60,-1.86,-0.96,-0.95,-0.95
290.72,0.54,1.49,0.53,1.49,-1.49,-1.59,-1.83,-0.96,-0.96,-0.96
293.63,0.52,1.48,0.51,1.47,-1.48,-1.57,-1.79,-0.96,-0.97,-0.96
296.57,0.50,1.46,0.50,1.46,-1.47,-1.55,-1.76,-0.98,-0.97,-0.97
299.53,0.49,1.45,0.49,1.45,-1.47,-1.53,-1.72,-0.98,-0.98,-0.96
302.53,0.50,1.46,0.49,1.46,-1.47,-1.51,-1.69,-0.97,-0.97,-0.96
305.55,0.51,1.47,0.51,1.47,-1.47,-1.49,-1.65,-0.97,-0.97,-0.97
308.61,0.53,1.49,0.52,1.48,-1.47,-1.47,-1.62,-0.95,-0.95,-0.96
311.69,0.53,1.49,0.53,1.49,-1.48,-1.46,-1.58,-0.95,-0.95,-0.96
314.81,0.53,1.48,0.52,1.48,-1.47,-1.44,-1.55,-0.95,-0.95,-0.96
317.96,0.52,1.48,0.51,1.47,-1.46,-1.42,-1.51,-0.95,-0.95,-0.96
321.14,0.50,1.45,0.50,1.45,-1.45,-1.40,-1.48,-0.95,-0.95,-0.95
324.35,0.48,1.43,0.47,1.43,-1.43,-1.38,-1.45,-0.95,-0.95,-0.96
327.59,0.45,1.40,0.45,1.40,-1.40,-1.36,-1.41,-0.95,-0.95,-0.96
330.87,0.42,1.37,0.42,1.37,-1.37,-1.34,-1.38,-0.95,-0.95,-0.95
334.18,0.39,1.33,0.39,1.33,-1.33,-1.33,-1.35,-0.95,-0.95,-0.94
337.52,0.36,1.30,0.36,1.30,-1.30,-1.31,-1.32,-0.95,-0.95,-0.95
340.90,0.33,1.26,0.33,1.27,-1.27,-1.29,-1.29,-0.94,-0.94,-0.94
344.30,0.30,1.23,0.29,1.24,-1.23,-1.27,-1.26,-0.94,-0.94,-0.94
347.75,0.27,1.21,0.26,1.21,-1.20,-1.25,-1.24,-0.94,-0.94,-0.94
351.23,0.24,1.18,0.24,1.18,-1.18,-1.23,-1.21,-0.94,-0.94,-0.94
354.74,0.22,1.15,0.21,1.15,-1.15,-1.22,-1.18,-0.94,-0.94,-0.94
358.28,0.20,1.13,0.19,1.13,-1.14,-1.20,-1.16,-0.94,-0.94,-0.94
361.87,0.18,1.11,0.18,1.12,-1.12,-1.18,-1.13,-0.95,-0.94,-0.94
365.49,0.17,1.11,0.17,1.11,-1.11,-1.16,-1.11,-0.95,-0.95,-0.94
369.14,0.17,1.11,0.16,1.11,-1.11,-1.15,-1.09,-0.94,-0.94,-0.94
372.83,0.17,1.11,0.17,1.11,-1.11,-1.13,-1.07,-0.94,-0.94,-0.94
376.56,0.18,1.11,0.17,1.11,-1.11,-1.11,-1.05,-0.94,-0.94,-0.94
380.33,0.18,1.11,0.18,1.12,-1.12,-1.10,-1.03,-0.94,-0.94,-0.94
384.13,0.19,1.12,0.19,1.12,-1.13,-1.08,-1.01,-0.94,-0.94,-0.94
387.97,0.20,1.13,0.19,1.13,-1.13,-1.06,-0.99,-0.93,-0.94,-0.94
391.85,0.21,1.14,0.20,1.14,-1.13,-1.05,-0.98,-0.93,-0.93,-0.93
395.77,0.21,1.14,0.21,1.14,-1.13,-1.03,-0.96,-0.92,-0.92,-0.93
399.73,0.21,1.13,0.20,1.13,-1.12,-1.02,-0.95,-0.92,-0.92,-0.92
403.72,0.20,1.12,0.19,1.12,-1.11,-1.00,-0.93,-0.92,-0.92,-0.92
407.76,0.18,1.09,0.18,1.10,-1.09,-0.99,-0.92,-0.92,-0.92,-0.92
411.84,0.16,1.07,0.16,1.07,-1.07,-0.97,-0.91,-0.91,-0.91,-0.92
415.96,0.14,1.04,0.13,1.04,-1.04,-0.96,-0.89,-0.91,-0.91,-0.91
420.12,0.11,1.01,0.11,1.01,-1.01,-0.94,-0.88,-0.91,-0.91,-0.91
424.32,0.08,0.98,0.08,0.98,-0.98,-0.93,-0.87,-0.91,-0.91,-0.91
428.56,0.05,0.95,0.05,0.95,-0.95,-0.91,-0.86,-0.91,-0.91,-0.90
432.85,0.02,0.92,0.02,0.92,-0.92,-0.90,-0.85,-0.90,-0.90,-0.90
437.18,-0.01,0.89,-0.02,0.89,-0.89,-0.89,-0.84,-0.90,-0.90,-0.90
441.55,-0.04,0.86,-0.04,0.86,-0.86,-0.87,-0.83,-0.90,-0.90,-0.90
445.96,-0.07,0.83,-0.07,0.83,-0.83,-0.86,-0.83,-0.90,-0.90,-0.90
450.42,-0.09,0.81,-0.10,0.80,-0.80,-0.85,-0.82,-0.90,-0.90,-0.90
454.93,-0.12,0.78,-0.12,0.78,-0.78,-0.84,-0.81,-0.91,-0.91,-0.90
459.48,-0.14,0.76,-0.14,0.76,-0.77,-0.82,-0.80,-0.91,-0.91,-0.91
464.07,-0.15,0.75,-0.16,0.75,-0.76,-0.81,-0.80,-0.91,-0.91,-0.91
468.71,-0.16,0.74,-0.16,0.74,-0.75,-0.80,-0.79,-0.91,-0.91,-0.91
473.40,-0.16,0.74,-0.16,0.74,-0.75,-0.79,-0.78,-0.91,-0.91,-0.91
478.13,-0.15,0.74,-0.16,0.75,-0.74,-0.78,-0.78,-0.90,-0.90,-0.90
482.91,-0.14,0.75,-0.15,0.75,-0.75,-0.77,-0.77,-0.89,-0.89,-0.90
487.74,-0.14,0.75,-0.14,0.75,-0.75,-0.76,-0.76,-0.89,-0.89,-0.90
492.62,-0.14,0.75,-0.14,0.75,-0.75,-0.75,-0.76,-0.89,-0.89,-0.90
497.55,-0.14,0.75,-0.14,0.75,-0.75,-0.74,-0.75,-0.89,-0.89,-0.89
502.52,-0.14,0.75,-0.14,0.75,-0.75,-0.73,-0.75,-0.89,-0.89,-0.89
507.55,-0.14,0.75,-0.14,0.74,-0.75,-0.72,-0.74,-0.89,-0.89,-0.89
512.62,-0.14,0.75,-0.14,0.74,-0.74,-0.71,-0.73,-0.89,-0.89,-0.89
517.75,-0.14,0.74,-0.14,0.74,-0.74,-0.70,-0.73,-0.89,-0.89,-0.88
522.93,-0.14,0.74,-0.14,0.74,-0.74,-0.69,-0.72,-0.88,-0.88,-0.88
