frequency,raw,error,smoothed,error_smoothed,equalization,parametric_eq,fixed_band_eq,equalized_raw,equalized_smoothed,target
20.00,-5.51,-1.57,-5.51,-1.56,1.57,-0.21,0.06,-3.95,-3.94,-3.95
20.20,-5.41,-1.56,-5.41,-1.56,1.56,-0.21,0.06,-3.85,-3.86,-3.86
20.40,-5.31,-1.55,-5.32,-1.55,1.55,-0.22,0.06,-3.77,-3.77,-3.77
20.61,-5.22,-1.53,-5.22,-1.53,1.53,-0.22,0.07,-3.70,-3.69,-3.70
20.81,-5.12,-1.51,-5.12,-1.51,1.51,-0.22,0.07,-3.61,-3.61,-3.61
21.02,-5.02,-1.49,-5.02,-1.49,1.49,-0.22,0.07,-3.54,-3.54,-3.53
21.23,-4.92,-1.45,-4.92,-1.46,1.46,-0.23,0.08,-3.46,-3.47,-3.47
21.44,-4.83,-1.42,-4.83,-1.43,1.43,-0.23,0.08,-3.41,-3.40,-3.41
21.66,-4.73,-1.39,-4.73,-1.39,1.39,-0.23,0.08,-3.34,-3.34,-3.34
21.87,-4.64,-1.35,-4.64,-1.35,1.35,-0.23,0.09,-3.29,-3.29,-3.29
22.09,-4.54,-1.30,-4.54,-1.31,1.31,-0.24,0.09,-3.24,-3.24,-3.24
22.31,-4.45,-1.26,-4.45,-1.26,1.26,-0.24,0.09,-3.19,-3.19,-3.19
22.54,-4.35,-1.21,-4.35,-1.21,1.21,-0.24,0.10,-3.14,-3.14,-3.14
22.76,-4.26,-1.16,-4.26,-1.16,1.16,-0.25,0.10,-3.10,-3.10,-3.10
22.99,-4.16,-1.10,-4.17,-1.11,1.11,-0.25,0.10,-3.05,-3.06,-3.06
23.22,-4.07,-1.05,-4.07,-1.05,1.06,-0.25,0.11,-3.02,-3.02,-3.02
23.45,-3.98,-1.01,-3.98,-1.00,1.01,-0.26,0.11,-2.98,-2.97,-2.97
23.69,-3.88,-0.95,-3.89,-0.95,0.95,-0.26,0.12,-2.93,-2.93,-2.93
23.92,-3.79,-0.90,-3.79,-0.90,0.90,-0.26,0.12,-2.89,-2.89,-2.89
24.16,-3.70,-0.86,-3.70,-0.85,0.85,-0.27,0.12,-2.85,-2.85,-2.84
24.40,-3.61,-0.81,-3.61,-0.80,0.80,-0.27,0.13,-2.81,-2.81,-2.80
24.65,-3.52,-0.75,-3.52,-0.75,0.75,-0.27,0.13,-2.77,-2.77,-2.78
24.89,-3.43,-0.70,-3.43,-0.70,0.70,-0.28,0.14,-2.73,-2.73,-2.74
25.14,-3.34,-0.65,-3.34,-0.65,0.65,-0.28,0.14,-2.70,-2.70,-2.70
25.39,-3.25,-0.59,-3.25,-0.59,0.59,-0.29,0.14,-2.66,-2.66,-2.66
25.65,-3.16,-0.54,-3.16,-0.54,0.54,-0.29,0.15,-2.62,-2.62,-2.62
25.91,-3.07,-0.49,-3.07,-0.49,0.49,-0.29,0.15,-2.59,-2.59,-2.59
26.16,-2.98,-0.43,-2.99,-0.43,0.44,-0.30,0.16,-2.55,-2.55,-2.55
26.43,-2.90,-0.38,-2.90,-0.38,0.38,-0.30,0.16,-2.52,-2.51,-2.52
26.69,-2.81,-0.33,-2.81,-0.33,0.33,-0.31,0.16,-2.48,-2.48,-2.48
26.96,-2.72,-0.28,-2.73,-0.28,0.28,-0.31,0.16,-2.44,-2.44,-2.44
27.23,-2.64,-0.23,-2.64,-0.23,0.23,-0.32,0.17,-2.41,-2.41,-2.41
27.50,-2.56,-0.19,-2.56,-0.19,0.18,-0.32,0.17,-2.38,-2.38,-2.37
27.77,-2.48,-0.14,-2.48,-0.14,0.14,-0.33,0.17,-2.34,-2.34,-2.34
28.05,-2.40,-0.10,-2.40,-0.09,0.09,-0.33,0.17,-2.31,-2.31,-2.30
28.33,-2.32,-0.04,-2.32,-0.04,0.04,-0.34,0.17,-2.28,-2.28,-2.29
28.62,-2.24,0.00,-2.25,0.00,0.00,-0.34,0.17,-2.24,-2.25,-2.25
28.90,-2.17,0.04,-2.17,0.04,-0.04,-0.35,0.17,-2.22,-2.21,-2.21
29.19,-2.09,0.09,-2.09,0.08,-0.08,-0.35,0.17,-2.18,-2.18,-2.18
29.48,-2.01,0.12,-2.02,0.12,-0.12,-0.36,0.17,-2.14,-2.14,-2.13
29.78,-1.94,0.17,-1.94,0.16,-0.16,-0.36,0.16,-2.10,-2.10,-2.11
30.08,-1.87,0.20,-1.87,0.20,-0.19,-0.37,0.16,-2.07,-2.07,-2.07
30.38,-1.81,0.23,-1.81,0.23,-0.23,-0.37,0.15,-2.04,-2.04,-2.04
30.68,-1.75,0.25,-1.75,0.26,-0.26,-0.38,0.15,-2.01,-2.01,-2.01
30.99,-1.69,0.29,-1.70,0.28,-0.29,-0.39,0.14,-1.98,-1.98,-1.99
31.30,-1.64,0.31,-1.64,0.31,-0.31,-0.39,0.13,-1.96,-1.95,-1.95
31.61,-1.58,0.34,-1.58,0.34,-0.34,-0.40,0.13,-1.92,-1.92,-1.92
31.93,-1.52,0.37,-1.53,0.37,-0.37,-0.41,0.12,-1.89,-1.89,-1.89
32.24,-1.47,0.40,-1.47,0.40,-0.40,-0.41,0.11,-1.87,-1.86,-1.87
32.57,-1.41,0.43,-1.41,0.42,-0.42,-0.42,0.09,-1.84,-1.84,-1.84
32.89,-1.36,0.44,-1.36,0.45,-0.45,-0.43,0.08,-1.81,-1.81,-1.81
33.22,-1.31,0.47,-1.31,0.48,-0.48,-0.43,0.07,-1.79,-1.79,-1.79
33.55,-1.26,0.51,-1.26,0.51,-0.51,-0.44,0.05,-1.77,-1.77,-1.77
33.89,-1.21,0.54,-1.21,0.53,-0.53,-0.45,0.04,-1.75,-1.75,-1.75
34.23,-1.16,0.56,-1.16,0.56,-0.56,-0.46,0.02,-1.72,-1.73,-1.72
34.57,-1.12,0.58,-1.12,0.59,-0.59,-0.47,0.01,-1.71,-1.71,-1.70
34.92,-1.07,0.62,-1.08,0.61,-0.62,-0.47,-0.01,-1.69,-1.69,-1.70
35.27,-1.03,0.64,-1.03,0.64,-0.64,-0.48,-0.03,-1.68,-1.68,-1.67
35.62,-0.99,0.67,-0.99,0.67,-0.67,-0.49,-0.05,-1.66,-1.66,-1.66
35.97,-0.95,0.70,-0.96,0.69,-0.70,-0.50,-0.07,-1.65,-1.65,-1.65
36.33,-0.92,0.71,-0.92,0.72,-0.72,-0.51,-0.09,-1.64,-1.64,-1.64
36.70,-0.88,0.75,-0.88,0.75,-0.74,-0.52,-0.11,-1.63,-1.62,-1.63
37.06,-0.84,0.78,-0.85,0.77,-0.77,-0.53,-0.13,-1.61,-1.61,-1.62
37.43,-0.81,0.79,-0.82,0.79,-0.79,-0.54,-0.15,-1.60,-1.60,-1.60
37.81,-0.79,0.80,-0.79,0.81,-0.81,-0.55,-0.18,-1.60,-1.60,-1.60
38.19,-0.76,0.83,-0.76,0.83,-0.83,-0.56,-0.20,-1.60,-1.60,-1.59
38.57,-0.73,0.85,-0.73,0.85,-0.86,-0.57,-0.22,-1.59,-1.59,-1.58
38.95,-0.70,0.88,-0.71,0.88,-0.88,-0.58,-0.25,-1.58,-1.58,-1.59
39.34,-0.68,0.91,-0.68,0.90,-0.90,-0.59,-0.27,-1.58,-1.58,-1.59
39.74,-0.66,0.92,-0.66,0.93,-0.92,-0.60,-0.30,-1.59,-1.58,-1.58
40.14,-0.64,0.94,-0.64,0.94,-0.94,-0.62,-0.32,-1.59,-1.58,-1.59
40.54,-0.62,0.97,-0.62,0.96,-0.96,-0.63,-0.35,-1.58,-1.58,-1.59
40.94,-0.60,0.98,-0.60,0.98,-0.98,-0.64,-0.37,-1.58,-1.58,-1.58
41.35,-0.59,0.99,-0.59,1.00,-0.99,-0.65,-0.40,-1.58,-1.58,-1.59
41.76,-0.57,1.01,-0.57,1.01,-1.00,-0.67,-0.43,-1.58,-1.58,-1.58
42.18,-0.56,1.01,-0.56,1.02,-1.02,-0.68,-0.45,-1.58,-1.58,-1.58
42.60,-0.55,1.03,-0.55,1.02,-1.03,-0.69,-0.48,-1.58,-1.58,-1.58
43.03,-0.54,1.03,-0.54,1.04,-1.04,-0.71,-0.51,-1.58,-1.58,-1.57
43.46,-0.53,1.05,-0.53,1.05,-1.05,-0.72,-0.54,-1.59,-1.59,-1.58
43.90,-0.52,1.07,-0.52,1.06,-1.07,-0.74,-0.57,-1.59,-1.59,-1.59
44.33,-0.52,1.08,-0.52,1.08,-1.08,-0.75,-0.60,-1.60,-1.59,-1.60
44.78,-0.51,1.09,-0.51,1.09,-1.09,-0.77,-0.63,-1.60,-1.60,-1.60
45.23,-0.51,1.10,-0.51,1.10,-1.09,-0.78,-0.66,-1.61,-1.61,-1.61
45.68,-0.51,1.10,-0.51,1.10,-1.10,-0.80,-0.69,-1.61,-1.61,-1.61
46.13,-0.51,1.11,-0.51,1.10,-1.10,-0.81,-0.72,-1.61,-1.61,-1.62
46.60,-0.51,1.10,-0.51,1.11,-1.11,-0.83,-0.75,-1.62,-1.62,-1.62
47.06,-0.51,1.10,-0.51,1.10,-1.11,-0.85,-0.78,-1.62,-1.62,-1.61
47.53,-0.51,1.11,-0.51,1.10,-1.11,-0.86,-0.82,-1.62,-1.62,-1.62
48.01,-0.51,1.09,-0.51,1.10,-1.11,-0.88,-0.85,-1.62,-1.62,-1.61
48.49,-0.51,1.11,-0.51,1.11,-1.11,-0.90,-0.88,-1.62,-1.62,-1.62
48.97,-0.52,1.11,-0.52,1.11,-1.11,-0.92,-0.92,-1.63,-1.63,-1.63
49.46,-0.52,1.11,-0.53,1.11,-1.11,-0.93,-0.95,-1.63,-1.63,-1.64
49.96,-0.53,1.11,-0.53,1.10,-1.10,-0.95,-0.98,-1.64,-1.63,-1.64
50.46,-0.53,1.09,-0.53,1.10,-1.10,-0.97,-1.02,-1.63,-1.63,-1.62
50.96,-0.53,1.09,-0.53,1.09,-1.09,-0.99,-1.05,-1.63,-1.63,-1.62
51.47,-0.53,1.10,-0.53,1.09,-1.09,-1.01,-1.08,-1.62,-1.62,-1.63
51.99,-0.53,1.09,-0.53,1.08,-1.08,-1.02,-1.12,-1.61,-1.61,-1.62
52.51,-0.54,1.07,-0.54,1.07,-1.07,-1.04,-1.15,-1.61,-1.61,-1.61
53.03,-0.54,1.05,-0.54,1.06,-1.06,-1.06,-1.18,-1.60,-1.60,-1.60
53.56,-0.55,1.04,-0.55,1.04,-1.05,-1.08,-1.22,-1.60,-1.60,-1.60
54.10,-0.55,1.04,-0.56,1.04,-1.04,-1.09,-1.25,-1.59,-1.60,-1.60
54.64,-0.56,1.02,-0.56,1.03,-1.03,-1.11,-1.28,-1.60,-1.59,-1.59
55.18,-0.56,1.03,-0.56,1.03,-1.03,-1.13,-1.31,-1.60,-1.59,-1.59
55.74,-0.55,1.04,-0.56,1.03,-1.04,-1.14,-1.34,-1.59,-1.59,-1.59
56.29,-0.55,1.04,-0.55,1.04,-1.04,-1.16,-1.37,-1.59,-1.59,-1.59
56.86,-0.54,1.05,-0.54,1.05,-1.05,-1.17,-1.40,-1.59,-1.59,-1.59
57.42,-0.53,1.07,-0.53,1.07,-1.06,-1.19,-1.43,-1.59,-1.59,-1.60
58.00,-0.52,1.08,-0.52,1.08,-1.08,-1.20,-1.45,-1.60,-1.60,-1.61
58.58,-0.51,1.10,-0.51,1.10,-1.10,-1.22,-1.48,-1.61,-1.61,-1.61
59.16,-0.50,1.11,-0.50,1.11,-1.12,-1.23,-1.50,-1.62,-1.62,-1.61
59.76,-0.48,1.13,-0.48,1.14,-1.15,-1.24,-1.52,-1.63,-1.63,-1.62
60.35,-0.46,1.17,-0.46,1.17,-1.18,-1.26,-1.54,-1.64,-1.64,-1.63
60.96,-0.44,1.20,-0.44,1.21,-1.21,-1.27,-1.56,-1.65,-1.65,-1.65
61.57,-0.42,1.25,-0.42,1.25,-1.25,-1.28,-1.57,-1.67,-1.67,-1.67
62.18,-0.40,1.29,-0.40,1.29,-1.28,-1.29,-1.59,-1.69,-1.69,-1.70
62.80,-0.38,1.32,-0.38,1.33,-1.32,-1.30,-1.60,-1.70,-1.71,-1.70
63.43,-0.36,1.37,-0.36,1.36,-1.36,-1.31,-1.61,-1.72,-1.72,-1.73
64.07,-0.34,1.39,-0.34,1.40,-1.40,-1.32,-1.62,-1.74,-1.74,-1.74
64.71,-0.31,1.43,-0.32,1.43,-1.43,-1.33,-1.63,-1.74,-1.75,-1.74
65.35,-0.29,1.46,-0.29,1.46,-1.46,-1.33,-1.63,-1.75,-1.75,-1.75
66.01,-0.27,1.49,-0.27,1.49,-1.49,-1.34,-1.64,-1.76,-1.76,-1.76
66.67,-0.25,1.52,-0.25,1.51,-1.51,-1.35,-1.64,-1.76,-1.76,-1.77
67.33,-0.23,1.54,-0.24,1.53,-1.53,-1.35,-1.64,-1.76,-1.77,-1.77
68.01,-0.22,1.55,-0.22,1.55,-1.55,-1.36,-1.64,-1.77,-1.77,-1.77
68.69,-0.21,1.56,-0.21,1.56,-1.56,-1.37,-1.64,-1.77,-1.77,-1.77
69.37,-0.20,1.57,-0.20,1.57,-1.57,-1.37,-1.64,-1.77,-1.77,-1.77
70.07,-0.19,1.58,-0.19,1.58,-1.58,-1.38,-1.63,-1.77,-1.77,-1.77
70.77,-0.18,1.58,-0.18,1.59,-1.58,-1.39,-1.63,-1.76,-1.76,-1.77
71.48,-0.18,1.59,-0.18,1.59,-1.58,-1.39,-1.63,-1.76,-1.76,-1.77
72.19,-0.18,1.59,-0.19,1.58,-1.58,-1.40,-1.62,-1.76,-1.77,-1.77
72.91,-0.20,1.57,-0.20,1.58,-1.58,-1.40,-1.62,-1.78,-1.78,-1.78
73.64,-0.21,1.58,-0.21,1.58,-1.58,-1.41,-1.61,-1.79,-1.79,-1.79
74.38,-0.21,1.57,-0.21,1.57,-1.58,-1.42,-1.61,-1.79,-1.79,-1.79
75.12,-0.21,1.58,-0.21,1.58,-1.58,-1.42,-1.60,-1.79,-1.79,-1.79
75.87,-0.21,1.57,-0.21,1.58,-1.58,-1.43,-1.60,-1.79,-1.79,-1.79
76.63,-0.21,1.58,-0.21,1.58,-1.58,-1.44,-1.59,-1.79,-1.79,-1.79
77.40,-0.21,1.58,-0.21,1.58,-1.58,-1.45,-1.59,-1.79,-1.79,-1.79
78.17,-0.21,1.59,-0.21,1.58,-1.58,-1.45,-1.59,-1.79,-1.79,-1.80
78.95,-0.21,1.57,-0.21,1.58,-1.57,-1.46,-1.58,-1.78,-1.78,-1.79
79.74,-0.21,1.56,-0.21,1.57,-1.57,-1.47,-1.58,-1.78,-1.78,-1.78
80.54,-0.21,1.55,-0.21,1.56,-1.56,-1.48,-1.58,-1.77,-1.77,-1.77
81.35,-0.21,1.54,-0.21,1.54,-1.54,-1.49,-1.58,-1.76,-1.76,-1.76
82.16,-0.21,1.53,-0.21,1.53,-1.53,-1.50,-1.58,-1.74,-1.74,-1.75
82.98,-0.21,1.51,-0.21,1.52,-1.51,-1.51,-1.59,-1.72,-1.72,-1.72
83.81,-0.21,1.50,-0.21,1.50,-1.49,-1.52,-1.59,-1.71,-1.71,-1.71
84.65,-0.21,1.49,-0.21,1.48,-1.48,-1.53,-1.60,-1.69,-1.69,-1.70
85.50,-0.21,1.45,-0.21,1.46,-1.46,-1.54,-1.60,-1.67,-1.67,-1.67
86.35,-0.21,1.44,-0.21,1.44,-1.44,-1.55,-1.61,-1.65,-1.65,-1.65
87.22,-0.21,1.42,-0.21,1.42,-1.42,-1.56,-1.62,-1.64,-1.64,-1.63
88.09,-0.21,1.41,-0.21,1.41,-1.41,-1.58,-1.63,-1.62,-1.62,-1.63
88.97,-0.21,1.39,-0.21,1.40,-1.40,-1.59,-1.64,-1.61,-1.61,-1.60
89.86,-0.21,1.38,-0.21,1.38,-1.39,-1.60,-1.65,-1.60,-1.60,-1.60
90.76,-0.21,1.39,-0.21,1.38,-1.38,-1.62,-1.66,-1.59,-1.59,-1.60
91.66,-0.21,1.37,-0.21,1.38,-1.38,-1.63,-1.68,-1.59,-1.59,-1.59
92.58,-0.21,1.39,-0.21,1.38,-1.38,-1.64,-1.69,-1.59,-1.59,-1.60
93.51,-0.21,1.39,-0.21,1.39,-1.39,-1.66,-1.71,-1.60,-1.60,-1.60
94.44,-0.21,1.39,-0.21,1.40,-1.40,-1.67,-1.73,-1.61,-1.61,-1.61
95.39,-0.21,1.41,-0.21,1.41,-1.42,-1.69,-1.75,-1.63,-1.63,-1.62
96.34,-0.21,1.44,-0.21,1.44,-1.44,-1.71,-1.77,-1.65,-1.65,-1.65
97.30,-0.21,1.46,-0.21,1.46,-1.46,-1.72,-1.79,-1.67,-1.67,-1.68
98.28,-0.21,1.49,-0.21,1.49,-1.48,-1.74,-1.81,-1.70,-1.70,-1.70
99.26,-0.21,1.52,-0.22,1.52,-1.51,-1.76,-1.83,-1.73,-1.73,-1.73
100.25,-0.22,1.55,-0.22,1.55,-1.54,-1.77,-1.86,-1.77,-1.77,-1.77
101.25,-0.23,1.58,-0.23,1.58,-1.58,-1.79,-1.88,-1.81,-1.81,-1.81
102.27,-0.23,1.60,-0.23,1.61,-1.62,-1.81,-1.91,-1.85,-1.85,-1.84
103.29,-0.22,1.66,-0.22,1.66,-1.66,-1.83,-1.93,-1.88,-1.88,-1.88
104.32,-0.21,1.70,-0.21,1.70,-1.70,-1.85,-1.96,-1.92,-1.91,-1.91
105.37,-0.19,1.76,-0.19,1.75,-1.76,-1.87,-1.99,-1.95,-1.95,-1.95
106.42,-0.17,1.81,-0.17,1.81,-1.82,-1.89,-2.02,-1.99,-1.99,-1.98
107.48,-0.15,1.87,-0.15,1.87,-1.88,-1.91,-2.04,-2.03,-2.03,-2.02
108.56,-0.11,1.94,-0.11,1.94,-1.95,-1.93,-2.07,-2.06,-2.06,-2.06
109.64,-0.07,2.02,-0.08,2.01,-2.02,-1.95,-2.10,-2.09,-2.10,-2.09
110.74,-0.03,2.09,-0.03,2.09,-2.09,-1.97,-2.12,-2.13,-2.12,-2.12
111.85,0.01,2.15,0.01,2.16,-2.16,-1.99,-2.15,-2.16,-2.15,-2.14
112.97,0.06,2.25,0.05,2.23,-2.23,-2.01,-2.18,-2.17,-2.18,-2.19
114.10,0.09,2.29,0.09,2.29,-2.28,-2.03,-2.20,-2.20,-2.20,-2.21
115.24,0.11,2.34,0.11,2.34,-2.33,-2.05,-2.23,-2.22,-2.22,-2.23
116.39,0.12,2.37,0.12,2.37,-2.36,-2.08,-2.25,-2.24,-2.24,-2.25
117.55,0.12,2.39,0.12,2.39,-2.38,-2.10,-2.27,-2.26,-2.26,-2.28
118.73,0.11,2.40,0.10,2.39,-2.38,-2.12,-2.29,-2.27,-2.28,-2.29
119.92,0.07,2.37,0.07,2.37,-2.37,-2.14,-2.31,-2.30,-2.30,-2.30
121.12,0.03,2.34,0.03,2.35,-2.35,-2.17,-2.33,-2.33,-2.32,-2.32
122.33,-0.00,2.33,-0.00,2.32,-2.33,-2.19,-2.34,-2.33,-2.33,-2.33
123.55,-0.03,2.30,-0.04,2.30,-2.31,-2.21,-2.36,-2.34,-2.34,-2.34
124.79,-0.07,2.28,-0.07,2.28,-2.28,-2.24,-2.37,-2.35,-2.35,-2.35
126.03,-0.11,2.25,-0.11,2.25,-2.26,-2.26,-2.38,-2.37,-2.36,-2.36
127.29,-0.14,2.23,-0.14,2.23,-2.24,-2.28,-2.39,-2.38,-2.38,-2.37
128.57,-0.16,2.23,-0.17,2.22,-2.22,-2.31,-2.40,-2.38,-2.39,-2.39
129.85,-0.20,2.20,-0.19,2.21,-2.21,-2.33,-2.41,-2.41,-2.40,-2.40
131.15,-0.21,2.20,-0.21,2.20,-2.21,-2.36,-2.41,-2.42,-2.42,-2.42
132.46,-0.22,2.21,-0.23,2.20,-2.21,-2.38,-2.42,-2.43,-2.43,-2.43
133.79,-0.23,2.20,-0.23,2.21,-2.22,-2.40,-2.42,-2.45,-2.44,-2.43
135.12,-0.22,2.24,-0.23,2.22,-2.23,-2.43,-2.42,-2.45,-2.45,-2.46
136.48,-0.22,2.24,-0.22,2.25,-2.25,-2.45,-2.42,-2.47,-2.47,-2.46
137.84,-0.21,2.27,-0.22,2.27,-2.27,-2.48,-2.42,-2.48,-2.48,-2.48
139.22,-0.21,2.30,-0.21,2.29,-2.29,-2.50,-2.42,-2.50,-2.50,-2.51
140.61,-0.21,2.32,-0.21,2.32,-2.31,-2.53,-2.42,-2.53,-2.52,-2.53
142.02,-0.20,2.33,-0.20,2.34,-2.34,-2.55,-2.42,-2.54,-2.54,-2.54
143.44,-0.19,2.36,-0.20,2.36,-2.36,-2.58,-2.42,-2.55,-2.56,-2.55
144.87,-0.19,2.39,-0.19,2.39,-2.38,-2.60,-2.42,-2.58,-2.58,-2.58
146.32,-0.19,2.42,-0.19,2.40,-2.41,-2.63,-2.42,-2.60,-2.60,-2.61
147.78,-0.20,2.41,-0.20,2.42,-2.42,-2.65,-2.42,-2.62,-2.62,-2.61
149.26,-0.21,2.43,-0.21,2.44,-2.44,-2.67,-2.42,-2.65,-2.65,-2.64
150.75,-0.22,2.46,-0.22,2.45,-2.45,-2.70,-2.42,-2.67,-2.67,-2.68
152.26,-0.23,2.48,-0.24,2.47,-2.46,-2.72,-2.42,-2.69,-2.70,-2.71
153.78,-0.26,2.47,-0.26,2.47,-2.47,-2.75,-2.42,-2.73,-2.73,-2.73
155.32,-0.29,2.47,-0.29,2.47,-2.48,-2.77,-2.43,-2.77,-2.77,-2.76
156.88,-0.32,2.46,-0.32,2.47,-2.48,-2.79,-2.43,-2.81,-2.80,-2.79
158.44,-0.34,2.48,-0.35,2.48,-2.49,-2.82,-2.44,-2.83,-2.83,-2.82
160.03,-0.37,2.49,-0.37,2.49,-2.49,-2.84,-2.45,-2.86,-2.85,-2.86
161.63,-0.39,2.50,-0.40,2.49,-2.48,-2.86,-2.46,-2.88,-2.88,-2.89
163.24,-0.42,2.50,-0.43,2.49,-2.48,-2.89,-2.47,-2.90,-2.91,-2.92
164.88,-0.48,2.46,-0.47,2.48,-2.47,-2.91,-2.49,-2.95,-2.94,-2.94
166.53,-0.51,2.46,-0.51,2.46,-2.46,-2.93,-2.50,-2.97,-2.97,-2.97
168.19,-0.55,2.46,-0.56,2.44,-2.45,-2.95,-2.52,-3.00,-3.01,-3.01
169.87,-0.60,2.42,-0.60,2.43,-2.43,-2.97,-2.54,-3.04,-3.03,-3.03
171.57,-0.64,2.41,-0.64,2.42,-2.42,-3.00,-2.56,-3.06,-3.06,-3.06
173.29,-0.67,2.41,-0.68,2.40,-2.41,-3.02,-2.58,-3.08,-3.09,-3.08
175.02,-0.71,2.39,-0.71,2.40,-2.40,-3.04,-2.61,-3.11,-3.11,-3.10
176.77,-0.74,2.39,-0.74,2.39,-2.39,-3.06,-2.64,-3.13,-3.13,-3.14
178.54,-0.77,2.39,-0.77,2.39,-2.38,-3.08,-2.67,-3.15,-3.15,-3.16
180.32,-0.79,2.38,-0.80,2.38,-2.37,-3.10,-2.70,-3.16,-3.16,-3.18
182.13,-0.82,2.36,-0.82,2.36,-2.36,-3.11,-2.73,-3.18,-3.19,-3.18
183.95,-0.85,2.35,-0.85,2.35,-2.36,-3.13,-2.77,-3.21,-3.21,-3.21
185.79,-0.87,2.35,-0.87,2.35,-2.36,-3.15,-2.81,-3.23,-3.23,-3.22
187.65,-0.88,2.35,-0.88,2.35,-2.36,-3.17,-2.84,-3.25,-3.24,-3.23
189.52,-0.88,2.36,-0.88,2.36,-2.37,-3.18,-2.89,-3.25,-3.25,-3.25
191.42,-0.87,2.39,-0.88,2.38,-2.38,-3.20,-2.93,-3.25,-3.26,-3.26
193.33,-0.87,2.40,-0.87,2.40,-2.39,-3.21,-2.97,-3.27,-3.26,-3.27
195.27,-0.86,2.42,-0.86,2.42,-2.41,-3.23,-3.02,-3.27,-3.27,-3.28
197.22,-0.86,2.43,-0.87,2.43,-2.42,-3.24,-3.07,-3.28,-3.29,-3.29
199.19,-0.87,2.45,-0.87,2.44,-2.44,-3.25,-3.12,-3.31,-3.31,-3.33
201.18,-0.88,2.44,-0.88,2.45,-2.45,-3.27,-3.17,-3.33,-3.33,-3.33
203.19,-0.88,2.45,-0.88,2.46,-2.47,-3.28,-3.22,-3.35,-3.35,-3.34
205.23,-0.87,2.48,-0.88,2.47,-2.49,-3.29,-3.27,-3.36,-3.36,-3.36
207.28,-0.86,2.49,-0.86,2.50,-2.51,-3.30,-3.32,-3.37,-3.37,-3.36
209.35,-0.85,2.52,-0.85,2.53,-2.54,-3.31,-3.37,-3.39,-3.38,-3.38
211.44,-0.82,2.57,-0.82,2.56,-2.57,-3.32,-3.42,-3.39,-3.39,-3.40
213.56,-0.79,2.60,-0.79,2.60,-2.60,-3.32,-3.47,-3.39,-3.39,-3.39
215.69,-0.75,2.64,-0.76,2.64,-2.63,-3.33,-3.52,-3.38,-3.39,-3.39
217.85,-0.72,2.68,-0.73,2.68,-2.67,-3.34,-3.57,-3.39,-3.40,-3.40
220.03,-0.71,2.71,-0.71,2.71,-2.70,-3.34,-3.61,-3.42,-3.41,-3.42
222.23,-0.68,2.74,-0.68,2.74,-2.74,-3.35,-3.66,-3.42,-3.42,-3.43
224.45,-0.65,2.76,-0.65,2.77,-2.78,-3.35,-3.70,-3.43,-3.43,-3.41
226.70,-0.61,2.81,-0.61,2.81,-2.82,-3.35,-3.73,-3.43,-3.43,-3.42
228.96,-0.56,2.87,-0.57,2.85,-2.86,-3.35,-3.77,-3.42,-3.43,-3.43
231.25,-0.53,2.89,-0.53,2.90,-2.90,-3.35,-3.80,-3.43,-3.43,-3.43
233.57,-0.49,2.94,-0.49,2.95,-2.94,-3.35,-3.83,-3.43,-3.43,-3.43
235.90,-0.44,3.00,-0.45,2.99,-2.98,-3.35,-3.85,-3.42,-3.43,-3.44
238.26,-0.42,3.03,-0.42,3.03,-3.02,-3.35,-3.87,-3.44,-3.44,-3.45
240.64,-0.39,3.06,-0.39,3.06,-3.05,-3.35,-3.88,-3.45,-3.45,-3.45
243.05,-0.37,3.08,-0.37,3.08,-3.09,-3.34,-3.89,-3.46,-3.46,-3.46
245.48,-0.35,3.10,-0.35,3.11,-3.11,-3.34,-3.89,-3.47,-3.46,-3.45
247.93,-0.31,3.14,-0.32,3.14,-3.14,-3.33,-3.88,-3.45,-3.46,-3.46
250.41,-0.29,3.17,-0.29,3.16,-3.16,-3.33,-3.87,-3.45,-3.45,-3.46
252.92,-0.26,3.18,-0.27,3.18,-3.18,-3.32,-3.85,-3.44,-3.45,-3.45
255.45,-0.24,3.19,-0.24,3.20,-3.20,-3.31,-3.83,-3.44,-3.44,-3.43
258.00,-0.21,3.21,-0.21,3.22,-3.22,-3.30,-3.80,-3.43,-3.43,-3.43
260.58,-0.17,3.25,-0.18,3.24,-3.24,-3.29,-3.77,-3.41,-3.41,-3.42
263.19,-0.14,3.25,-0.14,3.26,-3.25,-3.28,-3.73,-3.39,-3.39,-3.39
265.82,-0.11,3.28,-0.12,3.27,-3.27,-3.27,-3.68,-3.38,-3.38,-3.39
268.48,-0.09,3.28,-0.09,3.28,-3.28,-3.26,-3.63,-3.37,-3.37,-3.37
271.16,-0.07,3.28,-0.07,3.29,-3.30,-3.24,-3.58,-3.37,-3.36,-3.36
273.87,-0.03,3.31,-0.04,3.30,-3.31,-3.23,-3.52,-3.35,-3.35,-3.34
276.61,-0.00,3.32,-0.00,3.33,-3.33,-3.22,-3.46,-3.33,-3.33,-3.32
279.38,0.03,3.34,0.03,3.34,-3.35,-3.20,-3.39,-3.32,-3.32,-3.32
282.17,0.06,3.37,0.06,3.36,-3.36,-3.18,-3.32,-3.30,-3.30,-3.31
284.99,0.08,3.36,0.09,3.38,-3.37,-3.17,-3.25,-3.29,-3.29,-3.28
287.84,0.12,3.39,0.11,3.39,-3.38,-3.15,-3.17,-3.26,-3.27,-3.28
290.72,0.13,3.39,0.13,3.38,-3.38,-3.13,-3.10,-3.25,-3.25,-3.26
293.63,0.14,3.38,0.14,3.38,-3.37,-3.11,-3.02,-3.23,-3.23,-3.24
296.57,0.14,3.35,0.13,3.36,-3.35,-3.10,-2.94,-3.22,-3.22,-3.21
299.53,0.13,3.33,0.13,3.33,-3.33,-3.08,-2.86,-3.21,-3.20,-3.21
302.53,0.12,3.31,0.12,3.30,-3.31,-3.06,-2.77,-3.19,-3.19,-3.19
305.55,0.12,3.27,0.12,3.28,-3.28,-3.04,-2.69,-3.16,-3.16,-3.15
308.61,0.12,3.25,0.12,3.25,-3.25,-3.01,-2.61,-3.13,-3.13,-3.13
311.69,0.12,3.22,0.12,3.22,-3.22,-2.99,-2.53,-3.10,-3.10,-3.11
314.81,0.12,3.19,0.12,3.19,-3.20,-2.97,-2.44,-3.08,-3.08,-3.07
317.96,0.12,3.17,0.12,3.17,-3.17,-2.95,-2.36,-3.05,-3.05,-3.05
321.14,0.12,3.14,0.12,3.14,-3.15,-2.93,-2.28,-3.03,-3.03,-3.02
324.35,0.12,3.12,0.12,3.12,-3.13,-2.91,-2.20,-3.01,-3.01,-3.00
327.59,0.13,3.10,0.12,3.10,-3.11,-2.88,-2.12,-2.98,-2.98,-2.98
330.87,0.13,3.08,0.13,3.08,-3.08,-2.86,-2.04,-2.96,-2.95,-2.95
334.18,0.14,3.07,0.14,3.06,-3.06,-2.84,-1.96,-2.92,-2.92,-2.93
337.52,0.14,3.04,0.13,3.03,-3.03,-2.81,-1.88,-2.89,-2.89,-2.90
340.90,0.13,3.00,0.13,3.00,-2.99,-2.79,-1.80,-2.87,-2.87,-2.87
344.30,0.11,2.95,0.11,2.96,-2.96,-2.76,-1.73,-2.85,-2.84,-2.85
347.75,0.10,2.92,0.09,2.91,-2.91,-2.74,-1.65,-2.81,-2.82,-2.83
351.23,0.07,2.87,0.07,2.87,-2.86,-2.71,-1.58,-2.80,-2.80,-2.80
354.74,0.04,2.81,0.04,2.81,-2.81,-2.69,-1.51,-2.78,-2.77,-2.77
358.28,0.01,2.76,0.01,2.75,-2.76,-2.66,-1.43,-2.75,-2.75,-2.75
361.87,-0.02,2.70,-0.02,2.70,-2.71,-2.63,-1.36,-2.73,-2.73,-2.72
365.49,-0.05,2.65,-0.05,2.65,-2.66,-2.60,-1.29,-2.71,-2.71,-2.70
369.14,-0.08,2.60,-0.08,2.60,-2.60,-2.57,-1.23,-2.69,-2.68,-2.68
372.83,-0.10,2.56,-0.11,2.56,-2.55,-2.54,-1.16,-2.65,-2.66,-2.67
376.56,-0.14,2.50,-0.14,2.51,-2.50,-2.51,-1.09,-2.65,-2.64,-2.65
380.33,-0.16,2.46,-0.17,2.46,-2.46,-2.48,-1.03,-2.62,-2.63,-2.62
384.13,-0.20,2.41,-0.20,2.41,-2.42,-2.44,-0.97,-2.62,-2.62,-2.61
387.97,-0.23,2.37,-0.23,2.37,-2.38,-2.40,-0.90,-2.61,-2.61,-2.60
391.85,-0.26,2.33,-0.26,2.33,-2.34,-2.37,-0.84,-2.60,-2.60,-2.59
395.77,-0.28,2.29,-0.28,2.29,-2.30,-2.32,-0.78,-2.58,-2.58,-2.57
399.73,-0.30,2.26,-0.30,2.27,-2.26,-2.28,-0.73,-2.56,-2.56,-2.56
403.72,-0.31,2.24,-0.32,2.23,-2.22,-2.23,-0.67,-2.53,-2.54,-2.55
407.76,-0.35,2.19,-0.35,2.19,-2.18,-2.18,-0.61,-2.53,-2.53,-2.54
411.84,-0.39,2.13,-0.39,2.14,-2.14,-2.13,-0.56,-2.53,-2.53,-2.53
415.96,-0.43,2.09,-0.44,2.09,-2.09,-2.08,-0.51,-2.53,-2.53,-2.53
420.12,-0.48,2.04,-0.48,2.04,-2.05,-2.02,-0.46,-2.53,-2.53,-2.53
424.32,-0.53,2.00,-0.53,2.00,-2.00,-1.96,-0.41,-2.53,-2.53,-2.53
428.56,-0.58,1.95,-0.59,1.94,-1.95,-1.90,-0.36,-2.53,-2.53,-2.53
