frequency,raw,error,smoothed,error_smoothed,equalization,parametric_eq,fixed_band_eq,equalized_raw,equalized_smoothed,target
20.00,-0.50,-1.10,-0.50,-1.10,1.10,0.62,-0.79,0.60,0.60,0.60
20.20,-0.37,-1.03,-0.37,-1.03,1.03,0.57,-0.82,0.66,0.66,0.66
20.40,-0.24,-0.95,-0.24,-0.95,0.95,0.52,-0.84,0.71,0.71,0.71
20.61,-0.11,-0.88,-0.11,-0.88,0.88,0.47,-0.86,0.77,0.77,0.77
20.81,0.02,-0.80,0.02,-0.80,0.80,0.42,-0.89,0.82,0.82,0.82
21.02,0.15,-0.73,0.15,-0.73,0.73,0.37,-0.91,0.88,0.88,0.88
21.23,0.28,-0.65,0.28,-0.65,0.65,0.31,-0.94,0.93,0.93,0.93
21.44,0.41,-0.57,0.41,-0.57,0.57,0.26,-0.97,0.98,0.98,0.98
21.66,0.54,-0.49,0.54,-0.49,0.49,0.21,-0.99,1.03,1.03,1.03
21.87,0.67,-0.41,0.67,-0.41,0.41,0.16,-1.02,1.08,1.08,1.08
22.09,0.80,-0.33,0.80,-0.33,0.33,0.10,-1.05,1.13,1.13,1.13
22.31,0.93,-0.25,0.93,-0.25,0.24,0.05,-1.08,1.18,1.18,1.18
22.54,1.06,-0.16,1.06,-0.16,0.16,-0.01,-1.11,1.22,1.22,1.22
22.76,1.19,-0.08,1.19,-0.08,0.08,-0.06,-1.14,1.27,1.27,1.27
22.99,1.32,0.01,1.32,0.01,-0.01,-0.12,-1.18,1.31,1.31,1.31
23.22,1.45,0.09,1.45,0.09,-0.09,-0.18,-1.21,1.36,1.36,1.36
23.45,1.58,0.18,1.58,0.18,-0.18,-0.23,-1.24,1.40,1.40,1.40
23.69,1.71,0.26,1.71,0.26,-0.26,-0.29,-1.28,1.45,1.45,1.45
23.92,1.84,0.35,1.84,0.35,-0.34,-0.35,-1.31,1.50,1.49,1.49
24.16,1.96,0.42,1.96,0.43,-0.43,-0.41,-1.35,1.53,1.53,1.54
24.40,2.09,0.51,2.09,0.51,-0.51,-0.47,-1.38,1.58,1.58,1.58
24.65,2.21,0.59,2.21,0.59,-0.60,-0.52,-1.42,1.61,1.62,1.62
24.89,2.34,0.68,2.34,0.68,-0.68,-0.58,-1.46,1.66,1.66,1.66
25.14,2.46,0.76,2.46,0.76,-0.76,-0.64,-1.50,1.70,1.70,1.70
25.39,2.59,0.85,2.59,0.85,-0.85,-0.70,-1.53,1.74,1.74,1.74
25.65,2.71,0.93,2.71,0.93,-0.93,-0.77,-1.57,1.78,1.78,1.78
25.91,2.83,1.01,2.83,1.01,-1.01,-0.83,-1.61,1.81,1.82,1.82
26.16,2.96,1.10,2.95,1.10,-1.10,-0.89,-1.65,1.86,1.85,1.86
26.43,3.07,1.18,3.07,1.18,-1.18,-0.95,-1.69,1.89,1.89,1.89
26.69,3.19,1.26,3.19,1.26,-1.26,-1.01,-1.73,1.93,1.93,1.93
26.96,3.31,1.34,3.31,1.34,-1.35,-1.07,-1.77,1.96,1.96,1.97
27.23,3.43,1.43,3.43,1.43,-1.43,-1.14,-1.80,2.00,2.00,2.00
27.50,3.55,1.51,3.55,1.51,-1.51,-1.20,-1.84,2.04,2.04,2.04
27.77,3.66,1.58,3.66,1.59,-1.59,-1.26,-1.88,2.08,2.08,2.08
28.05,3.78,1.67,3.78,1.67,-1.66,-1.33,-1.92,2.12,2.11,2.11
28.33,3.89,1.74,3.89,1.74,-1.74,-1.39,-1.95,2.15,2.15,2.15
28.62,4.00,1.81,4.00,1.81,-1.82,-1.46,-1.99,2.18,2.18,2.19
28.90,4.11,1.88,4.11,1.88,-1.89,-1.52,-2.02,2.22,2.22,2.23
29.19,4.22,1.96,4.22,1.96,-1.96,-1.58,-2.05,2.26,2.26,2.26
29.48,4.33,2.03,4.33,2.03,-2.02,-1.65,-2.08,2.31,2.30,2.30
29.78,4.43,2.09,4.43,2.09,-2.09,-1.71,-2.11,2.34,2.34,2.34
30.08,4.53,2.16,4.53,2.15,-2.15,-1.78,-2.14,2.37,2.37,2.37
30.38,4.62,2.21,4.62,2.21,-2.21,-1.84,-2.16,2.40,2.41,2.41
30.68,4.71,2.27,4.71,2.27,-2.27,-1.91,-2.19,2.44,2.44,2.44
30.99,4.81,2.33,4.80,2.33,-2.33,-1.97,-2.21,2.48,2.48,2.48
31.30,4.89,2.38,4.89,2.38,-2.38,-2.04,-2.23,2.51,2.51,2.51
31.61,4.98,2.44,4.98,2.44,-2.44,-2.10,-2.25,2.54,2.54,2.54
31.93,5.06,2.49,5.06,2.49,-2.49,-2.17,-2.27,2.57,2.57,2.57
32.24,5.14,2.54,5.14,2.54,-2.55,-2.23,-2.28,2.59,2.60,2.60
32.57,5.23,2.60,5.23,2.60,-2.60,-2.29,-2.29,2.62,2.62,2.63
32.89,5.31,2.65,5.31,2.66,-2.66,-2.36,-2.31,2.65,2.65,2.66
33.22,5.40,2.72,5.40,2.71,-2.72,-2.42,-2.32,2.68,2.68,2.68
33.55,5.48,2.77,5.48,2.77,-2.77,-2.49,-2.33,2.71,2.71,2.71
33.89,5.56,2.83,5.56,2.83,-2.83,-2.55,-2.34,2.73,2.73,2.73
34.23,5.64,2.89,5.64,2.88,-2.88,-2.61,-2.35,2.76,2.76,2.75
34.57,5.71,2.93,5.71,2.93,-2.93,-2.67,-2.35,2.78,2.78,2.78
34.92,5.78,2.98,5.78,2.98,-2.98,-2.73,-2.36,2.79,2.79,2.80
35.27,5.85,3.03,5.85,3.03,-3.03,-2.80,-2.37,2.81,2.81,2.82
35.62,5.92,3.08,5.92,3.08,-3.08,-2.86,-2.37,2.84,2.84,2.84
35.97,5.99,3.13,5.99,3.13,-3.13,-2.92,-2.38,2.86,2.86,2.86
36.33,6.05,3.18,6.05,3.18,-3.18,-2.98,-2.38,2.87,2.87,2.87
36.70,6.11,3.22,6.11,3.22,-3.22,-3.03,-2.39,2.89,2.89,2.89
37.06,6.17,3.26,6.17,3.26,-3.26,-3.09,-2.40,2.91,2.91,2.91
37.43,6.23,3.31,6.23,3.30,-3.31,-3.15,-2.41,2.92,2.92,2.92
37.81,6.28,3.34,6.28,3.34,-3.35,-3.20,-2.41,2.93,2.93,2.94
38.19,6.33,3.38,6.33,3.38,-3.38,-3.26,-2.42,2.94,2.95,2.95
38.57,6.38,3.42,6.38,3.42,-3.42,-3.31,-2.44,2.96,2.96,2.96
38.95,6.43,3.46,6.43,3.46,-3.46,-3.36,-2.45,2.97,2.97,2.97
39.34,6.47,3.49,6.47,3.49,-3.49,-3.42,-2.46,2.98,2.98,2.98
39.74,6.51,3.52,6.51,3.53,-3.53,-3.47,-2.48,2.98,2.99,2.99
40.14,6.55,3.56,6.55,3.56,-3.56,-3.51,-2.49,2.99,2.99,2.99
40.54,6.59,3.59,6.59,3.59,-3.59,-3.56,-2.51,3.00,3.00,3.00
40.94,6.62,3.61,6.62,3.61,-3.61,-3.61,-2.53,3.01,3.01,3.01
41.35,6.65,3.64,6.65,3.64,-3.64,-3.65,-2.55,3.01,3.01,3.01
41.76,6.68,3.66,6.68,3.66,-3.66,-3.70,-2.58,3.02,3.02,3.02
42.18,6.71,3.69,6.70,3.68,-3.68,-3.74,-2.60,3.03,3.02,3.02
42.60,6.72,3.69,6.72,3.70,-3.70,-3.78,-2.63,3.02,3.02,3.03
43.03,6.74,3.71,6.74,3.71,-3.71,-3.81,-2.66,3.03,3.03,3.03
43.46,6.76,3.72,6.76,3.72,-3.72,-3.85,-2.70,3.04,3.04,3.04
43.90,6.78,3.74,6.77,3.73,-3.73,-3.88,-2.73,3.05,3.05,3.04
44.33,6.78,3.73,6.78,3.74,-3.73,-3.92,-2.77,3.05,3.05,3.05
44.78,6.79,3.74,6.79,3.74,-3.74,-3.95,-2.81,3.05,3.05,3.05
45.23,6.79,3.73,6.79,3.73,-3.74,-3.98,-2.85,3.05,3.05,3.06
45.68,6.79,3.73,6.79,3.73,-3.74,-4.00,-2.89,3.05,3.06,3.06
46.13,6.79,3.73,6.79,3.73,-3.73,-4.03,-2.94,3.06,3.06,3.06
46.60,6.80,3.73,6.80,3.73,-3.73,-4.05,-2.98,3.07,3.07,3.07
47.06,6.80,3.73,6.80,3.73,-3.73,-4.07,-3.03,3.07,3.07,3.07
47.53,6.79,3.72,6.79,3.72,-3.72,-4.09,-3.08,3.07,3.07,3.07
48.01,6.79,3.71,6.79,3.72,-3.72,-4.10,-3.14,3.07,3.07,3.08
48.49,6.79,3.71,6.79,3.71,-3.71,-4.12,-3.19,3.08,3.08,3.08
48.97,6.79,3.71,6.79,3.71,-3.70,-4.13,-3.25,3.09,3.09,3.08
49.46,6.79,3.70,6.79,3.70,-3.69,-4.14,-3.31,3.10,3.09,3.09
49.96,6.78,3.69,6.78,3.69,-3.68,-4.14,-3.36,3.09,3.09,3.09
50.46,6.77,3.67,6.77,3.67,-3.68,-4.15,-3.42,3.09,3.09,3.10
50.96,6.76,3.66,6.76,3.66,-3.67,-4.15,-3.48,3.09,3.10,3.10
51.47,6.76,3.65,6.76,3.65,-3.66,-4.15,-3.55,3.10,3.10,3.11
51.99,6.76,3.65,6.76,3.65,-3.65,-4.15,-3.61,3.11,3.11,3.11
52.51,6.76,3.65,6.76,3.65,-3.65,-4.14,-3.67,3.11,3.11,3.11
53.03,6.76,3.64,6.76,3.64,-3.64,-4.14,-3.73,3.12,3.12,3.12
53.56,6.76,3.64,6.76,3.64,-3.64,-4.13,-3.79,3.12,3.12,3.12
54.10,6.76,3.64,6.76,3.64,-3.64,-4.12,-3.85,3.12,3.12,3.12
54.64,6.76,3.64,6.76,3.64,-3.64,-4.11,-3.90,3.12,3.12,3.12
55.18,6.76,3.64,6.76,3.64,-3.64,-4.09,-3.96,3.12,3.12,3.12
55.74,6.76,3.64,6.76,3.64,-3.64,-4.07,-4.01,3.12,3.12,3.12
56.29,6.76,3.65,6.76,3.65,-3.65,-4.05,-4.06,3.11,3.11,3.11
56.86,6.76,3.65,6.76,3.65,-3.65,-4.03,-4.10,3.11,3.11,3.11
57.42,6.76,3.66,6.76,3.66,-3.66,-4.01,-4.14,3.10,3.10,3.10
58.00,6.76,3.67,6.76,3.67,-3.67,-3.99,-4.18,3.09,3.09,3.09
58.58,6.76,3.68,6.76,3.68,-3.68,-3.96,-4.21,3.08,3.08,3.08
59.16,6.76,3.69,6.76,3.69,-3.69,-3.93,-4.24,3.07,3.07,3.07
59.76,6.76,3.70,6.76,3.70,-3.71,-3.90,-4.26,3.05,3.05,3.06
60.35,6.76,3.72,6.76,3.72,-3.73,-3.87,-4.27,3.03,3.04,3.04
60.96,6.77,3.74,6.77,3.74,-3.74,-3.84,-4.28,3.03,3.02,3.03
61.57,6.78,3.76,6.78,3.76,-3.76,-3.80,-4.29,3.02,3.01,3.02
62.18,6.78,3.78,6.78,3.78,-3.78,-3.76,-4.28,3.00,3.00,3.00
62.80,6.79,3.80,6.79,3.80,-3.80,-3.73,-4.27,2.99,2.99,2.99
63.43,6.79,3.81,6.79,3.81,-3.81,-3.69,-4.25,2.98,2.98,2.98
64.07,6.79,3.82,6.79,3.82,-3.82,-3.65,-4.23,2.97,2.97,2.97
64.71,6.78,3.82,6.78,3.82,-3.82,-3.61,-4.20,2.96,2.96,2.96
65.35,6.78,3.82,6.78,3.82,-3.82,-3.57,-4.16,2.96,2.96,2.96
66.01,6.77,3.81,6.77,3.81,-3.81,-3.52,-4.12,2.96,2.96,2.96
66.67,6.76,3.80,6.76,3.80,-3.79,-3.48,-4.07,2.97,2.96,2.96
67.33,6.74,3.78,6.74,3.78,-3.78,-3.43,-4.02,2.96,2.96,2.96
68.01,6.72,3.75,6.72,3.75,-3.75,-3.39,-3.96,2.97,2.97,2.97
68.69,6.70,3.72,6.70,3.72,-3.73,-3.34,-3.89,2.97,2.97,2.98
69.37,6.68,3.69,6.68,3.69,-3.70,-3.30,-3.83,2.98,2.98,2.99
70.07,6.67,3.67,6.67,3.67,-3.67,-3.25,-3.75,3.00,3.00,3.00
70.77,6.65,3.64,6.65,3.64,-3.64,-3.20,-3.68,3.01,3.01,3.01
71.48,6.63,3.60,6.63,3.61,-3.60,-3.15,-3.60,3.03,3.03,3.03
72.19,6.61,3.57,6.61,3.57,-3.57,-3.10,-3.52,3.04,3.04,3.04
72.91,6.58,3.53,6.58,3.53,-3.53,-3.05,-3.44,3.05,3.05,3.05
73.64,6.55,3.49,6.55,3.49,-3.49,-3.00,-3.35,3.06,3.06,3.06
74.38,6.52,3.45,6.52,3.45,-3.45,-2.95,-3.27,3.07,3.07,3.07
75.12,6.49,3.41,6.49,3.41,-3.41,-2.91,-3.18,3.08,3.08,3.08
75.87,6.46,3.37,6.46,3.37,-3.37,-2.86,-3.10,3.09,3.09,3.09
76.63,6.42,3.32,6.42,3.33,-3.33,-2.81,-3.01,3.09,3.09,3.10
77.40,6.39,3.29,6.39,3.29,-3.29,-2.75,-2.92,3.10,3.10,3.10
78.17,6.36,3.25,6.36,3.25,-3.25,-2.70,-2.84,3.11,3.11,3.11
78.95,6.33,3.21,6.33,3.21,-3.22,-2.65,-2.75,3.11,3.11,3.12
79.74,6.30,3.17,6.30,3.17,-3.18,-2.60,-2.66,3.12,3.12,3.13
80.54,6.27,3.13,6.27,3.13,-3.14,-2.55,-2.58,3.13,3.13,3.14
81.35,6.25,3.10,6.25,3.10,-3.10,-2.51,-2.49,3.15,3.15,3.15
82.16,6.22,3.06,6.22,3.06,-3.05,-2.46,-2.41,3.17,3.17,3.16
82.98,6.19,3.02,6.18,3.01,-3.00,-2.41,-2.33,3.19,3.18,3.17
83.81,6.14,2.95,6.14,2.95,-2.94,-2.36,-2.25,3.20,3.20,3.19
84.65,6.09,2.88,6.09,2.88,-2.88,-2.31,-2.17,3.21,3.21,3.21
85.50,6.04,2.81,6.04,2.81,-2.81,-2.26,-2.09,3.23,3.23,3.23
86.35,5.99,2.74,5.99,2.74,-2.74,-2.21,-2.02,3.25,3.25,3.25
87.22,5.93,2.66,5.93,2.66,-2.66,-2.16,-1.94,3.27,3.27,3.27
88.09,5.87,2.58,5.87,2.58,-2.58,-2.12,-1.87,3.28,3.29,3.29
88.97,5.81,2.50,5.81,2.50,-2.50,-2.07,-1.80,3.31,3.31,3.31
89.86,5.75,2.42,5.75,2.42,-2.42,-2.02,-1.72,3.33,3.33,3.33
90.76,5.69,2.34,5.69,2.34,-2.34,-1.97,-1.66,3.35,3.35,3.35
91.66,5.63,2.26,5.63,2.26,-2.25,-1.93,-1.59,3.38,3.37,3.37
92.58,5.56,2.17,5.56,2.17,-2.17,-1.88,-1.52,3.39,3.39,3.39
93.51,5.49,2.09,5.49,2.08,-2.09,-1.84,-1.46,3.40,3.40,3.40
94.44,5.41,1.99,5.41,2.00,-2.00,-1.79,-1.39,3.41,3.41,3.42
95.39,5.34,1.91,5.34,1.92,-1.92,-1.74,-1.33,3.42,3.42,3.43
96.34,5.28,1.84,5.28,1.84,-1.83,-1.70,-1.27,3.44,3.44,3.44
97.30,5.21,1.77,5.21,1.77,-1.75,-1.66,-1.21,3.46,3.46,3.44
98.28,5.14,1.69,5.13,1.69,-1.68,-1.61,-1.15,3.46,3.46,3.45
99.26,5.05,1.60,5.05,1.60,-1.61,-1.57,-1.09,3.44,3.45,3.45
100.25,4.97,1.52,4.97,1.52,-1.54,-1.52,-1.04,3.43,3.43,3.45
101.25,4.90,1.45,4.90,1.45,-1.48,-1.48,-0.98,3.42,3.42,3.45
102.27,4.85,1.40,4.86,1.41,-1.42,-1.44,-0.93,3.43,3.44,3.45
103.29,4.82,1.37,4.82,1.37,-1.36,-1.39,-0.88,3.45,3.45,3.45
104.32,4.78,1.34,4.77,1.33,-1.31,-1.35,-0.83,3.47,3.46,3.44
105.37,4.72,1.28,4.72,1.28,-1.26,-1.31,-0.78,3.46,3.46,3.44
106.42,4.65,1.22,4.65,1.22,-1.21,-1.27,-0.73,3.43,3.44,3.43
107.48,4.59,1.16,4.59,1.16,-1.17,-1.22,-0.68,3.42,3.42,3.43
108.56,4.53,1.11,4.53,1.11,-1.12,-1.18,-0.63,3.41,3.41,3.42
109.64,4.47,1.05,4.47,1.06,-1.06,-1.14,-0.59,3.41,3.41,3.42
110.74,4.42,1.01,4.42,1.01,-1.01,-1.10,-0.54,3.41,3.41,3.41
111.85,4.38,0.97,4.37,0.96,-0.96,-1.06,-0.50,3.42,3.41,3.41
112.97,4.32,0.91,4.32,0.91,-0.92,-1.01,-0.45,3.40,3.40,3.41
114.10,4.27,0.86,4.27,0.86,-0.87,-0.97,-0.41,3.40,3.40,3.41
115.24,4.22,0.81,4.23,0.82,-0.82,-0.93,-0.37,3.40,3.40,3.41
116.39,4.19,0.78,4.19,0.78,-0.77,-0.89,-0.33,3.42,3.42,3.41
117.55,4.16,0.74,4.15,0.73,-0.72,-0.85,-0.29,3.44,3.43,3.42
118.73,4.10,0.68,4.09,0.67,-0.66,-0.81,-0.25,3.44,3.43,3.42
119.92,4.03,0.60,4.03,0.60,-0.60,-0.76,-0.21,3.43,3.43,3.43
121.12,3.96,0.52,3.97,0.53,-0.54,-0.72,-0.17,3.42,3.43,3.44
122.33,3.92,0.46,3.92,0.47,-0.48,-0.68,-0.14,3.44,3.44,3.46
123.55,3.88,0.41,3.88,0.41,-0.41,-0.64,-0.10,3.47,3.46,3.47
124.79,3.84,0.36,3.83,0.35,-0.35,-0.60,-0.07,3.49,3.49,3.48
126.03,3.78,0.28,3.78,0.29,-0.28,-0.55,-0.03,3.50,3.51,3.50
127.29,3.73,0.22,3.73,0.22,-0.21,-0.51,0.00,3.52,3.52,3.51
128.57,3.68,0.15,3.67,0.14,-0.14,-0.47,0.03,3.53,3.53,3.53
129.85,3.61,0.07,3.61,0.07,-0.08,-0.42,0.07,3.53,3.54,3.54
131.15,3.55,-0.01,3.56,0.00,-0.01,-0.38,0.10,3.54,3.55,3.56
132.46,3.51,-0.06,3.50,-0.07,0.06,-0.34,0.13,3.57,3.56,3.57
133.79,3.46,-0.12,3.45,-0.13,0.13,-0.29,0.16,3.59,3.58,3.58
135.12,3.39,-0.20,3.40,-0.19,0.19,-0.25,0.19,3.58,3.59,3.59
136.48,3.35,-0.25,3.34,-0.26,0.26,-0.21,0.22,3.61,3.60,3.60
137.84,3.28,-0.33,3.29,-0.32,0.32,-0.16,0.25,3.60,3.61,3.61
139.22,3.23,-0.38,3.23,-0.38,0.39,-0.12,0.28,3.62,3.62,3.61
140.61,3.18,-0.44,3.17,-0.45,0.45,-0.07,0.31,3.63,3.62,3.62
142.02,3.10,-0.52,3.11,-0.52,0.52,-0.03,0.34,3.62,3.63,3.62
143.44,3.05,-0.58,3.04,-0.59,0.58,0.02,0.37,3.63,3.62,3.63
144.87,2.96,-0.67,2.97,-0.66,0.65,0.06,0.40,3.61,3.62,3.63
146.32,2.92,-0.71,2.91,-0.72,0.71,0.11,0.43,3.63,3.62,3.63
147.78,2.85,-0.79,2.85,-0.78,0.77,0.15,0.46,3.62,3.63,3.64
149.26,2.81,-0.83,2.81,-0.83,0.83,0.20,0.49,3.64,3.64,3.64
150.75,2.76,-0.88,2.76,-0.88,0.89,0.25,0.52,3.65,3.65,3.64
152.26,2.71,-0.93,2.70,-0.94,0.95,0.29,0.55,3.66,3.65,3.64
153.78,2.63,-1.01,2.64,-1.01,1.00,0.34,0.58,3.63,3.64,3.64
155.32,2.58,-1.07,2.58,-1.07,1.06,0.39,0.61,3.64,3.64,3.65
156.88,2.52,-1.13,2.53,-1.12,1.11,0.44,0.64,3.63,3.64,3.65
158.44,2.49,-1.16,2.48,-1.17,1.17,0.48,0.68,3.66,3.65,3.65
160.03,2.43,-1.22,2.43,-1.22,1.22,0.53,0.71,3.65,3.66,3.65
161.63,2.38,-1.28,2.38,-1.27,1.28,0.58,0.74,3.66,3.66,3.66
163.24,2.34,-1.32,2.33,-1.33,1.33,0.63,0.78,3.67,3.66,3.66
164.88,2.27,-1.39,2.28,-1.39,1.39,0.68,0.81,3.66,3.66,3.66
166.53,2.22,-1.45,2.22,-1.44,1.44,0.73,0.85,3.66,3.67,3.67
168.19,2.18,-1.49,2.17,-1.50,1.51,0.78,0.88,3.68,3.67,3.67
169.87,2.12,-1.55,2.12,-1.55,1.56,0.83,0.92,3.68,3.69,3.67
171.57,2.06,-1.62,2.06,-1.62,1.62,0.88,0.96,3.68,3.69,3.68
173.29,2.02,-1.67,2.01,-1.68,1.67,0.93,0.99,3.69,3.68,3.69
175.02,1.95,-1.75,1.96,-1.73,1.72,0.98,1.03,3.67,3.68,3.70
176.77,1.93,-1.77,1.93,-1.77,1.76,1.03,1.07,3.69,3.69,3.70
178.54,1.92,-1.80,1.92,-1.80,1.79,1.08,1.11,3.71,3.71,3.72
180.32,1.92,-1.81,1.92,-1.81,1.81,1.13,1.15,3.73,3.73,3.73
182.13,1.92,-1.82,1.92,-1.82,1.82,1.18,1.20,3.74,3.74,3.74
183.95,1.93,-1.82,1.93,-1.82,1.82,1.23,1.24,3.74,3.75,3.75
185.79,1.96,-1.81,1.95,-1.81,1.80,1.28,1.28,3.76,3.76,3.77
187.65,1.98,-1.80,1.99,-1.79,1.78,1.33,1.33,3.76,3.77,3.78
189.52,2.03,-1.76,2.03,-1.76,1.76,1.38,1.37,3.79,3.79,3.79
191.42,2.07,-1.73,2.07,-1.73,1.74,1.43,1.42,3.81,3.81,3.80
193.33,2.11,-1.70,2.11,-1.70,1.71,1.49,1.47,3.82,3.82,3.81
195.27,2.14,-1.68,2.14,-1.68,1.69,1.54,1.51,3.83,3.83,3.82
197.22,2.17,-1.66,2.17,-1.66,1.66,1.59,1.56,3.83,3.83,3.83
199.19,2.19,-1.65,2.19,-1.65,1.64,1.64,1.61,3.83,3.83,3.84
201.18,2.21,-1.63,2.21,-1.63,1.63,1.69,1.66,3.84,3.84,3.84
203.19,2.23,-1.62,2.23,-1.61,1.62,1.74,1.71,3.85,3.85,3.85
205.23,2.25,-1.60,2.24,-1.60,1.62,1.80,1.76,3.86,3.86,3.85
207.28,2.25,-1.60,2.25,-1.61,1.61,1.85,1.81,3.86,3.86,3.85
209.35,2.24,-1.62,2.24,-1.61,1.61,1.90,1.86,3.85,3.85,3.86
211.44,2.23,-1.63,2.24,-1.62,1.61,1.95,1.91,3.84,3.85,3.86
213.56,2.24,-1.62,2.24,-1.62,1.61,2.00,1.96,3.85,3.85,3.86
215.69,2.25,-1.62,2.24,-1.62,1.62,2.05,2.01,3.87,3.86,3.87
217.85,2.25,-1.62,2.25,-1.62,1.62,2.11,2.06,3.87,3.87,3.87
220.03,2.24,-1.63,2.24,-1.63,1.63,2.16,2.11,3.87,3.87,3.87
222.23,2.23,-1.64,2.23,-1.64,1.64,2.21,2.16,3.87,3.87,3.87
224.45,2.22,-1.65,2.21,-1.66,1.66,2.26,2.21,3.88,3.87,3.87
226.70,2.19,-1.68,2.19,-1.68,1.68,2.31,2.26,3.87,3.87,3.87
228.96,2.16,-1.71,2.16,-1.71,1.70,2.36,2.31,3.86,3.87,3.87
231.25,2.13,-1.74,2.13,-1.74,1.74,2.41,2.35,3.87,3.86,3.87
233.57,2.09,-1.77,2.09,-1.77,1.77,2.46,2.40,3.86,3.86,3.86
235.90,2.04,-1.82,2.04,-1.82,1.82,2.52,2.44,3.86,3.86,3.86
238.26,1.99,-1.86,1.98,-1.87,1.87,2.57,2.48,3.86,3.85,3.85
240.64,1.92,-1.93,1.93,-1.92,1.93,2.62,2.52,3.85,3.85,3.85
243.05,1.86,-1.98,1.86,-1.98,1.99,2.67,2.56,3.85,3.84,3.84
245.48,1.79,-2.04,1.78,-2.05,2.05,2.72,2.59,3.84,3.84,3.83
247.93,1.69,-2.14,1.70,-2.12,2.12,2.77,2.63,3.81,3.82,3.83
250.41,1.63,-2.19,1.62,-2.20,2.19,2.82,2.66,3.82,3.81,3.82
252.92,1.53,-2.29,1.54,-2.28,2.26,2.87,2.69,3.79,3.80,3.82
255.45,1.47,-2.34,1.47,-2.34,2.34,2.91,2.72,3.80,3.81,3.81
258.00,1.41,-2.40,1.41,-2.40,2.41,2.96,2.75,3.82,3.81,3.81
260.58,1.34,-2.46,1.34,-2.46,2.48,3.01,2.77,3.82,3.82,3.80
263.19,1.27,-2.53,1.26,-2.54,2.55,3.06,2.80,3.82,3.81,3.80
265.82,1.17,-2.63,1.18,-2.62,2.62,3.11,2.82,3.79,3.79,3.80
268.48,1.09,-2.70,1.10,-2.69,2.68,3.16,2.84,3.77,3.78,3.79
271.16,1.04,-2.75,1.03,-2.76,2.75,3.20,2.86,3.79,3.77,3.79
273.87,0.96,-2.82,0.97,-2.81,2.81,3.25,2.89,3.77,3.77,3.78
276.61,0.91,-2.86,0.90,-2.87,2.87,3.30,2.91,3.78,3.77,3.77
279.38,0.84,-2.93,0.85,-2.92,2.92,3.34,2.93,3.76,3.77,3.77
282.17,0.79,-2.97,0.79,-2.97,2.97,3.39,2.94,3.76,3.76,3.76
284.99,0.74,-3.01,0.73,-3.02,3.02,3.44,2.96,3.76,3.75,3.75
287.84,0.66,-3.08,0.67,-3.07,3.07,3.48,2.98,3.73,3.74,3.74
290.72,0.61,-3.12,0.61,-3.12,3.12,3.53,3.01,3.73,3.73,3.73
293.63,0.55,-3.17,0.55,-3.17,3.17,3.57,3.03,3.72,3.71,3.72
296.57,0.49,-3.22,0.49,-3.22,3.22,3.62,3.05,3.71,3.71,3.71
299.53,0.43,-3.27,0.43,-3.27,3.27,3.66,3.07,3.70,3.70,3.70
302.53,0.38,-3.31,0.37,-3.32,3.32,3.70,3.10,3.70,3.69,3.69
305.55,0.31,-3.37,0.31,-3.37,3.37,3.75,3.12,3.68,3.68,3.68
308.61,0.25,-3.42,0.25,-3.42,3.42,3.79,3.15,3.67,3.67,3.67
311.69,0.18,-3.48,0.19,-3.47,3.48,3.83,3.18,3.65,3.66,3.66
314.81,0.13,-3.52,0.12,-3.53,3.53,3.87,3.21,3.66,3.65,3.65
317.96,0.06,-3.58,0.06,-3.58,3.59,3.91,3.24,3.65,3.64,3.64
321.14,-0.01,-3.65,-0.01,-3.65,3.65,3.95,3.28,3.63,3.63,3.64
324.35,-0.08,-3.71,-0.08,-3.71,3.70,3.99,3.32,3.62,3.63,3.63
327.59,-0.14,-3.77,-0.14,-3.76,3.76,4.03,3.36,3.62,3.62,3.63
330.87,-0.19,-3.81,-0.19,-3.82,3.82,4.07,3.40,3.62,3.62,3.62
334.18,-0.24,-3.86,-0.25,-3.87,3.87,4.11,3.45,3.63,3.62,3.62
337.52,-0.32,-3.94,-0.31,-3.93,3.92,4.15,3.50,3.60,3.61,3.62
340.90,-0.37,-3.98,-0.37,-3.98,3.97,4.18,3.55,3.60,3.61,3.61
344.30,-0.41,-4.02,-0.41,-4.02,4.02,4.22,3.60,3.61,3.61,3.61
347.75,-0.45,-4.06,-0.45,-4.06,4.07,4.26,3.66,3.62,3.61,3.61
351.23,-0.50,-4.11,-0.50,-4.11,4.12,4.29,3.72,3.61,3.61,3.61
354.74,-0.55,-4.16,-0.56,-4.16,4.16,4.33,3.78,3.61,3.61,3.61
358.28,-0.61,-4.22,-0.61,-4.22,4.21,4.36,3.84,3.60,3.60,3.61
361.87,-0.66,-4.27,-0.65,-4.26,4.26,4.40,3.91,3.60,3.61,3.61
365.49,-0.69,-4.30,-0.70,-4.31,4.31,4.43,3.98,3.62,3.61,3.61
369.14,-0.74,-4.35,-0.74,-4.35,4.36,4.46,4.06,3.62,3.62,3.61
372.83,-0.79,-4.41,-0.79,-4.41,4.41,4.49,4.13,3.62,3.62,3.62
376.56,-0.85,-4.47,-0.85,-4.47,4.46,4.52,4.21,3.61,3.61,3.62
380.33,-0.91,-4.52,-0.91,-4.52,4.52,4.55,4.30,3.61,3.61,3.61
384.13,-0.96,-4.57,-0.96,-4.57,4.57,4.58,4.38,3.61,3.61,3.61
387.97,-1.01,-4.62,-1.01,-4.62,4.62,4.61,4.47,3.61,3.61,3.61
391.85,-1.06,-4.67,-1.06,-4.67,4.67,4.64,4.56,3.61,3.61,3.61
395.77,-1.11,-4.72,-1.11,-4.72,4.72,4.67,4.65,3.61,3.61,3.61
399.73,-1.16,-4.76,-1.16,-4.76,4.76,4.70,4.74,3.60,3.60,3.60
403.72,-1.21,-4.81,-1.21,-4.81,4.80,4.72,4.83,3.59,3.59,3.60
407.76,-1.25,-4.84,-1.25,-4.84,4.83,4.75,4.93,3.58,3.59,3.59
411.84,-1.28,-4.87,-1.28,-4.87,4.86,4.77,5.03,3.58,3.58,3.59
415.96,-1.30,-4.88,-1.30,-4.88,4.87,4.80,5.12,3.57,3.57,3.58
420.12,-1.32,-4.89,-1.32,-4.89,4.88,4.82,5.22,3.56,3.56,3.57
424.32,-1.34,-4.89,-1.33,-4.89,4.88,4.84,5.31,3.54,3.55,3.55
428.56,-1.34,-4.88,-1.34,-4.88,4.88,4.86,5.41,3.54,3.54,3.54
432.85,-1.34,-4.87,-1.35,-4.87,4.87,4.88,5.50,3.53,3.52,3.53
437.18,-1.35,-4.86,-1.35,-4.86,4.86,4.90,5.59,3.51,3.51,3.51
441.55,-1.35,-4.84,-1.35,-4.84,4.85,4.92,5.68,3.50,3.50,3.49
445.96,-1.35,-4.83,-1.36,-4.83,4.84,4.94,5.77,3.49,3.48,3.48
450.42,-1.37,-4.83,-1.37,-4.83,4.83,4.96,5.85,3.46,3.46,3.46
454.93,-1.39,-4.83,-1.39,-4.83,4.83,4.97,5.92,3.44,3.44,3.44
459.48,-1.42,-4.85,-1.42,-4.84,4.84,4.99,5.99,3.42,3.42,3.43
464.07,-1.44,-4.85,-1.44,-4.85,4.85,5.00,6.06,3.41,3.41,3.41
468.71,-1.46,-4.86,-1.47,-4.86,4.87,5.02,6.12,3.41,3.40,3.40
473.40,-1.50,-4.88,-1.50,-4.88,4.89,5.03,6.17,3.39,3.39,3.38
478.13,-1.54,-4.91,-1.54,-4.91,4.92,5.04,6.21,3.38,3.38,3.37
482.91,-1.59,-4.95,-1.59,-4.95,4.96,5.05,6.24,3.36,3.36,3.36
487.74,-1.64,-4.99,-1.64,-4.99,4.99,5.06,6.26,3.35,3.35,3.35
492.62,-1.70,-5.04,-1.70,-5.04,5.03,5.07,6.28,3.33,3.33,3.34
497.55,-1.75,-5.08,-1.75,-5.08,5.06,5.08,6.28,3.31,3.31,3.33
502.52,-1.79,-5.11,-1.79,-5.11,5.10,5.09,6.28,3.31,3.31,3.32
507.55,-1.83,-5.15,-1.83,-5.14,5.13,5.09,6.26,3.30,3.31,3.32
512.62,-1.85,-5.16,-1.85,-5.17,5.16,5.10,6.24,3.31,3.31,3.31
517.75,-1.88,-5.19,-1.88,-5.19,5.19,5.10,6.20,3.31,3.31,3.31
522.93,-1.91,-5.21,-1.91,-5.21,5.23,5.11,6.16,3.32,3.32,3.30
528.16,-1.94,-5.24,-1.95,-5.25,5.26,5.11,6.11,3.32,3.31,3.30
533.44,-1.99,-5.29,-1.99,-5.29,5.30,5.11,6.05,3.31,3.31,3.30
538.77,-2.04,-5.34,-2.04,-5.33,5.33,5.11,5.98,3.29,3.30,3.30
544.16,-2.08,-5.38,-2.08,-5.38,5.37,5.11,5.91,3.29,3.29,3.30
549.60,-2.12,-5.42,-2.12,-5.42,5.42,5.11,5.83,3.30,3.29,3.30
