frequency,raw,error,smoothed,error_smoothed,equalization,parametric_eq,fixed_band_eq,equalized_raw,equalized_smoothed,target
20.00,-7.97,-12.21,-7.98,-12.22,6.00,5.39,2.68,-1.97,-1.98,4.24
20.20,-7.89,-12.12,-7.89,-12.11,6.00,5.42,2.76,-1.89,-1.89,4.22
20.40,-7.81,-12.02,-7.80,-12.01,6.00,5.45,2.83,-1.81,-1.80,4.20
20.61,-7.73,-11.93,-7.73,-11.92,6.00,5.48,2.91,-1.73,-1.73,4.19
20.81,-7.65,-11.82,-7.65,-11.83,6.00,5.51,3.00,-1.65,-1.65,4.17
21.02,-7.58,-11.74,-7.59,-11.76,6.00,5.54,3.08,-1.58,-1.59,4.16
21.23,-7.55,-11.70,-7.55,-11.70,6.00,5.57,3.17,-1.55,-1.55,4.15
21.44,-7.53,-11.67,-7.53,-11.67,6.00,5.59,3.26,-1.53,-1.53,4.14
21.66,-7.50,-11.62,-7.50,-11.63,6.00,5.62,3.36,-1.50,-1.50,4.12
21.87,-7.47,-11.59,-7.47,-11.59,6.00,5.65,3.45,-1.47,-1.47,4.12
22.09,-7.43,-11.54,-7.42,-11.53,6.00,5.67,3.55,-1.43,-1.42,4.11
22.31,-7.36,-11.46,-7.36,-11.46,6.00,5.70,3.65,-1.36,-1.36,4.10
22.54,-7.28,-11.37,-7.29,-11.38,6.00,5.73,3.76,-1.28,-1.29,4.09
22.76,-7.21,-11.29,-7.21,-11.29,6.00,5.75,3.86,-1.21,-1.21,4.08
22.99,-7.13,-11.21,-7.13,-11.21,6.00,5.78,3.97,-1.13,-1.13,4.08
23.22,-7.06,-11.13,-7.06,-11.13,6.00,5.80,4.08,-1.06,-1.06,4.07
23.45,-6.98,-11.05,-6.98,-11.05,6.00,5.83,4.20,-0.98,-0.98,4.07
23.69,-6.90,-10.97,-6.90,-10.97,6.00,5.85,4.31,-0.90,-0.90,4.07
23.92,-6.82,-10.89,-6.83,-10.90,6.00,5.87,4.43,-0.82,-0.83,4.07
24.16,-6.78,-10.85,-6.78,-10.84,6.00,5.90,4.56,-0.78,-0.78,4.07
24.40,-6.74,-10.81,-6.74,-10.80,6.00,5.92,4.68,-0.74,-0.74,4.07
24.65,-6.70,-10.77,-6.71,-10.77,6.00,5.94,4.81,-0.70,-0.71,4.06
24.89,-6.67,-10.74,-6.67,-10.73,6.00,5.96,4.93,-0.67,-0.67,4.06
25.14,-6.63,-10.69,-6.63,-10.69,6.00,5.98,5.06,-0.63,-0.63,4.06
25.39,-6.58,-10.64,-6.59,-10.65,6.00,6.00,5.19,-0.58,-0.59,4.06
25.65,-6.54,-10.59,-6.54,-10.60,6.00,6.02,5.32,-0.54,-0.54,4.05
25.91,-6.50,-10.55,-6.50,-10.54,6.00,6.04,5.46,-0.50,-0.50,4.05
26.16,-6.44,-10.48,-6.45,-10.49,6.00,6.06,5.59,-0.44,-0.45,4.04
26.43,-6.39,-10.43,-6.39,-10.43,6.00,6.08,5.72,-0.39,-0.39,4.04
26.69,-6.33,-10.36,-6.33,-10.36,6.00,6.10,5.85,-0.33,-0.33,4.03
26.96,-6.28,-10.30,-6.28,-10.30,6.00,6.12,5.98,-0.28,-0.28,4.02
27.23,-6.22,-10.24,-6.22,-10.23,6.00,6.14,6.11,-0.22,-0.22,4.02
27.50,-6.16,-10.17,-6.16,-10.17,6.00,6.15,6.23,-0.16,-0.16,4.00
27.77,-6.10,-10.09,-6.10,-10.10,6.00,6.17,6.35,-0.10,-0.10,3.99
28.05,-6.04,-10.02,-6.04,-10.03,6.00,6.19,6.47,-0.04,-0.04,3.98
28.33,-5.99,-9.97,-5.99,-9.97,6.00,6.20,6.58,0.01,0.01,3.98
28.62,-5.93,-9.91,-5.93,-9.91,6.00,6.22,6.69,0.07,0.07,3.98
28.90,-5.88,-9.85,-5.88,-9.86,6.00,6.23,6.79,0.12,0.12,3.97
29.19,-5.84,-9.82,-5.85,-9.82,6.00,6.24,6.88,0.16,0.15,3.98
29.48,-5.82,-9.80,-5.82,-9.80,6.00,6.26,6.97,0.18,0.18,3.98
29.78,-5.80,-9.78,-5.80,-9.77,6.00,6.27,7.05,0.20,0.20,3.97
30.08,-5.76,-9.73,-5.76,-9.73,6.00,6.28,7.12,0.24,0.24,3.97
30.38,-5.70,-9.67,-5.70,-9.67,6.00,6.29,7.17,0.30,0.30,3.97
30.68,-5.63,-9.60,-5.63,-9.60,6.00,6.30,7.22,0.37,0.37,3.97
30.99,-5.56,-9.53,-5.57,-9.54,6.00,6.32,7.26,0.44,0.43,3.97
31.30,-5.53,-9.50,-5.53,-9.50,6.00,6.33,7.29,0.47,0.47,3.97
31.61,-5.50,-9.47,-5.50,-9.46,6.00,6.34,7.31,0.50,0.50,3.96
31.93,-5.47,-9.43,-5.46,-9.42,6.00,6.34,7.32,0.53,0.54,3.96
32.24,-5.41,-9.36,-5.41,-9.36,6.00,6.35,7.32,0.59,0.59,3.95
32.57,-5.35,-9.30,-5.35,-9.30,6.00,6.36,7.31,0.65,0.65,3.95
32.89,-5.28,-9.23,-5.29,-9.23,6.00,6.37,7.29,0.72,0.71,3.94
33.22,-5.24,-9.18,-5.24,-9.19,6.00,6.37,7.26,0.76,0.76,3.94
33.55,-5.20,-9.14,-5.20,-9.14,6.00,6.38,7.23,0.80,0.80,3.94
33.89,-5.17,-9.10,-5.16,-9.09,6.00,6.39,7.18,0.83,0.84,3.93
34.23,-5.11,-9.04,-5.11,-9.03,6.00,6.39,7.13,0.89,0.89,3.92
34.57,-5.05,-8.97,-5.05,-8.97,6.00,6.40,7.08,0.95,0.95,3.92
34.92,-4.98,-8.90,-5.00,-8.92,6.00,6.40,7.02,1.02,1.00,3.92
35.27,-4.96,-8.88,-4.97,-8.88,6.00,6.40,6.96,1.04,1.03,3.92
35.62,-4.95,-8.86,-4.95,-8.86,6.00,6.41,6.89,1.05,1.05,3.91
35.97,-4.95,-8.85,-4.94,-8.85,6.00,6.41,6.82,1.05,1.06,3.90
36.33,-4.92,-8.82,-4.93,-8.82,6.00,6.41,6.75,1.08,1.07,3.90
36.70,-4.89,-8.78,-4.89,-8.78,6.00,6.41,6.68,1.11,1.11,3.89
37.06,-4.85,-8.74,-4.84,-8.72,6.00,6.41,6.61,1.15,1.16,3.89
37.43,-4.77,-8.65,-4.77,-8.65,6.00,6.41,6.54,1.23,1.23,3.88
37.81,-4.70,-8.57,-4.71,-8.58,6.00,6.41,6.47,1.30,1.29,3.87
38.19,-4.66,-8.52,-4.68,-8.53,6.00,6.41,6.40,1.34,1.32,3.86
38.57,-4.66,-8.50,-4.66,-8.50,6.00,6.41,6.33,1.34,1.34,3.84
38.95,-4.66,-8.49,-4.64,-8.47,6.00,6.41,6.27,1.34,1.36,3.83
39.34,-4.60,-8.42,-4.60,-8.42,6.00,6.40,6.20,1.40,1.40,3.82
39.74,-4.53,-8.34,-4.54,-8.35,6.00,6.40,6.15,1.47,1.46,3.81
40.14,-4.47,-8.27,-4.47,-8.27,6.00,6.39,6.09,1.53,1.53,3.79
40.54,-4.41,-8.19,-4.41,-8.19,6.00,6.39,6.04,1.59,1.59,3.78
40.94,-4.36,-8.13,-4.36,-8.13,6.00,6.38,5.99,1.64,1.64,3.77
41.35,-4.31,-8.08,-4.31,-8.08,6.00,6.38,5.94,1.69,1.69,3.77
41.76,-4.27,-8.03,-4.28,-8.04,6.00,6.37,5.90,1.73,1.72,3.76
42.18,-4.25,-8.01,-4.26,-8.02,6.00,6.36,5.87,1.75,1.74,3.76
42.60,-4.25,-8.00,-4.25,-8.00,6.00,6.36,5.83,1.75,1.75,3.75
43.03,-4.25,-7.99,-4.23,-7.98,6.00,6.35,5.80,1.75,1.77,3.74
43.46,-4.19,-7.93,-4.20,-7.94,6.00,6.34,5.78,1.81,1.80,3.74
43.90,-4.14,-7.88,-4.14,-7.87,6.00,6.33,5.76,1.86,1.86,3.74
44.33,-4.07,-7.80,-4.07,-7.80,6.00,6.32,5.75,1.93,1.93,3.73
44.78,-4.00,-7.73,-4.01,-7.74,6.00,6.31,5.74,2.00,1.99,3.72
45.23,-3.96,-7.68,-3.97,-7.69,6.00,6.30,5.73,2.04,2.03,3.72
45.68,-3.95,-7.66,-3.95,-7.66,6.00,6.29,5.73,2.05,2.05,3.71
46.13,-3.94,-7.64,-3.92,-7.62,6.00,6.28,5.73,2.06,2.08,3.70
46.60,-3.89,-7.58,-3.89,-7.59,6.00,6.26,5.74,2.11,2.11,3.69
47.06,-3.85,-7.53,-3.88,-7.56,6.00,6.25,5.75,2.15,2.12,3.68
47.53,-3.85,-7.52,-3.85,-7.52,6.00,6.24,5.77,2.15,2.15,3.67
48.01,-3.85,-7.50,-3.81,-7.47,6.00,6.22,5.78,2.15,2.19,3.65
48.49,-3.75,-7.39,-3.75,-7.39,6.00,6.21,5.81,2.25,2.25,3.64
48.97,-3.66,-7.28,-3.69,-7.32,6.00,6.19,5.83,2.34,2.31,3.62
49.46,-3.65,-7.26,-3.65,-7.26,6.00,6.18,5.86,2.35,2.35,3.61
49.96,-3.65,-7.25,-3.65,-7.25,6.00,6.16,5.90,2.35,2.35,3.60
50.46,-3.65,-7.24,-3.65,-7.24,6.00,6.15,5.93,2.35,2.35,3.59
50.96,-3.65,-7.24,-3.63,-7.21,6.00,6.13,5.97,2.35,2.37,3.58
51.47,-3.60,-7.17,-3.60,-7.17,6.00,6.11,6.01,2.40,2.40,3.57
51.99,-3.54,-7.10,-3.58,-7.14,6.00,6.10,6.05,2.46,2.42,3.56
52.51,-3.55,-7.09,-3.55,-7.09,6.00,6.08,6.09,2.45,2.45,3.54
53.03,-3.55,-7.07,-3.50,-7.02,6.00,6.06,6.14,2.45,2.50,3.52
53.56,-3.43,-6.94,-3.44,-6.94,6.00,6.05,6.18,2.57,2.56,3.51
54.10,-3.33,-6.82,-3.37,-6.87,6.00,6.03,6.22,2.67,2.63,3.49
54.64,-3.34,-6.82,-3.34,-6.82,6.00,6.01,6.26,2.66,2.66,3.48
55.18,-3.35,-6.81,-3.34,-6.80,6.00,6.00,6.31,2.65,2.66,3.46
55.74,-3.35,-6.79,-3.33,-6.78,6.00,5.98,6.34,2.65,2.67,3.44
56.29,-3.31,-6.74,-3.29,-6.72,6.00,5.97,6.38,2.69,2.71,3.43
56.86,-3.23,-6.64,-3.27,-6.68,6.00,5.95,6.41,2.77,2.73,3.41
57.42,-3.24,-6.63,-3.26,-6.65,6.00,5.94,6.44,2.76,2.74,3.39
58.00,-3.29,-6.66,-3.26,-6.63,6.00,5.92,6.47,2.71,2.74,3.37
58.58,-3.24,-6.59,-3.23,-6.58,6.00,5.91,6.49,2.76,2.77,3.35
59.16,-3.17,-6.50,-3.16,-6.49,6.00,5.90,6.50,2.83,2.84,3.33
59.76,-3.06,-6.37,-3.08,-6.40,6.00,5.89,6.50,2.94,2.92,3.31
60.35,-3.02,-6.31,-3.04,-6.34,6.00,5.89,6.50,2.98,2.96,3.29
60.96,-3.05,-6.33,-3.03,-6.31,6.00,5.88,6.50,2.95,2.97,3.28
61.57,-3.05,-6.31,-3.05,-6.31,6.00,5.87,6.48,2.95,2.95,3.25
62.18,-3.05,-6.28,-3.06,-6.29,6.01,5.87,6.46,2.96,2.95,3.23
62.80,-3.05,-6.25,-3.02,-6.22,6.02,5.87,6.43,2.97,3.00,3.20
63.43,-2.98,-6.15,-2.97,-6.14,6.02,5.86,6.39,3.04,3.05,3.17
64.07,-2.89,-6.03,-2.94,-6.07,6.00,5.86,6.35,3.11,3.07,3.13
64.71,-2.93,-6.04,-2.95,-6.06,5.98,5.85,6.29,3.05,3.03,3.11
65.35,-2.97,-6.04,-2.96,-6.03,5.94,5.84,6.23,2.97,2.98,3.07
66.01,-3.01,-6.05,-2.92,-5.96,5.90,5.82,6.16,2.88,2.97,3.04
66.67,-2.80,-5.81,-2.85,-5.85,5.85,5.79,6.09,3.05,3.00,3.00
67.33,-2.71,-5.69,-2.77,-5.74,5.79,5.76,6.01,3.08,3.03,2.97
68.01,-2.74,-5.68,-2.72,-5.65,5.73,5.72,5.92,2.99,3.01,2.93
68.69,-2.74,-5.64,-2.73,-5.63,5.66,5.67,5.83,2.92,2.93,2.90
69.37,-2.74,-5.60,-2.75,-5.61,5.58,5.61,5.73,2.84,2.83,2.86
70.07,-2.74,-5.57,-2.75,-5.57,5.52,5.54,5.63,2.78,2.78,2.83
70.77,-2.74,-5.52,-2.71,-5.50,5.47,5.47,5.53,2.73,2.76,2.78
71.48,-2.67,-5.42,-2.66,-5.41,5.44,5.39,5.42,2.76,2.77,2.75
72.19,-2.59,-5.29,-2.63,-5.33,5.39,5.31,5.31,2.80,2.76,2.70
72.91,-2.61,-5.28,-2.62,-5.29,5.33,5.23,5.20,2.72,2.71,2.67
73.64,-2.66,-5.29,-2.65,-5.28,5.26,5.15,5.09,2.60,2.61,2.63
74.38,-2.69,-5.28,-2.68,-5.27,5.19,5.07,4.98,2.49,2.51,2.59
75.12,-2.66,-5.21,-2.64,-5.19,5.12,4.99,4.87,2.46,2.48,2.55
75.87,-2.56,-5.06,-2.55,-5.05,5.05,4.92,4.75,2.49,2.50,2.50
76.63,-2.43,-4.89,-2.47,-4.93,4.98,4.84,4.64,2.55,2.52,2.46
77.40,-2.39,-4.81,-2.42,-4.84,4.91,4.77,4.53,2.52,2.49,2.42
78.17,-2.44,-4.82,-2.42,-4.79,4.83,4.70,4.42,2.39,2.41,2.38
78.95,-2.44,-4.78,-2.44,-4.78,4.75,4.62,4.31,2.31,2.31,2.33
79.74,-2.44,-4.73,-2.44,-4.74,4.68,4.56,4.20,2.24,2.23,2.29
80.54,-2.42,-4.67,-2.39,-4.64,4.63,4.49,4.10,2.21,2.23,2.25
81.35,-2.35,-4.55,-2.34,-4.54,4.58,4.42,3.99,2.23,2.24,2.20
82.16,-2.26,-4.42,-2.33,-4.48,4.53,4.35,3.89,2.27,2.20,2.15
82.98,-2.34,-4.44,-2.34,-4.44,4.46,4.28,3.79,2.12,2.12,2.10
83.81,-2.42,-4.47,-2.37,-4.41,4.38,4.22,3.69,1.96,2.01,2.05
84.65,-2.37,-4.37,-2.37,-4.36,4.29,4.15,3.60,1.92,1.92,2.00
85.50,-2.29,-4.23,-2.32,-4.27,4.20,4.09,3.51,1.91,1.88,1.94
86.35,-2.24,-4.13,-2.23,-4.12,4.12,4.02,3.42,1.88,1.89,1.89
87.22,-2.20,-4.03,-2.16,-3.99,4.04,3.95,3.33,1.83,1.88,1.83
88.09,-2.05,-3.83,-2.12,-3.89,3.95,3.89,3.24,1.90,1.83,1.78
88.97,-2.10,-3.82,-2.10,-3.81,3.87,3.82,3.16,1.76,1.77,1.71
89.86,-2.13,-3.78,-2.11,-3.76,3.79,3.76,3.08,1.66,1.68,1.65
90.76,-2.14,-3.74,-2.14,-3.73,3.71,3.69,3.00,1.57,1.58,1.60
91.66,-2.13,-3.67,-2.14,-3.68,3.64,3.63,2.93,1.51,1.50,1.53
92.58,-2.13,-3.60,-2.14,-3.61,3.57,3.56,2.86,1.44,1.43,1.47
93.51,-2.13,-3.54,-2.12,-3.52,3.49,3.49,2.79,1.36,1.38,1.41
94.44,-2.09,-3.43,-2.09,-3.43,3.41,3.43,2.72,1.32,1.32,1.34
95.39,-2.03,-3.31,-2.04,-3.32,3.32,3.36,2.65,1.29,1.28,1.27
96.34,-2.01,-3.22,-1.99,-3.20,3.23,3.29,2.59,1.22,1.24,1.21
97.30,-1.94,-3.07,-1.96,-3.10,3.13,3.22,2.52,1.19,1.17,1.13
98.28,-1.95,-3.02,-1.95,-3.02,3.04,3.16,2.46,1.09,1.08,1.06
99.26,-1.97,-2.96,-1.96,-2.95,2.95,3.09,2.41,0.98,0.98,0.99
100.25,-1.98,-2.89,-1.99,-2.90,2.86,3.02,2.35,0.88,0.87,0.91
101.25,-2.00,-2.83,-1.99,-2.82,2.79,2.95,2.29,0.79,0.80,0.83
102.27,-1.98,-2.74,-1.94,-2.70,2.72,2.88,2.24,0.74,0.77,0.76
103.29,-1.89,-2.57,-1.93,-2.60,2.64,2.81,2.19,0.75,0.71,0.68
104.32,-1.88,-2.48,-1.95,-2.55,2.56,2.74,2.14,0.68,0.61,0.60
105.37,-2.04,-2.55,-1.99,-2.50,2.49,2.67,2.09,0.45,0.51,0.51
106.42,-2.06,-2.50,-2.01,-2.45,2.42,2.60,2.04,0.35,0.40,0.43
107.48,-1.97,-2.33,-2.00,-2.36,2.34,2.53,1.99,0.37,0.33,0.36
108.56,-1.94,-2.22,-1.96,-2.24,2.26,2.46,1.95,0.32,0.29,0.28
109.64,-1.96,-2.16,-1.95,-2.16,2.18,2.39,1.90,0.22,0.22,0.20
110.74,-1.98,-2.11,-2.00,-2.12,2.10,2.32,1.85,0.12,0.10,0.13
111.85,-2.00,-2.06,-1.99,-2.05,2.02,2.25,1.81,0.02,0.03,0.06
112.97,-2.01,-2.00,-1.94,-1.93,1.95,2.17,1.76,-0.06,0.01,-0.01
114.10,-1.83,-1.75,-1.90,-1.82,1.88,2.10,1.72,0.04,-0.02,-0.08
115.24,-1.84,-1.70,-1.91,-1.76,1.80,2.03,1.68,-0.04,-0.11,-0.14
116.39,-1.97,-1.76,-1.93,-1.72,1.71,1.95,1.63,-0.26,-0.22,-0.21
117.55,-2.03,-1.77,-1.95,-1.69,1.61,1.88,1.58,-0.42,-0.34,-0.27
118.73,-1.88,-1.55,-1.93,-1.60,1.51,1.81,1.54,-0.37,-0.42,-0.33
119.92,-1.80,-1.42,-1.83,-1.44,1.41,1.73,1.49,-0.39,-0.42,-0.38
121.12,-1.78,-1.33,-1.72,-1.28,1.32,1.66,1.45,-0.47,-0.41,-0.45
122.33,-1.64,-1.14,-1.66,-1.17,1.23,1.59,1.40,-0.42,-0.44,-0.50
123.55,-1.58,-1.04,-1.63,-1.08,1.14,1.51,1.35,-0.44,-0.49,-0.55
124.79,-1.65,-1.05,-1.62,-1.02,1.07,1.44,1.30,-0.58,-0.55,-0.60
126.03,-1.66,-1.00,-1.64,-0.99,1.01,1.36,1.25,-0.65,-0.63,-0.66
127.29,-1.65,-0.95,-1.66,-0.95,0.95,1.29,1.20,-0.70,-0.71,-0.70
128.57,-1.65,-0.90,-1.68,-0.93,0.89,1.21,1.15,-0.76,-0.80,-0.75
129.85,-1.69,-0.89,-1.70,-0.90,0.82,1.14,1.09,-0.88,-0.88,-0.80
131.15,-1.74,-0.89,-1.68,-0.83,0.73,1.06,1.04,-1.01,-0.95,-0.85
132.46,-1.59,-0.69,-1.59,-0.69,0.65,0.99,0.98,-0.94,-0.94,-0.90
133.79,-1.47,-0.52,-1.47,-0.52,0.56,0.91,0.93,-0.91,-0.91,-0.96
135.12,-1.31,-0.31,-1.38,-0.38,0.48,0.84,0.87,-0.83,-0.90,-1.00
136.48,-1.38,-0.33,-1.37,-0.32,0.41,0.76,0.81,-0.97,-0.96,-1.05
137.84,-1.42,-0.32,-1.38,-0.28,0.34,0.68,0.75,-1.08,-1.04,-1.10
139.22,-1.42,-0.27,-1.43,-0.28,0.27,0.61,0.69,-1.15,-1.15,-1.15
140.61,-1.41,-0.21,-1.46,-0.26,0.20,0.53,0.63,-1.21,-1.26,-1.20
142.02,-1.50,-0.25,-1.49,-0.24,0.13,0.46,0.57,-1.38,-1.37,-1.25
143.44,-1.52,-0.22,-1.47,-0.17,0.05,0.38,0.50,-1.47,-1.42,-1.31
144.87,-1.40,-0.05,-1.37,-0.02,-0.02,0.31,0.44,-1.42,-1.39,-1.35
146.32,-1.19,0.21,-1.24,0.16,-0.10,0.23,0.38,-1.29,-1.33,-1.40
147.78,-1.09,0.36,-1.15,0.30,-0.17,0.15,0.31,-1.26,-1.32,-1.46
149.26,-1.17,0.33,-1.14,0.37,-0.25,0.08,0.24,-1.42,-1.39,-1.50
150.75,-1.21,0.34,-1.19,0.36,-0.33,0.00,0.18,-1.54,-1.52,-1.55
152.26,-1.21,0.39,-1.25,0.35,-0.42,-0.07,0.11,-1.63,-1.67,-1.60
153.78,-1.27,0.36,-1.26,0.38,-0.49,-0.15,0.04,-1.76,-1.76,-1.63
155.32,-1.27,0.41,-1.23,0.45,-0.56,-0.22,-0.03,-1.83,-1.79,-1.68
156.88,-1.14,0.58,-1.13,0.59,-0.62,-0.30,-0.10,-1.76,-1.75,-1.72
158.44,-1.00,0.76,-1.02,0.74,-0.68,-0.37,-0.17,-1.68,-1.70,-1.76
160.03,-0.89,0.91,-0.95,0.85,-0.74,-0.45,-0.24,-1.63,-1.69,-1.80
161.63,-0.98,0.86,-0.95,0.89,-0.79,-0.52,-0.31,-1.77,-1.74,-1.84
163.24,-1.01,0.87,-0.99,0.90,-0.85,-0.59,-0.38,-1.86,-1.84,-1.88
164.88,-1.02,0.90,-1.05,0.87,-0.91,-0.67,-0.45,-1.93,-1.96,-1.92
166.53,-1.06,0.90,-1.08,0.88,-0.97,-0.74,-0.53,-2.03,-2.05,-1.96
168.19,-1.12,0.88,-1.09,0.91,-1.02,-0.82,-0.60,-2.14,-2.11,-2.00
169.87,-1.05,0.99,-1.04,0.99,-1.07,-0.89,-0.68,-2.12,-2.11,-2.04
171.57,-0.96,1.11,-0.93,1.14,-1.11,-0.96,-0.75,-2.08,-2.05,-2.07
173.29,-0.80,1.31,-0.82,1.29,-1.16,-1.03,-0.83,-1.97,-1.99,-2.11
175.02,-0.73,1.41,-0.79,1.35,-1.22,-1.11,-0.91,-1.96,-2.01,-2.14
176.77,-0.83,1.34,-0.84,1.34,-1.29,-1.18,-0.99,-2.12,-2.13,-2.17
178.54,-0.94,1.26,-0.91,1.29,-1.36,-1.25,-1.06,-2.30,-2.26,-2.20
180.32,-0.97,1.26,-0.92,1.31,-1.42,-1.32,-1.14,-2.39,-2.34,-2.23
182.13,-0.84,1.41,-0.87,1.38,-1.47,-1.39,-1.22,-2.31,-2.34,-2.25
183.95,-0.74,1.53,-0.77,1.50,-1.51,-1.46,-1.31,-2.25,-2.28,-2.27
185.79,-0.72,1.58,-0.66,1.63,-1.56,-1.53,-1.39,-2.28,-2.22,-2.30
187.65,-0.58,1.73,-0.61,1.70,-1.62,-1.60,-1.47,-2.20,-2.24,-2.31
189.52,-0.54,1.79,-0.61,1.73,-1.69,-1.67,-1.56,-2.23,-2.30,-2.33
191.42,-0.65,1.70,-0.60,1.75,-1.76,-1.73,-1.64,-2.41,-2.36,-2.35
193.33,-0.63,1.74,-0.58,1.78,-1.83,-1.80,-1.73,-2.46,-2.41,-2.37
195.27,-0.50,1.88,-0.54,1.84,-1.88,-1.87,-1.81,-2.39,-2.42,-2.38
197.22,-0.44,1.95,-0.46,1.93,-1.94,-1.94,-1.90,-2.38,-2.40,-2.39
199.19,-0.42,1.99,-0.41,2.00,-2.00,-2.00,-1.98,-2.42,-2.41,-2.41
201.18,-0.38,2.05,-0.37,2.05,-2.06,-2.07,-2.07,-2.44,-2.43,-2.43
203.19,-0.33,2.11,-0.32,2.12,-2.12,-2.13,-2.16,-2.45,-2.44,-2.44
205.23,-0.25,2.21,-0.26,2.20,-2.17,-2.20,-2.24,-2.42,-2.44,-2.46
207.28,-0.21,2.26,-0.22,2.25,-2.22,-2.26,-2.33,-2.43,-2.44,-2.47
209.35,-0.21,2.29,-0.21,2.29,-2.26,-2.32,-2.42,-2.47,-2.47,-2.50
211.44,-0.21,2.30,-0.22,2.29,-2.30,-2.38,-2.50,-2.51,-2.52,-2.51
213.56,-0.22,2.30,-0.22,2.31,-2.34,-2.45,-2.59,-2.56,-2.56,-2.52
215.69,-0.22,2.33,-0.21,2.34,-2.38,-2.51,-2.67,-2.60,-2.59,-2.55
217.85,-0.16,2.40,-0.18,2.39,-2.42,-2.57,-2.75,-2.58,-2.59,-2.56
220.03,-0.14,2.44,-0.13,2.45,-2.45,-2.63,-2.83,-2.59,-2.57,-2.58
222.23,-0.07,2.52,-0.08,2.52,-2.48,-2.69,-2.91,-2.55,-2.55,-2.59
224.45,-0.03,2.57,-0.05,2.56,-2.52,-2.74,-2.98,-2.55,-2.57,-2.60
226.70,-0.03,2.58,-0.03,2.59,-2.57,-2.80,-3.06,-2.60,-2.59,-2.61
228.96,-0.03,2.59,-0.04,2.59,-2.61,-2.86,-3.13,-2.64,-2.65,-2.63
231.25,-0.02,2.60,-0.04,2.59,-2.65,-2.91,-3.19,-2.67,-2.68,-2.63
233.57,-0.03,2.60,0.02,2.65,-2.68,-2.97,-3.26,-2.71,-2.66,-2.63
235.90,0.09,2.72,0.11,2.74,-2.71,-3.02,-3.32,-2.63,-2.61,-2.63
238.26,0.24,2.88,0.18,2.82,-2.77,-3.08,-3.37,-2.53,-2.58,-2.64
240.64,0.25,2.88,0.21,2.84,-2.84,-3.13,-3.42,-2.59,-2.63,-2.63
243.05,0.19,2.82,0.21,2.84,-2.90,-3.18,-3.47,-2.72,-2.70,-2.63
245.48,0.17,2.80,0.26,2.88,-2.97,-3.23,-3.51,-2.80,-2.71,-2.63
247.93,0.39,3.01,0.38,3.01,-3.02,-3.28,-3.55,-2.63,-2.64,-2.63
250.41,0.58,3.20,0.53,3.15,-3.06,-3.33,-3.58,-2.48,-2.53,-2.62
252.92,0.64,3.26,0.61,3.23,-3.10,-3.38,-3.61,-2.46,-2.49,-2.62
255.45,0.57,3.19,0.56,3.18,-3.14,-3.43,-3.64,-2.58,-2.58,-2.62
258.00,0.49,3.11,0.52,3.14,-3.19,-3.47,-3.66,-2.70,-2.68,-2.62
260.58,0.46,3.09,0.52,3.15,-3.24,-3.52,-3.67,-2.78,-2.72,-2.63
263.19,0.61,3.24,0.56,3.19,-3.27,-3.56,-3.68,-2.66,-2.72,-2.64
265.82,0.66,3.31,0.64,3.29,-3.29,-3.61,-3.69,-2.63,-2.65,-2.65
268.48,0.66,3.32,0.73,3.39,-3.32,-3.65,-3.70,-2.66,-2.59,-2.66
271.16,0.80,3.47,0.74,3.41,-3.36,-3.69,-3.70,-2.56,-2.62,-2.67
273.87,0.79,3.48,0.74,3.43,-3.40,-3.73,-3.69,-2.62,-2.66,-2.69
276.61,0.67,3.36,0.75,3.44,-3.45,-3.77,-3.69,-2.78,-2.70,-2.69
279.38,0.75,3.45,0.75,3.46,-3.49,-3.81,-3.68,-2.74,-2.74,-2.70
282.17,0.83,3.54,0.79,3.50,-3.53,-3.85,-3.67,-2.70,-2.74,-2.71
284.99,0.86,3.58,0.85,3.57,-3.57,-3.88,-3.66,-2.71,-2.72,-2.72
287.84,0.87,3.59,0.88,3.61,-3.62,-3.92,-3.65,-2.75,-2.74,-2.72
290.72,0.92,3.65,0.93,3.66,-3.67,-3.95,-3.64,-2.75,-2.74,-2.74
293.63,0.98,3.72,0.99,3.73,-3.72,-3.99,-3.63,-2.74,-2.73,-2.74
296.57,1.08,3.82,1.06,3.80,-3.77,-4.02,-3.62,-2.69,-2.71,-2.74
299.53,1.12,3.86,1.11,3.85,-3.82,-4.05,-3.60,-2.71,-2.72,-2.74
302.53,1.13,3.87,1.13,3.88,-3.88,-4.08,-3.59,-2.75,-2.75,-2.74
305.55,1.14,3.89,1.15,3.90,-3.93,-4.11,-3.58,-2.79,-2.78,-2.75
308.61,1.17,3.93,1.19,3.94,-3.98,-4.14,-3.57,-2.81,-2.79,-2.76
311.69,1.25,4.01,1.25,4.01,-4.02,-4.17,-3.56,-2.77,-2.77,-2.76
314.81,1.32,4.09,1.31,4.08,-4.05,-4.20,-3.56,-2.74,-2.75,-2.77
317.96,1.36,4.14,1.35,4.13,-4.08,-4.22,-3.55,-2.73,-2.73,-2.78
321.14,1.36,4.14,1.36,4.15,-4.11,-4.25,-3.55,-2.75,-2.75,-2.78
324.35,1.36,4.15,1.36,4.16,-4.14,-4.27,-3.55,-2.79,-2.78,-2.79
327.59,1.36,4.16,1.35,4.15,-4.17,-4.29,-3.55,-2.82,-2.82,-2.81
330.87,1.36,4.17,1.36,4.16,-4.20,-4.32,-3.55,-2.85,-2.85,-2.81
334.18,1.36,4.17,1.38,4.19,-4.23,-4.34,-3.56,-2.87,-2.85,-2.81
337.52,1.43,4.24,1.42,4.24,-4.26,-4.36,-3.57,-2.83,-2.83,-2.81
340.90,1.48,4.30,1.48,4.30,-4.28,-4.37,-3.58,-2.80,-2.81,-2.83
344.30,1.54,4.37,1.53,4.35,-4.32,-4.39,-3.60,-2.78,-2.79,-2.83
347.75,1.55,4.38,1.55,4.38,-4.35,-4.41,-3.61,-2.80,-2.80,-2.83
351.23,1.56,4.40,1.56,4.40,-4.39,-4.42,-3.63,-2.83,-2.83,-2.84
354.74,1.56,4.40,1.55,4.39,-4.42,-4.44,-3.66,-2.86,-2.86,-2.84
358.28,1.56,4.40,1.56,4.40,-4.44,-4.45,-3.68,-2.88,-2.88,-2.84
361.87,1.57,4.42,1.61,4.45,-4.45,-4.46,-3.71,-2.89,-2.85,-2.85
365.49,1.65,4.50,1.66,4.51,-4.48,-4.47,-3.75,-2.83,-2.82,-2.85
369.14,1.76,4.61,1.66,4.51,-4.51,-4.48,-3.78,-2.75,-2.84,-2.85
372.83,1.65,4.50,1.68,4.53,-4.54,-4.49,-3.82,-2.89,-2.86,-2.85
376.56,1.60,4.45,1.69,4.54,-4.57,-4.50,-3.86,-2.98,-2.89,-2.85
380.33,1.77,4.63,1.72,4.58,-4.61,-4.51,-3.90,-2.84,-2.89,-2.86
384.13,1.81,4.67,1.79,4.65,-4.64,-4.51,-3.95,-2.83,-2.85,-2.87
387.97,1.82,4.70,1.83,4.71,-4.67,-4.52,-3.99,-2.85,-2.84,-2.88
391.85,1.82,4.71,1.82,4.71,-4.69,-4.52,-4.04,-2.87,-2.87,-2.89
395.77,1.82,4.72,1.82,4.72,-4.72,-4.53,-4.10,-2.90,-2.90,-2.90
399.73,1.82,4.73,1.82,4.73,-4.74,-4.53,-4.15,-2.92,-2.92,-2.91
403.72,1.82,4.74,1.82,4.74,-4.75,-4.53,-4.21,-2.93,-2.93,-2.92
407.76,1.82,4.76,1.82,4.75,-4.76,-4.53,-4.26,-2.94,-2.95,-2.94
411.84,1.81,4.76,1.81,4.77,-4.77,-4.53,-4.32,-2.96,-2.96,-2.95
415.96,1.81,4.77,1.81,4.78,-4.78,-4.53,-4.38,-2.97,-2.97,-2.97
420.12,1.81,4.78,1.81,4.78,-4.79,-4.52,-4.44,-2.98,-2.98,-2.98
424.32,1.82,4.80,1.82,4.79,-4.80,-4.52,-4.50,-2.98,-2.99,-2.98
428.56,1.83,4.81,1.83,4.80,-4.81,-4.52,-4.56,-2.98,-2.98,-2.98
432.85,1.84,4.81,1.84,4.81,-4.81,-4.51,-4.61,-2.97,-2.97,-2.97
437.18,1.87,4.82,1.87,4.83,-4.81,-4.50,-4.67,-2.94,-2.94,-2.95
441.55,1.90,4.83,1.91,4.84,-4.81,-4.50,-4.72,-2.92,-2.91,-2.93
445.96,1.95,4.85,1.91,4.81,-4.82,-4.49,-4.78,-2.87,-2.90,-2.90
450.42,1.93,4.79,1.92,4.78,-4.82,-4.48,-4.83,-2.89,-2.90,-2.86
454.93,1.88,4.70,1.94,4.76,-4.80,-4.47,-4.87,-2.92,-2.86,-2.82
459.48,1.99,4.76,1.99,4.77,-4.77,-4.46,-4.92,-2.78,-2.78,-2.77
464.07,2.08,4.81,2.04,4.77,-4.72,-4.45,-4.96,-2.64,-2.68,-2.73
468.71,2.08,4.76,2.05,4.73,-4.65,-4.43,-4.99,-2.57,-2.60,-2.68
473.40,1.98,4.61,2.03,4.67,-4.58,-4.42,-5.02,-2.60,-2.54,-2.64
