frequency,raw,error,smoothed,error_smoothed,equalization,parametric_eq,fixed_band_eq,equalized_raw,equalized_smoothed,target
20.00,-5.84,-4.00,-5.84,-3.99,4.00,3.81,0.72,-1.85,-1.85,-1.85
20.20,-5.79,-3.93,-5.80,-3.93,3.92,3.78,0.74,-1.87,-1.87,-1.87
20.40,-5.75,-3.85,-5.75,-3.86,3.85,3.74,0.76,-1.90,-1.90,-1.90
20.61,-5.70,-3.79,-5.70,-3.78,3.78,3.69,0.79,-1.92,-1.92,-1.92
20.81,-5.65,-3.71,-5.65,-3.71,3.71,3.63,0.81,-1.94,-1.94,-1.94
21.02,-5.60,-3.64,-5.60,-3.64,3.64,3.58,0.83,-1.96,-1.96,-1.97
21.23,-5.55,-3.57,-5.56,-3.57,3.57,3.51,0.86,-1.98,-1.98,-1.99
21.44,-5.51,-3.50,-5.51,-3.50,3.50,3.44,0.89,-2.01,-2.01,-2.01
21.66,-5.46,-3.44,-5.47,-3.44,3.44,3.37,0.91,-2.03,-2.03,-2.03
21.87,-5.42,-3.37,-5.42,-3.37,3.37,3.30,0.94,-2.05,-2.05,-2.05
22.09,-5.37,-3.30,-5.37,-3.30,3.30,3.22,0.97,-2.07,-2.07,-2.07
22.31,-5.32,-3.23,-5.33,-3.24,3.23,3.14,1.00,-2.09,-2.09,-2.09
22.54,-5.28,-3.17,-5.28,-3.16,3.17,3.06,1.03,-2.12,-2.11,-2.12
22.76,-5.23,-3.09,-5.23,-3.10,3.10,2.99,1.06,-2.13,-2.14,-2.14
22.99,-5.18,-3.03,-5.19,-3.03,3.03,2.91,1.09,-2.15,-2.15,-2.16
23.22,-5.14,-2.97,-5.14,-2.96,2.96,2.83,1.13,-2.18,-2.17,-2.18
23.45,-5.08,-2.89,-5.09,-2.90,2.90,2.75,1.16,-2.19,-2.19,-2.19
23.69,-5.04,-2.84,-5.04,-2.83,2.83,2.67,1.19,-2.21,-2.21,-2.21
23.92,-4.98,-2.76,-4.98,-2.76,2.76,2.59,1.23,-2.22,-2.22,-2.22
24.16,-4.92,-2.68,-4.93,-2.70,2.70,2.52,1.26,-2.23,-2.23,-2.24
24.40,-4.88,-2.63,-4.88,-2.63,2.63,2.44,1.30,-2.25,-2.25,-2.25
24.65,-4.82,-2.57,-4.82,-2.56,2.56,2.37,1.33,-2.26,-2.26,-2.26
24.89,-4.77,-2.49,-4.77,-2.50,2.50,2.30,1.37,-2.28,-2.27,-2.28
25.14,-4.71,-2.42,-4.71,-2.43,2.43,2.23,1.41,-2.28,-2.28,-2.29
25.39,-4.66,-2.36,-4.66,-2.36,2.36,2.17,1.44,-2.30,-2.30,-2.30
25.65,-4.60,-2.30,-4.61,-2.30,2.29,2.10,1.48,-2.31,-2.31,-2.31
25.91,-4.55,-2.24,-4.55,-2.23,2.23,2.04,1.52,-2.33,-2.33,-2.32
26.16,-4.49,-2.16,-4.49,-2.16,2.16,1.98,1.55,-2.34,-2.34,-2.33
26.43,-4.43,-2.09,-4.43,-2.09,2.09,1.92,1.59,-2.35,-2.35,-2.35
26.69,-4.37,-2.02,-4.37,-2.02,2.02,1.86,1.62,-2.35,-2.35,-2.36
26.96,-4.31,-1.95,-4.31,-1.94,1.95,1.81,1.66,-2.36,-2.36,-2.37
27.23,-4.25,-1.88,-4.26,-1.88,1.88,1.75,1.69,-2.37,-2.37,-2.38
27.50,-4.20,-1.82,-4.20,-1.82,1.82,1.70,1.73,-2.38,-2.38,-2.39
27.77,-4.15,-1.76,-4.15,-1.76,1.76,1.65,1.76,-2.39,-2.39,-2.39
28.05,-4.09,-1.69,-4.10,-1.70,1.70,1.61,1.79,-2.39,-2.40,-2.40
28.33,-4.05,-1.64,-4.05,-1.64,1.64,1.56,1.82,-2.41,-2.40,-2.41
28.62,-3.99,-1.59,-4.00,-1.59,1.59,1.52,1.84,-2.41,-2.41,-2.41
28.90,-3.95,-1.53,-3.95,-1.54,1.54,1.47,1.87,-2.42,-2.42,-2.42
29.19,-3.91,-1.50,-3.90,-1.48,1.48,1.43,1.89,-2.43,-2.42,-2.42
29.48,-3.85,-1.42,-3.86,-1.43,1.43,1.40,1.91,-2.42,-2.43,-2.43
29.78,-3.81,-1.39,-3.82,-1.39,1.38,1.36,1.93,-2.43,-2.43,-2.43
30.08,-3.77,-1.34,-3.77,-1.34,1.34,1.32,1.94,-2.44,-2.44,-2.44
30.38,-3.74,-1.31,-3.74,-1.30,1.29,1.29,1.95,-2.45,-2.44,-2.44
30.68,-3.69,-1.25,-3.70,-1.25,1.25,1.26,1.96,-2.44,-2.45,-2.45
30.99,-3.66,-1.21,-3.66,-1.21,1.21,1.22,1.97,-2.45,-2.45,-2.46
31.30,-3.63,-1.18,-3.63,-1.17,1.18,1.19,1.97,-2.46,-2.46,-2.46
31.61,-3.60,-1.14,-3.61,-1.14,1.14,1.16,1.97,-2.46,-2.47,-2.47
31.93,-3.58,-1.11,-3.58,-1.11,1.11,1.14,1.97,-2.48,-2.48,-2.48
32.24,-3.56,-1.08,-3.56,-1.08,1.07,1.11,1.96,-2.49,-2.49,-2.48
32.57,-3.53,-1.05,-3.54,-1.05,1.04,1.08,1.96,-2.49,-2.49,-2.49
32.89,-3.51,-1.01,-3.51,-1.02,1.01,1.06,1.94,-2.50,-2.50,-2.50
33.22,-3.49,-0.99,-3.49,-0.98,0.99,1.04,1.93,-2.51,-2.51,-2.51
33.55,-3.47,-0.95,-3.48,-0.96,0.96,1.01,1.91,-2.51,-2.52,-2.52
33.89,-3.46,-0.94,-3.46,-0.93,0.93,0.99,1.90,-2.53,-2.52,-2.53
34.23,-3.44,-0.91,-3.44,-0.91,0.91,0.97,1.87,-2.53,-2.53,-2.54
34.57,-3.43,-0.90,-3.43,-0.89,0.90,0.95,1.85,-2.54,-2.54,-2.54
34.92,-3.42,-0.88,-3.42,-0.88,0.88,0.94,1.83,-2.54,-2.54,-2.55
35.27,-3.42,-0.87,-3.42,-0.87,0.87,0.92,1.80,-2.55,-2.55,-2.56
35.62,-3.41,-0.86,-3.42,-0.85,0.86,0.90,1.77,-2.56,-2.56,-2.56
35.97,-3.41,-0.85,-3.41,-0.85,0.84,0.88,1.74,-2.57,-2.57,-2.57
36.33,-3.40,-0.84,-3.41,-0.84,0.83,0.87,1.71,-2.57,-2.58,-2.57
36.70,-3.40,-0.83,-3.40,-0.82,0.81,0.85,1.68,-2.59,-2.59,-2.58
37.06,-3.38,-0.79,-3.38,-0.80,0.79,0.84,1.65,-2.59,-2.59,-2.59
37.43,-3.36,-0.77,-3.36,-0.77,0.77,0.83,1.62,-2.59,-2.59,-2.59
37.81,-3.34,-0.75,-3.34,-0.74,0.75,0.81,1.59,-2.60,-2.59,-2.60
38.19,-3.31,-0.72,-3.32,-0.72,0.72,0.80,1.55,-2.59,-2.60,-2.60
38.57,-3.29,-0.69,-3.29,-0.69,0.69,0.79,1.52,-2.60,-2.60,-2.61
38.95,-3.27,-0.66,-3.27,-0.66,0.66,0.78,1.49,-2.61,-2.61,-2.61
39.34,-3.24,-0.62,-3.25,-0.63,0.63,0.77,1.46,-2.61,-2.61,-2.62
39.74,-3.22,-0.61,-3.22,-0.60,0.60,0.76,1.42,-2.62,-2.62,-2.62
40.14,-3.20,-0.58,-3.20,-0.58,0.57,0.75,1.39,-2.63,-2.63,-2.63
40.54,-3.18,-0.56,-3.18,-0.55,0.55,0.74,1.36,-2.64,-2.63,-2.63
40.94,-3.15,-0.52,-3.16,-0.52,0.52,0.74,1.33,-2.63,-2.64,-2.64
41.35,-3.13,-0.50,-3.13,-0.49,0.49,0.73,1.30,-2.64,-2.64,-2.64
41.76,-3.11,-0.46,-3.11,-0.47,0.47,0.72,1.27,-2.65,-2.64,-2.65
42.18,-3.09,-0.45,-3.10,-0.45,0.44,0.71,1.24,-2.65,-2.65,-2.65
42.60,-3.08,-0.43,-3.08,-0.42,0.42,0.71,1.21,-2.66,-2.66,-2.66
43.03,-3.06,-0.41,-3.06,-0.40,0.40,0.70,1.18,-2.66,-2.66,-2.66
43.46,-3.05,-0.39,-3.05,-0.38,0.39,0.70,1.16,-2.67,-2.66,-2.67
43.90,-3.03,-0.37,-3.04,-0.37,0.38,0.69,1.13,-2.66,-2.66,-2.67
44.33,-3.03,-0.37,-3.04,-0.36,0.37,0.69,1.11,-2.66,-2.67,-2.67
44.78,-3.04,-0.37,-3.04,-0.36,0.37,0.69,1.08,-2.68,-2.67,-2.68
45.23,-3.04,-0.37,-3.04,-0.37,0.37,0.68,1.06,-2.68,-2.68,-2.68
45.68,-3.05,-0.38,-3.05,-0.37,0.37,0.68,1.03,-2.68,-2.68,-2.68
46.13,-3.05,-0.38,-3.06,-0.38,0.38,0.68,1.01,-2.68,-2.68,-2.68
46.60,-3.06,-0.39,-3.06,-0.38,0.38,0.67,0.99,-2.68,-2.68,-2.68
47.06,-3.07,-0.40,-3.07,-0.39,0.40,0.67,0.97,-2.68,-2.68,-2.68
47.53,-3.08,-0.41,-3.09,-0.41,0.41,0.67,0.95,-2.67,-2.68,-2.68
48.01,-3.10,-0.43,-3.10,-0.42,0.42,0.67,0.93,-2.68,-2.68,-2.68
48.49,-3.11,-0.44,-3.12,-0.44,0.44,0.67,0.91,-2.68,-2.68,-2.68
48.97,-3.13,-0.46,-3.13,-0.46,0.45,0.67,0.90,-2.68,-2.68,-2.68
49.46,-3.15,-0.48,-3.15,-0.47,0.47,0.67,0.88,-2.68,-2.68,-2.68
49.96,-3.17,-0.50,-3.17,-0.49,0.49,0.67,0.86,-2.68,-2.68,-2.68
50.46,-3.18,-0.51,-3.19,-0.51,0.51,0.67,0.85,-2.68,-2.68,-2.68
50.96,-3.20,-0.53,-3.20,-0.52,0.53,0.67,0.83,-2.68,-2.68,-2.68
51.47,-3.22,-0.55,-3.22,-0.54,0.55,0.67,0.82,-2.68,-2.68,-2.68
51.99,-3.24,-0.57,-3.25,-0.57,0.57,0.67,0.81,-2.68,-2.68,-2.68
52.51,-3.27,-0.59,-3.27,-0.59,0.59,0.67,0.80,-2.68,-2.68,-2.68
53.03,-3.29,-0.62,-3.29,-0.62,0.62,0.68,0.78,-2.68,-2.68,-2.68
53.56,-3.32,-0.65,-3.32,-0.65,0.65,0.68,0.77,-2.68,-2.68,-2.68
54.10,-3.35,-0.68,-3.35,-0.68,0.68,0.68,0.76,-2.67,-2.67,-2.68
54.64,-3.39,-0.72,-3.39,-0.71,0.72,0.69,0.75,-2.67,-2.67,-2.68
55.18,-3.43,-0.76,-3.43,-0.75,0.76,0.69,0.75,-2.68,-2.67,-2.68
55.74,-3.47,-0.79,-3.48,-0.80,0.80,0.69,0.74,-2.67,-2.68,-2.68
56.29,-3.52,-0.85,-3.52,-0.84,0.84,0.70,0.73,-2.68,-2.68,-2.68
56.86,-3.56,-0.88,-3.56,-0.89,0.88,0.70,0.72,-2.68,-2.68,-2.68
57.42,-3.60,-0.93,-3.60,-0.93,0.93,0.71,0.72,-2.68,-2.68,-2.68
58.00,-3.64,-0.98,-3.64,-0.97,0.97,0.71,0.71,-2.68,-2.67,-2.67
58.58,-3.67,-1.01,-3.67,-1.01,1.00,0.72,0.71,-2.67,-2.67,-2.67
59.16,-3.70,-1.04,-3.70,-1.04,1.04,0.72,0.71,-2.67,-2.67,-2.67
59.76,-3.73,-1.07,-3.73,-1.07,1.07,0.73,0.70,-2.66,-2.66,-2.67
60.35,-3.75,-1.10,-3.76,-1.10,1.10,0.73,0.70,-2.66,-2.66,-2.66
60.96,-3.78,-1.13,-3.78,-1.12,1.12,0.74,0.70,-2.66,-2.66,-2.66
61.57,-3.80,-1.15,-3.80,-1.15,1.14,0.75,0.70,-2.66,-2.66,-2.66
62.18,-3.82,-1.17,-3.82,-1.16,1.16,0.75,0.70,-2.66,-2.66,-2.66
62.80,-3.83,-1.18,-3.83,-1.18,1.18,0.76,0.70,-2.65,-2.66,-2.66
63.43,-3.84,-1.20,-3.84,-1.19,1.19,0.77,0.70,-2.65,-2.65,-2.65
64.07,-3.85,-1.21,-3.85,-1.20,1.20,0.78,0.70,-2.65,-2.65,-2.65
64.71,-3.85,-1.21,-3.85,-1.21,1.21,0.78,0.71,-2.65,-2.65,-2.65
65.35,-3.85,-1.21,-3.86,-1.21,1.21,0.79,0.71,-2.65,-2.65,-2.65
66.01,-3.86,-1.22,-3.86,-1.21,1.21,0.80,0.71,-2.66,-2.65,-2.65
66.67,-3.85,-1.21,-3.85,-1.21,1.20,0.81,0.72,-2.65,-2.65,-2.65
67.33,-3.84,-1.20,-3.85,-1.20,1.20,0.82,0.73,-2.64,-2.65,-2.65
68.01,-3.84,-1.20,-3.84,-1.19,1.20,0.83,0.73,-2.65,-2.64,-2.65
68.69,-3.83,-1.19,-3.84,-1.19,1.19,0.84,0.74,-2.64,-2.65,-2.65
69.37,-3.83,-1.19,-3.83,-1.19,1.19,0.85,0.75,-2.65,-2.65,-2.65
70.07,-3.83,-1.19,-3.83,-1.18,1.18,0.86,0.76,-2.65,-2.65,-2.65
70.77,-3.82,-1.18,-3.83,-1.18,1.18,0.87,0.77,-2.64,-2.65,-2.65
71.48,-3.82,-1.18,-3.82,-1.18,1.18,0.88,0.78,-2.65,-2.65,-2.65
72.19,-3.82,-1.18,-3.82,-1.17,1.17,0.89,0.79,-2.65,-2.65,-2.65
72.91,-3.82,-1.18,-3.82,-1.17,1.17,0.90,0.80,-2.65,-2.65,-2.65
73.64,-3.82,-1.17,-3.82,-1.17,1.17,0.92,0.81,-2.66,-2.66,-2.66
74.38,-3.82,-1.17,-3.82,-1.16,1.16,0.93,0.83,-2.66,-2.66,-2.66
75.12,-3.81,-1.16,-3.82,-1.15,1.15,0.94,0.84,-2.66,-2.66,-2.66
75.87,-3.81,-1.15,-3.81,-1.15,1.14,0.95,0.85,-2.67,-2.67,-2.67
76.63,-3.80,-1.14,-3.81,-1.14,1.14,0.97,0.87,-2.67,-2.67,-2.67
77.40,-3.80,-1.13,-3.80,-1.13,1.13,0.98,0.89,-2.68,-2.68,-2.68
78.17,-3.80,-1.12,-3.80,-1.11,1.12,0.99,0.90,-2.69,-2.68,-2.69
78.95,-3.80,-1.11,-3.80,-1.11,1.11,1.01,0.92,-2.70,-2.70,-2.70
79.74,-3.80,-1.10,-3.81,-1.10,1.10,1.02,0.94,-2.70,-2.71,-2.71
80.54,-3.81,-1.10,-3.81,-1.09,1.09,1.04,0.96,-2.72,-2.72,-2.72
81.35,-3.81,-1.09,-3.81,-1.08,1.08,1.05,0.98,-2.73,-2.73,-2.73
82.16,-3.81,-1.08,-3.81,-1.08,1.07,1.07,1.00,-2.74,-2.74,-2.74
82.98,-3.81,-1.07,-3.82,-1.07,1.07,1.08,1.02,-2.75,-2.75,-2.75
83.81,-3.82,-1.07,-3.82,-1.06,1.06,1.10,1.05,-2.76,-2.76,-2.76
84.65,-3.83,-1.06,-3.83,-1.06,1.06,1.12,1.07,-2.77,-2.77,-2.78
85.50,-3.84,-1.06,-3.84,-1.06,1.06,1.13,1.10,-2.78,-2.78,-2.79
86.35,-3.85,-1.07,-3.86,-1.07,1.07,1.15,1.12,-2.78,-2.79,-2.79
87.22,-3.88,-1.09,-3.88,-1.08,1.08,1.17,1.15,-2.80,-2.80,-2.80
88.09,-3.91,-1.11,-3.91,-1.10,1.10,1.19,1.18,-2.81,-2.81,-2.81
88.97,-3.94,-1.13,-3.94,-1.13,1.13,1.20,1.21,-2.81,-2.81,-2.82
89.86,-3.98,-1.16,-3.98,-1.16,1.16,1.22,1.24,-2.82,-2.82,-2.83
90.76,-4.02,-1.20,-4.02,-1.19,1.19,1.24,1.27,-2.83,-2.83,-2.83
91.66,-4.07,-1.24,-4.07,-1.23,1.23,1.26,1.30,-2.84,-2.84,-2.84
92.58,-4.11,-1.28,-4.12,-1.28,1.27,1.28,1.33,-2.84,-2.84,-2.84
93.51,-4.16,-1.32,-4.16,-1.31,1.31,1.30,1.36,-2.85,-2.85,-2.85
94.44,-4.20,-1.36,-4.20,-1.35,1.36,1.32,1.40,-2.85,-2.85,-2.85
95.39,-4.24,-1.39,-4.25,-1.39,1.40,1.34,1.43,-2.85,-2.85,-2.86
96.34,-4.29,-1.44,-4.29,-1.43,1.43,1.36,1.47,-2.86,-2.86,-2.86
97.30,-4.34,-1.48,-4.34,-1.47,1.47,1.38,1.50,-2.87,-2.87,-2.87
98.28,-4.38,-1.52,-4.38,-1.51,1.50,1.40,1.54,-2.88,-2.88,-2.87
99.26,-4.41,-1.54,-4.42,-1.54,1.53,1.42,1.57,-2.89,-2.89,-2.88
100.25,-4.44,-1.56,-4.44,-1.56,1.55,1.44,1.61,-2.89,-2.89,-2.89
101.25,-4.47,-1.58,-4.47,-1.57,1.57,1.46,1.65,-2.90,-2.90,-2.90
102.27,-4.49,-1.59,-4.50,-1.59,1.59,1.49,1.69,-2.90,-2.90,-2.91
103.29,-4.52,-1.61,-4.52,-1.61,1.61,1.51,1.73,-2.91,-2.91,-2.92
104.32,-4.55,-1.63,-4.55,-1.62,1.63,1.53,1.77,-2.92,-2.92,-2.93
105.37,-4.58,-1.65,-4.58,-1.65,1.65,1.56,1.80,-2.94,-2.94,-2.94
106.42,-4.61,-1.67,-4.61,-1.66,1.66,1.58,1.84,-2.95,-2.95,-2.95
107.48,-4.64,-1.69,-4.64,-1.68,1.68,1.60,1.88,-2.96,-2.96,-2.96
108.56,-4.66,-1.70,-4.67,-1.70,1.70,1.63,1.92,-2.97,-2.97,-2.97
109.64,-4.69,-1.72,-4.69,-1.71,1.71,1.65,1.95,-2.98,-2.98,-2.98
110.74,-4.71,-1.73,-4.71,-1.73,1.72,1.68,1.99,-2.99,-2.99,-2.99
111.85,-4.73,-1.74,-4.74,-1.74,1.74,1.70,2.03,-3.00,-3.00,-3.00
112.97,-4.76,-1.76,-4.76,-1.75,1.75,1.73,2.06,-3.02,-3.01,-3.01
114.10,-4.78,-1.77,-4.78,-1.76,1.76,1.75,2.09,-3.02,-3.02,-3.02
115.24,-4.79,-1.77,-4.80,-1.77,1.77,1.78,2.12,-3.02,-3.03,-3.03
116.39,-4.81,-1.78,-4.82,-1.78,1.79,1.80,2.15,-3.02,-3.03,-3.04
117.55,-4.85,-1.81,-4.85,-1.80,1.81,1.83,2.18,-3.05,-3.04,-3.05
118.73,-4.88,-1.83,-4.88,-1.83,1.83,1.86,2.21,-3.05,-3.05,-3.06
119.92,-4.91,-1.86,-4.92,-1.86,1.86,1.88,2.23,-3.06,-3.06,-3.06
121.12,-4.95,-1.89,-4.95,-1.89,1.89,1.91,2.25,-3.07,-3.07,-3.07
122.33,-4.99,-1.93,-4.99,-1.92,1.92,1.94,2.27,-3.07,-3.07,-3.07
123.55,-5.03,-1.96,-5.03,-1.96,1.96,1.97,2.29,-3.08,-3.08,-3.08
124.79,-5.07,-2.00,-5.07,-1.99,1.99,1.99,2.30,-3.08,-3.08,-3.08
126.03,-5.11,-2.03,-5.11,-2.03,2.03,2.02,2.32,-3.09,-3.09,-3.09
127.29,-5.15,-2.07,-5.15,-2.06,2.06,2.05,2.33,-3.09,-3.09,-3.09
128.57,-5.19,-2.11,-5.19,-2.10,2.10,2.08,2.33,-3.10,-3.09,-3.09
129.85,-5.22,-2.13,-5.23,-2.13,2.13,2.10,2.34,-3.09,-3.09,-3.10
131.15,-5.26,-2.17,-5.26,-2.16,2.17,2.13,2.34,-3.10,-3.09,-3.10
132.46,-5.29,-2.20,-5.29,-2.19,2.20,2.16,2.35,-3.09,-3.09,-3.10
133.79,-5.32,-2.23,-5.33,-2.23,2.23,2.19,2.35,-3.09,-3.10,-3.10
135.12,-5.35,-2.26,-5.35,-2.26,2.25,2.22,2.34,-3.10,-3.10,-3.10
136.48,-5.38,-2.29,-5.38,-2.29,2.28,2.25,2.34,-3.10,-3.10,-3.10
137.84,-5.40,-2.32,-5.40,-2.31,2.30,2.27,2.34,-3.10,-3.10,-3.09
139.22,-5.41,-2.33,-5.41,-2.33,2.32,2.30,2.33,-3.10,-3.10,-3.09
140.61,-5.42,-2.34,-5.42,-2.34,2.34,2.33,2.33,-3.09,-3.09,-3.09
142.02,-5.42,-2.35,-5.43,-2.35,2.35,2.36,2.32,-3.07,-3.07,-3.08
143.44,-5.43,-2.37,-5.43,-2.36,2.37,2.39,2.31,-3.06,-3.06,-3.07
144.87,-5.44,-2.38,-5.45,-2.38,2.39,2.42,2.30,-3.06,-3.06,-3.07
146.32,-5.46,-2.41,-5.46,-2.40,2.41,2.45,2.30,-3.05,-3.05,-3.06
147.78,-5.48,-2.44,-5.48,-2.43,2.43,2.47,2.29,-3.05,-3.05,-3.05
149.26,-5.50,-2.46,-5.51,-2.46,2.46,2.50,2.28,-3.04,-3.05,-3.05
150.75,-5.53,-2.50,-5.53,-2.49,2.49,2.53,2.28,-3.04,-3.04,-3.04
152.26,-5.55,-2.53,-5.55,-2.52,2.52,2.56,2.27,-3.03,-3.03,-3.03
153.78,-5.57,-2.56,-5.57,-2.56,2.55,2.58,2.26,-3.02,-3.02,-3.02
155.32,-5.59,-2.59,-5.59,-2.59,2.59,2.61,2.26,-3.01,-3.01,-3.01
156.88,-5.61,-2.62,-5.62,-2.62,2.62,2.64,2.26,-2.99,-3.00,-3.00
158.44,-5.64,-2.66,-5.64,-2.65,2.65,2.66,2.25,-2.99,-2.99,-2.99
160.03,-5.66,-2.69,-5.67,-2.69,2.69,2.69,2.25,-2.97,-2.98,-2.98
161.63,-5.69,-2.73,-5.69,-2.72,2.73,2.71,2.26,-2.97,-2.97,-2.97
163.24,-5.71,-2.76,-5.71,-2.76,2.76,2.74,2.26,-2.95,-2.95,-2.96
164.88,-5.74,-2.80,-5.74,-2.79,2.80,2.76,2.26,-2.94,-2.94,-2.95
166.53,-5.76,-2.83,-5.77,-2.83,2.83,2.79,2.27,-2.93,-2.93,-2.94
168.19,-5.79,-2.87,-5.79,-2.87,2.87,2.81,2.27,-2.93,-2.93,-2.93
169.87,-5.82,-2.91,-5.82,-2.90,2.89,2.83,2.28,-2.93,-2.93,-2.92
171.57,-5.83,-2.92,-5.83,-2.92,2.91,2.85,2.29,-2.92,-2.92,-2.92
173.29,-5.84,-2.94,-5.84,-2.93,2.93,2.87,2.31,-2.92,-2.92,-2.91
175.02,-5.83,-2.94,-5.84,-2.94,2.93,2.89,2.32,-2.90,-2.91,-2.90
176.77,-5.83,-2.94,-5.83,-2.93,2.92,2.91,2.34,-2.91,-2.90,-2.90
178.54,-5.81,-2.93,-5.81,-2.92,2.91,2.93,2.36,-2.90,-2.90,-2.89
180.32,-5.78,-2.90,-5.79,-2.90,2.90,2.95,2.38,-2.89,-2.89,-2.89
182.13,-5.76,-2.88,-5.76,-2.88,2.88,2.97,2.40,-2.89,-2.88,-2.89
183.95,-5.74,-2.86,-5.74,-2.85,2.86,2.98,2.42,-2.88,-2.88,-2.89
185.79,-5.71,-2.83,-5.72,-2.83,2.84,3.00,2.45,-2.87,-2.88,-2.89
187.65,-5.70,-2.82,-5.71,-2.82,2.83,3.01,2.48,-2.87,-2.88,-2.89
189.52,-5.71,-2.83,-5.70,-2.82,2.82,3.02,2.51,-2.89,-2.88,-2.89
191.42,-5.70,-2.82,-5.71,-2.82,2.82,3.03,2.54,-2.88,-2.89,-2.89
193.33,-5.71,-2.83,-5.71,-2.83,2.83,3.04,2.57,-2.89,-2.89,-2.89
195.27,-5.72,-2.84,-5.72,-2.83,2.83,3.05,2.60,-2.89,-2.89,-2.89
197.22,-5.74,-2.85,-5.74,-2.84,2.84,3.06,2.64,-2.90,-2.89,-2.90
199.19,-5.75,-2.86,-5.76,-2.86,2.86,3.07,2.67,-2.90,-2.90,-2.90
201.18,-5.77,-2.87,-5.77,-2.87,2.87,3.07,2.71,-2.91,-2.91,-2.91
203.19,-5.79,-2.89,-5.79,-2.88,2.88,3.07,2.74,-2.92,-2.91,-2.91
205.23,-5.80,-2.89,-5.80,-2.89,2.88,3.08,2.78,-2.92,-2.92,-2.92
207.28,-5.81,-2.90,-5.81,-2.89,2.89,3.08,2.82,-2.92,-2.92,-2.92
209.35,-5.82,-2.90,-5.82,-2.89,2.89,3.07,2.86,-2.93,-2.93,-2.93
211.44,-5.82,-2.89,-5.83,-2.89,2.89,3.07,2.89,-2.93,-2.94,-2.94
213.56,-5.83,-2.90,-5.83,-2.89,2.89,3.07,2.93,-2.94,-2.94,-2.94
215.69,-5.83,-2.89,-5.83,-2.89,2.88,3.06,2.96,-2.95,-2.95,-2.95
217.85,-5.83,-2.89,-5.83,-2.88,2.88,3.05,3.00,-2.95,-2.95,-2.95
220.03,-5.82,-2.87,-5.83,-2.87,2.87,3.04,3.03,-2.95,-2.95,-2.96
222.23,-5.82,-2.87,-5.82,-2.87,2.87,3.03,3.06,-2.95,-2.96,-2.96
224.45,-5.82,-2.87,-5.82,-2.86,2.87,3.01,3.09,-2.96,-2.95,-2.96
226.70,-5.82,-2.87,-5.82,-2.86,2.87,3.00,3.11,-2.96,-2.96,-2.96
228.96,-5.81,-2.86,-5.82,-2.86,2.87,2.98,3.13,-2.95,-2.95,-2.96
231.25,-5.82,-2.87,-5.82,-2.87,2.87,2.96,3.15,-2.96,-2.95,-2.96
233.57,-5.82,-2.88,-5.82,-2.87,2.87,2.94,3.17,-2.95,-2.95,-2.95
235.90,-5.83,-2.89,-5.83,-2.88,2.87,2.92,3.18,-2.96,-2.95,-2.95
238.26,-5.82,-2.89,-5.82,-2.89,2.88,2.89,3.18,-2.94,-2.94,-2.94
240.64,-5.82,-2.90,-5.82,-2.89,2.89,2.86,3.18,-2.94,-2.93,-2.93
243.05,-5.81,-2.89,-5.82,-2.89,2.89,2.83,3.18,-2.92,-2.92,-2.93
245.48,-5.82,-2.91,-5.82,-2.91,2.91,2.80,3.17,-2.92,-2.92,-2.92
247.93,-5.83,-2.93,-5.83,-2.92,2.92,2.77,3.15,-2.91,-2.90,-2.91
250.41,-5.83,-2.94,-5.84,-2.94,2.95,2.73,3.13,-2.89,-2.89,-2.90
252.92,-5.85,-2.96,-5.86,-2.96,2.98,2.69,3.10,-2.87,-2.88,-2.90
255.45,-5.89,-3.01,-5.89,-3.00,3.02,2.65,3.07,-2.87,-2.87,-2.89
258.00,-5.92,-3.05,-5.93,-3.04,3.07,2.61,3.03,-2.86,-2.86,-2.88
260.58,-5.96,-3.09,-5.97,-3.09,3.11,2.57,2.99,-2.85,-2.86,-2.88
263.19,-6.01,-3.14,-6.01,-3.14,3.15,2.52,2.94,-2.86,-2.86,-2.88
265.82,-6.05,-3.19,-6.05,-3.18,3.18,2.48,2.89,-2.88,-2.87,-2.87
268.48,-6.07,-3.21,-6.07,-3.20,3.17,2.43,2.83,-2.90,-2.90,-2.87
271.16,-6.04,-3.18,-6.05,-3.19,3.14,2.37,2.77,-2.91,-2.91,-2.87
273.87,-5.99,-3.13,-5.98,-3.12,3.06,2.32,2.70,-2.93,-2.92,-2.87
276.61,-5.87,-3.01,-5.86,-3.00,2.95,2.26,2.63,-2.92,-2.91,-2.86
279.38,-5.68,-2.83,-5.69,-2.84,2.80,2.21,2.56,-2.88,-2.89,-2.86
282.17,-5.49,-2.63,-5.49,-2.63,2.62,2.15,2.48,-2.87,-2.86,-2.86
284.99,-5.26,-2.41,-5.26,-2.41,2.43,2.09,2.40,-2.84,-2.84,-2.85
287.84,-5.04,-2.19,-5.04,-2.20,2.22,2.02,2.31,-2.82,-2.82,-2.85
290.72,-4.82,-1.99,-4.83,-1.99,2.02,1.96,2.23,-2.80,-2.80,-2.84
293.63,-4.63,-1.80,-4.64,-1.80,1.84,1.89,2.14,-2.79,-2.80,-2.84
296.57,-4.47,-1.65,-4.48,-1.64,1.67,1.83,2.05,-2.80,-2.80,-2.83
299.53,-4.34,-1.52,-4.34,-1.52,1.53,1.76,1.96,-2.81,-2.81,-2.83
302.53,-4.22,-1.41,-4.22,-1.41,1.41,1.69,1.87,-2.81,-2.81,-2.82
305.55,-4.12,-1.32,-4.12,-1.31,1.31,1.61,1.78,-2.81,-2.81,-2.81
308.61,-4.02,-1.23,-4.02,-1.23,1.23,1.54,1.68,-2.80,-2.80,-2.80
311.69,-3.94,-1.16,-3.94,-1.15,1.15,1.46,1.59,-2.79,-2.79,-2.79
314.81,-3.86,-1.09,-3.87,-1.09,1.09,1.39,1.49,-2.78,-2.78,-2.78
317.96,-3.80,-1.04,-3.80,-1.03,1.03,1.31,1.40,-2.78,-2.77,-2.77
321.14,-3.73,-0.98,-3.73,-0.97,0.97,1.23,1.30,-2.77,-2.77,-2.76
324.35,-3.66,-0.92,-3.66,-0.92,0.91,1.15,1.21,-2.76,-2.76,-2.75
327.59,-3.59,-0.86,-3.59,-0.85,0.85,1.07,1.11,-2.75,-2.75,-2.74
330.87,-3.52,-0.79,-3.52,-0.79,0.79,0.98,1.02,-2.74,-2.74,-2.74
334.18,-3.45,-0.73,-3.45,-0.72,0.72,0.90,0.92,-2.73,-2.73,-2.73
337.52,-3.38,-0.66,-3.38,-0.66,0.66,0.81,0.83,-2.72,-2.72,-2.73
340.90,-3.31,-0.60,-3.31,-0.59,0.59,0.73,0.73,-2.72,-2.72,-2.72
344.30,-3.24,-0.53,-3.24,-0.52,0.52,0.64,0.64,-2.72,-2.72,-2.72
347.75,-3.17,-0.46,-3.17,-0.46,0.46,0.55,0.54,-2.72,-2.72,-2.72
351.23,-3.10,-0.39,-3.10,-0.39,0.39,0.47,0.45,-2.72,-2.72,-2.72
354.74,-3.03,-0.32,-3.04,-0.31,0.32,0.38,0.36,-2.72,-2.72,-2.72
358.28,-2.97,-0.25,-2.97,-0.24,0.24,0.29,0.26,-2.73,-2.72,-2.73
361.87,-2.89,-0.17,-2.90,-0.17,0.17,0.20,0.17,-2.72,-2.73,-2.73
365.49,-2.82,-0.10,-2.82,-0.09,0.09,0.11,0.08,-2.73,-2.73,-2.73
369.14,-2.74,-0.02,-2.74,-0.01,0.01,0.02,-0.01,-2.73,-2.73,-2.73
372.83,-2.66,0.06,-2.66,0.07,-0.07,-0.07,-0.11,-2.73,-2.73,-2.73
376.56,-2.56,0.15,-2.57,0.15,-0.15,-0.16,-0.20,-2.71,-2.72,-2.72
380.33,-2.48,0.23,-2.48,0.24,-0.23,-0.25,-0.29,-2.72,-2.72,-2.72
384.13,-2.39,0.32,-2.39,0.32,-0.32,-0.34,-0.38,-2.71,-2.71,-2.72
387.97,-2.30,0.40,-2.30,0.41,-0.41,-0.43,-0.47,-2.71,-2.71,-2.71
391.85,-2.20,0.50,-2.21,0.50,-0.50,-0.52,-0.56,-2.70,-2.71,-2.71
395.77,-2.11,0.58,-2.11,0.59,-0.59,-0.60,-0.65,-2.71,-2.70,-2.70
399.73,-2.00,0.68,-2.01,0.69,-0.69,-0.69,-0.74,-2.69,-2.69,-2.69
403.72,-1.90,0.78,-1.91,0.78,-0.78,-0.78,-0.82,-2.68,-2.69,-2.69
407.76,-1.80,0.87,-1.80,0.87,-0.88,-0.86,-0.91,-2.68,-2.68,-2.68
411.84,-1.70,0.96,-1.70,0.97,-0.97,-0.94,-1.00,-2.67,-2.67,-2.67
415.96,-1.59,1.06,-1.60,1.07,-1.07,-1.03,-1.08,-2.66,-2.66,-2.66
420.12,-1.49,1.16,-1.49,1.16,-1.16,-1.11,-1.17,-2.65,-2.65,-2.66
424.32,-1.39,1.25,-1.39,1.25,-1.25,-1.18,-1.25,-2.64,-2.64,-2.65
428.56,-1.30,1.33,-1.30,1.34,-1.34,-1.26,-1.33,-2.64,-2.64,-2.64
432.85,-1.20,1.42,-1.20,1.42,-1.42,-1.34,-1.41,-2.63,-2.63,-2.63
437.18,-1.11,1.50,-1.11,1.50,-1.50,-1.41,-1.48,-2.62,-2.62,-2.62
441.55,-1.02,1.58,-1.02,1.58,-1.58,-1.48,-1.56,-2.60,-2.61,-2.61
