frequency,raw,error,smoothed,error_smoothed,equalization,parametric_eq,fixed_band_eq,equalized_raw,equalized_smoothed,target
20.00,-10.75,-10.83,-10.75,-10.83,6.00,5.93,2.77,-4.75,-4.75,0.08
20.20,-10.66,-10.75,-10.66,-10.75,6.00,5.94,2.85,-4.66,-4.66,0.09
20.40,-10.57,-10.67,-10.58,-10.67,6.00,5.95,2.93,-4.57,-4.58,0.10
20.61,-10.49,-10.59,-10.49,-10.59,6.00,5.96,3.01,-4.49,-4.49,0.10
20.81,-10.40,-10.51,-10.40,-10.51,6.00,5.97,3.10,-4.40,-4.40,0.11
21.02,-10.31,-10.42,-10.31,-10.42,6.00,5.98,3.18,-4.31,-4.31,0.11
21.23,-10.22,-10.34,-10.22,-10.33,6.00,5.99,3.27,-4.22,-4.22,0.12
21.44,-10.12,-10.24,-10.13,-10.24,6.00,6.00,3.37,-4.12,-4.13,0.12
21.66,-10.03,-10.15,-10.03,-10.15,6.00,6.01,3.46,-4.03,-4.03,0.12
21.87,-9.93,-10.05,-9.93,-10.06,6.00,6.01,3.56,-3.93,-3.93,0.12
22.09,-9.84,-9.97,-9.84,-9.96,6.00,6.02,3.66,-3.84,-3.84,0.13
22.31,-9.74,-9.87,-9.74,-9.86,6.00,6.03,3.76,-3.74,-3.74,0.13
22.54,-9.64,-9.76,-9.64,-9.76,6.00,6.03,3.87,-3.64,-3.64,0.12
22.76,-9.54,-9.65,-9.54,-9.65,6.00,6.04,3.98,-3.54,-3.54,0.11
22.99,-9.44,-9.55,-9.45,-9.56,6.00,6.04,4.09,-3.44,-3.45,0.11
23.22,-9.37,-9.48,-9.37,-9.47,6.00,6.05,4.20,-3.37,-3.37,0.11
23.45,-9.30,-9.40,-9.30,-9.40,6.00,6.05,4.32,-3.30,-3.30,0.10
23.69,-9.23,-9.33,-9.23,-9.33,6.00,6.06,4.44,-3.23,-3.23,0.10
23.92,-9.15,-9.25,-9.16,-9.25,6.00,6.06,4.56,-3.15,-3.16,0.10
24.16,-9.08,-9.18,-9.08,-9.18,6.00,6.06,4.68,-3.08,-3.08,0.10
24.40,-9.00,-9.10,-9.00,-9.09,6.00,6.07,4.81,-3.00,-3.00,0.10
24.65,-8.91,-9.01,-8.92,-9.01,6.00,6.07,4.94,-2.91,-2.92,0.10
24.89,-8.83,-8.93,-8.84,-8.93,6.00,6.07,5.07,-2.83,-2.84,0.10
25.14,-8.77,-8.87,-8.77,-8.86,6.00,6.07,5.20,-2.77,-2.77,0.10
25.39,-8.70,-8.79,-8.71,-8.80,6.00,6.07,5.33,-2.70,-2.71,0.09
25.65,-8.64,-8.73,-8.64,-8.73,6.00,6.07,5.47,-2.64,-2.64,0.09
25.91,-8.58,-8.67,-8.57,-8.66,6.00,6.07,5.60,-2.58,-2.57,0.09
26.16,-8.49,-8.58,-8.49,-8.58,6.00,6.07,5.74,-2.49,-2.49,0.09
26.43,-8.39,-8.48,-8.39,-8.48,6.00,6.07,5.87,-2.39,-2.39,0.09
26.69,-8.28,-8.37,-8.29,-8.37,6.00,6.07,6.00,-2.28,-2.29,0.09
26.96,-8.18,-8.27,-8.19,-8.28,6.00,6.07,6.13,-2.18,-2.19,0.09
27.23,-8.10,-8.19,-8.10,-8.19,6.00,6.06,6.26,-2.10,-2.10,0.09
27.50,-8.02,-8.11,-8.02,-8.11,6.00,6.06,6.39,-2.02,-2.02,0.09
27.77,-7.94,-8.03,-7.94,-8.03,6.00,6.06,6.51,-1.94,-1.94,0.09
28.05,-7.86,-7.95,-7.86,-7.94,6.00,6.05,6.63,-1.86,-1.86,0.09
28.33,-7.77,-7.86,-7.77,-7.86,6.00,6.05,6.74,-1.77,-1.77,0.09
28.62,-7.68,-7.77,-7.68,-7.77,6.00,6.04,6.85,-1.68,-1.68,0.09
28.90,-7.59,-7.69,-7.60,-7.70,6.00,6.04,6.94,-1.59,-1.60,0.10
29.19,-7.54,-7.64,-7.55,-7.64,6.00,6.03,7.04,-1.54,-1.55,0.10
29.48,-7.51,-7.61,-7.51,-7.61,6.00,6.02,7.12,-1.51,-1.51,0.10
29.78,-7.48,-7.59,-7.48,-7.58,6.00,6.02,7.19,-1.48,-1.48,0.11
30.08,-7.44,-7.55,-7.43,-7.54,6.00,6.01,7.26,-1.44,-1.43,0.11
30.38,-7.36,-7.47,-7.36,-7.47,6.00,6.00,7.31,-1.36,-1.36,0.11
30.68,-7.28,-7.39,-7.29,-7.39,6.00,5.99,7.35,-1.28,-1.29,0.11
30.99,-7.20,-7.31,-7.21,-7.31,6.00,5.98,7.38,-1.20,-1.21,0.11
31.30,-7.14,-7.25,-7.14,-7.25,6.00,5.97,7.40,-1.14,-1.14,0.11
31.61,-7.07,-7.18,-7.08,-7.18,6.00,5.97,7.41,-1.07,-1.08,0.11
31.93,-7.01,-7.12,-7.00,-7.11,6.00,5.96,7.41,-1.01,-1.00,0.11
32.24,-6.92,-7.02,-6.92,-7.02,6.00,5.94,7.39,-0.92,-0.92,0.10
32.57,-6.83,-6.93,-6.83,-6.93,6.00,5.93,7.37,-0.83,-0.83,0.10
32.89,-6.74,-6.84,-6.74,-6.84,6.00,5.92,7.33,-0.74,-0.74,0.10
33.22,-6.66,-6.75,-6.66,-6.75,6.00,5.91,7.29,-0.66,-0.66,0.09
33.55,-6.59,-6.68,-6.59,-6.67,6.00,5.90,7.24,-0.59,-0.59,0.09
33.89,-6.52,-6.60,-6.52,-6.60,6.00,5.88,7.17,-0.52,-0.52,0.08
34.23,-6.45,-6.53,-6.45,-6.53,6.00,5.87,7.11,-0.45,-0.45,0.08
34.57,-6.39,-6.47,-6.39,-6.46,6.00,5.86,7.03,-0.39,-0.39,0.08
34.92,-6.32,-6.40,-6.33,-6.40,6.00,5.84,6.95,-0.32,-0.33,0.08
35.27,-6.27,-6.35,-6.27,-6.35,6.00,5.83,6.87,-0.27,-0.27,0.08
35.62,-6.23,-6.31,-6.23,-6.31,6.00,5.81,6.78,-0.23,-0.23,0.08
35.97,-6.19,-6.27,-6.20,-6.27,6.01,5.80,6.68,-0.19,-0.19,0.08
36.33,-6.16,-6.24,-6.17,-6.24,6.01,5.78,6.59,-0.15,-0.16,0.08
36.70,-6.13,-6.21,-6.13,-6.20,6.01,5.77,6.50,-0.13,-0.12,0.08
37.06,-6.09,-6.17,-6.08,-6.16,6.00,5.75,6.40,-0.09,-0.08,0.08
37.43,-6.01,-6.09,-6.02,-6.10,5.99,5.73,6.30,-0.02,-0.02,0.08
37.81,-5.94,-6.03,-5.95,-6.03,5.98,5.72,6.21,0.04,0.03,0.09
38.19,-5.88,-5.97,-5.88,-5.97,5.96,5.70,6.11,0.08,0.08,0.09
38.57,-5.83,-5.92,-5.83,-5.92,5.93,5.68,6.02,0.10,0.10,0.09
38.95,-5.79,-5.89,-5.79,-5.89,5.89,5.66,5.93,0.10,0.10,0.10
39.34,-5.75,-5.85,-5.76,-5.85,5.85,5.64,5.84,0.09,0.09,0.10
39.74,-5.72,-5.82,-5.72,-5.82,5.80,5.62,5.75,0.07,0.08,0.10
40.14,-5.67,-5.77,-5.66,-5.75,5.75,5.60,5.67,0.08,0.09,0.10
40.54,-5.59,-5.69,-5.59,-5.69,5.70,5.58,5.58,0.11,0.11,0.10
40.94,-5.51,-5.61,-5.54,-5.63,5.66,5.56,5.51,0.15,0.13,0.10
41.35,-5.50,-5.60,-5.50,-5.60,5.62,5.54,5.43,0.12,0.12,0.10
41.76,-5.50,-5.59,-5.49,-5.58,5.58,5.52,5.36,0.08,0.09,0.09
42.18,-5.48,-5.57,-5.48,-5.56,5.54,5.50,5.29,0.06,0.07,0.09
42.60,-5.44,-5.53,-5.44,-5.53,5.51,5.47,5.23,0.06,0.06,0.09
43.03,-5.40,-5.49,-5.40,-5.49,5.47,5.45,5.17,0.07,0.07,0.09
43.46,-5.35,-5.44,-5.36,-5.44,5.44,5.43,5.11,0.09,0.08,0.09
43.90,-5.31,-5.39,-5.31,-5.39,5.40,5.41,5.06,0.09,0.09,0.08
44.33,-5.27,-5.35,-5.27,-5.35,5.37,5.38,5.01,0.10,0.10,0.08
44.78,-5.23,-5.31,-5.24,-5.31,5.33,5.36,4.97,0.09,0.09,0.08
45.23,-5.21,-5.29,-5.22,-5.30,5.29,5.33,4.93,0.07,0.07,0.08
45.68,-5.20,-5.28,-5.20,-5.27,5.25,5.31,4.89,0.05,0.06,0.08
46.13,-5.17,-5.26,-5.16,-5.24,5.22,5.28,4.86,0.05,0.07,0.09
46.60,-5.10,-5.19,-5.11,-5.20,5.20,5.26,4.83,0.10,0.09,0.09
47.06,-5.04,-5.14,-5.05,-5.15,5.17,5.23,4.80,0.13,0.12,0.10
47.53,-5.01,-5.12,-5.01,-5.12,5.15,5.21,4.78,0.14,0.14,0.11
48.01,-4.99,-5.11,-5.00,-5.12,5.12,5.18,4.76,0.13,0.12,0.12
48.49,-4.99,-5.12,-5.00,-5.12,5.09,5.15,4.74,0.10,0.10,0.13
48.97,-4.99,-5.13,-4.96,-5.09,5.06,5.13,4.73,0.07,0.11,0.14
49.46,-4.90,-5.05,-4.90,-5.05,5.04,5.10,4.72,0.14,0.14,0.15
49.96,-4.80,-4.97,-4.84,-5.01,5.02,5.07,4.71,0.22,0.18,0.17
50.46,-4.79,-4.97,-4.79,-4.97,5.00,5.05,4.71,0.21,0.21,0.18
50.96,-4.79,-4.99,-4.77,-4.96,4.98,5.02,4.70,0.19,0.21,0.20
51.47,-4.74,-4.95,-4.74,-4.95,4.95,4.99,4.70,0.21,0.21,0.21
51.99,-4.69,-4.91,-4.72,-4.93,4.91,4.96,4.70,0.22,0.20,0.22
52.51,-4.68,-4.91,-4.68,-4.91,4.88,4.93,4.71,0.20,0.20,0.23
53.03,-4.67,-4.91,-4.64,-4.88,4.85,4.90,4.71,0.18,0.21,0.24
53.56,-4.57,-4.82,-4.58,-4.83,4.82,4.87,4.71,0.25,0.24,0.25
54.10,-4.48,-4.75,-4.50,-4.76,4.79,4.85,4.72,0.30,0.29,0.27
54.64,-4.43,-4.71,-4.43,-4.71,4.75,4.82,4.72,0.32,0.31,0.28
55.18,-4.39,-4.68,-4.40,-4.69,4.71,4.79,4.73,0.31,0.30,0.29
55.74,-4.39,-4.68,-4.38,-4.67,4.67,4.76,4.74,0.27,0.28,0.29
56.29,-4.36,-4.66,-4.35,-4.65,4.62,4.73,4.74,0.26,0.27,0.30
56.86,-4.30,-4.61,-4.31,-4.61,4.59,4.69,4.74,0.28,0.28,0.31
57.42,-4.25,-4.56,-4.25,-4.56,4.55,4.66,4.74,0.30,0.30,0.31
58.00,-4.19,-4.50,-4.19,-4.49,4.51,4.63,4.74,0.32,0.33,0.31
58.58,-4.13,-4.44,-4.14,-4.45,4.47,4.60,4.74,0.34,0.33,0.31
59.16,-4.09,-4.40,-4.11,-4.41,4.42,4.57,4.73,0.33,0.31,0.31
59.76,-4.09,-4.40,-4.08,-4.38,4.37,4.54,4.72,0.28,0.29,0.31
60.35,-4.05,-4.35,-4.04,-4.34,4.32,4.51,4.71,0.27,0.28,0.30
60.96,-3.99,-4.28,-3.99,-4.28,4.27,4.48,4.70,0.28,0.28,0.29
61.57,-3.93,-4.21,-3.94,-4.21,4.23,4.44,4.68,0.29,0.29,0.28
62.18,-3.89,-4.15,-3.90,-4.16,4.18,4.41,4.66,0.29,0.28,0.26
62.80,-3.89,-4.13,-3.89,-4.13,4.13,4.38,4.63,0.24,0.23,0.24
63.43,-3.89,-4.10,-3.89,-4.09,4.08,4.35,4.60,0.18,0.19,0.21
64.07,-3.88,-4.07,-3.86,-4.05,4.03,4.32,4.57,0.14,0.16,0.19
64.71,-3.82,-3.98,-3.83,-3.99,3.98,4.28,4.53,0.16,0.15,0.16
65.35,-3.79,-3.93,-3.80,-3.94,3.95,4.25,4.49,0.15,0.14,0.14
66.01,-3.79,-3.91,-3.79,-3.90,3.92,4.22,4.45,0.13,0.13,0.12
66.67,-3.79,-3.89,-3.78,-3.88,3.90,4.19,4.40,0.11,0.12,0.10
67.33,-3.79,-3.88,-3.79,-3.87,3.90,4.15,4.35,0.10,0.10,0.09
68.01,-3.79,-3.86,-3.81,-3.88,3.90,4.12,4.30,0.11,0.09,0.07
68.69,-3.85,-3.91,-3.85,-3.91,3.91,4.09,4.25,0.06,0.06,0.06
69.37,-3.90,-3.95,-3.90,-3.95,3.94,4.05,4.19,0.04,0.03,0.05
70.07,-3.96,-4.00,-3.95,-3.99,3.97,4.02,4.13,0.00,0.02,0.04
70.77,-3.98,-4.01,-3.98,-4.01,4.00,3.99,4.07,0.01,0.02,0.03
71.48,-3.99,-4.02,-4.00,-4.03,4.02,3.96,4.01,0.03,0.02,0.03
72.19,-4.01,-4.03,-4.03,-4.05,4.05,3.92,3.95,0.04,0.02,0.02
72.91,-4.08,-4.09,-4.06,-4.07,4.07,3.89,3.89,-0.01,0.01,0.01
73.64,-4.09,-4.09,-4.09,-4.08,4.09,3.86,3.83,-0.01,0.00,-0.00
74.38,-4.09,-4.08,-4.10,-4.09,4.10,3.82,3.76,0.01,-0.00,-0.01
75.12,-4.10,-4.08,-4.11,-4.09,4.10,3.79,3.70,-0.00,-0.01,-0.02
75.87,-4.13,-4.09,-4.14,-4.10,4.09,3.76,3.64,-0.04,-0.05,-0.04
76.63,-4.17,-4.12,-4.15,-4.09,4.07,3.72,3.58,-0.10,-0.08,-0.05
77.40,-4.15,-4.08,-4.15,-4.08,4.04,3.69,3.52,-0.11,-0.11,-0.07
78.17,-4.09,-4.01,-4.12,-4.03,4.00,3.66,3.46,-0.09,-0.12,-0.08
78.95,-4.09,-3.99,-4.06,-3.96,3.96,3.62,3.41,-0.13,-0.10,-0.10
79.74,-3.99,-3.88,-4.00,-3.88,3.91,3.59,3.35,-0.08,-0.09,-0.11
80.54,-3.92,-3.79,-3.94,-3.81,3.85,3.56,3.30,-0.07,-0.10,-0.13
81.35,-3.89,-3.75,-3.90,-3.75,3.78,3.53,3.25,-0.11,-0.11,-0.14
82.16,-3.88,-3.73,-3.88,-3.72,3.71,3.49,3.20,-0.17,-0.16,-0.15
82.98,-3.84,-3.68,-3.84,-3.68,3.64,3.46,3.15,-0.20,-0.20,-0.16
83.81,-3.79,-3.62,-3.77,-3.60,3.57,3.43,3.10,-0.22,-0.20,-0.17
84.65,-3.67,-3.50,-3.68,-3.51,3.51,3.40,3.06,-0.17,-0.18,-0.17
85.50,-3.58,-3.40,-3.60,-3.41,3.44,3.36,3.01,-0.15,-0.16,-0.18
86.35,-3.53,-3.34,-3.54,-3.34,3.36,3.33,2.97,-0.17,-0.17,-0.19
87.22,-3.48,-3.28,-3.49,-3.28,3.29,3.30,2.94,-0.20,-0.20,-0.20
88.09,-3.47,-3.26,-3.43,-3.22,3.21,3.27,2.90,-0.27,-0.22,-0.21
88.97,-3.33,-3.12,-3.37,-3.16,3.13,3.23,2.87,-0.20,-0.24,-0.21
89.86,-3.29,-3.07,-3.31,-3.08,3.07,3.20,2.84,-0.22,-0.24,-0.22
90.76,-3.28,-3.05,-3.23,-3.00,3.01,3.17,2.81,-0.27,-0.21,-0.23
91.66,-3.15,-2.92,-3.17,-2.93,2.96,3.14,2.78,-0.19,-0.21,-0.23
92.58,-3.08,-2.85,-3.11,-2.88,2.90,3.11,2.75,-0.18,-0.21,-0.23
93.51,-3.08,-2.84,-3.08,-2.84,2.85,3.08,2.73,-0.23,-0.23,-0.24
94.44,-3.08,-2.84,-3.08,-2.83,2.81,3.05,2.71,-0.28,-0.27,-0.24
95.39,-3.06,-2.82,-3.04,-2.80,2.77,3.02,2.69,-0.29,-0.27,-0.24
96.34,-2.99,-2.75,-2.98,-2.73,2.73,2.98,2.67,-0.26,-0.24,-0.24
97.30,-2.88,-2.64,-2.93,-2.68,2.70,2.95,2.66,-0.18,-0.23,-0.24
98.28,-2.89,-2.64,-2.90,-2.65,2.66,2.92,2.64,-0.23,-0.24,-0.25
99.26,-2.91,-2.66,-2.89,-2.64,2.63,2.89,2.63,-0.29,-0.27,-0.25
100.25,-2.90,-2.65,-2.87,-2.62,2.59,2.86,2.62,-0.31,-0.28,-0.25
101.25,-2.82,-2.57,-2.83,-2.57,2.57,2.83,2.61,-0.25,-0.26,-0.25
102.27,-2.75,-2.49,-2.78,-2.52,2.55,2.81,2.60,-0.20,-0.24,-0.26
103.29,-2.77,-2.50,-2.77,-2.50,2.53,2.78,2.60,-0.24,-0.23,-0.27
104.32,-2.79,-2.51,-2.79,-2.51,2.52,2.75,2.59,-0.27,-0.27,-0.28
105.37,-2.81,-2.53,-2.81,-2.52,2.50,2.72,2.59,-0.31,-0.31,-0.28
106.42,-2.82,-2.53,-2.81,-2.52,2.49,2.69,2.58,-0.34,-0.32,-0.29
107.48,-2.79,-2.49,-2.80,-2.50,2.48,2.66,2.58,-0.31,-0.33,-0.30
108.56,-2.78,-2.47,-2.79,-2.47,2.47,2.63,2.58,-0.31,-0.32,-0.31
109.64,-2.78,-2.46,-2.77,-2.45,2.46,2.61,2.57,-0.32,-0.30,-0.32
110.74,-2.74,-2.42,-2.75,-2.43,2.45,2.58,2.57,-0.29,-0.30,-0.32
111.85,-2.74,-2.42,-2.75,-2.43,2.44,2.55,2.57,-0.30,-0.31,-0.32
112.97,-2.75,-2.43,-2.75,-2.43,2.42,2.53,2.57,-0.33,-0.33,-0.32
114.10,-2.76,-2.44,-2.75,-2.43,2.41,2.50,2.56,-0.35,-0.34,-0.32
115.24,-2.73,-2.42,-2.72,-2.41,2.39,2.47,2.56,-0.34,-0.33,-0.31
116.39,-2.68,-2.37,-2.70,-2.39,2.38,2.45,2.55,-0.30,-0.32,-0.31
117.55,-2.65,-2.36,-2.67,-2.37,2.37,2.42,2.55,-0.29,-0.30,-0.29
118.73,-2.65,-2.37,-2.63,-2.35,2.35,2.40,2.54,-0.30,-0.28,-0.28
119.92,-2.60,-2.34,-2.59,-2.33,2.34,2.37,2.53,-0.26,-0.25,-0.26
121.12,-2.53,-2.29,-2.56,-2.31,2.33,2.35,2.53,-0.20,-0.23,-0.24
122.33,-2.52,-2.30,-2.52,-2.30,2.32,2.32,2.52,-0.20,-0.21,-0.22
123.55,-2.52,-2.32,-2.52,-2.32,2.31,2.30,2.50,-0.21,-0.21,-0.20
124.79,-2.51,-2.33,-2.51,-2.33,2.31,2.27,2.49,-0.21,-0.21,-0.18
126.03,-2.50,-2.34,-2.48,-2.32,2.30,2.25,2.48,-0.20,-0.18,-0.16
127.29,-2.43,-2.29,-2.44,-2.30,2.30,2.23,2.46,-0.13,-0.14,-0.14
128.57,-2.39,-2.27,-2.41,-2.28,2.30,2.20,2.44,-0.09,-0.11,-0.12
129.85,-2.38,-2.28,-2.38,-2.28,2.29,2.18,2.42,-0.09,-0.09,-0.10
131.15,-2.38,-2.30,-2.38,-2.30,2.28,2.16,2.40,-0.10,-0.10,-0.08
132.46,-2.37,-2.30,-2.36,-2.29,2.27,2.14,2.38,-0.10,-0.09,-0.07
133.79,-2.35,-2.30,-2.33,-2.27,2.27,2.11,2.36,-0.08,-0.06,-0.05
135.12,-2.26,-2.22,-2.29,-2.25,2.27,2.09,2.33,0.01,-0.02,-0.04
136.48,-2.26,-2.24,-2.26,-2.24,2.27,2.07,2.31,0.00,0.00,-0.02
137.84,-2.26,-2.25,-2.25,-2.24,2.26,2.05,2.28,0.00,0.01,-0.01
139.22,-2.26,-2.26,-2.27,-2.27,2.26,2.03,2.25,-0.00,-0.01,-0.00
140.61,-2.26,-2.27,-2.26,-2.27,2.25,2.01,2.22,-0.01,-0.02,0.01
142.02,-2.26,-2.28,-2.24,-2.26,2.24,1.99,2.20,-0.02,-0.01,0.02
143.44,-2.21,-2.23,-2.21,-2.23,2.22,1.97,2.17,0.01,0.01,0.02
144.87,-2.16,-2.18,-2.18,-2.20,2.20,1.95,2.14,0.04,0.02,0.02
146.32,-2.15,-2.17,-2.15,-2.17,2.17,1.94,2.11,0.02,0.02,0.02
147.78,-2.15,-2.16,-2.13,-2.13,2.13,1.92,2.08,-0.02,0.01,0.01
149.26,-2.09,-2.09,-2.10,-2.09,2.09,1.90,2.05,-0.00,-0.01,-0.00
150.75,-2.05,-2.03,-2.07,-2.04,2.05,1.88,2.02,-0.00,-0.02,-0.02
152.26,-2.05,-2.00,-2.05,-2.00,2.01,1.87,2.00,-0.05,-0.04,-0.05
153.78,-2.05,-1.97,-2.05,-1.96,1.96,1.85,1.97,-0.09,-0.08,-0.08
155.32,-2.05,-1.93,-2.05,-1.93,1.92,1.83,1.94,-0.13,-0.13,-0.12
156.88,-2.05,-1.90,-2.05,-1.90,1.89,1.82,1.92,-0.16,-0.16,-0.15
158.44,-2.05,-1.86,-2.05,-1.86,1.86,1.80,1.89,-0.19,-0.19,-0.19
160.03,-2.05,-1.83,-2.05,-1.83,1.84,1.79,1.87,-0.21,-0.21,-0.22
161.63,-2.05,-1.81,-2.05,-1.80,1.83,1.77,1.85,-0.23,-0.22,-0.24
163.24,-2.05,-1.78,-2.06,-1.79,1.82,1.76,1.82,-0.24,-0.25,-0.27
164.88,-2.06,-1.78,-2.08,-1.80,1.81,1.75,1.80,-0.26,-0.28,-0.28
166.53,-2.13,-1.84,-2.10,-1.80,1.79,1.73,1.78,-0.34,-0.31,-0.29
168.19,-2.10,-1.81,-2.11,-1.82,1.78,1.72,1.76,-0.32,-0.34,-0.29
169.87,-2.08,-1.80,-2.10,-1.81,1.76,1.71,1.75,-0.32,-0.33,-0.28
171.57,-2.08,-1.81,-2.04,-1.77,1.76,1.70,1.73,-0.33,-0.28,-0.27
173.29,-1.97,-1.72,-1.98,-1.73,1.75,1.68,1.72,-0.22,-0.23,-0.25
175.02,-1.89,-1.67,-1.93,-1.70,1.75,1.67,1.70,-0.14,-0.18,-0.22
176.77,-1.90,-1.71,-1.89,-1.70,1.75,1.66,1.69,-0.15,-0.14,-0.19
178.54,-1.90,-1.74,-1.89,-1.73,1.76,1.65,1.68,-0.15,-0.14,-0.16
180.32,-1.89,-1.77,-1.90,-1.77,1.76,1.64,1.67,-0.13,-0.13,-0.12
182.13,-1.89,-1.80,-1.89,-1.80,1.78,1.63,1.66,-0.12,-0.12,-0.09
183.95,-1.88,-1.83,-1.88,-1.83,1.79,1.62,1.65,-0.09,-0.09,-0.05
185.79,-1.87,-1.84,-1.86,-1.83,1.80,1.61,1.65,-0.07,-0.06,-0.03
187.65,-1.82,-1.81,-1.82,-1.81,1.80,1.60,1.64,-0.02,-0.02,-0.01
189.52,-1.76,-1.77,-1.77,-1.78,1.79,1.60,1.64,0.03,0.02,0.01
191.42,-1.73,-1.75,-1.74,-1.76,1.77,1.59,1.63,0.04,0.03,0.02
193.33,-1.71,-1.75,-1.71,-1.74,1.74,1.58,1.63,0.03,0.03,0.04
195.27,-1.69,-1.74,-1.68,-1.72,1.71,1.57,1.63,0.02,0.03,0.05
197.22,-1.64,-1.69,-1.64,-1.69,1.69,1.57,1.63,0.04,0.05,0.05
199.19,-1.59,-1.65,-1.60,-1.65,1.66,1.56,1.63,0.07,0.06,0.06
201.18,-1.56,-1.62,-1.57,-1.63,1.64,1.56,1.63,0.08,0.07,0.06
203.19,-1.56,-1.62,-1.56,-1.61,1.63,1.55,1.64,0.07,0.07,0.06
205.23,-1.55,-1.61,-1.55,-1.61,1.62,1.55,1.64,0.06,0.06,0.06
207.28,-1.55,-1.61,-1.55,-1.61,1.61,1.54,1.64,0.06,0.05,0.06
209.35,-1.55,-1.61,-1.55,-1.61,1.60,1.54,1.65,0.05,0.05,0.06
211.44,-1.56,-1.61,-1.56,-1.61,1.60,1.53,1.65,0.04,0.04,0.05
213.56,-1.56,-1.61,-1.57,-1.61,1.60,1.53,1.66,0.04,0.04,0.05
215.69,-1.57,-1.61,-1.57,-1.61,1.60,1.53,1.66,0.03,0.03,0.04
217.85,-1.57,-1.61,-1.57,-1.60,1.60,1.52,1.67,0.03,0.03,0.04
220.03,-1.57,-1.60,-1.57,-1.60,1.60,1.52,1.68,0.03,0.03,0.03
222.23,-1.57,-1.60,-1.57,-1.60,1.61,1.52,1.68,0.03,0.03,0.03
224.45,-1.58,-1.61,-1.57,-1.60,1.62,1.52,1.69,0.03,0.04,0.03
226.70,-1.57,-1.60,-1.58,-1.61,1.63,1.52,1.69,0.05,0.05,0.03
228.96,-1.58,-1.61,-1.60,-1.63,1.64,1.52,1.70,0.06,0.04,0.03
231.25,-1.64,-1.68,-1.62,-1.66,1.65,1.52,1.70,0.01,0.03,0.04
233.57,-1.65,-1.69,-1.65,-1.68,1.67,1.52,1.70,0.01,0.02,0.04
235.90,-1.64,-1.69,-1.65,-1.70,1.68,1.52,1.71,0.04,0.03,0.05
238.26,-1.63,-1.69,-1.63,-1.69,1.69,1.52,1.71,0.05,0.05,0.06
240.64,-1.61,-1.69,-1.62,-1.69,1.69,1.52,1.71,0.08,0.07,0.08
243.05,-1.60,-1.69,-1.60,-1.69,1.68,1.52,1.71,0.08,0.08,0.09
245.48,-1.58,-1.68,-1.58,-1.68,1.68,1.52,1.71,0.09,0.10,0.10
247.93,-1.55,-1.66,-1.56,-1.66,1.66,1.52,1.71,0.11,0.11,0.11
250.41,-1.53,-1.65,-1.53,-1.65,1.65,1.53,1.70,0.12,0.12,0.12
252.92,-1.51,-1.64,-1.51,-1.64,1.64,1.53,1.70,0.13,0.13,0.13
255.45,-1.50,-1.63,-1.50,-1.63,1.63,1.53,1.70,0.13,0.13,0.13
258.00,-1.49,-1.62,-1.49,-1.62,1.63,1.54,1.69,0.13,0.13,0.13
260.58,-1.49,-1.62,-1.49,-1.62,1.62,1.54,1.68,0.13,0.13,0.13
263.19,-1.49,-1.62,-1.49,-1.62,1.62,1.54,1.68,0.13,0.13,0.13
265.82,-1.49,-1.62,-1.49,-1.62,1.62,1.55,1.67,0.13,0.13,0.13
268.48,-1.49,-1.62,-1.49,-1.62,1.62,1.55,1.66,0.13,0.13,0.13
271.16,-1.49,-1.62,-1.50,-1.62,1.62,1.56,1.65,0.13,0.13,0.13
273.87,-1.50,-1.63,-1.50,-1.62,1.63,1.56,1.64,0.13,0.13,0.13
276.61,-1.50,-1.63,-1.50,-1.63,1.63,1.56,1.62,0.13,0.13,0.13
279.38,-1.50,-1.63,-1.50,-1.63,1.64,1.57,1.61,0.14,0.14,0.13
282.17,-1.50,-1.64,-1.50,-1.64,1.64,1.57,1.60,0.14,0.14,0.14
284.99,-1.49,-1.64,-1.49,-1.64,1.64,1.58,1.59,0.15,0.15,0.15
287.84,-1.48,-1.63,-1.49,-1.64,1.63,1.59,1.58,0.14,0.13,0.15
290.72,-1.47,-1.63,-1.47,-1.63,1.60,1.59,1.56,0.13,0.13,0.16
293.63,-1.46,-1.63,-1.44,-1.61,1.58,1.60,1.55,0.11,0.13,0.17
296.57,-1.37,-1.55,-1.39,-1.56,1.54,1.60,1.54,0.17,0.15,0.18
299.53,-1.33,-1.51,-1.32,-1.50,1.50,1.61,1.53,0.17,0.18,0.18
302.53,-1.24,-1.43,-1.26,-1.44,1.46,1.61,1.52,0.22,0.21,0.19
305.55,-1.21,-1.40,-1.22,-1.41,1.43,1.62,1.51,0.21,0.21,0.19
308.61,-1.20,-1.39,-1.20,-1.39,1.40,1.63,1.50,0.20,0.20,0.19
311.69,-1.20,-1.39,-1.19,-1.38,1.39,1.63,1.49,0.18,0.19,0.19
314.81,-1.19,-1.37,-1.19,-1.37,1.38,1.64,1.48,0.19,0.19,0.18
317.96,-1.19,-1.37,-1.21,-1.38,1.39,1.64,1.47,0.20,0.19,0.18
321.14,-1.24,-1.41,-1.24,-1.41,1.42,1.65,1.46,0.18,0.18,0.17
324.35,-1.29,-1.46,-1.29,-1.45,1.45,1.66,1.46,0.16,0.16,0.17
327.59,-1.33,-1.49,-1.33,-1.49,1.48,1.66,1.45,0.15,0.15,0.16
330.87,-1.38,-1.53,-1.37,-1.52,1.52,1.67,1.45,0.13,0.15,0.15
334.18,-1.39,-1.53,-1.41,-1.55,1.55,1.67,1.44,0.15,0.14,0.14
337.52,-1.45,-1.58,-1.45,-1.58,1.57,1.68,1.44,0.12,0.12,0.13
340.90,-1.49,-1.62,-1.48,-1.60,1.59,1.68,1.44,0.10,0.11,0.13
344.30,-1.50,-1.62,-1.50,-1.62,1.60,1.69,1.44,0.10,0.10,0.12
347.75,-1.50,-1.60,-1.51,-1.61,1.60,1.69,1.44,0.10,0.09,0.10
351.23,-1.50,-1.59,-1.50,-1.59,1.59,1.70,1.44,0.09,0.09,0.09
354.74,-1.50,-1.58,-1.50,-1.58,1.58,1.70,1.45,0.08,0.08,0.08
358.28,-1.49,-1.56,-1.50,-1.56,1.56,1.70,1.45,0.07,0.06,0.07
361.87,-1.49,-1.55,-1.49,-1.54,1.54,1.71,1.46,0.05,0.05,0.06
365.49,-1.48,-1.52,-1.48,-1.52,1.52,1.71,1.46,0.04,0.04,0.04
369.14,-1.47,-1.50,-1.47,-1.50,1.51,1.71,1.47,0.04,0.04,0.03
372.83,-1.46,-1.48,-1.46,-1.48,1.50,1.71,1.48,0.04,0.04,0.02
376.56,-1.46,-1.47,-1.47,-1.48,1.49,1.72,1.49,0.03,0.02,0.01
380.33,-1.48,-1.48,-1.49,-1.49,1.49,1.72,1.50,0.01,-0.01,-0.00
384.13,-1.53,-1.52,-1.52,-1.50,1.48,1.72,1.51,-0.05,-0.03,-0.01
387.97,-1.54,-1.52,-1.54,-1.51,1.49,1.72,1.52,-0.06,-0.05,-0.02
391.85,-1.53,-1.50,-1.54,-1.50,1.49,1.72,1.54,-0.04,-0.04,-0.03
395.77,-1.53,-1.49,-1.53,-1.49,1.50,1.72,1.55,-0.03,-0.03,-0.04
399.73,-1.53,-1.48,-1.55,-1.50,1.52,1.72,1.57,-0.01,-0.03,-0.05
403.72,-1.58,-1.52,-1.58,-1.51,1.53,1.71,1.58,-0.05,-0.04,-0.06
407.76,-1.63,-1.55,-1.62,-1.54,1.55,1.71,1.60,-0.08,-0.07,-0.08
411.84,-1.64,-1.55,-1.67,-1.57,1.57,1.71,1.61,-0.08,-0.10,-0.09
415.96,-1.71,-1.61,-1.70,-1.60,1.58,1.71,1.63,-0.13,-0.12,-0.10
420.12,-1.74,-1.64,-1.73,-1.62,1.60,1.70,1.65,-0.14,-0.13,-0.10
424.32,-1.74,-1.63,-1.75,-1.64,1.61,1.70,1.66,-0.13,-0.13,-0.11
428.56,-1.73,-1.62,-1.73,-1.62,1.62,1.69,1.68,-0.11,-0.11,-0.11
432.85,-1.72,-1.62,-1.72,-1.61,1.63,1.69,1.69,-0.10,-0.09,-0.10
437.18,-1.69,-1.60,-1.71,-1.62,1.63,1.68,1.71,-0.06,-0.08,-0.09
441.55,-1.70,-1.63,-1.70,-1.63,1.63,1.67,1.72,-0.07,-0.07,-0.07
445.96,-1.70,-1.65,-1.68,-1.63,1.64,1.67,1.74,-0.07,-0.04,-0.05
450.42,-1.65,-1.63,-1.66,-1.64,1.64,1.66,1.75,-0.01,-0.02,-0.02
454.93,-1.60,-1.62,-1.63,-1.64,1.64,1.65,1.76,0.04,0.01,0.02
459.48,-1.61,-1.67,-1.60,-1.65,1.64,1.64,1.77,0.03,0.04,0.06
464.07,-1.58,-1.67,-1.57,-1.66,1.64,1.63,1.78,0.05,0.07,0.09
468.71,-1.52,-1.65,-1.53,-1.65,1.63,1.62,1.79,0.11,0.11,0.13
473.40,-1.46,-1.63,-1.46,-1.62,1.64,1.61,1.79,0.17,0.18,0.17
478.13,-1.40,-1.61,-1.41,-1.61,1.64,1.60,1.80,0.24,0.23,0.21
