frequency,raw,error,smoothed,error_smoothed,equalization,parametric_eq,fixed_band_eq,equalized_raw,equalized_smoothed,target
20.00,8.64,2.72,8.65,2.73,-2.68,-2.93,-1.61,5.96,5.97,5.92
20.20,8.65,2.74,8.65,2.73,-2.72,-2.94,-1.66,5.93,5.93,5.91
20.40,8.66,2.75,8.65,2.75,-2.76,-2.95,-1.71,5.91,5.90,5.91
20.61,8.66,2.76,8.66,2.77,-2.79,-2.96,-1.76,5.87,5.87,5.90
20.81,8.67,2.78,8.67,2.79,-2.83,-2.97,-1.81,5.84,5.85,5.89
21.02,8.69,2.81,8.70,2.82,-2.86,-2.98,-1.86,5.83,5.84,5.88
21.23,8.74,2.87,8.74,2.86,-2.90,-2.99,-1.91,5.85,5.85,5.88
21.44,8.80,2.92,8.80,2.92,-2.93,-3.00,-1.97,5.88,5.87,5.89
21.66,8.85,2.98,8.86,2.98,-2.96,-3.01,-2.02,5.89,5.90,5.88
21.87,8.91,3.04,8.91,3.03,-2.99,-3.02,-2.08,5.92,5.91,5.88
22.09,8.94,3.08,8.93,3.07,-3.02,-3.03,-2.14,5.92,5.91,5.87
22.31,8.93,3.07,8.94,3.08,-3.04,-3.04,-2.20,5.89,5.90,5.87
22.54,8.92,3.07,8.92,3.06,-3.06,-3.05,-2.27,5.86,5.86,5.86
22.76,8.91,3.05,8.91,3.05,-3.09,-3.06,-2.33,5.83,5.82,5.86
22.99,8.90,3.04,8.92,3.06,-3.11,-3.07,-2.40,5.79,5.81,5.86
23.22,8.95,3.10,8.95,3.10,-3.13,-3.09,-2.47,5.82,5.82,5.85
23.45,9.01,3.16,9.01,3.16,-3.16,-3.10,-2.54,5.85,5.84,5.85
23.69,9.07,3.22,9.07,3.22,-3.20,-3.11,-2.61,5.87,5.87,5.85
23.92,9.12,3.27,9.12,3.27,-3.24,-3.12,-2.68,5.88,5.88,5.85
24.16,9.16,3.30,9.16,3.30,-3.28,-3.13,-2.75,5.88,5.88,5.86
24.40,9.18,3.32,9.19,3.32,-3.32,-3.15,-2.83,5.87,5.87,5.87
24.65,9.21,3.35,9.21,3.35,-3.34,-3.16,-2.90,5.87,5.87,5.87
24.89,9.23,3.37,9.23,3.37,-3.36,-3.17,-2.98,5.87,5.87,5.87
25.14,9.24,3.39,9.24,3.38,-3.37,-3.18,-3.06,5.87,5.87,5.86
25.39,9.24,3.39,9.24,3.39,-3.39,-3.20,-3.13,5.86,5.86,5.86
25.65,9.24,3.39,9.24,3.39,-3.40,-3.21,-3.21,5.84,5.84,5.85
25.91,9.24,3.39,9.25,3.40,-3.42,-3.22,-3.29,5.83,5.83,5.85
26.16,9.26,3.41,9.26,3.41,-3.43,-3.24,-3.37,5.83,5.83,5.85
26.43,9.28,3.44,9.29,3.44,-3.45,-3.25,-3.45,5.83,5.83,5.84
26.69,9.31,3.47,9.31,3.48,-3.47,-3.26,-3.52,5.84,5.84,5.84
26.96,9.34,3.52,9.33,3.51,-3.49,-3.28,-3.60,5.85,5.84,5.83
27.23,9.34,3.53,9.35,3.52,-3.51,-3.29,-3.68,5.84,5.84,5.82
27.50,9.34,3.53,9.35,3.53,-3.52,-3.31,-3.75,5.83,5.83,5.82
27.77,9.34,3.53,9.34,3.53,-3.53,-3.32,-3.82,5.82,5.82,5.81
28.05,9.34,3.53,9.34,3.53,-3.53,-3.34,-3.89,5.81,5.81,5.81
28.33,9.34,3.53,9.34,3.53,-3.54,-3.35,-3.96,5.80,5.80,5.81
28.62,9.34,3.54,9.34,3.54,-3.55,-3.37,-4.02,5.80,5.79,5.80
28.90,9.34,3.54,9.35,3.54,-3.56,-3.38,-4.08,5.79,5.79,5.81
29.19,9.36,3.56,9.37,3.56,-3.57,-3.40,-4.14,5.80,5.80,5.81
29.48,9.39,3.58,9.39,3.58,-3.58,-3.41,-4.19,5.81,5.81,5.81
29.78,9.42,3.61,9.42,3.61,-3.60,-3.43,-4.24,5.83,5.82,5.81
30.08,9.44,3.62,9.44,3.62,-3.61,-3.44,-4.28,5.83,5.83,5.82
30.38,9.44,3.63,9.45,3.63,-3.62,-3.46,-4.32,5.82,5.82,5.81
30.68,9.44,3.64,9.45,3.64,-3.64,-3.48,-4.35,5.81,5.81,5.81
30.99,9.44,3.65,9.44,3.65,-3.65,-3.49,-4.38,5.80,5.80,5.80
31.30,9.44,3.65,9.44,3.65,-3.65,-3.51,-4.40,5.79,5.79,5.79
31.61,9.44,3.65,9.44,3.66,-3.66,-3.53,-4.41,5.78,5.78,5.79
31.93,9.44,3.67,9.44,3.66,-3.66,-3.54,-4.43,5.78,5.78,5.78
32.24,9.44,3.67,9.44,3.67,-3.67,-3.56,-4.43,5.78,5.78,5.78
32.57,9.44,3.68,9.44,3.68,-3.67,-3.58,-4.43,5.77,5.77,5.76
32.89,9.44,3.69,9.44,3.69,-3.68,-3.59,-4.43,5.76,5.76,5.75
33.22,9.44,3.70,9.44,3.69,-3.69,-3.61,-4.42,5.75,5.75,5.75
33.55,9.44,3.70,9.44,3.70,-3.71,-3.63,-4.41,5.73,5.73,5.75
33.89,9.44,3.70,9.45,3.71,-3.73,-3.65,-4.40,5.71,5.72,5.74
34.23,9.46,3.73,9.47,3.74,-3.75,-3.66,-4.38,5.71,5.72,5.73
34.57,9.50,3.78,9.50,3.77,-3.77,-3.68,-4.36,5.73,5.73,5.73
34.92,9.53,3.82,9.53,3.81,-3.79,-3.70,-4.33,5.74,5.73,5.71
35.27,9.54,3.82,9.54,3.83,-3.82,-3.72,-4.31,5.73,5.73,5.72
35.62,9.54,3.85,9.55,3.85,-3.84,-3.74,-4.28,5.71,5.71,5.70
35.97,9.54,3.86,9.54,3.86,-3.86,-3.75,-4.25,5.69,5.69,5.68
36.33,9.54,3.88,9.54,3.88,-3.88,-3.77,-4.22,5.67,5.67,5.67
36.70,9.54,3.89,9.54,3.89,-3.89,-3.79,-4.19,5.65,5.65,5.66
37.06,9.54,3.90,9.54,3.90,-3.91,-3.81,-4.16,5.63,5.63,5.64
37.43,9.54,3.92,9.54,3.92,-3.93,-3.83,-4.13,5.62,5.62,5.63
37.81,9.54,3.94,9.54,3.94,-3.95,-3.85,-4.10,5.60,5.60,5.60
38.19,9.54,3.97,9.54,3.97,-3.97,-3.87,-4.07,5.57,5.58,5.58
38.57,9.54,3.99,9.54,3.99,-3.99,-3.89,-4.04,5.56,5.56,5.55
38.95,9.54,4.02,9.54,4.01,-4.00,-3.90,-4.01,5.54,5.54,5.53
39.34,9.53,4.03,9.54,4.03,-4.02,-3.92,-3.99,5.51,5.52,5.50
39.74,9.52,4.05,9.52,4.04,-4.03,-3.94,-3.96,5.49,5.49,5.48
40.14,9.50,4.05,9.50,4.05,-4.04,-3.96,-3.94,5.46,5.46,5.45
40.54,9.47,4.05,9.47,4.05,-4.05,-3.98,-3.92,5.42,5.42,5.43
40.94,9.44,4.04,9.45,4.05,-4.07,-4.00,-3.91,5.38,5.39,5.40
41.35,9.44,4.06,9.44,4.06,-4.08,-4.02,-3.89,5.37,5.36,5.39
41.76,9.44,4.08,9.44,4.08,-4.09,-4.04,-3.88,5.36,5.35,5.36
42.18,9.44,4.10,9.45,4.11,-4.10,-4.06,-3.87,5.35,5.35,5.34
42.60,9.44,4.13,9.45,4.13,-4.11,-4.08,-3.86,5.34,5.34,5.32
43.03,9.44,4.16,9.43,4.14,-4.12,-4.10,-3.86,5.33,5.31,5.29
43.46,9.40,4.13,9.40,4.14,-4.13,-4.12,-3.86,5.28,5.28,5.27
43.90,9.36,4.12,9.38,4.13,-4.14,-4.14,-3.86,5.22,5.23,5.24
44.33,9.35,4.14,9.35,4.13,-4.16,-4.16,-3.86,5.20,5.19,5.22
44.78,9.34,4.16,9.34,4.15,-4.18,-4.18,-3.87,5.17,5.17,5.19
45.23,9.34,4.17,9.34,4.18,-4.20,-4.20,-3.88,5.15,5.15,5.17
45.68,9.34,4.21,9.34,4.21,-4.22,-4.22,-3.90,5.13,5.13,5.13
46.13,9.34,4.25,9.35,4.25,-4.23,-4.24,-3.91,5.11,5.11,5.09
46.60,9.34,4.28,9.34,4.28,-4.25,-4.26,-3.93,5.09,5.09,5.06
47.06,9.33,4.30,9.33,4.30,-4.27,-4.28,-3.96,5.07,5.06,5.03
47.53,9.29,4.29,9.29,4.30,-4.28,-4.30,-3.98,5.01,5.01,5.00
48.01,9.24,4.30,9.24,4.29,-4.30,-4.32,-4.01,4.95,4.95,4.94
48.49,9.19,4.28,9.19,4.28,-4.31,-4.34,-4.04,4.89,4.88,4.91
48.97,9.14,4.27,9.16,4.29,-4.32,-4.36,-4.07,4.82,4.84,4.87
49.46,9.14,4.31,9.14,4.31,-4.33,-4.37,-4.10,4.81,4.81,4.83
49.96,9.14,4.37,9.14,4.35,-4.35,-4.39,-4.14,4.80,4.80,4.78
50.46,9.14,4.39,9.15,4.39,-4.36,-4.41,-4.18,4.78,4.78,4.76
50.96,9.14,4.42,9.13,4.41,-4.38,-4.43,-4.22,4.76,4.75,4.72
51.47,9.10,4.41,9.10,4.41,-4.41,-4.45,-4.26,4.69,4.69,4.69
51.99,9.05,4.41,9.07,4.42,-4.44,-4.47,-4.30,4.62,4.63,4.65
52.51,9.04,4.43,9.05,4.43,-4.47,-4.49,-4.35,4.58,4.58,4.61
53.03,9.04,4.47,9.04,4.47,-4.49,-4.51,-4.39,4.56,4.55,4.58
53.56,9.04,4.51,9.04,4.51,-4.51,-4.52,-4.44,4.54,4.54,4.53
54.10,9.04,4.56,9.04,4.55,-4.52,-4.54,-4.48,4.52,4.52,4.49
54.64,9.02,4.57,9.02,4.57,-4.54,-4.56,-4.53,4.48,4.48,4.45
55.18,8.99,4.59,8.98,4.57,-4.56,-4.58,-4.57,4.44,4.43,4.41
55.74,8.92,4.56,8.93,4.56,-4.57,-4.59,-4.61,4.36,4.37,4.37
56.29,8.88,4.54,8.89,4.55,-4.57,-4.61,-4.65,4.31,4.32,4.34
56.86,8.85,4.54,8.86,4.56,-4.57,-4.63,-4.69,4.28,4.29,4.31
57.42,8.84,4.59,8.85,4.58,-4.57,-4.65,-4.73,4.27,4.28,4.25
58.00,8.84,4.61,8.82,4.58,-4.58,-4.66,-4.76,4.27,4.24,4.24
58.58,8.78,4.57,8.79,4.58,-4.59,-4.68,-4.79,4.20,4.20,4.22
59.16,8.74,4.56,8.76,4.58,-4.60,-4.69,-4.82,4.15,4.16,4.18
59.76,8.74,4.59,8.74,4.60,-4.61,-4.71,-4.84,4.13,4.13,4.15
60.35,8.74,4.64,8.74,4.63,-4.63,-4.72,-4.87,4.12,4.12,4.10
60.96,8.74,4.67,8.73,4.67,-4.64,-4.74,-4.88,4.10,4.09,4.07
61.57,8.69,4.68,8.69,4.68,-4.66,-4.75,-4.89,4.04,4.04,4.02
62.18,8.64,4.68,8.64,4.67,-4.67,-4.77,-4.90,3.97,3.96,3.96
62.80,8.56,4.66,8.58,4.67,-4.69,-4.78,-4.91,3.87,3.89,3.91
63.43,8.54,4.68,8.55,4.69,-4.70,-4.80,-4.91,3.84,3.85,3.86
64.07,8.54,4.73,8.53,4.71,-4.71,-4.81,-4.90,3.83,3.82,3.82
64.71,8.51,4.73,8.51,4.74,-4.72,-4.82,-4.89,3.79,3.79,3.78
65.35,8.48,4.75,8.48,4.75,-4.73,-4.83,-4.88,3.75,3.75,3.73
66.01,8.44,4.75,8.44,4.75,-4.75,-4.84,-4.86,3.70,3.69,3.69
66.67,8.39,4.74,8.40,4.75,-4.76,-4.86,-4.84,3.63,3.64,3.66
67.33,8.36,4.77,8.37,4.77,-4.78,-4.87,-4.82,3.59,3.59,3.60
68.01,8.34,4.79,8.35,4.79,-4.79,-4.88,-4.79,3.55,3.55,3.56
68.69,8.33,4.82,8.32,4.80,-4.81,-4.89,-4.76,3.52,3.51,3.51
69.37,8.29,4.82,8.28,4.81,-4.82,-4.90,-4.73,3.47,3.46,3.47
70.07,8.22,4.80,8.26,4.84,-4.84,-4.91,-4.70,3.39,3.42,3.42
70.77,8.24,4.87,8.25,4.87,-4.85,-4.91,-4.66,3.39,3.40,3.38
71.48,8.24,4.91,8.22,4.89,-4.87,-4.92,-4.63,3.38,3.35,3.33
72.19,8.20,4.92,8.17,4.88,-4.87,-4.93,-4.59,3.33,3.29,3.29
72.91,8.04,4.81,8.10,4.86,-4.88,-4.94,-4.56,3.17,3.22,3.23
73.64,8.03,4.85,8.05,4.86,-4.88,-4.94,-4.52,3.16,3.17,3.18
74.38,8.03,4.89,8.02,4.87,-4.88,-4.95,-4.48,3.16,3.14,3.15
75.12,8.02,4.92,8.00,4.89,-4.87,-4.95,-4.45,3.15,3.13,3.11
75.87,7.94,4.87,7.95,4.87,-4.87,-4.96,-4.42,3.07,3.08,3.08
76.63,7.87,4.85,7.89,4.85,-4.87,-4.96,-4.38,3.00,3.02,3.03
77.40,7.83,4.84,7.85,4.86,-4.87,-4.97,-4.35,2.96,2.98,3.00
78.17,7.83,4.88,7.82,4.86,-4.87,-4.97,-4.32,2.96,2.95,2.95
78.95,7.83,4.90,7.80,4.87,-4.87,-4.97,-4.29,2.97,2.93,2.93
79.74,7.73,4.83,7.78,4.88,-4.86,-4.98,-4.27,2.87,2.92,2.90
80.54,7.74,4.88,7.74,4.87,-4.85,-4.98,-4.24,2.89,2.89,2.86
81.35,7.72,4.89,7.68,4.85,-4.85,-4.98,-4.22,2.88,2.83,2.83
82.16,7.61,4.81,7.62,4.82,-4.84,-4.98,-4.21,2.78,2.78,2.80
82.98,7.53,4.78,7.57,4.81,-4.83,-4.98,-4.19,2.71,2.74,2.76
83.81,7.51,4.79,7.54,4.81,-4.81,-4.98,-4.18,2.70,2.72,2.72
84.65,7.55,4.87,7.50,4.82,-4.80,-4.97,-4.17,2.75,2.70,2.68
85.50,7.46,4.82,7.45,4.80,-4.79,-4.97,-4.16,2.67,2.65,2.64
86.35,7.33,4.73,7.39,4.78,-4.79,-4.97,-4.16,2.55,2.60,2.61
87.22,7.32,4.76,7.33,4.77,-4.78,-4.97,-4.16,2.54,2.55,2.57
88.09,7.33,4.81,7.31,4.79,-4.79,-4.96,-4.16,2.55,2.53,2.53
88.97,7.29,4.81,7.29,4.80,-4.79,-4.96,-4.17,2.50,2.50,2.48
89.86,7.24,4.80,7.23,4.79,-4.80,-4.95,-4.18,2.45,2.44,2.44
90.76,7.15,4.75,7.18,4.79,-4.80,-4.95,-4.19,2.35,2.38,2.40
91.66,7.14,4.80,7.15,4.80,-4.81,-4.94,-4.21,2.34,2.34,2.35
92.58,7.14,4.84,7.13,4.82,-4.81,-4.93,-4.23,2.33,2.31,2.30
93.51,7.10,4.84,7.11,4.85,-4.82,-4.93,-4.25,2.29,2.29,2.26
94.44,7.05,4.84,7.05,4.84,-4.82,-4.92,-4.27,2.23,2.23,2.22
95.39,6.99,4.83,6.98,4.81,-4.82,-4.91,-4.30,2.17,2.15,2.16
96.34,6.89,4.79,6.90,4.79,-4.82,-4.90,-4.33,2.07,2.08,2.11
97.30,6.82,4.77,6.86,4.81,-4.82,-4.89,-4.36,2.01,2.04,2.05
98.28,6.82,4.83,6.82,4.82,-4.81,-4.88,-4.40,2.01,2.01,2.00
99.26,6.81,4.88,6.76,4.83,-4.80,-4.87,-4.44,2.01,1.96,1.93
100.25,6.66,4.79,6.68,4.80,-4.79,-4.86,-4.48,1.88,1.89,1.88
101.25,6.56,4.73,6.59,4.77,-4.78,-4.85,-4.52,1.79,1.81,1.83
102.27,6.50,4.73,6.53,4.76,-4.77,-4.84,-4.56,1.73,1.76,1.77
103.29,6.52,4.81,6.48,4.76,-4.76,-4.83,-4.60,1.76,1.72,1.72
104.32,6.45,4.78,6.41,4.74,-4.75,-4.82,-4.65,1.70,1.65,1.67
105.37,6.27,4.67,6.34,4.73,-4.74,-4.80,-4.69,1.53,1.60,1.60
106.42,6.25,4.70,6.28,4.73,-4.73,-4.79,-4.74,1.52,1.55,1.56
107.48,6.27,4.78,6.23,4.73,-4.72,-4.78,-4.79,1.55,1.51,1.49
108.56,6.21,4.77,6.19,4.74,-4.71,-4.76,-4.83,1.51,1.48,1.45
109.64,6.07,4.68,6.10,4.72,-4.68,-4.75,-4.88,1.39,1.42,1.39
110.74,5.99,4.66,6.00,4.67,-4.66,-4.73,-4.92,1.33,1.34,1.33
111.85,5.93,4.65,5.92,4.63,-4.64,-4.72,-4.96,1.29,1.28,1.29
112.97,5.85,4.61,5.86,4.62,-4.63,-4.70,-5.00,1.23,1.23,1.24
114.10,5.78,4.59,5.78,4.59,-4.62,-4.69,-5.04,1.16,1.16,1.20
115.24,5.73,4.60,5.70,4.56,-4.62,-4.67,-5.07,1.12,1.08,1.13
116.39,5.62,4.54,5.67,4.58,-4.62,-4.66,-5.11,1.00,1.05,1.09
117.55,5.64,4.60,5.67,4.63,-4.62,-4.64,-5.13,1.02,1.05,1.04
118.73,5.73,4.73,5.67,4.67,-4.63,-4.62,-5.16,1.11,1.04,1.00
119.92,5.66,4.71,5.66,4.69,-4.63,-4.61,-5.17,1.03,1.03,0.96
121.12,5.56,4.63,5.59,4.67,-4.63,-4.59,-5.19,0.94,0.97,0.93
122.33,5.51,4.62,5.52,4.62,-4.62,-4.57,-5.19,0.89,0.90,0.89
123.55,5.44,4.58,5.43,4.57,-4.61,-4.56,-5.20,0.84,0.83,0.86
124.79,5.39,4.56,5.37,4.54,-4.58,-4.54,-5.19,0.81,0.79,0.83
126.03,5.26,4.48,5.34,4.56,-4.55,-4.52,-5.19,0.71,0.79,0.79
127.29,5.32,4.58,5.30,4.55,-4.53,-4.50,-5.17,0.79,0.77,0.75
128.57,5.33,4.62,5.23,4.52,-4.52,-4.48,-5.16,0.81,0.70,0.71
129.85,5.11,4.43,5.18,4.50,-4.52,-4.47,-5.13,0.60,0.66,0.68
131.15,5.05,4.41,5.14,4.50,-4.52,-4.45,-5.10,0.54,0.63,0.64
132.46,5.16,4.56,5.11,4.50,-4.52,-4.43,-5.07,0.65,0.59,0.61
133.79,5.17,4.62,5.09,4.52,-4.51,-4.41,-5.03,0.66,0.58,0.56
135.12,4.97,4.45,5.06,4.54,-4.50,-4.39,-4.99,0.48,0.57,0.52
136.48,4.94,4.46,4.99,4.50,-4.48,-4.37,-4.94,0.47,0.51,0.49
137.84,5.00,4.55,4.89,4.44,-4.45,-4.35,-4.89,0.55,0.44,0.45
139.22,4.81,4.41,4.86,4.45,-4.43,-4.34,-4.84,0.39,0.43,0.40
140.61,4.70,4.33,4.79,4.42,-4.40,-4.32,-4.79,0.31,0.39,0.38
142.02,4.79,4.46,4.68,4.35,-4.37,-4.30,-4.73,0.42,0.31,0.33
143.44,4.61,4.32,4.61,4.31,-4.35,-4.28,-4.68,0.26,0.26,0.29
144.87,4.47,4.21,4.55,4.29,-4.34,-4.26,-4.62,0.14,0.22,0.26
146.32,4.51,4.29,4.52,4.29,-4.33,-4.24,-4.56,0.18,0.19,0.22
147.78,4.55,4.37,4.52,4.33,-4.32,-4.22,-4.50,0.23,0.20,0.18
149.26,4.54,4.40,4.49,4.35,-4.31,-4.20,-4.44,0.23,0.18,0.15
150.75,4.39,4.29,4.45,4.35,-4.30,-4.18,-4.38,0.10,0.16,0.10
152.26,4.35,4.28,4.40,4.33,-4.29,-4.16,-4.32,0.07,0.11,0.07
153.78,4.40,4.38,4.30,4.27,-4.28,-4.14,-4.26,0.13,0.03,0.03
155.32,4.22,4.22,4.23,4.24,-4.26,-4.12,-4.21,-0.03,-0.02,0.00
156.88,4.07,4.11,4.16,4.20,-4.23,-4.10,-4.15,-0.16,-0.08,-0.04
158.44,4.12,4.21,4.09,4.17,-4.21,-4.08,-4.10,-0.08,-0.12,-0.08
160.03,4.08,4.21,4.07,4.19,-4.19,-4.06,-4.05,-0.10,-0.12,-0.13
161.63,4.02,4.19,4.03,4.20,-4.17,-4.04,-4.00,-0.15,-0.14,-0.17
163.24,3.96,4.18,3.96,4.18,-4.16,-4.02,-3.95,-0.20,-0.20,-0.22
164.88,3.88,4.14,3.88,4.14,-4.15,-4.00,-3.91,-0.27,-0.27,-0.26
166.53,3.82,4.13,3.82,4.13,-4.14,-3.98,-3.86,-0.31,-0.31,-0.31
168.19,3.75,4.10,3.79,4.13,-4.12,-3.96,-3.82,-0.37,-0.34,-0.35
169.87,3.75,4.15,3.73,4.12,-4.10,-3.93,-3.79,-0.35,-0.37,-0.39
171.57,3.69,4.13,3.65,4.08,-4.08,-3.91,-3.75,-0.39,-0.43,-0.44
173.29,3.52,4.00,3.57,4.05,-4.05,-3.89,-3.72,-0.53,-0.49,-0.48
175.02,3.46,3.99,3.49,4.01,-4.03,-3.87,-3.69,-0.57,-0.54,-0.52
176.77,3.46,4.03,3.44,4.00,-4.01,-3.85,-3.67,-0.55,-0.57,-0.57
178.54,3.41,4.01,3.40,4.01,-3.99,-3.83,-3.65,-0.57,-0.59,-0.60
180.32,3.33,3.98,3.34,3.99,-3.97,-3.80,-3.62,-0.64,-0.63,-0.64
182.13,3.27,3.96,3.27,3.95,-3.96,-3.78,-3.61,-0.69,-0.70,-0.69
183.95,3.20,3.92,3.20,3.92,-3.96,-3.76,-3.59,-0.76,-0.76,-0.72
185.79,3.16,3.92,3.18,3.94,-3.96,-3.74,-3.58,-0.79,-0.78,-0.76
187.65,3.14,3.93,3.17,3.96,-3.95,-3.71,-3.57,-0.81,-0.78,-0.79
189.52,3.19,4.02,3.13,3.96,-3.94,-3.69,-3.57,-0.75,-0.81,-0.83
191.42,3.10,3.95,3.10,3.96,-3.93,-3.67,-3.56,-0.82,-0.82,-0.85
193.33,2.98,3.87,3.05,3.94,-3.91,-3.65,-3.56,-0.93,-0.86,-0.89
195.27,3.02,3.95,2.96,3.89,-3.89,-3.62,-3.56,-0.87,-0.93,-0.93
197.22,2.91,3.88,2.90,3.86,-3.88,-3.60,-3.56,-0.96,-0.98,-0.96
199.19,2.78,3.78,2.85,3.84,-3.86,-3.57,-3.57,-1.07,-1.01,-0.99
201.18,2.80,3.83,2.79,3.81,-3.84,-3.55,-3.57,-1.03,-1.05,-1.03
203.19,2.77,3.83,2.75,3.80,-3.83,-3.53,-3.58,-1.05,-1.08,-1.05
205.23,2.71,3.79,2.71,3.80,-3.81,-3.50,-3.59,-1.10,-1.10,-1.08
207.28,2.65,3.76,2.70,3.81,-3.79,-3.48,-3.60,-1.14,-1.09,-1.11
209.35,2.66,3.81,2.67,3.81,-3.77,-3.45,-3.61,-1.11,-1.10,-1.15
211.44,2.69,3.87,2.60,3.78,-3.75,-3.43,-3.62,-1.05,-1.15,-1.17
213.56,2.49,3.70,2.54,3.75,-3.72,-3.40,-3.63,-1.22,-1.17,-1.21
215.69,2.38,3.61,2.46,3.69,-3.69,-3.38,-3.64,-1.30,-1.23,-1.23
217.85,2.45,3.71,2.35,3.61,-3.66,-3.35,-3.65,-1.20,-1.31,-1.25
220.03,2.28,3.58,2.28,3.57,-3.62,-3.33,-3.66,-1.34,-1.34,-1.30
222.23,2.15,3.47,2.25,3.57,-3.58,-3.30,-3.67,-1.43,-1.33,-1.32
224.45,2.22,3.56,2.22,3.56,-3.55,-3.27,-3.68,-1.33,-1.33,-1.34
226.70,2.28,3.64,2.18,3.54,-3.52,-3.25,-3.69,-1.24,-1.34,-1.36
228.96,2.12,3.49,2.14,3.51,-3.49,-3.22,-3.69,-1.36,-1.35,-1.37
231.25,1.99,3.39,2.09,3.48,-3.46,-3.19,-3.69,-1.46,-1.37,-1.39
233.57,2.04,3.45,2.01,3.42,-3.43,-3.17,-3.69,-1.39,-1.42,-1.40
235.90,2.05,3.48,1.97,3.38,-3.40,-3.14,-3.69,-1.35,-1.43,-1.42
238.26,1.84,3.27,1.93,3.35,-3.36,-3.11,-3.68,-1.52,-1.43,-1.43
240.64,1.86,3.28,1.88,3.30,-3.32,-3.09,-3.67,-1.45,-1.44,-1.42
243.05,1.87,3.30,1.84,3.27,-3.27,-3.06,-3.66,-1.39,-1.43,-1.43
245.48,1.83,3.26,1.83,3.26,-3.22,-3.03,-3.64,-1.39,-1.39,-1.43
247.93,1.77,3.21,1.79,3.22,-3.18,-3.00,-3.62,-1.41,-1.39,-1.43
250.41,1.73,3.16,1.72,3.15,-3.15,-2.97,-3.60,-1.42,-1.43,-1.42
252.92,1.66,3.08,1.64,3.07,-3.12,-2.94,-3.57,-1.46,-1.48,-1.42
255.45,1.57,3.01,1.59,3.02,-3.08,-2.91,-3.53,-1.51,-1.49,-1.44
258.00,1.53,2.98,1.59,3.03,-3.05,-2.88,-3.50,-1.52,-1.46,-1.44
260.58,1.61,3.07,1.59,3.04,-3.01,-2.86,-3.45,-1.40,-1.42,-1.45
263.19,1.64,3.10,1.58,3.04,-2.98,-2.83,-3.41,-1.33,-1.39,-1.46
265.82,1.50,2.97,1.52,2.99,-2.95,-2.80,-3.36,-1.44,-1.42,-1.46
268.48,1.40,2.88,1.41,2.89,-2.91,-2.77,-3.31,-1.51,-1.50,-1.48
271.16,1.31,2.81,1.34,2.83,-2.87,-2.73,-3.25,-1.56,-1.54,-1.50
273.87,1.28,2.79,1.31,2.82,-2.83,-2.70,-3.19,-1.54,-1.52,-1.50
276.61,1.32,2.84,1.26,2.78,-2.77,-2.67,-3.13,-1.45,-1.51,-1.52
279.38,1.21,2.75,1.20,2.73,-2.71,-2.64,-3.07,-1.50,-1.51,-1.53
282.17,1.07,2.60,1.16,2.69,-2.66,-2.61,-3.00,-1.59,-1.50,-1.53
284.99,1.09,2.63,1.07,2.60,-2.61,-2.58,-2.93,-1.52,-1.54,-1.53
287.84,1.08,2.61,1.00,2.54,-2.56,-2.55,-2.86,-1.47,-1.56,-1.53
290.72,0.87,2.42,0.97,2.51,-2.50,-2.51,-2.79,-1.63,-1.54,-1.54
293.63,0.91,2.46,0.92,2.46,-2.46,-2.48,-2.72,-1.54,-1.53,-1.55
296.57,0.93,2.47,0.88,2.42,-2.42,-2.45,-2.65,-1.48,-1.54,-1.54
299.53,0.85,2.39,0.84,2.37,-2.38,-2.42,-2.57,-1.53,-1.55,-1.53
302.53,0.74,2.28,0.78,2.31,-2.36,-2.38,-2.50,-1.61,-1.58,-1.54
305.55,0.70,2.25,0.76,2.30,-2.33,-2.35,-2.43,-1.63,-1.57,-1.54
308.61,0.80,2.34,0.77,2.31,-2.30,-2.32,-2.35,-1.50,-1.53,-1.54
311.69,0.82,2.36,0.77,2.31,-2.27,-2.28,-2.28,-1.45,-1.50,-1.54
314.81,0.71,2.26,0.73,2.28,-2.23,-2.25,-2.20,-1.52,-1.50,-1.54
317.96,0.62,2.17,0.65,2.19,-2.19,-2.21,-2.13,-1.56,-1.54,-1.55
321.14,0.58,2.13,0.59,2.13,-2.14,-2.18,-2.06,-1.55,-1.55,-1.55
324.35,0.52,2.08,0.53,2.08,-2.08,-2.14,-1.99,-1.56,-1.55,-1.55
327.59,0.51,2.06,0.46,2.01,-2.01,-2.11,-1.92,-1.50,-1.56,-1.55
330.87,0.35,1.90,0.38,1.93,-1.94,-2.07,-1.85,-1.58,-1.56,-1.55
334.18,0.26,1.83,0.31,1.86,-1.86,-2.04,-1.78,-1.60,-1.55,-1.56
337.52,0.28,1.84,0.25,1.80,-1.80,-2.00,-1.71,-1.52,-1.56,-1.55
340.90,0.21,1.76,0.20,1.75,-1.75,-1.96,-1.64,-1.54,-1.55,-1.55
344.30,0.14,1.68,0.14,1.68,-1.70,-1.93,-1.57,-1.56,-1.57,-1.54
347.75,0.05,1.60,0.08,1.62,-1.66,-1.89,-1.51,-1.60,-1.57,-1.54
351.23,0.04,1.59,0.07,1.60,-1.61,-1.85,-1.44,-1.57,-1.54,-1.54
354.74,0.09,1.62,0.06,1.60,-1.57,-1.81,-1.38,-1.47,-1.50,-1.53
358.28,0.06,1.59,0.05,1.57,-1.52,-1.77,-1.32,-1.46,-1.48,-1.53
361.87,-0.01,1.51,-0.00,1.51,-1.49,-1.74,-1.26,-1.49,-1.49,-1.52
365.49,-0.10,1.42,-0.08,1.43,-1.45,-1.70,-1.20,-1.54,-1.53,-1.51
369.14,-0.14,1.37,-0.14,1.36,-1.41,-1.66,-1.14,-1.54,-1.55,-1.50
372.83,-0.19,1.31,-0.17,1.33,-1.36,-1.62,-1.08,-1.55,-1.53,-1.50
376.56,-0.18,1.33,-0.18,1.32,-1.31,-1.58,-1.02,-1.49,-1.49,-1.51
380.33,-0.19,1.31,-0.21,1.29,-1.26,-1.54,-0.97,-1.45,-1.47,-1.50
384.13,-0.26,1.24,-0.25,1.25,-1.22,-1.50,-0.91,-1.47,-1.47,-1.50
387.97,-0.33,1.17,-0.32,1.18,-1.18,-1.46,-0.86,-1.51,-1.50,-1.49
391.85,-0.38,1.12,-0.39,1.11,-1.14,-1.42,-0.80,-1.52,-1.53,-1.49
395.77,-0.45,1.06,-0.43,1.07,-1.10,-1.37,-0.75,-1.54,-1.53,-1.51
399.73,-0.47,1.05,-0.45,1.06,-1.05,-1.33,-0.70,-1.52,-1.50,-1.52
403.72,-0.47,1.04,-0.49,1.03,-1.01,-1.29,-0.65,-1.48,-1.50,-1.51
407.76,-0.51,1.01,-0.54,0.98,-0.97,-1.25,-0.60,-1.47,-1.51,-1.52
411.84,-0.64,0.89,-0.60,0.93,-0.93,-1.20,-0.55,-1.56,-1.53,-1.53
415.96,-0.68,0.86,-0.66,0.88,-0.89,-1.16,-0.50,-1.56,-1.55,-1.53
420.12,-0.68,0.87,-0.71,0.83,-0.84,-1.11,-0.46,-1.52,-1.55,-1.54
424.32,-0.74,0.80,-0.72,0.81,-0.79,-1.07,-0.41,-1.53,-1.51,-1.53
428.56,-0.76,0.76,-0.75,0.77,-0.74,-1.02,-0.37,-1.50,-1.49,-1.51
432.85,-0.77,0.73,-0.80,0.70,-0.70,-0.98,-0.33,-1.46,-1.50,-1.50
437.18,-0.86,0.62,-0.84,0.64,-0.66,-0.93,-0.28,-1.51,-1.50,-1.48
441.55,-0.88,0.57,-0.86,0.59,-0.62,-0.89,-0.24,-1.50,-1.48,-1.45
445.96,-0.85,0.56,-0.85,0.56,-0.59,-0.84,-0.20,-1.43,-1.43,-1.41
450.42,-0.80,0.56,-0.81,0.55,-0.55,-0.79,-0.17,-1.35,-1.36,-1.36
454.93,-0.77,0.54,-0.77,0.54,-0.52,-0.74,-0.13,-1.28,-1.29,-1.31
459.48,-0.77,0.50,-0.75,0.51,-0.48,-0.69,-0.09,-1.25,-1.23,-1.26
464.07,-0.72,0.48,-0.73,0.47,-0.45,-0.64,-0.06,-1.16,-1.17,-1.19
468.71,-0.72,0.42,-0.72,0.41,-0.41,-0.59,-0.03,-1.13,-1.13,-1.13
473.40,-0.72,0.37,-0.72,0.36,-0.37,-0.54,0.00,-1.09,-1.09,-1.08
478.13,-0.74,0.29,-0.71,0.31,-0.33,-0.49,0.03,-1.07,-1.04,-1.02
482.91,-0.70,0.28,-0.70,0.27,-0.29,-0.44,0.06,-0.98,-0.99,-0.98
487.74,-0.67,0.26,-0.69,0.23,-0.25,-0.39,0.09,-0.91,-0.94,-0.93
492.62,-0.70,0.19,-0.68,0.21,-0.21,-0.34,0.11,-0.90,-0.89,-0.89
497.55,-0.70,0.16,-0.68,0.18,-0.17,-0.28,0.13,-0.87,-0.85,-0.86
502.52,-0.67,0.16,-0.68,0.15,-0.13,-0.23,0.16,-0.80,-0.81,-0.83
507.55,-0.68,0.12,-0.69,0.12,-0.10,-0.18,0.18,-0.77,-0.78,-0.80
