frequency,raw,error,smoothed,error_smoothed,equalization,parametric_eq,fixed_band_eq,equalized_raw,equalized_smoothed,target
20.00,-28.71,-26.96,-28.71,-26.96,6.00,5.47,2.84,-22.71,-22.71,-1.75
20.20,-28.54,-26.83,-28.54,-26.83,6.00,5.51,2.92,-22.54,-22.54,-1.71
20.40,-28.36,-26.68,-28.37,-26.69,6.00,5.55,3.00,-22.36,-22.37,-1.68
20.61,-28.19,-26.55,-28.19,-26.55,6.00,5.59,3.09,-22.19,-22.19,-1.65
20.81,-28.02,-26.40,-28.02,-26.40,6.00,5.63,3.18,-22.02,-22.02,-1.62
21.02,-27.84,-26.25,-27.83,-26.24,6.00,5.67,3.27,-21.84,-21.83,-1.59
21.23,-27.63,-26.06,-27.63,-26.06,6.00,5.70,3.36,-21.63,-21.63,-1.57
21.44,-27.43,-25.87,-27.43,-25.87,6.00,5.74,3.46,-21.43,-21.43,-1.56
21.66,-27.22,-25.67,-27.22,-25.67,6.00,5.77,3.56,-21.22,-21.22,-1.55
21.87,-27.02,-25.48,-27.02,-25.48,6.00,5.81,3.66,-21.02,-21.02,-1.54
22.09,-26.83,-25.30,-26.83,-25.30,6.00,5.84,3.76,-20.83,-20.83,-1.53
22.31,-26.66,-25.14,-26.66,-25.13,6.00,5.87,3.87,-20.66,-20.66,-1.52
22.54,-26.49,-24.97,-26.49,-24.97,6.00,5.90,3.98,-20.49,-20.49,-1.52
22.76,-26.33,-24.81,-26.33,-24.81,6.00,5.92,4.09,-20.33,-20.33,-1.52
22.99,-26.16,-24.64,-26.17,-24.65,6.00,5.95,4.21,-20.16,-20.17,-1.52
23.22,-26.01,-24.50,-26.01,-24.49,6.00,5.97,4.33,-20.01,-20.01,-1.51
23.45,-25.85,-24.34,-25.86,-24.35,6.00,6.00,4.45,-19.85,-19.86,-1.51
23.69,-25.70,-24.20,-25.70,-24.20,6.00,6.02,4.57,-19.70,-19.70,-1.50
23.92,-25.55,-24.05,-25.54,-24.04,6.00,6.04,4.70,-19.55,-19.54,-1.50
24.16,-25.36,-23.87,-25.36,-23.86,6.00,6.06,4.83,-19.36,-19.36,-1.49
24.40,-25.15,-23.65,-25.15,-23.65,6.00,6.07,4.96,-19.15,-19.15,-1.49
24.65,-24.94,-23.44,-24.94,-23.44,6.00,6.09,5.09,-18.94,-18.94,-1.50
24.89,-24.73,-23.22,-24.74,-23.24,6.00,6.10,5.23,-18.73,-18.74,-1.50
25.14,-24.57,-23.06,-24.57,-23.07,6.00,6.11,5.36,-18.57,-18.57,-1.50
25.39,-24.44,-22.92,-24.44,-22.92,6.00,6.12,5.50,-18.44,-18.44,-1.51
25.65,-24.31,-22.80,-24.31,-22.79,6.00,6.12,5.64,-18.31,-18.31,-1.52
25.91,-24.19,-22.67,-24.18,-22.66,6.00,6.13,5.78,-18.19,-18.18,-1.53
26.16,-24.04,-22.50,-24.04,-22.51,6.00,6.13,5.92,-18.04,-18.04,-1.54
26.43,-23.88,-22.35,-23.88,-22.35,6.00,6.13,6.06,-17.88,-17.88,-1.54
26.69,-23.72,-22.17,-23.72,-22.18,6.00,6.13,6.19,-17.72,-17.72,-1.55
26.96,-23.56,-22.01,-23.56,-22.01,6.00,6.12,6.33,-17.56,-17.56,-1.55
27.23,-23.39,-21.83,-23.39,-21.83,6.00,6.12,6.46,-17.39,-17.39,-1.56
27.50,-23.22,-21.66,-23.21,-21.65,6.00,6.11,6.59,-17.22,-17.21,-1.56
27.77,-23.06,-21.48,-23.06,-21.48,6.00,6.10,6.72,-17.06,-17.06,-1.58
28.05,-22.91,-21.33,-22.94,-21.36,6.00,6.08,6.84,-16.91,-16.94,-1.58
28.33,-22.87,-21.28,-22.88,-21.29,6.00,6.07,6.95,-16.87,-16.88,-1.59
28.62,-22.83,-21.23,-22.84,-21.24,6.00,6.05,7.06,-16.83,-16.84,-1.60
28.90,-22.79,-21.19,-22.74,-21.13,6.00,6.03,7.16,-16.79,-16.74,-1.60
29.19,-22.56,-20.95,-22.54,-20.93,6.00,6.01,7.25,-16.56,-16.54,-1.61
29.48,-22.23,-20.62,-22.24,-20.63,6.00,5.99,7.34,-16.23,-16.24,-1.61
29.78,-21.90,-20.29,-21.91,-20.30,6.00,5.97,7.41,-15.90,-15.91,-1.62
30.08,-21.61,-19.98,-21.63,-20.01,6.00,5.94,7.47,-15.61,-15.63,-1.63
30.38,-21.41,-19.77,-21.41,-19.77,6.00,5.92,7.53,-15.41,-15.41,-1.64
30.68,-21.23,-19.59,-21.22,-19.57,6.00,5.89,7.57,-15.23,-15.22,-1.64
30.99,-21.04,-19.39,-21.05,-19.40,6.00,5.87,7.60,-15.04,-15.05,-1.65
31.30,-20.87,-19.22,-20.88,-19.23,6.00,5.84,7.61,-14.87,-14.88,-1.65
31.61,-20.71,-19.06,-20.71,-19.05,6.00,5.82,7.62,-14.71,-14.71,-1.65
31.93,-20.54,-18.88,-20.53,-18.86,6.00,5.79,7.61,-14.54,-14.53,-1.66
32.24,-20.34,-18.65,-20.33,-18.66,6.00,5.77,7.59,-14.34,-14.33,-1.69
32.57,-20.12,-18.43,-20.12,-18.44,6.00,5.75,7.56,-14.12,-14.12,-1.69
32.89,-19.91,-18.23,-19.92,-18.23,6.00,5.73,7.52,-13.91,-13.92,-1.68
33.22,-19.73,-18.04,-19.73,-18.04,6.00,5.71,7.47,-13.73,-13.73,-1.69
33.55,-19.57,-17.88,-19.56,-17.87,6.00,5.69,7.41,-13.57,-13.56,-1.69
33.89,-19.41,-17.71,-19.41,-17.71,6.00,5.68,7.35,-13.41,-13.41,-1.70
34.23,-19.27,-17.57,-19.28,-17.57,6.00,5.67,7.27,-13.27,-13.28,-1.71
34.57,-19.14,-17.42,-19.14,-17.43,6.00,5.66,7.19,-13.14,-13.14,-1.72
34.92,-19.00,-17.28,-18.98,-17.26,6.00,5.65,7.10,-13.00,-12.98,-1.72
35.27,-18.77,-17.05,-18.75,-17.03,6.00,5.65,7.01,-12.77,-12.75,-1.72
35.62,-18.51,-16.78,-18.51,-16.79,6.00,5.65,6.92,-12.51,-12.51,-1.73
35.97,-18.25,-16.51,-18.30,-16.57,6.00,5.66,6.82,-12.25,-12.30,-1.74
36.33,-18.14,-16.40,-18.15,-16.41,6.00,5.67,6.72,-12.14,-12.15,-1.74
36.70,-18.03,-16.28,-18.01,-16.27,6.00,5.68,6.62,-12.03,-12.01,-1.75
37.06,-17.89,-16.12,-17.82,-16.07,6.00,5.70,6.51,-11.89,-11.82,-1.76
37.43,-17.55,-15.78,-17.55,-15.78,6.00,5.71,6.41,-11.55,-11.55,-1.76
37.81,-17.21,-15.43,-17.25,-15.47,6.00,5.74,6.31,-11.21,-11.25,-1.78
38.19,-16.96,-15.17,-16.99,-15.20,6.00,5.76,6.21,-10.96,-10.99,-1.79
38.57,-16.81,-15.02,-16.80,-15.00,6.00,5.78,6.11,-10.81,-10.80,-1.79
38.95,-16.65,-14.84,-16.63,-14.82,6.00,5.81,6.01,-10.65,-10.63,-1.81
39.34,-16.46,-14.64,-16.46,-14.64,6.00,5.84,5.91,-10.46,-10.46,-1.82
39.74,-16.27,-14.44,-16.27,-14.45,6.00,5.87,5.82,-10.27,-10.27,-1.83
40.14,-16.08,-14.26,-16.09,-14.26,6.00,5.90,5.73,-10.08,-10.09,-1.82
40.54,-15.91,-14.07,-15.91,-14.07,6.00,5.93,5.64,-9.91,-9.91,-1.84
40.94,-15.74,-13.90,-15.74,-13.90,6.00,5.96,5.56,-9.74,-9.74,-1.84
41.35,-15.57,-13.71,-15.58,-13.72,6.00,5.99,5.47,-9.57,-9.58,-1.85
41.76,-15.41,-13.55,-15.40,-13.54,6.00,6.02,5.40,-9.41,-9.40,-1.86
42.18,-15.22,-13.35,-15.21,-13.34,6.00,6.05,5.32,-9.22,-9.21,-1.87
42.60,-15.00,-13.11,-15.00,-13.12,6.00,6.07,5.25,-9.00,-9.00,-1.89
43.03,-14.79,-12.89,-14.79,-12.88,6.00,6.09,5.19,-8.79,-8.79,-1.90
43.46,-14.59,-12.66,-14.59,-12.66,6.00,6.11,5.12,-8.59,-8.59,-1.93
43.90,-14.40,-12.44,-14.42,-12.47,6.00,6.13,5.07,-8.40,-8.42,-1.96
44.33,-14.27,-12.28,-14.28,-12.30,6.00,6.15,5.01,-8.27,-8.28,-1.98
44.78,-14.17,-12.16,-14.15,-12.14,6.00,6.16,4.96,-8.17,-8.15,-2.01
45.23,-14.00,-11.97,-13.99,-11.95,6.00,6.16,4.91,-8.00,-7.99,-2.03
45.68,-13.77,-11.71,-13.77,-11.72,6.00,6.17,4.87,-7.77,-7.77,-2.06
46.13,-13.52,-11.44,-13.52,-11.45,6.00,6.17,4.83,-7.52,-7.52,-2.08
46.60,-13.26,-11.18,-13.26,-11.18,6.00,6.17,4.79,-7.26,-7.26,-2.08
47.06,-13.01,-10.91,-13.01,-10.91,6.00,6.16,4.76,-7.01,-7.01,-2.10
47.53,-12.77,-10.66,-12.76,-10.66,6.00,6.15,4.73,-6.77,-6.76,-2.11
48.01,-12.53,-10.42,-12.56,-10.45,6.00,6.13,4.71,-6.53,-6.56,-2.11
48.49,-12.37,-10.26,-12.38,-10.25,6.00,6.11,4.68,-6.37,-6.38,-2.12
48.97,-12.22,-10.09,-12.16,-10.03,6.00,6.09,4.67,-6.22,-6.16,-2.13
49.46,-11.94,-9.80,-11.94,-9.80,6.00,6.06,4.65,-5.94,-5.94,-2.14
49.96,-11.65,-9.51,-11.71,-9.58,6.00,6.02,4.63,-5.65,-5.71,-2.14
50.46,-11.50,-9.38,-11.50,-9.37,6.00,5.99,4.62,-5.50,-5.50,-2.12
50.96,-11.35,-9.23,-11.31,-9.18,6.00,5.94,4.61,-5.35,-5.31,-2.12
51.47,-11.10,-8.97,-11.10,-8.97,6.00,5.90,4.60,-5.10,-5.10,-2.13
51.99,-10.84,-8.70,-10.84,-8.71,6.00,5.85,4.59,-4.84,-4.84,-2.14
52.51,-10.58,-8.44,-10.58,-8.43,6.00,5.79,4.59,-4.58,-4.58,-2.14
53.03,-10.32,-8.16,-10.35,-8.19,6.00,5.73,4.58,-4.32,-4.35,-2.16
53.56,-10.16,-7.98,-10.16,-7.98,6.00,5.67,4.58,-4.16,-4.16,-2.18
54.10,-10.00,-7.81,-10.01,-7.81,6.00,5.60,4.57,-4.00,-4.01,-2.20
54.64,-9.87,-7.64,-9.86,-7.64,6.01,5.53,4.56,-3.86,-3.85,-2.23
55.18,-9.70,-7.44,-9.68,-7.42,6.03,5.46,4.56,-3.67,-3.65,-2.26
55.74,-9.45,-7.16,-9.46,-7.17,6.04,5.38,4.55,-3.41,-3.41,-2.29
56.29,-9.19,-6.88,-9.20,-6.89,6.05,5.29,4.54,-3.14,-3.16,-2.31
56.86,-8.94,-6.60,-8.93,-6.58,6.02,5.20,4.52,-2.92,-2.90,-2.34
57.42,-8.68,-6.30,-8.68,-6.30,5.96,5.11,4.51,-2.71,-2.71,-2.38
58.00,-8.42,-6.01,-8.47,-6.05,5.87,5.02,4.49,-2.55,-2.60,-2.41
58.58,-8.29,-5.84,-8.28,-5.83,5.73,4.92,4.46,-2.56,-2.55,-2.45
59.16,-8.12,-5.65,-8.08,-5.61,5.56,4.81,4.44,-2.56,-2.52,-2.47
59.76,-7.86,-5.36,-7.86,-5.35,5.35,4.70,4.41,-2.51,-2.50,-2.50
60.35,-7.59,-5.04,-7.60,-5.05,5.11,4.59,4.37,-2.48,-2.49,-2.55
60.96,-7.33,-4.75,-7.36,-4.77,4.85,4.48,4.33,-2.49,-2.52,-2.58
61.57,-7.17,-4.53,-7.17,-4.54,4.56,4.36,4.28,-2.61,-2.61,-2.64
62.18,-7.00,-4.33,-6.99,-4.32,4.29,4.23,4.23,-2.71,-2.71,-2.67
62.80,-6.82,-4.11,-6.78,-4.07,4.03,4.11,4.17,-2.79,-2.75,-2.71
63.43,-6.55,-3.79,-6.54,-3.79,3.78,3.98,4.10,-2.77,-2.76,-2.76
64.07,-6.26,-3.48,-6.32,-3.53,3.56,3.84,4.03,-2.70,-2.76,-2.78
64.71,-6.14,-3.32,-6.14,-3.32,3.36,3.70,3.96,-2.79,-2.79,-2.82
65.35,-6.03,-3.18,-6.01,-3.16,3.18,3.56,3.88,-2.85,-2.83,-2.85
66.01,-5.92,-3.03,-5.90,-3.01,3.03,3.41,3.79,-2.89,-2.86,-2.89
66.67,-5.77,-2.86,-5.79,-2.88,2.92,3.26,3.70,-2.85,-2.87,-2.91
67.33,-5.69,-2.75,-5.71,-2.78,2.84,3.11,3.60,-2.85,-2.87,-2.94
68.01,-5.69,-2.73,-5.68,-2.73,2.78,2.95,3.50,-2.91,-2.90,-2.96
68.69,-5.69,-2.71,-5.70,-2.72,2.71,2.79,3.39,-2.98,-2.98,-2.98
69.37,-5.69,-2.69,-5.69,-2.69,2.63,2.62,3.28,-3.06,-3.06,-3.00
70.07,-5.67,-2.65,-5.64,-2.62,2.53,2.45,3.17,-3.14,-3.11,-3.02
70.77,-5.51,-2.48,-5.53,-2.49,2.40,2.28,3.05,-3.11,-3.12,-3.03
71.48,-5.35,-2.31,-5.35,-2.30,2.25,2.10,2.93,-3.10,-3.10,-3.04
72.19,-5.15,-2.08,-5.13,-2.06,2.07,1.92,2.81,-3.08,-3.06,-3.07
72.91,-4.89,-1.80,-4.90,-1.81,1.85,1.73,2.68,-3.04,-3.05,-3.09
73.64,-4.66,-1.54,-4.69,-1.58,1.60,1.54,2.56,-3.06,-3.09,-3.12
74.38,-4.49,-1.36,-4.49,-1.36,1.36,1.35,2.43,-3.13,-3.14,-3.13
75.12,-4.34,-1.18,-4.29,-1.13,1.11,1.16,2.30,-3.22,-3.17,-3.16
75.87,-4.07,-0.88,-4.07,-0.88,0.89,0.97,2.17,-3.18,-3.18,-3.19
76.63,-3.81,-0.61,-3.84,-0.64,0.68,0.77,2.03,-3.13,-3.16,-3.20
77.40,-3.64,-0.42,-3.66,-0.44,0.49,0.57,1.90,-3.15,-3.17,-3.22
78.17,-3.54,-0.30,-3.52,-0.29,0.32,0.38,1.77,-3.22,-3.20,-3.24
78.95,-3.42,-0.18,-3.39,-0.15,0.15,0.19,1.63,-3.27,-3.24,-3.24
79.74,-3.24,0.01,-3.26,-0.01,-0.01,-0.00,1.50,-3.25,-3.26,-3.25
80.54,-3.10,0.16,-3.13,0.12,-0.16,-0.18,1.36,-3.26,-3.29,-3.26
81.35,-3.01,0.25,-2.99,0.27,-0.30,-0.36,1.22,-3.31,-3.29,-3.26
82.16,-2.89,0.37,-2.85,0.41,-0.44,-0.53,1.09,-3.33,-3.29,-3.26
82.98,-2.63,0.62,-2.68,0.57,-0.59,-0.69,0.95,-3.22,-3.27,-3.25
83.81,-2.52,0.73,-2.50,0.75,-0.73,-0.84,0.82,-3.25,-3.23,-3.25
84.65,-2.35,0.90,-2.35,0.90,-0.87,-0.97,0.68,-3.22,-3.21,-3.25
85.50,-2.21,1.02,-2.23,1.00,-1.00,-1.10,0.55,-3.21,-3.23,-3.23
86.35,-2.10,1.12,-2.08,1.14,-1.12,-1.21,0.41,-3.22,-3.20,-3.22
87.22,-1.99,1.22,-1.97,1.24,-1.23,-1.32,0.27,-3.22,-3.20,-3.21
88.09,-1.81,1.39,-1.87,1.33,-1.34,-1.41,0.14,-3.15,-3.20,-3.20
88.97,-1.81,1.38,-1.77,1.42,-1.44,-1.49,0.00,-3.25,-3.21,-3.19
89.86,-1.66,1.51,-1.67,1.51,-1.54,-1.56,-0.13,-3.20,-3.20,-3.17
90.76,-1.58,1.60,-1.57,1.60,-1.64,-1.62,-0.27,-3.22,-3.21,-3.18
91.66,-1.43,1.74,-1.45,1.72,-1.73,-1.68,-0.40,-3.16,-3.18,-3.17
92.58,-1.36,1.81,-1.35,1.82,-1.82,-1.73,-0.54,-3.18,-3.16,-3.17
93.51,-1.26,1.90,-1.25,1.92,-1.89,-1.78,-0.67,-3.15,-3.13,-3.16
94.44,-1.15,2.01,-1.18,1.99,-1.94,-1.82,-0.81,-3.09,-3.12,-3.16
95.39,-1.13,2.04,-1.13,2.03,-1.99,-1.87,-0.95,-3.12,-3.12,-3.17
96.34,-1.13,2.04,-1.12,2.05,-2.02,-1.91,-1.08,-3.15,-3.14,-3.17
97.30,-1.13,2.04,-1.13,2.05,-2.05,-1.95,-1.22,-3.18,-3.18,-3.17
98.28,-1.13,2.05,-1.14,2.05,-2.09,-1.99,-1.35,-3.22,-3.22,-3.18
99.26,-1.13,2.06,-1.14,2.05,-2.12,-2.03,-1.48,-3.25,-3.26,-3.19
100.25,-1.12,2.08,-1.09,2.10,-2.15,-2.07,-1.62,-3.27,-3.25,-3.20
101.25,-1.05,2.16,-1.02,2.18,-2.19,-2.11,-1.75,-3.24,-3.22,-3.21
102.27,-0.90,2.32,-0.95,2.27,-2.24,-2.15,-1.88,-3.14,-3.19,-3.22
103.29,-0.90,2.35,-0.90,2.34,-2.29,-2.20,-2.01,-3.19,-3.19,-3.25
104.32,-0.90,2.37,-0.89,2.38,-2.35,-2.24,-2.14,-3.25,-3.23,-3.27
105.37,-0.90,2.40,-0.90,2.40,-2.40,-2.29,-2.27,-3.30,-3.30,-3.30
106.42,-0.90,2.43,-0.90,2.43,-2.45,-2.33,-2.39,-3.35,-3.35,-3.33
107.48,-0.90,2.47,-0.90,2.47,-2.49,-2.38,-2.52,-3.39,-3.39,-3.38
108.56,-0.90,2.52,-0.90,2.52,-2.53,-2.42,-2.64,-3.43,-3.43,-3.42
109.64,-0.90,2.56,-0.90,2.56,-2.57,-2.47,-2.76,-3.47,-3.47,-3.46
110.74,-0.90,2.61,-0.90,2.61,-2.61,-2.51,-2.87,-3.51,-3.51,-3.51
111.85,-0.90,2.65,-0.90,2.66,-2.67,-2.56,-2.98,-3.57,-3.57,-3.55
112.97,-0.90,2.72,-0.90,2.71,-2.73,-2.61,-3.08,-3.63,-3.63,-3.62
114.10,-0.90,2.76,-0.90,2.76,-2.78,-2.65,-3.19,-3.68,-3.68,-3.66
115.24,-0.90,2.82,-0.90,2.82,-2.82,-2.70,-3.28,-3.72,-3.72,-3.72
116.39,-0.90,2.86,-0.90,2.87,-2.85,-2.74,-3.37,-3.75,-3.75,-3.77
117.55,-0.90,2.91,-0.88,2.93,-2.87,-2.78,-3.46,-3.77,-3.75,-3.81
118.73,-0.90,2.95,-0.91,2.93,-2.88,-2.83,-3.53,-3.78,-3.79,-3.85
119.92,-0.91,2.97,-0.98,2.90,-2.88,-2.87,-3.61,-3.79,-3.86,-3.88
121.12,-1.13,2.78,-1.06,2.85,-2.88,-2.91,-3.67,-4.00,-3.93,-3.91
122.33,-1.13,2.81,-1.12,2.82,-2.87,-2.95,-3.73,-4.00,-3.99,-3.94
123.55,-1.13,2.83,-1.15,2.81,-2.86,-2.98,-3.78,-3.99,-4.01,-3.96
124.79,-1.13,2.85,-1.13,2.85,-2.86,-3.02,-3.82,-3.99,-3.99,-3.98
126.03,-1.13,2.88,-1.13,2.87,-2.87,-3.06,-3.86,-4.00,-4.00,-4.01
127.29,-1.13,2.89,-1.13,2.90,-2.88,-3.09,-3.89,-4.02,-4.02,-4.02
128.57,-1.13,2.92,-1.13,2.92,-2.91,-3.12,-3.91,-4.04,-4.04,-4.06
129.85,-1.13,2.95,-1.13,2.95,-2.94,-3.15,-3.92,-4.07,-4.07,-4.08
131.15,-1.13,2.97,-1.13,2.97,-2.97,-3.18,-3.93,-4.10,-4.10,-4.10
132.46,-1.13,2.99,-1.13,2.99,-2.99,-3.21,-3.93,-4.12,-4.12,-4.12
133.79,-1.13,3.01,-1.13,3.01,-3.01,-3.24,-3.93,-4.14,-4.14,-4.14
135.12,-1.13,3.04,-1.13,3.03,-3.04,-3.26,-3.92,-4.17,-4.17,-4.17
136.48,-1.13,3.05,-1.13,3.05,-3.07,-3.28,-3.90,-4.20,-4.20,-4.18
137.84,-1.13,3.08,-1.13,3.08,-3.10,-3.31,-3.88,-4.23,-4.23,-4.21
139.22,-1.13,3.12,-1.13,3.11,-3.12,-3.33,-3.86,-4.25,-4.25,-4.25
140.61,-1.13,3.14,-1.13,3.13,-3.12,-3.34,-3.83,-4.25,-4.25,-4.27
142.02,-1.13,3.15,-1.12,3.17,-3.12,-3.36,-3.80,-4.25,-4.24,-4.28
143.44,-1.13,3.17,-1.13,3.17,-3.12,-3.38,-3.77,-4.25,-4.25,-4.30
144.87,-1.13,3.20,-1.18,3.15,-3.12,-3.39,-3.73,-4.26,-4.31,-4.33
146.32,-1.28,3.09,-1.26,3.11,-3.13,-3.40,-3.69,-4.41,-4.38,-4.37
147.78,-1.36,3.03,-1.33,3.07,-3.13,-3.41,-3.66,-4.49,-4.46,-4.39
149.26,-1.36,3.07,-1.37,3.06,-3.13,-3.42,-3.62,-4.49,-4.51,-4.43
150.75,-1.36,3.12,-1.36,3.12,-3.14,-3.43,-3.58,-4.50,-4.50,-4.49
152.26,-1.36,3.18,-1.35,3.19,-3.14,-3.44,-3.54,-4.50,-4.49,-4.54
153.78,-1.36,3.24,-1.38,3.22,-3.16,-3.44,-3.50,-4.52,-4.55,-4.60
155.32,-1.41,3.26,-1.45,3.21,-3.19,-3.45,-3.46,-4.60,-4.64,-4.67
156.88,-1.57,3.15,-1.52,3.20,-3.22,-3.45,-3.42,-4.79,-4.74,-4.72
158.44,-1.59,3.19,-1.58,3.20,-3.24,-3.45,-3.39,-4.83,-4.82,-4.78
160.03,-1.59,3.25,-1.60,3.23,-3.26,-3.45,-3.35,-4.85,-4.87,-4.84
161.63,-1.59,3.29,-1.58,3.31,-3.28,-3.45,-3.32,-4.87,-4.86,-4.88
163.24,-1.59,3.34,-1.60,3.33,-3.30,-3.45,-3.28,-4.89,-4.90,-4.93
164.88,-1.59,3.37,-1.64,3.33,-3.33,-3.45,-3.25,-4.92,-4.97,-4.96
166.53,-1.72,3.27,-1.65,3.34,-3.36,-3.45,-3.23,-5.08,-5.01,-4.99
168.19,-1.66,3.36,-1.65,3.37,-3.39,-3.44,-3.20,-5.05,-5.04,-5.02
169.87,-1.59,3.45,-1.63,3.41,-3.41,-3.44,-3.18,-5.00,-5.04,-5.04
171.57,-1.59,3.46,-1.59,3.46,-3.43,-3.43,-3.15,-5.02,-5.02,-5.05
173.29,-1.59,3.45,-1.58,3.46,-3.44,-3.42,-3.14,-5.03,-5.02,-5.04
175.02,-1.59,3.45,-1.59,3.45,-3.45,-3.42,-3.12,-5.04,-5.04,-5.04
176.77,-1.59,3.46,-1.59,3.45,-3.45,-3.41,-3.10,-5.04,-5.04,-5.05
178.54,-1.59,3.45,-1.59,3.45,-3.45,-3.40,-3.09,-5.04,-5.04,-5.04
180.32,-1.59,3.45,-1.59,3.45,-3.44,-3.39,-3.08,-5.03,-5.03,-5.04
182.13,-1.59,3.44,-1.59,3.44,-3.44,-3.38,-3.08,-5.03,-5.03,-5.03
183.95,-1.59,3.45,-1.59,3.44,-3.44,-3.37,-3.07,-5.03,-5.03,-5.04
185.79,-1.59,3.44,-1.60,3.44,-3.46,-3.35,-3.07,-5.05,-5.06,-5.03
187.65,-1.59,3.46,-1.60,3.45,-3.50,-3.34,-3.07,-5.09,-5.10,-5.05
189.52,-1.59,3.48,-1.57,3.49,-3.54,-3.33,-3.07,-5.13,-5.11,-5.07
191.42,-1.53,3.55,-1.51,3.57,-3.60,-3.32,-3.08,-5.13,-5.10,-5.08
193.33,-1.41,3.68,-1.44,3.65,-3.65,-3.30,-3.08,-5.06,-5.08,-5.09
195.27,-1.36,3.74,-1.38,3.73,-3.69,-3.29,-3.09,-5.05,-5.07,-5.10
197.22,-1.36,3.75,-1.35,3.77,-3.72,-3.27,-3.10,-5.08,-5.07,-5.11
199.19,-1.36,3.78,-1.35,3.79,-3.73,-3.26,-3.12,-5.10,-5.08,-5.14
201.18,-1.36,3.80,-1.37,3.78,-3.74,-3.24,-3.13,-5.10,-5.11,-5.16
203.19,-1.40,3.77,-1.43,3.74,-3.73,-3.23,-3.15,-5.13,-5.16,-5.17
205.23,-1.53,3.66,-1.51,3.68,-3.72,-3.21,-3.16,-5.25,-5.22,-5.19
207.28,-1.59,3.60,-1.57,3.63,-3.70,-3.20,-3.18,-5.29,-5.27,-5.20
209.35,-1.59,3.62,-1.60,3.62,-3.68,-3.18,-3.20,-5.27,-5.28,-5.21
211.44,-1.59,3.65,-1.60,3.64,-3.66,-3.16,-3.22,-5.25,-5.25,-5.24
213.56,-1.59,3.66,-1.58,3.67,-3.64,-3.15,-3.24,-5.23,-5.22,-5.25
215.69,-1.59,3.66,-1.59,3.67,-3.62,-3.13,-3.26,-5.21,-5.20,-5.25
217.85,-1.59,3.68,-1.62,3.65,-3.60,-3.11,-3.28,-5.19,-5.22,-5.27
220.03,-1.68,3.61,-1.69,3.60,-3.58,-3.10,-3.30,-5.26,-5.27,-5.29
222.23,-1.78,3.52,-1.75,3.55,-3.56,-3.08,-3.32,-5.34,-5.32,-5.30
224.45,-1.81,3.49,-1.80,3.50,-3.55,-3.07,-3.34,-5.36,-5.35,-5.30
226.70,-1.81,3.50,-1.82,3.49,-3.53,-3.05,-3.36,-5.34,-5.35,-5.31
228.96,-1.81,3.49,-1.81,3.49,-3.52,-3.03,-3.38,-5.33,-5.33,-5.30
231.25,-1.81,3.49,-1.81,3.49,-3.50,-3.02,-3.39,-5.31,-5.31,-5.30
233.57,-1.81,3.50,-1.81,3.50,-3.48,-3.00,-3.41,-5.29,-5.29,-5.31
235.90,-1.81,3.50,-1.80,3.51,-3.46,-2.98,-3.42,-5.27,-5.26,-5.31
238.26,-1.81,3.50,-1.81,3.50,-3.43,-2.97,-3.43,-5.24,-5.24,-5.31
240.64,-1.81,3.49,-1.87,3.43,-3.40,-2.95,-3.44,-5.21,-5.27,-5.30
243.05,-1.97,3.32,-1.94,3.35,-3.36,-2.94,-3.44,-5.33,-5.30,-5.29
245.48,-2.04,3.23,-2.01,3.27,-3.31,-2.92,-3.44,-5.35,-5.32,-5.27
247.93,-2.04,3.22,-2.05,3.21,-3.26,-2.91,-3.44,-5.30,-5.32,-5.26
250.41,-2.04,3.21,-2.05,3.20,-3.22,-2.89,-3.44,-5.26,-5.27,-5.25
252.92,-2.04,3.19,-2.04,3.19,-3.19,-2.88,-3.43,-5.23,-5.23,-5.23
255.45,-2.04,3.16,-2.04,3.17,-3.17,-2.86,-3.42,-5.21,-5.21,-5.20
258.00,-2.04,3.15,-2.04,3.15,-3.15,-2.85,-3.41,-5.19,-5.19,-5.19
260.58,-2.04,3.14,-2.04,3.13,-3.14,-2.84,-3.40,-5.18,-5.18,-5.18
263.19,-2.04,3.12,-2.04,3.12,-3.12,-2.82,-3.38,-5.16,-5.16,-5.16
265.82,-2.04,3.10,-2.03,3.11,-3.08,-2.81,-3.36,-5.12,-5.12,-5.14
268.48,-2.04,3.08,-2.03,3.09,-3.04,-2.80,-3.34,-5.08,-5.07,-5.12
271.16,-2.04,3.06,-2.07,3.03,-2.99,-2.79,-3.31,-5.03,-5.06,-5.10
273.87,-2.12,2.96,-2.14,2.94,-2.93,-2.78,-3.29,-5.05,-5.07,-5.08
276.61,-2.25,2.80,-2.21,2.85,-2.87,-2.77,-3.26,-5.12,-5.08,-5.05
279.38,-2.27,2.77,-2.27,2.77,-2.82,-2.76,-3.23,-5.09,-5.08,-5.04
282.17,-2.27,2.74,-2.28,2.73,-2.76,-2.75,-3.20,-5.03,-5.04,-5.01
284.99,-2.27,2.71,-2.27,2.71,-2.72,-2.74,-3.17,-4.99,-4.99,-4.98
287.84,-2.27,2.68,-2.27,2.69,-2.68,-2.73,-3.13,-4.95,-4.95,-4.95
290.72,-2.27,2.66,-2.27,2.66,-2.64,-2.72,-3.10,-4.91,-4.91,-4.93
293.63,-2.27,2.64,-2.27,2.63,-2.61,-2.72,-3.07,-4.88,-4.88,-4.91
296.57,-2.27,2.60,-2.27,2.61,-2.59,-2.71,-3.04,-4.86,-4.86,-4.87
299.53,-2.27,2.58,-2.27,2.59,-2.57,-2.70,-3.01,-4.84,-4.84,-4.85
302.53,-2.27,2.58,-2.27,2.57,-2.57,-2.70,-2.97,-4.84,-4.84,-4.85
305.55,-2.27,2.54,-2.28,2.53,-2.57,-2.69,-2.94,-4.84,-4.85,-4.81
308.61,-2.27,2.53,-2.27,2.52,-2.58,-2.69,-2.91,-4.85,-4.85,-4.80
311.69,-2.27,2.50,-2.22,2.55,-2.59,-2.69,-2.88,-4.86,-4.81,-4.77
314.81,-2.13,2.63,-2.15,2.61,-2.62,-2.68,-2.86,-4.75,-4.76,-4.76
317.96,-2.05,2.70,-2.08,2.67,-2.64,-2.68,-2.83,-4.69,-4.72,-4.75
321.14,-2.04,2.71,-2.03,2.71,-2.66,-2.68,-2.80,-4.70,-4.69,-4.75
324.35,-2.04,2.71,-2.03,2.71,-2.67,-2.68,-2.78,-4.71,-4.71,-4.75
327.59,-2.04,2.69,-2.04,2.70,-2.68,-2.68,-2.76,-4.72,-4.72,-4.73
330.87,-2.04,2.68,-2.04,2.69,-2.68,-2.69,-2.74,-4.72,-4.72,-4.72
334.18,-2.04,2.69,-2.04,2.68,-2.68,-2.69,-2.72,-4.72,-4.72,-4.73
337.52,-2.04,2.67,-2.05,2.66,-2.68,-2.69,-2.70,-4.72,-4.73,-4.71
340.90,-2.04,2.65,-2.05,2.64,-2.69,-2.70,-2.69,-4.73,-4.74,-4.69
344.30,-2.04,2.63,-2.02,2.65,-2.70,-2.70,-2.67,-4.74,-4.72,-4.67
347.75,-1.98,2.67,-1.96,2.70,-2.71,-2.71,-2.66,-4.69,-4.67,-4.65
351.23,-1.85,2.78,-1.88,2.75,-2.72,-2.71,-2.65,-4.57,-4.61,-4.63
354.74,-1.81,2.80,-1.82,2.79,-2.73,-2.72,-2.64,-4.54,-4.55,-4.61
358.28,-1.81,2.77,-1.80,2.79,-2.73,-2.73,-2.64,-4.54,-4.53,-4.58
361.87,-1.81,2.76,-1.81,2.76,-2.74,-2.74,-2.64,-4.55,-4.54,-4.57
365.49,-1.81,2.73,-1.81,2.73,-2.74,-2.75,-2.63,-4.55,-4.55,-4.54
369.14,-1.81,2.72,-1.82,2.71,-2.74,-2.76,-2.64,-4.55,-4.56,-4.53
372.83,-1.81,2.70,-1.82,2.69,-2.75,-2.78,-2.64,-4.56,-4.56,-4.51
376.56,-1.81,2.68,-1.78,2.71,-2.75,-2.79,-2.64,-4.56,-4.53,-4.49
380.33,-1.72,2.74,-1.71,2.75,-2.77,-2.81,-2.65,-4.49,-4.48,-4.46
384.13,-1.61,2.83,-1.64,2.81,-2.78,-2.82,-2.66,-4.39,-4.42,-4.44
387.97,-1.59,2.85,-1.59,2.84,-2.79,-2.84,-2.67,-4.38,-4.39,-4.44
391.85,-1.59,2.84,-1.58,2.85,-2.80,-2.86,-2.68,-4.39,-4.38,-4.43
395.77,-1.59,2.82,-1.59,2.83,-2.81,-2.88,-2.69,-4.40,-4.39,-4.41
399.73,-1.59,2.81,-1.59,2.82,-2.81,-2.89,-2.71,-4.40,-4.40,-4.41
