frequency,raw,error,smoothed,error_smoothed,equalization,parametric_eq,fixed_band_eq,equalized_raw,equalized_smoothed,target
20.00,7.82,0.99,7.82,1.00,-1.00,-1.34,-0.97,6.82,6.82,6.83
20.20,7.85,1.04,7.85,1.04,-1.04,-1.37,-0.99,6.81,6.81,6.81
20.40,7.89,1.09,7.89,1.09,-1.09,-1.40,-1.02,6.80,6.80,6.80
20.61,7.92,1.12,7.92,1.13,-1.13,-1.42,-1.05,6.79,6.79,6.80
20.81,7.96,1.18,7.96,1.18,-1.18,-1.45,-1.08,6.78,6.78,6.78
21.02,7.99,1.22,7.99,1.22,-1.22,-1.48,-1.11,6.77,6.77,6.77
21.23,8.03,1.28,8.03,1.27,-1.26,-1.51,-1.14,6.77,6.76,6.75
21.44,8.06,1.30,8.06,1.31,-1.31,-1.53,-1.18,6.75,6.76,6.76
21.66,8.10,1.35,8.10,1.34,-1.35,-1.56,-1.21,6.75,6.75,6.75
21.87,8.13,1.39,8.13,1.38,-1.39,-1.59,-1.25,6.74,6.74,6.74
22.09,8.16,1.43,8.16,1.43,-1.43,-1.62,-1.28,6.73,6.74,6.73
22.31,8.20,1.47,8.20,1.47,-1.46,-1.65,-1.32,6.74,6.73,6.73
22.54,8.23,1.51,8.23,1.50,-1.50,-1.67,-1.36,6.73,6.73,6.72
22.76,8.26,1.53,8.26,1.54,-1.54,-1.70,-1.40,6.72,6.72,6.73
22.99,8.30,1.58,8.30,1.58,-1.58,-1.73,-1.44,6.72,6.72,6.72
23.22,8.33,1.62,8.33,1.61,-1.61,-1.76,-1.48,6.72,6.72,6.71
23.45,8.36,1.65,8.36,1.65,-1.65,-1.79,-1.52,6.71,6.72,6.71
23.69,8.40,1.69,8.40,1.69,-1.68,-1.81,-1.56,6.72,6.71,6.71
23.92,8.43,1.72,8.43,1.72,-1.72,-1.84,-1.60,6.71,6.71,6.71
24.16,8.46,1.75,8.46,1.75,-1.75,-1.87,-1.65,6.71,6.71,6.71
24.40,8.49,1.77,8.49,1.78,-1.79,-1.90,-1.69,6.71,6.71,6.72
24.65,8.52,1.80,8.52,1.81,-1.82,-1.93,-1.74,6.70,6.70,6.72
24.89,8.56,1.85,8.56,1.85,-1.85,-1.95,-1.79,6.71,6.70,6.71
25.14,8.59,1.90,8.59,1.89,-1.89,-1.98,-1.83,6.70,6.70,6.70
25.39,8.62,1.93,8.62,1.93,-1.92,-2.01,-1.88,6.70,6.70,6.69
25.65,8.65,1.97,8.65,1.96,-1.96,-2.03,-1.93,6.69,6.69,6.68
25.91,8.68,2.00,8.68,1.99,-1.99,-2.06,-1.98,6.69,6.69,6.68
26.16,8.71,2.02,8.71,2.03,-2.03,-2.09,-2.02,6.68,6.68,6.69
26.43,8.74,2.06,8.74,2.06,-2.06,-2.11,-2.07,6.68,6.68,6.68
26.69,8.77,2.09,8.77,2.09,-2.09,-2.14,-2.12,6.68,6.68,6.68
26.96,8.80,2.12,8.80,2.12,-2.12,-2.16,-2.17,6.68,6.68,6.68
27.23,8.82,2.15,8.82,2.15,-2.15,-2.19,-2.22,6.67,6.67,6.67
27.50,8.85,2.18,8.85,2.18,-2.18,-2.21,-2.26,6.67,6.67,6.67
27.77,8.88,2.20,8.88,2.21,-2.21,-2.24,-2.31,6.67,6.67,6.68
28.05,8.91,2.24,8.91,2.23,-2.24,-2.26,-2.35,6.67,6.67,6.67
28.33,8.93,2.26,8.93,2.26,-2.26,-2.28,-2.40,6.67,6.67,6.67
28.62,8.96,2.29,8.96,2.29,-2.29,-2.31,-2.44,6.67,6.67,6.67
28.90,8.99,2.31,8.99,2.31,-2.31,-2.33,-2.48,6.68,6.68,6.68
29.19,9.02,2.34,9.02,2.34,-2.34,-2.35,-2.52,6.68,6.68,6.68
29.48,9.04,2.36,9.04,2.36,-2.36,-2.38,-2.55,6.68,6.68,6.68
29.78,9.06,2.38,9.06,2.38,-2.38,-2.40,-2.59,6.68,6.68,6.68
30.08,9.09,2.40,9.09,2.40,-2.40,-2.42,-2.62,6.69,6.68,6.69
30.38,9.11,2.43,9.11,2.43,-2.43,-2.44,-2.65,6.68,6.68,6.68
30.68,9.13,2.45,9.13,2.45,-2.45,-2.47,-2.68,6.68,6.68,6.68
30.99,9.15,2.47,9.15,2.47,-2.47,-2.49,-2.71,6.68,6.68,6.68
31.30,9.16,2.48,9.16,2.49,-2.49,-2.51,-2.73,6.67,6.68,6.68
31.61,9.18,2.50,9.18,2.51,-2.51,-2.53,-2.75,6.67,6.67,6.68
31.93,9.20,2.54,9.20,2.53,-2.53,-2.56,-2.77,6.67,6.67,6.66
32.24,9.21,2.55,9.21,2.55,-2.55,-2.58,-2.79,6.66,6.66,6.66
32.57,9.22,2.57,9.22,2.57,-2.57,-2.60,-2.80,6.65,6.65,6.65
32.89,9.24,2.59,9.24,2.59,-2.59,-2.63,-2.82,6.65,6.65,6.65
33.22,9.25,2.61,9.25,2.61,-2.61,-2.65,-2.83,6.64,6.64,6.64
33.55,9.27,2.63,9.27,2.63,-2.63,-2.67,-2.84,6.64,6.64,6.64
33.89,9.28,2.65,9.28,2.65,-2.65,-2.70,-2.84,6.63,6.63,6.63
34.23,9.30,2.68,9.30,2.68,-2.68,-2.72,-2.85,6.62,6.62,6.62
34.57,9.31,2.70,9.31,2.70,-2.70,-2.75,-2.86,6.61,6.62,6.61
34.92,9.33,2.73,9.33,2.72,-2.72,-2.77,-2.86,6.61,6.61,6.60
35.27,9.34,2.73,9.34,2.74,-2.75,-2.80,-2.87,6.59,6.59,6.61
35.62,9.35,2.78,9.35,2.77,-2.77,-2.82,-2.87,6.58,6.58,6.57
35.97,9.37,2.80,9.37,2.80,-2.80,-2.85,-2.87,6.57,6.57,6.57
36.33,9.38,2.82,9.38,2.83,-2.82,-2.87,-2.88,6.56,6.56,6.56
36.70,9.40,2.86,9.40,2.85,-2.85,-2.90,-2.88,6.55,6.55,6.54
37.06,9.41,2.88,9.41,2.88,-2.88,-2.93,-2.89,6.53,6.53,6.53
37.43,9.43,2.91,9.43,2.91,-2.91,-2.96,-2.89,6.52,6.52,6.52
37.81,9.44,2.94,9.44,2.94,-2.94,-2.98,-2.90,6.50,6.50,6.50
38.19,9.46,2.98,9.46,2.98,-2.98,-3.01,-2.90,6.48,6.48,6.48
38.57,9.47,3.01,9.47,3.01,-3.01,-3.04,-2.91,6.46,6.46,6.46
38.95,9.49,3.05,9.49,3.05,-3.05,-3.07,-2.92,6.44,6.44,6.44
39.34,9.50,3.08,9.50,3.08,-3.09,-3.10,-2.93,6.41,6.42,6.42
39.74,9.52,3.12,9.52,3.12,-3.12,-3.13,-2.95,6.40,6.40,6.40
40.14,9.54,3.16,9.54,3.16,-3.16,-3.16,-2.96,6.38,6.38,6.38
40.54,9.55,3.19,9.55,3.20,-3.19,-3.19,-2.98,6.36,6.36,6.36
40.94,9.57,3.24,9.57,3.23,-3.22,-3.22,-3.00,6.35,6.34,6.33
41.35,9.58,3.26,9.58,3.26,-3.26,-3.25,-3.02,6.32,6.32,6.32
41.76,9.59,3.29,9.59,3.29,-3.29,-3.29,-3.04,6.30,6.30,6.30
42.18,9.60,3.31,9.60,3.32,-3.32,-3.32,-3.06,6.28,6.28,6.29
42.60,9.61,3.35,9.61,3.35,-3.35,-3.35,-3.09,6.26,6.26,6.26
43.03,9.62,3.39,9.62,3.38,-3.38,-3.38,-3.12,6.24,6.24,6.23
43.46,9.63,3.41,9.63,3.42,-3.42,-3.42,-3.15,6.21,6.22,6.22
43.90,9.65,3.46,9.65,3.45,-3.45,-3.45,-3.19,6.20,6.20,6.19
44.33,9.66,3.49,9.66,3.49,-3.49,-3.49,-3.22,6.17,6.17,6.17
44.78,9.67,3.52,9.67,3.52,-3.52,-3.52,-3.26,6.14,6.15,6.15
45.23,9.68,3.55,9.68,3.56,-3.57,-3.55,-3.30,6.11,6.11,6.13
45.68,9.69,3.60,9.69,3.60,-3.61,-3.59,-3.35,6.08,6.08,6.09
46.13,9.70,3.65,9.70,3.65,-3.65,-3.63,-3.39,6.05,6.06,6.05
46.60,9.72,3.70,9.72,3.69,-3.69,-3.66,-3.44,6.03,6.03,6.02
47.06,9.73,3.74,9.73,3.74,-3.73,-3.70,-3.49,6.00,6.00,5.99
47.53,9.74,3.78,9.74,3.78,-3.78,-3.73,-3.55,5.96,5.96,5.96
48.01,9.74,3.83,9.74,3.82,-3.82,-3.77,-3.60,5.92,5.92,5.91
48.49,9.74,3.86,9.74,3.86,-3.87,-3.80,-3.66,5.87,5.88,5.88
48.97,9.75,3.91,9.75,3.90,-3.91,-3.84,-3.72,5.84,5.84,5.84
49.46,9.75,3.94,9.75,3.95,-3.94,-3.88,-3.78,5.81,5.81,5.81
49.96,9.76,4.00,9.76,3.99,-3.98,-3.91,-3.84,5.78,5.78,5.76
50.46,9.76,4.02,9.76,4.02,-4.01,-3.95,-3.91,5.75,5.74,5.74
50.96,9.75,4.04,9.75,4.05,-4.05,-3.99,-3.97,5.70,5.71,5.71
51.47,9.75,4.08,9.75,4.08,-4.08,-4.02,-4.04,5.67,5.67,5.67
51.99,9.75,4.11,9.75,4.11,-4.11,-4.06,-4.10,5.64,5.64,5.64
52.51,9.75,4.14,9.75,4.14,-4.15,-4.10,-4.17,5.60,5.60,5.61
53.03,9.75,4.17,9.75,4.17,-4.18,-4.13,-4.24,5.57,5.57,5.58
53.56,9.75,4.21,9.75,4.21,-4.21,-4.17,-4.31,5.54,5.54,5.54
54.10,9.75,4.25,9.75,4.25,-4.25,-4.20,-4.37,5.50,5.50,5.50
54.64,9.75,4.28,9.75,4.29,-4.28,-4.24,-4.44,5.47,5.47,5.47
55.18,9.75,4.33,9.75,4.32,-4.31,-4.28,-4.51,5.44,5.44,5.42
55.74,9.74,4.35,9.74,4.34,-4.34,-4.31,-4.57,5.40,5.40,5.39
56.29,9.72,4.35,9.72,4.36,-4.36,-4.35,-4.63,5.36,5.37,5.37
56.86,9.71,4.37,9.71,4.38,-4.38,-4.38,-4.69,5.33,5.33,5.34
57.42,9.70,4.40,9.70,4.39,-4.39,-4.42,-4.75,5.31,5.31,5.30
58.00,9.69,4.42,9.69,4.41,-4.40,-4.45,-4.80,5.29,5.28,5.27
58.58,9.67,4.41,9.67,4.42,-4.42,-4.49,-4.85,5.25,5.26,5.26
59.16,9.66,4.43,9.66,4.43,-4.43,-4.52,-4.89,5.23,5.23,5.23
59.76,9.64,4.44,9.64,4.44,-4.45,-4.55,-4.94,5.19,5.19,5.20
60.35,9.62,4.46,9.62,4.46,-4.46,-4.59,-4.97,5.16,5.15,5.16
60.96,9.59,4.47,9.59,4.48,-4.48,-4.62,-5.01,5.11,5.11,5.12
61.57,9.57,4.50,9.57,4.50,-4.50,-4.65,-5.04,5.07,5.07,5.07
62.18,9.55,4.53,9.55,4.53,-4.52,-4.68,-5.06,5.03,5.02,5.02
62.80,9.53,4.55,9.53,4.55,-4.55,-4.71,-5.08,4.98,4.98,4.98
63.43,9.51,4.58,9.51,4.57,-4.57,-4.74,-5.09,4.94,4.94,4.93
64.07,9.49,4.59,9.49,4.59,-4.59,-4.77,-5.10,4.90,4.90,4.90
64.71,9.47,4.61,9.47,4.61,-4.61,-4.80,-5.10,4.86,4.86,4.86
65.35,9.45,4.63,9.45,4.63,-4.63,-4.83,-5.10,4.82,4.82,4.82
66.01,9.43,4.65,9.43,4.64,-4.65,-4.86,-5.10,4.78,4.78,4.78
66.67,9.42,4.66,9.42,4.67,-4.67,-4.89,-5.09,4.75,4.75,4.76
67.33,9.40,4.69,9.40,4.69,-4.69,-4.92,-5.08,4.71,4.71,4.71
68.01,9.39,4.72,9.39,4.72,-4.72,-4.94,-5.06,4.67,4.67,4.67
68.69,9.38,4.76,9.38,4.75,-4.76,-4.97,-5.05,4.62,4.62,4.62
69.37,9.38,4.79,9.38,4.79,-4.80,-4.99,-5.03,4.58,4.58,4.59
70.07,9.39,4.83,9.39,4.83,-4.85,-5.02,-5.00,4.54,4.54,4.56
70.77,9.40,4.88,9.40,4.88,-4.89,-5.04,-4.98,4.51,4.51,4.52
71.48,9.41,4.94,9.41,4.94,-4.94,-5.06,-4.95,4.47,4.47,4.47
72.19,9.42,5.00,9.42,4.99,-4.99,-5.08,-4.93,4.43,4.44,4.42
72.91,9.43,5.04,9.42,5.04,-5.03,-5.11,-4.90,4.40,4.40,4.39
73.64,9.42,5.08,9.42,5.08,-5.07,-5.13,-4.88,4.35,4.36,4.34
74.38,9.41,5.11,9.41,5.10,-5.10,-5.14,-4.85,4.31,4.31,4.30
75.12,9.40,5.13,9.40,5.12,-5.12,-5.16,-4.83,4.28,4.27,4.27
75.87,9.38,5.14,9.38,5.14,-5.14,-5.18,-4.80,4.24,4.24,4.24
76.63,9.37,5.16,9.37,5.15,-5.16,-5.20,-4.78,4.21,4.21,4.21
77.40,9.35,5.17,9.35,5.17,-5.16,-5.21,-4.76,4.19,4.18,4.18
78.17,9.32,5.17,9.32,5.17,-5.17,-5.23,-4.74,4.15,4.16,4.15
78.95,9.30,5.17,9.30,5.17,-5.17,-5.24,-4.73,4.13,4.13,4.13
79.74,9.27,5.17,9.27,5.17,-5.17,-5.26,-4.71,4.10,4.10,4.10
80.54,9.24,5.17,9.24,5.17,-5.17,-5.27,-4.70,4.07,4.07,4.07
81.35,9.22,5.18,9.22,5.17,-5.18,-5.28,-4.70,4.04,4.04,4.04
82.16,9.19,5.17,9.19,5.18,-5.18,-5.29,-4.69,4.01,4.01,4.02
82.98,9.16,5.18,9.16,5.18,-5.18,-5.30,-4.69,3.98,3.98,3.98
83.81,9.14,5.20,9.14,5.19,-5.19,-5.31,-4.69,3.95,3.94,3.94
84.65,9.11,5.20,9.11,5.20,-5.20,-5.32,-4.70,3.91,3.91,3.91
85.50,9.09,5.22,9.09,5.22,-5.22,-5.33,-4.71,3.87,3.87,3.87
86.35,9.08,5.24,9.08,5.24,-5.25,-5.34,-4.72,3.83,3.83,3.84
87.22,9.07,5.26,9.07,5.26,-5.28,-5.35,-4.73,3.79,3.79,3.81
88.09,9.07,5.30,9.07,5.30,-5.31,-5.35,-4.75,3.76,3.76,3.77
88.97,9.08,5.34,9.08,5.35,-5.34,-5.36,-4.78,3.74,3.74,3.74
89.86,9.09,5.40,9.09,5.39,-5.38,-5.36,-4.80,3.71,3.71,3.69
90.76,9.09,5.43,9.09,5.43,-5.41,-5.37,-4.83,3.68,3.67,3.66
91.66,9.08,5.45,9.08,5.46,-5.45,-5.37,-4.87,3.63,3.64,3.63
92.58,9.07,5.48,9.07,5.48,-5.47,-5.38,-4.90,3.60,3.60,3.59
93.51,9.05,5.49,9.05,5.49,-5.49,-5.38,-4.94,3.56,3.56,3.56
94.44,9.03,5.51,9.03,5.51,-5.51,-5.38,-4.99,3.52,3.52,3.52
95.39,9.00,5.52,9.00,5.52,-5.52,-5.38,-5.04,3.48,3.48,3.48
96.34,8.97,5.54,8.97,5.53,-5.53,-5.38,-5.09,3.44,3.43,3.43
97.30,8.93,5.54,8.93,5.54,-5.54,-5.39,-5.14,3.39,3.39,3.39
98.28,8.90,5.54,8.90,5.55,-5.55,-5.39,-5.20,3.35,3.35,3.36
99.26,8.87,5.56,8.87,5.56,-5.56,-5.39,-5.26,3.31,3.31,3.31
100.25,8.85,5.58,8.85,5.57,-5.57,-5.39,-5.32,3.28,3.28,3.27
101.25,8.83,5.58,8.83,5.58,-5.58,-5.39,-5.38,3.25,3.25,3.25
102.27,8.81,5.59,8.81,5.59,-5.59,-5.39,-5.45,3.22,3.22,3.22
103.29,8.79,5.61,8.79,5.60,-5.60,-5.39,-5.51,3.19,3.19,3.18
104.32,8.77,5.61,8.77,5.61,-5.61,-5.39,-5.58,3.16,3.16,3.16
105.37,8.74,5.62,8.74,5.62,-5.61,-5.39,-5.65,3.13,3.13,3.12
106.42,8.71,5.61,8.71,5.61,-5.62,-5.39,-5.72,3.09,3.09,3.10
107.48,8.68,5.62,8.68,5.62,-5.62,-5.39,-5.79,3.06,3.06,3.06
108.56,8.64,5.61,8.65,5.62,-5.62,-5.39,-5.85,3.02,3.02,3.03
109.64,8.62,5.63,8.62,5.62,-5.63,-5.39,-5.92,2.99,2.99,2.99
110.74,8.59,5.62,8.59,5.63,-5.63,-5.39,-5.99,2.96,2.96,2.97
111.85,8.56,5.63,8.56,5.64,-5.63,-5.39,-6.05,2.93,2.93,2.93
112.97,8.54,5.65,8.53,5.64,-5.64,-5.39,-6.11,2.90,2.90,2.89
114.10,8.50,5.64,8.50,5.64,-5.64,-5.39,-6.16,2.86,2.86,2.86
115.24,8.46,5.64,8.47,5.65,-5.64,-5.39,-6.22,2.82,2.82,2.82
116.39,8.43,5.66,8.43,5.65,-5.65,-5.39,-6.26,2.78,2.78,2.77
117.55,8.40,5.65,8.39,5.66,-5.65,-5.39,-6.30,2.75,2.74,2.75
118.73,8.36,5.66,8.36,5.65,-5.66,-5.39,-6.34,2.70,2.70,2.70
119.92,8.32,5.64,8.33,5.65,-5.66,-5.40,-6.37,2.66,2.67,2.68
121.12,8.30,5.65,8.30,5.66,-5.66,-5.40,-6.39,2.64,2.64,2.65
122.33,8.29,5.67,8.29,5.67,-5.67,-5.40,-6.41,2.62,2.62,2.62
123.55,8.27,5.68,8.27,5.68,-5.67,-5.41,-6.42,2.60,2.60,2.59
124.79,8.24,5.68,8.24,5.68,-5.67,-5.41,-6.42,2.57,2.57,2.56
126.03,8.19,5.67,8.20,5.67,-5.66,-5.41,-6.41,2.52,2.53,2.52
127.29,8.16,5.67,8.16,5.66,-5.67,-5.42,-6.40,2.49,2.49,2.49
128.57,8.12,5.66,8.11,5.66,-5.67,-5.43,-6.38,2.45,2.45,2.46
129.85,8.07,5.65,8.07,5.65,-5.67,-5.43,-6.35,2.40,2.41,2.42
131.15,8.03,5.65,8.04,5.65,-5.67,-5.44,-6.31,2.36,2.37,2.38
132.46,8.01,5.67,8.01,5.66,-5.67,-5.44,-6.27,2.34,2.34,2.34
133.79,7.98,5.67,7.98,5.67,-5.67,-5.45,-6.23,2.31,2.31,2.31
135.12,7.95,5.68,7.95,5.67,-5.66,-5.46,-6.17,2.29,2.29,2.27
136.48,7.92,5.67,7.91,5.67,-5.66,-5.47,-6.12,2.26,2.26,2.25
137.84,7.87,5.65,7.87,5.66,-5.65,-5.48,-6.05,2.22,2.22,2.22
139.22,7.82,5.65,7.82,5.64,-5.64,-5.49,-5.99,2.18,2.18,2.17
140.61,7.77,5.62,7.76,5.62,-5.62,-5.49,-5.92,2.15,2.14,2.15
142.02,7.70,5.58,7.71,5.60,-5.60,-5.50,-5.85,2.10,2.11,2.12
143.44,7.67,5.58,7.67,5.57,-5.58,-5.51,-5.77,2.09,2.09,2.09
144.87,7.63,5.55,7.63,5.56,-5.56,-5.52,-5.70,2.07,2.06,2.08
146.32,7.59,5.54,7.59,5.54,-5.54,-5.53,-5.62,2.05,2.05,2.05
147.78,7.55,5.52,7.55,5.53,-5.53,-5.54,-5.54,2.02,2.02,2.03
149.26,7.51,5.51,7.51,5.51,-5.51,-5.55,-5.47,2.00,2.00,2.00
150.75,7.47,5.50,7.47,5.50,-5.49,-5.56,-5.39,1.98,1.98,1.97
152.26,7.43,5.48,7.43,5.48,-5.47,-5.57,-5.32,1.96,1.95,1.95
153.78,7.38,5.45,7.38,5.45,-5.46,-5.57,-5.24,1.92,1.92,1.93
155.32,7.34,5.44,7.34,5.44,-5.44,-5.58,-5.17,1.90,1.90,1.90
156.88,7.30,5.42,7.30,5.42,-5.43,-5.59,-5.10,1.87,1.87,1.88
158.44,7.27,5.42,7.26,5.41,-5.42,-5.59,-5.03,1.85,1.84,1.85
160.03,7.22,5.40,7.23,5.41,-5.41,-5.60,-4.96,1.81,1.82,1.82
161.63,7.19,5.40,7.19,5.40,-5.40,-5.60,-4.90,1.79,1.79,1.79
163.24,7.16,5.41,7.15,5.39,-5.39,-5.60,-4.84,1.77,1.76,1.75
164.88,7.10,5.38,7.11,5.39,-5.38,-5.60,-4.78,1.72,1.73,1.72
166.53,7.06,5.37,7.06,5.37,-5.36,-5.60,-4.72,1.70,1.69,1.69
168.19,7.01,5.35,7.00,5.34,-5.35,-5.59,-4.67,1.66,1.65,1.66
169.87,6.95,5.32,6.96,5.33,-5.33,-5.58,-4.62,1.62,1.62,1.63
171.57,6.90,5.30,6.91,5.31,-5.32,-5.58,-4.58,1.58,1.59,1.60
173.29,6.87,5.31,6.86,5.30,-5.30,-5.56,-4.54,1.57,1.56,1.56
175.02,6.81,5.28,6.81,5.28,-5.28,-5.55,-4.50,1.53,1.54,1.53
176.77,6.76,5.27,6.76,5.26,-5.26,-5.53,-4.46,1.50,1.50,1.49
178.54,6.70,5.23,6.70,5.24,-5.24,-5.52,-4.43,1.46,1.47,1.47
180.32,6.64,5.21,6.64,5.21,-5.21,-5.49,-4.40,1.43,1.43,1.43
182.13,6.59,5.20,6.58,5.19,-5.19,-5.47,-4.38,1.40,1.39,1.39
183.95,6.51,5.15,6.52,5.16,-5.17,-5.44,-4.36,1.34,1.36,1.36
185.79,6.47,5.15,6.46,5.14,-5.14,-5.41,-4.34,1.33,1.32,1.32
187.65,6.41,5.12,6.41,5.12,-5.12,-5.38,-4.32,1.29,1.29,1.29
189.52,6.35,5.10,6.35,5.10,-5.10,-5.34,-4.31,1.25,1.25,1.25
191.42,6.30,5.08,6.30,5.07,-5.08,-5.30,-4.30,1.22,1.22,1.22
193.33,6.24,5.05,6.24,5.06,-5.06,-5.26,-4.30,1.18,1.19,1.19
195.27,6.19,5.04,6.19,5.04,-5.03,-5.22,-4.29,1.16,1.16,1.15
197.22,6.14,5.02,6.14,5.01,-5.01,-5.17,-4.29,1.13,1.13,1.12
199.19,6.08,4.98,6.08,4.99,-4.98,-5.12,-4.29,1.10,1.10,1.10
201.18,6.02,4.96,6.02,4.95,-4.95,-5.06,-4.30,1.07,1.07,1.06
203.19,5.96,4.91,5.96,4.92,-4.92,-5.01,-4.30,1.04,1.04,1.05
205.23,5.91,4.89,5.91,4.89,-4.89,-4.95,-4.31,1.02,1.02,1.02
207.28,5.86,4.85,5.86,4.86,-4.85,-4.89,-4.32,1.01,1.00,1.01
209.35,5.80,4.83,5.80,4.82,-4.82,-4.83,-4.33,0.98,0.98,0.97
211.44,5.74,4.79,5.74,4.78,-4.78,-4.76,-4.34,0.96,0.96,0.95
213.56,5.67,4.73,5.67,4.74,-4.74,-4.70,-4.35,0.93,0.93,0.94
215.69,5.61,4.70,5.61,4.69,-4.70,-4.63,-4.36,0.91,0.90,0.91
217.85,5.54,4.65,5.55,4.66,-4.66,-4.56,-4.37,0.88,0.89,0.89
220.03,5.50,4.63,5.50,4.63,-4.62,-4.49,-4.38,0.88,0.88,0.87
222.23,5.44,4.59,5.43,4.59,-4.57,-4.42,-4.38,0.87,0.86,0.85
224.45,5.37,4.54,5.37,4.54,-4.53,-4.35,-4.39,0.84,0.84,0.83
226.70,5.29,4.47,5.29,4.48,-4.48,-4.27,-4.40,0.81,0.81,0.82
228.96,5.22,4.41,5.23,4.42,-4.43,-4.20,-4.40,0.79,0.79,0.81
231.25,5.17,4.38,5.16,4.37,-4.39,-4.12,-4.40,0.78,0.78,0.79
233.57,5.11,4.33,5.11,4.34,-4.34,-4.05,-4.40,0.77,0.77,0.78
235.90,5.05,4.29,5.05,4.29,-4.29,-3.97,-4.39,0.76,0.76,0.76
238.26,5.00,4.25,5.00,4.24,-4.24,-3.90,-4.38,0.76,0.76,0.75
240.64,4.95,4.19,4.95,4.20,-4.20,-3.82,-4.36,0.75,0.75,0.76
243.05,4.90,4.15,4.90,4.15,-4.15,-3.74,-4.34,0.75,0.75,0.75
245.48,4.84,4.11,4.84,4.10,-4.10,-3.67,-4.32,0.74,0.74,0.73
247.93,4.78,4.05,4.79,4.05,-4.05,-3.59,-4.29,0.73,0.74,0.73
250.41,4.74,4.00,4.73,4.00,-4.00,-3.52,-4.26,0.74,0.73,0.74
252.92,4.67,3.93,4.68,3.94,-3.94,-3.44,-4.22,0.73,0.73,0.74
255.45,4.62,3.89,4.62,3.88,-3.89,-3.37,-4.18,0.73,0.73,0.73
258.00,4.57,3.83,4.57,3.83,-3.83,-3.29,-4.13,0.74,0.74,0.74
260.58,4.50,3.77,4.51,3.77,-3.76,-3.22,-4.08,0.74,0.75,0.73
263.19,4.45,3.71,4.44,3.70,-3.70,-3.15,-4.02,0.75,0.74,0.74
265.82,4.36,3.63,4.36,3.63,-3.63,-3.08,-3.96,0.73,0.73,0.73
268.48,4.28,3.55,4.29,3.56,-3.56,-3.01,-3.89,0.72,0.73,0.73
271.16,4.22,3.49,4.21,3.48,-3.49,-2.94,-3.82,0.73,0.72,0.73
273.87,4.13,3.40,4.14,3.41,-3.42,-2.87,-3.75,0.71,0.72,0.73
276.61,4.07,3.34,4.07,3.34,-3.34,-2.80,-3.67,0.73,0.73,0.73
279.38,4.00,3.29,4.00,3.27,-3.26,-2.73,-3.59,0.74,0.73,0.71
282.17,3.92,3.19,3.92,3.20,-3.19,-2.66,-3.51,0.73,0.74,0.73
284.99,3.85,3.12,3.84,3.11,-3.11,-2.60,-3.42,0.74,0.73,0.73
287.84,3.75,3.01,3.76,3.02,-3.03,-2.53,-3.34,0.72,0.73,0.74
290.72,3.67,2.94,3.68,2.94,-2.95,-2.46,-3.25,0.72,0.73,0.73
293.63,3.60,2.87,3.60,2.86,-2.86,-2.40,-3.16,0.74,0.74,0.73
296.57,3.52,2.77,3.51,2.78,-2.77,-2.34,-3.07,0.75,0.74,0.75
299.53,3.43,2.69,3.43,2.69,-2.68,-2.27,-2.98,0.75,0.75,0.74
302.53,3.34,2.59,3.35,2.60,-2.60,-2.21,-2.89,0.74,0.75,0.75
305.55,3.27,2.51,3.26,2.51,-2.51,-2.15,-2.79,0.76,0.75,0.76
308.61,3.18,2.42,3.18,2.42,-2.42,-2.09,-2.70,0.76,0.76,0.76
311.69,3.09,2.32,3.10,2.33,-2.33,-2.03,-2.61,0.76,0.77,0.77
314.81,3.02,2.24,3.02,2.24,-2.24,-1.97,-2.52,0.78,0.78,0.78
317.96,2.94,2.16,2.94,2.15,-2.15,-1.91,-2.43,0.79,0.79,0.78
321.14,2.85,2.06,2.85,2.06,-2.05,-1.85,-2.34,0.80,0.79,0.79
324.35,2.76,1.97,2.76,1.96,-1.96,-1.79,-2.25,0.80,0.80,0.79
327.59,2.66,1.84,2.67,1.87,-1.87,-1.73,-2.16,0.79,0.80,0.82
330.87,2.59,1.78,2.59,1.77,-1.77,-1.68,-2.07,0.82,0.81,0.81
334.18,2.51,1.70,2.50,1.68,-1.68,-1.62,-1.98,0.83,0.82,0.81
337.52,2.41,1.58,2.41,1.59,-1.59,-1.56,-1.90,0.82,0.83,0.83
340.90,2.32,1.48,2.33,1.49,-1.49,-1.50,-1.81,0.83,0.83,0.84
344.30,2.25,1.41,2.24,1.40,-1.40,-1.44,-1.73,0.85,0.84,0.84
347.75,2.17,1.32,2.17,1.31,-1.31,-1.38,-1.64,0.86,0.86,0.85
351.23,2.08,1.22,2.09,1.22,-1.22,-1.32,-1.56,0.86,0.87,0.86
354.74,2.01,1.13,2.00,1.13,-1.13,-1.26,-1.48,0.88,0.87,0.88
358.28,1.91,1.03,1.91,1.04,-1.04,-1.20,-1.40,0.87,0.87,0.88
361.87,1.83,0.95,1.83,0.95,-0.95,-1.14,-1.32,0.88,0.88,0.88
365.49,1.75,0.86,1.75,0.86,-0.87,-1.08,-1.25,0.88,0.89,0.89
369.14,1.68,0.78,1.68,0.78,-0.78,-1.01,-1.17,0.90,0.90,0.90
372.83,1.62,0.71,1.61,0.70,-0.70,-0.94,-1.09,0.92,0.91,0.91
376.56,1.53,0.62,1.53,0.62,-0.62,-0.87,-1.02,0.91,0.92,0.91
380.33,1.45,0.53,1.46,0.54,-0.54,-0.80,-0.95,0.91,0.92,0.92
384.13,1.39,0.46,1.39,0.46,-0.47,-0.73,-0.88,0.92,0.92,0.93
387.97,1.33,0.40,1.33,0.39,-0.40,-0.65,-0.80,0.93,0.93,0.93
391.85,1.27,0.32,1.27,0.33,-0.33,-0.57,-0.73,0.94,0.94,0.95
395.77,1.22,0.27,1.22,0.26,-0.27,-0.48,-0.67,0.95,0.95,0.95
399.73,1.17,0.21,1.17,0.21,-0.21,-0.39,-0.60,0.96,0.97,0.96
403.72,1.13,0.15,1.13,0.15,-0.15,-0.30,-0.53,0.98,0.98,0.98
407.76,1.09,0.10,1.09,0.10,-0.10,-0.20,-0.46,0.99,0.99,0.99
411.84,1.04,0.04,1.04,0.05,-0.04,-0.10,-0.40,1.00,1.00,1.00
415.96,1.00,-0.01,1.00,-0.00,0.01,-0.01,-0.34,1.01,1.01,1.01
420.12,0.96,-0.05,0.96,-0.05,0.06,0.09,-0.27,1.02,1.02,1.01
424.32,0.92,-0.09,0.92,-0.11,0.11,0.18,-0.21,1.03,1.02,1.01
428.56,0.87,-0.16,0.87,-0.16,0.15,0.27,-0.15,1.02,1.03,1.03
432.85,0.83,-0.22,0.83,-0.21,0.20,0.34,-0.10,1.03,1.03,1.05
437.18,0.80,-0.24,0.80,-0.25,0.24,0.40,-0.04,1.04,1.04,1.04
441.55,0.77,-0.28,0.77,-0.28,0.29,0.45,0.02,1.06,1.06,1.05
445.96,0.75,-0.31,0.74,-0.32,0.33,0.47,0.07,1.08,1.07,1.06
450.42,0.71,-0.36,0.72,-0.35,0.36,0.48,0.12,1.07,1.08,1.07
454.93,0.69,-0.39,0.69,-0.39,0.40,0.48,0.17,1.09,1.08,1.08
459.48,0.66,-0.43,0.66,-0.43,0.42,0.47,0.22,1.08,1.08,1.09
464.07,0.64,-0.47,0.64,-0.46,0.45,0.45,0.27,1.09,1.09,1.11
468.71,0.63,-0.48,0.63,-0.48,0.47,0.42,0.32,1.10,1.10,1.11
473.40,0.63,-0.49,0.63,-0.49,0.49,0.39,0.36,1.12,1.12,1.12
478.13,0.63,-0.50,0.63,-0.50,0.50,0.37,0.40,1.13,1.13,1.13
482.91,0.63,-0.51,0.63,-0.51,0.51,0.34,0.44,1.14,1.14,1.14
487.74,0.63,-0.52,0.63,-0.52,0.52,0.33,0.48,1.15,1.15,1.15
492.62,0.63,-0.52,0.63,-0.52,0.53,0.31,0.51,1.16,1.16,1.15
497.55,0.63,-0.53,0.63,-0.53,0.53,0.30,0.55,1.16,1.17,1.16
502.52,0.64,-0.53,0.64,-0.54,0.54,0.29,0.58,1.18,1.17,1.17
507.55,0.65,-0.54,0.65,-0.54,0.53,0.29,0.61,1.18,1.19,1.19
512.62,0.67,-0.53,0.67,-0.53,0.53,0.29,0.64,1.20,1.20,1.20
517.75,0.70,-0.52,0.70,-0.52,0.52,0.29,0.66,1.22,1.21,1.22
522.93,0.72,-0.51,0.72,-0.51,0.50,0.30,0.69,1.22,1.23,1.23
528.16,0.76,-0.48,0.76,-0.48,0.48,0.31,0.71,1.24,1.24,1.24
533.44,0.79,-0.46,0.79,-0.46,0.46,0.33,0.73,1.25,1.26,1.25
538.77,0.83,-0.43,0.83,-0.44,0.44,0.34,0.75,1.27,1.27,1.26
544.16,0.86,-0.42,0.86,-0.42,0.42,0.36,0.77,1.28,1.28,1.28
549.60,0.89,-0.40,0.89,-0.40,0.40,0.38,0.79,1.29,1.29,1.29
