frequency,raw,error,smoothed,error_smoothed,equalization,parametric_eq,fixed_band_eq,equalized_raw,equalized_smoothed,target
20.00,-7.21,-9.62,-7.22,-9.62,6.00,6.51,2.03,-1.21,-1.22,2.41
20.20,-7.05,-9.50,-7.05,-9.50,6.00,6.47,2.09,-1.05,-1.05,2.45
20.40,-6.89,-9.38,-6.89,-9.37,6.00,6.43,2.16,-0.89,-0.89,2.49
20.61,-6.74,-9.24,-6.73,-9.25,6.00,6.39,2.22,-0.74,-0.73,2.51
20.81,-6.57,-9.12,-6.57,-9.12,6.00,6.35,2.29,-0.57,-0.57,2.55
21.02,-6.41,-9.00,-6.42,-9.00,6.00,6.31,2.36,-0.41,-0.42,2.59
21.23,-6.28,-8.88,-6.28,-8.89,6.00,6.27,2.43,-0.28,-0.28,2.60
21.44,-6.16,-8.78,-6.16,-8.77,6.00,6.23,2.51,-0.16,-0.16,2.62
21.66,-6.03,-8.66,-6.03,-8.66,6.00,6.18,2.58,-0.03,-0.03,2.63
21.87,-5.90,-8.53,-5.91,-8.54,6.00,6.14,2.66,0.10,0.09,2.63
22.09,-5.78,-8.42,-5.78,-8.41,6.00,6.09,2.74,0.22,0.22,2.64
22.31,-5.65,-8.29,-5.65,-8.29,6.00,6.05,2.82,0.35,0.35,2.64
22.54,-5.53,-8.16,-5.52,-8.16,6.00,6.00,2.91,0.47,0.48,2.63
22.76,-5.39,-8.02,-5.39,-8.02,6.00,5.95,3.00,0.61,0.61,2.62
22.99,-5.26,-7.88,-5.26,-7.88,6.00,5.90,3.09,0.74,0.74,2.61
23.22,-5.13,-7.75,-5.13,-7.74,6.00,5.86,3.18,0.87,0.87,2.61
23.45,-5.00,-7.61,-5.01,-7.61,6.00,5.81,3.27,1.00,0.99,2.60
23.69,-4.89,-7.49,-4.88,-7.49,6.00,5.76,3.37,1.11,1.12,2.60
23.92,-4.75,-7.35,-4.75,-7.35,6.00,5.70,3.47,1.25,1.25,2.60
24.16,-4.61,-7.22,-4.61,-7.22,6.00,5.65,3.57,1.39,1.39,2.61
24.40,-4.46,-7.07,-4.46,-7.07,6.00,5.60,3.67,1.54,1.54,2.61
24.65,-4.32,-6.93,-4.32,-6.92,6.00,5.55,3.77,1.68,1.68,2.60
24.89,-4.17,-6.77,-4.18,-6.78,6.00,5.50,3.87,1.83,1.82,2.60
25.14,-4.05,-6.65,-4.06,-6.66,6.01,5.44,3.98,1.96,1.95,2.60
25.39,-3.95,-6.55,-3.95,-6.55,6.02,5.39,4.08,2.07,2.07,2.60
25.65,-3.86,-6.45,-3.86,-6.45,6.03,5.34,4.19,2.16,2.17,2.59
25.91,-3.77,-6.34,-3.76,-6.34,6.02,5.28,4.30,2.25,2.26,2.58
26.16,-3.64,-6.22,-3.65,-6.22,6.00,5.23,4.40,2.35,2.35,2.58
26.43,-3.53,-6.10,-3.52,-6.10,5.95,5.18,4.51,2.43,2.43,2.58
26.69,-3.39,-5.97,-3.40,-5.97,5.88,5.12,4.61,2.49,2.49,2.58
26.96,-3.27,-5.84,-3.27,-5.84,5.80,5.07,4.72,2.53,2.53,2.57
27.23,-3.14,-5.71,-3.14,-5.70,5.70,5.01,4.82,2.56,2.56,2.57
27.50,-3.00,-5.57,-3.00,-5.56,5.59,4.96,4.91,2.59,2.59,2.57
27.77,-2.86,-5.42,-2.87,-5.42,5.48,4.91,5.01,2.62,2.61,2.55
28.05,-2.74,-5.30,-2.75,-5.30,5.36,4.85,5.10,2.61,2.60,2.55
28.33,-2.66,-5.21,-2.66,-5.21,5.23,4.80,5.18,2.57,2.57,2.54
28.62,-2.58,-5.13,-2.59,-5.13,5.11,4.74,5.26,2.53,2.53,2.54
28.90,-2.51,-5.05,-2.50,-5.04,5.00,4.69,5.34,2.49,2.50,2.54
29.19,-2.39,-4.93,-2.39,-4.93,4.90,4.63,5.40,2.50,2.51,2.54
29.48,-2.26,-4.81,-2.26,-4.80,4.80,4.58,5.46,2.53,2.54,2.55
29.78,-2.12,-4.66,-2.13,-4.67,4.70,4.52,5.52,2.57,2.57,2.54
30.08,-2.01,-4.55,-2.02,-4.56,4.60,4.47,5.56,2.59,2.57,2.55
30.38,-1.94,-4.47,-1.94,-4.47,4.49,4.42,5.59,2.55,2.56,2.53
30.68,-1.87,-4.40,-1.87,-4.39,4.39,4.36,5.62,2.52,2.52,2.52
30.99,-1.80,-4.32,-1.80,-4.32,4.29,4.31,5.63,2.49,2.50,2.51
31.30,-1.71,-4.23,-1.71,-4.22,4.20,4.25,5.64,2.49,2.49,2.51
31.61,-1.61,-4.12,-1.61,-4.12,4.11,4.20,5.64,2.49,2.49,2.51
31.93,-1.51,-4.01,-1.52,-4.01,4.02,4.15,5.62,2.50,2.50,2.49
32.24,-1.42,-3.90,-1.43,-3.91,3.92,4.10,5.60,2.50,2.49,2.48
32.57,-1.34,-3.82,-1.34,-3.81,3.82,4.04,5.57,2.48,2.48,2.48
32.89,-1.25,-3.72,-1.26,-3.72,3.72,3.99,5.52,2.47,2.46,2.47
33.22,-1.17,-3.62,-1.17,-3.62,3.62,3.94,5.47,2.45,2.44,2.44
33.55,-1.09,-3.53,-1.09,-3.53,3.52,3.89,5.42,2.43,2.43,2.44
33.89,-1.01,-3.43,-1.01,-3.44,3.43,3.83,5.35,2.41,2.42,2.42
34.23,-0.92,-3.34,-0.92,-3.33,3.33,3.78,5.28,2.41,2.41,2.42
34.57,-0.83,-3.23,-0.83,-3.23,3.25,3.73,5.20,2.41,2.41,2.40
34.92,-0.74,-3.13,-0.76,-3.15,3.16,3.68,5.12,2.42,2.41,2.39
35.27,-0.69,-3.08,-0.69,-3.07,3.08,3.63,5.03,2.38,2.38,2.38
35.62,-0.64,-3.01,-0.64,-3.01,3.00,3.58,4.94,2.35,2.36,2.36
35.97,-0.59,-2.94,-0.59,-2.94,2.92,3.53,4.84,2.33,2.34,2.35
36.33,-0.52,-2.87,-0.52,-2.86,2.85,3.48,4.74,2.33,2.33,2.35
36.70,-0.45,-2.79,-0.45,-2.79,2.79,3.43,4.64,2.34,2.34,2.34
37.06,-0.38,-2.71,-0.39,-2.72,2.73,3.38,4.54,2.35,2.34,2.32
37.43,-0.34,-2.67,-0.34,-2.66,2.68,3.34,4.43,2.34,2.34,2.33
37.81,-0.29,-2.61,-0.29,-2.61,2.62,3.29,4.33,2.33,2.33,2.32
38.19,-0.25,-2.56,-0.26,-2.57,2.57,3.24,4.22,2.32,2.31,2.31
38.57,-0.22,-2.54,-0.22,-2.53,2.52,3.19,4.12,2.29,2.29,2.31
38.95,-0.19,-2.49,-0.18,-2.48,2.46,3.15,4.01,2.27,2.28,2.30
39.34,-0.13,-2.43,-0.13,-2.43,2.41,3.10,3.91,2.27,2.27,2.30
39.74,-0.06,-2.35,-0.07,-2.35,2.35,3.06,3.81,2.28,2.28,2.28
40.14,-0.00,-2.28,-0.00,-2.29,2.29,3.01,3.71,2.28,2.28,2.28
40.54,0.06,-2.22,0.06,-2.22,2.23,2.96,3.61,2.29,2.28,2.28
40.94,0.11,-2.17,0.11,-2.16,2.17,2.92,3.51,2.28,2.28,2.27
41.35,0.16,-2.10,0.16,-2.10,2.12,2.88,3.41,2.28,2.28,2.26
41.76,0.20,-2.05,0.19,-2.06,2.08,2.83,3.32,2.27,2.27,2.25
42.18,0.22,-2.03,0.21,-2.03,2.03,2.79,3.22,2.25,2.24,2.24
42.60,0.22,-2.01,0.22,-2.01,1.99,2.75,3.13,2.21,2.21,2.23
43.03,0.22,-2.01,0.24,-1.98,1.96,2.70,3.04,2.18,2.19,2.22
43.46,0.27,-1.93,0.26,-1.94,1.93,2.66,2.96,2.19,2.19,2.20
43.90,0.31,-1.87,0.29,-1.89,1.90,2.62,2.87,2.21,2.19,2.18
44.33,0.32,-1.84,0.32,-1.84,1.87,2.58,2.79,2.19,2.18,2.16
44.78,0.32,-1.82,0.32,-1.82,1.83,2.54,2.71,2.15,2.15,2.14
45.23,0.32,-1.80,0.31,-1.81,1.79,2.50,2.63,2.11,2.11,2.12
45.68,0.32,-1.79,0.32,-1.78,1.75,2.46,2.56,2.07,2.07,2.11
46.13,0.34,-1.75,0.35,-1.74,1.71,2.42,2.48,2.05,2.06,2.09
46.60,0.41,-1.68,0.40,-1.68,1.67,2.38,2.41,2.08,2.08,2.08
47.06,0.47,-1.61,0.46,-1.62,1.64,2.34,2.34,2.10,2.09,2.08
47.53,0.50,-1.57,0.50,-1.58,1.60,2.30,2.28,2.09,2.10,2.07
48.01,0.52,-1.55,0.51,-1.55,1.56,2.26,2.21,2.08,2.08,2.07
48.49,0.52,-1.53,0.52,-1.53,1.53,2.23,2.15,2.05,2.05,2.05
48.97,0.52,-1.52,0.52,-1.51,1.51,2.19,2.09,2.03,2.03,2.03
49.46,0.52,-1.51,0.52,-1.51,1.50,2.15,2.03,2.02,2.02,2.02
49.96,0.52,-1.49,0.52,-1.50,1.50,2.12,1.97,2.02,2.03,2.01
50.46,0.52,-1.50,0.52,-1.49,1.51,2.08,1.92,2.03,2.03,2.02
50.96,0.52,-1.50,0.50,-1.51,1.52,2.05,1.86,2.04,2.02,2.01
51.47,0.47,-1.54,0.47,-1.54,1.54,2.01,1.81,2.00,2.00,2.00
51.99,0.42,-1.58,0.44,-1.56,1.55,1.98,1.76,1.97,1.98,2.00
52.51,0.42,-1.58,0.41,-1.58,1.56,1.94,1.71,1.98,1.97,2.00
53.03,0.42,-1.58,0.41,-1.58,1.57,1.91,1.66,1.98,1.98,2.00
53.56,0.42,-1.57,0.42,-1.57,1.57,1.88,1.62,1.99,1.99,1.99
54.10,0.42,-1.56,0.42,-1.57,1.57,1.84,1.58,1.98,1.98,1.98
54.64,0.42,-1.56,0.42,-1.56,1.56,1.81,1.53,1.98,1.98,1.98
55.18,0.42,-1.55,0.42,-1.55,1.55,1.78,1.49,1.97,1.97,1.97
55.74,0.42,-1.54,0.42,-1.54,1.54,1.75,1.45,1.96,1.96,1.96
56.29,0.42,-1.54,0.42,-1.53,1.54,1.72,1.42,1.95,1.95,1.96
56.86,0.42,-1.52,0.42,-1.52,1.54,1.69,1.38,1.95,1.95,1.93
57.42,0.41,-1.52,0.41,-1.52,1.54,1.66,1.34,1.95,1.95,1.92
58.00,0.40,-1.51,0.38,-1.53,1.54,1.63,1.31,1.94,1.92,1.91
58.58,0.35,-1.55,0.35,-1.54,1.54,1.60,1.28,1.88,1.89,1.90
59.16,0.32,-1.57,0.33,-1.55,1.53,1.57,1.25,1.85,1.86,1.88
59.76,0.32,-1.54,0.31,-1.55,1.52,1.54,1.22,1.83,1.83,1.86
60.35,0.32,-1.52,0.31,-1.52,1.50,1.52,1.19,1.82,1.81,1.84
60.96,0.32,-1.49,0.32,-1.49,1.48,1.49,1.16,1.79,1.79,1.81
61.57,0.32,-1.45,0.32,-1.45,1.46,1.46,1.14,1.77,1.78,1.77
62.18,0.32,-1.41,0.32,-1.41,1.44,1.44,1.11,1.76,1.76,1.73
62.80,0.32,-1.38,0.31,-1.38,1.42,1.41,1.09,1.74,1.74,1.70
63.43,0.29,-1.37,0.28,-1.38,1.41,1.39,1.06,1.70,1.69,1.66
64.07,0.24,-1.38,0.23,-1.40,1.40,1.36,1.04,1.64,1.63,1.62
64.71,0.16,-1.43,0.17,-1.42,1.40,1.34,1.02,1.55,1.57,1.58
65.35,0.12,-1.44,0.13,-1.42,1.39,1.31,1.00,1.50,1.51,1.56
66.01,0.12,-1.40,0.11,-1.41,1.37,1.29,0.98,1.49,1.48,1.52
66.67,0.12,-1.36,0.11,-1.37,1.35,1.27,0.97,1.47,1.47,1.48
67.33,0.12,-1.33,0.12,-1.33,1.33,1.24,0.95,1.45,1.45,1.45
68.01,0.12,-1.29,0.12,-1.29,1.31,1.22,0.93,1.43,1.43,1.41
68.69,0.12,-1.25,0.12,-1.25,1.28,1.20,0.92,1.40,1.40,1.37
69.37,0.11,-1.22,0.10,-1.22,1.25,1.18,0.90,1.36,1.35,1.33
70.07,0.09,-1.20,0.08,-1.21,1.22,1.16,0.89,1.31,1.30,1.29
70.77,0.04,-1.22,0.05,-1.20,1.19,1.14,0.88,1.23,1.24,1.25
71.48,0.02,-1.19,0.02,-1.18,1.16,1.12,0.87,1.17,1.18,1.21
72.19,0.02,-1.15,0.01,-1.15,1.12,1.10,0.86,1.14,1.13,1.17
72.91,0.02,-1.10,0.01,-1.10,1.08,1.08,0.85,1.10,1.10,1.11
73.64,0.02,-1.05,0.02,-1.05,1.05,1.07,0.84,1.07,1.07,1.07
74.38,0.02,-1.01,0.02,-1.00,1.02,1.05,0.83,1.04,1.04,1.02
75.12,0.02,-0.96,0.02,-0.96,0.99,1.03,0.82,1.01,1.01,0.98
75.87,0.02,-0.92,0.00,-0.94,0.97,1.02,0.81,0.99,0.97,0.94
76.63,-0.03,-0.94,-0.04,-0.94,0.96,1.00,0.81,0.92,0.92,0.90
77.40,-0.09,-0.96,-0.09,-0.96,0.95,0.99,0.80,0.86,0.86,0.86
78.17,-0.15,-0.98,-0.15,-0.98,0.95,0.97,0.80,0.80,0.80,0.83
78.95,-0.19,-0.99,-0.18,-0.98,0.95,0.96,0.79,0.76,0.77,0.80
79.74,-0.19,-0.96,-0.19,-0.96,0.96,0.95,0.79,0.76,0.76,0.77
80.54,-0.19,-0.93,-0.21,-0.94,0.95,0.94,0.79,0.76,0.75,0.74
81.35,-0.22,-0.93,-0.23,-0.94,0.94,0.93,0.78,0.72,0.71,0.71
82.16,-0.27,-0.95,-0.26,-0.94,0.93,0.92,0.78,0.65,0.67,0.68
82.98,-0.29,-0.95,-0.29,-0.93,0.91,0.91,0.78,0.62,0.62,0.65
83.81,-0.29,-0.90,-0.29,-0.91,0.90,0.90,0.78,0.61,0.61,0.61
84.65,-0.29,-0.87,-0.29,-0.87,0.89,0.89,0.78,0.60,0.60,0.58
85.50,-0.29,-0.85,-0.30,-0.85,0.89,0.88,0.78,0.60,0.59,0.55
86.35,-0.32,-0.84,-0.34,-0.85,0.88,0.88,0.78,0.56,0.55,0.52
87.22,-0.39,-0.88,-0.39,-0.88,0.87,0.87,0.79,0.48,0.49,0.49
88.09,-0.44,-0.89,-0.44,-0.89,0.86,0.87,0.79,0.42,0.42,0.45
88.97,-0.48,-0.91,-0.47,-0.90,0.85,0.87,0.79,0.37,0.38,0.43
89.86,-0.48,-0.87,-0.48,-0.87,0.84,0.87,0.80,0.36,0.36,0.39
90.76,-0.48,-0.84,-0.48,-0.84,0.84,0.87,0.80,0.36,0.36,0.35
91.66,-0.48,-0.81,-0.49,-0.81,0.84,0.87,0.81,0.35,0.35,0.33
92.58,-0.50,-0.79,-0.51,-0.80,0.83,0.87,0.81,0.33,0.33,0.29
93.51,-0.55,-0.82,-0.54,-0.81,0.84,0.87,0.82,0.28,0.29,0.26
94.44,-0.59,-0.83,-0.61,-0.85,0.85,0.88,0.82,0.26,0.24,0.24
95.39,-0.68,-0.89,-0.69,-0.89,0.88,0.88,0.83,0.20,0.20,0.21
96.34,-0.78,-0.95,-0.75,-0.92,0.93,0.89,0.84,0.14,0.17,0.17
97.30,-0.81,-0.96,-0.82,-0.96,0.98,0.90,0.85,0.16,0.16,0.14
98.28,-0.87,-0.99,-0.90,-1.01,1.03,0.91,0.85,0.16,0.13,0.11
99.26,-0.98,-1.08,-0.99,-1.08,1.08,0.92,0.86,0.09,0.09,0.09
100.25,-1.10,-1.17,-1.09,-1.15,1.12,0.93,0.87,0.02,0.03,0.07
101.25,-1.17,-1.21,-1.16,-1.19,1.16,0.94,0.88,-0.01,0.00,0.04
102.27,-1.20,-1.21,-1.19,-1.20,1.19,0.95,0.89,-0.01,-0.01,0.01
103.29,-1.20,-1.16,-1.24,-1.20,1.21,0.96,0.89,0.01,-0.03,-0.04
104.32,-1.26,-1.20,-1.28,-1.22,1.22,0.97,0.90,-0.04,-0.06,-0.06
105.37,-1.37,-1.27,-1.32,-1.22,1.23,0.98,0.91,-0.15,-0.09,-0.10
106.42,-1.35,-1.22,-1.35,-1.22,1.22,1.00,0.92,-0.13,-0.13,-0.13
107.48,-1.33,-1.16,-1.37,-1.20,1.21,1.01,0.92,-0.13,-0.16,-0.17
108.56,-1.39,-1.18,-1.39,-1.18,1.18,1.01,0.93,-0.21,-0.20,-0.21
109.64,-1.41,-1.16,-1.42,-1.18,1.16,1.02,0.93,-0.26,-0.26,-0.25
110.74,-1.46,-1.19,-1.43,-1.15,1.13,1.02,0.94,-0.34,-0.31,-0.28
111.85,-1.42,-1.12,-1.42,-1.10,1.09,1.03,0.94,-0.33,-0.32,-0.31
112.97,-1.36,-1.01,-1.39,-1.05,1.06,1.03,0.94,-0.30,-0.33,-0.36
114.10,-1.37,-1.00,-1.37,-0.99,1.02,1.02,0.94,-0.35,-0.35,-0.37
115.24,-1.37,-0.96,-1.37,-0.95,0.98,1.01,0.94,-0.39,-0.38,-0.41
116.39,-1.37,-0.93,-1.38,-0.94,0.94,1.00,0.94,-0.43,-0.44,-0.44
117.55,-1.37,-0.91,-1.39,-0.92,0.89,0.99,0.94,-0.48,-0.50,-0.47
118.73,-1.39,-0.90,-1.37,-0.88,0.85,0.96,0.93,-0.55,-0.52,-0.50
119.92,-1.36,-0.86,-1.33,-0.82,0.81,0.94,0.92,-0.56,-0.53,-0.50
121.12,-1.24,-0.71,-1.29,-0.76,0.77,0.91,0.91,-0.48,-0.52,-0.53
122.33,-1.24,-0.70,-1.24,-0.70,0.73,0.88,0.90,-0.51,-0.52,-0.55
123.55,-1.23,-0.68,-1.22,-0.66,0.69,0.84,0.89,-0.54,-0.53,-0.55
124.79,-1.22,-0.65,-1.22,-0.65,0.66,0.80,0.87,-0.57,-0.57,-0.58
126.03,-1.21,-0.62,-1.22,-0.62,0.63,0.76,0.85,-0.59,-0.59,-0.59
127.29,-1.21,-0.61,-1.21,-0.60,0.60,0.71,0.83,-0.61,-0.61,-0.61
128.57,-1.20,-0.57,-1.21,-0.58,0.58,0.66,0.81,-0.63,-0.63,-0.63
129.85,-1.20,-0.56,-1.20,-0.56,0.55,0.61,0.78,-0.65,-0.65,-0.64
131.15,-1.19,-0.54,-1.20,-0.55,0.53,0.56,0.75,-0.67,-0.68,-0.66
132.46,-1.19,-0.52,-1.17,-0.50,0.49,0.51,0.72,-0.70,-0.68,-0.67
133.79,-1.15,-0.48,-1.13,-0.45,0.46,0.45,0.69,-0.70,-0.67,-0.67
135.12,-1.04,-0.34,-1.11,-0.42,0.42,0.40,0.66,-0.63,-0.69,-0.70
136.48,-1.09,-0.39,-1.09,-0.38,0.38,0.34,0.62,-0.72,-0.71,-0.70
137.84,-1.11,-0.39,-1.06,-0.33,0.34,0.29,0.58,-0.78,-0.72,-0.72
139.22,-1.02,-0.27,-1.04,-0.29,0.29,0.23,0.54,-0.73,-0.75,-0.75
140.61,-0.97,-0.20,-1.00,-0.23,0.25,0.18,0.50,-0.73,-0.75,-0.77
142.02,-0.97,-0.20,-0.98,-0.20,0.20,0.12,0.46,-0.77,-0.78,-0.77
143.44,-0.97,-0.18,-0.97,-0.18,0.15,0.07,0.42,-0.82,-0.82,-0.79
144.87,-0.97,-0.16,-0.94,-0.12,0.11,0.02,0.37,-0.87,-0.83,-0.82
146.32,-0.88,-0.04,-0.90,-0.06,0.06,-0.03,0.33,-0.82,-0.84,-0.84
147.78,-0.83,0.04,-0.86,0.01,0.01,-0.08,0.28,-0.82,-0.85,-0.87
149.26,-0.86,0.04,-0.85,0.06,-0.04,-0.13,0.23,-0.90,-0.89,-0.91
150.75,-0.87,0.09,-0.86,0.09,-0.09,-0.18,0.18,-0.96,-0.95,-0.96
152.26,-0.87,0.13,-0.88,0.13,-0.15,-0.23,0.13,-1.02,-1.02,-1.00
153.78,-0.87,0.19,-0.87,0.19,-0.21,-0.28,0.08,-1.08,-1.08,-1.06
155.32,-0.87,0.25,-0.87,0.25,-0.27,-0.33,0.03,-1.14,-1.14,-1.12
156.88,-0.86,0.31,-0.87,0.32,-0.33,-0.37,-0.03,-1.19,-1.19,-1.17
158.44,-0.86,0.38,-0.86,0.38,-0.37,-0.42,-0.08,-1.23,-1.24,-1.25
160.03,-0.86,0.44,-0.86,0.44,-0.41,-0.46,-0.13,-1.27,-1.27,-1.31
161.63,-0.87,0.49,-0.86,0.50,-0.44,-0.51,-0.19,-1.31,-1.30,-1.36
163.24,-0.87,0.55,-0.89,0.52,-0.48,-0.55,-0.24,-1.35,-1.36,-1.42
164.88,-0.91,0.54,-0.94,0.52,-0.51,-0.59,-0.30,-1.43,-1.45,-1.45
166.53,-1.01,0.47,-1.01,0.48,-0.55,-0.63,-0.36,-1.57,-1.56,-1.49
168.19,-1.04,0.47,-1.02,0.49,-0.59,-0.68,-0.41,-1.64,-1.62,-1.52
169.87,-1.04,0.50,-0.96,0.58,-0.63,-0.72,-0.47,-1.67,-1.59,-1.54
171.57,-0.80,0.76,-0.88,0.68,-0.65,-0.76,-0.53,-1.46,-1.53,-1.56
173.29,-0.76,0.81,-0.80,0.77,-0.68,-0.80,-0.59,-1.44,-1.48,-1.57
175.02,-0.81,0.76,-0.78,0.80,-0.71,-0.84,-0.65,-1.52,-1.48,-1.58
176.77,-0.81,0.77,-0.80,0.78,-0.74,-0.88,-0.70,-1.56,-1.55,-1.58
178.54,-0.81,0.77,-0.82,0.76,-0.79,-0.93,-0.76,-1.60,-1.61,-1.59
180.32,-0.81,0.76,-0.84,0.73,-0.82,-0.97,-0.83,-1.63,-1.66,-1.57
182.13,-0.84,0.72,-0.81,0.76,-0.84,-1.01,-0.89,-1.68,-1.65,-1.57
183.95,-0.79,0.78,-0.72,0.85,-0.86,-1.05,-0.95,-1.66,-1.59,-1.57
185.79,-0.55,1.02,-0.63,0.95,-0.90,-1.09,-1.01,-1.45,-1.53,-1.58
187.65,-0.53,1.06,-0.56,1.02,-0.95,-1.14,-1.07,-1.48,-1.51,-1.59
189.52,-0.56,1.03,-0.55,1.05,-1.01,-1.18,-1.14,-1.57,-1.56,-1.59
191.42,-0.58,1.02,-0.56,1.04,-1.08,-1.22,-1.20,-1.66,-1.64,-1.60
193.33,-0.54,1.07,-0.53,1.09,-1.14,-1.27,-1.26,-1.69,-1.67,-1.62
195.27,-0.44,1.18,-0.45,1.18,-1.21,-1.32,-1.33,-1.65,-1.66,-1.63
197.22,-0.36,1.29,-0.37,1.28,-1.26,-1.36,-1.39,-1.63,-1.63,-1.65
199.19,-0.29,1.38,-0.31,1.36,-1.32,-1.41,-1.46,-1.62,-1.63,-1.67
201.18,-0.27,1.41,-0.27,1.42,-1.39,-1.46,-1.52,-1.66,-1.66,-1.68
203.19,-0.24,1.45,-0.22,1.47,-1.46,-1.52,-1.59,-1.70,-1.69,-1.69
205.23,-0.17,1.55,-0.18,1.53,-1.54,-1.57,-1.65,-1.71,-1.72,-1.72
207.28,-0.11,1.61,-0.13,1.60,-1.61,-1.63,-1.72,-1.72,-1.74,-1.72
209.35,-0.09,1.66,-0.07,1.68,-1.69,-1.69,-1.78,-1.78,-1.75,-1.75
211.44,0.01,1.78,-0.01,1.76,-1.77,-1.76,-1.84,-1.76,-1.78,-1.77
213.56,0.08,1.85,0.08,1.85,-1.86,-1.83,-1.91,-1.79,-1.78,-1.78
215.69,0.16,1.94,0.17,1.96,-1.97,-1.90,-1.97,-1.81,-1.80,-1.79
217.85,0.30,2.09,0.27,2.06,-2.09,-1.98,-2.03,-1.79,-1.82,-1.79
220.03,0.37,2.18,0.39,2.19,-2.21,-2.06,-2.09,-1.85,-1.83,-1.81
222.23,0.50,2.32,0.51,2.33,-2.34,-2.15,-2.15,-1.84,-1.82,-1.82
224.45,0.67,2.47,0.64,2.45,-2.45,-2.24,-2.20,-1.79,-1.81,-1.81
226.70,0.78,2.58,0.78,2.59,-2.56,-2.34,-2.26,-1.78,-1.78,-1.80
228.96,0.89,2.69,0.90,2.70,-2.65,-2.45,-2.31,-1.76,-1.75,-1.80
231.25,1.00,2.78,0.98,2.77,-2.73,-2.55,-2.36,-1.73,-1.75,-1.79
233.57,1.05,2.82,1.03,2.80,-2.79,-2.66,-2.41,-1.74,-1.76,-1.77
235.90,1.05,2.80,1.07,2.82,-2.83,-2.77,-2.45,-1.78,-1.76,-1.76
238.26,1.09,2.82,1.10,2.84,-2.86,-2.87,-2.49,-1.77,-1.76,-1.73
240.64,1.17,2.88,1.14,2.84,-2.88,-2.95,-2.53,-1.71,-1.74,-1.71
243.05,1.20,2.87,1.20,2.88,-2.88,-3.02,-2.57,-1.69,-1.68,-1.67
245.48,1.22,2.87,1.26,2.91,-2.89,-3.07,-2.60,-1.67,-1.63,-1.65
247.93,1.35,2.97,1.28,2.91,-2.89,-3.10,-2.63,-1.55,-1.61,-1.62
250.41,1.31,2.92,1.31,2.91,-2.91,-3.10,-2.66,-1.60,-1.60,-1.61
252.92,1.29,2.86,1.33,2.91,-2.92,-3.09,-2.68,-1.63,-1.59,-1.57
255.45,1.36,2.91,1.34,2.89,-2.92,-3.06,-2.70,-1.57,-1.59,-1.55
258.00,1.40,2.93,1.38,2.91,-2.93,-3.01,-2.72,-1.53,-1.55,-1.53
260.58,1.42,2.93,1.44,2.96,-2.94,-2.96,-2.73,-1.52,-1.49,-1.52
263.19,1.49,2.98,1.49,2.99,-2.96,-2.91,-2.74,-1.47,-1.47,-1.49
265.82,1.56,3.03,1.52,2.99,-3.00,-2.86,-2.75,-1.44,-1.48,-1.47
268.48,1.55,2.99,1.52,2.97,-3.04,-2.82,-2.75,-1.49,-1.52,-1.45
271.16,1.51,2.93,1.56,2.98,-3.06,-2.77,-2.76,-1.55,-1.50,-1.42
273.87,1.58,2.98,1.65,3.05,-3.06,-2.74,-2.76,-1.48,-1.41,-1.40
276.61,1.83,3.20,1.76,3.14,-3.04,-2.71,-2.76,-1.21,-1.28,-1.38
279.38,1.87,3.22,1.81,3.17,-3.00,-2.68,-2.76,-1.13,-1.19,-1.35
282.17,1.75,3.08,1.74,3.07,-2.97,-2.66,-2.76,-1.22,-1.22,-1.33
284.99,1.57,2.86,1.57,2.87,-2.93,-2.65,-2.75,-1.36,-1.36,-1.30
287.84,1.43,2.70,1.48,2.75,-2.89,-2.64,-2.75,-1.46,-1.41,-1.27
290.72,1.43,2.66,1.48,2.71,-2.84,-2.63,-2.74,-1.42,-1.37,-1.23
293.63,1.61,2.81,1.53,2.73,-2.79,-2.62,-2.74,-1.18,-1.26,-1.21
296.57,1.61,2.77,1.61,2.78,-2.74,-2.62,-2.73,-1.13,-1.13,-1.17
299.53,1.62,2.77,1.65,2.79,-2.70,-2.63,-2.73,-1.08,-1.05,-1.15
302.53,1.65,2.77,1.62,2.74,-2.68,-2.63,-2.72,-1.03,-1.05,-1.12
305.55,1.61,2.69,1.57,2.66,-2.65,-2.64,-2.72,-1.05,-1.08,-1.08
308.61,1.50,2.56,1.53,2.60,-2.61,-2.65,-2.72,-1.11,-1.08,-1.07
311.69,1.44,2.49,1.50,2.54,-2.55,-2.66,-2.72,-1.12,-1.06,-1.05
314.81,1.54,2.55,1.46,2.48,-2.49,-2.67,-2.72,-0.95,-1.03,-1.01
317.96,1.45,2.45,1.43,2.43,-2.42,-2.68,-2.72,-0.98,-1.00,-1.00
321.14,1.33,2.31,1.37,2.36,-2.36,-2.70,-2.72,-1.03,-0.99,-0.98
324.35,1.31,2.28,1.31,2.28,-2.30,-2.71,-2.72,-1.00,-0.99,-0.98
327.59,1.31,2.26,1.30,2.26,-2.25,-2.73,-2.73,-0.94,-0.95,-0.96
330.87,1.30,2.25,1.30,2.25,-2.21,-2.74,-2.74,-0.91,-0.91,-0.95
334.18,1.30,2.24,1.26,2.20,-2.19,-2.76,-2.75,-0.89,-0.93,-0.94
337.52,1.22,2.15,1.22,2.15,-2.19,-2.78,-2.76,-0.97,-0.97,-0.93
340.90,1.16,2.07,1.21,2.13,-2.20,-2.80,-2.78,-1.04,-0.99,-0.91
344.30,1.25,2.15,1.24,2.14,-2.22,-2.81,-2.79,-0.97,-0.98,-0.91
347.75,1.36,2.25,1.32,2.22,-2.25,-2.83,-2.81,-0.89,-0.92,-0.90
351.23,1.40,2.28,1.46,2.35,-2.27,-2.85,-2.83,-0.87,-0.81,-0.89
354.74,1.54,2.43,1.53,2.41,-2.30,-2.87,-2.85,-0.76,-0.77,-0.89
358.28,1.63,2.51,1.50,2.39,-2.33,-2.89,-2.88,-0.70,-0.83,-0.88
361.87,1.43,2.31,1.48,2.36,-2.36,-2.91,-2.91,-0.93,-0.88,-0.88
365.49,1.36,2.23,1.47,2.35,-2.39,-2.93,-2.94,-1.03,-0.91,-0.87
369.14,1.57,2.44,1.51,2.38,-2.42,-2.95,-2.97,-0.86,-0.92,-0.87
372.83,1.63,2.50,1.55,2.42,-2.47,-2.98,-3.00,-0.84,-0.92,-0.87
376.56,1.60,2.47,1.60,2.47,-2.52,-3.00,-3.04,-0.92,-0.91,-0.88
380.33,1.53,2.38,1.68,2.54,-2.58,-3.02,-3.08,-1.05,-0.90,-0.86
384.13,1.85,2.71,1.77,2.63,-2.64,-3.04,-3.12,-0.80,-0.88,-0.87
387.97,1.98,2.84,1.89,2.75,-2.70,-3.06,-3.16,-0.73,-0.82,-0.87
391.85,1.91,2.78,2.02,2.89,-2.77,-3.08,-3.20,-0.86,-0.74,-0.87
395.77,2.05,2.91,2.03,2.89,-2.83,-3.10,-3.25,-0.78,-0.80,-0.86
399.73,2.11,2.97,1.97,2.84,-2.88,-3.13,-3.30,-0.78,-0.91,-0.86
403.72,1.90,2.77,1.99,2.85,-2.92,-3.15,-3.34,-1.03,-0.94,-0.87
407.76,1.90,2.77,2.03,2.90,-2.95,-3.17,-3.39,-1.05,-0.92,-0.87
411.84,2.21,3.07,2.10,2.97,-2.98,-3.19,-3.44,-0.77,-0.88,-0.86
415.96,2.28,3.15,2.20,3.07,-3.01,-3.22,-3.49,-0.74,-0.81,-0.87
420.12,2.18,3.05,2.24,3.11,-3.06,-3.24,-3.54,-0.88,-0.82,-0.87
424.32,2.20,3.06,2.21,3.08,-3.11,-3.26,-3.59,-0.92,-0.90,-0.86
428.56,2.26,3.12,2.23,3.09,-3.17,-3.29,-3.64,-0.91,-0.93,-0.86
432.85,2.32,3.16,2.35,3.20,-3.22,-3.31,-3.69,-0.90,-0.86,-0.85
437.18,2.46,3.28,2.50,3.32,-3.26,-3.34,-3.74,-0.81,-0.76,-0.83
441.55,2.67,3.45,2.56,3.36,-3.31,-3.36,-3.79,-0.64,-0.75,-0.79
445.96,2.67,3.42,2.60,3.36,-3.35,-3.39,-3.83,-0.69,-0.75,-0.76
450.42,2.50,3.22,2.64,3.36,-3.40,-3.41,-3.87,-0.90,-0.76,-0.73
454.93,2.74,3.40,2.76,3.43,-3.45,-3.44,-3.91,-0.71,-0.69,-0.67
459.48,2.95,3.57,2.92,3.54,-3.51,-3.47,-3.95,-0.57,-0.60,-0.63
464.07,3.17,3.74,3.01,3.58,-3.59,-3.50,-3.99,-0.42,-0.58,-0.57
468.71,3.02,3.54,3.09,3.61,-3.67,-3.53,-4.02,-0.65,-0.58,-0.52
473.40,3.02,3.49,3.19,3.65,-3.75,-3.56,-4.04,-0.73,-0.56,-0.47
478.13,3.49,3.91,3.33,3.75,-3.81,-3.59,-4.06,-0.32,-0.47,-0.42
482.91,3.54,3.92,3.58,3.95,-3.85,-3.63,-4.08,-0.31,-0.27,-0.38
487.74,3.73,4.06,3.75,4.08,-3.88,-3.66,-4.09,-0.16,-0.14,-0.33
492.62,3.83,4.12,3.74,4.04,-3.92,-3.70,-4.10,-0.09,-0.18,-0.29
