frequency,raw,error,smoothed,error_smoothed,equalization,parametric_eq,fixed_band_eq,equalized_raw,equalized_smoothed,target
20.00,5.71,1.16,5.71,1.17,-1.16,-1.63,-1.25,4.55,4.55,4.55
20.20,5.76,1.22,5.75,1.21,-1.21,-1.66,-1.29,4.55,4.54,4.54
20.40,5.79,1.25,5.79,1.25,-1.26,-1.68,-1.33,4.53,4.53,4.53
20.61,5.83,1.30,5.83,1.30,-1.31,-1.71,-1.37,4.52,4.52,4.52
20.81,5.88,1.35,5.87,1.35,-1.36,-1.73,-1.41,4.52,4.52,4.52
21.02,5.92,1.39,5.92,1.40,-1.41,-1.75,-1.45,4.51,4.51,4.52
21.23,5.97,1.46,5.96,1.46,-1.46,-1.78,-1.49,4.51,4.50,4.50
21.44,6.00,1.51,6.00,1.51,-1.51,-1.80,-1.54,4.48,4.48,4.48
21.66,6.04,1.57,6.04,1.58,-1.57,-1.83,-1.59,4.46,4.47,4.46
21.87,6.07,1.63,6.07,1.63,-1.63,-1.85,-1.63,4.44,4.44,4.43
22.09,6.11,1.69,6.10,1.69,-1.69,-1.88,-1.68,4.42,4.41,4.41
22.31,6.13,1.73,6.13,1.74,-1.74,-1.90,-1.73,4.38,4.39,4.39
22.54,6.16,1.79,6.16,1.80,-1.80,-1.93,-1.78,4.36,4.36,4.36
22.76,6.19,1.85,6.18,1.85,-1.85,-1.96,-1.83,4.33,4.33,4.33
22.99,6.21,1.90,6.21,1.91,-1.90,-1.98,-1.89,4.30,4.30,4.30
23.22,6.23,1.95,6.23,1.96,-1.95,-2.01,-1.94,4.27,4.28,4.27
23.45,6.26,2.01,6.25,2.00,-2.00,-2.03,-2.00,4.26,4.26,4.25
23.69,6.28,2.04,6.28,2.05,-2.04,-2.06,-2.06,4.24,4.24,4.23
23.92,6.30,2.09,6.30,2.08,-2.08,-2.09,-2.12,4.22,4.22,4.21
24.16,6.32,2.12,6.31,2.12,-2.12,-2.11,-2.18,4.20,4.19,4.20
24.40,6.33,2.15,6.33,2.15,-2.16,-2.14,-2.24,4.17,4.18,4.18
24.65,6.35,2.19,6.35,2.19,-2.19,-2.17,-2.30,4.16,4.16,4.16
24.89,6.37,2.23,6.36,2.22,-2.23,-2.19,-2.36,4.14,4.14,4.14
25.14,6.38,2.26,6.38,2.26,-2.26,-2.22,-2.42,4.11,4.12,4.12
25.39,6.40,2.30,6.40,2.30,-2.30,-2.25,-2.49,4.10,4.10,4.10
25.65,6.42,2.33,6.42,2.33,-2.34,-2.28,-2.55,4.08,4.08,4.09
25.91,6.44,2.38,6.44,2.38,-2.37,-2.30,-2.62,4.06,4.06,4.06
26.16,6.46,2.41,6.46,2.41,-2.41,-2.33,-2.68,4.05,4.05,4.05
26.43,6.48,2.45,6.47,2.45,-2.44,-2.36,-2.74,4.03,4.03,4.03
26.69,6.49,2.47,6.49,2.48,-2.48,-2.39,-2.81,4.01,4.01,4.01
26.96,6.51,2.51,6.51,2.51,-2.51,-2.41,-2.87,4.00,4.00,3.99
27.23,6.53,2.54,6.52,2.54,-2.54,-2.44,-2.93,3.99,3.98,3.98
27.50,6.53,2.56,6.53,2.57,-2.57,-2.47,-2.99,3.96,3.96,3.96
27.77,6.54,2.59,6.54,2.60,-2.60,-2.50,-3.05,3.94,3.94,3.94
28.05,6.56,2.63,6.55,2.63,-2.63,-2.53,-3.11,3.93,3.93,3.93
28.33,6.57,2.67,6.57,2.66,-2.65,-2.56,-3.16,3.91,3.91,3.90
28.62,6.58,2.69,6.58,2.68,-2.68,-2.58,-3.22,3.90,3.90,3.89
28.90,6.59,2.70,6.59,2.71,-2.71,-2.61,-3.27,3.88,3.88,3.89
29.19,6.60,2.73,6.60,2.73,-2.73,-2.64,-3.31,3.86,3.87,3.87
29.48,6.63,2.76,6.62,2.76,-2.76,-2.67,-3.36,3.86,3.86,3.87
29.78,6.64,2.79,6.64,2.79,-2.79,-2.70,-3.40,3.84,3.85,3.85
30.08,6.66,2.82,6.65,2.82,-2.82,-2.73,-3.43,3.83,3.83,3.83
30.38,6.67,2.85,6.67,2.86,-2.86,-2.75,-3.47,3.81,3.81,3.81
30.68,6.69,2.89,6.69,2.89,-2.89,-2.78,-3.49,3.79,3.80,3.79
30.99,6.71,2.93,6.70,2.93,-2.93,-2.81,-3.52,3.78,3.78,3.77
31.30,6.73,2.97,6.73,2.97,-2.97,-2.84,-3.54,3.76,3.76,3.76
31.61,6.75,3.00,6.74,3.00,-3.00,-2.87,-3.56,3.74,3.74,3.75
31.93,6.77,3.05,6.76,3.04,-3.04,-2.90,-3.57,3.72,3.72,3.72
32.24,6.78,3.08,6.78,3.08,-3.08,-2.92,-3.58,3.69,3.70,3.70
32.57,6.81,3.13,6.80,3.12,-3.12,-2.95,-3.58,3.68,3.68,3.67
32.89,6.82,3.15,6.82,3.16,-3.17,-2.98,-3.58,3.65,3.66,3.66
33.22,6.85,3.21,6.84,3.21,-3.21,-3.01,-3.58,3.64,3.64,3.63
33.55,6.87,3.25,6.86,3.25,-3.25,-3.04,-3.57,3.61,3.61,3.62
33.89,6.89,3.30,6.89,3.29,-3.30,-3.06,-3.57,3.59,3.59,3.59
34.23,6.91,3.33,6.91,3.34,-3.34,-3.09,-3.56,3.57,3.57,3.58
34.57,6.94,3.39,6.93,3.38,-3.38,-3.12,-3.54,3.56,3.55,3.54
34.92,6.96,3.43,6.95,3.42,-3.42,-3.15,-3.53,3.53,3.53,3.52
35.27,6.97,3.45,6.97,3.46,-3.46,-3.17,-3.51,3.50,3.51,3.51
35.62,6.99,3.50,6.98,3.50,-3.50,-3.20,-3.49,3.48,3.48,3.49
35.97,7.00,3.54,7.00,3.53,-3.54,-3.23,-3.47,3.46,3.46,3.46
36.33,7.02,3.57,7.01,3.57,-3.58,-3.26,-3.46,3.44,3.44,3.44
36.70,7.03,3.60,7.03,3.61,-3.61,-3.28,-3.44,3.42,3.42,3.42
37.06,7.05,3.66,7.04,3.65,-3.64,-3.31,-3.42,3.40,3.40,3.39
37.43,7.06,3.68,7.05,3.68,-3.67,-3.34,-3.40,3.38,3.38,3.38
37.81,7.06,3.70,7.06,3.71,-3.70,-3.36,-3.38,3.35,3.36,3.36
38.19,7.07,3.73,7.06,3.73,-3.73,-3.39,-3.36,3.34,3.33,3.33
38.57,7.07,3.75,7.07,3.75,-3.75,-3.41,-3.34,3.31,3.31,3.32
38.95,7.07,3.77,7.07,3.77,-3.78,-3.44,-3.33,3.29,3.29,3.30
39.34,7.07,3.79,7.07,3.80,-3.80,-3.46,-3.31,3.27,3.27,3.27
39.74,7.07,3.83,7.07,3.82,-3.82,-3.49,-3.30,3.25,3.25,3.24
40.14,7.07,3.84,7.06,3.84,-3.84,-3.51,-3.29,3.23,3.23,3.23
40.54,7.06,3.85,7.06,3.85,-3.85,-3.54,-3.28,3.21,3.21,3.20
40.94,7.06,3.87,7.06,3.87,-3.86,-3.56,-3.27,3.19,3.19,3.19
41.35,7.05,3.88,7.05,3.88,-3.88,-3.59,-3.27,3.17,3.17,3.17
41.76,7.05,3.89,7.04,3.89,-3.88,-3.61,-3.27,3.16,3.16,3.15
42.18,7.03,3.89,7.03,3.89,-3.89,-3.63,-3.27,3.13,3.14,3.14
42.60,7.02,3.90,7.02,3.89,-3.90,-3.66,-3.27,3.12,3.12,3.12
43.03,7.01,3.89,7.00,3.90,-3.91,-3.68,-3.27,3.10,3.10,3.11
43.46,6.99,3.90,6.99,3.91,-3.91,-3.70,-3.28,3.07,3.08,3.09
43.90,6.98,3.92,6.98,3.92,-3.92,-3.72,-3.29,3.06,3.06,3.05
44.33,6.97,3.94,6.96,3.93,-3.93,-3.75,-3.30,3.04,3.03,3.03
44.78,6.94,3.92,6.94,3.93,-3.93,-3.77,-3.32,3.01,3.01,3.01
45.23,6.93,3.94,6.92,3.94,-3.93,-3.79,-3.34,2.99,2.99,2.99
45.68,6.91,3.93,6.91,3.94,-3.94,-3.81,-3.36,2.97,2.97,2.97
46.13,6.90,3.95,6.89,3.94,-3.94,-3.83,-3.38,2.96,2.96,2.95
46.60,6.88,3.94,6.88,3.94,-3.93,-3.85,-3.40,2.94,2.94,2.94
47.06,6.86,3.93,6.86,3.93,-3.93,-3.87,-3.43,2.92,2.93,2.93
47.53,6.84,3.93,6.84,3.93,-3.93,-3.89,-3.46,2.91,2.91,2.91
48.01,6.82,3.92,6.81,3.92,-3.93,-3.91,-3.49,2.89,2.89,2.89
48.49,6.79,3.92,6.79,3.92,-3.93,-3.93,-3.53,2.86,2.86,2.87
48.97,6.77,3.93,6.76,3.92,-3.93,-3.95,-3.56,2.84,2.84,2.84
49.46,6.74,3.92,6.74,3.93,-3.93,-3.96,-3.60,2.81,2.81,2.81
49.96,6.72,3.93,6.72,3.93,-3.92,-3.98,-3.64,2.79,2.79,2.79
50.46,6.70,3.93,6.69,3.93,-3.92,-4.00,-3.68,2.77,2.77,2.77
50.96,6.67,3.92,6.67,3.92,-3.92,-4.01,-3.72,2.75,2.75,2.75
51.47,6.65,3.92,6.64,3.92,-3.92,-4.03,-3.77,2.73,2.73,2.72
51.99,6.62,3.91,6.62,3.91,-3.91,-4.05,-3.81,2.70,2.71,2.70
52.51,6.60,3.90,6.59,3.90,-3.91,-4.06,-3.86,2.69,2.69,2.69
53.03,6.57,3.89,6.57,3.90,-3.90,-4.08,-3.91,2.66,2.67,2.67
53.56,6.55,3.90,6.55,3.90,-3.90,-4.09,-3.95,2.65,2.65,2.65
54.10,6.53,3.90,6.52,3.89,-3.90,-4.11,-4.00,2.63,2.62,2.63
54.64,6.50,3.89,6.50,3.90,-3.90,-4.12,-4.04,2.60,2.61,2.61
55.18,6.48,3.89,6.48,3.89,-3.90,-4.13,-4.09,2.58,2.58,2.59
55.74,6.47,3.90,6.46,3.89,-3.90,-4.14,-4.13,2.57,2.56,2.56
56.29,6.44,3.89,6.44,3.90,-3.90,-4.16,-4.18,2.54,2.55,2.54
56.86,6.43,3.90,6.42,3.90,-3.90,-4.17,-4.22,2.53,2.53,2.52
57.42,6.41,3.91,6.40,3.90,-3.90,-4.18,-4.26,2.51,2.51,2.50
58.00,6.39,3.90,6.39,3.90,-3.90,-4.19,-4.29,2.49,2.49,2.49
58.58,6.37,3.89,6.37,3.90,-3.90,-4.20,-4.33,2.47,2.47,2.47
59.16,6.36,3.89,6.35,3.90,-3.90,-4.21,-4.36,2.46,2.46,2.46
59.76,6.34,3.90,6.33,3.90,-3.90,-4.22,-4.39,2.44,2.43,2.44
60.35,6.32,3.90,6.32,3.90,-3.91,-4.23,-4.41,2.41,2.41,2.41
60.96,6.30,3.90,6.30,3.91,-3.91,-4.24,-4.43,2.38,2.39,2.40
61.57,6.29,3.92,6.29,3.92,-3.92,-4.25,-4.45,2.37,2.37,2.36
62.18,6.28,3.94,6.28,3.93,-3.93,-4.26,-4.46,2.35,2.35,2.34
62.80,6.27,3.94,6.26,3.95,-3.94,-4.26,-4.47,2.33,2.33,2.32
63.43,6.26,3.96,6.25,3.96,-3.95,-4.27,-4.48,2.31,2.30,2.30
64.07,6.24,3.96,6.24,3.96,-3.96,-4.28,-4.48,2.28,2.28,2.28
64.71,6.24,3.97,6.23,3.97,-3.97,-4.28,-4.48,2.27,2.26,2.26
65.35,6.22,3.97,6.22,3.97,-3.98,-4.29,-4.47,2.24,2.24,2.24
66.01,6.21,3.98,6.21,3.99,-3.99,-4.30,-4.47,2.22,2.22,2.23
66.67,6.21,4.00,6.20,4.00,-4.00,-4.30,-4.45,2.21,2.20,2.21
67.33,6.21,4.02,6.20,4.01,-4.01,-4.31,-4.44,2.20,2.19,2.19
68.01,6.19,4.02,6.19,4.03,-4.02,-4.31,-4.42,2.16,2.17,2.17
68.69,6.19,4.04,6.18,4.04,-4.04,-4.31,-4.40,2.15,2.15,2.15
69.37,6.18,4.05,6.18,4.05,-4.05,-4.32,-4.38,2.13,2.13,2.12
70.07,6.17,4.06,6.17,4.06,-4.06,-4.32,-4.36,2.10,2.11,2.10
70.77,6.17,4.08,6.16,4.07,-4.08,-4.33,-4.34,2.09,2.08,2.09
71.48,6.16,4.09,6.16,4.09,-4.09,-4.33,-4.31,2.06,2.06,2.07
72.19,6.15,4.10,6.15,4.11,-4.11,-4.33,-4.29,2.04,2.04,2.04
72.91,6.15,4.14,6.14,4.13,-4.13,-4.33,-4.26,2.02,2.01,2.01
73.64,6.14,4.15,6.14,4.15,-4.14,-4.34,-4.24,1.99,1.99,1.98
74.38,6.13,4.16,6.13,4.17,-4.16,-4.34,-4.21,1.96,1.97,1.97
75.12,6.13,4.18,6.12,4.18,-4.18,-4.34,-4.19,1.95,1.94,1.94
75.87,6.12,4.20,6.12,4.19,-4.20,-4.34,-4.17,1.92,1.92,1.92
76.63,6.11,4.21,6.11,4.21,-4.21,-4.34,-4.15,1.89,1.89,1.90
77.40,6.10,4.22,6.10,4.23,-4.23,-4.34,-4.13,1.87,1.87,1.87
78.17,6.09,4.25,6.09,4.24,-4.24,-4.34,-4.11,1.84,1.84,1.83
78.95,6.08,4.26,6.08,4.26,-4.26,-4.34,-4.09,1.81,1.81,1.81
79.74,6.07,4.27,6.07,4.28,-4.28,-4.34,-4.08,1.79,1.79,1.79
80.54,6.06,4.29,6.06,4.29,-4.30,-4.34,-4.07,1.76,1.76,1.76
81.35,6.06,4.32,6.05,4.31,-4.32,-4.34,-4.06,1.74,1.73,1.73
82.16,6.04,4.33,6.04,4.33,-4.33,-4.35,-4.06,1.70,1.71,1.70
82.98,6.03,4.35,6.03,4.35,-4.35,-4.35,-4.05,1.67,1.68,1.68
83.81,6.02,4.38,6.01,4.37,-4.37,-4.35,-4.05,1.65,1.64,1.64
84.65,6.00,4.39,6.00,4.39,-4.39,-4.35,-4.05,1.61,1.61,1.61
85.50,5.99,4.40,5.98,4.40,-4.40,-4.35,-4.06,1.58,1.58,1.58
86.35,5.97,4.42,5.97,4.42,-4.42,-4.35,-4.07,1.55,1.55,1.55
87.22,5.95,4.43,5.95,4.44,-4.44,-4.35,-4.08,1.51,1.52,1.51
88.09,5.94,4.46,5.93,4.45,-4.45,-4.35,-4.09,1.49,1.48,1.48
88.97,5.92,4.46,5.92,4.46,-4.46,-4.35,-4.11,1.45,1.45,1.45
89.86,5.90,4.47,5.90,4.47,-4.48,-4.35,-4.13,1.42,1.42,1.43
90.76,5.88,4.49,5.88,4.49,-4.49,-4.35,-4.16,1.39,1.39,1.38
91.66,5.86,4.50,5.85,4.50,-4.50,-4.35,-4.18,1.35,1.35,1.36
92.58,5.84,4.53,5.83,4.52,-4.52,-4.35,-4.22,1.32,1.32,1.31
93.51,5.81,4.52,5.81,4.53,-4.53,-4.35,-4.25,1.28,1.28,1.29
94.44,5.80,4.54,5.79,4.54,-4.54,-4.35,-4.28,1.25,1.25,1.25
95.39,5.77,4.55,5.76,4.55,-4.55,-4.35,-4.32,1.21,1.21,1.22
96.34,5.74,4.57,5.74,4.57,-4.57,-4.35,-4.37,1.17,1.17,1.17
97.30,5.71,4.58,5.71,4.58,-4.58,-4.36,-4.41,1.13,1.13,1.13
98.28,5.69,4.60,5.68,4.59,-4.59,-4.36,-4.46,1.10,1.09,1.09
99.26,5.66,4.60,5.66,4.61,-4.60,-4.36,-4.50,1.05,1.05,1.05
100.25,5.63,4.61,5.63,4.61,-4.61,-4.37,-4.56,1.01,1.01,1.01
101.25,5.60,4.62,5.59,4.62,-4.62,-4.37,-4.61,0.97,0.97,0.97
102.27,5.56,4.62,5.56,4.63,-4.63,-4.37,-4.66,0.92,0.93,0.93
103.29,5.53,4.65,5.53,4.64,-4.64,-4.38,-4.72,0.88,0.89,0.87
104.32,5.50,4.65,5.49,4.65,-4.65,-4.38,-4.77,0.85,0.84,0.85
105.37,5.47,4.67,5.46,4.66,-4.66,-4.39,-4.83,0.81,0.80,0.80
106.42,5.42,4.66,5.42,4.67,-4.67,-4.39,-4.88,0.75,0.75,0.76
107.48,5.39,4.67,5.38,4.67,-4.68,-4.40,-4.94,0.71,0.71,0.72
108.56,5.35,4.69,5.35,4.68,-4.69,-4.41,-5.00,0.66,0.66,0.66
109.64,5.32,4.70,5.31,4.69,-4.70,-4.41,-5.05,0.62,0.62,0.62
110.74,5.28,4.71,5.28,4.71,-4.70,-4.42,-5.10,0.57,0.57,0.57
111.85,5.24,4.71,5.24,4.71,-4.71,-4.43,-5.15,0.52,0.52,0.53
112.97,5.20,4.73,5.19,4.72,-4.72,-4.44,-5.20,0.47,0.47,0.46
114.10,5.15,4.72,5.15,4.73,-4.73,-4.45,-5.24,0.41,0.42,0.42
115.24,5.12,4.74,5.11,4.74,-4.74,-4.46,-5.28,0.38,0.37,0.37
116.39,5.08,4.75,5.07,4.75,-4.75,-4.47,-5.32,0.33,0.33,0.33
117.55,5.04,4.76,5.03,4.75,-4.75,-4.48,-5.35,0.29,0.28,0.28
118.73,4.99,4.75,4.99,4.76,-4.75,-4.50,-5.38,0.23,0.24,0.23
119.92,4.95,4.75,4.95,4.76,-4.75,-4.51,-5.40,0.19,0.19,0.19
121.12,4.91,4.76,4.90,4.75,-4.75,-4.52,-5.42,0.15,0.15,0.15
122.33,4.86,4.75,4.86,4.75,-4.75,-4.54,-5.43,0.10,0.11,0.10
123.55,4.82,4.75,4.82,4.75,-4.75,-4.55,-5.43,0.06,0.06,0.07
124.79,4.78,4.75,4.78,4.75,-4.75,-4.57,-5.43,0.02,0.02,0.03
126.03,4.74,4.75,4.74,4.75,-4.75,-4.58,-5.42,-0.02,-0.02,-0.01
127.29,4.70,4.76,4.70,4.76,-4.76,-4.60,-5.40,-0.06,-0.06,-0.06
128.57,4.66,4.76,4.66,4.76,-4.76,-4.62,-5.38,-0.10,-0.10,-0.10
129.85,4.62,4.76,4.62,4.76,-4.76,-4.63,-5.35,-0.14,-0.14,-0.15
131.15,4.58,4.76,4.58,4.76,-4.76,-4.65,-5.32,-0.18,-0.18,-0.18
132.46,4.55,4.76,4.54,4.76,-4.75,-4.67,-5.28,-0.21,-0.21,-0.21
133.79,4.51,4.75,4.51,4.75,-4.75,-4.69,-5.23,-0.25,-0.25,-0.24
135.12,4.47,4.75,4.47,4.74,-4.75,-4.71,-5.18,-0.28,-0.28,-0.29
136.48,4.43,4.73,4.43,4.74,-4.74,-4.72,-5.13,-0.31,-0.31,-0.31
137.84,4.39,4.72,4.39,4.73,-4.73,-4.74,-5.07,-0.34,-0.34,-0.34
139.22,4.36,4.72,4.35,4.72,-4.72,-4.76,-5.01,-0.36,-0.36,-0.37
140.61,4.32,4.71,4.32,4.71,-4.70,-4.78,-4.94,-0.39,-0.39,-0.40
142.02,4.29,4.69,4.28,4.69,-4.69,-4.80,-4.87,-0.40,-0.41,-0.40
143.44,4.25,4.68,4.25,4.68,-4.67,-4.81,-4.81,-0.43,-0.43,-0.43
144.87,4.21,4.66,4.21,4.66,-4.66,-4.83,-4.73,-0.45,-0.45,-0.45
146.32,4.18,4.64,4.17,4.64,-4.64,-4.85,-4.66,-0.47,-0.47,-0.47
147.78,4.14,4.62,4.14,4.62,-4.63,-4.86,-4.59,-0.49,-0.49,-0.48
149.26,4.11,4.60,4.10,4.61,-4.61,-4.87,-4.52,-0.50,-0.51,-0.50
150.75,4.07,4.60,4.07,4.59,-4.59,-4.89,-4.44,-0.53,-0.52,-0.53
152.26,4.04,4.58,4.03,4.58,-4.57,-4.90,-4.37,-0.54,-0.54,-0.55
153.78,4.00,4.56,4.00,4.56,-4.56,-4.91,-4.30,-0.56,-0.56,-0.56
155.32,3.96,4.54,3.96,4.54,-4.54,-4.92,-4.23,-0.58,-0.58,-0.58
156.88,3.92,4.51,3.92,4.51,-4.52,-4.92,-4.16,-0.60,-0.60,-0.60
158.44,3.88,4.49,3.88,4.50,-4.50,-4.93,-4.09,-0.62,-0.62,-0.62
160.03,3.84,4.48,3.84,4.48,-4.48,-4.93,-4.03,-0.64,-0.64,-0.64
161.63,3.80,4.47,3.80,4.46,-4.46,-4.93,-3.97,-0.66,-0.66,-0.67
163.24,3.76,4.45,3.76,4.44,-4.44,-4.93,-3.90,-0.68,-0.68,-0.69
164.88,3.72,4.42,3.72,4.42,-4.42,-4.92,-3.84,-0.70,-0.70,-0.70
166.53,3.68,4.40,3.68,4.40,-4.40,-4.91,-3.79,-0.73,-0.73,-0.72
168.19,3.64,4.39,3.64,4.38,-4.38,-4.90,-3.73,-0.75,-0.75,-0.75
169.87,3.60,4.36,3.60,4.37,-4.37,-4.89,-3.68,-0.77,-0.77,-0.77
171.57,3.57,4.36,3.56,4.35,-4.36,-4.87,-3.63,-0.79,-0.79,-0.79
173.29,3.53,4.34,3.53,4.34,-4.35,-4.85,-3.59,-0.82,-0.82,-0.81
175.02,3.50,4.33,3.49,4.34,-4.34,-4.83,-3.54,-0.84,-0.84,-0.84
176.77,3.46,4.33,3.46,4.33,-4.33,-4.80,-3.50,-0.87,-0.87,-0.87
178.54,3.43,4.34,3.42,4.33,-4.33,-4.78,-3.46,-0.90,-0.90,-0.91
180.32,3.39,4.32,3.39,4.32,-4.33,-4.74,-3.43,-0.94,-0.94,-0.94
182.13,3.36,4.32,3.35,4.32,-4.32,-4.71,-3.40,-0.97,-0.97,-0.96
183.95,3.32,4.32,3.32,4.32,-4.32,-4.67,-3.36,-1.01,-1.00,-1.00
185.79,3.30,4.32,3.29,4.32,-4.32,-4.64,-3.34,-1.02,-1.03,-1.03
187.65,3.27,4.33,3.26,4.32,-4.32,-4.59,-3.31,-1.05,-1.06,-1.06
189.52,3.23,4.31,3.23,4.32,-4.32,-4.55,-3.29,-1.09,-1.08,-1.08
191.42,3.21,4.32,3.20,4.32,-4.32,-4.51,-3.27,-1.11,-1.11,-1.12
193.33,3.17,4.31,3.17,4.31,-4.31,-4.46,-3.25,-1.15,-1.15,-1.14
195.27,3.14,4.31,3.13,4.30,-4.31,-4.41,-3.23,-1.17,-1.17,-1.17
197.22,3.10,4.29,3.10,4.30,-4.30,-4.36,-3.22,-1.20,-1.20,-1.19
199.19,3.08,4.31,3.07,4.30,-4.29,-4.31,-3.21,-1.22,-1.22,-1.23
201.18,3.05,4.29,3.04,4.29,-4.28,-4.26,-3.20,-1.24,-1.24,-1.24
203.19,3.00,4.26,3.00,4.27,-4.27,-4.21,-3.19,-1.28,-1.27,-1.26
205.23,2.97,4.26,2.97,4.25,-4.26,-4.16,-3.18,-1.29,-1.29,-1.29
207.28,2.94,4.23,2.93,4.24,-4.24,-4.12,-3.17,-1.30,-1.31,-1.29
209.35,2.90,4.22,2.90,4.22,-4.22,-4.07,-3.17,-1.32,-1.32,-1.32
211.44,2.86,4.21,2.86,4.20,-4.20,-4.03,-3.16,-1.34,-1.34,-1.35
213.56,2.82,4.18,2.81,4.17,-4.17,-3.99,-3.16,-1.35,-1.36,-1.36
215.69,2.77,4.12,2.77,4.13,-4.14,-3.95,-3.15,-1.37,-1.37,-1.36
217.85,2.72,4.09,2.72,4.10,-4.10,-3.92,-3.15,-1.38,-1.38,-1.38
220.03,2.68,4.06,2.67,4.06,-4.05,-3.89,-3.15,-1.38,-1.38,-1.38
222.23,2.63,4.02,2.62,4.01,-4.00,-3.87,-3.14,-1.38,-1.38,-1.39
224.45,2.57,3.94,2.57,3.95,-3.95,-3.85,-3.13,-1.38,-1.38,-1.38
226.70,2.51,3.88,2.51,3.89,-3.89,-3.83,-3.13,-1.38,-1.38,-1.38
228.96,2.46,3.83,2.45,3.82,-3.82,-3.81,-3.12,-1.37,-1.37,-1.37
231.25,2.39,3.74,2.39,3.75,-3.75,-3.78,-3.11,-1.37,-1.37,-1.36
233.57,2.32,3.67,2.32,3.67,-3.68,-3.74,-3.09,-1.36,-1.36,-1.35
235.90,2.25,3.59,2.25,3.59,-3.59,-3.68,-3.08,-1.35,-1.34,-1.34
238.26,2.19,3.52,2.18,3.51,-3.51,-3.61,-3.06,-1.32,-1.32,-1.34
240.64,2.11,3.42,2.11,3.42,-3.42,-3.51,-3.04,-1.31,-1.31,-1.31
243.05,2.04,3.33,2.03,3.32,-3.32,-3.40,-3.02,-1.28,-1.29,-1.30
245.48,1.94,3.21,1.94,3.22,-3.22,-3.27,-2.99,-1.28,-1.27,-1.27
247.93,1.86,3.10,1.86,3.11,-3.11,-3.14,-2.96,-1.26,-1.25,-1.25
250.41,1.78,3.02,1.77,3.00,-3.00,-3.00,-2.93,-1.23,-1.23,-1.24
252.92,1.69,2.89,1.68,2.89,-2.89,-2.86,-2.90,-1.21,-1.21,-1.21
255.45,1.59,2.77,1.59,2.78,-2.78,-2.72,-2.86,-1.19,-1.19,-1.18
258.00,1.50,2.66,1.50,2.66,-2.66,-2.59,-2.81,-1.17,-1.16,-1.17
260.58,1.42,2.56,1.41,2.55,-2.55,-2.46,-2.77,-1.13,-1.14,-1.14
263.19,1.32,2.43,1.32,2.44,-2.44,-2.34,-2.72,-1.12,-1.12,-1.11
265.82,1.24,2.33,1.23,2.32,-2.33,-2.22,-2.67,-1.09,-1.09,-1.10
268.48,1.15,2.21,1.15,2.21,-2.22,-2.11,-2.61,-1.07,-1.07,-1.06
271.16,1.07,2.10,1.06,2.10,-2.11,-2.00,-2.56,-1.04,-1.05,-1.03
273.87,0.98,1.99,0.98,1.99,-2.00,-1.89,-2.50,-1.02,-1.02,-1.02
276.61,0.90,1.89,0.90,1.89,-1.89,-1.79,-2.44,-1.00,-0.99,-0.99
279.38,0.83,1.80,0.82,1.79,-1.78,-1.69,-2.37,-0.96,-0.96,-0.97
282.17,0.74,1.68,0.74,1.68,-1.67,-1.59,-2.31,-0.94,-0.94,-0.95
284.99,0.65,1.57,0.65,1.57,-1.57,-1.49,-2.24,-0.92,-0.92,-0.92
287.84,0.56,1.45,0.56,1.45,-1.45,-1.39,-2.17,-0.90,-0.90,-0.89
290.72,0.48,1.34,0.47,1.34,-1.34,-1.28,-2.10,-0.87,-0.87,-0.87
293.63,0.39,1.22,0.39,1.22,-1.23,-1.18,-2.03,-0.84,-0.84,-0.84
296.57,0.30,1.11,0.30,1.11,-1.11,-1.08,-1.96,-0.81,-0.81,-0.81
299.53,0.21,0.99,0.20,0.99,-0.99,-0.98,-1.88,-0.78,-0.78,-0.78
302.53,0.12,0.88,0.11,0.87,-0.86,-0.87,-1.81,-0.75,-0.75,-0.77
305.55,0.02,0.73,0.02,0.75,-0.74,-0.77,-1.73,-0.73,-0.72,-0.72
308.61,-0.06,0.63,-0.07,0.62,-0.62,-0.66,-1.66,-0.68,-0.69,-0.69
311.69,-0.15,0.50,-0.15,0.49,-0.50,-0.55,-1.59,-0.65,-0.65,-0.65
314.81,-0.23,0.37,-0.24,0.38,-0.38,-0.43,-1.51,-0.61,-0.61,-0.60
317.96,-0.32,0.26,-0.32,0.26,-0.26,-0.32,-1.44,-0.59,-0.58,-0.59
321.14,-0.40,0.15,-0.41,0.15,-0.15,-0.20,-1.36,-0.55,-0.56,-0.56
324.35,-0.49,0.03,-0.49,0.04,-0.04,-0.09,-1.29,-0.53,-0.53,-0.53
327.59,-0.56,-0.06,-0.57,-0.07,0.06,0.03,-1.22,-0.50,-0.50,-0.50
330.87,-0.63,-0.16,-0.64,-0.16,0.16,0.14,-1.14,-0.47,-0.48,-0.47
334.18,-0.71,-0.26,-0.70,-0.25,0.26,0.25,-1.07,-0.46,-0.45,-0.45
337.52,-0.76,-0.33,-0.77,-0.34,0.35,0.36,-1.00,-0.42,-0.43,-0.44
340.90,-0.83,-0.43,-0.83,-0.42,0.43,0.45,-0.93,-0.41,-0.41,-0.41
344.30,-0.89,-0.51,-0.89,-0.50,0.51,0.54,-0.86,-0.39,-0.38,-0.39
347.75,-0.94,-0.57,-0.95,-0.58,0.57,0.61,-0.78,-0.37,-0.37,-0.37
351.23,-0.98,-0.63,-0.99,-0.64,0.63,0.67,-0.71,-0.35,-0.36,-0.35
354.74,-1.03,-0.70,-1.02,-0.69,0.68,0.72,-0.64,-0.35,-0.34,-0.33
358.28,-1.04,-0.73,-1.05,-0.73,0.72,0.75,-0.57,-0.32,-0.32,-0.31
361.87,-1.05,-0.76,-1.06,-0.76,0.75,0.76,-0.51,-0.30,-0.30,-0.29
365.49,-1.05,-0.78,-1.05,-0.78,0.77,0.77,-0.44,-0.28,-0.28,-0.28
369.14,-1.04,-0.78,-1.04,-0.78,0.78,0.77,-0.37,-0.26,-0.26,-0.27
372.83,-1.03,-0.79,-1.03,-0.78,0.79,0.76,-0.30,-0.25,-0.24,-0.25
376.56,-1.00,-0.77,-1.01,-0.78,0.79,0.74,-0.23,-0.22,-0.22,-0.24
380.33,-0.99,-0.78,-0.99,-0.78,0.78,0.72,-0.17,-0.21,-0.21,-0.21
384.13,-0.96,-0.77,-0.96,-0.77,0.77,0.70,-0.10,-0.19,-0.19,-0.19
387.97,-0.93,-0.76,-0.94,-0.76,0.76,0.68,-0.04,-0.18,-0.18,-0.17
391.85,-0.90,-0.74,-0.90,-0.74,0.75,0.66,0.03,-0.16,-0.15,-0.16
395.77,-0.86,-0.73,-0.86,-0.73,0.73,0.64,0.09,-0.13,-0.13,-0.13
399.73,-0.81,-0.70,-0.82,-0.71,0.71,0.63,0.16,-0.10,-0.11,-0.11
403.72,-0.78,-0.69,-0.78,-0.69,0.69,0.61,0.22,-0.09,-0.09,-0.09
407.76,-0.74,-0.67,-0.74,-0.67,0.67,0.60,0.28,-0.08,-0.07,-0.07
411.84,-0.69,-0.65,-0.70,-0.65,0.64,0.60,0.35,-0.05,-0.05,-0.05
415.96,-0.64,-0.62,-0.64,-0.62,0.61,0.59,0.41,-0.03,-0.03,-0.03
420.12,-0.59,-0.59,-0.59,-0.59,0.59,0.59,0.47,-0.01,-0.01,-0.01
424.32,-0.54,-0.56,-0.54,-0.56,0.56,0.59,0.53,0.01,0.01,0.01
428.56,-0.49,-0.53,-0.50,-0.53,0.53,0.59,0.58,0.04,0.03,0.03
432.85,-0.45,-0.51,-0.45,-0.51,0.51,0.59,0.64,0.05,0.06,0.05
437.18,-0.40,-0.49,-0.40,-0.48,0.48,0.60,0.70,0.08,0.08,0.08
441.55,-0.35,-0.46,-0.36,-0.46,0.47,0.61,0.75,0.11,0.11,0.11
445.96,-0.31,-0.44,-0.32,-0.45,0.46,0.61,0.80,0.15,0.14,0.13
450.42,-0.29,-0.44,-0.29,-0.45,0.46,0.62,0.85,0.16,0.16,0.15
454.93,-0.27,-0.46,-0.27,-0.45,0.46,0.63,0.90,0.18,0.19,0.19
459.48,-0.25,-0.46,-0.25,-0.47,0.46,0.63,0.95,0.21,0.21,0.21
464.07,-0.23,-0.47,-0.24,-0.48,0.47,0.64,0.99,0.24,0.23,0.24
468.71,-0.22,-0.49,-0.22,-0.49,0.48,0.65,1.04,0.26,0.26,0.27
473.40,-0.20,-0.50,-0.20,-0.50,0.50,0.65,1.08,0.29,0.29,0.30
478.13,-0.18,-0.51,-0.19,-0.51,0.51,0.66,1.11,0.33,0.32,0.33
482.91,-0.17,-0.52,-0.17,-0.52,0.52,0.66,1.15,0.35,0.35,0.35
487.74,-0.15,-0.53,-0.15,-0.53,0.53,0.66,1.18,0.38,0.38,0.38
492.62,-0.13,-0.54,-0.14,-0.54,0.55,0.65,1.21,0.41,0.41,0.41
497.55,-0.11,-0.55,-0.12,-0.56,0.56,0.65,1.24,0.44,0.44,0.44
502.52,-0.11,-0.58,-0.11,-0.57,0.57,0.64,1.27,0.45,0.46,0.47
507.55,-0.09,-0.58,-0.09,-0.58,0.58,0.63,1.29,0.48,0.48,0.49
