frequency,raw,error,smoothed,error_smoothed,equalization,parametric_eq,fixed_band_eq,equalized_raw,equalized_smoothed,target
20.00,6.97,6.22,6.97,6.22,-6.22,-6.72,-3.03,0.75,0.75,0.75
20.20,6.97,6.22,6.97,6.21,-6.21,-6.72,-3.11,0.76,0.76,0.75
20.40,6.97,6.21,6.97,6.21,-6.21,-6.72,-3.20,0.76,0.76,0.76
20.61,6.98,6.21,6.98,6.21,-6.21,-6.72,-3.29,0.77,0.77,0.77
20.81,6.99,6.22,6.99,6.21,-6.21,-6.72,-3.38,0.78,0.77,0.77
21.02,7.00,6.22,7.00,6.22,-6.22,-6.72,-3.47,0.78,0.78,0.78
21.23,7.01,6.23,7.01,6.22,-6.22,-6.72,-3.57,0.79,0.79,0.78
21.44,7.02,6.23,7.02,6.23,-6.23,-6.72,-3.67,0.79,0.79,0.79
21.66,7.04,6.24,7.03,6.24,-6.24,-6.72,-3.77,0.80,0.80,0.80
21.87,7.05,6.25,7.05,6.25,-6.25,-6.72,-3.88,0.80,0.80,0.80
22.09,7.07,6.26,7.07,6.26,-6.26,-6.73,-3.99,0.81,0.81,0.81
22.31,7.09,6.27,7.09,6.28,-6.27,-6.73,-4.10,0.82,0.82,0.82
22.54,7.12,6.30,7.11,6.29,-6.29,-6.73,-4.22,0.83,0.82,0.82
22.76,7.14,6.31,7.14,6.31,-6.31,-6.73,-4.33,0.83,0.83,0.83
22.99,7.16,6.32,7.16,6.33,-6.33,-6.73,-4.45,0.83,0.83,0.84
23.22,7.20,6.35,7.19,6.35,-6.35,-6.73,-4.58,0.84,0.84,0.85
23.45,7.23,6.37,7.23,6.37,-6.38,-6.73,-4.70,0.85,0.85,0.86
23.69,7.27,6.40,7.27,6.41,-6.41,-6.73,-4.83,0.86,0.86,0.87
23.92,7.32,6.44,7.31,6.44,-6.44,-6.73,-4.96,0.88,0.87,0.88
24.16,7.36,6.47,7.36,6.47,-6.47,-6.73,-5.10,0.89,0.89,0.89
24.40,7.40,6.50,7.40,6.50,-6.50,-6.73,-5.24,0.90,0.90,0.89
24.65,7.44,6.52,7.44,6.53,-6.52,-6.73,-5.37,0.92,0.92,0.91
24.89,7.47,6.55,7.47,6.55,-6.54,-6.73,-5.51,0.93,0.93,0.92
25.14,7.50,6.57,7.50,6.56,-6.56,-6.73,-5.66,0.94,0.94,0.93
25.39,7.52,6.58,7.52,6.57,-6.57,-6.73,-5.80,0.95,0.95,0.94
25.65,7.53,6.58,7.53,6.58,-6.58,-6.73,-5.95,0.95,0.95,0.95
25.91,7.55,6.58,7.55,6.58,-6.59,-6.73,-6.09,0.96,0.96,0.97
26.16,7.57,6.59,7.57,6.59,-6.60,-6.73,-6.24,0.97,0.97,0.98
26.43,7.60,6.61,7.59,6.60,-6.61,-6.73,-6.38,0.99,0.98,0.99
26.69,7.62,6.62,7.62,6.62,-6.62,-6.73,-6.53,1.00,1.00,1.00
26.96,7.65,6.63,7.65,6.63,-6.63,-6.73,-6.67,1.02,1.02,1.02
27.23,7.68,6.65,7.68,6.65,-6.64,-6.73,-6.81,1.04,1.03,1.03
27.50,7.71,6.66,7.71,6.66,-6.66,-6.73,-6.95,1.05,1.05,1.05
27.77,7.73,6.67,7.73,6.67,-6.67,-6.73,-7.08,1.06,1.06,1.06
28.05,7.75,6.67,7.75,6.68,-6.68,-6.73,-7.22,1.07,1.07,1.07
28.33,7.77,6.69,7.77,6.69,-6.69,-6.73,-7.34,1.08,1.08,1.08
28.62,7.80,6.70,7.80,6.70,-6.70,-6.73,-7.46,1.09,1.09,1.10
28.90,7.83,6.72,7.83,6.71,-6.72,-6.73,-7.57,1.11,1.11,1.11
29.19,7.86,6.73,7.86,6.73,-6.73,-6.73,-7.68,1.13,1.13,1.13
29.48,7.89,6.75,7.89,6.75,-6.75,-6.73,-7.77,1.14,1.14,1.14
29.78,7.92,6.76,7.92,6.76,-6.76,-6.73,-7.86,1.16,1.16,1.16
30.08,7.94,6.77,7.94,6.77,-6.77,-6.73,-7.93,1.17,1.17,1.17
30.38,7.96,6.77,7.96,6.78,-6.78,-6.73,-8.00,1.18,1.19,1.19
30.68,7.98,6.78,7.98,6.78,-6.78,-6.73,-8.05,1.20,1.20,1.19
30.99,7.99,6.78,7.99,6.78,-6.77,-6.73,-8.10,1.22,1.22,1.21
31.30,7.99,6.77,7.99,6.77,-6.76,-6.73,-8.12,1.23,1.23,1.22
31.61,7.99,6.75,7.99,6.75,-6.74,-6.73,-8.15,1.25,1.25,1.24
31.93,7.98,6.73,7.98,6.73,-6.72,-6.73,-8.15,1.26,1.26,1.25
32.24,7.96,6.69,7.96,6.70,-6.70,-6.73,-8.15,1.26,1.26,1.27
32.57,7.95,6.67,7.95,6.67,-6.68,-6.73,-8.14,1.27,1.27,1.28
32.89,7.94,6.64,7.94,6.65,-6.66,-6.73,-8.12,1.28,1.28,1.29
33.22,7.94,6.64,7.94,6.64,-6.65,-6.73,-8.08,1.29,1.30,1.30
33.55,7.95,6.63,7.95,6.63,-6.64,-6.72,-8.04,1.31,1.31,1.32
33.89,7.97,6.64,7.96,6.63,-6.63,-6.72,-7.99,1.33,1.33,1.33
34.23,7.98,6.63,7.98,6.64,-6.64,-6.72,-7.94,1.34,1.34,1.35
34.57,8.01,6.65,8.00,6.65,-6.65,-6.72,-7.87,1.36,1.36,1.35
34.92,8.03,6.67,8.03,6.66,-6.66,-6.72,-7.80,1.36,1.37,1.36
35.27,8.06,6.68,8.06,6.68,-6.68,-6.72,-7.73,1.38,1.38,1.38
35.62,8.09,6.70,8.09,6.70,-6.70,-6.72,-7.66,1.39,1.39,1.39
35.97,8.12,6.72,8.12,6.72,-6.72,-6.72,-7.58,1.40,1.39,1.40
36.33,8.15,6.75,8.15,6.75,-6.75,-6.72,-7.50,1.40,1.40,1.40
36.70,8.18,6.77,8.18,6.77,-6.77,-6.72,-7.41,1.41,1.41,1.41
37.06,8.21,6.79,8.21,6.79,-6.79,-6.71,-7.33,1.42,1.42,1.42
37.43,8.24,6.81,8.24,6.81,-6.81,-6.71,-7.25,1.43,1.43,1.43
37.81,8.27,6.84,8.27,6.83,-6.83,-6.71,-7.17,1.44,1.44,1.43
38.19,8.29,6.85,8.29,6.85,-6.84,-6.71,-7.09,1.45,1.45,1.44
38.57,8.30,6.85,8.30,6.85,-6.85,-6.71,-7.01,1.45,1.45,1.45
38.95,8.31,6.85,8.31,6.85,-6.85,-6.71,-6.94,1.46,1.46,1.45
39.34,8.31,6.85,8.31,6.85,-6.85,-6.71,-6.86,1.46,1.46,1.46
39.74,8.31,6.84,8.31,6.84,-6.84,-6.70,-6.79,1.47,1.46,1.47
40.14,8.30,6.84,8.30,6.83,-6.83,-6.70,-6.73,1.46,1.46,1.46
40.54,8.29,6.82,8.29,6.82,-6.83,-6.70,-6.67,1.46,1.47,1.47
40.94,8.29,6.81,8.29,6.81,-6.82,-6.70,-6.61,1.47,1.47,1.48
41.35,8.29,6.81,8.29,6.81,-6.81,-6.69,-6.55,1.48,1.48,1.48
41.76,8.29,6.80,8.29,6.80,-6.80,-6.69,-6.50,1.49,1.49,1.49
42.18,8.29,6.79,8.29,6.79,-6.79,-6.69,-6.46,1.49,1.49,1.49
42.60,8.29,6.79,8.29,6.79,-6.79,-6.69,-6.42,1.50,1.50,1.50
43.03,8.29,6.78,8.29,6.78,-6.78,-6.68,-6.38,1.51,1.51,1.51
43.46,8.29,6.78,8.29,6.78,-6.78,-6.68,-6.35,1.51,1.51,1.51
43.90,8.29,6.77,8.29,6.77,-6.77,-6.68,-6.32,1.52,1.52,1.52
44.33,8.29,6.76,8.29,6.76,-6.76,-6.67,-6.30,1.53,1.53,1.53
44.78,8.29,6.75,8.29,6.75,-6.75,-6.67,-6.28,1.53,1.53,1.54
45.23,8.29,6.75,8.29,6.74,-6.75,-6.66,-6.26,1.54,1.54,1.54
45.68,8.29,6.73,8.29,6.74,-6.74,-6.66,-6.26,1.55,1.55,1.55
46.13,8.29,6.73,8.29,6.73,-6.73,-6.66,-6.25,1.56,1.56,1.56
46.60,8.29,6.72,8.29,6.72,-6.72,-6.65,-6.25,1.57,1.57,1.57
47.06,8.29,6.71,8.29,6.71,-6.71,-6.65,-6.26,1.58,1.58,1.58
47.53,8.29,6.70,8.29,6.70,-6.70,-6.64,-6.27,1.59,1.59,1.59
48.01,8.29,6.69,8.29,6.69,-6.69,-6.64,-6.28,1.60,1.60,1.59
48.49,8.29,6.68,8.29,6.68,-6.68,-6.63,-6.30,1.61,1.61,1.61
48.97,8.29,6.68,8.29,6.68,-6.68,-6.63,-6.32,1.61,1.61,1.61
49.46,8.29,6.67,8.29,6.67,-6.67,-6.62,-6.34,1.62,1.62,1.62
49.96,8.29,6.66,8.29,6.66,-6.67,-6.61,-6.37,1.62,1.62,1.62
50.46,8.29,6.66,8.29,6.66,-6.67,-6.61,-6.40,1.62,1.62,1.63
50.96,8.30,6.66,8.30,6.66,-6.67,-6.60,-6.44,1.63,1.63,1.64
51.47,8.31,6.67,8.30,6.67,-6.67,-6.60,-6.47,1.64,1.64,1.64
51.99,8.31,6.67,8.31,6.67,-6.66,-6.59,-6.51,1.64,1.65,1.64
52.51,8.31,6.67,8.31,6.67,-6.66,-6.58,-6.55,1.65,1.65,1.64
53.03,8.31,6.67,8.30,6.66,-6.65,-6.57,-6.60,1.66,1.65,1.64
53.56,8.29,6.64,8.29,6.64,-6.64,-6.57,-6.64,1.65,1.65,1.65
54.10,8.28,6.63,8.28,6.63,-6.62,-6.56,-6.68,1.65,1.65,1.65
54.64,8.26,6.61,8.26,6.60,-6.61,-6.55,-6.73,1.65,1.65,1.65
55.18,8.23,6.59,8.23,6.58,-6.58,-6.54,-6.77,1.65,1.65,1.64
55.74,8.20,6.56,8.20,6.56,-6.56,-6.53,-6.82,1.64,1.64,1.64
56.29,8.17,6.53,8.17,6.53,-6.53,-6.52,-6.86,1.64,1.64,1.64
56.86,8.14,6.51,8.14,6.51,-6.51,-6.51,-6.90,1.63,1.63,1.63
57.42,8.11,6.48,8.11,6.48,-6.48,-6.50,-6.94,1.63,1.63,1.63
58.00,8.08,6.47,8.08,6.46,-6.46,-6.49,-6.97,1.62,1.62,1.61
58.58,8.05,6.44,8.05,6.44,-6.44,-6.48,-7.01,1.61,1.61,1.61
59.16,8.02,6.42,8.02,6.42,-6.42,-6.47,-7.03,1.59,1.60,1.60
59.76,8.00,6.42,7.99,6.41,-6.42,-6.46,-7.06,1.58,1.58,1.58
60.35,7.97,6.40,7.97,6.40,-6.41,-6.45,-7.08,1.56,1.56,1.57
60.96,7.96,6.40,7.96,6.41,-6.42,-6.44,-7.09,1.54,1.54,1.55
61.57,7.96,6.42,7.96,6.42,-6.43,-6.43,-7.10,1.53,1.53,1.54
62.18,7.96,6.44,7.96,6.44,-6.45,-6.42,-7.11,1.51,1.52,1.52
62.80,7.97,6.46,7.97,6.46,-6.46,-6.41,-7.11,1.51,1.51,1.51
63.43,7.98,6.49,7.98,6.49,-6.48,-6.39,-7.10,1.50,1.50,1.49
64.07,7.98,6.52,7.98,6.51,-6.49,-6.38,-7.09,1.48,1.48,1.46
64.71,7.97,6.52,7.97,6.52,-6.51,-6.37,-7.08,1.46,1.46,1.45
65.35,7.95,6.52,7.95,6.52,-6.51,-6.36,-7.06,1.44,1.43,1.43
66.01,7.92,6.51,7.92,6.51,-6.52,-6.34,-7.03,1.40,1.41,1.41
66.67,7.90,6.51,7.90,6.51,-6.51,-6.33,-7.00,1.39,1.38,1.39
67.33,7.87,6.50,7.87,6.50,-6.51,-6.32,-6.97,1.36,1.36,1.37
68.01,7.84,6.50,7.84,6.50,-6.50,-6.30,-6.93,1.34,1.34,1.34
68.69,7.81,6.49,7.81,6.49,-6.49,-6.29,-6.90,1.32,1.32,1.32
69.37,7.78,6.48,7.78,6.48,-6.48,-6.28,-6.85,1.30,1.30,1.30
70.07,7.75,6.47,7.75,6.47,-6.47,-6.26,-6.81,1.28,1.28,1.28
70.77,7.72,6.46,7.72,6.46,-6.46,-6.25,-6.77,1.26,1.26,1.25
71.48,7.69,6.46,7.69,6.46,-6.46,-6.23,-6.72,1.23,1.23,1.23
72.19,7.67,6.46,7.67,6.46,-6.46,-6.22,-6.68,1.21,1.21,1.21
72.91,7.65,6.45,7.65,6.45,-6.46,-6.21,-6.63,1.19,1.18,1.19
73.64,7.63,6.46,7.63,6.46,-6.47,-6.20,-6.59,1.16,1.16,1.17
74.38,7.62,6.46,7.62,6.47,-6.49,-6.18,-6.55,1.13,1.14,1.15
75.12,7.63,6.50,7.63,6.50,-6.50,-6.17,-6.50,1.12,1.12,1.13
75.87,7.64,6.53,7.64,6.52,-6.53,-6.16,-6.46,1.11,1.11,1.11
76.63,7.65,6.55,7.65,6.56,-6.55,-6.15,-6.43,1.10,1.10,1.10
77.40,7.66,6.58,7.66,6.58,-6.57,-6.13,-6.39,1.09,1.09,1.08
78.17,7.66,6.60,7.66,6.60,-6.58,-6.12,-6.36,1.07,1.07,1.06
78.95,7.65,6.61,7.65,6.61,-6.60,-6.11,-6.33,1.05,1.05,1.04
79.74,7.63,6.61,7.63,6.61,-6.60,-6.11,-6.30,1.03,1.03,1.02
80.54,7.61,6.61,7.61,6.60,-6.60,-6.10,-6.28,1.01,1.00,1.00
81.35,7.58,6.60,7.58,6.60,-6.60,-6.09,-6.26,0.98,0.98,0.98
82.16,7.55,6.59,7.55,6.59,-6.59,-6.08,-6.25,0.96,0.96,0.96
82.98,7.52,6.58,7.52,6.58,-6.58,-6.08,-6.24,0.94,0.94,0.94
83.81,7.49,6.57,7.49,6.57,-6.57,-6.07,-6.24,0.92,0.92,0.92
84.65,7.46,6.56,7.46,6.56,-6.56,-6.07,-6.23,0.90,0.90,0.90
85.50,7.43,6.55,7.43,6.55,-6.55,-6.07,-6.24,0.88,0.87,0.87
86.35,7.40,6.55,7.40,6.55,-6.55,-6.07,-6.24,0.85,0.85,0.85
87.22,7.37,6.54,7.37,6.54,-6.54,-6.07,-6.26,0.83,0.83,0.83
88.09,7.35,6.55,7.35,6.54,-6.54,-6.08,-6.27,0.81,0.81,0.80
88.97,7.33,6.54,7.33,6.54,-6.54,-6.08,-6.30,0.79,0.78,0.79
89.86,7.31,6.54,7.31,6.55,-6.55,-6.09,-6.32,0.76,0.76,0.76
90.76,7.30,6.56,7.30,6.55,-6.56,-6.10,-6.35,0.74,0.74,0.74
91.66,7.29,6.57,7.29,6.57,-6.58,-6.11,-6.39,0.71,0.71,0.72
92.58,7.30,6.60,7.29,6.60,-6.60,-6.13,-6.43,0.70,0.69,0.70
93.51,7.30,6.63,7.30,6.63,-6.63,-6.15,-6.48,0.67,0.67,0.67
94.44,7.31,6.65,7.31,6.66,-6.66,-6.17,-6.53,0.65,0.65,0.65
95.39,7.32,6.69,7.32,6.69,-6.69,-6.19,-6.58,0.63,0.63,0.63
96.34,7.33,6.72,7.33,6.72,-6.72,-6.22,-6.64,0.61,0.61,0.61
97.30,7.34,6.76,7.34,6.76,-6.75,-6.25,-6.70,0.59,0.59,0.58
98.28,7.34,6.78,7.34,6.78,-6.78,-6.29,-6.76,0.56,0.56,0.55
99.26,7.34,6.81,7.34,6.81,-6.80,-6.32,-6.83,0.54,0.54,0.53
100.25,7.33,6.82,7.33,6.82,-6.82,-6.37,-6.90,0.51,0.51,0.51
101.25,7.31,6.83,7.31,6.83,-6.83,-6.41,-6.98,0.48,0.48,0.48
102.27,7.29,6.84,7.29,6.84,-6.84,-6.46,-7.05,0.45,0.45,0.45
103.29,7.27,6.85,7.27,6.85,-6.85,-6.51,-7.13,0.42,0.42,0.41
104.32,7.24,6.85,7.24,6.85,-6.85,-6.56,-7.21,0.38,0.38,0.39
105.37,7.21,6.85,7.21,6.86,-6.86,-6.62,-7.29,0.35,0.35,0.36
106.42,7.18,6.86,7.18,6.86,-6.87,-6.68,-7.37,0.31,0.31,0.32
107.48,7.16,6.88,7.16,6.87,-6.88,-6.75,-7.45,0.28,0.28,0.28
108.56,7.13,6.89,7.13,6.89,-6.89,-6.81,-7.53,0.24,0.24,0.24
109.64,7.11,6.90,7.11,6.90,-6.90,-6.88,-7.61,0.21,0.21,0.20
110.74,7.08,6.91,7.08,6.91,-6.91,-6.95,-7.68,0.17,0.17,0.17
111.85,7.05,6.92,7.05,6.92,-6.92,-7.02,-7.75,0.13,0.13,0.13
112.97,7.02,6.94,7.02,6.93,-6.94,-7.09,-7.82,0.08,0.08,0.08
114.10,6.99,6.94,6.99,6.95,-6.95,-7.16,-7.88,0.04,0.04,0.04
115.24,6.96,6.96,6.96,6.96,-6.96,-7.22,-7.93,-0.01,-0.00,-0.00
116.39,6.94,6.98,6.93,6.97,-6.98,-7.29,-7.98,-0.04,-0.05,-0.04
117.55,6.90,6.99,6.90,6.99,-6.99,-7.34,-8.01,-0.09,-0.09,-0.09
118.73,6.87,6.99,6.87,7.00,-7.00,-7.39,-8.04,-0.13,-0.13,-0.12
119.92,6.84,7.01,6.84,7.01,-7.01,-7.43,-8.06,-0.17,-0.17,-0.17
121.12,6.81,7.01,6.81,7.01,-7.01,-7.47,-8.07,-0.20,-0.20,-0.21
122.33,6.77,7.01,6.77,7.01,-7.00,-7.48,-8.06,-0.23,-0.23,-0.24
123.55,6.72,6.99,6.72,7.00,-6.99,-7.50,-8.05,-0.27,-0.27,-0.28
124.79,6.67,6.98,6.66,6.98,-6.97,-7.49,-8.01,-0.30,-0.31,-0.31
126.03,6.60,6.94,6.60,6.95,-6.95,-7.47,-7.98,-0.35,-0.34,-0.35
127.29,6.54,6.92,6.54,6.92,-6.92,-7.43,-7.92,-0.38,-0.38,-0.38
128.57,6.47,6.88,6.47,6.88,-6.88,-7.39,-7.86,-0.41,-0.42,-0.41
129.85,6.39,6.83,6.39,6.84,-6.84,-7.32,-7.78,-0.45,-0.45,-0.45
131.15,6.32,6.80,6.32,6.79,-6.79,-7.24,-7.70,-0.48,-0.48,-0.48
132.46,6.24,6.75,6.24,6.74,-6.75,-7.14,-7.59,-0.51,-0.51,-0.51
133.79,6.16,6.69,6.16,6.69,-6.69,-7.03,-7.49,-0.53,-0.53,-0.53
135.12,6.07,6.63,6.07,6.63,-6.63,-6.90,-7.37,-0.56,-0.56,-0.56
136.48,5.98,6.57,5.98,6.57,-6.57,-6.77,-7.24,-0.59,-0.59,-0.59
137.84,5.88,6.50,5.88,6.50,-6.50,-6.62,-7.11,-0.62,-0.62,-0.62
139.22,5.77,6.42,5.77,6.42,-6.42,-6.47,-6.97,-0.65,-0.65,-0.65
140.61,5.67,6.35,5.67,6.34,-6.34,-6.31,-6.82,-0.67,-0.67,-0.68
142.02,5.56,6.26,5.56,6.26,-6.26,-6.14,-6.67,-0.70,-0.70,-0.70
143.44,5.44,6.16,5.44,6.17,-6.17,-5.97,-6.51,-0.73,-0.73,-0.73
144.87,5.32,6.07,5.32,6.07,-6.08,-5.80,-6.36,-0.76,-0.76,-0.75
146.32,5.20,5.99,5.20,5.98,-5.98,-5.62,-6.19,-0.79,-0.79,-0.79
147.78,5.08,5.89,5.08,5.89,-5.89,-5.45,-6.03,-0.81,-0.81,-0.81
149.26,4.95,5.79,4.95,5.79,-5.79,-5.27,-5.86,-0.84,-0.84,-0.84
150.75,4.82,5.68,4.82,5.68,-5.69,-5.10,-5.70,-0.87,-0.87,-0.86
152.26,4.69,5.58,4.69,5.58,-5.58,-4.92,-5.53,-0.89,-0.89,-0.89
153.78,4.56,5.48,4.56,5.48,-5.47,-4.75,-5.37,-0.92,-0.92,-0.92
155.32,4.43,5.37,4.42,5.37,-5.36,-4.59,-5.20,-0.94,-0.94,-0.95
156.88,4.28,5.25,4.28,5.25,-5.25,-4.43,-5.04,-0.97,-0.97,-0.97
158.44,4.14,5.13,4.14,5.13,-5.13,-4.27,-4.87,-1.00,-0.99,-0.99
160.03,4.00,5.02,4.00,5.02,-5.02,-4.11,-4.71,-1.02,-1.02,-1.02
161.63,3.86,4.90,3.86,4.90,-4.90,-3.96,-4.55,-1.04,-1.04,-1.04
163.24,3.71,4.78,3.71,4.78,-4.77,-3.82,-4.39,-1.06,-1.06,-1.07
164.88,3.56,4.65,3.56,4.65,-4.65,-3.68,-4.24,-1.09,-1.09,-1.09
166.53,3.40,4.52,3.40,4.52,-4.53,-3.54,-4.08,-1.13,-1.13,-1.12
168.19,3.25,4.40,3.25,4.40,-4.40,-3.41,-3.93,-1.16,-1.16,-1.15
169.87,3.10,4.28,3.10,4.28,-4.28,-3.28,-3.78,-1.18,-1.18,-1.18
171.57,2.96,4.16,2.96,4.16,-4.16,-3.16,-3.63,-1.20,-1.20,-1.21
173.29,2.82,4.05,2.81,4.05,-4.05,-3.04,-3.49,-1.23,-1.23,-1.23
175.02,2.67,3.93,2.67,3.93,-3.93,-2.92,-3.34,-1.26,-1.26,-1.26
176.77,2.52,3.81,2.52,3.82,-3.82,-2.81,-3.20,-1.30,-1.30,-1.30
178.54,2.38,3.70,2.38,3.71,-3.71,-2.71,-3.06,-1.33,-1.32,-1.32
180.32,2.25,3.61,2.24,3.60,-3.60,-2.60,-2.93,-1.35,-1.35,-1.36
182.13,2.11,3.49,2.10,3.49,-3.49,-2.50,-2.79,-1.38,-1.38,-1.38
183.95,1.96,3.37,1.96,3.38,-3.38,-2.41,-2.66,-1.42,-1.42,-1.42
185.79,1.82,3.27,1.82,3.27,-3.27,-2.32,-2.53,-1.45,-1.45,-1.45
187.65,1.68,3.15,1.68,3.16,-3.16,-2.22,-2.40,-1.48,-1.48,-1.47
189.52,1.55,3.06,1.55,3.05,-3.05,-2.14,-2.28,-1.50,-1.50,-1.51
191.42,1.41,2.95,1.41,2.94,-2.94,-2.06,-2.15,-1.53,-1.53,-1.54
193.33,1.26,2.83,1.26,2.83,-2.82,-1.98,-2.03,-1.56,-1.56,-1.57
195.27,1.11,2.70,1.11,2.71,-2.71,-1.90,-1.91,-1.60,-1.60,-1.59
197.22,0.96,2.58,0.96,2.59,-2.60,-1.82,-1.80,-1.64,-1.63,-1.63
199.19,0.82,2.47,0.82,2.48,-2.48,-1.75,-1.68,-1.66,-1.66,-1.66
201.18,0.68,2.38,0.67,2.37,-2.37,-1.68,-1.57,-1.69,-1.69,-1.70
203.19,0.53,2.26,0.53,2.26,-2.25,-1.61,-1.46,-1.72,-1.72,-1.73
205.23,0.38,2.14,0.38,2.14,-2.14,-1.55,-1.35,-1.76,-1.76,-1.76
207.28,0.24,2.03,0.23,2.02,-2.02,-1.48,-1.24,-1.79,-1.79,-1.79
209.35,0.09,1.91,0.09,1.91,-1.91,-1.42,-1.14,-1.83,-1.82,-1.82
211.44,-0.05,1.80,-0.05,1.80,-1.80,-1.36,-1.04,-1.86,-1.85,-1.86
213.56,-0.19,1.69,-0.19,1.69,-1.70,-1.30,-0.94,-1.89,-1.89,-1.89
215.69,-0.33,1.59,-0.34,1.59,-1.59,-1.24,-0.84,-1.92,-1.92,-1.92
217.85,-0.48,1.48,-0.48,1.48,-1.48,-1.19,-0.75,-1.96,-1.96,-1.96
220.03,-0.61,1.38,-0.61,1.38,-1.38,-1.13,-0.66,-1.99,-1.99,-1.99
222.23,-0.74,1.28,-0.74,1.28,-1.28,-1.08,-0.57,-2.02,-2.02,-2.02
224.45,-0.87,1.18,-0.88,1.18,-1.18,-1.02,-0.49,-2.05,-2.05,-2.06
226.70,-1.01,1.07,-1.01,1.08,-1.08,-0.97,-0.41,-2.09,-2.08,-2.08
228.96,-1.13,0.98,-1.13,0.98,-0.98,-0.92,-0.33,-2.11,-2.11,-2.11
231.25,-1.25,0.88,-1.25,0.88,-0.87,-0.87,-0.25,-2.13,-2.13,-2.14
233.57,-1.37,0.78,-1.38,0.78,-0.77,-0.82,-0.18,-2.15,-2.15,-2.15
235.90,-1.50,0.68,-1.50,0.68,-0.68,-0.78,-0.11,-2.18,-2.17,-2.18
238.26,-1.62,0.57,-1.62,0.58,-0.58,-0.73,-0.05,-2.20,-2.20,-2.19
240.64,-1.73,0.48,-1.73,0.48,-0.49,-0.68,0.01,-2.22,-2.22,-2.21
243.05,-1.83,0.39,-1.84,0.39,-0.40,-0.64,0.07,-2.23,-2.23,-2.23
245.48,-1.94,0.30,-1.94,0.30,-0.31,-0.59,0.12,-2.25,-2.25,-2.24
247.93,-2.03,0.23,-2.03,0.23,-0.23,-0.54,0.17,-2.26,-2.26,-2.26
250.41,-2.12,0.15,-2.12,0.15,-0.15,-0.50,0.21,-2.27,-2.27,-2.27
252.92,-2.20,0.09,-2.21,0.08,-0.08,-0.45,0.26,-2.28,-2.28,-2.29
255.45,-2.29,0.01,-2.29,0.01,-0.00,-0.41,0.29,-2.30,-2.29,-2.30
258.00,-2.37,-0.06,-2.37,-0.06,0.06,-0.36,0.33,-2.31,-2.31,-2.32
260.58,-2.45,-0.13,-2.45,-0.13,0.13,-0.32,0.35,-2.33,-2.33,-2.32
263.19,-2.53,-0.20,-2.53,-0.19,0.19,-0.27,0.38,-2.35,-2.34,-2.33
265.82,-2.60,-0.25,-2.60,-0.25,0.24,-0.23,0.40,-2.36,-2.36,-2.35
268.48,-2.66,-0.30,-2.66,-0.30,0.30,-0.18,0.42,-2.36,-2.37,-2.36
271.16,-2.72,-0.34,-2.72,-0.35,0.35,-0.14,0.44,-2.37,-2.37,-2.38
273.87,-2.78,-0.39,-2.78,-0.39,0.40,-0.09,0.45,-2.38,-2.38,-2.39
276.61,-2.84,-0.44,-2.84,-0.44,0.44,-0.04,0.47,-2.40,-2.40,-2.40
279.38,-2.90,-0.48,-2.90,-0.49,0.49,0.00,0.48,-2.41,-2.41,-2.42
282.17,-2.96,-0.53,-2.96,-0.53,0.53,0.05,0.48,-2.43,-2.43,-2.43
284.99,-3.02,-0.58,-3.02,-0.58,0.57,0.10,0.49,-2.45,-2.45,-2.44
287.84,-3.07,-0.61,-3.07,-0.62,0.61,0.14,0.49,-2.46,-2.46,-2.46
290.72,-3.12,-0.65,-3.12,-0.65,0.65,0.19,0.49,-2.47,-2.47,-2.47
293.63,-3.16,-0.68,-3.16,-0.68,0.68,0.24,0.49,-2.48,-2.48,-2.48
296.57,-3.20,-0.71,-3.21,-0.71,0.72,0.29,0.49,-2.49,-2.49,-2.50
299.53,-3.25,-0.74,-3.25,-0.74,0.75,0.34,0.49,-2.50,-2.50,-2.51
302.53,-3.30,-0.78,-3.30,-0.78,0.78,0.39,0.49,-2.52,-2.52,-2.52
305.55,-3.35,-0.81,-3.35,-0.81,0.81,0.44,0.48,-2.54,-2.54,-2.54
308.61,-3.39,-0.84,-3.39,-0.84,0.84,0.49,0.48,-2.55,-2.55,-2.56
311.69,-3.43,-0.86,-3.43,-0.86,0.87,0.54,0.48,-2.57,-2.57,-2.57
314.81,-3.47,-0.88,-3.48,-0.89,0.89,0.59,0.47,-2.58,-2.58,-2.59
317.96,-3.52,-0.92,-3.52,-0.92,0.91,0.64,0.47,-2.61,-2.60,-2.60
321.14,-3.56,-0.94,-3.56,-0.94,0.93,0.69,0.46,-2.63,-2.63,-2.62
324.35,-3.59,-0.96,-3.59,-0.96,0.95,0.73,0.46,-2.64,-2.64,-2.64
327.59,-3.62,-0.96,-3.62,-0.96,0.96,0.78,0.46,-2.66,-2.66,-2.66
330.87,-3.64,-0.97,-3.64,-0.97,0.97,0.83,0.45,-2.67,-2.67,-2.67
334.18,-3.66,-0.97,-3.66,-0.97,0.98,0.87,0.45,-2.68,-2.68,-2.69
337.52,-3.68,-0.98,-3.68,-0.98,0.98,0.92,0.45,-2.70,-2.70,-2.70
340.90,-3.70,-0.98,-3.70,-0.98,0.98,0.96,0.44,-2.72,-2.72,-2.72
344.30,-3.72,-0.99,-3.72,-0.98,0.97,0.99,0.44,-2.75,-2.75,-2.74
347.75,-3.73,-0.97,-3.73,-0.97,0.96,1.03,0.44,-2.77,-2.77,-2.76
351.23,-3.73,-0.95,-3.73,-0.96,0.95,1.06,0.44,-2.78,-2.78,-2.78
354.74,-3.73,-0.94,-3.73,-0.94,0.93,1.09,0.44,-2.80,-2.80,-2.79
358.28,-3.72,-0.91,-3.72,-0.91,0.92,1.12,0.44,-2.81,-2.81,-2.81
361.87,-3.72,-0.89,-3.72,-0.89,0.89,1.14,0.44,-2.83,-2.82,-2.83
365.49,-3.71,-0.87,-3.71,-0.87,0.87,1.16,0.44,-2.84,-2.84,-2.84
369.14,-3.71,-0.85,-3.71,-0.85,0.85,1.17,0.44,-2.86,-2.86,-2.87
372.83,-3.71,-0.83,-3.71,-0.83,0.83,1.18,0.44,-2.88,-2.88,-2.88
376.56,-3.71,-0.81,-3.71,-0.81,0.81,1.18,0.44,-2.90,-2.90,-2.90
380.33,-3.71,-0.79,-3.71,-0.80,0.80,1.18,0.45,-2.92,-2.92,-2.92
384.13,-3.71,-0.78,-3.71,-0.78,0.78,1.18,0.45,-2.93,-2.93,-2.93
387.97,-3.71,-0.76,-3.71,-0.76,0.77,1.16,0.45,-2.95,-2.95,-2.95
391.85,-3.71,-0.75,-3.71,-0.75,0.75,1.15,0.46,-2.96,-2.96,-2.96
395.77,-3.71,-0.74,-3.71,-0.74,0.74,1.13,0.46,-2.97,-2.97,-2.97
399.73,-3.71,-0.73,-3.71,-0.73,0.72,1.10,0.47,-2.99,-2.99,-2.98
403.72,-3.71,-0.72,-3.71,-0.72,0.71,1.07,0.47,-3.00,-3.00,-2.99
407.76,-3.71,-0.71,-3.71,-0.70,0.70,1.03,0.48,-3.01,-3.01,-3.01
411.84,-3.71,-0.69,-3.71,-0.69,0.69,0.99,0.48,-3.02,-3.02,-3.03
415.96,-3.71,-0.67,-3.71,-0.67,0.68,0.95,0.49,-3.03,-3.03,-3.04
420.12,-3.71,-0.66,-3.71,-0.66,0.67,0.90,0.49,-3.04,-3.04,-3.05
424.32,-3.71,-0.65,-3.72,-0.66,0.66,0.85,0.49,-3.05,-3.05,-3.06
428.56,-3.72,-0.65,-3.72,-0.65,0.65,0.80,0.50,-3.07,-3.07,-3.07
432.85,-3.73,-0.64,-3.73,-0.64,0.64,0.74,0.50,-3.09,-3.09,-3.09
437.18,-3.73,-0.63,-3.73,-0.63,0.63,0.68,0.50,-3.11,-3.11,-3.10
441.55,-3.73,-0.62,-3.73,-0.61,0.61,0.63,0.50,-3.12,-3.12,-3.11
445.96,-3.72,-0.59,-3.72,-0.59,0.58,0.56,0.50,-3.14,-3.14,-3.13
450.42,-3.71,-0.56,-3.71,-0.56,0.56,0.50,0.50,-3.16,-3.15,-3.15
454.93,-3.69,-0.53,-3.69,-0.52,0.52,0.44,0.50,-3.17,-3.16,-3.16
459.48,-3.66,-0.48,-3.67,-0.48,0.49,0.38,0.49,-3.17,-3.18,-3.18
464.07,-3.64,-0.44,-3.64,-0.44,0.45,0.31,0.49,-3.19,-3.20,-3.20
468.71,-3.62,-0.40,-3.62,-0.40,0.40,0.25,0.48,-3.22,-3.22,-3.22
473.40,-3.60,-0.37,-3.60,-0.36,0.36,0.18,0.47,-3.24,-3.24,-3.23
478.13,-3.57,-0.32,-3.57,-0.32,0.31,0.12,0.46,-3.26,-3.26,-3.26
482.91,-3.53,-0.27,-3.53,-0.27,0.26,0.06,0.44,-3.27,-3.27,-3.27
487.74,-3.49,-0.21,-3.49,-0.21,0.21,-0.01,0.43,-3.28,-3.28,-3.29
492.62,-3.45,-0.15,-3.45,-0.15,0.16,-0.07,0.41,-3.29,-3.29,-3.30
497.55,-3.40,-0.09,-3.40,-0.10,0.10,-0.13,0.39,-3.30,-3.30,-3.31
