frequency,raw
20.00,-0.53
20.20,-0.45
20.40,-0.39
20.61,-0.32
20.81,-0.26
21.02,-0.19
21.23,-0.13
21.44,-0.08
21.66,-0.02
21.87,0.04
22.09,0.10
22.31,0.15
22.54,0.22
22.76,0.28
22.99,0.33
23.22,0.38
23.45,0.44
23.69,0.48
23.92,0.52
24.16,0.56
24.40,0.59
24.65,0.63
24.89,0.67
25.14,0.71
25.39,0.75
25.65,0.79
25.91,0.82
26.16,0.86
26.43,0.89
26.69,0.92
26.96,0.95
27.23,0.99
27.50,1.01
27.77,1.04
28.05,1.08
28.33,1.10
28.62,1.14
28.90,1.16
29.19,1.18
29.48,1.21
29.78,1.24
30.08,1.27
30.38,1.29
30.68,1.32
30.99,1.36
31.30,1.38
31.61,1.41
31.93,1.43
32.24,1.44
32.57,1.47
32.89,1.50
33.22,1.52
33.55,1.54
33.89,1.57
34.23,1.58
34.57,1.61
34.92,1.63
35.27,1.65
35.62,1.68
35.97,1.69
36.33,1.71
36.70,1.73
37.06,1.75
37.43,1.77
37.81,1.79
38.19,1.80
38.57,1.82
38.95,1.85
39.34,1.87
39.74,1.90
40.14,1.93
40.54,1.95
40.94,1.99
41.35,2.02
41.76,2.05
42.18,2.08
42.60,2.12
43.03,2.14
43.46,2.18
43.90,2.21
44.33,2.25
44.78,2.27
45.23,2.32
45.68,2.35
46.13,2.39
46.60,2.42
47.06,2.46
47.53,2.49
48.01,2.52
48.49,2.55
48.97,2.59
49.46,2.62
49.96,2.65
50.46,2.69
50.96,2.73
51.47,2.75
51.99,2.78
52.51,2.80
53.03,2.83
53.56,2.86
54.10,2.89
54.64,2.90
55.18,2.92
55.74,2.94
56.29,2.96
56.86,2.98
57.42,2.99
58.00,3.00
58.58,3.00
59.16,3.02
59.76,3.02
60.35,3.03
60.96,3.02
61.57,3.03
62.18,3.03
62.80,3.03
63.43,3.02
64.07,3.00
64.71,3.00
65.35,2.99
66.01,2.98
66.67,2.97
67.33,2.96
68.01,2.94
68.69,2.94
69.37,2.93
70.07,2.92
70.77,2.91
71.48,2.89
72.19,2.88
72.91,2.87
73.64,2.85
74.38,2.84
75.12,2.83
75.87,2.82
76.63,2.80
77.40,2.79
78.17,2.79
78.95,2.78
79.74,2.78
80.54,2.78
81.35,2.78
82.16,2.78
82.98,2.77
83.81,2.78
84.65,2.77
85.50,2.77
86.35,2.77
87.22,2.76
88.09,2.77
88.97,2.77
89.86,2.76
90.76,2.76
91.66,2.75
92.58,2.75
93.51,2.75
94.44,2.75
95.39,2.75
96.34,2.74
97.30,2.75
98.28,2.76
99.26,2.76
100.25,2.77
101.25,2.78
102.27,2.79
103.29,2.80
104.32,2.81
105.37,2.82
106.42,2.83
107.48,2.85
108.56,2.87
109.64,2.89
110.74,2.90
111.85,2.93
112.97,2.94
114.10,2.95
115.24,2.97
116.39,2.98
117.55,3.00
118.73,3.01
119.92,3.03
121.12,3.03
122.33,3.05
123.55,3.07
124.79,3.08
126.03,3.10
127.29,3.11
128.57,3.13
129.85,3.15
131.15,3.15
132.46,3.17
133.79,3.18
135.12,3.19
136.48,3.19
137.84,3.19
139.22,3.20
140.61,3.21
142.02,3.22
143.44,3.22
144.87,3.23
146.32,3.24
147.78,3.23
149.26,3.25
150.75,3.24
152.26,3.24
153.78,3.25
155.32,3.24
156.88,3.24
158.44,3.22
160.03,3.22
161.63,3.20
163.24,3.20
164.88,3.19
166.53,3.17
168.19,3.15
169.87,3.12
171.57,3.11
173.29,3.08
175.02,3.07
176.77,3.04
178.54,3.03
180.32,3.00
182.13,2.98
183.95,2.95
185.79,2.93
187.65,2.90
189.52,2.86
191.42,2.83
193.33,2.81
195.27,2.77
197.22,2.74
199.19,2.71
201.18,2.68
203.19,2.65
205.23,2.61
207.28,2.58
209.35,2.55
211.44,2.53
213.56,2.49
215.69,2.45
217.85,2.42
220.03,2.38
222.23,2.36
224.45,2.31
226.70,2.27
228.96,2.23
231.25,2.19
233.57,2.15
235.90,2.09
238.26,2.06
240.64,2.00
243.05,1.96
245.48,1.90
247.93,1.85
250.41,1.82
252.92,1.76
255.45,1.72
258.00,1.67
260.58,1.64
263.19,1.59
265.82,1.55
268.48,1.50
271.16,1.47
273.87,1.42
276.61,1.39
279.38,1.36
282.17,1.32
284.99,1.29
287.84,1.25
290.72,1.23
293.63,1.20
296.57,1.16
299.53,1.12
302.53,1.09
305.55,1.05
308.61,1.02
311.69,0.99
314.81,0.96
317.96,0.92
321.14,0.89
324.35,0.86
327.59,0.83
330.87,0.80
334.18,0.77
337.52,0.75
340.90,0.72
344.30,0.70
347.75,0.68
351.23,0.67
354.74,0.65
358.28,0.63
361.87,0.61
365.49,0.59
369.14,0.57
372.83,0.56
376.56,0.56
380.33,0.53
384.13,0.52
387.97,0.50
391.85,0.48
395.77,0.47
399.73,0.45
403.72,0.43
407.76,0.41
411.84,0.38
415.96,0.38
420.12,0.36
424.32,0.33
428.56,0.32
432.85,0.30
437.18,0.28
441.55,0.27
445.96,0.24
450.42,0.22
454.93,0.19
459.48,0.17
464.07,0.14
468.71,0.12
473.40,0.09
478.13,0.06
482.91,0.03
487.74,-0.01
492.62,-0.04
497.55,-0.08
502.52,-0.12
507.55,-0.16
512.62,-0.19
517.75,-0.23
522.93,-0.26
528.16,-0.30
533.44,-0.33
538.77,-0.37
544.16,-0.41
549.60,-0.45
555.10,-0.49
560.65,-0.53
566.25,-0.56
571.92,-0.60
577.64,-0.64
583.41,-0.68
589.25,-0.71
595.14,-0.76
601.09,-0.80
607.10,-0.84
613.17,-0.88
619.30,-0.92
625.50,-0.95
631.75,-1.01
638.07,-1.05
644.45,-1.08
650.89,-1.12
657.40,-1.16
663.98,-1.19
670.62,-1.22
677.32,-1.24
684.10,-1.28
690.94,-1.30
697.85,-1.32
704.83,-1.34
711.87,-1.37
718.99,-1.38
726.18,-1.41
733.44,-1.42
740.78,-1.43
748.19,-1.44
755.67,-1.44
763.23,-1.44
770.86,-1.44
778.57,-1.44
786.35,-1.43
794.22,-1.42
802.16,-1.41
810.18,-1.40
818.28,-1.37
826.46,-1.34
834.73,-1.30
843.08,-1.26
851.51,-1.22
860.02,-1.17
868.62,-1.10
877.31,-1.05
886.08,-0.98
894.94,-0.91
903.89,-0.84
912.93,-0.77
922.06,-0.69
931.28,-0.62
940.59,-0.53
950.00,-0.45
959.50,-0.37
969.09,-0.29
978.78,-0.20
988.57,-0.11
998.46,-0.02
1008.44,0.07
1018.53,0.16
1028.71,0.24
1039.00,0.34
1049.39,0.41
1059.88,0.49
1070.48,0.56
1081.19,0.62
1092.00,0.69
1102.92,0.75
1113.95,0.82
1125.09,0.87
1136.34,0.92
1147.70,0.97
1159.18,1.00
1170.77,1.03
1182.48,1.06
1194.30,1.09
1206.25,1.10
1218.31,1.11
1230.49,1.10
1242.80,1.10
1255.22,1.10
1267.78,1.10
1280.45,1.09
1293.26,1.08
1306.19,1.08
1319.25,1.07
1332.45,1.08
1345.77,1.09
1359.23,1.10
1372.82,1.13
1386.55,1.15
1400.41,1.19
1414.42,1.21
1428.56,1.25
1442.85,1.29
1457.28,1.33
1471.85,1.38
1486.57,1.42
1501.43,1.46
1516.45,1.49
1531.61,1.51
1546.93,1.54
1562.40,1.56
1578.02,1.58
1593.80,1.61
1609.74,1.64
1625.84,1.69
1642.10,1.75
1658.52,1.82
1675.10,1.93
1691.85,2.05
1708.77,2.19
1725.86,2.34
1743.12,2.49
1760.55,2.66
1778.15,2.82
1795.94,2.96
1813.90,3.12
1832.03,3.27
1850.36,3.43
1868.86,3.59
1887.55,3.75
1906.42,3.94
1925.49,4.15
1944.74,4.38
1964.19,4.62
1983.83,4.87
2003.67,5.13
2023.71,5.41
2043.94,5.69
2064.38,5.96
2085.03,6.24
2105.88,6.50
2126.94,6.78
2148.20,7.05
2169.69,7.31
2191.38,7.57
2213.30,7.83
2235.43,8.08
2257.78,8.33
2280.36,8.59
2303.17,8.83
2326.20,9.07
2349.46,9.28
2372.95,9.50
2396.68,9.70
2420.65,9.87
2444.86,10.04
2469.31,10.18
2494.00,10.31
2518.94,10.42
2544.13,10.53
2569.57,10.61
2595.27,10.68
2621.22,10.75
2647.43,10.80
2673.90,10.84
2700.64,10.87
2727.65,10.91
2754.93,10.94
2782.48,10.98
2810.30,11.02
2838.40,11.08
2866.79,11.17
2895.46,11.26
2924.41,11.38
2953.65,11.50
2983.19,11.61
3013.02,11.74
3043.15,11.88
3073.58,12.00
3104.32,12.12
3135.36,12.24
3166.72,12.36
3198.38,12.49
3230.37,12.62
3262.67,12.74
3295.30,12.85
3328.25,12.97
3361.53,13.07
3395.15,13.18
3429.10,13.28
3463.39,13.37
3498.03,13.44
3533.01,13.49
3568.34,13.55
3604.02,13.56
3640.06,13.54
3676.46,13.49
3713.22,13.38
3750.36,13.23
3787.86,13.04
3825.74,12.81
3864.00,12.55
3902.64,12.27
3941.66,11.95
3981.08,11.63
4020.89,11.29
4061.10,10.95
4101.71,10.60
4142.73,10.25
4184.15,9.89
4226.00,9.52
4268.26,9.15
4310.94,8.79
4354.05,8.45
4397.59,8.12
4441.56,7.80
4485.98,7.53
4530.84,7.26
4576.15,7.01
4621.91,6.79
4668.13,6.58
4714.81,6.41
4761.96,6.28
4809.58,6.23
4857.67,6.25
4906.25,6.33
4955.31,6.58
5004.87,6.92
5054.91,7.33
5105.46,7.85
5156.52,8.38
5208.08,8.91
5260.16,9.41
5312.77,9.80
5365.89,10.11
5419.55,10.30
5473.75,10.35
5528.49,10.32
5583.77,10.20
5639.61,10.01
5696.00,9.79
5752.96,9.53
5810.49,9.26
5868.60,8.96
5927.28,8.65
5986.56,8.34
6046.42,8.00
6106.89,7.67
6167.96,7.32
6229.64,6.99
6291.93,6.68
6354.85,6.38
6418.40,6.11
6482.58,5.89
6547.41,5.68
6612.88,5.53
6679.01,5.40
6745.80,5.31
6813.26,5.27
6881.39,5.25
6950.21,5.25
7019.71,5.27
7089.91,5.29
7160.81,5.31
7232.41,5.33
7304.74,5.35
7377.79,5.33
7451.56,5.33
7526.08,5.31
7601.34,5.28
7677.35,5.22
7754.13,5.19
7831.67,5.12
7909.98,5.04
7989.08,4.95
8068.98,4.86
8149.67,4.74
8231.16,4.62
8313.47,4.49
8396.61,4.34
8480.57,4.19
8565.38,3.98
8651.03,3.78
8737.54,3.58
8824.92,3.35
8913.17,3.15
9002.30,3.00
9092.32,2.86
9183.25,2.76
9275.08,2.74
9367.83,2.75
9461.51,2.81
9556.12,2.90
9651.68,3.01
9748.20,3.05
9845.68,3.05
9944.14,2.94
10043.58,2.62
10144.02,2.21
10245.46,1.66
10347.91,0.95
10451.39,0.20
10555.91,-0.60
10661.46,-1.37
10768.08,-2.01
10875.76,-2.60
10984.52,-3.03
11094.36,-3.34
11205.31,-3.59
11317.36,-3.78
11430.53,-4.02
11544.84,-4.26
11660.29,-4.50
11776.89,-4.73
11894.66,-4.91
12013.60,-5.02
12133.74,-5.04
12255.08,-4.98
12377.63,-4.83
12501.41,-4.61
12626.42,-4.33
12752.68,-4.04
12880.21,-3.72
13009.01,-3.42
13139.10,-3.12
13270.49,-2.85
13403.20,-2.53
13537.23,-2.23
13672.60,-1.96
13809.33,-1.68
13947.42,-1.44
14086.90,-1.25
14227.77,-1.13
14370.04,-1.08
14513.74,-1.05
14658.88,-1.11
14805.47,-1.28
14953.52,-1.55
15103.06,-1.98
15254.09,-2.66
15406.63,-3.41
15560.70,-4.29
15716.30,-5.30
15873.47,-6.33
16032.20,-7.39
16192.52,-8.31
16354.45,-9.04
16517.99,-9.62
16683.17,-9.87
16850.01,-9.90
17018.51,-9.80
17188.69,-9.60
17360.58,-9.39
17534.18,-9.29
17709.53,-9.29
17886.62,-9.49
18065.49,-9.71
18246.14,-10.13
18428.60,-10.79
18612.89,-11.51
18799.02,-12.28
18987.01,-13.06
19176.88,-13.80
19368.65,-14.48
19562.33,-15.11
19757.96,-15.64
19955.54,-16.14
