frequency,raw,error,smoothed,error_smoothed,equalization,parametric_eq,fixed_band_eq,equalized_raw,equalized_smoothed,target
20.00,12.64,3.62,12.64,3.62,-3.61,-3.67,-1.89,9.03,9.03,9.02
20.20,12.66,3.65,12.66,3.65,-3.64,-3.68,-1.94,9.02,9.02,9.01
20.40,12.68,3.67,12.68,3.67,-3.68,-3.68,-2.00,9.00,9.00,9.01
20.61,12.70,3.70,12.70,3.70,-3.71,-3.69,-2.06,8.99,8.99,9.00
20.81,12.72,3.73,12.72,3.73,-3.74,-3.70,-2.11,8.98,8.98,8.99
21.02,12.74,3.76,12.74,3.76,-3.76,-3.71,-2.17,8.98,8.98,8.98
21.23,12.76,3.78,12.76,3.78,-3.79,-3.71,-2.24,8.97,8.97,8.98
21.44,12.78,3.79,12.78,3.80,-3.81,-3.72,-2.30,8.97,8.98,8.99
21.66,12.81,3.83,12.81,3.83,-3.83,-3.73,-2.37,8.98,8.98,8.98
21.87,12.83,3.85,12.83,3.85,-3.85,-3.74,-2.44,8.98,8.98,8.98
22.09,12.84,3.87,12.84,3.87,-3.86,-3.75,-2.50,8.98,8.98,8.97
22.31,12.84,3.87,12.84,3.88,-3.87,-3.76,-2.58,8.97,8.97,8.97
22.54,12.84,3.88,12.84,3.88,-3.88,-3.76,-2.65,8.96,8.96,8.96
22.76,12.84,3.88,12.84,3.88,-3.88,-3.77,-2.73,8.96,8.96,8.96
22.99,12.84,3.88,12.84,3.88,-3.88,-3.78,-2.80,8.96,8.96,8.96
23.22,12.84,3.89,12.84,3.88,-3.88,-3.79,-2.88,8.96,8.96,8.95
23.45,12.84,3.89,12.84,3.89,-3.89,-3.80,-2.96,8.95,8.95,8.95
23.69,12.84,3.89,12.84,3.89,-3.89,-3.81,-3.04,8.95,8.95,8.95
23.92,12.84,3.89,12.84,3.89,-3.90,-3.82,-3.13,8.94,8.95,8.95
24.16,12.86,3.90,12.86,3.90,-3.91,-3.83,-3.21,8.95,8.95,8.96
24.40,12.88,3.91,12.88,3.92,-3.92,-3.84,-3.30,8.96,8.96,8.97
24.65,12.91,3.94,12.91,3.94,-3.94,-3.85,-3.39,8.97,8.97,8.97
24.89,12.93,3.96,12.93,3.96,-3.95,-3.86,-3.48,8.98,8.98,8.97
25.14,12.94,3.98,12.94,3.98,-3.96,-3.87,-3.57,8.98,8.98,8.96
25.39,12.94,3.98,12.94,3.98,-3.98,-3.88,-3.66,8.96,8.96,8.96
25.65,12.94,3.99,12.94,3.99,-3.99,-3.89,-3.75,8.95,8.95,8.95
25.91,12.94,3.99,12.94,3.99,-4.01,-3.90,-3.84,8.93,8.93,8.95
26.16,12.96,4.01,12.96,4.01,-4.03,-3.91,-3.93,8.93,8.93,8.95
26.43,12.98,4.04,12.98,4.04,-4.05,-3.92,-4.02,8.93,8.93,8.94
26.69,13.01,4.07,13.01,4.07,-4.07,-3.94,-4.11,8.94,8.94,8.94
26.96,13.04,4.11,13.03,4.10,-4.09,-3.95,-4.20,8.95,8.94,8.93
27.23,13.04,4.12,13.04,4.12,-4.10,-3.96,-4.29,8.94,8.94,8.92
27.50,13.04,4.12,13.04,4.13,-4.12,-3.97,-4.38,8.92,8.92,8.92
27.77,13.04,4.13,13.04,4.13,-4.13,-3.98,-4.46,8.91,8.91,8.91
28.05,13.04,4.13,13.04,4.13,-4.13,-4.00,-4.54,8.91,8.91,8.91
28.33,13.04,4.13,13.04,4.13,-4.14,-4.01,-4.62,8.90,8.90,8.91
28.62,13.04,4.14,13.04,4.13,-4.13,-4.02,-4.69,8.91,8.91,8.90
28.90,13.04,4.13,13.04,4.13,-4.13,-4.03,-4.76,8.91,8.91,8.91
29.19,13.04,4.13,13.04,4.13,-4.13,-4.05,-4.83,8.91,8.91,8.91
29.48,13.04,4.12,13.04,4.13,-4.13,-4.06,-4.89,8.91,8.91,8.92
29.78,13.04,4.13,13.04,4.12,-4.13,-4.07,-4.95,8.91,8.91,8.91
30.08,13.04,4.12,13.04,4.12,-4.13,-4.09,-5.00,8.91,8.91,8.92
30.38,13.04,4.13,13.04,4.13,-4.13,-4.10,-5.04,8.91,8.91,8.91
30.68,13.04,4.13,13.04,4.13,-4.13,-4.11,-5.08,8.91,8.91,8.91
30.99,13.04,4.14,13.04,4.14,-4.14,-4.13,-5.11,8.90,8.90,8.90
31.30,13.04,4.15,13.04,4.15,-4.14,-4.14,-5.14,8.90,8.90,8.89
31.61,13.04,4.15,13.04,4.15,-4.15,-4.16,-5.16,8.89,8.89,8.89
31.93,13.04,4.16,13.04,4.16,-4.16,-4.17,-5.17,8.88,8.88,8.88
32.24,13.04,4.16,13.04,4.17,-4.17,-4.19,-5.18,8.87,8.87,8.88
32.57,13.04,4.18,13.04,4.18,-4.17,-4.20,-5.18,8.87,8.87,8.86
32.89,13.04,4.19,13.04,4.18,-4.18,-4.22,-5.18,8.86,8.86,8.85
33.22,13.04,4.19,13.04,4.19,-4.19,-4.23,-5.17,8.85,8.85,8.85
33.55,13.04,4.19,13.04,4.20,-4.19,-4.25,-5.16,8.85,8.85,8.85
33.89,13.04,4.20,13.04,4.20,-4.20,-4.26,-5.14,8.84,8.84,8.84
34.23,13.04,4.21,13.04,4.21,-4.21,-4.28,-5.12,8.83,8.83,8.83
34.57,13.04,4.21,13.04,4.21,-4.21,-4.29,-5.09,8.83,8.83,8.83
34.92,13.04,4.23,13.04,4.22,-4.22,-4.31,-5.06,8.82,8.82,8.81
35.27,13.04,4.22,13.04,4.23,-4.23,-4.33,-5.03,8.81,8.81,8.82
35.62,13.04,4.24,13.04,4.24,-4.24,-4.34,-5.00,8.80,8.80,8.80
35.97,13.04,4.26,13.04,4.25,-4.25,-4.36,-4.96,8.79,8.79,8.78
36.33,13.04,4.27,13.04,4.27,-4.27,-4.38,-4.93,8.77,8.77,8.77
36.70,13.04,4.28,13.04,4.28,-4.28,-4.40,-4.89,8.76,8.76,8.76
37.06,13.04,4.30,13.04,4.30,-4.30,-4.41,-4.86,8.74,8.74,8.74
37.43,13.04,4.31,13.04,4.32,-4.32,-4.43,-4.82,8.72,8.72,8.73
37.81,13.04,4.34,13.04,4.34,-4.34,-4.45,-4.79,8.70,8.70,8.70
38.19,13.04,4.36,13.04,4.36,-4.37,-4.47,-4.75,8.67,8.67,8.68
38.57,13.04,4.39,13.04,4.39,-4.39,-4.48,-4.72,8.65,8.65,8.65
38.95,13.04,4.41,13.04,4.41,-4.41,-4.50,-4.69,8.63,8.63,8.63
39.34,13.04,4.44,13.05,4.44,-4.43,-4.52,-4.66,8.61,8.62,8.60
39.74,13.05,4.47,13.04,4.46,-4.44,-4.54,-4.63,8.61,8.60,8.58
40.14,13.03,4.48,13.02,4.47,-4.45,-4.56,-4.60,8.58,8.57,8.55
40.54,12.99,4.46,12.99,4.46,-4.46,-4.58,-4.58,8.53,8.53,8.53
40.94,12.95,4.45,12.96,4.46,-4.47,-4.60,-4.56,8.48,8.49,8.50
41.35,12.94,4.45,12.94,4.46,-4.48,-4.62,-4.54,8.46,8.46,8.49
41.76,12.94,4.48,12.94,4.47,-4.49,-4.64,-4.53,8.45,8.45,8.46
42.18,12.94,4.50,12.94,4.50,-4.50,-4.66,-4.52,8.44,8.44,8.44
42.60,12.94,4.52,12.94,4.52,-4.52,-4.68,-4.51,8.42,8.42,8.42
43.03,12.94,4.55,12.94,4.55,-4.54,-4.70,-4.51,8.40,8.40,8.39
43.46,12.94,4.57,12.94,4.57,-4.57,-4.72,-4.51,8.37,8.37,8.37
43.90,12.94,4.60,12.94,4.60,-4.59,-4.74,-4.51,8.35,8.35,8.34
44.33,12.94,4.62,12.94,4.62,-4.62,-4.76,-4.51,8.32,8.32,8.32
44.78,12.94,4.65,12.94,4.65,-4.65,-4.78,-4.52,8.29,8.29,8.29
45.23,12.94,4.67,12.94,4.68,-4.68,-4.80,-4.54,8.26,8.26,8.27
45.68,12.94,4.71,12.94,4.71,-4.71,-4.82,-4.55,8.23,8.23,8.23
46.13,12.94,4.75,12.94,4.74,-4.75,-4.84,-4.57,8.19,8.19,8.19
46.60,12.94,4.78,12.94,4.77,-4.79,-4.86,-4.59,8.15,8.15,8.16
47.06,12.94,4.81,12.94,4.81,-4.82,-4.88,-4.62,8.12,8.12,8.13
47.53,12.94,4.84,12.94,4.85,-4.85,-4.90,-4.65,8.09,8.09,8.10
48.01,12.94,4.90,12.95,4.89,-4.87,-4.92,-4.68,8.07,8.08,8.04
48.49,12.94,4.93,12.94,4.93,-4.89,-4.94,-4.71,8.05,8.06,8.01
48.97,12.94,4.97,12.91,4.94,-4.90,-4.97,-4.75,8.04,8.01,7.97
49.46,12.85,4.92,12.85,4.92,-4.91,-4.99,-4.79,7.94,7.94,7.93
49.96,12.75,4.87,12.78,4.90,-4.92,-5.01,-4.83,7.83,7.87,7.88
50.46,12.74,4.88,12.74,4.89,-4.93,-5.03,-4.88,7.81,7.81,7.86
50.96,12.74,4.92,12.73,4.91,-4.94,-5.05,-4.93,7.80,7.79,7.82
51.47,12.74,4.95,12.74,4.95,-4.96,-5.07,-4.98,7.78,7.78,7.79
51.99,12.74,4.99,12.74,4.99,-4.98,-5.10,-5.03,7.76,7.76,7.75
52.51,12.74,5.03,12.74,5.03,-5.02,-5.12,-5.08,7.72,7.72,7.71
53.03,12.74,5.06,12.74,5.07,-5.07,-5.14,-5.13,7.67,7.67,7.68
53.56,12.74,5.11,12.74,5.11,-5.11,-5.16,-5.18,7.63,7.63,7.63
54.10,12.74,5.15,12.74,5.15,-5.15,-5.18,-5.23,7.59,7.59,7.59
54.64,12.74,5.19,12.74,5.19,-5.19,-5.20,-5.29,7.55,7.56,7.55
55.18,12.74,5.23,12.74,5.24,-5.22,-5.23,-5.34,7.52,7.53,7.51
55.74,12.74,5.27,12.73,5.25,-5.24,-5.25,-5.39,7.50,7.49,7.47
56.29,12.71,5.27,12.70,5.26,-5.25,-5.27,-5.44,7.46,7.45,7.44
56.86,12.65,5.24,12.67,5.27,-5.26,-5.29,-5.48,7.39,7.41,7.41
57.42,12.63,5.28,12.63,5.27,-5.26,-5.31,-5.53,7.37,7.37,7.35
58.00,12.62,5.28,12.60,5.26,-5.27,-5.33,-5.57,7.35,7.33,7.34
58.58,12.57,5.25,12.58,5.26,-5.28,-5.35,-5.61,7.29,7.30,7.32
59.16,12.54,5.25,12.55,5.27,-5.29,-5.37,-5.65,7.25,7.26,7.29
59.76,12.54,5.29,12.54,5.29,-5.31,-5.40,-5.68,7.23,7.22,7.25
60.35,12.54,5.34,12.54,5.33,-5.34,-5.42,-5.70,7.20,7.20,7.20
60.96,12.54,5.37,12.55,5.38,-5.37,-5.44,-5.73,7.17,7.17,7.17
61.57,12.55,5.43,12.54,5.43,-5.41,-5.46,-5.75,7.14,7.13,7.12
62.18,12.54,5.48,12.53,5.46,-5.44,-5.48,-5.76,7.10,7.08,7.06
62.80,12.49,5.48,12.50,5.49,-5.47,-5.50,-5.77,7.02,7.03,7.01
63.43,12.46,5.50,12.47,5.50,-5.50,-5.52,-5.77,6.96,6.97,6.96
64.07,12.44,5.52,12.44,5.53,-5.52,-5.54,-5.77,6.92,6.92,6.92
64.71,12.43,5.55,12.42,5.54,-5.55,-5.56,-5.77,6.88,6.87,6.88
65.35,12.40,5.57,12.39,5.55,-5.56,-5.58,-5.76,6.84,6.83,6.83
66.01,12.34,5.55,12.36,5.57,-5.58,-5.59,-5.74,6.76,6.78,6.80
66.67,12.34,5.58,12.35,5.60,-5.60,-5.61,-5.73,6.74,6.75,6.76
67.33,12.34,5.64,12.33,5.63,-5.62,-5.63,-5.71,6.72,6.71,6.70
68.01,12.34,5.68,12.32,5.66,-5.65,-5.65,-5.68,6.69,6.67,6.66
68.69,12.27,5.66,12.28,5.67,-5.68,-5.67,-5.66,6.59,6.61,6.61
69.37,12.24,5.67,12.25,5.68,-5.71,-5.69,-5.63,6.53,6.55,6.57
70.07,12.24,5.72,12.24,5.71,-5.73,-5.70,-5.60,6.51,6.50,6.52
70.77,12.24,5.76,12.24,5.77,-5.75,-5.72,-5.57,6.49,6.49,6.48
71.48,12.24,5.81,12.24,5.81,-5.77,-5.74,-5.54,6.47,6.47,6.43
72.19,12.22,5.83,12.20,5.82,-5.79,-5.75,-5.50,6.43,6.42,6.39
72.91,12.15,5.82,12.15,5.82,-5.81,-5.77,-5.47,6.34,6.34,6.33
73.64,12.08,5.80,12.09,5.81,-5.83,-5.78,-5.44,6.25,6.26,6.28
74.38,12.04,5.79,12.05,5.80,-5.85,-5.80,-5.40,6.19,6.20,6.25
75.12,12.04,5.83,12.04,5.83,-5.86,-5.81,-5.37,6.18,6.18,6.21
75.87,12.04,5.86,12.04,5.87,-5.86,-5.83,-5.34,6.18,6.18,6.18
76.63,12.04,5.91,12.04,5.90,-5.87,-5.84,-5.32,6.17,6.17,6.13
77.40,12.02,5.92,12.01,5.92,-5.88,-5.85,-5.29,6.14,6.14,6.10
78.17,11.97,5.91,11.97,5.91,-5.89,-5.87,-5.27,6.08,6.08,6.06
78.95,11.91,5.88,11.91,5.88,-5.90,-5.88,-5.25,6.01,6.01,6.03
79.74,11.86,5.86,11.87,5.87,-5.91,-5.89,-5.23,5.95,5.96,6.00
80.54,11.84,5.87,11.84,5.88,-5.91,-5.90,-5.21,5.93,5.93,5.97
81.35,11.84,5.91,11.84,5.91,-5.91,-5.92,-5.20,5.93,5.93,5.93
82.16,11.84,5.94,11.84,5.94,-5.92,-5.93,-5.19,5.92,5.93,5.90
82.98,11.84,5.98,11.82,5.96,-5.92,-5.94,-5.19,5.92,5.90,5.86
83.81,11.78,5.96,11.78,5.96,-5.93,-5.95,-5.19,5.85,5.85,5.82
84.65,11.72,5.94,11.72,5.94,-5.95,-5.96,-5.19,5.77,5.77,5.78
85.50,11.67,5.93,11.67,5.93,-5.97,-5.97,-5.20,5.70,5.71,5.74
86.35,11.64,5.93,11.65,5.94,-5.98,-5.97,-5.20,5.66,5.67,5.71
87.22,11.64,5.97,11.64,5.98,-5.99,-5.98,-5.22,5.65,5.66,5.67
88.09,11.64,6.01,11.64,6.01,-5.99,-5.99,-5.24,5.65,5.65,5.63
88.97,11.64,6.06,11.62,6.04,-6.00,-6.00,-5.26,5.64,5.62,5.58
89.86,11.58,6.04,11.58,6.04,-6.01,-6.00,-5.28,5.57,5.57,5.54
90.76,11.52,6.02,11.53,6.03,-6.02,-6.01,-5.31,5.50,5.50,5.50
91.66,11.46,6.01,11.47,6.02,-6.03,-6.02,-5.35,5.43,5.44,5.45
92.58,11.44,6.03,11.43,6.02,-6.04,-6.02,-5.38,5.40,5.39,5.41
93.51,11.39,6.03,11.39,6.03,-6.05,-6.03,-5.42,5.34,5.34,5.36
94.44,11.35,6.03,11.36,6.05,-6.06,-6.03,-5.47,5.29,5.30,5.32
95.39,11.34,6.08,11.34,6.07,-6.08,-6.03,-5.52,5.26,5.26,5.26
96.34,11.32,6.11,11.31,6.10,-6.10,-6.04,-5.57,5.22,5.21,5.21
97.30,11.27,6.12,11.27,6.12,-6.12,-6.04,-5.63,5.15,5.15,5.15
98.28,11.22,6.12,11.24,6.15,-6.14,-6.04,-5.68,5.08,5.11,5.10
99.26,11.21,6.18,11.20,6.16,-6.14,-6.05,-5.74,5.07,5.05,5.03
100.25,11.17,6.19,11.15,6.17,-6.15,-6.05,-5.81,5.02,5.00,4.98
101.25,11.07,6.14,11.09,6.17,-6.15,-6.05,-5.87,4.92,4.94,4.93
102.27,11.02,6.15,11.01,6.14,-6.14,-6.05,-5.94,4.88,4.87,4.87
103.29,10.94,6.12,10.93,6.11,-6.14,-6.05,-6.01,4.80,4.80,4.82
104.32,10.86,6.09,10.87,6.10,-6.12,-6.05,-6.08,4.74,4.75,4.77
105.37,10.80,6.10,10.81,6.10,-6.11,-6.05,-6.15,4.69,4.70,4.71
106.42,10.78,6.12,10.77,6.11,-6.10,-6.05,-6.23,4.68,4.67,4.66
107.48,10.72,6.13,10.71,6.11,-6.09,-6.05,-6.30,4.63,4.62,4.59
108.56,10.64,6.09,10.64,6.09,-6.09,-6.05,-6.37,4.55,4.55,4.55
109.64,10.55,6.06,10.56,6.07,-6.09,-6.05,-6.44,4.46,4.47,4.49
110.74,10.49,6.06,10.50,6.07,-6.09,-6.05,-6.51,4.40,4.42,4.43
111.85,10.47,6.08,10.48,6.09,-6.09,-6.05,-6.58,4.38,4.39,4.39
112.97,10.46,6.12,10.44,6.10,-6.09,-6.05,-6.64,4.37,4.35,4.34
114.10,10.41,6.11,10.38,6.09,-6.08,-6.05,-6.70,4.33,4.30,4.30
115.24,10.28,6.05,10.32,6.08,-6.08,-6.04,-6.75,4.20,4.24,4.23
116.39,10.26,6.07,10.28,6.09,-6.08,-6.04,-6.80,4.18,4.19,4.19
117.55,10.26,6.12,10.24,6.09,-6.09,-6.04,-6.85,4.17,4.15,4.14
118.73,10.23,6.13,10.19,6.09,-6.09,-6.04,-6.89,4.14,4.10,4.10
119.92,10.10,6.04,10.13,6.07,-6.08,-6.03,-6.92,4.02,4.05,4.06
121.12,10.07,6.04,10.09,6.07,-6.08,-6.03,-6.95,3.99,4.01,4.03
122.33,10.08,6.09,10.08,6.08,-6.08,-6.03,-6.96,4.00,4.00,3.99
123.55,10.09,6.13,10.06,6.10,-6.08,-6.02,-6.98,4.01,3.98,3.96
124.79,10.03,6.10,10.01,6.09,-6.07,-6.02,-6.98,3.96,3.94,3.93
126.03,9.91,6.02,9.96,6.07,-6.07,-6.01,-6.97,3.84,3.89,3.89
127.29,9.91,6.06,9.91,6.06,-6.07,-6.01,-6.96,3.84,3.84,3.85
128.57,9.90,6.09,9.87,6.06,-6.07,-6.00,-6.94,3.83,3.80,3.81
129.85,9.84,6.06,9.85,6.07,-6.07,-6.00,-6.91,3.77,3.78,3.78
131.15,9.80,6.06,9.80,6.06,-6.06,-5.99,-6.88,3.74,3.74,3.74
132.46,9.75,6.04,9.76,6.06,-6.05,-5.99,-6.84,3.70,3.71,3.71
133.79,9.73,6.07,9.72,6.06,-6.04,-5.98,-6.79,3.69,3.68,3.66
135.12,9.68,6.06,9.68,6.05,-6.04,-5.98,-6.74,3.64,3.64,3.62
136.48,9.62,6.03,9.62,6.03,-6.03,-5.97,-6.68,3.59,3.59,3.59
137.84,9.55,6.00,9.55,6.00,-6.02,-5.96,-6.62,3.53,3.53,3.55
139.22,9.49,5.99,9.50,5.99,-6.01,-5.96,-6.55,3.48,3.49,3.50
140.61,9.45,5.97,9.46,5.99,-6.00,-5.95,-6.48,3.45,3.46,3.48
142.02,9.45,6.01,9.43,5.99,-5.98,-5.94,-6.41,3.47,3.44,3.44
143.44,9.38,5.99,9.38,5.99,-5.96,-5.93,-6.33,3.42,3.42,3.39
144.87,9.32,5.96,9.33,5.97,-5.94,-5.93,-6.26,3.38,3.39,3.36
146.32,9.26,5.94,9.25,5.93,-5.92,-5.92,-6.18,3.34,3.33,3.32
147.78,9.18,5.89,9.18,5.90,-5.90,-5.91,-6.11,3.28,3.29,3.29
149.26,9.11,5.86,9.11,5.87,-5.88,-5.90,-6.03,3.23,3.23,3.25
150.75,9.05,5.85,9.04,5.83,-5.86,-5.89,-5.95,3.19,3.18,3.20
152.26,8.98,5.81,8.99,5.82,-5.85,-5.88,-5.88,3.13,3.13,3.17
153.78,8.94,5.81,8.96,5.82,-5.84,-5.87,-5.80,3.10,3.12,3.13
155.32,8.94,5.84,8.94,5.84,-5.84,-5.86,-5.73,3.10,3.10,3.10
156.88,8.95,5.89,8.92,5.86,-5.84,-5.85,-5.66,3.11,3.08,3.06
158.44,8.87,5.85,8.88,5.86,-5.83,-5.83,-5.60,3.04,3.05,3.02
160.03,8.82,5.85,8.82,5.85,-5.83,-5.82,-5.53,2.99,2.99,2.97
161.63,8.75,5.82,8.75,5.82,-5.82,-5.81,-5.47,2.93,2.93,2.93
163.24,8.68,5.80,8.68,5.80,-5.81,-5.80,-5.41,2.87,2.88,2.88
164.88,8.62,5.78,8.62,5.78,-5.79,-5.78,-5.36,2.83,2.83,2.84
166.53,8.55,5.76,8.56,5.76,-5.76,-5.77,-5.31,2.79,2.80,2.79
168.19,8.50,5.75,8.49,5.74,-5.74,-5.75,-5.26,2.76,2.75,2.75
169.87,8.43,5.72,8.42,5.71,-5.71,-5.74,-5.22,2.72,2.71,2.71
171.57,8.33,5.67,8.35,5.69,-5.69,-5.72,-5.18,2.64,2.66,2.66
173.29,8.29,5.67,8.28,5.66,-5.67,-5.71,-5.14,2.62,2.62,2.62
175.02,8.22,5.64,8.22,5.64,-5.64,-5.69,-5.11,2.58,2.58,2.58
176.77,8.16,5.63,8.16,5.62,-5.62,-5.67,-5.08,2.54,2.54,2.53
178.54,8.10,5.60,8.10,5.60,-5.60,-5.65,-5.06,2.50,2.50,2.50
180.32,8.03,5.57,8.03,5.57,-5.58,-5.63,-5.04,2.45,2.46,2.46
182.13,7.97,5.56,7.97,5.55,-5.55,-5.62,-5.02,2.42,2.42,2.41
183.95,7.91,5.53,7.92,5.54,-5.54,-5.60,-5.01,2.37,2.38,2.38
185.79,7.87,5.53,7.87,5.53,-5.52,-5.57,-5.00,2.35,2.35,2.34
187.65,7.83,5.52,7.82,5.51,-5.52,-5.55,-4.99,2.32,2.30,2.31
189.52,7.77,5.50,7.77,5.49,-5.51,-5.53,-4.99,2.26,2.26,2.27
191.42,7.71,5.46,7.72,5.48,-5.51,-5.51,-4.99,2.20,2.22,2.25
193.33,7.69,5.48,7.70,5.49,-5.50,-5.48,-5.00,2.19,2.20,2.21
195.27,7.69,5.52,7.68,5.51,-5.49,-5.46,-5.01,2.20,2.19,2.17
197.22,7.68,5.54,7.65,5.51,-5.47,-5.43,-5.02,2.21,2.18,2.14
199.19,7.58,5.47,7.60,5.49,-5.46,-5.41,-5.03,2.12,2.14,2.11
201.18,7.52,5.45,7.51,5.44,-5.44,-5.38,-5.05,2.08,2.07,2.07
203.19,7.44,5.39,7.43,5.39,-5.42,-5.35,-5.06,2.02,2.02,2.05
205.23,7.35,5.33,7.37,5.36,-5.38,-5.32,-5.08,1.97,1.99,2.02
207.28,7.33,5.33,7.32,5.33,-5.34,-5.30,-5.10,1.99,1.98,2.00
209.35,7.28,5.33,7.27,5.32,-5.29,-5.27,-5.13,1.99,1.98,1.95
211.44,7.22,5.29,7.22,5.29,-5.25,-5.24,-5.15,1.97,1.96,1.93
213.56,7.13,5.24,7.12,5.22,-5.22,-5.20,-5.17,1.91,1.90,1.89
215.69,7.03,5.16,7.02,5.16,-5.19,-5.17,-5.20,1.84,1.84,1.87
217.85,6.92,5.07,6.96,5.12,-5.16,-5.14,-5.22,1.76,1.80,1.85
220.03,6.91,5.11,6.91,5.10,-5.12,-5.10,-5.24,1.79,1.79,1.80
222.23,6.91,5.13,6.88,5.10,-5.09,-5.07,-5.26,1.82,1.79,1.78
224.45,6.84,5.08,6.85,5.09,-5.06,-5.03,-5.28,1.78,1.79,1.76
226.70,6.79,5.05,6.78,5.04,-5.02,-5.00,-5.29,1.77,1.76,1.74
228.96,6.71,4.98,6.72,5.00,-4.99,-4.96,-5.30,1.72,1.74,1.73
231.25,6.66,4.95,6.66,4.95,-4.95,-4.92,-5.31,1.71,1.72,1.71
233.57,6.62,4.92,6.59,4.90,-4.90,-4.88,-5.32,1.72,1.70,1.70
235.90,6.51,4.83,6.52,4.84,-4.84,-4.84,-5.32,1.67,1.68,1.68
238.26,6.45,4.78,6.45,4.78,-4.79,-4.80,-5.31,1.66,1.66,1.67
240.64,6.39,4.71,6.39,4.72,-4.74,-4.76,-5.30,1.65,1.66,1.68
243.05,6.35,4.68,6.35,4.68,-4.69,-4.72,-5.29,1.66,1.66,1.67
245.48,6.32,4.65,6.31,4.64,-4.64,-4.67,-5.26,1.68,1.67,1.67
247.93,6.26,4.59,6.27,4.60,-4.59,-4.63,-5.24,1.67,1.68,1.67
250.41,6.23,4.55,6.22,4.55,-4.54,-4.59,-5.20,1.69,1.68,1.68
252.92,6.17,4.49,6.17,4.50,-4.50,-4.54,-5.16,1.67,1.67,1.68
255.45,6.11,4.45,6.12,4.45,-4.45,-4.49,-5.12,1.66,1.67,1.66
258.00,6.07,4.41,6.06,4.40,-4.40,-4.45,-5.06,1.67,1.66,1.66
260.58,6.00,4.35,6.00,4.36,-4.35,-4.40,-5.00,1.65,1.65,1.65
263.19,5.94,4.30,5.94,4.30,-4.30,-4.35,-4.94,1.64,1.64,1.64
265.82,5.89,4.25,5.88,4.25,-4.25,-4.30,-4.87,1.64,1.63,1.64
268.48,5.81,4.19,5.82,4.20,-4.20,-4.25,-4.80,1.61,1.62,1.62
271.16,5.75,4.15,5.75,4.14,-4.14,-4.20,-4.71,1.61,1.60,1.60
273.87,5.68,4.08,5.68,4.09,-4.09,-4.14,-4.63,1.59,1.59,1.60
276.61,5.61,4.03,5.62,4.04,-4.03,-4.09,-4.54,1.58,1.58,1.58
279.38,5.56,3.99,5.56,3.98,-3.98,-4.04,-4.45,1.58,1.58,1.57
282.17,5.50,3.93,5.49,3.92,-3.92,-3.98,-4.35,1.58,1.58,1.57
284.99,5.43,3.86,5.43,3.86,-3.86,-3.93,-4.25,1.57,1.57,1.57
287.84,5.34,3.77,5.35,3.79,-3.79,-3.87,-4.15,1.55,1.56,1.57
290.72,5.30,3.74,5.30,3.74,-3.73,-3.81,-4.05,1.57,1.56,1.56
293.63,5.23,3.68,5.23,3.67,-3.67,-3.76,-3.95,1.56,1.56,1.55
296.57,5.19,3.63,5.16,3.61,-3.61,-3.70,-3.84,1.58,1.56,1.56
299.53,5.07,3.50,5.11,3.55,-3.55,-3.64,-3.74,1.52,1.56,1.57
302.53,5.05,3.49,5.05,3.49,-3.49,-3.58,-3.63,1.56,1.56,1.56
305.55,5.03,3.47,4.99,3.42,-3.44,-3.52,-3.52,1.59,1.55,1.56
308.61,4.91,3.35,4.94,3.38,-3.38,-3.46,-3.42,1.53,1.56,1.56
311.69,4.87,3.31,4.88,3.32,-3.32,-3.39,-3.31,1.55,1.56,1.56
314.81,4.85,3.29,4.81,3.25,-3.27,-3.33,-3.21,1.58,1.55,1.56
317.96,4.75,3.20,4.77,3.22,-3.21,-3.27,-3.10,1.54,1.56,1.55
321.14,4.69,3.14,4.71,3.16,-3.14,-3.20,-3.00,1.55,1.57,1.55
324.35,4.67,3.12,4.63,3.08,-3.07,-3.14,-2.90,1.60,1.56,1.55
327.59,4.56,3.01,4.56,3.01,-3.00,-3.07,-2.80,1.56,1.55,1.55
330.87,4.45,2.90,4.48,2.93,-2.92,-3.01,-2.70,1.53,1.55,1.55
334.18,4.38,2.84,4.39,2.84,-2.85,-2.94,-2.60,1.53,1.54,1.54
337.52,4.34,2.79,4.31,2.76,-2.77,-2.87,-2.50,1.57,1.54,1.55
340.90,4.22,2.67,4.24,2.68,-2.68,-2.81,-2.41,1.54,1.55,1.55
344.30,4.15,2.59,4.16,2.60,-2.61,-2.74,-2.31,1.54,1.55,1.56
347.75,4.09,2.53,4.08,2.52,-2.53,-2.67,-2.22,1.56,1.55,1.56
351.23,4.02,2.46,4.02,2.46,-2.46,-2.60,-2.13,1.56,1.56,1.56
354.74,3.96,2.39,3.96,2.39,-2.39,-2.53,-2.04,1.57,1.57,1.57
358.28,3.89,2.32,3.90,2.32,-2.32,-2.46,-1.95,1.57,1.57,1.57
361.87,3.83,2.25,3.84,2.25,-2.25,-2.39,-1.87,1.58,1.58,1.58
365.49,3.79,2.20,3.78,2.19,-2.18,-2.32,-1.78,1.61,1.59,1.59
369.14,3.71,2.11,3.72,2.13,-2.11,-2.24,-1.70,1.60,1.61,1.60
372.83,3.66,2.05,3.65,2.06,-2.04,-2.17,-1.62,1.62,1.62,1.60
376.56,3.59,2.00,3.57,1.97,-1.97,-2.10,-1.54,1.62,1.61,1.59
380.33,3.48,1.88,3.49,1.89,-1.90,-2.03,-1.46,1.58,1.59,1.60
384.13,3.41,1.81,3.42,1.82,-1.84,-1.95,-1.38,1.57,1.58,1.60
387.97,3.36,1.75,3.35,1.74,-1.78,-1.88,-1.31,1.58,1.57,1.61
391.85,3.31,1.70,3.30,1.70,-1.72,-1.80,-1.23,1.59,1.59,1.61
395.77,3.24,1.64,3.27,1.67,-1.66,-1.73,-1.16,1.58,1.61,1.60
399.73,3.23,1.65,3.22,1.62,-1.61,-1.65,-1.09,1.62,1.61,1.58
403.72,3.19,1.60,3.15,1.57,-1.55,-1.58,-1.02,1.64,1.60,1.59
407.76,3.05,1.47,3.09,1.51,-1.50,-1.50,-0.95,1.55,1.59,1.58
411.84,3.01,1.44,3.00,1.43,-1.44,-1.43,-0.88,1.57,1.56,1.57
415.96,2.95,1.38,2.94,1.37,-1.38,-1.35,-0.81,1.57,1.56,1.57
420.12,2.86,1.30,2.89,1.33,-1.31,-1.27,-0.75,1.55,1.58,1.56
424.32,2.84,1.27,2.81,1.24,-1.24,-1.20,-0.68,1.60,1.57,1.57
428.56,2.75,1.16,2.74,1.16,-1.17,-1.12,-0.62,1.58,1.58,1.59
432.85,2.65,1.05,2.71,1.10,-1.10,-1.04,-0.56,1.55,1.60,1.60
437.18,2.69,1.07,2.65,1.03,-1.04,-0.97,-0.49,1.65,1.61,1.62
441.55,2.65,1.00,2.62,0.97,-0.98,-0.89,-0.43,1.67,1.64,1.65
445.96,2.56,0.87,2.62,0.93,-0.92,-0.81,-0.37,1.64,1.70,1.69
450.42,2.61,0.87,2.59,0.85,-0.86,-0.73,-0.32,1.75,1.73,1.74
454.93,2.63,0.84,2.59,0.80,-0.80,-0.66,-0.26,1.83,1.79,1.79
459.48,2.55,0.71,2.60,0.76,-0.74,-0.58,-0.20,1.81,1.86,1.84
464.07,2.60,0.69,2.59,0.69,-0.67,-0.50,-0.14,1.93,1.92,1.91
468.71,2.60,0.63,2.57,0.61,-0.61,-0.42,-0.09,1.99,1.96,1.97
473.40,2.55,0.53,2.56,0.54,-0.54,-0.34,-0.04,2.01,2.02,2.02
478.13,2.50,0.42,2.52,0.45,-0.46,-0.27,0.02,2.04,2.06,2.08
482.91,2.51,0.38,2.50,0.37,-0.38,-0.19,0.07,2.13,2.12,2.13
487.74,2.47,0.30,2.48,0.30,-0.30,-0.11,0.12,2.17,2.18,2.17
492.62,2.46,0.25,2.45,0.23,-0.21,-0.03,0.17,2.25,2.24,2.21
497.55,2.38,0.14,2.39,0.14,-0.13,0.05,0.22,2.25,2.26,2.24
502.52,2.33,0.06,2.31,0.04,-0.05,0.12,0.27,2.28,2.26,2.27
507.55,2.24,-0.06,2.25,-0.05,0.03,0.20,0.32,2.27,2.27,2.30
512.62,2.16,-0.15,2.20,-0.11,0.10,0.28,0.37,2.26,2.30,2.31
