frequency,raw,error,smoothed,error_smoothed,equalization,parametric_eq,fixed_band_eq,equalized_raw,equalized_smoothed,target
20.00,-0.03,2.01,-0.03,2.01,-2.00,-2.71,-1.22,-2.03,-2.03,-2.04
20.20,0.01,2.05,0.01,2.04,-2.04,-2.71,-1.26,-2.03,-2.03,-2.04
20.40,0.05,2.08,0.05,2.08,-2.08,-2.71,-1.30,-2.03,-2.03,-2.03
20.61,0.09,2.11,0.09,2.11,-2.11,-2.71,-1.33,-2.03,-2.02,-2.02
20.81,0.13,2.15,0.13,2.14,-2.15,-2.71,-1.37,-2.02,-2.02,-2.02
21.02,0.17,2.18,0.17,2.18,-2.18,-2.72,-1.41,-2.01,-2.01,-2.01
21.23,0.21,2.22,0.21,2.21,-2.21,-2.72,-1.45,-2.00,-2.00,-2.01
21.44,0.25,2.25,0.25,2.24,-2.25,-2.72,-1.50,-1.99,-2.00,-2.00
21.66,0.28,2.27,0.28,2.28,-2.28,-2.72,-1.54,-2.00,-1.99,-1.99
21.87,0.32,2.31,0.32,2.30,-2.31,-2.72,-1.59,-1.98,-1.98,-1.99
22.09,0.36,2.34,0.36,2.33,-2.33,-2.72,-1.63,-1.97,-1.97,-1.98
22.31,0.39,2.36,0.39,2.36,-2.35,-2.72,-1.68,-1.96,-1.96,-1.97
22.54,0.42,2.39,0.42,2.39,-2.38,-2.72,-1.73,-1.96,-1.95,-1.97
22.76,0.45,2.41,0.45,2.40,-2.40,-2.72,-1.78,-1.95,-1.95,-1.96
22.99,0.47,2.42,0.47,2.42,-2.42,-2.72,-1.83,-1.95,-1.95,-1.95
23.22,0.49,2.43,0.50,2.43,-2.44,-2.73,-1.88,-1.95,-1.95,-1.94
23.45,0.53,2.46,0.53,2.46,-2.47,-2.73,-1.94,-1.94,-1.94,-1.93
23.69,0.57,2.49,0.57,2.48,-2.50,-2.73,-1.99,-1.93,-1.93,-1.92
23.92,0.61,2.52,0.61,2.52,-2.52,-2.73,-2.05,-1.91,-1.91,-1.91
24.16,0.66,2.56,0.66,2.56,-2.55,-2.73,-2.10,-1.89,-1.89,-1.90
24.40,0.71,2.60,0.71,2.59,-2.58,-2.73,-2.16,-1.87,-1.87,-1.89
24.65,0.75,2.62,0.75,2.62,-2.61,-2.73,-2.22,-1.86,-1.86,-1.87
24.89,0.79,2.65,0.79,2.64,-2.63,-2.73,-2.28,-1.84,-1.85,-1.86
25.14,0.81,2.66,0.81,2.66,-2.65,-2.73,-2.34,-1.84,-1.84,-1.85
25.39,0.84,2.68,0.84,2.67,-2.67,-2.74,-2.40,-1.83,-1.84,-1.84
25.65,0.86,2.69,0.86,2.68,-2.69,-2.74,-2.46,-1.83,-1.83,-1.83
25.91,0.89,2.70,0.89,2.70,-2.71,-2.74,-2.52,-1.82,-1.82,-1.81
26.16,0.92,2.72,0.93,2.72,-2.74,-2.74,-2.58,-1.81,-1.81,-1.80
26.43,0.97,2.76,0.97,2.75,-2.76,-2.74,-2.64,-1.79,-1.79,-1.79
26.69,1.01,2.79,1.01,2.78,-2.78,-2.74,-2.70,-1.77,-1.77,-1.78
26.96,1.05,2.81,1.05,2.81,-2.80,-2.74,-2.75,-1.75,-1.75,-1.76
27.23,1.09,2.84,1.09,2.83,-2.82,-2.75,-2.81,-1.73,-1.74,-1.75
27.50,1.12,2.85,1.12,2.85,-2.84,-2.75,-2.87,-1.72,-1.72,-1.73
27.77,1.15,2.87,1.15,2.86,-2.86,-2.75,-2.92,-1.71,-1.71,-1.72
28.05,1.17,2.87,1.17,2.87,-2.88,-2.75,-2.97,-1.71,-1.71,-1.70
28.33,1.19,2.88,1.19,2.88,-2.89,-2.75,-3.02,-1.70,-1.69,-1.69
28.62,1.22,2.89,1.22,2.89,-2.90,-2.75,-3.07,-1.68,-1.68,-1.67
28.90,1.25,2.91,1.25,2.90,-2.90,-2.75,-3.11,-1.65,-1.66,-1.66
29.19,1.27,2.91,1.27,2.91,-2.90,-2.76,-3.16,-1.63,-1.63,-1.64
29.48,1.29,2.92,1.29,2.91,-2.90,-2.76,-3.19,-1.61,-1.61,-1.63
29.78,1.30,2.91,1.30,2.91,-2.90,-2.76,-3.23,-1.60,-1.60,-1.61
30.08,1.30,2.90,1.30,2.90,-2.89,-2.76,-3.26,-1.59,-1.59,-1.60
30.38,1.30,2.88,1.30,2.88,-2.88,-2.76,-3.29,-1.58,-1.58,-1.58
30.68,1.30,2.87,1.30,2.86,-2.87,-2.76,-3.31,-1.57,-1.57,-1.57
30.99,1.30,2.85,1.30,2.85,-2.86,-2.76,-3.33,-1.56,-1.56,-1.55
31.30,1.30,2.84,1.30,2.84,-2.85,-2.77,-3.34,-1.55,-1.54,-1.54
31.61,1.31,2.83,1.31,2.83,-2.84,-2.77,-3.35,-1.53,-1.53,-1.52
31.93,1.34,2.85,1.33,2.84,-2.85,-2.77,-3.36,-1.51,-1.51,-1.51
32.24,1.36,2.85,1.36,2.85,-2.85,-2.77,-3.36,-1.49,-1.49,-1.49
32.57,1.39,2.87,1.39,2.87,-2.86,-2.77,-3.36,-1.47,-1.47,-1.48
32.89,1.42,2.88,1.42,2.88,-2.88,-2.78,-3.35,-1.46,-1.46,-1.46
33.22,1.45,2.90,1.45,2.90,-2.89,-2.78,-3.34,-1.44,-1.44,-1.45
33.55,1.48,2.91,1.48,2.91,-2.91,-2.78,-3.33,-1.43,-1.43,-1.43
33.89,1.51,2.93,1.51,2.93,-2.93,-2.78,-3.32,-1.42,-1.41,-1.42
34.23,1.54,2.94,1.54,2.94,-2.94,-2.78,-3.30,-1.40,-1.40,-1.40
34.57,1.57,2.96,1.57,2.95,-2.95,-2.78,-3.28,-1.38,-1.39,-1.39
34.92,1.59,2.97,1.59,2.96,-2.96,-2.79,-3.26,-1.37,-1.37,-1.38
35.27,1.61,2.97,1.61,2.97,-2.97,-2.79,-3.23,-1.36,-1.36,-1.36
35.62,1.63,2.98,1.63,2.98,-2.97,-2.79,-3.21,-1.34,-1.34,-1.35
35.97,1.64,2.98,1.64,2.97,-2.97,-2.79,-3.18,-1.33,-1.33,-1.34
36.33,1.64,2.97,1.64,2.97,-2.96,-2.79,-3.15,-1.32,-1.32,-1.33
36.70,1.64,2.96,1.64,2.95,-2.95,-2.80,-3.12,-1.31,-1.31,-1.32
37.06,1.63,2.94,1.63,2.93,-2.93,-2.80,-3.09,-1.30,-1.30,-1.31
37.43,1.61,2.91,1.61,2.91,-2.91,-2.80,-3.06,-1.30,-1.30,-1.30
37.81,1.60,2.89,1.60,2.89,-2.90,-2.80,-3.04,-1.30,-1.29,-1.29
38.19,1.60,2.88,1.60,2.87,-2.88,-2.80,-3.01,-1.28,-1.29,-1.28
38.57,1.60,2.87,1.60,2.87,-2.88,-2.81,-2.98,-1.28,-1.28,-1.27
38.95,1.61,2.87,1.61,2.87,-2.88,-2.81,-2.95,-1.27,-1.26,-1.26
39.34,1.63,2.88,1.63,2.88,-2.88,-2.81,-2.93,-1.25,-1.25,-1.25
39.74,1.65,2.89,1.65,2.89,-2.89,-2.81,-2.90,-1.24,-1.24,-1.24
40.14,1.68,2.92,1.68,2.91,-2.91,-2.82,-2.88,-1.23,-1.23,-1.24
40.54,1.70,2.93,1.70,2.93,-2.93,-2.82,-2.86,-1.23,-1.23,-1.23
40.94,1.73,2.95,1.73,2.95,-2.95,-2.82,-2.84,-1.22,-1.22,-1.22
41.35,1.77,2.98,1.77,2.97,-2.97,-2.82,-2.82,-1.20,-1.21,-1.21
41.76,1.80,3.00,1.80,3.00,-3.00,-2.82,-2.80,-1.20,-1.20,-1.20
42.18,1.83,3.02,1.83,3.02,-3.02,-2.83,-2.79,-1.19,-1.19,-1.19
42.60,1.86,3.04,1.86,3.04,-3.04,-2.83,-2.78,-1.18,-1.18,-1.18
43.03,1.89,3.06,1.89,3.06,-3.05,-2.83,-2.77,-1.16,-1.17,-1.17
43.46,1.91,3.07,1.91,3.07,-3.07,-2.83,-2.76,-1.16,-1.16,-1.16
43.90,1.93,3.08,1.93,3.08,-3.07,-2.84,-2.75,-1.14,-1.14,-1.15
44.33,1.95,3.08,1.95,3.08,-3.08,-2.84,-2.75,-1.13,-1.13,-1.13
44.78,1.96,3.08,1.96,3.08,-3.07,-2.84,-2.75,-1.11,-1.11,-1.12
45.23,1.97,3.08,1.97,3.07,-3.06,-2.84,-2.75,-1.09,-1.10,-1.11
45.68,1.97,3.06,1.97,3.06,-3.05,-2.84,-2.75,-1.08,-1.09,-1.09
46.13,1.96,3.04,1.96,3.04,-3.04,-2.85,-2.75,-1.08,-1.08,-1.08
46.60,1.95,3.01,1.95,3.01,-3.02,-2.85,-2.76,-1.07,-1.07,-1.06
47.06,1.95,3.00,1.95,2.99,-3.00,-2.85,-2.77,-1.05,-1.05,-1.05
47.53,1.95,2.98,1.95,2.98,-2.98,-2.85,-2.78,-1.03,-1.03,-1.03
48.01,1.95,2.97,1.95,2.97,-2.97,-2.86,-2.79,-1.02,-1.02,-1.02
48.49,1.95,2.95,1.95,2.95,-2.95,-2.86,-2.81,-1.00,-1.00,-1.00
48.97,1.95,2.94,1.95,2.93,-2.93,-2.86,-2.82,-0.98,-0.98,-0.99
49.46,1.95,2.92,1.95,2.92,-2.91,-2.86,-2.84,-0.96,-0.97,-0.97
49.96,1.94,2.90,1.94,2.90,-2.90,-2.87,-2.86,-0.96,-0.95,-0.96
50.46,1.94,2.89,1.94,2.88,-2.88,-2.87,-2.88,-0.94,-0.94,-0.95
50.96,1.93,2.86,1.93,2.86,-2.86,-2.87,-2.90,-0.93,-0.93,-0.93
51.47,1.93,2.85,1.93,2.85,-2.85,-2.87,-2.92,-0.92,-0.92,-0.92
51.99,1.93,2.84,1.93,2.83,-2.84,-2.87,-2.95,-0.91,-0.91,-0.91
52.51,1.93,2.83,1.93,2.83,-2.83,-2.88,-2.97,-0.90,-0.90,-0.90
53.03,1.94,2.83,1.94,2.83,-2.83,-2.88,-2.99,-0.89,-0.89,-0.89
53.56,1.96,2.83,1.96,2.83,-2.83,-2.88,-3.02,-0.87,-0.87,-0.87
54.10,1.98,2.84,1.98,2.84,-2.84,-2.88,-3.04,-0.86,-0.86,-0.86
54.64,2.00,2.85,2.00,2.85,-2.86,-2.89,-3.07,-0.86,-0.85,-0.85
55.18,2.03,2.88,2.03,2.87,-2.87,-2.89,-3.09,-0.84,-0.84,-0.85
55.74,2.06,2.90,2.06,2.90,-2.89,-2.89,-3.12,-0.83,-0.84,-0.84
56.29,2.09,2.92,2.09,2.92,-2.92,-2.89,-3.14,-0.83,-0.83,-0.83
56.86,2.12,2.95,2.12,2.94,-2.94,-2.89,-3.16,-0.82,-0.82,-0.83
57.42,2.15,2.97,2.15,2.97,-2.97,-2.90,-3.18,-0.82,-0.82,-0.82
58.00,2.18,3.00,2.18,2.99,-2.99,-2.90,-3.20,-0.81,-0.81,-0.82
58.58,2.21,3.02,2.21,3.02,-3.02,-2.90,-3.21,-0.81,-0.81,-0.81
59.16,2.23,3.04,2.23,3.04,-3.04,-2.90,-3.23,-0.81,-0.81,-0.81
59.76,2.25,3.06,2.25,3.06,-3.06,-2.90,-3.24,-0.81,-0.81,-0.81
60.35,2.27,3.08,2.27,3.08,-3.07,-2.91,-3.25,-0.80,-0.80,-0.81
60.96,2.28,3.09,2.28,3.09,-3.08,-2.91,-3.26,-0.80,-0.80,-0.81
61.57,2.29,3.10,2.29,3.09,-3.09,-2.91,-3.26,-0.80,-0.80,-0.81
62.18,2.29,3.10,2.29,3.09,-3.09,-2.91,-3.26,-0.80,-0.80,-0.81
62.80,2.28,3.09,2.28,3.09,-3.09,-2.91,-3.26,-0.81,-0.81,-0.81
63.43,2.28,3.09,2.28,3.09,-3.09,-2.91,-3.26,-0.81,-0.82,-0.81
64.07,2.27,3.09,2.27,3.09,-3.09,-2.92,-3.25,-0.82,-0.82,-0.82
64.71,2.27,3.09,2.27,3.09,-3.09,-2.92,-3.24,-0.82,-0.82,-0.82
65.35,2.27,3.09,2.27,3.09,-3.09,-2.92,-3.23,-0.82,-0.82,-0.82
66.01,2.27,3.09,2.27,3.09,-3.09,-2.92,-3.21,-0.82,-0.82,-0.82
66.67,2.27,3.09,2.27,3.09,-3.09,-2.92,-3.20,-0.82,-0.82,-0.82
67.33,2.27,3.09,2.27,3.09,-3.09,-2.92,-3.18,-0.82,-0.82,-0.82
68.01,2.27,3.10,2.27,3.09,-3.09,-2.93,-3.16,-0.82,-0.82,-0.83
68.69,2.27,3.10,2.27,3.10,-3.10,-2.93,-3.13,-0.83,-0.83,-0.83
69.37,2.27,3.10,2.27,3.10,-3.10,-2.93,-3.11,-0.83,-0.83,-0.83
70.07,2.27,3.10,2.27,3.10,-3.10,-2.93,-3.08,-0.83,-0.83,-0.83
70.77,2.27,3.10,2.27,3.10,-3.10,-2.93,-3.06,-0.83,-0.83,-0.83
71.48,2.27,3.10,2.27,3.10,-3.10,-2.93,-3.03,-0.83,-0.83,-0.83
72.19,2.27,3.10,2.27,3.09,-3.09,-2.93,-3.00,-0.82,-0.82,-0.83
72.91,2.27,3.09,2.27,3.09,-3.09,-2.93,-2.98,-0.82,-0.82,-0.82
73.64,2.27,3.09,2.27,3.09,-3.09,-2.93,-2.95,-0.82,-0.82,-0.82
74.38,2.27,3.08,2.27,3.08,-3.08,-2.94,-2.92,-0.81,-0.81,-0.81
75.12,2.27,3.08,2.27,3.07,-3.07,-2.94,-2.89,-0.80,-0.80,-0.81
75.87,2.27,3.07,2.27,3.07,-3.07,-2.94,-2.87,-0.80,-0.80,-0.80
76.63,2.27,3.06,2.27,3.06,-3.06,-2.94,-2.84,-0.79,-0.79,-0.79
77.40,2.27,3.05,2.27,3.05,-3.05,-2.94,-2.82,-0.78,-0.78,-0.78
78.17,2.27,3.04,2.27,3.04,-3.04,-2.94,-2.79,-0.77,-0.77,-0.77
78.95,2.27,3.03,2.27,3.03,-3.03,-2.94,-2.77,-0.76,-0.76,-0.76
79.74,2.27,3.02,2.27,3.02,-3.02,-2.94,-2.75,-0.75,-0.75,-0.75
80.54,2.27,3.01,2.27,3.01,-3.01,-2.94,-2.73,-0.74,-0.74,-0.74
81.35,2.27,3.00,2.27,3.00,-3.00,-2.94,-2.71,-0.73,-0.73,-0.73
82.16,2.27,2.99,2.27,2.99,-2.99,-2.94,-2.70,-0.72,-0.72,-0.72
82.98,2.27,2.98,2.27,2.98,-2.98,-2.94,-2.68,-0.71,-0.71,-0.71
83.81,2.27,2.97,2.27,2.97,-2.97,-2.94,-2.67,-0.70,-0.70,-0.70
84.65,2.27,2.96,2.27,2.96,-2.96,-2.95,-2.66,-0.69,-0.69,-0.69
85.50,2.27,2.95,2.27,2.95,-2.95,-2.95,-2.65,-0.68,-0.68,-0.68
86.35,2.27,2.94,2.27,2.94,-2.94,-2.95,-2.65,-0.67,-0.67,-0.67
87.22,2.27,2.93,2.27,2.93,-2.92,-2.95,-2.64,-0.65,-0.65,-0.66
88.09,2.27,2.92,2.27,2.91,-2.91,-2.95,-2.64,-0.64,-0.64,-0.65
88.97,2.27,2.90,2.27,2.90,-2.90,-2.95,-2.64,-0.63,-0.63,-0.63
89.86,2.27,2.89,2.27,2.89,-2.89,-2.95,-2.64,-0.62,-0.62,-0.62
90.76,2.27,2.88,2.27,2.87,-2.87,-2.95,-2.65,-0.60,-0.60,-0.61
91.66,2.27,2.86,2.27,2.86,-2.86,-2.95,-2.65,-0.59,-0.59,-0.59
92.58,2.27,2.85,2.27,2.85,-2.85,-2.95,-2.66,-0.58,-0.58,-0.58
93.51,2.27,2.84,2.27,2.83,-2.83,-2.95,-2.67,-0.56,-0.56,-0.57
94.44,2.27,2.82,2.27,2.82,-2.82,-2.94,-2.68,-0.55,-0.55,-0.55
95.39,2.27,2.81,2.27,2.80,-2.81,-2.94,-2.69,-0.54,-0.54,-0.54
96.34,2.27,2.79,2.27,2.79,-2.79,-2.94,-2.71,-0.52,-0.52,-0.52
97.30,2.27,2.78,2.27,2.78,-2.78,-2.94,-2.73,-0.51,-0.51,-0.51
98.28,2.27,2.77,2.27,2.77,-2.76,-2.94,-2.74,-0.49,-0.49,-0.50
99.26,2.27,2.76,2.27,2.75,-2.75,-2.94,-2.76,-0.48,-0.48,-0.49
100.25,2.27,2.74,2.27,2.74,-2.74,-2.94,-2.78,-0.47,-0.47,-0.47
101.25,2.27,2.73,2.27,2.73,-2.73,-2.93,-2.80,-0.46,-0.46,-0.46
102.27,2.27,2.72,2.27,2.72,-2.72,-2.93,-2.83,-0.45,-0.45,-0.45
103.29,2.27,2.72,2.27,2.71,-2.71,-2.93,-2.85,-0.44,-0.44,-0.45
104.32,2.27,2.71,2.27,2.71,-2.71,-2.92,-2.87,-0.44,-0.44,-0.44
105.37,2.27,2.70,2.27,2.70,-2.70,-2.92,-2.90,-0.43,-0.43,-0.43
106.42,2.27,2.70,2.27,2.70,-2.70,-2.91,-2.92,-0.43,-0.43,-0.43
107.48,2.27,2.70,2.27,2.70,-2.70,-2.91,-2.94,-0.43,-0.43,-0.43
108.56,2.27,2.70,2.27,2.70,-2.70,-2.90,-2.96,-0.43,-0.43,-0.43
109.64,2.27,2.70,2.27,2.70,-2.70,-2.90,-2.98,-0.43,-0.43,-0.43
110.74,2.27,2.70,2.27,2.70,-2.70,-2.89,-3.00,-0.43,-0.43,-0.43
111.85,2.27,2.70,2.27,2.70,-2.70,-2.88,-3.02,-0.43,-0.43,-0.43
112.97,2.27,2.71,2.27,2.70,-2.71,-2.87,-3.03,-0.44,-0.44,-0.44
114.10,2.27,2.71,2.27,2.71,-2.71,-2.86,-3.05,-0.44,-0.44,-0.44
115.24,2.27,2.72,2.27,2.72,-2.71,-2.85,-3.06,-0.44,-0.44,-0.45
116.39,2.27,2.72,2.27,2.72,-2.72,-2.83,-3.07,-0.45,-0.45,-0.45
117.55,2.27,2.73,2.27,2.73,-2.72,-2.82,-3.07,-0.45,-0.45,-0.46
118.73,2.27,2.73,2.27,2.73,-2.73,-2.80,-3.07,-0.46,-0.46,-0.46
119.92,2.27,2.74,2.27,2.73,-2.73,-2.78,-3.07,-0.46,-0.46,-0.47
121.12,2.27,2.74,2.27,2.74,-2.74,-2.77,-3.06,-0.47,-0.47,-0.47
122.33,2.27,2.74,2.27,2.74,-2.74,-2.75,-3.05,-0.47,-0.47,-0.47
123.55,2.27,2.74,2.27,2.74,-2.75,-2.73,-3.03,-0.48,-0.47,-0.47
124.79,2.28,2.75,2.28,2.75,-2.75,-2.70,-3.01,-0.47,-0.47,-0.47
126.03,2.29,2.76,2.29,2.75,-2.75,-2.68,-2.99,-0.46,-0.47,-0.47
127.29,2.29,2.76,2.29,2.76,-2.75,-2.65,-2.96,-0.46,-0.46,-0.47
128.57,2.29,2.76,2.29,2.76,-2.75,-2.62,-2.93,-0.46,-0.46,-0.47
129.85,2.28,2.75,2.28,2.75,-2.75,-2.59,-2.89,-0.47,-0.47,-0.47
131.15,2.27,2.74,2.27,2.74,-2.74,-2.56,-2.85,-0.47,-0.46,-0.47
132.46,2.26,2.73,2.26,2.72,-2.72,-2.52,-2.80,-0.46,-0.46,-0.47
133.79,2.24,2.70,2.24,2.70,-2.70,-2.49,-2.75,-0.46,-0.46,-0.46
135.12,2.22,2.68,2.21,2.67,-2.67,-2.45,-2.69,-0.45,-0.46,-0.46
136.48,2.18,2.64,2.18,2.64,-2.64,-2.41,-2.64,-0.46,-0.46,-0.46
137.84,2.14,2.60,2.15,2.60,-2.60,-2.37,-2.57,-0.46,-0.46,-0.46
139.22,2.11,2.57,2.10,2.56,-2.56,-2.32,-2.51,-0.45,-0.46,-0.46
140.61,2.06,2.52,2.06,2.51,-2.51,-2.28,-2.44,-0.45,-0.45,-0.46
142.02,2.01,2.46,2.01,2.46,-2.46,-2.23,-2.38,-0.45,-0.45,-0.45
143.44,1.96,2.41,1.96,2.41,-2.41,-2.18,-2.30,-0.45,-0.45,-0.45
144.87,1.90,2.35,1.90,2.35,-2.35,-2.13,-2.23,-0.45,-0.45,-0.45
146.32,1.84,2.30,1.84,2.29,-2.29,-2.07,-2.16,-0.45,-0.45,-0.46
147.78,1.77,2.23,1.77,2.23,-2.23,-2.02,-2.08,-0.46,-0.46,-0.46
149.26,1.70,2.16,1.70,2.16,-2.16,-1.96,-2.00,-0.46,-0.46,-0.46
150.75,1.63,2.09,1.63,2.09,-2.09,-1.90,-1.93,-0.46,-0.46,-0.46
152.26,1.56,2.02,1.56,2.02,-2.02,-1.84,-1.85,-0.46,-0.46,-0.46
153.78,1.49,1.96,1.49,1.95,-1.95,-1.77,-1.77,-0.46,-0.46,-0.47
155.32,1.41,1.88,1.41,1.88,-1.88,-1.71,-1.69,-0.47,-0.46,-0.47
156.88,1.34,1.81,1.33,1.80,-1.80,-1.64,-1.61,-0.46,-0.47,-0.47
158.44,1.25,1.72,1.25,1.72,-1.73,-1.57,-1.53,-0.48,-0.47,-0.47
160.03,1.17,1.65,1.17,1.65,-1.65,-1.51,-1.45,-0.48,-0.48,-0.48
161.63,1.09,1.57,1.09,1.57,-1.57,-1.43,-1.37,-0.48,-0.48,-0.48
163.24,1.01,1.50,1.01,1.49,-1.49,-1.36,-1.29,-0.48,-0.48,-0.49
164.88,0.92,1.41,0.92,1.41,-1.41,-1.29,-1.21,-0.49,-0.49,-0.49
166.53,0.84,1.34,0.83,1.33,-1.33,-1.22,-1.13,-0.49,-0.50,-0.50
168.19,0.74,1.25,0.74,1.25,-1.25,-1.14,-1.05,-0.51,-0.51,-0.51
169.87,0.65,1.17,0.65,1.17,-1.17,-1.06,-0.97,-0.52,-0.52,-0.52
171.57,0.56,1.09,0.56,1.09,-1.09,-0.99,-0.89,-0.53,-0.53,-0.53
173.29,0.47,1.01,0.47,1.00,-1.00,-0.91,-0.81,-0.53,-0.54,-0.54
175.02,0.37,0.92,0.37,0.92,-0.92,-0.83,-0.73,-0.55,-0.55,-0.55
176.77,0.27,0.84,0.27,0.84,-0.84,-0.75,-0.66,-0.57,-0.56,-0.57
178.54,0.17,0.75,0.17,0.75,-0.75,-0.67,-0.58,-0.58,-0.58,-0.58
180.32,0.07,0.67,0.07,0.66,-0.66,-0.59,-0.50,-0.59,-0.59,-0.60
182.13,-0.04,0.57,-0.04,0.57,-0.57,-0.51,-0.43,-0.61,-0.61,-0.61
183.95,-0.16,0.47,-0.15,0.48,-0.47,-0.43,-0.35,-0.63,-0.62,-0.63
185.79,-0.26,0.39,-0.26,0.38,-0.38,-0.35,-0.28,-0.64,-0.64,-0.65
187.65,-0.37,0.29,-0.38,0.28,-0.28,-0.27,-0.20,-0.65,-0.66,-0.66
189.52,-0.50,0.18,-0.50,0.18,-0.18,-0.19,-0.13,-0.68,-0.68,-0.68
191.42,-0.62,0.08,-0.62,0.08,-0.08,-0.11,-0.05,-0.70,-0.70,-0.70
193.33,-0.73,-0.01,-0.73,-0.02,0.01,-0.03,0.02,-0.72,-0.72,-0.72
195.27,-0.84,-0.11,-0.84,-0.11,0.11,0.05,0.09,-0.73,-0.74,-0.73
197.22,-0.95,-0.20,-0.95,-0.20,0.20,0.13,0.16,-0.75,-0.75,-0.75
199.19,-1.06,-0.29,-1.06,-0.29,0.29,0.21,0.23,-0.77,-0.77,-0.77
201.18,-1.16,-0.36,-1.17,-0.37,0.38,0.29,0.30,-0.78,-0.79,-0.80
203.19,-1.28,-0.46,-1.27,-0.46,0.46,0.36,0.37,-0.82,-0.81,-0.82
205.23,-1.38,-0.54,-1.38,-0.54,0.55,0.44,0.44,-0.83,-0.83,-0.84
207.28,-1.48,-0.62,-1.49,-0.63,0.63,0.51,0.51,-0.85,-0.85,-0.86
209.35,-1.60,-0.72,-1.59,-0.71,0.72,0.58,0.57,-0.88,-0.88,-0.88
211.44,-1.70,-0.79,-1.70,-0.80,0.80,0.65,0.64,-0.90,-0.91,-0.91
213.56,-1.81,-0.88,-1.81,-0.88,0.88,0.71,0.70,-0.93,-0.94,-0.93
215.69,-1.92,-0.96,-1.91,-0.96,0.95,0.78,0.76,-0.97,-0.96,-0.96
217.85,-2.01,-1.02,-2.01,-1.03,1.02,0.84,0.82,-0.99,-0.99,-0.99
220.03,-2.10,-1.09,-2.10,-1.09,1.09,0.90,0.88,-1.01,-1.01,-1.01
222.23,-2.18,-1.15,-2.18,-1.15,1.15,0.96,0.93,-1.03,-1.03,-1.03
224.45,-2.26,-1.20,-2.26,-1.21,1.22,1.01,0.98,-1.04,-1.05,-1.06
226.70,-2.34,-1.26,-2.34,-1.26,1.28,1.06,1.03,-1.06,-1.06,-1.08
228.96,-2.43,-1.33,-2.42,-1.33,1.34,1.11,1.08,-1.09,-1.08,-1.10
231.25,-2.50,-1.38,-2.51,-1.39,1.40,1.15,1.12,-1.10,-1.11,-1.12
233.57,-2.59,-1.46,-2.59,-1.46,1.45,1.20,1.16,-1.14,-1.14,-1.13
235.90,-2.66,-1.51,-2.66,-1.51,1.50,1.23,1.20,-1.16,-1.16,-1.15
238.26,-2.71,-1.55,-2.71,-1.55,1.54,1.27,1.24,-1.17,-1.17,-1.16
240.64,-2.75,-1.58,-2.75,-1.58,1.57,1.29,1.27,-1.18,-1.18,-1.17
243.05,-2.77,-1.59,-2.77,-1.59,1.59,1.32,1.29,-1.18,-1.18,-1.18
245.48,-2.79,-1.60,-2.79,-1.60,1.60,1.34,1.31,-1.19,-1.18,-1.19
247.93,-2.79,-1.59,-2.80,-1.60,1.60,1.36,1.33,-1.19,-1.19,-1.20
250.41,-2.80,-1.59,-2.80,-1.59,1.60,1.38,1.35,-1.20,-1.20,-1.21
252.92,-2.80,-1.58,-2.80,-1.58,1.59,1.39,1.36,-1.21,-1.21,-1.22
255.45,-2.79,-1.56,-2.79,-1.56,1.56,1.40,1.37,-1.23,-1.22,-1.23
258.00,-2.77,-1.53,-2.77,-1.54,1.54,1.40,1.37,-1.23,-1.24,-1.24
260.58,-2.75,-1.51,-2.75,-1.51,1.50,1.40,1.37,-1.25,-1.25,-1.24
263.19,-2.72,-1.47,-2.72,-1.47,1.46,1.40,1.37,-1.26,-1.26,-1.25
265.82,-2.68,-1.42,-2.68,-1.42,1.41,1.39,1.36,-1.27,-1.27,-1.26
268.48,-2.63,-1.36,-2.63,-1.36,1.35,1.38,1.35,-1.28,-1.27,-1.27
271.16,-2.57,-1.29,-2.57,-1.29,1.30,1.37,1.33,-1.27,-1.27,-1.28
273.87,-2.51,-1.22,-2.52,-1.23,1.24,1.36,1.32,-1.27,-1.27,-1.29
276.61,-2.47,-1.17,-2.47,-1.17,1.19,1.34,1.30,-1.28,-1.28,-1.30
279.38,-2.43,-1.12,-2.43,-1.12,1.14,1.32,1.28,-1.29,-1.29,-1.31
282.17,-2.40,-1.08,-2.41,-1.09,1.10,1.30,1.25,-1.30,-1.31,-1.32
284.99,-2.39,-1.06,-2.39,-1.06,1.06,1.27,1.23,-1.33,-1.33,-1.33
287.84,-2.37,-1.03,-2.37,-1.03,1.02,1.25,1.20,-1.35,-1.35,-1.34
290.72,-2.35,-1.00,-2.35,-1.00,0.99,1.22,1.17,-1.36,-1.36,-1.35
293.63,-2.32,-0.96,-2.32,-0.96,0.95,1.19,1.14,-1.37,-1.37,-1.36
296.57,-2.28,-0.91,-2.28,-0.92,0.91,1.16,1.11,-1.37,-1.37,-1.37
299.53,-2.25,-0.87,-2.25,-0.87,0.87,1.13,1.08,-1.38,-1.38,-1.38
302.53,-2.21,-0.82,-2.21,-0.82,0.83,1.10,1.04,-1.38,-1.38,-1.39
305.55,-2.18,-0.77,-2.18,-0.78,0.79,1.07,1.01,-1.39,-1.39,-1.41
308.61,-2.15,-0.73,-2.15,-0.74,0.74,1.03,0.97,-1.41,-1.41,-1.42
311.69,-2.13,-0.70,-2.13,-0.70,0.70,1.00,0.94,-1.43,-1.44,-1.43
314.81,-2.11,-0.66,-2.11,-0.66,0.65,0.96,0.90,-1.46,-1.46,-1.45
317.96,-2.08,-0.62,-2.08,-0.62,0.60,0.93,0.87,-1.48,-1.47,-1.46
321.14,-2.04,-0.56,-2.04,-0.56,0.56,0.89,0.83,-1.48,-1.48,-1.48
324.35,-2.00,-0.51,-2.00,-0.51,0.51,0.85,0.80,-1.49,-1.49,-1.49
327.59,-1.97,-0.46,-1.97,-0.47,0.47,0.82,0.76,-1.50,-1.50,-1.51
330.87,-1.95,-0.43,-1.95,-0.43,0.44,0.78,0.73,-1.51,-1.51,-1.52
334.18,-1.94,-0.40,-1.94,-0.40,0.41,0.75,0.70,-1.53,-1.53,-1.54
337.52,-1.94,-0.39,-1.94,-0.39,0.39,0.71,0.66,-1.55,-1.54,-1.55
340.90,-1.94,-0.37,-1.94,-0.38,0.39,0.67,0.63,-1.55,-1.56,-1.57
344.30,-1.96,-0.38,-1.96,-0.38,0.39,0.64,0.60,-1.57,-1.57,-1.58
347.75,-1.99,-0.39,-1.99,-0.39,0.40,0.60,0.56,-1.59,-1.59,-1.60
351.23,-2.03,-0.41,-2.03,-0.42,0.41,0.57,0.53,-1.62,-1.62,-1.62
354.74,-2.07,-0.44,-2.07,-0.44,0.43,0.53,0.50,-1.64,-1.64,-1.63
358.28,-2.10,-0.45,-2.10,-0.46,0.45,0.50,0.47,-1.65,-1.65,-1.65
361.87,-2.14,-0.47,-2.14,-0.47,0.47,0.46,0.44,-1.67,-1.67,-1.67
365.49,-2.17,-0.49,-2.17,-0.49,0.49,0.43,0.41,-1.68,-1.68,-1.68
369.14,-2.20,-0.50,-2.20,-0.50,0.50,0.39,0.38,-1.70,-1.70,-1.70
372.83,-2.22,-0.51,-2.22,-0.51,0.52,0.36,0.35,-1.70,-1.71,-1.71
376.56,-2.25,-0.52,-2.25,-0.52,0.53,0.33,0.32,-1.72,-1.72,-1.73
380.33,-2.27,-0.52,-2.27,-0.53,0.53,0.29,0.30,-1.74,-1.74,-1.75
384.13,-2.30,-0.54,-2.30,-0.54,0.54,0.26,0.27,-1.76,-1.76,-1.76
387.97,-2.31,-0.53,-2.31,-0.54,0.53,0.23,0.24,-1.78,-1.78,-1.78
391.85,-2.32,-0.53,-2.32,-0.53,0.52,0.19,0.21,-1.80,-1.80,-1.79
395.77,-2.31,-0.51,-2.31,-0.51,0.50,0.16,0.19,-1.81,-1.81,-1.80
399.73,-2.29,-0.48,-2.29,-0.48,0.48,0.13,0.16,-1.81,-1.81,-1.81
403.72,-2.26,-0.44,-2.26,-0.45,0.45,0.10,0.14,-1.81,-1.82,-1.82
407.76,-2.24,-0.41,-2.24,-0.41,0.41,0.07,0.11,-1.83,-1.83,-1.83
411.84,-2.21,-0.36,-2.21,-0.37,0.37,0.04,0.09,-1.84,-1.84,-1.85
415.96,-2.18,-0.32,-2.18,-0.32,0.33,0.01,0.06,-1.85,-1.85,-1.86
420.12,-2.15,-0.28,-2.15,-0.28,0.28,-0.02,0.04,-1.87,-1.87,-1.87
424.32,-2.12,-0.24,-2.12,-0.24,0.24,-0.05,0.01,-1.88,-1.88,-1.88
428.56,-2.09,-0.20,-2.09,-0.20,0.20,-0.08,-0.01,-1.89,-1.89,-1.89
432.85,-2.06,-0.15,-2.06,-0.16,0.15,-0.11,-0.04,-1.91,-1.90,-1.91
437.18,-2.03,-0.11,-2.03,-0.11,0.12,-0.14,-0.06,-1.91,-1.91,-1.92
441.55,-2.00,-0.07,-2.00,-0.07,0.08,-0.17,-0.09,-1.92,-1.92,-1.93
445.96,-1.98,-0.03,-1.98,-0.04,0.04,-0.20,-0.11,-1.94,-1.94,-1.95
450.42,-1.97,-0.00,-1.97,-0.01,0.01,-0.23,-0.13,-1.96,-1.96,-1.97
454.93,-1.96,0.02,-1.96,0.02,-0.02,-0.26,-0.16,-1.98,-1.98,-1.98
459.48,-1.95,0.05,-1.95,0.05,-0.05,-0.29,-0.18,-2.00,-2.00,-2.00
