frequency,raw,error,smoothed,error_smoothed,equalization,parametric_eq,fixed_band_eq,equalized_raw,equalized_smoothed,target
20.00,7.53,5.10,7.53,5.10,-5.10,-4.78,-2.81,2.43,2.42,2.43
20.20,7.56,5.13,7.56,5.14,-5.14,-4.83,-2.89,2.42,2.42,2.43
20.40,7.59,5.18,7.60,5.18,-5.18,-4.88,-2.98,2.42,2.42,2.42
20.61,7.63,5.21,7.63,5.21,-5.21,-4.93,-3.06,2.42,2.42,2.42
20.81,7.66,5.26,7.66,5.25,-5.25,-4.99,-3.15,2.41,2.41,2.41
21.02,7.69,5.28,7.69,5.28,-5.28,-5.04,-3.24,2.41,2.41,2.41
21.23,7.71,5.32,7.71,5.32,-5.32,-5.09,-3.33,2.39,2.40,2.40
21.44,7.74,5.35,7.74,5.35,-5.35,-5.14,-3.43,2.39,2.39,2.40
21.66,7.77,5.38,7.77,5.38,-5.39,-5.19,-3.53,2.38,2.38,2.39
21.87,7.80,5.42,7.80,5.42,-5.42,-5.24,-3.63,2.38,2.38,2.39
22.09,7.84,5.47,7.84,5.46,-5.46,-5.29,-3.74,2.38,2.38,2.38
22.31,7.87,5.50,7.87,5.50,-5.49,-5.34,-3.84,2.38,2.38,2.38
22.54,7.90,5.52,7.90,5.53,-5.53,-5.39,-3.95,2.37,2.38,2.38
22.76,7.93,5.57,7.93,5.56,-5.56,-5.44,-4.07,2.37,2.37,2.37
22.99,7.95,5.58,7.95,5.59,-5.59,-5.49,-4.18,2.36,2.36,2.37
23.22,7.98,5.62,7.98,5.62,-5.63,-5.54,-4.30,2.35,2.36,2.36
23.45,8.01,5.66,8.01,5.65,-5.66,-5.58,-4.42,2.35,2.35,2.36
23.69,8.04,5.68,8.04,5.69,-5.69,-5.63,-4.55,2.35,2.36,2.36
23.92,8.07,5.73,8.07,5.72,-5.72,-5.68,-4.67,2.35,2.35,2.35
24.16,8.10,5.76,8.09,5.75,-5.75,-5.72,-4.80,2.35,2.35,2.35
24.40,8.11,5.77,8.12,5.77,-5.77,-5.76,-4.94,2.34,2.34,2.35
24.65,8.14,5.79,8.14,5.80,-5.80,-5.81,-5.07,2.34,2.34,2.35
24.89,8.17,5.84,8.17,5.83,-5.83,-5.85,-5.20,2.34,2.34,2.34
25.14,8.19,5.86,8.19,5.86,-5.86,-5.89,-5.34,2.34,2.34,2.34
25.39,8.22,5.89,8.22,5.88,-5.88,-5.93,-5.48,2.34,2.34,2.34
25.65,8.24,5.90,8.24,5.91,-5.91,-5.97,-5.62,2.33,2.33,2.34
25.91,8.27,5.93,8.27,5.93,-5.93,-6.01,-5.76,2.34,2.33,2.34
26.16,8.29,5.96,8.29,5.96,-5.96,-6.04,-5.90,2.33,2.33,2.34
26.43,8.32,5.98,8.32,5.99,-5.98,-6.08,-6.04,2.34,2.33,2.34
26.69,8.34,6.01,8.34,6.01,-6.01,-6.11,-6.18,2.33,2.33,2.33
26.96,8.36,6.03,8.36,6.04,-6.03,-6.14,-6.31,2.33,2.33,2.33
27.23,8.38,6.05,8.38,6.05,-6.06,-6.18,-6.45,2.32,2.32,2.33
27.50,8.40,6.07,8.40,6.08,-6.08,-6.21,-6.58,2.32,2.32,2.33
27.77,8.42,6.10,8.42,6.10,-6.10,-6.23,-6.71,2.32,2.32,2.33
28.05,8.44,6.12,8.44,6.12,-6.12,-6.26,-6.83,2.32,2.32,2.32
28.33,8.45,6.14,8.45,6.14,-6.14,-6.29,-6.95,2.31,2.32,2.32
28.62,8.47,6.15,8.47,6.16,-6.16,-6.31,-7.06,2.31,2.31,2.32
28.90,8.48,6.17,8.48,6.17,-6.17,-6.33,-7.16,2.31,2.31,2.31
29.19,8.49,6.18,8.49,6.19,-6.19,-6.35,-7.26,2.30,2.30,2.31
29.48,8.50,6.20,8.51,6.20,-6.20,-6.37,-7.34,2.30,2.30,2.31
29.78,8.52,6.22,8.52,6.22,-6.22,-6.39,-7.42,2.30,2.30,2.30
30.08,8.53,6.23,8.53,6.23,-6.23,-6.40,-7.48,2.30,2.30,2.30
30.38,8.53,6.23,8.53,6.24,-6.24,-6.42,-7.54,2.30,2.30,2.30
30.68,8.54,6.24,8.54,6.24,-6.24,-6.43,-7.58,2.30,2.30,2.30
30.99,8.54,6.24,8.54,6.25,-6.25,-6.44,-7.61,2.29,2.30,2.30
31.30,8.55,6.25,8.55,6.25,-6.25,-6.45,-7.63,2.30,2.30,2.30
31.61,8.55,6.24,8.55,6.25,-6.25,-6.46,-7.64,2.30,2.30,2.31
31.93,8.55,6.24,8.55,6.25,-6.25,-6.46,-7.63,2.30,2.30,2.31
32.24,8.56,6.25,8.56,6.25,-6.25,-6.46,-7.62,2.31,2.30,2.31
32.57,8.56,6.25,8.56,6.26,-6.25,-6.46,-7.59,2.31,2.31,2.31
32.89,8.56,6.25,8.56,6.26,-6.25,-6.46,-7.55,2.31,2.31,2.31
33.22,8.56,6.25,8.56,6.25,-6.25,-6.46,-7.50,2.31,2.31,2.31
33.55,8.55,6.24,8.56,6.25,-6.25,-6.46,-7.44,2.30,2.31,2.31
33.89,8.55,6.24,8.55,6.25,-6.24,-6.45,-7.38,2.31,2.30,2.31
34.23,8.54,6.24,8.54,6.24,-6.24,-6.44,-7.30,2.30,2.30,2.30
34.57,8.52,6.22,8.52,6.23,-6.22,-6.43,-7.23,2.30,2.30,2.30
34.92,8.50,6.22,8.50,6.22,-6.21,-6.42,-7.14,2.29,2.29,2.29
35.27,8.48,6.21,8.48,6.20,-6.20,-6.40,-7.05,2.29,2.28,2.28
35.62,8.45,6.19,8.45,6.18,-6.18,-6.39,-6.95,2.27,2.27,2.27
35.97,8.42,6.15,8.42,6.16,-6.16,-6.37,-6.86,2.26,2.26,2.27
36.33,8.39,6.13,8.39,6.14,-6.15,-6.35,-6.76,2.24,2.24,2.26
36.70,8.37,6.13,8.37,6.13,-6.14,-6.33,-6.66,2.23,2.23,2.24
37.06,8.35,6.12,8.35,6.12,-6.12,-6.31,-6.56,2.23,2.23,2.23
37.43,8.33,6.11,8.33,6.12,-6.12,-6.29,-6.45,2.21,2.22,2.22
37.81,8.32,6.11,8.32,6.11,-6.11,-6.26,-6.35,2.21,2.21,2.21
38.19,8.30,6.11,8.30,6.10,-6.11,-6.23,-6.25,2.20,2.20,2.20
38.57,8.29,6.09,8.29,6.10,-6.10,-6.20,-6.15,2.19,2.19,2.20
38.95,8.28,6.09,8.28,6.09,-6.10,-6.17,-6.06,2.18,2.18,2.19
39.34,8.27,6.09,8.27,6.09,-6.09,-6.14,-5.96,2.18,2.18,2.18
39.74,8.26,6.08,8.26,6.09,-6.08,-6.11,-5.87,2.18,2.18,2.18
40.14,8.25,6.08,8.25,6.08,-6.07,-6.07,-5.78,2.18,2.17,2.17
40.54,8.22,6.06,8.23,6.06,-6.06,-6.04,-5.70,2.16,2.17,2.17
40.94,8.22,6.05,8.22,6.05,-6.05,-6.00,-5.61,2.17,2.16,2.17
41.35,8.20,6.03,8.20,6.04,-6.04,-5.96,-5.53,2.16,2.16,2.17
41.76,8.19,6.02,8.19,6.02,-6.02,-5.92,-5.46,2.17,2.17,2.17
42.18,8.17,6.00,8.17,6.00,-6.00,-5.88,-5.39,2.17,2.16,2.17
42.60,8.14,5.97,8.15,5.98,-5.98,-5.84,-5.32,2.16,2.16,2.17
43.03,8.12,5.95,8.12,5.96,-5.96,-5.80,-5.25,2.16,2.17,2.17
43.46,8.10,5.93,8.10,5.93,-5.93,-5.75,-5.19,2.17,2.17,2.17
43.90,8.07,5.91,8.07,5.90,-5.89,-5.71,-5.14,2.18,2.18,2.17
44.33,8.03,5.85,8.03,5.86,-5.85,-5.66,-5.08,2.18,2.18,2.18
44.78,7.98,5.81,7.99,5.81,-5.81,-5.62,-5.03,2.17,2.18,2.18
45.23,7.94,5.77,7.94,5.76,-5.77,-5.57,-4.99,2.18,2.18,2.18
45.68,7.90,5.72,7.90,5.71,-5.72,-5.52,-4.95,2.18,2.18,2.19
46.13,7.85,5.66,7.85,5.67,-5.67,-5.47,-4.91,2.18,2.18,2.19
46.60,7.80,5.62,7.80,5.62,-5.62,-5.42,-4.88,2.19,2.19,2.19
47.06,7.75,5.56,7.75,5.56,-5.56,-5.37,-4.85,2.19,2.19,2.19
47.53,7.70,5.51,7.70,5.51,-5.51,-5.32,-4.82,2.19,2.19,2.19
48.01,7.64,5.46,7.64,5.46,-5.46,-5.27,-4.80,2.18,2.18,2.19
48.49,7.58,5.41,7.58,5.40,-5.40,-5.22,-4.78,2.18,2.18,2.18
48.97,7.53,5.35,7.53,5.35,-5.35,-5.17,-4.76,2.18,2.18,2.18
49.46,7.47,5.29,7.47,5.30,-5.30,-5.11,-4.75,2.17,2.17,2.18
49.96,7.41,5.25,7.41,5.24,-5.24,-5.06,-4.74,2.17,2.17,2.17
50.46,7.35,5.19,7.35,5.19,-5.19,-5.01,-4.73,2.16,2.16,2.17
50.96,7.29,5.13,7.29,5.14,-5.14,-4.95,-4.72,2.15,2.15,2.16
51.47,7.24,5.08,7.24,5.09,-5.09,-4.90,-4.72,2.15,2.15,2.16
51.99,7.18,5.04,7.18,5.03,-5.03,-4.84,-4.71,2.15,2.15,2.15
52.51,7.13,4.99,7.13,4.98,-4.98,-4.79,-4.71,2.15,2.15,2.15
53.03,7.07,4.92,7.07,4.93,-4.93,-4.73,-4.71,2.14,2.15,2.15
53.56,7.01,4.87,7.01,4.87,-4.87,-4.68,-4.71,2.14,2.14,2.14
54.10,6.96,4.83,6.95,4.82,-4.81,-4.62,-4.71,2.15,2.14,2.14
54.64,6.89,4.76,6.90,4.76,-4.75,-4.57,-4.71,2.14,2.14,2.14
55.18,6.84,4.70,6.84,4.70,-4.70,-4.51,-4.71,2.14,2.14,2.14
55.74,6.78,4.64,6.78,4.64,-4.64,-4.46,-4.71,2.14,2.13,2.15
56.29,6.72,4.57,6.72,4.58,-4.59,-4.40,-4.71,2.13,2.13,2.15
56.86,6.67,4.53,6.67,4.53,-4.54,-4.35,-4.71,2.13,2.13,2.15
57.42,6.63,4.48,6.63,4.49,-4.49,-4.29,-4.70,2.14,2.14,2.15
58.00,6.60,4.46,6.60,4.45,-4.45,-4.24,-4.70,2.15,2.15,2.15
58.58,6.56,4.42,6.56,4.41,-4.40,-4.18,-4.69,2.16,2.15,2.15
59.16,6.51,4.36,6.51,4.37,-4.36,-4.12,-4.67,2.15,2.15,2.15
59.76,6.46,4.32,6.46,4.32,-4.31,-4.07,-4.66,2.15,2.15,2.15
60.35,6.41,4.26,6.41,4.27,-4.26,-4.01,-4.64,2.15,2.15,2.15
60.96,6.36,4.23,6.35,4.21,-4.21,-3.96,-4.61,2.15,2.15,2.14
61.57,6.29,4.16,6.29,4.16,-4.15,-3.90,-4.58,2.14,2.14,2.14
62.18,6.22,4.08,6.22,4.09,-4.10,-3.85,-4.55,2.12,2.13,2.14
62.80,6.16,4.03,6.16,4.03,-4.04,-3.80,-4.51,2.12,2.12,2.13
63.43,6.10,3.97,6.10,3.98,-3.99,-3.74,-4.47,2.11,2.12,2.13
64.07,6.05,3.94,6.05,3.93,-3.94,-3.69,-4.43,2.11,2.12,2.12
64.71,6.01,3.90,6.00,3.89,-3.89,-3.63,-4.38,2.12,2.12,2.12
65.35,5.95,3.83,5.96,3.84,-3.84,-3.58,-4.33,2.11,2.12,2.12
66.01,5.91,3.80,5.91,3.79,-3.79,-3.53,-4.27,2.12,2.12,2.12
66.67,5.86,3.75,5.86,3.74,-3.74,-3.47,-4.21,2.12,2.12,2.12
67.33,5.81,3.69,5.81,3.70,-3.70,-3.42,-4.14,2.11,2.12,2.12
68.01,5.76,3.65,5.76,3.65,-3.65,-3.37,-4.08,2.11,2.12,2.12
68.69,5.72,3.61,5.71,3.60,-3.60,-3.32,-4.01,2.12,2.12,2.12
69.37,5.66,3.54,5.66,3.55,-3.55,-3.27,-3.93,2.11,2.11,2.12
70.07,5.61,3.50,5.61,3.50,-3.50,-3.21,-3.86,2.11,2.11,2.12
70.77,5.56,3.44,5.56,3.45,-3.45,-3.16,-3.78,2.11,2.11,2.12
71.48,5.51,3.41,5.51,3.40,-3.39,-3.11,-3.70,2.12,2.11,2.11
72.19,5.45,3.34,5.45,3.35,-3.34,-3.06,-3.62,2.11,2.11,2.11
72.91,5.40,3.29,5.40,3.29,-3.29,-3.01,-3.54,2.11,2.11,2.11
73.64,5.34,3.23,5.34,3.23,-3.23,-2.96,-3.45,2.11,2.11,2.11
74.38,5.28,3.17,5.28,3.17,-3.18,-2.91,-3.37,2.10,2.11,2.12
75.12,5.23,3.11,5.23,3.11,-3.12,-2.86,-3.29,2.11,2.11,2.12
75.87,5.18,3.06,5.18,3.06,-3.07,-2.81,-3.20,2.11,2.11,2.12
76.63,5.13,3.01,5.13,3.02,-3.02,-2.76,-3.12,2.11,2.11,2.12
77.40,5.09,2.97,5.09,2.97,-2.97,-2.71,-3.04,2.12,2.12,2.12
78.17,5.04,2.92,5.04,2.93,-2.92,-2.67,-2.96,2.12,2.12,2.12
78.95,4.99,2.87,4.99,2.88,-2.87,-2.62,-2.88,2.12,2.12,2.12
79.74,4.94,2.82,4.94,2.82,-2.82,-2.57,-2.79,2.12,2.12,2.12
80.54,4.88,2.76,4.89,2.77,-2.77,-2.52,-2.72,2.11,2.12,2.12
81.35,4.84,2.72,4.84,2.71,-2.72,-2.48,-2.64,2.12,2.12,2.13
82.16,4.79,2.66,4.79,2.66,-2.67,-2.43,-2.56,2.12,2.12,2.13
82.98,4.73,2.60,4.74,2.61,-2.61,-2.38,-2.48,2.12,2.13,2.13
83.81,4.69,2.55,4.69,2.56,-2.56,-2.34,-2.41,2.13,2.13,2.14
84.65,4.64,2.50,4.64,2.50,-2.50,-2.29,-2.34,2.14,2.14,2.14
85.50,4.58,2.45,4.59,2.45,-2.44,-2.24,-2.26,2.14,2.15,2.14
86.35,4.53,2.38,4.53,2.39,-2.38,-2.20,-2.19,2.15,2.15,2.15
87.22,4.46,2.32,4.46,2.31,-2.31,-2.15,-2.12,2.15,2.15,2.15
88.09,4.39,2.25,4.39,2.24,-2.24,-2.11,-2.06,2.15,2.15,2.15
88.97,4.31,2.16,4.31,2.16,-2.16,-2.06,-1.99,2.15,2.15,2.16
89.86,4.24,2.09,4.24,2.08,-2.08,-2.02,-1.93,2.16,2.16,2.16
90.76,4.16,2.00,4.16,2.00,-2.00,-1.97,-1.86,2.16,2.16,2.17
91.66,4.09,1.92,4.09,1.92,-1.92,-1.93,-1.80,2.17,2.17,2.17
92.58,4.01,1.84,4.01,1.84,-1.84,-1.89,-1.74,2.17,2.17,2.17
93.51,3.94,1.77,3.94,1.77,-1.76,-1.84,-1.68,2.18,2.17,2.18
94.44,3.86,1.68,3.86,1.69,-1.69,-1.80,-1.62,2.17,2.18,2.18
95.39,3.79,1.62,3.79,1.61,-1.61,-1.75,-1.57,2.18,2.18,2.18
96.34,3.72,1.54,3.72,1.54,-1.54,-1.71,-1.51,2.18,2.18,2.18
97.30,3.64,1.46,3.64,1.47,-1.47,-1.67,-1.46,2.17,2.17,2.18
98.28,3.58,1.41,3.58,1.40,-1.41,-1.62,-1.41,2.17,2.17,2.18
99.26,3.51,1.34,3.52,1.35,-1.36,-1.58,-1.36,2.15,2.16,2.17
100.25,3.47,1.30,3.47,1.30,-1.31,-1.53,-1.31,2.16,2.16,2.17
101.25,3.42,1.25,3.42,1.26,-1.26,-1.49,-1.26,2.16,2.16,2.17
102.27,3.38,1.23,3.38,1.22,-1.22,-1.45,-1.21,2.16,2.16,2.16
103.29,3.34,1.18,3.34,1.19,-1.19,-1.40,-1.17,2.15,2.16,2.16
104.32,3.31,1.16,3.31,1.16,-1.15,-1.36,-1.12,2.16,2.16,2.15
105.37,3.27,1.13,3.27,1.13,-1.12,-1.31,-1.08,2.15,2.15,2.15
106.42,3.24,1.09,3.24,1.09,-1.09,-1.27,-1.04,2.15,2.15,2.15
107.48,3.20,1.05,3.20,1.06,-1.06,-1.23,-1.00,2.14,2.14,2.15
108.56,3.17,1.03,3.17,1.03,-1.03,-1.18,-0.96,2.14,2.14,2.14
109.64,3.14,1.00,3.14,1.00,-1.00,-1.14,-0.92,2.14,2.13,2.14
110.74,3.10,0.96,3.11,0.97,-0.98,-1.09,-0.89,2.12,2.13,2.14
111.85,3.08,0.95,3.08,0.95,-0.95,-1.05,-0.85,2.13,2.13,2.13
112.97,3.05,0.93,3.05,0.92,-0.92,-1.01,-0.82,2.13,2.13,2.13
114.10,3.02,0.91,3.02,0.90,-0.90,-0.96,-0.79,2.12,2.12,2.12
115.24,2.98,0.87,2.98,0.87,-0.87,-0.92,-0.76,2.11,2.11,2.12
116.39,2.95,0.85,2.95,0.85,-0.85,-0.88,-0.73,2.10,2.10,2.10
117.55,2.91,0.82,2.91,0.83,-0.83,-0.84,-0.70,2.08,2.09,2.09
118.73,2.88,0.80,2.88,0.81,-0.81,-0.80,-0.68,2.07,2.07,2.08
119.92,2.84,0.79,2.84,0.78,-0.79,-0.76,-0.65,2.05,2.05,2.06
121.12,2.80,0.77,2.81,0.77,-0.77,-0.73,-0.63,2.03,2.04,2.04
122.33,2.77,0.75,2.77,0.75,-0.75,-0.70,-0.61,2.02,2.02,2.02
123.55,2.73,0.73,2.73,0.73,-0.74,-0.66,-0.59,1.99,1.99,2.00
124.79,2.69,0.72,2.69,0.72,-0.72,-0.63,-0.57,1.97,1.97,1.98
126.03,2.65,0.70,2.65,0.70,-0.71,-0.61,-0.55,1.95,1.95,1.95
127.29,2.62,0.69,2.62,0.69,-0.69,-0.58,-0.54,1.93,1.93,1.93
128.57,2.58,0.68,2.58,0.68,-0.67,-0.56,-0.53,1.91,1.91,1.91
129.85,2.54,0.65,2.54,0.65,-0.65,-0.54,-0.52,1.89,1.89,1.89
131.15,2.50,0.62,2.50,0.62,-0.62,-0.52,-0.51,1.88,1.88,1.88
132.46,2.46,0.59,2.46,0.60,-0.60,-0.51,-0.50,1.86,1.87,1.87
133.79,2.43,0.57,2.43,0.57,-0.57,-0.49,-0.49,1.86,1.85,1.86
135.12,2.40,0.55,2.40,0.55,-0.55,-0.48,-0.48,1.85,1.85,1.85
136.48,2.36,0.52,2.37,0.52,-0.53,-0.47,-0.48,1.83,1.84,1.85
137.84,2.34,0.50,2.34,0.50,-0.51,-0.47,-0.48,1.83,1.83,1.84
139.22,2.32,0.48,2.32,0.48,-0.49,-0.46,-0.47,1.83,1.83,1.84
140.61,2.30,0.46,2.31,0.47,-0.48,-0.45,-0.47,1.83,1.83,1.84
142.02,2.30,0.46,2.30,0.46,-0.46,-0.45,-0.47,1.84,1.84,1.84
143.44,2.29,0.45,2.29,0.45,-0.44,-0.45,-0.47,1.85,1.85,1.84
144.87,2.27,0.43,2.27,0.44,-0.42,-0.44,-0.47,1.85,1.85,1.84
146.32,2.25,0.41,2.25,0.41,-0.40,-0.44,-0.48,1.85,1.85,1.84
147.78,2.22,0.37,2.22,0.38,-0.38,-0.44,-0.48,1.84,1.84,1.85
149.26,2.20,0.35,2.20,0.36,-0.37,-0.44,-0.48,1.83,1.83,1.85
150.75,2.18,0.33,2.18,0.34,-0.35,-0.43,-0.49,1.83,1.83,1.85
152.26,2.18,0.33,2.18,0.33,-0.34,-0.43,-0.49,1.84,1.84,1.85
153.78,2.17,0.32,2.17,0.32,-0.33,-0.43,-0.50,1.84,1.84,1.85
155.32,2.17,0.32,2.17,0.32,-0.32,-0.43,-0.50,1.85,1.85,1.85
156.88,2.16,0.31,2.17,0.32,-0.32,-0.43,-0.51,1.84,1.85,1.85
158.44,2.17,0.32,2.17,0.32,-0.32,-0.43,-0.52,1.85,1.85,1.85
160.03,2.17,0.32,2.17,0.32,-0.32,-0.43,-0.53,1.85,1.85,1.85
161.63,2.16,0.31,2.17,0.32,-0.32,-0.43,-0.54,1.84,1.85,1.85
163.24,2.16,0.31,2.16,0.32,-0.32,-0.43,-0.55,1.84,1.85,1.85
164.88,2.17,0.32,2.17,0.32,-0.32,-0.43,-0.55,1.86,1.85,1.85
166.53,2.17,0.31,2.17,0.32,-0.31,-0.43,-0.56,1.86,1.85,1.86
168.19,2.17,0.31,2.17,0.32,-0.31,-0.43,-0.57,1.86,1.86,1.86
169.87,2.17,0.31,2.17,0.31,-0.32,-0.43,-0.59,1.85,1.86,1.86
171.57,2.18,0.31,2.18,0.32,-0.32,-0.43,-0.60,1.86,1.86,1.87
173.29,2.19,0.32,2.19,0.32,-0.33,-0.43,-0.61,1.86,1.86,1.87
175.02,2.20,0.33,2.20,0.33,-0.34,-0.43,-0.62,1.86,1.87,1.87
176.77,2.22,0.34,2.22,0.35,-0.35,-0.43,-0.63,1.87,1.87,1.88
178.54,2.24,0.36,2.24,0.36,-0.36,-0.44,-0.64,1.88,1.88,1.88
180.32,2.27,0.38,2.26,0.38,-0.38,-0.44,-0.66,1.89,1.88,1.89
182.13,2.28,0.39,2.29,0.40,-0.40,-0.45,-0.67,1.88,1.89,1.89
183.95,2.31,0.42,2.31,0.42,-0.42,-0.45,-0.68,1.89,1.89,1.89
185.79,2.34,0.44,2.34,0.44,-0.44,-0.46,-0.70,1.90,1.89,1.90
187.65,2.36,0.46,2.36,0.47,-0.46,-0.46,-0.71,1.90,1.90,1.90
189.52,2.38,0.48,2.38,0.48,-0.48,-0.47,-0.73,1.90,1.90,1.90
191.42,2.40,0.49,2.40,0.50,-0.50,-0.48,-0.74,1.91,1.90,1.91
193.33,2.42,0.51,2.42,0.51,-0.51,-0.49,-0.76,1.91,1.91,1.91
195.27,2.43,0.52,2.44,0.53,-0.53,-0.50,-0.78,1.90,1.91,1.91
197.22,2.46,0.55,2.45,0.54,-0.55,-0.52,-0.79,1.92,1.91,1.91
199.19,2.47,0.55,2.47,0.56,-0.56,-0.53,-0.81,1.91,1.91,1.92
201.18,2.49,0.57,2.50,0.58,-0.58,-0.55,-0.82,1.91,1.91,1.92
203.19,2.52,0.60,2.52,0.60,-0.61,-0.56,-0.84,1.91,1.91,1.92
205.23,2.55,0.63,2.55,0.63,-0.63,-0.58,-0.86,1.92,1.92,1.92
207.28,2.58,0.66,2.58,0.66,-0.66,-0.60,-0.88,1.92,1.92,1.92
209.35,2.60,0.68,2.61,0.69,-0.69,-0.63,-0.89,1.91,1.92,1.92
211.44,2.64,0.73,2.64,0.72,-0.72,-0.65,-0.91,1.92,1.92,1.92
213.56,2.67,0.75,2.67,0.75,-0.75,-0.68,-0.93,1.92,1.92,1.92
215.69,2.70,0.79,2.71,0.79,-0.79,-0.71,-0.95,1.91,1.92,1.92
217.85,2.74,0.82,2.74,0.82,-0.82,-0.74,-0.97,1.92,1.92,1.92
220.03,2.77,0.85,2.77,0.85,-0.85,-0.78,-0.99,1.92,1.92,1.92
222.23,2.80,0.88,2.80,0.89,-0.89,-0.81,-1.01,1.91,1.92,1.92
224.45,2.84,0.92,2.84,0.92,-0.92,-0.85,-1.02,1.92,1.91,1.92
226.70,2.87,0.95,2.88,0.96,-0.96,-0.90,-1.04,1.91,1.92,1.92
228.96,2.91,1.00,2.91,0.99,-1.00,-0.94,-1.06,1.92,1.91,1.92
231.25,2.95,1.03,2.94,1.03,-1.03,-0.99,-1.08,1.92,1.91,1.92
233.57,2.97,1.06,2.98,1.07,-1.07,-1.03,-1.10,1.90,1.91,1.91
235.90,3.01,1.10,3.01,1.10,-1.10,-1.08,-1.12,1.91,1.90,1.91
238.26,3.04,1.13,3.04,1.14,-1.14,-1.13,-1.14,1.90,1.90,1.91
240.64,3.07,1.17,3.08,1.18,-1.17,-1.18,-1.16,1.90,1.90,1.90
243.05,3.11,1.21,3.10,1.21,-1.20,-1.23,-1.17,1.91,1.90,1.90
245.48,3.13,1.23,3.13,1.24,-1.23,-1.27,-1.19,1.90,1.90,1.90
247.93,3.15,1.26,3.16,1.26,-1.26,-1.32,-1.21,1.89,1.90,1.90
250.41,3.18,1.28,3.18,1.28,-1.28,-1.35,-1.23,1.90,1.89,1.90
252.92,3.20,1.31,3.20,1.31,-1.31,-1.39,-1.25,1.89,1.89,1.89
255.45,3.21,1.32,3.21,1.33,-1.33,-1.41,-1.26,1.88,1.89,1.89
258.00,3.23,1.34,3.23,1.35,-1.35,-1.44,-1.28,1.88,1.88,1.89
260.58,3.25,1.37,3.25,1.37,-1.37,-1.45,-1.30,1.88,1.88,1.88
263.19,3.27,1.39,3.27,1.39,-1.39,-1.47,-1.32,1.88,1.87,1.88
265.82,3.28,1.41,3.28,1.42,-1.42,-1.48,-1.34,1.86,1.87,1.87
268.48,3.30,1.43,3.30,1.44,-1.44,-1.48,-1.35,1.86,1.86,1.87
271.16,3.33,1.47,3.33,1.47,-1.47,-1.49,-1.37,1.86,1.86,1.86
273.87,3.35,1.50,3.35,1.50,-1.50,-1.49,-1.39,1.85,1.85,1.86
276.61,3.38,1.53,3.38,1.53,-1.53,-1.50,-1.41,1.85,1.85,1.85
279.38,3.40,1.55,3.40,1.56,-1.56,-1.51,-1.43,1.84,1.84,1.85
282.17,3.43,1.59,3.43,1.59,-1.59,-1.51,-1.45,1.84,1.83,1.84
284.99,3.45,1.62,3.45,1.62,-1.62,-1.53,-1.47,1.83,1.83,1.83
287.84,3.47,1.66,3.48,1.66,-1.66,-1.54,-1.49,1.82,1.82,1.82
290.72,3.50,1.69,3.50,1.69,-1.69,-1.56,-1.51,1.82,1.81,1.81
293.63,3.52,1.71,3.52,1.72,-1.71,-1.58,-1.54,1.81,1.81,1.81
296.57,3.54,1.74,3.54,1.74,-1.74,-1.60,-1.56,1.80,1.80,1.80
299.53,3.56,1.77,3.56,1.77,-1.77,-1.63,-1.59,1.79,1.79,1.79
302.53,3.58,1.79,3.58,1.80,-1.80,-1.66,-1.61,1.78,1.78,1.79
305.55,3.61,1.83,3.61,1.83,-1.83,-1.69,-1.64,1.78,1.77,1.78
308.61,3.63,1.85,3.64,1.86,-1.86,-1.72,-1.67,1.77,1.77,1.78
311.69,3.67,1.90,3.67,1.90,-1.89,-1.76,-1.70,1.78,1.78,1.78
314.81,3.70,1.93,3.70,1.93,-1.92,-1.80,-1.73,1.78,1.77,1.77
317.96,3.72,1.95,3.72,1.96,-1.95,-1.85,-1.76,1.77,1.77,1.77
321.14,3.75,1.98,3.75,1.99,-1.99,-1.89,-1.79,1.76,1.76,1.77
324.35,3.77,2.01,3.77,2.01,-2.02,-1.94,-1.83,1.75,1.75,1.76
327.59,3.80,2.04,3.80,2.05,-2.05,-1.99,-1.87,1.75,1.75,1.76
330.87,3.83,2.08,3.83,2.08,-2.08,-2.04,-1.90,1.75,1.75,1.75
334.18,3.87,2.12,3.87,2.12,-2.12,-2.10,-1.95,1.75,1.75,1.75
337.52,3.90,2.15,3.90,2.16,-2.16,-2.16,-1.99,1.75,1.74,1.75
340.90,3.93,2.19,3.93,2.19,-2.19,-2.22,-2.03,1.74,1.74,1.74
344.30,3.96,2.23,3.96,2.23,-2.24,-2.28,-2.08,1.73,1.73,1.74
347.75,4.00,2.27,4.00,2.28,-2.28,-2.34,-2.12,1.72,1.72,1.73
351.23,4.05,2.33,4.04,2.32,-2.33,-2.40,-2.17,1.73,1.72,1.72
354.74,4.08,2.37,4.08,2.37,-2.37,-2.47,-2.22,1.71,1.71,1.71
358.28,4.12,2.42,4.13,2.42,-2.42,-2.53,-2.27,1.70,1.70,1.71
361.87,4.17,2.47,4.17,2.47,-2.48,-2.60,-2.33,1.69,1.69,1.70
365.49,4.22,2.53,4.22,2.53,-2.53,-2.66,-2.38,1.69,1.69,1.69
369.14,4.26,2.58,4.26,2.59,-2.59,-2.73,-2.44,1.68,1.68,1.68
372.83,4.31,2.64,4.31,2.64,-2.64,-2.80,-2.50,1.67,1.67,1.67
376.56,4.35,2.69,4.35,2.70,-2.70,-2.87,-2.56,1.65,1.66,1.66
380.33,4.40,2.75,4.40,2.76,-2.76,-2.93,-2.62,1.65,1.65,1.65
384.13,4.45,2.81,4.45,2.81,-2.81,-3.00,-2.69,1.64,1.64,1.64
387.97,4.50,2.87,4.50,2.87,-2.87,-3.07,-2.75,1.63,1.62,1.63
391.85,4.54,2.92,4.54,2.93,-2.93,-3.13,-2.82,1.61,1.61,1.62
395.77,4.59,2.98,4.59,2.99,-2.99,-3.19,-2.88,1.60,1.60,1.61
399.73,4.65,3.05,4.65,3.05,-3.05,-3.26,-2.95,1.60,1.60,1.60
403.72,4.70,3.11,4.70,3.11,-3.11,-3.31,-3.02,1.59,1.59,1.60
407.76,4.75,3.16,4.75,3.16,-3.16,-3.37,-3.09,1.59,1.59,1.59
411.84,4.79,3.21,4.79,3.22,-3.22,-3.43,-3.15,1.57,1.58,1.58
415.96,4.84,3.27,4.83,3.27,-3.27,-3.48,-3.22,1.57,1.57,1.57
420.12,4.87,3.31,4.87,3.32,-3.32,-3.53,-3.29,1.55,1.56,1.56
424.32,4.91,3.36,4.91,3.37,-3.37,-3.57,-3.35,1.54,1.55,1.55
428.56,4.95,3.41,4.95,3.41,-3.41,-3.61,-3.42,1.54,1.54,1.54
432.85,4.98,3.45,4.98,3.45,-3.45,-3.65,-3.48,1.53,1.53,1.53
437.18,5.00,3.48,5.01,3.49,-3.49,-3.68,-3.54,1.51,1.52,1.52
441.55,5.03,3.52,5.03,3.53,-3.53,-3.71,-3.60,1.50,1.50,1.51
445.96,5.05,3.56,5.05,3.56,-3.56,-3.73,-3.65,1.49,1.49,1.49
450.42,5.06,3.58,5.06,3.59,-3.59,-3.75,-3.70,1.47,1.48,1.48
454.93,5.07,3.60,5.07,3.61,-3.61,-3.76,-3.74,1.46,1.46,1.47
459.48,5.08,3.63,5.08,3.63,-3.63,-3.76,-3.78,1.45,1.45,1.45
464.07,5.08,3.64,5.08,3.65,-3.64,-3.76,-3.82,1.44,1.44,1.44
468.71,5.08,3.65,5.08,3.65,-3.65,-3.76,-3.85,1.43,1.43,1.43
473.40,5.07,3.65,5.07,3.66,-3.66,-3.75,-3.87,1.41,1.41,1.42
478.13,5.05,3.65,5.06,3.66,-3.66,-3.73,-3.89,1.40,1.40,1.40
482.91,5.04,3.65,5.03,3.65,-3.65,-3.71,-3.89,1.39,1.39,1.39
487.74,5.01,3.63,5.01,3.64,-3.64,-3.68,-3.90,1.37,1.37,1.38
492.62,4.98,3.61,4.99,3.62,-3.62,-3.64,-3.89,1.36,1.37,1.37
497.55,4.96,3.60,4.95,3.60,-3.60,-3.60,-3.88,1.36,1.35,1.36
502.52,4.92,3.57,4.92,3.58,-3.58,-3.56,-3.85,1.35,1.34,1.35
507.55,4.87,3.54,4.88,3.55,-3.55,-3.51,-3.82,1.32,1.33,1.33
512.62,4.83,3.51,4.83,3.51,-3.51,-3.46,-3.78,1.32,1.31,1.32
517.75,4.78,3.47,4.78,3.47,-3.48,-3.40,-3.74,1.30,1.30,1.31
522.93,4.72,3.42,4.73,3.43,-3.44,-3.34,-3.68,1.29,1.29,1.30
528.16,4.68,3.39,4.68,3.39,-3.39,-3.28,-3.62,1.29,1.29,1.29
533.44,4.62,3.34,4.62,3.34,-3.34,-3.21,-3.56,1.28,1.28,1.28
538.77,4.55,3.28,4.55,3.29,-3.28,-3.15,-3.48,1.27,1.27,1.27
544.16,4.48,3.22,4.48,3.22,-3.22,-3.08,-3.40,1.26,1.26,1.26
