frequency,raw,error,smoothed,error_smoothed,equalization,parametric_eq,fixed_band_eq,equalized_raw,equalized_smoothed,target
20.00,-15.57,-16.46,-15.57,-16.46,6.00,5.59,2.66,-9.57,-9.57,0.89
20.20,-15.45,-16.34,-15.45,-16.34,6.00,5.61,2.73,-9.45,-9.45,0.89
20.40,-15.32,-16.22,-15.32,-16.22,6.00,5.63,2.81,-9.32,-9.32,0.90
20.61,-15.20,-16.11,-15.20,-16.10,6.00,5.65,2.89,-9.20,-9.20,0.91
20.81,-15.07,-15.98,-15.07,-15.98,6.00,5.67,2.98,-9.07,-9.07,0.91
21.02,-14.95,-15.87,-14.95,-15.86,6.00,5.69,3.06,-8.95,-8.95,0.92
21.23,-14.83,-15.75,-14.82,-15.75,6.00,5.71,3.15,-8.83,-8.82,0.92
21.44,-14.70,-15.63,-14.70,-15.63,6.00,5.73,3.24,-8.70,-8.70,0.93
21.66,-14.58,-15.52,-14.58,-15.51,6.00,5.75,3.33,-8.58,-8.58,0.94
21.87,-14.46,-15.39,-14.46,-15.40,6.00,5.77,3.43,-8.46,-8.46,0.94
22.09,-14.34,-15.28,-14.34,-15.28,6.00,5.79,3.52,-8.34,-8.34,0.95
22.31,-14.22,-15.17,-14.21,-15.17,6.00,5.80,3.63,-8.22,-8.21,0.96
22.54,-14.09,-15.05,-14.09,-15.05,6.00,5.82,3.73,-8.09,-8.09,0.96
22.76,-13.97,-14.93,-13.97,-14.94,6.00,5.84,3.83,-7.97,-7.97,0.97
22.99,-13.85,-14.82,-13.85,-14.82,6.00,5.86,3.94,-7.85,-7.85,0.98
23.22,-13.72,-14.70,-13.72,-14.71,6.00,5.87,4.05,-7.72,-7.72,0.98
23.45,-13.60,-14.59,-13.60,-14.59,6.00,5.89,4.17,-7.60,-7.60,0.99
23.69,-13.48,-14.49,-13.48,-14.48,6.00,5.90,4.28,-7.48,-7.48,1.00
23.92,-13.36,-14.37,-13.36,-14.37,6.00,5.92,4.40,-7.36,-7.36,1.01
24.16,-13.24,-14.26,-13.24,-14.26,6.00,5.94,4.52,-7.24,-7.24,1.02
24.40,-13.12,-14.15,-13.12,-14.15,6.00,5.95,4.64,-7.12,-7.12,1.03
24.65,-13.00,-14.05,-13.00,-14.05,6.00,5.96,4.77,-7.00,-7.00,1.05
24.89,-12.88,-13.94,-12.88,-13.94,6.00,5.98,4.89,-6.88,-6.88,1.06
25.14,-12.76,-13.83,-12.76,-13.83,6.00,5.99,5.02,-6.76,-6.76,1.07
25.39,-12.65,-13.73,-12.64,-13.73,6.00,6.01,5.15,-6.65,-6.64,1.08
25.65,-12.53,-13.62,-12.53,-13.62,6.00,6.02,5.28,-6.53,-6.53,1.09
25.91,-12.41,-13.52,-12.41,-13.52,6.00,6.03,5.41,-6.41,-6.41,1.11
26.16,-12.30,-13.42,-12.30,-13.41,6.00,6.04,5.54,-6.30,-6.30,1.12
26.43,-12.18,-13.31,-12.18,-13.31,6.00,6.06,5.67,-6.18,-6.18,1.13
26.69,-12.07,-13.21,-12.07,-13.21,6.00,6.07,5.80,-6.07,-6.07,1.14
26.96,-11.96,-13.12,-11.96,-13.11,6.00,6.08,5.92,-5.96,-5.96,1.16
27.23,-11.85,-13.02,-11.85,-13.02,6.00,6.09,6.05,-5.85,-5.85,1.17
27.50,-11.73,-12.92,-11.73,-12.92,6.00,6.10,6.17,-5.73,-5.73,1.19
27.77,-11.62,-12.81,-11.62,-12.82,6.00,6.11,6.29,-5.62,-5.62,1.20
28.05,-11.51,-12.72,-11.51,-12.72,6.00,6.12,6.40,-5.51,-5.51,1.21
28.33,-11.40,-12.62,-11.40,-12.63,6.00,6.13,6.51,-5.40,-5.40,1.22
28.62,-11.29,-12.53,-11.29,-12.53,6.00,6.14,6.61,-5.29,-5.29,1.24
28.90,-11.19,-12.44,-11.19,-12.44,6.00,6.15,6.71,-5.19,-5.19,1.25
29.19,-11.08,-12.35,-11.08,-12.35,6.00,6.16,6.80,-5.08,-5.08,1.27
29.48,-10.98,-12.26,-10.98,-12.26,6.00,6.17,6.89,-4.98,-4.98,1.28
29.78,-10.88,-12.18,-10.88,-12.18,6.00,6.18,6.96,-4.88,-4.88,1.30
30.08,-10.79,-12.10,-10.79,-12.10,6.00,6.18,7.03,-4.79,-4.79,1.31
30.38,-10.70,-12.03,-10.70,-12.03,6.00,6.19,7.08,-4.70,-4.70,1.33
30.68,-10.62,-11.96,-10.62,-11.95,6.00,6.20,7.13,-4.62,-4.62,1.34
30.99,-10.53,-11.88,-10.54,-11.89,6.00,6.20,7.17,-4.53,-4.54,1.35
31.30,-10.46,-11.82,-10.46,-11.82,6.00,6.21,7.20,-4.46,-4.46,1.36
31.61,-10.38,-11.76,-10.38,-11.76,6.00,6.22,7.22,-4.38,-4.38,1.38
31.93,-10.30,-11.69,-10.30,-11.70,6.00,6.22,7.22,-4.30,-4.30,1.39
32.24,-10.23,-11.64,-10.22,-11.63,6.00,6.23,7.22,-4.23,-4.22,1.41
32.57,-10.15,-11.57,-10.15,-11.57,6.00,6.23,7.21,-4.15,-4.15,1.42
32.89,-10.08,-11.52,-10.08,-11.52,6.00,6.24,7.20,-4.08,-4.08,1.44
33.22,-10.02,-11.46,-10.01,-11.46,6.00,6.24,7.17,-4.02,-4.01,1.45
33.55,-9.95,-11.41,-9.95,-11.41,6.00,6.24,7.13,-3.95,-3.95,1.46
33.89,-9.88,-11.35,-9.88,-11.35,6.00,6.25,7.09,-3.88,-3.88,1.47
34.23,-9.81,-11.30,-9.81,-11.30,6.00,6.25,7.05,-3.81,-3.81,1.49
34.57,-9.74,-11.24,-9.74,-11.24,6.00,6.25,6.99,-3.74,-3.74,1.50
34.92,-9.67,-11.18,-9.67,-11.18,6.00,6.25,6.94,-3.67,-3.67,1.51
35.27,-9.59,-11.11,-9.59,-11.12,6.00,6.26,6.88,-3.59,-3.59,1.52
35.62,-9.52,-11.05,-9.52,-11.05,6.00,6.26,6.81,-3.52,-3.52,1.53
35.97,-9.45,-10.99,-9.44,-10.99,6.00,6.26,6.75,-3.45,-3.44,1.54
36.33,-9.37,-10.92,-9.37,-10.92,6.00,6.26,6.68,-3.37,-3.37,1.55
36.70,-9.30,-10.86,-9.30,-10.86,6.00,6.26,6.61,-3.30,-3.30,1.56
37.06,-9.23,-10.79,-9.22,-10.79,6.00,6.26,6.55,-3.23,-3.22,1.56
37.43,-9.14,-10.71,-9.14,-10.71,6.00,6.26,6.48,-3.14,-3.14,1.57
37.81,-9.06,-10.64,-9.06,-10.64,6.00,6.26,6.41,-3.06,-3.06,1.58
38.19,-8.98,-10.57,-8.98,-10.56,6.00,6.26,6.34,-2.98,-2.98,1.59
38.57,-8.90,-10.49,-8.90,-10.49,6.00,6.25,6.28,-2.90,-2.90,1.59
38.95,-8.82,-10.42,-8.82,-10.42,6.00,6.25,6.22,-2.82,-2.82,1.60
39.34,-8.74,-10.35,-8.74,-10.34,6.00,6.25,6.16,-2.74,-2.74,1.61
39.74,-8.65,-10.26,-8.65,-10.26,6.00,6.25,6.10,-2.65,-2.65,1.61
40.14,-8.57,-10.18,-8.57,-10.18,6.00,6.24,6.05,-2.57,-2.57,1.61
40.54,-8.49,-10.11,-8.49,-10.10,6.00,6.24,6.00,-2.49,-2.49,1.62
40.94,-8.40,-10.02,-8.40,-10.03,6.00,6.24,5.95,-2.40,-2.40,1.62
41.35,-8.32,-9.95,-8.32,-9.95,6.00,6.23,5.91,-2.32,-2.32,1.63
41.76,-8.23,-9.87,-8.23,-9.87,6.00,6.23,5.87,-2.23,-2.23,1.64
42.18,-8.15,-9.79,-8.15,-9.79,6.00,6.22,5.84,-2.15,-2.15,1.64
42.60,-8.07,-9.72,-8.07,-9.72,6.00,6.22,5.81,-2.07,-2.07,1.65
43.03,-8.00,-9.65,-8.00,-9.65,6.00,6.21,5.78,-2.00,-2.00,1.65
43.46,-7.93,-9.59,-7.93,-9.59,6.00,6.20,5.76,-1.93,-1.93,1.66
43.90,-7.86,-9.53,-7.86,-9.53,6.00,6.20,5.74,-1.86,-1.86,1.67
44.33,-7.79,-9.47,-7.79,-9.47,6.00,6.19,5.73,-1.79,-1.79,1.68
44.78,-7.72,-9.41,-7.72,-9.40,6.00,6.18,5.72,-1.72,-1.72,1.69
45.23,-7.65,-9.34,-7.65,-9.34,6.00,6.17,5.72,-1.65,-1.65,1.69
45.68,-7.58,-9.29,-7.58,-9.29,6.00,6.17,5.72,-1.58,-1.58,1.71
46.13,-7.52,-9.23,-7.52,-9.23,6.00,6.16,5.72,-1.52,-1.52,1.71
46.60,-7.47,-9.19,-7.46,-9.19,6.00,6.15,5.73,-1.47,-1.46,1.72
47.06,-7.41,-9.14,-7.41,-9.14,6.00,6.14,5.74,-1.41,-1.41,1.73
47.53,-7.35,-9.09,-7.35,-9.09,6.00,6.13,5.76,-1.35,-1.35,1.74
48.01,-7.29,-9.04,-7.29,-9.04,6.00,6.12,5.78,-1.29,-1.29,1.75
48.49,-7.23,-8.99,-7.23,-8.99,6.00,6.11,5.80,-1.23,-1.23,1.76
48.97,-7.17,-8.93,-7.17,-8.93,6.00,6.09,5.83,-1.17,-1.17,1.76
49.46,-7.10,-8.87,-7.10,-8.87,6.00,6.08,5.86,-1.10,-1.10,1.78
49.96,-7.03,-8.81,-7.03,-8.81,6.00,6.07,5.89,-1.03,-1.03,1.78
50.46,-6.95,-8.73,-6.95,-8.74,6.00,6.06,5.93,-0.95,-0.95,1.78
50.96,-6.87,-8.66,-6.87,-8.66,6.00,6.04,5.97,-0.87,-0.87,1.79
51.47,-6.79,-8.58,-6.79,-8.58,6.00,6.03,6.01,-0.79,-0.79,1.79
51.99,-6.71,-8.51,-6.71,-8.50,6.00,6.02,6.05,-0.71,-0.71,1.80
52.51,-6.62,-8.42,-6.62,-8.42,6.00,6.00,6.09,-0.62,-0.62,1.80
53.03,-6.53,-8.33,-6.53,-8.33,6.00,5.99,6.14,-0.53,-0.53,1.80
53.56,-6.44,-8.25,-6.44,-8.25,6.00,5.97,6.18,-0.44,-0.44,1.81
54.10,-6.35,-8.16,-6.35,-8.16,6.00,5.95,6.23,-0.35,-0.35,1.81
54.64,-6.27,-8.08,-6.27,-8.07,6.00,5.94,6.27,-0.27,-0.27,1.81
55.18,-6.18,-7.98,-6.18,-7.98,6.00,5.92,6.31,-0.18,-0.18,1.80
55.74,-6.08,-7.88,-6.08,-7.88,6.00,5.90,6.35,-0.08,-0.08,1.80
56.29,-5.99,-7.79,-5.99,-7.78,6.00,5.88,6.39,0.01,0.01,1.80
56.86,-5.89,-7.68,-5.89,-7.68,6.00,5.86,6.42,0.11,0.11,1.79
57.42,-5.80,-7.58,-5.80,-7.58,6.00,5.85,6.45,0.20,0.20,1.78
58.00,-5.70,-7.47,-5.70,-7.47,6.00,5.83,6.48,0.30,0.30,1.77
58.58,-5.61,-7.38,-5.61,-7.38,6.00,5.81,6.50,0.39,0.39,1.77
59.16,-5.53,-7.28,-5.53,-7.28,6.00,5.78,6.51,0.47,0.47,1.75
59.76,-5.46,-7.20,-5.45,-7.20,6.00,5.76,6.52,0.54,0.55,1.74
60.35,-5.38,-7.11,-5.38,-7.11,6.00,5.74,6.53,0.62,0.62,1.73
60.96,-5.31,-7.02,-5.31,-7.02,6.00,5.72,6.52,0.69,0.69,1.71
61.57,-5.24,-6.94,-5.24,-6.94,6.00,5.69,6.51,0.76,0.76,1.70
62.18,-5.17,-6.85,-5.18,-6.86,6.00,5.67,6.49,0.83,0.82,1.68
62.80,-5.12,-6.79,-5.11,-6.78,6.00,5.65,6.47,0.88,0.89,1.67
63.43,-5.06,-6.71,-5.05,-6.70,6.00,5.62,6.43,0.94,0.95,1.65
64.07,-4.99,-6.61,-5.00,-6.62,6.00,5.60,6.39,1.01,1.00,1.62
64.71,-4.94,-6.54,-4.94,-6.54,6.00,5.57,6.34,1.06,1.06,1.61
65.35,-4.89,-6.48,-4.89,-6.47,6.01,5.54,6.29,1.12,1.12,1.59
66.01,-4.83,-6.40,-4.83,-6.40,6.01,5.52,6.22,1.18,1.18,1.57
66.67,-4.78,-6.33,-4.78,-6.33,6.02,5.49,6.16,1.24,1.24,1.55
67.33,-4.72,-6.25,-4.72,-6.24,6.02,5.46,6.08,1.30,1.30,1.53
68.01,-4.66,-6.16,-4.66,-6.16,6.00,5.43,6.00,1.34,1.34,1.50
68.69,-4.60,-6.08,-4.60,-6.08,5.98,5.40,5.92,1.38,1.37,1.48
69.37,-4.55,-6.01,-4.54,-6.00,5.94,5.37,5.83,1.39,1.40,1.46
70.07,-4.48,-5.92,-4.48,-5.92,5.89,5.34,5.74,1.41,1.41,1.44
70.77,-4.41,-5.82,-4.41,-5.82,5.82,5.31,5.64,1.41,1.41,1.41
71.48,-4.34,-5.73,-4.34,-5.73,5.75,5.27,5.54,1.41,1.41,1.39
72.19,-4.27,-5.64,-4.27,-5.64,5.66,5.24,5.44,1.39,1.39,1.37
72.91,-4.20,-5.55,-4.20,-5.55,5.56,5.21,5.34,1.37,1.36,1.35
73.64,-4.13,-5.46,-4.13,-5.46,5.46,5.17,5.24,1.33,1.33,1.33
74.38,-4.06,-5.37,-4.06,-5.37,5.36,5.14,5.13,1.30,1.30,1.31
75.12,-3.99,-5.28,-3.98,-5.27,5.27,5.10,5.03,1.28,1.28,1.29
75.87,-3.90,-5.17,-3.90,-5.17,5.17,5.06,4.93,1.27,1.27,1.27
76.63,-3.82,-5.07,-3.82,-5.07,5.08,5.03,4.82,1.26,1.26,1.25
77.40,-3.74,-4.97,-3.74,-4.98,4.98,4.99,4.72,1.24,1.24,1.24
78.17,-3.67,-4.89,-3.67,-4.88,4.89,4.95,4.62,1.22,1.22,1.22
78.95,-3.60,-4.80,-3.60,-4.80,4.79,4.91,4.52,1.20,1.20,1.20
79.74,-3.53,-4.71,-3.53,-4.71,4.71,4.87,4.43,1.18,1.18,1.18
80.54,-3.47,-4.63,-3.47,-4.63,4.62,4.83,4.33,1.16,1.16,1.16
81.35,-3.41,-4.55,-3.41,-4.54,4.55,4.78,4.24,1.14,1.14,1.14
82.16,-3.35,-4.47,-3.35,-4.47,4.47,4.74,4.15,1.13,1.12,1.12
82.98,-3.31,-4.40,-3.31,-4.40,4.41,4.70,4.06,1.10,1.10,1.09
83.81,-3.27,-4.34,-3.27,-4.34,4.34,4.65,3.98,1.08,1.07,1.07
84.65,-3.24,-4.29,-3.24,-4.29,4.29,4.61,3.89,1.05,1.05,1.05
85.50,-3.22,-4.25,-3.21,-4.24,4.24,4.56,3.81,1.02,1.02,1.03
86.35,-3.19,-4.19,-3.19,-4.19,4.19,4.51,3.74,1.00,1.00,1.00
87.22,-3.17,-4.15,-3.17,-4.15,4.15,4.46,3.66,0.98,0.98,0.98
88.09,-3.16,-4.11,-3.16,-4.11,4.11,4.42,3.59,0.96,0.96,0.95
88.97,-3.15,-4.09,-3.15,-4.08,4.08,4.37,3.52,0.93,0.94,0.94
89.86,-3.14,-4.05,-3.14,-4.05,4.06,4.31,3.45,0.92,0.91,0.91
90.76,-3.14,-4.02,-3.14,-4.03,4.03,4.26,3.39,0.89,0.89,0.89
91.66,-3.14,-4.01,-3.14,-4.01,4.01,4.21,3.33,0.87,0.87,0.87
92.58,-3.15,-3.99,-3.15,-3.99,3.99,4.16,3.27,0.84,0.84,0.84
93.51,-3.16,-3.97,-3.16,-3.97,3.97,4.10,3.21,0.81,0.81,0.81
94.44,-3.16,-3.96,-3.16,-3.95,3.95,4.05,3.16,0.79,0.79,0.80
95.39,-3.16,-3.93,-3.16,-3.93,3.93,3.99,3.11,0.77,0.77,0.77
96.34,-3.16,-3.91,-3.16,-3.91,3.91,3.93,3.06,0.75,0.75,0.75
97.30,-3.16,-3.88,-3.16,-3.88,3.89,3.87,3.01,0.73,0.73,0.72
98.28,-3.16,-3.85,-3.16,-3.86,3.86,3.81,2.97,0.71,0.70,0.69
99.26,-3.17,-3.83,-3.17,-3.83,3.84,3.75,2.92,0.67,0.68,0.66
100.25,-3.17,-3.82,-3.17,-3.82,3.82,3.69,2.88,0.65,0.65,0.65
101.25,-3.18,-3.80,-3.18,-3.79,3.79,3.63,2.84,0.61,0.61,0.62
102.27,-3.18,-3.77,-3.18,-3.77,3.76,3.56,2.81,0.58,0.58,0.59
103.29,-3.18,-3.73,-3.18,-3.73,3.73,3.50,2.77,0.55,0.55,0.55
104.32,-3.18,-3.70,-3.17,-3.69,3.69,3.43,2.73,0.51,0.51,0.52
105.37,-3.16,-3.65,-3.16,-3.65,3.64,3.36,2.70,0.48,0.48,0.49
106.42,-3.14,-3.59,-3.14,-3.59,3.59,3.29,2.67,0.45,0.45,0.45
107.48,-3.12,-3.53,-3.12,-3.53,3.53,3.22,2.64,0.41,0.41,0.41
108.56,-3.09,-3.46,-3.09,-3.46,3.47,3.15,2.60,0.38,0.37,0.37
109.64,-3.06,-3.39,-3.06,-3.40,3.40,3.08,2.57,0.34,0.33,0.33
110.74,-3.04,-3.33,-3.03,-3.33,3.33,3.01,2.54,0.29,0.29,0.29
111.85,-3.00,-3.25,-3.00,-3.25,3.25,2.93,2.51,0.25,0.25,0.25
112.97,-2.97,-3.17,-2.97,-3.17,3.18,2.86,2.48,0.21,0.21,0.21
114.10,-2.93,-3.10,-2.93,-3.09,3.10,2.78,2.45,0.17,0.17,0.17
115.24,-2.89,-3.01,-2.90,-3.02,3.02,2.70,2.41,0.13,0.12,0.12
116.39,-2.87,-2.95,-2.87,-2.94,2.94,2.62,2.38,0.07,0.07,0.08
117.55,-2.84,-2.87,-2.83,-2.86,2.86,2.54,2.35,0.02,0.03,0.03
118.73,-2.78,-2.77,-2.78,-2.78,2.77,2.46,2.31,-0.00,-0.01,-0.00
119.92,-2.73,-2.68,-2.73,-2.68,2.69,2.38,2.27,-0.04,-0.04,-0.05
121.12,-2.68,-2.59,-2.69,-2.60,2.61,2.29,2.24,-0.07,-0.08,-0.09
122.33,-2.65,-2.52,-2.65,-2.52,2.53,2.21,2.20,-0.12,-0.12,-0.12
123.55,-2.61,-2.45,-2.60,-2.44,2.44,2.12,2.15,-0.17,-0.16,-0.16
124.79,-2.55,-2.35,-2.55,-2.35,2.35,2.03,2.11,-0.20,-0.20,-0.20
126.03,-2.48,-2.25,-2.50,-2.26,2.25,1.94,2.06,-0.23,-0.24,-0.23
127.29,-2.44,-2.17,-2.43,-2.17,2.16,1.85,2.02,-0.28,-0.28,-0.27
128.57,-2.38,-2.08,-2.36,-2.06,2.06,1.76,1.97,-0.32,-0.30,-0.30
129.85,-2.28,-1.95,-2.28,-1.95,1.95,1.67,1.92,-0.33,-0.33,-0.33
131.15,-2.18,-1.81,-2.20,-1.84,1.85,1.58,1.86,-0.33,-0.36,-0.37
132.46,-2.14,-1.74,-2.12,-1.73,1.74,1.48,1.81,-0.40,-0.38,-0.40
133.79,-2.06,-1.64,-2.05,-1.63,1.64,1.39,1.75,-0.42,-0.42,-0.42
135.12,-1.97,-1.52,-1.98,-1.53,1.53,1.29,1.69,-0.44,-0.45,-0.45
136.48,-1.92,-1.44,-1.91,-1.43,1.43,1.19,1.63,-0.49,-0.48,-0.48
137.84,-1.83,-1.32,-1.84,-1.33,1.32,1.10,1.57,-0.51,-0.52,-0.51
139.22,-1.77,-1.23,-1.76,-1.22,1.21,1.00,1.51,-0.55,-0.55,-0.54
140.61,-1.69,-1.12,-1.68,-1.11,1.11,0.90,1.44,-0.58,-0.57,-0.57
142.02,-1.58,-0.99,-1.60,-1.00,1.00,0.79,1.38,-0.58,-0.60,-0.59
143.44,-1.52,-0.90,-1.51,-0.89,0.89,0.69,1.31,-0.63,-0.62,-0.62
144.87,-1.42,-0.77,-1.42,-0.77,0.78,0.59,1.25,-0.64,-0.64,-0.65
146.32,-1.34,-0.66,-1.34,-0.66,0.67,0.49,1.18,-0.67,-0.67,-0.68
147.78,-1.25,-0.54,-1.26,-0.55,0.56,0.38,1.11,-0.69,-0.70,-0.71
149.26,-1.19,-0.45,-1.18,-0.45,0.45,0.28,1.04,-0.74,-0.73,-0.73
150.75,-1.10,-0.34,-1.10,-0.34,0.34,0.18,0.97,-0.76,-0.76,-0.76
152.26,-1.02,-0.24,-1.02,-0.24,0.22,0.07,0.89,-0.80,-0.80,-0.78
153.78,-0.93,-0.11,-0.93,-0.12,0.11,-0.03,0.82,-0.82,-0.82,-0.82
155.32,-0.86,-0.02,-0.84,-0.01,0.00,-0.14,0.75,-0.86,-0.84,-0.84
156.88,-0.74,0.12,-0.75,0.12,-0.11,-0.24,0.68,-0.85,-0.86,-0.86
158.44,-0.66,0.23,-0.66,0.23,-0.22,-0.34,0.61,-0.88,-0.88,-0.89
160.03,-0.56,0.36,-0.57,0.34,-0.33,-0.45,0.53,-0.89,-0.91,-0.92
161.63,-0.50,0.44,-0.50,0.44,-0.45,-0.55,0.46,-0.95,-0.94,-0.94
163.24,-0.43,0.54,-0.41,0.55,-0.56,-0.65,0.38,-0.99,-0.97,-0.97
164.88,-0.32,0.67,-0.33,0.66,-0.67,-0.75,0.31,-0.99,-1.00,-0.99
166.53,-0.24,0.78,-0.24,0.77,-0.78,-0.85,0.24,-1.02,-1.02,-1.02
168.19,-0.17,0.88,-0.16,0.89,-0.88,-0.95,0.16,-1.05,-1.04,-1.05
169.87,-0.07,1.00,-0.08,0.99,-0.99,-1.05,0.09,-1.06,-1.07,-1.07
171.57,0.00,1.10,0.00,1.10,-1.10,-1.14,0.01,-1.10,-1.10,-1.10
173.29,0.07,1.20,0.08,1.21,-1.21,-1.23,-0.06,-1.14,-1.13,-1.13
175.02,0.17,1.33,0.16,1.32,-1.32,-1.32,-0.14,-1.15,-1.16,-1.16
176.77,0.24,1.43,0.24,1.43,-1.43,-1.41,-0.22,-1.19,-1.19,-1.19
178.54,0.31,1.53,0.31,1.53,-1.53,-1.50,-0.29,-1.22,-1.22,-1.22
180.32,0.38,1.63,0.38,1.63,-1.64,-1.58,-0.37,-1.26,-1.26,-1.25
182.13,0.45,1.73,0.46,1.74,-1.75,-1.66,-0.45,-1.30,-1.29,-1.28
183.95,0.56,1.87,0.55,1.86,-1.86,-1.74,-0.52,-1.30,-1.31,-1.31
185.79,0.63,1.98,0.63,1.97,-1.96,-1.81,-0.60,-1.33,-1.33,-1.34
187.65,0.70,2.07,0.70,2.07,-2.06,-1.88,-0.68,-1.36,-1.36,-1.37
189.52,0.76,2.16,0.76,2.16,-2.16,-1.94,-0.75,-1.40,-1.40,-1.40
191.42,0.82,2.25,0.82,2.25,-2.26,-2.00,-0.83,-1.44,-1.43,-1.43
193.33,0.88,2.35,0.88,2.34,-2.35,-2.06,-0.91,-1.47,-1.47,-1.47
195.27,0.93,2.42,0.93,2.42,-2.43,-2.11,-0.99,-1.50,-1.50,-1.49
197.22,0.98,2.50,0.98,2.50,-2.51,-2.16,-1.06,-1.53,-1.53,-1.52
199.19,1.02,2.57,1.02,2.57,-2.58,-2.20,-1.14,-1.56,-1.56,-1.55
201.18,1.06,2.65,1.06,2.64,-2.64,-2.24,-1.22,-1.58,-1.58,-1.59
203.19,1.08,2.70,1.08,2.70,-2.69,-2.27,-1.29,-1.61,-1.61,-1.62
205.23,1.09,2.74,1.09,2.74,-2.73,-2.30,-1.37,-1.64,-1.64,-1.65
207.28,1.08,2.76,1.09,2.77,-2.75,-2.32,-1.44,-1.67,-1.67,-1.68
209.35,1.07,2.78,1.06,2.78,-2.77,-2.33,-1.52,-1.70,-1.70,-1.71
211.44,1.03,2.78,1.03,2.77,-2.77,-2.34,-1.59,-1.74,-1.75,-1.75
213.56,0.97,2.75,0.97,2.75,-2.76,-2.35,-1.66,-1.79,-1.79,-1.78
215.69,0.91,2.73,0.91,2.73,-2.74,-2.34,-1.73,-1.83,-1.83,-1.81
217.85,0.84,2.69,0.85,2.70,-2.71,-2.33,-1.80,-1.87,-1.86,-1.85
220.03,0.80,2.68,0.79,2.67,-2.67,-2.31,-1.87,-1.87,-1.87,-1.88
222.23,0.72,2.63,0.72,2.63,-2.61,-2.29,-1.93,-1.89,-1.89,-1.91
224.45,0.62,2.57,0.61,2.55,-2.54,-2.25,-1.99,-1.92,-1.93,-1.94
226.70,0.49,2.46,0.49,2.47,-2.46,-2.21,-2.05,-1.97,-1.97,-1.97
228.96,0.35,2.35,0.37,2.37,-2.37,-2.16,-2.10,-2.02,-2.00,-2.00
231.25,0.25,2.28,0.23,2.26,-2.26,-2.09,-2.15,-2.01,-2.03,-2.02
233.57,0.11,2.15,0.10,2.15,-2.15,-2.02,-2.20,-2.04,-2.05,-2.04
235.90,-0.06,2.01,-0.04,2.02,-2.03,-1.94,-2.24,-2.09,-2.07,-2.07
238.26,-0.18,1.90,-0.19,1.90,-1.90,-1.85,-2.28,-2.08,-2.08,-2.08
240.64,-0.33,1.77,-0.32,1.78,-1.76,-1.74,-2.32,-2.09,-2.09,-2.10
243.05,-0.46,1.65,-0.47,1.64,-1.63,-1.63,-2.35,-2.09,-2.10,-2.11
245.48,-0.62,1.51,-0.63,1.50,-1.50,-1.50,-2.37,-2.12,-2.12,-2.13
247.93,-0.80,1.34,-0.78,1.37,-1.37,-1.37,-2.39,-2.17,-2.15,-2.14
250.41,-0.91,1.25,-0.93,1.23,-1.25,-1.23,-2.41,-2.16,-2.17,-2.16
252.92,-1.06,1.11,-1.05,1.13,-1.13,-1.09,-2.42,-2.19,-2.18,-2.17
255.45,-1.16,1.03,-1.16,1.03,-1.03,-0.95,-2.42,-2.19,-2.19,-2.19
258.00,-1.25,0.95,-1.26,0.94,-0.94,-0.82,-2.42,-2.19,-2.20,-2.20
260.58,-1.36,0.85,-1.35,0.86,-0.86,-0.71,-2.42,-2.22,-2.21,-2.21
263.19,-1.42,0.80,-1.43,0.79,-0.80,-0.62,-2.41,-2.22,-2.23,-2.22
265.82,-1.49,0.74,-1.48,0.75,-0.76,-0.57,-2.40,-2.25,-2.24,-2.23
268.48,-1.52,0.73,-1.52,0.73,-0.74,-0.55,-2.38,-2.25,-2.25,-2.25
271.16,-1.54,0.72,-1.54,0.72,-0.72,-0.56,-2.36,-2.26,-2.27,-2.26
273.87,-1.55,0.72,-1.55,0.73,-0.73,-0.61,-2.33,-2.28,-2.27,-2.27
276.61,-1.54,0.75,-1.54,0.75,-0.74,-0.69,-2.31,-2.28,-2.28,-2.29
279.38,-1.52,0.78,-1.53,0.77,-0.77,-0.79,-2.28,-2.29,-2.30,-2.30
282.17,-1.50,0.81,-1.50,0.81,-0.81,-0.90,-2.24,-2.31,-2.32,-2.31
284.99,-1.48,0.85,-1.47,0.86,-0.86,-1.01,-2.21,-2.34,-2.33,-2.33
287.84,-1.42,0.92,-1.42,0.91,-0.91,-1.13,-2.17,-2.33,-2.34,-2.34
290.72,-1.37,0.98,-1.38,0.97,-0.97,-1.24,-2.13,-2.34,-2.35,-2.35
293.63,-1.33,1.04,-1.32,1.04,-1.04,-1.34,-2.09,-2.37,-2.36,-2.36
296.57,-1.28,1.10,-1.28,1.10,-1.10,-1.43,-2.05,-2.38,-2.38,-2.38
299.53,-1.22,1.17,-1.22,1.17,-1.17,-1.51,-2.00,-2.39,-2.39,-2.39
302.53,-1.17,1.23,-1.17,1.24,-1.24,-1.57,-1.96,-2.41,-2.41,-2.40
305.55,-1.12,1.30,-1.12,1.30,-1.30,-1.63,-1.92,-2.42,-2.42,-2.42
308.61,-1.07,1.37,-1.07,1.37,-1.36,-1.68,-1.87,-2.43,-2.43,-2.44
311.69,-1.02,1.43,-1.02,1.43,-1.42,-1.71,-1.83,-2.43,-2.44,-2.45
314.81,-0.99,1.48,-0.99,1.47,-1.47,-1.74,-1.78,-2.46,-2.46,-2.47
317.96,-0.97,1.51,-0.97,1.52,-1.52,-1.76,-1.74,-2.49,-2.49,-2.48
321.14,-0.95,1.55,-0.94,1.56,-1.57,-1.77,-1.69,-2.52,-2.51,-2.50
324.35,-0.92,1.60,-0.92,1.60,-1.61,-1.77,-1.65,-2.53,-2.53,-2.52
327.59,-0.89,1.65,-0.89,1.64,-1.65,-1.77,-1.61,-2.54,-2.54,-2.54
330.87,-0.87,1.68,-0.87,1.68,-1.68,-1.76,-1.56,-2.54,-2.54,-2.55
334.18,-0.85,1.72,-0.85,1.72,-1.70,-1.75,-1.52,-2.55,-2.55,-2.57
337.52,-0.85,1.73,-0.85,1.73,-1.72,-1.74,-1.48,-2.57,-2.57,-2.58
340.90,-0.86,1.74,-0.86,1.74,-1.73,-1.72,-1.44,-2.59,-2.60,-2.60
344.30,-0.89,1.73,-0.89,1.73,-1.74,-1.70,-1.40,-2.63,-2.63,-2.61
347.75,-0.91,1.73,-0.91,1.73,-1.74,-1.68,-1.36,-2.65,-2.65,-2.64
351.23,-0.93,1.73,-0.93,1.73,-1.74,-1.65,-1.33,-2.67,-2.66,-2.66
354.74,-0.94,1.73,-0.94,1.73,-1.72,-1.63,-1.29,-2.66,-2.67,-2.67
358.28,-0.97,1.72,-0.97,1.72,-1.71,-1.60,-1.25,-2.68,-2.68,-2.69
361.87,-1.01,1.70,-1.01,1.70,-1.69,-1.57,-1.22,-2.70,-2.70,-2.71
365.49,-1.06,1.66,-1.06,1.67,-1.66,-1.54,-1.19,-2.72,-2.72,-2.72
369.14,-1.11,1.63,-1.11,1.63,-1.64,-1.52,-1.15,-2.75,-2.74,-2.74
372.83,-1.16,1.59,-1.16,1.60,-1.60,-1.49,-1.12,-2.76,-2.76,-2.75
376.56,-1.21,1.57,-1.21,1.56,-1.57,-1.46,-1.09,-2.78,-2.78,-2.77
380.33,-1.26,1.54,-1.26,1.53,-1.53,-1.43,-1.06,-2.79,-2.79,-2.80
384.13,-1.32,1.49,-1.32,1.49,-1.49,-1.41,-1.04,-2.81,-2.81,-2.81
387.97,-1.37,1.46,-1.37,1.45,-1.45,-1.38,-1.01,-2.82,-2.82,-2.83
391.85,-1.43,1.41,-1.43,1.41,-1.41,-1.36,-0.98,-2.84,-2.84,-2.84
395.77,-1.48,1.37,-1.48,1.37,-1.37,-1.33,-0.96,-2.85,-2.85,-2.85
399.73,-1.53,1.33,-1.53,1.33,-1.33,-1.31,-0.93,-2.86,-2.86,-2.86
403.72,-1.58,1.29,-1.58,1.29,-1.29,-1.29,-0.91,-2.87,-2.87,-2.87
407.76,-1.63,1.25,-1.63,1.25,-1.25,-1.26,-0.89,-2.88,-2.89,-2.88
411.84,-1.69,1.21,-1.68,1.21,-1.22,-1.24,-0.87,-2.91,-2.91,-2.90
415.96,-1.73,1.18,-1.73,1.18,-1.20,-1.22,-0.85,-2.92,-2.92,-2.91
420.12,-1.76,1.16,-1.76,1.16,-1.17,-1.21,-0.83,-2.93,-2.93,-2.92
424.32,-1.79,1.14,-1.79,1.15,-1.15,-1.19,-0.82,-2.94,-2.93,-2.93
428.56,-1.81,1.13,-1.81,1.14,-1.13,-1.17,-0.80,-2.93,-2.94,-2.94
432.85,-1.84,1.13,-1.84,1.12,-1.11,-1.16,-0.79,-2.94,-2.95,-2.96
437.18,-1.88,1.10,-1.88,1.10,-1.09,-1.14,-0.77,-2.97,-2.97,-2.98
441.55,-1.92,1.07,-1.92,1.07,-1.07,-1.13,-0.76,-2.99,-2.99,-2.99
445.96,-1.96,1.05,-1.96,1.05,-1.05,-1.12,-0.75,-3.01,-3.01,-3.01
