frequency,raw
20.00,2.24
20.20,2.31
20.40,2.36
20.61,2.43
20.81,2.48
21.02,2.55
21.23,2.68
21.44,2.81
21.66,2.95
21.87,3.08
22.09,3.20
22.31,3.31
22.54,3.42
22.76,3.54
22.99,3.65
23.22,3.73
23.45,3.81
23.69,3.90
23.92,3.98
24.16,4.05
24.40,4.13
24.65,4.22
24.89,4.31
25.14,4.40
25.39,4.50
25.65,4.62
25.91,4.72
26.16,4.84
26.43,4.96
26.69,5.08
26.96,5.21
27.23,5.29
27.50,5.37
27.77,5.45
28.05,5.53
28.33,5.63
28.62,5.74
28.90,5.84
29.19,5.91
29.48,5.95
29.78,5.99
30.08,6.05
30.38,6.12
30.68,6.19
30.99,6.26
31.30,6.33
31.61,6.39
31.93,6.45
32.24,6.55
32.57,6.65
32.89,6.76
33.22,6.83
33.55,6.91
33.89,6.98
34.23,7.05
34.57,7.11
34.92,7.18
35.27,7.27
35.62,7.36
35.97,7.44
36.33,7.50
36.70,7.56
37.06,7.61
37.43,7.64
37.81,7.66
38.19,7.70
38.57,7.77
38.95,7.84
39.34,7.85
39.74,7.86
40.14,7.89
40.54,7.99
40.94,8.10
41.35,8.10
41.76,8.08
42.18,8.12
42.60,8.24
43.03,8.35
43.46,8.33
43.90,8.30
44.33,8.34
44.78,8.40
45.23,8.46
45.68,8.53
46.13,8.55
46.60,8.46
47.06,8.38
47.53,8.37
48.01,8.35
48.49,8.40
48.97,8.45
49.46,8.38
49.96,8.31
50.46,8.36
50.96,8.43
51.47,8.41
51.99,8.38
52.51,8.41
53.03,8.43
53.56,8.47
54.10,8.49
54.64,8.43
55.18,8.37
55.74,8.35
56.29,8.31
56.86,8.25
57.42,8.14
58.00,8.01
58.58,7.81
59.16,7.62
59.76,7.44
60.35,7.20
60.96,6.91
61.57,6.65
62.18,6.38
62.80,6.07
63.43,5.83
64.07,5.63
64.71,5.46
65.35,5.34
66.01,5.25
66.67,5.26
67.33,5.29
68.01,5.38
68.69,5.39
69.37,5.43
70.07,5.51
70.77,5.65
71.48,5.81
72.19,5.97
72.91,6.17
73.64,6.32
74.38,6.52
75.12,6.74
75.87,6.98
76.63,7.10
77.40,7.20
78.17,7.32
78.95,7.42
79.74,7.52
80.54,7.65
81.35,7.82
82.16,7.94
82.98,7.95
83.81,7.96
84.65,8.07
85.50,8.16
86.35,8.19
87.22,8.21
88.09,8.22
88.97,8.18
89.86,8.14
90.76,8.14
91.66,8.08
92.58,7.95
93.51,7.83
94.44,7.71
95.39,7.57
96.34,7.39
97.30,7.26
98.28,7.23
99.26,7.14
100.25,7.00
101.25,6.88
102.27,6.79
103.29,6.76
104.32,6.76
105.37,6.78
106.42,6.76
107.48,6.79
108.56,6.83
109.64,6.85
110.74,6.89
111.85,6.89
112.97,6.81
114.10,6.77
115.24,6.77
116.39,6.76
117.55,6.75
118.73,6.75
119.92,6.74
121.12,6.73
122.33,6.69
123.55,6.63
124.79,6.60
126.03,6.58
127.29,6.44
128.57,6.32
129.85,6.23
131.15,6.03
132.46,5.85
133.79,5.68
135.12,5.52
136.48,5.40
137.84,5.29
139.22,5.21
140.61,5.18
142.02,5.16
143.44,5.09
144.87,5.08
146.32,5.13
147.78,5.22
149.26,5.27
150.75,5.30
152.26,5.28
153.78,5.27
155.32,5.06
156.88,4.85
158.44,4.62
160.03,4.34
161.63,4.09
163.24,3.95
164.88,3.88
166.53,3.95
168.19,4.03
169.87,4.13
171.57,4.13
173.29,4.13
175.02,4.16
176.77,4.06
178.54,3.92
180.32,3.81
182.13,3.70
183.95,3.59
185.79,3.43
187.65,3.27
189.52,3.04
191.42,2.81
193.33,2.64
195.27,2.43
197.22,2.24
199.19,2.08
201.18,1.89
203.19,1.68
205.23,1.49
207.28,1.25
209.35,1.01
211.44,0.83
213.56,0.61
215.69,0.33
217.85,0.17
220.03,-0.13
222.23,-0.45
224.45,-0.83
226.70,-1.10
228.96,-1.38
231.25,-1.85
233.57,-2.16
235.90,-2.44
238.26,-2.80
240.64,-3.17
243.05,-3.48
245.48,-3.87
247.93,-4.33
250.41,-4.62
252.92,-4.93
255.45,-5.30
258.00,-5.57
260.58,-5.86
263.19,-6.22
265.82,-6.51
268.48,-6.72
271.16,-6.84
273.87,-6.92
276.61,-6.87
279.38,-6.77
282.17,-6.66
284.99,-6.53
287.84,-6.39
290.72,-6.24
293.63,-6.05
296.57,-5.86
299.53,-5.63
302.53,-5.44
305.55,-5.26
308.61,-4.99
311.69,-4.66
314.81,-4.48
317.96,-4.31
321.14,-4.14
324.35,-3.88
327.59,-3.65
330.87,-3.46
334.18,-3.30
337.52,-3.15
340.90,-3.00
344.30,-2.89
347.75,-2.74
351.23,-2.58
354.74,-2.46
358.28,-2.32
361.87,-2.24
365.49,-2.21
369.14,-2.08
372.83,-1.92
376.56,-1.76
380.33,-1.69
384.13,-1.57
387.97,-1.50
391.85,-1.38
395.77,-1.24
399.73,-1.14
403.72,-1.06
407.76,-1.02
411.84,-0.98
415.96,-0.85
420.12,-0.80
424.32,-0.78
428.56,-0.77
432.85,-0.77
437.18,-0.75
441.55,-0.73
445.96,-0.71
450.42,-0.69
454.93,-0.66
459.48,-0.64
464.07,-0.66
468.71,-0.69
473.40,-0.67
478.13,-0.65
482.91,-0.63
487.74,-0.66
492.62,-0.70
497.55,-0.84
502.52,-0.99
507.55,-1.15
512.62,-1.52
517.75,-1.87
522.93,-2.21
528.16,-3.02
533.44,-3.58
538.77,-4.35
544.16,-5.27
549.60,-6.07
555.10,-6.60
560.65,-6.20
566.25,-5.72
571.92,-5.35
577.64,-4.54
583.41,-3.67
589.25,-3.08
595.14,-2.60
601.09,-2.15
607.10,-1.89
613.17,-1.64
619.30,-1.37
625.50,-1.24
631.75,-1.14
638.07,-0.99
644.45,-0.94
650.89,-0.94
657.40,-0.84
663.98,-0.81
670.62,-0.79
677.32,-0.77
684.10,-0.75
690.94,-0.66
697.85,-0.62
704.83,-0.60
711.87,-0.59
718.99,-0.58
726.18,-0.57
733.44,-0.57
740.78,-0.56
748.19,-0.50
755.67,-0.44
763.23,-0.43
770.86,-0.41
778.57,-0.41
786.35,-0.31
794.22,-0.29
802.16,-0.27
810.18,-0.25
818.28,-0.17
826.46,-0.03
834.73,0.03
843.08,0.09
851.51,0.09
860.02,0.14
868.62,0.25
877.31,0.27
886.08,0.24
894.94,0.20
903.89,0.19
912.93,0.17
922.06,0.18
931.28,0.21
940.59,0.15
950.00,0.16
959.50,0.20
969.09,0.04
978.78,-0.09
988.57,-0.03
998.46,0.07
1008.44,-0.01
1018.53,-0.11
1028.71,-0.10
1039.00,-0.22
1049.39,-0.24
1059.88,-0.10
1070.48,-0.22
1081.19,-0.34
1092.00,-0.33
1102.92,-0.39
1113.95,-0.49
1125.09,-0.57
1136.34,-0.68
1147.70,-0.79
1159.18,-0.75
1170.77,-0.75
1182.48,-0.83
1194.30,-1.03
1206.25,-1.00
1218.31,-0.86
1230.49,-0.99
1242.80,-0.97
1255.22,-0.77
1267.78,-0.68
1280.45,-0.59
1293.26,-0.45
1306.19,-0.37
1319.25,-0.27
1332.45,-0.25
1345.77,-0.16
1359.23,0.10
1372.82,0.38
1386.55,0.56
1400.41,0.72
1414.42,0.77
1428.56,0.81
1442.85,1.04
1457.28,1.21
1471.85,1.33
1486.57,1.45
1501.43,1.56
1516.45,1.65
1531.61,1.77
1546.93,1.94
1562.40,1.91
1578.02,1.87
1593.80,1.90
1609.74,1.97
1625.84,2.12
1642.10,2.13
1658.52,2.08
1675.10,2.11
1691.85,2.18
1708.77,2.27
1725.86,2.35
1743.12,2.50
1760.55,2.55
1778.15,2.41
1795.94,2.45
1813.90,2.25
1832.03,2.18
1850.36,2.26
1868.86,2.21
1887.55,2.14
1906.42,2.03
1925.49,1.78
1944.74,1.59
1964.19,1.59
1983.83,1.66
2003.67,1.77
2023.71,1.95
2043.94,2.19
2064.38,2.54
2085.03,2.84
2105.88,3.01
2126.94,3.12
2148.20,3.13
2169.69,3.23
2191.38,3.42
2213.30,3.55
2235.43,3.57
2257.78,3.92
2280.36,4.15
2303.17,4.23
2326.20,4.50
2349.46,4.80
2372.95,5.19
2396.68,5.72
2420.65,6.47
2444.86,7.20
2469.31,7.88
2494.00,8.76
2518.94,9.65
2544.13,10.44
2569.57,11.20
2595.27,11.86
2621.22,12.39
2647.43,12.73
2673.90,12.97
2700.64,13.30
2727.65,13.50
2754.93,13.37
2782.48,13.24
2810.30,13.10
2838.40,12.94
2866.79,12.77
2895.46,12.64
2924.41,12.47
2953.65,12.32
2983.19,12.28
3013.02,12.35
3043.15,12.39
3073.58,12.41
3104.32,12.33
3135.36,12.34
3166.72,12.34
3198.38,12.30
3230.37,12.35
3262.67,12.42
3295.30,12.35
3328.25,12.29
3361.53,12.34
3395.15,12.33
3429.10,12.27
3463.39,12.38
3498.03,12.44
3533.01,12.45
3568.34,12.45
3604.02,12.49
3640.06,12.34
3676.46,12.23
3713.22,12.16
3750.36,12.02
3787.86,11.81
3825.74,11.61
3864.00,11.65
3902.64,11.71
3941.66,11.77
3981.08,11.80
4020.89,11.61
4061.10,11.24
4101.71,11.15
4142.73,11.29
4184.15,11.07
4226.00,10.87
4268.26,10.71
4310.94,10.65
4354.05,10.51
4397.59,10.12
4441.56,9.75
4485.98,9.32
4530.84,8.82
4576.15,8.14
4621.91,7.66
4668.13,7.20
4714.81,6.66
4761.96,6.17
4809.58,5.86
4857.67,5.37
4906.25,4.88
4955.31,4.32
5004.87,3.59
5054.91,2.95
5105.46,2.28
5156.52,2.19
5208.08,3.05
5260.16,4.40
5312.77,5.50
5365.89,6.78
5419.55,7.98
5473.75,8.74
5528.49,9.21
5583.77,9.16
5639.61,9.05
5696.00,9.16
5752.96,9.51
5810.49,9.90
5868.60,10.45
5927.28,10.98
5986.56,11.68
6046.42,12.25
6106.89,13.02
6167.96,13.88
6229.64,14.48
6291.93,14.91
6354.85,15.35
6418.40,15.72
6482.58,15.74
6547.41,15.78
6612.88,15.36
6679.01,14.71
6745.80,14.00
6813.26,13.01
6881.39,12.14
6950.21,11.20
7019.71,10.41
7089.91,9.76
7160.81,9.27
7232.41,8.55
7304.74,7.63
7377.79,6.75
7451.56,5.90
7526.08,4.80
7601.34,3.62
7677.35,2.69
7754.13,1.69
7831.67,0.66
7909.98,-0.27
7989.08,-1.33
8068.98,-1.32
8149.67,-1.18
8231.16,-1.74
8313.47,-2.29
8396.61,-2.54
8480.57,-2.56
8565.38,-3.82
8651.03,-4.77
8737.54,-4.98
8824.92,-5.01
8913.17,-4.24
9002.30,-4.51
9092.32,-5.77
9183.25,-6.19
9275.08,-5.50
9367.83,-5.48
9461.51,-5.90
9556.12,-6.56
9651.68,-6.75
9748.20,-6.42
9845.68,-6.18
9944.14,-6.03
10043.58,-6.11
10144.02,-5.51
10245.46,-4.52
10347.91,-2.81
10451.39,-0.86
10555.91,0.68
10661.46,1.49
10768.08,1.53
10875.76,1.04
10984.52,0.75
11094.36,0.37
11205.31,-0.09
11317.36,-0.47
11430.53,-0.82
11544.84,-0.88
11660.29,-0.17
11776.89,0.44
11894.66,1.19
12013.60,2.30
12133.74,3.22
12255.08,4.23
12377.63,5.03
12501.41,5.39
12626.42,5.45
12752.68,5.35
12880.21,5.17
13009.01,4.94
13139.10,4.76
13270.49,4.88
13403.20,5.09
13537.23,5.63
13672.60,6.15
13809.33,5.97
13947.42,5.49
14086.90,5.24
14227.77,5.15
14370.04,5.33
14513.74,5.44
14658.88,4.95
14805.47,4.80
14953.52,4.76
15103.06,4.92
15254.09,5.26
15406.63,5.77
15560.70,6.01
15716.30,5.95
15873.47,6.12
16032.20,6.25
16192.52,6.52
16354.45,6.52
16517.99,6.26
16683.17,5.38
16850.01,4.59
17018.51,3.65
17188.69,2.66
17360.58,1.72
17534.18,0.97
17709.53,0.13
17886.62,-0.93
18065.49,-1.73
18246.14,-1.87
18428.60,-2.14
18612.89,-2.59
18799.02,-3.27
18987.01,-4.81
19176.88,-6.68
19368.65,-7.94
19562.33,-8.98
19757.96,-8.63
19955.54,-8.44
