frequency,raw,error,smoothed,error_smoothed,equalization,parametric_eq,fixed_band_eq,equalized_raw,equalized_smoothed,target
20.00,-3.45,-2.58,-3.45,-2.57,2.58,5.58,0.87,-0.87,-0.86,-0.88
20.20,-3.45,-2.59,-3.46,-2.59,2.59,5.58,0.89,-0.86,-0.86,-0.87
20.40,-3.45,-2.60,-3.46,-2.60,2.60,5.58,0.92,-0.85,-0.86,-0.86
20.61,-3.46,-2.60,-3.46,-2.61,2.60,5.59,0.94,-0.86,-0.86,-0.86
20.81,-3.46,-2.62,-3.46,-2.61,2.60,5.59,0.97,-0.86,-0.86,-0.85
21.02,-3.46,-2.62,-3.45,-2.61,2.59,5.58,1.00,-0.87,-0.86,-0.85
21.23,-3.43,-2.59,-3.44,-2.60,2.59,5.58,1.02,-0.85,-0.85,-0.84
21.44,-3.41,-2.57,-3.41,-2.57,2.57,5.57,1.05,-0.84,-0.84,-0.84
21.66,-3.38,-2.55,-3.38,-2.55,2.55,5.57,1.08,-0.83,-0.83,-0.84
21.87,-3.35,-2.51,-3.36,-2.52,2.53,5.56,1.11,-0.82,-0.82,-0.84
22.09,-3.33,-2.50,-3.33,-2.50,2.51,5.55,1.15,-0.83,-0.83,-0.83
22.31,-3.31,-2.48,-3.31,-2.48,2.48,5.53,1.18,-0.83,-0.83,-0.83
22.54,-3.29,-2.46,-3.29,-2.46,2.45,5.52,1.21,-0.84,-0.84,-0.84
22.76,-3.27,-2.42,-3.27,-2.43,2.43,5.50,1.25,-0.84,-0.84,-0.85
22.99,-3.25,-2.41,-3.25,-2.40,2.40,5.48,1.28,-0.85,-0.85,-0.85
23.22,-3.23,-2.39,-3.23,-2.38,2.38,5.46,1.32,-0.85,-0.85,-0.85
23.45,-3.20,-2.34,-3.21,-2.35,2.35,5.44,1.36,-0.85,-0.85,-0.86
23.69,-3.18,-2.33,-3.18,-2.33,2.32,5.42,1.39,-0.86,-0.86,-0.86
23.92,-3.16,-2.30,-3.16,-2.30,2.30,5.39,1.43,-0.86,-0.86,-0.86
24.16,-3.13,-2.27,-3.13,-2.28,2.27,5.37,1.47,-0.86,-0.86,-0.86
24.40,-3.11,-2.25,-3.11,-2.25,2.25,5.34,1.51,-0.86,-0.85,-0.86
24.65,-3.08,-2.23,-3.08,-2.23,2.24,5.31,1.55,-0.85,-0.85,-0.86
24.89,-3.06,-2.20,-3.07,-2.21,2.22,5.28,1.59,-0.84,-0.84,-0.86
25.14,-3.05,-2.19,-3.05,-2.19,2.21,5.25,1.63,-0.85,-0.85,-0.86
25.39,-3.05,-2.18,-3.05,-2.19,2.19,5.21,1.67,-0.87,-0.86,-0.87
25.65,-3.04,-2.18,-3.05,-2.18,2.16,5.18,1.71,-0.88,-0.88,-0.87
25.91,-3.04,-2.18,-3.03,-2.17,2.14,5.14,1.75,-0.90,-0.90,-0.87
26.16,-3.01,-2.14,-3.01,-2.14,2.11,5.10,1.79,-0.90,-0.89,-0.87
26.43,-2.96,-2.10,-2.96,-2.09,2.09,5.07,1.83,-0.87,-0.87,-0.87
26.69,-2.91,-2.05,-2.91,-2.04,2.08,5.03,1.87,-0.83,-0.83,-0.87
26.96,-2.86,-2.00,-2.88,-2.01,2.06,4.99,1.91,-0.80,-0.82,-0.87
27.23,-2.86,-2.00,-2.87,-2.00,2.03,4.95,1.95,-0.83,-0.83,-0.87
27.50,-2.88,-2.01,-2.88,-2.01,2.00,4.91,1.99,-0.88,-0.88,-0.87
27.77,-2.89,-2.02,-2.89,-2.02,1.96,4.87,2.02,-0.93,-0.92,-0.87
28.05,-2.88,-2.01,-2.86,-2.00,1.93,4.82,2.06,-0.95,-0.93,-0.87
28.33,-2.80,-1.93,-2.80,-1.93,1.90,4.78,2.09,-0.90,-0.90,-0.87
28.62,-2.71,-1.85,-2.71,-1.85,1.87,4.74,2.12,-0.85,-0.85,-0.87
28.90,-2.62,-1.76,-2.64,-1.78,1.84,4.69,2.15,-0.78,-0.80,-0.86
29.19,-2.60,-1.75,-2.61,-1.75,1.81,4.65,2.18,-0.79,-0.80,-0.86
29.48,-2.62,-1.77,-2.61,-1.76,1.80,4.60,2.20,-0.83,-0.82,-0.86
29.78,-2.64,-1.79,-2.64,-1.79,1.79,4.56,2.22,-0.85,-0.85,-0.85
30.08,-2.65,-1.80,-2.65,-1.80,1.79,4.52,2.24,-0.86,-0.86,-0.85
30.38,-2.66,-1.81,-2.66,-1.82,1.80,4.47,2.26,-0.86,-0.87,-0.85
30.68,-2.66,-1.82,-2.67,-1.82,1.80,4.43,2.27,-0.86,-0.87,-0.85
30.99,-2.67,-1.82,-2.66,-1.81,1.79,4.38,2.28,-0.88,-0.87,-0.85
31.30,-2.63,-1.79,-2.64,-1.79,1.77,4.34,2.29,-0.86,-0.87,-0.85
31.61,-2.60,-1.76,-2.60,-1.76,1.73,4.29,2.29,-0.87,-0.87,-0.85
31.93,-2.56,-1.72,-2.56,-1.71,1.69,4.25,2.29,-0.87,-0.87,-0.85
32.24,-2.50,-1.64,-2.50,-1.65,1.65,4.20,2.29,-0.85,-0.85,-0.86
32.57,-2.44,-1.59,-2.44,-1.58,1.61,4.16,2.29,-0.83,-0.83,-0.86
32.89,-2.38,-1.52,-2.40,-1.54,1.58,4.11,2.28,-0.80,-0.82,-0.86
33.22,-2.38,-1.52,-2.39,-1.52,1.56,4.07,2.27,-0.82,-0.82,-0.87
33.55,-2.40,-1.54,-2.40,-1.53,1.55,4.03,2.26,-0.85,-0.85,-0.87
33.89,-2.43,-1.55,-2.42,-1.55,1.55,3.98,2.24,-0.89,-0.88,-0.88
34.23,-2.44,-1.56,-2.45,-1.57,1.54,3.94,2.23,-0.90,-0.90,-0.88
34.57,-2.45,-1.58,-2.46,-1.58,1.54,3.90,2.21,-0.91,-0.91,-0.88
34.92,-2.46,-1.58,-2.45,-1.58,1.54,3.85,2.19,-0.92,-0.91,-0.88
35.27,-2.43,-1.56,-2.43,-1.55,1.53,3.81,2.17,-0.90,-0.89,-0.88
35.62,-2.39,-1.52,-2.39,-1.51,1.52,3.77,2.15,-0.87,-0.87,-0.88
35.97,-2.34,-1.47,-2.36,-1.48,1.50,3.73,2.12,-0.84,-0.85,-0.88
36.33,-2.34,-1.47,-2.34,-1.46,1.49,3.69,2.10,-0.85,-0.85,-0.88
36.70,-2.34,-1.47,-2.34,-1.46,1.48,3.65,2.07,-0.86,-0.86,-0.88
37.06,-2.34,-1.47,-2.34,-1.47,1.48,3.61,2.05,-0.87,-0.87,-0.88
37.43,-2.34,-1.47,-2.34,-1.47,1.47,3.57,2.02,-0.87,-0.87,-0.88
37.81,-2.34,-1.48,-2.34,-1.47,1.47,3.53,2.00,-0.88,-0.88,-0.87
38.19,-2.34,-1.48,-2.34,-1.48,1.45,3.50,1.98,-0.89,-0.89,-0.87
38.57,-2.33,-1.47,-2.34,-1.47,1.44,3.46,1.95,-0.89,-0.90,-0.87
38.95,-2.32,-1.46,-2.31,-1.45,1.42,3.42,1.93,-0.90,-0.89,-0.86
39.34,-2.26,-1.40,-2.26,-1.40,1.39,3.39,1.90,-0.87,-0.87,-0.86
39.74,-2.19,-1.34,-2.20,-1.34,1.36,3.35,1.88,-0.83,-0.84,-0.86
40.14,-2.14,-1.29,-2.16,-1.30,1.33,3.32,1.86,-0.81,-0.82,-0.86
40.54,-2.14,-1.29,-2.14,-1.28,1.31,3.28,1.84,-0.83,-0.83,-0.86
40.94,-2.14,-1.29,-2.14,-1.28,1.29,3.25,1.82,-0.85,-0.85,-0.86
41.35,-2.14,-1.28,-2.14,-1.28,1.28,3.22,1.80,-0.87,-0.87,-0.86
41.76,-2.14,-1.28,-2.14,-1.28,1.27,3.19,1.79,-0.87,-0.87,-0.87
42.18,-2.14,-1.28,-2.14,-1.28,1.27,3.16,1.77,-0.87,-0.87,-0.87
42.60,-2.14,-1.28,-2.14,-1.28,1.27,3.13,1.76,-0.87,-0.87,-0.87
43.03,-2.14,-1.28,-2.14,-1.27,1.27,3.10,1.74,-0.87,-0.87,-0.87
43.46,-2.14,-1.28,-2.14,-1.27,1.27,3.08,1.73,-0.87,-0.87,-0.87
43.90,-2.14,-1.27,-2.14,-1.27,1.27,3.05,1.72,-0.87,-0.87,-0.88
44.33,-2.14,-1.27,-2.14,-1.27,1.27,3.03,1.71,-0.88,-0.88,-0.88
44.78,-2.14,-1.27,-2.14,-1.26,1.27,3.00,1.71,-0.88,-0.88,-0.88
45.23,-2.14,-1.27,-2.14,-1.27,1.27,2.98,1.70,-0.88,-0.88,-0.88
45.68,-2.14,-1.27,-2.14,-1.27,1.27,2.96,1.70,-0.88,-0.88,-0.88
46.13,-2.14,-1.28,-2.14,-1.27,1.27,2.94,1.69,-0.87,-0.87,-0.87
46.60,-2.14,-1.28,-2.14,-1.28,1.27,2.93,1.69,-0.87,-0.87,-0.87
47.06,-2.14,-1.29,-2.14,-1.28,1.28,2.91,1.69,-0.86,-0.86,-0.86
47.53,-2.14,-1.30,-2.14,-1.29,1.30,2.90,1.69,-0.84,-0.84,-0.85
48.01,-2.14,-1.30,-2.14,-1.31,1.32,2.88,1.69,-0.82,-0.82,-0.84
48.49,-2.15,-1.32,-2.15,-1.33,1.34,2.87,1.69,-0.81,-0.81,-0.83
48.97,-2.17,-1.36,-2.18,-1.36,1.37,2.87,1.70,-0.80,-0.81,-0.82
49.46,-2.20,-1.40,-2.20,-1.40,1.39,2.86,1.70,-0.81,-0.81,-0.81
49.96,-2.24,-1.45,-2.23,-1.44,1.42,2.86,1.71,-0.82,-0.81,-0.79
50.46,-2.24,-1.46,-2.24,-1.47,1.44,2.85,1.71,-0.80,-0.80,-0.78
50.96,-2.24,-1.49,-2.25,-1.49,1.47,2.86,1.72,-0.77,-0.78,-0.76
51.47,-2.24,-1.50,-2.24,-1.49,1.50,2.86,1.73,-0.74,-0.74,-0.75
51.99,-2.24,-1.50,-2.23,-1.50,1.53,2.87,1.73,-0.71,-0.70,-0.74
52.51,-2.24,-1.51,-2.24,-1.51,1.56,2.87,1.74,-0.68,-0.68,-0.73
53.03,-2.24,-1.53,-2.28,-1.56,1.58,2.89,1.75,-0.66,-0.69,-0.72
53.56,-2.33,-1.63,-2.32,-1.62,1.61,2.90,1.76,-0.73,-0.72,-0.71
54.10,-2.39,-1.70,-2.36,-1.67,1.63,2.92,1.77,-0.76,-0.73,-0.69
54.64,-2.36,-1.69,-2.37,-1.69,1.65,2.93,1.77,-0.72,-0.73,-0.68
55.18,-2.34,-1.68,-2.36,-1.69,1.66,2.95,1.78,-0.68,-0.69,-0.67
55.74,-2.34,-1.68,-2.33,-1.67,1.68,2.98,1.79,-0.66,-0.65,-0.67
56.29,-2.33,-1.67,-2.32,-1.67,1.69,3.00,1.79,-0.64,-0.63,-0.66
56.86,-2.31,-1.67,-2.33,-1.68,1.71,3.02,1.80,-0.60,-0.62,-0.65
57.42,-2.34,-1.70,-2.35,-1.70,1.73,3.05,1.80,-0.61,-0.62,-0.65
58.00,-2.39,-1.74,-2.38,-1.73,1.75,3.07,1.80,-0.64,-0.63,-0.65
58.58,-2.42,-1.77,-2.42,-1.78,1.78,3.09,1.80,-0.64,-0.64,-0.65
59.16,-2.45,-1.81,-2.46,-1.81,1.80,3.11,1.80,-0.65,-0.66,-0.65
59.76,-2.50,-1.85,-2.51,-1.86,1.83,3.13,1.79,-0.67,-0.68,-0.65
60.35,-2.54,-1.89,-2.54,-1.89,1.85,3.13,1.79,-0.69,-0.69,-0.66
60.96,-2.58,-1.91,-2.55,-1.88,1.86,3.14,1.78,-0.72,-0.69,-0.67
61.57,-2.53,-1.86,-2.54,-1.86,1.87,3.13,1.77,-0.66,-0.67,-0.68
62.18,-2.51,-1.82,-2.54,-1.84,1.87,3.12,1.76,-0.64,-0.67,-0.70
62.80,-2.56,-1.85,-2.56,-1.84,1.86,3.10,1.74,-0.70,-0.70,-0.72
63.43,-2.61,-1.87,-2.60,-1.86,1.85,3.07,1.72,-0.76,-0.75,-0.75
64.07,-2.65,-1.88,-2.64,-1.87,1.84,3.03,1.70,-0.81,-0.80,-0.77
64.71,-2.65,-1.86,-2.65,-1.86,1.84,2.99,1.68,-0.81,-0.81,-0.80
65.35,-2.65,-1.83,-2.65,-1.83,1.85,2.93,1.66,-0.80,-0.80,-0.82
66.01,-2.65,-1.82,-2.64,-1.81,1.86,2.87,1.63,-0.79,-0.79,-0.84
66.67,-2.65,-1.80,-2.67,-1.82,1.86,2.80,1.60,-0.79,-0.81,-0.86
67.33,-2.70,-1.84,-2.73,-1.86,1.85,2.73,1.57,-0.85,-0.88,-0.87
68.01,-2.81,-1.92,-2.78,-1.89,1.84,2.65,1.54,-0.97,-0.94,-0.89
68.69,-2.81,-1.92,-2.79,-1.89,1.83,2.57,1.51,-0.98,-0.96,-0.90
69.37,-2.75,-1.84,-2.75,-1.84,1.82,2.49,1.47,-0.93,-0.93,-0.91
70.07,-2.65,-1.74,-2.69,-1.77,1.80,2.40,1.43,-0.85,-0.88,-0.92
70.77,-2.65,-1.73,-2.65,-1.73,1.78,2.32,1.39,-0.87,-0.87,-0.93
71.48,-2.65,-1.73,-2.64,-1.72,1.75,2.24,1.35,-0.90,-0.89,-0.93
72.19,-2.65,-1.72,-2.65,-1.72,1.71,2.16,1.31,-0.94,-0.94,-0.94
72.91,-2.65,-1.70,-2.64,-1.70,1.68,2.08,1.27,-0.97,-0.97,-0.95
73.64,-2.62,-1.66,-2.62,-1.66,1.64,2.00,1.23,-0.98,-0.98,-0.96
74.38,-2.57,-1.61,-2.57,-1.60,1.59,1.92,1.19,-0.98,-0.97,-0.97
75.12,-2.51,-1.53,-2.53,-1.55,1.54,1.85,1.14,-0.97,-0.99,-0.98
75.87,-2.46,-1.47,-2.49,-1.50,1.48,1.78,1.10,-0.99,-1.02,-1.00
76.63,-2.48,-1.47,-2.42,-1.42,1.40,1.71,1.06,-1.08,-1.02,-1.01
77.40,-2.37,-1.35,-2.35,-1.33,1.33,1.65,1.01,-1.04,-1.02,-1.03
78.17,-2.20,-1.17,-2.27,-1.23,1.26,1.58,0.97,-0.94,-1.02,-1.04
78.95,-2.22,-1.16,-2.20,-1.14,1.19,1.52,0.92,-1.03,-1.01,-1.06
79.74,-2.17,-1.10,-2.17,-1.10,1.12,1.46,0.88,-1.05,-1.04,-1.07
80.54,-2.14,-1.05,-2.14,-1.06,1.05,1.41,0.84,-1.09,-1.09,-1.09
81.35,-2.11,-1.02,-2.10,-1.00,0.98,1.35,0.79,-1.13,-1.11,-1.10
82.16,-2.03,-0.92,-2.05,-0.95,0.92,1.30,0.75,-1.11,-1.13,-1.11
82.98,-2.00,-0.88,-2.00,-0.88,0.85,1.25,0.70,-1.15,-1.14,-1.12
83.81,-1.94,-0.81,-1.92,-0.80,0.79,1.21,0.66,-1.15,-1.13,-1.13
84.65,-1.83,-0.70,-1.84,-0.71,0.72,1.16,0.62,-1.11,-1.12,-1.13
85.50,-1.74,-0.61,-1.75,-0.61,0.64,1.12,0.58,-1.10,-1.10,-1.14
86.35,-1.68,-0.53,-1.70,-0.56,0.57,1.07,0.53,-1.11,-1.14,-1.15
87.22,-1.65,-0.50,-1.65,-0.50,0.49,1.03,0.49,-1.16,-1.17,-1.16
88.09,-1.66,-0.50,-1.58,-0.42,0.41,0.99,0.45,-1.25,-1.17,-1.17
88.97,-1.46,-0.30,-1.53,-0.36,0.33,0.96,0.41,-1.13,-1.20,-1.17
89.86,-1.42,-0.25,-1.46,-0.28,0.27,0.92,0.37,-1.15,-1.19,-1.18
90.76,-1.46,-0.27,-1.37,-0.19,0.21,0.89,0.33,-1.25,-1.16,-1.19
91.66,-1.30,-0.11,-1.31,-0.12,0.15,0.85,0.29,-1.15,-1.16,-1.19
92.58,-1.20,-0.02,-1.25,-0.06,0.10,0.82,0.25,-1.10,-1.15,-1.19
93.51,-1.21,-0.02,-1.22,-0.03,0.05,0.79,0.21,-1.16,-1.17,-1.20
94.44,-1.25,-0.06,-1.23,-0.04,0.01,0.76,0.17,-1.24,-1.22,-1.20
95.39,-1.25,-0.06,-1.20,-0.01,-0.03,0.73,0.13,-1.28,-1.23,-1.20
96.34,-1.14,0.05,-1.15,0.05,-0.07,0.70,0.09,-1.21,-1.21,-1.20
97.30,-1.02,0.17,-1.10,0.10,-0.11,0.67,0.05,-1.13,-1.20,-1.20
98.28,-1.07,0.14,-1.05,0.16,-0.15,0.65,0.01,-1.22,-1.19,-1.21
99.26,-1.06,0.14,-1.00,0.20,-0.19,0.62,-0.03,-1.26,-1.19,-1.21
100.25,-0.93,0.28,-0.97,0.24,-0.25,0.59,-0.06,-1.18,-1.21,-1.21
101.25,-0.87,0.33,-0.92,0.29,-0.30,0.57,-0.10,-1.17,-1.22,-1.21
102.27,-0.92,0.30,-0.88,0.34,-0.34,0.55,-0.13,-1.27,-1.22,-1.22
103.29,-0.87,0.35,-0.85,0.38,-0.38,0.52,-0.17,-1.25,-1.23,-1.23
104.32,-0.79,0.45,-0.80,0.43,-0.41,0.50,-0.20,-1.21,-1.22,-1.24
105.37,-0.73,0.50,-0.77,0.47,-0.44,0.48,-0.24,-1.17,-1.21,-1.24
106.42,-0.77,0.47,-0.77,0.47,-0.46,0.46,-0.27,-1.23,-1.23,-1.25
107.48,-0.83,0.43,-0.79,0.47,-0.47,0.44,-0.30,-1.30,-1.26,-1.26
108.56,-0.79,0.47,-0.79,0.47,-0.48,0.42,-0.33,-1.28,-1.28,-1.27
109.64,-0.76,0.51,-0.79,0.49,-0.49,0.40,-0.36,-1.26,-1.28,-1.28
110.74,-0.78,0.49,-0.79,0.49,-0.50,0.38,-0.39,-1.28,-1.29,-1.28
111.85,-0.80,0.48,-0.79,0.49,-0.50,0.37,-0.42,-1.30,-1.29,-1.28
112.97,-0.80,0.47,-0.76,0.51,-0.51,0.35,-0.45,-1.31,-1.27,-1.28
114.10,-0.69,0.58,-0.74,0.54,-0.53,0.33,-0.47,-1.22,-1.26,-1.28
115.24,-0.69,0.57,-0.72,0.55,-0.55,0.32,-0.49,-1.25,-1.27,-1.27
116.39,-0.73,0.53,-0.70,0.56,-0.58,0.30,-0.51,-1.31,-1.28,-1.27
117.55,-0.70,0.55,-0.69,0.56,-0.61,0.29,-0.53,-1.31,-1.29,-1.25
118.73,-0.62,0.61,-0.62,0.61,-0.63,0.27,-0.55,-1.25,-1.25,-1.24
119.92,-0.54,0.67,-0.54,0.68,-0.64,0.26,-0.57,-1.18,-1.18,-1.22
121.12,-0.45,0.74,-0.48,0.71,-0.65,0.24,-0.58,-1.11,-1.14,-1.20
122.33,-0.47,0.71,-0.47,0.71,-0.67,0.23,-0.59,-1.14,-1.14,-1.18
123.55,-0.49,0.66,-0.49,0.67,-0.68,0.22,-0.60,-1.17,-1.17,-1.16
124.79,-0.50,0.64,-0.50,0.64,-0.69,0.21,-0.61,-1.19,-1.19,-1.14
126.03,-0.50,0.62,-0.47,0.65,-0.69,0.19,-0.62,-1.20,-1.16,-1.12
127.29,-0.40,0.70,-0.42,0.68,-0.69,0.18,-0.62,-1.09,-1.11,-1.10
128.57,-0.34,0.73,-0.37,0.71,-0.69,0.17,-0.62,-1.03,-1.06,-1.08
129.85,-0.34,0.71,-0.33,0.72,-0.69,0.16,-0.62,-1.03,-1.02,-1.06
131.15,-0.33,0.70,-0.33,0.71,-0.69,0.15,-0.62,-1.02,-1.02,-1.04
132.46,-0.33,0.69,-0.33,0.69,-0.69,0.14,-0.62,-1.02,-1.02,-1.03
133.79,-0.32,0.68,-0.32,0.68,-0.69,0.13,-0.61,-1.01,-1.02,-1.01
135.12,-0.32,0.67,-0.32,0.67,-0.68,0.12,-0.61,-1.00,-1.00,-1.00
136.48,-0.32,0.66,-0.32,0.66,-0.67,0.11,-0.60,-1.00,-0.99,-0.98
137.84,-0.31,0.65,-0.31,0.65,-0.66,0.10,-0.59,-0.98,-0.98,-0.97
139.22,-0.31,0.64,-0.31,0.64,-0.65,0.10,-0.58,-0.96,-0.96,-0.96
140.61,-0.31,0.63,-0.31,0.64,-0.64,0.09,-0.56,-0.95,-0.94,-0.95
142.02,-0.31,0.62,-0.30,0.64,-0.62,0.08,-0.55,-0.93,-0.92,-0.94
143.44,-0.30,0.63,-0.31,0.63,-0.60,0.07,-0.53,-0.91,-0.91,-0.94
144.87,-0.32,0.61,-0.34,0.59,-0.59,0.07,-0.52,-0.91,-0.93,-0.94
146.32,-0.40,0.53,-0.41,0.53,-0.57,0.06,-0.50,-0.97,-0.97,-0.94
147.78,-0.49,0.45,-0.45,0.49,-0.53,0.05,-0.48,-1.02,-0.98,-0.95
149.26,-0.51,0.45,-0.49,0.47,-0.47,0.05,-0.47,-0.99,-0.97,-0.96
150.75,-0.49,0.48,-0.53,0.45,-0.40,0.04,-0.45,-0.89,-0.93,-0.98
152.26,-0.60,0.40,-0.61,0.40,-0.31,0.04,-0.43,-0.91,-0.92,-1.01
153.78,-0.75,0.28,-0.75,0.29,-0.21,0.03,-0.41,-0.96,-0.96,-1.04
155.32,-0.94,0.13,-0.94,0.13,-0.11,0.03,-0.39,-1.05,-1.05,-1.08
156.88,-1.13,-0.02,-1.13,-0.02,-0.02,0.02,-0.37,-1.15,-1.14,-1.11
158.44,-1.28,-0.14,-1.28,-0.14,0.06,0.02,-0.35,-1.22,-1.22,-1.15
160.03,-1.39,-0.21,-1.38,-0.20,0.12,0.02,-0.33,-1.27,-1.25,-1.18
161.63,-1.41,-0.22,-1.41,-0.21,0.15,0.01,-0.31,-1.26,-1.27,-1.20
163.24,-1.39,-0.16,-1.40,-0.18,0.14,0.01,-0.29,-1.25,-1.26,-1.23
164.88,-1.35,-0.12,-1.35,-0.11,0.09,0.01,-0.27,-1.26,-1.25,-1.24
166.53,-1.27,-0.03,-1.27,-0.03,0.03,0.00,-0.24,-1.24,-1.24,-1.25
168.19,-1.18,0.07,-1.18,0.07,-0.04,-0.00,-0.22,-1.22,-1.22,-1.25
169.87,-1.09,0.15,-1.08,0.16,-0.11,-0.00,-0.20,-1.20,-1.19,-1.24
171.57,-0.99,0.23,-1.01,0.22,-0.16,-0.01,-0.18,-1.15,-1.17,-1.23
173.29,-0.96,0.24,-0.97,0.24,-0.20,-0.01,-0.16,-1.17,-1.17,-1.21
175.02,-0.95,0.22,-0.95,0.23,-0.23,-0.01,-0.14,-1.18,-1.18,-1.18
176.77,-0.96,0.18,-0.94,0.21,-0.23,-0.01,-0.12,-1.19,-1.17,-1.15
178.54,-0.92,0.19,-0.91,0.20,-0.21,-0.01,-0.10,-1.14,-1.13,-1.12
180.32,-0.87,0.20,-0.89,0.19,-0.19,-0.01,-0.08,-1.06,-1.07,-1.08
182.13,-0.86,0.18,-0.88,0.16,-0.15,-0.01,-0.06,-1.01,-1.02,-1.05
183.95,-0.90,0.11,-0.89,0.12,-0.10,-0.02,-0.04,-1.01,-0.99,-1.01
185.79,-0.93,0.06,-0.92,0.07,-0.06,-0.02,-0.02,-0.99,-0.98,-0.99
187.65,-0.93,0.04,-0.95,0.01,-0.03,-0.02,-0.00,-0.96,-0.98,-0.97
189.52,-0.98,-0.04,-0.97,-0.02,0.00,-0.02,0.02,-0.98,-0.97,-0.95
191.42,-0.99,-0.06,-0.99,-0.06,0.03,-0.02,0.04,-0.96,-0.96,-0.94
193.33,-0.99,-0.08,-1.00,-0.08,0.05,-0.02,0.05,-0.95,-0.95,-0.92
195.27,-0.99,-0.09,-0.98,-0.07,0.06,-0.02,0.07,-0.93,-0.92,-0.91
197.22,-0.96,-0.06,-0.96,-0.06,0.07,-0.02,0.09,-0.89,-0.89,-0.91
199.19,-0.93,-0.04,-0.94,-0.04,0.07,-0.02,0.11,-0.86,-0.87,-0.90
201.18,-0.93,-0.04,-0.95,-0.05,0.08,-0.02,0.13,-0.85,-0.87,-0.90
203.19,-0.98,-0.09,-0.97,-0.08,0.09,-0.02,0.15,-0.89,-0.88,-0.90
205.23,-1.02,-0.12,-1.00,-0.11,0.10,-0.02,0.16,-0.92,-0.90,-0.90
207.28,-1.02,-0.13,-1.03,-0.14,0.12,-0.02,0.18,-0.90,-0.91,-0.90
209.35,-1.04,-0.15,-1.06,-0.16,0.14,-0.02,0.20,-0.90,-0.91,-0.90
211.44,-1.10,-0.20,-1.08,-0.18,0.17,-0.02,0.21,-0.93,-0.91,-0.91
213.56,-1.12,-0.22,-1.12,-0.21,0.21,-0.02,0.23,-0.91,-0.91,-0.91
215.69,-1.13,-0.22,-1.16,-0.24,0.25,-0.01,0.24,-0.88,-0.91,-0.92
217.85,-1.21,-0.30,-1.18,-0.26,0.29,-0.01,0.26,-0.92,-0.89,-0.92
220.03,-1.23,-0.31,-1.24,-0.31,0.34,-0.01,0.27,-0.89,-0.90,-0.93
222.23,-1.27,-0.35,-1.31,-0.38,0.38,-0.01,0.28,-0.89,-0.92,-0.93
224.45,-1.39,-0.47,-1.37,-0.44,0.43,-0.01,0.30,-0.96,-0.94,-0.93
226.70,-1.44,-0.51,-1.42,-0.49,0.47,-0.01,0.31,-0.97,-0.95,-0.93
228.96,-1.44,-0.52,-1.44,-0.52,0.51,-0.01,0.32,-0.94,-0.94,-0.93
231.25,-1.43,-0.52,-1.46,-0.54,0.53,-0.01,0.33,-0.90,-0.93,-0.92
233.57,-1.45,-0.53,-1.47,-0.55,0.54,-0.01,0.33,-0.91,-0.93,-0.92
235.90,-1.51,-0.60,-1.46,-0.56,0.54,-0.01,0.34,-0.97,-0.92,-0.91
238.26,-1.44,-0.55,-1.44,-0.54,0.53,-0.01,0.35,-0.91,-0.91,-0.90
240.64,-1.36,-0.49,-1.40,-0.52,0.51,-0.01,0.35,-0.85,-0.88,-0.88
243.05,-1.35,-0.49,-1.35,-0.48,0.50,-0.01,0.36,-0.85,-0.85,-0.87
245.48,-1.34,-0.49,-1.33,-0.47,0.49,-0.00,0.36,-0.85,-0.84,-0.86
247.93,-1.31,-0.47,-1.31,-0.47,0.48,-0.00,0.36,-0.83,-0.83,-0.85
250.41,-1.29,-0.46,-1.29,-0.45,0.48,-0.00,0.36,-0.81,-0.81,-0.84
252.92,-1.28,-0.46,-1.29,-0.46,0.49,-0.00,0.36,-0.80,-0.81,-0.83
255.45,-1.30,-0.48,-1.32,-0.49,0.50,-0.00,0.36,-0.80,-0.82,-0.83
258.00,-1.37,-0.55,-1.35,-0.52,0.51,-0.00,0.35,-0.86,-0.84,-0.83
260.58,-1.38,-0.56,-1.37,-0.54,0.52,-0.00,0.35,-0.86,-0.85,-0.83
263.19,-1.36,-0.54,-1.37,-0.54,0.52,-0.00,0.34,-0.84,-0.85,-0.83
265.82,-1.35,-0.53,-1.36,-0.54,0.51,-0.00,0.33,-0.84,-0.85,-0.83
268.48,-1.35,-0.53,-1.36,-0.53,0.51,-0.00,0.33,-0.84,-0.85,-0.83
271.16,-1.36,-0.53,-1.33,-0.50,0.50,-0.00,0.32,-0.86,-0.82,-0.83
273.87,-1.29,-0.46,-1.29,-0.46,0.49,-0.00,0.31,-0.80,-0.79,-0.83
276.61,-1.21,-0.39,-1.25,-0.42,0.48,-0.00,0.29,-0.73,-0.77,-0.83
279.38,-1.23,-0.41,-1.23,-0.41,0.45,-0.01,0.28,-0.78,-0.78,-0.83
282.17,-1.25,-0.44,-1.27,-0.46,0.42,-0.01,0.27,-0.84,-0.86,-0.82
284.99,-1.29,-0.49,-1.28,-0.47,0.38,-0.01,0.25,-0.91,-0.90,-0.81
287.84,-1.31,-0.50,-1.22,-0.41,0.36,-0.01,0.24,-0.95,-0.86,-0.81
290.72,-1.07,-0.27,-1.12,-0.33,0.34,-0.01,0.22,-0.73,-0.78,-0.80
293.63,-0.97,-0.19,-1.03,-0.24,0.31,-0.01,0.21,-0.66,-0.72,-0.79
296.57,-1.00,-0.22,-0.97,-0.19,0.28,-0.01,0.19,-0.72,-0.69,-0.78
299.53,-1.00,-0.23,-0.99,-0.22,0.23,-0.02,0.17,-0.77,-0.75,-0.78
302.53,-0.98,-0.22,-1.03,-0.26,0.19,-0.02,0.16,-0.80,-0.84,-0.77
305.55,-1.02,-0.26,-0.99,-0.22,0.15,-0.02,0.14,-0.87,-0.84,-0.77
308.61,-1.00,-0.24,-0.91,-0.15,0.12,-0.02,0.12,-0.88,-0.79,-0.77
311.69,-0.73,0.03,-0.82,-0.06,0.09,-0.03,0.10,-0.64,-0.73,-0.77
314.81,-0.73,0.04,-0.76,0.01,0.05,-0.03,0.08,-0.68,-0.71,-0.78
317.96,-0.76,0.01,-0.74,0.03,-0.01,-0.03,0.07,-0.77,-0.75,-0.78
321.14,-0.80,-0.02,-0.77,0.01,-0.06,-0.04,0.05,-0.86,-0.84,-0.79
324.35,-0.74,0.04,-0.73,0.06,-0.11,-0.04,0.03,-0.85,-0.84,-0.79
327.59,-0.66,0.14,-0.65,0.15,-0.15,-0.05,0.01,-0.81,-0.79,-0.80
330.87,-0.54,0.26,-0.57,0.24,-0.18,-0.05,-0.01,-0.72,-0.75,-0.81
334.18,-0.51,0.30,-0.55,0.26,-0.21,-0.06,-0.03,-0.72,-0.76,-0.82
337.52,-0.59,0.23,-0.57,0.26,-0.24,-0.06,-0.05,-0.83,-0.81,-0.83
340.90,-0.61,0.21,-0.58,0.25,-0.29,-0.07,-0.07,-0.90,-0.86,-0.83
344.30,-0.55,0.29,-0.56,0.28,-0.33,-0.07,-0.09,-0.89,-0.89,-0.84
347.75,-0.48,0.37,-0.51,0.35,-0.38,-0.08,-0.11,-0.86,-0.89,-0.86
351.23,-0.46,0.40,-0.45,0.41,-0.42,-0.08,-0.13,-0.88,-0.87,-0.87
354.74,-0.41,0.46,-0.40,0.47,-0.46,-0.09,-0.15,-0.87,-0.86,-0.88
358.28,-0.35,0.54,-0.34,0.54,-0.52,-0.10,-0.17,-0.87,-0.86,-0.89
361.87,-0.27,0.62,-0.28,0.62,-0.58,-0.10,-0.19,-0.85,-0.86,-0.90
365.49,-0.24,0.67,-0.25,0.66,-0.64,-0.11,-0.21,-0.88,-0.89,-0.92
369.14,-0.23,0.69,-0.26,0.67,-0.70,-0.12,-0.23,-0.93,-0.96,-0.93
372.83,-0.25,0.68,-0.23,0.71,-0.76,-0.13,-0.26,-1.01,-0.98,-0.94
376.56,-0.23,0.72,-0.16,0.79,-0.81,-0.14,-0.28,-1.04,-0.97,-0.95
380.33,-0.01,0.94,-0.08,0.88,-0.86,-0.15,-0.30,-0.87,-0.94,-0.96
384.13,0.01,0.97,-0.02,0.95,-0.91,-0.15,-0.32,-0.90,-0.92,-0.97
387.97,-0.00,0.97,0.01,0.99,-0.95,-0.16,-0.34,-0.95,-0.94,-0.98
391.85,-0.02,0.96,0.01,1.00,-1.00,-0.17,-0.36,-1.02,-0.99,-0.99
395.77,0.04,1.03,0.04,1.04,-1.05,-0.18,-0.38,-1.01,-1.01,-1.00
399.73,0.10,1.10,0.07,1.08,-1.10,-0.19,-0.40,-1.00,-1.03,-1.01
403.72,0.11,1.12,0.10,1.12,-1.14,-0.20,-0.42,-1.03,-1.04,-1.02
407.76,0.10,1.13,0.13,1.16,-1.18,-0.22,-0.45,-1.08,-1.05,-1.04
411.84,0.17,1.21,0.17,1.22,-1.22,-0.23,-0.47,-1.05,-1.05,-1.05
415.96,0.24,1.29,0.23,1.29,-1.26,-0.24,-0.49,-1.03,-1.03,-1.06
420.12,0.30,1.35,0.29,1.35,-1.30,-0.25,-0.51,-1.01,-1.02,-1.06
424.32,0.31,1.37,0.31,1.37,-1.34,-0.26,-0.53,-1.04,-1.03,-1.07
428.56,0.32,1.38,0.31,1.38,-1.38,-0.27,-0.55,-1.07,-1.07,-1.07
432.85,0.32,1.37,0.33,1.38,-1.43,-0.29,-0.57,-1.11,-1.10,-1.06
437.18,0.35,1.39,0.38,1.42,-1.47,-0.30,-0.59,-1.12,-1.09,-1.05
