frequency,raw,error,smoothed,error_smoothed,equalization,parametric_eq,fixed_band_eq,equalized_raw,equalized_smoothed,target
20.00,5.47,-1.11,5.47,-1.11,1.11,0.82,0.21,6.59,6.59,6.58
20.20,5.48,-1.10,5.48,-1.10,1.10,0.82,0.21,6.58,6.58,6.58
20.40,5.49,-1.08,5.49,-1.08,1.08,0.81,0.22,6.57,6.57,6.57
20.61,5.50,-1.07,5.50,-1.07,1.07,0.81,0.23,6.57,6.57,6.57
20.81,5.51,-1.05,5.52,-1.05,1.05,0.81,0.23,6.56,6.57,6.56
21.02,5.53,-1.03,5.53,-1.03,1.03,0.80,0.24,6.57,6.56,6.56
21.23,5.53,-1.02,5.54,-1.02,1.02,0.80,0.25,6.55,6.55,6.55
21.44,5.54,-1.01,5.54,-1.00,1.00,0.79,0.26,6.54,6.55,6.55
21.66,5.55,-0.99,5.55,-0.99,0.99,0.79,0.27,6.54,6.54,6.54
21.87,5.56,-0.98,5.57,-0.97,0.97,0.78,0.27,6.53,6.54,6.54
22.09,5.58,-0.95,5.58,-0.95,0.95,0.78,0.28,6.54,6.53,6.53
22.31,5.59,-0.93,5.59,-0.94,0.94,0.77,0.29,6.53,6.53,6.53
22.54,5.60,-0.92,5.60,-0.92,0.92,0.77,0.30,6.52,6.53,6.53
22.76,5.61,-0.90,5.61,-0.91,0.91,0.76,0.31,6.52,6.52,6.52
22.99,5.62,-0.89,5.62,-0.89,0.89,0.76,0.32,6.51,6.51,6.52
23.22,5.63,-0.87,5.63,-0.88,0.87,0.75,0.33,6.51,6.51,6.51
23.45,5.64,-0.86,5.64,-0.86,0.86,0.75,0.34,6.50,6.50,6.50
23.69,5.65,-0.85,5.66,-0.84,0.84,0.74,0.35,6.50,6.50,6.50
23.92,5.67,-0.82,5.67,-0.83,0.83,0.74,0.36,6.50,6.50,6.49
24.16,5.68,-0.81,5.68,-0.81,0.82,0.73,0.37,6.50,6.50,6.49
24.40,5.68,-0.81,5.69,-0.80,0.80,0.73,0.38,6.49,6.49,6.49
24.65,5.69,-0.80,5.69,-0.79,0.79,0.72,0.40,6.48,6.48,6.49
24.89,5.70,-0.78,5.70,-0.78,0.78,0.72,0.41,6.48,6.48,6.48
25.14,5.71,-0.77,5.71,-0.77,0.77,0.71,0.42,6.48,6.48,6.48
25.39,5.72,-0.75,5.72,-0.75,0.76,0.70,0.43,6.48,6.48,6.48
25.65,5.73,-0.74,5.73,-0.74,0.74,0.70,0.44,6.48,6.48,6.48
25.91,5.74,-0.73,5.74,-0.73,0.73,0.69,0.45,6.47,6.47,6.48
26.16,5.75,-0.72,5.75,-0.72,0.72,0.69,0.46,6.47,6.47,6.47
26.43,5.76,-0.71,5.76,-0.71,0.71,0.68,0.47,6.47,6.47,6.47
26.69,5.77,-0.69,5.77,-0.69,0.69,0.67,0.48,6.47,6.47,6.46
26.96,5.78,-0.68,5.78,-0.68,0.68,0.67,0.49,6.46,6.46,6.46
27.23,5.79,-0.67,5.79,-0.67,0.67,0.66,0.50,6.46,6.46,6.46
27.50,5.80,-0.65,5.80,-0.65,0.65,0.65,0.51,6.46,6.46,6.46
27.77,5.81,-0.64,5.81,-0.64,0.64,0.64,0.52,6.45,6.45,6.46
28.05,5.82,-0.62,5.82,-0.63,0.62,0.64,0.53,6.45,6.45,6.45
28.33,5.83,-0.61,5.83,-0.61,0.61,0.63,0.54,6.44,6.44,6.44
28.62,5.84,-0.60,5.84,-0.59,0.60,0.62,0.54,6.44,6.44,6.44
28.90,5.85,-0.58,5.85,-0.58,0.58,0.61,0.55,6.43,6.43,6.43
29.19,5.86,-0.57,5.86,-0.57,0.57,0.61,0.56,6.43,6.43,6.43
29.48,5.86,-0.56,5.87,-0.55,0.55,0.60,0.56,6.42,6.42,6.43
29.78,5.88,-0.53,5.88,-0.54,0.54,0.59,0.56,6.42,6.42,6.42
30.08,5.88,-0.53,5.88,-0.53,0.53,0.58,0.57,6.41,6.41,6.41
30.38,5.89,-0.52,5.90,-0.52,0.52,0.57,0.57,6.41,6.41,6.41
30.68,5.90,-0.51,5.90,-0.51,0.51,0.56,0.57,6.41,6.41,6.41
30.99,5.91,-0.49,5.91,-0.50,0.50,0.56,0.57,6.41,6.41,6.41
31.30,5.91,-0.49,5.92,-0.49,0.49,0.55,0.56,6.40,6.41,6.41
31.61,5.92,-0.49,5.92,-0.49,0.48,0.54,0.56,6.41,6.41,6.41
31.93,5.93,-0.48,5.93,-0.48,0.47,0.53,0.56,6.41,6.41,6.41
32.24,5.94,-0.47,5.94,-0.47,0.46,0.52,0.55,6.41,6.41,6.41
32.57,5.95,-0.45,5.95,-0.45,0.46,0.51,0.54,6.41,6.41,6.41
32.89,5.96,-0.44,5.96,-0.44,0.44,0.50,0.54,6.41,6.41,6.40
33.22,5.97,-0.43,5.97,-0.43,0.43,0.49,0.53,6.41,6.40,6.40
33.55,5.97,-0.42,5.98,-0.42,0.42,0.48,0.52,6.39,6.39,6.40
33.89,5.98,-0.41,5.98,-0.41,0.40,0.47,0.51,6.39,6.39,6.39
34.23,5.99,-0.39,5.99,-0.39,0.39,0.46,0.50,6.38,6.38,6.38
34.57,6.00,-0.38,6.00,-0.37,0.37,0.45,0.48,6.38,6.38,6.38
34.92,6.01,-0.35,6.01,-0.35,0.36,0.44,0.47,6.37,6.37,6.37
35.27,6.01,-0.34,6.02,-0.34,0.34,0.43,0.46,6.35,6.36,6.35
35.62,6.02,-0.32,6.02,-0.32,0.32,0.41,0.44,6.35,6.34,6.34
35.97,6.02,-0.31,6.02,-0.31,0.30,0.40,0.43,6.33,6.33,6.33
36.33,6.03,-0.29,6.03,-0.29,0.28,0.39,0.41,6.31,6.31,6.32
36.70,6.03,-0.26,6.04,-0.27,0.26,0.38,0.40,6.29,6.30,6.30
37.06,6.04,-0.24,6.04,-0.24,0.24,0.37,0.38,6.28,6.29,6.28
37.43,6.05,-0.22,6.05,-0.22,0.22,0.35,0.37,6.27,6.27,6.27
37.81,6.06,-0.19,6.06,-0.20,0.20,0.34,0.35,6.26,6.26,6.25
38.19,6.06,-0.18,6.07,-0.18,0.18,0.33,0.33,6.24,6.24,6.24
38.57,6.07,-0.16,6.07,-0.16,0.16,0.32,0.32,6.23,6.23,6.24
38.95,6.08,-0.14,6.08,-0.14,0.14,0.30,0.30,6.22,6.22,6.22
39.34,6.08,-0.12,6.09,-0.12,0.12,0.29,0.28,6.20,6.21,6.21
39.74,6.09,-0.11,6.09,-0.10,0.11,0.28,0.27,6.20,6.20,6.20
40.14,6.10,-0.08,6.10,-0.09,0.09,0.26,0.25,6.19,6.19,6.18
40.54,6.09,-0.09,6.10,-0.08,0.08,0.25,0.23,6.17,6.18,6.18
40.94,6.11,-0.06,6.11,-0.06,0.06,0.23,0.22,6.18,6.17,6.17
41.35,6.11,-0.05,6.11,-0.05,0.05,0.22,0.20,6.17,6.17,6.17
41.76,6.12,-0.04,6.12,-0.04,0.04,0.20,0.18,6.16,6.16,6.16
42.18,6.12,-0.03,6.12,-0.03,0.03,0.19,0.17,6.15,6.15,6.15
42.60,6.12,-0.02,6.13,-0.02,0.02,0.17,0.15,6.14,6.15,6.15
43.03,6.13,-0.01,6.13,-0.01,0.01,0.16,0.14,6.14,6.14,6.14
43.46,6.13,-0.00,6.14,0.00,0.00,0.14,0.12,6.13,6.14,6.13
43.90,6.14,0.02,6.14,0.01,-0.01,0.13,0.10,6.14,6.13,6.13
44.33,6.14,0.01,6.14,0.02,-0.02,0.11,0.09,6.13,6.13,6.13
44.78,6.14,0.02,6.14,0.02,-0.03,0.09,0.07,6.12,6.12,6.12
45.23,6.14,0.03,6.15,0.03,-0.03,0.07,0.06,6.11,6.11,6.11
45.68,6.15,0.04,6.15,0.04,-0.04,0.06,0.04,6.11,6.11,6.11
46.13,6.16,0.06,6.16,0.06,-0.05,0.04,0.03,6.11,6.11,6.10
46.60,6.16,0.07,6.16,0.07,-0.07,0.02,0.01,6.10,6.10,6.10
47.06,6.16,0.08,6.16,0.08,-0.08,0.00,-0.00,6.08,6.09,6.09
47.53,6.16,0.09,6.17,0.09,-0.09,-0.02,-0.02,6.07,6.07,6.08
48.01,6.17,0.11,6.17,0.11,-0.11,-0.03,-0.03,6.06,6.06,6.07
48.49,6.17,0.13,6.17,0.12,-0.12,-0.05,-0.05,6.05,6.05,6.04
48.97,6.17,0.14,6.18,0.14,-0.14,-0.07,-0.06,6.03,6.04,6.03
49.46,6.18,0.16,6.18,0.16,-0.16,-0.09,-0.08,6.02,6.02,6.02
49.96,6.18,0.18,6.18,0.18,-0.18,-0.11,-0.09,6.01,6.00,6.00
50.46,6.17,0.18,6.18,0.19,-0.20,-0.13,-0.11,5.98,5.98,5.99
50.96,6.18,0.22,6.18,0.21,-0.22,-0.15,-0.12,5.97,5.96,5.97
51.47,6.18,0.23,6.18,0.24,-0.24,-0.18,-0.14,5.95,5.95,5.95
51.99,6.19,0.26,6.19,0.26,-0.26,-0.20,-0.15,5.94,5.93,5.93
52.51,6.19,0.28,6.19,0.28,-0.28,-0.22,-0.17,5.92,5.92,5.92
53.03,6.19,0.29,6.20,0.30,-0.30,-0.24,-0.18,5.90,5.90,5.90
53.56,6.19,0.32,6.19,0.32,-0.32,-0.26,-0.20,5.88,5.88,5.88
54.10,6.20,0.34,6.20,0.34,-0.33,-0.29,-0.21,5.87,5.86,5.86
54.64,6.19,0.35,6.20,0.36,-0.35,-0.31,-0.23,5.84,5.85,5.84
55.18,6.20,0.37,6.20,0.37,-0.37,-0.33,-0.24,5.83,5.83,5.83
55.74,6.20,0.38,6.20,0.38,-0.39,-0.36,-0.26,5.82,5.82,5.82
56.29,6.20,0.40,6.20,0.40,-0.40,-0.38,-0.28,5.80,5.80,5.80
56.86,6.20,0.42,6.20,0.42,-0.42,-0.41,-0.29,5.78,5.78,5.79
57.42,6.20,0.44,6.20,0.44,-0.44,-0.43,-0.31,5.76,5.77,5.77
58.00,6.20,0.46,6.21,0.46,-0.46,-0.46,-0.33,5.75,5.75,5.75
58.58,6.21,0.49,6.21,0.48,-0.48,-0.48,-0.35,5.74,5.73,5.73
59.16,6.20,0.50,6.21,0.50,-0.50,-0.51,-0.36,5.71,5.71,5.71
59.76,6.20,0.52,6.20,0.52,-0.52,-0.54,-0.38,5.68,5.68,5.69
60.35,6.20,0.54,6.20,0.54,-0.54,-0.56,-0.40,5.66,5.66,5.66
60.96,6.20,0.57,6.20,0.57,-0.57,-0.59,-0.42,5.63,5.63,5.63
61.57,6.20,0.59,6.20,0.59,-0.59,-0.62,-0.44,5.61,5.61,5.61
62.18,6.20,0.62,6.20,0.62,-0.62,-0.65,-0.46,5.58,5.58,5.58
62.80,6.20,0.65,6.20,0.65,-0.65,-0.68,-0.48,5.56,5.55,5.55
63.43,6.20,0.68,6.20,0.68,-0.68,-0.70,-0.51,5.53,5.53,5.52
64.07,6.19,0.70,6.19,0.70,-0.70,-0.73,-0.53,5.49,5.49,5.49
64.71,6.19,0.73,6.19,0.73,-0.73,-0.76,-0.55,5.46,5.46,5.46
65.35,6.18,0.75,6.19,0.76,-0.76,-0.79,-0.57,5.43,5.43,5.43
66.01,6.19,0.79,6.19,0.78,-0.78,-0.82,-0.60,5.41,5.41,5.41
66.67,6.19,0.82,6.19,0.81,-0.81,-0.86,-0.62,5.38,5.38,5.38
67.33,6.18,0.83,6.19,0.84,-0.84,-0.89,-0.65,5.35,5.35,5.35
68.01,6.18,0.87,6.18,0.87,-0.86,-0.92,-0.68,5.32,5.32,5.32
68.69,6.18,0.90,6.18,0.89,-0.89,-0.95,-0.70,5.29,5.28,5.29
69.37,6.17,0.92,6.18,0.92,-0.93,-0.98,-0.73,5.25,5.25,5.25
70.07,6.17,0.95,6.17,0.95,-0.96,-1.02,-0.76,5.22,5.22,5.22
70.77,6.17,0.98,6.17,0.99,-0.99,-1.05,-0.79,5.18,5.18,5.19
71.48,6.17,1.03,6.17,1.02,-1.02,-1.08,-0.82,5.15,5.15,5.14
72.19,6.16,1.05,6.17,1.06,-1.05,-1.12,-0.85,5.11,5.11,5.11
72.91,6.16,1.09,6.16,1.09,-1.08,-1.15,-0.88,5.08,5.08,5.07
73.64,6.15,1.12,6.15,1.12,-1.12,-1.19,-0.92,5.04,5.04,5.04
74.38,6.15,1.15,6.15,1.15,-1.15,-1.22,-0.95,5.00,5.00,5.01
75.12,6.14,1.17,6.15,1.18,-1.18,-1.26,-0.99,4.96,4.96,4.97
75.87,6.14,1.21,6.14,1.21,-1.22,-1.30,-1.02,4.93,4.93,4.93
76.63,6.14,1.25,6.14,1.25,-1.25,-1.33,-1.06,4.89,4.89,4.89
77.40,6.13,1.28,6.14,1.29,-1.28,-1.37,-1.10,4.85,4.85,4.85
78.17,6.13,1.33,6.13,1.32,-1.32,-1.41,-1.13,4.81,4.81,4.81
78.95,6.11,1.35,6.12,1.35,-1.35,-1.44,-1.17,4.76,4.76,4.76
79.74,6.11,1.39,6.11,1.39,-1.39,-1.48,-1.22,4.72,4.72,4.72
80.54,6.10,1.43,6.10,1.42,-1.43,-1.52,-1.26,4.68,4.68,4.68
81.35,6.10,1.46,6.10,1.46,-1.46,-1.56,-1.30,4.64,4.64,4.64
82.16,6.09,1.50,6.10,1.50,-1.50,-1.60,-1.35,4.59,4.59,4.60
82.98,6.09,1.54,6.09,1.54,-1.54,-1.64,-1.39,4.55,4.55,4.55
83.81,6.09,1.58,6.09,1.58,-1.58,-1.68,-1.44,4.52,4.51,4.51
84.65,6.08,1.62,6.08,1.62,-1.62,-1.72,-1.49,4.47,4.47,4.47
85.50,6.07,1.66,6.08,1.65,-1.65,-1.76,-1.54,4.42,4.42,4.42
86.35,6.07,1.70,6.07,1.69,-1.69,-1.80,-1.59,4.38,4.38,4.38
87.22,6.05,1.73,6.06,1.73,-1.73,-1.84,-1.64,4.32,4.33,4.33
88.09,6.05,1.78,6.05,1.77,-1.77,-1.88,-1.69,4.29,4.28,4.28
88.97,6.03,1.80,6.04,1.80,-1.81,-1.92,-1.75,4.23,4.23,4.24
89.86,6.03,1.85,6.03,1.84,-1.84,-1.96,-1.80,4.19,4.19,4.18
90.76,6.02,1.88,6.02,1.88,-1.88,-2.00,-1.86,4.14,4.14,4.14
91.66,6.01,1.92,6.01,1.92,-1.92,-2.04,-1.92,4.09,4.09,4.09
92.58,6.00,1.97,6.01,1.97,-1.97,-2.09,-1.98,4.04,4.04,4.04
93.51,6.00,2.01,6.00,2.01,-2.01,-2.13,-2.04,3.99,3.99,3.99
94.44,5.99,2.05,5.99,2.05,-2.05,-2.17,-2.10,3.94,3.94,3.94
95.39,5.98,2.10,5.98,2.10,-2.10,-2.21,-2.16,3.89,3.89,3.88
96.34,5.97,2.14,5.97,2.14,-2.14,-2.25,-2.23,3.83,3.83,3.83
97.30,5.95,2.18,5.96,2.18,-2.19,-2.30,-2.29,3.77,3.77,3.77
98.28,5.95,2.23,5.95,2.23,-2.23,-2.34,-2.36,3.72,3.72,3.72
99.26,5.93,2.28,5.94,2.28,-2.28,-2.38,-2.42,3.65,3.66,3.65
100.25,5.93,2.33,5.93,2.33,-2.33,-2.43,-2.49,3.60,3.60,3.60
101.25,5.91,2.37,5.91,2.38,-2.38,-2.47,-2.56,3.54,3.54,3.54
102.27,5.90,2.43,5.90,2.43,-2.43,-2.51,-2.63,3.48,3.48,3.48
103.29,5.89,2.47,5.89,2.48,-2.48,-2.55,-2.70,3.42,3.42,3.42
104.32,5.88,2.53,5.88,2.53,-2.52,-2.59,-2.76,3.36,3.36,3.35
105.37,5.87,2.58,5.87,2.57,-2.57,-2.64,-2.83,3.30,3.30,3.30
106.42,5.86,2.62,5.86,2.62,-2.62,-2.68,-2.90,3.25,3.24,3.24
107.48,5.84,2.66,5.85,2.66,-2.66,-2.72,-2.97,3.18,3.18,3.18
108.56,5.83,2.71,5.83,2.71,-2.71,-2.76,-3.03,3.12,3.12,3.12
109.64,5.81,2.75,5.82,2.75,-2.76,-2.80,-3.09,3.06,3.06,3.06
110.74,5.80,2.80,5.80,2.80,-2.80,-2.85,-3.16,3.00,3.00,3.01
111.85,5.79,2.85,5.79,2.85,-2.85,-2.89,-3.22,2.95,2.95,2.94
112.97,5.78,2.90,5.78,2.90,-2.89,-2.93,-3.28,2.89,2.89,2.89
114.10,5.77,2.95,5.77,2.94,-2.94,-2.97,-3.33,2.83,2.82,2.82
115.24,5.74,2.98,5.75,2.99,-2.99,-3.01,-3.38,2.75,2.76,2.76
116.39,5.73,3.04,5.73,3.04,-3.04,-3.05,-3.44,2.69,2.69,2.69
117.55,5.72,3.10,5.72,3.09,-3.09,-3.09,-3.48,2.63,2.62,2.63
118.73,5.70,3.14,5.71,3.15,-3.15,-3.13,-3.52,2.56,2.56,2.56
119.92,5.69,3.20,5.69,3.20,-3.20,-3.17,-3.56,2.49,2.49,2.49
121.12,5.67,3.26,5.67,3.26,-3.26,-3.20,-3.60,2.41,2.42,2.42
122.33,5.66,3.32,5.66,3.32,-3.32,-3.24,-3.63,2.35,2.35,2.34
123.55,5.64,3.37,5.64,3.37,-3.37,-3.28,-3.65,2.27,2.27,2.27
124.79,5.63,3.43,5.63,3.43,-3.43,-3.32,-3.67,2.20,2.20,2.20
126.03,5.60,3.48,5.61,3.49,-3.49,-3.35,-3.69,2.12,2.12,2.12
127.29,5.59,3.54,5.59,3.54,-3.54,-3.39,-3.70,2.05,2.05,2.05
128.57,5.58,3.60,5.58,3.60,-3.59,-3.42,-3.72,1.99,1.99,1.98
129.85,5.55,3.64,5.56,3.64,-3.64,-3.46,-3.72,1.91,1.92,1.91
131.15,5.54,3.69,5.54,3.68,-3.68,-3.49,-3.72,1.86,1.85,1.85
132.46,5.51,3.72,5.52,3.72,-3.72,-3.52,-3.72,1.79,1.79,1.80
133.79,5.50,3.76,5.50,3.76,-3.76,-3.56,-3.71,1.74,1.74,1.74
135.12,5.48,3.80,5.48,3.80,-3.80,-3.59,-3.70,1.69,1.69,1.68
136.48,5.46,3.82,5.47,3.83,-3.83,-3.62,-3.69,1.64,1.64,1.64
137.84,5.45,3.87,5.45,3.86,-3.86,-3.65,-3.67,1.60,1.59,1.59
139.22,5.42,3.88,5.43,3.88,-3.88,-3.68,-3.65,1.54,1.54,1.54
140.61,5.40,3.90,5.40,3.91,-3.91,-3.71,-3.63,1.50,1.50,1.50
142.02,5.38,3.93,5.38,3.92,-3.93,-3.73,-3.61,1.45,1.45,1.46
143.44,5.36,3.95,5.36,3.95,-3.95,-3.76,-3.59,1.42,1.42,1.42
144.87,5.34,3.97,5.34,3.97,-3.96,-3.79,-3.57,1.38,1.38,1.38
146.32,5.32,3.99,5.32,3.98,-3.98,-3.81,-3.54,1.34,1.34,1.34
147.78,5.30,4.00,5.30,3.99,-3.99,-3.84,-3.52,1.31,1.30,1.31
149.26,5.27,4.00,5.27,4.01,-4.01,-3.86,-3.50,1.26,1.27,1.27
150.75,5.24,4.01,5.25,4.02,-4.02,-3.88,-3.47,1.22,1.23,1.23
152.26,5.23,4.04,5.23,4.03,-4.03,-3.90,-3.45,1.20,1.19,1.20
153.78,5.20,4.04,5.20,4.04,-4.04,-3.92,-3.43,1.16,1.16,1.16
155.32,5.18,4.06,5.18,4.06,-4.05,-3.94,-3.41,1.13,1.13,1.13
156.88,5.15,4.06,5.16,4.06,-4.07,-3.96,-3.39,1.09,1.09,1.09
158.44,5.13,4.07,5.13,4.07,-4.07,-3.98,-3.37,1.06,1.06,1.06
160.03,5.11,4.09,5.11,4.08,-4.08,-3.99,-3.35,1.03,1.03,1.03
161.63,5.08,4.09,5.09,4.09,-4.09,-4.01,-3.34,0.99,1.00,0.99
163.24,5.06,4.10,5.06,4.10,-4.09,-4.02,-3.33,0.97,0.97,0.96
164.88,5.03,4.10,5.03,4.10,-4.10,-4.04,-3.32,0.93,0.94,0.93
166.53,5.01,4.10,5.01,4.10,-4.10,-4.05,-3.31,0.91,0.91,0.91
168.19,4.98,4.10,4.98,4.10,-4.10,-4.06,-3.30,0.88,0.88,0.89
169.87,4.96,4.10,4.96,4.10,-4.10,-4.07,-3.30,0.86,0.86,0.86
171.57,4.93,4.09,4.93,4.10,-4.10,-4.08,-3.30,0.84,0.84,0.84
173.29,4.91,4.10,4.91,4.09,-4.09,-4.09,-3.30,0.82,0.82,0.82
175.02,4.87,4.08,4.88,4.08,-4.08,-4.09,-3.31,0.79,0.79,0.79
176.77,4.85,4.08,4.85,4.08,-4.08,-4.10,-3.31,0.77,0.77,0.78
178.54,4.82,4.07,4.82,4.07,-4.07,-4.10,-3.32,0.75,0.75,0.75
180.32,4.80,4.06,4.80,4.06,-4.06,-4.11,-3.33,0.74,0.73,0.74
182.13,4.76,4.05,4.77,4.05,-4.05,-4.11,-3.35,0.71,0.71,0.72
183.95,4.73,4.04,4.74,4.04,-4.04,-4.11,-3.36,0.69,0.70,0.69
185.79,4.71,4.03,4.71,4.03,-4.03,-4.11,-3.38,0.68,0.68,0.68
187.65,4.68,4.02,4.68,4.02,-4.02,-4.11,-3.41,0.66,0.66,0.66
189.52,4.65,4.01,4.65,4.01,-4.01,-4.11,-3.43,0.65,0.65,0.64
191.42,4.62,3.99,4.62,3.99,-3.99,-4.10,-3.46,0.63,0.63,0.63
193.33,4.59,3.98,4.59,3.98,-3.98,-4.10,-3.49,0.61,0.61,0.61
195.27,4.56,3.97,4.56,3.97,-3.97,-4.10,-3.52,0.60,0.60,0.60
197.22,4.53,3.96,4.53,3.95,-3.95,-4.09,-3.55,0.58,0.58,0.58
199.19,4.50,3.93,4.50,3.94,-3.94,-4.08,-3.58,0.57,0.57,0.57
201.18,4.47,3.92,4.47,3.92,-3.92,-4.07,-3.62,0.55,0.55,0.55
203.19,4.44,3.91,4.44,3.90,-3.90,-4.07,-3.66,0.54,0.54,0.54
205.23,4.40,3.88,4.41,3.89,-3.89,-4.06,-3.70,0.52,0.52,0.52
207.28,4.38,3.88,4.38,3.87,-3.87,-4.04,-3.74,0.51,0.51,0.51
209.35,4.34,3.85,4.34,3.85,-3.85,-4.03,-3.78,0.49,0.49,0.49
211.44,4.31,3.83,4.31,3.84,-3.84,-4.02,-3.81,0.48,0.48,0.48
213.56,4.28,3.82,4.28,3.82,-3.82,-4.01,-3.85,0.46,0.46,0.46
215.69,4.25,3.80,4.25,3.80,-3.80,-3.99,-3.89,0.45,0.45,0.45
217.85,4.22,3.78,4.22,3.79,-3.78,-3.98,-3.93,0.44,0.44,0.44
220.03,4.19,3.77,4.19,3.77,-3.76,-3.96,-3.97,0.43,0.43,0.43
222.23,4.16,3.75,4.16,3.75,-3.74,-3.94,-4.01,0.42,0.42,0.41
224.45,4.12,3.72,4.13,3.72,-3.72,-3.92,-4.04,0.40,0.40,0.40
226.70,4.09,3.70,4.09,3.70,-3.71,-3.91,-4.07,0.39,0.39,0.39
228.96,4.06,3.68,4.06,3.68,-3.69,-3.89,-4.10,0.38,0.38,0.38
231.25,4.04,3.67,4.04,3.67,-3.67,-3.87,-4.13,0.37,0.37,0.37
233.57,4.00,3.65,4.01,3.65,-3.65,-3.84,-4.15,0.35,0.36,0.35
235.90,3.97,3.63,3.97,3.63,-3.63,-3.82,-4.17,0.34,0.34,0.34
238.26,3.94,3.61,3.94,3.62,-3.62,-3.80,-4.19,0.33,0.33,0.33
240.64,3.91,3.60,3.92,3.60,-3.60,-3.78,-4.19,0.31,0.32,0.31
243.05,3.89,3.59,3.89,3.58,-3.58,-3.75,-4.20,0.31,0.31,0.30
245.48,3.86,3.57,3.86,3.57,-3.57,-3.73,-4.20,0.30,0.29,0.30
247.93,3.83,3.55,3.84,3.55,-3.55,-3.70,-4.20,0.28,0.29,0.29
250.41,3.81,3.53,3.81,3.54,-3.54,-3.68,-4.19,0.28,0.27,0.28
252.92,3.79,3.53,3.79,3.52,-3.52,-3.65,-4.18,0.27,0.27,0.26
255.45,3.76,3.51,3.77,3.51,-3.51,-3.62,-4.16,0.25,0.26,0.25
258.00,3.74,3.50,3.74,3.50,-3.50,-3.60,-4.13,0.25,0.24,0.25
260.58,3.71,3.48,3.72,3.48,-3.49,-3.57,-4.10,0.23,0.23,0.23
263.19,3.69,3.47,3.69,3.47,-3.47,-3.54,-4.07,0.22,0.22,0.22
265.82,3.67,3.47,3.67,3.46,-3.46,-3.51,-4.03,0.21,0.21,0.21
268.48,3.65,3.45,3.65,3.45,-3.45,-3.48,-3.99,0.21,0.20,0.20
271.16,3.63,3.45,3.63,3.44,-3.43,-3.45,-3.95,0.20,0.19,0.19
273.87,3.59,3.41,3.60,3.42,-3.42,-3.42,-3.90,0.17,0.18,0.18
276.61,3.57,3.41,3.57,3.40,-3.41,-3.39,-3.85,0.16,0.16,0.16
279.38,3.54,3.38,3.54,3.39,-3.39,-3.36,-3.79,0.15,0.15,0.16
282.17,3.52,3.38,3.52,3.38,-3.38,-3.33,-3.73,0.14,0.14,0.14
284.99,3.49,3.36,3.49,3.36,-3.37,-3.29,-3.67,0.13,0.13,0.13
287.84,3.46,3.35,3.47,3.35,-3.35,-3.26,-3.61,0.11,0.12,0.11
290.72,3.44,3.34,3.44,3.34,-3.33,-3.23,-3.55,0.11,0.11,0.10
293.63,3.41,3.32,3.41,3.32,-3.31,-3.20,-3.49,0.10,0.10,0.10
296.57,3.37,3.29,3.38,3.30,-3.29,-3.16,-3.42,0.08,0.08,0.08
299.53,3.34,3.28,3.34,3.27,-3.27,-3.13,-3.36,0.07,0.07,0.07
302.53,3.30,3.24,3.30,3.24,-3.24,-3.10,-3.29,0.06,0.06,0.06
305.55,3.27,3.22,3.27,3.21,-3.22,-3.06,-3.23,0.06,0.05,0.05
308.61,3.22,3.18,3.23,3.18,-3.18,-3.03,-3.17,0.04,0.05,0.05
311.69,3.19,3.15,3.19,3.15,-3.15,-2.99,-3.10,0.04,0.04,0.04
314.81,3.15,3.12,3.15,3.12,-3.12,-2.96,-3.04,0.04,0.03,0.03
317.96,3.10,3.08,3.11,3.08,-3.08,-2.92,-2.98,0.02,0.03,0.03
321.14,3.06,3.04,3.06,3.04,-3.04,-2.89,-2.92,0.02,0.02,0.02
324.35,3.01,3.00,3.01,3.00,-3.01,-2.86,-2.86,0.01,0.01,0.01
327.59,2.97,2.97,2.97,2.97,-2.97,-2.82,-2.80,0.01,0.00,0.01
330.87,2.92,2.93,2.92,2.93,-2.93,-2.78,-2.75,-0.00,-0.00,-0.01
334.18,2.88,2.89,2.88,2.89,-2.89,-2.75,-2.70,-0.00,-0.01,-0.01
337.52,2.83,2.84,2.84,2.85,-2.85,-2.71,-2.64,-0.02,-0.01,-0.01
340.90,2.79,2.82,2.79,2.81,-2.81,-2.68,-2.59,-0.02,-0.02,-0.02
344.30,2.73,2.76,2.74,2.77,-2.77,-2.64,-2.54,-0.04,-0.03,-0.03
347.75,2.68,2.72,2.69,2.73,-2.73,-2.61,-2.50,-0.05,-0.04,-0.04
351.23,2.64,2.69,2.64,2.69,-2.69,-2.57,-2.45,-0.05,-0.05,-0.05
354.74,2.59,2.66,2.59,2.65,-2.65,-2.54,-2.41,-0.06,-0.06,-0.06
358.28,2.54,2.61,2.54,2.61,-2.61,-2.50,-2.37,-0.07,-0.07,-0.07
361.87,2.49,2.57,2.49,2.57,-2.57,-2.47,-2.33,-0.08,-0.08,-0.08
365.49,2.44,2.53,2.44,2.53,-2.53,-2.43,-2.29,-0.09,-0.09,-0.09
369.14,2.39,2.49,2.39,2.49,-2.50,-2.40,-2.26,-0.10,-0.10,-0.10
372.83,2.34,2.46,2.34,2.46,-2.46,-2.36,-2.22,-0.11,-0.11,-0.11
376.56,2.29,2.42,2.29,2.42,-2.42,-2.32,-2.19,-0.12,-0.12,-0.12
380.33,2.24,2.38,2.24,2.38,-2.38,-2.29,-2.16,-0.13,-0.13,-0.14
384.13,2.19,2.34,2.19,2.34,-2.34,-2.25,-2.13,-0.14,-0.15,-0.15
387.97,2.13,2.29,2.14,2.30,-2.30,-2.22,-2.11,-0.16,-0.16,-0.16
391.85,2.08,2.25,2.08,2.26,-2.26,-2.18,-2.08,-0.17,-0.17,-0.17
395.77,2.03,2.22,2.03,2.21,-2.22,-2.15,-2.06,-0.18,-0.18,-0.18
399.73,1.98,2.18,1.98,2.17,-2.17,-2.11,-2.03,-0.19,-0.19,-0.19
403.72,1.93,2.13,1.93,2.13,-2.13,-2.08,-2.01,-0.20,-0.20,-0.20
407.76,1.88,2.09,1.88,2.09,-2.09,-2.04,-1.99,-0.21,-0.21,-0.21
411.84,1.83,2.05,1.83,2.05,-2.05,-2.01,-1.97,-0.22,-0.22,-0.22
415.96,1.78,2.01,1.78,2.01,-2.01,-1.97,-1.95,-0.23,-0.23,-0.23
420.12,1.72,1.96,1.73,1.97,-1.97,-1.94,-1.94,-0.25,-0.24,-0.24
424.32,1.67,1.92,1.67,1.93,-1.93,-1.90,-1.92,-0.26,-0.25,-0.25
428.56,1.62,1.89,1.62,1.89,-1.89,-1.87,-1.90,-0.27,-0.27,-0.26
432.85,1.58,1.86,1.58,1.85,-1.85,-1.83,-1.89,-0.27,-0.27,-0.27
437.18,1.52,1.81,1.53,1.81,-1.81,-1.80,-1.87,-0.29,-0.28,-0.28
441.55,1.48,1.78,1.48,1.78,-1.77,-1.76,-1.85,-0.29,-0.30,-0.30
445.96,1.42,1.74,1.43,1.74,-1.74,-1.73,-1.84,-0.31,-0.31,-0.32
450.42,1.37,1.70,1.37,1.70,-1.70,-1.70,-1.82,-0.33,-0.33,-0.33
454.93,1.32,1.66,1.32,1.66,-1.66,-1.66,-1.80,-0.34,-0.34,-0.34
459.48,1.26,1.62,1.27,1.63,-1.63,-1.63,-1.79,-0.36,-0.36,-0.36
464.07,1.22,1.59,1.22,1.59,-1.59,-1.59,-1.77,-0.37,-0.37,-0.37
468.71,1.17,1.55,1.17,1.55,-1.55,-1.56,-1.75,-0.38,-0.38,-0.38
473.40,1.12,1.51,1.13,1.52,-1.52,-1.53,-1.73,-0.40,-0.39,-0.39
478.13,1.07,1.49,1.08,1.48,-1.48,-1.49,-1.71,-0.41,-0.41,-0.41
482.91,1.03,1.46,1.03,1.45,-1.45,-1.46,-1.68,-0.41,-0.42,-0.42
487.74,0.97,1.41,0.98,1.41,-1.41,-1.42,-1.66,-0.44,-0.43,-0.43
492.62,0.92,1.37,0.93,1.37,-1.37,-1.39,-1.64,-0.45,-0.44,-0.44
497.55,0.88,1.34,0.88,1.33,-1.34,-1.36,-1.61,-0.45,-0.46,-0.46
502.52,0.83,1.30,0.83,1.30,-1.30,-1.32,-1.58,-0.47,-0.47,-0.47
507.55,0.77,1.26,0.78,1.26,-1.26,-1.29,-1.55,-0.49,-0.48,-0.49
512.62,0.73,1.23,0.73,1.23,-1.23,-1.26,-1.52,-0.50,-0.50,-0.50
517.75,0.69,1.20,0.69,1.19,-1.19,-1.22,-1.48,-0.50,-0.51,-0.51
522.93,0.63,1.15,0.64,1.16,-1.16,-1.19,-1.45,-0.52,-0.52,-0.52
528.16,0.59,1.12,0.59,1.12,-1.12,-1.15,-1.41,-0.53,-0.53,-0.53
533.44,0.54,1.08,0.54,1.08,-1.08,-1.12,-1.38,-0.54,-0.54,-0.54
538.77,0.50,1.05,0.50,1.05,-1.05,-1.09,-1.34,-0.54,-0.55,-0.55
