frequency,raw,error,smoothed,error_smoothed,equalization,parametric_eq,fixed_band_eq,equalized_raw,equalized_smoothed,target
20.00,10.82,5.99,10.82,5.99,-5.99,-6.31,-3.26,4.83,4.83,4.83
20.20,10.86,6.03,10.87,6.03,-6.03,-6.33,-3.35,4.83,4.83,4.83
20.40,10.91,6.07,10.91,6.08,-6.08,-6.36,-3.44,4.84,4.84,4.84
20.61,10.95,6.11,10.96,6.12,-6.12,-6.39,-3.54,4.84,4.84,4.84
20.81,11.00,6.16,11.00,6.16,-6.16,-6.41,-3.64,4.85,4.84,4.84
21.02,11.04,6.20,11.04,6.20,-6.20,-6.44,-3.74,4.85,4.85,4.84
21.23,11.08,6.24,11.08,6.24,-6.24,-6.46,-3.84,4.85,4.85,4.85
21.44,11.12,6.27,11.13,6.27,-6.28,-6.49,-3.95,4.85,4.85,4.86
21.66,11.17,6.32,11.17,6.31,-6.32,-6.51,-4.06,4.86,4.85,4.86
21.87,11.21,6.35,11.22,6.35,-6.36,-6.54,-4.17,4.86,4.86,4.87
22.09,11.26,6.41,11.26,6.40,-6.40,-6.56,-4.29,4.87,4.86,4.86
22.31,11.30,6.44,11.30,6.44,-6.44,-6.59,-4.41,4.87,4.86,4.87
22.54,11.34,6.49,11.34,6.48,-6.48,-6.61,-4.53,4.86,4.86,4.86
22.76,11.38,6.52,11.38,6.52,-6.52,-6.63,-4.66,4.86,4.86,4.86
22.99,11.42,6.56,11.42,6.56,-6.56,-6.65,-4.79,4.86,4.86,4.86
23.22,11.45,6.60,11.46,6.60,-6.60,-6.68,-4.92,4.85,4.86,4.85
23.45,11.49,6.64,11.49,6.64,-6.64,-6.70,-5.05,4.86,4.85,4.85
23.69,11.53,6.68,11.53,6.68,-6.67,-6.72,-5.19,4.86,4.86,4.85
23.92,11.56,6.71,11.57,6.71,-6.71,-6.74,-5.33,4.86,4.86,4.85
24.16,11.60,6.75,11.60,6.74,-6.74,-6.76,-5.48,4.86,4.85,4.85
24.40,11.62,6.76,11.63,6.77,-6.78,-6.78,-5.62,4.85,4.85,4.86
24.65,11.65,6.79,11.66,6.80,-6.81,-6.80,-5.77,4.85,4.85,4.86
24.89,11.69,6.83,11.69,6.83,-6.84,-6.82,-5.92,4.86,4.85,4.86
25.14,11.72,6.88,11.72,6.87,-6.87,-6.84,-6.07,4.86,4.86,4.85
25.39,11.75,6.91,11.75,6.90,-6.90,-6.85,-6.23,4.86,4.85,4.85
25.65,11.77,6.93,11.78,6.93,-6.93,-6.87,-6.38,4.85,4.85,4.85
25.91,11.80,6.96,11.80,6.95,-6.96,-6.89,-6.54,4.85,4.85,4.85
26.16,11.83,6.98,11.83,6.98,-6.98,-6.91,-6.70,4.85,4.85,4.85
26.43,11.85,7.00,11.86,7.01,-7.01,-6.92,-6.85,4.84,4.85,4.85
26.69,11.88,7.04,11.88,7.03,-7.03,-6.94,-7.01,4.85,4.85,4.84
26.96,11.90,7.06,11.90,7.06,-7.05,-6.95,-7.16,4.85,4.85,4.84
27.23,11.92,7.08,11.92,7.08,-7.08,-6.97,-7.32,4.85,4.84,4.84
27.50,11.93,7.09,11.94,7.09,-7.10,-6.98,-7.47,4.84,4.84,4.84
27.77,11.95,7.10,11.96,7.11,-7.12,-7.00,-7.61,4.84,4.84,4.85
28.05,11.98,7.14,11.98,7.13,-7.14,-7.01,-7.75,4.85,4.84,4.85
28.33,11.99,7.16,12.00,7.16,-7.15,-7.03,-7.89,4.84,4.84,4.84
28.62,12.01,7.18,12.01,7.17,-7.17,-7.04,-8.01,4.84,4.84,4.83
28.90,12.02,7.18,12.02,7.18,-7.18,-7.05,-8.13,4.84,4.84,4.84
29.19,12.03,7.19,12.04,7.20,-7.20,-7.06,-8.25,4.83,4.84,4.84
29.48,12.04,7.21,12.05,7.21,-7.21,-7.08,-8.35,4.83,4.83,4.83
29.78,12.06,7.23,12.06,7.23,-7.22,-7.09,-8.44,4.84,4.83,4.83
30.08,12.06,7.23,12.07,7.24,-7.23,-7.10,-8.52,4.83,4.83,4.84
30.38,12.07,7.25,12.07,7.24,-7.24,-7.11,-8.59,4.83,4.83,4.83
30.68,12.08,7.25,12.08,7.25,-7.25,-7.12,-8.65,4.83,4.83,4.83
30.99,12.08,7.25,12.09,7.25,-7.25,-7.13,-8.69,4.83,4.83,4.83
31.30,12.09,7.26,12.09,7.26,-7.26,-7.14,-8.72,4.84,4.83,4.83
31.61,12.09,7.25,12.09,7.26,-7.26,-7.15,-8.74,4.83,4.83,4.84
31.93,12.09,7.27,12.09,7.26,-7.26,-7.15,-8.75,4.83,4.83,4.83
32.24,12.09,7.26,12.09,7.26,-7.26,-7.16,-8.74,4.83,4.83,4.83
32.57,12.09,7.26,12.09,7.26,-7.26,-7.17,-8.73,4.83,4.83,4.83
32.89,12.09,7.26,12.09,7.26,-7.26,-7.18,-8.70,4.83,4.83,4.83
33.22,12.09,7.27,12.09,7.26,-7.26,-7.18,-8.66,4.83,4.83,4.83
33.55,12.08,7.26,12.09,7.26,-7.26,-7.19,-8.61,4.82,4.82,4.82
33.89,12.08,7.26,12.08,7.26,-7.27,-7.19,-8.55,4.82,4.82,4.82
34.23,12.08,7.27,12.08,7.27,-7.27,-7.20,-8.49,4.81,4.81,4.81
34.57,12.07,7.28,12.07,7.27,-7.27,-7.20,-8.41,4.80,4.80,4.80
34.92,12.06,7.28,12.06,7.28,-7.28,-7.21,-8.34,4.79,4.79,4.78
35.27,12.05,7.27,12.05,7.28,-7.28,-7.21,-8.25,4.77,4.77,4.78
35.62,12.04,7.30,12.04,7.29,-7.29,-7.22,-8.17,4.75,4.75,4.75
35.97,12.02,7.29,12.03,7.29,-7.30,-7.22,-8.08,4.73,4.73,4.73
36.33,12.01,7.30,12.01,7.30,-7.30,-7.22,-7.99,4.71,4.71,4.71
36.70,12.00,7.32,12.00,7.31,-7.31,-7.22,-7.90,4.69,4.69,4.69
37.06,11.98,7.32,11.99,7.32,-7.32,-7.22,-7.81,4.66,4.67,4.66
37.43,11.97,7.33,11.97,7.33,-7.33,-7.23,-7.72,4.64,4.64,4.64
37.81,11.95,7.34,11.95,7.33,-7.34,-7.23,-7.63,4.62,4.62,4.62
38.19,11.93,7.33,11.94,7.34,-7.34,-7.23,-7.55,4.59,4.60,4.60
38.57,11.92,7.35,11.92,7.34,-7.35,-7.23,-7.46,4.58,4.58,4.58
38.95,11.90,7.35,11.90,7.35,-7.35,-7.23,-7.38,4.56,4.55,4.55
39.34,11.88,7.35,11.88,7.35,-7.35,-7.22,-7.30,4.53,4.53,4.53
39.74,11.85,7.35,11.86,7.35,-7.35,-7.22,-7.23,4.51,4.51,4.50
40.14,11.83,7.34,11.83,7.34,-7.34,-7.22,-7.15,4.49,4.49,4.49
40.54,11.80,7.33,11.81,7.34,-7.34,-7.22,-7.09,4.47,4.47,4.47
40.94,11.78,7.34,11.78,7.33,-7.33,-7.22,-7.02,4.45,4.45,4.45
41.35,11.75,7.32,11.75,7.32,-7.32,-7.21,-6.97,4.43,4.43,4.43
41.76,11.72,7.32,11.72,7.31,-7.31,-7.21,-6.91,4.41,4.41,4.41
42.18,11.69,7.30,11.69,7.30,-7.30,-7.20,-6.86,4.39,4.39,4.39
42.60,11.65,7.29,11.66,7.29,-7.29,-7.20,-6.82,4.36,4.37,4.36
43.03,11.63,7.29,11.63,7.28,-7.28,-7.19,-6.78,4.35,4.35,4.35
43.46,11.59,7.27,11.60,7.27,-7.27,-7.19,-6.75,4.32,4.33,4.32
43.90,11.56,7.26,11.56,7.26,-7.26,-7.18,-6.72,4.31,4.30,4.30
44.33,11.52,7.25,11.52,7.24,-7.24,-7.18,-6.70,4.28,4.28,4.28
44.78,11.48,7.22,11.49,7.23,-7.23,-7.17,-6.68,4.25,4.26,4.26
45.23,11.45,7.20,11.45,7.21,-7.22,-7.16,-6.66,4.24,4.24,4.25
45.68,11.42,7.21,11.42,7.20,-7.20,-7.15,-6.66,4.22,4.22,4.21
46.13,11.38,7.20,11.38,7.20,-7.19,-7.15,-6.65,4.19,4.19,4.18
46.60,11.34,7.19,11.34,7.19,-7.18,-7.14,-6.65,4.16,4.16,4.16
47.06,11.30,7.17,11.30,7.17,-7.17,-7.13,-6.66,4.13,4.13,4.14
47.53,11.26,7.16,11.26,7.16,-7.16,-7.12,-6.67,4.10,4.10,4.11
48.01,11.21,7.16,11.22,7.15,-7.16,-7.11,-6.69,4.06,4.06,4.06
48.49,11.17,7.15,11.17,7.15,-7.15,-7.10,-6.70,4.02,4.02,4.03
48.97,11.13,7.15,11.13,7.15,-7.15,-7.09,-6.73,3.99,3.99,3.99
49.46,11.09,7.14,11.09,7.14,-7.14,-7.07,-6.76,3.95,3.95,3.95
49.96,11.04,7.15,11.04,7.14,-7.14,-7.06,-6.79,3.91,3.91,3.89
50.46,10.99,7.13,11.00,7.13,-7.13,-7.05,-6.82,3.86,3.87,3.86
50.96,10.95,7.12,10.95,7.12,-7.12,-7.04,-6.86,3.83,3.83,3.83
51.47,10.90,7.11,10.91,7.11,-7.12,-7.02,-6.90,3.79,3.79,3.80
51.99,10.86,7.11,10.86,7.11,-7.11,-7.01,-6.94,3.76,3.76,3.75
52.51,10.82,7.10,10.82,7.09,-7.10,-7.00,-6.98,3.72,3.72,3.72
53.03,10.76,7.08,10.77,7.09,-7.09,-6.98,-7.03,3.67,3.68,3.69
53.56,10.71,7.07,10.72,7.08,-7.08,-6.97,-7.07,3.64,3.64,3.64
54.10,10.67,7.08,10.67,7.07,-7.06,-6.95,-7.12,3.61,3.60,3.60
54.64,10.61,7.05,10.62,7.06,-7.05,-6.94,-7.17,3.56,3.57,3.56
55.18,10.56,7.04,10.56,7.04,-7.03,-6.92,-7.21,3.53,3.53,3.52
55.74,10.50,7.02,10.51,7.01,-7.01,-6.90,-7.25,3.49,3.49,3.49
56.29,10.45,6.99,10.45,6.99,-6.99,-6.89,-7.29,3.46,3.46,3.46
56.86,10.39,6.95,10.39,6.96,-6.96,-6.87,-7.33,3.43,3.43,3.44
57.42,10.33,6.94,10.34,6.94,-6.93,-6.85,-7.37,3.40,3.40,3.39
58.00,10.28,6.92,10.28,6.91,-6.90,-6.83,-7.40,3.38,3.37,3.37
58.58,10.22,6.88,10.22,6.88,-6.88,-6.81,-7.42,3.34,3.34,3.35
59.16,10.16,6.85,10.16,6.85,-6.86,-6.79,-7.44,3.31,3.31,3.32
59.76,10.10,6.82,10.10,6.82,-6.84,-6.77,-7.45,3.27,3.27,3.29
60.35,10.04,6.81,10.05,6.81,-6.82,-6.75,-7.46,3.22,3.23,3.23
60.96,9.99,6.80,9.99,6.80,-6.80,-6.73,-7.46,3.19,3.18,3.19
61.57,9.92,6.79,9.93,6.79,-6.79,-6.71,-7.46,3.13,3.14,3.13
62.18,9.86,6.79,9.86,6.79,-6.78,-6.69,-7.44,3.09,3.09,3.07
62.80,9.80,6.77,9.80,6.77,-6.76,-6.67,-7.42,3.04,3.04,3.03
63.43,9.74,6.76,9.74,6.75,-6.75,-6.64,-7.39,2.99,2.99,2.99
64.07,9.68,6.73,9.68,6.73,-6.73,-6.62,-7.35,2.95,2.95,2.95
64.71,9.62,6.71,9.62,6.72,-6.72,-6.60,-7.31,2.91,2.91,2.91
65.35,9.56,6.70,9.56,6.69,-6.70,-6.57,-7.26,2.87,2.87,2.87
66.01,9.50,6.68,9.50,6.67,-6.67,-6.55,-7.20,2.83,2.83,2.83
66.67,9.44,6.64,9.44,6.65,-6.65,-6.52,-7.13,2.79,2.79,2.80
67.33,9.37,6.62,9.38,6.63,-6.63,-6.50,-7.06,2.74,2.75,2.75
68.01,9.32,6.61,9.32,6.61,-6.61,-6.47,-6.99,2.72,2.71,2.71
68.69,9.26,6.60,9.26,6.59,-6.58,-6.45,-6.91,2.68,2.67,2.67
69.37,9.19,6.56,9.20,6.56,-6.56,-6.42,-6.82,2.63,2.64,2.63
70.07,9.13,6.53,9.13,6.54,-6.54,-6.39,-6.73,2.59,2.59,2.60
70.77,9.07,6.51,9.07,6.51,-6.52,-6.37,-6.64,2.56,2.55,2.56
71.48,9.00,6.49,9.00,6.49,-6.49,-6.34,-6.55,2.51,2.51,2.51
72.19,8.93,6.46,8.94,6.47,-6.47,-6.31,-6.46,2.46,2.47,2.47
72.91,8.87,6.45,8.87,6.44,-6.44,-6.28,-6.36,2.43,2.42,2.42
73.64,8.79,6.42,8.80,6.42,-6.42,-6.25,-6.26,2.38,2.38,2.37
74.38,8.72,6.39,8.73,6.39,-6.39,-6.22,-6.17,2.33,2.34,2.34
75.12,8.66,6.37,8.66,6.36,-6.36,-6.19,-6.07,2.31,2.30,2.30
75.87,8.59,6.33,8.59,6.32,-6.32,-6.16,-5.98,2.27,2.27,2.27
76.63,8.51,6.29,8.52,6.29,-6.28,-6.13,-5.88,2.23,2.23,2.23
77.40,8.44,6.24,8.44,6.24,-6.24,-6.10,-5.79,2.20,2.20,2.20
78.17,8.37,6.21,8.37,6.20,-6.20,-6.07,-5.70,2.17,2.17,2.16
78.95,8.29,6.15,8.30,6.16,-6.16,-6.04,-5.62,2.13,2.14,2.14
79.74,8.22,6.11,8.22,6.12,-6.12,-6.01,-5.53,2.11,2.11,2.12
80.54,8.15,6.07,8.15,6.07,-6.07,-5.97,-5.45,2.08,2.08,2.08
81.35,8.08,6.04,8.08,6.03,-6.03,-5.94,-5.37,2.05,2.05,2.04
82.16,8.00,5.97,8.00,5.98,-5.98,-5.91,-5.29,2.02,2.02,2.03
82.98,7.92,5.93,7.93,5.94,-5.94,-5.87,-5.22,1.98,1.99,1.99
83.81,7.86,5.90,7.86,5.90,-5.90,-5.84,-5.15,1.97,1.96,1.96
84.65,7.78,5.86,7.78,5.86,-5.85,-5.80,-5.08,1.93,1.93,1.92
85.50,7.70,5.81,7.70,5.81,-5.80,-5.77,-5.02,1.90,1.90,1.89
86.35,7.62,5.76,7.62,5.76,-5.76,-5.73,-4.96,1.87,1.87,1.86
87.22,7.54,5.70,7.54,5.70,-5.71,-5.69,-4.91,1.84,1.83,1.84
88.09,7.46,5.66,7.46,5.66,-5.66,-5.66,-4.85,1.80,1.80,1.80
88.97,7.38,5.60,7.38,5.61,-5.61,-5.62,-4.81,1.77,1.77,1.78
89.86,7.30,5.57,7.30,5.56,-5.56,-5.58,-4.76,1.75,1.74,1.74
90.76,7.21,5.50,7.22,5.51,-5.51,-5.54,-4.72,1.71,1.71,1.71
91.66,7.13,5.46,7.13,5.46,-5.45,-5.50,-4.68,1.68,1.68,1.67
92.58,7.05,5.41,7.05,5.40,-5.41,-5.46,-4.65,1.65,1.64,1.65
93.51,6.96,5.35,6.97,5.35,-5.36,-5.42,-4.62,1.61,1.61,1.61
94.44,6.88,5.30,6.88,5.30,-5.31,-5.38,-4.59,1.57,1.57,1.58
95.39,6.80,5.26,6.80,5.26,-5.27,-5.34,-4.57,1.54,1.53,1.54
96.34,6.71,5.22,6.72,5.22,-5.22,-5.30,-4.55,1.49,1.49,1.49
97.30,6.63,5.18,6.63,5.18,-5.18,-5.26,-4.53,1.45,1.45,1.46
98.28,6.55,5.14,6.55,5.14,-5.14,-5.22,-4.51,1.42,1.41,1.41
99.26,6.46,5.10,6.47,5.10,-5.09,-5.18,-4.50,1.37,1.37,1.36
100.25,6.38,5.06,6.38,5.05,-5.05,-5.13,-4.49,1.34,1.33,1.33
101.25,6.29,4.99,6.29,5.00,-5.00,-5.09,-4.48,1.29,1.29,1.30
102.27,6.20,4.94,6.21,4.95,-4.95,-5.04,-4.48,1.25,1.26,1.26
103.29,6.12,4.90,6.12,4.90,-4.90,-5.00,-4.47,1.22,1.22,1.22
104.32,6.03,4.85,6.03,4.85,-4.85,-4.95,-4.47,1.19,1.19,1.18
105.37,5.94,4.80,5.94,4.80,-4.79,-4.91,-4.47,1.15,1.15,1.15
106.42,5.85,4.73,5.85,4.74,-4.74,-4.86,-4.47,1.11,1.11,1.12
107.48,5.76,4.69,5.76,4.69,-4.69,-4.81,-4.47,1.08,1.08,1.07
108.56,5.67,4.63,5.67,4.63,-4.63,-4.76,-4.47,1.04,1.04,1.04
109.64,5.58,4.58,5.58,4.58,-4.58,-4.72,-4.48,1.00,1.00,1.01
110.74,5.49,4.52,5.50,4.53,-4.53,-4.67,-4.48,0.96,0.97,0.97
111.85,5.41,4.48,5.41,4.48,-4.48,-4.62,-4.48,0.93,0.93,0.93
112.97,5.32,4.44,5.32,4.43,-4.44,-4.57,-4.48,0.89,0.88,0.88
114.10,5.23,4.39,5.23,4.39,-4.39,-4.52,-4.48,0.84,0.84,0.85
115.24,5.13,4.34,5.14,4.35,-4.35,-4.46,-4.48,0.78,0.79,0.79
116.39,5.05,4.32,5.05,4.31,-4.31,-4.41,-4.47,0.74,0.74,0.74
117.55,4.96,4.28,4.96,4.28,-4.28,-4.36,-4.47,0.69,0.69,0.68
118.73,4.87,4.25,4.87,4.24,-4.24,-4.31,-4.46,0.64,0.63,0.62
119.92,4.77,4.20,4.77,4.20,-4.20,-4.26,-4.45,0.58,0.58,0.57
121.12,4.67,4.15,4.68,4.16,-4.16,-4.20,-4.44,0.52,0.52,0.53
122.33,4.58,4.12,4.58,4.12,-4.12,-4.15,-4.42,0.47,0.46,0.46
123.55,4.48,4.07,4.48,4.07,-4.08,-4.10,-4.40,0.41,0.40,0.41
124.79,4.38,4.04,4.38,4.03,-4.04,-4.04,-4.38,0.35,0.34,0.35
126.03,4.27,3.99,4.28,3.99,-4.00,-3.99,-4.36,0.28,0.28,0.29
127.29,4.18,3.96,4.18,3.95,-3.96,-3.94,-4.33,0.22,0.22,0.22
128.57,4.08,3.92,4.08,3.92,-3.92,-3.89,-4.29,0.16,0.16,0.16
129.85,3.98,3.88,3.99,3.89,-3.88,-3.84,-4.26,0.10,0.11,0.10
131.15,3.90,3.86,3.89,3.85,-3.84,-3.79,-4.22,0.06,0.05,0.04
132.46,3.80,3.81,3.81,3.81,-3.81,-3.74,-4.18,-0.00,-0.00,-0.00
133.79,3.71,3.76,3.72,3.77,-3.76,-3.69,-4.14,-0.05,-0.05,-0.05
135.12,3.63,3.73,3.63,3.72,-3.72,-3.64,-4.09,-0.09,-0.09,-0.10
136.48,3.54,3.67,3.55,3.68,-3.68,-3.60,-4.04,-0.13,-0.13,-0.12
137.84,3.46,3.63,3.46,3.63,-3.63,-3.55,-3.99,-0.17,-0.17,-0.17
139.22,3.38,3.60,3.38,3.58,-3.58,-3.51,-3.94,-0.20,-0.20,-0.21
140.61,3.29,3.53,3.30,3.54,-3.54,-3.47,-3.89,-0.24,-0.24,-0.24
142.02,3.22,3.49,3.22,3.49,-3.49,-3.43,-3.84,-0.26,-0.27,-0.27
143.44,3.14,3.44,3.14,3.44,-3.44,-3.40,-3.78,-0.30,-0.30,-0.30
144.87,3.06,3.38,3.07,3.39,-3.39,-3.36,-3.73,-0.33,-0.33,-0.32
146.32,2.99,3.34,2.99,3.34,-3.35,-3.33,-3.67,-0.36,-0.36,-0.35
147.78,2.92,3.30,2.92,3.30,-3.30,-3.30,-3.62,-0.38,-0.38,-0.38
149.26,2.85,3.26,2.85,3.26,-3.26,-3.27,-3.56,-0.41,-0.41,-0.41
150.75,2.78,3.23,2.79,3.23,-3.22,-3.24,-3.51,-0.44,-0.44,-0.45
152.26,2.72,3.19,2.72,3.19,-3.19,-3.22,-3.45,-0.46,-0.47,-0.46
153.78,2.65,3.15,2.66,3.15,-3.15,-3.19,-3.40,-0.50,-0.50,-0.50
155.32,2.59,3.12,2.59,3.12,-3.12,-3.17,-3.35,-0.53,-0.53,-0.52
156.88,2.53,3.09,2.53,3.09,-3.10,-3.15,-3.30,-0.57,-0.57,-0.56
158.44,2.47,3.07,2.48,3.07,-3.07,-3.12,-3.25,-0.60,-0.60,-0.60
160.03,2.42,3.06,2.42,3.05,-3.05,-3.10,-3.20,-0.63,-0.63,-0.63
161.63,2.36,3.03,2.36,3.03,-3.03,-3.08,-3.15,-0.67,-0.67,-0.67
163.24,2.31,3.02,2.31,3.02,-3.02,-3.06,-3.11,-0.70,-0.70,-0.71
164.88,2.25,3.00,2.25,3.00,-3.00,-3.04,-3.06,-0.74,-0.74,-0.75
166.53,2.20,2.99,2.20,2.98,-2.98,-3.02,-3.02,-0.78,-0.78,-0.79
168.19,2.14,2.96,2.14,2.96,-2.96,-3.01,-2.98,-0.82,-0.82,-0.81
169.87,2.09,2.94,2.09,2.94,-2.94,-2.99,-2.95,-0.85,-0.85,-0.85
171.57,2.03,2.91,2.04,2.92,-2.92,-2.97,-2.91,-0.89,-0.88,-0.88
173.29,1.99,2.91,1.99,2.90,-2.90,-2.95,-2.88,-0.91,-0.92,-0.91
175.02,1.93,2.88,1.93,2.88,-2.88,-2.93,-2.85,-0.95,-0.95,-0.95
176.77,1.88,2.87,1.88,2.87,-2.87,-2.91,-2.82,-0.98,-0.98,-0.98
178.54,1.83,2.84,1.83,2.85,-2.85,-2.89,-2.79,-1.02,-1.02,-1.01
180.32,1.79,2.84,1.79,2.84,-2.84,-2.87,-2.77,-1.05,-1.05,-1.05
182.13,1.74,2.83,1.75,2.83,-2.83,-2.85,-2.75,-1.09,-1.08,-1.08
183.95,1.70,2.82,1.70,2.82,-2.82,-2.83,-2.73,-1.12,-1.12,-1.12
185.79,1.66,2.81,1.66,2.81,-2.81,-2.81,-2.71,-1.15,-1.15,-1.15
187.65,1.62,2.80,1.62,2.80,-2.80,-2.79,-2.69,-1.18,-1.18,-1.18
189.52,1.58,2.80,1.58,2.79,-2.79,-2.78,-2.68,-1.21,-1.21,-1.22
191.42,1.53,2.77,1.54,2.78,-2.78,-2.76,-2.67,-1.25,-1.24,-1.24
193.33,1.49,2.77,1.49,2.77,-2.77,-2.74,-2.66,-1.27,-1.28,-1.27
195.27,1.44,2.76,1.44,2.75,-2.75,-2.71,-2.65,-1.31,-1.31,-1.31
197.22,1.39,2.74,1.39,2.74,-2.73,-2.69,-2.64,-1.34,-1.34,-1.35
199.19,1.34,2.72,1.34,2.72,-2.71,-2.67,-2.63,-1.37,-1.37,-1.38
201.18,1.29,2.70,1.29,2.70,-2.69,-2.65,-2.63,-1.40,-1.40,-1.40
203.19,1.24,2.67,1.24,2.67,-2.67,-2.63,-2.62,-1.43,-1.43,-1.43
205.23,1.18,2.64,1.19,2.64,-2.65,-2.61,-2.62,-1.46,-1.46,-1.45
207.28,1.14,2.62,1.14,2.62,-2.62,-2.59,-2.62,-1.48,-1.49,-1.48
209.35,1.08,2.60,1.09,2.60,-2.60,-2.57,-2.62,-1.52,-1.51,-1.51
211.44,1.04,2.58,1.04,2.58,-2.58,-2.55,-2.62,-1.53,-1.54,-1.54
213.56,0.99,2.55,0.99,2.55,-2.56,-2.53,-2.62,-1.56,-1.56,-1.56
215.69,0.95,2.54,0.95,2.53,-2.54,-2.51,-2.62,-1.58,-1.59,-1.58
217.85,0.90,2.51,0.91,2.51,-2.51,-2.49,-2.62,-1.61,-1.61,-1.60
220.03,0.86,2.50,0.86,2.50,-2.49,-2.47,-2.62,-1.63,-1.63,-1.64
222.23,0.82,2.48,0.82,2.48,-2.47,-2.45,-2.62,-1.65,-1.65,-1.66
224.45,0.77,2.45,0.78,2.46,-2.45,-2.43,-2.62,-1.68,-1.68,-1.68
226.70,0.73,2.43,0.73,2.43,-2.43,-2.42,-2.62,-1.70,-1.70,-1.70
228.96,0.69,2.40,0.69,2.40,-2.41,-2.40,-2.61,-1.72,-1.72,-1.71
231.25,0.65,2.38,0.65,2.38,-2.39,-2.38,-2.61,-1.73,-1.73,-1.73
233.57,0.61,2.36,0.61,2.37,-2.37,-2.36,-2.60,-1.75,-1.75,-1.75
235.90,0.57,2.35,0.57,2.35,-2.34,-2.34,-2.60,-1.77,-1.77,-1.78
238.26,0.53,2.33,0.53,2.32,-2.32,-2.32,-2.59,-1.79,-1.79,-1.80
240.64,0.49,2.29,0.50,2.30,-2.30,-2.30,-2.58,-1.81,-1.80,-1.80
243.05,0.47,2.29,0.46,2.28,-2.28,-2.29,-2.56,-1.81,-1.82,-1.82
245.48,0.43,2.27,0.43,2.26,-2.26,-2.27,-2.55,-1.83,-1.83,-1.83
247.93,0.39,2.24,0.40,2.25,-2.24,-2.25,-2.53,-1.85,-1.84,-1.85
250.41,0.37,2.23,0.37,2.22,-2.22,-2.23,-2.51,-1.85,-1.86,-1.86
252.92,0.33,2.20,0.33,2.20,-2.20,-2.22,-2.49,-1.87,-1.87,-1.87
255.45,0.30,2.19,0.30,2.18,-2.18,-2.20,-2.46,-1.88,-1.88,-1.88
258.00,0.27,2.16,0.27,2.16,-2.16,-2.18,-2.44,-1.89,-1.89,-1.89
260.58,0.24,2.14,0.24,2.14,-2.14,-2.17,-2.41,-1.90,-1.90,-1.90
263.19,0.21,2.12,0.22,2.12,-2.13,-2.15,-2.38,-1.91,-1.91,-1.91
265.82,0.19,2.11,0.19,2.11,-2.11,-2.13,-2.34,-1.92,-1.92,-1.92
268.48,0.16,2.10,0.16,2.09,-2.09,-2.12,-2.31,-1.93,-1.93,-1.93
271.16,0.14,2.08,0.14,2.08,-2.08,-2.10,-2.27,-1.94,-1.94,-1.94
273.87,0.10,2.06,0.11,2.06,-2.06,-2.08,-2.23,-1.96,-1.96,-1.95
276.61,0.08,2.05,0.08,2.05,-2.05,-2.07,-2.19,-1.97,-1.97,-1.97
279.38,0.05,2.04,0.06,2.04,-2.04,-2.05,-2.15,-1.98,-1.98,-1.98
282.17,0.04,2.03,0.04,2.02,-2.02,-2.03,-2.10,-1.98,-1.99,-1.99
284.99,0.01,2.01,0.02,2.01,-2.01,-2.02,-2.06,-2.00,-2.00,-1.99
287.84,-0.01,1.98,-0.00,1.99,-2.00,-2.00,-2.01,-2.01,-2.00,-1.99
290.72,-0.02,1.99,-0.02,1.98,-1.99,-1.98,-1.97,-2.00,-2.01,-2.01
293.63,-0.04,1.98,-0.04,1.98,-1.97,-1.97,-1.92,-2.01,-2.01,-2.02
296.57,-0.06,1.96,-0.06,1.96,-1.96,-1.95,-1.87,-2.01,-2.01,-2.02
299.53,-0.08,1.95,-0.08,1.95,-1.94,-1.93,-1.82,-2.02,-2.02,-2.02
302.53,-0.11,1.92,-0.10,1.93,-1.93,-1.91,-1.78,-2.03,-2.03,-2.03
305.55,-0.12,1.91,-0.12,1.90,-1.91,-1.89,-1.73,-2.02,-2.03,-2.03
308.61,-0.15,1.88,-0.14,1.88,-1.89,-1.88,-1.68,-2.03,-2.03,-2.02
311.69,-0.17,1.86,-0.16,1.87,-1.87,-1.86,-1.63,-2.03,-2.03,-2.03
314.81,-0.18,1.85,-0.18,1.84,-1.84,-1.84,-1.59,-2.02,-2.03,-2.03
317.96,-0.21,1.83,-0.20,1.83,-1.82,-1.81,-1.54,-2.03,-2.02,-2.03
321.14,-0.23,1.80,-0.23,1.80,-1.80,-1.79,-1.50,-2.02,-2.02,-2.03
324.35,-0.26,1.77,-0.26,1.77,-1.77,-1.77,-1.45,-2.03,-2.03,-2.03
327.59,-0.28,1.73,-0.28,1.74,-1.75,-1.75,-1.41,-2.03,-2.03,-2.01
330.87,-0.31,1.72,-0.30,1.72,-1.72,-1.73,-1.36,-2.03,-2.02,-2.02
334.18,-0.32,1.71,-0.32,1.70,-1.70,-1.70,-1.32,-2.01,-2.02,-2.03
337.52,-0.35,1.67,-0.34,1.68,-1.67,-1.68,-1.28,-2.02,-2.01,-2.02
340.90,-0.37,1.64,-0.37,1.64,-1.64,-1.65,-1.23,-2.01,-2.01,-2.01
344.30,-0.40,1.62,-0.40,1.61,-1.61,-1.63,-1.19,-2.01,-2.01,-2.01
347.75,-0.43,1.58,-0.42,1.59,-1.59,-1.60,-1.15,-2.01,-2.01,-2.00
351.23,-0.45,1.57,-0.45,1.56,-1.56,-1.58,-1.11,-2.01,-2.01,-2.02
354.74,-0.48,1.52,-0.48,1.53,-1.53,-1.55,-1.07,-2.01,-2.01,-2.00
358.28,-0.51,1.50,-0.50,1.51,-1.50,-1.52,-1.04,-2.01,-2.01,-2.01
361.87,-0.53,1.48,-0.53,1.47,-1.48,-1.49,-1.00,-2.00,-2.01,-2.01
365.49,-0.56,1.45,-0.56,1.45,-1.45,-1.46,-0.96,-2.01,-2.01,-2.00
369.14,-0.59,1.42,-0.58,1.42,-1.43,-1.43,-0.93,-2.01,-2.01,-2.01
372.83,-0.61,1.40,-0.61,1.40,-1.40,-1.40,-0.89,-2.01,-2.01,-2.01
376.56,-0.64,1.38,-0.64,1.38,-1.37,-1.37,-0.86,-2.01,-2.01,-2.02
380.33,-0.67,1.34,-0.67,1.35,-1.34,-1.34,-0.83,-2.01,-2.01,-2.01
384.13,-0.70,1.31,-0.70,1.31,-1.31,-1.31,-0.79,-2.01,-2.01,-2.01
387.97,-0.73,1.28,-0.73,1.28,-1.28,-1.27,-0.76,-2.01,-2.01,-2.00
391.85,-0.76,1.25,-0.76,1.25,-1.25,-1.24,-0.73,-2.00,-2.00,-2.00
395.77,-0.79,1.22,-0.79,1.21,-1.21,-1.21,-0.70,-2.00,-2.00,-2.00
399.73,-0.82,1.18,-0.82,1.18,-1.18,-1.17,-0.67,-2.00,-2.00,-2.00
403.72,-0.85,1.14,-0.85,1.14,-1.15,-1.14,-0.64,-1.99,-2.00,-1.99
407.76,-0.88,1.11,-0.88,1.11,-1.12,-1.11,-0.61,-1.99,-1.99,-1.99
411.84,-0.91,1.08,-0.90,1.08,-1.08,-1.07,-0.58,-1.99,-1.99,-1.99
415.96,-0.93,1.05,-0.93,1.06,-1.05,-1.04,-0.56,-1.98,-1.98,-1.98
420.12,-0.97,1.02,-0.96,1.02,-1.02,-1.00,-0.53,-1.99,-1.98,-1.99
424.32,-1.00,1.00,-0.99,0.99,-0.99,-0.97,-0.50,-1.98,-1.98,-1.99
428.56,-1.03,0.95,-1.03,0.95,-0.95,-0.93,-0.48,-1.98,-1.98,-1.97
432.85,-1.06,0.92,-1.06,0.92,-0.92,-0.90,-0.45,-1.98,-1.98,-1.97
437.18,-1.10,0.89,-1.09,0.89,-0.89,-0.86,-0.43,-1.99,-1.98,-1.98
441.55,-1.13,0.86,-1.13,0.86,-0.86,-0.83,-0.40,-1.98,-1.98,-1.99
445.96,-1.17,0.82,-1.16,0.82,-0.82,-0.79,-0.38,-1.99,-1.98,-1.99
450.42,-1.20,0.79,-1.20,0.79,-0.78,-0.76,-0.36,-1.98,-1.98,-1.99
454.93,-1.24,0.75,-1.24,0.75,-0.75,-0.72,-0.33,-1.98,-1.98,-1.99
459.48,-1.28,0.71,-1.27,0.71,-0.71,-0.68,-0.31,-1.99,-1.98,-1.99
464.07,-1.31,0.67,-1.31,0.67,-0.67,-0.65,-0.29,-1.98,-1.98,-1.98
468.71,-1.34,0.63,-1.34,0.63,-0.64,-0.61,-0.27,-1.97,-1.98,-1.97
473.40,-1.38,0.59,-1.38,0.59,-0.60,-0.58,-0.25,-1.98,-1.98,-1.97
478.13,-1.42,0.55,-1.41,0.56,-0.56,-0.54,-0.23,-1.98,-1.97,-1.97
482.91,-1.44,0.53,-1.44,0.53,-0.53,-0.51,-0.21,-1.96,-1.97,-1.97
