frequency,raw,error,smoothed,error_smoothed,equalization,parametric_eq,fixed_band_eq,equalized_raw,equalized_smoothed,target
20.00,5.08,3.39,5.08,3.39,-3.39,-3.98,-2.61,1.69,1.69,1.69
20.20,5.14,3.48,5.14,3.47,-3.47,-4.03,-2.68,1.67,1.67,1.66
20.40,5.19,3.55,5.20,3.55,-3.55,-4.08,-2.75,1.64,1.64,1.64
20.61,5.25,3.63,5.25,3.63,-3.63,-4.13,-2.83,1.62,1.62,1.62
20.81,5.31,3.71,5.31,3.71,-3.71,-4.18,-2.91,1.60,1.60,1.60
21.02,5.37,3.79,5.37,3.79,-3.79,-4.22,-2.99,1.58,1.58,1.58
21.23,5.43,3.87,5.43,3.87,-3.87,-4.27,-3.08,1.56,1.56,1.56
21.44,5.49,3.95,5.49,3.95,-3.95,-4.32,-3.17,1.55,1.54,1.54
21.66,5.54,4.02,5.55,4.02,-4.02,-4.37,-3.26,1.52,1.53,1.52
21.87,5.60,4.09,5.60,4.09,-4.10,-4.42,-3.35,1.51,1.51,1.51
22.09,5.66,4.17,5.66,4.17,-4.17,-4.46,-3.44,1.49,1.49,1.49
22.31,5.72,4.24,5.73,4.24,-4.24,-4.51,-3.54,1.48,1.48,1.48
22.54,5.79,4.32,5.79,4.32,-4.32,-4.56,-3.64,1.48,1.48,1.47
22.76,5.85,4.39,5.85,4.39,-4.39,-4.60,-3.74,1.47,1.47,1.46
22.99,5.91,4.46,5.91,4.46,-4.46,-4.65,-3.85,1.46,1.45,1.45
23.22,5.96,4.52,5.97,4.52,-4.53,-4.70,-3.95,1.44,1.44,1.44
23.45,6.02,4.59,6.02,4.59,-4.60,-4.74,-4.06,1.43,1.43,1.43
23.69,6.08,4.66,6.09,4.66,-4.66,-4.79,-4.18,1.42,1.42,1.42
23.92,6.15,4.73,6.15,4.73,-4.73,-4.84,-4.29,1.42,1.42,1.42
24.16,6.21,4.80,6.21,4.80,-4.79,-4.88,-4.41,1.42,1.42,1.41
24.40,6.27,4.86,6.27,4.86,-4.85,-4.93,-4.53,1.42,1.42,1.41
24.65,6.32,4.92,6.32,4.92,-4.92,-4.97,-4.65,1.41,1.41,1.40
24.89,6.37,4.97,6.38,4.97,-4.98,-5.02,-4.77,1.40,1.40,1.40
25.14,6.42,5.03,6.43,5.03,-5.04,-5.06,-4.89,1.39,1.39,1.39
25.39,6.48,5.09,6.48,5.09,-5.10,-5.10,-5.02,1.39,1.38,1.39
25.65,6.53,5.15,6.53,5.15,-5.15,-5.15,-5.14,1.38,1.38,1.38
25.91,6.58,5.20,6.59,5.21,-5.21,-5.19,-5.27,1.37,1.38,1.38
26.16,6.64,5.27,6.65,5.27,-5.27,-5.24,-5.40,1.37,1.38,1.37
26.43,6.71,5.34,6.71,5.34,-5.33,-5.28,-5.52,1.39,1.38,1.37
26.69,6.76,5.40,6.76,5.39,-5.38,-5.32,-5.65,1.38,1.38,1.36
26.96,6.80,5.44,6.80,5.44,-5.44,-5.37,-5.77,1.37,1.37,1.36
27.23,6.84,5.48,6.84,5.48,-5.49,-5.41,-5.90,1.35,1.35,1.36
27.50,6.88,5.53,6.89,5.53,-5.54,-5.45,-6.02,1.34,1.34,1.35
27.77,6.93,5.58,6.93,5.58,-5.59,-5.49,-6.13,1.34,1.34,1.35
28.05,6.98,5.64,6.98,5.64,-5.63,-5.54,-6.25,1.35,1.35,1.34
28.33,7.03,5.69,7.03,5.69,-5.68,-5.58,-6.36,1.35,1.35,1.34
28.62,7.07,5.73,7.07,5.73,-5.72,-5.62,-6.46,1.35,1.35,1.34
28.90,7.10,5.77,7.11,5.77,-5.77,-5.66,-6.56,1.33,1.34,1.33
29.19,7.14,5.81,7.14,5.81,-5.81,-5.70,-6.66,1.33,1.33,1.33
29.48,7.18,5.85,7.18,5.85,-5.86,-5.74,-6.74,1.33,1.33,1.33
29.78,7.23,5.90,7.23,5.90,-5.90,-5.78,-6.82,1.33,1.33,1.33
30.08,7.27,5.94,7.28,5.94,-5.94,-5.82,-6.89,1.33,1.33,1.33
30.38,7.32,5.99,7.32,5.99,-5.99,-5.86,-6.96,1.33,1.33,1.33
30.68,7.36,6.04,7.36,6.04,-6.04,-5.90,-7.01,1.33,1.33,1.32
30.99,7.40,6.08,7.41,6.08,-6.08,-5.94,-7.06,1.32,1.33,1.32
31.30,7.45,6.13,7.45,6.13,-6.13,-5.98,-7.10,1.32,1.32,1.32
31.61,7.50,6.18,7.50,6.18,-6.18,-6.02,-7.13,1.33,1.32,1.32
31.93,7.53,6.22,7.54,6.22,-6.22,-6.06,-7.15,1.31,1.32,1.31
32.24,7.57,6.26,7.58,6.27,-6.26,-6.09,-7.16,1.31,1.31,1.31
32.57,7.61,6.31,7.61,6.31,-6.30,-6.13,-7.16,1.31,1.31,1.30
32.89,7.65,6.35,7.65,6.35,-6.35,-6.17,-7.16,1.31,1.30,1.30
33.22,7.68,6.38,7.69,6.39,-6.39,-6.20,-7.15,1.29,1.30,1.30
33.55,7.72,6.42,7.72,6.42,-6.43,-6.24,-7.13,1.29,1.29,1.30
33.89,7.76,6.47,7.76,6.47,-6.47,-6.28,-7.11,1.29,1.29,1.29
34.23,7.80,6.51,7.80,6.52,-6.51,-6.31,-7.08,1.29,1.29,1.29
34.57,7.84,6.56,7.84,6.56,-6.55,-6.35,-7.05,1.30,1.30,1.28
34.92,7.88,6.60,7.88,6.59,-6.58,-6.38,-7.01,1.30,1.30,1.28
35.27,7.90,6.62,7.90,6.62,-6.61,-6.42,-6.97,1.29,1.29,1.28
35.62,7.91,6.63,7.92,6.64,-6.64,-6.45,-6.93,1.27,1.28,1.28
35.97,7.93,6.66,7.94,6.66,-6.67,-6.48,-6.89,1.26,1.27,1.27
36.33,7.96,6.69,7.96,6.69,-6.70,-6.51,-6.84,1.26,1.26,1.27
36.70,8.00,6.73,8.00,6.73,-6.73,-6.55,-6.80,1.27,1.26,1.27
37.06,8.03,6.76,8.04,6.76,-6.77,-6.58,-6.75,1.26,1.27,1.27
37.43,8.07,6.80,8.07,6.80,-6.81,-6.61,-6.71,1.27,1.27,1.27
37.81,8.11,6.85,8.11,6.85,-6.85,-6.64,-6.66,1.27,1.27,1.26
38.19,8.15,6.89,8.15,6.89,-6.88,-6.67,-6.62,1.27,1.27,1.26
38.57,8.18,6.93,8.18,6.93,-6.92,-6.70,-6.59,1.26,1.26,1.25
38.95,8.21,6.96,8.21,6.96,-6.96,-6.73,-6.55,1.26,1.25,1.25
39.34,8.23,6.99,8.23,6.99,-6.99,-6.76,-6.52,1.24,1.25,1.24
39.74,8.25,7.01,8.26,7.01,-7.02,-6.79,-6.49,1.24,1.24,1.24
40.14,8.28,7.04,8.28,7.04,-7.04,-6.82,-6.46,1.24,1.24,1.24
40.54,8.30,7.07,8.30,7.07,-7.06,-6.84,-6.44,1.24,1.24,1.23
40.94,8.32,7.09,8.32,7.09,-7.08,-6.87,-6.42,1.24,1.24,1.23
41.35,8.33,7.10,8.34,7.10,-7.10,-6.90,-6.41,1.23,1.23,1.23
41.76,8.35,7.12,8.35,7.12,-7.12,-6.92,-6.40,1.23,1.23,1.23
42.18,8.37,7.13,8.37,7.13,-7.14,-6.95,-6.39,1.24,1.24,1.24
42.60,8.39,7.15,8.39,7.15,-7.15,-6.97,-6.39,1.24,1.24,1.24
43.03,8.41,7.17,8.41,7.17,-7.17,-7.00,-6.40,1.24,1.24,1.24
43.46,8.43,7.19,8.43,7.19,-7.19,-7.02,-6.41,1.25,1.25,1.24
43.90,8.45,7.21,8.45,7.21,-7.21,-7.04,-6.42,1.25,1.25,1.24
44.33,8.47,7.22,8.48,7.23,-7.23,-7.07,-6.44,1.24,1.25,1.25
44.78,8.50,7.25,8.50,7.25,-7.26,-7.09,-6.46,1.25,1.25,1.25
45.23,8.53,7.28,8.53,7.28,-7.28,-7.11,-6.49,1.25,1.25,1.25
45.68,8.56,7.31,8.56,7.31,-7.31,-7.13,-6.53,1.25,1.25,1.25
46.13,8.59,7.34,8.59,7.34,-7.34,-7.15,-6.56,1.25,1.25,1.25
46.60,8.62,7.38,8.62,7.38,-7.38,-7.17,-6.61,1.25,1.25,1.24
47.06,8.65,7.41,8.65,7.41,-7.41,-7.19,-6.66,1.25,1.24,1.24
47.53,8.67,7.43,8.67,7.43,-7.43,-7.21,-6.71,1.24,1.24,1.24
48.01,8.69,7.45,8.70,7.46,-7.45,-7.22,-6.76,1.24,1.24,1.24
48.49,8.71,7.48,8.71,7.47,-7.47,-7.24,-6.83,1.24,1.24,1.23
48.97,8.72,7.49,8.72,7.49,-7.48,-7.26,-6.89,1.24,1.24,1.23
49.46,8.72,7.49,8.73,7.49,-7.48,-7.27,-6.96,1.24,1.24,1.23
49.96,8.72,7.49,8.72,7.48,-7.48,-7.29,-7.03,1.24,1.24,1.23
50.46,8.71,7.47,8.71,7.47,-7.48,-7.30,-7.11,1.23,1.23,1.24
50.96,8.70,7.46,8.71,7.47,-7.47,-7.32,-7.19,1.23,1.23,1.24
51.47,8.70,7.46,8.70,7.46,-7.47,-7.33,-7.27,1.24,1.24,1.24
51.99,8.70,7.46,8.70,7.46,-7.46,-7.34,-7.35,1.24,1.24,1.24
52.51,8.70,7.45,8.70,7.45,-7.46,-7.35,-7.43,1.25,1.25,1.25
53.03,8.70,7.45,8.70,7.45,-7.45,-7.36,-7.52,1.25,1.25,1.25
53.56,8.70,7.45,8.70,7.45,-7.45,-7.37,-7.61,1.25,1.25,1.25
54.10,8.70,7.45,8.70,7.45,-7.45,-7.38,-7.69,1.26,1.26,1.25
54.64,8.70,7.45,8.70,7.45,-7.45,-7.39,-7.78,1.26,1.26,1.25
55.18,8.70,7.44,8.70,7.44,-7.44,-7.40,-7.86,1.26,1.26,1.26
55.74,8.70,7.44,8.70,7.44,-7.44,-7.41,-7.94,1.26,1.26,1.26
56.29,8.70,7.44,8.70,7.44,-7.44,-7.42,-8.02,1.26,1.26,1.26
56.86,8.70,7.43,8.70,7.43,-7.44,-7.42,-8.09,1.27,1.27,1.27
57.42,8.70,7.43,8.70,7.43,-7.43,-7.43,-8.16,1.27,1.27,1.27
58.00,8.70,7.43,8.70,7.43,-7.43,-7.43,-8.22,1.27,1.27,1.27
58.58,8.70,7.43,8.70,7.43,-7.43,-7.44,-8.28,1.28,1.28,1.27
59.16,8.70,7.42,8.70,7.42,-7.42,-7.44,-8.33,1.28,1.28,1.28
59.76,8.70,7.42,8.70,7.42,-7.42,-7.44,-8.37,1.28,1.28,1.28
60.35,8.70,7.42,8.70,7.42,-7.42,-7.45,-8.40,1.29,1.29,1.28
60.96,8.70,7.41,8.70,7.41,-7.41,-7.45,-8.42,1.29,1.29,1.29
61.57,8.70,7.41,8.70,7.41,-7.41,-7.45,-8.44,1.29,1.29,1.29
62.18,8.70,7.41,8.70,7.41,-7.41,-7.45,-8.44,1.29,1.29,1.29
62.80,8.70,7.41,8.70,7.41,-7.41,-7.45,-8.44,1.29,1.29,1.29
63.43,8.70,7.41,8.70,7.41,-7.41,-7.45,-8.42,1.29,1.29,1.29
64.07,8.70,7.41,8.70,7.41,-7.41,-7.44,-8.40,1.29,1.29,1.29
64.71,8.70,7.41,8.70,7.41,-7.41,-7.44,-8.37,1.29,1.29,1.29
65.35,8.70,7.41,8.70,7.41,-7.41,-7.44,-8.33,1.29,1.29,1.29
66.01,8.70,7.41,8.70,7.41,-7.41,-7.43,-8.27,1.29,1.29,1.29
66.67,8.70,7.41,8.70,7.41,-7.41,-7.43,-8.22,1.29,1.29,1.29
67.33,8.70,7.41,8.70,7.41,-7.41,-7.42,-8.15,1.29,1.29,1.29
68.01,8.70,7.41,8.70,7.41,-7.41,-7.42,-8.08,1.29,1.29,1.29
68.69,8.70,7.41,8.70,7.41,-7.41,-7.41,-8.00,1.29,1.29,1.29
69.37,8.70,7.41,8.70,7.41,-7.42,-7.40,-7.92,1.29,1.29,1.29
70.07,8.70,7.41,8.71,7.42,-7.42,-7.39,-7.83,1.28,1.29,1.29
70.77,8.71,7.42,8.71,7.42,-7.42,-7.39,-7.74,1.29,1.29,1.29
71.48,8.72,7.43,8.72,7.42,-7.42,-7.38,-7.65,1.30,1.30,1.29
72.19,8.72,7.42,8.72,7.43,-7.42,-7.37,-7.55,1.30,1.31,1.30
72.91,8.72,7.42,8.72,7.42,-7.41,-7.36,-7.46,1.31,1.31,1.30
73.64,8.71,7.41,8.71,7.40,-7.40,-7.34,-7.36,1.31,1.31,1.30
74.38,8.69,7.38,8.70,7.39,-7.38,-7.33,-7.27,1.31,1.31,1.31
75.12,8.67,7.36,8.67,7.36,-7.36,-7.32,-7.17,1.31,1.31,1.31
75.87,8.65,7.34,8.65,7.33,-7.33,-7.30,-7.08,1.32,1.32,1.31
76.63,8.62,7.30,8.62,7.30,-7.30,-7.29,-6.99,1.32,1.32,1.32
77.40,8.59,7.27,8.59,7.27,-7.27,-7.28,-6.90,1.33,1.33,1.32
78.17,8.56,7.23,8.56,7.23,-7.24,-7.26,-6.81,1.33,1.33,1.33
78.95,8.53,7.20,8.53,7.20,-7.20,-7.24,-6.73,1.33,1.33,1.33
79.74,8.50,7.17,8.50,7.16,-7.17,-7.23,-6.65,1.33,1.33,1.33
80.54,8.47,7.13,8.48,7.14,-7.15,-7.21,-6.57,1.33,1.33,1.34
81.35,8.45,7.11,8.46,7.11,-7.12,-7.19,-6.50,1.33,1.34,1.34
82.16,8.44,7.10,8.44,7.09,-7.09,-7.17,-6.43,1.35,1.35,1.34
82.98,8.42,7.08,8.42,7.08,-7.07,-7.15,-6.37,1.35,1.35,1.34
83.81,8.39,7.05,8.40,7.05,-7.05,-7.13,-6.31,1.35,1.35,1.34
84.65,8.37,7.03,8.37,7.02,-7.02,-7.11,-6.25,1.35,1.35,1.34
85.50,8.34,6.99,8.35,7.00,-7.00,-7.09,-6.20,1.34,1.34,1.35
86.35,8.32,6.97,8.32,6.97,-6.98,-7.07,-6.15,1.35,1.35,1.35
87.22,8.30,6.95,8.30,6.95,-6.95,-7.05,-6.11,1.35,1.35,1.35
88.09,8.28,6.93,8.28,6.93,-6.93,-7.02,-6.07,1.35,1.35,1.35
88.97,8.26,6.91,8.26,6.91,-6.91,-7.00,-6.04,1.36,1.35,1.35
89.86,8.23,6.88,8.24,6.88,-6.88,-6.98,-6.01,1.35,1.35,1.35
90.76,8.21,6.86,8.21,6.86,-6.86,-6.95,-5.99,1.35,1.35,1.35
91.66,8.18,6.83,8.19,6.83,-6.83,-6.93,-5.97,1.35,1.35,1.35
92.58,8.16,6.81,8.16,6.81,-6.80,-6.90,-5.95,1.36,1.36,1.35
93.51,8.13,6.78,8.13,6.78,-6.77,-6.87,-5.94,1.36,1.36,1.35
94.44,8.10,6.75,8.10,6.75,-6.74,-6.85,-5.94,1.36,1.36,1.35
95.39,8.06,6.71,8.06,6.71,-6.71,-6.82,-5.93,1.36,1.36,1.35
96.34,8.02,6.67,8.03,6.67,-6.68,-6.79,-5.93,1.35,1.35,1.35
97.30,7.99,6.63,7.99,6.63,-6.65,-6.76,-5.94,1.34,1.34,1.36
98.28,7.96,6.60,7.97,6.60,-6.62,-6.73,-5.95,1.34,1.35,1.36
99.26,7.94,6.58,7.95,6.58,-6.59,-6.70,-5.96,1.35,1.36,1.36
100.25,7.93,6.57,7.93,6.57,-6.56,-6.67,-5.97,1.37,1.37,1.36
101.25,7.91,6.55,7.91,6.55,-6.53,-6.64,-5.99,1.38,1.38,1.36
102.27,7.88,6.52,7.88,6.52,-6.50,-6.61,-6.01,1.38,1.38,1.36
103.29,7.84,6.48,7.84,6.48,-6.47,-6.58,-6.03,1.38,1.37,1.36
104.32,7.79,6.42,7.80,6.43,-6.43,-6.55,-6.06,1.36,1.37,1.37
105.37,7.75,6.38,7.75,6.38,-6.39,-6.52,-6.08,1.36,1.37,1.37
106.42,7.71,6.34,7.71,6.34,-6.34,-6.48,-6.11,1.37,1.37,1.37
107.48,7.67,6.29,7.67,6.29,-6.30,-6.45,-6.14,1.38,1.38,1.38
108.56,7.63,6.25,7.63,6.25,-6.25,-6.42,-6.17,1.38,1.38,1.38
109.64,7.59,6.21,7.59,6.21,-6.20,-6.38,-6.19,1.39,1.38,1.38
110.74,7.54,6.16,7.55,6.16,-6.16,-6.35,-6.22,1.38,1.38,1.38
111.85,7.50,6.11,7.50,6.11,-6.12,-6.31,-6.24,1.38,1.38,1.39
112.97,7.46,6.07,7.46,6.07,-6.08,-6.28,-6.27,1.39,1.39,1.39
114.10,7.42,6.03,7.42,6.03,-6.03,-6.24,-6.29,1.39,1.39,1.39
115.24,7.38,5.99,7.38,5.99,-5.98,-6.21,-6.31,1.40,1.40,1.39
116.39,7.34,5.95,7.34,5.94,-5.94,-6.17,-6.32,1.41,1.40,1.39
117.55,7.29,5.89,7.29,5.90,-5.89,-6.13,-6.33,1.40,1.40,1.40
118.73,7.24,5.84,7.24,5.84,-5.84,-6.09,-6.34,1.40,1.40,1.40
119.92,7.19,5.79,7.19,5.79,-5.79,-6.06,-6.34,1.40,1.40,1.40
121.12,7.14,5.73,7.15,5.74,-5.75,-6.02,-6.33,1.40,1.40,1.41
122.33,7.10,5.69,7.10,5.69,-5.70,-5.98,-6.32,1.41,1.41,1.41
123.55,7.06,5.64,7.07,5.65,-5.65,-5.94,-6.31,1.42,1.42,1.42
124.79,7.03,5.61,7.03,5.61,-5.59,-5.90,-6.29,1.44,1.43,1.42
126.03,6.98,5.56,6.98,5.56,-5.55,-5.86,-6.26,1.44,1.44,1.42
127.29,6.93,5.50,6.93,5.50,-5.50,-5.82,-6.23,1.44,1.44,1.43
128.57,6.87,5.44,6.88,5.44,-5.45,-5.78,-6.19,1.43,1.43,1.43
129.85,6.82,5.38,6.83,5.39,-5.39,-5.74,-6.14,1.43,1.43,1.44
131.15,6.78,5.34,6.78,5.34,-5.34,-5.70,-6.09,1.44,1.44,1.44
132.46,6.73,5.29,6.74,5.29,-5.29,-5.66,-6.04,1.44,1.45,1.44
133.79,6.69,5.25,6.69,5.25,-5.24,-5.62,-5.98,1.45,1.45,1.44
135.12,6.64,5.20,6.64,5.20,-5.19,-5.58,-5.91,1.45,1.45,1.44
136.48,6.59,5.15,6.60,5.15,-5.15,-5.54,-5.84,1.44,1.44,1.44
137.84,6.55,5.10,6.55,5.10,-5.12,-5.49,-5.77,1.43,1.43,1.45
139.22,6.52,5.07,6.52,5.07,-5.09,-5.45,-5.70,1.43,1.44,1.45
140.61,6.50,5.05,6.51,5.05,-5.06,-5.41,-5.62,1.44,1.45,1.45
142.02,6.49,5.04,6.49,5.04,-5.03,-5.37,-5.54,1.46,1.46,1.45
143.44,6.48,5.03,6.48,5.02,-5.01,-5.33,-5.46,1.47,1.47,1.45
144.87,6.46,5.00,6.46,5.00,-4.99,-5.28,-5.38,1.47,1.47,1.46
146.32,6.43,4.97,6.44,4.97,-4.97,-5.24,-5.29,1.46,1.47,1.46
147.78,6.41,4.95,6.41,4.94,-4.95,-5.20,-5.21,1.46,1.46,1.46
149.26,6.38,4.91,6.39,4.92,-4.93,-5.15,-5.13,1.46,1.46,1.47
150.75,6.36,4.89,6.37,4.90,-4.90,-5.11,-5.04,1.46,1.47,1.47
152.26,6.35,4.88,6.35,4.87,-4.87,-5.07,-4.96,1.48,1.48,1.47
153.78,6.33,4.85,6.33,4.85,-4.84,-5.02,-4.88,1.49,1.49,1.48
155.32,6.30,4.82,6.30,4.82,-4.81,-4.98,-4.80,1.49,1.49,1.48
156.88,6.27,4.79,6.27,4.79,-4.79,-4.93,-4.72,1.49,1.49,1.48
158.44,6.24,4.75,6.24,4.75,-4.76,-4.89,-4.65,1.48,1.48,1.49
160.03,6.21,4.72,6.22,4.72,-4.73,-4.84,-4.57,1.48,1.48,1.49
161.63,6.19,4.70,6.19,4.70,-4.71,-4.80,-4.50,1.49,1.49,1.49
163.24,6.17,4.68,6.17,4.68,-4.68,-4.76,-4.43,1.49,1.49,1.49
164.88,6.15,4.66,6.15,4.66,-4.65,-4.71,-4.37,1.50,1.50,1.49
166.53,6.13,4.63,6.13,4.63,-4.63,-4.67,-4.30,1.51,1.50,1.50
168.19,6.11,4.61,6.11,4.61,-4.60,-4.62,-4.24,1.51,1.50,1.50
169.87,6.08,4.58,6.09,4.58,-4.58,-4.58,-4.19,1.50,1.50,1.50
171.57,6.06,4.55,6.06,4.55,-4.56,-4.53,-4.13,1.50,1.50,1.51
173.29,6.04,4.53,6.04,4.53,-4.54,-4.49,-4.08,1.51,1.50,1.51
175.02,6.02,4.51,6.02,4.51,-4.51,-4.44,-4.03,1.51,1.51,1.51
176.77,6.00,4.49,6.01,4.49,-4.49,-4.40,-3.98,1.51,1.52,1.51
178.54,5.99,4.47,5.99,4.47,-4.46,-4.35,-3.94,1.53,1.52,1.52
180.32,5.96,4.44,5.96,4.44,-4.44,-4.31,-3.90,1.53,1.53,1.52
182.13,5.93,4.41,5.93,4.41,-4.40,-4.26,-3.86,1.53,1.53,1.52
183.95,5.89,4.37,5.89,4.37,-4.37,-4.22,-3.83,1.52,1.52,1.52
185.79,5.85,4.34,5.85,4.33,-4.33,-4.17,-3.80,1.52,1.52,1.51
187.65,5.80,4.29,5.81,4.29,-4.29,-4.13,-3.77,1.51,1.51,1.51
189.52,5.76,4.25,5.76,4.25,-4.26,-4.08,-3.74,1.51,1.51,1.51
191.42,5.72,4.21,5.72,4.21,-4.22,-4.04,-3.72,1.51,1.51,1.51
193.33,5.69,4.17,5.69,4.17,-4.18,-3.99,-3.70,1.52,1.51,1.52
195.27,5.65,4.13,5.66,4.14,-4.14,-3.95,-3.68,1.52,1.52,1.52
197.22,5.62,4.10,5.62,4.10,-4.10,-3.90,-3.66,1.52,1.52,1.52
199.19,5.59,4.07,5.59,4.06,-4.06,-3.86,-3.65,1.53,1.53,1.52
201.18,5.55,4.02,5.55,4.03,-4.02,-3.81,-3.64,1.53,1.53,1.53
203.19,5.51,3.98,5.51,3.98,-3.98,-3.77,-3.63,1.53,1.53,1.53
205.23,5.47,3.94,5.47,3.94,-3.94,-3.72,-3.62,1.54,1.54,1.53
207.28,5.43,3.89,5.43,3.90,-3.89,-3.68,-3.61,1.54,1.54,1.54
209.35,5.39,3.85,5.39,3.85,-3.84,-3.63,-3.61,1.55,1.55,1.54
211.44,5.34,3.80,5.34,3.80,-3.80,-3.59,-3.60,1.55,1.55,1.54
213.56,5.29,3.74,5.29,3.74,-3.75,-3.54,-3.60,1.55,1.55,1.55
215.69,5.24,3.69,5.25,3.69,-3.70,-3.50,-3.59,1.54,1.55,1.55
217.85,5.20,3.65,5.20,3.65,-3.65,-3.45,-3.59,1.55,1.55,1.55
220.03,5.16,3.61,5.16,3.61,-3.61,-3.41,-3.58,1.56,1.56,1.55
222.23,5.12,3.56,5.12,3.56,-3.56,-3.37,-3.58,1.56,1.56,1.56
224.45,5.08,3.52,5.08,3.52,-3.52,-3.32,-3.57,1.57,1.56,1.56
226.70,5.03,3.47,5.04,3.47,-3.47,-3.28,-3.57,1.56,1.56,1.56
228.96,4.99,3.43,4.99,3.43,-3.43,-3.24,-3.56,1.56,1.56,1.56
231.25,4.95,3.38,4.95,3.38,-3.38,-3.19,-3.55,1.57,1.57,1.57
233.57,4.91,3.34,4.91,3.34,-3.34,-3.15,-3.54,1.58,1.58,1.57
235.90,4.87,3.29,4.87,3.29,-3.29,-3.11,-3.53,1.58,1.59,1.58
238.26,4.83,3.25,4.83,3.25,-3.24,-3.06,-3.51,1.59,1.59,1.58
240.64,4.79,3.20,4.79,3.20,-3.20,-3.02,-3.49,1.60,1.59,1.59
243.05,4.74,3.14,4.75,3.15,-3.15,-2.98,-3.47,1.59,1.60,1.60
245.48,4.70,3.10,4.71,3.10,-3.11,-2.93,-3.45,1.59,1.60,1.60
247.93,4.67,3.06,4.67,3.06,-3.07,-2.89,-3.42,1.61,1.60,1.61
250.41,4.64,3.02,4.65,3.02,-3.03,-2.85,-3.39,1.61,1.62,1.62
252.92,4.62,2.99,4.62,2.99,-2.99,-2.81,-3.36,1.63,1.63,1.63
255.45,4.59,2.96,4.59,2.96,-2.95,-2.76,-3.33,1.64,1.64,1.63
258.00,4.56,2.92,4.57,2.92,-2.91,-2.72,-3.29,1.65,1.65,1.64
260.58,4.53,2.89,4.53,2.88,-2.88,-2.68,-3.25,1.66,1.65,1.64
263.19,4.49,2.84,4.49,2.84,-2.84,-2.64,-3.20,1.66,1.65,1.65
265.82,4.44,2.79,4.45,2.79,-2.80,-2.60,-3.15,1.64,1.65,1.65
268.48,4.41,2.75,4.41,2.75,-2.77,-2.56,-3.10,1.65,1.65,1.66
271.16,4.38,2.72,4.38,2.72,-2.73,-2.51,-3.05,1.65,1.65,1.66
273.87,4.35,2.69,4.36,2.69,-2.69,-2.47,-3.00,1.66,1.66,1.66
276.61,4.33,2.66,4.33,2.66,-2.66,-2.43,-2.94,1.68,1.67,1.67
279.38,4.30,2.63,4.30,2.63,-2.62,-2.39,-2.88,1.68,1.68,1.67
282.17,4.27,2.60,4.27,2.59,-2.58,-2.35,-2.82,1.69,1.69,1.67
284.99,4.23,2.55,4.23,2.55,-2.54,-2.31,-2.76,1.69,1.69,1.68
287.84,4.18,2.50,4.18,2.50,-2.50,-2.27,-2.70,1.68,1.68,1.68
290.72,4.13,2.45,4.13,2.45,-2.46,-2.23,-2.64,1.68,1.68,1.68
293.63,4.08,2.40,4.09,2.40,-2.41,-2.19,-2.57,1.67,1.67,1.68
296.57,4.04,2.36,4.04,2.36,-2.37,-2.15,-2.51,1.67,1.67,1.68
299.53,4.01,2.33,4.01,2.33,-2.34,-2.11,-2.45,1.68,1.68,1.68
302.53,3.98,2.29,3.99,2.30,-2.30,-2.07,-2.38,1.68,1.69,1.69
305.55,3.96,2.27,3.96,2.27,-2.26,-2.04,-2.32,1.70,1.70,1.69
308.61,3.94,2.24,3.94,2.24,-2.23,-2.00,-2.25,1.71,1.71,1.70
311.69,3.91,2.21,3.91,2.21,-2.19,-1.96,-2.19,1.72,1.72,1.70
314.81,3.87,2.16,3.87,2.16,-2.16,-1.92,-2.13,1.71,1.71,1.71
317.96,3.83,2.12,3.83,2.12,-2.12,-1.88,-2.06,1.71,1.71,1.71
321.14,3.79,2.07,3.80,2.08,-2.09,-1.84,-2.00,1.71,1.71,1.72
324.35,3.76,2.04,3.76,2.04,-2.05,-1.81,-1.94,1.72,1.72,1.72
327.59,3.73,2.01,3.73,2.01,-2.01,-1.77,-1.88,1.72,1.72,1.72
330.87,3.70,1.97,3.70,1.97,-1.97,-1.73,-1.82,1.73,1.73,1.73
334.18,3.66,1.93,3.67,1.93,-1.93,-1.69,-1.76,1.73,1.74,1.73
337.52,3.63,1.89,3.64,1.89,-1.89,-1.66,-1.71,1.74,1.74,1.74
340.90,3.60,1.85,3.60,1.85,-1.85,-1.62,-1.65,1.76,1.75,1.75
344.30,3.56,1.81,3.56,1.81,-1.80,-1.58,-1.60,1.76,1.76,1.75
347.75,3.51,1.76,3.51,1.76,-1.75,-1.54,-1.54,1.77,1.77,1.75
351.23,3.45,1.70,3.45,1.70,-1.69,-1.51,-1.49,1.76,1.76,1.75
354.74,3.39,1.63,3.39,1.63,-1.64,-1.47,-1.44,1.76,1.76,1.76
358.28,3.33,1.57,3.33,1.57,-1.58,-1.44,-1.39,1.75,1.75,1.76
361.87,3.27,1.51,3.28,1.51,-1.52,-1.40,-1.34,1.75,1.75,1.76
365.49,3.22,1.46,3.22,1.46,-1.47,-1.36,-1.29,1.75,1.75,1.76
369.14,3.17,1.41,3.18,1.41,-1.42,-1.33,-1.24,1.76,1.76,1.76
372.83,3.13,1.37,3.13,1.37,-1.36,-1.29,-1.19,1.77,1.77,1.76
376.56,3.09,1.32,3.09,1.32,-1.31,-1.26,-1.15,1.78,1.78,1.77
380.33,3.05,1.28,3.05,1.28,-1.27,-1.22,-1.10,1.79,1.78,1.77
384.13,2.99,1.22,3.00,1.22,-1.22,-1.19,-1.06,1.78,1.78,1.77
387.97,2.94,1.17,2.94,1.17,-1.17,-1.15,-1.02,1.77,1.78,1.77
391.85,2.89,1.11,2.89,1.11,-1.12,-1.12,-0.97,1.77,1.77,1.78
395.77,2.85,1.07,2.85,1.07,-1.08,-1.08,-0.93,1.78,1.78,1.78
399.73,2.81,1.02,2.82,1.02,-1.03,-1.05,-0.89,1.78,1.78,1.79
403.72,2.78,0.99,2.78,0.99,-0.99,-1.01,-0.85,1.79,1.79,1.79
407.76,2.75,0.95,2.75,0.95,-0.95,-0.98,-0.81,1.80,1.80,1.80
411.84,2.72,0.92,2.72,0.91,-0.91,-0.94,-0.78,1.81,1.81,1.80
415.96,2.68,0.87,2.69,0.88,-0.87,-0.91,-0.74,1.81,1.81,1.81
420.12,2.65,0.84,2.66,0.84,-0.84,-0.87,-0.70,1.82,1.82,1.81
424.32,2.62,0.81,2.62,0.80,-0.80,-0.84,-0.67,1.83,1.82,1.81
428.56,2.58,0.76,2.58,0.76,-0.76,-0.81,-0.63,1.83,1.82,1.82
432.85,2.53,0.71,2.54,0.72,-0.72,-0.77,-0.60,1.82,1.82,1.82
437.18,2.49,0.67,2.49,0.67,-0.68,-0.74,-0.56,1.82,1.82,1.82
441.55,2.45,0.63,2.45,0.63,-0.64,-0.70,-0.53,1.82,1.81,1.82
445.96,2.41,0.59,2.42,0.59,-0.60,-0.67,-0.50,1.81,1.82,1.82
450.42,2.38,0.56,2.38,0.56,-0.56,-0.64,-0.47,1.82,1.82,1.82
454.93,2.35,0.53,2.35,0.53,-0.53,-0.60,-0.43,1.83,1.82,1.82
459.48,2.31,0.49,2.32,0.50,-0.49,-0.57,-0.40,1.83,1.83,1.82
464.07,2.28,0.46,2.28,0.46,-0.45,-0.54,-0.37,1.84,1.83,1.82
468.71,2.24,0.42,2.24,0.42,-0.41,-0.50,-0.34,1.84,1.83,1.82
473.40,2.19,0.37,2.19,0.37,-0.37,-0.47,-0.31,1.83,1.83,1.82
478.13,2.14,0.31,2.15,0.32,-0.33,-0.43,-0.28,1.82,1.82,1.83
482.91,2.10,0.27,2.10,0.27,-0.29,-0.40,-0.25,1.82,1.82,1.83
487.74,2.07,0.24,2.07,0.24,-0.25,-0.37,-0.22,1.82,1.82,1.83
492.62,2.04,0.21,2.05,0.21,-0.21,-0.33,-0.19,1.83,1.83,1.83
497.55,2.02,0.18,2.02,0.18,-0.18,-0.30,-0.17,1.85,1.84,1.84
502.52,1.99,0.15,1.99,0.15,-0.14,-0.27,-0.14,1.85,1.85,1.84
507.55,1.96,0.12,1.96,0.12,-0.11,-0.23,-0.11,1.86,1.86,1.84
512.62,1.93,0.09,1.93,0.08,-0.07,-0.20,-0.08,1.86,1.85,1.84
517.75,1.88,0.03,1.89,0.04,-0.04,-0.17,-0.06,1.84,1.85,1.85
522.93,1.84,-0.01,1.85,-0.00,-0.00,-0.13,-0.03,1.84,1.84,1.85
528.16,1.81,-0.04,1.81,-0.04,0.03,-0.10,-0.00,1.84,1.84,1.85
533.44,1.78,-0.07,1.78,-0.07,0.07,-0.07,0.03,1.85,1.85,1.85
538.77,1.75,-0.11,1.76,-0.10,0.10,-0.03,0.05,1.85,1.86,1.86
544.16,1.73,-0.13,1.73,-0.13,0.13,0.00,0.08,1.87,1.87,1.86
