frequency,raw,error,smoothed,error_smoothed,equalization,parametric_eq,fixed_band_eq,equalized_raw,equalized_smoothed,target
20.00,8.64,1.70,8.65,1.70,-1.65,-1.88,-1.21,6.99,7.00,6.95
20.20,8.65,1.72,8.65,1.72,-1.70,-1.90,-1.24,6.95,6.95,6.93
20.40,8.66,1.75,8.65,1.74,-1.75,-1.92,-1.28,6.92,6.91,6.91
20.61,8.66,1.76,8.66,1.76,-1.79,-1.93,-1.31,6.87,6.87,6.90
20.81,8.67,1.79,8.67,1.79,-1.84,-1.95,-1.35,6.84,6.84,6.88
21.02,8.69,1.82,8.70,1.83,-1.88,-1.97,-1.39,6.82,6.82,6.87
21.23,8.74,1.88,8.74,1.88,-1.92,-1.98,-1.43,6.83,6.83,6.86
21.44,8.80,1.95,8.80,1.95,-1.95,-2.00,-1.47,6.85,6.85,6.85
21.66,8.85,2.02,8.86,2.02,-2.00,-2.02,-1.51,6.85,6.86,6.83
21.87,8.91,2.08,8.91,2.08,-2.04,-2.03,-1.56,6.88,6.87,6.83
22.09,8.94,2.12,8.93,2.11,-2.07,-2.05,-1.60,6.87,6.86,6.82
22.31,8.93,2.12,8.94,2.13,-2.10,-2.07,-1.65,6.83,6.84,6.81
22.54,8.92,2.12,8.92,2.12,-2.13,-2.08,-1.69,6.80,6.79,6.80
22.76,8.91,2.12,8.91,2.12,-2.15,-2.10,-1.74,6.76,6.76,6.79
22.99,8.90,2.11,8.92,2.14,-2.18,-2.12,-1.79,6.73,6.74,6.79
23.22,8.95,2.17,8.95,2.17,-2.21,-2.13,-1.84,6.75,6.75,6.78
23.45,9.01,2.24,9.01,2.23,-2.24,-2.15,-1.89,6.77,6.77,6.78
23.69,9.07,2.30,9.07,2.30,-2.28,-2.17,-1.94,6.79,6.79,6.78
23.92,9.12,2.35,9.12,2.34,-2.32,-2.18,-1.99,6.80,6.80,6.78
24.16,9.16,2.39,9.16,2.38,-2.37,-2.20,-2.05,6.80,6.79,6.78
24.40,9.18,2.41,9.19,2.41,-2.40,-2.21,-2.10,6.78,6.79,6.78
24.65,9.21,2.44,9.21,2.44,-2.43,-2.23,-2.16,6.78,6.78,6.77
24.89,9.23,2.46,9.23,2.46,-2.45,-2.24,-2.21,6.78,6.78,6.77
25.14,9.24,2.47,9.24,2.47,-2.46,-2.26,-2.27,6.78,6.78,6.77
25.39,9.24,2.47,9.24,2.47,-2.48,-2.28,-2.33,6.77,6.77,6.77
25.65,9.24,2.48,9.24,2.48,-2.49,-2.29,-2.38,6.75,6.75,6.76
25.91,9.24,2.48,9.25,2.49,-2.51,-2.31,-2.44,6.74,6.74,6.76
26.16,9.26,2.51,9.26,2.51,-2.53,-2.32,-2.50,6.74,6.74,6.75
26.43,9.28,2.53,9.29,2.54,-2.55,-2.34,-2.55,6.74,6.74,6.75
26.69,9.31,2.58,9.31,2.58,-2.57,-2.35,-2.61,6.75,6.75,6.74
26.96,9.34,2.62,9.33,2.60,-2.59,-2.37,-2.66,6.75,6.74,6.73
27.23,9.34,2.62,9.35,2.62,-2.61,-2.38,-2.71,6.74,6.74,6.73
27.50,9.34,2.63,9.35,2.63,-2.62,-2.40,-2.77,6.72,6.72,6.71
27.77,9.34,2.64,9.34,2.64,-2.64,-2.41,-2.82,6.71,6.71,6.70
28.05,9.34,2.65,9.34,2.65,-2.65,-2.42,-2.87,6.70,6.70,6.69
28.33,9.34,2.65,9.34,2.65,-2.66,-2.44,-2.91,6.69,6.69,6.69
28.62,9.34,2.65,9.34,2.66,-2.67,-2.45,-2.95,6.68,6.67,6.69
28.90,9.34,2.67,9.35,2.66,-2.68,-2.47,-3.00,6.66,6.67,6.68
29.19,9.36,2.68,9.37,2.68,-2.70,-2.48,-3.03,6.67,6.67,6.69
29.48,9.39,2.71,9.39,2.71,-2.71,-2.49,-3.07,6.68,6.68,6.69
29.78,9.42,2.74,9.42,2.74,-2.73,-2.51,-3.10,6.70,6.69,6.68
30.08,9.44,2.76,9.44,2.76,-2.74,-2.52,-3.13,6.70,6.70,6.68
30.38,9.44,2.76,9.45,2.76,-2.75,-2.53,-3.15,6.69,6.69,6.68
30.68,9.44,2.76,9.45,2.77,-2.76,-2.55,-3.17,6.68,6.68,6.68
30.99,9.44,2.77,9.44,2.77,-2.77,-2.56,-3.18,6.67,6.67,6.68
31.30,9.44,2.77,9.44,2.77,-2.77,-2.57,-3.20,6.67,6.67,6.68
31.61,9.44,2.77,9.44,2.77,-2.78,-2.59,-3.20,6.67,6.67,6.67
31.93,9.44,2.77,9.44,2.78,-2.78,-2.60,-3.21,6.67,6.67,6.67
32.24,9.44,2.78,9.44,2.78,-2.78,-2.61,-3.21,6.67,6.67,6.66
32.57,9.44,2.79,9.44,2.79,-2.78,-2.62,-3.20,6.67,6.67,6.66
32.89,9.44,2.79,9.44,2.79,-2.79,-2.64,-3.20,6.66,6.66,6.65
33.22,9.44,2.79,9.44,2.79,-2.80,-2.65,-3.18,6.65,6.65,6.65
33.55,9.44,2.79,9.44,2.79,-2.81,-2.66,-3.17,6.63,6.63,6.65
33.89,9.44,2.81,9.45,2.81,-2.83,-2.67,-3.15,6.62,6.62,6.64
34.23,9.46,2.83,9.47,2.84,-2.84,-2.68,-3.13,6.62,6.63,6.63
34.57,9.50,2.87,9.50,2.87,-2.86,-2.70,-3.11,6.64,6.64,6.63
34.92,9.53,2.90,9.53,2.90,-2.88,-2.71,-3.09,6.65,6.64,6.63
35.27,9.54,2.92,9.54,2.92,-2.90,-2.72,-3.06,6.64,6.64,6.63
35.62,9.54,2.92,9.55,2.93,-2.92,-2.73,-3.03,6.63,6.63,6.62
35.97,9.54,2.93,9.54,2.93,-2.93,-2.74,-3.00,6.61,6.61,6.61
36.33,9.54,2.94,9.54,2.94,-2.94,-2.75,-2.97,6.60,6.60,6.61
36.70,9.54,2.94,9.54,2.94,-2.95,-2.76,-2.94,6.60,6.60,6.60
37.06,9.54,2.95,9.54,2.95,-2.95,-2.77,-2.91,6.59,6.59,6.60
37.43,9.54,2.96,9.54,2.95,-2.96,-2.78,-2.88,6.58,6.58,6.59
37.81,9.54,2.96,9.54,2.97,-2.97,-2.79,-2.85,6.57,6.57,6.58
38.19,9.54,2.98,9.54,2.98,-2.98,-2.80,-2.82,6.56,6.56,6.57
38.57,9.54,2.99,9.54,2.99,-2.99,-2.81,-2.79,6.56,6.56,6.55
38.95,9.54,3.01,9.54,3.00,-2.99,-2.82,-2.77,6.55,6.55,6.54
39.34,9.53,3.00,9.54,3.01,-2.99,-2.83,-2.74,6.54,6.54,6.53
39.74,9.52,3.01,9.52,3.01,-2.99,-2.84,-2.71,6.53,6.53,6.52
40.14,9.50,3.00,9.50,2.99,-2.99,-2.85,-2.69,6.51,6.51,6.50
40.54,9.47,2.99,9.47,2.98,-2.99,-2.86,-2.66,6.48,6.48,6.49
40.94,9.44,2.96,9.45,2.97,-2.99,-2.87,-2.64,6.46,6.47,6.48
41.35,9.44,2.97,9.44,2.97,-2.98,-2.88,-2.62,6.46,6.46,6.48
41.76,9.44,2.97,9.44,2.97,-2.98,-2.89,-2.60,6.47,6.46,6.47
42.18,9.44,2.98,9.45,2.98,-2.97,-2.89,-2.58,6.47,6.48,6.47
42.60,9.44,2.98,9.45,2.99,-2.96,-2.90,-2.57,6.48,6.48,6.46
43.03,9.44,2.99,9.43,2.98,-2.95,-2.91,-2.56,6.49,6.47,6.45
43.46,9.40,2.96,9.40,2.96,-2.95,-2.92,-2.54,6.46,6.46,6.45
43.90,9.36,2.92,9.38,2.93,-2.94,-2.93,-2.53,6.42,6.43,6.45
44.33,9.35,2.91,9.35,2.91,-2.94,-2.93,-2.53,6.42,6.42,6.44
44.78,9.34,2.91,9.34,2.91,-2.93,-2.94,-2.52,6.41,6.41,6.43
45.23,9.34,2.92,9.34,2.92,-2.93,-2.95,-2.52,6.41,6.41,6.43
45.68,9.34,2.93,9.34,2.93,-2.93,-2.96,-2.52,6.42,6.42,6.42
46.13,9.34,2.93,9.35,2.94,-2.92,-2.96,-2.52,6.42,6.42,6.41
46.60,9.34,2.94,9.34,2.94,-2.92,-2.97,-2.52,6.43,6.43,6.40
47.06,9.33,2.94,9.33,2.94,-2.91,-2.98,-2.52,6.43,6.42,6.39
47.53,9.29,2.91,9.29,2.91,-2.90,-2.99,-2.53,6.40,6.40,6.38
48.01,9.24,2.88,9.24,2.88,-2.88,-2.99,-2.53,6.36,6.36,6.36
48.49,9.19,2.84,9.19,2.84,-2.87,-3.00,-2.54,6.32,6.32,6.35
48.97,9.14,2.81,9.16,2.82,-2.86,-3.00,-2.55,6.29,6.30,6.33
49.46,9.14,2.82,9.14,2.82,-2.84,-3.01,-2.57,6.30,6.30,6.32
49.96,9.14,2.84,9.14,2.83,-2.83,-3.02,-2.58,6.32,6.32,6.31
50.46,9.14,2.85,9.15,2.85,-2.82,-3.02,-2.59,6.33,6.33,6.30
50.96,9.14,2.85,9.13,2.84,-2.82,-3.03,-2.61,6.33,6.31,6.29
51.47,9.10,2.82,9.10,2.82,-2.82,-3.03,-2.63,6.29,6.28,6.28
51.99,9.05,2.79,9.07,2.80,-2.82,-3.04,-2.65,6.23,6.25,6.27
52.51,9.04,2.80,9.05,2.80,-2.83,-3.04,-2.66,6.22,6.22,6.25
53.03,9.04,2.81,9.04,2.81,-2.82,-3.05,-2.68,6.22,6.22,6.23
53.56,9.04,2.83,9.04,2.83,-2.82,-3.06,-2.70,6.23,6.23,6.22
54.10,9.04,2.84,9.04,2.84,-2.81,-3.06,-2.72,6.23,6.23,6.20
54.64,9.02,2.84,9.02,2.83,-2.81,-3.06,-2.74,6.22,6.21,6.19
55.18,8.99,2.82,8.98,2.81,-2.80,-3.07,-2.76,6.19,6.18,6.17
55.74,8.92,2.77,8.93,2.78,-2.79,-3.07,-2.78,6.14,6.14,6.15
56.29,8.88,2.75,8.89,2.75,-2.77,-3.08,-2.80,6.11,6.11,6.14
56.86,8.85,2.74,8.86,2.74,-2.76,-3.08,-2.82,6.10,6.10,6.12
57.42,8.84,2.74,8.85,2.75,-2.74,-3.09,-2.84,6.10,6.10,6.10
58.00,8.84,2.76,8.82,2.74,-2.74,-3.09,-2.85,6.11,6.08,6.08
58.58,8.78,2.72,8.79,2.73,-2.73,-3.09,-2.87,6.05,6.06,6.06
59.16,8.74,2.70,8.76,2.72,-2.73,-3.10,-2.88,6.01,6.03,6.04
59.76,8.74,2.72,8.74,2.72,-2.73,-3.10,-2.89,6.01,6.02,6.02
60.35,8.74,2.74,8.74,2.74,-2.72,-3.10,-2.90,6.02,6.02,6.00
60.96,8.74,2.76,8.73,2.75,-2.72,-3.11,-2.91,6.03,6.02,5.99
61.57,8.69,2.73,8.69,2.73,-2.71,-3.11,-2.92,5.98,5.98,5.96
62.18,8.64,2.70,8.64,2.70,-2.71,-3.11,-2.92,5.94,5.93,5.94
62.80,8.56,2.66,8.58,2.68,-2.70,-3.12,-2.92,5.86,5.88,5.91
63.43,8.54,2.66,8.55,2.67,-2.69,-3.12,-2.92,5.85,5.86,5.88
64.07,8.54,2.70,8.53,2.68,-2.69,-3.12,-2.92,5.86,5.84,5.84
64.71,8.51,2.70,8.51,2.70,-2.68,-3.12,-2.92,5.83,5.83,5.82
65.35,8.48,2.70,8.48,2.70,-2.68,-3.13,-2.91,5.80,5.80,5.78
66.01,8.44,2.69,8.44,2.69,-2.68,-3.13,-2.90,5.76,5.76,5.75
66.67,8.39,2.68,8.40,2.68,-2.69,-3.13,-2.89,5.70,5.71,5.71
67.33,8.36,2.68,8.37,2.69,-2.70,-3.13,-2.88,5.67,5.67,5.68
68.01,8.34,2.70,8.35,2.70,-2.71,-3.13,-2.87,5.64,5.64,5.64
68.69,8.33,2.72,8.32,2.71,-2.71,-3.14,-2.86,5.62,5.60,5.61
69.37,8.29,2.72,8.28,2.71,-2.72,-3.14,-2.85,5.57,5.56,5.57
70.07,8.22,2.69,8.26,2.72,-2.73,-3.14,-2.83,5.50,5.53,5.54
70.77,8.24,2.75,8.25,2.75,-2.73,-3.14,-2.82,5.51,5.52,5.49
71.48,8.24,2.79,8.22,2.76,-2.74,-3.14,-2.80,5.51,5.48,5.46
72.19,8.20,2.79,8.17,2.75,-2.74,-3.14,-2.79,5.47,5.43,5.41
72.91,8.04,2.67,8.10,2.72,-2.73,-3.14,-2.77,5.31,5.36,5.38
73.64,8.03,2.69,8.05,2.71,-2.73,-3.14,-2.76,5.30,5.32,5.34
74.38,8.03,2.73,8.02,2.72,-2.73,-3.14,-2.74,5.31,5.29,5.30
75.12,8.02,2.76,8.00,2.74,-2.72,-3.14,-2.73,5.30,5.28,5.26
75.87,7.94,2.73,7.95,2.73,-2.72,-3.14,-2.72,5.22,5.22,5.21
76.63,7.87,2.70,7.89,2.71,-2.73,-3.14,-2.71,5.14,5.16,5.17
77.40,7.83,2.70,7.85,2.72,-2.74,-3.14,-2.70,5.10,5.11,5.13
78.17,7.83,2.75,7.82,2.74,-2.75,-3.14,-2.69,5.09,5.08,5.09
78.95,7.83,2.79,7.80,2.75,-2.75,-3.14,-2.68,5.08,5.05,5.04
79.74,7.73,2.73,7.78,2.78,-2.76,-3.14,-2.67,4.98,5.02,5.00
80.54,7.74,2.79,7.74,2.78,-2.76,-3.14,-2.67,4.98,4.98,4.96
81.35,7.72,2.81,7.68,2.77,-2.77,-3.14,-2.66,4.95,4.91,4.91
82.16,7.61,2.75,7.62,2.76,-2.77,-3.14,-2.66,4.84,4.85,4.86
82.98,7.53,2.73,7.57,2.76,-2.77,-3.14,-2.66,4.76,4.79,4.81
83.81,7.51,2.76,7.54,2.78,-2.78,-3.14,-2.67,4.74,4.76,4.76
84.65,7.55,2.84,7.50,2.79,-2.78,-3.14,-2.67,4.77,4.72,4.71
85.50,7.46,2.81,7.45,2.79,-2.79,-3.14,-2.68,4.68,4.66,4.65
86.35,7.33,2.73,7.39,2.79,-2.80,-3.13,-2.69,4.54,4.59,4.60
87.22,7.32,2.79,7.33,2.79,-2.81,-3.13,-2.70,4.52,4.52,4.54
88.09,7.33,2.85,7.31,2.83,-2.83,-3.13,-2.71,4.51,4.49,4.49
88.97,7.29,2.87,7.29,2.86,-2.85,-3.13,-2.72,4.45,4.44,4.43
89.86,7.24,2.88,7.23,2.87,-2.87,-3.13,-2.74,4.37,4.36,4.36
90.76,7.15,2.85,7.18,2.88,-2.89,-3.12,-2.76,4.26,4.29,4.31
91.66,7.14,2.90,7.15,2.91,-2.92,-3.12,-2.78,4.23,4.23,4.24
92.58,7.14,2.96,7.13,2.94,-2.94,-3.12,-2.80,4.20,4.19,4.18
93.51,7.10,2.99,7.11,2.99,-2.96,-3.12,-2.83,4.14,4.14,4.12
94.44,7.05,3.00,7.05,3.00,-2.98,-3.11,-2.85,4.07,4.07,4.05
95.39,6.99,3.01,6.98,2.99,-3.00,-3.11,-2.88,4.00,3.98,3.98
96.34,6.89,2.98,6.90,2.99,-3.01,-3.11,-2.91,3.88,3.89,3.92
97.30,6.82,2.98,6.86,3.01,-3.03,-3.10,-2.95,3.80,3.83,3.84
98.28,6.82,3.05,6.82,3.04,-3.04,-3.10,-2.98,3.79,3.78,3.77
99.26,6.81,3.12,6.76,3.06,-3.04,-3.10,-3.01,3.77,3.72,3.70
100.25,6.66,3.04,6.68,3.05,-3.05,-3.09,-3.05,3.61,3.63,3.62
101.25,6.56,3.02,6.59,3.05,-3.06,-3.09,-3.09,3.50,3.53,3.54
102.27,6.50,3.04,6.53,3.07,-3.08,-3.08,-3.13,3.43,3.46,3.47
103.29,6.52,3.14,6.48,3.09,-3.10,-3.08,-3.16,3.43,3.38,3.39
104.32,6.45,3.14,6.41,3.10,-3.11,-3.08,-3.20,3.34,3.30,3.31
105.37,6.27,3.05,6.34,3.11,-3.13,-3.07,-3.24,3.15,3.21,3.22
106.42,6.25,3.11,6.28,3.14,-3.14,-3.07,-3.28,3.11,3.14,3.14
107.48,6.27,3.21,6.23,3.17,-3.16,-3.06,-3.32,3.12,3.08,3.07
108.56,6.21,3.23,6.19,3.20,-3.16,-3.06,-3.36,3.05,3.02,2.99
109.64,6.07,3.16,6.10,3.19,-3.16,-3.05,-3.40,2.91,2.94,2.91
110.74,5.99,3.15,6.00,3.16,-3.16,-3.04,-3.43,2.83,2.85,2.84
111.85,5.93,3.17,5.92,3.15,-3.16,-3.04,-3.47,2.78,2.76,2.77
112.97,5.85,3.15,5.86,3.16,-3.16,-3.03,-3.50,2.69,2.70,2.70
114.10,5.78,3.15,5.78,3.15,-3.17,-3.03,-3.53,2.61,2.61,2.63
115.24,5.73,3.17,5.70,3.14,-3.19,-3.02,-3.56,2.54,2.51,2.57
116.39,5.62,3.12,5.67,3.17,-3.21,-3.01,-3.58,2.41,2.46,2.50
117.55,5.64,3.20,5.67,3.23,-3.23,-3.01,-3.61,2.41,2.44,2.44
118.73,5.73,3.35,5.67,3.29,-3.25,-3.00,-3.62,2.48,2.42,2.38
119.92,5.66,3.34,5.66,3.33,-3.27,-2.99,-3.64,2.39,2.38,2.33
121.12,5.56,3.30,5.59,3.33,-3.29,-2.99,-3.65,2.27,2.30,2.26
122.33,5.51,3.31,5.52,3.30,-3.30,-2.98,-3.66,2.21,2.22,2.21
123.55,5.44,3.28,5.43,3.27,-3.30,-2.97,-3.66,2.14,2.13,2.16
124.79,5.39,3.28,5.37,3.26,-3.29,-2.96,-3.66,2.10,2.07,2.11
126.03,5.26,3.21,5.34,3.29,-3.28,-2.96,-3.65,1.98,2.06,2.05
127.29,5.32,3.31,5.30,3.30,-3.28,-2.95,-3.64,2.05,2.03,2.01
128.57,5.33,3.37,5.23,3.27,-3.28,-2.94,-3.63,2.05,1.95,1.96
129.85,5.11,3.20,5.18,3.27,-3.29,-2.93,-3.61,1.83,1.89,1.91
131.15,5.05,3.19,5.14,3.28,-3.30,-2.92,-3.59,1.76,1.84,1.86
132.46,5.16,3.35,5.11,3.30,-3.31,-2.91,-3.56,1.86,1.80,1.81
133.79,5.17,3.42,5.09,3.33,-3.31,-2.90,-3.53,1.86,1.77,1.75
135.12,4.97,3.27,5.06,3.35,-3.31,-2.89,-3.50,1.66,1.75,1.71
136.48,4.94,3.28,4.99,3.33,-3.31,-2.88,-3.46,1.64,1.68,1.66
137.84,5.00,3.40,4.89,3.28,-3.29,-2.87,-3.42,1.71,1.60,1.61
139.22,4.81,3.25,4.86,3.30,-3.28,-2.86,-3.38,1.54,1.58,1.56
140.61,4.70,3.20,4.79,3.28,-3.26,-2.85,-3.34,1.44,1.53,1.51
142.02,4.79,3.34,4.68,3.22,-3.25,-2.84,-3.29,1.55,1.43,1.46
143.44,4.61,3.21,4.61,3.20,-3.24,-2.83,-3.25,1.37,1.37,1.40
144.87,4.47,3.11,4.55,3.19,-3.24,-2.82,-3.20,1.24,1.32,1.36
146.32,4.51,3.20,4.52,3.21,-3.24,-2.81,-3.15,1.27,1.27,1.31
147.78,4.55,3.30,4.52,3.26,-3.25,-2.80,-3.10,1.30,1.27,1.25
149.26,4.54,3.34,4.49,3.29,-3.25,-2.79,-3.05,1.30,1.25,1.21
150.75,4.39,3.24,4.45,3.30,-3.24,-2.77,-3.01,1.15,1.21,1.16
152.26,4.35,3.24,4.40,3.28,-3.24,-2.76,-2.96,1.11,1.15,1.11
153.78,4.40,3.33,4.30,3.23,-3.24,-2.75,-2.91,1.17,1.07,1.08
155.32,4.22,3.19,4.23,3.20,-3.22,-2.74,-2.86,1.00,1.01,1.03
156.88,4.07,3.09,4.16,3.17,-3.20,-2.72,-2.81,0.87,0.96,0.99
158.44,4.12,3.17,4.09,3.14,-3.17,-2.71,-2.77,0.95,0.91,0.95
160.03,4.08,3.17,4.07,3.15,-3.15,-2.70,-2.72,0.93,0.91,0.91
161.63,4.02,3.15,4.03,3.16,-3.13,-2.68,-2.68,0.89,0.90,0.87
163.24,3.96,3.14,3.96,3.13,-3.12,-2.67,-2.64,0.84,0.84,0.83
164.88,3.88,3.10,3.88,3.10,-3.11,-2.65,-2.60,0.78,0.78,0.79
166.53,3.82,3.07,3.82,3.07,-3.08,-2.64,-2.56,0.74,0.74,0.75
168.19,3.75,3.04,3.79,3.07,-3.06,-2.63,-2.52,0.69,0.72,0.71
169.87,3.75,3.08,3.73,3.06,-3.04,-2.61,-2.48,0.72,0.69,0.67
171.57,3.69,3.06,3.65,3.01,-3.01,-2.59,-2.45,0.69,0.64,0.64
173.29,3.52,2.92,3.57,2.97,-2.97,-2.58,-2.42,0.55,0.59,0.60
175.02,3.46,2.90,3.49,2.92,-2.94,-2.56,-2.39,0.52,0.55,0.57
176.77,3.46,2.92,3.44,2.90,-2.91,-2.55,-2.36,0.56,0.53,0.54
178.54,3.41,2.91,3.40,2.89,-2.87,-2.53,-2.33,0.54,0.53,0.51
180.32,3.33,2.85,3.34,2.86,-2.84,-2.51,-2.31,0.49,0.50,0.48
182.13,3.27,2.81,3.27,2.81,-2.82,-2.49,-2.29,0.45,0.45,0.46
183.95,3.20,2.76,3.20,2.77,-2.81,-2.48,-2.27,0.40,0.40,0.44
185.79,3.16,2.76,3.18,2.76,-2.79,-2.46,-2.25,0.38,0.39,0.41
187.65,3.14,2.75,3.17,2.77,-2.76,-2.44,-2.23,0.38,0.41,0.40
189.52,3.19,2.82,3.13,2.76,-2.74,-2.42,-2.21,0.46,0.40,0.38
191.42,3.10,2.74,3.10,2.74,-2.71,-2.40,-2.20,0.40,0.40,0.36
193.33,2.98,2.64,3.05,2.71,-2.67,-2.38,-2.19,0.31,0.38,0.34
195.27,3.02,2.69,2.96,2.63,-2.64,-2.36,-2.18,0.39,0.33,0.33
197.22,2.91,2.60,2.90,2.58,-2.60,-2.34,-2.17,0.31,0.29,0.32
199.19,2.78,2.49,2.85,2.55,-2.57,-2.32,-2.16,0.22,0.28,0.30
201.18,2.80,2.52,2.79,2.50,-2.53,-2.30,-2.15,0.27,0.25,0.28
203.19,2.77,2.51,2.75,2.48,-2.51,-2.28,-2.14,0.27,0.24,0.27
205.23,2.71,2.46,2.71,2.46,-2.48,-2.26,-2.14,0.24,0.24,0.25
207.28,2.65,2.42,2.70,2.46,-2.44,-2.24,-2.13,0.21,0.25,0.24
209.35,2.66,2.45,2.67,2.45,-2.41,-2.22,-2.13,0.25,0.26,0.21
211.44,2.69,2.49,2.60,2.40,-2.37,-2.19,-2.12,0.32,0.23,0.20
213.56,2.49,2.31,2.54,2.36,-2.33,-2.17,-2.12,0.16,0.21,0.19
215.69,2.38,2.22,2.46,2.29,-2.29,-2.15,-2.12,0.09,0.17,0.16
217.85,2.45,2.30,2.35,2.20,-2.25,-2.12,-2.11,0.21,0.10,0.15
220.03,2.28,2.16,2.28,2.15,-2.20,-2.10,-2.11,0.09,0.08,0.13
222.23,2.15,2.04,2.25,2.14,-2.15,-2.08,-2.10,0.00,0.10,0.12
224.45,2.22,2.12,2.22,2.11,-2.11,-2.05,-2.10,0.12,0.11,0.11
226.70,2.28,2.19,2.18,2.09,-2.07,-2.03,-2.09,0.22,0.12,0.10
228.96,2.12,2.04,2.14,2.05,-2.02,-2.00,-2.09,0.10,0.12,0.08
231.25,1.99,1.91,2.09,2.01,-1.98,-1.98,-2.08,0.01,0.10,0.08
233.57,2.04,1.97,2.01,1.93,-1.95,-1.95,-2.07,0.09,0.06,0.08
235.90,2.05,1.98,1.97,1.89,-1.91,-1.92,-2.06,0.14,0.06,0.08
238.26,1.84,1.78,1.93,1.86,-1.86,-1.90,-2.04,-0.02,0.06,0.07
240.64,1.86,1.79,1.88,1.80,-1.81,-1.87,-2.03,0.05,0.06,0.08
243.05,1.87,1.79,1.84,1.76,-1.76,-1.84,-2.01,0.11,0.08,0.08
245.48,1.83,1.75,1.83,1.75,-1.71,-1.81,-1.99,0.12,0.12,0.08
247.93,1.77,1.69,1.79,1.70,-1.67,-1.78,-1.97,0.11,0.12,0.08
250.41,1.73,1.65,1.72,1.63,-1.63,-1.75,-1.94,0.10,0.09,0.09
252.92,1.66,1.57,1.64,1.55,-1.60,-1.72,-1.92,0.07,0.05,0.09
255.45,1.57,1.48,1.59,1.50,-1.56,-1.69,-1.89,0.01,0.03,0.09
258.00,1.53,1.45,1.59,1.50,-1.52,-1.66,-1.86,0.01,0.06,0.09
260.58,1.61,1.53,1.59,1.51,-1.49,-1.63,-1.82,0.13,0.11,0.08
263.19,1.64,1.57,1.58,1.51,-1.45,-1.60,-1.79,0.20,0.14,0.07
265.82,1.50,1.45,1.52,1.46,-1.42,-1.57,-1.75,0.09,0.11,0.06
268.48,1.40,1.35,1.41,1.36,-1.38,-1.54,-1.71,0.02,0.03,0.05
271.16,1.31,1.28,1.34,1.30,-1.34,-1.51,-1.67,-0.03,-0.00,0.04
273.87,1.28,1.26,1.31,1.28,-1.29,-1.47,-1.62,-0.01,0.02,0.02
276.61,1.32,1.31,1.26,1.24,-1.24,-1.44,-1.58,0.09,0.02,0.02
279.38,1.21,1.20,1.20,1.19,-1.18,-1.41,-1.53,0.03,0.02,0.01
282.17,1.07,1.08,1.16,1.15,-1.13,-1.37,-1.48,-0.06,0.02,-0.00
284.99,1.09,1.10,1.07,1.07,-1.08,-1.34,-1.43,0.01,-0.02,-0.01
287.84,1.08,1.10,1.00,1.02,-1.04,-1.30,-1.38,0.05,-0.03,-0.01
290.72,0.87,0.90,0.97,0.99,-0.99,-1.27,-1.33,-0.11,-0.02,-0.03
293.63,0.91,0.94,0.92,0.95,-0.94,-1.23,-1.28,-0.03,-0.02,-0.03
296.57,0.93,0.97,0.88,0.91,-0.91,-1.20,-1.22,0.03,-0.03,-0.03
299.53,0.85,0.88,0.84,0.87,-0.88,-1.16,-1.17,-0.03,-0.04,-0.03
302.53,0.74,0.78,0.78,0.81,-0.85,-1.12,-1.11,-0.11,-0.08,-0.03
305.55,0.70,0.75,0.76,0.80,-0.83,-1.08,-1.06,-0.13,-0.07,-0.04
308.61,0.80,0.85,0.77,0.82,-0.81,-1.05,-1.00,-0.01,-0.04,-0.05
311.69,0.82,0.88,0.77,0.83,-0.78,-1.01,-0.94,0.04,-0.01,-0.05
314.81,0.71,0.78,0.73,0.79,-0.75,-0.97,-0.89,-0.04,-0.02,-0.06
317.96,0.62,0.69,0.65,0.71,-0.71,-0.93,-0.83,-0.09,-0.06,-0.07
321.14,0.58,0.65,0.59,0.66,-0.67,-0.89,-0.78,-0.08,-0.08,-0.07
324.35,0.52,0.61,0.53,0.62,-0.61,-0.85,-0.72,-0.09,-0.08,-0.08
327.59,0.51,0.61,0.46,0.55,-0.55,-0.81,-0.66,-0.04,-0.09,-0.10
330.87,0.35,0.45,0.38,0.48,-0.48,-0.77,-0.61,-0.13,-0.10,-0.10
334.18,0.26,0.36,0.31,0.41,-0.41,-0.73,-0.55,-0.15,-0.10,-0.10
337.52,0.28,0.39,0.25,0.35,-0.36,-0.69,-0.50,-0.08,-0.11,-0.10
340.90,0.21,0.33,0.20,0.31,-0.32,-0.65,-0.44,-0.10,-0.12,-0.12
344.30,0.14,0.26,0.14,0.25,-0.28,-0.61,-0.38,-0.13,-0.14,-0.12
347.75,0.05,0.17,0.08,0.21,-0.24,-0.56,-0.33,-0.18,-0.16,-0.12
351.23,0.04,0.18,0.07,0.19,-0.20,-0.52,-0.27,-0.16,-0.14,-0.13
354.74,0.09,0.23,0.06,0.20,-0.17,-0.48,-0.22,-0.07,-0.10,-0.13
358.28,0.06,0.20,0.05,0.18,-0.13,-0.44,-0.16,-0.07,-0.09,-0.13
361.87,-0.01,0.13,-0.00,0.13,-0.10,-0.39,-0.11,-0.11,-0.11,-0.14
365.49,-0.10,0.04,-0.08,0.06,-0.07,-0.35,-0.05,-0.17,-0.16,-0.14
369.14,-0.14,0.00,-0.14,-0.00,-0.04,-0.31,0.00,-0.18,-0.18,-0.14
372.83,-0.19,-0.04,-0.17,-0.02,-0.00,-0.26,0.06,-0.19,-0.17,-0.14
376.56,-0.18,-0.03,-0.18,-0.04,0.04,-0.22,0.11,-0.13,-0.14,-0.14
380.33,-0.19,-0.03,-0.21,-0.06,0.08,-0.17,0.16,-0.10,-0.13,-0.15
384.13,-0.26,-0.10,-0.25,-0.09,0.12,-0.13,0.22,-0.14,-0.13,-0.16
387.97,-0.33,-0.16,-0.32,-0.15,0.15,-0.08,0.27,-0.18,-0.17,-0.17
391.85,-0.38,-0.20,-0.39,-0.21,0.18,-0.04,0.33,-0.20,-0.21,-0.18
395.77,-0.45,-0.26,-0.43,-0.24,0.22,0.01,0.38,-0.23,-0.21,-0.19
399.73,-0.47,-0.27,-0.45,-0.25,0.25,0.05,0.43,-0.21,-0.20,-0.20
403.72,-0.47,-0.25,-0.49,-0.27,0.29,0.10,0.48,-0.18,-0.20,-0.21
407.76,-0.51,-0.27,-0.54,-0.31,0.32,0.14,0.53,-0.18,-0.22,-0.23
411.84,-0.64,-0.39,-0.60,-0.35,0.36,0.19,0.59,-0.28,-0.24,-0.24
415.96,-0.68,-0.42,-0.66,-0.40,0.39,0.23,0.64,-0.29,-0.27,-0.26
420.12,-0.68,-0.41,-0.71,-0.44,0.43,0.28,0.69,-0.25,-0.28,-0.27
424.32,-0.74,-0.47,-0.72,-0.45,0.47,0.33,0.74,-0.27,-0.25,-0.27
428.56,-0.76,-0.49,-0.75,-0.49,0.51,0.37,0.78,-0.24,-0.24,-0.27
432.85,-0.77,-0.51,-0.80,-0.54,0.55,0.42,0.83,-0.22,-0.25,-0.26
437.18,-0.86,-0.62,-0.84,-0.60,0.58,0.46,0.88,-0.28,-0.26,-0.24
441.55,-0.88,-0.66,-0.86,-0.64,0.60,0.51,0.92,-0.27,-0.25,-0.22
445.96,-0.85,-0.66,-0.85,-0.66,0.63,0.55,0.96,-0.22,-0.22,-0.19
450.42,-0.80,-0.64,-0.81,-0.66,0.65,0.60,1.00,-0.14,-0.16,-0.15
454.93,-0.77,-0.65,-0.77,-0.66,0.68,0.64,1.04,-0.08,-0.09,-0.11
459.48,-0.77,-0.70,-0.75,-0.68,0.71,0.69,1.08,-0.06,-0.04,-0.06
464.07,-0.72,-0.69,-0.73,-0.71,0.73,0.73,1.12,0.01,0.00,-0.02
468.71,-0.72,-0.74,-0.72,-0.75,0.76,0.78,1.15,0.04,0.03,0.03
473.40,-0.72,-0.79,-0.72,-0.79,0.79,0.82,1.18,0.07,0.07,0.08
478.13,-0.74,-0.86,-0.71,-0.83,0.82,0.86,1.21,0.08,0.11,0.12
482.91,-0.70,-0.86,-0.70,-0.87,0.85,0.91,1.24,0.15,0.15,0.16
487.74,-0.67,-0.87,-0.69,-0.89,0.88,0.95,1.26,0.21,0.19,0.20
492.62,-0.70,-0.93,-0.68,-0.91,0.91,0.99,1.28,0.21,0.23,0.23
497.55,-0.70,-0.95,-0.68,-0.93,0.94,1.03,1.30,0.24,0.26,0.25
502.52,-0.67,-0.94,-0.68,-0.95,0.96,1.07,1.32,0.29,0.28,0.27
507.55,-0.68,-0.96,-0.69,-0.96,0.98,1.11,1.33,0.31,0.30,0.28
512.62,-0.72,-0.99,-0.72,-1.00,1.01,1.15,1.34,0.29,0.28,0.27
517.75,-0.79,-1.06,-0.77,-1.04,1.03,1.19,1.35,0.24,0.26,0.27
522.93,-0.83,-1.08,-0.82,-1.07,1.05,1.23,1.36,0.23,0.23,0.25
528.16,-0.85,-1.08,-0.87,-1.10,1.08,1.27,1.36,0.23,0.21,0.23
