frequency,raw,error,smoothed,error_smoothed,equalization,parametric_eq,fixed_band_eq,equalized_raw,equalized_smoothed,target
20.00,3.41,-4.73,3.42,-4.72,4.72,4.45,1.79,8.14,8.14,8.14
20.20,3.43,-4.69,3.43,-4.69,4.69,4.47,1.85,8.13,8.13,8.12
20.40,3.45,-4.66,3.45,-4.66,4.66,4.49,1.90,8.12,8.12,8.11
20.61,3.47,-4.64,3.47,-4.63,4.64,4.51,1.96,8.11,8.11,8.11
20.81,3.48,-4.61,3.49,-4.60,4.61,4.53,2.02,8.09,8.10,8.09
21.02,3.50,-4.58,3.51,-4.58,4.58,4.54,2.08,8.09,8.09,8.08
21.23,3.52,-4.55,3.52,-4.55,4.56,4.55,2.14,8.08,8.08,8.07
21.44,3.54,-4.54,3.54,-4.53,4.53,4.56,2.21,8.07,8.07,8.08
21.66,3.55,-4.52,3.56,-4.51,4.51,4.56,2.27,8.06,8.06,8.07
21.87,3.57,-4.48,3.58,-4.49,4.48,4.56,2.34,8.06,8.06,8.06
22.09,3.59,-4.45,3.59,-4.46,4.46,4.56,2.41,8.06,8.05,8.05
22.31,3.61,-4.43,3.61,-4.44,4.44,4.56,2.48,8.05,8.05,8.05
22.54,3.62,-4.41,3.63,-4.42,4.41,4.55,2.56,8.04,8.04,8.04
22.76,3.64,-4.40,3.65,-4.40,4.39,4.55,2.63,8.04,8.04,8.05
22.99,3.66,-4.37,3.66,-4.37,4.37,4.54,2.71,8.04,8.03,8.04
23.22,3.68,-4.34,3.68,-4.35,4.35,4.53,2.79,8.04,8.03,8.03
23.45,3.69,-4.33,3.70,-4.33,4.33,4.51,2.87,8.03,8.03,8.03
23.69,3.71,-4.31,3.71,-4.31,4.32,4.50,2.95,8.03,8.03,8.03
23.92,3.72,-4.30,3.73,-4.30,4.30,4.48,3.04,8.02,8.03,8.03
24.16,3.74,-4.28,3.75,-4.28,4.28,4.46,3.12,8.02,8.03,8.02
24.40,3.76,-4.27,3.76,-4.27,4.26,4.44,3.21,8.03,8.02,8.03
24.65,3.78,-4.25,3.78,-4.25,4.24,4.42,3.30,8.03,8.02,8.03
24.89,3.79,-4.23,3.80,-4.23,4.22,4.39,3.39,8.02,8.02,8.02
25.14,3.81,-4.20,3.81,-4.20,4.20,4.37,3.47,8.02,8.02,8.01
25.39,3.83,-4.19,3.83,-4.18,4.18,4.34,3.56,8.01,8.01,8.01
25.65,3.84,-4.16,3.84,-4.16,4.16,4.32,3.66,8.01,8.01,8.00
25.91,3.85,-4.14,3.86,-4.14,4.14,4.29,3.75,8.00,8.00,8.00
26.16,3.87,-4.13,3.87,-4.13,4.12,4.26,3.84,8.00,8.00,8.01
26.43,3.89,-4.10,3.89,-4.11,4.10,4.23,3.92,8.00,8.00,8.00
26.69,3.90,-4.09,3.91,-4.09,4.09,4.20,4.01,7.99,7.99,8.00
26.96,3.92,-4.07,3.92,-4.07,4.07,4.17,4.10,7.99,7.99,8.00
27.23,3.93,-4.05,3.94,-4.05,4.05,4.14,4.18,7.99,7.99,7.98
27.50,3.95,-4.03,3.95,-4.03,4.04,4.11,4.27,7.99,7.99,7.98
27.77,3.96,-4.03,3.96,-4.02,4.03,4.08,4.34,7.99,7.99,7.99
28.05,3.97,-4.02,3.97,-4.01,4.01,4.05,4.42,7.99,7.99,7.99
28.33,3.98,-4.00,3.99,-4.01,4.00,4.02,4.49,7.99,7.99,7.99
28.62,3.99,-3.99,4.00,-3.99,3.99,3.99,4.56,7.99,7.99,7.99
28.90,4.01,-3.98,4.01,-3.98,3.98,3.96,4.62,8.00,7.99,8.00
29.19,4.02,-3.97,4.02,-3.97,3.97,3.93,4.68,8.00,8.00,8.00
29.48,4.03,-3.96,4.04,-3.96,3.96,3.90,4.73,8.00,8.00,7.99
29.78,4.04,-3.95,4.04,-3.95,3.95,3.87,4.77,8.00,8.00,7.99
30.08,4.05,-3.96,4.05,-3.95,3.94,3.85,4.81,8.00,8.00,8.01
30.38,4.06,-3.93,4.06,-3.94,3.93,3.82,4.84,8.00,8.00,8.00
30.68,4.07,-3.92,4.08,-3.92,3.92,3.79,4.87,8.00,8.00,8.00
30.99,4.08,-3.91,4.08,-3.91,3.91,3.77,4.88,8.00,8.00,8.00
31.30,4.09,-3.90,4.09,-3.90,3.90,3.75,4.89,8.00,7.99,7.99
31.61,4.09,-3.90,4.10,-3.89,3.89,3.72,4.89,7.99,7.99,7.99
31.93,4.10,-3.88,4.10,-3.88,3.88,3.70,4.89,7.98,7.98,7.98
32.24,4.10,-3.87,4.11,-3.87,3.87,3.68,4.87,7.97,7.98,7.98
32.57,4.11,-3.85,4.11,-3.86,3.86,3.66,4.85,7.97,7.97,7.97
32.89,4.11,-3.85,4.11,-3.85,3.85,3.64,4.83,7.96,7.96,7.96
33.22,4.11,-3.85,4.12,-3.84,3.84,3.63,4.79,7.95,7.96,7.96
33.55,4.12,-3.83,4.12,-3.83,3.83,3.61,4.76,7.95,7.95,7.96
33.89,4.12,-3.82,4.12,-3.82,3.82,3.59,4.71,7.94,7.94,7.95
34.23,4.12,-3.81,4.13,-3.81,3.81,3.58,4.66,7.93,7.94,7.93
34.57,4.13,-3.80,4.13,-3.79,3.79,3.57,4.61,7.93,7.93,7.93
34.92,4.14,-3.77,4.14,-3.78,3.78,3.56,4.55,7.93,7.92,7.92
35.27,4.14,-3.78,4.15,-3.77,3.77,3.55,4.49,7.91,7.91,7.92
35.62,4.14,-3.75,4.15,-3.75,3.75,3.54,4.42,7.90,7.90,7.89
35.97,4.14,-3.74,4.14,-3.74,3.74,3.53,4.36,7.89,7.89,7.89
36.33,4.14,-3.73,4.14,-3.73,3.73,3.52,4.29,7.87,7.87,7.87
36.70,4.14,-3.72,4.15,-3.72,3.72,3.51,4.22,7.86,7.86,7.86
37.06,4.14,-3.70,4.14,-3.70,3.70,3.51,4.15,7.85,7.85,7.85
37.43,4.14,-3.69,4.14,-3.69,3.69,3.50,4.07,7.84,7.83,7.83
37.81,4.13,-3.68,4.14,-3.68,3.68,3.50,4.00,7.81,7.82,7.82
38.19,4.13,-3.66,4.13,-3.67,3.66,3.49,3.93,7.80,7.79,7.80
38.57,4.12,-3.66,4.13,-3.65,3.65,3.49,3.86,7.77,7.77,7.78
38.95,4.12,-3.63,4.13,-3.63,3.63,3.49,3.79,7.75,7.75,7.76
39.34,4.12,-3.61,4.12,-3.61,3.61,3.48,3.72,7.74,7.73,7.73
39.74,4.12,-3.59,4.12,-3.59,3.59,3.48,3.65,7.72,7.72,7.72
40.14,4.12,-3.57,4.12,-3.57,3.57,3.48,3.58,7.70,7.70,7.69
40.54,4.12,-3.55,4.12,-3.55,3.55,3.48,3.52,7.68,7.68,7.68
40.94,4.12,-3.53,4.12,-3.53,3.53,3.47,3.46,7.66,7.66,7.65
41.35,4.12,-3.51,4.12,-3.51,3.51,3.47,3.39,7.64,7.64,7.64
41.76,4.12,-3.49,4.12,-3.49,3.49,3.46,3.33,7.62,7.62,7.62
42.18,4.12,-3.48,4.12,-3.47,3.47,3.46,3.28,7.60,7.60,7.60
42.60,4.12,-3.45,4.12,-3.45,3.45,3.45,3.22,7.58,7.58,7.58
43.03,4.12,-3.43,4.12,-3.43,3.43,3.44,3.17,7.56,7.56,7.55
43.46,4.12,-3.41,4.12,-3.41,3.41,3.43,3.12,7.53,7.53,7.53
43.90,4.12,-3.38,4.12,-3.38,3.39,3.42,3.07,7.51,7.51,7.51
44.33,4.12,-3.36,4.12,-3.36,3.36,3.41,3.03,7.49,7.49,7.49
44.78,4.12,-3.34,4.12,-3.34,3.34,3.39,2.98,7.46,7.46,7.46
45.23,4.12,-3.32,4.12,-3.31,3.31,3.38,2.94,7.43,7.43,7.44
45.68,4.12,-3.28,4.12,-3.28,3.28,3.36,2.90,7.40,7.40,7.41
46.13,4.12,-3.24,4.12,-3.25,3.25,3.34,2.87,7.37,7.37,7.37
46.60,4.12,-3.21,4.12,-3.22,3.22,3.32,2.83,7.34,7.34,7.34
47.06,4.12,-3.18,4.12,-3.18,3.18,3.29,2.80,7.31,7.31,7.31
47.53,4.12,-3.15,4.12,-3.15,3.15,3.27,2.77,7.27,7.27,7.28
48.01,4.12,-3.11,4.12,-3.11,3.11,3.24,2.74,7.23,7.23,7.23
48.49,4.12,-3.08,4.12,-3.07,3.07,3.20,2.72,7.20,7.20,7.20
48.97,4.12,-3.03,4.12,-3.03,3.04,3.17,2.69,7.16,7.16,7.16
49.46,4.12,-3.00,4.12,-3.00,3.00,3.13,2.67,7.13,7.13,7.13
49.96,4.12,-2.95,4.12,-2.96,2.97,3.10,2.65,7.09,7.09,7.08
50.46,4.12,-2.93,4.12,-2.93,2.93,3.06,2.63,7.06,7.06,7.06
50.96,4.12,-2.90,4.12,-2.90,2.90,3.01,2.62,7.02,7.02,7.02
51.47,4.12,-2.87,4.12,-2.87,2.87,2.97,2.60,6.99,6.99,6.99
51.99,4.12,-2.83,4.12,-2.83,2.83,2.92,2.59,6.96,6.96,6.96
52.51,4.12,-2.80,4.12,-2.80,2.80,2.88,2.57,6.92,6.92,6.92
53.03,4.12,-2.77,4.12,-2.77,2.76,2.83,2.56,6.89,6.89,6.90
53.56,4.12,-2.73,4.12,-2.73,2.73,2.78,2.55,6.85,6.85,6.85
54.10,4.12,-2.70,4.12,-2.70,2.69,2.73,2.54,6.82,6.82,6.82
54.64,4.12,-2.66,4.12,-2.65,2.66,2.68,2.53,6.78,6.78,6.78
55.18,4.12,-2.61,4.12,-2.62,2.62,2.62,2.52,6.75,6.75,6.74
55.74,4.12,-2.58,4.12,-2.58,2.59,2.57,2.50,6.71,6.71,6.70
56.29,4.12,-2.56,4.12,-2.55,2.56,2.51,2.49,6.68,6.68,6.68
56.86,4.12,-2.53,4.12,-2.53,2.53,2.46,2.48,6.65,6.65,6.66
57.42,4.12,-2.49,4.12,-2.50,2.50,2.41,2.47,6.63,6.63,6.62
58.00,4.12,-2.46,4.12,-2.47,2.48,2.35,2.45,6.60,6.60,6.59
58.58,4.12,-2.45,4.12,-2.45,2.45,2.30,2.44,6.57,6.57,6.58
59.16,4.12,-2.42,4.12,-2.42,2.42,2.24,2.42,6.54,6.54,6.55
59.76,4.12,-2.39,4.12,-2.39,2.38,2.19,2.41,6.51,6.51,6.52
60.35,4.12,-2.35,4.12,-2.35,2.34,2.13,2.39,6.47,6.47,6.48
60.96,4.12,-2.31,4.12,-2.31,2.30,2.08,2.37,6.43,6.43,6.43
61.57,4.12,-2.26,4.12,-2.26,2.26,2.02,2.34,6.39,6.39,6.38
62.18,4.12,-2.21,4.12,-2.21,2.22,1.97,2.32,6.34,6.34,6.34
62.80,4.12,-2.17,4.12,-2.17,2.18,1.92,2.29,6.30,6.30,6.29
63.43,4.12,-2.12,4.12,-2.13,2.13,1.86,2.26,6.26,6.26,6.25
64.07,4.12,-2.09,4.12,-2.09,2.09,1.81,2.23,6.22,6.22,6.21
64.71,4.12,-2.05,4.12,-2.05,2.05,1.76,2.20,6.18,6.18,6.18
65.35,4.12,-2.01,4.12,-2.02,2.01,1.71,2.17,6.14,6.14,6.14
66.01,4.12,-1.98,4.12,-1.98,1.97,1.66,2.13,6.10,6.10,6.10
66.67,4.12,-1.95,4.12,-1.94,1.94,1.61,2.10,6.06,6.06,6.07
67.33,4.12,-1.90,4.12,-1.90,1.90,1.57,2.06,6.02,6.02,6.02
68.01,4.12,-1.86,4.12,-1.86,1.86,1.52,2.02,5.99,5.99,5.98
68.69,4.12,-1.82,4.12,-1.82,1.82,1.47,1.97,5.95,5.95,5.94
69.37,4.12,-1.78,4.12,-1.78,1.78,1.43,1.93,5.91,5.91,5.91
70.07,4.12,-1.75,4.12,-1.75,1.74,1.38,1.89,5.87,5.87,5.88
70.77,4.12,-1.71,4.12,-1.71,1.70,1.34,1.84,5.83,5.83,5.83
71.48,4.12,-1.66,4.12,-1.66,1.66,1.30,1.80,5.78,5.78,5.79
72.19,4.12,-1.62,4.12,-1.62,1.62,1.26,1.75,5.74,5.74,5.74
72.91,4.12,-1.58,4.12,-1.58,1.58,1.21,1.70,5.70,5.70,5.70
73.64,4.12,-1.53,4.12,-1.53,1.54,1.17,1.65,5.66,5.66,5.66
74.38,4.12,-1.49,4.12,-1.50,1.50,1.13,1.61,5.63,5.63,5.62
75.12,4.12,-1.47,4.12,-1.46,1.47,1.10,1.56,5.59,5.59,5.59
75.87,4.12,-1.44,4.12,-1.43,1.43,1.06,1.51,5.56,5.56,5.56
76.63,4.12,-1.41,4.12,-1.40,1.40,1.02,1.46,5.53,5.53,5.53
77.40,4.12,-1.37,4.12,-1.37,1.37,0.98,1.41,5.50,5.50,5.50
78.17,4.12,-1.34,4.12,-1.35,1.35,0.95,1.36,5.47,5.47,5.47
78.95,4.12,-1.32,4.12,-1.32,1.32,0.91,1.32,5.44,5.44,5.44
79.74,4.12,-1.29,4.12,-1.29,1.29,0.88,1.27,5.41,5.41,5.42
80.54,4.12,-1.26,4.12,-1.26,1.26,0.84,1.22,5.39,5.39,5.38
81.35,4.12,-1.23,4.12,-1.23,1.23,0.81,1.18,5.36,5.36,5.36
82.16,4.12,-1.21,4.12,-1.20,1.20,0.78,1.13,5.32,5.32,5.33
82.98,4.12,-1.17,4.12,-1.17,1.17,0.75,1.08,5.29,5.29,5.29
83.81,4.12,-1.13,4.12,-1.13,1.14,0.71,1.04,5.26,5.26,5.26
84.65,4.12,-1.10,4.12,-1.10,1.10,0.68,0.99,5.23,5.23,5.23
85.50,4.12,-1.06,4.12,-1.07,1.07,0.65,0.95,5.19,5.19,5.19
86.35,4.12,-1.03,4.12,-1.03,1.03,0.62,0.91,5.16,5.16,5.16
87.22,4.12,-1.00,4.12,-1.00,1.00,0.59,0.87,5.12,5.12,5.13
88.09,4.12,-0.96,4.12,-0.96,0.96,0.57,0.82,5.09,5.09,5.09
88.97,4.12,-0.93,4.12,-0.93,0.93,0.54,0.78,5.05,5.05,5.05
89.86,4.12,-0.89,4.12,-0.89,0.89,0.51,0.74,5.02,5.02,5.01
90.76,4.12,-0.85,4.12,-0.85,0.86,0.48,0.70,4.98,4.98,4.98
91.66,4.12,-0.82,4.12,-0.82,0.82,0.45,0.66,4.94,4.94,4.94
92.58,4.12,-0.78,4.12,-0.78,0.78,0.43,0.62,4.91,4.91,4.91
93.51,4.12,-0.75,4.12,-0.75,0.74,0.40,0.58,4.87,4.87,4.87
94.44,4.12,-0.71,4.12,-0.71,0.70,0.37,0.55,4.83,4.83,4.84
95.39,4.12,-0.67,4.12,-0.67,0.67,0.35,0.51,4.79,4.79,4.79
96.34,4.12,-0.62,4.12,-0.63,0.63,0.32,0.47,4.75,4.75,4.75
97.30,4.12,-0.59,4.12,-0.58,0.59,0.30,0.44,4.71,4.71,4.71
98.28,4.12,-0.55,4.12,-0.54,0.55,0.27,0.40,4.67,4.67,4.67
99.26,4.12,-0.50,4.12,-0.51,0.51,0.25,0.37,4.63,4.63,4.63
100.25,4.12,-0.46,4.12,-0.47,0.47,0.22,0.33,4.60,4.60,4.59
101.25,4.12,-0.45,4.12,-0.44,0.44,0.20,0.30,4.56,4.56,4.57
102.27,4.12,-0.41,4.12,-0.41,0.41,0.18,0.26,4.53,4.53,4.53
103.29,4.12,-0.37,4.12,-0.38,0.38,0.15,0.23,4.50,4.50,4.50
104.32,4.12,-0.35,4.12,-0.35,0.35,0.13,0.20,4.47,4.47,4.48
105.37,4.12,-0.31,4.12,-0.32,0.31,0.11,0.16,4.44,4.44,4.44
106.42,4.12,-0.29,4.12,-0.29,0.28,0.08,0.13,4.41,4.41,4.41
107.48,4.12,-0.25,4.12,-0.25,0.25,0.06,0.10,4.38,4.38,4.37
108.56,4.12,-0.22,4.12,-0.22,0.22,0.04,0.07,4.35,4.35,4.35
109.64,4.12,-0.18,4.12,-0.19,0.19,0.01,0.04,4.31,4.31,4.31
110.74,4.12,-0.16,4.12,-0.15,0.15,-0.01,0.01,4.28,4.28,4.28
111.85,4.12,-0.12,4.12,-0.12,0.12,-0.03,-0.02,4.24,4.24,4.24
112.97,4.12,-0.08,4.12,-0.09,0.08,-0.05,-0.05,4.21,4.21,4.21
114.10,4.12,-0.06,4.12,-0.05,0.05,-0.08,-0.08,4.17,4.17,4.18
115.24,4.12,-0.01,4.12,-0.01,0.01,-0.10,-0.10,4.13,4.13,4.13
116.39,4.12,0.04,4.12,0.03,-0.03,-0.12,-0.13,4.10,4.10,4.09
117.55,4.12,0.06,4.12,0.07,-0.06,-0.14,-0.16,4.06,4.06,4.06
118.73,4.12,0.11,4.12,0.10,-0.10,-0.16,-0.19,4.03,4.03,4.02
119.92,4.12,0.13,4.12,0.13,-0.13,-0.19,-0.21,4.00,4.00,3.99
121.12,4.12,0.16,4.12,0.16,-0.16,-0.21,-0.24,3.96,3.96,3.97
122.33,4.12,0.19,4.12,0.19,-0.19,-0.23,-0.26,3.93,3.93,3.94
123.55,4.12,0.22,4.12,0.22,-0.22,-0.25,-0.28,3.90,3.90,3.90
124.79,4.12,0.24,4.12,0.25,-0.25,-0.28,-0.31,3.87,3.87,3.88
126.03,4.12,0.29,4.12,0.28,-0.28,-0.30,-0.33,3.84,3.84,3.84
127.29,4.12,0.32,4.12,0.32,-0.32,-0.32,-0.35,3.81,3.81,3.81
128.57,4.12,0.35,4.12,0.35,-0.35,-0.34,-0.38,3.77,3.77,3.78
129.85,4.12,0.39,4.12,0.39,-0.39,-0.37,-0.40,3.74,3.74,3.74
131.15,4.12,0.43,4.12,0.43,-0.43,-0.39,-0.42,3.70,3.70,3.70
132.46,4.12,0.46,4.12,0.47,-0.46,-0.41,-0.44,3.66,3.66,3.66
133.79,4.12,0.50,4.12,0.50,-0.50,-0.44,-0.46,3.63,3.63,3.62
135.12,4.12,0.54,4.12,0.53,-0.53,-0.46,-0.48,3.59,3.59,3.59
136.48,4.12,0.55,4.12,0.56,-0.57,-0.48,-0.50,3.56,3.56,3.57
137.84,4.12,0.59,4.12,0.59,-0.60,-0.51,-0.52,3.53,3.53,3.53
139.22,4.12,0.63,4.12,0.63,-0.63,-0.53,-0.54,3.50,3.50,3.49
140.61,4.12,0.66,4.12,0.66,-0.66,-0.56,-0.57,3.47,3.47,3.47
142.02,4.12,0.69,4.12,0.69,-0.69,-0.58,-0.59,3.44,3.44,3.43
143.44,4.12,0.72,4.12,0.72,-0.71,-0.60,-0.61,3.41,3.41,3.40
144.87,4.12,0.73,4.12,0.74,-0.74,-0.63,-0.63,3.39,3.39,3.39
146.32,4.12,0.76,4.12,0.76,-0.76,-0.65,-0.65,3.36,3.36,3.36
147.78,4.12,0.78,4.12,0.78,-0.79,-0.68,-0.67,3.34,3.34,3.34
149.26,4.12,0.81,4.12,0.81,-0.81,-0.71,-0.69,3.31,3.31,3.31
150.75,4.12,0.84,4.12,0.83,-0.83,-0.73,-0.71,3.29,3.29,3.29
152.26,4.12,0.86,4.12,0.86,-0.86,-0.76,-0.74,3.27,3.27,3.27
153.78,4.12,0.88,4.12,0.88,-0.88,-0.79,-0.76,3.24,3.24,3.24
155.32,4.12,0.91,4.12,0.91,-0.91,-0.81,-0.79,3.22,3.22,3.22
156.88,4.12,0.93,4.12,0.93,-0.93,-0.84,-0.81,3.19,3.19,3.19
158.44,4.12,0.96,4.12,0.96,-0.96,-0.87,-0.84,3.16,3.16,3.16
160.03,4.12,0.99,4.12,0.99,-0.99,-0.90,-0.86,3.13,3.13,3.14
161.63,4.12,1.02,4.12,1.02,-1.02,-0.93,-0.89,3.10,3.10,3.11
163.24,4.12,1.06,4.12,1.05,-1.05,-0.95,-0.92,3.07,3.07,3.07
164.88,4.12,1.09,4.12,1.09,-1.08,-0.98,-0.94,3.04,3.04,3.04
166.53,4.12,1.12,4.12,1.12,-1.12,-1.01,-0.97,3.01,3.01,3.01
168.19,4.12,1.15,4.12,1.15,-1.15,-1.04,-1.00,2.98,2.98,2.98
169.87,4.12,1.18,4.12,1.18,-1.18,-1.08,-1.04,2.94,2.94,2.94
171.57,4.12,1.21,4.12,1.21,-1.21,-1.11,-1.07,2.91,2.91,2.91
173.29,4.12,1.25,4.12,1.25,-1.25,-1.14,-1.10,2.88,2.88,2.88
175.02,4.12,1.28,4.12,1.28,-1.28,-1.17,-1.13,2.85,2.85,2.84
176.77,4.12,1.32,4.12,1.31,-1.31,-1.20,-1.17,2.81,2.81,2.81
178.54,4.12,1.34,4.12,1.35,-1.35,-1.24,-1.21,2.78,2.78,2.78
180.32,4.12,1.38,4.12,1.38,-1.38,-1.27,-1.24,2.74,2.74,2.74
182.13,4.12,1.42,4.12,1.41,-1.42,-1.30,-1.28,2.71,2.71,2.71
183.95,4.12,1.45,4.12,1.45,-1.45,-1.34,-1.32,2.67,2.67,2.68
185.79,4.12,1.49,4.12,1.49,-1.48,-1.37,-1.36,2.64,2.64,2.64
187.65,4.12,1.52,4.12,1.52,-1.52,-1.41,-1.40,2.60,2.60,2.61
189.52,4.12,1.56,4.12,1.55,-1.55,-1.44,-1.44,2.57,2.57,2.57
191.42,4.12,1.59,4.12,1.59,-1.59,-1.48,-1.49,2.54,2.54,2.54
193.33,4.12,1.62,4.12,1.62,-1.62,-1.51,-1.53,2.50,2.50,2.51
195.27,4.12,1.65,4.12,1.65,-1.65,-1.55,-1.57,2.47,2.47,2.47
197.22,4.12,1.69,4.12,1.69,-1.68,-1.58,-1.62,2.44,2.44,2.43
199.19,4.12,1.71,4.12,1.71,-1.71,-1.62,-1.66,2.41,2.41,2.42
201.18,4.12,1.74,4.12,1.74,-1.74,-1.65,-1.71,2.39,2.39,2.38
203.19,4.12,1.76,4.12,1.76,-1.76,-1.69,-1.75,2.36,2.36,2.36
205.23,4.12,1.79,4.12,1.78,-1.79,-1.72,-1.80,2.34,2.34,2.34
207.28,4.12,1.80,4.12,1.81,-1.81,-1.76,-1.84,2.32,2.32,2.32
209.35,4.12,1.83,4.12,1.83,-1.83,-1.79,-1.89,2.29,2.29,2.29
211.44,4.12,1.86,4.12,1.85,-1.85,-1.82,-1.93,2.27,2.27,2.27
213.56,4.12,1.87,4.12,1.88,-1.88,-1.85,-1.98,2.25,2.25,2.25
215.69,4.12,1.89,4.12,1.89,-1.90,-1.89,-2.02,2.23,2.23,2.23
217.85,4.12,1.92,4.12,1.92,-1.92,-1.92,-2.06,2.21,2.21,2.21
220.03,4.12,1.94,4.12,1.94,-1.94,-1.95,-2.10,2.19,2.19,2.19
222.23,4.12,1.96,4.12,1.96,-1.96,-1.97,-2.14,2.17,2.17,2.16
224.45,4.12,1.98,4.12,1.98,-1.98,-2.00,-2.18,2.15,2.15,2.14
226.70,4.12,1.99,4.12,1.99,-1.99,-2.03,-2.21,2.13,2.13,2.13
228.96,4.12,2.00,4.12,2.01,-2.01,-2.05,-2.25,2.12,2.12,2.12
231.25,4.12,2.02,4.12,2.02,-2.02,-2.07,-2.28,2.10,2.10,2.10
233.57,4.12,2.03,4.12,2.04,-2.03,-2.09,-2.30,2.09,2.09,2.09
235.90,4.12,2.05,4.12,2.05,-2.04,-2.11,-2.33,2.08,2.08,2.07
238.26,4.12,2.06,4.12,2.05,-2.05,-2.13,-2.35,2.07,2.07,2.07
240.64,4.12,2.05,4.12,2.06,-2.06,-2.14,-2.37,2.07,2.07,2.08
243.05,4.12,2.06,4.12,2.06,-2.06,-2.15,-2.38,2.06,2.06,2.07
245.48,4.12,2.07,4.12,2.07,-2.07,-2.16,-2.39,2.06,2.06,2.05
247.93,4.12,2.08,4.12,2.07,-2.07,-2.17,-2.40,2.05,2.05,2.04
250.41,4.12,2.07,4.12,2.07,-2.07,-2.18,-2.40,2.05,2.05,2.06
252.92,4.12,2.07,4.12,2.07,-2.07,-2.18,-2.40,2.05,2.05,2.06
255.45,4.12,2.07,4.12,2.07,-2.07,-2.18,-2.39,2.05,2.05,2.05
258.00,4.12,2.07,4.12,2.07,-2.07,-2.18,-2.39,2.05,2.05,2.05
260.58,4.12,2.08,4.12,2.07,-2.07,-2.18,-2.37,2.05,2.05,2.05
263.19,4.12,2.07,4.12,2.07,-2.07,-2.17,-2.36,2.05,2.05,2.05
265.82,4.12,2.08,4.12,2.08,-2.08,-2.16,-2.34,2.05,2.05,2.05
268.48,4.12,2.07,4.12,2.08,-2.08,-2.15,-2.32,2.05,2.05,2.05
271.16,4.12,2.08,4.12,2.08,-2.08,-2.14,-2.29,2.05,2.05,2.04
273.87,4.12,2.08,4.12,2.08,-2.08,-2.13,-2.26,2.05,2.05,2.05
276.61,4.12,2.08,4.12,2.08,-2.08,-2.12,-2.23,2.04,2.04,2.04
279.38,4.12,2.10,4.12,2.08,-2.08,-2.10,-2.20,2.04,2.04,2.03
282.17,4.12,2.08,4.12,2.08,-2.09,-2.09,-2.17,2.04,2.04,2.04
284.99,4.12,2.07,4.13,2.08,-2.09,-2.07,-2.13,2.03,2.04,2.05
287.84,4.13,2.08,4.14,2.09,-2.09,-2.05,-2.09,2.04,2.05,2.06
290.72,4.14,2.10,4.14,2.09,-2.09,-2.03,-2.06,2.06,2.06,2.04
293.63,4.14,2.10,4.14,2.09,-2.08,-2.01,-2.02,2.07,2.06,2.05
296.57,4.13,2.07,4.13,2.08,-2.07,-1.99,-1.98,2.07,2.07,2.06
299.53,4.11,2.05,4.12,2.05,-2.05,-1.97,-1.93,2.06,2.07,2.06
302.53,4.09,2.03,4.10,2.03,-2.03,-1.95,-1.89,2.07,2.07,2.07
305.55,4.07,2.00,4.07,2.00,-2.00,-1.92,-1.85,2.07,2.07,2.07
308.61,4.04,1.96,4.05,1.97,-1.97,-1.90,-1.81,2.08,2.08,2.08
311.69,4.01,1.93,4.02,1.93,-1.93,-1.88,-1.77,2.09,2.09,2.09
314.81,3.98,1.89,3.99,1.89,-1.89,-1.85,-1.73,2.09,2.10,2.09
317.96,3.95,1.85,3.96,1.86,-1.85,-1.83,-1.69,2.10,2.10,2.10
321.14,3.92,1.82,3.92,1.81,-1.81,-1.81,-1.65,2.11,2.11,2.11
324.35,3.88,1.78,3.88,1.77,-1.77,-1.78,-1.61,2.11,2.11,2.11
327.59,3.84,1.71,3.86,1.73,-1.74,-1.76,-1.57,2.11,2.12,2.13
330.87,3.83,1.70,3.83,1.70,-1.70,-1.74,-1.53,2.13,2.13,2.13
334.18,3.81,1.69,3.81,1.67,-1.67,-1.71,-1.50,2.14,2.13,2.13
337.52,3.78,1.64,3.79,1.65,-1.65,-1.69,-1.46,2.13,2.14,2.15
340.90,3.77,1.62,3.78,1.63,-1.63,-1.67,-1.43,2.14,2.14,2.15
344.30,3.77,1.61,3.77,1.61,-1.62,-1.64,-1.39,2.15,2.15,2.16
347.75,3.78,1.62,3.78,1.61,-1.61,-1.62,-1.36,2.17,2.17,2.17
351.23,3.78,1.61,3.79,1.61,-1.60,-1.60,-1.33,2.18,2.18,2.18
354.74,3.79,1.60,3.79,1.61,-1.60,-1.57,-1.30,2.20,2.19,2.19
358.28,3.79,1.60,3.79,1.60,-1.60,-1.55,-1.27,2.20,2.20,2.19
361.87,3.79,1.60,3.80,1.60,-1.60,-1.53,-1.24,2.20,2.20,2.19
365.49,3.79,1.58,3.80,1.59,-1.60,-1.50,-1.22,2.20,2.20,2.21
369.14,3.80,1.59,3.80,1.59,-1.59,-1.48,-1.19,2.21,2.21,2.22
372.83,3.81,1.59,3.81,1.59,-1.59,-1.46,-1.17,2.22,2.22,2.23
376.56,3.81,1.59,3.82,1.59,-1.58,-1.43,-1.14,2.23,2.23,2.23
380.33,3.81,1.58,3.81,1.58,-1.57,-1.41,-1.12,2.24,2.24,2.23
384.13,3.80,1.56,3.81,1.56,-1.56,-1.39,-1.10,2.25,2.25,2.24
387.97,3.79,1.54,3.80,1.54,-1.54,-1.36,-1.08,2.26,2.26,2.25
391.85,3.78,1.52,3.78,1.52,-1.51,-1.34,-1.06,2.27,2.27,2.27
395.77,3.75,1.49,3.76,1.48,-1.48,-1.32,-1.04,2.28,2.28,2.27
399.73,3.72,1.45,3.73,1.45,-1.44,-1.29,-1.02,2.28,2.29,2.28
403.72,3.69,1.40,3.69,1.40,-1.40,-1.27,-1.00,2.29,2.29,2.30
407.76,3.66,1.36,3.66,1.36,-1.36,-1.25,-0.98,2.30,2.30,2.31
411.84,3.62,1.31,3.63,1.31,-1.32,-1.22,-0.97,2.30,2.30,2.31
415.96,3.59,1.27,3.59,1.28,-1.28,-1.20,-0.95,2.31,2.31,2.32
420.12,3.56,1.24,3.57,1.24,-1.25,-1.17,-0.93,2.32,2.32,2.32
424.32,3.54,1.21,3.55,1.21,-1.21,-1.15,-0.92,2.33,2.34,2.33
428.56,3.53,1.18,3.53,1.18,-1.18,-1.12,-0.90,2.36,2.35,2.35
432.85,3.50,1.14,3.51,1.15,-1.14,-1.10,-0.89,2.36,2.36,2.37
437.18,3.47,1.12,3.48,1.11,-1.11,-1.07,-0.87,2.36,2.37,2.36
441.55,3.45,1.09,3.45,1.08,-1.08,-1.04,-0.85,2.37,2.37,2.37
445.96,3.42,1.05,3.42,1.05,-1.05,-1.02,-0.83,2.38,2.38,2.38
450.42,3.39,1.01,3.40,1.01,-1.01,-0.99,-0.82,2.38,2.38,2.39
454.93,3.37,0.98,3.37,0.97,-0.98,-0.96,-0.80,2.39,2.39,2.40
459.48,3.34,0.94,3.35,0.94,-0.94,-0.93,-0.78,2.40,2.40,2.40
464.07,3.32,0.90,3.33,0.91,-0.91,-0.90,-0.76,2.42,2.42,2.42
468.71,3.30,0.88,3.30,0.87,-0.86,-0.87,-0.74,2.44,2.43,2.42
473.40,3.26,0.83,3.27,0.83,-0.82,-0.84,-0.72,2.44,2.45,2.43
478.13,3.22,0.78,3.23,0.78,-0.78,-0.81,-0.69,2.45,2.45,2.44
482.91,3.18,0.73,3.18,0.73,-0.73,-0.78,-0.67,2.45,2.45,2.45
487.74,3.13,0.67,3.14,0.68,-0.69,-0.74,-0.64,2.45,2.45,2.46
492.62,3.09,0.62,3.10,0.63,-0.64,-0.71,-0.62,2.46,2.46,2.47
497.55,3.06,0.58,3.06,0.58,-0.59,-0.67,-0.59,2.47,2.47,2.48
502.52,3.03,0.54,3.04,0.54,-0.54,-0.64,-0.56,2.49,2.49,2.49
507.55,3.00,0.50,3.00,0.50,-0.49,-0.60,-0.53,2.51,2.51,2.51
512.62,2.97,0.46,2.97,0.45,-0.44,-0.56,-0.49,2.53,2.53,2.52
517.75,2.92,0.39,2.93,0.39,-0.39,-0.52,-0.46,2.54,2.54,2.54
522.93,2.88,0.34,2.88,0.34,-0.33,-0.48,-0.42,2.55,2.55,2.55
528.16,2.83,0.28,2.83,0.28,-0.28,-0.44,-0.38,2.56,2.56,2.56
533.44,2.78,0.22,2.79,0.22,-0.22,-0.40,-0.34,2.57,2.57,2.57
538.77,2.73,0.16,2.73,0.15,-0.16,-0.35,-0.30,2.58,2.58,2.58
544.16,2.68,0.09,2.68,0.09,-0.10,-0.30,-0.26,2.59,2.59,2.60
549.60,2.63,0.03,2.64,0.03,-0.04,-0.25,-0.22,2.60,2.60,2.61
555.10,2.59,-0.03,2.60,-0.03,0.02,-0.20,-0.17,2.62,2.62,2.63
560.65,2.55,-0.08,2.55,-0.08,0.08,-0.15,-0.12,2.64,2.64,2.64
