frequency,raw,error,smoothed,error_smoothed,equalization,parametric_eq,fixed_band_eq,equalized_raw,equalized_smoothed,target
20.00,-9.19,-12.70,-9.19,-12.70,6.00,5.66,2.83,-3.19,-3.19,3.51
20.20,-9.12,-12.62,-9.13,-12.63,6.00,5.69,2.91,-3.12,-3.13,3.50
20.40,-9.07,-12.57,-9.06,-12.57,6.00,5.72,2.99,-3.07,-3.06,3.50
20.61,-9.00,-12.50,-9.00,-12.50,6.00,5.74,3.08,-3.00,-3.00,3.49
20.81,-8.93,-12.42,-8.94,-12.43,6.00,5.77,3.17,-2.93,-2.94,3.49
21.02,-8.88,-12.37,-8.87,-12.36,6.00,5.80,3.26,-2.88,-2.87,3.49
21.23,-8.81,-12.28,-8.81,-12.28,6.00,5.82,3.35,-2.81,-2.81,3.47
21.44,-8.74,-12.19,-8.75,-12.20,6.00,5.85,3.45,-2.74,-2.75,3.45
21.66,-8.68,-12.11,-8.68,-12.11,6.00,5.87,3.54,-2.68,-2.68,3.43
21.87,-8.62,-12.02,-8.61,-12.02,6.00,5.89,3.65,-2.62,-2.61,3.40
22.09,-8.54,-11.92,-8.55,-11.93,6.00,5.92,3.75,-2.54,-2.55,3.38
22.31,-8.47,-11.83,-8.47,-11.83,6.00,5.94,3.86,-2.47,-2.47,3.36
22.54,-8.41,-11.74,-8.40,-11.73,6.00,5.96,3.97,-2.41,-2.40,3.33
22.76,-8.33,-11.63,-8.34,-11.64,6.00,5.98,4.08,-2.33,-2.34,3.30
22.99,-8.26,-11.53,-8.27,-11.53,6.00,6.00,4.19,-2.26,-2.27,3.27
23.22,-8.20,-11.44,-8.19,-11.44,6.00,6.02,4.31,-2.20,-2.19,3.24
23.45,-8.12,-11.34,-8.12,-11.34,6.00,6.04,4.43,-2.12,-2.12,3.22
23.69,-8.05,-11.25,-8.05,-11.25,6.00,6.06,4.56,-2.05,-2.05,3.20
23.92,-7.98,-11.16,-7.98,-11.16,6.00,6.08,4.68,-1.98,-1.98,3.18
24.16,-7.90,-11.07,-7.91,-11.07,6.00,6.09,4.81,-1.90,-1.91,3.17
24.40,-7.84,-10.99,-7.83,-10.98,6.00,6.11,4.94,-1.84,-1.83,3.15
24.65,-7.76,-10.89,-7.76,-10.89,6.00,6.12,5.07,-1.76,-1.76,3.13
24.89,-7.69,-10.80,-7.69,-10.79,6.00,6.14,5.21,-1.69,-1.69,3.11
25.14,-7.61,-10.70,-7.61,-10.70,6.00,6.15,5.34,-1.61,-1.61,3.09
25.39,-7.53,-10.59,-7.53,-10.60,6.00,6.16,5.48,-1.53,-1.53,3.07
25.65,-7.45,-10.51,-7.45,-10.50,6.00,6.17,5.62,-1.45,-1.45,3.05
25.91,-7.38,-10.41,-7.38,-10.41,6.00,6.18,5.75,-1.38,-1.38,3.02
26.16,-7.30,-10.31,-7.30,-10.31,6.00,6.19,5.89,-1.30,-1.30,3.01
26.43,-7.22,-10.22,-7.22,-10.22,6.00,6.20,6.03,-1.22,-1.22,2.99
26.69,-7.14,-10.12,-7.14,-10.12,6.00,6.21,6.16,-1.14,-1.14,2.98
26.96,-7.06,-10.02,-7.06,-10.03,6.00,6.21,6.30,-1.06,-1.06,2.96
27.23,-6.98,-9.93,-6.98,-9.93,6.00,6.22,6.43,-0.98,-0.98,2.95
27.50,-6.90,-9.83,-6.90,-9.83,6.00,6.23,6.56,-0.90,-0.90,2.93
27.77,-6.81,-9.72,-6.81,-9.73,6.00,6.23,6.68,-0.81,-0.81,2.91
28.05,-6.73,-9.63,-6.73,-9.62,6.00,6.23,6.80,-0.73,-0.73,2.90
28.33,-6.65,-9.52,-6.65,-9.52,6.00,6.24,6.91,-0.65,-0.65,2.87
28.62,-6.56,-9.42,-6.57,-9.43,6.00,6.24,7.02,-0.56,-0.57,2.86
28.90,-6.48,-9.34,-6.48,-9.33,6.00,6.24,7.12,-0.48,-0.48,2.86
29.19,-6.41,-9.25,-6.40,-9.24,6.00,6.24,7.21,-0.41,-0.40,2.84
29.48,-6.32,-9.15,-6.32,-9.15,6.00,6.23,7.29,-0.32,-0.32,2.83
29.78,-6.24,-9.06,-6.24,-9.06,6.00,6.23,7.37,-0.24,-0.24,2.81
30.08,-6.16,-8.96,-6.16,-8.96,6.00,6.23,7.43,-0.16,-0.16,2.80
30.38,-6.08,-8.86,-6.08,-8.86,6.00,6.22,7.48,-0.08,-0.08,2.78
30.68,-6.00,-8.76,-6.00,-8.76,6.00,6.22,7.52,-0.00,-0.00,2.76
30.99,-5.92,-8.66,-5.92,-8.67,6.00,6.21,7.54,0.08,0.08,2.74
31.30,-5.85,-8.58,-5.85,-8.58,6.00,6.20,7.56,0.15,0.15,2.73
31.61,-5.78,-8.50,-5.78,-8.49,6.00,6.20,7.56,0.22,0.22,2.72
31.93,-5.71,-8.40,-5.71,-8.40,6.00,6.19,7.55,0.29,0.29,2.69
32.24,-5.65,-8.31,-5.65,-8.31,6.00,6.18,7.53,0.35,0.35,2.66
32.57,-5.57,-8.21,-5.58,-8.22,6.00,6.16,7.50,0.43,0.42,2.64
32.89,-5.51,-8.14,-5.51,-8.13,6.00,6.15,7.46,0.49,0.49,2.63
33.22,-5.43,-8.03,-5.44,-8.04,6.00,6.14,7.40,0.57,0.56,2.60
33.55,-5.37,-7.96,-5.37,-7.95,6.00,6.12,7.34,0.63,0.63,2.59
33.89,-5.30,-7.86,-5.30,-7.86,6.00,6.11,7.27,0.70,0.70,2.56
34.23,-5.23,-7.78,-5.23,-7.77,6.00,6.09,7.19,0.77,0.77,2.54
34.57,-5.16,-7.67,-5.16,-7.68,6.00,6.07,7.11,0.84,0.84,2.51
34.92,-5.10,-7.59,-5.10,-7.60,6.00,6.06,7.02,0.90,0.90,2.49
35.27,-5.03,-7.51,-5.03,-7.51,6.00,6.04,6.92,0.97,0.97,2.48
35.62,-4.97,-7.43,-4.97,-7.42,6.00,6.02,6.83,1.03,1.03,2.46
35.97,-4.90,-7.33,-4.90,-7.33,6.00,6.00,6.72,1.10,1.10,2.42
36.33,-4.83,-7.24,-4.84,-7.25,6.00,5.97,6.62,1.17,1.16,2.41
36.70,-4.78,-7.17,-4.77,-7.16,6.00,5.95,6.51,1.22,1.23,2.39
37.06,-4.71,-7.07,-4.71,-7.08,6.00,5.93,6.41,1.29,1.29,2.36
37.43,-4.64,-6.99,-4.64,-6.99,6.00,5.90,6.30,1.36,1.36,2.35
37.81,-4.58,-6.90,-4.58,-6.90,6.00,5.87,6.19,1.42,1.42,2.32
38.19,-4.51,-6.81,-4.51,-6.82,6.00,5.85,6.09,1.49,1.49,2.30
38.57,-4.45,-6.74,-4.45,-6.74,6.00,5.82,5.98,1.55,1.55,2.29
38.95,-4.39,-6.65,-4.39,-6.65,6.00,5.79,5.88,1.61,1.61,2.26
39.34,-4.33,-6.57,-4.33,-6.57,6.00,5.76,5.78,1.67,1.67,2.24
39.74,-4.27,-6.48,-4.27,-6.49,6.00,5.73,5.68,1.73,1.73,2.21
40.14,-4.21,-6.41,-4.21,-6.40,6.01,5.70,5.58,1.80,1.80,2.20
40.54,-4.15,-6.32,-4.15,-6.33,6.01,5.67,5.49,1.86,1.86,2.17
40.94,-4.09,-6.25,-4.09,-6.25,6.01,5.63,5.40,1.92,1.92,2.16
41.35,-4.04,-6.18,-4.03,-6.17,6.01,5.60,5.31,1.97,1.97,2.14
41.76,-3.97,-6.09,-3.98,-6.10,5.99,5.57,5.22,2.02,2.01,2.12
42.18,-3.92,-6.03,-3.92,-6.03,5.96,5.53,5.14,2.04,2.04,2.11
42.60,-3.87,-5.95,-3.87,-5.96,5.92,5.49,5.07,2.05,2.06,2.08
43.03,-3.81,-5.89,-3.81,-5.88,5.87,5.46,4.99,2.06,2.06,2.08
43.46,-3.75,-5.81,-3.75,-5.80,5.81,5.42,4.92,2.06,2.06,2.05
43.90,-3.69,-5.71,-3.69,-5.72,5.74,5.38,4.86,2.04,2.04,2.02
44.33,-3.64,-5.64,-3.64,-5.64,5.66,5.34,4.80,2.02,2.02,2.00
44.78,-3.59,-5.57,-3.59,-5.57,5.58,5.30,4.74,1.99,1.99,1.98
45.23,-3.54,-5.50,-3.54,-5.50,5.50,5.26,4.68,1.96,1.96,1.96
45.68,-3.49,-5.43,-3.49,-5.43,5.43,5.21,4.63,1.94,1.94,1.94
46.13,-3.43,-5.35,-3.43,-5.36,5.36,5.17,4.58,1.93,1.92,1.92
46.60,-3.38,-5.29,-3.38,-5.29,5.29,5.13,4.54,1.91,1.91,1.91
47.06,-3.33,-5.22,-3.33,-5.22,5.22,5.08,4.49,1.89,1.89,1.89
47.53,-3.28,-5.16,-3.28,-5.16,5.16,5.04,4.46,1.88,1.87,1.88
48.01,-3.24,-5.10,-3.24,-5.09,5.09,4.99,4.42,1.85,1.85,1.86
48.49,-3.19,-5.03,-3.19,-5.02,5.02,4.94,4.39,1.83,1.83,1.83
48.97,-3.14,-4.95,-3.15,-4.95,4.95,4.90,4.36,1.81,1.80,1.81
49.46,-3.10,-4.88,-3.10,-4.88,4.88,4.85,4.33,1.78,1.78,1.78
49.96,-3.06,-4.81,-3.05,-4.81,4.81,4.80,4.31,1.75,1.76,1.75
50.46,-3.00,-4.74,-3.01,-4.74,4.75,4.75,4.29,1.74,1.74,1.74
50.96,-2.96,-4.68,-2.96,-4.67,4.68,4.70,4.27,1.72,1.72,1.72
51.47,-2.92,-4.61,-2.92,-4.61,4.61,4.65,4.25,1.69,1.70,1.69
51.99,-2.87,-4.54,-2.88,-4.55,4.55,4.60,4.23,1.68,1.67,1.67
52.51,-2.83,-4.49,-2.83,-4.49,4.48,4.55,4.22,1.65,1.65,1.66
53.03,-2.79,-4.43,-2.79,-4.42,4.42,4.49,4.21,1.63,1.64,1.64
53.56,-2.74,-4.35,-2.74,-4.36,4.36,4.44,4.19,1.62,1.61,1.61
54.10,-2.69,-4.29,-2.70,-4.29,4.29,4.39,4.18,1.60,1.59,1.59
54.64,-2.66,-4.23,-2.65,-4.23,4.23,4.33,4.17,1.57,1.57,1.57
55.18,-2.61,-4.16,-2.61,-4.16,4.16,4.28,4.15,1.55,1.55,1.55
55.74,-2.56,-4.09,-2.57,-4.10,4.10,4.22,4.14,1.54,1.53,1.53
56.29,-2.52,-4.03,-2.52,-4.03,4.03,4.17,4.13,1.51,1.51,1.51
56.86,-2.48,-3.97,-2.48,-3.97,3.97,4.11,4.11,1.49,1.49,1.49
57.42,-2.43,-3.90,-2.44,-3.91,3.91,4.05,4.09,1.48,1.47,1.47
58.00,-2.39,-3.85,-2.39,-3.85,3.85,4.00,4.08,1.46,1.46,1.46
58.58,-2.35,-3.79,-2.35,-3.79,3.79,3.94,4.05,1.44,1.44,1.44
59.16,-2.30,-3.73,-2.31,-3.73,3.73,3.88,4.03,1.43,1.42,1.43
59.76,-2.27,-3.68,-2.27,-3.67,3.67,3.82,4.00,1.40,1.40,1.41
60.35,-2.22,-3.60,-2.23,-3.61,3.60,3.76,3.97,1.38,1.38,1.38
60.96,-2.19,-3.56,-2.19,-3.55,3.54,3.70,3.94,1.35,1.35,1.37
61.57,-2.14,-3.47,-2.14,-3.48,3.48,3.65,3.91,1.34,1.34,1.33
62.18,-2.10,-3.41,-2.10,-3.41,3.41,3.58,3.87,1.31,1.32,1.31
62.80,-2.05,-3.34,-2.06,-3.34,3.35,3.52,3.82,1.30,1.30,1.29
63.43,-2.02,-3.28,-2.02,-3.28,3.29,3.46,3.78,1.27,1.27,1.26
64.07,-1.98,-3.23,-1.98,-3.23,3.23,3.40,3.72,1.25,1.25,1.25
64.71,-1.94,-3.17,-1.94,-3.17,3.17,3.34,3.67,1.23,1.23,1.23
65.35,-1.90,-3.11,-1.90,-3.11,3.11,3.28,3.61,1.21,1.21,1.21
66.01,-1.86,-3.05,-1.86,-3.05,3.05,3.22,3.55,1.19,1.19,1.19
66.67,-1.82,-3.00,-1.82,-2.99,2.99,3.15,3.49,1.17,1.17,1.17
67.33,-1.77,-2.93,-1.78,-2.93,2.93,3.09,3.42,1.16,1.16,1.15
68.01,-1.74,-2.88,-1.74,-2.87,2.88,3.03,3.35,1.14,1.14,1.13
68.69,-1.70,-2.81,-1.70,-2.82,2.82,2.97,3.28,1.12,1.12,1.11
69.37,-1.67,-2.76,-1.67,-2.76,2.76,2.90,3.20,1.09,1.09,1.09
70.07,-1.63,-2.70,-1.63,-2.70,2.70,2.84,3.12,1.07,1.07,1.07
70.77,-1.59,-2.65,-1.59,-2.65,2.64,2.77,3.05,1.05,1.05,1.06
71.48,-1.55,-2.59,-1.55,-2.59,2.58,2.71,2.96,1.03,1.03,1.04
72.19,-1.52,-2.53,-1.52,-2.53,2.53,2.65,2.88,1.01,1.01,1.01
72.91,-1.48,-2.46,-1.48,-2.47,2.47,2.58,2.80,0.99,0.98,0.98
73.64,-1.45,-2.40,-1.45,-2.41,2.41,2.52,2.71,0.96,0.96,0.95
74.38,-1.42,-2.36,-1.42,-2.35,2.35,2.45,2.63,0.93,0.94,0.94
75.12,-1.38,-2.29,-1.38,-2.30,2.30,2.39,2.54,0.91,0.91,0.91
75.87,-1.35,-2.24,-1.35,-2.24,2.24,2.32,2.46,0.89,0.89,0.88
76.63,-1.32,-2.19,-1.32,-2.18,2.18,2.26,2.37,0.86,0.86,0.87
77.40,-1.29,-2.13,-1.29,-2.13,2.13,2.19,2.29,0.84,0.84,0.84
78.17,-1.26,-2.06,-1.26,-2.07,2.07,2.13,2.20,0.81,0.81,0.80
78.95,-1.23,-2.01,-1.23,-2.01,2.01,2.06,2.12,0.78,0.78,0.78
79.74,-1.20,-1.96,-1.20,-1.96,1.96,2.00,2.03,0.75,0.76,0.76
80.54,-1.17,-1.90,-1.17,-1.90,1.90,1.94,1.95,0.73,0.73,0.73
81.35,-1.13,-1.83,-1.13,-1.84,1.84,1.87,1.86,0.71,0.70,0.70
82.16,-1.10,-1.77,-1.10,-1.78,1.78,1.81,1.78,0.68,0.68,0.67
82.98,-1.08,-1.73,-1.08,-1.72,1.72,1.74,1.70,0.64,0.64,0.65
83.81,-1.05,-1.66,-1.05,-1.66,1.66,1.68,1.62,0.61,0.61,0.61
84.65,-1.03,-1.60,-1.03,-1.61,1.60,1.61,1.54,0.57,0.58,0.57
85.50,-1.00,-1.55,-1.00,-1.55,1.55,1.55,1.46,0.55,0.55,0.55
86.35,-0.97,-1.49,-0.98,-1.49,1.49,1.48,1.38,0.52,0.51,0.52
87.22,-0.95,-1.43,-0.95,-1.43,1.43,1.42,1.30,0.48,0.48,0.48
88.09,-0.92,-1.37,-0.92,-1.37,1.37,1.36,1.22,0.45,0.45,0.45
88.97,-0.89,-1.31,-0.90,-1.32,1.32,1.29,1.14,0.43,0.42,0.42
89.86,-0.87,-1.27,-0.87,-1.26,1.26,1.23,1.07,0.39,0.39,0.40
90.76,-0.85,-1.20,-0.85,-1.20,1.20,1.17,0.99,0.35,0.36,0.35
91.66,-0.82,-1.14,-0.83,-1.14,1.15,1.10,0.92,0.32,0.32,0.32
92.58,-0.80,-1.08,-0.80,-1.09,1.09,1.04,0.85,0.29,0.29,0.28
93.51,-0.78,-1.04,-0.78,-1.03,1.03,0.98,0.77,0.25,0.25,0.26
94.44,-0.75,-0.97,-0.75,-0.97,0.97,0.92,0.70,0.22,0.22,0.22
95.39,-0.73,-0.91,-0.73,-0.91,0.91,0.85,0.63,0.18,0.18,0.18
96.34,-0.71,-0.85,-0.71,-0.85,0.85,0.79,0.56,0.14,0.14,0.14
97.30,-0.69,-0.79,-0.69,-0.79,0.79,0.73,0.49,0.10,0.10,0.10
98.28,-0.67,-0.73,-0.67,-0.73,0.73,0.67,0.43,0.06,0.06,0.06
99.26,-0.65,-0.67,-0.65,-0.67,0.67,0.61,0.36,0.02,0.02,0.02
100.25,-0.63,-0.61,-0.63,-0.62,0.61,0.55,0.29,-0.02,-0.02,-0.02
101.25,-0.62,-0.56,-0.62,-0.56,0.56,0.49,0.23,-0.07,-0.06,-0.06
102.27,-0.60,-0.50,-0.60,-0.50,0.50,0.44,0.16,-0.10,-0.11,-0.10
103.29,-0.59,-0.43,-0.59,-0.44,0.44,0.38,0.10,-0.15,-0.15,-0.16
104.32,-0.57,-0.38,-0.57,-0.38,0.38,0.32,0.04,-0.19,-0.19,-0.19
105.37,-0.55,-0.31,-0.56,-0.32,0.33,0.26,-0.03,-0.23,-0.23,-0.24
106.42,-0.55,-0.28,-0.54,-0.27,0.27,0.21,-0.09,-0.28,-0.28,-0.28
107.48,-0.53,-0.22,-0.53,-0.21,0.21,0.15,-0.14,-0.32,-0.32,-0.31
108.56,-0.52,-0.15,-0.52,-0.15,0.15,0.10,-0.20,-0.37,-0.37,-0.37
109.64,-0.50,-0.09,-0.50,-0.09,0.09,0.04,-0.26,-0.41,-0.41,-0.41
110.74,-0.49,-0.03,-0.49,-0.03,0.03,-0.01,-0.31,-0.46,-0.46,-0.46
111.85,-0.48,0.02,-0.48,0.03,-0.03,-0.06,-0.36,-0.51,-0.51,-0.50
112.97,-0.47,0.10,-0.47,0.09,-0.09,-0.12,-0.41,-0.56,-0.56,-0.57
114.10,-0.47,0.14,-0.46,0.15,-0.15,-0.17,-0.46,-0.62,-0.61,-0.61
115.24,-0.45,0.21,-0.45,0.21,-0.20,-0.22,-0.51,-0.66,-0.66,-0.66
116.39,-0.44,0.26,-0.45,0.26,-0.26,-0.27,-0.55,-0.70,-0.71,-0.70
117.55,-0.44,0.31,-0.44,0.32,-0.31,-0.32,-0.59,-0.75,-0.75,-0.75
118.73,-0.43,0.37,-0.43,0.37,-0.37,-0.37,-0.63,-0.80,-0.80,-0.80
119.92,-0.42,0.42,-0.42,0.42,-0.41,-0.41,-0.67,-0.84,-0.84,-0.84
121.12,-0.42,0.46,-0.42,0.47,-0.46,-0.46,-0.70,-0.88,-0.88,-0.88
122.33,-0.41,0.52,-0.41,0.51,-0.51,-0.50,-0.73,-0.92,-0.92,-0.93
123.55,-0.41,0.56,-0.41,0.56,-0.56,-0.55,-0.76,-0.97,-0.97,-0.97
124.79,-0.41,0.59,-0.41,0.60,-0.60,-0.59,-0.79,-1.02,-1.01,-1.00
126.03,-0.40,0.65,-0.40,0.64,-0.65,-0.63,-0.81,-1.05,-1.06,-1.05
127.29,-0.40,0.69,-0.40,0.69,-0.70,-0.68,-0.83,-1.10,-1.09,-1.09
128.57,-0.39,0.74,-0.39,0.75,-0.74,-0.72,-0.85,-1.13,-1.13,-1.13
129.85,-0.38,0.80,-0.38,0.79,-0.78,-0.76,-0.87,-1.16,-1.17,-1.18
131.15,-0.38,0.83,-0.38,0.83,-0.82,-0.80,-0.88,-1.21,-1.21,-1.21
132.46,-0.38,0.86,-0.38,0.87,-0.86,-0.83,-0.89,-1.24,-1.24,-1.24
133.79,-0.38,0.90,-0.38,0.90,-0.90,-0.87,-0.90,-1.28,-1.28,-1.28
135.12,-0.38,0.94,-0.38,0.93,-0.93,-0.90,-0.91,-1.31,-1.31,-1.32
136.48,-0.38,0.96,-0.38,0.96,-0.96,-0.94,-0.92,-1.34,-1.34,-1.34
137.84,-0.38,0.99,-0.38,0.99,-0.99,-0.97,-0.92,-1.37,-1.37,-1.37
139.22,-0.38,1.02,-0.38,1.02,-1.02,-1.00,-0.92,-1.40,-1.40,-1.40
140.61,-0.38,1.05,-0.38,1.04,-1.04,-1.03,-0.93,-1.42,-1.42,-1.43
142.02,-0.37,1.07,-0.37,1.07,-1.07,-1.06,-0.93,-1.44,-1.44,-1.44
143.44,-0.37,1.09,-0.37,1.09,-1.09,-1.09,-0.92,-1.46,-1.46,-1.46
144.87,-0.37,1.11,-0.37,1.11,-1.11,-1.12,-0.92,-1.48,-1.48,-1.48
146.32,-0.37,1.13,-0.37,1.13,-1.13,-1.15,-0.92,-1.50,-1.50,-1.50
147.78,-0.37,1.14,-0.37,1.14,-1.15,-1.17,-0.92,-1.52,-1.52,-1.51
149.26,-0.37,1.16,-0.37,1.16,-1.16,-1.20,-0.91,-1.53,-1.54,-1.53
150.75,-0.38,1.18,-0.38,1.18,-1.18,-1.22,-0.91,-1.56,-1.56,-1.56
152.26,-0.38,1.20,-0.38,1.20,-1.19,-1.24,-0.91,-1.57,-1.57,-1.58
153.78,-0.38,1.21,-0.38,1.21,-1.21,-1.26,-0.90,-1.59,-1.59,-1.59
155.32,-0.39,1.23,-0.39,1.22,-1.22,-1.28,-0.90,-1.61,-1.61,-1.62
156.88,-0.40,1.23,-0.40,1.23,-1.24,-1.30,-0.89,-1.64,-1.64,-1.63
158.44,-0.41,1.24,-0.41,1.24,-1.25,-1.31,-0.89,-1.66,-1.66,-1.65
160.03,-0.41,1.26,-0.42,1.26,-1.26,-1.33,-0.89,-1.67,-1.68,-1.67
161.63,-0.42,1.28,-0.42,1.28,-1.27,-1.34,-0.88,-1.70,-1.70,-1.70
163.24,-0.43,1.29,-0.43,1.29,-1.29,-1.36,-0.88,-1.72,-1.71,-1.72
164.88,-0.43,1.30,-0.43,1.30,-1.30,-1.37,-0.88,-1.73,-1.73,-1.73
166.53,-0.44,1.31,-0.44,1.31,-1.31,-1.38,-0.88,-1.75,-1.75,-1.75
168.19,-0.46,1.32,-0.46,1.32,-1.32,-1.39,-0.88,-1.78,-1.78,-1.78
169.87,-0.47,1.33,-0.47,1.33,-1.33,-1.39,-0.88,-1.81,-1.80,-1.80
171.57,-0.48,1.35,-0.48,1.34,-1.35,-1.40,-0.88,-1.83,-1.83,-1.83
173.29,-0.49,1.35,-0.49,1.36,-1.36,-1.41,-0.88,-1.85,-1.85,-1.84
175.02,-0.50,1.37,-0.50,1.37,-1.37,-1.41,-0.88,-1.88,-1.88,-1.87
176.77,-0.51,1.40,-0.51,1.39,-1.39,-1.42,-0.89,-1.90,-1.90,-1.91
178.54,-0.53,1.41,-0.53,1.41,-1.41,-1.42,-0.89,-1.94,-1.93,-1.94
180.32,-0.54,1.43,-0.54,1.42,-1.42,-1.42,-0.89,-1.96,-1.97,-1.97
182.13,-0.56,1.43,-0.56,1.44,-1.44,-1.42,-0.90,-2.00,-2.00,-1.99
183.95,-0.58,1.46,-0.58,1.45,-1.45,-1.42,-0.91,-2.03,-2.03,-2.04
185.79,-0.59,1.47,-0.59,1.47,-1.47,-1.42,-0.91,-2.06,-2.06,-2.06
187.65,-0.61,1.48,-0.61,1.48,-1.48,-1.41,-0.92,-2.09,-2.09,-2.09
189.52,-0.63,1.49,-0.63,1.49,-1.49,-1.41,-0.93,-2.12,-2.12,-2.12
191.42,-0.65,1.50,-0.65,1.50,-1.50,-1.40,-0.94,-2.15,-2.15,-2.15
193.33,-0.67,1.50,-0.67,1.50,-1.50,-1.40,-0.95,-2.18,-2.18,-2.17
195.27,-0.69,1.51,-0.69,1.51,-1.51,-1.39,-0.96,-2.20,-2.20,-2.20
197.22,-0.72,1.50,-0.72,1.51,-1.51,-1.38,-0.97,-2.23,-2.23,-2.22
199.19,-0.74,1.52,-0.74,1.51,-1.51,-1.37,-0.98,-2.25,-2.25,-2.26
201.18,-0.76,1.51,-0.77,1.51,-1.51,-1.36,-0.99,-2.27,-2.28,-2.28
203.19,-0.79,1.50,-0.79,1.51,-1.51,-1.35,-1.00,-2.30,-2.30,-2.30
205.23,-0.82,1.50,-0.82,1.50,-1.50,-1.34,-1.02,-2.32,-2.32,-2.33
207.28,-0.84,1.48,-0.84,1.49,-1.50,-1.33,-1.03,-2.34,-2.34,-2.32
209.35,-0.87,1.48,-0.87,1.49,-1.49,-1.31,-1.04,-2.36,-2.36,-2.35
211.44,-0.89,1.49,-0.89,1.48,-1.48,-1.30,-1.05,-2.37,-2.37,-2.38
213.56,-0.92,1.47,-0.92,1.47,-1.46,-1.28,-1.07,-2.39,-2.39,-2.39
215.69,-0.95,1.44,-0.95,1.45,-1.45,-1.27,-1.08,-2.40,-2.40,-2.39
217.85,-0.98,1.43,-0.98,1.43,-1.43,-1.25,-1.09,-2.41,-2.41,-2.41
220.03,-1.00,1.41,-1.00,1.41,-1.41,-1.23,-1.10,-2.41,-2.41,-2.42
222.23,-1.03,1.39,-1.03,1.39,-1.38,-1.21,-1.11,-2.41,-2.41,-2.42
224.45,-1.06,1.35,-1.06,1.36,-1.35,-1.19,-1.12,-2.41,-2.41,-2.41
226.70,-1.09,1.32,-1.09,1.32,-1.32,-1.17,-1.13,-2.41,-2.41,-2.41
228.96,-1.11,1.29,-1.12,1.29,-1.29,-1.15,-1.13,-2.40,-2.40,-2.40
231.25,-1.14,1.25,-1.14,1.25,-1.26,-1.13,-1.14,-2.40,-2.40,-2.39
233.57,-1.17,1.22,-1.17,1.22,-1.22,-1.11,-1.14,-2.39,-2.39,-2.39
235.90,-1.19,1.18,-1.19,1.18,-1.18,-1.09,-1.15,-2.38,-2.38,-2.37
238.26,-1.21,1.16,-1.21,1.15,-1.15,-1.06,-1.15,-2.36,-2.36,-2.37
240.64,-1.23,1.11,-1.23,1.12,-1.11,-1.04,-1.15,-2.34,-2.34,-2.34
243.05,-1.25,1.08,-1.25,1.07,-1.08,-1.01,-1.15,-2.33,-2.33,-2.33
245.48,-1.27,1.03,-1.27,1.04,-1.04,-0.99,-1.14,-2.31,-2.31,-2.30
247.93,-1.28,1.00,-1.28,1.01,-1.00,-0.96,-1.14,-2.28,-2.28,-2.28
250.41,-1.29,0.98,-1.30,0.97,-0.97,-0.94,-1.13,-2.26,-2.26,-2.27
252.92,-1.31,0.93,-1.31,0.93,-0.93,-0.91,-1.12,-2.24,-2.24,-2.24
255.45,-1.33,0.88,-1.33,0.89,-0.89,-0.88,-1.11,-2.23,-2.22,-2.21
258.00,-1.34,0.86,-1.34,0.85,-0.86,-0.86,-1.09,-2.20,-2.20,-2.20
260.58,-1.34,0.83,-1.35,0.82,-0.82,-0.83,-1.08,-2.16,-2.17,-2.17
263.19,-1.36,0.78,-1.36,0.79,-0.78,-0.80,-1.06,-2.14,-2.14,-2.15
265.82,-1.37,0.76,-1.37,0.75,-0.75,-0.77,-1.04,-2.12,-2.12,-2.13
268.48,-1.39,0.70,-1.39,0.71,-0.71,-0.74,-1.02,-2.10,-2.10,-2.09
271.16,-1.40,0.67,-1.40,0.67,-0.67,-0.71,-0.99,-2.07,-2.07,-2.07
273.87,-1.42,0.63,-1.42,0.63,-0.63,-0.69,-0.97,-2.05,-2.05,-2.05
276.61,-1.43,0.59,-1.43,0.59,-0.59,-0.66,-0.94,-2.03,-2.03,-2.02
279.38,-1.44,0.57,-1.45,0.56,-0.56,-0.63,-0.92,-2.00,-2.00,-2.01
282.17,-1.46,0.52,-1.46,0.52,-0.52,-0.60,-0.89,-1.98,-1.98,-1.98
284.99,-1.47,0.48,-1.47,0.48,-0.48,-0.57,-0.86,-1.95,-1.95,-1.95
287.84,-1.48,0.44,-1.48,0.44,-0.44,-0.53,-0.83,-1.93,-1.93,-1.92
290.72,-1.49,0.41,-1.49,0.41,-0.41,-0.50,-0.80,-1.90,-1.90,-1.90
293.63,-1.50,0.37,-1.50,0.37,-0.37,-0.47,-0.76,-1.87,-1.87,-1.87
296.57,-1.51,0.33,-1.51,0.34,-0.34,-0.44,-0.73,-1.85,-1.84,-1.84
299.53,-1.51,0.30,-1.52,0.30,-0.30,-0.41,-0.70,-1.81,-1.82,-1.81
302.53,-1.52,0.28,-1.52,0.27,-0.26,-0.38,-0.66,-1.78,-1.78,-1.80
305.55,-1.53,0.22,-1.52,0.23,-0.23,-0.35,-0.63,-1.76,-1.75,-1.75
308.61,-1.52,0.20,-1.53,0.19,-0.19,-0.32,-0.59,-1.71,-1.72,-1.72
311.69,-1.53,0.15,-1.53,0.15,-0.15,-0.29,-0.56,-1.68,-1.68,-1.68
314.81,-1.53,0.10,-1.53,0.11,-0.12,-0.26,-0.52,-1.65,-1.65,-1.64
317.96,-1.54,0.08,-1.54,0.08,-0.08,-0.23,-0.49,-1.62,-1.62,-1.62
321.14,-1.54,0.05,-1.54,0.05,-0.05,-0.20,-0.45,-1.59,-1.59,-1.59
324.35,-1.54,0.02,-1.54,0.02,-0.02,-0.17,-0.42,-1.56,-1.56,-1.56
327.59,-1.55,-0.02,-1.55,-0.02,0.02,-0.14,-0.38,-1.53,-1.53,-1.53
330.87,-1.55,-0.05,-1.55,-0.04,0.05,-0.11,-0.35,-1.50,-1.51,-1.50
334.18,-1.56,-0.08,-1.56,-0.07,0.08,-0.08,-0.31,-1.49,-1.48,-1.49
337.52,-1.56,-0.09,-1.56,-0.10,0.10,-0.05,-0.27,-1.46,-1.46,-1.47
340.90,-1.57,-0.13,-1.57,-0.13,0.13,-0.02,-0.24,-1.44,-1.44,-1.44
344.30,-1.58,-0.16,-1.58,-0.16,0.16,0.01,-0.20,-1.42,-1.42,-1.42
347.75,-1.59,-0.19,-1.59,-0.19,0.19,0.04,-0.17,-1.40,-1.40,-1.40
351.23,-1.59,-0.21,-1.59,-0.21,0.21,0.07,-0.13,-1.38,-1.38,-1.38
354.74,-1.60,-0.24,-1.60,-0.24,0.23,0.10,-0.10,-1.37,-1.37,-1.36
358.28,-1.60,-0.26,-1.60,-0.26,0.25,0.13,-0.06,-1.35,-1.35,-1.34
361.87,-1.60,-0.27,-1.60,-0.27,0.27,0.15,-0.03,-1.33,-1.33,-1.33
365.49,-1.59,-0.28,-1.59,-0.29,0.28,0.18,0.01,-1.31,-1.31,-1.31
369.14,-1.59,-0.29,-1.59,-0.29,0.29,0.21,0.04,-1.30,-1.29,-1.30
372.83,-1.58,-0.30,-1.58,-0.30,0.30,0.23,0.08,-1.28,-1.28,-1.28
376.56,-1.57,-0.30,-1.57,-0.31,0.31,0.26,0.11,-1.26,-1.26,-1.27
380.33,-1.56,-0.32,-1.56,-0.32,0.32,0.28,0.14,-1.24,-1.24,-1.24
384.13,-1.55,-0.33,-1.55,-0.33,0.33,0.31,0.18,-1.22,-1.23,-1.22
387.97,-1.54,-0.34,-1.54,-0.34,0.33,0.33,0.21,-1.21,-1.21,-1.20
391.85,-1.53,-0.34,-1.53,-0.34,0.34,0.35,0.25,-1.19,-1.19,-1.19
395.77,-1.51,-0.35,-1.51,-0.34,0.35,0.38,0.28,-1.16,-1.16,-1.16
399.73,-1.49,-0.35,-1.50,-0.35,0.35,0.40,0.31,-1.14,-1.14,-1.15
403.72,-1.48,-0.36,-1.48,-0.36,0.36,0.42,0.35,-1.12,-1.12,-1.13
407.76,-1.47,-0.36,-1.47,-0.36,0.36,0.44,0.38,-1.11,-1.11,-1.11
411.84,-1.45,-0.37,-1.45,-0.37,0.36,0.46,0.41,-1.09,-1.08,-1.08
415.96,-1.42,-0.36,-1.43,-0.37,0.36,0.48,0.44,-1.06,-1.06,-1.06
420.12,-1.40,-0.36,-1.40,-0.36,0.36,0.50,0.47,-1.04,-1.04,-1.04
424.32,-1.38,-0.36,-1.38,-0.36,0.36,0.51,0.50,-1.02,-1.02,-1.02
428.56,-1.36,-0.36,-1.36,-0.36,0.36,0.53,0.53,-1.00,-1.00,-1.00
432.85,-1.33,-0.35,-1.33,-0.35,0.35,0.55,0.56,-0.98,-0.98,-0.98
437.18,-1.30,-0.35,-1.30,-0.35,0.35,0.56,0.59,-0.95,-0.95,-0.95
441.55,-1.27,-0.35,-1.27,-0.35,0.35,0.58,0.62,-0.92,-0.92,-0.92
445.96,-1.25,-0.35,-1.25,-0.35,0.36,0.59,0.64,-0.89,-0.89,-0.90
450.42,-1.23,-0.35,-1.23,-0.36,0.36,0.60,0.67,-0.87,-0.87,-0.88
454.93,-1.22,-0.38,-1.22,-0.37,0.37,0.61,0.69,-0.85,-0.85,-0.84
459.48,-1.21,-0.39,-1.21,-0.39,0.39,0.63,0.71,-0.82,-0.82,-0.82
