frequency,raw,error,smoothed,error_smoothed,equalization,parametric_eq,fixed_band_eq,equalized_raw,equalized_smoothed,target
20.00,-9.19,-12.69,-9.19,-12.69,6.00,6.37,2.75,-3.19,-3.19,3.50
20.20,-9.12,-12.61,-9.13,-12.62,6.00,6.36,2.83,-3.12,-3.13,3.49
20.40,-9.07,-12.56,-9.06,-12.56,6.00,6.36,2.91,-3.07,-3.06,3.49
20.61,-9.00,-12.48,-9.00,-12.49,6.00,6.35,2.99,-3.00,-3.00,3.48
20.81,-8.93,-12.41,-8.94,-12.42,6.00,6.34,3.08,-2.93,-2.94,3.48
21.02,-8.88,-12.36,-8.87,-12.35,6.00,6.34,3.16,-2.88,-2.87,3.48
21.23,-8.81,-12.27,-8.81,-12.27,6.00,6.33,3.25,-2.81,-2.81,3.46
21.44,-8.74,-12.18,-8.75,-12.19,6.00,6.32,3.35,-2.74,-2.75,3.44
21.66,-8.68,-12.10,-8.68,-12.10,6.00,6.32,3.44,-2.68,-2.68,3.42
21.87,-8.62,-12.01,-8.61,-12.01,6.00,6.31,3.54,-2.62,-2.61,3.39
22.09,-8.54,-11.91,-8.55,-11.92,6.00,6.30,3.64,-2.54,-2.55,3.37
22.31,-8.47,-11.82,-8.47,-11.82,6.00,6.29,3.75,-2.47,-2.47,3.35
22.54,-8.41,-11.73,-8.40,-11.72,6.00,6.29,3.85,-2.41,-2.40,3.32
22.76,-8.33,-11.62,-8.34,-11.62,6.00,6.28,3.96,-2.33,-2.34,3.29
22.99,-8.26,-11.52,-8.27,-11.52,6.00,6.27,4.07,-2.26,-2.27,3.26
23.22,-8.20,-11.43,-8.19,-11.42,6.00,6.26,4.19,-2.20,-2.19,3.23
23.45,-8.12,-11.33,-8.12,-11.33,6.00,6.25,4.31,-2.12,-2.12,3.21
23.69,-8.05,-11.24,-8.05,-11.24,6.00,6.25,4.43,-2.05,-2.05,3.19
23.92,-7.98,-11.15,-7.98,-11.15,6.00,6.24,4.55,-1.98,-1.98,3.17
24.16,-7.90,-11.06,-7.91,-11.06,6.00,6.23,4.67,-1.90,-1.91,3.16
24.40,-7.84,-10.97,-7.83,-10.97,6.00,6.22,4.80,-1.84,-1.83,3.13
24.65,-7.76,-10.88,-7.76,-10.88,6.00,6.21,4.93,-1.76,-1.76,3.11
24.89,-7.69,-10.78,-7.69,-10.78,6.00,6.20,5.06,-1.69,-1.69,3.09
25.14,-7.61,-10.68,-7.61,-10.68,6.00,6.19,5.19,-1.61,-1.61,3.07
25.39,-7.53,-10.58,-7.53,-10.59,6.00,6.18,5.32,-1.53,-1.53,3.05
25.65,-7.45,-10.49,-7.45,-10.49,6.00,6.17,5.46,-1.45,-1.45,3.04
25.91,-7.38,-10.39,-7.38,-10.39,6.00,6.16,5.59,-1.38,-1.38,3.01
26.16,-7.30,-10.30,-7.30,-10.30,6.00,6.15,5.73,-1.30,-1.30,3.00
26.43,-7.22,-10.20,-7.22,-10.20,6.00,6.14,5.86,-1.22,-1.22,2.98
26.69,-7.14,-10.11,-7.14,-10.11,6.00,6.13,5.99,-1.14,-1.14,2.97
26.96,-7.06,-10.01,-7.06,-10.01,6.00,6.12,6.12,-1.06,-1.06,2.95
27.23,-6.98,-9.92,-6.98,-9.92,6.00,6.11,6.25,-0.98,-0.98,2.94
27.50,-6.90,-9.82,-6.90,-9.82,6.00,6.09,6.38,-0.90,-0.90,2.92
27.77,-6.81,-9.71,-6.81,-9.71,6.00,6.08,6.50,-0.81,-0.81,2.90
28.05,-6.73,-9.62,-6.73,-9.61,6.00,6.07,6.62,-0.73,-0.73,2.88
28.33,-6.65,-9.50,-6.65,-9.51,6.00,6.06,6.72,-0.65,-0.65,2.85
28.62,-6.56,-9.41,-6.57,-9.41,6.00,6.04,6.83,-0.56,-0.57,2.84
28.90,-6.48,-9.32,-6.48,-9.32,6.00,6.03,6.93,-0.48,-0.48,2.84
29.19,-6.41,-9.23,-6.40,-9.23,6.00,6.02,7.02,-0.41,-0.40,2.82
29.48,-6.32,-9.14,-6.32,-9.14,6.00,6.01,7.10,-0.32,-0.32,2.82
29.78,-6.24,-9.04,-6.24,-9.04,6.00,5.99,7.17,-0.24,-0.24,2.80
30.08,-6.16,-8.95,-6.16,-8.95,6.00,5.98,7.23,-0.16,-0.16,2.79
30.38,-6.08,-8.85,-6.08,-8.85,6.00,5.96,7.28,-0.08,-0.08,2.77
30.68,-6.00,-8.75,-6.00,-8.75,6.00,5.95,7.32,-0.00,-0.00,2.74
30.99,-5.92,-8.65,-5.92,-8.65,6.00,5.93,7.35,0.08,0.08,2.72
31.30,-5.85,-8.56,-5.85,-8.56,6.00,5.92,7.37,0.15,0.15,2.71
31.61,-5.78,-8.48,-5.78,-8.48,6.00,5.90,7.37,0.22,0.22,2.70
31.93,-5.71,-8.38,-5.71,-8.39,6.00,5.89,7.36,0.29,0.29,2.67
32.24,-5.65,-8.30,-5.65,-8.30,6.00,5.87,7.35,0.35,0.35,2.65
32.57,-5.57,-8.20,-5.58,-8.20,6.00,5.86,7.32,0.43,0.42,2.63
32.89,-5.51,-8.12,-5.51,-8.11,6.00,5.84,7.28,0.49,0.49,2.61
33.22,-5.43,-8.01,-5.44,-8.02,6.00,5.82,7.23,0.57,0.56,2.58
33.55,-5.37,-7.94,-5.37,-7.94,6.00,5.80,7.17,0.63,0.63,2.57
33.89,-5.30,-7.84,-5.30,-7.84,6.00,5.79,7.10,0.70,0.70,2.54
34.23,-5.23,-7.76,-5.23,-7.75,6.00,5.77,7.03,0.77,0.77,2.53
34.57,-5.16,-7.66,-5.16,-7.66,6.00,5.75,6.95,0.84,0.84,2.49
34.92,-5.10,-7.57,-5.10,-7.58,6.00,5.73,6.86,0.90,0.90,2.47
35.27,-5.03,-7.49,-5.03,-7.49,6.00,5.71,6.77,0.97,0.97,2.46
35.62,-4.97,-7.41,-4.97,-7.40,6.00,5.69,6.67,1.03,1.03,2.44
35.97,-4.90,-7.31,-4.90,-7.32,6.00,5.67,6.57,1.10,1.10,2.41
36.33,-4.83,-7.22,-4.84,-7.23,6.00,5.65,6.47,1.17,1.16,2.39
36.70,-4.78,-7.15,-4.77,-7.14,6.00,5.63,6.37,1.22,1.23,2.37
37.06,-4.71,-7.05,-4.71,-7.06,6.00,5.61,6.27,1.29,1.29,2.34
37.43,-4.64,-6.97,-4.64,-6.97,6.00,5.59,6.16,1.36,1.36,2.33
37.81,-4.58,-6.88,-4.58,-6.88,6.00,5.57,6.06,1.42,1.42,2.30
38.19,-4.51,-6.79,-4.51,-6.80,6.00,5.54,5.95,1.49,1.49,2.28
38.57,-4.45,-6.72,-4.45,-6.72,6.00,5.52,5.85,1.55,1.55,2.27
38.95,-4.39,-6.63,-4.39,-6.63,6.00,5.50,5.75,1.61,1.61,2.24
39.34,-4.33,-6.55,-4.33,-6.55,6.00,5.47,5.65,1.67,1.67,2.22
39.74,-4.27,-6.46,-4.27,-6.46,6.00,5.45,5.55,1.73,1.73,2.19
40.14,-4.21,-6.39,-4.21,-6.38,6.01,5.42,5.46,1.80,1.80,2.17
40.54,-4.15,-6.30,-4.15,-6.30,6.01,5.40,5.37,1.86,1.86,2.15
40.94,-4.09,-6.23,-4.09,-6.23,6.01,5.37,5.28,1.92,1.92,2.14
41.35,-4.04,-6.15,-4.03,-6.15,6.00,5.35,5.19,1.96,1.97,2.11
41.76,-3.97,-6.07,-3.98,-6.07,5.98,5.32,5.11,2.01,2.01,2.10
42.18,-3.92,-6.00,-3.92,-6.00,5.95,5.29,5.03,2.03,2.03,2.08
42.60,-3.87,-5.93,-3.87,-5.93,5.91,5.26,4.96,2.04,2.04,2.06
43.03,-3.81,-5.87,-3.81,-5.86,5.85,5.23,4.88,2.04,2.04,2.06
43.46,-3.75,-5.78,-3.75,-5.78,5.79,5.21,4.81,2.04,2.04,2.03
43.90,-3.69,-5.69,-3.69,-5.70,5.71,5.18,4.75,2.02,2.02,2.00
44.33,-3.64,-5.61,-3.64,-5.61,5.63,5.15,4.69,1.99,1.99,1.97
44.78,-3.59,-5.55,-3.59,-5.54,5.55,5.11,4.63,1.96,1.96,1.96
45.23,-3.54,-5.47,-3.54,-5.47,5.47,5.08,4.58,1.93,1.93,1.93
45.68,-3.49,-5.41,-3.49,-5.40,5.40,5.05,4.53,1.91,1.91,1.92
46.13,-3.43,-5.32,-3.43,-5.33,5.33,5.02,4.48,1.90,1.90,1.89
46.60,-3.38,-5.26,-3.38,-5.26,5.26,4.98,4.44,1.88,1.88,1.88
47.06,-3.33,-5.20,-3.33,-5.20,5.20,4.95,4.40,1.87,1.87,1.87
47.53,-3.28,-5.13,-3.28,-5.14,5.13,4.92,4.36,1.85,1.85,1.85
48.01,-3.24,-5.08,-3.24,-5.07,5.06,4.88,4.32,1.82,1.83,1.83
48.49,-3.19,-5.00,-3.19,-5.00,4.99,4.84,4.29,1.80,1.80,1.81
48.97,-3.14,-4.92,-3.15,-4.93,4.92,4.81,4.26,1.78,1.78,1.78
49.46,-3.10,-4.85,-3.10,-4.85,4.85,4.77,4.24,1.75,1.76,1.75
49.96,-3.06,-4.79,-3.05,-4.78,4.79,4.73,4.22,1.72,1.73,1.73
50.46,-3.00,-4.71,-3.01,-4.71,4.72,4.69,4.19,1.72,1.71,1.71
50.96,-2.96,-4.65,-2.96,-4.65,4.65,4.65,4.18,1.69,1.69,1.69
51.47,-2.92,-4.58,-2.92,-4.58,4.58,4.61,4.16,1.66,1.67,1.66
51.99,-2.87,-4.51,-2.88,-4.52,4.52,4.57,4.14,1.65,1.64,1.64
52.51,-2.83,-4.46,-2.83,-4.46,4.46,4.53,4.13,1.62,1.62,1.63
53.03,-2.79,-4.40,-2.79,-4.39,4.39,4.49,4.12,1.60,1.61,1.61
53.56,-2.74,-4.32,-2.74,-4.33,4.33,4.44,4.10,1.59,1.58,1.58
54.10,-2.69,-4.25,-2.70,-4.26,4.26,4.40,4.09,1.57,1.56,1.56
54.64,-2.66,-4.20,-2.65,-4.20,4.20,4.36,4.08,1.54,1.54,1.54
55.18,-2.61,-4.13,-2.61,-4.13,4.13,4.31,4.07,1.52,1.52,1.52
55.74,-2.56,-4.06,-2.57,-4.07,4.07,4.26,4.06,1.50,1.50,1.50
56.29,-2.52,-4.00,-2.52,-4.00,4.00,4.22,4.04,1.48,1.48,1.48
56.86,-2.48,-3.94,-2.48,-3.93,3.94,4.17,4.03,1.46,1.46,1.46
57.42,-2.43,-3.87,-2.44,-3.87,3.88,4.12,4.01,1.45,1.44,1.44
58.00,-2.39,-3.81,-2.39,-3.81,3.82,4.07,3.99,1.43,1.43,1.42
58.58,-2.35,-3.76,-2.35,-3.76,3.76,4.02,3.97,1.41,1.41,1.41
59.16,-2.30,-3.70,-2.31,-3.70,3.70,3.97,3.95,1.40,1.39,1.40
59.76,-2.27,-3.64,-2.27,-3.64,3.63,3.92,3.92,1.36,1.37,1.37
60.35,-2.22,-3.57,-2.23,-3.58,3.57,3.86,3.90,1.35,1.35,1.35
60.96,-2.19,-3.53,-2.19,-3.51,3.51,3.81,3.86,1.32,1.32,1.33
61.57,-2.14,-3.44,-2.14,-3.44,3.44,3.75,3.83,1.30,1.30,1.30
62.18,-2.10,-3.37,-2.10,-3.38,3.38,3.70,3.79,1.28,1.28,1.27
62.80,-2.05,-3.31,-2.06,-3.31,3.32,3.64,3.75,1.27,1.26,1.26
63.43,-2.02,-3.25,-2.02,-3.25,3.26,3.59,3.70,1.23,1.24,1.23
64.07,-1.98,-3.19,-1.98,-3.19,3.19,3.53,3.66,1.21,1.21,1.21
64.71,-1.94,-3.14,-1.94,-3.14,3.13,3.47,3.60,1.19,1.19,1.20
65.35,-1.90,-3.08,-1.90,-3.08,3.07,3.41,3.55,1.17,1.17,1.18
66.01,-1.86,-3.02,-1.86,-3.02,3.02,3.35,3.49,1.15,1.16,1.16
66.67,-1.82,-2.96,-1.82,-2.96,2.96,3.29,3.42,1.14,1.14,1.14
67.33,-1.77,-2.89,-1.78,-2.90,2.90,3.23,3.36,1.13,1.12,1.12
68.01,-1.74,-2.84,-1.74,-2.84,2.84,3.16,3.29,1.10,1.10,1.10
68.69,-1.70,-2.78,-1.70,-2.78,2.78,3.10,3.22,1.08,1.08,1.08
69.37,-1.67,-2.73,-1.67,-2.73,2.73,3.04,3.15,1.06,1.06,1.06
70.07,-1.63,-2.67,-1.63,-2.67,2.67,2.97,3.07,1.04,1.04,1.04
70.77,-1.59,-2.62,-1.59,-2.61,2.61,2.91,2.99,1.02,1.02,1.02
71.48,-1.55,-2.55,-1.55,-2.55,2.55,2.84,2.91,1.00,1.00,1.00
72.19,-1.52,-2.50,-1.52,-2.49,2.49,2.77,2.83,0.97,0.98,0.98
72.91,-1.48,-2.43,-1.48,-2.43,2.44,2.70,2.75,0.95,0.95,0.94
73.64,-1.45,-2.37,-1.45,-2.37,2.38,2.64,2.67,0.93,0.93,0.92
74.38,-1.42,-2.33,-1.42,-2.32,2.32,2.57,2.58,0.90,0.90,0.90
75.12,-1.38,-2.26,-1.38,-2.26,2.26,2.50,2.50,0.88,0.88,0.88
75.87,-1.35,-2.20,-1.35,-2.21,2.21,2.43,2.42,0.86,0.86,0.85
76.63,-1.32,-2.16,-1.32,-2.15,2.15,2.36,2.33,0.83,0.83,0.84
77.40,-1.29,-2.10,-1.29,-2.10,2.10,2.29,2.25,0.80,0.81,0.81
78.17,-1.26,-2.03,-1.26,-2.04,2.04,2.22,2.16,0.78,0.78,0.77
78.95,-1.23,-1.98,-1.23,-1.98,1.98,2.15,2.08,0.75,0.75,0.75
79.74,-1.20,-1.93,-1.20,-1.93,1.93,2.07,2.00,0.72,0.73,0.73
80.54,-1.17,-1.87,-1.17,-1.87,1.87,2.00,1.91,0.70,0.70,0.70
81.35,-1.13,-1.80,-1.13,-1.81,1.81,1.93,1.83,0.68,0.68,0.67
82.16,-1.10,-1.74,-1.10,-1.75,1.75,1.86,1.75,0.65,0.65,0.64
82.98,-1.08,-1.70,-1.08,-1.69,1.69,1.78,1.67,0.61,0.62,0.62
83.81,-1.05,-1.63,-1.05,-1.64,1.64,1.71,1.59,0.59,0.58,0.58
84.65,-1.03,-1.58,-1.03,-1.58,1.58,1.64,1.51,0.55,0.55,0.55
85.50,-1.00,-1.53,-1.00,-1.52,1.52,1.56,1.43,0.52,0.52,0.52
86.35,-0.97,-1.46,-0.98,-1.47,1.46,1.49,1.35,0.49,0.49,0.49
87.22,-0.95,-1.41,-0.95,-1.41,1.41,1.42,1.28,0.46,0.46,0.46
88.09,-0.92,-1.34,-0.92,-1.35,1.35,1.35,1.20,0.43,0.43,0.42
88.97,-0.89,-1.29,-0.90,-1.29,1.29,1.27,1.12,0.40,0.40,0.40
89.86,-0.87,-1.25,-0.87,-1.24,1.24,1.20,1.05,0.37,0.37,0.37
90.76,-0.85,-1.18,-0.85,-1.18,1.18,1.13,0.98,0.33,0.33,0.33
91.66,-0.82,-1.12,-0.83,-1.12,1.13,1.06,0.90,0.30,0.30,0.30
92.58,-0.80,-1.06,-0.80,-1.07,1.07,0.98,0.83,0.27,0.27,0.26
93.51,-0.78,-1.02,-0.78,-1.01,1.01,0.91,0.76,0.23,0.23,0.24
94.44,-0.75,-0.96,-0.75,-0.96,0.95,0.84,0.69,0.20,0.20,0.20
95.39,-0.73,-0.90,-0.73,-0.90,0.89,0.77,0.62,0.16,0.16,0.17
96.34,-0.71,-0.83,-0.71,-0.83,0.84,0.70,0.55,0.12,0.13,0.12
97.30,-0.69,-0.77,-0.69,-0.77,0.78,0.63,0.48,0.09,0.09,0.08
98.28,-0.67,-0.72,-0.67,-0.71,0.72,0.57,0.41,0.05,0.05,0.05
99.26,-0.65,-0.66,-0.65,-0.66,0.66,0.50,0.35,0.01,0.01,0.01
100.25,-0.63,-0.60,-0.63,-0.60,0.60,0.43,0.28,-0.03,-0.03,-0.03
101.25,-0.62,-0.55,-0.62,-0.55,0.55,0.36,0.22,-0.08,-0.07,-0.07
102.27,-0.60,-0.49,-0.60,-0.49,0.49,0.30,0.15,-0.11,-0.11,-0.11
103.29,-0.59,-0.43,-0.59,-0.43,0.43,0.24,0.09,-0.16,-0.15,-0.17
104.32,-0.57,-0.38,-0.57,-0.37,0.38,0.17,0.03,-0.19,-0.19,-0.19
105.37,-0.55,-0.31,-0.56,-0.32,0.32,0.11,-0.03,-0.23,-0.24,-0.24
106.42,-0.55,-0.27,-0.54,-0.26,0.26,0.05,-0.09,-0.29,-0.28,-0.28
107.48,-0.53,-0.21,-0.53,-0.21,0.20,-0.01,-0.15,-0.33,-0.33,-0.32
108.56,-0.52,-0.14,-0.52,-0.15,0.15,-0.07,-0.20,-0.37,-0.37,-0.38
109.64,-0.50,-0.09,-0.50,-0.09,0.09,-0.13,-0.26,-0.41,-0.41,-0.41
110.74,-0.49,-0.03,-0.49,-0.03,0.03,-0.18,-0.31,-0.46,-0.46,-0.46
111.85,-0.48,0.02,-0.48,0.03,-0.03,-0.24,-0.36,-0.51,-0.51,-0.50
112.97,-0.47,0.10,-0.47,0.09,-0.09,-0.29,-0.41,-0.56,-0.56,-0.57
114.10,-0.47,0.14,-0.46,0.14,-0.14,-0.35,-0.46,-0.62,-0.61,-0.61
115.24,-0.45,0.20,-0.45,0.20,-0.20,-0.40,-0.51,-0.65,-0.65,-0.65
116.39,-0.44,0.26,-0.45,0.25,-0.26,-0.45,-0.55,-0.70,-0.70,-0.70
117.55,-0.44,0.31,-0.44,0.31,-0.31,-0.49,-0.59,-0.75,-0.74,-0.75
118.73,-0.43,0.36,-0.43,0.36,-0.36,-0.54,-0.63,-0.79,-0.79,-0.79
119.92,-0.42,0.41,-0.42,0.41,-0.41,-0.59,-0.66,-0.83,-0.83,-0.83
121.12,-0.42,0.45,-0.42,0.46,-0.45,-0.63,-0.70,-0.88,-0.87,-0.88
122.33,-0.41,0.51,-0.41,0.50,-0.50,-0.67,-0.73,-0.91,-0.92,-0.92
123.55,-0.41,0.54,-0.41,0.54,-0.55,-0.72,-0.76,-0.96,-0.96,-0.96
124.79,-0.41,0.58,-0.41,0.59,-0.59,-0.76,-0.79,-1.00,-1.00,-0.99
126.03,-0.40,0.63,-0.40,0.63,-0.64,-0.79,-0.81,-1.04,-1.04,-1.03
127.29,-0.40,0.68,-0.40,0.68,-0.68,-0.83,-0.83,-1.09,-1.08,-1.08
128.57,-0.39,0.73,-0.39,0.73,-0.73,-0.87,-0.85,-1.12,-1.12,-1.12
129.85,-0.38,0.78,-0.38,0.78,-0.77,-0.90,-0.87,-1.15,-1.15,-1.16
131.15,-0.38,0.82,-0.38,0.82,-0.81,-0.93,-0.88,-1.19,-1.19,-1.20
132.46,-0.38,0.85,-0.38,0.85,-0.85,-0.96,-0.89,-1.23,-1.23,-1.23
133.79,-0.38,0.88,-0.38,0.88,-0.88,-0.99,-0.90,-1.26,-1.26,-1.26
135.12,-0.38,0.92,-0.38,0.91,-0.92,-1.02,-0.91,-1.30,-1.30,-1.30
136.48,-0.38,0.94,-0.38,0.94,-0.95,-1.05,-0.92,-1.33,-1.33,-1.32
137.84,-0.38,0.97,-0.38,0.97,-0.97,-1.07,-0.92,-1.35,-1.36,-1.35
139.22,-0.38,1.00,-0.38,1.00,-1.00,-1.10,-0.92,-1.38,-1.38,-1.38
140.61,-0.38,1.03,-0.38,1.03,-1.02,-1.12,-0.93,-1.41,-1.40,-1.41
142.02,-0.37,1.05,-0.37,1.05,-1.05,-1.14,-0.93,-1.42,-1.42,-1.42
143.44,-0.37,1.07,-0.37,1.07,-1.07,-1.16,-0.93,-1.44,-1.44,-1.44
144.87,-0.37,1.09,-0.37,1.09,-1.09,-1.18,-0.93,-1.46,-1.46,-1.46
146.32,-0.37,1.11,-0.37,1.11,-1.11,-1.19,-0.92,-1.48,-1.48,-1.48
147.78,-0.37,1.12,-0.37,1.12,-1.13,-1.21,-0.92,-1.50,-1.50,-1.49
149.26,-0.37,1.14,-0.37,1.14,-1.14,-1.22,-0.92,-1.51,-1.52,-1.51
150.75,-0.38,1.16,-0.38,1.16,-1.16,-1.24,-0.91,-1.54,-1.53,-1.54
152.26,-0.38,1.18,-0.38,1.18,-1.17,-1.25,-0.91,-1.55,-1.55,-1.56
153.78,-0.38,1.19,-0.38,1.19,-1.19,-1.26,-0.91,-1.57,-1.57,-1.57
155.32,-0.39,1.20,-0.39,1.20,-1.20,-1.27,-0.90,-1.59,-1.59,-1.59
156.88,-0.40,1.21,-0.40,1.21,-1.22,-1.28,-0.90,-1.62,-1.61,-1.61
158.44,-0.41,1.22,-0.41,1.22,-1.23,-1.28,-0.90,-1.64,-1.64,-1.63
160.03,-0.41,1.24,-0.42,1.24,-1.24,-1.29,-0.90,-1.65,-1.66,-1.65
161.63,-0.42,1.26,-0.42,1.26,-1.25,-1.29,-0.89,-1.67,-1.67,-1.68
163.24,-0.43,1.27,-0.43,1.27,-1.26,-1.30,-0.89,-1.70,-1.69,-1.70
164.88,-0.43,1.28,-0.43,1.28,-1.28,-1.30,-0.89,-1.71,-1.71,-1.71
166.53,-0.44,1.29,-0.44,1.29,-1.29,-1.30,-0.89,-1.73,-1.73,-1.73
168.19,-0.46,1.30,-0.46,1.30,-1.30,-1.30,-0.89,-1.76,-1.76,-1.76
169.87,-0.47,1.31,-0.47,1.31,-1.31,-1.30,-0.89,-1.78,-1.78,-1.78
171.57,-0.48,1.32,-0.48,1.32,-1.33,-1.30,-0.89,-1.81,-1.81,-1.81
173.29,-0.49,1.33,-0.49,1.33,-1.34,-1.30,-0.90,-1.83,-1.83,-1.82
175.02,-0.50,1.35,-0.50,1.35,-1.35,-1.30,-0.90,-1.85,-1.85,-1.85
176.77,-0.51,1.37,-0.51,1.37,-1.37,-1.29,-0.90,-1.88,-1.88,-1.89
178.54,-0.53,1.39,-0.53,1.39,-1.39,-1.29,-0.91,-1.92,-1.91,-1.92
180.32,-0.54,1.41,-0.54,1.40,-1.40,-1.28,-0.91,-1.94,-1.95,-1.95
182.13,-0.56,1.41,-0.56,1.42,-1.42,-1.28,-0.92,-1.98,-1.98,-1.97
183.95,-0.58,1.43,-0.58,1.43,-1.43,-1.27,-0.93,-2.01,-2.01,-2.02
185.79,-0.59,1.45,-0.59,1.45,-1.45,-1.26,-0.94,-2.04,-2.04,-2.04
187.65,-0.61,1.46,-0.61,1.46,-1.46,-1.25,-0.95,-2.07,-2.07,-2.07
189.52,-0.63,1.47,-0.63,1.47,-1.47,-1.25,-0.95,-2.10,-2.10,-2.10
191.42,-0.65,1.48,-0.65,1.48,-1.48,-1.24,-0.96,-2.13,-2.13,-2.13
193.33,-0.67,1.48,-0.67,1.48,-1.48,-1.23,-0.98,-2.16,-2.16,-2.15
195.27,-0.69,1.49,-0.69,1.49,-1.49,-1.22,-0.99,-2.18,-2.18,-2.18
197.22,-0.72,1.48,-0.72,1.49,-1.49,-1.20,-1.00,-2.21,-2.21,-2.20
199.19,-0.74,1.51,-0.74,1.50,-1.49,-1.19,-1.01,-2.23,-2.23,-2.25
201.18,-0.76,1.50,-0.77,1.50,-1.49,-1.18,-1.02,-2.25,-2.26,-2.26
203.19,-0.79,1.49,-0.79,1.49,-1.49,-1.17,-1.04,-2.28,-2.28,-2.28
205.23,-0.82,1.49,-0.82,1.48,-1.49,-1.16,-1.05,-2.31,-2.30,-2.31
207.28,-0.84,1.47,-0.84,1.47,-1.48,-1.14,-1.06,-2.32,-2.32,-2.31
209.35,-0.87,1.47,-0.87,1.47,-1.47,-1.13,-1.08,-2.34,-2.34,-2.34
211.44,-0.89,1.47,-0.89,1.46,-1.46,-1.11,-1.09,-2.35,-2.35,-2.37
213.56,-0.92,1.45,-0.92,1.45,-1.45,-1.10,-1.10,-2.37,-2.37,-2.37
215.69,-0.95,1.42,-0.95,1.43,-1.43,-1.08,-1.12,-2.38,-2.38,-2.37
217.85,-0.98,1.41,-0.98,1.41,-1.41,-1.07,-1.13,-2.39,-2.39,-2.39
220.03,-1.00,1.40,-1.00,1.39,-1.39,-1.05,-1.14,-2.39,-2.40,-2.40
222.23,-1.03,1.38,-1.03,1.37,-1.37,-1.04,-1.15,-2.40,-2.40,-2.41
224.45,-1.06,1.33,-1.06,1.34,-1.34,-1.02,-1.16,-2.40,-2.40,-2.39
226.70,-1.09,1.30,-1.09,1.31,-1.31,-1.01,-1.17,-2.40,-2.39,-2.39
228.96,-1.11,1.28,-1.12,1.27,-1.27,-0.99,-1.18,-2.39,-2.39,-2.39
231.25,-1.14,1.23,-1.14,1.24,-1.24,-0.97,-1.18,-2.38,-2.38,-2.38
233.57,-1.17,1.20,-1.17,1.20,-1.21,-0.95,-1.19,-2.38,-2.37,-2.37
235.90,-1.19,1.17,-1.19,1.17,-1.17,-0.94,-1.19,-2.36,-2.36,-2.36
238.26,-1.21,1.14,-1.21,1.14,-1.13,-0.92,-1.20,-2.35,-2.35,-2.35
240.64,-1.23,1.10,-1.23,1.10,-1.10,-0.90,-1.20,-2.33,-2.33,-2.33
243.05,-1.25,1.07,-1.25,1.06,-1.06,-0.88,-1.19,-2.31,-2.31,-2.32
245.48,-1.27,1.02,-1.27,1.03,-1.03,-0.86,-1.19,-2.30,-2.29,-2.29
247.93,-1.28,0.99,-1.28,0.99,-0.99,-0.84,-1.18,-2.27,-2.27,-2.27
250.41,-1.29,0.97,-1.30,0.96,-0.96,-0.83,-1.18,-2.25,-2.25,-2.26
252.92,-1.31,0.92,-1.31,0.92,-0.92,-0.81,-1.17,-2.23,-2.23,-2.23
255.45,-1.33,0.87,-1.33,0.88,-0.88,-0.79,-1.15,-2.21,-2.21,-2.20
258.00,-1.34,0.84,-1.34,0.84,-0.85,-0.77,-1.14,-2.19,-2.19,-2.19
260.58,-1.34,0.82,-1.35,0.81,-0.81,-0.75,-1.12,-2.15,-2.16,-2.16
263.19,-1.36,0.77,-1.36,0.78,-0.77,-0.73,-1.11,-2.13,-2.13,-2.13
265.82,-1.37,0.75,-1.37,0.74,-0.74,-0.71,-1.09,-2.11,-2.11,-2.12
268.48,-1.39,0.69,-1.39,0.70,-0.70,-0.69,-1.07,-2.09,-2.09,-2.08
271.16,-1.40,0.66,-1.40,0.66,-0.66,-0.67,-1.04,-2.06,-2.06,-2.06
273.87,-1.42,0.62,-1.42,0.62,-0.62,-0.65,-1.02,-2.04,-2.04,-2.04
276.61,-1.43,0.58,-1.43,0.59,-0.58,-0.63,-0.99,-2.02,-2.02,-2.01
279.38,-1.44,0.56,-1.45,0.55,-0.55,-0.61,-0.96,-1.99,-1.99,-2.00
282.17,-1.46,0.51,-1.46,0.51,-0.51,-0.58,-0.94,-1.97,-1.97,-1.97
284.99,-1.47,0.47,-1.47,0.47,-0.47,-0.56,-0.91,-1.94,-1.94,-1.94
287.84,-1.48,0.44,-1.48,0.43,-0.44,-0.54,-0.87,-1.92,-1.92,-1.92
290.72,-1.49,0.40,-1.49,0.40,-0.40,-0.52,-0.84,-1.89,-1.89,-1.89
293.63,-1.50,0.36,-1.50,0.36,-0.37,-0.50,-0.81,-1.87,-1.87,-1.86
296.57,-1.51,0.32,-1.51,0.33,-0.33,-0.48,-0.78,-1.84,-1.84,-1.83
299.53,-1.51,0.30,-1.52,0.29,-0.29,-0.45,-0.74,-1.80,-1.81,-1.81
302.53,-1.52,0.27,-1.52,0.26,-0.26,-0.43,-0.71,-1.78,-1.78,-1.79
305.55,-1.53,0.21,-1.52,0.23,-0.22,-0.41,-0.67,-1.75,-1.74,-1.74
308.61,-1.52,0.19,-1.53,0.18,-0.18,-0.39,-0.64,-1.70,-1.71,-1.71
311.69,-1.53,0.15,-1.53,0.14,-0.15,-0.36,-0.60,-1.68,-1.68,-1.68
314.81,-1.53,0.10,-1.53,0.11,-0.11,-0.34,-0.57,-1.64,-1.64,-1.63
317.96,-1.54,0.07,-1.54,0.07,-0.08,-0.32,-0.53,-1.62,-1.61,-1.61
321.14,-1.54,0.04,-1.54,0.04,-0.04,-0.29,-0.49,-1.58,-1.58,-1.58
324.35,-1.54,0.01,-1.54,0.01,-0.01,-0.27,-0.46,-1.55,-1.55,-1.56
327.59,-1.55,-0.02,-1.55,-0.02,0.02,-0.25,-0.42,-1.53,-1.53,-1.53
330.87,-1.55,-0.05,-1.55,-0.05,0.05,-0.22,-0.39,-1.50,-1.50,-1.50
334.18,-1.56,-0.08,-1.56,-0.08,0.08,-0.20,-0.35,-1.48,-1.48,-1.48
337.52,-1.56,-0.10,-1.56,-0.11,0.11,-0.18,-0.31,-1.45,-1.45,-1.46
340.90,-1.57,-0.14,-1.57,-0.13,0.14,-0.15,-0.28,-1.43,-1.44,-1.43
344.30,-1.58,-0.17,-1.58,-0.16,0.16,-0.13,-0.24,-1.42,-1.41,-1.42
347.75,-1.59,-0.19,-1.59,-0.19,0.19,-0.10,-0.21,-1.40,-1.40,-1.40
351.23,-1.59,-0.21,-1.59,-0.22,0.22,-0.08,-0.17,-1.38,-1.38,-1.38
354.74,-1.60,-0.24,-1.60,-0.24,0.24,-0.05,-0.14,-1.36,-1.36,-1.36
358.28,-1.60,-0.26,-1.60,-0.26,0.26,-0.03,-0.10,-1.35,-1.34,-1.34
361.87,-1.60,-0.28,-1.60,-0.28,0.27,-0.00,-0.07,-1.33,-1.33,-1.32
365.49,-1.59,-0.29,-1.59,-0.29,0.29,0.02,-0.03,-1.31,-1.31,-1.30
369.14,-1.59,-0.30,-1.59,-0.30,0.30,0.05,0.00,-1.29,-1.29,-1.30
372.83,-1.58,-0.30,-1.58,-0.30,0.31,0.07,0.04,-1.27,-1.27,-1.28
376.56,-1.57,-0.30,-1.57,-0.31,0.31,0.10,0.07,-1.26,-1.26,-1.27
380.33,-1.56,-0.32,-1.56,-0.32,0.32,0.12,0.11,-1.24,-1.24,-1.24
384.13,-1.55,-0.33,-1.55,-0.33,0.33,0.15,0.14,-1.22,-1.22,-1.22
387.97,-1.54,-0.34,-1.54,-0.34,0.34,0.17,0.18,-1.21,-1.21,-1.20
391.85,-1.53,-0.34,-1.53,-0.34,0.34,0.20,0.21,-1.19,-1.18,-1.19
395.77,-1.51,-0.35,-1.51,-0.35,0.35,0.23,0.24,-1.16,-1.16,-1.16
399.73,-1.49,-0.35,-1.50,-0.35,0.35,0.25,0.28,-1.14,-1.14,-1.14
403.72,-1.48,-0.36,-1.48,-0.36,0.36,0.27,0.31,-1.12,-1.12,-1.12
407.76,-1.47,-0.37,-1.47,-0.36,0.36,0.30,0.34,-1.11,-1.10,-1.10
411.84,-1.45,-0.38,-1.45,-0.37,0.36,0.32,0.37,-1.09,-1.08,-1.08
415.96,-1.42,-0.36,-1.43,-0.37,0.36,0.35,0.40,-1.06,-1.06,-1.06
420.12,-1.40,-0.36,-1.40,-0.37,0.36,0.37,0.43,-1.04,-1.04,-1.04
424.32,-1.38,-0.36,-1.38,-0.36,0.36,0.39,0.46,-1.02,-1.02,-1.02
428.56,-1.36,-0.36,-1.36,-0.36,0.36,0.41,0.49,-1.00,-1.00,-1.00
432.85,-1.33,-0.35,-1.33,-0.35,0.35,0.44,0.52,-0.98,-0.98,-0.98
437.18,-1.30,-0.35,-1.30,-0.35,0.35,0.46,0.55,-0.95,-0.95,-0.95
441.55,-1.27,-0.35,-1.27,-0.35,0.35,0.48,0.58,-0.92,-0.92,-0.92
445.96,-1.25,-0.35,-1.25,-0.35,0.36,0.50,0.60,-0.89,-0.89,-0.90
450.42,-1.23,-0.35,-1.23,-0.36,0.36,0.51,0.63,-0.87,-0.87,-0.88
454.93,-1.22,-0.38,-1.22,-0.37,0.37,0.53,0.65,-0.85,-0.85,-0.84
459.48,-1.21,-0.39,-1.21,-0.39,0.39,0.55,0.67,-0.82,-0.82,-0.82
