frequency,raw,error,smoothed,error_smoothed,equalization,parametric_eq,fixed_band_eq,equalized_raw,equalized_smoothed,target
20.00,-9.44,-11.25,-9.45,-11.26,6.00,5.32,2.88,-3.44,-3.45,1.81
20.20,-9.42,-11.23,-9.40,-11.21,6.00,5.35,2.96,-3.42,-3.40,1.81
20.40,-9.34,-11.15,-9.34,-11.15,6.00,5.39,3.04,-3.34,-3.34,1.82
20.61,-9.28,-11.09,-9.27,-11.09,6.00,5.42,3.12,-3.28,-3.27,1.82
20.81,-9.19,-11.00,-9.19,-11.01,6.00,5.46,3.21,-3.19,-3.19,1.82
21.02,-9.12,-10.94,-9.12,-10.93,6.00,5.49,3.30,-3.12,-3.12,1.82
21.23,-9.04,-10.86,-9.04,-10.86,6.00,5.52,3.40,-3.04,-3.04,1.82
21.44,-8.97,-10.79,-8.96,-10.78,6.00,5.56,3.49,-2.97,-2.96,1.82
21.66,-8.89,-10.71,-8.89,-10.71,6.00,5.59,3.59,-2.89,-2.89,1.82
21.87,-8.82,-10.64,-8.82,-10.64,6.00,5.62,3.69,-2.82,-2.82,1.82
22.09,-8.76,-10.58,-8.76,-10.58,6.00,5.65,3.80,-2.76,-2.76,1.82
22.31,-8.70,-10.52,-8.69,-10.52,6.00,5.68,3.90,-2.70,-2.69,1.83
22.54,-8.62,-10.44,-8.62,-10.44,6.00,5.71,4.01,-2.62,-2.62,1.83
22.76,-8.54,-10.36,-8.53,-10.36,6.00,5.73,4.13,-2.54,-2.53,1.83
22.99,-8.45,-10.28,-8.45,-10.28,6.00,5.76,4.24,-2.45,-2.45,1.83
23.22,-8.36,-10.19,-8.37,-10.20,6.00,5.79,4.36,-2.36,-2.37,1.83
23.45,-8.29,-10.12,-8.27,-10.11,6.00,5.81,4.48,-2.29,-2.27,1.83
23.69,-8.19,-10.02,-8.18,-10.01,6.00,5.83,4.60,-2.19,-2.18,1.83
23.92,-8.08,-9.91,-8.09,-9.92,6.00,5.86,4.73,-2.08,-2.09,1.83
24.16,-8.00,-9.83,-7.99,-9.83,6.00,5.88,4.86,-2.00,-1.99,1.83
24.40,-7.91,-9.75,-7.91,-9.74,6.00,5.90,4.99,-1.91,-1.91,1.83
24.65,-7.83,-9.66,-7.84,-9.67,6.00,5.92,5.12,-1.83,-1.84,1.84
24.89,-7.78,-9.61,-7.77,-9.61,6.00,5.94,5.25,-1.78,-1.77,1.84
25.14,-7.72,-9.55,-7.71,-9.55,6.00,5.96,5.39,-1.72,-1.71,1.84
25.39,-7.66,-9.49,-7.66,-9.50,6.00,5.97,5.53,-1.66,-1.66,1.84
25.65,-7.61,-9.45,-7.61,-9.45,6.00,5.99,5.66,-1.61,-1.61,1.84
25.91,-7.57,-9.41,-7.56,-9.40,6.00,6.00,5.80,-1.57,-1.56,1.84
26.16,-7.52,-9.36,-7.51,-9.35,6.00,6.02,5.94,-1.52,-1.51,1.84
26.43,-7.46,-9.30,-7.46,-9.30,6.00,6.03,6.08,-1.46,-1.46,1.84
26.69,-7.40,-9.24,-7.40,-9.24,6.00,6.04,6.21,-1.40,-1.40,1.84
26.96,-7.34,-9.18,-7.34,-9.18,6.00,6.05,6.35,-1.34,-1.34,1.84
27.23,-7.28,-9.12,-7.28,-9.12,6.00,6.06,6.48,-1.28,-1.28,1.84
27.50,-7.22,-9.06,-7.22,-9.06,6.00,6.06,6.61,-1.22,-1.22,1.84
27.77,-7.17,-9.01,-7.16,-9.01,6.00,6.07,6.73,-1.17,-1.16,1.85
28.05,-7.11,-8.95,-7.11,-8.95,6.00,6.07,6.85,-1.11,-1.11,1.85
28.33,-7.05,-8.89,-7.05,-8.90,6.00,6.08,6.97,-1.05,-1.05,1.85
28.62,-7.01,-8.85,-7.00,-8.85,6.00,6.08,7.08,-1.01,-1.00,1.85
28.90,-6.96,-8.80,-6.96,-8.80,6.00,6.08,7.18,-0.96,-0.96,1.85
29.19,-6.91,-8.75,-6.90,-8.75,6.00,6.08,7.27,-0.91,-0.90,1.85
29.48,-6.85,-8.69,-6.85,-8.70,6.00,6.08,7.35,-0.85,-0.85,1.85
29.78,-6.79,-8.64,-6.79,-8.64,6.00,6.07,7.43,-0.79,-0.79,1.85
30.08,-6.73,-8.58,-6.73,-8.58,6.00,6.07,7.49,-0.73,-0.73,1.85
30.38,-6.67,-8.52,-6.67,-8.52,6.00,6.06,7.54,-0.67,-0.67,1.85
30.68,-6.61,-8.46,-6.61,-8.46,6.00,6.05,7.58,-0.61,-0.61,1.85
30.99,-6.55,-8.40,-6.55,-8.40,6.00,6.05,7.61,-0.55,-0.55,1.85
31.30,-6.49,-8.34,-6.49,-8.34,6.00,6.04,7.63,-0.49,-0.49,1.85
31.61,-6.44,-8.29,-6.44,-8.29,6.00,6.03,7.63,-0.44,-0.44,1.85
31.93,-6.40,-8.25,-6.39,-8.24,6.00,6.02,7.63,-0.40,-0.39,1.85
32.24,-6.35,-8.20,-6.35,-8.20,6.00,6.01,7.61,-0.35,-0.35,1.85
32.57,-6.30,-8.15,-6.29,-8.14,6.00,6.00,7.58,-0.30,-0.29,1.85
32.89,-6.24,-8.09,-6.24,-8.09,6.00,5.99,7.54,-0.24,-0.24,1.85
33.22,-6.18,-8.03,-6.18,-8.03,6.00,5.98,7.49,-0.18,-0.18,1.85
33.55,-6.14,-7.99,-6.14,-7.99,6.00,5.97,7.43,-0.14,-0.14,1.85
33.89,-6.10,-7.95,-6.09,-7.94,6.00,5.96,7.36,-0.10,-0.09,1.85
34.23,-6.04,-7.89,-6.04,-7.89,6.00,5.95,7.29,-0.04,-0.04,1.85
34.57,-5.98,-7.83,-5.98,-7.83,6.00,5.94,7.21,0.02,0.02,1.85
34.92,-5.94,-7.79,-5.93,-7.78,6.00,5.94,7.12,0.06,0.07,1.85
35.27,-5.89,-7.73,-5.88,-7.73,6.00,5.93,7.03,0.11,0.12,1.85
35.62,-5.84,-7.68,-5.84,-7.68,6.00,5.93,6.94,0.16,0.16,1.85
35.97,-5.79,-7.63,-5.79,-7.64,6.00,5.92,6.84,0.21,0.21,1.85
36.33,-5.75,-7.59,-5.74,-7.59,6.00,5.92,6.74,0.25,0.26,1.85
36.70,-5.71,-7.55,-5.70,-7.55,6.00,5.92,6.64,0.29,0.30,1.84
37.06,-5.66,-7.50,-5.66,-7.51,6.00,5.92,6.53,0.34,0.34,1.84
37.43,-5.63,-7.47,-5.63,-7.47,6.00,5.92,6.43,0.37,0.37,1.84
37.81,-5.60,-7.44,-5.59,-7.43,6.00,5.92,6.33,0.40,0.41,1.84
38.19,-5.55,-7.39,-5.55,-7.39,6.00,5.92,6.23,0.45,0.45,1.84
38.57,-5.51,-7.35,-5.51,-7.35,6.00,5.92,6.13,0.49,0.49,1.84
38.95,-5.48,-7.31,-5.47,-7.31,6.00,5.92,6.03,0.52,0.53,1.84
39.34,-5.45,-7.28,-5.44,-7.28,6.00,5.93,5.94,0.55,0.56,1.84
39.74,-5.40,-7.23,-5.40,-7.24,6.00,5.93,5.84,0.60,0.60,1.83
40.14,-5.37,-7.20,-5.36,-7.19,6.00,5.93,5.75,0.63,0.64,1.83
40.54,-5.32,-7.15,-5.32,-7.15,6.00,5.94,5.67,0.68,0.68,1.83
40.94,-5.27,-7.09,-5.27,-7.10,6.00,5.94,5.58,0.73,0.73,1.83
41.35,-5.23,-7.05,-5.23,-7.05,6.00,5.95,5.50,0.77,0.77,1.83
41.76,-5.19,-7.01,-5.18,-7.00,6.00,5.95,5.43,0.81,0.82,1.82
42.18,-5.13,-6.95,-5.13,-6.95,6.00,5.96,5.35,0.87,0.87,1.82
42.60,-5.07,-6.88,-5.07,-6.89,6.00,5.96,5.29,0.93,0.93,1.82
43.03,-5.03,-6.84,-5.02,-6.84,6.00,5.97,5.22,0.97,0.98,1.82
43.46,-4.98,-6.79,-4.97,-6.79,6.00,5.97,5.16,1.02,1.03,1.81
43.90,-4.93,-6.74,-4.93,-6.74,6.00,5.98,5.10,1.07,1.07,1.81
44.33,-4.88,-6.68,-4.88,-6.69,6.00,5.99,5.05,1.12,1.12,1.81
44.78,-4.85,-6.65,-4.84,-6.65,6.00,5.99,5.00,1.15,1.16,1.80
45.23,-4.82,-6.62,-4.81,-6.61,6.00,6.00,4.95,1.18,1.19,1.80
45.68,-4.77,-6.56,-4.78,-6.57,6.00,6.01,4.91,1.23,1.22,1.79
46.13,-4.76,-6.55,-4.75,-6.54,6.00,6.01,4.87,1.24,1.25,1.79
46.60,-4.73,-6.51,-4.73,-6.51,6.00,6.02,4.84,1.27,1.27,1.79
47.06,-4.70,-6.48,-4.70,-6.48,6.00,6.02,4.80,1.30,1.30,1.78
47.53,-4.69,-6.46,-4.67,-6.45,6.00,6.03,4.78,1.31,1.33,1.78
48.01,-4.64,-6.41,-4.65,-6.42,6.00,6.03,4.75,1.36,1.35,1.77
48.49,-4.64,-6.40,-4.63,-6.40,6.00,6.02,4.73,1.36,1.37,1.77
48.97,-4.62,-6.38,-4.61,-6.38,6.00,6.01,4.71,1.38,1.39,1.76
49.46,-4.60,-6.35,-4.60,-6.36,6.00,6.00,4.70,1.40,1.40,1.76
49.96,-4.59,-6.34,-4.58,-6.33,6.00,5.98,4.68,1.41,1.42,1.75
50.46,-4.56,-6.30,-4.56,-6.31,6.01,5.95,4.67,1.45,1.44,1.74
50.96,-4.55,-6.28,-4.54,-6.28,6.01,5.92,4.67,1.47,1.47,1.74
51.47,-4.51,-6.24,-4.51,-6.24,6.02,5.87,4.66,1.51,1.51,1.73
51.99,-4.47,-6.19,-4.47,-6.19,6.02,5.82,4.66,1.55,1.55,1.72
52.51,-4.42,-6.13,-4.42,-6.13,6.01,5.75,4.65,1.59,1.59,1.72
53.03,-4.36,-6.06,-4.36,-6.07,5.98,5.67,4.65,1.63,1.62,1.71
53.56,-4.31,-6.01,-4.30,-6.00,5.94,5.58,4.65,1.64,1.65,1.70
54.10,-4.22,-5.91,-4.22,-5.91,5.89,5.48,4.65,1.67,1.67,1.69
54.64,-4.14,-5.82,-4.13,-5.82,5.81,5.37,4.65,1.68,1.68,1.68
55.18,-4.04,-5.71,-4.03,-5.71,5.72,5.25,4.65,1.68,1.69,1.67
55.74,-3.93,-5.59,-3.93,-5.60,5.61,5.12,4.64,1.68,1.67,1.66
56.29,-3.82,-5.47,-3.82,-5.47,5.48,4.98,4.64,1.66,1.66,1.65
56.86,-3.71,-5.35,-3.70,-5.34,5.33,4.84,4.64,1.63,1.64,1.64
57.42,-3.56,-5.19,-3.56,-5.19,5.18,4.69,4.63,1.63,1.62,1.63
58.00,-3.41,-5.03,-3.41,-5.03,5.03,4.53,4.62,1.62,1.62,1.62
58.58,-3.25,-4.86,-3.25,-4.86,4.87,4.38,4.61,1.62,1.62,1.61
59.16,-3.10,-4.69,-3.10,-4.70,4.70,4.22,4.60,1.61,1.60,1.60
59.76,-2.95,-4.53,-2.95,-4.53,4.53,4.06,4.58,1.59,1.59,1.59
60.35,-2.80,-4.37,-2.79,-4.37,4.37,3.90,4.56,1.57,1.58,1.57
60.96,-2.65,-4.21,-2.65,-4.21,4.21,3.75,4.54,1.56,1.56,1.56
61.57,-2.50,-4.04,-2.50,-4.05,4.05,3.59,4.51,1.56,1.55,1.55
62.18,-2.38,-3.91,-2.37,-3.90,3.91,3.45,4.48,1.53,1.54,1.53
62.80,-2.24,-3.75,-2.24,-3.76,3.77,3.32,4.44,1.53,1.53,1.52
63.43,-2.12,-3.62,-2.12,-3.63,3.64,3.19,4.40,1.52,1.51,1.50
64.07,-2.03,-3.52,-2.02,-3.51,3.51,3.08,4.36,1.49,1.50,1.49
64.71,-1.93,-3.40,-1.93,-3.40,3.40,2.98,4.31,1.47,1.47,1.47
65.35,-1.85,-3.30,-1.85,-3.30,3.30,2.89,4.26,1.45,1.45,1.46
66.01,-1.78,-3.22,-1.77,-3.21,3.20,2.82,4.20,1.43,1.44,1.44
66.67,-1.70,-3.12,-1.70,-3.12,3.12,2.76,4.14,1.42,1.42,1.42
67.33,-1.63,-3.03,-1.63,-3.04,3.04,2.71,4.08,1.42,1.41,1.40
68.01,-1.59,-2.97,-1.58,-2.97,2.97,2.68,4.01,1.39,1.39,1.38
68.69,-1.55,-2.91,-1.54,-2.91,2.91,2.65,3.94,1.36,1.37,1.36
69.37,-1.52,-2.86,-1.51,-2.86,2.85,2.63,3.87,1.34,1.34,1.34
70.07,-1.48,-2.80,-1.48,-2.80,2.80,2.61,3.80,1.33,1.32,1.32
70.77,-1.46,-2.76,-1.46,-2.76,2.76,2.60,3.72,1.30,1.30,1.30
71.48,-1.44,-2.72,-1.44,-2.72,2.72,2.59,3.65,1.28,1.28,1.28
72.19,-1.44,-2.70,-1.42,-2.68,2.68,2.58,3.57,1.25,1.26,1.26
72.91,-1.40,-2.63,-1.41,-2.64,2.65,2.57,3.49,1.25,1.24,1.24
73.64,-1.40,-2.61,-1.40,-2.61,2.62,2.56,3.41,1.22,1.22,1.21
74.38,-1.40,-2.59,-1.39,-2.58,2.59,2.54,3.33,1.19,1.19,1.19
75.12,-1.40,-2.56,-1.40,-2.56,2.55,2.53,3.25,1.16,1.16,1.16
75.87,-1.40,-2.54,-1.40,-2.54,2.52,2.51,3.17,1.13,1.13,1.14
76.63,-1.40,-2.51,-1.39,-2.50,2.49,2.49,3.09,1.09,1.10,1.11
77.40,-1.37,-2.45,-1.37,-2.46,2.46,2.47,3.01,1.09,1.09,1.09
78.17,-1.36,-2.42,-1.36,-2.42,2.43,2.44,2.93,1.07,1.07,1.06
78.95,-1.35,-2.38,-1.35,-2.38,2.39,2.42,2.85,1.05,1.05,1.03
79.74,-1.35,-2.35,-1.35,-2.35,2.36,2.39,2.78,1.01,1.01,1.00
80.54,-1.35,-2.32,-1.35,-2.32,2.32,2.36,2.70,0.97,0.97,0.98
81.35,-1.35,-2.29,-1.34,-2.29,2.28,2.32,2.63,0.94,0.94,0.95
82.16,-1.35,-2.26,-1.33,-2.25,2.24,2.29,2.55,0.90,0.91,0.92
82.98,-1.31,-2.19,-1.32,-2.21,2.20,2.26,2.48,0.90,0.88,0.89
83.81,-1.31,-2.16,-1.31,-2.17,2.16,2.22,2.41,0.86,0.85,0.86
84.65,-1.31,-2.13,-1.30,-2.12,2.12,2.18,2.34,0.82,0.83,0.82
85.50,-1.30,-2.09,-1.29,-2.08,2.08,2.15,2.27,0.78,0.79,0.79
86.35,-1.27,-2.03,-1.28,-2.04,2.04,2.11,2.20,0.77,0.76,0.76
87.22,-1.27,-1.99,-1.27,-1.99,2.00,2.07,2.14,0.73,0.73,0.73
88.09,-1.27,-1.96,-1.26,-1.96,1.96,2.03,2.07,0.70,0.70,0.69
88.97,-1.27,-1.92,-1.27,-1.92,1.92,1.99,2.01,0.66,0.66,0.66
89.86,-1.27,-1.89,-1.27,-1.89,1.89,1.95,1.95,0.62,0.62,0.62
90.76,-1.27,-1.86,-1.27,-1.86,1.85,1.91,1.89,0.59,0.59,0.59
91.66,-1.27,-1.82,-1.27,-1.82,1.82,1.86,1.84,0.55,0.55,0.55
92.58,-1.27,-1.79,-1.27,-1.79,1.78,1.82,1.78,0.52,0.52,0.52
93.51,-1.27,-1.75,-1.27,-1.75,1.75,1.78,1.72,0.48,0.48,0.48
94.44,-1.27,-1.71,-1.27,-1.71,1.71,1.74,1.67,0.45,0.45,0.45
95.39,-1.27,-1.68,-1.27,-1.68,1.68,1.70,1.62,0.41,0.41,0.41
96.34,-1.27,-1.64,-1.27,-1.64,1.64,1.65,1.57,0.37,0.37,0.37
97.30,-1.27,-1.60,-1.27,-1.60,1.60,1.61,1.52,0.34,0.34,0.34
98.28,-1.27,-1.57,-1.27,-1.57,1.56,1.57,1.47,0.30,0.30,0.30
99.26,-1.27,-1.53,-1.27,-1.53,1.53,1.53,1.43,0.26,0.26,0.26
100.25,-1.27,-1.49,-1.27,-1.49,1.49,1.49,1.38,0.22,0.22,0.22
101.25,-1.27,-1.45,-1.27,-1.45,1.45,1.45,1.34,0.19,0.19,0.19
102.27,-1.27,-1.41,-1.27,-1.41,1.42,1.41,1.29,0.15,0.15,0.15
103.29,-1.27,-1.38,-1.26,-1.37,1.38,1.36,1.25,0.11,0.11,0.11
104.32,-1.27,-1.34,-1.27,-1.34,1.34,1.32,1.21,0.08,0.08,0.07
105.37,-1.27,-1.30,-1.27,-1.31,1.31,1.28,1.17,0.04,0.04,0.03
106.42,-1.29,-1.28,-1.28,-1.28,1.27,1.24,1.13,-0.01,-0.01,-0.00
107.48,-1.29,-1.24,-1.29,-1.24,1.24,1.20,1.09,-0.05,-0.05,-0.04
108.56,-1.29,-1.21,-1.29,-1.21,1.20,1.16,1.06,-0.08,-0.09,-0.08
109.64,-1.29,-1.17,-1.29,-1.17,1.17,1.13,1.02,-0.12,-0.12,-0.12
110.74,-1.29,-1.13,-1.29,-1.13,1.13,1.09,0.99,-0.16,-0.16,-0.16
111.85,-1.29,-1.09,-1.29,-1.09,1.10,1.05,0.95,-0.19,-0.19,-0.19
112.97,-1.29,-1.06,-1.28,-1.05,1.06,1.01,0.92,-0.23,-0.22,-0.23
114.10,-1.29,-1.02,-1.29,-1.02,1.02,0.97,0.89,-0.26,-0.26,-0.27
115.24,-1.29,-0.98,-1.29,-0.99,0.99,0.94,0.86,-0.30,-0.30,-0.30
116.39,-1.31,-0.97,-1.30,-0.96,0.95,0.90,0.83,-0.35,-0.35,-0.34
117.55,-1.31,-0.93,-1.31,-0.93,0.92,0.86,0.80,-0.38,-0.38,-0.38
118.73,-1.31,-0.89,-1.31,-0.89,0.89,0.83,0.77,-0.42,-0.42,-0.41
119.92,-1.31,-0.86,-1.30,-0.85,0.86,0.79,0.74,-0.44,-0.44,-0.45
121.12,-1.31,-0.82,-1.31,-0.82,0.83,0.76,0.72,-0.47,-0.47,-0.48
122.33,-1.31,-0.79,-1.32,-0.80,0.80,0.72,0.69,-0.50,-0.51,-0.52
123.55,-1.34,-0.78,-1.33,-0.78,0.77,0.69,0.66,-0.56,-0.55,-0.55
124.79,-1.35,-0.76,-1.34,-0.75,0.75,0.66,0.64,-0.60,-0.60,-0.59
126.03,-1.35,-0.72,-1.35,-0.73,0.72,0.63,0.61,-0.63,-0.63,-0.62
127.29,-1.35,-0.69,-1.35,-0.69,0.69,0.59,0.59,-0.66,-0.66,-0.65
128.57,-1.35,-0.66,-1.35,-0.66,0.66,0.56,0.57,-0.69,-0.69,-0.69
129.85,-1.35,-0.63,-1.35,-0.63,0.63,0.53,0.55,-0.72,-0.72,-0.72
131.15,-1.35,-0.60,-1.35,-0.59,0.60,0.50,0.52,-0.75,-0.75,-0.75
132.46,-1.35,-0.56,-1.35,-0.57,0.57,0.47,0.50,-0.77,-0.78,-0.78
133.79,-1.36,-0.54,-1.35,-0.54,0.55,0.44,0.48,-0.81,-0.81,-0.81
135.12,-1.37,-0.52,-1.36,-0.52,0.52,0.41,0.46,-0.84,-0.84,-0.84
136.48,-1.37,-0.49,-1.38,-0.50,0.50,0.38,0.44,-0.87,-0.88,-0.87
137.84,-1.40,-0.50,-1.39,-0.49,0.48,0.35,0.42,-0.92,-0.91,-0.90
139.22,-1.40,-0.47,-1.39,-0.47,0.46,0.32,0.40,-0.94,-0.94,-0.93
140.61,-1.40,-0.44,-1.40,-0.44,0.43,0.30,0.38,-0.96,-0.96,-0.96
142.02,-1.40,-0.41,-1.40,-0.41,0.41,0.27,0.37,-0.98,-0.98,-0.98
143.44,-1.40,-0.39,-1.39,-0.38,0.39,0.24,0.35,-1.00,-1.00,-1.01
144.87,-1.40,-0.36,-1.40,-0.36,0.37,0.22,0.33,-1.02,-1.03,-1.04
146.32,-1.41,-0.34,-1.41,-0.35,0.35,0.19,0.31,-1.05,-1.06,-1.06
147.78,-1.44,-0.35,-1.43,-0.34,0.33,0.17,0.30,-1.10,-1.09,-1.09
149.26,-1.44,-0.32,-1.44,-0.32,0.32,0.14,0.28,-1.12,-1.12,-1.11
150.75,-1.44,-0.30,-1.44,-0.30,0.30,0.12,0.26,-1.14,-1.14,-1.13
152.26,-1.44,-0.28,-1.44,-0.28,0.28,0.10,0.24,-1.16,-1.16,-1.16
153.78,-1.44,-0.26,-1.44,-0.26,0.26,0.08,0.23,-1.18,-1.18,-1.18
155.32,-1.44,-0.23,-1.44,-0.23,0.24,0.05,0.21,-1.20,-1.20,-1.20
156.88,-1.44,-0.21,-1.44,-0.21,0.21,0.03,0.20,-1.22,-1.22,-1.22
158.44,-1.44,-0.19,-1.44,-0.19,0.19,0.01,0.18,-1.24,-1.24,-1.24
160.03,-1.44,-0.17,-1.44,-0.17,0.17,-0.01,0.16,-1.26,-1.26,-1.26
161.63,-1.44,-0.15,-1.44,-0.15,0.15,-0.03,0.15,-1.28,-1.28,-1.28
163.24,-1.44,-0.13,-1.44,-0.13,0.13,-0.05,0.13,-1.30,-1.30,-1.30
164.88,-1.44,-0.12,-1.44,-0.12,0.12,-0.07,0.11,-1.32,-1.32,-1.32
166.53,-1.44,-0.10,-1.44,-0.10,0.10,-0.09,0.10,-1.34,-1.34,-1.34
168.19,-1.44,-0.08,-1.44,-0.08,0.08,-0.11,0.08,-1.36,-1.36,-1.36
169.87,-1.44,-0.06,-1.44,-0.06,0.06,-0.12,0.07,-1.37,-1.37,-1.37
171.57,-1.44,-0.05,-1.44,-0.05,0.04,-0.14,0.05,-1.39,-1.39,-1.39
173.29,-1.44,-0.03,-1.44,-0.03,0.03,-0.16,0.03,-1.41,-1.41,-1.40
175.02,-1.44,-0.02,-1.44,-0.02,0.02,-0.18,0.02,-1.42,-1.42,-1.42
176.77,-1.44,-0.00,-1.43,0.00,0.00,-0.19,0.00,-1.43,-1.43,-1.43
178.54,-1.44,0.01,-1.44,0.01,-0.01,-0.21,-0.02,-1.44,-1.44,-1.45
180.32,-1.44,0.03,-1.44,0.02,-0.01,-0.22,-0.03,-1.45,-1.46,-1.46
182.13,-1.46,0.02,-1.45,0.02,-0.02,-0.24,-0.05,-1.48,-1.47,-1.48
183.95,-1.47,0.02,-1.47,0.02,-0.03,-0.25,-0.07,-1.49,-1.49,-1.49
185.79,-1.48,0.03,-1.47,0.03,-0.04,-0.27,-0.08,-1.51,-1.51,-1.50
187.65,-1.48,0.04,-1.48,0.04,-0.04,-0.28,-0.10,-1.52,-1.52,-1.51
189.52,-1.48,0.05,-1.48,0.05,-0.05,-0.29,-0.12,-1.53,-1.53,-1.52
191.42,-1.48,0.06,-1.48,0.06,-0.06,-0.30,-0.13,-1.53,-1.53,-1.54
193.33,-1.48,0.07,-1.48,0.07,-0.07,-0.32,-0.15,-1.54,-1.54,-1.55
195.27,-1.48,0.08,-1.48,0.08,-0.08,-0.33,-0.17,-1.55,-1.55,-1.56
197.22,-1.48,0.09,-1.48,0.09,-0.09,-0.34,-0.18,-1.56,-1.56,-1.57
199.19,-1.48,0.10,-1.48,0.10,-0.10,-0.35,-0.20,-1.57,-1.57,-1.58
201.18,-1.48,0.11,-1.48,0.11,-0.11,-0.36,-0.22,-1.58,-1.58,-1.59
203.19,-1.48,0.12,-1.48,0.12,-0.12,-0.37,-0.24,-1.59,-1.59,-1.59
205.23,-1.48,0.13,-1.48,0.12,-0.13,-0.38,-0.25,-1.61,-1.61,-1.60
207.28,-1.48,0.13,-1.48,0.13,-0.14,-0.39,-0.27,-1.62,-1.62,-1.61
209.35,-1.48,0.14,-1.47,0.15,-0.16,-0.40,-0.29,-1.63,-1.63,-1.62
211.44,-1.46,0.17,-1.46,0.17,-0.17,-0.41,-0.30,-1.63,-1.63,-1.63
213.56,-1.44,0.20,-1.44,0.19,-0.18,-0.42,-0.32,-1.62,-1.63,-1.63
215.69,-1.44,0.20,-1.44,0.21,-0.20,-0.43,-0.33,-1.63,-1.63,-1.64
217.85,-1.44,0.21,-1.43,0.21,-0.21,-0.44,-0.35,-1.64,-1.64,-1.65
220.03,-1.44,0.22,-1.44,0.22,-0.21,-0.44,-0.37,-1.65,-1.65,-1.65
222.23,-1.44,0.22,-1.44,0.22,-0.22,-0.45,-0.38,-1.66,-1.66,-1.66
224.45,-1.44,0.23,-1.44,0.23,-0.23,-0.46,-0.39,-1.67,-1.67,-1.67
226.70,-1.44,0.23,-1.44,0.23,-0.24,-0.47,-0.41,-1.68,-1.68,-1.67
228.96,-1.44,0.24,-1.44,0.24,-0.25,-0.47,-0.42,-1.69,-1.69,-1.68
231.25,-1.44,0.24,-1.43,0.25,-0.26,-0.48,-0.43,-1.69,-1.69,-1.68
233.57,-1.42,0.27,-1.42,0.27,-0.27,-0.49,-0.44,-1.69,-1.69,-1.69
235.90,-1.40,0.29,-1.40,0.29,-0.28,-0.49,-0.45,-1.68,-1.68,-1.69
238.26,-1.40,0.30,-1.40,0.30,-0.29,-0.50,-0.46,-1.69,-1.69,-1.69
240.64,-1.40,0.30,-1.39,0.30,-0.30,-0.50,-0.47,-1.70,-1.69,-1.70
243.05,-1.40,0.31,-1.40,0.31,-0.31,-0.51,-0.48,-1.70,-1.70,-1.70
245.48,-1.40,0.31,-1.40,0.31,-0.31,-0.51,-0.49,-1.71,-1.71,-1.71
247.93,-1.40,0.31,-1.40,0.31,-0.31,-0.52,-0.49,-1.71,-1.71,-1.71
250.41,-1.40,0.32,-1.40,0.32,-0.32,-0.52,-0.50,-1.71,-1.71,-1.71
252.92,-1.40,0.32,-1.40,0.32,-0.32,-0.53,-0.50,-1.72,-1.72,-1.72
255.45,-1.40,0.32,-1.40,0.32,-0.33,-0.53,-0.50,-1.73,-1.73,-1.72
258.00,-1.40,0.33,-1.39,0.33,-0.34,-0.53,-0.50,-1.73,-1.73,-1.72
260.58,-1.40,0.33,-1.38,0.35,-0.35,-0.54,-0.51,-1.74,-1.73,-1.73
263.19,-1.35,0.38,-1.36,0.37,-0.36,-0.54,-0.51,-1.70,-1.72,-1.73
265.82,-1.35,0.38,-1.35,0.38,-0.37,-0.55,-0.50,-1.72,-1.72,-1.73
268.48,-1.35,0.39,-1.34,0.39,-0.38,-0.55,-0.50,-1.73,-1.73,-1.73
271.16,-1.35,0.39,-1.35,0.39,-0.40,-0.55,-0.50,-1.74,-1.74,-1.73
273.87,-1.35,0.39,-1.34,0.40,-0.41,-0.56,-0.50,-1.75,-1.74,-1.74
276.61,-1.33,0.41,-1.33,0.41,-0.41,-0.56,-0.49,-1.74,-1.74,-1.74
279.38,-1.31,0.43,-1.31,0.43,-0.42,-0.56,-0.49,-1.73,-1.73,-1.74
282.17,-1.31,0.44,-1.31,0.44,-0.43,-0.57,-0.48,-1.73,-1.73,-1.74
284.99,-1.31,0.44,-1.31,0.44,-0.44,-0.57,-0.48,-1.74,-1.74,-1.74
287.84,-1.31,0.44,-1.31,0.44,-0.45,-0.57,-0.47,-1.75,-1.75,-1.75
290.72,-1.31,0.44,-1.30,0.45,-0.45,-0.57,-0.47,-1.76,-1.76,-1.75
293.63,-1.30,0.45,-1.29,0.46,-0.46,-0.58,-0.46,-1.76,-1.75,-1.75
296.57,-1.27,0.48,-1.28,0.47,-0.47,-0.58,-0.45,-1.73,-1.74,-1.75
299.53,-1.27,0.48,-1.27,0.48,-0.47,-0.58,-0.45,-1.74,-1.74,-1.75
302.53,-1.27,0.48,-1.26,0.49,-0.48,-0.59,-0.44,-1.75,-1.74,-1.75
305.55,-1.27,0.49,-1.27,0.48,-0.49,-0.59,-0.43,-1.76,-1.76,-1.75
308.61,-1.27,0.49,-1.26,0.49,-0.50,-0.59,-0.43,-1.77,-1.76,-1.75
311.69,-1.27,0.49,-1.25,0.50,-0.51,-0.59,-0.42,-1.78,-1.76,-1.75
314.81,-1.22,0.54,-1.24,0.52,-0.52,-0.60,-0.41,-1.74,-1.76,-1.75
317.96,-1.22,0.54,-1.22,0.54,-0.53,-0.60,-0.41,-1.75,-1.75,-1.75
321.14,-1.22,0.54,-1.20,0.56,-0.55,-0.60,-0.40,-1.76,-1.74,-1.75
324.35,-1.18,0.58,-1.19,0.56,-0.56,-0.61,-0.39,-1.74,-1.76,-1.75
327.59,-1.18,0.58,-1.18,0.58,-0.58,-0.61,-0.39,-1.76,-1.76,-1.76
330.87,-1.18,0.58,-1.16,0.59,-0.60,-0.61,-0.38,-1.77,-1.76,-1.76
334.18,-1.14,0.62,-1.15,0.61,-0.62,-0.62,-0.37,-1.75,-1.76,-1.76
337.52,-1.14,0.62,-1.12,0.63,-0.63,-0.62,-0.37,-1.77,-1.76,-1.76
340.90,-1.09,0.67,-1.10,0.66,-0.65,-0.62,-0.36,-1.74,-1.75,-1.76
344.30,-1.09,0.67,-1.08,0.67,-0.67,-0.63,-0.36,-1.75,-1.75,-1.76
347.75,-1.07,0.69,-1.07,0.69,-0.69,-0.63,-0.35,-1.75,-1.75,-1.76
351.23,-1.05,0.71,-1.05,0.70,-0.70,-0.64,-0.35,-1.75,-1.76,-1.76
354.74,-1.05,0.71,-1.03,0.72,-0.72,-0.64,-0.34,-1.77,-1.76,-1.76
358.28,-1.01,0.75,-1.02,0.74,-0.74,-0.65,-0.34,-1.75,-1.76,-1.76
361.87,-1.01,0.75,-1.00,0.75,-0.76,-0.65,-0.34,-1.76,-1.76,-1.75
365.49,-0.99,0.77,-0.98,0.77,-0.77,-0.66,-0.33,-1.76,-1.76,-1.75
369.14,-0.96,0.80,-0.97,0.79,-0.79,-0.66,-0.33,-1.75,-1.75,-1.75
372.83,-0.96,0.80,-0.94,0.81,-0.80,-0.67,-0.33,-1.76,-1.75,-1.75
376.56,-0.92,0.84,-0.93,0.83,-0.82,-0.68,-0.33,-1.74,-1.75,-1.75
380.33,-0.92,0.84,-0.92,0.83,-0.83,-0.68,-0.32,-1.75,-1.76,-1.75
384.13,-0.92,0.84,-0.91,0.84,-0.84,-0.69,-0.32,-1.76,-1.75,-1.75
387.97,-0.92,0.84,-0.90,0.85,-0.85,-0.70,-0.32,-1.77,-1.76,-1.75
391.85,-0.88,0.88,-0.89,0.86,-0.86,-0.71,-0.32,-1.73,-1.75,-1.75
395.77,-0.88,0.87,-0.88,0.87,-0.86,-0.71,-0.32,-1.74,-1.74,-1.75
399.73,-0.88,0.87,-0.87,0.88,-0.87,-0.72,-0.32,-1.75,-1.74,-1.75
403.72,-0.88,0.87,-0.88,0.87,-0.88,-0.73,-0.32,-1.75,-1.76,-1.75
407.76,-0.88,0.87,-0.88,0.87,-0.89,-0.74,-0.32,-1.76,-1.76,-1.75
411.84,-0.88,0.87,-0.87,0.88,-0.89,-0.75,-0.32,-1.77,-1.76,-1.75
415.96,-0.85,0.90,-0.85,0.90,-0.90,-0.76,-0.32,-1.75,-1.75,-1.75
420.12,-0.83,0.92,-0.83,0.91,-0.90,-0.77,-0.32,-1.73,-1.74,-1.75
424.32,-0.83,0.92,-0.82,0.92,-0.91,-0.79,-0.32,-1.74,-1.73,-1.75
428.56,-0.83,0.92,-0.82,0.92,-0.91,-0.80,-0.32,-1.74,-1.74,-1.74
432.85,-0.83,0.92,-0.83,0.92,-0.92,-0.81,-0.32,-1.74,-1.74,-1.74
437.18,-0.83,0.92,-0.83,0.92,-0.92,-0.82,-0.32,-1.75,-1.75,-1.74
441.55,-0.83,0.92,-0.83,0.92,-0.92,-0.83,-0.32,-1.75,-1.75,-1.74
445.96,-0.83,0.92,-0.83,0.92,-0.92,-0.85,-0.33,-1.75,-1.75,-1.74
450.42,-0.83,0.91,-0.83,0.91,-0.92,-0.86,-0.33,-1.74,-1.74,-1.74
454.93,-0.83,0.91,-0.83,0.91,-0.92,-0.87,-0.33,-1.74,-1.74,-1.74
459.48,-0.83,0.91,-0.83,0.91,-0.91,-0.88,-0.33,-1.74,-1.74,-1.74
464.07,-0.83,0.91,-0.82,0.92,-0.91,-0.89,-0.34,-1.73,-1.73,-1.74
