frequency,raw,error,smoothed,error_smoothed,equalization,parametric_eq,fixed_band_eq,equalized_raw,equalized_smoothed,target
20.00,10.66,5.35,10.66,5.35,-5.35,-6.58,-3.47,5.32,5.32,5.31
20.20,10.71,5.40,10.71,5.40,-5.40,-6.60,-3.57,5.31,5.31,5.31
20.40,10.76,5.46,10.77,5.46,-5.46,-6.63,-3.66,5.30,5.31,5.30
20.61,10.81,5.51,10.82,5.52,-5.52,-6.66,-3.76,5.29,5.30,5.30
20.81,10.87,5.58,10.87,5.58,-5.58,-6.68,-3.87,5.30,5.29,5.29
21.02,10.92,5.63,10.92,5.63,-5.64,-6.71,-3.97,5.29,5.29,5.29
21.23,10.97,5.69,10.98,5.69,-5.70,-6.73,-4.08,5.27,5.28,5.28
21.44,11.03,5.76,11.03,5.76,-5.76,-6.76,-4.20,5.27,5.27,5.28
21.66,11.09,5.82,11.10,5.83,-5.83,-6.78,-4.31,5.27,5.27,5.27
21.87,11.16,5.90,11.16,5.90,-5.89,-6.81,-4.43,5.27,5.27,5.27
22.09,11.22,5.97,11.22,5.96,-5.96,-6.83,-4.55,5.26,5.26,5.26
22.31,11.28,6.03,11.29,6.03,-6.03,-6.86,-4.68,5.26,5.26,5.26
22.54,11.34,6.09,11.35,6.09,-6.10,-6.89,-4.81,5.25,5.25,5.26
22.76,11.41,6.17,11.41,6.16,-6.16,-6.91,-4.94,5.25,5.25,5.25
22.99,11.47,6.23,11.47,6.23,-6.23,-6.94,-5.08,5.25,5.24,5.25
23.22,11.52,6.29,11.53,6.29,-6.29,-6.96,-5.22,5.23,5.24,5.23
23.45,11.58,6.35,11.58,6.35,-6.35,-6.99,-5.36,5.23,5.24,5.23
23.69,11.64,6.41,11.64,6.41,-6.41,-7.01,-5.51,5.24,5.23,5.23
23.92,11.69,6.47,11.69,6.47,-6.46,-7.04,-5.65,5.23,5.23,5.22
24.16,11.74,6.52,11.74,6.52,-6.52,-7.07,-5.80,5.23,5.22,5.22
24.40,11.78,6.56,11.79,6.57,-6.57,-7.09,-5.96,5.21,5.22,5.22
24.65,11.83,6.61,11.83,6.62,-6.62,-7.12,-6.12,5.21,5.21,5.22
24.89,11.88,6.68,11.88,6.67,-6.67,-7.14,-6.27,5.21,5.21,5.21
25.14,11.93,6.73,11.93,6.73,-6.73,-7.17,-6.44,5.21,5.21,5.21
25.39,11.98,6.78,11.98,6.78,-6.78,-7.20,-6.60,5.21,5.21,5.21
25.65,12.03,6.83,12.03,6.83,-6.83,-7.22,-6.76,5.21,5.21,5.21
25.91,12.08,6.88,12.08,6.88,-6.88,-7.25,-6.93,5.20,5.20,5.20
26.16,12.13,6.93,12.13,6.93,-6.93,-7.27,-7.10,5.21,5.20,5.20
26.43,12.17,6.97,12.18,6.98,-6.98,-7.30,-7.26,5.20,5.20,5.20
26.69,12.22,7.03,12.22,7.03,-7.03,-7.33,-7.43,5.20,5.20,5.19
26.96,12.26,7.07,12.27,7.08,-7.07,-7.35,-7.59,5.19,5.19,5.19
27.23,12.31,7.12,12.31,7.12,-7.12,-7.38,-7.75,5.19,5.19,5.19
27.50,12.35,7.17,12.35,7.17,-7.17,-7.41,-7.91,5.19,5.19,5.19
27.77,12.39,7.21,12.40,7.22,-7.22,-7.43,-8.07,5.18,5.18,5.19
28.05,12.44,7.27,12.44,7.26,-7.27,-7.46,-8.22,5.18,5.17,5.17
28.33,12.48,7.31,12.49,7.31,-7.32,-7.49,-8.37,5.17,5.17,5.17
28.62,12.53,7.36,12.54,7.37,-7.37,-7.51,-8.51,5.17,5.17,5.17
28.90,12.58,7.42,12.58,7.42,-7.42,-7.54,-8.64,5.17,5.16,5.16
29.19,12.63,7.48,12.63,7.47,-7.47,-7.57,-8.76,5.16,5.16,5.16
29.48,12.67,7.52,12.68,7.52,-7.52,-7.59,-8.87,5.15,5.15,5.16
29.78,12.72,7.58,12.72,7.57,-7.57,-7.62,-8.98,5.15,5.15,5.14
30.08,12.76,7.62,12.77,7.62,-7.62,-7.65,-9.07,5.14,5.14,5.14
30.38,12.81,7.67,12.81,7.67,-7.67,-7.68,-9.15,5.14,5.14,5.14
30.68,12.85,7.72,12.86,7.72,-7.72,-7.71,-9.21,5.14,5.14,5.14
30.99,12.90,7.77,12.90,7.76,-7.76,-7.73,-9.27,5.14,5.14,5.14
31.30,12.94,7.81,12.94,7.81,-7.80,-7.76,-9.31,5.14,5.14,5.13
31.61,12.98,7.84,12.98,7.85,-7.85,-7.79,-9.34,5.14,5.14,5.14
31.93,13.02,7.88,13.02,7.88,-7.89,-7.82,-9.35,5.14,5.14,5.14
32.24,13.06,7.93,13.06,7.93,-7.93,-7.85,-9.36,5.14,5.14,5.14
32.57,13.10,7.97,13.10,7.97,-7.97,-7.88,-9.34,5.14,5.14,5.14
32.89,13.14,8.01,13.14,8.01,-8.01,-7.91,-9.33,5.13,5.13,5.13
33.22,13.18,8.05,13.18,8.05,-8.05,-7.94,-9.29,5.13,5.13,5.13
33.55,13.21,8.09,13.22,8.09,-8.10,-7.97,-9.25,5.12,5.12,5.13
33.89,13.26,8.14,13.26,8.14,-8.14,-8.00,-9.20,5.12,5.12,5.12
34.23,13.29,8.18,13.30,8.18,-8.18,-8.04,-9.14,5.11,5.11,5.11
34.57,13.33,8.23,13.33,8.23,-8.23,-8.07,-9.08,5.10,5.10,5.11
34.92,13.37,8.28,13.37,8.28,-8.28,-8.10,-9.01,5.10,5.10,5.09
35.27,13.40,8.32,13.41,8.32,-8.32,-8.14,-8.93,5.08,5.08,5.08
35.62,13.44,8.38,13.44,8.37,-8.37,-8.17,-8.86,5.08,5.07,5.07
35.97,13.46,8.40,13.47,8.41,-8.41,-8.20,-8.78,5.05,5.06,5.06
36.33,13.50,8.45,13.50,8.45,-8.46,-8.24,-8.70,5.05,5.04,5.05
36.70,13.52,8.50,13.53,8.50,-8.50,-8.27,-8.61,5.03,5.03,5.03
37.06,13.55,8.54,13.55,8.54,-8.54,-8.31,-8.53,5.02,5.02,5.01
37.43,13.57,8.58,13.57,8.58,-8.57,-8.35,-8.45,5.00,5.00,5.00
37.81,13.59,8.61,13.59,8.61,-8.60,-8.38,-8.37,4.99,4.99,4.98
38.19,13.60,8.63,13.61,8.63,-8.63,-8.42,-8.29,4.97,4.97,4.97
38.57,13.62,8.66,13.62,8.66,-8.66,-8.45,-8.21,4.96,4.96,4.96
38.95,13.63,8.68,13.63,8.68,-8.69,-8.49,-8.14,4.95,4.95,4.95
39.34,13.64,8.71,13.65,8.71,-8.71,-8.53,-8.07,4.94,4.94,4.93
39.74,13.65,8.72,13.65,8.73,-8.73,-8.56,-8.01,4.93,4.93,4.93
40.14,13.66,8.75,13.66,8.75,-8.74,-8.60,-7.95,4.92,4.92,4.91
40.54,13.66,8.76,13.67,8.76,-8.76,-8.63,-7.89,4.90,4.91,4.91
40.94,13.68,8.78,13.68,8.78,-8.78,-8.66,-7.84,4.91,4.90,4.90
41.35,13.68,8.79,13.69,8.79,-8.79,-8.69,-7.79,4.89,4.89,4.90
41.76,13.69,8.80,13.69,8.80,-8.81,-8.72,-7.75,4.89,4.89,4.89
42.18,13.70,8.82,13.70,8.82,-8.82,-8.74,-7.72,4.88,4.88,4.88
42.60,13.70,8.83,13.71,8.83,-8.83,-8.77,-7.69,4.87,4.88,4.88
43.03,13.71,8.84,13.71,8.84,-8.84,-8.79,-7.66,4.88,4.87,4.87
43.46,13.71,8.85,13.71,8.85,-8.84,-8.81,-7.64,4.87,4.87,4.86
43.90,13.71,8.86,13.71,8.85,-8.85,-8.82,-7.63,4.86,4.86,4.86
44.33,13.70,8.85,13.70,8.85,-8.85,-8.83,-7.62,4.85,4.85,4.86
44.78,13.69,8.84,13.70,8.85,-8.85,-8.84,-7.62,4.84,4.85,4.85
45.23,13.68,8.84,13.69,8.84,-8.85,-8.84,-7.62,4.84,4.84,4.84
45.68,13.68,8.84,13.68,8.84,-8.84,-8.84,-7.63,4.84,4.84,4.84
46.13,13.67,8.84,13.67,8.84,-8.83,-8.84,-7.64,4.84,4.84,4.83
46.60,13.64,8.82,13.65,8.83,-8.82,-8.83,-7.66,4.82,4.83,4.82
47.06,13.63,8.82,13.63,8.81,-8.81,-8.82,-7.69,4.82,4.81,4.81
47.53,13.60,8.80,13.61,8.80,-8.80,-8.80,-7.72,4.80,4.80,4.80
48.01,13.58,8.79,13.58,8.79,-8.79,-8.79,-7.75,4.79,4.79,4.79
48.49,13.55,8.78,13.55,8.77,-8.78,-8.77,-7.79,4.78,4.78,4.77
48.97,13.52,8.76,13.53,8.76,-8.76,-8.75,-7.84,4.76,4.77,4.76
49.46,13.49,8.74,13.49,8.74,-8.74,-8.72,-7.89,4.75,4.75,4.75
49.96,13.46,8.73,13.46,8.73,-8.73,-8.70,-7.94,4.74,4.73,4.73
50.46,13.41,8.70,13.42,8.70,-8.71,-8.67,-8.00,4.71,4.71,4.72
50.96,13.38,8.69,13.38,8.69,-8.69,-8.64,-8.06,4.69,4.69,4.69
51.47,13.34,8.66,13.35,8.67,-8.67,-8.61,-8.12,4.68,4.68,4.68
51.99,13.31,8.66,13.31,8.65,-8.65,-8.58,-8.19,4.67,4.67,4.66
52.51,13.27,8.63,13.27,8.63,-8.62,-8.55,-8.25,4.65,4.65,4.64
53.03,13.22,8.59,13.23,8.60,-8.60,-8.52,-8.32,4.63,4.63,4.63
53.56,13.17,8.57,13.18,8.57,-8.57,-8.49,-8.39,4.60,4.61,4.61
54.10,13.13,8.54,13.13,8.54,-8.54,-8.46,-8.46,4.59,4.59,4.59
54.64,13.08,8.51,13.08,8.51,-8.51,-8.43,-8.53,4.58,4.58,4.57
55.18,13.03,8.48,13.04,8.48,-8.47,-8.40,-8.60,4.56,4.56,4.56
55.74,12.98,8.43,12.98,8.44,-8.44,-8.37,-8.66,4.55,4.55,4.55
56.29,12.93,8.40,12.93,8.40,-8.40,-8.34,-8.73,4.53,4.53,4.53
56.86,12.87,8.36,12.88,8.36,-8.37,-8.31,-8.79,4.51,4.51,4.51
57.42,12.82,8.33,12.82,8.33,-8.33,-8.27,-8.84,4.49,4.50,4.50
58.00,12.77,8.30,12.77,8.29,-8.29,-8.24,-8.89,4.48,4.48,4.48
58.58,12.71,8.26,12.71,8.26,-8.26,-8.21,-8.93,4.46,4.46,4.46
59.16,12.65,8.22,12.65,8.22,-8.22,-8.18,-8.97,4.44,4.44,4.44
59.76,12.59,8.18,12.59,8.18,-8.18,-8.15,-8.99,4.41,4.41,4.42
60.35,12.53,8.14,12.53,8.14,-8.14,-8.11,-9.01,4.39,4.39,4.39
60.96,12.47,8.11,12.47,8.11,-8.11,-8.08,-9.02,4.37,4.36,4.36
61.57,12.40,8.07,12.40,8.07,-8.07,-8.05,-9.02,4.34,4.34,4.34
62.18,12.33,8.02,12.34,8.03,-8.03,-8.01,-9.01,4.30,4.31,4.31
62.80,12.27,7.99,12.27,7.99,-7.99,-7.98,-8.99,4.28,4.28,4.28
63.43,12.20,7.95,12.20,7.95,-7.95,-7.94,-8.96,4.25,4.25,4.25
64.07,12.13,7.92,12.13,7.91,-7.91,-7.91,-8.93,4.22,4.22,4.22
64.71,12.06,7.87,12.06,7.87,-7.87,-7.87,-8.88,4.19,4.19,4.19
65.35,11.99,7.83,11.99,7.83,-7.83,-7.83,-8.82,4.16,4.17,4.16
66.01,11.92,7.79,11.92,7.79,-7.79,-7.80,-8.75,4.14,4.14,4.14
66.67,11.85,7.75,11.85,7.74,-7.74,-7.76,-8.68,4.11,4.11,4.11
67.33,11.77,7.70,11.78,7.70,-7.70,-7.72,-8.60,4.07,4.08,4.08
68.01,11.70,7.66,11.70,7.66,-7.66,-7.68,-8.51,4.05,4.05,4.05
68.69,11.63,7.62,11.63,7.61,-7.61,-7.64,-8.41,4.02,4.01,4.02
69.37,11.55,7.57,11.55,7.57,-7.57,-7.60,-8.32,3.98,3.98,3.98
70.07,11.47,7.52,11.48,7.53,-7.53,-7.55,-8.21,3.94,3.95,3.95
70.77,11.40,7.49,11.40,7.49,-7.49,-7.51,-8.11,3.92,3.91,3.92
71.48,11.32,7.45,11.32,7.45,-7.44,-7.46,-8.00,3.88,3.88,3.87
72.19,11.24,7.41,11.25,7.41,-7.40,-7.42,-7.89,3.84,3.84,3.84
72.91,11.16,7.36,11.16,7.36,-7.36,-7.37,-7.77,3.81,3.81,3.80
73.64,11.08,7.32,11.08,7.31,-7.31,-7.32,-7.66,3.77,3.77,3.76
74.38,10.99,7.26,11.00,7.26,-7.27,-7.27,-7.55,3.73,3.73,3.74
75.12,10.91,7.22,10.91,7.22,-7.22,-7.22,-7.44,3.69,3.69,3.70
75.87,10.83,7.17,10.83,7.17,-7.17,-7.17,-7.33,3.66,3.66,3.66
76.63,10.74,7.12,10.75,7.13,-7.13,-7.12,-7.22,3.62,3.62,3.62
77.40,10.66,7.09,10.66,7.08,-7.08,-7.07,-7.11,3.58,3.58,3.58
78.17,10.57,7.04,10.57,7.03,-7.03,-7.01,-7.01,3.54,3.54,3.54
78.95,10.47,6.98,10.48,6.99,-6.98,-6.96,-6.91,3.49,3.49,3.49
79.74,10.39,6.94,10.39,6.94,-6.94,-6.91,-6.81,3.46,3.45,3.45
80.54,10.29,6.89,10.30,6.89,-6.89,-6.85,-6.71,3.40,3.41,3.41
81.35,10.21,6.84,10.21,6.84,-6.84,-6.80,-6.62,3.37,3.37,3.37
82.16,10.11,6.79,10.12,6.79,-6.79,-6.75,-6.54,3.32,3.32,3.33
82.98,10.02,6.74,10.03,6.75,-6.75,-6.69,-6.45,3.28,3.28,3.28
83.81,9.94,6.70,9.94,6.70,-6.70,-6.64,-6.38,3.24,3.24,3.24
84.65,9.85,6.66,9.85,6.66,-6.66,-6.59,-6.30,3.20,3.19,3.19
85.50,9.75,6.61,9.76,6.61,-6.61,-6.54,-6.23,3.14,3.15,3.15
86.35,9.67,6.57,9.67,6.57,-6.57,-6.49,-6.17,3.10,3.10,3.11
87.22,9.58,6.53,9.58,6.53,-6.53,-6.44,-6.11,3.06,3.06,3.06
88.09,9.49,6.49,9.49,6.49,-6.48,-6.39,-6.05,3.01,3.01,3.01
88.97,9.40,6.44,9.41,6.44,-6.44,-6.35,-6.00,2.96,2.96,2.97
89.86,9.31,6.40,9.31,6.40,-6.40,-6.31,-5.95,2.92,2.92,2.91
90.76,9.22,6.35,9.22,6.35,-6.35,-6.27,-5.91,2.87,2.87,2.87
91.66,9.12,6.30,9.12,6.31,-6.30,-6.23,-5.87,2.82,2.82,2.82
92.58,9.02,6.26,9.03,6.26,-6.25,-6.19,-5.84,2.77,2.77,2.77
93.51,8.92,6.20,8.92,6.20,-6.20,-6.15,-5.80,2.72,2.72,2.72
94.44,8.82,6.16,8.82,6.15,-6.15,-6.12,-5.78,2.67,2.67,2.67
95.39,8.71,6.10,8.72,6.10,-6.10,-6.09,-5.76,2.61,2.61,2.61
96.34,8.61,6.05,8.61,6.05,-6.05,-6.06,-5.74,2.56,2.56,2.56
97.30,8.50,6.00,8.51,6.00,-6.01,-6.03,-5.72,2.50,2.50,2.50
98.28,8.40,5.96,8.40,5.96,-5.96,-6.00,-5.71,2.45,2.45,2.45
99.26,8.29,5.91,8.30,5.91,-5.91,-5.97,-5.70,2.39,2.39,2.38
100.25,8.19,5.87,8.19,5.86,-5.86,-5.95,-5.70,2.33,2.33,2.33
101.25,8.08,5.81,8.08,5.82,-5.81,-5.92,-5.70,2.27,2.27,2.27
102.27,7.97,5.77,7.97,5.77,-5.77,-5.90,-5.70,2.21,2.21,2.21
103.29,7.86,5.71,7.86,5.72,-5.72,-5.87,-5.70,2.15,2.15,2.15
104.32,7.75,5.67,7.75,5.67,-5.67,-5.85,-5.71,2.09,2.09,2.08
105.37,7.64,5.62,7.65,5.62,-5.62,-5.82,-5.71,2.03,2.03,2.03
106.42,7.54,5.57,7.54,5.57,-5.57,-5.80,-5.72,1.97,1.97,1.97
107.48,7.43,5.52,7.43,5.52,-5.52,-5.77,-5.73,1.91,1.91,1.91
108.56,7.32,5.48,7.33,5.47,-5.47,-5.75,-5.74,1.85,1.85,1.85
109.64,7.22,5.43,7.22,5.43,-5.43,-5.72,-5.75,1.79,1.79,1.79
110.74,7.11,5.38,7.12,5.39,-5.39,-5.70,-5.76,1.73,1.73,1.74
111.85,7.02,5.35,7.02,5.35,-5.35,-5.67,-5.77,1.67,1.67,1.67
112.97,6.93,5.32,6.93,5.32,-5.32,-5.64,-5.77,1.62,1.61,1.61
114.10,6.84,5.29,6.84,5.29,-5.29,-5.62,-5.78,1.55,1.55,1.55
115.24,6.75,5.26,6.76,5.27,-5.28,-5.59,-5.78,1.48,1.48,1.49
116.39,6.68,5.26,6.69,5.26,-5.27,-5.56,-5.78,1.42,1.42,1.42
117.55,6.62,5.27,6.62,5.26,-5.27,-5.53,-5.78,1.36,1.35,1.36
118.73,6.56,5.27,6.56,5.27,-5.28,-5.50,-5.78,1.29,1.28,1.29
119.92,6.50,5.29,6.51,5.29,-5.30,-5.47,-5.77,1.21,1.21,1.22
121.12,6.46,5.32,6.46,5.32,-5.32,-5.44,-5.76,1.14,1.14,1.15
122.33,6.42,5.35,6.43,5.35,-5.35,-5.41,-5.74,1.07,1.07,1.07
123.55,6.39,5.39,6.39,5.39,-5.39,-5.38,-5.72,1.00,1.00,1.00
124.79,6.35,5.42,6.35,5.43,-5.43,-5.35,-5.70,0.93,0.93,0.93
126.03,6.31,5.46,6.32,5.47,-5.46,-5.32,-5.67,0.85,0.86,0.85
127.29,6.28,5.50,6.28,5.50,-5.50,-5.29,-5.64,0.79,0.78,0.78
128.57,6.24,5.53,6.24,5.53,-5.53,-5.25,-5.60,0.72,0.72,0.71
129.85,6.19,5.55,6.20,5.55,-5.55,-5.22,-5.56,0.64,0.65,0.64
131.15,6.15,5.57,6.15,5.57,-5.57,-5.19,-5.52,0.59,0.58,0.58
132.46,6.10,5.58,6.10,5.58,-5.58,-5.15,-5.47,0.53,0.52,0.53
133.79,6.04,5.57,6.05,5.58,-5.58,-5.12,-5.42,0.46,0.47,0.47
135.12,5.99,5.58,5.99,5.58,-5.58,-5.09,-5.36,0.42,0.42,0.41
136.48,5.93,5.56,5.93,5.57,-5.56,-5.05,-5.31,0.37,0.37,0.37
137.84,5.86,5.55,5.87,5.55,-5.54,-5.02,-5.24,0.32,0.32,0.31
139.22,5.79,5.52,5.79,5.52,-5.52,-4.99,-5.18,0.28,0.27,0.27
140.61,5.70,5.48,5.71,5.48,-5.48,-4.95,-5.12,0.22,0.23,0.23
142.02,5.62,5.44,5.63,5.44,-5.44,-4.92,-5.05,0.18,0.19,0.19
143.44,5.54,5.40,5.54,5.39,-5.39,-4.89,-4.98,0.15,0.14,0.15
144.87,5.44,5.34,5.45,5.34,-5.34,-4.85,-4.92,0.10,0.11,0.10
146.32,5.35,5.29,5.36,5.29,-5.28,-4.82,-4.85,0.07,0.07,0.07
147.78,5.26,5.23,5.26,5.22,-5.23,-4.79,-4.78,0.04,0.03,0.04
149.26,5.16,5.17,5.17,5.17,-5.17,-4.75,-4.72,-0.01,-0.01,-0.00
150.75,5.06,5.10,5.07,5.11,-5.11,-4.72,-4.65,-0.05,-0.04,-0.04
152.26,4.98,5.06,4.98,5.05,-5.05,-4.69,-4.58,-0.07,-0.08,-0.08
153.78,4.88,4.99,4.89,5.00,-5.00,-4.66,-4.52,-0.12,-0.11,-0.11
155.32,4.80,4.95,4.80,4.95,-4.94,-4.62,-4.46,-0.14,-0.14,-0.15
156.88,4.71,4.89,4.72,4.89,-4.89,-4.59,-4.39,-0.18,-0.18,-0.18
158.44,4.63,4.85,4.63,4.84,-4.85,-4.56,-4.34,-0.21,-0.21,-0.21
160.03,4.55,4.80,4.55,4.80,-4.80,-4.52,-4.28,-0.25,-0.25,-0.24
161.63,4.47,4.75,4.48,4.76,-4.76,-4.49,-4.22,-0.28,-0.28,-0.28
163.24,4.41,4.72,4.41,4.72,-4.72,-4.46,-4.17,-0.30,-0.31,-0.31
164.88,4.34,4.68,4.35,4.68,-4.68,-4.43,-4.12,-0.33,-0.33,-0.34
166.53,4.28,4.64,4.28,4.64,-4.64,-4.40,-4.07,-0.36,-0.36,-0.36
168.19,4.22,4.61,4.22,4.61,-4.61,-4.36,-4.03,-0.39,-0.39,-0.38
169.87,4.16,4.58,4.17,4.58,-4.58,-4.33,-3.99,-0.41,-0.41,-0.41
171.57,4.11,4.54,4.12,4.55,-4.55,-4.30,-3.95,-0.43,-0.43,-0.43
173.29,4.07,4.53,4.07,4.52,-4.52,-4.27,-3.91,-0.45,-0.45,-0.45
175.02,4.01,4.49,4.02,4.50,-4.49,-4.24,-3.88,-0.48,-0.47,-0.48
176.77,3.97,4.47,3.97,4.47,-4.47,-4.21,-3.85,-0.49,-0.49,-0.49
178.54,3.92,4.44,3.92,4.44,-4.44,-4.18,-3.82,-0.52,-0.52,-0.52
180.32,3.88,4.42,3.88,4.42,-4.42,-4.14,-3.80,-0.53,-0.54,-0.53
182.13,3.83,4.39,3.84,4.39,-4.39,-4.11,-3.78,-0.56,-0.56,-0.55
183.95,3.79,4.37,3.79,4.37,-4.37,-4.08,-3.75,-0.57,-0.57,-0.58
185.79,3.75,4.34,3.75,4.35,-4.35,-4.05,-3.74,-0.59,-0.59,-0.59
187.65,3.71,4.32,3.71,4.32,-4.32,-4.02,-3.72,-0.61,-0.61,-0.61
189.52,3.67,4.30,3.67,4.30,-4.30,-3.99,-3.71,-0.63,-0.63,-0.63
191.42,3.63,4.27,3.64,4.28,-4.28,-3.96,-3.70,-0.64,-0.64,-0.64
193.33,3.60,4.26,3.60,4.26,-4.26,-3.93,-3.70,-0.65,-0.66,-0.66
195.27,3.56,4.24,3.56,4.24,-4.23,-3.90,-3.69,-0.67,-0.67,-0.68
197.22,3.52,4.22,3.52,4.21,-4.21,-3.87,-3.69,-0.69,-0.69,-0.69
199.19,3.48,4.18,3.49,4.19,-4.19,-3.84,-3.69,-0.71,-0.70,-0.70
201.18,3.44,4.16,3.45,4.16,-4.17,-3.81,-3.69,-0.72,-0.72,-0.72
203.19,3.41,4.15,3.41,4.14,-4.14,-3.78,-3.70,-0.73,-0.73,-0.73
205.23,3.36,4.11,3.37,4.12,-4.12,-3.75,-3.70,-0.75,-0.75,-0.75
207.28,3.33,4.10,3.33,4.09,-4.09,-3.72,-3.71,-0.76,-0.76,-0.76
209.35,3.28,4.06,3.29,4.06,-4.07,-3.69,-3.72,-0.78,-0.78,-0.78
211.44,3.24,4.04,3.25,4.04,-4.04,-3.66,-3.72,-0.79,-0.79,-0.79
213.56,3.20,4.01,3.20,4.01,-4.01,-3.63,-3.73,-0.81,-0.81,-0.81
215.69,3.16,3.98,3.16,3.98,-3.98,-3.60,-3.74,-0.82,-0.82,-0.82
217.85,3.12,3.96,3.12,3.95,-3.95,-3.57,-3.75,-0.83,-0.83,-0.83
220.03,3.07,3.92,3.08,3.92,-3.92,-3.54,-3.76,-0.85,-0.84,-0.84
222.23,3.03,3.89,3.03,3.89,-3.89,-3.51,-3.77,-0.85,-0.86,-0.86
224.45,2.98,3.85,2.98,3.85,-3.85,-3.48,-3.77,-0.87,-0.87,-0.87
226.70,2.93,3.81,2.94,3.82,-3.82,-3.45,-3.78,-0.88,-0.88,-0.88
228.96,2.89,3.78,2.89,3.78,-3.78,-3.42,-3.78,-0.89,-0.89,-0.89
231.25,2.84,3.74,2.84,3.74,-3.74,-3.39,-3.79,-0.90,-0.90,-0.90
233.57,2.78,3.70,2.79,3.70,-3.70,-3.36,-3.79,-0.92,-0.92,-0.92
235.90,2.73,3.66,2.73,3.66,-3.67,-3.33,-3.79,-0.93,-0.93,-0.93
238.26,2.68,3.62,2.68,3.62,-3.63,-3.29,-3.78,-0.94,-0.94,-0.94
240.64,2.62,3.58,2.63,3.59,-3.58,-3.26,-3.77,-0.96,-0.95,-0.96
243.05,2.58,3.55,2.58,3.54,-3.54,-3.23,-3.76,-0.96,-0.96,-0.97
245.48,2.52,3.50,2.52,3.50,-3.50,-3.20,-3.75,-0.97,-0.97,-0.98
247.93,2.46,3.45,2.47,3.45,-3.45,-3.17,-3.74,-0.99,-0.98,-0.98
250.41,2.41,3.41,2.41,3.41,-3.41,-3.14,-3.72,-0.99,-0.99,-0.99
252.92,2.35,3.36,2.35,3.36,-3.36,-3.11,-3.69,-1.01,-1.01,-1.01
255.45,2.29,3.31,2.30,3.31,-3.31,-3.08,-3.67,-1.02,-1.02,-1.02
258.00,2.23,3.26,2.24,3.26,-3.27,-3.05,-3.64,-1.03,-1.03,-1.02
260.58,2.18,3.22,2.18,3.22,-3.22,-3.02,-3.61,-1.04,-1.04,-1.04
263.19,2.12,3.17,2.13,3.18,-3.17,-2.99,-3.57,-1.05,-1.05,-1.05
265.82,2.07,3.14,2.07,3.13,-3.13,-2.96,-3.53,-1.05,-1.06,-1.06
268.48,2.01,3.08,2.01,3.08,-3.08,-2.93,-3.49,-1.07,-1.07,-1.07
271.16,1.95,3.04,1.95,3.04,-3.03,-2.90,-3.45,-1.08,-1.08,-1.08
273.87,1.89,2.98,1.89,2.99,-2.99,-2.86,-3.40,-1.09,-1.09,-1.09
276.61,1.83,2.94,1.83,2.94,-2.94,-2.83,-3.35,-1.11,-1.11,-1.11
279.38,1.77,2.89,1.78,2.89,-2.90,-2.80,-3.31,-1.12,-1.12,-1.11
282.17,1.72,2.85,1.72,2.85,-2.85,-2.77,-3.25,-1.13,-1.13,-1.13
284.99,1.67,2.82,1.67,2.81,-2.81,-2.74,-3.20,-1.14,-1.14,-1.14
287.84,1.61,2.77,1.62,2.77,-2.77,-2.71,-3.15,-1.15,-1.15,-1.16
290.72,1.56,2.73,1.56,2.73,-2.73,-2.68,-3.10,-1.16,-1.16,-1.17
293.63,1.50,2.68,1.51,2.69,-2.68,-2.65,-3.04,-1.18,-1.18,-1.18
296.57,1.45,2.64,1.45,2.64,-2.64,-2.61,-2.99,-1.18,-1.19,-1.19
299.53,1.39,2.60,1.39,2.59,-2.59,-2.58,-2.93,-1.20,-1.20,-1.20
302.53,1.33,2.54,1.34,2.55,-2.55,-2.55,-2.88,-1.21,-1.21,-1.21
305.55,1.28,2.50,1.28,2.50,-2.50,-2.52,-2.82,-1.22,-1.22,-1.22
308.61,1.22,2.45,1.23,2.45,-2.45,-2.49,-2.77,-1.23,-1.23,-1.22
311.69,1.17,2.40,1.17,2.41,-2.41,-2.46,-2.72,-1.23,-1.23,-1.23
314.81,1.12,2.37,1.12,2.36,-2.36,-2.42,-2.67,-1.24,-1.24,-1.24
317.96,1.07,2.32,1.07,2.32,-2.32,-2.39,-2.62,-1.24,-1.24,-1.25
321.14,1.02,2.27,1.02,2.27,-2.27,-2.36,-2.57,-1.25,-1.25,-1.25
324.35,0.96,2.23,0.97,2.23,-2.23,-2.33,-2.52,-1.26,-1.26,-1.26
327.59,0.92,2.19,0.92,2.19,-2.18,-2.30,-2.47,-1.26,-1.27,-1.26
330.87,0.86,2.14,0.87,2.14,-2.14,-2.27,-2.42,-1.28,-1.27,-1.28
334.18,0.82,2.10,0.82,2.10,-2.10,-2.23,-2.38,-1.27,-1.28,-1.28
337.52,0.77,2.06,0.77,2.06,-2.06,-2.20,-2.34,-1.28,-1.29,-1.28
340.90,0.72,2.02,0.72,2.01,-2.02,-2.17,-2.30,-1.29,-1.29,-1.29
344.30,0.67,1.97,0.67,1.97,-1.98,-2.14,-2.26,-1.31,-1.30,-1.30
347.75,0.62,1.93,0.63,1.94,-1.94,-2.11,-2.22,-1.32,-1.31,-1.31
351.23,0.59,1.92,0.59,1.91,-1.91,-2.08,-2.18,-1.31,-1.32,-1.32
354.74,0.54,1.88,0.54,1.87,-1.87,-2.05,-2.15,-1.33,-1.33,-1.33
358.28,0.49,1.83,0.50,1.84,-1.84,-2.01,-2.11,-1.34,-1.34,-1.34
361.87,0.46,1.81,0.46,1.80,-1.81,-1.98,-2.08,-1.34,-1.35,-1.35
365.49,0.41,1.77,0.42,1.78,-1.78,-1.95,-2.05,-1.36,-1.36,-1.36
369.14,0.37,1.75,0.38,1.75,-1.75,-1.92,-2.02,-1.38,-1.37,-1.37
372.83,0.34,1.73,0.34,1.72,-1.72,-1.89,-2.00,-1.38,-1.38,-1.38
376.56,0.30,1.70,0.31,1.70,-1.70,-1.86,-1.97,-1.40,-1.39,-1.40
380.33,0.27,1.68,0.27,1.68,-1.68,-1.83,-1.95,-1.40,-1.41,-1.41
384.13,0.23,1.65,0.24,1.66,-1.66,-1.80,-1.93,-1.42,-1.42,-1.42
387.97,0.20,1.63,0.20,1.63,-1.63,-1.77,-1.91,-1.43,-1.43,-1.43
391.85,0.17,1.62,0.17,1.62,-1.61,-1.74,-1.89,-1.44,-1.44,-1.44
395.77,0.14,1.60,0.14,1.60,-1.59,-1.71,-1.87,-1.45,-1.45,-1.45
399.73,0.11,1.58,0.11,1.58,-1.57,-1.68,-1.85,-1.46,-1.46,-1.46
403.72,0.08,1.55,0.08,1.55,-1.55,-1.65,-1.83,-1.47,-1.47,-1.47
407.76,0.05,1.53,0.05,1.53,-1.54,-1.63,-1.82,-1.48,-1.48,-1.48
411.84,0.02,1.51,0.03,1.51,-1.52,-1.60,-1.80,-1.49,-1.49,-1.49
415.96,0.00,1.50,0.00,1.50,-1.50,-1.57,-1.79,-1.50,-1.50,-1.50
420.12,-0.03,1.49,-0.02,1.49,-1.49,-1.54,-1.78,-1.51,-1.51,-1.51
424.32,-0.05,1.48,-0.04,1.48,-1.47,-1.52,-1.76,-1.52,-1.52,-1.52
428.56,-0.07,1.47,-0.07,1.46,-1.46,-1.49,-1.75,-1.53,-1.53,-1.53
432.85,-0.09,1.46,-0.09,1.45,-1.46,-1.46,-1.74,-1.54,-1.54,-1.54
437.18,-0.12,1.44,-0.11,1.45,-1.45,-1.44,-1.73,-1.56,-1.56,-1.56
441.55,-0.13,1.44,-0.13,1.44,-1.44,-1.41,-1.72,-1.57,-1.57,-1.57
445.96,-0.15,1.44,-0.15,1.44,-1.44,-1.39,-1.71,-1.58,-1.58,-1.59
450.42,-0.17,1.43,-0.16,1.44,-1.43,-1.36,-1.70,-1.60,-1.60,-1.60
454.93,-0.18,1.43,-0.18,1.43,-1.43,-1.34,-1.68,-1.61,-1.61,-1.61
459.48,-0.20,1.43,-0.20,1.43,-1.43,-1.32,-1.67,-1.63,-1.63,-1.63
464.07,-0.22,1.42,-0.21,1.43,-1.43,-1.30,-1.66,-1.64,-1.64,-1.64
468.71,-0.23,1.43,-0.23,1.43,-1.43,-1.28,-1.65,-1.65,-1.65,-1.65
473.40,-0.24,1.43,-0.24,1.43,-1.43,-1.26,-1.63,-1.66,-1.67,-1.66
478.13,-0.26,1.43,-0.25,1.43,-1.43,-1.24,-1.62,-1.68,-1.68,-1.68
482.91,-0.27,1.43,-0.27,1.43,-1.43,-1.22,-1.60,-1.69,-1.69,-1.69
487.74,-0.28,1.43,-0.28,1.43,-1.43,-1.20,-1.59,-1.70,-1.71,-1.70
