frequency,raw,error,smoothed,error_smoothed,equalization,parametric_eq,fixed_band_eq,equalized_raw,equalized_smoothed,target
20.00,8.38,4.99,8.38,4.99,-4.99,-4.94,-2.63,3.39,3.39,3.39
20.20,8.39,5.03,8.39,5.03,-5.03,-4.97,-2.70,3.37,3.37,3.36
20.40,8.40,5.06,8.41,5.06,-5.06,-5.00,-2.78,3.34,3.35,3.34
20.61,8.42,5.10,8.42,5.10,-5.09,-5.03,-2.86,3.33,3.32,3.32
20.81,8.43,5.13,8.43,5.13,-5.13,-5.06,-2.94,3.30,3.30,3.30
21.02,8.44,5.16,8.44,5.16,-5.16,-5.10,-3.02,3.28,3.28,3.28
21.23,8.45,5.19,8.45,5.19,-5.19,-5.13,-3.11,3.26,3.26,3.26
21.44,8.46,5.22,8.46,5.22,-5.22,-5.16,-3.20,3.24,3.24,3.24
21.66,8.47,5.25,8.47,5.24,-5.25,-5.19,-3.29,3.23,3.22,3.22
21.87,8.48,5.27,8.48,5.27,-5.27,-5.22,-3.39,3.21,3.21,3.21
22.09,8.49,5.30,8.49,5.30,-5.30,-5.25,-3.48,3.19,3.20,3.19
22.31,8.51,5.33,8.51,5.32,-5.32,-5.27,-3.58,3.19,3.19,3.18
22.54,8.52,5.35,8.52,5.35,-5.35,-5.30,-3.68,3.18,3.18,3.17
22.76,8.53,5.37,8.53,5.37,-5.37,-5.33,-3.79,3.16,3.16,3.16
22.99,8.54,5.39,8.54,5.39,-5.39,-5.36,-3.90,3.15,3.15,3.15
23.22,8.55,5.41,8.55,5.41,-5.41,-5.38,-4.01,3.14,3.14,3.14
23.45,8.56,5.43,8.56,5.43,-5.43,-5.41,-4.12,3.13,3.13,3.13
23.69,8.57,5.45,8.57,5.45,-5.45,-5.43,-4.23,3.12,3.13,3.12
23.92,8.59,5.47,8.59,5.47,-5.47,-5.46,-4.35,3.13,3.12,3.12
24.16,8.60,5.49,8.60,5.49,-5.48,-5.48,-4.47,3.12,3.12,3.11
24.40,8.61,5.50,8.61,5.50,-5.50,-5.50,-4.59,3.11,3.11,3.11
24.65,8.62,5.52,8.62,5.52,-5.52,-5.53,-4.71,3.10,3.10,3.10
24.89,8.63,5.53,8.64,5.53,-5.54,-5.55,-4.84,3.10,3.10,3.10
25.14,8.65,5.56,8.65,5.55,-5.55,-5.57,-4.97,3.10,3.10,3.09
25.39,8.66,5.57,8.66,5.57,-5.57,-5.59,-5.09,3.09,3.09,3.09
25.65,8.67,5.59,8.67,5.59,-5.58,-5.61,-5.22,3.09,3.09,3.08
25.91,8.68,5.60,8.68,5.60,-5.60,-5.63,-5.35,3.08,3.08,3.08
26.16,8.69,5.62,8.69,5.61,-5.62,-5.65,-5.48,3.07,3.07,3.07
26.43,8.70,5.63,8.70,5.63,-5.63,-5.67,-5.61,3.07,3.07,3.07
26.69,8.71,5.65,8.71,5.65,-5.65,-5.69,-5.74,3.06,3.07,3.06
26.96,8.73,5.67,8.73,5.66,-5.66,-5.71,-5.86,3.07,3.06,3.06
27.23,8.74,5.68,8.74,5.68,-5.68,-5.72,-5.99,3.06,3.06,3.06
27.50,8.75,5.70,8.75,5.70,-5.69,-5.74,-6.11,3.06,3.06,3.05
27.77,8.76,5.71,8.76,5.71,-5.71,-5.76,-6.23,3.05,3.05,3.05
28.05,8.77,5.73,8.77,5.72,-5.73,-5.77,-6.34,3.05,3.04,3.04
28.33,8.78,5.74,8.78,5.74,-5.74,-5.79,-6.45,3.04,3.04,3.04
28.62,8.79,5.75,8.79,5.76,-5.75,-5.80,-6.56,3.04,3.04,3.04
28.90,8.81,5.78,8.81,5.77,-5.77,-5.82,-6.65,3.04,3.04,3.03
29.19,8.82,5.79,8.82,5.79,-5.78,-5.83,-6.75,3.04,3.04,3.03
29.48,8.83,5.80,8.83,5.80,-5.80,-5.84,-6.83,3.03,3.03,3.03
29.78,8.84,5.81,8.84,5.81,-5.81,-5.86,-6.91,3.03,3.03,3.03
30.08,8.85,5.82,8.85,5.82,-5.82,-5.87,-6.97,3.03,3.03,3.03
30.38,8.87,5.84,8.87,5.84,-5.84,-5.88,-7.03,3.03,3.03,3.03
30.68,8.88,5.86,8.88,5.85,-5.85,-5.89,-7.08,3.03,3.03,3.02
30.99,8.89,5.87,8.89,5.87,-5.86,-5.90,-7.12,3.03,3.03,3.02
31.30,8.90,5.88,8.90,5.88,-5.88,-5.91,-7.15,3.02,3.02,3.02
31.61,8.91,5.89,8.91,5.89,-5.89,-5.92,-7.17,3.02,3.02,3.02
31.93,8.92,5.91,8.92,5.90,-5.91,-5.93,-7.18,3.01,3.01,3.01
32.24,8.93,5.92,8.93,5.92,-5.92,-5.94,-7.18,3.01,3.01,3.01
32.57,8.94,5.94,8.94,5.94,-5.93,-5.95,-7.17,3.01,3.01,3.00
32.89,8.96,5.96,8.95,5.95,-5.95,-5.96,-7.15,3.01,3.01,3.00
33.22,8.96,5.96,8.96,5.96,-5.96,-5.96,-7.12,3.00,3.00,3.00
33.55,8.97,5.97,8.97,5.97,-5.98,-5.97,-7.09,3.00,3.00,3.00
33.89,8.98,5.99,8.98,5.98,-5.99,-5.98,-7.05,2.99,2.99,2.99
34.23,8.99,6.00,8.99,6.00,-6.00,-5.98,-7.00,2.99,2.99,2.99
34.57,9.00,6.02,9.00,6.02,-6.01,-5.99,-6.95,2.99,2.99,2.98
34.92,9.01,6.03,9.01,6.03,-6.02,-6.00,-6.90,2.99,2.99,2.98
35.27,9.02,6.04,9.02,6.04,-6.04,-6.00,-6.84,2.99,2.98,2.98
35.62,9.02,6.04,9.03,6.05,-6.04,-6.01,-6.77,2.98,2.98,2.98
35.97,9.03,6.06,9.03,6.05,-6.05,-6.01,-6.71,2.98,2.98,2.97
36.33,9.04,6.07,9.04,6.06,-6.06,-6.02,-6.64,2.98,2.98,2.97
36.70,9.04,6.07,9.04,6.07,-6.07,-6.02,-6.58,2.97,2.97,2.97
37.06,9.05,6.08,9.05,6.08,-6.08,-6.02,-6.51,2.97,2.97,2.97
37.43,9.05,6.08,9.05,6.08,-6.09,-6.03,-6.44,2.97,2.97,2.97
37.81,9.06,6.10,9.06,6.09,-6.09,-6.03,-6.38,2.97,2.96,2.96
38.19,9.06,6.10,9.06,6.10,-6.10,-6.03,-6.31,2.96,2.96,2.96
38.57,9.07,6.12,9.07,6.11,-6.11,-6.04,-6.25,2.96,2.96,2.95
38.95,9.07,6.12,9.07,6.12,-6.12,-6.04,-6.19,2.95,2.95,2.95
39.34,9.07,6.13,9.08,6.13,-6.13,-6.04,-6.13,2.94,2.95,2.94
39.74,9.08,6.14,9.08,6.13,-6.14,-6.05,-6.08,2.95,2.94,2.94
40.14,9.08,6.14,9.08,6.14,-6.14,-6.05,-6.02,2.94,2.94,2.94
40.54,9.08,6.15,9.08,6.15,-6.14,-6.05,-5.98,2.94,2.94,2.93
40.94,9.08,6.15,9.08,6.15,-6.15,-6.05,-5.93,2.94,2.94,2.93
41.35,9.08,6.15,9.08,6.15,-6.15,-6.05,-5.89,2.94,2.94,2.93
41.76,9.08,6.15,9.08,6.14,-6.15,-6.05,-5.85,2.94,2.94,2.93
42.18,9.08,6.14,9.08,6.14,-6.14,-6.06,-5.82,2.94,2.94,2.94
42.60,9.08,6.14,9.08,6.14,-6.14,-6.06,-5.79,2.94,2.94,2.94
43.03,9.08,6.14,9.08,6.14,-6.14,-6.06,-5.77,2.94,2.94,2.94
43.46,9.08,6.14,9.08,6.14,-6.13,-6.06,-5.75,2.95,2.95,2.94
43.90,9.08,6.14,9.08,6.13,-6.13,-6.06,-5.73,2.95,2.95,2.94
44.33,9.08,6.13,9.08,6.13,-6.13,-6.06,-5.72,2.95,2.95,2.95
44.78,9.07,6.12,9.07,6.12,-6.12,-6.06,-5.71,2.95,2.95,2.95
45.23,9.07,6.12,9.07,6.12,-6.12,-6.06,-5.71,2.95,2.95,2.95
45.68,9.07,6.12,9.07,6.12,-6.12,-6.06,-5.71,2.95,2.95,2.95
46.13,9.07,6.12,9.07,6.12,-6.12,-6.06,-5.72,2.95,2.95,2.95
46.60,9.07,6.13,9.07,6.12,-6.12,-6.06,-5.73,2.95,2.95,2.94
47.06,9.07,6.13,9.07,6.13,-6.13,-6.06,-5.74,2.95,2.95,2.94
47.53,9.07,6.13,9.07,6.13,-6.13,-6.06,-5.76,2.94,2.94,2.94
48.01,9.07,6.13,9.07,6.13,-6.13,-6.06,-5.78,2.94,2.94,2.94
48.49,9.07,6.14,9.07,6.13,-6.13,-6.06,-5.81,2.94,2.94,2.93
48.97,9.07,6.14,9.07,6.14,-6.13,-6.06,-5.84,2.94,2.94,2.93
49.46,9.07,6.14,9.07,6.14,-6.13,-6.06,-5.87,2.94,2.94,2.93
49.96,9.07,6.14,9.07,6.13,-6.13,-6.06,-5.91,2.94,2.94,2.93
50.46,9.07,6.13,9.07,6.13,-6.13,-6.06,-5.95,2.94,2.94,2.94
50.96,9.07,6.13,9.07,6.13,-6.13,-6.06,-5.99,2.94,2.94,2.94
51.47,9.07,6.13,9.07,6.13,-6.13,-6.06,-6.03,2.94,2.94,2.94
51.99,9.07,6.13,9.07,6.12,-6.12,-6.06,-6.08,2.95,2.95,2.94
52.51,9.07,6.12,9.07,6.12,-6.12,-6.06,-6.12,2.95,2.95,2.95
53.03,9.07,6.12,9.07,6.12,-6.12,-6.06,-6.17,2.95,2.95,2.95
53.56,9.07,6.12,9.07,6.12,-6.12,-6.06,-6.22,2.95,2.95,2.95
54.10,9.07,6.12,9.07,6.12,-6.12,-6.06,-6.27,2.96,2.96,2.95
54.64,9.07,6.12,9.07,6.11,-6.11,-6.06,-6.32,2.96,2.96,2.95
55.18,9.07,6.11,9.07,6.11,-6.11,-6.06,-6.36,2.96,2.96,2.96
55.74,9.07,6.11,9.07,6.11,-6.11,-6.06,-6.41,2.96,2.96,2.96
56.29,9.07,6.11,9.07,6.10,-6.11,-6.06,-6.45,2.97,2.97,2.96
56.86,9.07,6.10,9.07,6.10,-6.10,-6.06,-6.50,2.97,2.97,2.97
57.42,9.07,6.10,9.07,6.10,-6.10,-6.06,-6.54,2.97,2.97,2.97
58.00,9.07,6.10,9.07,6.10,-6.10,-6.06,-6.57,2.98,2.98,2.97
58.58,9.07,6.10,9.07,6.09,-6.09,-6.06,-6.60,2.98,2.98,2.97
59.16,9.07,6.09,9.07,6.09,-6.09,-6.06,-6.63,2.98,2.98,2.98
59.76,9.07,6.09,9.07,6.09,-6.09,-6.06,-6.65,2.98,2.98,2.98
60.35,9.07,6.09,9.07,6.08,-6.08,-6.05,-6.67,2.99,2.99,2.98
60.96,9.07,6.08,9.07,6.08,-6.08,-6.05,-6.68,2.99,2.99,2.99
61.57,9.07,6.08,9.07,6.08,-6.08,-6.05,-6.69,2.99,2.99,2.99
62.18,9.07,6.08,9.07,6.08,-6.08,-6.05,-6.69,2.99,2.99,2.99
62.80,9.07,6.08,9.07,6.08,-6.08,-6.05,-6.68,2.99,2.99,2.99
63.43,9.07,6.08,9.07,6.08,-6.08,-6.05,-6.67,2.99,2.99,2.99
64.07,9.07,6.08,9.07,6.08,-6.08,-6.05,-6.65,2.99,2.99,2.99
64.71,9.07,6.08,9.07,6.08,-6.08,-6.05,-6.63,2.99,2.99,2.99
65.35,9.07,6.08,9.07,6.08,-6.08,-6.04,-6.60,2.99,2.99,2.99
66.01,9.07,6.08,9.07,6.08,-6.08,-6.04,-6.56,2.99,2.99,2.99
66.67,9.07,6.08,9.07,6.08,-6.08,-6.04,-6.52,2.99,2.99,2.99
67.33,9.07,6.08,9.07,6.08,-6.08,-6.04,-6.48,2.99,2.99,2.99
68.01,9.07,6.08,9.07,6.08,-6.08,-6.04,-6.43,2.99,2.99,2.99
68.69,9.07,6.08,9.07,6.08,-6.08,-6.03,-6.38,2.99,2.99,2.99
69.37,9.07,6.08,9.07,6.08,-6.08,-6.03,-6.32,2.99,2.99,2.99
70.07,9.07,6.08,9.07,6.08,-6.08,-6.03,-6.26,2.99,2.99,2.99
70.77,9.07,6.08,9.07,6.08,-6.08,-6.03,-6.20,3.00,3.00,2.99
71.48,9.07,6.08,9.07,6.07,-6.07,-6.02,-6.14,3.00,3.00,2.99
72.19,9.07,6.07,9.07,6.07,-6.07,-6.02,-6.08,3.00,3.00,3.00
72.91,9.07,6.07,9.07,6.07,-6.07,-6.02,-6.02,3.00,3.00,3.00
73.64,9.07,6.07,9.07,6.06,-6.07,-6.01,-5.95,3.01,3.01,3.00
74.38,9.07,6.06,9.07,6.06,-6.06,-6.01,-5.89,3.01,3.01,3.01
75.12,9.07,6.06,9.07,6.06,-6.06,-6.01,-5.83,3.02,3.02,3.01
75.87,9.07,6.06,9.07,6.05,-6.05,-6.00,-5.77,3.02,3.02,3.01
76.63,9.07,6.05,9.07,6.05,-6.05,-6.00,-5.71,3.02,3.02,3.02
77.40,9.07,6.05,9.07,6.04,-6.05,-5.99,-5.65,3.02,3.02,3.02
78.17,9.07,6.04,9.07,6.04,-6.05,-5.99,-5.60,3.03,3.02,3.03
78.95,9.07,6.04,9.08,6.04,-6.05,-5.98,-5.55,3.03,3.03,3.03
79.74,9.08,6.05,9.08,6.04,-6.05,-5.98,-5.50,3.03,3.03,3.03
80.54,9.09,6.05,9.09,6.05,-6.05,-5.97,-5.45,3.04,3.04,3.04
81.35,9.09,6.05,9.09,6.05,-6.05,-5.97,-5.41,3.04,3.04,3.04
82.16,9.09,6.05,9.09,6.05,-6.05,-5.96,-5.37,3.05,3.05,3.04
82.98,9.09,6.05,9.09,6.05,-6.04,-5.96,-5.33,3.05,3.05,3.04
83.81,9.08,6.04,9.08,6.04,-6.03,-5.95,-5.30,3.05,3.05,3.04
84.65,9.07,6.03,9.07,6.03,-6.02,-5.94,-5.27,3.05,3.05,3.04
85.50,9.06,6.01,9.06,6.01,-6.01,-5.94,-5.24,3.06,3.05,3.05
86.35,9.03,5.98,9.04,5.98,-5.99,-5.93,-5.22,3.05,3.05,3.05
87.22,9.01,5.96,9.01,5.96,-5.96,-5.92,-5.20,3.05,3.05,3.05
88.09,8.99,5.94,8.99,5.93,-5.93,-5.92,-5.19,3.06,3.05,3.05
88.97,8.96,5.91,8.96,5.91,-5.90,-5.91,-5.18,3.06,3.06,3.05
89.86,8.93,5.88,8.93,5.88,-5.87,-5.90,-5.17,3.06,3.06,3.05
90.76,8.90,5.85,8.90,5.84,-5.84,-5.89,-5.17,3.06,3.06,3.05
91.66,8.86,5.81,8.86,5.81,-5.81,-5.88,-5.17,3.05,3.05,3.05
92.58,8.83,5.78,8.83,5.78,-5.78,-5.87,-5.18,3.05,3.05,3.05
93.51,8.80,5.75,8.80,5.75,-5.75,-5.86,-5.19,3.05,3.05,3.05
94.44,8.78,5.73,8.78,5.73,-5.73,-5.85,-5.20,3.06,3.05,3.05
95.39,8.76,5.71,8.76,5.71,-5.70,-5.84,-5.21,3.06,3.06,3.05
96.34,8.74,5.69,8.74,5.69,-5.69,-5.83,-5.23,3.05,3.05,3.05
97.30,8.73,5.67,8.73,5.67,-5.68,-5.82,-5.26,3.05,3.05,3.06
98.28,8.72,5.66,8.73,5.66,-5.68,-5.81,-5.28,3.05,3.05,3.06
99.26,8.73,5.67,8.73,5.67,-5.68,-5.80,-5.31,3.05,3.05,3.06
100.25,8.74,5.68,8.74,5.68,-5.68,-5.79,-5.34,3.06,3.06,3.06
101.25,8.75,5.69,8.75,5.69,-5.69,-5.78,-5.38,3.07,3.07,3.06
102.27,8.76,5.70,8.76,5.70,-5.69,-5.76,-5.41,3.07,3.07,3.06
103.29,8.77,5.71,8.77,5.70,-5.69,-5.75,-5.45,3.08,3.08,3.06
104.32,8.77,5.70,8.77,5.70,-5.69,-5.74,-5.49,3.08,3.08,3.07
105.37,8.76,5.69,8.76,5.69,-5.68,-5.72,-5.53,3.08,3.08,3.07
106.42,8.74,5.67,8.74,5.67,-5.66,-5.71,-5.57,3.08,3.08,3.07
107.48,8.72,5.64,8.72,5.64,-5.64,-5.69,-5.61,3.08,3.08,3.08
108.56,8.69,5.61,8.69,5.61,-5.61,-5.68,-5.65,3.08,3.08,3.08
109.64,8.66,5.58,8.66,5.58,-5.58,-5.66,-5.69,3.09,3.09,3.08
110.74,8.63,5.55,8.63,5.54,-5.54,-5.65,-5.73,3.09,3.09,3.08
111.85,8.59,5.50,8.59,5.50,-5.50,-5.63,-5.76,3.09,3.09,3.09
112.97,8.55,5.46,8.55,5.46,-5.47,-5.61,-5.80,3.08,3.09,3.09
114.10,8.52,5.43,8.52,5.43,-5.43,-5.60,-5.83,3.09,3.09,3.09
115.24,8.49,5.40,8.49,5.40,-5.40,-5.58,-5.86,3.09,3.09,3.09
116.39,8.47,5.38,8.47,5.38,-5.37,-5.56,-5.89,3.10,3.10,3.09
117.55,8.45,5.35,8.45,5.35,-5.34,-5.54,-5.91,3.11,3.10,3.10
118.73,8.43,5.33,8.43,5.32,-5.32,-5.53,-5.93,3.11,3.10,3.10
119.92,8.40,5.30,8.41,5.30,-5.31,-5.51,-5.94,3.09,3.10,3.10
121.12,8.40,5.29,8.40,5.29,-5.31,-5.49,-5.94,3.09,3.09,3.11
122.33,8.40,5.29,8.40,5.29,-5.30,-5.47,-5.95,3.10,3.10,3.11
123.55,8.41,5.29,8.42,5.30,-5.30,-5.45,-5.94,3.11,3.12,3.12
124.79,8.44,5.32,8.43,5.31,-5.30,-5.43,-5.93,3.14,3.13,3.12
126.03,8.45,5.33,8.44,5.32,-5.30,-5.40,-5.91,3.15,3.14,3.12
127.29,8.44,5.31,8.45,5.32,-5.30,-5.38,-5.89,3.14,3.15,3.13
128.57,8.43,5.30,8.43,5.30,-5.29,-5.36,-5.86,3.14,3.14,3.13
129.85,8.42,5.28,8.42,5.28,-5.28,-5.34,-5.83,3.14,3.14,3.14
131.15,8.39,5.25,8.40,5.26,-5.26,-5.32,-5.79,3.13,3.14,3.14
132.46,8.38,5.24,8.37,5.23,-5.23,-5.29,-5.75,3.15,3.14,3.14
133.79,8.35,5.21,8.35,5.20,-5.20,-5.27,-5.70,3.15,3.15,3.14
135.12,8.30,5.16,8.31,5.17,-5.17,-5.25,-5.65,3.14,3.15,3.14
136.48,8.28,5.14,8.28,5.13,-5.13,-5.22,-5.59,3.15,3.15,3.14
137.84,8.24,5.09,8.24,5.09,-5.09,-5.20,-5.53,3.15,3.15,3.15
139.22,8.21,5.06,8.21,5.06,-5.06,-5.17,-5.46,3.15,3.15,3.15
140.61,8.18,5.03,8.18,5.02,-5.02,-5.15,-5.40,3.16,3.16,3.15
142.02,8.14,4.99,8.15,4.99,-4.99,-5.12,-5.33,3.15,3.16,3.15
143.44,8.12,4.97,8.12,4.96,-4.97,-5.09,-5.26,3.16,3.15,3.15
144.87,8.09,4.93,8.09,4.94,-4.95,-5.07,-5.18,3.14,3.15,3.16
146.32,8.08,4.92,8.08,4.92,-4.94,-5.04,-5.11,3.14,3.15,3.16
147.78,8.08,4.92,8.08,4.92,-4.93,-5.01,-5.04,3.15,3.15,3.16
149.26,8.09,4.92,8.09,4.93,-4.93,-4.98,-4.97,3.17,3.17,3.17
150.75,8.11,4.94,8.10,4.93,-4.92,-4.96,-4.89,3.19,3.18,3.17
152.26,8.11,4.94,8.11,4.93,-4.92,-4.93,-4.82,3.19,3.19,3.17
153.78,8.10,4.92,8.10,4.92,-4.91,-4.90,-4.75,3.19,3.19,3.18
155.32,8.09,4.91,8.09,4.90,-4.90,-4.87,-4.68,3.19,3.19,3.18
156.88,8.06,4.88,8.07,4.88,-4.88,-4.84,-4.62,3.18,3.19,3.18
158.44,8.05,4.86,8.04,4.85,-4.85,-4.81,-4.55,3.20,3.19,3.19
160.03,8.01,4.82,8.02,4.83,-4.83,-4.78,-4.49,3.19,3.19,3.19
161.63,7.99,4.80,7.99,4.79,-4.79,-4.75,-4.43,3.20,3.19,3.19
163.24,7.96,4.77,7.95,4.76,-4.76,-4.72,-4.37,3.20,3.19,3.19
164.88,7.91,4.72,7.92,4.73,-4.73,-4.68,-4.32,3.18,3.19,3.19
166.53,7.89,4.69,7.89,4.69,-4.70,-4.65,-4.26,3.19,3.19,3.20
168.19,7.87,4.67,7.87,4.66,-4.67,-4.62,-4.21,3.20,3.20,3.20
169.87,7.84,4.64,7.85,4.64,-4.64,-4.59,-4.17,3.21,3.21,3.20
171.57,7.82,4.61,7.82,4.61,-4.61,-4.55,-4.12,3.22,3.22,3.21
173.29,7.80,4.59,7.79,4.58,-4.58,-4.52,-4.08,3.22,3.22,3.21
175.02,7.76,4.55,7.76,4.55,-4.55,-4.49,-4.04,3.21,3.22,3.21
176.77,7.73,4.52,7.74,4.52,-4.52,-4.45,-4.01,3.21,3.21,3.21
178.54,7.71,4.49,7.71,4.49,-4.49,-4.42,-3.98,3.22,3.22,3.22
180.32,7.69,4.47,7.69,4.47,-4.47,-4.39,-3.95,3.22,3.22,3.22
182.13,7.67,4.45,7.66,4.44,-4.44,-4.35,-3.92,3.23,3.22,3.22
183.95,7.63,4.41,7.64,4.42,-4.42,-4.32,-3.90,3.22,3.22,3.22
185.79,7.60,4.39,7.61,4.39,-4.39,-4.28,-3.88,3.21,3.21,3.21
187.65,7.58,4.37,7.58,4.36,-4.36,-4.25,-3.86,3.22,3.21,3.21
189.52,7.55,4.34,7.55,4.34,-4.34,-4.21,-3.85,3.21,3.22,3.21
191.42,7.53,4.32,7.53,4.31,-4.31,-4.17,-3.84,3.22,3.22,3.21
193.33,7.50,4.28,7.50,4.28,-4.28,-4.14,-3.83,3.22,3.23,3.22
195.27,7.47,4.25,7.47,4.25,-4.24,-4.10,-3.82,3.23,3.23,3.22
197.22,7.44,4.22,7.44,4.21,-4.21,-4.07,-3.82,3.23,3.23,3.22
199.19,7.40,4.18,7.40,4.18,-4.18,-4.03,-3.81,3.22,3.22,3.22
201.18,7.37,4.14,7.37,4.14,-4.15,-3.99,-3.81,3.22,3.22,3.23
203.19,7.34,4.11,7.34,4.11,-4.12,-3.95,-3.81,3.22,3.22,3.23
205.23,7.32,4.09,7.32,4.08,-4.09,-3.92,-3.82,3.23,3.23,3.23
207.28,7.30,4.06,7.30,4.06,-4.06,-3.88,-3.82,3.24,3.24,3.24
209.35,7.28,4.04,7.28,4.04,-4.03,-3.84,-3.83,3.25,3.25,3.24
211.44,7.25,4.01,7.25,4.01,-4.00,-3.80,-3.83,3.26,3.26,3.24
213.56,7.22,3.97,7.22,3.97,-3.96,-3.76,-3.84,3.26,3.26,3.25
215.69,7.18,3.93,7.18,3.93,-3.92,-3.73,-3.84,3.26,3.25,3.25
217.85,7.13,3.88,7.14,3.89,-3.89,-3.69,-3.85,3.25,3.26,3.25
220.03,7.10,3.85,7.10,3.84,-3.85,-3.65,-3.86,3.25,3.25,3.25
222.23,7.07,3.81,7.06,3.80,-3.81,-3.61,-3.86,3.26,3.25,3.26
224.45,7.02,3.76,7.03,3.77,-3.77,-3.57,-3.86,3.25,3.25,3.26
226.70,6.99,3.73,7.00,3.73,-3.74,-3.53,-3.87,3.25,3.25,3.26
228.96,6.97,3.71,6.97,3.70,-3.71,-3.49,-3.87,3.26,3.26,3.26
231.25,6.95,3.68,6.95,3.68,-3.68,-3.45,-3.87,3.28,3.28,3.27
233.57,6.93,3.66,6.93,3.65,-3.64,-3.41,-3.86,3.29,3.29,3.27
235.90,6.89,3.61,6.90,3.61,-3.60,-3.37,-3.85,3.29,3.29,3.28
238.26,6.86,3.58,6.86,3.57,-3.56,-3.33,-3.84,3.30,3.30,3.28
240.64,6.82,3.53,6.82,3.53,-3.52,-3.29,-3.83,3.30,3.30,3.29
243.05,6.78,3.48,6.78,3.48,-3.48,-3.25,-3.81,3.30,3.30,3.30
245.48,6.74,3.44,6.74,3.43,-3.44,-3.21,-3.79,3.30,3.29,3.30
247.93,6.69,3.38,6.70,3.39,-3.40,-3.17,-3.77,3.29,3.30,3.31
250.41,6.67,3.35,6.68,3.35,-3.37,-3.13,-3.74,3.31,3.31,3.32
252.92,6.66,3.33,6.66,3.33,-3.33,-3.09,-3.71,3.33,3.33,3.33
255.45,6.64,3.31,6.64,3.30,-3.29,-3.05,-3.67,3.35,3.35,3.33
258.00,6.61,3.27,6.61,3.27,-3.25,-3.01,-3.63,3.36,3.36,3.34
260.58,6.57,3.23,6.57,3.22,-3.21,-2.97,-3.58,3.36,3.36,3.34
263.19,6.52,3.17,6.52,3.17,-3.17,-2.93,-3.54,3.35,3.35,3.35
265.82,6.46,3.11,6.47,3.12,-3.13,-2.89,-3.48,3.34,3.35,3.35
268.48,6.43,3.07,6.43,3.07,-3.08,-2.84,-3.43,3.35,3.35,3.36
271.16,6.39,3.03,6.39,3.03,-3.03,-2.80,-3.37,3.36,3.35,3.36
273.87,6.35,2.99,6.36,2.99,-2.99,-2.76,-3.31,3.36,3.37,3.36
276.61,6.32,2.95,6.32,2.95,-2.95,-2.72,-3.25,3.38,3.37,3.37
279.38,6.28,2.91,6.28,2.91,-2.90,-2.68,-3.18,3.38,3.38,3.37
282.17,6.24,2.87,6.24,2.86,-2.86,-2.64,-3.11,3.38,3.38,3.37
284.99,6.20,2.82,6.20,2.82,-2.82,-2.60,-3.04,3.38,3.38,3.38
287.84,6.15,2.77,6.15,2.77,-2.77,-2.55,-2.97,3.38,3.38,3.38
290.72,6.10,2.72,6.11,2.72,-2.72,-2.51,-2.90,3.38,3.38,3.38
293.63,6.06,2.68,6.05,2.67,-2.67,-2.47,-2.83,3.39,3.38,3.38
296.57,6.00,2.62,6.00,2.62,-2.62,-2.43,-2.75,3.38,3.39,3.38
299.53,5.95,2.57,5.95,2.57,-2.56,-2.39,-2.68,3.39,3.39,3.38
302.53,5.90,2.51,5.90,2.51,-2.51,-2.35,-2.60,3.39,3.39,3.39
305.55,5.85,2.46,5.85,2.45,-2.46,-2.30,-2.53,3.39,3.39,3.39
308.61,5.80,2.40,5.80,2.40,-2.40,-2.26,-2.45,3.40,3.40,3.40
311.69,5.75,2.35,5.76,2.35,-2.35,-2.22,-2.38,3.40,3.41,3.40
314.81,5.71,2.30,5.71,2.30,-2.30,-2.18,-2.31,3.41,3.41,3.41
317.96,5.67,2.26,5.66,2.25,-2.25,-2.13,-2.23,3.42,3.41,3.41
321.14,5.61,2.19,5.62,2.20,-2.20,-2.09,-2.16,3.41,3.41,3.42
324.35,5.57,2.15,5.57,2.15,-2.16,-2.05,-2.09,3.42,3.42,3.42
327.59,5.53,2.11,5.53,2.11,-2.11,-2.01,-2.02,3.42,3.43,3.42
330.87,5.50,2.07,5.50,2.07,-2.06,-1.97,-1.95,3.44,3.44,3.43
334.18,5.46,2.03,5.46,2.02,-2.01,-1.92,-1.88,3.45,3.45,3.43
337.52,5.41,1.97,5.41,1.97,-1.96,-1.88,-1.81,3.45,3.45,3.44
340.90,5.36,1.91,5.36,1.91,-1.92,-1.84,-1.74,3.45,3.44,3.45
344.30,5.30,1.85,5.31,1.85,-1.87,-1.80,-1.68,3.44,3.44,3.45
347.75,5.26,1.81,5.26,1.81,-1.82,-1.75,-1.61,3.45,3.45,3.45
351.23,5.22,1.77,5.22,1.76,-1.76,-1.71,-1.55,3.46,3.46,3.45
354.74,5.18,1.72,5.18,1.72,-1.71,-1.67,-1.49,3.48,3.47,3.46
358.28,5.12,1.66,5.13,1.66,-1.65,-1.62,-1.43,3.47,3.48,3.46
361.87,5.07,1.61,5.07,1.60,-1.60,-1.58,-1.37,3.48,3.47,3.46
365.49,5.00,1.54,5.00,1.54,-1.54,-1.54,-1.31,3.46,3.46,3.46
369.14,4.93,1.47,4.94,1.47,-1.49,-1.50,-1.25,3.45,3.45,3.46
372.83,4.88,1.42,4.88,1.42,-1.43,-1.45,-1.20,3.45,3.45,3.46
376.56,4.84,1.37,4.84,1.37,-1.37,-1.41,-1.14,3.47,3.47,3.47
380.33,4.80,1.33,4.80,1.33,-1.32,-1.37,-1.09,3.48,3.48,3.47
384.13,4.75,1.28,4.75,1.28,-1.27,-1.32,-1.03,3.48,3.48,3.47
387.97,4.70,1.23,4.70,1.22,-1.22,-1.28,-0.98,3.48,3.48,3.47
391.85,4.64,1.16,4.65,1.17,-1.17,-1.24,-0.93,3.47,3.48,3.48
395.77,4.60,1.12,4.60,1.11,-1.12,-1.19,-0.88,3.48,3.48,3.48
399.73,4.55,1.06,4.56,1.06,-1.06,-1.15,-0.83,3.49,3.49,3.49
403.72,4.51,1.02,4.51,1.01,-1.00,-1.10,-0.78,3.51,3.51,3.49
407.76,4.46,0.96,4.45,0.95,-0.95,-1.06,-0.73,3.52,3.51,3.50
411.84,4.39,0.89,4.40,0.89,-0.89,-1.02,-0.68,3.50,3.51,3.50
415.96,4.33,0.82,4.33,0.82,-0.83,-0.97,-0.64,3.50,3.50,3.51
420.12,4.27,0.76,4.27,0.76,-0.77,-0.93,-0.59,3.50,3.50,3.51
424.32,4.22,0.71,4.23,0.71,-0.71,-0.88,-0.54,3.51,3.51,3.51
428.56,4.18,0.66,4.18,0.66,-0.65,-0.84,-0.50,3.53,3.52,3.52
432.85,4.13,0.61,4.13,0.60,-0.60,-0.79,-0.45,3.53,3.53,3.52
437.18,4.06,0.54,4.07,0.55,-0.54,-0.75,-0.41,3.52,3.53,3.52
441.55,4.01,0.49,4.01,0.49,-0.49,-0.70,-0.37,3.53,3.52,3.52
445.96,3.95,0.43,3.95,0.43,-0.43,-0.65,-0.32,3.52,3.52,3.52
450.42,3.89,0.37,3.90,0.37,-0.37,-0.61,-0.28,3.52,3.52,3.52
454.93,3.84,0.32,3.84,0.31,-0.31,-0.56,-0.24,3.53,3.53,3.52
459.48,3.78,0.26,3.78,0.26,-0.25,-0.51,-0.20,3.53,3.53,3.52
464.07,3.72,0.20,3.72,0.20,-0.20,-0.47,-0.15,3.53,3.52,3.52
468.71,3.66,0.14,3.66,0.13,-0.14,-0.42,-0.11,3.52,3.52,3.52
473.40,3.59,0.07,3.60,0.07,-0.08,-0.37,-0.07,3.51,3.52,3.52
478.13,3.55,0.02,3.55,0.02,-0.02,-0.33,-0.03,3.53,3.52,3.53
482.91,3.50,-0.03,3.50,-0.03,0.03,-0.28,0.01,3.53,3.53,3.53
487.74,3.45,-0.08,3.45,-0.08,0.09,-0.23,0.05,3.54,3.54,3.53
492.62,3.40,-0.13,3.40,-0.14,0.14,-0.18,0.09,3.54,3.54,3.53
497.55,3.34,-0.20,3.34,-0.20,0.20,-0.13,0.14,3.54,3.54,3.54
502.52,3.28,-0.26,3.29,-0.25,0.25,-0.08,0.18,3.53,3.54,3.54
507.55,3.24,-0.30,3.24,-0.31,0.31,-0.03,0.22,3.55,3.54,3.54
512.62,3.19,-0.35,3.19,-0.36,0.36,0.02,0.26,3.55,3.55,3.54
517.75,3.14,-0.41,3.14,-0.41,0.42,0.07,0.30,3.56,3.55,3.55
522.93,3.08,-0.47,3.08,-0.47,0.47,0.12,0.34,3.55,3.55,3.55
528.16,3.02,-0.53,3.02,-0.53,0.53,0.17,0.39,3.55,3.55,3.55
533.44,2.97,-0.58,2.97,-0.58,0.58,0.22,0.43,3.55,3.55,3.55
538.77,2.92,-0.64,2.92,-0.64,0.64,0.28,0.47,3.56,3.56,3.56
544.16,2.88,-0.68,2.88,-0.69,0.69,0.33,0.52,3.57,3.57,3.56
549.60,2.82,-0.74,2.82,-0.74,0.75,0.38,0.56,3.57,3.57,3.56
