frequency,raw,error,smoothed,error_smoothed,equalization,parametric_eq,fixed_band_eq,equalized_raw,equalized_smoothed,target
20.00,-12.26,-13.87,-12.28,-13.89,6.00,5.07,2.84,-6.26,-6.28,1.61
20.20,-12.22,-13.83,-12.20,-13.81,6.00,5.11,2.92,-6.22,-6.20,1.61
20.40,-12.13,-13.74,-12.11,-13.72,6.00,5.16,3.00,-6.13,-6.11,1.61
20.61,-12.00,-13.61,-12.00,-13.61,6.00,5.20,3.09,-6.00,-6.00,1.61
20.81,-11.87,-13.48,-11.88,-13.49,6.00,5.25,3.17,-5.87,-5.88,1.61
21.02,-11.74,-13.35,-11.75,-13.36,6.00,5.29,3.26,-5.74,-5.75,1.61
21.23,-11.63,-13.24,-11.62,-13.23,6.00,5.33,3.35,-5.63,-5.62,1.61
21.44,-11.49,-13.10,-11.49,-13.11,6.00,5.37,3.45,-5.49,-5.49,1.61
21.66,-11.36,-12.98,-11.36,-12.98,6.00,5.41,3.54,-5.36,-5.36,1.62
21.87,-11.24,-12.85,-11.23,-12.85,6.00,5.45,3.64,-5.24,-5.23,1.62
22.09,-11.10,-12.72,-11.11,-12.73,6.00,5.49,3.74,-5.10,-5.11,1.62
22.31,-10.99,-12.61,-10.98,-12.60,6.00,5.52,3.85,-4.99,-4.98,1.62
22.54,-10.86,-12.48,-10.86,-12.48,6.00,5.56,3.95,-4.86,-4.86,1.62
22.76,-10.73,-12.35,-10.73,-12.35,6.00,5.59,4.06,-4.73,-4.73,1.62
22.99,-10.61,-12.23,-10.60,-12.23,6.00,5.62,4.18,-4.61,-4.60,1.62
23.22,-10.47,-12.09,-10.48,-12.10,6.00,5.64,4.29,-4.47,-4.48,1.62
23.45,-10.35,-11.97,-10.35,-11.97,6.00,5.67,4.41,-4.35,-4.35,1.62
23.69,-10.22,-11.85,-10.22,-11.84,6.00,5.69,4.53,-4.22,-4.22,1.62
23.92,-10.09,-11.71,-10.09,-11.72,6.00,5.71,4.65,-4.09,-4.09,1.63
24.16,-9.96,-11.59,-9.97,-11.59,6.00,5.73,4.77,-3.96,-3.97,1.63
24.40,-9.85,-11.48,-9.84,-11.47,6.00,5.75,4.90,-3.85,-3.84,1.63
24.65,-9.72,-11.35,-9.71,-11.34,6.00,5.76,5.03,-3.72,-3.71,1.63
24.89,-9.58,-11.21,-9.59,-11.22,6.00,5.77,5.16,-3.58,-3.59,1.63
25.14,-9.47,-11.10,-9.47,-11.10,6.00,5.78,5.29,-3.47,-3.47,1.63
25.39,-9.36,-10.99,-9.36,-10.99,6.00,5.78,5.42,-3.36,-3.36,1.63
25.65,-9.25,-10.88,-9.25,-10.89,6.00,5.78,5.55,-3.25,-3.25,1.63
25.91,-9.15,-10.78,-9.15,-10.78,6.00,5.78,5.68,-3.15,-3.15,1.63
26.16,-9.04,-10.67,-9.04,-10.67,6.00,5.78,5.82,-3.04,-3.04,1.63
26.43,-8.93,-10.57,-8.93,-10.57,6.00,5.78,5.95,-2.93,-2.93,1.63
26.69,-8.82,-10.46,-8.82,-10.46,6.00,5.77,6.08,-2.82,-2.82,1.64
26.96,-8.71,-10.35,-8.71,-10.35,6.00,5.76,6.21,-2.71,-2.71,1.64
27.23,-8.60,-10.24,-8.60,-10.24,6.00,5.74,6.33,-2.60,-2.60,1.64
27.50,-8.49,-10.13,-8.49,-10.13,6.00,5.73,6.45,-2.49,-2.49,1.64
27.77,-8.38,-10.02,-8.38,-10.02,6.00,5.71,6.57,-2.38,-2.38,1.64
28.05,-8.27,-9.91,-8.27,-9.91,6.00,5.70,6.68,-2.27,-2.27,1.64
28.33,-8.17,-9.81,-8.17,-9.81,6.00,5.68,6.79,-2.17,-2.17,1.64
28.62,-8.06,-9.70,-8.06,-9.70,6.00,5.66,6.89,-2.06,-2.06,1.64
28.90,-7.95,-9.59,-7.94,-9.58,6.00,5.64,6.99,-1.95,-1.94,1.64
29.19,-7.82,-9.46,-7.82,-9.46,6.00,5.63,7.07,-1.82,-1.82,1.64
29.48,-7.69,-9.33,-7.70,-9.34,6.00,5.61,7.15,-1.69,-1.70,1.64
29.78,-7.57,-9.21,-7.58,-9.22,6.00,5.60,7.21,-1.57,-1.58,1.64
30.08,-7.47,-9.11,-7.46,-9.10,6.00,5.58,7.27,-1.47,-1.46,1.64
30.38,-7.33,-8.97,-7.34,-8.98,6.00,5.57,7.32,-1.33,-1.34,1.64
30.68,-7.20,-8.84,-7.21,-8.85,6.00,5.56,7.35,-1.20,-1.21,1.64
30.99,-7.09,-8.73,-7.08,-8.73,6.00,5.56,7.37,-1.09,-1.08,1.64
31.30,-6.96,-8.60,-6.97,-8.61,6.00,5.56,7.38,-0.96,-0.97,1.64
31.61,-6.85,-8.49,-6.85,-8.49,6.00,5.56,7.38,-0.85,-0.85,1.64
31.93,-6.72,-8.37,-6.73,-8.37,6.00,5.56,7.37,-0.72,-0.73,1.64
32.24,-6.61,-8.25,-6.61,-8.25,6.00,5.57,7.35,-0.61,-0.61,1.64
32.57,-6.50,-8.14,-6.49,-8.13,6.00,5.57,7.32,-0.50,-0.49,1.64
32.89,-6.36,-8.00,-6.37,-8.01,6.00,5.58,7.27,-0.36,-0.37,1.64
33.22,-6.24,-7.88,-6.24,-7.89,6.00,5.59,7.22,-0.24,-0.24,1.64
33.55,-6.13,-7.77,-6.13,-7.77,6.00,5.60,7.16,-0.13,-0.13,1.64
33.89,-6.02,-7.66,-6.03,-7.67,6.00,5.61,7.09,-0.02,-0.03,1.64
34.23,-5.93,-7.57,-5.92,-7.56,6.00,5.62,7.01,0.07,0.08,1.64
34.57,-5.82,-7.46,-5.82,-7.46,6.00,5.63,6.93,0.18,0.18,1.64
34.92,-5.71,-7.35,-5.72,-7.36,6.00,5.64,6.84,0.29,0.28,1.64
35.27,-5.63,-7.27,-5.62,-7.26,6.00,5.65,6.75,0.37,0.38,1.64
35.62,-5.54,-7.18,-5.53,-7.17,6.00,5.65,6.65,0.46,0.47,1.64
35.97,-5.43,-7.07,-5.45,-7.08,6.00,5.65,6.55,0.57,0.55,1.64
36.33,-5.37,-7.01,-5.35,-6.99,6.00,5.65,6.45,0.63,0.65,1.64
36.70,-5.26,-6.90,-5.27,-6.91,6.00,5.65,6.34,0.74,0.73,1.64
37.06,-5.18,-6.82,-5.18,-6.81,6.00,5.65,6.24,0.82,0.82,1.64
37.43,-5.09,-6.72,-5.08,-6.72,6.00,5.64,6.13,0.91,0.92,1.64
37.81,-4.98,-6.61,-4.99,-6.63,6.00,5.63,6.03,1.02,1.01,1.63
38.19,-4.91,-6.54,-4.90,-6.53,6.01,5.62,5.92,1.10,1.11,1.63
38.57,-4.81,-6.44,-4.81,-6.44,6.01,5.61,5.82,1.20,1.20,1.63
38.95,-4.71,-6.34,-4.72,-6.35,6.02,5.59,5.72,1.31,1.29,1.63
39.34,-4.64,-6.27,-4.62,-6.25,6.01,5.57,5.62,1.37,1.39,1.63
39.74,-4.53,-6.16,-4.53,-6.16,5.99,5.55,5.52,1.46,1.46,1.63
40.14,-4.43,-6.06,-4.44,-6.07,5.97,5.53,5.43,1.54,1.53,1.63
40.54,-4.36,-5.98,-4.35,-5.97,5.93,5.51,5.34,1.57,1.58,1.62
40.94,-4.27,-5.89,-4.27,-5.89,5.88,5.48,5.25,1.61,1.61,1.62
41.35,-4.19,-5.81,-4.19,-5.81,5.82,5.46,5.17,1.63,1.62,1.62
41.76,-4.12,-5.74,-4.11,-5.73,5.74,5.43,5.08,1.63,1.63,1.62
42.18,-4.04,-5.65,-4.04,-5.65,5.67,5.40,5.00,1.63,1.63,1.61
42.60,-3.96,-5.57,-3.96,-5.57,5.58,5.37,4.93,1.62,1.62,1.61
43.03,-3.88,-5.49,-3.88,-5.49,5.50,5.34,4.86,1.62,1.61,1.61
43.46,-3.81,-5.42,-3.81,-5.42,5.42,5.30,4.79,1.61,1.61,1.61
43.90,-3.75,-5.35,-3.74,-5.35,5.34,5.27,4.72,1.59,1.60,1.60
44.33,-3.67,-5.27,-3.68,-5.28,5.27,5.23,4.66,1.60,1.60,1.60
44.78,-3.61,-5.21,-3.61,-5.20,5.20,5.20,4.61,1.59,1.60,1.60
45.23,-3.54,-5.13,-3.54,-5.13,5.13,5.16,4.55,1.59,1.60,1.59
45.68,-3.47,-5.06,-3.48,-5.07,5.07,5.12,4.50,1.60,1.58,1.59
46.13,-3.43,-5.01,-3.42,-5.00,5.00,5.08,4.45,1.57,1.58,1.58
46.60,-3.37,-4.95,-3.36,-4.94,4.94,5.04,4.41,1.57,1.58,1.58
47.06,-3.29,-4.86,-3.30,-4.88,4.88,5.00,4.37,1.59,1.57,1.57
47.53,-3.24,-4.81,-3.24,-4.81,4.81,4.96,4.33,1.58,1.57,1.57
48.01,-3.19,-4.76,-3.18,-4.75,4.76,4.91,4.30,1.57,1.57,1.57
48.49,-3.14,-4.70,-3.14,-4.70,4.70,4.87,4.27,1.56,1.56,1.56
48.97,-3.08,-4.63,-3.09,-4.64,4.64,4.83,4.24,1.56,1.55,1.55
49.46,-3.05,-4.60,-3.04,-4.59,4.58,4.78,4.21,1.53,1.55,1.55
49.96,-2.98,-4.52,-2.99,-4.53,4.53,4.74,4.19,1.55,1.54,1.54
50.46,-2.94,-4.48,-2.94,-4.48,4.47,4.69,4.17,1.53,1.53,1.54
50.96,-2.89,-4.42,-2.89,-4.42,4.42,4.65,4.15,1.53,1.53,1.53
51.47,-2.86,-4.38,-2.85,-4.37,4.37,4.60,4.13,1.51,1.52,1.52
51.99,-2.80,-4.32,-2.81,-4.33,4.32,4.56,4.11,1.52,1.52,1.52
52.51,-2.77,-4.28,-2.77,-4.28,4.28,4.51,4.10,1.51,1.51,1.51
53.03,-2.75,-4.25,-2.74,-4.24,4.25,4.46,4.09,1.50,1.51,1.50
53.56,-2.71,-4.20,-2.72,-4.21,4.22,4.41,4.08,1.51,1.50,1.49
54.10,-2.71,-4.19,-2.71,-4.19,4.20,4.36,4.06,1.49,1.49,1.48
54.64,-2.71,-4.19,-2.71,-4.18,4.18,4.31,4.05,1.47,1.48,1.48
55.18,-2.71,-4.18,-2.71,-4.18,4.17,4.26,4.04,1.46,1.46,1.47
55.74,-2.71,-4.17,-2.71,-4.17,4.16,4.21,4.03,1.45,1.45,1.46
56.29,-2.71,-4.16,-2.71,-4.16,4.16,4.16,4.02,1.45,1.45,1.45
56.86,-2.71,-4.15,-2.71,-4.15,4.16,4.11,4.00,1.45,1.45,1.44
57.42,-2.71,-4.14,-2.72,-4.14,4.15,4.06,3.99,1.44,1.44,1.43
58.00,-2.73,-4.15,-2.73,-4.15,4.15,4.01,3.97,1.42,1.41,1.42
58.58,-2.75,-4.15,-2.74,-4.14,4.14,3.95,3.95,1.39,1.40,1.40
59.16,-2.75,-4.14,-2.74,-4.13,4.12,3.90,3.93,1.37,1.38,1.39
59.76,-2.71,-4.09,-2.73,-4.11,4.10,3.84,3.91,1.39,1.37,1.38
60.35,-2.71,-4.08,-2.70,-4.07,4.07,3.79,3.88,1.36,1.36,1.37
60.96,-2.68,-4.03,-2.68,-4.03,4.03,3.73,3.86,1.35,1.35,1.35
61.57,-2.64,-3.98,-2.64,-3.98,3.98,3.68,3.82,1.33,1.33,1.34
62.18,-2.59,-3.92,-2.59,-3.92,3.91,3.62,3.79,1.32,1.33,1.33
62.80,-2.53,-3.84,-2.53,-3.84,3.85,3.56,3.75,1.32,1.32,1.31
63.43,-2.47,-3.77,-2.47,-3.77,3.77,3.50,3.71,1.30,1.30,1.30
64.07,-2.41,-3.69,-2.41,-3.69,3.69,3.44,3.67,1.28,1.28,1.28
64.71,-2.35,-3.62,-2.35,-3.61,3.61,3.38,3.62,1.26,1.27,1.27
65.35,-2.28,-3.53,-2.27,-3.52,3.52,3.32,3.57,1.24,1.25,1.25
66.01,-2.19,-3.42,-2.20,-3.43,3.43,3.26,3.52,1.24,1.23,1.23
66.67,-2.13,-3.34,-2.13,-3.34,3.34,3.20,3.46,1.21,1.22,1.21
67.33,-2.06,-3.26,-2.06,-3.25,3.25,3.14,3.40,1.19,1.19,1.20
68.01,-1.98,-3.16,-1.98,-3.16,3.15,3.07,3.34,1.17,1.17,1.18
68.69,-1.91,-3.07,-1.91,-3.06,3.06,3.01,3.28,1.15,1.15,1.16
69.37,-1.83,-2.97,-1.83,-2.97,2.97,2.95,3.21,1.14,1.14,1.14
70.07,-1.75,-2.87,-1.76,-2.87,2.88,2.88,3.14,1.13,1.12,1.12
70.77,-1.69,-2.79,-1.69,-2.78,2.79,2.81,3.07,1.10,1.10,1.10
71.48,-1.63,-2.70,-1.62,-2.70,2.71,2.75,3.00,1.08,1.08,1.07
72.19,-1.56,-2.61,-1.57,-2.62,2.63,2.68,2.93,1.07,1.06,1.05
72.91,-1.53,-2.56,-1.53,-2.55,2.56,2.61,2.86,1.03,1.03,1.03
73.64,-1.49,-2.50,-1.49,-2.49,2.49,2.55,2.79,1.00,1.01,1.01
74.38,-1.45,-2.43,-1.46,-2.44,2.43,2.48,2.71,0.98,0.98,0.98
75.12,-1.42,-2.38,-1.42,-2.38,2.38,2.41,2.64,0.96,0.96,0.96
75.87,-1.40,-2.33,-1.39,-2.32,2.32,2.34,2.57,0.92,0.93,0.93
76.63,-1.35,-2.26,-1.37,-2.27,2.27,2.27,2.49,0.92,0.91,0.91
77.40,-1.35,-2.23,-1.34,-2.22,2.22,2.20,2.42,0.87,0.88,0.88
78.17,-1.31,-2.16,-1.31,-2.16,2.16,2.13,2.35,0.85,0.85,0.85
78.95,-1.28,-2.11,-1.28,-2.11,2.10,2.06,2.28,0.82,0.82,0.83
79.74,-1.25,-2.05,-1.25,-2.04,2.04,1.99,2.20,0.79,0.80,0.80
80.54,-1.21,-1.98,-1.21,-1.98,1.98,1.92,2.13,0.77,0.77,0.77
81.35,-1.17,-1.91,-1.17,-1.91,1.91,1.85,2.06,0.74,0.74,0.74
82.16,-1.14,-1.85,-1.13,-1.84,1.84,1.78,1.99,0.70,0.71,0.71
82.98,-1.08,-1.76,-1.08,-1.76,1.76,1.71,1.93,0.68,0.67,0.68
83.81,-1.03,-1.68,-1.04,-1.69,1.68,1.64,1.86,0.65,0.64,0.65
84.65,-0.99,-1.61,-0.98,-1.60,1.59,1.57,1.79,0.60,0.61,0.62
85.50,-0.93,-1.51,-0.93,-1.51,1.51,1.50,1.73,0.58,0.58,0.58
86.35,-0.86,-1.41,-0.87,-1.42,1.42,1.43,1.66,0.57,0.55,0.55
87.22,-0.82,-1.34,-0.81,-1.33,1.34,1.36,1.60,0.52,0.53,0.52
88.09,-0.77,-1.26,-0.77,-1.25,1.26,1.30,1.54,0.49,0.49,0.49
88.97,-0.72,-1.17,-0.73,-1.18,1.18,1.23,1.48,0.46,0.45,0.45
89.86,-0.69,-1.11,-0.68,-1.10,1.10,1.16,1.42,0.41,0.42,0.42
90.76,-0.65,-1.03,-0.65,-1.03,1.03,1.10,1.36,0.38,0.38,0.38
91.66,-0.61,-0.96,-0.62,-0.96,0.97,1.04,1.30,0.36,0.35,0.35
92.58,-0.60,-0.91,-0.59,-0.90,0.91,0.98,1.25,0.31,0.32,0.31
93.51,-0.56,-0.84,-0.57,-0.85,0.85,0.92,1.19,0.29,0.28,0.28
94.44,-0.56,-0.80,-0.56,-0.80,0.80,0.86,1.14,0.24,0.24,0.24
95.39,-0.56,-0.76,-0.56,-0.76,0.76,0.80,1.09,0.20,0.20,0.20
96.34,-0.56,-0.73,-0.56,-0.73,0.72,0.75,1.03,0.16,0.16,0.17
97.30,-0.56,-0.69,-0.56,-0.69,0.68,0.70,0.98,0.12,0.12,0.13
98.28,-0.56,-0.65,-0.56,-0.65,0.65,0.65,0.93,0.09,0.10,0.09
99.26,-0.56,-0.61,-0.56,-0.62,0.62,0.60,0.88,0.06,0.06,0.05
100.25,-0.56,-0.58,-0.58,-0.59,0.59,0.56,0.84,0.03,0.02,0.02
101.25,-0.61,-0.59,-0.59,-0.57,0.57,0.52,0.79,-0.04,-0.02,-0.02
102.27,-0.61,-0.55,-0.61,-0.55,0.55,0.48,0.74,-0.06,-0.06,-0.06
103.29,-0.61,-0.51,-0.62,-0.53,0.53,0.45,0.70,-0.08,-0.10,-0.10
104.32,-0.65,-0.51,-0.64,-0.50,0.51,0.41,0.65,-0.14,-0.13,-0.14
105.37,-0.65,-0.48,-0.66,-0.49,0.49,0.39,0.61,-0.16,-0.17,-0.17
106.42,-0.70,-0.49,-0.69,-0.48,0.47,0.36,0.57,-0.23,-0.21,-0.21
107.48,-0.70,-0.45,-0.71,-0.46,0.46,0.34,0.53,-0.24,-0.25,-0.25
108.56,-0.73,-0.44,-0.73,-0.44,0.44,0.31,0.49,-0.29,-0.29,-0.29
109.64,-0.75,-0.43,-0.75,-0.42,0.43,0.30,0.45,-0.32,-0.32,-0.32
110.74,-0.78,-0.42,-0.78,-0.41,0.41,0.28,0.42,-0.37,-0.36,-0.36
111.85,-0.79,-0.39,-0.80,-0.40,0.40,0.27,0.38,-0.39,-0.40,-0.40
112.97,-0.84,-0.40,-0.83,-0.39,0.39,0.25,0.35,-0.45,-0.44,-0.44
114.10,-0.84,-0.37,-0.85,-0.37,0.37,0.24,0.31,-0.47,-0.47,-0.47
115.24,-0.88,-0.37,-0.87,-0.36,0.36,0.24,0.28,-0.52,-0.51,-0.51
116.39,-0.89,-0.34,-0.90,-0.35,0.35,0.23,0.25,-0.54,-0.54,-0.55
117.55,-0.93,-0.35,-0.93,-0.34,0.34,0.22,0.22,-0.59,-0.58,-0.58
118.73,-0.95,-0.33,-0.95,-0.33,0.33,0.22,0.20,-0.62,-0.62,-0.62
119.92,-0.98,-0.32,-0.98,-0.32,0.32,0.22,0.17,-0.66,-0.66,-0.66
121.12,-1.01,-0.32,-1.01,-0.32,0.31,0.22,0.15,-0.70,-0.70,-0.69
122.33,-1.03,-0.30,-1.03,-0.31,0.31,0.21,0.13,-0.72,-0.73,-0.73
123.55,-1.07,-0.31,-1.06,-0.30,0.30,0.21,0.11,-0.77,-0.76,-0.76
124.79,-1.07,-0.27,-1.08,-0.28,0.29,0.21,0.09,-0.78,-0.79,-0.80
126.03,-1.11,-0.28,-1.11,-0.28,0.28,0.22,0.07,-0.83,-0.83,-0.83
127.29,-1.12,-0.26,-1.13,-0.27,0.27,0.22,0.06,-0.85,-0.86,-0.86
128.57,-1.17,-0.28,-1.16,-0.26,0.26,0.22,0.04,-0.91,-0.90,-0.89
129.85,-1.17,-0.24,-1.18,-0.25,0.25,0.22,0.03,-0.92,-0.93,-0.93
131.15,-1.21,-0.25,-1.20,-0.24,0.24,0.22,0.02,-0.97,-0.96,-0.96
132.46,-1.21,-0.22,-1.22,-0.23,0.23,0.22,0.01,-0.98,-0.99,-0.99
133.79,-1.25,-0.23,-1.24,-0.22,0.22,0.22,0.00,-1.03,-1.02,-1.02
135.12,-1.26,-0.21,-1.26,-0.21,0.21,0.22,-0.00,-1.05,-1.05,-1.05
136.48,-1.28,-0.20,-1.28,-0.20,0.20,0.22,-0.01,-1.08,-1.08,-1.08
137.84,-1.31,-0.20,-1.30,-0.19,0.19,0.23,-0.01,-1.12,-1.11,-1.11
139.22,-1.31,-0.17,-1.32,-0.18,0.18,0.23,-0.02,-1.13,-1.14,-1.14
140.61,-1.35,-0.19,-1.34,-0.17,0.18,0.23,-0.02,-1.17,-1.16,-1.16
142.02,-1.35,-0.16,-1.36,-0.17,0.17,0.23,-0.02,-1.18,-1.19,-1.19
143.44,-1.38,-0.16,-1.38,-0.16,0.16,0.23,-0.02,-1.22,-1.22,-1.22
144.87,-1.40,-0.16,-1.39,-0.15,0.15,0.23,-0.02,-1.25,-1.24,-1.24
146.32,-1.40,-0.13,-1.42,-0.15,0.14,0.23,-0.02,-1.26,-1.27,-1.27
147.78,-1.45,-0.16,-1.43,-0.14,0.14,0.22,-0.02,-1.31,-1.30,-1.29
149.26,-1.45,-0.13,-1.45,-0.13,0.13,0.22,-0.02,-1.32,-1.32,-1.32
150.75,-1.46,-0.12,-1.47,-0.13,0.13,0.22,-0.01,-1.33,-1.34,-1.34
152.26,-1.49,-0.12,-1.48,-0.12,0.12,0.22,-0.01,-1.37,-1.36,-1.37
153.78,-1.49,-0.10,-1.50,-0.12,0.12,0.22,-0.01,-1.37,-1.39,-1.39
155.32,-1.53,-0.12,-1.52,-0.11,0.11,0.22,-0.00,-1.42,-1.41,-1.41
156.88,-1.54,-0.11,-1.54,-0.11,0.11,0.21,0.00,-1.43,-1.43,-1.43
158.44,-1.54,-0.09,-1.56,-0.11,0.10,0.21,0.01,-1.44,-1.46,-1.45
160.03,-1.58,-0.11,-1.57,-0.10,0.10,0.21,0.01,-1.48,-1.47,-1.47
161.63,-1.59,-0.10,-1.59,-0.10,0.10,0.20,0.02,-1.49,-1.49,-1.49
163.24,-1.59,-0.08,-1.61,-0.10,0.09,0.20,0.02,-1.50,-1.51,-1.51
164.88,-1.63,-0.10,-1.61,-0.09,0.09,0.20,0.03,-1.54,-1.53,-1.53
166.53,-1.63,-0.08,-1.63,-0.08,0.09,0.19,0.03,-1.54,-1.54,-1.55
168.19,-1.63,-0.07,-1.65,-0.08,0.08,0.19,0.04,-1.55,-1.57,-1.56
169.87,-1.67,-0.09,-1.66,-0.08,0.08,0.19,0.04,-1.59,-1.58,-1.58
171.57,-1.68,-0.08,-1.67,-0.07,0.08,0.18,0.05,-1.60,-1.59,-1.60
173.29,-1.68,-0.07,-1.69,-0.07,0.07,0.18,0.05,-1.61,-1.61,-1.61
175.02,-1.68,-0.05,-1.70,-0.07,0.07,0.17,0.06,-1.61,-1.63,-1.63
176.77,-1.73,-0.09,-1.71,-0.07,0.07,0.17,0.06,-1.66,-1.64,-1.64
178.54,-1.73,-0.07,-1.72,-0.07,0.07,0.16,0.07,-1.66,-1.66,-1.66
180.32,-1.73,-0.06,-1.74,-0.07,0.06,0.16,0.07,-1.67,-1.67,-1.67
182.13,-1.73,-0.05,-1.74,-0.06,0.06,0.15,0.08,-1.67,-1.68,-1.68
183.95,-1.77,-0.07,-1.76,-0.06,0.06,0.15,0.08,-1.71,-1.70,-1.70
185.79,-1.77,-0.06,-1.77,-0.06,0.05,0.14,0.09,-1.72,-1.71,-1.71
187.65,-1.77,-0.05,-1.77,-0.05,0.05,0.13,0.10,-1.72,-1.72,-1.72
189.52,-1.77,-0.04,-1.77,-0.04,0.05,0.13,0.10,-1.72,-1.72,-1.73
191.42,-1.77,-0.03,-1.79,-0.04,0.05,0.12,0.11,-1.72,-1.74,-1.74
193.33,-1.82,-0.07,-1.80,-0.05,0.05,0.12,0.11,-1.77,-1.76,-1.75
195.27,-1.82,-0.06,-1.82,-0.05,0.05,0.11,0.12,-1.77,-1.77,-1.76
197.22,-1.82,-0.05,-1.82,-0.05,0.05,0.10,0.12,-1.77,-1.77,-1.77
199.19,-1.82,-0.04,-1.83,-0.04,0.05,0.10,0.12,-1.77,-1.78,-1.78
201.18,-1.83,-0.04,-1.84,-0.05,0.05,0.09,0.13,-1.78,-1.79,-1.79
203.19,-1.87,-0.07,-1.86,-0.05,0.05,0.08,0.13,-1.82,-1.81,-1.80
205.23,-1.87,-0.06,-1.87,-0.06,0.05,0.08,0.14,-1.82,-1.82,-1.81
207.28,-1.87,-0.05,-1.87,-0.05,0.05,0.07,0.14,-1.82,-1.82,-1.82
209.35,-1.87,-0.04,-1.87,-0.04,0.05,0.06,0.15,-1.82,-1.82,-1.83
211.44,-1.87,-0.04,-1.88,-0.05,0.05,0.06,0.15,-1.82,-1.83,-1.83
213.56,-1.90,-0.06,-1.89,-0.05,0.05,0.05,0.15,-1.85,-1.84,-1.84
215.69,-1.91,-0.06,-1.91,-0.06,0.05,0.04,0.16,-1.86,-1.85,-1.85
217.85,-1.91,-0.06,-1.91,-0.06,0.05,0.04,0.16,-1.86,-1.86,-1.85
220.03,-1.91,-0.05,-1.91,-0.05,0.06,0.03,0.16,-1.85,-1.85,-1.86
222.23,-1.91,-0.04,-1.92,-0.05,0.06,0.02,0.16,-1.85,-1.86,-1.87
224.45,-1.92,-0.05,-1.93,-0.06,0.06,0.02,0.17,-1.86,-1.87,-1.87
226.70,-1.96,-0.08,-1.95,-0.07,0.06,0.01,0.17,-1.90,-1.88,-1.88
228.96,-1.96,-0.08,-1.96,-0.08,0.06,0.00,0.17,-1.90,-1.90,-1.88
231.25,-1.96,-0.07,-1.96,-0.08,0.06,-0.01,0.17,-1.90,-1.90,-1.89
233.57,-1.96,-0.07,-1.96,-0.07,0.06,-0.01,0.17,-1.90,-1.90,-1.89
235.90,-1.96,-0.06,-1.96,-0.06,0.07,-0.02,0.17,-1.89,-1.89,-1.90
238.26,-1.96,-0.06,-1.96,-0.06,0.07,-0.03,0.17,-1.89,-1.89,-1.90
240.64,-1.96,-0.05,-1.96,-0.06,0.07,-0.03,0.17,-1.89,-1.90,-1.91
243.05,-1.98,-0.07,-1.97,-0.06,0.07,-0.04,0.17,-1.91,-1.90,-1.91
245.48,-1.98,-0.07,-1.99,-0.07,0.07,-0.05,0.16,-1.91,-1.91,-1.91
247.93,-2.00,-0.08,-2.00,-0.08,0.08,-0.06,0.16,-1.92,-1.92,-1.92
250.41,-2.01,-0.09,-2.01,-0.08,0.08,-0.07,0.16,-1.93,-1.93,-1.92
252.92,-2.01,-0.09,-2.01,-0.09,0.08,-0.07,0.15,-1.93,-1.93,-1.92
255.45,-2.01,-0.08,-2.01,-0.08,0.08,-0.08,0.15,-1.93,-1.93,-1.93
258.00,-2.01,-0.08,-2.01,-0.08,0.08,-0.09,0.14,-1.93,-1.93,-1.93
260.58,-2.01,-0.08,-2.01,-0.08,0.08,-0.10,0.14,-1.93,-1.93,-1.93
263.19,-2.01,-0.07,-2.01,-0.07,0.08,-0.10,0.13,-1.93,-1.93,-1.94
265.82,-2.01,-0.07,-2.01,-0.07,0.07,-0.11,0.13,-1.94,-1.94,-1.94
268.48,-2.01,-0.07,-2.01,-0.07,0.07,-0.12,0.12,-1.94,-1.94,-1.94
271.16,-2.01,-0.07,-2.01,-0.07,0.07,-0.13,0.11,-1.94,-1.94,-1.94
273.87,-2.01,-0.07,-2.01,-0.07,0.07,-0.14,0.10,-1.94,-1.94,-1.94
276.61,-2.01,-0.06,-2.01,-0.06,0.07,-0.14,0.09,-1.94,-1.94,-1.95
279.38,-2.01,-0.06,-2.01,-0.06,0.06,-0.15,0.08,-1.95,-1.95,-1.95
282.17,-2.01,-0.06,-2.01,-0.06,0.06,-0.16,0.07,-1.95,-1.95,-1.95
284.99,-2.01,-0.06,-2.01,-0.06,0.05,-0.17,0.06,-1.96,-1.96,-1.95
287.84,-2.01,-0.06,-2.01,-0.06,0.05,-0.18,0.05,-1.96,-1.96,-1.95
290.72,-2.01,-0.06,-2.00,-0.05,0.04,-0.19,0.04,-1.97,-1.96,-1.95
293.63,-1.98,-0.03,-1.99,-0.03,0.03,-0.19,0.03,-1.95,-1.95,-1.95
296.57,-1.97,-0.01,-1.97,-0.02,0.03,-0.20,0.02,-1.94,-1.95,-1.96
299.53,-1.96,-0.00,-1.96,-0.00,0.02,-0.21,0.01,-1.94,-1.94,-1.96
302.53,-1.96,-0.00,-1.96,-0.00,0.01,-0.22,-0.00,-1.95,-1.95,-1.96
305.55,-1.96,-0.00,-1.96,-0.00,-0.00,-0.23,-0.02,-1.96,-1.96,-1.96
308.61,-1.96,-0.00,-1.96,-0.00,-0.01,-0.24,-0.03,-1.97,-1.97,-1.96
311.69,-1.96,0.00,-1.95,0.01,-0.02,-0.25,-0.04,-1.98,-1.97,-1.96
314.81,-1.94,0.02,-1.94,0.02,-0.03,-0.26,-0.05,-1.97,-1.96,-1.96
317.96,-1.91,0.05,-1.92,0.04,-0.03,-0.26,-0.07,-1.94,-1.96,-1.96
321.14,-1.91,0.05,-1.91,0.05,-0.04,-0.27,-0.08,-1.95,-1.96,-1.96
324.35,-1.91,0.05,-1.91,0.06,-0.05,-0.28,-0.09,-1.96,-1.96,-1.96
327.59,-1.91,0.05,-1.90,0.06,-0.06,-0.29,-0.11,-1.97,-1.96,-1.96
330.87,-1.88,0.08,-1.89,0.08,-0.07,-0.30,-0.12,-1.95,-1.96,-1.96
334.18,-1.87,0.09,-1.87,0.09,-0.09,-0.31,-0.14,-1.96,-1.96,-1.96
337.52,-1.87,0.09,-1.87,0.09,-0.10,-0.32,-0.15,-1.97,-1.97,-1.96
340.90,-1.87,0.09,-1.87,0.10,-0.10,-0.33,-0.17,-1.97,-1.97,-1.96
344.30,-1.87,0.09,-1.85,0.11,-0.11,-0.34,-0.18,-1.98,-1.97,-1.96
347.75,-1.82,0.14,-1.84,0.13,-0.12,-0.35,-0.19,-1.94,-1.96,-1.96
351.23,-1.82,0.14,-1.82,0.14,-0.13,-0.36,-0.21,-1.95,-1.95,-1.96
354.74,-1.82,0.14,-1.82,0.15,-0.14,-0.37,-0.22,-1.96,-1.95,-1.96
358.28,-1.82,0.14,-1.82,0.14,-0.14,-0.38,-0.24,-1.96,-1.97,-1.96
361.87,-1.82,0.14,-1.82,0.14,-0.15,-0.39,-0.26,-1.97,-1.97,-1.96
365.49,-1.82,0.14,-1.81,0.15,-0.16,-0.40,-0.27,-1.98,-1.97,-1.96
369.14,-1.80,0.16,-1.80,0.16,-0.17,-0.41,-0.29,-1.97,-1.96,-1.96
372.83,-1.77,0.19,-1.78,0.18,-0.17,-0.42,-0.30,-1.94,-1.95,-1.96
376.56,-1.77,0.19,-1.77,0.19,-0.18,-0.43,-0.32,-1.95,-1.95,-1.96
380.33,-1.77,0.19,-1.77,0.19,-0.19,-0.44,-0.34,-1.96,-1.96,-1.96
384.13,-1.77,0.19,-1.77,0.19,-0.20,-0.45,-0.35,-1.97,-1.97,-1.96
387.97,-1.77,0.19,-1.76,0.20,-0.21,-0.46,-0.37,-1.98,-1.96,-1.96
391.85,-1.73,0.23,-1.74,0.22,-0.21,-0.47,-0.39,-1.94,-1.96,-1.96
395.77,-1.73,0.23,-1.74,0.22,-0.22,-0.48,-0.40,-1.95,-1.96,-1.96
399.73,-1.73,0.23,-1.72,0.23,-0.23,-0.49,-0.42,-1.96,-1.96,-1.96
403.72,-1.73,0.23,-1.71,0.24,-0.24,-0.50,-0.44,-1.97,-1.96,-1.96
407.76,-1.68,0.28,-1.70,0.25,-0.26,-0.51,-0.45,-1.94,-1.96,-1.96
411.84,-1.68,0.28,-1.68,0.28,-0.27,-0.53,-0.47,-1.95,-1.95,-1.96
415.96,-1.68,0.27,-1.66,0.29,-0.29,-0.54,-0.49,-1.97,-1.95,-1.95
420.12,-1.63,0.32,-1.64,0.31,-0.31,-0.55,-0.50,-1.94,-1.95,-1.95
424.32,-1.63,0.32,-1.62,0.33,-0.33,-0.56,-0.52,-1.96,-1.95,-1.95
428.56,-1.59,0.36,-1.60,0.35,-0.35,-0.57,-0.54,-1.94,-1.95,-1.95
432.85,-1.59,0.36,-1.58,0.37,-0.37,-0.58,-0.55,-1.96,-1.96,-1.95
437.18,-1.55,0.40,-1.55,0.40,-0.40,-0.59,-0.57,-1.95,-1.95,-1.95
441.55,-1.54,0.41,-1.53,0.42,-0.42,-0.61,-0.59,-1.96,-1.95,-1.95
445.96,-1.49,0.46,-1.50,0.45,-0.44,-0.62,-0.60,-1.93,-1.94,-1.95
450.42,-1.49,0.46,-1.48,0.47,-0.47,-0.63,-0.62,-1.96,-1.95,-1.95
454.93,-1.45,0.50,-1.46,0.49,-0.49,-0.64,-0.63,-1.94,-1.95,-1.95
