frequency,raw,error,smoothed,error_smoothed,equalization,parametric_eq,fixed_band_eq,equalized_raw,equalized_smoothed,target
20.00,-13.22,-13.88,-13.22,-13.88,6.00,5.46,2.77,-7.22,-7.22,0.66
20.20,-13.13,-13.83,-13.12,-13.82,6.00,5.49,2.84,-7.13,-7.12,0.70
20.40,-13.03,-13.75,-13.03,-13.76,6.00,5.53,2.92,-7.03,-7.03,0.73
20.61,-12.94,-13.70,-12.94,-13.69,6.00,5.56,3.01,-6.94,-6.94,0.76
20.81,-12.84,-13.62,-12.84,-13.63,6.00,5.59,3.09,-6.84,-6.84,0.79
21.02,-12.75,-13.56,-12.75,-13.56,6.00,5.62,3.18,-6.75,-6.75,0.82
21.23,-12.65,-13.48,-12.65,-13.48,6.00,5.66,3.27,-6.65,-6.65,0.84
21.44,-12.55,-13.39,-12.55,-13.40,6.00,5.69,3.36,-6.55,-6.55,0.85
21.66,-12.45,-13.30,-12.45,-13.30,6.00,5.72,3.46,-6.45,-6.45,0.86
21.87,-12.35,-13.21,-12.34,-13.21,6.00,5.75,3.56,-6.35,-6.34,0.87
22.09,-12.24,-13.11,-12.24,-13.11,6.00,5.78,3.66,-6.24,-6.24,0.88
22.31,-12.13,-13.01,-12.13,-13.01,6.00,5.80,3.76,-6.13,-6.13,0.89
22.54,-12.02,-12.90,-12.02,-12.90,6.00,5.83,3.87,-6.02,-6.02,0.88
22.76,-11.91,-12.79,-11.91,-12.80,6.00,5.86,3.97,-5.91,-5.91,0.88
22.99,-11.81,-12.69,-11.81,-12.69,6.00,5.89,4.09,-5.81,-5.81,0.88
23.22,-11.71,-12.60,-11.71,-12.60,6.00,5.91,4.20,-5.71,-5.71,0.89
23.45,-11.61,-12.50,-11.61,-12.51,6.00,5.94,4.32,-5.61,-5.61,0.89
23.69,-11.52,-12.42,-11.51,-12.42,6.00,5.96,4.44,-5.52,-5.51,0.90
23.92,-11.42,-12.32,-11.42,-12.32,6.00,5.99,4.56,-5.42,-5.42,0.90
24.16,-11.32,-12.23,-11.32,-12.23,6.00,6.01,4.68,-5.32,-5.32,0.91
24.40,-11.22,-12.13,-11.22,-12.12,6.00,6.03,4.81,-5.22,-5.22,0.91
24.65,-11.12,-12.02,-11.11,-12.02,6.00,6.05,4.93,-5.12,-5.11,0.90
24.89,-11.01,-11.91,-11.01,-11.91,6.00,6.07,5.06,-5.01,-5.01,0.90
25.14,-10.92,-11.82,-10.92,-11.81,6.00,6.09,5.19,-4.92,-4.92,0.90
25.39,-10.83,-11.72,-10.83,-11.72,6.00,6.11,5.33,-4.83,-4.83,0.89
25.65,-10.75,-11.64,-10.74,-11.63,6.00,6.13,5.46,-4.75,-4.74,0.89
25.91,-10.66,-11.54,-10.66,-11.54,6.00,6.15,5.59,-4.66,-4.66,0.88
26.16,-10.58,-11.44,-10.58,-11.45,6.00,6.16,5.73,-4.58,-4.58,0.87
26.43,-10.50,-11.37,-10.49,-11.36,6.00,6.18,5.86,-4.50,-4.49,0.87
26.69,-10.41,-11.26,-10.41,-11.27,6.00,6.19,5.99,-4.41,-4.41,0.86
26.96,-10.33,-11.18,-10.33,-11.18,6.00,6.21,6.12,-4.33,-4.33,0.86
27.23,-10.25,-11.09,-10.25,-11.09,6.00,6.22,6.25,-4.25,-4.25,0.85
27.50,-10.17,-11.01,-10.17,-11.01,6.00,6.23,6.38,-4.17,-4.17,0.84
27.77,-10.09,-10.91,-10.09,-10.92,6.00,6.25,6.50,-4.09,-4.09,0.82
28.05,-10.02,-10.84,-10.02,-10.84,6.00,6.26,6.61,-4.02,-4.02,0.82
28.33,-9.95,-10.76,-9.95,-10.77,6.00,6.27,6.73,-3.95,-3.95,0.81
28.62,-9.89,-10.69,-9.89,-10.69,6.00,6.28,6.83,-3.89,-3.89,0.80
28.90,-9.82,-10.62,-9.81,-10.61,6.00,6.28,6.93,-3.82,-3.81,0.80
29.19,-9.71,-10.50,-9.70,-10.50,6.00,6.29,7.02,-3.71,-3.70,0.79
29.48,-9.58,-10.38,-9.57,-10.37,6.00,6.30,7.11,-3.58,-3.57,0.80
29.78,-9.44,-10.23,-9.44,-10.23,6.00,6.30,7.18,-3.44,-3.44,0.79
30.08,-9.32,-10.10,-9.33,-10.11,6.00,6.31,7.25,-3.32,-3.33,0.78
30.38,-9.25,-10.01,-9.24,-10.01,6.00,6.31,7.30,-3.25,-3.24,0.77
30.68,-9.18,-9.94,-9.17,-9.93,6.00,6.31,7.35,-3.18,-3.17,0.76
30.99,-9.11,-9.86,-9.11,-9.87,6.00,6.32,7.38,-3.11,-3.11,0.75
31.30,-9.04,-9.79,-9.04,-9.80,6.00,6.32,7.40,-3.04,-3.04,0.75
31.61,-8.98,-9.73,-8.97,-9.72,6.00,6.32,7.41,-2.98,-2.97,0.75
31.93,-8.91,-9.65,-8.91,-9.64,6.00,6.32,7.41,-2.91,-2.91,0.74
32.24,-8.83,-9.55,-8.83,-9.56,6.00,6.31,7.40,-2.83,-2.83,0.72
32.57,-8.76,-9.48,-8.76,-9.48,6.00,6.31,7.38,-2.76,-2.76,0.72
32.89,-8.68,-9.40,-8.68,-9.40,6.00,6.31,7.35,-2.68,-2.68,0.73
33.22,-8.61,-9.32,-8.61,-9.32,6.00,6.30,7.31,-2.61,-2.61,0.71
33.55,-8.53,-9.24,-8.53,-9.24,6.00,6.30,7.26,-2.53,-2.53,0.71
33.89,-8.46,-9.16,-8.46,-9.16,6.00,6.29,7.21,-2.46,-2.46,0.70
34.23,-8.38,-9.08,-8.38,-9.07,6.00,6.29,7.14,-2.38,-2.38,0.70
34.57,-8.30,-8.99,-8.30,-8.99,6.00,6.28,7.07,-2.30,-2.30,0.69
34.92,-8.22,-8.90,-8.22,-8.90,6.00,6.27,6.99,-2.22,-2.22,0.69
35.27,-8.14,-8.82,-8.14,-8.82,6.00,6.26,6.91,-2.14,-2.14,0.68
35.62,-8.06,-8.73,-8.06,-8.74,6.00,6.26,6.83,-2.06,-2.06,0.67
35.97,-7.99,-8.66,-7.98,-8.65,6.00,6.25,6.74,-1.99,-1.98,0.67
36.33,-7.90,-8.56,-7.90,-8.56,6.00,6.23,6.65,-1.90,-1.90,0.67
36.70,-7.82,-8.47,-7.82,-8.47,6.00,6.22,6.56,-1.82,-1.82,0.66
37.06,-7.74,-8.38,-7.73,-8.38,6.00,6.21,6.47,-1.74,-1.73,0.64
37.43,-7.65,-8.29,-7.65,-8.28,6.00,6.20,6.37,-1.65,-1.65,0.64
37.81,-7.56,-8.19,-7.56,-8.19,6.00,6.19,6.28,-1.56,-1.56,0.63
38.19,-7.48,-8.09,-7.47,-8.09,6.00,6.17,6.19,-1.48,-1.47,0.62
38.57,-7.39,-8.00,-7.38,-7.99,6.00,6.16,6.10,-1.39,-1.38,0.61
38.95,-7.30,-7.90,-7.32,-7.92,6.00,6.15,6.01,-1.30,-1.32,0.60
39.34,-7.28,-7.86,-7.28,-7.87,6.00,6.13,5.92,-1.28,-1.28,0.59
39.74,-7.27,-7.84,-7.25,-7.83,6.00,6.12,5.84,-1.27,-1.25,0.57
40.14,-7.23,-7.81,-7.22,-7.79,6.00,6.10,5.75,-1.23,-1.22,0.58
40.54,-7.15,-7.72,-7.15,-7.72,6.00,6.09,5.67,-1.15,-1.15,0.57
40.94,-7.07,-7.63,-7.06,-7.63,6.00,6.08,5.60,-1.07,-1.06,0.56
41.35,-6.98,-7.53,-6.97,-7.52,6.00,6.06,5.53,-0.98,-0.97,0.55
41.76,-6.89,-7.43,-6.90,-7.44,6.00,6.05,5.46,-0.89,-0.90,0.55
42.18,-6.84,-7.37,-6.86,-7.39,6.00,6.04,5.39,-0.84,-0.86,0.53
42.60,-6.84,-7.36,-6.83,-7.35,6.00,6.02,5.33,-0.84,-0.83,0.52
43.03,-6.83,-7.33,-6.80,-7.30,6.00,6.01,5.27,-0.83,-0.80,0.50
43.46,-6.73,-7.21,-6.73,-7.21,6.00,6.00,5.21,-0.73,-0.73,0.48
43.90,-6.63,-7.07,-6.63,-7.08,6.00,5.99,5.16,-0.63,-0.63,0.45
44.33,-6.53,-6.95,-6.52,-6.94,6.00,5.98,5.12,-0.53,-0.52,0.42
44.78,-6.43,-6.82,-6.44,-6.84,6.00,5.97,5.07,-0.43,-0.44,0.40
45.23,-6.38,-6.75,-6.40,-6.77,6.00,5.97,5.03,-0.38,-0.40,0.37
45.68,-6.38,-6.72,-6.36,-6.71,6.00,5.96,5.00,-0.38,-0.36,0.34
46.13,-6.35,-6.68,-6.31,-6.64,6.00,5.96,4.97,-0.35,-0.31,0.33
46.60,-6.24,-6.56,-6.25,-6.56,6.00,5.96,4.94,-0.24,-0.25,0.32
47.06,-6.15,-6.46,-6.19,-6.49,6.00,5.96,4.91,-0.15,-0.19,0.31
47.53,-6.15,-6.44,-6.15,-6.45,6.00,5.97,4.89,-0.15,-0.15,0.29
48.01,-6.15,-6.44,-6.12,-6.41,6.00,5.97,4.88,-0.15,-0.12,0.30
48.49,-6.09,-6.38,-6.09,-6.37,6.01,5.98,4.86,-0.08,-0.08,0.29
48.97,-6.02,-6.29,-6.03,-6.31,6.01,5.99,4.85,-0.01,-0.02,0.27
49.46,-5.97,-6.23,-5.97,-6.24,6.01,5.99,4.84,0.05,0.04,0.26
49.96,-5.92,-6.19,-5.89,-6.16,6.01,6.00,4.84,0.09,0.12,0.27
50.46,-5.82,-6.10,-5.81,-6.09,5.99,6.00,4.83,0.17,0.18,0.28
50.96,-5.71,-5.99,-5.75,-6.03,5.97,6.00,4.83,0.26,0.21,0.28
51.47,-5.70,-5.97,-5.70,-5.98,5.94,5.99,4.83,0.24,0.23,0.27
51.99,-5.70,-5.96,-5.64,-5.91,5.90,5.97,4.84,0.20,0.26,0.27
52.51,-5.58,-5.85,-5.58,-5.84,5.85,5.95,4.84,0.28,0.27,0.27
53.03,-5.47,-5.72,-5.51,-5.76,5.80,5.91,4.85,0.33,0.29,0.25
53.56,-5.47,-5.70,-5.47,-5.70,5.73,5.87,4.85,0.26,0.27,0.23
54.10,-5.47,-5.68,-5.47,-5.67,5.66,5.81,4.86,0.19,0.19,0.21
54.64,-5.47,-5.65,-5.45,-5.63,5.59,5.75,4.87,0.13,0.14,0.18
55.18,-5.43,-5.57,-5.39,-5.54,5.53,5.68,4.88,0.10,0.13,0.15
55.74,-5.30,-5.42,-5.32,-5.44,5.46,5.60,4.89,0.16,0.14,0.12
56.29,-5.24,-5.33,-5.26,-5.35,5.39,5.52,4.89,0.15,0.13,0.10
56.86,-5.24,-5.30,-5.24,-5.30,5.31,5.44,4.90,0.07,0.07,0.06
57.42,-5.24,-5.26,-5.24,-5.26,5.23,5.36,4.90,-0.01,-0.01,0.02
58.00,-5.24,-5.23,-5.19,-5.18,5.15,5.28,4.91,-0.09,-0.04,-0.01
58.58,-5.11,-5.07,-5.12,-5.08,5.08,5.20,4.91,-0.03,-0.04,-0.04
59.16,-5.01,-4.94,-5.05,-4.98,5.02,5.12,4.91,0.01,-0.03,-0.07
59.76,-5.01,-4.91,-5.00,-4.90,4.95,5.04,4.90,-0.06,-0.05,-0.10
60.35,-5.01,-4.86,-5.00,-4.86,4.87,4.97,4.89,-0.14,-0.13,-0.14
60.96,-5.01,-4.83,-5.02,-4.84,4.79,4.89,4.88,-0.22,-0.23,-0.18
61.57,-5.01,-4.77,-4.99,-4.76,4.71,4.82,4.87,-0.30,-0.28,-0.23
62.18,-4.97,-4.70,-4.93,-4.66,4.64,4.75,4.85,-0.33,-0.29,-0.27
62.80,-4.82,-4.51,-4.86,-4.55,4.58,4.68,4.83,-0.24,-0.28,-0.31
63.43,-4.78,-4.43,-4.79,-4.45,4.51,4.61,4.81,-0.27,-0.29,-0.35
64.07,-4.78,-4.40,-4.77,-4.38,4.43,4.54,4.78,-0.35,-0.34,-0.38
64.71,-4.78,-4.36,-4.79,-4.37,4.35,4.48,4.75,-0.43,-0.44,-0.42
65.35,-4.78,-4.33,-4.78,-4.33,4.27,4.41,4.71,-0.51,-0.51,-0.44
66.01,-4.78,-4.30,-4.72,-4.25,4.21,4.35,4.67,-0.57,-0.52,-0.48
66.67,-4.63,-4.13,-4.65,-4.15,4.16,4.28,4.63,-0.47,-0.50,-0.50
67.33,-4.56,-4.03,-4.59,-4.06,4.11,4.22,4.59,-0.45,-0.48,-0.53
68.01,-4.56,-4.01,-4.55,-4.00,4.06,4.16,4.54,-0.50,-0.49,-0.55
68.69,-4.56,-3.99,-4.55,-3.98,4.00,4.10,4.50,-0.55,-0.55,-0.57
69.37,-4.56,-3.96,-4.57,-3.97,3.94,4.04,4.45,-0.62,-0.63,-0.59
70.07,-4.56,-3.94,-4.56,-3.95,3.89,3.98,4.40,-0.67,-0.68,-0.61
70.77,-4.56,-3.93,-4.52,-3.89,3.84,3.92,4.34,-0.72,-0.68,-0.63
71.48,-4.45,-3.81,-4.44,-3.80,3.80,3.87,4.29,-0.65,-0.65,-0.64
72.19,-4.33,-3.66,-4.37,-3.71,3.75,3.81,4.24,-0.58,-0.62,-0.66
72.91,-4.33,-3.64,-4.32,-3.64,3.70,3.76,4.18,-0.63,-0.62,-0.69
73.64,-4.33,-3.61,-4.32,-3.61,3.64,3.71,4.13,-0.69,-0.68,-0.71
74.38,-4.33,-3.60,-4.34,-3.61,3.58,3.66,4.08,-0.75,-0.76,-0.73
75.12,-4.33,-3.57,-4.33,-3.58,3.51,3.62,4.02,-0.81,-0.82,-0.75
75.87,-4.33,-3.55,-4.29,-3.51,3.46,3.57,3.97,-0.87,-0.83,-0.78
76.63,-4.22,-3.42,-4.22,-3.42,3.42,3.53,3.92,-0.80,-0.81,-0.80
77.40,-4.13,-3.31,-4.15,-3.34,3.38,3.49,3.87,-0.75,-0.78,-0.82
78.17,-4.10,-3.26,-4.10,-3.27,3.34,3.45,3.83,-0.76,-0.76,-0.83
78.95,-4.10,-3.26,-4.09,-3.25,3.30,3.42,3.78,-0.80,-0.79,-0.83
79.74,-4.10,-3.26,-4.10,-3.25,3.25,3.39,3.74,-0.84,-0.84,-0.84
80.54,-4.10,-3.24,-4.10,-3.25,3.22,3.36,3.69,-0.88,-0.89,-0.85
81.35,-4.10,-3.24,-4.10,-3.24,3.18,3.33,3.65,-0.92,-0.92,-0.85
82.16,-4.08,-3.22,-4.05,-3.20,3.16,3.31,3.62,-0.92,-0.90,-0.85
82.98,-4.00,-3.15,-3.99,-3.14,3.14,3.28,3.58,-0.86,-0.85,-0.85
83.81,-3.89,-3.04,-3.92,-3.07,3.12,3.26,3.55,-0.77,-0.80,-0.85
84.65,-3.87,-3.03,-3.87,-3.03,3.10,3.24,3.52,-0.77,-0.77,-0.84
85.50,-3.87,-3.04,-3.86,-3.03,3.08,3.22,3.49,-0.79,-0.78,-0.83
86.35,-3.87,-3.05,-3.87,-3.05,3.05,3.20,3.46,-0.82,-0.82,-0.82
87.22,-3.87,-3.06,-3.88,-3.08,3.03,3.18,3.44,-0.84,-0.86,-0.80
88.09,-3.87,-3.07,-3.87,-3.07,3.01,3.16,3.42,-0.86,-0.86,-0.80
88.97,-3.87,-3.08,-3.82,-3.03,2.99,3.14,3.40,-0.88,-0.83,-0.78
89.86,-3.72,-2.95,-3.74,-2.97,2.97,3.12,3.39,-0.75,-0.78,-0.77
90.76,-3.65,-2.87,-3.68,-2.91,2.94,3.10,3.38,-0.70,-0.73,-0.78
91.66,-3.64,-2.88,-3.63,-2.86,2.92,3.08,3.37,-0.72,-0.71,-0.76
92.58,-3.64,-2.87,-3.63,-2.87,2.89,3.07,3.36,-0.74,-0.74,-0.77
93.51,-3.64,-2.88,-3.64,-2.88,2.88,3.05,3.35,-0.76,-0.76,-0.76
94.44,-3.64,-2.88,-3.64,-2.88,2.86,3.03,3.35,-0.77,-0.77,-0.75
95.39,-3.64,-2.88,-3.64,-2.88,2.86,3.01,3.35,-0.78,-0.78,-0.76
96.34,-3.64,-2.87,-3.64,-2.87,2.85,3.00,3.35,-0.78,-0.78,-0.77
97.30,-3.64,-2.87,-3.64,-2.87,2.85,2.98,3.36,-0.79,-0.79,-0.77
98.28,-3.64,-2.86,-3.64,-2.86,2.85,2.96,3.36,-0.78,-0.78,-0.78
99.26,-3.64,-2.85,-3.63,-2.85,2.86,2.95,3.37,-0.78,-0.78,-0.79
100.25,-3.64,-2.84,-3.63,-2.83,2.87,2.93,3.38,-0.77,-0.76,-0.80
101.25,-3.64,-2.83,-3.65,-2.84,2.87,2.92,3.39,-0.77,-0.77,-0.80
102.27,-3.67,-2.85,-3.70,-2.88,2.88,2.90,3.40,-0.78,-0.82,-0.81
103.29,-3.79,-2.94,-3.77,-2.93,2.90,2.89,3.42,-0.88,-0.87,-0.84
104.32,-3.87,-3.01,-3.83,-2.97,2.94,2.88,3.43,-0.93,-0.89,-0.86
105.37,-3.87,-2.98,-3.87,-2.98,2.98,2.87,3.44,-0.89,-0.89,-0.89
106.42,-3.87,-2.95,-3.90,-2.97,3.02,2.85,3.46,-0.84,-0.87,-0.92
107.48,-3.97,-3.00,-3.97,-3.01,3.07,2.84,3.47,-0.90,-0.91,-0.97
108.56,-4.09,-3.07,-4.10,-3.08,3.10,2.83,3.49,-0.99,-1.00,-1.02
109.64,-4.25,-3.19,-4.22,-3.16,3.12,2.82,3.50,-1.12,-1.10,-1.06
110.74,-4.33,-3.22,-4.30,-3.20,3.14,2.82,3.52,-1.19,-1.16,-1.11
111.85,-4.33,-3.18,-4.34,-3.18,3.15,2.81,3.53,-1.18,-1.19,-1.15
112.97,-4.33,-3.11,-4.34,-3.13,3.14,2.80,3.54,-1.19,-1.20,-1.22
114.10,-4.33,-3.07,-4.33,-3.07,3.10,2.80,3.55,-1.23,-1.23,-1.25
115.24,-4.33,-3.02,-4.34,-3.03,3.02,2.79,3.56,-1.30,-1.32,-1.31
116.39,-4.33,-2.97,-4.32,-2.96,2.92,2.79,3.56,-1.40,-1.40,-1.36
117.55,-4.32,-2.91,-4.29,-2.88,2.81,2.79,3.57,-1.51,-1.47,-1.41
118.73,-4.16,-2.71,-4.18,-2.73,2.69,2.79,3.57,-1.47,-1.49,-1.45
119.92,-4.09,-2.62,-4.04,-2.57,2.58,2.79,3.56,-1.51,-1.47,-1.47
121.12,-3.87,-2.36,-3.93,-2.42,2.47,2.79,3.56,-1.40,-1.46,-1.51
122.33,-3.87,-2.33,-3.87,-2.34,2.39,2.79,3.55,-1.48,-1.49,-1.54
123.55,-3.87,-2.32,-3.84,-2.28,2.33,2.80,3.53,-1.54,-1.51,-1.55
124.79,-3.87,-2.29,-3.86,-2.28,2.31,2.80,3.52,-1.56,-1.55,-1.58
126.03,-3.87,-2.27,-3.88,-2.28,2.32,2.81,3.50,-1.55,-1.56,-1.60
127.29,-3.94,-2.32,-3.97,-2.35,2.37,2.82,3.47,-1.57,-1.60,-1.62
128.57,-4.10,-2.45,-4.10,-2.45,2.45,2.83,3.45,-1.65,-1.65,-1.65
129.85,-4.31,-2.63,-4.25,-2.57,2.55,2.84,3.41,-1.76,-1.70,-1.67
131.15,-4.38,-2.68,-4.40,-2.71,2.67,2.86,3.38,-1.70,-1.73,-1.70
132.46,-4.51,-2.79,-4.53,-2.81,2.81,2.87,3.34,-1.70,-1.72,-1.72
133.79,-4.70,-2.97,-4.66,-2.92,2.95,2.89,3.30,-1.75,-1.71,-1.73
135.12,-4.80,-3.04,-4.83,-3.08,3.09,2.90,3.26,-1.71,-1.74,-1.76
136.48,-5.01,-3.23,-5.02,-3.24,3.23,2.92,3.21,-1.78,-1.79,-1.77
137.84,-5.22,-3.41,-5.19,-3.38,3.36,2.94,3.16,-1.85,-1.82,-1.80
139.22,-5.36,-3.51,-5.35,-3.51,3.50,2.97,3.11,-1.86,-1.85,-1.84
140.61,-5.45,-3.58,-5.46,-3.60,3.62,2.99,3.06,-1.83,-1.84,-1.86
142.02,-5.58,-3.71,-5.58,-3.70,3.73,3.01,3.00,-1.85,-1.85,-1.87
143.44,-5.68,-3.78,-5.71,-3.81,3.82,3.04,2.94,-1.86,-1.89,-1.90
144.87,-5.88,-3.95,-5.83,-3.90,3.89,3.07,2.89,-1.99,-1.94,-1.93
146.32,-5.91,-3.94,-5.90,-3.94,3.92,3.09,2.83,-1.99,-1.98,-1.96
147.78,-5.92,-3.93,-5.93,-3.94,3.93,3.12,2.77,-1.99,-2.01,-1.99
149.26,-5.92,-3.89,-5.93,-3.90,3.89,3.15,2.71,-2.02,-2.04,-2.03
150.75,-5.92,-3.84,-5.92,-3.84,3.82,3.18,2.65,-2.10,-2.10,-2.08
152.26,-5.91,-3.77,-5.88,-3.74,3.70,3.21,2.59,-2.21,-2.18,-2.13
153.78,-5.77,-3.57,-5.79,-3.59,3.53,3.24,2.53,-2.24,-2.26,-2.20
155.32,-5.66,-3.40,-5.64,-3.38,3.31,3.27,2.48,-2.34,-2.33,-2.26
156.88,-5.47,-3.15,-5.49,-3.17,3.09,3.30,2.42,-2.38,-2.40,-2.31
158.44,-5.30,-2.92,-5.31,-2.93,2.87,3.33,2.36,-2.42,-2.43,-2.38
160.03,-5.18,-2.74,-5.11,-2.68,2.70,3.35,2.31,-2.48,-2.41,-2.44
161.63,-4.91,-2.43,-4.93,-2.44,2.58,3.38,2.25,-2.33,-2.35,-2.48
163.24,-4.82,-2.29,-4.85,-2.33,2.53,3.40,2.20,-2.28,-2.32,-2.53
164.88,-4.87,-2.31,-4.93,-2.37,2.57,3.42,2.14,-2.30,-2.36,-2.56
166.53,-5.21,-2.62,-5.17,-2.58,2.68,3.44,2.09,-2.53,-2.49,-2.59
168.19,-5.51,-2.89,-5.46,-2.85,2.85,3.45,2.04,-2.65,-2.61,-2.62
169.87,-5.75,-3.11,-5.77,-3.14,3.07,3.46,1.99,-2.68,-2.70,-2.63
171.57,-6.00,-3.36,-6.01,-3.37,3.29,3.46,1.95,-2.71,-2.72,-2.64
173.29,-6.26,-3.62,-6.24,-3.60,3.49,3.47,1.90,-2.76,-2.75,-2.64
175.02,-6.38,-3.74,-6.41,-3.77,3.66,3.46,1.85,-2.72,-2.75,-2.64
176.77,-6.57,-3.93,-6.47,-3.84,3.76,3.45,1.81,-2.80,-2.71,-2.64
178.54,-6.43,-3.79,-6.47,-3.83,3.81,3.44,1.77,-2.62,-2.66,-2.64
180.32,-6.38,-3.74,-6.43,-3.79,3.80,3.42,1.73,-2.58,-2.63,-2.63
182.13,-6.38,-3.75,-6.33,-3.70,3.75,3.39,1.69,-2.63,-2.58,-2.63
183.95,-6.29,-3.66,-6.29,-3.66,3.66,3.36,1.65,-2.62,-2.62,-2.63
185.79,-6.16,-3.53,-6.20,-3.57,3.56,3.33,1.61,-2.60,-2.64,-2.63
187.65,-6.15,-3.50,-6.10,-3.45,3.45,3.29,1.58,-2.70,-2.65,-2.65
189.52,-5.97,-3.31,-5.98,-3.32,3.33,3.24,1.54,-2.63,-2.65,-2.66
191.42,-5.87,-3.19,-5.87,-3.19,3.22,3.19,1.51,-2.65,-2.65,-2.67
193.33,-5.75,-3.06,-5.77,-3.09,3.11,3.13,1.48,-2.64,-2.66,-2.69
195.27,-5.70,-3.00,-5.71,-3.01,3.01,3.07,1.45,-2.69,-2.70,-2.70
197.22,-5.70,-2.99,-5.64,-2.92,2.93,3.00,1.42,-2.77,-2.71,-2.71
199.19,-5.56,-2.82,-5.57,-2.84,2.86,2.93,1.39,-2.70,-2.71,-2.74
201.18,-5.47,-2.72,-5.50,-2.75,2.80,2.86,1.36,-2.66,-2.70,-2.75
203.19,-5.47,-2.71,-5.46,-2.69,2.74,2.78,1.34,-2.73,-2.72,-2.76
205.23,-5.47,-2.69,-5.47,-2.70,2.68,2.70,1.31,-2.79,-2.80,-2.78
207.28,-5.47,-2.68,-5.49,-2.69,2.60,2.61,1.28,-2.86,-2.88,-2.79
209.35,-5.47,-2.66,-5.42,-2.61,2.53,2.53,1.26,-2.94,-2.89,-2.81
211.44,-5.34,-2.50,-5.29,-2.46,2.44,2.44,1.23,-2.90,-2.85,-2.84
213.56,-5.09,-2.24,-5.16,-2.32,2.35,2.35,1.21,-2.74,-2.81,-2.85
215.69,-5.01,-2.16,-5.04,-2.19,2.24,2.26,1.19,-2.76,-2.79,-2.85
217.85,-5.01,-2.14,-4.97,-2.10,2.14,2.17,1.16,-2.87,-2.83,-2.86
220.03,-4.92,-2.04,-4.91,-2.03,2.02,2.08,1.14,-2.90,-2.89,-2.88
222.23,-4.82,-1.92,-4.80,-1.91,1.90,1.99,1.12,-2.92,-2.90,-2.90
224.45,-4.68,-1.78,-4.70,-1.80,1.79,1.90,1.09,-2.89,-2.91,-2.90
226.70,-4.57,-1.67,-4.60,-1.70,1.69,1.81,1.07,-2.88,-2.91,-2.90
228.96,-4.56,-1.66,-4.51,-1.61,1.59,1.71,1.04,-2.97,-2.92,-2.90
231.25,-4.39,-1.49,-4.40,-1.50,1.49,1.62,1.02,-2.90,-2.91,-2.90
233.57,-4.30,-1.40,-4.27,-1.37,1.39,1.53,0.99,-2.90,-2.88,-2.90
235.90,-4.11,-1.20,-4.17,-1.27,1.30,1.43,0.97,-2.80,-2.87,-2.91
238.26,-4.10,-1.19,-4.10,-1.20,1.22,1.34,0.94,-2.87,-2.88,-2.90
240.64,-4.10,-1.20,-4.02,-1.13,1.15,1.25,0.91,-2.95,-2.88,-2.90
243.05,-3.94,-1.05,-3.98,-1.10,1.07,1.15,0.88,-2.87,-2.91,-2.88
245.48,-3.87,-1.00,-3.90,-1.03,1.00,1.06,0.85,-2.87,-2.90,-2.87
247.93,-3.87,-1.01,-3.80,-0.94,0.93,0.97,0.82,-2.94,-2.87,-2.85
250.41,-3.68,-0.83,-3.70,-0.86,0.85,0.87,0.79,-2.83,-2.85,-2.85
252.92,-3.60,-0.77,-3.60,-0.77,0.77,0.78,0.76,-2.83,-2.83,-2.82
255.45,-3.45,-0.65,-3.48,-0.67,0.68,0.69,0.73,-2.77,-2.80,-2.80
258.00,-3.42,-0.63,-3.39,-0.61,0.58,0.59,0.69,-2.83,-2.81,-2.78
260.58,-3.28,-0.50,-3.27,-0.50,0.49,0.50,0.65,-2.78,-2.78,-2.78
263.19,-3.18,-0.43,-3.15,-0.39,0.41,0.40,0.62,-2.77,-2.74,-2.75
265.82,-2.98,-0.24,-3.04,-0.30,0.34,0.31,0.58,-2.64,-2.70,-2.73
268.48,-2.96,-0.24,-2.97,-0.26,0.28,0.21,0.54,-2.68,-2.70,-2.72
271.16,-2.96,-0.27,-2.91,-0.21,0.23,0.11,0.50,-2.72,-2.68,-2.69
273.87,-2.88,-0.20,-2.86,-0.18,0.20,0.01,0.46,-2.68,-2.66,-2.68
276.61,-2.75,-0.10,-2.79,-0.14,0.17,-0.09,0.41,-2.58,-2.62,-2.65
279.38,-2.73,-0.10,-2.75,-0.12,0.14,-0.19,0.37,-2.59,-2.61,-2.63
282.17,-2.73,-0.12,-2.70,-0.10,0.09,-0.29,0.32,-2.64,-2.61,-2.60
284.99,-2.68,-0.10,-2.66,-0.08,0.01,-0.40,0.28,-2.67,-2.65,-2.58
287.84,-2.52,0.03,-2.56,-0.00,-0.09,-0.51,0.23,-2.61,-2.64,-2.55
290.72,-2.43,0.10,-2.39,0.13,-0.20,-0.61,0.18,-2.63,-2.59,-2.52
293.63,-2.18,0.33,-2.16,0.34,-0.33,-0.73,0.14,-2.51,-2.50,-2.51
296.57,-1.93,0.54,-1.94,0.54,-0.48,-0.84,0.09,-2.41,-2.42,-2.47
299.53,-1.66,0.79,-1.71,0.74,-0.65,-0.95,0.04,-2.30,-2.36,-2.45
302.53,-1.59,0.85,-1.56,0.88,-0.82,-1.07,-0.01,-2.41,-2.38,-2.44
305.55,-1.40,1.01,-1.42,0.99,-1.01,-1.19,-0.06,-2.40,-2.43,-2.40
308.61,-1.31,1.09,-1.27,1.12,-1.19,-1.31,-0.12,-2.49,-2.46,-2.40
311.69,-1.07,1.30,-1.04,1.32,-1.36,-1.44,-0.17,-2.43,-2.41,-2.37
314.81,-0.81,1.54,-0.82,1.53,-1.54,-1.57,-0.22,-2.35,-2.37,-2.35
317.96,-0.55,1.80,-0.61,1.74,-1.73,-1.70,-0.28,-2.28,-2.33,-2.34
321.14,-0.45,1.90,-0.41,1.94,-1.92,-1.83,-0.33,-2.37,-2.33,-2.34
324.35,-0.25,2.10,-0.21,2.12,-2.12,-1.96,-0.39,-2.37,-2.33,-2.35
327.59,0.01,2.34,-0.03,2.30,-2.31,-2.10,-0.44,-2.30,-2.35,-2.33
330.87,0.18,2.50,0.18,2.51,-2.50,-2.23,-0.50,-2.31,-2.31,-2.32
334.18,0.33,2.65,0.37,2.68,-2.66,-2.37,-0.56,-2.33,-2.30,-2.32
337.52,0.57,2.87,0.53,2.84,-2.82,-2.50,-0.61,-2.25,-2.29,-2.30
340.90,0.67,2.96,0.70,2.98,-2.97,-2.64,-0.67,-2.30,-2.28,-2.28
344.30,0.86,3.13,0.85,3.11,-3.12,-2.77,-0.73,-2.26,-2.28,-2.27
347.75,0.97,3.22,0.97,3.21,-3.26,-2.90,-0.79,-2.29,-2.30,-2.25
351.23,1.10,3.33,1.12,3.35,-3.39,-3.03,-0.85,-2.29,-2.27,-2.23
354.74,1.24,3.45,1.28,3.48,-3.49,-3.15,-0.91,-2.25,-2.22,-2.21
358.28,1.46,3.64,1.43,3.62,-3.58,-3.26,-0.98,-2.11,-2.14,-2.18
361.87,1.57,3.73,1.55,3.71,-3.64,-3.37,-1.04,-2.07,-2.10,-2.16
365.49,1.60,3.73,1.61,3.75,-3.69,-3.47,-1.10,-2.09,-2.09,-2.13
369.14,1.60,3.73,1.61,3.73,-3.73,-3.55,-1.17,-2.12,-2.12,-2.12
372.83,1.60,3.71,1.61,3.71,-3.74,-3.63,-1.23,-2.14,-2.13,-2.10
376.56,1.60,3.69,1.60,3.68,-3.72,-3.69,-1.30,-2.12,-2.12,-2.09
380.33,1.60,3.66,1.60,3.66,-3.69,-3.74,-1.36,-2.09,-2.09,-2.06
384.13,1.60,3.64,1.62,3.66,-3.65,-3.78,-1.43,-2.05,-2.03,-2.04
387.97,1.60,3.64,1.60,3.63,-3.60,-3.80,-1.50,-2.00,-2.00,-2.04
391.85,1.59,3.62,1.54,3.56,-3.55,-3.81,-1.56,-1.95,-2.01,-2.03
395.77,1.43,3.44,1.47,3.48,-3.49,-3.80,-1.63,-2.06,-2.02,-2.01
399.73,1.37,3.37,1.41,3.41,-3.42,-3.78,-1.70,-2.05,-2.01,-2.00
403.72,1.37,3.36,1.36,3.35,-3.35,-3.75,-1.77,-1.98,-1.99,-1.99
407.76,1.37,3.35,1.32,3.30,-3.29,-3.70,-1.83,-1.91,-1.97,-1.98
411.84,1.24,3.21,1.26,3.23,-3.22,-3.64,-1.90,-1.98,-1.97,-1.97
415.96,1.15,3.12,1.19,3.15,-3.17,-3.57,-1.97,-2.02,-1.99,-1.96
420.12,1.14,3.10,1.14,3.09,-3.13,-3.50,-2.03,-1.99,-2.00,-1.95
424.32,1.14,3.10,1.13,3.09,-3.11,-3.41,-2.10,-1.96,-1.97,-1.95
428.56,1.14,3.09,1.14,3.09,-3.09,-3.32,-2.16,-1.95,-1.95,-1.95
432.85,1.14,3.09,1.14,3.09,-3.08,-3.23,-2.23,-1.94,-1.94,-1.95
437.18,1.14,3.08,1.14,3.08,-3.08,-3.13,-2.29,-1.93,-1.93,-1.94
441.55,1.14,3.07,1.14,3.07,-3.07,-3.03,-2.35,-1.93,-1.93,-1.93
445.96,1.14,3.06,1.14,3.06,-3.07,-2.93,-2.40,-1.92,-1.92,-1.92
