frequency,raw,error,smoothed,error_smoothed,equalization,parametric_eq,fixed_band_eq,equalized_raw,equalized_smoothed,target
20.00,-9.06,-14.86,-9.05,-14.85,6.00,5.07,3.02,-3.06,-3.05,5.80
20.20,-8.95,-14.74,-8.96,-14.75,6.00,5.14,3.10,-2.95,-2.96,5.79
20.40,-8.86,-14.65,-8.86,-14.65,6.00,5.20,3.19,-2.86,-2.86,5.79
20.61,-8.76,-14.54,-8.76,-14.54,6.00,5.27,3.28,-2.76,-2.76,5.78
20.81,-8.66,-14.44,-8.66,-14.44,6.00,5.33,3.37,-2.66,-2.66,5.78
21.02,-8.56,-14.34,-8.55,-14.33,6.00,5.39,3.47,-2.56,-2.55,5.78
21.23,-8.45,-14.21,-8.45,-14.21,6.00,5.46,3.57,-2.45,-2.45,5.76
21.44,-8.35,-14.09,-8.35,-14.09,6.00,5.52,3.67,-2.35,-2.35,5.74
21.66,-8.25,-13.97,-8.25,-13.96,6.00,5.58,3.78,-2.25,-2.25,5.72
21.87,-8.15,-13.83,-8.14,-13.84,6.00,5.65,3.88,-2.15,-2.14,5.69
22.09,-8.04,-13.70,-8.04,-13.71,6.00,5.71,3.99,-2.04,-2.04,5.67
22.31,-7.93,-13.57,-7.93,-13.57,6.00,5.77,4.11,-1.93,-1.93,5.65
22.54,-7.83,-13.45,-7.82,-13.44,6.00,5.83,4.22,-1.83,-1.82,5.62
22.76,-7.71,-13.29,-7.71,-13.30,6.00,5.89,4.34,-1.71,-1.71,5.59
22.99,-7.61,-13.16,-7.61,-13.16,6.00,5.94,4.47,-1.61,-1.61,5.56
23.22,-7.50,-13.02,-7.50,-13.03,6.00,6.00,4.59,-1.50,-1.50,5.53
23.45,-7.39,-12.89,-7.39,-12.89,6.00,6.05,4.72,-1.39,-1.39,5.51
23.69,-7.28,-12.77,-7.28,-12.76,6.00,6.11,4.85,-1.28,-1.28,5.49
23.92,-7.17,-12.63,-7.17,-12.63,6.00,6.16,4.99,-1.17,-1.17,5.46
24.16,-7.05,-12.50,-7.06,-12.51,6.00,6.21,5.12,-1.05,-1.06,5.45
24.40,-6.95,-12.38,-6.94,-12.37,6.00,6.25,5.26,-0.95,-0.94,5.43
24.65,-6.83,-12.24,-6.83,-12.24,6.00,6.30,5.41,-0.83,-0.83,5.41
24.89,-6.71,-12.10,-6.71,-12.10,6.00,6.34,5.55,-0.71,-0.71,5.39
25.14,-6.59,-11.96,-6.59,-11.96,6.00,6.38,5.70,-0.59,-0.59,5.37
25.39,-6.47,-11.82,-6.47,-11.82,6.00,6.42,5.84,-0.47,-0.47,5.35
25.65,-6.35,-11.69,-6.35,-11.68,6.00,6.45,5.99,-0.35,-0.35,5.34
25.91,-6.22,-11.53,-6.22,-11.54,6.00,6.49,6.14,-0.22,-0.22,5.31
26.16,-6.10,-11.40,-6.10,-11.40,6.00,6.51,6.29,-0.10,-0.10,5.30
26.43,-5.97,-11.25,-5.97,-11.25,6.00,6.54,6.43,0.03,0.03,5.28
26.69,-5.84,-11.11,-5.84,-11.11,6.00,6.56,6.58,0.16,0.16,5.27
26.96,-5.71,-10.96,-5.71,-10.96,6.00,6.58,6.72,0.29,0.29,5.25
27.23,-5.57,-10.81,-5.58,-10.81,6.00,6.59,6.86,0.43,0.42,5.24
27.50,-5.45,-10.67,-5.44,-10.66,6.00,6.60,7.00,0.55,0.56,5.22
27.77,-5.31,-10.50,-5.31,-10.51,6.00,6.61,7.13,0.69,0.69,5.20
28.05,-5.17,-10.35,-5.17,-10.35,6.00,6.61,7.25,0.83,0.83,5.19
28.33,-5.04,-10.19,-5.04,-10.20,6.00,6.61,7.37,0.96,0.96,5.15
28.62,-4.90,-10.04,-4.90,-10.05,6.00,6.60,7.48,1.10,1.10,5.14
28.90,-4.77,-9.91,-4.77,-9.90,6.00,6.59,7.57,1.23,1.23,5.14
29.19,-4.63,-9.75,-4.63,-9.75,6.00,6.57,7.66,1.37,1.37,5.12
29.48,-4.48,-9.60,-4.48,-9.60,6.00,6.55,7.73,1.52,1.52,5.12
29.78,-4.34,-9.44,-4.34,-9.44,6.00,6.52,7.79,1.66,1.66,5.10
30.08,-4.19,-9.28,-4.19,-9.28,6.00,6.49,7.83,1.81,1.81,5.09
30.38,-4.05,-9.12,-4.04,-9.11,6.00,6.45,7.85,1.95,1.96,5.07
30.68,-3.89,-8.94,-3.89,-8.94,6.00,6.41,7.86,2.11,2.11,5.05
30.99,-3.73,-8.76,-3.74,-8.77,6.00,6.37,7.85,2.27,2.26,5.03
31.30,-3.59,-8.60,-3.58,-8.60,6.00,6.31,7.82,2.41,2.42,5.01
31.61,-3.43,-8.43,-3.43,-8.43,6.00,6.26,7.78,2.57,2.57,5.00
31.93,-3.28,-8.25,-3.28,-8.25,6.00,6.19,7.71,2.72,2.72,4.97
32.24,-3.13,-8.08,-3.12,-8.08,6.00,6.12,7.63,2.87,2.88,4.95
32.57,-2.96,-7.89,-2.96,-7.90,6.00,6.05,7.53,3.04,3.04,4.93
32.89,-2.81,-7.72,-2.80,-7.71,6.00,5.97,7.42,3.19,3.20,4.92
33.22,-2.64,-7.52,-2.64,-7.53,6.00,5.89,7.29,3.36,3.36,4.89
33.55,-2.48,-7.35,-2.48,-7.35,6.00,5.80,7.14,3.52,3.52,4.87
33.89,-2.32,-7.16,-2.32,-7.16,6.01,5.71,6.98,3.69,3.69,4.84
34.23,-2.16,-6.99,-2.16,-6.98,6.03,5.62,6.82,3.87,3.87,4.83
34.57,-1.99,-6.79,-1.99,-6.80,6.04,5.51,6.64,4.05,4.04,4.80
34.92,-1.83,-6.61,-1.83,-6.61,6.03,5.41,6.45,4.20,4.21,4.78
35.27,-1.66,-6.43,-1.66,-6.42,6.01,5.30,6.26,4.35,4.35,4.77
35.62,-1.49,-6.23,-1.49,-6.23,5.96,5.19,6.05,4.47,4.47,4.74
35.97,-1.33,-6.04,-1.32,-6.04,5.89,5.07,5.85,4.56,4.56,4.71
36.33,-1.16,-5.86,-1.16,-5.85,5.78,4.95,5.64,4.63,4.63,4.70
36.70,-0.99,-5.67,-0.99,-5.66,5.65,4.82,5.42,4.66,4.67,4.68
37.06,-0.82,-5.46,-0.82,-5.47,5.49,4.69,5.20,4.68,4.68,4.64
37.43,-0.64,-5.27,-0.64,-5.27,5.31,4.56,4.98,4.68,4.67,4.63
37.81,-0.48,-5.09,-0.47,-5.08,5.11,4.43,4.76,4.64,4.64,4.61
38.19,-0.30,-4.89,-0.30,-4.89,4.91,4.29,4.54,4.61,4.61,4.59
38.57,-0.13,-4.70,-0.13,-4.70,4.70,4.15,4.32,4.57,4.57,4.57
38.95,0.05,-4.50,0.05,-4.50,4.50,4.01,4.10,4.55,4.55,4.55
39.34,0.22,-4.30,0.23,-4.30,4.30,3.87,3.87,4.52,4.53,4.53
39.74,0.40,-4.09,0.40,-4.10,4.10,3.72,3.65,4.50,4.50,4.50
40.14,0.58,-3.90,0.58,-3.90,3.90,3.57,3.43,4.48,4.48,4.48
40.54,0.75,-3.71,0.76,-3.70,3.71,3.42,3.21,4.46,4.46,4.46
40.94,0.94,-3.50,0.94,-3.51,3.51,3.27,2.99,4.45,4.45,4.45
41.35,1.11,-3.31,1.12,-3.31,3.31,3.11,2.77,4.42,4.43,4.42
41.76,1.30,-3.10,1.30,-3.11,3.11,2.95,2.56,4.42,4.41,4.41
42.18,1.47,-2.92,1.47,-2.92,2.92,2.80,2.34,4.39,4.39,4.39
42.60,1.65,-2.72,1.65,-2.72,2.72,2.64,2.13,4.37,4.37,4.37
43.03,1.83,-2.53,1.83,-2.53,2.52,2.48,1.91,4.35,4.35,4.37
43.46,2.01,-2.33,2.01,-2.32,2.32,2.32,1.70,4.33,4.33,4.34
43.90,2.20,-2.11,2.20,-2.11,2.11,2.15,1.49,4.31,4.31,4.31
44.33,2.38,-1.90,2.38,-1.90,1.91,1.99,1.28,4.29,4.29,4.28
44.78,2.56,-1.71,2.56,-1.70,1.71,1.83,1.07,4.27,4.27,4.27
45.23,2.74,-1.50,2.74,-1.50,1.51,1.66,0.86,4.24,4.25,4.24
45.68,2.92,-1.31,2.92,-1.30,1.30,1.50,0.65,4.23,4.23,4.23
46.13,3.11,-1.09,3.10,-1.10,1.11,1.33,0.44,4.22,4.21,4.20
46.60,3.28,-0.92,3.28,-0.91,0.91,1.16,0.24,4.19,4.19,4.20
47.06,3.46,-0.72,3.46,-0.72,0.71,0.99,0.03,4.18,4.18,4.18
47.53,3.64,-0.52,3.64,-0.52,0.52,0.83,-0.17,4.16,4.16,4.16
48.01,3.82,-0.33,3.82,-0.33,0.32,0.66,-0.37,4.14,4.14,4.15
48.49,3.99,-0.13,3.99,-0.13,0.12,0.49,-0.57,4.12,4.12,4.12
48.97,4.16,0.07,4.16,0.07,-0.07,0.32,-0.78,4.09,4.09,4.09
49.46,4.33,0.27,4.33,0.27,-0.26,0.15,-0.98,4.07,4.07,4.07
49.96,4.50,0.46,4.51,0.46,-0.46,-0.01,-1.17,4.04,4.05,4.04
50.46,4.68,0.66,4.67,0.65,-0.65,-0.18,-1.37,4.03,4.03,4.02
50.96,4.84,0.84,4.84,0.84,-0.84,-0.35,-1.57,4.01,4.01,4.00
51.47,5.00,1.03,5.00,1.02,-1.02,-0.52,-1.76,3.98,3.98,3.98
51.99,5.16,1.20,5.16,1.20,-1.20,-0.69,-1.95,3.96,3.96,3.96
52.51,5.32,1.37,5.32,1.38,-1.38,-0.86,-2.14,3.94,3.94,3.95
53.03,5.48,1.55,5.48,1.56,-1.56,-1.02,-2.33,3.92,3.92,3.93
53.56,5.64,1.74,5.64,1.74,-1.74,-1.19,-2.52,3.90,3.90,3.90
54.10,5.80,1.92,5.80,1.91,-1.91,-1.36,-2.70,3.89,3.88,3.88
54.64,5.94,2.08,5.95,2.09,-2.08,-1.52,-2.87,3.86,3.86,3.86
55.18,6.09,2.25,6.09,2.25,-2.25,-1.69,-3.05,3.84,3.84,3.84
55.74,6.24,2.42,6.23,2.42,-2.42,-1.86,-3.22,3.82,3.82,3.82
56.29,6.37,2.57,6.38,2.58,-2.58,-2.02,-3.38,3.79,3.80,3.80
56.86,6.51,2.73,6.51,2.74,-2.74,-2.19,-3.54,3.77,3.78,3.78
57.42,6.65,2.90,6.65,2.89,-2.89,-2.35,-3.69,3.76,3.76,3.75
58.00,6.78,3.04,6.78,3.04,-3.04,-2.51,-3.83,3.74,3.75,3.74
58.58,6.91,3.18,6.91,3.18,-3.18,-2.67,-3.97,3.73,3.73,3.73
59.16,7.04,3.33,7.04,3.32,-3.33,-2.83,-4.10,3.72,3.71,3.72
59.76,7.15,3.46,7.16,3.46,-3.47,-2.99,-4.22,3.68,3.69,3.69
60.35,7.27,3.60,7.27,3.60,-3.60,-3.15,-4.34,3.67,3.67,3.67
60.96,7.38,3.73,7.38,3.74,-3.74,-3.31,-4.44,3.64,3.64,3.65
61.57,7.49,3.87,7.49,3.87,-3.87,-3.46,-4.54,3.62,3.62,3.62
62.18,7.60,4.01,7.60,4.00,-4.00,-3.62,-4.63,3.60,3.60,3.59
62.80,7.70,4.13,7.70,4.13,-4.12,-3.77,-4.71,3.58,3.58,3.58
63.43,7.80,4.25,7.80,4.25,-4.24,-3.92,-4.78,3.56,3.56,3.55
64.07,7.89,4.36,7.90,4.36,-4.36,-4.07,-4.84,3.53,3.54,3.53
64.71,7.99,4.47,7.99,4.47,-4.47,-4.22,-4.90,3.52,3.51,3.52
65.35,8.08,4.58,8.08,4.58,-4.58,-4.37,-4.94,3.50,3.49,3.50
66.01,8.16,4.68,8.17,4.69,-4.69,-4.51,-4.98,3.47,3.48,3.48
66.67,8.25,4.79,8.25,4.79,-4.79,-4.65,-5.01,3.46,3.46,3.46
67.33,8.34,4.90,8.34,4.89,-4.89,-4.79,-5.04,3.45,3.44,3.44
68.01,8.41,4.99,8.42,4.99,-4.99,-4.93,-5.06,3.42,3.42,3.42
68.69,8.49,5.09,8.49,5.09,-5.09,-5.07,-5.07,3.40,3.40,3.40
69.37,8.56,5.18,8.56,5.18,-5.18,-5.20,-5.08,3.38,3.38,3.38
70.07,8.63,5.27,8.63,5.27,-5.27,-5.33,-5.08,3.36,3.36,3.36
70.77,8.70,5.36,8.70,5.36,-5.36,-5.45,-5.09,3.34,3.34,3.34
71.48,8.77,5.45,8.77,5.44,-5.45,-5.58,-5.08,3.32,3.32,3.32
72.19,8.82,5.52,8.83,5.53,-5.54,-5.70,-5.08,3.29,3.29,3.30
72.91,8.89,5.63,8.89,5.62,-5.62,-5.82,-5.08,3.27,3.27,3.26
73.64,8.95,5.71,8.95,5.70,-5.70,-5.93,-5.07,3.25,3.25,3.24
74.38,9.00,5.78,9.01,5.79,-5.78,-6.04,-5.06,3.22,3.22,3.22
75.12,9.06,5.86,9.06,5.86,-5.86,-6.15,-5.06,3.20,3.20,3.20
75.87,9.11,5.94,9.11,5.94,-5.94,-6.25,-5.05,3.17,3.17,3.17
76.63,9.16,6.01,9.16,6.01,-6.01,-6.35,-5.05,3.15,3.15,3.15
77.40,9.20,6.08,9.20,6.08,-6.08,-6.44,-5.05,3.12,3.12,3.13
78.17,9.24,6.15,9.25,6.15,-6.15,-6.53,-5.05,3.09,3.10,3.09
78.95,9.29,6.22,9.29,6.22,-6.22,-6.62,-5.05,3.07,3.07,3.07
79.74,9.33,6.28,9.33,6.28,-6.29,-6.70,-5.05,3.05,3.04,3.05
80.54,9.36,6.34,9.37,6.35,-6.35,-6.78,-5.06,3.01,3.02,3.02
81.35,9.40,6.41,9.40,6.41,-6.41,-6.85,-5.07,2.99,2.99,2.99
82.16,9.44,6.48,9.44,6.48,-6.48,-6.92,-5.08,2.96,2.96,2.96
82.98,9.47,6.54,9.47,6.54,-6.54,-6.98,-5.10,2.93,2.93,2.94
83.81,9.49,6.60,9.49,6.60,-6.60,-7.04,-5.12,2.90,2.90,2.89
84.65,9.51,6.65,9.52,6.65,-6.65,-7.10,-5.14,2.86,2.86,2.86
85.50,9.54,6.70,9.54,6.71,-6.71,-7.15,-5.17,2.84,2.83,2.84
86.35,9.56,6.76,9.56,6.76,-6.76,-7.19,-5.20,2.80,2.80,2.80
87.22,9.57,6.80,9.58,6.81,-6.81,-7.23,-5.23,2.77,2.77,2.77
88.09,9.59,6.86,9.59,6.85,-6.85,-7.26,-5.27,2.74,2.74,2.73
88.97,9.60,6.89,9.60,6.89,-6.89,-7.29,-5.32,2.71,2.71,2.71
89.86,9.61,6.93,9.61,6.93,-6.94,-7.32,-5.36,2.68,2.67,2.68
90.76,9.61,6.97,9.62,6.98,-6.97,-7.34,-5.42,2.64,2.64,2.64
91.66,9.62,7.01,9.62,7.01,-7.01,-7.35,-5.47,2.61,2.61,2.61
92.58,9.62,7.06,9.62,7.05,-7.04,-7.37,-5.53,2.58,2.57,2.56
93.51,9.61,7.07,9.62,7.07,-7.08,-7.37,-5.60,2.53,2.54,2.55
94.44,9.61,7.10,9.61,7.10,-7.11,-7.37,-5.67,2.50,2.50,2.51
95.39,9.60,7.13,9.60,7.13,-7.14,-7.37,-5.74,2.46,2.46,2.47
96.34,9.59,7.17,9.59,7.16,-7.16,-7.37,-5.81,2.43,2.43,2.42
97.30,9.57,7.19,9.57,7.19,-7.19,-7.35,-5.89,2.39,2.39,2.38
98.28,9.55,7.21,9.55,7.21,-7.21,-7.34,-5.98,2.34,2.35,2.34
99.26,9.53,7.23,9.53,7.23,-7.23,-7.32,-6.06,2.31,2.31,2.31
100.25,9.51,7.24,9.51,7.24,-7.24,-7.30,-6.15,2.27,2.27,2.27
101.25,9.48,7.25,9.48,7.25,-7.25,-7.27,-6.24,2.23,2.23,2.23
102.27,9.44,7.25,9.45,7.26,-7.26,-7.25,-6.33,2.18,2.18,2.19
103.29,9.41,7.28,9.41,7.27,-7.27,-7.21,-6.43,2.15,2.14,2.13
104.32,9.36,7.26,9.37,7.27,-7.27,-7.18,-6.52,2.09,2.10,2.10
105.37,9.32,7.27,9.32,7.27,-7.27,-7.14,-6.62,2.06,2.05,2.05
106.42,9.27,7.26,9.27,7.26,-7.26,-7.10,-6.71,2.01,2.01,2.01
107.48,9.21,7.24,9.22,7.25,-7.25,-7.06,-6.81,1.96,1.96,1.97
108.56,9.16,7.25,9.16,7.24,-7.24,-7.01,-6.90,1.92,1.92,1.91
109.64,9.10,7.23,9.10,7.23,-7.23,-6.96,-7.00,1.87,1.87,1.87
110.74,9.04,7.22,9.04,7.22,-7.21,-6.91,-7.09,1.83,1.83,1.82
111.85,8.97,7.19,8.97,7.19,-7.19,-6.86,-7.17,1.78,1.78,1.79
112.97,8.89,7.18,8.89,7.17,-7.17,-6.80,-7.25,1.72,1.73,1.72
114.10,8.81,7.13,8.82,7.14,-7.14,-6.74,-7.33,1.67,1.68,1.68
115.24,8.74,7.11,8.74,7.11,-7.11,-6.69,-7.40,1.63,1.63,1.63
116.39,8.65,7.07,8.65,7.07,-7.07,-6.63,-7.46,1.58,1.58,1.58
117.55,8.56,7.03,8.56,7.03,-7.03,-6.56,-7.51,1.53,1.54,1.53
118.73,8.47,6.99,8.47,6.98,-6.98,-6.50,-7.55,1.49,1.49,1.49
119.92,8.38,6.93,8.38,6.93,-6.93,-6.44,-7.59,1.45,1.45,1.45
121.12,8.28,6.88,8.28,6.88,-6.88,-6.37,-7.61,1.40,1.41,1.40
122.33,8.18,6.83,8.18,6.82,-6.82,-6.31,-7.63,1.36,1.36,1.36
123.55,8.08,6.76,8.08,6.76,-6.76,-6.24,-7.63,1.32,1.32,1.32
124.79,7.97,6.69,7.98,6.69,-6.70,-6.17,-7.62,1.27,1.28,1.29
126.03,7.87,6.63,7.87,6.63,-6.64,-6.10,-7.60,1.24,1.23,1.24
127.29,7.76,6.57,7.76,6.57,-6.57,-6.03,-7.56,1.19,1.19,1.20
128.57,7.65,6.50,7.65,6.50,-6.50,-5.96,-7.52,1.15,1.15,1.15
129.85,7.55,6.44,7.55,6.44,-6.43,-5.89,-7.46,1.12,1.12,1.11
131.15,7.43,6.36,7.44,6.36,-6.36,-5.82,-7.40,1.07,1.08,1.07
132.46,7.33,6.29,7.33,6.29,-6.28,-5.75,-7.32,1.05,1.04,1.04
133.79,7.21,6.20,7.21,6.21,-6.21,-5.67,-7.23,1.01,1.01,1.01
135.12,7.10,6.13,7.10,6.12,-6.13,-5.60,-7.14,0.98,0.97,0.97
136.48,6.98,6.03,6.98,6.04,-6.04,-5.53,-7.03,0.94,0.94,0.95
137.84,6.87,5.95,6.87,5.96,-5.96,-5.46,-6.92,0.91,0.91,0.92
139.22,6.76,5.87,6.76,5.87,-5.87,-5.38,-6.81,0.89,0.89,0.89
140.61,6.64,5.78,6.65,5.78,-5.78,-5.31,-6.68,0.86,0.87,0.86
142.02,6.54,5.69,6.54,5.69,-5.69,-5.24,-6.56,0.85,0.85,0.85
143.44,6.42,5.60,6.42,5.60,-5.60,-5.16,-6.43,0.82,0.83,0.82
144.87,6.31,5.51,6.31,5.51,-5.51,-5.09,-6.29,0.81,0.81,0.81
146.32,6.20,5.41,6.20,5.41,-5.41,-5.02,-6.16,0.79,0.78,0.79
147.78,6.08,5.31,6.08,5.31,-5.32,-4.94,-6.02,0.76,0.77,0.77
149.26,5.97,5.21,5.97,5.22,-5.22,-4.87,-5.88,0.75,0.75,0.76
150.75,5.86,5.14,5.86,5.13,-5.13,-4.80,-5.74,0.73,0.73,0.72
152.26,5.75,5.04,5.75,5.04,-5.04,-4.72,-5.61,0.72,0.71,0.71
153.78,5.63,4.94,5.63,4.95,-4.94,-4.65,-5.47,0.69,0.69,0.69
155.32,5.52,4.85,5.52,4.85,-4.85,-4.58,-5.33,0.67,0.67,0.67
156.88,5.41,4.75,5.41,4.75,-4.76,-4.51,-5.20,0.65,0.65,0.66
158.44,5.30,4.67,5.30,4.67,-4.67,-4.43,-5.06,0.63,0.63,0.64
160.03,5.19,4.58,5.19,4.58,-4.58,-4.36,-4.93,0.61,0.61,0.61
161.63,5.08,4.50,5.08,4.49,-4.49,-4.29,-4.80,0.59,0.59,0.58
163.24,4.97,4.41,4.97,4.41,-4.40,-4.22,-4.67,0.57,0.57,0.56
164.88,4.87,4.32,4.87,4.32,-4.32,-4.15,-4.55,0.55,0.55,0.55
166.53,4.76,4.23,4.76,4.23,-4.23,-4.08,-4.42,0.53,0.53,0.53
168.19,4.66,4.16,4.66,4.15,-4.15,-4.01,-4.30,0.51,0.51,0.51
169.87,4.55,4.06,4.55,4.07,-4.07,-3.94,-4.19,0.48,0.49,0.49
171.57,4.45,3.99,4.45,3.99,-3.99,-3.87,-4.07,0.46,0.46,0.46
173.29,4.34,3.90,4.34,3.90,-3.91,-3.80,-3.96,0.43,0.43,0.44
175.02,4.24,3.83,4.24,3.83,-3.83,-3.73,-3.85,0.41,0.41,0.42
176.77,4.14,3.76,4.14,3.76,-3.76,-3.66,-3.75,0.38,0.38,0.38
178.54,4.04,3.70,4.04,3.69,-3.69,-3.59,-3.64,0.35,0.35,0.34
180.32,3.94,3.62,3.94,3.62,-3.62,-3.52,-3.54,0.32,0.32,0.32
182.13,3.83,3.54,3.84,3.55,-3.55,-3.45,-3.45,0.28,0.29,0.29
183.95,3.73,3.48,3.74,3.48,-3.48,-3.38,-3.35,0.25,0.26,0.25
185.79,3.64,3.42,3.64,3.41,-3.41,-3.31,-3.26,0.23,0.22,0.23
187.65,3.54,3.35,3.54,3.35,-3.34,-3.25,-3.17,0.20,0.20,0.19
189.52,3.44,3.27,3.44,3.28,-3.28,-3.18,-3.08,0.16,0.17,0.17
191.42,3.35,3.21,3.35,3.21,-3.21,-3.11,-3.00,0.14,0.14,0.14
193.33,3.25,3.14,3.25,3.14,-3.14,-3.04,-2.92,0.11,0.11,0.12
195.27,3.16,3.08,3.16,3.07,-3.07,-2.97,-2.84,0.09,0.08,0.08
197.22,3.06,3.00,3.06,3.01,-3.01,-2.91,-2.76,0.06,0.06,0.06
199.19,2.97,2.95,2.97,2.94,-2.94,-2.84,-2.69,0.04,0.04,0.02
201.18,2.88,2.87,2.88,2.87,-2.87,-2.77,-2.61,0.01,0.01,0.01
203.19,2.78,2.79,2.78,2.80,-2.80,-2.70,-2.54,-0.02,-0.01,-0.01
205.23,2.69,2.73,2.69,2.72,-2.73,-2.64,-2.47,-0.03,-0.04,-0.04
207.28,2.60,2.64,2.60,2.65,-2.66,-2.57,-2.41,-0.05,-0.05,-0.04
209.35,2.51,2.58,2.51,2.58,-2.58,-2.50,-2.34,-0.07,-0.07,-0.07
211.44,2.43,2.53,2.43,2.51,-2.51,-2.43,-2.28,-0.08,-0.09,-0.10
213.56,2.33,2.44,2.34,2.44,-2.44,-2.36,-2.22,-0.11,-0.10,-0.11
215.69,2.25,2.35,2.25,2.36,-2.36,-2.29,-2.16,-0.11,-0.11,-0.10
217.85,2.16,2.28,2.16,2.28,-2.29,-2.22,-2.10,-0.12,-0.12,-0.12
220.03,2.08,2.21,2.08,2.21,-2.21,-2.15,-2.04,-0.13,-0.12,-0.13
222.23,2.00,2.14,2.00,2.13,-2.13,-2.08,-1.99,-0.12,-0.13,-0.14
224.45,1.92,2.05,1.92,2.05,-2.04,-2.01,-1.93,-0.12,-0.12,-0.12
226.70,1.83,1.95,1.84,1.96,-1.96,-1.94,-1.88,-0.13,-0.12,-0.12
228.96,1.76,1.88,1.76,1.87,-1.87,-1.86,-1.83,-0.11,-0.12,-0.12
231.25,1.67,1.78,1.68,1.78,-1.79,-1.79,-1.78,-0.12,-0.11,-0.10
233.57,1.60,1.70,1.60,1.70,-1.70,-1.71,-1.73,-0.10,-0.10,-0.10
235.90,1.52,1.61,1.52,1.61,-1.61,-1.64,-1.68,-0.09,-0.09,-0.09
238.26,1.45,1.53,1.45,1.53,-1.52,-1.56,-1.63,-0.07,-0.07,-0.08
240.64,1.37,1.43,1.37,1.43,-1.43,-1.48,-1.58,-0.06,-0.06,-0.06
243.05,1.30,1.34,1.30,1.34,-1.34,-1.39,-1.54,-0.04,-0.04,-0.04
245.48,1.23,1.25,1.23,1.25,-1.25,-1.31,-1.49,-0.02,-0.02,-0.02
247.93,1.16,1.15,1.16,1.16,-1.16,-1.22,-1.44,0.00,0.00,0.01
250.41,1.09,1.08,1.09,1.07,-1.07,-1.13,-1.40,0.02,0.02,0.01
252.92,1.02,0.97,1.02,0.98,-0.98,-1.04,-1.35,0.04,0.04,0.05
255.45,0.95,0.88,0.95,0.89,-0.89,-0.95,-1.31,0.07,0.07,0.07
258.00,0.89,0.80,0.89,0.79,-0.80,-0.85,-1.26,0.10,0.09,0.09
260.58,0.82,0.71,0.82,0.71,-0.70,-0.75,-1.22,0.12,0.12,0.12
263.19,0.75,0.61,0.76,0.62,-0.62,-0.65,-1.17,0.14,0.14,0.14
265.82,0.69,0.53,0.69,0.53,-0.53,-0.55,-1.13,0.17,0.17,0.16
268.48,0.63,0.44,0.63,0.44,-0.44,-0.45,-1.09,0.19,0.19,0.19
271.16,0.57,0.35,0.57,0.35,-0.35,-0.35,-1.04,0.22,0.22,0.22
273.87,0.50,0.26,0.51,0.26,-0.26,-0.25,-1.00,0.24,0.24,0.24
276.61,0.44,0.18,0.44,0.18,-0.18,-0.15,-0.96,0.26,0.27,0.26
279.38,0.39,0.11,0.39,0.10,-0.09,-0.06,-0.92,0.30,0.29,0.28
282.17,0.33,0.02,0.33,0.02,-0.01,0.02,-0.87,0.32,0.32,0.31
284.99,0.28,-0.05,0.28,-0.05,0.07,0.10,-0.83,0.35,0.35,0.33
287.84,0.24,-0.12,0.24,-0.12,0.14,0.15,-0.79,0.38,0.38,0.36
290.72,0.21,-0.18,0.21,-0.18,0.19,0.20,-0.75,0.40,0.40,0.39
293.63,0.19,-0.23,0.19,-0.22,0.22,0.21,-0.70,0.41,0.42,0.42
296.57,0.20,-0.24,0.20,-0.24,0.23,0.21,-0.66,0.43,0.43,0.44
299.53,0.25,-0.22,0.25,-0.22,0.20,0.18,-0.62,0.45,0.44,0.47
302.53,0.33,-0.16,0.34,-0.16,0.12,0.12,-0.58,0.45,0.46,0.49
305.55,0.48,-0.06,0.49,-0.04,-0.00,0.03,-0.54,0.48,0.48,0.54
308.61,0.69,0.13,0.69,0.12,-0.17,-0.10,-0.50,0.52,0.52,0.57
311.69,0.93,0.33,0.94,0.33,-0.37,-0.25,-0.46,0.56,0.56,0.60
314.81,1.22,0.57,1.22,0.58,-0.61,-0.44,-0.41,0.61,0.61,0.65
317.96,1.52,0.85,1.53,0.85,-0.86,-0.65,-0.37,0.66,0.67,0.67
321.14,1.83,1.13,1.83,1.13,-1.11,-0.89,-0.33,0.72,0.72,0.70
324.35,2.11,1.39,2.10,1.38,-1.34,-1.14,-0.29,0.77,0.76,0.73
327.59,2.34,1.59,2.34,1.59,-1.54,-1.39,-0.25,0.80,0.80,0.75
330.87,2.52,1.74,2.52,1.75,-1.69,-1.62,-0.21,0.83,0.83,0.78
334.18,2.65,1.85,2.64,1.84,-1.79,-1.81,-0.17,0.86,0.85,0.80
337.52,2.70,1.88,2.70,1.88,-1.83,-1.94,-0.13,0.87,0.87,0.82
340.90,2.69,1.84,2.69,1.85,-1.82,-1.99,-0.09,0.87,0.87,0.85
344.30,2.64,1.77,2.64,1.77,-1.76,-1.95,-0.05,0.88,0.87,0.87
347.75,2.54,1.66,2.55,1.66,-1.67,-1.85,-0.01,0.87,0.88,0.89
351.23,2.43,1.53,2.43,1.53,-1.54,-1.69,0.04,0.89,0.89,0.90
354.74,2.31,1.39,2.31,1.38,-1.40,-1.50,0.08,0.91,0.91,0.92
358.28,2.17,1.23,2.18,1.23,-1.25,-1.30,0.12,0.92,0.92,0.94
361.87,2.04,1.08,2.04,1.08,-1.10,-1.10,0.16,0.94,0.94,0.96
365.49,1.91,0.93,1.91,0.93,-0.95,-0.92,0.20,0.96,0.96,0.98
369.14,1.79,0.80,1.79,0.80,-0.81,-0.75,0.24,0.98,0.98,0.99
372.83,1.68,0.67,1.68,0.68,-0.68,-0.59,0.29,1.00,1.00,1.01
376.56,1.58,0.57,1.58,0.55,-0.55,-0.45,0.33,1.03,1.03,1.02
380.33,1.47,0.43,1.48,0.43,-0.43,-0.33,0.37,1.04,1.04,1.05
384.13,1.38,0.32,1.38,0.32,-0.32,-0.22,0.41,1.06,1.06,1.06
387.97,1.29,0.21,1.29,0.21,-0.22,-0.12,0.46,1.08,1.07,1.08
391.85,1.21,0.12,1.21,0.11,-0.12,-0.03,0.50,1.09,1.10,1.09
395.77,1.14,0.02,1.14,0.02,-0.02,0.05,0.54,1.12,1.12,1.12
399.73,1.08,-0.06,1.08,-0.06,0.07,0.12,0.59,1.15,1.14,1.14
403.72,1.01,-0.15,1.01,-0.15,0.15,0.19,0.63,1.16,1.16,1.16
407.76,0.95,-0.23,0.95,-0.23,0.23,0.25,0.67,1.18,1.18,1.18
411.84,0.89,-0.32,0.90,-0.31,0.31,0.31,0.71,1.20,1.20,1.21
415.96,0.85,-0.38,0.85,-0.38,0.38,0.37,0.76,1.23,1.23,1.23
420.12,0.80,-0.45,0.80,-0.45,0.45,0.42,0.80,1.25,1.25,1.25
424.32,0.75,-0.52,0.75,-0.51,0.51,0.47,0.84,1.26,1.27,1.27
428.56,0.71,-0.58,0.71,-0.58,0.58,0.52,0.88,1.29,1.29,1.29
432.85,0.67,-0.63,0.67,-0.64,0.64,0.56,0.92,1.31,1.31,1.31
437.18,0.64,-0.69,0.64,-0.70,0.70,0.61,0.96,1.34,1.34,1.34
441.55,0.61,-0.75,0.61,-0.75,0.75,0.65,1.00,1.36,1.36,1.37
445.96,0.57,-0.81,0.57,-0.81,0.81,0.69,1.04,1.38,1.39,1.39
450.42,0.54,-0.86,0.54,-0.87,0.87,0.73,1.08,1.41,1.41,1.40
454.93,0.51,-0.93,0.51,-0.93,0.93,0.77,1.11,1.44,1.44,1.44
459.48,0.48,-0.98,0.48,-0.98,0.99,0.81,1.15,1.47,1.47,1.46
464.07,0.45,-1.04,0.45,-1.05,1.05,0.85,1.18,1.50,1.50,1.49
468.71,0.41,-1.11,0.41,-1.11,1.11,0.89,1.22,1.52,1.52,1.52
473.40,0.38,-1.17,0.38,-1.17,1.17,0.93,1.25,1.55,1.55,1.55
478.13,0.35,-1.23,0.35,-1.23,1.22,0.96,1.28,1.58,1.58,1.58
482.91,0.32,-1.28,0.32,-1.28,1.28,1.00,1.31,1.60,1.61,1.60
487.74,0.30,-1.33,0.30,-1.33,1.34,1.04,1.33,1.64,1.63,1.63
492.62,0.27,-1.39,0.27,-1.39,1.39,1.07,1.36,1.66,1.66,1.66
497.55,0.25,-1.44,0.25,-1.44,1.44,1.11,1.38,1.69,1.69,1.69
502.52,0.23,-1.49,0.23,-1.49,1.48,1.14,1.41,1.72,1.71,1.72
507.55,0.21,-1.53,0.21,-1.53,1.53,1.18,1.43,1.74,1.74,1.74
512.62,0.19,-1.57,0.19,-1.57,1.57,1.21,1.44,1.76,1.76,1.76
517.75,0.18,-1.61,0.18,-1.61,1.61,1.25,1.46,1.79,1.79,1.79
522.93,0.17,-1.65,0.17,-1.64,1.64,1.28,1.48,1.82,1.82,1.82
528.16,0.16,-1.68,0.16,-1.68,1.68,1.32,1.49,1.84,1.84,1.84
