frequency,raw,error,smoothed,error_smoothed,equalization,parametric_eq,fixed_band_eq,equalized_raw,equalized_smoothed,target
20.00,-12.73,-14.25,-12.73,-14.25,6.00,6.45,2.93,-6.73,-6.73,1.52
20.20,-12.62,-14.14,-12.62,-14.15,6.00,6.44,3.02,-6.62,-6.62,1.52
20.40,-12.51,-14.04,-12.51,-14.05,6.00,6.44,3.10,-6.51,-6.51,1.53
20.61,-12.41,-13.95,-12.40,-13.94,6.00,6.43,3.19,-6.41,-6.40,1.54
20.81,-12.30,-13.84,-12.30,-13.84,6.00,6.42,3.28,-6.30,-6.30,1.54
21.02,-12.19,-13.74,-12.19,-13.74,6.00,6.42,3.37,-6.19,-6.19,1.55
21.23,-12.08,-13.63,-12.08,-13.63,6.00,6.41,3.47,-6.08,-6.08,1.55
21.44,-11.97,-13.53,-11.97,-13.53,6.00,6.40,3.57,-5.97,-5.97,1.56
21.66,-11.86,-13.43,-11.85,-13.42,6.00,6.39,3.67,-5.86,-5.85,1.57
21.87,-11.74,-13.31,-11.74,-13.31,6.00,6.39,3.78,-5.74,-5.74,1.57
22.09,-11.63,-13.21,-11.63,-13.20,6.00,6.38,3.88,-5.63,-5.63,1.58
22.31,-11.51,-13.10,-11.51,-13.09,6.00,6.37,3.99,-5.51,-5.51,1.59
22.54,-11.40,-12.99,-11.40,-12.99,6.00,6.36,4.10,-5.40,-5.40,1.59
22.76,-11.28,-12.88,-11.28,-12.88,6.00,6.36,4.22,-5.28,-5.28,1.60
22.99,-11.17,-12.78,-11.17,-12.77,6.00,6.35,4.34,-5.17,-5.17,1.61
23.22,-11.05,-12.67,-11.05,-12.66,6.00,6.34,4.46,-5.05,-5.05,1.62
23.45,-10.93,-12.55,-10.93,-12.56,6.00,6.33,4.59,-4.93,-4.93,1.63
23.69,-10.81,-12.45,-10.81,-12.45,6.00,6.32,4.71,-4.81,-4.81,1.64
23.92,-10.70,-12.34,-10.69,-12.34,6.00,6.31,4.84,-4.70,-4.69,1.65
24.16,-10.58,-12.23,-10.58,-12.23,6.00,6.30,4.98,-4.58,-4.58,1.66
24.40,-10.46,-12.12,-10.46,-12.13,6.00,6.29,5.11,-4.46,-4.46,1.67
24.65,-10.34,-12.02,-10.34,-12.02,6.00,6.28,5.25,-4.34,-4.34,1.68
24.89,-10.22,-11.91,-10.22,-11.91,6.00,6.27,5.38,-4.22,-4.22,1.69
25.14,-10.10,-11.80,-10.10,-11.80,6.00,6.26,5.53,-4.10,-4.10,1.70
25.39,-9.98,-11.69,-9.98,-11.69,6.00,6.25,5.67,-3.98,-3.98,1.71
25.65,-9.86,-11.58,-9.85,-11.58,6.00,6.24,5.81,-3.86,-3.85,1.72
25.91,-9.73,-11.47,-9.73,-11.47,6.00,6.23,5.95,-3.73,-3.73,1.74
26.16,-9.61,-11.36,-9.61,-11.36,6.00,6.22,6.09,-3.61,-3.61,1.75
26.43,-9.49,-11.25,-9.48,-11.25,6.00,6.20,6.24,-3.49,-3.48,1.76
26.69,-9.36,-11.13,-9.36,-11.13,6.00,6.19,6.38,-3.36,-3.36,1.77
26.96,-9.24,-11.03,-9.24,-11.02,6.00,6.18,6.52,-3.24,-3.24,1.79
27.23,-9.11,-10.91,-9.11,-10.91,6.00,6.17,6.65,-3.11,-3.11,1.80
27.50,-8.99,-10.80,-8.99,-10.80,6.00,6.15,6.78,-2.99,-2.99,1.82
27.77,-8.86,-10.68,-8.86,-10.69,6.00,6.14,6.91,-2.86,-2.86,1.83
28.05,-8.74,-10.58,-8.73,-10.58,6.00,6.13,7.04,-2.74,-2.73,1.84
28.33,-8.61,-10.46,-8.61,-10.46,6.00,6.11,7.15,-2.61,-2.61,1.85
28.62,-8.48,-10.35,-8.48,-10.35,6.00,6.10,7.26,-2.48,-2.48,1.87
28.90,-8.35,-10.23,-8.35,-10.23,6.00,6.08,7.36,-2.35,-2.35,1.88
29.19,-8.23,-10.13,-8.22,-10.12,6.00,6.07,7.45,-2.23,-2.22,1.90
29.48,-8.10,-10.01,-8.10,-10.01,6.00,6.05,7.53,-2.10,-2.10,1.91
29.78,-7.97,-9.90,-7.97,-9.89,6.00,6.03,7.61,-1.97,-1.97,1.93
30.08,-7.84,-9.78,-7.85,-9.78,6.00,6.02,7.66,-1.84,-1.85,1.94
30.38,-7.73,-9.68,-7.73,-9.68,6.00,6.00,7.71,-1.73,-1.73,1.96
30.68,-7.62,-9.58,-7.61,-9.58,6.00,5.98,7.74,-1.62,-1.61,1.96
30.99,-7.50,-9.48,-7.50,-9.48,6.00,5.96,7.76,-1.50,-1.50,1.98
31.30,-7.39,-9.38,-7.39,-9.38,6.00,5.94,7.76,-1.39,-1.39,1.99
31.61,-7.27,-9.28,-7.27,-9.28,6.00,5.92,7.76,-1.27,-1.27,2.01
31.93,-7.16,-9.18,-7.16,-9.18,6.00,5.90,7.73,-1.16,-1.16,2.02
32.24,-7.04,-9.07,-7.04,-9.07,6.00,5.88,7.70,-1.04,-1.04,2.04
32.57,-6.91,-8.95,-6.91,-8.96,6.00,5.86,7.64,-0.91,-0.91,2.05
32.89,-6.79,-8.85,-6.78,-8.84,6.00,5.84,7.58,-0.79,-0.78,2.06
33.22,-6.65,-8.72,-6.65,-8.72,6.00,5.82,7.51,-0.65,-0.65,2.07
33.55,-6.51,-8.60,-6.51,-8.60,6.00,5.79,7.42,-0.51,-0.51,2.09
33.89,-6.37,-8.47,-6.37,-8.47,6.00,5.77,7.33,-0.37,-0.37,2.10
34.23,-6.22,-8.34,-6.22,-8.34,6.00,5.75,7.23,-0.22,-0.22,2.12
34.57,-6.08,-8.20,-6.08,-8.20,6.00,5.72,7.11,-0.08,-0.08,2.12
34.92,-5.93,-8.06,-5.93,-8.07,6.00,5.70,7.00,0.07,0.07,2.13
35.27,-5.78,-7.93,-5.78,-7.93,6.00,5.67,6.87,0.22,0.22,2.15
35.62,-5.63,-7.79,-5.63,-7.79,6.00,5.64,6.74,0.37,0.37,2.16
35.97,-5.48,-7.64,-5.48,-7.65,6.00,5.61,6.61,0.52,0.52,2.17
36.33,-5.34,-7.51,-5.33,-7.51,6.00,5.58,6.47,0.66,0.67,2.17
36.70,-5.19,-7.37,-5.19,-7.37,6.00,5.55,6.33,0.81,0.81,2.18
37.06,-5.05,-7.23,-5.05,-7.24,6.00,5.52,6.19,0.95,0.95,2.19
37.43,-4.91,-7.10,-4.91,-7.10,6.00,5.49,6.04,1.09,1.09,2.20
37.81,-4.78,-6.98,-4.78,-6.98,6.00,5.46,5.90,1.22,1.22,2.20
38.19,-4.65,-6.86,-4.65,-6.86,6.00,5.43,5.76,1.35,1.35,2.21
38.57,-4.53,-6.74,-4.52,-6.74,6.00,5.39,5.62,1.47,1.48,2.22
38.95,-4.40,-6.62,-4.40,-6.63,6.01,5.36,5.48,1.61,1.61,2.22
39.34,-4.29,-6.52,-4.28,-6.51,6.02,5.32,5.34,1.73,1.73,2.23
39.74,-4.17,-6.41,-4.17,-6.40,6.02,5.28,5.20,1.85,1.85,2.24
40.14,-4.05,-6.28,-4.05,-6.29,6.01,5.24,5.06,1.96,1.96,2.23
40.54,-3.94,-6.18,-3.94,-6.18,5.99,5.20,4.93,2.05,2.05,2.24
40.94,-3.83,-6.07,-3.82,-6.07,5.95,5.16,4.79,2.13,2.13,2.25
41.35,-3.71,-5.96,-3.71,-5.96,5.90,5.12,4.67,2.20,2.19,2.25
41.76,-3.60,-5.85,-3.59,-5.85,5.84,5.08,4.54,2.24,2.24,2.26
42.18,-3.48,-5.74,-3.48,-5.75,5.76,5.03,4.41,2.28,2.28,2.26
42.60,-3.38,-5.65,-3.37,-5.64,5.67,4.98,4.29,2.29,2.29,2.27
43.03,-3.27,-5.54,-3.27,-5.54,5.57,4.94,4.18,2.30,2.30,2.28
43.46,-3.17,-5.45,-3.17,-5.45,5.46,4.89,4.06,2.29,2.30,2.28
43.90,-3.06,-5.34,-3.06,-5.35,5.35,4.84,3.95,2.30,2.30,2.29
44.33,-2.96,-5.26,-2.96,-5.25,5.25,4.78,3.84,2.30,2.30,2.30
44.78,-2.85,-5.15,-2.85,-5.16,5.16,4.73,3.73,2.31,2.30,2.31
45.23,-2.75,-5.06,-2.75,-5.06,5.06,4.67,3.63,2.31,2.31,2.31
45.68,-2.64,-4.96,-2.64,-4.96,4.96,4.62,3.53,2.32,2.32,2.32
46.13,-2.53,-4.86,-2.53,-4.86,4.86,4.56,3.43,2.33,2.33,2.33
46.60,-2.41,-4.75,-2.41,-4.75,4.75,4.50,3.33,2.34,2.34,2.34
47.06,-2.30,-4.64,-2.30,-4.65,4.65,4.44,3.24,2.35,2.35,2.35
47.53,-2.18,-4.54,-2.18,-4.54,4.54,4.37,3.15,2.36,2.36,2.36
48.01,-2.07,-4.43,-2.06,-4.43,4.43,4.30,3.06,2.36,2.37,2.36
48.49,-1.94,-4.32,-1.94,-4.32,4.32,4.24,2.97,2.38,2.38,2.38
48.97,-1.82,-4.20,-1.82,-4.20,4.20,4.17,2.89,2.39,2.38,2.38
49.46,-1.70,-4.09,-1.70,-4.09,4.09,4.09,2.81,2.39,2.39,2.39
49.96,-1.58,-3.97,-1.58,-3.97,3.97,4.02,2.73,2.39,2.39,2.39
50.46,-1.46,-3.86,-1.46,-3.86,3.85,3.94,2.66,2.39,2.40,2.40
50.96,-1.33,-3.74,-1.33,-3.74,3.73,3.86,2.58,2.41,2.40,2.41
51.47,-1.21,-3.62,-1.21,-3.62,3.61,3.78,2.51,2.41,2.41,2.41
51.99,-1.08,-3.49,-1.08,-3.49,3.49,3.70,2.44,2.42,2.41,2.41
52.51,-0.96,-3.37,-0.96,-3.37,3.37,3.61,2.37,2.41,2.42,2.41
53.03,-0.83,-3.24,-0.83,-3.25,3.25,3.53,2.31,2.42,2.42,2.41
53.56,-0.71,-3.13,-0.71,-3.13,3.13,3.44,2.24,2.42,2.42,2.42
54.10,-0.59,-3.01,-0.58,-3.01,3.00,3.34,2.18,2.41,2.42,2.42
54.64,-0.46,-2.88,-0.46,-2.88,2.88,3.25,2.12,2.42,2.42,2.42
55.18,-0.34,-2.75,-0.34,-2.75,2.76,3.15,2.06,2.42,2.42,2.41
55.74,-0.22,-2.63,-0.22,-2.63,2.64,3.05,2.01,2.42,2.42,2.41
56.29,-0.10,-2.51,-0.10,-2.51,2.51,2.95,1.95,2.42,2.41,2.41
56.86,0.00,-2.40,0.01,-2.39,2.39,2.84,1.90,2.39,2.40,2.40
57.42,0.12,-2.27,0.12,-2.27,2.27,2.74,1.84,2.39,2.39,2.40
58.00,0.23,-2.15,0.23,-2.15,2.14,2.63,1.79,2.38,2.38,2.38
58.58,0.35,-2.03,0.36,-2.02,2.02,2.52,1.74,2.37,2.38,2.38
59.16,0.47,-1.89,0.47,-1.90,1.90,2.40,1.69,2.38,2.37,2.37
59.76,0.58,-1.77,0.58,-1.78,1.78,2.29,1.64,2.37,2.36,2.35
60.35,0.67,-1.67,0.67,-1.66,1.67,2.17,1.60,2.34,2.34,2.34
60.96,0.76,-1.56,0.77,-1.56,1.55,2.05,1.55,2.32,2.32,2.32
61.57,0.86,-1.45,0.86,-1.45,1.44,1.93,1.51,2.30,2.31,2.31
62.18,0.96,-1.33,0.96,-1.34,1.34,1.80,1.46,2.30,2.29,2.29
62.80,1.04,-1.23,1.04,-1.23,1.23,1.68,1.42,2.28,2.28,2.28
63.43,1.12,-1.14,1.13,-1.13,1.13,1.55,1.38,2.26,2.26,2.26
64.07,1.20,-1.03,1.20,-1.03,1.04,1.42,1.33,2.24,2.24,2.23
64.71,1.28,-0.93,1.28,-0.94,0.94,1.30,1.29,2.22,2.22,2.22
65.35,1.35,-0.85,1.35,-0.85,0.85,1.17,1.25,2.20,2.20,2.20
66.01,1.41,-0.77,1.42,-0.76,0.76,1.04,1.21,2.17,2.18,2.18
66.67,1.48,-0.68,1.48,-0.68,0.67,0.91,1.17,2.16,2.15,2.16
67.33,1.54,-0.60,1.54,-0.60,0.59,0.78,1.14,2.13,2.13,2.14
68.01,1.60,-0.51,1.61,-0.51,0.50,0.66,1.10,2.11,2.11,2.11
68.69,1.67,-0.42,1.67,-0.42,0.42,0.53,1.06,2.09,2.09,2.09
69.37,1.73,-0.34,1.73,-0.34,0.34,0.41,1.03,2.07,2.07,2.07
70.07,1.79,-0.25,1.79,-0.26,0.26,0.28,0.99,2.05,2.05,2.05
70.77,1.84,-0.18,1.85,-0.18,0.18,0.17,0.95,2.02,2.02,2.02
71.48,1.90,-0.10,1.90,-0.10,0.10,0.05,0.92,2.00,2.00,2.00
72.19,1.95,-0.03,1.95,-0.03,0.03,-0.06,0.88,1.98,1.98,1.98
72.91,2.00,0.04,2.00,0.04,-0.04,-0.17,0.85,1.96,1.96,1.96
73.64,2.04,0.10,2.04,0.10,-0.10,-0.27,0.82,1.94,1.94,1.94
74.38,2.08,0.16,2.08,0.16,-0.16,-0.37,0.78,1.92,1.92,1.92
75.12,2.12,0.22,2.12,0.22,-0.22,-0.46,0.75,1.90,1.90,1.90
75.87,2.15,0.27,2.16,0.27,-0.27,-0.54,0.72,1.88,1.88,1.88
76.63,2.19,0.33,2.19,0.32,-0.32,-0.62,0.69,1.87,1.87,1.87
77.40,2.21,0.36,2.22,0.37,-0.37,-0.69,0.65,1.85,1.85,1.85
78.17,2.24,0.41,2.24,0.41,-0.41,-0.76,0.62,1.83,1.83,1.83
78.95,2.26,0.45,2.26,0.45,-0.45,-0.81,0.59,1.82,1.81,1.81
79.74,2.27,0.48,2.27,0.48,-0.48,-0.86,0.56,1.79,1.79,1.79
80.54,2.28,0.51,2.28,0.51,-0.51,-0.90,0.53,1.77,1.77,1.77
81.35,2.28,0.53,2.29,0.53,-0.53,-0.94,0.50,1.75,1.75,1.75
82.16,2.29,0.56,2.29,0.56,-0.56,-0.97,0.46,1.74,1.73,1.73
82.98,2.29,0.58,2.29,0.58,-0.58,-0.99,0.43,1.71,1.71,1.71
83.81,2.29,0.60,2.29,0.60,-0.60,-1.00,0.40,1.69,1.69,1.69
84.65,2.28,0.62,2.28,0.62,-0.62,-1.01,0.37,1.66,1.66,1.67
85.50,2.28,0.64,2.28,0.63,-0.64,-1.01,0.34,1.64,1.64,1.64
86.35,2.27,0.65,2.28,0.66,-0.67,-1.00,0.31,1.61,1.61,1.62
87.22,2.28,0.68,2.28,0.68,-0.69,-0.99,0.28,1.59,1.59,1.60
88.09,2.29,0.72,2.29,0.71,-0.71,-0.98,0.25,1.58,1.58,1.57
88.97,2.29,0.73,2.29,0.74,-0.73,-0.95,0.22,1.56,1.56,1.56
89.86,2.29,0.76,2.29,0.76,-0.75,-0.93,0.19,1.54,1.54,1.53
90.76,2.28,0.77,2.28,0.77,-0.76,-0.90,0.16,1.52,1.52,1.51
91.66,2.27,0.78,2.27,0.78,-0.77,-0.87,0.13,1.50,1.50,1.49
92.58,2.25,0.79,2.25,0.78,-0.78,-0.84,0.10,1.47,1.47,1.47
93.51,2.22,0.78,2.23,0.78,-0.78,-0.80,0.07,1.44,1.45,1.44
94.44,2.20,0.78,2.20,0.77,-0.78,-0.77,0.04,1.42,1.42,1.42
95.39,2.16,0.77,2.16,0.76,-0.77,-0.73,0.01,1.39,1.39,1.40
96.34,2.13,0.75,2.14,0.76,-0.77,-0.69,-0.02,1.36,1.37,1.38
97.30,2.11,0.76,2.11,0.76,-0.76,-0.65,-0.05,1.35,1.35,1.35
98.28,2.09,0.77,2.09,0.76,-0.75,-0.61,-0.08,1.34,1.33,1.32
99.26,2.06,0.77,2.06,0.76,-0.75,-0.57,-0.11,1.31,1.31,1.30
100.25,2.02,0.74,2.02,0.75,-0.75,-0.53,-0.14,1.27,1.27,1.28
101.25,1.98,0.73,1.99,0.74,-0.75,-0.49,-0.17,1.24,1.24,1.25
102.27,1.95,0.73,1.96,0.74,-0.75,-0.45,-0.20,1.20,1.21,1.22
103.29,1.93,0.75,1.93,0.74,-0.75,-0.41,-0.22,1.18,1.18,1.18
104.32,1.91,0.76,1.91,0.75,-0.75,-0.37,-0.25,1.16,1.16,1.16
105.37,1.88,0.75,1.88,0.76,-0.75,-0.34,-0.28,1.13,1.13,1.13
106.42,1.84,0.75,1.84,0.75,-0.75,-0.30,-0.30,1.09,1.09,1.09
107.48,1.80,0.75,1.80,0.75,-0.75,-0.27,-0.33,1.05,1.05,1.05
108.56,1.76,0.75,1.76,0.75,-0.74,-0.23,-0.35,1.02,1.02,1.01
109.64,1.71,0.74,1.71,0.74,-0.73,-0.20,-0.38,0.99,0.99,0.97
110.74,1.66,0.73,1.66,0.72,-0.71,-0.17,-0.40,0.95,0.95,0.94
111.85,1.58,0.68,1.59,0.69,-0.69,-0.14,-0.42,0.89,0.90,0.90
112.97,1.51,0.66,1.51,0.66,-0.67,-0.12,-0.44,0.84,0.84,0.85
114.10,1.43,0.62,1.44,0.63,-0.65,-0.09,-0.46,0.79,0.79,0.81
115.24,1.37,0.61,1.38,0.61,-0.62,-0.07,-0.47,0.75,0.76,0.77
116.39,1.33,0.60,1.33,0.60,-0.60,-0.04,-0.49,0.73,0.73,0.73
117.55,1.27,0.59,1.27,0.59,-0.57,-0.02,-0.50,0.70,0.70,0.68
118.73,1.20,0.56,1.20,0.56,-0.55,-0.00,-0.51,0.66,0.65,0.65
119.92,1.12,0.52,1.12,0.52,-0.52,0.02,-0.52,0.61,0.61,0.60
121.12,1.03,0.47,1.05,0.48,-0.48,0.04,-0.52,0.55,0.57,0.56
122.33,0.98,0.45,0.97,0.45,-0.44,0.05,-0.53,0.54,0.53,0.53
123.55,0.90,0.41,0.89,0.40,-0.40,0.07,-0.53,0.51,0.49,0.49
124.79,0.80,0.34,0.80,0.34,-0.35,0.08,-0.53,0.46,0.46,0.46
126.03,0.69,0.27,0.72,0.29,-0.29,0.10,-0.53,0.40,0.42,0.43
127.29,0.64,0.25,0.63,0.24,-0.24,0.11,-0.52,0.40,0.39,0.39
128.57,0.56,0.20,0.54,0.18,-0.18,0.12,-0.51,0.38,0.36,0.36
129.85,0.44,0.12,0.45,0.13,-0.13,0.13,-0.50,0.31,0.33,0.33
131.15,0.34,0.05,0.37,0.07,-0.07,0.14,-0.49,0.27,0.29,0.29
132.46,0.30,0.04,0.28,0.02,-0.02,0.15,-0.48,0.28,0.26,0.26
133.79,0.22,-0.02,0.21,-0.03,0.03,0.16,-0.46,0.25,0.23,0.24
135.12,0.10,-0.11,0.13,-0.08,0.08,0.17,-0.44,0.18,0.21,0.21
136.48,0.05,-0.13,0.04,-0.14,0.13,0.18,-0.42,0.18,0.17,0.18
137.84,-0.03,-0.18,-0.02,-0.17,0.18,0.18,-0.40,0.15,0.15,0.15
139.22,-0.09,-0.21,-0.09,-0.21,0.22,0.19,-0.38,0.14,0.13,0.12
140.61,-0.16,-0.25,-0.17,-0.26,0.27,0.20,-0.35,0.11,0.10,0.09
142.02,-0.27,-0.34,-0.25,-0.32,0.31,0.20,-0.33,0.05,0.07,0.07
143.44,-0.32,-0.36,-0.32,-0.37,0.36,0.21,-0.30,0.04,0.03,0.04
144.87,-0.40,-0.42,-0.40,-0.41,0.40,0.22,-0.27,0.01,0.01,0.02
146.32,-0.46,-0.44,-0.46,-0.45,0.45,0.22,-0.24,-0.01,-0.01,-0.02
147.78,-0.54,-0.49,-0.54,-0.49,0.50,0.23,-0.21,-0.04,-0.04,-0.04
149.26,-0.61,-0.54,-0.61,-0.54,0.55,0.23,-0.18,-0.06,-0.06,-0.07
150.75,-0.70,-0.60,-0.69,-0.60,0.60,0.24,-0.14,-0.10,-0.09,-0.09
152.26,-0.77,-0.65,-0.77,-0.65,0.65,0.25,-0.11,-0.12,-0.12,-0.12
153.78,-0.85,-0.70,-0.85,-0.70,0.70,0.25,-0.07,-0.15,-0.15,-0.15
155.32,-0.92,-0.74,-0.92,-0.75,0.76,0.26,-0.04,-0.16,-0.17,-0.18
156.88,-1.02,-0.82,-1.01,-0.81,0.81,0.26,-0.00,-0.21,-0.20,-0.20
158.44,-1.08,-0.86,-1.09,-0.87,0.86,0.27,0.03,-0.22,-0.23,-0.22
160.03,-1.18,-0.93,-1.16,-0.91,0.91,0.28,0.07,-0.26,-0.25,-0.25
161.63,-1.23,-0.96,-1.23,-0.96,0.96,0.28,0.11,-0.27,-0.27,-0.27
163.24,-1.29,-0.99,-1.30,-1.00,1.01,0.29,0.15,-0.28,-0.30,-0.30
164.88,-1.38,-1.06,-1.37,-1.04,1.04,0.30,0.18,-0.33,-0.32,-0.32
166.53,-1.44,-1.09,-1.43,-1.08,1.07,0.31,0.22,-0.36,-0.36,-0.35
168.19,-1.48,-1.10,-1.49,-1.11,1.10,0.31,0.26,-0.38,-0.39,-0.38
169.87,-1.53,-1.12,-1.52,-1.12,1.12,0.32,0.30,-0.41,-0.41,-0.41
171.57,-1.56,-1.12,-1.56,-1.13,1.13,0.33,0.34,-0.43,-0.43,-0.44
173.29,-1.59,-1.12,-1.59,-1.13,1.13,0.34,0.38,-0.46,-0.46,-0.46
175.02,-1.62,-1.13,-1.61,-1.12,1.12,0.35,0.42,-0.50,-0.49,-0.49
176.77,-1.63,-1.10,-1.63,-1.11,1.10,0.36,0.46,-0.52,-0.53,-0.53
178.54,-1.64,-1.09,-1.64,-1.09,1.08,0.37,0.51,-0.56,-0.56,-0.55
180.32,-1.65,-1.06,-1.64,-1.06,1.06,0.38,0.55,-0.59,-0.59,-0.59
182.13,-1.65,-1.04,-1.64,-1.03,1.02,0.39,0.59,-0.62,-0.62,-0.61
183.95,-1.63,-0.98,-1.63,-0.99,0.99,0.40,0.63,-0.64,-0.64,-0.65
185.79,-1.63,-0.95,-1.63,-0.95,0.96,0.41,0.67,-0.67,-0.67,-0.68
187.65,-1.62,-0.91,-1.62,-0.91,0.92,0.43,0.72,-0.70,-0.70,-0.70
189.52,-1.62,-0.88,-1.62,-0.88,0.89,0.44,0.76,-0.73,-0.73,-0.74
191.42,-1.62,-0.85,-1.62,-0.85,0.85,0.45,0.80,-0.76,-0.76,-0.77
193.33,-1.62,-0.82,-1.62,-0.82,0.82,0.47,0.85,-0.80,-0.80,-0.80
195.27,-1.62,-0.79,-1.62,-0.79,0.79,0.48,0.89,-0.83,-0.83,-0.82
197.22,-1.62,-0.76,-1.62,-0.76,0.75,0.50,0.93,-0.86,-0.86,-0.86
199.19,-1.62,-0.73,-1.62,-0.73,0.72,0.51,0.98,-0.90,-0.90,-0.89
201.18,-1.62,-0.69,-1.61,-0.69,0.69,0.53,1.02,-0.93,-0.93,-0.93
203.19,-1.61,-0.65,-1.61,-0.65,0.65,0.55,1.06,-0.96,-0.96,-0.96
205.23,-1.60,-0.61,-1.60,-0.61,0.62,0.57,1.10,-0.98,-0.98,-0.99
207.28,-1.60,-0.58,-1.60,-0.58,0.58,0.58,1.15,-1.01,-1.01,-1.02
209.35,-1.60,-0.55,-1.60,-0.55,0.55,0.60,1.19,-1.05,-1.05,-1.05
211.44,-1.61,-0.52,-1.61,-0.53,0.52,0.62,1.23,-1.09,-1.09,-1.09
213.56,-1.63,-0.51,-1.62,-0.50,0.50,0.64,1.27,-1.13,-1.12,-1.11
215.69,-1.64,-0.48,-1.64,-0.48,0.48,0.66,1.31,-1.16,-1.16,-1.15
217.85,-1.66,-0.47,-1.65,-0.47,0.47,0.68,1.35,-1.19,-1.18,-1.19
220.03,-1.68,-0.46,-1.68,-0.46,0.47,0.70,1.39,-1.21,-1.21,-1.22
222.23,-1.71,-0.46,-1.72,-0.46,0.47,0.73,1.42,-1.24,-1.24,-1.25
224.45,-1.77,-0.48,-1.76,-0.48,0.48,0.75,1.46,-1.28,-1.28,-1.29
226.70,-1.82,-0.51,-1.82,-0.50,0.50,0.77,1.49,-1.31,-1.31,-1.31
228.96,-1.88,-0.54,-1.87,-0.53,0.53,0.80,1.52,-1.35,-1.34,-1.34
231.25,-1.92,-0.55,-1.93,-0.56,0.56,0.82,1.55,-1.35,-1.36,-1.37
233.57,-1.98,-0.60,-1.98,-0.60,0.60,0.85,1.58,-1.38,-1.38,-1.38
235.90,-2.06,-0.65,-2.05,-0.64,0.64,0.87,1.60,-1.41,-1.40,-1.41
238.26,-2.11,-0.68,-2.11,-0.69,0.69,0.90,1.63,-1.42,-1.43,-1.42
240.64,-2.18,-0.74,-2.17,-0.73,0.73,0.92,1.65,-1.45,-1.45,-1.44
243.05,-2.23,-0.77,-2.23,-0.78,0.77,0.95,1.66,-1.46,-1.47,-1.46
245.48,-2.29,-0.82,-2.28,-0.81,0.81,0.98,1.68,-1.48,-1.48,-1.47
247.93,-2.34,-0.85,-2.33,-0.85,0.85,1.00,1.69,-1.49,-1.49,-1.49
250.41,-2.37,-0.87,-2.38,-0.88,0.88,1.03,1.70,-1.49,-1.50,-1.50
252.92,-2.44,-0.92,-2.43,-0.91,0.92,1.06,1.71,-1.52,-1.51,-1.52
255.45,-2.48,-0.95,-2.48,-0.95,0.95,1.09,1.71,-1.53,-1.53,-1.53
258.00,-2.52,-0.97,-2.53,-0.98,0.98,1.12,1.71,-1.54,-1.54,-1.55
260.58,-2.58,-1.03,-2.57,-1.02,1.01,1.14,1.71,-1.57,-1.56,-1.55
263.19,-2.61,-1.04,-2.61,-1.05,1.04,1.17,1.70,-1.57,-1.57,-1.56
265.82,-2.66,-1.08,-2.65,-1.07,1.07,1.20,1.70,-1.59,-1.58,-1.58
268.48,-2.69,-1.10,-2.69,-1.10,1.10,1.23,1.69,-1.59,-1.59,-1.59
271.16,-2.73,-1.12,-2.73,-1.13,1.13,1.26,1.68,-1.60,-1.61,-1.61
273.87,-2.78,-1.16,-2.77,-1.15,1.15,1.29,1.67,-1.63,-1.62,-1.62
276.61,-2.81,-1.17,-2.81,-1.18,1.18,1.31,1.65,-1.63,-1.63,-1.63
279.38,-2.85,-1.20,-2.85,-1.20,1.21,1.34,1.64,-1.64,-1.64,-1.65
282.17,-2.90,-1.24,-2.89,-1.23,1.24,1.37,1.62,-1.66,-1.66,-1.66
284.99,-2.94,-1.26,-2.94,-1.27,1.27,1.39,1.60,-1.67,-1.67,-1.67
287.84,-3.00,-1.31,-2.99,-1.31,1.30,1.42,1.58,-1.70,-1.69,-1.69
290.72,-3.04,-1.34,-3.04,-1.34,1.33,1.45,1.56,-1.71,-1.71,-1.70
293.63,-3.08,-1.37,-3.08,-1.37,1.36,1.47,1.54,-1.71,-1.72,-1.71
296.57,-3.12,-1.39,-3.12,-1.39,1.40,1.49,1.52,-1.72,-1.72,-1.73
299.53,-3.16,-1.42,-3.16,-1.42,1.43,1.51,1.50,-1.73,-1.73,-1.74
302.53,-3.21,-1.46,-3.20,-1.45,1.46,1.54,1.47,-1.75,-1.74,-1.75
305.55,-3.25,-1.48,-3.25,-1.49,1.49,1.56,1.45,-1.76,-1.76,-1.77
308.61,-3.31,-1.52,-3.31,-1.52,1.52,1.58,1.43,-1.79,-1.78,-1.78
311.69,-3.36,-1.56,-3.35,-1.55,1.55,1.59,1.41,-1.81,-1.81,-1.80
314.81,-3.40,-1.58,-3.40,-1.58,1.57,1.61,1.39,-1.82,-1.83,-1.82
317.96,-3.44,-1.61,-3.44,-1.60,1.60,1.62,1.37,-1.84,-1.84,-1.83
321.14,-3.47,-1.61,-3.47,-1.62,1.62,1.64,1.35,-1.85,-1.85,-1.85
324.35,-3.50,-1.63,-3.50,-1.63,1.63,1.65,1.33,-1.87,-1.87,-1.87
327.59,-3.52,-1.63,-3.52,-1.63,1.64,1.66,1.31,-1.88,-1.88,-1.89
330.87,-3.54,-1.64,-3.54,-1.64,1.64,1.66,1.30,-1.90,-1.90,-1.90
334.18,-3.56,-1.64,-3.56,-1.64,1.64,1.67,1.28,-1.92,-1.92,-1.92
337.52,-3.58,-1.65,-3.58,-1.64,1.63,1.67,1.26,-1.94,-1.94,-1.93
340.90,-3.59,-1.63,-3.59,-1.63,1.62,1.68,1.25,-1.96,-1.96,-1.95
344.30,-3.59,-1.62,-3.59,-1.62,1.61,1.68,1.23,-1.98,-1.98,-1.97
347.75,-3.58,-1.59,-3.58,-1.59,1.59,1.67,1.22,-1.99,-1.99,-1.99
351.23,-3.57,-1.56,-3.57,-1.57,1.57,1.67,1.21,-1.99,-2.00,-2.01
354.74,-3.57,-1.55,-3.57,-1.54,1.55,1.66,1.20,-2.02,-2.02,-2.02
358.28,-3.57,-1.53,-3.57,-1.53,1.53,1.66,1.19,-2.04,-2.04,-2.04
361.87,-3.57,-1.50,-3.57,-1.51,1.51,1.65,1.18,-2.06,-2.06,-2.06
365.49,-3.57,-1.49,-3.57,-1.49,1.49,1.64,1.17,-2.08,-2.08,-2.07
369.14,-3.57,-1.47,-3.57,-1.48,1.47,1.62,1.17,-2.10,-2.10,-2.10
372.83,-3.57,-1.46,-3.57,-1.46,1.45,1.61,1.16,-2.11,-2.11,-2.11
376.56,-3.57,-1.44,-3.57,-1.44,1.44,1.59,1.16,-2.13,-2.13,-2.13
380.33,-3.57,-1.42,-3.57,-1.42,1.42,1.57,1.15,-2.15,-2.15,-2.15
384.13,-3.57,-1.41,-3.57,-1.40,1.41,1.55,1.15,-2.16,-2.16,-2.16
387.97,-3.57,-1.39,-3.57,-1.39,1.39,1.53,1.15,-2.18,-2.18,-2.18
391.85,-3.57,-1.38,-3.57,-1.38,1.38,1.51,1.14,-2.19,-2.19,-2.19
395.77,-3.57,-1.37,-3.57,-1.36,1.36,1.48,1.14,-2.20,-2.20,-2.20
399.73,-3.57,-1.35,-3.57,-1.36,1.35,1.46,1.14,-2.22,-2.22,-2.21
403.72,-3.57,-1.34,-3.57,-1.34,1.34,1.43,1.14,-2.23,-2.23,-2.22
407.76,-3.57,-1.33,-3.57,-1.33,1.33,1.40,1.14,-2.24,-2.24,-2.24
411.84,-3.57,-1.31,-3.57,-1.32,1.32,1.38,1.14,-2.25,-2.25,-2.26
415.96,-3.57,-1.30,-3.57,-1.30,1.30,1.35,1.14,-2.26,-2.26,-2.27
420.12,-3.57,-1.29,-3.57,-1.29,1.29,1.32,1.14,-2.28,-2.28,-2.28
424.32,-3.57,-1.28,-3.57,-1.28,1.28,1.29,1.14,-2.29,-2.29,-2.29
428.56,-3.57,-1.27,-3.57,-1.27,1.26,1.25,1.14,-2.30,-2.30,-2.30
432.85,-3.57,-1.25,-3.57,-1.25,1.25,1.22,1.13,-2.32,-2.32,-2.32
437.18,-3.57,-1.24,-3.57,-1.24,1.24,1.19,1.13,-2.33,-2.33,-2.33
441.55,-3.57,-1.23,-3.57,-1.22,1.22,1.16,1.13,-2.35,-2.35,-2.34
445.96,-3.57,-1.21,-3.57,-1.21,1.21,1.12,1.12,-2.36,-2.36,-2.36
450.42,-3.57,-1.19,-3.57,-1.19,1.19,1.09,1.12,-2.38,-2.38,-2.38
454.93,-3.57,-1.18,-3.57,-1.17,1.18,1.06,1.11,-2.39,-2.39,-2.39
459.48,-3.57,-1.15,-3.57,-1.16,1.16,1.02,1.10,-2.40,-2.41,-2.41
464.07,-3.58,-1.14,-3.58,-1.15,1.15,0.99,1.09,-2.43,-2.43,-2.43
468.71,-3.59,-1.13,-3.59,-1.13,1.13,0.95,1.08,-2.45,-2.45,-2.45
473.40,-3.59,-1.12,-3.59,-1.12,1.12,0.92,1.06,-2.47,-2.47,-2.46
478.13,-3.59,-1.10,-3.58,-1.10,1.09,0.88,1.05,-2.49,-2.49,-2.49
