frequency,raw,error,smoothed,error_smoothed,equalization,parametric_eq,fixed_band_eq,equalized_raw,equalized_smoothed,target
20.00,7.75,2.18,7.75,2.18,-2.18,-2.04,-0.92,5.57,5.57,5.57
20.20,7.75,2.19,7.75,2.18,-2.19,-2.04,-0.95,5.57,5.57,5.56
20.40,7.75,2.19,7.75,2.19,-2.19,-2.04,-0.98,5.56,5.56,5.56
20.61,7.75,2.20,7.75,2.20,-2.20,-2.05,-1.00,5.55,5.55,5.55
20.81,7.75,2.21,7.75,2.21,-2.20,-2.05,-1.03,5.55,5.55,5.54
21.02,7.75,2.22,7.75,2.21,-2.21,-2.05,-1.07,5.54,5.54,5.53
21.23,7.75,2.22,7.75,2.22,-2.21,-2.05,-1.10,5.54,5.54,5.53
21.44,7.75,2.21,7.75,2.22,-2.22,-2.06,-1.13,5.53,5.53,5.54
21.66,7.75,2.22,7.75,2.22,-2.22,-2.06,-1.16,5.53,5.53,5.53
21.87,7.75,2.22,7.75,2.22,-2.22,-2.06,-1.20,5.53,5.53,5.53
22.09,7.75,2.23,7.75,2.23,-2.23,-2.07,-1.23,5.52,5.52,5.52
22.31,7.75,2.23,7.75,2.23,-2.23,-2.07,-1.27,5.52,5.52,5.52
22.54,7.75,2.24,7.75,2.23,-2.23,-2.07,-1.31,5.52,5.52,5.51
22.76,7.75,2.23,7.75,2.23,-2.24,-2.08,-1.34,5.51,5.51,5.52
22.99,7.75,2.23,7.75,2.24,-2.24,-2.08,-1.38,5.51,5.51,5.52
23.22,7.75,2.24,7.75,2.24,-2.24,-2.09,-1.42,5.51,5.51,5.51
23.45,7.75,2.24,7.75,2.24,-2.24,-2.09,-1.46,5.51,5.51,5.51
23.69,7.75,2.24,7.75,2.25,-2.24,-2.09,-1.51,5.51,5.51,5.51
23.92,7.75,2.24,7.75,2.24,-2.24,-2.10,-1.55,5.51,5.51,5.51
24.16,7.75,2.23,7.75,2.23,-2.24,-2.10,-1.59,5.51,5.51,5.52
24.40,7.75,2.23,7.75,2.23,-2.24,-2.10,-1.64,5.51,5.51,5.53
24.65,7.75,2.23,7.75,2.23,-2.24,-2.11,-1.68,5.51,5.51,5.52
24.89,7.75,2.23,7.75,2.23,-2.24,-2.11,-1.73,5.51,5.51,5.52
25.14,7.75,2.24,7.75,2.23,-2.24,-2.12,-1.77,5.51,5.51,5.51
25.39,7.75,2.24,7.75,2.24,-2.23,-2.12,-1.82,5.52,5.52,5.51
25.65,7.75,2.24,7.75,2.24,-2.22,-2.12,-1.86,5.53,5.53,5.51
25.91,7.75,2.24,7.74,2.23,-2.20,-2.13,-1.91,5.55,5.54,5.51
26.16,7.72,2.21,7.71,2.21,-2.18,-2.13,-1.96,5.54,5.53,5.51
26.43,7.66,2.16,7.66,2.16,-2.16,-2.14,-2.00,5.50,5.50,5.50
26.69,7.61,2.11,7.61,2.12,-2.14,-2.14,-2.05,5.47,5.47,5.50
26.96,7.56,2.07,7.57,2.09,-2.11,-2.15,-2.09,5.45,5.46,5.49
27.23,7.55,2.08,7.55,2.07,-2.09,-2.15,-2.14,5.46,5.46,5.48
27.50,7.55,2.08,7.55,2.07,-2.08,-2.15,-2.18,5.47,5.47,5.47
27.77,7.55,2.08,7.55,2.08,-2.07,-2.16,-2.22,5.48,5.48,5.47
28.05,7.55,2.08,7.55,2.08,-2.07,-2.16,-2.27,5.48,5.48,5.47
28.33,7.55,2.08,7.55,2.08,-2.07,-2.17,-2.31,5.48,5.48,5.47
28.62,7.55,2.09,7.55,2.09,-2.08,-2.17,-2.34,5.47,5.47,5.46
28.90,7.55,2.08,7.55,2.09,-2.08,-2.18,-2.38,5.47,5.47,5.47
29.19,7.55,2.08,7.55,2.08,-2.08,-2.18,-2.41,5.47,5.47,5.47
29.48,7.55,2.08,7.55,2.08,-2.08,-2.19,-2.45,5.47,5.47,5.48
29.78,7.55,2.08,7.55,2.07,-2.08,-2.19,-2.47,5.47,5.47,5.47
30.08,7.55,2.07,7.55,2.07,-2.08,-2.20,-2.50,5.47,5.47,5.48
30.38,7.55,2.08,7.55,2.08,-2.08,-2.20,-2.53,5.47,5.47,5.47
30.68,7.55,2.08,7.55,2.08,-2.08,-2.21,-2.55,5.47,5.47,5.47
30.99,7.55,2.09,7.55,2.09,-2.09,-2.21,-2.57,5.46,5.46,5.46
31.30,7.55,2.10,7.55,2.10,-2.09,-2.22,-2.58,5.46,5.46,5.45
31.61,7.55,2.10,7.55,2.10,-2.10,-2.23,-2.59,5.45,5.45,5.45
31.93,7.55,2.11,7.55,2.11,-2.11,-2.23,-2.60,5.44,5.44,5.44
32.24,7.55,2.11,7.55,2.12,-2.12,-2.24,-2.61,5.43,5.43,5.44
32.57,7.55,2.12,7.55,2.13,-2.13,-2.24,-2.62,5.42,5.42,5.43
32.89,7.55,2.14,7.55,2.13,-2.13,-2.25,-2.62,5.42,5.42,5.41
33.22,7.55,2.14,7.55,2.14,-2.13,-2.25,-2.62,5.42,5.42,5.41
33.55,7.55,2.14,7.55,2.15,-2.13,-2.26,-2.61,5.42,5.42,5.41
33.89,7.55,2.14,7.54,2.14,-2.12,-2.27,-2.61,5.43,5.42,5.41
34.23,7.53,2.14,7.52,2.13,-2.12,-2.27,-2.60,5.42,5.41,5.39
34.57,7.49,2.10,7.49,2.10,-2.11,-2.28,-2.60,5.38,5.39,5.39
34.92,7.46,2.08,7.47,2.08,-2.10,-2.29,-2.59,5.36,5.37,5.38
35.27,7.45,2.07,7.45,2.08,-2.10,-2.29,-2.58,5.35,5.36,5.39
35.62,7.45,2.09,7.45,2.08,-2.09,-2.30,-2.56,5.36,5.35,5.36
35.97,7.45,2.10,7.45,2.10,-2.10,-2.31,-2.55,5.35,5.35,5.35
36.33,7.45,2.12,7.45,2.12,-2.11,-2.31,-2.54,5.34,5.34,5.34
36.70,7.45,2.13,7.45,2.13,-2.12,-2.32,-2.52,5.33,5.33,5.32
37.06,7.45,2.14,7.45,2.14,-2.15,-2.33,-2.51,5.30,5.30,5.31
37.43,7.45,2.16,7.45,2.16,-2.17,-2.33,-2.50,5.28,5.28,5.29
37.81,7.45,2.18,7.45,2.18,-2.19,-2.34,-2.49,5.26,5.26,5.27
38.19,7.45,2.20,7.45,2.21,-2.20,-2.35,-2.47,5.25,5.25,5.25
38.57,7.45,2.23,7.45,2.23,-2.22,-2.36,-2.46,5.23,5.24,5.22
38.95,7.45,2.25,7.44,2.24,-2.23,-2.36,-2.45,5.22,5.22,5.20
39.34,7.42,2.25,7.42,2.24,-2.23,-2.37,-2.44,5.19,5.19,5.17
39.74,7.38,2.23,7.38,2.24,-2.23,-2.38,-2.43,5.15,5.15,5.15
40.14,7.34,2.22,7.35,2.23,-2.23,-2.39,-2.42,5.11,5.12,5.12
40.54,7.32,2.22,7.32,2.22,-2.23,-2.40,-2.42,5.09,5.09,5.10
40.94,7.30,2.23,7.30,2.22,-2.23,-2.41,-2.41,5.07,5.07,5.07
41.35,7.28,2.22,7.28,2.23,-2.23,-2.41,-2.41,5.05,5.05,5.06
41.76,7.26,2.23,7.26,2.23,-2.24,-2.42,-2.41,5.02,5.03,5.03
42.18,7.25,2.24,7.25,2.24,-2.25,-2.43,-2.41,5.00,5.00,5.01
42.60,7.25,2.26,7.25,2.26,-2.27,-2.44,-2.41,4.98,4.98,4.99
43.03,7.25,2.29,7.25,2.28,-2.29,-2.45,-2.41,4.96,4.96,4.96
43.46,7.25,2.31,7.25,2.31,-2.31,-2.46,-2.42,4.94,4.94,4.95
43.90,7.25,2.33,7.25,2.34,-2.33,-2.47,-2.43,4.92,4.93,4.92
44.33,7.25,2.36,7.25,2.36,-2.34,-2.48,-2.44,4.91,4.91,4.89
44.78,7.25,2.39,7.24,2.38,-2.36,-2.49,-2.45,4.89,4.89,4.86
45.23,7.23,2.39,7.22,2.38,-2.37,-2.49,-2.46,4.86,4.84,4.85
45.68,7.18,2.37,7.19,2.38,-2.39,-2.50,-2.47,4.79,4.80,4.81
46.13,7.15,2.38,7.16,2.39,-2.41,-2.51,-2.49,4.74,4.75,4.77
46.60,7.15,2.41,7.15,2.41,-2.43,-2.52,-2.51,4.72,4.72,4.74
47.06,7.15,2.44,7.15,2.44,-2.45,-2.53,-2.53,4.70,4.70,4.71
47.53,7.15,2.47,7.15,2.48,-2.47,-2.54,-2.55,4.68,4.68,4.68
48.01,7.15,2.53,7.14,2.51,-2.50,-2.55,-2.57,4.65,4.64,4.62
48.49,7.12,2.53,7.12,2.53,-2.52,-2.57,-2.60,4.60,4.60,4.59
48.97,7.09,2.54,7.10,2.55,-2.54,-2.58,-2.62,4.55,4.56,4.55
49.46,7.07,2.56,7.07,2.57,-2.55,-2.59,-2.65,4.52,4.52,4.51
49.96,7.05,2.59,7.04,2.57,-2.56,-2.60,-2.68,4.49,4.47,4.46
50.46,7.01,2.57,7.01,2.57,-2.58,-2.61,-2.71,4.44,4.43,4.44
50.96,6.96,2.56,6.98,2.58,-2.59,-2.62,-2.74,4.37,4.39,4.40
51.47,6.96,2.59,6.96,2.59,-2.61,-2.63,-2.77,4.35,4.35,4.37
51.99,6.95,2.62,6.95,2.62,-2.64,-2.64,-2.81,4.31,4.31,4.33
52.51,6.95,2.66,6.95,2.66,-2.67,-2.65,-2.84,4.28,4.28,4.29
53.03,6.95,2.69,6.95,2.69,-2.70,-2.67,-2.87,4.25,4.25,4.26
53.56,6.95,2.73,6.95,2.74,-2.73,-2.68,-2.91,4.22,4.22,4.22
54.10,6.95,2.78,6.95,2.78,-2.76,-2.69,-2.94,4.19,4.19,4.17
54.64,6.95,2.81,6.95,2.82,-2.78,-2.70,-2.97,4.17,4.16,4.14
55.18,6.93,2.84,6.92,2.83,-2.80,-2.71,-3.01,4.13,4.13,4.09
55.74,6.88,2.83,6.88,2.82,-2.81,-2.73,-3.04,4.07,4.07,4.05
56.29,6.83,2.80,6.83,2.81,-2.81,-2.74,-3.07,4.02,4.01,4.03
56.86,6.77,2.77,6.78,2.80,-2.82,-2.75,-3.10,3.95,3.96,4.00
57.42,6.75,2.81,6.76,2.80,-2.83,-2.76,-3.13,3.92,3.93,3.94
58.00,6.75,2.83,6.75,2.82,-2.84,-2.78,-3.16,3.91,3.90,3.92
58.58,6.75,2.85,6.75,2.85,-2.86,-2.79,-3.18,3.89,3.89,3.90
59.16,6.75,2.88,6.75,2.88,-2.88,-2.80,-3.20,3.87,3.87,3.87
59.76,6.75,2.91,6.76,2.92,-2.91,-2.82,-3.22,3.84,3.85,3.84
60.35,6.75,2.96,6.75,2.95,-2.93,-2.83,-3.24,3.82,3.82,3.79
60.96,6.74,2.98,6.72,2.97,-2.96,-2.84,-3.26,3.78,3.77,3.76
61.57,6.68,2.98,6.69,2.98,-2.98,-2.86,-3.27,3.70,3.71,3.70
62.18,6.63,2.98,6.64,2.99,-3.00,-2.87,-3.28,3.63,3.64,3.65
62.80,6.60,3.01,6.60,3.00,-3.01,-2.89,-3.29,3.59,3.58,3.60
63.43,6.57,3.02,6.57,3.02,-3.03,-2.90,-3.29,3.54,3.54,3.55
64.07,6.54,3.04,6.55,3.05,-3.04,-2.91,-3.30,3.50,3.51,3.50
64.71,6.54,3.07,6.53,3.07,-3.06,-2.93,-3.30,3.48,3.47,3.47
65.35,6.52,3.10,6.52,3.09,-3.09,-2.94,-3.29,3.43,3.43,3.42
66.01,6.49,3.11,6.49,3.11,-3.12,-2.96,-3.29,3.38,3.38,3.38
66.67,6.46,3.12,6.46,3.13,-3.14,-2.97,-3.28,3.32,3.32,3.34
67.33,6.44,3.16,6.45,3.16,-3.17,-2.99,-3.27,3.27,3.28,3.28
68.01,6.44,3.20,6.44,3.20,-3.19,-3.00,-3.26,3.25,3.25,3.24
68.69,6.44,3.24,6.44,3.24,-3.21,-3.02,-3.25,3.23,3.23,3.20
69.37,6.42,3.26,6.41,3.26,-3.23,-3.03,-3.24,3.19,3.19,3.16
70.07,6.37,3.26,6.37,3.26,-3.25,-3.05,-3.22,3.12,3.12,3.11
70.77,6.31,3.25,6.32,3.25,-3.27,-3.06,-3.21,3.04,3.04,3.06
71.48,6.27,3.25,6.27,3.26,-3.30,-3.08,-3.19,2.98,2.98,3.02
72.19,6.24,3.27,6.25,3.28,-3.31,-3.09,-3.17,2.93,2.93,2.97
72.91,6.24,3.32,6.24,3.32,-3.33,-3.11,-3.16,2.91,2.91,2.92
73.64,6.24,3.37,6.25,3.38,-3.34,-3.13,-3.14,2.90,2.91,2.87
74.38,6.24,3.41,6.23,3.40,-3.35,-3.14,-3.13,2.89,2.88,2.83
75.12,6.22,3.43,6.19,3.40,-3.37,-3.16,-3.11,2.85,2.82,2.79
75.87,6.11,3.35,6.13,3.37,-3.38,-3.17,-3.10,2.73,2.75,2.76
76.63,6.06,3.35,6.07,3.36,-3.39,-3.19,-3.08,2.67,2.68,2.71
77.40,6.04,3.36,6.04,3.36,-3.40,-3.21,-3.07,2.64,2.64,2.68
78.17,6.04,3.40,6.04,3.40,-3.41,-3.22,-3.06,2.63,2.64,2.64
78.95,6.04,3.43,6.04,3.43,-3.41,-3.24,-3.05,2.63,2.63,2.61
79.74,6.04,3.46,6.02,3.44,-3.43,-3.25,-3.04,2.61,2.60,2.58
80.54,5.99,3.45,5.99,3.44,-3.44,-3.27,-3.04,2.55,2.55,2.55
81.35,5.94,3.43,5.97,3.46,-3.46,-3.29,-3.04,2.49,2.51,2.51
82.16,5.94,3.46,5.94,3.46,-3.47,-3.30,-3.03,2.47,2.47,2.48
82.98,5.94,3.50,5.91,3.47,-3.47,-3.32,-3.03,2.47,2.44,2.44
83.81,5.86,3.46,5.88,3.48,-3.47,-3.33,-3.04,2.39,2.41,2.40
84.65,5.84,3.48,5.84,3.48,-3.47,-3.35,-3.04,2.37,2.36,2.36
85.50,5.80,3.48,5.79,3.48,-3.48,-3.37,-3.05,2.32,2.32,2.32
86.35,5.75,3.47,5.76,3.48,-3.48,-3.38,-3.06,2.27,2.28,2.28
87.22,5.73,3.49,5.72,3.48,-3.49,-3.40,-3.07,2.24,2.23,2.24
88.09,5.68,3.48,5.68,3.49,-3.50,-3.42,-3.08,2.18,2.19,2.20
88.97,5.64,3.49,5.66,3.50,-3.51,-3.43,-3.10,2.13,2.15,2.15
89.86,5.64,3.53,5.63,3.52,-3.53,-3.45,-3.12,2.11,2.10,2.11
90.76,5.62,3.55,5.60,3.54,-3.55,-3.46,-3.14,2.07,2.06,2.07
91.66,5.57,3.56,5.58,3.56,-3.56,-3.48,-3.16,2.01,2.02,2.01
92.58,5.54,3.57,5.56,3.59,-3.57,-3.50,-3.19,1.97,1.99,1.97
93.51,5.55,3.63,5.54,3.62,-3.59,-3.51,-3.22,1.96,1.95,1.92
94.44,5.53,3.65,5.50,3.63,-3.61,-3.53,-3.25,1.92,1.89,1.88
95.39,5.45,3.63,5.44,3.62,-3.63,-3.54,-3.28,1.82,1.81,1.82
96.34,5.34,3.57,5.38,3.61,-3.65,-3.56,-3.32,1.70,1.73,1.77
97.30,5.33,3.62,5.33,3.62,-3.66,-3.58,-3.35,1.68,1.68,1.71
98.28,5.33,3.68,5.32,3.67,-3.66,-3.59,-3.39,1.67,1.66,1.65
99.26,5.31,3.72,5.31,3.71,-3.67,-3.61,-3.43,1.64,1.63,1.59
100.25,5.27,3.74,5.24,3.71,-3.68,-3.62,-3.47,1.59,1.56,1.53
101.25,5.15,3.67,5.16,3.69,-3.69,-3.64,-3.51,1.46,1.47,1.48
102.27,5.06,3.64,5.09,3.67,-3.70,-3.65,-3.56,1.37,1.40,1.42
103.29,5.05,3.68,5.05,3.68,-3.70,-3.66,-3.60,1.36,1.35,1.37
104.32,5.03,3.71,5.02,3.70,-3.69,-3.68,-3.65,1.34,1.33,1.32
105.37,4.98,3.73,4.96,3.71,-3.68,-3.69,-3.69,1.30,1.28,1.25
106.42,4.87,3.67,4.88,3.68,-3.67,-3.71,-3.74,1.20,1.21,1.20
107.48,4.79,3.66,4.80,3.66,-3.67,-3.72,-3.78,1.12,1.13,1.14
108.56,4.73,3.64,4.74,3.66,-3.68,-3.73,-3.83,1.05,1.07,1.09
109.64,4.71,3.68,4.69,3.66,-3.67,-3.75,-3.87,1.04,1.02,1.03
110.74,4.66,3.69,4.65,3.67,-3.67,-3.76,-3.92,0.99,0.98,0.97
111.85,4.57,3.65,4.61,3.68,-3.67,-3.77,-3.96,0.91,0.94,0.93
112.97,4.57,3.69,4.56,3.68,-3.67,-3.78,-4.00,0.90,0.89,0.88
114.10,4.53,3.70,4.51,3.68,-3.68,-3.80,-4.04,0.85,0.83,0.83
115.24,4.45,3.69,4.45,3.68,-3.69,-3.81,-4.07,0.76,0.76,0.77
116.39,4.38,3.66,4.39,3.67,-3.70,-3.82,-4.10,0.68,0.69,0.72
117.55,4.34,3.67,4.36,3.69,-3.71,-3.83,-4.13,0.63,0.65,0.67
118.73,4.35,3.72,4.36,3.73,-3.72,-3.84,-4.16,0.63,0.64,0.63
119.92,4.39,3.81,4.35,3.76,-3.73,-3.85,-4.18,0.66,0.62,0.58
121.12,4.32,3.76,4.31,3.75,-3.74,-3.86,-4.20,0.59,0.57,0.56
122.33,4.22,3.70,4.25,3.73,-3.74,-3.87,-4.21,0.48,0.51,0.52
123.55,4.18,3.70,4.22,3.73,-3.74,-3.88,-4.22,0.44,0.48,0.48
124.79,4.21,3.76,4.20,3.75,-3.74,-3.89,-4.22,0.47,0.46,0.45
126.03,4.23,3.82,4.16,3.75,-3.74,-3.90,-4.23,0.49,0.42,0.41
127.29,4.08,3.71,4.10,3.73,-3.74,-3.91,-4.22,0.34,0.36,0.37
128.57,4.00,3.67,4.04,3.71,-3.75,-3.91,-4.21,0.25,0.30,0.33
129.85,4.02,3.72,4.02,3.72,-3.75,-3.92,-4.20,0.27,0.26,0.30
131.15,4.04,3.78,4.03,3.77,-3.76,-3.93,-4.19,0.28,0.27,0.26
132.46,4.05,3.83,4.03,3.81,-3.77,-3.93,-4.17,0.28,0.26,0.22
133.79,3.98,3.81,3.99,3.81,-3.78,-3.94,-4.14,0.20,0.20,0.17
135.12,3.93,3.79,3.93,3.79,-3.80,-3.94,-4.12,0.13,0.13,0.14
136.48,3.86,3.76,3.87,3.77,-3.81,-3.95,-4.09,0.05,0.06,0.10
137.84,3.84,3.77,3.86,3.80,-3.82,-3.95,-4.05,0.02,0.05,0.07
139.22,3.86,3.85,3.85,3.83,-3.82,-3.95,-4.02,0.04,0.04,0.01
140.61,3.87,3.88,3.82,3.84,-3.81,-3.96,-3.98,0.06,0.01,-0.01
142.02,3.75,3.81,3.76,3.82,-3.80,-3.96,-3.95,-0.05,-0.04,-0.05
143.44,3.66,3.76,3.70,3.79,-3.80,-3.96,-3.91,-0.14,-0.09,-0.10
144.87,3.65,3.78,3.65,3.78,-3.79,-3.96,-3.87,-0.14,-0.14,-0.13
146.32,3.65,3.82,3.61,3.78,-3.79,-3.96,-3.83,-0.14,-0.18,-0.17
147.78,3.56,3.77,3.56,3.77,-3.78,-3.96,-3.79,-0.22,-0.22,-0.21
149.26,3.48,3.73,3.50,3.75,-3.76,-3.96,-3.75,-0.28,-0.26,-0.24
150.75,3.45,3.74,3.47,3.76,-3.75,-3.96,-3.71,-0.30,-0.28,-0.29
152.26,3.46,3.78,3.45,3.78,-3.75,-3.96,-3.67,-0.29,-0.30,-0.32
153.78,3.46,3.83,3.41,3.76,-3.75,-3.96,-3.63,-0.29,-0.34,-0.36
155.32,3.32,3.71,3.34,3.73,-3.75,-3.95,-3.59,-0.43,-0.41,-0.39
156.88,3.23,3.67,3.28,3.71,-3.74,-3.95,-3.56,-0.51,-0.47,-0.43
158.44,3.24,3.72,3.24,3.72,-3.74,-3.94,-3.52,-0.50,-0.49,-0.48
160.03,3.26,3.78,3.23,3.75,-3.74,-3.94,-3.49,-0.48,-0.50,-0.52
161.63,3.22,3.78,3.19,3.75,-3.73,-3.93,-3.46,-0.51,-0.54,-0.56
163.24,3.10,3.71,3.13,3.74,-3.73,-3.93,-3.43,-0.63,-0.60,-0.61
164.88,3.03,3.68,3.06,3.71,-3.72,-3.92,-3.40,-0.69,-0.66,-0.65
166.53,3.04,3.74,3.01,3.71,-3.72,-3.91,-3.38,-0.67,-0.71,-0.70
168.19,2.97,3.71,2.97,3.72,-3.70,-3.91,-3.36,-0.73,-0.73,-0.74
169.87,2.92,3.71,2.93,3.72,-3.69,-3.90,-3.34,-0.77,-0.76,-0.79
171.57,2.87,3.70,2.86,3.69,-3.68,-3.89,-3.32,-0.81,-0.83,-0.83
173.29,2.80,3.67,2.78,3.65,-3.68,-3.88,-3.31,-0.88,-0.90,-0.87
175.02,2.69,3.61,2.72,3.64,-3.67,-3.87,-3.29,-0.98,-0.95,-0.92
176.77,2.67,3.63,2.70,3.65,-3.68,-3.86,-3.28,-1.00,-0.98,-0.96
178.54,2.72,3.71,2.69,3.69,-3.68,-3.84,-3.28,-0.96,-0.99,-0.99
180.32,2.69,3.73,2.67,3.71,-3.68,-3.83,-3.27,-0.99,-1.01,-1.04
182.13,2.62,3.70,2.62,3.69,-3.68,-3.82,-3.27,-1.06,-1.06,-1.08
183.95,2.53,3.64,2.57,3.68,-3.68,-3.80,-3.27,-1.15,-1.11,-1.11
185.79,2.53,3.68,2.54,3.69,-3.69,-3.79,-3.27,-1.16,-1.15,-1.15
187.65,2.55,3.73,2.51,3.70,-3.70,-3.77,-3.28,-1.14,-1.18,-1.18
189.52,2.48,3.70,2.47,3.69,-3.70,-3.76,-3.29,-1.22,-1.23,-1.22
191.42,2.40,3.64,2.42,3.67,-3.70,-3.74,-3.30,-1.29,-1.27,-1.24
193.33,2.37,3.65,2.40,3.69,-3.70,-3.73,-3.31,-1.33,-1.29,-1.28
195.27,2.41,3.73,2.40,3.72,-3.70,-3.71,-3.32,-1.29,-1.30,-1.32
197.22,2.44,3.80,2.38,3.73,-3.71,-3.69,-3.34,-1.27,-1.33,-1.36
199.19,2.32,3.70,2.33,3.71,-3.71,-3.67,-3.35,-1.39,-1.38,-1.38
201.18,2.22,3.64,2.28,3.69,-3.71,-3.65,-3.37,-1.49,-1.43,-1.42
203.19,2.24,3.68,2.24,3.69,-3.70,-3.63,-3.39,-1.46,-1.46,-1.44
205.23,2.28,3.75,2.24,3.71,-3.70,-3.61,-3.41,-1.41,-1.46,-1.47
207.28,2.20,3.69,2.20,3.70,-3.68,-3.59,-3.44,-1.48,-1.48,-1.49
209.35,2.12,3.66,2.13,3.66,-3.66,-3.57,-3.46,-1.54,-1.53,-1.54
211.44,2.03,3.59,2.07,3.63,-3.63,-3.55,-3.48,-1.60,-1.57,-1.56
213.56,2.04,3.64,2.03,3.62,-3.62,-3.53,-3.51,-1.58,-1.59,-1.60
215.69,2.01,3.63,1.98,3.60,-3.60,-3.51,-3.53,-1.59,-1.62,-1.62
217.85,1.93,3.57,1.92,3.57,-3.58,-3.48,-3.55,-1.65,-1.66,-1.64
220.03,1.83,3.51,1.85,3.53,-3.55,-3.46,-3.57,-1.72,-1.70,-1.68
222.23,1.79,3.49,1.83,3.53,-3.53,-3.44,-3.60,-1.74,-1.71,-1.70
224.45,1.83,3.56,1.81,3.54,-3.52,-3.41,-3.62,-1.69,-1.71,-1.72
226.70,1.83,3.58,1.79,3.53,-3.50,-3.39,-3.63,-1.67,-1.72,-1.75
228.96,1.72,3.48,1.73,3.48,-3.49,-3.36,-3.65,-1.77,-1.77,-1.76
231.25,1.64,3.42,1.67,3.44,-3.48,-3.34,-3.66,-1.84,-1.81,-1.78
233.57,1.61,3.40,1.65,3.44,-3.46,-3.31,-3.67,-1.85,-1.81,-1.79
235.90,1.69,3.50,1.65,3.45,-3.44,-3.28,-3.68,-1.75,-1.79,-1.80
238.26,1.67,3.48,1.62,3.43,-3.40,-3.26,-3.68,-1.73,-1.78,-1.81
240.64,1.54,3.34,1.59,3.40,-3.36,-3.23,-3.69,-1.82,-1.77,-1.80
243.05,1.51,3.32,1.54,3.35,-3.33,-3.20,-3.68,-1.82,-1.79,-1.81
245.48,1.54,3.35,1.49,3.30,-3.30,-3.18,-3.68,-1.76,-1.81,-1.81
247.93,1.46,3.28,1.44,3.25,-3.28,-3.15,-3.66,-1.82,-1.84,-1.82
250.41,1.35,3.15,1.39,3.20,-3.25,-3.12,-3.65,-1.90,-1.86,-1.80
252.92,1.35,3.15,1.36,3.17,-3.22,-3.09,-3.63,-1.87,-1.87,-1.80
255.45,1.38,3.20,1.38,3.19,-3.20,-3.06,-3.61,-1.82,-1.82,-1.82
258.00,1.41,3.23,1.42,3.24,-3.18,-3.03,-3.58,-1.77,-1.76,-1.82
260.58,1.44,3.27,1.39,3.23,-3.16,-3.00,-3.55,-1.72,-1.77,-1.83
263.19,1.35,3.19,1.32,3.16,-3.14,-2.98,-3.51,-1.79,-1.82,-1.84
265.82,1.18,3.02,1.24,3.09,-3.12,-2.95,-3.48,-1.94,-1.88,-1.84
268.48,1.17,3.03,1.19,3.05,-3.09,-2.92,-3.43,-1.92,-1.90,-1.86
271.16,1.19,3.06,1.18,3.05,-3.06,-2.89,-3.39,-1.87,-1.87,-1.87
273.87,1.22,3.10,1.16,3.05,-3.02,-2.86,-3.34,-1.80,-1.86,-1.88
276.61,1.10,2.99,1.10,2.99,-2.98,-2.83,-3.29,-1.88,-1.88,-1.89
279.38,0.98,2.89,1.03,2.94,-2.95,-2.80,-3.24,-1.96,-1.91,-1.91
282.17,0.98,2.88,0.99,2.89,-2.92,-2.77,-3.18,-1.93,-1.93,-1.90
284.99,1.01,2.92,0.98,2.89,-2.89,-2.74,-3.13,-1.88,-1.91,-1.91
287.84,0.97,2.87,0.96,2.87,-2.86,-2.70,-3.07,-1.89,-1.90,-1.90
290.72,0.92,2.84,0.91,2.83,-2.83,-2.67,-3.01,-1.91,-1.92,-1.92
293.63,0.83,2.75,0.86,2.78,-2.80,-2.64,-2.95,-1.97,-1.94,-1.92
296.57,0.84,2.76,0.84,2.76,-2.77,-2.61,-2.89,-1.93,-1.93,-1.91
299.53,0.85,2.76,0.83,2.75,-2.74,-2.58,-2.83,-1.89,-1.90,-1.91
302.53,0.83,2.74,0.82,2.73,-2.70,-2.55,-2.77,-1.87,-1.87,-1.91
305.55,0.78,2.70,0.79,2.70,-2.66,-2.52,-2.71,-1.88,-1.87,-1.92
308.61,0.72,2.63,0.72,2.63,-2.63,-2.49,-2.64,-1.91,-1.91,-1.91
311.69,0.67,2.58,0.65,2.56,-2.60,-2.46,-2.58,-1.93,-1.95,-1.91
314.81,0.57,2.49,0.60,2.51,-2.57,-2.43,-2.52,-2.00,-1.98,-1.92
317.96,0.56,2.48,0.58,2.50,-2.54,-2.40,-2.47,-1.98,-1.95,-1.92
321.14,0.60,2.52,0.60,2.52,-2.50,-2.36,-2.41,-1.90,-1.90,-1.92
324.35,0.64,2.56,0.62,2.54,-2.47,-2.33,-2.35,-1.83,-1.86,-1.92
327.59,0.59,2.51,0.57,2.49,-2.45,-2.30,-2.30,-1.86,-1.87,-1.92
330.87,0.50,2.42,0.49,2.41,-2.42,-2.27,-2.24,-1.92,-1.93,-1.92
334.18,0.37,2.30,0.42,2.34,-2.38,-2.24,-2.19,-2.01,-1.96,-1.93
337.52,0.37,2.29,0.39,2.31,-2.34,-2.21,-2.14,-1.97,-1.95,-1.92
340.90,0.42,2.34,0.38,2.30,-2.29,-2.18,-2.09,-1.87,-1.91,-1.92
344.30,0.37,2.28,0.36,2.27,-2.24,-2.15,-2.04,-1.87,-1.88,-1.91
347.75,0.30,2.21,0.29,2.20,-2.20,-2.12,-1.99,-1.90,-1.91,-1.91
351.23,0.20,2.11,0.22,2.12,-2.16,-2.09,-1.94,-1.96,-1.94,-1.91
354.74,0.15,2.04,0.20,2.10,-2.12,-2.06,-1.90,-1.97,-1.92,-1.89
358.28,0.21,2.11,0.19,2.08,-2.08,-2.03,-1.86,-1.87,-1.89,-1.90
361.87,0.23,2.12,0.19,2.07,-2.04,-2.00,-1.81,-1.81,-1.85,-1.89
365.49,0.13,2.01,0.17,2.04,-2.00,-1.97,-1.77,-1.87,-1.84,-1.88
369.14,0.11,1.98,0.09,1.97,-1.98,-1.94,-1.73,-1.87,-1.88,-1.87
372.83,0.05,1.91,0.03,1.90,-1.96,-1.91,-1.70,-1.91,-1.92,-1.86
376.56,-0.03,1.84,0.03,1.90,-1.93,-1.88,-1.66,-1.96,-1.90,-1.87
380.33,0.03,1.90,0.03,1.90,-1.90,-1.85,-1.63,-1.87,-1.87,-1.87
384.13,0.09,1.96,0.03,1.90,-1.86,-1.82,-1.59,-1.77,-1.83,-1.87
387.97,0.01,1.87,0.03,1.89,-1.83,-1.79,-1.56,-1.82,-1.80,-1.86
391.85,-0.04,1.82,-0.03,1.84,-1.81,-1.76,-1.53,-1.85,-1.84,-1.86
395.77,-0.08,1.79,-0.11,1.76,-1.80,-1.73,-1.50,-1.88,-1.90,-1.87
399.73,-0.17,1.71,-0.16,1.72,-1.77,-1.70,-1.47,-1.94,-1.93,-1.88
403.72,-0.20,1.67,-0.17,1.71,-1.74,-1.67,-1.45,-1.94,-1.91,-1.87
407.76,-0.17,1.71,-0.16,1.72,-1.71,-1.64,-1.42,-1.88,-1.87,-1.88
411.84,-0.12,1.78,-0.17,1.72,-1.67,-1.61,-1.39,-1.79,-1.85,-1.89
415.96,-0.21,1.69,-0.22,1.68,-1.64,-1.58,-1.37,-1.84,-1.86,-1.90
420.12,-0.33,1.58,-0.29,1.61,-1.60,-1.55,-1.35,-1.93,-1.89,-1.91
424.32,-0.36,1.54,-0.34,1.55,-1.57,-1.52,-1.32,-1.93,-1.92,-1.90
428.56,-0.35,1.53,-0.36,1.52,-1.55,-1.49,-1.30,-1.89,-1.90,-1.88
432.85,-0.34,1.52,-0.37,1.49,-1.51,-1.47,-1.28,-1.85,-1.89,-1.86
437.18,-0.39,1.45,-0.39,1.45,-1.48,-1.44,-1.26,-1.87,-1.87,-1.84
441.55,-0.42,1.39,-0.38,1.43,-1.44,-1.41,-1.24,-1.86,-1.82,-1.81
445.96,-0.35,1.42,-0.32,1.45,-1.41,-1.38,-1.22,-1.76,-1.73,-1.77
450.42,-0.23,1.49,-0.28,1.44,-1.39,-1.35,-1.20,-1.61,-1.67,-1.72
454.93,-0.22,1.45,-0.28,1.40,-1.36,-1.32,-1.18,-1.58,-1.64,-1.67
459.48,-0.37,1.25,-0.29,1.32,-1.34,-1.29,-1.16,-1.71,-1.63,-1.62
464.07,-0.32,1.24,-0.31,1.25,-1.32,-1.27,-1.14,-1.63,-1.62,-1.55
468.71,-0.25,1.25,-0.27,1.23,-1.29,-1.24,-1.12,-1.54,-1.56,-1.49
473.40,-0.18,1.27,-0.18,1.26,-1.27,-1.21,-1.10,-1.45,-1.45,-1.45
478.13,-0.13,1.26,-0.13,1.26,-1.23,-1.18,-1.08,-1.36,-1.36,-1.39
482.91,-0.08,1.26,-0.10,1.24,-1.19,-1.15,-1.06,-1.27,-1.29,-1.34
487.74,-0.11,1.18,-0.10,1.19,-1.15,-1.12,-1.04,-1.25,-1.24,-1.29
492.62,-0.10,1.15,-0.10,1.15,-1.11,-1.10,-1.02,-1.20,-1.21,-1.25
497.55,-0.15,1.07,-0.14,1.07,-1.07,-1.07,-1.00,-1.22,-1.21,-1.22
502.52,-0.16,1.03,-0.20,0.99,-1.04,-1.04,-0.98,-1.20,-1.24,-1.19
507.55,-0.27,0.89,-0.25,0.91,-1.00,-1.01,-0.96,-1.27,-1.25,-1.16
