frequency,raw,error,smoothed,error_smoothed,equalization,parametric_eq,fixed_band_eq,equalized_raw,equalized_smoothed,target
20.00,7.42,0.26,7.42,0.26,-0.26,-0.54,-1.16,7.16,7.16,7.16
20.20,7.47,0.31,7.47,0.32,-0.32,-0.57,-1.19,7.15,7.16,7.16
20.40,7.53,0.38,7.53,0.38,-0.38,-0.60,-1.22,7.16,7.15,7.15
20.61,7.58,0.43,7.58,0.44,-0.43,-0.63,-1.26,7.15,7.15,7.15
20.81,7.63,0.49,7.63,0.49,-0.49,-0.66,-1.30,7.14,7.14,7.14
21.02,7.69,0.55,7.69,0.55,-0.55,-0.69,-1.34,7.14,7.13,7.14
21.23,7.73,0.60,7.74,0.61,-0.61,-0.72,-1.38,7.12,7.13,7.13
21.44,7.79,0.67,7.79,0.67,-0.67,-0.76,-1.42,7.12,7.12,7.13
21.66,7.84,0.72,7.84,0.72,-0.73,-0.79,-1.46,7.11,7.12,7.12
21.87,7.90,0.79,7.90,0.79,-0.79,-0.83,-1.50,7.12,7.11,7.12
22.09,7.95,0.85,7.95,0.84,-0.84,-0.87,-1.55,7.11,7.11,7.11
22.31,8.01,0.91,8.01,0.90,-0.90,-0.91,-1.59,7.11,7.11,7.11
22.54,8.06,0.96,8.06,0.96,-0.96,-0.95,-1.64,7.10,7.10,7.10
22.76,8.12,1.03,8.12,1.02,-1.02,-0.99,-1.69,7.10,7.10,7.09
22.99,8.17,1.08,8.17,1.08,-1.08,-1.03,-1.73,7.09,7.09,7.09
23.22,8.22,1.14,8.22,1.14,-1.14,-1.08,-1.78,7.09,7.09,7.08
23.45,8.27,1.19,8.27,1.19,-1.19,-1.12,-1.84,7.08,7.08,7.08
23.69,8.33,1.25,8.33,1.25,-1.25,-1.17,-1.89,7.08,7.08,7.08
23.92,8.38,1.31,8.38,1.31,-1.30,-1.22,-1.94,7.08,7.08,7.07
24.16,8.43,1.36,8.43,1.36,-1.36,-1.27,-2.00,7.07,7.07,7.07
24.40,8.48,1.41,8.48,1.41,-1.42,-1.32,-2.05,7.07,7.07,7.07
24.65,8.53,1.46,8.53,1.47,-1.47,-1.38,-2.11,7.06,7.06,7.07
24.89,8.59,1.53,8.59,1.53,-1.53,-1.43,-2.17,7.06,7.06,7.06
25.14,8.64,1.58,8.64,1.59,-1.58,-1.49,-2.23,7.06,7.06,7.06
25.39,8.70,1.65,8.70,1.64,-1.64,-1.54,-2.29,7.06,7.06,7.06
25.65,8.75,1.70,8.75,1.70,-1.70,-1.60,-2.35,7.05,7.06,7.06
25.91,8.81,1.76,8.81,1.75,-1.75,-1.66,-2.41,7.06,7.05,7.06
26.16,8.86,1.81,8.86,1.81,-1.81,-1.72,-2.47,7.05,7.05,7.05
26.43,8.92,1.87,8.92,1.87,-1.87,-1.79,-2.53,7.05,7.05,7.05
26.69,8.97,1.93,8.97,1.93,-1.93,-1.85,-2.59,7.04,7.05,7.04
26.96,9.03,1.99,9.03,1.99,-1.99,-1.92,-2.65,7.04,7.04,7.04
27.23,9.09,2.05,9.09,2.05,-2.05,-1.98,-2.71,7.04,7.04,7.04
27.50,9.14,2.10,9.15,2.11,-2.11,-2.05,-2.77,7.03,7.04,7.04
27.77,9.20,2.16,9.20,2.17,-2.17,-2.12,-2.83,7.03,7.03,7.04
28.05,9.26,2.23,9.26,2.23,-2.23,-2.19,-2.89,7.03,7.03,7.03
28.33,9.31,2.29,9.32,2.29,-2.29,-2.26,-2.94,7.02,7.03,7.03
28.62,9.38,2.36,9.38,2.36,-2.35,-2.34,-3.00,7.03,7.02,7.02
28.90,9.43,2.42,9.43,2.41,-2.42,-2.41,-3.05,7.02,7.02,7.01
29.19,9.49,2.48,9.49,2.48,-2.48,-2.49,-3.10,7.01,7.01,7.01
29.48,9.54,2.53,9.55,2.54,-2.54,-2.56,-3.15,7.00,7.01,7.01
29.78,9.61,2.61,9.60,2.60,-2.60,-2.64,-3.20,7.01,7.00,7.00
30.08,9.66,2.66,9.66,2.67,-2.66,-2.72,-3.25,7.00,7.00,7.00
30.38,9.72,2.73,9.72,2.73,-2.72,-2.80,-3.29,7.00,7.00,7.00
30.68,9.78,2.79,9.78,2.79,-2.79,-2.88,-3.33,7.00,6.99,6.99
30.99,9.84,2.85,9.84,2.85,-2.85,-2.96,-3.37,6.99,6.99,6.99
31.30,9.90,2.91,9.90,2.91,-2.91,-3.04,-3.40,6.99,6.99,6.99
31.61,9.97,2.97,9.97,2.97,-2.98,-3.13,-3.43,7.00,6.99,7.00
31.93,10.03,3.03,10.03,3.04,-3.04,-3.21,-3.46,6.99,6.99,7.00
32.24,10.10,3.11,10.10,3.11,-3.11,-3.29,-3.49,6.99,6.99,6.99
32.57,10.17,3.18,10.17,3.18,-3.18,-3.38,-3.51,6.99,7.00,6.99
32.89,10.24,3.25,10.24,3.25,-3.25,-3.46,-3.53,6.99,6.99,6.99
33.22,10.31,3.32,10.31,3.32,-3.32,-3.55,-3.55,6.99,6.99,6.99
33.55,10.37,3.39,10.38,3.39,-3.40,-3.64,-3.57,6.98,6.98,6.98
33.89,10.45,3.47,10.45,3.47,-3.47,-3.72,-3.59,6.98,6.97,6.98
34.23,10.52,3.55,10.52,3.55,-3.55,-3.81,-3.60,6.97,6.97,6.97
34.57,10.60,3.64,10.60,3.64,-3.64,-3.90,-3.61,6.97,6.97,6.97
34.92,10.68,3.73,10.68,3.73,-3.72,-3.99,-3.63,6.96,6.96,6.95
35.27,10.75,3.81,10.75,3.81,-3.81,-4.07,-3.64,6.94,6.94,6.94
35.62,10.83,3.90,10.83,3.90,-3.90,-4.16,-3.65,6.93,6.93,6.93
35.97,10.90,3.98,10.91,3.99,-3.99,-4.25,-3.66,6.91,6.92,6.92
36.33,10.99,4.08,10.99,4.08,-4.09,-4.34,-3.67,6.91,6.90,6.91
36.70,11.07,4.18,11.07,4.18,-4.18,-4.42,-3.68,6.89,6.89,6.89
37.06,11.15,4.28,11.16,4.28,-4.28,-4.51,-3.69,6.87,6.88,6.87
37.43,11.24,4.38,11.24,4.38,-4.38,-4.60,-3.71,6.86,6.86,6.86
37.81,11.33,4.49,11.33,4.48,-4.48,-4.68,-3.72,6.85,6.85,6.85
38.19,11.41,4.58,11.42,4.58,-4.58,-4.77,-3.74,6.83,6.83,6.83
38.57,11.51,4.68,11.51,4.69,-4.69,-4.85,-3.75,6.83,6.82,6.83
38.95,11.60,4.79,11.60,4.79,-4.79,-4.94,-3.77,6.82,6.81,6.81
39.34,11.69,4.89,11.69,4.89,-4.89,-5.02,-3.79,6.80,6.80,6.80
39.74,11.78,4.99,11.78,4.99,-4.99,-5.10,-3.82,6.79,6.79,6.79
40.14,11.87,5.09,11.87,5.09,-5.09,-5.19,-3.84,6.78,6.78,6.78
40.54,11.96,5.19,11.96,5.19,-5.19,-5.27,-3.87,6.77,6.77,6.77
40.94,12.06,5.29,12.06,5.30,-5.30,-5.35,-3.90,6.77,6.77,6.77
41.35,12.16,5.40,12.16,5.40,-5.40,-5.42,-3.93,6.77,6.76,6.76
41.76,12.25,5.50,12.25,5.50,-5.50,-5.50,-3.97,6.76,6.76,6.76
42.18,12.34,5.59,12.34,5.59,-5.59,-5.57,-4.01,6.75,6.75,6.75
42.60,12.43,5.69,12.43,5.69,-5.69,-5.65,-4.05,6.74,6.74,6.74
43.03,12.52,5.78,12.52,5.79,-5.79,-5.72,-4.10,6.74,6.74,6.74
43.46,12.61,5.88,12.61,5.88,-5.88,-5.79,-4.14,6.73,6.73,6.73
43.90,12.70,5.98,12.70,5.97,-5.97,-5.86,-4.20,6.73,6.73,6.72
44.33,12.77,6.05,12.77,6.05,-6.05,-5.92,-4.25,6.72,6.72,6.73
44.78,12.85,6.13,12.85,6.13,-6.14,-5.99,-4.31,6.72,6.71,6.72
45.23,12.92,6.21,12.93,6.21,-6.22,-6.05,-4.37,6.70,6.71,6.71
45.68,13.00,6.29,13.00,6.29,-6.29,-6.10,-4.43,6.71,6.71,6.71
46.13,13.07,6.37,13.07,6.36,-6.36,-6.16,-4.50,6.71,6.70,6.70
46.60,13.12,6.43,13.13,6.43,-6.43,-6.21,-4.57,6.69,6.70,6.69
47.06,13.18,6.50,13.18,6.49,-6.49,-6.26,-4.65,6.69,6.69,6.69
47.53,13.22,6.55,13.22,6.55,-6.55,-6.31,-4.72,6.67,6.68,6.68
48.01,13.26,6.60,13.26,6.60,-6.60,-6.35,-4.80,6.66,6.67,6.67
48.49,13.29,6.65,13.29,6.64,-6.64,-6.39,-4.88,6.65,6.65,6.65
48.97,13.31,6.68,13.31,6.68,-6.67,-6.43,-4.97,6.64,6.64,6.64
49.46,13.32,6.70,13.32,6.70,-6.70,-6.46,-5.05,6.62,6.62,6.62
49.96,13.33,6.73,13.33,6.72,-6.72,-6.49,-5.14,6.61,6.61,6.60
50.46,13.32,6.73,13.32,6.73,-6.74,-6.52,-5.23,6.59,6.59,6.59
50.96,13.31,6.74,13.31,6.74,-6.74,-6.54,-5.33,6.57,6.57,6.57
51.47,13.29,6.74,13.29,6.74,-6.74,-6.55,-5.42,6.55,6.55,6.56
51.99,13.27,6.74,13.27,6.73,-6.73,-6.57,-5.51,6.54,6.54,6.53
52.51,13.24,6.72,13.24,6.72,-6.72,-6.58,-5.61,6.53,6.52,6.52
53.03,13.19,6.69,13.20,6.69,-6.69,-6.58,-5.70,6.50,6.51,6.51
53.56,13.14,6.66,13.14,6.66,-6.66,-6.58,-5.80,6.48,6.49,6.48
54.10,13.09,6.63,13.09,6.62,-6.62,-6.57,-5.89,6.48,6.47,6.47
54.64,13.02,6.57,13.02,6.57,-6.57,-6.56,-5.98,6.45,6.45,6.45
55.18,12.95,6.52,12.95,6.52,-6.52,-6.55,-6.07,6.43,6.44,6.43
55.74,12.88,6.45,12.88,6.45,-6.46,-6.52,-6.16,6.42,6.42,6.43
56.29,12.80,6.39,12.80,6.39,-6.40,-6.50,-6.24,6.40,6.41,6.41
56.86,12.72,6.33,12.72,6.33,-6.33,-6.47,-6.32,6.39,6.39,6.39
57.42,12.64,6.27,12.64,6.27,-6.27,-6.43,-6.39,6.38,6.37,6.37
58.00,12.55,6.20,12.55,6.20,-6.20,-6.39,-6.46,6.36,6.36,6.36
58.58,12.47,6.14,12.47,6.13,-6.13,-6.35,-6.52,6.34,6.34,6.34
59.16,12.37,6.06,12.37,6.06,-6.06,-6.29,-6.57,6.31,6.32,6.32
59.76,12.28,5.99,12.28,5.99,-5.99,-6.24,-6.62,6.29,6.29,6.29
60.35,12.18,5.91,12.18,5.91,-5.92,-6.18,-6.66,6.26,6.27,6.27
60.96,12.09,5.85,12.09,5.85,-5.85,-6.11,-6.69,6.24,6.24,6.24
61.57,12.00,5.78,12.00,5.78,-5.78,-6.04,-6.71,6.22,6.22,6.22
62.18,11.90,5.71,11.90,5.71,-5.72,-5.97,-6.72,6.19,6.19,6.19
62.80,11.81,5.65,11.81,5.65,-5.65,-5.89,-6.73,6.16,6.16,6.16
63.43,11.72,5.59,11.72,5.59,-5.59,-5.81,-6.72,6.13,6.13,6.14
64.07,11.63,5.53,11.63,5.53,-5.52,-5.73,-6.70,6.11,6.11,6.10
64.71,11.54,5.47,11.54,5.47,-5.46,-5.64,-6.68,6.08,6.08,6.07
65.35,11.44,5.40,11.45,5.40,-5.40,-5.56,-6.65,6.04,6.05,6.05
66.01,11.36,5.34,11.36,5.34,-5.34,-5.47,-6.61,6.02,6.02,6.02
66.67,11.27,5.28,11.27,5.28,-5.28,-5.38,-6.56,5.99,5.99,5.99
67.33,11.18,5.22,11.19,5.23,-5.23,-5.29,-6.51,5.95,5.96,5.96
68.01,11.10,5.17,11.10,5.17,-5.17,-5.20,-6.45,5.93,5.93,5.93
68.69,11.02,5.12,11.02,5.12,-5.12,-5.11,-6.38,5.90,5.89,5.90
69.37,10.93,5.07,10.94,5.07,-5.07,-5.03,-6.31,5.86,5.86,5.86
70.07,10.85,5.02,10.86,5.03,-5.03,-4.95,-6.24,5.83,5.83,5.83
70.77,10.78,4.98,10.78,4.98,-4.98,-4.87,-6.16,5.80,5.79,5.80
71.48,10.70,4.95,10.70,4.94,-4.94,-4.80,-6.08,5.76,5.76,5.75
72.19,10.61,4.89,10.62,4.90,-4.90,-4.74,-5.99,5.72,5.72,5.72
72.91,10.54,4.86,10.54,4.86,-4.86,-4.67,-5.91,5.68,5.68,5.68
73.64,10.46,4.82,10.46,4.82,-4.82,-4.62,-5.82,5.64,5.64,5.64
74.38,10.39,4.78,10.39,4.78,-4.78,-4.57,-5.73,5.61,5.61,5.62
75.12,10.32,4.74,10.32,4.74,-4.75,-4.53,-5.65,5.57,5.57,5.58
75.87,10.25,4.71,10.25,4.71,-4.71,-4.50,-5.56,5.54,5.54,5.54
76.63,10.18,4.69,10.18,4.69,-4.68,-4.47,-5.47,5.50,5.50,5.50
77.40,10.11,4.66,10.11,4.66,-4.65,-4.44,-5.39,5.46,5.46,5.45
78.17,10.04,4.63,10.04,4.63,-4.63,-4.43,-5.31,5.41,5.41,5.41
78.95,9.96,4.59,9.97,4.60,-4.60,-4.42,-5.23,5.36,5.37,5.37
79.74,9.90,4.58,9.90,4.57,-4.57,-4.41,-5.15,5.33,5.32,5.32
80.54,9.83,4.55,9.83,4.55,-4.55,-4.41,-5.07,5.28,5.28,5.28
81.35,9.77,4.53,9.77,4.53,-4.53,-4.41,-5.00,5.25,5.24,5.24
82.16,9.70,4.50,9.70,4.50,-4.50,-4.42,-4.93,5.20,5.20,5.20
82.98,9.63,4.48,9.64,4.48,-4.48,-4.43,-4.86,5.15,5.16,5.15
83.81,9.57,4.46,9.57,4.46,-4.46,-4.44,-4.80,5.11,5.11,5.11
84.65,9.51,4.45,9.51,4.44,-4.44,-4.45,-4.74,5.07,5.06,5.06
85.50,9.43,4.42,9.44,4.42,-4.42,-4.46,-4.68,5.01,5.02,5.01
86.35,9.38,4.41,9.38,4.41,-4.41,-4.47,-4.63,4.97,4.97,4.97
87.22,9.31,4.39,9.31,4.39,-4.39,-4.49,-4.58,4.92,4.92,4.92
88.09,9.25,4.38,9.25,4.38,-4.37,-4.50,-4.53,4.88,4.88,4.87
88.97,9.18,4.35,9.19,4.36,-4.36,-4.51,-4.49,4.82,4.83,4.83
89.86,9.13,4.35,9.13,4.35,-4.35,-4.52,-4.45,4.79,4.78,4.78
90.76,9.06,4.33,9.06,4.33,-4.33,-4.53,-4.41,4.73,4.73,4.73
91.66,9.00,4.32,9.00,4.32,-4.32,-4.53,-4.38,4.68,4.68,4.68
92.58,8.93,4.31,8.93,4.30,-4.31,-4.53,-4.35,4.62,4.63,4.62
93.51,8.87,4.29,8.87,4.30,-4.30,-4.54,-4.32,4.58,4.58,4.58
94.44,8.81,4.29,8.81,4.29,-4.29,-4.53,-4.30,4.52,4.52,4.52
95.39,8.75,4.28,8.75,4.28,-4.28,-4.53,-4.27,4.47,4.47,4.47
96.34,8.68,4.27,8.68,4.27,-4.27,-4.52,-4.26,4.41,4.41,4.41
97.30,8.61,4.26,8.62,4.26,-4.26,-4.52,-4.24,4.35,4.35,4.36
98.28,8.56,4.26,8.55,4.26,-4.26,-4.51,-4.23,4.30,4.30,4.30
99.26,8.48,4.25,8.49,4.25,-4.25,-4.49,-4.22,4.23,4.24,4.23
100.25,8.43,4.26,8.42,4.25,-4.25,-4.48,-4.21,4.18,4.18,4.17
101.25,8.35,4.23,8.36,4.24,-4.24,-4.46,-4.21,4.11,4.11,4.12
102.27,8.29,4.24,8.29,4.24,-4.24,-4.44,-4.21,4.05,4.05,4.05
103.29,8.22,4.23,8.22,4.23,-4.23,-4.42,-4.20,3.99,3.99,3.99
104.32,8.15,4.23,8.15,4.23,-4.22,-4.39,-4.20,3.93,3.93,3.92
105.37,8.08,4.22,8.08,4.21,-4.21,-4.37,-4.20,3.87,3.87,3.87
106.42,8.01,4.20,8.01,4.20,-4.21,-4.34,-4.21,3.81,3.81,3.81
107.48,7.94,4.19,7.94,4.19,-4.20,-4.31,-4.21,3.74,3.74,3.75
108.56,7.87,4.19,7.87,4.18,-4.19,-4.27,-4.21,3.68,3.68,3.68
109.64,7.80,4.18,7.80,4.18,-4.18,-4.24,-4.21,3.62,3.62,3.62
110.74,7.73,4.16,7.73,4.17,-4.17,-4.21,-4.21,3.56,3.56,3.57
111.85,7.66,4.16,7.66,4.16,-4.16,-4.17,-4.21,3.51,3.51,3.50
112.97,7.59,4.15,7.59,4.15,-4.15,-4.13,-4.21,3.45,3.44,3.44
114.10,7.52,4.14,7.52,4.14,-4.13,-4.09,-4.21,3.39,3.38,3.38
115.24,7.43,4.11,7.44,4.12,-4.12,-4.05,-4.21,3.31,3.31,3.32
116.39,7.36,4.12,7.36,4.11,-4.11,-4.01,-4.20,3.25,3.25,3.24
117.55,7.28,4.10,7.28,4.10,-4.10,-3.97,-4.19,3.18,3.18,3.18
118.73,7.20,4.09,7.20,4.09,-4.09,-3.92,-4.18,3.11,3.11,3.11
119.92,7.12,4.08,7.12,4.08,-4.09,-3.88,-4.16,3.04,3.04,3.04
121.12,7.04,4.08,7.04,4.08,-4.08,-3.83,-4.14,2.96,2.96,2.97
122.33,6.96,4.07,6.96,4.07,-4.07,-3.79,-4.12,2.89,2.89,2.89
123.55,6.88,4.06,6.88,4.06,-4.06,-3.74,-4.09,2.82,2.82,2.82
124.79,6.80,4.06,6.80,4.05,-4.05,-3.69,-4.06,2.75,2.74,2.75
126.03,6.70,4.04,6.71,4.04,-4.04,-3.64,-4.02,2.66,2.67,2.66
127.29,6.62,4.03,6.62,4.03,-4.02,-3.59,-3.98,2.60,2.59,2.59
128.57,6.53,4.01,6.53,4.01,-4.01,-3.54,-3.94,2.53,2.52,2.52
129.85,6.44,3.99,6.44,3.99,-3.98,-3.49,-3.89,2.46,2.46,2.45
131.15,6.35,3.96,6.35,3.96,-3.96,-3.44,-3.84,2.40,2.40,2.39
132.46,6.26,3.93,6.26,3.93,-3.93,-3.39,-3.79,2.34,2.34,2.34
133.79,6.17,3.89,6.17,3.89,-3.89,-3.34,-3.73,2.28,2.28,2.28
135.12,6.07,3.85,6.08,3.85,-3.85,-3.29,-3.67,2.22,2.22,2.22
136.48,5.98,3.81,5.98,3.81,-3.81,-3.24,-3.60,2.17,2.17,2.18
137.84,5.89,3.77,5.89,3.76,-3.76,-3.19,-3.53,2.13,2.12,2.12
139.22,5.79,3.71,5.79,3.72,-3.72,-3.14,-3.46,2.08,2.08,2.08
140.61,5.69,3.66,5.70,3.66,-3.66,-3.08,-3.39,2.03,2.03,2.03
142.02,5.60,3.61,5.60,3.61,-3.61,-3.03,-3.32,1.99,1.99,1.99
143.44,5.50,3.55,5.50,3.55,-3.55,-2.98,-3.24,1.95,1.95,1.95
144.87,5.39,3.48,5.40,3.49,-3.49,-2.93,-3.16,1.90,1.91,1.91
146.32,5.30,3.43,5.30,3.43,-3.43,-2.87,-3.09,1.87,1.87,1.87
147.78,5.20,3.36,5.20,3.36,-3.36,-2.82,-3.01,1.84,1.83,1.84
149.26,5.09,3.29,5.09,3.29,-3.30,-2.77,-2.93,1.80,1.80,1.80
150.75,4.98,3.22,4.98,3.22,-3.23,-2.72,-2.85,1.75,1.76,1.76
152.26,4.88,3.16,4.88,3.15,-3.16,-2.67,-2.77,1.72,1.72,1.73
153.78,4.77,3.08,4.77,3.08,-3.08,-2.61,-2.69,1.69,1.69,1.69
155.32,4.67,3.02,4.67,3.01,-3.01,-2.56,-2.61,1.66,1.66,1.65
156.88,4.55,2.93,4.56,2.93,-2.93,-2.51,-2.53,1.62,1.63,1.62
158.44,4.44,2.85,4.44,2.85,-2.85,-2.46,-2.45,1.59,1.59,1.59
160.03,4.32,2.77,4.32,2.76,-2.76,-2.40,-2.38,1.56,1.55,1.56
161.63,4.19,2.67,4.20,2.67,-2.67,-2.35,-2.30,1.52,1.52,1.52
163.24,4.07,2.58,4.07,2.58,-2.58,-2.30,-2.22,1.49,1.49,1.49
164.88,3.95,2.49,3.95,2.48,-2.48,-2.25,-2.15,1.47,1.47,1.46
166.53,3.83,2.39,3.83,2.39,-2.38,-2.20,-2.08,1.45,1.44,1.44
168.19,3.69,2.28,3.70,2.28,-2.28,-2.15,-2.00,1.41,1.41,1.42
169.87,3.57,2.18,3.57,2.18,-2.18,-2.10,-1.93,1.39,1.39,1.39
171.57,3.44,2.07,3.44,2.08,-2.08,-2.04,-1.86,1.36,1.37,1.37
173.29,3.32,1.98,3.32,1.97,-1.97,-1.99,-1.80,1.35,1.35,1.34
175.02,3.19,1.87,3.19,1.87,-1.87,-1.94,-1.73,1.33,1.33,1.32
176.77,3.06,1.76,3.07,1.76,-1.76,-1.89,-1.66,1.30,1.31,1.31
178.54,2.94,1.66,2.94,1.66,-1.66,-1.84,-1.60,1.29,1.28,1.28
180.32,2.82,1.55,2.82,1.55,-1.55,-1.79,-1.53,1.27,1.26,1.27
182.13,2.69,1.45,2.70,1.45,-1.45,-1.74,-1.47,1.24,1.24,1.25
183.95,2.58,1.36,2.58,1.35,-1.36,-1.69,-1.41,1.22,1.22,1.22
185.79,2.47,1.26,2.47,1.26,-1.26,-1.64,-1.35,1.21,1.21,1.21
187.65,2.37,1.18,2.37,1.18,-1.18,-1.59,-1.29,1.19,1.19,1.19
189.52,2.27,1.10,2.27,1.10,-1.10,-1.54,-1.24,1.17,1.18,1.17
191.42,2.18,1.02,2.18,1.02,-1.02,-1.49,-1.18,1.16,1.16,1.16
193.33,2.10,0.96,2.10,0.96,-0.95,-1.44,-1.12,1.15,1.14,1.14
195.27,2.02,0.89,2.02,0.89,-0.89,-1.39,-1.07,1.13,1.13,1.13
197.22,1.95,0.84,1.95,0.84,-0.84,-1.34,-1.02,1.11,1.11,1.11
199.19,1.88,0.78,1.89,0.79,-0.79,-1.30,-0.97,1.09,1.10,1.10
201.18,1.83,0.74,1.83,0.75,-0.75,-1.25,-0.91,1.08,1.08,1.09
203.19,1.79,0.72,1.79,0.71,-0.71,-1.20,-0.86,1.08,1.07,1.07
205.23,1.74,0.69,1.74,0.69,-0.68,-1.15,-0.81,1.06,1.06,1.06
207.28,1.70,0.66,1.70,0.66,-0.66,-1.10,-0.77,1.04,1.04,1.04
209.35,1.66,0.63,1.67,0.64,-0.64,-1.05,-0.72,1.02,1.02,1.03
211.44,1.64,0.63,1.64,0.63,-0.63,-1.00,-0.67,1.01,1.01,1.01
213.56,1.62,0.62,1.62,0.62,-0.62,-0.96,-0.62,1.00,1.00,1.00
215.69,1.60,0.61,1.60,0.61,-0.61,-0.91,-0.58,0.99,0.99,0.99
217.85,1.58,0.61,1.58,0.61,-0.60,-0.86,-0.53,0.98,0.98,0.97
220.03,1.56,0.60,1.56,0.60,-0.60,-0.81,-0.49,0.96,0.96,0.96
222.23,1.54,0.59,1.54,0.59,-0.59,-0.76,-0.45,0.95,0.95,0.95
224.45,1.52,0.58,1.52,0.58,-0.58,-0.72,-0.40,0.94,0.94,0.94
226.70,1.50,0.57,1.50,0.57,-0.57,-0.67,-0.36,0.93,0.93,0.93
228.96,1.48,0.56,1.48,0.56,-0.56,-0.62,-0.32,0.92,0.92,0.92
231.25,1.46,0.55,1.46,0.55,-0.55,-0.57,-0.28,0.91,0.91,0.91
233.57,1.42,0.53,1.43,0.53,-0.53,-0.52,-0.24,0.89,0.89,0.89
235.90,1.39,0.51,1.39,0.51,-0.51,-0.48,-0.20,0.88,0.88,0.88
238.26,1.35,0.48,1.35,0.49,-0.48,-0.43,-0.16,0.87,0.87,0.87
240.64,1.31,0.46,1.31,0.46,-0.45,-0.38,-0.12,0.86,0.86,0.85
243.05,1.27,0.43,1.26,0.42,-0.42,-0.33,-0.08,0.86,0.85,0.84
245.48,1.21,0.37,1.21,0.37,-0.37,-0.28,-0.05,0.84,0.84,0.84
247.93,1.14,0.31,1.15,0.32,-0.32,-0.24,-0.01,0.82,0.83,0.83
250.41,1.09,0.27,1.08,0.26,-0.27,-0.19,0.03,0.82,0.82,0.82
252.92,1.01,0.21,1.01,0.20,-0.21,-0.14,0.07,0.81,0.81,0.80
255.45,0.93,0.13,0.94,0.14,-0.14,-0.09,0.10,0.79,0.80,0.80
258.00,0.85,0.06,0.85,0.07,-0.07,-0.04,0.14,0.78,0.79,0.79
260.58,0.77,-0.00,0.77,-0.01,0.01,0.01,0.18,0.78,0.78,0.77
263.19,0.68,-0.09,0.68,-0.09,0.09,0.06,0.21,0.77,0.77,0.77
265.82,0.58,-0.17,0.58,-0.17,0.18,0.10,0.25,0.76,0.76,0.75
268.48,0.48,-0.27,0.48,-0.26,0.27,0.15,0.28,0.75,0.75,0.75
271.16,0.38,-0.35,0.38,-0.35,0.36,0.20,0.32,0.74,0.74,0.73
273.87,0.27,-0.45,0.27,-0.45,0.45,0.25,0.36,0.72,0.72,0.73
276.61,0.17,-0.54,0.17,-0.55,0.54,0.30,0.39,0.72,0.71,0.71
279.38,0.06,-0.64,0.06,-0.64,0.64,0.35,0.43,0.70,0.70,0.71
282.17,-0.04,-0.73,-0.04,-0.73,0.73,0.40,0.47,0.69,0.69,0.69
284.99,-0.14,-0.82,-0.14,-0.82,0.81,0.45,0.50,0.67,0.67,0.68
287.84,-0.24,-0.90,-0.23,-0.90,0.89,0.50,0.54,0.66,0.66,0.66
290.72,-0.32,-0.97,-0.32,-0.97,0.97,0.55,0.58,0.65,0.65,0.65
293.63,-0.40,-1.04,-0.40,-1.04,1.04,0.60,0.62,0.64,0.64,0.64
296.57,-0.48,-1.11,-0.48,-1.11,1.11,0.65,0.66,0.63,0.63,0.63
299.53,-0.55,-1.17,-0.55,-1.17,1.17,0.70,0.70,0.62,0.62,0.62
302.53,-0.62,-1.23,-0.61,-1.22,1.22,0.75,0.74,0.60,0.61,0.61
305.55,-0.67,-1.27,-0.67,-1.27,1.27,0.80,0.78,0.60,0.60,0.60
308.61,-0.72,-1.31,-0.72,-1.31,1.31,0.86,0.82,0.59,0.59,0.60
311.69,-0.76,-1.35,-0.76,-1.35,1.35,0.91,0.86,0.59,0.59,0.59
314.81,-0.79,-1.37,-0.79,-1.38,1.38,0.96,0.90,0.59,0.58,0.58
317.96,-0.83,-1.41,-0.82,-1.40,1.40,1.01,0.95,0.57,0.58,0.58
321.14,-0.85,-1.42,-0.85,-1.42,1.42,1.06,0.99,0.57,0.57,0.57
324.35,-0.88,-1.44,-0.88,-1.44,1.44,1.12,1.04,0.56,0.56,0.56
327.59,-0.91,-1.47,-0.90,-1.46,1.46,1.17,1.08,0.55,0.56,0.56
330.87,-0.93,-1.47,-0.93,-1.48,1.48,1.22,1.13,0.55,0.55,0.55
334.18,-0.95,-1.49,-0.95,-1.50,1.50,1.27,1.18,0.55,0.55,0.54
337.52,-0.99,-1.53,-0.98,-1.52,1.52,1.33,1.23,0.53,0.54,0.54
340.90,-1.01,-1.54,-1.01,-1.55,1.54,1.38,1.28,0.54,0.53,0.53
344.30,-1.05,-1.58,-1.05,-1.57,1.57,1.43,1.33,0.52,0.52,0.53
347.75,-1.09,-1.60,-1.08,-1.60,1.60,1.48,1.39,0.51,0.52,0.52
351.23,-1.12,-1.62,-1.13,-1.63,1.63,1.54,1.44,0.51,0.51,0.50
354.74,-1.17,-1.66,-1.17,-1.66,1.67,1.59,1.50,0.50,0.50,0.49
358.28,-1.23,-1.72,-1.22,-1.71,1.71,1.64,1.55,0.48,0.49,0.49
361.87,-1.27,-1.75,-1.28,-1.75,1.75,1.70,1.61,0.48,0.48,0.48
365.49,-1.34,-1.80,-1.34,-1.80,1.80,1.75,1.67,0.46,0.47,0.47
369.14,-1.40,-1.85,-1.40,-1.85,1.85,1.80,1.73,0.45,0.45,0.45
372.83,-1.47,-1.91,-1.47,-1.91,1.91,1.85,1.79,0.44,0.44,0.44
376.56,-1.54,-1.97,-1.54,-1.97,1.97,1.91,1.86,0.43,0.43,0.43
380.33,-1.61,-2.03,-1.61,-2.03,2.03,1.96,1.92,0.42,0.42,0.42
384.13,-1.69,-2.10,-1.69,-2.10,2.10,2.01,1.99,0.41,0.41,0.41
387.97,-1.77,-2.17,-1.77,-2.17,2.17,2.06,2.05,0.40,0.40,0.40
391.85,-1.86,-2.24,-1.85,-2.24,2.24,2.11,2.12,0.38,0.39,0.39
395.77,-1.94,-2.31,-1.94,-2.31,2.31,2.16,2.19,0.38,0.38,0.37
399.73,-2.02,-2.38,-2.02,-2.39,2.39,2.21,2.25,0.37,0.37,0.36
403.72,-2.11,-2.47,-2.11,-2.46,2.46,2.26,2.32,0.36,0.36,0.36
407.76,-2.19,-2.54,-2.19,-2.54,2.54,2.31,2.39,0.35,0.35,0.35
411.84,-2.27,-2.61,-2.27,-2.61,2.61,2.36,2.46,0.34,0.34,0.34
415.96,-2.35,-2.68,-2.35,-2.68,2.68,2.41,2.53,0.33,0.33,0.33
420.12,-2.43,-2.75,-2.43,-2.74,2.74,2.46,2.59,0.32,0.32,0.32
424.32,-2.50,-2.81,-2.50,-2.81,2.81,2.50,2.66,0.31,0.31,0.31
428.56,-2.57,-2.87,-2.57,-2.86,2.86,2.55,2.73,0.30,0.30,0.30
432.85,-2.63,-2.91,-2.63,-2.92,2.92,2.59,2.79,0.29,0.29,0.29
437.18,-2.70,-2.97,-2.69,-2.97,2.97,2.64,2.86,0.27,0.27,0.27
441.55,-2.75,-3.01,-2.75,-3.01,3.01,2.68,2.92,0.26,0.26,0.26
445.96,-2.81,-3.05,-2.80,-3.05,3.05,2.72,2.98,0.24,0.25,0.24
450.42,-2.85,-3.08,-2.85,-3.09,3.09,2.76,3.04,0.24,0.23,0.23
454.93,-2.90,-3.12,-2.90,-3.11,3.11,2.80,3.09,0.21,0.22,0.22
459.48,-2.94,-3.14,-2.93,-3.14,3.14,2.84,3.14,0.20,0.20,0.20
464.07,-2.96,-3.15,-2.96,-3.16,3.15,2.87,3.19,0.19,0.19,0.19
468.71,-2.99,-3.17,-2.98,-3.16,3.16,2.91,3.24,0.17,0.18,0.18
473.40,-3.00,-3.17,-3.00,-3.17,3.17,2.94,3.28,0.17,0.17,0.17
478.13,-3.02,-3.17,-3.02,-3.17,3.17,2.97,3.31,0.15,0.15,0.15
482.91,-3.03,-3.17,-3.03,-3.17,3.17,3.00,3.35,0.14,0.14,0.14
487.74,-3.03,-3.16,-3.03,-3.16,3.16,3.03,3.37,0.13,0.13,0.13
492.62,-3.04,-3.16,-3.03,-3.15,3.15,3.06,3.40,0.11,0.12,0.12
497.55,-3.03,-3.14,-3.03,-3.14,3.14,3.08,3.41,0.11,0.10,0.11
502.52,-3.03,-3.12,-3.03,-3.12,3.12,3.10,3.43,0.09,0.09,0.10
507.55,-3.03,-3.10,-3.02,-3.10,3.11,3.13,3.43,0.08,0.08,0.08
512.62,-3.02,-3.08,-3.02,-3.09,3.09,3.14,3.44,0.07,0.07,0.07
517.75,-3.01,-3.06,-3.01,-3.07,3.07,3.16,3.44,0.06,0.05,0.06
522.93,-3.01,-3.05,-3.00,-3.05,3.05,3.18,3.43,0.04,0.04,0.04
528.16,-2.99,-3.02,-2.99,-3.03,3.02,3.19,3.42,0.04,0.03,0.03
