frequency,raw,error,smoothed,error_smoothed,equalization,parametric_eq,fixed_band_eq,equalized_raw,equalized_smoothed,target
20.00,-6.24,-6.14,-6.24,-6.13,6.03,3.59,1.94,-0.21,-0.21,-0.11
20.20,-6.21,-6.08,-6.22,-6.09,6.01,3.59,2.00,-0.20,-0.21,-0.14
20.40,-6.19,-6.04,-6.19,-6.04,5.98,3.59,2.06,-0.21,-0.21,-0.16
20.61,-6.16,-5.99,-6.16,-5.99,5.95,3.59,2.12,-0.21,-0.21,-0.18
20.81,-6.13,-5.94,-6.13,-5.94,5.91,3.59,2.18,-0.22,-0.22,-0.20
21.02,-6.09,-5.88,-6.10,-5.88,5.87,3.59,2.24,-0.22,-0.22,-0.22
21.23,-6.06,-5.83,-6.06,-5.82,5.83,3.58,2.31,-0.24,-0.23,-0.24
21.44,-6.02,-5.77,-6.02,-5.77,5.78,3.58,2.38,-0.24,-0.24,-0.26
21.66,-5.98,-5.71,-5.98,-5.71,5.72,3.58,2.44,-0.26,-0.27,-0.28
21.87,-5.94,-5.66,-5.94,-5.65,5.66,3.58,2.52,-0.29,-0.29,-0.29
22.09,-5.90,-5.60,-5.90,-5.60,5.59,3.58,2.59,-0.31,-0.31,-0.31
22.31,-5.85,-5.54,-5.85,-5.54,5.53,3.58,2.67,-0.32,-0.32,-0.32
22.54,-5.80,-5.48,-5.80,-5.47,5.47,3.58,2.74,-0.33,-0.33,-0.33
22.76,-5.74,-5.41,-5.74,-5.41,5.41,3.57,2.82,-0.34,-0.34,-0.34
22.99,-5.68,-5.34,-5.69,-5.34,5.35,3.57,2.90,-0.34,-0.34,-0.35
23.22,-5.63,-5.28,-5.63,-5.28,5.28,3.57,2.99,-0.35,-0.35,-0.36
23.45,-5.58,-5.22,-5.58,-5.22,5.22,3.57,3.07,-0.36,-0.36,-0.37
23.69,-5.53,-5.16,-5.53,-5.16,5.16,3.57,3.16,-0.37,-0.37,-0.38
23.92,-5.48,-5.11,-5.48,-5.10,5.10,3.57,3.25,-0.38,-0.39,-0.38
24.16,-5.43,-5.05,-5.43,-5.05,5.04,3.56,3.34,-0.40,-0.40,-0.39
24.40,-5.37,-4.99,-5.37,-4.98,4.97,3.56,3.43,-0.40,-0.40,-0.39
24.65,-5.31,-4.92,-5.31,-4.92,4.91,3.56,3.52,-0.40,-0.40,-0.40
24.89,-5.24,-4.85,-5.25,-4.85,4.86,3.56,3.62,-0.39,-0.39,-0.40
25.14,-5.19,-4.79,-5.19,-4.79,4.80,3.56,3.71,-0.39,-0.39,-0.41
25.39,-5.14,-4.73,-5.14,-4.73,4.74,3.55,3.81,-0.40,-0.40,-0.42
25.65,-5.10,-4.69,-5.11,-4.69,4.69,3.55,3.90,-0.41,-0.42,-0.42
25.91,-5.07,-4.65,-5.07,-4.65,4.64,3.55,4.00,-0.43,-0.43,-0.43
26.16,-5.03,-4.61,-5.03,-4.60,4.59,3.55,4.09,-0.44,-0.44,-0.43
26.43,-4.98,-4.56,-4.99,-4.56,4.55,3.54,4.19,-0.43,-0.43,-0.43
26.69,-4.94,-4.51,-4.94,-4.51,4.51,3.54,4.28,-0.43,-0.43,-0.44
26.96,-4.90,-4.47,-4.90,-4.47,4.48,3.54,4.37,-0.43,-0.43,-0.44
27.23,-4.87,-4.43,-4.87,-4.43,4.44,3.54,4.46,-0.43,-0.43,-0.45
27.50,-4.84,-4.40,-4.85,-4.40,4.40,3.53,4.55,-0.44,-0.44,-0.45
27.77,-4.82,-4.38,-4.82,-4.37,4.37,3.53,4.63,-0.46,-0.45,-0.45
28.05,-4.79,-4.34,-4.79,-4.34,4.33,3.53,4.71,-0.46,-0.46,-0.46
28.33,-4.75,-4.30,-4.76,-4.30,4.30,3.52,4.79,-0.46,-0.46,-0.46
28.62,-4.72,-4.27,-4.72,-4.26,4.26,3.52,4.86,-0.47,-0.46,-0.46
28.90,-4.68,-4.22,-4.68,-4.22,4.22,3.52,4.93,-0.47,-0.47,-0.47
29.19,-4.64,-4.18,-4.64,-4.18,4.17,3.51,4.99,-0.47,-0.47,-0.47
29.48,-4.59,-4.13,-4.59,-4.13,4.12,3.51,5.04,-0.47,-0.47,-0.47
29.78,-4.54,-4.08,-4.54,-4.08,4.07,3.50,5.09,-0.47,-0.47,-0.47
30.08,-4.49,-4.03,-4.49,-4.02,4.03,3.50,5.13,-0.47,-0.46,-0.47
30.38,-4.44,-3.97,-4.45,-3.97,3.98,3.50,5.16,-0.46,-0.46,-0.48
30.68,-4.40,-3.93,-4.41,-3.93,3.94,3.49,5.18,-0.46,-0.46,-0.48
30.99,-4.37,-3.90,-4.37,-3.89,3.90,3.49,5.20,-0.47,-0.47,-0.48
31.30,-4.34,-3.87,-4.34,-3.86,3.87,3.48,5.21,-0.48,-0.48,-0.48
31.61,-4.31,-3.83,-4.32,-3.84,3.83,3.48,5.21,-0.48,-0.49,-0.49
31.93,-4.29,-3.81,-4.29,-3.80,3.79,3.47,5.20,-0.50,-0.50,-0.49
32.24,-4.26,-3.78,-4.26,-3.77,3.76,3.47,5.19,-0.50,-0.50,-0.49
32.57,-4.22,-3.73,-4.22,-3.73,3.73,3.46,5.16,-0.50,-0.50,-0.50
32.89,-4.18,-3.69,-4.19,-3.69,3.69,3.46,5.13,-0.49,-0.49,-0.50
33.22,-4.15,-3.66,-4.15,-3.65,3.66,3.45,5.09,-0.50,-0.49,-0.50
33.55,-4.11,-3.61,-4.12,-3.62,3.62,3.44,5.05,-0.49,-0.50,-0.51
33.89,-4.09,-3.59,-4.09,-3.58,3.59,3.44,5.00,-0.51,-0.50,-0.51
34.23,-4.06,-3.56,-4.06,-3.55,3.55,3.43,4.94,-0.51,-0.51,-0.51
34.57,-4.04,-3.53,-4.04,-3.53,3.53,3.42,4.88,-0.52,-0.52,-0.52
34.92,-4.01,-3.50,-4.02,-3.50,3.50,3.42,4.82,-0.51,-0.52,-0.52
35.27,-3.99,-3.48,-3.99,-3.47,3.48,3.41,4.75,-0.52,-0.52,-0.52
35.62,-3.97,-3.45,-3.97,-3.45,3.45,3.40,4.67,-0.52,-0.52,-0.53
35.97,-3.95,-3.43,-3.96,-3.43,3.43,3.39,4.60,-0.52,-0.52,-0.53
36.33,-3.94,-3.42,-3.94,-3.41,3.42,3.38,4.52,-0.53,-0.52,-0.53
36.70,-3.92,-3.40,-3.92,-3.40,3.40,3.37,4.44,-0.53,-0.53,-0.53
37.06,-3.91,-3.39,-3.91,-3.38,3.38,3.36,4.36,-0.53,-0.53,-0.53
37.43,-3.89,-3.36,-3.90,-3.36,3.36,3.36,4.28,-0.53,-0.53,-0.54
37.81,-3.88,-3.35,-3.88,-3.34,3.34,3.35,4.20,-0.54,-0.54,-0.54
38.19,-3.86,-3.33,-3.86,-3.32,3.32,3.33,4.11,-0.54,-0.54,-0.54
38.57,-3.84,-3.30,-3.84,-3.30,3.30,3.32,4.03,-0.55,-0.55,-0.55
38.95,-3.82,-3.28,-3.82,-3.27,3.27,3.31,3.95,-0.55,-0.55,-0.55
39.34,-3.79,-3.24,-3.79,-3.24,3.24,3.30,3.87,-0.55,-0.55,-0.56
39.74,-3.76,-3.21,-3.77,-3.21,3.21,3.29,3.79,-0.55,-0.55,-0.56
40.14,-3.74,-3.18,-3.74,-3.18,3.18,3.28,3.71,-0.56,-0.56,-0.57
40.54,-3.71,-3.15,-3.72,-3.15,3.15,3.26,3.64,-0.56,-0.57,-0.57
40.94,-3.69,-3.13,-3.69,-3.12,3.12,3.25,3.56,-0.57,-0.57,-0.57
41.35,-3.66,-3.10,-3.66,-3.09,3.09,3.23,3.49,-0.58,-0.57,-0.57
41.76,-3.62,-3.06,-3.63,-3.06,3.06,3.22,3.42,-0.57,-0.57,-0.57
42.18,-3.59,-3.03,-3.59,-3.03,3.03,3.20,3.35,-0.57,-0.57,-0.57
42.60,-3.55,-2.99,-3.55,-2.99,3.00,3.19,3.29,-0.56,-0.56,-0.57
43.03,-3.52,-2.97,-3.52,-2.96,2.97,3.17,3.22,-0.56,-0.55,-0.56
43.46,-3.48,-2.93,-3.49,-2.93,2.94,3.15,3.16,-0.55,-0.55,-0.56
43.90,-3.46,-2.91,-3.46,-2.91,2.91,3.13,3.10,-0.56,-0.55,-0.56
44.33,-3.44,-2.89,-3.44,-2.88,2.88,3.12,3.04,-0.56,-0.56,-0.56
44.78,-3.41,-2.86,-3.42,-2.86,2.85,3.10,2.99,-0.56,-0.56,-0.56
45.23,-3.39,-2.84,-3.39,-2.83,2.83,3.08,2.94,-0.57,-0.56,-0.56
45.68,-3.35,-2.80,-3.36,-2.80,2.80,3.06,2.89,-0.55,-0.56,-0.56
46.13,-3.33,-2.78,-3.33,-2.78,2.78,3.03,2.84,-0.55,-0.55,-0.56
46.60,-3.30,-2.75,-3.31,-2.75,2.76,3.01,2.79,-0.55,-0.55,-0.56
47.06,-3.29,-2.74,-3.29,-2.73,2.74,2.99,2.75,-0.55,-0.55,-0.56
47.53,-3.28,-2.72,-3.28,-2.72,2.72,2.96,2.71,-0.56,-0.56,-0.57
48.01,-3.27,-2.71,-3.27,-2.71,2.71,2.94,2.67,-0.56,-0.56,-0.57
48.49,-3.26,-2.70,-3.26,-2.70,2.70,2.92,2.63,-0.57,-0.57,-0.57
48.97,-3.25,-2.69,-3.25,-2.69,2.68,2.89,2.60,-0.57,-0.57,-0.57
49.46,-3.24,-2.68,-3.24,-2.68,2.67,2.86,2.57,-0.57,-0.57,-0.57
49.96,-3.22,-2.66,-3.23,-2.66,2.66,2.84,2.53,-0.57,-0.57,-0.57
50.46,-3.21,-2.65,-3.21,-2.64,2.64,2.81,2.50,-0.58,-0.57,-0.57
50.96,-3.18,-2.62,-3.18,-2.62,2.62,2.78,2.48,-0.57,-0.57,-0.57
51.47,-3.15,-2.60,-3.16,-2.60,2.59,2.75,2.45,-0.56,-0.56,-0.56
51.99,-3.12,-2.57,-3.12,-2.57,2.57,2.73,2.43,-0.56,-0.56,-0.56
52.51,-3.09,-2.54,-3.09,-2.54,2.54,2.70,2.40,-0.56,-0.56,-0.56
53.03,-3.06,-2.51,-3.06,-2.51,2.51,2.67,2.38,-0.55,-0.56,-0.56
53.56,-3.03,-2.48,-3.03,-2.48,2.48,2.64,2.36,-0.55,-0.55,-0.56
54.10,-3.00,-2.46,-3.00,-2.45,2.45,2.61,2.34,-0.55,-0.55,-0.55
54.64,-2.97,-2.43,-2.98,-2.43,2.43,2.58,2.32,-0.54,-0.55,-0.55
55.18,-2.95,-2.41,-2.95,-2.41,2.41,2.56,2.31,-0.54,-0.54,-0.55
55.74,-2.93,-2.39,-2.93,-2.39,2.40,2.53,2.29,-0.54,-0.54,-0.55
56.29,-2.92,-2.39,-2.92,-2.38,2.39,2.50,2.27,-0.53,-0.53,-0.54
56.86,-2.91,-2.38,-2.91,-2.38,2.39,2.48,2.26,-0.53,-0.53,-0.54
57.42,-2.91,-2.38,-2.92,-2.38,2.39,2.45,2.24,-0.53,-0.53,-0.54
58.00,-2.92,-2.40,-2.92,-2.39,2.39,2.43,2.23,-0.53,-0.53,-0.53
58.58,-2.93,-2.41,-2.93,-2.41,2.40,2.41,2.22,-0.53,-0.53,-0.53
59.16,-2.94,-2.42,-2.94,-2.42,2.41,2.39,2.20,-0.53,-0.53,-0.53
59.76,-2.94,-2.43,-2.94,-2.42,2.42,2.37,2.19,-0.52,-0.52,-0.52
60.35,-2.94,-2.43,-2.95,-2.43,2.43,2.35,2.17,-0.51,-0.51,-0.52
60.96,-2.95,-2.44,-2.95,-2.44,2.44,2.34,2.16,-0.51,-0.51,-0.52
61.57,-2.96,-2.45,-2.96,-2.45,2.44,2.32,2.14,-0.52,-0.52,-0.52
62.18,-2.96,-2.45,-2.96,-2.45,2.44,2.31,2.13,-0.52,-0.52,-0.52
62.80,-2.96,-2.45,-2.96,-2.44,2.44,2.30,2.11,-0.53,-0.52,-0.52
63.43,-2.94,-2.43,-2.95,-2.43,2.43,2.29,2.10,-0.51,-0.52,-0.52
64.07,-2.93,-2.42,-2.93,-2.42,2.41,2.28,2.08,-0.52,-0.52,-0.52
64.71,-2.91,-2.40,-2.91,-2.39,2.39,2.28,2.07,-0.52,-0.52,-0.52
65.35,-2.88,-2.37,-2.89,-2.37,2.37,2.27,2.05,-0.51,-0.52,-0.52
66.01,-2.86,-2.35,-2.86,-2.34,2.34,2.27,2.04,-0.52,-0.52,-0.52
66.67,-2.83,-2.32,-2.83,-2.31,2.31,2.26,2.02,-0.52,-0.52,-0.52
67.33,-2.79,-2.28,-2.80,-2.28,2.28,2.26,2.00,-0.51,-0.52,-0.52
68.01,-2.76,-2.25,-2.76,-2.25,2.25,2.26,1.99,-0.51,-0.51,-0.52
68.69,-2.73,-2.22,-2.73,-2.22,2.22,2.25,1.97,-0.51,-0.51,-0.52
69.37,-2.70,-2.19,-2.70,-2.19,2.19,2.25,1.96,-0.51,-0.51,-0.52
70.07,-2.67,-2.16,-2.68,-2.16,2.16,2.25,1.94,-0.51,-0.51,-0.52
70.77,-2.65,-2.14,-2.65,-2.14,2.14,2.25,1.93,-0.51,-0.51,-0.52
71.48,-2.63,-2.13,-2.63,-2.12,2.12,2.24,1.91,-0.51,-0.51,-0.51
72.19,-2.61,-2.11,-2.62,-2.11,2.11,2.24,1.90,-0.50,-0.51,-0.51
72.91,-2.60,-2.10,-2.60,-2.10,2.10,2.23,1.88,-0.50,-0.50,-0.51
73.64,-2.59,-2.09,-2.60,-2.09,2.10,2.23,1.87,-0.49,-0.50,-0.51
74.38,-2.59,-2.10,-2.60,-2.10,2.10,2.22,1.86,-0.49,-0.49,-0.50
75.12,-2.60,-2.11,-2.60,-2.11,2.11,2.22,1.84,-0.50,-0.49,-0.50
75.87,-2.60,-2.12,-2.61,-2.12,2.11,2.21,1.83,-0.49,-0.49,-0.49
76.63,-2.61,-2.13,-2.61,-2.12,2.12,2.20,1.82,-0.49,-0.49,-0.49
77.40,-2.61,-2.13,-2.61,-2.13,2.13,2.19,1.81,-0.49,-0.49,-0.49
78.17,-2.61,-2.14,-2.61,-2.13,2.13,2.18,1.80,-0.48,-0.48,-0.48
78.95,-2.61,-2.14,-2.61,-2.14,2.14,2.17,1.80,-0.48,-0.48,-0.48
79.74,-2.61,-2.14,-2.61,-2.14,2.14,2.16,1.79,-0.47,-0.47,-0.48
80.54,-2.61,-2.15,-2.61,-2.14,2.14,2.15,1.79,-0.47,-0.47,-0.47
81.35,-2.61,-2.15,-2.61,-2.15,2.15,2.13,1.78,-0.47,-0.47,-0.47
82.16,-2.61,-2.15,-2.61,-2.15,2.15,2.12,1.78,-0.46,-0.46,-0.47
82.98,-2.61,-2.15,-2.61,-2.15,2.16,2.11,1.78,-0.46,-0.46,-0.47
83.81,-2.61,-2.15,-2.62,-2.15,2.16,2.10,1.78,-0.45,-0.45,-0.47
84.65,-2.62,-2.17,-2.62,-2.17,2.17,2.08,1.78,-0.45,-0.46,-0.46
85.50,-2.63,-2.18,-2.63,-2.18,2.17,2.07,1.78,-0.46,-0.46,-0.46
86.35,-2.64,-2.19,-2.64,-2.18,2.17,2.06,1.79,-0.47,-0.46,-0.46
87.22,-2.63,-2.18,-2.64,-2.18,2.17,2.05,1.79,-0.46,-0.46,-0.46
88.09,-2.62,-2.17,-2.63,-2.17,2.16,2.04,1.80,-0.46,-0.46,-0.46
88.97,-2.61,-2.16,-2.61,-2.15,2.15,2.03,1.81,-0.46,-0.46,-0.46
89.86,-2.59,-2.14,-2.59,-2.14,2.14,2.02,1.82,-0.46,-0.46,-0.46
90.76,-2.56,-2.11,-2.57,-2.11,2.11,2.02,1.83,-0.45,-0.46,-0.46
91.66,-2.54,-2.09,-2.54,-2.08,2.09,2.01,1.84,-0.46,-0.45,-0.46
92.58,-2.51,-2.06,-2.51,-2.06,2.06,2.01,1.85,-0.46,-0.46,-0.46
93.51,-2.48,-2.03,-2.48,-2.03,2.03,2.01,1.87,-0.46,-0.46,-0.46
94.44,-2.45,-2.00,-2.45,-1.99,1.99,2.01,1.88,-0.46,-0.46,-0.46
95.39,-2.41,-1.96,-2.42,-1.96,1.96,2.01,1.90,-0.45,-0.46,-0.46
96.34,-2.38,-1.93,-2.38,-1.93,1.92,2.01,1.92,-0.46,-0.46,-0.46
97.30,-2.35,-1.91,-2.35,-1.90,1.89,2.02,1.93,-0.46,-0.45,-0.45
98.28,-2.31,-1.87,-2.31,-1.87,1.87,2.02,1.95,-0.45,-0.45,-0.45
99.26,-2.28,-1.84,-2.29,-1.84,1.84,2.03,1.98,-0.44,-0.44,-0.45
100.25,-2.26,-1.82,-2.27,-1.82,1.83,2.03,2.00,-0.43,-0.43,-0.45
101.25,-2.26,-1.82,-2.26,-1.81,1.83,2.04,2.02,-0.44,-0.43,-0.45
102.27,-2.26,-1.82,-2.27,-1.82,1.83,2.05,2.04,-0.43,-0.43,-0.45
103.29,-2.28,-1.84,-2.28,-1.84,1.85,2.06,2.06,-0.43,-0.43,-0.45
104.32,-2.31,-1.88,-2.31,-1.87,1.87,2.06,2.09,-0.44,-0.44,-0.44
105.37,-2.34,-1.91,-2.35,-1.91,1.90,2.07,2.11,-0.44,-0.44,-0.44
106.42,-2.38,-1.95,-2.38,-1.95,1.94,2.08,2.14,-0.44,-0.44,-0.44
107.48,-2.41,-1.99,-2.41,-1.98,1.98,2.09,2.16,-0.44,-0.44,-0.43
108.56,-2.44,-2.02,-2.44,-2.02,2.01,2.09,2.18,-0.43,-0.43,-0.43
109.64,-2.47,-2.05,-2.47,-2.05,2.05,2.10,2.20,-0.43,-0.43,-0.43
110.74,-2.50,-2.08,-2.50,-2.08,2.08,2.11,2.23,-0.42,-0.42,-0.43
111.85,-2.53,-2.11,-2.53,-2.11,2.11,2.12,2.25,-0.42,-0.42,-0.43
112.97,-2.56,-2.15,-2.56,-2.14,2.14,2.12,2.27,-0.42,-0.42,-0.42
114.10,-2.58,-2.17,-2.58,-2.17,2.17,2.13,2.29,-0.42,-0.42,-0.42
115.24,-2.60,-2.19,-2.60,-2.19,2.19,2.13,2.30,-0.42,-0.42,-0.42
116.39,-2.62,-2.21,-2.62,-2.21,2.20,2.14,2.32,-0.42,-0.42,-0.42
117.55,-2.63,-2.23,-2.64,-2.23,2.22,2.14,2.33,-0.41,-0.42,-0.41
118.73,-2.64,-2.24,-2.64,-2.23,2.23,2.14,2.35,-0.41,-0.41,-0.41
119.92,-2.64,-2.24,-2.64,-2.24,2.24,2.14,2.35,-0.40,-0.40,-0.41
121.12,-2.63,-2.23,-2.64,-2.24,2.24,2.14,2.36,-0.39,-0.40,-0.41
122.33,-2.64,-2.25,-2.64,-2.24,2.25,2.14,2.37,-0.40,-0.39,-0.40
123.55,-2.64,-2.25,-2.64,-2.24,2.25,2.14,2.37,-0.40,-0.39,-0.40
124.79,-2.63,-2.25,-2.64,-2.25,2.24,2.13,2.37,-0.39,-0.39,-0.39
126.03,-2.62,-2.24,-2.62,-2.24,2.24,2.13,2.37,-0.39,-0.39,-0.39
127.29,-2.61,-2.24,-2.61,-2.23,2.23,2.12,2.37,-0.39,-0.39,-0.38
128.57,-2.59,-2.22,-2.59,-2.22,2.21,2.11,2.36,-0.38,-0.38,-0.38
129.85,-2.57,-2.20,-2.57,-2.20,2.19,2.10,2.35,-0.38,-0.38,-0.38
131.15,-2.54,-2.17,-2.54,-2.17,2.17,2.09,2.34,-0.37,-0.37,-0.38
132.46,-2.51,-2.15,-2.51,-2.14,2.15,2.07,2.33,-0.36,-0.36,-0.37
133.79,-2.48,-2.12,-2.48,-2.12,2.12,2.06,2.31,-0.36,-0.36,-0.37
135.12,-2.45,-2.09,-2.46,-2.09,2.10,2.04,2.30,-0.36,-0.36,-0.37
136.48,-2.43,-2.07,-2.43,-2.07,2.07,2.03,2.28,-0.36,-0.36,-0.37
137.84,-2.41,-2.05,-2.41,-2.04,2.04,2.01,2.26,-0.37,-0.37,-0.37
139.22,-2.38,-2.02,-2.38,-2.02,2.01,1.99,2.24,-0.37,-0.37,-0.37
140.61,-2.35,-1.99,-2.35,-1.99,1.98,1.97,2.21,-0.37,-0.37,-0.37
142.02,-2.31,-1.96,-2.32,-1.96,1.95,1.95,2.19,-0.36,-0.36,-0.36
143.44,-2.28,-1.93,-2.28,-1.92,1.93,1.93,2.17,-0.36,-0.36,-0.36
144.87,-2.24,-1.89,-2.25,-1.89,1.90,1.91,2.14,-0.35,-0.35,-0.36
146.32,-2.21,-1.87,-2.21,-1.86,1.87,1.88,2.12,-0.34,-0.34,-0.35
147.78,-2.18,-1.84,-2.18,-1.84,1.84,1.86,2.09,-0.34,-0.34,-0.35
149.26,-2.15,-1.81,-2.16,-1.82,1.82,1.84,2.07,-0.34,-0.34,-0.35
150.75,-2.13,-1.80,-2.13,-1.79,1.79,1.82,2.04,-0.34,-0.34,-0.34
152.26,-2.11,-1.78,-2.11,-1.77,1.77,1.80,2.02,-0.35,-0.34,-0.34
153.78,-2.08,-1.75,-2.08,-1.75,1.74,1.78,2.00,-0.34,-0.34,-0.34
155.32,-2.05,-1.73,-2.05,-1.73,1.72,1.75,1.97,-0.33,-0.34,-0.33
156.88,-2.02,-1.70,-2.02,-1.70,1.70,1.73,1.95,-0.33,-0.33,-0.33
158.44,-2.00,-1.68,-2.00,-1.67,1.68,1.72,1.93,-0.33,-0.32,-0.33
160.03,-1.97,-1.65,-1.98,-1.65,1.66,1.70,1.91,-0.32,-0.32,-0.33
161.63,-1.96,-1.64,-1.96,-1.64,1.64,1.68,1.89,-0.32,-0.31,-0.33
163.24,-1.94,-1.63,-1.95,-1.63,1.64,1.66,1.87,-0.31,-0.31,-0.32
164.88,-1.94,-1.63,-1.94,-1.63,1.63,1.65,1.85,-0.31,-0.31,-0.32
166.53,-1.94,-1.63,-1.95,-1.63,1.63,1.63,1.83,-0.31,-0.31,-0.32
168.19,-1.95,-1.64,-1.95,-1.64,1.64,1.62,1.82,-0.32,-0.32,-0.32
169.87,-1.96,-1.66,-1.96,-1.65,1.64,1.60,1.80,-0.32,-0.32,-0.31
171.57,-1.96,-1.66,-1.96,-1.66,1.65,1.59,1.79,-0.31,-0.31,-0.31
173.29,-1.96,-1.66,-1.96,-1.66,1.66,1.58,1.78,-0.31,-0.31,-0.31
175.02,-1.96,-1.66,-1.96,-1.66,1.66,1.57,1.77,-0.30,-0.30,-0.31
176.77,-1.96,-1.67,-1.96,-1.66,1.66,1.56,1.76,-0.30,-0.30,-0.30
178.54,-1.96,-1.67,-1.96,-1.67,1.66,1.55,1.75,-0.30,-0.30,-0.30
180.32,-1.96,-1.67,-1.96,-1.67,1.67,1.54,1.74,-0.30,-0.30,-0.30
182.13,-1.96,-1.67,-1.96,-1.67,1.67,1.53,1.74,-0.29,-0.29,-0.30
183.95,-1.96,-1.67,-1.96,-1.67,1.67,1.52,1.73,-0.29,-0.29,-0.30
185.79,-1.96,-1.67,-1.97,-1.67,1.68,1.52,1.73,-0.29,-0.29,-0.30
187.65,-1.97,-1.68,-1.97,-1.68,1.68,1.51,1.73,-0.29,-0.29,-0.30
189.52,-1.98,-1.69,-1.98,-1.68,1.68,1.51,1.73,-0.30,-0.30,-0.30
191.42,-1.98,-1.69,-1.99,-1.69,1.69,1.51,1.73,-0.30,-0.30,-0.30
193.33,-1.99,-1.70,-1.99,-1.69,1.69,1.50,1.73,-0.31,-0.30,-0.30
195.27,-1.98,-1.69,-1.99,-1.69,1.68,1.50,1.73,-0.30,-0.30,-0.30
197.22,-1.97,-1.68,-1.98,-1.68,1.68,1.50,1.74,-0.30,-0.30,-0.30
199.19,-1.96,-1.67,-1.96,-1.66,1.66,1.50,1.74,-0.30,-0.29,-0.30
201.18,-1.93,-1.65,-1.94,-1.65,1.65,1.50,1.75,-0.29,-0.29,-0.29
203.19,-1.91,-1.63,-1.91,-1.63,1.63,1.50,1.76,-0.29,-0.28,-0.29
205.23,-1.88,-1.61,-1.88,-1.60,1.60,1.50,1.76,-0.28,-0.28,-0.28
207.28,-1.85,-1.58,-1.85,-1.58,1.58,1.50,1.77,-0.28,-0.28,-0.28
209.35,-1.82,-1.55,-1.82,-1.55,1.55,1.50,1.78,-0.27,-0.27,-0.28
211.44,-1.79,-1.53,-1.79,-1.52,1.52,1.50,1.79,-0.27,-0.27,-0.27
213.56,-1.76,-1.50,-1.76,-1.49,1.50,1.50,1.80,-0.27,-0.27,-0.27
215.69,-1.73,-1.47,-1.73,-1.47,1.47,1.50,1.81,-0.27,-0.27,-0.27
217.85,-1.70,-1.44,-1.70,-1.44,1.44,1.51,1.82,-0.26,-0.26,-0.27
220.03,-1.68,-1.43,-1.68,-1.42,1.42,1.51,1.82,-0.26,-0.26,-0.26
222.23,-1.65,-1.40,-1.66,-1.40,1.40,1.51,1.83,-0.25,-0.25,-0.26
224.45,-1.64,-1.39,-1.64,-1.38,1.39,1.51,1.84,-0.25,-0.25,-0.26
226.70,-1.62,-1.37,-1.63,-1.37,1.38,1.52,1.85,-0.24,-0.25,-0.26
228.96,-1.62,-1.38,-1.62,-1.37,1.38,1.52,1.85,-0.25,-0.24,-0.25
231.25,-1.62,-1.38,-1.62,-1.37,1.38,1.53,1.86,-0.24,-0.24,-0.25
233.57,-1.62,-1.38,-1.63,-1.38,1.38,1.53,1.86,-0.24,-0.24,-0.25
235.90,-1.63,-1.40,-1.63,-1.39,1.39,1.53,1.86,-0.24,-0.24,-0.24
238.26,-1.64,-1.41,-1.64,-1.41,1.40,1.54,1.86,-0.24,-0.24,-0.24
240.64,-1.64,-1.42,-1.64,-1.42,1.41,1.54,1.86,-0.23,-0.23,-0.23
243.05,-1.64,-1.43,-1.64,-1.43,1.42,1.55,1.86,-0.22,-0.22,-0.22
245.48,-1.64,-1.44,-1.64,-1.43,1.43,1.55,1.86,-0.21,-0.21,-0.21
247.93,-1.64,-1.44,-1.64,-1.44,1.44,1.56,1.85,-0.20,-0.20,-0.21
250.41,-1.64,-1.45,-1.64,-1.45,1.45,1.56,1.84,-0.19,-0.19,-0.20
252.92,-1.64,-1.46,-1.64,-1.46,1.46,1.56,1.84,-0.19,-0.19,-0.19
255.45,-1.64,-1.47,-1.64,-1.46,1.46,1.57,1.82,-0.18,-0.18,-0.18
258.00,-1.64,-1.47,-1.64,-1.47,1.47,1.57,1.81,-0.18,-0.18,-0.18
260.58,-1.64,-1.48,-1.64,-1.47,1.47,1.58,1.80,-0.17,-0.17,-0.17
263.19,-1.64,-1.48,-1.64,-1.48,1.48,1.58,1.78,-0.17,-0.17,-0.17
265.82,-1.64,-1.48,-1.64,-1.48,1.48,1.58,1.76,-0.16,-0.16,-0.17
268.48,-1.64,-1.49,-1.64,-1.48,1.48,1.58,1.75,-0.16,-0.16,-0.16
271.16,-1.64,-1.49,-1.64,-1.49,1.49,1.59,1.73,-0.15,-0.15,-0.16
273.87,-1.64,-1.49,-1.64,-1.49,1.49,1.59,1.70,-0.15,-0.15,-0.16
276.61,-1.64,-1.50,-1.64,-1.49,1.50,1.59,1.68,-0.14,-0.14,-0.15
279.38,-1.64,-1.50,-1.65,-1.50,1.51,1.59,1.66,-0.13,-0.14,-0.15
282.17,-1.65,-1.52,-1.65,-1.51,1.51,1.60,1.63,-0.14,-0.14,-0.14
284.99,-1.66,-1.53,-1.66,-1.52,1.52,1.60,1.61,-0.14,-0.14,-0.14
287.84,-1.66,-1.53,-1.66,-1.53,1.52,1.60,1.58,-0.14,-0.14,-0.14
290.72,-1.66,-1.53,-1.66,-1.53,1.52,1.60,1.56,-0.14,-0.14,-0.14
293.63,-1.65,-1.52,-1.65,-1.52,1.52,1.60,1.53,-0.14,-0.14,-0.14
296.57,-1.64,-1.51,-1.64,-1.51,1.51,1.60,1.50,-0.14,-0.14,-0.14
299.53,-1.62,-1.50,-1.62,-1.49,1.49,1.60,1.48,-0.13,-0.13,-0.13
302.53,-1.60,-1.48,-1.60,-1.48,1.47,1.60,1.45,-0.13,-0.13,-0.13
305.55,-1.57,-1.45,-1.57,-1.45,1.45,1.59,1.42,-0.12,-0.12,-0.13
308.61,-1.54,-1.43,-1.54,-1.43,1.43,1.59,1.40,-0.12,-0.12,-0.12
311.69,-1.51,-1.40,-1.51,-1.40,1.40,1.59,1.37,-0.11,-0.11,-0.12
314.81,-1.48,-1.38,-1.48,-1.38,1.37,1.59,1.35,-0.11,-0.11,-0.11
317.96,-1.45,-1.35,-1.45,-1.35,1.35,1.58,1.32,-0.11,-0.11,-0.11
321.14,-1.42,-1.33,-1.42,-1.32,1.32,1.58,1.30,-0.10,-0.10,-0.10
324.35,-1.39,-1.30,-1.39,-1.30,1.30,1.58,1.27,-0.10,-0.10,-0.10
327.59,-1.36,-1.27,-1.37,-1.27,1.28,1.57,1.25,-0.09,-0.09,-0.10
330.87,-1.34,-1.26,-1.34,-1.25,1.26,1.57,1.23,-0.08,-0.08,-0.09
334.18,-1.32,-1.25,-1.32,-1.24,1.24,1.56,1.20,-0.08,-0.08,-0.08
337.52,-1.30,-1.23,-1.31,-1.23,1.24,1.55,1.18,-0.07,-0.07,-0.08
340.90,-1.29,-1.23,-1.29,-1.23,1.23,1.55,1.16,-0.06,-0.06,-0.07
344.30,-1.29,-1.23,-1.29,-1.22,1.23,1.54,1.14,-0.06,-0.06,-0.07
347.75,-1.29,-1.23,-1.30,-1.23,1.23,1.53,1.12,-0.06,-0.06,-0.07
351.23,-1.30,-1.24,-1.30,-1.24,1.24,1.53,1.11,-0.07,-0.07,-0.07
354.74,-1.31,-1.26,-1.31,-1.25,1.24,1.52,1.09,-0.07,-0.07,-0.06
358.28,-1.31,-1.26,-1.31,-1.26,1.25,1.51,1.07,-0.06,-0.07,-0.06
361.87,-1.31,-1.26,-1.31,-1.26,1.25,1.50,1.06,-0.06,-0.06,-0.06
365.49,-1.31,-1.26,-1.31,-1.26,1.26,1.49,1.04,-0.06,-0.06,-0.06
369.14,-1.31,-1.26,-1.31,-1.26,1.26,1.48,1.03,-0.05,-0.05,-0.06
372.83,-1.31,-1.26,-1.31,-1.26,1.26,1.47,1.02,-0.05,-0.05,-0.06
376.56,-1.31,-1.27,-1.31,-1.26,1.26,1.46,1.01,-0.05,-0.05,-0.05
380.33,-1.31,-1.27,-1.31,-1.27,1.27,1.45,0.99,-0.04,-0.04,-0.05
384.13,-1.31,-1.27,-1.32,-1.27,1.28,1.44,0.98,-0.04,-0.04,-0.05
387.97,-1.32,-1.28,-1.32,-1.28,1.28,1.42,0.97,-0.04,-0.04,-0.05
391.85,-1.32,-1.29,-1.33,-1.29,1.29,1.41,0.97,-0.03,-0.03,-0.04
395.77,-1.33,-1.30,-1.34,-1.30,1.30,1.40,0.96,-0.03,-0.03,-0.04
399.73,-1.34,-1.32,-1.34,-1.31,1.31,1.39,0.95,-0.04,-0.03,-0.03
403.72,-1.34,-1.32,-1.34,-1.32,1.31,1.37,0.94,-0.03,-0.03,-0.03
407.76,-1.33,-1.32,-1.33,-1.32,1.31,1.36,0.94,-0.02,-0.03,-0.02
411.84,-1.32,-1.31,-1.32,-1.31,1.30,1.35,0.93,-0.02,-0.02,-0.02
415.96,-1.30,-1.30,-1.30,-1.29,1.29,1.33,0.92,-0.01,-0.01,-0.01
420.12,-1.28,-1.28,-1.28,-1.28,1.27,1.32,0.92,-0.01,-0.01,-0.01
424.32,-1.25,-1.25,-1.25,-1.25,1.25,1.30,0.91,-0.00,-0.00,-0.01
428.56,-1.22,-1.23,-1.22,-1.22,1.23,1.29,0.91,0.00,0.00,0.00
432.85,-1.19,-1.20,-1.19,-1.20,1.20,1.27,0.91,0.00,0.00,0.00
437.18,-1.16,-1.17,-1.16,-1.17,1.17,1.26,0.90,0.00,0.00,0.00
441.55,-1.13,-1.14,-1.13,-1.14,1.14,1.24,0.90,0.00,0.00,0.00
445.96,-1.10,-1.11,-1.10,-1.11,1.11,1.23,0.90,0.00,0.00,0.00
