frequency,raw,error,smoothed,error_smoothed,equalization,parametric_eq,fixed_band_eq,equalized_raw,equalized_smoothed,target
20.00,-23.97,-20.72,-23.98,-20.73,6.00,5.20,2.94,-17.97,-17.98,-3.25
20.20,-23.80,-20.56,-23.80,-20.56,6.00,5.24,3.02,-17.80,-17.80,-3.24
20.40,-23.64,-20.41,-23.63,-20.40,6.00,5.27,3.11,-17.64,-17.63,-3.23
20.61,-23.48,-20.24,-23.47,-20.24,6.00,5.31,3.19,-17.48,-17.47,-3.23
20.81,-23.31,-20.09,-23.31,-20.09,6.00,5.35,3.28,-17.31,-17.31,-3.22
21.02,-23.15,-19.93,-23.17,-19.95,6.00,5.39,3.37,-17.15,-17.17,-3.22
21.23,-23.04,-19.83,-23.04,-19.83,6.00,5.42,3.47,-17.04,-17.04,-3.21
21.44,-22.93,-19.72,-22.93,-19.72,6.00,5.46,3.56,-16.93,-16.93,-3.21
21.66,-22.82,-19.61,-22.82,-19.61,6.00,5.50,3.66,-16.82,-16.82,-3.21
21.87,-22.70,-19.49,-22.70,-19.49,6.00,5.53,3.77,-16.70,-16.70,-3.21
22.09,-22.56,-19.36,-22.55,-19.34,6.00,5.57,3.87,-16.56,-16.55,-3.20
22.31,-22.37,-19.17,-22.37,-19.17,6.00,5.60,3.98,-16.37,-16.37,-3.20
22.54,-22.18,-18.96,-22.18,-18.96,6.00,5.63,4.09,-16.18,-16.18,-3.21
22.76,-21.98,-18.76,-21.98,-18.76,6.00,5.67,4.20,-15.98,-15.98,-3.22
22.99,-21.79,-18.57,-21.81,-18.58,6.00,5.70,4.32,-15.79,-15.81,-3.22
23.22,-21.65,-18.43,-21.65,-18.42,6.00,5.73,4.44,-15.65,-15.65,-3.22
23.45,-21.51,-18.28,-21.51,-18.28,6.00,5.76,4.56,-15.51,-15.51,-3.23
23.69,-21.37,-18.14,-21.38,-18.14,6.00,5.80,4.68,-15.37,-15.38,-3.23
23.92,-21.23,-18.00,-21.23,-17.99,6.00,5.83,4.81,-15.23,-15.23,-3.23
24.16,-21.07,-17.84,-21.06,-17.83,6.00,5.85,4.94,-15.07,-15.06,-3.23
24.40,-20.88,-17.65,-20.88,-17.65,6.00,5.88,5.07,-14.88,-14.88,-3.23
24.65,-20.70,-17.47,-20.70,-17.47,6.00,5.91,5.20,-14.70,-14.70,-3.23
24.89,-20.52,-17.29,-20.53,-17.29,6.00,5.94,5.33,-14.52,-14.53,-3.23
25.14,-20.37,-17.14,-20.37,-17.14,6.00,5.97,5.47,-14.37,-14.37,-3.23
25.39,-20.24,-17.00,-20.24,-17.00,6.00,5.99,5.60,-14.24,-14.24,-3.24
25.65,-20.12,-16.88,-20.12,-16.88,6.00,6.02,5.74,-14.12,-14.12,-3.24
25.91,-20.00,-16.76,-19.99,-16.75,6.00,6.04,5.88,-14.00,-13.99,-3.24
26.16,-19.85,-16.61,-19.85,-16.61,6.00,6.06,6.01,-13.85,-13.85,-3.24
26.43,-19.70,-16.46,-19.71,-16.47,6.00,6.09,6.15,-13.70,-13.71,-3.24
26.69,-19.55,-16.31,-19.56,-16.31,6.00,6.11,6.28,-13.55,-13.56,-3.24
26.96,-19.40,-16.16,-19.40,-16.15,6.00,6.13,6.41,-13.40,-13.40,-3.24
27.23,-19.22,-15.98,-19.22,-15.98,6.00,6.15,6.54,-13.22,-13.22,-3.24
27.50,-19.03,-15.79,-19.03,-15.79,6.00,6.17,6.67,-13.03,-13.03,-3.24
27.77,-18.84,-15.60,-18.84,-15.60,6.00,6.18,6.79,-12.84,-12.84,-3.24
28.05,-18.65,-15.41,-18.66,-15.42,6.00,6.20,6.91,-12.65,-12.66,-3.24
28.33,-18.49,-15.25,-18.49,-15.25,6.00,6.22,7.02,-12.49,-12.49,-3.24
28.62,-18.34,-15.09,-18.33,-15.09,6.00,6.23,7.12,-12.34,-12.33,-3.24
28.90,-18.17,-14.94,-18.17,-14.93,6.00,6.24,7.22,-12.17,-12.17,-3.23
29.19,-18.00,-14.77,-18.00,-14.77,6.00,6.26,7.31,-12.00,-12.00,-3.23
29.48,-17.84,-14.61,-17.84,-14.61,6.00,6.27,7.39,-11.84,-11.84,-3.23
29.78,-17.68,-14.46,-17.68,-14.46,6.00,6.28,7.45,-11.68,-11.68,-3.22
30.08,-17.54,-14.31,-17.54,-14.32,6.00,6.29,7.51,-11.54,-11.54,-3.22
30.38,-17.41,-14.19,-17.42,-14.20,6.00,6.30,7.56,-11.41,-11.42,-3.22
30.68,-17.29,-14.07,-17.30,-14.08,6.00,6.30,7.59,-11.29,-11.30,-3.22
30.99,-17.18,-13.96,-17.15,-13.93,6.00,6.31,7.61,-11.18,-11.15,-3.22
31.30,-16.97,-13.74,-16.96,-13.74,6.00,6.31,7.62,-10.97,-10.96,-3.22
31.61,-16.74,-13.52,-16.75,-13.53,6.00,6.32,7.62,-10.74,-10.75,-3.22
31.93,-16.53,-13.30,-16.55,-13.33,6.00,6.32,7.60,-10.53,-10.55,-3.22
32.24,-16.40,-13.17,-16.41,-13.18,6.00,6.32,7.57,-10.40,-10.41,-3.23
32.57,-16.30,-13.07,-16.30,-13.07,6.00,6.32,7.54,-10.30,-10.30,-3.23
32.89,-16.20,-12.97,-16.18,-12.94,6.00,6.32,7.49,-10.20,-10.18,-3.23
33.22,-16.03,-12.79,-16.02,-12.78,6.00,6.31,7.43,-10.03,-10.02,-3.24
33.55,-15.83,-12.59,-15.84,-12.59,6.00,6.31,7.36,-9.83,-9.84,-3.24
33.89,-15.63,-12.38,-15.64,-12.39,6.00,6.31,7.28,-9.63,-9.64,-3.25
34.23,-15.45,-12.20,-15.46,-12.21,6.00,6.30,7.19,-9.45,-9.46,-3.25
34.57,-15.30,-12.05,-15.30,-12.04,6.00,6.29,7.10,-9.30,-9.30,-3.25
34.92,-15.14,-11.89,-15.14,-11.89,6.00,6.29,7.00,-9.14,-9.14,-3.25
35.27,-14.97,-11.72,-14.97,-11.72,6.00,6.28,6.90,-8.97,-8.97,-3.25
35.62,-14.80,-11.55,-14.80,-11.55,6.00,6.27,6.79,-8.80,-8.80,-3.25
35.97,-14.62,-11.37,-14.64,-11.38,6.00,6.26,6.67,-8.62,-8.64,-3.25
36.33,-14.48,-11.23,-14.48,-11.23,6.00,6.25,6.56,-8.48,-8.48,-3.25
36.70,-14.34,-11.09,-14.34,-11.08,6.00,6.24,6.44,-8.34,-8.34,-3.25
37.06,-14.19,-10.94,-14.18,-10.93,6.00,6.23,6.33,-8.19,-8.18,-3.25
37.43,-14.01,-10.76,-14.01,-10.76,6.00,6.21,6.21,-8.01,-8.01,-3.25
37.81,-13.83,-10.59,-13.84,-10.59,6.00,6.20,6.09,-7.83,-7.84,-3.24
38.19,-13.66,-10.42,-13.66,-10.42,6.00,6.19,5.97,-7.66,-7.66,-3.24
38.57,-13.49,-10.25,-13.50,-10.26,6.00,6.18,5.85,-7.49,-7.50,-3.24
38.95,-13.33,-10.10,-13.33,-10.09,6.00,6.17,5.74,-7.33,-7.33,-3.23
39.34,-13.16,-9.93,-13.15,-9.92,6.00,6.16,5.62,-7.16,-7.15,-3.23
39.74,-12.98,-9.75,-12.99,-9.76,6.00,6.15,5.51,-6.98,-6.99,-3.23
40.14,-12.82,-9.59,-12.84,-9.60,6.00,6.14,5.40,-6.82,-6.84,-3.23
40.54,-12.69,-9.46,-12.69,-9.46,6.00,6.14,5.29,-6.69,-6.69,-3.23
40.94,-12.56,-9.33,-12.55,-9.31,6.00,6.13,5.19,-6.56,-6.55,-3.23
41.35,-12.38,-9.15,-12.38,-9.15,6.00,6.13,5.09,-6.38,-6.38,-3.23
41.76,-12.19,-8.95,-12.20,-8.96,6.00,6.13,4.99,-6.19,-6.20,-3.24
42.18,-12.00,-8.76,-11.99,-8.75,6.00,6.13,4.89,-6.00,-5.99,-3.24
42.60,-11.80,-8.56,-11.80,-8.56,6.00,6.14,4.80,-5.80,-5.80,-3.24
43.03,-11.61,-8.37,-11.62,-8.38,6.00,6.15,4.71,-5.61,-5.62,-3.24
43.46,-11.46,-8.22,-11.46,-8.22,6.00,6.16,4.63,-5.46,-5.46,-3.24
43.90,-11.32,-8.07,-11.32,-8.07,6.00,6.18,4.54,-5.32,-5.32,-3.25
44.33,-11.19,-7.94,-11.20,-7.95,6.00,6.19,4.47,-5.19,-5.20,-3.25
44.78,-11.07,-7.82,-11.07,-7.81,6.00,6.21,4.39,-5.07,-5.07,-3.25
45.23,-10.93,-7.68,-10.93,-7.67,6.00,6.23,4.32,-4.93,-4.93,-3.25
45.68,-10.76,-7.51,-10.77,-7.52,6.00,6.25,4.25,-4.76,-4.77,-3.25
46.13,-10.59,-7.35,-10.59,-7.34,6.00,6.26,4.18,-4.59,-4.59,-3.24
46.60,-10.41,-7.17,-10.41,-7.17,6.00,6.27,4.12,-4.41,-4.41,-3.24
47.06,-10.23,-7.00,-10.26,-7.02,6.00,6.26,4.06,-4.23,-4.26,-3.23
47.53,-10.11,-6.89,-10.11,-6.89,6.01,6.25,4.00,-4.10,-4.10,-3.22
48.01,-9.99,-6.78,-9.97,-6.76,6.03,6.21,3.95,-3.97,-3.94,-3.21
48.49,-9.81,-6.61,-9.82,-6.61,6.03,6.16,3.90,-3.78,-3.78,-3.20
48.97,-9.63,-6.44,-9.64,-6.45,6.02,6.09,3.85,-3.61,-3.62,-3.19
49.46,-9.47,-6.29,-9.47,-6.29,6.00,6.00,3.80,-3.48,-3.47,-3.18
49.96,-9.30,-6.14,-9.30,-6.14,5.95,5.90,3.76,-3.36,-3.36,-3.16
50.46,-9.13,-5.98,-9.13,-5.98,5.87,5.77,3.72,-3.26,-3.26,-3.15
50.96,-8.96,-5.83,-8.96,-5.82,5.78,5.64,3.68,-3.18,-3.17,-3.13
51.47,-8.78,-5.66,-8.78,-5.66,5.67,5.49,3.64,-3.11,-3.11,-3.12
51.99,-8.60,-5.49,-8.61,-5.50,5.54,5.33,3.60,-3.06,-3.07,-3.11
52.51,-8.45,-5.35,-8.45,-5.35,5.40,5.17,3.57,-3.06,-3.06,-3.10
53.03,-8.31,-5.22,-8.31,-5.22,5.25,5.01,3.53,-3.06,-3.06,-3.09
53.56,-8.17,-5.09,-8.17,-5.09,5.10,4.85,3.50,-3.07,-3.07,-3.08
54.10,-8.03,-4.97,-8.02,-4.95,4.96,4.69,3.47,-3.08,-3.06,-3.06
54.64,-7.86,-4.81,-7.87,-4.82,4.82,4.53,3.44,-3.04,-3.05,-3.05
55.18,-7.71,-4.67,-7.73,-4.69,4.68,4.37,3.40,-3.03,-3.05,-3.04
55.74,-7.60,-4.56,-7.59,-4.55,4.53,4.22,3.37,-3.07,-3.06,-3.04
56.29,-7.44,-4.41,-7.44,-4.40,4.37,4.07,3.34,-3.07,-3.06,-3.03
56.86,-7.26,-4.24,-7.26,-4.24,4.21,3.92,3.31,-3.05,-3.05,-3.02
57.42,-7.07,-4.05,-7.07,-4.05,4.05,3.78,3.27,-3.02,-3.02,-3.02
58.00,-6.88,-3.86,-6.89,-3.86,3.89,3.64,3.24,-2.99,-2.99,-3.02
58.58,-6.71,-3.69,-6.71,-3.69,3.73,3.50,3.20,-2.98,-2.98,-3.02
59.16,-6.55,-3.53,-6.56,-3.54,3.57,3.37,3.16,-2.98,-2.99,-3.02
59.76,-6.43,-3.41,-6.43,-3.40,3.41,3.24,3.12,-3.03,-3.02,-3.02
60.35,-6.30,-3.27,-6.30,-3.27,3.25,3.11,3.08,-3.05,-3.05,-3.03
60.96,-6.17,-3.13,-6.17,-3.12,3.09,2.98,3.03,-3.08,-3.07,-3.04
61.57,-6.01,-2.96,-6.01,-2.96,2.94,2.85,2.98,-3.08,-3.08,-3.05
62.18,-5.85,-2.78,-5.85,-2.78,2.78,2.73,2.93,-3.07,-3.07,-3.07
62.80,-5.69,-2.60,-5.70,-2.61,2.62,2.60,2.88,-3.07,-3.08,-3.09
63.43,-5.56,-2.44,-5.56,-2.44,2.46,2.48,2.82,-3.10,-3.11,-3.12
64.07,-5.44,-2.30,-5.43,-2.29,2.30,2.36,2.76,-3.14,-3.13,-3.14
64.71,-5.30,-2.13,-5.31,-2.14,2.14,2.23,2.70,-3.16,-3.17,-3.17
65.35,-5.17,-1.98,-5.18,-1.98,1.98,2.11,2.64,-3.19,-3.19,-3.19
66.01,-5.05,-1.84,-5.05,-1.84,1.83,1.99,2.57,-3.22,-3.22,-3.21
66.67,-4.92,-1.69,-4.93,-1.70,1.68,1.86,2.50,-3.24,-3.24,-3.23
67.33,-4.80,-1.56,-4.80,-1.55,1.54,1.74,2.43,-3.26,-3.26,-3.24
68.01,-4.67,-1.41,-4.66,-1.40,1.40,1.62,2.36,-3.27,-3.26,-3.26
68.69,-4.51,-1.24,-4.52,-1.25,1.26,1.49,2.28,-3.25,-3.26,-3.27
69.37,-4.38,-1.10,-4.39,-1.11,1.12,1.37,2.20,-3.26,-3.27,-3.28
70.07,-4.27,-0.98,-4.28,-0.98,0.99,1.24,2.12,-3.28,-3.29,-3.29
70.77,-4.18,-0.88,-4.17,-0.87,0.86,1.12,2.04,-3.32,-3.31,-3.30
71.48,-4.06,-0.76,-4.06,-0.75,0.74,1.00,1.96,-3.32,-3.32,-3.30
72.19,-3.93,-0.62,-3.94,-0.63,0.62,0.87,1.87,-3.31,-3.32,-3.31
72.91,-3.82,-0.50,-3.82,-0.50,0.50,0.75,1.78,-3.32,-3.32,-3.32
73.64,-3.71,-0.38,-3.71,-0.38,0.39,0.63,1.70,-3.32,-3.32,-3.33
74.38,-3.61,-0.27,-3.62,-0.28,0.28,0.50,1.61,-3.33,-3.35,-3.34
75.12,-3.54,-0.19,-3.53,-0.18,0.17,0.38,1.52,-3.37,-3.36,-3.35
75.87,-3.45,-0.08,-3.44,-0.07,0.07,0.26,1.43,-3.38,-3.37,-3.37
76.63,-3.33,0.05,-3.35,0.03,-0.02,0.14,1.34,-3.36,-3.38,-3.38
77.40,-3.26,0.14,-3.27,0.13,-0.11,0.02,1.25,-3.38,-3.39,-3.40
78.17,-3.22,0.19,-3.21,0.21,-0.20,-0.10,1.16,-3.42,-3.41,-3.41
78.95,-3.15,0.28,-3.15,0.28,-0.29,-0.22,1.06,-3.44,-3.44,-3.43
79.74,-3.07,0.37,-3.08,0.37,-0.38,-0.34,0.97,-3.45,-3.46,-3.44
80.54,-3.00,0.46,-3.00,0.46,-0.47,-0.46,0.88,-3.47,-3.47,-3.46
81.35,-2.93,0.54,-2.93,0.55,-0.56,-0.57,0.79,-3.49,-3.48,-3.47
82.16,-2.84,0.64,-2.85,0.64,-0.65,-0.68,0.69,-3.49,-3.50,-3.48
82.98,-2.75,0.74,-2.75,0.74,-0.74,-0.79,0.60,-3.50,-3.49,-3.49
83.81,-2.65,0.85,-2.64,0.86,-0.84,-0.90,0.51,-3.49,-3.48,-3.50
84.65,-2.53,0.97,-2.55,0.95,-0.94,-1.01,0.41,-3.47,-3.49,-3.50
85.50,-2.46,1.05,-2.48,1.03,-1.04,-1.11,0.32,-3.50,-3.52,-3.51
86.35,-2.42,1.10,-2.40,1.13,-1.13,-1.22,0.23,-3.55,-3.53,-3.52
87.22,-2.34,1.19,-2.31,1.22,-1.22,-1.31,0.13,-3.57,-3.54,-3.53
88.09,-2.18,1.36,-2.23,1.30,-1.31,-1.41,0.04,-3.49,-3.55,-3.54
88.97,-2.14,1.40,-2.14,1.40,-1.39,-1.50,-0.06,-3.54,-3.54,-3.54
89.86,-2.11,1.44,-2.06,1.49,-1.47,-1.59,-0.15,-3.59,-3.54,-3.55
90.76,-1.97,1.59,-2.01,1.55,-1.55,-1.67,-0.24,-3.52,-3.56,-3.56
91.66,-1.93,1.63,-1.95,1.62,-1.62,-1.76,-0.34,-3.56,-3.57,-3.56
92.58,-1.91,1.65,-1.87,1.69,-1.69,-1.83,-0.43,-3.61,-3.57,-3.56
93.51,-1.81,1.76,-1.82,1.75,-1.76,-1.91,-0.53,-3.57,-3.58,-3.57
94.44,-1.73,1.84,-1.76,1.81,-1.81,-1.97,-0.62,-3.55,-3.57,-3.57
95.39,-1.71,1.86,-1.70,1.87,-1.86,-2.04,-0.72,-3.57,-3.56,-3.57
96.34,-1.67,1.90,-1.66,1.91,-1.90,-2.10,-0.81,-3.58,-3.56,-3.57
97.30,-1.62,1.95,-1.62,1.96,-1.95,-2.15,-0.91,-3.57,-3.56,-3.57
98.28,-1.56,2.02,-1.59,1.99,-1.99,-2.21,-1.00,-3.55,-3.57,-3.58
99.26,-1.56,2.02,-1.58,2.00,-2.03,-2.25,-1.10,-3.59,-3.60,-3.58
100.25,-1.58,2.00,-1.56,2.03,-2.06,-2.29,-1.19,-3.64,-3.62,-3.58
101.25,-1.55,2.03,-1.52,2.06,-2.09,-2.33,-1.28,-3.64,-3.61,-3.58
102.27,-1.44,2.15,-1.48,2.12,-2.11,-2.36,-1.37,-3.55,-3.59,-3.59
103.29,-1.43,2.17,-1.44,2.16,-2.12,-2.39,-1.46,-3.55,-3.56,-3.60
104.32,-1.44,2.17,-1.44,2.17,-2.13,-2.41,-1.55,-3.57,-3.57,-3.61
105.37,-1.46,2.15,-1.46,2.15,-2.14,-2.43,-1.64,-3.60,-3.60,-3.61
106.42,-1.49,2.13,-1.49,2.13,-2.14,-2.44,-1.73,-3.64,-3.64,-3.62
107.48,-1.51,2.12,-1.52,2.11,-2.15,-2.45,-1.81,-3.66,-3.67,-3.63
108.56,-1.54,2.10,-1.53,2.11,-2.14,-2.46,-1.90,-3.69,-3.68,-3.64
109.64,-1.54,2.11,-1.53,2.12,-2.14,-2.46,-1.97,-3.68,-3.66,-3.65
110.74,-1.49,2.16,-1.51,2.14,-2.13,-2.46,-2.05,-3.63,-3.65,-3.65
111.85,-1.49,2.16,-1.50,2.16,-2.13,-2.45,-2.12,-3.63,-3.63,-3.65
112.97,-1.50,2.15,-1.50,2.15,-2.14,-2.44,-2.19,-3.64,-3.64,-3.65
114.10,-1.51,2.14,-1.51,2.14,-2.14,-2.43,-2.26,-3.65,-3.65,-3.65
115.24,-1.51,2.13,-1.51,2.13,-2.14,-2.41,-2.32,-3.65,-3.66,-3.64
116.39,-1.51,2.13,-1.51,2.12,-2.14,-2.39,-2.38,-3.65,-3.65,-3.64
117.55,-1.51,2.11,-1.51,2.12,-2.12,-2.37,-2.43,-3.64,-3.63,-3.62
118.73,-1.50,2.11,-1.50,2.11,-2.10,-2.35,-2.47,-3.61,-3.61,-3.61
119.92,-1.49,2.10,-1.49,2.10,-2.08,-2.32,-2.51,-3.58,-3.57,-3.59
121.12,-1.49,2.08,-1.49,2.08,-2.06,-2.29,-2.55,-3.55,-3.55,-3.57
122.33,-1.49,2.06,-1.51,2.04,-2.04,-2.25,-2.57,-3.53,-3.55,-3.55
123.55,-1.54,1.99,-1.54,1.99,-2.01,-2.22,-2.59,-3.56,-3.55,-3.53
124.79,-1.58,1.93,-1.56,1.95,-1.98,-2.18,-2.61,-3.56,-3.54,-3.51
126.03,-1.56,1.93,-1.56,1.93,-1.94,-2.14,-2.62,-3.51,-3.50,-3.49
127.29,-1.54,1.93,-1.56,1.92,-1.90,-2.10,-2.62,-3.44,-3.46,-3.47
128.57,-1.54,1.91,-1.57,1.89,-1.85,-2.06,-2.62,-3.39,-3.42,-3.45
129.85,-1.62,1.81,-1.60,1.84,-1.81,-2.02,-2.61,-3.43,-3.40,-3.43
131.15,-1.64,1.77,-1.65,1.77,-1.77,-1.97,-2.59,-3.41,-3.41,-3.41
132.46,-1.68,1.72,-1.70,1.70,-1.73,-1.93,-2.57,-3.41,-3.43,-3.40
133.79,-1.74,1.64,-1.72,1.66,-1.70,-1.88,-2.55,-3.44,-3.42,-3.38
135.12,-1.74,1.63,-1.74,1.63,-1.67,-1.84,-2.51,-3.41,-3.41,-3.37
136.48,-1.73,1.62,-1.74,1.62,-1.64,-1.79,-2.48,-3.37,-3.38,-3.35
137.84,-1.72,1.62,-1.72,1.63,-1.61,-1.74,-2.44,-3.34,-3.33,-3.34
139.22,-1.71,1.62,-1.72,1.61,-1.59,-1.69,-2.39,-3.30,-3.30,-3.33
140.61,-1.71,1.61,-1.73,1.59,-1.55,-1.64,-2.34,-3.27,-3.28,-3.32
142.02,-1.78,1.53,-1.76,1.55,-1.52,-1.59,-2.29,-3.30,-3.28,-3.31
143.44,-1.80,1.51,-1.81,1.50,-1.48,-1.54,-2.24,-3.28,-3.29,-3.31
144.87,-1.87,1.44,-1.87,1.44,-1.45,-1.49,-2.18,-3.32,-3.32,-3.31
146.32,-1.92,1.39,-1.94,1.38,-1.41,-1.44,-2.12,-3.34,-3.35,-3.31
147.78,-2.01,1.31,-2.00,1.32,-1.38,-1.39,-2.06,-3.39,-3.38,-3.32
149.26,-2.04,1.29,-2.03,1.31,-1.35,-1.34,-2.00,-3.40,-3.38,-3.33
150.75,-2.02,1.33,-2.01,1.34,-1.33,-1.29,-1.94,-3.35,-3.34,-3.35
152.26,-1.99,1.39,-2.00,1.38,-1.32,-1.24,-1.87,-3.32,-3.33,-3.38
153.78,-1.99,1.42,-2.05,1.36,-1.32,-1.19,-1.81,-3.32,-3.38,-3.41
155.32,-2.15,1.30,-2.13,1.32,-1.33,-1.14,-1.74,-3.48,-3.46,-3.45
156.88,-2.25,1.23,-2.20,1.29,-1.33,-1.09,-1.68,-3.58,-3.53,-3.48
158.44,-2.22,1.30,-2.24,1.28,-1.32,-1.04,-1.61,-3.55,-3.56,-3.52
160.03,-2.21,1.34,-2.24,1.32,-1.31,-0.99,-1.55,-3.53,-3.55,-3.55
161.63,-2.25,1.32,-2.25,1.32,-1.29,-0.94,-1.48,-3.54,-3.55,-3.57
163.24,-2.30,1.30,-2.30,1.30,-1.26,-0.90,-1.42,-3.57,-3.57,-3.60
164.88,-2.38,1.23,-2.37,1.24,-1.23,-0.85,-1.35,-3.61,-3.60,-3.61
166.53,-2.42,1.20,-2.44,1.18,-1.19,-0.80,-1.29,-3.61,-3.63,-3.62
168.19,-2.51,1.11,-2.49,1.13,-1.13,-0.75,-1.23,-3.65,-3.63,-3.62
169.87,-2.54,1.07,-2.54,1.08,-1.07,-0.71,-1.17,-3.61,-3.60,-3.61
171.57,-2.58,1.02,-2.61,0.99,-0.99,-0.66,-1.11,-3.57,-3.60,-3.60
173.29,-2.66,0.92,-2.69,0.89,-0.91,-0.61,-1.04,-3.57,-3.59,-3.58
175.02,-2.79,0.76,-2.73,0.82,-0.82,-0.57,-0.99,-3.61,-3.56,-3.55
176.77,-2.80,0.72,-2.77,0.75,-0.74,-0.52,-0.93,-3.54,-3.51,-3.52
178.54,-2.72,0.77,-2.82,0.67,-0.67,-0.47,-0.87,-3.39,-3.48,-3.49
180.32,-2.87,0.58,-2.86,0.59,-0.59,-0.43,-0.81,-3.47,-3.46,-3.45
182.13,-2.97,0.45,-2.92,0.50,-0.53,-0.39,-0.76,-3.50,-3.45,-3.42
183.95,-2.95,0.43,-2.96,0.43,-0.47,-0.34,-0.70,-3.43,-3.43,-3.38
185.79,-2.93,0.43,-2.94,0.42,-0.42,-0.30,-0.65,-3.36,-3.37,-3.36
187.65,-2.92,0.42,-2.94,0.41,-0.38,-0.25,-0.59,-3.30,-3.31,-3.34
189.52,-2.96,0.36,-2.96,0.36,-0.34,-0.21,-0.54,-3.30,-3.30,-3.32
191.42,-3.00,0.31,-3.00,0.31,-0.30,-0.17,-0.49,-3.31,-3.31,-3.31
193.33,-3.05,0.24,-3.04,0.26,-0.27,-0.12,-0.44,-3.32,-3.30,-3.29
195.27,-3.06,0.22,-3.06,0.22,-0.23,-0.08,-0.39,-3.29,-3.30,-3.28
197.22,-3.07,0.21,-3.08,0.20,-0.19,-0.04,-0.34,-3.26,-3.27,-3.28
199.19,-3.12,0.15,-3.11,0.17,-0.14,0.00,-0.29,-3.26,-3.25,-3.27
201.18,-3.14,0.13,-3.18,0.09,-0.09,0.04,-0.24,-3.23,-3.27,-3.27
203.19,-3.25,0.02,-3.24,0.03,-0.03,0.08,-0.19,-3.29,-3.28,-3.27
205.23,-3.34,-0.07,-3.29,-0.02,0.02,0.13,-0.15,-3.32,-3.27,-3.27
207.28,-3.30,-0.03,-3.33,-0.06,0.07,0.17,-0.10,-3.23,-3.26,-3.27
209.35,-3.35,-0.08,-3.39,-0.11,0.11,0.21,-0.05,-3.24,-3.27,-3.27
211.44,-3.45,-0.17,-3.47,-0.19,0.16,0.25,-0.00,-3.29,-3.31,-3.28
213.56,-3.58,-0.30,-3.53,-0.25,0.20,0.29,0.04,-3.38,-3.33,-3.28
215.69,-3.59,-0.30,-3.55,-0.26,0.24,0.33,0.09,-3.35,-3.31,-3.29
217.85,-3.48,-0.19,-3.54,-0.25,0.28,0.37,0.13,-3.21,-3.26,-3.29
220.03,-3.54,-0.24,-3.56,-0.26,0.31,0.41,0.18,-3.23,-3.25,-3.30
222.23,-3.62,-0.32,-3.64,-0.34,0.34,0.45,0.22,-3.28,-3.30,-3.30
224.45,-3.77,-0.47,-3.71,-0.40,0.38,0.49,0.27,-3.40,-3.33,-3.30
226.70,-3.76,-0.46,-3.74,-0.44,0.42,0.53,0.31,-3.35,-3.32,-3.30
228.96,-3.68,-0.38,-3.76,-0.46,0.47,0.57,0.36,-3.21,-3.29,-3.30
231.25,-3.80,-0.51,-3.80,-0.50,0.53,0.61,0.40,-3.27,-3.27,-3.29
233.57,-3.87,-0.58,-3.85,-0.56,0.59,0.65,0.45,-3.28,-3.26,-3.29
235.90,-3.95,-0.67,-3.92,-0.64,0.64,0.69,0.49,-3.31,-3.28,-3.28
238.26,-3.91,-0.64,-3.98,-0.71,0.69,0.73,0.54,-3.23,-3.29,-3.27
240.64,-4.03,-0.78,-4.03,-0.78,0.73,0.77,0.58,-3.30,-3.30,-3.25
243.05,-4.11,-0.87,-4.06,-0.82,0.78,0.81,0.63,-3.33,-3.28,-3.24
245.48,-4.07,-0.84,-4.05,-0.82,0.82,0.85,0.68,-3.25,-3.23,-3.23
247.93,-4.00,-0.78,-4.04,-0.82,0.85,0.89,0.72,-3.15,-3.19,-3.22
250.41,-3.99,-0.78,-4.06,-0.85,0.87,0.94,0.77,-3.12,-3.19,-3.21
252.92,-4.18,-0.98,-4.12,-0.92,0.90,0.98,0.82,-3.28,-3.22,-3.20
255.45,-4.20,-1.00,-4.16,-0.95,0.93,1.02,0.87,-3.27,-3.23,-3.20
258.00,-4.15,-0.95,-4.15,-0.95,0.96,1.06,0.91,-3.19,-3.19,-3.20
260.58,-4.09,-0.89,-4.17,-0.96,1.00,1.11,0.96,-3.09,-3.17,-3.20
263.19,-4.19,-0.99,-4.23,-1.02,1.05,1.15,1.01,-3.14,-3.18,-3.20
265.82,-4.41,-1.21,-4.30,-1.10,1.10,1.20,1.06,-3.31,-3.20,-3.20
268.48,-4.36,-1.16,-4.38,-1.18,1.15,1.24,1.12,-3.21,-3.22,-3.20
271.16,-4.37,-1.17,-4.42,-1.22,1.21,1.29,1.17,-3.16,-3.21,-3.20
273.87,-4.46,-1.26,-4.45,-1.25,1.27,1.33,1.22,-3.20,-3.19,-3.20
276.61,-4.54,-1.34,-4.54,-1.33,1.33,1.38,1.27,-3.22,-3.21,-3.20
279.38,-4.60,-1.40,-4.60,-1.40,1.38,1.43,1.33,-3.22,-3.22,-3.20
282.17,-4.65,-1.46,-4.63,-1.44,1.42,1.48,1.39,-3.23,-3.21,-3.19
284.99,-4.64,-1.46,-4.66,-1.47,1.47,1.54,1.44,-3.18,-3.20,-3.18
287.84,-4.68,-1.50,-4.69,-1.51,1.51,1.59,1.50,-3.17,-3.18,-3.18
290.72,-4.73,-1.56,-4.72,-1.55,1.57,1.64,1.56,-3.17,-3.16,-3.17
293.63,-4.77,-1.61,-4.77,-1.60,1.62,1.70,1.62,-3.15,-3.14,-3.16
296.57,-4.81,-1.66,-4.81,-1.66,1.67,1.76,1.69,-3.14,-3.14,-3.15
299.53,-4.85,-1.70,-4.87,-1.72,1.72,1.82,1.75,-3.14,-3.15,-3.15
302.53,-4.95,-1.81,-4.96,-1.81,1.77,1.89,1.82,-3.18,-3.19,-3.14
305.55,-5.04,-1.90,-5.04,-1.90,1.85,1.95,1.88,-3.19,-3.19,-3.14
308.61,-5.15,-2.01,-5.11,-1.97,1.95,2.02,1.95,-3.20,-3.16,-3.14
311.69,-5.14,-2.00,-5.17,-2.02,2.09,2.09,2.02,-3.05,-3.08,-3.14
314.81,-5.23,-2.08,-5.23,-2.08,2.24,2.17,2.10,-2.99,-2.99,-3.15
317.96,-5.36,-2.21,-5.38,-2.23,2.38,2.24,2.17,-2.98,-3.00,-3.15
321.14,-5.56,-2.40,-5.66,-2.50,2.50,2.32,2.25,-3.06,-3.16,-3.16
324.35,-5.98,-2.82,-5.92,-2.76,2.60,2.39,2.32,-3.39,-3.32,-3.16
327.59,-6.19,-3.02,-6.07,-2.89,2.67,2.47,2.40,-3.53,-3.40,-3.17
330.87,-6.04,-2.86,-6.09,-2.91,2.71,2.54,2.49,-3.33,-3.37,-3.18
334.18,-5.90,-2.71,-5.96,-2.77,2.74,2.60,2.57,-3.16,-3.22,-3.19
337.52,-5.88,-2.68,-5.82,-2.62,2.75,2.66,2.66,-3.13,-3.07,-3.20
340.90,-5.74,-2.54,-5.78,-2.57,2.73,2.72,2.75,-3.02,-3.05,-3.20
344.30,-5.74,-2.53,-5.81,-2.59,2.69,2.76,2.84,-3.05,-3.12,-3.21
347.75,-5.92,-2.69,-5.86,-2.64,2.67,2.80,2.93,-3.25,-3.19,-3.23
351.23,-5.98,-2.74,-5.95,-2.71,2.67,2.83,3.03,-3.31,-3.28,-3.24
354.74,-5.98,-2.73,-6.01,-2.76,2.71,2.85,3.13,-3.28,-3.30,-3.25
358.28,-6.03,-2.77,-6.04,-2.77,2.76,2.87,3.23,-3.28,-3.28,-3.26
361.87,-6.08,-2.81,-6.09,-2.81,2.81,2.89,3.33,-3.27,-3.28,-3.27
365.49,-6.15,-2.86,-6.15,-2.86,2.85,2.91,3.44,-3.30,-3.30,-3.29
369.14,-6.20,-2.90,-6.20,-2.90,2.88,2.93,3.54,-3.32,-3.32,-3.30
372.83,-6.24,-2.93,-6.23,-2.92,2.92,2.95,3.65,-3.33,-3.31,-3.31
376.56,-6.27,-2.95,-6.28,-2.95,2.95,2.98,3.77,-3.32,-3.33,-3.32
380.33,-6.27,-2.94,-6.31,-2.98,2.99,3.00,3.88,-3.28,-3.32,-3.33
384.13,-6.42,-3.08,-6.35,-3.01,3.04,3.03,4.00,-3.38,-3.31,-3.34
387.97,-6.37,-3.02,-6.42,-3.07,3.08,3.06,4.12,-3.29,-3.34,-3.35
391.85,-6.49,-3.13,-6.51,-3.15,3.13,3.10,4.24,-3.36,-3.38,-3.36
395.77,-6.61,-3.24,-6.59,-3.22,3.19,3.14,4.36,-3.42,-3.40,-3.37
399.73,-6.69,-3.31,-6.65,-3.27,3.26,3.18,4.48,-3.43,-3.39,-3.38
403.72,-6.70,-3.31,-6.71,-3.31,3.34,3.22,4.61,-3.37,-3.37,-3.39
407.76,-6.69,-3.28,-6.79,-3.38,3.41,3.26,4.73,-3.28,-3.38,-3.41
411.84,-6.94,-3.52,-6.87,-3.45,3.49,3.31,4.85,-3.46,-3.39,-3.42
