frequency,raw,error,smoothed,error_smoothed,equalization,parametric_eq,fixed_band_eq,equalized_raw,equalized_smoothed,target
20.00,0.93,0.46,0.93,0.46,-0.46,-0.55,-0.52,0.47,0.47,0.47
20.20,0.94,0.50,0.94,0.49,-0.49,-0.56,-0.54,0.45,0.45,0.44
20.40,0.95,0.53,0.95,0.53,-0.53,-0.58,-0.56,0.43,0.42,0.42
20.61,0.96,0.56,0.96,0.56,-0.56,-0.59,-0.57,0.40,0.40,0.40
20.81,0.97,0.59,0.97,0.59,-0.59,-0.60,-0.59,0.38,0.38,0.38
21.02,0.98,0.62,0.98,0.62,-0.62,-0.62,-0.61,0.36,0.36,0.36
21.23,0.99,0.65,0.99,0.65,-0.65,-0.63,-0.62,0.34,0.34,0.34
21.44,1.00,0.68,1.00,0.68,-0.68,-0.65,-0.64,0.32,0.32,0.32
21.66,1.01,0.71,1.01,0.70,-0.70,-0.66,-0.66,0.31,0.31,0.30
21.87,1.02,0.73,1.02,0.73,-0.73,-0.68,-0.68,0.29,0.29,0.29
22.09,1.03,0.76,1.03,0.76,-0.76,-0.69,-0.70,0.27,0.28,0.27
22.31,1.05,0.79,1.05,0.78,-0.78,-0.71,-0.72,0.27,0.26,0.26
22.54,1.06,0.81,1.06,0.81,-0.81,-0.73,-0.74,0.25,0.25,0.25
22.76,1.07,0.83,1.07,0.83,-0.83,-0.74,-0.76,0.24,0.24,0.24
22.99,1.08,0.85,1.08,0.85,-0.85,-0.76,-0.79,0.23,0.23,0.23
23.22,1.09,0.87,1.09,0.87,-0.87,-0.78,-0.81,0.22,0.22,0.22
23.45,1.10,0.89,1.10,0.89,-0.88,-0.79,-0.83,0.22,0.22,0.21
23.69,1.11,0.91,1.11,0.90,-0.90,-0.81,-0.85,0.21,0.21,0.20
23.92,1.12,0.92,1.12,0.92,-0.91,-0.83,-0.88,0.21,0.20,0.20
24.16,1.12,0.93,1.12,0.93,-0.93,-0.84,-0.90,0.19,0.19,0.19
24.40,1.13,0.94,1.13,0.94,-0.94,-0.86,-0.93,0.19,0.19,0.19
24.65,1.14,0.96,1.14,0.95,-0.96,-0.88,-0.95,0.18,0.18,0.18
24.89,1.15,0.97,1.15,0.97,-0.97,-0.89,-0.98,0.18,0.18,0.18
25.14,1.16,0.99,1.16,0.99,-0.99,-0.91,-1.00,0.17,0.17,0.17
25.39,1.17,1.01,1.17,1.00,-1.00,-0.92,-1.03,0.17,0.17,0.16
25.65,1.18,1.02,1.18,1.02,-1.01,-0.94,-1.05,0.17,0.17,0.16
25.91,1.19,1.04,1.19,1.03,-1.03,-0.96,-1.08,0.16,0.16,0.15
26.16,1.19,1.04,1.19,1.04,-1.04,-0.97,-1.10,0.15,0.15,0.15
26.43,1.20,1.05,1.20,1.05,-1.05,-0.99,-1.13,0.15,0.15,0.15
26.69,1.20,1.06,1.20,1.06,-1.06,-1.00,-1.15,0.14,0.14,0.14
26.96,1.21,1.07,1.21,1.07,-1.07,-1.02,-1.18,0.14,0.14,0.14
27.23,1.22,1.09,1.22,1.08,-1.08,-1.03,-1.20,0.14,0.14,0.13
27.50,1.23,1.10,1.23,1.09,-1.09,-1.05,-1.23,0.14,0.13,0.13
27.77,1.23,1.10,1.24,1.11,-1.10,-1.06,-1.25,0.13,0.13,0.13
28.05,1.24,1.12,1.24,1.11,-1.11,-1.08,-1.27,0.13,0.13,0.12
28.33,1.25,1.13,1.25,1.12,-1.12,-1.09,-1.29,0.13,0.12,0.12
28.62,1.25,1.13,1.25,1.14,-1.13,-1.10,-1.31,0.12,0.12,0.12
28.90,1.26,1.15,1.26,1.14,-1.14,-1.11,-1.33,0.12,0.12,0.11
29.19,1.26,1.15,1.26,1.15,-1.15,-1.13,-1.34,0.11,0.11,0.11
29.48,1.26,1.15,1.26,1.15,-1.15,-1.14,-1.36,0.11,0.11,0.11
29.78,1.27,1.16,1.27,1.15,-1.16,-1.15,-1.37,0.11,0.11,0.11
30.08,1.27,1.16,1.27,1.16,-1.16,-1.16,-1.38,0.11,0.11,0.11
30.38,1.27,1.17,1.27,1.17,-1.17,-1.17,-1.39,0.10,0.11,0.10
30.68,1.28,1.18,1.28,1.17,-1.17,-1.18,-1.40,0.11,0.11,0.10
30.99,1.28,1.18,1.28,1.18,-1.17,-1.18,-1.41,0.11,0.11,0.10
31.30,1.28,1.18,1.28,1.18,-1.18,-1.19,-1.41,0.10,0.10,0.10
31.61,1.27,1.18,1.27,1.18,-1.18,-1.20,-1.42,0.09,0.10,0.09
31.93,1.27,1.18,1.27,1.18,-1.18,-1.20,-1.42,0.09,0.09,0.09
32.24,1.27,1.18,1.27,1.18,-1.18,-1.21,-1.42,0.09,0.09,0.09
32.57,1.26,1.18,1.26,1.18,-1.18,-1.22,-1.42,0.08,0.09,0.08
32.89,1.26,1.18,1.26,1.18,-1.18,-1.22,-1.41,0.08,0.08,0.08
33.22,1.26,1.18,1.26,1.18,-1.18,-1.22,-1.41,0.08,0.08,0.08
33.55,1.25,1.18,1.25,1.18,-1.18,-1.23,-1.40,0.07,0.08,0.07
33.89,1.25,1.18,1.25,1.18,-1.18,-1.23,-1.39,0.07,0.07,0.07
34.23,1.25,1.18,1.25,1.18,-1.18,-1.23,-1.38,0.07,0.07,0.07
34.57,1.25,1.19,1.25,1.18,-1.18,-1.23,-1.37,0.07,0.07,0.06
34.92,1.25,1.19,1.25,1.19,-1.19,-1.23,-1.36,0.06,0.06,0.06
35.27,1.25,1.19,1.25,1.19,-1.19,-1.24,-1.35,0.06,0.06,0.06
35.62,1.25,1.20,1.25,1.19,-1.19,-1.24,-1.33,0.06,0.06,0.05
35.97,1.25,1.20,1.25,1.20,-1.19,-1.24,-1.32,0.06,0.06,0.05
36.33,1.25,1.20,1.25,1.20,-1.20,-1.24,-1.31,0.05,0.05,0.05
36.70,1.25,1.20,1.25,1.20,-1.20,-1.24,-1.29,0.05,0.05,0.05
37.06,1.25,1.20,1.25,1.20,-1.20,-1.24,-1.28,0.05,0.05,0.05
37.43,1.25,1.21,1.25,1.20,-1.20,-1.23,-1.26,0.05,0.05,0.04
37.81,1.25,1.21,1.25,1.21,-1.21,-1.23,-1.25,0.04,0.04,0.04
38.19,1.25,1.21,1.25,1.21,-1.21,-1.23,-1.23,0.04,0.04,0.04
38.57,1.25,1.22,1.25,1.21,-1.22,-1.23,-1.22,0.04,0.04,0.03
38.95,1.25,1.22,1.25,1.22,-1.22,-1.23,-1.21,0.03,0.03,0.03
39.34,1.25,1.23,1.25,1.23,-1.22,-1.23,-1.19,0.03,0.03,0.02
39.74,1.25,1.23,1.25,1.23,-1.23,-1.23,-1.18,0.02,0.02,0.02
40.14,1.25,1.24,1.25,1.23,-1.23,-1.23,-1.17,0.02,0.02,0.01
40.54,1.25,1.24,1.25,1.24,-1.24,-1.23,-1.15,0.02,0.02,0.01
40.94,1.25,1.24,1.25,1.24,-1.24,-1.22,-1.14,0.01,0.01,0.01
41.35,1.25,1.24,1.25,1.24,-1.24,-1.22,-1.13,0.01,0.01,0.01
41.76,1.25,1.24,1.25,1.24,-1.24,-1.22,-1.12,0.01,0.01,0.01
42.18,1.25,1.24,1.25,1.24,-1.24,-1.22,-1.11,0.02,0.02,0.01
42.60,1.25,1.24,1.25,1.23,-1.23,-1.22,-1.10,0.02,0.02,0.01
43.03,1.25,1.23,1.25,1.23,-1.23,-1.22,-1.10,0.02,0.02,0.02
43.46,1.25,1.23,1.25,1.23,-1.23,-1.22,-1.09,0.02,0.02,0.02
43.90,1.25,1.23,1.25,1.23,-1.23,-1.22,-1.08,0.02,0.02,0.02
44.33,1.25,1.23,1.25,1.23,-1.23,-1.22,-1.08,0.02,0.02,0.02
44.78,1.25,1.23,1.25,1.23,-1.23,-1.22,-1.08,0.02,0.02,0.02
45.23,1.25,1.23,1.25,1.23,-1.23,-1.22,-1.07,0.02,0.02,0.02
45.68,1.25,1.23,1.25,1.23,-1.23,-1.22,-1.07,0.02,0.02,0.02
46.13,1.25,1.23,1.25,1.23,-1.23,-1.22,-1.07,0.02,0.02,0.02
46.60,1.25,1.23,1.25,1.23,-1.23,-1.22,-1.07,0.02,0.02,0.02
47.06,1.25,1.23,1.25,1.23,-1.23,-1.22,-1.07,0.02,0.02,0.02
47.53,1.25,1.24,1.25,1.23,-1.23,-1.22,-1.07,0.02,0.02,0.01
48.01,1.25,1.24,1.25,1.24,-1.23,-1.22,-1.07,0.02,0.02,0.01
48.49,1.25,1.24,1.25,1.24,-1.23,-1.22,-1.07,0.02,0.02,0.01
48.97,1.25,1.24,1.25,1.24,-1.24,-1.22,-1.07,0.01,0.01,0.01
49.46,1.25,1.24,1.25,1.24,-1.24,-1.23,-1.08,0.01,0.01,0.01
49.96,1.25,1.24,1.25,1.24,-1.24,-1.23,-1.08,0.01,0.01,0.01
50.46,1.25,1.24,1.25,1.24,-1.24,-1.23,-1.08,0.01,0.01,0.01
50.96,1.26,1.25,1.26,1.24,-1.24,-1.23,-1.09,0.02,0.01,0.01
51.47,1.26,1.24,1.26,1.24,-1.25,-1.23,-1.09,0.01,0.02,0.02
51.99,1.27,1.25,1.27,1.25,-1.25,-1.23,-1.10,0.02,0.02,0.02
52.51,1.28,1.26,1.28,1.25,-1.25,-1.22,-1.10,0.03,0.03,0.02
53.03,1.28,1.26,1.28,1.25,-1.25,-1.22,-1.11,0.03,0.03,0.02
53.56,1.27,1.25,1.27,1.25,-1.25,-1.22,-1.12,0.02,0.03,0.02
54.10,1.27,1.24,1.27,1.24,-1.24,-1.22,-1.12,0.03,0.03,0.03
54.64,1.26,1.23,1.26,1.23,-1.23,-1.22,-1.13,0.03,0.03,0.03
55.18,1.26,1.23,1.26,1.22,-1.22,-1.22,-1.13,0.04,0.04,0.03
55.74,1.25,1.22,1.25,1.21,-1.21,-1.21,-1.14,0.04,0.04,0.03
56.29,1.23,1.19,1.23,1.19,-1.19,-1.21,-1.14,0.04,0.04,0.04
56.86,1.21,1.17,1.21,1.17,-1.17,-1.21,-1.15,0.04,0.04,0.04
57.42,1.20,1.16,1.20,1.15,-1.15,-1.20,-1.15,0.05,0.04,0.04
58.00,1.18,1.13,1.18,1.13,-1.13,-1.20,-1.15,0.05,0.05,0.05
58.58,1.16,1.11,1.16,1.11,-1.11,-1.19,-1.15,0.05,0.05,0.05
59.16,1.15,1.10,1.15,1.09,-1.09,-1.18,-1.16,0.06,0.06,0.05
59.76,1.13,1.07,1.13,1.07,-1.07,-1.18,-1.16,0.06,0.06,0.06
60.35,1.11,1.05,1.11,1.05,-1.04,-1.17,-1.15,0.07,0.06,0.06
60.96,1.08,1.02,1.08,1.02,-1.02,-1.16,-1.15,0.06,0.06,0.06
61.57,1.06,1.00,1.06,1.00,-1.00,-1.15,-1.15,0.06,0.06,0.06
62.18,1.04,0.98,1.04,0.98,-0.98,-1.15,-1.15,0.06,0.06,0.06
62.80,1.03,0.97,1.03,0.96,-0.96,-1.14,-1.14,0.07,0.07,0.06
63.43,1.01,0.95,1.01,0.95,-0.94,-1.13,-1.13,0.07,0.07,0.06
64.07,0.99,0.93,0.99,0.93,-0.92,-1.11,-1.13,0.07,0.07,0.06
64.71,0.97,0.91,0.97,0.91,-0.91,-1.10,-1.12,0.06,0.06,0.06
65.35,0.95,0.89,0.95,0.89,-0.89,-1.09,-1.11,0.06,0.06,0.06
66.01,0.94,0.88,0.94,0.88,-0.88,-1.08,-1.10,0.06,0.06,0.06
66.67,0.93,0.87,0.93,0.87,-0.87,-1.07,-1.08,0.07,0.06,0.06
67.33,0.92,0.86,0.92,0.86,-0.86,-1.05,-1.07,0.07,0.06,0.06
68.01,0.91,0.85,0.91,0.85,-0.85,-1.04,-1.06,0.06,0.06,0.06
68.69,0.90,0.84,0.90,0.84,-0.85,-1.03,-1.04,0.05,0.06,0.06
69.37,0.90,0.84,0.90,0.84,-0.85,-1.01,-1.03,0.06,0.06,0.06
70.07,0.91,0.85,0.91,0.84,-0.85,-1.00,-1.01,0.06,0.06,0.06
70.77,0.92,0.86,0.92,0.85,-0.85,-0.98,-1.00,0.07,0.07,0.06
71.48,0.92,0.85,0.92,0.85,-0.85,-0.97,-0.98,0.07,0.07,0.07
72.19,0.93,0.86,0.93,0.86,-0.85,-0.96,-0.96,0.08,0.08,0.07
72.91,0.93,0.86,0.93,0.86,-0.85,-0.94,-0.95,0.08,0.08,0.07
73.64,0.93,0.86,0.93,0.86,-0.85,-0.93,-0.93,0.08,0.08,0.07
74.38,0.93,0.85,0.93,0.85,-0.85,-0.91,-0.91,0.08,0.08,0.08
75.12,0.93,0.85,0.93,0.84,-0.85,-0.90,-0.89,0.08,0.08,0.08
75.87,0.93,0.84,0.93,0.84,-0.84,-0.88,-0.88,0.09,0.09,0.09
76.63,0.93,0.84,0.93,0.84,-0.84,-0.86,-0.86,0.09,0.09,0.09
77.40,0.93,0.84,0.93,0.83,-0.83,-0.85,-0.84,0.10,0.10,0.09
78.17,0.93,0.83,0.93,0.83,-0.83,-0.83,-0.82,0.10,0.10,0.10
78.95,0.93,0.83,0.93,0.83,-0.83,-0.82,-0.81,0.11,0.11,0.10
79.74,0.93,0.83,0.93,0.82,-0.82,-0.80,-0.79,0.11,0.11,0.10
80.54,0.93,0.82,0.93,0.82,-0.82,-0.79,-0.77,0.11,0.11,0.11
81.35,0.93,0.82,0.93,0.82,-0.82,-0.77,-0.76,0.11,0.11,0.11
82.16,0.93,0.82,0.93,0.82,-0.83,-0.76,-0.74,0.10,0.11,0.11
82.98,0.94,0.83,0.94,0.83,-0.83,-0.75,-0.73,0.11,0.11,0.11
83.81,0.95,0.84,0.95,0.83,-0.83,-0.73,-0.71,0.12,0.12,0.11
84.65,0.95,0.83,0.95,0.83,-0.83,-0.72,-0.70,0.12,0.12,0.12
85.50,0.95,0.83,0.95,0.83,-0.82,-0.70,-0.69,0.13,0.13,0.12
86.35,0.94,0.82,0.94,0.82,-0.82,-0.69,-0.67,0.12,0.13,0.12
87.22,0.93,0.81,0.93,0.81,-0.80,-0.68,-0.66,0.13,0.13,0.12
88.09,0.92,0.80,0.91,0.79,-0.79,-0.66,-0.65,0.13,0.13,0.12
88.97,0.89,0.77,0.89,0.77,-0.77,-0.65,-0.64,0.12,0.13,0.12
89.86,0.86,0.74,0.87,0.74,-0.74,-0.64,-0.63,0.12,0.12,0.12
90.76,0.84,0.72,0.84,0.71,-0.72,-0.62,-0.61,0.12,0.12,0.12
91.66,0.81,0.69,0.81,0.69,-0.69,-0.61,-0.60,0.12,0.12,0.12
92.58,0.78,0.66,0.78,0.66,-0.66,-0.60,-0.59,0.12,0.12,0.12
93.51,0.74,0.62,0.75,0.62,-0.62,-0.59,-0.59,0.12,0.12,0.12
94.44,0.72,0.60,0.72,0.60,-0.59,-0.58,-0.58,0.13,0.13,0.12
95.39,0.69,0.57,0.69,0.56,-0.56,-0.56,-0.57,0.13,0.13,0.12
96.34,0.66,0.54,0.66,0.53,-0.53,-0.55,-0.56,0.13,0.13,0.12
97.30,0.63,0.50,0.63,0.50,-0.51,-0.54,-0.55,0.13,0.13,0.13
98.28,0.61,0.48,0.61,0.48,-0.48,-0.53,-0.55,0.13,0.12,0.13
99.26,0.59,0.46,0.59,0.46,-0.47,-0.52,-0.54,0.12,0.12,0.13
100.25,0.58,0.45,0.58,0.45,-0.46,-0.51,-0.54,0.12,0.13,0.13
101.25,0.58,0.45,0.58,0.45,-0.45,-0.50,-0.53,0.13,0.13,0.13
102.27,0.58,0.45,0.58,0.45,-0.45,-0.49,-0.52,0.13,0.14,0.13
103.29,0.59,0.46,0.59,0.45,-0.45,-0.48,-0.52,0.14,0.14,0.13
104.32,0.59,0.45,0.59,0.45,-0.45,-0.47,-0.51,0.14,0.15,0.14
105.37,0.60,0.46,0.60,0.45,-0.45,-0.46,-0.51,0.15,0.15,0.14
106.42,0.60,0.46,0.60,0.45,-0.45,-0.46,-0.51,0.15,0.15,0.14
107.48,0.60,0.45,0.60,0.45,-0.45,-0.45,-0.50,0.15,0.15,0.15
108.56,0.60,0.45,0.60,0.45,-0.45,-0.44,-0.50,0.15,0.15,0.15
109.64,0.60,0.45,0.60,0.45,-0.45,-0.43,-0.49,0.15,0.15,0.15
110.74,0.60,0.45,0.60,0.45,-0.45,-0.42,-0.49,0.16,0.16,0.15
111.85,0.60,0.45,0.60,0.44,-0.44,-0.41,-0.49,0.16,0.16,0.15
112.97,0.60,0.44,0.60,0.44,-0.44,-0.41,-0.48,0.16,0.16,0.16
114.10,0.60,0.44,0.60,0.44,-0.44,-0.40,-0.48,0.16,0.16,0.16
115.24,0.60,0.44,0.60,0.44,-0.44,-0.39,-0.48,0.16,0.16,0.16
116.39,0.60,0.44,0.60,0.43,-0.43,-0.39,-0.47,0.17,0.17,0.16
117.55,0.60,0.43,0.60,0.43,-0.43,-0.38,-0.47,0.17,0.17,0.17
118.73,0.60,0.43,0.60,0.43,-0.43,-0.37,-0.46,0.17,0.17,0.17
119.92,0.60,0.43,0.60,0.43,-0.43,-0.36,-0.46,0.18,0.18,0.17
121.12,0.60,0.43,0.60,0.42,-0.42,-0.36,-0.45,0.18,0.18,0.17
122.33,0.60,0.42,0.60,0.42,-0.42,-0.35,-0.45,0.18,0.18,0.18
123.55,0.60,0.42,0.60,0.42,-0.41,-0.35,-0.45,0.19,0.19,0.18
124.79,0.60,0.41,0.60,0.41,-0.41,-0.34,-0.44,0.19,0.19,0.19
126.03,0.60,0.41,0.60,0.40,-0.41,-0.33,-0.43,0.19,0.19,0.19
127.29,0.60,0.40,0.60,0.40,-0.40,-0.33,-0.43,0.20,0.20,0.20
128.57,0.60,0.40,0.60,0.40,-0.40,-0.32,-0.42,0.20,0.20,0.20
129.85,0.60,0.40,0.60,0.40,-0.39,-0.32,-0.42,0.21,0.21,0.20
131.15,0.60,0.40,0.60,0.39,-0.39,-0.31,-0.41,0.21,0.21,0.20
132.46,0.60,0.39,0.60,0.39,-0.39,-0.31,-0.40,0.21,0.21,0.21
133.79,0.60,0.39,0.60,0.39,-0.39,-0.30,-0.40,0.21,0.21,0.21
135.12,0.60,0.39,0.60,0.39,-0.39,-0.30,-0.39,0.21,0.21,0.21
136.48,0.60,0.39,0.60,0.39,-0.39,-0.29,-0.38,0.21,0.21,0.21
137.84,0.60,0.39,0.60,0.39,-0.39,-0.29,-0.38,0.21,0.21,0.21
139.22,0.60,0.39,0.60,0.39,-0.38,-0.28,-0.37,0.22,0.22,0.21
140.61,0.60,0.39,0.60,0.38,-0.38,-0.28,-0.36,0.22,0.22,0.21
142.02,0.60,0.38,0.60,0.38,-0.38,-0.27,-0.35,0.22,0.22,0.22
143.44,0.60,0.38,0.60,0.38,-0.38,-0.27,-0.35,0.22,0.22,0.22
144.87,0.60,0.38,0.60,0.37,-0.37,-0.26,-0.34,0.23,0.23,0.22
146.32,0.60,0.37,0.60,0.37,-0.37,-0.26,-0.33,0.23,0.23,0.23
147.78,0.60,0.37,0.60,0.37,-0.37,-0.25,-0.32,0.23,0.23,0.23
149.26,0.60,0.37,0.60,0.36,-0.36,-0.25,-0.32,0.24,0.24,0.23
150.75,0.60,0.36,0.60,0.36,-0.36,-0.25,-0.31,0.24,0.24,0.24
152.26,0.60,0.36,0.60,0.36,-0.36,-0.24,-0.30,0.24,0.24,0.24
153.78,0.60,0.36,0.60,0.35,-0.35,-0.24,-0.29,0.25,0.25,0.24
155.32,0.60,0.35,0.60,0.35,-0.35,-0.23,-0.29,0.25,0.25,0.25
156.88,0.60,0.35,0.60,0.35,-0.35,-0.23,-0.28,0.25,0.25,0.25
158.44,0.60,0.35,0.60,0.35,-0.35,-0.23,-0.27,0.25,0.25,0.25
160.03,0.60,0.35,0.60,0.35,-0.34,-0.22,-0.26,0.26,0.26,0.25
161.63,0.60,0.35,0.60,0.34,-0.34,-0.22,-0.26,0.26,0.26,0.25
163.24,0.60,0.34,0.60,0.34,-0.34,-0.21,-0.25,0.26,0.26,0.26
164.88,0.60,0.34,0.60,0.34,-0.34,-0.21,-0.24,0.26,0.26,0.26
166.53,0.60,0.34,0.60,0.34,-0.34,-0.20,-0.24,0.26,0.26,0.26
168.19,0.60,0.34,0.60,0.33,-0.33,-0.20,-0.23,0.27,0.27,0.26
169.87,0.60,0.33,0.60,0.33,-0.33,-0.20,-0.23,0.27,0.27,0.27
171.57,0.60,0.33,0.60,0.33,-0.33,-0.19,-0.22,0.27,0.27,0.27
173.29,0.60,0.33,0.60,0.33,-0.33,-0.19,-0.21,0.28,0.28,0.27
175.02,0.60,0.33,0.60,0.32,-0.32,-0.18,-0.21,0.28,0.28,0.27
176.77,0.60,0.32,0.60,0.32,-0.32,-0.18,-0.20,0.28,0.28,0.28
178.54,0.60,0.32,0.60,0.32,-0.32,-0.17,-0.20,0.28,0.28,0.28
180.32,0.60,0.32,0.60,0.32,-0.32,-0.17,-0.19,0.28,0.28,0.28
182.13,0.60,0.32,0.60,0.32,-0.32,-0.17,-0.19,0.28,0.28,0.28
183.95,0.60,0.32,0.60,0.32,-0.32,-0.16,-0.18,0.28,0.28,0.28
185.79,0.60,0.32,0.60,0.32,-0.32,-0.16,-0.18,0.28,0.28,0.28
187.65,0.60,0.32,0.60,0.32,-0.32,-0.15,-0.17,0.28,0.28,0.28
189.52,0.60,0.32,0.60,0.32,-0.32,-0.15,-0.17,0.28,0.28,0.28
191.42,0.60,0.32,0.60,0.32,-0.32,-0.14,-0.17,0.28,0.28,0.28
193.33,0.60,0.32,0.60,0.32,-0.32,-0.14,-0.16,0.28,0.28,0.28
195.27,0.60,0.32,0.60,0.32,-0.32,-0.13,-0.16,0.28,0.28,0.28
197.22,0.60,0.32,0.60,0.32,-0.32,-0.13,-0.15,0.28,0.28,0.28
199.19,0.61,0.33,0.61,0.32,-0.33,-0.12,-0.15,0.29,0.28,0.28
201.18,0.61,0.32,0.61,0.32,-0.33,-0.12,-0.15,0.28,0.29,0.29
203.19,0.62,0.33,0.62,0.33,-0.32,-0.11,-0.14,0.30,0.30,0.29
205.23,0.63,0.33,0.62,0.32,-0.32,-0.10,-0.14,0.31,0.30,0.30
207.28,0.62,0.32,0.62,0.32,-0.31,-0.10,-0.13,0.31,0.31,0.30
209.35,0.61,0.31,0.61,0.31,-0.30,-0.09,-0.13,0.31,0.32,0.30
211.44,0.60,0.29,0.59,0.28,-0.28,-0.09,-0.12,0.32,0.31,0.31
213.56,0.57,0.26,0.57,0.26,-0.26,-0.08,-0.12,0.31,0.31,0.31
215.69,0.54,0.23,0.54,0.23,-0.23,-0.07,-0.12,0.31,0.31,0.31
217.85,0.51,0.20,0.51,0.20,-0.20,-0.07,-0.11,0.31,0.32,0.31
220.03,0.49,0.17,0.49,0.17,-0.17,-0.06,-0.11,0.32,0.32,0.32
222.23,0.46,0.14,0.46,0.13,-0.13,-0.05,-0.10,0.33,0.33,0.32
224.45,0.42,0.10,0.42,0.10,-0.09,-0.05,-0.09,0.33,0.33,0.32
226.70,0.38,0.06,0.38,0.06,-0.06,-0.04,-0.09,0.32,0.33,0.32
228.96,0.35,0.02,0.35,0.02,-0.02,-0.03,-0.08,0.33,0.33,0.33
231.25,0.33,-0.00,0.32,-0.01,0.01,-0.02,-0.07,0.34,0.33,0.33
233.57,0.30,-0.03,0.30,-0.04,0.04,-0.01,-0.07,0.34,0.33,0.33
235.90,0.27,-0.07,0.28,-0.06,0.06,-0.00,-0.06,0.33,0.34,0.34
238.26,0.26,-0.08,0.26,-0.08,0.08,0.00,-0.05,0.34,0.34,0.34
240.64,0.26,-0.09,0.26,-0.10,0.09,0.01,-0.04,0.35,0.35,0.35
243.05,0.26,-0.10,0.26,-0.10,0.09,0.02,-0.03,0.36,0.36,0.36
245.48,0.27,-0.10,0.27,-0.10,0.10,0.03,-0.02,0.37,0.37,0.37
247.93,0.28,-0.09,0.28,-0.10,0.10,0.04,-0.00,0.38,0.38,0.37
250.41,0.29,-0.09,0.29,-0.09,0.10,0.05,0.01,0.39,0.39,0.38
252.92,0.30,-0.09,0.30,-0.09,0.10,0.06,0.02,0.40,0.40,0.39
255.45,0.30,-0.10,0.30,-0.10,0.10,0.07,0.03,0.40,0.40,0.40
258.00,0.30,-0.10,0.30,-0.11,0.11,0.09,0.05,0.41,0.41,0.40
260.58,0.29,-0.12,0.29,-0.12,0.13,0.10,0.06,0.42,0.42,0.41
263.19,0.28,-0.13,0.27,-0.14,0.15,0.11,0.08,0.43,0.42,0.41
265.82,0.24,-0.17,0.25,-0.17,0.17,0.12,0.10,0.41,0.42,0.41
268.48,0.22,-0.20,0.22,-0.20,0.20,0.13,0.12,0.42,0.42,0.42
271.16,0.19,-0.23,0.19,-0.24,0.24,0.15,0.13,0.43,0.42,0.42
273.87,0.15,-0.27,0.15,-0.27,0.27,0.16,0.15,0.42,0.43,0.42
276.61,0.12,-0.31,0.12,-0.31,0.31,0.17,0.17,0.43,0.43,0.43
279.38,0.09,-0.34,0.09,-0.35,0.35,0.19,0.19,0.44,0.44,0.43
282.17,0.06,-0.38,0.06,-0.38,0.38,0.20,0.22,0.44,0.44,0.44
284.99,0.03,-0.41,0.03,-0.42,0.42,0.22,0.24,0.45,0.44,0.44
287.84,-0.01,-0.45,-0.00,-0.45,0.44,0.23,0.26,0.44,0.44,0.44
290.72,-0.03,-0.47,-0.03,-0.47,0.47,0.25,0.28,0.44,0.44,0.44
293.63,-0.05,-0.49,-0.05,-0.49,0.48,0.27,0.31,0.43,0.43,0.44
296.57,-0.06,-0.50,-0.06,-0.50,0.49,0.28,0.33,0.43,0.43,0.44
299.53,-0.06,-0.51,-0.06,-0.51,0.50,0.30,0.36,0.44,0.44,0.45
302.53,-0.05,-0.50,-0.05,-0.50,0.50,0.32,0.39,0.45,0.45,0.45
305.55,-0.04,-0.49,-0.04,-0.50,0.50,0.34,0.41,0.46,0.46,0.45
308.61,-0.03,-0.49,-0.03,-0.49,0.51,0.36,0.44,0.48,0.47,0.46
311.69,-0.04,-0.50,-0.04,-0.50,0.52,0.38,0.47,0.48,0.48,0.46
314.81,-0.05,-0.52,-0.05,-0.52,0.53,0.40,0.50,0.48,0.48,0.47
317.96,-0.07,-0.54,-0.07,-0.55,0.55,0.42,0.53,0.48,0.48,0.47
321.14,-0.10,-0.58,-0.10,-0.58,0.58,0.44,0.56,0.48,0.48,0.48
324.35,-0.13,-0.61,-0.13,-0.61,0.61,0.46,0.59,0.49,0.48,0.48
327.59,-0.17,-0.65,-0.17,-0.65,0.65,0.48,0.62,0.48,0.49,0.48
330.87,-0.20,-0.69,-0.20,-0.69,0.69,0.51,0.65,0.49,0.49,0.49
334.18,-0.23,-0.73,-0.23,-0.73,0.73,0.53,0.68,0.50,0.50,0.50
337.52,-0.27,-0.77,-0.27,-0.77,0.77,0.55,0.72,0.50,0.51,0.50
340.90,-0.30,-0.81,-0.30,-0.81,0.81,0.58,0.75,0.51,0.51,0.51
344.30,-0.33,-0.84,-0.33,-0.84,0.84,0.60,0.78,0.51,0.51,0.51
347.75,-0.35,-0.86,-0.35,-0.87,0.86,0.63,0.82,0.51,0.51,0.51
351.23,-0.37,-0.88,-0.37,-0.88,0.87,0.65,0.86,0.50,0.51,0.51
354.74,-0.38,-0.90,-0.37,-0.89,0.88,0.68,0.89,0.50,0.51,0.52
358.28,-0.37,-0.89,-0.37,-0.90,0.89,0.71,0.93,0.52,0.52,0.52
361.87,-0.37,-0.89,-0.37,-0.89,0.89,0.73,0.97,0.52,0.53,0.52
365.49,-0.36,-0.88,-0.36,-0.89,0.90,0.76,1.01,0.54,0.53,0.52
369.14,-0.37,-0.89,-0.37,-0.89,0.90,0.79,1.05,0.54,0.54,0.52
372.83,-0.38,-0.90,-0.38,-0.91,0.92,0.82,1.09,0.54,0.54,0.52
376.56,-0.40,-0.93,-0.40,-0.93,0.93,0.85,1.13,0.53,0.53,0.53
380.33,-0.42,-0.95,-0.42,-0.95,0.96,0.88,1.17,0.54,0.54,0.53
384.13,-0.45,-0.98,-0.45,-0.98,0.99,0.91,1.21,0.54,0.54,0.53
387.97,-0.48,-1.01,-0.48,-1.02,1.02,0.94,1.26,0.54,0.54,0.53
391.85,-0.52,-1.06,-0.52,-1.06,1.06,0.97,1.30,0.54,0.54,0.54
395.77,-0.55,-1.09,-0.55,-1.09,1.09,1.01,1.34,0.54,0.55,0.54
399.73,-0.58,-1.13,-0.58,-1.13,1.13,1.04,1.39,0.55,0.55,0.55
403.72,-0.61,-1.16,-0.61,-1.17,1.16,1.07,1.43,0.55,0.55,0.55
407.76,-0.64,-1.20,-0.64,-1.20,1.19,1.10,1.47,0.55,0.56,0.56
411.84,-0.66,-1.22,-0.66,-1.23,1.22,1.14,1.52,0.56,0.56,0.56
415.96,-0.68,-1.25,-0.68,-1.25,1.24,1.17,1.56,0.56,0.56,0.57
420.12,-0.69,-1.26,-0.69,-1.26,1.26,1.21,1.60,0.57,0.57,0.57
424.32,-0.69,-1.26,-0.69,-1.27,1.27,1.24,1.64,0.58,0.58,0.57
428.56,-0.70,-1.28,-0.70,-1.28,1.28,1.27,1.69,0.58,0.58,0.58
432.85,-0.71,-1.29,-0.71,-1.29,1.30,1.31,1.73,0.59,0.59,0.58
437.18,-0.72,-1.30,-0.72,-1.30,1.31,1.34,1.77,0.59,0.59,0.58
441.55,-0.74,-1.32,-0.74,-1.32,1.33,1.38,1.80,0.59,0.59,0.58
445.96,-0.76,-1.34,-0.76,-1.35,1.36,1.41,1.84,0.60,0.59,0.58
450.42,-0.80,-1.38,-0.80,-1.38,1.38,1.45,1.88,0.58,0.59,0.58
454.93,-0.83,-1.41,-0.83,-1.41,1.42,1.48,1.91,0.59,0.58,0.58
459.48,-0.87,-1.45,-0.87,-1.45,1.45,1.52,1.94,0.58,0.58,0.58
464.07,-0.90,-1.48,-0.90,-1.48,1.48,1.55,1.97,0.58,0.58,0.58
468.71,-0.93,-1.51,-0.94,-1.52,1.51,1.59,1.99,0.58,0.58,0.58
473.40,-0.97,-1.55,-0.96,-1.55,1.54,1.62,2.02,0.57,0.58,0.58
478.13,-0.99,-1.58,-0.99,-1.58,1.57,1.65,2.04,0.58,0.58,0.59
482.91,-1.00,-1.59,-1.00,-1.59,1.59,1.69,2.05,0.59,0.58,0.59
487.74,-1.01,-1.60,-1.01,-1.61,1.60,1.72,2.07,0.59,0.59,0.59
492.62,-1.02,-1.61,-1.02,-1.62,1.62,1.75,2.08,0.60,0.60,0.59
497.55,-1.03,-1.63,-1.03,-1.63,1.63,1.78,2.08,0.60,0.60,0.60
502.52,-1.04,-1.64,-1.04,-1.64,1.64,1.81,2.09,0.60,0.61,0.60
507.55,-1.05,-1.65,-1.05,-1.65,1.66,1.84,2.09,0.61,0.61,0.60
512.62,-1.06,-1.66,-1.07,-1.67,1.68,1.87,2.09,0.62,0.62,0.60
517.75,-1.09,-1.70,-1.09,-1.70,1.71,1.90,2.08,0.62,0.62,0.61
522.93,-1.12,-1.73,-1.12,-1.73,1.74,1.92,2.07,0.62,0.62,0.61
528.16,-1.15,-1.76,-1.15,-1.77,1.77,1.95,2.06,0.62,0.61,0.61
533.44,-1.19,-1.80,-1.19,-1.80,1.80,1.97,2.04,0.61,0.62,0.61
538.77,-1.22,-1.84,-1.22,-1.84,1.84,2.00,2.03,0.62,0.62,0.62
544.16,-1.25,-1.87,-1.25,-1.87,1.87,2.02,2.01,0.62,0.62,0.62
