frequency,raw,error,smoothed,error_smoothed,equalization,parametric_eq,fixed_band_eq,equalized_raw,equalized_smoothed,target
20.00,-1.54,1.30,-1.53,1.30,-1.30,-1.19,-0.43,-2.84,-2.84,-2.84
20.20,-1.50,1.25,-1.50,1.25,-1.25,-1.18,-0.44,-2.74,-2.75,-2.75
20.40,-1.47,1.19,-1.46,1.20,-1.20,-1.18,-0.45,-2.67,-2.66,-2.66
20.61,-1.43,1.17,-1.43,1.16,-1.16,-1.17,-0.46,-2.58,-2.58,-2.59
20.81,-1.39,1.11,-1.39,1.11,-1.12,-1.16,-0.47,-2.50,-2.51,-2.50
21.02,-1.36,1.07,-1.35,1.08,-1.08,-1.15,-0.48,-2.44,-2.43,-2.42
21.23,-1.32,1.05,-1.31,1.04,-1.05,-1.14,-0.50,-2.36,-2.36,-2.36
21.44,-1.27,1.03,-1.28,1.02,-1.02,-1.14,-0.51,-2.30,-2.30,-2.30
21.66,-1.24,1.00,-1.23,1.00,-1.00,-1.13,-0.52,-2.24,-2.23,-2.23
21.87,-1.19,0.99,-1.20,0.99,-0.98,-1.12,-0.53,-2.18,-2.18,-2.18
22.09,-1.16,0.98,-1.16,0.97,-0.97,-1.11,-0.55,-2.13,-2.13,-2.13
22.31,-1.12,0.96,-1.12,0.96,-0.96,-1.10,-0.56,-2.09,-2.08,-2.08
22.54,-1.09,0.95,-1.08,0.95,-0.95,-1.09,-0.57,-2.04,-2.04,-2.03
22.76,-1.05,0.95,-1.05,0.95,-0.95,-1.09,-0.59,-1.99,-1.99,-1.99
22.99,-1.01,0.95,-1.01,0.94,-0.94,-1.08,-0.60,-1.94,-1.95,-1.95
23.22,-0.98,0.94,-0.97,0.94,-0.93,-1.07,-0.62,-1.91,-1.90,-1.91
23.45,-0.94,0.93,-0.94,0.93,-0.93,-1.06,-0.63,-1.86,-1.86,-1.86
23.69,-0.91,0.92,-0.90,0.92,-0.92,-1.05,-0.65,-1.83,-1.82,-1.82
23.92,-0.87,0.92,-0.87,0.91,-0.91,-1.04,-0.66,-1.78,-1.78,-1.78
24.16,-0.84,0.90,-0.83,0.91,-0.91,-1.04,-0.68,-1.74,-1.74,-1.73
24.40,-0.80,0.90,-0.80,0.90,-0.90,-1.03,-0.69,-1.70,-1.70,-1.70
24.65,-0.77,0.90,-0.76,0.90,-0.90,-1.02,-0.71,-1.66,-1.66,-1.67
24.89,-0.72,0.90,-0.73,0.90,-0.90,-1.01,-0.73,-1.62,-1.62,-1.63
25.14,-0.69,0.89,-0.69,0.89,-0.89,-1.01,-0.74,-1.59,-1.59,-1.59
25.39,-0.65,0.89,-0.66,0.89,-0.89,-1.00,-0.76,-1.55,-1.55,-1.55
25.65,-0.63,0.88,-0.62,0.89,-0.89,-0.99,-0.78,-1.51,-1.51,-1.51
25.91,-0.59,0.89,-0.59,0.89,-0.89,-0.98,-0.79,-1.47,-1.47,-1.48
26.16,-0.56,0.88,-0.56,0.89,-0.88,-0.98,-0.81,-1.44,-1.44,-1.44
26.43,-0.53,0.88,-0.53,0.88,-0.88,-0.97,-0.82,-1.41,-1.41,-1.41
26.69,-0.50,0.87,-0.50,0.88,-0.88,-0.97,-0.84,-1.37,-1.37,-1.37
26.96,-0.47,0.87,-0.46,0.87,-0.87,-0.96,-0.86,-1.34,-1.34,-1.33
27.23,-0.43,0.88,-0.43,0.87,-0.87,-0.95,-0.87,-1.30,-1.30,-1.30
27.50,-0.40,0.87,-0.40,0.87,-0.87,-0.95,-0.89,-1.26,-1.26,-1.26
27.77,-0.37,0.87,-0.36,0.87,-0.86,-0.94,-0.90,-1.23,-1.23,-1.23
28.05,-0.34,0.86,-0.34,0.86,-0.86,-0.94,-0.91,-1.20,-1.20,-1.19
28.33,-0.32,0.86,-0.31,0.86,-0.85,-0.93,-0.93,-1.17,-1.17,-1.17
28.62,-0.29,0.85,-0.28,0.85,-0.85,-0.93,-0.94,-1.14,-1.13,-1.14
28.90,-0.26,0.84,-0.26,0.84,-0.84,-0.93,-0.95,-1.10,-1.10,-1.10
29.19,-0.23,0.84,-0.23,0.83,-0.84,-0.92,-0.96,-1.06,-1.07,-1.07
29.48,-0.21,0.81,-0.20,0.83,-0.83,-0.92,-0.97,-1.03,-1.03,-1.02
29.78,-0.18,0.82,-0.17,0.82,-0.82,-0.92,-0.98,-1.00,-0.99,-1.00
30.08,-0.15,0.81,-0.15,0.81,-0.81,-0.91,-0.99,-0.96,-0.96,-0.96
30.38,-0.13,0.81,-0.12,0.81,-0.80,-0.91,-1.00,-0.93,-0.92,-0.93
30.68,-0.11,0.79,-0.11,0.79,-0.79,-0.91,-1.01,-0.90,-0.90,-0.89
30.99,-0.09,0.79,-0.09,0.78,-0.78,-0.91,-1.01,-0.86,-0.87,-0.87
31.30,-0.08,0.76,-0.07,0.76,-0.77,-0.91,-1.02,-0.84,-0.84,-0.84
31.61,-0.06,0.75,-0.06,0.75,-0.75,-0.91,-1.02,-0.81,-0.81,-0.81
31.93,-0.04,0.74,-0.04,0.74,-0.74,-0.90,-1.03,-0.78,-0.78,-0.78
32.24,-0.03,0.73,-0.02,0.73,-0.73,-0.90,-1.03,-0.75,-0.75,-0.76
32.57,-0.01,0.72,-0.01,0.72,-0.72,-0.90,-1.03,-0.72,-0.73,-0.73
32.89,0.00,0.70,0.01,0.71,-0.71,-0.90,-1.03,-0.70,-0.70,-0.69
33.22,0.02,0.70,0.02,0.70,-0.70,-0.90,-1.03,-0.68,-0.68,-0.67
33.55,0.04,0.70,0.04,0.69,-0.69,-0.91,-1.03,-0.65,-0.65,-0.65
33.89,0.05,0.69,0.06,0.69,-0.69,-0.91,-1.03,-0.63,-0.63,-0.64
34.23,0.07,0.68,0.07,0.69,-0.68,-0.91,-1.03,-0.61,-0.61,-0.61
34.57,0.08,0.67,0.09,0.68,-0.68,-0.91,-1.02,-0.59,-0.59,-0.59
34.92,0.10,0.69,0.10,0.67,-0.68,-0.91,-1.02,-0.57,-0.58,-0.58
35.27,0.11,0.67,0.11,0.67,-0.68,-0.91,-1.02,-0.56,-0.56,-0.55
35.62,0.12,0.67,0.13,0.67,-0.68,-0.92,-1.01,-0.55,-0.55,-0.55
35.97,0.14,0.68,0.14,0.67,-0.68,-0.92,-1.01,-0.53,-0.54,-0.54
36.33,0.15,0.67,0.16,0.68,-0.68,-0.92,-1.01,-0.52,-0.52,-0.52
36.70,0.17,0.69,0.17,0.68,-0.68,-0.93,-1.01,-0.50,-0.51,-0.51
37.06,0.18,0.69,0.18,0.68,-0.68,-0.93,-1.00,-0.49,-0.50,-0.50
37.43,0.19,0.68,0.20,0.69,-0.68,-0.94,-1.00,-0.49,-0.49,-0.49
37.81,0.20,0.68,0.20,0.68,-0.69,-0.94,-1.00,-0.48,-0.48,-0.48
38.19,0.21,0.69,0.21,0.68,-0.69,-0.95,-1.00,-0.48,-0.48,-0.47
38.57,0.22,0.69,0.22,0.69,-0.70,-0.95,-0.99,-0.48,-0.48,-0.46
38.95,0.23,0.70,0.24,0.70,-0.71,-0.96,-0.99,-0.48,-0.47,-0.47
39.34,0.25,0.73,0.25,0.72,-0.72,-0.96,-0.99,-0.47,-0.47,-0.47
39.74,0.27,0.74,0.27,0.74,-0.74,-0.97,-0.99,-0.47,-0.47,-0.46
40.14,0.29,0.76,0.30,0.76,-0.76,-0.98,-0.99,-0.46,-0.46,-0.47
40.54,0.31,0.78,0.31,0.78,-0.77,-0.98,-0.99,-0.46,-0.46,-0.47
40.94,0.33,0.80,0.33,0.80,-0.79,-0.99,-1.00,-0.46,-0.46,-0.46
41.35,0.34,0.81,0.35,0.81,-0.81,-1.00,-1.00,-0.46,-0.46,-0.47
41.76,0.36,0.83,0.36,0.83,-0.82,-1.01,-1.00,-0.46,-0.46,-0.46
42.18,0.38,0.84,0.38,0.84,-0.84,-1.01,-1.01,-0.46,-0.46,-0.46
42.60,0.39,0.85,0.40,0.85,-0.86,-1.02,-1.01,-0.47,-0.46,-0.46
43.03,0.41,0.87,0.42,0.87,-0.88,-1.03,-1.02,-0.47,-0.47,-0.45
43.46,0.44,0.90,0.44,0.90,-0.91,-1.04,-1.02,-0.46,-0.47,-0.46
43.90,0.46,0.94,0.47,0.94,-0.94,-1.05,-1.03,-0.47,-0.47,-0.47
44.33,0.49,0.97,0.50,0.97,-0.97,-1.06,-1.04,-0.47,-0.47,-0.48
44.78,0.52,1.01,0.52,1.00,-1.00,-1.07,-1.05,-0.47,-0.48,-0.48
45.23,0.54,1.03,0.54,1.03,-1.03,-1.08,-1.06,-0.49,-0.49,-0.49
45.68,0.56,1.06,0.57,1.06,-1.06,-1.09,-1.07,-0.50,-0.49,-0.49
46.13,0.59,1.09,0.59,1.09,-1.09,-1.10,-1.08,-0.49,-0.49,-0.50
46.60,0.62,1.12,0.62,1.12,-1.11,-1.11,-1.09,-0.49,-0.49,-0.49
47.06,0.64,1.13,0.65,1.14,-1.13,-1.13,-1.10,-0.49,-0.49,-0.49
47.53,0.66,1.16,0.66,1.15,-1.15,-1.14,-1.12,-0.49,-0.49,-0.50
48.01,0.67,1.16,0.68,1.17,-1.17,-1.15,-1.13,-0.50,-0.50,-0.48
48.49,0.68,1.18,0.69,1.18,-1.19,-1.16,-1.15,-0.51,-0.50,-0.50
48.97,0.70,1.21,0.70,1.21,-1.21,-1.18,-1.16,-0.50,-0.51,-0.51
49.46,0.71,1.23,0.72,1.23,-1.22,-1.19,-1.18,-0.51,-0.50,-0.51
49.96,0.73,1.25,0.73,1.24,-1.23,-1.21,-1.20,-0.50,-0.50,-0.52
50.46,0.74,1.24,0.74,1.25,-1.24,-1.22,-1.21,-0.50,-0.50,-0.50
50.96,0.75,1.25,0.75,1.26,-1.26,-1.23,-1.23,-0.50,-0.50,-0.50
51.47,0.76,1.27,0.77,1.26,-1.27,-1.25,-1.25,-0.50,-0.50,-0.50
51.99,0.78,1.28,0.78,1.27,-1.28,-1.26,-1.27,-0.50,-0.50,-0.49
52.51,0.80,1.29,0.80,1.29,-1.29,-1.28,-1.29,-0.49,-0.49,-0.48
53.03,0.82,1.29,0.83,1.30,-1.30,-1.30,-1.31,-0.48,-0.48,-0.47
53.56,0.85,1.32,0.85,1.32,-1.32,-1.31,-1.33,-0.46,-0.47,-0.47
54.10,0.87,1.34,0.87,1.34,-1.34,-1.33,-1.35,-0.46,-0.46,-0.47
54.64,0.89,1.35,0.89,1.36,-1.35,-1.34,-1.37,-0.46,-0.46,-0.46
55.18,0.91,1.37,0.91,1.37,-1.37,-1.36,-1.39,-0.46,-0.46,-0.46
55.74,0.92,1.38,0.93,1.39,-1.39,-1.38,-1.41,-0.46,-0.46,-0.46
56.29,0.94,1.41,0.95,1.41,-1.41,-1.40,-1.43,-0.46,-0.46,-0.46
56.86,0.96,1.43,0.96,1.43,-1.42,-1.41,-1.45,-0.46,-0.46,-0.46
57.42,0.97,1.45,0.97,1.45,-1.44,-1.43,-1.47,-0.47,-0.47,-0.48
58.00,0.98,1.46,0.99,1.47,-1.46,-1.45,-1.48,-0.48,-0.48,-0.48
58.58,1.00,1.48,1.00,1.48,-1.49,-1.47,-1.50,-0.48,-0.48,-0.48
59.16,1.02,1.51,1.02,1.51,-1.51,-1.49,-1.52,-0.49,-0.49,-0.48
59.76,1.04,1.53,1.05,1.53,-1.54,-1.51,-1.54,-0.50,-0.50,-0.49
60.35,1.06,1.57,1.06,1.57,-1.57,-1.53,-1.55,-0.51,-0.51,-0.50
60.96,1.08,1.60,1.08,1.60,-1.60,-1.55,-1.57,-0.52,-0.52,-0.52
61.57,1.09,1.64,1.10,1.63,-1.64,-1.57,-1.58,-0.54,-0.54,-0.54
62.18,1.10,1.67,1.11,1.67,-1.67,-1.59,-1.60,-0.56,-0.56,-0.57
62.80,1.12,1.70,1.12,1.70,-1.70,-1.61,-1.61,-0.57,-0.58,-0.57
63.43,1.13,1.73,1.14,1.73,-1.73,-1.63,-1.62,-0.59,-0.59,-0.60
64.07,1.14,1.75,1.15,1.75,-1.75,-1.65,-1.64,-0.60,-0.60,-0.61
64.71,1.15,1.77,1.15,1.77,-1.76,-1.67,-1.65,-0.61,-0.61,-0.61
65.35,1.15,1.78,1.16,1.78,-1.77,-1.70,-1.66,-0.61,-0.61,-0.62
66.01,1.15,1.78,1.15,1.78,-1.77,-1.72,-1.67,-0.62,-0.62,-0.63
66.67,1.14,1.78,1.14,1.78,-1.77,-1.74,-1.68,-0.63,-0.63,-0.64
67.33,1.12,1.76,1.12,1.76,-1.76,-1.76,-1.69,-0.64,-0.64,-0.64
68.01,1.10,1.74,1.11,1.75,-1.76,-1.78,-1.70,-0.65,-0.65,-0.64
68.69,1.10,1.74,1.10,1.74,-1.75,-1.81,-1.70,-0.65,-0.65,-0.64
69.37,1.10,1.74,1.10,1.74,-1.75,-1.83,-1.71,-0.64,-0.65,-0.64
70.07,1.10,1.75,1.11,1.75,-1.75,-1.85,-1.72,-0.64,-0.64,-0.64
70.77,1.11,1.75,1.11,1.75,-1.75,-1.88,-1.73,-0.64,-0.64,-0.63
71.48,1.12,1.76,1.12,1.76,-1.77,-1.90,-1.74,-0.64,-0.64,-0.64
72.19,1.13,1.78,1.14,1.78,-1.78,-1.92,-1.75,-0.65,-0.64,-0.64
72.91,1.15,1.80,1.15,1.80,-1.80,-1.94,-1.76,-0.65,-0.65,-0.65
73.64,1.17,1.83,1.17,1.83,-1.83,-1.97,-1.77,-0.65,-0.65,-0.66
74.38,1.19,1.85,1.19,1.85,-1.85,-1.99,-1.78,-0.66,-0.66,-0.66
75.12,1.21,1.88,1.22,1.88,-1.88,-2.01,-1.79,-0.66,-0.66,-0.66
75.87,1.24,1.90,1.24,1.90,-1.91,-2.03,-1.81,-0.66,-0.67,-0.66
76.63,1.27,1.94,1.27,1.93,-1.94,-2.05,-1.82,-0.66,-0.67,-0.67
77.40,1.29,1.96,1.30,1.97,-1.96,-2.07,-1.83,-0.67,-0.66,-0.66
78.17,1.32,2.00,1.33,1.99,-1.99,-2.09,-1.85,-0.66,-0.66,-0.67
78.95,1.35,2.01,1.35,2.01,-2.01,-2.11,-1.87,-0.65,-0.66,-0.66
79.74,1.37,2.02,1.38,2.03,-2.02,-2.13,-1.89,-0.65,-0.65,-0.65
80.54,1.39,2.03,1.40,2.04,-2.03,-2.15,-1.90,-0.64,-0.64,-0.64
81.35,1.41,2.05,1.41,2.04,-2.04,-2.17,-1.93,-0.62,-0.63,-0.63
82.16,1.42,2.05,1.42,2.04,-2.04,-2.18,-1.95,-0.61,-0.61,-0.62
82.98,1.43,2.03,1.44,2.04,-2.03,-2.20,-1.97,-0.60,-0.60,-0.59
83.81,1.44,2.03,1.44,2.03,-2.03,-2.21,-2.00,-0.58,-0.58,-0.59
84.65,1.45,2.03,1.45,2.02,-2.02,-2.22,-2.02,-0.57,-0.57,-0.58
85.50,1.46,2.01,1.46,2.01,-2.01,-2.23,-2.05,-0.55,-0.55,-0.54
86.35,1.47,2.00,1.47,2.00,-2.01,-2.24,-2.08,-0.53,-0.53,-0.53
87.22,1.48,2.00,1.49,2.00,-2.00,-2.25,-2.11,-0.52,-0.52,-0.51
88.09,1.50,2.01,1.50,2.00,-2.00,-2.26,-2.15,-0.50,-0.50,-0.51
88.97,1.52,2.01,1.52,2.01,-2.01,-2.27,-2.18,-0.49,-0.49,-0.48
89.86,1.54,2.02,1.54,2.02,-2.02,-2.28,-2.22,-0.48,-0.48,-0.48
90.76,1.56,2.05,1.57,2.04,-2.04,-2.29,-2.26,-0.48,-0.48,-0.48
91.66,1.59,2.06,1.59,2.07,-2.07,-2.31,-2.30,-0.48,-0.48,-0.47
92.58,1.62,2.11,1.63,2.11,-2.11,-2.33,-2.34,-0.49,-0.48,-0.49
93.51,1.67,2.16,1.67,2.15,-2.16,-2.36,-2.38,-0.49,-0.49,-0.48
94.44,1.71,2.21,1.71,2.21,-2.22,-2.40,-2.43,-0.50,-0.50,-0.49
95.39,1.75,2.26,1.76,2.27,-2.28,-2.44,-2.48,-0.52,-0.52,-0.51
96.34,1.81,2.35,1.81,2.34,-2.35,-2.48,-2.52,-0.53,-0.54,-0.54
97.30,1.85,2.42,1.85,2.42,-2.42,-2.53,-2.57,-0.56,-0.56,-0.57
98.28,1.89,2.49,1.90,2.49,-2.49,-2.58,-2.62,-0.59,-0.59,-0.59
99.26,1.94,2.57,1.94,2.57,-2.56,-2.63,-2.67,-0.61,-0.62,-0.62
100.25,1.97,2.64,1.97,2.63,-2.63,-2.68,-2.73,-0.65,-0.65,-0.66
101.25,2.00,2.71,2.00,2.70,-2.69,-2.73,-2.78,-0.69,-0.69,-0.70
102.27,2.01,2.75,2.02,2.76,-2.76,-2.77,-2.83,-0.74,-0.74,-0.73
103.29,2.03,2.81,2.04,2.81,-2.82,-2.82,-2.89,-0.78,-0.78,-0.78
104.32,2.05,2.86,2.05,2.86,-2.87,-2.86,-2.94,-0.82,-0.82,-0.81
105.37,2.07,2.92,2.08,2.92,-2.93,-2.90,-3.00,-0.85,-0.85,-0.85
106.42,2.09,2.97,2.10,2.98,-2.98,-2.94,-3.05,-0.88,-0.88,-0.88
107.48,2.11,3.03,2.11,3.03,-3.02,-2.98,-3.10,-0.91,-0.91,-0.92
108.56,2.12,3.08,2.12,3.08,-3.07,-3.01,-3.16,-0.94,-0.94,-0.96
109.64,2.12,3.12,2.12,3.11,-3.10,-3.05,-3.21,-0.98,-0.98,-1.00
110.74,2.11,3.14,2.12,3.14,-3.14,-3.08,-3.26,-1.02,-1.02,-1.03
111.85,2.10,3.15,2.11,3.16,-3.17,-3.12,-3.31,-1.07,-1.06,-1.04
112.97,2.10,3.20,2.10,3.19,-3.20,-3.15,-3.36,-1.09,-1.09,-1.09
114.10,2.10,3.22,2.10,3.22,-3.22,-3.18,-3.40,-1.12,-1.12,-1.11
115.24,2.10,3.24,2.10,3.24,-3.24,-3.21,-3.44,-1.14,-1.14,-1.14
116.39,2.10,3.26,2.10,3.27,-3.26,-3.24,-3.48,-1.16,-1.16,-1.16
117.55,2.10,3.29,2.10,3.29,-3.28,-3.26,-3.52,-1.18,-1.18,-1.19
118.73,2.10,3.31,2.10,3.30,-3.30,-3.29,-3.55,-1.20,-1.20,-1.20
119.92,2.10,3.31,2.10,3.32,-3.32,-3.32,-3.59,-1.21,-1.21,-1.21
121.12,2.10,3.33,2.10,3.33,-3.33,-3.34,-3.61,-1.23,-1.23,-1.23
122.33,2.10,3.35,2.10,3.34,-3.35,-3.37,-3.64,-1.24,-1.24,-1.24
123.55,2.10,3.35,2.10,3.36,-3.36,-3.39,-3.65,-1.25,-1.25,-1.25
124.79,2.10,3.37,2.10,3.37,-3.37,-3.41,-3.67,-1.27,-1.27,-1.26
126.03,2.10,3.38,2.10,3.38,-3.38,-3.43,-3.68,-1.28,-1.28,-1.28
127.29,2.10,3.39,2.10,3.39,-3.40,-3.46,-3.69,-1.29,-1.29,-1.28
128.57,2.10,3.41,2.10,3.41,-3.41,-3.48,-3.69,-1.30,-1.30,-1.31
129.85,2.10,3.43,2.10,3.43,-3.42,-3.49,-3.69,-1.32,-1.32,-1.32
131.15,2.10,3.44,2.10,3.44,-3.43,-3.51,-3.69,-1.33,-1.33,-1.33
132.46,2.10,3.45,2.10,3.45,-3.45,-3.53,-3.68,-1.34,-1.34,-1.35
133.79,2.10,3.45,2.10,3.46,-3.46,-3.55,-3.67,-1.36,-1.36,-1.35
135.12,2.10,3.48,2.10,3.47,-3.48,-3.56,-3.66,-1.37,-1.37,-1.38
136.48,2.10,3.49,2.10,3.49,-3.49,-3.58,-3.64,-1.39,-1.39,-1.38
137.84,2.10,3.51,2.10,3.51,-3.51,-3.59,-3.62,-1.41,-1.41,-1.40
139.22,2.10,3.54,2.10,3.53,-3.53,-3.61,-3.60,-1.42,-1.42,-1.43
140.61,2.10,3.55,2.10,3.55,-3.55,-3.62,-3.58,-1.44,-1.44,-1.45
142.02,2.10,3.56,2.10,3.57,-3.56,-3.63,-3.56,-1.46,-1.46,-1.46
143.44,2.10,3.58,2.10,3.59,-3.59,-3.64,-3.54,-1.48,-1.48,-1.48
144.87,2.10,3.61,2.10,3.61,-3.61,-3.65,-3.51,-1.51,-1.51,-1.50
146.32,2.10,3.64,2.10,3.63,-3.64,-3.66,-3.49,-1.53,-1.53,-1.53
147.78,2.10,3.64,2.11,3.65,-3.66,-3.67,-3.46,-1.56,-1.55,-1.54
149.26,2.11,3.68,2.12,3.69,-3.69,-3.67,-3.44,-1.58,-1.57,-1.56
150.75,2.12,3.73,2.12,3.72,-3.72,-3.68,-3.41,-1.59,-1.60,-1.61
152.26,2.12,3.76,2.12,3.75,-3.74,-3.69,-3.39,-1.62,-1.62,-1.63
153.78,2.11,3.77,2.12,3.78,-3.77,-3.69,-3.37,-1.65,-1.65,-1.66
155.32,2.10,3.79,2.10,3.79,-3.79,-3.69,-3.34,-1.68,-1.68,-1.69
156.88,2.08,3.80,2.09,3.80,-3.80,-3.70,-3.32,-1.72,-1.72,-1.71
158.44,2.07,3.82,2.07,3.81,-3.81,-3.70,-3.31,-1.74,-1.75,-1.74
160.03,2.03,3.82,2.04,3.82,-3.82,-3.70,-3.29,-1.79,-1.78,-1.79
161.63,2.01,3.83,2.01,3.83,-3.82,-3.70,-3.27,-1.81,-1.81,-1.82
163.24,1.98,3.83,1.98,3.82,-3.82,-3.70,-3.26,-1.83,-1.84,-1.85
164.88,1.93,3.80,1.95,3.82,-3.81,-3.70,-3.25,-1.88,-1.87,-1.87
166.53,1.91,3.81,1.91,3.81,-3.81,-3.69,-3.24,-1.89,-1.90,-1.90
168.19,1.88,3.82,1.87,3.80,-3.81,-3.69,-3.24,-1.92,-1.93,-1.93
169.87,1.83,3.79,1.85,3.80,-3.81,-3.69,-3.23,-1.97,-1.96,-1.95
171.57,1.81,3.79,1.82,3.80,-3.81,-3.68,-3.23,-1.99,-1.99,-1.98
173.29,1.80,3.81,1.80,3.80,-3.81,-3.67,-3.23,-2.01,-2.02,-2.01
175.02,1.78,3.81,1.79,3.82,-3.82,-3.67,-3.24,-2.04,-2.04,-2.02
176.77,1.77,3.83,1.78,3.84,-3.83,-3.66,-3.24,-2.06,-2.06,-2.06
178.54,1.77,3.86,1.77,3.85,-3.84,-3.65,-3.25,-2.07,-2.07,-2.09
180.32,1.76,3.86,1.76,3.86,-3.85,-3.64,-3.26,-2.09,-2.09,-2.10
182.13,1.75,3.86,1.75,3.87,-3.86,-3.63,-3.28,-2.10,-2.10,-2.10
183.95,1.73,3.86,1.74,3.86,-3.86,-3.62,-3.30,-2.12,-2.12,-2.13
185.79,1.71,3.86,1.72,3.86,-3.85,-3.61,-3.31,-2.14,-2.14,-2.14
187.65,1.69,3.85,1.69,3.85,-3.84,-3.60,-3.34,-2.15,-2.15,-2.16
189.52,1.66,3.83,1.66,3.83,-3.83,-3.59,-3.36,-2.17,-2.17,-2.17
191.42,1.62,3.81,1.63,3.81,-3.82,-3.57,-3.38,-2.20,-2.19,-2.18
193.33,1.60,3.80,1.60,3.79,-3.80,-3.56,-3.41,-2.20,-2.20,-2.19
195.27,1.57,3.78,1.58,3.78,-3.79,-3.54,-3.44,-2.21,-2.21,-2.21
197.22,1.55,3.77,1.55,3.77,-3.77,-3.53,-3.47,-2.21,-2.22,-2.22
199.19,1.52,3.77,1.52,3.76,-3.75,-3.51,-3.51,-2.23,-2.23,-2.25
201.18,1.48,3.73,1.49,3.74,-3.73,-3.50,-3.54,-2.25,-2.24,-2.25
203.19,1.45,3.71,1.45,3.71,-3.71,-3.48,-3.58,-2.26,-2.26,-2.26
205.23,1.41,3.69,1.41,3.68,-3.70,-3.46,-3.61,-2.28,-2.28,-2.28
207.28,1.37,3.65,1.38,3.67,-3.68,-3.44,-3.65,-2.30,-2.30,-2.28
209.35,1.35,3.65,1.35,3.65,-3.66,-3.43,-3.68,-2.30,-2.30,-2.30
211.44,1.33,3.65,1.33,3.64,-3.64,-3.41,-3.72,-2.30,-2.31,-2.32
213.56,1.30,3.62,1.30,3.62,-3.61,-3.39,-3.76,-2.31,-2.31,-2.31
215.69,1.27,3.59,1.27,3.59,-3.59,-3.37,-3.79,-2.31,-2.31,-2.31
217.85,1.23,3.56,1.24,3.57,-3.56,-3.34,-3.83,-2.32,-2.32,-2.32
220.03,1.20,3.54,1.20,3.54,-3.52,-3.32,-3.86,-2.32,-2.32,-2.34
222.23,1.16,3.51,1.16,3.50,-3.48,-3.30,-3.89,-2.32,-2.33,-2.35
224.45,1.10,3.44,1.11,3.45,-3.44,-3.28,-3.92,-2.34,-2.34,-2.33
226.70,1.05,3.39,1.05,3.40,-3.40,-3.26,-3.94,-2.35,-2.35,-2.34
228.96,1.00,3.35,1.01,3.35,-3.37,-3.23,-3.96,-2.36,-2.36,-2.35
231.25,0.97,3.32,0.97,3.32,-3.34,-3.21,-3.98,-2.36,-2.37,-2.34
233.57,0.94,3.29,0.94,3.29,-3.31,-3.19,-3.99,-2.36,-2.36,-2.35
235.90,0.91,3.27,0.92,3.28,-3.28,-3.16,-4.00,-2.37,-2.36,-2.36
238.26,0.90,3.28,0.90,3.27,-3.26,-3.14,-4.01,-2.35,-2.36,-2.37
240.64,0.88,3.25,0.88,3.25,-3.24,-3.11,-4.00,-2.35,-2.35,-2.37
243.05,0.85,3.23,0.86,3.23,-3.21,-3.09,-4.00,-2.36,-2.36,-2.37
245.48,0.82,3.19,0.82,3.19,-3.19,-3.06,-3.98,-2.36,-2.37,-2.37
247.93,0.78,3.16,0.79,3.16,-3.16,-3.04,-3.96,-2.38,-2.38,-2.37
250.41,0.75,3.13,0.75,3.12,-3.13,-3.01,-3.94,-2.38,-2.38,-2.38
252.92,0.72,3.09,0.73,3.09,-3.09,-2.98,-3.90,-2.37,-2.37,-2.36
255.45,0.70,3.05,0.70,3.06,-3.06,-2.96,-3.86,-2.35,-2.35,-2.35
258.00,0.68,3.02,0.68,3.02,-3.01,-2.93,-3.82,-2.33,-2.33,-2.34
260.58,0.65,2.99,0.65,2.98,-2.97,-2.90,-3.77,-2.32,-2.32,-2.33
263.19,0.62,2.93,0.62,2.93,-2.93,-2.87,-3.71,-2.30,-2.31,-2.31
265.82,0.57,2.88,0.58,2.88,-2.88,-2.85,-3.65,-2.31,-2.30,-2.30
268.48,0.55,2.84,0.55,2.84,-2.84,-2.82,-3.58,-2.28,-2.28,-2.29
271.16,0.52,2.79,0.52,2.79,-2.80,-2.79,-3.51,-2.27,-2.28,-2.27
273.87,0.49,2.75,0.50,2.75,-2.76,-2.76,-3.43,-2.27,-2.27,-2.25
276.61,0.47,2.71,0.48,2.72,-2.74,-2.73,-3.35,-2.26,-2.26,-2.24
279.38,0.46,2.69,0.47,2.70,-2.71,-2.70,-3.26,-2.25,-2.24,-2.23
282.17,0.47,2.70,0.47,2.69,-2.70,-2.67,-3.17,-2.22,-2.22,-2.22
284.99,0.48,2.68,0.48,2.69,-2.68,-2.63,-3.08,-2.19,-2.19,-2.19
287.84,0.49,2.68,0.49,2.68,-2.66,-2.60,-2.98,-2.17,-2.17,-2.19
290.72,0.49,2.66,0.49,2.66,-2.64,-2.57,-2.88,-2.15,-2.15,-2.17
293.63,0.47,2.63,0.48,2.63,-2.62,-2.54,-2.78,-2.14,-2.14,-2.15
296.57,0.45,2.58,0.46,2.59,-2.58,-2.50,-2.68,-2.13,-2.13,-2.13
299.53,0.43,2.55,0.43,2.55,-2.54,-2.47,-2.58,-2.11,-2.11,-2.12
302.53,0.40,2.50,0.41,2.50,-2.50,-2.43,-2.47,-2.09,-2.09,-2.10
305.55,0.37,2.44,0.37,2.45,-2.44,-2.40,-2.37,-2.07,-2.07,-2.06
308.61,0.34,2.39,0.34,2.38,-2.39,-2.36,-2.26,-2.04,-2.05,-2.04
311.69,0.30,2.32,0.31,2.32,-2.33,-2.33,-2.15,-2.03,-2.02,-2.02
314.81,0.28,2.26,0.28,2.27,-2.28,-2.29,-2.04,-1.99,-1.99,-1.98
317.96,0.26,2.22,0.26,2.22,-2.22,-2.25,-1.94,-1.95,-1.96,-1.96
321.14,0.23,2.17,0.23,2.17,-2.16,-2.21,-1.83,-1.93,-1.93,-1.93
324.35,0.20,2.12,0.20,2.11,-2.10,-2.17,-1.72,-1.90,-1.90,-1.91
327.59,0.16,2.05,0.17,2.05,-2.05,-2.13,-1.61,-1.89,-1.88,-1.89
330.87,0.13,1.99,0.13,1.99,-2.00,-2.08,-1.51,-1.86,-1.87,-1.86
334.18,0.10,1.94,0.10,1.93,-1.95,-2.04,-1.40,-1.84,-1.85,-1.84
337.52,0.06,1.87,0.07,1.88,-1.90,-1.99,-1.30,-1.83,-1.82,-1.81
340.90,0.05,1.84,0.06,1.84,-1.84,-1.94,-1.19,-1.79,-1.79,-1.78
344.30,0.04,1.80,0.04,1.80,-1.79,-1.89,-1.08,-1.74,-1.75,-1.75
347.75,0.02,1.76,0.02,1.75,-1.73,-1.84,-0.98,-1.71,-1.71,-1.73
351.23,-0.02,1.69,-0.01,1.69,-1.68,-1.79,-0.88,-1.69,-1.69,-1.71
354.74,-0.06,1.62,-0.06,1.62,-1.61,-1.74,-0.77,-1.67,-1.67,-1.68
358.28,-0.11,1.55,-0.11,1.55,-1.55,-1.68,-0.67,-1.66,-1.66,-1.66
361.87,-0.16,1.47,-0.15,1.48,-1.49,-1.62,-0.57,-1.64,-1.64,-1.63
365.49,-0.21,1.40,-0.20,1.41,-1.42,-1.56,-0.47,-1.63,-1.62,-1.61
369.14,-0.24,1.36,-0.24,1.35,-1.35,-1.50,-0.36,-1.59,-1.59,-1.59
372.83,-0.28,1.30,-0.28,1.29,-1.29,-1.43,-0.26,-1.57,-1.57,-1.57
376.56,-0.33,1.23,-0.32,1.23,-1.23,-1.36,-0.16,-1.56,-1.55,-1.55
380.33,-0.37,1.16,-0.36,1.17,-1.18,-1.30,-0.07,-1.54,-1.54,-1.52
384.13,-0.40,1.12,-0.40,1.12,-1.12,-1.23,0.03,-1.51,-1.52,-1.51
387.97,-0.44,1.07,-0.44,1.07,-1.06,-1.16,0.13,-1.49,-1.50,-1.51
391.85,-0.49,1.01,-0.48,1.01,-1.00,-1.09,0.23,-1.48,-1.48,-1.50
395.77,-0.54,0.94,-0.54,0.94,-0.93,-1.02,0.32,-1.47,-1.47,-1.48
399.73,-0.60,0.87,-0.60,0.87,-0.87,-0.95,0.42,-1.46,-1.46,-1.47
403.72,-0.66,0.80,-0.66,0.80,-0.81,-0.88,0.51,-1.46,-1.46,-1.46
407.76,-0.72,0.73,-0.71,0.73,-0.74,-0.81,0.60,-1.46,-1.46,-1.45
411.84,-0.78,0.65,-0.77,0.67,-0.68,-0.75,0.69,-1.45,-1.45,-1.43
415.96,-0.82,0.62,-0.82,0.61,-0.62,-0.69,0.78,-1.43,-1.44,-1.43
420.12,-0.88,0.56,-0.87,0.56,-0.55,-0.63,0.87,-1.43,-1.43,-1.43
424.32,-0.93,0.51,-0.93,0.51,-0.49,-0.57,0.96,-1.42,-1.42,-1.43
428.56,-0.99,0.45,-0.99,0.44,-0.44,-0.52,1.04,-1.42,-1.43,-1.43
432.85,-1.06,0.38,-1.06,0.38,-0.38,-0.46,1.12,-1.43,-1.43,-1.43
437.18,-1.14,0.30,-1.12,0.31,-0.32,-0.41,1.20,-1.45,-1.44,-1.43
441.55,-1.19,0.25,-1.19,0.25,-0.25,-0.35,1.27,-1.44,-1.44,-1.43
445.96,-1.25,0.19,-1.25,0.19,-0.19,-0.30,1.34,-1.43,-1.44,-1.43
450.42,-1.32,0.13,-1.32,0.12,-0.12,-0.24,1.41,-1.43,-1.44,-1.44
454.93,-1.40,0.05,-1.40,0.05,-0.05,-0.18,1.47,-1.44,-1.44,-1.45
