frequency,raw,error,smoothed,error_smoothed,equalization,parametric_eq,fixed_band_eq,equalized_raw,equalized_smoothed,target
20.00,17.88,10.27,17.88,10.27,-10.27,-10.53,-4.42,7.61,7.61,7.61
20.20,17.87,10.28,17.87,10.27,-10.27,-10.51,-4.54,7.60,7.60,7.59
20.40,17.85,10.27,17.85,10.26,-10.26,-10.49,-4.66,7.59,7.59,7.58
20.61,17.83,10.25,17.83,10.26,-10.26,-10.47,-4.78,7.57,7.58,7.58
20.81,17.82,10.26,17.82,10.25,-10.25,-10.45,-4.91,7.57,7.57,7.56
21.02,17.80,10.25,17.80,10.25,-10.24,-10.42,-5.04,7.56,7.56,7.55
21.23,17.78,10.24,17.78,10.23,-10.23,-10.40,-5.18,7.55,7.55,7.54
21.44,17.76,10.21,17.76,10.21,-10.22,-10.38,-5.32,7.54,7.54,7.55
21.66,17.73,10.19,17.73,10.19,-10.20,-10.36,-5.46,7.53,7.54,7.54
21.87,17.71,10.18,17.71,10.18,-10.18,-10.33,-5.60,7.53,7.53,7.53
22.09,17.69,10.17,17.69,10.16,-10.16,-10.31,-5.75,7.53,7.53,7.52
22.31,17.66,10.14,17.66,10.14,-10.14,-10.28,-5.91,7.52,7.52,7.52
22.54,17.63,10.12,17.63,10.12,-10.11,-10.26,-6.06,7.52,7.52,7.51
22.76,17.60,10.08,17.60,10.09,-10.09,-10.23,-6.23,7.51,7.51,7.52
22.99,17.57,10.06,17.57,10.06,-10.07,-10.21,-6.39,7.50,7.50,7.51
23.22,17.54,10.04,17.54,10.04,-10.04,-10.18,-6.56,7.50,7.50,7.50
23.45,17.51,10.01,17.51,10.01,-10.01,-10.16,-6.74,7.50,7.50,7.50
23.69,17.48,9.98,17.48,9.98,-9.98,-10.13,-6.91,7.50,7.50,7.50
23.92,17.45,9.95,17.45,9.95,-9.95,-10.10,-7.10,7.50,7.50,7.50
24.16,17.42,9.92,17.42,9.92,-9.93,-10.08,-7.28,7.49,7.50,7.50
24.40,17.40,9.89,17.40,9.89,-9.90,-10.05,-7.47,7.50,7.50,7.50
24.65,17.37,9.87,17.37,9.87,-9.87,-10.02,-7.66,7.50,7.50,7.50
24.89,17.34,9.85,17.34,9.85,-9.85,-10.00,-7.86,7.49,7.49,7.49
25.14,17.31,9.83,17.31,9.82,-9.82,-9.97,-8.06,7.49,7.49,7.48
25.39,17.28,9.80,17.28,9.80,-9.80,-9.94,-8.26,7.48,7.48,7.48
25.65,17.25,9.78,17.25,9.78,-9.77,-9.92,-8.46,7.48,7.48,7.47
25.91,17.22,9.75,17.22,9.75,-9.75,-9.89,-8.67,7.47,7.47,7.47
26.16,17.19,9.71,17.19,9.72,-9.72,-9.86,-8.88,7.47,7.47,7.48
26.43,17.16,9.69,17.16,9.69,-9.70,-9.83,-9.09,7.46,7.47,7.47
26.69,17.14,9.67,17.14,9.67,-9.67,-9.81,-9.29,7.47,7.47,7.47
26.96,17.11,9.64,17.11,9.65,-9.64,-9.78,-9.50,7.47,7.47,7.47
27.23,17.08,9.63,17.08,9.62,-9.62,-9.75,-9.70,7.46,7.47,7.46
27.50,17.05,9.60,17.05,9.59,-9.59,-9.73,-9.90,7.46,7.46,7.45
27.77,17.02,9.56,17.02,9.56,-9.56,-9.70,-10.10,7.46,7.46,7.46
28.05,16.99,9.53,16.99,9.53,-9.53,-9.67,-10.29,7.46,7.46,7.46
28.33,16.96,9.50,16.96,9.50,-9.50,-9.64,-10.47,7.46,7.46,7.46
28.62,16.93,9.47,16.93,9.47,-9.47,-9.62,-10.65,7.46,7.46,7.46
28.90,16.91,9.44,16.91,9.44,-9.44,-9.59,-10.81,7.47,7.47,7.47
29.19,16.88,9.41,16.88,9.42,-9.41,-9.56,-10.96,7.47,7.47,7.47
29.48,16.85,9.38,16.85,9.38,-9.38,-9.54,-11.10,7.47,7.47,7.46
29.78,16.82,9.36,16.82,9.35,-9.35,-9.51,-11.23,7.47,7.47,7.46
30.08,16.79,9.31,16.79,9.32,-9.32,-9.48,-11.33,7.47,7.47,7.48
30.38,16.76,9.29,16.76,9.29,-9.29,-9.46,-11.42,7.47,7.47,7.47
30.68,16.73,9.26,16.73,9.26,-9.26,-9.43,-11.49,7.47,7.47,7.47
30.99,16.70,9.23,16.70,9.24,-9.24,-9.41,-11.54,7.46,7.47,7.47
31.30,16.68,9.22,16.68,9.21,-9.21,-9.38,-11.57,7.47,7.46,7.46
31.61,16.65,9.19,16.65,9.19,-9.19,-9.35,-11.59,7.46,7.46,7.46
31.93,16.62,9.17,16.62,9.17,-9.16,-9.33,-11.58,7.46,7.46,7.45
32.24,16.59,9.14,16.59,9.14,-9.14,-9.30,-11.55,7.45,7.45,7.45
32.57,16.56,9.12,16.56,9.12,-9.12,-9.28,-11.51,7.44,7.44,7.44
32.89,16.53,9.10,16.53,9.09,-9.09,-9.25,-11.45,7.43,7.43,7.43
33.22,16.50,9.07,16.50,9.07,-9.07,-9.23,-11.37,7.43,7.42,7.43
33.55,16.47,9.04,16.47,9.05,-9.05,-9.20,-11.29,7.42,7.42,7.43
33.89,16.44,9.02,16.45,9.03,-9.03,-9.18,-11.19,7.41,7.41,7.42
34.23,16.43,9.03,16.42,9.02,-9.02,-9.15,-11.07,7.41,7.41,7.40
34.57,16.40,9.00,16.40,9.00,-9.00,-9.13,-10.96,7.40,7.41,7.40
34.92,16.38,8.99,16.38,8.98,-8.98,-9.10,-10.83,7.40,7.40,7.39
35.27,16.34,8.95,16.34,8.96,-8.96,-9.08,-10.70,7.38,7.39,7.40
35.62,16.31,8.95,16.31,8.94,-8.94,-9.05,-10.56,7.37,7.37,7.36
35.97,16.27,8.91,16.27,8.91,-8.91,-9.03,-10.42,7.36,7.35,7.36
36.33,16.23,8.88,16.23,8.89,-8.89,-9.01,-10.28,7.34,7.34,7.35
36.70,16.19,8.86,16.19,8.86,-8.87,-8.98,-10.14,7.32,7.33,7.33
37.06,16.16,8.84,16.16,8.84,-8.84,-8.96,-10.00,7.32,7.32,7.32
37.43,16.13,8.83,16.13,8.82,-8.82,-8.94,-9.86,7.31,7.31,7.30
37.81,16.09,8.80,16.09,8.80,-8.80,-8.91,-9.73,7.29,7.29,7.29
38.19,16.04,8.77,16.04,8.77,-8.77,-8.89,-9.59,7.27,7.27,7.27
38.57,16.00,8.75,16.00,8.75,-8.75,-8.87,-9.46,7.25,7.25,7.25
38.95,15.95,8.72,15.95,8.72,-8.73,-8.84,-9.34,7.22,7.22,7.23
39.34,15.91,8.71,15.91,8.70,-8.71,-8.82,-9.21,7.20,7.20,7.20
39.74,15.87,8.68,15.87,8.68,-8.68,-8.80,-9.10,7.19,7.19,7.19
40.14,15.83,8.67,15.83,8.67,-8.66,-8.77,-8.98,7.17,7.17,7.16
40.54,15.79,8.64,15.79,8.64,-8.64,-8.75,-8.88,7.15,7.15,7.15
40.94,15.74,8.62,15.74,8.61,-8.62,-8.73,-8.77,7.12,7.12,7.12
41.35,15.69,8.58,15.69,8.59,-8.60,-8.71,-8.68,7.09,7.10,7.11
41.76,15.65,8.56,15.65,8.56,-8.57,-8.68,-8.59,7.08,7.08,7.09
42.18,15.62,8.55,15.62,8.55,-8.55,-8.66,-8.50,7.07,7.07,7.07
42.60,15.59,8.54,15.58,8.53,-8.52,-8.64,-8.42,7.07,7.06,7.05
43.03,15.54,8.52,15.54,8.51,-8.49,-8.62,-8.35,7.05,7.04,7.02
43.46,15.48,8.47,15.48,8.48,-8.47,-8.60,-8.28,7.01,7.01,7.01
43.90,15.42,8.44,15.42,8.44,-8.44,-8.57,-8.22,6.98,6.98,6.98
44.33,15.36,8.40,15.36,8.40,-8.42,-8.55,-8.17,6.94,6.95,6.96
44.78,15.31,8.38,15.31,8.37,-8.39,-8.53,-8.12,6.92,6.92,6.93
45.23,15.26,8.35,15.26,8.35,-8.36,-8.51,-8.07,6.90,6.90,6.92
45.68,15.22,8.34,15.22,8.34,-8.34,-8.49,-8.03,6.88,6.88,6.88
46.13,15.18,8.34,15.17,8.33,-8.32,-8.47,-8.00,6.86,6.86,6.84
46.60,15.12,8.31,15.12,8.31,-8.30,-8.44,-7.97,6.82,6.82,6.81
47.06,15.06,8.28,15.06,8.28,-8.29,-8.42,-7.95,6.77,6.77,6.78
47.53,15.00,8.25,15.00,8.26,-8.27,-8.40,-7.94,6.73,6.73,6.75
48.01,14.95,8.25,14.96,8.25,-8.26,-8.38,-7.93,6.69,6.70,6.70
48.49,14.92,8.25,14.92,8.25,-8.25,-8.36,-7.92,6.67,6.67,6.67
48.97,14.88,8.25,14.88,8.25,-8.24,-8.34,-7.92,6.64,6.64,6.63
49.46,14.83,8.23,14.83,8.24,-8.23,-8.32,-7.92,6.60,6.60,6.60
49.96,14.78,8.23,14.78,8.22,-8.22,-8.30,-7.93,6.56,6.56,6.55
50.46,14.72,8.19,14.73,8.20,-8.21,-8.27,-7.94,6.51,6.52,6.53
50.96,14.68,8.19,14.68,8.19,-8.19,-8.25,-7.95,6.49,6.49,6.49
51.47,14.64,8.18,14.64,8.18,-8.18,-8.23,-7.97,6.46,6.46,6.46
51.99,14.60,8.17,14.60,8.17,-8.16,-8.21,-7.99,6.44,6.44,6.43
52.51,14.55,8.16,14.55,8.15,-8.15,-8.19,-8.01,6.41,6.40,6.39
53.03,14.49,8.12,14.49,8.13,-8.13,-8.17,-8.04,6.36,6.36,6.37
53.56,14.43,8.10,14.43,8.10,-8.11,-8.15,-8.06,6.32,6.32,6.33
54.10,14.38,8.09,14.38,8.09,-8.10,-8.13,-8.09,6.28,6.28,6.29
54.64,14.33,8.07,14.33,8.08,-8.08,-8.11,-8.12,6.25,6.25,6.26
55.18,14.27,8.06,14.27,8.06,-8.06,-8.08,-8.14,6.21,6.22,6.21
55.74,14.22,8.05,14.22,8.04,-8.03,-8.06,-8.17,6.19,6.19,6.17
56.29,14.16,8.00,14.16,8.01,-8.01,-8.04,-8.20,6.15,6.16,6.16
56.86,14.11,7.98,14.11,7.99,-7.98,-8.02,-8.22,6.13,6.13,6.13
57.42,14.05,7.96,14.05,7.95,-7.95,-8.00,-8.24,6.10,6.10,6.09
58.00,13.99,7.93,13.99,7.92,-7.92,-7.98,-8.25,6.07,6.07,6.06
58.58,13.92,7.87,13.92,7.88,-7.89,-7.96,-8.27,6.03,6.04,6.05
59.16,13.86,7.84,13.87,7.85,-7.86,-7.94,-8.27,6.00,6.01,6.02
59.76,13.82,7.83,13.81,7.82,-7.83,-7.92,-8.28,5.99,5.98,5.99
60.35,13.76,7.81,13.76,7.81,-7.81,-7.89,-8.27,5.95,5.95,5.95
60.96,13.69,7.78,13.69,7.79,-7.79,-7.87,-8.27,5.90,5.90,5.91
61.57,13.62,7.77,13.62,7.77,-7.77,-7.85,-8.25,5.85,5.85,5.85
62.18,13.56,7.75,13.56,7.75,-7.75,-7.83,-8.23,5.81,5.81,5.81
62.80,13.50,7.73,13.50,7.74,-7.73,-7.81,-8.20,5.77,5.77,5.76
63.43,13.45,7.73,13.44,7.72,-7.71,-7.79,-8.17,5.74,5.74,5.72
64.07,13.38,7.70,13.38,7.69,-7.68,-7.76,-8.13,5.70,5.69,5.68
64.71,13.30,7.65,13.30,7.66,-7.66,-7.74,-8.09,5.64,5.65,5.65
65.35,13.23,7.62,13.23,7.62,-7.63,-7.72,-8.03,5.60,5.60,5.61
66.01,13.17,7.60,13.17,7.59,-7.61,-7.70,-7.98,5.56,5.56,5.57
66.67,13.11,7.57,13.11,7.58,-7.58,-7.68,-7.92,5.53,5.53,5.54
67.33,13.06,7.57,13.05,7.56,-7.55,-7.65,-7.85,5.51,5.50,5.49
68.01,12.99,7.54,12.99,7.53,-7.53,-7.63,-7.78,5.46,5.46,5.45
68.69,12.92,7.51,12.92,7.51,-7.50,-7.61,-7.70,5.42,5.42,5.41
69.37,12.85,7.47,12.86,7.48,-7.48,-7.59,-7.62,5.37,5.37,5.38
70.07,12.80,7.45,12.80,7.45,-7.46,-7.56,-7.54,5.34,5.34,5.35
70.77,12.74,7.44,12.74,7.44,-7.44,-7.54,-7.46,5.30,5.30,5.30
71.48,12.69,7.43,12.68,7.42,-7.43,-7.52,-7.38,5.26,5.26,5.26
72.19,12.62,7.41,12.62,7.41,-7.41,-7.50,-7.29,5.21,5.21,5.21
72.91,12.56,7.38,12.57,7.39,-7.39,-7.47,-7.21,5.17,5.17,5.18
73.64,12.51,7.38,12.51,7.38,-7.38,-7.45,-7.13,5.13,5.13,5.13
74.38,12.47,7.38,12.46,7.37,-7.36,-7.42,-7.04,5.11,5.10,5.09
75.12,12.41,7.35,12.41,7.35,-7.34,-7.40,-6.96,5.07,5.07,5.06
75.87,12.35,7.32,12.35,7.32,-7.32,-7.38,-6.88,5.03,5.03,5.03
76.63,12.28,7.28,12.29,7.29,-7.29,-7.35,-6.80,4.99,5.00,5.00
77.40,12.23,7.26,12.23,7.26,-7.26,-7.33,-6.73,4.97,4.97,4.97
78.17,12.18,7.24,12.18,7.23,-7.23,-7.31,-6.66,4.95,4.95,4.94
78.95,12.12,7.21,12.12,7.20,-7.20,-7.28,-6.59,4.92,4.92,4.91
79.74,12.05,7.16,12.05,7.16,-7.16,-7.26,-6.52,4.89,4.89,4.89
80.54,11.98,7.12,11.98,7.12,-7.13,-7.23,-6.46,4.85,4.85,4.85
81.35,11.91,7.08,11.92,7.09,-7.10,-7.21,-6.40,4.81,4.82,4.83
82.16,11.86,7.06,11.86,7.06,-7.06,-7.18,-6.34,4.80,4.80,4.80
82.98,11.80,7.03,11.80,7.03,-7.03,-7.16,-6.29,4.77,4.77,4.77
83.81,11.74,7.01,11.73,7.00,-6.99,-7.13,-6.25,4.75,4.74,4.73
84.65,11.66,6.96,11.66,6.97,-6.96,-7.10,-6.20,4.70,4.70,4.70
85.50,11.59,6.93,11.59,6.93,-6.93,-7.08,-6.16,4.66,4.66,4.66
86.35,11.52,6.89,11.53,6.90,-6.90,-7.05,-6.13,4.62,4.62,4.63
87.22,11.47,6.87,11.47,6.87,-6.88,-7.03,-6.10,4.59,4.59,4.60
88.09,11.41,6.85,11.41,6.85,-6.85,-7.00,-6.08,4.56,4.56,4.56
88.97,11.34,6.82,11.34,6.82,-6.82,-6.97,-6.06,4.52,4.52,4.52
89.86,11.28,6.80,11.28,6.80,-6.80,-6.95,-6.04,4.48,4.49,4.48
90.76,11.22,6.77,11.22,6.77,-6.77,-6.92,-6.03,4.45,4.45,4.45
91.66,11.17,6.76,11.17,6.75,-6.75,-6.89,-6.02,4.42,4.42,4.41
92.58,11.11,6.73,11.11,6.73,-6.72,-6.86,-6.02,4.39,4.38,4.38
93.51,11.04,6.70,11.04,6.70,-6.70,-6.84,-6.02,4.34,4.34,4.34
94.44,10.98,6.67,10.98,6.67,-6.68,-6.81,-6.03,4.30,4.30,4.31
95.39,10.91,6.65,10.91,6.65,-6.66,-6.78,-6.04,4.25,4.26,4.26
96.34,10.86,6.64,10.86,6.64,-6.64,-6.75,-6.05,4.22,4.22,4.22
97.30,10.80,6.62,10.80,6.62,-6.62,-6.72,-6.07,4.18,4.18,4.18
98.28,10.75,6.61,10.74,6.61,-6.60,-6.69,-6.09,4.15,4.14,4.14
99.26,10.68,6.58,10.68,6.58,-6.58,-6.67,-6.11,4.10,4.10,4.10
100.25,10.62,6.56,10.63,6.56,-6.56,-6.64,-6.14,4.06,4.07,4.06
101.25,10.57,6.53,10.57,6.54,-6.53,-6.61,-6.17,4.04,4.04,4.04
102.27,10.52,6.52,10.51,6.51,-6.50,-6.58,-6.20,4.02,4.01,4.00
103.29,10.45,6.48,10.45,6.48,-6.48,-6.55,-6.23,3.97,3.98,3.97
104.32,10.39,6.44,10.39,6.44,-6.45,-6.52,-6.27,3.94,3.94,3.95
105.37,10.32,6.41,10.32,6.41,-6.42,-6.49,-6.30,3.90,3.90,3.91
106.42,10.26,6.38,10.27,6.38,-6.39,-6.45,-6.34,3.87,3.88,3.88
107.48,10.21,6.36,10.21,6.36,-6.36,-6.42,-6.38,3.85,3.85,3.85
108.56,10.16,6.34,10.15,6.34,-6.33,-6.39,-6.42,3.83,3.82,3.82
109.64,10.09,6.31,10.09,6.31,-6.30,-6.36,-6.46,3.79,3.79,3.78
110.74,10.02,6.27,10.03,6.28,-6.28,-6.33,-6.49,3.74,3.75,3.75
111.85,9.96,6.24,9.96,6.25,-6.25,-6.30,-6.53,3.71,3.71,3.72
112.97,9.91,6.23,9.90,6.22,-6.22,-6.26,-6.56,3.69,3.68,3.68
114.10,9.84,6.19,9.84,6.20,-6.20,-6.23,-6.59,3.64,3.64,3.65
115.24,9.77,6.16,9.77,6.16,-6.17,-6.20,-6.61,3.60,3.60,3.61
116.39,9.70,6.14,9.70,6.13,-6.14,-6.17,-6.63,3.56,3.56,3.56
117.55,9.63,6.10,9.64,6.11,-6.11,-6.13,-6.65,3.52,3.53,3.53
118.73,9.58,6.09,9.58,6.08,-6.08,-6.10,-6.66,3.50,3.50,3.49
119.92,9.52,6.06,9.52,6.05,-6.04,-6.06,-6.67,3.48,3.47,3.46
121.12,9.45,6.01,9.45,6.02,-6.01,-6.03,-6.67,3.44,3.44,3.44
122.33,9.38,5.97,9.38,5.97,-5.98,-6.00,-6.66,3.40,3.40,3.41
123.55,9.31,5.94,9.31,5.94,-5.94,-5.96,-6.65,3.37,3.37,3.37
124.79,9.25,5.90,9.25,5.91,-5.91,-5.93,-6.63,3.34,3.34,3.35
126.03,9.20,5.89,9.19,5.88,-5.88,-5.89,-6.61,3.32,3.31,3.31
127.29,9.13,5.85,9.13,5.85,-5.85,-5.86,-6.57,3.28,3.28,3.28
128.57,9.06,5.81,9.06,5.82,-5.82,-5.82,-6.53,3.24,3.24,3.25
129.85,8.99,5.78,8.99,5.78,-5.79,-5.78,-6.49,3.20,3.20,3.21
131.15,8.93,5.76,8.93,5.76,-5.76,-5.75,-6.44,3.17,3.17,3.17
132.46,8.87,5.74,8.87,5.74,-5.73,-5.71,-6.38,3.14,3.14,3.13
133.79,8.81,5.72,8.81,5.71,-5.70,-5.67,-6.31,3.11,3.10,3.09
135.12,8.74,5.68,8.74,5.68,-5.68,-5.64,-6.25,3.06,3.06,3.06
136.48,8.67,5.63,8.67,5.64,-5.64,-5.60,-6.17,3.03,3.03,3.04
137.84,8.61,5.60,8.61,5.61,-5.61,-5.56,-6.10,3.00,3.00,3.01
139.22,8.55,5.59,8.55,5.58,-5.58,-5.52,-6.02,2.97,2.97,2.96
140.61,8.48,5.54,8.48,5.55,-5.54,-5.49,-5.93,2.94,2.94,2.94
142.02,8.41,5.50,8.41,5.51,-5.50,-5.45,-5.85,2.91,2.91,2.91
143.44,8.34,5.47,8.34,5.46,-5.46,-5.41,-5.76,2.88,2.88,2.87
144.87,8.28,5.42,8.28,5.42,-5.42,-5.37,-5.67,2.86,2.86,2.86
146.32,8.21,5.38,8.21,5.37,-5.38,-5.33,-5.58,2.83,2.83,2.83
147.78,8.14,5.33,8.14,5.33,-5.33,-5.29,-5.49,2.81,2.81,2.81
149.26,8.07,5.29,8.07,5.29,-5.29,-5.25,-5.40,2.78,2.78,2.78
150.75,8.01,5.25,8.01,5.24,-5.24,-5.21,-5.31,2.77,2.76,2.76
152.26,7.94,5.20,7.94,5.20,-5.20,-5.17,-5.22,2.74,2.74,2.74
153.78,7.87,5.15,7.87,5.16,-5.15,-5.13,-5.13,2.72,2.72,2.71
155.32,7.80,5.11,7.80,5.11,-5.11,-5.09,-5.04,2.69,2.69,2.69
156.88,7.73,5.06,7.73,5.06,-5.07,-5.05,-4.96,2.66,2.66,2.67
158.44,7.65,5.02,7.66,5.02,-5.03,-5.01,-4.87,2.62,2.63,2.63
160.03,7.59,4.98,7.59,4.98,-4.98,-4.97,-4.79,2.61,2.60,2.61
161.63,7.52,4.94,7.52,4.94,-4.94,-4.93,-4.71,2.58,2.57,2.58
163.24,7.45,4.91,7.45,4.91,-4.91,-4.89,-4.64,2.54,2.54,2.54
164.88,7.38,4.87,7.38,4.87,-4.87,-4.84,-4.56,2.51,2.51,2.51
166.53,7.31,4.83,7.31,4.84,-4.83,-4.80,-4.49,2.48,2.48,2.48
168.19,7.25,4.80,7.24,4.80,-4.79,-4.76,-4.42,2.46,2.45,2.45
169.87,7.17,4.76,7.17,4.76,-4.76,-4.72,-4.36,2.41,2.42,2.41
171.57,7.10,4.71,7.10,4.72,-4.72,-4.67,-4.30,2.38,2.38,2.39
173.29,7.03,4.68,7.03,4.68,-4.68,-4.63,-4.24,2.35,2.35,2.35
175.02,6.96,4.65,6.96,4.64,-4.64,-4.59,-4.18,2.32,2.32,2.31
176.77,6.89,4.61,6.89,4.61,-4.61,-4.54,-4.13,2.28,2.28,2.28
178.54,6.83,4.57,6.82,4.57,-4.57,-4.50,-4.08,2.26,2.25,2.26
180.32,6.75,4.54,6.75,4.54,-4.54,-4.46,-4.04,2.21,2.21,2.21
182.13,6.68,4.50,6.69,4.50,-4.51,-4.41,-3.99,2.17,2.18,2.18
183.95,6.62,4.47,6.62,4.47,-4.48,-4.37,-3.95,2.14,2.14,2.15
185.79,6.56,4.45,6.56,4.45,-4.44,-4.32,-3.92,2.12,2.11,2.11
187.65,6.49,4.41,6.49,4.42,-4.41,-4.28,-3.88,2.08,2.08,2.08
189.52,6.42,4.38,6.42,4.38,-4.38,-4.23,-3.85,2.04,2.04,2.04
191.42,6.35,4.34,6.35,4.34,-4.35,-4.19,-3.82,2.00,2.01,2.01
193.33,6.29,4.31,6.29,4.31,-4.31,-4.14,-3.80,1.98,1.97,1.98
195.27,6.22,4.28,6.22,4.28,-4.28,-4.10,-3.77,1.94,1.94,1.94
197.22,6.15,4.25,6.15,4.24,-4.24,-4.05,-3.75,1.91,1.91,1.90
199.19,6.08,4.19,6.08,4.20,-4.20,-4.00,-3.73,1.88,1.88,1.89
201.18,6.02,4.17,6.02,4.16,-4.16,-3.96,-3.71,1.86,1.86,1.85
203.19,5.96,4.12,5.96,4.12,-4.12,-3.91,-3.70,1.84,1.84,1.84
205.23,5.89,4.08,5.89,4.08,-4.08,-3.86,-3.68,1.81,1.81,1.81
207.28,5.82,4.02,5.82,4.03,-4.03,-3.82,-3.67,1.79,1.79,1.80
209.35,5.75,3.99,5.75,3.99,-3.99,-3.77,-3.66,1.76,1.76,1.76
211.44,5.68,3.94,5.68,3.94,-3.94,-3.72,-3.65,1.74,1.74,1.74
213.56,5.62,3.90,5.62,3.90,-3.89,-3.68,-3.64,1.73,1.72,1.72
215.69,5.55,3.85,5.55,3.84,-3.84,-3.63,-3.63,1.71,1.70,1.70
217.85,5.47,3.79,5.47,3.79,-3.79,-3.58,-3.62,1.68,1.68,1.68
220.03,5.40,3.74,5.40,3.74,-3.74,-3.53,-3.61,1.66,1.66,1.66
222.23,5.33,3.69,5.33,3.69,-3.69,-3.48,-3.60,1.64,1.64,1.64
224.45,5.26,3.64,5.26,3.64,-3.64,-3.44,-3.59,1.62,1.62,1.62
226.70,5.19,3.59,5.19,3.59,-3.59,-3.39,-3.57,1.60,1.60,1.60
228.96,5.12,3.53,5.12,3.53,-3.53,-3.34,-3.56,1.59,1.59,1.59
231.25,5.05,3.48,5.05,3.47,-3.48,-3.29,-3.54,1.57,1.57,1.57
233.57,4.98,3.42,4.98,3.42,-3.42,-3.24,-3.53,1.56,1.56,1.56
235.90,4.92,3.37,4.92,3.37,-3.37,-3.19,-3.51,1.55,1.55,1.55
238.26,4.85,3.31,4.85,3.31,-3.31,-3.14,-3.48,1.54,1.54,1.54
240.64,4.79,3.24,4.79,3.25,-3.25,-3.09,-3.46,1.54,1.54,1.55
243.05,4.72,3.18,4.73,3.19,-3.19,-3.04,-3.43,1.53,1.53,1.54
245.48,4.67,3.15,4.67,3.14,-3.14,-2.99,-3.40,1.53,1.53,1.52
247.93,4.61,3.10,4.61,3.08,-3.08,-2.94,-3.36,1.53,1.53,1.51
250.41,4.54,3.01,4.54,3.02,-3.02,-2.89,-3.32,1.52,1.52,1.53
252.92,4.48,2.95,4.48,2.96,-2.96,-2.84,-3.28,1.52,1.52,1.53
255.45,4.42,2.90,4.42,2.90,-2.90,-2.79,-3.23,1.52,1.52,1.52
258.00,4.37,2.84,4.36,2.84,-2.84,-2.74,-3.18,1.53,1.53,1.53
260.58,4.30,2.78,4.30,2.78,-2.77,-2.68,-3.13,1.53,1.53,1.52
263.19,4.23,2.71,4.23,2.71,-2.71,-2.63,-3.08,1.52,1.52,1.52
265.82,4.16,2.64,4.16,2.64,-2.64,-2.58,-3.02,1.52,1.52,1.52
268.48,4.09,2.57,4.09,2.57,-2.58,-2.53,-2.96,1.51,1.52,1.52
271.16,4.03,2.51,4.03,2.51,-2.51,-2.47,-2.89,1.52,1.52,1.52
273.87,3.96,2.44,3.96,2.44,-2.44,-2.42,-2.82,1.52,1.52,1.52
276.61,3.89,2.37,3.89,2.38,-2.37,-2.36,-2.75,1.52,1.51,1.52
279.38,3.81,2.31,3.82,2.30,-2.31,-2.31,-2.68,1.50,1.51,1.50
282.17,3.75,2.23,3.75,2.24,-2.24,-2.26,-2.61,1.51,1.51,1.52
284.99,3.69,2.17,3.69,2.17,-2.17,-2.20,-2.53,1.52,1.52,1.52
287.84,3.63,2.10,3.63,2.11,-2.10,-2.14,-2.45,1.53,1.52,1.53
290.72,3.56,2.05,3.56,2.04,-2.04,-2.09,-2.37,1.52,1.52,1.51
293.63,3.49,1.97,3.49,1.97,-1.97,-2.03,-2.29,1.52,1.52,1.52
296.57,3.42,1.88,3.42,1.90,-1.90,-1.97,-2.21,1.52,1.52,1.54
299.53,3.36,1.83,3.36,1.83,-1.83,-1.91,-2.13,1.53,1.53,1.53
302.53,3.31,1.77,3.31,1.77,-1.76,-1.85,-2.05,1.55,1.54,1.54
305.55,3.25,1.71,3.25,1.70,-1.70,-1.79,-1.97,1.55,1.55,1.54
308.61,3.18,1.63,3.18,1.63,-1.63,-1.73,-1.89,1.55,1.55,1.55
311.69,3.12,1.56,3.12,1.56,-1.56,-1.67,-1.80,1.56,1.56,1.56
314.81,3.06,1.50,3.06,1.50,-1.50,-1.61,-1.72,1.56,1.56,1.56
317.96,3.01,1.44,3.01,1.44,-1.44,-1.54,-1.64,1.57,1.57,1.57
321.14,2.95,1.37,2.95,1.37,-1.38,-1.48,-1.56,1.57,1.58,1.58
324.35,2.90,1.32,2.90,1.31,-1.32,-1.41,-1.47,1.58,1.58,1.58
327.59,2.85,1.25,2.85,1.26,-1.26,-1.34,-1.39,1.59,1.59,1.60
330.87,2.81,1.21,2.81,1.21,-1.21,-1.28,-1.31,1.60,1.60,1.60
334.18,2.76,1.16,2.76,1.15,-1.15,-1.21,-1.23,1.61,1.61,1.60
337.52,2.71,1.09,2.71,1.10,-1.10,-1.14,-1.15,1.61,1.61,1.62
340.90,2.67,1.05,2.67,1.05,-1.05,-1.06,-1.07,1.62,1.62,1.62
344.30,2.63,1.00,2.63,1.00,-1.00,-0.99,-0.99,1.63,1.63,1.63
347.75,2.59,0.95,2.59,0.95,-0.94,-0.92,-0.91,1.65,1.65,1.64
351.23,2.54,0.89,2.54,0.89,-0.88,-0.85,-0.84,1.66,1.66,1.65
354.74,2.49,0.82,2.49,0.83,-0.82,-0.79,-0.76,1.67,1.67,1.67
358.28,2.43,0.77,2.43,0.76,-0.76,-0.72,-0.68,1.67,1.66,1.66
361.87,2.37,0.71,2.37,0.70,-0.71,-0.66,-0.61,1.66,1.66,1.66
365.49,2.31,0.63,2.32,0.64,-0.65,-0.60,-0.53,1.66,1.67,1.68
369.14,2.27,0.58,2.27,0.58,-0.59,-0.54,-0.45,1.68,1.68,1.69
372.83,2.23,0.53,2.23,0.53,-0.53,-0.49,-0.38,1.70,1.69,1.70
376.56,2.19,0.49,2.19,0.49,-0.48,-0.44,-0.31,1.71,1.71,1.70
380.33,2.14,0.44,2.14,0.44,-0.43,-0.39,-0.23,1.71,1.71,1.70
384.13,2.09,0.38,2.09,0.38,-0.38,-0.35,-0.16,1.71,1.71,1.71
387.97,2.04,0.32,2.04,0.32,-0.33,-0.30,-0.09,1.71,1.72,1.72
391.85,2.00,0.26,2.00,0.27,-0.27,-0.26,-0.01,1.73,1.73,1.74
395.77,1.96,0.22,1.96,0.22,-0.22,-0.22,0.06,1.74,1.74,1.74
399.73,1.93,0.18,1.93,0.17,-0.17,-0.18,0.13,1.76,1.76,1.75
403.72,1.89,0.12,1.89,0.12,-0.12,-0.13,0.20,1.77,1.77,1.77
407.76,1.84,0.06,1.84,0.06,-0.06,-0.09,0.27,1.78,1.78,1.78
411.84,1.79,0.00,1.79,0.00,-0.01,-0.05,0.34,1.78,1.78,1.79
415.96,1.74,-0.05,1.74,-0.05,0.04,0.00,0.41,1.78,1.78,1.79
420.12,1.70,-0.09,1.70,-0.10,0.09,0.05,0.47,1.79,1.79,1.79
424.32,1.66,-0.14,1.66,-0.15,0.15,0.10,0.54,1.81,1.81,1.80
428.56,1.62,-0.20,1.62,-0.20,0.21,0.14,0.60,1.83,1.83,1.82
432.85,1.57,-0.27,1.57,-0.26,0.27,0.19,0.67,1.84,1.84,1.84
437.18,1.51,-0.32,1.51,-0.33,0.33,0.25,0.73,1.84,1.84,1.83
441.55,1.45,-0.39,1.45,-0.39,0.39,0.30,0.79,1.84,1.84,1.84
445.96,1.39,-0.46,1.39,-0.46,0.45,0.35,0.85,1.84,1.84,1.85
450.42,1.33,-0.53,1.33,-0.52,0.51,0.41,0.91,1.84,1.84,1.86
454.93,1.28,-0.59,1.29,-0.58,0.57,0.46,0.96,1.85,1.86,1.87
459.48,1.25,-0.63,1.25,-0.63,0.62,0.52,1.01,1.87,1.87,1.88
464.07,1.22,-0.68,1.22,-0.67,0.68,0.57,1.07,1.90,1.89,1.90
468.71,1.18,-0.71,1.18,-0.72,0.73,0.63,1.11,1.91,1.91,1.89
473.40,1.13,-0.77,1.13,-0.77,0.78,0.69,1.16,1.91,1.91,1.90
478.13,1.08,-0.83,1.08,-0.83,0.83,0.75,1.21,1.91,1.92,1.91
482.91,1.04,-0.88,1.04,-0.89,0.88,0.81,1.25,1.92,1.92,1.92
487.74,0.99,-0.94,0.99,-0.94,0.94,0.87,1.29,1.93,1.93,1.93
492.62,0.95,-0.99,0.95,-0.99,0.99,0.93,1.32,1.94,1.94,1.94
497.55,0.91,-1.04,0.91,-1.04,1.04,0.99,1.36,1.95,1.95,1.95
502.52,0.87,-1.09,0.87,-1.09,1.09,1.05,1.39,1.96,1.96,1.96
507.55,0.84,-1.14,0.84,-1.14,1.14,1.11,1.42,1.98,1.98,1.98
