frequency,raw,error,smoothed,error_smoothed,equalization,parametric_eq,fixed_band_eq,equalized_raw,equalized_smoothed,target
20.00,-2.21,-5.40,-2.21,-5.40,5.38,4.81,1.96,3.17,3.17,3.18
20.20,-2.17,-5.37,-2.17,-5.37,5.36,4.80,2.02,3.19,3.19,3.19
20.40,-2.13,-5.34,-2.13,-5.33,5.34,4.79,2.08,3.20,3.20,3.20
20.61,-2.09,-5.30,-2.10,-5.30,5.31,4.78,2.14,3.22,3.21,3.20
20.81,-2.06,-5.27,-2.06,-5.27,5.28,4.78,2.20,3.22,3.22,3.21
21.02,-2.02,-5.23,-2.02,-5.24,5.25,4.77,2.27,3.23,3.23,3.21
21.23,-1.98,-5.20,-1.99,-5.21,5.21,4.76,2.33,3.23,3.23,3.22
21.44,-1.95,-5.17,-1.95,-5.17,5.18,4.75,2.40,3.23,3.23,3.22
21.66,-1.92,-5.14,-1.92,-5.15,5.14,4.74,2.47,3.22,3.22,3.22
21.87,-1.89,-5.11,-1.89,-5.11,5.10,4.74,2.54,3.21,3.21,3.22
22.09,-1.85,-5.08,-1.85,-5.07,5.06,4.73,2.62,3.21,3.21,3.23
22.31,-1.79,-5.02,-1.80,-5.02,5.01,4.72,2.69,3.22,3.21,3.23
22.54,-1.74,-4.96,-1.74,-4.96,4.96,4.71,2.77,3.22,3.22,3.22
22.76,-1.69,-4.90,-1.69,-4.90,4.91,4.70,2.85,3.21,3.22,3.21
22.99,-1.63,-4.84,-1.64,-4.85,4.85,4.69,2.93,3.22,3.21,3.21
23.22,-1.59,-4.80,-1.59,-4.79,4.80,4.68,3.02,3.20,3.21,3.21
23.45,-1.54,-4.74,-1.54,-4.74,4.75,4.67,3.10,3.20,3.21,3.20
23.69,-1.49,-4.69,-1.50,-4.69,4.70,4.67,3.19,3.21,3.21,3.20
23.92,-1.45,-4.65,-1.45,-4.65,4.66,4.66,3.28,3.21,3.21,3.20
24.16,-1.42,-4.62,-1.42,-4.62,4.63,4.65,3.37,3.21,3.20,3.20
24.40,-1.40,-4.60,-1.40,-4.60,4.60,4.64,3.47,3.20,3.20,3.19
24.65,-1.38,-4.58,-1.38,-4.58,4.57,4.63,3.56,3.19,3.19,3.19
24.89,-1.36,-4.56,-1.36,-4.55,4.55,4.62,3.65,3.19,3.19,3.19
25.14,-1.33,-4.53,-1.33,-4.52,4.52,4.61,3.75,3.19,3.19,3.19
25.39,-1.30,-4.49,-1.31,-4.49,4.48,4.60,3.85,3.18,3.18,3.18
25.65,-1.27,-4.46,-1.27,-4.46,4.44,4.59,3.94,3.17,3.17,3.18
25.91,-1.24,-4.42,-1.24,-4.42,4.40,4.57,4.04,3.15,3.16,3.18
26.16,-1.19,-4.37,-1.19,-4.37,4.35,4.56,4.14,3.16,3.16,3.18
26.43,-1.13,-4.31,-1.13,-4.31,4.31,4.55,4.23,3.18,3.19,3.18
26.69,-1.06,-4.24,-1.06,-4.24,4.28,4.54,4.33,3.21,3.21,3.18
26.96,-1.00,-4.18,-1.02,-4.20,4.25,4.53,4.42,3.24,3.23,3.18
27.23,-1.00,-4.18,-1.00,-4.18,4.22,4.52,4.51,3.21,3.21,3.18
27.50,-1.01,-4.19,-1.01,-4.19,4.18,4.51,4.60,3.17,3.17,3.18
27.77,-1.02,-4.20,-1.02,-4.20,4.15,4.50,4.69,3.13,3.13,3.18
28.05,-1.02,-4.20,-1.00,-4.18,4.12,4.48,4.77,3.10,3.12,3.17
28.33,-0.95,-4.13,-0.95,-4.13,4.09,4.47,4.85,3.14,3.14,3.17
28.62,-0.88,-4.06,-0.88,-4.06,4.07,4.46,4.92,3.19,3.19,3.17
28.90,-0.80,-3.98,-0.82,-4.00,4.05,4.45,4.99,3.25,3.23,3.18
29.19,-0.79,-3.97,-0.80,-3.98,4.03,4.43,5.05,3.23,3.23,3.18
29.48,-0.80,-3.98,-0.80,-3.98,4.01,4.42,5.11,3.21,3.21,3.18
29.78,-0.81,-4.00,-0.81,-4.00,4.00,4.41,5.16,3.18,3.18,3.19
30.08,-0.82,-4.01,-0.82,-4.00,3.98,4.39,5.20,3.16,3.17,3.19
30.38,-0.81,-4.00,-0.82,-4.00,3.97,4.38,5.24,3.16,3.16,3.19
30.68,-0.80,-3.99,-0.81,-3.99,3.96,4.37,5.26,3.16,3.15,3.18
30.99,-0.79,-3.98,-0.78,-3.97,3.94,4.35,5.29,3.15,3.16,3.18
31.30,-0.74,-3.93,-0.74,-3.92,3.91,4.34,5.30,3.17,3.17,3.18
31.61,-0.69,-3.87,-0.69,-3.87,3.88,4.33,5.30,3.19,3.19,3.18
31.93,-0.63,-3.81,-0.65,-3.82,3.85,4.31,5.30,3.22,3.20,3.18
32.24,-0.62,-3.79,-0.62,-3.80,3.82,4.30,5.29,3.20,3.20,3.17
32.57,-0.62,-3.79,-0.62,-3.78,3.80,4.28,5.27,3.17,3.18,3.17
32.89,-0.62,-3.79,-0.62,-3.78,3.78,4.27,5.24,3.16,3.16,3.16
33.22,-0.62,-3.78,-0.62,-3.78,3.77,4.25,5.21,3.15,3.15,3.15
33.55,-0.62,-3.77,-0.62,-3.77,3.76,4.24,5.17,3.14,3.14,3.15
33.89,-0.62,-3.76,-0.62,-3.76,3.76,4.22,5.12,3.14,3.14,3.14
34.23,-0.62,-3.76,-0.62,-3.76,3.76,4.20,5.07,3.14,3.14,3.14
34.57,-0.62,-3.76,-0.62,-3.76,3.76,4.19,5.02,3.14,3.14,3.13
34.92,-0.62,-3.76,-0.62,-3.76,3.76,4.17,4.96,3.13,3.13,3.13
35.27,-0.62,-3.75,-0.62,-3.75,3.75,4.15,4.89,3.13,3.13,3.13
35.62,-0.62,-3.75,-0.62,-3.75,3.75,4.14,4.83,3.12,3.12,3.13
35.97,-0.62,-3.75,-0.62,-3.75,3.74,4.12,4.76,3.12,3.12,3.13
36.33,-0.62,-3.75,-0.62,-3.75,3.74,4.10,4.69,3.11,3.11,3.12
36.70,-0.62,-3.74,-0.62,-3.74,3.74,4.08,4.62,3.12,3.12,3.12
37.06,-0.62,-3.74,-0.62,-3.74,3.75,4.07,4.54,3.13,3.13,3.12
37.43,-0.62,-3.74,-0.62,-3.74,3.77,4.05,4.47,3.14,3.15,3.12
37.81,-0.62,-3.75,-0.63,-3.75,3.78,4.03,4.39,3.16,3.15,3.12
38.19,-0.65,-3.77,-0.67,-3.79,3.80,4.01,4.32,3.15,3.14,3.12
38.57,-0.71,-3.83,-0.71,-3.83,3.82,3.99,4.25,3.11,3.11,3.12
38.95,-0.77,-3.90,-0.75,-3.87,3.84,3.97,4.17,3.07,3.09,3.12
39.34,-0.76,-3.88,-0.76,-3.88,3.86,3.95,4.10,3.09,3.10,3.12
39.74,-0.74,-3.86,-0.75,-3.87,3.86,3.93,4.03,3.12,3.11,3.12
40.14,-0.72,-3.84,-0.74,-3.85,3.85,3.91,3.97,3.13,3.11,3.11
40.54,-0.72,-3.83,-0.73,-3.84,3.83,3.89,3.90,3.11,3.10,3.11
40.94,-0.72,-3.83,-0.70,-3.81,3.79,3.87,3.84,3.07,3.09,3.11
41.35,-0.66,-3.77,-0.66,-3.76,3.75,3.84,3.77,3.09,3.10,3.10
41.76,-0.58,-3.67,-0.60,-3.69,3.70,3.82,3.71,3.12,3.10,3.09
42.18,-0.53,-3.62,-0.54,-3.63,3.64,3.80,3.66,3.11,3.10,3.08
42.60,-0.50,-3.58,-0.50,-3.58,3.58,3.78,3.60,3.08,3.08,3.08
43.03,-0.48,-3.56,-0.47,-3.54,3.51,3.75,3.55,3.03,3.05,3.08
43.46,-0.41,-3.48,-0.42,-3.48,3.45,3.73,3.50,3.04,3.03,3.07
43.90,-0.35,-3.41,-0.35,-3.41,3.40,3.70,3.46,3.05,3.05,3.06
44.33,-0.29,-3.34,-0.29,-3.34,3.37,3.68,3.41,3.07,3.08,3.05
44.78,-0.24,-3.29,-0.25,-3.30,3.35,3.66,3.37,3.10,3.09,3.05
45.23,-0.24,-3.28,-0.25,-3.29,3.34,3.63,3.33,3.09,3.09,3.04
45.68,-0.29,-3.33,-0.29,-3.32,3.34,3.60,3.30,3.05,3.06,3.03
46.13,-0.34,-3.38,-0.35,-3.39,3.37,3.58,3.26,3.02,3.02,3.04
46.60,-0.42,-3.46,-0.42,-3.45,3.41,3.55,3.23,2.99,3.00,3.03
47.06,-0.48,-3.52,-0.46,-3.50,3.48,3.52,3.20,3.00,3.02,3.04
47.53,-0.50,-3.54,-0.50,-3.54,3.56,3.49,3.18,3.06,3.06,3.04
48.01,-0.52,-3.57,-0.57,-3.61,3.65,3.47,3.15,3.12,3.08,3.04
48.49,-0.66,-3.71,-0.66,-3.71,3.74,3.44,3.13,3.08,3.08,3.05
48.97,-0.80,-3.85,-0.77,-3.82,3.83,3.41,3.11,3.03,3.06,3.05
49.46,-0.87,-3.93,-0.87,-3.93,3.92,3.38,3.10,3.04,3.04,3.05
49.96,-0.93,-4.00,-0.96,-4.02,4.00,3.34,3.08,3.06,3.04,3.06
50.46,-1.02,-4.09,-1.03,-4.09,4.07,3.31,3.07,3.05,3.04,3.07
50.96,-1.10,-4.18,-1.07,-4.14,4.13,3.28,3.06,3.02,3.06,3.08
51.47,-1.08,-4.16,-1.08,-4.16,4.16,3.25,3.04,3.08,3.08,3.08
51.99,-1.05,-4.13,-1.08,-4.17,4.17,3.21,3.04,3.12,3.09,3.08
52.51,-1.06,-4.15,-1.07,-4.15,4.15,3.18,3.03,3.09,3.09,3.08
53.03,-1.07,-4.16,-1.05,-4.13,4.12,3.14,3.02,3.04,3.07,3.08
53.56,-0.99,-4.08,-1.00,-4.09,4.05,3.11,3.01,3.06,3.06,3.08
54.10,-0.91,-4.01,-0.91,-4.00,3.98,3.07,3.00,3.06,3.07,3.09
54.64,-0.79,-3.89,-0.79,-3.89,3.88,3.03,3.00,3.09,3.09,3.09
55.18,-0.67,-3.76,-0.68,-3.77,3.78,3.00,2.99,3.11,3.10,3.09
55.74,-0.57,-3.66,-0.57,-3.66,3.67,2.96,2.98,3.10,3.10,3.08
56.29,-0.47,-3.55,-0.47,-3.55,3.57,2.92,2.97,3.09,3.10,3.08
56.86,-0.37,-3.45,-0.37,-3.44,3.46,2.88,2.96,3.09,3.10,3.08
57.42,-0.27,-3.34,-0.27,-3.34,3.37,2.83,2.95,3.10,3.10,3.07
58.00,-0.18,-3.24,-0.20,-3.26,3.29,2.79,2.94,3.11,3.09,3.05
58.58,-0.15,-3.19,-0.15,-3.19,3.21,2.75,2.92,3.06,3.06,3.04
59.16,-0.12,-3.15,-0.11,-3.14,3.13,2.70,2.91,3.00,3.01,3.03
59.76,-0.06,-3.08,-0.06,-3.07,3.03,2.66,2.89,2.97,2.97,3.01
60.35,0.02,-2.97,0.01,-2.98,2.93,2.61,2.87,2.95,2.94,2.99
60.96,0.11,-2.86,0.10,-2.86,2.82,2.56,2.84,2.92,2.92,2.96
61.57,0.22,-2.72,0.23,-2.71,2.69,2.52,2.82,2.91,2.92,2.94
62.18,0.34,-2.57,0.36,-2.54,2.55,2.47,2.79,2.89,2.91,2.90
62.80,0.52,-2.35,0.47,-2.40,2.41,2.42,2.76,2.93,2.88,2.87
63.43,0.58,-2.24,0.57,-2.26,2.28,2.36,2.72,2.85,2.84,2.82
64.07,0.59,-2.20,0.66,-2.12,2.16,2.31,2.69,2.74,2.81,2.78
64.71,0.75,-1.99,0.72,-2.02,2.05,2.26,2.65,2.80,2.77,2.74
65.35,0.81,-1.89,0.77,-1.93,1.96,2.21,2.60,2.77,2.73,2.70
66.01,0.78,-1.88,0.80,-1.86,1.88,2.15,2.56,2.66,2.68,2.66
66.67,0.78,-1.84,0.77,-1.85,1.82,2.09,2.51,2.59,2.59,2.62
67.33,0.78,-1.81,0.78,-1.81,1.76,2.04,2.46,2.53,2.53,2.59
68.01,0.78,-1.77,0.82,-1.73,1.70,1.98,2.41,2.48,2.52,2.55
68.69,0.90,-1.62,0.86,-1.66,1.66,1.92,2.35,2.55,2.52,2.52
69.37,0.93,-1.56,0.90,-1.59,1.62,1.86,2.29,2.54,2.52,2.49
70.07,0.89,-1.57,0.93,-1.53,1.58,1.80,2.23,2.46,2.50,2.46
70.77,0.93,-1.50,0.91,-1.52,1.54,1.74,2.17,2.46,2.45,2.42
71.48,0.91,-1.49,0.90,-1.50,1.49,1.68,2.11,2.40,2.40,2.40
72.19,0.88,-1.49,0.90,-1.47,1.45,1.62,2.05,2.33,2.35,2.37
72.91,0.91,-1.43,0.88,-1.46,1.41,1.55,1.99,2.32,2.30,2.33
73.64,0.88,-1.42,0.90,-1.40,1.37,1.49,1.92,2.25,2.27,2.30
74.38,0.91,-1.36,0.93,-1.34,1.33,1.43,1.86,2.24,2.26,2.26
75.12,0.99,-1.24,0.96,-1.27,1.28,1.36,1.79,2.27,2.24,2.23
75.87,0.99,-1.20,0.99,-1.20,1.22,1.30,1.72,2.21,2.21,2.18
76.63,0.99,-1.16,0.99,-1.15,1.17,1.24,1.66,2.16,2.17,2.15
77.40,0.99,-1.11,0.99,-1.11,1.12,1.17,1.59,2.11,2.11,2.10
78.17,0.99,-1.07,0.99,-1.07,1.07,1.11,1.53,2.06,2.06,2.06
78.95,0.99,-1.03,0.99,-1.03,1.03,1.05,1.46,2.01,2.01,2.01
79.74,0.99,-0.99,0.99,-0.98,0.98,0.98,1.39,1.97,1.97,1.97
80.54,0.99,-0.94,0.99,-0.94,0.94,0.92,1.33,1.92,1.92,1.92
81.35,0.99,-0.90,0.98,-0.91,0.89,0.86,1.26,1.88,1.87,1.88
82.16,0.99,-0.86,0.99,-0.85,0.84,0.80,1.20,1.83,1.83,1.84
82.98,0.99,-0.81,1.03,-0.78,0.78,0.74,1.13,1.77,1.81,1.80
83.81,1.10,-0.66,1.05,-0.71,0.72,0.69,1.07,1.82,1.77,1.76
84.65,1.08,-0.65,1.06,-0.66,0.65,0.63,1.01,1.73,1.71,1.73
85.50,1.05,-0.64,1.09,-0.60,0.59,0.57,0.94,1.63,1.67,1.68
86.35,1.09,-0.55,1.11,-0.54,0.52,0.52,0.88,1.61,1.63,1.64
87.22,1.19,-0.41,1.15,-0.45,0.46,0.47,0.82,1.64,1.60,1.60
88.09,1.19,-0.37,1.19,-0.37,0.40,0.42,0.76,1.58,1.58,1.55
88.97,1.19,-0.33,1.20,-0.32,0.34,0.37,0.70,1.53,1.54,1.52
89.86,1.19,-0.29,1.19,-0.29,0.29,0.32,0.64,1.48,1.48,1.47
90.76,1.19,-0.24,1.19,-0.25,0.24,0.27,0.58,1.43,1.43,1.43
91.66,1.19,-0.21,1.19,-0.21,0.20,0.23,0.52,1.38,1.38,1.39
92.58,1.19,-0.17,1.19,-0.17,0.16,0.18,0.46,1.34,1.34,1.36
93.51,1.19,-0.12,1.19,-0.13,0.12,0.14,0.40,1.31,1.31,1.31
94.44,1.19,-0.09,1.19,-0.09,0.09,0.10,0.34,1.27,1.28,1.27
95.39,1.19,-0.05,1.19,-0.05,0.05,0.06,0.29,1.24,1.24,1.24
96.34,1.19,-0.01,1.18,-0.02,0.02,0.02,0.23,1.21,1.20,1.20
97.30,1.18,0.01,1.18,0.02,-0.01,-0.02,0.17,1.16,1.16,1.16
98.28,1.17,0.05,1.17,0.05,-0.04,-0.06,0.12,1.12,1.12,1.12
99.26,1.16,0.08,1.15,0.07,-0.07,-0.10,0.06,1.08,1.08,1.08
100.25,1.14,0.10,1.14,0.10,-0.10,-0.13,0.01,1.03,1.03,1.04
101.25,1.12,0.12,1.12,0.12,-0.13,-0.17,-0.04,0.99,0.99,1.00
102.27,1.11,0.15,1.11,0.15,-0.16,-0.20,-0.10,0.95,0.95,0.95
103.29,1.10,0.19,1.09,0.19,-0.18,-0.23,-0.15,0.91,0.91,0.90
104.32,1.08,0.22,1.08,0.22,-0.21,-0.27,-0.20,0.87,0.87,0.86
105.37,1.06,0.24,1.06,0.24,-0.23,-0.30,-0.25,0.82,0.82,0.82
106.42,1.03,0.26,1.03,0.26,-0.26,-0.33,-0.30,0.77,0.77,0.77
107.48,1.01,0.29,1.00,0.28,-0.28,-0.37,-0.35,0.73,0.73,0.72
108.56,0.98,0.30,0.98,0.31,-0.30,-0.40,-0.40,0.68,0.68,0.67
109.64,0.96,0.33,0.96,0.33,-0.33,-0.43,-0.45,0.63,0.63,0.63
110.74,0.94,0.35,0.94,0.35,-0.36,-0.46,-0.49,0.57,0.57,0.59
111.85,0.93,0.38,0.91,0.37,-0.41,-0.49,-0.54,0.52,0.51,0.55
112.97,0.92,0.41,0.93,0.41,-0.45,-0.52,-0.58,0.47,0.48,0.51
114.10,0.92,0.44,0.97,0.49,-0.49,-0.55,-0.62,0.42,0.47,0.47
115.24,1.06,0.61,1.01,0.57,-0.54,-0.59,-0.66,0.52,0.47,0.45
116.39,1.06,0.65,1.04,0.62,-0.58,-0.62,-0.70,0.47,0.46,0.41
117.55,1.03,0.63,1.05,0.66,-0.62,-0.65,-0.73,0.41,0.43,0.39
118.73,1.02,0.65,1.02,0.66,-0.66,-0.68,-0.77,0.36,0.37,0.37
119.92,1.03,0.68,1.02,0.67,-0.69,-0.71,-0.80,0.34,0.33,0.35
121.12,1.03,0.69,1.03,0.69,-0.71,-0.74,-0.84,0.32,0.32,0.33
122.33,1.04,0.72,1.04,0.72,-0.73,-0.77,-0.86,0.31,0.31,0.32
123.55,1.05,0.74,1.05,0.74,-0.74,-0.80,-0.89,0.30,0.30,0.30
124.79,1.06,0.77,1.05,0.76,-0.76,-0.83,-0.92,0.30,0.29,0.29
126.03,1.06,0.78,1.06,0.79,-0.78,-0.86,-0.94,0.28,0.28,0.28
127.29,1.07,0.81,1.07,0.81,-0.80,-0.89,-0.96,0.26,0.26,0.26
128.57,1.08,0.83,1.07,0.82,-0.83,-0.92,-0.99,0.25,0.25,0.25
129.85,1.08,0.84,1.08,0.84,-0.85,-0.95,-1.00,0.23,0.23,0.24
131.15,1.09,0.86,1.08,0.86,-0.87,-0.98,-1.02,0.22,0.22,0.22
132.46,1.09,0.89,1.09,0.89,-0.89,-1.01,-1.04,0.20,0.20,0.20
133.79,1.10,0.91,1.09,0.91,-0.90,-1.03,-1.05,0.19,0.19,0.19
135.12,1.10,0.93,1.10,0.93,-0.92,-1.06,-1.06,0.17,0.17,0.17
136.48,1.10,0.94,1.10,0.95,-0.94,-1.09,-1.08,0.15,0.16,0.16
137.84,1.11,0.97,1.10,0.97,-0.96,-1.12,-1.09,0.14,0.14,0.14
139.22,1.11,0.99,1.11,0.98,-0.98,-1.14,-1.09,0.12,0.12,0.12
140.61,1.11,1.01,1.11,1.01,-1.00,-1.17,-1.10,0.10,0.10,0.10
142.02,1.11,1.02,1.11,1.03,-1.03,-1.20,-1.11,0.08,0.08,0.08
143.44,1.11,1.05,1.11,1.05,-1.05,-1.22,-1.12,0.06,0.06,0.06
144.87,1.11,1.08,1.11,1.08,-1.08,-1.25,-1.13,0.03,0.03,0.03
146.32,1.11,1.11,1.11,1.11,-1.11,-1.27,-1.13,-0.00,-0.00,0.00
147.78,1.11,1.14,1.11,1.14,-1.15,-1.30,-1.14,-0.04,-0.04,-0.03
149.26,1.11,1.18,1.11,1.18,-1.19,-1.32,-1.15,-0.08,-0.08,-0.07
150.75,1.11,1.22,1.11,1.22,-1.24,-1.34,-1.15,-0.13,-0.13,-0.11
152.26,1.11,1.28,1.11,1.27,-1.29,-1.36,-1.16,-0.18,-0.18,-0.17
153.78,1.11,1.33,1.11,1.33,-1.33,-1.39,-1.17,-0.23,-0.23,-0.22
155.32,1.11,1.39,1.12,1.40,-1.38,-1.41,-1.17,-0.27,-0.26,-0.29
156.88,1.11,1.44,1.10,1.44,-1.41,-1.43,-1.18,-0.31,-0.31,-0.34
158.44,1.11,1.51,1.07,1.47,-1.45,-1.45,-1.19,-0.34,-0.37,-0.40
160.03,1.00,1.45,1.05,1.50,-1.48,-1.47,-1.20,-0.48,-0.43,-0.45
161.63,1.02,1.51,1.00,1.50,-1.51,-1.49,-1.21,-0.50,-0.51,-0.49
163.24,1.01,1.55,0.97,1.51,-1.55,-1.51,-1.22,-0.54,-0.58,-0.54
164.88,0.93,1.50,0.97,1.54,-1.58,-1.53,-1.23,-0.65,-0.61,-0.57
166.53,0.98,1.58,0.99,1.59,-1.61,-1.54,-1.24,-0.63,-0.62,-0.60
168.19,1.04,1.66,1.02,1.64,-1.63,-1.56,-1.26,-0.59,-0.61,-0.62
169.87,1.09,1.71,1.07,1.70,-1.65,-1.58,-1.27,-0.56,-0.58,-0.63
171.57,1.08,1.71,1.08,1.71,-1.67,-1.59,-1.29,-0.59,-0.59,-0.64
173.29,1.07,1.70,1.08,1.71,-1.68,-1.61,-1.31,-0.61,-0.61,-0.63
175.02,1.07,1.69,1.07,1.69,-1.69,-1.63,-1.32,-0.63,-0.63,-0.62
176.77,1.07,1.67,1.06,1.66,-1.70,-1.64,-1.34,-0.63,-0.64,-0.61
178.54,1.07,1.66,1.06,1.65,-1.70,-1.65,-1.36,-0.64,-0.64,-0.59
180.32,1.07,1.63,1.11,1.68,-1.70,-1.67,-1.38,-0.63,-0.59,-0.57
182.13,1.18,1.73,1.17,1.72,-1.70,-1.68,-1.40,-0.53,-0.53,-0.55
183.95,1.27,1.79,1.21,1.74,-1.71,-1.69,-1.43,-0.44,-0.50,-0.53
185.79,1.21,1.73,1.23,1.75,-1.72,-1.71,-1.45,-0.52,-0.49,-0.52
187.65,1.21,1.72,1.22,1.74,-1.74,-1.72,-1.48,-0.53,-0.52,-0.51
189.52,1.23,1.73,1.22,1.73,-1.76,-1.73,-1.50,-0.53,-0.54,-0.51
191.42,1.24,1.75,1.24,1.74,-1.77,-1.74,-1.53,-0.53,-0.53,-0.51
193.33,1.25,1.75,1.25,1.75,-1.76,-1.75,-1.56,-0.52,-0.51,-0.50
195.27,1.27,1.77,1.28,1.78,-1.75,-1.76,-1.59,-0.49,-0.48,-0.50
197.22,1.28,1.79,1.28,1.79,-1.74,-1.77,-1.62,-0.46,-0.46,-0.51
199.19,1.30,1.81,1.25,1.77,-1.73,-1.78,-1.65,-0.43,-0.48,-0.52
201.18,1.19,1.71,1.19,1.72,-1.72,-1.79,-1.68,-0.53,-0.53,-0.53
203.19,1.11,1.64,1.14,1.68,-1.71,-1.80,-1.71,-0.61,-0.57,-0.54
205.23,1.11,1.65,1.11,1.66,-1.71,-1.81,-1.74,-0.60,-0.59,-0.55
207.28,1.14,1.69,1.12,1.68,-1.71,-1.81,-1.77,-0.57,-0.59,-0.56
209.35,1.16,1.72,1.14,1.71,-1.71,-1.82,-1.80,-0.56,-0.57,-0.57
211.44,1.13,1.71,1.16,1.74,-1.73,-1.83,-1.84,-0.60,-0.57,-0.59
213.56,1.18,1.77,1.17,1.77,-1.76,-1.83,-1.87,-0.58,-0.59,-0.59
215.69,1.20,1.81,1.18,1.79,-1.79,-1.84,-1.90,-0.59,-0.61,-0.61
217.85,1.19,1.81,1.19,1.82,-1.81,-1.85,-1.93,-0.63,-0.62,-0.62
220.03,1.19,1.83,1.19,1.83,-1.82,-1.85,-1.96,-0.64,-0.63,-0.64
222.23,1.19,1.83,1.19,1.83,-1.82,-1.86,-1.99,-0.63,-0.63,-0.65
224.45,1.19,1.84,1.20,1.86,-1.81,-1.87,-2.02,-0.63,-0.61,-0.65
226.70,1.19,1.85,1.18,1.84,-1.81,-1.87,-2.04,-0.62,-0.63,-0.66
228.96,1.19,1.86,1.12,1.79,-1.80,-1.88,-2.07,-0.62,-0.68,-0.67
231.25,1.03,1.69,1.08,1.75,-1.80,-1.88,-2.09,-0.77,-0.72,-0.67
233.57,1.03,1.70,1.06,1.73,-1.80,-1.89,-2.11,-0.77,-0.74,-0.67
235.90,1.12,1.79,1.09,1.75,-1.79,-1.89,-2.13,-0.68,-0.71,-0.67
238.26,1.14,1.80,1.17,1.83,-1.79,-1.90,-2.15,-0.65,-0.62,-0.66
240.64,1.24,1.89,1.20,1.85,-1.78,-1.91,-2.17,-0.54,-0.58,-0.65
243.05,1.21,1.85,1.18,1.83,-1.78,-1.91,-2.18,-0.57,-0.60,-0.65
245.48,1.11,1.75,1.15,1.79,-1.78,-1.92,-2.19,-0.67,-0.63,-0.64
247.93,1.11,1.74,1.12,1.76,-1.78,-1.92,-2.20,-0.67,-0.65,-0.64
250.41,1.13,1.76,1.11,1.74,-1.77,-1.93,-2.21,-0.65,-0.66,-0.63
252.92,1.15,1.77,1.11,1.74,-1.77,-1.94,-2.21,-0.62,-0.66,-0.63
255.45,1.08,1.71,1.13,1.76,-1.77,-1.94,-2.21,-0.69,-0.64,-0.63
258.00,1.13,1.76,1.16,1.79,-1.78,-1.95,-2.21,-0.66,-0.63,-0.64
260.58,1.25,1.89,1.18,1.82,-1.82,-1.96,-2.20,-0.57,-0.64,-0.64
263.19,1.23,1.87,1.22,1.87,-1.86,-1.97,-2.20,-0.63,-0.64,-0.64
265.82,1.19,1.84,1.25,1.90,-1.91,-1.98,-2.19,-0.73,-0.66,-0.65
268.48,1.32,1.97,1.29,1.94,-1.97,-1.99,-2.18,-0.65,-0.68,-0.65
271.16,1.36,2.01,1.36,2.02,-2.03,-2.00,-2.17,-0.67,-0.67,-0.66
273.87,1.46,2.12,1.44,2.10,-2.07,-2.01,-2.15,-0.62,-0.64,-0.66
276.61,1.46,2.12,1.48,2.15,-2.12,-2.03,-2.14,-0.66,-0.63,-0.66
279.38,1.54,2.20,1.53,2.19,-2.16,-2.04,-2.12,-0.62,-0.63,-0.67
282.17,1.57,2.23,1.55,2.21,-2.19,-2.06,-2.10,-0.63,-0.64,-0.66
284.99,1.57,2.22,1.58,2.23,-2.23,-2.08,-2.08,-0.66,-0.65,-0.65
287.84,1.58,2.23,1.57,2.22,-2.26,-2.10,-2.06,-0.69,-0.70,-0.66
290.72,1.59,2.24,1.59,2.24,-2.29,-2.12,-2.04,-0.70,-0.70,-0.65
293.63,1.60,2.24,1.65,2.29,-2.31,-2.14,-2.02,-0.71,-0.66,-0.64
296.57,1.75,2.38,1.71,2.35,-2.33,-2.17,-2.00,-0.58,-0.62,-0.63
299.53,1.79,2.42,1.75,2.39,-2.35,-2.20,-1.98,-0.56,-0.60,-0.64
302.53,1.75,2.38,1.77,2.40,-2.37,-2.23,-1.96,-0.62,-0.60,-0.63
305.55,1.75,2.38,1.76,2.39,-2.39,-2.26,-1.94,-0.64,-0.63,-0.63
308.61,1.76,2.39,1.75,2.39,-2.41,-2.29,-1.92,-0.65,-0.65,-0.63
311.69,1.77,2.40,1.76,2.40,-2.41,-2.33,-1.90,-0.65,-0.65,-0.64
314.81,1.77,2.42,1.77,2.41,-2.42,-2.37,-1.88,-0.65,-0.65,-0.65
317.96,1.77,2.42,1.77,2.42,-2.42,-2.40,-1.86,-0.65,-0.65,-0.65
321.14,1.77,2.43,1.77,2.43,-2.42,-2.44,-1.85,-0.66,-0.66,-0.66
324.35,1.77,2.43,1.77,2.43,-2.43,-2.47,-1.83,-0.67,-0.67,-0.67
327.59,1.77,2.44,1.77,2.44,-2.45,-2.49,-1.81,-0.68,-0.68,-0.68
330.87,1.77,2.46,1.77,2.46,-2.47,-2.51,-1.80,-0.70,-0.70,-0.69
334.18,1.77,2.47,1.76,2.47,-2.49,-2.51,-1.79,-0.72,-0.72,-0.70
337.52,1.77,2.48,1.76,2.47,-2.51,-2.50,-1.78,-0.74,-0.74,-0.71
340.90,1.77,2.48,1.78,2.50,-2.51,-2.49,-1.77,-0.75,-0.73,-0.71
344.30,1.79,2.51,1.81,2.54,-2.51,-2.45,-1.76,-0.73,-0.70,-0.73
347.75,1.84,2.58,1.80,2.54,-2.50,-2.40,-1.75,-0.66,-0.71,-0.75
351.23,1.78,2.54,1.74,2.50,-2.48,-2.33,-1.74,-0.70,-0.73,-0.76
354.74,1.61,2.38,1.67,2.44,-2.44,-2.25,-1.74,-0.83,-0.77,-0.77
358.28,1.56,2.34,1.56,2.34,-2.37,-2.15,-1.73,-0.81,-0.82,-0.78
361.87,1.49,2.28,1.44,2.24,-2.27,-2.04,-1.73,-0.79,-0.83,-0.79
365.49,1.30,2.11,1.34,2.15,-2.13,-1.92,-1.73,-0.84,-0.80,-0.81
369.14,1.18,2.00,1.20,2.02,-1.96,-1.79,-1.73,-0.78,-0.76,-0.83
372.83,1.04,1.87,1.00,1.84,-1.76,-1.64,-1.73,-0.72,-0.76,-0.84
376.56,0.80,1.64,0.76,1.61,-1.54,-1.48,-1.73,-0.74,-0.78,-0.85
380.33,0.44,1.30,0.46,1.32,-1.30,-1.31,-1.74,-0.87,-0.84,-0.86
384.13,0.13,1.00,0.15,1.02,-1.06,-1.13,-1.74,-0.93,-0.91,-0.87
387.97,-0.12,0.76,-0.12,0.76,-0.82,-0.94,-1.75,-0.94,-0.94,-0.88
391.85,-0.34,0.55,-0.34,0.55,-0.59,-0.75,-1.76,-0.94,-0.93,-0.89
395.77,-0.52,0.38,-0.54,0.37,-0.39,-0.55,-1.77,-0.91,-0.92,-0.90
399.73,-0.70,0.21,-0.70,0.21,-0.22,-0.38,-1.78,-0.92,-0.92,-0.91
403.72,-0.84,0.08,-0.82,0.10,-0.10,-0.22,-1.79,-0.94,-0.92,-0.92
407.76,-0.91,0.03,-0.93,0.01,-0.01,-0.11,-1.80,-0.93,-0.95,-0.95
411.84,-0.97,-0.02,-1.00,-0.04,0.03,-0.05,-1.81,-0.95,-0.97,-0.96
415.96,-1.06,-0.10,-1.02,-0.06,0.03,-0.04,-1.83,-1.03,-0.99,-0.97
420.12,-0.99,-0.03,-1.00,-0.03,0.01,-0.09,-1.84,-0.99,-1.00,-0.97
424.32,-0.93,0.05,-0.94,0.04,-0.05,-0.18,-1.85,-0.99,-0.99,-0.98
428.56,-0.83,0.15,-0.84,0.14,-0.14,-0.29,-1.87,-0.97,-0.97,-0.98
432.85,-0.73,0.24,-0.73,0.25,-0.24,-0.42,-1.88,-0.97,-0.97,-0.97
437.18,-0.59,0.37,-0.59,0.37,-0.36,-0.55,-1.90,-0.96,-0.95,-0.96
441.55,-0.42,0.52,-0.43,0.51,-0.49,-0.68,-1.91,-0.92,-0.93,-0.94
445.96,-0.27,0.65,-0.28,0.64,-0.63,-0.80,-1.93,-0.90,-0.91,-0.92
450.42,-0.12,0.77,-0.12,0.77,-0.76,-0.90,-1.94,-0.89,-0.89,-0.89
454.93,0.03,0.88,0.04,0.89,-0.89,-0.99,-1.95,-0.87,-0.85,-0.85
459.48,0.21,1.02,0.20,1.02,-1.01,-1.07,-1.97,-0.81,-0.81,-0.81
464.07,0.37,1.15,0.36,1.14,-1.13,-1.15,-1.98,-0.76,-0.77,-0.78
468.71,0.51,1.25,0.50,1.25,-1.24,-1.21,-1.99,-0.73,-0.73,-0.74
473.40,0.63,1.33,0.64,1.34,-1.33,-1.26,-2.00,-0.71,-0.70,-0.70
478.13,0.76,1.42,0.75,1.42,-1.43,-1.31,-2.01,-0.67,-0.67,-0.67
482.91,0.88,1.51,0.86,1.50,-1.51,-1.36,-2.02,-0.63,-0.65,-0.64
487.74,0.96,1.56,0.98,1.58,-1.58,-1.39,-2.03,-0.63,-0.61,-0.61
492.62,1.07,1.65,1.08,1.66,-1.65,-1.43,-2.04,-0.58,-0.57,-0.59
497.55,1.19,1.75,1.16,1.72,-1.71,-1.46,-2.04,-0.53,-0.56,-0.57
502.52,1.23,1.78,1.22,1.78,-1.77,-1.49,-2.05,-0.55,-0.55,-0.56
507.55,1.25,1.80,1.28,1.84,-1.84,-1.52,-2.05,-0.59,-0.56,-0.56
