frequency,raw,error,smoothed,error_smoothed,equalization,parametric_eq,fixed_band_eq,equalized_raw,equalized_smoothed,target
20.00,-2.21,-5.41,-2.21,-5.41,5.39,4.72,2.02,3.18,3.18,3.19
20.20,-2.17,-5.38,-2.17,-5.38,5.37,4.77,2.08,3.20,3.20,3.20
20.40,-2.13,-5.35,-2.13,-5.34,5.35,4.83,2.14,3.21,3.21,3.21
20.61,-2.09,-5.31,-2.10,-5.31,5.32,4.88,2.20,3.23,3.22,3.21
20.81,-2.06,-5.29,-2.06,-5.28,5.29,4.93,2.26,3.23,3.23,3.22
21.02,-2.02,-5.25,-2.02,-5.25,5.26,4.97,2.33,3.24,3.24,3.22
21.23,-1.98,-5.21,-1.99,-5.22,5.23,5.01,2.39,3.24,3.24,3.23
21.44,-1.95,-5.18,-1.95,-5.18,5.19,5.05,2.46,3.24,3.24,3.23
21.66,-1.92,-5.15,-1.92,-5.16,5.15,5.09,2.53,3.23,3.23,3.23
21.87,-1.89,-5.12,-1.89,-5.13,5.11,5.12,2.60,3.22,3.22,3.23
22.09,-1.85,-5.09,-1.85,-5.09,5.07,5.14,2.68,3.22,3.22,3.24
22.31,-1.79,-5.03,-1.80,-5.03,5.02,5.16,2.75,3.23,3.23,3.24
22.54,-1.74,-4.97,-1.74,-4.97,4.97,5.18,2.83,3.23,3.23,3.23
22.76,-1.69,-4.91,-1.69,-4.91,4.92,5.19,2.91,3.22,3.23,3.22
22.99,-1.63,-4.85,-1.64,-4.86,4.86,5.20,3.00,3.23,3.22,3.22
23.22,-1.59,-4.81,-1.59,-4.80,4.81,5.20,3.08,3.21,3.22,3.22
23.45,-1.54,-4.75,-1.54,-4.75,4.76,5.20,3.16,3.21,3.22,3.21
23.69,-1.49,-4.70,-1.50,-4.70,4.71,5.19,3.25,3.22,3.22,3.21
23.92,-1.45,-4.66,-1.45,-4.66,4.67,5.18,3.34,3.22,3.22,3.21
24.16,-1.42,-4.63,-1.42,-4.63,4.64,5.16,3.43,3.22,3.22,3.21
24.40,-1.40,-4.61,-1.40,-4.61,4.61,5.14,3.52,3.21,3.21,3.21
24.65,-1.38,-4.59,-1.38,-4.59,4.59,5.12,3.61,3.20,3.20,3.21
24.89,-1.36,-4.57,-1.36,-4.57,4.56,5.09,3.71,3.20,3.20,3.21
25.14,-1.33,-4.54,-1.33,-4.54,4.53,5.06,3.80,3.20,3.20,3.21
25.39,-1.30,-4.50,-1.31,-4.50,4.50,5.03,3.90,3.19,3.19,3.20
25.65,-1.27,-4.47,-1.27,-4.47,4.46,4.99,3.99,3.18,3.18,3.19
25.91,-1.24,-4.44,-1.24,-4.43,4.41,4.95,4.09,3.17,3.17,3.19
26.16,-1.19,-4.39,-1.19,-4.38,4.36,4.90,4.18,3.17,3.17,3.19
26.43,-1.13,-4.33,-1.13,-4.32,4.33,4.85,4.28,3.19,3.20,3.19
26.69,-1.06,-4.26,-1.06,-4.26,4.29,4.80,4.37,3.23,3.23,3.19
26.96,-1.00,-4.20,-1.02,-4.21,4.26,4.75,4.46,3.26,3.24,3.19
27.23,-1.00,-4.19,-1.00,-4.19,4.23,4.70,4.55,3.23,3.23,3.19
27.50,-1.01,-4.20,-1.01,-4.20,4.20,4.64,4.63,3.18,3.18,3.19
27.77,-1.02,-4.21,-1.02,-4.21,4.16,4.59,4.72,3.14,3.14,3.19
28.05,-1.02,-4.21,-1.00,-4.19,4.13,4.53,4.79,3.11,3.13,3.19
28.33,-0.95,-4.14,-0.95,-4.14,4.11,4.47,4.87,3.16,3.16,3.19
28.62,-0.88,-4.07,-0.88,-4.07,4.08,4.41,4.94,3.20,3.20,3.19
28.90,-0.80,-4.00,-0.82,-4.01,4.06,4.35,5.00,3.26,3.24,3.20
29.19,-0.79,-3.99,-0.80,-3.99,4.04,4.29,5.06,3.25,3.25,3.20
29.48,-0.80,-4.00,-0.80,-4.00,4.02,4.23,5.11,3.22,3.23,3.19
29.78,-0.81,-4.02,-0.81,-4.01,4.01,4.17,5.16,3.20,3.20,3.20
30.08,-0.82,-4.03,-0.82,-4.02,4.00,4.11,5.20,3.18,3.18,3.20
30.38,-0.81,-4.01,-0.82,-4.02,3.99,4.05,5.23,3.18,3.17,3.20
30.68,-0.80,-4.00,-0.81,-4.01,3.98,3.99,5.26,3.17,3.17,3.20
30.99,-0.79,-3.99,-0.78,-3.98,3.96,3.93,5.27,3.16,3.17,3.20
31.30,-0.74,-3.94,-0.74,-3.94,3.93,3.88,5.28,3.19,3.19,3.20
31.61,-0.69,-3.89,-0.69,-3.89,3.90,3.82,5.28,3.21,3.21,3.20
31.93,-0.63,-3.83,-0.65,-3.84,3.87,3.77,5.27,3.23,3.22,3.20
32.24,-0.62,-3.81,-0.62,-3.81,3.84,3.72,5.26,3.22,3.21,3.18
32.57,-0.62,-3.81,-0.62,-3.80,3.81,3.66,5.24,3.19,3.20,3.18
32.89,-0.62,-3.80,-0.62,-3.80,3.80,3.62,5.21,3.17,3.17,3.18
33.22,-0.62,-3.79,-0.62,-3.80,3.79,3.57,5.18,3.16,3.16,3.17
33.55,-0.62,-3.79,-0.62,-3.79,3.78,3.52,5.14,3.16,3.16,3.17
33.89,-0.62,-3.78,-0.62,-3.78,3.78,3.48,5.09,3.16,3.16,3.16
34.23,-0.62,-3.78,-0.62,-3.78,3.78,3.44,5.04,3.16,3.16,3.15
34.57,-0.62,-3.78,-0.62,-3.78,3.78,3.40,4.98,3.15,3.15,3.15
34.92,-0.62,-3.77,-0.62,-3.77,3.77,3.36,4.92,3.15,3.15,3.15
35.27,-0.62,-3.77,-0.62,-3.77,3.77,3.33,4.86,3.15,3.15,3.15
35.62,-0.62,-3.77,-0.62,-3.77,3.76,3.29,4.79,3.14,3.14,3.15
35.97,-0.62,-3.77,-0.62,-3.77,3.76,3.27,4.72,3.14,3.14,3.14
36.33,-0.62,-3.77,-0.62,-3.77,3.76,3.24,4.65,3.13,3.13,3.14
36.70,-0.62,-3.76,-0.62,-3.76,3.76,3.22,4.58,3.14,3.14,3.14
37.06,-0.62,-3.76,-0.62,-3.76,3.77,3.20,4.51,3.15,3.15,3.14
37.43,-0.62,-3.76,-0.62,-3.76,3.79,3.18,4.43,3.16,3.17,3.14
37.81,-0.62,-3.77,-0.63,-3.77,3.80,3.17,4.36,3.18,3.17,3.14
38.19,-0.65,-3.79,-0.67,-3.81,3.82,3.16,4.29,3.17,3.16,3.14
38.57,-0.71,-3.85,-0.71,-3.85,3.84,3.15,4.21,3.13,3.13,3.14
38.95,-0.77,-3.92,-0.75,-3.89,3.86,3.15,4.14,3.09,3.11,3.14
39.34,-0.76,-3.90,-0.76,-3.90,3.88,3.15,4.07,3.12,3.12,3.14
39.74,-0.74,-3.88,-0.75,-3.89,3.88,3.15,4.00,3.14,3.13,3.14
40.14,-0.72,-3.86,-0.74,-3.87,3.87,3.16,3.94,3.15,3.14,3.14
40.54,-0.72,-3.86,-0.73,-3.86,3.85,3.18,3.87,3.13,3.12,3.13
40.94,-0.72,-3.85,-0.70,-3.83,3.82,3.20,3.81,3.09,3.11,3.13
41.35,-0.66,-3.79,-0.66,-3.78,3.77,3.22,3.75,3.11,3.12,3.13
41.76,-0.58,-3.69,-0.60,-3.71,3.72,3.25,3.69,3.14,3.13,3.11
42.18,-0.53,-3.64,-0.54,-3.65,3.67,3.28,3.63,3.13,3.12,3.11
42.60,-0.50,-3.61,-0.50,-3.61,3.60,3.31,3.58,3.10,3.10,3.10
43.03,-0.48,-3.58,-0.47,-3.56,3.54,3.36,3.53,3.05,3.07,3.10
43.46,-0.41,-3.51,-0.42,-3.51,3.47,3.40,3.48,3.06,3.06,3.09
43.90,-0.35,-3.43,-0.35,-3.44,3.43,3.45,3.44,3.07,3.07,3.08
44.33,-0.29,-3.37,-0.29,-3.36,3.39,3.50,3.39,3.10,3.10,3.08
44.78,-0.24,-3.31,-0.25,-3.32,3.37,3.56,3.35,3.13,3.12,3.07
45.23,-0.24,-3.31,-0.25,-3.32,3.36,3.62,3.31,3.12,3.11,3.07
45.68,-0.29,-3.35,-0.29,-3.35,3.37,3.68,3.28,3.08,3.08,3.06
46.13,-0.34,-3.41,-0.35,-3.41,3.39,3.75,3.25,3.05,3.04,3.06
46.60,-0.42,-3.48,-0.42,-3.48,3.44,3.81,3.22,3.02,3.02,3.06
47.06,-0.48,-3.55,-0.46,-3.52,3.51,3.87,3.19,3.02,3.05,3.06
47.53,-0.50,-3.57,-0.50,-3.57,3.59,3.93,3.16,3.08,3.08,3.07
48.01,-0.52,-3.59,-0.57,-3.64,3.67,3.99,3.14,3.15,3.11,3.07
48.49,-0.66,-3.74,-0.66,-3.73,3.77,4.04,3.12,3.10,3.10,3.07
48.97,-0.80,-3.88,-0.77,-3.85,3.86,4.08,3.10,3.05,3.09,3.08
49.46,-0.87,-3.95,-0.87,-3.96,3.94,4.11,3.08,3.07,3.07,3.08
49.96,-0.93,-4.03,-0.96,-4.05,4.02,4.14,3.07,3.09,3.06,3.09
50.46,-1.02,-4.12,-1.03,-4.12,4.10,4.15,3.05,3.07,3.07,3.10
50.96,-1.10,-4.21,-1.07,-4.17,4.15,4.14,3.04,3.05,3.09,3.11
51.47,-1.08,-4.19,-1.08,-4.19,4.19,4.13,3.03,3.11,3.11,3.11
51.99,-1.05,-4.16,-1.08,-4.19,4.20,4.10,3.02,3.15,3.12,3.11
52.51,-1.06,-4.17,-1.07,-4.18,4.18,4.05,3.01,3.12,3.12,3.11
53.03,-1.07,-4.19,-1.05,-4.16,4.15,3.99,3.01,3.07,3.10,3.11
53.56,-0.99,-4.11,-1.00,-4.12,4.08,3.92,3.00,3.09,3.09,3.11
54.10,-0.91,-4.04,-0.91,-4.03,4.01,3.83,2.99,3.09,3.10,3.12
54.64,-0.79,-3.92,-0.79,-3.92,3.91,3.74,2.98,3.12,3.12,3.12
55.18,-0.67,-3.80,-0.68,-3.80,3.81,3.63,2.98,3.14,3.13,3.12
55.74,-0.57,-3.69,-0.57,-3.69,3.70,3.52,2.97,3.13,3.13,3.11
56.29,-0.47,-3.58,-0.47,-3.58,3.60,3.41,2.96,3.12,3.13,3.11
56.86,-0.37,-3.48,-0.37,-3.47,3.50,3.29,2.95,3.12,3.13,3.11
57.42,-0.27,-3.37,-0.27,-3.37,3.41,3.17,2.94,3.13,3.13,3.10
58.00,-0.18,-3.27,-0.20,-3.29,3.32,3.05,2.93,3.14,3.12,3.09
58.58,-0.15,-3.23,-0.15,-3.23,3.24,2.92,2.91,3.09,3.09,3.07
59.16,-0.12,-3.18,-0.11,-3.17,3.16,2.80,2.89,3.04,3.05,3.06
59.76,-0.06,-3.11,-0.06,-3.10,3.07,2.68,2.88,3.00,3.00,3.05
60.35,0.02,-3.00,0.01,-3.01,2.96,2.57,2.85,2.98,2.98,3.02
60.96,0.11,-2.89,0.10,-2.89,2.85,2.46,2.83,2.96,2.95,3.00
61.57,0.22,-2.76,0.23,-2.74,2.72,2.35,2.80,2.94,2.95,2.97
62.18,0.34,-2.60,0.36,-2.57,2.58,2.24,2.77,2.92,2.95,2.94
62.80,0.52,-2.38,0.47,-2.43,2.44,2.14,2.74,2.96,2.91,2.90
63.43,0.58,-2.28,0.57,-2.29,2.31,2.04,2.71,2.89,2.88,2.85
64.07,0.59,-2.23,0.66,-2.16,2.19,1.95,2.67,2.78,2.85,2.82
64.71,0.75,-2.02,0.72,-2.06,2.09,1.86,2.63,2.83,2.80,2.77
65.35,0.81,-1.92,0.77,-1.96,2.00,1.77,2.58,2.80,2.77,2.73
66.01,0.78,-1.92,0.80,-1.89,1.92,1.69,2.54,2.69,2.72,2.69
66.67,0.78,-1.88,0.77,-1.88,1.85,1.61,2.49,2.63,2.62,2.65
67.33,0.78,-1.85,0.78,-1.84,1.79,1.54,2.44,2.57,2.57,2.62
68.01,0.78,-1.81,0.82,-1.76,1.74,1.46,2.38,2.51,2.56,2.58
68.69,0.90,-1.66,0.86,-1.69,1.69,1.40,2.33,2.59,2.55,2.55
69.37,0.93,-1.60,0.90,-1.62,1.65,1.33,2.27,2.58,2.55,2.52
70.07,0.89,-1.60,0.93,-1.57,1.61,1.27,2.21,2.50,2.54,2.49
70.77,0.93,-1.53,0.91,-1.55,1.57,1.21,2.15,2.50,2.48,2.46
71.48,0.91,-1.53,0.90,-1.53,1.53,1.15,2.09,2.44,2.43,2.44
72.19,0.88,-1.52,0.90,-1.50,1.49,1.09,2.02,2.36,2.38,2.40
72.91,0.91,-1.46,0.88,-1.49,1.45,1.04,1.96,2.35,2.33,2.37
73.64,0.88,-1.46,0.90,-1.44,1.41,0.99,1.89,2.28,2.30,2.33
74.38,0.91,-1.39,0.93,-1.37,1.36,0.94,1.83,2.27,2.29,2.30
75.12,0.99,-1.27,0.96,-1.30,1.31,0.89,1.76,2.30,2.27,2.26
75.87,0.99,-1.23,0.99,-1.23,1.26,0.85,1.69,2.24,2.24,2.21
76.63,0.99,-1.19,0.99,-1.18,1.20,0.80,1.63,2.19,2.20,2.18
77.40,0.99,-1.14,0.99,-1.14,1.15,0.76,1.56,2.14,2.14,2.13
78.17,0.99,-1.10,0.99,-1.10,1.10,0.72,1.49,2.09,2.09,2.09
78.95,0.99,-1.06,0.99,-1.06,1.06,0.68,1.43,2.04,2.04,2.04
79.74,0.99,-1.02,0.99,-1.01,1.01,0.64,1.36,2.00,2.00,2.00
80.54,0.99,-0.97,0.99,-0.97,0.97,0.60,1.29,1.95,1.95,1.95
81.35,0.99,-0.93,0.98,-0.94,0.92,0.57,1.23,1.91,1.90,1.91
82.16,0.99,-0.88,0.99,-0.87,0.87,0.53,1.16,1.85,1.86,1.87
82.98,0.99,-0.84,1.03,-0.80,0.81,0.50,1.09,1.80,1.84,1.83
83.81,1.10,-0.69,1.05,-0.74,0.75,0.46,1.03,1.84,1.79,1.79
84.65,1.08,-0.68,1.06,-0.69,0.68,0.43,0.96,1.76,1.74,1.75
85.50,1.05,-0.66,1.09,-0.62,0.61,0.40,0.90,1.66,1.70,1.71
86.35,1.09,-0.58,1.11,-0.56,0.55,0.37,0.84,1.63,1.65,1.67
87.22,1.19,-0.44,1.15,-0.47,0.48,0.34,0.77,1.67,1.63,1.62
88.09,1.19,-0.39,1.19,-0.39,0.42,0.31,0.71,1.61,1.61,1.58
88.97,1.19,-0.35,1.20,-0.34,0.36,0.28,0.65,1.55,1.56,1.54
89.86,1.19,-0.31,1.19,-0.31,0.31,0.25,0.59,1.50,1.50,1.50
90.76,1.19,-0.26,1.19,-0.27,0.26,0.22,0.53,1.45,1.45,1.45
91.66,1.19,-0.23,1.19,-0.23,0.22,0.19,0.46,1.40,1.40,1.41
92.58,1.19,-0.19,1.19,-0.19,0.18,0.17,0.40,1.36,1.36,1.38
93.51,1.19,-0.14,1.19,-0.15,0.14,0.14,0.34,1.33,1.33,1.33
94.44,1.19,-0.10,1.19,-0.10,0.10,0.11,0.29,1.29,1.29,1.29
95.39,1.19,-0.07,1.19,-0.07,0.07,0.09,0.23,1.26,1.26,1.25
96.34,1.19,-0.03,1.18,-0.03,0.03,0.06,0.17,1.22,1.22,1.22
97.30,1.18,-0.00,1.18,0.00,0.00,0.04,0.11,1.18,1.18,1.18
98.28,1.17,0.04,1.17,0.04,-0.03,0.01,0.05,1.14,1.14,1.13
99.26,1.16,0.07,1.15,0.06,-0.06,-0.01,-0.00,1.09,1.09,1.09
100.25,1.14,0.09,1.14,0.09,-0.09,-0.04,-0.06,1.04,1.04,1.05
101.25,1.12,0.11,1.12,0.11,-0.12,-0.06,-0.11,1.00,1.00,1.01
102.27,1.11,0.14,1.11,0.15,-0.15,-0.09,-0.17,0.96,0.96,0.96
103.29,1.10,0.18,1.09,0.18,-0.18,-0.11,-0.22,0.92,0.92,0.91
104.32,1.08,0.21,1.08,0.21,-0.20,-0.14,-0.28,0.87,0.87,0.86
105.37,1.06,0.23,1.06,0.24,-0.23,-0.16,-0.33,0.83,0.83,0.82
106.42,1.03,0.25,1.03,0.26,-0.25,-0.18,-0.38,0.78,0.78,0.77
107.48,1.01,0.28,1.00,0.28,-0.27,-0.21,-0.43,0.73,0.73,0.72
108.56,0.98,0.30,0.98,0.30,-0.30,-0.23,-0.48,0.68,0.68,0.68
109.64,0.96,0.33,0.96,0.33,-0.33,-0.26,-0.53,0.63,0.63,0.63
110.74,0.94,0.35,0.94,0.35,-0.36,-0.28,-0.57,0.57,0.57,0.59
111.85,0.93,0.38,0.91,0.37,-0.41,-0.30,-0.62,0.52,0.51,0.55
112.97,0.92,0.41,0.93,0.42,-0.45,-0.33,-0.66,0.47,0.47,0.51
114.10,0.92,0.45,0.97,0.49,-0.50,-0.35,-0.71,0.42,0.47,0.47
115.24,1.06,0.61,1.01,0.57,-0.54,-0.38,-0.75,0.51,0.47,0.44
116.39,1.06,0.65,1.04,0.63,-0.59,-0.40,-0.79,0.47,0.45,0.40
117.55,1.03,0.64,1.05,0.66,-0.63,-0.42,-0.82,0.40,0.42,0.39
118.73,1.02,0.66,1.02,0.66,-0.66,-0.45,-0.86,0.35,0.36,0.36
119.92,1.03,0.68,1.02,0.68,-0.70,-0.47,-0.89,0.33,0.32,0.34
121.12,1.03,0.70,1.03,0.70,-0.72,-0.50,-0.93,0.31,0.31,0.33
122.33,1.04,0.73,1.04,0.73,-0.74,-0.52,-0.96,0.30,0.30,0.31
123.55,1.05,0.75,1.05,0.75,-0.75,-0.55,-0.98,0.29,0.29,0.29
124.79,1.06,0.78,1.05,0.78,-0.77,-0.57,-1.01,0.28,0.28,0.28
126.03,1.06,0.79,1.06,0.80,-0.79,-0.60,-1.03,0.26,0.27,0.26
127.29,1.07,0.82,1.07,0.82,-0.82,-0.62,-1.05,0.25,0.25,0.25
128.57,1.08,0.84,1.07,0.84,-0.84,-0.65,-1.07,0.24,0.23,0.23
129.85,1.08,0.86,1.08,0.86,-0.86,-0.67,-1.09,0.22,0.22,0.22
131.15,1.09,0.88,1.08,0.88,-0.88,-0.70,-1.11,0.21,0.20,0.21
132.46,1.09,0.90,1.09,0.90,-0.90,-0.73,-1.12,0.19,0.19,0.19
133.79,1.10,0.92,1.09,0.92,-0.92,-0.75,-1.13,0.18,0.17,0.17
135.12,1.10,0.94,1.10,0.94,-0.94,-0.78,-1.15,0.16,0.16,0.15
136.48,1.10,0.96,1.10,0.96,-0.96,-0.81,-1.16,0.14,0.14,0.14
137.84,1.11,0.99,1.10,0.98,-0.98,-0.83,-1.16,0.13,0.12,0.12
139.22,1.11,1.01,1.11,1.00,-1.00,-0.86,-1.17,0.10,0.10,0.10
140.61,1.11,1.02,1.11,1.02,-1.02,-0.89,-1.18,0.08,0.08,0.08
142.02,1.11,1.04,1.11,1.05,-1.05,-0.92,-1.18,0.06,0.06,0.06
143.44,1.11,1.07,1.11,1.07,-1.07,-0.94,-1.19,0.04,0.04,0.04
144.87,1.11,1.10,1.11,1.10,-1.10,-0.97,-1.19,0.01,0.01,0.01
146.32,1.11,1.13,1.11,1.13,-1.13,-1.00,-1.20,-0.02,-0.02,-0.02
147.78,1.11,1.16,1.11,1.16,-1.17,-1.03,-1.20,-0.06,-0.06,-0.05
149.26,1.11,1.20,1.11,1.20,-1.21,-1.06,-1.21,-0.10,-0.10,-0.09
150.75,1.11,1.24,1.11,1.24,-1.26,-1.09,-1.21,-0.15,-0.15,-0.14
152.26,1.11,1.30,1.11,1.30,-1.31,-1.11,-1.21,-0.20,-0.20,-0.19
153.78,1.11,1.35,1.11,1.35,-1.35,-1.14,-1.22,-0.25,-0.25,-0.24
155.32,1.11,1.41,1.12,1.42,-1.40,-1.17,-1.22,-0.29,-0.28,-0.31
156.88,1.11,1.47,1.10,1.46,-1.43,-1.20,-1.23,-0.33,-0.33,-0.36
158.44,1.11,1.53,1.07,1.49,-1.47,-1.23,-1.24,-0.36,-0.40,-0.42
160.03,1.00,1.47,1.05,1.52,-1.50,-1.26,-1.24,-0.51,-0.45,-0.47
161.63,1.02,1.53,1.00,1.52,-1.54,-1.29,-1.25,-0.52,-0.53,-0.51
163.24,1.01,1.57,0.97,1.53,-1.57,-1.32,-1.26,-0.56,-0.60,-0.56
164.88,0.93,1.52,0.97,1.57,-1.60,-1.35,-1.27,-0.67,-0.63,-0.59
166.53,0.98,1.60,0.99,1.61,-1.63,-1.38,-1.28,-0.65,-0.64,-0.62
168.19,1.04,1.68,1.02,1.66,-1.65,-1.41,-1.29,-0.62,-0.63,-0.64
169.87,1.09,1.74,1.07,1.72,-1.67,-1.44,-1.30,-0.59,-0.60,-0.65
171.57,1.08,1.73,1.08,1.74,-1.69,-1.47,-1.31,-0.61,-0.61,-0.66
173.29,1.07,1.72,1.08,1.73,-1.70,-1.50,-1.33,-0.64,-0.63,-0.65
175.02,1.07,1.71,1.07,1.71,-1.71,-1.53,-1.34,-0.65,-0.65,-0.64
176.77,1.07,1.69,1.06,1.68,-1.72,-1.56,-1.36,-0.65,-0.67,-0.63
178.54,1.07,1.68,1.06,1.67,-1.72,-1.59,-1.37,-0.66,-0.66,-0.61
180.32,1.07,1.65,1.11,1.70,-1.72,-1.62,-1.39,-0.66,-0.61,-0.59
182.13,1.18,1.75,1.17,1.74,-1.72,-1.65,-1.41,-0.55,-0.56,-0.57
183.95,1.27,1.81,1.21,1.76,-1.73,-1.68,-1.43,-0.46,-0.52,-0.55
185.79,1.21,1.75,1.23,1.77,-1.74,-1.70,-1.45,-0.54,-0.51,-0.54
187.65,1.21,1.74,1.22,1.76,-1.76,-1.73,-1.48,-0.55,-0.54,-0.53
189.52,1.23,1.75,1.22,1.75,-1.78,-1.76,-1.50,-0.55,-0.56,-0.53
191.42,1.24,1.77,1.24,1.76,-1.79,-1.79,-1.52,-0.55,-0.55,-0.53
193.33,1.25,1.77,1.25,1.77,-1.78,-1.81,-1.55,-0.54,-0.53,-0.52
195.27,1.27,1.79,1.28,1.80,-1.77,-1.84,-1.57,-0.51,-0.50,-0.52
197.22,1.28,1.81,1.28,1.81,-1.76,-1.86,-1.60,-0.48,-0.48,-0.53
199.19,1.30,1.83,1.25,1.79,-1.75,-1.89,-1.63,-0.45,-0.50,-0.53
201.18,1.19,1.73,1.19,1.74,-1.74,-1.91,-1.66,-0.55,-0.55,-0.55
203.19,1.11,1.66,1.14,1.69,-1.73,-1.93,-1.69,-0.63,-0.59,-0.56
205.23,1.11,1.67,1.11,1.68,-1.73,-1.95,-1.72,-0.62,-0.61,-0.57
207.28,1.14,1.71,1.12,1.70,-1.73,-1.97,-1.75,-0.59,-0.61,-0.58
209.35,1.16,1.74,1.14,1.73,-1.73,-1.99,-1.78,-0.57,-0.59,-0.58
211.44,1.13,1.73,1.16,1.76,-1.75,-2.01,-1.80,-0.62,-0.59,-0.60
213.56,1.18,1.79,1.17,1.78,-1.77,-2.03,-1.83,-0.60,-0.60,-0.61
215.69,1.20,1.83,1.18,1.81,-1.80,-2.04,-1.86,-0.61,-0.62,-0.63
217.85,1.19,1.82,1.19,1.83,-1.83,-2.06,-1.89,-0.64,-0.63,-0.64
220.03,1.19,1.84,1.19,1.84,-1.84,-2.07,-1.92,-0.65,-0.65,-0.66
222.23,1.19,1.85,1.19,1.85,-1.84,-2.09,-1.95,-0.65,-0.65,-0.66
224.45,1.19,1.86,1.20,1.87,-1.83,-2.10,-1.97,-0.64,-0.63,-0.67
226.70,1.19,1.86,1.18,1.86,-1.82,-2.11,-2.00,-0.64,-0.64,-0.68
228.96,1.19,1.87,1.12,1.81,-1.82,-2.12,-2.02,-0.63,-0.69,-0.68
231.25,1.03,1.71,1.08,1.77,-1.82,-2.12,-2.04,-0.79,-0.73,-0.68
233.57,1.03,1.71,1.06,1.74,-1.81,-2.13,-2.07,-0.79,-0.76,-0.69
235.90,1.12,1.80,1.09,1.77,-1.81,-2.13,-2.08,-0.69,-0.72,-0.68
238.26,1.14,1.82,1.17,1.84,-1.80,-2.14,-2.10,-0.67,-0.63,-0.68
240.64,1.24,1.90,1.20,1.86,-1.79,-2.14,-2.11,-0.56,-0.60,-0.66
243.05,1.21,1.87,1.18,1.84,-1.79,-2.14,-2.13,-0.58,-0.61,-0.66
245.48,1.11,1.76,1.15,1.80,-1.79,-2.14,-2.14,-0.68,-0.64,-0.65
247.93,1.11,1.76,1.12,1.77,-1.79,-2.14,-2.14,-0.68,-0.67,-0.65
250.41,1.13,1.77,1.11,1.75,-1.79,-2.14,-2.15,-0.66,-0.68,-0.64
252.92,1.15,1.79,1.11,1.75,-1.78,-2.13,-2.15,-0.63,-0.67,-0.64
255.45,1.08,1.72,1.13,1.77,-1.78,-2.13,-2.15,-0.70,-0.65,-0.64
258.00,1.13,1.77,1.16,1.80,-1.79,-2.12,-2.15,-0.67,-0.64,-0.65
260.58,1.25,1.90,1.18,1.83,-1.83,-2.11,-2.15,-0.58,-0.65,-0.65
263.19,1.23,1.88,1.22,1.88,-1.87,-2.10,-2.14,-0.64,-0.65,-0.66
265.82,1.19,1.85,1.25,1.91,-1.92,-2.09,-2.13,-0.74,-0.68,-0.66
268.48,1.32,1.98,1.29,1.95,-1.98,-2.08,-2.12,-0.66,-0.69,-0.66
271.16,1.36,2.02,1.36,2.03,-2.04,-2.07,-2.11,-0.68,-0.68,-0.67
273.87,1.46,2.13,1.44,2.11,-2.08,-2.06,-2.10,-0.63,-0.65,-0.67
276.61,1.46,2.13,1.48,2.16,-2.13,-2.05,-2.08,-0.67,-0.64,-0.67
279.38,1.54,2.21,1.53,2.20,-2.17,-2.03,-2.06,-0.63,-0.64,-0.68
282.17,1.57,2.24,1.55,2.22,-2.20,-2.02,-2.05,-0.64,-0.65,-0.67
284.99,1.57,2.23,1.58,2.24,-2.24,-2.00,-2.03,-0.67,-0.66,-0.66
287.84,1.58,2.24,1.57,2.23,-2.27,-1.99,-2.01,-0.69,-0.70,-0.66
290.72,1.59,2.24,1.59,2.25,-2.29,-1.97,-1.99,-0.71,-0.70,-0.66
293.63,1.60,2.25,1.65,2.30,-2.32,-1.95,-1.97,-0.72,-0.67,-0.65
296.57,1.75,2.39,1.71,2.35,-2.34,-1.94,-1.95,-0.59,-0.63,-0.64
299.53,1.79,2.43,1.75,2.39,-2.36,-1.92,-1.93,-0.57,-0.60,-0.64
302.53,1.75,2.38,1.77,2.41,-2.38,-1.90,-1.91,-0.63,-0.61,-0.64
305.55,1.75,2.39,1.76,2.40,-2.40,-1.88,-1.89,-0.65,-0.64,-0.64
308.61,1.76,2.40,1.75,2.39,-2.41,-1.86,-1.87,-0.66,-0.66,-0.64
311.69,1.77,2.41,1.76,2.41,-2.42,-1.84,-1.85,-0.65,-0.66,-0.64
314.81,1.77,2.42,1.77,2.42,-2.42,-1.83,-1.83,-0.66,-0.66,-0.66
317.96,1.77,2.42,1.77,2.43,-2.43,-1.81,-1.82,-0.66,-0.66,-0.66
321.14,1.77,2.44,1.77,2.43,-2.43,-1.79,-1.80,-0.66,-0.66,-0.67
324.35,1.77,2.44,1.77,2.44,-2.44,-1.77,-1.78,-0.67,-0.67,-0.67
327.59,1.77,2.45,1.77,2.45,-2.45,-1.75,-1.77,-0.69,-0.69,-0.68
330.87,1.77,2.46,1.77,2.46,-2.47,-1.73,-1.76,-0.71,-0.71,-0.69
334.18,1.77,2.47,1.76,2.47,-2.49,-1.71,-1.74,-0.73,-0.73,-0.71
337.52,1.77,2.48,1.76,2.48,-2.51,-1.70,-1.73,-0.74,-0.75,-0.72
340.90,1.77,2.49,1.78,2.50,-2.52,-1.68,-1.72,-0.75,-0.74,-0.72
344.30,1.79,2.52,1.81,2.54,-2.52,-1.66,-1.71,-0.73,-0.71,-0.73
347.75,1.84,2.59,1.80,2.54,-2.51,-1.64,-1.71,-0.67,-0.71,-0.75
351.23,1.78,2.54,1.74,2.51,-2.48,-1.63,-1.70,-0.70,-0.74,-0.76
354.74,1.61,2.38,1.67,2.44,-2.44,-1.61,-1.70,-0.83,-0.77,-0.77
358.28,1.56,2.34,1.56,2.34,-2.37,-1.60,-1.69,-0.82,-0.82,-0.78
361.87,1.49,2.28,1.44,2.24,-2.28,-1.58,-1.69,-0.79,-0.83,-0.80
365.49,1.30,2.11,1.34,2.15,-2.14,-1.57,-1.69,-0.84,-0.80,-0.82
369.14,1.18,2.01,1.20,2.02,-1.96,-1.55,-1.69,-0.79,-0.77,-0.83
372.83,1.04,1.88,1.00,1.84,-1.76,-1.54,-1.69,-0.73,-0.76,-0.84
376.56,0.80,1.65,0.76,1.61,-1.54,-1.53,-1.70,-0.74,-0.78,-0.85
380.33,0.44,1.30,0.46,1.32,-1.31,-1.51,-1.70,-0.87,-0.84,-0.86
384.13,0.13,1.00,0.15,1.02,-1.06,-1.50,-1.71,-0.94,-0.92,-0.87
387.97,-0.12,0.76,-0.12,0.76,-0.82,-1.49,-1.72,-0.95,-0.95,-0.88
391.85,-0.34,0.55,-0.34,0.55,-0.59,-1.48,-1.72,-0.94,-0.94,-0.89
395.77,-0.52,0.38,-0.54,0.37,-0.39,-1.47,-1.73,-0.91,-0.93,-0.90
399.73,-0.70,0.21,-0.70,0.22,-0.22,-1.46,-1.74,-0.93,-0.92,-0.92
403.72,-0.84,0.08,-0.82,0.11,-0.10,-1.45,-1.75,-0.94,-0.92,-0.93
407.76,-0.91,0.03,-0.93,0.01,-0.02,-1.45,-1.76,-0.93,-0.95,-0.95
411.84,-0.97,-0.02,-1.00,-0.04,0.02,-1.44,-1.78,-0.95,-0.97,-0.96
415.96,-1.06,-0.10,-1.02,-0.05,0.03,-1.44,-1.79,-1.03,-0.99,-0.97
420.12,-0.99,-0.02,-1.00,-0.03,0.00,-1.43,-1.80,-0.99,-1.00,-0.97
424.32,-0.93,0.05,-0.94,0.04,-0.05,-1.43,-1.82,-0.99,-0.99,-0.98
428.56,-0.83,0.15,-0.84,0.14,-0.14,-1.43,-1.83,-0.97,-0.98,-0.98
432.85,-0.73,0.24,-0.73,0.25,-0.24,-1.42,-1.85,-0.97,-0.97,-0.97
437.18,-0.59,0.37,-0.59,0.37,-0.36,-1.42,-1.86,-0.96,-0.95,-0.96
441.55,-0.42,0.52,-0.43,0.51,-0.49,-1.42,-1.88,-0.92,-0.93,-0.94
445.96,-0.27,0.65,-0.28,0.64,-0.63,-1.43,-1.89,-0.90,-0.91,-0.92
450.42,-0.12,0.77,-0.12,0.77,-0.76,-1.43,-1.90,-0.89,-0.89,-0.89
454.93,0.03,0.88,0.04,0.89,-0.89,-1.43,-1.92,-0.87,-0.85,-0.85
459.48,0.21,1.02,0.20,1.02,-1.01,-1.44,-1.93,-0.81,-0.81,-0.81
464.07,0.37,1.15,0.36,1.14,-1.13,-1.44,-1.94,-0.76,-0.77,-0.78
468.71,0.51,1.25,0.50,1.25,-1.23,-1.45,-1.96,-0.73,-0.73,-0.74
473.40,0.63,1.33,0.64,1.34,-1.33,-1.46,-1.97,-0.71,-0.70,-0.70
478.13,0.76,1.42,0.75,1.42,-1.43,-1.47,-1.98,-0.67,-0.67,-0.66
482.91,0.88,1.51,0.86,1.50,-1.51,-1.48,-1.98,-0.63,-0.65,-0.63
487.74,0.96,1.56,0.98,1.58,-1.58,-1.49,-1.99,-0.63,-0.61,-0.61
492.62,1.07,1.65,1.08,1.66,-1.65,-1.51,-2.00,-0.58,-0.57,-0.59
497.55,1.19,1.75,1.16,1.72,-1.71,-1.52,-2.00,-0.53,-0.56,-0.57
502.52,1.23,1.78,1.22,1.78,-1.77,-1.54,-2.01,-0.55,-0.55,-0.56
507.55,1.25,1.80,1.28,1.84,-1.83,-1.56,-2.01,-0.59,-0.56,-0.56
