frequency,raw,error,smoothed,error_smoothed,equalization,parametric_eq,fixed_band_eq,equalized_raw,equalized_smoothed,target
20.00,-8.92,-13.83,-8.92,-13.83,6.00,5.55,2.87,-2.92,-2.92,4.91
20.20,-8.84,-13.73,-8.85,-13.73,6.00,5.58,2.95,-2.84,-2.85,4.89
20.40,-8.77,-13.63,-8.77,-13.63,6.00,5.62,3.04,-2.77,-2.77,4.85
20.61,-8.70,-13.53,-8.69,-13.53,6.00,5.65,3.12,-2.70,-2.69,4.84
20.81,-8.60,-13.42,-8.61,-13.42,6.00,5.68,3.21,-2.60,-2.61,4.81
21.02,-8.52,-13.31,-8.52,-13.31,6.00,5.71,3.30,-2.52,-2.52,4.78
21.23,-8.43,-13.20,-8.44,-13.20,6.00,5.74,3.39,-2.43,-2.44,4.76
21.44,-8.35,-13.10,-8.36,-13.10,6.00,5.77,3.49,-2.35,-2.36,4.74
21.66,-8.28,-13.00,-8.27,-13.00,6.00,5.80,3.59,-2.28,-2.27,4.72
21.87,-8.19,-12.90,-8.19,-12.89,6.00,5.83,3.69,-2.19,-2.19,4.70
22.09,-8.09,-12.78,-8.10,-12.78,6.00,5.86,3.79,-2.09,-2.10,4.68
22.31,-8.01,-12.68,-8.01,-12.67,6.00,5.88,3.90,-2.01,-2.01,4.66
22.54,-7.94,-12.57,-7.93,-12.56,6.00,5.91,4.01,-1.94,-1.93,4.63
22.76,-7.83,-12.45,-7.84,-12.45,6.00,5.93,4.12,-1.83,-1.84,4.61
22.99,-7.75,-12.35,-7.75,-12.34,6.00,5.96,4.24,-1.75,-1.75,4.59
23.22,-7.66,-12.24,-7.66,-12.23,6.00,5.98,4.36,-1.66,-1.66,4.57
23.45,-7.56,-12.12,-7.57,-12.13,6.00,6.00,4.48,-1.56,-1.57,4.56
23.69,-7.48,-12.02,-7.47,-12.02,6.00,6.03,4.60,-1.48,-1.47,4.54
23.92,-7.38,-11.91,-7.38,-11.91,6.00,6.05,4.73,-1.38,-1.38,4.53
24.16,-7.28,-11.79,-7.29,-11.80,6.00,6.07,4.86,-1.28,-1.29,4.51
24.40,-7.19,-11.69,-7.19,-11.69,6.00,6.09,4.99,-1.19,-1.19,4.50
24.65,-7.11,-11.59,-7.10,-11.58,6.00,6.11,5.12,-1.11,-1.10,4.49
24.89,-7.00,-11.47,-7.00,-11.48,6.00,6.12,5.25,-1.00,-1.00,4.47
25.14,-6.90,-11.36,-6.90,-11.36,6.00,6.14,5.39,-0.90,-0.90,4.46
25.39,-6.80,-11.25,-6.80,-11.25,6.00,6.16,5.52,-0.80,-0.80,4.45
25.65,-6.71,-11.14,-6.71,-11.15,6.00,6.17,5.66,-0.71,-0.71,4.44
25.91,-6.62,-11.04,-6.61,-11.04,6.00,6.18,5.80,-0.62,-0.61,4.43
26.16,-6.51,-10.93,-6.51,-10.93,6.00,6.20,5.94,-0.51,-0.51,4.42
26.43,-6.42,-10.81,-6.42,-10.81,6.00,6.21,6.08,-0.42,-0.42,4.40
26.69,-6.31,-10.70,-6.32,-10.70,6.00,6.22,6.21,-0.31,-0.32,4.38
26.96,-6.23,-10.60,-6.22,-10.60,6.00,6.23,6.35,-0.23,-0.22,4.37
27.23,-6.13,-10.49,-6.13,-10.49,6.00,6.24,6.48,-0.13,-0.13,4.36
27.50,-6.04,-10.39,-6.03,-10.38,6.00,6.25,6.61,-0.04,-0.03,4.35
27.77,-5.92,-10.27,-5.93,-10.27,6.00,6.25,6.73,0.08,0.07,4.35
28.05,-5.82,-10.16,-5.83,-10.17,6.00,6.26,6.85,0.18,0.17,4.34
28.33,-5.72,-10.05,-5.72,-10.06,6.00,6.27,6.97,0.28,0.28,4.33
28.62,-5.63,-9.96,-5.63,-9.95,6.00,6.27,7.08,0.37,0.37,4.33
28.90,-5.52,-9.84,-5.53,-9.85,6.00,6.27,7.18,0.48,0.47,4.32
29.19,-5.43,-9.75,-5.43,-9.74,6.00,6.27,7.27,0.57,0.57,4.32
29.48,-5.32,-9.63,-5.33,-9.63,6.00,6.28,7.35,0.68,0.67,4.31
29.78,-5.23,-9.53,-5.23,-9.53,6.00,6.28,7.43,0.77,0.77,4.31
30.08,-5.13,-9.42,-5.13,-9.43,6.00,6.27,7.49,0.87,0.87,4.29
30.38,-5.04,-9.33,-5.03,-9.32,6.00,6.27,7.54,0.96,0.97,4.29
30.68,-4.93,-9.22,-4.94,-9.22,6.00,6.27,7.58,1.07,1.06,4.28
30.99,-4.84,-9.11,-4.84,-9.12,6.00,6.26,7.61,1.16,1.16,4.27
31.30,-4.76,-9.03,-4.75,-9.01,6.00,6.26,7.63,1.24,1.25,4.27
31.61,-4.65,-8.91,-4.66,-8.92,6.00,6.25,7.63,1.35,1.34,4.26
31.93,-4.58,-8.82,-4.58,-8.83,6.00,6.24,7.63,1.42,1.42,4.25
32.24,-4.49,-8.74,-4.49,-8.73,6.00,6.24,7.61,1.51,1.51,4.25
32.57,-4.41,-8.64,-4.41,-8.64,6.00,6.23,7.58,1.59,1.59,4.23
32.89,-4.32,-8.55,-4.32,-8.54,6.00,6.22,7.54,1.68,1.68,4.22
33.22,-4.23,-8.45,-4.23,-8.44,6.00,6.21,7.49,1.77,1.77,4.21
33.55,-4.14,-8.34,-4.15,-8.35,6.00,6.19,7.43,1.86,1.85,4.20
33.89,-4.06,-8.25,-4.06,-8.25,6.00,6.18,7.36,1.94,1.94,4.19
34.23,-3.99,-8.16,-3.98,-8.16,6.00,6.16,7.29,2.01,2.02,4.18
34.57,-3.89,-8.07,-3.90,-8.07,6.00,6.15,7.21,2.11,2.10,4.17
34.92,-3.82,-7.98,-3.81,-7.98,6.00,6.13,7.12,2.18,2.19,4.16
35.27,-3.73,-7.88,-3.73,-7.88,6.00,6.12,7.03,2.27,2.27,4.15
35.62,-3.65,-7.79,-3.64,-7.79,6.00,6.10,6.93,2.35,2.36,4.15
35.97,-3.56,-7.70,-3.56,-7.70,6.00,6.08,6.84,2.44,2.44,4.14
36.33,-3.47,-7.61,-3.48,-7.61,6.00,6.06,6.74,2.53,2.52,4.13
36.70,-3.41,-7.53,-3.40,-7.52,6.00,6.04,6.63,2.59,2.60,4.12
37.06,-3.32,-7.43,-3.32,-7.44,6.00,6.02,6.53,2.68,2.68,4.11
37.43,-3.24,-7.35,-3.24,-7.35,6.00,5.99,6.43,2.76,2.76,4.11
37.81,-3.16,-7.26,-3.16,-7.26,6.00,5.97,6.33,2.84,2.84,4.10
38.19,-3.09,-7.18,-3.09,-7.18,6.00,5.95,6.23,2.91,2.91,4.09
38.57,-3.01,-7.09,-3.01,-7.09,6.00,5.92,6.13,2.99,2.99,4.08
38.95,-2.93,-7.01,-2.93,-7.01,6.00,5.89,6.03,3.07,3.07,4.08
39.34,-2.85,-6.92,-2.85,-6.92,6.00,5.87,5.93,3.15,3.15,4.06
39.74,-2.78,-6.84,-2.78,-6.84,6.00,5.84,5.84,3.22,3.22,4.06
40.14,-2.71,-6.75,-2.70,-6.75,6.00,5.81,5.75,3.29,3.30,4.05
40.54,-2.64,-6.68,-2.63,-6.67,6.00,5.78,5.66,3.36,3.37,4.04
40.94,-2.55,-6.59,-2.56,-6.59,6.00,5.75,5.58,3.45,3.44,4.03
41.35,-2.48,-6.51,-2.48,-6.51,6.00,5.72,5.50,3.52,3.52,4.03
41.76,-2.41,-6.43,-2.41,-6.43,6.01,5.69,5.42,3.59,3.60,4.01
42.18,-2.34,-6.35,-2.34,-6.35,6.01,5.66,5.35,3.67,3.67,4.01
42.60,-2.27,-6.27,-2.28,-6.27,6.01,5.63,5.28,3.74,3.74,4.00
43.03,-2.21,-6.21,-2.21,-6.20,6.01,5.59,5.21,3.79,3.80,3.99
43.46,-2.14,-6.12,-2.14,-6.12,5.99,5.56,5.15,3.85,3.85,3.98
43.90,-2.08,-6.05,-2.08,-6.05,5.97,5.53,5.09,3.89,3.89,3.97
44.33,-2.00,-5.97,-2.01,-5.97,5.93,5.49,5.04,3.93,3.93,3.97
44.78,-1.94,-5.90,-1.94,-5.90,5.89,5.46,4.99,3.94,3.94,3.95
45.23,-1.88,-5.82,-1.88,-5.82,5.83,5.42,4.94,3.96,3.95,3.95
45.68,-1.81,-5.76,-1.81,-5.75,5.77,5.38,4.90,3.95,3.96,3.94
46.13,-1.74,-5.68,-1.75,-5.68,5.70,5.35,4.86,3.95,3.95,3.94
46.60,-1.69,-5.62,-1.68,-5.61,5.62,5.31,4.82,3.94,3.94,3.93
47.06,-1.62,-5.55,-1.62,-5.55,5.55,5.27,4.79,3.93,3.93,3.93
47.53,-1.55,-5.47,-1.56,-5.48,5.48,5.23,4.76,3.93,3.92,3.92
48.01,-1.50,-5.42,-1.50,-5.41,5.41,5.20,4.74,3.91,3.91,3.91
48.49,-1.44,-5.35,-1.44,-5.35,5.35,5.16,4.72,3.90,3.91,3.91
48.97,-1.38,-5.28,-1.39,-5.29,5.28,5.12,4.70,3.90,3.90,3.90
49.46,-1.33,-5.23,-1.33,-5.22,5.22,5.08,4.68,3.89,3.89,3.89
49.96,-1.28,-5.16,-1.27,-5.16,5.16,5.04,4.67,3.88,3.89,3.88
50.46,-1.22,-5.09,-1.22,-5.10,5.10,5.00,4.66,3.88,3.88,3.88
50.96,-1.16,-5.03,-1.16,-5.03,5.04,4.96,4.65,3.87,3.87,3.87
51.47,-1.11,-4.98,-1.12,-4.98,4.98,4.92,4.65,3.87,3.86,3.86
51.99,-1.07,-4.93,-1.07,-4.92,4.92,4.88,4.64,3.85,3.85,3.85
52.51,-1.03,-4.87,-1.02,-4.87,4.86,4.83,4.64,3.84,3.84,3.84
53.03,-0.97,-4.81,-0.97,-4.81,4.81,4.79,4.64,3.83,3.83,3.83
53.56,-0.92,-4.75,-0.92,-4.75,4.75,4.75,4.64,3.83,3.83,3.83
54.10,-0.87,-4.69,-0.88,-4.69,4.70,4.71,4.64,3.82,3.82,3.82
54.64,-0.83,-4.64,-0.83,-4.64,4.64,4.67,4.64,3.80,3.81,3.81
55.18,-0.79,-4.59,-0.79,-4.59,4.58,4.62,4.64,3.79,3.79,3.80
55.74,-0.75,-4.53,-0.75,-4.53,4.53,4.58,4.64,3.79,3.78,3.78
56.29,-0.70,-4.48,-0.71,-4.48,4.48,4.54,4.63,3.77,3.77,3.77
56.86,-0.66,-4.43,-0.66,-4.42,4.43,4.50,4.63,3.76,3.76,3.76
57.42,-0.62,-4.37,-0.63,-4.38,4.38,4.45,4.63,3.75,3.75,3.75
58.00,-0.58,-4.33,-0.59,-4.33,4.33,4.41,4.62,3.75,3.74,3.75
58.58,-0.55,-4.29,-0.55,-4.28,4.29,4.37,4.61,3.73,3.73,3.73
59.16,-0.51,-4.24,-0.52,-4.24,4.24,4.33,4.60,3.73,3.72,3.72
59.76,-0.48,-4.19,-0.49,-4.20,4.20,4.28,4.59,3.71,3.71,3.71
60.35,-0.45,-4.16,-0.46,-4.16,4.15,4.24,4.57,3.70,3.70,3.70
60.96,-0.43,-4.12,-0.43,-4.12,4.11,4.20,4.55,3.68,3.69,3.69
61.57,-0.39,-4.07,-0.40,-4.07,4.07,4.16,4.53,3.68,3.67,3.67
62.18,-0.36,-4.02,-0.37,-4.03,4.03,4.11,4.51,3.67,3.66,3.66
62.80,-0.34,-3.99,-0.34,-3.99,3.99,4.07,4.47,3.65,3.65,3.64
63.43,-0.31,-3.95,-0.32,-3.95,3.95,4.03,4.44,3.64,3.63,3.64
64.07,-0.30,-3.92,-0.30,-3.92,3.91,3.99,4.40,3.61,3.62,3.62
64.71,-0.27,-3.88,-0.28,-3.88,3.87,3.94,4.36,3.60,3.60,3.60
65.35,-0.25,-3.84,-0.26,-3.84,3.84,3.90,4.32,3.58,3.58,3.58
66.01,-0.23,-3.80,-0.23,-3.80,3.80,3.86,4.27,3.57,3.57,3.57
66.67,-0.21,-3.76,-0.22,-3.76,3.76,3.82,4.22,3.55,3.55,3.55
67.33,-0.19,-3.72,-0.20,-3.72,3.73,3.78,4.17,3.53,3.53,3.53
68.01,-0.18,-3.69,-0.18,-3.69,3.69,3.73,4.11,3.50,3.51,3.51
68.69,-0.16,-3.65,-0.17,-3.65,3.65,3.69,4.05,3.49,3.48,3.49
69.37,-0.15,-3.62,-0.15,-3.62,3.62,3.65,3.99,3.46,3.46,3.46
70.07,-0.14,-3.59,-0.14,-3.58,3.58,3.61,3.93,3.44,3.44,3.44
70.77,-0.12,-3.54,-0.13,-3.55,3.55,3.57,3.86,3.42,3.42,3.42
71.48,-0.11,-3.51,-0.12,-3.52,3.52,3.53,3.80,3.40,3.40,3.40
72.19,-0.11,-3.49,-0.11,-3.48,3.48,3.49,3.73,3.37,3.37,3.37
72.91,-0.09,-3.44,-0.10,-3.45,3.45,3.45,3.67,3.35,3.34,3.35
73.64,-0.09,-3.41,-0.09,-3.41,3.41,3.41,3.60,3.32,3.32,3.31
74.38,-0.09,-3.38,-0.09,-3.38,3.38,3.37,3.53,3.28,3.29,3.29
75.12,-0.07,-3.34,-0.08,-3.34,3.34,3.33,3.46,3.27,3.26,3.26
75.87,-0.07,-3.30,-0.08,-3.31,3.31,3.29,3.40,3.23,3.23,3.23
76.63,-0.07,-3.27,-0.07,-3.27,3.27,3.25,3.33,3.20,3.20,3.20
77.40,-0.07,-3.24,-0.07,-3.24,3.23,3.22,3.27,3.16,3.16,3.16
78.17,-0.07,-3.20,-0.07,-3.20,3.20,3.18,3.20,3.12,3.12,3.12
78.95,-0.07,-3.16,-0.07,-3.16,3.16,3.14,3.14,3.08,3.08,3.08
79.74,-0.07,-3.12,-0.07,-3.12,3.12,3.10,3.08,3.04,3.04,3.04
80.54,-0.07,-3.08,-0.07,-3.08,3.08,3.07,3.02,3.00,3.00,3.00
81.35,-0.07,-3.04,-0.07,-3.04,3.04,3.03,2.96,2.96,2.96,2.96
82.16,-0.07,-3.00,-0.07,-3.00,3.00,2.99,2.90,2.92,2.92,2.92
82.98,-0.07,-2.96,-0.08,-2.96,2.96,2.96,2.84,2.88,2.88,2.88
83.81,-0.08,-2.92,-0.08,-2.92,2.92,2.92,2.79,2.84,2.84,2.84
84.65,-0.09,-2.88,-0.09,-2.88,2.88,2.89,2.74,2.79,2.79,2.79
85.50,-0.09,-2.84,-0.10,-2.85,2.85,2.85,2.69,2.75,2.75,2.74
86.35,-0.10,-2.81,-0.11,-2.81,2.81,2.82,2.64,2.71,2.70,2.71
87.22,-0.12,-2.79,-0.12,-2.78,2.78,2.79,2.59,2.65,2.66,2.66
88.09,-0.12,-2.74,-0.13,-2.75,2.74,2.75,2.54,2.62,2.62,2.62
88.97,-0.13,-2.71,-0.14,-2.71,2.71,2.72,2.50,2.58,2.57,2.57
89.86,-0.14,-2.67,-0.14,-2.67,2.68,2.69,2.46,2.53,2.54,2.53
90.76,-0.15,-2.65,-0.16,-2.64,2.65,2.66,2.42,2.49,2.49,2.49
91.66,-0.16,-2.61,-0.17,-2.62,2.61,2.62,2.38,2.45,2.45,2.45
92.58,-0.18,-2.59,-0.18,-2.59,2.58,2.59,2.35,2.40,2.40,2.41
93.51,-0.19,-2.56,-0.19,-2.55,2.55,2.56,2.31,2.36,2.36,2.36
94.44,-0.19,-2.52,-0.20,-2.52,2.52,2.53,2.28,2.33,2.32,2.32
95.39,-0.21,-2.49,-0.21,-2.49,2.49,2.50,2.25,2.28,2.28,2.28
96.34,-0.22,-2.46,-0.23,-2.46,2.46,2.47,2.22,2.24,2.24,2.24
97.30,-0.24,-2.43,-0.24,-2.43,2.43,2.44,2.19,2.19,2.19,2.19
98.28,-0.25,-2.40,-0.25,-2.40,2.40,2.41,2.17,2.14,2.14,2.15
99.26,-0.26,-2.37,-0.27,-2.37,2.37,2.39,2.14,2.10,2.10,2.10
100.25,-0.28,-2.34,-0.28,-2.33,2.33,2.36,2.12,2.05,2.05,2.05
101.25,-0.29,-2.30,-0.30,-2.30,2.30,2.33,2.10,2.01,2.00,2.00
102.27,-0.31,-2.27,-0.31,-2.27,2.27,2.31,2.08,1.96,1.96,1.95
103.29,-0.33,-2.24,-0.33,-2.23,2.24,2.28,2.06,1.90,1.91,1.90
104.32,-0.34,-2.20,-0.35,-2.20,2.20,2.25,2.04,1.86,1.86,1.86
105.37,-0.36,-2.17,-0.37,-2.17,2.17,2.23,2.02,1.81,1.81,1.81
106.42,-0.38,-2.14,-0.38,-2.14,2.14,2.20,2.01,1.75,1.76,1.76
107.48,-0.40,-2.11,-0.40,-2.11,2.11,2.18,1.99,1.70,1.70,1.71
108.56,-0.41,-2.07,-0.42,-2.08,2.07,2.16,1.98,1.66,1.66,1.66
109.64,-0.43,-2.04,-0.43,-2.04,2.04,2.13,1.97,1.61,1.61,1.61
110.74,-0.44,-2.00,-0.45,-2.01,2.01,2.11,1.95,1.56,1.56,1.56
111.85,-0.46,-1.98,-0.47,-1.98,1.98,2.09,1.94,1.51,1.51,1.51
112.97,-0.48,-1.95,-0.48,-1.94,1.94,2.07,1.93,1.46,1.46,1.46
114.10,-0.50,-1.92,-0.50,-1.91,1.91,2.05,1.92,1.41,1.41,1.41
115.24,-0.51,-1.88,-0.52,-1.88,1.88,2.02,1.91,1.37,1.36,1.36
116.39,-0.53,-1.85,-0.54,-1.85,1.85,2.00,1.89,1.32,1.32,1.32
117.55,-0.55,-1.82,-0.55,-1.82,1.83,1.98,1.88,1.27,1.27,1.27
118.73,-0.57,-1.80,-0.57,-1.80,1.80,1.97,1.87,1.23,1.23,1.22
119.92,-0.59,-1.78,-0.60,-1.78,1.78,1.95,1.86,1.18,1.18,1.18
121.12,-0.61,-1.75,-0.61,-1.75,1.75,1.93,1.85,1.14,1.14,1.14
122.33,-0.63,-1.74,-0.63,-1.73,1.73,1.91,1.84,1.09,1.10,1.10
123.55,-0.64,-1.70,-0.65,-1.71,1.71,1.89,1.83,1.06,1.06,1.06
124.79,-0.66,-1.69,-0.67,-1.68,1.69,1.88,1.81,1.02,1.02,1.02
126.03,-0.68,-1.66,-0.68,-1.66,1.66,1.86,1.80,0.98,0.98,0.98
127.29,-0.70,-1.65,-0.70,-1.65,1.64,1.84,1.79,0.94,0.94,0.94
128.57,-0.72,-1.63,-0.72,-1.62,1.62,1.83,1.78,0.90,0.90,0.91
129.85,-0.73,-1.60,-0.74,-1.60,1.60,1.81,1.76,0.87,0.86,0.86
131.15,-0.75,-1.58,-0.75,-1.58,1.58,1.80,1.75,0.83,0.83,0.83
132.46,-0.76,-1.56,-0.77,-1.56,1.57,1.78,1.73,0.80,0.80,0.80
133.79,-0.78,-1.55,-0.79,-1.55,1.55,1.77,1.72,0.77,0.77,0.77
135.12,-0.80,-1.54,-0.80,-1.54,1.54,1.76,1.71,0.74,0.74,0.73
136.48,-0.82,-1.53,-0.82,-1.53,1.53,1.75,1.69,0.70,0.70,0.70
137.84,-0.84,-1.53,-0.84,-1.52,1.52,1.73,1.68,0.67,0.68,0.68
139.22,-0.85,-1.51,-0.86,-1.51,1.51,1.72,1.66,0.65,0.65,0.65
140.61,-0.87,-1.50,-0.87,-1.50,1.50,1.71,1.65,0.63,0.63,0.62
142.02,-0.88,-1.49,-0.89,-1.49,1.50,1.70,1.63,0.61,0.61,0.61
143.44,-0.90,-1.49,-0.90,-1.49,1.49,1.69,1.62,0.58,0.58,0.59
144.87,-0.92,-1.49,-0.92,-1.49,1.48,1.68,1.61,0.56,0.56,0.56
146.32,-0.93,-1.48,-0.94,-1.48,1.48,1.67,1.59,0.54,0.54,0.54
147.78,-0.95,-1.48,-0.95,-1.48,1.48,1.66,1.58,0.52,0.52,0.53
149.26,-0.96,-1.47,-0.97,-1.47,1.47,1.65,1.57,0.51,0.51,0.50
150.75,-0.98,-1.47,-0.98,-1.47,1.47,1.64,1.56,0.49,0.49,0.49
152.26,-1.00,-1.48,-1.00,-1.47,1.47,1.63,1.55,0.47,0.47,0.47
153.78,-1.01,-1.47,-1.02,-1.48,1.48,1.63,1.54,0.46,0.46,0.46
155.32,-1.03,-1.48,-1.03,-1.48,1.48,1.62,1.53,0.44,0.44,0.45
156.88,-1.04,-1.48,-1.05,-1.48,1.48,1.61,1.52,0.44,0.43,0.43
158.44,-1.06,-1.49,-1.06,-1.48,1.48,1.61,1.51,0.42,0.42,0.42
160.03,-1.07,-1.48,-1.08,-1.49,1.49,1.60,1.51,0.41,0.41,0.41
161.63,-1.09,-1.49,-1.09,-1.49,1.49,1.59,1.50,0.39,0.40,0.40
163.24,-1.10,-1.49,-1.10,-1.49,1.49,1.59,1.50,0.39,0.39,0.39
164.88,-1.11,-1.49,-1.12,-1.49,1.49,1.58,1.49,0.38,0.38,0.38
166.53,-1.12,-1.49,-1.13,-1.50,1.50,1.58,1.49,0.37,0.37,0.37
168.19,-1.14,-1.51,-1.14,-1.50,1.50,1.58,1.49,0.36,0.36,0.36
169.87,-1.15,-1.51,-1.15,-1.50,1.50,1.57,1.49,0.35,0.35,0.35
171.57,-1.16,-1.50,-1.17,-1.51,1.51,1.57,1.49,0.34,0.34,0.34
173.29,-1.18,-1.51,-1.18,-1.51,1.51,1.57,1.49,0.33,0.33,0.33
175.02,-1.19,-1.52,-1.20,-1.51,1.51,1.56,1.49,0.32,0.32,0.32
176.77,-1.21,-1.52,-1.21,-1.52,1.52,1.56,1.49,0.30,0.31,0.31
178.54,-1.22,-1.52,-1.23,-1.52,1.52,1.56,1.50,0.30,0.29,0.30
180.32,-1.24,-1.53,-1.25,-1.53,1.53,1.56,1.51,0.28,0.28,0.28
182.13,-1.26,-1.53,-1.26,-1.53,1.53,1.55,1.51,0.27,0.27,0.27
183.95,-1.28,-1.54,-1.28,-1.54,1.54,1.55,1.52,0.26,0.26,0.26
185.79,-1.30,-1.55,-1.31,-1.55,1.55,1.55,1.53,0.25,0.24,0.24
187.65,-1.33,-1.56,-1.34,-1.56,1.57,1.55,1.54,0.23,0.23,0.23
189.52,-1.37,-1.59,-1.37,-1.58,1.58,1.55,1.55,0.21,0.22,0.22
191.42,-1.39,-1.60,-1.40,-1.60,1.60,1.55,1.56,0.21,0.20,0.20
193.33,-1.43,-1.63,-1.44,-1.63,1.63,1.55,1.57,0.19,0.19,0.19
195.27,-1.47,-1.65,-1.48,-1.65,1.65,1.55,1.59,0.18,0.18,0.18
197.22,-1.52,-1.68,-1.52,-1.68,1.68,1.55,1.60,0.16,0.16,0.16
199.19,-1.56,-1.71,-1.57,-1.71,1.71,1.55,1.62,0.15,0.15,0.15
201.18,-1.60,-1.73,-1.61,-1.74,1.74,1.55,1.63,0.14,0.13,0.13
203.19,-1.66,-1.78,-1.66,-1.77,1.77,1.56,1.65,0.11,0.11,0.12
205.23,-1.70,-1.80,-1.71,-1.80,1.80,1.56,1.67,0.10,0.10,0.10
207.28,-1.74,-1.83,-1.75,-1.83,1.83,1.56,1.68,0.08,0.08,0.09
209.35,-1.79,-1.86,-1.79,-1.86,1.86,1.56,1.70,0.06,0.07,0.07
211.44,-1.82,-1.87,-1.83,-1.88,1.88,1.56,1.72,0.05,0.05,0.05
213.56,-1.86,-1.90,-1.86,-1.90,1.90,1.57,1.73,0.04,0.04,0.04
215.69,-1.89,-1.92,-1.90,-1.92,1.92,1.57,1.75,0.03,0.02,0.02
217.85,-1.93,-1.95,-1.93,-1.94,1.94,1.57,1.77,0.00,0.01,0.01
220.03,-1.95,-1.95,-1.95,-1.95,1.95,1.57,1.79,-0.00,0.00,-0.00
222.23,-1.97,-1.96,-1.98,-1.97,1.97,1.58,1.80,-0.01,-0.01,-0.01
224.45,-1.99,-1.98,-2.00,-1.98,1.98,1.58,1.82,-0.01,-0.01,-0.02
226.70,-2.02,-2.00,-2.02,-1.99,1.99,1.58,1.83,-0.03,-0.03,-0.03
228.96,-2.03,-2.00,-2.04,-2.01,2.01,1.59,1.85,-0.03,-0.03,-0.03
231.25,-2.05,-2.02,-2.05,-2.01,2.02,1.59,1.86,-0.04,-0.04,-0.04
233.57,-2.05,-2.02,-2.06,-2.02,2.02,1.59,1.87,-0.03,-0.03,-0.03
235.90,-2.06,-2.02,-2.06,-2.03,2.03,1.60,1.88,-0.04,-0.04,-0.04
238.26,-2.06,-2.03,-2.06,-2.03,2.03,1.60,1.89,-0.03,-0.03,-0.04
240.64,-2.06,-2.03,-2.06,-2.03,2.03,1.61,1.90,-0.04,-0.04,-0.03
243.05,-2.05,-2.02,-2.06,-2.02,2.02,1.61,1.91,-0.03,-0.04,-0.04
245.48,-2.04,-2.01,-2.04,-2.01,2.01,1.62,1.91,-0.04,-0.03,-0.03
247.93,-2.01,-1.99,-2.02,-1.99,1.99,1.62,1.91,-0.03,-0.03,-0.03
250.41,-1.98,-1.96,-1.98,-1.96,1.96,1.62,1.92,-0.03,-0.03,-0.02
252.92,-1.94,-1.92,-1.95,-1.93,1.92,1.63,1.92,-0.02,-0.03,-0.03
255.45,-1.90,-1.88,-1.90,-1.88,1.87,1.63,1.91,-0.03,-0.03,-0.02
258.00,-1.85,-1.84,-1.85,-1.83,1.82,1.64,1.91,-0.03,-0.03,-0.02
260.58,-1.78,-1.77,-1.79,-1.77,1.76,1.64,1.91,-0.02,-0.03,-0.02
263.19,-1.72,-1.70,-1.73,-1.71,1.70,1.65,1.90,-0.02,-0.02,-0.02
265.82,-1.66,-1.65,-1.66,-1.64,1.64,1.65,1.89,-0.03,-0.02,-0.02
268.48,-1.59,-1.57,-1.60,-1.57,1.58,1.66,1.88,-0.02,-0.02,-0.02
271.16,-1.53,-1.51,-1.54,-1.52,1.52,1.66,1.87,-0.01,-0.02,-0.02
273.87,-1.49,-1.47,-1.49,-1.47,1.48,1.67,1.86,-0.02,-0.01,-0.03
276.61,-1.45,-1.43,-1.45,-1.43,1.44,1.67,1.85,-0.02,-0.01,-0.02
279.38,-1.42,-1.40,-1.43,-1.41,1.41,1.68,1.83,-0.01,-0.02,-0.02
282.17,-1.41,-1.39,-1.41,-1.39,1.40,1.68,1.82,-0.02,-0.02,-0.03
284.99,-1.41,-1.39,-1.41,-1.39,1.39,1.69,1.80,-0.02,-0.02,-0.02
287.84,-1.41,-1.39,-1.42,-1.39,1.39,1.69,1.79,-0.02,-0.02,-0.02
290.72,-1.42,-1.41,-1.42,-1.41,1.41,1.70,1.78,-0.02,-0.02,-0.02
293.63,-1.43,-1.42,-1.44,-1.42,1.42,1.70,1.76,-0.01,-0.01,-0.02
296.57,-1.45,-1.44,-1.46,-1.44,1.44,1.71,1.74,-0.01,-0.01,-0.01
299.53,-1.48,-1.47,-1.48,-1.47,1.47,1.71,1.73,-0.02,-0.01,-0.01
302.53,-1.50,-1.50,-1.50,-1.50,1.49,1.72,1.72,-0.01,-0.01,-0.01
305.55,-1.52,-1.53,-1.52,-1.52,1.52,1.72,1.70,-0.00,-0.00,0.00
308.61,-1.53,-1.55,-1.54,-1.55,1.55,1.73,1.69,0.01,0.01,0.01
311.69,-1.55,-1.57,-1.55,-1.57,1.57,1.73,1.67,0.02,0.02,0.02
314.81,-1.56,-1.59,-1.57,-1.60,1.60,1.74,1.66,0.03,0.03,0.03
317.96,-1.59,-1.63,-1.59,-1.62,1.62,1.74,1.65,0.03,0.03,0.03
321.14,-1.60,-1.65,-1.60,-1.65,1.64,1.75,1.64,0.04,0.04,0.04
324.35,-1.61,-1.67,-1.62,-1.67,1.67,1.75,1.63,0.05,0.05,0.05
327.59,-1.63,-1.69,-1.63,-1.69,1.69,1.76,1.62,0.05,0.05,0.06
330.87,-1.64,-1.70,-1.65,-1.71,1.71,1.76,1.61,0.06,0.06,0.06
334.18,-1.66,-1.73,-1.66,-1.72,1.72,1.77,1.61,0.06,0.07,0.07
337.52,-1.66,-1.73,-1.67,-1.74,1.74,1.77,1.60,0.08,0.07,0.06
340.90,-1.68,-1.76,-1.69,-1.76,1.76,1.78,1.60,0.08,0.07,0.07
344.30,-1.70,-1.78,-1.70,-1.78,1.78,1.78,1.59,0.07,0.07,0.07
347.75,-1.73,-1.81,-1.73,-1.80,1.80,1.78,1.59,0.06,0.07,0.07
351.23,-1.74,-1.81,-1.75,-1.82,1.82,1.79,1.59,0.07,0.07,0.07
354.74,-1.77,-1.84,-1.77,-1.84,1.84,1.79,1.59,0.06,0.06,0.07
358.28,-1.79,-1.85,-1.79,-1.85,1.86,1.80,1.59,0.06,0.06,0.06
361.87,-1.81,-1.87,-1.82,-1.87,1.87,1.80,1.60,0.06,0.06,0.06
365.49,-1.83,-1.89,-1.84,-1.89,1.89,1.80,1.60,0.05,0.05,0.05
369.14,-1.85,-1.91,-1.85,-1.91,1.90,1.81,1.61,0.05,0.05,0.05
372.83,-1.86,-1.92,-1.86,-1.92,1.92,1.81,1.61,0.05,0.05,0.05
376.56,-1.86,-1.93,-1.87,-1.93,1.93,1.81,1.62,0.06,0.06,0.06
380.33,-1.87,-1.94,-1.87,-1.93,1.93,1.82,1.63,0.06,0.06,0.06
384.13,-1.87,-1.93,-1.88,-1.94,1.94,1.82,1.64,0.07,0.06,0.06
387.97,-1.88,-1.95,-1.88,-1.95,1.95,1.82,1.65,0.06,0.06,0.07
391.85,-1.87,-1.94,-1.88,-1.95,1.95,1.82,1.66,0.07,0.07,0.07
395.77,-1.87,-1.95,-1.87,-1.95,1.95,1.83,1.68,0.07,0.08,0.08
399.73,-1.85,-1.94,-1.86,-1.94,1.95,1.83,1.69,0.09,0.09,0.09
403.72,-1.85,-1.94,-1.85,-1.94,1.94,1.83,1.70,0.09,0.09,0.09
407.76,-1.84,-1.94,-1.84,-1.94,1.94,1.83,1.72,0.09,0.10,0.10
411.84,-1.83,-1.94,-1.83,-1.93,1.93,1.83,1.73,0.10,0.10,0.10
415.96,-1.80,-1.92,-1.81,-1.92,1.92,1.84,1.75,0.12,0.11,0.11
420.12,-1.79,-1.91,-1.79,-1.91,1.91,1.84,1.77,0.12,0.12,0.11
424.32,-1.77,-1.90,-1.77,-1.90,1.90,1.84,1.78,0.12,0.13,0.12
428.56,-1.75,-1.89,-1.76,-1.89,1.89,1.84,1.80,0.13,0.13,0.13
432.85,-1.73,-1.88,-1.73,-1.88,1.87,1.84,1.81,0.14,0.14,0.14
437.18,-1.71,-1.87,-1.71,-1.86,1.86,1.84,1.83,0.15,0.15,0.15
441.55,-1.68,-1.85,-1.69,-1.85,1.85,1.84,1.85,0.17,0.17,0.16
445.96,-1.66,-1.84,-1.67,-1.84,1.84,1.84,1.86,0.18,0.17,0.17
450.42,-1.65,-1.83,-1.65,-1.83,1.84,1.84,1.88,0.18,0.18,0.18
454.93,-1.64,-1.83,-1.64,-1.83,1.83,1.84,1.89,0.18,0.19,0.19
459.48,-1.62,-1.82,-1.63,-1.83,1.82,1.84,1.90,0.20,0.20,0.20
464.07,-1.61,-1.82,-1.61,-1.82,1.82,1.84,1.91,0.20,0.21,0.21
468.71,-1.59,-1.81,-1.60,-1.81,1.81,1.84,1.92,0.22,0.22,0.22
473.40,-1.58,-1.81,-1.58,-1.81,1.81,1.84,1.93,0.23,0.23,0.23
478.13,-1.56,-1.80,-1.57,-1.81,1.81,1.84,1.94,0.24,0.24,0.24
482.91,-1.55,-1.81,-1.55,-1.81,1.81,1.84,1.95,0.25,0.25,0.26
487.74,-1.53,-1.80,-1.53,-1.80,1.80,1.84,1.95,0.27,0.27,0.27
492.62,-1.51,-1.80,-1.52,-1.80,1.80,1.83,1.95,0.29,0.29,0.29
497.55,-1.49,-1.79,-1.50,-1.80,1.80,1.83,1.95,0.31,0.30,0.30
