frequency,raw,error,smoothed,error_smoothed,equalization,parametric_eq,fixed_band_eq,equalized_raw,equalized_smoothed,target
20.00,-6.54,-4.93,-6.54,-4.93,4.95,3.87,0.58,-1.59,-1.59,-1.61
20.20,-6.42,-4.82,-6.42,-4.82,4.83,3.91,0.60,-1.59,-1.59,-1.60
20.40,-6.30,-4.71,-6.31,-4.71,4.71,3.93,0.62,-1.59,-1.60,-1.59
20.61,-6.19,-4.60,-6.19,-4.60,4.59,3.94,0.64,-1.60,-1.60,-1.59
20.81,-6.07,-4.49,-6.07,-4.49,4.47,3.93,0.66,-1.60,-1.60,-1.58
21.02,-5.95,-4.37,-5.95,-4.37,4.36,3.91,0.68,-1.59,-1.59,-1.58
21.23,-5.82,-4.25,-5.82,-4.25,4.24,3.87,0.70,-1.58,-1.58,-1.57
21.44,-5.70,-4.13,-5.70,-4.13,4.13,3.81,0.72,-1.57,-1.57,-1.57
21.66,-5.57,-4.00,-5.57,-4.00,4.01,3.74,0.74,-1.56,-1.56,-1.57
21.87,-5.44,-3.87,-5.44,-3.88,3.89,3.66,0.76,-1.55,-1.55,-1.57
22.09,-5.33,-3.77,-5.33,-3.77,3.78,3.57,0.79,-1.55,-1.55,-1.56
22.31,-5.23,-3.67,-5.23,-3.67,3.67,3.47,0.81,-1.56,-1.56,-1.56
22.54,-5.14,-3.57,-5.14,-3.57,3.57,3.37,0.83,-1.58,-1.57,-1.57
22.76,-5.04,-3.46,-5.04,-3.47,3.47,3.26,0.86,-1.57,-1.57,-1.58
22.99,-4.94,-3.36,-4.95,-3.37,3.37,3.15,0.88,-1.57,-1.57,-1.58
23.22,-4.85,-3.27,-4.85,-3.27,3.27,3.03,0.91,-1.58,-1.57,-1.58
23.45,-4.76,-3.17,-4.76,-3.17,3.17,2.91,0.94,-1.59,-1.59,-1.59
23.69,-4.66,-3.07,-4.67,-3.08,3.07,2.80,0.96,-1.59,-1.60,-1.59
23.92,-4.57,-2.98,-4.56,-2.97,2.96,2.69,0.99,-1.61,-1.61,-1.59
24.16,-4.45,-2.86,-4.44,-2.86,2.84,2.57,1.02,-1.61,-1.61,-1.59
24.40,-4.31,-2.72,-4.31,-2.72,2.71,2.47,1.05,-1.60,-1.60,-1.59
24.65,-4.17,-2.58,-4.17,-2.58,2.58,2.36,1.07,-1.60,-1.59,-1.59
24.89,-4.03,-2.44,-4.03,-2.44,2.44,2.26,1.10,-1.59,-1.59,-1.59
25.14,-3.90,-2.31,-3.90,-2.31,2.31,2.16,1.13,-1.59,-1.59,-1.59
25.39,-3.78,-2.18,-3.77,-2.18,2.19,2.07,1.16,-1.59,-1.58,-1.60
25.65,-3.66,-2.06,-3.65,-2.05,2.08,1.98,1.19,-1.58,-1.57,-1.60
25.91,-3.53,-1.93,-3.55,-1.95,1.98,1.89,1.22,-1.55,-1.56,-1.60
26.16,-3.46,-1.86,-3.47,-1.87,1.90,1.81,1.25,-1.56,-1.57,-1.60
26.43,-3.41,-1.81,-3.41,-1.81,1.82,1.73,1.28,-1.60,-1.59,-1.60
26.69,-3.36,-1.76,-3.36,-1.76,1.74,1.66,1.30,-1.62,-1.62,-1.60
26.96,-3.31,-1.71,-3.30,-1.70,1.66,1.58,1.33,-1.65,-1.64,-1.60
27.23,-3.22,-1.62,-3.22,-1.62,1.59,1.52,1.36,-1.64,-1.63,-1.60
27.50,-3.12,-1.52,-3.12,-1.52,1.51,1.45,1.38,-1.62,-1.62,-1.60
27.77,-3.02,-1.42,-3.02,-1.42,1.42,1.39,1.41,-1.60,-1.60,-1.60
28.05,-2.92,-1.32,-2.93,-1.33,1.34,1.34,1.43,-1.58,-1.59,-1.60
28.33,-2.84,-1.24,-2.84,-1.24,1.26,1.28,1.45,-1.58,-1.58,-1.60
28.62,-2.76,-1.16,-2.76,-1.16,1.18,1.23,1.47,-1.58,-1.57,-1.60
28.90,-2.68,-1.09,-2.69,-1.10,1.12,1.19,1.49,-1.56,-1.57,-1.59
29.19,-2.63,-1.04,-2.64,-1.05,1.06,1.14,1.51,-1.57,-1.57,-1.59
29.48,-2.60,-1.01,-2.60,-1.02,1.01,1.10,1.52,-1.59,-1.58,-1.59
29.78,-2.57,-0.99,-2.57,-0.99,0.97,1.06,1.54,-1.60,-1.60,-1.58
30.08,-2.54,-0.96,-2.53,-0.95,0.93,1.02,1.55,-1.61,-1.60,-1.58
30.38,-2.48,-0.90,-2.48,-0.90,0.89,0.98,1.56,-1.59,-1.59,-1.58
30.68,-2.42,-0.84,-2.42,-0.85,0.84,0.95,1.56,-1.58,-1.58,-1.58
30.99,-2.36,-0.78,-2.37,-0.79,0.80,0.91,1.56,-1.56,-1.57,-1.58
31.30,-2.32,-0.74,-2.32,-0.74,0.75,0.88,1.57,-1.58,-1.57,-1.58
31.61,-2.27,-0.69,-2.27,-0.69,0.69,0.85,1.56,-1.58,-1.58,-1.58
31.93,-2.22,-0.64,-2.22,-0.64,0.64,0.83,1.56,-1.59,-1.59,-1.58
32.24,-2.17,-0.58,-2.17,-0.59,0.58,0.80,1.55,-1.59,-1.59,-1.59
32.57,-2.12,-0.53,-2.12,-0.53,0.53,0.77,1.54,-1.59,-1.59,-1.59
32.89,-2.07,-0.48,-2.07,-0.48,0.48,0.75,1.53,-1.59,-1.59,-1.59
33.22,-2.02,-0.42,-2.02,-0.43,0.43,0.73,1.52,-1.59,-1.59,-1.60
33.55,-1.98,-0.38,-1.98,-0.38,0.39,0.71,1.50,-1.59,-1.59,-1.60
33.89,-1.94,-0.33,-1.94,-0.34,0.34,0.69,1.49,-1.60,-1.60,-1.61
34.23,-1.91,-0.30,-1.91,-0.30,0.30,0.67,1.47,-1.61,-1.61,-1.61
34.57,-1.88,-0.27,-1.88,-0.27,0.27,0.65,1.45,-1.61,-1.62,-1.61
34.92,-1.86,-0.25,-1.86,-0.25,0.24,0.63,1.42,-1.62,-1.62,-1.61
35.27,-1.82,-0.21,-1.82,-0.21,0.21,0.62,1.40,-1.61,-1.61,-1.61
35.62,-1.79,-0.18,-1.79,-0.18,0.19,0.60,1.38,-1.60,-1.60,-1.61
35.97,-1.75,-0.14,-1.76,-0.15,0.17,0.59,1.35,-1.58,-1.60,-1.61
36.33,-1.75,-0.14,-1.75,-0.14,0.15,0.57,1.32,-1.61,-1.61,-1.61
36.70,-1.75,-0.14,-1.75,-0.14,0.12,0.56,1.29,-1.63,-1.62,-1.61
37.06,-1.74,-0.13,-1.73,-0.13,0.11,0.55,1.27,-1.63,-1.63,-1.61
37.43,-1.71,-0.10,-1.71,-0.10,0.09,0.54,1.24,-1.62,-1.61,-1.61
37.81,-1.67,-0.07,-1.68,-0.07,0.09,0.53,1.21,-1.58,-1.59,-1.60
38.19,-1.65,-0.05,-1.66,-0.06,0.08,0.52,1.18,-1.57,-1.58,-1.60
38.57,-1.65,-0.05,-1.65,-0.05,0.07,0.51,1.15,-1.58,-1.58,-1.60
38.95,-1.65,-0.06,-1.65,-0.06,0.06,0.50,1.12,-1.59,-1.59,-1.59
39.34,-1.65,-0.06,-1.65,-0.06,0.04,0.49,1.09,-1.61,-1.61,-1.59
39.74,-1.65,-0.06,-1.65,-0.06,0.03,0.48,1.06,-1.62,-1.62,-1.59
40.14,-1.64,-0.05,-1.63,-0.04,0.02,0.47,1.03,-1.62,-1.61,-1.59
40.54,-1.60,-0.01,-1.60,-0.01,0.01,0.47,1.01,-1.59,-1.59,-1.59
40.94,-1.56,0.03,-1.57,0.02,0.01,0.46,0.98,-1.55,-1.57,-1.59
41.35,-1.56,0.03,-1.56,0.03,0.00,0.45,0.95,-1.56,-1.56,-1.59
41.76,-1.58,0.02,-1.58,0.02,0.01,0.45,0.92,-1.57,-1.57,-1.60
42.18,-1.60,-0.00,-1.60,-0.00,0.01,0.44,0.90,-1.59,-1.59,-1.60
42.60,-1.63,-0.03,-1.63,-0.03,0.02,0.44,0.87,-1.61,-1.60,-1.60
43.03,-1.65,-0.05,-1.65,-0.05,0.04,0.43,0.84,-1.61,-1.62,-1.60
43.46,-1.67,-0.07,-1.67,-0.07,0.05,0.43,0.82,-1.62,-1.63,-1.60
43.90,-1.69,-0.08,-1.68,-0.08,0.06,0.42,0.79,-1.63,-1.63,-1.61
44.33,-1.68,-0.07,-1.68,-0.07,0.06,0.42,0.77,-1.62,-1.62,-1.61
44.78,-1.66,-0.05,-1.67,-0.06,0.06,0.41,0.75,-1.60,-1.61,-1.61
45.23,-1.65,-0.04,-1.65,-0.05,0.06,0.41,0.73,-1.59,-1.60,-1.61
45.68,-1.65,-0.04,-1.65,-0.04,0.06,0.41,0.70,-1.59,-1.59,-1.61
46.13,-1.65,-0.05,-1.65,-0.05,0.05,0.41,0.68,-1.60,-1.60,-1.60
46.60,-1.65,-0.05,-1.65,-0.05,0.06,0.40,0.66,-1.60,-1.60,-1.60
47.06,-1.65,-0.06,-1.65,-0.06,0.06,0.40,0.64,-1.59,-1.59,-1.59
47.53,-1.65,-0.07,-1.65,-0.07,0.07,0.40,0.62,-1.58,-1.58,-1.58
48.01,-1.65,-0.08,-1.65,-0.08,0.08,0.40,0.60,-1.57,-1.57,-1.57
48.49,-1.65,-0.09,-1.65,-0.09,0.09,0.40,0.58,-1.56,-1.56,-1.56
48.97,-1.65,-0.10,-1.65,-0.10,0.10,0.39,0.56,-1.55,-1.55,-1.55
49.46,-1.65,-0.11,-1.65,-0.11,0.11,0.39,0.55,-1.54,-1.54,-1.54
49.96,-1.65,-0.13,-1.65,-0.13,0.12,0.39,0.53,-1.53,-1.53,-1.52
50.46,-1.65,-0.14,-1.65,-0.14,0.13,0.39,0.51,-1.52,-1.52,-1.51
50.96,-1.65,-0.16,-1.65,-0.15,0.15,0.39,0.50,-1.50,-1.49,-1.49
51.47,-1.65,-0.17,-1.65,-0.17,0.18,0.39,0.48,-1.47,-1.47,-1.48
51.99,-1.65,-0.18,-1.66,-0.19,0.22,0.39,0.47,-1.43,-1.44,-1.47
52.51,-1.70,-0.24,-1.70,-0.24,0.27,0.39,0.45,-1.43,-1.43,-1.46
53.03,-1.75,-0.30,-1.76,-0.31,0.32,0.39,0.44,-1.43,-1.44,-1.45
53.56,-1.83,-0.39,-1.83,-0.39,0.39,0.39,0.43,-1.45,-1.44,-1.44
54.10,-1.90,-0.48,-1.88,-0.46,0.45,0.40,0.42,-1.45,-1.43,-1.42
54.64,-1.93,-0.52,-1.94,-0.53,0.52,0.40,0.40,-1.41,-1.42,-1.41
55.18,-1.98,-0.58,-2.00,-0.59,0.59,0.40,0.39,-1.39,-1.41,-1.40
55.74,-2.06,-0.66,-2.05,-0.66,0.65,0.40,0.38,-1.41,-1.40,-1.40
56.29,-2.11,-0.72,-2.11,-0.72,0.70,0.40,0.37,-1.41,-1.41,-1.39
56.86,-2.14,-0.76,-2.13,-0.75,0.75,0.40,0.36,-1.40,-1.39,-1.38
57.42,-2.15,-0.77,-2.15,-0.77,0.78,0.41,0.35,-1.37,-1.37,-1.38
58.00,-2.15,-0.77,-2.17,-0.80,0.81,0.41,0.35,-1.34,-1.36,-1.38
58.58,-2.21,-0.83,-2.20,-0.83,0.83,0.41,0.34,-1.38,-1.37,-1.38
59.16,-2.25,-0.87,-2.23,-0.86,0.85,0.41,0.33,-1.40,-1.39,-1.38
59.76,-2.25,-0.87,-2.25,-0.87,0.85,0.42,0.32,-1.40,-1.40,-1.38
60.35,-2.25,-0.86,-2.25,-0.87,0.85,0.42,0.32,-1.40,-1.40,-1.39
60.96,-2.25,-0.85,-2.25,-0.85,0.84,0.42,0.31,-1.41,-1.41,-1.40
61.57,-2.25,-0.84,-2.25,-0.84,0.84,0.43,0.31,-1.42,-1.41,-1.41
62.18,-2.25,-0.82,-2.25,-0.82,0.83,0.43,0.31,-1.42,-1.42,-1.43
62.80,-2.25,-0.80,-2.25,-0.80,0.82,0.43,0.30,-1.43,-1.43,-1.45
63.43,-2.26,-0.78,-2.27,-0.79,0.82,0.44,0.30,-1.44,-1.45,-1.48
64.07,-2.29,-0.79,-2.30,-0.80,0.82,0.44,0.30,-1.47,-1.48,-1.50
64.71,-2.35,-0.82,-2.35,-0.82,0.83,0.44,0.30,-1.52,-1.52,-1.53
65.35,-2.40,-0.85,-2.40,-0.85,0.83,0.45,0.29,-1.57,-1.57,-1.55
66.01,-2.45,-0.88,-2.44,-0.87,0.84,0.45,0.29,-1.61,-1.59,-1.57
66.67,-2.45,-0.86,-2.45,-0.87,0.85,0.46,0.29,-1.60,-1.60,-1.59
67.33,-2.45,-0.85,-2.46,-0.85,0.85,0.46,0.30,-1.60,-1.60,-1.60
68.01,-2.45,-0.83,-2.45,-0.83,0.84,0.47,0.30,-1.61,-1.61,-1.62
68.69,-2.45,-0.82,-2.45,-0.83,0.83,0.47,0.30,-1.62,-1.63,-1.63
69.37,-2.45,-0.81,-2.45,-0.81,0.80,0.48,0.30,-1.65,-1.65,-1.64
70.07,-2.45,-0.80,-2.44,-0.79,0.77,0.48,0.30,-1.68,-1.67,-1.65
70.77,-2.41,-0.75,-2.41,-0.76,0.75,0.49,0.31,-1.66,-1.67,-1.66
71.48,-2.38,-0.72,-2.38,-0.72,0.73,0.49,0.31,-1.65,-1.65,-1.66
72.19,-2.35,-0.68,-2.35,-0.69,0.72,0.50,0.32,-1.63,-1.64,-1.67
72.91,-2.35,-0.67,-2.35,-0.67,0.71,0.51,0.32,-1.64,-1.63,-1.68
73.64,-2.35,-0.66,-2.36,-0.68,0.70,0.51,0.33,-1.65,-1.66,-1.69
74.38,-2.39,-0.69,-2.40,-0.70,0.70,0.52,0.33,-1.70,-1.70,-1.70
75.12,-2.45,-0.74,-2.43,-0.72,0.69,0.52,0.34,-1.77,-1.75,-1.71
75.87,-2.45,-0.72,-2.45,-0.73,0.67,0.53,0.34,-1.78,-1.78,-1.73
76.63,-2.44,-0.70,-2.43,-0.69,0.66,0.54,0.35,-1.78,-1.77,-1.74
77.40,-2.40,-0.64,-2.40,-0.64,0.64,0.54,0.36,-1.76,-1.76,-1.76
78.17,-2.35,-0.58,-2.37,-0.60,0.62,0.55,0.36,-1.73,-1.75,-1.77
78.95,-2.35,-0.56,-2.35,-0.56,0.59,0.56,0.37,-1.76,-1.76,-1.79
79.74,-2.35,-0.55,-2.35,-0.54,0.56,0.57,0.38,-1.79,-1.78,-1.80
80.54,-2.35,-0.53,-2.35,-0.53,0.54,0.57,0.39,-1.82,-1.82,-1.82
81.35,-2.35,-0.52,-2.35,-0.52,0.51,0.58,0.40,-1.84,-1.84,-1.83
82.16,-2.35,-0.51,-2.35,-0.51,0.50,0.59,0.41,-1.85,-1.85,-1.84
82.98,-2.35,-0.50,-2.35,-0.50,0.49,0.60,0.42,-1.86,-1.86,-1.85
83.81,-2.35,-0.49,-2.35,-0.49,0.49,0.60,0.43,-1.86,-1.86,-1.86
84.65,-2.35,-0.49,-2.35,-0.49,0.50,0.61,0.44,-1.85,-1.85,-1.86
85.50,-2.35,-0.48,-2.35,-0.48,0.50,0.62,0.45,-1.85,-1.85,-1.87
86.35,-2.36,-0.48,-2.37,-0.49,0.51,0.63,0.46,-1.85,-1.87,-1.88
87.22,-2.40,-0.51,-2.40,-0.52,0.52,0.64,0.47,-1.89,-1.89,-1.89
88.09,-2.45,-0.55,-2.43,-0.54,0.52,0.65,0.48,-1.93,-1.91,-1.90
88.97,-2.45,-0.55,-2.45,-0.55,0.53,0.66,0.49,-1.92,-1.92,-1.90
89.86,-2.45,-0.54,-2.46,-0.55,0.53,0.67,0.50,-1.92,-1.92,-1.91
90.76,-2.45,-0.53,-2.45,-0.54,0.53,0.67,0.52,-1.92,-1.92,-1.92
91.66,-2.45,-0.53,-2.45,-0.53,0.53,0.68,0.53,-1.92,-1.91,-1.92
92.58,-2.44,-0.52,-2.44,-0.52,0.53,0.69,0.54,-1.91,-1.92,-1.92
93.51,-2.44,-0.51,-2.44,-0.52,0.52,0.70,0.56,-1.92,-1.92,-1.93
94.44,-2.44,-0.51,-2.44,-0.51,0.52,0.71,0.57,-1.92,-1.93,-1.93
95.39,-2.45,-0.52,-2.45,-0.52,0.52,0.72,0.58,-1.93,-1.93,-1.93
96.34,-2.45,-0.52,-2.45,-0.52,0.52,0.73,0.60,-1.93,-1.93,-1.93
97.30,-2.45,-0.52,-2.45,-0.52,0.53,0.74,0.61,-1.92,-1.93,-1.93
98.28,-2.46,-0.52,-2.46,-0.53,0.53,0.75,0.63,-1.93,-1.93,-1.94
99.26,-2.48,-0.54,-2.48,-0.54,0.54,0.76,0.64,-1.94,-1.94,-1.94
100.25,-2.50,-0.56,-2.50,-0.56,0.55,0.77,0.66,-1.95,-1.95,-1.94
101.25,-2.52,-0.58,-2.52,-0.58,0.56,0.78,0.68,-1.96,-1.96,-1.94
102.27,-2.53,-0.58,-2.53,-0.58,0.58,0.80,0.69,-1.95,-1.95,-1.95
103.29,-2.54,-0.58,-2.54,-0.58,0.60,0.81,0.71,-1.94,-1.94,-1.96
104.32,-2.56,-0.59,-2.56,-0.60,0.63,0.82,0.72,-1.93,-1.93,-1.97
105.37,-2.59,-0.62,-2.61,-0.64,0.66,0.83,0.74,-1.93,-1.95,-1.97
106.42,-2.67,-0.69,-2.67,-0.69,0.69,0.84,0.76,-1.98,-1.98,-1.98
107.48,-2.75,-0.76,-2.73,-0.74,0.72,0.85,0.77,-2.04,-2.01,-1.99
108.56,-2.77,-0.77,-2.77,-0.77,0.74,0.86,0.79,-2.03,-2.03,-2.00
109.64,-2.78,-0.77,-2.79,-0.78,0.77,0.88,0.80,-2.01,-2.02,-2.01
110.74,-2.80,-0.79,-2.80,-0.79,0.79,0.89,0.82,-2.01,-2.01,-2.01
111.85,-2.81,-0.80,-2.81,-0.80,0.81,0.90,0.84,-2.00,-2.00,-2.01
112.97,-2.82,-0.81,-2.82,-0.81,0.82,0.91,0.85,-2.00,-2.00,-2.01
114.10,-2.83,-0.82,-2.83,-0.82,0.82,0.92,0.87,-2.01,-2.00,-2.01
115.24,-2.83,-0.83,-2.83,-0.83,0.83,0.94,0.88,-2.00,-2.00,-2.00
116.39,-2.83,-0.83,-2.83,-0.84,0.84,0.95,0.90,-1.99,-2.00,-2.00
117.55,-2.83,-0.85,-2.83,-0.84,0.84,0.96,0.91,-1.99,-1.98,-1.98
118.73,-2.82,-0.85,-2.82,-0.85,0.85,0.97,0.93,-1.97,-1.97,-1.97
119.92,-2.81,-0.86,-2.82,-0.87,0.86,0.99,0.94,-1.95,-1.95,-1.95
121.12,-2.81,-0.88,-2.81,-0.88,0.88,1.00,0.95,-1.93,-1.93,-1.93
122.33,-2.80,-0.89,-2.79,-0.88,0.90,1.01,0.97,-1.90,-1.89,-1.91
123.55,-2.79,-0.90,-2.79,-0.90,0.93,1.03,0.98,-1.86,-1.86,-1.89
124.79,-2.76,-0.89,-2.81,-0.94,0.95,1.04,0.99,-1.81,-1.85,-1.87
126.03,-2.87,-1.02,-2.83,-0.98,0.98,1.05,1.00,-1.89,-1.85,-1.85
127.29,-2.86,-1.03,-2.87,-1.04,1.00,1.07,1.01,-1.86,-1.87,-1.83
128.57,-2.87,-1.06,-2.86,-1.06,1.03,1.08,1.02,-1.84,-1.84,-1.81
129.85,-2.87,-1.08,-2.84,-1.05,1.05,1.09,1.03,-1.82,-1.79,-1.79
131.15,-2.77,-1.00,-2.84,-1.07,1.07,1.11,1.04,-1.70,-1.77,-1.77
132.46,-2.86,-1.10,-2.84,-1.08,1.09,1.12,1.05,-1.77,-1.74,-1.76
133.79,-2.87,-1.13,-2.83,-1.09,1.11,1.14,1.06,-1.76,-1.72,-1.74
135.12,-2.82,-1.09,-2.85,-1.12,1.13,1.15,1.07,-1.69,-1.72,-1.73
136.48,-2.83,-1.12,-2.86,-1.15,1.16,1.16,1.07,-1.68,-1.70,-1.71
137.84,-2.91,-1.21,-2.89,-1.19,1.19,1.18,1.08,-1.72,-1.70,-1.70
139.22,-2.93,-1.24,-2.92,-1.23,1.23,1.19,1.09,-1.70,-1.69,-1.69
140.61,-2.93,-1.25,-2.93,-1.26,1.26,1.21,1.10,-1.67,-1.67,-1.68
142.02,-2.93,-1.26,-2.96,-1.29,1.30,1.22,1.11,-1.63,-1.66,-1.67
143.44,-2.99,-1.32,-2.99,-1.33,1.32,1.23,1.12,-1.67,-1.67,-1.67
144.87,-3.06,-1.39,-3.03,-1.36,1.34,1.25,1.12,-1.72,-1.69,-1.67
146.32,-3.04,-1.37,-3.05,-1.38,1.35,1.26,1.13,-1.70,-1.70,-1.67
147.78,-3.03,-1.35,-3.04,-1.36,1.34,1.28,1.14,-1.69,-1.70,-1.68
149.26,-3.03,-1.34,-3.03,-1.34,1.34,1.29,1.15,-1.69,-1.69,-1.69
150.75,-3.03,-1.32,-3.03,-1.32,1.32,1.31,1.16,-1.71,-1.71,-1.71
152.26,-3.03,-1.29,-3.02,-1.28,1.30,1.32,1.18,-1.73,-1.72,-1.74
153.78,-3.03,-1.26,-3.04,-1.27,1.28,1.34,1.19,-1.75,-1.76,-1.77
155.32,-3.05,-1.24,-3.09,-1.28,1.27,1.35,1.20,-1.78,-1.81,-1.81
156.88,-3.15,-1.31,-3.11,-1.26,1.27,1.36,1.21,-1.88,-1.84,-1.84
158.44,-3.17,-1.29,-3.13,-1.25,1.27,1.38,1.23,-1.90,-1.86,-1.88
160.03,-3.09,-1.18,-3.17,-1.27,1.29,1.39,1.24,-1.81,-1.89,-1.91
161.63,-3.22,-1.29,-3.22,-1.29,1.30,1.41,1.26,-1.92,-1.92,-1.93
163.24,-3.33,-1.37,-3.28,-1.33,1.32,1.42,1.28,-2.01,-1.97,-1.96
164.88,-3.34,-1.37,-3.34,-1.37,1.33,1.44,1.29,-2.01,-2.01,-1.97
166.53,-3.34,-1.36,-3.35,-1.38,1.35,1.45,1.31,-1.99,-2.00,-1.98
168.19,-3.35,-1.37,-3.35,-1.37,1.38,1.47,1.33,-1.97,-1.97,-1.98
169.87,-3.36,-1.39,-3.36,-1.39,1.40,1.48,1.36,-1.96,-1.96,-1.97
171.57,-3.36,-1.40,-3.36,-1.41,1.42,1.49,1.38,-1.94,-1.94,-1.96
173.29,-3.37,-1.43,-3.37,-1.43,1.45,1.51,1.40,-1.92,-1.92,-1.94
175.02,-3.37,-1.46,-3.37,-1.46,1.47,1.52,1.43,-1.90,-1.90,-1.91
176.77,-3.38,-1.50,-3.38,-1.50,1.50,1.54,1.45,-1.88,-1.88,-1.88
178.54,-3.38,-1.53,-3.38,-1.53,1.53,1.55,1.48,-1.85,-1.85,-1.85
180.32,-3.38,-1.57,-3.38,-1.57,1.56,1.57,1.51,-1.82,-1.82,-1.81
182.13,-3.37,-1.59,-3.37,-1.60,1.58,1.58,1.54,-1.79,-1.79,-1.78
183.95,-3.36,-1.62,-3.36,-1.62,1.60,1.59,1.57,-1.76,-1.76,-1.74
185.79,-3.35,-1.63,-3.35,-1.63,1.61,1.61,1.60,-1.74,-1.74,-1.72
187.65,-3.33,-1.63,-3.32,-1.63,1.62,1.62,1.63,-1.71,-1.70,-1.70
189.52,-3.31,-1.63,-3.30,-1.62,1.64,1.63,1.66,-1.68,-1.66,-1.68
191.42,-3.26,-1.59,-3.29,-1.62,1.65,1.65,1.70,-1.61,-1.64,-1.67
193.33,-3.29,-1.64,-3.30,-1.65,1.67,1.66,1.73,-1.62,-1.63,-1.65
195.27,-3.35,-1.71,-3.32,-1.68,1.70,1.67,1.77,-1.65,-1.62,-1.64
197.22,-3.36,-1.72,-3.35,-1.72,1.72,1.69,1.81,-1.64,-1.63,-1.64
199.19,-3.35,-1.72,-3.39,-1.76,1.74,1.70,1.84,-1.61,-1.65,-1.63
201.18,-3.43,-1.80,-3.42,-1.79,1.76,1.71,1.88,-1.67,-1.66,-1.63
203.19,-3.48,-1.85,-3.45,-1.83,1.78,1.72,1.92,-1.70,-1.68,-1.63
205.23,-3.46,-1.83,-3.47,-1.84,1.80,1.74,1.96,-1.66,-1.66,-1.63
207.28,-3.44,-1.81,-3.43,-1.80,1.83,1.75,2.00,-1.61,-1.59,-1.63
209.35,-3.41,-1.78,-3.41,-1.78,1.86,1.76,2.04,-1.55,-1.54,-1.63
211.44,-3.39,-1.75,-3.47,-1.83,1.89,1.77,2.07,-1.50,-1.58,-1.64
213.56,-3.57,-1.93,-3.55,-1.91,1.91,1.78,2.11,-1.66,-1.64,-1.64
215.69,-3.70,-2.05,-3.64,-1.99,1.93,1.79,2.15,-1.77,-1.70,-1.65
217.85,-3.67,-2.02,-3.69,-2.04,1.95,1.80,2.18,-1.72,-1.73,-1.65
220.03,-3.66,-2.00,-3.68,-2.02,1.98,1.82,2.22,-1.68,-1.70,-1.66
222.23,-3.66,-2.00,-3.65,-1.99,2.01,1.83,2.25,-1.65,-1.64,-1.66
224.45,-3.65,-1.99,-3.64,-1.98,2.03,1.84,2.28,-1.62,-1.61,-1.66
226.70,-3.61,-1.95,-3.65,-1.99,2.04,1.85,2.31,-1.57,-1.61,-1.66
228.96,-3.67,-2.01,-3.67,-2.02,2.04,1.86,2.34,-1.63,-1.63,-1.66
231.25,-3.73,-2.08,-3.71,-2.06,2.05,1.86,2.36,-1.68,-1.66,-1.65
233.57,-3.74,-2.09,-3.74,-2.09,2.06,1.87,2.39,-1.68,-1.68,-1.65
235.90,-3.73,-2.09,-3.73,-2.09,2.07,1.88,2.40,-1.66,-1.66,-1.64
238.26,-3.71,-2.08,-3.71,-2.09,2.08,1.89,2.42,-1.63,-1.63,-1.63
240.64,-3.69,-2.08,-3.70,-2.08,2.08,1.90,2.43,-1.61,-1.61,-1.61
243.05,-3.68,-2.08,-3.68,-2.08,2.08,1.91,2.44,-1.60,-1.60,-1.60
245.48,-3.66,-2.07,-3.66,-2.07,2.07,1.91,2.45,-1.59,-1.58,-1.59
247.93,-3.63,-2.05,-3.64,-2.06,2.06,1.92,2.45,-1.57,-1.58,-1.58
250.41,-3.61,-2.04,-3.61,-2.04,2.05,1.93,2.45,-1.56,-1.57,-1.57
252.92,-3.60,-2.04,-3.60,-2.03,2.04,1.93,2.45,-1.56,-1.56,-1.56
255.45,-3.58,-2.02,-3.59,-2.03,2.03,1.94,2.44,-1.55,-1.56,-1.56
258.00,-3.58,-2.02,-3.58,-2.02,2.02,1.94,2.42,-1.56,-1.56,-1.56
260.58,-3.57,-2.01,-3.57,-2.01,2.02,1.95,2.41,-1.55,-1.56,-1.56
263.19,-3.57,-2.01,-3.57,-2.01,2.01,1.95,2.39,-1.56,-1.56,-1.56
265.82,-3.57,-2.01,-3.57,-2.01,2.01,1.95,2.37,-1.56,-1.56,-1.56
268.48,-3.57,-2.01,-3.57,-2.02,2.01,1.96,2.34,-1.56,-1.56,-1.56
271.16,-3.58,-2.02,-3.58,-2.02,2.02,1.96,2.31,-1.56,-1.56,-1.56
273.87,-3.58,-2.02,-3.58,-2.02,2.02,1.96,2.28,-1.56,-1.56,-1.56
276.61,-3.58,-2.02,-3.58,-2.02,2.02,1.96,2.25,-1.56,-1.56,-1.56
279.38,-3.58,-2.02,-3.58,-2.03,2.03,1.97,2.22,-1.55,-1.55,-1.56
282.17,-3.58,-2.03,-3.58,-2.03,2.03,1.97,2.18,-1.55,-1.55,-1.55
284.99,-3.57,-2.03,-3.58,-2.03,2.03,1.97,2.14,-1.54,-1.54,-1.54
287.84,-3.57,-2.03,-3.57,-2.03,2.03,1.97,2.10,-1.54,-1.54,-1.54
290.72,-3.56,-2.03,-3.56,-2.03,2.03,1.97,2.06,-1.53,-1.53,-1.53
293.63,-3.54,-2.02,-3.54,-2.02,2.02,1.96,2.02,-1.52,-1.52,-1.52
296.57,-3.53,-2.02,-3.53,-2.02,2.01,1.96,1.97,-1.52,-1.52,-1.51
299.53,-3.52,-2.01,-3.52,-2.02,2.00,1.96,1.93,-1.52,-1.52,-1.51
302.53,-3.51,-2.01,-3.51,-2.01,2.00,1.96,1.89,-1.51,-1.51,-1.50
305.55,-3.50,-2.00,-3.48,-1.99,2.01,1.95,1.84,-1.49,-1.48,-1.50
308.61,-3.47,-1.97,-3.48,-1.98,2.01,1.95,1.80,-1.46,-1.46,-1.50
311.69,-3.45,-1.95,-3.49,-1.99,2.02,1.94,1.75,-1.43,-1.47,-1.50
314.81,-3.54,-2.03,-3.52,-2.01,2.02,1.93,1.71,-1.52,-1.50,-1.51
317.96,-3.57,-2.06,-3.57,-2.06,2.01,1.93,1.67,-1.56,-1.55,-1.51
321.14,-3.58,-2.06,-3.59,-2.07,2.01,1.92,1.63,-1.57,-1.58,-1.52
324.35,-3.59,-2.07,-3.56,-2.04,2.00,1.91,1.58,-1.59,-1.56,-1.52
327.59,-3.50,-1.97,-3.52,-2.00,2.00,1.90,1.54,-1.50,-1.53,-1.53
330.87,-3.48,-1.94,-3.49,-1.95,1.99,1.89,1.50,-1.49,-1.50,-1.54
334.18,-3.48,-1.93,-3.47,-1.93,1.98,1.88,1.46,-1.50,-1.49,-1.55
337.52,-3.48,-1.92,-3.50,-1.95,1.97,1.87,1.42,-1.51,-1.53,-1.56
340.90,-3.55,-1.99,-3.54,-1.97,1.97,1.86,1.39,-1.58,-1.57,-1.56
344.30,-3.58,-2.01,-3.57,-1.99,1.97,1.85,1.35,-1.61,-1.59,-1.57
347.75,-3.58,-1.99,-3.58,-2.00,1.98,1.83,1.31,-1.60,-1.60,-1.59
351.23,-3.58,-1.98,-3.58,-1.98,2.00,1.82,1.28,-1.59,-1.59,-1.60
354.74,-3.58,-1.97,-3.60,-1.99,2.00,1.80,1.24,-1.58,-1.60,-1.61
358.28,-3.62,-2.00,-3.63,-2.01,1.99,1.79,1.21,-1.63,-1.63,-1.62
361.87,-3.66,-2.03,-3.64,-2.01,1.98,1.77,1.18,-1.68,-1.66,-1.63
365.49,-3.64,-1.99,-3.63,-1.98,1.96,1.75,1.15,-1.68,-1.67,-1.65
369.14,-3.57,-1.91,-3.59,-1.93,1.94,1.73,1.12,-1.63,-1.66,-1.66
372.83,-3.55,-1.88,-3.55,-1.89,1.91,1.71,1.09,-1.64,-1.64,-1.67
376.56,-3.54,-1.86,-3.54,-1.86,1.88,1.69,1.06,-1.66,-1.65,-1.68
380.33,-3.53,-1.84,-3.53,-1.85,1.85,1.67,1.03,-1.68,-1.68,-1.69
384.13,-3.53,-1.83,-3.53,-1.83,1.82,1.64,1.01,-1.71,-1.71,-1.70
387.97,-3.52,-1.81,-3.51,-1.80,1.79,1.62,0.98,-1.73,-1.72,-1.71
391.85,-3.49,-1.77,-3.48,-1.76,1.76,1.59,0.96,-1.73,-1.73,-1.72
395.77,-3.44,-1.71,-3.45,-1.72,1.73,1.57,0.93,-1.71,-1.72,-1.73
399.73,-3.42,-1.68,-3.43,-1.69,1.70,1.54,0.91,-1.72,-1.73,-1.74
403.72,-3.42,-1.67,-3.42,-1.67,1.67,1.51,0.89,-1.75,-1.75,-1.75
407.76,-3.42,-1.65,-3.41,-1.64,1.64,1.48,0.87,-1.78,-1.77,-1.77
411.84,-3.39,-1.61,-3.38,-1.61,1.61,1.45,0.84,-1.78,-1.78,-1.78
415.96,-3.34,-1.55,-3.36,-1.57,1.57,1.42,0.82,-1.77,-1.78,-1.79
420.12,-3.33,-1.54,-3.34,-1.54,1.54,1.38,0.80,-1.79,-1.79,-1.79
424.32,-3.32,-1.52,-3.32,-1.52,1.52,1.35,0.78,-1.80,-1.80,-1.80
428.56,-3.31,-1.51,-3.28,-1.49,1.49,1.31,0.76,-1.82,-1.80,-1.80
432.85,-3.22,-1.43,-3.24,-1.44,1.46,1.28,0.74,-1.76,-1.78,-1.79
437.18,-3.17,-1.39,-3.18,-1.40,1.42,1.24,0.72,-1.75,-1.76,-1.78
441.55,-3.13,-1.37,-3.14,-1.38,1.38,1.20,0.71,-1.75,-1.76,-1.76
445.96,-3.09,-1.35,-3.09,-1.35,1.33,1.16,0.69,-1.76,-1.76,-1.74
