frequency,raw,error,smoothed,error_smoothed,equalization,parametric_eq,fixed_band_eq,equalized_raw,equalized_smoothed,target
20.00,12.34,5.97,12.34,5.97,-5.97,-5.92,-3.58,6.37,6.37,6.38
20.20,12.39,6.04,12.39,6.03,-6.03,-5.99,-3.67,6.36,6.36,6.36
20.40,12.44,6.10,12.44,6.09,-6.09,-6.05,-3.77,6.35,6.35,6.35
20.61,12.49,6.15,12.49,6.16,-6.15,-6.11,-3.87,6.34,6.34,6.35
20.81,12.54,6.22,12.54,6.22,-6.21,-6.18,-3.98,6.33,6.33,6.32
21.02,12.59,6.28,12.59,6.28,-6.27,-6.24,-4.08,6.32,6.32,6.31
21.23,12.64,6.34,12.64,6.33,-6.33,-6.30,-4.19,6.31,6.31,6.30
21.44,12.69,6.38,12.69,6.39,-6.39,-6.36,-4.31,6.30,6.30,6.31
21.66,12.74,6.44,12.74,6.44,-6.45,-6.42,-4.42,6.30,6.30,6.30
21.87,12.79,6.50,12.79,6.50,-6.50,-6.48,-4.55,6.29,6.29,6.29
22.09,12.84,6.56,12.84,6.56,-6.55,-6.54,-4.67,6.29,6.29,6.28
22.31,12.89,6.61,12.89,6.61,-6.61,-6.60,-4.79,6.28,6.28,6.28
22.54,12.94,6.67,12.94,6.67,-6.66,-6.66,-4.92,6.28,6.28,6.27
22.76,12.99,6.71,12.99,6.72,-6.72,-6.72,-5.06,6.27,6.27,6.28
22.99,13.04,6.77,13.04,6.77,-6.78,-6.78,-5.19,6.27,6.26,6.27
23.22,13.08,6.82,13.09,6.82,-6.83,-6.83,-5.33,6.25,6.26,6.26
23.45,13.14,6.88,13.14,6.88,-6.88,-6.89,-5.48,6.26,6.26,6.26
23.69,13.20,6.94,13.20,6.94,-6.94,-6.94,-5.62,6.26,6.26,6.26
23.92,13.26,7.01,13.26,7.00,-6.99,-7.00,-5.77,6.27,6.27,6.26
24.16,13.31,7.06,13.31,7.05,-7.05,-7.05,-5.92,6.27,6.27,6.26
24.40,13.36,7.10,13.36,7.10,-7.10,-7.10,-6.08,6.26,6.26,6.27
24.65,13.41,7.15,13.41,7.15,-7.16,-7.15,-6.24,6.25,6.25,6.27
24.89,13.45,7.20,13.46,7.20,-7.22,-7.20,-6.40,6.24,6.24,6.26
25.14,13.51,7.27,13.52,7.27,-7.27,-7.25,-6.56,6.24,6.24,6.24
25.39,13.57,7.33,13.58,7.34,-7.33,-7.30,-6.72,6.24,6.25,6.24
25.65,13.64,7.41,13.64,7.40,-7.39,-7.35,-6.89,6.26,6.25,6.23
25.91,13.69,7.46,13.69,7.45,-7.44,-7.40,-7.05,6.25,6.25,6.23
26.16,13.73,7.49,13.73,7.50,-7.49,-7.44,-7.22,6.24,6.24,6.24
26.43,13.77,7.54,13.77,7.54,-7.55,-7.49,-7.38,6.22,6.23,6.23
26.69,13.81,7.58,13.82,7.59,-7.60,-7.53,-7.55,6.22,6.22,6.23
26.96,13.86,7.63,13.86,7.64,-7.65,-7.57,-7.71,6.22,6.22,6.23
27.23,13.91,7.70,13.91,7.69,-7.69,-7.61,-7.88,6.22,6.22,6.22
27.50,13.96,7.75,13.96,7.74,-7.74,-7.66,-8.04,6.22,6.22,6.22
27.77,14.01,7.79,14.01,7.79,-7.79,-7.70,-8.19,6.23,6.22,6.22
28.05,14.05,7.83,14.05,7.83,-7.83,-7.73,-8.35,6.22,6.22,6.22
28.33,14.09,7.87,14.10,7.87,-7.88,-7.77,-8.49,6.21,6.22,6.22
28.62,14.14,7.92,14.14,7.92,-7.92,-7.81,-8.63,6.22,6.22,6.22
28.90,14.18,7.95,14.18,7.96,-7.95,-7.85,-8.76,6.23,6.23,6.23
29.19,14.22,7.99,14.22,8.00,-7.98,-7.88,-8.89,6.24,6.24,6.23
29.48,14.25,8.03,14.25,8.02,-8.01,-7.92,-9.00,6.25,6.24,6.23
29.78,14.26,8.04,14.26,8.03,-8.03,-7.95,-9.11,6.23,6.24,6.23
30.08,14.27,8.03,14.28,8.04,-8.05,-7.98,-9.20,6.22,6.23,6.24
30.38,14.29,8.06,14.29,8.06,-8.07,-8.01,-9.28,6.22,6.22,6.23
30.68,14.31,8.08,14.31,8.08,-8.09,-8.04,-9.35,6.22,6.22,6.23
30.99,14.33,8.10,14.34,8.11,-8.11,-8.08,-9.41,6.22,6.23,6.23
31.30,14.36,8.14,14.36,8.13,-8.13,-8.10,-9.46,6.23,6.23,6.23
31.61,14.38,8.16,14.38,8.16,-8.16,-8.13,-9.49,6.23,6.23,6.22
31.93,14.40,8.19,14.40,8.19,-8.18,-8.16,-9.51,6.22,6.22,6.21
32.24,14.42,8.21,14.42,8.21,-8.21,-8.19,-9.52,6.21,6.21,6.21
32.57,14.44,8.24,14.44,8.24,-8.25,-8.22,-9.52,6.20,6.20,6.20
32.89,14.46,8.27,14.47,8.27,-8.28,-8.24,-9.50,6.19,6.19,6.20
33.22,14.50,8.31,14.50,8.31,-8.31,-8.27,-9.48,6.19,6.19,6.19
33.55,14.53,8.34,14.53,8.35,-8.35,-8.29,-9.45,6.19,6.19,6.19
33.89,14.56,8.38,14.56,8.38,-8.38,-8.32,-9.41,6.18,6.18,6.18
34.23,14.59,8.43,14.59,8.42,-8.42,-8.34,-9.36,6.17,6.17,6.17
34.57,14.61,8.45,14.62,8.45,-8.45,-8.37,-9.30,6.16,6.16,6.16
34.92,14.64,8.49,14.64,8.49,-8.49,-8.39,-9.25,6.16,6.16,6.15
35.27,14.66,8.51,14.66,8.51,-8.51,-8.41,-9.18,6.15,6.15,6.16
35.62,14.67,8.55,14.68,8.54,-8.54,-8.44,-9.12,6.14,6.14,6.12
35.97,14.68,8.56,14.68,8.56,-8.56,-8.46,-9.05,6.13,6.13,6.12
36.33,14.69,8.59,14.69,8.58,-8.57,-8.48,-8.98,6.12,6.11,6.11
36.70,14.68,8.59,14.69,8.59,-8.59,-8.50,-8.91,6.09,6.10,6.09
37.06,14.68,8.60,14.68,8.60,-8.60,-8.52,-8.84,6.08,6.08,6.08
37.43,14.67,8.61,14.68,8.61,-8.62,-8.54,-8.77,6.06,6.06,6.07
37.81,14.67,8.62,14.67,8.62,-8.63,-8.56,-8.71,6.04,6.04,6.05
38.19,14.67,8.64,14.67,8.64,-8.65,-8.58,-8.64,6.03,6.03,6.03
38.57,14.67,8.66,14.67,8.66,-8.67,-8.60,-8.58,6.01,6.01,6.01
38.95,14.67,8.68,14.67,8.68,-8.69,-8.62,-8.52,5.98,5.98,5.99
39.34,14.67,8.71,14.68,8.71,-8.71,-8.64,-8.47,5.96,5.96,5.96
39.74,14.68,8.73,14.68,8.74,-8.74,-8.66,-8.42,5.95,5.95,5.95
40.14,14.69,8.77,14.69,8.76,-8.76,-8.68,-8.38,5.94,5.93,5.93
40.54,14.69,8.78,14.69,8.78,-8.77,-8.70,-8.34,5.92,5.92,5.91
40.94,14.68,8.80,14.68,8.80,-8.79,-8.72,-8.30,5.89,5.90,5.88
41.35,14.67,8.80,14.67,8.80,-8.80,-8.74,-8.27,5.87,5.87,5.87
41.76,14.65,8.80,14.65,8.80,-8.80,-8.76,-8.25,5.85,5.85,5.85
42.18,14.63,8.80,14.63,8.80,-8.80,-8.78,-8.23,5.83,5.83,5.84
42.60,14.61,8.80,14.61,8.80,-8.80,-8.79,-8.22,5.81,5.81,5.81
43.03,14.58,8.80,14.58,8.80,-8.79,-8.81,-8.21,5.79,5.79,5.78
43.46,14.55,8.79,14.55,8.79,-8.78,-8.83,-8.21,5.77,5.77,5.77
43.90,14.52,8.78,14.52,8.78,-8.77,-8.85,-8.22,5.75,5.74,5.74
44.33,14.48,8.76,14.49,8.76,-8.77,-8.87,-8.23,5.71,5.72,5.72
44.78,14.45,8.76,14.45,8.76,-8.76,-8.88,-8.25,5.69,5.69,5.70
45.23,14.42,8.75,14.42,8.75,-8.76,-8.90,-8.27,5.66,5.67,5.68
45.68,14.40,8.76,14.40,8.76,-8.76,-8.92,-8.30,5.64,5.64,5.64
46.13,14.37,8.77,14.37,8.77,-8.77,-8.94,-8.34,5.61,5.61,5.60
46.60,14.35,8.78,14.35,8.78,-8.78,-8.95,-8.38,5.57,5.57,5.57
47.06,14.33,8.79,14.33,8.79,-8.80,-8.97,-8.43,5.53,5.53,5.54
47.53,14.32,8.81,14.32,8.82,-8.83,-8.99,-8.48,5.49,5.50,5.51
48.01,14.32,8.86,14.32,8.85,-8.86,-9.00,-8.54,5.46,5.46,5.46
48.49,14.32,8.89,14.33,8.89,-8.90,-9.02,-8.60,5.43,5.43,5.43
48.97,14.33,8.94,14.33,8.94,-8.93,-9.04,-8.67,5.40,5.40,5.39
49.46,14.34,8.98,14.34,8.98,-8.98,-9.05,-8.75,5.37,5.36,5.36
49.96,14.34,9.03,14.34,9.02,-9.02,-9.07,-8.83,5.33,5.33,5.31
50.46,14.34,9.05,14.35,9.06,-9.06,-9.08,-8.91,5.28,5.29,5.29
50.96,14.35,9.10,14.35,9.10,-9.10,-9.10,-9.00,5.25,5.25,5.26
51.47,14.35,9.13,14.36,9.13,-9.14,-9.11,-9.09,5.22,5.22,5.22
51.99,14.36,9.17,14.36,9.17,-9.17,-9.13,-9.18,5.19,5.19,5.19
52.51,14.36,9.21,14.36,9.20,-9.20,-9.14,-9.28,5.16,5.16,5.16
53.03,14.36,9.23,14.36,9.24,-9.24,-9.16,-9.38,5.13,5.13,5.13
53.56,14.35,9.27,14.35,9.26,-9.26,-9.17,-9.48,5.09,5.09,5.09
54.10,14.34,9.29,14.34,9.29,-9.29,-9.18,-9.57,5.06,5.06,5.05
54.64,14.32,9.31,14.32,9.31,-9.30,-9.20,-9.67,5.02,5.02,5.02
55.18,14.30,9.33,14.30,9.33,-9.32,-9.21,-9.77,4.98,4.98,4.97
55.74,14.27,9.34,14.27,9.33,-9.33,-9.22,-9.87,4.94,4.94,4.93
56.29,14.24,9.33,14.25,9.33,-9.34,-9.23,-9.96,4.91,4.91,4.92
56.86,14.22,9.33,14.22,9.34,-9.34,-9.24,-10.04,4.88,4.88,4.89
57.42,14.19,9.34,14.20,9.34,-9.34,-9.25,-10.13,4.85,4.86,4.85
58.00,14.17,9.35,14.17,9.34,-9.34,-9.26,-10.20,4.84,4.83,4.82
58.58,14.14,9.33,14.14,9.34,-9.33,-9.27,-10.27,4.81,4.81,4.81
59.16,14.11,9.33,14.11,9.33,-9.33,-9.28,-10.33,4.78,4.78,4.78
59.76,14.08,9.33,14.08,9.33,-9.33,-9.29,-10.38,4.75,4.75,4.75
60.35,14.04,9.33,14.04,9.33,-9.34,-9.29,-10.42,4.70,4.70,4.71
60.96,14.00,9.34,14.00,9.34,-9.35,-9.30,-10.44,4.66,4.66,4.67
61.57,13.96,9.35,13.97,9.35,-9.36,-9.31,-10.46,4.61,4.61,4.62
62.18,13.93,9.36,13.94,9.37,-9.37,-9.31,-10.46,4.56,4.57,4.57
62.80,13.91,9.39,13.91,9.39,-9.38,-9.31,-10.46,4.53,4.53,4.53
63.43,13.89,9.41,13.89,9.40,-9.40,-9.32,-10.44,4.50,4.49,4.48
64.07,13.86,9.42,13.87,9.42,-9.41,-9.32,-10.40,4.46,4.46,4.45
64.71,13.83,9.42,13.83,9.43,-9.42,-9.32,-10.36,4.42,4.42,4.41
65.35,13.80,9.43,13.80,9.42,-9.42,-9.32,-10.30,4.38,4.37,4.37
66.01,13.75,9.42,13.76,9.42,-9.43,-9.32,-10.24,4.33,4.33,4.33
66.67,13.71,9.41,13.72,9.42,-9.42,-9.32,-10.16,4.29,4.29,4.31
67.33,13.68,9.43,13.68,9.42,-9.42,-9.32,-10.08,4.26,4.26,4.26
68.01,13.63,9.42,13.64,9.42,-9.41,-9.31,-9.99,4.22,4.22,4.22
68.69,13.59,9.42,13.59,9.41,-9.41,-9.31,-9.89,4.18,4.18,4.17
69.37,13.54,9.40,13.54,9.40,-9.41,-9.30,-9.78,4.13,4.13,4.14
70.07,13.49,9.38,13.50,9.39,-9.41,-9.30,-9.67,4.09,4.09,4.11
70.77,13.45,9.39,13.46,9.39,-9.40,-9.29,-9.56,4.05,4.05,4.06
71.48,13.42,9.40,13.42,9.40,-9.40,-9.28,-9.45,4.02,4.02,4.02
72.19,13.38,9.41,13.38,9.40,-9.39,-9.27,-9.33,3.99,3.99,3.97
72.91,13.33,9.39,13.33,9.40,-9.38,-9.26,-9.21,3.95,3.95,3.94
73.64,13.27,9.38,13.27,9.38,-9.37,-9.25,-9.09,3.90,3.90,3.89
74.38,13.21,9.36,13.22,9.36,-9.36,-9.23,-8.98,3.85,3.85,3.85
75.12,13.16,9.34,13.16,9.34,-9.35,-9.22,-8.86,3.82,3.82,3.82
75.87,13.11,9.32,13.11,9.32,-9.33,-9.20,-8.75,3.79,3.78,3.79
76.63,13.06,9.30,13.06,9.30,-9.30,-9.19,-8.63,3.76,3.76,3.76
77.40,13.01,9.28,13.01,9.28,-9.28,-9.17,-8.53,3.73,3.73,3.73
78.17,12.96,9.26,12.96,9.26,-9.25,-9.15,-8.42,3.71,3.71,3.70
78.95,12.91,9.24,12.91,9.23,-9.23,-9.13,-8.32,3.68,3.68,3.68
79.74,12.85,9.20,12.85,9.20,-9.20,-9.10,-8.23,3.65,3.65,3.65
80.54,12.78,9.17,12.79,9.17,-9.18,-9.08,-8.13,3.61,3.61,3.62
81.35,12.72,9.13,12.73,9.14,-9.15,-9.06,-8.05,3.58,3.58,3.59
82.16,12.67,9.11,12.67,9.11,-9.11,-9.03,-7.96,3.56,3.56,3.56
82.98,12.62,9.10,12.62,9.09,-9.08,-9.00,-7.89,3.54,3.53,3.53
83.81,12.55,9.06,12.55,9.06,-9.05,-8.97,-7.82,3.50,3.50,3.49
84.65,12.47,9.01,12.48,9.02,-9.01,-8.95,-7.75,3.46,3.46,3.46
85.50,12.40,8.98,12.40,8.98,-8.98,-8.91,-7.69,3.42,3.42,3.42
86.35,12.33,8.94,12.33,8.94,-8.94,-8.88,-7.63,3.39,3.38,3.39
87.22,12.25,8.89,12.26,8.90,-8.91,-8.85,-7.59,3.35,3.35,3.36
88.09,12.18,8.86,12.18,8.86,-8.87,-8.81,-7.54,3.32,3.32,3.32
88.97,12.11,8.83,12.11,8.83,-8.82,-8.78,-7.50,3.29,3.29,3.29
89.86,12.03,8.79,12.03,8.79,-8.78,-8.74,-7.47,3.25,3.25,3.24
90.76,11.95,8.74,11.95,8.74,-8.74,-8.70,-7.44,3.21,3.21,3.21
91.66,11.87,8.70,11.87,8.70,-8.70,-8.66,-7.42,3.17,3.18,3.18
92.58,11.79,8.65,11.79,8.65,-8.65,-8.62,-7.40,3.14,3.14,3.14
93.51,11.71,8.61,11.71,8.61,-8.61,-8.58,-7.39,3.10,3.10,3.11
94.44,11.63,8.56,11.63,8.56,-8.56,-8.54,-7.39,3.07,3.07,3.07
95.39,11.54,8.52,11.54,8.52,-8.52,-8.49,-7.39,3.03,3.03,3.03
96.34,11.45,8.47,11.45,8.47,-8.47,-8.45,-7.39,2.98,2.98,2.98
97.30,11.36,8.42,11.36,8.42,-8.42,-8.40,-7.40,2.94,2.94,2.94
98.28,11.27,8.37,11.28,8.38,-8.38,-8.35,-7.41,2.90,2.90,2.91
99.26,11.19,8.33,11.19,8.33,-8.33,-8.31,-7.43,2.87,2.86,2.86
100.25,11.10,8.28,11.10,8.28,-8.27,-8.26,-7.45,2.83,2.83,2.82
101.25,11.01,8.21,11.02,8.22,-8.22,-8.21,-7.47,2.80,2.80,2.80
102.27,10.93,8.17,10.93,8.16,-8.16,-8.16,-7.50,2.78,2.77,2.77
103.29,10.83,8.10,10.83,8.10,-8.10,-8.10,-7.53,2.74,2.73,2.73
104.32,10.73,8.02,10.74,8.03,-8.03,-8.05,-7.56,2.70,2.70,2.71
105.37,10.63,7.96,10.64,7.96,-7.97,-8.00,-7.59,2.67,2.67,2.67
106.42,10.54,7.90,10.54,7.90,-7.90,-7.94,-7.63,2.65,2.64,2.65
107.48,10.44,7.84,10.44,7.83,-7.82,-7.89,-7.66,2.62,2.62,2.61
108.56,10.33,7.75,10.33,7.76,-7.75,-7.83,-7.70,2.58,2.58,2.58
109.64,10.22,7.68,10.22,7.68,-7.67,-7.77,-7.73,2.55,2.55,2.54
110.74,10.10,7.59,10.11,7.59,-7.60,-7.72,-7.76,2.51,2.51,2.51
111.85,9.99,7.52,9.99,7.51,-7.52,-7.66,-7.79,2.47,2.47,2.48
112.97,9.87,7.43,9.88,7.43,-7.44,-7.60,-7.82,2.43,2.44,2.44
114.10,9.76,7.35,9.76,7.36,-7.36,-7.54,-7.85,2.40,2.40,2.41
115.24,9.64,7.28,9.64,7.28,-7.27,-7.48,-7.87,2.37,2.37,2.37
116.39,9.52,7.20,9.53,7.20,-7.19,-7.42,-7.88,2.34,2.34,2.32
117.55,9.40,7.11,9.40,7.11,-7.10,-7.36,-7.89,2.30,2.30,2.30
118.73,9.27,7.02,9.27,7.01,-7.01,-7.29,-7.89,2.26,2.26,2.25
119.92,9.13,6.91,9.14,6.91,-6.91,-7.23,-7.89,2.22,2.22,2.23
121.12,9.00,6.80,9.01,6.81,-6.82,-7.17,-7.88,2.19,2.19,2.20
122.33,8.88,6.71,8.88,6.71,-6.71,-7.11,-7.86,2.17,2.17,2.17
123.55,8.75,6.62,8.75,6.61,-6.61,-7.04,-7.83,2.14,2.14,2.14
124.79,8.62,6.51,8.62,6.51,-6.51,-6.98,-7.80,2.12,2.11,2.11
126.03,8.48,6.41,8.48,6.41,-6.41,-6.92,-7.75,2.08,2.08,2.07
127.29,8.34,6.30,8.34,6.30,-6.31,-6.85,-7.70,2.04,2.04,2.04
128.57,8.20,6.19,8.21,6.20,-6.21,-6.79,-7.64,2.00,2.00,2.01
129.85,8.07,6.10,8.08,6.11,-6.11,-6.73,-7.57,1.97,1.97,1.97
131.15,7.95,6.02,7.95,6.02,-6.01,-6.66,-7.49,1.94,1.94,1.93
132.46,7.82,5.93,7.82,5.93,-5.91,-6.60,-7.41,1.91,1.91,1.89
133.79,7.69,5.84,7.70,5.84,-5.83,-6.54,-7.31,1.87,1.87,1.86
135.12,7.57,5.75,7.57,5.74,-5.74,-6.47,-7.22,1.83,1.83,1.82
136.48,7.45,5.65,7.46,5.66,-5.67,-6.41,-7.11,1.78,1.78,1.80
137.84,7.35,5.59,7.36,5.59,-5.61,-6.35,-7.00,1.74,1.75,1.77
139.22,7.27,5.55,7.27,5.54,-5.56,-6.28,-6.89,1.72,1.72,1.72
140.61,7.21,5.51,7.21,5.51,-5.51,-6.22,-6.77,1.70,1.69,1.70
142.02,7.15,5.49,7.16,5.49,-5.49,-6.16,-6.65,1.67,1.67,1.67
143.44,7.12,5.49,7.12,5.48,-5.48,-6.10,-6.53,1.65,1.65,1.64
144.87,7.09,5.47,7.09,5.48,-5.48,-6.05,-6.40,1.62,1.62,1.62
146.32,7.08,5.49,7.08,5.48,-5.49,-5.99,-6.27,1.59,1.59,1.59
147.78,7.07,5.50,7.08,5.50,-5.51,-5.93,-6.14,1.56,1.56,1.58
149.26,7.08,5.54,7.09,5.54,-5.54,-5.88,-6.02,1.54,1.54,1.55
150.75,7.10,5.58,7.10,5.58,-5.58,-5.83,-5.89,1.52,1.52,1.52
152.26,7.13,5.63,7.13,5.63,-5.62,-5.78,-5.76,1.51,1.50,1.50
153.78,7.15,5.68,7.15,5.68,-5.67,-5.74,-5.63,1.48,1.48,1.48
155.32,7.17,5.72,7.17,5.72,-5.72,-5.70,-5.51,1.45,1.45,1.45
156.88,7.19,5.77,7.19,5.77,-5.77,-5.67,-5.38,1.42,1.42,1.43
158.44,7.20,5.81,7.21,5.81,-5.81,-5.64,-5.26,1.39,1.39,1.39
160.03,7.22,5.85,7.22,5.85,-5.85,-5.62,-5.14,1.37,1.37,1.37
161.63,7.22,5.88,7.23,5.89,-5.88,-5.60,-5.03,1.34,1.35,1.34
163.24,7.22,5.92,7.22,5.91,-5.90,-5.60,-4.91,1.32,1.32,1.30
164.88,7.19,5.92,7.19,5.92,-5.91,-5.60,-4.80,1.28,1.28,1.27
166.53,7.14,5.90,7.15,5.91,-5.91,-5.62,-4.69,1.23,1.24,1.24
168.19,7.09,5.88,7.10,5.89,-5.90,-5.65,-4.58,1.20,1.20,1.21
169.87,7.04,5.87,7.04,5.87,-5.87,-5.68,-4.48,1.17,1.17,1.17
171.57,6.98,5.84,6.98,5.84,-5.84,-5.72,-4.38,1.15,1.15,1.15
173.29,6.91,5.80,6.91,5.80,-5.79,-5.76,-4.28,1.12,1.12,1.11
175.02,6.81,5.74,6.82,5.74,-5.73,-5.78,-4.18,1.08,1.09,1.08
176.77,6.71,5.67,6.71,5.67,-5.66,-5.78,-4.09,1.05,1.05,1.04
178.54,6.59,5.57,6.60,5.58,-5.58,-5.73,-4.00,1.01,1.02,1.02
180.32,6.47,5.50,6.47,5.49,-5.49,-5.65,-3.92,0.98,0.98,0.98
182.13,6.33,5.39,6.33,5.39,-5.39,-5.52,-3.83,0.94,0.94,0.94
183.95,6.18,5.27,6.19,5.28,-5.28,-5.36,-3.75,0.90,0.90,0.91
185.79,6.03,5.16,6.04,5.17,-5.17,-5.19,-3.67,0.86,0.87,0.87
187.65,5.89,5.05,5.89,5.05,-5.05,-5.00,-3.60,0.84,0.84,0.84
189.52,5.74,4.94,5.74,4.94,-4.93,-4.82,-3.53,0.81,0.80,0.80
191.42,5.58,4.81,5.58,4.81,-4.81,-4.65,-3.46,0.77,0.77,0.77
193.33,5.41,4.67,5.42,4.68,-4.69,-4.49,-3.39,0.73,0.73,0.74
195.27,5.25,4.55,5.26,4.56,-4.56,-4.34,-3.33,0.70,0.70,0.70
197.22,5.11,4.45,5.10,4.43,-4.42,-4.20,-3.27,0.69,0.68,0.67
199.19,4.94,4.29,4.94,4.30,-4.29,-4.06,-3.21,0.65,0.65,0.65
201.18,4.77,4.16,4.78,4.16,-4.16,-3.94,-3.15,0.62,0.62,0.61
203.19,4.62,4.03,4.61,4.02,-4.03,-3.82,-3.09,0.60,0.59,0.60
205.23,4.45,3.88,4.46,3.88,-3.89,-3.71,-3.04,0.56,0.56,0.57
207.28,4.30,3.75,4.31,3.76,-3.76,-3.61,-2.99,0.54,0.54,0.56
209.35,4.16,3.64,4.16,3.63,-3.63,-3.50,-2.94,0.53,0.52,0.52
211.44,4.01,3.51,4.02,3.51,-3.51,-3.40,-2.89,0.51,0.51,0.50
213.56,3.87,3.39,3.87,3.39,-3.38,-3.31,-2.85,0.49,0.49,0.49
215.69,3.73,3.27,3.73,3.26,-3.26,-3.21,-2.80,0.47,0.46,0.46
217.85,3.58,3.14,3.59,3.14,-3.14,-3.12,-2.76,0.44,0.44,0.44
220.03,3.44,3.02,3.45,3.03,-3.03,-3.03,-2.72,0.42,0.42,0.42
222.23,3.31,2.91,3.31,2.91,-2.91,-2.94,-2.68,0.40,0.40,0.40
224.45,3.18,2.81,3.18,2.80,-2.80,-2.84,-2.63,0.38,0.38,0.38
226.70,3.05,2.69,3.05,2.69,-2.69,-2.75,-2.60,0.36,0.36,0.37
228.96,2.92,2.57,2.93,2.58,-2.58,-2.66,-2.56,0.34,0.35,0.36
231.25,2.82,2.49,2.82,2.48,-2.48,-2.57,-2.52,0.34,0.34,0.34
233.57,2.71,2.39,2.71,2.39,-2.38,-2.47,-2.48,0.33,0.33,0.33
235.90,2.60,2.30,2.61,2.30,-2.29,-2.38,-2.44,0.31,0.32,0.31
238.26,2.50,2.20,2.50,2.19,-2.20,-2.28,-2.40,0.31,0.30,0.30
240.64,2.40,2.09,2.40,2.10,-2.11,-2.18,-2.37,0.29,0.29,0.31
243.05,2.31,2.01,2.32,2.02,-2.02,-2.08,-2.33,0.29,0.29,0.30
245.48,2.23,1.95,2.23,1.94,-1.94,-1.98,-2.29,0.29,0.29,0.28
247.93,2.15,1.88,2.15,1.87,-1.86,-1.88,-2.25,0.29,0.29,0.28
250.41,2.07,1.78,2.07,1.79,-1.78,-1.78,-2.21,0.29,0.29,0.29
252.92,1.99,1.70,1.99,1.70,-1.70,-1.69,-2.17,0.29,0.29,0.29
255.45,1.91,1.63,1.92,1.63,-1.63,-1.59,-2.14,0.28,0.28,0.28
258.00,1.84,1.56,1.84,1.56,-1.56,-1.50,-2.10,0.28,0.28,0.29
260.58,1.78,1.50,1.78,1.49,-1.50,-1.42,-2.06,0.28,0.28,0.28
263.19,1.71,1.43,1.72,1.44,-1.44,-1.35,-2.02,0.27,0.28,0.29
265.82,1.66,1.38,1.67,1.38,-1.39,-1.29,-1.98,0.27,0.28,0.28
268.48,1.62,1.34,1.62,1.34,-1.34,-1.24,-1.94,0.28,0.28,0.28
271.16,1.57,1.29,1.58,1.29,-1.29,-1.20,-1.89,0.28,0.28,0.28
273.87,1.53,1.25,1.53,1.26,-1.25,-1.17,-1.85,0.28,0.28,0.28
276.61,1.49,1.22,1.49,1.21,-1.21,-1.15,-1.81,0.29,0.28,0.28
279.38,1.44,1.18,1.44,1.17,-1.16,-1.13,-1.77,0.28,0.28,0.26
282.17,1.39,1.11,1.40,1.12,-1.12,-1.11,-1.73,0.27,0.28,0.28
284.99,1.35,1.07,1.35,1.07,-1.07,-1.10,-1.69,0.28,0.28,0.28
287.84,1.31,1.02,1.31,1.03,-1.03,-1.09,-1.65,0.28,0.28,0.29
290.72,1.27,1.00,1.27,0.99,-0.99,-1.08,-1.61,0.28,0.28,0.28
293.63,1.23,0.95,1.23,0.95,-0.95,-1.07,-1.57,0.28,0.28,0.28
296.57,1.19,0.90,1.20,0.91,-0.91,-1.05,-1.53,0.28,0.29,0.30
299.53,1.16,0.87,1.17,0.87,-0.87,-1.04,-1.49,0.29,0.29,0.29
302.53,1.14,0.84,1.14,0.84,-0.84,-1.02,-1.45,0.30,0.30,0.30
305.55,1.12,0.82,1.12,0.82,-0.81,-1.00,-1.41,0.31,0.31,0.31
308.61,1.10,0.79,1.10,0.79,-0.78,-0.98,-1.37,0.32,0.32,0.31
311.69,1.07,0.75,1.08,0.76,-0.75,-0.96,-1.33,0.32,0.32,0.32
314.81,1.05,0.73,1.05,0.73,-0.73,-0.93,-1.29,0.32,0.32,0.33
317.96,1.04,0.71,1.04,0.71,-0.72,-0.91,-1.26,0.33,0.32,0.33
321.14,1.02,0.68,1.03,0.69,-0.71,-0.88,-1.22,0.32,0.33,0.34
324.35,1.03,0.69,1.03,0.68,-0.70,-0.85,-1.18,0.34,0.34,0.34
327.59,1.04,0.68,1.04,0.69,-0.69,-0.82,-1.15,0.35,0.35,0.37
330.87,1.05,0.69,1.05,0.69,-0.69,-0.80,-1.11,0.37,0.37,0.36
334.18,1.06,0.70,1.06,0.69,-0.68,-0.77,-1.08,0.38,0.38,0.36
337.52,1.06,0.68,1.06,0.69,-0.67,-0.73,-1.04,0.39,0.39,0.38
340.90,1.05,0.67,1.05,0.67,-0.66,-0.70,-1.01,0.39,0.39,0.39
344.30,1.03,0.64,1.04,0.64,-0.64,-0.67,-0.98,0.39,0.40,0.39
347.75,1.01,0.61,1.02,0.61,-0.61,-0.64,-0.95,0.40,0.40,0.40
351.23,0.99,0.58,0.99,0.58,-0.58,-0.61,-0.92,0.42,0.41,0.41
354.74,0.96,0.53,0.96,0.54,-0.54,-0.58,-0.89,0.43,0.42,0.43
358.28,0.92,0.50,0.93,0.50,-0.49,-0.55,-0.86,0.43,0.43,0.43
361.87,0.89,0.47,0.89,0.46,-0.45,-0.52,-0.83,0.44,0.44,0.42
365.49,0.85,0.41,0.85,0.41,-0.41,-0.48,-0.80,0.44,0.44,0.44
369.14,0.81,0.36,0.82,0.37,-0.38,-0.45,-0.77,0.44,0.44,0.45
372.83,0.79,0.33,0.79,0.33,-0.34,-0.42,-0.74,0.45,0.45,0.46
376.56,0.77,0.31,0.77,0.31,-0.32,-0.39,-0.71,0.46,0.46,0.46
380.33,0.76,0.30,0.77,0.30,-0.30,-0.36,-0.69,0.46,0.47,0.47
384.13,0.76,0.29,0.76,0.29,-0.29,-0.33,-0.66,0.47,0.47,0.48
387.97,0.77,0.29,0.77,0.28,-0.29,-0.30,-0.63,0.48,0.48,0.48
391.85,0.78,0.28,0.79,0.29,-0.30,-0.27,-0.61,0.49,0.49,0.50
395.77,0.81,0.31,0.81,0.31,-0.31,-0.24,-0.58,0.50,0.50,0.50
399.73,0.84,0.33,0.85,0.33,-0.33,-0.21,-0.56,0.51,0.51,0.51
403.72,0.88,0.35,0.88,0.36,-0.36,-0.18,-0.54,0.53,0.53,0.53
407.76,0.92,0.38,0.92,0.38,-0.38,-0.15,-0.51,0.54,0.54,0.54
411.84,0.95,0.41,0.95,0.41,-0.40,-0.12,-0.49,0.55,0.55,0.55
415.96,0.98,0.43,0.98,0.43,-0.43,-0.09,-0.47,0.56,0.56,0.56
420.12,1.01,0.46,1.01,0.45,-0.45,-0.07,-0.44,0.57,0.56,0.56
424.32,1.03,0.47,1.03,0.46,-0.46,-0.04,-0.42,0.57,0.57,0.56
428.56,1.05,0.47,1.05,0.47,-0.47,-0.01,-0.40,0.58,0.58,0.58
432.85,1.06,0.46,1.07,0.47,-0.47,0.02,-0.38,0.59,0.59,0.60
437.18,1.07,0.48,1.07,0.47,-0.47,0.04,-0.35,0.60,0.60,0.59
441.55,1.07,0.47,1.07,0.47,-0.46,0.07,-0.33,0.61,0.61,0.60
445.96,1.06,0.45,1.06,0.46,-0.45,0.09,-0.31,0.61,0.61,0.61
450.42,1.05,0.43,1.05,0.44,-0.44,0.12,-0.29,0.62,0.62,0.62
454.93,1.04,0.41,1.05,0.42,-0.42,0.14,-0.27,0.62,0.62,0.63
459.48,1.04,0.40,1.04,0.40,-0.41,0.17,-0.25,0.63,0.63,0.64
464.07,1.04,0.39,1.04,0.39,-0.40,0.19,-0.23,0.65,0.65,0.66
468.71,1.04,0.39,1.04,0.38,-0.38,0.22,-0.21,0.66,0.66,0.66
473.40,1.04,0.38,1.04,0.38,-0.37,0.24,-0.19,0.67,0.67,0.67
478.13,1.04,0.37,1.04,0.37,-0.37,0.26,-0.17,0.68,0.68,0.68
482.91,1.04,0.36,1.04,0.36,-0.36,0.29,-0.15,0.69,0.69,0.69
487.74,1.04,0.35,1.04,0.35,-0.35,0.31,-0.13,0.70,0.70,0.69
492.62,1.04,0.34,1.04,0.34,-0.34,0.33,-0.11,0.71,0.71,0.70
497.55,1.04,0.33,1.04,0.33,-0.33,0.35,-0.09,0.72,0.72,0.71
502.52,1.04,0.32,1.04,0.32,-0.32,0.37,-0.07,0.73,0.73,0.72
507.55,1.04,0.30,1.04,0.30,-0.31,0.39,-0.05,0.74,0.74,0.74
512.62,1.04,0.29,1.05,0.29,-0.30,0.41,-0.03,0.74,0.75,0.75
517.75,1.05,0.28,1.05,0.28,-0.29,0.44,-0.01,0.76,0.76,0.77
