frequency,raw,error,smoothed,error_smoothed,equalization,parametric_eq,fixed_band_eq,equalized_raw,equalized_smoothed,target
20.00,-7.97,-6.48,-7.98,-6.49,5.98,4.19,1.89,-1.99,-2.00,-1.49
20.20,-7.89,-6.39,-7.89,-6.38,6.00,4.18,1.94,-1.89,-1.89,-1.50
20.40,-7.81,-6.29,-7.80,-6.28,6.01,4.17,2.00,-1.80,-1.79,-1.52
20.61,-7.73,-6.20,-7.73,-6.19,6.02,4.16,2.06,-1.72,-1.71,-1.53
20.81,-7.65,-6.10,-7.65,-6.10,6.01,4.14,2.12,-1.64,-1.64,-1.55
21.02,-7.58,-6.02,-7.59,-6.03,6.00,4.13,2.18,-1.59,-1.60,-1.56
21.23,-7.55,-5.98,-7.55,-5.98,5.97,4.12,2.25,-1.58,-1.58,-1.57
21.44,-7.53,-5.95,-7.53,-5.94,5.94,4.11,2.32,-1.59,-1.58,-1.58
21.66,-7.50,-5.90,-7.50,-5.91,5.90,4.10,2.38,-1.60,-1.60,-1.60
21.87,-7.47,-5.87,-7.47,-5.86,5.85,4.08,2.45,-1.62,-1.62,-1.60
22.09,-7.43,-5.82,-7.42,-5.81,5.80,4.07,2.53,-1.63,-1.63,-1.61
22.31,-7.36,-5.74,-7.36,-5.74,5.73,4.06,2.60,-1.63,-1.63,-1.62
22.54,-7.28,-5.65,-7.29,-5.65,5.65,4.04,2.68,-1.63,-1.64,-1.63
22.76,-7.21,-5.57,-7.21,-5.57,5.57,4.03,2.76,-1.64,-1.64,-1.64
22.99,-7.13,-5.49,-7.13,-5.49,5.49,4.02,2.84,-1.64,-1.65,-1.64
23.22,-7.06,-5.41,-7.06,-5.41,5.41,4.00,2.92,-1.65,-1.65,-1.65
23.45,-6.98,-5.33,-6.98,-5.32,5.33,3.99,3.00,-1.65,-1.65,-1.65
23.69,-6.90,-5.25,-6.90,-5.25,5.26,3.98,3.09,-1.64,-1.64,-1.65
23.92,-6.82,-5.17,-6.83,-5.18,5.20,3.96,3.17,-1.62,-1.64,-1.65
24.16,-6.78,-5.13,-6.78,-5.12,5.14,3.95,3.26,-1.64,-1.64,-1.65
24.40,-6.74,-5.09,-6.74,-5.08,5.09,3.93,3.35,-1.65,-1.65,-1.65
24.65,-6.70,-5.05,-6.71,-5.05,5.05,3.92,3.44,-1.65,-1.66,-1.65
24.89,-6.67,-5.02,-6.67,-5.01,5.01,3.90,3.54,-1.67,-1.66,-1.65
25.14,-6.63,-4.98,-6.63,-4.97,4.96,3.89,3.63,-1.67,-1.66,-1.65
25.39,-6.58,-4.93,-6.59,-4.93,4.92,3.87,3.72,-1.66,-1.66,-1.65
25.65,-6.54,-4.88,-6.54,-4.88,4.88,3.86,3.82,-1.66,-1.66,-1.66
25.91,-6.50,-4.84,-6.50,-4.83,4.83,3.84,3.91,-1.67,-1.67,-1.66
26.16,-6.44,-4.77,-6.45,-4.77,4.77,3.83,4.00,-1.67,-1.67,-1.67
26.43,-6.39,-4.72,-6.39,-4.71,4.71,3.81,4.09,-1.68,-1.68,-1.67
26.69,-6.33,-4.65,-6.33,-4.65,4.65,3.80,4.19,-1.68,-1.68,-1.68
26.96,-6.28,-4.59,-6.28,-4.59,4.59,3.78,4.28,-1.70,-1.69,-1.69
27.23,-6.22,-4.53,-6.22,-4.52,4.52,3.76,4.36,-1.70,-1.70,-1.69
27.50,-6.16,-4.46,-6.16,-4.46,4.45,3.75,4.45,-1.71,-1.71,-1.70
27.77,-6.10,-4.39,-6.10,-4.39,4.39,3.73,4.53,-1.71,-1.72,-1.71
28.05,-6.04,-4.32,-6.04,-4.32,4.33,3.71,4.61,-1.72,-1.72,-1.72
28.33,-5.99,-4.27,-5.99,-4.26,4.27,3.69,4.68,-1.72,-1.72,-1.72
28.62,-5.93,-4.21,-5.93,-4.20,4.22,3.68,4.75,-1.71,-1.71,-1.72
28.90,-5.88,-4.15,-5.88,-4.16,4.18,3.66,4.81,-1.70,-1.71,-1.73
29.19,-5.84,-4.12,-5.85,-4.12,4.13,3.64,4.87,-1.71,-1.72,-1.72
29.48,-5.82,-4.10,-5.82,-4.10,4.09,3.62,4.91,-1.73,-1.73,-1.72
29.78,-5.80,-4.08,-5.80,-4.07,4.05,3.60,4.96,-1.75,-1.75,-1.72
30.08,-5.76,-4.04,-5.76,-4.03,4.01,3.59,4.99,-1.76,-1.75,-1.72
30.38,-5.70,-3.98,-5.70,-3.97,3.97,3.57,5.02,-1.74,-1.73,-1.72
30.68,-5.63,-3.91,-5.63,-3.91,3.92,3.55,5.04,-1.71,-1.71,-1.72
30.99,-5.56,-3.84,-5.57,-3.85,3.87,3.53,5.05,-1.69,-1.70,-1.72
31.30,-5.53,-3.81,-5.53,-3.81,3.82,3.51,5.06,-1.71,-1.71,-1.72
31.61,-5.50,-3.78,-5.50,-3.78,3.77,3.49,5.05,-1.73,-1.73,-1.72
31.93,-5.47,-3.75,-5.46,-3.74,3.72,3.47,5.04,-1.75,-1.75,-1.72
32.24,-5.41,-3.68,-5.41,-3.68,3.67,3.45,5.02,-1.74,-1.74,-1.73
32.57,-5.35,-3.62,-5.35,-3.62,3.62,3.43,4.98,-1.73,-1.73,-1.73
32.89,-5.28,-3.55,-5.29,-3.56,3.57,3.41,4.95,-1.71,-1.72,-1.73
33.22,-5.24,-3.51,-5.24,-3.51,3.51,3.38,4.90,-1.73,-1.73,-1.73
33.55,-5.20,-3.47,-5.20,-3.47,3.46,3.36,4.85,-1.74,-1.74,-1.73
33.89,-5.17,-3.43,-5.16,-3.42,3.40,3.34,4.79,-1.77,-1.76,-1.74
34.23,-5.11,-3.37,-5.11,-3.36,3.36,3.32,4.73,-1.76,-1.75,-1.74
34.57,-5.05,-3.31,-5.05,-3.30,3.32,3.30,4.66,-1.74,-1.73,-1.74
34.92,-4.98,-3.24,-5.00,-3.25,3.28,3.27,4.58,-1.70,-1.71,-1.74
35.27,-4.96,-3.22,-4.97,-3.22,3.25,3.25,4.51,-1.71,-1.72,-1.74
35.62,-4.95,-3.21,-4.95,-3.20,3.21,3.22,4.42,-1.74,-1.74,-1.74
35.97,-4.95,-3.20,-4.94,-3.19,3.18,3.20,4.34,-1.77,-1.77,-1.75
36.33,-4.92,-3.17,-4.93,-3.17,3.14,3.18,4.25,-1.78,-1.79,-1.75
36.70,-4.89,-3.14,-4.89,-3.14,3.10,3.15,4.16,-1.79,-1.79,-1.75
37.06,-4.85,-3.10,-4.84,-3.08,3.07,3.13,4.07,-1.78,-1.77,-1.75
37.43,-4.77,-3.01,-4.77,-3.01,3.03,3.10,3.98,-1.74,-1.74,-1.76
37.81,-4.70,-2.94,-4.71,-2.95,2.98,3.07,3.89,-1.72,-1.73,-1.76
38.19,-4.66,-2.89,-4.68,-2.90,2.93,3.05,3.79,-1.73,-1.74,-1.77
38.57,-4.66,-2.88,-4.66,-2.88,2.88,3.02,3.70,-1.78,-1.78,-1.78
38.95,-4.66,-2.87,-4.64,-2.85,2.82,2.99,3.61,-1.84,-1.82,-1.79
39.34,-4.60,-2.81,-4.60,-2.80,2.77,2.96,3.51,-1.83,-1.83,-1.79
39.74,-4.53,-2.73,-4.54,-2.73,2.71,2.93,3.42,-1.82,-1.83,-1.80
40.14,-4.47,-2.66,-4.47,-2.66,2.66,2.91,3.33,-1.81,-1.81,-1.81
40.54,-4.41,-2.59,-4.41,-2.59,2.61,2.88,3.24,-1.80,-1.81,-1.82
40.94,-4.36,-2.54,-4.36,-2.53,2.56,2.84,3.16,-1.80,-1.80,-1.82
41.35,-4.31,-2.49,-4.31,-2.49,2.52,2.81,3.07,-1.80,-1.79,-1.82
41.76,-4.27,-2.45,-4.28,-2.45,2.48,2.78,2.98,-1.79,-1.80,-1.82
42.18,-4.25,-2.43,-4.26,-2.44,2.44,2.75,2.90,-1.81,-1.82,-1.82
42.60,-4.25,-2.43,-4.25,-2.43,2.41,2.72,2.82,-1.84,-1.84,-1.82
43.03,-4.25,-2.43,-4.23,-2.41,2.38,2.68,2.74,-1.88,-1.86,-1.82
43.46,-4.19,-2.37,-4.20,-2.38,2.34,2.65,2.67,-1.85,-1.86,-1.82
43.90,-4.14,-2.33,-4.14,-2.32,2.30,2.61,2.59,-1.84,-1.83,-1.81
44.33,-4.07,-2.26,-4.07,-2.25,2.26,2.58,2.52,-1.81,-1.80,-1.81
44.78,-4.00,-2.19,-4.01,-2.20,2.23,2.54,2.45,-1.78,-1.79,-1.81
45.23,-3.96,-2.15,-3.97,-2.16,2.19,2.50,2.38,-1.78,-1.79,-1.81
45.68,-3.95,-2.14,-3.95,-2.13,2.15,2.46,2.31,-1.80,-1.80,-1.81
46.13,-3.94,-2.13,-3.92,-2.11,2.11,2.42,2.25,-1.83,-1.81,-1.81
46.60,-3.89,-2.08,-3.89,-2.08,2.08,2.38,2.18,-1.82,-1.82,-1.81
47.06,-3.85,-2.04,-3.88,-2.06,2.04,2.34,2.12,-1.81,-1.84,-1.81
47.53,-3.85,-2.04,-3.85,-2.04,2.00,2.30,2.06,-1.85,-1.85,-1.81
48.01,-3.85,-2.03,-3.81,-1.99,1.97,2.25,2.00,-1.88,-1.84,-1.82
48.49,-3.75,-1.93,-3.75,-1.93,1.93,2.21,1.95,-1.82,-1.82,-1.82
48.97,-3.66,-1.83,-3.69,-1.86,1.90,2.16,1.89,-1.77,-1.80,-1.83
49.46,-3.65,-1.82,-3.65,-1.82,1.87,2.12,1.84,-1.79,-1.78,-1.83
49.96,-3.65,-1.82,-3.65,-1.81,1.84,2.07,1.79,-1.81,-1.81,-1.83
50.46,-3.65,-1.82,-3.65,-1.82,1.81,2.02,1.74,-1.84,-1.84,-1.83
50.96,-3.65,-1.83,-3.63,-1.80,1.79,1.98,1.69,-1.87,-1.85,-1.82
51.47,-3.60,-1.78,-3.60,-1.77,1.76,1.93,1.65,-1.85,-1.84,-1.82
51.99,-3.54,-1.72,-3.58,-1.75,1.73,1.88,1.60,-1.82,-1.85,-1.82
52.51,-3.55,-1.72,-3.55,-1.72,1.69,1.82,1.56,-1.86,-1.86,-1.83
53.03,-3.55,-1.72,-3.50,-1.67,1.66,1.77,1.52,-1.89,-1.84,-1.83
53.56,-3.43,-1.60,-3.44,-1.60,1.62,1.72,1.47,-1.81,-1.82,-1.83
54.10,-3.33,-1.50,-3.37,-1.54,1.57,1.67,1.43,-1.76,-1.80,-1.83
54.64,-3.34,-1.51,-3.34,-1.51,1.54,1.62,1.40,-1.80,-1.80,-1.83
55.18,-3.35,-1.52,-3.34,-1.51,1.51,1.56,1.36,-1.84,-1.83,-1.83
55.74,-3.35,-1.52,-3.33,-1.50,1.49,1.51,1.32,-1.86,-1.85,-1.83
56.29,-3.31,-1.48,-3.29,-1.46,1.47,1.46,1.28,-1.84,-1.83,-1.83
56.86,-3.23,-1.40,-3.27,-1.44,1.44,1.41,1.25,-1.79,-1.83,-1.83
57.42,-3.24,-1.41,-3.26,-1.43,1.42,1.36,1.22,-1.83,-1.84,-1.83
58.00,-3.29,-1.46,-3.26,-1.42,1.39,1.31,1.18,-1.91,-1.87,-1.83
58.58,-3.24,-1.41,-3.23,-1.40,1.35,1.26,1.15,-1.89,-1.88,-1.83
59.16,-3.17,-1.34,-3.16,-1.33,1.32,1.22,1.12,-1.85,-1.84,-1.83
59.76,-3.06,-1.23,-3.08,-1.25,1.30,1.17,1.09,-1.77,-1.79,-1.83
60.35,-3.02,-1.19,-3.04,-1.21,1.27,1.13,1.06,-1.76,-1.78,-1.83
60.96,-3.05,-1.23,-3.03,-1.21,1.23,1.09,1.03,-1.82,-1.80,-1.82
61.57,-3.05,-1.23,-3.05,-1.23,1.21,1.05,1.00,-1.84,-1.85,-1.82
62.18,-3.05,-1.23,-3.06,-1.23,1.19,1.01,0.97,-1.86,-1.87,-1.82
62.80,-3.05,-1.22,-3.02,-1.19,1.17,0.98,0.94,-1.88,-1.85,-1.83
63.43,-2.98,-1.15,-2.97,-1.14,1.16,0.95,0.91,-1.82,-1.81,-1.83
64.07,-2.89,-1.05,-2.94,-1.09,1.14,0.92,0.88,-1.76,-1.80,-1.84
64.71,-2.93,-1.09,-2.95,-1.11,1.10,0.89,0.85,-1.83,-1.85,-1.84
65.35,-2.97,-1.12,-2.96,-1.11,1.06,0.87,0.83,-1.92,-1.90,-1.85
66.01,-3.01,-1.16,-2.92,-1.07,1.01,0.85,0.80,-2.00,-1.91,-1.85
66.67,-2.80,-0.94,-2.85,-0.98,0.98,0.83,0.77,-1.82,-1.87,-1.86
67.33,-2.71,-0.85,-2.77,-0.90,0.95,0.81,0.74,-1.76,-1.82,-1.86
68.01,-2.74,-0.87,-2.72,-0.84,0.91,0.80,0.72,-1.83,-1.80,-1.87
68.69,-2.74,-0.87,-2.73,-0.86,0.88,0.78,0.69,-1.87,-1.86,-1.87
69.37,-2.74,-0.86,-2.75,-0.87,0.84,0.77,0.67,-1.90,-1.91,-1.88
70.07,-2.74,-0.86,-2.75,-0.86,0.81,0.75,0.64,-1.93,-1.94,-1.88
70.77,-2.74,-0.85,-2.71,-0.82,0.80,0.74,0.62,-1.94,-1.91,-1.89
71.48,-2.67,-0.78,-2.66,-0.77,0.79,0.73,0.59,-1.88,-1.87,-1.89
72.19,-2.59,-0.69,-2.63,-0.73,0.78,0.72,0.57,-1.81,-1.84,-1.90
72.91,-2.61,-0.71,-2.62,-0.72,0.76,0.71,0.54,-1.85,-1.86,-1.90
73.64,-2.66,-0.76,-2.65,-0.75,0.73,0.70,0.52,-1.93,-1.93,-1.90
74.38,-2.69,-0.79,-2.68,-0.77,0.69,0.69,0.49,-2.00,-1.99,-1.90
75.12,-2.66,-0.76,-2.64,-0.73,0.66,0.68,0.47,-2.00,-1.98,-1.90
75.87,-2.56,-0.65,-2.55,-0.64,0.64,0.66,0.45,-1.92,-1.91,-1.91
76.63,-2.43,-0.52,-2.47,-0.55,0.61,0.65,0.42,-1.82,-1.86,-1.91
77.40,-2.39,-0.48,-2.42,-0.50,0.57,0.64,0.40,-1.82,-1.84,-1.91
78.17,-2.44,-0.53,-2.42,-0.50,0.54,0.62,0.38,-1.91,-1.88,-1.91
78.95,-2.44,-0.53,-2.44,-0.53,0.50,0.61,0.35,-1.94,-1.94,-1.91
79.74,-2.44,-0.53,-2.44,-0.53,0.47,0.59,0.33,-1.97,-1.97,-1.91
80.54,-2.42,-0.51,-2.39,-0.48,0.47,0.57,0.31,-1.95,-1.92,-1.91
81.35,-2.35,-0.44,-2.34,-0.43,0.47,0.56,0.29,-1.88,-1.87,-1.91
82.16,-2.26,-0.35,-2.33,-0.41,0.46,0.54,0.26,-1.80,-1.87,-1.91
82.98,-2.34,-0.42,-2.34,-0.43,0.44,0.52,0.24,-1.90,-1.90,-1.92
83.81,-2.42,-0.50,-2.37,-0.44,0.41,0.49,0.22,-2.01,-1.96,-1.92
84.65,-2.37,-0.45,-2.37,-0.44,0.37,0.47,0.20,-2.00,-2.00,-1.92
85.50,-2.29,-0.36,-2.32,-0.39,0.33,0.45,0.18,-1.96,-1.99,-1.93
86.35,-2.24,-0.31,-2.23,-0.30,0.30,0.42,0.16,-1.95,-1.94,-1.93
87.22,-2.20,-0.26,-2.16,-0.22,0.26,0.40,0.13,-1.94,-1.90,-1.94
88.09,-2.05,-0.11,-2.12,-0.17,0.23,0.37,0.11,-1.82,-1.89,-1.94
88.97,-2.10,-0.15,-2.10,-0.15,0.20,0.34,0.09,-1.90,-1.90,-1.95
89.86,-2.13,-0.17,-2.11,-0.15,0.17,0.32,0.07,-1.96,-1.94,-1.96
90.76,-2.14,-0.18,-2.14,-0.17,0.15,0.29,0.05,-1.99,-1.99,-1.96
91.66,-2.13,-0.16,-2.14,-0.17,0.13,0.26,0.03,-2.00,-2.01,-1.97
92.58,-2.13,-0.15,-2.14,-0.15,0.12,0.23,0.01,-2.01,-2.02,-1.98
93.51,-2.13,-0.14,-2.12,-0.12,0.09,0.20,-0.01,-2.04,-2.02,-1.99
94.44,-2.09,-0.09,-2.09,-0.09,0.06,0.16,-0.03,-2.03,-2.03,-2.00
95.39,-2.03,-0.02,-2.04,-0.03,0.03,0.13,-0.05,-2.00,-2.01,-2.01
96.34,-2.01,0.01,-1.99,0.03,-0.00,0.10,-0.08,-2.01,-1.99,-2.02
97.30,-1.94,0.10,-1.96,0.08,-0.04,0.07,-0.10,-1.98,-2.00,-2.04
98.28,-1.95,0.10,-1.95,0.10,-0.08,0.03,-0.12,-2.03,-2.03,-2.05
99.26,-1.97,0.10,-1.96,0.11,-0.11,0.00,-0.14,-2.09,-2.08,-2.07
100.25,-1.98,0.11,-1.99,0.10,-0.14,-0.03,-0.16,-2.12,-2.13,-2.09
101.25,-2.00,0.11,-1.99,0.13,-0.16,-0.07,-0.18,-2.16,-2.14,-2.11
102.27,-1.98,0.15,-1.94,0.19,-0.17,-0.10,-0.20,-2.15,-2.11,-2.13
103.29,-1.89,0.26,-1.93,0.23,-0.19,-0.13,-0.22,-2.08,-2.12,-2.15
104.32,-1.88,0.29,-1.95,0.23,-0.21,-0.17,-0.24,-2.09,-2.16,-2.17
105.37,-2.04,0.16,-1.99,0.22,-0.22,-0.20,-0.27,-2.27,-2.21,-2.20
106.42,-2.06,0.16,-2.01,0.21,-0.24,-0.24,-0.29,-2.30,-2.25,-2.22
107.48,-1.97,0.27,-2.00,0.24,-0.26,-0.27,-0.31,-2.23,-2.27,-2.24
108.56,-1.94,0.32,-1.96,0.30,-0.28,-0.30,-0.33,-2.23,-2.25,-2.26
109.64,-1.96,0.32,-1.95,0.33,-0.31,-0.33,-0.35,-2.27,-2.26,-2.28
110.74,-1.98,0.31,-2.00,0.30,-0.33,-0.37,-0.37,-2.31,-2.32,-2.29
111.85,-2.00,0.31,-1.99,0.32,-0.35,-0.40,-0.39,-2.35,-2.34,-2.31
112.97,-2.01,0.31,-1.94,0.39,-0.36,-0.43,-0.41,-2.37,-2.30,-2.32
114.10,-1.83,0.50,-1.90,0.44,-0.38,-0.46,-0.43,-2.21,-2.28,-2.33
115.24,-1.84,0.50,-1.91,0.43,-0.40,-0.49,-0.45,-2.24,-2.31,-2.34
116.39,-1.97,0.38,-1.93,0.42,-0.43,-0.52,-0.47,-2.40,-2.36,-2.35
117.55,-2.03,0.32,-1.95,0.40,-0.47,-0.55,-0.49,-2.51,-2.43,-2.35
118.73,-1.88,0.48,-1.93,0.44,-0.52,-0.58,-0.52,-2.40,-2.45,-2.36
119.92,-1.80,0.56,-1.83,0.53,-0.57,-0.60,-0.54,-2.37,-2.40,-2.36
121.12,-1.78,0.59,-1.72,0.65,-0.61,-0.63,-0.56,-2.39,-2.33,-2.37
122.33,-1.64,0.73,-1.66,0.70,-0.65,-0.66,-0.58,-2.29,-2.31,-2.37
123.55,-1.58,0.78,-1.63,0.74,-0.67,-0.68,-0.60,-2.26,-2.31,-2.36
124.79,-1.65,0.71,-1.62,0.75,-0.69,-0.71,-0.62,-2.34,-2.31,-2.36
126.03,-1.66,0.71,-1.64,0.72,-0.70,-0.73,-0.64,-2.36,-2.35,-2.37
127.29,-1.65,0.71,-1.66,0.71,-0.71,-0.76,-0.66,-2.36,-2.37,-2.36
128.57,-1.65,0.71,-1.68,0.68,-0.73,-0.78,-0.68,-2.38,-2.41,-2.36
129.85,-1.69,0.67,-1.70,0.66,-0.75,-0.81,-0.70,-2.44,-2.45,-2.36
131.15,-1.74,0.62,-1.68,0.68,-0.78,-0.83,-0.72,-2.52,-2.46,-2.36
132.46,-1.59,0.77,-1.59,0.78,-0.82,-0.85,-0.74,-2.41,-2.41,-2.36
133.79,-1.47,0.90,-1.47,0.90,-0.86,-0.87,-0.76,-2.33,-2.33,-2.37
135.12,-1.31,1.06,-1.38,0.99,-0.89,-0.90,-0.78,-2.20,-2.27,-2.37
136.48,-1.38,0.99,-1.37,1.01,-0.91,-0.92,-0.80,-2.29,-2.28,-2.37
137.84,-1.42,0.96,-1.38,1.00,-0.94,-0.94,-0.82,-2.36,-2.32,-2.38
139.22,-1.42,0.96,-1.43,0.96,-0.96,-0.97,-0.84,-2.38,-2.39,-2.38
140.61,-1.41,0.98,-1.46,0.93,-0.99,-0.99,-0.86,-2.40,-2.45,-2.39
142.02,-1.50,0.90,-1.49,0.91,-1.02,-1.01,-0.88,-2.52,-2.52,-2.40
143.44,-1.52,0.89,-1.47,0.94,-1.05,-1.04,-0.91,-2.58,-2.52,-2.41
144.87,-1.40,1.01,-1.37,1.05,-1.09,-1.06,-0.93,-2.49,-2.45,-2.41
146.32,-1.19,1.23,-1.24,1.19,-1.12,-1.09,-0.95,-2.31,-2.36,-2.42
147.78,-1.09,1.35,-1.15,1.29,-1.16,-1.12,-0.98,-2.25,-2.31,-2.44
149.26,-1.17,1.28,-1.14,1.32,-1.20,-1.14,-1.00,-2.37,-2.34,-2.45
150.75,-1.21,1.25,-1.19,1.28,-1.24,-1.17,-1.03,-2.46,-2.43,-2.46
152.26,-1.21,1.26,-1.25,1.22,-1.29,-1.20,-1.06,-2.50,-2.54,-2.47
153.78,-1.27,1.20,-1.26,1.22,-1.33,-1.24,-1.08,-2.60,-2.59,-2.47
155.32,-1.27,1.21,-1.23,1.25,-1.36,-1.27,-1.11,-2.63,-2.59,-2.48
156.88,-1.14,1.35,-1.13,1.36,-1.39,-1.30,-1.14,-2.53,-2.52,-2.49
158.44,-1.00,1.49,-1.02,1.48,-1.42,-1.34,-1.17,-2.42,-2.43,-2.49
160.03,-0.89,1.61,-0.95,1.55,-1.44,-1.37,-1.20,-2.33,-2.39,-2.50
161.63,-0.98,1.53,-0.95,1.56,-1.47,-1.41,-1.23,-2.45,-2.42,-2.51
163.24,-1.01,1.51,-0.99,1.54,-1.49,-1.45,-1.26,-2.51,-2.48,-2.52
164.88,-1.02,1.51,-1.05,1.49,-1.52,-1.49,-1.30,-2.55,-2.57,-2.53
166.53,-1.06,1.48,-1.08,1.47,-1.56,-1.53,-1.33,-2.62,-2.63,-2.54
168.19,-1.12,1.43,-1.09,1.47,-1.58,-1.57,-1.37,-2.70,-2.67,-2.55
169.87,-1.05,1.51,-1.04,1.52,-1.60,-1.61,-1.40,-2.65,-2.64,-2.56
171.57,-0.96,1.61,-0.93,1.64,-1.61,-1.65,-1.44,-2.58,-2.55,-2.57
173.29,-0.80,1.78,-0.82,1.76,-1.64,-1.70,-1.48,-2.44,-2.46,-2.58
175.02,-0.73,1.86,-0.79,1.80,-1.67,-1.74,-1.52,-2.40,-2.46,-2.59
176.77,-0.83,1.76,-0.84,1.76,-1.72,-1.78,-1.56,-2.55,-2.55,-2.59
178.54,-0.94,1.66,-0.91,1.69,-1.76,-1.82,-1.61,-2.70,-2.66,-2.60
180.32,-0.97,1.63,-0.92,1.68,-1.80,-1.87,-1.65,-2.77,-2.71,-2.60
182.13,-0.84,1.76,-0.87,1.73,-1.82,-1.91,-1.70,-2.66,-2.70,-2.60
183.95,-0.74,1.86,-0.77,1.83,-1.84,-1.95,-1.74,-2.58,-2.62,-2.60
185.79,-0.72,1.89,-0.66,1.95,-1.87,-1.99,-1.79,-2.59,-2.53,-2.61
187.65,-0.58,2.02,-0.61,1.99,-1.91,-2.03,-1.84,-2.50,-2.53,-2.60
189.52,-0.54,2.06,-0.61,2.00,-1.97,-2.07,-1.89,-2.51,-2.57,-2.60
191.42,-0.65,1.95,-0.60,2.01,-2.02,-2.11,-1.94,-2.67,-2.61,-2.60
193.33,-0.63,1.97,-0.58,2.02,-2.06,-2.15,-1.99,-2.69,-2.65,-2.60
195.27,-0.50,2.09,-0.54,2.06,-2.10,-2.19,-2.05,-2.60,-2.64,-2.59
197.22,-0.44,2.15,-0.46,2.13,-2.14,-2.23,-2.10,-2.58,-2.60,-2.59
199.19,-0.42,2.17,-0.41,2.18,-2.18,-2.27,-2.15,-2.60,-2.59,-2.59
201.18,-0.38,2.21,-0.37,2.22,-2.22,-2.30,-2.21,-2.61,-2.60,-2.59
203.19,-0.33,2.26,-0.32,2.27,-2.27,-2.34,-2.26,-2.60,-2.59,-2.59
205.23,-0.25,2.34,-0.26,2.33,-2.31,-2.37,-2.32,-2.56,-2.57,-2.59
207.28,-0.21,2.38,-0.22,2.37,-2.34,-2.41,-2.38,-2.55,-2.56,-2.59
209.35,-0.21,2.39,-0.21,2.39,-2.37,-2.44,-2.43,-2.58,-2.57,-2.60
211.44,-0.21,2.39,-0.22,2.39,-2.39,-2.48,-2.49,-2.60,-2.61,-2.60
213.56,-0.22,2.38,-0.22,2.39,-2.42,-2.51,-2.55,-2.64,-2.64,-2.60
215.69,-0.22,2.39,-0.21,2.40,-2.45,-2.54,-2.60,-2.67,-2.65,-2.61
217.85,-0.16,2.45,-0.18,2.44,-2.47,-2.57,-2.66,-2.63,-2.65,-2.61
220.03,-0.14,2.48,-0.13,2.50,-2.49,-2.60,-2.71,-2.63,-2.61,-2.62
222.23,-0.07,2.55,-0.08,2.55,-2.51,-2.63,-2.76,-2.58,-2.58,-2.62
224.45,-0.03,2.59,-0.05,2.58,-2.54,-2.66,-2.81,-2.57,-2.58,-2.62
226.70,-0.03,2.59,-0.03,2.60,-2.57,-2.69,-2.86,-2.61,-2.60,-2.62
228.96,-0.03,2.59,-0.04,2.59,-2.61,-2.72,-2.91,-2.64,-2.65,-2.62
231.25,-0.02,2.59,-0.04,2.58,-2.63,-2.75,-2.96,-2.66,-2.67,-2.61
233.57,-0.03,2.58,0.02,2.63,-2.66,-2.77,-3.00,-2.69,-2.64,-2.61
235.90,0.09,2.69,0.11,2.71,-2.68,-2.80,-3.04,-2.59,-2.58,-2.60
238.26,0.24,2.84,0.18,2.78,-2.73,-2.83,-3.08,-2.49,-2.54,-2.60
240.64,0.25,2.83,0.21,2.79,-2.79,-2.85,-3.11,-2.54,-2.58,-2.58
243.05,0.19,2.76,0.21,2.78,-2.85,-2.88,-3.15,-2.66,-2.64,-2.57
245.48,0.17,2.73,0.26,2.82,-2.90,-2.90,-3.18,-2.74,-2.65,-2.56
247.93,0.39,2.94,0.38,2.94,-2.95,-2.93,-3.20,-2.56,-2.57,-2.55
250.41,0.58,3.12,0.53,3.07,-2.98,-2.95,-3.23,-2.40,-2.45,-2.54
252.92,0.64,3.17,0.61,3.14,-3.01,-2.98,-3.25,-2.38,-2.41,-2.53
255.45,0.57,3.09,0.56,3.09,-3.05,-3.00,-3.26,-2.48,-2.49,-2.52
258.00,0.49,3.01,0.52,3.04,-3.09,-3.02,-3.28,-2.60,-2.58,-2.52
260.58,0.46,2.98,0.52,3.04,-3.13,-3.05,-3.29,-2.67,-2.61,-2.52
263.19,0.61,3.13,0.56,3.08,-3.16,-3.07,-3.30,-2.55,-2.60,-2.52
265.82,0.66,3.19,0.64,3.17,-3.17,-3.09,-3.30,-2.52,-2.54,-2.53
268.48,0.66,3.19,0.73,3.26,-3.20,-3.12,-3.31,-2.54,-2.47,-2.53
271.16,0.80,3.34,0.74,3.28,-3.23,-3.14,-3.31,-2.43,-2.49,-2.54
273.87,0.79,3.34,0.74,3.29,-3.27,-3.16,-3.31,-2.48,-2.53,-2.55
276.61,0.67,3.22,0.75,3.30,-3.31,-3.19,-3.31,-2.64,-2.56,-2.55
279.38,0.75,3.30,0.75,3.31,-3.35,-3.21,-3.30,-2.60,-2.59,-2.55
282.17,0.83,3.39,0.79,3.35,-3.38,-3.23,-3.30,-2.55,-2.59,-2.56
284.99,0.86,3.42,0.85,3.42,-3.42,-3.25,-3.29,-2.56,-2.57,-2.56
287.84,0.87,3.43,0.88,3.45,-3.46,-3.28,-3.29,-2.59,-2.58,-2.56
290.72,0.92,3.49,0.93,3.50,-3.50,-3.30,-3.28,-2.59,-2.58,-2.57
293.63,0.98,3.55,0.99,3.56,-3.55,-3.32,-3.28,-2.57,-2.56,-2.57
296.57,1.08,3.65,1.06,3.63,-3.60,-3.34,-3.27,-2.52,-2.54,-2.57
299.53,1.12,3.68,1.11,3.67,-3.65,-3.37,-3.27,-2.53,-2.54,-2.56
302.53,1.13,3.69,1.13,3.70,-3.70,-3.39,-3.26,-2.57,-2.57,-2.56
305.55,1.14,3.71,1.15,3.71,-3.75,-3.41,-3.26,-2.61,-2.60,-2.57
308.61,1.17,3.74,1.19,3.76,-3.79,-3.44,-3.26,-2.63,-2.61,-2.57
311.69,1.25,3.82,1.25,3.82,-3.83,-3.46,-3.26,-2.58,-2.59,-2.57
314.81,1.32,3.90,1.31,3.89,-3.86,-3.48,-3.26,-2.55,-2.56,-2.58
317.96,1.36,3.94,1.35,3.93,-3.89,-3.51,-3.27,-2.53,-2.54,-2.58
321.14,1.36,3.94,1.36,3.95,-3.92,-3.53,-3.27,-2.56,-2.55,-2.58
324.35,1.36,3.95,1.36,3.96,-3.94,-3.55,-3.28,-2.59,-2.58,-2.59
327.59,1.36,3.96,1.35,3.95,-3.97,-3.58,-3.29,-2.61,-2.62,-2.60
330.87,1.36,3.96,1.36,3.96,-4.00,-3.60,-3.30,-2.64,-2.64,-2.60
334.18,1.36,3.96,1.38,3.98,-4.02,-3.63,-3.31,-2.67,-2.65,-2.60
337.52,1.43,4.03,1.42,4.03,-4.05,-3.65,-3.33,-2.62,-2.62,-2.60
340.90,1.48,4.09,1.48,4.09,-4.07,-3.68,-3.35,-2.59,-2.59,-2.61
344.30,1.54,4.15,1.53,4.14,-4.10,-3.70,-3.37,-2.56,-2.58,-2.61
347.75,1.55,4.16,1.55,4.17,-4.14,-3.72,-3.40,-2.59,-2.59,-2.61
351.23,1.56,4.18,1.56,4.18,-4.17,-3.75,-3.42,-2.61,-2.61,-2.62
354.74,1.56,4.18,1.55,4.18,-4.20,-3.77,-3.45,-2.64,-2.64,-2.62
358.28,1.56,4.18,1.56,4.18,-4.22,-3.80,-3.49,-2.66,-2.66,-2.62
361.87,1.57,4.19,1.61,4.23,-4.23,-3.82,-3.52,-2.66,-2.62,-2.62
365.49,1.65,4.27,1.66,4.28,-4.25,-3.85,-3.56,-2.60,-2.60,-2.62
369.14,1.76,4.38,1.66,4.29,-4.28,-3.88,-3.60,-2.52,-2.62,-2.62
372.83,1.65,4.27,1.68,4.30,-4.31,-3.90,-3.65,-2.66,-2.64,-2.62
376.56,1.60,4.22,1.69,4.31,-4.34,-3.93,-3.69,-2.75,-2.66,-2.62
380.33,1.77,4.40,1.72,4.35,-4.38,-3.95,-3.74,-2.61,-2.66,-2.63
384.13,1.81,4.44,1.79,4.42,-4.41,-3.97,-3.79,-2.60,-2.62,-2.63
387.97,1.82,4.46,1.83,4.47,-4.43,-4.00,-3.84,-2.61,-2.60,-2.64
391.85,1.82,4.47,1.82,4.47,-4.46,-4.02,-3.90,-2.64,-2.63,-2.65
395.77,1.82,4.48,1.82,4.48,-4.48,-4.05,-3.95,-2.66,-2.66,-2.66
399.73,1.82,4.49,1.82,4.49,-4.50,-4.07,-4.01,-2.68,-2.68,-2.67
403.72,1.82,4.50,1.82,4.51,-4.51,-4.09,-4.07,-2.70,-2.70,-2.68
407.76,1.82,4.52,1.82,4.52,-4.52,-4.12,-4.13,-2.70,-2.71,-2.70
411.84,1.81,4.52,1.81,4.53,-4.53,-4.14,-4.19,-2.72,-2.71,-2.71
415.96,1.81,4.53,1.81,4.53,-4.53,-4.16,-4.26,-2.73,-2.73,-2.72
420.12,1.81,4.54,1.81,4.54,-4.55,-4.18,-4.32,-2.74,-2.74,-2.73
424.32,1.82,4.55,1.82,4.55,-4.56,-4.20,-4.38,-2.74,-2.74,-2.73
428.56,1.83,4.56,1.83,4.56,-4.56,-4.22,-4.44,-2.74,-2.74,-2.73
432.85,1.84,4.56,1.84,4.56,-4.57,-4.24,-4.50,-2.73,-2.72,-2.72
437.18,1.87,4.57,1.87,4.58,-4.57,-4.26,-4.56,-2.70,-2.69,-2.70
441.55,1.90,4.58,1.91,4.59,-4.57,-4.27,-4.62,-2.67,-2.66,-2.68
