frequency,raw,error,smoothed,error_smoothed,equalization,parametric_eq,fixed_band_eq,equalized_raw,equalized_smoothed,target
20.00,-2.86,-4.26,-2.87,-4.26,4.26,4.06,1.62,1.40,1.40,1.40
20.20,-2.84,-4.25,-2.84,-4.25,4.25,4.06,1.67,1.40,1.41,1.41
20.40,-2.82,-4.24,-2.82,-4.23,4.23,4.07,1.72,1.41,1.41,1.42
20.61,-2.79,-4.21,-2.80,-4.22,4.22,4.07,1.78,1.42,1.42,1.42
20.81,-2.77,-4.20,-2.77,-4.20,4.20,4.08,1.83,1.43,1.43,1.43
21.02,-2.75,-4.18,-2.75,-4.18,4.18,4.08,1.89,1.43,1.43,1.43
21.23,-2.73,-4.17,-2.73,-4.17,4.17,4.08,1.94,1.43,1.43,1.44
21.44,-2.71,-4.15,-2.71,-4.14,4.15,4.08,2.00,1.43,1.44,1.44
21.66,-2.68,-4.12,-2.69,-4.12,4.12,4.08,2.06,1.44,1.44,1.44
21.87,-2.66,-4.10,-2.66,-4.10,4.10,4.08,2.13,1.44,1.44,1.44
22.09,-2.64,-4.09,-2.64,-4.09,4.08,4.08,2.19,1.43,1.43,1.44
22.31,-2.62,-4.07,-2.62,-4.06,4.05,4.07,2.26,1.43,1.43,1.44
22.54,-2.60,-4.04,-2.60,-4.03,4.03,4.07,2.32,1.43,1.43,1.43
22.76,-2.57,-4.00,-2.58,-4.01,4.01,4.07,2.39,1.44,1.44,1.42
22.99,-2.55,-3.98,-2.56,-3.98,4.00,4.06,2.47,1.44,1.43,1.42
23.22,-2.55,-3.98,-2.55,-3.97,3.98,4.05,2.54,1.43,1.43,1.42
23.45,-2.55,-3.97,-2.55,-3.97,3.97,4.05,2.61,1.42,1.42,1.41
23.69,-2.55,-3.97,-2.55,-3.97,3.97,4.04,2.69,1.42,1.42,1.41
23.92,-2.55,-3.97,-2.55,-3.97,3.97,4.03,2.77,1.42,1.42,1.41
24.16,-2.55,-3.97,-2.55,-3.97,3.97,4.02,2.85,1.42,1.42,1.41
24.40,-2.55,-3.97,-2.56,-3.97,3.96,4.01,2.93,1.41,1.41,1.41
24.65,-2.55,-3.96,-2.56,-3.97,3.95,4.00,3.01,1.39,1.39,1.41
24.89,-2.55,-3.96,-2.54,-3.95,3.93,3.99,3.09,1.37,1.38,1.41
25.14,-2.52,-3.93,-2.52,-3.93,3.90,3.97,3.18,1.38,1.38,1.41
25.39,-2.47,-3.87,-2.48,-3.88,3.87,3.96,3.26,1.40,1.40,1.40
25.65,-2.43,-3.83,-2.43,-3.83,3.84,3.95,3.35,1.41,1.41,1.40
25.91,-2.38,-3.78,-2.39,-3.79,3.81,3.93,3.43,1.43,1.42,1.40
26.16,-2.36,-3.76,-2.37,-3.77,3.79,3.92,3.52,1.42,1.42,1.40
26.43,-2.36,-3.76,-2.36,-3.75,3.77,3.90,3.60,1.40,1.41,1.40
26.69,-2.35,-3.75,-2.36,-3.75,3.75,3.89,3.69,1.40,1.40,1.40
26.96,-2.35,-3.75,-2.35,-3.75,3.74,3.87,3.77,1.39,1.39,1.40
27.23,-2.35,-3.75,-2.35,-3.75,3.74,3.86,3.85,1.39,1.39,1.40
27.50,-2.35,-3.75,-2.35,-3.75,3.74,3.84,3.93,1.39,1.39,1.39
27.77,-2.35,-3.75,-2.35,-3.75,3.74,3.82,4.01,1.39,1.39,1.39
28.05,-2.35,-3.75,-2.35,-3.75,3.75,3.80,4.08,1.39,1.39,1.39
28.33,-2.35,-3.75,-2.35,-3.75,3.75,3.78,4.16,1.40,1.40,1.39
28.62,-2.35,-3.75,-2.35,-3.75,3.75,3.77,4.22,1.40,1.40,1.39
28.90,-2.35,-3.75,-2.35,-3.75,3.76,3.75,4.29,1.40,1.40,1.40
29.19,-2.35,-3.75,-2.35,-3.75,3.76,3.73,4.35,1.40,1.40,1.40
29.48,-2.35,-3.75,-2.36,-3.76,3.75,3.71,4.40,1.40,1.39,1.40
29.78,-2.35,-3.76,-2.35,-3.76,3.74,3.69,4.45,1.39,1.39,1.41
30.08,-2.34,-3.75,-2.34,-3.74,3.73,3.67,4.49,1.39,1.39,1.41
30.38,-2.31,-3.72,-2.31,-3.72,3.72,3.65,4.53,1.40,1.40,1.41
30.68,-2.28,-3.69,-2.29,-3.69,3.70,3.63,4.56,1.41,1.41,1.40
30.99,-2.25,-3.66,-2.26,-3.66,3.68,3.61,4.59,1.42,1.42,1.40
31.30,-2.24,-3.65,-2.24,-3.65,3.65,3.59,4.60,1.41,1.41,1.40
31.61,-2.23,-3.63,-2.23,-3.63,3.63,3.58,4.62,1.40,1.40,1.40
31.93,-2.22,-3.62,-2.22,-3.62,3.61,3.56,4.62,1.38,1.39,1.40
32.24,-2.20,-3.59,-2.20,-3.60,3.59,3.54,4.62,1.38,1.38,1.39
32.57,-2.18,-3.57,-2.18,-3.57,3.57,3.52,4.61,1.39,1.39,1.39
32.89,-2.16,-3.55,-2.17,-3.55,3.55,3.50,4.60,1.39,1.39,1.39
33.22,-2.15,-3.53,-2.16,-3.53,3.54,3.48,4.58,1.39,1.38,1.37
33.55,-2.15,-3.53,-2.15,-3.52,3.53,3.47,4.56,1.37,1.38,1.37
33.89,-2.15,-3.51,-2.15,-3.52,3.52,3.45,4.53,1.36,1.37,1.36
34.23,-2.15,-3.51,-2.15,-3.51,3.51,3.43,4.50,1.36,1.36,1.36
34.57,-2.15,-3.51,-2.15,-3.51,3.51,3.42,4.46,1.35,1.35,1.36
34.92,-2.15,-3.51,-2.15,-3.51,3.51,3.40,4.42,1.35,1.35,1.35
35.27,-2.15,-3.51,-2.15,-3.51,3.50,3.39,4.38,1.35,1.35,1.35
35.62,-2.15,-3.50,-2.15,-3.50,3.50,3.37,4.34,1.35,1.35,1.35
35.97,-2.15,-3.50,-2.15,-3.50,3.50,3.36,4.29,1.35,1.35,1.35
36.33,-2.15,-3.50,-2.15,-3.50,3.50,3.34,4.24,1.35,1.35,1.35
36.70,-2.15,-3.50,-2.15,-3.50,3.50,3.33,4.19,1.35,1.35,1.34
37.06,-2.15,-3.50,-2.15,-3.50,3.50,3.32,4.14,1.34,1.34,1.34
37.43,-2.15,-3.49,-2.15,-3.50,3.50,3.31,4.09,1.34,1.34,1.34
37.81,-2.15,-3.50,-2.15,-3.50,3.50,3.30,4.04,1.34,1.34,1.35
38.19,-2.15,-3.50,-2.15,-3.50,3.50,3.29,4.00,1.34,1.34,1.34
38.57,-2.15,-3.50,-2.15,-3.50,3.50,3.29,3.95,1.34,1.34,1.34
38.95,-2.15,-3.50,-2.15,-3.50,3.50,3.28,3.90,1.34,1.34,1.35
39.34,-2.15,-3.50,-2.15,-3.50,3.50,3.28,3.85,1.34,1.34,1.35
39.74,-2.15,-3.50,-2.15,-3.50,3.50,3.27,3.81,1.34,1.34,1.34
40.14,-2.15,-3.49,-2.15,-3.49,3.49,3.27,3.77,1.34,1.34,1.34
40.54,-2.15,-3.49,-2.15,-3.49,3.49,3.27,3.73,1.34,1.34,1.34
40.94,-2.15,-3.49,-2.15,-3.49,3.49,3.27,3.69,1.33,1.33,1.33
41.35,-2.15,-3.48,-2.15,-3.48,3.48,3.27,3.66,1.33,1.33,1.33
41.76,-2.15,-3.47,-2.15,-3.47,3.47,3.28,3.62,1.32,1.32,1.32
42.18,-2.15,-3.47,-2.15,-3.47,3.47,3.28,3.59,1.31,1.31,1.31
42.60,-2.15,-3.46,-2.15,-3.46,3.46,3.29,3.56,1.31,1.31,1.31
43.03,-2.15,-3.46,-2.15,-3.46,3.45,3.30,3.54,1.30,1.30,1.30
43.46,-2.15,-3.45,-2.15,-3.45,3.44,3.31,3.52,1.29,1.29,1.30
43.90,-2.15,-3.44,-2.15,-3.44,3.43,3.32,3.50,1.28,1.28,1.28
44.33,-2.15,-3.43,-2.15,-3.43,3.43,3.34,3.48,1.27,1.27,1.28
44.78,-2.15,-3.43,-2.15,-3.42,3.43,3.35,3.47,1.28,1.28,1.27
45.23,-2.15,-3.42,-2.15,-3.42,3.44,3.37,3.46,1.28,1.29,1.27
45.68,-2.15,-3.42,-2.16,-3.42,3.45,3.39,3.45,1.29,1.29,1.26
46.13,-2.17,-3.44,-2.18,-3.45,3.47,3.41,3.44,1.29,1.28,1.27
46.60,-2.22,-3.49,-2.22,-3.49,3.49,3.44,3.44,1.27,1.27,1.26
47.06,-2.27,-3.54,-2.26,-3.53,3.52,3.46,3.44,1.24,1.26,1.27
47.53,-2.29,-3.57,-2.29,-3.56,3.55,3.49,3.44,1.25,1.26,1.27
48.01,-2.30,-3.58,-2.31,-3.59,3.58,3.52,3.45,1.27,1.26,1.27
48.49,-2.32,-3.60,-2.33,-3.61,3.60,3.55,3.45,1.28,1.27,1.28
48.97,-2.35,-3.64,-2.34,-3.63,3.62,3.59,3.46,1.27,1.28,1.28
49.46,-2.35,-3.64,-2.35,-3.64,3.64,3.62,3.47,1.29,1.28,1.28
49.96,-2.35,-3.65,-2.36,-3.65,3.65,3.65,3.48,1.30,1.29,1.30
50.46,-2.35,-3.65,-2.35,-3.66,3.66,3.69,3.50,1.30,1.30,1.30
50.96,-2.35,-3.67,-2.35,-3.66,3.66,3.73,3.52,1.31,1.31,1.31
51.47,-2.35,-3.67,-2.35,-3.67,3.67,3.76,3.53,1.32,1.32,1.31
51.99,-2.35,-3.67,-2.36,-3.67,3.67,3.80,3.55,1.32,1.31,1.31
52.51,-2.36,-3.68,-2.36,-3.68,3.67,3.83,3.57,1.31,1.31,1.32
53.03,-2.36,-3.68,-2.36,-3.68,3.67,3.87,3.59,1.31,1.31,1.32
53.56,-2.35,-3.67,-2.36,-3.68,3.67,3.90,3.61,1.31,1.31,1.32
54.10,-2.35,-3.68,-2.35,-3.68,3.66,3.93,3.63,1.31,1.31,1.33
54.64,-2.35,-3.68,-2.35,-3.68,3.67,3.96,3.65,1.31,1.32,1.33
55.18,-2.35,-3.68,-2.35,-3.67,3.68,3.98,3.66,1.32,1.33,1.33
55.74,-2.35,-3.67,-2.36,-3.68,3.70,4.00,3.68,1.34,1.34,1.32
56.29,-2.38,-3.70,-2.39,-3.70,3.73,4.01,3.69,1.35,1.34,1.32
56.86,-2.44,-3.76,-2.45,-3.76,3.79,4.02,3.71,1.34,1.34,1.31
57.42,-2.54,-3.85,-2.54,-3.84,3.86,4.03,3.72,1.32,1.32,1.30
58.00,-2.65,-3.94,-2.65,-3.94,3.96,4.02,3.73,1.31,1.31,1.29
58.58,-2.76,-4.04,-2.76,-4.04,4.07,4.01,3.73,1.31,1.31,1.28
59.16,-2.87,-4.14,-2.88,-4.14,4.18,4.00,3.73,1.31,1.30,1.26
59.76,-3.00,-4.25,-3.03,-4.27,4.28,3.98,3.73,1.27,1.25,1.25
60.35,-3.15,-4.38,-3.17,-4.40,4.35,3.95,3.73,1.20,1.18,1.23
60.96,-3.32,-4.52,-3.28,-4.48,4.39,3.91,3.72,1.07,1.12,1.20
61.57,-3.31,-4.49,-3.31,-4.48,4.40,3.87,3.70,1.09,1.10,1.18
62.18,-3.26,-4.40,-3.26,-4.40,4.37,3.82,3.69,1.11,1.12,1.14
62.80,-3.14,-4.25,-3.18,-4.28,4.30,3.77,3.66,1.15,1.12,1.10
63.43,-3.08,-4.14,-3.10,-4.16,4.18,3.71,3.64,1.09,1.08,1.06
64.07,-3.04,-4.07,-3.01,-4.03,4.02,3.64,3.61,0.98,1.01,1.02
64.71,-2.90,-3.88,-2.90,-3.88,3.84,3.57,3.57,0.94,0.94,0.97
65.35,-2.74,-3.68,-2.74,-3.68,3.65,3.50,3.53,0.91,0.91,0.94
66.01,-2.55,-3.45,-2.55,-3.44,3.46,3.43,3.49,0.91,0.92,0.90
66.67,-2.36,-3.22,-2.38,-3.24,3.28,3.35,3.44,0.92,0.90,0.86
67.33,-2.22,-3.05,-2.24,-3.07,3.11,3.27,3.39,0.89,0.87,0.83
68.01,-2.15,-2.94,-2.14,-2.93,2.95,3.19,3.34,0.80,0.81,0.79
68.69,-2.06,-2.82,-2.05,-2.81,2.81,3.10,3.28,0.75,0.76,0.76
69.37,-1.97,-2.70,-1.97,-2.70,2.70,3.02,3.22,0.73,0.73,0.73
70.07,-1.88,-2.58,-1.90,-2.60,2.61,2.94,3.16,0.73,0.71,0.69
70.77,-1.86,-2.53,-1.86,-2.53,2.55,2.86,3.10,0.68,0.68,0.66
71.48,-1.85,-2.49,-1.85,-2.49,2.49,2.78,3.03,0.64,0.64,0.64
72.19,-1.85,-2.46,-1.85,-2.46,2.44,2.70,2.96,0.59,0.59,0.61
72.91,-1.85,-2.43,-1.85,-2.43,2.40,2.62,2.90,0.55,0.55,0.57
73.64,-1.85,-2.39,-1.85,-2.39,2.36,2.54,2.83,0.51,0.51,0.54
74.38,-1.85,-2.36,-1.85,-2.35,2.33,2.46,2.75,0.48,0.48,0.50
75.12,-1.85,-2.32,-1.85,-2.31,2.31,2.39,2.68,0.46,0.46,0.47
75.87,-1.85,-2.27,-1.86,-2.28,2.30,2.32,2.61,0.45,0.44,0.42
76.63,-1.87,-2.26,-1.88,-2.26,2.30,2.24,2.54,0.42,0.42,0.38
77.40,-1.91,-2.25,-1.91,-2.25,2.30,2.18,2.47,0.39,0.39,0.33
78.17,-1.97,-2.27,-1.98,-2.28,2.31,2.11,2.40,0.33,0.32,0.30
78.95,-2.05,-2.30,-2.06,-2.31,2.31,2.04,2.33,0.25,0.24,0.25
79.74,-2.15,-2.36,-2.13,-2.33,2.29,1.98,2.26,0.14,0.16,0.21
80.54,-2.17,-2.33,-2.17,-2.33,2.27,1.92,2.19,0.09,0.09,0.16
81.35,-2.15,-2.27,-2.16,-2.28,2.22,1.86,2.12,0.07,0.06,0.12
82.16,-2.13,-2.21,-2.11,-2.18,2.16,1.80,2.05,0.02,0.05,0.07
82.98,-2.01,-2.05,-2.04,-2.07,2.07,1.74,1.99,0.06,0.03,0.03
83.81,-1.96,-1.95,-1.95,-1.95,1.97,1.69,1.92,0.00,0.01,-0.01
84.65,-1.87,-1.83,-1.87,-1.82,1.85,1.64,1.86,-0.02,-0.01,-0.04
85.50,-1.79,-1.71,-1.81,-1.73,1.74,1.59,1.79,-0.05,-0.07,-0.09
86.35,-1.75,-1.62,-1.75,-1.62,1.64,1.54,1.73,-0.12,-0.11,-0.13
87.22,-1.73,-1.56,-1.71,-1.54,1.55,1.49,1.67,-0.19,-0.16,-0.17
88.09,-1.65,-1.44,-1.68,-1.46,1.47,1.44,1.61,-0.18,-0.21,-0.22
88.97,-1.65,-1.40,-1.65,-1.39,1.40,1.40,1.55,-0.25,-0.25,-0.25
89.86,-1.64,-1.34,-1.64,-1.34,1.35,1.36,1.49,-0.30,-0.29,-0.30
90.76,-1.64,-1.30,-1.64,-1.30,1.30,1.31,1.44,-0.35,-0.35,-0.35
91.66,-1.64,-1.26,-1.64,-1.26,1.25,1.27,1.38,-0.39,-0.39,-0.38
92.58,-1.64,-1.22,-1.64,-1.22,1.21,1.23,1.33,-0.43,-0.43,-0.42
93.51,-1.64,-1.18,-1.64,-1.18,1.17,1.20,1.28,-0.47,-0.47,-0.47
94.44,-1.64,-1.14,-1.64,-1.14,1.14,1.16,1.22,-0.51,-0.51,-0.50
95.39,-1.64,-1.10,-1.65,-1.10,1.10,1.12,1.17,-0.54,-0.54,-0.54
96.34,-1.65,-1.07,-1.65,-1.07,1.07,1.09,1.13,-0.58,-0.58,-0.58
97.30,-1.65,-1.03,-1.66,-1.03,1.04,1.05,1.08,-0.62,-0.62,-0.62
98.28,-1.66,-1.00,-1.67,-1.00,1.01,1.02,1.03,-0.66,-0.66,-0.67
99.26,-1.68,-0.98,-1.68,-0.97,0.98,0.99,0.98,-0.71,-0.70,-0.71
100.25,-1.69,-0.95,-1.70,-0.95,0.95,0.96,0.94,-0.75,-0.75,-0.75
101.25,-1.71,-0.93,-1.71,-0.92,0.92,0.93,0.89,-0.80,-0.79,-0.78
102.27,-1.72,-0.89,-1.73,-0.89,0.89,0.90,0.85,-0.83,-0.83,-0.83
103.29,-1.74,-0.86,-1.74,-0.86,0.87,0.87,0.81,-0.88,-0.88,-0.88
104.32,-1.76,-0.83,-1.76,-0.83,0.84,0.84,0.77,-0.92,-0.92,-0.93
105.37,-1.78,-0.81,-1.78,-0.81,0.82,0.81,0.73,-0.97,-0.97,-0.97
106.42,-1.80,-0.78,-1.81,-0.79,0.78,0.78,0.69,-1.02,-1.02,-1.02
107.48,-1.83,-0.76,-1.84,-0.77,0.75,0.76,0.65,-1.09,-1.09,-1.07
108.56,-1.85,-0.73,-1.85,-0.73,0.71,0.73,0.61,-1.14,-1.14,-1.12
109.64,-1.87,-0.70,-1.85,-0.68,0.67,0.71,0.58,-1.20,-1.18,-1.17
110.74,-1.82,-0.62,-1.84,-0.63,0.63,0.68,0.54,-1.19,-1.21,-1.21
111.85,-1.81,-0.57,-1.82,-0.57,0.59,0.66,0.51,-1.22,-1.23,-1.25
112.97,-1.82,-0.54,-1.82,-0.53,0.55,0.63,0.47,-1.28,-1.27,-1.29
114.10,-1.82,-0.50,-1.83,-0.50,0.51,0.61,0.44,-1.32,-1.32,-1.32
115.24,-1.83,-0.48,-1.83,-0.47,0.47,0.59,0.41,-1.36,-1.36,-1.35
116.39,-1.82,-0.43,-1.83,-0.44,0.44,0.56,0.38,-1.39,-1.39,-1.39
117.55,-1.82,-0.42,-1.83,-0.41,0.41,0.54,0.35,-1.41,-1.42,-1.41
118.73,-1.82,-0.39,-1.82,-0.39,0.38,0.52,0.32,-1.44,-1.44,-1.44
119.92,-1.81,-0.36,-1.81,-0.36,0.36,0.50,0.29,-1.45,-1.45,-1.45
121.12,-1.80,-0.33,-1.81,-0.33,0.34,0.48,0.26,-1.47,-1.47,-1.47
122.33,-1.79,-0.31,-1.80,-0.31,0.31,0.46,0.23,-1.48,-1.49,-1.49
123.55,-1.79,-0.29,-1.79,-0.29,0.29,0.44,0.21,-1.51,-1.50,-1.50
124.79,-1.78,-0.27,-1.78,-0.27,0.27,0.42,0.18,-1.52,-1.52,-1.52
126.03,-1.77,-0.24,-1.78,-0.25,0.24,0.39,0.16,-1.53,-1.53,-1.53
127.29,-1.77,-0.23,-1.77,-0.22,0.22,0.37,0.14,-1.55,-1.55,-1.55
128.57,-1.76,-0.20,-1.76,-0.20,0.20,0.36,0.11,-1.56,-1.56,-1.56
129.85,-1.75,-0.18,-1.76,-0.18,0.18,0.34,0.09,-1.57,-1.58,-1.57
131.15,-1.75,-0.17,-1.75,-0.16,0.16,0.32,0.07,-1.59,-1.59,-1.59
132.46,-1.74,-0.13,-1.75,-0.14,0.14,0.30,0.05,-1.61,-1.61,-1.61
133.79,-1.74,-0.12,-1.74,-0.12,0.11,0.28,0.03,-1.63,-1.63,-1.62
135.12,-1.74,-0.10,-1.74,-0.10,0.09,0.26,0.01,-1.65,-1.64,-1.64
136.48,-1.73,-0.08,-1.74,-0.08,0.08,0.24,-0.01,-1.66,-1.66,-1.65
137.84,-1.73,-0.06,-1.73,-0.06,0.07,0.22,-0.03,-1.67,-1.67,-1.67
139.22,-1.73,-0.04,-1.73,-0.04,0.06,0.20,-0.04,-1.68,-1.67,-1.69
140.61,-1.73,-0.02,-1.74,-0.03,0.05,0.18,-0.06,-1.69,-1.70,-1.71
142.02,-1.76,-0.03,-1.77,-0.04,0.04,0.16,-0.08,-1.73,-1.73,-1.73
143.44,-1.81,-0.05,-1.80,-0.04,0.03,0.14,-0.10,-1.78,-1.77,-1.76
144.87,-1.83,-0.05,-1.83,-0.04,0.02,0.12,-0.11,-1.81,-1.80,-1.79
146.32,-1.83,-0.02,-1.83,-0.02,0.01,0.10,-0.13,-1.82,-1.82,-1.81
147.78,-1.83,0.02,-1.84,0.01,-0.00,0.08,-0.15,-1.84,-1.84,-1.85
149.26,-1.84,0.04,-1.86,0.03,-0.02,0.06,-0.16,-1.87,-1.88,-1.89
150.75,-1.89,0.04,-1.89,0.05,-0.05,0.04,-0.18,-1.95,-1.94,-1.93
152.26,-1.92,0.06,-1.92,0.07,-0.09,0.02,-0.19,-2.01,-2.00,-1.99
153.78,-1.93,0.11,-1.93,0.11,-0.12,-0.00,-0.21,-2.06,-2.05,-2.04
155.32,-1.93,0.17,-1.93,0.17,-0.16,-0.03,-0.23,-2.09,-2.09,-2.10
156.88,-1.92,0.23,-1.93,0.23,-0.20,-0.05,-0.24,-2.12,-2.13,-2.15
158.44,-1.93,0.28,-1.96,0.26,-0.25,-0.07,-0.26,-2.18,-2.21,-2.22
160.03,-2.00,0.26,-1.99,0.28,-0.29,-0.10,-0.28,-2.30,-2.28,-2.27
161.63,-2.02,0.29,-2.00,0.31,-0.34,-0.12,-0.29,-2.36,-2.34,-2.31
163.24,-1.99,0.37,-1.99,0.37,-0.38,-0.15,-0.31,-2.37,-2.37,-2.36
164.88,-1.93,0.46,-1.96,0.43,-0.41,-0.17,-0.33,-2.35,-2.37,-2.39
166.53,-1.94,0.47,-1.94,0.48,-0.44,-0.20,-0.35,-2.39,-2.38,-2.42
168.19,-1.94,0.49,-1.95,0.49,-0.47,-0.23,-0.37,-2.42,-2.42,-2.44
169.87,-1.95,0.49,-1.95,0.49,-0.50,-0.25,-0.38,-2.45,-2.45,-2.45
171.57,-1.96,0.49,-1.94,0.51,-0.52,-0.28,-0.40,-2.48,-2.46,-2.45
173.29,-1.90,0.55,-1.92,0.53,-0.54,-0.31,-0.42,-2.44,-2.46,-2.45
175.02,-1.87,0.56,-1.89,0.55,-0.55,-0.35,-0.44,-2.43,-2.44,-2.44
176.77,-1.87,0.55,-1.86,0.56,-0.57,-0.38,-0.46,-2.44,-2.43,-2.42
178.54,-1.83,0.57,-1.83,0.58,-0.59,-0.42,-0.48,-2.42,-2.42,-2.41
180.32,-1.78,0.60,-1.77,0.61,-0.61,-0.45,-0.50,-2.40,-2.39,-2.38
182.13,-1.70,0.66,-1.71,0.65,-0.64,-0.49,-0.52,-2.34,-2.35,-2.37
183.95,-1.65,0.69,-1.67,0.68,-0.66,-0.53,-0.55,-2.31,-2.33,-2.34
185.79,-1.64,0.69,-1.64,0.70,-0.69,-0.58,-0.57,-2.33,-2.33,-2.34
187.65,-1.62,0.71,-1.61,0.72,-0.72,-0.62,-0.59,-2.34,-2.33,-2.33
189.52,-1.58,0.74,-1.58,0.75,-0.76,-0.67,-0.61,-2.34,-2.33,-2.32
191.42,-1.51,0.81,-1.53,0.79,-0.80,-0.72,-0.64,-2.32,-2.34,-2.32
193.33,-1.48,0.83,-1.49,0.83,-0.85,-0.77,-0.66,-2.33,-2.34,-2.32
195.27,-1.45,0.86,-1.43,0.89,-0.90,-0.83,-0.68,-2.35,-2.33,-2.32
197.22,-1.37,0.96,-1.36,0.96,-0.96,-0.88,-0.71,-2.33,-2.32,-2.33
199.19,-1.27,1.06,-1.30,1.03,-1.02,-0.94,-0.73,-2.29,-2.32,-2.33
201.18,-1.23,1.11,-1.25,1.09,-1.08,-1.01,-0.76,-2.32,-2.33,-2.34
203.19,-1.23,1.12,-1.21,1.14,-1.14,-1.07,-0.78,-2.38,-2.35,-2.35
205.23,-1.17,1.19,-1.17,1.19,-1.20,-1.13,-0.80,-2.37,-2.36,-2.36
207.28,-1.10,1.27,-1.11,1.26,-1.25,-1.20,-0.83,-2.35,-2.36,-2.37
209.35,-1.05,1.33,-1.06,1.32,-1.30,-1.27,-0.85,-2.36,-2.36,-2.38
211.44,-1.02,1.38,-1.04,1.35,-1.35,-1.33,-0.88,-2.38,-2.40,-2.40
213.56,-1.03,1.37,-1.03,1.38,-1.41,-1.39,-0.90,-2.44,-2.44,-2.41
215.69,-1.04,1.38,-1.00,1.42,-1.45,-1.45,-0.93,-2.50,-2.46,-2.43
217.85,-0.94,1.49,-0.95,1.48,-1.49,-1.50,-0.95,-2.44,-2.45,-2.43
220.03,-0.87,1.58,-0.89,1.56,-1.53,-1.55,-0.98,-2.41,-2.42,-2.45
222.23,-0.84,1.62,-0.85,1.61,-1.57,-1.59,-1.00,-2.41,-2.41,-2.46
224.45,-0.84,1.62,-0.84,1.63,-1.60,-1.62,-1.02,-2.45,-2.44,-2.47
226.70,-0.84,1.63,-0.85,1.63,-1.64,-1.65,-1.04,-2.49,-2.49,-2.47
228.96,-0.84,1.64,-0.85,1.63,-1.68,-1.66,-1.06,-2.52,-2.52,-2.48
231.25,-0.83,1.64,-0.81,1.67,-1.70,-1.66,-1.09,-2.54,-2.52,-2.48
233.57,-0.77,1.71,-0.77,1.71,-1.71,-1.65,-1.10,-2.49,-2.48,-2.48
235.90,-0.69,1.78,-0.72,1.76,-1.72,-1.64,-1.12,-2.41,-2.44,-2.48
238.26,-0.69,1.78,-0.69,1.78,-1.73,-1.61,-1.14,-2.42,-2.42,-2.47
240.64,-0.68,1.78,-0.70,1.76,-1.74,-1.58,-1.16,-2.42,-2.44,-2.46
243.05,-0.73,1.72,-0.73,1.72,-1.75,-1.54,-1.17,-2.48,-2.48,-2.46
245.48,-0.77,1.68,-0.75,1.70,-1.75,-1.50,-1.19,-2.52,-2.49,-2.45
247.93,-0.73,1.71,-0.74,1.70,-1.75,-1.46,-1.20,-2.48,-2.49,-2.45
250.41,-0.71,1.73,-0.71,1.73,-1.74,-1.41,-1.21,-2.45,-2.45,-2.44
252.92,-0.68,1.75,-0.68,1.76,-1.72,-1.37,-1.22,-2.41,-2.40,-2.43
255.45,-0.67,1.77,-0.69,1.75,-1.71,-1.32,-1.23,-2.39,-2.41,-2.44
258.00,-0.70,1.74,-0.73,1.71,-1.70,-1.27,-1.24,-2.41,-2.43,-2.44
260.58,-0.80,1.64,-0.75,1.70,-1.69,-1.23,-1.25,-2.50,-2.44,-2.45
263.19,-0.79,1.66,-0.79,1.66,-1.68,-1.19,-1.25,-2.48,-2.47,-2.45
265.82,-0.76,1.69,-0.84,1.62,-1.66,-1.15,-1.26,-2.42,-2.50,-2.46
268.48,-0.91,1.54,-0.86,1.60,-1.62,-1.11,-1.26,-2.53,-2.48,-2.46
271.16,-0.92,1.54,-0.89,1.58,-1.57,-1.07,-1.27,-2.49,-2.45,-2.46
273.87,-0.87,1.59,-0.92,1.55,-1.51,-1.03,-1.27,-2.39,-2.43,-2.47
276.61,-0.94,1.52,-0.96,1.51,-1.45,-1.00,-1.27,-2.39,-2.41,-2.47
279.38,-1.06,1.41,-1.07,1.40,-1.37,-0.96,-1.27,-2.44,-2.44,-2.47
282.17,-1.22,1.24,-1.22,1.25,-1.29,-0.93,-1.27,-2.51,-2.50,-2.47
284.99,-1.34,1.11,-1.32,1.15,-1.19,-0.90,-1.27,-2.53,-2.50,-2.46
287.84,-1.40,1.06,-1.37,1.09,-1.08,-0.86,-1.27,-2.48,-2.45,-2.46
290.72,-1.39,1.06,-1.45,1.00,-0.97,-0.83,-1.28,-2.37,-2.42,-2.45
293.63,-1.51,0.93,-1.57,0.87,-0.87,-0.79,-1.28,-2.38,-2.44,-2.45
296.57,-1.76,0.67,-1.69,0.75,-0.77,-0.75,-1.28,-2.54,-2.46,-2.44
299.53,-1.83,0.61,-1.78,0.66,-0.69,-0.71,-1.28,-2.52,-2.47,-2.44
302.53,-1.77,0.66,-1.84,0.59,-0.62,-0.66,-1.28,-2.39,-2.46,-2.43
305.55,-1.85,0.58,-1.88,0.55,-0.55,-0.61,-1.28,-2.40,-2.43,-2.44
308.61,-1.99,0.44,-1.96,0.48,-0.47,-0.55,-1.28,-2.47,-2.43,-2.44
311.69,-2.05,0.39,-2.04,0.41,-0.40,-0.49,-1.29,-2.46,-2.44,-2.44
314.81,-2.08,0.37,-2.09,0.36,-0.33,-0.42,-1.29,-2.42,-2.43,-2.45
317.96,-2.11,0.34,-2.13,0.32,-0.27,-0.34,-1.29,-2.38,-2.40,-2.45
321.14,-2.21,0.25,-2.21,0.25,-0.21,-0.27,-1.30,-2.43,-2.42,-2.47
324.35,-2.29,0.17,-2.31,0.16,-0.16,-0.19,-1.30,-2.46,-2.48,-2.47
327.59,-2.42,0.05,-2.40,0.08,-0.13,-0.13,-1.31,-2.55,-2.53,-2.48
330.87,-2.45,0.04,-2.44,0.05,-0.11,-0.10,-1.32,-2.57,-2.55,-2.49
334.18,-2.42,0.08,-2.43,0.07,-0.12,-0.09,-1.33,-2.54,-2.54,-2.50
337.52,-2.36,0.15,-2.38,0.13,-0.14,-0.11,-1.34,-2.50,-2.52,-2.51
340.90,-2.31,0.20,-2.32,0.20,-0.18,-0.17,-1.35,-2.50,-2.50,-2.51
344.30,-2.27,0.25,-2.26,0.27,-0.25,-0.24,-1.36,-2.52,-2.51,-2.53
347.75,-2.20,0.34,-2.21,0.33,-0.33,-0.33,-1.37,-2.53,-2.54,-2.55
351.23,-2.14,0.41,-2.14,0.42,-0.41,-0.43,-1.39,-2.56,-2.56,-2.56
354.74,-2.07,0.50,-2.07,0.50,-0.50,-0.52,-1.40,-2.57,-2.57,-2.57
358.28,-1.99,0.59,-2.00,0.58,-0.58,-0.61,-1.42,-2.57,-2.58,-2.58
361.87,-1.93,0.66,-1.94,0.66,-0.66,-0.69,-1.43,-2.59,-2.59,-2.59
365.49,-1.87,0.74,-1.88,0.73,-0.73,-0.76,-1.45,-2.60,-2.61,-2.61
369.14,-1.85,0.77,-1.83,0.79,-0.79,-0.83,-1.47,-2.64,-2.62,-2.62
372.83,-1.77,0.86,-1.78,0.85,-0.84,-0.89,-1.49,-2.62,-2.63,-2.64
376.56,-1.73,0.91,-1.75,0.90,-0.89,-0.94,-1.51,-2.62,-2.63,-2.65
380.33,-1.72,0.93,-1.72,0.94,-0.92,-1.00,-1.53,-2.64,-2.64,-2.66
384.13,-1.72,0.94,-1.72,0.95,-0.94,-1.04,-1.56,-2.67,-2.66,-2.67
387.97,-1.71,0.96,-1.72,0.96,-0.96,-1.09,-1.58,-2.68,-2.68,-2.68
391.85,-1.71,0.98,-1.71,0.98,-0.98,-1.13,-1.61,-2.69,-2.69,-2.69
395.77,-1.71,0.99,-1.71,0.99,-1.00,-1.17,-1.63,-2.71,-2.71,-2.70
399.73,-1.71,1.00,-1.72,0.99,-1.01,-1.20,-1.66,-2.73,-2.73,-2.71
403.72,-1.71,1.01,-1.71,1.01,-1.03,-1.24,-1.69,-2.74,-2.74,-2.72
407.76,-1.71,1.03,-1.69,1.05,-1.05,-1.28,-1.71,-2.76,-2.74,-2.74
411.84,-1.65,1.10,-1.66,1.09,-1.07,-1.31,-1.74,-2.72,-2.73,-2.75
415.96,-1.62,1.14,-1.64,1.13,-1.10,-1.34,-1.77,-2.72,-2.74,-2.76
420.12,-1.62,1.14,-1.63,1.14,-1.14,-1.38,-1.80,-2.76,-2.76,-2.76
424.32,-1.61,1.16,-1.62,1.15,-1.18,-1.41,-1.83,-2.80,-2.80,-2.78
428.56,-1.60,1.17,-1.57,1.20,-1.23,-1.44,-1.86,-2.84,-2.80,-2.78
432.85,-1.50,1.26,-1.50,1.27,-1.28,-1.48,-1.89,-2.79,-2.78,-2.77
437.18,-1.37,1.38,-1.41,1.34,-1.33,-1.51,-1.92,-2.71,-2.75,-2.76
441.55,-1.32,1.41,-1.32,1.42,-1.39,-1.55,-1.94,-2.71,-2.71,-2.74
445.96,-1.27,1.44,-1.24,1.47,-1.45,-1.58,-1.97,-2.73,-2.69,-2.72
450.42,-1.14,1.54,-1.17,1.52,-1.52,-1.62,-2.00,-2.66,-2.69,-2.69
454.93,-1.07,1.57,-1.08,1.58,-1.59,-1.65,-2.03,-2.67,-2.67,-2.65
459.48,-0.98,1.62,-0.97,1.64,-1.66,-1.69,-2.05,-2.65,-2.63,-2.61
464.07,-0.86,1.72,-0.86,1.71,-1.73,-1.72,-2.08,-2.60,-2.60,-2.58
