frequency,raw,error,smoothed,error_smoothed,equalization,parametric_eq,fixed_band_eq,equalized_raw,equalized_smoothed,target
20.00,-12.82,-17.50,-12.82,-17.50,6.00,5.67,2.81,-6.82,-6.82,4.68
20.20,-12.69,-17.41,-12.70,-17.41,6.00,5.67,2.89,-6.69,-6.70,4.72
20.40,-12.57,-17.33,-12.57,-17.32,6.00,5.67,2.97,-6.57,-6.57,4.76
20.61,-12.45,-17.22,-12.44,-17.23,6.00,5.67,3.05,-6.45,-6.44,4.77
20.81,-12.31,-17.13,-12.32,-17.13,6.00,5.67,3.14,-6.31,-6.32,4.81
21.02,-12.19,-17.05,-12.19,-17.04,6.00,5.67,3.23,-6.19,-6.19,4.85
21.23,-12.06,-16.94,-12.07,-16.94,6.00,5.67,3.32,-6.06,-6.07,4.87
21.44,-11.94,-16.84,-11.94,-16.84,6.00,5.67,3.42,-5.94,-5.94,4.89
21.66,-11.82,-16.73,-11.81,-16.72,6.00,5.67,3.51,-5.82,-5.81,4.91
21.87,-11.68,-16.61,-11.69,-16.62,6.00,5.67,3.61,-5.68,-5.69,4.92
22.09,-11.56,-16.51,-11.56,-16.50,6.00,5.67,3.71,-5.56,-5.56,4.94
22.31,-11.43,-16.38,-11.43,-16.38,6.00,5.67,3.82,-5.43,-5.43,4.95
22.54,-11.31,-16.26,-11.31,-16.26,6.00,5.67,3.93,-5.31,-5.31,4.95
22.76,-11.17,-16.13,-11.17,-16.13,6.00,5.66,4.04,-5.17,-5.17,4.96
22.99,-11.04,-16.01,-11.04,-16.01,6.00,5.66,4.15,-5.04,-5.04,4.96
23.22,-10.91,-15.89,-10.91,-15.88,6.00,5.66,4.27,-4.91,-4.91,4.97
23.45,-10.78,-15.76,-10.79,-15.76,6.00,5.66,4.39,-4.78,-4.79,4.98
23.69,-10.66,-15.65,-10.65,-15.65,6.00,5.66,4.51,-4.66,-4.65,4.99
23.92,-10.52,-15.53,-10.52,-15.53,6.00,5.66,4.63,-4.52,-4.52,5.01
24.16,-10.39,-15.42,-10.39,-15.42,6.00,5.66,4.76,-4.39,-4.39,5.03
24.40,-10.26,-15.30,-10.26,-15.30,6.00,5.66,4.89,-4.26,-4.26,5.04
24.65,-10.14,-15.17,-10.13,-15.18,6.00,5.66,5.02,-4.14,-4.13,5.04
24.89,-10.00,-15.06,-10.00,-15.05,6.00,5.66,5.15,-4.00,-4.00,5.06
25.14,-9.86,-14.93,-9.87,-14.93,6.00,5.66,5.28,-3.86,-3.87,5.07
25.39,-9.73,-14.81,-9.73,-14.81,6.00,5.66,5.42,-3.73,-3.73,5.08
25.65,-9.61,-14.69,-9.60,-14.69,6.00,5.66,5.55,-3.61,-3.60,5.08
25.91,-9.48,-14.57,-9.47,-14.57,6.00,5.66,5.69,-3.48,-3.47,5.09
26.16,-9.34,-14.45,-9.34,-14.45,6.00,5.66,5.83,-3.34,-3.34,5.10
26.43,-9.21,-14.32,-9.21,-14.32,6.00,5.66,5.96,-3.21,-3.21,5.11
26.69,-9.07,-14.21,-9.08,-14.20,6.00,5.66,6.10,-3.07,-3.08,5.13
26.96,-8.95,-14.09,-8.94,-14.09,6.00,5.66,6.23,-2.95,-2.94,5.14
27.23,-8.82,-13.97,-8.81,-13.96,6.00,5.65,6.36,-2.82,-2.81,5.15
27.50,-8.68,-13.84,-8.68,-13.84,6.00,5.65,6.49,-2.68,-2.68,5.17
27.77,-8.54,-13.71,-8.54,-13.72,6.00,5.65,6.61,-2.54,-2.54,5.17
28.05,-8.41,-13.60,-8.41,-13.60,6.00,5.65,6.73,-2.41,-2.41,5.19
28.33,-8.28,-13.47,-8.28,-13.47,6.00,5.65,6.85,-2.28,-2.28,5.19
28.62,-8.16,-13.36,-8.15,-13.35,6.00,5.65,6.96,-2.16,-2.15,5.21
28.90,-8.01,-13.23,-8.02,-13.23,6.00,5.65,7.06,-2.01,-2.02,5.21
29.19,-7.89,-13.12,-7.89,-13.12,6.00,5.65,7.15,-1.89,-1.89,5.22
29.48,-7.76,-13.01,-7.76,-13.00,6.00,5.65,7.24,-1.76,-1.76,5.24
29.78,-7.64,-12.89,-7.64,-12.89,6.00,5.65,7.32,-1.64,-1.64,5.25
30.08,-7.51,-12.77,-7.51,-12.77,6.00,5.64,7.38,-1.51,-1.51,5.26
30.38,-7.39,-12.65,-7.39,-12.66,6.00,5.64,7.44,-1.39,-1.39,5.27
30.68,-7.26,-12.54,-7.27,-12.54,6.00,5.64,7.48,-1.26,-1.27,5.28
30.99,-7.15,-12.43,-7.14,-12.43,6.00,5.64,7.52,-1.15,-1.14,5.29
31.30,-7.02,-12.31,-7.02,-12.31,6.00,5.64,7.54,-1.02,-1.02,5.29
31.61,-6.88,-12.20,-6.89,-12.20,6.00,5.64,7.55,-0.88,-0.89,5.31
31.93,-6.77,-12.08,-6.76,-12.08,6.00,5.63,7.55,-0.77,-0.76,5.31
32.24,-6.64,-11.96,-6.64,-11.96,6.00,5.63,7.54,-0.64,-0.64,5.32
32.57,-6.52,-11.84,-6.52,-11.85,6.00,5.63,7.52,-0.52,-0.52,5.33
32.89,-6.39,-11.74,-6.39,-11.73,6.00,5.63,7.49,-0.39,-0.39,5.35
33.22,-6.26,-11.61,-6.27,-11.62,6.00,5.63,7.45,-0.26,-0.27,5.35
33.55,-6.14,-11.51,-6.14,-11.50,6.00,5.62,7.40,-0.14,-0.14,5.36
33.89,-6.01,-11.38,-6.02,-11.38,6.00,5.62,7.34,-0.01,-0.02,5.36
34.23,-5.90,-11.27,-5.89,-11.27,6.00,5.62,7.28,0.10,0.11,5.38
34.57,-5.76,-11.14,-5.77,-11.15,6.00,5.62,7.20,0.24,0.23,5.38
34.92,-5.65,-11.03,-5.65,-11.03,6.00,5.61,7.13,0.35,0.35,5.39
35.27,-5.53,-10.92,-5.52,-10.91,6.00,5.61,7.05,0.47,0.48,5.39
35.62,-5.40,-10.79,-5.40,-10.79,6.00,5.61,6.96,0.60,0.60,5.39
35.97,-5.27,-10.66,-5.28,-10.67,6.00,5.61,6.88,0.73,0.72,5.39
36.33,-5.15,-10.56,-5.16,-10.55,6.00,5.60,6.79,0.85,0.84,5.41
36.70,-5.05,-10.45,-5.04,-10.44,6.00,5.60,6.70,0.95,0.96,5.40
37.06,-4.92,-10.31,-4.92,-10.32,6.00,5.60,6.60,1.08,1.08,5.39
37.43,-4.80,-10.20,-4.81,-10.20,6.00,5.59,6.51,1.20,1.19,5.40
37.81,-4.69,-10.09,-4.69,-10.09,6.00,5.59,6.42,1.31,1.31,5.40
38.19,-4.58,-9.97,-4.57,-9.97,6.00,5.58,6.33,1.42,1.43,5.39
38.57,-4.45,-9.85,-4.45,-9.85,6.00,5.58,6.24,1.55,1.55,5.40
38.95,-4.33,-9.72,-4.34,-9.72,6.00,5.57,6.15,1.67,1.66,5.39
39.34,-4.22,-9.61,-4.22,-9.61,6.00,5.57,6.07,1.78,1.78,5.38
39.74,-4.12,-9.49,-4.11,-9.49,6.00,5.57,5.99,1.88,1.89,5.37
40.14,-4.01,-9.38,-4.01,-9.38,6.00,5.56,5.91,1.99,1.99,5.38
40.54,-3.90,-9.26,-3.89,-9.26,6.00,5.56,5.83,2.10,2.11,5.36
40.94,-3.78,-9.15,-3.79,-9.15,6.00,5.55,5.76,2.22,2.21,5.37
41.35,-3.67,-9.04,-3.68,-9.04,6.00,5.54,5.69,2.33,2.32,5.37
41.76,-3.57,-8.93,-3.57,-8.94,6.00,5.54,5.62,2.43,2.43,5.36
42.18,-3.46,-8.83,-3.47,-8.83,6.00,5.53,5.56,2.54,2.53,5.37
42.60,-3.36,-8.73,-3.36,-8.73,6.00,5.53,5.50,2.64,2.64,5.36
43.03,-3.25,-8.62,-3.26,-8.62,6.00,5.52,5.45,2.75,2.74,5.37
43.46,-3.15,-8.52,-3.15,-8.51,6.00,5.51,5.40,2.85,2.85,5.36
43.90,-3.05,-8.40,-3.05,-8.41,6.00,5.50,5.35,2.95,2.95,5.36
44.33,-2.94,-8.30,-2.94,-8.30,6.00,5.50,5.31,3.06,3.06,5.35
44.78,-2.85,-8.19,-2.84,-8.20,6.00,5.49,5.27,3.15,3.16,5.35
45.23,-2.75,-8.10,-2.75,-8.10,6.00,5.48,5.24,3.25,3.25,5.35
45.68,-2.66,-8.00,-2.65,-8.00,6.00,5.47,5.21,3.34,3.35,5.35
46.13,-2.55,-7.91,-2.56,-7.91,6.00,5.46,5.18,3.45,3.44,5.35
46.60,-2.47,-7.83,-2.46,-7.82,6.00,5.45,5.16,3.53,3.54,5.37
47.06,-2.37,-7.73,-2.37,-7.73,6.00,5.44,5.14,3.63,3.63,5.36
47.53,-2.27,-7.64,-2.28,-7.65,6.00,5.43,5.12,3.73,3.72,5.36
48.01,-2.19,-7.56,-2.19,-7.55,6.00,5.42,5.11,3.81,3.81,5.38
48.49,-2.10,-7.46,-2.09,-7.46,6.00,5.41,5.10,3.90,3.91,5.37
48.97,-2.00,-7.36,-2.01,-7.36,6.00,5.40,5.10,4.00,3.99,5.35
49.46,-1.91,-7.26,-1.91,-7.26,6.00,5.38,5.10,4.09,4.09,5.35
49.96,-1.83,-7.15,-1.82,-7.16,6.00,5.37,5.10,4.17,4.18,5.33
50.46,-1.73,-7.06,-1.73,-7.06,6.00,5.36,5.10,4.27,4.27,5.34
50.96,-1.63,-6.97,-1.63,-6.96,6.00,5.34,5.11,4.37,4.37,5.33
51.47,-1.53,-6.85,-1.54,-6.86,6.00,5.33,5.11,4.47,4.46,5.31
51.99,-1.45,-6.76,-1.45,-6.76,6.00,5.31,5.12,4.55,4.55,5.31
52.51,-1.36,-6.67,-1.35,-6.66,6.00,5.29,5.13,4.65,4.65,5.31
53.03,-1.25,-6.56,-1.26,-6.56,6.01,5.28,5.15,4.76,4.75,5.31
53.56,-1.16,-6.46,-1.17,-6.46,6.02,5.26,5.16,4.85,4.85,5.30
54.10,-1.08,-6.35,-1.07,-6.35,6.02,5.24,5.17,4.94,4.94,5.28
54.64,-0.99,-6.25,-0.98,-6.25,6.01,5.22,5.19,5.02,5.02,5.27
55.18,-0.89,-6.15,-0.89,-6.14,5.98,5.20,5.20,5.09,5.09,5.25
55.74,-0.80,-6.03,-0.80,-6.04,5.94,5.18,5.21,5.15,5.15,5.23
56.29,-0.70,-5.94,-0.71,-5.93,5.89,5.15,5.22,5.19,5.18,5.23
56.86,-0.62,-5.83,-0.62,-5.83,5.82,5.13,5.23,5.20,5.20,5.21
57.42,-0.53,-5.72,-0.53,-5.72,5.74,5.10,5.24,5.20,5.21,5.19
58.00,-0.44,-5.62,-0.44,-5.62,5.64,5.08,5.24,5.20,5.20,5.18
58.58,-0.35,-5.52,-0.35,-5.52,5.53,5.05,5.24,5.18,5.18,5.16
59.16,-0.26,-5.41,-0.26,-5.41,5.42,5.02,5.24,5.16,5.16,5.15
59.76,-0.18,-5.31,-0.18,-5.31,5.31,4.99,5.24,5.13,5.13,5.14
60.35,-0.09,-5.21,-0.09,-5.20,5.20,4.96,5.23,5.11,5.11,5.11
60.96,-0.02,-5.10,-0.01,-5.10,5.10,4.92,5.22,5.08,5.08,5.09
61.57,0.06,-4.99,0.06,-4.99,4.99,4.89,5.20,5.06,5.06,5.05
62.18,0.14,-4.89,0.14,-4.89,4.89,4.85,5.18,5.02,5.03,5.03
62.80,0.22,-4.78,0.21,-4.78,4.79,4.81,5.15,5.00,5.00,5.00
63.43,0.29,-4.69,0.29,-4.69,4.69,4.77,5.12,4.97,4.97,4.97
64.07,0.36,-4.58,0.36,-4.59,4.59,4.73,5.09,4.95,4.95,4.95
64.71,0.44,-4.49,0.44,-4.49,4.49,4.68,5.05,4.93,4.93,4.93
65.35,0.51,-4.39,0.51,-4.40,4.39,4.63,5.01,4.90,4.90,4.90
66.01,0.58,-4.31,0.57,-4.31,4.30,4.58,4.96,4.88,4.87,4.88
66.67,0.64,-4.22,0.64,-4.22,4.21,4.53,4.91,4.85,4.85,4.85
67.33,0.70,-4.13,0.70,-4.13,4.13,4.47,4.85,4.82,4.83,4.82
68.01,0.77,-4.04,0.76,-4.04,4.05,4.41,4.79,4.81,4.81,4.80
68.69,0.82,-3.96,0.81,-3.96,3.97,4.35,4.73,4.78,4.78,4.77
69.37,0.87,-3.89,0.86,-3.89,3.89,4.28,4.67,4.76,4.76,4.75
70.07,0.91,-3.82,0.91,-3.82,3.82,4.21,4.60,4.72,4.73,4.73
70.77,0.96,-3.75,0.95,-3.75,3.75,4.14,4.54,4.70,4.70,4.71
71.48,1.00,-3.69,1.00,-3.69,3.68,4.06,4.47,4.67,4.68,4.68
72.19,1.05,-3.62,1.04,-3.62,3.61,3.98,4.40,4.66,4.66,4.66
72.91,1.09,-3.55,1.09,-3.55,3.55,3.90,4.33,4.63,4.63,4.64
73.64,1.14,-3.48,1.13,-3.48,3.48,3.82,4.26,4.62,4.62,4.61
74.38,1.18,-3.42,1.18,-3.42,3.42,3.73,4.18,4.60,4.60,4.60
75.12,1.23,-3.36,1.22,-3.36,3.37,3.64,4.11,4.59,4.59,4.58
75.87,1.26,-3.32,1.26,-3.31,3.31,3.56,4.04,4.57,4.57,4.58
76.63,1.30,-3.26,1.29,-3.27,3.27,3.47,3.97,4.56,4.56,4.56
77.40,1.33,-3.23,1.33,-3.22,3.22,3.39,3.90,4.55,4.55,4.55
78.17,1.36,-3.18,1.36,-3.18,3.19,3.31,3.84,4.54,4.54,4.53
78.95,1.39,-3.15,1.38,-3.15,3.15,3.24,3.77,4.54,4.53,4.53
79.74,1.41,-3.12,1.41,-3.12,3.12,3.17,3.71,4.52,4.52,4.53
80.54,1.43,-3.09,1.43,-3.09,3.09,3.12,3.64,4.51,4.51,4.52
81.35,1.45,-3.06,1.44,-3.07,3.06,3.07,3.58,4.50,4.50,4.51
82.16,1.46,-3.04,1.46,-3.04,3.03,3.03,3.52,4.49,4.49,4.50
82.98,1.48,-3.02,1.48,-3.01,3.01,3.00,3.47,4.48,4.48,4.49
83.81,1.50,-2.98,1.49,-2.99,2.99,2.98,3.41,4.48,4.48,4.47
84.65,1.51,-2.96,1.51,-2.96,2.97,2.97,3.36,4.48,4.48,4.47
85.50,1.52,-2.95,1.52,-2.95,2.96,2.97,3.31,4.47,4.47,4.47
86.35,1.53,-2.93,1.52,-2.94,2.95,2.97,3.26,4.47,4.46,4.45
87.22,1.52,-2.93,1.52,-2.93,2.94,2.98,3.21,4.45,4.45,4.45
88.09,1.51,-2.93,1.51,-2.94,2.93,2.99,3.17,4.44,4.44,4.44
88.97,1.50,-2.95,1.50,-2.94,2.93,3.00,3.13,4.42,4.43,4.44
89.86,1.50,-2.93,1.49,-2.93,2.93,3.02,3.09,4.42,4.42,4.43
90.76,1.50,-2.92,1.49,-2.92,2.92,3.03,3.05,4.42,4.42,4.41
91.66,1.50,-2.92,1.50,-2.91,2.92,3.04,3.02,4.41,4.41,4.42
92.58,1.50,-2.90,1.50,-2.91,2.91,3.05,2.99,4.41,4.41,4.40
93.51,1.50,-2.91,1.50,-2.91,2.91,3.06,2.96,4.40,4.40,4.40
94.44,1.50,-2.90,1.50,-2.90,2.90,3.07,2.93,4.39,4.39,4.40
95.39,1.50,-2.89,1.50,-2.89,2.89,3.08,2.90,4.38,4.38,4.39
96.34,1.50,-2.87,1.50,-2.88,2.88,3.08,2.88,4.37,4.37,4.36
97.30,1.50,-2.86,1.50,-2.86,2.86,3.08,2.86,4.36,4.36,4.36
98.28,1.50,-2.85,1.49,-2.85,2.85,3.07,2.84,4.35,4.34,4.35
99.26,1.50,-2.83,1.49,-2.84,2.83,3.06,2.82,4.33,4.33,4.33
100.25,1.50,-2.83,1.50,-2.82,2.81,3.05,2.80,4.31,4.31,4.32
101.25,1.51,-2.80,1.51,-2.80,2.79,3.04,2.79,4.30,4.30,4.30
102.27,1.52,-2.77,1.51,-2.77,2.77,3.03,2.78,4.29,4.28,4.29
103.29,1.52,-2.74,1.52,-2.75,2.75,3.01,2.76,4.27,4.27,4.26
104.32,1.52,-2.73,1.52,-2.73,2.73,2.99,2.75,4.25,4.25,4.25
105.37,1.52,-2.71,1.51,-2.71,2.72,2.98,2.75,4.23,4.23,4.22
106.42,1.50,-2.71,1.50,-2.70,2.71,2.95,2.74,4.20,4.20,4.20
107.48,1.48,-2.70,1.47,-2.70,2.70,2.93,2.73,4.17,4.17,4.17
108.56,1.45,-2.69,1.45,-2.69,2.70,2.91,2.72,4.14,4.14,4.14
109.64,1.42,-2.69,1.42,-2.69,2.69,2.88,2.72,4.11,4.11,4.11
110.74,1.39,-2.68,1.38,-2.69,2.69,2.86,2.71,4.08,4.08,4.07
111.85,1.35,-2.70,1.34,-2.69,2.69,2.83,2.71,4.04,4.03,4.04
112.97,1.31,-2.69,1.31,-2.69,2.68,2.80,2.70,3.99,3.99,3.99
114.10,1.27,-2.69,1.27,-2.69,2.68,2.78,2.69,3.94,3.95,3.96
115.24,1.25,-2.67,1.24,-2.67,2.66,2.75,2.69,3.91,3.91,3.92
116.39,1.23,-2.65,1.22,-2.65,2.64,2.72,2.68,3.87,3.87,3.87
117.55,1.21,-2.63,1.21,-2.62,2.62,2.69,2.68,3.83,3.83,3.84
118.73,1.20,-2.59,1.19,-2.60,2.60,2.66,2.67,3.80,3.79,3.79
119.92,1.18,-2.58,1.18,-2.57,2.58,2.63,2.66,3.75,3.76,3.75
121.12,1.17,-2.55,1.17,-2.55,2.56,2.60,2.65,3.72,3.72,3.72
122.33,1.16,-2.53,1.15,-2.53,2.54,2.57,2.64,3.69,3.69,3.68
123.55,1.14,-2.52,1.14,-2.52,2.52,2.54,2.63,3.66,3.66,3.66
124.79,1.12,-2.51,1.11,-2.51,2.51,2.51,2.62,3.62,3.62,3.62
126.03,1.09,-2.50,1.09,-2.50,2.50,2.48,2.60,3.58,3.59,3.59
127.29,1.07,-2.49,1.06,-2.49,2.49,2.46,2.59,3.56,3.55,3.55
128.57,1.04,-2.48,1.03,-2.49,2.49,2.43,2.57,3.52,3.52,3.51
129.85,1.00,-2.49,1.00,-2.48,2.48,2.40,2.56,3.48,3.49,3.49
131.15,0.97,-2.49,0.97,-2.48,2.48,2.37,2.54,3.45,3.46,3.46
132.46,0.96,-2.48,0.95,-2.49,2.49,2.35,2.52,3.44,3.43,3.43
133.79,0.93,-2.49,0.92,-2.49,2.49,2.32,2.50,3.41,3.41,3.41
135.12,0.89,-2.50,0.89,-2.49,2.49,2.29,2.48,3.38,3.39,3.38
136.48,0.87,-2.50,0.86,-2.50,2.50,2.27,2.46,3.37,3.36,3.36
137.84,0.83,-2.52,0.83,-2.50,2.51,2.24,2.44,3.33,3.33,3.34
139.22,0.80,-2.51,0.80,-2.51,2.51,2.22,2.42,3.31,3.31,3.30
140.61,0.78,-2.51,0.77,-2.52,2.52,2.20,2.40,3.30,3.29,3.28
142.02,0.74,-2.54,0.74,-2.53,2.53,2.17,2.37,3.26,3.27,3.28
143.44,0.72,-2.53,0.71,-2.54,2.53,2.15,2.35,3.25,3.24,3.25
144.87,0.68,-2.55,0.68,-2.54,2.54,2.13,2.33,3.21,3.22,3.22
146.32,0.67,-2.53,0.66,-2.54,2.54,2.11,2.31,3.20,3.20,3.19
147.78,0.64,-2.54,0.63,-2.54,2.54,2.09,2.29,3.18,3.17,3.18
149.26,0.61,-2.55,0.61,-2.54,2.54,2.07,2.27,3.15,3.15,3.15
150.75,0.58,-2.54,0.58,-2.54,2.54,2.05,2.25,3.12,3.12,3.12
152.26,0.56,-2.53,0.55,-2.53,2.54,2.03,2.23,3.09,3.09,3.08
153.78,0.53,-2.54,0.53,-2.53,2.53,2.02,2.21,3.06,3.06,3.06
155.32,0.51,-2.52,0.50,-2.53,2.53,2.00,2.19,3.03,3.03,3.03
156.88,0.47,-2.54,0.47,-2.53,2.52,1.99,2.18,2.99,3.00,3.01
158.44,0.46,-2.52,0.45,-2.52,2.52,1.97,2.16,2.97,2.97,2.97
160.03,0.43,-2.51,0.43,-2.51,2.51,1.96,2.15,2.94,2.94,2.93
161.63,0.41,-2.50,0.41,-2.49,2.51,1.94,2.13,2.91,2.91,2.90
163.24,0.39,-2.48,0.38,-2.49,2.50,1.93,2.12,2.89,2.88,2.86
164.88,0.34,-2.51,0.35,-2.49,2.50,1.92,2.11,2.83,2.84,2.84
166.53,0.32,-2.49,0.31,-2.49,2.49,1.91,2.10,2.80,2.80,2.80
168.19,0.29,-2.49,0.28,-2.49,2.48,1.90,2.10,2.76,2.76,2.77
169.87,0.26,-2.48,0.26,-2.47,2.47,1.89,2.09,2.72,2.73,2.73
171.57,0.24,-2.46,0.24,-2.46,2.45,1.88,2.09,2.69,2.69,2.70
173.29,0.23,-2.42,0.22,-2.43,2.43,1.87,2.08,2.66,2.65,2.65
175.02,0.21,-2.41,0.20,-2.41,2.41,1.87,2.08,2.61,2.61,2.61
176.77,0.19,-2.38,0.19,-2.38,2.38,1.86,2.08,2.56,2.56,2.57
178.54,0.17,-2.35,0.17,-2.35,2.35,1.85,2.08,2.51,2.52,2.51
180.32,0.16,-2.31,0.15,-2.31,2.32,1.85,2.09,2.47,2.47,2.47
182.13,0.14,-2.29,0.13,-2.29,2.29,1.85,2.09,2.43,2.42,2.42
183.95,0.11,-2.26,0.11,-2.26,2.27,1.84,2.10,2.37,2.37,2.37
185.79,0.08,-2.25,0.08,-2.24,2.24,1.84,2.10,2.32,2.32,2.32
187.65,0.06,-2.21,0.05,-2.22,2.22,1.84,2.11,2.28,2.27,2.27
189.52,0.03,-2.20,0.02,-2.20,2.20,1.83,2.12,2.23,2.23,2.23
191.42,-0.00,-2.19,-0.00,-2.19,2.18,1.83,2.14,2.18,2.18,2.18
193.33,-0.03,-2.18,-0.03,-2.18,2.17,1.83,2.15,2.14,2.14,2.14
195.27,-0.06,-2.16,-0.06,-2.16,2.16,1.83,2.16,2.10,2.10,2.10
197.22,-0.09,-2.14,-0.10,-2.14,2.15,1.83,2.18,2.06,2.05,2.05
199.19,-0.13,-2.13,-0.14,-2.14,2.14,1.83,2.19,2.01,2.01,2.00
201.18,-0.17,-2.13,-0.18,-2.13,2.13,1.83,2.21,1.96,1.96,1.96
203.19,-0.21,-2.14,-0.21,-2.13,2.13,1.83,2.23,1.91,1.91,1.93
205.23,-0.24,-2.13,-0.24,-2.13,2.12,1.84,2.25,1.87,1.88,1.89
207.28,-0.26,-2.12,-0.27,-2.12,2.11,1.84,2.27,1.85,1.84,1.86
209.35,-0.29,-2.10,-0.29,-2.10,2.11,1.84,2.29,1.81,1.81,1.81
211.44,-0.32,-2.08,-0.32,-2.09,2.10,1.85,2.31,1.78,1.78,1.76
213.56,-0.35,-2.08,-0.36,-2.09,2.09,1.85,2.33,1.74,1.73,1.73
215.69,-0.39,-2.09,-0.39,-2.08,2.08,1.85,2.35,1.69,1.69,1.70
217.85,-0.42,-2.09,-0.42,-2.08,2.07,1.86,2.37,1.65,1.65,1.66
220.03,-0.43,-2.06,-0.44,-2.07,2.06,1.86,2.39,1.63,1.62,1.62
222.23,-0.45,-2.05,-0.45,-2.05,2.05,1.87,2.41,1.59,1.60,1.60
224.45,-0.46,-2.04,-0.46,-2.04,2.03,1.88,2.43,1.57,1.57,1.58
226.70,-0.46,-2.03,-0.47,-2.02,2.02,1.88,2.44,1.55,1.55,1.56
228.96,-0.46,-2.00,-0.46,-2.00,2.00,1.89,2.46,1.54,1.54,1.53
231.25,-0.45,-1.98,-0.46,-1.98,1.98,1.90,2.47,1.53,1.53,1.53
233.57,-0.45,-1.97,-0.45,-1.96,1.97,1.90,2.49,1.51,1.52,1.51
235.90,-0.44,-1.95,-0.45,-1.95,1.96,1.91,2.50,1.51,1.51,1.50
238.26,-0.44,-1.93,-0.45,-1.94,1.94,1.92,2.51,1.50,1.50,1.49
240.64,-0.44,-1.94,-0.44,-1.94,1.94,1.93,2.52,1.49,1.49,1.49
243.05,-0.44,-1.94,-0.45,-1.94,1.93,1.93,2.53,1.49,1.49,1.50
245.48,-0.44,-1.94,-0.45,-1.94,1.93,1.94,2.53,1.49,1.48,1.49
247.93,-0.44,-1.94,-0.44,-1.93,1.93,1.95,2.53,1.49,1.49,1.50
250.41,-0.43,-1.93,-0.43,-1.93,1.94,1.96,2.53,1.50,1.50,1.49
252.92,-0.42,-1.94,-0.43,-1.94,1.94,1.97,2.53,1.52,1.51,1.52
255.45,-0.42,-1.96,-0.43,-1.95,1.95,1.98,2.52,1.53,1.53,1.53
258.00,-0.43,-1.97,-0.43,-1.97,1.97,1.99,2.52,1.54,1.54,1.54
260.58,-0.44,-1.99,-0.44,-1.99,1.99,2.00,2.51,1.55,1.55,1.54
263.19,-0.45,-2.01,-0.46,-2.01,2.02,2.01,2.50,1.57,1.56,1.56
265.82,-0.48,-2.05,-0.48,-2.05,2.06,2.02,2.49,1.57,1.58,1.56
268.48,-0.50,-2.09,-0.51,-2.09,2.09,2.03,2.47,1.59,1.59,1.59
271.16,-0.53,-2.14,-0.54,-2.14,2.14,2.04,2.46,1.60,1.60,1.61
273.87,-0.57,-2.19,-0.57,-2.19,2.18,2.05,2.44,1.61,1.61,1.61
276.61,-0.60,-2.23,-0.60,-2.23,2.23,2.06,2.42,1.63,1.63,1.63
279.38,-0.63,-2.27,-0.64,-2.28,2.28,2.07,2.40,1.64,1.64,1.64
282.17,-0.66,-2.32,-0.67,-2.32,2.33,2.08,2.38,1.66,1.66,1.65
284.99,-0.70,-2.37,-0.70,-2.37,2.37,2.09,2.36,1.67,1.67,1.67
287.84,-0.73,-2.41,-0.74,-2.41,2.41,2.10,2.34,1.68,1.68,1.68
290.72,-0.76,-2.46,-0.76,-2.46,2.45,2.11,2.32,1.68,1.68,1.69
293.63,-0.78,-2.49,-0.78,-2.49,2.47,2.12,2.29,1.69,1.69,1.70
296.57,-0.79,-2.51,-0.79,-2.51,2.50,2.13,2.27,1.70,1.70,1.72
299.53,-0.79,-2.52,-0.80,-2.52,2.52,2.14,2.25,1.72,1.72,1.73
302.53,-0.79,-2.53,-0.79,-2.53,2.53,2.15,2.23,1.74,1.74,1.73
305.55,-0.78,-2.53,-0.78,-2.53,2.54,2.16,2.21,1.76,1.76,1.75
308.61,-0.77,-2.53,-0.78,-2.54,2.55,2.17,2.19,1.77,1.77,1.76
311.69,-0.77,-2.55,-0.77,-2.55,2.56,2.18,2.17,1.78,1.78,1.78
314.81,-0.77,-2.57,-0.77,-2.56,2.56,2.19,2.15,1.79,1.79,1.79
317.96,-0.77,-2.58,-0.77,-2.58,2.57,2.20,2.13,1.80,1.80,1.80
321.14,-0.77,-2.58,-0.77,-2.58,2.58,2.21,2.12,1.81,1.81,1.81
324.35,-0.77,-2.59,-0.77,-2.59,2.59,2.22,2.10,1.82,1.82,1.82
327.59,-0.77,-2.60,-0.77,-2.60,2.60,2.23,2.09,1.83,1.83,1.83
330.87,-0.77,-2.61,-0.78,-2.61,2.61,2.24,2.07,1.83,1.83,1.83
334.18,-0.77,-2.62,-0.77,-2.61,2.61,2.25,2.06,1.84,1.84,1.84
337.52,-0.77,-2.61,-0.77,-2.62,2.61,2.26,2.05,1.84,1.84,1.84
340.90,-0.76,-2.62,-0.77,-2.62,2.62,2.27,2.04,1.85,1.85,1.86
344.30,-0.76,-2.62,-0.76,-2.62,2.62,2.28,2.04,1.85,1.86,1.86
347.75,-0.75,-2.62,-0.76,-2.62,2.62,2.29,2.03,1.87,1.87,1.87
351.23,-0.75,-2.62,-0.76,-2.62,2.63,2.30,2.03,1.87,1.87,1.86
354.74,-0.75,-2.62,-0.76,-2.62,2.63,2.31,2.03,1.88,1.87,1.86
358.28,-0.77,-2.65,-0.77,-2.64,2.64,2.31,2.03,1.87,1.87,1.87
361.87,-0.78,-2.65,-0.79,-2.66,2.66,2.32,2.03,1.87,1.87,1.87
365.49,-0.81,-2.68,-0.81,-2.68,2.68,2.33,2.03,1.86,1.87,1.87
369.14,-0.83,-2.69,-0.84,-2.70,2.70,2.34,2.03,1.87,1.87,1.86
372.83,-0.86,-2.72,-0.87,-2.73,2.73,2.35,2.04,1.87,1.86,1.86
376.56,-0.90,-2.76,-0.90,-2.76,2.77,2.36,2.04,1.86,1.87,1.86
380.33,-0.93,-2.80,-0.94,-2.80,2.80,2.37,2.05,1.87,1.86,1.86
384.13,-0.97,-2.83,-0.98,-2.83,2.84,2.37,2.06,1.86,1.86,1.85
387.97,-1.02,-2.88,-1.02,-2.87,2.87,2.38,2.07,1.84,1.85,1.85
391.85,-1.05,-2.90,-1.06,-2.90,2.90,2.39,2.09,1.84,1.84,1.84
395.77,-1.08,-2.93,-1.09,-2.93,2.92,2.40,2.10,1.83,1.83,1.85
399.73,-1.10,-2.94,-1.10,-2.94,2.93,2.40,2.11,1.83,1.83,1.84
403.72,-1.10,-2.94,-1.11,-2.95,2.94,2.41,2.13,1.83,1.83,1.84
407.76,-1.09,-2.93,-1.09,-2.93,2.93,2.42,2.14,1.84,1.84,1.84
411.84,-1.07,-2.92,-1.07,-2.92,2.91,2.42,2.16,1.84,1.84,1.85
415.96,-1.04,-2.89,-1.05,-2.89,2.89,2.43,2.18,1.85,1.84,1.85
420.12,-1.01,-2.86,-1.01,-2.86,2.86,2.43,2.20,1.84,1.84,1.85
424.32,-0.97,-2.82,-0.98,-2.82,2.82,2.44,2.22,1.85,1.85,1.84
428.56,-0.94,-2.78,-0.94,-2.78,2.78,2.45,2.23,1.84,1.84,1.83
432.85,-0.89,-2.73,-0.90,-2.73,2.74,2.45,2.25,1.84,1.84,1.83
437.18,-0.85,-2.69,-0.86,-2.69,2.69,2.46,2.27,1.84,1.84,1.83
441.55,-0.81,-2.66,-0.81,-2.65,2.65,2.46,2.29,1.83,1.83,1.84
445.96,-0.76,-2.61,-0.77,-2.60,2.60,2.46,2.31,1.83,1.83,1.84
450.42,-0.71,-2.55,-0.71,-2.55,2.55,2.47,2.32,1.83,1.84,1.83
454.93,-0.65,-2.49,-0.65,-2.49,2.50,2.47,2.34,1.84,1.84,1.84
459.48,-0.59,-2.43,-0.60,-2.44,2.44,2.48,2.36,1.85,1.84,1.84
464.07,-0.54,-2.38,-0.54,-2.39,2.39,2.48,2.37,1.84,1.84,1.84
468.71,-0.49,-2.34,-0.49,-2.33,2.33,2.48,2.38,1.83,1.84,1.85
473.40,-0.43,-2.27,-0.43,-2.28,2.27,2.49,2.39,1.84,1.84,1.84
478.13,-0.37,-2.22,-0.38,-2.22,2.22,2.49,2.40,1.84,1.84,1.85
482.91,-0.31,-2.16,-0.32,-2.16,2.16,2.49,2.41,1.85,1.85,1.85
487.74,-0.26,-2.11,-0.26,-2.11,2.12,2.49,2.42,1.85,1.86,1.85
492.62,-0.21,-2.07,-0.22,-2.07,2.07,2.49,2.42,1.86,1.86,1.86
497.55,-0.17,-2.02,-0.18,-2.03,2.04,2.50,2.42,1.86,1.86,1.85
502.52,-0.15,-2.01,-0.15,-2.00,2.01,2.50,2.42,1.85,1.85,1.86
507.55,-0.13,-1.98,-0.13,-1.98,1.98,2.50,2.42,1.85,1.85,1.85
512.62,-0.12,-1.97,-0.12,-1.97,1.97,2.50,2.42,1.85,1.85,1.84
