frequency,raw,error,smoothed,error_smoothed,equalization,parametric_eq,fixed_band_eq,equalized_raw,equalized_smoothed,target
20.00,10.20,4.06,10.20,4.06,-4.06,-4.52,-1.80,6.15,6.14,6.15
20.20,10.21,4.07,10.22,4.07,-4.07,-4.51,-1.86,6.15,6.15,6.15
20.40,10.23,4.08,10.23,4.08,-4.08,-4.50,-1.92,6.16,6.16,6.16
20.61,10.24,4.08,10.25,4.09,-4.09,-4.48,-1.97,6.16,6.16,6.17
20.81,10.26,4.10,10.26,4.09,-4.09,-4.47,-2.03,6.17,6.17,6.17
21.02,10.27,4.10,10.27,4.10,-4.10,-4.46,-2.10,6.18,6.18,6.17
21.23,10.28,4.11,10.29,4.11,-4.11,-4.45,-2.16,6.18,6.18,6.17
21.44,10.29,4.11,10.29,4.11,-4.11,-4.43,-2.22,6.18,6.18,6.18
21.66,10.30,4.11,10.30,4.12,-4.12,-4.42,-2.29,6.19,6.19,6.19
21.87,10.31,4.12,10.31,4.12,-4.12,-4.41,-2.36,6.19,6.19,6.19
22.09,10.32,4.12,10.32,4.12,-4.12,-4.39,-2.43,6.20,6.20,6.20
22.31,10.33,4.12,10.33,4.13,-4.13,-4.38,-2.51,6.21,6.21,6.21
22.54,10.34,4.13,10.34,4.13,-4.13,-4.36,-2.58,6.22,6.22,6.21
22.76,10.35,4.13,10.36,4.13,-4.13,-4.35,-2.66,6.22,6.22,6.22
22.99,10.36,4.13,10.36,4.13,-4.13,-4.33,-2.74,6.23,6.23,6.23
23.22,10.37,4.13,10.37,4.13,-4.13,-4.32,-2.82,6.24,6.24,6.24
23.45,10.37,4.12,10.38,4.13,-4.13,-4.30,-2.90,6.25,6.25,6.25
23.69,10.38,4.12,10.39,4.13,-4.13,-4.28,-2.98,6.26,6.26,6.26
23.92,10.39,4.13,10.39,4.12,-4.12,-4.26,-3.07,6.27,6.27,6.27
24.16,10.39,4.12,10.40,4.12,-4.11,-4.25,-3.15,6.28,6.28,6.28
24.40,10.39,4.11,10.40,4.11,-4.11,-4.23,-3.24,6.29,6.29,6.29
24.65,10.40,4.10,10.40,4.10,-4.10,-4.21,-3.33,6.31,6.30,6.31
24.89,10.40,4.09,10.40,4.09,-4.09,-4.19,-3.42,6.32,6.32,6.32
25.14,10.40,4.08,10.41,4.08,-4.08,-4.17,-3.51,6.33,6.33,6.33
25.39,10.40,4.07,10.40,4.07,-4.07,-4.15,-3.60,6.34,6.34,6.34
25.65,10.40,4.06,10.40,4.06,-4.06,-4.13,-3.69,6.35,6.35,6.35
25.91,10.40,4.04,10.41,4.04,-4.04,-4.10,-3.78,6.36,6.36,6.36
26.16,10.40,4.03,10.40,4.03,-4.03,-4.08,-3.87,6.37,6.37,6.37
26.43,10.40,4.02,10.40,4.02,-4.02,-4.06,-3.96,6.39,6.38,6.38
26.69,10.39,4.00,10.40,4.00,-4.00,-4.03,-4.05,6.39,6.40,6.39
26.96,10.39,3.98,10.40,3.99,-3.99,-4.01,-4.13,6.41,6.41,6.41
27.23,10.39,3.97,10.39,3.97,-3.97,-3.98,-4.21,6.43,6.42,6.42
27.50,10.38,3.94,10.39,3.95,-3.95,-3.96,-4.29,6.44,6.44,6.44
27.77,10.37,3.93,10.38,3.93,-3.93,-3.93,-4.36,6.45,6.45,6.45
28.05,10.37,3.91,10.37,3.91,-3.90,-3.90,-4.43,6.47,6.47,6.47
28.33,10.36,3.89,10.36,3.88,-3.88,-3.88,-4.50,6.48,6.48,6.48
28.62,10.35,3.86,10.35,3.86,-3.86,-3.85,-4.56,6.50,6.50,6.50
28.90,10.33,3.83,10.34,3.83,-3.83,-3.82,-4.61,6.50,6.51,6.51
29.19,10.32,3.80,10.33,3.80,-3.81,-3.78,-4.65,6.52,6.52,6.52
29.48,10.31,3.78,10.31,3.78,-3.78,-3.75,-4.69,6.53,6.53,6.53
29.78,10.30,3.75,10.30,3.75,-3.76,-3.72,-4.72,6.55,6.55,6.55
30.08,10.29,3.73,10.29,3.73,-3.73,-3.68,-4.73,6.57,6.56,6.56
30.38,10.27,3.70,10.28,3.70,-3.70,-3.65,-4.75,6.57,6.58,6.58
30.68,10.26,3.68,10.27,3.68,-3.67,-3.61,-4.74,6.59,6.59,6.59
30.99,10.25,3.65,10.25,3.65,-3.65,-3.58,-4.74,6.61,6.60,6.61
31.30,10.23,3.62,10.24,3.62,-3.62,-3.54,-4.72,6.62,6.62,6.62
31.61,10.21,3.58,10.22,3.58,-3.58,-3.50,-4.69,6.63,6.63,6.63
31.93,10.19,3.55,10.19,3.55,-3.55,-3.46,-4.65,6.64,6.64,6.64
32.24,10.17,3.51,10.17,3.51,-3.51,-3.41,-4.60,6.66,6.66,6.66
32.57,10.14,3.48,10.15,3.48,-3.48,-3.37,-4.54,6.67,6.67,6.67
32.89,10.12,3.44,10.12,3.44,-3.43,-3.32,-4.47,6.69,6.69,6.69
33.22,10.09,3.40,10.09,3.39,-3.39,-3.28,-4.39,6.70,6.70,6.70
33.55,10.05,3.34,10.06,3.35,-3.35,-3.23,-4.30,6.71,6.71,6.71
33.89,10.02,3.30,10.02,3.30,-3.30,-3.18,-4.21,6.73,6.72,6.72
34.23,9.98,3.24,9.98,3.25,-3.25,-3.13,-4.11,6.73,6.73,6.74
34.57,9.94,3.20,9.95,3.20,-3.20,-3.07,-4.00,6.75,6.75,6.75
34.92,9.91,3.15,9.91,3.15,-3.15,-3.02,-3.88,6.76,6.76,6.76
35.27,9.87,3.09,9.86,3.09,-3.09,-2.96,-3.76,6.77,6.77,6.77
35.62,9.81,3.03,9.82,3.03,-3.03,-2.90,-3.64,6.78,6.78,6.78
35.97,9.76,2.97,9.77,2.98,-2.98,-2.84,-3.50,6.79,6.79,6.79
36.33,9.71,2.92,9.71,2.92,-2.91,-2.78,-3.37,6.80,6.80,6.80
36.70,9.66,2.85,9.66,2.85,-2.85,-2.71,-3.23,6.81,6.81,6.80
37.06,9.59,2.78,9.59,2.78,-2.78,-2.65,-3.09,6.82,6.81,6.81
37.43,9.52,2.70,9.52,2.71,-2.71,-2.58,-2.95,6.82,6.82,6.82
37.81,9.45,2.63,9.46,2.63,-2.63,-2.50,-2.80,6.82,6.82,6.83
38.19,9.39,2.55,9.39,2.55,-2.56,-2.43,-2.66,6.83,6.83,6.83
38.57,9.31,2.47,9.32,2.48,-2.48,-2.35,-2.51,6.84,6.84,6.84
38.95,9.24,2.40,9.24,2.39,-2.39,-2.27,-2.36,6.85,6.85,6.85
39.34,9.16,2.31,9.16,2.31,-2.31,-2.19,-2.21,6.85,6.85,6.85
39.74,9.08,2.21,9.08,2.22,-2.22,-2.11,-2.06,6.85,6.86,6.86
40.14,9.00,2.14,8.99,2.13,-2.13,-2.02,-1.91,6.87,6.86,6.86
40.54,8.91,2.04,8.90,2.04,-2.04,-1.93,-1.76,6.87,6.87,6.86
40.94,8.80,1.93,8.81,1.94,-1.94,-1.83,-1.61,6.87,6.87,6.87
41.35,8.70,1.83,8.71,1.83,-1.83,-1.73,-1.46,6.87,6.87,6.88
41.76,8.60,1.72,8.60,1.72,-1.72,-1.63,-1.30,6.88,6.88,6.88
42.18,8.49,1.61,8.49,1.61,-1.61,-1.53,-1.15,6.89,6.89,6.89
42.60,8.38,1.49,8.38,1.49,-1.49,-1.42,-1.00,6.89,6.89,6.89
43.03,8.26,1.37,8.27,1.37,-1.37,-1.31,-0.85,6.90,6.90,6.90
43.46,8.14,1.24,8.14,1.24,-1.24,-1.20,-0.70,6.91,6.91,6.90
43.90,8.02,1.11,8.02,1.10,-1.10,-1.08,-0.55,6.91,6.91,6.91
44.33,7.88,0.96,7.88,0.96,-0.96,-0.95,-0.40,6.92,6.92,6.92
44.78,7.75,0.82,7.74,0.82,-0.81,-0.83,-0.25,6.93,6.93,6.93
45.23,7.60,0.66,7.60,0.66,-0.66,-0.70,-0.11,6.93,6.94,6.93
45.68,7.46,0.51,7.45,0.50,-0.50,-0.56,0.04,6.95,6.95,6.95
46.13,7.29,0.34,7.30,0.34,-0.34,-0.42,0.19,6.95,6.96,6.95
46.60,7.14,0.17,7.14,0.17,-0.17,-0.28,0.34,6.96,6.96,6.97
47.06,6.97,0.00,6.97,0.00,-0.00,-0.13,0.49,6.97,6.97,6.97
47.53,6.80,-0.18,6.81,-0.17,0.17,0.02,0.63,6.98,6.98,6.98
48.01,6.65,-0.34,6.64,-0.35,0.35,0.18,0.78,6.99,6.99,6.99
48.49,6.47,-0.53,6.47,-0.53,0.53,0.34,0.92,6.99,7.00,7.00
48.97,6.29,-0.71,6.29,-0.71,0.71,0.50,1.07,7.01,7.01,7.00
49.46,6.11,-0.90,6.12,-0.89,0.90,0.67,1.21,7.01,7.01,7.02
49.96,5.95,-1.07,5.94,-1.08,1.08,0.84,1.36,7.03,7.02,7.02
50.46,5.76,-1.26,5.75,-1.27,1.27,1.02,1.50,7.03,7.03,7.02
50.96,5.56,-1.47,5.57,-1.46,1.46,1.20,1.64,7.03,7.03,7.03
51.47,5.37,-1.66,5.38,-1.65,1.66,1.38,1.78,7.03,7.03,7.03
51.99,5.20,-1.84,5.19,-1.84,1.85,1.57,1.91,7.04,7.04,7.03
52.51,5.01,-2.03,5.00,-2.03,2.03,1.75,2.05,7.04,7.04,7.04
53.03,4.81,-2.22,4.82,-2.22,2.22,1.94,2.18,7.03,7.04,7.04
53.56,4.64,-2.40,4.64,-2.40,2.40,2.13,2.31,7.04,7.04,7.05
54.10,4.48,-2.57,4.47,-2.57,2.57,2.31,2.43,7.04,7.04,7.05
54.64,4.32,-2.73,4.31,-2.73,2.73,2.50,2.56,7.04,7.04,7.05
55.18,4.15,-2.88,4.16,-2.88,2.88,2.68,2.67,7.03,7.04,7.04
55.74,4.02,-3.02,4.01,-3.02,3.02,2.86,2.79,7.04,7.04,7.03
56.29,3.88,-3.15,3.88,-3.15,3.15,3.03,2.89,7.03,7.03,7.03
56.86,3.76,-3.27,3.76,-3.27,3.26,3.20,3.00,7.02,7.02,7.02
57.42,3.64,-3.38,3.65,-3.37,3.37,3.36,3.09,7.01,7.01,7.02
58.00,3.54,-3.46,3.55,-3.46,3.46,3.51,3.18,7.00,7.00,7.01
58.58,3.46,-3.54,3.46,-3.54,3.54,3.64,3.26,7.00,7.00,7.00
59.16,3.38,-3.61,3.39,-3.60,3.60,3.77,3.33,6.99,6.99,6.99
59.76,3.33,-3.65,3.32,-3.66,3.66,3.87,3.40,6.99,6.98,6.98
60.35,3.26,-3.70,3.26,-3.70,3.71,3.97,3.46,6.97,6.97,6.96
60.96,3.20,-3.74,3.21,-3.74,3.74,4.04,3.50,6.95,6.95,6.95
61.57,3.16,-3.77,3.16,-3.77,3.77,4.10,3.54,6.93,6.93,6.93
62.18,3.12,-3.79,3.13,-3.79,3.78,4.13,3.57,6.90,6.91,6.92
62.80,3.11,-3.79,3.11,-3.79,3.78,4.15,3.59,6.90,6.89,6.90
63.43,3.10,-3.78,3.10,-3.78,3.78,4.15,3.60,6.88,6.88,6.88
64.07,3.09,-3.76,3.10,-3.76,3.76,4.13,3.61,6.85,6.86,6.86
64.71,3.10,-3.73,3.11,-3.73,3.74,4.09,3.60,6.84,6.84,6.84
65.35,3.12,-3.70,3.12,-3.70,3.70,4.03,3.58,6.83,6.82,6.82
66.01,3.13,-3.67,3.14,-3.66,3.67,3.95,3.56,6.80,6.81,6.80
66.67,3.16,-3.62,3.16,-3.62,3.62,3.87,3.53,6.79,6.78,6.78
67.33,3.18,-3.58,3.18,-3.58,3.58,3.77,3.49,6.76,6.76,6.76
68.01,3.20,-3.53,3.21,-3.53,3.53,3.65,3.44,6.74,6.74,6.73
68.69,3.23,-3.48,3.23,-3.48,3.48,3.53,3.39,6.72,6.72,6.71
69.37,3.26,-3.43,3.26,-3.43,3.43,3.40,3.33,6.70,6.69,6.69
70.07,3.28,-3.39,3.29,-3.38,3.38,3.26,3.27,6.67,6.67,6.67
70.77,3.31,-3.33,3.31,-3.33,3.33,3.12,3.20,6.65,6.65,6.65
71.48,3.34,-3.28,3.34,-3.28,3.28,2.97,3.13,6.63,6.63,6.63
72.19,3.37,-3.23,3.38,-3.23,3.23,2.82,3.05,6.61,6.61,6.60
72.91,3.41,-3.17,3.41,-3.17,3.18,2.67,2.97,6.59,6.59,6.59
73.64,3.44,-3.12,3.44,-3.12,3.12,2.52,2.89,6.57,6.57,6.56
74.38,3.47,-3.07,3.48,-3.07,3.07,2.37,2.80,6.54,6.54,6.55
75.12,3.51,-3.01,3.52,-3.01,3.00,2.22,2.71,6.52,6.52,6.52
75.87,3.56,-2.94,3.57,-2.94,2.94,2.07,2.62,6.50,6.50,6.51
76.63,3.62,-2.86,3.62,-2.87,2.87,1.92,2.54,6.49,6.49,6.49
77.40,3.68,-2.79,3.69,-2.79,2.79,1.78,2.44,6.47,6.48,6.47
78.17,3.75,-2.70,3.75,-2.70,2.71,1.64,2.35,6.46,6.46,6.45
78.95,3.83,-2.61,3.82,-2.61,2.62,1.50,2.26,6.44,6.44,6.44
79.74,3.90,-2.52,3.90,-2.52,2.52,1.37,2.17,6.41,6.42,6.42
80.54,3.98,-2.41,3.98,-2.42,2.41,1.24,2.08,6.40,6.39,6.40
81.35,4.07,-2.30,4.07,-2.30,2.29,1.11,1.99,6.37,6.37,6.38
82.16,4.17,-2.18,4.18,-2.17,2.17,0.99,1.90,6.34,6.35,6.36
82.98,4.31,-2.03,4.30,-2.03,2.03,0.87,1.81,6.33,6.33,6.33
83.81,4.44,-1.88,4.43,-1.88,1.88,0.75,1.72,6.31,6.31,6.31
84.65,4.57,-1.72,4.57,-1.72,1.72,0.64,1.63,6.29,6.29,6.29
85.50,4.71,-1.55,4.72,-1.55,1.55,0.53,1.54,6.26,6.27,6.27
86.35,4.88,-1.37,4.87,-1.37,1.37,0.42,1.46,6.25,6.24,6.24
87.22,5.03,-1.19,5.03,-1.19,1.19,0.32,1.37,6.22,6.22,6.22
88.09,5.20,-0.99,5.20,-1.00,1.00,0.22,1.29,6.20,6.20,6.20
88.97,5.37,-0.81,5.38,-0.80,0.80,0.12,1.20,6.18,6.18,6.18
89.86,5.55,-0.60,5.55,-0.61,0.61,0.02,1.12,6.16,6.16,6.16
90.76,5.72,-0.41,5.73,-0.41,0.41,-0.08,1.04,6.14,6.14,6.13
91.66,5.91,-0.21,5.90,-0.21,0.21,-0.17,0.96,6.12,6.11,6.12
92.58,6.07,-0.02,6.07,-0.02,0.01,-0.26,0.88,6.09,6.09,6.09
93.51,6.24,0.18,6.25,0.18,-0.18,-0.36,0.80,6.06,6.07,6.06
94.44,6.41,0.37,6.42,0.37,-0.37,-0.45,0.72,6.04,6.04,6.05
95.39,6.59,0.57,6.59,0.57,-0.57,-0.54,0.65,6.03,6.02,6.02
96.34,6.75,0.75,6.76,0.75,-0.75,-0.64,0.57,6.00,6.00,6.00
97.30,6.92,0.94,6.91,0.94,-0.94,-0.73,0.50,5.98,5.97,5.98
98.28,7.05,1.11,7.06,1.11,-1.11,-0.83,0.43,5.94,5.94,5.95
99.26,7.19,1.27,7.20,1.28,-1.28,-0.93,0.35,5.92,5.92,5.92
100.25,7.33,1.43,7.34,1.44,-1.43,-1.04,0.28,5.90,5.91,5.90
101.25,7.48,1.60,7.47,1.59,-1.58,-1.14,0.21,5.90,5.89,5.87
102.27,7.58,1.74,7.57,1.72,-1.71,-1.25,0.15,5.87,5.86,5.85
103.29,7.63,1.83,7.65,1.84,-1.83,-1.36,0.08,5.80,5.81,5.81
104.32,7.70,1.93,7.71,1.93,-1.95,-1.48,0.02,5.76,5.77,5.78
105.37,7.78,2.03,7.78,2.03,-2.05,-1.60,-0.05,5.74,5.73,5.75
106.42,7.84,2.13,7.84,2.13,-2.14,-1.72,-0.11,5.71,5.71,5.71
107.48,7.89,2.22,7.89,2.22,-2.21,-1.84,-0.17,5.68,5.68,5.67
108.56,7.92,2.29,7.93,2.29,-2.28,-1.97,-0.22,5.65,5.65,5.64
109.64,7.94,2.35,7.94,2.35,-2.33,-2.09,-0.28,5.61,5.61,5.60
110.74,7.94,2.38,7.95,2.39,-2.38,-2.20,-0.33,5.57,5.57,5.56
111.85,7.93,2.41,7.93,2.41,-2.41,-2.31,-0.38,5.53,5.52,5.52
112.97,7.89,2.42,7.89,2.41,-2.42,-2.39,-0.43,5.47,5.47,5.47
114.10,7.84,2.41,7.85,2.41,-2.43,-2.47,-0.48,5.42,5.42,5.44
115.24,7.79,2.40,7.81,2.42,-2.42,-2.52,-0.52,5.38,5.39,5.39
116.39,7.76,2.41,7.76,2.40,-2.40,-2.55,-0.56,5.36,5.35,5.35
117.55,7.70,2.40,7.69,2.38,-2.37,-2.53,-0.59,5.33,5.32,5.31
118.73,7.59,2.32,7.60,2.33,-2.34,-2.51,-0.63,5.26,5.26,5.27
119.92,7.50,2.28,7.50,2.28,-2.29,-2.43,-0.66,5.21,5.21,5.22
121.12,7.39,2.20,7.41,2.22,-2.23,-2.35,-0.68,5.15,5.18,5.19
122.33,7.32,2.17,7.32,2.16,-2.16,-2.23,-0.71,5.17,5.16,5.15
123.55,7.21,2.10,7.19,2.08,-2.07,-2.09,-0.73,5.14,5.12,5.12
124.79,7.06,1.97,7.06,1.98,-1.97,-1.93,-0.74,5.09,5.09,5.08
126.03,6.87,1.83,6.91,1.86,-1.85,-1.77,-0.76,5.03,5.06,5.05
127.29,6.75,1.74,6.74,1.73,-1.71,-1.59,-0.76,5.04,5.03,5.01
128.57,6.59,1.60,6.54,1.56,-1.56,-1.41,-0.77,5.03,4.99,4.98
129.85,6.32,1.38,6.34,1.39,-1.39,-1.23,-0.77,4.94,4.95,4.95
131.15,6.07,1.16,6.13,1.21,-1.21,-1.05,-0.77,4.86,4.92,4.92
132.46,5.94,1.06,5.90,1.01,-1.03,-0.86,-0.77,4.92,4.87,4.88
133.79,5.71,0.84,5.69,0.83,-0.84,-0.68,-0.76,4.87,4.85,4.86
135.12,5.41,0.58,5.46,0.63,-0.64,-0.50,-0.75,4.77,4.82,4.83
136.48,5.26,0.45,5.22,0.42,-0.44,-0.32,-0.74,4.82,4.79,4.80
137.84,4.99,0.22,5.02,0.25,-0.24,-0.15,-0.72,4.76,4.79,4.77
139.22,4.81,0.07,4.80,0.06,-0.03,0.03,-0.70,4.79,4.77,4.74
140.61,4.59,-0.12,4.56,-0.16,0.18,0.20,-0.68,4.77,4.73,4.71
142.02,4.26,-0.44,4.31,-0.38,0.38,0.38,-0.66,4.64,4.69,4.70
143.44,4.08,-0.58,4.06,-0.60,0.59,0.55,-0.63,4.67,4.65,4.67
144.87,3.81,-0.83,3.83,-0.81,0.79,0.73,-0.61,4.61,4.62,4.64
146.32,3.63,-0.97,3.62,-0.99,0.99,0.90,-0.58,4.63,4.61,4.61
147.78,3.37,-1.21,3.39,-1.19,1.19,1.07,-0.55,4.56,4.58,4.58
149.26,3.19,-1.36,3.19,-1.37,1.38,1.25,-0.52,4.58,4.57,4.55
150.75,2.96,-1.57,2.97,-1.56,1.57,1.42,-0.49,4.53,4.53,4.53
152.26,2.78,-1.72,2.78,-1.73,1.74,1.60,-0.46,4.52,4.52,4.51
153.78,2.56,-1.91,2.57,-1.90,1.90,1.77,-0.42,4.47,4.48,4.47
155.32,2.40,-2.04,2.39,-2.06,2.06,1.93,-0.39,4.46,4.45,4.45
156.88,2.21,-2.22,2.22,-2.21,2.19,2.09,-0.35,4.40,4.41,4.43
158.44,2.08,-2.32,2.07,-2.33,2.31,2.24,-0.32,4.40,4.38,4.40
160.03,1.92,-2.45,1.94,-2.43,2.42,2.38,-0.28,4.34,4.36,4.37
161.63,1.84,-2.51,1.85,-2.50,2.50,2.50,-0.25,4.34,4.34,4.35
163.24,1.77,-2.55,1.76,-2.56,2.56,2.61,-0.21,4.33,4.32,4.32
164.88,1.69,-2.61,1.70,-2.60,2.61,2.69,-0.17,4.30,4.30,4.30
166.53,1.63,-2.64,1.64,-2.63,2.64,2.76,-0.14,4.27,4.28,4.27
168.19,1.60,-2.64,1.60,-2.65,2.65,2.79,-0.10,4.26,4.25,4.24
169.87,1.56,-2.65,1.57,-2.65,2.66,2.82,-0.06,4.22,4.22,4.22
171.57,1.54,-2.64,1.54,-2.65,2.65,2.80,-0.03,4.20,4.19,4.19
173.29,1.52,-2.64,1.52,-2.64,2.63,2.78,0.01,4.16,4.15,4.16
175.02,1.50,-2.63,1.51,-2.62,2.61,2.72,0.05,4.11,4.12,4.13
176.77,1.51,-2.58,1.52,-2.59,2.58,2.66,0.08,4.09,4.09,4.10
178.54,1.53,-2.54,1.53,-2.54,2.54,2.58,0.12,4.07,4.07,4.07
180.32,1.55,-2.48,1.56,-2.48,2.49,2.49,0.16,4.05,4.05,4.04
182.13,1.58,-2.43,1.58,-2.43,2.44,2.39,0.20,4.03,4.02,4.01
183.95,1.60,-2.37,1.60,-2.38,2.38,2.29,0.23,3.99,3.99,3.98
185.79,1.62,-2.32,1.62,-2.32,2.32,2.18,0.27,3.95,3.95,3.94
187.65,1.64,-2.28,1.65,-2.27,2.26,2.07,0.31,3.91,3.91,3.92
189.52,1.68,-2.20,1.69,-2.20,2.20,1.97,0.35,3.88,3.88,3.89
191.42,1.73,-2.12,1.73,-2.13,2.13,1.87,0.38,3.86,3.85,3.85
193.33,1.77,-2.05,1.77,-2.05,2.05,1.77,0.42,3.83,3.83,3.82
195.27,1.81,-1.99,1.82,-1.98,1.97,1.67,0.46,3.79,3.79,3.80
197.22,1.87,-1.89,1.87,-1.89,1.89,1.58,0.49,3.76,3.76,3.77
199.19,1.93,-1.80,1.93,-1.80,1.80,1.50,0.53,3.73,3.73,3.74
201.18,1.99,-1.70,2.00,-1.70,1.70,1.42,0.57,3.70,3.70,3.70
203.19,2.06,-1.60,2.06,-1.60,1.61,1.34,0.60,3.67,3.67,3.67
205.23,2.12,-1.51,2.13,-1.51,1.51,1.27,0.64,3.64,3.64,3.64
207.28,2.19,-1.41,2.19,-1.42,1.42,1.21,0.67,3.61,3.61,3.61
209.35,2.24,-1.33,2.25,-1.33,1.33,1.15,0.71,3.57,3.58,3.58
211.44,2.30,-1.23,2.30,-1.24,1.24,1.09,0.74,3.54,3.54,3.54
213.56,2.35,-1.15,2.35,-1.15,1.16,1.04,0.77,3.51,3.51,3.51
215.69,2.39,-1.08,2.40,-1.07,1.08,0.99,0.80,3.47,3.48,3.47
217.85,2.44,-0.99,2.44,-1.00,1.00,0.94,0.83,3.45,3.44,3.43
220.03,2.47,-0.93,2.47,-0.93,0.93,0.90,0.86,3.40,3.40,3.40
222.23,2.50,-0.87,2.51,-0.87,0.86,0.86,0.89,3.37,3.37,3.38
224.45,2.53,-0.80,2.54,-0.80,0.80,0.82,0.92,3.33,3.33,3.34
226.70,2.57,-0.74,2.57,-0.74,0.73,0.79,0.95,3.31,3.31,3.31
228.96,2.61,-0.67,2.61,-0.67,0.68,0.76,0.97,3.29,3.29,3.28
231.25,2.64,-0.61,2.65,-0.61,0.62,0.73,0.99,3.27,3.27,3.26
233.57,2.67,-0.57,2.68,-0.56,0.57,0.70,1.01,3.24,3.24,3.24
235.90,2.70,-0.51,2.70,-0.52,0.52,0.67,1.03,3.22,3.22,3.21
238.26,2.72,-0.47,2.73,-0.47,0.47,0.65,1.05,3.19,3.19,3.20
240.64,2.75,-0.43,2.76,-0.43,0.42,0.63,1.06,3.17,3.17,3.18
243.05,2.78,-0.38,2.78,-0.38,0.37,0.61,1.07,3.16,3.16,3.17
245.48,2.81,-0.34,2.82,-0.34,0.33,0.59,1.08,3.15,3.15,3.15
247.93,2.84,-0.29,2.84,-0.29,0.30,0.57,1.09,3.14,3.14,3.14
250.41,2.86,-0.26,2.87,-0.26,0.27,0.55,1.09,3.13,3.13,3.12
252.92,2.88,-0.22,2.88,-0.22,0.24,0.53,1.10,3.12,3.12,3.11
255.45,2.88,-0.21,2.89,-0.21,0.22,0.52,1.10,3.10,3.10,3.09
258.00,2.88,-0.19,2.88,-0.20,0.20,0.50,1.09,3.09,3.08,3.08
260.58,2.87,-0.20,2.87,-0.20,0.19,0.49,1.09,3.06,3.06,3.07
263.19,2.86,-0.19,2.87,-0.19,0.18,0.48,1.08,3.04,3.05,3.06
265.82,2.86,-0.18,2.86,-0.18,0.17,0.47,1.07,3.04,3.04,3.04
268.48,2.86,-0.17,2.86,-0.17,0.16,0.46,1.06,3.03,3.03,3.03
271.16,2.86,-0.15,2.86,-0.15,0.15,0.45,1.05,3.02,3.02,3.02
273.87,2.86,-0.14,2.86,-0.14,0.14,0.44,1.04,3.01,3.01,3.00
276.61,2.86,-0.13,2.86,-0.13,0.13,0.43,1.02,2.99,2.99,2.99
279.38,2.86,-0.11,2.86,-0.11,0.11,0.42,1.01,2.98,2.98,2.98
282.17,2.86,-0.10,2.86,-0.10,0.10,0.41,0.99,2.97,2.97,2.96
284.99,2.86,-0.09,2.86,-0.09,0.09,0.40,0.97,2.95,2.95,2.95
287.84,2.86,-0.07,2.86,-0.07,0.07,0.39,0.95,2.94,2.94,2.94
290.72,2.86,-0.06,2.86,-0.06,0.06,0.39,0.92,2.92,2.92,2.92
293.63,2.86,-0.05,2.86,-0.05,0.04,0.38,0.90,2.91,2.90,2.91
296.57,2.86,-0.03,2.87,-0.03,0.02,0.37,0.88,2.89,2.89,2.90
299.53,2.87,-0.01,2.88,-0.01,0.01,0.37,0.85,2.88,2.88,2.89
302.53,2.88,0.01,2.88,0.01,-0.01,0.36,0.83,2.88,2.87,2.87
305.55,2.88,0.03,2.88,0.03,-0.02,0.36,0.81,2.86,2.86,2.85
308.61,2.87,0.04,2.88,0.04,-0.03,0.35,0.78,2.84,2.84,2.84
311.69,2.86,0.04,2.87,0.04,-0.04,0.35,0.76,2.82,2.83,2.83
314.81,2.85,0.05,2.85,0.05,-0.04,0.35,0.73,2.81,2.81,2.80
317.96,2.83,0.04,2.83,0.04,-0.04,0.34,0.71,2.80,2.80,2.79
321.14,2.80,0.03,2.81,0.03,-0.03,0.34,0.68,2.78,2.78,2.77
324.35,2.77,0.02,2.77,0.02,-0.01,0.34,0.66,2.76,2.76,2.76
327.59,2.73,-0.00,2.74,0.00,0.00,0.33,0.63,2.74,2.74,2.74
330.87,2.70,-0.02,2.70,-0.02,0.02,0.33,0.61,2.72,2.72,2.72
334.18,2.67,-0.03,2.67,-0.03,0.03,0.33,0.58,2.71,2.70,2.70
337.52,2.63,-0.06,2.64,-0.05,0.04,0.32,0.56,2.68,2.68,2.69
340.90,2.61,-0.05,2.61,-0.06,0.05,0.32,0.53,2.67,2.66,2.67
344.30,2.58,-0.07,2.59,-0.06,0.06,0.32,0.51,2.64,2.65,2.66
347.75,2.57,-0.06,2.58,-0.06,0.06,0.32,0.49,2.63,2.63,2.64
351.23,2.56,-0.05,2.56,-0.06,0.06,0.32,0.46,2.62,2.62,2.61
354.74,2.54,-0.06,2.55,-0.05,0.06,0.31,0.44,2.60,2.60,2.60
358.28,2.52,-0.06,2.53,-0.05,0.06,0.31,0.42,2.58,2.59,2.58
361.87,2.51,-0.05,2.51,-0.06,0.06,0.31,0.39,2.57,2.57,2.56
365.49,2.48,-0.06,2.49,-0.06,0.06,0.31,0.37,2.55,2.55,2.55
369.14,2.46,-0.06,2.47,-0.07,0.07,0.31,0.35,2.53,2.53,2.53
372.83,2.44,-0.07,2.44,-0.08,0.08,0.31,0.33,2.52,2.52,2.52
376.56,2.40,-0.09,2.41,-0.09,0.09,0.31,0.31,2.50,2.50,2.50
380.33,2.37,-0.10,2.37,-0.10,0.10,0.31,0.29,2.48,2.48,2.47
384.13,2.34,-0.12,2.34,-0.12,0.12,0.31,0.27,2.46,2.46,2.46
387.97,2.30,-0.14,2.31,-0.13,0.13,0.31,0.25,2.44,2.44,2.44
391.85,2.28,-0.15,2.28,-0.15,0.14,0.31,0.23,2.43,2.43,2.43
395.77,2.26,-0.16,2.26,-0.16,0.15,0.31,0.21,2.42,2.42,2.42
399.73,2.24,-0.17,2.24,-0.17,0.16,0.31,0.20,2.41,2.40,2.41
403.72,2.22,-0.17,2.23,-0.17,0.17,0.31,0.18,2.39,2.39,2.40
407.76,2.21,-0.17,2.21,-0.17,0.17,0.31,0.16,2.38,2.38,2.39
411.84,2.20,-0.16,2.20,-0.17,0.17,0.31,0.14,2.38,2.37,2.37
415.96,2.18,-0.17,2.19,-0.17,0.17,0.31,0.13,2.36,2.36,2.36
420.12,2.17,-0.17,2.17,-0.17,0.18,0.32,0.11,2.35,2.35,2.35
424.32,2.15,-0.18,2.15,-0.18,0.19,0.32,0.10,2.34,2.34,2.34
428.56,2.13,-0.19,2.13,-0.19,0.19,0.32,0.08,2.33,2.32,2.32
432.85,2.09,-0.21,2.10,-0.21,0.21,0.32,0.07,2.30,2.30,2.30
437.18,2.06,-0.23,2.07,-0.22,0.22,0.32,0.06,2.28,2.29,2.29
441.55,2.04,-0.24,2.04,-0.24,0.23,0.32,0.05,2.28,2.27,2.28
445.96,2.01,-0.25,2.01,-0.25,0.25,0.33,0.04,2.27,2.26,2.26
450.42,1.97,-0.27,1.98,-0.27,0.27,0.33,0.03,2.24,2.25,2.24
454.93,1.94,-0.29,1.94,-0.29,0.29,0.33,0.02,2.23,2.23,2.23
459.48,1.90,-0.31,1.90,-0.30,0.31,0.33,0.01,2.21,2.21,2.21
464.07,1.86,-0.33,1.86,-0.33,0.33,0.34,0.00,2.19,2.19,2.19
468.71,1.82,-0.34,1.82,-0.35,0.35,0.34,-0.00,2.17,2.17,2.17
473.40,1.78,-0.37,1.79,-0.37,0.36,0.34,-0.01,2.15,2.15,2.16
478.13,1.75,-0.38,1.75,-0.39,0.38,0.35,-0.01,2.14,2.14,2.14
482.91,1.72,-0.40,1.73,-0.40,0.40,0.35,-0.01,2.12,2.12,2.13
487.74,1.70,-0.40,1.70,-0.41,0.41,0.35,-0.01,2.11,2.11,2.11
492.62,1.67,-0.42,1.68,-0.42,0.42,0.36,-0.01,2.10,2.10,2.10
497.55,1.65,-0.43,1.66,-0.43,0.43,0.36,-0.01,2.09,2.09,2.09
502.52,1.63,-0.44,1.63,-0.44,0.44,0.37,-0.01,2.08,2.08,2.08
507.55,1.61,-0.45,1.62,-0.45,0.45,0.37,-0.00,2.07,2.07,2.07
512.62,1.59,-0.45,1.59,-0.46,0.46,0.37,0.01,2.05,2.05,2.05
517.75,1.56,-0.47,1.56,-0.47,0.46,0.38,0.01,2.03,2.03,2.04
522.93,1.53,-0.48,1.54,-0.47,0.47,0.38,0.02,2.00,2.01,2.01
528.16,1.51,-0.48,1.52,-0.48,0.47,0.39,0.03,1.99,1.99,1.99
533.44,1.50,-0.47,1.50,-0.48,0.48,0.39,0.04,1.98,1.98,1.97
538.77,1.47,-0.48,1.48,-0.47,0.48,0.40,0.06,1.96,1.96,1.95
544.16,1.45,-0.48,1.45,-0.48,0.48,0.40,0.07,1.94,1.94,1.93
549.60,1.42,-0.48,1.42,-0.49,0.49,0.41,0.09,1.91,1.91,1.90
555.10,1.38,-0.50,1.39,-0.49,0.49,0.42,0.10,1.88,1.88,1.88
