frequency,raw,error,smoothed,error_smoothed,equalization,parametric_eq,fixed_band_eq,equalized_raw,equalized_smoothed,target
20.00,-43.99,-40.19,-43.99,-40.19,6.00,5.65,2.73,-37.99,-37.99,-3.80
20.20,-43.78,-40.04,-43.78,-40.04,6.00,5.67,2.81,-37.78,-37.78,-3.74
20.40,-43.57,-39.88,-43.57,-39.89,6.00,5.68,2.89,-37.57,-37.57,-3.69
20.61,-43.37,-39.74,-43.37,-39.74,6.00,5.69,2.97,-37.37,-37.37,-3.63
20.81,-43.16,-39.58,-43.16,-39.58,6.00,5.71,3.05,-37.16,-37.16,-3.58
21.02,-42.95,-39.43,-42.95,-39.43,6.00,5.72,3.13,-36.95,-36.95,-3.52
21.23,-42.74,-39.27,-42.74,-39.27,6.00,5.73,3.22,-36.74,-36.74,-3.47
21.44,-42.52,-39.10,-42.52,-39.10,6.00,5.74,3.31,-36.52,-36.52,-3.42
21.66,-42.31,-38.94,-42.31,-38.94,6.00,5.75,3.40,-36.31,-36.31,-3.37
21.87,-42.09,-38.77,-42.09,-38.77,6.00,5.76,3.50,-36.09,-36.09,-3.32
22.09,-41.88,-38.61,-41.88,-38.60,6.00,5.78,3.60,-35.88,-35.88,-3.27
22.31,-41.66,-38.44,-41.66,-38.43,6.00,5.79,3.70,-35.66,-35.66,-3.22
22.54,-41.44,-38.26,-41.44,-38.26,6.00,5.80,3.80,-35.44,-35.44,-3.18
22.76,-41.23,-38.10,-41.23,-38.09,6.00,5.81,3.90,-35.23,-35.23,-3.13
22.99,-41.01,-37.92,-41.01,-37.92,6.00,5.82,4.01,-35.01,-35.01,-3.09
23.22,-40.79,-37.75,-40.79,-37.75,6.00,5.83,4.12,-34.79,-34.79,-3.04
23.45,-40.57,-37.57,-40.57,-37.57,6.00,5.84,4.23,-34.57,-34.57,-3.00
23.69,-40.34,-37.39,-40.34,-37.39,6.00,5.85,4.35,-34.34,-34.34,-2.95
23.92,-40.12,-37.20,-40.12,-37.21,6.00,5.86,4.47,-34.12,-34.12,-2.91
24.16,-39.90,-37.03,-39.90,-37.03,6.00,5.87,4.59,-33.90,-33.90,-2.86
24.40,-39.68,-36.85,-39.68,-36.85,6.00,5.88,4.71,-33.68,-33.68,-2.82
24.65,-39.46,-36.68,-39.46,-36.67,6.00,5.89,4.83,-33.46,-33.46,-2.79
24.89,-39.23,-36.48,-39.23,-36.49,6.00,5.90,4.95,-33.23,-33.23,-2.75
25.14,-39.01,-36.30,-39.00,-36.30,6.00,5.91,5.08,-33.01,-33.00,-2.71
25.39,-38.78,-36.11,-38.78,-36.11,6.00,5.91,5.21,-32.78,-32.78,-2.67
25.65,-38.55,-35.92,-38.55,-35.92,6.00,5.92,5.34,-32.55,-32.55,-2.63
25.91,-38.32,-35.74,-38.32,-35.74,6.00,5.93,5.46,-32.32,-32.32,-2.59
26.16,-38.10,-35.55,-38.10,-35.54,6.00,5.94,5.59,-32.10,-32.10,-2.55
26.43,-37.87,-35.35,-37.87,-35.36,6.00,5.95,5.72,-31.87,-31.87,-2.52
26.69,-37.64,-35.16,-37.65,-35.17,6.00,5.96,5.85,-31.64,-31.65,-2.48
26.96,-37.42,-34.98,-37.42,-34.97,6.00,5.96,5.97,-31.42,-31.42,-2.44
27.23,-37.19,-34.78,-37.19,-34.78,6.00,5.97,6.09,-31.19,-31.19,-2.41
27.50,-36.96,-34.59,-36.96,-34.59,6.00,5.98,6.21,-30.96,-30.96,-2.37
27.77,-36.73,-34.39,-36.73,-34.39,6.00,5.99,6.33,-30.73,-30.73,-2.33
28.05,-36.50,-34.20,-36.50,-34.20,6.00,6.00,6.44,-30.50,-30.50,-2.30
28.33,-36.27,-34.00,-36.27,-34.01,6.00,6.00,6.55,-30.27,-30.27,-2.26
28.62,-36.04,-33.82,-36.04,-33.81,6.00,6.01,6.65,-30.04,-30.04,-2.23
28.90,-35.81,-33.62,-35.81,-33.62,6.00,6.02,6.75,-29.81,-29.81,-2.19
29.19,-35.58,-33.42,-35.58,-33.43,6.00,6.02,6.84,-29.58,-29.58,-2.16
29.48,-35.35,-33.23,-35.35,-33.23,6.00,6.03,6.92,-29.35,-29.35,-2.12
29.78,-35.11,-33.03,-35.12,-33.03,6.00,6.04,6.99,-29.11,-29.12,-2.08
30.08,-34.88,-32.83,-34.89,-32.84,6.00,6.04,7.06,-28.88,-28.89,-2.05
30.38,-34.66,-32.65,-34.66,-32.64,6.00,6.05,7.11,-28.66,-28.66,-2.01
30.68,-34.43,-32.45,-34.44,-32.46,6.00,6.06,7.16,-28.43,-28.44,-1.98
30.99,-34.21,-32.27,-34.21,-32.27,6.00,6.06,7.19,-28.21,-28.21,-1.94
31.30,-33.99,-32.08,-33.99,-32.07,6.00,6.07,7.22,-27.99,-27.99,-1.91
31.61,-33.76,-31.87,-33.77,-31.88,6.00,6.07,7.24,-27.76,-27.77,-1.89
31.93,-33.54,-31.69,-33.54,-31.68,6.00,6.08,7.24,-27.54,-27.54,-1.86
32.24,-33.32,-31.49,-33.32,-31.49,6.00,6.09,7.24,-27.32,-27.32,-1.83
32.57,-33.09,-31.29,-33.09,-31.29,6.00,6.09,7.23,-27.09,-27.09,-1.80
32.89,-32.86,-31.09,-32.86,-31.09,6.00,6.10,7.21,-26.86,-26.86,-1.77
33.22,-32.64,-30.89,-32.64,-30.89,6.00,6.10,7.18,-26.64,-26.64,-1.75
33.55,-32.42,-30.69,-32.41,-30.69,6.00,6.11,7.14,-26.42,-26.41,-1.72
33.89,-32.19,-30.48,-32.19,-30.49,6.00,6.11,7.10,-26.19,-26.19,-1.71
34.23,-31.97,-30.28,-31.97,-30.29,6.00,6.12,7.05,-25.97,-25.97,-1.69
34.57,-31.75,-30.09,-31.75,-30.09,6.00,6.12,6.99,-25.75,-25.75,-1.66
34.92,-31.52,-29.88,-31.52,-29.88,6.00,6.13,6.93,-25.52,-25.52,-1.64
35.27,-31.30,-29.68,-31.30,-29.68,6.00,6.13,6.87,-25.30,-25.30,-1.62
35.62,-31.07,-29.47,-31.07,-29.47,6.00,6.14,6.80,-25.07,-25.07,-1.61
35.97,-30.85,-29.26,-30.85,-29.26,6.00,6.14,6.74,-24.85,-24.85,-1.59
36.33,-30.62,-29.04,-30.62,-29.05,6.00,6.15,6.67,-24.62,-24.62,-1.58
36.70,-30.40,-28.84,-30.40,-28.83,6.00,6.15,6.60,-24.40,-24.40,-1.56
37.06,-30.17,-28.62,-30.17,-28.62,6.00,6.16,6.52,-24.17,-24.17,-1.54
37.43,-29.95,-28.41,-29.95,-28.41,6.00,6.16,6.45,-23.95,-23.95,-1.54
37.81,-29.72,-28.20,-29.72,-28.20,6.00,6.16,6.38,-23.72,-23.72,-1.52
38.19,-29.50,-27.99,-29.50,-27.99,6.00,6.17,6.31,-23.50,-23.50,-1.51
38.57,-29.27,-27.77,-29.27,-27.77,6.00,6.17,6.25,-23.27,-23.27,-1.50
38.95,-29.05,-27.55,-29.05,-27.55,6.00,6.18,6.18,-23.05,-23.05,-1.50
39.34,-28.82,-27.33,-28.82,-27.33,6.00,6.18,6.12,-22.82,-22.82,-1.49
39.74,-28.60,-27.12,-28.60,-27.11,6.00,6.18,6.06,-22.60,-22.60,-1.48
40.14,-28.37,-26.89,-28.37,-26.89,6.00,6.19,6.00,-22.37,-22.37,-1.49
40.54,-28.15,-26.67,-28.15,-26.67,6.00,6.19,5.95,-22.15,-22.15,-1.48
40.94,-27.92,-26.45,-27.92,-26.44,6.00,6.19,5.90,-21.92,-21.92,-1.47
41.35,-27.69,-26.21,-27.69,-26.22,6.00,6.20,5.86,-21.69,-21.69,-1.48
41.76,-27.46,-25.99,-27.46,-25.98,6.00,6.20,5.81,-21.46,-21.46,-1.47
42.18,-27.23,-25.75,-27.23,-25.75,6.00,6.20,5.77,-21.23,-21.23,-1.47
42.60,-27.00,-25.53,-27.00,-25.53,6.00,6.21,5.74,-21.00,-21.00,-1.47
43.03,-26.77,-25.30,-26.77,-25.30,6.00,6.21,5.71,-20.77,-20.77,-1.47
43.46,-26.55,-25.08,-26.55,-25.08,6.00,6.21,5.68,-20.55,-20.55,-1.47
43.90,-26.33,-24.86,-26.33,-24.86,6.00,6.22,5.66,-20.33,-20.33,-1.47
44.33,-26.11,-24.64,-26.11,-24.64,6.00,6.22,5.65,-20.11,-20.11,-1.47
44.78,-25.88,-24.41,-25.88,-24.42,6.00,6.22,5.63,-19.88,-19.88,-1.47
45.23,-25.66,-24.20,-25.66,-24.19,6.00,6.22,5.62,-19.66,-19.66,-1.47
45.68,-25.44,-23.97,-25.44,-23.97,6.00,6.23,5.62,-19.44,-19.44,-1.47
46.13,-25.22,-23.74,-25.22,-23.75,6.00,6.23,5.62,-19.22,-19.22,-1.48
46.60,-25.00,-23.53,-25.00,-23.52,6.00,6.23,5.62,-19.00,-19.00,-1.47
47.06,-24.78,-23.30,-24.78,-23.30,6.00,6.23,5.63,-18.78,-18.78,-1.48
47.53,-24.57,-23.08,-24.57,-23.09,6.00,6.24,5.64,-18.57,-18.57,-1.49
48.01,-24.37,-22.89,-24.36,-22.88,6.00,6.24,5.66,-18.37,-18.36,-1.48
48.49,-24.15,-22.66,-24.15,-22.66,6.00,6.24,5.68,-18.15,-18.15,-1.49
48.97,-23.94,-22.44,-23.94,-22.45,6.00,6.24,5.70,-17.94,-17.94,-1.50
49.46,-23.73,-22.24,-23.73,-22.24,6.00,6.25,5.73,-17.73,-17.73,-1.49
49.96,-23.53,-22.03,-23.53,-22.03,6.00,6.25,5.75,-17.53,-17.53,-1.50
50.46,-23.33,-21.83,-23.33,-21.83,6.00,6.25,5.79,-17.33,-17.33,-1.50
50.96,-23.14,-21.63,-23.14,-21.63,6.00,6.25,5.82,-17.14,-17.14,-1.51
51.47,-22.94,-21.44,-22.94,-21.44,6.00,6.25,5.86,-16.94,-16.94,-1.50
51.99,-22.75,-21.24,-22.75,-21.24,6.00,6.25,5.90,-16.75,-16.75,-1.51
52.51,-22.56,-21.04,-22.56,-21.05,6.00,6.26,5.94,-16.56,-16.56,-1.52
53.03,-22.38,-20.86,-22.38,-20.86,6.00,6.26,5.98,-16.38,-16.38,-1.52
53.56,-22.20,-20.67,-22.20,-20.67,6.00,6.26,6.02,-16.20,-16.20,-1.53
54.10,-22.03,-20.49,-22.02,-20.49,6.00,6.26,6.06,-16.03,-16.02,-1.54
54.64,-21.85,-20.30,-21.85,-20.30,6.00,6.26,6.10,-15.85,-15.85,-1.55
55.18,-21.67,-20.11,-21.68,-20.12,6.00,6.26,6.15,-15.67,-15.68,-1.56
55.74,-21.51,-19.94,-21.51,-19.93,6.00,6.26,6.19,-15.51,-15.51,-1.57
56.29,-21.34,-19.75,-21.34,-19.75,6.00,6.27,6.23,-15.34,-15.34,-1.59
56.86,-21.18,-19.58,-21.18,-19.57,6.00,6.27,6.26,-15.18,-15.18,-1.60
57.42,-21.02,-19.39,-21.02,-19.39,6.00,6.27,6.30,-15.02,-15.02,-1.62
58.00,-20.85,-19.20,-20.85,-19.21,6.00,6.27,6.33,-14.85,-14.85,-1.65
58.58,-20.69,-19.02,-20.69,-19.02,6.00,6.27,6.36,-14.69,-14.69,-1.67
59.16,-20.53,-18.84,-20.53,-18.83,6.00,6.27,6.39,-14.53,-14.53,-1.69
59.76,-20.37,-18.65,-20.37,-18.65,6.00,6.27,6.41,-14.37,-14.37,-1.72
60.35,-20.20,-18.45,-20.20,-18.46,6.00,6.27,6.42,-14.20,-14.20,-1.75
60.96,-20.04,-18.27,-20.04,-18.26,6.00,6.27,6.44,-14.04,-14.04,-1.78
61.57,-19.88,-18.08,-19.88,-18.07,6.00,6.27,6.44,-13.88,-13.88,-1.80
62.18,-19.72,-17.88,-19.72,-17.89,6.00,6.28,6.44,-13.72,-13.72,-1.84
62.80,-19.57,-17.71,-19.57,-17.70,6.00,6.28,6.44,-13.57,-13.57,-1.86
63.43,-19.41,-17.52,-19.41,-17.52,6.00,6.28,6.43,-13.41,-13.41,-1.89
64.07,-19.25,-17.34,-19.25,-17.34,6.00,6.28,6.42,-13.25,-13.25,-1.92
64.71,-19.10,-17.16,-19.10,-17.16,6.00,6.28,6.40,-13.10,-13.10,-1.94
65.35,-18.94,-16.98,-18.94,-16.98,6.00,6.28,6.38,-12.94,-12.94,-1.96
66.01,-18.79,-16.81,-18.79,-16.81,6.00,6.28,6.35,-12.79,-12.79,-1.98
66.67,-18.64,-16.64,-18.64,-16.64,6.00,6.28,6.32,-12.64,-12.64,-2.00
67.33,-18.48,-16.46,-18.48,-16.47,6.00,6.28,6.28,-12.48,-12.48,-2.02
68.01,-18.33,-16.30,-18.32,-16.30,6.00,6.28,6.24,-12.33,-12.32,-2.03
68.69,-18.16,-16.12,-18.17,-16.13,6.00,6.28,6.20,-12.16,-12.17,-2.04
69.37,-18.01,-15.96,-18.01,-15.96,6.00,6.28,6.15,-12.01,-12.01,-2.05
70.07,-17.86,-15.80,-17.86,-15.80,6.00,6.28,6.10,-11.86,-11.86,-2.06
70.77,-17.71,-15.64,-17.71,-15.64,6.00,6.28,6.06,-11.71,-11.71,-2.07
71.48,-17.57,-15.49,-17.57,-15.49,6.00,6.28,6.01,-11.57,-11.57,-2.08
72.19,-17.43,-15.34,-17.43,-15.34,6.00,6.28,5.95,-11.43,-11.43,-2.09
72.91,-17.29,-15.18,-17.29,-15.18,6.00,6.28,5.90,-11.29,-11.29,-2.11
73.64,-17.14,-15.02,-17.14,-15.02,6.00,6.28,5.85,-11.14,-11.14,-2.12
74.38,-16.99,-14.85,-16.99,-14.85,6.00,6.28,5.80,-10.99,-10.99,-2.14
75.12,-16.84,-14.69,-16.84,-14.69,6.00,6.28,5.75,-10.84,-10.84,-2.15
75.87,-16.70,-14.53,-16.70,-14.53,6.00,6.28,5.71,-10.70,-10.70,-2.17
76.63,-16.57,-14.38,-16.56,-14.37,6.00,6.28,5.66,-10.57,-10.56,-2.19
77.40,-16.42,-14.21,-16.42,-14.21,6.00,6.28,5.62,-10.42,-10.42,-2.21
78.17,-16.28,-14.05,-16.29,-14.06,6.00,6.28,5.58,-10.28,-10.29,-2.23
78.95,-16.16,-13.91,-16.15,-13.90,6.00,6.27,5.54,-10.16,-10.15,-2.25
79.74,-16.02,-13.75,-16.02,-13.75,6.00,6.27,5.50,-10.02,-10.02,-2.27
80.54,-15.89,-13.60,-15.89,-13.60,6.00,6.27,5.47,-9.89,-9.89,-2.29
81.35,-15.75,-13.44,-15.75,-13.44,6.00,6.27,5.44,-9.75,-9.75,-2.31
82.16,-15.62,-13.29,-15.62,-13.28,6.00,6.27,5.41,-9.62,-9.62,-2.33
82.98,-15.48,-13.13,-15.48,-13.13,6.00,6.27,5.39,-9.48,-9.48,-2.35
83.81,-15.35,-12.98,-15.36,-12.99,6.00,6.27,5.37,-9.35,-9.36,-2.37
84.65,-15.23,-12.85,-15.23,-12.85,6.00,6.27,5.36,-9.23,-9.23,-2.38
85.50,-15.11,-12.72,-15.10,-12.71,6.00,6.27,5.34,-9.11,-9.10,-2.39
86.35,-14.97,-12.56,-14.98,-12.57,6.00,6.27,5.34,-8.97,-8.98,-2.41
87.22,-14.84,-12.42,-14.84,-12.42,6.00,6.26,5.33,-8.84,-8.84,-2.42
88.09,-14.71,-12.27,-14.71,-12.27,6.00,6.26,5.33,-8.71,-8.71,-2.44
88.97,-14.57,-12.12,-14.58,-12.13,6.00,6.26,5.34,-8.57,-8.58,-2.45
89.86,-14.46,-11.99,-14.46,-11.99,6.00,6.26,5.35,-8.46,-8.46,-2.47
90.76,-14.35,-11.87,-14.34,-11.86,6.00,6.26,5.36,-8.35,-8.34,-2.48
91.66,-14.23,-11.73,-14.23,-11.73,6.00,6.26,5.37,-8.23,-8.23,-2.50
92.58,-14.12,-11.60,-14.12,-11.60,6.00,6.26,5.39,-8.12,-8.12,-2.52
93.51,-14.01,-11.47,-14.01,-11.47,6.00,6.25,5.42,-8.01,-8.01,-2.54
94.44,-13.90,-11.34,-13.90,-11.34,6.00,6.25,5.45,-7.90,-7.90,-2.56
95.39,-13.79,-11.20,-13.80,-11.21,6.00,6.25,5.48,-7.79,-7.80,-2.59
96.34,-13.70,-11.08,-13.70,-11.08,6.00,6.25,5.51,-7.70,-7.70,-2.62
97.30,-13.61,-10.95,-13.60,-10.95,6.00,6.25,5.55,-7.61,-7.60,-2.66
98.28,-13.50,-10.82,-13.50,-10.82,6.00,6.24,5.59,-7.50,-7.50,-2.68
99.26,-13.40,-10.68,-13.40,-10.68,6.00,6.24,5.63,-7.40,-7.40,-2.72
100.25,-13.31,-10.55,-13.30,-10.54,6.00,6.24,5.68,-7.31,-7.30,-2.76
101.25,-13.21,-10.41,-13.21,-10.41,6.00,6.24,5.73,-7.21,-7.21,-2.80
102.27,-13.13,-10.29,-13.14,-10.30,6.00,6.24,5.78,-7.13,-7.14,-2.84
103.29,-13.08,-10.20,-13.07,-10.19,6.00,6.23,5.84,-7.08,-7.07,-2.88
104.32,-13.02,-10.09,-13.01,-10.08,6.00,6.23,5.89,-7.02,-7.01,-2.93
105.37,-12.93,-9.96,-12.94,-9.97,6.00,6.23,5.95,-6.93,-6.94,-2.97
106.42,-12.85,-9.83,-12.85,-9.83,6.00,6.23,6.00,-6.85,-6.85,-3.02
107.48,-12.76,-9.70,-12.76,-9.70,6.00,6.22,6.06,-6.76,-6.76,-3.06
108.56,-12.67,-9.56,-12.67,-9.56,6.00,6.22,6.12,-6.67,-6.67,-3.11
109.64,-12.58,-9.43,-12.59,-9.44,6.00,6.22,6.17,-6.58,-6.59,-3.15
110.74,-12.51,-9.31,-12.51,-9.32,6.00,6.21,6.23,-6.51,-6.51,-3.20
111.85,-12.44,-9.21,-12.44,-9.20,6.00,6.21,6.28,-6.44,-6.44,-3.23
112.97,-12.37,-9.10,-12.36,-9.09,6.00,6.21,6.33,-6.37,-6.36,-3.27
114.10,-12.29,-8.98,-12.29,-8.98,6.00,6.20,6.38,-6.29,-6.29,-3.31
115.24,-12.22,-8.87,-12.23,-8.88,6.00,6.20,6.43,-6.22,-6.23,-3.35
116.39,-12.18,-8.79,-12.17,-8.79,6.00,6.20,6.47,-6.18,-6.17,-3.39
117.55,-12.12,-8.70,-12.12,-8.70,6.00,6.19,6.51,-6.12,-6.12,-3.42
118.73,-12.05,-8.60,-12.05,-8.60,6.00,6.19,6.54,-6.05,-6.05,-3.45
119.92,-11.98,-8.50,-11.98,-8.50,6.00,6.19,6.57,-5.98,-5.98,-3.48
121.12,-11.91,-8.40,-11.93,-8.42,6.00,6.18,6.59,-5.91,-5.93,-3.51
122.33,-11.88,-8.36,-11.87,-8.35,6.00,6.18,6.61,-5.88,-5.87,-3.52
123.55,-11.83,-8.28,-11.81,-8.27,6.00,6.18,6.62,-5.83,-5.81,-3.55
124.79,-11.75,-8.18,-11.76,-8.18,6.00,6.17,6.63,-5.75,-5.76,-3.57
126.03,-11.68,-8.09,-11.69,-8.10,6.00,6.17,6.63,-5.68,-5.69,-3.59
127.29,-11.65,-8.04,-11.65,-8.03,6.00,6.16,6.62,-5.65,-5.65,-3.61
128.57,-11.61,-7.98,-11.61,-7.98,6.00,6.16,6.61,-5.61,-5.61,-3.63
129.85,-11.57,-7.92,-11.57,-7.92,6.00,6.15,6.59,-5.57,-5.57,-3.65
131.15,-11.51,-7.85,-11.52,-7.85,6.00,6.15,6.56,-5.51,-5.52,-3.66
132.46,-11.47,-7.78,-11.47,-7.78,6.00,6.15,6.53,-5.47,-5.47,-3.69
133.79,-11.42,-7.71,-11.42,-7.71,6.00,6.14,6.50,-5.42,-5.42,-3.71
135.12,-11.37,-7.64,-11.37,-7.64,6.00,6.14,6.46,-5.37,-5.37,-3.73
136.48,-11.33,-7.58,-11.33,-7.57,6.00,6.13,6.42,-5.33,-5.33,-3.75
137.84,-11.28,-7.51,-11.28,-7.51,6.00,6.13,6.38,-5.28,-5.28,-3.77
139.22,-11.24,-7.44,-11.24,-7.44,6.00,6.12,6.33,-5.24,-5.24,-3.80
140.61,-11.20,-7.38,-11.20,-7.38,6.00,6.11,6.28,-5.20,-5.20,-3.82
142.02,-11.15,-7.30,-11.16,-7.32,6.00,6.11,6.22,-5.15,-5.16,-3.85
143.44,-11.14,-7.27,-11.13,-7.26,6.00,6.10,6.17,-5.14,-5.13,-3.87
144.87,-11.10,-7.21,-11.10,-7.21,6.00,6.10,6.12,-5.10,-5.10,-3.89
146.32,-11.08,-7.16,-11.08,-7.16,6.00,6.09,6.06,-5.08,-5.08,-3.92
147.78,-11.04,-7.10,-11.04,-7.10,6.00,6.09,6.01,-5.04,-5.04,-3.94
149.26,-11.00,-7.04,-11.00,-7.04,6.00,6.08,5.96,-5.00,-5.00,-3.96
150.75,-10.96,-6.97,-10.96,-6.98,6.00,6.07,5.90,-4.96,-4.96,-3.99
152.26,-10.93,-6.92,-10.93,-6.92,6.00,6.07,5.85,-4.93,-4.93,-4.01
153.78,-10.90,-6.86,-10.90,-6.87,6.00,6.06,5.80,-4.90,-4.90,-4.04
155.32,-10.87,-6.82,-10.87,-6.82,6.00,6.05,5.76,-4.87,-4.87,-4.05
156.88,-10.83,-6.76,-10.84,-6.76,6.00,6.05,5.71,-4.83,-4.84,-4.07
158.44,-10.81,-6.72,-10.80,-6.71,6.00,6.04,5.67,-4.81,-4.80,-4.09
160.03,-10.77,-6.66,-10.78,-6.66,6.00,6.03,5.63,-4.77,-4.78,-4.11
161.63,-10.75,-6.62,-10.75,-6.62,6.00,6.03,5.60,-4.75,-4.75,-4.13
163.24,-10.74,-6.59,-10.73,-6.59,6.00,6.02,5.56,-4.74,-4.73,-4.15
164.88,-10.72,-6.55,-10.72,-6.56,6.00,6.01,5.54,-4.72,-4.72,-4.17
166.53,-10.71,-6.53,-10.71,-6.53,6.00,6.00,5.51,-4.71,-4.71,-4.18
168.19,-10.70,-6.51,-10.70,-6.50,6.00,5.99,5.49,-4.70,-4.70,-4.19
169.87,-10.68,-6.47,-10.69,-6.48,6.00,5.99,5.47,-4.68,-4.69,-4.21
171.57,-10.67,-6.45,-10.67,-6.45,6.00,5.98,5.46,-4.67,-4.67,-4.22
173.29,-10.66,-6.43,-10.65,-6.42,6.00,5.97,5.45,-4.66,-4.65,-4.23
175.02,-10.62,-6.39,-10.63,-6.39,6.00,5.96,5.45,-4.62,-4.63,-4.23
176.77,-10.59,-6.34,-10.60,-6.35,6.00,5.95,5.45,-4.59,-4.60,-4.25
178.54,-10.57,-6.33,-10.56,-6.32,6.00,5.94,5.45,-4.57,-4.56,-4.24
180.32,-10.53,-6.28,-10.53,-6.28,6.00,5.93,5.46,-4.53,-4.53,-4.25
182.13,-10.50,-6.25,-10.50,-6.24,6.00,5.92,5.47,-4.50,-4.50,-4.25
183.95,-10.46,-6.20,-10.46,-6.21,6.00,5.91,5.49,-4.46,-4.46,-4.26
185.79,-10.43,-6.18,-10.43,-6.18,6.00,5.90,5.50,-4.43,-4.43,-4.25
187.65,-10.41,-6.15,-10.40,-6.15,6.00,5.89,5.53,-4.41,-4.40,-4.26
189.52,-10.38,-6.12,-10.39,-6.13,6.00,5.88,5.56,-4.38,-4.39,-4.26
191.42,-10.37,-6.11,-10.37,-6.11,6.00,5.87,5.59,-4.37,-4.37,-4.26
193.33,-10.36,-6.10,-10.36,-6.09,6.00,5.86,5.62,-4.36,-4.36,-4.26
195.27,-10.35,-6.08,-10.36,-6.09,6.00,5.85,5.66,-4.35,-4.36,-4.27
197.22,-10.36,-6.09,-10.36,-6.09,6.00,5.84,5.70,-4.36,-4.36,-4.27
199.19,-10.37,-6.10,-10.37,-6.10,6.00,5.83,5.74,-4.37,-4.37,-4.27
201.18,-10.38,-6.10,-10.38,-6.10,6.00,5.82,5.79,-4.38,-4.38,-4.28
203.19,-10.38,-6.10,-10.38,-6.10,6.00,5.80,5.84,-4.38,-4.38,-4.28
205.23,-10.38,-6.09,-10.38,-6.09,6.00,5.79,5.89,-4.38,-4.38,-4.29
207.28,-10.38,-6.08,-10.38,-6.09,6.00,5.78,5.94,-4.38,-4.38,-4.30
209.35,-10.38,-6.08,-10.38,-6.08,6.00,5.77,6.00,-4.38,-4.38,-4.30
211.44,-10.38,-6.07,-10.38,-6.07,6.00,5.75,6.05,-4.38,-4.38,-4.31
213.56,-10.38,-6.07,-10.38,-6.07,6.00,5.74,6.11,-4.38,-4.38,-4.31
215.69,-10.38,-6.07,-10.38,-6.06,6.00,5.73,6.16,-4.38,-4.38,-4.31
217.85,-10.38,-6.06,-10.38,-6.06,6.00,5.71,6.21,-4.38,-4.38,-4.32
220.03,-10.38,-6.05,-10.38,-6.05,6.00,5.70,6.27,-4.38,-4.38,-4.33
222.23,-10.38,-6.04,-10.38,-6.05,6.00,5.68,6.32,-4.38,-4.38,-4.34
224.45,-10.38,-6.04,-10.39,-6.04,6.01,5.67,6.37,-4.37,-4.38,-4.34
226.70,-10.40,-6.05,-10.39,-6.05,6.01,5.65,6.41,-4.39,-4.39,-4.35
228.96,-10.40,-6.04,-10.40,-6.04,6.00,5.64,6.45,-4.40,-4.40,-4.36
231.25,-10.40,-6.04,-10.40,-6.03,6.00,5.62,6.49,-4.40,-4.40,-4.36
233.57,-10.39,-6.01,-10.39,-6.01,5.98,5.61,6.52,-4.41,-4.40,-4.38
235.90,-10.37,-5.99,-10.37,-5.99,5.97,5.59,6.55,-4.40,-4.41,-4.38
238.26,-10.35,-5.95,-10.35,-5.95,5.94,5.57,6.57,-4.41,-4.41,-4.40
240.64,-10.32,-5.91,-10.32,-5.91,5.91,5.55,6.58,-4.41,-4.41,-4.41
243.05,-10.29,-5.87,-10.29,-5.87,5.87,5.54,6.59,-4.42,-4.42,-4.42
245.48,-10.26,-5.82,-10.26,-5.83,5.84,5.52,6.59,-4.42,-4.42,-4.44
247.93,-10.23,-5.79,-10.23,-5.79,5.80,5.50,6.58,-4.43,-4.44,-4.44
250.41,-10.21,-5.75,-10.21,-5.75,5.76,5.48,6.56,-4.45,-4.45,-4.46
252.92,-10.18,-5.72,-10.18,-5.72,5.72,5.46,6.54,-4.46,-4.46,-4.46
255.45,-10.16,-5.68,-10.16,-5.69,5.69,5.44,6.51,-4.47,-4.48,-4.48
258.00,-10.15,-5.67,-10.14,-5.66,5.66,5.42,6.47,-4.49,-4.49,-4.48
260.58,-10.12,-5.63,-10.12,-5.63,5.63,5.40,6.42,-4.49,-4.49,-4.49
263.19,-10.10,-5.60,-10.10,-5.61,5.61,5.38,6.37,-4.49,-4.49,-4.50
265.82,-10.09,-5.59,-10.09,-5.58,5.60,5.36,6.31,-4.49,-4.49,-4.50
268.48,-10.08,-5.56,-10.08,-5.57,5.58,5.34,6.25,-4.50,-4.50,-4.52
271.16,-10.08,-5.56,-10.09,-5.56,5.58,5.32,6.18,-4.50,-4.51,-4.52
273.87,-10.10,-5.57,-10.10,-5.56,5.57,5.29,6.10,-4.53,-4.53,-4.53
276.61,-10.11,-5.56,-10.11,-5.57,5.56,5.27,6.02,-4.55,-4.55,-4.55
279.38,-10.11,-5.56,-10.11,-5.56,5.54,5.25,5.94,-4.57,-4.57,-4.55
282.17,-10.10,-5.54,-10.10,-5.54,5.52,5.22,5.85,-4.58,-4.58,-4.56
284.99,-10.09,-5.52,-10.08,-5.51,5.50,5.20,5.76,-4.59,-4.58,-4.57
287.84,-10.05,-5.46,-10.05,-5.47,5.47,5.17,5.67,-4.58,-4.59,-4.59
290.72,-10.02,-5.42,-10.02,-5.42,5.43,5.14,5.58,-4.59,-4.59,-4.60
293.63,-9.99,-5.38,-9.99,-5.38,5.39,5.12,5.48,-4.60,-4.60,-4.61
296.57,-9.96,-5.34,-9.96,-5.34,5.34,5.09,5.39,-4.62,-4.62,-4.62
299.53,-9.94,-5.30,-9.94,-5.30,5.30,5.06,5.29,-4.64,-4.64,-4.64
302.53,-9.91,-5.26,-9.91,-5.26,5.25,5.03,5.20,-4.66,-4.65,-4.65
305.55,-9.87,-5.21,-9.87,-5.21,5.21,5.01,5.10,-4.66,-4.66,-4.66
308.61,-9.84,-5.17,-9.84,-5.17,5.17,4.98,5.01,-4.67,-4.67,-4.67
311.69,-9.81,-5.12,-9.82,-5.13,5.14,4.95,4.92,-4.67,-4.68,-4.69
314.81,-9.80,-5.10,-9.80,-5.10,5.10,4.91,4.83,-4.70,-4.69,-4.70
317.96,-9.78,-5.07,-9.78,-5.07,5.07,4.88,4.74,-4.71,-4.71,-4.71
321.14,-9.76,-5.05,-9.76,-5.05,5.05,4.85,4.66,-4.71,-4.71,-4.71
324.35,-9.74,-5.02,-9.74,-5.02,5.02,4.82,4.58,-4.72,-4.72,-4.72
327.59,-9.72,-4.99,-9.72,-5.00,5.00,4.78,4.50,-4.72,-4.73,-4.73
330.87,-9.71,-4.97,-9.71,-4.97,4.97,4.75,4.42,-4.74,-4.74,-4.74
334.18,-9.69,-4.95,-9.69,-4.95,4.94,4.71,4.34,-4.75,-4.74,-4.74
337.52,-9.66,-4.92,-9.66,-4.92,4.92,4.68,4.27,-4.74,-4.75,-4.74
340.90,-9.64,-4.89,-9.64,-4.89,4.89,4.64,4.20,-4.75,-4.75,-4.75
344.30,-9.61,-4.86,-9.61,-4.86,4.85,4.60,4.14,-4.76,-4.75,-4.75
347.75,-9.58,-4.83,-9.58,-4.82,4.82,4.56,4.08,-4.76,-4.76,-4.75
351.23,-9.54,-4.79,-9.54,-4.79,4.78,4.52,4.02,-4.76,-4.76,-4.76
354.74,-9.51,-4.75,-9.51,-4.75,4.75,4.48,3.96,-4.76,-4.76,-4.76
358.28,-9.48,-4.72,-9.48,-4.72,4.72,4.44,3.91,-4.76,-4.76,-4.76
361.87,-9.45,-4.69,-9.45,-4.69,4.70,4.40,3.86,-4.75,-4.75,-4.76
365.49,-9.42,-4.66,-9.42,-4.66,4.68,4.36,3.81,-4.74,-4.74,-4.76
369.14,-9.40,-4.64,-9.41,-4.65,4.66,4.31,3.77,-4.74,-4.74,-4.76
372.83,-9.40,-4.65,-9.40,-4.65,4.65,4.27,3.73,-4.75,-4.75,-4.75
