frequency,raw
20.00,-4.39
20.20,-4.32
20.40,-4.24
20.61,-4.17
20.81,-4.09
21.02,-4.01
21.23,-3.91
21.44,-3.82
21.66,-3.71
21.87,-3.62
22.09,-3.54
22.31,-3.49
22.54,-3.44
22.76,-3.39
22.99,-3.35
23.22,-3.28
23.45,-3.22
23.69,-3.16
23.92,-3.10
24.16,-3.04
24.40,-2.98
24.65,-2.92
24.89,-2.86
25.14,-2.81
25.39,-2.75
25.65,-2.69
25.91,-2.63
26.16,-2.58
26.43,-2.55
26.69,-2.51
26.96,-2.47
27.23,-2.40
27.50,-2.32
27.77,-2.25
28.05,-2.17
28.33,-2.10
28.62,-2.04
28.90,-1.96
29.19,-1.94
29.48,-1.94
29.78,-1.93
30.08,-1.90
30.38,-1.84
30.68,-1.77
30.99,-1.70
31.30,-1.65
31.61,-1.60
31.93,-1.55
32.24,-1.51
32.57,-1.47
32.89,-1.44
33.22,-1.39
33.55,-1.32
33.89,-1.24
34.23,-1.22
34.57,-1.22
34.92,-1.22
35.27,-1.17
35.62,-1.10
35.97,-1.02
36.33,-0.98
36.70,-0.94
37.06,-0.90
37.43,-0.86
37.81,-0.84
38.19,-0.79
38.57,-0.73
38.95,-0.68
39.34,-0.67
39.74,-0.66
40.14,-0.62
40.54,-0.53
40.94,-0.44
41.35,-0.43
41.76,-0.44
42.18,-0.42
42.60,-0.38
43.03,-0.33
43.46,-0.24
43.90,-0.16
44.33,-0.14
44.78,-0.14
45.23,-0.14
45.68,-0.13
46.13,-0.11
46.60,-0.09
47.06,-0.06
47.53,0.00
48.01,0.07
48.49,0.08
48.97,0.11
49.46,0.15
49.96,0.19
50.46,0.19
50.96,0.17
51.47,0.21
51.99,0.25
52.51,0.33
53.03,0.40
53.56,0.39
54.10,0.38
54.64,0.38
55.18,0.41
55.74,0.50
56.29,0.51
56.86,0.46
57.42,0.44
58.00,0.42
58.58,0.51
59.16,0.60
59.76,0.66
60.35,0.69
60.96,0.69
61.57,0.68
62.18,0.67
62.80,0.68
63.43,0.68
64.07,0.70
64.71,0.82
65.35,0.82
66.01,0.72
66.67,0.85
67.33,0.91
68.01,0.92
68.69,0.92
69.37,0.93
70.07,0.94
70.77,1.05
71.48,1.08
72.19,1.08
72.91,1.05
73.64,1.05
74.38,1.05
75.12,1.05
75.87,1.06
76.63,1.06
77.40,1.06
78.17,1.08
78.95,1.16
79.74,1.21
80.54,1.25
81.35,1.26
82.16,1.26
82.98,1.27
83.81,1.27
84.65,1.27
85.50,1.28
86.35,1.28
87.22,1.29
88.09,1.29
88.97,1.31
89.86,1.41
90.76,1.50
91.66,1.46
92.58,1.44
93.51,1.45
94.44,1.46
95.39,1.47
96.34,1.48
97.30,1.49
98.28,1.49
99.26,1.50
100.25,1.50
101.25,1.50
102.27,1.51
103.29,1.52
104.32,1.52
105.37,1.52
106.42,1.52
107.48,1.51
108.56,1.51
109.64,1.51
110.74,1.52
111.85,1.69
112.97,1.72
114.10,1.60
115.24,1.51
116.39,1.54
117.55,1.60
118.73,1.56
119.92,1.58
121.12,1.57
122.33,1.69
123.55,1.77
124.79,1.78
126.03,1.80
127.29,1.80
128.57,1.80
129.85,1.81
131.15,1.81
132.46,1.82
133.79,1.83
135.12,1.84
136.48,1.84
137.84,1.85
139.22,1.86
140.61,1.87
142.02,1.88
143.44,1.89
144.87,1.89
146.32,1.90
147.78,1.92
149.26,1.93
150.75,1.94
152.26,1.95
153.78,1.95
155.32,1.96
156.88,1.97
158.44,1.97
160.03,1.98
161.63,1.99
163.24,2.00
164.88,2.00
166.53,2.01
168.19,2.01
169.87,2.01
171.57,2.02
173.29,2.02
175.02,2.03
176.77,1.97
178.54,1.85
180.32,1.88
182.13,1.86
183.95,1.83
185.79,2.05
187.65,2.08
189.52,1.92
191.42,1.88
193.33,1.98
195.27,2.02
197.22,2.04
199.19,2.05
201.18,2.06
203.19,2.06
205.23,2.06
207.28,2.06
209.35,2.07
211.44,2.07
213.56,2.07
215.69,2.07
217.85,2.07
220.03,2.08
222.23,2.07
224.45,2.10
226.70,2.18
228.96,2.10
231.25,2.00
233.57,1.98
235.90,1.99
238.26,2.00
240.64,2.00
243.05,2.00
245.48,2.01
247.93,2.03
250.41,2.04
252.92,2.05
255.45,2.05
258.00,2.06
260.58,2.06
263.19,2.06
265.82,2.07
268.48,2.07
271.16,2.07
273.87,2.08
276.61,2.08
279.38,2.08
282.17,2.09
284.99,2.10
287.84,2.11
290.72,2.21
293.63,2.17
296.57,2.07
299.53,2.05
302.53,2.07
305.55,2.09
308.61,2.09
311.69,2.10
314.81,2.11
317.96,2.12
321.14,2.12
324.35,2.17
327.59,2.22
330.87,2.08
334.18,2.03
337.52,2.03
340.90,2.04
344.30,2.04
347.75,2.04
351.23,2.04
354.74,1.98
358.28,1.91
361.87,1.87
365.49,1.87
369.14,1.92
372.83,1.85
376.56,1.79
380.33,1.89
384.13,1.90
387.97,1.94
391.85,2.00
395.77,2.02
399.73,2.09
403.72,2.18
407.76,2.34
411.84,2.56
415.96,2.75
420.12,2.90
424.32,3.01
428.56,3.09
432.85,3.01
437.18,2.87
441.55,2.81
445.96,2.78
450.42,2.71
454.93,2.73
459.48,2.78
464.07,2.77
468.71,2.49
473.40,2.26
478.13,2.42
482.91,2.34
487.74,2.11
492.62,2.20
497.55,2.29
502.52,2.15
507.55,2.09
512.62,2.03
517.75,2.00
522.93,2.19
528.16,2.25
533.44,2.27
538.77,2.28
544.16,2.19
549.60,2.17
555.10,2.31
560.65,2.36
566.25,2.35
571.92,2.35
577.64,2.34
583.41,2.35
589.25,2.36
595.14,2.37
601.09,2.38
607.10,2.39
613.17,2.39
619.30,2.32
625.50,2.22
631.75,2.27
638.07,2.32
644.45,2.37
650.89,2.27
657.40,2.18
663.98,2.17
670.62,2.10
677.32,2.04
684.10,2.00
690.94,1.99
697.85,1.91
704.83,1.85
711.87,1.77
718.99,1.80
726.18,1.76
733.44,1.51
740.78,1.37
748.19,1.40
755.67,1.34
763.23,1.26
770.86,1.14
778.57,1.05
786.35,0.96
794.22,0.86
802.16,0.79
810.18,0.70
818.28,0.58
826.46,0.43
834.73,0.34
843.08,0.25
851.51,0.14
860.02,0.03
868.62,-0.05
877.31,-0.24
886.08,-0.32
894.94,-0.22
903.89,-0.23
912.93,-0.34
922.06,-0.45
931.28,-0.59
940.59,-0.60
950.00,-0.80
959.50,-0.95
969.09,-0.87
978.78,-0.83
988.57,-0.97
998.46,-1.06
1008.44,-1.10
1018.53,-1.08
1028.71,-1.06
1039.00,-1.16
1049.39,-1.24
1059.88,-1.25
1070.48,-1.18
1081.19,-1.14
1092.00,-1.21
1102.92,-1.23
1113.95,-1.19
1125.09,-1.18
1136.34,-1.15
1147.70,-1.09
1159.18,-1.06
1170.77,-0.99
1182.48,-0.94
1194.30,-0.96
1206.25,-0.92
1218.31,-0.86
1230.49,-0.83
1242.80,-0.76
1255.22,-0.64
1267.78,-0.61
1280.45,-0.54
1293.26,-0.43
1306.19,-0.39
1319.25,-0.34
1332.45,-0.25
1345.77,-0.16
1359.23,-0.09
1372.82,-0.07
1386.55,-0.03
1400.41,0.08
1414.42,0.24
1428.56,0.37
1442.85,0.36
1457.28,0.42
1471.85,0.59
1486.57,0.69
1501.43,0.78
1516.45,0.91
1531.61,1.04
1546.93,1.14
1562.40,1.20
1578.02,1.38
1593.80,1.62
1609.74,1.67
1625.84,1.71
1642.10,1.84
1658.52,2.02
1675.10,2.19
1691.85,2.35
1708.77,2.56
1725.86,2.79
1743.12,3.00
1760.55,3.23
1778.15,3.40
1795.94,3.37
1813.90,3.54
1832.03,3.82
1850.36,4.09
1868.86,4.32
1887.55,4.62
1906.42,4.80
1925.49,4.93
1944.74,5.17
1964.19,5.43
1983.83,5.65
2003.67,5.91
2023.71,6.17
2043.94,6.41
2064.38,6.62
2085.03,6.83
2105.88,7.01
2126.94,7.19
2148.20,7.38
2169.69,7.59
2191.38,7.90
2213.30,8.13
2235.43,8.30
2257.78,8.36
2280.36,8.35
2303.17,8.36
2326.20,8.41
2349.46,8.42
2372.95,8.40
2396.68,8.33
2420.65,8.20
2444.86,8.07
2469.31,8.00
2494.00,7.79
2518.94,7.59
2544.13,7.47
2569.57,7.28
2595.27,7.05
2621.22,6.89
2647.43,6.79
2673.90,6.66
2700.64,6.43
2727.65,6.29
2754.93,6.12
2782.48,5.87
2810.30,5.73
2838.40,5.60
2866.79,5.43
2895.46,5.12
2924.41,4.94
2953.65,4.62
2983.19,4.33
3013.02,4.16
3043.15,4.08
3073.58,4.07
3104.32,4.04
3135.36,3.97
3166.72,3.90
3198.38,3.82
3230.37,3.72
3262.67,3.60
3295.30,3.47
3328.25,3.33
3361.53,3.26
3395.15,3.24
3429.10,3.17
3463.39,3.22
3498.03,3.26
3533.01,3.30
3568.34,3.40
3604.02,3.48
3640.06,3.51
3676.46,3.54
3713.22,3.55
3750.36,3.61
3787.86,3.59
3825.74,3.59
3864.00,3.66
3902.64,3.82
3941.66,3.96
3981.08,4.15
4020.89,4.36
4061.10,4.46
4101.71,4.59
4142.73,4.77
4184.15,4.89
4226.00,5.10
4268.26,5.17
4310.94,5.22
4354.05,5.24
4397.59,5.35
4441.56,5.39
4485.98,5.40
4530.84,5.41
4576.15,5.33
4621.91,5.21
4668.13,4.93
4714.81,4.19
4761.96,3.61
4809.58,3.56
4857.67,3.53
4906.25,2.81
4955.31,2.50
5004.87,2.59
5054.91,2.72
5105.46,3.28
5156.52,3.70
5208.08,4.42
5260.16,4.59
5312.77,4.45
5365.89,4.35
5419.55,4.38
5473.75,4.27
5528.49,4.02
5583.77,3.28
5639.61,2.77
5696.00,2.71
5752.96,2.02
5810.49,1.48
5868.60,1.25
5927.28,1.10
5986.56,1.08
6046.42,1.06
6106.89,0.90
6167.96,0.61
6229.64,0.28
6291.93,0.10
6354.85,-0.06
6418.40,-0.12
6482.58,-0.28
6547.41,-0.51
6612.88,-0.87
6679.01,-1.19
6745.80,-1.36
6813.26,-1.58
6881.39,-1.77
6950.21,-1.84
7019.71,-1.75
7089.91,-1.60
7160.81,-1.53
7232.41,-1.47
7304.74,-1.41
7377.79,-1.32
7451.56,-1.24
7526.08,-1.10
7601.34,-0.87
7677.35,-0.59
7754.13,-0.31
7831.67,0.15
7909.98,0.50
7989.08,0.83
8068.98,1.27
8149.67,1.61
8231.16,1.84
8313.47,2.11
8396.61,2.15
8480.57,2.08
8565.38,2.07
8651.03,1.88
8737.54,1.45
8824.92,1.03
8913.17,0.52
9002.30,-0.08
9092.32,-0.85
9183.25,-1.76
9275.08,-2.67
9367.83,-3.68
9461.51,-4.83
9556.12,-5.86
9651.68,-6.62
9748.20,-7.29
9845.68,-7.88
9944.14,-8.61
10043.58,-9.37
10144.02,-10.06
10245.46,-10.52
10347.91,-11.37
10451.39,-12.44
10555.91,-13.38
10661.46,-14.02
10768.08,-14.52
10875.76,-15.05
10984.52,-15.58
11094.36,-15.88
11205.31,-16.42
11317.36,-16.60
11430.53,-16.42
11544.84,-16.35
11660.29,-16.14
11776.89,-15.93
11894.66,-15.75
12013.60,-15.19
12133.74,-14.44
12255.08,-13.93
12377.63,-13.98
12501.41,-13.57
12626.42,-12.65
12752.68,-11.86
12880.21,-10.80
13009.01,-10.20
13139.10,-9.42
13270.49,-9.55
13403.20,-10.35
13537.23,-11.47
13672.60,-12.39
13809.33,-12.97
13947.42,-13.53
14086.90,-14.71
14227.77,-16.03
14370.04,-17.07
14513.74,-18.20
14658.88,-19.67
14805.47,-20.62
14953.52,-21.70
15103.06,-22.60
15254.09,-24.47
15406.63,-25.44
15560.70,-27.29
15716.30,-28.14
15873.47,-28.62
16032.20,-29.14
16192.52,-28.34
16354.45,-27.29
16517.99,-25.91
16683.17,-25.88
16850.01,-25.64
17018.51,-24.55
17188.69,-22.52
17360.58,-20.08
17534.18,-17.57
17709.53,-15.43
17886.62,-13.63
18065.49,-12.92
18246.14,-13.09
18428.60,-12.65
18612.89,-13.89
18799.02,-15.12
18987.01,-15.31
19176.88,-15.08
19368.65,-15.03
19562.33,-14.89
19757.96,-15.35
19955.54,-16.45
