frequency,raw,error,smoothed,error_smoothed,equalization,parametric_eq,fixed_band_eq,equalized_raw,equalized_smoothed,target
20.00,-10.28,-13.57,-10.29,-13.58,6.00,4.44,2.81,-4.28,-4.29,3.29
20.20,-10.23,-13.52,-10.21,-13.50,6.00,4.53,2.89,-4.23,-4.21,3.29
20.40,-10.13,-13.42,-10.12,-13.41,6.00,4.62,2.98,-4.13,-4.12,3.29
20.61,-10.02,-13.31,-10.02,-13.31,6.00,4.71,3.06,-4.02,-4.02,3.29
20.81,-9.88,-13.17,-9.89,-13.18,6.00,4.80,3.15,-3.88,-3.89,3.29
21.02,-9.76,-13.05,-9.76,-13.05,6.00,4.89,3.24,-3.76,-3.76,3.29
21.23,-9.63,-12.92,-9.63,-12.92,6.00,4.98,3.33,-3.63,-3.63,3.29
21.44,-9.51,-12.80,-9.51,-12.80,6.00,5.07,3.43,-3.51,-3.51,3.29
21.66,-9.38,-12.68,-9.38,-12.68,6.00,5.16,3.52,-3.38,-3.38,3.30
21.87,-9.27,-12.56,-9.26,-12.55,6.00,5.25,3.62,-3.27,-3.26,3.30
22.09,-9.13,-12.43,-9.13,-12.43,6.00,5.34,3.73,-3.13,-3.13,3.30
22.31,-9.00,-12.30,-9.00,-12.30,6.00,5.43,3.83,-3.00,-3.00,3.30
22.54,-8.88,-12.18,-8.87,-12.17,6.00,5.52,3.94,-2.88,-2.87,3.30
22.76,-8.74,-12.04,-8.75,-12.05,6.00,5.60,4.05,-2.74,-2.75,3.30
22.99,-8.63,-11.93,-8.62,-11.92,6.00,5.69,4.17,-2.63,-2.62,3.30
23.22,-8.48,-11.78,-8.49,-11.80,6.00,5.77,4.29,-2.48,-2.49,3.30
23.45,-8.38,-11.68,-8.37,-11.67,6.00,5.85,4.41,-2.38,-2.37,3.30
23.69,-8.23,-11.54,-8.23,-11.54,6.00,5.92,4.53,-2.23,-2.23,3.30
23.92,-8.10,-11.40,-8.10,-11.41,6.00,6.00,4.66,-2.10,-2.10,3.31
24.16,-7.98,-11.28,-7.97,-11.28,6.00,6.07,4.78,-1.98,-1.97,3.31
24.40,-7.84,-11.15,-7.85,-11.15,6.00,6.13,4.91,-1.84,-1.85,3.31
24.65,-7.73,-11.04,-7.72,-11.03,6.00,6.20,5.04,-1.73,-1.72,3.31
24.89,-7.59,-10.90,-7.59,-10.90,6.00,6.25,5.18,-1.59,-1.59,3.31
25.14,-7.47,-10.78,-7.46,-10.77,6.00,6.31,5.31,-1.47,-1.46,3.31
25.39,-7.34,-10.65,-7.33,-10.64,6.00,6.36,5.45,-1.34,-1.33,3.31
25.65,-7.19,-10.50,-7.20,-10.52,6.00,6.40,5.59,-1.19,-1.20,3.31
25.91,-7.09,-10.40,-7.07,-10.39,6.00,6.44,5.72,-1.09,-1.07,3.31
26.16,-6.94,-10.25,-6.95,-10.26,6.00,6.47,5.86,-0.94,-0.95,3.31
26.43,-6.82,-10.14,-6.82,-10.13,6.00,6.50,6.00,-0.82,-0.82,3.31
26.69,-6.69,-10.00,-6.69,-10.00,6.00,6.52,6.13,-0.69,-0.69,3.32
26.96,-6.55,-9.87,-6.56,-9.88,6.00,6.53,6.27,-0.55,-0.56,3.32
27.23,-6.44,-9.76,-6.43,-9.75,6.00,6.54,6.40,-0.44,-0.43,3.32
27.50,-6.30,-9.62,-6.31,-9.62,6.00,6.54,6.53,-0.30,-0.31,3.32
27.77,-6.18,-9.50,-6.17,-9.49,6.00,6.53,6.65,-0.18,-0.17,3.32
28.05,-6.05,-9.37,-6.04,-9.36,6.00,6.52,6.77,-0.05,-0.04,3.32
28.33,-5.90,-9.22,-5.91,-9.23,6.00,6.50,6.88,0.10,0.09,3.32
28.62,-5.80,-9.12,-5.79,-9.11,6.00,6.48,6.99,0.20,0.21,3.32
28.90,-5.65,-8.97,-5.66,-8.98,6.00,6.45,7.08,0.35,0.34,3.32
29.19,-5.54,-8.86,-5.53,-8.85,6.00,6.41,7.17,0.46,0.47,3.32
29.48,-5.40,-8.72,-5.40,-8.72,6.00,6.37,7.25,0.60,0.60,3.32
29.78,-5.26,-8.58,-5.27,-8.59,6.00,6.32,7.32,0.74,0.73,3.32
30.08,-5.15,-8.47,-5.14,-8.46,6.00,6.27,7.37,0.85,0.86,3.32
30.38,-5.01,-8.33,-5.02,-8.34,6.00,6.21,7.41,0.99,0.98,3.32
30.68,-4.90,-8.22,-4.89,-8.21,6.00,6.15,7.44,1.10,1.11,3.32
30.99,-4.76,-8.08,-4.76,-8.08,6.00,6.09,7.46,1.24,1.24,3.32
31.30,-4.61,-7.93,-4.63,-7.95,6.00,6.02,7.46,1.39,1.37,3.32
31.61,-4.50,-7.82,-4.49,-7.81,6.00,5.94,7.45,1.50,1.51,3.32
31.93,-4.36,-7.68,-4.36,-7.68,6.00,5.87,7.43,1.64,1.64,3.32
32.24,-4.21,-7.53,-4.23,-7.55,6.00,5.79,7.39,1.79,1.77,3.32
32.57,-4.11,-7.43,-4.09,-7.42,6.00,5.71,7.34,1.89,1.91,3.32
32.89,-3.96,-7.28,-3.97,-7.29,6.00,5.62,7.28,2.04,2.03,3.32
33.22,-3.85,-7.17,-3.84,-7.16,6.00,5.54,7.20,2.15,2.16,3.32
33.55,-3.71,-7.03,-3.71,-7.03,6.00,5.45,7.12,2.29,2.29,3.32
33.89,-3.57,-6.89,-3.58,-6.90,6.00,5.36,7.02,2.43,2.42,3.32
34.23,-3.46,-6.78,-3.46,-6.78,6.01,5.27,6.92,2.55,2.55,3.32
34.57,-3.33,-6.65,-3.33,-6.65,6.02,5.18,6.80,2.69,2.69,3.32
34.92,-3.22,-6.54,-3.21,-6.53,6.02,5.09,6.68,2.80,2.81,3.32
35.27,-3.07,-6.39,-3.08,-6.40,6.02,4.99,6.56,2.95,2.94,3.32
35.62,-2.97,-6.29,-2.96,-6.28,6.00,4.90,6.43,3.03,3.05,3.32
35.97,-2.82,-6.14,-2.82,-6.14,5.97,4.81,6.29,3.15,3.15,3.32
36.33,-2.70,-6.02,-2.70,-6.02,5.92,4.72,6.15,3.22,3.22,3.32
36.70,-2.57,-5.89,-2.57,-5.89,5.85,4.62,6.01,3.28,3.28,3.32
37.06,-2.45,-5.76,-2.45,-5.76,5.76,4.53,5.87,3.31,3.31,3.32
37.43,-2.32,-5.63,-2.32,-5.64,5.65,4.44,5.72,3.33,3.33,3.32
37.81,-2.19,-5.50,-2.19,-5.51,5.53,4.35,5.58,3.34,3.34,3.31
38.19,-2.07,-5.38,-2.07,-5.38,5.40,4.26,5.43,3.33,3.33,3.31
38.57,-1.93,-5.24,-1.93,-5.25,5.26,4.17,5.28,3.33,3.32,3.31
38.95,-1.82,-5.13,-1.81,-5.12,5.12,4.08,5.14,3.30,3.31,3.31
39.34,-1.67,-4.98,-1.68,-4.99,4.99,3.99,4.99,3.32,3.31,3.31
39.74,-1.57,-4.88,-1.56,-4.86,4.86,3.91,4.85,3.29,3.30,3.31
40.14,-1.43,-4.74,-1.43,-4.73,4.73,3.82,4.71,3.30,3.30,3.31
40.54,-1.29,-4.59,-1.30,-4.60,4.60,3.74,4.57,3.31,3.30,3.30
40.94,-1.18,-4.48,-1.17,-4.47,4.47,3.66,4.43,3.29,3.30,3.30
41.35,-1.04,-4.34,-1.05,-4.34,4.35,3.58,4.30,3.31,3.30,3.30
41.76,-0.93,-4.22,-0.92,-4.22,4.22,3.50,4.17,3.29,3.30,3.30
42.18,-0.80,-4.09,-0.80,-4.09,4.10,3.42,4.04,3.30,3.30,3.29
42.60,-0.68,-3.97,-0.68,-3.97,3.98,3.34,3.91,3.30,3.30,3.29
43.03,-0.57,-3.86,-0.56,-3.85,3.86,3.26,3.78,3.29,3.29,3.29
43.46,-0.45,-3.73,-0.45,-3.74,3.74,3.19,3.66,3.29,3.29,3.29
43.90,-0.35,-3.63,-0.35,-3.63,3.62,3.11,3.54,3.27,3.27,3.28
44.33,-0.24,-3.52,-0.24,-3.52,3.51,3.04,3.42,3.27,3.27,3.28
44.78,-0.14,-3.42,-0.12,-3.40,3.39,2.97,3.31,3.25,3.27,3.28
45.23,0.01,-3.26,-0.00,-3.28,3.28,2.90,3.19,3.29,3.28,3.27
45.68,0.11,-3.16,0.10,-3.16,3.17,2.83,3.08,3.28,3.28,3.27
46.13,0.20,-3.06,0.21,-3.06,3.07,2.77,2.97,3.27,3.27,3.26
46.60,0.29,-2.97,0.30,-2.96,2.96,2.70,2.87,3.25,3.26,3.26
47.06,0.40,-2.85,0.40,-2.86,2.85,2.64,2.77,3.26,3.25,3.25
47.53,0.50,-2.75,0.49,-2.76,2.75,2.57,2.66,3.25,3.25,3.25
48.01,0.58,-2.66,0.59,-2.65,2.65,2.51,2.57,3.23,3.25,3.25
48.49,0.69,-2.55,0.68,-2.56,2.56,2.45,2.47,3.25,3.24,3.24
48.97,0.77,-2.46,0.78,-2.46,2.46,2.39,2.38,3.23,3.23,3.23
49.46,0.87,-2.36,0.87,-2.36,2.36,2.33,2.29,3.23,3.23,3.23
49.96,0.96,-2.26,0.96,-2.26,2.26,2.27,2.20,3.22,3.22,3.22
50.46,1.05,-2.17,1.05,-2.16,2.16,2.22,2.11,3.21,3.22,3.22
50.96,1.14,-2.07,1.14,-2.07,2.07,2.16,2.02,3.21,3.21,3.21
51.47,1.24,-1.96,1.23,-1.97,1.97,2.11,1.94,3.21,3.20,3.20
51.99,1.32,-1.88,1.32,-1.87,1.87,2.05,1.86,3.19,3.20,3.20
52.51,1.40,-1.79,1.41,-1.78,1.78,2.00,1.78,3.18,3.19,3.19
53.03,1.50,-1.68,1.49,-1.69,1.69,1.95,1.71,3.19,3.18,3.18
53.56,1.57,-1.60,1.57,-1.60,1.60,1.90,1.63,3.17,3.17,3.17
54.10,1.65,-1.51,1.65,-1.51,1.51,1.85,1.56,3.16,3.16,3.16
54.64,1.72,-1.44,1.73,-1.43,1.43,1.80,1.49,3.15,3.15,3.16
55.18,1.80,-1.35,1.80,-1.35,1.35,1.75,1.42,3.15,3.15,3.15
55.74,1.87,-1.27,1.86,-1.27,1.28,1.70,1.36,3.15,3.14,3.14
56.29,1.92,-1.21,1.92,-1.21,1.21,1.66,1.29,3.13,3.13,3.13
56.86,1.96,-1.16,1.96,-1.15,1.15,1.61,1.23,3.11,3.12,3.12
57.42,2.00,-1.11,2.00,-1.10,1.10,1.56,1.17,3.10,3.10,3.11
58.00,2.03,-1.07,2.03,-1.06,1.06,1.52,1.12,3.09,3.09,3.10
58.58,2.07,-1.01,2.06,-1.02,1.02,1.47,1.06,3.09,3.08,3.08
59.16,2.07,-1.00,2.08,-0.99,0.99,1.43,1.01,3.06,3.07,3.07
59.76,2.09,-0.97,2.09,-0.97,0.98,1.39,0.96,3.07,3.06,3.06
60.35,2.09,-0.96,2.09,-0.96,0.97,1.34,0.91,3.06,3.05,3.05
60.96,2.07,-0.96,2.08,-0.96,0.97,1.30,0.87,3.04,3.04,3.03
61.57,2.05,-0.97,2.05,-0.97,0.98,1.26,0.82,3.03,3.03,3.02
62.18,2.02,-0.99,2.02,-0.99,1.00,1.22,0.78,3.02,3.01,3.01
62.80,1.97,-1.02,1.97,-1.02,1.03,1.17,0.75,3.00,3.00,2.99
63.43,1.92,-1.06,1.92,-1.06,1.06,1.13,0.71,2.98,2.98,2.98
64.07,1.87,-1.09,1.87,-1.09,1.09,1.09,0.68,2.96,2.96,2.96
64.71,1.83,-1.11,1.83,-1.11,1.12,1.05,0.64,2.95,2.95,2.95
65.35,1.79,-1.14,1.79,-1.14,1.14,1.01,0.61,2.93,2.92,2.93
66.01,1.76,-1.15,1.75,-1.16,1.14,0.97,0.59,2.90,2.90,2.91
66.67,1.72,-1.17,1.74,-1.16,1.13,0.92,0.56,2.85,2.87,2.89
67.33,1.75,-1.12,1.75,-1.13,1.11,0.88,0.54,2.86,2.85,2.88
68.01,1.78,-1.08,1.78,-1.08,1.06,0.84,0.52,2.84,2.84,2.86
68.69,1.83,-1.01,1.83,-1.01,1.01,0.80,0.49,2.84,2.84,2.84
69.37,1.88,-0.94,1.88,-0.94,0.94,0.76,0.48,2.82,2.82,2.82
70.07,1.94,-0.86,1.94,-0.86,0.86,0.71,0.46,2.80,2.80,2.80
70.77,2.00,-0.78,2.01,-0.77,0.78,0.67,0.44,2.78,2.79,2.78
71.48,2.08,-0.67,2.07,-0.68,0.70,0.63,0.43,2.78,2.77,2.75
72.19,2.13,-0.60,2.13,-0.60,0.61,0.59,0.41,2.75,2.75,2.73
72.91,2.18,-0.53,2.18,-0.53,0.53,0.54,0.40,2.72,2.72,2.71
73.64,2.23,-0.46,2.22,-0.46,0.46,0.50,0.39,2.69,2.68,2.69
74.38,2.26,-0.40,2.27,-0.39,0.38,0.45,0.38,2.64,2.65,2.66
75.12,2.32,-0.32,2.32,-0.32,0.31,0.41,0.37,2.63,2.63,2.64
75.87,2.38,-0.23,2.37,-0.24,0.24,0.36,0.36,2.62,2.61,2.61
76.63,2.42,-0.17,2.42,-0.16,0.17,0.32,0.35,2.59,2.59,2.59
77.40,2.46,-0.10,2.46,-0.10,0.11,0.27,0.34,2.57,2.57,2.56
78.17,2.50,-0.03,2.49,-0.04,0.05,0.22,0.34,2.55,2.54,2.53
78.95,2.51,0.01,2.52,0.01,-0.01,0.18,0.33,2.50,2.51,2.51
79.74,2.54,0.06,2.53,0.06,-0.05,0.13,0.32,2.49,2.48,2.48
80.54,2.54,0.09,2.54,0.09,-0.09,0.08,0.32,2.45,2.45,2.45
81.35,2.54,0.12,2.54,0.12,-0.13,0.03,0.31,2.41,2.41,2.42
82.16,2.54,0.15,2.54,0.15,-0.16,-0.01,0.30,2.38,2.38,2.39
82.98,2.54,0.18,2.54,0.19,-0.19,-0.06,0.30,2.36,2.36,2.36
83.81,2.54,0.21,2.54,0.21,-0.21,-0.10,0.29,2.33,2.33,2.33
84.65,2.54,0.24,2.53,0.23,-0.23,-0.15,0.29,2.31,2.30,2.30
85.50,2.50,0.24,2.51,0.25,-0.25,-0.19,0.28,2.25,2.27,2.26
86.35,2.50,0.27,2.49,0.26,-0.26,-0.23,0.28,2.24,2.23,2.23
87.22,2.46,0.26,2.47,0.27,-0.28,-0.27,0.27,2.18,2.19,2.20
88.09,2.46,0.30,2.45,0.29,-0.29,-0.30,0.27,2.17,2.16,2.17
88.97,2.42,0.29,2.43,0.30,-0.30,-0.34,0.26,2.12,2.13,2.13
89.86,2.41,0.31,2.40,0.31,-0.31,-0.36,0.26,2.10,2.10,2.10
90.76,2.37,0.31,2.38,0.31,-0.31,-0.39,0.25,2.06,2.06,2.06
91.66,2.35,0.32,2.35,0.32,-0.32,-0.41,0.25,2.03,2.03,2.03
92.58,2.32,0.33,2.32,0.32,-0.32,-0.43,0.24,2.00,1.99,1.99
93.51,2.28,0.33,2.28,0.33,-0.33,-0.44,0.24,1.95,1.95,1.96
94.44,2.24,0.32,2.25,0.33,-0.33,-0.45,0.23,1.91,1.92,1.92
95.39,2.21,0.33,2.21,0.33,-0.33,-0.45,0.23,1.88,1.88,1.88
96.34,2.18,0.33,2.17,0.33,-0.33,-0.45,0.22,1.85,1.85,1.85
97.30,2.13,0.32,2.14,0.33,-0.33,-0.44,0.22,1.81,1.81,1.81
98.28,2.09,0.32,2.09,0.32,-0.32,-0.43,0.21,1.77,1.77,1.77
99.26,2.05,0.32,2.05,0.31,-0.31,-0.42,0.21,1.74,1.73,1.73
100.25,2.00,0.30,2.01,0.31,-0.30,-0.40,0.21,1.70,1.70,1.70
101.25,1.96,0.30,1.96,0.30,-0.29,-0.38,0.20,1.67,1.66,1.66
102.27,1.91,0.29,1.91,0.29,-0.28,-0.36,0.20,1.63,1.62,1.62
103.29,1.85,0.27,1.85,0.27,-0.27,-0.33,0.19,1.58,1.58,1.58
104.32,1.79,0.25,1.79,0.25,-0.26,-0.31,0.19,1.53,1.54,1.55
105.37,1.74,0.23,1.74,0.24,-0.24,-0.28,0.19,1.50,1.50,1.51
106.42,1.70,0.23,1.70,0.23,-0.23,-0.24,0.18,1.47,1.47,1.47
107.48,1.66,0.23,1.65,0.22,-0.22,-0.21,0.18,1.44,1.44,1.43
108.56,1.60,0.21,1.60,0.21,-0.20,-0.18,0.18,1.40,1.40,1.39
109.64,1.54,0.19,1.54,0.19,-0.19,-0.15,0.18,1.35,1.35,1.36
110.74,1.48,0.16,1.49,0.17,-0.17,-0.11,0.18,1.31,1.32,1.32
111.85,1.44,0.16,1.44,0.16,-0.16,-0.08,0.18,1.28,1.28,1.28
112.97,1.40,0.16,1.38,0.14,-0.14,-0.05,0.18,1.26,1.24,1.24
114.10,1.31,0.11,1.33,0.12,-0.12,-0.01,0.18,1.19,1.21,1.21
115.24,1.27,0.10,1.27,0.10,-0.10,0.02,0.18,1.17,1.17,1.17
116.39,1.22,0.09,1.21,0.08,-0.09,0.05,0.18,1.14,1.13,1.13
117.55,1.16,0.06,1.16,0.07,-0.07,0.09,0.18,1.09,1.09,1.10
118.73,1.10,0.04,1.11,0.05,-0.05,0.12,0.19,1.05,1.06,1.06
119.92,1.05,0.03,1.05,0.03,-0.03,0.15,0.19,1.02,1.02,1.02
121.12,1.01,0.02,1.00,0.01,-0.01,0.18,0.19,1.00,0.99,0.99
122.33,0.94,-0.01,0.94,-0.01,0.01,0.21,0.20,0.95,0.95,0.95
123.55,0.88,-0.04,0.89,-0.03,0.03,0.24,0.21,0.91,0.92,0.92
124.79,0.83,-0.05,0.83,-0.06,0.06,0.27,0.22,0.89,0.89,0.89
126.03,0.77,-0.08,0.76,-0.09,0.09,0.30,0.22,0.86,0.85,0.85
127.29,0.69,-0.13,0.69,-0.12,0.12,0.33,0.23,0.81,0.82,0.82
128.57,0.62,-0.16,0.62,-0.17,0.16,0.36,0.24,0.78,0.78,0.79
129.85,0.54,-0.21,0.54,-0.21,0.21,0.39,0.26,0.75,0.75,0.75
131.15,0.47,-0.25,0.47,-0.26,0.26,0.42,0.27,0.73,0.72,0.72
132.46,0.38,-0.31,0.38,-0.31,0.32,0.45,0.28,0.70,0.70,0.69
133.79,0.28,-0.38,0.29,-0.37,0.39,0.48,0.30,0.67,0.68,0.66
135.12,0.19,-0.44,0.18,-0.45,0.46,0.51,0.31,0.65,0.64,0.63
136.48,0.07,-0.53,0.07,-0.53,0.54,0.54,0.33,0.61,0.61,0.60
137.84,-0.06,-0.63,-0.05,-0.62,0.62,0.57,0.34,0.56,0.57,0.57
139.22,-0.16,-0.70,-0.16,-0.70,0.70,0.60,0.36,0.54,0.54,0.54
140.61,-0.26,-0.77,-0.26,-0.78,0.77,0.63,0.38,0.51,0.51,0.52
142.02,-0.36,-0.85,-0.36,-0.85,0.84,0.66,0.40,0.48,0.48,0.49
143.44,-0.45,-0.91,-0.45,-0.91,0.90,0.70,0.42,0.45,0.45,0.46
144.87,-0.53,-0.97,-0.53,-0.96,0.95,0.73,0.44,0.42,0.42,0.44
146.32,-0.59,-1.00,-0.58,-0.99,0.98,0.76,0.46,0.39,0.40,0.41
147.78,-0.62,-1.01,-0.63,-1.01,1.01,0.80,0.49,0.39,0.38,0.39
149.26,-0.66,-1.02,-0.66,-1.02,1.02,0.84,0.51,0.36,0.36,0.36
150.75,-0.70,-1.04,-0.69,-1.03,1.03,0.88,0.53,0.33,0.34,0.34
152.26,-0.71,-1.02,-0.72,-1.03,1.04,0.92,0.56,0.33,0.32,0.31
153.78,-0.75,-1.04,-0.74,-1.04,1.04,0.96,0.58,0.29,0.30,0.29
155.32,-0.77,-1.04,-0.77,-1.04,1.05,1.01,0.61,0.28,0.28,0.27
156.88,-0.80,-1.05,-0.81,-1.06,1.06,1.05,0.64,0.26,0.25,0.25
158.44,-0.85,-1.08,-0.84,-1.07,1.08,1.10,0.67,0.23,0.23,0.23
160.03,-0.90,-1.11,-0.89,-1.10,1.11,1.15,0.69,0.21,0.21,0.21
161.63,-0.94,-1.13,-0.95,-1.14,1.14,1.21,0.72,0.20,0.19,0.19
163.24,-1.01,-1.18,-1.01,-1.18,1.18,1.26,0.75,0.17,0.17,0.17
164.88,-1.08,-1.23,-1.07,-1.23,1.23,1.32,0.78,0.15,0.16,0.15
166.53,-1.15,-1.28,-1.15,-1.29,1.29,1.38,0.81,0.14,0.14,0.13
168.19,-1.23,-1.35,-1.23,-1.35,1.35,1.45,0.84,0.12,0.12,0.12
169.87,-1.33,-1.43,-1.32,-1.42,1.42,1.51,0.88,0.09,0.10,0.10
171.57,-1.41,-1.49,-1.41,-1.49,1.50,1.57,0.91,0.09,0.09,0.08
173.29,-1.50,-1.57,-1.51,-1.57,1.57,1.64,0.94,0.07,0.07,0.07
175.02,-1.60,-1.65,-1.60,-1.65,1.65,1.70,0.98,0.05,0.05,0.05
176.77,-1.70,-1.74,-1.69,-1.73,1.73,1.77,1.01,0.03,0.04,0.04
178.54,-1.78,-1.80,-1.78,-1.81,1.80,1.83,1.05,0.03,0.02,0.02
180.32,-1.86,-1.87,-1.87,-1.88,1.88,1.88,1.08,0.02,0.01,0.01
182.13,-1.95,-1.95,-1.94,-1.94,1.94,1.94,1.12,-0.01,-0.00,-0.00
183.95,-2.02,-2.00,-2.01,-2.00,2.00,1.98,1.16,-0.02,-0.02,-0.02
185.79,-2.07,-2.04,-2.08,-2.05,2.04,2.02,1.20,-0.03,-0.03,-0.03
187.65,-2.12,-2.08,-2.12,-2.08,2.08,2.05,1.24,-0.04,-0.05,-0.04
189.52,-2.17,-2.12,-2.16,-2.11,2.10,2.07,1.28,-0.07,-0.06,-0.05
191.42,-2.18,-2.12,-2.18,-2.12,2.10,2.08,1.32,-0.08,-0.08,-0.06
193.33,-2.18,-2.11,-2.18,-2.11,2.10,2.08,1.36,-0.08,-0.09,-0.07
195.27,-2.18,-2.10,-2.17,-2.08,2.08,2.08,1.40,-0.10,-0.09,-0.08
197.22,-2.14,-2.05,-2.15,-2.05,2.05,2.07,1.44,-0.09,-0.10,-0.09
199.19,-2.12,-2.02,-2.12,-2.01,2.02,2.05,1.48,-0.10,-0.10,-0.10
201.18,-2.09,-1.98,-2.09,-1.98,1.98,2.03,1.53,-0.11,-0.11,-0.11
203.19,-2.06,-1.94,-2.06,-1.94,1.95,2.00,1.57,-0.11,-0.11,-0.12
205.23,-2.05,-1.92,-2.04,-1.91,1.92,1.98,1.61,-0.13,-0.12,-0.13
207.28,-2.01,-1.87,-2.02,-1.88,1.89,1.95,1.66,-0.12,-0.13,-0.14
209.35,-2.01,-1.86,-2.01,-1.86,1.87,1.92,1.70,-0.14,-0.14,-0.15
211.44,-2.01,-1.86,-2.01,-1.85,1.85,1.90,1.74,-0.16,-0.15,-0.15
213.56,-2.01,-1.85,-2.01,-1.85,1.84,1.87,1.78,-0.17,-0.17,-0.16
215.69,-2.01,-1.84,-2.01,-1.84,1.84,1.85,1.83,-0.17,-0.17,-0.17
217.85,-2.01,-1.84,-2.01,-1.84,1.84,1.83,1.87,-0.17,-0.17,-0.17
220.03,-2.01,-1.83,-2.02,-1.84,1.84,1.82,1.91,-0.17,-0.18,-0.18
222.23,-2.04,-1.85,-2.03,-1.84,1.85,1.80,1.95,-0.19,-0.18,-0.19
224.45,-2.05,-1.86,-2.05,-1.85,1.85,1.79,1.99,-0.20,-0.19,-0.19
226.70,-2.05,-1.85,-2.07,-1.87,1.86,1.78,2.03,-0.19,-0.20,-0.20
228.96,-2.09,-1.89,-2.07,-1.87,1.87,1.78,2.07,-0.22,-0.20,-0.20
231.25,-2.09,-1.88,-2.09,-1.88,1.88,1.77,2.10,-0.21,-0.21,-0.21
233.57,-2.09,-1.88,-2.11,-1.90,1.89,1.77,2.14,-0.20,-0.22,-0.21
235.90,-2.14,-1.92,-2.12,-1.91,1.90,1.78,2.17,-0.24,-0.22,-0.22
238.26,-2.14,-1.92,-2.13,-1.91,1.91,1.78,2.20,-0.23,-0.22,-0.22
240.64,-2.14,-1.91,-2.15,-1.92,1.92,1.79,2.23,-0.22,-0.23,-0.23
243.05,-2.14,-1.91,-2.15,-1.92,1.92,1.80,2.26,-0.21,-0.23,-0.23
245.48,-2.18,-1.95,-2.16,-1.93,1.93,1.81,2.28,-0.25,-0.23,-0.23
247.93,-2.18,-1.94,-2.18,-1.94,1.94,1.82,2.30,-0.24,-0.24,-0.24
250.41,-2.18,-1.94,-2.19,-1.95,1.95,1.84,2.32,-0.23,-0.24,-0.24
252.92,-2.21,-1.97,-2.20,-1.95,1.96,1.86,2.34,-0.25,-0.24,-0.24
255.45,-2.22,-1.97,-2.22,-1.97,1.97,1.87,2.36,-0.25,-0.24,-0.25
258.00,-2.22,-1.97,-2.24,-1.99,1.98,1.90,2.37,-0.24,-0.25,-0.25
260.58,-2.26,-2.01,-2.25,-1.99,2.00,1.92,2.39,-0.26,-0.25,-0.25
263.19,-2.27,-2.01,-2.27,-2.01,2.01,1.94,2.40,-0.26,-0.26,-0.26
265.82,-2.27,-2.01,-2.28,-2.03,2.02,1.97,2.41,-0.25,-0.26,-0.26
268.48,-2.31,-2.05,-2.30,-2.04,2.04,1.99,2.41,-0.27,-0.26,-0.26
271.16,-2.31,-2.05,-2.32,-2.05,2.05,2.02,2.42,-0.26,-0.26,-0.26
273.87,-2.34,-2.08,-2.33,-2.07,2.07,2.05,2.43,-0.27,-0.26,-0.26
276.61,-2.35,-2.08,-2.35,-2.08,2.09,2.08,2.43,-0.26,-0.26,-0.27
279.38,-2.37,-2.10,-2.37,-2.11,2.11,2.11,2.43,-0.26,-0.27,-0.27
282.17,-2.40,-2.13,-2.39,-2.12,2.13,2.14,2.44,-0.27,-0.27,-0.27
284.99,-2.42,-2.15,-2.42,-2.15,2.15,2.18,2.44,-0.27,-0.27,-0.27
287.84,-2.44,-2.17,-2.44,-2.17,2.17,2.21,2.44,-0.27,-0.27,-0.27
290.72,-2.48,-2.21,-2.47,-2.19,2.20,2.25,2.45,-0.28,-0.27,-0.27
293.63,-2.49,-2.21,-2.50,-2.22,2.22,2.29,2.45,-0.26,-0.27,-0.27
296.57,-2.53,-2.25,-2.53,-2.25,2.25,2.32,2.45,-0.28,-0.28,-0.28
299.53,-2.57,-2.29,-2.56,-2.28,2.28,2.36,2.46,-0.29,-0.28,-0.28
302.53,-2.59,-2.31,-2.60,-2.32,2.32,2.40,2.46,-0.27,-0.28,-0.28
305.55,-2.63,-2.35,-2.63,-2.35,2.35,2.44,2.47,-0.28,-0.28,-0.28
308.61,-2.66,-2.38,-2.66,-2.38,2.38,2.48,2.47,-0.28,-0.28,-0.28
311.69,-2.70,-2.42,-2.70,-2.42,2.42,2.53,2.48,-0.28,-0.28,-0.28
314.81,-2.74,-2.46,-2.74,-2.46,2.46,2.57,2.49,-0.28,-0.28,-0.28
317.96,-2.77,-2.49,-2.77,-2.49,2.50,2.61,2.50,-0.27,-0.28,-0.28
321.14,-2.82,-2.54,-2.82,-2.53,2.54,2.66,2.51,-0.28,-0.28,-0.28
324.35,-2.85,-2.57,-2.86,-2.58,2.58,2.70,2.53,-0.27,-0.28,-0.28
327.59,-2.91,-2.63,-2.90,-2.62,2.61,2.75,2.54,-0.29,-0.29,-0.28
330.87,-2.94,-2.66,-2.94,-2.65,2.65,2.79,2.56,-0.29,-0.29,-0.28
334.18,-2.97,-2.69,-2.98,-2.69,2.69,2.84,2.58,-0.28,-0.29,-0.28
337.52,-3.00,-2.72,-3.00,-2.72,2.72,2.88,2.60,-0.28,-0.28,-0.28
340.90,-3.04,-2.76,-3.03,-2.75,2.75,2.93,2.62,-0.29,-0.28,-0.28
344.30,-3.04,-2.76,-3.05,-2.77,2.77,2.97,2.65,-0.27,-0.28,-0.28
347.75,-3.09,-2.81,-3.08,-2.80,2.79,3.02,2.68,-0.29,-0.28,-0.28
351.23,-3.09,-2.81,-3.10,-2.81,2.82,3.06,2.71,-0.27,-0.28,-0.28
354.74,-3.13,-2.85,-3.12,-2.84,2.84,3.11,2.74,-0.29,-0.29,-0.28
358.28,-3.13,-2.85,-3.14,-2.85,2.85,3.16,2.77,-0.27,-0.28,-0.28
361.87,-3.16,-2.88,-3.15,-2.87,2.87,3.20,2.81,-0.29,-0.28,-0.28
365.49,-3.17,-2.89,-3.17,-2.89,2.89,3.24,2.85,-0.28,-0.28,-0.28
369.14,-3.18,-2.90,-3.19,-2.91,2.91,3.29,2.89,-0.27,-0.28,-0.28
372.83,-3.22,-2.94,-3.21,-2.93,2.93,3.33,2.93,-0.29,-0.28,-0.28
376.56,-3.22,-2.94,-3.23,-2.95,2.94,3.37,2.97,-0.27,-0.29,-0.28
380.33,-3.26,-2.98,-3.25,-2.97,2.96,3.41,3.02,-0.30,-0.28,-0.28
384.13,-3.26,-2.98,-3.26,-2.98,2.98,3.45,3.07,-0.28,-0.28,-0.28
387.97,-3.26,-2.98,-3.27,-2.99,3.00,3.49,3.12,-0.26,-0.27,-0.28
391.85,-3.30,-3.02,-3.29,-3.01,3.02,3.53,3.17,-0.28,-0.27,-0.28
395.77,-3.30,-3.02,-3.31,-3.04,3.03,3.57,3.22,-0.27,-0.28,-0.28
399.73,-3.35,-3.07,-3.33,-3.06,3.05,3.60,3.27,-0.30,-0.28,-0.28
403.72,-3.35,-3.07,-3.35,-3.07,3.07,3.63,3.33,-0.28,-0.28,-0.28
407.76,-3.35,-3.07,-3.36,-3.09,3.09,3.66,3.39,-0.26,-0.28,-0.28
411.84,-3.39,-3.11,-3.38,-3.10,3.11,3.69,3.44,-0.28,-0.27,-0.28
415.96,-3.39,-3.11,-3.40,-3.12,3.13,3.72,3.50,-0.26,-0.27,-0.27
420.12,-3.43,-3.16,-3.42,-3.15,3.15,3.74,3.55,-0.28,-0.27,-0.27
424.32,-3.43,-3.16,-3.44,-3.17,3.17,3.77,3.61,-0.26,-0.27,-0.27
428.56,-3.48,-3.21,-3.47,-3.19,3.19,3.79,3.66,-0.29,-0.27,-0.27
432.85,-3.48,-3.21,-3.49,-3.22,3.22,3.80,3.72,-0.26,-0.27,-0.27
437.18,-3.52,-3.25,-3.51,-3.24,3.24,3.82,3.77,-0.28,-0.27,-0.27
441.55,-3.54,-3.27,-3.54,-3.27,3.27,3.83,3.82,-0.27,-0.27,-0.27
445.96,-3.56,-3.29,-3.57,-3.30,3.29,3.84,3.87,-0.27,-0.27,-0.27
450.42,-3.60,-3.33,-3.59,-3.32,3.32,3.84,3.92,-0.28,-0.27,-0.27
454.93,-3.61,-3.34,-3.62,-3.35,3.35,3.85,3.96,-0.26,-0.27,-0.27
459.48,-3.65,-3.38,-3.65,-3.38,3.38,3.85,4.00,-0.27,-0.27,-0.27
464.07,-3.69,-3.42,-3.68,-3.42,3.42,3.85,4.03,-0.27,-0.26,-0.26
468.71,-3.73,-3.47,-3.74,-3.47,3.47,3.84,4.06,-0.26,-0.27,-0.26
473.40,-3.79,-3.53,-3.79,-3.53,3.53,3.83,4.09,-0.26,-0.26,-0.26
478.13,-3.87,-3.61,-3.86,-3.60,3.61,3.82,4.11,-0.26,-0.25,-0.26
482.91,-3.94,-3.68,-3.95,-3.69,3.71,3.81,4.12,-0.23,-0.23,-0.26
487.74,-4.05,-3.79,-4.05,-3.79,3.83,3.79,4.13,-0.22,-0.22,-0.26
492.62,-4.18,-3.92,-4.18,-3.92,3.96,3.77,4.14,-0.22,-0.22,-0.26
497.55,-4.33,-4.07,-4.33,-4.07,4.10,3.75,4.14,-0.23,-0.23,-0.26
