frequency,raw,error,smoothed,error_smoothed,equalization,parametric_eq,fixed_band_eq,equalized_raw,equalized_smoothed,target
20.00,0.86,-5.08,0.87,-5.07,5.07,4.56,1.60,5.93,5.94,5.94
20.20,0.86,-5.07,0.86,-5.06,5.07,4.54,1.65,5.93,5.93,5.93
20.40,0.86,-5.04,0.86,-5.05,5.05,4.52,1.70,5.92,5.91,5.91
20.61,0.87,-5.02,0.87,-5.03,5.03,4.50,1.75,5.91,5.90,5.90
20.81,0.87,-5.00,0.87,-5.01,5.01,4.49,1.80,5.88,5.88,5.88
21.02,0.87,-4.99,0.89,-4.98,4.97,4.47,1.85,5.85,5.86,5.87
21.23,0.92,-4.93,0.92,-4.94,4.93,4.45,1.91,5.85,5.85,5.86
21.44,0.96,-4.88,0.96,-4.88,4.88,4.43,1.96,5.85,5.84,5.85
21.66,1.01,-4.81,1.01,-4.82,4.82,4.41,2.02,5.83,5.83,5.83
21.87,1.05,-4.77,1.06,-4.76,4.75,4.39,2.08,5.80,5.81,5.83
22.09,1.11,-4.70,1.12,-4.69,4.67,4.37,2.14,5.79,5.79,5.82
22.31,1.20,-4.60,1.20,-4.61,4.59,4.34,2.20,5.80,5.79,5.80
22.54,1.28,-4.51,1.29,-4.51,4.51,4.32,2.26,5.80,5.80,5.79
22.76,1.36,-4.42,1.37,-4.41,4.44,4.30,2.33,5.81,5.82,5.78
22.99,1.45,-4.33,1.44,-4.34,4.38,4.28,2.39,5.83,5.82,5.78
23.22,1.48,-4.29,1.48,-4.29,4.32,4.26,2.46,5.80,5.80,5.77
23.45,1.50,-4.27,1.51,-4.26,4.27,4.23,2.53,5.77,5.78,5.77
23.69,1.53,-4.24,1.53,-4.24,4.22,4.21,2.60,5.75,5.75,5.77
23.92,1.56,-4.21,1.57,-4.21,4.17,4.19,2.67,5.74,5.74,5.77
24.16,1.60,-4.17,1.61,-4.16,4.14,4.17,2.75,5.74,5.74,5.77
24.40,1.65,-4.12,1.66,-4.11,4.11,4.14,2.82,5.76,5.77,5.77
24.65,1.70,-4.07,1.71,-4.06,4.09,4.12,2.89,5.79,5.80,5.77
24.89,1.75,-4.01,1.74,-4.03,4.07,4.09,2.97,5.82,5.81,5.77
25.14,1.76,-4.00,1.76,-4.01,4.05,4.07,3.05,5.82,5.81,5.77
25.39,1.74,-4.02,1.74,-4.02,4.03,4.04,3.12,5.78,5.78,5.77
25.65,1.72,-4.03,1.72,-4.04,4.01,4.02,3.20,5.74,5.73,5.76
25.91,1.70,-4.05,1.72,-4.03,3.98,3.99,3.28,5.69,5.70,5.75
26.16,1.74,-4.00,1.75,-4.00,3.95,3.97,3.35,5.70,5.70,5.74
26.43,1.81,-3.93,1.81,-3.93,3.91,3.94,3.43,5.72,5.72,5.74
26.69,1.88,-3.85,1.89,-3.85,3.86,3.92,3.50,5.74,5.74,5.73
26.96,1.96,-3.76,1.96,-3.77,3.79,3.89,3.57,5.76,5.75,5.72
27.23,2.02,-3.70,2.02,-3.70,3.71,3.86,3.64,5.74,5.73,5.72
27.50,2.07,-3.64,2.08,-3.63,3.63,3.84,3.71,5.70,5.70,5.71
27.77,2.13,-3.56,2.13,-3.57,3.54,3.81,3.78,5.67,5.67,5.70
28.05,2.19,-3.49,2.20,-3.49,3.46,3.78,3.84,5.66,5.66,5.69
28.33,2.27,-3.41,2.28,-3.40,3.40,3.75,3.90,5.67,5.68,5.69
28.62,2.36,-3.32,2.37,-3.31,3.35,3.72,3.95,5.71,5.71,5.68
28.90,2.44,-3.23,2.42,-3.25,3.31,3.70,4.00,5.75,5.73,5.67
29.19,2.45,-3.23,2.45,-3.23,3.28,3.67,4.05,5.74,5.73,5.68
29.48,2.42,-3.26,2.43,-3.25,3.27,3.64,4.09,5.69,5.70,5.68
29.78,2.39,-3.28,2.40,-3.28,3.26,3.61,4.12,5.66,5.66,5.68
30.08,2.37,-3.30,2.38,-3.29,3.26,3.58,4.15,5.64,5.64,5.68
30.38,2.38,-3.29,2.38,-3.30,3.26,3.55,4.17,5.64,5.64,5.67
30.68,2.39,-3.28,2.39,-3.28,3.25,3.52,4.19,5.64,5.64,5.67
30.99,2.40,-3.27,2.41,-3.26,3.23,3.49,4.20,5.64,5.65,5.67
31.30,2.45,-3.22,2.46,-3.21,3.21,3.46,4.20,5.66,5.67,5.67
31.61,2.50,-3.16,2.51,-3.16,3.18,3.43,4.20,5.68,5.69,5.67
31.93,2.56,-3.10,2.55,-3.11,3.15,3.40,4.19,5.71,5.70,5.67
32.24,2.57,-3.08,2.57,-3.09,3.12,3.37,4.17,5.69,5.69,5.65
32.57,2.57,-3.08,2.58,-3.08,3.08,3.34,4.15,5.66,5.66,5.65
32.89,2.57,-3.07,2.58,-3.07,3.05,3.31,4.12,5.63,5.63,5.65
33.22,2.59,-3.05,2.60,-3.05,3.02,3.28,4.09,5.62,5.62,5.65
33.55,2.63,-3.01,2.63,-3.01,2.99,3.24,4.05,5.62,5.62,5.64
33.89,2.66,-2.97,2.66,-2.97,2.96,3.21,4.01,5.62,5.62,5.63
34.23,2.69,-2.94,2.70,-2.93,2.93,3.18,3.96,5.62,5.63,5.63
34.57,2.73,-2.89,2.73,-2.89,2.90,3.15,3.91,5.64,5.64,5.63
34.92,2.76,-2.86,2.76,-2.87,2.89,3.12,3.85,5.66,5.65,5.62
35.27,2.77,-2.85,2.78,-2.84,2.89,3.08,3.80,5.67,5.67,5.62
35.62,2.77,-2.84,2.78,-2.83,2.89,3.05,3.74,5.67,5.67,5.62
35.97,2.77,-2.83,2.75,-2.85,2.88,3.02,3.67,5.65,5.63,5.60
36.33,2.71,-2.89,2.69,-2.91,2.86,2.98,3.61,5.57,5.55,5.60
36.70,2.64,-2.95,2.65,-2.94,2.82,2.95,3.54,5.47,5.48,5.60
37.06,2.63,-2.97,2.69,-2.90,2.78,2.92,3.47,5.41,5.48,5.59
37.43,2.81,-2.77,2.81,-2.77,2.74,2.88,3.40,5.54,5.55,5.58
37.81,2.99,-2.58,2.95,-2.63,2.68,2.85,3.33,5.68,5.63,5.58
38.19,3.06,-2.50,3.03,-2.53,2.63,2.82,3.26,5.69,5.66,5.56
38.57,3.02,-2.52,3.04,-2.51,2.59,2.78,3.20,5.61,5.63,5.55
38.95,2.98,-2.55,3.01,-2.53,2.56,2.75,3.13,5.54,5.57,5.53
39.34,2.98,-2.54,2.99,-2.54,2.55,2.71,3.06,5.53,5.54,5.53
39.74,2.98,-2.53,2.98,-2.54,2.54,2.68,2.99,5.53,5.52,5.51
40.14,2.96,-2.53,2.93,-2.57,2.54,2.64,2.93,5.51,5.47,5.50
40.54,2.88,-2.60,2.88,-2.61,2.53,2.61,2.86,5.42,5.41,5.48
40.94,2.81,-2.66,2.88,-2.60,2.51,2.57,2.80,5.32,5.39,5.48
41.35,2.93,-2.54,2.94,-2.53,2.47,2.54,2.74,5.41,5.41,5.47
41.76,3.08,-2.38,3.05,-2.41,2.42,2.50,2.68,5.51,5.48,5.47
42.18,3.17,-2.29,3.15,-2.31,2.37,2.47,2.62,5.55,5.53,5.46
42.60,3.18,-2.27,3.19,-2.26,2.33,2.43,2.56,5.51,5.52,5.45
43.03,3.18,-2.26,3.19,-2.26,2.29,2.40,2.51,5.47,5.48,5.45
43.46,3.18,-2.26,3.18,-2.26,2.26,2.36,2.46,5.45,5.45,5.44
43.90,3.18,-2.26,3.19,-2.25,2.26,2.32,2.40,5.44,5.45,5.44
44.33,3.18,-2.25,3.19,-2.25,2.27,2.29,2.36,5.45,5.46,5.44
44.78,3.18,-2.24,3.17,-2.26,2.28,2.25,2.31,5.46,5.45,5.43
45.23,3.14,-2.28,3.12,-2.30,2.29,2.22,2.26,5.43,5.40,5.42
45.68,3.06,-2.35,3.08,-2.33,2.28,2.18,2.22,5.34,5.36,5.41
46.13,3.05,-2.36,3.10,-2.30,2.25,2.14,2.18,5.29,5.35,5.40
46.60,3.17,-2.22,3.16,-2.23,2.20,2.11,2.14,5.37,5.36,5.39
47.06,3.28,-2.10,3.23,-2.16,2.14,2.07,2.10,5.43,5.37,5.39
47.53,3.28,-2.09,3.28,-2.09,2.08,2.03,2.06,5.36,5.36,5.38
48.01,3.28,-2.07,3.35,-2.01,2.01,2.00,2.03,5.30,5.37,5.36
48.49,3.42,-1.92,3.42,-1.92,1.96,1.96,1.99,5.38,5.38,5.35
48.97,3.55,-1.77,3.48,-1.85,1.92,1.92,1.96,5.47,5.40,5.33
49.46,3.48,-1.83,3.49,-1.83,1.90,1.88,1.93,5.38,5.39,5.31
49.96,3.40,-1.90,3.45,-1.85,1.89,1.85,1.90,5.30,5.34,5.30
50.46,3.39,-1.90,3.39,-1.90,1.89,1.81,1.87,5.28,5.28,5.29
50.96,3.38,-1.91,3.35,-1.94,1.88,1.77,1.85,5.27,5.23,5.29
51.47,3.32,-1.95,3.32,-1.96,1.88,1.73,1.82,5.20,5.20,5.28
51.99,3.26,-2.00,3.33,-1.93,1.87,1.70,1.80,5.13,5.20,5.26
52.51,3.37,-1.87,3.37,-1.87,1.85,1.66,1.77,5.22,5.22,5.24
53.03,3.48,-1.74,3.44,-1.79,1.82,1.62,1.75,5.30,5.26,5.23
53.56,3.48,-1.73,3.49,-1.72,1.78,1.58,1.72,5.26,5.27,5.21
54.10,3.48,-1.71,3.49,-1.70,1.74,1.55,1.70,5.22,5.23,5.20
54.64,3.48,-1.70,3.48,-1.70,1.70,1.51,1.68,5.18,5.18,5.18
55.18,3.48,-1.68,3.48,-1.68,1.67,1.47,1.66,5.15,5.15,5.16
55.74,3.48,-1.66,3.48,-1.66,1.66,1.43,1.63,5.14,5.14,5.15
56.29,3.48,-1.65,3.48,-1.65,1.65,1.39,1.61,5.13,5.13,5.13
56.86,3.48,-1.63,3.49,-1.62,1.65,1.35,1.59,5.13,5.14,5.11
57.42,3.48,-1.61,3.48,-1.61,1.63,1.31,1.56,5.12,5.12,5.09
58.00,3.48,-1.59,3.44,-1.63,1.61,1.28,1.54,5.09,5.05,5.08
58.58,3.40,-1.65,3.42,-1.63,1.59,1.24,1.51,4.99,5.01,5.06
59.16,3.38,-1.65,3.44,-1.59,1.56,1.20,1.48,4.94,5.00,5.04
59.76,3.51,-1.50,3.48,-1.53,1.53,1.16,1.45,5.04,5.01,5.01
60.35,3.57,-1.42,3.55,-1.45,1.48,1.12,1.42,5.06,5.03,4.99
60.96,3.58,-1.40,3.59,-1.39,1.43,1.08,1.39,5.01,5.02,4.98
61.57,3.58,-1.37,3.58,-1.38,1.36,1.04,1.36,4.95,4.94,4.96
62.18,3.58,-1.35,3.58,-1.36,1.30,1.00,1.33,4.88,4.88,4.93
62.80,3.58,-1.32,3.64,-1.27,1.24,0.96,1.29,4.82,4.88,4.90
63.43,3.69,-1.18,3.70,-1.17,1.19,0.92,1.25,4.88,4.89,4.87
64.07,3.83,-1.01,3.75,-1.09,1.14,0.88,1.21,4.98,4.89,4.84
64.71,3.73,-1.08,3.75,-1.06,1.11,0.84,1.17,4.84,4.86,4.81
65.35,3.68,-1.09,3.72,-1.06,1.08,0.80,1.13,4.76,4.80,4.78
66.01,3.68,-1.06,3.68,-1.07,1.05,0.76,1.09,4.73,4.73,4.75
66.67,3.68,-1.02,3.69,-1.02,1.02,0.72,1.04,4.71,4.71,4.71
67.33,3.68,-0.99,3.67,-1.00,1.00,0.68,0.99,4.68,4.67,4.68
68.01,3.68,-0.95,3.63,-1.01,0.96,0.64,0.94,4.65,4.60,4.64
68.69,3.57,-1.03,3.64,-0.97,0.92,0.60,0.89,4.50,4.56,4.61
69.37,3.62,-0.94,3.67,-0.90,0.87,0.56,0.84,4.50,4.54,4.56
70.07,3.78,-0.75,3.72,-0.81,0.81,0.52,0.79,4.60,4.53,4.53
70.77,3.78,-0.70,3.78,-0.71,0.75,0.48,0.74,4.54,4.53,4.49
71.48,3.78,-0.67,3.80,-0.65,0.70,0.43,0.68,4.48,4.50,4.45
72.19,3.78,-0.62,3.78,-0.63,0.64,0.39,0.62,4.42,4.42,4.41
72.91,3.78,-0.59,3.78,-0.59,0.58,0.35,0.57,4.37,4.37,4.37
73.64,3.78,-0.55,3.78,-0.55,0.54,0.31,0.51,4.32,4.32,4.33
74.38,3.78,-0.51,3.78,-0.51,0.50,0.27,0.45,4.28,4.28,4.30
75.12,3.78,-0.47,3.78,-0.47,0.46,0.22,0.39,4.24,4.24,4.26
75.87,3.78,-0.42,3.78,-0.43,0.42,0.18,0.33,4.21,4.21,4.21
76.63,3.78,-0.38,3.78,-0.38,0.38,0.14,0.27,4.17,4.17,4.17
77.40,3.78,-0.34,3.78,-0.34,0.35,0.10,0.21,4.13,4.13,4.12
78.17,3.78,-0.30,3.78,-0.30,0.31,0.05,0.14,4.10,4.10,4.08
78.95,3.78,-0.25,3.79,-0.25,0.28,0.01,0.08,4.06,4.06,4.04
79.74,3.78,-0.21,3.78,-0.21,0.23,-0.03,0.02,4.01,4.01,3.99
80.54,3.77,-0.18,3.74,-0.21,0.17,-0.08,-0.05,3.95,3.92,3.95
81.35,3.72,-0.18,3.74,-0.17,0.12,-0.12,-0.11,3.84,3.85,3.90
82.16,3.68,-0.17,3.76,-0.09,0.05,-0.17,-0.17,3.74,3.82,3.86
82.98,3.87,0.07,3.81,0.01,-0.01,-0.21,-0.24,3.86,3.80,3.80
83.81,3.88,0.13,3.87,0.12,-0.08,-0.26,-0.31,3.80,3.79,3.75
84.65,3.88,0.18,3.90,0.20,-0.15,-0.30,-0.37,3.73,3.75,3.70
85.50,3.88,0.24,3.88,0.24,-0.22,-0.35,-0.44,3.66,3.66,3.64
86.35,3.88,0.29,3.88,0.29,-0.29,-0.39,-0.51,3.59,3.59,3.59
87.22,3.88,0.35,3.88,0.35,-0.36,-0.44,-0.57,3.52,3.52,3.53
88.09,3.88,0.40,3.88,0.41,-0.42,-0.48,-0.64,3.46,3.46,3.48
88.97,3.88,0.46,3.89,0.47,-0.48,-0.53,-0.71,3.41,3.41,3.42
89.86,3.89,0.54,3.89,0.53,-0.53,-0.58,-0.78,3.36,3.36,3.36
90.76,3.89,0.59,3.89,0.59,-0.59,-0.62,-0.85,3.31,3.31,3.30
91.66,3.89,0.65,3.89,0.66,-0.65,-0.67,-0.92,3.25,3.25,3.24
92.58,3.89,0.72,3.90,0.72,-0.71,-0.72,-0.99,3.18,3.19,3.17
93.51,3.89,0.78,3.90,0.79,-0.78,-0.77,-1.06,3.12,3.12,3.11
94.44,3.89,0.85,3.88,0.83,-0.85,-0.82,-1.13,3.04,3.03,3.04
95.39,3.87,0.90,3.86,0.88,-0.92,-0.86,-1.21,2.96,2.94,2.98
96.34,3.82,0.91,3.88,0.97,-0.99,-0.91,-1.28,2.84,2.89,2.91
97.30,3.88,1.05,3.90,1.06,-1.05,-0.96,-1.35,2.83,2.85,2.84
98.28,4.00,1.23,3.92,1.15,-1.12,-1.01,-1.43,2.89,2.80,2.77
99.26,3.88,1.19,3.91,1.22,-1.18,-1.06,-1.50,2.70,2.73,2.69
100.25,3.84,1.23,3.87,1.25,-1.25,-1.11,-1.57,2.60,2.62,2.61
101.25,3.82,1.29,3.82,1.28,-1.31,-1.16,-1.65,2.52,2.51,2.54
102.27,3.81,1.35,3.81,1.35,-1.37,-1.22,-1.72,2.45,2.44,2.46
103.29,3.79,1.41,3.79,1.41,-1.42,-1.27,-1.79,2.37,2.37,2.38
104.32,3.77,1.47,3.78,1.48,-1.48,-1.32,-1.87,2.30,2.30,2.30
105.37,3.75,1.54,3.75,1.53,-1.53,-1.37,-1.94,2.22,2.22,2.22
106.42,3.73,1.60,3.73,1.59,-1.58,-1.42,-2.01,2.15,2.15,2.14
107.48,3.70,1.64,3.71,1.65,-1.63,-1.48,-2.08,2.07,2.08,2.06
108.56,3.68,1.70,3.69,1.71,-1.68,-1.53,-2.15,2.00,2.01,1.98
109.64,3.66,1.76,3.66,1.75,-1.74,-1.58,-2.22,1.93,1.92,1.90
110.74,3.64,1.81,3.61,1.77,-1.80,-1.64,-2.29,1.85,1.81,1.84
111.85,3.55,1.79,3.58,1.81,-1.86,-1.69,-2.35,1.69,1.71,1.76
112.97,3.53,1.84,3.59,1.89,-1.94,-1.75,-2.42,1.60,1.65,1.69
114.10,3.65,2.03,3.62,2.00,-2.01,-1.80,-2.48,1.64,1.61,1.63
115.24,3.70,2.14,3.68,2.12,-2.09,-1.86,-2.54,1.61,1.59,1.56
116.39,3.70,2.21,3.72,2.22,-2.18,-1.91,-2.59,1.53,1.54,1.49
117.55,3.71,2.28,3.71,2.28,-2.26,-1.97,-2.65,1.45,1.45,1.44
118.73,3.71,2.34,3.72,2.34,-2.35,-2.03,-2.70,1.36,1.36,1.37
119.92,3.72,2.40,3.72,2.41,-2.43,-2.08,-2.74,1.30,1.29,1.32
121.12,3.73,2.48,3.73,2.47,-2.48,-2.14,-2.79,1.25,1.25,1.26
122.33,3.74,2.54,3.76,2.56,-2.53,-2.20,-2.83,1.22,1.24,1.20
123.55,3.77,2.62,3.77,2.62,-2.57,-2.26,-2.87,1.21,1.20,1.16
124.79,3.79,2.69,3.75,2.64,-2.61,-2.32,-2.90,1.19,1.14,1.11
126.03,3.67,2.63,3.70,2.65,-2.65,-2.37,-2.93,1.02,1.05,1.04
127.29,3.64,2.64,3.65,2.64,-2.71,-2.43,-2.96,0.94,0.94,1.00
128.57,3.63,2.68,3.64,2.68,-2.76,-2.49,-2.99,0.88,0.88,0.95
129.85,3.64,2.74,3.69,2.78,-2.81,-2.55,-3.01,0.83,0.87,0.90
131.15,3.78,2.93,3.74,2.89,-2.87,-2.61,-3.03,0.91,0.86,0.85
132.46,3.79,2.99,3.78,2.98,-2.94,-2.67,-3.04,0.85,0.84,0.81
133.79,3.79,3.05,3.81,3.05,-3.01,-2.73,-3.05,0.78,0.80,0.75
135.12,3.79,3.09,3.80,3.10,-3.09,-2.79,-3.07,0.71,0.71,0.70
136.48,3.80,3.15,3.80,3.15,-3.16,-2.85,-3.07,0.65,0.64,0.66
137.84,3.80,3.20,3.80,3.20,-3.21,-2.91,-3.08,0.59,0.59,0.60
139.22,3.80,3.25,3.80,3.25,-3.26,-2.97,-3.09,0.54,0.54,0.56
140.61,3.80,3.30,3.81,3.30,-3.30,-3.03,-3.09,0.51,0.51,0.50
142.02,3.80,3.35,3.81,3.36,-3.34,-3.09,-3.09,0.47,0.48,0.45
143.44,3.81,3.42,3.80,3.40,-3.38,-3.15,-3.09,0.44,0.43,0.40
144.87,3.79,3.44,3.77,3.42,-3.42,-3.21,-3.10,0.37,0.35,0.36
146.32,3.73,3.43,3.74,3.44,-3.47,-3.27,-3.10,0.26,0.27,0.31
147.78,3.70,3.46,3.74,3.48,-3.52,-3.32,-3.10,0.18,0.22,0.25
149.26,3.76,3.56,3.75,3.55,-3.57,-3.38,-3.10,0.19,0.18,0.20
150.75,3.80,3.65,3.78,3.63,-3.62,-3.44,-3.10,0.18,0.16,0.15
152.26,3.80,3.70,3.81,3.70,-3.68,-3.50,-3.11,0.13,0.13,0.11
153.78,3.80,3.73,3.81,3.75,-3.73,-3.56,-3.11,0.07,0.08,0.07
155.32,3.81,3.79,3.81,3.79,-3.79,-3.61,-3.12,0.03,0.02,0.02
156.88,3.81,3.83,3.81,3.83,-3.83,-3.67,-3.12,-0.02,-0.02,-0.02
158.44,3.81,3.87,3.82,3.88,-3.86,-3.73,-3.13,-0.05,-0.04,-0.05
160.03,3.81,3.91,3.81,3.91,-3.89,-3.78,-3.14,-0.07,-0.08,-0.10
161.63,3.80,3.94,3.79,3.92,-3.91,-3.84,-3.16,-0.11,-0.12,-0.14
163.24,3.74,3.92,3.75,3.93,-3.93,-3.89,-3.17,-0.19,-0.18,-0.18
164.88,3.70,3.92,3.72,3.93,-3.95,-3.94,-3.19,-0.25,-0.24,-0.22
166.53,3.69,3.95,3.69,3.95,-3.97,-3.99,-3.21,-0.28,-0.28,-0.26
168.19,3.69,3.99,3.68,3.98,-4.00,-4.04,-3.23,-0.30,-0.31,-0.30
169.87,3.68,4.02,3.69,4.02,-4.02,-4.09,-3.25,-0.34,-0.33,-0.33
171.57,3.67,4.04,3.69,4.06,-4.05,-4.14,-3.28,-0.37,-0.36,-0.37
173.29,3.70,4.11,3.69,4.09,-4.08,-4.19,-3.31,-0.37,-0.39,-0.41
175.02,3.68,4.12,3.68,4.12,-4.11,-4.23,-3.34,-0.43,-0.43,-0.44
176.77,3.66,4.13,3.67,4.14,-4.14,-4.28,-3.38,-0.48,-0.47,-0.47
178.54,3.66,4.16,3.66,4.16,-4.17,-4.32,-3.41,-0.51,-0.51,-0.50
180.32,3.66,4.19,3.66,4.19,-4.20,-4.36,-3.45,-0.54,-0.54,-0.52
182.13,3.67,4.22,3.67,4.22,-4.22,-4.40,-3.50,-0.55,-0.55,-0.54
183.95,3.68,4.25,3.69,4.26,-4.24,-4.43,-3.54,-0.56,-0.56,-0.57
185.79,3.69,4.29,3.69,4.29,-4.26,-4.47,-3.59,-0.57,-0.57,-0.60
187.65,3.70,4.31,3.69,4.30,-4.28,-4.50,-3.64,-0.58,-0.60,-0.61
189.52,3.66,4.29,3.67,4.30,-4.30,-4.53,-3.69,-0.64,-0.63,-0.63
191.42,3.64,4.29,3.66,4.30,-4.32,-4.56,-3.75,-0.68,-0.67,-0.65
193.33,3.65,4.32,3.65,4.31,-4.34,-4.59,-3.80,-0.69,-0.69,-0.67
195.27,3.66,4.34,3.67,4.34,-4.35,-4.62,-3.86,-0.69,-0.69,-0.67
197.22,3.68,4.37,3.68,4.37,-4.36,-4.64,-3.93,-0.68,-0.68,-0.69
199.19,3.69,4.40,3.69,4.40,-4.37,-4.66,-3.99,-0.68,-0.68,-0.71
201.18,3.69,4.42,3.69,4.41,-4.39,-4.68,-4.05,-0.69,-0.70,-0.72
203.19,3.67,4.41,3.66,4.40,-4.40,-4.69,-4.12,-0.72,-0.73,-0.74
205.23,3.62,4.38,3.63,4.39,-4.41,-4.71,-4.18,-0.78,-0.77,-0.75
207.28,3.60,4.37,3.61,4.38,-4.41,-4.72,-4.25,-0.80,-0.80,-0.77
209.35,3.60,4.40,3.60,4.39,-4.40,-4.73,-4.32,-0.80,-0.80,-0.79
211.44,3.60,4.41,3.61,4.42,-4.40,-4.73,-4.39,-0.79,-0.79,-0.81
213.56,3.59,4.41,3.59,4.42,-4.39,-4.74,-4.45,-0.80,-0.80,-0.82
215.69,3.59,4.44,3.56,4.40,-4.39,-4.74,-4.52,-0.80,-0.83,-0.84
217.85,3.49,4.35,3.52,4.38,-4.39,-4.74,-4.58,-0.90,-0.87,-0.86
220.03,3.47,4.35,3.49,4.36,-4.39,-4.74,-4.64,-0.91,-0.90,-0.88
222.23,3.48,4.37,3.47,4.36,-4.38,-4.73,-4.71,-0.90,-0.91,-0.89
224.45,3.48,4.38,3.49,4.39,-4.37,-4.72,-4.76,-0.89,-0.88,-0.90
226.70,3.48,4.39,3.48,4.40,-4.36,-4.71,-4.82,-0.88,-0.88,-0.91
228.96,3.48,4.40,3.45,4.37,-4.36,-4.70,-4.87,-0.88,-0.91,-0.92
231.25,3.40,4.32,3.42,4.34,-4.36,-4.68,-4.91,-0.96,-0.94,-0.92
233.57,3.36,4.29,3.40,4.33,-4.35,-4.67,-4.95,-0.99,-0.96,-0.93
235.90,3.41,4.34,3.40,4.34,-4.34,-4.65,-4.99,-0.93,-0.94,-0.93
238.26,3.43,4.37,3.43,4.36,-4.34,-4.63,-5.02,-0.90,-0.91,-0.94
240.64,3.45,4.38,3.42,4.36,-4.33,-4.60,-5.04,-0.88,-0.91,-0.93
243.05,3.39,4.32,3.40,4.32,-4.33,-4.58,-5.06,-0.94,-0.93,-0.93
245.48,3.34,4.27,3.38,4.30,-4.33,-4.55,-5.07,-0.98,-0.95,-0.92
247.93,3.38,4.31,3.38,4.30,-4.32,-4.52,-5.07,-0.94,-0.94,-0.92
250.41,3.41,4.33,3.42,4.33,-4.31,-4.49,-5.07,-0.90,-0.90,-0.92
252.92,3.44,4.36,3.43,4.34,-4.30,-4.46,-5.06,-0.86,-0.88,-0.92
255.45,3.42,4.34,3.39,4.31,-4.30,-4.43,-5.04,-0.88,-0.91,-0.91
258.00,3.32,4.24,3.36,4.28,-4.30,-4.39,-5.02,-0.98,-0.94,-0.92
260.58,3.31,4.24,3.34,4.26,-4.31,-4.35,-4.99,-0.99,-0.97,-0.93
263.19,3.36,4.30,3.34,4.28,-4.31,-4.32,-4.95,-0.95,-0.97,-0.93
265.82,3.37,4.32,3.37,4.31,-4.31,-4.28,-4.91,-0.93,-0.94,-0.95
268.48,3.36,4.32,3.37,4.33,-4.29,-4.23,-4.86,-0.93,-0.92,-0.95
271.16,3.36,4.33,3.35,4.32,-4.27,-4.19,-4.80,-0.91,-0.93,-0.97
273.87,3.29,4.28,3.30,4.28,-4.25,-4.15,-4.74,-0.95,-0.95,-0.98
276.61,3.24,4.23,3.25,4.24,-4.22,-4.11,-4.68,-0.98,-0.97,-0.99
279.38,3.17,4.17,3.19,4.19,-4.19,-4.06,-4.61,-1.02,-1.00,-0.99
282.17,3.16,4.17,3.13,4.13,-4.16,-4.02,-4.54,-1.00,-1.03,-1.01
284.99,3.07,4.09,3.05,4.06,-4.13,-3.97,-4.47,-1.05,-1.08,-1.01
287.84,2.97,3.99,3.02,4.04,-4.09,-3.92,-4.39,-1.12,-1.07,-1.02
290.72,2.98,4.02,3.05,4.08,-4.06,-3.87,-4.31,-1.08,-1.01,-1.03
293.63,3.13,4.17,3.06,4.09,-4.04,-3.83,-4.23,-0.91,-0.99,-1.04
296.57,3.12,4.16,3.04,4.07,-4.03,-3.78,-4.15,-0.91,-1.00,-1.04
299.53,2.87,3.91,2.98,4.02,-4.02,-3.73,-4.07,-1.15,-1.04,-1.03
302.53,2.90,3.94,2.92,3.96,-4.02,-3.68,-3.99,-1.11,-1.10,-1.04
305.55,2.94,3.99,2.91,3.96,-4.00,-3.63,-3.91,-1.06,-1.09,-1.05
308.61,2.95,4.01,2.95,4.01,-3.98,-3.58,-3.83,-1.03,-1.03,-1.05
311.69,2.94,4.00,2.93,3.99,-3.95,-3.53,-3.75,-1.01,-1.02,-1.06
314.81,2.88,3.95,2.88,3.95,-3.93,-3.48,-3.67,-1.04,-1.04,-1.07
317.96,2.81,3.89,2.83,3.90,-3.90,-3.43,-3.59,-1.08,-1.07,-1.07
321.14,2.77,3.85,2.78,3.86,-3.87,-3.38,-3.52,-1.09,-1.09,-1.08
324.35,2.75,3.84,2.73,3.82,-3.83,-3.33,-3.44,-1.07,-1.10,-1.09
327.59,2.67,3.78,2.68,3.77,-3.78,-3.28,-3.37,-1.10,-1.10,-1.10
330.87,2.61,3.72,2.63,3.73,-3.73,-3.23,-3.30,-1.12,-1.11,-1.10
334.18,2.56,3.67,2.57,3.68,-3.69,-3.18,-3.23,-1.12,-1.11,-1.11
337.52,2.55,3.66,2.53,3.65,-3.65,-3.13,-3.16,-1.10,-1.12,-1.11
340.90,2.48,3.60,2.48,3.60,-3.62,-3.08,-3.10,-1.13,-1.14,-1.12
344.30,2.43,3.56,2.43,3.56,-3.58,-3.03,-3.03,-1.14,-1.14,-1.12
347.75,2.37,3.50,2.42,3.55,-3.54,-2.98,-2.97,-1.16,-1.11,-1.13
351.23,2.41,3.55,2.39,3.53,-3.49,-2.93,-2.91,-1.08,-1.10,-1.14
354.74,2.41,3.55,2.32,3.46,-3.45,-2.88,-2.86,-1.03,-1.12,-1.14
358.28,2.19,3.33,2.28,3.42,-3.40,-2.83,-2.80,-1.20,-1.12,-1.14
361.87,2.14,3.29,2.20,3.35,-3.35,-2.78,-2.75,-1.20,-1.14,-1.14
365.49,2.24,3.39,2.11,3.26,-3.30,-2.73,-2.70,-1.05,-1.18,-1.14
369.14,2.04,3.19,2.08,3.23,-3.24,-2.68,-2.65,-1.20,-1.16,-1.15
372.83,1.95,3.10,2.04,3.18,-3.18,-2.64,-2.61,-1.23,-1.15,-1.15
376.56,2.04,3.19,1.97,3.13,-3.14,-2.59,-2.56,-1.09,-1.16,-1.15
380.33,1.96,3.12,1.96,3.12,-3.10,-2.54,-2.52,-1.13,-1.14,-1.16
384.13,1.89,3.06,1.91,3.07,-3.06,-2.50,-2.48,-1.17,-1.15,-1.16
387.97,1.83,3.01,1.82,2.99,-3.03,-2.45,-2.45,-1.19,-1.21,-1.17
391.85,1.75,2.94,1.78,2.96,-2.99,-2.41,-2.41,-1.23,-1.21,-1.18
395.77,1.73,2.93,1.77,2.96,-2.94,-2.36,-2.38,-1.21,-1.17,-1.20
399.73,1.77,2.98,1.72,2.93,-2.90,-2.32,-2.34,-1.12,-1.18,-1.21
403.72,1.70,2.92,1.66,2.88,-2.86,-2.27,-2.31,-1.15,-1.20,-1.22
407.76,1.49,2.73,1.58,2.81,-2.81,-2.23,-2.28,-1.32,-1.24,-1.24
411.84,1.50,2.75,1.48,2.73,-2.77,-2.19,-2.26,-1.27,-1.29,-1.25
415.96,1.44,2.70,1.42,2.68,-2.72,-2.15,-2.23,-1.28,-1.31,-1.26
420.12,1.36,2.64,1.40,2.67,-2.67,-2.10,-2.20,-1.30,-1.26,-1.27
424.32,1.37,2.65,1.38,2.65,-2.60,-2.06,-2.18,-1.23,-1.23,-1.27
428.56,1.35,2.63,1.32,2.59,-2.55,-2.02,-2.16,-1.19,-1.23,-1.27
432.85,1.28,2.55,1.24,2.50,-2.49,-1.98,-2.13,-1.21,-1.25,-1.26
437.18,1.10,2.35,1.17,2.41,-2.44,-1.94,-2.11,-1.33,-1.27,-1.25
441.55,1.08,2.31,1.12,2.34,-2.39,-1.90,-2.09,-1.30,-1.27,-1.23
445.96,1.16,2.36,1.11,2.30,-2.33,-1.86,-2.06,-1.17,-1.23,-1.20
450.42,1.12,2.28,1.13,2.29,-2.28,-1.82,-2.04,-1.16,-1.15,-1.16
454.93,1.11,2.23,1.13,2.25,-2.24,-1.78,-2.02,-1.12,-1.11,-1.12
459.48,1.12,2.19,1.12,2.19,-2.20,-1.74,-2.00,-1.07,-1.08,-1.07
464.07,1.12,2.15,1.13,2.16,-2.16,-1.71,-1.98,-1.03,-1.03,-1.03
468.71,1.13,2.11,1.14,2.12,-2.11,-1.67,-1.95,-0.97,-0.97,-0.98
473.40,1.15,2.08,1.14,2.08,-2.05,-1.63,-1.93,-0.90,-0.91,-0.93
478.13,1.14,2.03,1.14,2.02,-1.99,-1.59,-1.90,-0.84,-0.85,-0.88
482.91,1.09,1.94,1.10,1.94,-1.92,-1.56,-1.88,-0.83,-0.82,-0.84
487.74,1.06,1.87,1.03,1.84,-1.85,-1.52,-1.85,-0.79,-0.82,-0.80
492.62,0.94,1.72,0.97,1.75,-1.78,-1.49,-1.82,-0.84,-0.81,-0.77
497.55,0.90,1.66,0.93,1.68,-1.71,-1.45,-1.80,-0.81,-0.78,-0.75
502.52,0.92,1.66,0.91,1.64,-1.64,-1.42,-1.77,-0.72,-0.74,-0.73
507.55,0.89,1.62,0.87,1.60,-1.58,-1.38,-1.73,-0.69,-0.71,-0.72
512.62,0.82,1.56,0.81,1.54,-1.53,-1.35,-1.70,-0.71,-0.72,-0.73
517.75,0.70,1.44,0.74,1.47,-1.48,-1.31,-1.67,-0.78,-0.75,-0.74
522.93,0.65,1.41,0.67,1.42,-1.44,-1.28,-1.63,-0.78,-0.77,-0.76
528.16,0.63,1.41,0.61,1.38,-1.39,-1.24,-1.60,-0.75,-0.78,-0.78
