frequency,raw,error,smoothed,error_smoothed,equalization,parametric_eq,fixed_band_eq,equalized_raw,equalized_smoothed,target
20.00,-25.03,-19.94,-25.03,-19.94,6.00,4.78,2.77,-19.03,-19.03,-5.09
20.20,-24.81,-19.73,-24.81,-19.73,6.00,4.83,2.85,-18.81,-18.81,-5.08
20.40,-24.60,-19.53,-24.59,-19.51,6.00,4.89,2.93,-18.60,-18.59,-5.07
20.61,-24.38,-19.31,-24.37,-19.31,6.00,4.94,3.01,-18.38,-18.37,-5.07
20.81,-24.17,-19.11,-24.16,-19.10,6.00,4.99,3.10,-18.17,-18.16,-5.06
21.02,-23.95,-18.89,-23.97,-18.91,6.00,5.05,3.19,-17.95,-17.97,-5.06
21.23,-23.80,-18.75,-23.79,-18.74,6.00,5.10,3.28,-17.80,-17.79,-5.05
21.44,-23.64,-18.59,-23.63,-18.58,6.00,5.15,3.37,-17.64,-17.63,-5.05
21.66,-23.48,-18.43,-23.47,-18.43,6.00,5.20,3.47,-17.48,-17.47,-5.05
21.87,-23.32,-18.27,-23.32,-18.27,6.00,5.26,3.56,-17.32,-17.32,-5.05
22.09,-23.18,-18.14,-23.19,-18.14,6.00,5.31,3.67,-17.18,-17.19,-5.04
22.31,-23.07,-18.03,-23.06,-18.02,6.00,5.36,3.77,-17.07,-17.06,-5.04
22.54,-22.96,-17.91,-22.96,-17.91,6.00,5.41,3.88,-16.96,-16.96,-5.05
22.76,-22.85,-17.79,-22.85,-17.80,6.00,5.46,3.99,-16.85,-16.85,-5.06
22.99,-22.75,-17.69,-22.74,-17.67,6.00,5.51,4.10,-16.75,-16.74,-5.06
23.22,-22.61,-17.55,-22.61,-17.54,6.00,5.56,4.21,-16.61,-16.61,-5.06
23.45,-22.47,-17.40,-22.47,-17.41,6.00,5.61,4.33,-16.47,-16.47,-5.07
23.69,-22.33,-17.26,-22.33,-17.26,6.00,5.65,4.45,-16.33,-16.33,-5.07
23.92,-22.19,-17.12,-22.18,-17.11,6.00,5.70,4.57,-16.19,-16.18,-5.07
24.16,-22.04,-16.97,-22.04,-16.97,6.00,5.74,4.70,-16.04,-16.04,-5.07
24.40,-21.89,-16.82,-21.89,-16.81,6.00,5.79,4.83,-15.89,-15.89,-5.07
24.65,-21.74,-16.67,-21.74,-16.67,6.00,5.83,4.95,-15.74,-15.74,-5.07
24.89,-21.59,-16.52,-21.59,-16.52,6.00,5.88,5.09,-15.59,-15.59,-5.07
25.14,-21.46,-16.39,-21.46,-16.39,6.00,5.92,5.22,-15.46,-15.46,-5.07
25.39,-21.34,-16.26,-21.32,-16.25,6.00,5.96,5.35,-15.34,-15.32,-5.08
25.65,-21.22,-16.14,-21.21,-16.13,6.00,6.00,5.49,-15.22,-15.21,-5.08
25.91,-21.09,-16.01,-21.12,-16.04,6.00,6.04,5.62,-15.09,-15.12,-5.08
26.16,-21.07,-15.99,-21.08,-16.00,6.00,6.07,5.76,-15.07,-15.08,-5.08
26.43,-21.09,-16.01,-21.11,-16.03,6.00,6.11,5.89,-15.09,-15.11,-5.08
26.69,-21.12,-16.04,-21.14,-16.06,6.00,6.14,6.03,-15.12,-15.14,-5.08
26.96,-21.15,-16.07,-21.05,-15.97,6.00,6.17,6.16,-15.15,-15.05,-5.08
27.23,-20.84,-15.76,-20.83,-15.75,6.00,6.20,6.29,-14.84,-14.83,-5.08
27.50,-20.46,-15.38,-20.47,-15.39,6.00,6.23,6.42,-14.46,-14.47,-5.08
27.77,-20.08,-15.00,-20.10,-15.02,6.00,6.26,6.54,-14.08,-14.10,-5.08
28.05,-19.77,-14.69,-19.83,-14.75,6.00,6.28,6.67,-13.77,-13.83,-5.08
28.33,-19.69,-14.61,-19.68,-14.60,6.00,6.30,6.78,-13.69,-13.68,-5.08
28.62,-19.61,-14.53,-19.59,-14.51,6.00,6.32,6.89,-13.61,-13.59,-5.08
28.90,-19.53,-14.46,-19.51,-14.44,6.00,6.34,6.99,-13.53,-13.51,-5.07
29.19,-19.39,-14.32,-19.38,-14.31,6.00,6.35,7.09,-13.39,-13.38,-5.07
29.48,-19.23,-14.16,-19.23,-14.17,6.00,6.37,7.18,-13.23,-13.23,-5.07
29.78,-19.07,-14.01,-19.07,-14.01,6.00,6.38,7.26,-13.07,-13.07,-5.06
30.08,-18.92,-13.86,-18.93,-13.86,6.00,6.39,7.33,-12.92,-12.93,-5.06
30.38,-18.79,-13.73,-18.79,-13.73,6.00,6.39,7.39,-12.79,-12.79,-5.06
30.68,-18.66,-13.60,-18.66,-13.60,6.00,6.40,7.44,-12.66,-12.66,-5.06
30.99,-18.53,-13.47,-18.52,-13.46,6.00,6.40,7.48,-12.53,-12.52,-5.06
31.30,-18.37,-13.31,-18.37,-13.31,6.00,6.40,7.50,-12.37,-12.37,-5.06
31.61,-18.21,-13.15,-18.21,-13.15,6.00,6.39,7.52,-12.21,-12.21,-5.06
31.93,-18.05,-12.99,-18.05,-12.99,6.00,6.39,7.53,-12.05,-12.05,-5.06
32.24,-17.91,-12.84,-17.91,-12.84,6.00,6.38,7.52,-11.91,-11.91,-5.07
32.57,-17.78,-12.71,-17.78,-12.71,6.00,6.37,7.51,-11.78,-11.78,-5.07
32.89,-17.65,-12.58,-17.65,-12.57,6.00,6.36,7.48,-11.65,-11.65,-5.07
33.22,-17.53,-12.45,-17.52,-12.45,6.00,6.35,7.45,-11.53,-11.52,-5.08
33.55,-17.40,-12.32,-17.40,-12.32,6.00,6.34,7.41,-11.40,-11.40,-5.08
33.89,-17.28,-12.19,-17.28,-12.19,6.00,6.33,7.36,-11.28,-11.28,-5.09
34.23,-17.16,-12.07,-17.16,-12.07,6.00,6.31,7.30,-11.16,-11.16,-5.09
34.57,-17.04,-11.95,-17.04,-11.95,6.00,6.30,7.24,-11.04,-11.04,-5.09
34.92,-16.92,-11.83,-16.90,-11.81,6.00,6.29,7.17,-10.92,-10.90,-5.09
35.27,-16.73,-11.64,-16.71,-11.62,6.00,6.28,7.10,-10.73,-10.71,-5.09
35.62,-16.52,-11.43,-16.52,-11.43,6.00,6.28,7.03,-10.52,-10.52,-5.09
35.97,-16.32,-11.23,-16.37,-11.28,6.00,6.28,6.95,-10.32,-10.37,-5.09
36.33,-16.28,-11.19,-16.29,-11.20,6.00,6.27,6.87,-10.28,-10.29,-5.09
36.70,-16.26,-11.17,-16.24,-11.15,6.00,6.28,6.79,-10.26,-10.24,-5.09
37.06,-16.21,-11.12,-16.16,-11.07,6.00,6.28,6.71,-10.21,-10.16,-5.09
37.43,-16.02,-10.92,-16.02,-10.93,6.00,6.29,6.63,-10.02,-10.02,-5.09
37.81,-15.83,-10.75,-15.86,-10.77,6.00,6.30,6.54,-9.83,-9.86,-5.08
38.19,-15.70,-10.62,-15.73,-10.65,6.00,6.31,6.46,-9.70,-9.73,-5.08
38.57,-15.64,-10.56,-15.64,-10.56,6.00,6.33,6.39,-9.64,-9.64,-5.08
38.95,-15.58,-10.50,-15.52,-10.45,6.00,6.34,6.31,-9.58,-9.52,-5.07
39.34,-15.37,-10.29,-15.35,-10.28,6.00,6.36,6.24,-9.37,-9.35,-5.07
39.74,-15.13,-10.06,-15.16,-10.09,6.00,6.38,6.16,-9.13,-9.16,-5.07
40.14,-14.95,-9.88,-14.98,-9.91,6.00,6.40,6.10,-8.95,-8.98,-5.07
40.54,-14.87,-9.80,-14.86,-9.79,6.00,6.41,6.03,-8.87,-8.86,-5.07
40.94,-14.78,-9.71,-14.75,-9.68,6.00,6.43,5.97,-8.78,-8.75,-5.07
41.35,-14.65,-9.58,-14.64,-9.56,6.00,6.45,5.91,-8.65,-8.64,-5.07
41.76,-14.50,-9.42,-14.51,-9.44,6.00,6.47,5.86,-8.50,-8.51,-5.08
42.18,-14.39,-9.31,-14.42,-9.34,6.00,6.48,5.81,-8.39,-8.42,-5.08
42.60,-14.32,-9.24,-14.32,-9.23,6.00,6.50,5.77,-8.32,-8.32,-5.08
43.03,-14.23,-9.15,-14.15,-9.07,6.00,6.51,5.72,-8.23,-8.15,-5.08
43.46,-13.93,-8.85,-13.93,-8.84,6.00,6.52,5.69,-7.93,-7.93,-5.08
43.90,-13.63,-8.54,-13.68,-8.59,6.00,6.54,5.66,-7.63,-7.68,-5.09
44.33,-13.48,-8.39,-13.47,-8.38,6.00,6.55,5.63,-7.48,-7.47,-5.09
44.78,-13.38,-8.29,-13.41,-8.31,6.00,6.55,5.60,-7.38,-7.41,-5.09
45.23,-13.43,-8.34,-13.48,-8.39,6.00,6.56,5.58,-7.43,-7.48,-5.09
45.68,-13.62,-8.53,-13.58,-8.49,6.00,6.57,5.57,-7.62,-7.58,-5.09
46.13,-13.71,-8.63,-13.62,-8.54,6.00,6.57,5.56,-7.71,-7.62,-5.08
46.60,-13.55,-8.47,-13.57,-8.49,6.00,6.58,5.55,-7.55,-7.57,-5.08
47.06,-13.41,-8.34,-13.41,-8.34,6.00,6.58,5.55,-7.41,-7.41,-5.07
47.53,-13.29,-8.23,-13.28,-8.22,6.00,6.58,5.55,-7.29,-7.28,-5.06
48.01,-13.18,-8.13,-13.28,-8.22,6.00,6.58,5.55,-7.18,-7.28,-5.05
48.49,-13.30,-8.26,-13.30,-8.26,6.00,6.57,5.56,-7.30,-7.30,-5.04
48.97,-13.41,-8.38,-13.26,-8.23,6.00,6.57,5.57,-7.41,-7.26,-5.03
49.46,-13.17,-8.15,-13.16,-8.14,6.00,6.56,5.58,-7.17,-7.16,-5.02
49.96,-12.90,-7.90,-13.02,-8.02,6.00,6.56,5.60,-6.90,-7.02,-5.00
50.46,-12.88,-7.89,-12.89,-7.90,6.00,6.55,5.62,-6.88,-6.89,-4.99
50.96,-12.89,-7.92,-12.80,-7.83,6.00,6.53,5.64,-6.89,-6.80,-4.97
51.47,-12.70,-7.74,-12.70,-7.73,6.00,6.52,5.67,-6.70,-6.70,-4.96
51.99,-12.49,-7.54,-12.52,-7.57,6.00,6.50,5.69,-6.49,-6.52,-4.95
52.51,-12.35,-7.41,-12.35,-7.41,6.00,6.49,5.72,-6.35,-6.35,-4.94
53.03,-12.22,-7.29,-12.24,-7.30,6.00,6.46,5.74,-6.22,-6.24,-4.93
53.56,-12.16,-7.24,-12.15,-7.24,6.00,6.44,5.77,-6.16,-6.15,-4.92
54.10,-12.09,-7.19,-12.08,-7.18,6.00,6.41,5.80,-6.09,-6.08,-4.90
54.64,-11.99,-7.10,-11.98,-7.09,6.00,6.38,5.83,-5.99,-5.98,-4.89
55.18,-11.88,-7.00,-11.86,-6.97,6.00,6.35,5.85,-5.88,-5.86,-4.88
55.74,-11.72,-6.84,-11.75,-6.88,6.00,6.31,5.87,-5.72,-5.75,-4.88
56.29,-11.65,-6.78,-11.68,-6.81,6.00,6.27,5.90,-5.65,-5.68,-4.87
56.86,-11.66,-6.80,-11.61,-6.74,6.01,6.22,5.91,-5.65,-5.60,-4.86
57.42,-11.56,-6.70,-11.55,-6.69,6.01,6.17,5.93,-5.55,-5.53,-4.86
58.00,-11.42,-6.56,-11.49,-6.63,6.01,6.12,5.94,-5.40,-5.47,-4.86
58.58,-11.39,-6.53,-11.36,-6.50,6.01,6.06,5.94,-5.38,-5.34,-4.86
59.16,-11.28,-6.41,-11.19,-6.33,6.00,6.00,5.94,-5.27,-5.19,-4.86
59.76,-10.96,-6.10,-11.02,-6.16,5.98,5.94,5.94,-4.98,-5.04,-4.86
60.35,-10.82,-5.95,-10.86,-5.99,5.95,5.87,5.93,-4.87,-4.92,-4.87
60.96,-10.79,-5.91,-10.78,-5.90,5.90,5.80,5.91,-4.89,-4.88,-4.88
61.57,-10.76,-5.87,-10.73,-5.84,5.83,5.72,5.88,-4.93,-4.90,-4.89
62.18,-10.70,-5.79,-10.67,-5.76,5.75,5.64,5.85,-4.95,-4.92,-4.91
62.80,-10.55,-5.62,-10.59,-5.66,5.65,5.56,5.81,-4.90,-4.94,-4.93
63.43,-10.49,-5.53,-10.50,-5.54,5.55,5.47,5.77,-4.94,-4.95,-4.96
64.07,-10.46,-5.48,-10.41,-5.43,5.44,5.38,5.71,-5.02,-4.97,-4.98
64.71,-10.33,-5.32,-10.34,-5.33,5.34,5.29,5.65,-4.99,-5.00,-5.01
65.35,-10.23,-5.20,-10.25,-5.22,5.24,5.20,5.59,-4.99,-5.01,-5.03
66.01,-10.17,-5.12,-10.16,-5.11,5.14,5.10,5.51,-5.03,-5.02,-5.05
66.67,-10.10,-5.03,-10.10,-5.03,5.04,5.01,5.43,-5.06,-5.06,-5.07
67.33,-10.03,-4.95,-10.04,-4.95,4.94,4.91,5.35,-5.09,-5.10,-5.08
68.01,-9.97,-4.87,-9.97,-4.87,4.83,4.81,5.26,-5.13,-5.13,-5.10
68.69,-9.89,-4.78,-9.88,-4.77,4.72,4.71,5.16,-5.17,-5.16,-5.11
69.37,-9.77,-4.65,-9.75,-4.63,4.60,4.61,5.06,-5.16,-5.15,-5.12
70.07,-9.61,-4.48,-9.61,-4.48,4.48,4.51,4.96,-5.13,-5.13,-5.13
70.77,-9.46,-4.32,-9.50,-4.36,4.36,4.41,4.85,-5.09,-5.14,-5.14
71.48,-9.40,-4.26,-9.38,-4.24,4.25,4.30,4.74,-5.15,-5.13,-5.14
72.19,-9.34,-4.19,-9.27,-4.12,4.15,4.20,4.63,-5.18,-5.12,-5.15
72.91,-9.13,-3.97,-9.19,-4.03,4.07,4.10,4.52,-5.06,-5.11,-5.16
73.64,-9.11,-3.94,-9.15,-3.98,4.01,4.00,4.40,-5.10,-5.14,-5.17
74.38,-9.15,-3.97,-9.13,-3.94,3.97,3.90,4.28,-5.18,-5.16,-5.18
75.12,-9.20,-4.01,-9.14,-3.95,3.94,3.80,4.17,-5.26,-5.20,-5.19
75.87,-9.09,-3.88,-9.14,-3.93,3.91,3.70,4.05,-5.18,-5.22,-5.21
76.63,-9.11,-3.89,-9.12,-3.90,3.89,3.60,3.93,-5.22,-5.23,-5.22
77.40,-9.12,-3.88,-9.10,-3.86,3.85,3.50,3.81,-5.27,-5.25,-5.24
78.17,-9.09,-3.84,-9.08,-3.83,3.79,3.41,3.70,-5.29,-5.29,-5.25
78.95,-9.02,-3.75,-9.03,-3.76,3.72,3.31,3.58,-5.30,-5.31,-5.27
79.74,-8.95,-3.67,-8.96,-3.67,3.64,3.22,3.46,-5.31,-5.32,-5.28
80.54,-8.87,-3.57,-8.85,-3.55,3.54,3.12,3.35,-5.33,-5.30,-5.30
81.35,-8.74,-3.43,-8.72,-3.41,3.44,3.03,3.24,-5.30,-5.28,-5.31
82.16,-8.56,-3.24,-8.60,-3.28,3.33,2.94,3.13,-5.23,-5.27,-5.32
82.98,-8.49,-3.16,-8.51,-3.18,3.21,2.85,3.02,-5.27,-5.29,-5.33
83.81,-8.47,-3.13,-8.43,-3.09,3.09,2.76,2.91,-5.37,-5.34,-5.34
84.65,-8.36,-3.02,-8.35,-3.01,2.97,2.68,2.80,-5.39,-5.38,-5.34
85.50,-8.23,-2.88,-8.24,-2.89,2.85,2.59,2.69,-5.38,-5.39,-5.35
86.35,-8.11,-2.75,-8.10,-2.74,2.72,2.51,2.59,-5.39,-5.38,-5.36
87.22,-7.97,-2.60,-7.97,-2.60,2.60,2.42,2.49,-5.37,-5.37,-5.37
88.09,-7.83,-2.45,-7.84,-2.46,2.47,2.34,2.39,-5.36,-5.37,-5.38
88.97,-7.72,-2.34,-7.72,-2.33,2.35,2.26,2.29,-5.37,-5.37,-5.38
89.86,-7.60,-2.21,-7.59,-2.20,2.23,2.18,2.19,-5.37,-5.36,-5.39
90.76,-7.50,-2.10,-7.49,-2.09,2.12,2.10,2.10,-5.38,-5.36,-5.40
91.66,-7.37,-1.97,-7.40,-2.00,2.02,2.02,2.01,-5.35,-5.38,-5.40
92.58,-7.34,-1.94,-7.34,-1.94,1.93,1.95,1.91,-5.40,-5.41,-5.40
93.51,-7.31,-1.90,-7.29,-1.88,1.85,1.87,1.82,-5.46,-5.43,-5.41
94.44,-7.23,-1.82,-7.21,-1.80,1.77,1.80,1.74,-5.45,-5.44,-5.41
95.39,-7.11,-1.70,-7.11,-1.70,1.69,1.72,1.65,-5.42,-5.42,-5.41
96.34,-6.99,-1.58,-7.02,-1.61,1.61,1.65,1.56,-5.38,-5.41,-5.41
97.30,-6.95,-1.54,-6.94,-1.52,1.53,1.58,1.48,-5.42,-5.41,-5.41
98.28,-6.89,-1.47,-6.86,-1.44,1.44,1.51,1.40,-5.45,-5.42,-5.42
99.26,-6.77,-1.35,-6.78,-1.36,1.35,1.44,1.32,-5.42,-5.43,-5.42
100.25,-6.68,-1.26,-6.68,-1.26,1.27,1.37,1.24,-5.41,-5.41,-5.42
101.25,-6.60,-1.18,-6.59,-1.17,1.19,1.30,1.16,-5.41,-5.40,-5.42
102.27,-6.51,-1.08,-6.54,-1.11,1.12,1.24,1.09,-5.39,-5.42,-5.43
103.29,-6.50,-1.06,-6.48,-1.04,1.04,1.17,1.01,-5.45,-5.44,-5.44
104.32,-6.46,-1.01,-6.43,-0.98,0.98,1.11,0.94,-5.48,-5.46,-5.45
105.37,-6.36,-0.91,-6.39,-0.93,0.91,1.05,0.87,-5.44,-5.47,-5.45
106.42,-6.33,-0.87,-6.33,-0.87,0.86,0.98,0.80,-5.47,-5.47,-5.46
107.48,-6.30,-0.83,-6.27,-0.80,0.82,0.92,0.73,-5.48,-5.45,-5.47
108.56,-6.22,-0.74,-6.23,-0.75,0.77,0.86,0.67,-5.45,-5.46,-5.48
109.64,-6.17,-0.68,-6.19,-0.71,0.73,0.80,0.60,-5.44,-5.47,-5.49
110.74,-6.19,-0.70,-6.17,-0.68,0.68,0.74,0.54,-5.51,-5.49,-5.49
111.85,-6.15,-0.66,-6.14,-0.65,0.63,0.68,0.48,-5.52,-5.51,-5.49
112.97,-6.11,-0.62,-6.11,-0.62,0.58,0.63,0.42,-5.53,-5.53,-5.49
114.10,-6.03,-0.54,-6.04,-0.55,0.53,0.57,0.36,-5.50,-5.51,-5.49
115.24,-5.98,-0.50,-5.96,-0.48,0.47,0.51,0.30,-5.51,-5.49,-5.48
116.39,-5.87,-0.39,-5.88,-0.41,0.41,0.46,0.25,-5.46,-5.47,-5.48
117.55,-5.81,-0.35,-5.81,-0.34,0.35,0.40,0.20,-5.46,-5.46,-5.46
118.73,-5.74,-0.29,-5.73,-0.28,0.29,0.35,0.15,-5.45,-5.44,-5.45
119.92,-5.66,-0.23,-5.66,-0.23,0.24,0.30,0.10,-5.42,-5.42,-5.43
121.12,-5.58,-0.17,-5.58,-0.17,0.19,0.25,0.06,-5.39,-5.39,-5.41
122.33,-5.52,-0.13,-5.53,-0.13,0.15,0.19,0.01,-5.37,-5.37,-5.39
123.55,-5.48,-0.11,-5.49,-0.12,0.12,0.14,-0.03,-5.36,-5.38,-5.37
124.79,-5.47,-0.12,-5.45,-0.10,0.08,0.09,-0.07,-5.39,-5.37,-5.35
126.03,-5.42,-0.09,-5.39,-0.06,0.04,0.04,-0.11,-5.37,-5.35,-5.33
127.29,-5.31,0.00,-5.34,-0.03,0.01,-0.00,-0.14,-5.30,-5.33,-5.31
128.57,-5.25,0.04,-5.27,0.02,-0.03,-0.05,-0.18,-5.28,-5.30,-5.29
129.85,-5.24,0.03,-5.20,0.07,-0.07,-0.10,-0.21,-5.30,-5.26,-5.27
131.15,-5.13,0.12,-5.14,0.12,-0.11,-0.14,-0.24,-5.23,-5.24,-5.25
132.46,-5.06,0.18,-5.08,0.16,-0.15,-0.19,-0.27,-5.21,-5.23,-5.24
133.79,-5.03,0.19,-5.03,0.20,-0.19,-0.24,-0.30,-5.21,-5.21,-5.22
135.12,-5.01,0.20,-4.99,0.21,-0.22,-0.28,-0.32,-5.22,-5.21,-5.21
136.48,-4.95,0.24,-4.95,0.24,-0.24,-0.32,-0.35,-5.19,-5.20,-5.19
137.84,-4.91,0.27,-4.90,0.28,-0.27,-0.37,-0.37,-5.18,-5.17,-5.18
139.22,-4.85,0.32,-4.86,0.31,-0.30,-0.41,-0.39,-5.15,-5.16,-5.17
140.61,-4.81,0.35,-4.82,0.34,-0.34,-0.45,-0.42,-5.15,-5.16,-5.16
142.02,-4.81,0.34,-4.80,0.36,-0.38,-0.49,-0.44,-5.19,-5.18,-5.15
143.44,-4.76,0.39,-4.76,0.39,-0.43,-0.53,-0.46,-5.19,-5.19,-5.15
144.87,-4.71,0.44,-4.69,0.46,-0.48,-0.57,-0.48,-5.19,-5.17,-5.15
146.32,-4.60,0.55,-4.61,0.55,-0.53,-0.61,-0.50,-5.13,-5.14,-5.15
147.78,-4.52,0.64,-4.54,0.62,-0.59,-0.65,-0.51,-5.10,-5.13,-5.16
149.26,-4.51,0.66,-4.50,0.67,-0.64,-0.69,-0.53,-5.15,-5.14,-5.17
150.75,-4.51,0.68,-4.50,0.69,-0.69,-0.72,-0.55,-5.19,-5.19,-5.19
152.26,-4.51,0.71,-4.51,0.71,-0.72,-0.76,-0.57,-5.23,-5.23,-5.22
153.78,-4.51,0.74,-4.51,0.75,-0.75,-0.80,-0.59,-5.26,-5.26,-5.25
155.32,-4.51,0.78,-4.50,0.79,-0.77,-0.83,-0.60,-5.28,-5.27,-5.29
156.88,-4.51,0.81,-4.51,0.81,-0.78,-0.87,-0.62,-5.29,-5.30,-5.32
158.44,-4.52,0.84,-4.54,0.82,-0.80,-0.90,-0.64,-5.32,-5.35,-5.36
160.03,-4.59,0.80,-4.57,0.82,-0.83,-0.93,-0.66,-5.42,-5.40,-5.39
161.63,-4.61,0.80,-4.59,0.83,-0.87,-0.97,-0.68,-5.47,-5.46,-5.41
163.24,-4.57,0.87,-4.57,0.86,-0.91,-1.00,-0.70,-5.48,-5.48,-5.44
164.88,-4.52,0.93,-4.52,0.94,-0.96,-1.03,-0.72,-5.48,-5.47,-5.45
166.53,-4.45,1.01,-4.45,1.01,-1.01,-1.06,-0.74,-5.46,-5.46,-5.46
168.19,-4.37,1.09,-4.38,1.08,-1.06,-1.09,-0.76,-5.43,-5.45,-5.46
169.87,-4.33,1.12,-4.31,1.14,-1.11,-1.12,-0.78,-5.44,-5.43,-5.45
171.57,-4.26,1.18,-4.25,1.19,-1.16,-1.15,-0.81,-5.42,-5.41,-5.44
173.29,-4.18,1.24,-4.20,1.22,-1.20,-1.18,-0.83,-5.37,-5.39,-5.42
175.02,-4.15,1.24,-4.16,1.24,-1.23,-1.21,-0.85,-5.37,-5.38,-5.39
176.77,-4.15,1.21,-4.13,1.23,-1.24,-1.23,-0.88,-5.39,-5.38,-5.36
178.54,-4.11,1.22,-4.10,1.23,-1.25,-1.26,-0.91,-5.36,-5.36,-5.33
180.32,-4.06,1.23,-4.05,1.24,-1.26,-1.29,-0.93,-5.32,-5.31,-5.29
182.13,-3.98,1.28,-3.99,1.27,-1.26,-1.31,-0.96,-5.24,-5.25,-5.26
183.95,-3.93,1.29,-3.94,1.28,-1.26,-1.34,-0.99,-5.19,-5.20,-5.22
185.79,-3.92,1.28,-3.91,1.29,-1.27,-1.36,-1.02,-5.19,-5.18,-5.20
187.65,-3.91,1.27,-3.91,1.27,-1.28,-1.38,-1.05,-5.19,-5.18,-5.18
189.52,-3.89,1.27,-3.89,1.27,-1.29,-1.41,-1.08,-5.18,-5.18,-5.16
191.42,-3.88,1.27,-3.86,1.28,-1.30,-1.43,-1.11,-5.18,-5.17,-5.15
193.33,-3.82,1.31,-3.82,1.32,-1.32,-1.45,-1.14,-5.14,-5.14,-5.13
195.27,-3.76,1.36,-3.78,1.35,-1.35,-1.47,-1.17,-5.11,-5.12,-5.12
197.22,-3.73,1.39,-3.73,1.38,-1.38,-1.49,-1.20,-5.11,-5.11,-5.12
199.19,-3.72,1.39,-3.70,1.41,-1.42,-1.51,-1.24,-5.14,-5.12,-5.11
201.18,-3.66,1.45,-3.66,1.45,-1.46,-1.53,-1.27,-5.12,-5.12,-5.11
203.19,-3.61,1.50,-3.60,1.51,-1.51,-1.55,-1.30,-5.11,-5.11,-5.11
205.23,-3.55,1.56,-3.56,1.55,-1.55,-1.56,-1.34,-5.10,-5.11,-5.11
207.28,-3.51,1.60,-3.52,1.59,-1.59,-1.58,-1.37,-5.10,-5.11,-5.11
209.35,-3.51,1.60,-3.49,1.63,-1.62,-1.60,-1.41,-5.13,-5.11,-5.11
211.44,-3.46,1.66,-3.46,1.66,-1.65,-1.61,-1.44,-5.11,-5.11,-5.12
213.56,-3.42,1.70,-3.43,1.69,-1.68,-1.63,-1.47,-5.09,-5.11,-5.12
215.69,-3.42,1.71,-3.42,1.71,-1.70,-1.64,-1.51,-5.11,-5.11,-5.13
217.85,-3.42,1.71,-3.42,1.71,-1.71,-1.66,-1.54,-5.13,-5.13,-5.13
220.03,-3.43,1.71,-3.43,1.71,-1.73,-1.67,-1.57,-5.16,-5.16,-5.14
222.23,-3.43,1.71,-3.42,1.72,-1.74,-1.68,-1.60,-5.17,-5.16,-5.14
224.45,-3.40,1.74,-3.39,1.75,-1.76,-1.69,-1.63,-5.16,-5.15,-5.14
226.70,-3.34,1.80,-3.36,1.78,-1.79,-1.71,-1.66,-5.12,-5.14,-5.14
228.96,-3.32,1.82,-3.33,1.81,-1.81,-1.72,-1.69,-5.13,-5.15,-5.14
231.25,-3.32,1.81,-3.30,1.84,-1.84,-1.73,-1.72,-5.16,-5.14,-5.13
233.57,-3.29,1.84,-3.26,1.87,-1.87,-1.74,-1.74,-5.16,-5.14,-5.13
235.90,-3.19,1.93,-3.22,1.90,-1.90,-1.74,-1.77,-5.08,-5.12,-5.12
238.26,-3.18,1.93,-3.18,1.93,-1.91,-1.75,-1.79,-5.09,-5.09,-5.11
240.64,-3.16,1.93,-3.15,1.95,-1.92,-1.76,-1.81,-5.08,-5.07,-5.09
243.05,-3.15,1.93,-3.15,1.94,-1.92,-1.77,-1.82,-5.07,-5.07,-5.08
245.48,-3.13,1.94,-3.15,1.92,-1.92,-1.77,-1.84,-5.05,-5.07,-5.07
247.93,-3.17,1.89,-3.16,1.90,-1.91,-1.78,-1.85,-5.08,-5.06,-5.06
250.41,-3.18,1.87,-3.16,1.89,-1.89,-1.79,-1.86,-5.07,-5.06,-5.05
252.92,-3.17,1.87,-3.18,1.87,-1.87,-1.79,-1.87,-5.04,-5.05,-5.04
255.45,-3.18,1.86,-3.19,1.85,-1.86,-1.79,-1.88,-5.03,-5.05,-5.04
258.00,-3.22,1.82,-3.21,1.83,-1.84,-1.80,-1.88,-5.06,-5.05,-5.04
260.58,-3.24,1.80,-3.23,1.81,-1.82,-1.80,-1.89,-5.06,-5.05,-5.04
263.19,-3.24,1.80,-3.24,1.80,-1.80,-1.80,-1.89,-5.04,-5.04,-5.04
265.82,-3.24,1.80,-3.24,1.81,-1.78,-1.81,-1.89,-5.02,-5.02,-5.04
268.48,-3.24,1.80,-3.25,1.79,-1.76,-1.81,-1.88,-5.00,-5.02,-5.04
271.16,-3.28,1.76,-3.29,1.75,-1.74,-1.81,-1.88,-5.02,-5.03,-5.04
273.87,-3.35,1.69,-3.32,1.72,-1.73,-1.81,-1.87,-5.08,-5.05,-5.04
276.61,-3.35,1.69,-3.35,1.69,-1.72,-1.81,-1.87,-5.07,-5.07,-5.04
279.38,-3.35,1.69,-3.35,1.68,-1.71,-1.81,-1.86,-5.06,-5.06,-5.04
282.17,-3.35,1.68,-3.35,1.69,-1.70,-1.81,-1.85,-5.05,-5.05,-5.03
284.99,-3.34,1.68,-3.34,1.68,-1.69,-1.81,-1.84,-5.03,-5.03,-5.02
287.84,-3.34,1.68,-3.33,1.69,-1.68,-1.81,-1.83,-5.02,-5.01,-5.02
290.72,-3.32,1.69,-3.31,1.70,-1.67,-1.80,-1.82,-4.98,-4.98,-5.01
293.63,-3.31,1.69,-3.32,1.68,-1.65,-1.80,-1.81,-4.95,-4.97,-5.00
296.57,-3.34,1.65,-3.35,1.64,-1.62,-1.80,-1.79,-4.96,-4.97,-4.99
299.53,-3.42,1.57,-3.40,1.59,-1.58,-1.80,-1.78,-5.00,-4.98,-4.99
302.53,-3.46,1.52,-3.46,1.53,-1.54,-1.79,-1.77,-5.00,-5.00,-4.98
305.55,-3.49,1.49,-3.50,1.48,-1.50,-1.79,-1.76,-4.99,-5.01,-4.98
308.61,-3.55,1.43,-3.53,1.45,-1.46,-1.79,-1.75,-5.01,-4.99,-4.98
311.69,-3.56,1.42,-3.56,1.42,-1.43,-1.78,-1.74,-4.99,-4.99,-4.98
314.81,-3.58,1.41,-3.60,1.39,-1.40,-1.78,-1.73,-4.98,-5.00,-4.99
317.96,-3.64,1.35,-3.62,1.37,-1.37,-1.78,-1.72,-5.01,-4.99,-4.99
321.14,-3.66,1.34,-3.64,1.36,-1.34,-1.77,-1.72,-5.00,-4.98,-5.00
324.35,-3.65,1.35,-3.66,1.35,-1.32,-1.77,-1.71,-4.97,-4.98,-5.00
327.59,-3.65,1.36,-3.69,1.33,-1.30,-1.77,-1.70,-4.95,-4.99,-5.01
330.87,-3.75,1.27,-3.72,1.30,-1.29,-1.76,-1.70,-5.04,-5.02,-5.02
334.18,-3.78,1.25,-3.77,1.26,-1.29,-1.76,-1.69,-5.07,-5.06,-5.03
337.52,-3.78,1.26,-3.79,1.25,-1.30,-1.76,-1.69,-5.08,-5.09,-5.04
340.90,-3.77,1.27,-3.76,1.28,-1.32,-1.76,-1.69,-5.08,-5.08,-5.04
344.30,-3.73,1.32,-3.72,1.33,-1.34,-1.75,-1.69,-5.07,-5.06,-5.05
347.75,-3.68,1.39,-3.68,1.39,-1.36,-1.75,-1.69,-5.04,-5.04,-5.07
351.23,-3.64,1.44,-3.65,1.43,-1.39,-1.75,-1.69,-5.03,-5.04,-5.08
354.74,-3.64,1.45,-3.64,1.45,-1.42,-1.75,-1.70,-5.06,-5.06,-5.09
358.28,-3.65,1.45,-3.64,1.46,-1.45,-1.75,-1.70,-5.10,-5.09,-5.10
361.87,-3.64,1.47,-3.64,1.47,-1.48,-1.75,-1.71,-5.11,-5.12,-5.11
365.49,-3.64,1.49,-3.64,1.49,-1.50,-1.75,-1.72,-5.14,-5.14,-5.13
369.14,-3.63,1.51,-3.64,1.50,-1.52,-1.75,-1.73,-5.15,-5.17,-5.14
372.83,-3.64,1.51,-3.63,1.52,-1.55,-1.75,-1.74,-5.18,-5.17,-5.15
376.56,-3.63,1.53,-3.59,1.57,-1.58,-1.76,-1.75,-5.20,-5.17,-5.16
380.33,-3.52,1.65,-3.55,1.62,-1.61,-1.76,-1.76,-5.13,-5.16,-5.17
384.13,-3.50,1.68,-3.51,1.67,-1.66,-1.77,-1.78,-5.16,-5.17,-5.18
387.97,-3.50,1.69,-3.49,1.70,-1.70,-1.77,-1.79,-5.20,-5.19,-5.19
391.85,-3.49,1.71,-3.47,1.73,-1.74,-1.78,-1.81,-5.23,-5.22,-5.20
395.77,-3.44,1.77,-3.43,1.78,-1.78,-1.79,-1.82,-5.22,-5.21,-5.21
399.73,-3.37,1.85,-3.39,1.84,-1.81,-1.79,-1.84,-5.18,-5.20,-5.22
403.72,-3.35,1.88,-3.37,1.87,-1.84,-1.80,-1.86,-5.18,-5.20,-5.23
