frequency,raw,error,smoothed,error_smoothed,equalization,parametric_eq,fixed_band_eq,equalized_raw,equalized_smoothed,target
20.00,0.61,-3.78,0.61,-3.78,3.79,3.47,0.64,4.40,4.40,4.39
20.20,0.69,-3.71,0.69,-3.71,3.71,3.41,0.67,4.40,4.40,4.40
20.40,0.78,-3.63,0.78,-3.63,3.63,3.36,0.69,4.41,4.41,4.41
20.61,0.86,-3.55,0.86,-3.56,3.55,3.30,0.71,4.41,4.41,4.41
20.81,0.94,-3.48,0.94,-3.48,3.47,3.24,0.74,4.41,4.41,4.42
21.02,1.03,-3.39,1.03,-3.40,3.39,3.18,0.77,4.42,4.42,4.42
21.23,1.11,-3.32,1.11,-3.32,3.31,3.11,0.79,4.42,4.42,4.43
21.44,1.19,-3.24,1.19,-3.24,3.24,3.05,0.82,4.43,4.43,4.43
21.66,1.28,-3.15,1.28,-3.15,3.16,2.99,0.85,4.44,4.44,4.43
21.87,1.36,-3.07,1.36,-3.07,3.08,2.92,0.88,4.44,4.44,4.43
22.09,1.44,-3.00,1.43,-3.00,3.01,2.86,0.91,4.45,4.44,4.44
22.31,1.50,-2.94,1.50,-2.94,2.94,2.79,0.94,4.44,4.44,4.44
22.54,1.56,-2.87,1.56,-2.87,2.87,2.73,0.98,4.42,4.43,4.43
22.76,1.62,-2.80,1.62,-2.80,2.80,2.66,1.01,4.42,4.42,4.42
22.99,1.69,-2.73,1.68,-2.73,2.74,2.60,1.04,4.43,4.42,4.42
23.22,1.74,-2.68,1.74,-2.67,2.68,2.53,1.08,4.42,4.42,4.42
23.45,1.80,-2.61,1.80,-2.61,2.61,2.47,1.11,4.41,4.41,4.41
23.69,1.86,-2.55,1.85,-2.55,2.55,2.40,1.15,4.40,4.40,4.41
23.92,1.91,-2.50,1.92,-2.49,2.48,2.34,1.19,4.39,4.40,4.41
24.16,1.98,-2.43,1.98,-2.42,2.41,2.27,1.22,4.39,4.39,4.41
24.40,2.06,-2.35,2.06,-2.35,2.34,2.21,1.26,4.40,4.40,4.41
24.65,2.13,-2.28,2.13,-2.27,2.28,2.15,1.30,4.41,4.41,4.41
24.89,2.21,-2.19,2.20,-2.20,2.21,2.08,1.34,4.42,4.42,4.41
25.14,2.27,-2.13,2.26,-2.14,2.15,2.02,1.38,4.42,4.42,4.40
25.39,2.31,-2.08,2.31,-2.08,2.09,1.96,1.42,4.40,4.41,4.39
25.65,2.36,-2.03,2.36,-2.04,2.04,1.90,1.46,4.40,4.40,4.39
25.91,2.40,-1.99,2.40,-1.99,1.99,1.84,1.49,4.39,4.39,4.39
26.16,2.45,-1.94,2.45,-1.94,1.94,1.78,1.53,4.39,4.39,4.39
26.43,2.50,-1.89,2.50,-1.90,1.89,1.72,1.57,4.38,4.38,4.39
26.69,2.55,-1.84,2.55,-1.84,1.83,1.66,1.61,4.38,4.38,4.39
26.96,2.60,-1.79,2.61,-1.79,1.77,1.60,1.64,4.37,4.38,4.39
27.23,2.67,-1.72,2.67,-1.72,1.72,1.54,1.68,4.38,4.38,4.39
27.50,2.74,-1.65,2.74,-1.65,1.66,1.49,1.71,4.39,4.39,4.39
27.77,2.80,-1.59,2.80,-1.58,1.60,1.43,1.74,4.40,4.40,4.39
28.05,2.87,-1.52,2.86,-1.52,1.54,1.37,1.77,4.41,4.40,4.39
28.33,2.91,-1.48,2.91,-1.48,1.48,1.32,1.80,4.39,4.40,4.39
28.62,2.96,-1.43,2.96,-1.43,1.43,1.27,1.82,4.39,4.39,4.39
28.90,3.00,-1.40,3.00,-1.39,1.38,1.21,1.84,4.38,4.38,4.40
29.19,3.05,-1.34,3.05,-1.34,1.33,1.16,1.86,4.38,4.38,4.39
29.48,3.11,-1.28,3.11,-1.29,1.29,1.11,1.87,4.40,4.39,4.39
29.78,3.16,-1.24,3.16,-1.24,1.24,1.06,1.89,4.40,4.40,4.40
30.08,3.21,-1.19,3.21,-1.19,1.20,1.00,1.89,4.41,4.41,4.40
30.38,3.25,-1.15,3.25,-1.15,1.16,0.95,1.90,4.41,4.41,4.40
30.68,3.28,-1.12,3.28,-1.12,1.12,0.90,1.90,4.40,4.41,4.40
30.99,3.32,-1.08,3.32,-1.08,1.09,0.85,1.89,4.41,4.40,4.40
31.30,3.35,-1.05,3.35,-1.05,1.05,0.81,1.88,4.40,4.40,4.40
31.61,3.39,-1.01,3.39,-1.01,1.01,0.76,1.87,4.40,4.39,4.40
31.93,3.42,-0.98,3.42,-0.97,0.96,0.71,1.85,4.38,4.38,4.39
32.24,3.47,-0.91,3.47,-0.92,0.89,0.66,1.83,4.36,4.36,4.38
32.57,3.52,-0.86,3.51,-0.87,0.83,0.62,1.80,4.35,4.34,4.38
32.89,3.57,-0.81,3.58,-0.80,0.76,0.57,1.77,4.33,4.34,4.38
33.22,3.66,-0.71,3.67,-0.70,0.70,0.52,1.74,4.36,4.37,4.37
33.55,3.76,-0.61,3.76,-0.60,0.65,0.48,1.70,4.41,4.42,4.37
33.89,3.86,-0.50,3.83,-0.53,0.61,0.43,1.66,4.47,4.44,4.36
34.23,3.86,-0.49,3.84,-0.51,0.57,0.39,1.62,4.43,4.42,4.35
34.57,3.82,-0.53,3.82,-0.53,0.53,0.35,1.57,4.35,4.35,4.35
34.92,3.78,-0.57,3.81,-0.54,0.48,0.30,1.52,4.26,4.29,4.35
35.27,3.83,-0.52,3.83,-0.52,0.43,0.26,1.46,4.26,4.26,4.35
35.62,3.90,-0.45,3.89,-0.46,0.39,0.22,1.41,4.29,4.27,4.35
35.97,3.97,-0.37,3.98,-0.36,0.34,0.18,1.35,4.31,4.33,4.34
36.33,4.08,-0.26,4.09,-0.25,0.29,0.13,1.29,4.37,4.39,4.34
36.70,4.20,-0.14,4.19,-0.15,0.23,0.09,1.23,4.43,4.42,4.34
37.06,4.28,-0.06,4.24,-0.10,0.16,0.05,1.17,4.44,4.40,4.34
37.43,4.24,-0.10,4.23,-0.10,0.10,0.01,1.10,4.34,4.34,4.33
37.81,4.19,-0.15,4.22,-0.12,0.06,-0.03,1.03,4.25,4.28,4.34
38.19,4.23,-0.11,4.26,-0.08,0.03,-0.07,0.97,4.26,4.29,4.34
38.57,4.35,0.01,4.35,0.01,-0.00,-0.11,0.90,4.34,4.34,4.34
38.95,4.48,0.14,4.42,0.08,-0.04,-0.15,0.83,4.44,4.38,4.34
39.34,4.45,0.11,4.44,0.10,-0.07,-0.19,0.76,4.37,4.36,4.34
39.74,4.40,0.06,4.43,0.09,-0.11,-0.23,0.69,4.29,4.31,4.34
40.14,4.41,0.07,4.46,0.12,-0.16,-0.27,0.62,4.25,4.30,4.33
40.54,4.54,0.21,4.54,0.21,-0.20,-0.31,0.55,4.33,4.33,4.33
40.94,4.67,0.34,4.61,0.28,-0.25,-0.35,0.48,4.42,4.36,4.33
41.35,4.65,0.33,4.63,0.31,-0.30,-0.39,0.41,4.35,4.34,4.32
41.76,4.60,0.29,4.63,0.32,-0.35,-0.43,0.34,4.25,4.28,4.31
42.18,4.63,0.32,4.67,0.37,-0.40,-0.47,0.27,4.23,4.27,4.31
42.60,4.76,0.46,4.75,0.45,-0.45,-0.51,0.20,4.31,4.30,4.30
43.03,4.89,0.59,4.83,0.54,-0.50,-0.54,0.13,4.39,4.34,4.30
43.46,4.87,0.58,4.87,0.58,-0.54,-0.58,0.05,4.33,4.33,4.29
43.90,4.85,0.57,4.87,0.59,-0.59,-0.62,-0.02,4.26,4.29,4.28
44.33,4.87,0.60,4.87,0.60,-0.63,-0.66,-0.09,4.24,4.24,4.27
44.78,4.91,0.64,4.91,0.64,-0.68,-0.70,-0.16,4.23,4.23,4.27
45.23,4.96,0.69,4.97,0.70,-0.72,-0.74,-0.23,4.24,4.25,4.26
45.68,5.03,0.77,5.02,0.76,-0.75,-0.77,-0.30,4.28,4.28,4.26
46.13,5.08,0.82,5.07,0.81,-0.78,-0.81,-0.37,4.30,4.29,4.26
46.60,5.09,0.83,5.09,0.83,-0.80,-0.85,-0.44,4.29,4.29,4.26
47.06,5.09,0.83,5.10,0.84,-0.83,-0.89,-0.51,4.26,4.27,4.26
47.53,5.11,0.84,5.11,0.84,-0.85,-0.93,-0.59,4.26,4.26,4.27
48.01,5.13,0.86,5.13,0.86,-0.87,-0.97,-0.66,4.26,4.26,4.27
48.49,5.15,0.88,5.15,0.88,-0.88,-1.00,-0.73,4.27,4.27,4.27
48.97,5.17,0.89,5.16,0.89,-0.90,-1.04,-0.80,4.27,4.27,4.28
49.46,5.18,0.90,5.18,0.90,-0.91,-1.08,-0.87,4.27,4.27,4.28
49.96,5.20,0.91,5.22,0.93,-0.93,-1.12,-0.94,4.27,4.29,4.29
50.46,5.26,0.96,5.26,0.96,-0.95,-1.16,-1.01,4.30,4.31,4.29
50.96,5.32,1.01,5.30,0.99,-0.98,-1.20,-1.08,4.34,4.32,4.31
51.47,5.33,1.02,5.33,1.02,-1.02,-1.23,-1.15,4.31,4.31,4.31
51.99,5.33,1.02,5.34,1.03,-1.05,-1.27,-1.22,4.28,4.29,4.31
52.51,5.37,1.06,5.37,1.06,-1.08,-1.31,-1.28,4.29,4.29,4.31
53.03,5.41,1.10,5.42,1.11,-1.11,-1.35,-1.35,4.30,4.31,4.31
53.56,5.48,1.17,5.47,1.16,-1.14,-1.39,-1.42,4.34,4.34,4.31
54.10,5.53,1.21,5.51,1.19,-1.16,-1.43,-1.48,4.37,4.35,4.32
54.64,5.53,1.21,5.53,1.21,-1.18,-1.47,-1.54,4.35,4.35,4.32
55.18,5.53,1.21,5.53,1.21,-1.21,-1.50,-1.61,4.32,4.32,4.32
55.74,5.53,1.22,5.53,1.21,-1.23,-1.54,-1.67,4.30,4.30,4.31
56.29,5.54,1.23,5.55,1.23,-1.26,-1.58,-1.73,4.28,4.28,4.31
56.86,5.57,1.26,5.57,1.26,-1.29,-1.62,-1.78,4.28,4.28,4.31
57.42,5.61,1.31,5.60,1.31,-1.33,-1.66,-1.84,4.28,4.28,4.30
58.00,5.64,1.36,5.65,1.37,-1.36,-1.70,-1.89,4.28,4.29,4.28
58.58,5.70,1.43,5.69,1.42,-1.40,-1.74,-1.94,4.30,4.30,4.27
59.16,5.74,1.48,5.73,1.47,-1.43,-1.78,-1.99,4.31,4.29,4.26
59.76,5.74,1.49,5.74,1.50,-1.47,-1.82,-2.04,4.27,4.28,4.24
60.35,5.74,1.52,5.74,1.52,-1.50,-1.86,-2.08,4.24,4.24,4.22
60.96,5.74,1.54,5.74,1.54,-1.55,-1.90,-2.12,4.19,4.20,4.20
61.57,5.74,1.57,5.72,1.56,-1.60,-1.94,-2.16,4.14,4.13,4.17
62.18,5.73,1.59,5.72,1.58,-1.65,-1.98,-2.19,4.08,4.06,4.14
62.80,5.71,1.61,5.76,1.67,-1.72,-2.02,-2.22,3.99,4.05,4.10
63.43,5.82,1.77,5.84,1.78,-1.78,-2.06,-2.25,4.04,4.05,4.05
64.07,5.98,1.96,5.91,1.90,-1.85,-2.09,-2.28,4.13,4.06,4.02
64.71,5.95,1.98,5.96,1.99,-1.92,-2.13,-2.30,4.03,4.04,3.97
65.35,5.94,2.01,5.96,2.03,-1.99,-2.17,-2.32,3.95,3.97,3.93
66.01,5.94,2.05,5.94,2.05,-2.05,-2.21,-2.34,3.89,3.89,3.89
66.67,5.94,2.09,5.94,2.08,-2.10,-2.25,-2.36,3.84,3.84,3.85
67.33,5.94,2.12,5.94,2.12,-2.13,-2.29,-2.38,3.81,3.81,3.82
68.01,5.94,2.16,5.94,2.15,-2.15,-2.33,-2.39,3.78,3.78,3.78
68.69,5.94,2.19,5.94,2.19,-2.18,-2.37,-2.40,3.76,3.76,3.75
69.37,5.94,2.22,5.94,2.22,-2.21,-2.41,-2.41,3.73,3.72,3.72
70.07,5.94,2.25,5.93,2.24,-2.25,-2.45,-2.42,3.69,3.68,3.69
70.77,5.91,2.25,5.93,2.27,-2.29,-2.49,-2.43,3.61,3.63,3.66
71.48,5.94,2.31,5.95,2.32,-2.34,-2.53,-2.44,3.60,3.61,3.63
72.19,5.99,2.39,5.98,2.38,-2.39,-2.57,-2.45,3.60,3.60,3.60
72.91,6.03,2.46,6.02,2.45,-2.43,-2.61,-2.45,3.60,3.59,3.57
73.64,6.04,2.51,6.04,2.51,-2.48,-2.65,-2.46,3.56,3.56,3.53
74.38,6.04,2.54,6.04,2.55,-2.53,-2.69,-2.47,3.51,3.52,3.50
75.12,6.04,2.58,6.04,2.58,-2.58,-2.73,-2.48,3.46,3.46,3.46
75.87,6.04,2.63,6.04,2.62,-2.62,-2.77,-2.49,3.41,3.41,3.41
76.63,6.04,2.66,6.04,2.66,-2.67,-2.81,-2.50,3.37,3.37,3.38
77.40,6.04,2.71,6.03,2.70,-2.72,-2.85,-2.51,3.31,3.31,3.33
78.17,6.04,2.75,6.04,2.75,-2.78,-2.89,-2.52,3.26,3.26,3.29
78.95,6.04,2.80,6.08,2.83,-2.84,-2.93,-2.53,3.20,3.24,3.24
79.74,6.14,2.94,6.12,2.92,-2.90,-2.96,-2.55,3.24,3.21,3.20
80.54,6.17,3.02,6.13,2.98,-2.97,-3.00,-2.56,3.20,3.16,3.15
81.35,6.14,3.03,6.16,3.05,-3.04,-3.04,-2.58,3.10,3.12,3.11
82.16,6.13,3.06,6.17,3.11,-3.11,-3.08,-2.60,3.02,3.06,3.07
82.98,6.24,3.21,6.20,3.17,-3.17,-3.12,-2.62,3.07,3.03,3.03
83.81,6.24,3.25,6.23,3.24,-3.23,-3.15,-2.65,3.01,3.00,2.99
84.65,6.24,3.29,6.25,3.30,-3.28,-3.19,-2.67,2.96,2.97,2.95
85.50,6.24,3.33,6.24,3.33,-3.33,-3.23,-2.70,2.91,2.91,2.91
86.35,6.24,3.37,6.24,3.37,-3.38,-3.26,-2.73,2.86,2.86,2.87
87.22,6.24,3.42,6.24,3.42,-3.42,-3.30,-2.76,2.82,2.82,2.82
88.09,6.24,3.46,6.24,3.46,-3.47,-3.33,-2.79,2.77,2.77,2.78
88.97,6.24,3.50,6.24,3.50,-3.51,-3.37,-2.83,2.73,2.73,2.74
89.86,6.24,3.54,6.24,3.55,-3.55,-3.40,-2.87,2.69,2.69,2.69
90.76,6.24,3.59,6.24,3.59,-3.59,-3.43,-2.91,2.65,2.65,2.65
91.66,6.25,3.64,6.25,3.63,-3.63,-3.47,-2.95,2.62,2.61,2.61
92.58,6.25,3.67,6.25,3.68,-3.68,-3.50,-3.00,2.57,2.57,2.58
93.51,6.25,3.72,6.25,3.72,-3.72,-3.53,-3.04,2.53,2.53,2.53
94.44,6.25,3.76,6.25,3.76,-3.76,-3.56,-3.09,2.49,2.48,2.49
95.39,6.24,3.79,6.24,3.79,-3.80,-3.59,-3.14,2.44,2.44,2.45
96.34,6.24,3.83,6.24,3.83,-3.83,-3.62,-3.20,2.41,2.41,2.41
97.30,6.24,3.86,6.24,3.86,-3.86,-3.65,-3.25,2.38,2.38,2.38
98.28,6.23,3.90,6.23,3.90,-3.88,-3.68,-3.31,2.35,2.36,2.33
99.26,6.21,3.92,6.21,3.92,-3.90,-3.71,-3.37,2.31,2.31,2.29
100.25,6.18,3.93,6.15,3.90,-3.91,-3.74,-3.42,2.27,2.24,2.25
101.25,6.09,3.88,6.10,3.89,-3.92,-3.76,-3.48,2.17,2.18,2.21
102.27,6.03,3.87,6.07,3.91,-3.93,-3.79,-3.55,2.10,2.14,2.16
103.29,6.06,3.95,6.04,3.92,-3.93,-3.81,-3.61,2.13,2.11,2.11
104.32,6.04,3.98,6.01,3.94,-3.92,-3.84,-3.67,2.11,2.08,2.06
105.37,5.93,3.91,5.96,3.94,-3.91,-3.86,-3.73,2.02,2.05,2.02
106.42,5.88,3.91,5.87,3.90,-3.89,-3.88,-3.79,1.99,1.98,1.97
107.48,5.80,3.88,5.80,3.88,-3.87,-3.90,-3.85,1.93,1.93,1.92
108.56,5.72,3.84,5.74,3.87,-3.85,-3.93,-3.92,1.87,1.89,1.87
109.64,5.70,3.87,5.65,3.82,-3.83,-3.94,-3.97,1.87,1.82,1.83
110.74,5.55,3.76,5.55,3.77,-3.81,-3.96,-4.03,1.74,1.75,1.79
111.85,5.44,3.69,5.49,3.74,-3.78,-3.98,-4.09,1.65,1.70,1.75
112.97,5.45,3.74,5.46,3.75,-3.76,-4.00,-4.14,1.69,1.70,1.71
114.10,5.47,3.80,5.45,3.78,-3.74,-4.01,-4.19,1.72,1.70,1.67
115.24,5.47,3.83,5.41,3.77,-3.73,-4.03,-4.24,1.74,1.68,1.64
116.39,5.30,3.70,5.35,3.74,-3.71,-4.04,-4.28,1.59,1.63,1.60
117.55,5.24,3.65,5.27,3.69,-3.70,-4.05,-4.32,1.54,1.57,1.59
118.73,5.25,3.69,5.21,3.65,-3.69,-4.06,-4.35,1.56,1.52,1.56
119.92,5.18,3.64,5.18,3.64,-3.66,-4.07,-4.38,1.52,1.52,1.54
121.12,5.15,3.62,5.16,3.63,-3.63,-4.08,-4.41,1.52,1.53,1.52
122.33,5.12,3.61,5.14,3.63,-3.60,-4.09,-4.43,1.52,1.55,1.51
123.55,5.13,3.64,5.10,3.61,-3.57,-4.10,-4.45,1.56,1.53,1.49
124.79,5.09,3.61,5.04,3.56,-3.55,-4.11,-4.46,1.54,1.49,1.48
126.03,4.91,3.45,4.97,3.50,-3.52,-4.11,-4.46,1.39,1.44,1.46
127.29,4.90,3.45,4.91,3.47,-3.50,-4.11,-4.46,1.40,1.41,1.45
128.57,4.91,3.48,4.91,3.47,-3.49,-4.12,-4.45,1.42,1.42,1.43
129.85,4.95,3.53,4.92,3.50,-3.49,-4.12,-4.44,1.46,1.43,1.42
131.15,4.94,3.53,4.92,3.52,-3.51,-4.12,-4.43,1.43,1.41,1.41
132.46,4.88,3.49,4.90,3.52,-3.54,-4.12,-4.41,1.34,1.37,1.38
133.79,4.92,3.55,4.92,3.55,-3.58,-4.12,-4.38,1.34,1.34,1.37
135.12,4.95,3.60,4.98,3.63,-3.64,-4.11,-4.35,1.31,1.35,1.35
136.48,5.10,3.76,5.06,3.73,-3.70,-4.11,-4.32,1.40,1.36,1.34
137.84,5.15,3.83,5.13,3.81,-3.77,-4.10,-4.28,1.38,1.35,1.32
139.22,5.15,3.85,5.16,3.86,-3.86,-4.10,-4.25,1.29,1.30,1.30
140.61,5.19,3.91,5.20,3.92,-3.95,-4.09,-4.20,1.24,1.25,1.28
142.02,5.24,3.98,5.27,4.01,-4.05,-4.08,-4.16,1.19,1.23,1.26
143.44,5.40,4.16,5.37,4.14,-4.14,-4.08,-4.12,1.26,1.23,1.23
144.87,5.48,4.27,5.46,4.25,-4.24,-4.07,-4.07,1.24,1.22,1.21
146.32,5.53,4.35,5.53,4.35,-4.34,-4.05,-4.02,1.19,1.19,1.18
147.78,5.56,4.42,5.58,4.43,-4.44,-4.04,-3.98,1.12,1.14,1.14
149.26,5.62,4.51,5.62,4.51,-4.53,-4.03,-3.93,1.09,1.08,1.11
150.75,5.66,4.60,5.65,4.59,-4.61,-4.02,-3.88,1.05,1.05,1.06
152.26,5.66,4.65,5.67,4.66,-4.65,-4.00,-3.83,1.01,1.02,1.01
153.78,5.66,4.70,5.65,4.69,-4.66,-3.99,-3.79,1.00,0.99,0.96
155.32,5.58,4.69,5.58,4.69,-4.64,-3.97,-3.74,0.94,0.94,0.89
156.88,5.49,4.65,5.48,4.65,-4.59,-3.95,-3.70,0.90,0.90,0.84
158.44,5.32,4.54,5.33,4.55,-4.51,-3.94,-3.66,0.81,0.82,0.78
160.03,5.17,4.44,5.14,4.41,-4.39,-3.92,-3.62,0.78,0.74,0.73
161.63,4.90,4.21,4.93,4.25,-4.26,-3.90,-3.58,0.64,0.67,0.69
163.24,4.72,4.08,4.73,4.09,-4.11,-3.88,-3.54,0.61,0.62,0.64
164.88,4.55,3.94,4.54,3.94,-3.96,-3.86,-3.50,0.59,0.58,0.61
166.53,4.39,3.81,4.39,3.81,-3.83,-3.84,-3.47,0.56,0.57,0.58
168.19,4.26,3.70,4.25,3.70,-3.71,-3.82,-3.44,0.54,0.54,0.56
169.87,4.15,3.60,4.15,3.60,-3.63,-3.79,-3.41,0.51,0.52,0.55
171.57,4.08,3.54,4.09,3.55,-3.59,-3.77,-3.39,0.49,0.51,0.54
173.29,4.08,3.53,4.07,3.53,-3.57,-3.75,-3.37,0.51,0.51,0.54
175.02,4.11,3.55,4.11,3.55,-3.57,-3.73,-3.35,0.54,0.54,0.56
176.77,4.15,3.58,4.17,3.59,-3.59,-3.70,-3.33,0.56,0.57,0.57
178.54,4.26,3.67,4.23,3.65,-3.63,-3.68,-3.31,0.63,0.61,0.59
180.32,4.30,3.69,4.31,3.70,-3.67,-3.65,-3.30,0.63,0.64,0.61
182.13,4.37,3.74,4.37,3.74,-3.71,-3.63,-3.29,0.65,0.66,0.63
183.95,4.43,3.78,4.41,3.76,-3.75,-3.60,-3.29,0.68,0.66,0.65
185.79,4.44,3.78,4.44,3.78,-3.78,-3.58,-3.28,0.66,0.66,0.66
187.65,4.45,3.78,4.46,3.79,-3.80,-3.55,-3.28,0.65,0.66,0.67
189.52,4.47,3.80,4.47,3.80,-3.81,-3.53,-3.28,0.66,0.67,0.67
191.42,4.48,3.81,4.48,3.81,-3.80,-3.50,-3.28,0.68,0.68,0.67
193.33,4.49,3.81,4.47,3.80,-3.78,-3.47,-3.29,0.71,0.69,0.68
195.27,4.44,3.76,4.44,3.77,-3.75,-3.45,-3.29,0.69,0.69,0.68
197.22,4.39,3.72,4.40,3.73,-3.72,-3.42,-3.30,0.67,0.68,0.66
199.19,4.35,3.69,4.34,3.68,-3.69,-3.39,-3.31,0.66,0.65,0.66
201.18,4.28,3.63,4.28,3.63,-3.65,-3.37,-3.32,0.63,0.63,0.65
203.19,4.23,3.59,4.23,3.59,-3.61,-3.34,-3.34,0.62,0.62,0.64
205.23,4.17,3.54,4.18,3.55,-3.56,-3.32,-3.35,0.61,0.62,0.63
207.28,4.15,3.53,4.14,3.52,-3.51,-3.29,-3.37,0.64,0.63,0.62
209.35,4.10,3.48,4.10,3.49,-3.47,-3.27,-3.38,0.63,0.63,0.61
211.44,4.05,3.45,4.04,3.44,-3.42,-3.24,-3.40,0.63,0.62,0.60
213.56,3.96,3.37,3.95,3.37,-3.38,-3.22,-3.42,0.58,0.58,0.59
215.69,3.87,3.30,3.87,3.30,-3.32,-3.19,-3.44,0.55,0.55,0.57
217.85,3.77,3.21,3.80,3.24,-3.26,-3.17,-3.45,0.51,0.54,0.56
220.03,3.74,3.20,3.74,3.19,-3.18,-3.15,-3.47,0.56,0.56,0.54
222.23,3.70,3.16,3.67,3.14,-3.09,-3.12,-3.49,0.61,0.58,0.54
224.45,3.58,3.05,3.58,3.05,-3.01,-3.10,-3.50,0.57,0.57,0.53
226.70,3.46,2.94,3.46,2.94,-2.92,-3.08,-3.52,0.54,0.54,0.52
228.96,3.33,2.81,3.33,2.82,-2.84,-3.06,-3.53,0.48,0.49,0.51
231.25,3.24,2.72,3.24,2.72,-2.77,-3.04,-3.54,0.47,0.46,0.52
233.57,3.16,2.65,3.18,2.67,-2.71,-3.02,-3.55,0.45,0.47,0.51
235.90,3.15,2.63,3.15,2.63,-2.65,-3.00,-3.55,0.50,0.50,0.52
238.26,3.16,2.64,3.13,2.61,-2.61,-2.98,-3.56,0.55,0.52,0.52
240.64,3.11,2.57,3.13,2.59,-2.58,-2.96,-3.56,0.53,0.55,0.54
243.05,3.10,2.56,3.11,2.57,-2.56,-2.95,-3.55,0.54,0.56,0.54
245.48,3.12,2.57,3.09,2.55,-2.54,-2.94,-3.55,0.58,0.55,0.54
247.93,3.08,2.53,3.09,2.54,-2.52,-2.92,-3.54,0.56,0.57,0.55
250.41,3.06,2.50,3.08,2.52,-2.50,-2.91,-3.52,0.56,0.58,0.55
252.92,3.08,2.52,3.04,2.49,-2.48,-2.90,-3.51,0.60,0.57,0.56
255.45,3.01,2.45,3.02,2.46,-2.47,-2.89,-3.49,0.54,0.55,0.56
258.00,2.98,2.43,2.99,2.44,-2.47,-2.88,-3.46,0.51,0.53,0.55
260.58,3.00,2.45,3.00,2.45,-2.48,-2.88,-3.44,0.52,0.52,0.55
263.19,3.02,2.48,3.03,2.49,-2.51,-2.88,-3.41,0.51,0.52,0.54
265.82,3.10,2.56,3.06,2.52,-2.55,-2.87,-3.37,0.55,0.51,0.54
268.48,3.10,2.56,3.13,2.59,-2.60,-2.88,-3.34,0.50,0.53,0.54
271.16,3.17,2.64,3.22,2.69,-2.65,-2.88,-3.30,0.52,0.57,0.53
273.87,3.35,2.82,3.26,2.73,-2.71,-2.88,-3.26,0.64,0.55,0.53
276.61,3.34,2.81,3.31,2.79,-2.77,-2.89,-3.21,0.57,0.54,0.53
279.38,3.26,2.74,3.37,2.85,-2.83,-2.90,-3.17,0.43,0.55,0.52
282.17,3.44,2.91,3.41,2.88,-2.89,-2.91,-3.12,0.55,0.52,0.53
284.99,3.54,3.00,3.46,2.93,-2.95,-2.93,-3.07,0.59,0.51,0.54
287.84,3.48,2.95,3.52,2.98,-3.00,-2.95,-3.02,0.48,0.51,0.53
290.72,3.52,2.98,3.56,3.02,-3.05,-2.97,-2.97,0.47,0.50,0.54
293.63,3.63,3.08,3.64,3.09,-3.10,-2.99,-2.92,0.53,0.54,0.55
296.57,3.77,3.21,3.73,3.18,-3.13,-3.02,-2.87,0.63,0.60,0.56
299.53,3.81,3.26,3.79,3.23,-3.16,-3.05,-2.82,0.65,0.63,0.55
302.53,3.78,3.22,3.81,3.25,-3.19,-3.08,-2.77,0.59,0.62,0.56
305.55,3.79,3.23,3.78,3.22,-3.23,-3.11,-2.72,0.56,0.55,0.56
308.61,3.78,3.22,3.76,3.20,-3.27,-3.14,-2.67,0.51,0.49,0.56
311.69,3.74,3.18,3.77,3.22,-3.31,-3.18,-2.62,0.43,0.46,0.56
314.81,3.81,3.27,3.81,3.26,-3.34,-3.21,-2.57,0.47,0.47,0.54
317.96,3.89,3.35,3.89,3.35,-3.36,-3.25,-2.53,0.53,0.52,0.54
321.14,3.98,3.45,4.00,3.46,-3.38,-3.28,-2.48,0.60,0.62,0.53
324.35,4.06,3.53,4.04,3.52,-3.39,-3.31,-2.43,0.67,0.65,0.53
327.59,4.07,3.55,4.00,3.49,-3.41,-3.33,-2.39,0.66,0.60,0.52
330.87,3.89,3.38,3.91,3.41,-3.41,-3.36,-2.35,0.48,0.50,0.50
334.18,3.76,3.27,3.81,3.32,-3.41,-3.37,-2.31,0.35,0.41,0.49
337.52,3.77,3.29,3.76,3.27,-3.39,-3.38,-2.27,0.38,0.37,0.48
340.90,3.79,3.31,3.79,3.31,-3.36,-3.38,-2.23,0.43,0.43,0.48
344.30,3.82,3.35,3.83,3.36,-3.32,-3.37,-2.19,0.49,0.50,0.47
347.75,3.85,3.40,3.81,3.36,-3.30,-3.35,-2.16,0.55,0.51,0.45
351.23,3.77,3.33,3.75,3.31,-3.28,-3.32,-2.12,0.49,0.47,0.44
354.74,3.62,3.19,3.69,3.26,-3.26,-3.29,-2.09,0.36,0.43,0.43
358.28,3.61,3.20,3.61,3.19,-3.22,-3.24,-2.06,0.39,0.39,0.41
361.87,3.60,3.20,3.55,3.15,-3.16,-3.19,-2.03,0.44,0.39,0.40
365.49,3.46,3.08,3.49,3.11,-3.08,-3.12,-2.01,0.38,0.41,0.38
369.14,3.40,3.03,3.39,3.02,-3.00,-3.06,-1.98,0.40,0.40,0.37
372.83,3.29,2.93,3.28,2.92,-2.91,-2.98,-1.96,0.37,0.36,0.36
376.56,3.16,2.81,3.16,2.81,-2.83,-2.91,-1.94,0.33,0.33,0.35
380.33,3.04,2.70,3.05,2.71,-2.75,-2.83,-1.92,0.29,0.30,0.34
384.13,2.95,2.62,2.96,2.63,-2.66,-2.74,-1.90,0.29,0.30,0.33
387.97,2.89,2.57,2.88,2.56,-2.56,-2.66,-1.88,0.32,0.31,0.32
391.85,2.80,2.49,2.79,2.48,-2.47,-2.58,-1.86,0.33,0.32,0.31
395.77,2.68,2.38,2.69,2.39,-2.37,-2.49,-1.85,0.31,0.32,0.29
399.73,2.57,2.29,2.58,2.30,-2.26,-2.41,-1.83,0.31,0.32,0.28
403.72,2.48,2.21,2.46,2.19,-2.16,-2.33,-1.82,0.32,0.30,0.27
407.76,2.35,2.10,2.32,2.07,-2.06,-2.26,-1.81,0.29,0.26,0.25
411.84,2.16,1.92,2.20,1.95,-1.97,-2.18,-1.79,0.18,0.22,0.24
415.96,2.07,1.84,2.08,1.85,-1.90,-2.11,-1.78,0.17,0.18,0.23
420.12,2.03,1.80,2.00,1.78,-1.83,-2.04,-1.77,0.20,0.17,0.23
424.32,1.96,1.74,1.97,1.75,-1.78,-1.97,-1.76,0.18,0.19,0.22
428.56,1.96,1.74,1.97,1.74,-1.74,-1.91,-1.76,0.22,0.23,0.22
432.85,1.97,1.74,1.97,1.75,-1.70,-1.84,-1.75,0.26,0.27,0.23
437.18,2.00,1.76,1.97,1.73,-1.69,-1.78,-1.74,0.31,0.29,0.24
441.55,1.97,1.71,1.95,1.70,-1.68,-1.73,-1.73,0.29,0.28,0.26
445.96,1.91,1.63,1.94,1.66,-1.68,-1.67,-1.72,0.23,0.26,0.28
450.42,1.93,1.62,1.94,1.63,-1.68,-1.62,-1.71,0.25,0.26,0.31
454.93,1.99,1.64,1.98,1.64,-1.68,-1.57,-1.71,0.31,0.30,0.35
459.48,2.05,1.66,2.05,1.66,-1.68,-1.53,-1.70,0.37,0.37,0.39
464.07,2.11,1.69,2.11,1.69,-1.68,-1.48,-1.69,0.43,0.44,0.42
468.71,2.16,1.70,2.16,1.70,-1.68,-1.44,-1.68,0.48,0.48,0.46
473.40,2.21,1.71,2.19,1.70,-1.67,-1.40,-1.67,0.54,0.52,0.49
478.13,2.19,1.65,2.21,1.68,-1.66,-1.36,-1.66,0.53,0.55,0.53
482.91,2.22,1.66,2.21,1.64,-1.63,-1.32,-1.64,0.59,0.58,0.56
487.74,2.19,1.60,2.19,1.59,-1.59,-1.28,-1.63,0.60,0.60,0.59
492.62,2.16,1.55,2.16,1.55,-1.54,-1.25,-1.61,0.62,0.62,0.61
497.55,2.11,1.48,2.11,1.48,-1.49,-1.21,-1.60,0.62,0.63,0.63
502.52,2.07,1.43,2.05,1.41,-1.42,-1.18,-1.58,0.65,0.63,0.64
507.55,1.97,1.33,1.99,1.35,-1.36,-1.15,-1.56,0.61,0.63,0.64
512.62,1.91,1.28,1.93,1.29,-1.29,-1.12,-1.55,0.61,0.63,0.63
517.75,1.88,1.27,1.86,1.24,-1.23,-1.09,-1.53,0.65,0.62,0.61
522.93,1.78,1.19,1.77,1.19,-1.18,-1.07,-1.50,0.60,0.60,0.59
528.16,1.67,1.12,1.66,1.11,-1.12,-1.04,-1.48,0.55,0.54,0.55
533.44,1.53,1.03,1.55,1.05,-1.07,-1.01,-1.46,0.46,0.48,0.50
538.77,1.44,0.99,1.46,1.01,-1.02,-0.99,-1.44,0.42,0.44,0.45
544.16,1.40,1.01,1.37,0.98,-0.96,-0.97,-1.41,0.44,0.40,0.39
549.60,1.27,0.94,1.26,0.93,-0.91,-0.94,-1.38,0.36,0.35,0.33
555.10,1.13,0.87,1.13,0.87,-0.86,-0.92,-1.36,0.27,0.28,0.26
