frequency,raw,error,smoothed,error_smoothed,equalization,parametric_eq,fixed_band_eq,equalized_raw,equalized_smoothed,target
20.00,-16.22,-10.10,-16.22,-10.09,6.00,7.58,2.28,-10.22,-10.22,-6.13
20.20,-16.06,-10.03,-16.06,-10.03,6.00,7.52,2.35,-10.06,-10.06,-6.04
20.40,-15.90,-9.95,-15.90,-9.95,6.00,7.46,2.42,-9.90,-9.90,-5.95
20.61,-15.74,-9.87,-15.74,-9.87,6.00,7.40,2.49,-9.74,-9.74,-5.88
20.81,-15.58,-9.79,-15.58,-9.79,6.00,7.34,2.57,-9.58,-9.58,-5.79
21.02,-15.41,-9.70,-15.41,-9.70,6.00,7.28,2.64,-9.41,-9.41,-5.71
21.23,-15.25,-9.60,-15.25,-9.60,6.00,7.21,2.72,-9.25,-9.25,-5.65
21.44,-15.08,-9.49,-15.08,-9.50,6.00,7.15,2.80,-9.08,-9.08,-5.59
21.66,-14.92,-9.40,-14.92,-9.40,6.00,7.09,2.88,-8.92,-8.92,-5.52
21.87,-14.76,-9.29,-14.75,-9.29,6.00,7.02,2.97,-8.76,-8.75,-5.47
22.09,-14.59,-9.17,-14.59,-9.18,6.00,6.96,3.06,-8.59,-8.59,-5.42
22.31,-14.42,-9.05,-14.42,-9.05,6.00,6.89,3.15,-8.42,-8.42,-5.37
22.54,-14.26,-8.94,-14.26,-8.94,6.00,6.82,3.24,-8.26,-8.26,-5.32
22.76,-14.09,-8.81,-14.09,-8.81,6.00,6.75,3.33,-8.09,-8.09,-5.28
22.99,-13.93,-8.69,-13.93,-8.69,6.00,6.69,3.43,-7.93,-7.93,-5.24
23.22,-13.76,-8.56,-13.76,-8.57,6.00,6.62,3.53,-7.76,-7.76,-5.20
23.45,-13.60,-8.45,-13.60,-8.45,6.00,6.55,3.63,-7.60,-7.60,-5.15
23.69,-13.44,-8.33,-13.44,-8.33,6.00,6.48,3.73,-7.44,-7.44,-5.11
23.92,-13.27,-8.20,-13.27,-8.21,6.00,6.41,3.84,-7.27,-7.27,-5.07
24.16,-13.11,-8.09,-13.11,-8.08,6.00,6.33,3.95,-7.11,-7.11,-5.02
24.40,-12.94,-7.96,-12.94,-7.96,6.00,6.26,4.06,-6.94,-6.94,-4.98
24.65,-12.78,-7.83,-12.78,-7.83,6.00,6.19,4.17,-6.78,-6.78,-4.95
24.89,-12.61,-7.69,-12.61,-7.70,6.00,6.11,4.28,-6.61,-6.61,-4.91
25.14,-12.44,-7.56,-12.44,-7.57,6.00,6.04,4.39,-6.44,-6.44,-4.87
25.39,-12.28,-7.44,-12.28,-7.44,6.00,5.96,4.50,-6.28,-6.28,-4.83
25.65,-12.11,-7.32,-12.11,-7.31,6.00,5.88,4.62,-6.11,-6.11,-4.80
25.91,-11.94,-7.18,-11.94,-7.18,6.00,5.80,4.73,-5.94,-5.94,-4.77
26.16,-11.78,-7.05,-11.78,-7.05,6.00,5.73,4.84,-5.78,-5.78,-4.73
26.43,-11.61,-6.91,-11.61,-6.92,6.00,5.65,4.96,-5.61,-5.61,-4.70
26.69,-11.45,-6.79,-11.45,-6.79,6.01,5.57,5.07,-5.44,-5.44,-4.66
26.96,-11.29,-6.67,-11.29,-6.66,6.02,5.49,5.17,-5.28,-5.27,-4.62
27.23,-11.12,-6.53,-11.12,-6.54,6.02,5.40,5.28,-5.10,-5.10,-4.59
27.50,-10.96,-6.41,-10.96,-6.41,6.02,5.32,5.38,-4.94,-4.94,-4.55
27.77,-10.80,-6.28,-10.80,-6.28,6.01,5.24,5.48,-4.79,-4.79,-4.52
28.05,-10.64,-6.16,-10.64,-6.15,5.97,5.15,5.57,-4.67,-4.67,-4.48
28.33,-10.48,-6.02,-10.48,-6.02,5.92,5.07,5.65,-4.56,-4.56,-4.46
28.62,-10.32,-5.90,-10.32,-5.90,5.85,4.98,5.73,-4.47,-4.47,-4.43
28.90,-10.16,-5.77,-10.16,-5.77,5.77,4.90,5.80,-4.39,-4.39,-4.39
29.19,-10.00,-5.64,-10.00,-5.65,5.66,4.81,5.87,-4.34,-4.34,-4.36
29.48,-9.84,-5.53,-9.84,-5.52,5.55,4.72,5.92,-4.29,-4.29,-4.31
29.78,-9.68,-5.39,-9.68,-5.40,5.42,4.63,5.97,-4.26,-4.26,-4.29
30.08,-9.52,-5.27,-9.53,-5.27,5.29,4.54,6.00,-4.23,-4.24,-4.25
30.38,-9.37,-5.15,-9.38,-5.15,5.16,4.45,6.02,-4.21,-4.22,-4.22
30.68,-9.23,-5.05,-9.23,-5.04,5.04,4.36,6.03,-4.19,-4.19,-4.18
30.99,-9.08,-4.92,-9.08,-4.92,4.92,4.27,6.03,-4.16,-4.16,-4.17
31.30,-8.93,-4.81,-8.94,-4.81,4.80,4.18,6.01,-4.13,-4.13,-4.13
31.61,-8.79,-4.69,-8.79,-4.69,4.69,4.08,5.99,-4.10,-4.10,-4.10
31.93,-8.64,-4.57,-8.64,-4.57,4.58,3.99,5.94,-4.07,-4.07,-4.07
32.24,-8.50,-4.45,-8.50,-4.46,4.46,3.90,5.90,-4.04,-4.04,-4.05
32.57,-8.36,-4.34,-8.36,-4.34,4.35,3.80,5.83,-4.01,-4.02,-4.02
32.89,-8.23,-4.25,-8.23,-4.24,4.23,3.71,5.76,-4.00,-3.99,-3.98
33.22,-8.09,-4.12,-8.09,-4.12,4.12,3.61,5.67,-3.97,-3.97,-3.97
33.55,-7.95,-4.00,-7.95,-4.01,4.00,3.51,5.58,-3.95,-3.95,-3.95
33.89,-7.81,-3.88,-7.81,-3.88,3.88,3.41,5.48,-3.93,-3.93,-3.93
34.23,-7.67,-3.77,-7.67,-3.76,3.76,3.31,5.37,-3.91,-3.90,-3.90
34.57,-7.52,-3.64,-7.53,-3.64,3.64,3.22,5.24,-3.88,-3.89,-3.88
34.92,-7.38,-3.51,-7.39,-3.52,3.52,3.12,5.12,-3.87,-3.87,-3.88
35.27,-7.25,-3.40,-7.25,-3.39,3.39,3.02,4.98,-3.86,-3.85,-3.85
35.62,-7.11,-3.27,-7.11,-3.27,3.27,2.91,4.85,-3.84,-3.84,-3.84
35.97,-6.97,-3.14,-6.97,-3.15,3.15,2.81,4.70,-3.82,-3.83,-3.83
36.33,-6.84,-3.02,-6.84,-3.02,3.03,2.71,4.56,-3.81,-3.81,-3.81
36.70,-6.71,-2.90,-6.71,-2.90,2.91,2.61,4.41,-3.80,-3.80,-3.81
37.06,-6.58,-2.78,-6.58,-2.79,2.79,2.51,4.25,-3.79,-3.79,-3.80
37.43,-6.46,-2.68,-6.46,-2.67,2.67,2.40,4.10,-3.79,-3.79,-3.78
37.81,-6.33,-2.56,-6.33,-2.56,2.55,2.30,3.94,-3.78,-3.78,-3.78
38.19,-6.21,-2.44,-6.21,-2.44,2.43,2.20,3.78,-3.78,-3.78,-3.77
38.57,-6.08,-2.32,-6.08,-2.32,2.31,2.09,3.62,-3.77,-3.77,-3.76
38.95,-5.95,-2.18,-5.95,-2.19,2.19,1.99,3.46,-3.76,-3.76,-3.76
39.34,-5.83,-2.06,-5.83,-2.06,2.07,1.88,3.31,-3.76,-3.76,-3.77
39.74,-5.70,-1.94,-5.70,-1.94,1.94,1.78,3.15,-3.76,-3.76,-3.76
40.14,-5.58,-1.82,-5.58,-1.82,1.82,1.68,2.99,-3.76,-3.76,-3.76
40.54,-5.46,-1.69,-5.46,-1.70,1.70,1.57,2.83,-3.76,-3.76,-3.77
40.94,-5.34,-1.58,-5.34,-1.58,1.58,1.47,2.67,-3.76,-3.76,-3.76
41.35,-5.22,-1.45,-5.22,-1.46,1.46,1.36,2.52,-3.76,-3.76,-3.77
41.76,-5.11,-1.35,-5.11,-1.35,1.35,1.26,2.36,-3.76,-3.76,-3.76
42.18,-4.99,-1.24,-4.99,-1.24,1.24,1.15,2.20,-3.75,-3.76,-3.75
42.60,-4.88,-1.12,-4.88,-1.13,1.12,1.05,2.05,-3.76,-3.76,-3.76
43.03,-4.77,-1.02,-4.77,-1.01,1.01,0.95,1.90,-3.76,-3.76,-3.75
43.46,-4.66,-0.90,-4.66,-0.90,0.89,0.84,1.75,-3.77,-3.77,-3.76
43.90,-4.55,-0.78,-4.55,-0.78,0.78,0.74,1.60,-3.77,-3.77,-3.77
44.33,-4.44,-0.66,-4.44,-0.66,0.66,0.64,1.45,-3.78,-3.78,-3.78
44.78,-4.33,-0.55,-4.33,-0.55,0.55,0.54,1.30,-3.78,-3.78,-3.78
45.23,-4.22,-0.43,-4.22,-0.43,0.44,0.43,1.15,-3.79,-3.78,-3.79
45.68,-4.11,-0.32,-4.11,-0.32,0.33,0.33,1.01,-3.79,-3.78,-3.79
46.13,-4.00,-0.20,-4.01,-0.21,0.22,0.23,0.86,-3.78,-3.79,-3.80
46.60,-3.90,-0.11,-3.90,-0.11,0.11,0.14,0.72,-3.79,-3.79,-3.80
47.06,-3.81,-0.02,-3.80,-0.01,0.00,0.04,0.58,-3.81,-3.80,-3.79
47.53,-3.70,0.10,-3.70,0.09,-0.10,-0.06,0.44,-3.80,-3.80,-3.80
48.01,-3.59,0.19,-3.60,0.20,-0.21,-0.15,0.30,-3.80,-3.80,-3.78
48.49,-3.49,0.31,-3.49,0.31,-0.31,-0.25,0.16,-3.80,-3.80,-3.80
48.97,-3.39,0.42,-3.39,0.42,-0.41,-0.34,0.02,-3.80,-3.80,-3.81
49.46,-3.29,0.53,-3.29,0.53,-0.52,-0.43,-0.12,-3.81,-3.81,-3.82
49.96,-3.19,0.63,-3.19,0.62,-0.62,-0.52,-0.25,-3.81,-3.81,-3.82
50.46,-3.09,0.71,-3.09,0.72,-0.72,-0.61,-0.38,-3.81,-3.81,-3.80
50.96,-2.99,0.81,-2.99,0.81,-0.81,-0.70,-0.52,-3.81,-3.81,-3.80
51.47,-2.89,0.92,-2.89,0.91,-0.91,-0.79,-0.65,-3.80,-3.80,-3.81
51.99,-2.80,1.00,-2.80,1.00,-1.00,-0.87,-0.77,-3.80,-3.80,-3.80
52.51,-2.70,1.08,-2.70,1.09,-1.09,-0.95,-0.90,-3.79,-3.79,-3.79
53.03,-2.60,1.17,-2.60,1.18,-1.18,-1.03,-1.03,-3.78,-3.78,-3.78
53.56,-2.51,1.26,-2.51,1.26,-1.26,-1.11,-1.15,-3.77,-3.77,-3.77
54.10,-2.42,1.35,-2.42,1.35,-1.35,-1.19,-1.27,-3.77,-3.77,-3.78
54.64,-2.34,1.42,-2.34,1.43,-1.43,-1.26,-1.38,-3.77,-3.77,-3.77
55.18,-2.25,1.52,-2.26,1.51,-1.51,-1.33,-1.50,-3.76,-3.77,-3.77
55.74,-2.18,1.59,-2.18,1.59,-1.59,-1.40,-1.61,-3.77,-3.77,-3.77
56.29,-2.10,1.67,-2.10,1.67,-1.67,-1.47,-1.71,-3.77,-3.77,-3.77
56.86,-2.03,1.74,-2.03,1.74,-1.74,-1.54,-1.82,-3.78,-3.78,-3.77
57.42,-1.96,1.82,-1.96,1.82,-1.82,-1.60,-1.92,-3.78,-3.78,-3.78
58.00,-1.89,1.89,-1.89,1.89,-1.89,-1.67,-2.01,-3.78,-3.78,-3.79
58.58,-1.82,1.97,-1.82,1.97,-1.97,-1.73,-2.10,-3.79,-3.79,-3.79
59.16,-1.75,2.04,-1.75,2.04,-2.04,-1.78,-2.19,-3.79,-3.79,-3.79
59.76,-1.69,2.10,-1.69,2.11,-2.11,-1.84,-2.27,-3.81,-3.80,-3.80
60.35,-1.63,2.18,-1.63,2.18,-2.19,-1.89,-2.34,-3.82,-3.82,-3.81
60.96,-1.57,2.25,-1.57,2.25,-2.26,-1.95,-2.41,-3.83,-3.83,-3.82
61.57,-1.52,2.33,-1.52,2.33,-2.33,-2.00,-2.48,-3.85,-3.85,-3.85
62.18,-1.48,2.39,-1.47,2.39,-2.39,-2.05,-2.54,-3.87,-3.87,-3.88
62.80,-1.43,2.45,-1.43,2.46,-2.45,-2.09,-2.59,-3.88,-3.88,-3.88
63.43,-1.39,2.52,-1.39,2.51,-2.50,-2.14,-2.64,-3.89,-3.90,-3.91
64.07,-1.36,2.55,-1.36,2.55,-2.55,-2.18,-2.68,-3.91,-3.91,-3.91
64.71,-1.33,2.59,-1.33,2.59,-2.59,-2.22,-2.72,-3.92,-3.92,-3.92
65.35,-1.31,2.62,-1.31,2.62,-2.62,-2.26,-2.76,-3.93,-3.93,-3.93
66.01,-1.29,2.65,-1.29,2.65,-2.65,-2.30,-2.79,-3.94,-3.94,-3.94
66.67,-1.28,2.67,-1.28,2.67,-2.67,-2.34,-2.81,-3.95,-3.95,-3.95
67.33,-1.26,2.69,-1.26,2.69,-2.69,-2.38,-2.83,-3.95,-3.95,-3.95
68.01,-1.24,2.71,-1.24,2.70,-2.70,-2.41,-2.85,-3.94,-3.95,-3.95
68.69,-1.23,2.72,-1.23,2.72,-2.71,-2.45,-2.86,-3.94,-3.95,-3.95
69.37,-1.23,2.72,-1.23,2.72,-2.72,-2.48,-2.87,-3.95,-3.95,-3.95
70.07,-1.22,2.73,-1.22,2.73,-2.73,-2.51,-2.88,-3.95,-3.95,-3.95
70.77,-1.21,2.73,-1.21,2.73,-2.74,-2.54,-2.89,-3.95,-3.95,-3.94
71.48,-1.21,2.74,-1.21,2.74,-2.74,-2.57,-2.89,-3.95,-3.95,-3.95
72.19,-1.20,2.75,-1.21,2.74,-2.74,-2.61,-2.89,-3.94,-3.95,-3.95
72.91,-1.21,2.74,-1.21,2.75,-2.74,-2.64,-2.89,-3.95,-3.95,-3.95
73.64,-1.22,2.75,-1.22,2.75,-2.74,-2.66,-2.90,-3.96,-3.96,-3.97
74.38,-1.22,2.74,-1.22,2.74,-2.74,-2.69,-2.90,-3.96,-3.97,-3.96
75.12,-1.23,2.74,-1.23,2.74,-2.74,-2.72,-2.89,-3.98,-3.97,-3.97
75.87,-1.23,2.73,-1.23,2.74,-2.74,-2.75,-2.89,-3.97,-3.97,-3.97
76.63,-1.23,2.74,-1.23,2.74,-2.74,-2.78,-2.89,-3.97,-3.97,-3.97
77.40,-1.23,2.74,-1.23,2.74,-2.74,-2.81,-2.89,-3.97,-3.97,-3.97
78.17,-1.23,2.75,-1.23,2.74,-2.74,-2.84,-2.90,-3.97,-3.97,-3.98
78.95,-1.23,2.74,-1.23,2.74,-2.73,-2.87,-2.90,-3.96,-3.96,-3.97
79.74,-1.23,2.72,-1.23,2.73,-2.73,-2.90,-2.90,-3.96,-3.96,-3.96
80.54,-1.23,2.71,-1.23,2.72,-2.72,-2.93,-2.91,-3.95,-3.95,-3.94
81.35,-1.23,2.70,-1.23,2.70,-2.70,-2.96,-2.91,-3.93,-3.93,-3.94
82.16,-1.23,2.69,-1.23,2.69,-2.68,-2.99,-2.92,-3.92,-3.91,-3.93
82.98,-1.23,2.67,-1.23,2.67,-2.66,-3.02,-2.93,-3.89,-3.90,-3.90
83.81,-1.24,2.65,-1.24,2.65,-2.64,-3.05,-2.95,-3.88,-3.88,-3.89
84.65,-1.25,2.63,-1.25,2.62,-2.62,-3.08,-2.96,-3.87,-3.87,-3.88
85.50,-1.25,2.59,-1.25,2.60,-2.60,-3.11,-2.98,-3.85,-3.85,-3.84
86.35,-1.25,2.58,-1.25,2.58,-2.58,-3.14,-2.99,-3.83,-3.84,-3.83
87.22,-1.25,2.56,-1.25,2.56,-2.57,-3.18,-3.02,-3.82,-3.82,-3.81
88.09,-1.24,2.56,-1.24,2.56,-2.56,-3.21,-3.04,-3.81,-3.81,-3.80
88.97,-1.23,2.55,-1.23,2.56,-2.56,-3.25,-3.07,-3.79,-3.79,-3.78
89.86,-1.20,2.57,-1.20,2.57,-2.57,-3.28,-3.09,-3.77,-3.77,-3.77
90.76,-1.18,2.60,-1.18,2.59,-2.58,-3.32,-3.12,-3.76,-3.77,-3.78
91.66,-1.16,2.60,-1.16,2.61,-2.60,-3.35,-3.16,-3.76,-3.76,-3.76
92.58,-1.14,2.64,-1.14,2.63,-2.63,-3.39,-3.19,-3.77,-3.77,-3.78
93.51,-1.11,2.67,-1.11,2.66,-2.67,-3.43,-3.23,-3.78,-3.78,-3.78
94.44,-1.09,2.69,-1.09,2.70,-2.71,-3.47,-3.27,-3.80,-3.80,-3.78
95.39,-1.05,2.75,-1.05,2.75,-2.76,-3.51,-3.31,-3.82,-3.82,-3.80
96.34,-1.01,2.82,-1.01,2.82,-2.83,-3.55,-3.36,-3.84,-3.84,-3.83
97.30,-0.96,2.89,-0.96,2.89,-2.89,-3.59,-3.40,-3.85,-3.86,-3.86
98.28,-0.92,2.96,-0.92,2.97,-2.97,-3.63,-3.45,-3.89,-3.88,-3.88
99.26,-0.87,3.04,-0.87,3.05,-3.04,-3.67,-3.50,-3.91,-3.91,-3.91
100.25,-0.82,3.13,-0.82,3.12,-3.11,-3.71,-3.55,-3.93,-3.94,-3.95
101.25,-0.78,3.21,-0.78,3.20,-3.18,-3.76,-3.60,-3.96,-3.97,-3.99
102.27,-0.75,3.26,-0.75,3.27,-3.25,-3.80,-3.66,-4.00,-4.00,-4.02
103.29,-0.73,3.33,-0.73,3.32,-3.32,-3.84,-3.72,-4.05,-4.05,-4.06
104.32,-0.72,3.37,-0.72,3.38,-3.38,-3.89,-3.77,-4.10,-4.10,-4.09
105.37,-0.70,3.43,-0.70,3.43,-3.45,-3.93,-3.83,-4.15,-4.14,-4.13
106.42,-0.67,3.49,-0.67,3.49,-3.51,-3.98,-3.89,-4.18,-4.18,-4.16
107.48,-0.63,3.57,-0.63,3.57,-3.58,-4.02,-3.95,-4.21,-4.21,-4.20
108.56,-0.59,3.64,-0.59,3.65,-3.64,-4.07,-4.00,-4.23,-4.23,-4.24
109.64,-0.54,3.73,-0.55,3.72,-3.71,-4.12,-4.06,-4.25,-4.25,-4.27
110.74,-0.51,3.79,-0.51,3.79,-3.78,-4.16,-4.12,-4.29,-4.28,-4.30
111.85,-0.47,3.85,-0.48,3.85,-3.84,-4.21,-4.17,-4.31,-4.32,-4.32
112.97,-0.45,3.92,-0.45,3.91,-3.91,-4.26,-4.23,-4.36,-4.36,-4.37
114.10,-0.42,3.96,-0.41,3.97,-3.98,-4.31,-4.28,-4.40,-4.39,-4.38
115.24,-0.37,4.04,-0.38,4.03,-4.04,-4.35,-4.33,-4.41,-4.42,-4.41
116.39,-0.34,4.09,-0.34,4.10,-4.11,-4.40,-4.38,-4.45,-4.45,-4.43
117.55,-0.29,4.16,-0.28,4.17,-4.17,-4.45,-4.43,-4.46,-4.46,-4.46
118.73,-0.23,4.24,-0.23,4.24,-4.23,-4.50,-4.47,-4.47,-4.46,-4.47
119.92,-0.16,4.32,-0.17,4.31,-4.30,-4.54,-4.52,-4.46,-4.47,-4.48
121.12,-0.12,4.37,-0.12,4.37,-4.35,-4.59,-4.55,-4.48,-4.48,-4.49
122.33,-0.09,4.42,-0.09,4.42,-4.41,-4.64,-4.59,-4.50,-4.50,-4.51
123.55,-0.06,4.45,-0.06,4.46,-4.47,-4.69,-4.62,-4.53,-4.52,-4.51
124.79,-0.02,4.51,-0.02,4.51,-4.52,-4.74,-4.65,-4.54,-4.54,-4.53
126.03,0.03,4.57,0.02,4.56,-4.57,-4.78,-4.67,-4.54,-4.55,-4.54
127.29,0.06,4.61,0.06,4.62,-4.62,-4.83,-4.69,-4.56,-4.56,-4.55
128.57,0.10,4.67,0.11,4.67,-4.67,-4.88,-4.71,-4.57,-4.56,-4.57
129.85,0.15,4.73,0.15,4.73,-4.72,-4.92,-4.73,-4.57,-4.57,-4.58
131.15,0.20,4.79,0.19,4.78,-4.76,-4.97,-4.74,-4.56,-4.58,-4.60
132.46,0.21,4.82,0.22,4.82,-4.81,-5.02,-4.75,-4.60,-4.59,-4.61
133.79,0.24,4.85,0.24,4.86,-4.86,-5.06,-4.76,-4.62,-4.62,-4.61
135.12,0.27,4.91,0.27,4.90,-4.91,-5.11,-4.76,-4.64,-4.65,-4.64
136.48,0.30,4.94,0.30,4.95,-4.97,-5.15,-4.77,-4.67,-4.66,-4.64
137.84,0.35,5.01,0.34,5.01,-5.02,-5.20,-4.77,-4.67,-4.68,-4.66
139.22,0.39,5.08,0.39,5.08,-5.08,-5.24,-4.77,-4.69,-4.69,-4.69
140.61,0.44,5.15,0.45,5.15,-5.14,-5.29,-4.77,-4.70,-4.70,-4.71
142.02,0.51,5.22,0.50,5.22,-5.20,-5.33,-4.76,-4.70,-4.71,-4.72
143.44,0.54,5.27,0.54,5.28,-5.27,-5.37,-4.76,-4.73,-4.72,-4.73
144.87,0.58,5.34,0.58,5.34,-5.33,-5.41,-4.76,-4.75,-4.75,-4.76
146.32,0.60,5.39,0.60,5.38,-5.38,-5.46,-4.76,-4.78,-4.78,-4.79
147.78,0.63,5.42,0.63,5.43,-5.44,-5.50,-4.76,-4.81,-4.81,-4.79
149.26,0.65,5.47,0.65,5.48,-5.48,-5.54,-4.76,-4.84,-4.83,-4.82
150.75,0.68,5.54,0.67,5.53,-5.53,-5.58,-4.76,-4.85,-4.85,-4.86
152.26,0.69,5.58,0.69,5.58,-5.57,-5.62,-4.77,-4.88,-4.88,-4.89
153.78,0.71,5.62,0.71,5.62,-5.61,-5.66,-4.77,-4.90,-4.90,-4.91
155.32,0.72,5.66,0.72,5.65,-5.65,-5.70,-4.78,-4.93,-4.93,-4.94
156.88,0.72,5.68,0.72,5.69,-5.69,-5.74,-4.79,-4.97,-4.97,-4.97
158.44,0.72,5.72,0.72,5.72,-5.73,-5.78,-4.81,-5.01,-5.01,-5.00
160.03,0.72,5.76,0.72,5.76,-5.77,-5.82,-4.82,-5.05,-5.05,-5.04
161.63,0.73,5.80,0.73,5.80,-5.81,-5.86,-4.84,-5.08,-5.08,-5.07
163.24,0.75,5.85,0.75,5.85,-5.86,-5.89,-4.86,-5.11,-5.10,-5.10
164.88,0.79,5.91,0.78,5.90,-5.91,-5.93,-4.89,-5.12,-5.13,-5.12
166.53,0.81,5.96,0.81,5.96,-5.96,-5.97,-4.92,-5.15,-5.15,-5.15
168.19,0.84,6.03,0.84,6.02,-6.02,-6.01,-4.95,-5.18,-5.18,-5.19
169.87,0.88,6.09,0.87,6.08,-6.09,-6.04,-4.99,-5.21,-5.21,-5.21
171.57,0.91,6.14,0.91,6.14,-6.15,-6.08,-5.03,-5.24,-5.24,-5.23
173.29,0.94,6.20,0.94,6.20,-6.21,-6.12,-5.07,-5.27,-5.26,-5.26
175.02,0.98,6.26,0.98,6.26,-6.26,-6.15,-5.12,-5.28,-5.28,-5.28
176.77,1.01,6.32,1.01,6.32,-6.31,-6.19,-5.17,-5.30,-5.30,-5.31
178.54,1.03,6.37,1.03,6.36,-6.35,-6.23,-5.23,-5.32,-5.32,-5.34
180.32,1.04,6.39,1.04,6.40,-6.38,-6.27,-5.29,-5.34,-5.33,-5.35
182.13,1.05,6.41,1.04,6.41,-6.40,-6.30,-5.35,-5.35,-5.36,-5.36
183.95,1.04,6.42,1.04,6.42,-6.42,-6.34,-5.42,-5.38,-5.38,-5.38
185.79,1.03,6.43,1.03,6.43,-6.44,-6.38,-5.49,-5.41,-5.40,-5.40
187.65,1.03,6.44,1.03,6.44,-6.45,-6.41,-5.56,-5.42,-5.42,-5.41
189.52,1.04,6.46,1.04,6.46,-6.47,-6.45,-5.64,-5.43,-5.44,-5.42
191.42,1.05,6.49,1.05,6.49,-6.50,-6.49,-5.72,-5.45,-5.45,-5.44
193.33,1.07,6.52,1.07,6.52,-6.53,-6.53,-5.81,-5.46,-5.46,-5.45
195.27,1.10,6.56,1.10,6.56,-6.56,-6.56,-5.90,-5.46,-5.47,-5.46
197.22,1.13,6.60,1.13,6.61,-6.60,-6.60,-5.99,-5.48,-5.48,-5.47
199.19,1.16,6.66,1.16,6.65,-6.65,-6.63,-6.08,-5.49,-5.49,-5.50
201.18,1.19,6.69,1.19,6.70,-6.70,-6.67,-6.18,-5.51,-5.51,-5.51
203.19,1.22,6.73,1.22,6.74,-6.74,-6.70,-6.28,-5.52,-5.52,-5.52
205.23,1.26,6.79,1.26,6.78,-6.79,-6.73,-6.38,-5.53,-5.53,-5.54
207.28,1.29,6.82,1.29,6.83,-6.84,-6.76,-6.48,-5.55,-5.55,-5.54
209.35,1.32,6.87,1.32,6.88,-6.88,-6.78,-6.58,-5.56,-5.56,-5.55
211.44,1.35,6.92,1.35,6.92,-6.92,-6.81,-6.69,-5.57,-5.57,-5.57
213.56,1.38,6.95,1.38,6.95,-6.95,-6.83,-6.79,-5.57,-5.57,-5.57
215.69,1.40,6.97,1.40,6.97,-6.97,-6.84,-6.89,-5.57,-5.57,-5.57
217.85,1.41,6.99,1.41,6.99,-6.98,-6.85,-6.99,-5.57,-5.57,-5.58
220.03,1.40,7.00,1.40,7.00,-6.98,-6.86,-7.09,-5.58,-5.58,-5.60
222.23,1.39,6.99,1.39,6.99,-6.98,-6.86,-7.19,-5.59,-5.59,-5.61
224.45,1.37,6.96,1.36,6.96,-6.96,-6.86,-7.28,-5.59,-5.60,-5.59
226.70,1.33,6.93,1.33,6.94,-6.94,-6.85,-7.37,-5.61,-5.61,-5.60
228.96,1.30,6.91,1.31,6.91,-6.92,-6.85,-7.45,-5.62,-5.61,-5.61
231.25,1.28,6.88,1.27,6.88,-6.89,-6.83,-7.53,-5.61,-5.62,-5.60
233.57,1.25,6.86,1.25,6.86,-6.86,-6.82,-7.60,-5.61,-5.62,-5.61
235.90,1.21,6.83,1.21,6.83,-6.83,-6.80,-7.66,-5.62,-5.62,-5.62
238.26,1.18,6.81,1.18,6.81,-6.80,-6.78,-7.72,-5.62,-5.62,-5.63
240.64,1.15,6.78,1.15,6.78,-6.77,-6.76,-7.76,-5.62,-5.62,-5.63
243.05,1.12,6.75,1.12,6.75,-6.75,-6.74,-7.80,-5.63,-5.63,-5.63
245.48,1.09,6.72,1.09,6.72,-6.72,-6.71,-7.82,-5.63,-5.63,-5.63
247.93,1.05,6.68,1.06,6.69,-6.70,-6.69,-7.84,-5.65,-5.64,-5.63
250.41,1.04,6.68,1.04,6.67,-6.67,-6.66,-7.84,-5.64,-5.64,-5.64
252.92,1.02,6.64,1.02,6.65,-6.66,-6.64,-7.84,-5.64,-5.63,-5.62
255.45,1.02,6.63,1.02,6.64,-6.64,-6.62,-7.82,-5.62,-5.62,-5.61
258.00,1.02,6.62,1.02,6.62,-6.63,-6.59,-7.80,-5.61,-5.61,-5.60
260.58,1.03,6.63,1.03,6.62,-6.62,-6.57,-7.76,-5.59,-5.59,-5.60
263.19,1.04,6.61,1.04,6.62,-6.61,-6.54,-7.72,-5.57,-5.57,-5.57
265.82,1.04,6.61,1.04,6.60,-6.60,-6.52,-7.67,-5.56,-5.56,-5.57
268.48,1.04,6.59,1.04,6.59,-6.59,-6.50,-7.61,-5.55,-5.55,-5.55
271.16,1.04,6.57,1.04,6.57,-6.58,-6.48,-7.54,-5.54,-5.54,-5.53
273.87,1.04,6.56,1.04,6.56,-6.56,-6.46,-7.46,-5.52,-5.52,-5.52
276.61,1.04,6.54,1.04,6.55,-6.55,-6.44,-7.38,-5.51,-5.51,-5.50
279.38,1.04,6.53,1.04,6.53,-6.53,-6.42,-7.30,-5.50,-5.50,-5.50
282.17,1.04,6.53,1.04,6.52,-6.52,-6.40,-7.21,-5.48,-5.48,-5.49
284.99,1.04,6.50,1.04,6.51,-6.51,-6.38,-7.12,-5.47,-5.47,-5.46
287.84,1.04,6.49,1.04,6.49,-6.49,-6.36,-7.02,-5.45,-5.45,-5.45
290.72,1.04,6.48,1.04,6.47,-6.48,-6.35,-6.92,-5.44,-5.44,-5.44
293.63,1.04,6.46,1.04,6.46,-6.46,-6.33,-6.83,-5.42,-5.42,-5.42
296.57,1.04,6.43,1.04,6.44,-6.44,-6.31,-6.73,-5.40,-5.40,-5.39
299.53,1.04,6.42,1.04,6.42,-6.42,-6.30,-6.63,-5.38,-5.38,-5.39
302.53,1.04,6.41,1.04,6.40,-6.40,-6.28,-6.53,-5.36,-5.36,-5.37
305.55,1.04,6.37,1.04,6.38,-6.37,-6.26,-6.43,-5.33,-5.33,-5.33
308.61,1.04,6.35,1.04,6.35,-6.35,-6.25,-6.34,-5.31,-5.31,-5.31
311.69,1.04,6.32,1.04,6.32,-6.32,-6.23,-6.25,-5.29,-5.29,-5.29
314.81,1.04,6.29,1.04,6.29,-6.30,-6.22,-6.15,-5.26,-5.26,-5.25
317.96,1.04,6.27,1.04,6.27,-6.28,-6.21,-6.07,-5.24,-5.24,-5.23
321.14,1.05,6.25,1.05,6.25,-6.26,-6.19,-5.98,-5.21,-5.21,-5.20
324.35,1.05,6.23,1.05,6.23,-6.23,-6.18,-5.90,-5.18,-5.18,-5.18
327.59,1.06,6.21,1.06,6.21,-6.21,-6.16,-5.82,-5.15,-5.15,-5.16
330.87,1.06,6.19,1.06,6.19,-6.18,-6.15,-5.74,-5.12,-5.12,-5.13
334.18,1.06,6.17,1.06,6.16,-6.15,-6.14,-5.67,-5.09,-5.10,-5.11
337.52,1.04,6.12,1.04,6.12,-6.12,-6.12,-5.60,-5.08,-5.07,-5.08
340.90,1.03,6.08,1.03,6.08,-6.08,-6.11,-5.54,-5.05,-5.05,-5.05
344.30,1.00,6.02,1.00,6.03,-6.03,-6.09,-5.48,-5.03,-5.03,-5.02
347.75,0.98,5.98,0.98,5.98,-5.98,-6.08,-5.42,-5.00,-5.00,-5.01
351.23,0.95,5.93,0.95,5.93,-5.92,-6.07,-5.37,-4.97,-4.98,-4.98
354.74,0.92,5.87,0.92,5.87,-5.87,-6.05,-5.32,-4.95,-4.95,-4.95
358.28,0.88,5.81,0.88,5.81,-5.81,-6.04,-5.28,-4.93,-4.93,-4.93
361.87,0.85,5.75,0.85,5.75,-5.75,-6.03,-5.24,-4.90,-4.91,-4.90
365.49,0.81,5.69,0.81,5.70,-5.69,-6.01,-5.20,-4.89,-4.88,-4.88
369.14,0.78,5.64,0.78,5.64,-5.64,-6.00,-5.17,-4.86,-4.86,-4.86
372.83,0.76,5.60,0.75,5.59,-5.60,-5.99,-5.14,-4.84,-4.84,-4.84
376.56,0.72,5.54,0.73,5.55,-5.55,-5.97,-5.11,-4.84,-4.83,-4.83
380.33,0.71,5.51,0.71,5.51,-5.52,-5.96,-5.09,-4.81,-4.81,-4.80
384.13,0.70,5.49,0.70,5.48,-5.50,-5.95,-5.08,-4.80,-4.80,-4.79
387.97,0.69,5.47,0.70,5.47,-5.48,-5.93,-5.06,-4.79,-4.78,-4.78
391.85,0.70,5.47,0.70,5.47,-5.46,-5.92,-5.05,-4.77,-4.77,-4.77
395.77,0.71,5.46,0.71,5.46,-5.46,-5.91,-5.04,-4.75,-4.75,-4.75
399.73,0.72,5.46,0.72,5.46,-5.45,-5.89,-5.04,-4.73,-4.74,-4.74
403.72,0.72,5.45,0.72,5.45,-5.45,-5.88,-5.03,-4.73,-4.73,-4.73
407.76,0.73,5.45,0.73,5.45,-5.45,-5.87,-5.03,-4.72,-4.72,-4.72
411.84,0.74,5.44,0.74,5.45,-5.45,-5.85,-5.04,-4.71,-4.71,-4.70
415.96,0.74,5.44,0.74,5.44,-5.44,-5.84,-5.04,-4.71,-4.70,-4.70
420.12,0.74,5.44,0.73,5.44,-5.44,-5.82,-5.05,-4.70,-4.70,-4.71
424.32,0.72,5.43,0.72,5.43,-5.43,-5.81,-5.06,-4.71,-4.71,-4.71
428.56,0.71,5.42,0.71,5.42,-5.42,-5.80,-5.07,-4.71,-4.71,-4.71
432.85,0.70,5.41,0.70,5.40,-5.40,-5.78,-5.07,-4.71,-4.71,-4.71
437.18,0.68,5.39,0.68,5.38,-5.38,-5.77,-5.09,-4.70,-4.71,-4.71
441.55,0.65,5.36,0.65,5.36,-5.36,-5.75,-5.10,-4.71,-4.71,-4.71
