frequency,raw,error,smoothed,error_smoothed,equalization,parametric_eq,fixed_band_eq,equalized_raw,equalized_smoothed,target
20.00,-11.21,-10.78,-11.20,-10.76,6.00,5.27,2.61,-5.21,-5.20,-0.44
20.20,-11.12,-10.70,-11.13,-10.71,6.00,5.35,2.68,-5.12,-5.13,-0.43
20.40,-11.03,-10.62,-11.05,-10.63,6.00,5.43,2.76,-5.03,-5.05,-0.42
20.61,-10.96,-10.54,-10.96,-10.55,6.00,5.51,2.84,-4.96,-4.96,-0.42
20.81,-10.86,-10.46,-10.86,-10.46,6.00,5.59,2.92,-4.86,-4.86,-0.41
21.02,-10.76,-10.36,-10.74,-10.33,6.00,5.67,3.01,-4.76,-4.74,-0.41
21.23,-10.57,-10.18,-10.58,-10.18,6.00,5.74,3.10,-4.57,-4.58,-0.40
21.44,-10.39,-9.99,-10.39,-9.99,6.00,5.82,3.18,-4.39,-4.39,-0.40
21.66,-10.21,-9.81,-10.19,-9.79,6.00,5.89,3.28,-4.21,-4.19,-0.40
21.87,-10.01,-9.61,-10.03,-9.64,6.00,5.95,3.37,-4.01,-4.03,-0.40
22.09,-9.90,-9.52,-9.93,-9.54,6.00,6.02,3.47,-3.90,-3.93,-0.39
22.31,-9.89,-9.50,-9.88,-9.49,6.00,6.08,3.57,-3.89,-3.88,-0.39
22.54,-9.89,-9.49,-9.90,-9.50,6.00,6.13,3.67,-3.89,-3.90,-0.40
22.76,-9.88,-9.47,-9.90,-9.49,6.00,6.19,3.78,-3.88,-3.90,-0.41
22.99,-9.88,-9.47,-9.84,-9.43,6.00,6.24,3.89,-3.88,-3.84,-0.41
23.22,-9.71,-9.30,-9.72,-9.30,6.00,6.28,4.00,-3.71,-3.72,-0.41
23.45,-9.53,-9.11,-9.55,-9.13,6.00,6.32,4.11,-3.53,-3.55,-0.42
23.69,-9.36,-8.94,-9.35,-8.93,6.00,6.36,4.22,-3.36,-3.35,-0.42
23.92,-9.17,-8.75,-9.19,-8.76,6.00,6.39,4.34,-3.17,-3.19,-0.42
24.16,-9.03,-8.61,-9.04,-8.61,6.00,6.41,4.46,-3.03,-3.04,-0.42
24.40,-8.91,-8.49,-8.90,-8.48,6.00,6.43,4.58,-2.91,-2.90,-0.42
24.65,-8.79,-8.36,-8.78,-8.36,6.00,6.45,4.71,-2.79,-2.78,-0.42
24.89,-8.66,-8.24,-8.67,-8.25,6.00,6.45,4.83,-2.66,-2.67,-0.42
25.14,-8.58,-8.16,-8.59,-8.16,6.00,6.46,4.96,-2.58,-2.59,-0.42
25.39,-8.52,-8.09,-8.53,-8.10,6.00,6.46,5.09,-2.52,-2.53,-0.43
25.65,-8.47,-8.04,-8.47,-8.04,6.00,6.45,5.21,-2.47,-2.47,-0.44
25.91,-8.42,-7.98,-8.40,-7.96,6.00,6.44,5.34,-2.42,-2.40,-0.44
26.16,-8.30,-7.87,-8.30,-7.86,6.00,6.42,5.47,-2.30,-2.30,-0.44
26.43,-8.17,-7.73,-8.17,-7.73,6.00,6.39,5.59,-2.17,-2.17,-0.44
26.69,-8.02,-7.59,-8.02,-7.58,6.00,6.36,5.72,-2.02,-2.02,-0.44
26.96,-7.88,-7.44,-7.89,-7.45,6.00,6.33,5.84,-1.88,-1.89,-0.44
27.23,-7.78,-7.34,-7.78,-7.34,6.00,6.29,5.96,-1.78,-1.78,-0.44
27.50,-7.68,-7.25,-7.69,-7.25,6.00,6.25,6.08,-1.68,-1.69,-0.44
27.77,-7.59,-7.15,-7.59,-7.15,6.00,6.20,6.19,-1.59,-1.59,-0.44
28.05,-7.49,-7.05,-7.47,-7.03,6.00,6.15,6.30,-1.49,-1.47,-0.44
28.33,-7.30,-6.86,-7.30,-6.86,6.00,6.09,6.40,-1.30,-1.30,-0.44
28.62,-7.13,-6.68,-7.12,-6.68,6.00,6.03,6.50,-1.13,-1.12,-0.44
28.90,-6.93,-6.50,-6.97,-6.53,6.00,5.97,6.58,-0.93,-0.97,-0.43
29.19,-6.86,-6.43,-6.87,-6.44,6.00,5.90,6.66,-0.86,-0.87,-0.43
29.48,-6.84,-6.41,-6.83,-6.40,6.01,5.83,6.73,-0.83,-0.82,-0.44
29.78,-6.82,-6.40,-6.82,-6.39,6.03,5.76,6.79,-0.80,-0.79,-0.43
30.08,-6.80,-6.38,-6.79,-6.37,6.03,5.68,6.83,-0.77,-0.76,-0.43
30.38,-6.75,-6.32,-6.76,-6.33,6.02,5.61,6.87,-0.73,-0.74,-0.43
30.68,-6.69,-6.26,-6.70,-6.27,5.99,5.53,6.89,-0.70,-0.71,-0.43
30.99,-6.64,-6.20,-6.60,-6.17,5.94,5.45,6.90,-0.69,-0.66,-0.43
31.30,-6.46,-6.02,-6.45,-6.02,5.88,5.37,6.90,-0.58,-0.57,-0.43
31.61,-6.27,-5.83,-6.27,-5.83,5.80,5.28,6.89,-0.47,-0.47,-0.43
31.93,-6.07,-5.63,-6.09,-5.66,5.70,5.20,6.86,-0.37,-0.39,-0.43
32.24,-5.96,-5.52,-5.97,-5.53,5.59,5.12,6.82,-0.37,-0.38,-0.45
32.57,-5.89,-5.44,-5.88,-5.43,5.47,5.03,6.77,-0.41,-0.40,-0.45
32.89,-5.80,-5.35,-5.80,-5.34,5.35,4.94,6.71,-0.45,-0.45,-0.45
33.22,-5.70,-5.24,-5.70,-5.24,5.23,4.86,6.64,-0.47,-0.47,-0.46
33.55,-5.59,-5.13,-5.60,-5.13,5.12,4.77,6.56,-0.47,-0.48,-0.46
33.89,-5.48,-5.01,-5.49,-5.02,5.02,4.69,6.47,-0.46,-0.47,-0.47
34.23,-5.39,-4.92,-5.39,-4.92,4.93,4.60,6.37,-0.47,-0.47,-0.48
34.57,-5.30,-4.83,-5.30,-4.83,4.83,4.51,6.27,-0.48,-0.48,-0.48
34.92,-5.22,-4.74,-5.21,-4.73,4.73,4.43,6.15,-0.49,-0.49,-0.48
35.27,-5.12,-4.63,-5.11,-4.63,4.62,4.35,6.04,-0.50,-0.49,-0.48
35.62,-5.01,-4.52,-5.01,-4.53,4.51,4.26,5.91,-0.49,-0.50,-0.48
35.97,-4.90,-4.42,-4.90,-4.42,4.40,4.18,5.79,-0.50,-0.50,-0.49
36.33,-4.80,-4.32,-4.80,-4.31,4.30,4.10,5.66,-0.50,-0.50,-0.49
36.70,-4.71,-4.22,-4.70,-4.21,4.21,4.01,5.52,-0.49,-0.49,-0.49
37.06,-4.60,-4.11,-4.60,-4.11,4.14,3.93,5.39,-0.46,-0.46,-0.49
37.43,-4.51,-4.02,-4.50,-4.01,4.08,3.85,5.25,-0.43,-0.42,-0.49
37.81,-4.42,-3.94,-4.44,-3.95,4.03,3.78,5.12,-0.40,-0.41,-0.49
38.19,-4.40,-3.92,-4.45,-3.96,3.97,3.70,4.98,-0.43,-0.47,-0.49
38.57,-4.47,-3.98,-4.47,-3.99,3.92,3.62,4.85,-0.55,-0.55,-0.49
38.95,-4.53,-4.05,-4.46,-3.97,3.87,3.55,4.71,-0.66,-0.59,-0.49
39.34,-4.38,-3.89,-4.37,-3.88,3.81,3.47,4.58,-0.57,-0.56,-0.49
39.74,-4.20,-3.70,-4.23,-3.74,3.75,3.40,4.45,-0.45,-0.48,-0.49
40.14,-4.08,-3.58,-4.11,-3.62,3.68,3.33,4.31,-0.40,-0.44,-0.49
40.54,-4.05,-3.56,-4.05,-3.56,3.60,3.25,4.18,-0.46,-0.46,-0.50
40.94,-4.04,-3.54,-4.00,-3.50,3.51,3.18,4.06,-0.53,-0.49,-0.50
41.35,-3.93,-3.43,-3.92,-3.41,3.42,3.12,3.93,-0.52,-0.50,-0.50
41.76,-3.79,-3.27,-3.82,-3.31,3.32,3.05,3.81,-0.47,-0.50,-0.52
42.18,-3.72,-3.20,-3.77,-3.24,3.23,2.98,3.68,-0.49,-0.53,-0.52
42.60,-3.73,-3.21,-3.72,-3.20,3.14,2.92,3.57,-0.60,-0.59,-0.53
43.03,-3.71,-3.18,-3.64,-3.11,3.04,2.85,3.45,-0.67,-0.60,-0.53
43.46,-3.50,-2.97,-3.50,-2.96,2.94,2.79,3.33,-0.56,-0.56,-0.54
43.90,-3.29,-2.74,-3.35,-2.81,2.85,2.73,3.22,-0.43,-0.50,-0.55
44.33,-3.23,-2.68,-3.25,-2.70,2.77,2.67,3.11,-0.46,-0.48,-0.55
44.78,-3.24,-2.69,-3.21,-2.65,2.70,2.61,3.00,-0.54,-0.51,-0.56
45.23,-3.20,-2.64,-3.19,-2.62,2.64,2.55,2.90,-0.57,-0.55,-0.56
45.68,-3.13,-2.57,-3.15,-2.58,2.57,2.49,2.80,-0.56,-0.58,-0.57
46.13,-3.09,-2.53,-3.13,-2.56,2.52,2.43,2.70,-0.57,-0.60,-0.57
46.60,-3.10,-2.53,-3.10,-2.54,2.48,2.38,2.60,-0.62,-0.62,-0.57
47.06,-3.10,-2.54,-3.04,-2.47,2.45,2.33,2.50,-0.66,-0.59,-0.57
47.53,-2.94,-2.38,-2.94,-2.38,2.40,2.27,2.41,-0.55,-0.55,-0.56
48.01,-2.79,-2.23,-2.86,-2.30,2.33,2.22,2.32,-0.46,-0.54,-0.56
48.49,-2.80,-2.25,-2.80,-2.25,2.25,2.17,2.23,-0.55,-0.55,-0.56
48.97,-2.82,-2.27,-2.77,-2.22,2.18,2.12,2.14,-0.65,-0.60,-0.55
49.46,-2.71,-2.16,-2.72,-2.17,2.12,2.07,2.05,-0.60,-0.61,-0.55
49.96,-2.61,-2.07,-2.59,-2.05,2.07,2.02,1.97,-0.53,-0.52,-0.54
50.46,-2.48,-1.94,-2.46,-1.93,2.03,1.97,1.89,-0.44,-0.43,-0.53
50.96,-2.34,-1.82,-2.43,-1.90,2.00,1.92,1.81,-0.35,-0.43,-0.52
51.47,-2.44,-1.92,-2.45,-1.93,1.95,1.88,1.73,-0.50,-0.50,-0.52
51.99,-2.56,-2.04,-2.50,-1.98,1.90,1.83,1.66,-0.67,-0.61,-0.52
52.51,-2.51,-1.99,-2.51,-1.99,1.85,1.78,1.59,-0.65,-0.66,-0.52
53.03,-2.44,-1.93,-2.40,-1.89,1.82,1.74,1.52,-0.63,-0.59,-0.52
53.56,-2.25,-1.74,-2.26,-1.75,1.79,1.70,1.45,-0.46,-0.47,-0.52
54.10,-2.11,-1.60,-2.17,-1.66,1.77,1.65,1.38,-0.34,-0.40,-0.51
54.64,-2.14,-1.64,-2.14,-1.64,1.74,1.61,1.32,-0.41,-0.41,-0.51
55.18,-2.19,-1.69,-2.20,-1.69,1.70,1.57,1.26,-0.49,-0.49,-0.51
55.74,-2.26,-1.75,-2.23,-1.71,1.66,1.52,1.20,-0.60,-0.56,-0.52
56.29,-2.23,-1.71,-2.20,-1.68,1.63,1.48,1.14,-0.60,-0.57,-0.52
56.86,-2.11,-1.58,-2.18,-1.65,1.60,1.44,1.09,-0.51,-0.58,-0.52
57.42,-2.11,-1.58,-2.14,-1.61,1.57,1.40,1.03,-0.54,-0.57,-0.53
58.00,-2.17,-1.63,-2.08,-1.54,1.53,1.36,0.98,-0.64,-0.55,-0.54
58.58,-2.00,-1.45,-2.01,-1.46,1.48,1.32,0.93,-0.53,-0.53,-0.56
59.16,-1.88,-1.31,-1.93,-1.36,1.42,1.28,0.89,-0.47,-0.51,-0.57
59.76,-1.86,-1.28,-1.89,-1.30,1.35,1.24,0.85,-0.52,-0.54,-0.58
60.35,-1.90,-1.30,-1.91,-1.30,1.29,1.20,0.81,-0.62,-0.62,-0.61
60.96,-1.97,-1.34,-1.91,-1.27,1.23,1.16,0.77,-0.75,-0.68,-0.63
61.57,-1.87,-1.21,-1.87,-1.21,1.18,1.12,0.73,-0.69,-0.69,-0.66
62.18,-1.77,-1.08,-1.82,-1.12,1.13,1.08,0.70,-0.64,-0.68,-0.69
62.80,-1.77,-1.04,-1.76,-1.03,1.08,1.04,0.67,-0.69,-0.68,-0.73
63.43,-1.77,-1.00,-1.78,-1.00,1.03,1.00,0.64,-0.75,-0.75,-0.78
64.07,-1.78,-0.97,-1.81,-0.99,0.96,0.95,0.62,-0.82,-0.84,-0.81
64.71,-1.83,-0.97,-1.80,-0.94,0.90,0.91,0.59,-0.93,-0.90,-0.86
65.35,-1.79,-0.90,-1.77,-0.87,0.85,0.87,0.57,-0.95,-0.92,-0.90
66.01,-1.67,-0.74,-1.72,-0.78,0.80,0.83,0.55,-0.88,-0.93,-0.94
66.67,-1.67,-0.70,-1.67,-0.70,0.75,0.78,0.53,-0.93,-0.93,-0.98
67.33,-1.67,-0.67,-1.67,-0.66,0.69,0.74,0.52,-0.98,-0.98,-1.01
68.01,-1.67,-0.63,-1.70,-0.65,0.63,0.70,0.51,-1.04,-1.07,-1.05
68.69,-1.71,-0.64,-1.68,-0.61,0.57,0.65,0.50,-1.14,-1.11,-1.08
69.37,-1.67,-0.57,-1.65,-0.54,0.52,0.61,0.49,-1.15,-1.13,-1.11
70.07,-1.57,-0.44,-1.61,-0.47,0.48,0.56,0.48,-1.10,-1.14,-1.14
70.77,-1.57,-0.40,-1.58,-0.41,0.43,0.51,0.47,-1.14,-1.14,-1.17
71.48,-1.57,-0.38,-1.57,-0.37,0.39,0.47,0.47,-1.18,-1.17,-1.19
72.19,-1.57,-0.35,-1.57,-0.35,0.35,0.42,0.46,-1.22,-1.22,-1.23
72.91,-1.57,-0.31,-1.57,-0.31,0.31,0.37,0.46,-1.27,-1.27,-1.26
73.64,-1.57,-0.28,-1.57,-0.28,0.26,0.33,0.46,-1.31,-1.31,-1.30
74.38,-1.57,-0.24,-1.57,-0.24,0.22,0.28,0.46,-1.35,-1.35,-1.33
75.12,-1.57,-0.21,-1.58,-0.20,0.18,0.24,0.46,-1.39,-1.40,-1.37
75.87,-1.57,-0.16,-1.58,-0.16,0.15,0.19,0.46,-1.43,-1.43,-1.42
76.63,-1.57,-0.12,-1.57,-0.11,0.12,0.15,0.47,-1.45,-1.45,-1.45
77.40,-1.56,-0.06,-1.54,-0.05,0.10,0.12,0.47,-1.47,-1.45,-1.50
78.17,-1.54,-0.01,-1.56,-0.02,0.07,0.08,0.47,-1.47,-1.49,-1.54
78.95,-1.57,0.02,-1.63,-0.04,0.05,0.05,0.48,-1.52,-1.58,-1.59
79.74,-1.75,-0.13,-1.71,-0.08,0.03,0.02,0.48,-1.72,-1.68,-1.63
80.54,-1.80,-0.13,-1.77,-0.10,0.03,0.00,0.49,-1.78,-1.75,-1.68
81.35,-1.78,-0.07,-1.78,-0.06,0.03,-0.01,0.50,-1.75,-1.75,-1.72
82.16,-1.75,0.00,-1.77,-0.01,0.04,-0.02,0.50,-1.71,-1.72,-1.76
82.98,-1.74,0.07,-1.80,-0.00,0.06,-0.03,0.51,-1.67,-1.74,-1.80
83.81,-1.93,-0.09,-1.88,-0.04,0.08,-0.02,0.52,-1.85,-1.79,-1.84
84.65,-1.98,-0.11,-1.99,-0.11,0.11,-0.02,0.52,-1.88,-1.88,-1.88
85.50,-2.07,-0.15,-2.10,-0.18,0.14,-0.00,0.53,-1.94,-1.96,-1.92
86.35,-2.18,-0.22,-2.16,-0.19,0.17,0.01,0.54,-2.01,-1.98,-1.96
87.22,-2.23,-0.23,-2.24,-0.23,0.22,0.04,0.55,-2.01,-2.02,-2.01
88.09,-2.27,-0.22,-2.30,-0.25,0.26,0.06,0.56,-2.01,-2.04,-2.05
88.97,-2.39,-0.31,-2.37,-0.27,0.29,0.10,0.57,-2.10,-2.08,-2.09
89.86,-2.42,-0.29,-2.44,-0.31,0.30,0.13,0.58,-2.12,-2.14,-2.13
90.76,-2.51,-0.33,-2.51,-0.34,0.30,0.17,0.59,-2.21,-2.21,-2.18
91.66,-2.56,-0.35,-2.55,-0.33,0.30,0.20,0.60,-2.26,-2.25,-2.22
92.58,-2.57,-0.32,-2.57,-0.31,0.29,0.25,0.61,-2.28,-2.28,-2.25
93.51,-2.56,-0.26,-2.57,-0.27,0.28,0.29,0.62,-2.29,-2.29,-2.30
94.44,-2.56,-0.23,-2.58,-0.24,0.26,0.33,0.63,-2.30,-2.32,-2.34
95.39,-2.60,-0.23,-2.61,-0.23,0.24,0.38,0.64,-2.36,-2.37,-2.38
96.34,-2.67,-0.26,-2.65,-0.23,0.23,0.42,0.65,-2.44,-2.42,-2.41
97.30,-2.68,-0.23,-2.69,-0.24,0.23,0.47,0.66,-2.46,-2.46,-2.45
98.28,-2.72,-0.22,-2.74,-0.24,0.25,0.52,0.68,-2.48,-2.49,-2.50
99.26,-2.81,-0.27,-2.80,-0.26,0.28,0.57,0.69,-2.53,-2.52,-2.54
100.25,-2.88,-0.31,-2.90,-0.32,0.34,0.63,0.70,-2.54,-2.56,-2.58
101.25,-3.03,-0.42,-3.02,-0.40,0.42,0.68,0.71,-2.62,-2.60,-2.62
102.27,-3.14,-0.48,-3.16,-0.49,0.50,0.74,0.73,-2.64,-2.66,-2.67
103.29,-3.32,-0.61,-3.32,-0.60,0.61,0.80,0.74,-2.72,-2.71,-2.72
104.32,-3.49,-0.73,-3.49,-0.73,0.72,0.86,0.76,-2.77,-2.77,-2.77
105.37,-3.66,-0.86,-3.67,-0.86,0.84,0.92,0.77,-2.82,-2.83,-2.81
106.42,-3.84,-0.99,-3.83,-0.98,0.97,0.99,0.78,-2.88,-2.87,-2.86
107.48,-4.00,-1.09,-3.99,-1.09,1.09,1.06,0.80,-2.90,-2.90,-2.91
108.56,-4.14,-1.19,-4.16,-1.20,1.21,1.13,0.81,-2.94,-2.95,-2.95
109.64,-4.32,-1.31,-4.32,-1.32,1.32,1.20,0.83,-2.99,-3.00,-3.00
110.74,-4.49,-1.45,-4.47,-1.43,1.42,1.28,0.84,-3.07,-3.05,-3.04
111.85,-4.60,-1.52,-4.59,-1.51,1.51,1.36,0.86,-3.09,-3.08,-3.08
112.97,-4.68,-1.56,-4.71,-1.59,1.59,1.44,0.88,-3.10,-3.13,-3.12
114.10,-4.80,-1.65,-4.82,-1.67,1.65,1.51,0.89,-3.16,-3.18,-3.16
115.24,-4.95,-1.77,-4.91,-1.72,1.69,1.58,0.91,-3.26,-3.22,-3.19
116.39,-4.97,-1.75,-4.96,-1.74,1.72,1.65,0.93,-3.25,-3.24,-3.23
117.55,-4.94,-1.70,-4.99,-1.74,1.74,1.70,0.95,-3.20,-3.24,-3.24
118.73,-4.99,-1.72,-5.00,-1.73,1.76,1.75,0.96,-3.23,-3.24,-3.27
119.92,-5.05,-1.77,-5.02,-1.74,1.77,1.78,0.98,-3.29,-3.26,-3.29
121.12,-5.04,-1.74,-5.05,-1.74,1.77,1.80,1.00,-3.28,-3.28,-3.30
122.33,-5.04,-1.72,-5.06,-1.74,1.75,1.80,1.02,-3.29,-3.31,-3.32
123.55,-5.07,-1.74,-5.08,-1.75,1.73,1.79,1.04,-3.34,-3.35,-3.34
124.79,-5.10,-1.75,-5.09,-1.74,1.70,1.76,1.06,-3.41,-3.39,-3.35
126.03,-5.09,-1.73,-5.06,-1.69,1.65,1.72,1.08,-3.44,-3.41,-3.37
127.29,-4.97,-1.59,-5.00,-1.62,1.60,1.67,1.10,-3.38,-3.40,-3.38
128.57,-4.90,-1.51,-4.92,-1.53,1.53,1.61,1.12,-3.38,-3.40,-3.40
129.85,-4.86,-1.46,-4.84,-1.43,1.45,1.54,1.14,-3.42,-3.39,-3.41
131.15,-4.78,-1.36,-4.78,-1.36,1.37,1.48,1.16,-3.41,-3.41,-3.42
132.46,-4.71,-1.27,-4.73,-1.29,1.30,1.41,1.19,-3.41,-3.43,-3.44
133.79,-4.68,-1.23,-4.69,-1.23,1.25,1.35,1.21,-3.44,-3.44,-3.46
135.12,-4.67,-1.20,-4.65,-1.18,1.21,1.29,1.24,-3.46,-3.44,-3.48
136.48,-4.65,-1.17,-4.64,-1.15,1.19,1.23,1.26,-3.47,-3.46,-3.49
137.84,-4.61,-1.11,-4.66,-1.15,1.18,1.18,1.29,-3.44,-3.49,-3.51
139.22,-4.71,-1.19,-4.70,-1.18,1.17,1.14,1.31,-3.54,-3.53,-3.53
140.61,-4.77,-1.23,-4.74,-1.20,1.17,1.10,1.34,-3.60,-3.57,-3.55
142.02,-4.77,-1.21,-4.78,-1.21,1.17,1.07,1.37,-3.61,-3.61,-3.57
143.44,-4.76,-1.17,-4.78,-1.18,1.15,1.05,1.40,-3.61,-3.62,-3.59
144.87,-4.77,-1.15,-4.77,-1.15,1.13,1.04,1.43,-3.64,-3.64,-3.62
146.32,-4.77,-1.13,-4.77,-1.12,1.11,1.04,1.46,-3.67,-3.67,-3.65
147.78,-4.77,-1.09,-4.77,-1.09,1.08,1.05,1.49,-3.70,-3.69,-3.68
149.26,-4.76,-1.04,-4.75,-1.03,1.04,1.06,1.53,-3.73,-3.71,-3.72
150.75,-4.74,-0.98,-4.76,-0.99,1.01,1.08,1.56,-3.74,-3.75,-3.77
152.26,-4.77,-0.96,-4.81,-0.99,0.99,1.12,1.60,-3.78,-3.82,-3.82
153.78,-4.91,-1.04,-4.88,-1.01,1.01,1.15,1.64,-3.91,-3.88,-3.87
155.32,-4.99,-1.06,-4.96,-1.03,1.04,1.20,1.68,-3.95,-3.91,-3.94
156.88,-5.03,-1.05,-5.05,-1.06,1.11,1.25,1.72,-3.92,-3.94,-3.99
158.44,-5.14,-1.08,-5.19,-1.14,1.21,1.30,1.76,-3.93,-3.98,-4.05
160.03,-5.37,-1.27,-5.39,-1.29,1.33,1.35,1.80,-4.05,-4.06,-4.10
161.63,-5.65,-1.51,-5.60,-1.45,1.45,1.41,1.85,-4.20,-4.14,-4.14
163.24,-5.81,-1.62,-5.79,-1.60,1.58,1.48,1.89,-4.24,-4.22,-4.19
164.88,-5.89,-1.67,-5.96,-1.73,1.68,1.54,1.94,-4.21,-4.27,-4.22
166.53,-6.08,-1.83,-6.10,-1.84,1.77,1.61,1.99,-4.31,-4.32,-4.25
168.19,-6.24,-1.97,-6.19,-1.92,1.84,1.67,2.05,-4.41,-4.35,-4.27
169.87,-6.25,-1.97,-6.23,-1.95,1.88,1.74,2.10,-4.38,-4.35,-4.28
171.57,-6.15,-1.87,-6.19,-1.90,1.90,1.81,2.16,-4.26,-4.29,-4.29
173.29,-6.12,-1.84,-6.13,-1.85,1.91,1.88,2.21,-4.22,-4.23,-4.28
175.02,-6.11,-1.84,-6.12,-1.85,1.92,1.95,2.27,-4.20,-4.21,-4.27
176.77,-6.15,-1.90,-6.15,-1.90,1.94,2.02,2.33,-4.21,-4.21,-4.26
178.54,-6.21,-1.97,-6.19,-1.95,1.98,2.10,2.40,-4.24,-4.21,-4.24
180.32,-6.22,-2.01,-6.24,-2.02,2.03,2.17,2.46,-4.19,-4.21,-4.22
182.13,-6.28,-2.08,-6.30,-2.10,2.10,2.24,2.53,-4.18,-4.20,-4.20
183.95,-6.40,-2.23,-6.38,-2.20,2.19,2.32,2.60,-4.21,-4.19,-4.18
185.79,-6.46,-2.29,-6.49,-2.32,2.29,2.39,2.67,-4.18,-4.20,-4.17
187.65,-6.60,-2.44,-6.58,-2.42,2.38,2.47,2.74,-4.22,-4.19,-4.16
189.52,-6.65,-2.50,-6.64,-2.48,2.48,2.54,2.81,-4.17,-4.16,-4.16
191.42,-6.70,-2.55,-6.72,-2.57,2.57,2.62,2.89,-4.13,-4.15,-4.16
193.33,-6.78,-2.63,-6.81,-2.65,2.67,2.69,2.96,-4.12,-4.14,-4.15
195.27,-6.93,-2.78,-6.92,-2.77,2.76,2.77,3.04,-4.17,-4.16,-4.15
197.22,-7.05,-2.89,-7.04,-2.88,2.86,2.84,3.12,-4.19,-4.17,-4.16
199.19,-7.14,-2.98,-7.14,-2.98,2.97,2.92,3.20,-4.17,-4.17,-4.17
201.18,-7.23,-3.06,-7.24,-3.06,3.09,3.00,3.28,-4.15,-4.15,-4.18
203.19,-7.35,-3.17,-7.37,-3.18,3.21,3.08,3.36,-4.15,-4.16,-4.19
205.23,-7.50,-3.31,-7.53,-3.33,3.34,3.16,3.44,-4.17,-4.19,-4.20
207.28,-7.72,-3.52,-7.70,-3.49,3.48,3.25,3.52,-4.25,-4.22,-4.21
209.35,-7.86,-3.65,-7.85,-3.63,3.62,3.33,3.60,-4.25,-4.23,-4.21
211.44,-7.98,-3.75,-7.98,-3.75,3.76,3.42,3.67,-4.22,-4.22,-4.23
213.56,-8.08,-3.84,-8.12,-3.88,3.91,3.51,3.75,-4.18,-4.21,-4.24
215.69,-8.27,-4.01,-8.29,-4.03,4.05,3.60,3.82,-4.22,-4.23,-4.26
217.85,-8.49,-4.23,-8.47,-4.20,4.18,3.70,3.89,-4.31,-4.29,-4.27
220.03,-8.61,-4.33,-8.61,-4.33,4.30,3.80,3.96,-4.31,-4.31,-4.29
222.23,-8.73,-4.44,-8.69,-4.40,4.39,3.90,4.03,-4.34,-4.29,-4.29
224.45,-8.71,-4.41,-8.79,-4.48,4.47,4.00,4.09,-4.24,-4.32,-4.30
226.70,-8.81,-4.51,-8.86,-4.55,4.52,4.11,4.15,-4.29,-4.34,-4.31
228.96,-9.02,-4.71,-8.89,-4.58,4.55,4.22,4.20,-4.48,-4.34,-4.31
231.25,-8.85,-4.54,-8.89,-4.58,4.54,4.32,4.24,-4.31,-4.35,-4.31
233.57,-8.79,-4.48,-8.84,-4.53,4.52,4.43,4.28,-4.28,-4.32,-4.32
235.90,-8.78,-4.47,-8.78,-4.46,4.49,4.53,4.31,-4.30,-4.29,-4.31
238.26,-8.76,-4.46,-8.76,-4.46,4.46,4.62,4.33,-4.30,-4.30,-4.31
240.64,-8.74,-4.45,-8.70,-4.40,4.43,4.71,4.35,-4.31,-4.27,-4.29
243.05,-8.64,-4.36,-8.64,-4.35,4.41,4.78,4.36,-4.24,-4.24,-4.29
245.48,-8.54,-4.26,-8.63,-4.35,4.39,4.84,4.36,-4.16,-4.24,-4.28
247.93,-8.68,-4.41,-8.66,-4.38,4.38,4.89,4.35,-4.30,-4.28,-4.28
250.41,-8.75,-4.48,-8.72,-4.45,4.40,4.92,4.33,-4.36,-4.32,-4.27
252.92,-8.75,-4.49,-8.74,-4.46,4.43,4.93,4.30,-4.33,-4.31,-4.27
255.45,-8.70,-4.43,-8.68,-4.41,4.45,4.91,4.26,-4.25,-4.23,-4.27
258.00,-8.61,-4.34,-8.68,-4.41,4.48,4.87,4.21,-4.14,-4.21,-4.28
260.58,-8.69,-4.41,-8.75,-4.47,4.49,4.81,4.16,-4.20,-4.26,-4.28
263.19,-8.90,-4.62,-8.82,-4.54,4.49,4.73,4.10,-4.42,-4.34,-4.29
265.82,-8.89,-4.61,-8.85,-4.56,4.47,4.62,4.02,-4.43,-4.38,-4.29
268.48,-8.76,-4.47,-8.80,-4.51,4.45,4.50,3.94,-4.32,-4.35,-4.29
271.16,-8.66,-4.37,-8.69,-4.39,4.42,4.35,3.86,-4.24,-4.27,-4.30
273.87,-8.61,-4.31,-8.60,-4.30,4.38,4.19,3.76,-4.23,-4.22,-4.30
276.61,-8.55,-4.25,-8.55,-4.25,4.32,4.02,3.67,-4.23,-4.23,-4.30
279.38,-8.49,-4.19,-8.52,-4.21,4.23,3.84,3.56,-4.26,-4.28,-4.31
282.17,-8.47,-4.18,-8.47,-4.17,4.13,3.65,3.45,-4.35,-4.34,-4.30
284.99,-8.39,-4.10,-8.37,-4.07,4.01,3.46,3.34,-4.39,-4.36,-4.29
287.84,-8.23,-3.94,-8.21,-3.92,3.88,3.26,3.22,-4.36,-4.33,-4.29
290.72,-7.97,-3.69,-8.02,-3.73,3.73,3.06,3.09,-4.25,-4.29,-4.29
293.63,-7.79,-3.51,-7.81,-3.52,3.55,2.87,2.97,-4.25,-4.26,-4.28
296.57,-7.62,-3.35,-7.59,-3.31,3.34,2.67,2.84,-4.29,-4.25,-4.27
299.53,-7.36,-3.09,-7.37,-3.10,3.10,2.48,2.71,-4.26,-4.27,-4.27
302.53,-7.11,-2.85,-7.14,-2.87,2.85,2.30,2.58,-4.27,-4.29,-4.27
305.55,-6.87,-2.60,-6.88,-2.61,2.59,2.12,2.45,-4.28,-4.29,-4.27
308.61,-6.66,-2.39,-6.60,-2.33,2.33,1.94,2.31,-4.34,-4.28,-4.27
311.69,-6.28,-2.01,-6.31,-2.04,2.06,1.77,2.18,-4.23,-4.26,-4.27
314.81,-6.00,-1.72,-6.04,-1.76,1.78,1.60,2.04,-4.23,-4.26,-4.29
317.96,-5.77,-1.49,-5.77,-1.48,1.49,1.44,1.90,-4.28,-4.28,-4.29
321.14,-5.56,-1.27,-5.53,-1.23,1.21,1.29,1.77,-4.36,-4.32,-4.30
324.35,-5.25,-0.95,-5.26,-0.96,0.92,1.14,1.63,-4.33,-4.34,-4.30
327.59,-4.96,-0.65,-4.98,-0.67,0.65,0.99,1.49,-4.32,-4.34,-4.31
330.87,-4.71,-0.39,-4.71,-0.38,0.39,0.86,1.36,-4.33,-4.32,-4.32
334.18,-4.47,-0.14,-4.47,-0.14,0.15,0.72,1.22,-4.32,-4.32,-4.34
337.52,-4.25,0.09,-4.26,0.08,-0.06,0.59,1.08,-4.31,-4.32,-4.35
340.90,-4.08,0.26,-4.06,0.29,-0.24,0.47,0.95,-4.32,-4.30,-4.35
344.30,-3.91,0.45,-3.93,0.44,-0.38,0.35,0.81,-4.30,-4.31,-4.36
347.75,-3.81,0.57,-3.86,0.52,-0.49,0.23,0.68,-4.30,-4.35,-4.38
351.23,-3.84,0.55,-3.81,0.58,-0.56,0.12,0.54,-4.41,-4.37,-4.39
354.74,-3.82,0.58,-3.78,0.62,-0.62,0.01,0.41,-4.44,-4.40,-4.40
358.28,-3.72,0.69,-3.78,0.63,-0.66,-0.09,0.27,-4.39,-4.45,-4.42
361.87,-3.75,0.67,-3.77,0.66,-0.70,-0.20,0.14,-4.46,-4.47,-4.43
365.49,-3.80,0.64,-3.74,0.70,-0.74,-0.30,0.00,-4.54,-4.48,-4.45
369.14,-3.69,0.76,-3.70,0.76,-0.79,-0.39,-0.13,-4.48,-4.49,-4.46
372.83,-3.60,0.86,-3.63,0.84,-0.84,-0.49,-0.26,-4.45,-4.48,-4.47
376.56,-3.54,0.94,-3.55,0.93,-0.91,-0.58,-0.40,-4.45,-4.46,-4.48
380.33,-3.52,0.97,-3.49,1.00,-0.98,-0.67,-0.53,-4.51,-4.47,-4.49
384.13,-3.42,1.08,-3.45,1.05,-1.06,-0.75,-0.66,-4.48,-4.51,-4.50
387.97,-3.37,1.14,-3.39,1.12,-1.14,-0.84,-0.79,-4.51,-4.53,-4.51
391.85,-3.37,1.15,-3.31,1.22,-1.21,-0.92,-0.92,-4.58,-4.51,-4.52
395.77,-3.21,1.32,-3.24,1.29,-1.28,-1.01,-1.05,-4.50,-4.52,-4.53
399.73,-3.12,1.42,-3.19,1.36,-1.35,-1.09,-1.18,-4.48,-4.54,-4.55
403.72,-3.16,1.39,-3.12,1.44,-1.43,-1.16,-1.31,-4.59,-4.55,-4.56
407.76,-3.12,1.45,-3.09,1.49,-1.50,-1.24,-1.44,-4.63,-4.59,-4.58
411.84,-2.99,1.59,-3.04,1.54,-1.58,-1.32,-1.56,-4.57,-4.62,-4.59
415.96,-2.96,1.63,-2.96,1.63,-1.64,-1.40,-1.69,-4.61,-4.61,-4.60
420.12,-2.91,1.68,-2.88,1.72,-1.71,-1.47,-1.81,-4.62,-4.59,-4.60
424.32,-2.80,1.80,-2.81,1.79,-1.76,-1.54,-1.93,-4.57,-4.58,-4.61
428.56,-2.72,1.89,-2.76,1.85,-1.82,-1.62,-2.05,-4.55,-4.58,-4.61
432.85,-2.71,1.89,-2.71,1.89,-1.88,-1.69,-2.17,-4.59,-4.59,-4.60
437.18,-2.71,1.88,-2.67,1.92,-1.93,-1.76,-2.28,-4.65,-4.60,-4.59
441.55,-2.59,1.98,-2.62,1.96,-1.99,-1.83,-2.39,-4.58,-4.61,-4.57
