frequency,raw,error,smoothed,error_smoothed,equalization,parametric_eq,fixed_band_eq,equalized_raw,equalized_smoothed,target
20.00,3.09,-2.72,3.09,-2.72,2.72,2.42,0.91,5.81,5.81,5.81
20.20,3.10,-2.70,3.10,-2.69,2.69,2.42,0.94,5.80,5.80,5.80
20.40,3.11,-2.67,3.11,-2.67,2.67,2.42,0.97,5.78,5.78,5.78
20.61,3.12,-2.65,3.12,-2.64,2.65,2.41,1.00,5.77,5.77,5.77
20.81,3.13,-2.62,3.13,-2.62,2.62,2.41,1.03,5.75,5.75,5.75
21.02,3.14,-2.60,3.14,-2.60,2.60,2.41,1.06,5.74,5.74,5.74
21.23,3.15,-2.58,3.15,-2.57,2.58,2.40,1.10,5.73,5.73,5.73
21.44,3.16,-2.56,3.16,-2.55,2.55,2.40,1.13,5.71,5.71,5.72
21.66,3.17,-2.53,3.17,-2.53,2.53,2.39,1.16,5.70,5.70,5.70
21.87,3.18,-2.51,3.19,-2.51,2.51,2.39,1.20,5.69,5.69,5.70
22.09,3.20,-2.48,3.20,-2.49,2.48,2.38,1.24,5.69,5.68,5.69
22.31,3.21,-2.46,3.21,-2.46,2.46,2.38,1.28,5.67,5.67,5.68
22.54,3.22,-2.44,3.23,-2.44,2.44,2.38,1.31,5.66,5.67,5.67
22.76,3.24,-2.41,3.24,-2.42,2.42,2.37,1.35,5.66,5.66,5.65
22.99,3.25,-2.40,3.25,-2.40,2.40,2.37,1.40,5.65,5.65,5.65
23.22,3.26,-2.38,3.26,-2.38,2.39,2.36,1.44,5.65,5.65,5.64
23.45,3.27,-2.37,3.27,-2.37,2.37,2.36,1.48,5.65,5.65,5.64
23.69,3.28,-2.36,3.28,-2.36,2.36,2.35,1.52,5.64,5.64,5.64
23.92,3.29,-2.35,3.29,-2.35,2.35,2.35,1.57,5.64,5.64,5.64
24.16,3.30,-2.34,3.30,-2.34,2.34,2.34,1.61,5.64,5.64,5.64
24.40,3.31,-2.33,3.31,-2.33,2.33,2.34,1.66,5.64,5.64,5.64
24.65,3.32,-2.32,3.32,-2.32,2.31,2.33,1.71,5.63,5.63,5.64
24.89,3.33,-2.31,3.34,-2.30,2.29,2.32,1.75,5.62,5.63,5.64
25.14,3.35,-2.29,3.35,-2.28,2.27,2.32,1.80,5.62,5.63,5.64
25.39,3.38,-2.26,3.38,-2.26,2.26,2.31,1.85,5.64,5.64,5.64
25.65,3.40,-2.22,3.40,-2.23,2.24,2.31,1.90,5.64,5.64,5.63
25.91,3.42,-2.20,3.42,-2.21,2.23,2.30,1.94,5.65,5.64,5.63
26.16,3.42,-2.19,3.42,-2.20,2.21,2.29,1.99,5.64,5.63,5.61
26.43,3.41,-2.20,3.41,-2.20,2.20,2.29,2.04,5.61,5.61,5.61
26.69,3.40,-2.20,3.40,-2.20,2.19,2.28,2.08,5.59,5.59,5.60
26.96,3.39,-2.20,3.40,-2.20,2.18,2.27,2.13,5.57,5.58,5.59
27.23,3.40,-2.19,3.40,-2.18,2.17,2.27,2.17,5.57,5.57,5.59
27.50,3.42,-2.16,3.42,-2.16,2.15,2.26,2.21,5.57,5.57,5.58
27.77,3.44,-2.13,3.44,-2.13,2.13,2.25,2.26,5.58,5.57,5.57
28.05,3.45,-2.11,3.45,-2.11,2.12,2.24,2.29,5.57,5.57,5.56
28.33,3.46,-2.09,3.46,-2.09,2.10,2.24,2.33,5.56,5.56,5.56
28.62,3.47,-2.08,3.48,-2.08,2.08,2.23,2.37,5.55,5.56,5.55
28.90,3.49,-2.05,3.49,-2.06,2.07,2.22,2.40,5.56,5.55,5.54
29.19,3.49,-2.06,3.49,-2.06,2.06,2.21,2.43,5.55,5.55,5.55
29.48,3.49,-2.06,3.49,-2.06,2.06,2.20,2.45,5.55,5.55,5.55
29.78,3.49,-2.06,3.49,-2.06,2.05,2.19,2.48,5.55,5.55,5.55
30.08,3.49,-2.06,3.49,-2.06,2.06,2.19,2.50,5.55,5.55,5.55
30.38,3.49,-2.05,3.49,-2.05,2.06,2.18,2.51,5.55,5.55,5.55
30.68,3.49,-2.05,3.49,-2.05,2.06,2.17,2.53,5.55,5.55,5.54
30.99,3.49,-2.05,3.49,-2.05,2.05,2.16,2.53,5.55,5.55,5.54
31.30,3.49,-2.05,3.49,-2.05,2.05,2.15,2.54,5.54,5.53,5.54
31.61,3.49,-2.05,3.49,-2.05,2.03,2.14,2.54,5.52,5.52,5.54
31.93,3.49,-2.04,3.50,-2.04,2.02,2.13,2.54,5.51,5.51,5.54
32.24,3.51,-2.01,3.52,-2.01,2.00,2.12,2.53,5.51,5.52,5.52
32.57,3.55,-1.97,3.55,-1.97,1.98,2.11,2.52,5.53,5.53,5.52
32.89,3.58,-1.94,3.57,-1.94,1.96,2.10,2.51,5.54,5.54,5.52
33.22,3.59,-1.93,3.59,-1.93,1.94,2.09,2.49,5.53,5.53,5.52
33.55,3.59,-1.92,3.59,-1.92,1.93,2.08,2.47,5.52,5.52,5.51
33.89,3.59,-1.91,3.59,-1.91,1.91,2.07,2.45,5.51,5.51,5.50
34.23,3.59,-1.91,3.59,-1.91,1.91,2.05,2.42,5.50,5.50,5.50
34.57,3.59,-1.90,3.59,-1.90,1.90,2.04,2.40,5.49,5.49,5.50
34.92,3.59,-1.90,3.59,-1.90,1.90,2.03,2.37,5.49,5.49,5.49
35.27,3.59,-1.90,3.59,-1.90,1.90,2.02,2.33,5.49,5.49,5.49
35.62,3.59,-1.90,3.59,-1.89,1.89,2.01,2.30,5.48,5.48,5.49
35.97,3.59,-1.88,3.59,-1.89,1.89,1.99,2.27,5.48,5.48,5.47
36.33,3.59,-1.88,3.59,-1.88,1.89,1.98,2.23,5.48,5.48,5.47
36.70,3.59,-1.88,3.59,-1.87,1.88,1.97,2.19,5.47,5.47,5.47
37.06,3.59,-1.87,3.59,-1.87,1.87,1.96,2.16,5.46,5.46,5.46
37.43,3.59,-1.86,3.59,-1.86,1.86,1.94,2.12,5.45,5.45,5.45
37.81,3.59,-1.85,3.59,-1.85,1.84,1.93,2.08,5.43,5.43,5.45
38.19,3.60,-1.83,3.60,-1.83,1.82,1.91,2.04,5.42,5.42,5.43
38.57,3.62,-1.80,3.62,-1.80,1.79,1.90,2.01,5.41,5.41,5.42
38.95,3.64,-1.76,3.64,-1.76,1.76,1.89,1.97,5.41,5.41,5.40
39.34,3.66,-1.74,3.66,-1.73,1.74,1.87,1.93,5.40,5.40,5.40
39.74,3.68,-1.70,3.68,-1.70,1.71,1.86,1.90,5.39,5.39,5.38
40.14,3.69,-1.68,3.69,-1.68,1.69,1.84,1.86,5.38,5.38,5.37
40.54,3.69,-1.66,3.69,-1.66,1.67,1.83,1.83,5.36,5.36,5.35
40.94,3.69,-1.66,3.69,-1.65,1.66,1.81,1.79,5.35,5.35,5.35
41.35,3.69,-1.65,3.69,-1.65,1.65,1.79,1.76,5.34,5.34,5.34
41.76,3.69,-1.64,3.69,-1.64,1.64,1.78,1.73,5.33,5.33,5.34
42.18,3.69,-1.64,3.69,-1.64,1.63,1.76,1.70,5.33,5.33,5.33
42.60,3.69,-1.63,3.69,-1.63,1.63,1.74,1.67,5.32,5.32,5.32
43.03,3.69,-1.63,3.69,-1.63,1.63,1.73,1.64,5.32,5.32,5.32
43.46,3.69,-1.62,3.69,-1.62,1.62,1.71,1.61,5.31,5.31,5.31
43.90,3.69,-1.62,3.69,-1.62,1.62,1.69,1.59,5.31,5.31,5.31
44.33,3.69,-1.61,3.69,-1.61,1.61,1.67,1.56,5.30,5.30,5.31
44.78,3.69,-1.61,3.69,-1.61,1.61,1.66,1.54,5.30,5.30,5.30
45.23,3.69,-1.60,3.69,-1.60,1.60,1.64,1.52,5.29,5.29,5.29
45.68,3.69,-1.59,3.69,-1.59,1.59,1.62,1.50,5.28,5.28,5.28
46.13,3.69,-1.58,3.69,-1.58,1.58,1.60,1.48,5.27,5.27,5.27
46.60,3.69,-1.57,3.69,-1.57,1.57,1.58,1.46,5.26,5.26,5.26
47.06,3.69,-1.56,3.69,-1.56,1.56,1.56,1.44,5.25,5.25,5.26
47.53,3.69,-1.55,3.69,-1.55,1.55,1.54,1.43,5.24,5.24,5.25
48.01,3.69,-1.53,3.69,-1.54,1.54,1.52,1.41,5.23,5.23,5.23
48.49,3.69,-1.52,3.69,-1.52,1.52,1.50,1.40,5.22,5.22,5.22
48.97,3.69,-1.50,3.69,-1.51,1.52,1.48,1.39,5.21,5.21,5.20
49.46,3.69,-1.49,3.69,-1.49,1.51,1.46,1.38,5.20,5.20,5.18
49.96,3.69,-1.48,3.69,-1.48,1.49,1.43,1.36,5.18,5.18,5.17
50.46,3.69,-1.47,3.69,-1.47,1.47,1.41,1.35,5.16,5.16,5.16
50.96,3.69,-1.47,3.69,-1.47,1.45,1.39,1.34,5.14,5.14,5.16
51.47,3.69,-1.46,3.69,-1.46,1.43,1.37,1.34,5.12,5.11,5.15
51.99,3.69,-1.44,3.71,-1.42,1.40,1.34,1.33,5.09,5.11,5.13
52.51,3.75,-1.36,3.75,-1.37,1.37,1.32,1.32,5.12,5.12,5.11
53.03,3.80,-1.29,3.78,-1.32,1.34,1.29,1.31,5.14,5.12,5.10
53.56,3.79,-1.29,3.80,-1.28,1.31,1.27,1.30,5.10,5.11,5.08
54.10,3.79,-1.27,3.80,-1.27,1.28,1.25,1.29,5.07,5.08,5.07
54.64,3.79,-1.26,3.79,-1.26,1.26,1.22,1.28,5.05,5.05,5.05
55.18,3.79,-1.24,3.79,-1.24,1.24,1.19,1.27,5.03,5.03,5.03
55.74,3.79,-1.23,3.79,-1.23,1.22,1.17,1.27,5.01,5.01,5.02
56.29,3.79,-1.21,3.79,-1.21,1.20,1.14,1.26,5.00,5.00,5.00
56.86,3.79,-1.19,3.79,-1.19,1.19,1.12,1.24,4.98,4.98,4.98
57.42,3.79,-1.17,3.79,-1.17,1.17,1.09,1.23,4.96,4.96,4.96
58.00,3.79,-1.15,3.79,-1.15,1.15,1.06,1.22,4.95,4.95,4.95
58.58,3.79,-1.13,3.79,-1.13,1.14,1.03,1.20,4.93,4.93,4.93
59.16,3.79,-1.11,3.79,-1.11,1.12,1.01,1.19,4.91,4.91,4.91
59.76,3.79,-1.09,3.79,-1.09,1.10,0.98,1.17,4.89,4.89,4.89
60.35,3.79,-1.07,3.79,-1.08,1.08,0.95,1.15,4.87,4.87,4.86
60.96,3.79,-1.06,3.79,-1.06,1.06,0.92,1.13,4.85,4.85,4.85
61.57,3.79,-1.04,3.79,-1.04,1.03,0.89,1.11,4.82,4.82,4.83
62.18,3.79,-1.01,3.79,-1.01,1.01,0.86,1.09,4.80,4.80,4.80
62.80,3.79,-0.98,3.79,-0.98,0.98,0.83,1.06,4.77,4.77,4.77
63.43,3.79,-0.95,3.79,-0.95,0.95,0.80,1.03,4.74,4.74,4.75
64.07,3.79,-0.92,3.79,-0.92,0.92,0.77,1.00,4.71,4.71,4.71
64.71,3.79,-0.89,3.79,-0.89,0.89,0.73,0.97,4.68,4.68,4.68
65.35,3.79,-0.85,3.79,-0.86,0.86,0.70,0.94,4.65,4.65,4.65
66.01,3.79,-0.83,3.79,-0.82,0.82,0.67,0.90,4.62,4.62,4.62
66.67,3.79,-0.79,3.79,-0.79,0.79,0.64,0.87,4.58,4.58,4.58
67.33,3.79,-0.76,3.79,-0.76,0.75,0.60,0.83,4.55,4.55,4.55
68.01,3.79,-0.72,3.79,-0.72,0.72,0.57,0.79,4.51,4.51,4.51
68.69,3.79,-0.69,3.79,-0.68,0.68,0.54,0.75,4.47,4.47,4.48
69.37,3.79,-0.64,3.79,-0.65,0.64,0.50,0.71,4.44,4.44,4.43
70.07,3.79,-0.61,3.79,-0.61,0.61,0.47,0.66,4.40,4.40,4.40
70.77,3.79,-0.57,3.79,-0.57,0.57,0.43,0.61,4.36,4.36,4.36
71.48,3.79,-0.53,3.79,-0.53,0.53,0.39,0.57,4.32,4.32,4.32
72.19,3.79,-0.49,3.79,-0.49,0.49,0.36,0.52,4.28,4.28,4.28
72.91,3.79,-0.45,3.79,-0.45,0.45,0.32,0.47,4.24,4.24,4.24
73.64,3.79,-0.41,3.79,-0.41,0.41,0.28,0.42,4.20,4.20,4.20
74.38,3.79,-0.37,3.79,-0.37,0.37,0.25,0.37,4.16,4.16,4.17
75.12,3.79,-0.34,3.79,-0.33,0.33,0.21,0.32,4.12,4.12,4.13
75.87,3.79,-0.29,3.79,-0.29,0.29,0.17,0.27,4.08,4.08,4.08
76.63,3.79,-0.24,3.79,-0.25,0.25,0.13,0.21,4.04,4.04,4.04
77.40,3.79,-0.20,3.79,-0.20,0.20,0.09,0.16,4.00,4.00,3.99
78.17,3.79,-0.16,3.79,-0.16,0.16,0.05,0.10,3.95,3.95,3.95
78.95,3.79,-0.12,3.79,-0.12,0.12,0.01,0.05,3.91,3.91,3.91
79.74,3.79,-0.07,3.79,-0.07,0.07,-0.03,-0.01,3.86,3.86,3.87
80.54,3.79,-0.03,3.79,-0.03,0.03,-0.07,-0.06,3.82,3.82,3.82
81.35,3.79,0.02,3.79,0.02,-0.02,-0.11,-0.12,3.77,3.77,3.77
82.16,3.79,0.06,3.79,0.07,-0.07,-0.15,-0.18,3.72,3.72,3.73
82.98,3.79,0.12,3.79,0.12,-0.12,-0.19,-0.23,3.67,3.67,3.67
83.81,3.79,0.17,3.79,0.17,-0.17,-0.23,-0.29,3.62,3.62,3.62
84.65,3.79,0.22,3.79,0.22,-0.22,-0.28,-0.35,3.57,3.57,3.57
85.50,3.79,0.28,3.79,0.27,-0.27,-0.32,-0.41,3.52,3.52,3.51
86.35,3.79,0.33,3.79,0.33,-0.33,-0.36,-0.47,3.46,3.46,3.46
87.22,3.79,0.39,3.79,0.39,-0.40,-0.40,-0.53,3.40,3.40,3.40
88.09,3.79,0.44,3.79,0.44,-0.46,-0.45,-0.59,3.33,3.33,3.35
88.97,3.79,0.50,3.79,0.50,-0.52,-0.49,-0.65,3.27,3.28,3.29
89.86,3.79,0.56,3.81,0.58,-0.57,-0.54,-0.71,3.22,3.24,3.23
90.76,3.82,0.65,3.81,0.64,-0.61,-0.58,-0.77,3.21,3.20,3.17
91.66,3.82,0.71,3.80,0.69,-0.65,-0.63,-0.83,3.17,3.15,3.11
92.58,3.75,0.71,3.77,0.72,-0.69,-0.67,-0.90,3.06,3.08,3.05
93.51,3.70,0.72,3.71,0.73,-0.72,-0.72,-0.96,2.98,2.98,2.98
94.44,3.66,0.75,3.64,0.73,-0.76,-0.76,-1.02,2.90,2.88,2.91
95.39,3.58,0.73,3.60,0.76,-0.79,-0.81,-1.09,2.79,2.81,2.85
96.34,3.57,0.79,3.58,0.80,-0.83,-0.86,-1.15,2.74,2.75,2.78
97.30,3.59,0.89,3.57,0.86,-0.88,-0.90,-1.21,2.72,2.70,2.71
98.28,3.58,0.94,3.58,0.94,-0.93,-0.95,-1.28,2.65,2.65,2.64
99.26,3.56,1.00,3.57,1.01,-0.99,-1.00,-1.34,2.57,2.58,2.56
100.25,3.55,1.07,3.55,1.06,-1.06,-1.04,-1.41,2.50,2.49,2.48
101.25,3.53,1.12,3.53,1.13,-1.12,-1.09,-1.47,2.41,2.41,2.41
102.27,3.52,1.19,3.52,1.19,-1.19,-1.14,-1.54,2.33,2.33,2.33
103.29,3.50,1.25,3.50,1.25,-1.25,-1.19,-1.60,2.25,2.25,2.25
104.32,3.48,1.31,3.48,1.31,-1.31,-1.23,-1.67,2.17,2.17,2.17
105.37,3.46,1.38,3.46,1.37,-1.37,-1.28,-1.73,2.09,2.09,2.09
106.42,3.43,1.42,3.43,1.43,-1.42,-1.33,-1.79,2.01,2.01,2.01
107.48,3.41,1.48,3.41,1.48,-1.48,-1.38,-1.85,1.93,1.93,1.93
108.56,3.39,1.54,3.39,1.54,-1.54,-1.43,-1.91,1.86,1.85,1.85
109.64,3.37,1.60,3.37,1.59,-1.59,-1.47,-1.97,1.78,1.78,1.78
110.74,3.35,1.64,3.35,1.65,-1.65,-1.52,-2.03,1.71,1.70,1.71
111.85,3.33,1.70,3.33,1.70,-1.70,-1.57,-2.09,1.63,1.63,1.63
112.97,3.32,1.76,3.32,1.76,-1.76,-1.62,-2.14,1.56,1.56,1.56
114.10,3.31,1.81,3.31,1.82,-1.82,-1.67,-2.20,1.49,1.49,1.50
115.24,3.31,1.88,3.31,1.88,-1.89,-1.72,-2.25,1.42,1.42,1.43
116.39,3.31,1.95,3.31,1.95,-1.96,-1.76,-2.29,1.35,1.36,1.36
117.55,3.32,2.01,3.32,2.01,-2.02,-1.81,-2.34,1.30,1.30,1.31
118.73,3.32,2.08,3.33,2.08,-2.08,-1.86,-2.38,1.24,1.25,1.24
119.92,3.33,2.14,3.33,2.15,-2.13,-1.91,-2.42,1.21,1.21,1.19
121.12,3.34,2.22,3.33,2.20,-2.17,-1.95,-2.46,1.17,1.16,1.13
122.33,3.31,2.24,3.31,2.24,-2.20,-2.00,-2.49,1.11,1.11,1.07
123.55,3.27,2.24,3.27,2.24,-2.23,-2.05,-2.52,1.04,1.03,1.03
124.79,3.22,2.25,3.22,2.24,-2.26,-2.10,-2.55,0.96,0.95,0.98
126.03,3.16,2.25,3.18,2.26,-2.29,-2.14,-2.57,0.87,0.89,0.91
127.29,3.17,2.30,3.17,2.30,-2.33,-2.19,-2.59,0.85,0.84,0.87
128.57,3.18,2.36,3.17,2.35,-2.36,-2.24,-2.61,0.82,0.81,0.82
129.85,3.18,2.41,3.18,2.41,-2.41,-2.28,-2.62,0.78,0.78,0.77
131.15,3.19,2.47,3.19,2.47,-2.46,-2.33,-2.64,0.74,0.73,0.72
132.46,3.19,2.52,3.19,2.52,-2.51,-2.37,-2.65,0.68,0.68,0.68
133.79,3.20,2.58,3.20,2.57,-2.57,-2.42,-2.65,0.63,0.63,0.62
135.12,3.20,2.63,3.20,2.63,-2.63,-2.46,-2.66,0.57,0.57,0.57
136.48,3.20,2.68,3.21,2.68,-2.68,-2.50,-2.66,0.52,0.52,0.53
137.84,3.21,2.74,3.21,2.73,-2.74,-2.55,-2.66,0.47,0.47,0.47
139.22,3.21,2.78,3.21,2.79,-2.79,-2.59,-2.66,0.42,0.42,0.43
140.61,3.21,2.84,3.21,2.84,-2.85,-2.63,-2.65,0.36,0.36,0.37
142.02,3.21,2.89,3.21,2.89,-2.90,-2.67,-2.65,0.31,0.31,0.32
143.44,3.21,2.94,3.21,2.94,-2.94,-2.71,-2.65,0.27,0.27,0.27
144.87,3.21,2.98,3.22,2.99,-2.98,-2.75,-2.64,0.23,0.24,0.23
146.32,3.21,3.03,3.21,3.04,-3.01,-2.79,-2.63,0.20,0.21,0.18
147.78,3.20,3.08,3.18,3.06,-3.03,-2.83,-2.63,0.17,0.15,0.12
149.26,3.14,3.07,3.13,3.06,-3.05,-2.87,-2.62,0.09,0.08,0.07
150.75,3.06,3.04,3.08,3.05,-3.07,-2.91,-2.62,-0.00,0.01,0.02
152.26,3.02,3.05,3.03,3.05,-3.08,-2.95,-2.61,-0.06,-0.05,-0.02
153.78,3.01,3.07,3.01,3.07,-3.11,-2.98,-2.61,-0.09,-0.10,-0.06
155.32,3.01,3.12,3.01,3.11,-3.13,-3.02,-2.61,-0.12,-0.12,-0.10
156.88,3.01,3.16,3.01,3.16,-3.16,-3.05,-2.60,-0.15,-0.15,-0.15
158.44,3.01,3.19,3.01,3.20,-3.19,-3.08,-2.60,-0.18,-0.18,-0.18
160.03,3.01,3.24,3.01,3.24,-3.23,-3.12,-2.61,-0.21,-0.21,-0.22
161.63,3.01,3.28,3.02,3.28,-3.26,-3.15,-2.61,-0.25,-0.24,-0.27
163.24,3.01,3.32,3.01,3.32,-3.29,-3.18,-2.61,-0.28,-0.28,-0.31
164.88,3.00,3.35,2.97,3.32,-3.32,-3.21,-2.62,-0.31,-0.35,-0.35
166.53,2.91,3.30,2.92,3.31,-3.33,-3.24,-2.63,-0.42,-0.41,-0.39
168.19,2.86,3.29,2.91,3.33,-3.35,-3.27,-2.64,-0.48,-0.44,-0.42
169.87,2.90,3.36,2.89,3.36,-3.36,-3.29,-2.65,-0.45,-0.46,-0.46
171.57,2.93,3.43,2.88,3.38,-3.36,-3.32,-2.66,-0.43,-0.48,-0.50
173.29,2.83,3.37,2.85,3.38,-3.37,-3.34,-2.68,-0.54,-0.52,-0.53
175.02,2.77,3.34,2.79,3.36,-3.37,-3.37,-2.70,-0.60,-0.57,-0.57
176.77,2.76,3.36,2.76,3.36,-3.37,-3.39,-2.72,-0.61,-0.61,-0.59
178.54,2.76,3.39,2.77,3.39,-3.37,-3.41,-2.74,-0.61,-0.61,-0.63
180.32,2.77,3.42,2.74,3.39,-3.38,-3.43,-2.76,-0.61,-0.64,-0.65
182.13,2.72,3.40,2.70,3.38,-3.39,-3.45,-2.79,-0.67,-0.69,-0.67
183.95,2.62,3.32,2.67,3.37,-3.41,-3.47,-2.82,-0.78,-0.74,-0.70
185.79,2.66,3.39,2.66,3.38,-3.43,-3.49,-2.85,-0.76,-0.77,-0.73
187.65,2.70,3.44,2.69,3.43,-3.45,-3.50,-2.88,-0.75,-0.76,-0.74
189.52,2.73,3.49,2.74,3.50,-3.47,-3.52,-2.92,-0.74,-0.73,-0.76
191.42,2.78,3.56,2.76,3.53,-3.49,-3.53,-2.95,-0.71,-0.73,-0.78
193.33,2.75,3.55,2.74,3.53,-3.51,-3.54,-2.99,-0.76,-0.77,-0.79
195.27,2.69,3.49,2.71,3.52,-3.52,-3.55,-3.03,-0.83,-0.80,-0.80
197.22,2.68,3.50,2.70,3.52,-3.52,-3.56,-3.07,-0.84,-0.82,-0.82
199.19,2.69,3.53,2.69,3.52,-3.52,-3.57,-3.12,-0.83,-0.83,-0.84
201.18,2.70,3.55,2.66,3.52,-3.51,-3.58,-3.16,-0.81,-0.85,-0.85
203.19,2.62,3.49,2.63,3.50,-3.51,-3.59,-3.20,-0.89,-0.88,-0.87
205.23,2.56,3.45,2.60,3.48,-3.52,-3.59,-3.25,-0.96,-0.92,-0.88
207.28,2.59,3.49,2.58,3.48,-3.53,-3.60,-3.30,-0.94,-0.95,-0.90
209.35,2.60,3.52,2.59,3.51,-3.53,-3.60,-3.34,-0.93,-0.94,-0.92
211.44,2.60,3.54,2.62,3.56,-3.53,-3.60,-3.39,-0.93,-0.91,-0.94
213.56,2.62,3.57,2.63,3.58,-3.52,-3.60,-3.44,-0.90,-0.89,-0.95
215.69,2.65,3.62,2.61,3.58,-3.51,-3.60,-3.48,-0.86,-0.90,-0.97
217.85,2.54,3.53,2.54,3.53,-3.49,-3.60,-3.53,-0.95,-0.95,-0.99
220.03,2.44,3.45,2.45,3.45,-3.48,-3.60,-3.57,-1.04,-1.03,-1.01
222.23,2.35,3.37,2.38,3.39,-3.46,-3.59,-3.61,-1.11,-1.09,-1.02
224.45,2.35,3.38,2.36,3.39,-3.45,-3.59,-3.65,-1.10,-1.09,-1.03
226.70,2.38,3.42,2.37,3.41,-3.44,-3.58,-3.69,-1.06,-1.07,-1.04
228.96,2.39,3.44,2.39,3.43,-3.43,-3.58,-3.73,-1.04,-1.04,-1.05
231.25,2.39,3.44,2.40,3.46,-3.42,-3.57,-3.76,-1.03,-1.01,-1.05
233.57,2.40,3.46,2.41,3.47,-3.42,-3.56,-3.79,-1.01,-1.01,-1.06
235.90,2.42,3.48,2.39,3.45,-3.42,-3.55,-3.81,-0.99,-1.02,-1.06
238.26,2.35,3.42,2.36,3.42,-3.41,-3.54,-3.83,-1.06,-1.05,-1.07
240.64,2.31,3.37,2.32,3.38,-3.41,-3.53,-3.85,-1.09,-1.09,-1.06
243.05,2.28,3.34,2.29,3.34,-3.39,-3.52,-3.86,-1.11,-1.11,-1.06
245.48,2.28,3.33,2.29,3.34,-3.38,-3.50,-3.87,-1.10,-1.09,-1.05
247.93,2.31,3.36,2.31,3.36,-3.36,-3.49,-3.87,-1.05,-1.05,-1.05
250.41,2.33,3.38,2.33,3.38,-3.35,-3.47,-3.87,-1.01,-1.02,-1.05
252.92,2.34,3.39,2.33,3.38,-3.33,-3.46,-3.86,-0.99,-1.00,-1.05
255.45,2.30,3.34,2.30,3.35,-3.32,-3.44,-3.85,-1.02,-1.02,-1.04
258.00,2.26,3.31,2.25,3.30,-3.31,-3.42,-3.84,-1.05,-1.06,-1.05
260.58,2.18,3.24,2.20,3.26,-3.28,-3.41,-3.82,-1.10,-1.08,-1.06
263.19,2.17,3.23,2.18,3.24,-3.26,-3.39,-3.79,-1.08,-1.08,-1.06
265.82,2.17,3.25,2.17,3.25,-3.23,-3.37,-3.76,-1.06,-1.06,-1.08
268.48,2.17,3.25,2.14,3.23,-3.21,-3.35,-3.73,-1.04,-1.07,-1.08
271.16,2.11,3.21,2.09,3.19,-3.20,-3.32,-3.69,-1.09,-1.12,-1.10
273.87,1.99,3.11,2.04,3.15,-3.20,-3.30,-3.65,-1.21,-1.16,-1.11
276.61,2.01,3.13,2.03,3.15,-3.19,-3.28,-3.60,-1.18,-1.16,-1.12
279.38,2.07,3.20,2.06,3.19,-3.17,-3.26,-3.56,-1.10,-1.11,-1.12
282.17,2.12,3.26,2.08,3.21,-3.16,-3.23,-3.51,-1.03,-1.08,-1.14
284.99,2.05,3.19,2.06,3.21,-3.14,-3.21,-3.46,-1.09,-1.08,-1.14
287.84,1.97,3.12,2.00,3.16,-3.14,-3.19,-3.41,-1.17,-1.13,-1.15
290.72,1.98,3.14,1.93,3.09,-3.13,-3.16,-3.35,-1.15,-1.21,-1.16
293.63,1.85,3.02,1.88,3.05,-3.12,-3.13,-3.30,-1.27,-1.24,-1.17
296.57,1.85,3.02,1.88,3.05,-3.10,-3.11,-3.24,-1.24,-1.21,-1.17
299.53,1.91,3.07,1.93,3.09,-3.07,-3.08,-3.19,-1.16,-1.14,-1.16
302.53,1.99,3.16,1.95,3.13,-3.05,-3.05,-3.13,-1.05,-1.09,-1.17
305.55,1.98,3.16,1.91,3.08,-3.02,-3.03,-3.08,-1.04,-1.12,-1.18
308.61,1.76,2.95,1.82,3.00,-3.01,-3.00,-3.02,-1.24,-1.19,-1.18
311.69,1.69,2.88,1.74,2.93,-2.99,-2.97,-2.97,-1.29,-1.24,-1.19
314.81,1.74,2.94,1.72,2.92,-2.97,-2.94,-2.91,-1.22,-1.24,-1.20
317.96,1.76,2.96,1.75,2.95,-2.95,-2.91,-2.86,-1.19,-1.20,-1.20
321.14,1.76,2.97,1.72,2.93,-2.93,-2.89,-2.81,-1.17,-1.21,-1.21
324.35,1.68,2.90,1.67,2.89,-2.91,-2.86,-2.76,-1.23,-1.24,-1.22
327.59,1.57,2.80,1.66,2.89,-2.89,-2.83,-2.71,-1.32,-1.23,-1.23
330.87,1.67,2.91,1.67,2.90,-2.87,-2.80,-2.67,-1.19,-1.20,-1.23
334.18,1.75,2.99,1.68,2.91,-2.84,-2.77,-2.62,-1.09,-1.16,-1.24
337.52,1.63,2.87,1.63,2.87,-2.82,-2.74,-2.58,-1.18,-1.19,-1.24
340.90,1.51,2.76,1.52,2.77,-2.79,-2.71,-2.54,-1.28,-1.27,-1.25
344.30,1.38,2.63,1.43,2.68,-2.78,-2.68,-2.50,-1.40,-1.35,-1.25
347.75,1.41,2.67,1.40,2.66,-2.75,-2.65,-2.46,-1.34,-1.35,-1.25
351.23,1.44,2.71,1.44,2.70,-2.72,-2.62,-2.42,-1.28,-1.28,-1.27
354.74,1.47,2.74,1.51,2.77,-2.69,-2.59,-2.39,-1.22,-1.18,-1.27
358.28,1.54,2.81,1.49,2.76,-2.66,-2.55,-2.36,-1.12,-1.17,-1.27
361.87,1.47,2.74,1.41,2.68,-2.63,-2.52,-2.33,-1.16,-1.22,-1.27
365.49,1.23,2.51,1.32,2.59,-2.61,-2.49,-2.30,-1.38,-1.30,-1.27
369.14,1.21,2.49,1.26,2.53,-2.59,-2.46,-2.27,-1.38,-1.34,-1.28
372.83,1.27,2.55,1.24,2.51,-2.57,-2.43,-2.25,-1.30,-1.33,-1.28
376.56,1.29,2.57,1.22,2.51,-2.54,-2.40,-2.22,-1.24,-1.31,-1.28
380.33,1.17,2.46,1.20,2.49,-2.50,-2.37,-2.20,-1.32,-1.29,-1.29
384.13,1.12,2.41,1.22,2.51,-2.47,-2.34,-2.18,-1.35,-1.26,-1.29
387.97,1.26,2.56,1.22,2.52,-2.46,-2.31,-2.17,-1.20,-1.24,-1.30
391.85,1.30,2.62,1.19,2.50,-2.46,-2.28,-2.15,-1.16,-1.28,-1.31
395.77,1.06,2.39,1.10,2.43,-2.45,-2.24,-2.13,-1.39,-1.35,-1.33
399.73,0.93,2.27,1.00,2.34,-2.43,-2.21,-2.12,-1.49,-1.42,-1.34
403.72,0.98,2.33,1.00,2.35,-2.39,-2.18,-2.11,-1.41,-1.40,-1.35
407.76,1.06,2.43,1.05,2.41,-2.36,-2.15,-2.10,-1.30,-1.31,-1.37
411.84,1.12,2.50,1.02,2.40,-2.32,-2.12,-2.09,-1.20,-1.30,-1.38
415.96,0.92,2.31,0.92,2.31,-2.27,-2.09,-2.08,-1.35,-1.35,-1.39
420.12,0.72,2.12,0.82,2.22,-2.23,-2.06,-2.07,-1.51,-1.42,-1.40
424.32,0.75,2.15,0.76,2.17,-2.21,-2.03,-2.06,-1.46,-1.44,-1.40
428.56,0.81,2.21,0.76,2.16,-2.19,-2.00,-2.05,-1.38,-1.44,-1.40
432.85,0.80,2.20,0.75,2.14,-2.18,-1.97,-2.05,-1.37,-1.42,-1.39
437.18,0.66,2.04,0.72,2.10,-2.15,-1.94,-2.04,-1.49,-1.43,-1.37
441.55,0.72,2.08,0.75,2.11,-2.14,-1.91,-2.03,-1.42,-1.39,-1.36
445.96,0.83,2.16,0.86,2.19,-2.13,-1.88,-2.02,-1.30,-1.27,-1.33
450.42,1.01,2.30,0.94,2.23,-2.12,-1.85,-2.02,-1.11,-1.18,-1.29
454.93,1.01,2.26,0.92,2.17,-2.11,-1.82,-2.01,-1.09,-1.18,-1.25
459.48,0.77,1.97,0.87,2.07,-2.09,-1.79,-2.00,-1.32,-1.22,-1.20
464.07,0.77,1.93,0.84,2.00,-2.07,-1.76,-1.99,-1.30,-1.23,-1.16
468.71,0.90,2.01,0.86,1.96,-2.04,-1.73,-1.98,-1.14,-1.18,-1.11
473.40,0.99,2.05,0.91,1.97,-2.00,-1.70,-1.96,-1.01,-1.09,-1.06
478.13,0.90,1.91,0.98,2.00,-1.95,-1.67,-1.95,-1.05,-0.96,-1.01
482.91,0.95,1.92,1.01,1.98,-1.90,-1.64,-1.94,-0.95,-0.89,-0.97
487.74,1.12,2.05,0.97,1.90,-1.87,-1.61,-1.92,-0.75,-0.90,-0.93
492.62,0.91,1.81,0.93,1.83,-1.84,-1.59,-1.90,-0.93,-0.91,-0.90
497.55,0.77,1.65,0.89,1.77,-1.81,-1.56,-1.88,-1.04,-0.92,-0.88
502.52,0.88,1.74,0.86,1.73,-1.78,-1.53,-1.86,-0.90,-0.92,-0.86
507.55,0.94,1.80,0.86,1.72,-1.75,-1.50,-1.84,-0.81,-0.89,-0.85
512.62,0.86,1.73,0.84,1.70,-1.72,-1.47,-1.81,-0.86,-0.88,-0.86
517.75,0.72,1.59,0.85,1.72,-1.70,-1.45,-1.79,-0.97,-0.85,-0.86
522.93,0.82,1.71,0.83,1.71,-1.68,-1.42,-1.76,-0.86,-0.85,-0.89
