frequency,raw,error,smoothed,error_smoothed,equalization,parametric_eq,fixed_band_eq,equalized_raw,equalized_smoothed,target
20.00,-26.43,-20.98,-26.43,-20.98,6.00,6.38,2.62,-20.43,-20.43,-5.45
20.20,-26.28,-20.89,-26.28,-20.89,6.00,6.38,2.69,-20.28,-20.28,-5.39
20.40,-26.13,-20.79,-26.13,-20.79,6.00,6.38,2.77,-20.13,-20.13,-5.34
20.61,-25.99,-20.70,-25.98,-20.70,6.00,6.38,2.85,-19.99,-19.98,-5.29
20.81,-25.83,-20.60,-25.83,-20.60,6.00,6.38,2.93,-19.83,-19.83,-5.24
21.02,-25.68,-20.51,-25.68,-20.50,6.00,6.38,3.01,-19.68,-19.68,-5.18
21.23,-25.52,-20.40,-25.53,-20.40,6.00,6.38,3.10,-19.52,-19.53,-5.13
21.44,-25.37,-20.29,-25.37,-20.30,6.00,6.38,3.19,-19.37,-19.37,-5.08
21.66,-25.22,-20.19,-25.21,-20.19,6.00,6.38,3.28,-19.22,-19.21,-5.03
21.87,-25.06,-20.08,-25.06,-20.08,6.00,6.38,3.37,-19.06,-19.06,-4.98
22.09,-24.90,-19.97,-24.91,-19.98,6.00,6.38,3.47,-18.90,-18.91,-4.93
22.31,-24.75,-19.87,-24.75,-19.87,6.00,6.38,3.56,-18.75,-18.75,-4.88
22.54,-24.61,-19.77,-24.60,-19.76,6.00,6.38,3.66,-18.61,-18.60,-4.84
22.76,-24.44,-19.65,-24.45,-19.66,6.00,6.38,3.77,-18.44,-18.45,-4.79
22.99,-24.29,-19.54,-24.29,-19.54,6.00,6.38,3.87,-18.29,-18.29,-4.75
23.22,-24.13,-19.43,-24.13,-19.43,6.00,6.37,3.98,-18.13,-18.13,-4.70
23.45,-23.97,-19.31,-23.98,-19.32,6.00,6.37,4.09,-17.97,-17.98,-4.66
23.69,-23.83,-19.21,-23.82,-19.21,6.00,6.37,4.21,-17.83,-17.82,-4.61
23.92,-23.66,-19.09,-23.66,-19.09,6.00,6.37,4.32,-17.66,-17.66,-4.57
24.16,-23.50,-18.98,-23.50,-18.98,6.00,6.37,4.44,-17.50,-17.50,-4.52
24.40,-23.34,-18.86,-23.34,-18.86,6.00,6.37,4.56,-17.34,-17.34,-4.48
24.65,-23.19,-18.75,-23.19,-18.75,6.00,6.37,4.68,-17.19,-17.19,-4.44
24.89,-23.03,-18.63,-23.03,-18.63,6.00,6.37,4.81,-17.03,-17.03,-4.40
25.14,-22.87,-18.51,-22.87,-18.51,6.00,6.37,4.93,-16.87,-16.87,-4.36
25.39,-22.71,-18.39,-22.71,-18.39,6.00,6.37,5.06,-16.71,-16.71,-4.32
25.65,-22.55,-18.27,-22.55,-18.27,6.00,6.37,5.18,-16.55,-16.55,-4.29
25.91,-22.40,-18.15,-22.39,-18.15,6.00,6.36,5.31,-16.40,-16.39,-4.25
26.16,-22.23,-18.02,-22.23,-18.02,6.00,6.36,5.44,-16.23,-16.23,-4.21
26.43,-22.08,-17.90,-22.07,-17.90,6.00,6.36,5.56,-16.08,-16.07,-4.18
26.69,-21.91,-17.77,-21.92,-17.78,6.00,6.36,5.69,-15.91,-15.92,-4.14
26.96,-21.76,-17.66,-21.76,-17.66,6.00,6.36,5.82,-15.76,-15.76,-4.10
27.23,-21.61,-17.53,-21.60,-17.54,6.00,6.36,5.94,-15.61,-15.60,-4.07
27.50,-21.44,-17.41,-21.44,-17.41,6.00,6.36,6.06,-15.44,-15.44,-4.03
27.77,-21.28,-17.29,-21.28,-17.29,6.00,6.35,6.17,-15.28,-15.28,-3.99
28.05,-21.12,-17.16,-21.12,-17.16,6.00,6.35,6.29,-15.12,-15.12,-3.96
28.33,-20.96,-17.04,-20.96,-17.04,6.00,6.35,6.40,-14.96,-14.96,-3.92
28.62,-20.81,-16.92,-20.80,-16.92,6.00,6.35,6.50,-14.81,-14.80,-3.89
28.90,-20.64,-16.80,-20.65,-16.80,6.00,6.35,6.60,-14.64,-14.65,-3.85
29.19,-20.49,-16.68,-20.49,-16.68,6.00,6.35,6.69,-14.49,-14.49,-3.82
29.48,-20.33,-16.55,-20.33,-16.56,6.00,6.35,6.77,-14.33,-14.33,-3.78
29.78,-20.18,-16.44,-20.18,-16.44,6.00,6.34,6.85,-14.18,-14.18,-3.74
30.08,-20.03,-16.31,-20.03,-16.32,6.00,6.34,6.92,-14.03,-14.03,-3.71
30.38,-19.88,-16.20,-19.87,-16.20,6.00,6.34,6.98,-13.88,-13.87,-3.67
30.68,-19.71,-16.07,-19.72,-16.08,6.00,6.34,7.02,-13.71,-13.72,-3.64
30.99,-19.56,-15.96,-19.56,-15.96,6.00,6.34,7.07,-13.56,-13.56,-3.60
31.30,-19.41,-15.84,-19.41,-15.84,6.00,6.33,7.10,-13.41,-13.41,-3.58
31.61,-19.26,-15.72,-19.26,-15.72,6.00,6.33,7.12,-13.26,-13.26,-3.55
31.93,-19.12,-15.60,-19.12,-15.60,6.00,6.33,7.13,-13.12,-13.12,-3.52
32.24,-18.97,-15.48,-18.97,-15.48,6.00,6.33,7.14,-12.97,-12.97,-3.49
32.57,-18.82,-15.36,-18.83,-15.36,6.00,6.32,7.13,-12.82,-12.83,-3.46
32.89,-18.68,-15.25,-18.68,-15.24,6.00,6.32,7.12,-12.68,-12.68,-3.43
33.22,-18.53,-15.12,-18.53,-15.12,6.00,6.32,7.09,-12.53,-12.53,-3.42
33.55,-18.38,-14.99,-18.39,-15.00,6.00,6.32,7.07,-12.38,-12.39,-3.39
33.89,-18.24,-14.87,-18.24,-14.87,6.00,6.31,7.03,-12.24,-12.24,-3.37
34.23,-18.09,-14.74,-18.10,-14.75,6.00,6.31,6.99,-12.09,-12.10,-3.35
34.57,-17.95,-14.63,-17.95,-14.62,6.00,6.31,6.94,-11.95,-11.95,-3.32
34.92,-17.80,-14.50,-17.81,-14.50,6.00,6.30,6.89,-11.80,-11.81,-3.31
35.27,-17.66,-14.38,-17.66,-14.38,6.00,6.30,6.83,-11.66,-11.66,-3.29
35.62,-17.52,-14.25,-17.52,-14.25,6.00,6.30,6.78,-11.52,-11.52,-3.27
35.97,-17.38,-14.13,-17.38,-14.13,6.00,6.29,6.72,-11.38,-11.38,-3.25
36.33,-17.24,-14.00,-17.24,-14.00,6.00,6.29,6.66,-11.24,-11.24,-3.24
36.70,-17.10,-13.88,-17.10,-13.87,6.00,6.29,6.59,-11.10,-11.10,-3.23
37.06,-16.96,-13.75,-16.96,-13.75,6.00,6.28,6.53,-10.96,-10.96,-3.21
37.43,-16.82,-13.62,-16.83,-13.63,6.00,6.28,6.47,-10.82,-10.83,-3.20
37.81,-16.69,-13.51,-16.69,-13.50,6.00,6.27,6.41,-10.69,-10.69,-3.18
38.19,-16.55,-13.38,-16.55,-13.38,6.00,6.27,6.35,-10.55,-10.55,-3.18
38.57,-16.41,-13.24,-16.41,-13.24,6.00,6.27,6.29,-10.41,-10.41,-3.17
38.95,-16.27,-13.11,-16.27,-13.11,6.00,6.26,6.23,-10.27,-10.27,-3.16
39.34,-16.12,-12.96,-16.12,-12.97,6.00,6.26,6.18,-10.12,-10.12,-3.16
39.74,-15.98,-12.83,-15.98,-12.83,6.00,6.25,6.13,-9.98,-9.98,-3.15
40.14,-15.84,-12.69,-15.85,-12.70,6.00,6.25,6.08,-9.84,-9.85,-3.15
40.54,-15.71,-12.57,-15.71,-12.56,6.00,6.24,6.04,-9.71,-9.71,-3.15
40.94,-15.57,-12.43,-15.57,-12.43,6.00,6.24,6.00,-9.57,-9.57,-3.14
41.35,-15.44,-12.30,-15.44,-12.30,6.00,6.23,5.96,-9.44,-9.44,-3.15
41.76,-15.30,-12.16,-15.31,-12.16,6.00,6.23,5.93,-9.30,-9.31,-3.14
42.18,-15.17,-12.03,-15.17,-12.03,6.00,6.22,5.90,-9.17,-9.17,-3.14
42.60,-15.04,-11.90,-15.04,-11.90,6.00,6.21,5.88,-9.04,-9.04,-3.14
43.03,-14.90,-11.76,-14.91,-11.77,6.00,6.21,5.86,-8.90,-8.91,-3.14
43.46,-14.77,-11.64,-14.77,-11.63,6.00,6.20,5.84,-8.77,-8.77,-3.14
43.90,-14.63,-11.49,-14.64,-11.50,6.00,6.19,5.83,-8.63,-8.64,-3.14
44.33,-14.50,-11.37,-14.50,-11.37,6.00,6.19,5.82,-8.50,-8.50,-3.14
44.78,-14.37,-11.23,-14.37,-11.23,6.00,6.18,5.82,-8.37,-8.37,-3.14
45.23,-14.24,-11.11,-14.24,-11.10,6.00,6.17,5.82,-8.24,-8.24,-3.14
45.68,-14.11,-10.97,-14.11,-10.97,6.00,6.17,5.83,-8.11,-8.11,-3.14
46.13,-13.98,-10.83,-13.98,-10.84,6.00,6.16,5.84,-7.98,-7.98,-3.15
46.60,-13.85,-10.71,-13.85,-10.70,6.00,6.15,5.86,-7.85,-7.85,-3.14
47.06,-13.72,-10.57,-13.72,-10.57,6.00,6.14,5.87,-7.72,-7.72,-3.15
47.53,-13.59,-10.44,-13.59,-10.44,6.00,6.14,5.90,-7.59,-7.59,-3.16
48.01,-13.46,-10.31,-13.47,-10.31,6.00,6.13,5.93,-7.46,-7.47,-3.15
48.49,-13.34,-10.18,-13.34,-10.18,6.00,6.12,5.96,-7.34,-7.34,-3.16
48.97,-13.22,-10.05,-13.22,-10.05,6.00,6.11,5.99,-7.22,-7.22,-3.17
49.46,-13.09,-9.93,-13.10,-9.93,6.00,6.10,6.03,-7.09,-7.10,-3.17
49.96,-12.97,-9.80,-12.97,-9.80,6.00,6.10,6.07,-6.97,-6.97,-3.17
50.46,-12.85,-9.68,-12.85,-9.68,6.00,6.09,6.11,-6.85,-6.85,-3.17
50.96,-12.73,-9.55,-12.73,-9.56,6.00,6.08,6.16,-6.73,-6.73,-3.18
51.47,-12.61,-9.44,-12.61,-9.43,6.00,6.07,6.21,-6.61,-6.61,-3.18
51.99,-12.48,-9.30,-12.49,-9.30,6.00,6.06,6.26,-6.48,-6.49,-3.19
52.51,-12.37,-9.18,-12.37,-9.18,6.00,6.05,6.31,-6.37,-6.37,-3.20
53.03,-12.25,-9.06,-12.25,-9.06,6.00,6.04,6.36,-6.25,-6.25,-3.19
53.56,-12.14,-8.94,-12.14,-8.94,6.00,6.03,6.41,-6.14,-6.14,-3.20
54.10,-12.03,-8.82,-12.03,-8.82,6.00,6.02,6.46,-6.03,-6.03,-3.21
54.64,-11.92,-8.70,-11.92,-8.70,6.00,6.02,6.51,-5.92,-5.92,-3.22
55.18,-11.80,-8.57,-11.81,-8.57,6.00,6.01,6.56,-5.80,-5.81,-3.24
55.74,-11.69,-8.45,-11.69,-8.44,6.00,6.00,6.61,-5.69,-5.69,-3.25
56.29,-11.58,-8.31,-11.59,-8.32,6.00,5.99,6.65,-5.58,-5.59,-3.27
56.86,-11.48,-8.20,-11.48,-8.20,6.00,5.98,6.69,-5.48,-5.48,-3.28
57.42,-11.38,-8.08,-11.38,-8.08,6.00,5.97,6.72,-5.38,-5.38,-3.30
58.00,-11.28,-7.96,-11.28,-7.96,6.00,5.97,6.76,-5.28,-5.28,-3.32
58.58,-11.18,-7.84,-11.18,-7.83,6.00,5.96,6.78,-5.18,-5.18,-3.35
59.16,-11.07,-7.70,-11.08,-7.70,6.00,5.96,6.80,-5.07,-5.08,-3.37
59.76,-10.97,-7.58,-10.98,-7.58,6.00,5.95,6.81,-4.97,-4.98,-3.39
60.35,-10.88,-7.45,-10.88,-7.46,6.00,5.95,6.82,-4.88,-4.88,-3.43
60.96,-10.80,-7.35,-10.80,-7.35,6.00,5.94,6.81,-4.80,-4.80,-3.45
61.57,-10.72,-7.24,-10.72,-7.24,6.00,5.94,6.80,-4.72,-4.72,-3.48
62.18,-10.64,-7.13,-10.64,-7.13,6.00,5.94,6.79,-4.64,-4.64,-3.51
62.80,-10.56,-7.02,-10.57,-7.03,6.00,5.94,6.76,-4.56,-4.57,-3.54
63.43,-10.50,-6.94,-10.50,-6.93,6.00,5.94,6.72,-4.50,-4.50,-3.57
64.07,-10.43,-6.84,-10.43,-6.84,6.00,5.94,6.68,-4.43,-4.43,-3.59
64.71,-10.37,-6.75,-10.37,-6.75,6.00,5.94,6.63,-4.37,-4.37,-3.62
65.35,-10.31,-6.67,-10.31,-6.67,6.00,5.95,6.57,-4.31,-4.31,-3.64
66.01,-10.26,-6.60,-10.27,-6.61,6.00,5.95,6.50,-4.26,-4.27,-3.66
66.67,-10.22,-6.55,-10.22,-6.54,6.00,5.96,6.43,-4.22,-4.22,-3.68
67.33,-10.18,-6.49,-10.18,-6.48,6.00,5.96,6.35,-4.18,-4.18,-3.70
68.01,-10.13,-6.43,-10.14,-6.43,6.00,5.96,6.27,-4.13,-4.14,-3.71
68.69,-10.09,-6.38,-10.09,-6.38,6.00,5.97,6.17,-4.09,-4.09,-3.72
69.37,-10.05,-6.32,-10.05,-6.32,6.01,5.97,6.08,-4.05,-4.04,-3.73
70.07,-10.01,-6.27,-10.01,-6.27,6.01,5.96,5.98,-4.00,-4.00,-3.74
70.77,-9.96,-6.21,-9.97,-6.22,6.01,5.95,5.87,-3.95,-3.95,-3.75
71.48,-9.92,-6.17,-9.92,-6.16,6.01,5.94,5.77,-3.91,-3.91,-3.76
72.19,-9.87,-6.10,-9.88,-6.11,6.00,5.92,5.66,-3.88,-3.88,-3.77
72.91,-9.83,-6.05,-9.83,-6.05,5.98,5.89,5.55,-3.86,-3.85,-3.78
73.64,-9.77,-5.98,-9.78,-5.98,5.94,5.85,5.44,-3.83,-3.83,-3.80
74.38,-9.72,-5.91,-9.72,-5.91,5.90,5.81,5.32,-3.83,-3.82,-3.81
75.12,-9.66,-5.83,-9.67,-5.84,5.84,5.75,5.21,-3.82,-3.82,-3.83
75.87,-9.61,-5.77,-9.61,-5.77,5.77,5.69,5.10,-3.84,-3.84,-3.84
76.63,-9.55,-5.69,-9.55,-5.69,5.70,5.62,4.99,-3.86,-3.86,-3.86
77.40,-9.49,-5.60,-9.49,-5.61,5.61,5.55,4.87,-3.88,-3.88,-3.89
78.17,-9.42,-5.52,-9.42,-5.52,5.52,5.47,4.76,-3.90,-3.91,-3.91
78.95,-9.35,-5.43,-9.35,-5.43,5.43,5.38,4.66,-3.93,-3.93,-3.93
79.74,-9.28,-5.34,-9.28,-5.33,5.34,5.29,4.55,-3.95,-3.94,-3.94
80.54,-9.20,-5.24,-9.21,-5.24,5.24,5.20,4.44,-3.96,-3.96,-3.96
81.35,-9.13,-5.15,-9.13,-5.15,5.15,5.11,4.34,-3.98,-3.98,-3.98
82.16,-9.06,-5.06,-9.06,-5.06,5.06,5.02,4.24,-4.00,-4.00,-4.01
82.98,-8.99,-4.97,-8.99,-4.97,4.97,4.93,4.14,-4.02,-4.02,-4.03
83.81,-8.92,-4.88,-8.92,-4.88,4.88,4.84,4.05,-4.04,-4.04,-4.04
84.65,-8.84,-4.79,-8.85,-4.80,4.79,4.75,3.95,-4.05,-4.05,-4.05
85.50,-8.77,-4.71,-8.77,-4.71,4.71,4.67,3.86,-4.06,-4.06,-4.06
86.35,-8.70,-4.63,-8.70,-4.63,4.63,4.58,3.77,-4.08,-4.07,-4.08
87.22,-8.63,-4.54,-8.63,-4.54,4.54,4.49,3.69,-4.09,-4.09,-4.09
88.09,-8.56,-4.46,-8.57,-4.46,4.46,4.41,3.61,-4.10,-4.10,-4.10
88.97,-8.50,-4.38,-8.50,-4.39,4.39,4.32,3.53,-4.12,-4.12,-4.12
89.86,-8.44,-4.31,-8.44,-4.31,4.31,4.24,3.45,-4.13,-4.13,-4.13
90.76,-8.38,-4.23,-8.38,-4.23,4.23,4.16,3.38,-4.15,-4.15,-4.15
91.66,-8.31,-4.15,-8.32,-4.15,4.16,4.08,3.30,-4.16,-4.16,-4.16
92.58,-8.25,-4.07,-8.26,-4.08,4.08,4.00,3.24,-4.18,-4.18,-4.18
93.51,-8.20,-4.00,-8.20,-4.00,4.00,3.92,3.17,-4.21,-4.20,-4.21
94.44,-8.15,-3.93,-8.15,-3.92,3.91,3.84,3.10,-4.24,-4.23,-4.22
95.39,-8.08,-3.83,-8.09,-3.84,3.83,3.76,3.04,-4.26,-4.26,-4.25
96.34,-8.02,-3.75,-8.03,-3.75,3.74,3.69,2.98,-4.29,-4.29,-4.28
97.30,-7.96,-3.65,-7.96,-3.65,3.64,3.61,2.93,-4.32,-4.32,-4.31
98.28,-7.90,-3.56,-7.90,-3.55,3.55,3.53,2.87,-4.35,-4.34,-4.34
99.26,-7.82,-3.44,-7.83,-3.45,3.46,3.46,2.82,-4.36,-4.37,-4.38
100.25,-7.77,-3.35,-7.77,-3.36,3.37,3.38,2.77,-4.40,-4.40,-4.42
101.25,-7.73,-3.28,-7.73,-3.27,3.29,3.30,2.72,-4.45,-4.44,-4.46
102.27,-7.68,-3.19,-7.69,-3.20,3.20,3.23,2.67,-4.48,-4.49,-4.49
103.29,-7.66,-3.13,-7.66,-3.12,3.11,3.15,2.63,-4.55,-4.55,-4.53
104.32,-7.63,-3.05,-7.62,-3.04,3.03,3.08,2.58,-4.60,-4.59,-4.58
105.37,-7.57,-2.95,-7.58,-2.96,2.94,3.01,2.54,-4.63,-4.63,-4.62
106.42,-7.52,-2.86,-7.52,-2.86,2.86,2.93,2.50,-4.67,-4.67,-4.67
107.48,-7.47,-2.77,-7.47,-2.76,2.77,2.86,2.46,-4.70,-4.70,-4.71
108.56,-7.42,-2.67,-7.43,-2.67,2.68,2.79,2.42,-4.74,-4.75,-4.75
109.64,-7.38,-2.59,-7.38,-2.59,2.59,2.71,2.38,-4.79,-4.79,-4.79
110.74,-7.34,-2.50,-7.34,-2.50,2.50,2.64,2.34,-4.84,-4.84,-4.84
111.85,-7.29,-2.41,-7.29,-2.42,2.42,2.57,2.30,-4.88,-4.88,-4.88
112.97,-7.24,-2.33,-7.24,-2.33,2.33,2.50,2.26,-4.91,-4.91,-4.92
114.10,-7.20,-2.25,-7.20,-2.25,2.25,2.42,2.23,-4.95,-4.95,-4.95
115.24,-7.15,-2.16,-7.16,-2.17,2.17,2.35,2.19,-4.98,-4.99,-4.99
116.39,-7.13,-2.11,-7.13,-2.10,2.09,2.28,2.15,-5.04,-5.03,-5.03
117.55,-7.09,-2.04,-7.08,-2.03,2.02,2.21,2.12,-5.08,-5.07,-5.05
118.73,-7.03,-1.94,-7.03,-1.94,1.94,2.14,2.08,-5.09,-5.09,-5.09
119.92,-6.97,-1.86,-6.98,-1.86,1.87,2.07,2.04,-5.10,-5.11,-5.12
121.12,-6.92,-1.78,-6.93,-1.79,1.80,2.00,2.00,-5.12,-5.13,-5.14
122.33,-6.89,-1.73,-6.89,-1.73,1.73,1.93,1.96,-5.16,-5.16,-5.16
123.55,-6.86,-1.68,-6.85,-1.67,1.66,1.86,1.92,-5.20,-5.19,-5.18
124.79,-6.80,-1.60,-6.81,-1.60,1.59,1.80,1.88,-5.21,-5.21,-5.21
126.03,-6.75,-1.53,-6.76,-1.53,1.53,1.73,1.84,-5.23,-5.23,-5.22
127.29,-6.71,-1.47,-6.71,-1.46,1.46,1.66,1.80,-5.25,-5.25,-5.25
128.57,-6.66,-1.40,-6.66,-1.39,1.40,1.59,1.75,-5.26,-5.26,-5.26
129.85,-6.60,-1.32,-6.60,-1.32,1.33,1.53,1.71,-5.27,-5.27,-5.28
131.15,-6.54,-1.25,-6.56,-1.26,1.27,1.46,1.66,-5.28,-5.29,-5.29
132.46,-6.52,-1.21,-6.51,-1.20,1.20,1.40,1.61,-5.32,-5.31,-5.32
133.79,-6.48,-1.15,-6.48,-1.14,1.13,1.33,1.57,-5.35,-5.34,-5.34
135.12,-6.42,-1.06,-6.43,-1.07,1.06,1.27,1.52,-5.36,-5.37,-5.36
136.48,-6.38,-1.00,-6.38,-1.00,0.99,1.20,1.47,-5.39,-5.38,-5.38
137.84,-6.31,-0.91,-6.32,-0.92,0.92,1.14,1.42,-5.40,-5.41,-5.40
139.22,-6.27,-0.84,-6.27,-0.84,0.84,1.08,1.37,-5.43,-5.43,-5.43
140.61,-6.22,-0.78,-6.21,-0.77,0.77,1.02,1.32,-5.46,-5.45,-5.45
142.02,-6.15,-0.68,-6.16,-0.69,0.69,0.95,1.27,-5.46,-5.47,-5.47
143.44,-6.11,-0.62,-6.11,-0.61,0.62,0.89,1.21,-5.49,-5.49,-5.49
144.87,-6.06,-0.54,-6.06,-0.54,0.55,0.83,1.16,-5.51,-5.51,-5.52
146.32,-6.02,-0.48,-6.02,-0.48,0.49,0.77,1.11,-5.54,-5.54,-5.55
147.78,-5.98,-0.42,-5.99,-0.42,0.42,0.71,1.05,-5.56,-5.56,-5.56
149.26,-5.95,-0.37,-5.95,-0.37,0.36,0.65,1.00,-5.59,-5.59,-5.59
150.75,-5.92,-0.31,-5.92,-0.31,0.30,0.59,0.95,-5.62,-5.62,-5.61
152.26,-5.88,-0.25,-5.88,-0.25,0.24,0.53,0.89,-5.64,-5.65,-5.64
153.78,-5.84,-0.18,-5.84,-0.19,0.18,0.47,0.84,-5.66,-5.66,-5.66
155.32,-5.80,-0.13,-5.80,-0.12,0.13,0.42,0.79,-5.68,-5.67,-5.67
156.88,-5.75,-0.06,-5.76,-0.06,0.07,0.36,0.73,-5.68,-5.68,-5.70
158.44,-5.72,-0.01,-5.72,-0.01,0.02,0.30,0.68,-5.70,-5.70,-5.72
160.03,-5.69,0.05,-5.70,0.03,-0.03,0.25,0.62,-5.72,-5.73,-5.74
161.63,-5.68,0.07,-5.68,0.07,-0.07,0.19,0.57,-5.76,-5.75,-5.75
163.24,-5.67,0.10,-5.66,0.11,-0.12,0.13,0.52,-5.79,-5.78,-5.77
164.88,-5.62,0.17,-5.64,0.15,-0.17,0.08,0.46,-5.79,-5.80,-5.79
166.53,-5.60,0.20,-5.60,0.20,-0.22,0.02,0.41,-5.82,-5.81,-5.80
168.19,-5.56,0.25,-5.56,0.26,-0.26,-0.03,0.35,-5.83,-5.82,-5.82
169.87,-5.51,0.32,-5.52,0.31,-0.31,-0.08,0.30,-5.83,-5.83,-5.84
171.57,-5.47,0.37,-5.48,0.37,-0.36,-0.14,0.25,-5.83,-5.84,-5.84
173.29,-5.44,0.41,-5.44,0.42,-0.40,-0.19,0.19,-5.85,-5.84,-5.85
175.02,-5.40,0.45,-5.40,0.46,-0.44,-0.24,0.14,-5.85,-5.85,-5.86
176.77,-5.37,0.50,-5.38,0.49,-0.48,-0.30,0.09,-5.85,-5.86,-5.87
178.54,-5.35,0.52,-5.36,0.51,-0.51,-0.35,0.03,-5.87,-5.87,-5.87
180.32,-5.34,0.53,-5.34,0.54,-0.54,-0.40,-0.02,-5.89,-5.88,-5.87
182.13,-5.32,0.56,-5.32,0.56,-0.57,-0.45,-0.08,-5.90,-5.89,-5.88
183.95,-5.28,0.60,-5.29,0.59,-0.60,-0.50,-0.13,-5.89,-5.89,-5.88
185.79,-5.24,0.63,-5.25,0.63,-0.63,-0.55,-0.18,-5.88,-5.88,-5.88
187.65,-5.22,0.66,-5.22,0.67,-0.66,-0.60,-0.24,-5.89,-5.88,-5.88
189.52,-5.18,0.70,-5.18,0.70,-0.69,-0.65,-0.29,-5.88,-5.88,-5.88
191.42,-5.15,0.73,-5.16,0.73,-0.73,-0.70,-0.34,-5.88,-5.88,-5.89
193.33,-5.12,0.77,-5.13,0.76,-0.76,-0.75,-0.40,-5.88,-5.89,-5.89
195.27,-5.10,0.79,-5.10,0.79,-0.79,-0.79,-0.45,-5.90,-5.89,-5.89
197.22,-5.07,0.82,-5.07,0.82,-0.83,-0.84,-0.50,-5.90,-5.90,-5.89
199.19,-5.04,0.85,-5.04,0.85,-0.86,-0.88,-0.56,-5.90,-5.90,-5.89
201.18,-5.01,0.89,-5.01,0.89,-0.89,-0.93,-0.61,-5.91,-5.91,-5.90
203.19,-4.98,0.92,-4.98,0.93,-0.93,-0.97,-0.66,-5.91,-5.91,-5.91
205.23,-4.95,0.96,-4.96,0.96,-0.96,-1.01,-0.71,-5.91,-5.91,-5.92
207.28,-4.93,0.99,-4.93,0.99,-0.98,-1.05,-0.76,-5.92,-5.91,-5.92
209.35,-4.91,1.01,-4.91,1.02,-1.01,-1.09,-0.82,-5.92,-5.92,-5.92
211.44,-4.89,1.04,-4.90,1.04,-1.03,-1.13,-0.87,-5.92,-5.92,-5.93
213.56,-4.88,1.06,-4.89,1.05,-1.04,-1.17,-0.92,-5.93,-5.93,-5.94
215.69,-4.88,1.06,-4.88,1.06,-1.06,-1.21,-0.97,-5.94,-5.94,-5.94
217.85,-4.88,1.07,-4.88,1.07,-1.08,-1.24,-1.01,-5.96,-5.96,-5.95
220.03,-4.87,1.08,-4.88,1.08,-1.10,-1.27,-1.06,-5.97,-5.97,-5.96
222.23,-4.86,1.10,-4.86,1.11,-1.12,-1.30,-1.11,-5.98,-5.98,-5.97
224.45,-4.83,1.14,-4.83,1.14,-1.15,-1.33,-1.15,-5.98,-5.98,-5.97
226.70,-4.79,1.19,-4.80,1.18,-1.18,-1.36,-1.20,-5.98,-5.98,-5.98
228.96,-4.76,1.22,-4.76,1.22,-1.22,-1.39,-1.24,-5.98,-5.98,-5.99
231.25,-4.73,1.26,-4.73,1.27,-1.26,-1.41,-1.28,-5.99,-5.99,-5.99
233.57,-4.70,1.31,-4.70,1.31,-1.31,-1.44,-1.32,-6.01,-6.01,-6.01
235.90,-4.66,1.35,-4.67,1.35,-1.35,-1.46,-1.35,-6.01,-6.02,-6.02
238.26,-4.64,1.39,-4.64,1.39,-1.39,-1.48,-1.39,-6.03,-6.03,-6.03
240.64,-4.61,1.42,-4.61,1.43,-1.43,-1.50,-1.42,-6.04,-6.04,-6.04
243.05,-4.59,1.46,-4.59,1.46,-1.46,-1.52,-1.45,-6.05,-6.05,-6.05
245.48,-4.57,1.50,-4.57,1.50,-1.49,-1.53,-1.48,-6.06,-6.06,-6.07
247.93,-4.55,1.52,-4.56,1.52,-1.51,-1.55,-1.51,-6.07,-6.07,-6.07
250.41,-4.54,1.55,-4.55,1.54,-1.53,-1.56,-1.53,-6.07,-6.08,-6.09
252.92,-4.55,1.54,-4.55,1.55,-1.54,-1.57,-1.56,-6.10,-6.09,-6.09
255.45,-4.55,1.56,-4.56,1.55,-1.55,-1.58,-1.58,-6.11,-6.11,-6.11
258.00,-4.56,1.55,-4.56,1.56,-1.56,-1.59,-1.59,-6.12,-6.12,-6.11
260.58,-4.56,1.56,-4.56,1.56,-1.57,-1.60,-1.61,-6.13,-6.13,-6.13
263.19,-4.56,1.57,-4.56,1.57,-1.57,-1.61,-1.63,-6.14,-6.14,-6.13
265.82,-4.56,1.57,-4.56,1.58,-1.58,-1.61,-1.64,-6.14,-6.14,-6.14
268.48,-4.56,1.59,-4.56,1.58,-1.58,-1.62,-1.65,-6.15,-6.15,-6.15
271.16,-4.56,1.59,-4.56,1.59,-1.59,-1.62,-1.66,-6.16,-6.16,-6.15
273.87,-4.56,1.60,-4.56,1.60,-1.60,-1.63,-1.67,-6.17,-6.17,-6.17
276.61,-4.56,1.62,-4.56,1.61,-1.61,-1.63,-1.67,-6.18,-6.18,-6.18
279.38,-4.56,1.62,-4.56,1.62,-1.62,-1.64,-1.68,-6.19,-6.19,-6.18
282.17,-4.56,1.63,-4.56,1.64,-1.64,-1.64,-1.69,-6.20,-6.20,-6.20
284.99,-4.56,1.65,-4.56,1.65,-1.65,-1.64,-1.69,-6.21,-6.21,-6.21
287.84,-4.56,1.66,-4.56,1.66,-1.66,-1.65,-1.69,-6.22,-6.22,-6.22
290.72,-4.56,1.67,-4.56,1.67,-1.67,-1.65,-1.70,-6.24,-6.24,-6.24
293.63,-4.56,1.69,-4.56,1.69,-1.69,-1.65,-1.70,-6.25,-6.25,-6.25
296.57,-4.56,1.70,-4.56,1.70,-1.70,-1.66,-1.71,-6.26,-6.26,-6.26
299.53,-4.56,1.71,-4.56,1.71,-1.71,-1.66,-1.71,-6.28,-6.28,-6.28
302.53,-4.56,1.72,-4.56,1.72,-1.73,-1.66,-1.71,-6.29,-6.29,-6.29
305.55,-4.56,1.74,-4.56,1.74,-1.74,-1.67,-1.72,-6.30,-6.30,-6.30
308.61,-4.56,1.75,-4.56,1.75,-1.75,-1.67,-1.72,-6.31,-6.31,-6.31
311.69,-4.56,1.76,-4.56,1.76,-1.76,-1.68,-1.73,-6.32,-6.32,-6.32
314.81,-4.56,1.77,-4.56,1.77,-1.77,-1.68,-1.73,-6.34,-6.34,-6.34
317.96,-4.56,1.79,-4.56,1.78,-1.78,-1.69,-1.74,-6.35,-6.35,-6.35
321.14,-4.56,1.79,-4.56,1.79,-1.79,-1.70,-1.75,-6.36,-6.36,-6.35
324.35,-4.56,1.80,-4.56,1.80,-1.80,-1.70,-1.75,-6.36,-6.36,-6.36
327.59,-4.56,1.80,-4.56,1.80,-1.81,-1.71,-1.76,-6.37,-6.37,-6.36
330.87,-4.56,1.81,-4.56,1.81,-1.81,-1.72,-1.77,-6.37,-6.37,-6.38
334.18,-4.56,1.82,-4.56,1.82,-1.81,-1.73,-1.79,-6.37,-6.37,-6.38
337.52,-4.56,1.82,-4.57,1.82,-1.81,-1.74,-1.80,-6.37,-6.38,-6.38
340.90,-4.57,1.82,-4.57,1.81,-1.81,-1.75,-1.81,-6.38,-6.38,-6.39
344.30,-4.58,1.81,-4.58,1.81,-1.81,-1.76,-1.83,-6.39,-6.39,-6.39
347.75,-4.59,1.80,-4.59,1.81,-1.81,-1.78,-1.84,-6.40,-6.40,-6.39
351.23,-4.59,1.80,-4.59,1.81,-1.81,-1.79,-1.86,-6.40,-6.40,-6.40
354.74,-4.58,1.81,-4.59,1.81,-1.82,-1.80,-1.88,-6.40,-6.40,-6.40
358.28,-4.57,1.83,-4.58,1.82,-1.83,-1.82,-1.90,-6.40,-6.40,-6.40
361.87,-4.56,1.84,-4.56,1.84,-1.85,-1.83,-1.93,-6.41,-6.40,-6.40
365.49,-4.53,1.87,-4.54,1.87,-1.87,-1.85,-1.95,-6.40,-6.40,-6.40
369.14,-4.50,1.90,-4.50,1.89,-1.90,-1.87,-1.97,-6.40,-6.40,-6.40
372.83,-4.47,1.92,-4.47,1.93,-1.93,-1.89,-2.00,-6.40,-6.40,-6.39
376.56,-4.43,1.96,-4.44,1.96,-1.96,-1.91,-2.03,-6.40,-6.40,-6.40
380.33,-4.40,2.00,-4.40,2.00,-2.00,-1.93,-2.06,-6.40,-6.40,-6.41
384.13,-4.37,2.03,-4.37,2.04,-2.03,-1.95,-2.09,-6.41,-6.40,-6.41
387.97,-4.33,2.08,-4.34,2.07,-2.07,-1.97,-2.12,-6.40,-6.41,-6.41
391.85,-4.30,2.11,-4.31,2.10,-2.10,-1.99,-2.15,-6.41,-6.41,-6.41
395.77,-4.28,2.13,-4.28,2.14,-2.13,-2.02,-2.19,-6.42,-6.41,-6.41
399.73,-4.25,2.17,-4.26,2.16,-2.16,-2.04,-2.22,-6.42,-6.42,-6.42
