frequency,raw,error,smoothed,error_smoothed,equalization,parametric_eq,fixed_band_eq,equalized_raw,equalized_smoothed,target
20.00,-2.74,1.49,-2.74,1.50,-1.50,-1.41,-0.73,-4.23,-4.23,-4.23
20.20,-2.72,1.51,-2.72,1.51,-1.51,-1.43,-0.75,-4.23,-4.23,-4.23
20.40,-2.70,1.52,-2.70,1.52,-1.52,-1.44,-0.77,-4.22,-4.22,-4.22
20.61,-2.68,1.53,-2.68,1.53,-1.53,-1.45,-0.79,-4.21,-4.21,-4.21
20.81,-2.67,1.54,-2.66,1.54,-1.55,-1.46,-0.82,-4.21,-4.21,-4.21
21.02,-2.65,1.55,-2.65,1.56,-1.56,-1.48,-0.84,-4.21,-4.21,-4.20
21.23,-2.63,1.57,-2.63,1.57,-1.57,-1.49,-0.87,-4.20,-4.20,-4.20
21.44,-2.61,1.58,-2.61,1.58,-1.58,-1.50,-0.89,-4.19,-4.19,-4.19
21.66,-2.59,1.59,-2.59,1.60,-1.60,-1.51,-0.92,-4.18,-4.18,-4.18
21.87,-2.57,1.61,-2.57,1.61,-1.61,-1.53,-0.95,-4.18,-4.18,-4.18
22.09,-2.55,1.62,-2.55,1.62,-1.62,-1.54,-0.97,-4.17,-4.17,-4.17
22.31,-2.53,1.63,-2.53,1.64,-1.63,-1.55,-1.00,-4.16,-4.16,-4.16
22.54,-2.52,1.64,-2.51,1.64,-1.65,-1.56,-1.03,-4.16,-4.16,-4.16
22.76,-2.50,1.65,-2.50,1.65,-1.66,-1.57,-1.06,-4.15,-4.15,-4.15
22.99,-2.48,1.66,-2.48,1.66,-1.67,-1.58,-1.09,-4.14,-4.14,-4.14
23.22,-2.46,1.67,-2.46,1.68,-1.67,-1.60,-1.12,-4.13,-4.13,-4.13
23.45,-2.44,1.68,-2.44,1.68,-1.68,-1.61,-1.16,-4.12,-4.12,-4.12
23.69,-2.42,1.69,-2.42,1.69,-1.69,-1.62,-1.19,-4.11,-4.11,-4.11
23.92,-2.41,1.69,-2.40,1.70,-1.70,-1.63,-1.22,-4.10,-4.10,-4.10
24.16,-2.39,1.70,-2.39,1.70,-1.71,-1.64,-1.25,-4.09,-4.09,-4.09
24.40,-2.37,1.71,-2.37,1.71,-1.71,-1.65,-1.29,-4.08,-4.08,-4.08
24.65,-2.35,1.71,-2.35,1.72,-1.72,-1.66,-1.32,-4.07,-4.07,-4.06
24.89,-2.33,1.72,-2.33,1.72,-1.73,-1.67,-1.36,-4.05,-4.05,-4.05
25.14,-2.31,1.73,-2.31,1.74,-1.73,-1.68,-1.39,-4.04,-4.04,-4.04
25.39,-2.29,1.74,-2.29,1.74,-1.74,-1.69,-1.43,-4.03,-4.03,-4.03
25.65,-2.27,1.75,-2.27,1.75,-1.75,-1.70,-1.47,-4.01,-4.02,-4.02
25.91,-2.26,1.74,-2.25,1.75,-1.75,-1.71,-1.50,-4.01,-4.01,-4.00
26.16,-2.24,1.75,-2.24,1.76,-1.76,-1.72,-1.54,-4.00,-4.00,-3.99
26.43,-2.22,1.76,-2.22,1.76,-1.76,-1.73,-1.57,-3.98,-3.98,-3.98
26.69,-2.20,1.77,-2.20,1.77,-1.77,-1.74,-1.61,-3.97,-3.97,-3.97
26.96,-2.18,1.77,-2.18,1.78,-1.77,-1.75,-1.64,-3.95,-3.95,-3.95
27.23,-2.16,1.78,-2.16,1.78,-1.78,-1.76,-1.68,-3.94,-3.94,-3.94
27.50,-2.14,1.78,-2.14,1.78,-1.78,-1.77,-1.71,-3.92,-3.92,-3.92
27.77,-2.13,1.78,-2.12,1.79,-1.79,-1.78,-1.74,-3.91,-3.91,-3.91
28.05,-2.11,1.78,-2.11,1.79,-1.79,-1.79,-1.77,-3.90,-3.89,-3.89
28.33,-2.09,1.79,-2.09,1.79,-1.79,-1.80,-1.80,-3.88,-3.88,-3.88
28.62,-2.07,1.79,-2.07,1.79,-1.79,-1.80,-1.83,-3.86,-3.86,-3.86
28.90,-2.06,1.79,-2.05,1.80,-1.80,-1.81,-1.86,-3.85,-3.85,-3.85
29.19,-2.04,1.79,-2.04,1.80,-1.80,-1.82,-1.88,-3.84,-3.83,-3.83
29.48,-2.02,1.80,-2.02,1.80,-1.80,-1.83,-1.90,-3.82,-3.82,-3.82
29.78,-2.00,1.80,-2.00,1.81,-1.81,-1.84,-1.93,-3.80,-3.80,-3.80
30.08,-1.98,1.81,-1.98,1.81,-1.81,-1.84,-1.94,-3.79,-3.79,-3.79
30.38,-1.96,1.81,-1.96,1.82,-1.82,-1.85,-1.96,-3.77,-3.77,-3.77
30.68,-1.94,1.82,-1.94,1.82,-1.82,-1.86,-1.97,-3.76,-3.76,-3.76
30.99,-1.92,1.82,-1.92,1.83,-1.83,-1.86,-1.99,-3.74,-3.74,-3.74
31.30,-1.90,1.83,-1.90,1.83,-1.83,-1.87,-1.99,-3.73,-3.73,-3.73
31.61,-1.88,1.83,-1.88,1.84,-1.83,-1.88,-2.00,-3.71,-3.71,-3.71
31.93,-1.86,1.84,-1.86,1.84,-1.84,-1.88,-2.01,-3.69,-3.70,-3.70
32.24,-1.85,1.83,-1.85,1.84,-1.84,-1.89,-2.01,-3.68,-3.68,-3.68
32.57,-1.84,1.83,-1.83,1.84,-1.83,-1.89,-2.01,-3.67,-3.67,-3.67
32.89,-1.82,1.83,-1.82,1.83,-1.83,-1.90,-2.01,-3.65,-3.66,-3.65
33.22,-1.81,1.83,-1.81,1.83,-1.83,-1.90,-2.00,-3.64,-3.64,-3.64
33.55,-1.80,1.82,-1.79,1.83,-1.83,-1.91,-2.00,-3.63,-3.63,-3.62
33.89,-1.78,1.83,-1.78,1.83,-1.83,-1.91,-1.99,-3.61,-3.61,-3.61
34.23,-1.77,1.82,-1.76,1.83,-1.83,-1.92,-1.98,-3.60,-3.60,-3.59
34.57,-1.75,1.83,-1.75,1.84,-1.83,-1.92,-1.97,-3.58,-3.58,-3.58
34.92,-1.73,1.84,-1.73,1.84,-1.83,-1.93,-1.96,-3.56,-3.56,-3.57
35.27,-1.72,1.83,-1.72,1.84,-1.83,-1.93,-1.94,-3.55,-3.55,-3.55
35.62,-1.72,1.82,-1.71,1.83,-1.83,-1.93,-1.93,-3.54,-3.54,-3.54
35.97,-1.71,1.82,-1.71,1.82,-1.82,-1.94,-1.92,-3.53,-3.53,-3.53
36.33,-1.71,1.81,-1.70,1.82,-1.82,-1.94,-1.90,-3.52,-3.52,-3.52
36.70,-1.70,1.81,-1.70,1.81,-1.81,-1.94,-1.89,-3.51,-3.51,-3.51
37.06,-1.70,1.80,-1.70,1.80,-1.80,-1.94,-1.87,-3.50,-3.50,-3.50
37.43,-1.70,1.79,-1.69,1.80,-1.80,-1.95,-1.86,-3.49,-3.49,-3.49
37.81,-1.69,1.79,-1.69,1.79,-1.79,-1.95,-1.84,-3.48,-3.48,-3.48
38.19,-1.69,1.78,-1.68,1.79,-1.79,-1.95,-1.83,-3.47,-3.47,-3.47
38.57,-1.68,1.78,-1.68,1.78,-1.78,-1.95,-1.81,-3.46,-3.46,-3.46
38.95,-1.68,1.77,-1.67,1.78,-1.78,-1.95,-1.80,-3.46,-3.45,-3.45
39.34,-1.67,1.77,-1.67,1.78,-1.78,-1.95,-1.79,-3.45,-3.45,-3.44
39.74,-1.66,1.77,-1.66,1.78,-1.78,-1.96,-1.78,-3.44,-3.44,-3.43
40.14,-1.65,1.78,-1.65,1.78,-1.78,-1.96,-1.76,-3.43,-3.43,-3.43
40.54,-1.64,1.78,-1.64,1.78,-1.78,-1.96,-1.75,-3.42,-3.42,-3.42
40.94,-1.63,1.78,-1.63,1.79,-1.78,-1.96,-1.75,-3.41,-3.41,-3.41
41.35,-1.62,1.78,-1.62,1.78,-1.78,-1.96,-1.74,-3.40,-3.40,-3.40
41.76,-1.61,1.78,-1.61,1.78,-1.78,-1.96,-1.73,-3.38,-3.39,-3.39
42.18,-1.61,1.77,-1.61,1.77,-1.77,-1.96,-1.73,-3.38,-3.38,-3.38
42.60,-1.61,1.76,-1.61,1.76,-1.77,-1.96,-1.72,-3.37,-3.37,-3.37
43.03,-1.61,1.75,-1.60,1.76,-1.76,-1.95,-1.72,-3.37,-3.36,-3.36
43.46,-1.60,1.75,-1.60,1.75,-1.76,-1.95,-1.72,-3.35,-3.35,-3.35
43.90,-1.59,1.75,-1.59,1.75,-1.75,-1.95,-1.72,-3.34,-3.34,-3.34
44.33,-1.58,1.74,-1.58,1.75,-1.75,-1.95,-1.72,-3.33,-3.33,-3.32
44.78,-1.57,1.74,-1.56,1.75,-1.75,-1.95,-1.72,-3.32,-3.31,-3.31
45.23,-1.55,1.75,-1.55,1.75,-1.75,-1.95,-1.72,-3.30,-3.30,-3.30
45.68,-1.53,1.75,-1.53,1.76,-1.75,-1.94,-1.73,-3.28,-3.28,-3.28
46.13,-1.51,1.76,-1.51,1.76,-1.76,-1.94,-1.74,-3.27,-3.27,-3.27
46.60,-1.49,1.76,-1.49,1.77,-1.77,-1.94,-1.74,-3.25,-3.25,-3.25
47.06,-1.47,1.77,-1.46,1.77,-1.77,-1.94,-1.75,-3.24,-3.24,-3.24
47.53,-1.44,1.78,-1.44,1.78,-1.78,-1.93,-1.76,-3.22,-3.23,-3.22
48.01,-1.42,1.79,-1.41,1.79,-1.80,-1.93,-1.77,-3.21,-3.21,-3.21
48.49,-1.39,1.80,-1.39,1.81,-1.81,-1.93,-1.79,-3.19,-3.19,-3.19
48.97,-1.36,1.82,-1.36,1.82,-1.82,-1.92,-1.80,-3.18,-3.18,-3.18
49.46,-1.33,1.83,-1.33,1.84,-1.84,-1.92,-1.81,-3.16,-3.16,-3.16
49.96,-1.30,1.85,-1.30,1.85,-1.85,-1.91,-1.83,-3.15,-3.15,-3.15
50.46,-1.28,1.86,-1.27,1.86,-1.87,-1.91,-1.85,-3.14,-3.14,-3.14
50.96,-1.25,1.87,-1.25,1.88,-1.88,-1.91,-1.86,-3.13,-3.13,-3.12
51.47,-1.22,1.89,-1.22,1.89,-1.89,-1.90,-1.88,-3.11,-3.11,-3.11
51.99,-1.19,1.91,-1.19,1.91,-1.91,-1.90,-1.90,-3.09,-3.10,-3.10
52.51,-1.17,1.92,-1.17,1.92,-1.92,-1.89,-1.92,-3.09,-3.09,-3.09
53.03,-1.15,1.93,-1.15,1.93,-1.93,-1.89,-1.93,-3.08,-3.08,-3.08
53.56,-1.13,1.93,-1.13,1.94,-1.94,-1.88,-1.95,-3.07,-3.06,-3.06
54.10,-1.11,1.94,-1.11,1.95,-1.95,-1.88,-1.97,-3.05,-3.05,-3.05
54.64,-1.09,1.95,-1.09,1.95,-1.95,-1.87,-1.99,-3.04,-3.05,-3.04
55.18,-1.08,1.96,-1.08,1.96,-1.96,-1.86,-2.00,-3.04,-3.04,-3.04
55.74,-1.07,1.96,-1.06,1.97,-1.97,-1.86,-2.02,-3.03,-3.03,-3.03
56.29,-1.05,1.97,-1.05,1.97,-1.97,-1.85,-2.04,-3.02,-3.02,-3.02
56.86,-1.04,1.98,-1.04,1.98,-1.98,-1.85,-2.05,-3.02,-3.02,-3.02
57.42,-1.03,1.98,-1.03,1.99,-1.99,-1.84,-2.06,-3.01,-3.01,-3.01
58.00,-1.02,1.99,-1.02,1.99,-1.99,-1.83,-2.07,-3.01,-3.01,-3.01
58.58,-1.01,1.99,-1.01,2.00,-2.00,-1.83,-2.08,-3.01,-3.01,-3.00
59.16,-1.00,2.00,-1.00,2.01,-2.00,-1.82,-2.09,-3.00,-3.00,-3.00
59.76,-0.99,2.01,-0.99,2.01,-2.01,-1.81,-2.10,-2.99,-3.00,-3.00
60.35,-0.99,2.01,-0.99,2.01,-2.01,-1.80,-2.10,-2.99,-2.99,-3.00
60.96,-0.99,2.01,-0.99,2.01,-2.01,-1.80,-2.11,-2.99,-3.00,-3.00
61.57,-1.00,2.00,-0.99,2.01,-2.01,-1.79,-2.11,-3.00,-3.00,-3.00
62.18,-1.00,2.00,-1.00,2.00,-2.00,-1.78,-2.10,-3.00,-3.00,-3.00
62.80,-1.01,1.99,-1.01,2.00,-2.00,-1.77,-2.10,-3.01,-3.01,-3.00
63.43,-1.01,1.99,-1.01,1.99,-2.00,-1.77,-2.09,-3.00,-3.01,-3.00
64.07,-1.02,1.99,-1.01,1.99,-1.99,-1.76,-2.08,-3.01,-3.01,-3.01
64.71,-1.02,1.99,-1.02,1.99,-1.99,-1.75,-2.07,-3.01,-3.01,-3.01
65.35,-1.02,1.99,-1.02,1.99,-1.99,-1.74,-2.06,-3.01,-3.01,-3.01
66.01,-1.02,1.99,-1.02,1.99,-2.00,-1.74,-2.04,-3.01,-3.01,-3.01
66.67,-1.02,1.99,-1.02,1.99,-2.00,-1.73,-2.03,-3.02,-3.02,-3.01
67.33,-1.02,1.99,-1.01,2.00,-2.01,-1.72,-2.01,-3.02,-3.02,-3.01
68.01,-1.01,2.01,-1.01,2.01,-2.01,-1.71,-1.99,-3.02,-3.02,-3.02
68.69,-1.00,2.02,-1.00,2.02,-2.02,-1.70,-1.97,-3.02,-3.02,-3.02
69.37,-1.00,2.02,-1.00,2.03,-2.02,-1.69,-1.94,-3.02,-3.02,-3.02
70.07,-1.00,2.02,-0.99,2.03,-2.03,-1.69,-1.92,-3.03,-3.02,-3.02
70.77,-0.99,2.03,-0.99,2.03,-2.03,-1.68,-1.89,-3.02,-3.02,-3.02
71.48,-0.99,2.03,-0.99,2.03,-2.03,-1.67,-1.86,-3.01,-3.02,-3.02
72.19,-1.00,2.02,-0.99,2.02,-2.02,-1.66,-1.84,-3.02,-3.01,-3.02
72.91,-1.01,2.00,-1.01,2.01,-2.01,-1.65,-1.81,-3.01,-3.01,-3.01
73.64,-1.02,1.99,-1.02,1.99,-1.99,-1.64,-1.78,-3.00,-3.01,-3.01
74.38,-1.04,1.96,-1.04,1.97,-1.97,-1.63,-1.75,-3.00,-3.00,-3.00
75.12,-1.06,1.94,-1.06,1.94,-1.94,-1.63,-1.72,-3.00,-3.00,-3.00
75.87,-1.09,1.90,-1.08,1.91,-1.91,-1.62,-1.69,-3.00,-2.99,-2.99
76.63,-1.11,1.87,-1.11,1.87,-1.88,-1.61,-1.66,-2.98,-2.98,-2.98
77.40,-1.13,1.84,-1.13,1.84,-1.84,-1.60,-1.63,-2.97,-2.97,-2.97
78.17,-1.16,1.80,-1.15,1.81,-1.81,-1.59,-1.61,-2.96,-2.96,-2.96
78.95,-1.18,1.77,-1.18,1.77,-1.77,-1.58,-1.58,-2.95,-2.95,-2.95
79.74,-1.21,1.73,-1.21,1.73,-1.73,-1.57,-1.55,-2.94,-2.94,-2.94
80.54,-1.24,1.69,-1.23,1.70,-1.70,-1.57,-1.52,-2.93,-2.93,-2.93
81.35,-1.26,1.66,-1.26,1.66,-1.66,-1.56,-1.50,-2.92,-2.92,-2.92
82.16,-1.28,1.63,-1.28,1.63,-1.63,-1.55,-1.47,-2.91,-2.91,-2.91
82.98,-1.31,1.59,-1.30,1.60,-1.60,-1.54,-1.45,-2.91,-2.90,-2.90
83.81,-1.33,1.56,-1.32,1.57,-1.57,-1.53,-1.42,-2.90,-2.89,-2.89
84.65,-1.34,1.54,-1.34,1.54,-1.55,-1.52,-1.40,-2.88,-2.89,-2.88
85.50,-1.35,1.52,-1.35,1.52,-1.53,-1.52,-1.38,-2.87,-2.87,-2.87
86.35,-1.36,1.50,-1.35,1.51,-1.51,-1.51,-1.36,-2.87,-2.86,-2.86
87.22,-1.36,1.49,-1.36,1.49,-1.50,-1.50,-1.34,-2.85,-2.85,-2.85
88.09,-1.36,1.48,-1.35,1.48,-1.48,-1.49,-1.32,-2.84,-2.84,-2.84
88.97,-1.35,1.47,-1.35,1.48,-1.48,-1.48,-1.30,-2.82,-2.82,-2.82
89.86,-1.34,1.47,-1.34,1.47,-1.47,-1.48,-1.29,-2.80,-2.81,-2.81
90.76,-1.34,1.46,-1.34,1.46,-1.46,-1.47,-1.27,-2.79,-2.79,-2.80
91.66,-1.34,1.44,-1.34,1.45,-1.45,-1.46,-1.25,-2.78,-2.78,-2.78
92.58,-1.34,1.43,-1.34,1.43,-1.43,-1.45,-1.24,-2.77,-2.77,-2.77
93.51,-1.34,1.42,-1.34,1.42,-1.42,-1.44,-1.23,-2.76,-2.76,-2.76
94.44,-1.34,1.40,-1.34,1.41,-1.41,-1.44,-1.22,-2.74,-2.74,-2.74
95.39,-1.34,1.39,-1.34,1.39,-1.39,-1.43,-1.20,-2.73,-2.73,-2.73
96.34,-1.34,1.37,-1.34,1.38,-1.38,-1.42,-1.19,-2.72,-2.72,-2.71
97.30,-1.34,1.36,-1.34,1.37,-1.36,-1.42,-1.18,-2.70,-2.70,-2.70
98.28,-1.34,1.35,-1.34,1.35,-1.35,-1.41,-1.18,-2.69,-2.69,-2.69
99.26,-1.34,1.34,-1.34,1.34,-1.34,-1.40,-1.17,-2.68,-2.68,-2.68
100.25,-1.34,1.32,-1.34,1.33,-1.33,-1.39,-1.16,-2.66,-2.66,-2.66
101.25,-1.34,1.31,-1.34,1.32,-1.32,-1.39,-1.15,-2.65,-2.65,-2.65
102.27,-1.34,1.30,-1.34,1.31,-1.31,-1.38,-1.15,-2.64,-2.64,-2.64
103.29,-1.34,1.30,-1.34,1.30,-1.30,-1.38,-1.14,-2.64,-2.64,-2.64
104.32,-1.34,1.29,-1.34,1.29,-1.29,-1.37,-1.14,-2.63,-2.63,-2.63
105.37,-1.34,1.28,-1.34,1.29,-1.29,-1.36,-1.14,-2.63,-2.63,-2.62
106.42,-1.34,1.28,-1.34,1.28,-1.29,-1.36,-1.13,-2.63,-2.63,-2.62
107.48,-1.34,1.28,-1.33,1.29,-1.29,-1.35,-1.13,-2.63,-2.63,-2.62
108.56,-1.33,1.29,-1.33,1.29,-1.29,-1.35,-1.13,-2.62,-2.62,-2.62
109.64,-1.33,1.29,-1.32,1.30,-1.30,-1.34,-1.13,-2.62,-2.62,-2.62
110.74,-1.32,1.30,-1.32,1.30,-1.30,-1.33,-1.12,-2.62,-2.62,-2.62
111.85,-1.32,1.30,-1.32,1.30,-1.30,-1.33,-1.12,-2.62,-2.62,-2.62
112.97,-1.33,1.30,-1.33,1.30,-1.30,-1.32,-1.12,-2.62,-2.63,-2.63
114.10,-1.35,1.28,-1.34,1.29,-1.29,-1.32,-1.12,-2.63,-2.63,-2.63
115.24,-1.37,1.27,-1.36,1.28,-1.27,-1.32,-1.12,-2.64,-2.64,-2.64
116.39,-1.38,1.26,-1.38,1.26,-1.26,-1.31,-1.12,-2.63,-2.64,-2.64
117.55,-1.41,1.24,-1.41,1.24,-1.23,-1.31,-1.12,-2.64,-2.64,-2.65
118.73,-1.45,1.20,-1.45,1.21,-1.21,-1.30,-1.12,-2.65,-2.65,-2.65
119.92,-1.49,1.17,-1.49,1.17,-1.18,-1.30,-1.12,-2.66,-2.66,-2.66
121.12,-1.53,1.13,-1.52,1.14,-1.14,-1.30,-1.12,-2.67,-2.66,-2.66
122.33,-1.55,1.11,-1.55,1.11,-1.11,-1.29,-1.12,-2.66,-2.66,-2.66
123.55,-1.58,1.08,-1.58,1.08,-1.08,-1.29,-1.12,-2.66,-2.66,-2.66
124.79,-1.61,1.05,-1.61,1.05,-1.05,-1.29,-1.12,-2.66,-2.66,-2.66
126.03,-1.65,1.01,-1.64,1.02,-1.03,-1.28,-1.12,-2.67,-2.66,-2.66
127.29,-1.66,1.00,-1.66,1.00,-1.01,-1.28,-1.12,-2.66,-2.67,-2.66
128.57,-1.68,0.98,-1.68,0.98,-0.99,-1.28,-1.11,-2.67,-2.67,-2.66
129.85,-1.69,0.97,-1.68,0.98,-0.98,-1.27,-1.11,-2.67,-2.67,-2.66
131.15,-1.69,0.97,-1.68,0.98,-0.98,-1.27,-1.11,-2.67,-2.66,-2.66
132.46,-1.68,0.98,-1.68,0.98,-0.98,-1.27,-1.11,-2.65,-2.65,-2.66
133.79,-1.67,0.98,-1.67,0.98,-0.98,-1.27,-1.11,-2.64,-2.65,-2.65
135.12,-1.67,0.98,-1.67,0.99,-0.98,-1.27,-1.11,-2.65,-2.65,-2.65
136.48,-1.67,0.98,-1.67,0.98,-0.98,-1.27,-1.11,-2.65,-2.65,-2.65
137.84,-1.67,0.98,-1.67,0.99,-0.98,-1.27,-1.11,-2.65,-2.65,-2.65
139.22,-1.67,0.98,-1.67,0.98,-0.98,-1.26,-1.11,-2.65,-2.65,-2.65
140.61,-1.67,0.98,-1.67,0.98,-0.98,-1.26,-1.11,-2.65,-2.65,-2.65
142.02,-1.67,0.97,-1.67,0.98,-0.98,-1.26,-1.11,-2.65,-2.65,-2.64
143.44,-1.67,0.97,-1.67,0.98,-0.98,-1.26,-1.11,-2.65,-2.65,-2.64
144.87,-1.67,0.97,-1.67,0.98,-0.98,-1.26,-1.11,-2.65,-2.65,-2.64
146.32,-1.67,0.98,-1.67,0.98,-0.98,-1.26,-1.11,-2.65,-2.65,-2.65
147.78,-1.67,0.98,-1.67,0.98,-0.98,-1.27,-1.11,-2.65,-2.65,-2.65
149.26,-1.67,0.98,-1.67,0.98,-0.98,-1.27,-1.11,-2.65,-2.65,-2.65
150.75,-1.67,0.98,-1.67,0.98,-0.99,-1.27,-1.11,-2.65,-2.65,-2.65
152.26,-1.67,0.98,-1.67,0.99,-0.99,-1.27,-1.12,-2.65,-2.65,-2.65
153.78,-1.67,0.99,-1.67,0.99,-0.99,-1.27,-1.12,-2.66,-2.66,-2.66
155.32,-1.67,0.99,-1.67,0.99,-0.99,-1.27,-1.13,-2.66,-2.66,-2.66
156.88,-1.67,0.99,-1.67,1.00,-0.99,-1.27,-1.13,-2.66,-2.66,-2.66
158.44,-1.67,0.99,-1.67,1.00,-1.00,-1.28,-1.14,-2.66,-2.66,-2.66
160.03,-1.67,1.00,-1.67,1.00,-1.00,-1.28,-1.14,-2.67,-2.67,-2.67
161.63,-1.67,1.00,-1.67,1.01,-1.01,-1.28,-1.15,-2.67,-2.67,-2.67
163.24,-1.67,1.01,-1.67,1.01,-1.01,-1.28,-1.16,-2.68,-2.68,-2.68
164.88,-1.67,1.01,-1.67,1.02,-1.02,-1.29,-1.17,-2.69,-2.69,-2.68
166.53,-1.67,1.02,-1.67,1.02,-1.02,-1.29,-1.18,-2.69,-2.69,-2.69
168.19,-1.67,1.03,-1.67,1.03,-1.03,-1.29,-1.19,-2.70,-2.69,-2.70
169.87,-1.67,1.04,-1.67,1.04,-1.03,-1.30,-1.20,-2.70,-2.70,-2.71
171.57,-1.67,1.05,-1.67,1.05,-1.04,-1.30,-1.21,-2.71,-2.71,-2.72
173.29,-1.68,1.05,-1.68,1.05,-1.05,-1.31,-1.22,-2.73,-2.73,-2.73
175.02,-1.69,1.05,-1.68,1.06,-1.07,-1.31,-1.24,-2.75,-2.75,-2.74
176.77,-1.69,1.07,-1.68,1.08,-1.09,-1.32,-1.25,-2.78,-2.77,-2.76
178.54,-1.67,1.10,-1.67,1.10,-1.11,-1.32,-1.27,-2.78,-2.79,-2.77
180.32,-1.66,1.13,-1.65,1.14,-1.15,-1.33,-1.29,-2.80,-2.80,-2.79
182.13,-1.63,1.17,-1.62,1.18,-1.18,-1.33,-1.31,-2.81,-2.81,-2.80
183.95,-1.59,1.23,-1.60,1.22,-1.22,-1.34,-1.32,-2.81,-2.82,-2.82
185.79,-1.57,1.27,-1.57,1.27,-1.27,-1.34,-1.34,-2.83,-2.83,-2.84
187.65,-1.55,1.30,-1.54,1.31,-1.31,-1.35,-1.36,-2.85,-2.85,-2.85
189.52,-1.52,1.35,-1.52,1.35,-1.34,-1.36,-1.39,-2.86,-2.87,-2.87
191.42,-1.51,1.38,-1.51,1.38,-1.38,-1.36,-1.41,-2.88,-2.88,-2.89
193.33,-1.50,1.41,-1.50,1.41,-1.41,-1.37,-1.43,-2.90,-2.90,-2.91
195.27,-1.50,1.42,-1.50,1.42,-1.43,-1.38,-1.45,-2.92,-2.93,-2.92
197.22,-1.51,1.43,-1.50,1.44,-1.45,-1.39,-1.48,-2.95,-2.95,-2.94
199.19,-1.51,1.45,-1.51,1.45,-1.46,-1.40,-1.50,-2.96,-2.97,-2.96
201.18,-1.52,1.47,-1.52,1.47,-1.46,-1.40,-1.53,-2.98,-2.98,-2.99
203.19,-1.54,1.47,-1.53,1.48,-1.46,-1.41,-1.55,-3.00,-3.00,-3.01
205.23,-1.56,1.47,-1.56,1.47,-1.46,-1.42,-1.58,-3.02,-3.02,-3.03
207.28,-1.59,1.46,-1.59,1.47,-1.46,-1.43,-1.61,-3.05,-3.05,-3.05
209.35,-1.62,1.45,-1.62,1.45,-1.46,-1.44,-1.63,-3.08,-3.08,-3.07
211.44,-1.65,1.45,-1.65,1.45,-1.46,-1.45,-1.66,-3.11,-3.11,-3.10
213.56,-1.68,1.44,-1.67,1.46,-1.47,-1.46,-1.68,-3.15,-3.14,-3.12
215.69,-1.68,1.47,-1.68,1.47,-1.48,-1.47,-1.71,-3.16,-3.16,-3.15
217.85,-1.68,1.50,-1.68,1.50,-1.50,-1.48,-1.74,-3.18,-3.18,-3.18
220.03,-1.68,1.52,-1.67,1.53,-1.52,-1.49,-1.76,-3.20,-3.20,-3.20
222.23,-1.67,1.55,-1.67,1.56,-1.55,-1.50,-1.79,-3.22,-3.22,-3.22
224.45,-1.67,1.58,-1.67,1.58,-1.57,-1.52,-1.81,-3.24,-3.24,-3.25
226.70,-1.67,1.60,-1.67,1.61,-1.60,-1.53,-1.83,-3.27,-3.27,-3.27
228.96,-1.67,1.62,-1.67,1.62,-1.62,-1.54,-1.85,-3.29,-3.29,-3.29
231.25,-1.67,1.64,-1.67,1.64,-1.64,-1.55,-1.87,-3.31,-3.31,-3.31
233.57,-1.67,1.65,-1.67,1.66,-1.66,-1.57,-1.89,-3.32,-3.32,-3.32
235.90,-1.67,1.67,-1.67,1.67,-1.67,-1.58,-1.91,-3.34,-3.34,-3.34
238.26,-1.67,1.68,-1.67,1.68,-1.68,-1.60,-1.93,-3.35,-3.35,-3.35
240.64,-1.67,1.69,-1.67,1.70,-1.70,-1.61,-1.94,-3.36,-3.36,-3.36
243.05,-1.67,1.70,-1.67,1.70,-1.71,-1.63,-1.96,-3.37,-3.37,-3.37
245.48,-1.67,1.71,-1.67,1.71,-1.72,-1.64,-1.97,-3.38,-3.38,-3.38
247.93,-1.67,1.72,-1.67,1.72,-1.73,-1.66,-1.98,-3.39,-3.39,-3.39
250.41,-1.67,1.73,-1.67,1.73,-1.73,-1.68,-1.98,-3.40,-3.40,-3.40
252.92,-1.67,1.74,-1.67,1.75,-1.74,-1.69,-1.99,-3.41,-3.41,-3.41
255.45,-1.67,1.75,-1.67,1.75,-1.75,-1.71,-1.99,-3.41,-3.41,-3.42
258.00,-1.67,1.76,-1.67,1.76,-1.75,-1.73,-1.99,-3.42,-3.42,-3.43
260.58,-1.68,1.75,-1.67,1.76,-1.76,-1.75,-1.99,-3.44,-3.43,-3.43
263.19,-1.68,1.76,-1.68,1.76,-1.77,-1.77,-1.99,-3.44,-3.44,-3.44
265.82,-1.68,1.77,-1.68,1.77,-1.78,-1.79,-1.99,-3.46,-3.46,-3.45
268.48,-1.68,1.78,-1.67,1.79,-1.79,-1.82,-1.98,-3.47,-3.47,-3.46
271.16,-1.67,1.80,-1.66,1.81,-1.81,-1.84,-1.98,-3.48,-3.48,-3.47
273.87,-1.64,1.84,-1.64,1.84,-1.84,-1.86,-1.97,-3.48,-3.48,-3.48
276.61,-1.62,1.87,-1.62,1.87,-1.87,-1.89,-1.96,-3.49,-3.49,-3.49
279.38,-1.60,1.90,-1.59,1.91,-1.91,-1.92,-1.95,-3.51,-3.50,-3.50
282.17,-1.56,1.95,-1.56,1.95,-1.95,-1.94,-1.95,-3.51,-3.52,-3.51
284.99,-1.53,1.99,-1.52,2.00,-2.00,-1.97,-1.93,-3.52,-3.52,-3.52
287.84,-1.49,2.04,-1.49,2.05,-2.04,-2.00,-1.92,-3.53,-3.53,-3.53
290.72,-1.45,2.09,-1.45,2.09,-2.09,-2.03,-1.91,-3.53,-3.54,-3.54
293.63,-1.42,2.13,-1.42,2.14,-2.13,-2.06,-1.90,-3.55,-3.55,-3.55
296.57,-1.39,2.17,-1.39,2.17,-2.17,-2.10,-1.89,-3.56,-3.56,-3.56
299.53,-1.37,2.20,-1.37,2.21,-2.21,-2.13,-1.88,-3.57,-3.57,-3.57
302.53,-1.35,2.23,-1.34,2.24,-2.24,-2.16,-1.87,-3.58,-3.58,-3.58
305.55,-1.33,2.27,-1.33,2.27,-2.26,-2.20,-1.86,-3.59,-3.59,-3.60
308.61,-1.32,2.29,-1.32,2.29,-2.28,-2.23,-1.85,-3.60,-3.60,-3.61
311.69,-1.32,2.30,-1.32,2.31,-2.30,-2.27,-1.84,-3.62,-3.62,-3.62
314.81,-1.33,2.31,-1.32,2.32,-2.31,-2.30,-1.83,-3.64,-3.64,-3.64
317.96,-1.33,2.32,-1.33,2.32,-2.33,-2.33,-1.82,-3.65,-3.66,-3.65
321.14,-1.34,2.33,-1.33,2.33,-2.34,-2.37,-1.82,-3.68,-3.67,-3.67
324.35,-1.34,2.34,-1.34,2.35,-2.35,-2.39,-1.81,-3.69,-3.69,-3.68
327.59,-1.34,2.36,-1.34,2.36,-2.37,-2.42,-1.80,-3.70,-3.70,-3.70
330.87,-1.34,2.37,-1.34,2.38,-2.38,-2.44,-1.80,-3.72,-3.72,-3.71
334.18,-1.34,2.39,-1.33,2.40,-2.40,-2.46,-1.80,-3.74,-3.73,-3.73
337.52,-1.33,2.41,-1.33,2.42,-2.42,-2.48,-1.80,-3.75,-3.75,-3.74
340.90,-1.32,2.44,-1.32,2.44,-2.44,-2.49,-1.80,-3.75,-3.76,-3.76
344.30,-1.32,2.45,-1.32,2.46,-2.45,-2.49,-1.80,-3.77,-3.77,-3.77
347.75,-1.32,2.47,-1.32,2.47,-2.47,-2.49,-1.80,-3.78,-3.78,-3.79
351.23,-1.33,2.48,-1.33,2.48,-2.47,-2.49,-1.80,-3.80,-3.80,-3.81
354.74,-1.34,2.48,-1.34,2.48,-2.48,-2.48,-1.81,-3.81,-3.82,-3.82
358.28,-1.37,2.47,-1.36,2.48,-2.48,-2.47,-1.81,-3.84,-3.84,-3.84
361.87,-1.39,2.47,-1.39,2.47,-2.47,-2.46,-1.82,-3.86,-3.86,-3.86
365.49,-1.42,2.45,-1.42,2.46,-2.46,-2.44,-1.83,-3.88,-3.88,-3.87
369.14,-1.45,2.44,-1.44,2.44,-2.45,-2.43,-1.84,-3.90,-3.89,-3.89
372.83,-1.47,2.43,-1.47,2.43,-2.44,-2.41,-1.85,-3.90,-3.91,-3.90
376.56,-1.51,2.41,-1.50,2.42,-2.42,-2.39,-1.86,-3.93,-3.92,-3.92
380.33,-1.53,2.41,-1.53,2.41,-2.40,-2.36,-1.88,-3.93,-3.93,-3.94
384.13,-1.57,2.38,-1.57,2.39,-2.38,-2.34,-1.89,-3.95,-3.95,-3.95
387.97,-1.61,2.36,-1.61,2.36,-2.36,-2.32,-1.91,-3.97,-3.97,-3.97
391.85,-1.65,2.33,-1.65,2.33,-2.34,-2.29,-1.93,-3.98,-3.98,-3.98
395.77,-1.69,2.30,-1.68,2.31,-2.31,-2.27,-1.95,-4.00,-4.00,-3.99
399.73,-1.72,2.28,-1.72,2.28,-2.28,-2.24,-1.97,-4.00,-4.00,-4.00
403.72,-1.76,2.25,-1.76,2.25,-2.25,-2.22,-1.99,-4.01,-4.01,-4.01
407.76,-1.80,2.22,-1.80,2.23,-2.22,-2.19,-2.01,-4.02,-4.02,-4.02
411.84,-1.85,2.19,-1.85,2.19,-2.19,-2.16,-2.03,-4.03,-4.03,-4.04
415.96,-1.90,2.15,-1.90,2.15,-2.15,-2.14,-2.06,-4.05,-4.05,-4.05
420.12,-1.95,2.11,-1.95,2.11,-2.11,-2.10,-2.08,-4.06,-4.06,-4.06
424.32,-2.01,2.06,-2.00,2.07,-2.07,-2.07,-2.11,-4.08,-4.08,-4.07
