frequency,raw,error,smoothed,error_smoothed,equalization,parametric_eq,fixed_band_eq,equalized_raw,equalized_smoothed,target
20.00,7.41,1.27,7.41,1.27,-1.28,-0.32,-0.10,6.13,6.13,6.13
20.20,7.38,1.25,7.38,1.24,-1.25,-0.32,-0.11,6.13,6.13,6.13
20.40,7.35,1.21,7.35,1.21,-1.21,-0.33,-0.11,6.14,6.14,6.14
20.61,7.33,1.19,7.32,1.18,-1.18,-0.34,-0.11,6.15,6.15,6.14
20.81,7.30,1.16,7.30,1.16,-1.15,-0.35,-0.12,6.15,6.15,6.14
21.02,7.27,1.13,7.27,1.12,-1.12,-0.35,-0.12,6.15,6.15,6.14
21.23,7.24,1.09,7.24,1.09,-1.09,-0.36,-0.12,6.15,6.15,6.15
21.44,7.21,1.05,7.21,1.05,-1.06,-0.37,-0.13,6.15,6.15,6.16
21.66,7.19,1.03,7.18,1.02,-1.03,-0.37,-0.13,6.16,6.16,6.16
21.87,7.16,0.99,7.16,1.00,-1.00,-0.38,-0.13,6.16,6.16,6.17
22.09,7.14,0.98,7.14,0.97,-0.97,-0.39,-0.14,6.17,6.17,6.16
22.31,7.12,0.95,7.11,0.95,-0.95,-0.40,-0.14,6.17,6.17,6.17
22.54,7.09,0.93,7.09,0.93,-0.93,-0.41,-0.15,6.16,6.17,6.16
22.76,7.07,0.90,7.07,0.90,-0.91,-0.42,-0.15,6.16,6.16,6.17
22.99,7.05,0.88,7.05,0.88,-0.89,-0.42,-0.15,6.16,6.16,6.17
23.22,7.03,0.87,7.03,0.87,-0.87,-0.43,-0.16,6.16,6.16,6.16
23.45,7.01,0.85,7.01,0.85,-0.85,-0.44,-0.16,6.16,6.16,6.16
23.69,6.99,0.83,6.99,0.84,-0.83,-0.45,-0.17,6.16,6.16,6.16
23.92,6.98,0.82,6.97,0.82,-0.81,-0.46,-0.17,6.17,6.16,6.15
24.16,6.96,0.80,6.95,0.80,-0.79,-0.47,-0.18,6.16,6.16,6.15
24.40,6.93,0.76,6.93,0.77,-0.78,-0.48,-0.19,6.15,6.16,6.16
24.65,6.92,0.75,6.91,0.75,-0.76,-0.49,-0.19,6.16,6.15,6.16
24.89,6.90,0.74,6.90,0.74,-0.75,-0.50,-0.20,6.15,6.15,6.16
25.14,6.89,0.74,6.89,0.73,-0.73,-0.51,-0.20,6.16,6.16,6.15
25.39,6.88,0.73,6.88,0.73,-0.72,-0.52,-0.21,6.16,6.16,6.15
25.65,6.87,0.72,6.86,0.72,-0.71,-0.53,-0.22,6.16,6.16,6.15
25.91,6.85,0.70,6.85,0.70,-0.70,-0.54,-0.23,6.15,6.15,6.15
26.16,6.84,0.68,6.84,0.68,-0.69,-0.56,-0.24,6.15,6.15,6.16
26.43,6.83,0.67,6.83,0.67,-0.68,-0.57,-0.24,6.15,6.15,6.16
26.69,6.82,0.67,6.82,0.67,-0.67,-0.58,-0.25,6.15,6.15,6.15
26.96,6.81,0.66,6.81,0.67,-0.66,-0.59,-0.26,6.15,6.15,6.14
27.23,6.81,0.66,6.80,0.66,-0.65,-0.61,-0.27,6.15,6.15,6.14
27.50,6.79,0.65,6.80,0.65,-0.65,-0.62,-0.29,6.14,6.15,6.14
27.77,6.79,0.64,6.79,0.64,-0.64,-0.63,-0.30,6.15,6.15,6.15
28.05,6.79,0.64,6.78,0.63,-0.63,-0.64,-0.31,6.15,6.15,6.15
28.33,6.77,0.63,6.77,0.63,-0.63,-0.66,-0.32,6.14,6.14,6.14
28.62,6.77,0.63,6.77,0.62,-0.63,-0.67,-0.34,6.14,6.14,6.14
28.90,6.76,0.61,6.76,0.62,-0.62,-0.69,-0.35,6.14,6.14,6.15
29.19,6.76,0.61,6.76,0.62,-0.62,-0.70,-0.37,6.14,6.14,6.14
29.48,6.76,0.62,6.76,0.62,-0.62,-0.72,-0.38,6.14,6.14,6.13
29.78,6.76,0.63,6.75,0.62,-0.62,-0.73,-0.40,6.14,6.14,6.13
30.08,6.75,0.61,6.75,0.62,-0.61,-0.75,-0.42,6.13,6.14,6.14
30.38,6.75,0.62,6.75,0.61,-0.61,-0.76,-0.44,6.13,6.14,6.13
30.68,6.75,0.61,6.75,0.61,-0.61,-0.78,-0.46,6.13,6.13,6.14
30.99,6.75,0.61,6.75,0.61,-0.61,-0.80,-0.48,6.13,6.13,6.14
31.30,6.75,0.61,6.75,0.61,-0.61,-0.81,-0.51,6.13,6.13,6.13
31.61,6.75,0.61,6.75,0.61,-0.62,-0.83,-0.53,6.13,6.13,6.14
31.93,6.76,0.63,6.75,0.62,-0.62,-0.85,-0.55,6.14,6.14,6.13
32.24,6.76,0.62,6.76,0.62,-0.62,-0.87,-0.58,6.14,6.14,6.14
32.57,6.77,0.63,6.77,0.63,-0.63,-0.89,-0.61,6.14,6.14,6.13
32.89,6.77,0.64,6.77,0.64,-0.64,-0.91,-0.64,6.13,6.13,6.13
33.22,6.78,0.65,6.77,0.64,-0.64,-0.92,-0.67,6.13,6.13,6.13
33.55,6.78,0.65,6.78,0.65,-0.66,-0.95,-0.70,6.12,6.12,6.13
33.89,6.79,0.66,6.79,0.67,-0.67,-0.97,-0.73,6.12,6.12,6.13
34.23,6.80,0.69,6.80,0.69,-0.68,-0.99,-0.76,6.11,6.11,6.11
34.57,6.81,0.71,6.81,0.70,-0.70,-1.01,-0.79,6.10,6.10,6.10
34.92,6.82,0.73,6.82,0.73,-0.72,-1.03,-0.83,6.09,6.09,6.09
35.27,6.82,0.73,6.82,0.75,-0.75,-1.05,-0.87,6.07,6.07,6.08
35.62,6.84,0.79,6.83,0.77,-0.78,-1.08,-0.90,6.06,6.05,6.05
35.97,6.84,0.80,6.84,0.80,-0.81,-1.10,-0.94,6.03,6.03,6.04
36.33,6.85,0.83,6.85,0.84,-0.84,-1.12,-0.98,6.01,6.01,6.01
36.70,6.87,0.88,6.86,0.87,-0.87,-1.15,-1.02,6.00,5.99,5.99
37.06,6.88,0.91,6.88,0.91,-0.91,-1.18,-1.06,5.97,5.97,5.97
37.43,6.89,0.95,6.89,0.95,-0.94,-1.20,-1.10,5.94,5.95,5.94
37.81,6.91,0.99,6.90,0.98,-0.98,-1.23,-1.15,5.92,5.92,5.92
38.19,6.92,1.01,6.92,1.02,-1.02,-1.26,-1.19,5.90,5.90,5.90
38.57,6.94,1.06,6.94,1.06,-1.06,-1.28,-1.24,5.88,5.88,5.88
38.95,6.96,1.10,6.96,1.10,-1.10,-1.31,-1.29,5.86,5.86,5.86
39.34,6.98,1.15,6.98,1.15,-1.14,-1.34,-1.34,5.84,5.84,5.83
39.74,7.00,1.19,6.99,1.18,-1.18,-1.37,-1.39,5.82,5.81,5.81
40.14,7.01,1.22,7.01,1.22,-1.22,-1.40,-1.44,5.79,5.79,5.79
40.54,7.03,1.25,7.03,1.26,-1.26,-1.44,-1.49,5.77,5.77,5.78
40.94,7.06,1.31,7.05,1.30,-1.30,-1.47,-1.54,5.76,5.75,5.75
41.35,7.08,1.34,7.08,1.34,-1.34,-1.50,-1.60,5.73,5.73,5.74
41.76,7.10,1.39,7.10,1.39,-1.39,-1.54,-1.65,5.71,5.71,5.71
42.18,7.12,1.42,7.12,1.43,-1.43,-1.57,-1.71,5.69,5.69,5.69
42.60,7.14,1.47,7.14,1.47,-1.47,-1.61,-1.77,5.67,5.67,5.67
43.03,7.17,1.52,7.16,1.52,-1.52,-1.65,-1.83,5.65,5.65,5.65
43.46,7.19,1.56,7.19,1.56,-1.56,-1.69,-1.89,5.63,5.63,5.62
43.90,7.22,1.61,7.22,1.61,-1.61,-1.73,-1.95,5.61,5.61,5.61
44.33,7.24,1.66,7.24,1.66,-1.65,-1.77,-2.02,5.58,5.59,5.58
44.78,7.27,1.71,7.26,1.70,-1.70,-1.81,-2.09,5.57,5.56,5.56
45.23,7.29,1.73,7.29,1.75,-1.75,-1.85,-2.15,5.53,5.54,5.55
45.68,7.32,1.80,7.32,1.80,-1.81,-1.90,-2.22,5.51,5.51,5.52
46.13,7.36,1.87,7.35,1.86,-1.86,-1.94,-2.29,5.50,5.49,5.49
46.60,7.38,1.92,7.38,1.92,-1.92,-1.99,-2.36,5.46,5.47,5.46
47.06,7.42,1.98,7.42,1.98,-1.98,-2.04,-2.44,5.44,5.44,5.44
47.53,7.45,2.04,7.45,2.04,-2.04,-2.09,-2.51,5.40,5.40,5.41
48.01,7.48,2.12,7.48,2.11,-2.11,-2.14,-2.59,5.36,5.37,5.36
48.49,7.51,2.18,7.51,2.18,-2.18,-2.19,-2.67,5.33,5.33,5.33
48.97,7.54,2.25,7.54,2.25,-2.25,-2.24,-2.74,5.29,5.29,5.29
49.46,7.58,2.32,7.57,2.32,-2.32,-2.30,-2.82,5.25,5.25,5.26
49.96,7.61,2.41,7.61,2.40,-2.40,-2.36,-2.90,5.21,5.21,5.20
50.46,7.64,2.47,7.64,2.47,-2.47,-2.41,-2.98,5.17,5.17,5.16
50.96,7.68,2.55,7.68,2.55,-2.55,-2.47,-3.06,5.13,5.13,5.13
51.47,7.72,2.62,7.72,2.62,-2.62,-2.54,-3.14,5.10,5.10,5.10
51.99,7.76,2.70,7.76,2.70,-2.70,-2.60,-3.22,5.06,5.06,5.06
52.51,7.80,2.77,7.79,2.77,-2.77,-2.67,-3.30,5.03,5.02,5.02
53.03,7.83,2.84,7.83,2.84,-2.85,-2.73,-3.38,4.98,4.98,4.99
53.56,7.86,2.91,7.86,2.92,-2.92,-2.80,-3.46,4.94,4.94,4.94
54.10,7.91,3.01,7.90,3.00,-3.00,-2.87,-3.54,4.91,4.90,4.90
54.64,7.94,3.07,7.94,3.08,-3.07,-2.95,-3.62,4.86,4.87,4.86
55.18,7.98,3.15,7.98,3.15,-3.15,-3.02,-3.69,4.83,4.83,4.83
55.74,8.02,3.23,8.02,3.22,-3.22,-3.10,-3.77,4.80,4.80,4.79
56.29,8.06,3.29,8.06,3.29,-3.29,-3.17,-3.84,4.77,4.77,4.76
56.86,8.10,3.35,8.10,3.36,-3.36,-3.25,-3.91,4.74,4.74,4.75
57.42,8.14,3.44,8.14,3.43,-3.43,-3.33,-3.97,4.71,4.71,4.70
58.00,8.18,3.51,8.18,3.50,-3.50,-3.42,-4.03,4.68,4.68,4.67
58.58,8.22,3.57,8.21,3.57,-3.57,-3.50,-4.09,4.65,4.65,4.65
59.16,8.25,3.63,8.25,3.63,-3.64,-3.59,-4.14,4.61,4.61,4.62
59.76,8.29,3.70,8.29,3.70,-3.72,-3.67,-4.19,4.57,4.57,4.59
60.35,8.33,3.79,8.33,3.79,-3.80,-3.76,-4.24,4.53,4.53,4.54
60.96,8.37,3.87,8.37,3.88,-3.88,-3.85,-4.28,4.48,4.48,4.49
61.57,8.41,3.98,8.41,3.97,-3.97,-3.94,-4.31,4.44,4.44,4.43
62.18,8.44,4.06,8.44,4.06,-4.05,-4.03,-4.34,4.39,4.39,4.38
62.80,8.48,4.14,8.48,4.14,-4.13,-4.11,-4.37,4.35,4.34,4.33
63.43,8.51,4.22,8.51,4.22,-4.21,-4.20,-4.39,4.30,4.30,4.29
64.07,8.54,4.28,8.54,4.29,-4.29,-4.29,-4.40,4.25,4.25,4.25
64.71,8.57,4.35,8.57,4.35,-4.36,-4.37,-4.41,4.21,4.21,4.22
65.35,8.59,4.42,8.59,4.42,-4.43,-4.46,-4.42,4.16,4.17,4.17
66.01,8.63,4.50,8.62,4.49,-4.49,-4.54,-4.42,4.14,4.13,4.13
66.67,8.65,4.55,8.65,4.55,-4.55,-4.61,-4.41,4.09,4.09,4.10
67.33,8.67,4.62,8.67,4.62,-4.61,-4.69,-4.41,4.05,4.06,4.05
68.01,8.69,4.68,8.69,4.67,-4.67,-4.76,-4.40,4.02,4.01,4.01
68.69,8.71,4.74,8.71,4.73,-4.73,-4.82,-4.38,3.98,3.98,3.97
69.37,8.72,4.78,8.72,4.78,-4.79,-4.88,-4.37,3.93,3.94,3.94
70.07,8.74,4.83,8.74,4.83,-4.84,-4.94,-4.35,3.90,3.90,3.90
70.77,8.75,4.89,8.75,4.89,-4.89,-4.99,-4.33,3.86,3.86,3.86
71.48,8.76,4.94,8.76,4.94,-4.94,-5.03,-4.31,3.82,3.81,3.82
72.19,8.76,4.99,8.76,4.99,-4.99,-5.07,-4.29,3.77,3.77,3.77
72.91,8.76,5.03,8.76,5.04,-5.03,-5.11,-4.27,3.73,3.73,3.72
73.64,8.76,5.08,8.75,5.08,-5.07,-5.13,-4.24,3.69,3.68,3.68
74.38,8.75,5.11,8.75,5.11,-5.11,-5.15,-4.22,3.64,3.64,3.64
75.12,8.74,5.14,8.74,5.14,-5.14,-5.17,-4.20,3.60,3.60,3.60
75.87,8.73,5.16,8.73,5.16,-5.16,-5.18,-4.18,3.57,3.57,3.57
76.63,8.72,5.19,8.72,5.18,-5.18,-5.19,-4.16,3.54,3.54,3.53
77.40,8.70,5.19,8.70,5.20,-5.19,-5.19,-4.14,3.50,3.50,3.51
78.17,8.68,5.21,8.68,5.20,-5.20,-5.18,-4.12,3.48,3.47,3.47
78.95,8.65,5.20,8.65,5.20,-5.21,-5.18,-4.10,3.44,3.44,3.44
79.74,8.62,5.20,8.62,5.21,-5.21,-5.17,-4.09,3.41,3.41,3.42
80.54,8.59,5.20,8.59,5.20,-5.21,-5.15,-4.08,3.38,3.38,3.38
81.35,8.56,5.21,8.55,5.20,-5.20,-5.14,-4.07,3.36,3.35,3.35
82.16,8.52,5.19,8.52,5.19,-5.19,-5.12,-4.07,3.32,3.32,3.33
82.98,8.47,5.17,8.48,5.18,-5.18,-5.10,-4.06,3.29,3.29,3.29
83.81,8.44,5.17,8.43,5.17,-5.17,-5.08,-4.06,3.27,3.26,3.27
84.65,8.39,5.16,8.39,5.16,-5.15,-5.06,-4.07,3.23,3.23,3.23
85.50,8.34,5.14,8.34,5.14,-5.14,-5.03,-4.07,3.20,3.20,3.20
86.35,8.29,5.12,8.29,5.12,-5.12,-5.01,-4.08,3.17,3.17,3.17
87.22,8.23,5.08,8.23,5.09,-5.09,-4.99,-4.09,3.13,3.14,3.15
88.09,8.18,5.07,8.18,5.07,-5.07,-4.97,-4.11,3.11,3.11,3.10
88.97,8.12,5.03,8.12,5.04,-5.04,-4.94,-4.13,3.07,3.08,3.08
89.86,8.07,5.03,8.06,5.02,-5.02,-4.92,-4.15,3.05,3.05,3.04
90.76,8.00,4.98,8.00,4.99,-4.99,-4.90,-4.17,3.01,3.02,3.02
91.66,7.94,4.96,7.94,4.96,-4.96,-4.88,-4.20,2.98,2.98,2.97
92.58,7.88,4.93,7.87,4.93,-4.93,-4.86,-4.23,2.95,2.95,2.95
93.51,7.81,4.89,7.81,4.90,-4.90,-4.84,-4.26,2.91,2.91,2.91
94.44,7.75,4.86,7.74,4.86,-4.87,-4.82,-4.30,2.88,2.87,2.89
95.39,7.68,4.84,7.68,4.83,-4.84,-4.80,-4.34,2.83,2.83,2.84
96.34,7.61,4.81,7.61,4.81,-4.82,-4.78,-4.38,2.79,2.80,2.80
97.30,7.55,4.79,7.55,4.79,-4.79,-4.76,-4.43,2.76,2.76,2.76
98.28,7.49,4.78,7.48,4.77,-4.76,-4.74,-4.47,2.73,2.72,2.71
99.26,7.41,4.74,7.41,4.74,-4.74,-4.73,-4.52,2.67,2.68,2.67
100.25,7.35,4.72,7.34,4.71,-4.71,-4.71,-4.58,2.64,2.64,2.63
101.25,7.28,4.68,7.28,4.68,-4.68,-4.70,-4.63,2.59,2.59,2.60
102.27,7.21,4.64,7.21,4.65,-4.65,-4.68,-4.68,2.55,2.56,2.56
103.29,7.15,4.62,7.15,4.62,-4.63,-4.67,-4.74,2.52,2.52,2.53
104.32,7.09,4.60,7.08,4.59,-4.60,-4.66,-4.80,2.49,2.49,2.49
105.37,7.02,4.57,7.02,4.57,-4.57,-4.64,-4.85,2.45,2.45,2.45
106.42,6.96,4.54,6.96,4.54,-4.54,-4.63,-4.91,2.42,2.42,2.42
107.48,6.90,4.52,6.90,4.52,-4.51,-4.62,-4.97,2.38,2.38,2.37
108.56,6.84,4.49,6.83,4.49,-4.49,-4.61,-5.02,2.35,2.34,2.35
109.64,6.77,4.46,6.77,4.46,-4.47,-4.60,-5.08,2.30,2.31,2.31
110.74,6.71,4.44,6.71,4.44,-4.45,-4.59,-5.13,2.26,2.27,2.27
111.85,6.67,4.43,6.66,4.43,-4.43,-4.58,-5.18,2.24,2.23,2.23
112.97,6.61,4.42,6.61,4.42,-4.42,-4.57,-5.23,2.19,2.19,2.19
114.10,6.56,4.41,6.56,4.41,-4.41,-4.56,-5.27,2.14,2.14,2.15
115.24,6.50,4.40,6.50,4.41,-4.41,-4.55,-5.31,2.09,2.09,2.09
116.39,6.45,4.41,6.45,4.41,-4.41,-4.54,-5.34,2.04,2.04,2.04
117.55,6.40,4.41,6.40,4.42,-4.41,-4.53,-5.37,1.99,1.99,1.98
118.73,6.35,4.42,6.35,4.42,-4.41,-4.52,-5.40,1.93,1.93,1.93
119.92,6.30,4.42,6.30,4.42,-4.42,-4.51,-5.42,1.88,1.88,1.87
121.12,6.25,4.42,6.25,4.42,-4.43,-4.50,-5.43,1.82,1.82,1.83
122.33,6.20,4.43,6.20,4.43,-4.44,-4.49,-5.43,1.76,1.76,1.77
123.55,6.16,4.45,6.16,4.45,-4.45,-4.48,-5.43,1.71,1.71,1.71
124.79,6.12,4.47,6.11,4.46,-4.47,-4.47,-5.42,1.65,1.65,1.65
126.03,6.07,4.48,6.07,4.48,-4.48,-4.46,-5.41,1.59,1.59,1.59
127.29,6.03,4.50,6.03,4.50,-4.50,-4.45,-5.39,1.53,1.53,1.53
128.57,5.99,4.52,5.98,4.52,-4.52,-4.45,-5.36,1.47,1.47,1.47
129.85,5.94,4.53,5.94,4.53,-4.53,-4.44,-5.32,1.41,1.41,1.41
131.15,5.90,4.55,5.90,4.55,-4.54,-4.43,-5.28,1.35,1.35,1.35
132.46,5.86,4.56,5.86,4.56,-4.55,-4.42,-5.23,1.30,1.30,1.30
133.79,5.82,4.57,5.82,4.56,-4.56,-4.42,-5.18,1.26,1.26,1.25
135.12,5.78,4.57,5.78,4.56,-4.56,-4.41,-5.12,1.21,1.21,1.21
136.48,5.73,4.55,5.73,4.56,-4.56,-4.40,-5.05,1.16,1.17,1.18
137.84,5.70,4.56,5.69,4.56,-4.56,-4.39,-4.98,1.14,1.13,1.13
139.22,5.65,4.56,5.65,4.55,-4.55,-4.38,-4.91,1.09,1.10,1.09
140.61,5.61,4.54,5.61,4.55,-4.54,-4.38,-4.83,1.06,1.07,1.07
142.02,5.57,4.53,5.57,4.53,-4.53,-4.37,-4.75,1.04,1.03,1.03
143.44,5.53,4.53,5.52,4.52,-4.52,-4.36,-4.67,1.01,1.00,1.00
144.87,5.48,4.50,5.48,4.50,-4.51,-4.35,-4.59,0.97,0.98,0.98
146.32,5.44,4.49,5.44,4.49,-4.49,-4.34,-4.50,0.95,0.95,0.95
147.78,5.40,4.48,5.39,4.47,-4.47,-4.34,-4.42,0.93,0.92,0.92
149.26,5.35,4.45,5.35,4.45,-4.45,-4.33,-4.33,0.90,0.89,0.89
150.75,5.29,4.43,5.30,4.43,-4.43,-4.32,-4.24,0.86,0.86,0.86
152.26,5.25,4.41,5.25,4.41,-4.41,-4.31,-4.15,0.84,0.83,0.84
153.78,5.20,4.39,5.20,4.39,-4.39,-4.30,-4.07,0.80,0.80,0.80
155.32,5.15,4.37,5.15,4.37,-4.37,-4.28,-3.98,0.78,0.77,0.78
156.88,5.09,4.34,5.09,4.35,-4.35,-4.27,-3.90,0.74,0.74,0.74
158.44,5.04,4.34,5.04,4.33,-4.33,-4.26,-3.81,0.71,0.71,0.70
160.03,4.99,4.32,4.98,4.31,-4.31,-4.24,-3.73,0.68,0.67,0.67
161.63,4.92,4.28,4.92,4.29,-4.29,-4.23,-3.65,0.63,0.63,0.64
163.24,4.86,4.26,4.86,4.27,-4.27,-4.21,-3.57,0.59,0.60,0.60
164.88,4.81,4.25,4.80,4.24,-4.24,-4.19,-3.49,0.57,0.56,0.56
166.53,4.74,4.22,4.74,4.22,-4.21,-4.17,-3.42,0.52,0.52,0.52
168.19,4.67,4.18,4.67,4.19,-4.18,-4.15,-3.35,0.48,0.49,0.49
169.87,4.61,4.16,4.61,4.15,-4.15,-4.13,-3.28,0.46,0.45,0.45
171.57,4.54,4.11,4.54,4.11,-4.12,-4.10,-3.21,0.42,0.42,0.42
173.29,4.47,4.08,4.47,4.08,-4.08,-4.08,-3.14,0.39,0.39,0.39
175.02,4.39,4.03,4.39,4.04,-4.04,-4.05,-3.08,0.35,0.35,0.35
176.77,4.32,4.00,4.32,3.99,-3.99,-4.01,-3.02,0.32,0.32,0.32
178.54,4.24,3.94,4.24,3.95,-3.95,-3.98,-2.96,0.29,0.29,0.29
180.32,4.16,3.91,4.16,3.90,-3.90,-3.94,-2.90,0.26,0.25,0.25
182.13,4.07,3.85,4.07,3.85,-3.85,-3.90,-2.85,0.22,0.22,0.22
183.95,3.99,3.80,3.99,3.80,-3.80,-3.86,-2.80,0.19,0.19,0.19
185.79,3.91,3.75,3.90,3.75,-3.74,-3.81,-2.75,0.16,0.16,0.16
187.65,3.82,3.69,3.81,3.69,-3.69,-3.77,-2.70,0.13,0.13,0.13
189.52,3.72,3.63,3.72,3.63,-3.63,-3.72,-2.65,0.09,0.09,0.09
191.42,3.63,3.56,3.63,3.57,-3.57,-3.66,-2.61,0.05,0.05,0.07
193.33,3.54,3.51,3.53,3.51,-3.51,-3.61,-2.57,0.02,0.02,0.03
195.27,3.44,3.45,3.44,3.45,-3.45,-3.55,-2.53,-0.01,-0.01,-0.01
197.22,3.36,3.40,3.35,3.40,-3.39,-3.49,-2.49,-0.03,-0.04,-0.05
199.19,3.26,3.33,3.26,3.33,-3.32,-3.42,-2.45,-0.07,-0.07,-0.07
201.18,3.16,3.26,3.16,3.26,-3.26,-3.35,-2.42,-0.10,-0.10,-0.10
203.19,3.07,3.19,3.06,3.19,-3.19,-3.28,-2.39,-0.13,-0.13,-0.13
205.23,2.97,3.12,2.97,3.12,-3.13,-3.21,-2.36,-0.16,-0.16,-0.15
207.28,2.88,3.05,2.87,3.05,-3.06,-3.14,-2.32,-0.18,-0.18,-0.18
209.35,2.78,2.99,2.78,2.98,-2.98,-3.06,-2.30,-0.21,-0.21,-0.21
211.44,2.68,2.91,2.68,2.91,-2.91,-2.98,-2.27,-0.24,-0.23,-0.23
213.56,2.59,2.84,2.58,2.84,-2.84,-2.90,-2.24,-0.25,-0.26,-0.26
215.69,2.49,2.77,2.49,2.77,-2.77,-2.82,-2.21,-0.28,-0.28,-0.28
217.85,2.39,2.69,2.39,2.69,-2.69,-2.74,-2.18,-0.31,-0.30,-0.30
220.03,2.29,2.62,2.29,2.62,-2.62,-2.65,-2.16,-0.33,-0.33,-0.33
222.23,2.19,2.54,2.19,2.54,-2.54,-2.57,-2.13,-0.35,-0.35,-0.36
224.45,2.09,2.46,2.08,2.46,-2.46,-2.48,-2.10,-0.37,-0.37,-0.38
226.70,1.98,2.37,1.98,2.38,-2.38,-2.39,-2.08,-0.40,-0.40,-0.40
228.96,1.89,2.29,1.88,2.29,-2.30,-2.30,-2.05,-0.41,-0.41,-0.41
231.25,1.79,2.21,1.79,2.21,-2.22,-2.21,-2.02,-0.43,-0.43,-0.43
233.57,1.69,2.13,1.69,2.14,-2.14,-2.12,-1.99,-0.45,-0.45,-0.45
235.90,1.59,2.06,1.59,2.06,-2.06,-2.03,-1.96,-0.47,-0.47,-0.48
238.26,1.49,1.98,1.49,1.98,-1.98,-1.94,-1.93,-0.49,-0.49,-0.50
240.64,1.40,1.89,1.40,1.90,-1.90,-1.85,-1.90,-0.50,-0.50,-0.49
243.05,1.31,1.82,1.30,1.82,-1.82,-1.76,-1.86,-0.51,-0.52,-0.51
245.48,1.21,1.74,1.21,1.74,-1.74,-1.67,-1.83,-0.53,-0.53,-0.53
247.93,1.11,1.66,1.11,1.66,-1.66,-1.58,-1.79,-0.55,-0.54,-0.55
250.41,1.03,1.58,1.02,1.58,-1.58,-1.49,-1.75,-0.55,-0.56,-0.56
252.92,0.94,1.50,0.94,1.50,-1.50,-1.40,-1.71,-0.56,-0.56,-0.56
255.45,0.85,1.43,0.85,1.42,-1.42,-1.31,-1.67,-0.57,-0.57,-0.58
258.00,0.76,1.34,0.76,1.34,-1.34,-1.22,-1.62,-0.59,-0.59,-0.59
260.58,0.67,1.26,0.67,1.27,-1.27,-1.13,-1.58,-0.60,-0.60,-0.59
263.19,0.59,1.20,0.59,1.19,-1.19,-1.05,-1.53,-0.61,-0.61,-0.61
265.82,0.51,1.12,0.50,1.12,-1.12,-0.96,-1.48,-0.61,-0.62,-0.61
268.48,0.42,1.05,0.42,1.05,-1.05,-0.88,-1.43,-0.63,-0.63,-0.63
271.16,0.34,0.97,0.34,0.97,-0.98,-0.79,-1.38,-0.64,-0.64,-0.64
273.87,0.25,0.90,0.25,0.90,-0.91,-0.71,-1.33,-0.66,-0.65,-0.65
276.61,0.18,0.84,0.17,0.84,-0.84,-0.63,-1.27,-0.66,-0.66,-0.67
279.38,0.09,0.77,0.09,0.77,-0.77,-0.55,-1.22,-0.68,-0.67,-0.68
282.17,0.02,0.70,0.01,0.70,-0.70,-0.47,-1.16,-0.68,-0.68,-0.69
284.99,-0.06,0.63,-0.06,0.62,-0.63,-0.39,-1.10,-0.69,-0.69,-0.69
287.84,-0.14,0.54,-0.14,0.56,-0.56,-0.32,-1.04,-0.70,-0.70,-0.68
290.72,-0.21,0.50,-0.21,0.49,-0.49,-0.24,-0.98,-0.70,-0.70,-0.71
293.63,-0.28,0.43,-0.29,0.42,-0.42,-0.17,-0.92,-0.70,-0.71,-0.71
296.57,-0.36,0.35,-0.36,0.36,-0.35,-0.09,-0.86,-0.71,-0.71,-0.72
299.53,-0.44,0.28,-0.44,0.28,-0.28,-0.02,-0.79,-0.72,-0.72,-0.72
302.53,-0.51,0.21,-0.51,0.21,-0.21,0.05,-0.73,-0.72,-0.72,-0.72
305.55,-0.58,0.14,-0.59,0.13,-0.14,0.12,-0.67,-0.72,-0.73,-0.73
308.61,-0.67,0.05,-0.66,0.06,-0.06,0.18,-0.60,-0.74,-0.73,-0.72
311.69,-0.74,-0.02,-0.74,-0.01,0.01,0.25,-0.54,-0.73,-0.73,-0.72
314.81,-0.80,-0.08,-0.81,-0.08,0.09,0.32,-0.47,-0.72,-0.72,-0.73
317.96,-0.88,-0.15,-0.88,-0.15,0.16,0.38,-0.41,-0.72,-0.72,-0.73
321.14,-0.95,-0.23,-0.95,-0.23,0.23,0.44,-0.34,-0.72,-0.72,-0.72
324.35,-1.03,-0.31,-1.03,-0.31,0.31,0.50,-0.27,-0.73,-0.72,-0.73
327.59,-1.10,-0.39,-1.10,-0.38,0.38,0.56,-0.21,-0.72,-0.72,-0.71
330.87,-1.17,-0.45,-1.17,-0.46,0.45,0.62,-0.14,-0.72,-0.72,-0.72
334.18,-1.24,-0.52,-1.24,-0.53,0.53,0.68,-0.07,-0.71,-0.71,-0.72
337.52,-1.31,-0.60,-1.31,-0.60,0.60,0.74,-0.01,-0.71,-0.71,-0.72
340.90,-1.38,-0.68,-1.38,-0.67,0.67,0.79,0.06,-0.71,-0.71,-0.71
344.30,-1.45,-0.74,-1.45,-0.74,0.74,0.85,0.13,-0.71,-0.71,-0.71
347.75,-1.52,-0.82,-1.52,-0.81,0.81,0.90,0.20,-0.71,-0.71,-0.70
351.23,-1.58,-0.87,-1.59,-0.88,0.88,0.96,0.27,-0.70,-0.71,-0.71
354.74,-1.65,-0.96,-1.65,-0.95,0.95,1.01,0.34,-0.70,-0.70,-0.70
358.28,-1.72,-1.02,-1.72,-1.01,1.01,1.06,0.41,-0.71,-0.70,-0.71
361.87,-1.78,-1.07,-1.79,-1.08,1.08,1.12,0.48,-0.70,-0.71,-0.71
365.49,-1.85,-1.15,-1.85,-1.15,1.14,1.17,0.54,-0.71,-0.71,-0.70
369.14,-1.91,-1.21,-1.91,-1.21,1.21,1.22,0.62,-0.71,-0.71,-0.70
372.83,-1.97,-1.27,-1.98,-1.27,1.27,1.27,0.69,-0.70,-0.71,-0.70
376.56,-2.04,-1.33,-2.04,-1.33,1.33,1.32,0.76,-0.71,-0.70,-0.72
380.33,-2.10,-1.40,-2.10,-1.39,1.40,1.37,0.83,-0.71,-0.71,-0.71
384.13,-2.16,-1.45,-2.17,-1.46,1.46,1.42,0.90,-0.70,-0.71,-0.71
387.97,-2.23,-1.53,-2.23,-1.53,1.53,1.48,0.97,-0.71,-0.70,-0.70
391.85,-2.29,-1.59,-2.29,-1.59,1.59,1.53,1.04,-0.70,-0.70,-0.70
395.77,-2.35,-1.65,-2.35,-1.66,1.65,1.58,1.11,-0.70,-0.70,-0.70
399.73,-2.41,-1.72,-2.41,-1.72,1.72,1.64,1.18,-0.69,-0.69,-0.69
403.72,-2.47,-1.79,-2.47,-1.78,1.78,1.70,1.25,-0.69,-0.69,-0.68
407.76,-2.53,-1.85,-2.53,-1.85,1.85,1.76,1.32,-0.68,-0.68,-0.69
411.84,-2.59,-1.91,-2.59,-1.91,1.91,1.82,1.39,-0.68,-0.68,-0.69
415.96,-2.65,-1.98,-2.65,-1.97,1.97,1.88,1.46,-0.68,-0.68,-0.68
420.12,-2.71,-2.02,-2.71,-2.03,2.03,1.95,1.53,-0.68,-0.68,-0.69
424.32,-2.77,-2.08,-2.77,-2.09,2.09,2.01,1.60,-0.68,-0.68,-0.69
428.56,-2.82,-2.15,-2.82,-2.15,2.14,2.09,1.66,-0.68,-0.68,-0.67
432.85,-2.87,-2.20,-2.87,-2.20,2.19,2.16,1.73,-0.68,-0.68,-0.67
437.18,-2.92,-2.24,-2.92,-2.24,2.24,2.23,1.79,-0.68,-0.68,-0.68
441.55,-2.96,-2.28,-2.97,-2.28,2.29,2.29,1.85,-0.68,-0.68,-0.68
445.96,-3.01,-2.33,-3.01,-2.32,2.33,2.36,1.91,-0.68,-0.68,-0.68
450.42,-3.04,-2.36,-3.05,-2.36,2.37,2.41,1.97,-0.68,-0.68,-0.68
454.93,-3.08,-2.40,-3.08,-2.39,2.40,2.46,2.02,-0.69,-0.68,-0.68
459.48,-3.10,-2.42,-3.10,-2.42,2.42,2.48,2.07,-0.68,-0.68,-0.69
464.07,-3.12,-2.45,-3.12,-2.45,2.44,2.50,2.12,-0.68,-0.68,-0.68
468.71,-3.13,-2.47,-3.13,-2.46,2.46,2.50,2.16,-0.68,-0.68,-0.67
473.40,-3.13,-2.47,-3.13,-2.47,2.46,2.48,2.20,-0.67,-0.67,-0.67
478.13,-3.13,-2.46,-3.13,-2.46,2.46,2.45,2.24,-0.68,-0.67,-0.67
482.91,-3.11,-2.44,-3.12,-2.45,2.45,2.42,2.27,-0.67,-0.67,-0.67
487.74,-3.09,-2.42,-3.09,-2.43,2.43,2.37,2.30,-0.67,-0.67,-0.67
492.62,-3.07,-2.40,-3.06,-2.39,2.40,2.33,2.33,-0.67,-0.67,-0.67
497.55,-3.02,-2.35,-3.03,-2.36,2.36,2.28,2.35,-0.66,-0.67,-0.67
502.52,-2.99,-2.32,-2.99,-2.32,2.32,2.23,2.37,-0.67,-0.67,-0.67
507.55,-2.94,-2.28,-2.94,-2.28,2.27,2.19,2.38,-0.67,-0.66,-0.66
512.62,-2.88,-2.22,-2.89,-2.23,2.22,2.14,2.39,-0.66,-0.67,-0.66
