frequency,raw,error,smoothed,error_smoothed,equalization,parametric_eq,fixed_band_eq,equalized_raw,equalized_smoothed,target
20.00,6.35,2.34,6.35,2.33,-2.36,-2.93,-1.43,3.99,3.99,4.01
20.20,6.38,2.36,6.38,2.36,-2.37,-2.93,-1.48,4.01,4.01,4.02
20.40,6.42,2.39,6.42,2.39,-2.39,-2.93,-1.52,4.03,4.03,4.03
20.61,6.45,2.42,6.45,2.42,-2.41,-2.94,-1.56,4.04,4.04,4.03
20.81,6.49,2.45,6.49,2.45,-2.43,-2.94,-1.61,4.06,4.06,4.04
21.02,6.52,2.48,6.52,2.48,-2.46,-2.94,-1.66,4.06,4.06,4.04
21.23,6.54,2.49,6.54,2.50,-2.48,-2.95,-1.70,4.06,4.06,4.05
21.44,6.56,2.51,6.56,2.51,-2.51,-2.95,-1.75,4.05,4.05,4.05
21.66,6.58,2.53,6.58,2.53,-2.54,-2.95,-1.80,4.04,4.04,4.05
21.87,6.60,2.55,6.60,2.55,-2.57,-2.96,-1.86,4.03,4.03,4.05
22.09,6.63,2.57,6.64,2.58,-2.61,-2.96,-1.91,4.02,4.03,4.06
22.31,6.68,2.62,6.68,2.63,-2.65,-2.96,-1.96,4.03,4.03,4.06
22.54,6.73,2.68,6.73,2.69,-2.68,-2.96,-2.02,4.05,4.05,4.05
22.76,6.78,2.74,6.78,2.74,-2.71,-2.97,-2.08,4.07,4.07,4.04
22.99,6.83,2.79,6.82,2.78,-2.74,-2.97,-2.14,4.09,4.07,4.04
23.22,6.83,2.80,6.83,2.80,-2.77,-2.98,-2.20,4.06,4.06,4.03
23.45,6.82,2.80,6.82,2.80,-2.79,-2.98,-2.26,4.03,4.03,4.02
23.69,6.82,2.80,6.81,2.79,-2.81,-2.98,-2.32,4.01,4.00,4.02
23.92,6.81,2.79,6.82,2.80,-2.83,-2.99,-2.39,3.98,3.99,4.02
24.16,6.84,2.82,6.84,2.82,-2.85,-2.99,-2.45,3.99,3.99,4.02
24.40,6.89,2.87,6.89,2.86,-2.88,-2.99,-2.52,4.01,4.01,4.02
24.65,6.93,2.91,6.93,2.91,-2.90,-3.00,-2.59,4.03,4.03,4.02
24.89,6.98,2.96,6.97,2.95,-2.93,-3.00,-2.65,4.05,4.05,4.02
25.14,7.00,2.98,7.00,2.98,-2.95,-3.01,-2.72,4.05,4.04,4.02
25.39,7.00,2.99,7.01,2.99,-2.98,-3.01,-2.79,4.02,4.03,4.01
25.65,7.01,3.00,7.01,3.00,-3.00,-3.01,-2.86,4.01,4.01,4.01
25.91,7.01,3.00,7.01,3.01,-3.02,-3.02,-2.93,3.99,3.99,4.01
26.16,7.03,3.02,7.03,3.02,-3.04,-3.02,-3.00,3.99,3.99,4.01
26.43,7.05,3.04,7.05,3.04,-3.06,-3.03,-3.07,3.99,3.99,4.01
26.69,7.08,3.07,7.08,3.07,-3.08,-3.03,-3.14,4.00,4.00,4.01
26.96,7.11,3.10,7.11,3.10,-3.10,-3.04,-3.21,4.01,4.00,4.01
27.23,7.13,3.13,7.13,3.13,-3.13,-3.04,-3.27,4.00,4.01,4.00
27.50,7.16,3.16,7.16,3.16,-3.15,-3.05,-3.34,4.01,4.02,4.00
27.77,7.19,3.19,7.19,3.18,-3.17,-3.05,-3.40,4.03,4.02,4.00
28.05,7.21,3.21,7.20,3.20,-3.18,-3.06,-3.46,4.03,4.02,4.00
28.33,7.20,3.20,7.20,3.20,-3.19,-3.06,-3.52,4.01,4.01,4.00
28.62,7.20,3.20,7.20,3.19,-3.20,-3.07,-3.58,4.00,4.00,4.00
28.90,7.19,3.18,7.20,3.19,-3.21,-3.07,-3.63,3.98,3.98,4.01
29.19,7.21,3.20,7.21,3.21,-3.23,-3.08,-3.68,3.98,3.98,4.01
29.48,7.25,3.24,7.24,3.23,-3.25,-3.08,-3.72,4.00,3.99,4.01
29.78,7.28,3.26,7.28,3.27,-3.28,-3.09,-3.76,4.00,4.00,4.02
30.08,7.32,3.30,7.32,3.31,-3.31,-3.09,-3.80,4.01,4.01,4.01
30.38,7.36,3.35,7.36,3.35,-3.34,-3.10,-3.83,4.02,4.02,4.01
30.68,7.39,3.38,7.39,3.38,-3.36,-3.10,-3.86,4.03,4.03,4.01
30.99,7.43,3.42,7.42,3.41,-3.38,-3.11,-3.88,4.05,4.03,4.01
31.30,7.42,3.41,7.42,3.41,-3.40,-3.12,-3.90,4.02,4.03,4.01
31.61,7.42,3.41,7.42,3.41,-3.40,-3.12,-3.91,4.02,4.02,4.01
31.93,7.41,3.40,7.41,3.41,-3.41,-3.13,-3.92,4.00,4.00,4.01
32.24,7.41,3.42,7.40,3.40,-3.42,-3.13,-3.92,3.99,3.99,3.99
32.57,7.40,3.41,7.40,3.40,-3.43,-3.14,-3.92,3.97,3.97,3.99
32.89,7.39,3.40,7.40,3.41,-3.44,-3.15,-3.92,3.95,3.96,3.99
33.22,7.42,3.44,7.42,3.44,-3.45,-3.15,-3.91,3.97,3.97,3.98
33.55,7.46,3.48,7.46,3.48,-3.47,-3.16,-3.90,3.99,3.99,3.98
33.89,7.50,3.53,7.49,3.52,-3.50,-3.17,-3.88,4.00,3.99,3.97
34.23,7.51,3.55,7.51,3.54,-3.52,-3.17,-3.86,3.99,3.98,3.96
34.57,7.51,3.55,7.51,3.55,-3.55,-3.18,-3.84,3.96,3.96,3.96
34.92,7.51,3.55,7.52,3.56,-3.58,-3.19,-3.81,3.93,3.94,3.96
35.27,7.54,3.58,7.55,3.59,-3.60,-3.20,-3.79,3.93,3.94,3.96
35.62,7.58,3.62,7.58,3.62,-3.62,-3.20,-3.76,3.96,3.96,3.96
35.97,7.62,3.67,7.61,3.65,-3.63,-3.21,-3.73,3.99,3.98,3.95
36.33,7.62,3.67,7.62,3.67,-3.64,-3.22,-3.70,3.98,3.98,3.95
36.70,7.61,3.66,7.62,3.67,-3.65,-3.23,-3.67,3.96,3.97,3.95
37.06,7.61,3.66,7.60,3.66,-3.66,-3.23,-3.63,3.95,3.94,3.95
37.43,7.60,3.66,7.60,3.65,-3.67,-3.24,-3.60,3.93,3.92,3.94
37.81,7.59,3.64,7.60,3.65,-3.68,-3.25,-3.57,3.91,3.91,3.95
38.19,7.61,3.66,7.62,3.67,-3.70,-3.26,-3.54,3.91,3.93,3.95
38.57,7.66,3.72,7.66,3.71,-3.71,-3.27,-3.51,3.95,3.95,3.94
38.95,7.70,3.75,7.69,3.74,-3.72,-3.27,-3.48,3.98,3.97,3.95
39.34,7.71,3.76,7.71,3.76,-3.74,-3.28,-3.45,3.97,3.97,3.95
39.74,7.71,3.77,7.71,3.77,-3.76,-3.29,-3.43,3.95,3.96,3.94
40.14,7.71,3.77,7.71,3.77,-3.77,-3.30,-3.40,3.94,3.94,3.94
40.54,7.71,3.77,7.71,3.77,-3.78,-3.31,-3.38,3.93,3.93,3.94
40.94,7.71,3.78,7.71,3.78,-3.78,-3.32,-3.36,3.93,3.93,3.93
41.35,7.71,3.78,7.71,3.78,-3.79,-3.33,-3.34,3.92,3.92,3.93
41.76,7.71,3.79,7.71,3.79,-3.79,-3.34,-3.32,3.92,3.92,3.92
42.18,7.71,3.80,7.71,3.80,-3.80,-3.35,-3.31,3.91,3.91,3.91
42.60,7.71,3.80,7.71,3.80,-3.80,-3.36,-3.29,3.91,3.91,3.91
43.03,7.71,3.81,7.71,3.81,-3.81,-3.37,-3.28,3.90,3.90,3.90
43.46,7.71,3.81,7.71,3.82,-3.82,-3.38,-3.27,3.89,3.89,3.90
43.90,7.71,3.83,7.71,3.82,-3.82,-3.39,-3.27,3.89,3.89,3.88
44.33,7.71,3.83,7.71,3.83,-3.83,-3.40,-3.27,3.88,3.88,3.88
44.78,7.71,3.84,7.71,3.84,-3.84,-3.41,-3.27,3.87,3.87,3.87
45.23,7.71,3.84,7.71,3.84,-3.84,-3.42,-3.27,3.87,3.87,3.87
45.68,7.71,3.85,7.71,3.85,-3.84,-3.43,-3.27,3.87,3.87,3.86
46.13,7.71,3.84,7.71,3.85,-3.85,-3.44,-3.28,3.86,3.86,3.87
46.60,7.71,3.85,7.71,3.85,-3.85,-3.45,-3.29,3.86,3.86,3.86
47.06,7.71,3.85,7.71,3.85,-3.85,-3.46,-3.30,3.86,3.86,3.86
47.53,7.71,3.84,7.71,3.84,-3.84,-3.47,-3.31,3.87,3.87,3.87
48.01,7.71,3.84,7.71,3.84,-3.84,-3.48,-3.33,3.87,3.87,3.87
48.49,7.71,3.84,7.71,3.84,-3.84,-3.49,-3.35,3.87,3.87,3.87
48.97,7.71,3.83,7.71,3.83,-3.83,-3.50,-3.37,3.88,3.88,3.88
49.46,7.71,3.83,7.71,3.83,-3.83,-3.51,-3.39,3.88,3.88,3.88
49.96,7.71,3.82,7.71,3.82,-3.82,-3.53,-3.41,3.89,3.89,3.89
50.46,7.71,3.82,7.71,3.81,-3.82,-3.54,-3.44,3.89,3.89,3.89
50.96,7.71,3.80,7.71,3.81,-3.81,-3.55,-3.47,3.90,3.90,3.91
51.47,7.71,3.80,7.71,3.80,-3.81,-3.56,-3.50,3.90,3.90,3.91
51.99,7.71,3.80,7.71,3.80,-3.80,-3.57,-3.53,3.91,3.91,3.91
52.51,7.71,3.80,7.71,3.80,-3.80,-3.58,-3.56,3.91,3.91,3.91
53.03,7.71,3.80,7.71,3.80,-3.80,-3.60,-3.59,3.91,3.91,3.91
53.56,7.71,3.80,7.71,3.80,-3.79,-3.61,-3.62,3.92,3.92,3.91
54.10,7.71,3.79,7.71,3.79,-3.79,-3.62,-3.66,3.92,3.92,3.92
54.64,7.71,3.79,7.71,3.79,-3.79,-3.63,-3.69,3.92,3.92,3.92
55.18,7.71,3.79,7.71,3.79,-3.79,-3.65,-3.72,3.92,3.92,3.92
55.74,7.71,3.80,7.71,3.80,-3.80,-3.66,-3.75,3.91,3.91,3.91
56.29,7.71,3.80,7.71,3.80,-3.80,-3.67,-3.79,3.91,3.91,3.91
56.86,7.71,3.80,7.71,3.81,-3.81,-3.68,-3.82,3.90,3.90,3.91
57.42,7.71,3.82,7.71,3.82,-3.82,-3.70,-3.85,3.89,3.89,3.89
58.00,7.71,3.83,7.71,3.83,-3.83,-3.71,-3.88,3.88,3.88,3.88
58.58,7.71,3.84,7.71,3.85,-3.84,-3.72,-3.91,3.87,3.87,3.87
59.16,7.71,3.86,7.72,3.86,-3.85,-3.74,-3.93,3.86,3.87,3.85
59.76,7.72,3.88,7.71,3.87,-3.86,-3.75,-3.96,3.86,3.85,3.84
60.35,7.69,3.87,7.68,3.87,-3.87,-3.76,-3.98,3.82,3.82,3.82
60.96,7.64,3.85,7.65,3.86,-3.88,-3.77,-4.00,3.76,3.78,3.79
61.57,7.62,3.85,7.63,3.86,-3.88,-3.79,-4.02,3.74,3.74,3.77
62.18,7.61,3.88,7.61,3.88,-3.89,-3.80,-4.03,3.72,3.72,3.73
62.80,7.61,3.92,7.60,3.91,-3.90,-3.81,-4.05,3.71,3.70,3.69
63.43,7.58,3.93,7.57,3.92,-3.91,-3.83,-4.06,3.67,3.66,3.65
64.07,7.52,3.91,7.52,3.91,-3.91,-3.84,-4.07,3.61,3.61,3.61
64.71,7.46,3.90,7.47,3.91,-3.91,-3.85,-4.07,3.55,3.56,3.56
65.35,7.42,3.89,7.43,3.90,-3.90,-3.86,-4.08,3.52,3.53,3.53
66.01,7.41,3.92,7.39,3.90,-3.88,-3.88,-4.08,3.53,3.51,3.49
66.67,7.34,3.89,7.34,3.89,-3.86,-3.89,-4.08,3.48,3.48,3.45
67.33,7.28,3.86,7.28,3.86,-3.84,-3.90,-4.08,3.44,3.43,3.42
68.01,7.21,3.83,7.20,3.82,-3.84,-3.91,-4.08,3.37,3.37,3.38
68.69,7.14,3.79,7.14,3.80,-3.84,-3.93,-4.08,3.30,3.31,3.35
69.37,7.11,3.79,7.12,3.81,-3.85,-3.94,-4.07,3.26,3.27,3.32
70.07,7.12,3.84,7.13,3.85,-3.88,-3.95,-4.07,3.24,3.26,3.28
70.77,7.19,3.94,7.16,3.91,-3.92,-3.96,-4.06,3.27,3.25,3.25
71.48,7.21,3.98,7.21,3.98,-3.97,-3.97,-4.06,3.24,3.24,3.23
72.19,7.23,4.03,7.25,4.05,-4.04,-3.98,-4.06,3.19,3.21,3.20
72.91,7.30,4.14,7.28,4.11,-4.12,-3.99,-4.05,3.18,3.16,3.16
73.64,7.31,4.18,7.32,4.19,-4.19,-4.00,-4.05,3.12,3.13,3.13
74.38,7.35,4.26,7.36,4.27,-4.26,-4.00,-4.05,3.09,3.10,3.09
75.12,7.41,4.35,7.39,4.34,-4.33,-4.01,-4.05,3.08,3.06,3.06
75.87,7.41,4.40,7.41,4.40,-4.40,-4.01,-4.05,3.01,3.01,3.01
76.63,7.41,4.44,7.42,4.44,-4.45,-4.02,-4.05,2.96,2.96,2.97
77.40,7.41,4.48,7.41,4.49,-4.50,-4.02,-4.06,2.91,2.92,2.93
78.17,7.41,4.52,7.41,4.53,-4.53,-4.02,-4.06,2.88,2.88,2.89
78.95,7.41,4.57,7.40,4.56,-4.55,-4.01,-4.07,2.86,2.85,2.84
79.74,7.36,4.56,7.37,4.57,-4.55,-4.01,-4.08,2.81,2.82,2.80
80.54,7.30,4.55,7.29,4.53,-4.53,-4.00,-4.10,2.77,2.76,2.75
81.35,7.20,4.49,7.19,4.48,-4.48,-3.99,-4.11,2.72,2.71,2.71
82.16,7.05,4.38,7.10,4.43,-4.42,-3.97,-4.13,2.63,2.68,2.67
82.98,7.01,4.38,6.98,4.35,-4.33,-3.94,-4.15,2.68,2.64,2.63
83.81,6.86,4.27,6.83,4.24,-4.24,-3.91,-4.18,2.62,2.60,2.59
84.65,6.65,4.10,6.67,4.12,-4.12,-3.88,-4.21,2.53,2.55,2.55
85.50,6.47,3.96,6.48,3.97,-4.00,-3.83,-4.24,2.47,2.48,2.51
86.35,6.31,3.84,6.31,3.84,-3.86,-3.77,-4.27,2.45,2.44,2.47
87.22,6.14,3.72,6.14,3.72,-3.71,-3.70,-4.31,2.43,2.43,2.43
88.09,5.97,3.59,5.97,3.58,-3.55,-3.62,-4.35,2.42,2.42,2.38
88.97,5.78,3.43,5.77,3.43,-3.39,-3.52,-4.40,2.39,2.38,2.35
89.86,5.55,3.25,5.55,3.25,-3.22,-3.40,-4.44,2.33,2.33,2.30
90.76,5.31,3.05,5.31,3.05,-3.04,-3.27,-4.49,2.27,2.26,2.26
91.66,5.07,2.85,5.08,2.86,-2.87,-3.14,-4.55,2.20,2.21,2.22
92.58,4.88,2.70,4.88,2.70,-2.70,-3.00,-4.61,2.18,2.18,2.18
93.51,4.72,2.58,4.71,2.57,-2.55,-2.86,-4.67,2.17,2.16,2.14
94.44,4.56,2.46,4.56,2.46,-2.43,-2.77,-4.73,2.13,2.13,2.10
95.39,4.43,2.37,4.43,2.36,-2.36,-2.68,-4.80,2.07,2.06,2.06
96.34,4.34,2.31,4.33,2.31,-2.35,-2.69,-4.87,1.99,1.98,2.03
97.30,4.29,2.30,4.31,2.33,-2.41,-2.73,-4.94,1.88,1.91,1.99
98.28,4.38,2.44,4.38,2.44,-2.53,-2.87,-5.01,1.85,1.85,1.94
99.26,4.53,2.63,4.53,2.62,-2.71,-3.03,-5.09,1.82,1.82,1.90
100.25,4.78,2.91,4.78,2.91,-2.95,-3.26,-5.17,1.83,1.83,1.87
101.25,5.03,3.20,5.07,3.25,-3.23,-3.49,-5.25,1.81,1.85,1.83
102.27,5.43,3.65,5.37,3.59,-3.54,-3.74,-5.33,1.89,1.84,1.78
103.29,5.66,3.93,5.65,3.91,-3.86,-3.98,-5.41,1.80,1.79,1.73
104.32,5.88,4.20,5.91,4.22,-4.18,-4.21,-5.50,1.70,1.73,1.68
105.37,6.12,4.47,6.13,4.49,-4.48,-4.43,-5.58,1.64,1.65,1.65
106.42,6.39,4.79,6.36,4.76,-4.75,-4.64,-5.67,1.64,1.60,1.60
107.48,6.55,5.00,6.56,5.01,-4.99,-4.83,-5.75,1.56,1.57,1.55
108.56,6.71,5.21,6.72,5.22,-5.19,-5.01,-5.84,1.52,1.53,1.50
109.64,6.86,5.41,6.85,5.39,-5.37,-5.18,-5.92,1.49,1.48,1.45
110.74,6.95,5.54,6.95,5.53,-5.53,-5.34,-6.00,1.42,1.42,1.41
111.85,7.03,5.65,7.02,5.64,-5.66,-5.49,-6.08,1.37,1.36,1.38
112.97,7.07,5.73,7.09,5.76,-5.78,-5.63,-6.15,1.29,1.32,1.34
114.10,7.16,5.86,7.18,5.88,-5.88,-5.76,-6.22,1.28,1.30,1.30
115.24,7.29,6.02,7.25,5.98,-5.98,-5.88,-6.29,1.31,1.27,1.27
116.39,7.32,6.08,7.31,6.07,-6.08,-5.99,-6.35,1.24,1.23,1.24
117.55,7.34,6.12,7.37,6.15,-6.17,-6.09,-6.41,1.17,1.20,1.22
118.73,7.41,6.22,7.43,6.23,-6.26,-6.18,-6.46,1.15,1.17,1.19
119.92,7.54,6.36,7.51,6.33,-6.34,-6.26,-6.51,1.20,1.17,1.18
121.12,7.59,6.43,7.59,6.43,-6.41,-6.33,-6.55,1.18,1.18,1.16
122.33,7.64,6.49,7.65,6.50,-6.47,-6.38,-6.58,1.17,1.17,1.15
123.55,7.68,6.55,7.66,6.53,-6.53,-6.43,-6.61,1.15,1.14,1.13
124.79,7.68,6.56,7.69,6.57,-6.57,-6.46,-6.62,1.11,1.12,1.12
126.03,7.69,6.59,7.71,6.61,-6.61,-6.50,-6.63,1.08,1.10,1.10
127.29,7.74,6.65,7.72,6.63,-6.63,-6.52,-6.63,1.11,1.09,1.09
128.57,7.74,6.66,7.73,6.65,-6.65,-6.54,-6.63,1.09,1.08,1.08
129.85,7.71,6.65,7.73,6.66,-6.66,-6.55,-6.62,1.05,1.06,1.06
131.15,7.71,6.66,7.71,6.67,-6.68,-6.57,-6.60,1.03,1.04,1.05
132.46,7.72,6.69,7.71,6.68,-6.69,-6.58,-6.58,1.03,1.02,1.03
133.79,7.72,6.70,7.72,6.71,-6.71,-6.60,-6.55,1.01,1.01,1.02
135.12,7.73,6.73,7.73,6.73,-6.73,-6.61,-6.51,1.00,1.00,1.00
136.48,7.73,6.74,7.73,6.75,-6.74,-6.63,-6.48,0.99,0.99,0.99
137.84,7.73,6.76,7.73,6.77,-6.76,-6.65,-6.43,0.97,0.97,0.97
139.22,7.73,6.78,7.73,6.78,-6.78,-6.67,-6.39,0.95,0.95,0.95
140.61,7.74,6.81,7.74,6.81,-6.81,-6.69,-6.34,0.93,0.93,0.93
142.02,7.74,6.83,7.74,6.83,-6.83,-6.71,-6.28,0.91,0.91,0.91
143.44,7.74,6.86,7.74,6.86,-6.86,-6.74,-6.23,0.88,0.88,0.88
144.87,7.74,6.88,7.74,6.88,-6.89,-6.76,-6.18,0.85,0.85,0.86
146.32,7.74,6.91,7.74,6.91,-6.92,-6.79,-6.12,0.82,0.82,0.83
147.78,7.74,6.95,7.74,6.95,-6.96,-6.82,-6.06,0.78,0.78,0.79
149.26,7.74,6.98,7.74,6.99,-7.00,-6.85,-6.01,0.74,0.75,0.76
150.75,7.74,7.03,7.73,7.02,-7.03,-6.88,-5.95,0.71,0.70,0.71
152.26,7.71,7.05,7.70,7.04,-7.05,-6.91,-5.90,0.66,0.65,0.66
153.78,7.65,7.04,7.68,7.08,-7.06,-6.94,-5.85,0.59,0.62,0.61
155.32,7.64,7.10,7.64,7.09,-7.04,-6.98,-5.80,0.60,0.60,0.54
156.88,7.59,7.10,7.56,7.07,-7.00,-7.01,-5.75,0.59,0.56,0.49
158.44,7.44,7.01,7.44,7.01,-6.94,-7.04,-5.71,0.50,0.50,0.43
160.03,7.27,6.89,7.29,6.91,-6.88,-7.07,-5.67,0.39,0.40,0.38
161.63,7.13,6.79,7.13,6.80,-6.83,-7.10,-5.63,0.30,0.30,0.34
163.24,7.03,6.74,7.02,6.73,-6.80,-7.13,-5.59,0.23,0.21,0.29
164.88,6.94,6.68,6.95,6.69,-6.79,-7.16,-5.56,0.15,0.15,0.26
166.53,6.92,6.69,6.94,6.71,-6.81,-7.19,-5.53,0.11,0.13,0.23
168.19,7.00,6.79,7.01,6.80,-6.85,-7.21,-5.51,0.15,0.16,0.21
169.87,7.13,6.93,7.12,6.93,-6.91,-7.24,-5.49,0.22,0.21,0.20
171.57,7.27,7.08,7.24,7.04,-6.98,-7.26,-5.48,0.29,0.25,0.19
173.29,7.31,7.12,7.32,7.12,-7.05,-7.28,-5.46,0.26,0.27,0.19
175.02,7.36,7.15,7.37,7.16,-7.09,-7.30,-5.46,0.27,0.27,0.21
176.77,7.39,7.17,7.38,7.16,-7.12,-7.32,-5.45,0.27,0.26,0.22
178.54,7.39,7.15,7.38,7.14,-7.13,-7.33,-5.45,0.26,0.26,0.24
180.32,7.36,7.10,7.36,7.10,-7.11,-7.34,-5.46,0.25,0.24,0.26
182.13,7.32,7.04,7.33,7.05,-7.09,-7.35,-5.47,0.23,0.24,0.28
183.95,7.31,7.01,7.32,7.02,-7.07,-7.35,-5.48,0.24,0.25,0.30
185.79,7.32,7.01,7.32,7.01,-7.05,-7.35,-5.50,0.27,0.27,0.31
187.65,7.34,7.03,7.34,7.02,-7.03,-7.35,-5.52,0.31,0.31,0.31
189.52,7.35,7.03,7.35,7.03,-7.01,-7.35,-5.54,0.34,0.34,0.32
191.42,7.36,7.04,7.35,7.03,-7.00,-7.34,-5.57,0.36,0.35,0.32
193.33,7.34,7.01,7.34,7.02,-7.00,-7.33,-5.60,0.34,0.35,0.33
195.27,7.31,6.99,7.32,7.00,-6.99,-7.32,-5.63,0.32,0.34,0.32
197.22,7.31,7.00,7.29,6.97,-6.98,-7.30,-5.67,0.33,0.31,0.31
199.19,7.26,6.95,7.26,6.95,-6.97,-7.28,-5.71,0.29,0.29,0.31
201.18,7.22,6.92,7.24,6.94,-6.96,-7.25,-5.76,0.26,0.28,0.30
203.19,7.23,6.94,7.22,6.93,-6.96,-7.23,-5.80,0.27,0.26,0.29
205.23,7.23,6.95,7.23,6.94,-6.96,-7.20,-5.85,0.27,0.26,0.28
207.28,7.23,6.96,7.23,6.96,-6.96,-7.16,-5.90,0.27,0.27,0.27
209.35,7.23,6.97,7.24,6.98,-6.96,-7.12,-5.95,0.27,0.27,0.26
211.44,7.23,6.99,7.23,6.98,-6.96,-7.08,-6.00,0.27,0.26,0.24
213.56,7.22,6.99,7.20,6.97,-6.95,-7.04,-6.05,0.27,0.25,0.23
215.69,7.14,6.93,7.15,6.94,-6.93,-6.99,-6.10,0.21,0.23,0.21
217.85,7.09,6.88,7.10,6.90,-6.89,-6.94,-6.15,0.20,0.21,0.21
220.03,7.04,6.85,7.04,6.85,-6.84,-6.89,-6.20,0.20,0.19,0.19
222.23,6.99,6.81,6.97,6.79,-6.79,-6.83,-6.24,0.20,0.19,0.18
224.45,6.88,6.71,6.89,6.72,-6.73,-6.77,-6.29,0.15,0.17,0.17
226.70,6.81,6.64,6.81,6.64,-6.66,-6.71,-6.33,0.15,0.14,0.17
228.96,6.72,6.56,6.73,6.57,-6.60,-6.64,-6.36,0.12,0.13,0.16
231.25,6.67,6.51,6.68,6.52,-6.52,-6.57,-6.39,0.15,0.15,0.16
233.57,6.63,6.48,6.62,6.46,-6.45,-6.51,-6.42,0.18,0.17,0.16
235.90,6.56,6.40,6.55,6.39,-6.37,-6.43,-6.43,0.19,0.18,0.16
238.26,6.48,6.32,6.48,6.31,-6.29,-6.36,-6.45,0.19,0.18,0.16
240.64,6.37,6.19,6.39,6.22,-6.21,-6.28,-6.45,0.16,0.18,0.18
243.05,6.31,6.13,6.29,6.11,-6.13,-6.20,-6.45,0.18,0.17,0.18
245.48,6.22,6.03,6.20,6.01,-6.04,-6.12,-6.44,0.18,0.16,0.19
247.93,6.08,5.89,6.13,5.94,-5.94,-6.03,-6.42,0.14,0.19,0.19
250.41,6.06,5.86,6.05,5.85,-5.85,-5.95,-6.40,0.21,0.19,0.20
252.92,6.01,5.81,5.97,5.77,-5.77,-5.86,-6.36,0.24,0.20,0.20
255.45,5.85,5.65,5.89,5.69,-5.68,-5.77,-6.32,0.17,0.21,0.20
258.00,5.79,5.60,5.79,5.60,-5.60,-5.68,-6.27,0.19,0.19,0.19
260.58,5.71,5.52,5.69,5.51,-5.52,-5.59,-6.21,0.19,0.17,0.19
263.19,5.61,5.43,5.62,5.43,-5.44,-5.49,-6.15,0.17,0.18,0.18
265.82,5.52,5.34,5.53,5.35,-5.35,-5.40,-6.07,0.17,0.19,0.18
268.48,5.46,5.29,5.45,5.28,-5.26,-5.30,-5.99,0.20,0.19,0.17
271.16,5.37,5.20,5.37,5.19,-5.18,-5.20,-5.90,0.19,0.19,0.17
273.87,5.26,5.09,5.25,5.09,-5.10,-5.10,-5.81,0.16,0.15,0.17
276.61,5.15,4.99,5.14,4.97,-5.02,-4.99,-5.71,0.13,0.12,0.16
279.38,5.01,4.85,5.05,4.89,-4.92,-4.89,-5.61,0.09,0.13,0.16
282.17,4.99,4.82,5.00,4.83,-4.82,-4.78,-5.51,0.17,0.18,0.17
284.99,4.97,4.80,4.94,4.77,-4.71,-4.68,-5.40,0.26,0.23,0.17
287.84,4.86,4.69,4.84,4.67,-4.60,-4.57,-5.29,0.26,0.24,0.17
290.72,4.69,4.51,4.67,4.49,-4.48,-4.46,-5.17,0.21,0.19,0.18
293.63,4.46,4.27,4.50,4.32,-4.36,-4.34,-5.06,0.10,0.14,0.19
296.57,4.34,4.15,4.37,4.18,-4.23,-4.23,-4.94,0.11,0.14,0.19
299.53,4.29,4.10,4.26,4.07,-4.10,-4.11,-4.82,0.19,0.16,0.19
302.53,4.19,3.99,4.16,3.96,-3.96,-3.99,-4.70,0.23,0.20,0.20
305.55,4.01,3.82,4.03,3.84,-3.81,-3.88,-4.59,0.20,0.22,0.19
308.61,3.87,3.68,3.90,3.70,-3.67,-3.76,-4.47,0.20,0.23,0.19
311.69,3.77,3.58,3.74,3.55,-3.53,-3.63,-4.35,0.24,0.21,0.19
314.81,3.60,3.42,3.58,3.40,-3.40,-3.51,-4.24,0.20,0.18,0.18
317.96,3.38,3.20,3.41,3.23,-3.26,-3.39,-4.12,0.12,0.15,0.18
321.14,3.24,3.08,3.24,3.08,-3.12,-3.26,-4.01,0.12,0.13,0.16
324.35,3.10,2.94,3.11,2.95,-2.97,-3.14,-3.90,0.13,0.14,0.16
327.59,3.00,2.85,2.99,2.84,-2.82,-3.01,-3.79,0.18,0.17,0.15
330.87,2.86,2.72,2.85,2.71,-2.67,-2.89,-3.68,0.19,0.18,0.14
334.18,2.69,2.56,2.70,2.57,-2.53,-2.77,-3.57,0.16,0.17,0.13
337.52,2.53,2.42,2.53,2.42,-2.40,-2.64,-3.47,0.13,0.14,0.11
340.90,2.38,2.27,2.36,2.25,-2.27,-2.53,-3.37,0.11,0.09,0.11
344.30,2.20,2.10,2.20,2.10,-2.15,-2.41,-3.27,0.05,0.05,0.10
347.75,2.04,1.96,2.07,1.99,-2.03,-2.30,-3.17,0.01,0.04,0.08
351.23,1.97,1.90,1.98,1.91,-1.92,-2.20,-3.07,0.05,0.06,0.07
354.74,1.95,1.89,1.92,1.86,-1.83,-2.10,-2.98,0.12,0.08,0.06
358.28,1.84,1.79,1.83,1.78,-1.76,-2.01,-2.89,0.08,0.07,0.05
361.87,1.73,1.70,1.72,1.69,-1.70,-1.92,-2.80,0.03,0.03,0.03
365.49,1.60,1.59,1.64,1.62,-1.64,-1.85,-2.71,-0.04,-0.00,0.01
369.14,1.58,1.58,1.59,1.59,-1.59,-1.78,-2.63,-0.01,-0.00,0.00
372.83,1.59,1.60,1.56,1.57,-1.55,-1.72,-2.55,0.04,0.01,-0.01
376.56,1.53,1.55,1.52,1.54,-1.52,-1.67,-2.47,0.01,0.00,-0.02
380.33,1.46,1.49,1.47,1.50,-1.50,-1.63,-2.39,-0.04,-0.03,-0.03
384.13,1.40,1.44,1.42,1.46,-1.49,-1.59,-2.31,-0.09,-0.07,-0.04
387.97,1.40,1.45,1.40,1.45,-1.49,-1.56,-2.24,-0.09,-0.09,-0.05
391.85,1.41,1.47,1.40,1.47,-1.49,-1.54,-2.17,-0.08,-0.09,-0.06
395.77,1.42,1.50,1.43,1.50,-1.49,-1.53,-2.10,-0.07,-0.07,-0.08
399.73,1.43,1.52,1.43,1.51,-1.49,-1.52,-2.03,-0.06,-0.06,-0.09
403.72,1.43,1.53,1.41,1.51,-1.48,-1.51,-1.97,-0.05,-0.07,-0.10
407.76,1.35,1.47,1.37,1.48,-1.46,-1.51,-1.90,-0.11,-0.10,-0.12
411.84,1.31,1.44,1.31,1.44,-1.43,-1.50,-1.84,-0.12,-0.11,-0.13
415.96,1.24,1.38,1.24,1.38,-1.36,-1.51,-1.78,-0.12,-0.12,-0.14
420.12,1.19,1.33,1.17,1.31,-1.29,-1.51,-1.72,-0.09,-0.12,-0.14
424.32,1.06,1.21,1.08,1.23,-1.20,-1.51,-1.66,-0.14,-0.12,-0.15
428.56,0.98,1.13,0.98,1.12,-1.11,-1.51,-1.61,-0.13,-0.14,-0.15
432.85,0.88,1.02,0.86,1.01,-1.04,-1.51,-1.55,-0.16,-0.17,-0.14
437.18,0.77,0.90,0.78,0.91,-0.97,-1.51,-1.50,-0.20,-0.19,-0.13
441.55,0.71,0.82,0.73,0.85,-0.91,-1.51,-1.45,-0.20,-0.18,-0.11
445.96,0.73,0.82,0.74,0.84,-0.87,-1.51,-1.41,-0.14,-0.12,-0.09
450.42,0.81,0.87,0.80,0.86,-0.83,-1.51,-1.36,-0.02,-0.03,-0.06
454.93,0.87,0.90,0.85,0.88,-0.82,-1.51,-1.31,0.05,0.04,-0.03
459.48,0.88,0.87,0.87,0.86,-0.81,-1.50,-1.27,0.07,0.05,0.01
464.07,0.86,0.82,0.86,0.81,-0.82,-1.49,-1.23,0.04,0.04,0.04
468.71,0.84,0.76,0.88,0.79,-0.82,-1.49,-1.19,0.02,0.05,0.08
473.40,0.93,0.81,0.93,0.81,-0.83,-1.48,-1.15,0.10,0.10,0.12
478.13,1.03,0.87,1.01,0.85,-0.84,-1.47,-1.12,0.19,0.17,0.16
482.91,1.09,0.90,1.08,0.89,-0.86,-1.46,-1.08,0.23,0.22,0.19
487.74,1.13,0.91,1.13,0.91,-0.90,-1.45,-1.05,0.23,0.22,0.22
492.62,1.17,0.93,1.18,0.94,-0.96,-1.43,-1.02,0.21,0.22,0.24
497.55,1.24,0.98,1.26,1.00,-1.03,-1.42,-0.99,0.21,0.23,0.26
502.52,1.38,1.11,1.36,1.09,-1.11,-1.41,-0.96,0.27,0.25,0.27
507.55,1.47,1.20,1.46,1.19,-1.19,-1.39,-0.94,0.28,0.27,0.27
512.62,1.54,1.28,1.56,1.30,-1.29,-1.38,-0.91,0.25,0.28,0.26
517.75,1.64,1.40,1.64,1.40,-1.39,-1.36,-0.89,0.25,0.25,0.24
522.93,1.74,1.52,1.71,1.49,-1.50,-1.34,-0.87,0.24,0.21,0.22
528.16,1.75,1.57,1.78,1.60,-1.60,-1.33,-0.85,0.15,0.18,0.18
533.44,1.81,1.68,1.82,1.69,-1.69,-1.31,-0.83,0.12,0.13,0.13
538.77,1.88,1.80,1.86,1.78,-1.77,-1.29,-0.81,0.11,0.08,0.08
