frequency,raw,error,smoothed,error_smoothed,equalization,parametric_eq,fixed_band_eq,equalized_raw,equalized_smoothed,target
20.00,6.51,-0.82,6.48,-0.85,0.73,0.11,-0.32,7.24,7.21,7.33
20.20,6.68,-0.64,6.69,-0.63,0.58,0.09,-0.33,7.26,7.28,7.32
20.40,6.85,-0.47,6.88,-0.43,0.45,0.06,-0.33,7.30,7.33,7.32
20.61,7.02,-0.29,7.04,-0.27,0.33,0.04,-0.34,7.34,7.37,7.31
20.81,7.20,-0.10,7.20,-0.10,0.22,0.01,-0.35,7.42,7.42,7.30
21.02,7.35,0.06,7.29,0.00,0.13,-0.01,-0.36,7.48,7.43,7.29
21.23,7.31,0.02,7.32,0.03,0.06,-0.04,-0.37,7.37,7.39,7.29
21.44,7.28,-0.02,7.29,0.00,0.00,-0.07,-0.38,7.28,7.30,7.30
21.66,7.25,-0.04,7.24,-0.05,-0.00,-0.09,-0.39,7.24,7.24,7.29
21.87,7.22,-0.07,7.22,-0.06,-0.00,-0.12,-0.39,7.21,7.22,7.29
22.09,7.22,-0.06,7.23,-0.05,-0.00,-0.15,-0.40,7.22,7.22,7.28
22.31,7.25,-0.03,7.25,-0.03,-0.00,-0.17,-0.41,7.25,7.24,7.27
22.54,7.29,0.02,7.29,0.01,-0.02,-0.20,-0.42,7.27,7.27,7.26
22.76,7.33,0.05,7.33,0.06,-0.05,-0.23,-0.43,7.28,7.28,7.27
22.99,7.37,0.09,7.37,0.10,-0.08,-0.25,-0.44,7.29,7.28,7.27
23.22,7.40,0.14,7.40,0.13,-0.12,-0.28,-0.46,7.28,7.28,7.26
23.45,7.43,0.17,7.43,0.17,-0.16,-0.31,-0.47,7.27,7.27,7.26
23.69,7.46,0.20,7.46,0.20,-0.19,-0.34,-0.48,7.27,7.27,7.26
23.92,7.49,0.23,7.49,0.22,-0.22,-0.36,-0.49,7.27,7.27,7.26
24.16,7.52,0.25,7.52,0.25,-0.25,-0.39,-0.50,7.27,7.27,7.27
24.40,7.55,0.27,7.55,0.27,-0.28,-0.42,-0.51,7.27,7.27,7.28
24.65,7.58,0.30,7.58,0.30,-0.31,-0.45,-0.53,7.26,7.27,7.28
24.89,7.62,0.34,7.62,0.34,-0.35,-0.48,-0.54,7.27,7.27,7.28
25.14,7.65,0.38,7.65,0.38,-0.39,-0.50,-0.55,7.26,7.27,7.27
25.39,7.70,0.43,7.70,0.43,-0.43,-0.53,-0.57,7.27,7.27,7.27
25.65,7.74,0.47,7.74,0.47,-0.47,-0.56,-0.58,7.27,7.27,7.27
25.91,7.78,0.51,7.78,0.51,-0.51,-0.59,-0.59,7.26,7.27,7.27
26.16,7.82,0.55,7.81,0.55,-0.55,-0.62,-0.61,7.27,7.26,7.26
26.43,7.84,0.58,7.84,0.59,-0.59,-0.65,-0.62,7.25,7.26,7.25
26.69,7.87,0.62,7.87,0.62,-0.61,-0.67,-0.64,7.26,7.26,7.25
26.96,7.90,0.66,7.89,0.65,-0.63,-0.70,-0.65,7.27,7.26,7.24
27.23,7.90,0.67,7.90,0.66,-0.64,-0.73,-0.67,7.26,7.25,7.23
27.50,7.89,0.66,7.89,0.66,-0.65,-0.76,-0.68,7.24,7.24,7.23
27.77,7.88,0.65,7.88,0.65,-0.65,-0.79,-0.70,7.22,7.23,7.23
28.05,7.88,0.65,7.88,0.65,-0.66,-0.82,-0.72,7.21,7.22,7.23
28.33,7.89,0.66,7.88,0.66,-0.69,-0.85,-0.73,7.20,7.20,7.23
28.62,7.90,0.68,7.90,0.68,-0.71,-0.88,-0.75,7.18,7.18,7.21
28.90,7.92,0.70,7.93,0.71,-0.75,-0.91,-0.77,7.17,7.18,7.22
29.19,7.97,0.75,7.98,0.76,-0.78,-0.94,-0.79,7.19,7.20,7.22
29.48,8.06,0.83,8.06,0.83,-0.80,-0.97,-0.80,7.26,7.26,7.23
29.78,8.14,0.91,8.13,0.90,-0.83,-1.00,-0.82,7.31,7.30,7.23
30.08,8.19,0.95,8.16,0.93,-0.85,-1.03,-0.84,7.34,7.31,7.24
30.38,8.14,0.91,8.13,0.91,-0.88,-1.06,-0.86,7.26,7.25,7.23
30.68,8.09,0.87,8.09,0.87,-0.91,-1.09,-0.88,7.18,7.18,7.22
30.99,8.04,0.83,8.08,0.86,-0.95,-1.13,-0.90,7.09,7.13,7.21
31.30,8.13,0.92,8.12,0.91,-0.99,-1.16,-0.92,7.13,7.13,7.21
31.61,8.22,1.01,8.21,1.00,-1.04,-1.19,-0.94,7.18,7.17,7.21
31.93,8.31,1.11,8.30,1.10,-1.09,-1.22,-0.96,7.22,7.21,7.20
32.24,8.37,1.18,8.38,1.19,-1.13,-1.25,-0.98,7.24,7.24,7.19
32.57,8.43,1.25,8.43,1.25,-1.18,-1.29,-1.01,7.25,7.25,7.18
32.89,8.48,1.31,8.46,1.29,-1.23,-1.32,-1.03,7.25,7.23,7.17
33.22,8.47,1.30,8.45,1.29,-1.27,-1.35,-1.05,7.20,7.18,7.17
33.55,8.42,1.25,8.42,1.26,-1.30,-1.38,-1.08,7.12,7.12,7.16
33.89,8.38,1.22,8.40,1.24,-1.32,-1.42,-1.10,7.06,7.09,7.16
34.23,8.42,1.27,8.43,1.28,-1.33,-1.45,-1.13,7.09,7.11,7.15
34.57,8.50,1.35,8.50,1.35,-1.34,-1.48,-1.15,7.16,7.16,7.15
34.92,8.59,1.45,8.56,1.42,-1.36,-1.52,-1.18,7.23,7.20,7.13
35.27,8.58,1.44,8.56,1.43,-1.39,-1.55,-1.21,7.18,7.17,7.14
35.62,8.54,1.42,8.54,1.42,-1.44,-1.59,-1.24,7.10,7.10,7.12
35.97,8.50,1.40,8.53,1.43,-1.49,-1.62,-1.27,7.01,7.05,7.10
36.33,8.57,1.48,8.57,1.48,-1.53,-1.66,-1.30,7.04,7.05,7.09
36.70,8.65,1.57,8.63,1.56,-1.55,-1.69,-1.33,7.09,7.08,7.08
37.06,8.71,1.65,8.69,1.63,-1.58,-1.73,-1.36,7.13,7.12,7.06
37.43,8.71,1.66,8.72,1.67,-1.60,-1.77,-1.39,7.10,7.11,7.05
37.81,8.71,1.68,8.71,1.68,-1.64,-1.80,-1.43,7.06,7.06,7.03
38.19,8.69,1.69,8.67,1.67,-1.69,-1.84,-1.46,7.00,6.98,7.00
38.57,8.65,1.67,8.64,1.67,-1.74,-1.87,-1.50,6.91,6.90,6.98
38.95,8.61,1.66,8.66,1.71,-1.78,-1.91,-1.54,6.83,6.88,6.95
39.34,8.72,1.79,8.73,1.80,-1.82,-1.95,-1.58,6.90,6.91,6.93
39.74,8.85,1.94,8.82,1.92,-1.87,-1.99,-1.62,6.98,6.95,6.90
40.14,8.92,2.04,8.87,2.00,-1.93,-2.03,-1.66,6.99,6.94,6.88
40.54,8.87,2.02,8.87,2.02,-2.00,-2.06,-1.70,6.87,6.88,6.85
40.94,8.82,1.99,8.86,2.03,-2.06,-2.10,-1.75,6.76,6.80,6.83
41.35,8.88,2.07,8.89,2.08,-2.12,-2.14,-1.79,6.76,6.76,6.81
41.76,8.96,2.17,8.94,2.15,-2.17,-2.18,-1.84,6.79,6.77,6.79
42.18,9.01,2.24,8.99,2.23,-2.21,-2.22,-1.89,6.80,6.79,6.77
42.60,9.01,2.27,9.01,2.27,-2.23,-2.26,-1.94,6.78,6.78,6.74
43.03,9.01,2.29,9.02,2.29,-2.26,-2.30,-1.99,6.75,6.76,6.72
43.46,9.01,2.31,9.01,2.31,-2.29,-2.34,-2.04,6.72,6.72,6.70
43.90,9.01,2.34,9.00,2.32,-2.33,-2.38,-2.10,6.68,6.67,6.67
44.33,8.98,2.33,8.97,2.32,-2.36,-2.42,-2.15,6.62,6.61,6.65
44.78,8.95,2.33,8.96,2.34,-2.40,-2.46,-2.21,6.55,6.57,6.62
45.23,8.97,2.37,8.99,2.40,-2.44,-2.50,-2.27,6.53,6.55,6.60
45.68,9.05,2.49,9.04,2.48,-2.48,-2.55,-2.33,6.57,6.56,6.56
46.13,9.11,2.59,9.09,2.56,-2.52,-2.59,-2.39,6.58,6.56,6.52
46.60,9.11,2.61,9.11,2.62,-2.57,-2.63,-2.46,6.54,6.54,6.49
47.06,9.11,2.64,9.12,2.65,-2.62,-2.67,-2.52,6.49,6.50,6.47
47.53,9.11,2.67,9.11,2.68,-2.67,-2.72,-2.59,6.44,6.44,6.44
48.01,9.11,2.73,9.09,2.70,-2.72,-2.76,-2.66,6.38,6.37,6.38
48.49,9.08,2.73,9.08,2.73,-2.77,-2.80,-2.73,6.31,6.30,6.35
48.97,9.05,2.74,9.09,2.79,-2.82,-2.85,-2.80,6.23,6.26,6.31
49.46,9.12,2.85,9.12,2.85,-2.87,-2.89,-2.87,6.25,6.25,6.26
49.96,9.19,2.97,9.16,2.94,-2.92,-2.93,-2.94,6.27,6.24,6.21
50.46,9.20,3.01,9.20,3.01,-2.98,-2.98,-3.02,6.22,6.22,6.19
50.96,9.21,3.05,9.21,3.06,-3.03,-3.02,-3.09,6.18,6.18,6.16
51.47,9.21,3.08,9.21,3.09,-3.08,-3.07,-3.17,6.13,6.13,6.13
51.99,9.21,3.13,9.21,3.12,-3.12,-3.11,-3.24,6.08,6.09,6.08
52.51,9.21,3.16,9.21,3.16,-3.16,-3.16,-3.32,6.05,6.05,6.05
53.03,9.21,3.19,9.21,3.20,-3.20,-3.20,-3.39,6.01,6.01,6.02
53.56,9.21,3.24,9.21,3.23,-3.24,-3.25,-3.47,5.97,5.97,5.97
54.10,9.21,3.28,9.19,3.26,-3.28,-3.29,-3.54,5.92,5.91,5.93
54.64,9.18,3.29,9.19,3.31,-3.33,-3.34,-3.61,5.84,5.86,5.89
55.18,9.20,3.35,9.22,3.37,-3.39,-3.38,-3.68,5.81,5.83,5.84
55.74,9.27,3.46,9.25,3.44,-3.44,-3.43,-3.75,5.83,5.81,5.81
56.29,9.31,3.53,9.29,3.52,-3.50,-3.48,-3.82,5.81,5.80,5.78
56.86,9.31,3.56,9.31,3.57,-3.55,-3.52,-3.89,5.76,5.77,5.75
57.42,9.31,3.61,9.31,3.60,-3.59,-3.57,-3.95,5.72,5.72,5.69
58.00,9.31,3.63,9.31,3.63,-3.63,-3.61,-4.01,5.68,5.67,5.68
58.58,9.31,3.65,9.31,3.66,-3.66,-3.66,-4.07,5.65,5.65,5.66
59.16,9.31,3.68,9.32,3.69,-3.68,-3.71,-4.12,5.62,5.64,5.63
59.76,9.33,3.73,9.31,3.72,-3.71,-3.75,-4.17,5.62,5.60,5.59
60.35,9.29,3.75,9.28,3.73,-3.73,-3.80,-4.21,5.56,5.55,5.54
60.96,9.22,3.71,9.24,3.74,-3.75,-3.84,-4.26,5.47,5.49,5.51
61.57,9.21,3.75,9.21,3.76,-3.78,-3.89,-4.29,5.43,5.43,5.46
62.18,9.21,3.80,9.20,3.80,-3.81,-3.94,-4.33,5.40,5.39,5.40
62.80,9.21,3.86,9.21,3.86,-3.85,-3.98,-4.36,5.36,5.36,5.35
63.43,9.21,3.90,9.21,3.90,-3.89,-4.03,-4.38,5.32,5.32,5.30
64.07,9.21,3.95,9.21,3.95,-3.94,-4.07,-4.40,5.27,5.27,5.26
64.71,9.21,3.99,9.20,3.98,-3.99,-4.12,-4.42,5.21,5.21,5.22
65.35,9.21,4.03,9.21,4.03,-4.05,-4.16,-4.43,5.15,5.15,5.18
66.01,9.21,4.07,9.23,4.10,-4.11,-4.21,-4.44,5.09,5.12,5.14
66.67,9.28,4.18,9.27,4.17,-4.17,-4.25,-4.45,5.11,5.09,5.10
67.33,9.31,4.27,9.30,4.25,-4.23,-4.30,-4.45,5.08,5.06,5.04
68.01,9.31,4.31,9.31,4.31,-4.29,-4.34,-4.45,5.02,5.03,5.00
68.69,9.31,4.35,9.31,4.36,-4.35,-4.39,-4.45,4.96,4.96,4.96
69.37,9.31,4.39,9.31,4.40,-4.40,-4.43,-4.45,4.90,4.90,4.91
70.07,9.31,4.45,9.31,4.44,-4.46,-4.47,-4.44,4.85,4.85,4.86
70.77,9.31,4.49,9.31,4.49,-4.51,-4.52,-4.43,4.80,4.80,4.82
71.48,9.31,4.54,9.31,4.54,-4.54,-4.56,-4.42,4.76,4.76,4.77
72.19,9.31,4.58,9.31,4.59,-4.58,-4.60,-4.42,4.73,4.73,4.73
72.91,9.31,4.64,9.31,4.64,-4.61,-4.64,-4.41,4.70,4.70,4.67
73.64,9.31,4.68,9.29,4.67,-4.64,-4.69,-4.40,4.67,4.65,4.62
74.38,9.27,4.68,9.26,4.68,-4.67,-4.73,-4.39,4.60,4.59,4.59
75.12,9.21,4.66,9.23,4.68,-4.70,-4.77,-4.38,4.51,4.53,4.55
75.87,9.21,4.69,9.21,4.70,-4.72,-4.81,-4.38,4.48,4.48,4.52
76.63,9.21,4.74,9.20,4.73,-4.75,-4.85,-4.37,4.46,4.45,4.47
77.40,9.21,4.77,9.21,4.78,-4.77,-4.88,-4.37,4.43,4.43,4.43
78.17,9.21,4.82,9.21,4.81,-4.80,-4.92,-4.37,4.41,4.41,4.39
78.95,9.21,4.84,9.21,4.84,-4.84,-4.96,-4.37,4.37,4.37,4.37
79.74,9.21,4.87,9.21,4.88,-4.88,-5.00,-4.37,4.33,4.33,4.33
80.54,9.21,4.91,9.21,4.91,-4.91,-5.03,-4.38,4.29,4.29,4.30
81.35,9.21,4.94,9.21,4.94,-4.95,-5.07,-4.39,4.26,4.26,4.26
82.16,9.21,4.97,9.21,4.98,-4.98,-5.10,-4.40,4.23,4.24,4.24
82.98,9.21,5.02,9.21,5.02,-5.00,-5.14,-4.41,4.21,4.21,4.19
83.81,9.21,5.06,9.20,5.05,-5.03,-5.17,-4.43,4.18,4.17,4.15
84.65,9.18,5.06,9.17,5.06,-5.05,-5.20,-4.45,4.13,4.12,4.11
85.50,9.14,5.06,9.14,5.07,-5.08,-5.24,-4.48,4.06,4.07,4.07
86.35,9.11,5.07,9.12,5.08,-5.11,-5.27,-4.50,4.00,4.01,4.03
87.22,9.11,5.12,9.11,5.11,-5.14,-5.30,-4.54,3.97,3.97,3.99
88.09,9.11,5.16,9.11,5.15,-5.17,-5.33,-4.57,3.94,3.94,3.95
88.97,9.11,5.20,9.11,5.20,-5.20,-5.36,-4.61,3.91,3.91,3.91
89.86,9.11,5.24,9.11,5.25,-5.23,-5.38,-4.65,3.88,3.88,3.87
90.76,9.11,5.29,9.10,5.28,-5.26,-5.41,-4.69,3.85,3.84,3.82
91.66,9.09,5.32,9.08,5.30,-5.29,-5.44,-4.74,3.80,3.78,3.77
92.58,9.04,5.31,9.05,5.32,-5.32,-5.46,-4.79,3.72,3.73,3.72
93.51,9.01,5.33,9.02,5.34,-5.34,-5.49,-4.85,3.66,3.68,3.68
94.44,9.01,5.37,8.99,5.36,-5.37,-5.51,-4.91,3.64,3.62,3.63
95.39,8.98,5.40,8.96,5.38,-5.40,-5.54,-4.97,3.58,3.57,3.58
96.34,8.91,5.39,8.93,5.41,-5.42,-5.56,-5.03,3.48,3.51,3.52
97.30,8.90,5.43,8.90,5.44,-5.45,-5.58,-5.10,3.45,3.45,3.47
98.28,8.89,5.48,8.89,5.48,-5.48,-5.60,-5.17,3.41,3.41,3.41
99.26,8.88,5.54,8.88,5.53,-5.50,-5.62,-5.24,3.38,3.38,3.34
100.25,8.86,5.57,8.84,5.55,-5.53,-5.64,-5.32,3.33,3.31,3.28
101.25,8.80,5.56,8.80,5.56,-5.56,-5.66,-5.39,3.24,3.24,3.24
102.27,8.73,5.55,8.75,5.57,-5.59,-5.68,-5.47,3.14,3.16,3.18
103.29,8.72,5.60,8.71,5.59,-5.62,-5.69,-5.55,3.10,3.10,3.12
104.32,8.70,5.62,8.69,5.62,-5.64,-5.71,-5.63,3.06,3.05,3.07
105.37,8.68,5.67,8.68,5.67,-5.66,-5.72,-5.71,3.02,3.02,3.01
106.42,8.65,5.69,8.66,5.70,-5.68,-5.74,-5.79,2.97,2.98,2.96
107.48,8.63,5.74,8.61,5.72,-5.70,-5.75,-5.88,2.93,2.92,2.89
108.56,8.57,5.73,8.56,5.72,-5.72,-5.77,-5.96,2.85,2.84,2.84
109.64,8.49,5.70,8.51,5.72,-5.74,-5.78,-6.04,2.75,2.77,2.78
110.74,8.46,5.73,8.46,5.73,-5.75,-5.79,-6.11,2.71,2.71,2.73
111.85,8.44,5.76,8.44,5.76,-5.76,-5.80,-6.19,2.67,2.68,2.68
112.97,8.43,5.80,8.42,5.78,-5.77,-5.81,-6.26,2.65,2.64,2.63
114.10,8.39,5.80,8.38,5.80,-5.79,-5.82,-6.33,2.60,2.60,2.59
115.24,8.33,5.81,8.34,5.82,-5.80,-5.83,-6.40,2.52,2.54,2.52
116.39,8.31,5.83,8.30,5.82,-5.83,-5.84,-6.46,2.48,2.47,2.47
117.55,8.26,5.83,8.26,5.84,-5.86,-5.85,-6.51,2.40,2.41,2.43
118.73,8.24,5.85,8.25,5.86,-5.89,-5.86,-6.56,2.35,2.36,2.38
119.92,8.24,5.90,8.24,5.89,-5.91,-5.87,-6.60,2.33,2.33,2.34
121.12,8.25,5.93,8.25,5.94,-5.93,-5.88,-6.64,2.31,2.32,2.32
122.33,8.26,5.99,8.26,5.98,-5.96,-5.88,-6.67,2.30,2.30,2.27
123.55,8.27,6.03,8.25,6.01,-5.98,-5.89,-6.69,2.29,2.27,2.24
124.79,8.22,6.01,8.22,6.02,-6.00,-5.90,-6.71,2.22,2.22,2.21
126.03,8.18,6.01,8.17,6.01,-6.01,-5.90,-6.71,2.16,2.16,2.16
127.29,8.12,5.99,8.13,6.00,-6.03,-5.91,-6.71,2.09,2.10,2.12
128.57,8.09,6.01,8.10,6.02,-6.04,-5.92,-6.71,2.05,2.07,2.08
129.85,8.10,6.05,8.09,6.04,-6.05,-5.92,-6.70,2.05,2.04,2.05
131.15,8.10,6.08,8.08,6.07,-6.07,-5.93,-6.68,2.03,2.01,2.01
132.46,8.06,6.08,8.06,6.08,-6.09,-5.94,-6.65,1.97,1.97,1.98
133.79,8.02,6.09,8.03,6.10,-6.10,-5.94,-6.62,1.91,1.93,1.93
135.12,8.01,6.12,8.02,6.13,-6.12,-5.95,-6.58,1.89,1.90,1.89
136.48,8.02,6.16,8.02,6.16,-6.13,-5.95,-6.54,1.89,1.89,1.86
137.84,8.02,6.20,7.98,6.17,-6.14,-5.96,-6.49,1.88,1.84,1.82
139.22,7.93,6.16,7.93,6.15,-6.15,-5.97,-6.44,1.78,1.78,1.77
140.61,7.84,6.10,7.87,6.13,-6.16,-5.97,-6.39,1.68,1.71,1.74
142.02,7.82,6.12,7.82,6.12,-6.17,-5.98,-6.34,1.65,1.66,1.70
143.44,7.82,6.16,7.82,6.15,-6.17,-5.98,-6.28,1.65,1.64,1.66
144.87,7.82,6.19,7.82,6.19,-6.17,-5.99,-6.22,1.65,1.64,1.63
146.32,7.81,6.22,7.80,6.21,-6.18,-6.00,-6.17,1.63,1.62,1.59
147.78,7.76,6.21,7.75,6.20,-6.18,-6.00,-6.11,1.58,1.57,1.55
149.26,7.69,6.18,7.69,6.18,-6.19,-6.01,-6.05,1.50,1.51,1.51
150.75,7.63,6.17,7.65,6.18,-6.19,-6.02,-5.99,1.44,1.46,1.46
152.26,7.62,6.18,7.62,6.19,-6.20,-6.03,-5.94,1.42,1.42,1.44
153.78,7.62,6.23,7.59,6.19,-6.21,-6.03,-5.88,1.41,1.38,1.39
155.32,7.55,6.18,7.55,6.19,-6.21,-6.04,-5.83,1.34,1.34,1.36
156.88,7.50,6.18,7.53,6.21,-6.22,-6.05,-5.78,1.28,1.31,1.32
158.44,7.51,6.23,7.52,6.24,-6.23,-6.06,-5.74,1.28,1.29,1.28
160.03,7.53,6.29,7.51,6.27,-6.24,-6.07,-5.69,1.29,1.27,1.24
161.63,7.50,6.31,7.46,6.27,-6.25,-6.08,-5.65,1.25,1.22,1.19
163.24,7.37,6.23,7.40,6.25,-6.25,-6.09,-5.62,1.12,1.15,1.14
164.88,7.31,6.21,7.34,6.24,-6.25,-6.09,-5.58,1.06,1.09,1.10
166.53,7.31,6.25,7.29,6.24,-6.25,-6.10,-5.55,1.06,1.04,1.05
168.19,7.28,6.26,7.26,6.25,-6.24,-6.11,-5.53,1.04,1.02,1.02
169.87,7.21,6.24,7.21,6.24,-6.24,-6.12,-5.51,0.97,0.97,0.97
171.57,7.14,6.22,7.15,6.22,-6.23,-6.13,-5.49,0.91,0.91,0.92
173.29,7.09,6.20,7.11,6.23,-6.23,-6.14,-5.48,0.85,0.88,0.88
175.02,7.08,6.24,7.07,6.23,-6.24,-6.15,-5.47,0.84,0.83,0.84
176.77,7.08,6.28,7.04,6.24,-6.24,-6.16,-5.46,0.84,0.80,0.79
178.54,6.96,6.20,7.01,6.25,-6.24,-6.17,-5.46,0.72,0.77,0.76
180.32,6.97,6.25,6.97,6.25,-6.24,-6.18,-5.46,0.73,0.73,0.72
182.13,6.96,6.28,6.93,6.25,-6.25,-6.19,-5.47,0.71,0.68,0.68
183.95,6.89,6.24,6.88,6.24,-6.25,-6.20,-5.48,0.64,0.63,0.64
185.79,6.82,6.22,6.84,6.24,-6.25,-6.21,-5.50,0.57,0.60,0.60
187.65,6.79,6.22,6.82,6.25,-6.25,-6.21,-5.52,0.54,0.58,0.57
189.52,6.85,6.32,6.80,6.26,-6.25,-6.22,-5.54,0.60,0.55,0.53
191.42,6.79,6.28,6.76,6.25,-6.25,-6.23,-5.57,0.54,0.51,0.51
193.33,6.67,6.19,6.72,6.24,-6.25,-6.23,-5.60,0.41,0.46,0.47
195.27,6.66,6.22,6.68,6.24,-6.26,-6.24,-5.63,0.40,0.42,0.44
197.22,6.69,6.29,6.66,6.26,-6.27,-6.24,-5.67,0.42,0.40,0.40
199.19,6.67,6.30,6.65,6.28,-6.27,-6.25,-5.71,0.40,0.38,0.37
201.18,6.61,6.27,6.61,6.27,-6.26,-6.25,-5.75,0.35,0.34,0.34
203.19,6.54,6.23,6.57,6.26,-6.25,-6.25,-5.79,0.29,0.32,0.31
205.23,6.53,6.24,6.54,6.26,-6.24,-6.25,-5.84,0.29,0.30,0.29
207.28,6.55,6.29,6.50,6.24,-6.23,-6.25,-5.89,0.32,0.27,0.26
209.35,6.45,6.23,6.43,6.21,-6.21,-6.25,-5.94,0.24,0.22,0.22
211.44,6.31,6.12,6.36,6.17,-6.18,-6.24,-5.99,0.13,0.18,0.19
213.56,6.28,6.12,6.29,6.13,-6.15,-6.24,-6.04,0.13,0.14,0.16
215.69,6.30,6.16,6.26,6.12,-6.12,-6.23,-6.09,0.17,0.13,0.14
217.85,6.22,6.10,6.23,6.12,-6.10,-6.22,-6.13,0.12,0.13,0.11
220.03,6.16,6.09,6.16,6.08,-6.07,-6.21,-6.18,0.09,0.09,0.07
222.23,6.11,6.06,6.07,6.02,-6.05,-6.19,-6.23,0.06,0.03,0.05
224.45,5.99,5.96,6.04,6.01,-6.02,-6.18,-6.27,-0.04,0.01,0.03
226.70,5.98,5.97,6.00,5.99,-6.00,-6.16,-6.31,-0.02,0.01,0.01
228.96,6.04,6.04,5.98,5.98,-5.97,-6.14,-6.35,0.07,0.01,-0.00
231.25,5.93,5.95,5.94,5.96,-5.94,-6.11,-6.38,-0.01,-0.00,-0.02
233.57,5.88,5.91,5.89,5.93,-5.91,-6.09,-6.40,-0.03,-0.02,-0.03
235.90,5.80,5.85,5.82,5.87,-5.87,-6.06,-6.42,-0.08,-0.05,-0.05
238.26,5.82,5.88,5.77,5.82,-5.84,-6.03,-6.44,-0.02,-0.07,-0.06
240.64,5.71,5.76,5.74,5.79,-5.79,-6.00,-6.44,-0.08,-0.05,-0.05
243.05,5.68,5.73,5.72,5.78,-5.75,-5.97,-6.44,-0.07,-0.03,-0.06
245.48,5.73,5.78,5.66,5.72,-5.71,-5.93,-6.44,0.02,-0.05,-0.05
247.93,5.63,5.69,5.61,5.66,-5.68,-5.89,-6.42,-0.05,-0.07,-0.06
250.41,5.50,5.55,5.56,5.61,-5.65,-5.85,-6.40,-0.15,-0.09,-0.05
252.92,5.52,5.56,5.54,5.59,-5.62,-5.81,-6.37,-0.10,-0.08,-0.05
255.45,5.57,5.63,5.54,5.59,-5.59,-5.76,-6.33,-0.02,-0.05,-0.06
258.00,5.57,5.64,5.51,5.58,-5.55,-5.71,-6.28,0.02,-0.04,-0.07
260.58,5.42,5.49,5.48,5.55,-5.51,-5.66,-6.23,-0.10,-0.04,-0.08
263.19,5.37,5.45,5.41,5.49,-5.47,-5.61,-6.16,-0.11,-0.07,-0.08
265.82,5.42,5.51,5.32,5.41,-5.43,-5.55,-6.10,-0.01,-0.11,-0.09
268.48,5.24,5.34,5.28,5.38,-5.37,-5.50,-6.02,-0.13,-0.10,-0.10
271.16,5.15,5.27,5.21,5.33,-5.32,-5.44,-5.94,-0.17,-0.10,-0.12
273.87,5.20,5.32,5.12,5.25,-5.26,-5.38,-5.85,-0.07,-0.15,-0.12
276.61,5.07,5.21,5.05,5.19,-5.22,-5.31,-5.76,-0.15,-0.17,-0.14
279.38,4.94,5.09,5.00,5.15,-5.18,-5.25,-5.67,-0.24,-0.18,-0.15
282.17,4.95,5.10,4.96,5.11,-5.14,-5.19,-5.57,-0.19,-0.19,-0.15
284.99,4.99,5.14,4.95,5.10,-5.10,-5.12,-5.47,-0.12,-0.15,-0.15
287.84,4.95,5.10,4.95,5.10,-5.06,-5.05,-5.36,-0.11,-0.12,-0.15
290.72,4.90,5.06,4.92,5.08,-5.02,-4.98,-5.25,-0.12,-0.10,-0.16
293.63,4.84,5.00,4.83,4.99,-4.98,-4.91,-5.15,-0.14,-0.14,-0.17
296.57,4.80,4.96,4.75,4.91,-4.92,-4.84,-5.04,-0.12,-0.18,-0.16
299.53,4.61,4.76,4.70,4.85,-4.87,-4.77,-4.93,-0.26,-0.17,-0.15
302.53,4.64,4.80,4.63,4.79,-4.81,-4.69,-4.82,-0.17,-0.17,-0.16
305.55,4.65,4.81,4.56,4.72,-4.74,-4.62,-4.71,-0.09,-0.18,-0.16
308.61,4.47,4.62,4.53,4.69,-4.67,-4.55,-4.60,-0.21,-0.14,-0.15
311.69,4.44,4.60,4.46,4.62,-4.61,-4.47,-4.49,-0.18,-0.15,-0.16
314.81,4.45,4.61,4.38,4.54,-4.56,-4.40,-4.39,-0.11,-0.18,-0.16
317.96,4.32,4.48,4.35,4.52,-4.50,-4.32,-4.28,-0.19,-0.15,-0.16
321.14,4.25,4.41,4.29,4.46,-4.45,-4.24,-4.18,-0.20,-0.16,-0.17
324.35,4.30,4.47,4.21,4.37,-4.39,-4.17,-4.08,-0.09,-0.18,-0.17
327.59,4.13,4.29,4.17,4.33,-4.33,-4.09,-3.98,-0.20,-0.17,-0.16
330.87,4.06,4.22,4.11,4.28,-4.27,-4.02,-3.88,-0.21,-0.15,-0.16
334.18,4.10,4.27,4.03,4.20,-4.20,-3.94,-3.79,-0.11,-0.17,-0.18
337.52,3.99,4.16,3.98,4.15,-4.14,-3.86,-3.70,-0.15,-0.15,-0.17
340.90,3.88,4.04,3.92,4.08,-4.07,-3.79,-3.61,-0.19,-0.15,-0.16
344.30,3.84,3.99,3.83,3.99,-4.00,-3.71,-3.52,-0.16,-0.17,-0.15
347.75,3.78,3.93,3.77,3.92,-3.93,-3.64,-3.43,-0.15,-0.16,-0.16
351.23,3.70,3.86,3.71,3.86,-3.86,-3.56,-3.35,-0.16,-0.15,-0.16
354.74,3.65,3.79,3.64,3.79,-3.79,-3.49,-3.27,-0.14,-0.15,-0.14
358.28,3.58,3.72,3.58,3.72,-3.72,-3.41,-3.19,-0.14,-0.14,-0.14
361.87,3.52,3.65,3.53,3.66,-3.65,-3.34,-3.12,-0.13,-0.12,-0.13
365.49,3.48,3.60,3.46,3.59,-3.59,-3.27,-3.05,-0.11,-0.12,-0.12
369.14,3.40,3.51,3.41,3.52,-3.53,-3.19,-2.98,-0.13,-0.12,-0.12
372.83,3.34,3.45,3.35,3.46,-3.47,-3.12,-2.91,-0.13,-0.12,-0.11
376.56,3.30,3.42,3.29,3.40,-3.41,-3.05,-2.84,-0.11,-0.12,-0.12
380.33,3.23,3.34,3.24,3.35,-3.35,-2.98,-2.78,-0.12,-0.11,-0.11
384.13,3.19,3.30,3.19,3.30,-3.29,-2.91,-2.72,-0.10,-0.10,-0.11
387.97,3.14,3.24,3.14,3.25,-3.23,-2.84,-2.66,-0.09,-0.09,-0.10
391.85,3.08,3.18,3.08,3.19,-3.17,-2.77,-2.60,-0.09,-0.09,-0.10
395.77,3.02,3.13,2.98,3.10,-3.10,-2.70,-2.55,-0.09,-0.12,-0.12
399.73,2.88,3.01,2.91,3.03,-3.04,-2.63,-2.50,-0.16,-0.13,-0.13
403.72,2.81,2.93,2.84,2.97,-2.97,-2.56,-2.45,-0.17,-0.13,-0.12
407.76,2.83,2.96,2.77,2.90,-2.91,-2.50,-2.40,-0.08,-0.14,-0.13
411.84,2.70,2.84,2.71,2.85,-2.84,-2.43,-2.35,-0.15,-0.14,-0.14
415.96,2.61,2.75,2.64,2.79,-2.78,-2.36,-2.30,-0.17,-0.14,-0.14
420.12,2.58,2.73,2.56,2.71,-2.71,-2.30,-2.26,-0.13,-0.15,-0.15
424.32,2.52,2.66,2.51,2.65,-2.65,-2.23,-2.21,-0.13,-0.14,-0.14
428.56,2.45,2.57,2.47,2.60,-2.58,-2.17,-2.17,-0.13,-0.11,-0.12
432.85,2.42,2.52,2.42,2.53,-2.51,-2.11,-2.13,-0.10,-0.09,-0.10
437.18,2.40,2.48,2.36,2.44,-2.45,-2.04,-2.08,-0.05,-0.09,-0.09
441.55,2.31,2.36,2.31,2.37,-2.38,-1.98,-2.04,-0.07,-0.07,-0.06
445.96,2.24,2.26,2.29,2.31,-2.32,-1.92,-2.00,-0.08,-0.02,-0.02
450.42,2.30,2.27,2.27,2.24,-2.25,-1.86,-1.96,0.04,0.02,0.03
454.93,2.32,2.24,2.27,2.19,-2.19,-1.80,-1.92,0.13,0.08,0.08
459.48,2.23,2.10,2.28,2.15,-2.13,-1.74,-1.88,0.10,0.15,0.13
464.07,2.27,2.07,2.27,2.07,-2.07,-1.68,-1.84,0.20,0.19,0.20
468.71,2.30,2.04,2.25,2.00,-2.01,-1.62,-1.80,0.29,0.24,0.26
473.40,2.23,1.92,2.27,1.95,-1.94,-1.56,-1.76,0.28,0.32,0.31
478.13,2.24,1.87,2.26,1.89,-1.87,-1.50,-1.72,0.37,0.39,0.37
482.91,2.28,1.86,2.23,1.81,-1.80,-1.45,-1.68,0.48,0.43,0.42
487.74,2.20,1.73,2.21,1.74,-1.72,-1.39,-1.63,0.48,0.48,0.47
492.62,2.13,1.62,2.15,1.65,-1.65,-1.33,-1.59,0.48,0.50,0.51
497.55,2.10,1.56,2.09,1.55,-1.57,-1.28,-1.55,0.52,0.51,0.54
502.52,2.04,1.47,2.04,1.47,-1.50,-1.22,-1.50,0.54,0.54,0.57
507.55,2.00,1.40,2.01,1.42,-1.43,-1.16,-1.45,0.57,0.58,0.60
512.62,1.96,1.35,1.97,1.36,-1.36,-1.11,-1.41,0.60,0.61,0.61
517.75,1.95,1.33,1.92,1.31,-1.29,-1.05,-1.36,0.66,0.63,0.61
522.93,1.85,1.24,1.85,1.24,-1.22,-1.00,-1.31,0.63,0.63,0.60
528.16,1.74,1.14,1.75,1.16,-1.15,-0.94,-1.26,0.59,0.60,0.59
