frequency,raw,error,smoothed,error_smoothed,equalization,parametric_eq,fixed_band_eq,equalized_raw,equalized_smoothed,target
20.00,-5.54,-4.97,-5.54,-4.97,4.97,4.45,1.45,-0.57,-0.58,-0.57
20.20,-5.49,-4.89,-5.49,-4.89,4.89,4.42,1.49,-0.60,-0.60,-0.60
20.40,-5.43,-4.81,-5.43,-4.81,4.81,4.40,1.54,-0.62,-0.62,-0.62
20.61,-5.38,-4.74,-5.38,-4.73,4.73,4.37,1.58,-0.65,-0.64,-0.64
20.81,-5.32,-4.66,-5.32,-4.66,4.66,4.35,1.63,-0.66,-0.66,-0.66
21.02,-5.27,-4.59,-5.27,-4.59,4.59,4.32,1.68,-0.68,-0.68,-0.68
21.23,-5.22,-4.52,-5.22,-4.52,4.52,4.30,1.73,-0.70,-0.70,-0.70
21.44,-5.17,-4.45,-5.17,-4.45,4.45,4.27,1.78,-0.72,-0.72,-0.72
21.66,-5.12,-4.38,-5.12,-4.38,4.38,4.24,1.83,-0.74,-0.74,-0.74
21.87,-5.07,-4.32,-5.07,-4.31,4.31,4.21,1.89,-0.76,-0.76,-0.75
22.09,-5.02,-4.25,-5.02,-4.25,4.25,4.19,1.94,-0.77,-0.77,-0.77
22.31,-4.97,-4.19,-4.97,-4.18,4.18,4.16,2.00,-0.79,-0.78,-0.78
22.54,-4.91,-4.12,-4.91,-4.12,4.12,4.13,2.06,-0.79,-0.79,-0.79
22.76,-4.86,-4.06,-4.86,-4.06,4.06,4.10,2.12,-0.80,-0.80,-0.80
22.99,-4.82,-4.01,-4.82,-4.01,4.01,4.07,2.18,-0.81,-0.81,-0.81
23.22,-4.78,-3.96,-4.78,-3.95,3.96,4.04,2.25,-0.82,-0.82,-0.82
23.45,-4.74,-3.91,-4.74,-3.91,3.91,4.01,2.31,-0.83,-0.83,-0.83
23.69,-4.70,-3.86,-4.70,-3.86,3.87,3.98,2.38,-0.83,-0.84,-0.84
23.92,-4.67,-3.83,-4.67,-3.82,3.83,3.95,2.45,-0.84,-0.84,-0.84
24.16,-4.64,-3.79,-4.64,-3.79,3.79,3.92,2.52,-0.85,-0.85,-0.85
24.40,-4.60,-3.75,-4.60,-3.75,3.74,3.89,2.58,-0.86,-0.86,-0.85
24.65,-4.57,-3.71,-4.57,-3.71,3.70,3.86,2.66,-0.87,-0.87,-0.86
24.89,-4.54,-3.68,-4.54,-3.67,3.66,3.83,2.73,-0.88,-0.87,-0.86
25.14,-4.50,-3.63,-4.50,-3.63,3.62,3.79,2.80,-0.88,-0.88,-0.87
25.39,-4.46,-3.58,-4.46,-3.58,3.58,3.76,2.87,-0.88,-0.88,-0.88
25.65,-4.42,-3.54,-4.42,-3.53,3.54,3.73,2.94,-0.88,-0.88,-0.88
25.91,-4.38,-3.49,-4.38,-3.50,3.51,3.69,3.01,-0.87,-0.88,-0.89
26.16,-4.36,-3.47,-4.36,-3.46,3.47,3.66,3.09,-0.89,-0.88,-0.89
26.43,-4.33,-3.44,-4.33,-3.44,3.44,3.63,3.16,-0.89,-0.89,-0.89
26.69,-4.32,-3.42,-4.32,-3.42,3.42,3.59,3.23,-0.90,-0.90,-0.90
26.96,-4.30,-3.40,-4.30,-3.39,3.39,3.56,3.30,-0.91,-0.91,-0.90
27.23,-4.28,-3.37,-4.28,-3.37,3.36,3.52,3.36,-0.92,-0.92,-0.91
27.50,-4.26,-3.35,-4.26,-3.34,3.34,3.49,3.43,-0.92,-0.92,-0.91
27.77,-4.23,-3.32,-4.23,-3.31,3.31,3.45,3.49,-0.92,-0.92,-0.91
28.05,-4.20,-3.28,-4.20,-3.28,3.29,3.42,3.55,-0.91,-0.91,-0.92
28.33,-4.17,-3.25,-4.17,-3.25,3.26,3.38,3.60,-0.91,-0.91,-0.92
28.62,-4.15,-3.23,-4.15,-3.22,3.24,3.34,3.65,-0.91,-0.91,-0.92
28.90,-4.13,-3.20,-4.13,-3.20,3.21,3.31,3.70,-0.92,-0.92,-0.93
29.19,-4.12,-3.19,-4.12,-3.19,3.18,3.27,3.75,-0.94,-0.93,-0.93
29.48,-4.10,-3.17,-4.10,-3.17,3.15,3.23,3.78,-0.95,-0.94,-0.93
29.78,-4.07,-3.14,-4.07,-3.14,3.12,3.19,3.82,-0.95,-0.95,-0.93
30.08,-4.03,-3.10,-4.03,-3.09,3.08,3.16,3.84,-0.95,-0.95,-0.93
30.38,-3.98,-3.04,-3.98,-3.04,3.04,3.12,3.86,-0.94,-0.94,-0.94
30.68,-3.93,-2.99,-3.93,-2.99,2.99,3.08,3.88,-0.94,-0.94,-0.94
30.99,-3.88,-2.94,-3.88,-2.94,2.94,3.04,3.89,-0.94,-0.94,-0.94
31.30,-3.83,-2.89,-3.83,-2.88,2.88,3.00,3.89,-0.95,-0.94,-0.94
31.61,-3.77,-2.82,-3.78,-2.83,2.83,2.96,3.89,-0.94,-0.94,-0.95
31.93,-3.73,-2.78,-3.73,-2.78,2.79,2.92,3.88,-0.94,-0.94,-0.95
32.24,-3.69,-2.74,-3.69,-2.73,2.75,2.88,3.86,-0.94,-0.94,-0.95
32.57,-3.66,-2.70,-3.66,-2.70,2.71,2.84,3.84,-0.95,-0.95,-0.96
32.89,-3.64,-2.68,-3.64,-2.68,2.68,2.81,3.81,-0.96,-0.96,-0.96
33.22,-3.62,-2.66,-3.62,-2.65,2.65,2.77,3.78,-0.97,-0.97,-0.96
33.55,-3.60,-2.63,-3.60,-2.63,2.61,2.73,3.74,-0.99,-0.98,-0.97
33.89,-3.57,-2.60,-3.57,-2.60,2.58,2.69,3.70,-0.99,-0.99,-0.97
34.23,-3.53,-2.56,-3.53,-2.56,2.55,2.65,3.65,-0.98,-0.98,-0.97
34.57,-3.50,-2.52,-3.50,-2.52,2.52,2.61,3.60,-0.98,-0.98,-0.98
34.92,-3.46,-2.48,-3.46,-2.48,2.49,2.57,3.54,-0.97,-0.97,-0.98
35.27,-3.43,-2.45,-3.43,-2.45,2.46,2.53,3.48,-0.97,-0.97,-0.98
35.62,-3.41,-2.42,-3.41,-2.42,2.43,2.49,3.42,-0.98,-0.98,-0.99
35.97,-3.39,-2.40,-3.39,-2.40,2.40,2.45,3.36,-0.99,-0.99,-0.99
36.33,-3.38,-2.39,-3.37,-2.38,2.38,2.41,3.29,-1.00,-1.00,-0.99
36.70,-3.35,-2.36,-3.35,-2.36,2.35,2.37,3.23,-1.00,-1.00,-0.99
37.06,-3.33,-2.34,-3.33,-2.33,2.32,2.33,3.16,-1.01,-1.01,-0.99
37.43,-3.30,-2.30,-3.30,-2.30,2.29,2.29,3.09,-1.01,-1.01,-1.00
37.81,-3.26,-2.26,-3.26,-2.26,2.26,2.25,3.02,-1.00,-1.01,-1.00
38.19,-3.23,-2.23,-3.23,-2.22,2.22,2.21,2.95,-1.01,-1.01,-1.00
38.57,-3.19,-2.18,-3.19,-2.18,2.18,2.17,2.88,-1.01,-1.01,-1.01
38.95,-3.16,-2.15,-3.16,-2.14,2.15,2.13,2.81,-1.01,-1.01,-1.01
39.34,-3.12,-2.10,-3.13,-2.10,2.11,2.09,2.74,-1.01,-1.01,-1.02
39.74,-3.10,-2.08,-3.10,-2.07,2.08,2.05,2.67,-1.02,-1.02,-1.02
40.14,-3.08,-2.05,-3.08,-2.05,2.05,2.01,2.60,-1.03,-1.02,-1.03
40.54,-3.06,-2.03,-3.06,-2.03,2.03,1.98,2.53,-1.03,-1.03,-1.03
40.94,-3.04,-2.01,-3.04,-2.01,2.00,1.94,2.46,-1.04,-1.04,-1.03
41.35,-3.02,-1.99,-3.02,-1.99,1.98,1.90,2.40,-1.04,-1.04,-1.03
41.76,-2.99,-1.96,-2.99,-1.96,1.95,1.86,2.33,-1.04,-1.04,-1.03
42.18,-2.96,-1.93,-2.96,-1.93,1.92,1.83,2.27,-1.04,-1.04,-1.03
42.60,-2.92,-1.89,-2.92,-1.89,1.89,1.79,2.21,-1.03,-1.03,-1.03
43.03,-2.89,-1.87,-2.89,-1.86,1.86,1.76,2.15,-1.03,-1.02,-1.02
43.46,-2.85,-1.83,-2.85,-1.83,1.83,1.72,2.09,-1.02,-1.02,-1.02
43.90,-2.82,-1.80,-2.82,-1.80,1.81,1.69,2.03,-1.01,-1.01,-1.02
44.33,-2.79,-1.77,-2.79,-1.77,1.78,1.65,1.98,-1.01,-1.01,-1.02
44.78,-2.77,-1.75,-2.77,-1.75,1.76,1.62,1.93,-1.01,-1.02,-1.02
45.23,-2.76,-1.74,-2.76,-1.73,1.73,1.58,1.87,-1.03,-1.02,-1.02
45.68,-2.74,-1.72,-2.74,-1.72,1.71,1.55,1.82,-1.03,-1.03,-1.02
46.13,-2.71,-1.69,-2.71,-1.69,1.68,1.52,1.77,-1.03,-1.04,-1.02
46.60,-2.68,-1.66,-2.68,-1.65,1.64,1.49,1.73,-1.04,-1.04,-1.02
47.06,-2.64,-1.62,-2.64,-1.61,1.61,1.46,1.68,-1.03,-1.03,-1.02
47.53,-2.59,-1.56,-2.59,-1.57,1.57,1.43,1.64,-1.02,-1.03,-1.03
48.01,-2.55,-1.52,-2.55,-1.52,1.53,1.40,1.59,-1.02,-1.02,-1.03
48.49,-2.51,-1.48,-2.51,-1.48,1.49,1.37,1.55,-1.03,-1.02,-1.03
48.97,-2.47,-1.44,-2.47,-1.44,1.45,1.34,1.51,-1.02,-1.03,-1.03
49.46,-2.44,-1.41,-2.44,-1.41,1.41,1.31,1.47,-1.03,-1.03,-1.03
49.96,-2.41,-1.38,-2.41,-1.38,1.38,1.29,1.43,-1.03,-1.03,-1.03
50.46,-2.39,-1.36,-2.39,-1.36,1.35,1.26,1.40,-1.04,-1.03,-1.03
50.96,-2.36,-1.33,-2.36,-1.33,1.33,1.23,1.36,-1.03,-1.03,-1.03
51.47,-2.34,-1.32,-2.34,-1.31,1.31,1.21,1.33,-1.03,-1.03,-1.02
51.99,-2.31,-1.29,-2.31,-1.29,1.29,1.19,1.29,-1.02,-1.02,-1.02
52.51,-2.29,-1.27,-2.29,-1.27,1.28,1.16,1.26,-1.01,-1.02,-1.02
53.03,-2.28,-1.26,-2.28,-1.26,1.26,1.14,1.23,-1.02,-1.01,-1.02
53.56,-2.27,-1.25,-2.27,-1.25,1.25,1.12,1.20,-1.02,-1.02,-1.02
54.10,-2.26,-1.25,-2.26,-1.24,1.24,1.10,1.17,-1.02,-1.02,-1.01
54.64,-2.25,-1.24,-2.25,-1.24,1.24,1.08,1.15,-1.01,-1.02,-1.01
55.18,-2.24,-1.23,-2.24,-1.23,1.23,1.06,1.12,-1.01,-1.01,-1.01
55.74,-2.23,-1.22,-2.23,-1.22,1.21,1.04,1.09,-1.02,-1.01,-1.01
56.29,-2.21,-1.21,-2.21,-1.20,1.20,1.02,1.07,-1.01,-1.01,-1.00
56.86,-2.19,-1.19,-2.19,-1.19,1.18,1.00,1.04,-1.01,-1.01,-1.00
57.42,-2.16,-1.16,-2.16,-1.16,1.16,0.98,1.02,-1.00,-1.00,-1.00
58.00,-2.13,-1.14,-2.13,-1.13,1.13,0.97,1.00,-1.00,-1.00,-0.99
58.58,-2.10,-1.11,-2.10,-1.11,1.11,0.95,0.97,-0.99,-0.99,-0.99
59.16,-2.07,-1.08,-2.07,-1.08,1.08,0.94,0.95,-0.99,-0.98,-0.99
59.76,-2.04,-1.06,-2.04,-1.05,1.06,0.92,0.93,-0.98,-0.98,-0.98
60.35,-2.01,-1.03,-2.01,-1.03,1.04,0.91,0.91,-0.97,-0.98,-0.98
60.96,-1.99,-1.01,-1.99,-1.01,1.01,0.89,0.89,-0.98,-0.98,-0.98
61.57,-1.98,-1.00,-1.98,-0.99,0.99,0.88,0.87,-0.99,-0.98,-0.98
62.18,-1.96,-0.98,-1.96,-0.98,0.97,0.87,0.85,-0.99,-0.99,-0.98
62.80,-1.94,-0.96,-1.94,-0.96,0.96,0.85,0.83,-0.98,-0.98,-0.98
63.43,-1.92,-0.94,-1.92,-0.94,0.94,0.84,0.81,-0.98,-0.98,-0.98
64.07,-1.90,-0.92,-1.90,-0.92,0.92,0.83,0.79,-0.98,-0.98,-0.98
64.71,-1.88,-0.90,-1.88,-0.90,0.90,0.82,0.77,-0.98,-0.98,-0.98
65.35,-1.87,-0.89,-1.87,-0.88,0.88,0.81,0.75,-0.99,-0.99,-0.98
66.01,-1.85,-0.87,-1.85,-0.86,0.86,0.80,0.74,-0.99,-0.99,-0.98
66.67,-1.82,-0.84,-1.82,-0.84,0.83,0.79,0.72,-0.99,-0.99,-0.98
67.33,-1.79,-0.81,-1.79,-0.81,0.80,0.77,0.70,-0.99,-0.99,-0.98
68.01,-1.76,-0.78,-1.76,-0.78,0.78,0.76,0.69,-0.98,-0.98,-0.98
68.69,-1.73,-0.75,-1.73,-0.75,0.75,0.75,0.67,-0.98,-0.98,-0.98
69.37,-1.70,-0.72,-1.70,-0.72,0.72,0.74,0.65,-0.98,-0.98,-0.98
70.07,-1.67,-0.69,-1.67,-0.69,0.69,0.73,0.64,-0.98,-0.98,-0.98
70.77,-1.64,-0.66,-1.64,-0.66,0.67,0.72,0.62,-0.97,-0.97,-0.98
71.48,-1.62,-0.65,-1.62,-0.65,0.66,0.71,0.61,-0.96,-0.97,-0.97
72.19,-1.61,-0.64,-1.61,-0.64,0.65,0.70,0.59,-0.96,-0.97,-0.97
72.91,-1.61,-0.64,-1.61,-0.64,0.64,0.69,0.58,-0.97,-0.97,-0.97
73.64,-1.61,-0.64,-1.61,-0.64,0.64,0.67,0.56,-0.97,-0.97,-0.97
74.38,-1.60,-0.64,-1.61,-0.64,0.64,0.66,0.55,-0.96,-0.97,-0.96
75.12,-1.60,-0.64,-1.60,-0.64,0.64,0.65,0.54,-0.96,-0.97,-0.96
75.87,-1.60,-0.65,-1.59,-0.64,0.63,0.63,0.52,-0.97,-0.96,-0.95
76.63,-1.58,-0.63,-1.58,-0.63,0.62,0.62,0.51,-0.96,-0.96,-0.95
77.40,-1.56,-0.61,-1.56,-0.61,0.61,0.60,0.50,-0.95,-0.95,-0.95
78.17,-1.54,-0.60,-1.54,-0.59,0.59,0.59,0.49,-0.95,-0.95,-0.94
78.95,-1.51,-0.57,-1.51,-0.57,0.56,0.57,0.47,-0.95,-0.95,-0.94
79.74,-1.48,-0.54,-1.48,-0.54,0.54,0.56,0.46,-0.94,-0.94,-0.94
80.54,-1.44,-0.51,-1.44,-0.51,0.51,0.54,0.45,-0.93,-0.94,-0.93
81.35,-1.41,-0.48,-1.41,-0.48,0.48,0.52,0.44,-0.93,-0.93,-0.93
82.16,-1.38,-0.45,-1.38,-0.45,0.45,0.50,0.43,-0.93,-0.93,-0.93
82.98,-1.35,-0.42,-1.35,-0.42,0.43,0.48,0.42,-0.92,-0.92,-0.93
83.81,-1.33,-0.40,-1.33,-0.40,0.41,0.46,0.41,-0.92,-0.92,-0.93
84.65,-1.31,-0.39,-1.31,-0.39,0.39,0.44,0.40,-0.92,-0.92,-0.92
85.50,-1.30,-0.38,-1.30,-0.38,0.38,0.41,0.39,-0.92,-0.92,-0.92
86.35,-1.29,-0.37,-1.29,-0.37,0.37,0.39,0.38,-0.92,-0.92,-0.92
87.22,-1.28,-0.36,-1.28,-0.36,0.36,0.37,0.37,-0.92,-0.92,-0.92
88.09,-1.27,-0.35,-1.27,-0.35,0.35,0.34,0.36,-0.92,-0.92,-0.92
88.97,-1.26,-0.34,-1.26,-0.34,0.34,0.32,0.35,-0.92,-0.92,-0.92
89.86,-1.25,-0.33,-1.25,-0.33,0.32,0.29,0.34,-0.93,-0.93,-0.92
90.76,-1.23,-0.31,-1.23,-0.31,0.30,0.27,0.33,-0.93,-0.93,-0.92
91.66,-1.21,-0.29,-1.21,-0.29,0.28,0.24,0.32,-0.93,-0.93,-0.92
92.58,-1.18,-0.26,-1.18,-0.26,0.25,0.22,0.32,-0.93,-0.93,-0.92
93.51,-1.15,-0.23,-1.15,-0.23,0.23,0.20,0.31,-0.92,-0.92,-0.92
94.44,-1.12,-0.20,-1.12,-0.19,0.20,0.18,0.30,-0.92,-0.92,-0.92
95.39,-1.08,-0.16,-1.08,-0.16,0.17,0.16,0.29,-0.91,-0.92,-0.92
96.34,-1.05,-0.13,-1.05,-0.13,0.14,0.14,0.29,-0.91,-0.92,-0.92
97.30,-1.03,-0.12,-1.03,-0.11,0.11,0.12,0.28,-0.92,-0.92,-0.91
98.28,-1.00,-0.09,-1.00,-0.09,0.08,0.11,0.27,-0.92,-0.92,-0.91
99.26,-0.98,-0.07,-0.98,-0.07,0.06,0.10,0.26,-0.92,-0.91,-0.91
100.25,-0.96,-0.05,-0.96,-0.05,0.05,0.09,0.26,-0.91,-0.91,-0.91
101.25,-0.94,-0.03,-0.94,-0.03,0.04,0.08,0.25,-0.90,-0.90,-0.91
102.27,-0.94,-0.03,-0.94,-0.02,0.03,0.08,0.25,-0.91,-0.90,-0.91
103.29,-0.93,-0.02,-0.93,-0.03,0.03,0.07,0.24,-0.90,-0.90,-0.91
104.32,-0.94,-0.04,-0.94,-0.03,0.04,0.07,0.23,-0.90,-0.90,-0.90
105.37,-0.95,-0.05,-0.95,-0.05,0.04,0.07,0.23,-0.91,-0.91,-0.90
106.42,-0.96,-0.06,-0.96,-0.06,0.05,0.07,0.22,-0.91,-0.91,-0.90
107.48,-0.96,-0.07,-0.96,-0.06,0.06,0.07,0.21,-0.90,-0.90,-0.89
108.56,-0.96,-0.07,-0.96,-0.07,0.06,0.07,0.21,-0.90,-0.90,-0.89
109.64,-0.96,-0.07,-0.96,-0.07,0.07,0.07,0.20,-0.89,-0.89,-0.89
110.74,-0.96,-0.07,-0.96,-0.07,0.07,0.07,0.20,-0.89,-0.89,-0.89
111.85,-0.96,-0.07,-0.96,-0.07,0.07,0.07,0.19,-0.89,-0.89,-0.89
112.97,-0.96,-0.08,-0.96,-0.07,0.08,0.07,0.19,-0.88,-0.88,-0.88
114.10,-0.96,-0.08,-0.96,-0.08,0.08,0.07,0.18,-0.88,-0.88,-0.88
115.24,-0.96,-0.08,-0.96,-0.08,0.08,0.07,0.17,-0.88,-0.88,-0.88
116.39,-0.96,-0.08,-0.96,-0.08,0.08,0.07,0.17,-0.88,-0.88,-0.88
117.55,-0.96,-0.09,-0.96,-0.08,0.08,0.07,0.16,-0.88,-0.88,-0.87
118.73,-0.96,-0.09,-0.96,-0.09,0.09,0.07,0.16,-0.87,-0.87,-0.87
119.92,-0.96,-0.09,-0.96,-0.09,0.09,0.07,0.15,-0.87,-0.87,-0.87
121.12,-0.96,-0.09,-0.96,-0.09,0.09,0.08,0.14,-0.87,-0.87,-0.87
122.33,-0.96,-0.10,-0.96,-0.09,0.10,0.08,0.14,-0.86,-0.86,-0.86
123.55,-0.96,-0.10,-0.96,-0.10,0.10,0.08,0.13,-0.86,-0.86,-0.86
124.79,-0.96,-0.11,-0.96,-0.11,0.10,0.08,0.13,-0.86,-0.86,-0.85
126.03,-0.96,-0.11,-0.96,-0.11,0.11,0.08,0.12,-0.85,-0.85,-0.85
127.29,-0.96,-0.12,-0.96,-0.12,0.11,0.09,0.11,-0.85,-0.85,-0.84
128.57,-0.96,-0.12,-0.96,-0.12,0.12,0.09,0.11,-0.84,-0.84,-0.84
129.85,-0.96,-0.12,-0.96,-0.12,0.12,0.09,0.10,-0.84,-0.84,-0.84
131.15,-0.96,-0.12,-0.96,-0.12,0.12,0.10,0.09,-0.84,-0.84,-0.84
132.46,-0.96,-0.13,-0.96,-0.12,0.12,0.10,0.08,-0.84,-0.84,-0.83
133.79,-0.96,-0.13,-0.96,-0.13,0.13,0.11,0.08,-0.83,-0.83,-0.83
135.12,-0.96,-0.13,-0.96,-0.13,0.13,0.11,0.07,-0.83,-0.83,-0.83
136.48,-0.96,-0.13,-0.96,-0.13,0.14,0.11,0.06,-0.82,-0.83,-0.83
137.84,-0.97,-0.14,-0.97,-0.14,0.14,0.12,0.05,-0.83,-0.83,-0.83
139.22,-0.98,-0.15,-0.98,-0.15,0.15,0.12,0.05,-0.83,-0.83,-0.83
140.61,-0.98,-0.15,-0.98,-0.15,0.15,0.12,0.04,-0.83,-0.83,-0.83
142.02,-0.98,-0.16,-0.98,-0.15,0.15,0.12,0.03,-0.83,-0.83,-0.82
143.44,-0.97,-0.15,-0.97,-0.15,0.14,0.12,0.02,-0.83,-0.83,-0.82
144.87,-0.95,-0.13,-0.95,-0.14,0.13,0.12,0.01,-0.82,-0.82,-0.82
146.32,-0.94,-0.13,-0.94,-0.12,0.12,0.11,0.00,-0.82,-0.82,-0.81
147.78,-0.91,-0.10,-0.91,-0.10,0.10,0.11,-0.00,-0.81,-0.81,-0.81
149.26,-0.89,-0.08,-0.89,-0.08,0.08,0.10,-0.01,-0.81,-0.81,-0.81
150.75,-0.86,-0.06,-0.86,-0.05,0.05,0.09,-0.02,-0.81,-0.81,-0.80
152.26,-0.83,-0.03,-0.83,-0.03,0.02,0.07,-0.03,-0.81,-0.80,-0.80
153.78,-0.79,0.01,-0.79,0.00,-0.00,0.06,-0.04,-0.79,-0.80,-0.80
155.32,-0.76,0.03,-0.76,0.04,-0.03,0.04,-0.05,-0.79,-0.79,-0.79
156.88,-0.73,0.06,-0.73,0.06,-0.06,0.02,-0.06,-0.79,-0.79,-0.79
158.44,-0.70,0.09,-0.70,0.09,-0.09,0.00,-0.07,-0.79,-0.79,-0.79
160.03,-0.68,0.11,-0.68,0.12,-0.12,-0.02,-0.08,-0.80,-0.79,-0.79
161.63,-0.65,0.14,-0.65,0.14,-0.14,-0.04,-0.09,-0.79,-0.79,-0.79
163.24,-0.63,0.15,-0.63,0.15,-0.15,-0.06,-0.10,-0.78,-0.78,-0.78
164.88,-0.62,0.16,-0.62,0.17,-0.16,-0.09,-0.11,-0.78,-0.77,-0.78
166.53,-0.61,0.17,-0.61,0.17,-0.16,-0.11,-0.12,-0.77,-0.77,-0.78
168.19,-0.61,0.17,-0.61,0.17,-0.15,-0.13,-0.13,-0.76,-0.77,-0.78
169.87,-0.62,0.15,-0.62,0.15,-0.15,-0.15,-0.14,-0.77,-0.77,-0.77
171.57,-0.64,0.13,-0.64,0.14,-0.14,-0.17,-0.15,-0.78,-0.78,-0.77
173.29,-0.65,0.12,-0.65,0.12,-0.13,-0.20,-0.16,-0.78,-0.78,-0.77
175.02,-0.66,0.11,-0.66,0.11,-0.13,-0.21,-0.17,-0.79,-0.78,-0.77
176.77,-0.65,0.11,-0.65,0.11,-0.12,-0.23,-0.18,-0.77,-0.78,-0.76
178.54,-0.64,0.12,-0.64,0.12,-0.13,-0.25,-0.19,-0.77,-0.77,-0.76
180.32,-0.62,0.14,-0.62,0.14,-0.14,-0.27,-0.21,-0.76,-0.76,-0.76
182.13,-0.60,0.16,-0.60,0.16,-0.16,-0.29,-0.22,-0.76,-0.76,-0.76
183.95,-0.58,0.18,-0.58,0.19,-0.18,-0.30,-0.23,-0.76,-0.76,-0.76
185.79,-0.55,0.21,-0.55,0.21,-0.21,-0.32,-0.24,-0.76,-0.76,-0.76
187.65,-0.52,0.24,-0.52,0.24,-0.24,-0.33,-0.25,-0.76,-0.76,-0.76
189.52,-0.49,0.27,-0.49,0.27,-0.27,-0.34,-0.27,-0.76,-0.76,-0.76
191.42,-0.46,0.30,-0.46,0.30,-0.30,-0.36,-0.28,-0.76,-0.76,-0.76
193.33,-0.43,0.33,-0.43,0.33,-0.34,-0.37,-0.29,-0.77,-0.77,-0.76
195.27,-0.40,0.36,-0.40,0.36,-0.36,-0.38,-0.30,-0.76,-0.76,-0.76
197.22,-0.37,0.39,-0.37,0.39,-0.39,-0.39,-0.32,-0.76,-0.76,-0.76
199.19,-0.34,0.42,-0.34,0.42,-0.41,-0.40,-0.33,-0.75,-0.75,-0.76
201.18,-0.32,0.43,-0.32,0.44,-0.43,-0.41,-0.34,-0.75,-0.75,-0.75
203.19,-0.30,0.45,-0.30,0.45,-0.44,-0.42,-0.35,-0.74,-0.74,-0.75
205.23,-0.29,0.45,-0.29,0.45,-0.45,-0.42,-0.37,-0.74,-0.74,-0.74
207.28,-0.29,0.45,-0.29,0.45,-0.45,-0.43,-0.38,-0.74,-0.74,-0.74
209.35,-0.29,0.45,-0.29,0.45,-0.45,-0.44,-0.39,-0.74,-0.74,-0.74
211.44,-0.29,0.44,-0.29,0.44,-0.44,-0.44,-0.41,-0.73,-0.74,-0.73
213.56,-0.30,0.43,-0.30,0.43,-0.44,-0.45,-0.42,-0.74,-0.74,-0.73
215.69,-0.31,0.42,-0.31,0.42,-0.43,-0.45,-0.43,-0.74,-0.74,-0.73
217.85,-0.31,0.42,-0.31,0.42,-0.42,-0.46,-0.44,-0.73,-0.73,-0.73
220.03,-0.31,0.41,-0.31,0.41,-0.42,-0.46,-0.45,-0.73,-0.73,-0.72
222.23,-0.31,0.41,-0.31,0.41,-0.41,-0.47,-0.46,-0.72,-0.72,-0.72
224.45,-0.31,0.41,-0.31,0.41,-0.41,-0.47,-0.47,-0.72,-0.72,-0.72
226.70,-0.31,0.41,-0.31,0.41,-0.41,-0.48,-0.48,-0.72,-0.72,-0.72
228.96,-0.31,0.40,-0.31,0.41,-0.40,-0.48,-0.49,-0.71,-0.71,-0.71
231.25,-0.31,0.40,-0.31,0.40,-0.39,-0.49,-0.50,-0.70,-0.71,-0.71
233.57,-0.32,0.39,-0.32,0.39,-0.39,-0.49,-0.51,-0.71,-0.70,-0.71
235.90,-0.32,0.38,-0.32,0.38,-0.38,-0.49,-0.52,-0.70,-0.70,-0.70
238.26,-0.33,0.37,-0.33,0.37,-0.37,-0.50,-0.53,-0.70,-0.70,-0.70
240.64,-0.33,0.36,-0.33,0.36,-0.37,-0.50,-0.53,-0.70,-0.70,-0.69
243.05,-0.33,0.35,-0.33,0.36,-0.37,-0.50,-0.54,-0.70,-0.69,-0.68
245.48,-0.31,0.36,-0.31,0.36,-0.37,-0.51,-0.54,-0.68,-0.68,-0.67
247.93,-0.30,0.37,-0.30,0.37,-0.38,-0.51,-0.55,-0.68,-0.67,-0.67
250.41,-0.27,0.39,-0.27,0.39,-0.39,-0.51,-0.55,-0.66,-0.66,-0.66
252.92,-0.25,0.40,-0.25,0.41,-0.40,-0.51,-0.55,-0.65,-0.65,-0.65
255.45,-0.22,0.42,-0.22,0.43,-0.43,-0.52,-0.55,-0.65,-0.64,-0.64
258.00,-0.19,0.45,-0.19,0.45,-0.45,-0.52,-0.56,-0.64,-0.64,-0.64
260.58,-0.16,0.47,-0.16,0.48,-0.48,-0.52,-0.55,-0.64,-0.64,-0.63
263.19,-0.13,0.50,-0.13,0.50,-0.50,-0.53,-0.55,-0.63,-0.63,-0.63
265.82,-0.10,0.53,-0.10,0.53,-0.53,-0.53,-0.55,-0.63,-0.63,-0.63
268.48,-0.07,0.55,-0.07,0.56,-0.56,-0.53,-0.55,-0.63,-0.63,-0.62
271.16,-0.04,0.58,-0.04,0.58,-0.58,-0.53,-0.55,-0.62,-0.62,-0.62
273.87,-0.01,0.61,-0.01,0.61,-0.60,-0.54,-0.54,-0.61,-0.61,-0.62
276.61,0.01,0.62,0.01,0.62,-0.62,-0.54,-0.54,-0.61,-0.61,-0.61
279.38,0.02,0.63,0.02,0.63,-0.63,-0.54,-0.54,-0.61,-0.61,-0.61
282.17,0.03,0.63,0.03,0.64,-0.64,-0.55,-0.53,-0.61,-0.60,-0.60
284.99,0.04,0.64,0.04,0.64,-0.64,-0.55,-0.53,-0.60,-0.60,-0.60
287.84,0.04,0.64,0.04,0.64,-0.64,-0.55,-0.52,-0.60,-0.60,-0.60
290.72,0.03,0.63,0.03,0.63,-0.63,-0.55,-0.52,-0.60,-0.60,-0.60
293.63,0.02,0.62,0.02,0.63,-0.63,-0.56,-0.51,-0.61,-0.61,-0.60
296.57,0.02,0.62,0.02,0.62,-0.62,-0.56,-0.50,-0.60,-0.60,-0.60
299.53,0.02,0.61,0.02,0.62,-0.62,-0.56,-0.50,-0.60,-0.60,-0.59
302.53,0.02,0.61,0.02,0.61,-0.61,-0.57,-0.49,-0.59,-0.59,-0.59
305.55,0.02,0.61,0.02,0.61,-0.61,-0.57,-0.49,-0.59,-0.59,-0.59
308.61,0.02,0.60,0.02,0.61,-0.60,-0.57,-0.48,-0.58,-0.58,-0.58
311.69,0.02,0.60,0.02,0.60,-0.60,-0.57,-0.47,-0.58,-0.58,-0.58
314.81,0.02,0.59,0.02,0.59,-0.60,-0.58,-0.47,-0.58,-0.58,-0.57
317.96,0.02,0.59,0.02,0.59,-0.59,-0.58,-0.46,-0.57,-0.57,-0.57
321.14,0.02,0.58,0.02,0.59,-0.59,-0.58,-0.46,-0.57,-0.57,-0.56
324.35,0.02,0.58,0.02,0.58,-0.58,-0.58,-0.45,-0.56,-0.56,-0.56
327.59,0.02,0.58,0.02,0.58,-0.58,-0.58,-0.45,-0.56,-0.56,-0.56
330.87,0.02,0.57,0.02,0.57,-0.57,-0.58,-0.44,-0.55,-0.55,-0.55
334.18,0.02,0.56,0.02,0.57,-0.57,-0.58,-0.44,-0.55,-0.55,-0.54
337.52,0.02,0.56,0.02,0.56,-0.56,-0.58,-0.44,-0.54,-0.54,-0.54
340.90,0.02,0.55,0.02,0.55,-0.56,-0.58,-0.43,-0.54,-0.54,-0.53
344.30,0.02,0.55,0.02,0.55,-0.55,-0.58,-0.43,-0.53,-0.53,-0.53
347.75,0.02,0.55,0.02,0.55,-0.55,-0.58,-0.43,-0.53,-0.53,-0.53
351.23,0.02,0.55,0.02,0.55,-0.55,-0.58,-0.42,-0.53,-0.53,-0.53
354.74,0.02,0.54,0.02,0.55,-0.55,-0.57,-0.42,-0.53,-0.53,-0.52
358.28,0.02,0.54,0.02,0.54,-0.54,-0.57,-0.42,-0.52,-0.52,-0.52
361.87,0.02,0.54,0.02,0.54,-0.54,-0.57,-0.42,-0.52,-0.52,-0.52
365.49,0.02,0.54,0.02,0.54,-0.54,-0.56,-0.42,-0.52,-0.52,-0.52
369.14,0.02,0.54,0.02,0.54,-0.54,-0.56,-0.42,-0.52,-0.52,-0.52
372.83,0.02,0.54,0.02,0.54,-0.54,-0.55,-0.41,-0.52,-0.52,-0.52
376.56,0.02,0.53,0.02,0.54,-0.54,-0.55,-0.41,-0.52,-0.52,-0.51
380.33,0.02,0.53,0.02,0.53,-0.53,-0.54,-0.41,-0.51,-0.51,-0.51
384.13,0.02,0.53,0.02,0.53,-0.53,-0.53,-0.41,-0.51,-0.51,-0.51
387.97,0.02,0.53,0.02,0.53,-0.53,-0.53,-0.42,-0.51,-0.51,-0.51
391.85,0.02,0.52,0.02,0.53,-0.52,-0.52,-0.42,-0.50,-0.50,-0.50
395.77,0.02,0.52,0.02,0.52,-0.52,-0.51,-0.42,-0.50,-0.50,-0.50
399.73,0.02,0.51,0.02,0.51,-0.51,-0.51,-0.42,-0.49,-0.49,-0.49
403.72,0.02,0.51,0.02,0.51,-0.51,-0.50,-0.42,-0.49,-0.49,-0.49
407.76,0.02,0.50,0.02,0.50,-0.51,-0.49,-0.42,-0.49,-0.49,-0.48
411.84,0.02,0.50,0.02,0.50,-0.50,-0.48,-0.42,-0.48,-0.48,-0.48
415.96,0.02,0.49,0.02,0.50,-0.50,-0.47,-0.42,-0.48,-0.48,-0.47
420.12,0.02,0.49,0.02,0.49,-0.49,-0.46,-0.43,-0.47,-0.47,-0.47
424.32,0.02,0.49,0.02,0.49,-0.49,-0.46,-0.43,-0.47,-0.47,-0.47
428.56,0.02,0.48,0.02,0.49,-0.49,-0.45,-0.43,-0.47,-0.47,-0.46
432.85,0.02,0.48,0.02,0.48,-0.48,-0.44,-0.43,-0.46,-0.46,-0.46
437.18,0.02,0.48,0.02,0.48,-0.48,-0.43,-0.43,-0.46,-0.46,-0.46
441.55,0.02,0.48,0.02,0.48,-0.48,-0.42,-0.44,-0.46,-0.46,-0.46
