frequency,raw,error,smoothed,error_smoothed,equalization,parametric_eq,fixed_band_eq,equalized_raw,equalized_smoothed,target
20.00,5.95,0.31,5.95,0.31,-0.31,-0.58,-0.32,5.64,5.64,5.65
20.20,5.95,0.33,5.95,0.32,-0.32,-0.59,-0.33,5.63,5.63,5.63
20.40,5.95,0.34,5.95,0.33,-0.34,-0.59,-0.33,5.62,5.62,5.61
20.61,5.95,0.34,5.95,0.35,-0.35,-0.60,-0.34,5.61,5.61,5.61
20.81,5.95,0.36,5.95,0.36,-0.36,-0.61,-0.35,5.60,5.60,5.59
21.02,5.95,0.37,5.95,0.37,-0.37,-0.61,-0.36,5.59,5.59,5.58
21.23,5.95,0.38,5.95,0.37,-0.37,-0.62,-0.37,5.58,5.58,5.57
21.44,5.95,0.37,5.95,0.38,-0.38,-0.63,-0.38,5.57,5.57,5.58
21.66,5.95,0.38,5.95,0.38,-0.39,-0.63,-0.39,5.57,5.57,5.57
21.87,5.95,0.39,5.95,0.39,-0.39,-0.64,-0.40,5.56,5.56,5.56
22.09,5.95,0.40,5.95,0.40,-0.39,-0.65,-0.41,5.56,5.56,5.55
22.31,5.95,0.40,5.95,0.40,-0.39,-0.65,-0.42,5.56,5.56,5.55
22.54,5.94,0.40,5.94,0.40,-0.40,-0.66,-0.43,5.55,5.55,5.54
22.76,5.93,0.38,5.94,0.39,-0.40,-0.67,-0.44,5.53,5.54,5.55
22.99,5.93,0.40,5.93,0.40,-0.40,-0.68,-0.45,5.53,5.53,5.54
23.22,5.93,0.41,5.93,0.40,-0.41,-0.69,-0.47,5.53,5.53,5.53
23.45,5.94,0.42,5.94,0.42,-0.42,-0.69,-0.48,5.53,5.53,5.53
23.69,5.95,0.43,5.95,0.43,-0.43,-0.70,-0.49,5.52,5.53,5.53
23.92,5.97,0.45,5.97,0.45,-0.45,-0.71,-0.50,5.53,5.52,5.52
24.16,5.99,0.47,6.00,0.47,-0.47,-0.72,-0.52,5.52,5.52,5.52
24.40,6.02,0.49,6.02,0.49,-0.50,-0.73,-0.53,5.52,5.52,5.53
24.65,6.05,0.52,6.05,0.52,-0.53,-0.74,-0.54,5.52,5.52,5.53
24.89,6.08,0.56,6.08,0.56,-0.56,-0.75,-0.56,5.52,5.52,5.52
25.14,6.11,0.60,6.11,0.60,-0.60,-0.76,-0.57,5.52,5.52,5.51
25.39,6.14,0.63,6.14,0.64,-0.63,-0.77,-0.58,5.51,5.51,5.51
25.65,6.17,0.67,6.17,0.67,-0.67,-0.77,-0.60,5.50,5.51,5.50
25.91,6.20,0.71,6.20,0.70,-0.70,-0.78,-0.61,5.50,5.50,5.50
26.16,6.23,0.73,6.23,0.73,-0.73,-0.79,-0.63,5.50,5.50,5.51
26.43,6.25,0.76,6.25,0.76,-0.76,-0.80,-0.64,5.49,5.49,5.50
26.69,6.27,0.78,6.28,0.78,-0.78,-0.82,-0.66,5.49,5.50,5.49
26.96,6.29,0.80,6.29,0.80,-0.79,-0.83,-0.67,5.50,5.50,5.49
27.23,6.30,0.82,6.30,0.82,-0.80,-0.84,-0.69,5.50,5.50,5.48
27.50,6.30,0.82,6.30,0.82,-0.81,-0.85,-0.70,5.49,5.49,5.48
27.77,6.29,0.80,6.30,0.81,-0.81,-0.86,-0.72,5.48,5.49,5.49
28.05,6.29,0.81,6.29,0.80,-0.81,-0.87,-0.73,5.48,5.48,5.49
28.33,6.28,0.80,6.29,0.80,-0.81,-0.88,-0.75,5.48,5.48,5.49
28.62,6.28,0.80,6.28,0.80,-0.80,-0.89,-0.76,5.48,5.48,5.48
28.90,6.28,0.79,6.28,0.79,-0.80,-0.90,-0.78,5.49,5.49,5.49
29.19,6.28,0.79,6.28,0.79,-0.79,-0.92,-0.79,5.49,5.49,5.49
29.48,6.28,0.79,6.28,0.79,-0.79,-0.93,-0.81,5.49,5.49,5.49
29.78,6.28,0.80,6.28,0.79,-0.79,-0.94,-0.82,5.49,5.49,5.49
30.08,6.28,0.78,6.28,0.79,-0.79,-0.95,-0.84,5.49,5.49,5.50
30.38,6.28,0.79,6.28,0.79,-0.79,-0.97,-0.85,5.49,5.49,5.49
30.68,6.28,0.79,6.28,0.79,-0.79,-0.98,-0.87,5.49,5.49,5.49
30.99,6.28,0.79,6.28,0.79,-0.79,-0.99,-0.88,5.49,5.49,5.49
31.30,6.28,0.80,6.28,0.80,-0.79,-1.01,-0.89,5.49,5.49,5.49
31.61,6.28,0.80,6.28,0.80,-0.79,-1.02,-0.91,5.49,5.49,5.48
31.93,6.27,0.80,6.28,0.80,-0.79,-1.03,-0.92,5.48,5.48,5.47
32.24,6.27,0.80,6.27,0.80,-0.80,-1.05,-0.94,5.48,5.47,5.47
32.57,6.26,0.81,6.26,0.80,-0.80,-1.06,-0.95,5.47,5.46,5.46
32.89,6.25,0.80,6.26,0.80,-0.80,-1.08,-0.96,5.45,5.45,5.46
33.22,6.25,0.80,6.25,0.80,-0.81,-1.09,-0.98,5.44,5.44,5.45
33.55,6.26,0.81,6.26,0.81,-0.83,-1.11,-0.99,5.44,5.43,5.45
33.89,6.27,0.84,6.28,0.84,-0.84,-1.12,-1.01,5.43,5.43,5.44
34.23,6.29,0.87,6.29,0.87,-0.87,-1.14,-1.02,5.43,5.43,5.42
34.57,6.32,0.90,6.32,0.90,-0.90,-1.16,-1.03,5.43,5.42,5.42
34.92,6.34,0.94,6.35,0.93,-0.93,-1.17,-1.05,5.41,5.41,5.41
35.27,6.37,0.96,6.37,0.97,-0.97,-1.19,-1.06,5.40,5.40,5.41
35.62,6.40,1.02,6.40,1.01,-1.01,-1.21,-1.08,5.39,5.39,5.38
35.97,6.43,1.06,6.43,1.06,-1.06,-1.22,-1.09,5.38,5.38,5.38
36.33,6.46,1.10,6.46,1.10,-1.10,-1.24,-1.11,5.36,5.36,5.36
36.70,6.49,1.14,6.49,1.14,-1.14,-1.26,-1.13,5.35,5.35,5.35
37.06,6.52,1.19,6.52,1.19,-1.19,-1.28,-1.14,5.33,5.34,5.33
37.43,6.55,1.23,6.55,1.23,-1.23,-1.30,-1.16,5.32,5.32,5.32
37.81,6.57,1.27,6.57,1.27,-1.27,-1.32,-1.18,5.30,5.30,5.31
38.19,6.59,1.31,6.60,1.31,-1.31,-1.33,-1.20,5.28,5.29,5.28
38.57,6.61,1.35,6.61,1.35,-1.34,-1.35,-1.22,5.27,5.27,5.27
38.95,6.62,1.38,6.62,1.38,-1.37,-1.37,-1.24,5.25,5.25,5.24
39.34,6.62,1.41,6.63,1.40,-1.40,-1.39,-1.26,5.23,5.23,5.22
39.74,6.62,1.42,6.62,1.42,-1.42,-1.41,-1.28,5.21,5.20,5.20
40.14,6.61,1.44,6.61,1.43,-1.44,-1.44,-1.31,5.18,5.18,5.18
40.54,6.60,1.44,6.61,1.45,-1.45,-1.46,-1.33,5.15,5.15,5.16
40.94,6.60,1.47,6.60,1.46,-1.47,-1.48,-1.36,5.13,5.13,5.14
41.35,6.60,1.48,6.60,1.48,-1.49,-1.50,-1.39,5.12,5.12,5.12
41.76,6.60,1.50,6.60,1.50,-1.50,-1.52,-1.41,5.10,5.10,5.10
42.18,6.60,1.52,6.60,1.52,-1.52,-1.55,-1.44,5.08,5.08,5.09
42.60,6.60,1.54,6.60,1.54,-1.54,-1.57,-1.47,5.06,5.06,5.06
43.03,6.60,1.57,6.60,1.57,-1.56,-1.59,-1.50,5.04,5.04,5.03
43.46,6.60,1.59,6.60,1.59,-1.59,-1.62,-1.54,5.02,5.02,5.02
43.90,6.60,1.61,6.60,1.61,-1.61,-1.64,-1.57,4.99,4.99,4.99
44.33,6.60,1.63,6.60,1.63,-1.64,-1.67,-1.60,4.97,4.97,4.97
44.78,6.60,1.66,6.60,1.66,-1.66,-1.69,-1.64,4.94,4.94,4.94
45.23,6.60,1.68,6.60,1.69,-1.69,-1.72,-1.68,4.91,4.91,4.92
45.68,6.60,1.72,6.60,1.72,-1.72,-1.74,-1.71,4.88,4.88,4.89
46.13,6.60,1.76,6.60,1.75,-1.75,-1.77,-1.75,4.85,4.85,4.85
46.60,6.60,1.79,6.60,1.78,-1.78,-1.80,-1.79,4.82,4.82,4.82
47.06,6.60,1.82,6.60,1.82,-1.82,-1.82,-1.84,4.79,4.79,4.79
47.53,6.60,1.85,6.60,1.85,-1.85,-1.85,-1.88,4.75,4.75,4.76
48.01,6.60,1.90,6.60,1.89,-1.89,-1.88,-1.92,4.71,4.71,4.71
48.49,6.60,1.93,6.60,1.93,-1.93,-1.91,-1.97,4.67,4.67,4.68
48.97,6.60,1.97,6.60,1.97,-1.97,-1.94,-2.01,4.64,4.64,4.64
49.46,6.60,2.00,6.60,2.00,-2.00,-1.97,-2.06,4.60,4.60,4.60
49.96,6.60,2.05,6.60,2.04,-2.04,-2.00,-2.11,4.57,4.57,4.55
50.46,6.60,2.07,6.60,2.08,-2.07,-2.03,-2.15,4.53,4.53,4.53
50.96,6.60,2.11,6.60,2.11,-2.11,-2.06,-2.20,4.50,4.50,4.50
51.47,6.60,2.14,6.60,2.14,-2.14,-2.09,-2.25,4.46,4.46,4.46
51.99,6.60,2.17,6.60,2.17,-2.17,-2.13,-2.30,4.43,4.43,4.43
52.51,6.60,2.21,6.60,2.20,-2.21,-2.16,-2.35,4.40,4.40,4.40
53.03,6.60,2.23,6.60,2.24,-2.24,-2.19,-2.40,4.36,4.36,4.37
53.56,6.60,2.28,6.60,2.27,-2.28,-2.23,-2.44,4.33,4.33,4.33
54.10,6.60,2.31,6.60,2.31,-2.31,-2.26,-2.49,4.29,4.29,4.29
54.64,6.60,2.35,6.60,2.35,-2.35,-2.30,-2.54,4.25,4.25,4.26
55.18,6.60,2.39,6.60,2.39,-2.38,-2.33,-2.59,4.22,4.22,4.21
55.74,6.60,2.43,6.60,2.42,-2.42,-2.37,-2.63,4.18,4.18,4.17
56.29,6.60,2.45,6.60,2.45,-2.45,-2.40,-2.68,4.15,4.15,4.16
56.86,6.60,2.48,6.60,2.48,-2.48,-2.44,-2.72,4.13,4.13,4.13
57.42,6.60,2.51,6.60,2.51,-2.51,-2.47,-2.76,4.10,4.10,4.09
58.00,6.60,2.54,6.60,2.54,-2.53,-2.51,-2.80,4.07,4.07,4.06
58.58,6.60,2.55,6.60,2.56,-2.56,-2.54,-2.84,4.04,4.04,4.05
59.16,6.60,2.58,6.60,2.58,-2.59,-2.58,-2.87,4.01,4.01,4.02
59.76,6.60,2.62,6.60,2.61,-2.63,-2.61,-2.90,3.97,3.97,3.99
60.35,6.60,2.66,6.60,2.66,-2.67,-2.65,-2.93,3.93,3.93,3.95
60.96,6.60,2.70,6.61,2.71,-2.72,-2.68,-2.96,3.89,3.89,3.90
61.57,6.61,2.76,6.61,2.76,-2.76,-2.72,-2.98,3.85,3.85,3.85
62.18,6.62,2.82,6.62,2.81,-2.81,-2.75,-3.00,3.82,3.81,3.81
62.80,6.62,2.86,6.62,2.86,-2.85,-2.78,-3.02,3.77,3.77,3.76
63.43,6.62,2.91,6.62,2.90,-2.89,-2.81,-3.04,3.73,3.73,3.72
64.07,6.61,2.93,6.61,2.93,-2.93,-2.84,-3.05,3.69,3.69,3.68
64.71,6.60,2.96,6.60,2.96,-2.95,-2.87,-3.06,3.65,3.65,3.64
65.35,6.58,2.98,6.58,2.98,-2.98,-2.90,-3.07,3.61,3.61,3.61
66.01,6.56,2.99,6.56,2.99,-2.99,-2.93,-3.08,3.57,3.57,3.57
66.67,6.53,2.99,6.53,3.00,-3.00,-2.96,-3.08,3.53,3.53,3.54
67.33,6.50,3.01,6.50,3.01,-3.01,-2.99,-3.08,3.49,3.49,3.49
68.01,6.47,3.02,6.47,3.02,-3.02,-3.01,-3.08,3.45,3.45,3.45
68.69,6.44,3.03,6.44,3.03,-3.03,-3.04,-3.08,3.42,3.42,3.41
69.37,6.41,3.04,6.41,3.04,-3.04,-3.06,-3.08,3.38,3.38,3.38
70.07,6.38,3.04,6.38,3.04,-3.05,-3.09,-3.07,3.34,3.34,3.34
70.77,6.35,3.05,6.35,3.05,-3.06,-3.11,-3.07,3.29,3.29,3.30
71.48,6.32,3.07,6.33,3.07,-3.07,-3.13,-3.06,3.25,3.25,3.26
72.19,6.30,3.09,6.30,3.09,-3.09,-3.16,-3.05,3.21,3.21,3.21
72.91,6.28,3.11,6.28,3.11,-3.11,-3.18,-3.05,3.17,3.17,3.17
73.64,6.26,3.14,6.27,3.14,-3.14,-3.20,-3.04,3.12,3.13,3.13
74.38,6.26,3.17,6.26,3.17,-3.17,-3.22,-3.03,3.10,3.09,3.09
75.12,6.25,3.19,6.26,3.20,-3.20,-3.24,-3.03,3.05,3.06,3.06
75.87,6.26,3.23,6.26,3.23,-3.23,-3.27,-3.03,3.03,3.03,3.03
76.63,6.26,3.26,6.27,3.26,-3.26,-3.29,-3.02,3.00,3.00,3.00
77.40,6.27,3.30,6.27,3.30,-3.30,-3.31,-3.02,2.98,2.98,2.97
78.17,6.28,3.34,6.28,3.34,-3.33,-3.33,-3.02,2.95,2.95,2.94
78.95,6.28,3.37,6.28,3.37,-3.36,-3.35,-3.02,2.92,2.92,2.92
79.74,6.28,3.39,6.28,3.39,-3.40,-3.37,-3.02,2.88,2.88,2.89
80.54,6.28,3.42,6.29,3.42,-3.43,-3.39,-3.02,2.85,2.85,2.86
81.35,6.29,3.46,6.29,3.46,-3.47,-3.42,-3.03,2.83,2.83,2.83
82.16,6.30,3.49,6.30,3.50,-3.50,-3.44,-3.04,2.81,2.80,2.81
82.98,6.30,3.53,6.30,3.53,-3.52,-3.46,-3.05,2.78,2.78,2.77
83.81,6.29,3.56,6.30,3.56,-3.55,-3.48,-3.06,2.74,2.75,2.73
84.65,6.28,3.58,6.28,3.58,-3.57,-3.51,-3.07,2.71,2.71,2.71
85.50,6.27,3.60,6.27,3.60,-3.59,-3.53,-3.09,2.68,2.68,2.67
86.35,6.24,3.60,6.25,3.61,-3.61,-3.55,-3.11,2.64,2.64,2.64
87.22,6.22,3.61,6.22,3.62,-3.62,-3.57,-3.13,2.61,2.60,2.61
88.09,6.19,3.62,6.19,3.62,-3.62,-3.59,-3.15,2.57,2.57,2.57
88.97,6.16,3.63,6.16,3.63,-3.63,-3.62,-3.18,2.53,2.54,2.54
89.86,6.13,3.64,6.13,3.63,-3.63,-3.64,-3.21,2.50,2.50,2.50
90.76,6.10,3.64,6.10,3.64,-3.63,-3.66,-3.24,2.47,2.47,2.46
91.66,6.07,3.64,6.07,3.64,-3.64,-3.69,-3.27,2.44,2.44,2.43
92.58,6.04,3.64,6.04,3.64,-3.64,-3.71,-3.31,2.40,2.40,2.40
93.51,6.01,3.65,6.01,3.65,-3.65,-3.73,-3.35,2.36,2.36,2.37
94.44,5.98,3.65,5.99,3.66,-3.66,-3.75,-3.39,2.32,2.32,2.33
95.39,5.96,3.68,5.96,3.68,-3.68,-3.77,-3.43,2.28,2.28,2.29
96.34,5.95,3.71,5.95,3.70,-3.71,-3.80,-3.47,2.25,2.24,2.24
97.30,5.93,3.73,5.94,3.73,-3.74,-3.82,-3.52,2.20,2.20,2.21
98.28,5.93,3.76,5.93,3.77,-3.77,-3.84,-3.57,2.16,2.16,2.17
99.26,5.93,3.81,5.93,3.80,-3.81,-3.86,-3.62,2.12,2.12,2.13
100.25,5.94,3.85,5.95,3.85,-3.85,-3.88,-3.67,2.09,2.10,2.09
101.25,5.96,3.89,5.96,3.89,-3.89,-3.90,-3.72,2.07,2.07,2.07
102.27,5.97,3.94,5.97,3.93,-3.92,-3.92,-3.77,2.05,2.05,2.04
103.29,5.97,3.97,5.98,3.97,-3.96,-3.94,-3.83,2.02,2.02,2.00
104.32,5.97,3.99,5.97,3.99,-3.98,-3.96,-3.88,1.99,1.99,1.99
105.37,5.95,4.00,5.95,4.00,-4.00,-3.98,-3.94,1.95,1.95,1.95
106.42,5.93,4.01,5.94,4.01,-4.02,-3.99,-4.00,1.92,1.92,1.92
107.48,5.91,4.03,5.91,4.03,-4.03,-4.01,-4.05,1.89,1.89,1.89
108.56,5.89,4.03,5.89,4.03,-4.03,-4.03,-4.11,1.86,1.86,1.86
109.64,5.86,4.04,5.86,4.04,-4.03,-4.05,-4.16,1.83,1.83,1.82
110.74,5.83,4.04,5.83,4.04,-4.04,-4.06,-4.22,1.80,1.80,1.80
111.85,5.80,4.04,5.80,4.04,-4.04,-4.08,-4.27,1.77,1.76,1.76
112.97,5.76,4.04,5.77,4.03,-4.04,-4.09,-4.32,1.72,1.73,1.73
114.10,5.73,4.03,5.73,4.04,-4.04,-4.11,-4.37,1.69,1.69,1.70
115.24,5.70,4.05,5.70,4.05,-4.05,-4.12,-4.41,1.65,1.66,1.66
116.39,5.68,4.07,5.68,4.06,-4.06,-4.13,-4.45,1.63,1.62,1.61
117.55,5.65,4.06,5.65,4.07,-4.07,-4.15,-4.49,1.58,1.58,1.59
118.73,5.63,4.09,5.64,4.09,-4.09,-4.16,-4.53,1.54,1.55,1.54
119.92,5.62,4.10,5.62,4.10,-4.11,-4.17,-4.56,1.51,1.51,1.52
121.12,5.62,4.12,5.62,4.13,-4.14,-4.18,-4.59,1.49,1.48,1.50
122.33,5.62,4.16,5.63,4.16,-4.17,-4.19,-4.61,1.46,1.46,1.47
123.55,5.63,4.20,5.63,4.20,-4.19,-4.20,-4.63,1.44,1.44,1.43
124.79,5.64,4.23,5.64,4.23,-4.22,-4.21,-4.64,1.42,1.42,1.41
126.03,5.63,4.26,5.63,4.26,-4.25,-4.22,-4.66,1.38,1.39,1.37
127.29,5.62,4.28,5.62,4.28,-4.27,-4.23,-4.66,1.35,1.35,1.34
128.57,5.60,4.29,5.60,4.29,-4.29,-4.24,-4.66,1.31,1.31,1.31
129.85,5.58,4.31,5.58,4.31,-4.31,-4.25,-4.66,1.27,1.27,1.27
131.15,5.55,4.32,5.56,4.32,-4.32,-4.26,-4.65,1.24,1.24,1.24
132.46,5.53,4.33,5.53,4.33,-4.32,-4.27,-4.64,1.21,1.20,1.20
133.79,5.49,4.33,5.50,4.33,-4.33,-4.28,-4.63,1.17,1.17,1.16
135.12,5.46,4.34,5.46,4.33,-4.33,-4.29,-4.61,1.13,1.13,1.13
136.48,5.43,4.32,5.43,4.33,-4.33,-4.30,-4.59,1.10,1.10,1.11
137.84,5.40,4.33,5.40,4.33,-4.33,-4.31,-4.57,1.07,1.07,1.08
139.22,5.37,4.34,5.38,4.33,-4.33,-4.32,-4.54,1.04,1.04,1.03
140.61,5.35,4.34,5.35,4.34,-4.34,-4.34,-4.51,1.02,1.01,1.01
142.02,5.32,4.34,5.33,4.35,-4.34,-4.35,-4.49,0.98,0.98,0.98
143.44,5.30,4.36,5.31,4.35,-4.35,-4.37,-4.46,0.95,0.95,0.95
144.87,5.29,4.36,5.29,4.36,-4.37,-4.38,-4.43,0.93,0.92,0.94
146.32,5.28,4.38,5.28,4.37,-4.39,-4.40,-4.40,0.89,0.89,0.91
147.78,5.28,4.39,5.29,4.40,-4.41,-4.42,-4.37,0.87,0.87,0.89
149.26,5.29,4.43,5.30,4.43,-4.44,-4.43,-4.34,0.85,0.85,0.86
150.75,5.31,4.48,5.31,4.47,-4.47,-4.45,-4.31,0.84,0.84,0.83
152.26,5.32,4.51,5.32,4.51,-4.50,-4.47,-4.28,0.83,0.83,0.82
153.78,5.33,4.54,5.33,4.54,-4.52,-4.49,-4.26,0.81,0.81,0.79
155.32,5.32,4.56,5.32,4.56,-4.55,-4.51,-4.23,0.77,0.78,0.77
156.88,5.31,4.57,5.31,4.57,-4.57,-4.53,-4.21,0.75,0.74,0.74
158.44,5.29,4.58,5.29,4.58,-4.58,-4.55,-4.19,0.71,0.71,0.71
160.03,5.27,4.59,5.27,4.59,-4.59,-4.57,-4.17,0.68,0.68,0.69
161.63,5.25,4.60,5.25,4.60,-4.60,-4.59,-4.16,0.66,0.65,0.66
163.24,5.22,4.61,5.22,4.60,-4.60,-4.61,-4.14,0.62,0.62,0.62
164.88,5.19,4.61,5.19,4.61,-4.60,-4.62,-4.13,0.59,0.59,0.59
166.53,5.16,4.61,5.16,4.61,-4.60,-4.64,-4.12,0.56,0.56,0.56
168.19,5.13,4.60,5.13,4.61,-4.61,-4.66,-4.12,0.53,0.53,0.53
169.87,5.10,4.61,5.10,4.61,-4.61,-4.68,-4.12,0.49,0.49,0.49
171.57,5.07,4.61,5.07,4.61,-4.62,-4.69,-4.12,0.46,0.46,0.46
173.29,5.04,4.62,5.05,4.62,-4.62,-4.71,-4.12,0.42,0.42,0.43
175.02,5.02,4.63,5.03,4.63,-4.64,-4.72,-4.13,0.39,0.39,0.39
176.77,5.01,4.66,5.01,4.65,-4.65,-4.73,-4.14,0.36,0.36,0.36
178.54,4.99,4.66,4.99,4.67,-4.67,-4.74,-4.15,0.33,0.33,0.33
180.32,4.98,4.69,4.98,4.69,-4.69,-4.75,-4.17,0.30,0.29,0.29
182.13,4.96,4.71,4.97,4.71,-4.71,-4.76,-4.19,0.25,0.26,0.26
183.95,4.95,4.73,4.95,4.73,-4.73,-4.77,-4.21,0.22,0.22,0.23
185.79,4.93,4.75,4.94,4.75,-4.75,-4.78,-4.24,0.19,0.19,0.18
187.65,4.92,4.77,4.92,4.77,-4.76,-4.79,-4.27,0.16,0.16,0.15
189.52,4.90,4.79,4.90,4.78,-4.77,-4.79,-4.30,0.13,0.12,0.11
191.42,4.87,4.79,4.87,4.79,-4.78,-4.80,-4.34,0.09,0.09,0.08
193.33,4.84,4.79,4.84,4.79,-4.79,-4.80,-4.37,0.05,0.05,0.06
195.27,4.81,4.80,4.81,4.79,-4.80,-4.80,-4.41,0.01,0.01,0.02
197.22,4.78,4.80,4.78,4.80,-4.80,-4.80,-4.46,-0.02,-0.02,-0.02
199.19,4.75,4.79,4.76,4.80,-4.81,-4.80,-4.50,-0.05,-0.05,-0.04
201.18,4.73,4.81,4.74,4.81,-4.81,-4.80,-4.55,-0.07,-0.07,-0.07
203.19,4.72,4.81,4.72,4.81,-4.81,-4.80,-4.59,-0.09,-0.09,-0.09
205.23,4.70,4.82,4.70,4.81,-4.81,-4.80,-4.64,-0.11,-0.11,-0.12
207.28,4.67,4.80,4.68,4.81,-4.81,-4.79,-4.69,-0.14,-0.14,-0.13
209.35,4.65,4.82,4.65,4.81,-4.81,-4.79,-4.75,-0.16,-0.16,-0.17
211.44,4.62,4.81,4.63,4.81,-4.81,-4.78,-4.80,-0.19,-0.19,-0.19
213.56,4.60,4.81,4.60,4.81,-4.81,-4.78,-4.85,-0.21,-0.21,-0.20
215.69,4.58,4.81,4.58,4.81,-4.81,-4.77,-4.90,-0.23,-0.23,-0.23
217.85,4.56,4.81,4.56,4.81,-4.81,-4.76,-4.95,-0.25,-0.25,-0.25
220.03,4.53,4.80,4.54,4.81,-4.81,-4.75,-5.00,-0.27,-0.27,-0.27
222.23,4.51,4.81,4.51,4.80,-4.80,-4.74,-5.04,-0.29,-0.29,-0.29
224.45,4.48,4.80,4.49,4.80,-4.80,-4.73,-5.09,-0.32,-0.31,-0.32
226.70,4.46,4.79,4.46,4.79,-4.79,-4.72,-5.13,-0.33,-0.32,-0.33
228.96,4.44,4.78,4.44,4.78,-4.78,-4.71,-5.17,-0.33,-0.34,-0.34
231.25,4.41,4.77,4.41,4.77,-4.76,-4.69,-5.20,-0.35,-0.35,-0.36
233.57,4.37,4.74,4.38,4.75,-4.74,-4.68,-5.23,-0.37,-0.36,-0.37
235.90,4.34,4.73,4.34,4.73,-4.72,-4.67,-5.26,-0.38,-0.38,-0.39
238.26,4.30,4.70,4.30,4.69,-4.70,-4.65,-5.28,-0.39,-0.39,-0.40
240.64,4.27,4.66,4.27,4.66,-4.67,-4.63,-5.29,-0.40,-0.40,-0.39
243.05,4.23,4.63,4.24,4.64,-4.65,-4.62,-5.30,-0.41,-0.41,-0.39
245.48,4.21,4.63,4.21,4.62,-4.62,-4.60,-5.30,-0.41,-0.41,-0.41
247.93,4.19,4.61,4.19,4.60,-4.60,-4.58,-5.30,-0.41,-0.41,-0.42
250.41,4.16,4.57,4.17,4.58,-4.58,-4.56,-5.29,-0.41,-0.41,-0.41
252.92,4.14,4.55,4.14,4.55,-4.56,-4.55,-5.28,-0.41,-0.41,-0.41
255.45,4.12,4.54,4.12,4.53,-4.53,-4.52,-5.25,-0.41,-0.41,-0.41
258.00,4.10,4.51,4.10,4.51,-4.51,-4.50,-5.22,-0.41,-0.41,-0.41
260.58,4.07,4.49,4.08,4.49,-4.49,-4.48,-5.19,-0.41,-0.41,-0.42
263.19,4.05,4.47,4.05,4.47,-4.46,-4.46,-5.15,-0.41,-0.41,-0.41
265.82,4.02,4.44,4.02,4.44,-4.44,-4.44,-5.10,-0.42,-0.42,-0.42
268.48,3.99,4.41,3.99,4.41,-4.42,-4.42,-5.05,-0.42,-0.42,-0.42
271.16,3.96,4.39,3.97,4.38,-4.39,-4.39,-4.99,-0.43,-0.43,-0.42
273.87,3.94,4.36,3.94,4.37,-4.37,-4.37,-4.93,-0.43,-0.43,-0.42
276.61,3.92,4.35,3.92,4.35,-4.35,-4.34,-4.87,-0.43,-0.43,-0.42
279.38,3.90,4.34,3.90,4.33,-4.33,-4.32,-4.80,-0.43,-0.43,-0.44
282.17,3.88,4.31,3.88,4.31,-4.31,-4.29,-4.73,-0.42,-0.42,-0.42
284.99,3.86,4.28,3.86,4.29,-4.28,-4.26,-4.65,-0.42,-0.42,-0.42
287.84,3.84,4.26,3.84,4.26,-4.25,-4.23,-4.58,-0.41,-0.42,-0.41
290.72,3.80,4.23,3.81,4.23,-4.22,-4.21,-4.50,-0.42,-0.41,-0.43
293.63,3.77,4.20,3.77,4.19,-4.18,-4.18,-4.42,-0.41,-0.41,-0.42
296.57,3.73,4.14,3.73,4.14,-4.14,-4.15,-4.34,-0.41,-0.41,-0.41
299.53,3.68,4.09,3.69,4.10,-4.09,-4.12,-4.26,-0.41,-0.41,-0.41
302.53,3.64,4.05,3.64,4.05,-4.05,-4.08,-4.19,-0.41,-0.41,-0.40
305.55,3.60,4.00,3.60,4.00,-4.01,-4.05,-4.11,-0.41,-0.41,-0.40
308.61,3.56,3.96,3.57,3.96,-3.97,-4.02,-4.03,-0.41,-0.40,-0.39
311.69,3.53,3.92,3.53,3.92,-3.93,-3.99,-3.95,-0.40,-0.40,-0.39
314.81,3.51,3.89,3.51,3.89,-3.90,-3.95,-3.87,-0.39,-0.39,-0.38
317.96,3.49,3.87,3.50,3.87,-3.87,-3.92,-3.80,-0.37,-0.37,-0.37
321.14,3.48,3.85,3.48,3.84,-3.83,-3.88,-3.73,-0.35,-0.36,-0.37
324.35,3.45,3.82,3.45,3.81,-3.80,-3.85,-3.66,-0.35,-0.35,-0.37
327.59,3.42,3.76,3.42,3.78,-3.77,-3.81,-3.59,-0.34,-0.34,-0.34
330.87,3.39,3.74,3.39,3.74,-3.73,-3.78,-3.52,-0.34,-0.34,-0.34
334.18,3.35,3.70,3.36,3.69,-3.69,-3.74,-3.45,-0.34,-0.34,-0.35
337.52,3.32,3.65,3.32,3.65,-3.66,-3.70,-3.39,-0.33,-0.34,-0.33
340.90,3.28,3.61,3.28,3.61,-3.62,-3.66,-3.33,-0.34,-0.34,-0.32
344.30,3.25,3.57,3.26,3.57,-3.58,-3.62,-3.27,-0.33,-0.33,-0.31
347.75,3.23,3.54,3.24,3.54,-3.55,-3.58,-3.21,-0.32,-0.32,-0.31
351.23,3.22,3.52,3.22,3.52,-3.52,-3.54,-3.16,-0.29,-0.30,-0.30
354.74,3.20,3.48,3.20,3.49,-3.48,-3.50,-3.11,-0.28,-0.28,-0.28
358.28,3.18,3.47,3.18,3.46,-3.45,-3.46,-3.06,-0.26,-0.27,-0.28
361.87,3.14,3.43,3.14,3.42,-3.41,-3.42,-3.01,-0.27,-0.27,-0.29
365.49,3.10,3.37,3.11,3.38,-3.37,-3.38,-2.97,-0.27,-0.26,-0.27
369.14,3.06,3.32,3.06,3.32,-3.33,-3.34,-2.93,-0.26,-0.26,-0.26
372.83,3.02,3.27,3.02,3.28,-3.28,-3.30,-2.89,-0.26,-0.26,-0.25
376.56,2.98,3.24,2.98,3.23,-3.24,-3.26,-2.85,-0.26,-0.26,-0.25
380.33,2.94,3.19,2.94,3.19,-3.20,-3.22,-2.82,-0.25,-0.26,-0.24
384.13,2.90,3.14,2.91,3.15,-3.16,-3.17,-2.78,-0.25,-0.25,-0.24
387.97,2.88,3.11,2.89,3.11,-3.12,-3.13,-2.75,-0.24,-0.23,-0.23
391.85,2.87,3.08,2.87,3.09,-3.08,-3.09,-2.72,-0.21,-0.21,-0.21
395.77,2.85,3.06,2.85,3.06,-3.04,-3.05,-2.70,-0.19,-0.19,-0.21
399.73,2.82,3.03,2.82,3.02,-3.00,-3.00,-2.67,-0.18,-0.18,-0.20
403.72,2.78,2.97,2.78,2.97,-2.96,-2.96,-2.65,-0.18,-0.18,-0.18
407.76,2.74,2.92,2.74,2.92,-2.92,-2.92,-2.63,-0.17,-0.17,-0.17
411.84,2.70,2.87,2.70,2.87,-2.87,-2.87,-2.60,-0.17,-0.17,-0.17
415.96,2.66,2.82,2.66,2.82,-2.83,-2.83,-2.58,-0.17,-0.17,-0.16
420.12,2.62,2.78,2.62,2.78,-2.79,-2.79,-2.57,-0.16,-0.16,-0.16
424.32,2.58,2.73,2.59,2.73,-2.75,-2.74,-2.55,-0.16,-0.16,-0.15
428.56,2.56,2.69,2.56,2.70,-2.71,-2.70,-2.53,-0.14,-0.14,-0.13
432.85,2.54,2.65,2.55,2.67,-2.67,-2.66,-2.51,-0.13,-0.13,-0.11
437.18,2.53,2.66,2.53,2.64,-2.64,-2.62,-2.50,-0.10,-0.11,-0.12
441.55,2.50,2.62,2.50,2.61,-2.60,-2.57,-2.48,-0.09,-0.10,-0.11
445.96,2.46,2.57,2.47,2.57,-2.56,-2.53,-2.46,-0.09,-0.09,-0.10
450.42,2.42,2.52,2.42,2.52,-2.51,-2.49,-2.45,-0.09,-0.09,-0.10
454.93,2.38,2.47,2.38,2.47,-2.47,-2.44,-2.43,-0.08,-0.08,-0.09
459.48,2.34,2.42,2.34,2.42,-2.42,-2.40,-2.41,-0.08,-0.08,-0.08
464.07,2.30,2.36,2.30,2.37,-2.38,-2.36,-2.39,-0.07,-0.08,-0.06
468.71,2.26,2.32,2.27,2.32,-2.33,-2.32,-2.37,-0.07,-0.07,-0.06
473.40,2.23,2.28,2.23,2.28,-2.30,-2.28,-2.35,-0.06,-0.06,-0.05
478.13,2.21,2.25,2.21,2.25,-2.26,-2.23,-2.33,-0.05,-0.05,-0.04
482.91,2.19,2.22,2.20,2.23,-2.23,-2.19,-2.31,-0.03,-0.03,-0.03
487.74,2.18,2.20,2.18,2.20,-2.19,-2.15,-2.28,-0.01,-0.01,-0.02
492.62,2.15,2.17,2.15,2.17,-2.15,-2.11,-2.26,0.00,0.00,-0.01
497.55,2.12,2.13,2.13,2.13,-2.11,-2.07,-2.23,0.01,0.01,-0.00
502.52,2.09,2.09,2.09,2.08,-2.07,-2.02,-2.20,0.02,0.02,0.01
507.55,2.05,2.03,2.05,2.03,-2.03,-1.98,-2.17,0.02,0.02,0.03
512.62,2.01,1.98,2.02,1.98,-1.99,-1.94,-2.13,0.02,0.03,0.04
517.75,1.98,1.93,1.98,1.93,-1.95,-1.90,-2.10,0.04,0.03,0.05
522.93,1.95,1.89,1.96,1.89,-1.91,-1.86,-2.06,0.05,0.05,0.06
