frequency,raw,error,smoothed,error_smoothed,equalization,parametric_eq,fixed_band_eq,equalized_raw,equalized_smoothed,target
20.00,-8.21,-7.16,-8.20,-7.16,6.00,4.80,2.44,-2.21,-2.20,-1.05
20.20,-8.11,-7.12,-8.11,-7.12,6.00,4.93,2.51,-2.11,-2.11,-0.99
20.40,-8.02,-7.08,-8.01,-7.08,6.00,5.05,2.58,-2.02,-2.01,-0.94
20.61,-7.92,-7.04,-7.92,-7.04,6.00,5.17,2.66,-1.92,-1.92,-0.88
20.81,-7.83,-7.00,-7.82,-7.00,6.00,5.29,2.74,-1.83,-1.82,-0.83
21.02,-7.73,-6.96,-7.72,-6.96,6.00,5.41,2.82,-1.73,-1.72,-0.77
21.23,-7.63,-6.91,-7.63,-6.91,6.00,5.53,2.90,-1.63,-1.63,-0.72
21.44,-7.53,-6.86,-7.53,-6.86,6.00,5.64,2.98,-1.53,-1.53,-0.67
21.66,-7.44,-6.82,-7.43,-6.81,6.00,5.75,3.07,-1.44,-1.43,-0.62
21.87,-7.33,-6.77,-7.33,-6.77,6.00,5.86,3.16,-1.33,-1.33,-0.57
22.09,-7.24,-6.72,-7.24,-6.72,6.00,5.96,3.25,-1.24,-1.24,-0.52
22.31,-7.13,-6.67,-7.14,-6.66,6.00,6.05,3.35,-1.13,-1.14,-0.47
22.54,-7.04,-6.61,-7.04,-6.61,6.00,6.14,3.44,-1.04,-1.04,-0.43
22.76,-6.94,-6.56,-6.94,-6.56,6.00,6.22,3.54,-0.94,-0.94,-0.38
22.99,-6.84,-6.50,-6.84,-6.50,6.00,6.29,3.65,-0.84,-0.84,-0.34
23.22,-6.75,-6.46,-6.74,-6.45,6.00,6.35,3.75,-0.75,-0.74,-0.29
23.45,-6.65,-6.40,-6.65,-6.40,6.00,6.41,3.86,-0.65,-0.65,-0.25
23.69,-6.55,-6.35,-6.55,-6.34,6.00,6.45,3.96,-0.54,-0.54,-0.20
23.92,-6.44,-6.28,-6.45,-6.29,6.01,6.48,4.08,-0.44,-0.44,-0.16
24.16,-6.35,-6.23,-6.35,-6.24,6.01,6.51,4.19,-0.33,-0.34,-0.11
24.40,-6.25,-6.18,-6.25,-6.18,6.01,6.52,4.30,-0.24,-0.24,-0.07
24.65,-6.16,-6.12,-6.16,-6.12,6.00,6.52,4.42,-0.15,-0.15,-0.03
24.89,-6.05,-6.06,-6.06,-6.06,5.99,6.51,4.54,-0.07,-0.07,0.01
25.14,-5.95,-6.00,-5.96,-6.00,5.96,6.48,4.66,0.01,0.01,0.05
25.39,-5.85,-5.94,-5.86,-5.95,5.93,6.45,4.78,0.07,0.07,0.09
25.65,-5.77,-5.89,-5.76,-5.89,5.89,6.41,4.90,0.12,0.12,0.13
25.91,-5.67,-5.83,-5.67,-5.83,5.84,6.36,5.02,0.17,0.17,0.16
26.16,-5.56,-5.77,-5.57,-5.77,5.78,6.30,5.13,0.21,0.21,0.20
26.43,-5.47,-5.70,-5.47,-5.70,5.71,6.24,5.25,0.25,0.25,0.23
26.69,-5.37,-5.64,-5.37,-5.64,5.65,6.16,5.37,0.28,0.28,0.27
26.96,-5.28,-5.59,-5.27,-5.58,5.58,6.08,5.48,0.30,0.31,0.31
27.23,-5.18,-5.52,-5.18,-5.52,5.52,6.00,5.60,0.34,0.34,0.34
27.50,-5.08,-5.46,-5.08,-5.46,5.46,5.91,5.70,0.38,0.38,0.38
27.77,-4.97,-5.40,-4.98,-5.39,5.39,5.81,5.81,0.42,0.42,0.42
28.05,-4.88,-5.33,-4.88,-5.33,5.33,5.71,5.90,0.46,0.45,0.45
28.33,-4.79,-5.27,-4.78,-5.27,5.27,5.61,6.00,0.49,0.49,0.49
28.62,-4.69,-5.22,-4.69,-5.21,5.21,5.51,6.08,0.52,0.52,0.53
28.90,-4.59,-5.15,-4.59,-5.15,5.15,5.41,6.16,0.57,0.56,0.57
29.19,-4.50,-5.09,-4.49,-5.09,5.09,5.31,6.23,0.60,0.60,0.60
29.48,-4.40,-5.03,-4.40,-5.03,5.04,5.20,6.29,0.64,0.64,0.64
29.78,-4.31,-4.98,-4.31,-4.98,4.98,5.10,6.34,0.67,0.67,0.67
30.08,-4.22,-4.92,-4.22,-4.92,4.92,5.00,6.38,0.71,0.71,0.70
30.38,-4.13,-4.87,-4.13,-4.87,4.87,4.90,6.40,0.74,0.74,0.74
30.68,-4.05,-4.82,-4.04,-4.82,4.82,4.80,6.42,0.77,0.77,0.77
30.99,-3.96,-4.77,-3.96,-4.77,4.76,4.71,6.42,0.81,0.81,0.81
31.30,-3.88,-4.72,-3.87,-4.71,4.71,4.61,6.42,0.83,0.84,0.84
31.61,-3.79,-4.65,-3.79,-4.66,4.66,4.52,6.40,0.87,0.87,0.87
31.93,-3.71,-4.60,-3.71,-4.60,4.60,4.43,6.36,0.90,0.90,0.90
32.24,-3.62,-4.55,-3.62,-4.55,4.55,4.35,6.32,0.92,0.93,0.93
32.57,-3.54,-4.49,-3.54,-4.49,4.49,4.27,6.26,0.95,0.95,0.95
32.89,-3.46,-4.44,-3.45,-4.43,4.43,4.19,6.20,0.98,0.98,0.98
33.22,-3.37,-4.37,-3.37,-4.37,4.37,4.11,6.12,1.00,1.00,1.00
33.55,-3.29,-4.31,-3.28,-4.31,4.31,4.04,6.04,1.02,1.02,1.03
33.89,-3.20,-4.24,-3.20,-4.24,4.24,3.97,5.94,1.05,1.05,1.05
34.23,-3.11,-4.17,-3.11,-4.18,4.18,3.90,5.84,1.07,1.07,1.07
34.57,-3.02,-4.11,-3.02,-4.11,4.11,3.84,5.73,1.09,1.09,1.09
34.92,-2.93,-4.04,-2.93,-4.04,4.04,3.78,5.62,1.11,1.11,1.11
35.27,-2.84,-3.97,-2.84,-3.97,3.97,3.73,5.50,1.13,1.13,1.13
35.62,-2.75,-3.89,-2.75,-3.90,3.90,3.67,5.37,1.15,1.15,1.15
35.97,-2.67,-3.83,-2.67,-3.83,3.83,3.62,5.24,1.17,1.17,1.17
36.33,-2.59,-3.76,-2.58,-3.76,3.76,3.58,5.11,1.18,1.18,1.17
36.70,-2.51,-3.70,-2.51,-3.70,3.70,3.53,4.98,1.19,1.19,1.19
37.06,-2.43,-3.63,-2.43,-3.63,3.63,3.49,4.84,1.20,1.20,1.21
37.43,-2.35,-3.56,-2.34,-3.57,3.56,3.45,4.70,1.22,1.22,1.22
37.81,-2.27,-3.50,-2.27,-3.50,3.50,3.41,4.56,1.23,1.23,1.23
38.19,-2.19,-3.43,-2.19,-3.43,3.43,3.37,4.42,1.24,1.24,1.24
38.57,-2.12,-3.36,-2.11,-3.36,3.36,3.34,4.28,1.25,1.25,1.25
38.95,-2.04,-3.29,-2.04,-3.29,3.30,3.30,4.14,1.26,1.26,1.26
39.34,-1.97,-3.23,-1.97,-3.23,3.23,3.27,4.01,1.26,1.26,1.26
39.74,-1.90,-3.17,-1.89,-3.16,3.16,3.23,3.87,1.26,1.26,1.27
40.14,-1.83,-3.09,-1.82,-3.09,3.09,3.20,3.73,1.26,1.27,1.27
40.54,-1.75,-3.02,-1.75,-3.02,3.02,3.16,3.60,1.28,1.27,1.27
40.94,-1.68,-2.96,-1.68,-2.95,2.96,3.12,3.46,1.28,1.28,1.28
41.35,-1.61,-2.88,-1.61,-2.89,2.89,3.08,3.33,1.28,1.28,1.28
41.76,-1.55,-2.83,-1.54,-2.82,2.82,3.04,3.20,1.28,1.28,1.28
42.18,-1.48,-2.75,-1.48,-2.76,2.75,2.99,3.08,1.28,1.28,1.28
42.60,-1.41,-2.69,-1.41,-2.69,2.69,2.95,2.95,1.28,1.28,1.28
43.03,-1.35,-2.63,-1.34,-2.62,2.62,2.90,2.83,1.28,1.28,1.28
43.46,-1.28,-2.56,-1.28,-2.56,2.56,2.84,2.70,1.28,1.28,1.29
43.90,-1.21,-2.49,-1.21,-2.49,2.50,2.78,2.58,1.29,1.29,1.28
44.33,-1.15,-2.43,-1.15,-2.43,2.43,2.72,2.46,1.29,1.29,1.29
44.78,-1.09,-2.37,-1.08,-2.37,2.37,2.66,2.35,1.28,1.29,1.28
45.23,-1.03,-2.31,-1.03,-2.31,2.31,2.59,2.23,1.28,1.28,1.29
45.68,-0.97,-2.25,-0.97,-2.25,2.25,2.51,2.12,1.28,1.28,1.28
46.13,-0.92,-2.19,-0.91,-2.19,2.19,2.44,2.01,1.28,1.28,1.28
46.60,-0.86,-2.14,-0.86,-2.13,2.13,2.36,1.90,1.28,1.27,1.28
47.06,-0.81,-2.08,-0.80,-2.08,2.07,2.28,1.79,1.27,1.27,1.27
47.53,-0.75,-2.01,-0.75,-2.02,2.01,2.19,1.69,1.27,1.27,1.27
48.01,-0.69,-1.96,-0.69,-1.95,1.95,2.11,1.59,1.27,1.27,1.27
48.49,-0.63,-1.89,-0.63,-1.89,1.89,2.02,1.48,1.27,1.27,1.26
48.97,-0.57,-1.82,-0.57,-1.83,1.83,1.93,1.38,1.27,1.26,1.26
49.46,-0.51,-1.77,-0.51,-1.77,1.77,1.84,1.29,1.26,1.26,1.26
49.96,-0.46,-1.71,-0.45,-1.70,1.71,1.75,1.19,1.25,1.26,1.25
50.46,-0.39,-1.64,-0.39,-1.64,1.65,1.66,1.09,1.26,1.26,1.26
50.96,-0.33,-1.57,-0.33,-1.58,1.58,1.56,1.00,1.26,1.25,1.25
51.47,-0.28,-1.53,-0.27,-1.52,1.52,1.47,0.91,1.24,1.25,1.25
51.99,-0.22,-1.46,-0.21,-1.46,1.45,1.38,0.82,1.24,1.24,1.24
52.51,-0.15,-1.38,-0.15,-1.39,1.39,1.29,0.73,1.24,1.24,1.23
53.03,-0.09,-1.32,-0.09,-1.32,1.31,1.20,0.64,1.23,1.23,1.23
53.56,-0.02,-1.24,-0.02,-1.24,1.24,1.11,0.56,1.22,1.22,1.22
54.10,0.04,-1.17,0.05,-1.17,1.16,1.02,0.47,1.20,1.21,1.21
54.64,0.12,-1.08,0.12,-1.08,1.08,0.93,0.39,1.20,1.20,1.20
55.18,0.20,-0.99,0.20,-0.99,0.99,0.84,0.31,1.20,1.19,1.19
55.74,0.27,-0.91,0.28,-0.90,0.91,0.76,0.23,1.18,1.18,1.18
56.29,0.35,-0.81,0.35,-0.81,0.82,0.67,0.15,1.17,1.17,1.16
56.86,0.42,-0.73,0.43,-0.72,0.72,0.59,0.08,1.15,1.15,1.15
57.42,0.50,-0.62,0.50,-0.63,0.63,0.50,0.00,1.13,1.13,1.13
58.00,0.57,-0.53,0.57,-0.53,0.53,0.42,-0.07,1.10,1.10,1.11
58.58,0.65,-0.43,0.65,-0.43,0.43,0.34,-0.14,1.09,1.08,1.08
59.16,0.72,-0.34,0.73,-0.33,0.33,0.26,-0.20,1.06,1.06,1.06
59.76,0.81,-0.22,0.81,-0.23,0.23,0.18,-0.27,1.04,1.04,1.04
60.35,0.88,-0.12,0.88,-0.13,0.12,0.10,-0.33,1.01,1.00,1.00
60.96,0.95,-0.02,0.96,-0.02,0.01,0.03,-0.39,0.97,0.97,0.98
61.57,1.03,0.08,1.04,0.09,-0.10,-0.05,-0.45,0.94,0.94,0.95
62.18,1.12,0.21,1.12,0.20,-0.20,-0.13,-0.51,0.92,0.92,0.92
62.80,1.20,0.31,1.21,0.32,-0.31,-0.20,-0.56,0.89,0.90,0.89
63.43,1.29,0.43,1.29,0.43,-0.42,-0.28,-0.62,0.88,0.88,0.86
64.07,1.37,0.54,1.37,0.53,-0.52,-0.35,-0.67,0.85,0.85,0.84
64.71,1.43,0.62,1.44,0.63,-0.62,-0.42,-0.72,0.81,0.82,0.81
65.35,1.50,0.71,1.50,0.71,-0.72,-0.50,-0.77,0.79,0.79,0.79
66.01,1.57,0.80,1.57,0.80,-0.81,-0.57,-0.82,0.76,0.76,0.77
66.67,1.64,0.89,1.65,0.89,-0.90,-0.64,-0.86,0.74,0.75,0.75
67.33,1.72,0.99,1.72,0.99,-0.99,-0.71,-0.90,0.74,0.74,0.74
68.01,1.80,1.08,1.80,1.08,-1.07,-0.78,-0.95,0.74,0.73,0.73
68.69,1.87,1.16,1.87,1.16,-1.15,-0.86,-0.99,0.73,0.72,0.71
69.37,1.93,1.23,1.94,1.23,-1.23,-0.93,-1.03,0.71,0.71,0.70
70.07,1.99,1.30,1.99,1.30,-1.30,-1.00,-1.07,0.69,0.69,0.69
70.77,2.05,1.37,2.05,1.37,-1.38,-1.07,-1.11,0.68,0.68,0.68
71.48,2.11,1.44,2.11,1.44,-1.45,-1.14,-1.15,0.67,0.67,0.68
72.19,2.17,1.51,2.17,1.51,-1.52,-1.21,-1.19,0.65,0.65,0.66
72.91,2.23,1.59,2.23,1.58,-1.59,-1.28,-1.23,0.64,0.64,0.65
73.64,2.29,1.66,2.29,1.66,-1.66,-1.35,-1.27,0.63,0.63,0.63
74.38,2.35,1.74,2.35,1.74,-1.73,-1.42,-1.31,0.62,0.62,0.62
75.12,2.41,1.81,2.41,1.81,-1.80,-1.49,-1.35,0.61,0.61,0.60
75.87,2.46,1.88,2.46,1.88,-1.87,-1.57,-1.39,0.59,0.59,0.59
76.63,2.51,1.95,2.51,1.95,-1.94,-1.64,-1.44,0.57,0.57,0.57
77.40,2.55,2.01,2.56,2.01,-2.01,-1.71,-1.48,0.54,0.54,0.54
78.17,2.59,2.07,2.60,2.08,-2.08,-1.78,-1.52,0.51,0.52,0.52
78.95,2.65,2.15,2.65,2.14,-2.15,-1.85,-1.57,0.50,0.50,0.50
79.74,2.69,2.21,2.69,2.21,-2.22,-1.92,-1.61,0.47,0.48,0.48
80.54,2.74,2.28,2.75,2.28,-2.29,-1.99,-1.66,0.45,0.46,0.46
81.35,2.79,2.35,2.80,2.36,-2.36,-2.06,-1.71,0.44,0.44,0.44
82.16,2.85,2.43,2.85,2.43,-2.42,-2.14,-1.76,0.43,0.43,0.42
82.98,2.90,2.50,2.90,2.50,-2.49,-2.21,-1.81,0.41,0.41,0.40
83.81,2.94,2.56,2.94,2.56,-2.55,-2.28,-1.87,0.39,0.39,0.39
84.65,2.98,2.61,2.98,2.61,-2.61,-2.35,-1.92,0.37,0.37,0.37
85.50,3.01,2.65,3.02,2.66,-2.66,-2.42,-1.98,0.35,0.36,0.36
86.35,3.05,2.71,3.06,2.71,-2.71,-2.49,-2.04,0.34,0.35,0.35
87.22,3.09,2.76,3.09,2.76,-2.75,-2.56,-2.10,0.34,0.33,0.33
88.09,3.11,2.80,3.11,2.80,-2.79,-2.63,-2.16,0.32,0.32,0.32
88.97,3.13,2.83,3.13,2.83,-2.83,-2.70,-2.22,0.30,0.30,0.30
89.86,3.14,2.86,3.15,2.86,-2.86,-2.77,-2.29,0.28,0.29,0.29
90.76,3.16,2.89,3.16,2.89,-2.89,-2.83,-2.36,0.27,0.27,0.27
91.66,3.17,2.92,3.17,2.92,-2.92,-2.90,-2.43,0.25,0.25,0.25
92.58,3.18,2.95,3.18,2.95,-2.94,-2.96,-2.50,0.24,0.24,0.24
93.51,3.18,2.97,3.18,2.97,-2.97,-3.03,-2.57,0.22,0.22,0.21
94.44,3.18,2.99,3.18,2.99,-2.99,-3.09,-2.64,0.19,0.19,0.19
95.39,3.17,3.01,3.17,3.01,-3.01,-3.15,-2.72,0.16,0.16,0.16
96.34,3.16,3.03,3.17,3.03,-3.04,-3.21,-2.80,0.12,0.13,0.14
97.30,3.16,3.07,3.16,3.06,-3.07,-3.27,-2.88,0.10,0.09,0.10
98.28,3.16,3.09,3.16,3.10,-3.10,-3.33,-2.96,0.06,0.06,0.07
99.26,3.16,3.13,3.16,3.13,-3.13,-3.38,-3.04,0.03,0.03,0.03
100.25,3.16,3.17,3.16,3.17,-3.17,-3.43,-3.12,-0.01,-0.01,-0.01
101.25,3.16,3.21,3.16,3.21,-3.21,-3.48,-3.20,-0.05,-0.05,-0.05
102.27,3.16,3.25,3.16,3.25,-3.25,-3.52,-3.28,-0.09,-0.09,-0.09
103.29,3.16,3.29,3.16,3.29,-3.29,-3.57,-3.36,-0.13,-0.13,-0.13
104.32,3.16,3.34,3.16,3.34,-3.34,-3.61,-3.44,-0.17,-0.17,-0.18
105.37,3.16,3.38,3.16,3.38,-3.38,-3.64,-3.52,-0.22,-0.22,-0.22
106.42,3.16,3.43,3.16,3.43,-3.43,-3.68,-3.60,-0.27,-0.27,-0.26
107.48,3.16,3.47,3.16,3.47,-3.48,-3.71,-3.68,-0.31,-0.31,-0.30
108.56,3.16,3.52,3.17,3.52,-3.52,-3.73,-3.75,-0.36,-0.36,-0.35
109.64,3.17,3.57,3.17,3.57,-3.57,-3.76,-3.83,-0.40,-0.40,-0.39
110.74,3.18,3.63,3.18,3.62,-3.62,-3.77,-3.89,-0.43,-0.44,-0.44
111.85,3.18,3.66,3.19,3.67,-3.66,-3.79,-3.96,-0.48,-0.47,-0.48
112.97,3.18,3.70,3.18,3.70,-3.70,-3.80,-4.02,-0.51,-0.52,-0.52
114.10,3.17,3.73,3.17,3.73,-3.73,-3.81,-4.07,-0.56,-0.56,-0.56
115.24,3.15,3.75,3.16,3.76,-3.76,-3.81,-4.12,-0.60,-0.60,-0.60
116.39,3.14,3.78,3.15,3.78,-3.78,-3.81,-4.16,-0.63,-0.63,-0.63
117.55,3.13,3.80,3.13,3.79,-3.79,-3.80,-4.20,-0.65,-0.66,-0.66
118.73,3.10,3.80,3.10,3.80,-3.79,-3.79,-4.22,-0.69,-0.69,-0.70
119.92,3.06,3.79,3.06,3.79,-3.79,-3.77,-4.24,-0.72,-0.72,-0.73
121.12,3.01,3.77,3.02,3.77,-3.78,-3.75,-4.25,-0.76,-0.75,-0.75
122.33,2.98,3.75,2.98,3.76,-3.76,-3.73,-4.26,-0.77,-0.78,-0.77
123.55,2.94,3.74,2.94,3.73,-3.73,-3.70,-4.25,-0.79,-0.80,-0.80
124.79,2.88,3.70,2.89,3.70,-3.70,-3.67,-4.23,-0.82,-0.82,-0.82
126.03,2.82,3.66,2.83,3.67,-3.67,-3.64,-4.21,-0.84,-0.83,-0.84
127.29,2.77,3.63,2.77,3.63,-3.63,-3.60,-4.17,-0.86,-0.85,-0.86
128.57,2.72,3.60,2.71,3.59,-3.59,-3.55,-4.13,-0.87,-0.88,-0.87
129.85,2.64,3.54,2.65,3.54,-3.55,-3.51,-4.08,-0.91,-0.90,-0.90
131.15,2.57,3.48,2.59,3.50,-3.51,-3.46,-4.01,-0.94,-0.92,-0.91
132.46,2.53,3.47,2.53,3.46,-3.47,-3.40,-3.94,-0.94,-0.94,-0.93
133.79,2.48,3.44,2.48,3.43,-3.43,-3.34,-3.87,-0.95,-0.96,-0.96
135.12,2.40,3.38,2.41,3.39,-3.39,-3.28,-3.78,-0.98,-0.97,-0.98
136.48,2.35,3.35,2.35,3.34,-3.34,-3.22,-3.69,-0.98,-0.99,-1.00
137.84,2.26,3.28,2.28,3.30,-3.29,-3.15,-3.59,-1.02,-1.01,-1.02
139.22,2.20,3.25,2.19,3.24,-3.23,-3.09,-3.48,-1.03,-1.04,-1.05
140.61,2.11,3.18,2.10,3.17,-3.17,-3.01,-3.37,-1.05,-1.06,-1.07
142.02,1.98,3.08,2.00,3.10,-3.10,-2.94,-3.25,-1.11,-1.09,-1.10
143.44,1.91,3.03,1.90,3.02,-3.03,-2.86,-3.13,-1.11,-1.12,-1.11
144.87,1.79,2.93,1.80,2.94,-2.95,-2.78,-3.01,-1.16,-1.15,-1.14
146.32,1.71,2.88,1.70,2.87,-2.87,-2.70,-2.88,-1.16,-1.17,-1.17
147.78,1.58,2.77,1.59,2.78,-2.78,-2.62,-2.75,-1.20,-1.19,-1.18
149.26,1.49,2.70,1.49,2.70,-2.70,-2.53,-2.62,-1.20,-1.20,-1.21
150.75,1.37,2.61,1.38,2.61,-2.60,-2.44,-2.48,-1.23,-1.23,-1.23
152.26,1.27,2.53,1.26,2.52,-2.51,-2.35,-2.35,-1.24,-1.25,-1.26
153.78,1.12,2.41,1.13,2.41,-2.41,-2.26,-2.21,-1.29,-1.28,-1.28
155.32,1.00,2.30,1.01,2.31,-2.31,-2.17,-2.07,-1.31,-1.30,-1.30
156.88,0.87,2.19,0.88,2.20,-2.21,-2.07,-1.93,-1.33,-1.33,-1.32
158.44,0.77,2.11,0.75,2.09,-2.10,-1.97,-1.78,-1.33,-1.35,-1.34
160.03,0.60,1.97,0.63,1.99,-1.99,-1.87,-1.64,-1.39,-1.36,-1.36
161.63,0.50,1.88,0.51,1.88,-1.88,-1.76,-1.50,-1.38,-1.37,-1.37
163.24,0.40,1.80,0.37,1.77,-1.77,-1.65,-1.36,-1.36,-1.39,-1.39
164.88,0.23,1.65,0.25,1.66,-1.65,-1.54,-1.21,-1.42,-1.40,-1.41
166.53,0.10,1.53,0.11,1.53,-1.53,-1.43,-1.07,-1.42,-1.42,-1.42
168.19,-0.02,1.42,-0.04,1.40,-1.40,-1.31,-0.93,-1.42,-1.44,-1.44
169.87,-0.21,1.25,-0.18,1.28,-1.27,-1.19,-0.79,-1.47,-1.44,-1.46
171.57,-0.33,1.14,-0.33,1.14,-1.13,-1.07,-0.64,-1.46,-1.46,-1.47
173.29,-0.46,1.02,-0.49,0.99,-1.00,-0.94,-0.50,-1.45,-1.49,-1.47
175.02,-0.67,0.81,-0.64,0.84,-0.86,-0.81,-0.36,-1.52,-1.50,-1.48
176.77,-0.80,0.70,-0.79,0.70,-0.71,-0.68,-0.21,-1.51,-1.51,-1.50
178.54,-0.93,0.57,-0.93,0.57,-0.57,-0.54,-0.07,-1.50,-1.50,-1.49
180.32,-1.06,0.44,-1.06,0.44,-0.42,-0.40,0.07,-1.48,-1.48,-1.50
182.13,-1.19,0.32,-1.21,0.29,-0.27,-0.26,0.21,-1.46,-1.48,-1.50
183.95,-1.39,0.12,-1.37,0.13,-0.13,-0.11,0.35,-1.51,-1.50,-1.51
185.79,-1.54,-0.04,-1.54,-0.04,0.02,0.05,0.50,-1.51,-1.51,-1.50
187.65,-1.71,-0.20,-1.70,-0.20,0.18,0.20,0.64,-1.53,-1.52,-1.50
189.52,-1.85,-0.34,-1.85,-0.34,0.34,0.36,0.78,-1.51,-1.51,-1.51
191.42,-2.00,-0.49,-2.00,-0.50,0.50,0.52,0.92,-1.50,-1.50,-1.51
193.33,-2.17,-0.66,-2.16,-0.65,0.66,0.69,1.06,-1.50,-1.50,-1.51
195.27,-2.34,-0.82,-2.33,-0.82,0.83,0.85,1.20,-1.51,-1.51,-1.51
197.22,-2.51,-0.99,-2.51,-0.99,0.99,1.02,1.34,-1.51,-1.51,-1.51
199.19,-2.68,-1.16,-2.68,-1.16,1.16,1.19,1.48,-1.52,-1.52,-1.51
201.18,-2.85,-1.32,-2.85,-1.33,1.33,1.35,1.61,-1.52,-1.52,-1.52
203.19,-3.03,-1.50,-3.03,-1.50,1.50,1.51,1.75,-1.53,-1.53,-1.52
205.23,-3.21,-1.67,-3.20,-1.67,1.67,1.66,1.88,-1.53,-1.53,-1.53
207.28,-3.38,-1.83,-3.38,-1.84,1.85,1.81,2.02,-1.53,-1.53,-1.54
209.35,-3.55,-2.00,-3.55,-2.00,2.01,1.96,2.15,-1.54,-1.54,-1.54
211.44,-3.73,-2.17,-3.73,-2.17,2.17,2.09,2.28,-1.56,-1.56,-1.55
213.56,-3.90,-2.34,-3.90,-2.34,2.32,2.22,2.40,-1.58,-1.58,-1.56
215.69,-4.06,-2.50,-4.05,-2.49,2.47,2.34,2.52,-1.59,-1.59,-1.56
217.85,-4.20,-2.63,-4.18,-2.62,2.61,2.45,2.64,-1.59,-1.57,-1.57
220.03,-4.30,-2.72,-4.30,-2.73,2.74,2.56,2.76,-1.55,-1.56,-1.57
222.23,-4.41,-2.82,-4.42,-2.84,2.86,2.66,2.87,-1.54,-1.56,-1.58
224.45,-4.55,-2.96,-4.55,-2.96,2.98,2.75,2.97,-1.57,-1.57,-1.59
226.70,-4.70,-3.10,-4.69,-3.09,3.08,2.84,3.07,-1.61,-1.61,-1.60
228.96,-4.82,-3.21,-4.80,-3.20,3.18,2.93,3.17,-1.64,-1.62,-1.60
231.25,-4.89,-3.28,-4.89,-3.28,3.26,3.02,3.25,-1.63,-1.63,-1.61
233.57,-4.96,-3.33,-4.97,-3.35,3.34,3.12,3.33,-1.62,-1.63,-1.63
235.90,-5.06,-3.42,-5.04,-3.41,3.41,3.22,3.40,-1.64,-1.63,-1.63
238.26,-5.11,-3.46,-5.11,-3.47,3.48,3.32,3.47,-1.63,-1.63,-1.65
240.64,-5.18,-3.52,-5.17,-3.52,3.53,3.43,3.52,-1.64,-1.64,-1.65
243.05,-5.23,-3.56,-5.24,-3.57,3.58,3.56,3.57,-1.64,-1.65,-1.67
245.48,-5.30,-3.61,-5.30,-3.62,3.63,3.68,3.61,-1.67,-1.68,-1.68
247.93,-5.38,-3.69,-5.36,-3.67,3.67,3.82,3.64,-1.71,-1.70,-1.69
250.41,-5.41,-3.70,-5.41,-3.71,3.70,3.96,3.66,-1.71,-1.72,-1.70
252.92,-5.45,-3.74,-5.45,-3.74,3.72,4.10,3.66,-1.72,-1.72,-1.71
255.45,-5.47,-3.74,-5.46,-3.74,3.74,4.23,3.66,-1.73,-1.73,-1.72
258.00,-5.48,-3.75,-5.48,-3.75,3.75,4.36,3.66,-1.73,-1.73,-1.73
260.58,-5.48,-3.74,-5.48,-3.74,3.75,4.47,3.64,-1.73,-1.73,-1.74
263.19,-5.47,-3.72,-5.47,-3.73,3.74,4.55,3.61,-1.73,-1.73,-1.74
265.82,-5.47,-3.72,-5.47,-3.72,3.72,4.61,3.58,-1.75,-1.75,-1.75
268.48,-5.46,-3.69,-5.46,-3.70,3.70,4.64,3.54,-1.76,-1.76,-1.76
271.16,-5.45,-3.68,-5.44,-3.67,3.66,4.62,3.49,-1.78,-1.77,-1.77
273.87,-5.41,-3.63,-5.41,-3.63,3.63,4.56,3.43,-1.78,-1.79,-1.78
276.61,-5.38,-3.58,-5.38,-3.59,3.58,4.47,3.37,-1.79,-1.79,-1.79
279.38,-5.34,-3.54,-5.33,-3.54,3.53,4.33,3.30,-1.80,-1.80,-1.80
282.17,-5.29,-3.48,-5.29,-3.48,3.48,4.17,3.23,-1.81,-1.81,-1.81
284.99,-5.24,-3.41,-5.23,-3.41,3.42,3.97,3.15,-1.81,-1.81,-1.82
287.84,-5.18,-3.34,-5.18,-3.35,3.36,3.76,3.07,-1.81,-1.82,-1.83
290.72,-5.13,-3.28,-5.13,-3.28,3.30,3.53,2.98,-1.83,-1.83,-1.85
293.63,-5.09,-3.23,-5.08,-3.22,3.23,3.30,2.90,-1.85,-1.85,-1.86
296.57,-5.04,-3.16,-5.04,-3.17,3.16,3.07,2.80,-1.88,-1.88,-1.87
299.53,-4.99,-3.10,-4.98,-3.10,3.08,2.83,2.71,-1.91,-1.90,-1.88
302.53,-4.92,-3.02,-4.91,-3.01,2.99,2.61,2.62,-1.92,-1.92,-1.90
305.55,-4.82,-2.91,-4.82,-2.91,2.90,2.39,2.52,-1.92,-1.92,-1.91
308.61,-4.72,-2.80,-4.72,-2.80,2.80,2.18,2.43,-1.92,-1.92,-1.92
311.69,-4.61,-2.67,-4.61,-2.68,2.69,1.98,2.33,-1.92,-1.93,-1.93
314.81,-4.52,-2.57,-4.51,-2.57,2.57,1.79,2.23,-1.94,-1.94,-1.94
317.96,-4.41,-2.45,-4.40,-2.45,2.45,1.62,2.14,-1.95,-1.95,-1.96
321.14,-4.29,-2.33,-4.29,-2.33,2.33,1.45,2.04,-1.96,-1.96,-1.96
324.35,-4.17,-2.20,-4.17,-2.20,2.20,1.29,1.94,-1.96,-1.97,-1.97
327.59,-4.05,-2.07,-4.06,-2.08,2.08,1.15,1.85,-1.97,-1.98,-1.97
330.87,-3.95,-1.96,-3.93,-1.95,1.95,1.01,1.75,-2.00,-1.99,-1.98
334.18,-3.82,-1.83,-3.81,-1.83,1.82,0.88,1.66,-2.00,-1.99,-1.98
337.52,-3.67,-1.68,-3.68,-1.69,1.69,0.76,1.56,-1.98,-1.99,-1.99
340.90,-3.56,-1.56,-3.55,-1.56,1.56,0.65,1.47,-1.99,-1.99,-2.00
344.30,-3.43,-1.43,-3.43,-1.43,1.44,0.55,1.38,-1.99,-1.99,-2.00
347.75,-3.32,-1.32,-3.31,-1.31,1.31,0.45,1.29,-2.00,-2.00,-2.00
351.23,-3.20,-1.19,-3.20,-1.19,1.20,0.36,1.20,-2.00,-2.00,-2.00
354.74,-3.09,-1.08,-3.08,-1.08,1.08,0.27,1.11,-2.01,-2.00,-2.00
358.28,-2.97,-0.96,-2.97,-0.97,0.97,0.19,1.02,-2.00,-2.00,-2.00
361.87,-2.87,-0.86,-2.86,-0.86,0.86,0.11,0.93,-2.01,-2.00,-2.01
365.49,-2.76,-0.75,-2.76,-0.75,0.75,0.04,0.85,-2.00,-2.01,-2.01
369.14,-2.66,-0.65,-2.66,-0.65,0.65,-0.03,0.76,-2.01,-2.01,-2.01
372.83,-2.57,-0.57,-2.55,-0.55,0.55,-0.09,0.68,-2.02,-2.01,-2.00
376.56,-2.45,-0.45,-2.45,-0.45,0.45,-0.16,0.59,-2.00,-2.00,-2.00
380.33,-2.36,-0.35,-2.36,-0.35,0.36,-0.21,0.51,-2.00,-2.00,-2.01
384.13,-2.27,-0.25,-2.27,-0.26,0.27,-0.27,0.43,-2.00,-2.00,-2.01
387.97,-2.19,-0.17,-2.19,-0.18,0.18,-0.32,0.35,-2.00,-2.00,-2.01
391.85,-2.12,-0.10,-2.11,-0.10,0.10,-0.38,0.27,-2.02,-2.01,-2.01
395.77,-2.05,-0.03,-2.05,-0.03,0.02,-0.43,0.19,-2.03,-2.03,-2.01
399.73,-1.98,0.05,-1.98,0.05,-0.06,-0.47,0.11,-2.03,-2.03,-2.02
403.72,-1.91,0.12,-1.90,0.13,-0.13,-0.52,0.04,-2.04,-2.03,-2.03
407.76,-1.83,0.21,-1.83,0.20,-0.20,-0.56,-0.04,-2.03,-2.03,-2.04
411.84,-1.76,0.28,-1.76,0.28,-0.28,-0.60,-0.11,-2.03,-2.03,-2.04
415.96,-1.70,0.35,-1.69,0.36,-0.35,-0.65,-0.19,-2.04,-2.04,-2.05
420.12,-1.64,0.42,-1.64,0.42,-0.41,-0.69,-0.26,-2.05,-2.05,-2.06
424.32,-1.59,0.49,-1.59,0.48,-0.48,-0.72,-0.33,-2.07,-2.07,-2.08
428.56,-1.56,0.53,-1.55,0.54,-0.54,-0.76,-0.40,-2.10,-2.09,-2.09
432.85,-1.51,0.59,-1.50,0.60,-0.61,-0.80,-0.47,-2.11,-2.11,-2.10
437.18,-1.46,0.66,-1.46,0.66,-0.67,-0.84,-0.54,-2.12,-2.13,-2.12
441.55,-1.41,0.73,-1.41,0.73,-0.73,-0.87,-0.60,-2.13,-2.14,-2.14
445.96,-1.37,0.78,-1.37,0.79,-0.79,-0.91,-0.67,-2.15,-2.15,-2.15
450.42,-1.33,0.85,-1.32,0.85,-0.84,-0.94,-0.73,-2.17,-2.17,-2.17
454.93,-1.29,0.91,-1.29,0.90,-0.90,-0.98,-0.79,-2.18,-2.18,-2.19
459.48,-1.25,0.96,-1.25,0.96,-0.95,-1.01,-0.85,-2.20,-2.20,-2.20
464.07,-1.22,1.01,-1.22,1.01,-1.00,-1.04,-0.90,-2.22,-2.22,-2.22
468.71,-1.19,1.05,-1.18,1.05,-1.05,-1.07,-0.96,-2.24,-2.24,-2.23
473.40,-1.15,1.11,-1.15,1.10,-1.11,-1.11,-1.01,-2.25,-2.26,-2.25
478.13,-1.12,1.15,-1.11,1.15,-1.16,-1.14,-1.06,-2.27,-2.27,-2.26
