frequency,raw,error,smoothed,error_smoothed,equalization,parametric_eq,fixed_band_eq,equalized_raw,equalized_smoothed,target
20.00,1.14,-4.34,1.14,-4.34,4.34,4.40,0.93,5.49,5.49,5.49
20.20,1.21,-4.27,1.21,-4.28,4.28,4.33,0.96,5.49,5.49,5.49
20.40,1.27,-4.22,1.28,-4.22,4.22,4.26,0.99,5.49,5.50,5.50
20.61,1.34,-4.16,1.34,-4.16,4.16,4.19,1.02,5.50,5.50,5.51
20.81,1.41,-4.09,1.41,-4.10,4.10,4.12,1.05,5.51,5.51,5.51
21.02,1.48,-4.03,1.48,-4.03,4.03,4.05,1.08,5.52,5.51,5.52
21.23,1.54,-3.97,1.55,-3.97,3.97,3.98,1.11,5.52,5.52,5.52
21.44,1.61,-3.91,1.61,-3.91,3.91,3.91,1.15,5.53,5.53,5.53
21.66,1.68,-3.85,1.68,-3.85,3.85,3.84,1.18,5.53,5.53,5.53
21.87,1.74,-3.79,1.75,-3.79,3.79,3.78,1.22,5.53,5.54,5.53
22.09,1.81,-3.73,1.81,-3.73,3.73,3.71,1.25,5.54,5.54,5.54
22.31,1.88,-3.67,1.88,-3.67,3.67,3.64,1.29,5.55,5.55,5.55
22.54,1.94,-3.61,1.95,-3.61,3.61,3.58,1.33,5.55,5.56,5.55
22.76,2.01,-3.55,2.01,-3.55,3.55,3.51,1.37,5.57,5.56,5.56
22.99,2.08,-3.49,2.08,-3.49,3.49,3.44,1.41,5.58,5.57,5.57
23.22,2.14,-3.44,2.15,-3.44,3.43,3.38,1.45,5.58,5.58,5.58
23.45,2.21,-3.38,2.21,-3.38,3.38,3.32,1.49,5.59,5.59,5.59
23.69,2.28,-3.32,2.28,-3.32,3.32,3.25,1.54,5.60,5.60,5.60
23.92,2.35,-3.26,2.35,-3.26,3.26,3.19,1.58,5.61,5.61,5.61
24.16,2.42,-3.20,2.42,-3.20,3.20,3.13,1.63,5.63,5.62,5.62
24.40,2.48,-3.15,2.49,-3.15,3.15,3.06,1.67,5.63,5.63,5.63
24.65,2.55,-3.10,2.55,-3.09,3.09,3.00,1.72,5.64,5.64,5.65
24.89,2.62,-3.03,2.62,-3.03,3.03,2.94,1.76,5.65,5.65,5.66
25.14,2.69,-2.97,2.69,-2.97,2.97,2.88,1.81,5.67,5.67,5.67
25.39,2.76,-2.91,2.76,-2.91,2.92,2.82,1.86,5.68,5.68,5.68
25.65,2.83,-2.85,2.83,-2.86,2.86,2.76,1.90,5.69,5.69,5.69
25.91,2.89,-2.81,2.90,-2.81,2.81,2.71,1.95,5.70,5.70,5.71
26.16,2.96,-2.75,2.96,-2.75,2.75,2.65,2.00,5.71,5.71,5.72
26.43,3.03,-2.69,3.03,-2.70,2.69,2.59,2.04,5.73,5.72,5.72
26.69,3.09,-2.64,3.10,-2.64,2.64,2.54,2.09,5.73,5.74,5.73
26.96,3.16,-2.59,3.16,-2.59,2.59,2.48,2.13,5.75,5.75,5.75
27.23,3.23,-2.53,3.23,-2.53,2.53,2.43,2.17,5.76,5.76,5.76
27.50,3.30,-2.48,3.30,-2.48,2.48,2.37,2.22,5.78,5.78,5.78
27.77,3.36,-2.43,3.37,-2.42,2.43,2.32,2.26,5.79,5.79,5.79
28.05,3.43,-2.38,3.43,-2.37,2.37,2.27,2.30,5.81,5.81,5.81
28.33,3.50,-2.31,3.50,-2.32,2.32,2.22,2.33,5.83,5.82,5.82
28.62,3.56,-2.27,3.57,-2.27,2.27,2.17,2.37,5.83,5.84,5.84
28.90,3.63,-2.21,3.63,-2.22,2.22,2.12,2.40,5.85,5.85,5.85
29.19,3.69,-2.17,3.70,-2.17,2.17,2.07,2.43,5.86,5.86,5.87
29.48,3.76,-2.11,3.76,-2.12,2.11,2.03,2.45,5.88,5.87,5.87
29.78,3.82,-2.07,3.82,-2.07,2.06,1.98,2.47,5.88,5.89,5.89
30.08,3.89,-2.01,3.89,-2.01,2.01,1.94,2.49,5.90,5.90,5.90
30.38,3.96,-1.96,3.96,-1.96,1.95,1.89,2.51,5.91,5.92,5.92
30.68,4.03,-1.90,4.04,-1.89,1.90,1.85,2.52,5.93,5.93,5.93
30.99,4.11,-1.84,4.11,-1.84,1.84,1.81,2.53,5.96,5.95,5.95
31.30,4.17,-1.78,4.17,-1.79,1.79,1.77,2.53,5.96,5.96,5.96
31.61,4.23,-1.74,4.24,-1.74,1.74,1.73,2.53,5.97,5.97,5.97
31.93,4.30,-1.68,4.30,-1.69,1.68,1.69,2.53,5.99,5.98,5.98
32.24,4.36,-1.64,4.36,-1.64,1.63,1.65,2.52,6.00,6.00,6.00
32.57,4.42,-1.59,4.43,-1.58,1.59,1.62,2.51,6.01,6.01,6.01
32.89,4.49,-1.54,4.49,-1.54,1.54,1.58,2.50,6.03,6.03,6.03
33.22,4.55,-1.48,4.55,-1.49,1.49,1.55,2.48,6.04,6.04,6.04
33.55,4.60,-1.45,4.61,-1.44,1.44,1.51,2.46,6.05,6.05,6.06
33.89,4.66,-1.40,4.66,-1.40,1.40,1.48,2.43,6.06,6.06,6.06
34.23,4.72,-1.36,4.72,-1.36,1.36,1.45,2.41,6.08,6.08,6.08
34.57,4.77,-1.32,4.78,-1.31,1.32,1.42,2.38,6.09,6.09,6.09
34.92,4.83,-1.26,4.83,-1.27,1.28,1.39,2.35,6.11,6.10,6.10
35.27,4.87,-1.24,4.87,-1.24,1.24,1.36,2.31,6.11,6.11,6.11
35.62,4.91,-1.21,4.92,-1.20,1.20,1.34,2.28,6.11,6.12,6.12
35.97,4.96,-1.17,4.96,-1.17,1.17,1.31,2.24,6.13,6.12,6.13
36.33,5.00,-1.13,5.00,-1.13,1.13,1.29,2.20,6.14,6.14,6.14
36.70,5.04,-1.10,5.05,-1.10,1.10,1.26,2.17,6.14,6.15,6.15
37.06,5.09,-1.06,5.09,-1.07,1.07,1.24,2.13,6.17,6.16,6.15
37.43,5.12,-1.04,5.12,-1.04,1.04,1.22,2.09,6.17,6.16,6.16
37.81,5.14,-1.02,5.15,-1.02,1.02,1.20,2.05,6.16,6.17,6.17
38.19,5.17,-1.00,5.17,-1.00,1.00,1.18,2.01,6.17,6.17,6.17
38.57,5.20,-0.98,5.20,-0.98,0.98,1.16,1.97,6.18,6.18,6.18
38.95,5.23,-0.96,5.23,-0.96,0.96,1.15,1.93,6.19,6.19,6.19
39.34,5.25,-0.94,5.25,-0.94,0.94,1.13,1.89,6.19,6.19,6.20
39.74,5.27,-0.93,5.27,-0.92,0.93,1.11,1.85,6.20,6.20,6.20
40.14,5.29,-0.91,5.29,-0.91,0.91,1.10,1.81,6.20,6.20,6.20
40.54,5.30,-0.90,5.31,-0.90,0.90,1.09,1.77,6.20,6.21,6.20
40.94,5.32,-0.89,5.32,-0.89,0.89,1.07,1.74,6.21,6.21,6.21
41.35,5.33,-0.88,5.33,-0.88,0.88,1.06,1.70,6.22,6.22,6.22
41.76,5.34,-0.88,5.34,-0.88,0.88,1.05,1.67,6.22,6.22,6.22
42.18,5.34,-0.89,5.35,-0.88,0.88,1.04,1.64,6.22,6.23,6.23
42.60,5.35,-0.88,5.35,-0.88,0.88,1.03,1.60,6.23,6.23,6.23
43.03,5.36,-0.88,5.36,-0.88,0.88,1.02,1.57,6.25,6.24,6.24
43.46,5.36,-0.88,5.36,-0.88,0.89,1.01,1.54,6.25,6.25,6.25
43.90,5.36,-0.89,5.36,-0.89,0.89,1.01,1.51,6.26,6.26,6.25
44.33,5.36,-0.90,5.36,-0.90,0.90,1.00,1.49,6.27,6.26,6.27
44.78,5.35,-0.92,5.36,-0.91,0.91,0.99,1.46,6.26,6.27,6.27
45.23,5.35,-0.92,5.35,-0.92,0.92,0.99,1.43,6.27,6.28,6.27
45.68,5.35,-0.94,5.35,-0.93,0.93,0.98,1.41,6.28,6.28,6.29
46.13,5.35,-0.94,5.35,-0.94,0.94,0.97,1.39,6.29,6.29,6.29
46.60,5.35,-0.95,5.35,-0.95,0.95,0.97,1.37,6.30,6.30,6.31
47.06,5.35,-0.96,5.36,-0.96,0.96,0.97,1.34,6.31,6.31,6.31
47.53,5.36,-0.96,5.36,-0.96,0.96,0.96,1.32,6.33,6.32,6.33
48.01,5.36,-0.97,5.36,-0.97,0.97,0.96,1.31,6.33,6.33,6.33
48.49,5.36,-0.98,5.37,-0.97,0.97,0.95,1.29,6.33,6.34,6.34
48.97,5.37,-0.97,5.37,-0.98,0.98,0.95,1.27,6.35,6.35,6.34
49.46,5.37,-0.98,5.38,-0.98,0.98,0.95,1.26,6.35,6.35,6.36
49.96,5.38,-0.98,5.38,-0.98,0.98,0.94,1.24,6.36,6.36,6.36
50.46,5.38,-0.98,5.38,-0.98,0.98,0.94,1.23,6.37,6.37,6.36
50.96,5.38,-0.99,5.38,-0.99,0.99,0.94,1.21,6.37,6.37,6.37
51.47,5.38,-0.99,5.38,-0.99,0.99,0.93,1.20,6.37,6.37,6.37
51.99,5.38,-0.99,5.38,-0.99,1.00,0.93,1.19,6.38,6.38,6.38
52.51,5.38,-0.99,5.38,-0.99,1.00,0.93,1.18,6.38,6.38,6.38
53.03,5.38,-0.99,5.38,-1.00,1.00,0.92,1.16,6.39,6.38,6.38
53.56,5.37,-1.01,5.38,-1.01,1.00,0.92,1.15,6.38,6.38,6.39
54.10,5.37,-1.01,5.38,-1.01,1.00,0.92,1.14,6.38,6.38,6.39
54.64,5.38,-1.00,5.38,-1.01,1.00,0.91,1.13,6.38,6.38,6.39
55.18,5.38,-0.99,5.39,-1.00,0.99,0.91,1.12,6.38,6.38,6.38
55.74,5.39,-0.98,5.39,-0.98,0.98,0.90,1.11,6.38,6.38,6.38
56.29,5.40,-0.97,5.40,-0.97,0.97,0.89,1.10,6.37,6.37,6.37
56.86,5.41,-0.95,5.41,-0.95,0.95,0.89,1.08,6.37,6.37,6.36
57.42,5.42,-0.94,5.42,-0.93,0.93,0.88,1.07,6.36,6.36,6.36
58.00,5.43,-0.91,5.44,-0.91,0.91,0.87,1.06,6.34,6.35,6.35
58.58,5.45,-0.89,5.45,-0.89,0.89,0.87,1.04,6.34,6.34,6.34
59.16,5.46,-0.87,5.47,-0.86,0.86,0.86,1.03,6.32,6.33,6.33
59.76,5.48,-0.83,5.48,-0.83,0.83,0.85,1.01,6.32,6.32,6.32
60.35,5.50,-0.80,5.50,-0.80,0.81,0.84,1.00,6.31,6.30,6.30
60.96,5.51,-0.78,5.51,-0.77,0.78,0.83,0.98,6.29,6.29,6.29
61.57,5.52,-0.75,5.52,-0.75,0.75,0.82,0.96,6.28,6.28,6.27
62.18,5.53,-0.72,5.53,-0.73,0.73,0.81,0.94,6.26,6.26,6.26
62.80,5.53,-0.71,5.53,-0.71,0.71,0.79,0.92,6.24,6.24,6.24
63.43,5.53,-0.69,5.53,-0.69,0.69,0.78,0.89,6.23,6.22,6.22
64.07,5.52,-0.67,5.52,-0.68,0.68,0.77,0.87,6.20,6.20,6.20
64.71,5.51,-0.67,5.51,-0.67,0.67,0.75,0.84,6.18,6.18,6.18
65.35,5.50,-0.66,5.50,-0.66,0.66,0.74,0.82,6.16,6.16,6.16
66.01,5.49,-0.65,5.49,-0.65,0.65,0.72,0.79,6.14,6.14,6.14
66.67,5.48,-0.64,5.48,-0.64,0.64,0.70,0.76,6.12,6.12,6.12
67.33,5.46,-0.64,5.47,-0.63,0.63,0.69,0.73,6.10,6.10,6.11
68.01,5.45,-0.62,5.45,-0.63,0.63,0.67,0.70,6.08,6.08,6.08
68.69,5.43,-0.62,5.43,-0.62,0.62,0.65,0.67,6.06,6.06,6.05
69.37,5.41,-0.62,5.41,-0.62,0.62,0.63,0.64,6.04,6.04,6.03
70.07,5.39,-0.62,5.39,-0.62,0.62,0.61,0.60,6.02,6.01,6.01
70.77,5.36,-0.63,5.37,-0.62,0.62,0.58,0.57,5.99,5.99,5.99
71.48,5.34,-0.62,5.34,-0.63,0.63,0.56,0.53,5.97,5.97,5.97
72.19,5.31,-0.63,5.31,-0.63,0.63,0.54,0.50,5.94,5.94,5.94
72.91,5.29,-0.64,5.29,-0.64,0.63,0.51,0.46,5.93,5.93,5.93
73.64,5.26,-0.64,5.27,-0.64,0.64,0.49,0.42,5.90,5.91,5.90
74.38,5.24,-0.65,5.24,-0.64,0.65,0.46,0.38,5.89,5.89,5.89
75.12,5.22,-0.64,5.22,-0.65,0.65,0.43,0.34,5.87,5.87,5.86
75.87,5.19,-0.65,5.20,-0.65,0.65,0.41,0.30,5.84,5.85,5.85
76.63,5.18,-0.65,5.18,-0.65,0.65,0.38,0.26,5.83,5.83,5.83
77.40,5.16,-0.65,5.16,-0.65,0.65,0.35,0.22,5.81,5.81,5.81
78.17,5.15,-0.64,5.15,-0.64,0.64,0.32,0.18,5.79,5.79,5.80
78.95,5.14,-0.63,5.15,-0.63,0.62,0.29,0.14,5.77,5.77,5.78
79.74,5.14,-0.61,5.15,-0.61,0.61,0.26,0.10,5.75,5.75,5.76
80.54,5.15,-0.58,5.15,-0.59,0.59,0.22,0.06,5.74,5.73,5.74
81.35,5.15,-0.56,5.16,-0.56,0.56,0.19,0.01,5.72,5.72,5.72
82.16,5.16,-0.53,5.16,-0.53,0.54,0.16,-0.03,5.70,5.70,5.70
82.98,5.17,-0.50,5.17,-0.51,0.51,0.12,-0.07,5.68,5.68,5.68
83.81,5.17,-0.48,5.17,-0.48,0.48,0.09,-0.12,5.66,5.66,5.65
84.65,5.17,-0.46,5.17,-0.46,0.46,0.05,-0.16,5.63,5.63,5.63
85.50,5.17,-0.44,5.17,-0.44,0.44,0.02,-0.20,5.61,5.61,5.61
86.35,5.17,-0.41,5.17,-0.41,0.42,-0.02,-0.25,5.59,5.59,5.59
87.22,5.17,-0.39,5.17,-0.39,0.40,-0.06,-0.29,5.57,5.57,5.56
88.09,5.16,-0.38,5.16,-0.38,0.38,-0.09,-0.34,5.55,5.55,5.54
88.97,5.15,-0.37,5.15,-0.37,0.37,-0.13,-0.38,5.52,5.52,5.52
89.86,5.14,-0.36,5.15,-0.35,0.34,-0.17,-0.43,5.49,5.49,5.50
90.76,5.14,-0.33,5.14,-0.33,0.32,-0.21,-0.47,5.47,5.47,5.47
91.66,5.15,-0.30,5.15,-0.30,0.30,-0.25,-0.52,5.45,5.45,5.46
92.58,5.16,-0.27,5.16,-0.27,0.27,-0.28,-0.57,5.43,5.44,5.43
93.51,5.18,-0.22,5.18,-0.23,0.24,-0.32,-0.61,5.42,5.42,5.41
94.44,5.19,-0.20,5.19,-0.19,0.20,-0.36,-0.66,5.39,5.39,5.39
95.39,5.21,-0.15,5.21,-0.15,0.15,-0.40,-0.71,5.36,5.36,5.36
96.34,5.23,-0.11,5.23,-0.11,0.10,-0.44,-0.76,5.33,5.33,5.34
97.30,5.26,-0.05,5.27,-0.05,0.04,-0.48,-0.80,5.30,5.30,5.32
98.28,5.30,0.01,5.31,0.02,-0.03,-0.52,-0.85,5.28,5.28,5.29
99.26,5.36,0.10,5.36,0.09,-0.09,-0.56,-0.90,5.27,5.26,5.26
100.25,5.41,0.17,5.42,0.18,-0.17,-0.61,-0.95,5.25,5.25,5.24
101.25,5.47,0.26,5.47,0.26,-0.25,-0.65,-0.99,5.23,5.22,5.22
102.27,5.52,0.34,5.52,0.33,-0.33,-0.69,-1.04,5.20,5.19,5.19
103.29,5.55,0.40,5.56,0.40,-0.41,-0.73,-1.09,5.15,5.15,5.15
104.32,5.59,0.47,5.60,0.48,-0.48,-0.77,-1.13,5.11,5.12,5.12
105.37,5.64,0.55,5.64,0.55,-0.56,-0.81,-1.18,5.09,5.09,5.09
106.42,5.69,0.64,5.69,0.63,-0.63,-0.85,-1.22,5.07,5.06,5.05
107.48,5.72,0.71,5.72,0.71,-0.70,-0.89,-1.26,5.03,5.03,5.02
108.56,5.75,0.78,5.75,0.77,-0.76,-0.93,-1.30,4.99,4.98,4.98
109.64,5.76,0.82,5.77,0.83,-0.83,-0.98,-1.34,4.93,4.93,4.94
110.74,5.78,0.88,5.79,0.89,-0.90,-1.02,-1.38,4.88,4.89,4.90
111.85,5.82,0.96,5.82,0.96,-0.96,-1.06,-1.42,4.86,4.85,4.86
112.97,5.85,1.04,5.85,1.03,-1.03,-1.10,-1.45,4.82,4.82,4.82
114.10,5.88,1.10,5.88,1.10,-1.10,-1.14,-1.48,4.79,4.78,4.78
115.24,5.90,1.17,5.90,1.17,-1.17,-1.18,-1.51,4.74,4.73,4.73
116.39,5.92,1.23,5.92,1.23,-1.24,-1.23,-1.54,4.69,4.69,4.69
117.55,5.94,1.30,5.95,1.30,-1.31,-1.27,-1.56,4.63,4.64,4.65
118.73,5.98,1.37,5.98,1.38,-1.38,-1.31,-1.58,4.60,4.60,4.61
119.92,6.02,1.46,6.02,1.45,-1.45,-1.35,-1.60,4.57,4.57,4.56
121.12,6.05,1.52,6.05,1.52,-1.52,-1.40,-1.61,4.54,4.53,4.53
122.33,6.07,1.58,6.08,1.59,-1.58,-1.44,-1.62,4.49,4.49,4.49
123.55,6.10,1.64,6.10,1.65,-1.65,-1.48,-1.63,4.46,4.46,4.46
124.79,6.13,1.71,6.13,1.71,-1.70,-1.52,-1.63,4.43,4.43,4.42
126.03,6.15,1.76,6.15,1.76,-1.75,-1.57,-1.63,4.40,4.40,4.39
127.29,6.16,1.81,6.16,1.81,-1.80,-1.61,-1.62,4.36,4.36,4.36
128.57,6.16,1.84,6.16,1.84,-1.84,-1.65,-1.61,4.32,4.32,4.32
129.85,6.16,1.87,6.16,1.88,-1.88,-1.69,-1.60,4.28,4.29,4.29
131.15,6.16,1.91,6.16,1.91,-1.91,-1.73,-1.59,4.25,4.25,4.26
132.46,6.16,1.94,6.16,1.94,-1.94,-1.76,-1.57,4.22,4.22,4.23
133.79,6.16,1.96,6.17,1.96,-1.96,-1.80,-1.54,4.20,4.20,4.20
135.12,6.16,1.99,6.16,1.99,-1.98,-1.82,-1.52,4.18,4.17,4.17
136.48,6.15,2.01,6.15,2.00,-2.00,-1.85,-1.49,4.15,4.15,4.14
137.84,6.12,2.01,6.13,2.02,-2.02,-1.87,-1.46,4.11,4.12,4.11
139.22,6.11,2.03,6.11,2.03,-2.03,-1.88,-1.43,4.09,4.08,4.08
140.61,6.09,2.04,6.09,2.03,-2.03,-1.89,-1.39,4.06,4.06,4.06
142.02,6.06,2.03,6.07,2.03,-2.04,-1.89,-1.35,4.03,4.03,4.04
143.44,6.04,2.03,6.04,2.03,-2.04,-1.89,-1.31,4.01,4.00,4.01
144.87,6.00,2.02,6.01,2.03,-2.03,-1.88,-1.27,3.97,3.98,3.98
146.32,5.97,2.03,5.97,2.02,-2.02,-1.86,-1.23,3.95,3.96,3.95
147.78,5.93,2.01,5.93,2.01,-2.00,-1.85,-1.19,3.93,3.93,3.92
149.26,5.89,2.00,5.89,1.99,-1.98,-1.82,-1.14,3.91,3.90,3.90
150.75,5.82,1.95,5.83,1.96,-1.96,-1.80,-1.10,3.86,3.87,3.87
152.26,5.77,1.93,5.77,1.93,-1.93,-1.77,-1.05,3.84,3.84,3.85
153.78,5.70,1.89,5.70,1.89,-1.90,-1.74,-1.00,3.81,3.81,3.81
155.32,5.64,1.85,5.64,1.85,-1.86,-1.71,-0.96,3.78,3.79,3.79
156.88,5.57,1.81,5.58,1.81,-1.82,-1.68,-0.91,3.76,3.76,3.77
158.44,5.52,1.78,5.51,1.77,-1.77,-1.65,-0.86,3.75,3.74,3.75
160.03,5.43,1.72,5.44,1.73,-1.72,-1.61,-0.81,3.72,3.73,3.71
161.63,5.36,1.67,5.37,1.67,-1.66,-1.58,-0.77,3.70,3.70,3.69
163.24,5.29,1.63,5.27,1.61,-1.61,-1.54,-0.72,3.69,3.67,3.66
164.88,5.17,1.53,5.19,1.55,-1.54,-1.50,-0.67,3.63,3.64,3.64
166.53,5.08,1.47,5.09,1.47,-1.48,-1.47,-0.62,3.61,3.61,3.61
168.19,5.00,1.42,4.99,1.40,-1.41,-1.43,-0.57,3.59,3.58,3.58
169.87,4.88,1.33,4.90,1.34,-1.34,-1.39,-0.53,3.54,3.56,3.56
171.57,4.80,1.27,4.80,1.27,-1.28,-1.35,-0.48,3.53,3.53,3.53
173.29,4.72,1.22,4.70,1.20,-1.21,-1.31,-0.43,3.51,3.49,3.50
175.02,4.60,1.13,4.61,1.14,-1.15,-1.27,-0.39,3.45,3.47,3.48
176.77,4.51,1.07,4.52,1.08,-1.08,-1.22,-0.34,3.43,3.44,3.44
178.54,4.44,1.03,4.44,1.03,-1.02,-1.18,-0.29,3.43,3.42,3.41
180.32,4.35,0.98,4.35,0.97,-0.95,-1.14,-0.25,3.40,3.40,3.38
182.13,4.26,0.91,4.25,0.90,-0.88,-1.09,-0.20,3.38,3.36,3.35
183.95,4.11,0.79,4.13,0.82,-0.82,-1.04,-0.16,3.30,3.32,3.32
185.79,4.02,0.74,4.02,0.74,-0.75,-0.99,-0.11,3.27,3.27,3.28
187.65,3.93,0.67,3.93,0.67,-0.68,-0.94,-0.07,3.25,3.24,3.26
189.52,3.83,0.60,3.84,0.61,-0.62,-0.89,-0.02,3.22,3.22,3.23
191.42,3.75,0.56,3.75,0.55,-0.55,-0.84,0.02,3.21,3.20,3.20
193.33,3.65,0.49,3.66,0.49,-0.48,-0.79,0.06,3.17,3.17,3.16
195.27,3.56,0.42,3.56,0.42,-0.42,-0.73,0.11,3.15,3.14,3.14
197.22,3.46,0.35,3.46,0.35,-0.35,-0.68,0.15,3.11,3.11,3.11
199.19,3.36,0.28,3.36,0.29,-0.29,-0.62,0.19,3.07,3.07,3.08
201.18,3.26,0.23,3.26,0.22,-0.22,-0.56,0.23,3.04,3.04,3.04
203.19,3.16,0.16,3.16,0.16,-0.15,-0.50,0.27,3.01,3.01,3.01
205.23,3.06,0.09,3.06,0.09,-0.08,-0.44,0.31,2.98,2.98,2.98
207.28,2.96,0.02,2.96,0.02,-0.02,-0.38,0.35,2.95,2.95,2.95
209.35,2.86,-0.05,2.86,-0.05,0.05,-0.32,0.39,2.91,2.91,2.92
211.44,2.76,-0.12,2.76,-0.12,0.11,-0.26,0.43,2.88,2.88,2.88
213.56,2.66,-0.19,2.66,-0.19,0.18,-0.20,0.47,2.84,2.84,2.85
215.69,2.56,-0.25,2.56,-0.25,0.25,-0.13,0.51,2.81,2.81,2.81
217.85,2.46,-0.31,2.47,-0.31,0.31,-0.07,0.54,2.78,2.78,2.77
220.03,2.38,-0.36,2.37,-0.37,0.38,-0.01,0.58,2.76,2.75,2.74
222.23,2.28,-0.43,2.28,-0.43,0.44,0.06,0.61,2.72,2.72,2.72
224.45,2.17,-0.51,2.18,-0.50,0.50,0.12,0.65,2.67,2.68,2.68
226.70,2.08,-0.57,2.08,-0.57,0.56,0.19,0.68,2.65,2.65,2.65
228.96,1.99,-0.63,2.00,-0.62,0.62,0.26,0.71,2.61,2.62,2.63
231.25,1.93,-0.67,1.92,-0.68,0.68,0.32,0.74,2.61,2.60,2.60
233.57,1.85,-0.73,1.85,-0.73,0.73,0.39,0.76,2.58,2.58,2.58
235.90,1.76,-0.79,1.78,-0.78,0.78,0.45,0.79,2.54,2.56,2.56
238.26,1.71,-0.83,1.71,-0.83,0.83,0.52,0.81,2.54,2.54,2.54
240.64,1.64,-0.88,1.65,-0.87,0.88,0.58,0.84,2.52,2.53,2.52
243.05,1.60,-0.91,1.59,-0.92,0.93,0.64,0.86,2.53,2.52,2.51
245.48,1.53,-0.96,1.53,-0.96,0.97,0.71,0.88,2.50,2.50,2.49
247.93,1.45,-1.02,1.46,-1.01,1.01,0.77,0.89,2.47,2.48,2.48
250.41,1.40,-1.06,1.40,-1.07,1.06,0.83,0.91,2.46,2.45,2.46
252.92,1.33,-1.11,1.34,-1.11,1.10,0.89,0.92,2.43,2.44,2.45
255.45,1.29,-1.14,1.29,-1.14,1.14,0.95,0.93,2.43,2.43,2.43
258.00,1.25,-1.17,1.25,-1.17,1.18,1.01,0.94,2.43,2.42,2.42
260.58,1.20,-1.21,1.21,-1.20,1.21,1.06,0.95,2.42,2.42,2.41
263.19,1.16,-1.24,1.16,-1.24,1.25,1.12,0.96,2.41,2.41,2.40
265.82,1.10,-1.28,1.11,-1.28,1.28,1.17,0.96,2.39,2.39,2.39
268.48,1.05,-1.32,1.05,-1.32,1.32,1.22,0.97,2.37,2.37,2.37
271.16,1.00,-1.36,1.00,-1.36,1.35,1.27,0.97,2.36,2.36,2.36
273.87,0.95,-1.39,0.96,-1.39,1.39,1.32,0.97,2.34,2.35,2.34
276.61,0.91,-1.42,0.91,-1.42,1.42,1.37,0.97,2.34,2.33,2.33
279.38,0.86,-1.45,0.86,-1.46,1.46,1.41,0.97,2.32,2.32,2.32
282.17,0.81,-1.49,0.82,-1.49,1.48,1.45,0.97,2.30,2.30,2.30
284.99,0.77,-1.52,0.78,-1.52,1.51,1.49,0.97,2.28,2.28,2.29
287.84,0.74,-1.54,0.74,-1.53,1.53,1.53,0.97,2.27,2.27,2.28
290.72,0.72,-1.54,0.72,-1.55,1.55,1.57,0.96,2.27,2.26,2.27
293.63,0.69,-1.56,0.70,-1.56,1.56,1.60,0.96,2.26,2.26,2.25
296.57,0.67,-1.57,0.67,-1.57,1.58,1.63,0.96,2.25,2.25,2.24
299.53,0.64,-1.58,0.64,-1.59,1.59,1.66,0.95,2.24,2.23,2.23
302.53,0.60,-1.61,0.60,-1.61,1.61,1.69,0.95,2.21,2.21,2.21
305.55,0.56,-1.63,0.57,-1.63,1.62,1.71,0.94,2.19,2.19,2.19
308.61,0.53,-1.65,0.53,-1.65,1.64,1.73,0.94,2.17,2.17,2.18
311.69,0.50,-1.66,0.51,-1.66,1.66,1.75,0.94,2.16,2.16,2.17
314.81,0.48,-1.66,0.48,-1.67,1.67,1.77,0.93,2.15,2.15,2.15
317.96,0.45,-1.68,0.45,-1.68,1.68,1.78,0.93,2.14,2.14,2.13
321.14,0.42,-1.69,0.42,-1.69,1.70,1.79,0.93,2.12,2.12,2.11
324.35,0.39,-1.71,0.39,-1.71,1.71,1.80,0.93,2.10,2.10,2.10
327.59,0.35,-1.72,0.36,-1.72,1.72,1.81,0.93,2.07,2.08,2.08
330.87,0.34,-1.72,0.34,-1.73,1.72,1.82,0.93,2.07,2.06,2.07
334.18,0.32,-1.72,0.32,-1.73,1.73,1.82,0.93,2.05,2.04,2.04
337.52,0.29,-1.74,0.30,-1.73,1.72,1.82,0.93,2.02,2.02,2.03
340.90,0.28,-1.73,0.29,-1.73,1.72,1.82,0.93,2.00,2.00,2.01
344.30,0.28,-1.72,0.28,-1.71,1.70,1.82,0.93,1.99,1.99,2.00
347.75,0.29,-1.68,0.29,-1.69,1.69,1.82,0.93,1.98,1.98,1.98
351.23,0.29,-1.66,0.30,-1.66,1.67,1.81,0.94,1.96,1.96,1.96
354.74,0.30,-1.64,0.30,-1.64,1.65,1.81,0.94,1.95,1.95,1.94
358.28,0.30,-1.62,0.30,-1.62,1.63,1.80,0.94,1.93,1.93,1.92
361.87,0.30,-1.60,0.30,-1.60,1.61,1.79,0.95,1.91,1.91,1.90
365.49,0.30,-1.59,0.30,-1.58,1.58,1.77,0.96,1.89,1.89,1.89
369.14,0.30,-1.57,0.30,-1.57,1.57,1.76,0.96,1.87,1.87,1.87
372.83,0.30,-1.56,0.30,-1.55,1.55,1.75,0.97,1.85,1.85,1.86
376.56,0.30,-1.53,0.30,-1.53,1.53,1.73,0.98,1.84,1.84,1.84
380.33,0.30,-1.51,0.30,-1.52,1.52,1.72,0.99,1.82,1.82,1.82
384.13,0.30,-1.50,0.30,-1.50,1.50,1.70,1.00,1.80,1.80,1.80
387.97,0.30,-1.48,0.30,-1.48,1.49,1.68,1.01,1.79,1.79,1.78
391.85,0.30,-1.47,0.30,-1.47,1.47,1.66,1.02,1.78,1.78,1.77
395.77,0.30,-1.46,0.30,-1.46,1.46,1.64,1.03,1.76,1.76,1.76
399.73,0.30,-1.45,0.30,-1.45,1.45,1.62,1.05,1.75,1.75,1.75
403.72,0.30,-1.44,0.30,-1.44,1.43,1.60,1.06,1.74,1.74,1.74
407.76,0.30,-1.43,0.30,-1.42,1.42,1.58,1.07,1.72,1.72,1.73
411.84,0.30,-1.41,0.30,-1.41,1.41,1.55,1.09,1.71,1.71,1.71
415.96,0.30,-1.39,0.30,-1.40,1.40,1.53,1.10,1.70,1.70,1.70
420.12,0.30,-1.38,0.30,-1.38,1.39,1.51,1.11,1.69,1.69,1.69
424.32,0.30,-1.37,0.30,-1.37,1.37,1.48,1.13,1.68,1.68,1.68
428.56,0.30,-1.36,0.30,-1.36,1.36,1.46,1.14,1.66,1.66,1.67
432.85,0.30,-1.34,0.30,-1.35,1.35,1.43,1.15,1.65,1.65,1.64
437.18,0.30,-1.33,0.30,-1.33,1.33,1.41,1.17,1.63,1.63,1.63
441.55,0.30,-1.32,0.30,-1.32,1.32,1.39,1.18,1.62,1.62,1.62
445.96,0.30,-1.30,0.30,-1.30,1.30,1.36,1.19,1.60,1.60,1.60
450.42,0.30,-1.28,0.30,-1.28,1.28,1.34,1.20,1.59,1.59,1.58
454.93,0.30,-1.27,0.30,-1.27,1.26,1.31,1.21,1.57,1.57,1.57
459.48,0.30,-1.25,0.30,-1.25,1.25,1.29,1.22,1.55,1.55,1.55
464.07,0.30,-1.23,0.30,-1.23,1.23,1.26,1.23,1.53,1.53,1.53
468.71,0.30,-1.21,0.30,-1.21,1.21,1.24,1.24,1.51,1.51,1.51
473.40,0.30,-1.20,0.30,-1.19,1.19,1.21,1.24,1.50,1.50,1.50
478.13,0.30,-1.18,0.30,-1.18,1.18,1.19,1.25,1.48,1.48,1.48
482.91,0.30,-1.17,0.30,-1.16,1.16,1.16,1.25,1.47,1.47,1.47
487.74,0.30,-1.15,0.30,-1.15,1.15,1.14,1.25,1.45,1.45,1.45
492.62,0.30,-1.14,0.30,-1.14,1.14,1.11,1.25,1.44,1.44,1.44
497.55,0.30,-1.12,0.30,-1.12,1.13,1.09,1.25,1.43,1.43,1.43
502.52,0.30,-1.11,0.30,-1.11,1.11,1.07,1.25,1.42,1.42,1.42
507.55,0.30,-1.10,0.30,-1.10,1.10,1.04,1.25,1.40,1.40,1.41
512.62,0.30,-1.08,0.30,-1.09,1.08,1.02,1.24,1.39,1.39,1.39
517.75,0.30,-1.07,0.30,-1.07,1.07,1.00,1.23,1.37,1.37,1.38
522.93,0.30,-1.05,0.30,-1.05,1.05,0.97,1.22,1.36,1.36,1.36
528.16,0.30,-1.03,0.30,-1.03,1.03,0.95,1.21,1.34,1.34,1.34
533.44,0.30,-1.01,0.30,-1.01,1.01,0.93,1.20,1.32,1.32,1.32
538.77,0.30,-0.99,0.30,-0.99,0.99,0.91,1.19,1.29,1.29,1.29
544.16,0.30,-0.97,0.30,-0.97,0.97,0.89,1.18,1.27,1.27,1.27
549.60,0.30,-0.94,0.30,-0.95,0.94,0.87,1.16,1.25,1.25,1.24
555.10,0.30,-0.92,0.30,-0.92,0.92,0.84,1.14,1.22,1.22,1.22
560.65,0.30,-0.89,0.30,-0.89,0.89,0.82,1.13,1.19,1.19,1.19
566.25,0.30,-0.86,0.30,-0.86,0.86,0.80,1.11,1.17,1.17,1.16
