frequency,raw,error,smoothed,error_smoothed,equalization,parametric_eq,fixed_band_eq,equalized_raw,equalized_smoothed,target
20.00,0.26,-2.53,0.26,-2.53,2.53,2.06,-0.10,2.79,2.79,2.79
20.20,0.32,-2.44,0.32,-2.44,2.44,2.01,-0.10,2.76,2.76,2.76
20.40,0.39,-2.35,0.38,-2.35,2.36,1.95,-0.10,2.74,2.74,2.74
20.61,0.45,-2.27,0.45,-2.27,2.27,1.90,-0.10,2.71,2.72,2.72
20.81,0.51,-2.19,0.51,-2.19,2.18,1.84,-0.10,2.69,2.69,2.70
21.02,0.58,-2.10,0.57,-2.10,2.10,1.78,-0.10,2.68,2.67,2.68
21.23,0.64,-2.02,0.64,-2.02,2.02,1.72,-0.10,2.65,2.65,2.66
21.44,0.70,-1.94,0.70,-1.94,1.94,1.65,-0.10,2.63,2.64,2.64
21.66,0.77,-1.85,0.76,-1.86,1.86,1.59,-0.10,2.62,2.62,2.62
21.87,0.83,-1.78,0.83,-1.77,1.78,1.53,-0.10,2.60,2.61,2.61
22.09,0.90,-1.69,0.89,-1.69,1.70,1.46,-0.11,2.60,2.59,2.59
22.31,0.96,-1.62,0.96,-1.62,1.62,1.40,-0.11,2.58,2.58,2.58
22.54,1.02,-1.55,1.02,-1.55,1.55,1.34,-0.11,2.56,2.57,2.57
22.76,1.08,-1.48,1.08,-1.48,1.47,1.27,-0.11,2.55,2.55,2.56
22.99,1.15,-1.40,1.14,-1.40,1.40,1.21,-0.11,2.55,2.54,2.55
23.22,1.21,-1.33,1.21,-1.33,1.33,1.14,-0.11,2.53,2.53,2.54
23.45,1.28,-1.25,1.27,-1.25,1.25,1.08,-0.11,2.53,2.53,2.53
23.69,1.34,-1.18,1.34,-1.18,1.18,1.01,-0.11,2.52,2.52,2.52
23.92,1.41,-1.11,1.40,-1.11,1.11,0.95,-0.11,2.52,2.52,2.52
24.16,1.47,-1.04,1.47,-1.04,1.04,0.88,-0.11,2.51,2.51,2.51
24.40,1.54,-0.97,1.53,-0.97,0.97,0.82,-0.11,2.51,2.50,2.51
24.65,1.60,-0.90,1.60,-0.90,0.90,0.75,-0.11,2.50,2.50,2.50
24.89,1.66,-0.84,1.66,-0.83,0.83,0.69,-0.11,2.49,2.49,2.50
25.14,1.73,-0.76,1.72,-0.77,0.77,0.62,-0.12,2.49,2.49,2.49
25.39,1.79,-0.70,1.79,-0.70,0.70,0.56,-0.12,2.48,2.48,2.49
25.65,1.85,-0.63,1.85,-0.63,0.63,0.50,-0.12,2.47,2.48,2.48
25.91,1.91,-0.56,1.91,-0.56,0.56,0.43,-0.12,2.47,2.47,2.48
26.16,1.98,-0.49,1.98,-0.49,0.49,0.37,-0.12,2.47,2.47,2.47
26.43,2.05,-0.42,2.04,-0.42,0.42,0.31,-0.13,2.47,2.47,2.47
26.69,2.11,-0.35,2.11,-0.35,0.35,0.25,-0.13,2.46,2.46,2.46
26.96,2.18,-0.28,2.17,-0.28,0.28,0.18,-0.14,2.46,2.46,2.46
27.23,2.24,-0.22,2.24,-0.21,0.22,0.12,-0.14,2.45,2.45,2.46
27.50,2.31,-0.14,2.30,-0.15,0.15,0.06,-0.15,2.45,2.45,2.45
27.77,2.37,-0.08,2.37,-0.08,0.08,-0.00,-0.16,2.45,2.44,2.45
28.05,2.43,-0.01,2.43,-0.01,0.01,-0.07,-0.16,2.44,2.44,2.44
28.33,2.49,0.05,2.49,0.05,-0.05,-0.13,-0.17,2.43,2.44,2.44
28.62,2.56,0.12,2.55,0.12,-0.12,-0.19,-0.18,2.43,2.43,2.44
28.90,2.62,0.19,2.62,0.19,-0.19,-0.25,-0.19,2.43,2.43,2.43
29.19,2.68,0.25,2.68,0.25,-0.25,-0.32,-0.20,2.42,2.43,2.43
29.48,2.75,0.32,2.74,0.32,-0.32,-0.38,-0.22,2.43,2.42,2.43
29.78,2.81,0.38,2.81,0.38,-0.38,-0.44,-0.23,2.42,2.43,2.43
30.08,2.88,0.45,2.87,0.45,-0.45,-0.51,-0.25,2.43,2.43,2.43
30.38,2.94,0.51,2.94,0.51,-0.51,-0.57,-0.26,2.43,2.43,2.43
30.68,3.00,0.58,3.00,0.58,-0.57,-0.64,-0.28,2.43,2.43,2.42
30.99,3.06,0.64,3.05,0.63,-0.63,-0.70,-0.30,2.43,2.42,2.42
31.30,3.11,0.69,3.11,0.69,-0.69,-0.77,-0.32,2.42,2.42,2.42
31.61,3.16,0.74,3.16,0.74,-0.75,-0.83,-0.35,2.41,2.41,2.42
31.93,3.22,0.81,3.21,0.80,-0.81,-0.90,-0.37,2.41,2.40,2.41
32.24,3.27,0.86,3.27,0.86,-0.87,-0.97,-0.40,2.40,2.40,2.41
32.57,3.33,0.93,3.33,0.93,-0.93,-1.03,-0.43,2.40,2.40,2.40
32.89,3.39,0.99,3.39,0.99,-0.99,-1.10,-0.45,2.40,2.40,2.40
33.22,3.45,1.05,3.45,1.05,-1.05,-1.17,-0.49,2.39,2.39,2.40
33.55,3.51,1.11,3.51,1.11,-1.12,-1.24,-0.52,2.39,2.39,2.40
33.89,3.57,1.18,3.57,1.18,-1.18,-1.30,-0.55,2.39,2.39,2.39
34.23,3.63,1.24,3.63,1.24,-1.24,-1.37,-0.59,2.38,2.39,2.39
34.57,3.69,1.31,3.69,1.31,-1.30,-1.44,-0.62,2.38,2.38,2.38
34.92,3.75,1.37,3.74,1.36,-1.36,-1.51,-0.66,2.38,2.38,2.38
35.27,3.80,1.42,3.80,1.42,-1.42,-1.57,-0.70,2.38,2.38,2.38
35.62,3.85,1.47,3.85,1.47,-1.47,-1.64,-0.74,2.37,2.37,2.38
35.97,3.90,1.53,3.90,1.53,-1.53,-1.70,-0.78,2.37,2.37,2.37
36.33,3.95,1.58,3.95,1.58,-1.58,-1.76,-0.83,2.37,2.37,2.37
36.70,4.00,1.63,4.00,1.63,-1.63,-1.83,-0.87,2.36,2.37,2.37
37.06,4.05,1.68,4.05,1.68,-1.68,-1.89,-0.92,2.36,2.36,2.37
37.43,4.10,1.73,4.10,1.73,-1.74,-1.94,-0.97,2.36,2.36,2.37
37.81,4.15,1.79,4.15,1.79,-1.79,-2.00,-1.01,2.36,2.36,2.36
38.19,4.20,1.84,4.20,1.84,-1.84,-2.05,-1.06,2.35,2.35,2.36
38.57,4.25,1.90,4.25,1.90,-1.90,-2.11,-1.12,2.35,2.35,2.35
38.95,4.30,1.95,4.30,1.95,-1.95,-2.16,-1.17,2.35,2.35,2.35
39.34,4.35,2.01,4.34,2.00,-2.00,-2.20,-1.22,2.35,2.34,2.34
39.74,4.39,2.05,4.39,2.05,-2.05,-2.25,-1.28,2.33,2.34,2.34
40.14,4.44,2.10,4.43,2.10,-2.10,-2.29,-1.33,2.33,2.33,2.34
40.54,4.48,2.15,4.48,2.15,-2.15,-2.33,-1.39,2.32,2.33,2.33
40.94,4.53,2.20,4.53,2.20,-2.20,-2.37,-1.45,2.33,2.33,2.33
41.35,4.58,2.25,4.58,2.25,-2.25,-2.40,-1.51,2.33,2.33,2.33
41.76,4.63,2.30,4.63,2.30,-2.29,-2.43,-1.57,2.33,2.33,2.33
42.18,4.68,2.34,4.67,2.34,-2.34,-2.46,-1.64,2.34,2.33,2.34
42.60,4.72,2.38,4.72,2.38,-2.38,-2.49,-1.70,2.34,2.34,2.34
43.03,4.76,2.42,4.76,2.42,-2.42,-2.52,-1.77,2.33,2.34,2.34
43.46,4.81,2.47,4.80,2.47,-2.46,-2.55,-1.83,2.34,2.34,2.34
43.90,4.85,2.51,4.85,2.51,-2.50,-2.58,-1.90,2.34,2.34,2.34
44.33,4.89,2.54,4.89,2.54,-2.54,-2.60,-1.97,2.34,2.34,2.35
44.78,4.93,2.58,4.93,2.58,-2.58,-2.63,-2.04,2.34,2.34,2.35
45.23,4.97,2.62,4.97,2.62,-2.63,-2.66,-2.12,2.34,2.34,2.35
45.68,5.02,2.67,5.01,2.67,-2.67,-2.68,-2.19,2.35,2.34,2.35
46.13,5.06,2.71,5.06,2.71,-2.71,-2.71,-2.27,2.34,2.34,2.35
46.60,5.10,2.76,5.10,2.76,-2.76,-2.73,-2.35,2.34,2.34,2.34
47.06,5.15,2.81,5.14,2.81,-2.81,-2.76,-2.42,2.34,2.34,2.34
47.53,5.19,2.85,5.19,2.85,-2.85,-2.79,-2.50,2.34,2.34,2.34
48.01,5.24,2.90,5.23,2.90,-2.89,-2.82,-2.58,2.34,2.34,2.34
48.49,5.27,2.94,5.27,2.94,-2.94,-2.85,-2.67,2.33,2.33,2.33
48.97,5.31,2.98,5.30,2.98,-2.98,-2.88,-2.75,2.33,2.33,2.33
49.46,5.34,3.01,5.34,3.01,-3.01,-2.91,-2.83,2.32,2.33,2.33
49.96,5.38,3.05,5.38,3.05,-3.05,-2.95,-2.92,2.33,2.33,2.33
50.46,5.42,3.08,5.42,3.08,-3.08,-2.98,-3.00,2.33,2.33,2.34
50.96,5.46,3.12,5.45,3.12,-3.12,-3.02,-3.09,2.34,2.34,2.34
51.47,5.49,3.15,5.49,3.15,-3.15,-3.05,-3.17,2.34,2.34,2.34
51.99,5.52,3.18,5.52,3.18,-3.19,-3.09,-3.26,2.33,2.33,2.34
52.51,5.56,3.21,5.56,3.21,-3.22,-3.13,-3.34,2.33,2.33,2.35
53.03,5.60,3.25,5.60,3.25,-3.26,-3.17,-3.43,2.34,2.34,2.35
53.56,5.65,3.30,5.64,3.30,-3.29,-3.21,-3.51,2.35,2.35,2.35
54.10,5.69,3.34,5.68,3.34,-3.32,-3.26,-3.60,2.36,2.36,2.35
54.64,5.72,3.37,5.72,3.37,-3.36,-3.30,-3.68,2.36,2.36,2.35
55.18,5.75,3.39,5.74,3.39,-3.39,-3.34,-3.75,2.36,2.36,2.36
55.74,5.77,3.41,5.77,3.41,-3.42,-3.39,-3.83,2.35,2.35,2.36
56.29,5.80,3.44,5.80,3.44,-3.44,-3.44,-3.91,2.35,2.35,2.36
56.86,5.83,3.46,5.83,3.47,-3.47,-3.48,-3.98,2.36,2.36,2.37
57.42,5.87,3.50,5.86,3.50,-3.50,-3.53,-4.04,2.37,2.37,2.37
58.00,5.90,3.53,5.89,3.53,-3.53,-3.58,-4.11,2.37,2.37,2.37
58.58,5.93,3.56,5.93,3.56,-3.56,-3.63,-4.17,2.37,2.37,2.37
59.16,5.96,3.58,5.96,3.59,-3.59,-3.67,-4.22,2.37,2.37,2.38
59.76,6.00,3.62,5.99,3.62,-3.62,-3.72,-4.27,2.37,2.37,2.38
60.35,6.03,3.65,6.03,3.65,-3.65,-3.77,-4.32,2.37,2.38,2.38
60.96,6.08,3.69,6.07,3.69,-3.68,-3.82,-4.36,2.39,2.39,2.39
61.57,6.11,3.72,6.11,3.72,-3.71,-3.87,-4.39,2.39,2.39,2.39
62.18,6.14,3.75,6.14,3.75,-3.74,-3.91,-4.42,2.39,2.39,2.39
62.80,6.17,3.78,6.16,3.78,-3.77,-3.96,-4.44,2.39,2.39,2.39
63.43,6.19,3.80,6.19,3.80,-3.80,-4.01,-4.46,2.39,2.39,2.39
64.07,6.21,3.82,6.21,3.82,-3.83,-4.05,-4.48,2.38,2.38,2.39
64.71,6.24,3.85,6.24,3.85,-3.85,-4.09,-4.48,2.38,2.38,2.39
65.35,6.27,3.88,6.27,3.88,-3.88,-4.14,-4.49,2.39,2.39,2.39
66.01,6.30,3.91,6.30,3.91,-3.91,-4.18,-4.49,2.39,2.39,2.39
66.67,6.33,3.94,6.32,3.94,-3.93,-4.22,-4.48,2.39,2.39,2.39
67.33,6.35,3.96,6.35,3.96,-3.96,-4.26,-4.47,2.39,2.39,2.39
68.01,6.38,3.99,6.37,3.99,-3.99,-4.30,-4.46,2.39,2.39,2.39
68.69,6.40,4.01,6.40,4.01,-4.01,-4.33,-4.44,2.38,2.38,2.39
69.37,6.43,4.04,6.42,4.04,-4.04,-4.37,-4.42,2.38,2.38,2.39
70.07,6.45,4.06,6.45,4.07,-4.07,-4.40,-4.40,2.38,2.38,2.39
70.77,6.49,4.10,6.48,4.10,-4.10,-4.43,-4.37,2.39,2.38,2.39
71.48,6.52,4.13,6.52,4.13,-4.12,-4.45,-4.35,2.39,2.39,2.39
72.19,6.55,4.15,6.55,4.16,-4.15,-4.48,-4.32,2.40,2.40,2.40
72.91,6.58,4.18,6.57,4.18,-4.17,-4.50,-4.29,2.41,2.40,2.40
73.64,6.60,4.20,6.60,4.20,-4.19,-4.53,-4.26,2.41,2.41,2.40
74.38,6.62,4.21,6.61,4.21,-4.21,-4.55,-4.23,2.41,2.41,2.41
75.12,6.63,4.22,6.63,4.22,-4.22,-4.56,-4.21,2.41,2.41,2.41
75.87,6.64,4.23,6.64,4.23,-4.23,-4.58,-4.18,2.40,2.40,2.41
76.63,6.66,4.24,6.66,4.24,-4.25,-4.59,-4.15,2.41,2.41,2.42
77.40,6.68,4.26,6.68,4.26,-4.26,-4.61,-4.13,2.41,2.42,2.42
78.17,6.71,4.28,6.70,4.28,-4.28,-4.61,-4.10,2.43,2.42,2.43
78.95,6.73,4.30,6.73,4.30,-4.30,-4.62,-4.08,2.43,2.43,2.43
79.74,6.75,4.32,6.75,4.32,-4.32,-4.63,-4.06,2.43,2.43,2.43
80.54,6.78,4.34,6.78,4.34,-4.34,-4.63,-4.05,2.43,2.43,2.44
81.35,6.81,4.37,6.80,4.37,-4.36,-4.64,-4.03,2.44,2.44,2.44
82.16,6.83,4.39,6.83,4.39,-4.38,-4.64,-4.02,2.44,2.44,2.44
82.98,6.85,4.41,6.85,4.41,-4.41,-4.64,-4.01,2.44,2.44,2.44
83.81,6.87,4.43,6.87,4.43,-4.43,-4.64,-4.00,2.44,2.44,2.44
84.65,6.89,4.45,6.88,4.44,-4.45,-4.63,-4.00,2.44,2.43,2.44
85.50,6.91,4.46,6.91,4.47,-4.47,-4.63,-4.00,2.43,2.44,2.45
86.35,6.94,4.49,6.94,4.49,-4.50,-4.63,-4.00,2.44,2.44,2.45
87.22,6.98,4.53,6.97,4.52,-4.53,-4.62,-4.00,2.45,2.44,2.45
88.09,7.00,4.55,7.00,4.55,-4.55,-4.62,-4.01,2.44,2.45,2.45
88.97,7.03,4.58,7.03,4.58,-4.58,-4.61,-4.02,2.45,2.45,2.45
89.86,7.06,4.61,7.05,4.61,-4.60,-4.60,-4.03,2.45,2.45,2.45
90.76,7.08,4.63,7.07,4.63,-4.62,-4.59,-4.05,2.45,2.45,2.45
91.66,7.09,4.64,7.09,4.64,-4.64,-4.59,-4.07,2.45,2.45,2.45
92.58,7.10,4.65,7.10,4.65,-4.64,-4.58,-4.09,2.45,2.45,2.45
93.51,7.10,4.65,7.10,4.65,-4.65,-4.57,-4.12,2.45,2.45,2.45
94.44,7.10,4.65,7.09,4.65,-4.64,-4.56,-4.15,2.45,2.45,2.45
95.39,7.09,4.64,7.09,4.64,-4.64,-4.55,-4.18,2.45,2.45,2.45
96.34,7.08,4.63,7.08,4.63,-4.63,-4.54,-4.22,2.44,2.45,2.45
97.30,7.07,4.61,7.07,4.62,-4.62,-4.54,-4.25,2.44,2.44,2.46
98.28,7.07,4.61,7.07,4.61,-4.62,-4.53,-4.29,2.45,2.45,2.46
99.26,7.07,4.61,7.07,4.61,-4.61,-4.52,-4.33,2.45,2.45,2.46
100.25,7.07,4.61,7.07,4.61,-4.61,-4.51,-4.38,2.46,2.46,2.46
101.25,7.07,4.61,7.07,4.61,-4.61,-4.50,-4.42,2.46,2.46,2.46
102.27,7.07,4.61,7.07,4.61,-4.60,-4.50,-4.47,2.46,2.46,2.46
103.29,7.07,4.61,7.07,4.61,-4.60,-4.49,-4.52,2.46,2.46,2.46
104.32,7.07,4.60,7.07,4.60,-4.60,-4.48,-4.57,2.46,2.46,2.47
105.37,7.07,4.60,7.07,4.60,-4.60,-4.48,-4.62,2.47,2.47,2.47
106.42,7.07,4.60,7.07,4.60,-4.60,-4.47,-4.67,2.47,2.47,2.47
107.48,7.07,4.59,7.07,4.59,-4.59,-4.47,-4.72,2.47,2.47,2.48
108.56,7.07,4.59,7.07,4.59,-4.59,-4.46,-4.77,2.48,2.48,2.48
109.64,7.07,4.59,7.07,4.59,-4.59,-4.46,-4.82,2.48,2.48,2.48
110.74,7.07,4.59,7.07,4.59,-4.59,-4.46,-4.86,2.48,2.48,2.48
111.85,7.07,4.58,7.07,4.58,-4.58,-4.45,-4.91,2.48,2.48,2.49
112.97,7.07,4.58,7.07,4.58,-4.58,-4.45,-4.95,2.49,2.49,2.49
114.10,7.07,4.58,7.07,4.58,-4.58,-4.45,-5.00,2.49,2.49,2.49
115.24,7.07,4.58,7.07,4.58,-4.57,-4.44,-5.03,2.50,2.50,2.49
116.39,7.07,4.58,7.06,4.57,-4.56,-4.44,-5.07,2.50,2.50,2.49
117.55,7.06,4.56,7.06,4.56,-4.56,-4.44,-5.10,2.50,2.50,2.50
118.73,7.05,4.55,7.05,4.55,-4.56,-4.44,-5.13,2.49,2.49,2.50
119.92,7.05,4.55,7.05,4.55,-4.56,-4.44,-5.15,2.49,2.49,2.50
121.12,7.06,4.55,7.05,4.55,-4.56,-4.44,-5.17,2.50,2.49,2.51
122.33,7.07,4.56,7.07,4.56,-4.57,-4.44,-5.18,2.50,2.50,2.51
123.55,7.09,4.57,7.09,4.58,-4.58,-4.44,-5.19,2.51,2.51,2.52
124.79,7.12,4.60,7.12,4.60,-4.60,-4.44,-5.19,2.52,2.52,2.52
126.03,7.16,4.64,7.15,4.63,-4.62,-4.44,-5.18,2.53,2.52,2.52
127.29,7.18,4.65,7.18,4.65,-4.66,-4.44,-5.17,2.52,2.52,2.53
128.57,7.21,4.68,7.21,4.68,-4.69,-4.44,-5.16,2.52,2.52,2.53
129.85,7.25,4.71,7.25,4.71,-4.73,-4.45,-5.14,2.52,2.52,2.54
131.15,7.30,4.76,7.29,4.75,-4.76,-4.45,-5.12,2.54,2.53,2.54
132.46,7.33,4.79,7.33,4.79,-4.79,-4.45,-5.09,2.53,2.54,2.54
133.79,7.37,4.83,7.36,4.83,-4.82,-4.45,-5.05,2.55,2.55,2.54
135.12,7.39,4.85,7.38,4.85,-4.84,-4.45,-5.02,2.55,2.55,2.54
136.48,7.40,4.86,7.40,4.86,-4.84,-4.45,-4.98,2.55,2.55,2.54
137.84,7.40,4.85,7.40,4.85,-4.84,-4.46,-4.93,2.56,2.56,2.55
139.22,7.39,4.84,7.38,4.83,-4.83,-4.46,-4.89,2.56,2.55,2.55
140.61,7.36,4.81,7.35,4.81,-4.80,-4.46,-4.84,2.55,2.55,2.55
142.02,7.31,4.76,7.31,4.77,-4.77,-4.46,-4.79,2.54,2.54,2.55
143.44,7.28,4.73,7.27,4.72,-4.73,-4.46,-4.73,2.54,2.54,2.55
144.87,7.24,4.68,7.24,4.68,-4.69,-4.46,-4.68,2.55,2.55,2.56
146.32,7.21,4.65,7.20,4.65,-4.65,-4.47,-4.62,2.56,2.55,2.56
147.78,7.17,4.61,7.17,4.61,-4.61,-4.47,-4.57,2.56,2.56,2.56
149.26,7.14,4.57,7.14,4.57,-4.57,-4.47,-4.52,2.56,2.57,2.57
150.75,7.11,4.54,7.11,4.54,-4.54,-4.47,-4.46,2.57,2.57,2.57
152.26,7.09,4.52,7.08,4.51,-4.51,-4.47,-4.41,2.57,2.57,2.57
153.78,7.06,4.48,7.06,4.49,-4.49,-4.47,-4.36,2.56,2.57,2.58
155.32,7.05,4.47,7.05,4.47,-4.48,-4.47,-4.31,2.56,2.57,2.58
156.88,7.05,4.47,7.05,4.46,-4.48,-4.47,-4.26,2.57,2.57,2.58
158.44,7.06,4.47,7.05,4.47,-4.48,-4.47,-4.21,2.58,2.58,2.59
160.03,7.06,4.47,7.06,4.48,-4.48,-4.47,-4.17,2.58,2.58,2.59
161.63,7.08,4.49,7.07,4.49,-4.49,-4.47,-4.12,2.59,2.59,2.59
163.24,7.09,4.50,7.09,4.50,-4.49,-4.46,-4.08,2.60,2.60,2.59
164.88,7.10,4.51,7.10,4.51,-4.49,-4.46,-4.04,2.60,2.60,2.59
166.53,7.10,4.50,7.09,4.50,-4.49,-4.46,-4.01,2.61,2.60,2.60
168.19,7.09,4.49,7.08,4.49,-4.48,-4.45,-3.98,2.60,2.60,2.60
169.87,7.07,4.47,7.07,4.47,-4.47,-4.45,-3.95,2.60,2.60,2.60
171.57,7.05,4.44,7.05,4.45,-4.45,-4.45,-3.92,2.60,2.61,2.61
173.29,7.04,4.43,7.03,4.42,-4.42,-4.44,-3.90,2.62,2.61,2.61
175.02,7.00,4.39,7.00,4.39,-4.39,-4.44,-3.88,2.61,2.61,2.61
176.77,6.96,4.35,6.96,4.35,-4.35,-4.43,-3.86,2.60,2.61,2.61
178.54,6.94,4.32,6.93,4.32,-4.32,-4.42,-3.84,2.62,2.61,2.62
180.32,6.90,4.28,6.90,4.28,-4.29,-4.42,-3.83,2.61,2.61,2.62
182.13,6.87,4.25,6.86,4.25,-4.25,-4.41,-3.82,2.61,2.61,2.62
183.95,6.83,4.21,6.83,4.22,-4.23,-4.40,-3.82,2.60,2.61,2.62
185.79,6.81,4.20,6.81,4.20,-4.20,-4.39,-3.81,2.61,2.60,2.61
187.65,6.79,4.18,6.78,4.18,-4.18,-4.38,-3.81,2.61,2.61,2.61
189.52,6.77,4.16,6.77,4.16,-4.16,-4.37,-3.81,2.61,2.61,2.61
191.42,6.76,4.15,6.75,4.14,-4.14,-4.36,-3.82,2.61,2.61,2.61
193.33,6.74,4.12,6.74,4.12,-4.12,-4.35,-3.83,2.61,2.61,2.62
195.27,6.72,4.10,6.72,4.11,-4.10,-4.33,-3.84,2.61,2.62,2.62
197.22,6.71,4.09,6.70,4.09,-4.08,-4.32,-3.85,2.62,2.62,2.62
199.19,6.69,4.07,6.69,4.07,-4.06,-4.31,-3.86,2.63,2.63,2.62
201.18,6.67,4.04,6.66,4.04,-4.04,-4.29,-3.88,2.63,2.63,2.63
203.19,6.64,4.01,6.64,4.01,-4.01,-4.28,-3.90,2.63,2.63,2.63
205.23,6.61,3.98,6.61,3.98,-3.98,-4.26,-3.91,2.63,2.63,2.63
207.28,6.58,3.94,6.58,3.94,-3.95,-4.24,-3.93,2.63,2.63,2.64
209.35,6.55,3.91,6.55,3.91,-3.91,-4.22,-3.96,2.63,2.64,2.64
211.44,6.53,3.89,6.52,3.88,-3.88,-4.21,-3.98,2.65,2.64,2.64
213.56,6.50,3.85,6.49,3.85,-3.84,-4.19,-4.00,2.65,2.65,2.65
215.69,6.46,3.81,6.46,3.81,-3.81,-4.17,-4.02,2.65,2.65,2.65
217.85,6.42,3.77,6.42,3.77,-3.77,-4.15,-4.04,2.64,2.65,2.65
220.03,6.39,3.74,6.39,3.74,-3.74,-4.13,-4.06,2.65,2.65,2.65
222.23,6.36,3.70,6.35,3.70,-3.71,-4.10,-4.08,2.65,2.65,2.66
224.45,6.33,3.67,6.32,3.67,-3.67,-4.08,-4.10,2.66,2.65,2.66
226.70,6.29,3.63,6.29,3.63,-3.63,-4.06,-4.12,2.65,2.66,2.66
228.96,6.26,3.60,6.26,3.60,-3.59,-4.03,-4.13,2.66,2.67,2.66
231.25,6.24,3.57,6.23,3.57,-3.56,-4.01,-4.14,2.68,2.67,2.67
233.57,6.21,3.54,6.20,3.53,-3.52,-3.98,-4.15,2.69,2.68,2.67
235.90,6.16,3.48,6.16,3.49,-3.48,-3.96,-4.15,2.68,2.68,2.68
238.26,6.13,3.45,6.12,3.44,-3.45,-3.93,-4.16,2.68,2.68,2.68
240.64,6.10,3.41,6.10,3.41,-3.42,-3.90,-4.15,2.68,2.68,2.69
243.05,6.08,3.38,6.08,3.39,-3.40,-3.87,-4.15,2.68,2.68,2.70
245.48,6.08,3.38,6.07,3.37,-3.39,-3.85,-4.14,2.69,2.69,2.70
247.93,6.09,3.38,6.09,3.38,-3.39,-3.82,-4.12,2.70,2.70,2.71
250.41,6.11,3.39,6.11,3.39,-3.40,-3.79,-4.10,2.71,2.71,2.72
252.92,6.15,3.42,6.14,3.42,-3.42,-3.75,-4.08,2.73,2.73,2.73
255.45,6.18,3.45,6.18,3.45,-3.44,-3.72,-4.05,2.73,2.73,2.73
258.00,6.22,3.48,6.21,3.48,-3.48,-3.69,-4.02,2.74,2.74,2.74
260.58,6.25,3.51,6.25,3.51,-3.51,-3.66,-3.98,2.73,2.74,2.74
263.19,6.29,3.54,6.29,3.55,-3.55,-3.63,-3.94,2.74,2.74,2.75
265.82,6.34,3.59,6.33,3.58,-3.58,-3.59,-3.89,2.75,2.74,2.75
268.48,6.37,3.61,6.37,3.62,-3.61,-3.56,-3.85,2.75,2.75,2.76
271.16,6.40,3.64,6.40,3.64,-3.64,-3.52,-3.79,2.76,2.76,2.76
273.87,6.43,3.67,6.42,3.66,-3.65,-3.49,-3.74,2.78,2.77,2.76
276.61,6.43,3.66,6.43,3.67,-3.65,-3.45,-3.68,2.78,2.78,2.77
279.38,6.43,3.66,6.43,3.66,-3.64,-3.41,-3.62,2.78,2.79,2.77
282.17,6.42,3.65,6.41,3.64,-3.63,-3.38,-3.55,2.79,2.78,2.77
284.99,6.38,3.60,6.37,3.60,-3.60,-3.34,-3.49,2.77,2.77,2.78
287.84,6.33,3.55,6.34,3.56,-3.58,-3.30,-3.42,2.75,2.76,2.78
290.72,6.30,3.52,6.30,3.52,-3.54,-3.26,-3.36,2.75,2.76,2.78
293.63,6.28,3.50,6.27,3.50,-3.50,-3.22,-3.29,2.77,2.77,2.78
296.57,6.25,3.47,6.25,3.47,-3.46,-3.18,-3.22,2.78,2.78,2.78
299.53,6.22,3.44,6.21,3.43,-3.42,-3.14,-3.15,2.80,2.79,2.78
302.53,6.18,3.39,6.17,3.39,-3.38,-3.10,-3.08,2.80,2.79,2.79
305.55,6.13,3.34,6.13,3.34,-3.34,-3.06,-3.01,2.79,2.79,2.79
308.61,6.09,3.29,6.08,3.29,-3.30,-3.02,-2.94,2.79,2.78,2.80
311.69,6.04,3.24,6.04,3.25,-3.26,-2.98,-2.87,2.78,2.79,2.80
314.81,6.02,3.21,6.01,3.21,-3.21,-2.94,-2.81,2.80,2.80,2.81
317.96,5.98,3.17,5.98,3.17,-3.17,-2.90,-2.74,2.81,2.81,2.81
321.14,5.95,3.13,5.94,3.13,-3.13,-2.85,-2.67,2.82,2.82,2.82
324.35,5.91,3.09,5.90,3.09,-3.08,-2.81,-2.61,2.82,2.82,2.82
327.59,5.86,3.04,5.86,3.04,-3.03,-2.77,-2.55,2.82,2.83,2.82
330.87,5.82,2.99,5.81,2.99,-2.98,-2.72,-2.48,2.84,2.83,2.83
334.18,5.77,2.94,5.76,2.93,-2.93,-2.68,-2.42,2.84,2.84,2.83
337.52,5.71,2.87,5.71,2.87,-2.87,-2.64,-2.37,2.84,2.84,2.84
340.90,5.65,2.80,5.64,2.80,-2.81,-2.59,-2.31,2.84,2.83,2.85
344.30,5.58,2.73,5.58,2.74,-2.75,-2.55,-2.25,2.82,2.83,2.85
347.75,5.54,2.69,5.53,2.68,-2.69,-2.50,-2.20,2.84,2.84,2.85
351.23,5.48,2.63,5.48,2.63,-2.63,-2.46,-2.15,2.84,2.85,2.85
354.74,5.44,2.58,5.44,2.58,-2.57,-2.41,-2.10,2.86,2.87,2.86
358.28,5.39,2.53,5.38,2.52,-2.51,-2.36,-2.05,2.87,2.87,2.86
361.87,5.33,2.47,5.32,2.46,-2.46,-2.32,-2.00,2.87,2.86,2.86
365.49,5.25,2.39,5.25,2.40,-2.40,-2.27,-1.96,2.85,2.85,2.86
369.14,5.19,2.33,5.19,2.33,-2.34,-2.23,-1.91,2.84,2.85,2.86
372.83,5.14,2.28,5.13,2.27,-2.29,-2.18,-1.87,2.85,2.85,2.86
376.56,5.09,2.22,5.09,2.23,-2.23,-2.13,-1.83,2.86,2.86,2.87
380.33,5.05,2.18,5.04,2.18,-2.17,-2.08,-1.79,2.87,2.87,2.87
384.13,5.00,2.13,5.00,2.13,-2.12,-2.04,-1.75,2.88,2.88,2.87
387.97,4.95,2.08,4.94,2.07,-2.06,-1.99,-1.72,2.88,2.88,2.87
391.85,4.89,2.01,4.89,2.02,-2.01,-1.94,-1.68,2.88,2.88,2.88
395.77,4.84,1.96,4.84,1.96,-1.96,-1.89,-1.65,2.88,2.88,2.88
399.73,4.79,1.90,4.78,1.90,-1.91,-1.85,-1.61,2.88,2.88,2.89
403.72,4.74,1.85,4.74,1.85,-1.86,-1.80,-1.58,2.88,2.88,2.89
407.76,4.70,1.80,4.70,1.80,-1.81,-1.75,-1.55,2.89,2.89,2.90
411.84,4.66,1.76,4.66,1.76,-1.76,-1.70,-1.52,2.89,2.90,2.90
415.96,4.63,1.72,4.62,1.72,-1.72,-1.65,-1.49,2.91,2.90,2.91
420.12,4.59,1.68,4.59,1.68,-1.68,-1.60,-1.46,2.91,2.91,2.91
424.32,4.56,1.65,4.55,1.64,-1.64,-1.55,-1.43,2.92,2.91,2.91
428.56,4.52,1.60,4.52,1.60,-1.60,-1.50,-1.41,2.92,2.92,2.92
432.85,4.48,1.56,4.48,1.56,-1.56,-1.46,-1.38,2.92,2.92,2.92
437.18,4.44,1.52,4.44,1.52,-1.52,-1.41,-1.35,2.92,2.92,2.92
441.55,4.40,1.48,4.40,1.48,-1.48,-1.36,-1.32,2.92,2.92,2.92
445.96,4.36,1.44,4.35,1.44,-1.44,-1.31,-1.30,2.92,2.91,2.92
450.42,4.31,1.39,4.31,1.39,-1.39,-1.26,-1.27,2.91,2.91,2.92
454.93,4.26,1.34,4.26,1.34,-1.35,-1.21,-1.24,2.91,2.91,2.92
459.48,4.22,1.30,4.22,1.30,-1.30,-1.16,-1.21,2.92,2.92,2.92
464.07,4.18,1.26,4.17,1.26,-1.25,-1.11,-1.18,2.93,2.93,2.92
468.71,4.13,1.21,4.12,1.20,-1.19,-1.06,-1.15,2.94,2.93,2.92
473.40,4.06,1.14,4.06,1.14,-1.13,-1.01,-1.12,2.92,2.93,2.92
478.13,4.00,1.07,4.00,1.07,-1.08,-0.96,-1.09,2.92,2.92,2.93
482.91,3.94,1.01,3.93,1.01,-1.02,-0.91,-1.06,2.92,2.91,2.93
487.74,3.88,0.95,3.88,0.95,-0.96,-0.86,-1.03,2.91,2.92,2.93
492.62,3.83,0.90,3.83,0.90,-0.90,-0.80,-0.99,2.92,2.93,2.93
497.55,3.79,0.85,3.78,0.85,-0.85,-0.75,-0.96,2.94,2.93,2.94
502.52,3.74,0.80,3.74,0.80,-0.80,-0.70,-0.92,2.94,2.94,2.94
507.55,3.69,0.75,3.68,0.75,-0.75,-0.65,-0.88,2.94,2.94,2.94
512.62,3.64,0.70,3.63,0.69,-0.70,-0.60,-0.84,2.94,2.94,2.94
517.75,3.58,0.63,3.59,0.64,-0.65,-0.55,-0.80,2.93,2.94,2.95
522.93,3.55,0.60,3.54,0.60,-0.59,-0.50,-0.76,2.95,2.95,2.95
528.16,3.50,0.55,3.49,0.55,-0.54,-0.45,-0.71,2.96,2.96,2.95
533.44,3.45,0.50,3.44,0.49,-0.48,-0.39,-0.67,2.96,2.96,2.95
538.77,3.38,0.42,3.38,0.43,-0.43,-0.34,-0.62,2.95,2.95,2.96
544.16,3.32,0.36,3.32,0.36,-0.37,-0.29,-0.57,2.94,2.95,2.96
