frequency,raw,error,smoothed,error_smoothed,equalization,parametric_eq,fixed_band_eq,equalized_raw,equalized_smoothed,target
20.00,-6.95,-5.77,-6.96,-5.78,5.82,4.06,0.47,-1.13,-1.14,-1.18
20.20,-6.86,-5.68,-6.86,-5.68,5.68,3.99,0.49,-1.18,-1.18,-1.18
20.40,-6.76,-5.58,-6.74,-5.56,5.54,3.93,0.50,-1.22,-1.20,-1.18
20.61,-6.61,-5.43,-6.62,-5.43,5.40,3.86,0.52,-1.21,-1.21,-1.18
20.81,-6.46,-5.28,-6.47,-5.29,5.26,3.79,0.54,-1.20,-1.21,-1.18
21.02,-6.32,-5.14,-6.31,-5.13,5.11,3.72,0.56,-1.21,-1.20,-1.18
21.23,-6.15,-4.97,-6.15,-4.97,4.97,3.65,0.58,-1.18,-1.19,-1.18
21.44,-5.99,-4.81,-5.99,-4.81,4.82,3.58,0.60,-1.17,-1.17,-1.18
21.66,-5.83,-4.65,-5.83,-4.65,4.65,3.51,0.62,-1.18,-1.17,-1.18
21.87,-5.66,-4.48,-5.67,-4.49,4.49,3.44,0.64,-1.16,-1.17,-1.18
22.09,-5.52,-4.34,-5.51,-4.33,4.33,3.37,0.66,-1.18,-1.17,-1.18
22.31,-5.35,-4.17,-5.35,-4.17,4.18,3.30,0.68,-1.17,-1.18,-1.18
22.54,-5.20,-4.02,-5.20,-4.02,4.02,3.23,0.70,-1.18,-1.18,-1.18
22.76,-5.06,-3.88,-5.05,-3.87,3.87,3.15,0.73,-1.19,-1.18,-1.18
22.99,-4.90,-3.72,-4.90,-3.72,3.71,3.08,0.75,-1.19,-1.19,-1.18
23.22,-4.75,-3.57,-4.75,-3.57,3.56,3.01,0.78,-1.19,-1.19,-1.18
23.45,-4.59,-3.41,-4.59,-3.41,3.41,2.93,0.80,-1.18,-1.18,-1.18
23.69,-4.44,-3.26,-4.44,-3.26,3.26,2.86,0.83,-1.18,-1.18,-1.18
23.92,-4.28,-3.10,-4.29,-3.11,3.11,2.78,0.85,-1.17,-1.18,-1.18
24.16,-4.15,-2.97,-4.14,-2.95,2.96,2.71,0.88,-1.19,-1.18,-1.18
24.40,-3.99,-2.81,-3.99,-2.81,2.82,2.63,0.90,-1.17,-1.18,-1.18
24.65,-3.84,-2.66,-3.85,-2.67,2.67,2.55,0.93,-1.17,-1.18,-1.18
24.89,-3.73,-2.55,-3.71,-2.53,2.53,2.47,0.96,-1.19,-1.18,-1.18
25.14,-3.57,-2.39,-3.58,-2.40,2.40,2.39,0.98,-1.17,-1.18,-1.18
25.39,-3.45,-2.27,-3.45,-2.27,2.26,2.32,1.01,-1.19,-1.19,-1.18
25.65,-3.31,-2.13,-3.31,-2.13,2.13,2.24,1.03,-1.18,-1.18,-1.18
25.91,-3.18,-2.00,-3.18,-1.99,1.99,2.16,1.06,-1.19,-1.18,-1.18
26.16,-3.04,-1.86,-3.04,-1.86,1.86,2.08,1.08,-1.18,-1.18,-1.18
26.43,-2.89,-1.71,-2.90,-1.72,1.72,2.00,1.11,-1.17,-1.18,-1.18
26.69,-2.78,-1.60,-2.77,-1.59,1.58,1.91,1.13,-1.20,-1.18,-1.18
26.96,-2.62,-1.44,-2.63,-1.45,1.45,1.83,1.15,-1.17,-1.19,-1.18
27.23,-2.51,-1.33,-2.50,-1.32,1.32,1.75,1.17,-1.19,-1.18,-1.18
27.50,-2.36,-1.18,-2.36,-1.18,1.19,1.67,1.19,-1.17,-1.17,-1.18
27.77,-2.23,-1.05,-2.24,-1.06,1.07,1.58,1.21,-1.16,-1.17,-1.18
28.05,-2.12,-0.94,-2.12,-0.94,0.95,1.50,1.22,-1.17,-1.17,-1.18
28.33,-2.01,-0.83,-2.01,-0.83,0.83,1.42,1.23,-1.18,-1.18,-1.18
28.62,-1.90,-0.72,-1.90,-0.72,0.71,1.33,1.24,-1.19,-1.19,-1.18
28.90,-1.79,-0.61,-1.79,-0.61,0.59,1.25,1.25,-1.20,-1.19,-1.18
29.19,-1.67,-0.49,-1.67,-0.49,0.48,1.16,1.25,-1.19,-1.19,-1.18
29.48,-1.55,-0.37,-1.55,-0.37,0.37,1.07,1.25,-1.18,-1.18,-1.18
29.78,-1.44,-0.26,-1.43,-0.25,0.26,0.99,1.25,-1.18,-1.18,-1.18
30.08,-1.31,-0.13,-1.32,-0.14,0.15,0.90,1.24,-1.16,-1.17,-1.18
30.38,-1.22,-0.04,-1.22,-0.03,0.04,0.82,1.23,-1.18,-1.18,-1.18
30.68,-1.11,0.07,-1.11,0.07,-0.06,0.73,1.21,-1.17,-1.18,-1.18
30.99,-1.02,0.16,-1.02,0.16,-0.16,0.64,1.20,-1.18,-1.18,-1.18
31.30,-0.92,0.26,-0.92,0.26,-0.26,0.55,1.17,-1.18,-1.18,-1.18
31.61,-0.83,0.35,-0.83,0.35,-0.35,0.46,1.15,-1.18,-1.18,-1.18
31.93,-0.73,0.45,-0.74,0.44,-0.45,0.38,1.11,-1.18,-1.18,-1.18
32.24,-0.66,0.52,-0.65,0.53,-0.53,0.29,1.08,-1.19,-1.18,-1.18
32.57,-0.55,0.63,-0.56,0.62,-0.62,0.20,1.04,-1.17,-1.18,-1.18
32.89,-0.48,0.70,-0.47,0.71,-0.71,0.11,1.00,-1.19,-1.18,-1.18
33.22,-0.38,0.80,-0.39,0.79,-0.79,0.02,0.95,-1.17,-1.18,-1.18
33.55,-0.32,0.86,-0.31,0.87,-0.87,-0.07,0.90,-1.19,-1.18,-1.18
33.89,-0.22,0.96,-0.23,0.95,-0.95,-0.16,0.85,-1.17,-1.18,-1.18
34.23,-0.15,1.03,-0.16,1.03,-1.03,-0.25,0.79,-1.18,-1.18,-1.18
34.57,-0.09,1.09,-0.08,1.10,-1.10,-0.34,0.73,-1.19,-1.18,-1.18
34.92,-0.01,1.17,-0.01,1.17,-1.17,-0.43,0.67,-1.18,-1.19,-1.18
35.27,0.06,1.24,0.06,1.24,-1.24,-0.52,0.60,-1.18,-1.18,-1.18
35.62,0.12,1.30,0.13,1.31,-1.31,-0.61,0.53,-1.19,-1.18,-1.18
35.97,0.20,1.38,0.19,1.37,-1.37,-0.70,0.46,-1.17,-1.18,-1.18
36.33,0.26,1.44,0.26,1.44,-1.44,-0.78,0.38,-1.18,-1.18,-1.18
36.70,0.31,1.49,0.32,1.51,-1.50,-0.87,0.31,-1.19,-1.18,-1.18
37.06,0.40,1.58,0.38,1.57,-1.57,-0.96,0.23,-1.17,-1.18,-1.18
37.43,0.44,1.62,0.44,1.63,-1.63,-1.05,0.15,-1.19,-1.18,-1.18
37.81,0.50,1.68,0.51,1.69,-1.68,-1.14,0.07,-1.18,-1.18,-1.18
38.19,0.56,1.74,0.56,1.74,-1.74,-1.23,-0.02,-1.18,-1.18,-1.18
38.57,0.62,1.80,0.62,1.80,-1.79,-1.31,-0.10,-1.17,-1.18,-1.18
38.95,0.66,1.84,0.66,1.84,-1.84,-1.40,-0.19,-1.18,-1.18,-1.18
39.34,0.71,1.89,0.71,1.89,-1.89,-1.49,-0.28,-1.18,-1.18,-1.18
39.74,0.74,1.92,0.75,1.93,-1.93,-1.57,-0.37,-1.19,-1.18,-1.18
40.14,0.80,1.98,0.79,1.97,-1.97,-1.66,-0.46,-1.17,-1.18,-1.18
40.54,0.83,2.01,0.83,2.02,-2.01,-1.74,-0.55,-1.18,-1.18,-1.18
40.94,0.88,2.06,0.88,2.06,-2.05,-1.83,-0.64,-1.17,-1.18,-1.18
41.35,0.91,2.09,0.91,2.09,-2.09,-1.91,-0.74,-1.18,-1.18,-1.18
41.76,0.94,2.12,0.95,2.13,-2.13,-1.99,-0.83,-1.19,-1.18,-1.18
42.18,0.98,2.16,0.98,2.16,-2.17,-2.07,-0.93,-1.19,-1.19,-1.18
42.60,1.03,2.21,1.02,2.21,-2.20,-2.15,-1.03,-1.17,-1.18,-1.18
43.03,1.06,2.24,1.06,2.24,-2.24,-2.23,-1.12,-1.18,-1.18,-1.18
43.46,1.10,2.28,1.10,2.28,-2.27,-2.31,-1.22,-1.17,-1.18,-1.18
43.90,1.12,2.30,1.13,2.31,-2.31,-2.38,-1.32,-1.19,-1.18,-1.18
44.33,1.17,2.35,1.16,2.34,-2.34,-2.46,-1.43,-1.17,-1.18,-1.18
44.78,1.19,2.37,1.19,2.37,-2.37,-2.53,-1.53,-1.18,-1.18,-1.18
45.23,1.22,2.40,1.23,2.41,-2.40,-2.60,-1.63,-1.18,-1.18,-1.18
45.68,1.26,2.44,1.25,2.43,-2.43,-2.67,-1.74,-1.17,-1.18,-1.18
46.13,1.28,2.46,1.28,2.47,-2.46,-2.74,-1.84,-1.18,-1.18,-1.18
46.60,1.31,2.49,1.31,2.50,-2.49,-2.81,-1.95,-1.18,-1.18,-1.18
47.06,1.35,2.53,1.34,2.52,-2.53,-2.87,-2.06,-1.18,-1.18,-1.18
47.53,1.37,2.55,1.37,2.56,-2.56,-2.94,-2.17,-1.19,-1.18,-1.18
48.01,1.40,2.58,1.41,2.59,-2.59,-3.00,-2.27,-1.19,-1.18,-1.18
48.49,1.45,2.63,1.44,2.62,-2.62,-3.06,-2.38,-1.17,-1.18,-1.18
48.97,1.47,2.65,1.47,2.65,-2.65,-3.11,-2.49,-1.18,-1.18,-1.18
49.46,1.50,2.68,1.51,2.69,-2.69,-3.17,-2.61,-1.19,-1.18,-1.18
49.96,1.54,2.72,1.54,2.72,-2.72,-3.22,-2.72,-1.18,-1.18,-1.18
50.46,1.58,2.76,1.58,2.76,-2.76,-3.27,-2.83,-1.18,-1.18,-1.18
50.96,1.61,2.79,1.61,2.79,-2.79,-3.32,-2.94,-1.18,-1.18,-1.18
51.47,1.65,2.83,1.65,2.83,-2.83,-3.36,-3.05,-1.18,-1.18,-1.18
51.99,1.68,2.86,1.69,2.87,-2.87,-3.41,-3.16,-1.19,-1.18,-1.18
52.51,1.73,2.91,1.72,2.91,-2.90,-3.45,-3.27,-1.17,-1.18,-1.18
53.03,1.76,2.94,1.76,2.94,-2.94,-3.48,-3.37,-1.18,-1.18,-1.18
53.56,1.79,2.97,1.79,2.97,-2.97,-3.52,-3.48,-1.18,-1.18,-1.18
54.10,1.82,3.00,1.83,3.01,-3.01,-3.55,-3.58,-1.19,-1.18,-1.18
54.64,1.87,3.05,1.87,3.05,-3.05,-3.58,-3.68,-1.18,-1.18,-1.18
55.18,1.91,3.09,1.90,3.08,-3.09,-3.61,-3.78,-1.18,-1.18,-1.18
55.74,1.94,3.12,1.94,3.12,-3.12,-3.63,-3.87,-1.18,-1.18,-1.18
56.29,1.97,3.15,1.98,3.16,-3.16,-3.66,-3.96,-1.19,-1.18,-1.18
56.86,2.03,3.21,2.02,3.20,-3.20,-3.68,-4.05,-1.17,-1.18,-1.18
57.42,2.06,3.24,2.06,3.24,-3.23,-3.70,-4.13,-1.17,-1.18,-1.18
58.00,2.09,3.27,2.09,3.27,-3.27,-3.71,-4.20,-1.18,-1.18,-1.18
58.58,2.12,3.30,2.12,3.30,-3.31,-3.72,-4.27,-1.19,-1.19,-1.18
59.16,2.15,3.33,2.16,3.34,-3.34,-3.73,-4.33,-1.19,-1.18,-1.18
59.76,2.19,3.37,2.19,3.37,-3.37,-3.74,-4.39,-1.18,-1.18,-1.18
60.35,2.24,3.42,2.22,3.40,-3.41,-3.75,-4.44,-1.17,-1.18,-1.18
60.96,2.24,3.42,2.26,3.44,-3.44,-3.75,-4.48,-1.20,-1.18,-1.18
61.57,2.29,3.47,2.29,3.47,-3.47,-3.75,-4.51,-1.18,-1.18,-1.18
62.18,2.33,3.51,2.32,3.50,-3.49,-3.75,-4.53,-1.16,-1.18,-1.18
62.80,2.33,3.51,2.35,3.53,-3.52,-3.75,-4.55,-1.19,-1.17,-1.18
63.43,2.37,3.55,2.36,3.54,-3.54,-3.74,-4.56,-1.17,-1.18,-1.18
64.07,2.38,3.56,2.38,3.56,-3.56,-3.74,-4.56,-1.18,-1.18,-1.18
64.71,2.39,3.57,2.40,3.58,-3.58,-3.73,-4.55,-1.19,-1.18,-1.18
65.35,2.43,3.61,2.42,3.60,-3.60,-3.72,-4.54,-1.17,-1.18,-1.18
66.01,2.43,3.61,2.44,3.62,-3.62,-3.70,-4.52,-1.19,-1.18,-1.18
66.67,2.47,3.65,2.46,3.64,-3.64,-3.69,-4.49,-1.17,-1.18,-1.18
67.33,2.47,3.65,2.47,3.65,-3.66,-3.68,-4.46,-1.19,-1.19,-1.18
68.01,2.47,3.65,2.49,3.67,-3.67,-3.66,-4.42,-1.20,-1.18,-1.18
68.69,2.52,3.70,2.50,3.68,-3.68,-3.64,-4.37,-1.16,-1.18,-1.18
69.37,2.52,3.70,2.52,3.70,-3.69,-3.62,-4.33,-1.17,-1.17,-1.18
70.07,2.52,3.70,2.52,3.71,-3.70,-3.60,-4.27,-1.18,-1.17,-1.18
70.77,2.52,3.70,2.52,3.70,-3.70,-3.58,-4.22,-1.18,-1.18,-1.18
71.48,2.52,3.70,2.52,3.70,-3.70,-3.56,-4.16,-1.18,-1.18,-1.18
72.19,2.52,3.70,2.52,3.70,-3.70,-3.54,-4.09,-1.18,-1.18,-1.18
72.91,2.52,3.70,2.52,3.70,-3.70,-3.52,-4.03,-1.18,-1.18,-1.18
73.64,2.52,3.70,2.52,3.70,-3.70,-3.49,-3.96,-1.18,-1.18,-1.18
74.38,2.52,3.70,2.52,3.70,-3.70,-3.47,-3.89,-1.18,-1.18,-1.18
75.12,2.52,3.70,2.52,3.70,-3.70,-3.44,-3.83,-1.18,-1.18,-1.18
75.87,2.52,3.70,2.52,3.70,-3.70,-3.42,-3.76,-1.18,-1.18,-1.18
76.63,2.52,3.70,2.52,3.70,-3.70,-3.39,-3.69,-1.18,-1.18,-1.18
77.40,2.52,3.70,2.52,3.70,-3.70,-3.36,-3.62,-1.18,-1.18,-1.18
78.17,2.52,3.70,2.52,3.70,-3.70,-3.34,-3.55,-1.18,-1.18,-1.18
78.95,2.52,3.70,2.52,3.70,-3.70,-3.31,-3.49,-1.18,-1.18,-1.18
79.74,2.52,3.70,2.52,3.70,-3.71,-3.29,-3.42,-1.19,-1.19,-1.18
80.54,2.52,3.70,2.52,3.70,-3.71,-3.26,-3.36,-1.19,-1.19,-1.18
81.35,2.52,3.70,2.53,3.71,-3.72,-3.23,-3.30,-1.20,-1.19,-1.18
82.16,2.55,3.73,2.55,3.73,-3.73,-3.21,-3.24,-1.18,-1.18,-1.18
82.98,2.57,3.75,2.56,3.74,-3.73,-3.18,-3.18,-1.16,-1.17,-1.18
83.81,2.57,3.75,2.57,3.75,-3.74,-3.15,-3.12,-1.17,-1.17,-1.18
84.65,2.57,3.75,2.57,3.75,-3.75,-3.13,-3.07,-1.18,-1.18,-1.18
85.50,2.57,3.75,2.57,3.75,-3.76,-3.10,-3.01,-1.19,-1.19,-1.18
86.35,2.57,3.75,2.57,3.75,-3.76,-3.07,-2.96,-1.19,-1.19,-1.18
87.22,2.57,3.75,2.58,3.76,-3.76,-3.05,-2.92,-1.19,-1.19,-1.18
88.09,2.59,3.77,2.58,3.76,-3.76,-3.02,-2.87,-1.17,-1.18,-1.18
88.97,2.57,3.75,2.58,3.76,-3.75,-2.99,-2.83,-1.18,-1.17,-1.18
89.86,2.57,3.75,2.57,3.75,-3.75,-2.97,-2.79,-1.18,-1.17,-1.18
90.76,2.57,3.75,2.55,3.74,-3.73,-2.94,-2.75,-1.16,-1.18,-1.18
91.66,2.52,3.70,2.54,3.72,-3.72,-2.92,-2.71,-1.20,-1.18,-1.18
92.58,2.52,3.70,2.52,3.70,-3.70,-2.89,-2.68,-1.18,-1.18,-1.18
93.51,2.49,3.67,2.49,3.67,-3.67,-2.87,-2.64,-1.18,-1.18,-1.18
94.44,2.47,3.65,2.47,3.65,-3.65,-2.84,-2.61,-1.18,-1.18,-1.18
95.39,2.43,3.61,2.43,3.61,-3.62,-2.82,-2.58,-1.18,-1.18,-1.18
96.34,2.40,3.58,2.40,3.58,-3.58,-2.79,-2.56,-1.18,-1.19,-1.18
97.30,2.36,3.54,2.36,3.54,-3.55,-2.77,-2.53,-1.19,-1.19,-1.18
98.28,2.32,3.50,2.32,3.50,-3.51,-2.74,-2.51,-1.19,-1.18,-1.18
99.26,2.29,3.47,2.29,3.47,-3.46,-2.72,-2.49,-1.17,-1.18,-1.18
100.25,2.24,3.42,2.24,3.42,-3.42,-2.69,-2.47,-1.18,-1.17,-1.18
101.25,2.20,3.38,2.19,3.37,-3.37,-2.67,-2.45,-1.17,-1.18,-1.18
102.27,2.12,3.30,2.13,3.31,-3.31,-2.64,-2.44,-1.19,-1.18,-1.18
103.29,2.07,3.25,2.07,3.25,-3.25,-2.62,-2.42,-1.18,-1.19,-1.18
104.32,2.01,3.19,2.01,3.19,-3.19,-2.59,-2.40,-1.18,-1.19,-1.18
105.37,1.94,3.12,1.95,3.13,-3.13,-2.57,-2.39,-1.19,-1.18,-1.18
106.42,1.89,3.07,1.88,3.06,-3.06,-2.54,-2.37,-1.17,-1.18,-1.18
107.48,1.81,2.99,1.81,2.99,-2.99,-2.52,-2.36,-1.18,-1.18,-1.18
108.56,1.73,2.91,1.73,2.91,-2.92,-2.49,-2.35,-1.19,-1.19,-1.18
109.64,1.65,2.83,1.65,2.83,-2.84,-2.46,-2.33,-1.19,-1.19,-1.18
110.74,1.58,2.76,1.58,2.76,-2.77,-2.43,-2.32,-1.19,-1.18,-1.18
111.85,1.51,2.69,1.51,2.69,-2.68,-2.41,-2.30,-1.17,-1.18,-1.18
112.97,1.44,2.62,1.43,2.61,-2.60,-2.38,-2.29,-1.16,-1.17,-1.18
114.10,1.33,2.51,1.34,2.52,-2.51,-2.35,-2.27,-1.18,-1.18,-1.18
115.24,1.24,2.42,1.24,2.42,-2.43,-2.32,-2.25,-1.19,-1.19,-1.18
116.39,1.14,2.32,1.14,2.32,-2.33,-2.29,-2.23,-1.19,-1.19,-1.18
117.55,1.05,2.23,1.05,2.23,-2.23,-2.26,-2.21,-1.19,-1.18,-1.18
118.73,0.95,2.13,0.95,2.13,-2.13,-2.23,-2.19,-1.18,-1.18,-1.18
119.92,0.86,2.04,0.85,2.03,-2.02,-2.20,-2.16,-1.16,-1.17,-1.18
121.12,0.74,1.92,0.74,1.92,-1.91,-2.16,-2.13,-1.17,-1.17,-1.18
122.33,0.62,1.80,0.62,1.80,-1.80,-2.13,-2.10,-1.18,-1.18,-1.18
123.55,0.49,1.67,0.50,1.68,-1.69,-2.09,-2.07,-1.20,-1.19,-1.18
124.79,0.38,1.56,0.37,1.56,-1.57,-2.06,-2.03,-1.19,-1.19,-1.18
126.03,0.25,1.43,0.25,1.43,-1.44,-2.02,-2.00,-1.19,-1.19,-1.18
127.29,0.13,1.31,0.13,1.31,-1.31,-1.98,-1.95,-1.18,-1.18,-1.18
128.57,0.00,1.18,0.01,1.19,-1.17,-1.94,-1.91,-1.17,-1.16,-1.18
129.85,-0.13,1.05,-0.13,1.05,-1.02,-1.90,-1.86,-1.15,-1.15,-1.18
131.15,-0.26,0.92,-0.28,0.90,-0.87,-1.86,-1.82,-1.13,-1.15,-1.18
132.46,-0.45,0.73,-0.45,0.73,-0.72,-1.82,-1.76,-1.17,-1.17,-1.18
133.79,-0.63,0.55,-0.62,0.56,-0.57,-1.77,-1.71,-1.20,-1.19,-1.18
135.12,-0.78,0.40,-0.78,0.40,-0.43,-1.73,-1.65,-1.21,-1.21,-1.18
136.48,-0.92,0.26,-0.91,0.27,-0.29,-1.68,-1.60,-1.21,-1.20,-1.18
137.84,-1.02,0.16,-1.02,0.16,-0.16,-1.63,-1.54,-1.18,-1.19,-1.18
139.22,-1.12,0.06,-1.12,0.06,-0.05,-1.58,-1.47,-1.17,-1.18,-1.18
140.61,-1.21,-0.03,-1.22,-0.04,0.04,-1.53,-1.41,-1.17,-1.18,-1.18
142.02,-1.30,-0.12,-1.30,-0.12,0.11,-1.48,-1.34,-1.19,-1.18,-1.18
143.44,-1.38,-0.20,-1.37,-0.19,0.18,-1.43,-1.27,-1.20,-1.19,-1.18
144.87,-1.40,-0.22,-1.41,-0.23,0.23,-1.37,-1.21,-1.17,-1.19,-1.18
146.32,-1.45,-0.27,-1.44,-0.26,0.26,-1.31,-1.13,-1.19,-1.18,-1.18
147.78,-1.45,-0.27,-1.46,-0.28,0.29,-1.26,-1.06,-1.16,-1.17,-1.18
149.26,-1.48,-0.30,-1.48,-0.30,0.30,-1.20,-0.99,-1.18,-1.18,-1.18
150.75,-1.49,-0.31,-1.49,-0.31,0.30,-1.14,-0.92,-1.19,-1.19,-1.18
152.26,-1.49,-0.31,-1.48,-0.30,0.29,-1.07,-0.84,-1.20,-1.20,-1.18
153.78,-1.46,-0.28,-1.46,-0.28,0.27,-1.01,-0.77,-1.19,-1.19,-1.18
155.32,-1.42,-0.24,-1.42,-0.24,0.24,-0.94,-0.69,-1.18,-1.18,-1.18
156.88,-1.38,-0.20,-1.38,-0.20,0.21,-0.88,-0.62,-1.17,-1.18,-1.18
158.44,-1.34,-0.16,-1.34,-0.16,0.17,-0.81,-0.54,-1.17,-1.17,-1.18
160.03,-1.31,-0.13,-1.31,-0.12,0.13,-0.74,-0.46,-1.18,-1.17,-1.18
161.63,-1.26,-0.08,-1.27,-0.09,0.10,-0.67,-0.38,-1.16,-1.17,-1.18
163.24,-1.26,-0.08,-1.25,-0.07,0.07,-0.59,-0.31,-1.19,-1.18,-1.18
164.88,-1.22,-0.04,-1.22,-0.04,0.04,-0.52,-0.23,-1.18,-1.18,-1.18
166.53,-1.21,-0.03,-1.20,-0.02,0.02,-0.45,-0.15,-1.19,-1.18,-1.18
168.19,-1.18,0.00,-1.18,-0.00,0.01,-0.37,-0.07,-1.17,-1.17,-1.18
169.87,-1.17,0.01,-1.17,0.01,-0.00,-0.29,0.01,-1.17,-1.18,-1.18
171.57,-1.17,0.01,-1.17,0.01,-0.01,-0.21,0.09,-1.18,-1.18,-1.18
173.29,-1.17,0.01,-1.17,0.01,-0.02,-0.13,0.17,-1.19,-1.19,-1.18
175.02,-1.17,0.01,-1.17,0.01,-0.02,-0.05,0.25,-1.19,-1.19,-1.18
176.77,-1.17,0.01,-1.17,0.01,-0.02,0.03,0.33,-1.19,-1.19,-1.18
178.54,-1.17,0.01,-1.17,0.01,-0.01,0.11,0.41,-1.18,-1.18,-1.18
180.32,-1.17,0.01,-1.17,0.01,-0.01,0.19,0.49,-1.18,-1.18,-1.18
182.13,-1.17,0.01,-1.18,-0.00,0.01,0.28,0.58,-1.16,-1.17,-1.18
183.95,-1.21,-0.03,-1.20,-0.02,0.02,0.36,0.66,-1.19,-1.18,-1.18
185.79,-1.23,-0.05,-1.23,-0.05,0.05,0.45,0.74,-1.18,-1.18,-1.18
187.65,-1.26,-0.08,-1.26,-0.08,0.07,0.53,0.82,-1.19,-1.19,-1.18
189.52,-1.29,-0.11,-1.29,-0.11,0.11,0.61,0.91,-1.18,-1.18,-1.18
191.42,-1.33,-0.15,-1.33,-0.15,0.16,0.70,0.99,-1.17,-1.17,-1.18
193.33,-1.38,-0.20,-1.38,-0.20,0.20,0.78,1.07,-1.18,-1.17,-1.18
195.27,-1.43,-0.25,-1.44,-0.26,0.26,0.87,1.15,-1.17,-1.18,-1.18
197.22,-1.51,-0.33,-1.50,-0.32,0.32,0.95,1.24,-1.19,-1.19,-1.18
199.19,-1.57,-0.39,-1.57,-0.39,0.38,1.04,1.32,-1.19,-1.19,-1.18
201.18,-1.63,-0.45,-1.64,-0.46,0.45,1.12,1.40,-1.18,-1.19,-1.18
203.19,-1.70,-0.52,-1.70,-0.52,0.52,1.20,1.48,-1.18,-1.18,-1.18
205.23,-1.78,-0.60,-1.78,-0.59,0.60,1.28,1.56,-1.18,-1.18,-1.18
207.28,-1.84,-0.66,-1.85,-0.67,0.68,1.36,1.64,-1.16,-1.17,-1.18
209.35,-1.95,-0.77,-1.94,-0.76,0.76,1.43,1.72,-1.19,-1.18,-1.18
211.44,-2.01,-0.83,-2.02,-0.84,0.84,1.51,1.80,-1.17,-1.18,-1.18
213.56,-2.12,-0.94,-2.11,-0.93,0.92,1.58,1.88,-1.20,-1.19,-1.18
215.69,-2.19,-1.01,-2.19,-1.01,1.00,1.65,1.95,-1.19,-1.19,-1.18
217.85,-2.27,-1.09,-2.27,-1.09,1.08,1.72,2.03,-1.19,-1.19,-1.18
220.03,-2.34,-1.16,-2.34,-1.16,1.16,1.79,2.10,-1.18,-1.18,-1.18
222.23,-2.42,-1.24,-2.41,-1.23,1.23,1.85,2.16,-1.19,-1.18,-1.18
224.45,-2.48,-1.30,-2.48,-1.30,1.30,1.91,2.23,-1.18,-1.18,-1.18
226.70,-2.55,-1.37,-2.55,-1.37,1.38,1.97,2.29,-1.17,-1.18,-1.18
228.96,-2.63,-1.45,-2.62,-1.44,1.45,2.03,2.35,-1.18,-1.18,-1.18
231.25,-2.69,-1.51,-2.69,-1.51,1.52,2.08,2.40,-1.17,-1.18,-1.18
233.57,-2.76,-1.58,-2.77,-1.59,1.59,2.13,2.45,-1.17,-1.18,-1.18
235.90,-2.84,-1.66,-2.84,-1.66,1.66,2.17,2.50,-1.18,-1.18,-1.18
238.26,-2.92,-1.74,-2.91,-1.73,1.73,2.21,2.54,-1.19,-1.19,-1.18
240.64,-2.97,-1.79,-2.98,-1.80,1.80,2.25,2.58,-1.17,-1.18,-1.18
243.05,-3.05,-1.87,-3.04,-1.86,1.87,2.28,2.61,-1.18,-1.18,-1.18
245.48,-3.11,-1.93,-3.11,-1.93,1.93,2.31,2.63,-1.18,-1.18,-1.18
247.93,-3.18,-2.00,-3.18,-2.00,2.00,2.33,2.65,-1.18,-1.18,-1.18
250.41,-3.26,-2.08,-3.25,-2.07,2.07,2.35,2.67,-1.19,-1.18,-1.18
252.92,-3.32,-2.14,-3.32,-2.14,2.14,2.37,2.68,-1.18,-1.18,-1.18
255.45,-3.39,-2.21,-3.39,-2.21,2.21,2.38,2.68,-1.18,-1.18,-1.18
258.00,-3.47,-2.29,-3.46,-2.28,2.28,2.39,2.69,-1.19,-1.18,-1.18
260.58,-3.53,-2.35,-3.53,-2.35,2.36,2.40,2.68,-1.17,-1.18,-1.18
263.19,-3.60,-2.42,-3.60,-2.42,2.43,2.40,2.67,-1.17,-1.17,-1.18
265.82,-3.68,-2.50,-3.68,-2.50,2.50,2.40,2.65,-1.18,-1.18,-1.18
268.48,-3.76,-2.58,-3.76,-2.58,2.57,2.40,2.64,-1.19,-1.18,-1.18
271.16,-3.84,-2.66,-3.83,-2.65,2.65,2.39,2.61,-1.19,-1.19,-1.18
273.87,-3.89,-2.71,-3.90,-2.72,2.72,2.38,2.59,-1.17,-1.18,-1.18
276.61,-3.97,-2.79,-3.97,-2.78,2.79,2.36,2.56,-1.18,-1.18,-1.18
279.38,-4.03,-2.85,-4.02,-2.84,2.86,2.35,2.52,-1.17,-1.17,-1.18
282.17,-4.08,-2.90,-4.09,-2.91,2.92,2.33,2.49,-1.16,-1.17,-1.18
284.99,-4.14,-2.96,-4.14,-2.96,2.97,2.31,2.45,-1.17,-1.18,-1.18
287.84,-4.20,-3.02,-4.20,-3.02,3.01,2.28,2.41,-1.19,-1.19,-1.18
290.72,-4.24,-3.06,-4.24,-3.06,3.04,2.26,2.36,-1.20,-1.20,-1.18
293.63,-4.27,-3.09,-4.26,-3.08,3.06,2.23,2.32,-1.21,-1.20,-1.18
296.57,-4.24,-3.06,-4.25,-3.07,3.07,2.20,2.28,-1.17,-1.18,-1.18
299.53,-4.24,-3.06,-4.24,-3.05,3.06,2.17,2.23,-1.18,-1.17,-1.18
302.53,-4.20,-3.02,-4.21,-3.03,3.04,2.13,2.18,-1.16,-1.17,-1.18
305.55,-4.20,-3.02,-4.19,-3.01,3.01,2.10,2.14,-1.19,-1.18,-1.18
308.61,-4.15,-2.97,-4.16,-2.97,2.96,2.06,2.09,-1.19,-1.19,-1.18
311.69,-4.12,-2.94,-4.11,-2.93,2.90,2.03,2.04,-1.22,-1.20,-1.18
314.81,-4.03,-2.85,-4.04,-2.86,2.84,1.99,1.99,-1.19,-1.20,-1.18
317.96,-3.96,-2.78,-3.95,-2.77,2.77,1.95,1.95,-1.19,-1.19,-1.18
321.14,-3.86,-2.68,-3.86,-2.68,2.69,1.91,1.90,-1.17,-1.17,-1.18
324.35,-3.78,-2.60,-3.78,-2.60,2.62,1.87,1.86,-1.16,-1.16,-1.18
327.59,-3.71,-2.53,-3.71,-2.53,2.55,1.83,1.81,-1.16,-1.16,-1.18
330.87,-3.65,-2.47,-3.65,-2.47,2.48,1.79,1.77,-1.17,-1.17,-1.18
334.18,-3.60,-2.42,-3.60,-2.42,2.42,1.75,1.73,-1.18,-1.18,-1.18
337.52,-3.55,-2.37,-3.55,-2.37,2.37,1.71,1.68,-1.18,-1.18,-1.18
340.90,-3.51,-2.33,-3.51,-2.33,2.32,1.67,1.64,-1.19,-1.19,-1.18
344.30,-3.47,-2.29,-3.47,-2.29,2.28,1.63,1.60,-1.19,-1.19,-1.18
347.75,-3.43,-2.25,-3.43,-2.24,2.24,1.59,1.57,-1.19,-1.18,-1.18
351.23,-3.38,-2.20,-3.38,-2.20,2.20,1.55,1.53,-1.18,-1.19,-1.18
354.74,-3.34,-2.16,-3.34,-2.16,2.16,1.51,1.49,-1.18,-1.18,-1.18
358.28,-3.31,-2.13,-3.30,-2.12,2.12,1.47,1.46,-1.19,-1.19,-1.18
361.87,-3.26,-2.08,-3.26,-2.08,2.08,1.43,1.43,-1.18,-1.19,-1.18
365.49,-3.23,-2.05,-3.22,-2.04,2.04,1.40,1.39,-1.19,-1.18,-1.18
369.14,-3.17,-1.99,-3.18,-2.00,2.01,1.36,1.36,-1.16,-1.17,-1.18
372.83,-3.14,-1.96,-3.15,-1.97,1.98,1.32,1.33,-1.16,-1.17,-1.18
376.56,-3.13,-1.95,-3.13,-1.95,1.95,1.28,1.31,-1.18,-1.17,-1.18
380.33,-3.13,-1.95,-3.12,-1.93,1.93,1.25,1.28,-1.20,-1.19,-1.18
384.13,-3.08,-1.90,-3.09,-1.91,1.90,1.21,1.25,-1.18,-1.19,-1.18
387.97,-3.08,-1.90,-3.07,-1.89,1.88,1.17,1.23,-1.20,-1.19,-1.18
391.85,-3.03,-1.85,-3.04,-1.86,1.86,1.14,1.20,-1.17,-1.18,-1.18
395.77,-3.02,-1.84,-3.02,-1.84,1.84,1.10,1.18,-1.18,-1.18,-1.18
399.73,-2.99,-1.81,-2.99,-1.81,1.81,1.07,1.16,-1.18,-1.18,-1.18
403.72,-2.96,-1.78,-2.96,-1.78,1.78,1.04,1.14,-1.18,-1.18,-1.18
407.76,-2.93,-1.75,-2.93,-1.75,1.75,1.00,1.12,-1.18,-1.18,-1.18
411.84,-2.89,-1.71,-2.89,-1.71,1.71,0.97,1.10,-1.18,-1.19,-1.18
415.96,-2.85,-1.67,-2.85,-1.67,1.66,0.94,1.08,-1.19,-1.19,-1.18
420.12,-2.81,-1.63,-2.80,-1.62,1.62,0.91,1.06,-1.19,-1.19,-1.18
424.32,-2.74,-1.56,-2.75,-1.56,1.56,0.88,1.04,-1.18,-1.18,-1.18
428.56,-2.68,-1.50,-2.68,-1.50,1.50,0.85,1.02,-1.18,-1.18,-1.18
432.85,-2.62,-1.44,-2.61,-1.43,1.44,0.82,1.01,-1.18,-1.18,-1.18
437.18,-2.55,-1.37,-2.55,-1.37,1.37,0.79,0.99,-1.18,-1.18,-1.18
441.55,-2.47,-1.29,-2.48,-1.30,1.30,0.76,0.97,-1.17,-1.18,-1.18
445.96,-2.41,-1.23,-2.40,-1.22,1.22,0.74,0.95,-1.19,-1.18,-1.18
450.42,-2.34,-1.16,-2.33,-1.15,1.15,0.71,0.94,-1.19,-1.18,-1.18
