frequency,raw,error,smoothed,error_smoothed,equalization,parametric_eq,fixed_band_eq,equalized_raw,equalized_smoothed,target
20.00,-11.40,-16.30,-11.40,-16.30,6.00,5.17,2.73,-5.40,-5.40,4.89
20.20,-11.28,-16.22,-11.28,-16.22,6.00,5.21,2.80,-5.28,-5.28,4.93
20.40,-11.16,-16.14,-11.16,-16.13,6.00,5.25,2.88,-5.16,-5.16,4.97
20.61,-11.05,-16.04,-11.05,-16.05,6.00,5.29,2.96,-5.05,-5.05,4.99
20.81,-10.93,-15.97,-10.93,-15.97,6.00,5.33,3.05,-4.93,-4.93,5.03
21.02,-10.81,-15.89,-10.81,-15.88,6.00,5.36,3.14,-4.81,-4.81,5.07
21.23,-10.69,-15.79,-10.69,-15.79,6.00,5.40,3.22,-4.69,-4.69,5.09
21.44,-10.57,-15.68,-10.58,-15.69,6.00,5.44,3.32,-4.57,-4.58,5.11
21.66,-10.46,-15.60,-10.46,-15.59,6.00,5.48,3.41,-4.46,-4.46,5.13
21.87,-10.34,-15.48,-10.34,-15.49,6.00,5.51,3.51,-4.34,-4.34,5.14
22.09,-10.23,-15.39,-10.23,-15.39,6.00,5.55,3.61,-4.23,-4.23,5.16
22.31,-10.11,-15.28,-10.11,-15.28,6.00,5.58,3.71,-4.11,-4.11,5.17
22.54,-9.99,-15.17,-9.99,-15.16,6.00,5.62,3.81,-3.99,-3.99,5.17
22.76,-9.86,-15.04,-9.87,-15.05,6.00,5.65,3.92,-3.86,-3.87,5.18
22.99,-9.75,-14.93,-9.76,-14.94,6.00,5.69,4.03,-3.75,-3.76,5.18
23.22,-9.65,-14.84,-9.65,-14.84,6.00,5.72,4.14,-3.65,-3.65,5.19
23.45,-9.54,-14.74,-9.54,-14.74,6.00,5.75,4.25,-3.54,-3.54,5.20
23.69,-9.43,-14.64,-9.43,-14.65,6.00,5.78,4.37,-3.43,-3.43,5.21
23.92,-9.31,-14.54,-9.32,-14.55,6.00,5.81,4.49,-3.31,-3.32,5.23
24.16,-9.20,-14.45,-9.20,-14.44,6.00,5.84,4.61,-3.20,-3.20,5.25
24.40,-9.08,-14.34,-9.09,-14.34,6.00,5.87,4.73,-3.08,-3.09,5.26
24.65,-8.97,-14.23,-8.97,-14.24,6.00,5.89,4.86,-2.97,-2.97,5.26
24.89,-8.86,-14.14,-8.86,-14.13,6.00,5.92,4.98,-2.86,-2.86,5.28
25.14,-8.74,-14.03,-8.74,-14.03,6.00,5.95,5.11,-2.74,-2.74,5.29
25.39,-8.63,-13.93,-8.63,-13.93,6.00,5.97,5.24,-2.63,-2.63,5.30
25.65,-8.52,-13.83,-8.52,-13.83,6.00,5.99,5.37,-2.52,-2.52,5.31
25.91,-8.42,-13.73,-8.41,-13.73,6.00,6.02,5.49,-2.42,-2.41,5.32
26.16,-8.29,-13.62,-8.30,-13.62,6.00,6.04,5.62,-2.29,-2.30,5.33
26.43,-8.18,-13.52,-8.18,-13.52,6.00,6.06,5.75,-2.18,-2.18,5.33
26.69,-8.06,-13.42,-8.06,-13.41,6.00,6.08,5.88,-2.06,-2.06,5.35
26.96,-7.94,-13.31,-7.95,-13.32,6.00,6.10,6.00,-1.94,-1.95,5.36
27.23,-7.84,-13.22,-7.84,-13.21,6.00,6.11,6.13,-1.84,-1.84,5.37
27.50,-7.73,-13.13,-7.73,-13.12,6.00,6.13,6.25,-1.73,-1.73,5.39
27.77,-7.62,-13.01,-7.63,-13.02,6.00,6.14,6.36,-1.62,-1.63,5.39
28.05,-7.53,-12.94,-7.52,-12.93,6.00,6.16,6.47,-1.53,-1.52,5.41
28.33,-7.42,-12.83,-7.43,-12.84,6.00,6.17,6.58,-1.42,-1.43,5.41
28.62,-7.32,-12.75,-7.33,-12.75,6.00,6.18,6.68,-1.32,-1.33,5.43
28.90,-7.23,-12.67,-7.23,-12.66,6.00,6.19,6.78,-1.23,-1.23,5.44
29.19,-7.13,-12.58,-7.13,-12.58,6.00,6.20,6.86,-1.13,-1.13,5.45
29.48,-7.03,-12.50,-7.04,-12.50,6.00,6.21,6.94,-1.03,-1.04,5.47
29.78,-6.94,-12.42,-6.94,-12.41,6.00,6.22,7.01,-0.94,-0.94,5.47
30.08,-6.83,-12.32,-6.84,-12.33,6.00,6.23,7.08,-0.83,-0.84,5.48
30.38,-6.74,-12.24,-6.75,-12.24,6.00,6.23,7.13,-0.74,-0.75,5.49
30.68,-6.65,-12.15,-6.65,-12.15,6.00,6.24,7.17,-0.65,-0.65,5.50
30.99,-6.54,-12.05,-6.55,-12.06,6.00,6.24,7.20,-0.54,-0.55,5.51
31.30,-6.44,-11.96,-6.44,-11.97,6.00,6.25,7.23,-0.44,-0.44,5.52
31.61,-6.34,-11.88,-6.34,-11.87,6.00,6.25,7.24,-0.34,-0.34,5.54
31.93,-6.22,-11.76,-6.23,-11.77,6.00,6.25,7.24,-0.22,-0.23,5.54
32.24,-6.12,-11.67,-6.12,-11.67,6.00,6.26,7.23,-0.12,-0.12,5.55
32.57,-6.01,-11.57,-6.01,-11.56,6.00,6.26,7.21,-0.01,-0.01,5.55
32.89,-5.89,-11.46,-5.89,-11.46,6.00,6.26,7.19,0.11,0.11,5.57
33.22,-5.77,-11.34,-5.78,-11.35,6.00,6.26,7.15,0.23,0.22,5.57
33.55,-5.66,-11.25,-5.66,-11.24,6.00,6.27,7.11,0.34,0.34,5.59
33.89,-5.54,-11.13,-5.54,-11.14,6.00,6.27,7.06,0.46,0.46,5.59
34.23,-5.42,-11.03,-5.43,-11.03,6.00,6.27,7.01,0.58,0.57,5.61
34.57,-5.31,-10.92,-5.31,-10.92,6.00,6.27,6.94,0.69,0.69,5.60
34.92,-5.19,-10.81,-5.19,-10.81,6.00,6.28,6.88,0.81,0.81,5.61
35.27,-5.07,-10.69,-5.08,-10.69,6.00,6.28,6.81,0.93,0.92,5.62
35.62,-4.96,-10.58,-4.96,-10.58,6.00,6.28,6.73,1.04,1.04,5.62
35.97,-4.84,-10.46,-4.85,-10.47,6.00,6.28,6.65,1.16,1.15,5.62
36.33,-4.73,-10.37,-4.73,-10.36,6.00,6.28,6.58,1.27,1.27,5.63
36.70,-4.62,-10.26,-4.62,-10.24,6.00,6.28,6.50,1.38,1.38,5.63
37.06,-4.50,-10.12,-4.50,-10.13,6.00,6.28,6.42,1.50,1.50,5.62
37.43,-4.38,-10.01,-4.39,-10.01,6.00,6.28,6.33,1.62,1.61,5.63
37.81,-4.28,-9.91,-4.27,-9.90,6.00,6.28,6.25,1.72,1.73,5.62
38.19,-4.16,-9.79,-4.17,-9.79,6.00,6.28,6.17,1.84,1.83,5.62
38.57,-4.05,-9.68,-4.06,-9.68,6.00,6.27,6.10,1.95,1.94,5.63
38.95,-3.96,-9.58,-3.95,-9.57,6.00,6.27,6.02,2.04,2.05,5.62
39.34,-3.85,-9.47,-3.85,-9.47,6.00,6.27,5.95,2.15,2.15,5.61
39.74,-3.75,-9.35,-3.76,-9.36,6.00,6.26,5.87,2.25,2.24,5.60
40.14,-3.66,-9.27,-3.66,-9.26,6.00,6.25,5.81,2.34,2.34,5.61
40.54,-3.56,-9.16,-3.56,-9.16,6.00,6.25,5.74,2.44,2.44,5.59
40.94,-3.46,-9.06,-3.47,-9.06,6.00,6.24,5.68,2.54,2.53,5.60
41.35,-3.37,-8.97,-3.37,-8.96,6.00,6.23,5.62,2.63,2.63,5.60
41.76,-3.26,-8.85,-3.27,-8.86,6.00,6.22,5.56,2.74,2.73,5.59
42.18,-3.17,-8.77,-3.17,-8.77,6.00,6.21,5.51,2.83,2.83,5.60
42.60,-3.07,-8.67,-3.07,-8.67,6.00,6.21,5.46,2.93,2.93,5.59
43.03,-2.97,-8.57,-2.97,-8.57,6.00,6.20,5.42,3.03,3.03,5.60
43.46,-2.87,-8.47,-2.87,-8.47,6.00,6.19,5.37,3.13,3.13,5.60
43.90,-2.77,-8.37,-2.77,-8.36,6.00,6.18,5.34,3.23,3.23,5.59
44.33,-2.66,-8.25,-2.67,-8.26,6.00,6.17,5.30,3.34,3.33,5.59
44.78,-2.56,-8.15,-2.56,-8.15,6.00,6.16,5.27,3.44,3.44,5.58
45.23,-2.46,-8.05,-2.45,-8.03,6.00,6.15,5.25,3.54,3.55,5.59
45.68,-2.33,-7.92,-2.34,-7.92,6.00,6.15,5.23,3.67,3.66,5.58
46.13,-2.21,-7.80,-2.22,-7.81,6.00,6.14,5.21,3.79,3.78,5.59
46.60,-2.10,-7.70,-2.10,-7.69,6.00,6.14,5.20,3.90,3.90,5.60
47.06,-1.99,-7.59,-1.99,-7.59,6.00,6.13,5.19,4.01,4.01,5.59
47.53,-1.88,-7.48,-1.88,-7.49,6.00,6.13,5.18,4.12,4.12,5.60
48.01,-1.77,-7.39,-1.78,-7.38,6.00,6.13,5.18,4.23,4.22,5.61
48.49,-1.67,-7.28,-1.67,-7.28,6.00,6.13,5.18,4.33,4.33,5.61
48.97,-1.57,-7.16,-1.57,-7.16,6.00,6.14,5.18,4.43,4.43,5.59
49.46,-1.47,-7.05,-1.47,-7.05,6.00,6.14,5.18,4.53,4.53,5.58
49.96,-1.36,-6.93,-1.36,-6.94,6.00,6.15,5.19,4.64,4.64,5.56
50.46,-1.26,-6.84,-1.26,-6.83,6.00,6.16,5.20,4.74,4.74,5.58
50.96,-1.16,-6.73,-1.17,-6.73,6.00,6.16,5.22,4.84,4.83,5.57
51.47,-1.08,-6.63,-1.08,-6.64,6.00,6.17,5.23,4.92,4.92,5.55
51.99,-1.00,-6.56,-1.00,-6.56,6.00,6.18,5.25,5.00,5.00,5.55
52.51,-0.93,-6.49,-0.93,-6.48,6.00,6.19,5.27,5.07,5.07,5.55
53.03,-0.85,-6.40,-0.85,-6.40,6.01,6.19,5.29,5.16,5.15,5.54
53.56,-0.78,-6.32,-0.78,-6.31,6.01,6.19,5.31,5.23,5.23,5.53
54.10,-0.71,-6.23,-0.71,-6.23,6.01,6.18,5.32,5.30,5.30,5.51
54.64,-0.65,-6.16,-0.66,-6.16,6.00,6.17,5.34,5.35,5.35,5.50
55.18,-0.60,-6.10,-0.60,-6.09,5.99,6.14,5.36,5.38,5.38,5.49
55.74,-0.55,-6.03,-0.55,-6.03,5.96,6.11,5.38,5.41,5.42,5.47
56.29,-0.48,-5.96,-0.49,-5.95,5.92,6.07,5.40,5.44,5.44,5.47
56.86,-0.42,-5.87,-0.43,-5.88,5.88,6.01,5.41,5.46,5.45,5.45
57.42,-0.37,-5.80,-0.38,-5.81,5.83,5.95,5.42,5.45,5.45,5.43
58.00,-0.33,-5.75,-0.33,-5.75,5.76,5.88,5.43,5.43,5.43,5.42
58.58,-0.28,-5.69,-0.28,-5.68,5.69,5.80,5.43,5.41,5.41,5.40
59.16,-0.22,-5.61,-0.22,-5.61,5.62,5.71,5.43,5.39,5.39,5.39
59.76,-0.16,-5.54,-0.17,-5.54,5.54,5.62,5.43,5.37,5.37,5.38
60.35,-0.11,-5.47,-0.11,-5.47,5.46,5.52,5.42,5.34,5.34,5.35
60.96,-0.06,-5.39,-0.06,-5.38,5.38,5.43,5.41,5.31,5.32,5.33
61.57,0.01,-5.29,0.01,-5.29,5.29,5.34,5.39,5.30,5.30,5.29
62.18,0.08,-5.19,0.07,-5.20,5.21,5.24,5.37,5.28,5.28,5.27
62.80,0.14,-5.10,0.14,-5.10,5.12,5.15,5.34,5.25,5.25,5.24
63.43,0.20,-5.02,0.19,-5.02,5.02,5.06,5.30,5.22,5.22,5.22
64.07,0.25,-4.94,0.25,-4.94,4.93,4.97,5.27,5.18,5.18,5.19
64.71,0.32,-4.85,0.32,-4.85,4.84,4.88,5.22,5.15,5.16,5.17
65.35,0.40,-4.75,0.39,-4.75,4.74,4.80,5.17,5.14,5.14,5.14
66.01,0.48,-4.65,0.48,-4.65,4.65,4.72,5.12,5.13,5.13,5.12
66.67,0.55,-4.55,0.55,-4.55,4.56,4.64,5.06,5.11,5.11,5.10
67.33,0.62,-4.45,0.61,-4.46,4.47,4.57,5.00,5.08,5.08,5.07
68.01,0.67,-4.38,0.67,-4.37,4.37,4.49,4.93,5.04,5.04,5.05
68.69,0.73,-4.29,0.73,-4.29,4.28,4.42,4.86,5.01,5.01,5.01
69.37,0.80,-4.20,0.80,-4.20,4.19,4.36,4.79,4.99,4.99,4.99
70.07,0.87,-4.11,0.87,-4.10,4.10,4.29,4.71,4.97,4.97,4.97
70.77,0.94,-4.01,0.93,-4.02,4.01,4.22,4.63,4.95,4.94,4.95
71.48,1.00,-3.93,1.00,-3.93,3.92,4.16,4.55,4.92,4.92,4.93
72.19,1.06,-3.85,1.06,-3.84,3.84,4.10,4.47,4.90,4.90,4.90
72.91,1.12,-3.76,1.12,-3.76,3.76,4.04,4.39,4.88,4.88,4.88
73.64,1.18,-3.68,1.18,-3.68,3.69,3.98,4.30,4.87,4.87,4.85
74.38,1.23,-3.61,1.22,-3.62,3.63,3.92,4.22,4.86,4.85,4.84
75.12,1.26,-3.57,1.26,-3.57,3.58,3.87,4.14,4.84,4.84,4.82
75.87,1.28,-3.54,1.28,-3.53,3.53,3.81,4.05,4.81,4.82,4.82
76.63,1.31,-3.49,1.30,-3.50,3.49,3.76,3.97,4.80,4.80,4.80
77.40,1.33,-3.46,1.33,-3.46,3.46,3.70,3.89,4.78,4.78,4.79
78.17,1.35,-3.43,1.35,-3.43,3.42,3.65,3.81,4.77,4.77,4.77
78.95,1.37,-3.41,1.37,-3.40,3.39,3.60,3.73,4.76,4.76,4.77
79.74,1.40,-3.37,1.40,-3.37,3.36,3.55,3.65,4.76,4.76,4.76
80.54,1.43,-3.33,1.43,-3.33,3.33,3.50,3.57,4.75,4.75,4.75
81.35,1.46,-3.29,1.46,-3.29,3.29,3.45,3.49,4.75,4.75,4.74
82.16,1.49,-3.25,1.48,-3.25,3.25,3.40,3.42,4.74,4.74,4.73
82.98,1.51,-3.22,1.51,-3.22,3.22,3.35,3.35,4.72,4.72,4.73
83.81,1.53,-3.18,1.53,-3.18,3.18,3.31,3.28,4.71,4.71,4.71
84.65,1.56,-3.15,1.56,-3.15,3.15,3.26,3.21,4.71,4.70,4.70
85.50,1.59,-3.11,1.58,-3.11,3.12,3.21,3.14,4.70,4.70,4.70
86.35,1.61,-3.08,1.61,-3.08,3.08,3.17,3.08,4.69,4.69,4.69
87.22,1.64,-3.05,1.63,-3.05,3.05,3.12,3.02,4.69,4.68,4.68
88.09,1.65,-3.02,1.65,-3.02,3.02,3.08,2.96,4.67,4.67,4.67
88.97,1.67,-3.01,1.67,-2.99,2.99,3.03,2.90,4.66,4.66,4.67
89.86,1.70,-2.96,1.69,-2.96,2.96,2.99,2.84,4.66,4.65,4.66
90.76,1.72,-2.92,1.72,-2.93,2.93,2.95,2.79,4.65,4.65,4.64
91.66,1.75,-2.90,1.74,-2.89,2.90,2.91,2.74,4.65,4.65,4.64
92.58,1.77,-2.86,1.77,-2.87,2.87,2.87,2.69,4.64,4.64,4.63
93.51,1.79,-2.84,1.79,-2.84,2.84,2.82,2.64,4.63,4.63,4.63
94.44,1.81,-2.82,1.81,-2.81,2.81,2.78,2.60,4.61,4.61,4.62
95.39,1.83,-2.79,1.83,-2.78,2.77,2.74,2.56,4.60,4.60,4.61
96.34,1.86,-2.73,1.86,-2.74,2.73,2.70,2.52,4.59,4.59,4.59
97.30,1.89,-2.69,1.89,-2.69,2.69,2.67,2.48,4.58,4.58,4.58
98.28,1.92,-2.65,1.92,-2.65,2.65,2.63,2.44,4.57,4.57,4.57
99.26,1.95,-2.60,1.95,-2.61,2.61,2.59,2.40,4.55,4.55,4.55
100.25,1.98,-2.56,1.98,-2.56,2.56,2.55,2.37,4.54,4.54,4.54
101.25,2.01,-2.52,2.01,-2.52,2.52,2.52,2.34,4.52,4.52,4.52
102.27,2.03,-2.48,2.03,-2.47,2.48,2.48,2.31,4.51,4.51,4.50
103.29,2.05,-2.43,2.05,-2.43,2.44,2.44,2.28,4.49,4.49,4.47
104.32,2.06,-2.41,2.06,-2.40,2.41,2.41,2.25,4.47,4.47,4.46
105.37,2.07,-2.37,2.07,-2.37,2.38,2.37,2.22,4.45,4.44,4.43
106.42,2.07,-2.35,2.06,-2.35,2.35,2.34,2.20,4.42,4.41,4.42
107.48,2.06,-2.33,2.06,-2.33,2.32,2.30,2.17,4.38,4.38,4.39
108.56,2.05,-2.30,2.05,-2.30,2.29,2.27,2.15,4.34,4.34,4.35
109.64,2.05,-2.27,2.05,-2.27,2.26,2.24,2.13,4.31,4.31,4.32
110.74,2.05,-2.23,2.05,-2.24,2.23,2.20,2.11,4.28,4.28,4.28
111.85,2.05,-2.20,2.05,-2.20,2.20,2.17,2.08,4.24,4.24,4.25
112.97,2.05,-2.15,2.05,-2.16,2.16,2.14,2.06,4.20,4.20,4.20
114.10,2.05,-2.12,2.05,-2.12,2.12,2.11,2.04,4.16,4.16,4.16
115.24,2.05,-2.08,2.05,-2.07,2.08,2.08,2.02,4.12,4.12,4.12
116.39,2.05,-2.03,2.05,-2.03,2.03,2.05,2.01,4.08,4.08,4.08
117.55,2.05,-1.99,2.05,-1.99,1.99,2.02,1.99,4.04,4.03,4.04
118.73,2.05,-1.94,2.05,-1.95,1.94,1.99,1.97,3.99,3.99,3.99
119.92,2.05,-1.91,2.05,-1.90,1.90,1.96,1.95,3.95,3.95,3.95
121.12,2.06,-1.86,2.05,-1.86,1.86,1.93,1.93,3.92,3.92,3.92
122.33,2.06,-1.82,2.06,-1.82,1.82,1.91,1.91,3.88,3.88,3.88
123.55,2.07,-1.79,2.07,-1.79,1.79,1.88,1.89,3.86,3.85,3.86
124.79,2.07,-1.75,2.06,-1.76,1.76,1.85,1.87,3.82,3.82,3.82
126.03,2.06,-1.73,2.06,-1.73,1.73,1.83,1.85,3.79,3.79,3.78
127.29,2.04,-1.71,2.04,-1.71,1.71,1.80,1.83,3.75,3.75,3.75
128.57,2.02,-1.69,2.02,-1.69,1.70,1.78,1.81,3.72,3.72,3.71
129.85,2.00,-1.69,1.99,-1.69,1.69,1.75,1.79,3.69,3.68,3.68
131.15,1.97,-1.68,1.97,-1.68,1.69,1.73,1.77,3.65,3.65,3.65
132.46,1.94,-1.69,1.94,-1.69,1.69,1.70,1.75,3.62,3.63,3.63
133.79,1.91,-1.70,1.91,-1.69,1.69,1.68,1.73,3.60,3.60,3.61
135.12,1.88,-1.70,1.88,-1.70,1.70,1.66,1.71,3.57,3.57,3.57
136.48,1.85,-1.71,1.85,-1.71,1.70,1.64,1.69,3.55,3.55,3.55
137.84,1.82,-1.72,1.82,-1.71,1.71,1.62,1.67,3.53,3.53,3.53
139.22,1.79,-1.71,1.79,-1.71,1.72,1.60,1.64,3.50,3.51,3.49
140.61,1.77,-1.71,1.76,-1.72,1.72,1.57,1.62,3.49,3.48,3.47
142.02,1.74,-1.73,1.74,-1.72,1.72,1.56,1.60,3.45,3.46,3.47
143.44,1.72,-1.72,1.72,-1.72,1.71,1.54,1.58,3.43,3.43,3.44
144.87,1.71,-1.70,1.70,-1.71,1.69,1.52,1.56,3.40,3.40,3.41
146.32,1.70,-1.69,1.70,-1.69,1.67,1.50,1.54,3.37,3.37,3.38
147.78,1.71,-1.66,1.71,-1.66,1.64,1.48,1.52,3.35,3.35,3.37
149.26,1.72,-1.62,1.72,-1.62,1.62,1.46,1.50,3.33,3.33,3.34
150.75,1.74,-1.57,1.73,-1.58,1.59,1.45,1.48,3.32,3.32,3.31
152.26,1.74,-1.54,1.74,-1.54,1.56,1.43,1.47,3.29,3.29,3.27
153.78,1.74,-1.51,1.73,-1.51,1.53,1.42,1.45,3.27,3.26,3.25
155.32,1.72,-1.50,1.72,-1.50,1.51,1.40,1.43,3.22,3.22,3.21
156.88,1.70,-1.50,1.70,-1.49,1.49,1.39,1.42,3.19,3.19,3.19
158.44,1.68,-1.48,1.67,-1.48,1.48,1.37,1.40,3.15,3.15,3.16
160.03,1.65,-1.47,1.65,-1.47,1.47,1.36,1.39,3.12,3.12,3.12
161.63,1.63,-1.46,1.62,-1.46,1.47,1.35,1.37,3.09,3.09,3.09
163.24,1.60,-1.45,1.59,-1.46,1.46,1.33,1.36,3.06,3.06,3.05
164.88,1.56,-1.47,1.56,-1.46,1.46,1.32,1.35,3.02,3.02,3.03
166.53,1.53,-1.46,1.53,-1.46,1.45,1.31,1.34,2.98,2.98,2.99
168.19,1.51,-1.45,1.51,-1.45,1.44,1.30,1.33,2.95,2.95,2.96
169.87,1.49,-1.43,1.49,-1.44,1.43,1.29,1.32,2.92,2.92,2.92
171.57,1.47,-1.42,1.46,-1.42,1.42,1.28,1.31,2.89,2.88,2.88
173.29,1.44,-1.40,1.44,-1.40,1.41,1.27,1.30,2.84,2.85,2.84
175.02,1.42,-1.38,1.41,-1.38,1.39,1.26,1.29,2.80,2.80,2.80
176.77,1.39,-1.37,1.39,-1.37,1.37,1.26,1.29,2.75,2.75,2.75
178.54,1.36,-1.34,1.36,-1.35,1.34,1.25,1.28,2.70,2.70,2.70
180.32,1.33,-1.33,1.33,-1.32,1.32,1.24,1.28,2.64,2.65,2.65
182.13,1.31,-1.30,1.31,-1.30,1.29,1.23,1.27,2.60,2.60,2.61
183.95,1.29,-1.27,1.29,-1.27,1.27,1.23,1.27,2.55,2.55,2.55
185.79,1.27,-1.24,1.27,-1.24,1.24,1.22,1.27,2.51,2.51,2.51
187.65,1.25,-1.21,1.25,-1.21,1.22,1.22,1.27,2.47,2.47,2.46
189.52,1.23,-1.19,1.22,-1.19,1.20,1.21,1.27,2.43,2.42,2.41
191.42,1.20,-1.18,1.20,-1.17,1.18,1.21,1.27,2.38,2.38,2.37
193.33,1.17,-1.16,1.17,-1.17,1.17,1.21,1.27,2.33,2.33,2.33
195.27,1.13,-1.16,1.13,-1.16,1.16,1.21,1.27,2.28,2.28,2.29
197.22,1.09,-1.15,1.09,-1.15,1.15,1.20,1.28,2.24,2.24,2.24
199.19,1.05,-1.14,1.05,-1.14,1.14,1.20,1.28,2.19,2.19,2.19
201.18,1.02,-1.13,1.01,-1.13,1.14,1.20,1.28,2.15,2.15,2.15
203.19,0.98,-1.14,0.98,-1.13,1.13,1.20,1.29,2.11,2.11,2.12
205.23,0.95,-1.13,0.95,-1.13,1.12,1.20,1.29,2.07,2.07,2.08
207.28,0.92,-1.13,0.92,-1.12,1.11,1.20,1.30,2.03,2.03,2.05
209.35,0.90,-1.10,0.90,-1.10,1.10,1.20,1.31,1.99,1.99,2.00
211.44,0.88,-1.07,0.87,-1.08,1.08,1.21,1.31,1.96,1.96,1.95
213.56,0.85,-1.07,0.85,-1.07,1.07,1.21,1.32,1.92,1.92,1.92
215.69,0.83,-1.06,0.83,-1.06,1.06,1.21,1.33,1.88,1.89,1.89
217.85,0.82,-1.04,0.81,-1.04,1.04,1.22,1.33,1.86,1.85,1.85
220.03,0.79,-1.03,0.79,-1.03,1.03,1.22,1.34,1.82,1.83,1.82
222.23,0.77,-1.02,0.77,-1.02,1.03,1.23,1.35,1.80,1.80,1.79
224.45,0.75,-1.02,0.74,-1.03,1.03,1.23,1.36,1.77,1.77,1.77
226.70,0.72,-1.04,0.72,-1.03,1.03,1.24,1.37,1.74,1.75,1.75
228.96,0.70,-1.03,0.70,-1.03,1.03,1.24,1.37,1.73,1.73,1.73
231.25,0.68,-1.04,0.68,-1.04,1.04,1.25,1.38,1.72,1.72,1.72
233.57,0.66,-1.05,0.65,-1.05,1.05,1.26,1.39,1.71,1.71,1.70
235.90,0.63,-1.07,0.63,-1.06,1.07,1.27,1.40,1.70,1.70,1.70
238.26,0.61,-1.08,0.60,-1.09,1.09,1.28,1.40,1.70,1.70,1.68
240.64,0.58,-1.11,0.57,-1.11,1.12,1.29,1.41,1.69,1.69,1.69
243.05,0.54,-1.16,0.54,-1.15,1.15,1.30,1.41,1.68,1.69,1.69
245.48,0.51,-1.18,0.51,-1.18,1.18,1.31,1.42,1.69,1.69,1.69
247.93,0.49,-1.21,0.48,-1.21,1.21,1.32,1.42,1.70,1.69,1.69
250.41,0.46,-1.23,0.46,-1.24,1.24,1.33,1.43,1.70,1.70,1.69
252.92,0.44,-1.28,0.43,-1.27,1.27,1.34,1.43,1.70,1.70,1.71
255.45,0.42,-1.31,0.42,-1.30,1.29,1.35,1.44,1.71,1.71,1.73
258.00,0.41,-1.33,0.41,-1.32,1.31,1.37,1.44,1.71,1.72,1.73
260.58,0.42,-1.32,0.41,-1.33,1.32,1.38,1.44,1.74,1.74,1.74
263.19,0.42,-1.34,0.42,-1.33,1.34,1.40,1.44,1.75,1.76,1.76
265.82,0.43,-1.34,0.43,-1.34,1.35,1.41,1.45,1.78,1.78,1.76
268.48,0.43,-1.36,0.43,-1.36,1.37,1.43,1.45,1.79,1.80,1.79
271.16,0.43,-1.38,0.42,-1.38,1.39,1.44,1.45,1.81,1.81,1.81
273.87,0.41,-1.40,0.41,-1.41,1.41,1.46,1.45,1.82,1.82,1.81
276.61,0.39,-1.44,0.39,-1.44,1.44,1.48,1.45,1.83,1.83,1.83
279.38,0.37,-1.47,0.36,-1.47,1.48,1.50,1.45,1.84,1.84,1.84
282.17,0.34,-1.52,0.34,-1.51,1.52,1.51,1.46,1.85,1.85,1.85
284.99,0.31,-1.56,0.31,-1.56,1.56,1.53,1.46,1.87,1.87,1.87
287.84,0.28,-1.60,0.28,-1.60,1.60,1.55,1.46,1.88,1.88,1.88
290.72,0.25,-1.65,0.24,-1.65,1.65,1.57,1.46,1.89,1.89,1.89
293.63,0.21,-1.69,0.21,-1.69,1.69,1.60,1.47,1.90,1.90,1.90
296.57,0.18,-1.74,0.18,-1.74,1.73,1.62,1.47,1.91,1.91,1.92
299.53,0.16,-1.77,0.15,-1.77,1.77,1.64,1.47,1.93,1.93,1.93
302.53,0.13,-1.81,0.13,-1.81,1.81,1.66,1.48,1.94,1.94,1.93
305.55,0.11,-1.85,0.11,-1.84,1.84,1.68,1.48,1.95,1.95,1.95
308.61,0.09,-1.87,0.09,-1.87,1.87,1.71,1.49,1.96,1.96,1.96
311.69,0.08,-1.90,0.08,-1.90,1.89,1.73,1.50,1.97,1.97,1.98
314.81,0.08,-1.92,0.08,-1.92,1.91,1.76,1.50,1.98,1.98,2.00
317.96,0.08,-1.93,0.08,-1.93,1.92,1.78,1.51,1.99,2.00,2.00
321.14,0.09,-1.93,0.09,-1.93,1.92,1.81,1.52,2.01,2.01,2.01
324.35,0.10,-1.92,0.10,-1.92,1.92,1.83,1.54,2.02,2.02,2.02
327.59,0.11,-1.92,0.11,-1.92,1.93,1.86,1.55,2.03,2.03,2.03
330.87,0.12,-1.92,0.12,-1.92,1.93,1.89,1.56,2.04,2.04,2.04
334.18,0.12,-1.93,0.12,-1.92,1.93,1.91,1.58,2.05,2.05,2.05
337.52,0.12,-1.93,0.12,-1.93,1.94,1.94,1.59,2.06,2.06,2.04
340.90,0.11,-1.96,0.11,-1.95,1.96,1.97,1.61,2.06,2.06,2.06
344.30,0.09,-1.97,0.09,-1.98,1.98,2.00,1.63,2.06,2.06,2.06
347.75,0.07,-2.00,0.07,-2.00,2.00,2.02,1.65,2.07,2.07,2.07
351.23,0.04,-2.03,0.04,-2.03,2.03,2.05,1.67,2.07,2.07,2.07
354.74,0.02,-2.05,0.01,-2.06,2.06,2.08,1.69,2.08,2.07,2.07
358.28,-0.01,-2.09,-0.02,-2.09,2.09,2.11,1.71,2.08,2.07,2.08
361.87,-0.05,-2.13,-0.05,-2.12,2.12,2.13,1.74,2.07,2.07,2.08
365.49,-0.08,-2.16,-0.08,-2.15,2.15,2.16,1.76,2.07,2.07,2.07
369.14,-0.11,-2.18,-0.11,-2.18,2.18,2.18,1.79,2.07,2.07,2.06
372.83,-0.14,-2.21,-0.14,-2.21,2.21,2.21,1.82,2.07,2.07,2.06
376.56,-0.17,-2.23,-0.17,-2.23,2.24,2.24,1.85,2.06,2.07,2.06
380.33,-0.19,-2.26,-0.19,-2.26,2.26,2.26,1.88,2.06,2.06,2.07
384.13,-0.21,-2.27,-0.21,-2.28,2.27,2.28,1.91,2.06,2.06,2.06
387.97,-0.23,-2.29,-0.23,-2.29,2.28,2.31,1.94,2.05,2.05,2.06
391.85,-0.24,-2.29,-0.25,-2.30,2.29,2.33,1.98,2.05,2.04,2.05
395.77,-0.25,-2.31,-0.25,-2.30,2.29,2.35,2.01,2.04,2.04,2.06
399.73,-0.25,-2.30,-0.25,-2.29,2.29,2.37,2.05,2.03,2.04,2.05
403.72,-0.23,-2.28,-0.23,-2.28,2.28,2.39,2.08,2.05,2.05,2.05
407.76,-0.21,-2.26,-0.22,-2.26,2.27,2.41,2.12,2.06,2.06,2.04
411.84,-0.20,-2.26,-0.20,-2.26,2.27,2.42,2.16,2.06,2.06,2.05
415.96,-0.20,-2.26,-0.20,-2.26,2.26,2.44,2.19,2.06,2.06,2.05
420.12,-0.21,-2.27,-0.21,-2.26,2.27,2.45,2.23,2.05,2.06,2.05
424.32,-0.22,-2.28,-0.22,-2.27,2.28,2.47,2.27,2.05,2.05,2.05
428.56,-0.24,-2.28,-0.24,-2.29,2.29,2.48,2.31,2.05,2.05,2.04
432.85,-0.26,-2.30,-0.26,-2.31,2.31,2.49,2.34,2.05,2.05,2.04
437.18,-0.29,-2.33,-0.29,-2.34,2.34,2.50,2.38,2.04,2.04,2.04
441.55,-0.32,-2.37,-0.32,-2.37,2.37,2.51,2.41,2.04,2.04,2.05
445.96,-0.35,-2.40,-0.35,-2.40,2.40,2.51,2.45,2.04,2.04,2.05
450.42,-0.38,-2.42,-0.38,-2.43,2.43,2.52,2.48,2.04,2.04,2.04
454.93,-0.41,-2.46,-0.41,-2.46,2.46,2.53,2.51,2.05,2.05,2.05
459.48,-0.44,-2.49,-0.44,-2.49,2.49,2.53,2.54,2.05,2.05,2.05
464.07,-0.47,-2.52,-0.47,-2.52,2.52,2.53,2.57,2.05,2.05,2.05
468.71,-0.50,-2.56,-0.50,-2.55,2.55,2.54,2.60,2.05,2.05,2.06
473.40,-0.52,-2.57,-0.52,-2.58,2.58,2.54,2.62,2.05,2.05,2.05
478.13,-0.54,-2.60,-0.55,-2.60,2.60,2.54,2.64,2.05,2.05,2.06
482.91,-0.56,-2.62,-0.56,-2.62,2.61,2.55,2.66,2.05,2.05,2.06
487.74,-0.57,-2.63,-0.57,-2.63,2.62,2.55,2.68,2.05,2.05,2.06
492.62,-0.57,-2.64,-0.58,-2.64,2.63,2.55,2.69,2.05,2.05,2.07
497.55,-0.57,-2.63,-0.57,-2.63,2.63,2.55,2.70,2.06,2.06,2.06
502.52,-0.56,-2.63,-0.56,-2.62,2.63,2.55,2.71,2.06,2.06,2.07
507.55,-0.55,-2.61,-0.56,-2.61,2.62,2.55,2.71,2.07,2.07,2.05
512.62,-0.55,-2.61,-0.55,-2.61,2.62,2.55,2.71,2.07,2.07,2.05
517.75,-0.55,-2.62,-0.55,-2.61,2.61,2.55,2.71,2.06,2.06,2.06
522.93,-0.55,-2.62,-0.55,-2.61,2.61,2.55,2.71,2.06,2.06,2.06
528.16,-0.55,-2.61,-0.55,-2.61,2.61,2.55,2.71,2.06,2.06,2.05
