frequency,raw,error,smoothed,error_smoothed,equalization,parametric_eq,fixed_band_eq,equalized_raw,equalized_smoothed,target
20.00,0.49,-1.63,0.49,-1.63,1.66,1.41,-0.23,2.15,2.15,2.12
20.20,0.52,-1.60,0.53,-1.59,1.60,1.38,-0.23,2.12,2.12,2.12
20.40,0.56,-1.56,0.58,-1.54,1.53,1.35,-0.24,2.09,2.11,2.12
20.61,0.63,-1.49,0.63,-1.49,1.47,1.31,-0.24,2.10,2.10,2.12
20.81,0.71,-1.41,0.70,-1.42,1.40,1.28,-0.25,2.11,2.10,2.12
21.02,0.77,-1.35,0.78,-1.34,1.33,1.24,-0.25,2.11,2.11,2.12
21.23,0.84,-1.28,0.85,-1.27,1.27,1.19,-0.26,2.11,2.11,2.12
21.44,0.92,-1.20,0.92,-1.20,1.20,1.15,-0.27,2.12,2.12,2.12
21.66,0.99,-1.13,1.00,-1.12,1.13,1.10,-0.27,2.12,2.12,2.12
21.87,1.07,-1.04,1.07,-1.05,1.06,1.05,-0.28,2.13,2.13,2.12
22.09,1.13,-0.99,1.14,-0.98,0.99,1.00,-0.28,2.12,2.13,2.12
22.31,1.20,-0.92,1.20,-0.92,0.92,0.95,-0.29,2.13,2.12,2.12
22.54,1.26,-0.86,1.26,-0.86,0.86,0.90,-0.30,2.12,2.12,2.12
22.76,1.31,-0.81,1.32,-0.80,0.79,0.84,-0.30,2.11,2.12,2.12
22.99,1.38,-0.74,1.38,-0.74,0.73,0.78,-0.31,2.12,2.11,2.12
23.22,1.44,-0.68,1.44,-0.68,0.67,0.73,-0.32,2.12,2.11,2.12
23.45,1.50,-0.62,1.51,-0.61,0.61,0.67,-0.32,2.12,2.12,2.12
23.69,1.56,-0.56,1.57,-0.55,0.55,0.61,-0.33,2.12,2.12,2.12
23.92,1.63,-0.49,1.63,-0.49,0.50,0.55,-0.34,2.13,2.13,2.12
24.16,1.69,-0.43,1.69,-0.43,0.44,0.49,-0.35,2.13,2.13,2.12
24.40,1.73,-0.39,1.74,-0.38,0.38,0.43,-0.36,2.12,2.12,2.12
24.65,1.78,-0.34,1.79,-0.33,0.33,0.36,-0.37,2.11,2.12,2.12
24.89,1.83,-0.28,1.84,-0.28,0.28,0.30,-0.37,2.11,2.12,2.12
25.14,1.89,-0.23,1.89,-0.23,0.23,0.24,-0.38,2.12,2.12,2.12
25.39,1.94,-0.17,1.94,-0.18,0.18,0.17,-0.39,2.12,2.12,2.12
25.65,1.99,-0.13,1.99,-0.13,0.13,0.11,-0.40,2.12,2.12,2.12
25.91,2.03,-0.09,2.04,-0.08,0.08,0.05,-0.42,2.12,2.12,2.12
26.16,2.09,-0.03,2.09,-0.03,0.03,-0.02,-0.43,2.13,2.12,2.12
26.43,2.13,0.01,2.14,0.02,-0.02,-0.08,-0.44,2.11,2.12,2.12
26.69,2.20,0.08,2.19,0.07,-0.08,-0.14,-0.45,2.13,2.12,2.12
26.96,2.24,0.12,2.25,0.13,-0.14,-0.21,-0.46,2.11,2.11,2.12
27.23,2.30,0.18,2.31,0.19,-0.20,-0.27,-0.48,2.11,2.11,2.12
27.50,2.37,0.25,2.38,0.26,-0.26,-0.34,-0.49,2.11,2.12,2.12
27.77,2.45,0.34,2.45,0.33,-0.33,-0.40,-0.51,2.13,2.12,2.12
28.05,2.53,0.41,2.52,0.40,-0.40,-0.46,-0.52,2.14,2.13,2.12
28.33,2.58,0.46,2.59,0.47,-0.47,-0.53,-0.54,2.12,2.13,2.12
28.62,2.65,0.53,2.66,0.54,-0.53,-0.59,-0.56,2.12,2.12,2.12
28.90,2.72,0.60,2.72,0.60,-0.60,-0.65,-0.57,2.12,2.12,2.12
29.19,2.79,0.67,2.79,0.67,-0.67,-0.71,-0.59,2.12,2.12,2.12
29.48,2.85,0.73,2.86,0.74,-0.74,-0.78,-0.61,2.11,2.12,2.12
29.78,2.92,0.80,2.92,0.80,-0.81,-0.84,-0.63,2.12,2.12,2.12
30.08,2.99,0.87,2.99,0.87,-0.87,-0.90,-0.66,2.12,2.12,2.12
30.38,3.06,0.94,3.06,0.94,-0.94,-0.96,-0.68,2.12,2.12,2.12
30.68,3.13,1.01,3.13,1.01,-1.01,-1.02,-0.70,2.13,2.12,2.12
30.99,3.19,1.07,3.20,1.08,-1.07,-1.09,-0.73,2.12,2.12,2.12
31.30,3.26,1.14,3.26,1.14,-1.14,-1.15,-0.76,2.12,2.12,2.12
31.61,3.32,1.20,3.33,1.21,-1.20,-1.21,-0.78,2.12,2.12,2.12
31.93,3.39,1.27,3.39,1.27,-1.27,-1.27,-0.81,2.12,2.12,2.12
32.24,3.45,1.33,3.45,1.33,-1.34,-1.33,-0.84,2.12,2.12,2.12
32.57,3.51,1.39,3.52,1.40,-1.40,-1.39,-0.87,2.11,2.12,2.12
32.89,3.58,1.46,3.59,1.47,-1.47,-1.45,-0.91,2.11,2.12,2.12
33.22,3.66,1.54,3.66,1.54,-1.54,-1.51,-0.94,2.12,2.12,2.12
33.55,3.72,1.60,3.73,1.61,-1.61,-1.57,-0.97,2.12,2.12,2.12
33.89,3.79,1.67,3.80,1.68,-1.68,-1.62,-1.01,2.11,2.12,2.12
34.23,3.87,1.75,3.87,1.75,-1.75,-1.68,-1.05,2.12,2.12,2.12
34.57,3.93,1.81,3.94,1.82,-1.82,-1.74,-1.09,2.12,2.12,2.12
34.92,4.00,1.88,4.00,1.88,-1.88,-1.80,-1.13,2.12,2.12,2.12
35.27,4.06,1.94,4.06,1.94,-1.94,-1.86,-1.17,2.12,2.12,2.12
35.62,4.12,2.00,4.12,2.00,-1.99,-1.92,-1.21,2.13,2.13,2.12
35.97,4.17,2.05,4.17,2.05,-2.05,-1.97,-1.25,2.13,2.13,2.12
36.33,4.22,2.10,4.22,2.10,-2.10,-2.03,-1.30,2.13,2.12,2.12
36.70,4.25,2.13,4.26,2.14,-2.14,-2.09,-1.34,2.11,2.12,2.12
37.06,4.31,2.19,4.30,2.18,-2.19,-2.15,-1.39,2.12,2.11,2.12
37.43,4.34,2.22,4.35,2.23,-2.24,-2.20,-1.44,2.10,2.11,2.12
37.81,4.40,2.28,4.41,2.29,-2.29,-2.26,-1.49,2.11,2.11,2.12
38.19,4.46,2.34,4.46,2.34,-2.34,-2.32,-1.54,2.12,2.12,2.12
38.57,4.52,2.40,4.52,2.40,-2.40,-2.37,-1.60,2.12,2.12,2.12
38.95,4.58,2.46,4.58,2.46,-2.46,-2.43,-1.65,2.12,2.12,2.12
39.34,4.64,2.52,4.65,2.53,-2.53,-2.49,-1.71,2.12,2.12,2.12
39.74,4.71,2.59,4.71,2.59,-2.60,-2.54,-1.77,2.12,2.11,2.12
40.14,4.77,2.65,4.78,2.66,-2.67,-2.60,-1.83,2.11,2.11,2.12
40.54,4.85,2.73,4.85,2.73,-2.74,-2.65,-1.89,2.12,2.12,2.12
40.94,4.92,2.80,4.92,2.80,-2.80,-2.71,-1.95,2.12,2.12,2.12
41.35,5.00,2.88,5.00,2.88,-2.87,-2.76,-2.01,2.13,2.13,2.12
41.76,5.04,2.93,5.06,2.94,-2.93,-2.82,-2.08,2.11,2.13,2.12
42.18,5.13,3.01,5.12,3.00,-2.99,-2.87,-2.15,2.14,2.13,2.12
42.60,5.16,3.04,5.17,3.05,-3.05,-2.93,-2.22,2.12,2.12,2.12
43.03,5.22,3.10,5.22,3.10,-3.10,-2.98,-2.29,2.13,2.12,2.12
43.46,5.25,3.13,5.26,3.14,-3.14,-3.04,-2.36,2.11,2.11,2.12
43.90,5.30,3.18,5.30,3.18,-3.19,-3.09,-2.43,2.12,2.12,2.12
44.33,5.34,3.22,5.35,3.23,-3.23,-3.14,-2.51,2.12,2.12,2.12
44.78,5.39,3.27,5.39,3.27,-3.27,-3.20,-2.59,2.13,2.12,2.12
45.23,5.42,3.30,5.43,3.31,-3.31,-3.25,-2.67,2.12,2.12,2.12
45.68,5.45,3.33,5.46,3.34,-3.35,-3.30,-2.75,2.11,2.12,2.12
46.13,5.51,3.39,5.50,3.38,-3.38,-3.35,-2.83,2.13,2.12,2.12
46.60,5.54,3.42,5.55,3.43,-3.42,-3.41,-2.92,2.12,2.12,2.12
47.06,5.58,3.46,5.58,3.46,-3.46,-3.46,-3.01,2.12,2.12,2.12
47.53,5.62,3.50,5.62,3.50,-3.50,-3.51,-3.09,2.12,2.12,2.12
48.01,5.65,3.53,5.66,3.54,-3.54,-3.56,-3.18,2.11,2.12,2.12
48.49,5.71,3.59,5.70,3.58,-3.59,-3.61,-3.28,2.13,2.12,2.12
48.97,5.74,3.62,5.75,3.63,-3.63,-3.66,-3.37,2.11,2.12,2.12
49.46,5.79,3.67,5.80,3.68,-3.68,-3.71,-3.46,2.12,2.12,2.12
49.96,5.85,3.73,5.84,3.72,-3.73,-3.76,-3.56,2.13,2.12,2.12
50.46,5.88,3.76,5.89,3.77,-3.77,-3.81,-3.65,2.11,2.12,2.12
50.96,5.94,3.82,5.94,3.82,-3.83,-3.86,-3.75,2.12,2.12,2.12
51.47,6.00,3.88,6.00,3.88,-3.88,-3.90,-3.85,2.13,2.12,2.12
51.99,6.04,3.92,6.05,3.93,-3.93,-3.95,-3.94,2.11,2.12,2.12
52.51,6.10,3.98,6.10,3.98,-3.98,-4.00,-4.04,2.12,2.12,2.12
53.03,6.14,4.02,6.15,4.03,-4.03,-4.04,-4.14,2.11,2.12,2.12
53.56,6.20,4.08,6.20,4.08,-4.08,-4.09,-4.23,2.13,2.12,2.12
54.10,6.24,4.12,6.25,4.13,-4.12,-4.13,-4.33,2.12,2.12,2.12
54.64,6.29,4.17,6.29,4.17,-4.17,-4.18,-4.42,2.13,2.12,2.12
55.18,6.32,4.20,6.32,4.20,-4.20,-4.22,-4.51,2.12,2.12,2.12
55.74,6.35,4.23,6.36,4.24,-4.24,-4.27,-4.60,2.12,2.12,2.12
56.29,6.39,4.27,6.39,4.27,-4.27,-4.31,-4.68,2.13,2.12,2.12
56.86,6.42,4.30,6.42,4.30,-4.30,-4.35,-4.76,2.13,2.12,2.12
57.42,6.43,4.31,6.44,4.32,-4.32,-4.39,-4.84,2.11,2.12,2.12
58.00,6.47,4.35,6.46,4.34,-4.34,-4.43,-4.91,2.13,2.12,2.12
58.58,6.47,4.35,6.48,4.36,-4.37,-4.47,-4.98,2.11,2.12,2.12
59.16,6.51,4.39,6.51,4.39,-4.39,-4.51,-5.05,2.12,2.12,2.12
59.76,6.53,4.41,6.53,4.41,-4.42,-4.55,-5.11,2.12,2.11,2.12
60.35,6.56,4.44,6.57,4.45,-4.45,-4.59,-5.16,2.12,2.12,2.12
60.96,6.59,4.47,6.60,4.48,-4.48,-4.63,-5.20,2.11,2.12,2.12
61.57,6.64,4.52,6.64,4.52,-4.52,-4.66,-5.25,2.12,2.12,2.12
62.18,6.67,4.55,6.68,4.56,-4.56,-4.70,-5.28,2.11,2.12,2.12
62.80,6.72,4.60,6.72,4.61,-4.61,-4.73,-5.31,2.12,2.12,2.12
63.43,6.77,4.65,6.77,4.65,-4.65,-4.77,-5.33,2.12,2.12,2.12
64.07,6.82,4.70,6.82,4.71,-4.70,-4.80,-5.35,2.12,2.12,2.12
64.71,6.87,4.75,6.87,4.75,-4.75,-4.84,-5.36,2.12,2.12,2.12
65.35,6.92,4.80,6.92,4.80,-4.80,-4.87,-5.36,2.13,2.13,2.12
66.01,6.96,4.84,6.97,4.85,-4.84,-4.90,-5.36,2.12,2.13,2.12
66.67,7.01,4.89,7.01,4.89,-4.89,-4.93,-5.36,2.13,2.12,2.12
67.33,7.04,4.92,7.04,4.92,-4.93,-4.96,-5.35,2.12,2.12,2.12
68.01,7.07,4.95,7.08,4.96,-4.97,-4.99,-5.33,2.11,2.12,2.12
68.69,7.12,5.00,7.12,5.00,-5.00,-5.02,-5.31,2.12,2.12,2.12
69.37,7.16,5.04,7.16,5.04,-5.04,-5.04,-5.29,2.13,2.12,2.12
70.07,7.19,5.07,7.19,5.07,-5.07,-5.07,-5.27,2.13,2.13,2.12
70.77,7.21,5.09,7.22,5.10,-5.10,-5.10,-5.24,2.12,2.13,2.12
71.48,7.25,5.13,7.24,5.12,-5.12,-5.12,-5.21,2.13,2.12,2.12
72.19,7.26,5.14,7.27,5.15,-5.15,-5.15,-5.18,2.12,2.12,2.12
72.91,7.27,5.15,7.28,5.16,-5.17,-5.17,-5.15,2.11,2.12,2.12
73.64,7.31,5.19,7.30,5.18,-5.18,-5.19,-5.12,2.13,2.12,2.12
74.38,7.31,5.19,7.32,5.20,-5.20,-5.22,-5.09,2.11,2.12,2.12
75.12,7.34,5.22,7.34,5.22,-5.22,-5.24,-5.06,2.13,2.12,2.12
75.87,7.35,5.23,7.35,5.23,-5.24,-5.26,-5.04,2.12,2.12,2.12
76.63,7.35,5.23,7.37,5.25,-5.26,-5.28,-5.01,2.10,2.11,2.12
77.40,7.40,5.28,7.39,5.27,-5.28,-5.30,-4.98,2.13,2.11,2.12
78.17,7.40,5.28,7.41,5.29,-5.30,-5.32,-4.96,2.11,2.11,2.12
78.95,7.44,5.32,7.44,5.32,-5.32,-5.34,-4.94,2.13,2.12,2.12
79.74,7.45,5.33,7.46,5.34,-5.33,-5.35,-4.92,2.12,2.13,2.12
80.54,7.48,5.36,7.48,5.36,-5.35,-5.37,-4.90,2.14,2.13,2.12
81.35,7.49,5.37,7.49,5.37,-5.36,-5.39,-4.89,2.14,2.13,2.12
82.16,7.49,5.37,7.50,5.38,-5.36,-5.41,-4.88,2.13,2.13,2.12
82.98,7.49,5.37,7.49,5.38,-5.37,-5.42,-4.87,2.12,2.12,2.12
83.81,7.49,5.37,7.49,5.37,-5.38,-5.44,-4.87,2.12,2.11,2.12
84.65,7.49,5.37,7.49,5.37,-5.39,-5.45,-4.87,2.11,2.11,2.12
85.50,7.49,5.37,7.51,5.39,-5.40,-5.46,-4.87,2.09,2.10,2.12
86.35,7.54,5.42,7.53,5.41,-5.42,-5.48,-4.88,2.12,2.11,2.12
87.22,7.56,5.44,7.56,5.45,-5.45,-5.49,-4.89,2.11,2.11,2.12
88.09,7.60,5.48,7.60,5.48,-5.48,-5.50,-4.90,2.12,2.12,2.12
88.97,7.63,5.51,7.64,5.52,-5.52,-5.52,-4.92,2.12,2.13,2.12
89.86,7.68,5.56,7.68,5.56,-5.55,-5.53,-4.94,2.13,2.13,2.12
90.76,7.72,5.60,7.72,5.60,-5.59,-5.54,-4.97,2.14,2.13,2.12
91.66,7.73,5.61,7.74,5.62,-5.62,-5.55,-5.00,2.12,2.12,2.12
92.58,7.77,5.65,7.77,5.65,-5.65,-5.56,-5.03,2.13,2.12,2.12
93.51,7.77,5.65,7.79,5.67,-5.67,-5.57,-5.07,2.10,2.11,2.12
94.44,7.82,5.70,7.82,5.70,-5.70,-5.58,-5.11,2.13,2.12,2.12
95.39,7.83,5.71,7.84,5.72,-5.72,-5.59,-5.15,2.11,2.12,2.12
96.34,7.87,5.75,7.86,5.74,-5.74,-5.60,-5.20,2.13,2.12,2.12
97.30,7.87,5.75,7.87,5.76,-5.76,-5.61,-5.25,2.12,2.12,2.12
98.28,7.87,5.75,7.89,5.77,-5.77,-5.62,-5.30,2.10,2.12,2.12
99.26,7.91,5.79,7.90,5.78,-5.78,-5.63,-5.36,2.13,2.12,2.12
100.25,7.91,5.79,7.91,5.79,-5.79,-5.64,-5.42,2.13,2.12,2.12
101.25,7.91,5.79,7.92,5.80,-5.79,-5.65,-5.48,2.12,2.12,2.12
102.27,7.91,5.79,7.91,5.79,-5.80,-5.65,-5.54,2.12,2.12,2.12
103.29,7.91,5.79,7.91,5.79,-5.80,-5.66,-5.60,2.11,2.11,2.12
104.32,7.91,5.79,7.91,5.79,-5.80,-5.67,-5.67,2.12,2.12,2.12
105.37,7.91,5.79,7.91,5.79,-5.79,-5.68,-5.73,2.12,2.12,2.12
106.42,7.91,5.79,7.92,5.80,-5.79,-5.68,-5.80,2.12,2.13,2.12
107.48,7.91,5.79,7.91,5.80,-5.78,-5.69,-5.87,2.13,2.13,2.12
108.56,7.91,5.79,7.91,5.79,-5.78,-5.70,-5.93,2.13,2.13,2.12
109.64,7.89,5.77,7.89,5.77,-5.78,-5.70,-6.00,2.12,2.12,2.12
110.74,7.87,5.75,7.88,5.76,-5.78,-5.71,-6.06,2.10,2.11,2.12
111.85,7.88,5.76,7.88,5.76,-5.78,-5.72,-6.12,2.11,2.11,2.12
112.97,7.89,5.77,7.89,5.78,-5.78,-5.72,-6.18,2.11,2.11,2.12
114.10,7.91,5.79,7.90,5.78,-5.79,-5.73,-6.23,2.12,2.11,2.12
115.24,7.91,5.79,7.92,5.80,-5.80,-5.73,-6.28,2.12,2.12,2.12
116.39,7.91,5.79,7.94,5.82,-5.80,-5.74,-6.33,2.11,2.13,2.12
117.55,7.96,5.84,7.94,5.83,-5.81,-5.74,-6.37,2.16,2.14,2.12
118.73,7.96,5.84,7.94,5.83,-5.81,-5.75,-6.41,2.15,2.13,2.12
119.92,7.91,5.79,7.94,5.82,-5.81,-5.75,-6.44,2.10,2.12,2.12
121.12,7.91,5.79,7.92,5.80,-5.81,-5.76,-6.46,2.11,2.11,2.12
122.33,7.91,5.79,7.91,5.79,-5.80,-5.76,-6.48,2.11,2.10,2.12
123.55,7.91,5.79,7.91,5.79,-5.80,-5.76,-6.49,2.11,2.11,2.12
124.79,7.91,5.79,7.91,5.79,-5.80,-5.77,-6.49,2.12,2.12,2.12
126.03,7.91,5.79,7.91,5.79,-5.79,-5.77,-6.49,2.12,2.12,2.12
127.29,7.91,5.79,7.91,5.79,-5.79,-5.77,-6.48,2.12,2.12,2.12
128.57,7.91,5.79,7.92,5.80,-5.79,-5.78,-6.46,2.12,2.13,2.12
129.85,7.91,5.79,7.91,5.79,-5.79,-5.78,-6.43,2.13,2.13,2.12
131.15,7.91,5.79,7.91,5.79,-5.78,-5.78,-6.40,2.13,2.13,2.12
132.46,7.89,5.77,7.90,5.78,-5.78,-5.78,-6.37,2.12,2.12,2.12
133.79,7.89,5.77,7.89,5.77,-5.77,-5.78,-6.32,2.12,2.12,2.12
135.12,7.87,5.75,7.88,5.76,-5.77,-5.78,-6.28,2.11,2.11,2.12
136.48,7.87,5.75,7.87,5.76,-5.76,-5.78,-6.22,2.11,2.11,2.12
137.84,7.87,5.75,7.87,5.75,-5.76,-5.78,-6.17,2.11,2.11,2.12
139.22,7.87,5.75,7.87,5.75,-5.75,-5.78,-6.11,2.12,2.12,2.12
140.61,7.87,5.75,7.88,5.76,-5.75,-5.78,-6.04,2.13,2.13,2.12
142.02,7.87,5.75,7.88,5.76,-5.74,-5.78,-5.98,2.13,2.13,2.12
143.44,7.87,5.75,7.87,5.75,-5.74,-5.78,-5.91,2.13,2.13,2.12
144.87,7.85,5.73,7.85,5.73,-5.73,-5.78,-5.84,2.12,2.12,2.12
146.32,7.82,5.70,7.83,5.72,-5.72,-5.77,-5.77,2.10,2.11,2.12
147.78,7.82,5.70,7.82,5.70,-5.71,-5.77,-5.70,2.11,2.11,2.12
149.26,7.82,5.70,7.83,5.71,-5.70,-5.76,-5.63,2.12,2.12,2.12
150.75,7.82,5.70,7.82,5.70,-5.69,-5.76,-5.56,2.13,2.13,2.12
152.26,7.82,5.70,7.81,5.69,-5.68,-5.75,-5.49,2.14,2.12,2.12
153.78,7.77,5.65,7.79,5.67,-5.67,-5.75,-5.42,2.10,2.12,2.12
155.32,7.77,5.65,7.78,5.66,-5.66,-5.74,-5.36,2.11,2.12,2.12
156.88,7.77,5.65,7.77,5.65,-5.65,-5.73,-5.30,2.12,2.12,2.12
158.44,7.77,5.65,7.76,5.64,-5.64,-5.72,-5.23,2.14,2.12,2.12
160.03,7.73,5.61,7.75,5.63,-5.62,-5.71,-5.18,2.11,2.13,2.12
161.63,7.73,5.61,7.73,5.61,-5.61,-5.70,-5.12,2.12,2.12,2.12
163.24,7.73,5.61,7.71,5.59,-5.60,-5.69,-5.07,2.14,2.12,2.12
164.88,7.68,5.56,7.70,5.58,-5.58,-5.68,-5.02,2.10,2.12,2.12
166.53,7.68,5.56,7.69,5.57,-5.57,-5.67,-4.97,2.11,2.12,2.12
168.19,7.68,5.56,7.68,5.56,-5.56,-5.65,-4.93,2.12,2.12,2.12
169.87,7.68,5.56,7.67,5.55,-5.55,-5.64,-4.89,2.14,2.12,2.12
171.57,7.63,5.51,7.65,5.53,-5.54,-5.62,-4.86,2.10,2.12,2.12
173.29,7.63,5.51,7.64,5.52,-5.52,-5.61,-4.82,2.11,2.12,2.12
175.02,7.63,5.51,7.63,5.51,-5.51,-5.59,-4.80,2.12,2.12,2.12
176.77,7.63,5.51,7.62,5.50,-5.49,-5.57,-4.77,2.14,2.13,2.12
178.54,7.59,5.47,7.60,5.48,-5.47,-5.55,-4.75,2.12,2.13,2.12
180.32,7.57,5.45,7.58,5.46,-5.45,-5.53,-4.73,2.12,2.12,2.12
182.13,7.54,5.42,7.55,5.43,-5.43,-5.51,-4.72,2.11,2.12,2.12
183.95,7.53,5.41,7.52,5.40,-5.41,-5.49,-4.71,2.13,2.12,2.12
185.79,7.49,5.37,7.50,5.38,-5.38,-5.47,-4.70,2.12,2.12,2.12
187.65,7.46,5.34,7.47,5.35,-5.35,-5.45,-4.70,2.12,2.12,2.12
189.52,7.45,5.33,7.44,5.32,-5.32,-5.42,-4.70,2.14,2.12,2.12
191.42,7.40,5.28,7.41,5.29,-5.29,-5.40,-4.70,2.11,2.12,2.12
193.33,7.37,5.25,7.38,5.26,-5.27,-5.37,-4.71,2.11,2.11,2.12
195.27,7.35,5.23,7.35,5.23,-5.24,-5.34,-4.72,2.11,2.11,2.12
197.22,7.33,5.21,7.34,5.22,-5.22,-5.31,-4.73,2.12,2.12,2.12
199.19,7.31,5.19,7.32,5.20,-5.20,-5.29,-4.74,2.12,2.12,2.12
201.18,7.31,5.19,7.30,5.18,-5.18,-5.26,-4.76,2.14,2.12,2.12
203.19,7.26,5.14,7.28,5.16,-5.16,-5.23,-4.78,2.11,2.12,2.12
205.23,7.26,5.14,7.26,5.14,-5.13,-5.19,-4.80,2.13,2.12,2.12
207.28,7.22,5.10,7.23,5.11,-5.11,-5.16,-4.82,2.11,2.12,2.12
209.35,7.21,5.09,7.21,5.09,-5.09,-5.13,-4.85,2.13,2.12,2.12
211.44,7.17,5.05,7.18,5.06,-5.06,-5.09,-4.87,2.12,2.12,2.12
213.56,7.15,5.03,7.15,5.03,-5.03,-5.06,-4.89,2.13,2.12,2.12
215.69,7.12,5.00,7.12,5.00,-5.00,-5.02,-4.92,2.13,2.12,2.12
217.85,7.07,4.95,7.08,4.96,-4.96,-4.99,-4.94,2.11,2.12,2.12
220.03,7.04,4.92,7.05,4.93,-4.93,-4.95,-4.97,2.12,2.12,2.12
222.23,7.01,4.89,7.01,4.89,-4.89,-4.91,-4.99,2.12,2.12,2.12
224.45,6.97,4.85,6.97,4.85,-4.85,-4.87,-5.01,2.12,2.12,2.12
226.70,6.93,4.81,6.93,4.81,-4.82,-4.83,-5.03,2.12,2.12,2.12
228.96,6.89,4.77,6.90,4.78,-4.78,-4.79,-5.04,2.11,2.12,2.12
231.25,6.86,4.74,6.86,4.74,-4.75,-4.75,-5.05,2.12,2.12,2.12
233.57,6.83,4.71,6.83,4.71,-4.71,-4.71,-5.06,2.13,2.12,2.12
235.90,6.79,4.67,6.79,4.67,-4.67,-4.67,-5.07,2.12,2.12,2.12
238.26,6.75,4.63,6.76,4.64,-4.63,-4.62,-5.07,2.12,2.12,2.12
240.64,6.71,4.59,6.72,4.60,-4.60,-4.58,-5.06,2.12,2.12,2.12
243.05,6.68,4.56,6.68,4.56,-4.56,-4.54,-5.05,2.13,2.12,2.12
245.48,6.63,4.51,6.64,4.52,-4.52,-4.49,-5.04,2.12,2.12,2.12
247.93,6.59,4.47,6.60,4.48,-4.48,-4.45,-5.02,2.12,2.12,2.12
250.41,6.56,4.44,6.56,4.44,-4.44,-4.40,-4.99,2.13,2.12,2.12
252.92,6.51,4.39,6.52,4.40,-4.40,-4.36,-4.96,2.12,2.12,2.12
255.45,6.48,4.36,6.47,4.36,-4.36,-4.31,-4.93,2.13,2.12,2.12
258.00,6.42,4.30,6.43,4.31,-4.32,-4.26,-4.89,2.11,2.11,2.12
260.58,6.39,4.27,6.40,4.28,-4.28,-4.21,-4.84,2.11,2.12,2.12
263.19,6.36,4.24,6.36,4.24,-4.24,-4.17,-4.79,2.12,2.12,2.12
265.82,6.33,4.21,6.33,4.21,-4.20,-4.12,-4.73,2.13,2.12,2.12
268.48,6.28,4.16,6.29,4.17,-4.17,-4.07,-4.67,2.12,2.12,2.12
271.16,6.24,4.12,6.25,4.13,-4.13,-4.02,-4.60,2.11,2.12,2.12
273.87,6.21,4.09,6.21,4.09,-4.09,-3.97,-4.54,2.12,2.11,2.12
276.61,6.16,4.04,6.17,4.05,-4.05,-3.92,-4.46,2.11,2.12,2.12
279.38,6.13,4.01,6.13,4.01,-4.01,-3.87,-4.39,2.12,2.12,2.12
282.17,6.09,3.97,6.09,3.97,-3.97,-3.82,-4.31,2.13,2.13,2.12
284.99,6.04,3.92,6.05,3.93,-3.92,-3.77,-4.23,2.12,2.13,2.12
287.84,6.00,3.88,5.99,3.87,-3.87,-3.72,-4.15,2.13,2.12,2.12
290.72,5.93,3.81,5.94,3.82,-3.82,-3.67,-4.06,2.11,2.12,2.12
293.63,5.88,3.76,5.89,3.77,-3.78,-3.62,-3.98,2.11,2.12,2.12
296.57,5.85,3.73,5.84,3.72,-3.73,-3.57,-3.89,2.13,2.11,2.12
299.53,5.79,3.67,5.80,3.68,-3.68,-3.52,-3.81,2.11,2.12,2.12
302.53,5.74,3.62,5.75,3.63,-3.63,-3.47,-3.72,2.11,2.12,2.12
305.55,5.71,3.59,5.70,3.58,-3.59,-3.42,-3.64,2.13,2.12,2.12
308.61,5.65,3.53,5.66,3.54,-3.54,-3.37,-3.55,2.11,2.12,2.12
311.69,5.62,3.50,5.62,3.50,-3.50,-3.32,-3.47,2.13,2.12,2.12
314.81,5.57,3.45,5.58,3.46,-3.45,-3.27,-3.38,2.12,2.12,2.12
317.96,5.53,3.41,5.53,3.41,-3.41,-3.22,-3.30,2.13,2.13,2.12
321.14,5.48,3.36,5.48,3.36,-3.36,-3.17,-3.22,2.12,2.12,2.12
324.35,5.43,3.31,5.43,3.31,-3.31,-3.11,-3.14,2.12,2.12,2.12
327.59,5.37,3.25,5.38,3.27,-3.27,-3.06,-3.06,2.11,2.12,2.12
330.87,5.34,3.22,5.34,3.22,-3.22,-3.01,-2.99,2.12,2.12,2.12
334.18,5.29,3.17,5.29,3.17,-3.17,-2.96,-2.91,2.12,2.12,2.12
337.52,5.23,3.11,5.24,3.12,-3.12,-2.91,-2.84,2.11,2.12,2.12
340.90,5.18,3.06,5.19,3.07,-3.07,-2.86,-2.77,2.11,2.12,2.12
344.30,5.14,3.02,5.14,3.02,-3.02,-2.81,-2.70,2.13,2.12,2.12
347.75,5.09,2.97,5.09,2.97,-2.96,-2.76,-2.63,2.13,2.13,2.12
351.23,5.03,2.91,5.03,2.91,-2.91,-2.71,-2.57,2.12,2.12,2.12
354.74,4.97,2.85,4.97,2.85,-2.86,-2.66,-2.50,2.12,2.12,2.12
358.28,4.91,2.79,4.92,2.80,-2.80,-2.61,-2.44,2.11,2.11,2.12
361.87,4.86,2.74,4.86,2.74,-2.75,-2.56,-2.38,2.11,2.11,2.12
365.49,4.81,2.69,4.81,2.69,-2.70,-2.51,-2.33,2.12,2.11,2.12
369.14,4.76,2.64,4.76,2.64,-2.65,-2.46,-2.27,2.12,2.12,2.12
372.83,4.71,2.59,4.72,2.60,-2.60,-2.41,-2.22,2.11,2.12,2.12
376.56,4.67,2.55,4.67,2.55,-2.55,-2.36,-2.16,2.12,2.12,2.12
380.33,4.62,2.50,4.63,2.51,-2.50,-2.31,-2.11,2.12,2.13,2.12
384.13,4.57,2.45,4.58,2.46,-2.45,-2.26,-2.07,2.12,2.13,2.12
387.97,4.53,2.41,4.52,2.40,-2.40,-2.21,-2.02,2.14,2.12,2.12
391.85,4.46,2.34,4.46,2.34,-2.34,-2.16,-1.97,2.12,2.12,2.12
395.77,4.39,2.27,4.40,2.28,-2.29,-2.11,-1.93,2.11,2.12,2.12
399.73,4.34,2.22,4.35,2.23,-2.23,-2.06,-1.89,2.11,2.12,2.12
403.72,4.30,2.18,4.30,2.18,-2.17,-2.01,-1.85,2.13,2.12,2.12
407.76,4.24,2.12,4.24,2.12,-2.12,-1.96,-1.80,2.13,2.12,2.12
411.84,4.17,2.05,4.18,2.06,-2.06,-1.91,-1.77,2.11,2.12,2.12
415.96,4.11,1.99,4.12,2.00,-2.01,-1.86,-1.73,2.11,2.11,2.12
420.12,4.06,1.94,4.07,1.95,-1.95,-1.81,-1.69,2.11,2.11,2.12
424.32,4.02,1.90,4.02,1.90,-1.90,-1.76,-1.65,2.13,2.12,2.12
428.56,3.97,1.85,3.97,1.85,-1.84,-1.72,-1.62,2.13,2.13,2.12
432.85,3.92,1.80,3.92,1.80,-1.79,-1.67,-1.58,2.13,2.13,2.12
437.18,3.85,1.73,3.85,1.73,-1.74,-1.62,-1.55,2.12,2.12,2.12
441.55,3.78,1.66,3.79,1.68,-1.68,-1.57,-1.51,2.10,2.11,2.12
445.96,3.74,1.62,3.74,1.62,-1.63,-1.52,-1.48,2.11,2.11,2.12
450.42,3.69,1.57,3.69,1.57,-1.57,-1.47,-1.45,2.12,2.12,2.12
454.93,3.64,1.52,3.64,1.52,-1.52,-1.42,-1.41,2.13,2.13,2.12
459.48,3.58,1.46,3.59,1.47,-1.46,-1.38,-1.38,2.13,2.13,2.12
464.07,3.52,1.40,3.52,1.40,-1.40,-1.33,-1.34,2.12,2.13,2.12
468.71,3.46,1.34,3.46,1.34,-1.34,-1.28,-1.31,2.12,2.12,2.12
473.40,3.39,1.27,3.40,1.28,-1.28,-1.23,-1.27,2.11,2.11,2.12
478.13,3.33,1.21,3.33,1.22,-1.22,-1.18,-1.23,2.11,2.11,2.12
482.91,3.27,1.15,3.28,1.16,-1.16,-1.13,-1.20,2.11,2.12,2.12
487.74,3.22,1.10,3.22,1.10,-1.10,-1.08,-1.16,2.13,2.12,2.12
492.62,3.16,1.04,3.16,1.04,-1.04,-1.04,-1.12,2.13,2.12,2.12
497.55,3.08,0.96,3.10,0.98,-0.98,-0.99,-1.08,2.11,2.12,2.12
502.52,3.04,0.92,3.04,0.92,-0.92,-0.94,-1.04,2.13,2.12,2.12
507.55,2.99,0.87,2.98,0.86,-0.86,-0.89,-1.00,2.13,2.12,2.12
512.62,2.90,0.78,2.92,0.80,-0.80,-0.84,-0.96,2.10,2.11,2.12
517.75,2.85,0.73,2.86,0.74,-0.74,-0.79,-0.91,2.11,2.11,2.12
522.93,2.80,0.68,2.80,0.68,-0.69,-0.74,-0.87,2.12,2.12,2.12
528.16,2.76,0.64,2.75,0.63,-0.63,-0.69,-0.82,2.13,2.12,2.12
533.44,2.69,0.57,2.70,0.58,-0.57,-0.64,-0.77,2.12,2.12,2.12
538.77,2.63,0.51,2.64,0.52,-0.51,-0.59,-0.73,2.12,2.13,2.12
544.16,2.57,0.45,2.58,0.46,-0.45,-0.53,-0.68,2.12,2.12,2.12
