frequency,raw,error,smoothed,error_smoothed,equalization,parametric_eq,fixed_band_eq,equalized_raw,equalized_smoothed,target
20.00,1.23,1.42,1.22,1.42,-1.39,-2.34,-2.27,-0.16,-0.17,-0.20
20.20,1.29,1.48,1.29,1.48,-1.48,-2.39,-2.34,-0.19,-0.19,-0.19
20.40,1.35,1.54,1.37,1.56,-1.57,-2.43,-2.40,-0.23,-0.21,-0.19
20.61,1.46,1.65,1.46,1.65,-1.67,-2.48,-2.47,-0.21,-0.21,-0.19
20.81,1.57,1.76,1.56,1.75,-1.77,-2.53,-2.54,-0.20,-0.20,-0.19
21.02,1.68,1.87,1.68,1.87,-1.87,-2.58,-2.61,-0.19,-0.19,-0.19
21.23,1.79,1.97,1.78,1.97,-1.97,-2.63,-2.69,-0.18,-0.18,-0.19
21.44,1.89,2.07,1.89,2.08,-2.07,-2.68,-2.76,-0.18,-0.18,-0.19
21.66,2.00,2.18,2.00,2.18,-2.18,-2.73,-2.84,-0.19,-0.18,-0.18
21.87,2.11,2.29,2.11,2.29,-2.29,-2.79,-2.92,-0.18,-0.18,-0.18
22.09,2.22,2.40,2.22,2.40,-2.40,-2.84,-3.01,-0.18,-0.18,-0.18
22.31,2.33,2.51,2.33,2.51,-2.51,-2.90,-3.09,-0.18,-0.18,-0.18
22.54,2.44,2.61,2.44,2.62,-2.62,-2.96,-3.18,-0.18,-0.18,-0.18
22.76,2.55,2.73,2.55,2.72,-2.72,-3.01,-3.27,-0.17,-0.18,-0.18
22.99,2.66,2.83,2.65,2.83,-2.83,-3.07,-3.36,-0.17,-0.18,-0.18
23.22,2.76,2.93,2.76,2.94,-2.94,-3.13,-3.45,-0.18,-0.18,-0.17
23.45,2.87,3.04,2.87,3.04,-3.04,-3.20,-3.55,-0.17,-0.17,-0.17
23.69,2.98,3.15,2.98,3.15,-3.15,-3.26,-3.65,-0.17,-0.17,-0.17
23.92,3.09,3.26,3.08,3.25,-3.25,-3.32,-3.75,-0.16,-0.17,-0.17
24.16,3.18,3.35,3.18,3.35,-3.35,-3.39,-3.85,-0.17,-0.17,-0.17
24.40,3.28,3.45,3.28,3.45,-3.45,-3.46,-3.95,-0.17,-0.17,-0.17
24.65,3.39,3.55,3.39,3.55,-3.56,-3.52,-4.06,-0.17,-0.17,-0.17
24.89,3.50,3.66,3.49,3.66,-3.65,-3.59,-4.16,-0.16,-0.16,-0.16
25.14,3.59,3.75,3.59,3.76,-3.75,-3.66,-4.27,-0.16,-0.16,-0.16
25.39,3.70,3.86,3.69,3.85,-3.85,-3.74,-4.38,-0.15,-0.16,-0.16
25.65,3.78,3.94,3.79,3.95,-3.95,-3.81,-4.49,-0.17,-0.16,-0.16
25.91,3.89,4.04,3.89,4.05,-4.05,-3.89,-4.60,-0.16,-0.16,-0.16
26.16,4.00,4.16,3.98,4.14,-4.14,-3.96,-4.71,-0.15,-0.16,-0.16
26.43,4.08,4.23,4.08,4.24,-4.24,-4.04,-4.82,-0.16,-0.16,-0.16
26.69,4.18,4.33,4.18,4.34,-4.34,-4.12,-4.93,-0.16,-0.15,-0.16
26.96,4.28,4.43,4.28,4.43,-4.43,-4.20,-5.03,-0.15,-0.15,-0.15
27.23,4.39,4.54,4.37,4.53,-4.53,-4.29,-5.14,-0.14,-0.15,-0.15
27.50,4.46,4.61,4.47,4.62,-4.62,-4.37,-5.24,-0.16,-0.15,-0.15
27.77,4.56,4.71,4.56,4.71,-4.71,-4.46,-5.35,-0.15,-0.15,-0.15
28.05,4.67,4.82,4.65,4.80,-4.80,-4.54,-5.44,-0.14,-0.15,-0.15
28.33,4.74,4.89,4.75,4.90,-4.89,-4.63,-5.54,-0.16,-0.14,-0.15
28.62,4.84,4.98,4.84,4.98,-4.98,-4.72,-5.63,-0.15,-0.15,-0.15
28.90,4.94,5.08,4.93,5.07,-5.07,-4.81,-5.72,-0.13,-0.14,-0.14
29.19,5.01,5.15,5.02,5.16,-5.16,-4.90,-5.80,-0.15,-0.14,-0.14
29.48,5.12,5.26,5.11,5.25,-5.25,-5.00,-5.87,-0.13,-0.14,-0.14
29.78,5.18,5.32,5.19,5.33,-5.33,-5.09,-5.94,-0.15,-0.14,-0.14
30.08,5.29,5.42,5.28,5.42,-5.42,-5.19,-6.01,-0.13,-0.14,-0.14
30.38,5.35,5.48,5.36,5.50,-5.50,-5.28,-6.06,-0.15,-0.14,-0.14
30.68,5.46,5.59,5.44,5.58,-5.58,-5.38,-6.11,-0.12,-0.13,-0.14
30.99,5.52,5.65,5.53,5.66,-5.66,-5.48,-6.16,-0.14,-0.13,-0.13
31.30,5.61,5.74,5.61,5.74,-5.74,-5.58,-6.19,-0.13,-0.13,-0.13
31.61,5.69,5.82,5.68,5.81,-5.81,-5.67,-6.22,-0.13,-0.14,-0.13
31.93,5.75,5.88,5.76,5.89,-5.89,-5.77,-6.24,-0.14,-0.13,-0.13
32.24,5.84,5.97,5.84,5.97,-5.97,-5.87,-6.25,-0.13,-0.13,-0.13
32.57,5.92,6.04,5.91,6.04,-6.04,-5.97,-6.26,-0.12,-0.13,-0.13
32.89,5.99,6.11,5.99,6.11,-6.11,-6.06,-6.26,-0.12,-0.12,-0.13
33.22,6.05,6.17,6.06,6.18,-6.18,-6.16,-6.26,-0.13,-0.12,-0.12
33.55,6.13,6.25,6.13,6.25,-6.25,-6.25,-6.25,-0.12,-0.12,-0.12
33.89,6.20,6.32,6.19,6.31,-6.32,-6.35,-6.23,-0.12,-0.12,-0.12
34.23,6.26,6.38,6.26,6.38,-6.38,-6.44,-6.21,-0.12,-0.12,-0.12
34.57,6.32,6.44,6.33,6.45,-6.45,-6.52,-6.19,-0.13,-0.12,-0.12
34.92,6.40,6.51,6.39,6.51,-6.51,-6.61,-6.16,-0.11,-0.12,-0.12
35.27,6.46,6.57,6.45,6.57,-6.57,-6.69,-6.13,-0.11,-0.12,-0.12
35.62,6.51,6.62,6.52,6.64,-6.63,-6.77,-6.10,-0.12,-0.11,-0.12
35.97,6.59,6.70,6.58,6.69,-6.69,-6.85,-6.07,-0.10,-0.12,-0.11
36.33,6.64,6.75,6.64,6.75,-6.75,-6.92,-6.04,-0.11,-0.12,-0.11
36.70,6.69,6.80,6.70,6.81,-6.81,-6.99,-6.00,-0.12,-0.11,-0.11
37.06,6.76,6.87,6.76,6.87,-6.87,-7.05,-5.97,-0.11,-0.11,-0.11
37.43,6.82,6.93,6.81,6.92,-6.92,-7.11,-5.93,-0.10,-0.11,-0.11
37.81,6.87,6.97,6.87,6.97,-6.97,-7.17,-5.90,-0.10,-0.10,-0.11
38.19,6.91,7.01,6.91,7.02,-7.02,-7.22,-5.87,-0.11,-0.10,-0.11
38.57,6.96,7.06,6.96,7.06,-7.06,-7.26,-5.84,-0.11,-0.10,-0.10
38.95,7.01,7.11,7.00,7.11,-7.11,-7.31,-5.82,-0.10,-0.10,-0.10
39.34,7.05,7.15,7.05,7.15,-7.15,-7.34,-5.79,-0.10,-0.10,-0.10
39.74,7.08,7.18,7.09,7.19,-7.19,-7.37,-5.77,-0.11,-0.10,-0.10
40.14,7.13,7.23,7.13,7.22,-7.22,-7.40,-5.75,-0.10,-0.10,-0.10
40.54,7.17,7.26,7.16,7.26,-7.26,-7.43,-5.74,-0.09,-0.10,-0.10
40.94,7.20,7.29,7.20,7.29,-7.30,-7.44,-5.72,-0.10,-0.10,-0.10
41.35,7.23,7.32,7.23,7.33,-7.33,-7.46,-5.72,-0.10,-0.09,-0.09
41.76,7.27,7.36,7.27,7.36,-7.36,-7.47,-5.71,-0.09,-0.09,-0.09
42.18,7.31,7.40,7.30,7.39,-7.39,-7.48,-5.71,-0.08,-0.09,-0.09
42.60,7.32,7.41,7.33,7.42,-7.42,-7.48,-5.72,-0.10,-0.09,-0.09
43.03,7.36,7.45,7.35,7.44,-7.44,-7.49,-5.73,-0.08,-0.09,-0.09
43.46,7.36,7.45,7.37,7.46,-7.46,-7.49,-5.74,-0.11,-0.10,-0.09
43.90,7.41,7.49,7.40,7.48,-7.48,-7.48,-5.76,-0.08,-0.09,-0.09
44.33,7.41,7.49,7.42,7.50,-7.50,-7.48,-5.78,-0.09,-0.08,-0.08
44.78,7.45,7.53,7.44,7.53,-7.52,-7.47,-5.81,-0.07,-0.07,-0.08
45.23,7.46,7.54,7.45,7.53,-7.53,-7.46,-5.84,-0.07,-0.08,-0.08
45.68,7.46,7.54,7.46,7.54,-7.54,-7.45,-5.87,-0.08,-0.08,-0.08
46.13,7.46,7.54,7.46,7.54,-7.54,-7.43,-5.91,-0.09,-0.08,-0.08
46.60,7.46,7.54,7.47,7.54,-7.55,-7.42,-5.95,-0.09,-0.08,-0.08
47.06,7.48,7.55,7.47,7.55,-7.55,-7.40,-6.00,-0.07,-0.08,-0.08
47.53,7.48,7.55,7.47,7.55,-7.55,-7.39,-6.05,-0.07,-0.07,-0.08
48.01,7.47,7.54,7.47,7.54,-7.54,-7.37,-6.11,-0.08,-0.07,-0.07
48.49,7.46,7.53,7.46,7.53,-7.54,-7.35,-6.17,-0.08,-0.08,-0.07
48.97,7.46,7.53,7.46,7.53,-7.53,-7.33,-6.23,-0.07,-0.07,-0.07
49.46,7.46,7.53,7.45,7.52,-7.52,-7.31,-6.30,-0.06,-0.07,-0.07
49.96,7.46,7.53,7.44,7.51,-7.51,-7.29,-6.37,-0.05,-0.07,-0.07
50.46,7.41,7.47,7.43,7.49,-7.49,-7.27,-6.44,-0.08,-0.06,-0.07
50.96,7.41,7.47,7.41,7.47,-7.47,-7.25,-6.52,-0.06,-0.06,-0.07
51.47,7.40,7.46,7.38,7.45,-7.45,-7.22,-6.59,-0.05,-0.07,-0.06
51.99,7.36,7.42,7.37,7.43,-7.43,-7.20,-6.67,-0.07,-0.06,-0.06
52.51,7.33,7.39,7.34,7.40,-7.40,-7.17,-6.75,-0.07,-0.06,-0.06
53.03,7.32,7.38,7.30,7.36,-7.37,-7.15,-6.83,-0.05,-0.06,-0.06
53.56,7.27,7.33,7.27,7.33,-7.33,-7.12,-6.91,-0.07,-0.06,-0.06
54.10,7.24,7.30,7.24,7.30,-7.30,-7.10,-6.99,-0.06,-0.06,-0.06
54.64,7.21,7.26,7.21,7.26,-7.26,-7.07,-7.07,-0.05,-0.06,-0.06
55.18,7.18,7.23,7.17,7.22,-7.22,-7.04,-7.15,-0.04,-0.05,-0.05
55.74,7.12,7.17,7.13,7.18,-7.18,-7.01,-7.22,-0.06,-0.05,-0.05
56.29,7.08,7.13,7.08,7.13,-7.13,-6.98,-7.29,-0.05,-0.05,-0.05
56.86,7.04,7.09,7.03,7.08,-7.08,-6.95,-7.35,-0.04,-0.05,-0.05
57.42,6.98,7.03,6.98,7.03,-7.03,-6.92,-7.41,-0.06,-0.05,-0.05
58.00,6.93,6.98,6.93,6.98,-6.98,-6.89,-7.47,-0.05,-0.05,-0.05
58.58,6.88,6.92,6.88,6.92,-6.93,-6.85,-7.51,-0.05,-0.05,-0.05
59.16,6.83,6.87,6.83,6.87,-6.87,-6.82,-7.55,-0.04,-0.04,-0.04
59.76,6.78,6.82,6.78,6.82,-6.82,-6.78,-7.58,-0.04,-0.04,-0.04
60.35,6.73,6.77,6.72,6.76,-6.76,-6.75,-7.61,-0.03,-0.04,-0.04
60.96,6.66,6.70,6.66,6.70,-6.70,-6.71,-7.62,-0.04,-0.04,-0.04
61.57,6.59,6.63,6.60,6.64,-6.64,-6.67,-7.62,-0.05,-0.04,-0.04
62.18,6.55,6.59,6.54,6.58,-6.58,-6.63,-7.61,-0.03,-0.04,-0.04
62.80,6.49,6.52,6.48,6.52,-6.52,-6.59,-7.59,-0.04,-0.04,-0.04
63.43,6.43,6.46,6.43,6.46,-6.46,-6.54,-7.57,-0.04,-0.04,-0.04
64.07,6.37,6.40,6.37,6.40,-6.41,-6.50,-7.53,-0.04,-0.04,-0.03
64.71,6.32,6.35,6.32,6.35,-6.35,-6.46,-7.48,-0.03,-0.04,-0.03
65.35,6.27,6.30,6.27,6.30,-6.30,-6.41,-7.42,-0.03,-0.03,-0.03
66.01,6.22,6.25,6.22,6.25,-6.24,-6.36,-7.35,-0.03,-0.03,-0.03
66.67,6.17,6.20,6.16,6.19,-6.19,-6.32,-7.28,-0.02,-0.03,-0.03
67.33,6.11,6.13,6.11,6.14,-6.14,-6.27,-7.19,-0.03,-0.03,-0.03
68.01,6.06,6.08,6.06,6.09,-6.09,-6.22,-7.10,-0.03,-0.02,-0.03
68.69,6.02,6.04,6.01,6.03,-6.03,-6.16,-7.01,-0.02,-0.03,-0.02
69.37,5.96,5.98,5.96,5.98,-5.98,-6.11,-6.90,-0.02,-0.02,-0.02
70.07,5.90,5.92,5.91,5.93,-5.93,-6.06,-6.79,-0.03,-0.02,-0.02
70.77,5.87,5.89,5.86,5.88,-5.88,-6.00,-6.68,-0.01,-0.02,-0.02
71.48,5.81,5.83,5.81,5.83,-5.83,-5.95,-6.57,-0.02,-0.02,-0.02
72.19,5.76,5.77,5.76,5.78,-5.78,-5.89,-6.45,-0.02,-0.02,-0.02
72.91,5.71,5.72,5.71,5.72,-5.73,-5.83,-6.33,-0.02,-0.02,-0.02
73.64,5.66,5.67,5.66,5.68,-5.67,-5.77,-6.21,-0.02,-0.01,-0.01
74.38,5.62,5.63,5.61,5.62,-5.62,-5.71,-6.09,-0.00,-0.01,-0.01
75.12,5.56,5.57,5.55,5.57,-5.56,-5.65,-5.96,-0.00,-0.01,-0.01
75.87,5.49,5.50,5.49,5.50,-5.50,-5.59,-5.84,-0.01,-0.01,-0.01
76.63,5.43,5.44,5.43,5.44,-5.44,-5.53,-5.72,-0.01,-0.01,-0.01
77.40,5.37,5.38,5.36,5.37,-5.37,-5.47,-5.60,-0.00,-0.01,-0.01
78.17,5.30,5.30,5.30,5.30,-5.30,-5.40,-5.49,-0.01,-0.01,-0.01
78.95,5.22,5.22,5.23,5.23,-5.23,-5.34,-5.37,-0.02,-0.01,-0.00
79.74,5.16,5.16,5.16,5.16,-5.16,-5.27,-5.26,-0.00,-0.00,-0.00
80.54,5.09,5.09,5.08,5.08,-5.08,-5.21,-5.15,0.00,-0.00,-0.00
81.35,5.01,5.01,5.01,5.01,-5.01,-5.14,-5.04,0.00,0.01,-0.00
82.16,4.93,4.93,4.93,4.93,-4.93,-5.07,-4.93,0.00,0.00,0.00
82.98,4.86,4.86,4.85,4.85,-4.84,-5.00,-4.83,0.01,0.00,0.00
83.81,4.76,4.75,4.77,4.76,-4.76,-4.94,-4.73,-0.00,0.00,0.00
84.65,4.69,4.68,4.68,4.68,-4.68,-4.87,-4.63,0.01,0.00,0.00
85.50,4.60,4.59,4.60,4.59,-4.60,-4.80,-4.54,0.00,0.00,0.01
86.35,4.52,4.51,4.52,4.52,-4.52,-4.73,-4.45,0.00,0.01,0.01
87.22,4.45,4.44,4.44,4.43,-4.44,-4.66,-4.37,0.01,0.00,0.01
88.09,4.37,4.36,4.37,4.36,-4.36,-4.59,-4.28,0.01,0.01,0.01
88.97,4.29,4.28,4.30,4.29,-4.28,-4.51,-4.20,0.00,0.02,0.01
89.86,4.24,4.22,4.23,4.21,-4.21,-4.44,-4.13,0.03,0.01,0.01
90.76,4.16,4.14,4.16,4.14,-4.14,-4.37,-4.05,0.02,0.02,0.01
91.66,4.08,4.06,4.09,4.07,-4.07,-4.30,-3.98,0.01,0.02,0.02
92.58,4.03,4.01,4.02,4.00,-4.01,-4.23,-3.92,0.02,0.01,0.02
93.51,3.96,3.94,3.96,3.94,-3.95,-4.15,-3.85,0.01,0.01,0.02
94.44,3.89,3.87,3.90,3.88,-3.88,-4.08,-3.79,0.00,0.01,0.02
95.39,3.85,3.83,3.84,3.82,-3.83,-4.01,-3.74,0.02,0.02,0.02
96.34,3.80,3.78,3.80,3.77,-3.77,-3.93,-3.68,0.03,0.03,0.02
97.30,3.75,3.72,3.75,3.72,-3.71,-3.86,-3.63,0.04,0.03,0.02
98.28,3.69,3.66,3.69,3.66,-3.66,-3.79,-3.58,0.03,0.03,0.03
99.26,3.63,3.60,3.63,3.60,-3.60,-3.71,-3.53,0.03,0.03,0.03
100.25,3.57,3.54,3.57,3.54,-3.54,-3.64,-3.48,0.03,0.03,0.03
101.25,3.51,3.48,3.51,3.48,-3.48,-3.56,-3.44,0.03,0.03,0.03
102.27,3.46,3.43,3.45,3.42,-3.42,-3.49,-3.40,0.04,0.02,0.03
103.29,3.38,3.35,3.39,3.36,-3.36,-3.42,-3.36,0.01,0.03,0.03
104.32,3.34,3.30,3.34,3.30,-3.31,-3.34,-3.32,0.03,0.03,0.03
105.37,3.29,3.25,3.28,3.25,-3.25,-3.27,-3.28,0.04,0.03,0.04
106.42,3.24,3.20,3.24,3.20,-3.19,-3.19,-3.24,0.04,0.04,0.04
107.48,3.18,3.14,3.18,3.14,-3.14,-3.12,-3.21,0.04,0.04,0.04
108.56,3.12,3.08,3.12,3.08,-3.08,-3.04,-3.17,0.04,0.04,0.04
109.64,3.06,3.02,3.06,3.02,-3.02,-2.97,-3.13,0.04,0.04,0.04
110.74,3.01,2.97,3.01,2.96,-2.96,-2.89,-3.10,0.05,0.04,0.04
111.85,2.96,2.91,2.94,2.90,-2.90,-2.82,-3.06,0.05,0.04,0.04
112.97,2.87,2.82,2.88,2.84,-2.84,-2.74,-3.02,0.02,0.04,0.04
114.10,2.82,2.77,2.83,2.78,-2.78,-2.67,-2.98,0.03,0.04,0.05
115.24,2.78,2.73,2.77,2.72,-2.72,-2.59,-2.94,0.05,0.05,0.05
116.39,2.73,2.68,2.72,2.67,-2.66,-2.52,-2.90,0.07,0.06,0.05
117.55,2.65,2.60,2.66,2.61,-2.60,-2.44,-2.85,0.05,0.06,0.05
118.73,2.59,2.54,2.59,2.53,-2.53,-2.37,-2.81,0.06,0.05,0.05
119.92,2.52,2.46,2.52,2.46,-2.47,-2.29,-2.76,0.05,0.05,0.05
121.12,2.45,2.39,2.45,2.40,-2.40,-2.22,-2.70,0.05,0.05,0.05
122.33,2.39,2.33,2.38,2.33,-2.33,-2.14,-2.65,0.06,0.05,0.06
123.55,2.31,2.25,2.32,2.26,-2.26,-2.07,-2.59,0.05,0.05,0.06
124.79,2.26,2.20,2.25,2.19,-2.19,-1.99,-2.53,0.06,0.06,0.06
126.03,2.18,2.12,2.18,2.12,-2.12,-1.92,-2.46,0.05,0.06,0.06
127.29,2.12,2.06,2.12,2.06,-2.06,-1.84,-2.40,0.06,0.07,0.06
128.57,2.06,2.00,2.05,1.99,-1.99,-1.76,-2.32,0.07,0.07,0.06
129.85,1.99,1.92,1.99,1.92,-1.92,-1.69,-2.25,0.07,0.07,0.06
131.15,1.91,1.84,1.91,1.85,-1.85,-1.61,-2.17,0.06,0.07,0.07
132.46,1.84,1.77,1.84,1.77,-1.77,-1.54,-2.09,0.06,0.06,0.07
133.79,1.76,1.69,1.76,1.69,-1.70,-1.46,-2.01,0.06,0.06,0.07
135.12,1.70,1.63,1.69,1.62,-1.62,-1.39,-1.92,0.07,0.07,0.07
136.48,1.62,1.55,1.62,1.55,-1.55,-1.31,-1.83,0.07,0.07,0.07
137.84,1.55,1.48,1.54,1.47,-1.47,-1.23,-1.74,0.08,0.07,0.07
139.22,1.47,1.39,1.46,1.39,-1.39,-1.16,-1.64,0.07,0.07,0.07
140.61,1.38,1.30,1.39,1.31,-1.32,-1.08,-1.54,0.06,0.07,0.08
142.02,1.32,1.24,1.31,1.23,-1.24,-1.00,-1.44,0.08,0.07,0.08
143.44,1.24,1.16,1.23,1.16,-1.15,-0.93,-1.34,0.08,0.08,0.08
144.87,1.15,1.07,1.15,1.07,-1.07,-0.85,-1.24,0.07,0.08,0.08
146.32,1.08,1.00,1.07,0.99,-0.99,-0.77,-1.13,0.09,0.08,0.08
147.78,0.98,0.90,0.99,0.90,-0.91,-0.70,-1.02,0.07,0.08,0.08
149.26,0.92,0.83,0.91,0.82,-0.82,-0.62,-0.92,0.10,0.08,0.08
150.75,0.81,0.72,0.82,0.73,-0.74,-0.54,-0.81,0.07,0.08,0.08
152.26,0.75,0.66,0.74,0.65,-0.65,-0.46,-0.69,0.10,0.09,0.09
153.78,0.64,0.55,0.65,0.56,-0.56,-0.38,-0.58,0.07,0.08,0.09
155.32,0.58,0.49,0.57,0.48,-0.48,-0.30,-0.47,0.10,0.09,0.09
156.88,0.47,0.38,0.48,0.39,-0.39,-0.22,-0.35,0.08,0.09,0.09
158.44,0.40,0.31,0.39,0.30,-0.30,-0.14,-0.24,0.10,0.09,0.09
160.03,0.30,0.20,0.30,0.21,-0.21,-0.07,-0.12,0.09,0.09,0.09
161.63,0.23,0.13,0.22,0.13,-0.12,0.02,-0.00,0.11,0.10,0.09
163.24,0.13,0.03,0.13,0.03,-0.03,0.10,0.11,0.10,0.10,0.10
164.88,0.04,-0.06,0.04,-0.06,0.06,0.18,0.23,0.10,0.10,0.10
166.53,-0.05,-0.15,-0.05,-0.15,0.15,0.26,0.35,0.10,0.10,0.10
168.19,-0.15,-0.25,-0.14,-0.24,0.24,0.34,0.47,0.09,0.10,0.10
169.87,-0.22,-0.32,-0.23,-0.33,0.33,0.42,0.59,0.11,0.10,0.10
171.57,-0.32,-0.42,-0.32,-0.42,0.41,0.51,0.72,0.09,0.10,0.10
173.29,-0.39,-0.50,-0.39,-0.50,0.50,0.59,0.84,0.10,0.10,0.10
175.02,-0.47,-0.58,-0.47,-0.58,0.57,0.67,0.96,0.10,0.10,0.11
176.77,-0.54,-0.65,-0.54,-0.65,0.65,0.76,1.09,0.11,0.11,0.11
178.54,-0.61,-0.72,-0.62,-0.73,0.72,0.84,1.21,0.11,0.11,0.11
180.32,-0.69,-0.80,-0.69,-0.80,0.80,0.93,1.34,0.10,0.11,0.11
182.13,-0.76,-0.87,-0.76,-0.87,0.87,1.01,1.47,0.11,0.11,0.11
183.95,-0.82,-0.93,-0.83,-0.94,0.94,1.10,1.60,0.12,0.11,0.11
185.79,-0.90,-1.02,-0.90,-1.01,1.02,1.19,1.73,0.12,0.12,0.11
187.65,-0.98,-1.10,-0.98,-1.09,1.10,1.28,1.86,0.11,0.12,0.12
189.52,-1.05,-1.17,-1.06,-1.17,1.18,1.36,1.99,0.12,0.12,0.12
191.42,-1.15,-1.27,-1.14,-1.26,1.26,1.45,2.12,0.11,0.12,0.12
193.33,-1.21,-1.33,-1.23,-1.35,1.35,1.54,2.25,0.13,0.12,0.12
195.27,-1.32,-1.44,-1.32,-1.44,1.44,1.63,2.38,0.11,0.12,0.12
197.22,-1.41,-1.53,-1.41,-1.53,1.53,1.72,2.52,0.12,0.12,0.12
199.19,-1.49,-1.62,-1.50,-1.63,1.62,1.82,2.65,0.13,0.12,0.12
201.18,-1.60,-1.73,-1.59,-1.72,1.72,1.91,2.79,0.12,0.13,0.12
203.19,-1.69,-1.82,-1.69,-1.82,1.82,2.00,2.92,0.13,0.13,0.13
205.23,-1.79,-1.92,-1.80,-1.92,1.93,2.10,3.05,0.13,0.13,0.13
207.28,-1.90,-2.03,-1.90,-2.03,2.03,2.19,3.18,0.13,0.13,0.13
209.35,-2.01,-2.14,-2.01,-2.14,2.14,2.29,3.32,0.13,0.13,0.13
211.44,-2.12,-2.25,-2.12,-2.25,2.25,2.38,3.45,0.13,0.13,0.13
213.56,-2.23,-2.37,-2.23,-2.37,2.36,2.48,3.57,0.13,0.13,0.13
215.69,-2.34,-2.48,-2.34,-2.47,2.48,2.58,3.70,0.13,0.14,0.13
217.85,-2.45,-2.59,-2.45,-2.58,2.59,2.67,3.83,0.14,0.14,0.14
220.03,-2.55,-2.69,-2.57,-2.70,2.71,2.77,3.95,0.16,0.14,0.14
222.23,-2.69,-2.83,-2.69,-2.83,2.83,2.87,4.06,0.14,0.14,0.14
224.45,-2.82,-2.96,-2.81,-2.95,2.95,2.97,4.18,0.13,0.14,0.14
226.70,-2.93,-3.07,-2.93,-3.07,3.07,3.07,4.29,0.14,0.14,0.14
228.96,-3.04,-3.19,-3.05,-3.19,3.19,3.17,4.39,0.15,0.14,0.14
231.25,-3.17,-3.32,-3.17,-3.32,3.32,3.27,4.49,0.15,0.14,0.14
233.57,-3.30,-3.45,-3.30,-3.44,3.44,3.38,4.58,0.14,0.14,0.15
235.90,-3.43,-3.58,-3.43,-3.57,3.57,3.48,4.67,0.14,0.15,0.15
238.26,-3.54,-3.69,-3.55,-3.70,3.70,3.58,4.75,0.16,0.15,0.15
240.64,-3.67,-3.82,-3.67,-3.82,3.83,3.68,4.82,0.16,0.15,0.15
243.05,-3.80,-3.95,-3.80,-3.95,3.96,3.79,4.89,0.16,0.15,0.15
245.48,-3.94,-4.09,-3.94,-4.09,4.09,3.89,4.95,0.15,0.15,0.15
247.93,-4.07,-4.23,-4.07,-4.23,4.22,4.00,5.00,0.15,0.15,0.15
250.41,-4.20,-4.36,-4.20,-4.36,4.35,4.10,5.04,0.15,0.15,0.15
252.92,-4.33,-4.49,-4.33,-4.49,4.49,4.20,5.07,0.15,0.16,0.16
255.45,-4.45,-4.61,-4.46,-4.62,4.62,4.31,5.10,0.17,0.16,0.16
258.00,-4.60,-4.76,-4.59,-4.75,4.75,4.41,5.12,0.15,0.16,0.16
260.58,-4.72,-4.88,-4.73,-4.89,4.89,4.51,5.13,0.16,0.16,0.16
263.19,-4.86,-5.02,-4.86,-5.02,5.02,4.61,5.13,0.16,0.16,0.16
265.82,-4.99,-5.16,-4.99,-5.15,5.16,4.71,5.13,0.17,0.17,0.16
268.48,-5.12,-5.29,-5.12,-5.29,5.31,4.82,5.12,0.19,0.19,0.16
271.16,-5.26,-5.43,-5.26,-5.43,5.45,4.92,5.11,0.19,0.19,0.17
273.87,-5.39,-5.56,-5.39,-5.56,5.59,5.01,5.09,0.19,0.19,0.17
276.61,-5.54,-5.71,-5.53,-5.70,5.71,5.11,5.07,0.16,0.17,0.17
279.38,-5.65,-5.82,-5.67,-5.84,5.81,5.21,5.04,0.16,0.14,0.17
282.17,-5.81,-5.98,-5.80,-5.97,5.89,5.30,5.01,0.08,0.09,0.17
284.99,-5.93,-6.11,-5.94,-6.11,5.95,5.39,4.97,0.02,0.01,0.17
287.84,-6.07,-6.25,-6.08,-6.26,5.99,5.48,4.94,-0.08,-0.09,0.17
290.72,-6.23,-6.41,-6.22,-6.39,6.02,5.57,4.90,-0.21,-0.20,0.18
293.63,-6.35,-6.53,-6.36,-6.54,6.03,5.65,4.86,-0.33,-0.34,0.18
296.57,-6.49,-6.67,-6.50,-6.68,6.02,5.74,4.82,-0.47,-0.48,0.18
299.53,-6.64,-6.82,-6.63,-6.81,6.01,5.82,4.78,-0.63,-0.62,0.18
302.53,-6.75,-6.93,-6.74,-6.93,6.00,5.89,4.74,-0.75,-0.74,0.18
305.55,-6.83,-7.01,-6.83,-7.02,6.00,5.96,4.71,-0.83,-0.83,0.18
308.61,-6.88,-7.07,-6.90,-7.08,6.00,6.03,4.67,-0.88,-0.90,0.18
311.69,-6.95,-7.14,-6.93,-7.12,6.00,6.10,4.63,-0.95,-0.93,0.19
314.81,-6.95,-7.14,-6.95,-7.14,6.00,6.16,4.60,-0.95,-0.95,0.19
317.96,-6.95,-7.14,-6.96,-7.15,6.00,6.22,4.57,-0.95,-0.96,0.19
321.14,-6.95,-7.14,-6.95,-7.14,6.00,6.27,4.54,-0.95,-0.95,0.19
324.35,-6.95,-7.14,-6.95,-7.14,6.00,6.32,4.51,-0.95,-0.95,0.19
327.59,-6.95,-7.14,-6.95,-7.14,6.00,6.36,4.49,-0.95,-0.95,0.19
330.87,-6.95,-7.15,-6.95,-7.15,6.00,6.40,4.47,-0.95,-0.95,0.19
334.18,-6.95,-7.15,-6.95,-7.15,6.00,6.43,4.45,-0.95,-0.95,0.19
337.52,-6.95,-7.15,-6.95,-7.15,6.00,6.46,4.43,-0.95,-0.95,0.20
340.90,-6.94,-7.14,-6.95,-7.14,6.00,6.48,4.42,-0.94,-0.95,0.20
344.30,-6.94,-7.14,-6.94,-7.14,6.00,6.49,4.41,-0.94,-0.94,0.20
347.75,-6.94,-7.14,-6.94,-7.14,6.00,6.51,4.41,-0.94,-0.94,0.20
351.23,-6.94,-7.14,-6.94,-7.14,6.00,6.51,4.41,-0.94,-0.94,0.20
354.74,-6.94,-7.15,-6.94,-7.15,6.00,6.51,4.41,-0.94,-0.94,0.20
358.28,-6.94,-7.15,-6.94,-7.15,6.00,6.51,4.42,-0.94,-0.94,0.20
361.87,-6.94,-7.15,-6.94,-7.15,6.00,6.50,4.43,-0.94,-0.94,0.21
365.49,-6.94,-7.15,-6.94,-7.15,6.00,6.48,4.44,-0.94,-0.94,0.21
369.14,-6.94,-7.15,-6.94,-7.15,6.00,6.46,4.45,-0.94,-0.94,0.21
372.83,-6.94,-7.15,-6.94,-7.15,6.00,6.44,4.47,-0.94,-0.94,0.21
376.56,-6.94,-7.15,-6.94,-7.15,6.00,6.41,4.50,-0.94,-0.94,0.21
380.33,-6.94,-7.16,-6.94,-7.15,6.00,6.37,4.52,-0.94,-0.94,0.21
384.13,-6.93,-7.15,-6.94,-7.15,6.00,6.33,4.55,-0.93,-0.94,0.21
387.97,-6.93,-7.15,-6.93,-7.15,6.00,6.29,4.58,-0.93,-0.93,0.22
391.85,-6.93,-7.15,-6.93,-7.15,6.00,6.24,4.62,-0.93,-0.93,0.22
395.77,-6.93,-7.15,-6.93,-7.15,6.00,6.19,4.65,-0.93,-0.93,0.22
399.73,-6.93,-7.15,-6.94,-7.16,6.00,6.14,4.69,-0.93,-0.94,0.22
403.72,-6.93,-7.15,-6.93,-7.16,6.00,6.08,4.73,-0.93,-0.93,0.22
407.76,-6.92,-7.14,-6.91,-7.14,6.00,6.02,4.78,-0.92,-0.91,0.22
411.84,-6.87,-7.10,-6.87,-7.10,6.00,5.96,4.82,-0.87,-0.87,0.22
415.96,-6.79,-7.02,-6.80,-7.03,6.00,5.89,4.87,-0.79,-0.80,0.23
420.12,-6.71,-6.94,-6.70,-6.92,6.00,5.82,4.91,-0.71,-0.69,0.23
424.32,-6.57,-6.80,-6.57,-6.80,6.01,5.75,4.96,-0.56,-0.56,0.23
428.56,-6.42,-6.65,-6.44,-6.67,6.02,5.68,5.01,-0.40,-0.42,0.23
432.85,-6.30,-6.53,-6.29,-6.52,6.03,5.60,5.05,-0.28,-0.27,0.23
437.18,-6.15,-6.38,-6.15,-6.38,6.02,5.53,5.10,-0.14,-0.13,0.23
441.55,-6.00,-6.24,-6.01,-6.24,5.99,5.45,5.14,-0.01,-0.02,0.23
445.96,-5.86,-6.10,-5.86,-6.10,5.95,5.37,5.18,0.08,0.08,0.23
450.42,-5.72,-5.96,-5.72,-5.96,5.88,5.29,5.22,0.16,0.16,0.24
454.93,-5.58,-5.82,-5.58,-5.82,5.79,5.21,5.26,0.21,0.21,0.24
459.48,-5.44,-5.68,-5.45,-5.68,5.69,5.13,5.29,0.25,0.24,0.24
464.07,-5.31,-5.55,-5.30,-5.54,5.57,5.05,5.32,0.26,0.26,0.24
468.71,-5.16,-5.40,-5.17,-5.41,5.43,4.96,5.34,0.27,0.27,0.24
473.40,-5.02,-5.27,-5.03,-5.27,5.29,4.88,5.36,0.27,0.26,0.24
478.13,-4.90,-5.15,-4.89,-5.14,5.15,4.80,5.37,0.24,0.25,0.24
482.91,-4.76,-5.01,-4.76,-5.01,5.01,4.72,5.37,0.25,0.25,0.25
487.74,-4.63,-4.88,-4.64,-4.88,4.88,4.63,5.37,0.25,0.25,0.25
492.62,-4.51,-4.76,-4.51,-4.76,4.76,4.55,5.36,0.25,0.25,0.25
