frequency,raw,error,smoothed,error_smoothed,equalization,parametric_eq,fixed_band_eq,equalized_raw,equalized_smoothed,target
20.00,-4.93,-2.99,-4.93,-2.99,3.02,2.57,0.88,-1.91,-1.91,-1.94
20.20,-4.89,-2.94,-4.89,-2.94,2.95,2.55,0.90,-1.94,-1.95,-1.95
20.40,-4.85,-2.88,-4.85,-2.89,2.88,2.53,0.93,-1.97,-1.97,-1.97
20.61,-4.81,-2.83,-4.81,-2.83,2.81,2.51,0.96,-2.00,-2.00,-1.98
20.81,-4.77,-2.77,-4.77,-2.77,2.76,2.49,0.99,-2.01,-2.01,-2.00
21.02,-4.73,-2.72,-4.73,-2.72,2.70,2.47,1.02,-2.03,-2.03,-2.01
21.23,-4.68,-2.66,-4.68,-2.66,2.65,2.44,1.05,-2.03,-2.03,-2.02
21.44,-4.64,-2.61,-4.64,-2.61,2.61,2.42,1.09,-2.03,-2.03,-2.03
21.66,-4.60,-2.55,-4.59,-2.55,2.56,2.40,1.12,-2.04,-2.03,-2.05
21.87,-4.55,-2.50,-4.56,-2.51,2.52,2.38,1.15,-2.03,-2.04,-2.05
22.09,-4.53,-2.47,-4.54,-2.48,2.49,2.36,1.19,-2.04,-2.04,-2.06
22.31,-4.53,-2.46,-4.53,-2.46,2.47,2.33,1.23,-2.06,-2.06,-2.07
22.54,-4.53,-2.45,-4.53,-2.45,2.45,2.31,1.26,-2.08,-2.08,-2.08
22.76,-4.53,-2.44,-4.53,-2.44,2.44,2.29,1.30,-2.09,-2.09,-2.09
22.99,-4.53,-2.44,-4.53,-2.44,2.43,2.27,1.34,-2.10,-2.09,-2.09
23.22,-4.52,-2.42,-4.52,-2.43,2.43,2.25,1.38,-2.09,-2.10,-2.10
23.45,-4.52,-2.42,-4.52,-2.42,2.42,2.22,1.42,-2.10,-2.10,-2.10
23.69,-4.51,-2.41,-4.51,-2.41,2.40,2.20,1.47,-2.11,-2.11,-2.10
23.92,-4.50,-2.40,-4.50,-2.40,2.38,2.18,1.51,-2.12,-2.12,-2.10
24.16,-4.47,-2.37,-4.47,-2.37,2.35,2.16,1.55,-2.12,-2.11,-2.10
24.40,-4.43,-2.33,-4.43,-2.33,2.33,2.14,1.60,-2.10,-2.10,-2.10
24.65,-4.39,-2.29,-4.39,-2.29,2.31,2.11,1.64,-2.08,-2.08,-2.10
24.89,-4.35,-2.25,-4.35,-2.26,2.29,2.09,1.69,-2.06,-2.07,-2.10
25.14,-4.33,-2.23,-4.33,-2.24,2.26,2.07,1.74,-2.07,-2.07,-2.10
25.39,-4.33,-2.23,-4.33,-2.23,2.24,2.05,1.78,-2.09,-2.09,-2.10
25.65,-4.33,-2.22,-4.33,-2.23,2.21,2.03,1.83,-2.12,-2.13,-2.11
25.91,-4.33,-2.22,-4.32,-2.21,2.18,2.01,1.87,-2.15,-2.15,-2.11
26.16,-4.30,-2.18,-4.29,-2.18,2.14,1.99,1.92,-2.15,-2.15,-2.12
26.43,-4.24,-2.12,-4.24,-2.12,2.11,1.97,1.97,-2.13,-2.13,-2.12
26.69,-4.19,-2.06,-4.19,-2.06,2.08,1.95,2.01,-2.11,-2.11,-2.13
26.96,-4.14,-2.00,-4.15,-2.02,2.05,1.93,2.06,-2.09,-2.10,-2.14
27.23,-4.13,-1.99,-4.13,-1.99,2.02,1.90,2.10,-2.11,-2.11,-2.14
27.50,-4.13,-1.98,-4.13,-1.98,2.00,1.88,2.14,-2.13,-2.13,-2.15
27.77,-4.13,-1.97,-4.13,-1.97,1.98,1.86,2.18,-2.15,-2.15,-2.16
28.05,-4.13,-1.96,-4.13,-1.97,1.97,1.85,2.22,-2.16,-2.16,-2.17
28.33,-4.13,-1.96,-4.13,-1.96,1.95,1.83,2.26,-2.18,-2.18,-2.17
28.62,-4.13,-1.96,-4.13,-1.96,1.94,1.81,2.29,-2.19,-2.20,-2.17
28.90,-4.13,-1.95,-4.12,-1.95,1.91,1.79,2.33,-2.22,-2.21,-2.18
29.19,-4.09,-1.92,-4.08,-1.91,1.89,1.77,2.35,-2.20,-2.20,-2.17
29.48,-4.03,-1.86,-4.03,-1.86,1.86,1.75,2.38,-2.17,-2.17,-2.17
29.78,-3.97,-1.80,-3.98,-1.81,1.83,1.73,2.40,-2.14,-2.14,-2.17
30.08,-3.93,-1.76,-3.94,-1.77,1.81,1.71,2.42,-2.13,-2.14,-2.17
30.38,-3.93,-1.76,-3.93,-1.76,1.78,1.69,2.44,-2.15,-2.14,-2.17
30.68,-3.93,-1.76,-3.93,-1.76,1.77,1.68,2.45,-2.16,-2.16,-2.17
30.99,-3.93,-1.76,-3.93,-1.76,1.76,1.66,2.46,-2.17,-2.17,-2.17
31.30,-3.93,-1.76,-3.93,-1.76,1.76,1.64,2.47,-2.17,-2.17,-2.17
31.61,-3.93,-1.76,-3.93,-1.76,1.76,1.62,2.47,-2.17,-2.17,-2.17
31.93,-3.93,-1.76,-3.93,-1.76,1.76,1.61,2.47,-2.17,-2.17,-2.17
32.24,-3.93,-1.75,-3.93,-1.76,1.76,1.59,2.46,-2.17,-2.17,-2.18
32.57,-3.93,-1.75,-3.93,-1.76,1.75,1.57,2.46,-2.18,-2.18,-2.18
32.89,-3.93,-1.75,-3.93,-1.75,1.73,1.56,2.44,-2.20,-2.19,-2.18
33.22,-3.91,-1.73,-3.90,-1.73,1.71,1.54,2.43,-2.20,-2.20,-2.18
33.55,-3.87,-1.69,-3.87,-1.69,1.68,1.52,2.41,-2.19,-2.19,-2.18
33.89,-3.83,-1.64,-3.83,-1.65,1.65,1.51,2.39,-2.18,-2.19,-2.19
34.23,-3.80,-1.61,-3.79,-1.61,1.62,1.49,2.36,-2.18,-2.18,-2.19
34.57,-3.76,-1.57,-3.76,-1.57,1.59,1.48,2.33,-2.17,-2.17,-2.19
34.92,-3.73,-1.54,-3.74,-1.55,1.56,1.46,2.30,-2.17,-2.17,-2.19
35.27,-3.72,-1.53,-3.72,-1.53,1.54,1.45,2.27,-2.18,-2.18,-2.19
35.62,-3.72,-1.53,-3.72,-1.53,1.53,1.43,2.24,-2.19,-2.19,-2.19
35.97,-3.72,-1.52,-3.72,-1.52,1.52,1.42,2.21,-2.20,-2.20,-2.20
36.33,-3.72,-1.52,-3.72,-1.52,1.52,1.40,2.17,-2.20,-2.20,-2.20
36.70,-3.72,-1.52,-3.72,-1.52,1.52,1.39,2.13,-2.20,-2.20,-2.20
37.06,-3.72,-1.52,-3.72,-1.52,1.52,1.38,2.10,-2.20,-2.20,-2.20
37.43,-3.72,-1.51,-3.72,-1.52,1.51,1.36,2.06,-2.21,-2.21,-2.21
37.81,-3.72,-1.51,-3.72,-1.51,1.51,1.35,2.02,-2.21,-2.21,-2.21
38.19,-3.72,-1.50,-3.72,-1.50,1.51,1.33,1.98,-2.21,-2.21,-2.22
38.57,-3.72,-1.49,-3.72,-1.49,1.50,1.32,1.94,-2.22,-2.22,-2.23
38.95,-3.72,-1.48,-3.72,-1.48,1.48,1.31,1.91,-2.24,-2.23,-2.24
39.34,-3.71,-1.47,-3.72,-1.47,1.47,1.30,1.87,-2.24,-2.25,-2.24
39.74,-3.71,-1.46,-3.71,-1.46,1.44,1.28,1.83,-2.27,-2.26,-2.25
40.14,-3.69,-1.43,-3.69,-1.43,1.41,1.27,1.80,-2.28,-2.27,-2.26
40.54,-3.66,-1.39,-3.66,-1.39,1.38,1.26,1.76,-2.28,-2.28,-2.27
40.94,-3.62,-1.35,-3.62,-1.35,1.35,1.25,1.72,-2.27,-2.27,-2.27
41.35,-3.58,-1.31,-3.58,-1.31,1.32,1.23,1.69,-2.26,-2.26,-2.27
41.76,-3.54,-1.27,-3.54,-1.28,1.30,1.22,1.66,-2.24,-2.25,-2.27
42.18,-3.52,-1.25,-3.52,-1.26,1.27,1.21,1.63,-2.25,-2.25,-2.27
42.60,-3.52,-1.25,-3.52,-1.25,1.26,1.20,1.59,-2.26,-2.26,-2.27
43.03,-3.52,-1.25,-3.52,-1.25,1.25,1.19,1.56,-2.27,-2.27,-2.27
43.46,-3.52,-1.25,-3.52,-1.26,1.25,1.18,1.54,-2.27,-2.27,-2.27
43.90,-3.52,-1.26,-3.52,-1.26,1.25,1.17,1.51,-2.27,-2.27,-2.26
44.33,-3.52,-1.26,-3.52,-1.26,1.26,1.16,1.48,-2.26,-2.26,-2.26
44.78,-3.52,-1.26,-3.52,-1.26,1.26,1.15,1.46,-2.26,-2.26,-2.26
45.23,-3.52,-1.26,-3.52,-1.26,1.26,1.14,1.43,-2.26,-2.26,-2.26
45.68,-3.52,-1.26,-3.52,-1.26,1.26,1.13,1.41,-2.26,-2.26,-2.26
46.13,-3.52,-1.26,-3.52,-1.26,1.26,1.12,1.39,-2.26,-2.26,-2.26
46.60,-3.52,-1.26,-3.52,-1.26,1.26,1.11,1.37,-2.26,-2.26,-2.26
47.06,-3.52,-1.26,-3.52,-1.26,1.26,1.10,1.35,-2.26,-2.26,-2.26
47.53,-3.52,-1.26,-3.52,-1.26,1.26,1.09,1.33,-2.26,-2.26,-2.26
48.01,-3.52,-1.25,-3.52,-1.26,1.26,1.08,1.31,-2.26,-2.26,-2.27
48.49,-3.52,-1.25,-3.52,-1.25,1.25,1.07,1.29,-2.27,-2.27,-2.27
48.97,-3.52,-1.24,-3.52,-1.25,1.24,1.06,1.28,-2.28,-2.28,-2.28
49.46,-3.52,-1.24,-3.52,-1.24,1.23,1.05,1.27,-2.29,-2.30,-2.28
49.96,-3.52,-1.24,-3.50,-1.22,1.21,1.04,1.25,-2.31,-2.29,-2.28
50.46,-3.47,-1.19,-3.47,-1.20,1.20,1.04,1.24,-2.27,-2.27,-2.28
50.96,-3.42,-1.15,-3.44,-1.17,1.18,1.03,1.23,-2.24,-2.26,-2.27
51.47,-3.42,-1.15,-3.42,-1.15,1.17,1.02,1.22,-2.25,-2.25,-2.27
51.99,-3.42,-1.15,-3.42,-1.15,1.16,1.01,1.21,-2.26,-2.26,-2.27
52.51,-3.42,-1.14,-3.42,-1.15,1.15,1.00,1.20,-2.27,-2.27,-2.28
53.03,-3.42,-1.14,-3.42,-1.14,1.14,1.00,1.19,-2.28,-2.28,-2.28
53.56,-3.42,-1.14,-3.42,-1.14,1.13,0.99,1.18,-2.29,-2.29,-2.28
54.10,-3.42,-1.14,-3.42,-1.15,1.13,0.98,1.17,-2.29,-2.30,-2.28
54.64,-3.42,-1.14,-3.41,-1.14,1.11,0.97,1.16,-2.31,-2.30,-2.28
55.18,-3.40,-1.12,-3.39,-1.11,1.10,0.97,1.15,-2.30,-2.29,-2.28
55.74,-3.35,-1.07,-3.36,-1.08,1.09,0.96,1.15,-2.26,-2.27,-2.28
56.29,-3.32,-1.04,-3.33,-1.05,1.07,0.95,1.14,-2.25,-2.26,-2.28
56.86,-3.32,-1.04,-3.32,-1.04,1.06,0.94,1.13,-2.26,-2.26,-2.28
57.42,-3.32,-1.04,-3.32,-1.04,1.05,0.94,1.13,-2.27,-2.27,-2.28
58.00,-3.32,-1.04,-3.32,-1.04,1.04,0.93,1.12,-2.28,-2.28,-2.28
58.58,-3.32,-1.04,-3.32,-1.04,1.04,0.92,1.11,-2.28,-2.28,-2.28
59.16,-3.32,-1.04,-3.32,-1.04,1.04,0.92,1.11,-2.28,-2.28,-2.28
59.76,-3.32,-1.04,-3.32,-1.04,1.04,0.91,1.10,-2.28,-2.28,-2.28
60.35,-3.32,-1.04,-3.32,-1.05,1.05,0.91,1.09,-2.27,-2.27,-2.28
60.96,-3.32,-1.05,-3.32,-1.05,1.05,0.90,1.08,-2.27,-2.27,-2.27
61.57,-3.32,-1.05,-3.32,-1.05,1.05,0.89,1.07,-2.27,-2.27,-2.27
62.18,-3.32,-1.05,-3.32,-1.05,1.05,0.89,1.07,-2.27,-2.27,-2.27
62.80,-3.32,-1.04,-3.32,-1.05,1.04,0.88,1.06,-2.28,-2.28,-2.28
63.43,-3.32,-1.04,-3.32,-1.04,1.04,0.88,1.05,-2.28,-2.28,-2.28
64.07,-3.32,-1.03,-3.32,-1.03,1.04,0.87,1.04,-2.28,-2.28,-2.29
64.71,-3.32,-1.03,-3.32,-1.03,1.03,0.87,1.03,-2.29,-2.29,-2.29
65.35,-3.32,-1.02,-3.32,-1.02,1.03,0.86,1.02,-2.29,-2.29,-2.30
66.01,-3.32,-1.02,-3.32,-1.02,1.02,0.85,1.00,-2.30,-2.30,-2.30
66.67,-3.32,-1.01,-3.32,-1.01,1.01,0.85,0.99,-2.31,-2.31,-2.31
67.33,-3.32,-1.01,-3.32,-1.01,1.01,0.84,0.98,-2.31,-2.31,-2.31
68.01,-3.32,-1.00,-3.32,-1.00,1.00,0.84,0.97,-2.32,-2.32,-2.32
68.69,-3.32,-1.00,-3.32,-1.00,1.00,0.83,0.96,-2.32,-2.32,-2.32
69.37,-3.32,-0.99,-3.32,-0.99,0.99,0.83,0.95,-2.33,-2.33,-2.33
70.07,-3.32,-0.99,-3.32,-0.99,0.99,0.82,0.93,-2.33,-2.33,-2.33
70.77,-3.32,-0.98,-3.32,-0.98,0.98,0.82,0.92,-2.34,-2.34,-2.34
71.48,-3.32,-0.98,-3.32,-0.98,0.98,0.82,0.91,-2.34,-2.34,-2.34
72.19,-3.32,-0.97,-3.32,-0.97,0.98,0.81,0.90,-2.34,-2.34,-2.35
72.91,-3.32,-0.97,-3.32,-0.97,0.98,0.81,0.88,-2.34,-2.34,-2.35
73.64,-3.32,-0.97,-3.32,-0.97,0.98,0.80,0.87,-2.34,-2.34,-2.35
74.38,-3.32,-0.97,-3.32,-0.97,0.97,0.80,0.86,-2.35,-2.35,-2.35
75.12,-3.32,-0.97,-3.32,-0.97,0.96,0.79,0.85,-2.36,-2.36,-2.35
75.87,-3.32,-0.96,-3.32,-0.97,0.95,0.79,0.84,-2.37,-2.38,-2.36
76.63,-3.32,-0.96,-3.30,-0.95,0.93,0.79,0.82,-2.39,-2.37,-2.36
77.40,-3.28,-0.92,-3.27,-0.91,0.92,0.78,0.81,-2.36,-2.36,-2.36
78.17,-3.22,-0.86,-3.24,-0.88,0.90,0.78,0.80,-2.32,-2.34,-2.36
78.95,-3.22,-0.86,-3.22,-0.86,0.89,0.77,0.79,-2.34,-2.33,-2.36
79.74,-3.22,-0.86,-3.21,-0.86,0.87,0.77,0.78,-2.35,-2.34,-2.36
80.54,-3.22,-0.86,-3.22,-0.86,0.86,0.77,0.77,-2.36,-2.36,-2.36
81.35,-3.22,-0.86,-3.22,-0.86,0.85,0.76,0.77,-2.37,-2.37,-2.36
82.16,-3.22,-0.86,-3.22,-0.86,0.85,0.76,0.76,-2.37,-2.37,-2.36
82.98,-3.22,-0.85,-3.22,-0.86,0.85,0.75,0.75,-2.37,-2.37,-2.37
83.81,-3.22,-0.85,-3.22,-0.85,0.85,0.75,0.74,-2.37,-2.37,-2.37
84.65,-3.22,-0.85,-3.22,-0.85,0.85,0.75,0.73,-2.37,-2.37,-2.37
85.50,-3.22,-0.84,-3.22,-0.85,0.85,0.74,0.73,-2.37,-2.37,-2.38
86.35,-3.22,-0.84,-3.22,-0.84,0.84,0.74,0.72,-2.38,-2.38,-2.38
87.22,-3.22,-0.83,-3.22,-0.84,0.84,0.74,0.72,-2.38,-2.38,-2.39
88.09,-3.22,-0.83,-3.22,-0.83,0.83,0.73,0.71,-2.39,-2.39,-2.39
88.97,-3.22,-0.82,-3.22,-0.82,0.82,0.73,0.71,-2.40,-2.40,-2.40
89.86,-3.22,-0.81,-3.22,-0.82,0.81,0.73,0.70,-2.41,-2.41,-2.41
90.76,-3.22,-0.81,-3.22,-0.81,0.80,0.73,0.70,-2.42,-2.41,-2.41
91.66,-3.21,-0.79,-3.21,-0.80,0.79,0.72,0.70,-2.42,-2.42,-2.42
92.58,-3.21,-0.78,-3.21,-0.78,0.78,0.72,0.70,-2.43,-2.42,-2.43
93.51,-3.21,-0.77,-3.21,-0.77,0.77,0.72,0.70,-2.44,-2.44,-2.44
94.44,-3.21,-0.76,-3.21,-0.77,0.76,0.71,0.69,-2.45,-2.45,-2.45
95.39,-3.22,-0.76,-3.22,-0.76,0.76,0.71,0.69,-2.46,-2.46,-2.46
96.34,-3.22,-0.75,-3.22,-0.75,0.75,0.71,0.69,-2.47,-2.47,-2.47
97.30,-3.22,-0.73,-3.22,-0.74,0.74,0.70,0.69,-2.48,-2.48,-2.49
98.28,-3.23,-0.73,-3.23,-0.73,0.74,0.70,0.69,-2.49,-2.49,-2.50
99.26,-3.25,-0.73,-3.25,-0.73,0.73,0.70,0.69,-2.52,-2.52,-2.52
100.25,-3.27,-0.73,-3.27,-0.73,0.73,0.70,0.70,-2.54,-2.54,-2.54
101.25,-3.29,-0.73,-3.29,-0.73,0.72,0.69,0.70,-2.57,-2.56,-2.56
102.27,-3.30,-0.72,-3.30,-0.72,0.72,0.69,0.70,-2.58,-2.58,-2.58
103.29,-3.31,-0.71,-3.31,-0.71,0.72,0.69,0.70,-2.59,-2.60,-2.60
104.32,-3.33,-0.71,-3.33,-0.71,0.71,0.69,0.70,-2.62,-2.62,-2.62
105.37,-3.35,-0.70,-3.35,-0.71,0.71,0.68,0.71,-2.64,-2.64,-2.65
106.42,-3.38,-0.71,-3.38,-0.71,0.71,0.68,0.71,-2.67,-2.66,-2.67
107.48,-3.40,-0.71,-3.40,-0.71,0.71,0.68,0.71,-2.69,-2.69,-2.69
108.56,-3.43,-0.72,-3.43,-0.72,0.72,0.68,0.71,-2.71,-2.71,-2.71
109.64,-3.45,-0.72,-3.45,-0.72,0.72,0.67,0.72,-2.73,-2.73,-2.73
110.74,-3.46,-0.72,-3.46,-0.72,0.72,0.67,0.72,-2.74,-2.74,-2.74
111.85,-3.48,-0.72,-3.48,-0.72,0.72,0.67,0.72,-2.76,-2.76,-2.76
112.97,-3.49,-0.72,-3.49,-0.72,0.72,0.67,0.72,-2.77,-2.77,-2.77
114.10,-3.50,-0.72,-3.50,-0.72,0.72,0.66,0.73,-2.78,-2.78,-2.78
115.24,-3.50,-0.71,-3.50,-0.71,0.71,0.66,0.73,-2.79,-2.79,-2.79
116.39,-3.50,-0.70,-3.50,-0.70,0.70,0.66,0.73,-2.80,-2.80,-2.80
117.55,-3.49,-0.69,-3.49,-0.69,0.69,0.66,0.73,-2.80,-2.80,-2.80
118.73,-3.49,-0.68,-3.49,-0.68,0.68,0.66,0.73,-2.81,-2.80,-2.81
119.92,-3.48,-0.67,-3.48,-0.67,0.67,0.65,0.73,-2.81,-2.81,-2.81
121.12,-3.48,-0.66,-3.48,-0.66,0.66,0.65,0.73,-2.82,-2.81,-2.82
122.33,-3.47,-0.65,-3.47,-0.66,0.66,0.65,0.73,-2.81,-2.81,-2.82
123.55,-3.46,-0.65,-3.46,-0.65,0.65,0.65,0.72,-2.81,-2.81,-2.81
124.79,-3.45,-0.64,-3.45,-0.64,0.64,0.65,0.72,-2.81,-2.81,-2.81
126.03,-3.45,-0.63,-3.45,-0.64,0.64,0.64,0.72,-2.81,-2.81,-2.82
127.29,-3.44,-0.63,-3.44,-0.63,0.63,0.64,0.72,-2.81,-2.81,-2.81
128.57,-3.43,-0.62,-3.43,-0.62,0.62,0.64,0.71,-2.81,-2.81,-2.81
129.85,-3.43,-0.62,-3.43,-0.62,0.62,0.64,0.71,-2.81,-2.81,-2.81
131.15,-3.42,-0.61,-3.42,-0.61,0.61,0.64,0.70,-2.81,-2.81,-2.81
132.46,-3.42,-0.61,-3.42,-0.61,0.61,0.63,0.69,-2.81,-2.81,-2.81
133.79,-3.41,-0.59,-3.41,-0.60,0.60,0.63,0.69,-2.81,-2.81,-2.82
135.12,-3.41,-0.59,-3.41,-0.59,0.59,0.63,0.68,-2.82,-2.82,-2.82
136.48,-3.41,-0.59,-3.41,-0.58,0.58,0.63,0.67,-2.83,-2.83,-2.82
137.84,-3.40,-0.57,-3.40,-0.58,0.57,0.63,0.67,-2.83,-2.83,-2.83
139.22,-3.40,-0.57,-3.40,-0.57,0.57,0.62,0.66,-2.83,-2.83,-2.83
140.61,-3.40,-0.56,-3.40,-0.56,0.57,0.62,0.65,-2.83,-2.83,-2.84
142.02,-3.40,-0.55,-3.40,-0.55,0.57,0.62,0.64,-2.83,-2.83,-2.85
143.44,-3.40,-0.54,-3.41,-0.56,0.57,0.62,0.63,-2.83,-2.84,-2.86
144.87,-3.43,-0.57,-3.44,-0.58,0.58,0.62,0.62,-2.85,-2.86,-2.86
146.32,-3.48,-0.61,-3.47,-0.60,0.58,0.61,0.61,-2.90,-2.88,-2.87
147.78,-3.50,-0.61,-3.49,-0.61,0.59,0.61,0.61,-2.91,-2.91,-2.89
149.26,-3.50,-0.60,-3.50,-0.61,0.59,0.61,0.60,-2.91,-2.91,-2.90
150.75,-3.50,-0.59,-3.50,-0.59,0.59,0.61,0.59,-2.91,-2.91,-2.91
152.26,-3.50,-0.58,-3.50,-0.59,0.59,0.61,0.58,-2.91,-2.91,-2.92
153.78,-3.50,-0.58,-3.50,-0.58,0.59,0.61,0.57,-2.91,-2.91,-2.92
155.32,-3.50,-0.57,-3.50,-0.57,0.58,0.60,0.56,-2.92,-2.92,-2.93
156.88,-3.50,-0.56,-3.50,-0.57,0.57,0.60,0.55,-2.93,-2.93,-2.94
158.44,-3.50,-0.56,-3.50,-0.56,0.56,0.60,0.54,-2.94,-2.94,-2.94
160.03,-3.50,-0.55,-3.50,-0.55,0.55,0.60,0.54,-2.95,-2.95,-2.95
161.63,-3.50,-0.54,-3.50,-0.54,0.54,0.60,0.53,-2.96,-2.96,-2.96
163.24,-3.50,-0.53,-3.50,-0.53,0.54,0.59,0.52,-2.96,-2.96,-2.97
164.88,-3.50,-0.52,-3.50,-0.53,0.53,0.59,0.51,-2.97,-2.97,-2.98
166.53,-3.51,-0.52,-3.51,-0.52,0.52,0.59,0.51,-2.99,-2.99,-2.99
168.19,-3.52,-0.52,-3.52,-0.52,0.52,0.59,0.50,-3.00,-3.00,-3.00
169.87,-3.52,-0.51,-3.52,-0.52,0.51,0.59,0.49,-3.01,-3.01,-3.01
171.57,-3.53,-0.51,-3.53,-0.51,0.51,0.58,0.49,-3.02,-3.02,-3.02
173.29,-3.54,-0.51,-3.54,-0.51,0.51,0.58,0.48,-3.03,-3.03,-3.03
175.02,-3.54,-0.50,-3.54,-0.51,0.51,0.58,0.48,-3.03,-3.03,-3.04
176.77,-3.54,-0.50,-3.54,-0.50,0.50,0.58,0.47,-3.04,-3.04,-3.04
178.54,-3.54,-0.49,-3.54,-0.50,0.50,0.58,0.47,-3.04,-3.04,-3.05
180.32,-3.54,-0.49,-3.54,-0.50,0.49,0.58,0.46,-3.05,-3.05,-3.05
182.13,-3.54,-0.49,-3.54,-0.49,0.48,0.57,0.46,-3.06,-3.06,-3.05
183.95,-3.53,-0.48,-3.53,-0.48,0.47,0.57,0.46,-3.06,-3.06,-3.05
185.79,-3.51,-0.45,-3.51,-0.46,0.46,0.57,0.45,-3.05,-3.06,-3.06
187.65,-3.50,-0.45,-3.50,-0.45,0.44,0.57,0.45,-3.06,-3.05,-3.05
189.52,-3.48,-0.43,-3.48,-0.43,0.43,0.57,0.45,-3.05,-3.05,-3.05
191.42,-3.47,-0.42,-3.47,-0.42,0.43,0.56,0.45,-3.04,-3.04,-3.05
193.33,-3.46,-0.41,-3.45,-0.41,0.43,0.56,0.45,-3.03,-3.02,-3.05
195.27,-3.44,-0.40,-3.45,-0.41,0.43,0.56,0.44,-3.01,-3.02,-3.04
197.22,-3.45,-0.41,-3.46,-0.43,0.43,0.56,0.44,-3.02,-3.03,-3.04
199.19,-3.50,-0.46,-3.48,-0.45,0.44,0.56,0.44,-3.06,-3.05,-3.04
201.18,-3.51,-0.47,-3.50,-0.46,0.45,0.55,0.44,-3.06,-3.06,-3.04
203.19,-3.50,-0.46,-3.51,-0.47,0.45,0.55,0.44,-3.05,-3.05,-3.04
205.23,-3.50,-0.46,-3.50,-0.46,0.46,0.55,0.44,-3.04,-3.04,-3.04
207.28,-3.50,-0.46,-3.50,-0.46,0.46,0.55,0.44,-3.04,-3.04,-3.04
209.35,-3.50,-0.45,-3.50,-0.46,0.46,0.54,0.44,-3.04,-3.04,-3.05
211.44,-3.51,-0.46,-3.51,-0.46,0.46,0.54,0.44,-3.05,-3.04,-3.05
213.56,-3.51,-0.46,-3.51,-0.46,0.46,0.54,0.44,-3.05,-3.05,-3.05
215.69,-3.51,-0.45,-3.51,-0.46,0.46,0.54,0.44,-3.05,-3.06,-3.06
217.85,-3.52,-0.46,-3.52,-0.46,0.46,0.54,0.44,-3.06,-3.06,-3.06
220.03,-3.52,-0.45,-3.52,-0.45,0.45,0.53,0.44,-3.07,-3.06,-3.07
222.23,-3.52,-0.45,-3.52,-0.45,0.45,0.53,0.44,-3.07,-3.07,-3.07
224.45,-3.52,-0.45,-3.52,-0.45,0.45,0.53,0.44,-3.07,-3.07,-3.07
226.70,-3.52,-0.45,-3.52,-0.45,0.45,0.53,0.45,-3.07,-3.07,-3.07
228.96,-3.52,-0.45,-3.52,-0.45,0.45,0.52,0.45,-3.07,-3.07,-3.07
231.25,-3.51,-0.45,-3.51,-0.45,0.45,0.52,0.45,-3.06,-3.05,-3.06
233.57,-3.50,-0.44,-3.50,-0.44,0.46,0.52,0.45,-3.04,-3.03,-3.06
235.90,-3.49,-0.44,-3.50,-0.45,0.47,0.52,0.45,-3.02,-3.03,-3.05
238.26,-3.51,-0.46,-3.52,-0.48,0.48,0.51,0.45,-3.03,-3.04,-3.05
240.64,-3.55,-0.52,-3.54,-0.51,0.49,0.51,0.44,-3.06,-3.05,-3.03
243.05,-3.55,-0.53,-3.54,-0.52,0.50,0.51,0.44,-3.05,-3.05,-3.02
245.48,-3.53,-0.52,-3.53,-0.52,0.50,0.51,0.44,-3.03,-3.03,-3.01
247.93,-3.50,-0.50,-3.50,-0.51,0.50,0.50,0.44,-3.00,-3.00,-3.00
250.41,-3.48,-0.49,-3.48,-0.49,0.50,0.50,0.44,-2.98,-2.98,-2.99
252.92,-3.46,-0.48,-3.46,-0.48,0.50,0.50,0.44,-2.96,-2.97,-2.98
255.45,-3.45,-0.48,-3.45,-0.48,0.49,0.50,0.44,-2.96,-2.96,-2.97
258.00,-3.44,-0.47,-3.44,-0.47,0.48,0.49,0.43,-2.96,-2.96,-2.97
260.58,-3.44,-0.47,-3.44,-0.47,0.47,0.49,0.43,-2.97,-2.97,-2.97
263.19,-3.43,-0.46,-3.44,-0.47,0.46,0.49,0.43,-2.97,-2.97,-2.97
265.82,-3.44,-0.46,-3.44,-0.46,0.46,0.48,0.42,-2.98,-2.97,-2.98
268.48,-3.44,-0.46,-3.44,-0.46,0.46,0.48,0.42,-2.98,-2.98,-2.98
271.16,-3.44,-0.45,-3.44,-0.46,0.46,0.48,0.42,-2.98,-2.99,-2.99
273.87,-3.45,-0.45,-3.45,-0.45,0.45,0.48,0.41,-3.00,-2.99,-3.00
276.61,-3.45,-0.45,-3.45,-0.45,0.45,0.47,0.41,-3.00,-3.00,-3.00
279.38,-3.45,-0.45,-3.45,-0.45,0.44,0.47,0.40,-3.01,-3.01,-3.00
282.17,-3.44,-0.43,-3.44,-0.44,0.44,0.47,0.40,-3.00,-3.01,-3.01
284.99,-3.44,-0.43,-3.44,-0.43,0.43,0.46,0.40,-3.01,-3.01,-3.01
287.84,-3.43,-0.42,-3.43,-0.42,0.42,0.46,0.39,-3.01,-3.01,-3.01
290.72,-3.42,-0.40,-3.42,-0.41,0.40,0.46,0.39,-3.02,-3.02,-3.02
293.63,-3.41,-0.39,-3.41,-0.39,0.39,0.45,0.38,-3.02,-3.02,-3.02
296.57,-3.40,-0.38,-3.40,-0.38,0.38,0.45,0.38,-3.02,-3.02,-3.02
299.53,-3.38,-0.37,-3.38,-0.37,0.37,0.44,0.38,-3.01,-3.01,-3.01
302.53,-3.37,-0.36,-3.36,-0.35,0.37,0.44,0.37,-3.00,-3.00,-3.01
305.55,-3.36,-0.34,-3.36,-0.35,0.37,0.44,0.37,-2.99,-2.99,-3.02
308.61,-3.35,-0.33,-3.37,-0.35,0.37,0.43,0.36,-2.98,-3.00,-3.02
311.69,-3.40,-0.38,-3.39,-0.37,0.38,0.43,0.36,-3.02,-3.02,-3.02
314.81,-3.43,-0.40,-3.42,-0.40,0.38,0.43,0.36,-3.05,-3.04,-3.03
317.96,-3.44,-0.41,-3.44,-0.41,0.39,0.42,0.35,-3.05,-3.05,-3.03
321.14,-3.44,-0.41,-3.44,-0.41,0.40,0.42,0.35,-3.04,-3.05,-3.03
324.35,-3.44,-0.40,-3.44,-0.40,0.40,0.41,0.35,-3.04,-3.04,-3.04
327.59,-3.44,-0.39,-3.44,-0.40,0.40,0.41,0.35,-3.04,-3.04,-3.05
330.87,-3.44,-0.39,-3.44,-0.39,0.40,0.40,0.34,-3.04,-3.04,-3.05
334.18,-3.44,-0.39,-3.44,-0.39,0.40,0.40,0.34,-3.04,-3.04,-3.05
337.52,-3.45,-0.40,-3.45,-0.40,0.40,0.40,0.34,-3.05,-3.05,-3.05
340.90,-3.45,-0.39,-3.45,-0.40,0.39,0.39,0.34,-3.06,-3.06,-3.06
344.30,-3.45,-0.39,-3.45,-0.39,0.39,0.39,0.34,-3.06,-3.06,-3.06
347.75,-3.45,-0.39,-3.45,-0.39,0.39,0.38,0.34,-3.06,-3.06,-3.06
351.23,-3.45,-0.38,-3.45,-0.38,0.38,0.38,0.34,-3.07,-3.07,-3.07
354.74,-3.44,-0.37,-3.44,-0.38,0.37,0.37,0.34,-3.07,-3.07,-3.07
358.28,-3.44,-0.37,-3.44,-0.37,0.37,0.37,0.34,-3.07,-3.07,-3.07
361.87,-3.43,-0.36,-3.43,-0.37,0.36,0.36,0.34,-3.07,-3.07,-3.07
365.49,-3.43,-0.36,-3.43,-0.36,0.36,0.36,0.34,-3.07,-3.07,-3.07
369.14,-3.42,-0.35,-3.41,-0.35,0.36,0.35,0.34,-3.06,-3.05,-3.07
372.83,-3.41,-0.34,-3.41,-0.35,0.37,0.35,0.34,-3.04,-3.05,-3.07
376.56,-3.41,-0.34,-3.43,-0.36,0.37,0.34,0.34,-3.04,-3.06,-3.07
380.33,-3.47,-0.39,-3.46,-0.38,0.38,0.33,0.34,-3.09,-3.08,-3.08
384.13,-3.49,-0.41,-3.48,-0.40,0.38,0.33,0.35,-3.11,-3.10,-3.08
387.97,-3.49,-0.40,-3.49,-0.40,0.39,0.32,0.35,-3.10,-3.10,-3.09
391.85,-3.48,-0.38,-3.49,-0.39,0.38,0.32,0.35,-3.10,-3.10,-3.10
395.77,-3.48,-0.37,-3.48,-0.37,0.37,0.31,0.35,-3.11,-3.11,-3.11
399.73,-3.48,-0.36,-3.48,-0.37,0.36,0.30,0.36,-3.12,-3.13,-3.12
403.72,-3.48,-0.35,-3.48,-0.35,0.33,0.30,0.36,-3.15,-3.15,-3.13
407.76,-3.48,-0.33,-3.46,-0.31,0.31,0.29,0.36,-3.17,-3.15,-3.15
411.84,-3.42,-0.26,-3.43,-0.27,0.28,0.28,0.36,-3.14,-3.15,-3.16
415.96,-3.39,-0.22,-3.40,-0.23,0.25,0.28,0.36,-3.14,-3.15,-3.17
420.12,-3.39,-0.21,-3.39,-0.21,0.23,0.27,0.37,-3.16,-3.16,-3.18
424.32,-3.39,-0.21,-3.39,-0.21,0.21,0.26,0.37,-3.18,-3.18,-3.18
428.56,-3.38,-0.20,-3.38,-0.20,0.19,0.26,0.37,-3.19,-3.19,-3.18
432.85,-3.36,-0.19,-3.36,-0.19,0.18,0.25,0.37,-3.18,-3.18,-3.17
437.18,-3.33,-0.18,-3.33,-0.18,0.18,0.24,0.37,-3.15,-3.15,-3.15
441.55,-3.30,-0.17,-3.29,-0.16,0.18,0.23,0.37,-3.12,-3.11,-3.13
445.96,-3.25,-0.15,-3.26,-0.17,0.19,0.23,0.37,-3.07,-3.08,-3.10
