frequency,raw,error,smoothed,error_smoothed,equalization,parametric_eq,fixed_band_eq,equalized_raw,equalized_smoothed,target
20.00,-2.89,-10.58,-2.89,-10.58,6.00,5.73,2.66,3.11,3.11,7.69
20.20,-2.80,-10.46,-2.80,-10.46,6.00,5.76,2.74,3.20,3.20,7.65
20.40,-2.71,-10.35,-2.71,-10.35,6.00,5.79,2.82,3.29,3.29,7.63
20.61,-2.63,-10.24,-2.63,-10.24,6.00,5.82,2.90,3.37,3.37,7.61
20.81,-2.54,-10.14,-2.54,-10.13,6.00,5.85,2.98,3.46,3.46,7.59
21.02,-2.45,-10.03,-2.46,-10.03,6.00,5.87,3.07,3.55,3.54,7.57
21.23,-2.37,-9.93,-2.37,-9.92,6.00,5.90,3.16,3.63,3.63,7.55
21.44,-2.28,-9.82,-2.29,-9.82,6.00,5.92,3.25,3.72,3.71,7.53
21.66,-2.20,-9.72,-2.20,-9.72,6.00,5.95,3.35,3.80,3.80,7.51
21.87,-2.12,-9.62,-2.12,-9.62,6.00,5.97,3.44,3.88,3.88,7.50
22.09,-2.03,-9.51,-2.04,-9.52,6.00,5.99,3.54,3.97,3.96,7.48
22.31,-1.95,-9.42,-1.95,-9.43,6.00,6.01,3.65,4.05,4.05,7.47
22.54,-1.88,-9.34,-1.88,-9.34,6.00,6.03,3.75,4.12,4.12,7.46
22.76,-1.80,-9.25,-1.80,-9.25,6.00,6.05,3.86,4.20,4.20,7.45
22.99,-1.72,-9.16,-1.72,-9.16,6.00,6.07,3.97,4.28,4.28,7.44
23.22,-1.64,-9.07,-1.64,-9.07,6.00,6.08,4.08,4.36,4.36,7.43
23.45,-1.56,-8.98,-1.56,-8.98,6.00,6.10,4.20,4.44,4.44,7.42
23.69,-1.49,-8.89,-1.49,-8.90,6.00,6.11,4.32,4.51,4.51,7.41
23.92,-1.41,-8.82,-1.41,-8.82,6.00,6.12,4.44,4.59,4.59,7.41
24.16,-1.34,-8.74,-1.34,-8.74,6.00,6.13,4.56,4.66,4.66,7.40
24.40,-1.26,-8.66,-1.26,-8.66,6.00,6.14,4.69,4.74,4.74,7.40
24.65,-1.18,-8.57,-1.19,-8.58,6.00,6.15,4.81,4.82,4.81,7.39
24.89,-1.12,-8.51,-1.12,-8.50,6.00,6.16,4.94,4.88,4.88,7.38
25.14,-1.05,-8.43,-1.05,-8.42,6.00,6.17,5.07,4.95,4.95,7.37
25.39,-0.97,-8.33,-0.97,-8.34,6.00,6.17,5.20,5.03,5.03,7.36
25.65,-0.88,-8.25,-0.89,-8.25,6.00,6.17,5.33,5.12,5.11,7.36
25.91,-0.82,-8.18,-0.82,-8.18,6.00,6.18,5.46,5.18,5.18,7.35
26.16,-0.75,-8.10,-0.75,-8.10,6.00,6.18,5.59,5.25,5.25,7.35
26.43,-0.68,-8.02,-0.67,-8.02,6.00,6.18,5.73,5.32,5.33,7.35
26.69,-0.59,-7.93,-0.59,-7.94,6.00,6.18,5.85,5.41,5.41,7.34
26.96,-0.51,-7.85,-0.52,-7.85,6.00,6.17,5.98,5.49,5.48,7.34
27.23,-0.44,-7.77,-0.44,-7.77,6.00,6.17,6.11,5.56,5.56,7.33
27.50,-0.37,-7.70,-0.37,-7.69,6.00,6.16,6.23,5.63,5.63,7.32
27.77,-0.29,-7.62,-0.29,-7.61,6.00,6.16,6.35,5.71,5.71,7.32
28.05,-0.21,-7.53,-0.22,-7.53,6.00,6.15,6.46,5.79,5.78,7.31
28.33,-0.14,-7.45,-0.14,-7.45,6.00,6.14,6.57,5.86,5.86,7.31
28.62,-0.07,-7.38,-0.07,-7.38,6.00,6.13,6.67,5.93,5.93,7.31
28.90,-0.00,-7.30,-0.01,-7.31,6.00,6.12,6.76,6.00,5.99,7.30
29.19,0.06,-7.24,0.06,-7.24,6.00,6.10,6.85,6.06,6.06,7.30
29.48,0.13,-7.17,0.13,-7.17,6.00,6.09,6.92,6.13,6.13,7.30
29.78,0.20,-7.10,0.20,-7.10,6.00,6.07,6.99,6.20,6.20,7.29
30.08,0.27,-7.03,0.26,-7.03,6.00,6.05,7.04,6.27,6.26,7.29
30.38,0.33,-6.96,0.32,-6.96,6.00,6.03,7.09,6.33,6.32,7.28
30.68,0.39,-6.89,0.39,-6.89,6.00,6.01,7.12,6.39,6.39,7.28
30.99,0.45,-6.83,0.45,-6.82,6.00,5.99,7.15,6.45,6.45,7.28
31.30,0.53,-6.75,0.52,-6.75,6.00,5.97,7.16,6.53,6.52,7.28
31.61,0.59,-6.68,0.58,-6.68,6.00,5.95,7.15,6.59,6.58,7.26
31.93,0.65,-6.62,0.64,-6.62,6.00,5.92,7.14,6.65,6.64,7.26
32.24,0.70,-6.56,0.70,-6.55,6.00,5.89,7.12,6.70,6.70,7.26
32.57,0.77,-6.48,0.77,-6.48,6.00,5.87,7.08,6.77,6.77,7.25
32.89,0.84,-6.41,0.84,-6.41,6.01,5.84,7.03,6.84,6.84,7.24
33.22,0.91,-6.34,0.90,-6.33,6.01,5.81,6.98,6.92,6.91,7.24
33.55,0.97,-6.26,0.97,-6.27,6.01,5.78,6.91,6.98,6.98,7.23
33.89,1.03,-6.20,1.03,-6.20,6.01,5.74,6.84,7.03,7.03,7.23
34.23,1.09,-6.14,1.09,-6.13,6.00,5.71,6.75,7.08,7.09,7.22
34.57,1.17,-6.05,1.16,-6.05,5.97,5.68,6.66,7.14,7.14,7.21
34.92,1.24,-5.97,1.23,-5.98,5.94,5.64,6.57,7.18,7.17,7.21
35.27,1.30,-5.91,1.29,-5.91,5.90,5.60,6.47,7.19,7.19,7.21
35.62,1.35,-5.85,1.35,-5.85,5.85,5.57,6.36,7.19,7.20,7.19
35.97,1.41,-5.78,1.41,-5.78,5.79,5.53,6.25,7.20,7.20,7.19
36.33,1.48,-5.71,1.48,-5.71,5.72,5.49,6.14,7.20,7.20,7.19
36.70,1.55,-5.64,1.54,-5.64,5.65,5.45,6.03,7.20,7.20,7.18
37.06,1.61,-5.57,1.60,-5.57,5.58,5.40,5.92,7.19,7.18,7.18
37.43,1.66,-5.51,1.66,-5.51,5.51,5.36,5.80,7.17,7.17,7.17
37.81,1.71,-5.45,1.71,-5.45,5.44,5.32,5.68,7.15,7.16,7.16
38.19,1.78,-5.38,1.78,-5.38,5.38,5.27,5.57,7.15,7.15,7.16
38.57,1.85,-5.30,1.84,-5.31,5.31,5.23,5.45,7.15,7.15,7.14
38.95,1.90,-5.24,1.90,-5.24,5.24,5.18,5.34,7.14,7.14,7.14
39.34,1.95,-5.18,1.95,-5.17,5.17,5.13,5.23,7.12,7.12,7.12
39.74,2.01,-5.11,2.01,-5.11,5.10,5.08,5.12,7.11,7.11,7.12
40.14,2.08,-5.03,2.07,-5.03,5.03,5.03,5.01,7.11,7.11,7.10
40.54,2.15,-4.95,2.14,-4.96,4.96,4.98,4.90,7.11,7.10,7.10
40.94,2.21,-4.89,2.21,-4.89,4.89,4.93,4.80,7.10,7.10,7.09
41.35,2.27,-4.82,2.27,-4.82,4.82,4.88,4.70,7.09,7.09,7.09
41.76,2.33,-4.75,2.33,-4.75,4.75,4.83,4.60,7.08,7.08,7.08
42.18,2.39,-4.69,2.39,-4.69,4.68,4.78,4.50,7.07,7.07,7.08
42.60,2.46,-4.61,2.46,-4.61,4.62,4.72,4.41,7.07,7.07,7.07
43.03,2.53,-4.55,2.52,-4.55,4.55,4.67,4.32,7.08,7.07,7.07
43.46,2.59,-4.48,2.58,-4.48,4.48,4.61,4.24,7.07,7.07,7.07
43.90,2.64,-4.42,2.64,-4.42,4.42,4.56,4.15,7.05,7.06,7.06
44.33,2.70,-4.35,2.70,-4.35,4.35,4.50,4.07,7.05,7.05,7.05
44.78,2.76,-4.29,2.75,-4.29,4.29,4.44,3.99,7.04,7.04,7.04
45.23,2.82,-4.22,2.82,-4.22,4.22,4.38,3.92,7.03,7.04,7.04
45.68,2.88,-4.15,2.88,-4.15,4.15,4.33,3.85,7.03,7.03,7.03
46.13,2.94,-4.08,2.93,-4.09,4.09,4.27,3.78,7.02,7.02,7.02
46.60,2.99,-4.02,2.99,-4.02,4.02,4.21,3.72,7.01,7.01,7.01
47.06,3.05,-3.95,3.04,-3.95,3.96,4.15,3.65,7.00,7.00,7.00
47.53,3.10,-3.89,3.10,-3.89,3.89,4.09,3.59,6.99,6.98,6.98
48.01,3.15,-3.83,3.15,-3.83,3.82,4.03,3.54,6.97,6.97,6.97
48.49,3.20,-3.77,3.20,-3.76,3.76,3.97,3.48,6.96,6.96,6.96
48.97,3.25,-3.70,3.25,-3.70,3.70,3.91,3.43,6.94,6.95,6.95
49.46,3.31,-3.63,3.31,-3.63,3.64,3.84,3.38,6.94,6.94,6.94
49.96,3.36,-3.57,3.36,-3.57,3.58,3.78,3.33,6.94,6.94,6.93
50.46,3.42,-3.50,3.41,-3.51,3.52,3.72,3.29,6.94,6.93,6.92
50.96,3.45,-3.46,3.45,-3.46,3.47,3.65,3.25,6.91,6.91,6.90
51.47,3.48,-3.43,3.48,-3.42,3.41,3.59,3.20,6.89,6.89,6.90
51.99,3.52,-3.37,3.52,-3.37,3.36,3.53,3.16,6.87,6.88,6.89
52.51,3.57,-3.31,3.57,-3.31,3.30,3.46,3.12,6.87,6.87,6.88
53.03,3.62,-3.25,3.61,-3.25,3.25,3.40,3.09,6.87,6.86,6.86
53.56,3.66,-3.19,3.66,-3.19,3.20,3.33,3.05,6.86,6.86,6.85
54.10,3.70,-3.15,3.70,-3.14,3.15,3.27,3.01,6.84,6.84,6.84
54.64,3.74,-3.09,3.73,-3.09,3.09,3.20,2.98,6.83,6.83,6.83
55.18,3.77,-3.04,3.77,-3.04,3.04,3.14,2.94,6.80,6.81,6.81
55.74,3.81,-2.99,3.81,-2.99,2.98,3.07,2.91,6.79,6.79,6.79
56.29,3.85,-2.94,3.85,-2.93,2.93,3.00,2.87,6.78,6.78,6.79
56.86,3.90,-2.87,3.89,-2.88,2.88,2.94,2.84,6.77,6.77,6.77
57.42,3.94,-2.81,3.94,-2.82,2.82,2.87,2.80,6.76,6.76,6.75
58.00,3.98,-2.77,3.98,-2.76,2.77,2.80,2.76,6.74,6.74,6.74
58.58,4.02,-2.71,4.02,-2.71,2.71,2.74,2.72,6.72,6.72,6.72
59.16,4.06,-2.64,4.06,-2.65,2.65,2.67,2.68,6.70,6.70,6.70
59.76,4.10,-2.59,4.10,-2.59,2.59,2.60,2.64,6.68,6.68,6.69
60.35,4.14,-2.53,4.14,-2.53,2.52,2.53,2.60,6.66,6.66,6.67
60.96,4.19,-2.46,4.19,-2.46,2.46,2.47,2.55,6.64,6.64,6.65
61.57,4.24,-2.39,4.23,-2.39,2.39,2.40,2.51,6.63,6.62,6.62
62.18,4.28,-2.32,4.28,-2.32,2.32,2.33,2.46,6.60,6.60,6.60
62.80,4.33,-2.25,4.32,-2.25,2.25,2.26,2.40,6.58,6.58,6.58
63.43,4.37,-2.18,4.37,-2.18,2.18,2.19,2.35,6.55,6.55,6.55
64.07,4.41,-2.12,4.41,-2.11,2.11,2.13,2.30,6.52,6.52,6.52
64.71,4.46,-2.04,4.45,-2.04,2.05,2.06,2.24,6.50,6.50,6.50
65.35,4.50,-1.97,4.50,-1.97,1.98,1.99,2.18,6.48,6.48,6.47
66.01,4.54,-1.91,4.53,-1.91,1.91,1.92,2.12,6.45,6.45,6.44
66.67,4.57,-1.85,4.57,-1.85,1.85,1.85,2.05,6.42,6.42,6.41
67.33,4.60,-1.79,4.60,-1.79,1.78,1.78,1.99,6.38,6.38,6.38
68.01,4.63,-1.73,4.63,-1.73,1.72,1.71,1.92,6.34,6.35,6.35
68.69,4.67,-1.66,4.66,-1.66,1.65,1.64,1.85,6.32,6.31,6.32
69.37,4.70,-1.59,4.70,-1.59,1.59,1.57,1.78,6.28,6.28,6.29
70.07,4.74,-1.52,4.74,-1.52,1.52,1.50,1.70,6.26,6.26,6.26
70.77,4.78,-1.45,4.78,-1.45,1.46,1.43,1.63,6.24,6.24,6.22
71.48,4.82,-1.38,4.81,-1.38,1.40,1.37,1.55,6.21,6.21,6.20
72.19,4.84,-1.33,4.84,-1.32,1.33,1.30,1.47,6.17,6.17,6.16
72.91,4.86,-1.27,4.86,-1.27,1.27,1.23,1.40,6.13,6.13,6.13
73.64,4.88,-1.21,4.88,-1.22,1.21,1.16,1.32,6.09,6.08,6.09
74.38,4.90,-1.17,4.90,-1.16,1.15,1.09,1.24,6.04,6.05,6.06
75.12,4.94,-1.09,4.94,-1.09,1.08,1.02,1.16,6.01,6.01,6.02
75.87,4.98,-1.02,4.97,-1.01,1.01,0.95,1.08,5.98,5.98,5.99
76.63,5.02,-0.94,5.02,-0.94,0.94,0.88,0.99,5.95,5.95,5.95
77.40,5.06,-0.85,5.06,-0.86,0.86,0.81,0.91,5.92,5.92,5.91
78.17,5.10,-0.78,5.10,-0.78,0.78,0.74,0.83,5.88,5.88,5.88
78.95,5.14,-0.70,5.13,-0.70,0.71,0.67,0.75,5.84,5.84,5.83
79.74,5.17,-0.62,5.17,-0.63,0.63,0.60,0.66,5.80,5.80,5.79
80.54,5.20,-0.56,5.19,-0.56,0.56,0.53,0.58,5.75,5.75,5.76
81.35,5.22,-0.49,5.22,-0.49,0.49,0.46,0.50,5.70,5.70,5.71
82.16,5.25,-0.42,5.25,-0.42,0.42,0.39,0.41,5.66,5.66,5.66
82.98,5.27,-0.35,5.27,-0.35,0.35,0.32,0.33,5.62,5.62,5.62
83.81,5.30,-0.27,5.29,-0.28,0.29,0.25,0.25,5.58,5.58,5.57
84.65,5.31,-0.22,5.31,-0.22,0.22,0.19,0.16,5.53,5.53,5.53
85.50,5.32,-0.16,5.32,-0.16,0.16,0.12,0.08,5.48,5.48,5.48
86.35,5.33,-0.10,5.33,-0.10,0.10,0.05,-0.01,5.43,5.43,5.43
87.22,5.34,-0.04,5.34,-0.04,0.04,-0.02,-0.09,5.38,5.38,5.38
88.09,5.36,0.03,5.35,0.03,-0.02,-0.09,-0.18,5.33,5.33,5.33
88.97,5.37,0.09,5.36,0.09,-0.09,-0.16,-0.26,5.28,5.27,5.27
89.86,5.38,0.15,5.38,0.15,-0.16,-0.23,-0.35,5.22,5.22,5.22
90.76,5.39,0.22,5.39,0.22,-0.23,-0.30,-0.43,5.16,5.16,5.17
91.66,5.42,0.30,5.42,0.30,-0.31,-0.36,-0.52,5.11,5.11,5.11
92.58,5.45,0.39,5.44,0.38,-0.39,-0.43,-0.61,5.06,5.06,5.06
93.51,5.48,0.47,5.48,0.47,-0.47,-0.50,-0.69,5.01,5.01,5.01
94.44,5.51,0.56,5.51,0.56,-0.55,-0.57,-0.78,4.95,4.95,4.95
95.39,5.54,0.64,5.54,0.64,-0.64,-0.64,-0.87,4.90,4.90,4.89
96.34,5.57,0.73,5.57,0.73,-0.73,-0.70,-0.95,4.84,4.84,4.84
97.30,5.60,0.80,5.60,0.81,-0.81,-0.77,-1.04,4.79,4.79,4.79
98.28,5.63,0.89,5.62,0.89,-0.89,-0.84,-1.13,4.73,4.73,4.73
99.26,5.65,0.97,5.65,0.97,-0.97,-0.90,-1.21,4.68,4.68,4.68
100.25,5.67,1.05,5.67,1.04,-1.04,-0.97,-1.30,4.62,4.62,4.62
101.25,5.68,1.11,5.68,1.12,-1.11,-1.04,-1.39,4.57,4.57,4.56
102.27,5.69,1.18,5.69,1.18,-1.17,-1.10,-1.47,4.52,4.52,4.51
103.29,5.69,1.24,5.68,1.23,-1.22,-1.17,-1.56,4.47,4.46,4.45
104.32,5.68,1.28,5.67,1.28,-1.27,-1.23,-1.64,4.41,4.40,4.40
105.37,5.66,1.31,5.66,1.32,-1.32,-1.30,-1.73,4.34,4.34,4.34
106.42,5.65,1.36,5.65,1.36,-1.37,-1.37,-1.81,4.28,4.28,4.28
107.48,5.64,1.40,5.64,1.41,-1.42,-1.43,-1.89,4.21,4.22,4.24
108.56,5.65,1.47,5.64,1.47,-1.48,-1.49,-1.97,4.17,4.17,4.18
109.64,5.66,1.54,5.66,1.54,-1.54,-1.56,-2.05,4.11,4.11,4.12
110.74,5.68,1.61,5.68,1.61,-1.61,-1.62,-2.13,4.07,4.07,4.06
111.85,5.70,1.69,5.70,1.69,-1.68,-1.69,-2.20,4.01,4.01,4.01
112.97,5.73,1.77,5.72,1.77,-1.76,-1.75,-2.27,3.96,3.96,3.96
114.10,5.75,1.84,5.75,1.85,-1.85,-1.81,-2.34,3.90,3.90,3.90
115.24,5.78,1.93,5.78,1.93,-1.93,-1.87,-2.41,3.84,3.84,3.85
116.39,5.81,2.02,5.81,2.01,-2.02,-1.94,-2.47,3.79,3.79,3.79
117.55,5.85,2.10,5.84,2.10,-2.10,-2.00,-2.53,3.74,3.74,3.74
118.73,5.88,2.19,5.88,2.19,-2.18,-2.06,-2.59,3.69,3.69,3.69
119.92,5.91,2.27,5.90,2.27,-2.27,-2.12,-2.64,3.64,3.64,3.64
121.12,5.93,2.35,5.93,2.35,-2.34,-2.18,-2.69,3.58,3.59,3.58
122.33,5.96,2.42,5.95,2.42,-2.42,-2.24,-2.73,3.54,3.54,3.54
123.55,5.98,2.49,5.98,2.49,-2.49,-2.30,-2.77,3.49,3.49,3.48
124.79,6.00,2.55,6.00,2.56,-2.55,-2.35,-2.81,3.44,3.44,3.44
126.03,6.01,2.62,6.01,2.61,-2.61,-2.41,-2.84,3.40,3.40,3.39
127.29,6.02,2.67,6.01,2.67,-2.66,-2.47,-2.87,3.35,3.35,3.35
128.57,6.02,2.72,6.01,2.72,-2.71,-2.53,-2.90,3.31,3.30,3.30
129.85,6.01,2.76,6.01,2.76,-2.75,-2.58,-2.92,3.25,3.25,3.25
131.15,6.00,2.80,6.00,2.79,-2.80,-2.64,-2.93,3.20,3.20,3.20
132.46,5.99,2.82,5.99,2.83,-2.84,-2.69,-2.95,3.15,3.15,3.16
133.79,5.99,2.87,5.99,2.87,-2.88,-2.75,-2.96,3.11,3.11,3.11
135.12,5.99,2.92,5.99,2.92,-2.92,-2.80,-2.97,3.06,3.06,3.07
136.48,5.99,2.96,5.99,2.96,-2.96,-2.85,-2.97,3.02,3.02,3.02
137.84,5.99,3.01,5.99,3.01,-3.01,-2.90,-2.97,2.98,2.98,2.98
139.22,5.99,3.05,5.99,3.05,-3.05,-2.95,-2.97,2.94,2.94,2.93
140.61,5.99,3.10,5.99,3.09,-3.09,-3.00,-2.97,2.89,2.89,2.89
142.02,5.99,3.13,5.99,3.13,-3.13,-3.05,-2.97,2.85,2.85,2.86
143.44,5.99,3.17,5.99,3.17,-3.17,-3.10,-2.97,2.81,2.81,2.81
144.87,5.99,3.21,5.99,3.21,-3.21,-3.15,-2.96,2.78,2.78,2.77
146.32,5.99,3.24,5.99,3.25,-3.25,-3.19,-2.96,2.74,2.74,2.74
147.78,5.99,3.28,5.99,3.28,-3.28,-3.24,-2.95,2.70,2.70,2.70
149.26,5.99,3.32,5.99,3.32,-3.32,-3.28,-2.95,2.67,2.67,2.67
150.75,5.99,3.35,5.99,3.35,-3.35,-3.33,-2.94,2.64,2.64,2.64
152.26,5.99,3.38,5.99,3.38,-3.38,-3.37,-2.94,2.60,2.60,2.60
153.78,5.99,3.42,5.99,3.42,-3.42,-3.41,-2.94,2.57,2.57,2.57
155.32,5.99,3.45,5.99,3.45,-3.45,-3.45,-2.93,2.54,2.54,2.54
156.88,5.99,3.48,5.99,3.48,-3.48,-3.49,-2.93,2.50,2.50,2.51
158.44,5.99,3.51,5.99,3.51,-3.51,-3.53,-2.93,2.47,2.47,2.47
160.03,5.99,3.55,5.99,3.54,-3.54,-3.57,-2.94,2.44,2.44,2.44
161.63,5.99,3.58,5.99,3.57,-3.57,-3.60,-2.94,2.41,2.41,2.41
163.24,5.99,3.60,5.99,3.60,-3.60,-3.64,-2.95,2.39,2.39,2.39
164.88,5.99,3.63,5.99,3.63,-3.63,-3.67,-2.95,2.36,2.36,2.36
166.53,5.99,3.66,5.99,3.66,-3.66,-3.70,-2.96,2.33,2.33,2.33
168.19,5.99,3.69,5.99,3.68,-3.68,-3.73,-2.98,2.30,2.30,2.30
169.87,5.99,3.70,5.99,3.71,-3.71,-3.76,-2.99,2.28,2.28,2.28
171.57,5.99,3.73,5.99,3.73,-3.73,-3.79,-3.01,2.26,2.26,2.26
173.29,5.99,3.76,5.99,3.75,-3.75,-3.82,-3.03,2.23,2.23,2.23
175.02,5.99,3.78,5.99,3.78,-3.78,-3.85,-3.05,2.21,2.21,2.21
176.77,5.99,3.80,5.99,3.80,-3.80,-3.87,-3.07,2.19,2.19,2.19
178.54,5.99,3.82,5.99,3.82,-3.82,-3.90,-3.10,2.16,2.16,2.17
180.32,5.99,3.84,5.99,3.84,-3.84,-3.92,-3.13,2.14,2.14,2.14
182.13,5.99,3.86,5.99,3.86,-3.86,-3.94,-3.16,2.12,2.12,2.12
183.95,5.99,3.89,5.99,3.89,-3.89,-3.96,-3.19,2.10,2.10,2.10
185.79,5.99,3.91,5.99,3.91,-3.91,-3.98,-3.23,2.08,2.08,2.08
187.65,5.99,3.93,5.99,3.93,-3.93,-3.99,-3.27,2.06,2.06,2.06
189.52,5.99,3.95,5.99,3.95,-3.95,-4.01,-3.31,2.04,2.04,2.04
191.42,5.99,3.97,5.99,3.97,-3.97,-4.03,-3.35,2.02,2.02,2.02
193.33,5.99,3.99,5.99,3.99,-3.99,-4.04,-3.39,2.00,2.00,2.00
195.27,5.99,4.00,5.99,4.00,-4.00,-4.05,-3.44,1.98,1.98,1.98
197.22,5.99,4.02,5.99,4.02,-4.02,-4.06,-3.49,1.96,1.96,1.97
199.19,5.99,4.04,5.99,4.04,-4.04,-4.07,-3.54,1.95,1.95,1.95
201.18,6.00,4.05,5.99,4.05,-4.06,-4.08,-3.59,1.94,1.93,1.94
203.19,6.00,4.07,6.00,4.07,-4.07,-4.08,-3.64,1.92,1.93,1.93
205.23,6.01,4.08,6.01,4.09,-4.09,-4.09,-3.70,1.92,1.92,1.92
207.28,6.02,4.11,6.01,4.10,-4.10,-4.09,-3.75,1.92,1.91,1.91
209.35,6.01,4.11,6.01,4.11,-4.11,-4.10,-3.80,1.90,1.90,1.89
211.44,6.00,4.11,6.00,4.11,-4.11,-4.10,-3.86,1.89,1.89,1.89
213.56,5.99,4.11,5.98,4.11,-4.11,-4.10,-3.91,1.88,1.88,1.88
215.69,5.97,4.10,5.97,4.10,-4.10,-4.10,-3.97,1.87,1.87,1.86
217.85,5.95,4.10,5.94,4.09,-4.09,-4.09,-4.02,1.86,1.86,1.85
220.03,5.92,4.07,5.92,4.07,-4.07,-4.09,-4.07,1.84,1.85,1.85
222.23,5.89,4.05,5.89,4.05,-4.05,-4.08,-4.12,1.83,1.83,1.84
224.45,5.86,4.03,5.86,4.03,-4.03,-4.08,-4.17,1.83,1.83,1.83
226.70,5.83,4.01,5.83,4.01,-4.01,-4.07,-4.21,1.82,1.82,1.82
228.96,5.80,3.98,5.80,3.99,-3.98,-4.06,-4.25,1.81,1.81,1.81
231.25,5.77,3.96,5.76,3.96,-3.96,-4.05,-4.29,1.81,1.80,1.80
233.57,5.74,3.94,5.74,3.94,-3.94,-4.04,-4.32,1.80,1.80,1.80
235.90,5.71,3.91,5.71,3.92,-3.92,-4.03,-4.35,1.78,1.79,1.80
238.26,5.70,3.91,5.69,3.90,-3.91,-4.01,-4.38,1.79,1.78,1.79
240.64,5.68,3.89,5.68,3.89,-3.89,-4.00,-4.39,1.78,1.78,1.79
243.05,5.67,3.88,5.67,3.88,-3.88,-3.98,-4.41,1.78,1.79,1.79
245.48,5.67,3.87,5.66,3.87,-3.88,-3.97,-4.42,1.79,1.79,1.79
247.93,5.66,3.87,5.66,3.87,-3.87,-3.95,-4.42,1.79,1.79,1.78
250.41,5.65,3.86,5.65,3.86,-3.86,-3.93,-4.42,1.79,1.79,1.79
252.92,5.65,3.86,5.64,3.85,-3.84,-3.91,-4.41,1.80,1.80,1.79
255.45,5.63,3.83,5.63,3.84,-3.83,-3.89,-4.39,1.80,1.80,1.79
258.00,5.61,3.82,5.61,3.82,-3.81,-3.87,-4.37,1.80,1.80,1.79
260.58,5.58,3.79,5.58,3.79,-3.79,-3.85,-4.35,1.79,1.79,1.79
263.19,5.55,3.76,5.55,3.76,-3.76,-3.83,-4.31,1.78,1.78,1.78
265.82,5.52,3.74,5.52,3.73,-3.74,-3.80,-4.28,1.78,1.78,1.78
268.48,5.49,3.70,5.49,3.71,-3.71,-3.78,-4.24,1.78,1.78,1.78
271.16,5.46,3.68,5.46,3.68,-3.69,-3.75,-4.19,1.77,1.77,1.78
273.87,5.44,3.66,5.43,3.66,-3.66,-3.73,-4.14,1.77,1.77,1.77
276.61,5.41,3.63,5.41,3.64,-3.64,-3.70,-4.09,1.77,1.77,1.78
279.38,5.40,3.62,5.39,3.62,-3.62,-3.67,-4.03,1.78,1.77,1.77
282.17,5.38,3.60,5.37,3.60,-3.60,-3.64,-3.98,1.77,1.77,1.78
284.99,5.36,3.58,5.36,3.59,-3.59,-3.61,-3.91,1.77,1.77,1.77
287.84,5.34,3.57,5.34,3.57,-3.57,-3.58,-3.85,1.77,1.77,1.77
290.72,5.32,3.55,5.32,3.55,-3.55,-3.55,-3.79,1.76,1.76,1.76
293.63,5.30,3.54,5.30,3.54,-3.53,-3.52,-3.72,1.76,1.76,1.76
296.57,5.28,3.52,5.28,3.52,-3.52,-3.49,-3.65,1.76,1.76,1.76
299.53,5.26,3.49,5.26,3.50,-3.50,-3.46,-3.59,1.76,1.76,1.76
302.53,5.24,3.48,5.23,3.47,-3.48,-3.43,-3.52,1.76,1.76,1.76
305.55,5.21,3.45,5.21,3.45,-3.45,-3.39,-3.45,1.75,1.76,1.76
308.61,5.19,3.42,5.19,3.43,-3.43,-3.36,-3.39,1.76,1.76,1.76
311.69,5.17,3.41,5.16,3.40,-3.40,-3.33,-3.32,1.77,1.76,1.76
314.81,5.14,3.37,5.14,3.37,-3.37,-3.29,-3.26,1.77,1.77,1.77
317.96,5.11,3.34,5.10,3.34,-3.33,-3.26,-3.19,1.77,1.77,1.76
321.14,5.07,3.30,5.07,3.30,-3.30,-3.22,-3.13,1.77,1.77,1.77
324.35,5.04,3.27,5.03,3.27,-3.26,-3.19,-3.07,1.77,1.77,1.77
327.59,5.00,3.23,4.99,3.23,-3.23,-3.15,-3.01,1.77,1.76,1.76
330.87,4.96,3.18,4.96,3.19,-3.20,-3.12,-2.96,1.76,1.76,1.77
334.18,4.93,3.15,4.93,3.15,-3.16,-3.08,-2.90,1.76,1.77,1.78
337.52,4.91,3.13,4.91,3.12,-3.13,-3.04,-2.85,1.77,1.77,1.78
340.90,4.89,3.10,4.88,3.10,-3.10,-3.01,-2.80,1.79,1.78,1.78
344.30,4.86,3.07,4.86,3.08,-3.07,-2.97,-2.75,1.79,1.79,1.78
347.75,4.83,3.05,4.83,3.04,-3.03,-2.93,-2.70,1.79,1.79,1.78
351.23,4.79,3.01,4.79,3.01,-2.99,-2.90,-2.65,1.79,1.79,1.78
354.74,4.75,2.96,4.74,2.96,-2.95,-2.86,-2.61,1.79,1.79,1.79
358.28,4.70,2.91,4.70,2.91,-2.91,-2.82,-2.57,1.79,1.79,1.79
361.87,4.65,2.86,4.65,2.86,-2.87,-2.78,-2.53,1.78,1.78,1.78
365.49,4.61,2.82,4.60,2.82,-2.83,-2.74,-2.49,1.78,1.77,1.78
369.14,4.56,2.78,4.56,2.78,-2.79,-2.71,-2.46,1.76,1.77,1.78
372.83,4.53,2.75,4.53,2.74,-2.76,-2.67,-2.43,1.77,1.77,1.78
376.56,4.50,2.71,4.50,2.72,-2.73,-2.63,-2.39,1.77,1.77,1.79
380.33,4.49,2.70,4.48,2.70,-2.70,-2.59,-2.37,1.79,1.79,1.79
384.13,4.47,2.68,4.46,2.68,-2.67,-2.55,-2.34,1.80,1.80,1.78
387.97,4.45,2.66,4.44,2.66,-2.64,-2.51,-2.31,1.81,1.80,1.78
391.85,4.41,2.61,4.41,2.62,-2.61,-2.48,-2.29,1.80,1.80,1.79
395.77,4.38,2.59,4.37,2.58,-2.58,-2.44,-2.27,1.80,1.79,1.79
399.73,4.34,2.54,4.34,2.54,-2.55,-2.40,-2.24,1.79,1.79,1.80
403.72,4.31,2.51,4.31,2.51,-2.52,-2.36,-2.22,1.79,1.79,1.80
407.76,4.28,2.47,4.28,2.47,-2.49,-2.32,-2.21,1.79,1.79,1.81
411.84,4.26,2.45,4.26,2.45,-2.46,-2.28,-2.19,1.80,1.80,1.81
415.96,4.25,2.43,4.24,2.43,-2.43,-2.24,-2.17,1.82,1.82,1.81
420.12,4.23,2.41,4.22,2.41,-2.39,-2.21,-2.16,1.83,1.83,1.81
424.32,4.20,2.38,4.19,2.38,-2.36,-2.17,-2.14,1.84,1.83,1.81
428.56,4.15,2.32,4.15,2.33,-2.33,-2.13,-2.12,1.82,1.82,1.82
432.85,4.11,2.28,4.10,2.28,-2.29,-2.09,-2.11,1.82,1.81,1.82
437.18,4.06,2.24,4.06,2.24,-2.25,-2.05,-2.09,1.81,1.81,1.82
441.55,4.02,2.20,4.02,2.20,-2.21,-2.01,-2.08,1.81,1.81,1.82
445.96,3.99,2.17,3.98,2.16,-2.16,-1.97,-2.06,1.82,1.82,1.82
450.42,3.95,2.13,3.94,2.12,-2.12,-1.94,-2.05,1.82,1.82,1.82
454.93,3.90,2.08,3.90,2.08,-2.08,-1.90,-2.03,1.81,1.82,1.82
459.48,3.86,2.04,3.86,2.04,-2.04,-1.86,-2.01,1.81,1.81,1.82
464.07,3.82,2.00,3.82,2.00,-2.00,-1.82,-1.99,1.81,1.81,1.82
468.71,3.78,1.96,3.78,1.96,-1.96,-1.78,-1.97,1.82,1.82,1.82
473.40,3.74,1.92,3.74,1.92,-1.91,-1.74,-1.95,1.82,1.82,1.82
478.13,3.70,1.87,3.69,1.87,-1.87,-1.70,-1.93,1.83,1.83,1.82
482.91,3.65,1.82,3.65,1.82,-1.82,-1.67,-1.90,1.83,1.83,1.82
487.74,3.60,1.77,3.60,1.77,-1.77,-1.63,-1.88,1.82,1.83,1.82
492.62,3.55,1.72,3.54,1.72,-1.73,-1.59,-1.85,1.82,1.82,1.82
497.55,3.50,1.66,3.50,1.67,-1.68,-1.55,-1.82,1.82,1.82,1.83
502.52,3.45,1.61,3.45,1.62,-1.63,-1.51,-1.78,1.82,1.82,1.83
507.55,3.42,1.58,3.42,1.58,-1.58,-1.48,-1.75,1.83,1.83,1.83
512.62,3.39,1.56,3.38,1.55,-1.53,-1.44,-1.71,1.85,1.84,1.83
517.75,3.34,1.50,3.34,1.50,-1.49,-1.40,-1.67,1.85,1.85,1.84
522.93,3.29,1.45,3.28,1.45,-1.44,-1.36,-1.63,1.85,1.85,1.84
528.16,3.23,1.39,3.23,1.39,-1.39,-1.32,-1.59,1.83,1.84,1.84
533.44,3.18,1.34,3.18,1.33,-1.34,-1.28,-1.54,1.83,1.83,1.84
538.77,3.13,1.28,3.13,1.28,-1.29,-1.25,-1.49,1.83,1.84,1.85
544.16,3.09,1.24,3.09,1.24,-1.24,-1.21,-1.45,1.85,1.85,1.85
549.60,3.05,1.20,3.04,1.19,-1.19,-1.17,-1.39,1.86,1.85,1.85
555.10,3.00,1.15,3.00,1.15,-1.14,-1.13,-1.34,1.86,1.86,1.85
560.65,2.95,1.10,2.94,1.09,-1.09,-1.09,-1.29,1.86,1.86,1.85
566.25,2.89,1.04,2.89,1.03,-1.04,-1.05,-1.23,1.85,1.85,1.85
571.92,2.83,0.97,2.83,0.98,-0.99,-1.02,-1.17,1.84,1.84,1.86
577.64,2.78,0.92,2.78,0.92,-0.93,-0.98,-1.12,1.84,1.85,1.86
583.41,2.74,0.88,2.74,0.88,-0.88,-0.94,-1.06,1.86,1.86,1.86
589.25,2.70,0.84,2.69,0.83,-0.83,-0.90,-1.00,1.87,1.87,1.86
595.14,2.65,0.78,2.64,0.78,-0.77,-0.86,-0.94,1.87,1.87,1.87
601.09,2.59,0.72,2.59,0.72,-0.72,-0.82,-0.88,1.86,1.87,1.87
607.10,2.54,0.67,2.54,0.67,-0.67,-0.78,-0.81,1.86,1.86,1.87
613.17,2.49,0.61,2.49,0.61,-0.62,-0.74,-0.75,1.87,1.87,1.88
619.30,2.44,0.56,2.44,0.57,-0.57,-0.70,-0.69,1.87,1.87,1.88
625.50,2.40,0.52,2.39,0.52,-0.51,-0.66,-0.62,1.88,1.88,1.88
631.75,2.35,0.47,2.34,0.46,-0.46,-0.62,-0.56,1.89,1.88,1.88
638.07,2.29,0.40,2.29,0.41,-0.40,-0.58,-0.50,1.88,1.88,1.89
644.45,2.23,0.34,2.23,0.35,-0.35,-0.54,-0.43,1.88,1.88,1.89
650.89,2.18,0.29,2.18,0.29,-0.29,-0.50,-0.37,1.88,1.88,1.88
657.40,2.13,0.24,2.12,0.23,-0.24,-0.46,-0.30,1.89,1.89,1.88
663.98,2.07,0.17,2.07,0.18,-0.18,-0.42,-0.24,1.89,1.89,1.89
670.62,2.02,0.12,2.01,0.12,-0.12,-0.37,-0.17,1.90,1.89,1.89
677.32,1.96,0.06,1.96,0.06,-0.06,-0.33,-0.11,1.89,1.89,1.89
684.10,1.90,0.00,1.90,0.01,-0.00,-0.29,-0.04,1.89,1.90,1.89
690.94,1.85,-0.05,1.84,-0.05,0.06,-0.25,0.02,1.90,1.90,1.89
697.85,1.79,-0.11,1.78,-0.11,0.11,-0.20,0.09,1.90,1.90,1.89
704.83,1.73,-0.18,1.73,-0.17,0.17,-0.16,0.16,1.90,1.90,1.90
711.87,1.67,-0.24,1.67,-0.23,0.23,-0.12,0.22,1.90,1.90,1.90
718.99,1.62,-0.29,1.61,-0.29,0.29,-0.07,0.29,1.90,1.90,1.90
726.18,1.56,-0.35,1.56,-0.35,0.35,-0.03,0.36,1.90,1.90,1.90
733.44,1.50,-0.41,1.50,-0.40,0.40,0.02,0.42,1.90,1.90,1.90
740.78,1.45,-0.46,1.45,-0.46,0.46,0.07,0.49,1.91,1.91,1.90
748.19,1.40,-0.51,1.39,-0.51,0.52,0.11,0.56,1.91,1.91,1.90
755.67,1.34,-0.57,1.34,-0.57,0.57,0.16,0.62,1.91,1.91,1.90
763.23,1.29,-0.63,1.28,-0.63,0.63,0.21,0.69,1.91,1.91,1.91
770.86,1.23,-0.69,1.22,-0.69,0.68,0.26,0.76,1.91,1.91,1.91
778.57,1.17,-0.75,1.17,-0.74,0.73,0.31,0.83,1.90,1.90,1.91
786.35,1.12,-0.80,1.12,-0.79,0.78,0.36,0.89,1.90,1.90,1.91
794.22,1.08,-0.83,1.08,-0.83,0.83,0.41,0.96,1.91,1.91,1.90
802.16,1.04,-0.87,1.04,-0.87,0.88,0.46,1.03,1.91,1.91,1.90
810.18,1.00,-0.91,0.99,-0.91,0.92,0.51,1.09,1.92,1.91,1.90
818.28,0.94,-0.97,0.94,-0.96,0.96,0.57,1.16,1.90,1.90,1.90
826.46,0.89,-1.01,0.89,-1.01,1.00,0.62,1.23,1.88,1.89,1.89
834.73,0.84,-1.06,0.84,-1.05,1.04,0.67,1.29,1.87,1.88,1.89
843.08,0.81,-1.08,0.80,-1.08,1.08,0.73,1.36,1.88,1.88,1.88
851.51,0.77,-1.11,0.76,-1.11,1.12,0.79,1.42,1.88,1.88,1.87
860.02,0.72,-1.15,0.71,-1.15,1.16,0.84,1.48,1.87,1.87,1.86
868.62,0.66,-1.20,0.66,-1.19,1.20,0.90,1.54,1.86,1.86,1.85
877.31,0.60,-1.25,0.60,-1.24,1.25,0.96,1.60,1.84,1.84,1.84
886.08,0.54,-1.29,0.54,-1.30,1.30,1.02,1.66,1.83,1.84,1.82
894.94,0.49,-1.35,0.49,-1.35,1.35,1.08,1.72,1.83,1.84,1.83
903.89,0.45,-1.43,0.45,-1.40,1.40,1.14,1.77,1.85,1.85,1.87
912.93,0.41,-1.46,0.40,-1.47,1.46,1.20,1.82,1.87,1.86,1.86
922.06,0.36,-1.51,0.36,-1.52,1.52,1.27,1.87,1.88,1.88,1.86
931.28,0.31,-1.60,0.31,-1.57,1.58,1.33,1.92,1.88,1.88,1.90
940.59,0.26,-1.62,0.25,-1.62,1.63,1.39,1.97,1.89,1.88,1.87
950.00,0.21,-1.67,0.21,-1.68,1.68,1.46,2.01,1.89,1.89,1.87
959.50,0.16,-1.75,0.16,-1.74,1.73,1.52,2.04,1.89,1.89,1.90
969.09,0.13,-1.81,0.12,-1.79,1.78,1.59,2.08,1.90,1.90,1.93
978.78,0.09,-1.84,0.08,-1.83,1.82,1.65,2.11,1.91,1.91,1.92
988.57,0.05,-1.84,0.05,-1.86,1.86,1.72,2.14,1.91,1.91,1.88
998.46,0.01,-1.90,0.00,-1.90,1.91,1.79,2.16,1.91,1.91,1.90
1008.44,-0.03,-1.96,-0.03,-1.94,1.95,1.85,2.19,1.92,1.92,1.92
1018.53,-0.06,-2.00,-0.06,-1.99,1.99,1.92,2.20,1.93,1.93,1.93
1028.71,-0.08,-2.02,-0.08,-2.03,2.04,1.99,2.22,1.95,1.95,1.93
1039.00,-0.10,-2.08,-0.11,-2.08,2.08,2.05,2.23,1.98,1.98,1.97
1049.39,-0.12,-2.13,-0.13,-2.13,2.13,2.12,2.24,2.00,2.00,2.00
1059.88,-0.15,-2.19,-0.15,-2.17,2.17,2.18,2.24,2.02,2.02,2.03
1070.48,-0.17,-2.21,-0.17,-2.22,2.21,2.24,2.25,2.04,2.04,2.03
1081.19,-0.18,-2.25,-0.19,-2.26,2.25,2.31,2.25,2.07,2.06,2.06
1092.00,-0.19,-2.32,-0.19,-2.28,2.28,2.37,2.25,2.08,2.09,2.12
1102.92,-0.19,-2.30,-0.19,-2.31,2.30,2.43,2.24,2.11,2.11,2.10
1113.95,-0.19,-2.32,-0.19,-2.33,2.32,2.48,2.24,2.12,2.12,2.12
1125.09,-0.19,-2.36,-0.19,-2.33,2.33,2.54,2.23,2.13,2.13,2.16
1136.34,-0.19,-2.33,-0.19,-2.34,2.34,2.59,2.22,2.14,2.14,2.13
1147.70,-0.19,-2.33,-0.20,-2.33,2.35,2.64,2.21,2.16,2.15,2.13
1159.18,-0.19,-2.35,-0.19,-2.33,2.36,2.69,2.20,2.17,2.17,2.15
1170.77,-0.18,-2.35,-0.18,-2.35,2.37,2.74,2.19,2.19,2.19,2.16
1182.48,-0.16,-2.38,-0.17,-2.38,2.38,2.78,2.18,2.22,2.21,2.21
1194.30,-0.14,-2.41,-0.15,-2.41,2.39,2.82,2.16,2.24,2.24,2.26
1206.25,-0.12,-2.45,-0.12,-2.42,2.40,2.85,2.15,2.27,2.27,2.32
1218.31,-0.09,-2.41,-0.09,-2.42,2.40,2.88,2.14,2.31,2.31,2.31
1230.49,-0.06,-2.40,-0.06,-2.41,2.40,2.91,2.13,2.34,2.34,2.33
1242.80,-0.03,-2.42,-0.03,-2.39,2.41,2.93,2.12,2.37,2.38,2.38
1255.22,-0.00,-2.39,-0.00,-2.40,2.41,2.95,2.11,2.41,2.41,2.38
1267.78,0.03,-2.39,0.02,-2.40,2.42,2.97,2.10,2.44,2.44,2.41
1280.45,0.05,-2.43,0.05,-2.40,2.42,2.98,2.09,2.47,2.47,2.47
1293.26,0.07,-2.42,0.07,-2.43,2.43,2.99,2.09,2.50,2.50,2.48
1306.19,0.09,-2.45,0.09,-2.45,2.44,3.00,2.08,2.53,2.53,2.53
1319.25,0.12,-2.49,0.12,-2.47,2.45,3.00,2.08,2.57,2.56,2.60
1332.45,0.15,-2.48,0.15,-2.48,2.46,2.99,2.08,2.60,2.60,2.62
1345.77,0.18,-2.47,0.18,-2.47,2.46,2.99,2.08,2.64,2.64,2.64
1359.23,0.21,-2.46,0.20,-2.46,2.46,2.98,2.08,2.67,2.67,2.66
1372.82,0.23,-2.46,0.23,-2.46,2.47,2.96,2.08,2.69,2.69,2.68
1386.55,0.25,-2.46,0.25,-2.46,2.47,2.95,2.09,2.71,2.71,2.70
1400.41,0.27,-2.47,0.27,-2.46,2.47,2.93,2.09,2.73,2.74,2.73
1414.42,0.30,-2.47,0.29,-2.47,2.47,2.91,2.10,2.77,2.77,2.76
1428.56,0.32,-2.49,0.32,-2.49,2.48,2.89,2.11,2.80,2.80,2.80
1442.85,0.34,-2.51,0.34,-2.50,2.50,2.86,2.12,2.83,2.84,2.84
1457.28,0.37,-2.52,0.37,-2.52,2.52,2.84,2.13,2.88,2.88,2.88
1471.85,0.40,-2.54,0.40,-2.54,2.53,2.81,2.15,2.93,2.93,2.93
1486.57,0.43,-2.56,0.43,-2.55,2.56,2.79,2.17,2.98,2.98,2.98
1501.43,0.46,-2.58,0.46,-2.57,2.58,2.76,2.18,3.03,3.03,3.03
1516.45,0.49,-2.60,0.48,-2.60,2.60,2.73,2.20,3.09,3.08,3.08
1531.61,0.52,-2.62,0.51,-2.62,2.62,2.71,2.22,3.14,3.14,3.13
1546.93,0.54,-2.66,0.54,-2.64,2.65,2.68,2.25,3.18,3.19,3.19
1562.40,0.58,-2.67,0.57,-2.67,2.67,2.65,2.27,3.25,3.24,3.24
1578.02,0.61,-2.69,0.60,-2.69,2.69,2.63,2.30,3.30,3.30,3.29
1593.80,0.64,-2.72,0.64,-2.71,2.71,2.61,2.32,3.35,3.35,3.35
1609.74,0.67,-2.74,0.67,-2.73,2.73,2.59,2.35,3.39,3.40,3.40
1625.84,0.72,-2.75,0.72,-2.75,2.74,2.57,2.38,3.45,3.45,3.46
1642.10,0.77,-2.76,0.77,-2.75,2.74,2.55,2.40,3.51,3.51,3.52
1658.52,0.84,-2.75,0.83,-2.75,2.75,2.53,2.43,3.58,3.57,3.58
1675.10,0.89,-2.75,0.89,-2.75,2.74,2.52,2.46,3.63,3.63,3.63
1691.85,0.96,-2.74,0.96,-2.73,2.74,2.51,2.49,3.69,3.69,3.69
1708.77,1.03,-2.73,1.02,-2.72,2.73,2.50,2.52,3.75,3.75,3.75
1725.86,1.10,-2.71,1.09,-2.71,2.72,2.50,2.54,3.81,3.81,3.80
1743.12,1.16,-2.71,1.16,-2.70,2.71,2.50,2.57,3.86,3.87,3.86
1760.55,1.22,-2.70,1.22,-2.69,2.70,2.50,2.59,3.92,3.92,3.91
1778.15,1.29,-2.69,1.28,-2.69,2.69,2.50,2.62,3.98,3.97,3.97
1795.94,1.35,-2.69,1.35,-2.68,2.68,2.51,2.64,4.03,4.03,4.03
1813.90,1.42,-2.68,1.42,-2.67,2.67,2.51,2.66,4.09,4.09,4.09
1832.03,1.50,-2.66,1.49,-2.66,2.66,2.52,2.67,4.16,4.15,4.15
1850.36,1.57,-2.65,1.57,-2.64,2.65,2.52,2.68,4.21,4.21,4.21
1868.86,1.65,-2.63,1.64,-2.63,2.63,2.53,2.69,4.27,4.27,4.27
1887.55,1.73,-2.61,1.72,-2.61,2.60,2.53,2.70,4.33,4.33,4.33
1906.42,1.81,-2.59,1.81,-2.58,2.58,2.54,2.70,4.38,4.39,4.39
1925.49,1.91,-2.55,1.91,-2.55,2.54,2.53,2.70,4.45,4.45,4.45
1944.74,2.01,-2.51,2.00,-2.51,2.51,2.52,2.69,4.52,4.51,4.51
1964.19,2.11,-2.47,2.10,-2.46,2.47,2.51,2.68,4.58,4.57,4.57
1983.83,2.21,-2.42,2.21,-2.42,2.42,2.48,2.66,4.63,4.63,4.62
2003.67,2.31,-2.38,2.31,-2.37,2.37,2.45,2.64,4.68,4.68,4.68
2023.71,2.43,-2.32,2.42,-2.33,2.31,2.42,2.62,4.73,4.73,4.74
2043.94,2.53,-2.27,2.53,-2.27,2.25,2.37,2.59,4.77,4.77,4.79
2064.38,2.63,-2.22,2.63,-2.19,2.18,2.31,2.55,4.81,4.81,4.84
2085.03,2.74,-2.10,2.73,-2.11,2.12,2.25,2.51,4.86,4.85,4.83
2105.88,2.84,-2.03,2.84,-2.03,2.06,2.18,2.47,4.89,4.90,4.86
2126.94,2.95,-1.97,2.94,-1.96,1.99,2.11,2.42,4.94,4.94,4.91
2148.20,3.05,-1.92,3.04,-1.92,1.93,2.03,2.37,4.97,4.97,4.96
2169.69,3.14,-1.88,3.14,-1.88,1.86,1.95,2.31,5.00,5.00,5.01
2191.38,3.24,-1.83,3.24,-1.82,1.80,1.86,2.25,5.03,5.04,5.06
2213.30,3.35,-1.77,3.34,-1.75,1.73,1.78,2.19,5.08,5.08,5.11
2235.43,3.45,-1.66,3.45,-1.66,1.67,1.69,2.12,5.11,5.11,5.10
2257.78,3.55,-1.57,3.54,-1.59,1.60,1.61,2.05,5.14,5.14,5.11
2280.36,3.64,-1.53,3.64,-1.52,1.52,1.52,1.98,5.16,5.16,5.16
2303.17,3.74,-1.48,3.74,-1.45,1.45,1.44,1.91,5.19,5.19,5.21
2326.20,3.85,-1.39,3.84,-1.38,1.38,1.36,1.83,5.23,5.22,5.23
2349.46,3.95,-1.27,3.94,-1.30,1.31,1.28,1.75,5.25,5.25,5.21
2372.95,4.04,-1.23,4.04,-1.23,1.24,1.21,1.67,5.28,5.28,5.26
2396.68,4.13,-1.20,4.13,-1.18,1.17,1.13,1.59,5.30,5.30,5.32
2420.65,4.23,-1.14,4.22,-1.12,1.10,1.06,1.50,5.33,5.33,5.36
2444.86,4.32,-1.03,4.32,-1.05,1.04,0.99,1.42,5.35,5.35,5.34
2469.31,4.41,-0.97,4.41,-0.97,0.97,0.93,1.33,5.38,5.38,5.37
2494.00,4.50,-0.92,4.49,-0.89,0.90,0.86,1.25,5.40,5.40,5.41
2518.94,4.58,-0.82,4.57,-0.84,0.84,0.80,1.16,5.42,5.42,5.39
2544.13,4.65,-0.79,4.65,-0.78,0.78,0.74,1.07,5.43,5.43,5.43
2569.57,4.72,-0.74,4.71,-0.72,0.72,0.68,0.99,5.44,5.44,5.45
2595.27,4.78,-0.67,4.78,-0.66,0.67,0.62,0.90,5.44,5.44,5.44
2621.22,4.83,-0.60,4.83,-0.61,0.62,0.56,0.81,5.44,5.44,5.42
2647.43,4.88,-0.56,4.87,-0.57,0.57,0.51,0.72,5.45,5.44,5.43
2673.90,4.91,-0.57,4.91,-0.54,0.53,0.45,0.63,5.44,5.44,5.47
2700.64,4.95,-0.50,4.95,-0.49,0.49,0.40,0.54,5.44,5.44,5.44
2727.65,4.98,-0.45,4.98,-0.45,0.46,0.34,0.46,5.44,5.44,5.42
2754.93,5.01,-0.39,5.00,-0.42,0.43,0.29,0.37,5.44,5.43,5.39
2782.48,5.02,-0.42,5.02,-0.40,0.40,0.24,0.28,5.42,5.42,5.43
2810.30,5.03,-0.40,5.03,-0.38,0.37,0.19,0.19,5.39,5.40,5.42
2838.40,5.04,-0.35,5.03,-0.36,0.33,0.13,0.10,5.37,5.37,5.38
2866.79,5.04,-0.31,5.04,-0.31,0.30,0.08,0.01,5.34,5.34,5.34
2895.46,5.04,-0.27,5.04,-0.26,0.27,0.03,-0.08,5.30,5.31,5.30
2924.41,5.04,-0.22,5.03,-0.22,0.23,-0.02,-0.17,5.27,5.26,5.25
2953.65,5.03,-0.18,5.03,-0.18,0.19,-0.08,-0.26,5.21,5.21,5.20
2983.19,5.02,-0.14,5.02,-0.13,0.13,-0.13,-0.35,5.15,5.15,5.15
3013.02,5.02,-0.09,5.02,-0.09,0.08,-0.19,-0.44,5.09,5.09,5.10
3043.15,5.02,-0.04,5.02,-0.04,0.02,-0.24,-0.53,5.03,5.03,5.05
3073.58,5.02,0.01,5.02,0.03,-0.04,-0.30,-0.62,4.98,4.98,5.00
3104.32,5.02,0.10,5.01,0.11,-0.10,-0.36,-0.71,4.92,4.91,4.91
3135.36,5.01,0.21,5.00,0.19,-0.16,-0.42,-0.80,4.84,4.84,4.79
3166.72,5.00,0.25,5.00,0.26,-0.23,-0.48,-0.89,4.77,4.77,4.74
3198.38,4.99,0.30,4.99,0.31,-0.30,-0.54,-0.98,4.68,4.69,4.68
3230.37,5.00,0.36,4.99,0.36,-0.38,-0.60,-1.06,4.62,4.61,4.63
3262.67,5.00,0.42,5.00,0.44,-0.46,-0.67,-1.15,4.54,4.54,4.57
3295.30,5.01,0.53,5.01,0.53,-0.54,-0.73,-1.24,4.46,4.46,4.47
3328.25,5.02,0.64,5.02,0.63,-0.64,-0.80,-1.32,4.38,4.38,4.37
3361.53,5.04,0.71,5.04,0.74,-0.74,-0.87,-1.40,4.30,4.30,4.32
3395.15,5.07,0.85,5.07,0.85,-0.84,-0.95,-1.48,4.22,4.22,4.21
3429.10,5.11,0.97,5.10,0.96,-0.96,-1.02,-1.56,4.15,4.15,4.13
3463.39,5.15,1.06,5.14,1.08,-1.07,-1.10,-1.64,4.07,4.07,4.08
3498.03,5.19,1.19,5.19,1.19,-1.19,-1.18,-1.71,3.99,4.00,3.99
3533.01,5.24,1.32,5.24,1.31,-1.31,-1.26,-1.78,3.93,3.93,3.91
3568.34,5.30,1.40,5.30,1.43,-1.43,-1.34,-1.84,3.87,3.87,3.89
3604.02,5.36,1.55,5.36,1.54,-1.55,-1.43,-1.91,3.81,3.81,3.80
3640.06,5.43,1.67,5.42,1.65,-1.66,-1.51,-1.96,3.76,3.76,3.75
3676.46,5.49,1.74,5.49,1.77,-1.78,-1.60,-2.01,3.71,3.71,3.74
3713.22,5.56,1.88,5.56,1.88,-1.89,-1.69,-2.06,3.67,3.67,3.67
3750.36,5.64,2.01,5.63,2.00,-2.00,-1.78,-2.09,3.64,3.64,3.62
3787.86,5.71,2.10,5.71,2.11,-2.10,-1.87,-2.12,3.61,3.61,3.60
3825.74,5.78,2.19,5.78,2.19,-2.19,-1.96,-2.15,3.58,3.58,3.58
3864.00,5.85,2.27,5.84,2.27,-2.28,-2.05,-2.16,3.57,3.56,3.57
3902.64,5.91,2.34,5.91,2.36,-2.36,-2.14,-2.17,3.55,3.55,3.56
3941.66,5.98,2.43,5.97,2.43,-2.42,-2.23,-2.17,3.56,3.55,3.54
3981.08,6.04,2.50,6.04,2.49,-2.48,-2.31,-2.16,3.56,3.56,3.53
4020.89,6.10,2.54,6.10,2.53,-2.52,-2.39,-2.14,3.57,3.58,3.55
4061.10,6.16,2.53,6.16,2.56,-2.57,-2.46,-2.12,3.59,3.59,3.62
4101.71,6.22,2.58,6.21,2.58,-2.60,-2.53,-2.08,3.61,3.61,3.63
4142.73,6.26,2.61,6.26,2.61,-2.64,-2.59,-2.04,3.62,3.62,3.64
4184.15,6.30,2.64,6.30,2.65,-2.66,-2.64,-1.99,3.64,3.64,3.65
4226.00,6.34,2.67,6.33,2.67,-2.67,-2.68,-1.93,3.66,3.66,3.66
4268.26,6.36,2.69,6.35,2.69,-2.67,-2.71,-1.86,3.68,3.68,3.66
4310.94,6.36,2.68,6.36,2.69,-2.67,-2.72,-1.78,3.69,3.69,3.67
4354.05,6.35,2.68,6.35,2.67,-2.65,-2.72,-1.70,3.69,3.70,3.66
4397.59,6.34,2.63,6.33,2.63,-2.62,-2.70,-1.61,3.71,3.71,3.70
4441.56,6.29,2.55,6.28,2.57,-2.58,-2.67,-1.52,3.71,3.70,3.73
4485.98,6.22,2.50,6.21,2.50,-2.53,-2.62,-1.42,3.69,3.69,3.71
4530.84,6.12,2.44,6.12,2.44,-2.46,-2.56,-1.31,3.65,3.66,3.67
4576.15,6.01,2.38,6.01,2.38,-2.39,-2.48,-1.20,3.62,3.62,3.62
4621.91,5.88,2.30,5.87,2.31,-2.30,-2.37,-1.08,3.57,3.57,3.57
4668.13,5.72,2.21,5.72,2.22,-2.21,-2.26,-0.97,3.51,3.51,3.50
4714.81,5.55,2.11,5.54,2.11,-2.10,-2.12,-0.84,3.45,3.44,3.43
4761.96,5.34,1.98,5.34,1.98,-1.98,-1.97,-0.72,3.36,3.36,3.35
4809.58,5.11,1.83,5.10,1.84,-1.83,-1.80,-0.59,3.27,3.27,3.27
4857.67,4.84,1.66,4.84,1.67,-1.67,-1.62,-0.46,3.17,3.17,3.17
4906.25,4.57,1.48,4.56,1.48,-1.48,-1.42,-0.33,3.08,3.08,3.08
4955.31,4.26,1.27,4.26,1.28,-1.28,-1.21,-0.19,2.98,2.98,2.98
5004.87,3.93,1.05,3.93,1.05,-1.05,-0.98,-0.05,2.88,2.88,2.87
5054.91,3.58,0.80,3.57,0.80,-0.80,-0.74,0.09,2.78,2.78,2.77
5105.46,3.20,0.53,3.19,0.53,-0.52,-0.49,0.23,2.67,2.67,2.66
5156.52,2.79,0.22,2.79,0.23,-0.22,-0.22,0.37,2.56,2.57,2.56
5208.08,2.37,-0.10,2.37,-0.09,0.10,0.07,0.51,2.46,2.46,2.46
5260.16,1.93,-0.44,1.92,-0.44,0.44,0.37,0.66,2.37,2.36,2.36
5312.77,1.47,-0.80,1.46,-0.80,0.81,0.70,0.80,2.27,2.27,2.26
5365.89,0.98,-1.18,0.98,-1.18,1.19,1.04,0.95,2.17,2.17,2.15
5419.55,0.48,-1.58,0.47,-1.58,1.59,1.40,1.10,2.07,2.06,2.05
5473.75,-0.05,-2.00,-0.05,-1.99,2.00,1.78,1.25,1.95,1.95,1.94
5528.49,-0.58,-2.42,-0.59,-2.42,2.42,2.19,1.41,1.83,1.83,1.83
5583.77,-1.13,-2.85,-1.13,-2.84,2.84,2.62,1.56,1.70,1.70,1.71
5639.61,-1.67,-3.26,-1.68,-3.26,3.25,3.07,1.72,1.58,1.58,1.58
5696.00,-2.21,-3.67,-2.22,-3.66,3.66,3.54,1.88,1.45,1.44,1.45
5752.96,-2.75,-4.06,-2.76,-4.05,4.05,4.01,2.04,1.29,1.29,1.30
5810.49,-3.28,-4.43,-3.29,-4.41,4.41,4.47,2.20,1.13,1.12,1.14
5868.60,-3.81,-4.78,-3.82,-4.76,4.75,4.91,2.36,0.94,0.94,0.96
5927.28,-4.33,-5.10,-4.33,-5.07,5.06,5.29,2.53,0.73,0.73,0.76
5986.56,-4.83,-5.39,-4.83,-5.34,5.33,5.59,2.70,0.49,0.50,0.55
6046.42,-5.32,-5.63,-5.30,-5.56,5.55,5.81,2.87,0.22,0.24,0.30
6106.89,-5.77,-5.81,-5.76,-5.74,5.72,5.93,3.05,-0.05,-0.04,0.03
6167.96,-6.23,-5.98,-6.20,-5.89,5.85,5.96,3.23,-0.38,-0.35,-0.26
6229.64,-6.67,-6.15,-6.61,-6.02,5.94,5.93,3.41,-0.73,-0.67,-0.53
6291.93,-7.09,-6.31,-7.00,-6.13,6.00,5.86,3.59,-1.10,-1.01,-0.79
6354.85,-7.48,-6.42,-7.36,-6.21,6.03,5.77,3.78,-1.46,-1.33,-1.07
6418.40,-7.85,-6.51,-7.67,-6.24,6.04,5.68,3.96,-1.81,-1.63,-1.35
6482.58,-8.20,-6.57,-7.95,-6.24,6.04,5.61,4.15,-2.16,-1.91,-1.64
6547.41,-8.54,-6.61,-8.20,-6.21,6.03,5.55,4.35,-2.51,-2.17,-1.94
6612.88,-8.89,-6.66,-8.42,-6.17,6.01,5.52,4.54,-2.88,-2.41,-2.24
6679.01,-9.23,-6.69,-8.61,-6.12,5.99,5.52,4.74,-3.25,-2.62,-2.55
6745.80,-9.58,-6.72,-8.76,-6.05,5.96,5.55,4.94,-3.62,-2.80,-2.87
6813.26,-9.91,-6.73,-8.86,-5.97,5.92,5.59,5.14,-4.00,-2.94,-3.19
6881.39,-10.24,-6.72,-8.92,-5.89,5.87,5.66,5.34,-4.37,-3.05,-3.53
6950.21,-10.56,-6.70,-8.94,-5.81,5.81,5.75,5.53,-4.75,-3.12,-3.87
7019.71,-10.87,-6.65,-8.92,-5.73,5.75,5.85,5.73,-5.12,-3.16,-4.23
7089.91,-11.17,-6.58,-8.87,-5.68,5.70,5.95,5.92,-5.48,-3.18,-4.60
7160.81,-11.45,-6.48,-8.81,-5.63,5.65,6.06,6.11,-5.80,-3.16,-4.98
7232.41,-11.72,-6.36,-8.74,-5.60,5.61,6.17,6.30,-6.11,-3.12,-5.37
7304.74,-11.96,-6.14,-8.66,-5.58,5.60,6.28,6.48,-6.37,-3.06,-5.83
7377.79,-12.17,-5.92,-8.57,-5.58,5.59,6.37,6.65,-6.58,-2.98,-6.26
7451.56,-12.36,-5.73,-8.49,-5.60,5.60,6.45,6.81,-6.76,-2.89,-6.64
7526.08,-12.53,-5.53,-8.42,-5.62,5.62,6.51,6.96,-6.91,-2.80,-7.01
7601.34,-12.67,-5.33,-8.35,-5.65,5.65,6.55,7.09,-7.03,-2.70,-7.35
7677.35,-12.79,-5.16,-8.28,-5.68,5.67,6.57,7.21,-7.12,-2.60,-7.64
7754.13,-12.87,-5.01,-8.21,-5.70,5.70,6.56,7.31,-7.18,-2.51,-7.87
7831.67,-12.91,-4.88,-8.14,-5.73,5.72,6.53,7.39,-7.19,-2.42,-8.04
7909.98,-12.92,-4.79,-8.07,-5.74,5.74,6.49,7.46,-7.19,-2.33,-8.14
7989.08,-12.92,-4.76,-8.00,-5.75,5.75,6.42,7.50,-7.17,-2.25,-8.17
8068.98,-12.89,-4.79,-7.93,-5.76,5.76,6.34,7.52,-7.14,-2.17,-8.11
8149.67,-12.84,-4.88,-7.85,-5.76,5.76,6.24,7.52,-7.08,-2.09,-7.97
8231.16,-12.76,-5.02,-7.78,-5.76,5.76,6.14,7.50,-7.01,-2.02,-7.75
8313.47,-12.65,-5.21,-7.71,-5.75,5.75,6.03,7.46,-6.90,-1.96,-7.45
8396.61,-12.50,-5.40,-7.63,-5.74,5.74,5.93,7.40,-6.76,-1.89,-7.11
8480.57,-12.32,-5.58,-7.56,-5.73,5.73,5.82,7.32,-6.59,-1.83,-6.75
8565.38,-12.11,-5.84,-7.48,-5.72,5.72,5.71,7.23,-6.40,-1.77,-6.28
8651.03,-11.87,-6.11,-7.41,-5.70,5.70,5.61,7.12,-6.17,-1.70,-5.77
8737.54,-11.59,-6.37,-7.33,-5.68,5.68,5.52,7.00,-5.91,-1.64,-5.23
8824.92,-11.28,-6.60,-7.24,-5.66,5.66,5.43,6.87,-5.62,-1.58,-4.69
8913.17,-10.93,-6.79,-7.16,-5.64,5.64,5.35,6.73,-5.29,-1.52,-4.15
9002.30,-10.55,-6.94,-7.07,-5.62,5.61,5.28,6.59,-4.94,-1.46,-3.62
9092.32,-10.13,-7.03,-6.99,-5.59,5.59,5.22,6.44,-4.55,-1.40,-3.11
9183.25,-9.67,-7.02,-6.90,-5.56,5.56,5.17,6.29,-4.12,-1.34,-2.66
9275.08,-9.20,-6.94,-6.81,-5.52,5.52,5.13,6.13,-3.68,-1.29,-2.27
9367.83,-8.70,-6.85,-6.72,-5.49,5.49,5.10,5.98,-3.21,-1.23,-1.86
9461.51,-8.18,-6.74,-6.64,-5.45,5.45,5.08,5.82,-2.74,-1.19,-1.45
9556.12,-7.65,-6.60,-6.55,-5.41,5.40,5.07,5.67,-2.26,-1.15,-1.06
9651.68,-7.10,-6.42,-6.47,-5.37,5.35,5.07,5.52,-1.75,-1.11,-0.69
9748.20,-6.56,-6.18,-6.38,-5.33,5.31,5.08,5.37,-1.25,-1.07,-0.39
9845.68,-6.02,-5.94,-6.30,-5.28,5.28,5.09,5.23,-0.74,-1.02,-0.09
9944.14,-5.49,-5.74,-6.23,-5.24,5.26,5.12,5.09,-0.23,-0.97,0.24
10043.58,-4.97,-5.51,-6.15,-5.19,5.25,5.16,4.96,0.28,-0.90,0.53
10144.02,-4.47,-5.30,-6.29,-5.24,5.26,5.20,4.84,0.79,-1.02,0.82
10245.46,-4.00,-5.11,-6.42,-5.29,5.29,5.25,4.72,1.28,-1.14,1.10
10347.91,-3.58,-5.00,-6.56,-5.34,5.32,5.31,4.60,1.74,-1.24,1.41
10451.39,-3.18,-4.91,-6.71,-5.39,5.37,5.38,4.50,2.19,-1.34,1.72
10555.91,-2.82,-4.84,-6.86,-5.44,5.43,5.45,4.39,2.60,-1.43,2.01
10661.46,-2.48,-4.73,-7.01,-5.50,5.49,5.52,4.30,3.01,-1.52,2.24
10768.08,-2.19,-4.70,-7.17,-5.55,5.55,5.60,4.21,3.36,-1.61,2.50
10875.76,-1.93,-4.70,-7.33,-5.61,5.61,5.67,4.13,3.68,-1.72,2.76
10984.52,-1.72,-4.68,-7.50,-5.67,5.67,5.75,4.06,3.95,-1.82,2.95
11094.36,-1.52,-4.70,-7.67,-5.73,5.74,5.82,4.00,4.21,-1.93,3.17
11205.31,-1.34,-4.73,-7.84,-5.79,5.80,5.88,3.94,4.45,-2.04,3.38
11317.36,-1.18,-4.74,-8.02,-5.85,5.85,5.93,3.89,4.67,-2.17,3.55
11430.53,-1.05,-4.69,-8.21,-5.91,5.90,5.98,3.84,4.85,-2.31,3.63
11544.84,-0.95,-4.66,-8.39,-5.97,5.94,6.01,3.81,4.99,-2.45,3.70
11660.29,-0.87,-4.66,-8.59,-6.04,5.97,6.03,3.78,5.10,-2.62,3.78
11776.89,-0.83,-4.59,-8.79,-6.10,5.99,6.04,3.76,5.16,-2.79,3.75
11894.66,-0.81,-4.53,-8.99,-6.17,6.01,6.04,3.75,5.19,-2.98,3.71
12013.60,-0.83,-4.50,-9.19,-6.24,6.01,6.03,3.75,5.18,-3.18,3.66
12133.74,-0.90,-4.40,-9.40,-6.30,6.01,6.01,3.76,5.11,-3.39,3.49
12255.08,-0.99,-4.30,-9.62,-6.37,6.01,5.99,3.77,5.01,-3.61,3.30
12377.63,-1.12,-4.21,-9.84,-6.45,6.00,5.97,3.80,4.88,-3.83,3.08
12501.41,-1.30,-4.13,-10.06,-6.52,6.00,5.95,3.83,4.70,-4.06,2.82
12626.42,-1.51,-4.07,-10.29,-6.59,6.00,5.93,3.88,4.49,-4.29,2.55
12752.68,-1.75,-3.98,-10.52,-6.67,6.00,5.92,3.94,4.25,-4.52,2.22
12880.21,-2.01,-3.84,-10.76,-6.74,6.00,5.91,4.01,3.99,-4.76,1.82
13009.01,-2.29,-3.75,-11.00,-6.82,6.00,5.90,4.09,3.71,-5.00,1.45
13139.10,-2.59,-3.64,-11.24,-6.89,6.00,5.90,4.19,3.41,-5.24,1.04
13270.49,-2.94,-3.53,-11.49,-6.97,6.00,5.90,4.30,3.06,-5.49,0.58
13403.20,-3.31,-3.48,-11.75,-7.05,6.00,5.90,4.42,2.69,-5.75,0.16
13537.23,-3.73,-3.44,-12.01,-7.13,6.00,5.91,4.56,2.27,-6.01,-0.30
13672.60,-4.21,-3.42,-12.27,-7.22,6.00,5.93,4.72,1.79,-6.27,-0.80
13809.33,-4.74,-3.49,-12.54,-7.30,6.00,5.94,4.90,1.26,-6.54,-1.26
13947.42,-5.35,-3.60,-12.81,-7.38,6.00,5.96,5.10,0.65,-6.81,-1.76
14086.90,-6.04,-3.74,-13.08,-7.47,6.00,5.98,5.32,-0.04,-7.08,-2.31
14227.77,-6.81,-4.02,-13.36,-7.56,6.00,6.00,5.57,-0.81,-7.36,-2.80
14370.04,-7.67,-4.33,-13.65,-7.64,6.00,6.03,5.83,-1.67,-7.65,-3.35
14513.74,-8.61,-4.69,-13.94,-7.73,6.00,6.05,6.12,-2.61,-7.94,-3.93
14658.88,-9.61,-5.11,-14.23,-7.82,6.00,6.07,6.44,-3.61,-8.23,-4.51
14805.47,-10.66,-5.58,-14.53,-7.91,6.00,6.08,6.77,-4.66,-8.53,-5.09
14953.52,-11.74,-6.10,-14.83,-8.00,6.00,6.10,7.12,-5.74,-8.83,-5.65
15103.06,-12.83,-6.64,-15.14,-8.10,6.00,6.11,7.49,-6.83,-9.14,-6.20
15254.09,-13.93,-7.23,-15.45,-8.19,6.00,6.11,7.85,-7.93,-9.45,-6.71
15406.63,-15.00,-7.77,-15.76,-8.29,6.00,6.11,8.19,-9.00,-9.76,-7.24
15560.70,-16.02,-8.23,-16.08,-8.38,6.00,6.10,8.50,-10.02,-10.08,-7.80
15716.30,-16.98,-8.65,-16.41,-8.48,6.00,6.07,8.74,-10.98,-10.41,-8.34
15873.47,-17.87,-9.06,-16.74,-8.58,6.00,6.04,8.88,-11.87,-10.74,-8.82
16032.20,-18.69,-9.46,-17.07,-8.68,6.00,6.01,8.89,-12.69,-11.07,-9.24
16192.52,-19.43,-9.74,-17.41,-8.78,6.00,5.96,8.77,-13.43,-11.41,-9.70
16354.45,-20.09,-9.95,-17.75,-8.88,6.00,5.92,8.50,-14.09,-11.75,-10.15
16517.99,-20.69,-10.12,-18.09,-8.99,6.00,5.90,8.11,-14.69,-12.09,-10.58
16683.17,-21.24,-10.29,-18.44,-9.09,6.00,5.89,7.62,-15.24,-12.44,-10.96
16850.01,-21.78,-10.39,-18.80,-9.19,6.00,5.90,7.06,-15.78,-12.80,-11.40
17018.51,-22.32,-10.44,-19.16,-9.30,6.00,5.95,6.48,-16.32,-13.16,-11.89
17188.69,-22.89,-10.49,-19.52,-9.41,6.00,6.01,5.89,-16.89,-13.52,-12.41
17360.58,-23.49,-10.60,-19.89,-9.52,6.00,6.09,5.31,-17.49,-13.89,-12.90
17534.18,-24.13,-10.74,-20.26,-9.63,6.00,6.16,4.75,-18.13,-14.26,-13.40
17709.53,-24.81,-10.89,-20.64,-9.74,6.00,6.21,4.23,-18.81,-14.64,-13.93
17886.62,-25.50,-11.07,-21.02,-9.85,6.00,6.23,3.74,-19.50,-15.02,-14.44
18065.49,-26.13,-11.30,-21.40,-9.96,6.00,6.23,3.30,-20.13,-15.40,-14.84
18246.14,-26.75,-11.58,-21.79,-10.08,6.00,6.19,2.89,-20.75,-15.79,-15.18
18428.60,-27.38,-11.82,-22.19,-10.19,6.00,6.12,2.52,-21.38,-16.19,-15.57
18612.89,-28.01,-12.07,-22.58,-10.31,6.00,6.02,2.18,-22.01,-16.58,-15.95
18799.02,-28.64,-12.34,-22.99,-10.43,6.00,5.88,1.88,-22.64,-16.99,-16.31
18987.01,-29.27,-12.63,-23.39,-10.54,6.00,5.70,1.61,-23.27,-17.39,-16.65
19176.88,-29.91,-12.97,-23.81,-10.66,6.00,5.49,1.37,-23.91,-17.81,-16.95
19368.65,-30.54,-13.32,-24.22,-10.78,6.00,5.23,1.15,-24.54,-18.22,-17.23
19562.33,-31.18,-13.71,-24.64,-10.91,6.00,4.94,0.96,-25.18,-18.64,-17.48
19757.96,-31.82,-14.13,-25.07,-11.03,6.00,4.61,0.79,-25.82,-19.07,-17.70
19955.54,-32.46,-14.55,-25.50,-11.15,6.00,4.23,0.64,-26.46,-19.50,-17.92
