frequency,raw,error,smoothed,error_smoothed,equalization,parametric_eq,fixed_band_eq,equalized_raw,equalized_smoothed,target
20.00,-2.89,-10.56,-2.89,-10.56,6.00,6.53,2.75,3.11,3.11,7.67
20.20,-2.80,-10.44,-2.80,-10.45,6.00,6.51,2.83,3.20,3.20,7.64
20.40,-2.71,-10.33,-2.71,-10.33,6.00,6.50,2.91,3.29,3.29,7.62
20.61,-2.63,-10.22,-2.63,-10.22,6.00,6.48,3.00,3.37,3.37,7.60
20.81,-2.54,-10.12,-2.54,-10.12,6.00,6.47,3.08,3.46,3.46,7.58
21.02,-2.45,-10.01,-2.46,-10.01,6.00,6.45,3.17,3.55,3.54,7.56
21.23,-2.37,-9.91,-2.37,-9.91,6.00,6.43,3.26,3.63,3.63,7.54
21.44,-2.28,-9.80,-2.29,-9.80,6.00,6.42,3.36,3.72,3.71,7.52
21.66,-2.20,-9.70,-2.20,-9.70,6.00,6.40,3.45,3.80,3.80,7.50
21.87,-2.12,-9.61,-2.12,-9.60,6.00,6.38,3.55,3.88,3.88,7.48
22.09,-2.03,-9.50,-2.04,-9.50,6.00,6.37,3.65,3.97,3.96,7.46
22.31,-1.95,-9.41,-1.95,-9.41,6.00,6.35,3.76,4.05,4.05,7.45
22.54,-1.88,-9.32,-1.88,-9.32,6.00,6.33,3.86,4.12,4.12,7.44
22.76,-1.80,-9.24,-1.80,-9.23,6.00,6.32,3.97,4.20,4.20,7.43
22.99,-1.72,-9.15,-1.72,-9.15,6.00,6.30,4.09,4.28,4.28,7.42
23.22,-1.64,-9.06,-1.64,-9.05,6.00,6.28,4.20,4.36,4.36,7.41
23.45,-1.56,-8.96,-1.56,-8.96,6.00,6.26,4.32,4.44,4.44,7.40
23.69,-1.49,-8.88,-1.49,-8.88,6.00,6.25,4.44,4.51,4.51,7.39
23.92,-1.41,-8.80,-1.41,-8.80,6.00,6.23,4.56,4.59,4.59,7.39
24.16,-1.34,-8.72,-1.34,-8.72,6.00,6.21,4.69,4.66,4.66,7.38
24.40,-1.26,-8.64,-1.26,-8.64,6.00,6.20,4.81,4.74,4.74,7.38
24.65,-1.18,-8.55,-1.19,-8.56,6.00,6.18,4.94,4.82,4.81,7.37
24.89,-1.12,-8.49,-1.12,-8.48,6.00,6.16,5.07,4.88,4.88,7.37
25.14,-1.05,-8.41,-1.05,-8.40,6.00,6.14,5.21,4.95,4.95,7.35
25.39,-0.97,-8.32,-0.97,-8.32,6.00,6.13,5.34,5.03,5.03,7.34
25.65,-0.88,-8.23,-0.89,-8.23,6.00,6.11,5.48,5.12,5.11,7.34
25.91,-0.82,-8.16,-0.82,-8.16,6.00,6.10,5.61,5.18,5.18,7.33
26.16,-0.75,-8.08,-0.75,-8.08,6.00,6.08,5.74,5.25,5.25,7.33
26.43,-0.68,-8.00,-0.67,-8.00,6.00,6.06,5.88,5.32,5.33,7.33
26.69,-0.59,-7.91,-0.59,-7.92,6.00,6.05,6.01,5.41,5.41,7.32
26.96,-0.51,-7.83,-0.52,-7.83,6.00,6.04,6.14,5.49,5.48,7.32
27.23,-0.44,-7.75,-0.44,-7.75,6.00,6.02,6.27,5.56,5.56,7.31
27.50,-0.37,-7.68,-0.37,-7.67,6.00,6.01,6.40,5.63,5.63,7.30
27.77,-0.29,-7.60,-0.29,-7.59,6.00,6.00,6.52,5.71,5.71,7.30
28.05,-0.21,-7.50,-0.22,-7.51,6.00,5.98,6.63,5.79,5.78,7.29
28.33,-0.14,-7.43,-0.14,-7.43,6.00,5.97,6.74,5.86,5.86,7.29
28.62,-0.07,-7.36,-0.07,-7.36,6.00,5.96,6.85,5.93,5.93,7.29
28.90,-0.00,-7.28,-0.01,-7.29,6.00,5.96,6.94,6.00,5.99,7.28
29.19,0.06,-7.22,0.06,-7.22,6.00,5.95,7.03,6.06,6.06,7.27
29.48,0.13,-7.15,0.13,-7.15,6.00,5.94,7.11,6.13,6.13,7.27
29.78,0.20,-7.08,0.20,-7.08,6.00,5.94,7.18,6.20,6.20,7.27
30.08,0.27,-7.00,0.26,-7.00,6.00,5.94,7.24,6.27,6.26,7.27
30.38,0.33,-6.93,0.32,-6.94,6.00,5.93,7.29,6.33,6.32,7.26
30.68,0.39,-6.87,0.39,-6.87,6.00,5.93,7.32,6.39,6.39,7.26
30.99,0.45,-6.81,0.45,-6.80,6.00,5.93,7.34,6.45,6.45,7.25
31.30,0.53,-6.73,0.52,-6.73,6.00,5.94,7.35,6.53,6.52,7.25
31.61,0.59,-6.65,0.58,-6.66,6.00,5.94,7.35,6.59,6.58,7.24
31.93,0.65,-6.59,0.64,-6.59,6.00,5.94,7.33,6.65,6.64,7.24
32.24,0.70,-6.54,0.70,-6.53,6.00,5.95,7.31,6.70,6.70,7.23
32.57,0.77,-6.46,0.77,-6.46,6.00,5.95,7.27,6.77,6.77,7.22
32.89,0.84,-6.38,0.84,-6.38,6.01,5.95,7.22,6.85,6.84,7.22
33.22,0.91,-6.31,0.90,-6.31,6.01,5.95,7.16,6.92,6.92,7.22
33.55,0.97,-6.24,0.97,-6.24,6.01,5.94,7.10,6.98,6.98,7.20
33.89,1.03,-6.17,1.03,-6.17,6.00,5.93,7.02,7.03,7.03,7.20
34.23,1.09,-6.11,1.09,-6.10,5.99,5.92,6.93,7.07,7.08,7.20
34.57,1.17,-6.02,1.16,-6.03,5.96,5.90,6.84,7.13,7.13,7.18
34.92,1.24,-5.95,1.23,-5.95,5.93,5.87,6.74,7.16,7.16,7.18
35.27,1.30,-5.88,1.29,-5.88,5.88,5.83,6.63,7.17,7.17,7.18
35.62,1.35,-5.82,1.35,-5.82,5.82,5.79,6.53,7.17,7.17,7.16
35.97,1.41,-5.75,1.41,-5.75,5.76,5.74,6.41,7.17,7.17,7.16
36.33,1.48,-5.68,1.48,-5.68,5.69,5.68,6.30,7.17,7.17,7.16
36.70,1.55,-5.61,1.54,-5.61,5.62,5.62,6.18,7.17,7.16,7.15
37.06,1.61,-5.54,1.60,-5.54,5.55,5.55,6.06,7.16,7.15,7.15
37.43,1.66,-5.48,1.66,-5.48,5.48,5.48,5.94,7.14,7.14,7.14
37.81,1.71,-5.42,1.71,-5.42,5.41,5.41,5.82,7.12,7.13,7.13
38.19,1.78,-5.35,1.78,-5.35,5.35,5.34,5.70,7.12,7.12,7.13
38.57,1.85,-5.27,1.84,-5.28,5.28,5.27,5.58,7.12,7.12,7.11
38.95,1.90,-5.21,1.90,-5.21,5.21,5.19,5.47,7.11,7.11,7.11
39.34,1.95,-5.14,1.95,-5.14,5.14,5.12,5.35,7.09,7.09,7.09
39.74,2.01,-5.08,2.01,-5.07,5.07,5.05,5.24,7.08,7.08,7.09
40.14,2.08,-5.00,2.07,-5.00,5.00,4.98,5.13,7.07,7.07,7.07
40.54,2.15,-4.92,2.14,-4.92,4.93,4.91,5.02,7.07,7.07,7.07
40.94,2.21,-4.85,2.21,-4.85,4.86,4.84,4.91,7.06,7.06,7.06
41.35,2.27,-4.79,2.27,-4.79,4.79,4.77,4.81,7.05,7.05,7.05
41.76,2.33,-4.72,2.33,-4.72,4.72,4.71,4.71,7.04,7.04,7.05
42.18,2.39,-4.65,2.39,-4.65,4.65,4.64,4.61,7.04,7.04,7.04
42.60,2.46,-4.58,2.46,-4.58,4.58,4.58,4.51,7.04,7.04,7.03
43.03,2.53,-4.51,2.52,-4.51,4.51,4.51,4.42,7.04,7.04,7.04
43.46,2.59,-4.44,2.58,-4.45,4.45,4.45,4.33,7.03,7.03,7.03
43.90,2.64,-4.39,2.64,-4.38,4.38,4.39,4.25,7.02,7.02,7.02
44.33,2.70,-4.32,2.70,-4.32,4.31,4.33,4.17,7.01,7.01,7.01
44.78,2.76,-4.25,2.75,-4.25,4.25,4.27,4.09,7.00,7.00,7.01
45.23,2.82,-4.18,2.82,-4.18,4.18,4.21,4.01,7.00,7.00,7.00
45.68,2.88,-4.11,2.88,-4.11,4.11,4.15,3.94,6.99,6.99,6.99
46.13,2.94,-4.04,2.93,-4.05,4.05,4.09,3.87,6.99,6.98,6.98
46.60,2.99,-3.99,2.99,-3.98,3.98,4.03,3.81,6.97,6.97,6.97
47.06,3.05,-3.92,3.04,-3.91,3.92,3.97,3.74,6.96,6.96,6.96
47.53,3.10,-3.85,3.10,-3.85,3.85,3.91,3.68,6.95,6.95,6.94
48.01,3.15,-3.79,3.15,-3.79,3.78,3.85,3.63,6.93,6.93,6.93
48.49,3.20,-3.72,3.20,-3.72,3.72,3.79,3.57,6.91,6.92,6.92
48.97,3.25,-3.66,3.25,-3.66,3.66,3.74,3.52,6.90,6.90,6.91
49.46,3.31,-3.59,3.31,-3.59,3.60,3.68,3.47,6.90,6.90,6.90
49.96,3.36,-3.53,3.36,-3.53,3.54,3.62,3.42,6.89,6.90,6.89
50.46,3.42,-3.46,3.41,-3.47,3.48,3.56,3.38,6.90,6.89,6.87
50.96,3.45,-3.42,3.45,-3.42,3.42,3.50,3.33,6.87,6.87,6.86
51.47,3.48,-3.38,3.48,-3.37,3.37,3.43,3.29,6.84,6.85,6.86
51.99,3.52,-3.33,3.52,-3.33,3.31,3.37,3.25,6.83,6.83,6.85
52.51,3.57,-3.27,3.57,-3.27,3.26,3.31,3.21,6.83,6.82,6.83
53.03,3.62,-3.20,3.61,-3.21,3.21,3.25,3.17,6.82,6.82,6.82
53.56,3.66,-3.15,3.66,-3.15,3.16,3.19,3.14,6.81,6.81,6.80
54.10,3.70,-3.10,3.70,-3.10,3.10,3.12,3.10,6.80,6.80,6.80
54.64,3.74,-3.04,3.73,-3.05,3.05,3.06,3.07,6.78,6.78,6.78
55.18,3.77,-3.00,3.77,-3.00,2.99,3.00,3.03,6.76,6.76,6.76
55.74,3.81,-2.94,3.81,-2.94,2.94,2.93,3.00,6.74,6.74,6.75
56.29,3.85,-2.89,3.85,-2.89,2.88,2.87,2.96,6.73,6.73,6.74
56.86,3.90,-2.83,3.89,-2.83,2.83,2.80,2.92,6.73,6.72,6.72
57.42,3.94,-2.77,3.94,-2.77,2.77,2.74,2.89,6.71,6.71,6.70
58.00,3.98,-2.72,3.98,-2.71,2.72,2.67,2.85,6.69,6.70,6.69
58.58,4.02,-2.66,4.02,-2.66,2.66,2.61,2.81,6.68,6.68,6.67
59.16,4.06,-2.60,4.06,-2.60,2.60,2.54,2.77,6.66,6.65,6.65
59.76,4.10,-2.55,4.10,-2.54,2.54,2.47,2.73,6.63,6.63,6.64
60.35,4.14,-2.48,4.14,-2.48,2.47,2.41,2.68,6.61,6.61,6.62
60.96,4.19,-2.41,4.19,-2.41,2.41,2.34,2.64,6.60,6.59,6.60
61.57,4.24,-2.34,4.23,-2.34,2.34,2.28,2.59,6.58,6.58,6.57
62.18,4.28,-2.27,4.28,-2.27,2.27,2.21,2.54,6.55,6.55,6.55
62.80,4.33,-2.20,4.32,-2.20,2.20,2.14,2.49,6.53,6.53,6.53
63.43,4.37,-2.13,4.37,-2.13,2.13,2.08,2.43,6.50,6.50,6.50
64.07,4.41,-2.07,4.41,-2.06,2.06,2.01,2.38,6.47,6.47,6.48
64.71,4.46,-1.99,4.45,-1.99,2.00,1.95,2.32,6.45,6.45,6.45
65.35,4.50,-1.92,4.50,-1.93,1.93,1.88,2.26,6.43,6.43,6.42
66.01,4.54,-1.86,4.53,-1.86,1.87,1.82,2.20,6.40,6.40,6.39
66.67,4.57,-1.80,4.57,-1.80,1.80,1.75,2.13,6.37,6.37,6.36
67.33,4.60,-1.74,4.60,-1.74,1.73,1.69,2.06,6.33,6.33,6.33
68.01,4.63,-1.68,4.63,-1.68,1.67,1.63,1.99,6.29,6.30,6.30
68.69,4.67,-1.61,4.66,-1.61,1.60,1.57,1.92,6.27,6.26,6.27
69.37,4.70,-1.54,4.70,-1.54,1.54,1.50,1.85,6.23,6.24,6.24
70.07,4.74,-1.47,4.74,-1.47,1.47,1.44,1.77,6.21,6.21,6.21
70.77,4.78,-1.40,4.78,-1.40,1.41,1.38,1.70,6.19,6.19,6.17
71.48,4.82,-1.33,4.81,-1.34,1.35,1.32,1.62,6.16,6.16,6.15
72.19,4.84,-1.28,4.84,-1.28,1.29,1.25,1.54,6.12,6.12,6.11
72.91,4.86,-1.22,4.86,-1.22,1.22,1.19,1.46,6.08,6.08,6.08
73.64,4.88,-1.17,4.88,-1.17,1.16,1.13,1.38,6.04,6.04,6.04
74.38,4.90,-1.12,4.90,-1.11,1.10,1.07,1.30,5.99,6.00,6.01
75.12,4.94,-1.04,4.94,-1.04,1.03,1.01,1.22,5.97,5.97,5.98
75.87,4.98,-0.97,4.97,-0.97,0.96,0.94,1.14,5.94,5.94,5.95
76.63,5.02,-0.89,5.02,-0.89,0.89,0.88,1.05,5.91,5.91,5.91
77.40,5.06,-0.81,5.06,-0.81,0.82,0.82,0.97,5.87,5.87,5.86
78.17,5.10,-0.74,5.10,-0.73,0.74,0.75,0.89,5.84,5.84,5.83
78.95,5.14,-0.65,5.13,-0.66,0.66,0.69,0.80,5.80,5.80,5.79
79.74,5.17,-0.58,5.17,-0.59,0.59,0.63,0.72,5.75,5.75,5.75
80.54,5.20,-0.52,5.19,-0.51,0.51,0.56,0.63,5.71,5.71,5.71
81.35,5.22,-0.45,5.22,-0.45,0.44,0.50,0.55,5.66,5.66,5.67
82.16,5.25,-0.38,5.25,-0.38,0.38,0.43,0.46,5.62,5.62,5.62
82.98,5.27,-0.31,5.27,-0.31,0.31,0.36,0.38,5.58,5.58,5.58
83.81,5.30,-0.23,5.29,-0.24,0.25,0.29,0.29,5.54,5.54,5.53
84.65,5.31,-0.19,5.31,-0.18,0.19,0.23,0.20,5.49,5.49,5.49
85.50,5.32,-0.13,5.32,-0.13,0.12,0.16,0.12,5.44,5.44,5.44
86.35,5.33,-0.07,5.33,-0.07,0.06,0.09,0.03,5.39,5.39,5.39
87.22,5.34,-0.01,5.34,-0.00,0.00,0.02,-0.05,5.34,5.34,5.34
88.09,5.36,0.06,5.35,0.06,-0.06,-0.05,-0.14,5.30,5.30,5.29
88.97,5.37,0.12,5.36,0.12,-0.12,-0.12,-0.23,5.24,5.24,5.24
89.86,5.38,0.19,5.38,0.19,-0.19,-0.19,-0.31,5.19,5.19,5.19
90.76,5.39,0.25,5.39,0.25,-0.26,-0.27,-0.40,5.13,5.13,5.14
91.66,5.42,0.33,5.42,0.33,-0.34,-0.34,-0.49,5.08,5.08,5.09
92.58,5.45,0.41,5.44,0.41,-0.41,-0.41,-0.58,5.03,5.03,5.03
93.51,5.48,0.50,5.48,0.50,-0.50,-0.48,-0.66,4.98,4.98,4.98
94.44,5.51,0.58,5.51,0.58,-0.58,-0.56,-0.75,4.93,4.93,4.93
95.39,5.54,0.67,5.54,0.66,-0.66,-0.63,-0.84,4.87,4.87,4.87
96.34,5.57,0.75,5.57,0.75,-0.75,-0.70,-0.93,4.82,4.82,4.82
97.30,5.60,0.83,5.60,0.83,-0.83,-0.78,-1.02,4.77,4.77,4.77
98.28,5.63,0.91,5.62,0.91,-0.91,-0.85,-1.10,4.71,4.71,4.72
99.26,5.65,0.99,5.65,0.99,-0.99,-0.93,-1.19,4.66,4.66,4.66
100.25,5.67,1.06,5.67,1.06,-1.06,-1.00,-1.28,4.61,4.61,4.60
101.25,5.68,1.13,5.68,1.13,-1.12,-1.07,-1.37,4.55,4.56,4.55
102.27,5.69,1.19,5.69,1.19,-1.18,-1.15,-1.45,4.51,4.51,4.49
103.29,5.69,1.25,5.68,1.24,-1.23,-1.22,-1.54,4.45,4.45,4.44
104.32,5.68,1.29,5.67,1.29,-1.28,-1.29,-1.63,4.40,4.39,4.39
105.37,5.66,1.32,5.66,1.33,-1.33,-1.37,-1.71,4.33,4.33,4.33
106.42,5.65,1.37,5.65,1.36,-1.38,-1.44,-1.79,4.27,4.27,4.28
107.48,5.64,1.41,5.64,1.41,-1.43,-1.51,-1.88,4.21,4.21,4.23
108.56,5.65,1.47,5.64,1.47,-1.48,-1.58,-1.96,4.16,4.16,4.17
109.64,5.66,1.54,5.66,1.54,-1.54,-1.65,-2.04,4.11,4.11,4.12
110.74,5.68,1.61,5.68,1.61,-1.61,-1.73,-2.11,4.07,4.07,4.06
111.85,5.70,1.69,5.70,1.69,-1.68,-1.80,-2.19,4.01,4.01,4.01
112.97,5.73,1.76,5.72,1.76,-1.76,-1.86,-2.26,3.96,3.96,3.96
114.10,5.75,1.84,5.75,1.84,-1.84,-1.93,-2.33,3.90,3.90,3.91
115.24,5.78,1.92,5.78,1.92,-1.93,-2.00,-2.40,3.85,3.85,3.85
116.39,5.81,2.01,5.81,2.01,-2.01,-2.07,-2.46,3.80,3.80,3.80
117.55,5.85,2.09,5.84,2.09,-2.09,-2.13,-2.52,3.75,3.75,3.75
118.73,5.88,2.18,5.88,2.18,-2.18,-2.20,-2.58,3.70,3.70,3.70
119.92,5.91,2.26,5.90,2.26,-2.26,-2.26,-2.63,3.65,3.65,3.65
121.12,5.93,2.33,5.93,2.33,-2.33,-2.32,-2.69,3.59,3.60,3.59
122.33,5.96,2.41,5.95,2.41,-2.41,-2.38,-2.73,3.55,3.55,3.55
123.55,5.98,2.48,5.98,2.48,-2.47,-2.44,-2.77,3.50,3.50,3.50
124.79,6.00,2.54,6.00,2.54,-2.54,-2.50,-2.81,3.46,3.46,3.46
126.03,6.01,2.60,6.01,2.60,-2.59,-2.56,-2.84,3.41,3.41,3.41
127.29,6.02,2.65,6.01,2.65,-2.64,-2.61,-2.87,3.37,3.37,3.37
128.57,6.02,2.70,6.01,2.70,-2.69,-2.67,-2.90,3.33,3.32,3.32
129.85,6.01,2.74,6.01,2.74,-2.73,-2.72,-2.92,3.27,3.27,3.27
131.15,6.00,2.78,6.00,2.77,-2.78,-2.77,-2.94,3.22,3.22,3.22
132.46,5.99,2.80,5.99,2.81,-2.82,-2.82,-2.95,3.17,3.17,3.18
133.79,5.99,2.85,5.99,2.85,-2.86,-2.87,-2.97,3.13,3.13,3.14
135.12,5.99,2.90,5.99,2.89,-2.90,-2.92,-2.97,3.09,3.09,3.09
136.48,5.99,2.94,5.99,2.94,-2.94,-2.96,-2.98,3.05,3.05,3.05
137.84,5.99,2.98,5.99,2.99,-2.98,-3.00,-2.98,3.00,3.00,3.00
139.22,5.99,3.03,5.99,3.03,-3.02,-3.05,-2.99,2.96,2.96,2.96
140.61,5.99,3.07,5.99,3.07,-3.07,-3.08,-2.98,2.92,2.92,2.92
142.02,5.99,3.10,5.99,3.11,-3.11,-3.12,-2.98,2.88,2.88,2.88
143.44,5.99,3.14,5.99,3.14,-3.14,-3.16,-2.98,2.84,2.84,2.84
144.87,5.99,3.18,5.99,3.18,-3.18,-3.20,-2.98,2.80,2.80,2.80
146.32,5.99,3.21,5.99,3.22,-3.22,-3.23,-2.97,2.77,2.77,2.77
147.78,5.99,3.25,5.99,3.25,-3.25,-3.26,-2.97,2.73,2.73,2.73
149.26,5.99,3.29,5.99,3.29,-3.29,-3.29,-2.97,2.70,2.70,2.70
150.75,5.99,3.32,5.99,3.32,-3.32,-3.32,-2.96,2.67,2.67,2.67
152.26,5.99,3.35,5.99,3.35,-3.35,-3.35,-2.96,2.63,2.63,2.63
153.78,5.99,3.39,5.99,3.39,-3.39,-3.38,-2.96,2.60,2.60,2.60
155.32,5.99,3.41,5.99,3.42,-3.42,-3.41,-2.96,2.57,2.57,2.57
156.88,5.99,3.45,5.99,3.45,-3.45,-3.44,-2.96,2.54,2.54,2.54
158.44,5.99,3.48,5.99,3.48,-3.48,-3.46,-2.96,2.50,2.50,2.50
160.03,5.99,3.51,5.99,3.51,-3.51,-3.49,-2.96,2.47,2.47,2.47
161.63,5.99,3.55,5.99,3.54,-3.54,-3.52,-2.97,2.45,2.45,2.44
163.24,5.99,3.57,5.99,3.57,-3.57,-3.55,-2.97,2.42,2.42,2.42
164.88,5.99,3.60,5.99,3.60,-3.60,-3.57,-2.98,2.39,2.39,2.39
166.53,5.99,3.63,5.99,3.62,-3.62,-3.60,-2.99,2.36,2.36,2.36
168.19,5.99,3.65,5.99,3.65,-3.65,-3.63,-3.01,2.34,2.34,2.33
169.87,5.99,3.67,5.99,3.67,-3.67,-3.66,-3.02,2.31,2.31,2.32
171.57,5.99,3.70,5.99,3.70,-3.70,-3.68,-3.04,2.29,2.29,2.29
173.29,5.99,3.72,5.99,3.72,-3.72,-3.71,-3.06,2.26,2.26,2.26
175.02,5.99,3.75,5.99,3.75,-3.75,-3.74,-3.08,2.24,2.24,2.24
176.77,5.99,3.76,5.99,3.77,-3.77,-3.76,-3.11,2.22,2.22,2.22
178.54,5.99,3.79,5.99,3.79,-3.79,-3.79,-3.13,2.20,2.20,2.20
180.32,5.99,3.81,5.99,3.81,-3.81,-3.82,-3.16,2.17,2.17,2.17
182.13,5.99,3.83,5.99,3.83,-3.83,-3.84,-3.20,2.15,2.15,2.15
183.95,5.99,3.86,5.99,3.86,-3.86,-3.86,-3.23,2.13,2.13,2.13
185.79,5.99,3.88,5.99,3.88,-3.88,-3.88,-3.27,2.11,2.11,2.11
187.65,5.99,3.90,5.99,3.90,-3.90,-3.91,-3.31,2.09,2.09,2.09
189.52,5.99,3.92,5.99,3.92,-3.92,-3.92,-3.35,2.07,2.07,2.07
191.42,5.99,3.94,5.99,3.94,-3.94,-3.94,-3.39,2.05,2.05,2.05
193.33,5.99,3.96,5.99,3.96,-3.96,-3.96,-3.44,2.03,2.03,2.03
195.27,5.99,3.97,5.99,3.97,-3.98,-3.97,-3.49,2.01,2.01,2.01
197.22,5.99,3.99,5.99,3.99,-3.99,-3.99,-3.54,1.99,1.99,1.99
199.19,5.99,4.01,5.99,4.01,-4.01,-4.00,-3.59,1.97,1.98,1.98
201.18,6.00,4.03,5.99,4.03,-4.03,-4.01,-3.64,1.97,1.96,1.97
203.19,6.00,4.04,6.00,4.04,-4.05,-4.02,-3.70,1.95,1.95,1.95
205.23,6.01,4.06,6.01,4.06,-4.06,-4.03,-3.75,1.94,1.95,1.95
207.28,6.02,4.08,6.01,4.08,-4.07,-4.03,-3.81,1.94,1.94,1.93
209.35,6.01,4.09,6.01,4.09,-4.08,-4.04,-3.86,1.93,1.93,1.92
211.44,6.00,4.08,6.00,4.09,-4.08,-4.04,-3.92,1.91,1.92,1.91
213.56,5.99,4.09,5.98,4.08,-4.08,-4.04,-3.98,1.90,1.90,1.90
215.69,5.97,4.08,5.97,4.08,-4.08,-4.04,-4.03,1.89,1.89,1.89
217.85,5.95,4.07,5.94,4.07,-4.06,-4.04,-4.08,1.88,1.88,1.87
220.03,5.92,4.04,5.92,4.05,-4.05,-4.04,-4.14,1.87,1.87,1.87
222.23,5.89,4.03,5.89,4.03,-4.03,-4.04,-4.19,1.86,1.86,1.86
224.45,5.86,4.01,5.86,4.01,-4.01,-4.03,-4.24,1.85,1.85,1.85
226.70,5.83,3.99,5.83,3.98,-3.98,-4.03,-4.28,1.84,1.84,1.84
228.96,5.80,3.96,5.80,3.96,-3.96,-4.02,-4.32,1.83,1.83,1.84
231.25,5.77,3.94,5.76,3.94,-3.94,-4.01,-4.36,1.83,1.83,1.83
233.57,5.74,3.92,5.74,3.92,-3.92,-4.00,-4.39,1.82,1.82,1.82
235.90,5.71,3.89,5.71,3.90,-3.90,-3.99,-4.42,1.80,1.81,1.82
238.26,5.70,3.89,5.69,3.88,-3.89,-3.98,-4.45,1.81,1.80,1.81
240.64,5.68,3.87,5.68,3.87,-3.87,-3.97,-4.47,1.80,1.80,1.81
243.05,5.67,3.86,5.67,3.86,-3.86,-3.96,-4.48,1.80,1.81,1.81
245.48,5.67,3.85,5.66,3.85,-3.86,-3.94,-4.49,1.81,1.80,1.81
247.93,5.66,3.85,5.66,3.85,-3.85,-3.93,-4.49,1.81,1.81,1.80
250.41,5.65,3.84,5.65,3.84,-3.84,-3.91,-4.49,1.81,1.81,1.81
252.92,5.65,3.84,5.64,3.83,-3.83,-3.89,-4.48,1.82,1.81,1.81
255.45,5.63,3.82,5.63,3.82,-3.81,-3.88,-4.47,1.81,1.82,1.81
258.00,5.61,3.80,5.61,3.80,-3.79,-3.86,-4.45,1.81,1.81,1.80
260.58,5.58,3.77,5.58,3.77,-3.77,-3.84,-4.42,1.81,1.81,1.81
263.19,5.55,3.75,5.55,3.75,-3.75,-3.82,-4.39,1.80,1.80,1.80
265.82,5.52,3.72,5.52,3.72,-3.72,-3.80,-4.35,1.80,1.79,1.79
268.48,5.49,3.69,5.49,3.69,-3.70,-3.78,-4.31,1.79,1.79,1.80
271.16,5.46,3.66,5.46,3.67,-3.67,-3.75,-4.26,1.79,1.79,1.79
273.87,5.44,3.65,5.43,3.64,-3.65,-3.73,-4.21,1.79,1.79,1.79
276.61,5.41,3.62,5.41,3.62,-3.63,-3.70,-4.16,1.78,1.79,1.79
279.38,5.40,3.61,5.39,3.61,-3.61,-3.68,-4.10,1.79,1.79,1.79
282.17,5.38,3.59,5.37,3.59,-3.59,-3.65,-4.04,1.79,1.79,1.79
284.99,5.36,3.57,5.36,3.57,-3.57,-3.63,-3.98,1.78,1.79,1.79
287.84,5.34,3.56,5.34,3.55,-3.56,-3.60,-3.92,1.78,1.78,1.78
290.72,5.32,3.54,5.32,3.54,-3.54,-3.57,-3.85,1.78,1.78,1.78
293.63,5.30,3.52,5.30,3.52,-3.52,-3.54,-3.78,1.77,1.77,1.77
296.57,5.28,3.51,5.28,3.51,-3.50,-3.52,-3.72,1.77,1.77,1.77
299.53,5.26,3.48,5.26,3.49,-3.49,-3.49,-3.65,1.77,1.77,1.77
302.53,5.24,3.47,5.23,3.46,-3.47,-3.46,-3.58,1.77,1.77,1.77
305.55,5.21,3.44,5.21,3.44,-3.44,-3.43,-3.51,1.76,1.77,1.77
308.61,5.19,3.41,5.19,3.42,-3.42,-3.39,-3.44,1.77,1.77,1.77
311.69,5.17,3.40,5.16,3.39,-3.39,-3.36,-3.38,1.78,1.77,1.77
314.81,5.14,3.36,5.14,3.36,-3.36,-3.33,-3.31,1.78,1.78,1.78
317.96,5.11,3.33,5.10,3.33,-3.33,-3.30,-3.25,1.78,1.78,1.77
321.14,5.07,3.29,5.07,3.29,-3.29,-3.26,-3.18,1.78,1.78,1.78
324.35,5.04,3.26,5.03,3.26,-3.26,-3.23,-3.12,1.78,1.78,1.78
327.59,5.00,3.22,4.99,3.22,-3.22,-3.20,-3.06,1.77,1.77,1.77
330.87,4.96,3.18,4.96,3.18,-3.19,-3.16,-3.00,1.77,1.77,1.78
334.18,4.93,3.14,4.93,3.15,-3.16,-3.13,-2.94,1.77,1.77,1.79
337.52,4.91,3.12,4.91,3.12,-3.13,-3.09,-2.89,1.78,1.78,1.78
340.90,4.89,3.09,4.88,3.09,-3.09,-3.05,-2.84,1.79,1.79,1.79
344.30,4.86,3.07,4.86,3.07,-3.06,-3.02,-2.79,1.80,1.80,1.79
347.75,4.83,3.04,4.83,3.04,-3.02,-2.98,-2.74,1.80,1.80,1.79
351.23,4.79,3.00,4.79,3.00,-2.99,-2.94,-2.69,1.80,1.80,1.78
354.74,4.75,2.95,4.74,2.95,-2.95,-2.90,-2.65,1.80,1.80,1.79
358.28,4.70,2.91,4.70,2.91,-2.91,-2.86,-2.61,1.79,1.79,1.79
361.87,4.65,2.86,4.65,2.86,-2.86,-2.83,-2.56,1.78,1.79,1.79
365.49,4.61,2.82,4.60,2.82,-2.82,-2.79,-2.53,1.78,1.78,1.79
369.14,4.56,2.77,4.56,2.77,-2.79,-2.75,-2.49,1.77,1.77,1.78
372.83,4.53,2.74,4.53,2.74,-2.75,-2.71,-2.46,1.77,1.77,1.78
376.56,4.50,2.71,4.50,2.71,-2.72,-2.67,-2.42,1.77,1.78,1.79
380.33,4.49,2.70,4.48,2.70,-2.69,-2.63,-2.39,1.79,1.79,1.79
384.13,4.47,2.68,4.46,2.68,-2.66,-2.58,-2.37,1.80,1.80,1.79
387.97,4.45,2.66,4.44,2.65,-2.64,-2.54,-2.34,1.81,1.81,1.79
391.85,4.41,2.61,4.41,2.62,-2.61,-2.50,-2.31,1.80,1.80,1.79
395.77,4.38,2.58,4.37,2.58,-2.58,-2.46,-2.29,1.80,1.80,1.79
399.73,4.34,2.53,4.34,2.54,-2.55,-2.42,-2.27,1.79,1.79,1.80
403.72,4.31,2.51,4.31,2.50,-2.52,-2.37,-2.25,1.79,1.79,1.80
407.76,4.28,2.47,4.28,2.47,-2.49,-2.33,-2.23,1.79,1.79,1.81
411.84,4.26,2.45,4.26,2.45,-2.46,-2.29,-2.21,1.80,1.80,1.81
415.96,4.25,2.43,4.24,2.43,-2.42,-2.25,-2.19,1.82,1.82,1.82
420.12,4.23,2.41,4.22,2.41,-2.39,-2.20,-2.17,1.83,1.83,1.82
424.32,4.20,2.38,4.19,2.37,-2.36,-2.16,-2.16,1.84,1.83,1.81
428.56,4.15,2.32,4.15,2.33,-2.32,-2.11,-2.14,1.82,1.83,1.82
432.85,4.11,2.28,4.10,2.28,-2.29,-2.07,-2.13,1.82,1.82,1.82
437.18,4.06,2.23,4.06,2.24,-2.25,-2.02,-2.11,1.81,1.81,1.82
441.55,4.02,2.20,4.02,2.20,-2.21,-1.98,-2.09,1.81,1.82,1.82
445.96,3.99,2.17,3.98,2.16,-2.16,-1.93,-2.08,1.82,1.82,1.82
450.42,3.95,2.13,3.94,2.12,-2.12,-1.89,-2.06,1.82,1.82,1.82
454.93,3.90,2.08,3.90,2.08,-2.08,-1.84,-2.04,1.81,1.82,1.82
459.48,3.86,2.04,3.86,2.04,-2.04,-1.80,-2.03,1.81,1.81,1.82
464.07,3.82,2.00,3.82,2.00,-2.00,-1.75,-2.01,1.81,1.81,1.82
468.71,3.78,1.96,3.78,1.96,-1.96,-1.71,-1.99,1.82,1.82,1.82
473.40,3.74,1.92,3.74,1.92,-1.91,-1.66,-1.96,1.82,1.82,1.81
478.13,3.70,1.87,3.69,1.87,-1.87,-1.61,-1.94,1.83,1.83,1.82
482.91,3.65,1.82,3.65,1.82,-1.82,-1.57,-1.91,1.83,1.83,1.82
487.74,3.60,1.77,3.60,1.77,-1.77,-1.52,-1.89,1.82,1.82,1.82
492.62,3.55,1.72,3.54,1.72,-1.73,-1.47,-1.86,1.82,1.82,1.82
497.55,3.50,1.67,3.50,1.67,-1.68,-1.43,-1.83,1.82,1.82,1.83
502.52,3.45,1.62,3.45,1.62,-1.63,-1.38,-1.79,1.81,1.82,1.83
507.55,3.42,1.59,3.42,1.58,-1.58,-1.33,-1.76,1.83,1.83,1.83
512.62,3.39,1.56,3.38,1.55,-1.54,-1.29,-1.72,1.85,1.84,1.83
517.75,3.34,1.50,3.34,1.50,-1.49,-1.24,-1.68,1.85,1.85,1.84
522.93,3.29,1.45,3.28,1.45,-1.44,-1.19,-1.64,1.85,1.84,1.84
528.16,3.23,1.39,3.23,1.39,-1.39,-1.15,-1.60,1.83,1.83,1.84
533.44,3.18,1.34,3.18,1.34,-1.35,-1.10,-1.55,1.83,1.83,1.84
538.77,3.13,1.28,3.13,1.29,-1.30,-1.05,-1.50,1.83,1.83,1.85
544.16,3.09,1.24,3.09,1.24,-1.24,-1.00,-1.45,1.84,1.84,1.85
549.60,3.05,1.20,3.04,1.20,-1.19,-0.96,-1.40,1.86,1.85,1.85
555.10,3.00,1.15,3.00,1.15,-1.14,-0.91,-1.35,1.86,1.86,1.85
560.65,2.95,1.10,2.94,1.10,-1.09,-0.86,-1.30,1.86,1.85,1.85
566.25,2.89,1.04,2.89,1.04,-1.04,-0.81,-1.24,1.85,1.85,1.84
571.92,2.83,0.97,2.83,0.98,-0.99,-0.77,-1.18,1.84,1.84,1.85
577.64,2.78,0.92,2.78,0.93,-0.94,-0.72,-1.13,1.84,1.84,1.85
583.41,2.74,0.88,2.74,0.88,-0.88,-0.67,-1.07,1.85,1.85,1.85
589.25,2.70,0.84,2.69,0.84,-0.83,-0.62,-1.01,1.87,1.86,1.85
595.14,2.65,0.78,2.64,0.78,-0.78,-0.58,-0.95,1.87,1.87,1.86
601.09,2.59,0.72,2.59,0.73,-0.73,-0.53,-0.88,1.86,1.86,1.86
607.10,2.54,0.67,2.54,0.67,-0.68,-0.48,-0.82,1.86,1.86,1.86
613.17,2.49,0.61,2.49,0.62,-0.62,-0.43,-0.76,1.86,1.86,1.87
619.30,2.44,0.56,2.44,0.57,-0.57,-0.39,-0.70,1.87,1.87,1.87
625.50,2.40,0.52,2.39,0.52,-0.52,-0.34,-0.63,1.88,1.88,1.87
631.75,2.35,0.47,2.34,0.47,-0.46,-0.29,-0.57,1.88,1.88,1.87
638.07,2.29,0.41,2.29,0.41,-0.41,-0.25,-0.51,1.88,1.88,1.88
644.45,2.23,0.35,2.23,0.35,-0.35,-0.20,-0.44,1.87,1.88,1.88
650.89,2.18,0.30,2.18,0.29,-0.30,-0.15,-0.38,1.88,1.88,1.88
657.40,2.13,0.25,2.12,0.24,-0.24,-0.11,-0.31,1.89,1.88,1.88
663.98,2.07,0.18,2.07,0.18,-0.18,-0.06,-0.25,1.88,1.89,1.89
670.62,2.02,0.13,2.01,0.12,-0.13,-0.01,-0.18,1.89,1.89,1.89
677.32,1.96,0.07,1.96,0.07,-0.07,0.03,-0.12,1.89,1.89,1.89
684.10,1.90,0.01,1.90,0.01,-0.01,0.08,-0.05,1.89,1.89,1.89
690.94,1.85,-0.04,1.84,-0.05,0.05,0.13,0.01,1.90,1.89,1.89
697.85,1.79,-0.10,1.78,-0.11,0.11,0.17,0.08,1.90,1.89,1.89
704.83,1.73,-0.17,1.73,-0.17,0.17,0.22,0.14,1.89,1.90,1.90
711.87,1.67,-0.23,1.67,-0.23,0.23,0.26,0.21,1.89,1.90,1.90
718.99,1.62,-0.28,1.61,-0.29,0.28,0.31,0.27,1.90,1.89,1.90
726.18,1.56,-0.34,1.56,-0.34,0.34,0.35,0.34,1.90,1.89,1.90
733.44,1.50,-0.40,1.50,-0.40,0.40,0.40,0.41,1.89,1.90,1.90
740.78,1.45,-0.45,1.45,-0.45,0.46,0.44,0.47,1.90,1.90,1.90
748.19,1.40,-0.50,1.39,-0.51,0.51,0.49,0.54,1.91,1.91,1.90
755.67,1.34,-0.56,1.34,-0.56,0.57,0.53,0.61,1.90,1.91,1.90
763.23,1.29,-0.62,1.28,-0.62,0.62,0.57,0.67,1.91,1.91,1.91
770.86,1.23,-0.68,1.22,-0.68,0.68,0.62,0.74,1.90,1.90,1.91
778.57,1.17,-0.74,1.17,-0.74,0.73,0.66,0.81,1.89,1.90,1.91
786.35,1.12,-0.79,1.12,-0.79,0.78,0.70,0.88,1.89,1.90,1.91
794.22,1.08,-0.82,1.08,-0.82,0.83,0.75,0.94,1.90,1.90,1.90
802.16,1.04,-0.86,1.04,-0.86,0.87,0.79,1.01,1.91,1.91,1.90
810.18,1.00,-0.90,0.99,-0.91,0.91,0.83,1.08,1.91,1.90,1.90
818.28,0.94,-0.96,0.94,-0.96,0.95,0.87,1.14,1.89,1.89,1.90
826.46,0.89,-1.00,0.89,-1.00,0.99,0.92,1.21,1.88,1.88,1.89
834.73,0.84,-1.05,0.84,-1.04,1.03,0.96,1.27,1.87,1.87,1.89
843.08,0.81,-1.07,0.80,-1.07,1.07,1.00,1.34,1.88,1.87,1.88
851.51,0.77,-1.10,0.76,-1.10,1.11,1.04,1.40,1.88,1.87,1.87
860.02,0.72,-1.14,0.71,-1.14,1.15,1.08,1.46,1.87,1.87,1.86
868.62,0.66,-1.19,0.66,-1.19,1.20,1.12,1.52,1.85,1.85,1.85
877.31,0.60,-1.24,0.60,-1.23,1.24,1.16,1.58,1.84,1.84,1.84
886.08,0.54,-1.28,0.54,-1.29,1.29,1.20,1.64,1.83,1.83,1.82
894.94,0.49,-1.34,0.49,-1.35,1.34,1.24,1.70,1.83,1.83,1.83
903.89,0.45,-1.42,0.45,-1.40,1.40,1.28,1.75,1.84,1.84,1.87
912.93,0.41,-1.45,0.40,-1.46,1.45,1.31,1.80,1.86,1.86,1.86
922.06,0.36,-1.50,0.36,-1.52,1.51,1.35,1.85,1.87,1.87,1.86
931.28,0.31,-1.59,0.31,-1.56,1.57,1.39,1.90,1.88,1.88,1.90
940.59,0.26,-1.61,0.25,-1.62,1.62,1.43,1.94,1.88,1.88,1.87
950.00,0.21,-1.66,0.21,-1.68,1.67,1.46,1.98,1.88,1.88,1.87
959.50,0.16,-1.74,0.16,-1.73,1.72,1.50,2.02,1.88,1.89,1.90
969.09,0.13,-1.80,0.12,-1.78,1.77,1.53,2.06,1.90,1.89,1.93
978.78,0.09,-1.83,0.08,-1.82,1.81,1.57,2.09,1.90,1.90,1.92
988.57,0.05,-1.83,0.05,-1.85,1.86,1.60,2.12,1.90,1.90,1.88
998.46,0.01,-1.89,0.00,-1.89,1.90,1.64,2.14,1.91,1.90,1.89
1008.44,-0.03,-1.95,-0.03,-1.93,1.94,1.67,2.16,1.91,1.91,1.91
1018.53,-0.06,-1.99,-0.06,-1.98,1.98,1.71,2.18,1.92,1.92,1.92
1028.71,-0.08,-2.01,-0.08,-2.02,2.03,1.74,2.20,1.94,1.94,1.92
1039.00,-0.10,-2.07,-0.11,-2.07,2.07,1.77,2.21,1.97,1.97,1.96
1049.39,-0.12,-2.12,-0.13,-2.12,2.12,1.80,2.22,2.00,1.99,1.99
1059.88,-0.15,-2.18,-0.15,-2.16,2.17,1.83,2.23,2.01,2.01,2.02
1070.48,-0.17,-2.20,-0.17,-2.21,2.21,1.87,2.23,2.03,2.04,2.02
1081.19,-0.18,-2.24,-0.19,-2.25,2.24,1.90,2.23,2.06,2.06,2.05
1092.00,-0.19,-2.31,-0.19,-2.28,2.27,1.93,2.23,2.08,2.08,2.11
1102.92,-0.19,-2.29,-0.19,-2.31,2.29,1.95,2.23,2.10,2.10,2.09
1113.95,-0.19,-2.31,-0.19,-2.32,2.31,1.98,2.22,2.11,2.11,2.11
1125.09,-0.19,-2.35,-0.19,-2.32,2.32,2.01,2.22,2.13,2.13,2.15
1136.34,-0.19,-2.32,-0.19,-2.33,2.33,2.04,2.21,2.14,2.14,2.12
1147.70,-0.19,-2.32,-0.20,-2.33,2.34,2.06,2.20,2.15,2.15,2.12
1159.18,-0.19,-2.34,-0.19,-2.33,2.35,2.09,2.19,2.16,2.16,2.14
1170.77,-0.18,-2.34,-0.18,-2.34,2.36,2.12,2.18,2.18,2.18,2.15
1182.48,-0.16,-2.37,-0.17,-2.38,2.37,2.14,2.17,2.21,2.21,2.20
1194.30,-0.14,-2.40,-0.15,-2.40,2.38,2.17,2.16,2.24,2.24,2.25
1206.25,-0.12,-2.44,-0.12,-2.41,2.39,2.19,2.15,2.26,2.27,2.31
1218.31,-0.09,-2.40,-0.09,-2.41,2.39,2.21,2.14,2.30,2.30,2.30
1230.49,-0.06,-2.39,-0.06,-2.40,2.40,2.24,2.13,2.33,2.33,2.32
1242.80,-0.03,-2.41,-0.03,-2.38,2.40,2.26,2.12,2.37,2.37,2.37
1255.22,-0.00,-2.38,-0.00,-2.39,2.40,2.28,2.11,2.40,2.40,2.37
1267.78,0.03,-2.38,0.02,-2.39,2.41,2.30,2.11,2.43,2.43,2.40
1280.45,0.05,-2.42,0.05,-2.40,2.42,2.32,2.10,2.46,2.46,2.46
1293.26,0.07,-2.41,0.07,-2.42,2.42,2.34,2.10,2.49,2.49,2.47
1306.19,0.09,-2.44,0.09,-2.45,2.43,2.35,2.09,2.52,2.52,2.52
1319.25,0.12,-2.48,0.12,-2.46,2.44,2.37,2.09,2.56,2.56,2.59
1332.45,0.15,-2.47,0.15,-2.47,2.45,2.39,2.09,2.59,2.59,2.61
1345.77,0.18,-2.46,0.18,-2.46,2.45,2.40,2.09,2.63,2.63,2.63
1359.23,0.21,-2.45,0.20,-2.45,2.46,2.42,2.10,2.66,2.66,2.65
1372.82,0.23,-2.45,0.23,-2.45,2.46,2.43,2.10,2.68,2.68,2.67
1386.55,0.25,-2.45,0.25,-2.45,2.46,2.45,2.11,2.70,2.71,2.69
1400.41,0.27,-2.46,0.27,-2.45,2.46,2.46,2.12,2.73,2.73,2.72
1414.42,0.30,-2.46,0.29,-2.46,2.47,2.47,2.13,2.76,2.76,2.75
1428.56,0.32,-2.48,0.32,-2.48,2.48,2.48,2.14,2.79,2.79,2.79
1442.85,0.34,-2.50,0.34,-2.49,2.49,2.49,2.15,2.83,2.83,2.83
1457.28,0.37,-2.51,0.37,-2.51,2.51,2.50,2.17,2.87,2.87,2.87
1471.85,0.40,-2.53,0.40,-2.53,2.53,2.51,2.18,2.92,2.92,2.92
1486.57,0.43,-2.55,0.43,-2.55,2.55,2.52,2.20,2.97,2.97,2.97
1501.43,0.46,-2.57,0.46,-2.57,2.57,2.53,2.22,3.02,3.03,3.02
1516.45,0.49,-2.59,0.48,-2.59,2.59,2.53,2.24,3.08,3.08,3.07
1531.61,0.52,-2.61,0.51,-2.61,2.61,2.54,2.27,3.13,3.13,3.12
1546.93,0.54,-2.65,0.54,-2.64,2.64,2.54,2.29,3.18,3.18,3.18
1562.40,0.58,-2.66,0.57,-2.66,2.66,2.54,2.32,3.24,3.24,3.23
1578.02,0.61,-2.68,0.60,-2.68,2.68,2.54,2.34,3.29,3.29,3.28
1593.80,0.64,-2.71,0.64,-2.70,2.70,2.54,2.37,3.34,3.34,3.34
1609.74,0.67,-2.73,0.67,-2.73,2.72,2.54,2.40,3.39,3.39,3.39
1625.84,0.72,-2.74,0.72,-2.74,2.73,2.54,2.43,3.45,3.45,3.45
1642.10,0.77,-2.75,0.77,-2.74,2.74,2.54,2.46,3.50,3.51,3.51
1658.52,0.84,-2.74,0.83,-2.74,2.74,2.54,2.49,3.57,3.57,3.57
1675.10,0.89,-2.74,0.89,-2.74,2.73,2.53,2.52,3.62,3.62,3.62
1691.85,0.96,-2.73,0.96,-2.73,2.73,2.53,2.55,3.68,3.69,3.68
1708.77,1.03,-2.72,1.02,-2.72,2.72,2.52,2.58,3.75,3.74,3.74
1725.86,1.10,-2.70,1.09,-2.70,2.71,2.51,2.61,3.81,3.80,3.79
1743.12,1.16,-2.70,1.16,-2.69,2.70,2.50,2.64,3.86,3.86,3.85
1760.55,1.22,-2.69,1.22,-2.69,2.69,2.49,2.66,3.91,3.91,3.90
1778.15,1.29,-2.68,1.28,-2.68,2.68,2.48,2.69,3.97,3.96,3.96
1795.94,1.35,-2.68,1.35,-2.67,2.67,2.47,2.71,4.02,4.02,4.02
1813.90,1.42,-2.67,1.42,-2.66,2.66,2.45,2.73,4.08,4.08,4.08
1832.03,1.50,-2.65,1.49,-2.65,2.65,2.44,2.75,4.15,4.14,4.14
1850.36,1.57,-2.64,1.57,-2.63,2.64,2.42,2.76,4.20,4.21,4.20
1868.86,1.65,-2.62,1.64,-2.62,2.62,2.40,2.77,4.26,4.26,4.26
1887.55,1.73,-2.60,1.72,-2.60,2.59,2.38,2.78,4.32,4.32,4.32
1906.42,1.81,-2.58,1.81,-2.57,2.57,2.36,2.78,4.37,4.38,4.38
1925.49,1.91,-2.54,1.91,-2.54,2.54,2.34,2.78,4.44,4.44,4.44
1944.74,2.01,-2.50,2.00,-2.50,2.50,2.31,2.77,4.51,4.51,4.50
1964.19,2.11,-2.46,2.10,-2.46,2.46,2.28,2.76,4.57,4.57,4.56
1983.83,2.21,-2.41,2.21,-2.41,2.41,2.25,2.75,4.62,4.62,4.61
2003.67,2.31,-2.37,2.31,-2.36,2.36,2.22,2.73,4.67,4.67,4.67
2023.71,2.43,-2.31,2.42,-2.32,2.30,2.19,2.70,4.73,4.72,4.73
2043.94,2.53,-2.26,2.53,-2.26,2.24,2.15,2.67,4.76,4.76,4.78
2064.38,2.63,-2.21,2.63,-2.18,2.17,2.12,2.64,4.80,4.81,4.83
2085.03,2.74,-2.09,2.73,-2.10,2.11,2.08,2.60,4.85,4.85,4.82
2105.88,2.84,-2.02,2.84,-2.02,2.05,2.04,2.55,4.89,4.89,4.85
2126.94,2.95,-1.96,2.94,-1.96,1.98,1.99,2.50,4.93,4.93,4.90
2148.20,3.05,-1.91,3.04,-1.91,1.92,1.94,2.45,4.96,4.96,4.95
2169.69,3.14,-1.87,3.14,-1.87,1.85,1.89,2.39,4.99,4.99,5.00
2191.38,3.24,-1.82,3.24,-1.81,1.79,1.84,2.33,5.02,5.03,5.05
2213.30,3.35,-1.76,3.34,-1.74,1.72,1.78,2.27,5.07,5.07,5.10
2235.43,3.45,-1.65,3.45,-1.65,1.66,1.72,2.20,5.10,5.10,5.09
2257.78,3.55,-1.56,3.54,-1.58,1.59,1.66,2.13,5.13,5.13,5.10
2280.36,3.64,-1.52,3.64,-1.51,1.52,1.59,2.05,5.15,5.16,5.15
2303.17,3.74,-1.47,3.74,-1.44,1.44,1.52,1.98,5.18,5.18,5.20
2326.20,3.85,-1.38,3.84,-1.37,1.37,1.45,1.90,5.22,5.21,5.22
2349.46,3.95,-1.26,3.94,-1.29,1.30,1.38,1.82,5.25,5.24,5.20
2372.95,4.04,-1.22,4.04,-1.22,1.23,1.31,1.74,5.27,5.27,5.25
2396.68,4.13,-1.19,4.13,-1.17,1.16,1.23,1.65,5.29,5.29,5.31
2420.65,4.23,-1.13,4.22,-1.11,1.10,1.17,1.57,5.32,5.32,5.35
2444.86,4.32,-1.02,4.32,-1.04,1.03,1.10,1.48,5.34,5.34,5.33
2469.31,4.41,-0.96,4.41,-0.96,0.96,1.04,1.40,5.37,5.37,5.36
2494.00,4.50,-0.91,4.49,-0.89,0.90,0.98,1.31,5.39,5.39,5.40
2518.94,4.58,-0.81,4.57,-0.83,0.83,0.93,1.22,5.41,5.41,5.38
2544.13,4.65,-0.78,4.65,-0.77,0.77,0.88,1.13,5.42,5.42,5.42
2569.57,4.72,-0.73,4.71,-0.71,0.71,0.84,1.04,5.43,5.43,5.44
2595.27,4.78,-0.66,4.78,-0.65,0.66,0.79,0.95,5.43,5.43,5.43
2621.22,4.83,-0.59,4.83,-0.60,0.61,0.75,0.87,5.43,5.43,5.41
2647.43,4.88,-0.55,4.87,-0.56,0.56,0.71,0.78,5.44,5.43,5.42
2673.90,4.91,-0.56,4.91,-0.53,0.52,0.67,0.69,5.43,5.43,5.46
2700.64,4.95,-0.49,4.95,-0.48,0.49,0.62,0.60,5.43,5.43,5.43
2727.65,4.98,-0.44,4.98,-0.44,0.45,0.57,0.51,5.43,5.43,5.41
2754.93,5.01,-0.38,5.00,-0.41,0.42,0.52,0.42,5.43,5.42,5.38
2782.48,5.02,-0.41,5.02,-0.39,0.39,0.46,0.33,5.41,5.41,5.42
2810.30,5.03,-0.39,5.03,-0.37,0.36,0.40,0.23,5.39,5.39,5.41
2838.40,5.04,-0.34,5.03,-0.35,0.33,0.34,0.14,5.36,5.36,5.37
2866.79,5.04,-0.30,5.04,-0.30,0.29,0.28,0.05,5.33,5.33,5.33
2895.46,5.04,-0.26,5.04,-0.25,0.26,0.21,-0.04,5.30,5.30,5.29
2924.41,5.04,-0.21,5.03,-0.21,0.22,0.13,-0.13,5.26,5.25,5.24
2953.65,5.03,-0.17,5.03,-0.17,0.18,0.06,-0.22,5.20,5.20,5.19
2983.19,5.02,-0.13,5.02,-0.12,0.12,-0.02,-0.31,5.14,5.14,5.14
3013.02,5.02,-0.08,5.02,-0.08,0.07,-0.10,-0.40,5.08,5.08,5.09
3043.15,5.02,-0.03,5.02,-0.03,0.01,-0.19,-0.49,5.03,5.03,5.04
3073.58,5.02,0.02,5.02,0.04,-0.05,-0.27,-0.58,4.97,4.97,4.99
3104.32,5.02,0.11,5.01,0.12,-0.11,-0.36,-0.67,4.91,4.90,4.90
3135.36,5.01,0.22,5.00,0.20,-0.17,-0.46,-0.76,4.83,4.83,4.78
3166.72,5.00,0.26,5.00,0.27,-0.24,-0.55,-0.85,4.76,4.76,4.73
3198.38,4.99,0.31,4.99,0.32,-0.31,-0.65,-0.94,4.67,4.68,4.67
3230.37,5.00,0.37,4.99,0.37,-0.39,-0.74,-1.03,4.61,4.60,4.62
3262.67,5.00,0.43,5.00,0.45,-0.47,-0.84,-1.11,4.53,4.53,4.56
3295.30,5.01,0.54,5.01,0.54,-0.55,-0.94,-1.20,4.45,4.45,4.46
3328.25,5.02,0.65,5.02,0.64,-0.64,-1.04,-1.29,4.37,4.37,4.36
3361.53,5.04,0.72,5.04,0.75,-0.74,-1.15,-1.37,4.29,4.29,4.31
3395.15,5.07,0.86,5.07,0.86,-0.85,-1.25,-1.45,4.21,4.22,4.20
3429.10,5.11,0.98,5.10,0.97,-0.97,-1.35,-1.53,4.14,4.14,4.12
3463.39,5.15,1.07,5.14,1.09,-1.08,-1.46,-1.60,4.06,4.06,4.07
3498.03,5.19,1.20,5.19,1.20,-1.20,-1.56,-1.68,3.99,3.99,3.98
3533.01,5.24,1.33,5.24,1.31,-1.32,-1.66,-1.75,3.92,3.92,3.90
3568.34,5.30,1.41,5.30,1.44,-1.44,-1.77,-1.81,3.86,3.86,3.88
3604.02,5.36,1.56,5.36,1.55,-1.55,-1.87,-1.87,3.80,3.80,3.79
3640.06,5.43,1.68,5.42,1.66,-1.67,-1.96,-1.93,3.75,3.75,3.74
3676.46,5.49,1.75,5.49,1.78,-1.78,-2.06,-1.98,3.70,3.70,3.73
3713.22,5.56,1.89,5.56,1.89,-1.90,-2.15,-2.03,3.66,3.66,3.66
3750.36,5.64,2.02,5.63,2.01,-2.00,-2.24,-2.06,3.63,3.63,3.61
3787.86,5.71,2.11,5.71,2.12,-2.11,-2.33,-2.10,3.60,3.60,3.59
3825.74,5.78,2.20,5.78,2.20,-2.20,-2.40,-2.12,3.57,3.57,3.57
3864.00,5.85,2.28,5.84,2.28,-2.29,-2.48,-2.14,3.56,3.55,3.56
3902.64,5.91,2.35,5.91,2.36,-2.36,-2.54,-2.15,3.54,3.55,3.55
3941.66,5.98,2.44,5.97,2.44,-2.43,-2.60,-2.15,3.55,3.55,3.53
3981.08,6.04,2.51,6.04,2.50,-2.48,-2.65,-2.14,3.55,3.55,3.52
4020.89,6.10,2.55,6.10,2.54,-2.53,-2.70,-2.13,3.56,3.57,3.54
4061.10,6.16,2.54,6.16,2.57,-2.57,-2.73,-2.10,3.58,3.58,3.61
4101.71,6.22,2.59,6.21,2.59,-2.61,-2.75,-2.07,3.60,3.60,3.62
4142.73,6.26,2.62,6.26,2.62,-2.64,-2.76,-2.03,3.61,3.61,3.63
4184.15,6.30,2.65,6.30,2.66,-2.67,-2.76,-1.98,3.63,3.63,3.64
4226.00,6.34,2.68,6.33,2.68,-2.68,-2.75,-1.92,3.66,3.65,3.65
4268.26,6.36,2.70,6.35,2.70,-2.68,-2.73,-1.86,3.67,3.67,3.65
4310.94,6.36,2.69,6.36,2.70,-2.68,-2.69,-1.79,3.68,3.68,3.66
4354.05,6.35,2.69,6.35,2.68,-2.66,-2.64,-1.71,3.69,3.69,3.65
4397.59,6.34,2.64,6.33,2.64,-2.63,-2.57,-1.62,3.71,3.70,3.69
4441.56,6.29,2.56,6.28,2.58,-2.59,-2.49,-1.53,3.70,3.70,3.72
4485.98,6.22,2.51,6.21,2.51,-2.54,-2.39,-1.44,3.68,3.68,3.70
4530.84,6.12,2.45,6.12,2.45,-2.47,-2.28,-1.34,3.64,3.65,3.66
4576.15,6.01,2.39,6.01,2.39,-2.40,-2.16,-1.23,3.61,3.61,3.61
4621.91,5.88,2.31,5.87,2.31,-2.31,-2.02,-1.12,3.56,3.56,3.56
4668.13,5.72,2.22,5.72,2.23,-2.22,-1.87,-1.01,3.50,3.50,3.49
4714.81,5.55,2.12,5.54,2.12,-2.11,-1.71,-0.89,3.44,3.43,3.42
4761.96,5.34,1.99,5.34,1.99,-1.99,-1.53,-0.77,3.35,3.35,3.34
4809.58,5.11,1.84,5.10,1.84,-1.84,-1.35,-0.64,3.26,3.26,3.26
4857.67,4.84,1.67,4.84,1.68,-1.68,-1.14,-0.52,3.16,3.16,3.16
4906.25,4.57,1.49,4.56,1.49,-1.49,-0.93,-0.39,3.07,3.07,3.07
4955.31,4.26,1.28,4.26,1.29,-1.29,-0.71,-0.26,2.97,2.97,2.97
5004.87,3.93,1.06,3.93,1.06,-1.06,-0.47,-0.13,2.87,2.87,2.86
5054.91,3.58,0.81,3.57,0.81,-0.81,-0.23,0.01,2.77,2.77,2.76
5105.46,3.20,0.54,3.19,0.54,-0.53,0.03,0.14,2.67,2.66,2.65
5156.52,2.79,0.23,2.79,0.24,-0.23,0.29,0.28,2.55,2.56,2.55
5208.08,2.37,-0.09,2.37,-0.09,0.09,0.57,0.42,2.45,2.45,2.45
5260.16,1.93,-0.43,1.92,-0.43,0.43,0.85,0.56,2.36,2.36,2.35
5312.77,1.47,-0.79,1.46,-0.79,0.80,1.14,0.70,2.26,2.26,2.25
5365.89,0.98,-1.17,0.98,-1.17,1.18,1.44,0.84,2.16,2.16,2.14
5419.55,0.48,-1.57,0.47,-1.57,1.58,1.75,0.98,2.06,2.05,2.04
5473.75,-0.05,-1.99,-0.05,-1.99,1.99,2.06,1.13,1.94,1.94,1.93
5528.49,-0.58,-2.41,-0.59,-2.41,2.41,2.38,1.27,1.82,1.82,1.82
5583.77,-1.13,-2.84,-1.13,-2.83,2.83,2.70,1.42,1.69,1.69,1.70
5639.61,-1.67,-3.25,-1.68,-3.25,3.24,3.03,1.57,1.57,1.57,1.57
5696.00,-2.21,-3.66,-2.22,-3.65,3.65,3.35,1.73,1.44,1.43,1.44
5752.96,-2.75,-4.05,-2.76,-4.04,4.04,3.67,1.88,1.28,1.28,1.29
5810.49,-3.28,-4.42,-3.29,-4.41,4.40,3.99,2.03,1.12,1.11,1.13
5868.60,-3.81,-4.77,-3.82,-4.75,4.74,4.30,2.19,0.93,0.93,0.95
5927.28,-4.33,-5.09,-4.33,-5.06,5.05,4.59,2.35,0.72,0.72,0.75
5986.56,-4.83,-5.38,-4.83,-5.33,5.32,4.87,2.51,0.48,0.49,0.54
6046.42,-5.32,-5.62,-5.30,-5.55,5.54,5.12,2.68,0.21,0.23,0.29
6106.89,-5.77,-5.80,-5.76,-5.73,5.71,5.36,2.84,-0.06,-0.05,0.02
6167.96,-6.23,-5.97,-6.20,-5.88,5.85,5.56,3.02,-0.39,-0.35,-0.27
6229.64,-6.67,-6.14,-6.61,-6.01,5.94,5.75,3.19,-0.74,-0.68,-0.54
6291.93,-7.09,-6.30,-7.00,-6.12,5.99,5.88,3.36,-1.10,-1.01,-0.80
6354.85,-7.48,-6.41,-7.36,-6.20,6.03,6.01,3.54,-1.46,-1.33,-1.08
6418.40,-7.85,-6.50,-7.67,-6.23,6.04,6.08,3.72,-1.81,-1.63,-1.36
6482.58,-8.20,-6.56,-7.95,-6.23,6.04,6.15,3.90,-2.16,-1.91,-1.65
6547.41,-8.54,-6.60,-8.20,-6.20,6.03,6.17,4.08,-2.51,-2.17,-1.95
6612.88,-8.89,-6.65,-8.42,-6.16,6.01,6.19,4.27,-2.88,-2.41,-2.25
6679.01,-9.23,-6.68,-8.61,-6.11,5.99,6.18,4.45,-3.25,-2.62,-2.56
6745.80,-9.58,-6.71,-8.76,-6.04,5.96,6.17,4.64,-3.63,-2.80,-2.88
6813.26,-9.91,-6.72,-8.86,-5.96,5.91,6.14,4.83,-4.00,-2.95,-3.20
6881.39,-10.24,-6.71,-8.92,-5.88,5.86,6.11,5.02,-4.38,-3.06,-3.54
6950.21,-10.56,-6.69,-8.94,-5.80,5.81,6.08,5.20,-4.76,-3.13,-3.88
7019.71,-10.87,-6.64,-8.92,-5.72,5.75,6.04,5.39,-5.13,-3.17,-4.24
7089.91,-11.17,-6.57,-8.87,-5.67,5.69,6.01,5.57,-5.48,-3.19,-4.61
7160.81,-11.45,-6.47,-8.81,-5.62,5.64,5.98,5.75,-5.81,-3.17,-4.99
7232.41,-11.72,-6.35,-8.74,-5.59,5.60,5.96,5.92,-6.12,-3.13,-5.38
7304.74,-11.96,-6.13,-8.66,-5.57,5.59,5.93,6.09,-6.38,-3.07,-5.84
7377.79,-12.17,-5.91,-8.57,-5.57,5.58,5.91,6.25,-6.59,-2.99,-6.27
7451.56,-12.36,-5.72,-8.49,-5.59,5.59,5.90,6.41,-6.77,-2.90,-6.65
7526.08,-12.53,-5.52,-8.42,-5.61,5.61,5.89,6.54,-6.92,-2.81,-7.02
7601.34,-12.67,-5.32,-8.35,-5.64,5.64,5.89,6.68,-7.04,-2.71,-7.36
7677.35,-12.79,-5.15,-8.28,-5.67,5.66,5.89,6.78,-7.13,-2.61,-7.65
7754.13,-12.87,-5.00,-8.21,-5.70,5.69,5.89,6.89,-7.19,-2.52,-7.88
7831.67,-12.91,-4.87,-8.14,-5.72,5.71,5.90,6.96,-7.20,-2.42,-8.05
7909.98,-12.92,-4.78,-8.07,-5.73,5.73,5.91,7.03,-7.20,-2.34,-8.15
7989.08,-12.92,-4.75,-8.00,-5.74,5.74,5.93,7.07,-7.18,-2.25,-8.18
8068.98,-12.89,-4.78,-7.93,-5.75,5.75,5.95,7.11,-7.15,-2.18,-8.12
8149.67,-12.84,-4.87,-7.85,-5.75,5.75,5.97,7.11,-7.09,-2.10,-7.98
8231.16,-12.76,-5.01,-7.78,-5.75,5.75,6.00,7.10,-7.01,-2.03,-7.76
8313.47,-12.65,-5.20,-7.71,-5.74,5.74,6.02,7.07,-6.91,-1.96,-7.46
8396.61,-12.50,-5.39,-7.63,-5.73,5.73,6.05,7.03,-6.77,-1.90,-7.12
8480.57,-12.32,-5.57,-7.56,-5.72,5.72,6.08,6.96,-6.60,-1.84,-6.76
8565.38,-12.11,-5.83,-7.48,-5.71,5.71,6.11,6.89,-6.41,-1.77,-6.29
8651.03,-11.87,-6.10,-7.41,-5.69,5.69,6.15,6.79,-6.18,-1.71,-5.78
8737.54,-11.59,-6.36,-7.33,-5.67,5.67,6.18,6.70,-5.92,-1.65,-5.24
8824.92,-11.28,-6.59,-7.24,-5.65,5.65,6.21,6.58,-5.63,-1.59,-4.70
8913.17,-10.93,-6.78,-7.16,-5.63,5.63,6.25,6.47,-5.30,-1.53,-4.16
9002.30,-10.55,-6.93,-7.07,-5.61,5.61,6.28,6.34,-4.95,-1.47,-3.63
9092.32,-10.13,-7.02,-6.99,-5.58,5.58,6.32,6.22,-4.56,-1.41,-3.12
9183.25,-9.67,-7.01,-6.90,-5.55,5.55,6.36,6.08,-4.13,-1.35,-2.67
9275.08,-9.20,-6.93,-6.81,-5.52,5.52,6.39,5.95,-3.69,-1.30,-2.28
9367.83,-8.70,-6.84,-6.72,-5.48,5.48,6.43,5.82,-3.22,-1.24,-1.87
9461.51,-8.18,-6.73,-6.64,-5.44,5.44,6.46,5.69,-2.75,-1.20,-1.46
9556.12,-7.65,-6.59,-6.55,-5.40,5.39,6.49,5.56,-2.27,-1.16,-1.07
9651.68,-7.10,-6.41,-6.47,-5.36,5.34,6.53,5.43,-1.76,-1.12,-0.70
9748.20,-6.56,-6.17,-6.38,-5.32,5.30,6.56,5.31,-1.26,-1.08,-0.40
9845.68,-6.02,-5.93,-6.30,-5.27,5.27,6.59,5.19,-0.75,-1.03,-0.10
9944.14,-5.49,-5.73,-6.23,-5.23,5.25,6.62,5.07,-0.24,-0.98,0.23
10043.58,-4.97,-5.50,-6.15,-5.18,5.25,6.65,4.96,0.27,-0.91,0.52
10144.02,-4.47,-5.29,-6.29,-5.23,5.25,6.68,4.86,0.78,-1.03,0.81
10245.46,-4.00,-5.10,-6.42,-5.28,5.28,6.71,4.76,1.27,-1.14,1.09
10347.91,-3.58,-4.99,-6.56,-5.33,5.31,6.74,4.67,1.73,-1.25,1.40
10451.39,-3.18,-4.90,-6.71,-5.38,5.36,6.76,4.59,2.18,-1.34,1.71
10555.91,-2.82,-4.83,-6.86,-5.43,5.42,6.78,4.51,2.60,-1.44,2.00
10661.46,-2.48,-4.72,-7.01,-5.49,5.48,6.81,4.44,3.00,-1.53,2.23
10768.08,-2.19,-4.69,-7.17,-5.54,5.54,6.83,4.37,3.35,-1.62,2.49
10875.76,-1.93,-4.69,-7.33,-5.60,5.60,6.84,4.32,3.67,-1.73,2.75
10984.52,-1.72,-4.67,-7.50,-5.66,5.66,6.86,4.27,3.94,-1.83,2.94
11094.36,-1.52,-4.69,-7.67,-5.72,5.73,6.88,4.22,4.20,-1.94,3.16
11205.31,-1.34,-4.72,-7.84,-5.78,5.79,6.89,4.19,4.45,-2.05,3.37
11317.36,-1.18,-4.73,-8.02,-5.84,5.84,6.90,4.17,4.66,-2.18,3.54
11430.53,-1.05,-4.68,-8.21,-5.90,5.89,6.90,4.15,4.84,-2.31,3.62
11544.84,-0.95,-4.65,-8.39,-5.96,5.94,6.91,4.14,4.98,-2.46,3.69
11660.29,-0.87,-4.65,-8.59,-6.03,5.97,6.91,4.14,5.09,-2.62,3.77
11776.89,-0.83,-4.58,-8.79,-6.09,5.99,6.91,4.15,5.16,-2.79,3.74
11894.66,-0.81,-4.52,-8.99,-6.16,6.00,6.91,4.17,5.19,-2.98,3.70
12013.60,-0.83,-4.49,-9.19,-6.23,6.01,6.91,4.19,5.18,-3.18,3.65
12133.74,-0.90,-4.39,-9.40,-6.30,6.01,6.90,4.23,5.11,-3.39,3.48
12255.08,-0.99,-4.29,-9.62,-6.37,6.01,6.89,4.27,5.01,-3.61,3.29
12377.63,-1.12,-4.20,-9.84,-6.44,6.00,6.88,4.33,4.88,-3.83,3.07
12501.41,-1.30,-4.12,-10.06,-6.51,6.00,6.86,4.40,4.70,-4.06,2.81
12626.42,-1.51,-4.06,-10.29,-6.58,6.00,6.85,4.48,4.49,-4.29,2.54
12752.68,-1.75,-3.97,-10.52,-6.66,6.00,6.83,4.57,4.25,-4.52,2.21
12880.21,-2.01,-3.83,-10.76,-6.73,6.00,6.80,4.69,3.99,-4.76,1.81
13009.01,-2.29,-3.74,-11.00,-6.81,6.00,6.77,4.80,3.71,-5.00,1.44
13139.10,-2.59,-3.63,-11.24,-6.89,6.00,6.74,4.94,3.41,-5.24,1.03
13270.49,-2.94,-3.52,-11.49,-6.96,6.00,6.71,5.09,3.06,-5.49,0.57
13403.20,-3.31,-3.47,-11.75,-7.04,6.00,6.67,5.27,2.69,-5.75,0.15
13537.23,-3.73,-3.43,-12.01,-7.13,6.00,6.63,5.45,2.27,-6.01,-0.31
13672.60,-4.21,-3.41,-12.27,-7.21,6.00,6.59,5.67,1.79,-6.27,-0.81
13809.33,-4.74,-3.48,-12.54,-7.29,6.00,6.54,5.90,1.26,-6.54,-1.27
13947.42,-5.35,-3.59,-12.81,-7.37,6.00,6.49,6.16,0.65,-6.81,-1.77
14086.90,-6.04,-3.73,-13.08,-7.46,6.00,6.44,6.43,-0.04,-7.08,-2.32
14227.77,-6.81,-4.01,-13.36,-7.55,6.00,6.38,6.75,-0.81,-7.36,-2.81
14370.04,-7.67,-4.32,-13.65,-7.63,6.00,6.32,7.08,-1.67,-7.65,-3.36
14513.74,-8.61,-4.68,-13.94,-7.72,6.00,6.26,7.45,-2.61,-7.94,-3.94
14658.88,-9.61,-5.10,-14.23,-7.81,6.00,6.19,7.84,-3.61,-8.23,-4.52
14805.47,-10.66,-5.57,-14.53,-7.90,6.00,6.12,8.27,-4.66,-8.53,-5.10
14953.52,-11.74,-6.09,-14.83,-8.00,6.00,6.04,8.72,-5.74,-8.83,-5.66
15103.06,-12.83,-6.63,-15.14,-8.09,6.00,5.96,9.19,-6.83,-9.14,-6.21
15254.09,-13.93,-7.22,-15.45,-8.18,6.00,5.88,9.65,-7.93,-9.45,-6.72
15406.63,-15.00,-7.76,-15.76,-8.28,6.00,5.79,10.11,-9.00,-9.76,-7.25
15560.70,-16.02,-8.22,-16.08,-8.37,6.00,5.70,10.51,-10.02,-10.08,-7.81
15716.30,-16.98,-8.64,-16.41,-8.47,6.00,5.61,10.82,-10.98,-10.41,-8.35
15873.47,-17.87,-9.05,-16.74,-8.57,6.00,5.51,11.03,-11.87,-10.74,-8.83
16032.20,-18.69,-9.45,-17.07,-8.67,6.00,5.40,11.03,-12.69,-11.07,-9.25
16192.52,-19.43,-9.73,-17.41,-8.77,6.00,5.30,10.90,-13.43,-11.41,-9.71
16354.45,-20.09,-9.94,-17.75,-8.87,6.00,5.19,10.52,-14.09,-11.75,-10.16
16517.99,-20.69,-10.11,-18.09,-8.98,6.00,5.08,10.06,-14.69,-12.09,-10.59
16683.17,-21.24,-10.28,-18.44,-9.08,6.00,4.96,9.42,-15.24,-12.44,-10.97
16850.01,-21.78,-10.38,-18.80,-9.19,6.00,4.84,8.75,-15.78,-12.80,-11.41
17018.51,-22.32,-10.43,-19.16,-9.29,6.00,4.71,8.02,-16.32,-13.16,-11.90
17188.69,-22.89,-10.48,-19.52,-9.40,6.00,4.58,7.31,-16.89,-13.52,-12.42
17360.58,-23.49,-10.59,-19.89,-9.51,6.00,4.45,6.61,-17.49,-13.89,-12.91
17534.18,-24.13,-10.73,-20.26,-9.62,6.00,4.32,5.94,-18.13,-14.26,-13.41
17709.53,-24.81,-10.88,-20.64,-9.73,6.00,4.18,5.32,-18.81,-14.64,-13.94
17886.62,-25.50,-11.06,-21.02,-9.84,6.00,4.04,4.73,-19.50,-15.02,-14.45
18065.49,-26.13,-11.29,-21.40,-9.95,6.00,3.90,4.19,-20.13,-15.40,-14.85
18246.14,-26.75,-11.57,-21.79,-10.07,6.00,3.75,3.69,-20.75,-15.79,-15.19
18428.60,-27.38,-11.81,-22.19,-10.18,6.00,3.61,3.24,-21.38,-16.19,-15.58
18612.89,-28.01,-12.06,-22.58,-10.30,6.00,3.46,2.82,-22.01,-16.58,-15.96
18799.02,-28.64,-12.33,-22.99,-10.42,6.00,3.31,2.45,-22.64,-16.99,-16.32
18987.01,-29.27,-12.62,-23.39,-10.53,6.00,3.16,2.10,-23.27,-17.39,-16.66
19176.88,-29.91,-12.96,-23.81,-10.65,6.00,3.01,1.80,-23.91,-17.81,-16.96
19368.65,-30.54,-13.31,-24.22,-10.78,6.00,2.87,1.52,-24.54,-18.22,-17.24
19562.33,-31.18,-13.70,-24.64,-10.90,6.00,2.73,1.28,-25.18,-18.64,-17.49
19757.96,-31.82,-14.12,-25.07,-11.02,6.00,2.58,1.03,-25.82,-19.07,-17.71
19955.54,-32.46,-14.54,-25.50,-11.14,6.00,2.44,0.79,-26.46,-19.50,-17.93
