frequency,raw,error,smoothed,error_smoothed,equalization,parametric_eq,fixed_band_eq,equalized_raw,equalized_smoothed,target
20.00,-2.13,-7.85,-2.13,-7.85,6.00,6.06,2.56,3.87,3.87,5.72
20.20,-2.09,-7.78,-2.09,-7.78,6.00,6.06,2.64,3.91,3.91,5.69
20.40,-2.04,-7.71,-2.04,-7.71,6.00,6.05,2.71,3.96,3.96,5.67
20.61,-2.00,-7.65,-2.00,-7.65,6.00,6.05,2.79,4.00,4.00,5.65
20.81,-1.95,-7.58,-1.95,-7.58,6.00,6.04,2.87,4.05,4.05,5.63
21.02,-1.91,-7.52,-1.91,-7.51,6.00,6.03,2.96,4.09,4.09,5.61
21.23,-1.86,-7.45,-1.86,-7.45,6.00,6.02,3.04,4.14,4.14,5.59
21.44,-1.82,-7.39,-1.82,-7.39,6.00,6.02,3.13,4.18,4.18,5.57
21.66,-1.78,-7.33,-1.77,-7.32,6.00,6.01,3.22,4.22,4.23,5.55
21.87,-1.73,-7.26,-1.73,-7.26,6.00,6.00,3.32,4.27,4.27,5.54
22.09,-1.69,-7.20,-1.69,-7.21,6.00,5.99,3.41,4.31,4.31,5.52
22.31,-1.65,-7.15,-1.65,-7.15,6.00,5.99,3.51,4.35,4.35,5.51
22.54,-1.61,-7.11,-1.61,-7.10,6.00,5.98,3.62,4.39,4.39,5.50
22.76,-1.57,-7.05,-1.57,-7.06,6.00,5.97,3.72,4.43,4.43,5.48
22.99,-1.54,-7.01,-1.54,-7.01,6.00,5.96,3.83,4.46,4.46,5.47
23.22,-1.51,-6.97,-1.51,-6.97,6.00,5.95,3.94,4.49,4.49,5.46
23.45,-1.47,-6.92,-1.47,-6.93,6.00,5.94,4.05,4.53,4.53,5.45
23.69,-1.44,-6.88,-1.43,-6.88,6.00,5.93,4.16,4.56,4.57,5.44
23.92,-1.39,-6.83,-1.39,-6.83,6.00,5.92,4.28,4.61,4.61,5.44
24.16,-1.35,-6.78,-1.35,-6.78,6.00,5.91,4.40,4.65,4.65,5.43
24.40,-1.30,-6.73,-1.30,-6.73,6.00,5.90,4.52,4.70,4.70,5.43
24.65,-1.25,-6.67,-1.25,-6.68,6.00,5.89,4.64,4.75,4.75,5.42
24.89,-1.21,-6.63,-1.21,-6.62,6.00,5.88,4.76,4.79,4.79,5.42
25.14,-1.17,-6.58,-1.17,-6.58,6.00,5.87,4.89,4.83,4.83,5.41
25.39,-1.13,-6.53,-1.13,-6.53,6.00,5.86,5.01,4.87,4.87,5.40
25.65,-1.08,-6.48,-1.08,-6.48,6.00,5.85,5.14,4.92,4.92,5.40
25.91,-1.04,-6.43,-1.03,-6.42,6.00,5.83,5.27,4.96,4.97,5.39
26.16,-0.98,-6.36,-0.98,-6.37,6.00,5.82,5.40,5.02,5.02,5.38
26.43,-0.93,-6.31,-0.93,-6.31,6.00,5.81,5.52,5.07,5.07,5.38
26.69,-0.88,-6.25,-0.88,-6.25,6.00,5.80,5.65,5.12,5.13,5.37
26.96,-0.83,-6.20,-0.83,-6.20,6.01,5.78,5.77,5.18,5.17,5.37
27.23,-0.79,-6.15,-0.79,-6.15,6.01,5.77,5.89,5.22,5.22,5.36
27.50,-0.75,-6.11,-0.75,-6.11,6.00,5.76,6.01,5.25,5.26,5.36
27.77,-0.71,-6.07,-0.71,-6.06,6.00,5.74,6.13,5.29,5.29,5.36
28.05,-0.67,-6.02,-0.67,-6.02,5.99,5.73,6.24,5.32,5.31,5.35
28.33,-0.64,-5.99,-0.64,-5.98,5.97,5.71,6.34,5.33,5.33,5.35
28.62,-0.61,-5.95,-0.61,-5.95,5.95,5.70,6.44,5.34,5.34,5.34
28.90,-0.58,-5.91,-0.58,-5.92,5.92,5.69,6.53,5.34,5.34,5.33
29.19,-0.56,-5.89,-0.55,-5.89,5.88,5.67,6.62,5.33,5.33,5.33
29.48,-0.52,-5.85,-0.52,-5.85,5.85,5.66,6.70,5.33,5.33,5.33
29.78,-0.48,-5.81,-0.48,-5.81,5.81,5.64,6.76,5.33,5.33,5.33
30.08,-0.44,-5.77,-0.44,-5.76,5.77,5.62,6.82,5.33,5.33,5.33
30.38,-0.40,-5.72,-0.40,-5.72,5.73,5.61,6.87,5.33,5.33,5.32
30.68,-0.37,-5.68,-0.37,-5.68,5.70,5.59,6.91,5.33,5.33,5.31
30.99,-0.34,-5.65,-0.35,-5.66,5.67,5.57,6.94,5.33,5.32,5.31
31.30,-0.33,-5.64,-0.33,-5.63,5.63,5.56,6.96,5.30,5.30,5.31
31.61,-0.31,-5.61,-0.31,-5.61,5.60,5.54,6.96,5.29,5.29,5.30
31.93,-0.28,-5.58,-0.28,-5.57,5.56,5.52,6.96,5.28,5.28,5.30
32.24,-0.24,-5.53,-0.24,-5.53,5.52,5.50,6.95,5.28,5.28,5.29
32.57,-0.20,-5.48,-0.20,-5.49,5.48,5.49,6.92,5.28,5.28,5.28
32.89,-0.16,-5.44,-0.16,-5.44,5.44,5.47,6.89,5.28,5.28,5.28
33.22,-0.12,-5.40,-0.12,-5.39,5.40,5.45,6.84,5.28,5.28,5.28
33.55,-0.08,-5.34,-0.08,-5.35,5.35,5.43,6.79,5.28,5.28,5.26
33.89,-0.04,-5.30,-0.04,-5.30,5.32,5.41,6.73,5.28,5.27,5.26
34.23,-0.01,-5.27,-0.01,-5.27,5.28,5.39,6.67,5.27,5.27,5.26
34.57,0.01,-5.24,0.01,-5.24,5.25,5.37,6.60,5.26,5.26,5.25
34.92,0.02,-5.22,0.02,-5.22,5.22,5.35,6.52,5.24,5.24,5.24
35.27,0.04,-5.20,0.04,-5.20,5.19,5.33,6.44,5.23,5.23,5.24
35.62,0.06,-5.17,0.07,-5.17,5.15,5.31,6.35,5.21,5.22,5.23
35.97,0.10,-5.12,0.10,-5.13,5.12,5.29,6.26,5.22,5.22,5.22
36.33,0.13,-5.09,0.13,-5.09,5.09,5.27,6.17,5.22,5.22,5.22
36.70,0.17,-5.05,0.17,-5.05,5.05,5.24,6.08,5.22,5.22,5.22
37.06,0.20,-5.01,0.20,-5.01,5.01,5.22,5.98,5.21,5.22,5.21
37.43,0.24,-4.96,0.24,-4.97,4.97,5.20,5.89,5.21,5.21,5.20
37.81,0.27,-4.93,0.27,-4.93,4.93,5.18,5.80,5.20,5.20,5.20
38.19,0.29,-4.90,0.29,-4.90,4.90,5.15,5.70,5.19,5.19,5.19
38.57,0.31,-4.87,0.31,-4.87,4.86,5.13,5.61,5.17,5.17,5.18
38.95,0.34,-4.83,0.34,-4.83,4.82,5.11,5.52,5.16,5.16,5.17
39.34,0.37,-4.79,0.37,-4.79,4.79,5.08,5.43,5.16,5.16,5.16
39.74,0.40,-4.75,0.40,-4.75,4.75,5.06,5.34,5.15,5.15,5.15
40.14,0.42,-4.72,0.42,-4.72,4.72,5.03,5.26,5.14,5.14,5.14
40.54,0.45,-4.68,0.45,-4.68,4.69,5.01,5.18,5.14,5.13,5.13
40.94,0.47,-4.66,0.47,-4.66,4.66,4.98,5.10,5.13,5.13,5.13
41.35,0.49,-4.63,0.49,-4.63,4.64,4.96,5.02,5.13,5.13,5.12
41.76,0.50,-4.62,0.50,-4.62,4.63,4.93,4.95,5.13,5.13,5.12
42.18,0.50,-4.61,0.50,-4.61,4.62,4.90,4.88,5.12,5.12,5.11
42.60,0.50,-4.60,0.50,-4.61,4.62,4.88,4.81,5.12,5.12,5.10
43.03,0.48,-4.63,0.48,-4.62,4.62,4.85,4.75,5.10,5.10,5.11
43.46,0.47,-4.63,0.47,-4.63,4.62,4.82,4.68,5.09,5.09,5.10
43.90,0.46,-4.63,0.46,-4.63,4.62,4.79,4.63,5.08,5.08,5.09
44.33,0.46,-4.63,0.46,-4.62,4.62,4.77,4.58,5.08,5.08,5.09
44.78,0.47,-4.61,0.47,-4.61,4.60,4.74,4.53,5.07,5.07,5.08
45.23,0.48,-4.59,0.48,-4.59,4.59,4.71,4.48,5.07,5.07,5.07
45.68,0.50,-4.56,0.50,-4.56,4.56,4.68,4.44,5.06,5.06,5.06
46.13,0.52,-4.53,0.52,-4.53,4.53,4.65,4.40,5.05,5.05,5.05
46.60,0.55,-4.49,0.55,-4.49,4.49,4.62,4.36,5.04,5.04,5.05
47.06,0.58,-4.46,0.58,-4.45,4.45,4.59,4.33,5.03,5.03,5.04
47.53,0.61,-4.41,0.61,-4.41,4.41,4.56,4.30,5.02,5.02,5.02
48.01,0.64,-4.37,0.64,-4.37,4.37,4.53,4.27,5.01,5.01,5.01
48.49,0.67,-4.33,0.67,-4.32,4.33,4.50,4.25,5.00,5.00,5.00
48.97,0.70,-4.29,0.70,-4.28,4.28,4.46,4.22,4.98,4.98,4.99
49.46,0.73,-4.24,0.73,-4.24,4.24,4.43,4.21,4.97,4.97,4.97
49.96,0.76,-4.20,0.76,-4.20,4.21,4.40,4.19,4.97,4.97,4.96
50.46,0.78,-4.17,0.78,-4.17,4.17,4.37,4.18,4.96,4.96,4.95
50.96,0.80,-4.14,0.80,-4.14,4.15,4.33,4.16,4.95,4.95,4.94
51.47,0.81,-4.13,0.81,-4.12,4.12,4.30,4.15,4.93,4.94,4.94
51.99,0.82,-4.10,0.82,-4.10,4.10,4.27,4.14,4.93,4.93,4.92
52.51,0.83,-4.08,0.82,-4.09,4.09,4.23,4.14,4.92,4.91,4.91
53.03,0.82,-4.08,0.82,-4.07,4.08,4.20,4.13,4.90,4.90,4.90
53.56,0.81,-4.07,0.81,-4.07,4.07,4.16,4.12,4.88,4.88,4.88
54.10,0.81,-4.07,0.81,-4.07,4.06,4.13,4.12,4.87,4.87,4.88
54.64,0.80,-4.06,0.80,-4.06,4.05,4.09,4.11,4.85,4.85,4.86
55.18,0.80,-4.04,0.80,-4.04,4.04,4.06,4.11,4.84,4.85,4.84
55.74,0.80,-4.03,0.80,-4.03,4.04,4.02,4.10,4.84,4.84,4.83
56.29,0.80,-4.02,0.80,-4.02,4.03,3.99,4.10,4.83,4.83,4.82
56.86,0.79,-4.01,0.79,-4.01,4.02,3.95,4.09,4.81,4.81,4.80
57.42,0.78,-4.00,0.78,-4.01,4.00,3.91,4.08,4.78,4.79,4.79
58.00,0.78,-4.00,0.78,-3.99,3.99,3.88,4.07,4.77,4.77,4.78
58.58,0.78,-3.98,0.78,-3.97,3.96,3.84,4.05,4.74,4.75,4.76
59.16,0.80,-3.94,0.80,-3.94,3.94,3.80,4.04,4.74,4.73,4.74
59.76,0.81,-3.91,0.81,-3.91,3.90,3.76,4.02,4.71,4.72,4.73
60.35,0.84,-3.86,0.84,-3.87,3.86,3.72,4.00,4.71,4.70,4.70
60.96,0.86,-3.82,0.86,-3.82,3.82,3.68,3.98,4.68,4.68,4.68
61.57,0.89,-3.77,0.89,-3.77,3.77,3.65,3.95,4.66,4.66,4.66
62.18,0.92,-3.71,0.92,-3.72,3.72,3.61,3.92,4.64,4.64,4.63
62.80,0.95,-3.66,0.95,-3.66,3.66,3.57,3.88,4.61,4.61,4.61
63.43,0.98,-3.60,0.98,-3.60,3.60,3.53,3.85,4.58,4.58,4.59
64.07,1.01,-3.55,1.01,-3.55,3.55,3.49,3.80,4.56,4.56,4.56
64.71,1.04,-3.49,1.04,-3.49,3.49,3.45,3.76,4.53,4.53,4.53
65.35,1.07,-3.43,1.07,-3.43,3.43,3.40,3.71,4.51,4.51,4.51
66.01,1.10,-3.38,1.10,-3.38,3.38,3.36,3.66,4.48,4.48,4.48
66.67,1.12,-3.33,1.12,-3.33,3.33,3.32,3.61,4.45,4.45,4.45
67.33,1.13,-3.29,1.14,-3.28,3.29,3.28,3.55,4.42,4.42,4.42
68.01,1.15,-3.24,1.15,-3.24,3.25,3.24,3.49,4.40,4.40,4.39
68.69,1.15,-3.21,1.15,-3.21,3.21,3.20,3.43,4.36,4.36,4.36
69.37,1.15,-3.17,1.15,-3.18,3.18,3.15,3.37,4.33,4.33,4.33
70.07,1.14,-3.15,1.14,-3.15,3.15,3.11,3.30,4.29,4.29,4.29
70.77,1.13,-3.13,1.13,-3.13,3.12,3.07,3.23,4.25,4.25,4.26
71.48,1.13,-3.10,1.13,-3.10,3.09,3.03,3.16,4.22,4.22,4.23
72.19,1.13,-3.07,1.13,-3.07,3.06,2.98,3.10,4.19,4.19,4.20
72.91,1.13,-3.03,1.13,-3.03,3.03,2.94,3.02,4.16,4.16,4.16
73.64,1.13,-2.99,1.13,-3.00,3.00,2.89,2.95,4.13,4.13,4.12
74.38,1.13,-2.97,1.13,-2.96,2.97,2.85,2.88,4.10,4.10,4.10
75.12,1.13,-2.93,1.13,-2.93,2.93,2.81,2.81,4.06,4.06,4.06
75.87,1.13,-2.90,1.13,-2.89,2.89,2.76,2.74,4.02,4.02,4.03
76.63,1.13,-2.86,1.13,-2.86,2.86,2.72,2.67,3.99,3.99,3.99
77.40,1.13,-2.81,1.13,-2.82,2.82,2.67,2.60,3.95,3.95,3.95
78.17,1.13,-2.78,1.13,-2.78,2.78,2.63,2.53,3.91,3.91,3.91
78.95,1.13,-2.74,1.13,-2.74,2.74,2.58,2.46,3.87,3.87,3.87
79.74,1.13,-2.69,1.13,-2.70,2.70,2.54,2.39,3.83,3.83,3.83
80.54,1.13,-2.66,1.13,-2.66,2.66,2.49,2.32,3.79,3.79,3.79
81.35,1.13,-2.61,1.13,-2.61,2.61,2.45,2.25,3.74,3.74,3.74
82.16,1.13,-2.57,1.13,-2.57,2.57,2.40,2.19,3.70,3.70,3.70
82.98,1.13,-2.52,1.13,-2.52,2.52,2.35,2.12,3.65,3.65,3.65
83.81,1.13,-2.47,1.13,-2.48,2.48,2.31,2.06,3.61,3.61,3.60
84.65,1.13,-2.43,1.13,-2.43,2.43,2.26,2.00,3.56,3.56,3.56
85.50,1.13,-2.38,1.13,-2.38,2.38,2.21,1.93,3.51,3.51,3.51
86.35,1.13,-2.33,1.13,-2.33,2.33,2.17,1.87,3.46,3.46,3.46
87.22,1.13,-2.28,1.13,-2.28,2.28,2.12,1.82,3.41,3.41,3.41
88.09,1.13,-2.23,1.13,-2.23,2.23,2.07,1.76,3.36,3.36,3.36
88.97,1.13,-2.18,1.13,-2.18,2.18,2.03,1.70,3.31,3.31,3.31
89.86,1.13,-2.13,1.13,-2.13,2.13,1.98,1.65,3.26,3.26,3.26
90.76,1.13,-2.07,1.13,-2.07,2.07,1.93,1.59,3.20,3.20,3.20
91.66,1.13,-2.02,1.13,-2.02,2.02,1.89,1.54,3.15,3.15,3.15
92.58,1.13,-1.96,1.13,-1.96,1.96,1.84,1.49,3.09,3.09,3.10
93.51,1.13,-1.91,1.13,-1.91,1.91,1.79,1.44,3.04,3.04,3.04
94.44,1.13,-1.85,1.13,-1.85,1.86,1.75,1.39,2.99,2.99,2.98
95.39,1.13,-1.80,1.13,-1.80,1.80,1.70,1.34,2.93,2.93,2.93
96.34,1.13,-1.74,1.13,-1.75,1.75,1.65,1.30,2.88,2.88,2.87
97.30,1.13,-1.70,1.13,-1.69,1.69,1.60,1.25,2.82,2.82,2.83
98.28,1.13,-1.64,1.13,-1.64,1.64,1.56,1.21,2.77,2.77,2.77
99.26,1.13,-1.58,1.13,-1.58,1.58,1.51,1.17,2.71,2.71,2.71
100.25,1.13,-1.52,1.13,-1.52,1.52,1.46,1.12,2.65,2.65,2.66
101.25,1.13,-1.47,1.13,-1.47,1.47,1.41,1.08,2.60,2.60,2.60
102.27,1.13,-1.41,1.13,-1.41,1.41,1.37,1.04,2.54,2.54,2.54
103.29,1.13,-1.35,1.13,-1.35,1.36,1.32,1.00,2.49,2.49,2.48
104.32,1.13,-1.30,1.13,-1.30,1.30,1.27,0.97,2.43,2.43,2.43
105.37,1.13,-1.25,1.13,-1.25,1.25,1.23,0.93,2.38,2.38,2.38
106.42,1.13,-1.19,1.13,-1.19,1.19,1.18,0.89,2.32,2.32,2.32
107.48,1.13,-1.14,1.13,-1.14,1.14,1.13,0.86,2.27,2.27,2.27
108.56,1.13,-1.08,1.13,-1.08,1.08,1.09,0.82,2.21,2.21,2.21
109.64,1.13,-1.02,1.13,-1.02,1.02,1.04,0.79,2.16,2.16,2.16
110.74,1.13,-0.97,1.13,-0.97,0.97,0.99,0.75,2.10,2.10,2.10
111.85,1.13,-0.91,1.13,-0.91,0.91,0.95,0.72,2.05,2.05,2.04
112.97,1.13,-0.86,1.13,-0.86,0.86,0.90,0.69,1.99,1.99,1.99
114.10,1.13,-0.81,1.13,-0.81,0.81,0.86,0.66,1.94,1.94,1.94
115.24,1.13,-0.75,1.13,-0.75,0.75,0.81,0.63,1.88,1.88,1.88
116.39,1.13,-0.69,1.13,-0.70,0.70,0.76,0.60,1.83,1.83,1.83
117.55,1.13,-0.65,1.13,-0.65,0.64,0.72,0.57,1.78,1.78,1.78
118.73,1.13,-0.59,1.13,-0.59,0.59,0.67,0.54,1.72,1.72,1.72
119.92,1.13,-0.54,1.13,-0.54,0.54,0.63,0.51,1.67,1.67,1.67
121.12,1.13,-0.49,1.13,-0.49,0.49,0.58,0.49,1.62,1.62,1.62
122.33,1.13,-0.44,1.13,-0.44,0.44,0.54,0.46,1.57,1.57,1.57
123.55,1.13,-0.39,1.13,-0.39,0.39,0.50,0.43,1.52,1.52,1.52
124.79,1.13,-0.35,1.13,-0.34,0.34,0.45,0.41,1.47,1.47,1.48
126.03,1.13,-0.29,1.13,-0.30,0.30,0.41,0.38,1.43,1.43,1.43
127.29,1.13,-0.25,1.13,-0.25,0.25,0.37,0.36,1.38,1.38,1.38
128.57,1.13,-0.20,1.13,-0.20,0.20,0.32,0.33,1.33,1.33,1.33
129.85,1.13,-0.15,1.13,-0.15,0.16,0.28,0.31,1.29,1.29,1.28
131.15,1.13,-0.10,1.13,-0.11,0.11,0.24,0.28,1.24,1.24,1.23
132.46,1.13,-0.07,1.13,-0.06,0.06,0.20,0.26,1.19,1.19,1.20
133.79,1.13,-0.02,1.13,-0.02,0.02,0.16,0.24,1.15,1.15,1.15
135.12,1.13,0.03,1.13,0.03,-0.03,0.12,0.21,1.10,1.10,1.10
136.48,1.13,0.07,1.13,0.07,-0.07,0.08,0.19,1.06,1.06,1.06
137.84,1.13,0.12,1.13,0.12,-0.12,0.04,0.17,1.01,1.01,1.01
139.22,1.13,0.16,1.13,0.16,-0.16,-0.00,0.15,0.97,0.97,0.97
140.61,1.13,0.21,1.13,0.20,-0.20,-0.04,0.12,0.93,0.93,0.92
142.02,1.13,0.24,1.13,0.24,-0.24,-0.08,0.10,0.89,0.89,0.89
143.44,1.13,0.28,1.13,0.28,-0.28,-0.12,0.08,0.85,0.85,0.85
144.87,1.13,0.32,1.13,0.32,-0.32,-0.15,0.06,0.81,0.81,0.81
146.32,1.13,0.35,1.13,0.36,-0.36,-0.19,0.03,0.77,0.77,0.78
147.78,1.13,0.39,1.13,0.39,-0.39,-0.22,0.01,0.74,0.74,0.74
149.26,1.13,0.43,1.13,0.43,-0.43,-0.26,-0.01,0.71,0.71,0.70
150.75,1.13,0.46,1.13,0.46,-0.46,-0.29,-0.03,0.67,0.67,0.67
152.26,1.13,0.49,1.13,0.49,-0.49,-0.33,-0.06,0.64,0.64,0.64
153.78,1.13,0.53,1.13,0.53,-0.53,-0.36,-0.08,0.60,0.60,0.60
155.32,1.13,0.56,1.13,0.56,-0.56,-0.39,-0.10,0.57,0.57,0.58
156.88,1.13,0.59,1.13,0.59,-0.60,-0.43,-0.12,0.53,0.53,0.54
158.44,1.13,0.62,1.13,0.63,-0.63,-0.46,-0.15,0.50,0.50,0.51
160.03,1.14,0.67,1.14,0.67,-0.67,-0.49,-0.17,0.48,0.48,0.48
161.63,1.15,0.71,1.15,0.70,-0.69,-0.52,-0.19,0.46,0.45,0.44
163.24,1.15,0.73,1.15,0.73,-0.72,-0.55,-0.22,0.43,0.43,0.42
164.88,1.14,0.75,1.14,0.75,-0.74,-0.58,-0.24,0.40,0.40,0.39
166.53,1.13,0.77,1.13,0.76,-0.76,-0.60,-0.27,0.37,0.37,0.36
168.19,1.11,0.77,1.11,0.77,-0.77,-0.63,-0.29,0.34,0.34,0.34
169.87,1.09,0.77,1.09,0.78,-0.78,-0.66,-0.32,0.31,0.32,0.32
171.57,1.07,0.78,1.07,0.78,-0.78,-0.68,-0.35,0.29,0.29,0.29
173.29,1.04,0.78,1.04,0.77,-0.77,-0.71,-0.37,0.27,0.27,0.27
175.02,1.01,0.77,1.01,0.77,-0.77,-0.73,-0.40,0.24,0.25,0.24
176.77,0.98,0.76,0.98,0.76,-0.76,-0.75,-0.43,0.22,0.22,0.23
178.54,0.95,0.75,0.95,0.75,-0.75,-0.78,-0.45,0.20,0.20,0.20
180.32,0.91,0.73,0.92,0.74,-0.74,-0.80,-0.48,0.17,0.18,0.18
182.13,0.89,0.73,0.89,0.73,-0.73,-0.82,-0.51,0.16,0.16,0.16
183.95,0.86,0.73,0.86,0.72,-0.72,-0.84,-0.54,0.14,0.13,0.13
185.79,0.83,0.72,0.84,0.72,-0.72,-0.86,-0.57,0.11,0.11,0.11
187.65,0.81,0.72,0.81,0.72,-0.72,-0.87,-0.60,0.09,0.09,0.09
189.52,0.80,0.73,0.80,0.72,-0.73,-0.89,-0.63,0.07,0.07,0.07
191.42,0.78,0.73,0.78,0.73,-0.74,-0.91,-0.66,0.04,0.05,0.05
193.33,0.78,0.75,0.78,0.74,-0.75,-0.92,-0.69,0.03,0.03,0.04
195.27,0.78,0.76,0.78,0.77,-0.77,-0.94,-0.72,0.01,0.01,0.02
197.22,0.79,0.79,0.79,0.79,-0.78,-0.95,-0.75,0.01,0.01,0.00
199.19,0.80,0.82,0.80,0.81,-0.80,-0.96,-0.78,-0.00,-0.00,-0.02
201.18,0.80,0.82,0.80,0.83,-0.82,-0.97,-0.81,-0.02,-0.02,-0.02
203.19,0.80,0.84,0.80,0.84,-0.83,-0.99,-0.84,-0.03,-0.03,-0.04
205.23,0.80,0.84,0.80,0.85,-0.85,-1.00,-0.87,-0.05,-0.05,-0.04
207.28,0.80,0.86,0.80,0.86,-0.86,-1.00,-0.90,-0.06,-0.06,-0.06
209.35,0.80,0.87,0.80,0.87,-0.87,-1.01,-0.94,-0.07,-0.07,-0.07
211.44,0.80,0.88,0.80,0.88,-0.88,-1.02,-0.96,-0.08,-0.08,-0.08
213.56,0.80,0.89,0.80,0.89,-0.89,-1.03,-0.99,-0.09,-0.09,-0.09
215.69,0.80,0.90,0.80,0.90,-0.90,-1.03,-1.02,-0.10,-0.10,-0.10
217.85,0.80,0.92,0.80,0.91,-0.91,-1.04,-1.05,-0.11,-0.11,-0.11
220.03,0.80,0.92,0.80,0.92,-0.92,-1.04,-1.08,-0.12,-0.12,-0.12
222.23,0.80,0.93,0.80,0.93,-0.93,-1.04,-1.10,-0.13,-0.13,-0.13
224.45,0.80,0.94,0.80,0.94,-0.94,-1.05,-1.13,-0.14,-0.14,-0.14
226.70,0.80,0.95,0.80,0.95,-0.95,-1.05,-1.15,-0.15,-0.15,-0.15
228.96,0.80,0.95,0.80,0.96,-0.96,-1.05,-1.17,-0.15,-0.15,-0.15
231.25,0.80,0.96,0.80,0.96,-0.96,-1.05,-1.19,-0.16,-0.16,-0.16
233.57,0.80,0.97,0.80,0.97,-0.97,-1.05,-1.20,-0.17,-0.17,-0.17
235.90,0.80,0.97,0.80,0.97,-0.97,-1.05,-1.22,-0.17,-0.17,-0.17
238.26,0.80,0.98,0.80,0.98,-0.97,-1.04,-1.23,-0.17,-0.17,-0.18
240.64,0.80,0.98,0.80,0.98,-0.98,-1.04,-1.24,-0.17,-0.17,-0.18
243.05,0.80,0.98,0.80,0.98,-0.98,-1.04,-1.25,-0.18,-0.18,-0.18
245.48,0.80,0.97,0.80,0.98,-0.98,-1.03,-1.25,-0.18,-0.18,-0.17
247.93,0.80,0.98,0.80,0.98,-0.98,-1.03,-1.26,-0.18,-0.18,-0.18
250.41,0.80,0.98,0.80,0.98,-0.98,-1.02,-1.26,-0.18,-0.18,-0.18
252.92,0.80,0.98,0.80,0.98,-0.98,-1.01,-1.26,-0.18,-0.18,-0.18
255.45,0.80,0.97,0.80,0.98,-0.99,-1.01,-1.25,-0.19,-0.19,-0.17
258.00,0.81,0.99,0.81,0.99,-0.99,-1.00,-1.24,-0.18,-0.18,-0.18
260.58,0.82,1.00,0.82,1.00,-1.00,-0.99,-1.23,-0.18,-0.18,-0.18
263.19,0.83,1.01,0.83,1.01,-1.00,-0.98,-1.22,-0.17,-0.18,-0.18
265.82,0.83,1.02,0.83,1.01,-1.00,-0.97,-1.21,-0.17,-0.17,-0.19
268.48,0.82,1.00,0.82,1.01,-1.00,-0.96,-1.19,-0.18,-0.18,-0.18
271.16,0.81,1.00,0.81,1.00,-0.99,-0.95,-1.17,-0.18,-0.18,-0.19
273.87,0.79,0.98,0.79,0.98,-0.98,-0.94,-1.15,-0.19,-0.19,-0.19
276.61,0.77,0.96,0.77,0.96,-0.96,-0.92,-1.13,-0.19,-0.19,-0.19
279.38,0.74,0.93,0.74,0.94,-0.94,-0.91,-1.10,-0.20,-0.19,-0.19
282.17,0.72,0.91,0.72,0.91,-0.91,-0.90,-1.07,-0.19,-0.19,-0.19
284.99,0.69,0.88,0.69,0.88,-0.88,-0.88,-1.05,-0.19,-0.19,-0.19
287.84,0.66,0.86,0.66,0.85,-0.85,-0.87,-1.02,-0.19,-0.20,-0.20
290.72,0.62,0.82,0.62,0.83,-0.83,-0.85,-0.99,-0.20,-0.20,-0.20
293.63,0.59,0.80,0.59,0.80,-0.80,-0.84,-0.96,-0.21,-0.21,-0.21
296.57,0.56,0.77,0.56,0.77,-0.77,-0.82,-0.93,-0.21,-0.21,-0.21
299.53,0.54,0.74,0.54,0.74,-0.74,-0.81,-0.89,-0.20,-0.21,-0.20
302.53,0.51,0.72,0.51,0.72,-0.72,-0.79,-0.86,-0.21,-0.21,-0.21
305.55,0.49,0.70,0.49,0.70,-0.70,-0.77,-0.83,-0.21,-0.21,-0.21
308.61,0.47,0.67,0.47,0.68,-0.68,-0.76,-0.79,-0.21,-0.21,-0.20
311.69,0.46,0.67,0.46,0.66,-0.67,-0.74,-0.76,-0.21,-0.21,-0.21
314.81,0.45,0.65,0.45,0.66,-0.66,-0.72,-0.73,-0.21,-0.21,-0.20
317.96,0.46,0.66,0.46,0.66,-0.66,-0.70,-0.69,-0.20,-0.21,-0.20
321.14,0.46,0.66,0.46,0.66,-0.66,-0.68,-0.66,-0.20,-0.20,-0.20
324.35,0.47,0.67,0.47,0.67,-0.67,-0.66,-0.62,-0.20,-0.20,-0.20
327.59,0.48,0.68,0.48,0.68,-0.67,-0.64,-0.59,-0.19,-0.19,-0.20
330.87,0.49,0.68,0.49,0.69,-0.68,-0.62,-0.56,-0.19,-0.19,-0.19
334.18,0.50,0.69,0.50,0.69,-0.68,-0.61,-0.52,-0.18,-0.19,-0.19
337.52,0.50,0.69,0.50,0.69,-0.68,-0.59,-0.49,-0.18,-0.18,-0.19
340.90,0.50,0.68,0.50,0.68,-0.68,-0.56,-0.46,-0.18,-0.18,-0.18
344.30,0.49,0.67,0.49,0.68,-0.67,-0.54,-0.42,-0.18,-0.18,-0.18
347.75,0.48,0.67,0.48,0.66,-0.66,-0.52,-0.39,-0.18,-0.18,-0.18
351.23,0.46,0.65,0.46,0.64,-0.64,-0.50,-0.36,-0.18,-0.18,-0.19
354.74,0.43,0.61,0.44,0.62,-0.62,-0.48,-0.33,-0.19,-0.18,-0.18
358.28,0.41,0.59,0.41,0.59,-0.59,-0.46,-0.29,-0.18,-0.18,-0.18
361.87,0.38,0.56,0.38,0.56,-0.56,-0.44,-0.26,-0.18,-0.18,-0.18
365.49,0.35,0.53,0.35,0.54,-0.53,-0.42,-0.23,-0.18,-0.18,-0.18
369.14,0.32,0.51,0.32,0.50,-0.50,-0.40,-0.20,-0.18,-0.18,-0.19
372.83,0.28,0.47,0.28,0.47,-0.47,-0.38,-0.17,-0.19,-0.18,-0.19
376.56,0.25,0.43,0.25,0.44,-0.44,-0.35,-0.14,-0.19,-0.18,-0.18
380.33,0.23,0.41,0.23,0.41,-0.41,-0.33,-0.11,-0.18,-0.18,-0.18
384.13,0.20,0.38,0.20,0.38,-0.38,-0.31,-0.08,-0.18,-0.18,-0.18
387.97,0.18,0.36,0.18,0.36,-0.36,-0.29,-0.05,-0.18,-0.18,-0.18
391.85,0.16,0.33,0.16,0.34,-0.34,-0.27,-0.02,-0.18,-0.18,-0.17
395.77,0.15,0.33,0.15,0.32,-0.33,-0.25,0.01,-0.18,-0.18,-0.17
399.73,0.14,0.31,0.15,0.31,-0.33,-0.22,0.04,-0.18,-0.18,-0.17
403.72,0.15,0.32,0.15,0.32,-0.32,-0.20,0.07,-0.17,-0.17,-0.17
407.76,0.16,0.32,0.16,0.32,-0.31,-0.18,0.09,-0.15,-0.16,-0.16
411.84,0.16,0.32,0.16,0.32,-0.31,-0.16,0.12,-0.15,-0.15,-0.16
415.96,0.16,0.31,0.16,0.31,-0.30,-0.14,0.15,-0.14,-0.14,-0.15
420.12,0.15,0.30,0.15,0.30,-0.29,-0.12,0.17,-0.14,-0.14,-0.15
424.32,0.13,0.28,0.13,0.28,-0.28,-0.09,0.20,-0.15,-0.15,-0.15
428.56,0.10,0.24,0.10,0.25,-0.26,-0.07,0.22,-0.16,-0.15,-0.14
432.85,0.08,0.22,0.08,0.23,-0.24,-0.05,0.25,-0.16,-0.15,-0.14
437.18,0.06,0.21,0.06,0.20,-0.21,-0.03,0.27,-0.15,-0.15,-0.14
441.55,0.04,0.19,0.04,0.18,-0.18,-0.01,0.29,-0.14,-0.14,-0.15
445.96,0.01,0.16,0.01,0.16,-0.15,0.01,0.31,-0.14,-0.14,-0.15
450.42,-0.03,0.12,-0.03,0.12,-0.11,0.03,0.33,-0.14,-0.14,-0.15
454.93,-0.07,0.08,-0.07,0.08,-0.07,0.05,0.35,-0.14,-0.14,-0.15
459.48,-0.12,0.03,-0.12,0.03,-0.03,0.07,0.37,-0.15,-0.15,-0.15
464.07,-0.17,-0.02,-0.17,-0.02,0.02,0.09,0.38,-0.15,-0.15,-0.15
468.71,-0.21,-0.06,-0.21,-0.06,0.06,0.11,0.40,-0.15,-0.15,-0.15
473.40,-0.26,-0.11,-0.26,-0.11,0.11,0.13,0.41,-0.15,-0.15,-0.15
478.13,-0.30,-0.16,-0.30,-0.16,0.15,0.15,0.43,-0.15,-0.15,-0.14
482.91,-0.34,-0.20,-0.34,-0.20,0.19,0.17,0.44,-0.15,-0.15,-0.14
487.74,-0.37,-0.23,-0.37,-0.23,0.23,0.19,0.45,-0.14,-0.14,-0.14
492.62,-0.40,-0.26,-0.40,-0.26,0.26,0.21,0.45,-0.14,-0.14,-0.14
497.55,-0.42,-0.29,-0.42,-0.28,0.29,0.23,0.46,-0.13,-0.13,-0.13
502.52,-0.44,-0.31,-0.44,-0.31,0.31,0.25,0.46,-0.13,-0.13,-0.13
507.55,-0.46,-0.33,-0.46,-0.33,0.33,0.27,0.47,-0.13,-0.13,-0.13
512.62,-0.48,-0.35,-0.48,-0.35,0.34,0.29,0.47,-0.14,-0.14,-0.13
517.75,-0.49,-0.36,-0.49,-0.36,0.35,0.30,0.47,-0.14,-0.13,-0.12
522.93,-0.49,-0.36,-0.49,-0.36,0.36,0.32,0.47,-0.13,-0.13,-0.12
528.16,-0.49,-0.36,-0.49,-0.37,0.37,0.34,0.47,-0.12,-0.12,-0.13
