frequency,raw,error,smoothed,error_smoothed,equalization,parametric_eq,fixed_band_eq,equalized_raw,equalized_smoothed,target
20.00,4.60,5.64,4.60,5.64,-5.62,-5.31,-2.87,-1.02,-1.02,-1.04
20.20,4.60,5.63,4.59,5.63,-5.62,-5.34,-2.95,-1.02,-1.02,-1.03
20.40,4.60,5.62,4.59,5.62,-5.62,-5.38,-3.03,-1.02,-1.03,-1.02
20.61,4.60,5.62,4.59,5.61,-5.62,-5.42,-3.11,-1.03,-1.03,-1.02
20.81,4.60,5.61,4.60,5.61,-5.63,-5.45,-3.20,-1.03,-1.04,-1.01
21.02,4.60,5.61,4.61,5.62,-5.65,-5.49,-3.29,-1.05,-1.03,-1.01
21.23,4.65,5.65,4.64,5.65,-5.67,-5.52,-3.38,-1.02,-1.02,-1.00
21.44,4.69,5.69,4.69,5.69,-5.69,-5.56,-3.48,-1.00,-1.00,-1.00
21.66,4.73,5.73,4.73,5.73,-5.72,-5.59,-3.57,-1.00,-0.99,-1.00
21.87,4.78,5.78,4.77,5.77,-5.76,-5.63,-3.67,-0.98,-0.99,-1.00
22.09,4.81,5.80,4.81,5.80,-5.80,-5.66,-3.78,-0.99,-0.99,-0.99
22.31,4.84,5.83,4.84,5.84,-5.84,-5.69,-3.88,-1.00,-1.00,-0.99
22.54,4.88,5.88,4.88,5.88,-5.88,-5.73,-3.99,-1.00,-1.00,-1.00
22.76,4.91,5.92,4.91,5.91,-5.91,-5.76,-4.10,-1.00,-1.00,-1.01
22.99,4.94,5.95,4.93,5.95,-5.94,-5.79,-4.22,-1.00,-1.01,-1.01
23.22,4.95,5.96,4.95,5.97,-5.96,-5.82,-4.33,-1.02,-1.01,-1.01
23.45,4.97,5.99,4.97,5.99,-5.98,-5.85,-4.45,-1.02,-1.02,-1.02
23.69,4.98,6.00,4.98,6.00,-6.00,-5.88,-4.57,-1.02,-1.02,-1.02
23.92,5.00,6.02,4.99,6.02,-6.01,-5.91,-4.69,-1.01,-1.02,-1.02
24.16,5.00,6.02,5.00,6.02,-6.02,-5.94,-4.82,-1.02,-1.02,-1.02
24.40,5.00,6.02,5.00,6.02,-6.02,-5.97,-4.95,-1.02,-1.02,-1.02
24.65,5.00,6.02,5.00,6.02,-6.01,-6.00,-5.08,-1.02,-1.02,-1.02
24.89,5.00,6.02,5.00,6.02,-6.01,-6.03,-5.21,-1.01,-1.01,-1.02
25.14,5.00,6.02,5.00,6.02,-6.02,-6.05,-5.34,-1.02,-1.02,-1.02
25.39,5.00,6.03,4.99,6.02,-6.03,-6.08,-5.48,-1.03,-1.04,-1.03
25.65,5.00,6.03,4.99,6.03,-6.05,-6.10,-5.61,-1.05,-1.06,-1.03
25.91,5.00,6.03,5.01,6.04,-6.09,-6.13,-5.74,-1.09,-1.07,-1.03
26.16,5.05,6.08,5.05,6.08,-6.12,-6.15,-5.88,-1.07,-1.07,-1.03
26.43,5.12,6.15,5.12,6.15,-6.16,-6.18,-6.01,-1.04,-1.04,-1.03
26.69,5.19,6.22,5.19,6.23,-6.19,-6.20,-6.15,-1.00,-1.00,-1.03
26.96,5.27,6.30,5.24,6.27,-6.22,-6.22,-6.28,-0.95,-0.98,-1.03
27.23,5.26,6.29,5.26,6.29,-6.25,-6.25,-6.41,-0.99,-0.99,-1.03
27.50,5.24,6.27,5.25,6.28,-6.26,-6.27,-6.53,-1.02,-1.01,-1.03
27.77,5.22,6.25,5.22,6.25,-6.27,-6.29,-6.65,-1.05,-1.05,-1.03
28.05,5.20,6.23,5.20,6.24,-6.26,-6.31,-6.77,-1.06,-1.06,-1.03
28.33,5.20,6.23,5.20,6.23,-6.25,-6.33,-6.89,-1.05,-1.05,-1.03
28.62,5.20,6.23,5.20,6.22,-6.24,-6.34,-6.99,-1.04,-1.04,-1.03
28.90,5.20,6.22,5.20,6.22,-6.23,-6.36,-7.09,-1.03,-1.03,-1.02
29.19,5.20,6.22,5.20,6.22,-6.21,-6.38,-7.18,-1.01,-1.01,-1.02
29.48,5.20,6.22,5.20,6.22,-6.20,-6.39,-7.27,-1.00,-1.00,-1.02
29.78,5.20,6.21,5.20,6.21,-6.19,-6.41,-7.34,-0.99,-0.99,-1.01
30.08,5.19,6.20,5.19,6.20,-6.18,-6.42,-7.41,-0.99,-0.99,-1.01
30.38,5.17,6.18,5.16,6.17,-6.18,-6.44,-7.47,-1.01,-1.02,-1.01
30.68,5.15,6.16,5.14,6.15,-6.19,-6.45,-7.51,-1.04,-1.04,-1.01
30.99,5.12,6.13,5.14,6.15,-6.20,-6.46,-7.55,-1.08,-1.06,-1.01
31.30,5.17,6.18,5.17,6.18,-6.21,-6.48,-7.57,-1.05,-1.04,-1.01
31.61,5.23,6.24,5.22,6.24,-6.23,-6.49,-7.59,-1.01,-1.01,-1.01
31.93,5.29,6.30,5.27,6.29,-6.26,-6.50,-7.59,-0.97,-0.98,-1.01
32.24,5.30,6.32,5.30,6.32,-6.28,-6.51,-7.59,-0.98,-0.98,-1.02
32.57,5.30,6.32,5.30,6.33,-6.30,-6.52,-7.57,-1.01,-1.00,-1.02
32.89,5.30,6.32,5.30,6.32,-6.32,-6.52,-7.55,-1.02,-1.02,-1.02
33.22,5.30,6.33,5.30,6.33,-6.33,-6.53,-7.52,-1.03,-1.03,-1.03
33.55,5.30,6.33,5.30,6.33,-6.33,-6.54,-7.47,-1.03,-1.03,-1.03
33.89,5.30,6.34,5.30,6.34,-6.34,-6.54,-7.43,-1.04,-1.04,-1.04
34.23,5.30,6.34,5.29,6.33,-6.35,-6.55,-7.37,-1.05,-1.06,-1.04
34.57,5.30,6.34,5.30,6.34,-6.37,-6.55,-7.31,-1.07,-1.07,-1.04
34.92,5.30,6.34,5.31,6.35,-6.39,-6.56,-7.25,-1.09,-1.08,-1.04
35.27,5.35,6.39,5.36,6.40,-6.41,-6.56,-7.18,-1.06,-1.05,-1.04
35.62,5.41,6.45,5.41,6.45,-6.43,-6.56,-7.10,-1.02,-1.02,-1.04
35.97,5.48,6.52,5.45,6.49,-6.44,-6.57,-7.03,-0.97,-1.00,-1.04
36.33,5.45,6.49,5.45,6.49,-6.45,-6.57,-6.95,-1.01,-1.01,-1.04
36.70,5.42,6.46,5.43,6.47,-6.46,-6.57,-6.88,-1.04,-1.03,-1.04
37.06,5.40,6.44,5.40,6.44,-6.46,-6.57,-6.80,-1.06,-1.06,-1.04
37.43,5.40,6.44,5.40,6.43,-6.46,-6.57,-6.72,-1.06,-1.06,-1.04
37.81,5.40,6.43,5.40,6.43,-6.45,-6.56,-6.64,-1.05,-1.05,-1.03
38.19,5.40,6.43,5.40,6.43,-6.43,-6.56,-6.57,-1.03,-1.03,-1.03
38.57,5.40,6.43,5.40,6.43,-6.42,-6.56,-6.49,-1.03,-1.03,-1.03
38.95,5.40,6.42,5.40,6.42,-6.42,-6.55,-6.42,-1.02,-1.02,-1.02
39.34,5.40,6.42,5.40,6.42,-6.42,-6.55,-6.35,-1.02,-1.02,-1.02
39.74,5.40,6.42,5.40,6.42,-6.42,-6.55,-6.29,-1.02,-1.02,-1.02
40.14,5.40,6.42,5.40,6.42,-6.42,-6.54,-6.22,-1.02,-1.02,-1.02
40.54,5.40,6.42,5.40,6.42,-6.42,-6.53,-6.16,-1.03,-1.03,-1.02
40.94,5.40,6.42,5.40,6.42,-6.43,-6.53,-6.11,-1.03,-1.03,-1.02
41.35,5.40,6.42,5.40,6.42,-6.44,-6.52,-6.05,-1.04,-1.04,-1.02
41.76,5.40,6.43,5.40,6.43,-6.44,-6.51,-6.01,-1.04,-1.04,-1.03
42.18,5.41,6.44,5.42,6.45,-6.44,-6.50,-5.96,-1.03,-1.02,-1.03
42.60,5.43,6.46,5.43,6.46,-6.43,-6.50,-5.92,-1.00,-1.00,-1.03
43.03,5.45,6.48,5.42,6.45,-6.42,-6.49,-5.88,-0.97,-1.00,-1.03
43.46,5.38,6.41,5.38,6.42,-6.41,-6.48,-5.85,-1.03,-1.02,-1.03
43.90,5.32,6.36,5.34,6.38,-6.39,-6.47,-5.82,-1.07,-1.05,-1.04
44.33,5.30,6.34,5.30,6.34,-6.38,-6.46,-5.80,-1.08,-1.07,-1.04
44.78,5.30,6.34,5.29,6.34,-6.36,-6.45,-5.78,-1.06,-1.07,-1.04
45.23,5.30,6.34,5.30,6.34,-6.34,-6.43,-5.76,-1.04,-1.05,-1.04
45.68,5.30,6.34,5.30,6.34,-6.33,-6.42,-5.75,-1.03,-1.03,-1.04
46.13,5.30,6.33,5.30,6.33,-6.32,-6.41,-5.75,-1.03,-1.03,-1.03
46.60,5.30,6.33,5.30,6.33,-6.32,-6.40,-5.74,-1.02,-1.02,-1.03
47.06,5.30,6.32,5.30,6.32,-6.32,-6.38,-5.74,-1.02,-1.02,-1.02
47.53,5.30,6.31,5.30,6.31,-6.31,-6.37,-5.75,-1.01,-1.01,-1.01
48.01,5.30,6.30,5.30,6.30,-6.30,-6.36,-5.76,-1.00,-1.00,-1.00
48.49,5.30,6.29,5.30,6.29,-6.29,-6.34,-5.77,-0.99,-0.99,-0.99
48.97,5.30,6.28,5.30,6.28,-6.28,-6.33,-5.79,-0.98,-0.98,-0.98
49.46,5.30,6.27,5.30,6.27,-6.26,-6.32,-5.81,-0.97,-0.97,-0.97
49.96,5.30,6.25,5.30,6.25,-6.25,-6.30,-5.83,-0.95,-0.95,-0.95
50.46,5.30,6.24,5.30,6.24,-6.24,-6.29,-5.86,-0.94,-0.94,-0.94
50.96,5.30,6.22,5.30,6.22,-6.23,-6.27,-5.89,-0.93,-0.93,-0.92
51.47,5.30,6.21,5.30,6.21,-6.21,-6.26,-5.92,-0.91,-0.91,-0.91
51.99,5.30,6.20,5.30,6.20,-6.20,-6.24,-5.95,-0.90,-0.90,-0.90
52.51,5.30,6.19,5.30,6.19,-6.19,-6.23,-5.98,-0.89,-0.89,-0.89
53.03,5.30,6.18,5.30,6.18,-6.17,-6.21,-6.02,-0.88,-0.88,-0.88
53.56,5.30,6.17,5.30,6.17,-6.16,-6.20,-6.06,-0.86,-0.86,-0.87
54.10,5.30,6.15,5.30,6.15,-6.15,-6.18,-6.09,-0.85,-0.85,-0.85
54.64,5.30,6.14,5.30,6.14,-6.15,-6.17,-6.13,-0.85,-0.85,-0.84
55.18,5.30,6.13,5.30,6.13,-6.14,-6.15,-6.17,-0.84,-0.84,-0.83
55.74,5.30,6.13,5.30,6.12,-6.14,-6.14,-6.21,-0.84,-0.84,-0.83
56.29,5.30,6.12,5.30,6.12,-6.13,-6.12,-6.24,-0.84,-0.84,-0.82
56.86,5.30,6.11,5.32,6.13,-6.13,-6.11,-6.28,-0.83,-0.81,-0.81
57.42,5.33,6.14,5.33,6.14,-6.12,-6.09,-6.31,-0.79,-0.79,-0.81
58.00,5.36,6.17,5.33,6.14,-6.11,-6.08,-6.34,-0.75,-0.78,-0.81
58.58,5.30,6.11,5.30,6.11,-6.09,-6.06,-6.36,-0.79,-0.79,-0.81
59.16,5.25,6.06,5.26,6.07,-6.07,-6.05,-6.39,-0.82,-0.81,-0.81
59.76,5.21,6.02,5.22,6.04,-6.04,-6.04,-6.40,-0.83,-0.82,-0.81
60.35,5.20,6.02,5.20,6.02,-6.02,-6.02,-6.42,-0.82,-0.82,-0.82
60.96,5.20,6.03,5.16,5.99,-6.00,-6.01,-6.43,-0.80,-0.84,-0.83
61.57,5.11,5.95,5.12,5.96,-5.99,-6.00,-6.44,-0.88,-0.88,-0.84
62.18,5.05,5.91,5.09,5.95,-5.99,-5.99,-6.44,-0.94,-0.90,-0.86
62.80,5.09,5.97,5.09,5.97,-5.99,-5.97,-6.44,-0.90,-0.91,-0.88
63.43,5.12,6.03,5.11,6.02,-6.00,-5.96,-6.43,-0.88,-0.89,-0.91
64.07,5.14,6.07,5.12,6.05,-6.01,-5.95,-6.42,-0.87,-0.89,-0.93
64.71,5.09,6.05,5.09,6.05,-6.02,-5.94,-6.40,-0.94,-0.93,-0.96
65.35,5.05,6.03,5.05,6.03,-6.04,-5.93,-6.38,-0.99,-0.99,-0.98
66.01,5.00,6.00,5.01,6.01,-6.04,-5.92,-6.35,-1.04,-1.03,-1.00
66.67,5.00,6.02,5.00,6.02,-6.03,-5.91,-6.32,-1.04,-1.03,-1.02
67.33,5.00,6.03,5.00,6.03,-6.02,-5.91,-6.29,-1.02,-1.02,-1.03
68.01,5.00,6.05,4.98,6.03,-6.00,-5.90,-6.26,-1.00,-1.01,-1.05
68.69,4.94,6.00,4.93,5.99,-5.97,-5.89,-6.22,-1.03,-1.05,-1.06
69.37,4.87,5.94,4.87,5.94,-5.95,-5.89,-6.18,-1.08,-1.08,-1.07
70.07,4.78,5.86,4.82,5.90,-5.93,-5.88,-6.14,-1.15,-1.11,-1.08
70.77,4.82,5.91,4.80,5.89,-5.91,-5.88,-6.10,-1.09,-1.11,-1.09
71.48,4.81,5.90,4.79,5.88,-5.89,-5.87,-6.05,-1.08,-1.10,-1.09
72.19,4.77,5.87,4.77,5.87,-5.86,-5.87,-6.01,-1.10,-1.10,-1.10
72.91,4.71,5.82,4.73,5.84,-5.84,-5.87,-5.96,-1.13,-1.11,-1.11
73.64,4.70,5.82,4.71,5.83,-5.81,-5.87,-5.92,-1.11,-1.10,-1.12
74.38,4.70,5.83,4.69,5.82,-5.79,-5.87,-5.88,-1.09,-1.10,-1.13
75.12,4.69,5.83,4.64,5.79,-5.76,-5.87,-5.84,-1.08,-1.12,-1.14
75.87,4.55,5.71,4.58,5.74,-5.74,-5.87,-5.80,-1.19,-1.16,-1.16
76.63,4.50,5.67,4.52,5.69,-5.72,-5.87,-5.76,-1.22,-1.21,-1.17
77.40,4.49,5.68,4.48,5.67,-5.71,-5.88,-5.73,-1.22,-1.23,-1.19
78.17,4.49,5.69,4.48,5.69,-5.70,-5.88,-5.69,-1.21,-1.21,-1.20
78.95,4.49,5.71,4.49,5.71,-5.70,-5.89,-5.66,-1.21,-1.21,-1.22
79.74,4.49,5.72,4.49,5.72,-5.70,-5.90,-5.64,-1.21,-1.21,-1.23
80.54,4.49,5.74,4.49,5.74,-5.72,-5.90,-5.61,-1.23,-1.23,-1.25
81.35,4.49,5.75,4.48,5.74,-5.75,-5.91,-5.59,-1.26,-1.27,-1.26
82.16,4.49,5.76,4.49,5.77,-5.78,-5.92,-5.58,-1.29,-1.28,-1.27
82.98,4.49,5.77,4.52,5.81,-5.81,-5.93,-5.57,-1.32,-1.29,-1.28
83.81,4.60,5.89,4.57,5.85,-5.85,-5.95,-5.56,-1.25,-1.29,-1.29
84.65,4.62,5.91,4.61,5.91,-5.90,-5.96,-5.55,-1.28,-1.29,-1.29
85.50,4.64,5.94,4.65,5.95,-5.95,-5.98,-5.55,-1.31,-1.30,-1.30
86.35,4.68,5.99,4.67,5.98,-6.01,-5.99,-5.56,-1.33,-1.34,-1.31
87.22,4.72,6.04,4.74,6.06,-6.07,-6.01,-5.56,-1.35,-1.33,-1.32
88.09,4.81,6.14,4.83,6.16,-6.14,-6.03,-5.58,-1.33,-1.31,-1.33
88.97,4.95,6.28,4.88,6.21,-6.21,-6.04,-5.59,-1.26,-1.33,-1.33
89.86,4.94,6.28,4.91,6.26,-6.27,-6.06,-5.61,-1.33,-1.36,-1.34
90.76,4.86,6.21,4.97,6.31,-6.32,-6.08,-5.64,-1.46,-1.35,-1.35
91.66,5.04,6.39,5.03,6.38,-6.36,-6.10,-5.67,-1.32,-1.33,-1.35
92.58,5.16,6.51,5.10,6.45,-6.40,-6.12,-5.70,-1.24,-1.30,-1.35
93.51,5.14,6.50,5.13,6.49,-6.44,-6.15,-5.74,-1.30,-1.31,-1.36
94.44,5.08,6.44,5.09,6.45,-6.47,-6.17,-5.78,-1.40,-1.39,-1.36
95.39,5.04,6.40,5.07,6.43,-6.51,-6.19,-5.82,-1.47,-1.44,-1.36
96.34,5.09,6.45,5.11,6.47,-6.54,-6.21,-5.87,-1.45,-1.43,-1.36
97.30,5.22,6.58,5.19,6.56,-6.56,-6.23,-5.92,-1.35,-1.37,-1.36
98.28,5.27,6.64,5.27,6.64,-6.58,-6.25,-5.97,-1.31,-1.31,-1.37
99.26,5.32,6.69,5.29,6.66,-6.60,-6.27,-6.03,-1.28,-1.31,-1.37
100.25,5.27,6.64,5.27,6.65,-6.62,-6.29,-6.09,-1.35,-1.34,-1.37
101.25,5.23,6.60,5.25,6.62,-6.64,-6.31,-6.15,-1.41,-1.39,-1.37
102.27,5.22,6.60,5.21,6.60,-6.64,-6.33,-6.22,-1.42,-1.42,-1.38
103.29,5.21,6.60,5.20,6.59,-6.63,-6.34,-6.28,-1.42,-1.42,-1.39
104.32,5.19,6.59,5.20,6.60,-6.60,-6.35,-6.35,-1.41,-1.39,-1.40
105.37,5.19,6.59,5.19,6.59,-6.56,-6.36,-6.42,-1.38,-1.38,-1.40
106.42,5.18,6.59,5.14,6.56,-6.53,-6.37,-6.49,-1.35,-1.39,-1.41
107.48,5.08,6.50,5.09,6.51,-6.50,-6.37,-6.56,-1.42,-1.41,-1.42
108.56,4.99,6.42,5.02,6.46,-6.46,-6.37,-6.62,-1.47,-1.43,-1.43
109.64,4.97,6.41,4.94,6.38,-6.41,-6.36,-6.69,-1.44,-1.47,-1.44
110.74,4.92,6.36,4.90,6.34,-6.36,-6.35,-6.75,-1.44,-1.46,-1.44
111.85,4.81,6.25,4.88,6.32,-6.30,-6.33,-6.81,-1.49,-1.43,-1.44
112.97,4.85,6.29,4.81,6.25,-6.25,-6.31,-6.87,-1.40,-1.44,-1.44
114.10,4.81,6.25,4.74,6.18,-6.20,-6.28,-6.92,-1.39,-1.46,-1.44
115.24,4.61,6.04,4.69,6.12,-6.13,-6.24,-6.96,-1.53,-1.45,-1.43
116.39,4.62,6.05,4.65,6.08,-6.07,-6.20,-7.00,-1.45,-1.42,-1.43
117.55,4.66,6.07,4.61,6.03,-6.00,-6.14,-7.04,-1.34,-1.39,-1.41
118.73,4.64,6.04,4.57,5.97,-5.93,-6.08,-7.06,-1.29,-1.36,-1.40
119.92,4.43,5.81,4.49,5.87,-5.86,-6.02,-7.08,-1.43,-1.37,-1.38
121.12,4.38,5.74,4.42,5.78,-5.80,-5.95,-7.09,-1.42,-1.38,-1.36
122.33,4.41,5.75,4.35,5.70,-5.74,-5.87,-7.09,-1.34,-1.39,-1.34
123.55,4.36,5.68,4.35,5.67,-5.70,-5.80,-7.08,-1.34,-1.35,-1.32
124.79,4.29,5.59,4.34,5.64,-5.66,-5.73,-7.06,-1.37,-1.32,-1.30
126.03,4.36,5.64,4.34,5.62,-5.63,-5.66,-7.03,-1.27,-1.29,-1.28
127.29,4.37,5.63,4.36,5.62,-5.61,-5.60,-6.99,-1.24,-1.25,-1.26
128.57,4.38,5.62,4.38,5.62,-5.60,-5.55,-6.94,-1.23,-1.22,-1.24
129.85,4.39,5.61,4.39,5.61,-5.60,-5.52,-6.88,-1.21,-1.21,-1.22
131.15,4.39,5.59,4.39,5.60,-5.59,-5.49,-6.81,-1.20,-1.20,-1.20
132.46,4.40,5.59,4.40,5.59,-5.57,-5.48,-6.74,-1.18,-1.18,-1.19
133.79,4.40,5.57,4.40,5.58,-5.56,-5.49,-6.65,-1.16,-1.16,-1.17
135.12,4.41,5.57,4.41,5.57,-5.55,-5.50,-6.56,-1.14,-1.14,-1.16
136.48,4.41,5.55,4.40,5.54,-5.55,-5.52,-6.46,-1.14,-1.15,-1.14
137.84,4.40,5.53,4.38,5.51,-5.56,-5.55,-6.36,-1.16,-1.17,-1.13
139.22,4.36,5.48,4.39,5.51,-5.56,-5.57,-6.25,-1.20,-1.17,-1.12
140.61,4.41,5.52,4.43,5.54,-5.57,-5.59,-6.14,-1.16,-1.13,-1.11
142.02,4.52,5.62,4.50,5.60,-5.57,-5.61,-6.02,-1.05,-1.08,-1.10
143.44,4.56,5.66,4.54,5.64,-5.58,-5.63,-5.90,-1.02,-1.04,-1.10
144.87,4.54,5.64,4.53,5.63,-5.59,-5.64,-5.77,-1.05,-1.06,-1.10
146.32,4.46,5.56,4.48,5.58,-5.59,-5.64,-5.65,-1.13,-1.11,-1.10
147.78,4.42,5.53,4.44,5.55,-5.59,-5.63,-5.52,-1.17,-1.15,-1.11
149.26,4.42,5.54,4.42,5.54,-5.57,-5.62,-5.39,-1.15,-1.15,-1.12
150.75,4.42,5.56,4.40,5.54,-5.55,-5.61,-5.26,-1.13,-1.15,-1.14
152.26,4.36,5.53,4.35,5.52,-5.51,-5.59,-5.13,-1.15,-1.16,-1.17
153.78,4.27,5.47,4.27,5.48,-5.46,-5.56,-5.00,-1.19,-1.18,-1.20
155.32,4.17,5.41,4.19,5.42,-5.40,-5.53,-4.87,-1.23,-1.21,-1.24
156.88,4.09,5.36,4.08,5.36,-5.33,-5.49,-4.75,-1.24,-1.25,-1.27
158.44,3.99,5.30,3.96,5.27,-5.24,-5.45,-4.62,-1.25,-1.28,-1.31
160.03,3.81,5.15,3.84,5.18,-5.15,-5.41,-4.49,-1.34,-1.31,-1.34
161.63,3.70,5.06,3.69,5.06,-5.06,-5.36,-4.37,-1.36,-1.37,-1.36
163.24,3.59,4.98,3.56,4.94,-4.99,-5.31,-4.25,-1.40,-1.43,-1.39
164.88,3.43,4.83,3.48,4.89,-4.94,-5.26,-4.13,-1.51,-1.46,-1.40
166.53,3.44,4.85,3.43,4.84,-4.92,-5.21,-4.02,-1.48,-1.49,-1.41
168.19,3.47,4.88,3.44,4.85,-4.91,-5.15,-3.90,-1.44,-1.47,-1.41
169.87,3.46,4.86,3.51,4.92,-4.92,-5.09,-3.79,-1.46,-1.41,-1.40
171.57,3.60,4.99,3.58,4.97,-4.94,-5.03,-3.68,-1.34,-1.36,-1.39
173.29,3.67,5.04,3.64,5.01,-4.95,-4.97,-3.57,-1.29,-1.32,-1.37
175.02,3.67,5.01,3.69,5.03,-4.96,-4.91,-3.47,-1.29,-1.27,-1.34
176.77,3.67,4.98,3.68,4.99,-4.94,-4.84,-3.37,-1.27,-1.26,-1.31
178.54,3.67,4.95,3.65,4.93,-4.91,-4.77,-3.27,-1.24,-1.26,-1.28
180.32,3.60,4.84,3.60,4.85,-4.85,-4.71,-3.17,-1.25,-1.25,-1.24
182.13,3.54,4.75,3.55,4.75,-4.78,-4.64,-3.07,-1.24,-1.23,-1.21
183.95,3.49,4.66,3.49,4.67,-4.70,-4.57,-2.98,-1.21,-1.21,-1.17
185.79,3.44,4.59,3.44,4.59,-4.62,-4.50,-2.89,-1.18,-1.18,-1.15
187.65,3.40,4.53,3.39,4.52,-4.53,-4.43,-2.80,-1.13,-1.14,-1.13
189.52,3.34,4.45,3.35,4.46,-4.45,-4.35,-2.72,-1.11,-1.10,-1.11
191.42,3.29,4.39,3.28,4.38,-4.37,-4.28,-2.64,-1.08,-1.08,-1.10
193.33,3.22,4.30,3.21,4.29,-4.28,-4.20,-2.56,-1.06,-1.07,-1.08
195.27,3.11,4.18,3.13,4.21,-4.19,-4.12,-2.48,-1.08,-1.06,-1.07
197.22,3.05,4.12,3.05,4.11,-4.10,-4.04,-2.40,-1.06,-1.06,-1.07
199.19,2.97,4.03,2.95,4.01,-4.02,-3.96,-2.33,-1.05,-1.07,-1.06
201.18,2.85,3.91,2.85,3.91,-3.93,-3.88,-2.25,-1.08,-1.08,-1.06
203.19,2.74,3.80,2.76,3.82,-3.85,-3.79,-2.18,-1.11,-1.09,-1.06
205.23,2.68,3.74,2.68,3.74,-3.76,-3.71,-2.12,-1.09,-1.09,-1.06
207.28,2.62,3.68,2.62,3.68,-3.68,-3.62,-2.05,-1.06,-1.06,-1.06
209.35,2.55,3.61,2.55,3.62,-3.59,-3.53,-1.99,-1.04,-1.03,-1.06
211.44,2.48,3.55,2.46,3.53,-3.50,-3.44,-1.92,-1.02,-1.03,-1.07
213.56,2.36,3.43,2.35,3.43,-3.40,-3.34,-1.86,-1.04,-1.05,-1.07
215.69,2.21,3.29,2.23,3.30,-3.30,-3.25,-1.80,-1.10,-1.08,-1.08
217.85,2.10,3.18,2.09,3.17,-3.20,-3.15,-1.75,-1.10,-1.11,-1.08
220.03,1.97,3.06,1.97,3.06,-3.09,-3.05,-1.69,-1.12,-1.12,-1.09
222.23,1.86,2.95,1.88,2.97,-2.98,-2.95,-1.64,-1.12,-1.10,-1.09
224.45,1.79,2.88,1.77,2.86,-2.86,-2.84,-1.59,-1.07,-1.09,-1.09
226.70,1.68,2.77,1.66,2.75,-2.74,-2.73,-1.54,-1.06,-1.08,-1.09
228.96,1.52,2.61,1.54,2.63,-2.62,-2.62,-1.49,-1.10,-1.07,-1.09
231.25,1.42,2.50,1.42,2.50,-2.49,-2.51,-1.45,-1.07,-1.07,-1.08
233.57,1.30,2.38,1.29,2.37,-2.36,-2.40,-1.40,-1.06,-1.07,-1.08
235.90,1.18,2.25,1.16,2.23,-2.22,-2.28,-1.36,-1.05,-1.07,-1.07
238.26,1.01,2.07,1.02,2.08,-2.09,-2.16,-1.32,-1.08,-1.07,-1.06
240.64,0.87,1.91,0.89,1.93,-1.96,-2.04,-1.28,-1.09,-1.07,-1.04
243.05,0.78,1.81,0.77,1.80,-1.82,-1.92,-1.24,-1.05,-1.06,-1.03
245.48,0.68,1.70,0.67,1.69,-1.70,-1.80,-1.21,-1.02,-1.03,-1.02
247.93,0.56,1.57,0.57,1.58,-1.57,-1.67,-1.17,-1.02,-1.00,-1.01
250.41,0.47,1.47,0.46,1.46,-1.46,-1.54,-1.14,-0.99,-0.99,-1.00
252.92,0.36,1.35,0.35,1.34,-1.34,-1.41,-1.11,-0.98,-0.99,-0.99
255.45,0.23,1.22,0.24,1.23,-1.23,-1.27,-1.08,-1.00,-0.99,-0.99
258.00,0.12,1.11,0.12,1.11,-1.11,-1.14,-1.05,-0.99,-0.99,-0.99
260.58,0.01,1.00,-0.00,0.99,-0.99,-1.00,-1.03,-0.98,-0.99,-0.99
263.19,-0.13,0.86,-0.12,0.87,-0.86,-0.87,-1.00,-1.00,-0.98,-0.99
265.82,-0.24,0.75,-0.25,0.74,-0.74,-0.73,-0.98,-0.98,-0.99,-0.99
268.48,-0.37,0.62,-0.38,0.61,-0.61,-0.59,-0.96,-0.98,-0.99,-0.99
271.16,-0.52,0.47,-0.51,0.48,-0.48,-0.45,-0.94,-1.01,-1.00,-0.99
273.87,-0.65,0.34,-0.65,0.34,-0.35,-0.31,-0.92,-1.00,-1.00,-0.99
276.61,-0.77,0.22,-0.78,0.21,-0.22,-0.17,-0.90,-0.99,-1.00,-0.99
279.38,-0.91,0.08,-0.90,0.08,-0.08,-0.03,-0.88,-0.99,-0.98,-0.99
282.17,-1.03,-0.05,-1.03,-0.04,0.06,0.11,-0.87,-0.97,-0.96,-0.98
284.99,-1.15,-0.18,-1.16,-0.19,0.20,0.25,-0.85,-0.95,-0.96,-0.97
287.84,-1.29,-0.32,-1.31,-0.34,0.34,0.38,-0.84,-0.95,-0.96,-0.97
290.72,-1.47,-0.51,-1.45,-0.49,0.48,0.51,-0.83,-0.99,-0.97,-0.96
293.63,-1.60,-0.65,-1.59,-0.63,0.62,0.63,-0.81,-0.98,-0.96,-0.95
296.57,-1.69,-0.75,-1.71,-0.77,0.76,0.75,-0.80,-0.93,-0.95,-0.94
299.53,-1.81,-0.87,-1.82,-0.88,0.88,0.86,-0.79,-0.93,-0.93,-0.94
302.53,-1.94,-1.01,-1.93,-1.00,1.00,0.97,-0.78,-0.94,-0.93,-0.93
305.55,-2.03,-1.10,-2.04,-1.11,1.11,1.06,-0.77,-0.93,-0.94,-0.93
308.61,-2.15,-1.22,-2.14,-1.21,1.20,1.15,-0.77,-0.95,-0.94,-0.93
311.69,-2.22,-1.29,-2.22,-1.28,1.28,1.23,-0.76,-0.94,-0.94,-0.93
314.81,-2.28,-1.34,-2.28,-1.35,1.35,1.30,-0.75,-0.93,-0.93,-0.94
317.96,-2.33,-1.39,-2.34,-1.40,1.41,1.35,-0.75,-0.92,-0.93,-0.94
321.14,-2.40,-1.45,-2.40,-1.45,1.46,1.40,-0.74,-0.94,-0.94,-0.95
324.35,-2.45,-1.50,-2.44,-1.48,1.48,1.43,-0.73,-0.97,-0.95,-0.95
327.59,-2.46,-1.50,-2.46,-1.50,1.49,1.45,-0.73,-0.97,-0.97,-0.96
330.87,-2.46,-1.49,-2.48,-1.51,1.48,1.46,-0.73,-0.98,-1.00,-0.97
334.18,-2.47,-1.49,-2.48,-1.49,1.46,1.46,-0.72,-1.01,-1.02,-0.98
337.52,-2.47,-1.48,-2.43,-1.44,1.42,1.45,-0.72,-1.05,-1.01,-0.99
340.90,-2.37,-1.38,-2.36,-1.37,1.38,1.42,-0.72,-0.99,-0.98,-0.99
344.30,-2.25,-1.25,-2.30,-1.30,1.33,1.39,-0.72,-0.92,-0.98,-1.00
347.75,-2.25,-1.23,-2.26,-1.24,1.27,1.35,-0.71,-0.98,-0.99,-1.02
351.23,-2.27,-1.24,-2.23,-1.20,1.21,1.30,-0.71,-1.06,-1.01,-1.03
354.74,-2.20,-1.16,-2.21,-1.17,1.16,1.24,-0.71,-1.04,-1.05,-1.04
358.28,-2.15,-1.10,-2.18,-1.13,1.11,1.18,-0.71,-1.04,-1.07,-1.05
361.87,-2.15,-1.09,-2.12,-1.06,1.07,1.11,-0.71,-1.08,-1.05,-1.06
365.49,-2.10,-1.02,-2.09,-1.01,1.04,1.04,-0.71,-1.07,-1.05,-1.08
369.14,-2.02,-0.93,-2.07,-0.98,1.00,0.96,-0.71,-1.03,-1.08,-1.09
372.83,-2.05,-0.95,-2.05,-0.94,0.95,0.88,-0.72,-1.10,-1.10,-1.10
376.56,-2.07,-0.96,-2.02,-0.91,0.89,0.79,-0.72,-1.19,-1.13,-1.11
380.33,-1.95,-0.83,-1.98,-0.86,0.82,0.71,-0.72,-1.14,-1.16,-1.12
384.13,-1.89,-0.76,-1.90,-0.76,0.74,0.62,-0.72,-1.15,-1.16,-1.13
387.97,-1.81,-0.67,-1.80,-0.65,0.66,0.53,-0.72,-1.16,-1.14,-1.14
391.85,-1.69,-0.54,-1.70,-0.55,0.56,0.44,-0.73,-1.13,-1.14,-1.15
395.77,-1.59,-0.43,-1.58,-0.42,0.45,0.35,-0.73,-1.14,-1.13,-1.16
399.73,-1.47,-0.30,-1.48,-0.31,0.33,0.26,-0.74,-1.14,-1.15,-1.17
403.72,-1.38,-0.20,-1.40,-0.21,0.20,0.16,-0.74,-1.18,-1.20,-1.18
407.76,-1.32,-0.12,-1.30,-0.10,0.06,0.07,-0.74,-1.26,-1.23,-1.20
411.84,-1.20,0.01,-1.18,0.03,-0.06,-0.02,-0.75,-1.26,-1.24,-1.21
415.96,-1.02,0.20,-1.04,0.18,-0.18,-0.11,-0.75,-1.20,-1.22,-1.22
420.12,-0.89,0.33,-0.89,0.33,-0.30,-0.21,-0.76,-1.19,-1.19,-1.22
424.32,-0.77,0.46,-0.77,0.46,-0.41,-0.30,-0.76,-1.18,-1.17,-1.23
428.56,-0.67,0.56,-0.68,0.55,-0.51,-0.39,-0.77,-1.18,-1.19,-1.23
432.85,-0.59,0.63,-0.61,0.61,-0.61,-0.48,-0.78,-1.21,-1.22,-1.22
437.18,-0.55,0.66,-0.55,0.66,-0.71,-0.57,-0.78,-1.26,-1.25,-1.21
441.55,-0.48,0.71,-0.45,0.74,-0.79,-0.67,-0.79,-1.27,-1.24,-1.19
445.96,-0.33,0.84,-0.32,0.85,-0.87,-0.76,-0.79,-1.20,-1.19,-1.17
450.42,-0.14,1.00,-0.19,0.95,-0.94,-0.84,-0.80,-1.08,-1.13,-1.14
454.93,-0.05,1.05,-0.06,1.05,-1.01,-0.93,-0.80,-1.06,-1.07,-1.10
459.48,0.01,1.07,0.05,1.11,-1.08,-1.02,-0.81,-1.07,-1.04,-1.06
