frequency,raw
20.00,6.26
20.20,6.49
20.40,6.73
20.61,6.95
20.81,7.19
21.02,7.41
21.23,7.64
21.44,7.86
21.66,8.09
21.87,8.30
22.09,8.52
22.31,8.73
22.54,8.93
22.76,9.15
22.99,9.34
23.22,9.55
23.45,9.74
23.69,9.92
23.92,10.11
24.16,10.28
24.40,10.44
24.65,10.60
24.89,10.78
25.14,10.93
25.39,11.08
25.65,11.23
25.91,11.38
26.16,11.51
26.43,11.65
26.69,11.79
26.96,11.92
27.23,12.04
27.50,12.15
27.77,12.27
28.05,12.39
28.33,12.49
28.62,12.60
28.90,12.70
29.19,12.80
29.48,12.89
29.78,12.99
30.08,13.07
30.38,13.16
30.68,13.23
30.99,13.31
31.30,13.38
31.61,13.44
31.93,13.50
32.24,13.56
32.57,13.62
32.89,13.68
33.22,13.73
33.55,13.77
33.89,13.82
34.23,13.87
34.57,13.90
34.92,13.94
35.27,13.98
35.62,14.02
35.97,14.03
36.33,14.05
36.70,14.09
37.06,14.11
37.43,14.12
37.81,14.14
38.19,14.15
38.57,14.15
38.95,14.16
39.34,14.16
39.74,14.15
40.14,14.15
40.54,14.12
40.94,14.12
41.35,14.10
41.76,14.07
42.18,14.05
42.60,14.02
43.03,14.00
43.46,13.97
43.90,13.94
44.33,13.89
44.78,13.86
45.23,13.83
45.68,13.79
46.13,13.76
46.60,13.72
47.06,13.69
47.53,13.65
48.01,13.60
48.49,13.57
48.97,13.52
49.46,13.48
49.96,13.44
50.46,13.38
50.96,13.35
51.47,13.30
51.99,13.26
52.51,13.22
53.03,13.16
53.56,13.12
54.10,13.08
54.64,13.02
55.18,12.98
55.74,12.92
56.29,12.88
56.86,12.84
57.42,12.81
58.00,12.77
58.58,12.74
59.16,12.69
59.76,12.65
60.35,12.60
60.96,12.57
61.57,12.51
62.18,12.45
62.80,12.42
63.43,12.37
64.07,12.33
64.71,12.29
65.35,12.24
66.01,12.20
66.67,12.17
67.33,12.12
68.01,12.08
68.69,12.04
69.37,11.99
70.07,11.96
70.77,11.92
71.48,11.89
72.19,11.85
72.91,11.82
73.64,11.78
74.38,11.73
75.12,11.70
75.87,11.68
76.63,11.65
77.40,11.62
78.17,11.60
78.95,11.57
79.74,11.56
80.54,11.53
81.35,11.51
82.16,11.49
82.98,11.47
83.81,11.44
84.65,11.42
85.50,11.40
86.35,11.37
87.22,11.34
88.09,11.33
88.97,11.29
89.86,11.27
90.76,11.23
91.66,11.21
92.58,11.18
93.51,11.14
94.44,11.11
95.39,11.07
96.34,11.04
97.30,11.00
98.28,10.97
99.26,10.93
100.25,10.91
101.25,10.86
102.27,10.84
103.29,10.81
104.32,10.78
105.37,10.75
106.42,10.71
107.48,10.67
108.56,10.64
109.64,10.60
110.74,10.55
111.85,10.52
112.97,10.47
114.10,10.42
115.24,10.35
116.39,10.32
117.55,10.26
118.73,10.21
119.92,10.17
121.12,10.13
122.33,10.10
123.55,10.06
124.79,10.02
126.03,9.98
127.29,9.94
128.57,9.90
129.85,9.84
131.15,9.78
132.46,9.71
133.79,9.64
135.12,9.58
136.48,9.50
137.84,9.43
139.22,9.35
140.61,9.27
142.02,9.20
143.44,9.12
144.87,9.04
146.32,8.96
147.78,8.88
149.26,8.81
150.75,8.73
152.26,8.68
153.78,8.62
155.32,8.57
156.88,8.51
158.44,8.45
160.03,8.40
161.63,8.34
163.24,8.29
164.88,8.25
166.53,8.19
168.19,8.13
169.87,8.09
171.57,8.03
173.29,7.99
175.02,7.95
176.77,7.91
178.54,7.88
180.32,7.84
182.13,7.81
183.95,7.78
185.79,7.75
187.65,7.72
189.52,7.69
191.42,7.65
193.33,7.62
195.27,7.59
197.22,7.56
199.19,7.51
201.18,7.49
203.19,7.47
205.23,7.44
207.28,7.41
209.35,7.38
211.44,7.36
213.56,7.34
215.69,7.31
217.85,7.28
220.03,7.24
222.23,7.21
224.45,7.17
226.70,7.13
228.96,7.10
231.25,7.06
233.57,7.03
235.90,6.99
238.26,6.95
240.64,6.92
243.05,6.89
245.48,6.84
247.93,6.80
250.41,6.77
252.92,6.74
255.45,6.70
258.00,6.67
260.58,6.64
263.19,6.61
265.82,6.58
268.48,6.54
271.16,6.52
273.87,6.47
276.61,6.45
279.38,6.40
282.17,6.38
284.99,6.35
287.84,6.31
290.72,6.29
293.63,6.25
296.57,6.22
299.53,6.19
302.53,6.15
305.55,6.12
308.61,6.08
311.69,6.04
314.81,6.02
317.96,5.99
321.14,5.96
324.35,5.93
327.59,5.90
330.87,5.88
334.18,5.86
337.52,5.82
340.90,5.80
344.30,5.75
347.75,5.73
351.23,5.71
354.74,5.67
358.28,5.63
361.87,5.61
365.49,5.57
369.14,5.53
372.83,5.51
376.56,5.47
380.33,5.43
384.13,5.40
387.97,5.35
391.85,5.31
395.77,5.27
399.73,5.22
403.72,5.16
407.76,5.11
411.84,5.06
415.96,5.01
420.12,4.94
424.32,4.89
428.56,4.83
432.85,4.76
437.18,4.69
441.55,4.63
445.96,4.57
450.42,4.49
454.93,4.41
459.48,4.35
464.07,4.27
468.71,4.19
473.40,4.11
478.13,4.03
482.91,3.96
487.74,3.87
492.62,3.78
497.55,3.69
502.52,3.60
507.55,3.51
512.62,3.41
517.75,3.32
522.93,3.21
528.16,3.11
533.44,3.01
538.77,2.91
544.16,2.80
549.60,2.68
555.10,2.58
560.65,2.47
566.25,2.35
571.92,2.24
577.64,2.13
583.41,2.02
589.25,1.93
595.14,1.82
601.09,1.74
607.10,1.65
613.17,1.55
619.30,1.48
625.50,1.40
631.75,1.33
638.07,1.24
644.45,1.16
650.89,1.09
657.40,1.00
663.98,0.91
670.62,0.84
677.32,0.75
684.10,0.66
690.94,0.58
697.85,0.47
704.83,0.37
711.87,0.26
718.99,0.15
726.18,0.03
733.44,-0.09
740.78,-0.21
748.19,-0.34
755.67,-0.47
763.23,-0.60
770.86,-0.72
778.57,-0.85
786.35,-0.97
794.22,-1.10
802.16,-1.21
810.18,-1.31
818.28,-1.41
826.46,-1.46
834.73,-1.52
843.08,-1.56
851.51,-1.59
860.02,-1.58
868.62,-1.57
877.31,-1.55
886.08,-1.49
894.94,-1.44
903.89,-1.36
912.93,-1.27
922.06,-1.16
931.28,-1.05
940.59,-0.93
950.00,-0.81
959.50,-0.68
969.09,-0.56
978.78,-0.44
988.57,-0.32
998.46,-0.18
1008.44,-0.05
1018.53,0.08
1028.71,0.21
1039.00,0.33
1049.39,0.46
1059.88,0.60
1070.48,0.72
1081.19,0.85
1092.00,0.99
1102.92,1.11
1113.95,1.26
1125.09,1.39
1136.34,1.54
1147.70,1.69
1159.18,1.83
1170.77,1.98
1182.48,2.12
1194.30,2.25
1206.25,2.40
1218.31,2.54
1230.49,2.68
1242.80,2.84
1255.22,3.00
1267.78,3.16
1280.45,3.33
1293.26,3.49
1306.19,3.65
1319.25,3.82
1332.45,3.99
1345.77,4.16
1359.23,4.34
1372.82,4.51
1386.55,4.69
1400.41,4.87
1414.42,5.03
1428.56,5.21
1442.85,5.37
1457.28,5.57
1471.85,5.75
1486.57,5.93
1501.43,6.13
1516.45,6.34
1531.61,6.56
1546.93,6.78
1562.40,7.00
1578.02,7.22
1593.80,7.43
1609.74,7.66
1625.84,7.90
1642.10,8.12
1658.52,8.34
1675.10,8.55
1691.85,8.77
1708.77,8.97
1725.86,9.17
1743.12,9.36
1760.55,9.53
1778.15,9.70
1795.94,9.85
1813.90,10.01
1832.03,10.14
1850.36,10.27
1868.86,10.40
1887.55,10.51
1906.42,10.62
1925.49,10.72
1944.74,10.81
1964.19,10.89
1983.83,10.97
2003.67,11.05
2023.71,11.12
2043.94,11.19
2064.38,11.24
2085.03,11.30
2105.88,11.37
2126.94,11.42
2148.20,11.47
2169.69,11.52
2191.38,11.58
2213.30,11.64
2235.43,11.71
2257.78,11.77
2280.36,11.82
2303.17,11.87
2326.20,11.90
2349.46,11.95
2372.95,11.98
2396.68,12.01
2420.65,12.02
2444.86,12.06
2469.31,12.10
2494.00,12.15
2518.94,12.19
2544.13,12.25
2569.57,12.30
2595.27,12.33
2621.22,12.35
2647.43,12.37
2673.90,12.38
2700.64,12.40
2727.65,12.41
2754.93,12.43
2782.48,12.46
2810.30,12.45
2838.40,12.45
2866.79,12.44
2895.46,12.42
2924.41,12.41
2953.65,12.39
2983.19,12.39
3013.02,12.36
3043.15,12.36
3073.58,12.35
3104.32,12.35
3135.36,12.33
3166.72,12.35
3198.38,12.35
3230.37,12.35
3262.67,12.37
3295.30,12.39
3328.25,12.44
3361.53,12.47
3395.15,12.52
3429.10,12.58
3463.39,12.64
3498.03,12.71
3533.01,12.79
3568.34,12.89
3604.02,12.98
3640.06,13.09
3676.46,13.21
3713.22,13.33
3750.36,13.47
3787.86,13.62
3825.74,13.76
3864.00,13.89
3902.64,14.02
3941.66,14.12
3981.08,14.20
4020.89,14.25
4061.10,14.28
4101.71,14.27
4142.73,14.25
4184.15,14.20
4226.00,14.10
4268.26,13.98
4310.94,13.85
4354.05,13.67
4397.59,13.45
4441.56,13.20
4485.98,12.92
4530.84,12.60
4576.15,12.26
4621.91,11.91
4668.13,11.54
4714.81,11.18
4761.96,10.80
4809.58,10.42
4857.67,10.05
4906.25,9.69
4955.31,9.35
5004.87,9.04
5054.91,8.73
5105.46,8.47
5156.52,8.22
5208.08,7.98
5260.16,7.77
5312.77,7.58
5365.89,7.42
5419.55,7.29
5473.75,7.18
5528.49,7.11
5583.77,7.07
5639.61,7.08
5696.00,7.15
5752.96,7.26
5810.49,7.40
5868.60,7.62
5927.28,7.87
5986.56,8.18
6046.42,8.55
6106.89,8.96
6167.96,9.43
6229.64,9.97
6291.93,10.50
6354.85,11.06
6418.40,11.58
6482.58,12.03
6547.41,12.41
6612.88,12.57
6679.01,12.60
6745.80,12.49
6813.26,12.15
6881.39,11.69
6950.21,11.14
7019.71,10.48
7089.91,9.78
7160.81,9.09
7232.41,8.38
7304.74,7.78
7377.79,7.23
7451.56,6.73
7526.08,6.37
7601.34,6.05
7677.35,5.78
7754.13,5.56
7831.67,5.33
7909.98,5.10
7989.08,4.80
8068.98,4.43
8149.67,4.00
8231.16,3.52
8313.47,2.98
8396.61,2.44
8480.57,1.89
8565.38,1.38
8651.03,0.91
8737.54,0.49
8824.92,0.17
8913.17,-0.09
9002.30,-0.32
9092.32,-0.58
9183.25,-0.88
9275.08,-1.20
9367.83,-1.61
9461.51,-2.09
9556.12,-2.65
9651.68,-3.30
9748.20,-4.09
9845.68,-4.93
9944.14,-5.82
10043.58,-6.75
10144.02,-7.64
10245.46,-8.50
10347.91,-9.27
10451.39,-10.00
10555.91,-10.70
10661.46,-11.30
10768.08,-11.85
10875.76,-12.36
10984.52,-12.88
11094.36,-13.50
11205.31,-14.14
11317.36,-14.82
11430.53,-15.48
11544.84,-16.16
11660.29,-16.81
11776.89,-17.42
11894.66,-17.97
12013.60,-18.45
12133.74,-18.84
12255.08,-19.15
12377.63,-19.40
12501.41,-19.55
12626.42,-19.60
12752.68,-19.59
12880.21,-19.45
13009.01,-19.19
13139.10,-18.79
13270.49,-18.23
13403.20,-17.33
13537.23,-16.25
13672.60,-15.04
13809.33,-13.69
13947.42,-12.42
14086.90,-11.24
14227.77,-10.39
14370.04,-9.95
14513.74,-9.90
14658.88,-10.40
14805.47,-11.45
14953.52,-12.83
15103.06,-14.57
15254.09,-16.57
15406.63,-18.64
15560.70,-20.77
15716.30,-22.83
15873.47,-24.84
16032.20,-26.79
16192.52,-28.63
16354.45,-30.33
16517.99,-31.90
16683.17,-33.17
16850.01,-34.15
17018.51,-34.88
17188.69,-35.27
17360.58,-35.31
17534.18,-35.16
17709.53,-34.80
17886.62,-34.48
18065.49,-34.13
18246.14,-33.88
18428.60,-33.77
18612.89,-33.65
18799.02,-33.51
18987.01,-33.39
19176.88,-33.22
19368.65,-32.89
19562.33,-32.03
19757.96,-31.25
19955.54,-30.69
