frequency,raw,error,smoothed,error_smoothed,equalization,parametric_eq,fixed_band_eq,equalized_raw,equalized_smoothed,target
20.00,9.83,2.81,9.83,2.81,-2.82,-6.52,-3.26,7.01,7.01,7.01
20.20,9.92,2.87,9.92,2.87,-2.87,-6.53,-3.35,7.05,7.05,7.05
20.40,10.02,2.93,10.01,2.93,-2.93,-6.53,-3.44,7.09,7.09,7.09
20.61,10.11,2.99,10.11,2.99,-2.98,-6.54,-3.54,7.12,7.12,7.11
20.81,10.21,3.06,10.20,3.05,-3.05,-6.54,-3.64,7.16,7.16,7.15
21.02,10.30,3.11,10.30,3.12,-3.12,-6.55,-3.74,7.18,7.18,7.19
21.23,10.40,3.19,10.40,3.19,-3.19,-6.56,-3.84,7.21,7.21,7.21
21.44,10.50,3.27,10.49,3.26,-3.26,-6.56,-3.95,7.23,7.23,7.23
21.66,10.59,3.34,10.59,3.34,-3.34,-6.57,-4.06,7.24,7.25,7.25
21.87,10.69,3.43,10.69,3.42,-3.43,-6.58,-4.18,7.26,7.26,7.26
22.09,10.79,3.51,10.79,3.51,-3.52,-6.58,-4.29,7.27,7.27,7.28
22.31,10.90,3.61,10.89,3.61,-3.61,-6.59,-4.41,7.29,7.28,7.29
22.54,11.00,3.71,11.00,3.71,-3.71,-6.60,-4.54,7.29,7.29,7.29
22.76,11.10,3.80,11.10,3.81,-3.80,-6.60,-4.66,7.30,7.30,7.30
22.99,11.21,3.91,11.20,3.90,-3.90,-6.61,-4.79,7.31,7.31,7.30
23.22,11.31,4.00,11.31,4.00,-4.00,-6.62,-4.92,7.31,7.31,7.31
23.45,11.42,4.10,11.41,4.10,-4.09,-6.63,-5.06,7.33,7.32,7.32
23.69,11.52,4.19,11.52,4.19,-4.19,-6.64,-5.20,7.33,7.33,7.33
23.92,11.63,4.28,11.63,4.28,-4.29,-6.65,-5.34,7.34,7.34,7.35
24.16,11.74,4.37,11.74,4.38,-4.38,-6.66,-5.48,7.36,7.36,7.37
24.40,11.85,4.47,11.85,4.48,-4.48,-6.67,-5.63,7.37,7.37,7.37
24.65,11.96,4.58,11.96,4.58,-4.58,-6.68,-5.78,7.38,7.38,7.37
24.89,12.07,4.68,12.07,4.68,-4.68,-6.69,-5.93,7.39,7.39,7.39
25.14,12.19,4.79,12.19,4.78,-4.78,-6.71,-6.08,7.40,7.40,7.40
25.39,12.30,4.89,12.30,4.89,-4.89,-6.72,-6.24,7.41,7.41,7.41
25.65,12.42,5.00,12.42,5.00,-5.00,-6.73,-6.39,7.42,7.42,7.42
25.91,12.54,5.10,12.54,5.11,-5.10,-6.75,-6.55,7.43,7.43,7.43
26.16,12.66,5.22,12.66,5.22,-5.21,-6.77,-6.71,7.45,7.44,7.44
26.43,12.78,5.33,12.78,5.32,-5.32,-6.78,-6.86,7.45,7.45,7.45
26.69,12.90,5.43,12.90,5.43,-5.43,-6.80,-7.02,7.47,7.47,7.47
26.96,13.02,5.54,13.02,5.54,-5.54,-6.82,-7.18,7.47,7.48,7.48
27.23,13.15,5.66,13.14,5.65,-5.66,-6.84,-7.33,7.49,7.49,7.49
27.50,13.27,5.76,13.27,5.77,-5.77,-6.86,-7.48,7.50,7.50,7.51
27.77,13.40,5.89,13.40,5.89,-5.89,-6.88,-7.62,7.51,7.51,7.51
28.05,13.52,5.99,13.52,6.00,-6.00,-6.91,-7.76,7.51,7.52,7.52
28.33,13.66,6.13,13.65,6.13,-6.12,-6.94,-7.90,7.54,7.53,7.52
28.62,13.79,6.24,13.79,6.25,-6.24,-6.96,-8.03,7.54,7.55,7.54
28.90,13.92,6.37,13.92,6.37,-6.36,-6.99,-8.14,7.56,7.56,7.55
29.19,14.06,6.50,14.05,6.49,-6.49,-7.03,-8.26,7.57,7.57,7.56
29.48,14.19,6.61,14.19,6.61,-6.62,-7.06,-8.36,7.57,7.57,7.58
29.78,14.33,6.74,14.33,6.74,-6.75,-7.10,-8.45,7.58,7.58,7.59
30.08,14.47,6.87,14.47,6.88,-6.89,-7.14,-8.53,7.58,7.59,7.60
30.38,14.63,7.03,14.63,7.03,-7.03,-7.19,-8.60,7.61,7.60,7.61
30.68,14.80,7.18,14.79,7.18,-7.18,-7.24,-8.65,7.62,7.61,7.61
30.99,14.96,7.33,14.96,7.34,-7.33,-7.29,-8.70,7.62,7.63,7.62
31.30,15.13,7.49,15.13,7.49,-7.49,-7.35,-8.72,7.63,7.63,7.63
31.61,15.31,7.66,15.30,7.66,-7.66,-7.42,-8.74,7.65,7.64,7.65
31.93,15.47,7.83,15.48,7.83,-7.83,-7.49,-8.74,7.65,7.65,7.65
32.24,15.66,8.00,15.65,7.99,-7.99,-7.56,-8.73,7.67,7.66,7.66
32.57,15.83,8.16,15.83,8.16,-8.16,-7.65,-8.70,7.66,7.67,7.67
32.89,16.01,8.33,16.01,8.33,-8.33,-7.74,-8.67,7.68,7.68,7.68
33.22,16.19,8.51,16.19,8.50,-8.50,-7.85,-8.62,7.69,7.69,7.68
33.55,16.37,8.67,16.37,8.67,-8.67,-7.96,-8.57,7.70,7.70,7.70
33.89,16.54,8.84,16.54,8.84,-8.84,-8.09,-8.50,7.70,7.70,7.70
34.23,16.71,8.99,16.71,9.00,-9.00,-8.22,-8.43,7.71,7.71,7.72
34.57,16.88,9.16,16.87,9.16,-9.16,-8.37,-8.35,7.72,7.71,7.71
34.92,17.04,9.31,17.03,9.31,-9.31,-8.53,-8.27,7.72,7.72,7.72
35.27,17.19,9.46,17.19,9.46,-9.46,-8.71,-8.18,7.72,7.73,7.73
35.62,17.33,9.60,17.33,9.60,-9.60,-8.89,-8.08,7.72,7.73,7.73
35.97,17.48,9.75,17.47,9.73,-9.73,-9.09,-7.98,7.75,7.74,7.73
36.33,17.59,9.85,17.59,9.85,-9.85,-9.30,-7.89,7.74,7.74,7.74
36.70,17.69,9.95,17.69,9.96,-9.96,-9.52,-7.78,7.73,7.74,7.74
37.06,17.79,10.06,17.78,10.04,-10.05,-9.73,-7.68,7.74,7.73,7.73
37.43,17.85,10.11,17.86,10.13,-10.12,-9.93,-7.58,7.73,7.74,7.74
37.81,17.92,10.18,17.91,10.18,-10.18,-10.12,-7.48,7.74,7.74,7.73
38.19,17.96,10.23,17.95,10.22,-10.22,-10.28,-7.38,7.74,7.73,7.73
38.57,17.97,10.23,17.97,10.24,-10.24,-10.40,-7.28,7.73,7.73,7.74
38.95,17.98,10.25,17.97,10.25,-10.24,-10.46,-7.19,7.73,7.73,7.72
39.34,17.95,10.23,17.95,10.23,-10.23,-10.49,-7.10,7.72,7.72,7.72
39.74,17.91,10.20,17.91,10.20,-10.19,-10.44,-7.01,7.72,7.72,7.71
40.14,17.85,10.13,17.85,10.14,-10.13,-10.35,-6.93,7.71,7.71,7.71
40.54,17.77,10.07,17.77,10.06,-10.06,-10.21,-6.84,7.71,7.71,7.70
40.94,17.68,9.97,17.67,9.97,-9.97,-10.04,-6.77,7.71,7.70,7.71
41.35,17.56,9.85,17.56,9.86,-9.86,-9.83,-6.69,7.70,7.70,7.70
41.76,17.44,9.74,17.44,9.74,-9.74,-9.62,-6.62,7.70,7.70,7.70
42.18,17.31,9.60,17.30,9.60,-9.60,-9.39,-6.56,7.70,7.70,7.70
42.60,17.16,9.46,17.16,9.46,-9.46,-9.17,-6.50,7.70,7.70,7.70
43.03,17.01,9.30,17.00,9.30,-9.30,-8.95,-6.45,7.70,7.70,7.70
43.46,16.84,9.14,16.84,9.14,-9.14,-8.75,-6.40,7.69,7.70,7.70
43.90,16.67,8.97,16.67,8.97,-8.98,-8.55,-6.35,7.69,7.69,7.70
44.33,16.50,8.81,16.50,8.81,-8.81,-8.37,-6.31,7.69,7.69,7.69
44.78,16.33,8.64,16.32,8.64,-8.63,-8.20,-6.27,7.70,7.69,7.69
45.23,16.15,8.46,16.15,8.46,-8.46,-8.04,-6.24,7.69,7.69,7.69
45.68,15.97,8.28,15.97,8.28,-8.28,-7.89,-6.21,7.69,7.69,7.68
46.13,15.80,8.11,15.80,8.11,-8.11,-7.75,-6.19,7.69,7.69,7.69
46.60,15.64,7.94,15.64,7.94,-7.94,-7.63,-6.17,7.70,7.69,7.70
47.06,15.48,7.78,15.48,7.78,-7.78,-7.51,-6.16,7.69,7.70,7.70
47.53,15.33,7.63,15.33,7.62,-7.63,-7.40,-6.15,7.70,7.70,7.70
48.01,15.18,7.46,15.18,7.47,-7.48,-7.29,-6.15,7.70,7.70,7.71
48.49,15.04,7.33,15.04,7.33,-7.35,-7.19,-6.15,7.69,7.69,7.71
48.97,14.91,7.22,14.91,7.21,-7.22,-7.09,-6.15,7.69,7.69,7.69
49.46,14.78,7.09,14.78,7.10,-7.09,-7.00,-6.15,7.68,7.69,7.68
49.96,14.66,6.99,14.66,6.98,-6.98,-6.91,-6.16,7.68,7.68,7.66
50.46,14.54,6.86,14.54,6.87,-6.86,-6.82,-6.18,7.67,7.67,7.68
50.96,14.42,6.75,14.42,6.76,-6.76,-6.73,-6.19,7.66,7.66,7.67
51.47,14.31,6.66,14.30,6.65,-6.65,-6.65,-6.21,7.66,7.65,7.65
51.99,14.19,6.54,14.19,6.54,-6.55,-6.56,-6.23,7.64,7.65,7.65
52.51,14.09,6.44,14.09,6.44,-6.44,-6.47,-6.25,7.64,7.64,7.65
53.03,13.98,6.33,13.98,6.34,-6.34,-6.38,-6.28,7.64,7.64,7.64
53.56,13.87,6.23,13.87,6.24,-6.23,-6.28,-6.30,7.64,7.64,7.63
54.10,13.75,6.14,13.75,6.13,-6.12,-6.18,-6.32,7.63,7.62,7.61
54.64,13.62,6.02,13.62,6.02,-6.00,-6.07,-6.35,7.61,7.61,7.60
55.18,13.48,5.88,13.48,5.89,-5.88,-5.96,-6.37,7.59,7.60,7.59
55.74,13.34,5.77,13.34,5.76,-5.76,-5.84,-6.40,7.58,7.58,7.57
56.29,13.19,5.62,13.18,5.62,-5.62,-5.72,-6.42,7.56,7.56,7.57
56.86,13.03,5.48,13.03,5.48,-5.48,-5.59,-6.44,7.55,7.55,7.55
57.42,12.87,5.34,12.87,5.34,-5.34,-5.45,-6.46,7.53,7.53,7.53
58.00,12.71,5.20,12.71,5.20,-5.19,-5.30,-6.47,7.52,7.52,7.51
58.58,12.55,5.05,12.55,5.05,-5.04,-5.15,-6.48,7.51,7.50,7.50
59.16,12.39,4.90,12.39,4.90,-4.90,-5.00,-6.49,7.49,7.49,7.49
59.76,12.23,4.76,12.23,4.76,-4.76,-4.85,-6.50,7.47,7.47,7.47
60.35,12.07,4.62,12.07,4.62,-4.63,-4.70,-6.49,7.44,7.44,7.45
60.96,11.92,4.49,11.92,4.50,-4.50,-4.57,-6.49,7.42,7.42,7.42
61.57,11.78,4.39,11.78,4.38,-4.39,-4.46,-6.48,7.39,7.39,7.39
62.18,11.65,4.28,11.65,4.29,-4.29,-4.38,-6.46,7.36,7.36,7.36
62.80,11.54,4.20,11.54,4.20,-4.20,-4.31,-6.44,7.34,7.34,7.34
63.43,11.45,4.14,11.44,4.13,-4.13,-4.29,-6.41,7.32,7.31,7.31
64.07,11.37,4.08,11.37,4.08,-4.08,-4.30,-6.38,7.29,7.29,7.28
64.71,11.31,4.04,11.31,4.04,-4.05,-4.34,-6.34,7.26,7.26,7.27
65.35,11.27,4.03,11.27,4.03,-4.04,-4.40,-6.30,7.22,7.23,7.24
66.01,11.26,4.04,11.26,4.04,-4.06,-4.48,-6.25,7.20,7.20,7.22
66.67,11.28,4.09,11.28,4.09,-4.10,-4.58,-6.20,7.18,7.18,7.19
67.33,11.32,4.16,11.32,4.15,-4.16,-4.68,-6.14,7.16,7.16,7.16
68.01,11.38,4.24,11.38,4.25,-4.24,-4.79,-6.08,7.13,7.14,7.14
68.69,11.47,4.36,11.46,4.35,-4.35,-4.89,-6.02,7.12,7.11,7.11
69.37,11.57,4.48,11.56,4.47,-4.48,-4.99,-5.96,7.09,7.08,7.09
70.07,11.67,4.60,11.68,4.61,-4.62,-5.08,-5.89,7.05,7.06,7.07
70.77,11.81,4.76,11.81,4.76,-4.78,-5.16,-5.82,7.03,7.03,7.04
71.48,11.96,4.94,11.95,4.93,-4.94,-5.23,-5.75,7.02,7.01,7.02
72.19,12.11,5.11,12.11,5.11,-5.11,-5.30,-5.67,7.00,7.00,7.00
72.91,12.27,5.29,12.26,5.29,-5.28,-5.35,-5.60,6.99,6.99,6.97
73.64,12.42,5.47,12.41,5.46,-5.45,-5.40,-5.53,6.97,6.96,6.95
74.38,12.56,5.62,12.56,5.63,-5.62,-5.44,-5.46,6.94,6.94,6.93
75.12,12.70,5.78,12.70,5.78,-5.78,-5.47,-5.38,6.92,6.92,6.92
75.87,12.84,5.93,12.84,5.93,-5.93,-5.50,-5.31,6.90,6.90,6.91
76.63,12.97,6.07,12.97,6.07,-6.07,-5.52,-5.24,6.90,6.89,6.90
77.40,13.09,6.20,13.09,6.20,-6.20,-5.54,-5.18,6.89,6.89,6.89
78.17,13.20,6.33,13.20,6.32,-6.31,-5.55,-5.11,6.89,6.88,6.87
78.95,13.29,6.42,13.29,6.42,-6.41,-5.56,-5.05,6.88,6.88,6.87
79.74,13.36,6.50,13.36,6.50,-6.49,-5.56,-4.99,6.86,6.87,6.86
80.54,13.42,6.56,13.41,6.56,-6.56,-5.56,-4.93,6.86,6.85,6.85
81.35,13.45,6.60,13.45,6.61,-6.61,-5.56,-4.87,6.84,6.85,6.84
82.16,13.48,6.65,13.48,6.64,-6.64,-5.55,-4.82,6.84,6.84,6.83
82.98,13.49,6.66,13.48,6.66,-6.66,-5.54,-4.77,6.83,6.83,6.83
83.81,13.47,6.66,13.47,6.66,-6.66,-5.53,-4.72,6.81,6.82,6.81
84.65,13.45,6.64,13.45,6.64,-6.64,-5.52,-4.68,6.80,6.81,6.81
85.50,13.42,6.61,13.42,6.62,-6.62,-5.50,-4.64,6.80,6.80,6.80
86.35,13.38,6.59,13.37,6.58,-6.58,-5.48,-4.60,6.80,6.79,6.79
87.22,13.31,6.52,13.31,6.53,-6.53,-5.46,-4.57,6.78,6.78,6.79
88.09,13.25,6.47,13.24,6.47,-6.47,-5.44,-4.54,6.78,6.78,6.77
88.97,13.17,6.39,13.17,6.40,-6.40,-5.42,-4.51,6.77,6.77,6.78
89.86,13.08,6.31,13.08,6.32,-6.31,-5.40,-4.48,6.76,6.77,6.76
90.76,12.99,6.24,12.98,6.22,-6.22,-5.37,-4.47,6.77,6.76,6.75
91.66,12.87,6.11,12.87,6.12,-6.12,-5.35,-4.45,6.75,6.75,6.75
92.58,12.75,6.01,12.75,6.01,-6.01,-5.32,-4.43,6.74,6.74,6.74
93.51,12.63,5.89,12.63,5.89,-5.89,-5.29,-4.42,6.74,6.73,6.74
94.44,12.50,5.76,12.50,5.76,-5.76,-5.26,-4.42,6.73,6.73,6.73
95.39,12.36,5.63,12.36,5.63,-5.63,-5.23,-4.41,6.73,6.73,6.73
96.34,12.21,5.51,12.21,5.50,-5.49,-5.20,-4.41,6.72,6.72,6.70
97.30,12.06,5.36,12.06,5.37,-5.35,-5.17,-4.41,6.71,6.71,6.69
98.28,11.91,5.22,11.90,5.22,-5.21,-5.14,-4.42,6.69,6.69,6.68
99.26,11.75,5.08,11.75,5.08,-5.08,-5.11,-4.42,6.66,6.66,6.67
100.25,11.60,4.94,11.59,4.93,-4.96,-5.08,-4.43,6.63,6.63,6.66
101.25,11.45,4.81,11.45,4.82,-4.85,-5.04,-4.44,6.60,6.61,6.64
102.27,11.33,4.71,11.35,4.72,-4.74,-5.01,-4.46,6.59,6.61,6.62
103.29,11.27,4.67,11.25,4.65,-4.64,-4.98,-4.47,6.62,6.61,6.59
104.32,11.18,4.59,11.17,4.59,-4.56,-4.94,-4.49,6.62,6.61,6.59
105.37,11.07,4.51,11.07,4.51,-4.49,-4.91,-4.50,6.58,6.58,6.56
106.42,10.96,4.42,10.96,4.43,-4.42,-4.87,-4.52,6.53,6.54,6.54
107.48,10.87,4.36,10.87,4.36,-4.37,-4.84,-4.54,6.50,6.50,6.51
108.56,10.79,4.31,10.79,4.31,-4.32,-4.81,-4.56,6.46,6.46,6.47
109.64,10.73,4.28,10.73,4.28,-4.29,-4.77,-4.58,6.44,6.44,6.44
110.74,10.67,4.26,10.67,4.26,-4.26,-4.74,-4.60,6.41,6.41,6.41
111.85,10.63,4.25,10.62,4.25,-4.25,-4.70,-4.62,6.38,6.38,6.38
112.97,10.58,4.25,10.58,4.25,-4.25,-4.67,-4.63,6.33,6.33,6.33
114.10,10.56,4.26,10.56,4.26,-4.26,-4.63,-4.65,6.29,6.29,6.29
115.24,10.54,4.28,10.54,4.29,-4.29,-4.60,-4.66,6.25,6.25,6.26
116.39,10.54,4.33,10.53,4.32,-4.33,-4.57,-4.67,6.21,6.20,6.21
117.55,10.54,4.37,10.54,4.37,-4.38,-4.53,-4.68,6.16,6.16,6.17
118.73,10.55,4.42,10.56,4.43,-4.44,-4.50,-4.69,6.11,6.12,6.13
119.92,10.59,4.50,10.59,4.50,-4.50,-4.47,-4.69,6.08,6.08,6.09
121.12,10.64,4.58,10.63,4.58,-4.57,-4.44,-4.70,6.06,6.06,6.05
122.33,10.67,4.65,10.67,4.65,-4.64,-4.41,-4.69,6.03,6.03,6.02
123.55,10.70,4.70,10.70,4.71,-4.70,-4.37,-4.69,6.00,6.00,5.99
124.79,10.72,4.76,10.72,4.76,-4.75,-4.34,-4.68,5.96,5.96,5.96
126.03,10.73,4.80,10.73,4.80,-4.80,-4.31,-4.67,5.93,5.93,5.92
127.29,10.72,4.83,10.72,4.83,-4.82,-4.28,-4.65,5.89,5.90,5.89
128.57,10.70,4.85,10.69,4.84,-4.83,-4.25,-4.63,5.87,5.86,5.85
129.85,10.66,4.83,10.65,4.83,-4.82,-4.22,-4.61,5.84,5.83,5.82
131.15,10.59,4.80,10.61,4.81,-4.80,-4.20,-4.58,5.79,5.81,5.79
132.46,10.55,4.78,10.53,4.76,-4.76,-4.17,-4.55,5.79,5.78,5.77
133.79,10.47,4.72,10.45,4.71,-4.71,-4.14,-4.52,5.76,5.75,5.75
135.12,10.34,4.62,10.36,4.64,-4.64,-4.11,-4.49,5.70,5.72,5.72
136.48,10.27,4.57,10.25,4.56,-4.57,-4.09,-4.45,5.70,5.69,5.70
137.84,10.15,4.47,10.16,4.49,-4.49,-4.06,-4.41,5.66,5.67,5.68
139.22,10.07,4.43,10.06,4.41,-4.41,-4.04,-4.37,5.66,5.65,5.64
140.61,9.97,4.35,9.95,4.33,-4.33,-4.01,-4.33,5.63,5.62,5.62
142.02,9.83,4.22,9.85,4.25,-4.26,-3.99,-4.29,5.57,5.60,5.61
143.44,9.77,4.18,9.75,4.17,-4.18,-3.96,-4.24,5.58,5.57,5.58
144.87,9.66,4.10,9.66,4.10,-4.11,-3.94,-4.20,5.54,5.55,5.56
146.32,9.59,4.06,9.59,4.05,-4.05,-3.92,-4.16,5.54,5.54,5.53
147.78,9.50,3.98,9.50,3.98,-3.98,-3.89,-4.11,5.52,5.52,5.52
149.26,9.42,3.93,9.41,3.93,-3.91,-3.87,-4.07,5.50,5.50,5.49
150.75,9.31,3.85,9.31,3.86,-3.85,-3.85,-4.03,5.46,5.47,5.46
152.26,9.23,3.81,9.22,3.80,-3.79,-3.83,-3.99,5.44,5.43,5.42
153.78,9.12,3.72,9.12,3.73,-3.73,-3.81,-3.95,5.39,5.40,5.40
155.32,9.04,3.67,9.03,3.66,-3.67,-3.79,-3.91,5.37,5.36,5.36
156.88,8.94,3.60,8.94,3.61,-3.62,-3.77,-3.87,5.32,5.33,5.34
158.44,8.88,3.57,8.87,3.56,-3.58,-3.75,-3.84,5.30,5.29,5.31
160.03,8.80,3.53,8.80,3.53,-3.54,-3.73,-3.81,5.26,5.26,5.27
161.63,8.75,3.51,8.75,3.51,-3.52,-3.71,-3.78,5.23,5.23,5.24
163.24,8.71,3.51,8.70,3.49,-3.50,-3.70,-3.75,5.21,5.20,5.20
164.88,8.65,3.47,8.66,3.49,-3.49,-3.68,-3.73,5.16,5.17,5.18
166.53,8.63,3.49,8.62,3.48,-3.48,-3.66,-3.70,5.15,5.14,5.14
168.19,8.60,3.49,8.59,3.48,-3.48,-3.64,-3.68,5.12,5.11,5.11
169.87,8.55,3.48,8.55,3.48,-3.48,-3.63,-3.67,5.07,5.08,5.07
171.57,8.51,3.47,8.51,3.47,-3.47,-3.61,-3.65,5.03,5.03,5.03
173.29,8.47,3.48,8.46,3.47,-3.47,-3.59,-3.64,5.00,4.99,4.99
175.02,8.40,3.45,8.41,3.46,-3.47,-3.57,-3.63,4.93,4.94,4.95
176.77,8.36,3.45,8.35,3.45,-3.46,-3.56,-3.63,4.90,4.90,4.90
178.54,8.30,3.45,8.30,3.45,-3.44,-3.54,-3.63,4.85,4.86,4.85
180.32,8.25,3.44,8.24,3.44,-3.42,-3.52,-3.62,4.82,4.82,4.80
182.13,8.18,3.42,8.16,3.41,-3.40,-3.51,-3.63,4.78,4.76,4.76
183.95,8.07,3.36,8.08,3.37,-3.37,-3.49,-3.63,4.69,4.71,4.70
185.79,7.99,3.33,7.99,3.33,-3.34,-3.48,-3.64,4.65,4.65,4.66
187.65,7.91,3.30,7.91,3.30,-3.30,-3.46,-3.65,4.61,4.60,4.61
189.52,7.83,3.26,7.83,3.26,-3.26,-3.44,-3.66,4.57,4.57,4.56
191.42,7.75,3.23,7.74,3.22,-3.22,-3.42,-3.68,4.53,4.52,4.52
193.33,7.65,3.17,7.65,3.17,-3.17,-3.41,-3.70,4.47,4.48,4.48
195.27,7.56,3.12,7.56,3.13,-3.13,-3.39,-3.72,4.43,4.43,4.44
197.22,7.48,3.09,7.47,3.09,-3.09,-3.37,-3.74,4.39,4.39,4.38
199.19,7.39,3.05,7.39,3.05,-3.04,-3.35,-3.76,4.34,4.35,4.33
201.18,7.31,3.01,7.31,3.01,-3.00,-3.34,-3.78,4.30,4.30,4.29
203.19,7.23,2.97,7.23,2.97,-2.97,-3.32,-3.81,4.26,4.26,4.26
205.23,7.16,2.94,7.16,2.93,-2.94,-3.30,-3.84,4.21,4.21,4.22
207.28,7.10,2.91,7.10,2.91,-2.93,-3.28,-3.86,4.17,4.17,4.19
209.35,7.05,2.90,7.05,2.91,-2.92,-3.26,-3.89,4.13,4.13,4.14
211.44,7.02,2.92,7.01,2.91,-2.92,-3.24,-3.92,4.10,4.10,4.09
213.56,6.99,2.92,6.99,2.92,-2.92,-3.22,-3.94,4.06,4.06,4.06
215.69,6.97,2.93,6.97,2.94,-2.94,-3.20,-3.97,4.03,4.03,4.04
217.85,6.96,2.96,6.96,2.96,-2.97,-3.17,-3.99,3.99,3.99,4.00
220.03,6.96,3.00,6.96,2.99,-2.99,-3.15,-4.01,3.96,3.96,3.96
222.23,6.96,3.03,6.96,3.02,-3.02,-3.13,-4.03,3.94,3.94,3.93
224.45,6.97,3.05,6.97,3.06,-3.05,-3.10,-4.04,3.92,3.92,3.91
226.70,6.98,3.08,6.98,3.08,-3.08,-3.08,-4.06,3.90,3.90,3.90
228.96,6.99,3.12,6.98,3.11,-3.10,-3.05,-4.06,3.89,3.88,3.87
231.25,6.99,3.12,6.99,3.13,-3.12,-3.02,-4.07,3.87,3.87,3.86
233.57,6.99,3.14,6.99,3.14,-3.14,-3.00,-4.07,3.85,3.85,3.85
235.90,6.99,3.15,6.99,3.15,-3.15,-2.97,-4.06,3.84,3.84,3.84
238.26,6.99,3.16,6.99,3.16,-3.16,-2.94,-4.05,3.83,3.83,3.82
240.64,6.99,3.16,6.99,3.16,-3.16,-2.91,-4.03,3.83,3.83,3.83
243.05,6.99,3.15,6.99,3.16,-3.16,-2.88,-4.00,3.83,3.83,3.83
245.48,6.99,3.16,6.99,3.16,-3.16,-2.84,-3.97,3.83,3.83,3.83
247.93,6.99,3.15,6.99,3.16,-3.15,-2.81,-3.93,3.83,3.83,3.83
250.41,6.99,3.16,6.99,3.15,-3.15,-2.78,-3.88,3.84,3.84,3.83
252.92,6.99,3.13,6.99,3.14,-3.14,-2.74,-3.83,3.85,3.85,3.85
255.45,6.99,3.12,6.99,3.13,-3.13,-2.70,-3.76,3.86,3.86,3.87
258.00,6.99,3.11,6.99,3.11,-3.12,-2.67,-3.69,3.87,3.87,3.87
260.58,6.99,3.11,6.99,3.11,-3.10,-2.63,-3.62,3.88,3.88,3.88
263.19,6.99,3.09,6.99,3.09,-3.09,-2.59,-3.53,3.89,3.89,3.89
265.82,6.99,3.09,6.99,3.08,-3.08,-2.54,-3.44,3.90,3.90,3.90
268.48,6.99,3.06,6.99,3.07,-3.07,-2.50,-3.35,3.91,3.92,3.93
271.16,7.00,3.05,7.00,3.06,-3.07,-2.46,-3.24,3.93,3.93,3.94
273.87,7.01,3.06,7.00,3.05,-3.06,-2.41,-3.14,3.95,3.95,3.95
276.61,7.01,3.04,7.01,3.05,-3.04,-2.36,-3.02,3.96,3.96,3.97
279.38,7.01,3.03,7.01,3.03,-3.03,-2.31,-2.90,3.98,3.98,3.97
282.17,7.00,3.01,7.00,3.01,-3.01,-2.26,-2.78,3.99,3.99,3.99
284.99,6.99,2.98,6.99,2.98,-2.99,-2.21,-2.65,4.00,4.00,4.01
287.84,6.97,2.95,6.97,2.95,-2.95,-2.15,-2.52,4.02,4.02,4.01
290.72,6.94,2.91,6.94,2.91,-2.91,-2.10,-2.39,4.03,4.03,4.03
293.63,6.90,2.86,6.90,2.86,-2.85,-2.04,-2.25,4.05,4.05,4.04
296.57,6.84,2.78,6.84,2.79,-2.78,-1.98,-2.11,4.06,4.06,4.05
299.53,6.77,2.71,6.77,2.70,-2.69,-1.92,-1.97,4.07,4.07,4.06
302.53,6.68,2.61,6.68,2.61,-2.60,-1.86,-1.82,4.08,4.08,4.07
305.55,6.58,2.49,6.57,2.49,-2.49,-1.79,-1.68,4.09,4.09,4.09
308.61,6.47,2.37,6.46,2.37,-2.37,-1.72,-1.53,4.10,4.10,4.09
311.69,6.34,2.22,6.35,2.24,-2.24,-1.65,-1.38,4.10,4.11,4.11
314.81,6.24,2.11,6.23,2.10,-2.11,-1.58,-1.23,4.13,4.12,4.13
317.96,6.11,1.97,6.11,1.97,-1.97,-1.51,-1.08,4.14,4.14,4.14
321.14,5.98,1.83,5.98,1.83,-1.83,-1.43,-0.93,4.15,4.15,4.15
324.35,5.84,1.68,5.84,1.68,-1.69,-1.35,-0.78,4.15,4.15,4.15
327.59,5.70,1.54,5.71,1.54,-1.55,-1.27,-0.62,4.15,4.16,4.16
330.87,5.58,1.41,5.57,1.40,-1.41,-1.18,-0.47,4.17,4.16,4.17
334.18,5.45,1.27,5.45,1.27,-1.27,-1.09,-0.32,4.18,4.18,4.18
337.52,5.31,1.13,5.32,1.13,-1.13,-1.00,-0.16,4.17,4.18,4.18
340.90,5.20,1.00,5.18,0.99,-1.00,-0.91,-0.01,4.20,4.19,4.20
344.30,5.05,0.85,5.05,0.86,-0.87,-0.81,0.15,4.18,4.19,4.19
347.75,4.93,0.73,4.93,0.73,-0.73,-0.71,0.30,4.20,4.20,4.20
351.23,4.80,0.60,4.80,0.60,-0.60,-0.61,0.46,4.20,4.20,4.20
354.74,4.68,0.48,4.67,0.47,-0.46,-0.50,0.62,4.22,4.21,4.20
358.28,4.53,0.32,4.53,0.33,-0.32,-0.39,0.77,4.21,4.22,4.21
361.87,4.39,0.18,4.38,0.17,-0.17,-0.28,0.93,4.22,4.21,4.21
365.49,4.22,0.01,4.22,0.02,-0.02,-0.16,1.09,4.20,4.20,4.21
369.14,4.06,-0.14,4.07,-0.13,0.13,-0.04,1.25,4.19,4.20,4.19
372.83,3.92,-0.28,3.90,-0.29,0.29,0.08,1.41,4.21,4.19,4.19
376.56,3.74,-0.45,3.74,-0.45,0.45,0.21,1.56,4.19,4.19,4.19
380.33,3.58,-0.62,3.58,-0.62,0.61,0.35,1.72,4.18,4.19,4.20
384.13,3.42,-0.77,3.42,-0.78,0.76,0.48,1.88,4.18,4.18,4.19
387.97,3.26,-0.93,3.26,-0.93,0.92,0.63,2.04,4.18,4.18,4.19
391.85,3.11,-1.07,3.10,-1.08,1.08,0.77,2.20,4.19,4.18,4.18
395.77,2.95,-1.24,2.94,-1.24,1.24,0.93,2.36,4.19,4.19,4.19
399.73,2.78,-1.40,2.78,-1.39,1.41,1.08,2.52,4.18,4.19,4.18
403.72,2.62,-1.56,2.62,-1.56,1.57,1.25,2.68,4.19,4.19,4.18
407.76,2.45,-1.73,2.45,-1.73,1.74,1.41,2.84,4.18,4.18,4.17
411.84,2.28,-1.91,2.27,-1.91,1.90,1.58,3.00,4.18,4.18,4.18
415.96,2.10,-2.09,2.10,-2.09,2.07,1.76,3.15,4.17,4.17,4.18
420.12,1.93,-2.25,1.93,-2.25,2.24,1.94,3.31,4.17,4.17,4.18
424.32,1.76,-2.42,1.77,-2.41,2.41,2.13,3.46,4.17,4.18,4.18
428.56,1.62,-2.55,1.60,-2.57,2.58,2.32,3.61,4.20,4.18,4.17
432.85,1.44,-2.73,1.43,-2.74,2.75,2.51,3.76,4.19,4.18,4.17
437.18,1.25,-2.92,1.26,-2.91,2.92,2.71,3.91,4.17,4.18,4.17
441.55,1.09,-3.09,1.08,-3.10,3.10,2.91,4.05,4.18,4.17,4.18
445.96,0.91,-3.27,0.91,-3.27,3.27,3.11,4.18,4.18,4.18,4.18
450.42,0.72,-3.45,0.73,-3.45,3.45,3.32,4.31,4.16,4.18,4.17
454.93,0.57,-3.61,0.55,-3.62,3.62,3.53,4.44,4.19,4.17,4.18
459.48,0.37,-3.81,0.38,-3.80,3.79,3.73,4.56,4.16,4.17,4.18
464.07,0.21,-3.97,0.21,-3.97,3.96,3.94,4.67,4.17,4.17,4.18
468.71,0.06,-4.13,0.05,-4.13,4.12,4.14,4.78,4.18,4.17,4.19
473.40,-0.11,-4.29,-0.10,-4.29,4.28,4.34,4.88,4.17,4.18,4.17
478.13,-0.25,-4.44,-0.25,-4.43,4.43,4.54,4.97,4.18,4.18,4.18
482.91,-0.39,-4.58,-0.39,-4.58,4.59,4.73,5.05,4.19,4.19,4.18
487.74,-0.53,-4.72,-0.54,-4.73,4.73,4.91,5.12,4.20,4.19,4.18
492.62,-0.69,-4.89,-0.69,-4.88,4.88,5.08,5.18,4.19,4.19,4.19
497.55,-0.85,-5.04,-0.84,-5.03,5.03,5.24,5.24,4.18,4.19,4.18
502.52,-0.99,-5.18,-0.99,-5.18,5.19,5.39,5.28,4.20,4.20,4.19
507.55,-1.13,-5.31,-1.14,-5.32,5.35,5.52,5.32,4.22,4.21,4.18
512.62,-1.28,-5.46,-1.28,-5.47,5.50,5.64,5.34,4.22,4.22,4.18
