frequency,raw,error,smoothed,error_smoothed,equalization,parametric_eq,fixed_band_eq,equalized_raw,equalized_smoothed,target
20.00,-24.11,-24.45,-24.11,-24.45,6.00,6.21,2.59,-18.11,-18.11,0.34
20.20,-24.00,-24.34,-24.00,-24.34,6.00,6.21,2.67,-18.00,-18.00,0.34
20.40,-23.89,-24.23,-23.89,-24.23,6.00,6.20,2.74,-17.89,-17.89,0.34
20.61,-23.78,-24.13,-23.78,-24.12,6.00,6.20,2.82,-17.78,-17.78,0.34
20.81,-23.67,-24.01,-23.67,-24.01,6.00,6.19,2.90,-17.67,-17.67,0.34
21.02,-23.56,-23.90,-23.56,-23.90,6.00,6.19,2.98,-17.56,-17.56,0.34
21.23,-23.45,-23.79,-23.45,-23.80,6.00,6.18,3.07,-17.45,-17.45,0.34
21.44,-23.35,-23.69,-23.35,-23.69,6.00,6.18,3.16,-17.35,-17.35,0.34
21.66,-23.24,-23.58,-23.24,-23.58,6.00,6.17,3.24,-17.24,-17.24,0.34
21.87,-23.13,-23.47,-23.13,-23.47,6.00,6.17,3.34,-17.13,-17.13,0.34
22.09,-23.02,-23.36,-23.02,-23.36,6.00,6.16,3.43,-17.02,-17.02,0.34
22.31,-22.91,-23.25,-22.91,-23.25,6.00,6.15,3.53,-16.91,-16.91,0.34
22.54,-22.80,-23.14,-22.80,-23.14,6.00,6.15,3.63,-16.80,-16.80,0.34
22.76,-22.69,-23.03,-22.71,-23.05,6.00,6.14,3.73,-16.69,-16.71,0.34
22.99,-22.62,-22.96,-22.62,-22.96,6.00,6.14,3.84,-16.62,-16.62,0.34
23.22,-22.54,-22.88,-22.52,-22.86,6.00,6.13,3.95,-16.54,-16.52,0.34
23.45,-22.41,-22.75,-22.41,-22.75,6.00,6.13,4.05,-16.41,-16.41,0.34
23.69,-22.27,-22.61,-22.27,-22.61,6.00,6.12,4.17,-16.27,-16.27,0.34
23.92,-22.13,-22.47,-22.12,-22.46,6.00,6.12,4.28,-16.13,-16.12,0.34
24.16,-21.97,-22.31,-21.98,-22.32,6.00,6.11,4.40,-15.97,-15.98,0.34
24.40,-21.84,-22.17,-21.84,-22.18,6.00,6.10,4.52,-15.84,-15.84,0.34
24.65,-21.71,-22.05,-21.70,-22.03,6.00,6.10,4.64,-15.71,-15.70,0.34
24.89,-21.55,-21.88,-21.56,-21.89,6.00,6.09,4.76,-15.55,-15.56,0.34
25.14,-21.41,-21.74,-21.41,-21.74,6.00,6.09,4.88,-15.41,-15.41,0.33
25.39,-21.26,-21.59,-21.26,-21.59,6.00,6.08,5.01,-15.26,-15.26,0.33
25.65,-21.11,-21.44,-21.11,-21.44,6.00,6.07,5.13,-15.11,-15.11,0.33
25.91,-20.95,-21.29,-20.95,-21.29,6.00,6.07,5.26,-14.95,-14.95,0.33
26.16,-20.80,-21.13,-20.80,-21.14,6.00,6.06,5.39,-14.80,-14.80,0.33
26.43,-20.66,-20.99,-20.65,-20.98,6.00,6.05,5.51,-14.66,-14.65,0.33
26.69,-20.51,-20.84,-20.51,-20.84,6.00,6.05,5.64,-14.51,-14.51,0.33
26.96,-20.36,-20.69,-20.37,-20.70,6.00,6.04,5.76,-14.36,-14.37,0.33
27.23,-20.25,-20.58,-20.23,-20.56,6.00,6.04,5.88,-14.25,-14.23,0.33
27.50,-20.09,-20.42,-20.10,-20.43,6.00,6.03,6.00,-14.09,-14.10,0.33
27.77,-19.97,-20.30,-19.97,-20.30,6.00,6.02,6.12,-13.97,-13.97,0.33
28.05,-19.83,-20.16,-19.83,-20.16,6.00,6.02,6.23,-13.83,-13.83,0.33
28.33,-19.72,-20.04,-19.71,-20.03,6.00,6.01,6.34,-13.72,-13.71,0.33
28.62,-19.56,-19.89,-19.57,-19.90,6.00,6.00,6.45,-13.56,-13.57,0.32
28.90,-19.45,-19.77,-19.44,-19.76,6.00,6.00,6.54,-13.45,-13.44,0.32
29.19,-19.30,-19.62,-19.31,-19.63,6.00,5.99,6.63,-13.30,-13.31,0.32
29.48,-19.19,-19.51,-19.18,-19.51,6.00,5.98,6.72,-13.19,-13.18,0.32
29.78,-19.06,-19.38,-19.06,-19.38,6.00,5.98,6.80,-13.06,-13.06,0.32
30.08,-18.95,-19.27,-18.95,-19.27,6.00,5.97,6.86,-12.95,-12.95,0.32
30.38,-18.84,-19.16,-18.84,-19.16,6.00,5.96,6.93,-12.84,-12.84,0.32
30.68,-18.73,-19.05,-18.73,-19.05,6.00,5.96,6.97,-12.73,-12.73,0.32
30.99,-18.62,-18.94,-18.62,-18.94,6.00,5.95,7.02,-12.62,-12.62,0.31
31.30,-18.52,-18.83,-18.51,-18.82,6.00,5.94,7.05,-12.52,-12.51,0.31
31.61,-18.38,-18.69,-18.39,-18.70,6.00,5.94,7.08,-12.38,-12.39,0.31
31.93,-18.26,-18.57,-18.26,-18.57,6.00,5.93,7.09,-12.26,-12.26,0.31
32.24,-18.14,-18.45,-18.14,-18.45,6.00,5.92,7.10,-12.14,-12.14,0.31
32.57,-18.03,-18.34,-18.04,-18.34,6.00,5.92,7.09,-12.03,-12.04,0.31
32.89,-17.94,-18.24,-17.93,-18.24,6.00,5.91,7.09,-11.94,-11.93,0.31
33.22,-17.84,-18.14,-17.84,-18.14,6.00,5.91,7.07,-11.84,-11.84,0.30
33.55,-17.73,-18.03,-17.74,-18.05,6.00,5.90,7.04,-11.73,-11.74,0.30
33.89,-17.66,-17.96,-17.65,-17.95,6.00,5.89,7.01,-11.66,-11.65,0.30
34.23,-17.54,-17.84,-17.54,-17.84,6.00,5.89,6.97,-11.54,-11.54,0.30
34.57,-17.43,-17.73,-17.44,-17.73,6.00,5.88,6.93,-11.43,-11.44,0.30
34.92,-17.31,-17.61,-17.31,-17.61,6.00,5.88,6.89,-11.31,-11.31,0.29
35.27,-17.19,-17.48,-17.18,-17.47,6.00,5.87,6.84,-11.19,-11.18,0.29
35.62,-17.03,-17.32,-17.03,-17.32,6.00,5.87,6.79,-11.03,-11.03,0.29
35.97,-16.89,-17.18,-16.89,-17.18,6.00,5.86,6.73,-10.89,-10.89,0.29
36.33,-16.73,-17.01,-16.74,-17.03,6.00,5.86,6.68,-10.73,-10.74,0.29
36.70,-16.61,-16.89,-16.60,-16.88,6.00,5.85,6.62,-10.61,-10.60,0.28
37.06,-16.46,-16.74,-16.46,-16.74,6.00,5.85,6.56,-10.46,-10.46,0.28
37.43,-16.31,-16.59,-16.32,-16.59,6.00,5.84,6.51,-10.31,-10.32,0.28
37.81,-16.17,-16.44,-16.17,-16.44,6.00,5.84,6.45,-10.17,-10.17,0.27
38.19,-16.02,-16.29,-16.02,-16.29,6.00,5.84,6.40,-10.02,-10.02,0.27
38.57,-15.86,-16.13,-15.86,-16.13,6.00,5.83,6.35,-9.86,-9.86,0.27
38.95,-15.70,-15.96,-15.70,-15.97,6.00,5.83,6.30,-9.70,-9.70,0.27
39.34,-15.55,-15.81,-15.55,-15.81,6.00,5.83,6.25,-9.55,-9.55,0.26
39.74,-15.40,-15.66,-15.40,-15.66,6.00,5.82,6.21,-9.40,-9.40,0.26
40.14,-15.26,-15.52,-15.26,-15.51,6.00,5.82,6.17,-9.26,-9.26,0.26
40.54,-15.11,-15.36,-15.12,-15.37,6.00,5.82,6.13,-9.11,-9.12,0.25
40.94,-14.98,-15.23,-14.98,-15.23,6.00,5.82,6.10,-8.98,-8.98,0.25
41.35,-14.84,-15.08,-14.83,-15.08,6.00,5.82,6.07,-8.84,-8.83,0.24
41.76,-14.69,-14.93,-14.69,-14.93,6.00,5.82,6.05,-8.69,-8.69,0.24
42.18,-14.54,-14.78,-14.55,-14.78,6.00,5.82,6.03,-8.54,-8.55,0.24
42.60,-14.42,-14.65,-14.41,-14.64,6.00,5.82,6.01,-8.42,-8.41,0.23
43.03,-14.28,-14.51,-14.28,-14.51,6.00,5.82,6.00,-8.28,-8.28,0.23
43.46,-14.16,-14.38,-14.16,-14.38,6.00,5.82,5.99,-8.16,-8.16,0.22
43.90,-14.03,-14.25,-14.03,-14.25,6.00,5.83,5.99,-8.03,-8.03,0.22
44.33,-13.90,-14.11,-13.90,-14.11,6.00,5.83,5.99,-7.90,-7.90,0.21
44.78,-13.77,-13.98,-13.77,-13.98,6.00,5.83,6.00,-7.77,-7.77,0.21
45.23,-13.63,-13.83,-13.64,-13.84,6.00,5.84,6.01,-7.63,-7.64,0.20
45.68,-13.51,-13.71,-13.51,-13.70,6.00,5.84,6.02,-7.51,-7.51,0.20
46.13,-13.37,-13.56,-13.37,-13.57,6.00,5.85,6.04,-7.37,-7.37,0.19
46.60,-13.25,-13.44,-13.24,-13.43,6.00,5.86,6.07,-7.25,-7.24,0.18
47.06,-13.10,-13.28,-13.10,-13.28,6.00,5.86,6.10,-7.10,-7.10,0.18
47.53,-12.97,-13.14,-12.97,-13.14,6.00,5.87,6.13,-6.97,-6.97,0.17
48.01,-12.84,-13.01,-12.84,-13.01,6.00,5.88,6.17,-6.84,-6.84,0.17
48.49,-12.72,-12.88,-12.72,-12.88,6.00,5.89,6.21,-6.72,-6.72,0.16
48.97,-12.60,-12.75,-12.59,-12.75,6.00,5.90,6.25,-6.60,-6.59,0.15
49.46,-12.47,-12.61,-12.47,-12.61,6.00,5.91,6.30,-6.47,-6.47,0.14
49.96,-12.32,-12.46,-12.33,-12.47,6.00,5.92,6.35,-6.32,-6.33,0.14
50.46,-12.20,-12.33,-12.19,-12.32,6.00,5.94,6.40,-6.20,-6.19,0.13
50.96,-12.05,-12.17,-12.06,-12.18,6.00,5.95,6.46,-6.05,-6.06,0.12
51.47,-11.93,-12.04,-11.92,-12.04,6.00,5.96,6.52,-5.93,-5.92,0.11
51.99,-11.78,-11.88,-11.78,-11.88,6.00,5.98,6.57,-5.78,-5.78,0.10
52.51,-11.63,-11.73,-11.63,-11.73,6.00,6.00,6.63,-5.63,-5.63,0.09
53.03,-11.48,-11.56,-11.49,-11.57,6.00,6.01,6.69,-5.48,-5.49,0.08
53.56,-11.34,-11.41,-11.34,-11.41,6.00,6.03,6.75,-5.34,-5.34,0.07
54.10,-11.20,-11.27,-11.19,-11.26,6.00,6.05,6.81,-5.20,-5.19,0.06
54.64,-11.04,-11.10,-11.05,-11.10,6.00,6.06,6.87,-5.04,-5.05,0.05
55.18,-10.90,-10.94,-10.90,-10.94,6.00,6.08,6.92,-4.90,-4.90,0.04
55.74,-10.76,-10.79,-10.75,-10.79,6.00,6.10,6.97,-4.76,-4.75,0.03
56.29,-10.60,-10.62,-10.61,-10.63,6.00,6.12,7.02,-4.60,-4.61,0.02
56.86,-10.46,-10.47,-10.46,-10.47,6.00,6.13,7.06,-4.46,-4.46,0.01
57.42,-10.30,-10.30,-10.30,-10.30,6.00,6.15,7.10,-4.30,-4.30,-0.00
58.00,-10.15,-10.14,-10.15,-10.13,6.00,6.17,7.13,-4.15,-4.15,-0.02
58.58,-9.99,-9.96,-9.99,-9.96,6.00,6.18,7.15,-3.99,-3.99,-0.03
59.16,-9.83,-9.79,-9.84,-9.80,6.00,6.20,7.16,-3.83,-3.84,-0.04
59.76,-9.69,-9.64,-9.68,-9.63,6.00,6.21,7.17,-3.69,-3.68,-0.06
60.35,-9.53,-9.46,-9.53,-9.46,6.00,6.22,7.16,-3.53,-3.53,-0.07
60.96,-9.37,-9.29,-9.37,-9.29,6.00,6.23,7.15,-3.37,-3.37,-0.08
61.57,-9.21,-9.11,-9.21,-9.11,6.00,6.23,7.12,-3.21,-3.21,-0.10
62.18,-9.06,-8.94,-9.05,-8.94,6.00,6.23,7.08,-3.06,-3.05,-0.12
62.80,-8.89,-8.76,-8.89,-8.76,6.00,6.23,7.03,-2.89,-2.89,-0.13
63.43,-8.72,-8.57,-8.72,-8.57,6.00,6.23,6.97,-2.72,-2.72,-0.15
64.07,-8.55,-8.39,-8.55,-8.39,6.00,6.22,6.90,-2.55,-2.55,-0.16
64.71,-8.39,-8.21,-8.40,-8.21,6.00,6.20,6.82,-2.39,-2.40,-0.18
65.35,-8.25,-8.05,-8.24,-8.04,6.00,6.19,6.73,-2.25,-2.24,-0.20
66.01,-8.08,-7.86,-8.08,-7.86,6.00,6.16,6.62,-2.08,-2.08,-0.22
66.67,-7.92,-7.68,-7.93,-7.69,6.00,6.13,6.51,-1.92,-1.93,-0.24
67.33,-7.77,-7.51,-7.77,-7.51,6.00,6.09,6.39,-1.77,-1.77,-0.26
68.01,-7.62,-7.34,-7.62,-7.34,6.00,6.05,6.26,-1.62,-1.62,-0.28
68.69,-7.46,-7.16,-7.46,-7.16,6.01,6.00,6.12,-1.45,-1.45,-0.30
69.37,-7.30,-6.98,-7.30,-6.98,6.02,5.94,5.97,-1.28,-1.28,-0.32
70.07,-7.15,-6.81,-7.15,-6.81,6.03,5.88,5.82,-1.12,-1.12,-0.34
70.77,-6.99,-6.63,-6.99,-6.63,6.03,5.80,5.67,-0.96,-0.96,-0.36
71.48,-6.84,-6.45,-6.84,-6.45,6.02,5.72,5.51,-0.83,-0.82,-0.39
72.19,-6.68,-6.27,-6.68,-6.27,5.98,5.64,5.34,-0.70,-0.70,-0.41
72.91,-6.52,-6.09,-6.52,-6.09,5.91,5.54,5.17,-0.60,-0.61,-0.43
73.64,-6.37,-5.91,-6.37,-5.91,5.83,5.44,5.00,-0.54,-0.54,-0.46
74.38,-6.22,-5.74,-6.21,-5.73,5.71,5.33,4.83,-0.51,-0.50,-0.48
75.12,-6.06,-5.55,-6.06,-5.55,5.57,5.21,4.65,-0.49,-0.49,-0.51
75.87,-5.91,-5.37,-5.91,-5.38,5.41,5.09,4.48,-0.50,-0.50,-0.54
76.63,-5.77,-5.21,-5.76,-5.20,5.23,4.96,4.30,-0.53,-0.53,-0.56
77.40,-5.62,-5.03,-5.62,-5.03,5.05,4.83,4.13,-0.57,-0.57,-0.59
78.17,-5.47,-4.85,-5.47,-4.86,4.86,4.69,3.95,-0.61,-0.61,-0.62
78.95,-5.33,-4.68,-5.33,-4.68,4.68,4.55,3.77,-0.65,-0.65,-0.65
79.74,-5.19,-4.51,-5.18,-4.51,4.51,4.40,3.60,-0.68,-0.68,-0.68
80.54,-5.04,-4.33,-5.04,-4.33,4.34,4.25,3.42,-0.70,-0.70,-0.71
81.35,-4.89,-4.16,-4.90,-4.16,4.16,4.09,3.25,-0.73,-0.73,-0.74
82.16,-4.75,-3.98,-4.75,-3.99,3.99,3.93,3.08,-0.76,-0.76,-0.77
82.98,-4.63,-3.83,-4.62,-3.82,3.82,3.77,2.90,-0.81,-0.80,-0.80
83.81,-4.47,-3.64,-4.48,-3.66,3.65,3.61,2.73,-0.82,-0.84,-0.83
84.65,-4.35,-3.49,-4.34,-3.48,3.48,3.44,2.56,-0.87,-0.86,-0.86
85.50,-4.21,-3.32,-4.20,-3.31,3.31,3.28,2.40,-0.90,-0.89,-0.89
86.35,-4.05,-3.12,-4.07,-3.14,3.14,3.11,2.23,-0.91,-0.92,-0.93
87.22,-3.94,-2.98,-3.93,-2.97,2.97,2.94,2.06,-0.97,-0.95,-0.96
88.09,-3.79,-2.80,-3.80,-2.80,2.81,2.77,1.90,-0.98,-0.99,-0.99
88.97,-3.68,-2.65,-3.68,-2.65,2.64,2.60,1.74,-1.04,-1.04,-1.03
89.86,-3.54,-2.48,-3.54,-2.47,2.47,2.43,1.57,-1.07,-1.07,-1.06
90.76,-3.41,-2.31,-3.41,-2.31,2.31,2.27,1.41,-1.11,-1.10,-1.10
91.66,-3.26,-2.12,-3.27,-2.13,2.14,2.10,1.26,-1.12,-1.13,-1.13
92.58,-3.15,-1.98,-3.14,-1.97,1.97,1.93,1.10,-1.18,-1.17,-1.17
93.51,-3.00,-1.79,-3.01,-1.80,1.80,1.77,0.94,-1.20,-1.21,-1.21
94.44,-2.89,-1.65,-2.88,-1.64,1.64,1.60,0.79,-1.25,-1.25,-1.24
95.39,-2.75,-1.47,-2.75,-1.47,1.47,1.44,0.63,-1.28,-1.28,-1.28
96.34,-2.62,-1.30,-2.62,-1.30,1.30,1.28,0.48,-1.32,-1.32,-1.32
97.30,-2.49,-1.13,-2.49,-1.13,1.13,1.12,0.33,-1.35,-1.35,-1.36
98.28,-2.36,-0.97,-2.36,-0.97,0.97,0.96,0.18,-1.39,-1.39,-1.39
99.26,-2.23,-0.80,-2.24,-0.80,0.81,0.81,0.03,-1.42,-1.43,-1.43
100.25,-2.12,-0.65,-2.11,-0.64,0.64,0.65,-0.12,-1.48,-1.47,-1.47
101.25,-1.98,-0.47,-1.98,-0.48,0.48,0.50,-0.26,-1.50,-1.51,-1.51
102.27,-1.86,-0.31,-1.86,-0.32,0.32,0.35,-0.40,-1.54,-1.55,-1.55
103.29,-1.74,-0.16,-1.74,-0.16,0.15,0.20,-0.55,-1.59,-1.59,-1.58
104.32,-1.63,-0.01,-1.62,-0.00,-0.00,0.06,-0.69,-1.63,-1.63,-1.62
105.37,-1.50,0.16,-1.50,0.16,-0.16,-0.09,-0.82,-1.66,-1.66,-1.66
106.42,-1.37,0.33,-1.38,0.32,-0.32,-0.23,-0.96,-1.69,-1.69,-1.70
107.48,-1.26,0.48,-1.26,0.48,-0.47,-0.37,-1.09,-1.73,-1.73,-1.74
108.56,-1.15,0.63,-1.15,0.62,-0.62,-0.50,-1.22,-1.77,-1.77,-1.78
109.64,-1.05,0.76,-1.05,0.77,-0.77,-0.64,-1.34,-1.82,-1.82,-1.81
110.74,-0.94,0.91,-0.94,0.91,-0.92,-0.77,-1.47,-1.86,-1.86,-1.85
111.85,-0.83,1.06,-0.83,1.06,-1.06,-0.90,-1.59,-1.89,-1.89,-1.89
112.97,-0.72,1.21,-0.72,1.20,-1.20,-1.03,-1.70,-1.92,-1.92,-1.93
114.10,-0.63,1.33,-0.63,1.34,-1.33,-1.15,-1.81,-1.96,-1.96,-1.96
115.24,-0.52,1.48,-0.53,1.47,-1.47,-1.27,-1.91,-1.99,-2.00,-2.00
116.39,-0.46,1.58,-0.45,1.59,-1.60,-1.40,-2.02,-2.06,-2.04,-2.04
117.55,-0.35,1.73,-0.36,1.72,-1.72,-1.51,-2.11,-2.07,-2.08,-2.08
118.73,-0.28,1.83,-0.27,1.84,-1.84,-1.63,-2.20,-2.12,-2.11,-2.11
119.92,-0.18,1.97,-0.19,1.96,-1.96,-1.74,-2.28,-2.14,-2.14,-2.15
121.12,-0.12,2.06,-0.12,2.07,-2.07,-1.85,-2.36,-2.19,-2.18,-2.18
122.33,-0.04,2.18,-0.04,2.18,-2.18,-1.95,-2.43,-2.22,-2.22,-2.22
123.55,0.03,2.28,0.03,2.28,-2.29,-2.06,-2.50,-2.26,-2.26,-2.25
124.79,0.10,2.39,0.10,2.39,-2.39,-2.16,-2.56,-2.29,-2.29,-2.29
126.03,0.16,2.48,0.17,2.49,-2.49,-2.26,-2.62,-2.33,-2.32,-2.32
127.29,0.23,2.59,0.23,2.59,-2.59,-2.35,-2.66,-2.36,-2.36,-2.36
128.57,0.30,2.69,0.29,2.68,-2.68,-2.45,-2.71,-2.38,-2.39,-2.39
129.85,0.35,2.77,0.35,2.77,-2.77,-2.54,-2.74,-2.42,-2.42,-2.42
131.15,0.40,2.86,0.41,2.86,-2.86,-2.63,-2.78,-2.46,-2.46,-2.46
132.46,0.46,2.95,0.46,2.95,-2.95,-2.71,-2.80,-2.49,-2.49,-2.49
133.79,0.52,3.04,0.52,3.03,-3.03,-2.79,-2.82,-2.51,-2.52,-2.52
135.12,0.56,3.11,0.57,3.12,-3.11,-2.87,-2.84,-2.55,-2.55,-2.55
136.48,0.62,3.20,0.61,3.19,-3.19,-2.95,-2.85,-2.57,-2.58,-2.58
137.84,0.65,3.26,0.66,3.27,-3.26,-3.03,-2.86,-2.61,-2.61,-2.61
139.22,0.70,3.34,0.70,3.33,-3.33,-3.10,-2.87,-2.63,-2.64,-2.64
140.61,0.73,3.40,0.73,3.40,-3.40,-3.17,-2.87,-2.67,-2.67,-2.67
142.02,0.76,3.46,0.76,3.46,-3.46,-3.23,-2.87,-2.70,-2.70,-2.70
143.44,0.79,3.51,0.79,3.51,-3.52,-3.30,-2.87,-2.73,-2.73,-2.72
144.87,0.82,3.57,0.82,3.57,-3.57,-3.36,-2.87,-2.75,-2.75,-2.75
146.32,0.84,3.62,0.84,3.62,-3.61,-3.42,-2.86,-2.77,-2.77,-2.78
147.78,0.86,3.66,0.86,3.66,-3.66,-3.47,-2.85,-2.80,-2.80,-2.80
149.26,0.88,3.71,0.87,3.70,-3.70,-3.53,-2.85,-2.82,-2.83,-2.83
150.75,0.88,3.73,0.88,3.73,-3.74,-3.58,-2.84,-2.86,-2.86,-2.85
152.26,0.88,3.76,0.89,3.76,-3.77,-3.62,-2.83,-2.89,-2.89,-2.88
153.78,0.90,3.80,0.90,3.80,-3.80,-3.67,-2.83,-2.90,-2.90,-2.90
155.32,0.91,3.83,0.91,3.83,-3.83,-3.71,-2.82,-2.92,-2.92,-2.92
156.88,0.93,3.88,0.92,3.87,-3.85,-3.76,-2.81,-2.92,-2.93,-2.95
158.44,0.91,3.88,0.92,3.88,-3.87,-3.79,-2.81,-2.96,-2.96,-2.97
160.03,0.91,3.90,0.90,3.89,-3.89,-3.83,-2.81,-2.98,-2.99,-2.99
161.63,0.88,3.89,0.89,3.90,-3.91,-3.86,-2.81,-3.03,-3.02,-3.01
163.24,0.88,3.91,0.88,3.91,-3.92,-3.89,-2.81,-3.04,-3.04,-3.03
164.88,0.88,3.93,0.88,3.93,-3.93,-3.92,-2.81,-3.05,-3.05,-3.05
166.53,0.88,3.95,0.88,3.95,-3.94,-3.95,-2.81,-3.06,-3.06,-3.07
168.19,0.88,3.97,0.87,3.96,-3.95,-3.97,-2.82,-3.07,-3.08,-3.09
169.87,0.85,3.96,0.86,3.97,-3.96,-4.00,-2.83,-3.11,-3.10,-3.11
171.57,0.84,3.96,0.84,3.97,-3.97,-4.02,-2.84,-3.13,-3.12,-3.12
173.29,0.84,3.98,0.82,3.96,-3.97,-4.04,-2.85,-3.13,-3.15,-3.14
175.02,0.80,3.96,0.81,3.97,-3.97,-4.05,-2.87,-3.17,-3.16,-3.16
176.77,0.79,3.96,0.79,3.97,-3.97,-4.07,-2.88,-3.18,-3.17,-3.17
178.54,0.79,3.98,0.77,3.96,-3.96,-4.08,-2.90,-3.17,-3.19,-3.19
180.32,0.74,3.94,0.75,3.96,-3.96,-4.09,-2.92,-3.22,-3.20,-3.20
182.13,0.74,3.96,0.73,3.95,-3.95,-4.10,-2.95,-3.21,-3.22,-3.22
183.95,0.70,3.93,0.71,3.94,-3.94,-4.10,-2.97,-3.24,-3.24,-3.23
185.79,0.70,3.95,0.69,3.94,-3.94,-4.11,-3.00,-3.24,-3.25,-3.25
187.65,0.65,3.91,0.66,3.92,-3.93,-4.11,-3.03,-3.28,-3.26,-3.26
189.52,0.65,3.92,0.64,3.92,-3.91,-4.11,-3.07,-3.26,-3.27,-3.27
191.42,0.61,3.90,0.62,3.90,-3.90,-4.11,-3.10,-3.29,-3.29,-3.29
193.33,0.60,3.90,0.59,3.89,-3.89,-4.11,-3.14,-3.29,-3.30,-3.30
195.27,0.56,3.87,0.56,3.87,-3.88,-4.11,-3.18,-3.32,-3.32,-3.31
197.22,0.54,3.86,0.54,3.86,-3.87,-4.10,-3.22,-3.33,-3.33,-3.32
199.19,0.51,3.84,0.52,3.85,-3.85,-4.10,-3.26,-3.34,-3.34,-3.33
201.18,0.50,3.85,0.49,3.84,-3.84,-4.09,-3.31,-3.34,-3.34,-3.35
203.19,0.47,3.83,0.47,3.83,-3.82,-4.08,-3.35,-3.35,-3.35,-3.36
205.23,0.44,3.81,0.44,3.81,-3.81,-4.07,-3.40,-3.37,-3.36,-3.37
207.28,0.42,3.80,0.42,3.79,-3.79,-4.06,-3.44,-3.37,-3.38,-3.38
209.35,0.38,3.77,0.39,3.77,-3.77,-4.05,-3.49,-3.39,-3.39,-3.39
211.44,0.37,3.76,0.36,3.76,-3.76,-4.03,-3.54,-3.39,-3.39,-3.39
213.56,0.33,3.73,0.33,3.74,-3.74,-4.02,-3.59,-3.41,-3.40,-3.40
215.69,0.31,3.72,0.31,3.72,-3.72,-4.00,-3.63,-3.41,-3.41,-3.41
217.85,0.28,3.70,0.28,3.70,-3.70,-3.98,-3.68,-3.42,-3.42,-3.42
220.03,0.25,3.68,0.25,3.68,-3.68,-3.97,-3.73,-3.43,-3.43,-3.43
222.23,0.23,3.67,0.23,3.67,-3.66,-3.95,-3.77,-3.43,-3.44,-3.44
224.45,0.20,3.64,0.20,3.65,-3.65,-3.93,-3.81,-3.45,-3.44,-3.44
226.70,0.19,3.64,0.18,3.63,-3.63,-3.91,-3.85,-3.44,-3.45,-3.45
228.96,0.14,3.60,0.15,3.61,-3.61,-3.89,-3.89,-3.47,-3.46,-3.46
231.25,0.14,3.60,0.13,3.59,-3.59,-3.86,-3.92,-3.45,-3.46,-3.46
233.57,0.09,3.56,0.10,3.57,-3.57,-3.84,-3.95,-3.48,-3.47,-3.47
235.90,0.09,3.57,0.08,3.56,-3.55,-3.82,-3.98,-3.46,-3.47,-3.48
238.26,0.05,3.53,0.05,3.54,-3.53,-3.79,-4.00,-3.48,-3.48,-3.48
240.64,0.03,3.52,0.03,3.52,-3.51,-3.77,-4.02,-3.48,-3.49,-3.49
243.05,0.00,3.49,-0.00,3.49,-3.49,-3.74,-4.03,-3.49,-3.49,-3.49
245.48,-0.03,3.47,-0.03,3.47,-3.47,-3.71,-4.04,-3.50,-3.50,-3.50
247.93,-0.05,3.45,-0.05,3.45,-3.45,-3.69,-4.05,-3.50,-3.51,-3.51
250.41,-0.09,3.42,-0.08,3.43,-3.43,-3.66,-4.04,-3.52,-3.51,-3.51
252.92,-0.09,3.43,-0.10,3.42,-3.41,-3.63,-4.04,-3.50,-3.51,-3.52
255.45,-0.13,3.39,-0.13,3.39,-3.39,-3.60,-4.03,-3.52,-3.52,-3.52
258.00,-0.14,3.38,-0.15,3.38,-3.37,-3.58,-4.01,-3.51,-3.52,-3.52
260.58,-0.19,3.34,-0.18,3.35,-3.35,-3.55,-3.99,-3.54,-3.53,-3.53
263.19,-0.20,3.33,-0.20,3.33,-3.33,-3.52,-3.97,-3.53,-3.53,-3.53
265.82,-0.23,3.31,-0.23,3.31,-3.31,-3.49,-3.94,-3.54,-3.54,-3.54
268.48,-0.26,3.28,-0.26,3.28,-3.28,-3.46,-3.91,-3.54,-3.54,-3.54
271.16,-0.28,3.26,-0.28,3.26,-3.26,-3.43,-3.87,-3.54,-3.55,-3.54
273.87,-0.32,3.23,-0.31,3.23,-3.24,-3.40,-3.84,-3.56,-3.55,-3.55
276.61,-0.33,3.22,-0.34,3.22,-3.22,-3.37,-3.79,-3.55,-3.55,-3.55
279.38,-0.37,3.19,-0.36,3.19,-3.19,-3.34,-3.75,-3.56,-3.56,-3.56
282.17,-0.37,3.19,-0.38,3.18,-3.17,-3.31,-3.70,-3.54,-3.55,-3.56
284.99,-0.42,3.14,-0.41,3.15,-3.15,-3.27,-3.65,-3.57,-3.56,-3.56
287.84,-0.43,3.13,-0.44,3.13,-3.13,-3.24,-3.60,-3.56,-3.56,-3.56
290.72,-0.47,3.10,-0.46,3.10,-3.10,-3.21,-3.55,-3.57,-3.57,-3.57
293.63,-0.49,3.08,-0.49,3.08,-3.08,-3.18,-3.50,-3.57,-3.57,-3.57
296.57,-0.51,3.06,-0.52,3.06,-3.05,-3.15,-3.44,-3.56,-3.57,-3.57
299.53,-0.56,3.02,-0.55,3.03,-3.03,-3.12,-3.39,-3.59,-3.58,-3.58
302.53,-0.56,3.02,-0.57,3.01,-3.01,-3.09,-3.34,-3.57,-3.58,-3.58
305.55,-0.61,2.97,-0.60,2.98,-2.99,-3.06,-3.28,-3.60,-3.59,-3.58
308.61,-0.61,2.97,-0.62,2.96,-2.97,-3.03,-3.23,-3.58,-3.59,-3.58
311.69,-0.65,2.94,-0.64,2.95,-2.95,-2.99,-3.18,-3.60,-3.59,-3.59
314.81,-0.65,2.94,-0.65,2.94,-2.94,-2.96,-3.13,-3.59,-3.59,-3.59
317.96,-0.65,2.94,-0.67,2.92,-2.92,-2.93,-3.08,-3.57,-3.59,-3.59
321.14,-0.70,2.89,-0.68,2.91,-2.91,-2.90,-3.03,-3.61,-3.59,-3.59
324.35,-0.70,2.89,-0.70,2.89,-2.89,-2.87,-2.98,-3.59,-3.59,-3.59
327.59,-0.70,2.90,-0.71,2.88,-2.88,-2.84,-2.94,-3.58,-3.59,-3.60
330.87,-0.74,2.86,-0.73,2.87,-2.86,-2.81,-2.89,-3.60,-3.59,-3.60
334.18,-0.74,2.86,-0.75,2.84,-2.85,-2.78,-2.85,-3.59,-3.60,-3.60
337.52,-0.79,2.81,-0.77,2.83,-2.83,-2.75,-2.81,-3.62,-3.60,-3.60
340.90,-0.79,2.81,-0.79,2.81,-2.82,-2.72,-2.77,-3.61,-3.61,-3.60
344.30,-0.79,2.81,-0.81,2.80,-2.80,-2.70,-2.74,-3.59,-3.60,-3.60
347.75,-0.84,2.77,-0.83,2.78,-2.78,-2.67,-2.70,-3.62,-3.60,-3.61
351.23,-0.84,2.77,-0.85,2.76,-2.76,-2.64,-2.67,-3.60,-3.60,-3.61
354.74,-0.88,2.73,-0.87,2.74,-2.74,-2.61,-2.64,-3.62,-3.61,-3.61
358.28,-0.88,2.73,-0.89,2.72,-2.72,-2.58,-2.61,-3.60,-3.61,-3.61
361.87,-0.93,2.68,-0.92,2.69,-2.69,-2.56,-2.59,-3.62,-3.62,-3.61
365.49,-0.95,2.66,-0.95,2.66,-2.67,-2.53,-2.56,-3.62,-3.62,-3.61
369.14,-0.98,2.63,-0.98,2.63,-2.64,-2.50,-2.54,-3.62,-3.62,-3.61
372.83,-1.01,2.60,-1.01,2.60,-2.60,-2.48,-2.52,-3.61,-3.61,-3.61
376.56,-1.05,2.57,-1.05,2.57,-2.56,-2.45,-2.50,-3.61,-3.61,-3.62
380.33,-1.09,2.53,-1.10,2.52,-2.51,-2.43,-2.49,-3.60,-3.61,-3.62
384.13,-1.15,2.47,-1.15,2.47,-2.46,-2.40,-2.47,-3.61,-3.61,-3.62
387.97,-1.22,2.40,-1.21,2.41,-2.40,-2.38,-2.46,-3.62,-3.61,-3.62
391.85,-1.28,2.34,-1.28,2.34,-2.33,-2.36,-2.45,-3.61,-3.61,-3.62
395.77,-1.34,2.28,-1.34,2.28,-2.26,-2.33,-2.44,-3.60,-3.61,-3.62
399.73,-1.41,2.21,-1.41,2.21,-2.19,-2.31,-2.43,-3.60,-3.61,-3.62
403.72,-1.49,2.13,-1.49,2.13,-2.13,-2.29,-2.43,-3.62,-3.62,-3.62
407.76,-1.56,2.06,-1.56,2.07,-2.07,-2.27,-2.42,-3.63,-3.63,-3.62
411.84,-1.61,2.01,-1.61,2.02,-2.03,-2.25,-2.42,-3.64,-3.64,-3.62
