frequency,raw,error,smoothed,error_smoothed,equalization,parametric_eq,fixed_band_eq,equalized_raw,equalized_smoothed,target
20.00,-8.25,-12.30,-8.25,-12.30,6.00,6.04,2.60,-2.25,-2.25,4.05
20.20,-8.12,-12.17,-8.12,-12.17,6.00,6.06,2.68,-2.12,-2.12,4.05
20.40,-7.98,-12.04,-7.99,-12.05,6.00,6.07,2.75,-1.98,-1.99,4.06
20.61,-7.86,-11.92,-7.85,-11.92,6.00,6.08,2.83,-1.86,-1.85,4.07
20.81,-7.72,-11.79,-7.72,-11.79,6.00,6.10,2.91,-1.72,-1.72,4.07
21.02,-7.59,-11.67,-7.59,-11.67,6.00,6.10,3.00,-1.59,-1.59,4.08
21.23,-7.45,-11.53,-7.46,-11.54,6.00,6.11,3.08,-1.45,-1.46,4.08
21.44,-7.32,-11.41,-7.32,-11.41,6.00,6.12,3.17,-1.32,-1.32,4.09
21.66,-7.18,-11.28,-7.18,-11.28,6.00,6.12,3.26,-1.18,-1.18,4.10
21.87,-7.05,-11.15,-7.05,-11.15,6.00,6.13,3.36,-1.05,-1.05,4.10
22.09,-6.91,-11.02,-6.91,-11.02,6.00,6.13,3.45,-0.91,-0.91,4.11
22.31,-6.78,-10.90,-6.78,-10.89,6.00,6.13,3.55,-0.78,-0.78,4.12
22.54,-6.65,-10.76,-6.65,-10.77,6.00,6.13,3.65,-0.65,-0.65,4.12
22.76,-6.51,-10.64,-6.51,-10.64,6.00,6.13,3.76,-0.51,-0.51,4.13
22.99,-6.38,-10.52,-6.38,-10.51,6.00,6.13,3.86,-0.38,-0.38,4.14
23.22,-6.24,-10.39,-6.25,-10.39,6.00,6.12,3.97,-0.24,-0.25,4.15
23.45,-6.11,-10.27,-6.11,-10.27,6.00,6.11,4.09,-0.11,-0.11,4.16
23.69,-5.98,-10.14,-5.97,-10.14,6.00,6.11,4.20,0.02,0.03,4.16
23.92,-5.83,-10.01,-5.84,-10.01,6.00,6.10,4.32,0.17,0.16,4.17
24.16,-5.70,-9.89,-5.70,-9.88,6.00,6.09,4.43,0.30,0.30,4.18
24.40,-5.56,-9.75,-5.56,-9.76,6.00,6.08,4.56,0.44,0.44,4.19
24.65,-5.42,-9.64,-5.42,-9.63,6.00,6.06,4.68,0.58,0.58,4.21
24.89,-5.28,-9.50,-5.28,-9.50,6.00,6.05,4.80,0.72,0.72,4.22
25.14,-5.14,-9.37,-5.14,-9.37,6.00,6.03,4.93,0.86,0.86,4.23
25.39,-5.00,-9.24,-5.01,-9.25,6.00,6.02,5.05,1.00,0.99,4.24
25.65,-4.87,-9.12,-4.87,-9.12,6.00,6.00,5.18,1.13,1.13,4.25
25.91,-4.74,-9.01,-4.73,-9.00,6.00,5.98,5.31,1.26,1.27,4.27
26.16,-4.59,-8.87,-4.60,-8.88,6.00,5.96,5.44,1.41,1.40,4.28
26.43,-4.47,-8.75,-4.46,-8.75,6.00,5.94,5.56,1.53,1.54,4.29
26.69,-4.32,-8.62,-4.32,-8.62,6.00,5.91,5.69,1.68,1.68,4.30
26.96,-4.18,-8.50,-4.19,-8.50,6.00,5.89,5.81,1.82,1.81,4.32
27.23,-4.05,-8.38,-4.05,-8.38,6.00,5.86,5.93,1.95,1.95,4.33
27.50,-3.91,-8.26,-3.91,-8.26,6.00,5.84,6.05,2.09,2.09,4.35
27.77,-3.77,-8.13,-3.78,-8.13,6.00,5.81,6.17,2.23,2.22,4.36
28.05,-3.64,-8.02,-3.64,-8.01,6.00,5.78,6.27,2.36,2.36,4.38
28.33,-3.50,-7.89,-3.51,-7.89,6.00,5.75,6.38,2.50,2.49,4.38
28.62,-3.38,-7.78,-3.37,-7.77,6.00,5.72,6.48,2.62,2.63,4.40
28.90,-3.24,-7.65,-3.24,-7.65,6.00,5.69,6.57,2.76,2.76,4.41
29.19,-3.10,-7.53,-3.11,-7.54,6.00,5.65,6.65,2.90,2.89,4.43
29.48,-2.97,-7.41,-2.97,-7.41,6.00,5.62,6.72,3.03,3.03,4.44
29.78,-2.83,-7.29,-2.84,-7.29,6.00,5.58,6.78,3.17,3.16,4.46
30.08,-2.71,-7.17,-2.70,-7.17,6.00,5.55,6.84,3.29,3.30,4.47
30.38,-2.57,-7.06,-2.58,-7.06,6.00,5.51,6.88,3.43,3.42,4.49
30.68,-2.44,-6.94,-2.45,-6.95,6.00,5.47,6.91,3.56,3.55,4.50
30.99,-2.32,-6.84,-2.32,-6.83,6.00,5.43,6.93,3.68,3.68,4.52
31.30,-2.18,-6.71,-2.19,-6.71,6.01,5.39,6.94,3.82,3.82,4.52
31.61,-2.05,-6.60,-2.05,-6.60,6.01,5.35,6.93,3.96,3.96,4.54
31.93,-1.93,-6.48,-1.92,-6.48,6.02,5.31,6.92,4.10,4.10,4.55
32.24,-1.79,-6.36,-1.80,-6.36,6.02,5.27,6.89,4.23,4.22,4.57
32.57,-1.67,-6.25,-1.67,-6.25,6.01,5.22,6.85,4.33,4.34,4.58
32.89,-1.54,-6.14,-1.54,-6.14,5.98,5.18,6.81,4.44,4.43,4.60
33.22,-1.42,-6.03,-1.42,-6.03,5.94,5.13,6.75,4.51,4.52,4.61
33.55,-1.29,-5.92,-1.29,-5.92,5.88,5.09,6.68,4.59,4.58,4.62
33.89,-1.17,-5.81,-1.17,-5.81,5.80,5.04,6.60,4.63,4.63,4.63
34.23,-1.05,-5.70,-1.05,-5.70,5.71,4.99,6.52,4.66,4.66,4.65
34.57,-0.93,-5.59,-0.93,-5.59,5.61,4.95,6.43,4.68,4.68,4.66
34.92,-0.81,-5.48,-0.81,-5.49,5.50,4.90,6.33,4.69,4.69,4.67
35.27,-0.69,-5.38,-0.70,-5.38,5.39,4.85,6.23,4.70,4.69,4.69
35.62,-0.58,-5.28,-0.58,-5.28,5.28,4.79,6.12,4.69,4.69,4.69
35.97,-0.47,-5.17,-0.47,-5.17,5.17,4.74,6.01,4.70,4.70,4.70
36.33,-0.35,-5.06,-0.36,-5.06,5.06,4.69,5.90,4.71,4.71,4.71
36.70,-0.24,-4.96,-0.24,-4.96,4.96,4.64,5.78,4.71,4.72,4.72
37.06,-0.12,-4.85,-0.12,-4.85,4.85,4.58,5.67,4.73,4.73,4.72
37.43,-0.01,-4.74,-0.01,-4.75,4.75,4.53,5.55,4.73,4.73,4.73
37.81,0.10,-4.64,0.10,-4.64,4.64,4.47,5.43,4.74,4.74,4.74
38.19,0.21,-4.54,0.21,-4.54,4.54,4.41,5.32,4.74,4.75,4.75
38.57,0.32,-4.44,0.32,-4.44,4.44,4.35,5.20,4.75,4.75,4.75
38.95,0.43,-4.33,0.42,-4.34,4.34,4.30,5.08,4.76,4.76,4.76
39.34,0.53,-4.24,0.53,-4.24,4.24,4.23,4.97,4.77,4.77,4.77
39.74,0.63,-4.15,0.63,-4.14,4.14,4.17,4.86,4.77,4.77,4.77
40.14,0.73,-4.05,0.72,-4.05,4.05,4.11,4.75,4.78,4.78,4.77
40.54,0.82,-3.96,0.82,-3.96,3.96,4.04,4.64,4.78,4.78,4.78
40.94,0.92,-3.87,0.91,-3.87,3.88,3.98,4.53,4.79,4.79,4.79
41.35,1.00,-3.79,1.00,-3.79,3.79,3.91,4.43,4.79,4.79,4.79
41.76,1.08,-3.72,1.08,-3.71,3.71,3.84,4.33,4.79,4.80,4.80
42.18,1.17,-3.64,1.17,-3.64,3.64,3.77,4.23,4.81,4.80,4.80
42.60,1.25,-3.56,1.25,-3.56,3.56,3.70,4.14,4.81,4.81,4.81
43.03,1.33,-3.49,1.32,-3.49,3.49,3.62,4.04,4.82,4.82,4.82
43.46,1.40,-3.42,1.40,-3.42,3.42,3.55,3.95,4.82,4.82,4.82
43.90,1.47,-3.36,1.47,-3.36,3.35,3.47,3.87,4.82,4.82,4.83
44.33,1.55,-3.29,1.55,-3.29,3.28,3.39,3.78,4.83,4.83,4.84
44.78,1.63,-3.22,1.63,-3.22,3.22,3.31,3.70,4.85,4.84,4.85
45.23,1.71,-3.15,1.70,-3.15,3.15,3.22,3.62,4.86,4.86,4.85
45.68,1.78,-3.09,1.78,-3.09,3.09,3.14,3.55,4.87,4.87,4.87
46.13,1.85,-3.02,1.85,-3.03,3.03,3.05,3.48,4.88,4.88,4.87
46.60,1.91,-2.98,1.91,-2.97,2.97,2.97,3.41,4.88,4.88,4.89
47.06,1.98,-2.91,1.97,-2.92,2.91,2.88,3.34,4.89,4.89,4.89
47.53,2.04,-2.87,2.04,-2.87,2.86,2.79,3.28,4.90,4.90,4.90
48.01,2.10,-2.81,2.10,-2.81,2.81,2.71,3.22,4.91,4.91,4.91
48.49,2.16,-2.76,2.16,-2.76,2.76,2.63,3.16,4.92,4.92,4.92
48.97,2.22,-2.71,2.21,-2.71,2.71,2.55,3.10,4.93,4.93,4.92
49.46,2.27,-2.67,2.27,-2.67,2.67,2.48,3.05,4.94,4.94,4.94
49.96,2.32,-2.62,2.32,-2.62,2.63,2.42,3.00,4.94,4.94,4.94
50.46,2.36,-2.58,2.36,-2.59,2.59,2.36,2.95,4.95,4.95,4.94
50.96,2.40,-2.56,2.39,-2.56,2.56,2.31,2.90,4.95,4.95,4.95
51.47,2.43,-2.53,2.43,-2.53,2.53,2.27,2.85,4.95,4.95,4.96
51.99,2.46,-2.50,2.46,-2.50,2.50,2.24,2.81,4.96,4.96,4.96
52.51,2.49,-2.47,2.48,-2.47,2.48,2.22,2.77,4.96,4.96,4.96
53.03,2.51,-2.45,2.51,-2.46,2.45,2.20,2.73,4.96,4.96,4.96
53.56,2.53,-2.44,2.53,-2.44,2.44,2.19,2.69,4.96,4.96,4.97
54.10,2.55,-2.42,2.55,-2.42,2.42,2.19,2.66,4.97,4.97,4.97
54.64,2.57,-2.40,2.56,-2.40,2.40,2.19,2.62,4.97,4.97,4.97
55.18,2.58,-2.38,2.58,-2.39,2.39,2.20,2.59,4.97,4.97,4.96
55.74,2.59,-2.37,2.59,-2.37,2.38,2.21,2.56,4.96,4.96,4.96
56.29,2.59,-2.37,2.59,-2.36,2.36,2.22,2.53,4.95,4.96,4.96
56.86,2.60,-2.35,2.59,-2.36,2.35,2.23,2.50,4.95,4.95,4.95
57.42,2.60,-2.35,2.60,-2.34,2.34,2.24,2.47,4.94,4.94,4.94
58.00,2.60,-2.33,2.60,-2.33,2.33,2.26,2.44,4.93,4.93,4.93
58.58,2.61,-2.32,2.60,-2.32,2.32,2.27,2.42,4.93,4.92,4.93
59.16,2.61,-2.31,2.61,-2.31,2.31,2.28,2.39,4.92,4.92,4.92
59.76,2.61,-2.29,2.61,-2.29,2.30,2.29,2.36,4.90,4.91,4.90
60.35,2.61,-2.28,2.60,-2.28,2.29,2.29,2.34,4.89,4.89,4.89
60.96,2.60,-2.28,2.60,-2.27,2.28,2.30,2.31,4.87,4.88,4.87
61.57,2.59,-2.27,2.59,-2.27,2.27,2.30,2.29,4.85,4.86,4.86
62.18,2.59,-2.26,2.58,-2.26,2.26,2.30,2.27,4.85,4.84,4.84
62.80,2.57,-2.26,2.57,-2.26,2.25,2.31,2.24,4.82,4.82,4.83
63.43,2.56,-2.25,2.56,-2.25,2.25,2.31,2.22,4.80,4.81,4.81
64.07,2.55,-2.24,2.55,-2.24,2.24,2.31,2.20,4.79,4.79,4.78
64.71,2.54,-2.23,2.53,-2.23,2.24,2.30,2.17,4.78,4.77,4.77
65.35,2.52,-2.23,2.52,-2.23,2.23,2.30,2.15,4.75,4.75,4.75
66.01,2.50,-2.23,2.50,-2.23,2.23,2.30,2.13,4.73,4.73,4.73
66.67,2.48,-2.23,2.48,-2.23,2.23,2.29,2.11,4.70,4.70,4.71
67.33,2.46,-2.23,2.46,-2.23,2.22,2.29,2.08,4.68,4.68,4.69
68.01,2.44,-2.22,2.44,-2.22,2.22,2.29,2.06,4.66,4.66,4.66
68.69,2.43,-2.21,2.42,-2.22,2.22,2.28,2.04,4.64,4.64,4.64
69.37,2.41,-2.21,2.41,-2.21,2.22,2.28,2.02,4.62,4.62,4.62
70.07,2.39,-2.21,2.39,-2.21,2.22,2.27,2.00,4.61,4.60,4.60
70.77,2.36,-2.22,2.36,-2.22,2.22,2.27,1.98,4.58,4.58,4.57
71.48,2.33,-2.22,2.33,-2.22,2.23,2.26,1.96,4.55,4.55,4.55
72.19,2.30,-2.23,2.30,-2.23,2.23,2.26,1.94,4.53,4.53,4.53
72.91,2.27,-2.25,2.27,-2.24,2.24,2.26,1.93,4.51,4.51,4.51
73.64,2.24,-2.25,2.24,-2.25,2.25,2.25,1.91,4.49,4.49,4.49
74.38,2.21,-2.27,2.21,-2.26,2.26,2.25,1.89,4.46,4.47,4.47
75.12,2.19,-2.26,2.18,-2.27,2.26,2.25,1.88,4.45,4.45,4.45
75.87,2.16,-2.27,2.16,-2.27,2.27,2.25,1.86,4.43,4.43,4.43
76.63,2.14,-2.28,2.14,-2.27,2.28,2.25,1.85,4.41,4.41,4.41
77.40,2.12,-2.28,2.11,-2.28,2.28,2.25,1.84,4.40,4.40,4.40
78.17,2.09,-2.29,2.09,-2.29,2.29,2.26,1.83,4.38,4.38,4.38
78.95,2.06,-2.30,2.06,-2.30,2.30,2.26,1.81,4.36,4.36,4.36
79.74,2.03,-2.31,2.02,-2.31,2.32,2.26,1.81,4.35,4.34,4.34
80.54,1.99,-2.33,1.99,-2.33,2.34,2.27,1.80,4.33,4.33,4.32
81.35,1.95,-2.35,1.94,-2.35,2.36,2.28,1.79,4.31,4.30,4.30
82.16,1.90,-2.38,1.90,-2.38,2.38,2.29,1.78,4.28,4.28,4.28
82.98,1.85,-2.41,1.85,-2.40,2.40,2.30,1.78,4.25,4.25,4.26
83.81,1.81,-2.43,1.81,-2.43,2.42,2.31,1.77,4.23,4.23,4.23
84.65,1.77,-2.44,1.76,-2.45,2.44,2.32,1.77,4.21,4.20,4.21
85.50,1.73,-2.46,1.73,-2.46,2.45,2.33,1.77,4.18,4.18,4.19
86.35,1.70,-2.47,1.70,-2.46,2.46,2.34,1.77,4.15,4.15,4.16
87.22,1.68,-2.46,1.68,-2.46,2.46,2.36,1.77,4.13,4.13,4.14
88.09,1.66,-2.46,1.66,-2.46,2.46,2.37,1.77,4.11,4.12,4.11
88.97,1.65,-2.45,1.65,-2.45,2.45,2.39,1.78,4.10,4.10,4.10
89.86,1.64,-2.44,1.63,-2.44,2.44,2.40,1.78,4.08,4.08,4.07
90.76,1.62,-2.43,1.62,-2.43,2.44,2.41,1.79,4.05,4.05,4.05
91.66,1.60,-2.43,1.60,-2.43,2.43,2.43,1.80,4.03,4.03,4.03
92.58,1.58,-2.43,1.58,-2.43,2.42,2.44,1.80,4.00,4.00,4.00
93.51,1.56,-2.42,1.56,-2.42,2.42,2.45,1.81,3.98,3.98,3.98
94.44,1.54,-2.42,1.54,-2.42,2.42,2.45,1.82,3.95,3.95,3.96
95.39,1.52,-2.41,1.52,-2.42,2.42,2.46,1.84,3.93,3.93,3.93
96.34,1.50,-2.41,1.49,-2.42,2.42,2.46,1.85,3.92,3.91,3.91
97.30,1.47,-2.42,1.47,-2.41,2.42,2.46,1.86,3.89,3.89,3.88
98.28,1.44,-2.42,1.44,-2.42,2.43,2.45,1.88,3.86,3.86,3.85
99.26,1.41,-2.42,1.40,-2.43,2.43,2.44,1.89,3.84,3.83,3.83
100.25,1.37,-2.44,1.37,-2.43,2.43,2.43,1.91,3.80,3.80,3.81
101.25,1.34,-2.44,1.34,-2.44,2.43,2.42,1.93,3.77,3.77,3.78
102.27,1.32,-2.43,1.31,-2.43,2.43,2.40,1.95,3.74,3.74,3.75
103.29,1.30,-2.41,1.29,-2.42,2.41,2.38,1.97,3.71,3.71,3.71
104.32,1.28,-2.40,1.28,-2.40,2.39,2.36,1.99,3.67,3.67,3.68
105.37,1.27,-2.38,1.27,-2.38,2.37,2.34,2.01,3.63,3.63,3.65
106.42,1.27,-2.34,1.27,-2.35,2.33,2.32,2.03,3.60,3.60,3.61
107.48,1.27,-2.30,1.27,-2.30,2.30,2.29,2.05,3.57,3.57,3.57
108.56,1.28,-2.25,1.28,-2.26,2.27,2.27,2.07,3.54,3.54,3.53
109.64,1.28,-2.22,1.27,-2.22,2.24,2.24,2.10,3.51,3.51,3.49
110.74,1.27,-2.19,1.26,-2.19,2.21,2.22,2.12,3.47,3.47,3.45
111.85,1.24,-2.18,1.24,-2.17,2.18,2.20,2.14,3.42,3.42,3.41
112.97,1.21,-2.16,1.21,-2.16,2.16,2.17,2.16,3.36,3.36,3.37
114.10,1.18,-2.15,1.18,-2.15,2.14,2.15,2.18,3.31,3.31,3.33
115.24,1.15,-2.13,1.15,-2.13,2.12,2.13,2.21,3.27,3.27,3.28
116.39,1.13,-2.11,1.13,-2.11,2.11,2.11,2.23,3.24,3.24,3.24
117.55,1.11,-2.09,1.10,-2.09,2.10,2.10,2.25,3.20,3.20,3.19
118.73,1.08,-2.08,1.07,-2.08,2.09,2.08,2.27,3.17,3.16,3.16
119.92,1.04,-2.07,1.04,-2.07,2.08,2.07,2.29,3.12,3.12,3.11
121.12,1.00,-2.08,1.00,-2.07,2.07,2.05,2.31,3.07,3.08,3.07
122.33,0.97,-2.07,0.97,-2.07,2.07,2.04,2.33,3.03,3.03,3.04
123.55,0.94,-2.06,0.93,-2.07,2.06,2.04,2.35,3.00,2.99,3.00
124.79,0.89,-2.08,0.89,-2.07,2.06,2.03,2.36,2.95,2.95,2.96
126.03,0.86,-2.07,0.86,-2.07,2.06,2.03,2.38,2.92,2.92,2.93
127.29,0.84,-2.06,0.84,-2.06,2.06,2.03,2.40,2.89,2.89,2.90
128.57,0.82,-2.04,0.81,-2.05,2.06,2.02,2.41,2.88,2.87,2.86
129.85,0.78,-2.05,0.77,-2.05,2.06,2.03,2.43,2.84,2.84,2.83
131.15,0.73,-2.07,0.73,-2.06,2.07,2.03,2.44,2.80,2.80,2.79
132.46,0.69,-2.08,0.69,-2.08,2.08,2.04,2.46,2.77,2.77,2.76
133.79,0.65,-2.09,0.64,-2.10,2.09,2.04,2.47,2.74,2.73,2.74
135.12,0.59,-2.12,0.59,-2.11,2.11,2.05,2.48,2.70,2.71,2.71
136.48,0.55,-2.13,0.54,-2.14,2.13,2.07,2.50,2.68,2.68,2.68
137.84,0.49,-2.16,0.49,-2.16,2.16,2.08,2.51,2.64,2.65,2.65
139.22,0.44,-2.18,0.44,-2.18,2.18,2.09,2.53,2.62,2.62,2.62
140.61,0.39,-2.20,0.38,-2.21,2.21,2.11,2.54,2.59,2.59,2.59
142.02,0.33,-2.24,0.33,-2.23,2.23,2.13,2.56,2.56,2.56,2.57
143.44,0.29,-2.26,0.28,-2.26,2.26,2.15,2.57,2.54,2.54,2.54
144.87,0.23,-2.29,0.23,-2.29,2.28,2.18,2.59,2.51,2.51,2.51
146.32,0.18,-2.30,0.17,-2.31,2.31,2.20,2.61,2.49,2.48,2.48
147.78,0.11,-2.34,0.11,-2.34,2.34,2.23,2.62,2.44,2.45,2.45
149.26,0.07,-2.36,0.06,-2.37,2.36,2.26,2.64,2.43,2.42,2.43
150.75,-0.00,-2.40,0.00,-2.40,2.39,2.29,2.67,2.39,2.40,2.40
152.26,-0.04,-2.42,-0.05,-2.42,2.43,2.33,2.69,2.38,2.38,2.38
153.78,-0.11,-2.46,-0.11,-2.46,2.46,2.36,2.71,2.35,2.35,2.34
155.32,-0.16,-2.48,-0.16,-2.49,2.49,2.40,2.74,2.33,2.33,2.32
156.88,-0.23,-2.53,-0.23,-2.53,2.53,2.44,2.77,2.30,2.30,2.30
158.44,-0.29,-2.57,-0.30,-2.57,2.57,2.49,2.79,2.27,2.26,2.28
160.03,-0.38,-2.63,-0.36,-2.61,2.60,2.53,2.83,2.22,2.24,2.24
161.63,-0.42,-2.65,-0.43,-2.65,2.64,2.58,2.86,2.22,2.22,2.22
163.24,-0.47,-2.67,-0.49,-2.68,2.69,2.63,2.90,2.21,2.20,2.19
164.88,-0.56,-2.74,-0.55,-2.72,2.73,2.69,2.93,2.17,2.18,2.17
166.53,-0.62,-2.77,-0.62,-2.77,2.77,2.74,2.97,2.15,2.15,2.14
168.19,-0.69,-2.81,-0.70,-2.82,2.82,2.80,3.02,2.12,2.11,2.11
169.87,-0.78,-2.87,-0.77,-2.86,2.86,2.86,3.06,2.08,2.09,2.09
171.57,-0.85,-2.91,-0.85,-2.91,2.91,2.93,3.11,2.05,2.06,2.06
173.29,-0.91,-2.95,-0.93,-2.96,2.95,2.99,3.16,2.04,2.03,2.03
175.02,-1.01,-3.02,-1.01,-3.01,3.00,3.06,3.21,1.99,2.00,2.01
176.77,-1.09,-3.06,-1.09,-3.06,3.05,3.14,3.26,1.96,1.97,1.97
178.54,-1.16,-3.11,-1.16,-3.10,3.10,3.21,3.32,1.94,1.95,1.94
180.32,-1.23,-3.14,-1.24,-3.15,3.16,3.29,3.38,1.92,1.92,1.91
182.13,-1.30,-3.19,-1.32,-3.20,3.21,3.37,3.44,1.91,1.89,1.88
183.95,-1.43,-3.28,-1.42,-3.27,3.27,3.45,3.51,1.84,1.85,1.85
185.79,-1.52,-3.34,-1.52,-3.34,3.33,3.54,3.58,1.81,1.81,1.82
187.65,-1.61,-3.41,-1.61,-3.40,3.39,3.63,3.64,1.78,1.78,1.79
189.52,-1.69,-3.45,-1.70,-3.46,3.46,3.72,3.72,1.77,1.76,1.76
191.42,-1.79,-3.52,-1.79,-3.52,3.53,3.82,3.79,1.73,1.73,1.73
193.33,-1.89,-3.59,-1.89,-3.59,3.60,3.91,3.86,1.70,1.70,1.70
195.27,-2.00,-3.68,-2.00,-3.67,3.67,4.01,3.94,1.67,1.67,1.67
197.22,-2.10,-3.75,-2.11,-3.75,3.74,4.11,4.02,1.64,1.64,1.64
199.19,-2.21,-3.82,-2.21,-3.82,3.82,4.21,4.10,1.60,1.60,1.61
201.18,-2.32,-3.89,-2.32,-3.90,3.90,4.32,4.18,1.57,1.57,1.57
203.19,-2.43,-3.97,-2.43,-3.97,3.98,4.42,4.27,1.55,1.55,1.54
205.23,-2.54,-4.05,-2.55,-4.06,4.06,4.52,4.35,1.52,1.52,1.51
207.28,-2.66,-4.14,-2.66,-4.14,4.15,4.63,4.43,1.48,1.48,1.48
209.35,-2.78,-4.24,-2.78,-4.23,4.23,4.73,4.52,1.45,1.45,1.45
211.44,-2.90,-4.32,-2.90,-4.32,4.32,4.83,4.60,1.41,1.41,1.41
213.56,-3.02,-4.41,-3.03,-4.41,4.40,4.93,4.68,1.38,1.37,1.38
215.69,-3.15,-4.50,-3.15,-4.50,4.49,5.03,4.76,1.34,1.34,1.35
217.85,-3.28,-4.59,-3.27,-4.58,4.58,5.12,4.84,1.30,1.31,1.31
220.03,-3.37,-4.65,-3.38,-4.66,4.67,5.21,4.91,1.30,1.29,1.28
222.23,-3.48,-4.74,-3.49,-4.74,4.76,5.30,4.98,1.28,1.27,1.25
224.45,-3.62,-4.84,-3.63,-4.84,4.86,5.37,5.05,1.23,1.23,1.22
226.70,-3.76,-4.95,-3.76,-4.95,4.95,5.44,5.12,1.19,1.19,1.19
228.96,-3.90,-5.07,-3.88,-5.05,5.04,5.51,5.17,1.14,1.16,1.16
231.25,-3.98,-5.12,-4.00,-5.14,5.13,5.56,5.23,1.15,1.13,1.14
233.57,-4.10,-5.22,-4.11,-5.22,5.22,5.60,5.27,1.11,1.11,1.12
235.90,-4.22,-5.32,-4.20,-5.30,5.30,5.64,5.31,1.07,1.09,1.09
238.26,-4.28,-5.36,-4.30,-5.37,5.37,5.66,5.35,1.08,1.07,1.08
240.64,-4.37,-5.44,-4.37,-5.43,5.43,5.67,5.37,1.05,1.06,1.06
243.05,-4.42,-5.47,-4.43,-5.47,5.48,5.68,5.39,1.05,1.05,1.05
245.48,-4.48,-5.52,-4.48,-5.52,5.52,5.66,5.39,1.03,1.03,1.03
247.93,-4.53,-5.55,-4.53,-5.55,5.55,5.64,5.39,1.02,1.02,1.02
250.41,-4.56,-5.57,-4.57,-5.57,5.57,5.61,5.38,1.01,1.00,1.00
252.92,-4.60,-5.59,-4.60,-5.58,5.58,5.57,5.36,0.98,0.99,0.99
255.45,-4.61,-5.59,-4.61,-5.59,5.59,5.51,5.33,0.97,0.97,0.97
258.00,-4.62,-5.58,-4.62,-5.58,5.58,5.45,5.29,0.96,0.96,0.96
260.58,-4.61,-5.57,-4.62,-5.57,5.57,5.37,5.25,0.95,0.95,0.95
263.19,-4.60,-5.54,-4.60,-5.54,5.54,5.29,5.19,0.94,0.94,0.94
265.82,-4.57,-5.50,-4.58,-5.51,5.51,5.20,5.13,0.94,0.93,0.93
268.48,-4.54,-5.46,-4.55,-5.46,5.47,5.10,5.06,0.92,0.92,0.91
271.16,-4.52,-5.42,-4.51,-5.41,5.42,5.00,4.98,0.89,0.91,0.90
273.87,-4.46,-5.35,-4.47,-5.36,5.36,4.89,4.90,0.89,0.89,0.89
276.61,-4.41,-5.29,-4.41,-5.28,5.28,4.78,4.81,0.87,0.87,0.87
279.38,-4.34,-5.20,-4.35,-5.21,5.20,4.66,4.72,0.86,0.85,0.86
282.17,-4.26,-5.11,-4.27,-5.11,5.10,4.54,4.62,0.84,0.83,0.85
284.99,-4.18,-5.02,-4.17,-5.00,4.99,4.42,4.52,0.81,0.82,0.83
287.84,-4.04,-4.86,-4.05,-4.87,4.87,4.30,4.41,0.82,0.81,0.82
290.72,-3.91,-4.72,-3.92,-4.73,4.73,4.18,4.30,0.82,0.81,0.81
293.63,-3.79,-4.59,-3.78,-4.58,4.59,4.05,4.19,0.79,0.80,0.80
296.57,-3.64,-4.43,-3.65,-4.43,4.43,3.93,4.08,0.79,0.79,0.78
299.53,-3.50,-4.27,-3.50,-4.27,4.28,3.81,3.96,0.77,0.77,0.77
302.53,-3.35,-4.11,-3.36,-4.11,4.12,3.69,3.85,0.76,0.76,0.76
305.55,-3.21,-3.95,-3.21,-3.95,3.95,3.57,3.73,0.74,0.75,0.74
308.61,-3.06,-3.79,-3.06,-3.79,3.79,3.45,3.61,0.73,0.73,0.72
311.69,-2.91,-3.63,-2.92,-3.63,3.63,3.33,3.50,0.72,0.71,0.71
314.81,-2.78,-3.47,-2.78,-3.48,3.47,3.22,3.38,0.69,0.69,0.69
317.96,-2.65,-3.33,-2.64,-3.32,3.32,3.10,3.27,0.66,0.67,0.68
321.14,-2.50,-3.16,-2.50,-3.16,3.16,2.99,3.15,0.66,0.66,0.66
324.35,-2.35,-3.00,-2.36,-3.00,3.01,2.88,3.04,0.66,0.65,0.65
327.59,-2.22,-2.85,-2.23,-2.86,2.86,2.78,2.92,0.64,0.63,0.62
330.87,-2.12,-2.74,-2.11,-2.72,2.72,2.67,2.81,0.60,0.61,0.61
334.18,-2.00,-2.59,-1.99,-2.59,2.59,2.57,2.70,0.58,0.59,0.59
337.52,-1.86,-2.44,-1.88,-2.45,2.45,2.47,2.60,0.59,0.58,0.58
340.90,-1.76,-2.32,-1.76,-2.32,2.32,2.37,2.49,0.56,0.56,0.56
344.30,-1.65,-2.20,-1.66,-2.20,2.20,2.27,2.38,0.55,0.54,0.55
347.75,-1.56,-2.09,-1.56,-2.09,2.08,2.18,2.28,0.52,0.52,0.52
351.23,-1.46,-1.97,-1.46,-1.97,1.96,2.09,2.18,0.50,0.50,0.50
354.74,-1.36,-1.86,-1.36,-1.85,1.85,2.00,2.08,0.49,0.49,0.49
358.28,-1.26,-1.73,-1.27,-1.74,1.74,1.91,1.98,0.48,0.48,0.47
361.87,-1.18,-1.63,-1.18,-1.63,1.64,1.82,1.88,0.46,0.46,0.45
365.49,-1.09,-1.53,-1.10,-1.53,1.54,1.74,1.78,0.45,0.44,0.44
369.14,-1.02,-1.44,-1.03,-1.45,1.44,1.66,1.69,0.42,0.42,0.42
372.83,-0.96,-1.37,-0.95,-1.36,1.35,1.57,1.60,0.39,0.40,0.41
376.56,-0.88,-1.27,-0.89,-1.27,1.27,1.49,1.51,0.38,0.38,0.39
380.33,-0.81,-1.18,-0.82,-1.18,1.19,1.42,1.42,0.37,0.37,0.37
384.13,-0.75,-1.11,-0.75,-1.10,1.11,1.34,1.33,0.36,0.36,0.35
387.97,-0.69,-1.03,-0.69,-1.03,1.04,1.26,1.24,0.35,0.35,0.33
391.85,-0.64,-0.97,-0.65,-0.97,0.98,1.19,1.16,0.33,0.33,0.32
395.77,-0.60,-0.91,-0.60,-0.91,0.91,1.11,1.08,0.31,0.31,0.31
399.73,-0.56,-0.86,-0.56,-0.86,0.85,1.04,0.99,0.28,0.29,0.30
403.72,-0.51,-0.80,-0.51,-0.80,0.79,0.97,0.91,0.27,0.28,0.29
407.76,-0.45,-0.73,-0.45,-0.73,0.72,0.90,0.83,0.27,0.27,0.28
411.84,-0.39,-0.65,-0.40,-0.66,0.66,0.83,0.76,0.27,0.26,0.26
415.96,-0.34,-0.59,-0.35,-0.59,0.60,0.76,0.68,0.26,0.25,0.25
420.12,-0.30,-0.54,-0.30,-0.54,0.54,0.69,0.61,0.23,0.24,0.24
424.32,-0.25,-0.48,-0.25,-0.48,0.48,0.63,0.54,0.23,0.23,0.23
428.56,-0.20,-0.42,-0.20,-0.42,0.43,0.56,0.47,0.22,0.22,0.22
432.85,-0.16,-0.36,-0.17,-0.37,0.38,0.49,0.40,0.21,0.21,0.20
437.18,-0.13,-0.32,-0.14,-0.33,0.33,0.43,0.33,0.20,0.19,0.19
441.55,-0.12,-0.30,-0.12,-0.29,0.29,0.37,0.27,0.17,0.17,0.18
445.96,-0.10,-0.26,-0.10,-0.26,0.25,0.31,0.20,0.14,0.14,0.15
450.42,-0.07,-0.21,-0.08,-0.22,0.20,0.25,0.14,0.13,0.13,0.13
454.93,-0.05,-0.18,-0.05,-0.17,0.16,0.19,0.08,0.11,0.11,0.12
459.48,-0.01,-0.12,-0.02,-0.12,0.12,0.13,0.03,0.10,0.10,0.10
464.07,0.02,-0.07,0.01,-0.07,0.07,0.07,-0.03,0.09,0.09,0.08
468.71,0.04,-0.03,0.04,-0.02,0.03,0.02,-0.08,0.07,0.07,0.06
473.40,0.08,0.02,0.07,0.02,-0.02,-0.04,-0.13,0.06,0.05,0.05
478.13,0.10,0.07,0.09,0.06,-0.06,-0.09,-0.17,0.03,0.03,0.03
482.91,0.12,0.10,0.12,0.10,-0.11,-0.14,-0.22,0.01,0.01,0.02
487.74,0.15,0.15,0.15,0.15,-0.15,-0.18,-0.26,-0.00,-0.00,0.00
492.62,0.19,0.20,0.18,0.19,-0.19,-0.23,-0.30,-0.01,-0.01,-0.01
497.55,0.22,0.24,0.22,0.24,-0.24,-0.27,-0.34,-0.02,-0.02,-0.02
502.52,0.25,0.28,0.24,0.27,-0.28,-0.31,-0.37,-0.03,-0.03,-0.03
507.55,0.27,0.31,0.27,0.31,-0.31,-0.35,-0.40,-0.05,-0.04,-0.04
512.62,0.29,0.35,0.29,0.35,-0.34,-0.38,-0.43,-0.06,-0.05,-0.06
517.75,0.32,0.39,0.31,0.38,-0.37,-0.41,-0.46,-0.06,-0.06,-0.07
522.93,0.32,0.41,0.32,0.41,-0.40,-0.44,-0.48,-0.08,-0.08,-0.09
528.16,0.32,0.43,0.32,0.43,-0.42,-0.47,-0.50,-0.10,-0.10,-0.11
533.44,0.31,0.44,0.31,0.44,-0.44,-0.49,-0.52,-0.13,-0.13,-0.13
