frequency,raw,error,smoothed,error_smoothed,equalization,parametric_eq,fixed_band_eq,equalized_raw,equalized_smoothed,target
20.00,14.61,8.09,14.61,8.09,-8.10,-7.22,-3.52,6.52,6.51,6.52
20.20,14.60,8.08,14.61,8.08,-8.08,-7.22,-3.62,6.52,6.52,6.52
20.40,14.59,8.06,14.60,8.07,-8.07,-7.22,-3.72,6.53,6.53,6.53
20.61,14.58,8.05,14.59,8.06,-8.05,-7.22,-3.82,6.53,6.53,6.53
20.81,14.57,8.05,14.57,8.04,-8.04,-7.22,-3.93,6.54,6.54,6.53
21.02,14.56,8.04,14.56,8.03,-8.02,-7.22,-4.04,6.54,6.54,6.53
21.23,14.54,8.01,14.55,8.01,-8.01,-7.22,-4.15,6.54,6.54,6.54
21.44,14.53,7.99,14.53,7.99,-7.99,-7.22,-4.26,6.54,6.54,6.55
21.66,14.52,7.98,14.52,7.97,-7.98,-7.22,-4.38,6.55,6.54,6.55
21.87,14.50,7.95,14.51,7.96,-7.96,-7.22,-4.50,6.54,6.55,6.56
22.09,14.49,7.95,14.50,7.95,-7.95,-7.22,-4.62,6.55,6.55,6.55
22.31,14.48,7.93,14.48,7.93,-7.93,-7.22,-4.75,6.55,6.55,6.56
22.54,14.47,7.93,14.47,7.92,-7.92,-7.22,-4.88,6.56,6.55,6.54
22.76,14.45,7.90,14.46,7.91,-7.91,-7.22,-5.02,6.55,6.55,6.55
22.99,14.44,7.89,14.44,7.90,-7.90,-7.22,-5.16,6.55,6.55,6.55
23.22,14.43,7.89,14.43,7.88,-7.89,-7.22,-5.30,6.55,6.54,6.54
23.45,14.41,7.87,14.42,7.88,-7.87,-7.22,-5.44,6.54,6.55,6.54
23.69,14.40,7.86,14.41,7.87,-7.86,-7.22,-5.59,6.55,6.55,6.54
23.92,14.39,7.85,14.39,7.85,-7.84,-7.22,-5.74,6.55,6.55,6.54
24.16,14.37,7.83,14.37,7.83,-7.83,-7.22,-5.89,6.55,6.54,6.54
24.40,14.35,7.81,14.36,7.81,-7.81,-7.22,-6.05,6.54,6.54,6.55
24.65,14.33,7.79,14.34,7.79,-7.80,-7.22,-6.21,6.54,6.54,6.55
24.89,14.32,7.78,14.32,7.78,-7.78,-7.22,-6.37,6.54,6.54,6.55
25.14,14.30,7.77,14.31,7.77,-7.77,-7.22,-6.54,6.54,6.54,6.54
25.39,14.29,7.76,14.29,7.76,-7.75,-7.22,-6.70,6.54,6.54,6.53
25.65,14.27,7.74,14.27,7.74,-7.74,-7.22,-6.87,6.54,6.54,6.53
25.91,14.25,7.72,14.26,7.72,-7.72,-7.22,-7.04,6.53,6.54,6.53
26.16,14.24,7.70,14.24,7.70,-7.71,-7.22,-7.21,6.54,6.54,6.54
26.43,14.22,7.68,14.22,7.69,-7.69,-7.22,-7.38,6.54,6.53,6.54
26.69,14.20,7.68,14.21,7.67,-7.67,-7.22,-7.54,6.53,6.53,6.53
26.96,14.18,7.66,14.18,7.66,-7.65,-7.21,-7.71,6.53,6.53,6.53
27.23,14.16,7.64,14.16,7.64,-7.64,-7.21,-7.88,6.53,6.53,6.53
27.50,14.14,7.62,14.15,7.62,-7.62,-7.21,-8.04,6.53,6.53,6.53
27.77,14.12,7.59,14.13,7.60,-7.60,-7.21,-8.19,6.52,6.53,6.53
28.05,14.11,7.58,14.11,7.58,-7.58,-7.21,-8.35,6.53,6.53,6.53
28.33,14.08,7.56,14.09,7.56,-7.56,-7.21,-8.49,6.52,6.53,6.52
28.62,14.07,7.56,14.07,7.55,-7.54,-7.21,-8.63,6.53,6.53,6.52
28.90,14.04,7.52,14.05,7.52,-7.52,-7.21,-8.76,6.52,6.52,6.53
29.19,14.02,7.50,14.03,7.51,-7.51,-7.21,-8.88,6.52,6.52,6.53
29.48,14.00,7.49,14.00,7.48,-7.48,-7.20,-8.99,6.52,6.52,6.51
29.78,13.98,7.47,13.98,7.47,-7.46,-7.20,-9.09,6.52,6.52,6.51
30.08,13.95,7.43,13.96,7.44,-7.44,-7.20,-9.18,6.51,6.52,6.52
30.38,13.93,7.43,13.93,7.42,-7.42,-7.20,-9.25,6.52,6.52,6.51
30.68,13.90,7.39,13.91,7.39,-7.39,-7.20,-9.31,6.51,6.51,6.52
30.99,13.88,7.37,13.88,7.37,-7.37,-7.19,-9.36,6.52,6.51,6.51
31.30,13.85,7.34,13.86,7.34,-7.34,-7.19,-9.38,6.51,6.51,6.51
31.61,13.83,7.31,13.83,7.32,-7.32,-7.19,-9.40,6.52,6.51,6.52
31.93,13.80,7.30,13.81,7.29,-7.29,-7.19,-9.40,6.51,6.51,6.51
32.24,13.78,7.27,13.78,7.27,-7.27,-7.19,-9.39,6.52,6.52,6.52
32.57,13.75,7.24,13.76,7.25,-7.24,-7.18,-9.36,6.51,6.51,6.51
32.89,13.73,7.22,13.73,7.22,-7.22,-7.18,-9.32,6.52,6.51,6.51
33.22,13.70,7.20,13.70,7.20,-7.20,-7.18,-9.27,6.51,6.51,6.51
33.55,13.67,7.17,13.68,7.17,-7.18,-7.17,-9.21,6.50,6.50,6.51
33.89,13.65,7.15,13.65,7.15,-7.16,-7.17,-9.14,6.50,6.50,6.50
34.23,13.62,7.14,13.63,7.14,-7.14,-7.17,-9.06,6.49,6.49,6.49
34.57,13.60,7.13,13.60,7.12,-7.12,-7.16,-8.97,6.48,6.48,6.48
34.92,13.57,7.11,13.58,7.11,-7.11,-7.16,-8.87,6.47,6.47,6.46
35.27,13.54,7.09,13.55,7.09,-7.09,-7.15,-8.77,6.45,6.45,6.46
35.62,13.51,7.09,13.51,7.08,-7.08,-7.15,-8.67,6.43,6.43,6.43
35.97,13.47,7.06,13.48,7.07,-7.07,-7.14,-8.56,6.40,6.41,6.41
36.33,13.44,7.06,13.45,7.06,-7.06,-7.14,-8.45,6.38,6.38,6.39
36.70,13.41,7.05,13.42,7.05,-7.05,-7.13,-8.34,6.36,6.36,6.36
37.06,13.39,7.05,13.39,7.05,-7.05,-7.13,-8.23,6.35,6.34,6.34
37.43,13.35,7.04,13.36,7.04,-7.04,-7.12,-8.12,6.31,6.32,6.32
37.81,13.33,7.04,13.33,7.03,-7.03,-7.11,-8.01,6.30,6.30,6.29
38.19,13.29,7.02,13.30,7.03,-7.03,-7.11,-7.90,6.27,6.27,6.28
38.57,13.27,7.02,13.27,7.02,-7.02,-7.10,-7.79,6.25,6.25,6.25
38.95,13.24,7.02,13.24,7.01,-7.01,-7.09,-7.69,6.23,6.23,6.23
39.34,13.21,7.01,13.21,7.01,-7.00,-7.08,-7.59,6.21,6.21,6.20
39.74,13.17,7.00,13.18,7.00,-6.99,-7.08,-7.49,6.18,6.19,6.18
40.14,13.14,6.98,13.14,6.98,-6.98,-7.07,-7.40,6.16,6.16,6.16
40.54,13.10,6.96,13.11,6.96,-6.97,-7.06,-7.31,6.14,6.14,6.15
40.94,13.07,6.95,13.08,6.95,-6.96,-7.05,-7.23,6.12,6.12,6.12
41.35,13.04,6.94,13.04,6.94,-6.94,-7.04,-7.15,6.10,6.10,6.10
41.76,13.01,6.94,13.01,6.93,-6.93,-7.03,-7.07,6.09,6.08,6.08
42.18,12.97,6.91,12.97,6.91,-6.92,-7.02,-7.00,6.06,6.06,6.06
42.60,12.93,6.90,12.94,6.90,-6.90,-7.01,-6.93,6.03,6.04,6.04
43.03,12.90,6.89,12.90,6.89,-6.89,-7.00,-6.87,6.02,6.02,6.02
43.46,12.87,6.88,12.87,6.88,-6.87,-6.99,-6.82,6.00,6.00,5.99
43.90,12.83,6.86,12.83,6.86,-6.86,-6.98,-6.77,5.98,5.98,5.97
44.33,12.79,6.85,12.80,6.85,-6.84,-6.97,-6.72,5.95,5.95,5.95
44.78,12.75,6.83,12.76,6.83,-6.83,-6.96,-6.68,5.92,5.93,5.93
45.23,12.72,6.81,12.72,6.81,-6.82,-6.94,-6.64,5.91,5.90,5.92
45.68,12.68,6.80,12.69,6.80,-6.81,-6.93,-6.61,5.88,5.88,5.88
46.13,12.65,6.80,12.65,6.80,-6.79,-6.92,-6.59,5.86,5.86,5.85
46.60,12.61,6.79,12.61,6.79,-6.78,-6.91,-6.57,5.83,5.83,5.82
47.06,12.57,6.77,12.58,6.78,-6.78,-6.90,-6.55,5.80,5.80,5.80
47.53,12.53,6.76,12.53,6.77,-6.77,-6.88,-6.54,5.76,5.76,5.77
48.01,12.49,6.77,12.49,6.76,-6.77,-6.87,-6.53,5.73,5.73,5.72
48.49,12.45,6.76,12.45,6.76,-6.77,-6.86,-6.52,5.69,5.69,5.69
48.97,12.41,6.76,12.41,6.76,-6.76,-6.85,-6.52,5.65,5.65,5.65
49.46,12.37,6.75,12.37,6.76,-6.76,-6.84,-6.53,5.61,5.61,5.62
49.96,12.33,6.78,12.33,6.77,-6.76,-6.83,-6.53,5.57,5.57,5.56
50.46,12.29,6.77,12.29,6.77,-6.76,-6.82,-6.55,5.53,5.53,5.53
50.96,12.25,6.76,12.25,6.76,-6.76,-6.81,-6.56,5.49,5.49,5.49
51.47,12.21,6.75,12.22,6.76,-6.76,-6.80,-6.58,5.46,5.46,5.46
51.99,12.17,6.76,12.17,6.75,-6.76,-6.79,-6.59,5.42,5.42,5.42
52.51,12.13,6.75,12.13,6.75,-6.75,-6.78,-6.62,5.38,5.38,5.38
53.03,12.08,6.74,12.09,6.75,-6.75,-6.77,-6.64,5.34,5.34,5.35
53.56,12.04,6.74,12.04,6.74,-6.74,-6.76,-6.66,5.30,5.30,5.30
54.10,12.00,6.75,12.00,6.74,-6.74,-6.76,-6.69,5.27,5.26,5.26
54.64,11.95,6.73,11.96,6.74,-6.73,-6.75,-6.71,5.22,5.23,5.22
55.18,11.91,6.73,11.91,6.73,-6.72,-6.74,-6.74,5.19,5.19,5.19
55.74,11.86,6.72,11.87,6.71,-6.72,-6.73,-6.76,5.15,5.15,5.15
56.29,11.82,6.70,11.83,6.70,-6.70,-6.73,-6.78,5.12,5.12,5.12
56.86,11.78,6.68,11.78,6.69,-6.69,-6.72,-6.80,5.09,5.09,5.10
57.42,11.74,6.69,11.74,6.68,-6.68,-6.72,-6.82,5.07,5.07,5.05
58.00,11.69,6.67,11.70,6.67,-6.66,-6.71,-6.84,5.03,5.04,5.02
58.58,11.65,6.65,11.65,6.65,-6.65,-6.70,-6.85,5.01,5.00,5.00
59.16,11.60,6.63,11.60,6.63,-6.64,-6.70,-6.86,4.97,4.96,4.97
59.76,11.55,6.61,11.56,6.62,-6.63,-6.69,-6.86,4.92,4.92,4.94
60.35,11.50,6.61,11.51,6.61,-6.63,-6.68,-6.86,4.88,4.88,4.89
60.96,11.46,6.62,11.46,6.62,-6.62,-6.67,-6.86,4.84,4.84,4.85
61.57,11.41,6.63,11.41,6.62,-6.62,-6.67,-6.85,4.80,4.79,4.79
62.18,11.35,6.62,11.36,6.63,-6.61,-6.66,-6.84,4.74,4.75,4.73
62.80,11.31,6.63,11.31,6.62,-6.61,-6.65,-6.82,4.70,4.70,4.69
63.43,11.25,6.61,11.26,6.61,-6.61,-6.64,-6.79,4.65,4.65,4.64
64.07,11.20,6.60,11.21,6.60,-6.60,-6.63,-6.76,4.60,4.60,4.61
64.71,11.15,6.58,11.15,6.59,-6.59,-6.62,-6.73,4.56,4.56,4.57
65.35,11.10,6.58,11.11,6.58,-6.58,-6.61,-6.69,4.52,4.52,4.52
66.01,11.05,6.57,11.05,6.57,-6.57,-6.59,-6.65,4.49,4.49,4.48
66.67,11.00,6.55,11.00,6.55,-6.55,-6.58,-6.60,4.45,4.45,4.46
67.33,10.94,6.54,10.95,6.54,-6.54,-6.57,-6.55,4.40,4.41,4.41
68.01,10.89,6.53,10.90,6.53,-6.53,-6.55,-6.49,4.37,4.37,4.37
68.69,10.84,6.52,10.84,6.52,-6.51,-6.54,-6.44,4.33,4.33,4.32
69.37,10.79,6.50,10.79,6.50,-6.50,-6.52,-6.37,4.29,4.29,4.29
70.07,10.73,6.48,10.74,6.48,-6.49,-6.50,-6.31,4.25,4.25,4.26
70.77,10.68,6.47,10.68,6.47,-6.48,-6.49,-6.25,4.21,4.21,4.22
71.48,10.63,6.46,10.63,6.46,-6.46,-6.47,-6.18,4.17,4.17,4.17
72.19,10.57,6.45,10.58,6.45,-6.45,-6.45,-6.12,4.12,4.13,4.13
72.91,10.52,6.44,10.52,6.44,-6.44,-6.43,-6.05,4.09,4.08,4.08
73.64,10.46,6.43,10.46,6.43,-6.43,-6.41,-5.98,4.04,4.04,4.03
74.38,10.40,6.41,10.41,6.41,-6.41,-6.38,-5.92,3.99,4.00,4.00
75.12,10.35,6.40,10.35,6.40,-6.39,-6.36,-5.85,3.96,3.96,3.96
75.87,10.30,6.38,10.30,6.37,-6.37,-6.34,-5.79,3.93,3.93,3.93
76.63,10.24,6.36,10.25,6.35,-6.35,-6.31,-5.73,3.89,3.89,3.89
77.40,10.18,6.32,10.19,6.33,-6.33,-6.29,-5.67,3.86,3.86,3.87
78.17,10.13,6.31,10.13,6.30,-6.30,-6.26,-5.61,3.83,3.83,3.82
78.95,10.07,6.27,10.08,6.27,-6.28,-6.23,-5.56,3.80,3.80,3.80
79.74,10.02,6.25,10.02,6.25,-6.25,-6.21,-5.51,3.78,3.77,3.78
80.54,9.96,6.22,9.97,6.22,-6.22,-6.18,-5.46,3.74,3.75,3.74
81.35,9.91,6.21,9.91,6.19,-6.19,-6.15,-5.41,3.72,3.72,3.71
82.16,9.85,6.16,9.85,6.16,-6.16,-6.12,-5.37,3.69,3.69,3.69
82.98,9.78,6.13,9.79,6.13,-6.14,-6.09,-5.33,3.65,3.66,3.66
83.81,9.73,6.10,9.73,6.10,-6.11,-6.06,-5.30,3.63,3.62,3.63
84.65,9.67,6.08,9.67,6.08,-6.08,-6.03,-5.27,3.60,3.60,3.59
85.50,9.61,6.05,9.62,6.05,-6.05,-6.00,-5.24,3.57,3.57,3.56
86.35,9.56,6.03,9.56,6.02,-6.02,-5.97,-5.22,3.55,3.54,3.54
87.22,9.49,5.98,9.50,5.99,-5.99,-5.94,-5.20,3.51,3.51,3.51
88.09,9.43,5.96,9.44,5.96,-5.96,-5.90,-5.18,3.48,3.48,3.47
88.97,9.37,5.92,9.37,5.92,-5.93,-5.87,-5.17,3.45,3.44,3.45
89.86,9.31,5.90,9.31,5.90,-5.90,-5.84,-5.16,3.42,3.42,3.41
90.76,9.25,5.86,9.25,5.87,-5.87,-5.80,-5.16,3.39,3.39,3.39
91.66,9.19,5.85,9.19,5.84,-5.84,-5.77,-5.15,3.36,3.36,3.35
92.58,9.13,5.81,9.13,5.81,-5.81,-5.74,-5.16,3.32,3.32,3.32
93.51,9.07,5.78,9.08,5.78,-5.78,-5.70,-5.16,3.29,3.29,3.29
94.44,9.01,5.75,9.01,5.75,-5.76,-5.67,-5.17,3.26,3.26,3.27
95.39,8.95,5.73,8.95,5.73,-5.73,-5.64,-5.19,3.22,3.22,3.22
96.34,8.88,5.71,8.89,5.71,-5.71,-5.60,-5.20,3.17,3.18,3.18
97.30,8.82,5.68,8.82,5.69,-5.69,-5.57,-5.22,3.14,3.14,3.14
98.28,8.76,5.67,8.76,5.67,-5.66,-5.53,-5.25,3.10,3.10,3.10
99.26,8.69,5.64,8.70,5.65,-5.64,-5.50,-5.27,3.06,3.06,3.05
100.25,8.64,5.63,8.64,5.62,-5.61,-5.47,-5.30,3.03,3.02,3.02
101.25,8.57,5.58,8.57,5.59,-5.59,-5.44,-5.33,2.99,2.98,2.99
102.27,8.50,5.55,8.51,5.56,-5.56,-5.40,-5.36,2.94,2.95,2.95
103.29,8.44,5.53,8.44,5.53,-5.53,-5.37,-5.40,2.91,2.91,2.92
104.32,8.38,5.50,8.38,5.50,-5.50,-5.34,-5.43,2.88,2.88,2.88
105.37,8.31,5.47,8.32,5.47,-5.47,-5.31,-5.47,2.85,2.85,2.84
106.42,8.25,5.44,8.25,5.44,-5.43,-5.28,-5.51,2.82,2.82,2.82
107.48,8.18,5.41,8.18,5.41,-5.40,-5.25,-5.55,2.78,2.78,2.77
108.56,8.11,5.37,8.11,5.37,-5.37,-5.22,-5.58,2.74,2.74,2.75
109.64,8.04,5.33,8.05,5.34,-5.34,-5.19,-5.62,2.70,2.71,2.71
110.74,7.97,5.30,7.98,5.31,-5.31,-5.16,-5.66,2.66,2.67,2.67
111.85,7.92,5.29,7.92,5.28,-5.28,-5.13,-5.69,2.64,2.63,2.64
112.97,7.85,5.26,7.85,5.26,-5.26,-5.10,-5.72,2.60,2.59,2.59
114.10,7.78,5.23,7.79,5.24,-5.24,-5.08,-5.75,2.55,2.55,2.56
115.24,7.71,5.21,7.72,5.21,-5.22,-5.05,-5.78,2.50,2.50,2.50
116.39,7.65,5.21,7.65,5.20,-5.20,-5.03,-5.80,2.45,2.45,2.45
117.55,7.58,5.19,7.59,5.19,-5.19,-5.00,-5.82,2.40,2.40,2.39
118.73,7.52,5.18,7.52,5.18,-5.17,-4.98,-5.84,2.35,2.35,2.34
119.92,7.44,5.16,7.45,5.16,-5.16,-4.96,-5.85,2.29,2.29,2.29
121.12,7.38,5.14,7.38,5.14,-5.14,-4.94,-5.86,2.24,2.24,2.24
122.33,7.31,5.13,7.31,5.13,-5.13,-4.92,-5.86,2.18,2.18,2.18
123.55,7.24,5.11,7.24,5.12,-5.12,-4.90,-5.85,2.13,2.13,2.13
124.79,7.17,5.11,7.17,5.10,-5.11,-4.88,-5.84,2.07,2.06,2.07
126.03,7.09,5.09,7.10,5.09,-5.10,-4.87,-5.83,2.00,2.00,2.01
127.29,7.03,5.09,7.03,5.08,-5.09,-4.85,-5.80,1.95,1.94,1.95
128.57,6.96,5.08,6.96,5.08,-5.08,-4.83,-5.78,1.89,1.89,1.89
129.85,6.89,5.06,6.90,5.07,-5.06,-4.82,-5.75,1.83,1.84,1.83
131.15,6.83,5.06,6.83,5.06,-5.05,-4.81,-5.71,1.78,1.78,1.77
132.46,6.76,5.04,6.76,5.04,-5.03,-4.80,-5.67,1.73,1.73,1.72
133.79,6.69,5.02,6.70,5.02,-5.02,-4.79,-5.62,1.68,1.68,1.68
135.12,6.63,5.00,6.63,5.00,-5.00,-4.78,-5.57,1.64,1.64,1.63
136.48,6.57,4.97,6.57,4.97,-4.98,-4.77,-5.52,1.60,1.60,1.61
137.84,6.51,4.95,6.51,4.95,-4.95,-4.76,-5.46,1.56,1.56,1.56
139.22,6.45,4.94,6.45,4.93,-4.93,-4.76,-5.40,1.53,1.53,1.52
140.61,6.39,4.90,6.40,4.91,-4.91,-4.75,-5.34,1.49,1.49,1.50
142.02,6.35,4.89,6.35,4.89,-4.89,-4.75,-5.27,1.47,1.46,1.46
143.44,6.30,4.87,6.30,4.87,-4.87,-4.74,-5.20,1.44,1.44,1.43
144.87,6.25,4.84,6.26,4.85,-4.85,-4.74,-5.14,1.41,1.41,1.41
146.32,6.21,4.83,6.21,4.83,-4.83,-4.74,-5.07,1.38,1.38,1.38
147.78,6.17,4.82,6.17,4.82,-4.82,-4.74,-5.00,1.35,1.35,1.35
149.26,6.13,4.81,6.14,4.81,-4.81,-4.73,-4.93,1.32,1.32,1.33
150.75,6.09,4.80,6.10,4.80,-4.80,-4.73,-4.87,1.29,1.30,1.29
152.26,6.07,4.80,6.07,4.80,-4.80,-4.74,-4.80,1.28,1.27,1.27
153.78,6.03,4.80,6.04,4.79,-4.80,-4.74,-4.73,1.24,1.24,1.24
155.32,6.00,4.79,6.00,4.79,-4.80,-4.74,-4.67,1.21,1.21,1.21
156.88,5.96,4.79,5.97,4.79,-4.80,-4.74,-4.61,1.17,1.17,1.18
158.44,5.93,4.80,5.94,4.80,-4.80,-4.74,-4.55,1.13,1.14,1.14
160.03,5.91,4.81,5.91,4.80,-4.80,-4.74,-4.49,1.11,1.10,1.10
161.63,5.87,4.80,5.87,4.81,-4.80,-4.74,-4.44,1.07,1.07,1.07
163.24,5.83,4.80,5.84,4.81,-4.81,-4.75,-4.38,1.03,1.03,1.03
164.88,5.80,4.81,5.80,4.81,-4.80,-4.75,-4.33,1.00,1.00,0.99
166.53,5.76,4.81,5.76,4.81,-4.80,-4.75,-4.28,0.96,0.96,0.95
168.19,5.71,4.79,5.72,4.80,-4.79,-4.75,-4.24,0.92,0.92,0.92
169.87,5.67,4.79,5.67,4.78,-4.78,-4.75,-4.20,0.89,0.89,0.89
171.57,5.62,4.76,5.63,4.77,-4.77,-4.75,-4.16,0.85,0.86,0.86
173.29,5.58,4.76,5.58,4.76,-4.76,-4.75,-4.12,0.83,0.82,0.82
175.02,5.52,4.74,5.53,4.74,-4.74,-4.75,-4.09,0.79,0.79,0.79
176.77,5.47,4.72,5.48,4.72,-4.72,-4.75,-4.06,0.75,0.76,0.75
178.54,5.42,4.70,5.42,4.70,-4.70,-4.75,-4.04,0.72,0.72,0.73
180.32,5.37,4.69,5.37,4.68,-4.68,-4.74,-4.01,0.69,0.69,0.69
182.13,5.31,4.66,5.32,4.66,-4.66,-4.74,-3.99,0.65,0.66,0.65
183.95,5.26,4.64,5.27,4.64,-4.64,-4.73,-3.97,0.62,0.62,0.62
185.79,5.21,4.62,5.21,4.62,-4.62,-4.73,-3.96,0.59,0.59,0.59
187.65,5.16,4.61,5.16,4.60,-4.61,-4.72,-3.95,0.56,0.56,0.56
189.52,5.10,4.59,5.11,4.58,-4.59,-4.71,-3.94,0.52,0.52,0.52
191.42,5.06,4.56,5.06,4.57,-4.57,-4.70,-3.93,0.49,0.49,0.50
193.33,5.01,4.55,5.01,4.55,-4.56,-4.69,-3.93,0.46,0.46,0.46
195.27,4.96,4.54,4.97,4.54,-4.54,-4.67,-3.93,0.42,0.43,0.42
197.22,4.92,4.54,4.92,4.53,-4.53,-4.65,-3.93,0.40,0.39,0.39
199.19,4.87,4.52,4.87,4.52,-4.51,-4.64,-3.93,0.36,0.36,0.36
201.18,4.82,4.49,4.83,4.50,-4.50,-4.62,-3.94,0.33,0.33,0.33
203.19,4.78,4.48,4.78,4.48,-4.48,-4.60,-3.94,0.31,0.30,0.31
205.23,4.73,4.46,4.73,4.45,-4.46,-4.57,-3.95,0.28,0.28,0.28
207.28,4.68,4.43,4.69,4.43,-4.44,-4.55,-3.96,0.25,0.25,0.25
209.35,4.63,4.41,4.63,4.41,-4.41,-4.52,-3.97,0.22,0.22,0.22
211.44,4.58,4.39,4.59,4.39,-4.39,-4.49,-3.98,0.20,0.20,0.20
213.56,4.53,4.36,4.53,4.36,-4.36,-4.46,-3.99,0.17,0.17,0.17
215.69,4.48,4.34,4.48,4.33,-4.34,-4.43,-4.00,0.15,0.15,0.15
217.85,4.42,4.30,4.43,4.31,-4.31,-4.39,-4.01,0.12,0.12,0.13
220.03,4.37,4.28,4.37,4.28,-4.27,-4.36,-4.02,0.10,0.10,0.09
222.23,4.31,4.24,4.31,4.24,-4.24,-4.32,-4.03,0.08,0.08,0.07
224.45,4.25,4.20,4.25,4.20,-4.20,-4.28,-4.04,0.06,0.05,0.05
226.70,4.18,4.16,4.19,4.16,-4.16,-4.24,-4.04,0.03,0.03,0.03
228.96,4.12,4.11,4.13,4.11,-4.11,-4.20,-4.05,0.01,0.01,0.02
231.25,4.06,4.07,4.06,4.06,-4.07,-4.15,-4.05,-0.00,-0.01,-0.00
233.57,3.99,4.02,3.99,4.02,-4.02,-4.10,-4.05,-0.02,-0.02,-0.02
235.90,3.92,3.98,3.92,3.97,-3.97,-4.05,-4.04,-0.04,-0.04,-0.05
238.26,3.85,3.93,3.86,3.92,-3.92,-4.01,-4.03,-0.06,-0.06,-0.07
240.64,3.78,3.85,3.79,3.87,-3.86,-3.95,-4.02,-0.08,-0.08,-0.07
243.05,3.72,3.81,3.72,3.81,-3.81,-3.90,-4.00,-0.09,-0.09,-0.09
245.48,3.64,3.75,3.65,3.75,-3.75,-3.85,-3.98,-0.11,-0.11,-0.11
247.93,3.57,3.70,3.58,3.70,-3.70,-3.79,-3.95,-0.12,-0.12,-0.13
250.41,3.50,3.64,3.50,3.64,-3.64,-3.74,-3.92,-0.13,-0.13,-0.13
252.92,3.43,3.58,3.43,3.58,-3.58,-3.68,-3.89,-0.15,-0.15,-0.14
255.45,3.36,3.52,3.36,3.52,-3.52,-3.62,-3.85,-0.16,-0.16,-0.16
258.00,3.29,3.46,3.30,3.46,-3.46,-3.56,-3.80,-0.17,-0.17,-0.17
260.58,3.23,3.41,3.23,3.41,-3.41,-3.50,-3.75,-0.17,-0.18,-0.17
263.19,3.16,3.35,3.17,3.35,-3.35,-3.44,-3.70,-0.19,-0.18,-0.19
265.82,3.10,3.30,3.10,3.30,-3.30,-3.38,-3.65,-0.19,-0.19,-0.19
268.48,3.03,3.25,3.03,3.24,-3.24,-3.31,-3.59,-0.21,-0.21,-0.21
271.16,2.96,3.18,2.97,3.19,-3.19,-3.25,-3.52,-0.22,-0.22,-0.22
273.87,2.89,3.13,2.90,3.13,-3.13,-3.19,-3.45,-0.24,-0.24,-0.23
276.61,2.83,3.08,2.83,3.08,-3.08,-3.12,-3.38,-0.24,-0.25,-0.25
279.38,2.76,3.03,2.77,3.03,-3.02,-3.06,-3.31,-0.26,-0.25,-0.26
282.17,2.70,2.97,2.70,2.97,-2.97,-2.99,-3.23,-0.26,-0.27,-0.27
284.99,2.63,2.91,2.63,2.91,-2.91,-2.93,-3.16,-0.28,-0.28,-0.27
287.84,2.56,2.83,2.57,2.85,-2.85,-2.86,-3.08,-0.29,-0.28,-0.27
290.72,2.51,2.81,2.51,2.79,-2.80,-2.80,-2.99,-0.28,-0.29,-0.29
293.63,2.44,2.74,2.45,2.74,-2.74,-2.73,-2.91,-0.30,-0.29,-0.30
296.57,2.38,2.69,2.39,2.69,-2.68,-2.67,-2.83,-0.30,-0.30,-0.30
299.53,2.32,2.63,2.32,2.63,-2.62,-2.60,-2.74,-0.30,-0.30,-0.31
302.53,2.25,2.56,2.26,2.57,-2.57,-2.53,-2.66,-0.31,-0.31,-0.31
305.55,2.19,2.51,2.19,2.50,-2.51,-2.47,-2.57,-0.31,-0.31,-0.31
308.61,2.12,2.43,2.13,2.44,-2.45,-2.40,-2.49,-0.32,-0.31,-0.31
311.69,2.07,2.38,2.07,2.38,-2.38,-2.34,-2.40,-0.31,-0.31,-0.31
314.81,2.01,2.33,2.01,2.32,-2.32,-2.27,-2.32,-0.31,-0.31,-0.31
317.96,1.94,2.26,1.95,2.27,-2.26,-2.21,-2.24,-0.32,-0.31,-0.32
321.14,1.89,2.20,1.89,2.20,-2.20,-2.14,-2.15,-0.30,-0.31,-0.31
324.35,1.82,2.14,1.83,2.13,-2.14,-2.08,-2.07,-0.31,-0.31,-0.31
327.59,1.76,2.06,1.77,2.07,-2.07,-2.01,-1.99,-0.31,-0.31,-0.30
330.87,1.70,2.01,1.70,2.01,-2.01,-1.95,-1.91,-0.31,-0.31,-0.31
334.18,1.64,1.96,1.64,1.95,-1.95,-1.88,-1.82,-0.30,-0.30,-0.31
337.52,1.58,1.89,1.58,1.89,-1.89,-1.82,-1.74,-0.30,-0.30,-0.30
340.90,1.52,1.82,1.52,1.82,-1.82,-1.76,-1.67,-0.30,-0.30,-0.30
344.30,1.46,1.76,1.47,1.76,-1.76,-1.69,-1.59,-0.30,-0.30,-0.30
347.75,1.40,1.70,1.41,1.70,-1.70,-1.63,-1.51,-0.30,-0.30,-0.29
351.23,1.35,1.66,1.35,1.64,-1.64,-1.57,-1.44,-0.29,-0.30,-0.30
354.74,1.28,1.57,1.29,1.58,-1.58,-1.51,-1.36,-0.30,-0.30,-0.29
358.28,1.22,1.52,1.23,1.53,-1.52,-1.45,-1.29,-0.30,-0.30,-0.30
361.87,1.17,1.47,1.17,1.46,-1.47,-1.38,-1.21,-0.29,-0.30,-0.30
365.49,1.11,1.41,1.11,1.41,-1.41,-1.32,-1.14,-0.30,-0.30,-0.29
369.14,1.05,1.35,1.06,1.35,-1.36,-1.26,-1.07,-0.30,-0.30,-0.29
372.83,1.00,1.30,1.00,1.30,-1.30,-1.20,-1.00,-0.29,-0.30,-0.30
376.56,0.94,1.25,0.94,1.25,-1.24,-1.14,-0.93,-0.30,-0.30,-0.31
380.33,0.88,1.18,0.89,1.19,-1.19,-1.09,-0.87,-0.30,-0.30,-0.30
384.13,0.83,1.14,0.83,1.13,-1.13,-1.03,-0.80,-0.29,-0.30,-0.30
387.97,0.77,1.07,0.77,1.07,-1.07,-0.97,-0.73,-0.30,-0.30,-0.29
391.85,0.71,1.01,0.72,1.01,-1.01,-0.91,-0.67,-0.30,-0.29,-0.29
395.77,0.66,0.96,0.66,0.95,-0.95,-0.85,-0.60,-0.29,-0.29,-0.30
399.73,0.60,0.89,0.60,0.89,-0.89,-0.80,-0.54,-0.29,-0.29,-0.29
403.72,0.54,0.82,0.55,0.83,-0.83,-0.74,-0.48,-0.29,-0.28,-0.28
407.76,0.49,0.77,0.49,0.77,-0.78,-0.68,-0.42,-0.28,-0.28,-0.28
411.84,0.44,0.73,0.44,0.72,-0.72,-0.63,-0.36,-0.27,-0.28,-0.28
415.96,0.38,0.66,0.38,0.66,-0.66,-0.57,-0.30,-0.28,-0.28,-0.27
420.12,0.32,0.61,0.33,0.61,-0.61,-0.52,-0.24,-0.28,-0.28,-0.28
424.32,0.27,0.56,0.27,0.55,-0.55,-0.47,-0.18,-0.28,-0.28,-0.28
428.56,0.22,0.49,0.22,0.50,-0.50,-0.41,-0.13,-0.27,-0.27,-0.27
432.85,0.17,0.44,0.17,0.44,-0.44,-0.36,-0.07,-0.27,-0.27,-0.27
437.18,0.11,0.39,0.12,0.39,-0.39,-0.31,-0.02,-0.28,-0.27,-0.28
441.55,0.06,0.34,0.06,0.34,-0.34,-0.25,0.03,-0.27,-0.28,-0.28
445.96,0.00,0.28,0.01,0.29,-0.28,-0.20,0.08,-0.28,-0.28,-0.28
450.42,-0.05,0.23,-0.05,0.23,-0.23,-0.15,0.13,-0.28,-0.28,-0.28
454.93,-0.11,0.18,-0.10,0.18,-0.18,-0.10,0.18,-0.28,-0.28,-0.28
459.48,-0.16,0.13,-0.15,0.12,-0.12,-0.05,0.23,-0.28,-0.28,-0.28
464.07,-0.21,0.07,-0.21,0.07,-0.07,0.00,0.27,-0.27,-0.27,-0.27
468.71,-0.26,0.01,-0.26,0.01,-0.01,0.05,0.31,-0.27,-0.27,-0.26
473.40,-0.31,-0.04,-0.31,-0.04,0.04,0.10,0.36,-0.27,-0.27,-0.26
478.13,-0.37,-0.10,-0.36,-0.09,0.09,0.15,0.40,-0.27,-0.27,-0.26
482.91,-0.41,-0.14,-0.41,-0.14,0.14,0.20,0.44,-0.26,-0.27,-0.27
487.74,-0.46,-0.19,-0.46,-0.19,0.19,0.25,0.47,-0.26,-0.27,-0.27
492.62,-0.52,-0.25,-0.51,-0.24,0.24,0.30,0.51,-0.27,-0.26,-0.27
497.55,-0.56,-0.29,-0.56,-0.29,0.30,0.35,0.54,-0.26,-0.26,-0.27
502.52,-0.61,-0.34,-0.61,-0.34,0.35,0.39,0.57,-0.26,-0.27,-0.27
