frequency,raw,error,smoothed,error_smoothed,equalization,parametric_eq,fixed_band_eq,equalized_raw,equalized_smoothed,target
20.00,-2.77,-0.59,-2.77,-0.58,0.60,-0.28,-0.30,-2.17,-2.17,-2.18
20.20,-2.74,-0.56,-2.74,-0.56,0.56,-0.30,-0.31,-2.18,-2.18,-2.18
20.40,-2.71,-0.53,-2.71,-0.53,0.52,-0.31,-0.31,-2.19,-2.19,-2.18
20.61,-2.67,-0.49,-2.67,-0.49,0.48,-0.32,-0.32,-2.19,-2.20,-2.18
20.81,-2.64,-0.46,-2.63,-0.45,0.44,-0.33,-0.33,-2.20,-2.20,-2.18
21.02,-2.59,-0.41,-2.59,-0.41,0.40,-0.34,-0.34,-2.19,-2.19,-2.18
21.23,-2.54,-0.36,-2.54,-0.36,0.36,-0.36,-0.35,-2.18,-2.19,-2.18
21.44,-2.50,-0.31,-2.50,-0.31,0.31,-0.37,-0.36,-2.18,-2.18,-2.18
21.66,-2.45,-0.27,-2.45,-0.27,0.27,-0.38,-0.37,-2.18,-2.18,-2.18
21.87,-2.42,-0.23,-2.41,-0.23,0.23,-0.39,-0.38,-2.19,-2.18,-2.18
22.09,-2.36,-0.18,-2.37,-0.18,0.19,-0.41,-0.39,-2.17,-2.18,-2.18
22.31,-2.33,-0.15,-2.33,-0.15,0.15,-0.42,-0.40,-2.18,-2.18,-2.18
22.54,-2.30,-0.12,-2.30,-0.11,0.12,-0.43,-0.41,-2.18,-2.18,-2.18
22.76,-2.27,-0.09,-2.27,-0.09,0.09,-0.44,-0.42,-2.18,-2.18,-2.18
22.99,-2.24,-0.06,-2.24,-0.06,0.06,-0.46,-0.43,-2.18,-2.18,-2.18
23.22,-2.21,-0.03,-2.21,-0.03,0.02,-0.47,-0.45,-2.19,-2.18,-2.18
23.45,-2.18,0.00,-2.18,0.01,-0.01,-0.48,-0.46,-2.19,-2.19,-2.18
23.69,-2.14,0.04,-2.14,0.04,-0.05,-0.49,-0.47,-2.18,-2.19,-2.18
23.92,-2.11,0.08,-2.10,0.08,-0.08,-0.51,-0.48,-2.19,-2.19,-2.18
24.16,-2.06,0.12,-2.06,0.13,-0.13,-0.52,-0.50,-2.19,-2.18,-2.18
24.40,-2.01,0.18,-2.01,0.17,-0.18,-0.53,-0.51,-2.19,-2.19,-2.18
24.65,-1.95,0.23,-1.96,0.23,-0.23,-0.55,-0.52,-2.18,-2.19,-2.18
24.89,-1.92,0.27,-1.90,0.28,-0.28,-0.56,-0.53,-2.20,-2.19,-2.18
25.14,-1.84,0.35,-1.85,0.34,-0.34,-0.57,-0.55,-2.18,-2.18,-2.18
25.39,-1.79,0.40,-1.79,0.39,-0.39,-0.59,-0.56,-2.18,-2.18,-2.18
25.65,-1.73,0.45,-1.73,0.46,-0.45,-0.60,-0.58,-2.18,-2.18,-2.18
25.91,-1.68,0.50,-1.68,0.51,-0.50,-0.61,-0.59,-2.18,-2.18,-2.18
26.16,-1.62,0.56,-1.63,0.56,-0.55,-0.63,-0.60,-2.17,-2.18,-2.18
26.43,-1.59,0.59,-1.58,0.60,-0.60,-0.64,-0.62,-2.19,-2.18,-2.18
26.69,-1.54,0.64,-1.54,0.64,-0.64,-0.65,-0.63,-2.18,-2.18,-2.18
26.96,-1.50,0.68,-1.51,0.68,-0.68,-0.67,-0.65,-2.18,-2.19,-2.18
27.23,-1.48,0.70,-1.47,0.72,-0.71,-0.68,-0.66,-2.19,-2.18,-2.18
27.50,-1.43,0.75,-1.44,0.75,-0.74,-0.69,-0.68,-2.17,-2.18,-2.18
27.77,-1.41,0.77,-1.41,0.77,-0.77,-0.71,-0.69,-2.18,-2.18,-2.18
28.05,-1.39,0.79,-1.39,0.79,-0.79,-0.72,-0.70,-2.18,-2.18,-2.18
28.33,-1.39,0.79,-1.37,0.81,-0.81,-0.73,-0.72,-2.20,-2.18,-2.18
28.62,-1.35,0.83,-1.36,0.82,-0.83,-0.75,-0.73,-2.18,-2.19,-2.18
28.90,-1.34,0.84,-1.34,0.84,-0.85,-0.76,-0.74,-2.18,-2.19,-2.18
29.19,-1.34,0.84,-1.32,0.86,-0.86,-0.78,-0.76,-2.20,-2.19,-2.18
29.48,-1.29,0.89,-1.30,0.88,-0.88,-0.79,-0.77,-2.17,-2.18,-2.18
29.78,-1.29,0.89,-1.28,0.90,-0.90,-0.80,-0.78,-2.19,-2.18,-2.18
30.08,-1.25,0.93,-1.26,0.93,-0.92,-0.82,-0.79,-2.17,-2.18,-2.18
30.38,-1.25,0.93,-1.24,0.95,-0.95,-0.83,-0.80,-2.20,-2.18,-2.18
30.68,-1.20,0.98,-1.21,0.97,-0.97,-0.84,-0.81,-2.17,-2.18,-2.18
30.99,-1.19,0.99,-1.18,1.00,-1.00,-0.86,-0.82,-2.19,-2.18,-2.18
31.30,-1.15,1.03,-1.16,1.03,-1.03,-0.87,-0.83,-2.18,-2.19,-2.18
31.61,-1.13,1.05,-1.13,1.06,-1.06,-0.89,-0.84,-2.19,-2.19,-2.18
31.93,-1.10,1.08,-1.09,1.09,-1.10,-0.90,-0.85,-2.20,-2.19,-2.18
32.24,-1.04,1.14,-1.05,1.13,-1.14,-0.91,-0.86,-2.18,-2.19,-2.18
32.57,-1.01,1.17,-1.01,1.18,-1.18,-0.93,-0.87,-2.19,-2.19,-2.18
32.89,-0.96,1.22,-0.96,1.22,-1.22,-0.94,-0.88,-2.18,-2.18,-2.18
33.22,-0.93,1.25,-0.92,1.26,-1.26,-0.96,-0.88,-2.19,-2.18,-2.18
33.55,-0.87,1.31,-0.88,1.31,-1.30,-0.97,-0.89,-2.17,-2.18,-2.18
33.89,-0.84,1.34,-0.84,1.35,-1.34,-0.98,-0.90,-2.18,-2.17,-2.18
34.23,-0.81,1.37,-0.81,1.38,-1.37,-1.00,-0.91,-2.18,-2.17,-2.18
34.57,-0.78,1.40,-0.79,1.40,-1.39,-1.01,-0.91,-2.17,-2.18,-2.18
34.92,-0.78,1.40,-0.77,1.41,-1.41,-1.02,-0.92,-2.19,-2.19,-2.18
35.27,-0.76,1.42,-0.76,1.42,-1.43,-1.04,-0.93,-2.19,-2.19,-2.18
35.62,-0.75,1.43,-0.75,1.44,-1.44,-1.05,-0.93,-2.19,-2.19,-2.18
35.97,-0.73,1.45,-0.73,1.45,-1.45,-1.06,-0.94,-2.18,-2.18,-2.18
36.33,-0.73,1.45,-0.73,1.45,-1.45,-1.08,-0.95,-2.18,-2.18,-2.18
36.70,-0.73,1.45,-0.72,1.46,-1.45,-1.09,-0.95,-2.18,-2.17,-2.18
37.06,-0.73,1.45,-0.73,1.45,-1.44,-1.10,-0.96,-2.17,-2.17,-2.18
37.43,-0.73,1.45,-0.74,1.44,-1.43,-1.12,-0.97,-2.16,-2.18,-2.18
37.81,-0.76,1.42,-0.76,1.43,-1.43,-1.13,-0.98,-2.19,-2.18,-2.18
38.19,-0.78,1.40,-0.77,1.41,-1.42,-1.14,-0.99,-2.20,-2.19,-2.18
38.57,-0.78,1.40,-0.79,1.40,-1.42,-1.16,-1.00,-2.20,-2.20,-2.18
38.95,-0.78,1.40,-0.78,1.41,-1.42,-1.17,-1.01,-2.20,-2.20,-2.18
39.34,-0.78,1.40,-0.76,1.42,-1.43,-1.18,-1.02,-2.20,-2.19,-2.18
39.74,-0.73,1.45,-0.75,1.44,-1.44,-1.20,-1.03,-2.17,-2.19,-2.18
40.14,-0.73,1.45,-0.73,1.46,-1.46,-1.21,-1.04,-2.19,-2.18,-2.18
40.54,-0.71,1.47,-0.70,1.48,-1.48,-1.22,-1.06,-2.19,-2.18,-2.18
40.94,-0.69,1.49,-0.69,1.50,-1.50,-1.24,-1.07,-2.19,-2.18,-2.18
41.35,-0.66,1.52,-0.66,1.52,-1.51,-1.25,-1.09,-2.17,-2.18,-2.18
41.76,-0.64,1.54,-0.65,1.54,-1.53,-1.26,-1.10,-2.17,-2.17,-2.18
42.18,-0.64,1.54,-0.64,1.55,-1.53,-1.27,-1.12,-2.17,-2.17,-2.18
42.60,-0.64,1.54,-0.64,1.55,-1.54,-1.29,-1.13,-2.18,-2.18,-2.18
43.03,-0.64,1.54,-0.64,1.54,-1.54,-1.30,-1.15,-2.18,-2.18,-2.18
43.46,-0.64,1.54,-0.64,1.54,-1.55,-1.31,-1.17,-2.19,-2.19,-2.18
43.90,-0.64,1.54,-0.64,1.54,-1.55,-1.32,-1.19,-2.19,-2.20,-2.18
44.33,-0.64,1.54,-0.64,1.55,-1.56,-1.34,-1.21,-2.20,-2.20,-2.18
44.78,-0.64,1.54,-0.62,1.56,-1.57,-1.35,-1.24,-2.21,-2.19,-2.18
45.23,-0.59,1.59,-0.61,1.57,-1.58,-1.36,-1.26,-2.17,-2.19,-2.18
45.68,-0.59,1.59,-0.59,1.59,-1.59,-1.37,-1.28,-2.18,-2.18,-2.18
46.13,-0.59,1.59,-0.57,1.61,-1.60,-1.39,-1.31,-2.19,-2.18,-2.18
46.60,-0.55,1.63,-0.56,1.62,-1.62,-1.40,-1.33,-2.16,-2.18,-2.18
47.06,-0.55,1.63,-0.55,1.63,-1.63,-1.41,-1.36,-2.17,-2.18,-2.18
47.53,-0.55,1.63,-0.55,1.64,-1.63,-1.42,-1.38,-2.18,-2.18,-2.18
48.01,-0.55,1.63,-0.55,1.63,-1.64,-1.43,-1.41,-2.19,-2.19,-2.18
48.49,-0.55,1.63,-0.55,1.63,-1.64,-1.45,-1.44,-2.19,-2.19,-2.18
48.97,-0.55,1.63,-0.55,1.63,-1.64,-1.46,-1.47,-2.19,-2.19,-2.18
49.46,-0.55,1.63,-0.55,1.63,-1.64,-1.47,-1.50,-2.19,-2.19,-2.18
49.96,-0.55,1.63,-0.55,1.64,-1.63,-1.48,-1.53,-2.18,-2.18,-2.18
50.46,-0.55,1.63,-0.55,1.63,-1.62,-1.49,-1.56,-2.17,-2.18,-2.18
50.96,-0.55,1.63,-0.56,1.63,-1.61,-1.50,-1.59,-2.16,-2.17,-2.18
51.47,-0.59,1.59,-0.58,1.61,-1.60,-1.51,-1.62,-2.19,-2.18,-2.18
51.99,-0.59,1.59,-0.60,1.58,-1.58,-1.53,-1.66,-2.17,-2.19,-2.18
52.51,-0.64,1.54,-0.62,1.56,-1.56,-1.54,-1.69,-2.20,-2.19,-2.18
53.03,-0.64,1.54,-0.64,1.54,-1.54,-1.55,-1.72,-2.18,-2.19,-2.18
53.56,-0.66,1.52,-0.66,1.52,-1.52,-1.56,-1.75,-2.18,-2.18,-2.18
54.10,-0.69,1.49,-0.68,1.50,-1.50,-1.57,-1.78,-2.19,-2.18,-2.18
54.64,-0.69,1.49,-0.70,1.48,-1.48,-1.58,-1.81,-2.17,-2.18,-2.18
55.18,-0.73,1.45,-0.72,1.46,-1.47,-1.59,-1.84,-2.20,-2.19,-2.18
55.74,-0.73,1.45,-0.73,1.46,-1.46,-1.60,-1.87,-2.19,-2.19,-2.18
56.29,-0.73,1.45,-0.73,1.45,-1.46,-1.61,-1.90,-2.19,-2.19,-2.18
56.86,-0.73,1.45,-0.73,1.45,-1.46,-1.62,-1.92,-2.19,-2.19,-2.18
57.42,-0.73,1.45,-0.72,1.46,-1.46,-1.63,-1.95,-2.19,-2.18,-2.18
58.00,-0.71,1.47,-0.71,1.47,-1.47,-1.64,-1.97,-2.18,-2.18,-2.18
58.58,-0.69,1.49,-0.70,1.48,-1.48,-1.65,-1.99,-2.17,-2.18,-2.18
59.16,-0.69,1.49,-0.69,1.50,-1.50,-1.67,-2.01,-2.19,-2.18,-2.18
59.76,-0.69,1.49,-0.67,1.51,-1.51,-1.68,-2.03,-2.20,-2.19,-2.18
60.35,-0.64,1.54,-0.65,1.53,-1.53,-1.69,-2.05,-2.17,-2.19,-2.18
60.96,-0.64,1.54,-0.63,1.55,-1.55,-1.70,-2.06,-2.19,-2.18,-2.18
61.57,-0.60,1.58,-0.61,1.58,-1.57,-1.71,-2.07,-2.17,-2.18,-2.18
62.18,-0.59,1.59,-0.59,1.59,-1.60,-1.72,-2.08,-2.19,-2.19,-2.18
62.80,-0.57,1.61,-0.57,1.62,-1.62,-1.73,-2.09,-2.19,-2.19,-2.18
63.43,-0.55,1.63,-0.54,1.64,-1.65,-1.74,-2.10,-2.20,-2.19,-2.18
64.07,-0.50,1.68,-0.51,1.68,-1.68,-1.75,-2.10,-2.18,-2.19,-2.18
64.71,-0.47,1.71,-0.47,1.71,-1.71,-1.76,-2.10,-2.18,-2.18,-2.18
65.35,-0.45,1.73,-0.44,1.74,-1.74,-1.77,-2.10,-2.18,-2.18,-2.18
66.01,-0.41,1.77,-0.42,1.77,-1.76,-1.78,-2.10,-2.17,-2.18,-2.18
66.67,-0.40,1.78,-0.39,1.79,-1.79,-1.78,-2.09,-2.19,-2.18,-2.18
67.33,-0.36,1.82,-0.36,1.82,-1.82,-1.79,-2.09,-2.18,-2.18,-2.18
68.01,-0.34,1.84,-0.34,1.84,-1.85,-1.80,-2.08,-2.18,-2.19,-2.18
68.69,-0.32,1.86,-0.31,1.87,-1.87,-1.81,-2.07,-2.19,-2.18,-2.18
69.37,-0.29,1.89,-0.30,1.89,-1.89,-1.82,-2.06,-2.18,-2.19,-2.18
70.07,-0.27,1.91,-0.27,1.91,-1.91,-1.83,-2.05,-2.18,-2.18,-2.18
70.77,-0.27,1.91,-0.25,1.93,-1.93,-1.84,-2.03,-2.19,-2.18,-2.18
71.48,-0.23,1.95,-0.24,1.95,-1.94,-1.85,-2.02,-2.17,-2.18,-2.18
72.19,-0.22,1.96,-0.23,1.96,-1.96,-1.86,-2.01,-2.17,-2.18,-2.18
72.91,-0.22,1.96,-0.21,1.97,-1.97,-1.87,-1.99,-2.19,-2.18,-2.18
73.64,-0.22,1.96,-0.20,1.98,-1.98,-1.88,-1.98,-2.20,-2.19,-2.18
74.38,-0.18,2.00,-0.20,1.99,-2.00,-1.89,-1.96,-2.17,-2.19,-2.18
75.12,-0.18,2.00,-0.18,2.00,-2.01,-1.90,-1.95,-2.19,-2.19,-2.18
75.87,-0.18,2.00,-0.16,2.02,-2.02,-1.91,-1.94,-2.20,-2.18,-2.18
76.63,-0.13,2.05,-0.15,2.04,-2.03,-1.92,-1.92,-2.16,-2.18,-2.18
77.40,-0.13,2.05,-0.13,2.05,-2.05,-1.92,-1.91,-2.18,-2.18,-2.18
78.17,-0.13,2.05,-0.12,2.06,-2.06,-1.93,-1.90,-2.19,-2.19,-2.18
78.95,-0.13,2.05,-0.12,2.07,-2.07,-1.94,-1.89,-2.20,-2.19,-2.18
79.74,-0.10,2.08,-0.10,2.08,-2.08,-1.95,-1.87,-2.18,-2.18,-2.18
80.54,-0.08,2.10,-0.09,2.10,-2.09,-1.96,-1.87,-2.17,-2.18,-2.18
81.35,-0.08,2.10,-0.08,2.11,-2.10,-1.97,-1.86,-2.18,-2.17,-2.18
82.16,-0.08,2.10,-0.08,2.10,-2.11,-1.98,-1.85,-2.18,-2.18,-2.18
82.98,-0.08,2.10,-0.08,2.10,-2.11,-1.99,-1.84,-2.19,-2.19,-2.18
83.81,-0.08,2.10,-0.07,2.11,-2.12,-1.99,-1.84,-2.20,-2.19,-2.18
84.65,-0.06,2.12,-0.06,2.12,-2.12,-2.00,-1.84,-2.18,-2.18,-2.18
85.50,-0.04,2.14,-0.05,2.14,-2.13,-2.01,-1.83,-2.17,-2.18,-2.18
86.35,-0.04,2.14,-0.04,2.15,-2.13,-2.02,-1.83,-2.17,-2.17,-2.18
87.22,-0.04,2.14,-0.04,2.15,-2.14,-2.03,-1.83,-2.18,-2.18,-2.18
88.09,-0.04,2.14,-0.04,2.14,-2.15,-2.04,-1.83,-2.19,-2.19,-2.18
88.97,-0.04,2.14,-0.03,2.15,-2.16,-2.05,-1.84,-2.20,-2.19,-2.18
89.86,-0.03,2.15,-0.02,2.16,-2.17,-2.05,-1.84,-2.20,-2.19,-2.18
90.76,0.01,2.19,-0.00,2.18,-2.18,-2.06,-1.85,-2.17,-2.18,-2.18
91.66,0.01,2.19,0.01,2.19,-2.19,-2.07,-1.86,-2.18,-2.18,-2.18
92.58,0.01,2.19,0.02,2.21,-2.21,-2.08,-1.87,-2.20,-2.18,-2.18
93.51,0.03,2.21,0.03,2.22,-2.22,-2.09,-1.88,-2.19,-2.19,-2.18
94.44,0.06,2.24,0.05,2.23,-2.23,-2.10,-1.89,-2.17,-2.18,-2.18
95.39,0.06,2.24,0.06,2.24,-2.24,-2.10,-1.90,-2.18,-2.18,-2.18
96.34,0.06,2.24,0.07,2.25,-2.24,-2.11,-1.91,-2.18,-2.17,-2.18
97.30,0.06,2.24,0.06,2.25,-2.24,-2.12,-1.93,-2.17,-2.17,-2.18
98.28,0.06,2.24,0.05,2.24,-2.23,-2.13,-1.95,-2.17,-2.18,-2.18
99.26,0.04,2.22,0.04,2.22,-2.22,-2.13,-1.96,-2.18,-2.19,-2.18
100.25,0.01,2.19,0.02,2.21,-2.21,-2.14,-1.98,-2.20,-2.19,-2.18
101.25,0.01,2.19,0.01,2.19,-2.21,-2.15,-2.00,-2.20,-2.20,-2.18
102.27,0.01,2.19,0.01,2.19,-2.20,-2.16,-2.02,-2.19,-2.19,-2.18
103.29,0.01,2.19,0.01,2.19,-2.19,-2.16,-2.04,-2.18,-2.18,-2.18
104.32,0.01,2.19,0.01,2.19,-2.19,-2.17,-2.06,-2.18,-2.18,-2.18
105.37,0.01,2.19,0.01,2.19,-2.19,-2.18,-2.08,-2.18,-2.18,-2.18
106.42,0.01,2.19,0.01,2.19,-2.19,-2.19,-2.10,-2.18,-2.18,-2.18
107.48,0.01,2.19,0.01,2.19,-2.20,-2.19,-2.12,-2.19,-2.19,-2.18
108.56,0.01,2.19,0.01,2.19,-2.20,-2.20,-2.15,-2.19,-2.19,-2.18
109.64,0.01,2.19,0.01,2.19,-2.19,-2.21,-2.17,-2.18,-2.18,-2.18
110.74,0.01,2.19,0.01,2.20,-2.19,-2.21,-2.19,-2.18,-2.18,-2.18
111.85,0.01,2.19,0.01,2.19,-2.18,-2.22,-2.21,-2.17,-2.17,-2.18
112.97,0.01,2.19,-0.00,2.18,-2.18,-2.22,-2.23,-2.17,-2.18,-2.18
114.10,-0.02,2.16,-0.02,2.17,-2.17,-2.23,-2.24,-2.19,-2.19,-2.18
115.24,-0.04,2.14,-0.03,2.15,-2.16,-2.24,-2.26,-2.20,-2.19,-2.18
116.39,-0.04,2.14,-0.04,2.14,-2.15,-2.24,-2.28,-2.19,-2.19,-2.18
117.55,-0.04,2.14,-0.04,2.15,-2.14,-2.25,-2.29,-2.18,-2.18,-2.18
118.73,-0.04,2.14,-0.04,2.14,-2.13,-2.25,-2.30,-2.17,-2.17,-2.18
119.92,-0.04,2.14,-0.05,2.13,-2.13,-2.26,-2.31,-2.17,-2.18,-2.18
121.12,-0.07,2.11,-0.06,2.12,-2.12,-2.26,-2.32,-2.19,-2.18,-2.18
122.33,-0.08,2.10,-0.07,2.11,-2.12,-2.27,-2.33,-2.19,-2.19,-2.18
123.55,-0.08,2.10,-0.08,2.10,-2.11,-2.27,-2.34,-2.19,-2.19,-2.18
124.79,-0.08,2.10,-0.08,2.10,-2.11,-2.28,-2.34,-2.19,-2.19,-2.18
126.03,-0.08,2.10,-0.08,2.10,-2.10,-2.28,-2.34,-2.18,-2.18,-2.18
127.29,-0.08,2.10,-0.08,2.10,-2.10,-2.29,-2.34,-2.18,-2.18,-2.18
128.57,-0.08,2.10,-0.08,2.10,-2.10,-2.29,-2.34,-2.18,-2.18,-2.18
129.85,-0.08,2.10,-0.08,2.10,-2.10,-2.30,-2.33,-2.18,-2.18,-2.18
131.15,-0.08,2.10,-0.08,2.10,-2.10,-2.30,-2.32,-2.18,-2.18,-2.18
132.46,-0.08,2.10,-0.08,2.10,-2.10,-2.31,-2.32,-2.18,-2.18,-2.18
133.79,-0.08,2.10,-0.08,2.10,-2.10,-2.31,-2.31,-2.18,-2.18,-2.18
135.12,-0.08,2.10,-0.08,2.10,-2.10,-2.31,-2.29,-2.18,-2.18,-2.18
136.48,-0.08,2.10,-0.08,2.10,-2.10,-2.32,-2.28,-2.18,-2.18,-2.18
137.84,-0.08,2.10,-0.08,2.10,-2.10,-2.32,-2.27,-2.18,-2.18,-2.18
139.22,-0.08,2.10,-0.08,2.10,-2.10,-2.32,-2.25,-2.18,-2.18,-2.18
140.61,-0.08,2.10,-0.08,2.10,-2.10,-2.32,-2.24,-2.18,-2.18,-2.18
142.02,-0.08,2.10,-0.08,2.10,-2.11,-2.33,-2.22,-2.19,-2.19,-2.18
143.44,-0.08,2.10,-0.08,2.10,-2.11,-2.33,-2.20,-2.19,-2.19,-2.18
144.87,-0.08,2.10,-0.07,2.11,-2.12,-2.33,-2.18,-2.20,-2.19,-2.18
146.32,-0.06,2.12,-0.06,2.12,-2.12,-2.33,-2.17,-2.18,-2.18,-2.18
147.78,-0.04,2.14,-0.05,2.14,-2.13,-2.34,-2.15,-2.17,-2.18,-2.18
149.26,-0.04,2.14,-0.04,2.15,-2.14,-2.34,-2.13,-2.18,-2.18,-2.18
150.75,-0.04,2.14,-0.04,2.15,-2.14,-2.34,-2.11,-2.18,-2.18,-2.18
152.26,-0.04,2.14,-0.04,2.14,-2.15,-2.34,-2.10,-2.19,-2.19,-2.18
153.78,-0.04,2.14,-0.04,2.15,-2.15,-2.34,-2.08,-2.18,-2.18,-2.18
155.32,-0.04,2.14,-0.04,2.14,-2.14,-2.34,-2.07,-2.18,-2.18,-2.18
156.88,-0.04,2.14,-0.04,2.14,-2.14,-2.34,-2.05,-2.18,-2.18,-2.18
158.44,-0.05,2.13,-0.05,2.13,-2.13,-2.34,-2.04,-2.18,-2.18,-2.18
160.03,-0.06,2.12,-0.06,2.12,-2.12,-2.35,-2.02,-2.18,-2.18,-2.18
161.63,-0.08,2.10,-0.07,2.11,-2.12,-2.35,-2.01,-2.20,-2.19,-2.18
163.24,-0.08,2.10,-0.08,2.10,-2.11,-2.35,-2.00,-2.19,-2.19,-2.18
164.88,-0.08,2.10,-0.08,2.10,-2.11,-2.35,-1.99,-2.19,-2.19,-2.18
166.53,-0.08,2.10,-0.08,2.10,-2.10,-2.35,-1.99,-2.18,-2.18,-2.18
168.19,-0.08,2.10,-0.08,2.10,-2.10,-2.35,-1.98,-2.18,-2.18,-2.18
169.87,-0.08,2.10,-0.08,2.10,-2.10,-2.35,-1.97,-2.18,-2.18,-2.18
171.57,-0.08,2.10,-0.08,2.10,-2.10,-2.35,-1.97,-2.18,-2.18,-2.18
173.29,-0.08,2.10,-0.08,2.10,-2.11,-2.35,-1.97,-2.19,-2.19,-2.18
175.02,-0.08,2.10,-0.08,2.10,-2.11,-2.34,-1.97,-2.19,-2.19,-2.18
176.77,-0.08,2.10,-0.07,2.11,-2.12,-2.34,-1.97,-2.20,-2.19,-2.18
178.54,-0.07,2.11,-0.06,2.12,-2.12,-2.34,-1.97,-2.19,-2.19,-2.18
180.32,-0.04,2.14,-0.05,2.13,-2.13,-2.34,-1.98,-2.17,-2.18,-2.18
182.13,-0.04,2.14,-0.04,2.14,-2.13,-2.34,-1.98,-2.17,-2.17,-2.18
183.95,-0.04,2.14,-0.04,2.15,-2.14,-2.34,-1.99,-2.18,-2.18,-2.18
185.79,-0.04,2.14,-0.04,2.14,-2.14,-2.34,-2.00,-2.18,-2.18,-2.18
187.65,-0.04,2.14,-0.04,2.14,-2.15,-2.34,-2.01,-2.19,-2.19,-2.18
189.52,-0.04,2.14,-0.04,2.14,-2.15,-2.33,-2.02,-2.19,-2.19,-2.18
191.42,-0.04,2.14,-0.04,2.14,-2.15,-2.33,-2.03,-2.19,-2.19,-2.18
193.33,-0.04,2.14,-0.04,2.14,-2.15,-2.33,-2.04,-2.18,-2.18,-2.18
195.27,-0.04,2.14,-0.04,2.14,-2.14,-2.33,-2.06,-2.18,-2.18,-2.18
197.22,-0.04,2.14,-0.04,2.14,-2.14,-2.33,-2.08,-2.18,-2.18,-2.18
199.19,-0.04,2.14,-0.04,2.14,-2.14,-2.32,-2.09,-2.18,-2.18,-2.18
201.18,-0.04,2.14,-0.04,2.14,-2.14,-2.32,-2.11,-2.18,-2.18,-2.18
203.19,-0.04,2.14,-0.04,2.14,-2.14,-2.32,-2.13,-2.18,-2.18,-2.18
205.23,-0.04,2.14,-0.04,2.14,-2.14,-2.32,-2.15,-2.18,-2.18,-2.18
207.28,-0.04,2.14,-0.04,2.14,-2.14,-2.32,-2.17,-2.18,-2.18,-2.18
209.35,-0.04,2.14,-0.04,2.14,-2.14,-2.31,-2.19,-2.18,-2.18,-2.18
211.44,-0.04,2.14,-0.04,2.14,-2.14,-2.31,-2.21,-2.18,-2.18,-2.18
213.56,-0.04,2.14,-0.04,2.14,-2.14,-2.31,-2.23,-2.18,-2.18,-2.18
215.69,-0.04,2.14,-0.04,2.14,-2.14,-2.30,-2.25,-2.18,-2.18,-2.18
217.85,-0.04,2.14,-0.04,2.14,-2.14,-2.30,-2.28,-2.18,-2.18,-2.18
220.03,-0.04,2.14,-0.04,2.14,-2.14,-2.30,-2.30,-2.18,-2.18,-2.18
222.23,-0.04,2.14,-0.04,2.14,-2.14,-2.30,-2.32,-2.18,-2.18,-2.18
224.45,-0.04,2.14,-0.04,2.14,-2.14,-2.29,-2.34,-2.18,-2.18,-2.18
226.70,-0.04,2.14,-0.04,2.14,-2.14,-2.29,-2.36,-2.18,-2.18,-2.18
228.96,-0.04,2.14,-0.04,2.14,-2.14,-2.29,-2.37,-2.18,-2.18,-2.18
231.25,-0.04,2.14,-0.04,2.14,-2.14,-2.28,-2.39,-2.18,-2.18,-2.18
233.57,-0.04,2.14,-0.04,2.14,-2.14,-2.28,-2.41,-2.18,-2.18,-2.18
235.90,-0.04,2.14,-0.04,2.14,-2.15,-2.28,-2.42,-2.19,-2.19,-2.18
238.26,-0.04,2.14,-0.04,2.14,-2.15,-2.28,-2.43,-2.19,-2.19,-2.18
240.64,-0.04,2.14,-0.03,2.15,-2.16,-2.27,-2.44,-2.20,-2.19,-2.18
243.05,-0.02,2.16,-0.02,2.16,-2.17,-2.27,-2.45,-2.18,-2.19,-2.18
245.48,-0.01,2.17,-0.01,2.18,-2.17,-2.27,-2.46,-2.18,-2.18,-2.18
247.93,0.01,2.19,0.01,2.19,-2.18,-2.26,-2.47,-2.17,-2.17,-2.18
250.41,0.01,2.19,0.01,2.19,-2.18,-2.26,-2.47,-2.17,-2.17,-2.18
252.92,0.01,2.19,0.01,2.20,-2.19,-2.26,-2.47,-2.18,-2.18,-2.18
255.45,0.01,2.19,0.01,2.19,-2.20,-2.25,-2.47,-2.19,-2.19,-2.18
258.00,0.01,2.19,0.01,2.19,-2.21,-2.25,-2.47,-2.19,-2.20,-2.18
260.58,0.01,2.19,0.02,2.20,-2.21,-2.25,-2.46,-2.20,-2.20,-2.18
263.19,0.02,2.20,0.03,2.21,-2.22,-2.25,-2.46,-2.20,-2.19,-2.18
265.82,0.06,2.24,0.05,2.23,-2.22,-2.24,-2.45,-2.16,-2.18,-2.18
268.48,0.06,2.24,0.06,2.24,-2.23,-2.24,-2.44,-2.17,-2.17,-2.18
271.16,0.06,2.24,0.06,2.25,-2.24,-2.24,-2.43,-2.18,-2.17,-2.18
273.87,0.06,2.24,0.06,2.24,-2.25,-2.23,-2.42,-2.19,-2.19,-2.18
276.61,0.06,2.24,0.06,2.24,-2.25,-2.23,-2.41,-2.19,-2.19,-2.18
279.38,0.06,2.24,0.07,2.25,-2.26,-2.23,-2.39,-2.20,-2.19,-2.18
282.17,0.08,2.26,0.08,2.26,-2.26,-2.23,-2.38,-2.18,-2.18,-2.18
284.99,0.10,2.28,0.09,2.28,-2.27,-2.23,-2.36,-2.17,-2.18,-2.18
287.84,0.10,2.28,0.10,2.28,-2.28,-2.22,-2.35,-2.18,-2.18,-2.18
290.72,0.10,2.28,0.10,2.29,-2.29,-2.22,-2.33,-2.19,-2.19,-2.18
293.63,0.10,2.28,0.11,2.30,-2.30,-2.22,-2.32,-2.20,-2.19,-2.18
296.57,0.14,2.32,0.13,2.31,-2.31,-2.22,-2.30,-2.17,-2.18,-2.18
299.53,0.15,2.33,0.15,2.33,-2.32,-2.22,-2.29,-2.17,-2.17,-2.18
302.53,0.15,2.33,0.15,2.34,-2.33,-2.22,-2.27,-2.18,-2.18,-2.18
305.55,0.15,2.33,0.15,2.33,-2.34,-2.22,-2.26,-2.19,-2.19,-2.18
308.61,0.15,2.33,0.16,2.34,-2.35,-2.21,-2.25,-2.20,-2.19,-2.18
311.69,0.16,2.34,0.17,2.35,-2.36,-2.21,-2.24,-2.20,-2.19,-2.18
314.81,0.20,2.38,0.19,2.37,-2.36,-2.21,-2.22,-2.16,-2.18,-2.18
317.96,0.20,2.38,0.20,2.38,-2.37,-2.21,-2.21,-2.17,-2.17,-2.18
321.14,0.20,2.38,0.20,2.38,-2.38,-2.21,-2.21,-2.18,-2.18,-2.18
324.35,0.20,2.38,0.20,2.39,-2.39,-2.21,-2.20,-2.19,-2.19,-2.18
327.59,0.20,2.38,0.21,2.40,-2.40,-2.21,-2.19,-2.20,-2.19,-2.18
330.87,0.24,2.42,0.22,2.41,-2.42,-2.21,-2.19,-2.17,-2.19,-2.18
334.18,0.24,2.42,0.24,2.42,-2.43,-2.22,-2.19,-2.18,-2.18,-2.18
337.52,0.24,2.42,0.26,2.44,-2.44,-2.22,-2.19,-2.20,-2.18,-2.18
340.90,0.29,2.47,0.27,2.46,-2.45,-2.22,-2.19,-2.16,-2.18,-2.18
344.30,0.29,2.47,0.29,2.47,-2.47,-2.22,-2.19,-2.18,-2.18,-2.18
347.75,0.29,2.47,0.30,2.48,-2.48,-2.22,-2.19,-2.19,-2.18,-2.18
351.23,0.30,2.48,0.31,2.49,-2.50,-2.23,-2.20,-2.20,-2.19,-2.18
354.74,0.34,2.52,0.33,2.51,-2.51,-2.23,-2.21,-2.17,-2.19,-2.18
358.28,0.34,2.52,0.35,2.53,-2.53,-2.23,-2.21,-2.19,-2.18,-2.18
361.87,0.37,2.55,0.36,2.55,-2.55,-2.24,-2.22,-2.18,-2.18,-2.18
365.49,0.38,2.56,0.38,2.56,-2.56,-2.24,-2.24,-2.18,-2.18,-2.18
369.14,0.38,2.56,0.40,2.58,-2.58,-2.24,-2.25,-2.20,-2.18,-2.18
372.83,0.43,2.61,0.41,2.60,-2.60,-2.25,-2.27,-2.17,-2.18,-2.18
376.56,0.43,2.61,0.43,2.61,-2.61,-2.26,-2.28,-2.18,-2.18,-2.18
380.33,0.43,2.61,0.45,2.63,-2.63,-2.26,-2.30,-2.20,-2.18,-2.18
384.13,0.46,2.64,0.46,2.64,-2.64,-2.27,-2.32,-2.18,-2.18,-2.18
387.97,0.48,2.66,0.47,2.65,-2.66,-2.27,-2.34,-2.18,-2.19,-2.18
391.85,0.48,2.66,0.48,2.67,-2.67,-2.28,-2.37,-2.19,-2.18,-2.18
395.77,0.48,2.66,0.50,2.68,-2.68,-2.29,-2.39,-2.20,-2.18,-2.18
399.73,0.52,2.70,0.51,2.69,-2.69,-2.30,-2.42,-2.17,-2.18,-2.18
403.72,0.52,2.70,0.52,2.70,-2.70,-2.30,-2.44,-2.18,-2.18,-2.18
407.76,0.52,2.70,0.52,2.71,-2.71,-2.31,-2.47,-2.19,-2.19,-2.18
411.84,0.52,2.70,0.52,2.71,-2.72,-2.32,-2.50,-2.19,-2.19,-2.18
415.96,0.52,2.70,0.53,2.71,-2.72,-2.33,-2.52,-2.20,-2.19,-2.18
420.12,0.55,2.73,0.54,2.73,-2.72,-2.34,-2.55,-2.17,-2.18,-2.18
424.32,0.55,2.73,0.55,2.73,-2.72,-2.35,-2.58,-2.17,-2.17,-2.18
428.56,0.55,2.73,0.55,2.73,-2.72,-2.37,-2.61,-2.17,-2.17,-2.18
432.85,0.54,2.72,0.54,2.72,-2.72,-2.38,-2.64,-2.18,-2.18,-2.18
