frequency,raw,error,smoothed,error_smoothed,equalization,parametric_eq,fixed_band_eq,equalized_raw,equalized_smoothed,target
20.00,-8.73,-4.41,-8.73,-4.40,4.40,-0.34,0.08,-4.33,-4.33,-4.32
20.20,-8.59,-4.27,-8.59,-4.27,4.27,-0.34,0.09,-4.32,-4.32,-4.32
20.40,-8.44,-4.13,-8.44,-4.13,4.13,-0.34,0.09,-4.31,-4.31,-4.31
20.61,-8.30,-4.00,-8.30,-3.99,4.00,-0.34,0.10,-4.31,-4.30,-4.30
20.81,-8.16,-3.85,-8.16,-3.86,3.86,-0.35,0.10,-4.30,-4.30,-4.30
21.02,-8.02,-3.73,-8.02,-3.72,3.73,-0.35,0.10,-4.29,-4.29,-4.29
21.23,-7.88,-3.59,-7.88,-3.59,3.59,-0.35,0.11,-4.29,-4.29,-4.29
21.44,-7.74,-3.45,-7.74,-3.46,3.46,-0.35,0.11,-4.28,-4.28,-4.28
21.66,-7.61,-3.34,-7.60,-3.33,3.32,-0.35,0.11,-4.29,-4.28,-4.27
21.87,-7.47,-3.19,-7.47,-3.20,3.19,-0.36,0.12,-4.28,-4.28,-4.27
22.09,-7.33,-3.06,-7.33,-3.07,3.06,-0.36,0.12,-4.27,-4.27,-4.26
22.31,-7.19,-2.93,-7.18,-2.93,2.93,-0.36,0.13,-4.26,-4.26,-4.25
22.54,-7.04,-2.79,-7.04,-2.79,2.80,-0.36,0.13,-4.24,-4.24,-4.25
22.76,-6.90,-2.66,-6.90,-2.66,2.67,-0.37,0.14,-4.23,-4.23,-4.24
22.99,-6.77,-2.54,-6.77,-2.53,2.54,-0.37,0.14,-4.22,-4.22,-4.23
23.22,-6.64,-2.42,-6.64,-2.42,2.42,-0.37,0.15,-4.22,-4.22,-4.22
23.45,-6.52,-2.31,-6.52,-2.30,2.30,-0.37,0.15,-4.22,-4.22,-4.21
23.69,-6.39,-2.19,-6.39,-2.19,2.18,-0.38,0.16,-4.21,-4.21,-4.20
23.92,-6.26,-2.06,-6.26,-2.06,2.06,-0.38,0.16,-4.20,-4.20,-4.19
24.16,-6.12,-1.94,-6.12,-1.94,1.94,-0.38,0.17,-4.18,-4.18,-4.18
24.40,-5.99,-1.81,-5.99,-1.82,1.82,-0.39,0.17,-4.16,-4.17,-4.17
24.65,-5.86,-1.71,-5.86,-1.70,1.70,-0.39,0.18,-4.16,-4.15,-4.15
24.89,-5.73,-1.58,-5.73,-1.58,1.59,-0.40,0.18,-4.14,-4.14,-4.14
25.14,-5.60,-1.46,-5.60,-1.47,1.47,-0.40,0.19,-4.13,-4.13,-4.13
25.39,-5.48,-1.35,-5.48,-1.36,1.35,-0.40,0.19,-4.12,-4.12,-4.12
25.65,-5.36,-1.25,-5.35,-1.25,1.24,-0.41,0.20,-4.12,-4.12,-4.11
25.91,-5.23,-1.14,-5.23,-1.13,1.13,-0.41,0.20,-4.10,-4.10,-4.09
26.16,-5.10,-1.01,-5.10,-1.02,1.01,-0.42,0.20,-4.08,-4.09,-4.08
26.43,-4.97,-0.90,-4.97,-0.90,0.91,-0.42,0.21,-4.06,-4.07,-4.07
26.69,-4.86,-0.80,-4.85,-0.79,0.80,-0.43,0.21,-4.06,-4.05,-4.06
26.96,-4.74,-0.70,-4.74,-0.70,0.70,-0.44,0.21,-4.04,-4.04,-4.04
27.23,-4.63,-0.60,-4.63,-0.60,0.60,-0.44,0.22,-4.03,-4.03,-4.03
27.50,-4.52,-0.51,-4.52,-0.51,0.51,-0.45,0.22,-4.01,-4.01,-4.01
27.77,-4.42,-0.42,-4.42,-0.42,0.42,-0.46,0.22,-4.00,-4.00,-4.00
28.05,-4.33,-0.35,-4.32,-0.34,0.34,-0.46,0.22,-3.99,-3.99,-3.98
28.33,-4.23,-0.26,-4.23,-0.26,0.26,-0.47,0.22,-3.97,-3.97,-3.97
28.62,-4.14,-0.19,-4.14,-0.18,0.18,-0.48,0.22,-3.96,-3.96,-3.95
28.90,-4.04,-0.10,-4.05,-0.11,0.11,-0.49,0.22,-3.93,-3.94,-3.94
29.19,-3.97,-0.05,-3.96,-0.04,0.04,-0.50,0.22,-3.93,-3.93,-3.92
29.48,-3.88,0.03,-3.88,0.03,-0.03,-0.51,0.21,-3.91,-3.91,-3.91
29.78,-3.80,0.09,-3.80,0.09,-0.10,-0.52,0.21,-3.90,-3.90,-3.89
30.08,-3.72,0.16,-3.72,0.16,-0.16,-0.53,0.21,-3.88,-3.88,-3.88
30.38,-3.64,0.22,-3.64,0.22,-0.22,-0.54,0.20,-3.86,-3.86,-3.86
30.68,-3.57,0.28,-3.57,0.28,-0.28,-0.55,0.19,-3.84,-3.85,-3.85
30.99,-3.51,0.32,-3.50,0.33,-0.33,-0.57,0.18,-3.84,-3.83,-3.83
31.30,-3.43,0.39,-3.44,0.38,-0.38,-0.58,0.17,-3.81,-3.82,-3.82
31.61,-3.37,0.43,-3.37,0.43,-0.44,-0.60,0.16,-3.81,-3.81,-3.80
31.93,-3.31,0.48,-3.30,0.49,-0.49,-0.61,0.15,-3.80,-3.79,-3.79
32.24,-3.23,0.54,-3.23,0.54,-0.54,-0.63,0.14,-3.77,-3.78,-3.77
32.57,-3.16,0.60,-3.16,0.60,-0.60,-0.65,0.12,-3.76,-3.76,-3.76
32.89,-3.09,0.65,-3.09,0.66,-0.66,-0.67,0.11,-3.74,-3.75,-3.74
33.22,-3.02,0.71,-3.01,0.72,-0.72,-0.69,0.09,-3.73,-3.73,-3.73
33.55,-2.94,0.77,-2.94,0.78,-0.78,-0.71,0.07,-3.72,-3.71,-3.71
33.89,-2.85,0.85,-2.86,0.84,-0.84,-0.74,0.05,-3.69,-3.70,-3.70
34.23,-2.78,0.90,-2.78,0.91,-0.91,-0.76,0.03,-3.69,-3.69,-3.68
34.57,-2.70,0.97,-2.69,0.98,-0.98,-0.79,0.01,-3.68,-3.67,-3.67
34.92,-2.61,1.05,-2.61,1.05,-1.05,-0.82,-0.01,-3.66,-3.66,-3.66
35.27,-2.51,1.13,-2.52,1.13,-1.13,-0.85,-0.03,-3.64,-3.64,-3.64
35.62,-2.43,1.20,-2.43,1.20,-1.20,-0.89,-0.06,-3.63,-3.63,-3.63
35.97,-2.35,1.27,-2.34,1.28,-1.28,-0.92,-0.08,-3.63,-3.63,-3.62
36.33,-2.26,1.35,-2.25,1.36,-1.36,-0.96,-0.11,-3.62,-3.62,-3.61
36.70,-2.16,1.44,-2.16,1.44,-1.44,-1.00,-0.13,-3.60,-3.60,-3.60
37.06,-2.06,1.53,-2.06,1.53,-1.52,-1.05,-0.16,-3.58,-3.59,-3.59
37.43,-1.98,1.60,-1.98,1.60,-1.60,-1.10,-0.19,-3.58,-3.58,-3.58
37.81,-1.90,1.67,-1.90,1.68,-1.67,-1.15,-0.22,-3.57,-3.57,-3.57
38.19,-1.82,1.74,-1.82,1.74,-1.75,-1.20,-0.25,-3.57,-3.56,-3.56
38.57,-1.74,1.81,-1.74,1.81,-1.82,-1.26,-0.28,-3.56,-3.55,-3.55
38.95,-1.66,1.88,-1.66,1.88,-1.88,-1.32,-0.31,-3.54,-3.54,-3.54
39.34,-1.59,1.94,-1.59,1.95,-1.95,-1.38,-0.34,-3.54,-3.53,-3.53
39.74,-1.52,2.00,-1.52,2.01,-2.01,-1.45,-0.37,-3.53,-3.53,-3.52
40.14,-1.45,2.07,-1.45,2.07,-2.07,-1.52,-0.40,-3.52,-3.52,-3.52
40.54,-1.39,2.12,-1.39,2.12,-2.12,-1.59,-0.44,-3.51,-3.51,-3.51
40.94,-1.33,2.17,-1.33,2.18,-2.17,-1.67,-0.47,-3.50,-3.50,-3.50
41.35,-1.27,2.22,-1.27,2.22,-2.22,-1.74,-0.51,-3.49,-3.49,-3.49
41.76,-1.22,2.26,-1.22,2.26,-2.26,-1.82,-0.54,-3.48,-3.48,-3.48
42.18,-1.18,2.29,-1.18,2.30,-2.30,-1.90,-0.58,-3.48,-3.48,-3.47
42.60,-1.14,2.32,-1.14,2.33,-2.33,-1.97,-0.62,-3.47,-3.47,-3.46
43.03,-1.10,2.35,-1.10,2.35,-2.35,-2.04,-0.65,-3.45,-3.45,-3.45
43.46,-1.07,2.37,-1.07,2.37,-2.37,-2.11,-0.69,-3.43,-3.44,-3.44
43.90,-1.05,2.38,-1.05,2.38,-2.37,-2.17,-0.73,-3.42,-3.42,-3.43
44.33,-1.05,2.36,-1.05,2.37,-2.36,-2.22,-0.77,-3.41,-3.41,-3.41
44.78,-1.05,2.35,-1.05,2.35,-2.35,-2.26,-0.81,-3.40,-3.40,-3.40
45.23,-1.06,2.33,-1.06,2.33,-2.33,-2.29,-0.85,-3.38,-3.39,-3.39
45.68,-1.08,2.29,-1.08,2.29,-2.30,-2.30,-0.89,-3.37,-3.38,-3.37
46.13,-1.11,2.25,-1.11,2.25,-2.26,-2.30,-0.93,-3.37,-3.37,-3.36
46.60,-1.14,2.20,-1.14,2.21,-2.22,-2.29,-0.97,-3.36,-3.36,-3.34
47.06,-1.16,2.17,-1.16,2.17,-2.18,-2.26,-1.02,-3.33,-3.34,-3.33
47.53,-1.19,2.12,-1.19,2.13,-2.13,-2.22,-1.06,-3.32,-3.31,-3.31
48.01,-1.21,2.09,-1.21,2.09,-2.08,-2.17,-1.10,-3.29,-3.29,-3.30
48.49,-1.25,2.03,-1.25,2.04,-2.03,-2.11,-1.15,-3.28,-3.28,-3.28
48.97,-1.29,1.98,-1.29,1.98,-1.98,-2.04,-1.19,-3.27,-3.27,-3.27
49.46,-1.34,1.91,-1.34,1.92,-1.92,-1.97,-1.24,-3.26,-3.26,-3.25
49.96,-1.38,1.86,-1.38,1.86,-1.87,-1.89,-1.28,-3.25,-3.25,-3.24
50.46,-1.42,1.81,-1.42,1.81,-1.81,-1.80,-1.32,-3.23,-3.23,-3.23
50.96,-1.46,1.75,-1.46,1.76,-1.76,-1.72,-1.37,-3.22,-3.22,-3.21
51.47,-1.50,1.70,-1.50,1.70,-1.70,-1.63,-1.41,-3.20,-3.20,-3.20
51.99,-1.54,1.65,-1.54,1.65,-1.65,-1.55,-1.45,-3.19,-3.19,-3.19
52.51,-1.59,1.59,-1.59,1.60,-1.59,-1.46,-1.50,-3.18,-3.18,-3.18
53.03,-1.63,1.54,-1.63,1.54,-1.54,-1.38,-1.54,-3.17,-3.17,-3.17
53.56,-1.67,1.48,-1.67,1.49,-1.49,-1.30,-1.58,-3.16,-3.16,-3.15
54.10,-1.71,1.43,-1.71,1.44,-1.44,-1.22,-1.62,-3.15,-3.15,-3.14
54.64,-1.75,1.38,-1.75,1.39,-1.38,-1.15,-1.65,-3.13,-3.13,-3.13
55.18,-1.79,1.34,-1.79,1.34,-1.33,-1.08,-1.69,-3.12,-3.12,-3.13
55.74,-1.84,1.28,-1.83,1.29,-1.28,-1.01,-1.72,-3.12,-3.12,-3.12
56.29,-1.88,1.23,-1.88,1.23,-1.23,-0.95,-1.75,-3.11,-3.12,-3.11
56.86,-1.93,1.18,-1.93,1.18,-1.19,-0.89,-1.78,-3.11,-3.12,-3.11
57.42,-1.98,1.12,-1.97,1.13,-1.14,-0.83,-1.80,-3.12,-3.11,-3.10
58.00,-2.01,1.09,-2.01,1.09,-1.09,-0.78,-1.83,-3.10,-3.10,-3.10
58.58,-2.05,1.04,-2.05,1.05,-1.05,-0.73,-1.84,-3.10,-3.09,-3.09
59.16,-2.08,1.01,-2.08,1.01,-1.00,-0.68,-1.86,-3.08,-3.08,-3.09
59.76,-2.13,0.96,-2.13,0.96,-0.95,-0.63,-1.87,-3.08,-3.08,-3.09
60.35,-2.18,0.91,-2.18,0.92,-0.91,-0.58,-1.88,-3.09,-3.09,-3.09
60.96,-2.23,0.86,-2.23,0.86,-0.87,-0.54,-1.88,-3.10,-3.10,-3.09
61.57,-2.28,0.81,-2.28,0.81,-0.82,-0.50,-1.88,-3.10,-3.10,-3.09
62.18,-2.33,0.76,-2.32,0.77,-0.78,-0.46,-1.87,-3.11,-3.10,-3.09
62.80,-2.36,0.73,-2.36,0.73,-0.73,-0.42,-1.86,-3.09,-3.09,-3.09
63.43,-2.40,0.69,-2.40,0.69,-0.68,-0.38,-1.85,-3.08,-3.09,-3.09
64.07,-2.45,0.65,-2.45,0.65,-0.63,-0.35,-1.83,-3.08,-3.09,-3.10
64.71,-2.51,0.59,-2.51,0.59,-0.59,-0.32,-1.80,-3.09,-3.09,-3.10
65.35,-2.57,0.53,-2.56,0.54,-0.54,-0.28,-1.77,-3.11,-3.10,-3.10
66.01,-2.62,0.48,-2.62,0.48,-0.49,-0.25,-1.74,-3.11,-3.11,-3.10
66.67,-2.67,0.43,-2.67,0.43,-0.44,-0.22,-1.71,-3.11,-3.11,-3.10
67.33,-2.72,0.38,-2.72,0.39,-0.40,-0.19,-1.67,-3.12,-3.11,-3.10
68.01,-2.76,0.35,-2.76,0.35,-0.35,-0.16,-1.62,-3.11,-3.11,-3.11
68.69,-2.80,0.31,-2.80,0.32,-0.31,-0.13,-1.58,-3.11,-3.11,-3.11
69.37,-2.83,0.28,-2.83,0.28,-0.28,-0.10,-1.53,-3.11,-3.11,-3.11
70.07,-2.87,0.24,-2.87,0.24,-0.24,-0.07,-1.47,-3.11,-3.11,-3.11
70.77,-2.91,0.20,-2.91,0.21,-0.20,-0.04,-1.42,-3.11,-3.11,-3.11
71.48,-2.95,0.16,-2.95,0.17,-0.16,-0.01,-1.36,-3.11,-3.11,-3.11
72.19,-2.98,0.13,-2.98,0.13,-0.12,0.02,-1.30,-3.10,-3.11,-3.11
72.91,-3.02,0.08,-3.02,0.09,-0.08,0.05,-1.24,-3.10,-3.10,-3.10
73.64,-3.06,0.04,-3.06,0.04,-0.04,0.08,-1.17,-3.10,-3.10,-3.10
74.38,-3.10,-0.01,-3.10,-0.00,-0.00,0.10,-1.11,-3.10,-3.10,-3.09
75.12,-3.14,-0.05,-3.13,-0.04,0.03,0.13,-1.04,-3.10,-3.10,-3.09
75.87,-3.16,-0.08,-3.16,-0.08,0.07,0.16,-0.97,-3.09,-3.09,-3.08
76.63,-3.19,-0.12,-3.19,-0.11,0.11,0.19,-0.91,-3.08,-3.07,-3.07
77.40,-3.21,-0.15,-3.21,-0.15,0.15,0.22,-0.84,-3.05,-3.06,-3.06
78.17,-3.24,-0.19,-3.24,-0.19,0.20,0.25,-0.76,-3.04,-3.04,-3.05
78.95,-3.27,-0.23,-3.27,-0.23,0.24,0.28,-0.69,-3.03,-3.03,-3.04
79.74,-3.32,-0.29,-3.32,-0.28,0.29,0.31,-0.62,-3.03,-3.02,-3.03
80.54,-3.36,-0.34,-3.36,-0.34,0.34,0.34,-0.55,-3.02,-3.02,-3.02
81.35,-3.41,-0.40,-3.41,-0.39,0.39,0.37,-0.48,-3.02,-3.02,-3.01
82.16,-3.45,-0.45,-3.45,-0.45,0.44,0.40,-0.40,-3.01,-3.01,-3.00
82.98,-3.49,-0.50,-3.49,-0.50,0.48,0.44,-0.33,-3.01,-3.01,-2.99
83.81,-3.52,-0.54,-3.52,-0.53,0.52,0.47,-0.26,-3.00,-3.00,-2.98
84.65,-3.54,-0.57,-3.54,-0.56,0.56,0.50,-0.18,-2.98,-2.98,-2.97
85.50,-3.55,-0.59,-3.55,-0.59,0.60,0.53,-0.11,-2.95,-2.96,-2.96
86.35,-3.57,-0.62,-3.57,-0.62,0.63,0.57,-0.03,-2.94,-2.94,-2.95
87.22,-3.60,-0.66,-3.60,-0.66,0.67,0.60,0.04,-2.93,-2.93,-2.94
88.09,-3.63,-0.70,-3.63,-0.70,0.71,0.64,0.12,-2.92,-2.92,-2.93
88.97,-3.67,-0.76,-3.67,-0.75,0.75,0.67,0.19,-2.92,-2.91,-2.91
89.86,-3.70,-0.80,-3.70,-0.80,0.79,0.71,0.26,-2.90,-2.91,-2.90
90.76,-3.74,-0.85,-3.74,-0.85,0.84,0.75,0.34,-2.90,-2.90,-2.89
91.66,-3.77,-0.90,-3.77,-0.89,0.89,0.78,0.41,-2.88,-2.88,-2.87
92.58,-3.80,-0.94,-3.80,-0.93,0.93,0.82,0.49,-2.87,-2.86,-2.86
93.51,-3.82,-0.97,-3.82,-0.97,0.97,0.86,0.56,-2.85,-2.85,-2.85
94.44,-3.84,-1.01,-3.84,-1.01,1.01,0.89,0.64,-2.83,-2.83,-2.83
95.39,-3.87,-1.05,-3.87,-1.05,1.05,0.93,0.71,-2.82,-2.82,-2.82
96.34,-3.90,-1.10,-3.90,-1.09,1.09,0.96,0.79,-2.81,-2.81,-2.80
97.30,-3.92,-1.13,-3.92,-1.12,1.12,1.00,0.86,-2.80,-2.80,-2.79
98.28,-3.94,-1.16,-3.94,-1.16,1.15,1.03,0.94,-2.78,-2.78,-2.78
99.26,-3.95,-1.18,-3.95,-1.18,1.19,1.06,1.01,-2.76,-2.76,-2.77
100.25,-3.97,-1.22,-3.97,-1.22,1.22,1.10,1.08,-2.75,-2.75,-2.75
101.25,-3.99,-1.25,-3.99,-1.25,1.25,1.13,1.16,-2.74,-2.74,-2.74
102.27,-4.02,-1.29,-4.01,-1.28,1.27,1.16,1.23,-2.75,-2.74,-2.73
103.29,-4.03,-1.30,-4.03,-1.30,1.30,1.19,1.30,-2.73,-2.73,-2.73
104.32,-4.05,-1.33,-4.05,-1.33,1.33,1.21,1.37,-2.72,-2.72,-2.72
105.37,-4.07,-1.36,-4.07,-1.35,1.36,1.24,1.44,-2.71,-2.71,-2.71
106.42,-4.09,-1.38,-4.09,-1.38,1.38,1.26,1.51,-2.71,-2.71,-2.71
107.48,-4.12,-1.41,-4.12,-1.41,1.41,1.29,1.58,-2.71,-2.71,-2.71
108.56,-4.15,-1.44,-4.15,-1.44,1.44,1.31,1.64,-2.71,-2.71,-2.71
109.64,-4.18,-1.47,-4.18,-1.47,1.47,1.33,1.71,-2.71,-2.71,-2.71
110.74,-4.21,-1.50,-4.21,-1.50,1.50,1.35,1.77,-2.71,-2.71,-2.71
111.85,-4.24,-1.53,-4.24,-1.52,1.52,1.37,1.83,-2.72,-2.72,-2.71
112.97,-4.27,-1.55,-4.27,-1.55,1.54,1.39,1.88,-2.73,-2.72,-2.72
114.10,-4.29,-1.57,-4.29,-1.57,1.56,1.41,1.94,-2.73,-2.73,-2.72
115.24,-4.31,-1.58,-4.31,-1.58,1.57,1.43,1.99,-2.74,-2.74,-2.73
116.39,-4.32,-1.59,-4.32,-1.58,1.57,1.45,2.03,-2.75,-2.74,-2.73
117.55,-4.32,-1.58,-4.32,-1.58,1.57,1.47,2.08,-2.74,-2.74,-2.74
118.73,-4.32,-1.58,-4.32,-1.57,1.58,1.49,2.12,-2.74,-2.74,-2.74
119.92,-4.32,-1.57,-4.32,-1.57,1.58,1.51,2.15,-2.74,-2.74,-2.75
121.12,-4.33,-1.58,-4.32,-1.57,1.58,1.53,2.18,-2.75,-2.74,-2.75
122.33,-4.33,-1.58,-4.33,-1.58,1.59,1.55,2.21,-2.74,-2.74,-2.75
123.55,-4.35,-1.60,-4.35,-1.60,1.60,1.57,2.24,-2.74,-2.75,-2.75
124.79,-4.38,-1.63,-4.37,-1.62,1.62,1.59,2.25,-2.76,-2.75,-2.75
126.03,-4.40,-1.65,-4.40,-1.65,1.65,1.62,2.27,-2.75,-2.75,-2.75
127.29,-4.43,-1.68,-4.43,-1.68,1.68,1.64,2.28,-2.75,-2.75,-2.75
128.57,-4.46,-1.71,-4.46,-1.71,1.71,1.66,2.29,-2.75,-2.75,-2.75
129.85,-4.50,-1.75,-4.50,-1.74,1.74,1.69,2.29,-2.76,-2.75,-2.75
131.15,-4.53,-1.78,-4.53,-1.78,1.77,1.71,2.29,-2.75,-2.75,-2.75
132.46,-4.56,-1.81,-4.56,-1.81,1.81,1.74,2.28,-2.75,-2.75,-2.75
133.79,-4.58,-1.84,-4.58,-1.84,1.84,1.77,2.27,-2.74,-2.75,-2.74
135.12,-4.61,-1.87,-4.61,-1.86,1.86,1.80,2.26,-2.75,-2.74,-2.74
136.48,-4.63,-1.89,-4.63,-1.89,1.89,1.82,2.24,-2.74,-2.74,-2.74
137.84,-4.65,-1.91,-4.65,-1.90,1.90,1.85,2.22,-2.75,-2.74,-2.74
139.22,-4.66,-1.92,-4.66,-1.92,1.92,1.88,2.20,-2.74,-2.74,-2.74
140.61,-4.67,-1.93,-4.67,-1.93,1.92,1.91,2.18,-2.75,-2.75,-2.74
142.02,-4.67,-1.94,-4.67,-1.93,1.92,1.94,2.15,-2.74,-2.74,-2.73
143.44,-4.66,-1.93,-4.66,-1.93,1.92,1.97,2.13,-2.74,-2.74,-2.73
144.87,-4.65,-1.92,-4.65,-1.92,1.91,2.00,2.10,-2.73,-2.74,-2.73
146.32,-4.64,-1.90,-4.64,-1.90,1.90,2.03,2.07,-2.73,-2.74,-2.74
147.78,-4.64,-1.90,-4.63,-1.89,1.89,2.06,2.04,-2.74,-2.74,-2.74
149.26,-4.63,-1.89,-4.63,-1.88,1.89,2.09,2.01,-2.74,-2.74,-2.74
150.75,-4.62,-1.88,-4.62,-1.88,1.88,2.12,1.97,-2.74,-2.74,-2.74
152.26,-4.62,-1.88,-4.62,-1.87,1.88,2.14,1.94,-2.74,-2.74,-2.74
153.78,-4.63,-1.88,-4.63,-1.88,1.89,2.17,1.91,-2.74,-2.74,-2.75
155.32,-4.64,-1.89,-4.64,-1.89,1.90,2.20,1.88,-2.74,-2.75,-2.75
156.88,-4.66,-1.91,-4.66,-1.91,1.91,2.22,1.85,-2.75,-2.75,-2.75
158.44,-4.69,-1.94,-4.68,-1.93,1.93,2.24,1.82,-2.76,-2.76,-2.75
160.03,-4.71,-1.95,-4.71,-1.95,1.95,2.27,1.78,-2.76,-2.76,-2.76
161.63,-4.74,-1.98,-4.74,-1.97,1.97,2.29,1.76,-2.77,-2.77,-2.76
163.24,-4.77,-2.00,-4.77,-2.00,2.00,2.31,1.73,-2.77,-2.77,-2.77
164.88,-4.80,-2.03,-4.80,-2.02,2.02,2.33,1.70,-2.78,-2.78,-2.77
166.53,-4.83,-2.05,-4.83,-2.05,2.05,2.34,1.67,-2.78,-2.78,-2.78
168.19,-4.86,-2.07,-4.86,-2.07,2.07,2.36,1.64,-2.79,-2.79,-2.79
169.87,-4.89,-2.09,-4.89,-2.09,2.09,2.37,1.62,-2.80,-2.80,-2.80
171.57,-4.92,-2.11,-4.92,-2.10,2.10,2.38,1.60,-2.81,-2.81,-2.81
173.29,-4.94,-2.12,-4.94,-2.12,2.12,2.39,1.57,-2.82,-2.82,-2.82
175.02,-4.96,-2.13,-4.96,-2.13,2.12,2.39,1.55,-2.84,-2.84,-2.83
176.77,-4.98,-2.13,-4.98,-2.13,2.12,2.40,1.53,-2.86,-2.85,-2.85
178.54,-4.99,-2.13,-4.99,-2.12,2.12,2.40,1.51,-2.87,-2.87,-2.86
180.32,-4.99,-2.11,-4.99,-2.11,2.11,2.40,1.49,-2.88,-2.89,-2.88
182.13,-4.99,-2.10,-4.99,-2.09,2.09,2.40,1.48,-2.90,-2.90,-2.89
183.95,-4.98,-2.07,-4.98,-2.07,2.07,2.39,1.46,-2.91,-2.91,-2.91
185.79,-4.97,-2.04,-4.97,-2.04,2.04,2.38,1.45,-2.92,-2.93,-2.93
187.65,-4.97,-2.03,-4.96,-2.02,2.02,2.37,1.44,-2.95,-2.94,-2.94
189.52,-4.96,-2.00,-4.96,-1.99,2.00,2.36,1.43,-2.96,-2.96,-2.96
191.42,-4.95,-1.97,-4.95,-1.97,1.97,2.35,1.41,-2.98,-2.98,-2.98
193.33,-4.95,-1.95,-4.95,-1.95,1.95,2.33,1.41,-2.99,-2.99,-3.00
195.27,-4.95,-1.94,-4.95,-1.94,1.94,2.31,1.40,-3.01,-3.01,-3.01
197.22,-4.96,-1.93,-4.96,-1.93,1.93,2.29,1.39,-3.03,-3.03,-3.03
199.19,-4.98,-1.93,-4.98,-1.92,1.92,2.27,1.38,-3.06,-3.05,-3.05
201.18,-5.00,-1.92,-5.00,-1.92,1.92,2.24,1.38,-3.08,-3.08,-3.08
203.19,-5.02,-1.92,-5.02,-1.92,1.92,2.22,1.37,-3.10,-3.10,-3.10
205.23,-5.05,-1.93,-5.05,-1.93,1.93,2.19,1.37,-3.12,-3.12,-3.12
207.28,-5.08,-1.94,-5.08,-1.93,1.93,2.16,1.37,-3.15,-3.14,-3.14
209.35,-5.11,-1.95,-5.11,-1.94,1.94,2.13,1.36,-3.17,-3.17,-3.16
211.44,-5.14,-1.95,-5.14,-1.95,1.95,2.09,1.36,-3.19,-3.19,-3.19
213.56,-5.17,-1.96,-5.17,-1.95,1.95,2.06,1.36,-3.22,-3.22,-3.21
215.69,-5.20,-1.96,-5.20,-1.96,1.96,2.02,1.36,-3.24,-3.24,-3.24
217.85,-5.23,-1.96,-5.23,-1.96,1.97,1.99,1.36,-3.26,-3.26,-3.27
220.03,-5.26,-1.97,-5.26,-1.96,1.97,1.95,1.35,-3.29,-3.29,-3.29
222.23,-5.28,-1.97,-5.28,-1.97,1.97,1.91,1.35,-3.31,-3.31,-3.31
224.45,-5.31,-1.97,-5.31,-1.97,1.96,1.88,1.35,-3.34,-3.34,-3.34
226.70,-5.33,-1.97,-5.33,-1.96,1.96,1.84,1.35,-3.37,-3.37,-3.36
228.96,-5.34,-1.96,-5.34,-1.96,1.95,1.80,1.34,-3.39,-3.39,-3.38
231.25,-5.34,-1.94,-5.33,-1.93,1.93,1.76,1.34,-3.41,-3.40,-3.40
233.57,-5.32,-1.91,-5.32,-1.90,1.91,1.72,1.34,-3.41,-3.41,-3.41
235.90,-5.30,-1.87,-5.30,-1.87,1.88,1.68,1.33,-3.42,-3.42,-3.43
238.26,-5.29,-1.85,-5.29,-1.85,1.85,1.64,1.33,-3.44,-3.44,-3.44
240.64,-5.27,-1.82,-5.27,-1.82,1.82,1.60,1.32,-3.45,-3.45,-3.45
243.05,-5.25,-1.79,-5.24,-1.78,1.78,1.56,1.31,-3.47,-3.47,-3.46
245.48,-5.21,-1.74,-5.21,-1.74,1.73,1.52,1.30,-3.47,-3.48,-3.47
247.93,-5.17,-1.69,-5.17,-1.69,1.69,1.48,1.29,-3.48,-3.48,-3.48
250.41,-5.13,-1.64,-5.13,-1.64,1.64,1.44,1.28,-3.49,-3.49,-3.49
252.92,-5.09,-1.59,-5.09,-1.58,1.59,1.40,1.27,-3.50,-3.50,-3.50
255.45,-5.04,-1.53,-5.04,-1.53,1.53,1.36,1.25,-3.51,-3.51,-3.51
258.00,-4.99,-1.47,-4.99,-1.47,1.46,1.32,1.24,-3.53,-3.53,-3.52
260.58,-4.93,-1.41,-4.93,-1.40,1.39,1.28,1.22,-3.54,-3.53,-3.52
263.19,-4.86,-1.33,-4.86,-1.33,1.32,1.24,1.21,-3.54,-3.54,-3.53
265.82,-4.79,-1.25,-4.79,-1.25,1.25,1.20,1.19,-3.54,-3.54,-3.54
268.48,-4.73,-1.18,-4.72,-1.17,1.18,1.16,1.17,-3.55,-3.55,-3.55
271.16,-4.66,-1.10,-4.66,-1.10,1.11,1.13,1.15,-3.55,-3.55,-3.56
273.87,-4.60,-1.03,-4.60,-1.03,1.04,1.09,1.13,-3.56,-3.57,-3.57
276.61,-4.55,-0.97,-4.55,-0.97,0.97,1.05,1.11,-3.58,-3.58,-3.58
279.38,-4.51,-0.92,-4.50,-0.91,0.91,1.02,1.08,-3.60,-3.60,-3.59
282.17,-4.46,-0.86,-4.46,-0.86,0.85,0.98,1.06,-3.61,-3.61,-3.60
284.99,-4.42,-0.81,-4.42,-0.80,0.80,0.95,1.04,-3.62,-3.62,-3.61
287.84,-4.38,-0.76,-4.38,-0.75,0.75,0.91,1.01,-3.63,-3.62,-3.62
290.72,-4.34,-0.71,-4.34,-0.71,0.71,0.88,0.99,-3.63,-3.63,-3.63
293.63,-4.32,-0.68,-4.32,-0.67,0.68,0.85,0.96,-3.64,-3.64,-3.64
296.57,-4.30,-0.65,-4.30,-0.65,0.65,0.81,0.94,-3.64,-3.65,-3.65
299.53,-4.30,-0.64,-4.30,-0.63,0.64,0.78,0.91,-3.66,-3.66,-3.66
302.53,-4.30,-0.63,-4.30,-0.62,0.63,0.75,0.89,-3.67,-3.67,-3.67
305.55,-4.31,-0.62,-4.31,-0.62,0.63,0.71,0.87,-3.68,-3.68,-3.69
308.61,-4.34,-0.64,-4.34,-0.63,0.64,0.68,0.84,-3.70,-3.70,-3.70
311.69,-4.37,-0.66,-4.37,-0.65,0.65,0.65,0.82,-3.72,-3.72,-3.71
314.81,-4.41,-0.68,-4.40,-0.67,0.67,0.62,0.79,-3.74,-3.73,-3.73
317.96,-4.44,-0.70,-4.44,-0.69,0.69,0.59,0.77,-3.75,-3.75,-3.74
321.14,-4.47,-0.71,-4.47,-0.71,0.71,0.56,0.75,-3.76,-3.76,-3.76
324.35,-4.51,-0.74,-4.50,-0.73,0.73,0.53,0.72,-3.78,-3.78,-3.77
327.59,-4.54,-0.75,-4.53,-0.74,0.75,0.50,0.70,-3.79,-3.79,-3.79
330.87,-4.56,-0.76,-4.56,-0.76,0.76,0.47,0.68,-3.80,-3.80,-3.80
334.18,-4.59,-0.77,-4.59,-0.77,0.77,0.45,0.66,-3.82,-3.82,-3.82
337.52,-4.62,-0.79,-4.62,-0.78,0.78,0.42,0.64,-3.84,-3.84,-3.83
340.90,-4.64,-0.79,-4.64,-0.79,0.78,0.39,0.62,-3.86,-3.86,-3.85
344.30,-4.65,-0.79,-4.65,-0.79,0.78,0.36,0.60,-3.87,-3.87,-3.86
347.75,-4.66,-0.78,-4.66,-0.78,0.77,0.33,0.58,-3.89,-3.89,-3.88
351.23,-4.67,-0.77,-4.66,-0.77,0.76,0.31,0.56,-3.91,-3.90,-3.90
354.74,-4.66,-0.75,-4.66,-0.74,0.75,0.28,0.55,-3.91,-3.91,-3.91
358.28,-4.66,-0.73,-4.66,-0.72,0.73,0.25,0.53,-3.93,-3.92,-3.93
361.87,-4.65,-0.70,-4.65,-0.70,0.72,0.23,0.51,-3.93,-3.94,-3.95
365.49,-4.66,-0.70,-4.66,-0.69,0.70,0.20,0.49,-3.96,-3.96,-3.96
369.14,-4.66,-0.68,-4.66,-0.68,0.68,0.17,0.48,-3.98,-3.98,-3.98
372.83,-4.67,-0.68,-4.67,-0.67,0.67,0.15,0.46,-4.00,-4.00,-3.99
376.56,-4.67,-0.66,-4.67,-0.65,0.65,0.12,0.45,-4.02,-4.02,-4.01
380.33,-4.66,-0.63,-4.66,-0.63,0.63,0.10,0.43,-4.03,-4.03,-4.03
384.13,-4.65,-0.61,-4.65,-0.60,0.61,0.07,0.42,-4.04,-4.04,-4.04
387.97,-4.64,-0.58,-4.64,-0.58,0.58,0.05,0.41,-4.06,-4.06,-4.06
391.85,-4.62,-0.55,-4.62,-0.55,0.55,0.02,0.39,-4.07,-4.07,-4.07
395.77,-4.60,-0.52,-4.60,-0.51,0.51,-0.01,0.38,-4.09,-4.09,-4.08
399.73,-4.57,-0.48,-4.57,-0.48,0.47,-0.03,0.36,-4.10,-4.10,-4.09
403.72,-4.53,-0.43,-4.53,-0.42,0.41,-0.06,0.35,-4.11,-4.11,-4.10
407.76,-4.48,-0.37,-4.48,-0.37,0.36,-0.08,0.34,-4.12,-4.12,-4.11
411.84,-4.43,-0.30,-4.43,-0.30,0.30,-0.11,0.32,-4.13,-4.13,-4.13
415.96,-4.38,-0.24,-4.37,-0.23,0.23,-0.13,0.31,-4.14,-4.14,-4.14
420.12,-4.32,-0.17,-4.32,-0.17,0.17,-0.16,0.29,-4.15,-4.15,-4.15
424.32,-4.26,-0.10,-4.26,-0.10,0.11,-0.18,0.28,-4.15,-4.16,-4.16
428.56,-4.21,-0.04,-4.21,-0.03,0.04,-0.21,0.26,-4.16,-4.17,-4.17
432.85,-4.17,0.02,-4.17,0.02,-0.01,-0.23,0.25,-4.18,-4.18,-4.19
