frequency,raw,error,smoothed,error_smoothed,equalization,parametric_eq,fixed_band_eq,equalized_raw,equalized_smoothed,target
20.00,10.68,5.75,10.67,5.75,-5.76,-5.55,-2.62,4.92,4.92,4.92
20.20,10.70,5.78,10.70,5.78,-5.79,-5.56,-2.69,4.91,4.91,4.91
20.40,10.72,5.80,10.72,5.81,-5.81,-5.58,-2.77,4.90,4.91,4.91
20.61,10.74,5.83,10.74,5.84,-5.84,-5.60,-2.85,4.90,4.90,4.90
20.81,10.76,5.87,10.76,5.87,-5.85,-5.61,-2.93,4.90,4.90,4.89
21.02,10.78,5.90,10.77,5.89,-5.87,-5.63,-3.02,4.91,4.90,4.88
21.23,10.78,5.90,10.78,5.89,-5.89,-5.65,-3.11,4.89,4.89,4.88
21.44,10.78,5.89,10.78,5.89,-5.90,-5.66,-3.20,4.88,4.88,4.89
21.66,10.78,5.90,10.78,5.89,-5.90,-5.68,-3.29,4.88,4.88,4.88
21.87,10.78,5.90,10.78,5.90,-5.90,-5.69,-3.39,4.88,4.88,4.88
22.09,10.78,5.91,10.78,5.91,-5.90,-5.71,-3.49,4.88,4.88,4.87
22.31,10.78,5.91,10.77,5.91,-5.90,-5.72,-3.59,4.88,4.87,4.87
22.54,10.77,5.91,10.77,5.90,-5.91,-5.74,-3.69,4.86,4.86,4.86
22.76,10.77,5.90,10.77,5.90,-5.92,-5.75,-3.80,4.85,4.85,4.87
22.99,10.77,5.90,10.77,5.91,-5.93,-5.77,-3.91,4.84,4.84,4.87
23.22,10.79,5.93,10.79,5.93,-5.94,-5.78,-4.02,4.85,4.85,4.86
23.45,10.82,5.96,10.81,5.96,-5.95,-5.79,-4.13,4.86,4.86,4.86
23.69,10.84,5.98,10.84,5.98,-5.97,-5.81,-4.25,4.87,4.87,4.86
23.92,10.86,6.00,10.86,6.00,-5.98,-5.82,-4.37,4.88,4.88,4.86
24.16,10.87,6.00,10.86,6.00,-5.99,-5.83,-4.49,4.88,4.87,4.86
24.40,10.87,5.99,10.87,6.00,-6.00,-5.85,-4.61,4.87,4.87,4.87
24.65,10.87,5.99,10.87,6.00,-6.00,-5.86,-4.74,4.86,4.86,4.87
24.89,10.87,5.99,10.87,6.00,-6.00,-5.87,-4.87,4.86,4.86,4.87
25.14,10.87,6.01,10.87,6.00,-6.00,-5.88,-4.99,4.86,4.86,4.86
25.39,10.87,6.01,10.87,6.01,-6.00,-5.90,-5.12,4.86,4.86,4.86
25.65,10.87,6.01,10.87,6.01,-6.01,-5.91,-5.26,4.86,4.86,4.86
25.91,10.87,6.01,10.87,6.01,-6.01,-5.92,-5.39,4.86,4.86,4.86
26.16,10.87,6.01,10.87,6.01,-6.01,-5.93,-5.52,4.85,4.85,4.86
26.43,10.87,6.02,10.87,6.02,-6.02,-5.94,-5.65,4.85,4.85,4.85
26.69,10.87,6.02,10.87,6.02,-6.03,-5.95,-5.78,4.84,4.84,4.85
26.96,10.87,6.03,10.87,6.03,-6.03,-5.96,-5.91,4.84,4.84,4.84
27.23,10.87,6.04,10.87,6.04,-6.04,-5.97,-6.04,4.83,4.83,4.82
27.50,10.87,6.04,10.87,6.04,-6.04,-5.99,-6.17,4.83,4.83,4.82
27.77,10.87,6.05,10.87,6.05,-6.05,-6.00,-6.29,4.82,4.82,4.82
28.05,10.87,6.05,10.87,6.05,-6.05,-6.01,-6.41,4.82,4.82,4.82
28.33,10.87,6.05,10.87,6.05,-6.05,-6.02,-6.52,4.81,4.81,4.82
28.62,10.87,6.06,10.87,6.05,-6.05,-6.03,-6.63,4.81,4.81,4.81
28.90,10.87,6.05,10.87,6.05,-6.05,-6.04,-6.73,4.81,4.81,4.82
29.19,10.87,6.05,10.87,6.05,-6.05,-6.04,-6.83,4.82,4.82,4.82
29.48,10.87,6.04,10.87,6.05,-6.05,-6.05,-6.92,4.82,4.82,4.82
29.78,10.87,6.04,10.87,6.04,-6.04,-6.06,-7.00,4.83,4.83,4.82
30.08,10.86,6.03,10.86,6.03,-6.02,-6.07,-7.07,4.83,4.83,4.83
30.38,10.84,6.02,10.84,6.01,-6.01,-6.08,-7.13,4.83,4.83,4.82
30.68,10.81,5.99,10.81,5.99,-5.99,-6.09,-7.19,4.82,4.82,4.82
30.99,10.78,5.97,10.78,5.97,-5.96,-6.10,-7.23,4.81,4.81,4.81
31.30,10.75,5.94,10.75,5.94,-5.95,-6.11,-7.26,4.80,4.80,4.80
31.61,10.72,5.92,10.72,5.92,-5.93,-6.11,-7.29,4.79,4.79,4.80
31.93,10.69,5.90,10.69,5.90,-5.92,-6.12,-7.30,4.77,4.78,4.79
32.24,10.68,5.89,10.68,5.89,-5.91,-6.13,-7.31,4.77,4.77,4.79
32.57,10.68,5.90,10.67,5.90,-5.90,-6.14,-7.30,4.77,4.77,4.78
32.89,10.68,5.91,10.68,5.91,-5.90,-6.14,-7.29,4.77,4.77,4.76
33.22,10.68,5.92,10.68,5.92,-5.91,-6.15,-7.26,4.77,4.77,4.76
33.55,10.68,5.92,10.68,5.92,-5.92,-6.16,-7.23,4.76,4.76,4.76
33.89,10.68,5.92,10.68,5.92,-5.92,-6.17,-7.19,4.75,4.75,4.76
34.23,10.68,5.93,10.68,5.93,-5.94,-6.17,-7.15,4.74,4.74,4.74
34.57,10.68,5.94,10.68,5.94,-5.95,-6.18,-7.10,4.73,4.73,4.74
34.92,10.68,5.95,10.68,5.94,-5.95,-6.19,-7.05,4.72,4.72,4.73
35.27,10.68,5.94,10.68,5.95,-5.96,-6.19,-6.99,4.72,4.72,4.73
35.62,10.68,5.97,10.68,5.97,-5.95,-6.20,-6.93,4.72,4.73,4.71
35.97,10.68,5.98,10.67,5.97,-5.95,-6.20,-6.86,4.73,4.72,4.70
36.33,10.65,5.96,10.64,5.96,-5.94,-6.21,-6.80,4.71,4.70,4.68
36.70,10.61,5.94,10.61,5.94,-5.93,-6.22,-6.73,4.68,4.68,4.67
37.06,10.57,5.91,10.57,5.91,-5.92,-6.22,-6.66,4.65,4.65,4.66
37.43,10.54,5.89,10.53,5.89,-5.91,-6.23,-6.60,4.62,4.62,4.64
37.81,10.51,5.89,10.51,5.89,-5.91,-6.23,-6.53,4.59,4.59,4.62
38.19,10.49,5.89,10.49,5.90,-5.92,-6.24,-6.46,4.57,4.58,4.60
38.57,10.49,5.92,10.49,5.91,-5.92,-6.24,-6.40,4.56,4.56,4.57
38.95,10.49,5.94,10.49,5.94,-5.94,-6.25,-6.34,4.55,4.55,4.55
39.34,10.49,5.97,10.49,5.97,-5.95,-6.25,-6.28,4.54,4.54,4.52
39.74,10.49,5.99,10.49,5.99,-5.97,-6.26,-6.22,4.52,4.52,4.50
40.14,10.48,6.01,10.47,6.00,-5.98,-6.26,-6.17,4.50,4.49,4.47
40.54,10.44,5.99,10.44,5.99,-5.99,-6.27,-6.12,4.45,4.45,4.45
40.94,10.40,5.98,10.41,5.99,-5.99,-6.27,-6.07,4.40,4.42,4.42
41.35,10.39,5.98,10.39,5.99,-6.00,-6.27,-6.03,4.39,4.39,4.41
41.76,10.39,6.01,10.38,6.00,-6.00,-6.28,-5.99,4.39,4.38,4.38
42.18,10.37,6.00,10.36,6.00,-6.00,-6.28,-5.96,4.37,4.36,4.36
42.60,10.34,6.00,10.33,6.00,-6.00,-6.28,-5.93,4.34,4.34,4.34
43.03,10.30,5.99,10.31,6.00,-6.00,-6.29,-5.90,4.30,4.31,4.31
43.46,10.30,6.00,10.30,6.01,-6.01,-6.29,-5.88,4.29,4.29,4.29
43.90,10.30,6.03,10.28,6.02,-6.01,-6.30,-5.86,4.28,4.27,4.27
44.33,10.27,6.03,10.26,6.02,-6.02,-6.30,-5.85,4.25,4.24,4.24
44.78,10.22,6.01,10.23,6.01,-6.02,-6.30,-5.84,4.19,4.21,4.21
45.23,10.20,6.00,10.21,6.02,-6.03,-6.30,-5.84,4.17,4.18,4.19
45.68,10.20,6.04,10.19,6.04,-6.03,-6.31,-5.84,4.17,4.16,4.16
46.13,10.19,6.07,10.17,6.05,-6.03,-6.31,-5.84,4.16,4.14,4.12
46.60,10.14,6.05,10.14,6.05,-6.03,-6.31,-5.85,4.10,4.11,4.09
47.06,10.10,6.04,10.10,6.04,-6.04,-6.31,-5.87,4.05,4.05,4.06
47.53,10.06,6.03,10.06,6.03,-6.06,-6.32,-5.88,4.00,3.99,4.03
48.01,10.02,6.05,10.03,6.05,-6.08,-6.32,-5.90,3.94,3.95,3.97
48.49,10.02,6.08,10.01,6.07,-6.10,-6.32,-5.93,3.92,3.91,3.94
48.97,10.01,6.11,10.01,6.12,-6.11,-6.32,-5.96,3.90,3.90,3.90
49.46,10.01,6.15,10.01,6.15,-6.12,-6.33,-5.99,3.88,3.89,3.86
49.96,10.01,6.20,10.00,6.18,-6.14,-6.33,-6.02,3.87,3.86,3.81
50.46,9.97,6.18,9.97,6.18,-6.15,-6.33,-6.06,3.81,3.81,3.78
50.96,9.92,6.16,9.92,6.17,-6.17,-6.33,-6.10,3.75,3.75,3.75
51.47,9.87,6.15,9.87,6.15,-6.18,-6.33,-6.15,3.68,3.68,3.72
51.99,9.82,6.14,9.83,6.15,-6.19,-6.33,-6.19,3.63,3.64,3.68
52.51,9.82,6.17,9.82,6.17,-6.19,-6.33,-6.24,3.62,3.62,3.64
53.03,9.82,6.21,9.82,6.22,-6.20,-6.33,-6.28,3.62,3.63,3.61
53.56,9.82,6.25,9.81,6.25,-6.20,-6.34,-6.33,3.61,3.61,3.56
54.10,9.80,6.28,9.76,6.24,-6.21,-6.34,-6.38,3.58,3.55,3.52
54.64,9.69,6.20,9.70,6.22,-6.23,-6.34,-6.43,3.46,3.47,3.48
55.18,9.62,6.18,9.64,6.20,-6.24,-6.34,-6.48,3.38,3.40,3.44
55.74,9.62,6.22,9.61,6.21,-6.24,-6.34,-6.53,3.37,3.37,3.40
56.29,9.62,6.24,9.61,6.24,-6.24,-6.34,-6.57,3.37,3.37,3.37
56.86,9.62,6.27,9.61,6.27,-6.24,-6.34,-6.61,3.38,3.37,3.35
57.42,9.58,6.29,9.57,6.27,-6.24,-6.34,-6.66,3.34,3.34,3.29
58.00,9.53,6.26,9.53,6.25,-6.24,-6.34,-6.69,3.29,3.29,3.27
58.58,9.47,6.22,9.47,6.23,-6.24,-6.34,-6.73,3.23,3.24,3.25
59.16,9.43,6.21,9.43,6.22,-6.23,-6.34,-6.75,3.19,3.20,3.22
59.76,9.41,6.22,9.40,6.22,-6.23,-6.34,-6.78,3.17,3.17,3.19
60.35,9.38,6.24,9.37,6.23,-6.23,-6.34,-6.80,3.14,3.14,3.14
60.96,9.34,6.23,9.33,6.23,-6.24,-6.34,-6.81,3.10,3.09,3.10
61.57,9.29,6.24,9.29,6.24,-6.25,-6.34,-6.82,3.03,3.04,3.05
62.18,9.26,6.26,9.26,6.26,-6.27,-6.34,-6.82,2.99,2.99,3.00
62.80,9.24,6.29,9.24,6.30,-6.29,-6.33,-6.82,2.95,2.95,2.94
63.43,9.23,6.33,9.23,6.33,-6.30,-6.33,-6.81,2.92,2.92,2.90
64.07,9.21,6.35,9.20,6.34,-6.32,-6.33,-6.80,2.89,2.88,2.85
64.71,9.16,6.34,9.15,6.34,-6.33,-6.33,-6.78,2.82,2.82,2.82
65.35,9.10,6.33,9.10,6.33,-6.34,-6.33,-6.75,2.75,2.76,2.77
66.01,9.05,6.32,9.07,6.34,-6.35,-6.33,-6.72,2.70,2.71,2.73
66.67,9.05,6.35,9.03,6.35,-6.36,-6.33,-6.68,2.69,2.68,2.69
67.33,9.02,6.38,9.00,6.36,-6.36,-6.33,-6.64,2.66,2.65,2.63
68.01,8.95,6.36,8.96,6.37,-6.36,-6.32,-6.60,2.59,2.61,2.59
68.69,8.92,6.37,8.91,6.37,-6.36,-6.32,-6.55,2.56,2.55,2.55
69.37,8.87,6.36,8.86,6.36,-6.36,-6.32,-6.50,2.50,2.50,2.51
70.07,8.82,6.36,8.82,6.36,-6.36,-6.32,-6.45,2.45,2.45,2.46
70.77,8.77,6.36,8.77,6.36,-6.37,-6.31,-6.40,2.40,2.41,2.41
71.48,8.74,6.37,8.73,6.37,-6.37,-6.31,-6.34,2.37,2.37,2.37
72.19,8.70,6.38,8.69,6.37,-6.38,-6.31,-6.28,2.32,2.31,2.32
72.91,8.65,6.38,8.64,6.37,-6.38,-6.31,-6.23,2.26,2.26,2.26
73.64,8.59,6.37,8.60,6.38,-6.39,-6.30,-6.17,2.19,2.21,2.22
74.38,8.57,6.39,8.57,6.40,-6.40,-6.30,-6.12,2.17,2.17,2.18
75.12,8.57,6.43,8.56,6.41,-6.41,-6.30,-6.06,2.16,2.15,2.14
75.87,8.54,6.43,8.53,6.43,-6.40,-6.29,-6.01,2.13,2.13,2.11
76.63,8.49,6.43,8.49,6.42,-6.40,-6.29,-5.95,2.09,2.09,2.06
77.40,8.43,6.40,8.43,6.40,-6.39,-6.29,-5.90,2.03,2.03,2.03
78.17,8.37,6.38,8.38,6.38,-6.39,-6.28,-5.86,1.98,1.99,1.99
78.95,8.33,6.36,8.32,6.37,-6.38,-6.28,-5.81,1.95,1.95,1.96
79.74,8.29,6.36,8.27,6.35,-6.37,-6.28,-5.77,1.92,1.91,1.93
80.54,8.23,6.33,8.23,6.34,-6.36,-6.27,-5.73,1.87,1.87,1.89
81.35,8.19,6.33,8.21,6.35,-6.35,-6.27,-5.70,1.84,1.86,1.86
82.16,8.19,6.36,8.18,6.36,-6.34,-6.26,-5.67,1.85,1.84,1.83
82.98,8.19,6.40,8.14,6.35,-6.33,-6.26,-5.64,1.85,1.80,1.78
83.81,8.06,6.31,8.08,6.34,-6.33,-6.26,-5.61,1.73,1.76,1.75
84.65,8.00,6.29,8.03,6.32,-6.32,-6.25,-5.59,1.68,1.70,1.71
85.50,7.99,6.32,7.97,6.30,-6.31,-6.25,-5.58,1.68,1.66,1.67
86.35,7.95,6.32,7.93,6.30,-6.30,-6.24,-5.57,1.65,1.62,1.63
87.22,7.87,6.28,7.87,6.29,-6.29,-6.24,-5.56,1.58,1.59,1.59
88.09,7.80,6.25,7.83,6.28,-6.28,-6.23,-5.55,1.52,1.55,1.55
88.97,7.80,6.29,7.78,6.28,-6.28,-6.23,-5.55,1.52,1.50,1.50
89.86,7.77,6.31,7.73,6.27,-6.28,-6.22,-5.56,1.49,1.45,1.46
90.76,7.66,6.24,7.68,6.27,-6.28,-6.22,-5.57,1.38,1.40,1.42
91.66,7.62,6.25,7.64,6.27,-6.28,-6.21,-5.58,1.34,1.36,1.36
92.58,7.62,6.30,7.61,6.29,-6.27,-6.20,-5.60,1.34,1.34,1.32
93.51,7.60,6.32,7.57,6.30,-6.27,-6.20,-5.62,1.32,1.30,1.27
94.44,7.52,6.29,7.51,6.29,-6.28,-6.19,-5.64,1.24,1.24,1.23
95.39,7.42,6.25,7.43,6.26,-6.29,-6.18,-5.67,1.13,1.15,1.17
96.34,7.37,6.25,7.37,6.25,-6.29,-6.18,-5.70,1.07,1.07,1.12
97.30,7.32,6.26,7.33,6.27,-6.30,-6.17,-5.74,1.02,1.03,1.06
98.28,7.31,6.30,7.30,6.30,-6.30,-6.16,-5.78,1.01,1.00,1.00
99.26,7.28,6.34,7.27,6.33,-6.29,-6.16,-5.82,0.98,0.98,0.94
100.25,7.22,6.34,7.21,6.33,-6.28,-6.15,-5.86,0.93,0.93,0.88
101.25,7.14,6.31,7.13,6.30,-6.27,-6.14,-5.91,0.87,0.86,0.83
102.27,7.02,6.24,7.03,6.26,-6.26,-6.14,-5.96,0.76,0.77,0.77
103.29,6.94,6.22,6.94,6.22,-6.24,-6.13,-6.01,0.69,0.70,0.72
104.32,6.86,6.19,6.85,6.19,-6.22,-6.12,-6.06,0.63,0.63,0.67
105.37,6.78,6.18,6.77,6.17,-6.20,-6.11,-6.12,0.58,0.57,0.60
106.42,6.69,6.14,6.71,6.16,-6.18,-6.10,-6.17,0.51,0.53,0.55
107.48,6.66,6.17,6.67,6.18,-6.16,-6.10,-6.22,0.50,0.51,0.48
108.56,6.64,6.20,6.61,6.18,-6.14,-6.09,-6.28,0.50,0.47,0.44
109.64,6.56,6.18,6.54,6.16,-6.13,-6.08,-6.33,0.43,0.42,0.38
110.74,6.43,6.11,6.45,6.13,-6.11,-6.07,-6.39,0.31,0.34,0.32
111.85,6.36,6.08,6.36,6.08,-6.11,-6.06,-6.44,0.25,0.25,0.27
112.97,6.29,6.06,6.28,6.05,-6.10,-6.05,-6.48,0.19,0.18,0.23
114.10,6.23,6.05,6.23,6.06,-6.09,-6.04,-6.53,0.14,0.14,0.18
115.24,6.18,6.06,6.20,6.08,-6.08,-6.03,-6.57,0.10,0.12,0.11
116.39,6.18,6.11,6.17,6.10,-6.07,-6.02,-6.61,0.10,0.09,0.07
117.55,6.16,6.13,6.12,6.11,-6.07,-6.01,-6.64,0.09,0.06,0.02
118.73,6.05,6.07,6.08,6.10,-6.07,-6.00,-6.67,-0.02,0.01,-0.02
119.92,6.01,6.07,6.01,6.07,-6.06,-5.99,-6.69,-0.06,-0.06,-0.07
121.12,5.96,6.05,5.94,6.03,-6.06,-5.98,-6.71,-0.10,-0.12,-0.09
122.33,5.88,6.01,5.90,6.03,-6.05,-5.97,-6.72,-0.17,-0.15,-0.13
123.55,5.84,6.00,5.85,6.02,-6.04,-5.96,-6.72,-0.20,-0.18,-0.17
124.79,5.85,6.05,5.82,6.02,-6.03,-5.95,-6.72,-0.18,-0.21,-0.20
126.03,5.79,6.03,5.78,6.03,-6.02,-5.94,-6.71,-0.24,-0.24,-0.24
127.29,5.74,6.02,5.75,6.03,-6.01,-5.93,-6.70,-0.28,-0.27,-0.28
128.57,5.69,6.01,5.70,6.02,-6.01,-5.92,-6.67,-0.32,-0.31,-0.32
129.85,5.68,6.03,5.65,6.01,-6.00,-5.90,-6.65,-0.32,-0.35,-0.35
131.15,5.59,5.98,5.60,5.99,-5.98,-5.89,-6.61,-0.40,-0.38,-0.39
132.46,5.53,5.96,5.54,5.97,-5.97,-5.88,-6.57,-0.44,-0.43,-0.43
133.79,5.48,5.95,5.46,5.93,-5.95,-5.87,-6.53,-0.47,-0.49,-0.48
135.12,5.40,5.91,5.40,5.92,-5.93,-5.85,-6.47,-0.53,-0.53,-0.51
136.48,5.34,5.89,5.35,5.91,-5.91,-5.84,-6.42,-0.57,-0.56,-0.55
137.84,5.32,5.90,5.31,5.90,-5.89,-5.83,-6.36,-0.58,-0.59,-0.59
139.22,5.27,5.91,5.26,5.89,-5.88,-5.81,-6.30,-0.61,-0.62,-0.64
140.61,5.21,5.87,5.20,5.87,-5.86,-5.80,-6.24,-0.66,-0.66,-0.66
142.02,5.13,5.83,5.14,5.84,-5.85,-5.79,-6.17,-0.72,-0.71,-0.71
143.44,5.08,5.82,5.09,5.83,-5.84,-5.77,-6.10,-0.76,-0.75,-0.75
144.87,5.04,5.82,5.04,5.82,-5.82,-5.76,-6.03,-0.78,-0.78,-0.78
146.32,5.01,5.83,4.98,5.80,-5.80,-5.74,-5.96,-0.79,-0.82,-0.82
147.78,4.92,5.77,4.93,5.79,-5.78,-5.73,-5.89,-0.86,-0.85,-0.86
149.26,4.86,5.75,4.88,5.77,-5.76,-5.71,-5.82,-0.91,-0.89,-0.90
150.75,4.84,5.78,4.81,5.75,-5.75,-5.70,-5.75,-0.91,-0.94,-0.94
152.26,4.76,5.73,4.75,5.72,-5.74,-5.68,-5.69,-0.98,-0.99,-0.97
153.78,4.67,5.68,4.70,5.71,-5.72,-5.67,-5.62,-1.06,-1.03,-1.02
155.32,4.65,5.69,4.65,5.70,-5.71,-5.65,-5.56,-1.07,-1.06,-1.04
156.88,4.65,5.73,4.62,5.71,-5.70,-5.64,-5.49,-1.05,-1.08,-1.09
158.44,4.59,5.72,4.58,5.71,-5.69,-5.62,-5.43,-1.10,-1.11,-1.13
160.03,4.51,5.68,4.52,5.69,-5.68,-5.60,-5.38,-1.17,-1.16,-1.17
161.63,4.46,5.67,4.45,5.67,-5.67,-5.59,-5.32,-1.21,-1.22,-1.21
163.24,4.39,5.65,4.39,5.65,-5.66,-5.57,-5.27,-1.27,-1.27,-1.26
164.88,4.33,5.63,4.33,5.64,-5.64,-5.55,-5.23,-1.32,-1.31,-1.30
166.53,4.28,5.63,4.28,5.63,-5.63,-5.53,-5.18,-1.35,-1.35,-1.35
168.19,4.23,5.62,4.22,5.61,-5.60,-5.52,-5.14,-1.38,-1.39,-1.39
169.87,4.16,5.60,4.15,5.59,-5.58,-5.50,-5.10,-1.42,-1.43,-1.44
171.57,4.07,5.55,4.09,5.57,-5.56,-5.48,-5.07,-1.49,-1.47,-1.49
173.29,4.04,5.56,4.01,5.54,-5.54,-5.46,-5.04,-1.50,-1.53,-1.52
175.02,3.95,5.51,3.94,5.51,-5.52,-5.44,-5.02,-1.57,-1.58,-1.57
176.77,3.85,5.46,3.88,5.49,-5.50,-5.42,-4.99,-1.65,-1.61,-1.61
178.54,3.84,5.48,3.82,5.47,-5.48,-5.40,-4.98,-1.64,-1.66,-1.65
180.32,3.79,5.48,3.77,5.46,-5.46,-5.39,-4.96,-1.68,-1.70,-1.69
182.13,3.71,5.44,3.73,5.45,-5.45,-5.37,-4.95,-1.74,-1.73,-1.73
183.95,3.67,5.43,3.68,5.44,-5.45,-5.35,-4.94,-1.78,-1.77,-1.76
185.79,3.66,5.46,3.64,5.44,-5.44,-5.32,-4.94,-1.79,-1.81,-1.80
187.65,3.61,5.44,3.60,5.44,-5.44,-5.30,-4.94,-1.83,-1.84,-1.83
189.52,3.56,5.43,3.58,5.44,-5.44,-5.28,-4.94,-1.88,-1.87,-1.87
191.42,3.54,5.43,3.54,5.44,-5.44,-5.26,-4.95,-1.91,-1.90,-1.89
193.33,3.54,5.47,3.51,5.44,-5.44,-5.24,-4.96,-1.91,-1.93,-1.93
195.27,3.47,5.44,3.47,5.44,-5.44,-5.22,-4.97,-1.97,-1.97,-1.97
197.22,3.40,5.40,3.42,5.43,-5.43,-5.20,-4.99,-2.03,-2.00,-2.01
199.19,3.39,5.42,3.38,5.42,-5.41,-5.18,-5.01,-2.02,-2.03,-2.03
201.18,3.35,5.42,3.34,5.41,-5.39,-5.15,-5.03,-2.04,-2.05,-2.07
203.19,3.30,5.39,3.29,5.38,-5.36,-5.13,-5.05,-2.07,-2.08,-2.10
205.23,3.21,5.33,3.21,5.33,-5.33,-5.11,-5.08,-2.12,-2.12,-2.12
207.28,3.13,5.27,3.14,5.29,-5.30,-5.08,-5.10,-2.17,-2.16,-2.15
209.35,3.07,5.26,3.06,5.25,-5.26,-5.06,-5.13,-2.19,-2.20,-2.19
211.44,3.01,5.22,3.00,5.22,-5.22,-5.04,-5.16,-2.21,-2.22,-2.21
213.56,2.94,5.18,2.94,5.19,-5.18,-5.01,-5.19,-2.25,-2.24,-2.25
215.69,2.89,5.16,2.88,5.15,-5.15,-4.99,-5.22,-2.26,-2.27,-2.27
217.85,2.82,5.11,2.81,5.11,-5.12,-4.96,-5.25,-2.31,-2.31,-2.29
220.03,2.75,5.08,2.77,5.09,-5.10,-4.94,-5.27,-2.35,-2.33,-2.33
222.23,2.72,5.07,2.72,5.07,-5.08,-4.91,-5.30,-2.36,-2.36,-2.36
224.45,2.71,5.08,2.68,5.05,-5.06,-4.89,-5.33,-2.35,-2.38,-2.38
226.70,2.63,5.02,2.65,5.05,-5.04,-4.86,-5.35,-2.41,-2.38,-2.40
228.96,2.62,5.02,2.63,5.04,-5.02,-4.84,-5.37,-2.40,-2.39,-2.41
231.25,2.63,5.05,2.59,5.01,-5.00,-4.81,-5.39,-2.38,-2.42,-2.43
233.57,2.56,4.99,2.54,4.99,-4.99,-4.78,-5.40,-2.43,-2.44,-2.44
235.90,2.46,4.91,2.51,4.96,-4.97,-4.76,-5.41,-2.51,-2.46,-2.46
238.26,2.48,4.94,2.47,4.93,-4.95,-4.73,-5.41,-2.48,-2.48,-2.47
240.64,2.50,4.95,2.46,4.92,-4.93,-4.70,-5.41,-2.44,-2.47,-2.45
243.05,2.45,4.91,2.46,4.93,-4.91,-4.68,-5.41,-2.47,-2.45,-2.46
245.48,2.43,4.89,2.44,4.91,-4.89,-4.65,-5.40,-2.47,-2.45,-2.46
247.93,2.45,4.91,2.42,4.88,-4.87,-4.62,-5.39,-2.43,-2.45,-2.47
250.41,2.39,4.84,2.40,4.85,-4.85,-4.59,-5.36,-2.46,-2.45,-2.46
252.92,2.36,4.81,2.36,4.82,-4.81,-4.57,-5.34,-2.46,-2.45,-2.45
255.45,2.33,4.80,2.32,4.79,-4.78,-4.54,-5.31,-2.46,-2.46,-2.47
258.00,2.29,4.76,2.28,4.75,-4.75,-4.51,-5.27,-2.46,-2.47,-2.48
260.58,2.24,4.72,2.23,4.71,-4.72,-4.48,-5.23,-2.48,-2.49,-2.48
263.19,2.16,4.65,2.18,4.66,-4.69,-4.45,-5.18,-2.53,-2.51,-2.49
265.82,2.14,4.63,2.15,4.64,-4.66,-4.42,-5.13,-2.52,-2.51,-2.49
268.48,2.13,4.64,2.12,4.63,-4.63,-4.39,-5.07,-2.51,-2.51,-2.51
271.16,2.13,4.65,2.11,4.63,-4.61,-4.36,-5.01,-2.48,-2.50,-2.53
273.87,2.06,4.59,2.07,4.61,-4.59,-4.33,-4.94,-2.53,-2.52,-2.53
276.61,2.03,4.57,2.02,4.57,-4.57,-4.30,-4.88,-2.54,-2.55,-2.55
279.38,1.98,4.54,1.97,4.53,-4.55,-4.27,-4.81,-2.58,-2.58,-2.56
282.17,1.94,4.49,1.96,4.51,-4.53,-4.24,-4.73,-2.59,-2.57,-2.56
284.99,1.94,4.50,1.94,4.50,-4.49,-4.21,-4.66,-2.55,-2.55,-2.56
287.84,1.95,4.50,1.92,4.48,-4.45,-4.18,-4.58,-2.50,-2.53,-2.55
290.72,1.89,4.46,1.87,4.44,-4.41,-4.14,-4.50,-2.52,-2.53,-2.57
293.63,1.79,4.36,1.81,4.38,-4.37,-4.11,-4.42,-2.58,-2.56,-2.57
296.57,1.75,4.31,1.74,4.31,-4.34,-4.08,-4.34,-2.59,-2.59,-2.57
299.53,1.71,4.27,1.69,4.25,-4.30,-4.05,-4.26,-2.59,-2.61,-2.56
302.53,1.65,4.21,1.66,4.22,-4.26,-4.02,-4.18,-2.61,-2.60,-2.56
305.55,1.63,4.19,1.65,4.21,-4.21,-3.98,-4.10,-2.59,-2.56,-2.57
308.61,1.65,4.21,1.64,4.20,-4.17,-3.95,-4.02,-2.53,-2.54,-2.56
311.69,1.65,4.21,1.61,4.17,-4.13,-3.92,-3.95,-2.49,-2.52,-2.56
314.81,1.54,4.10,1.55,4.12,-4.10,-3.88,-3.87,-2.56,-2.54,-2.57
317.96,1.47,4.04,1.47,4.04,-4.05,-3.85,-3.80,-2.59,-2.58,-2.57
321.14,1.40,3.97,1.41,3.98,-4.01,-3.82,-3.72,-2.61,-2.60,-2.57
324.35,1.37,3.94,1.38,3.95,-3.96,-3.78,-3.65,-2.59,-2.58,-2.58
327.59,1.37,3.93,1.34,3.91,-3.91,-3.75,-3.58,-2.54,-2.57,-2.57
330.87,1.31,3.88,1.29,3.86,-3.86,-3.72,-3.51,-2.55,-2.57,-2.57
334.18,1.20,3.78,1.23,3.80,-3.80,-3.68,-3.45,-2.61,-2.58,-2.58
337.52,1.17,3.74,1.18,3.76,-3.76,-3.65,-3.39,-2.59,-2.57,-2.57
340.90,1.17,3.73,1.15,3.72,-3.72,-3.61,-3.33,-2.55,-2.56,-2.57
344.30,1.15,3.71,1.12,3.68,-3.68,-3.58,-3.27,-2.53,-2.56,-2.56
347.75,1.05,3.61,1.06,3.62,-3.63,-3.54,-3.21,-2.59,-2.57,-2.56
351.23,0.99,3.55,1.01,3.56,-3.59,-3.51,-3.16,-2.60,-2.58,-2.56
354.74,0.98,3.52,0.99,3.54,-3.55,-3.47,-3.11,-2.57,-2.56,-2.55
358.28,0.99,3.53,0.98,3.52,-3.50,-3.44,-3.06,-2.51,-2.52,-2.55
361.87,0.99,3.53,0.95,3.49,-3.45,-3.40,-3.01,-2.46,-2.50,-2.54
365.49,0.87,3.40,0.89,3.42,-3.40,-3.36,-2.97,-2.53,-2.51,-2.53
369.14,0.82,3.34,0.83,3.35,-3.35,-3.33,-2.92,-2.54,-2.53,-2.52
372.83,0.77,3.28,0.76,3.28,-3.31,-3.29,-2.88,-2.54,-2.55,-2.51
376.56,0.73,3.25,0.72,3.23,-3.26,-3.26,-2.85,-2.54,-2.55,-2.53
380.33,0.67,3.18,0.68,3.20,-3.22,-3.22,-2.81,-2.55,-2.54,-2.52
384.13,0.65,3.16,0.67,3.18,-3.17,-3.18,-2.78,-2.53,-2.51,-2.52
387.97,0.66,3.17,0.65,3.16,-3.13,-3.15,-2.75,-2.48,-2.49,-2.51
391.85,0.65,3.16,0.61,3.13,-3.10,-3.11,-2.72,-2.46,-2.49,-2.51
395.77,0.55,3.07,0.56,3.08,-3.08,-3.07,-2.69,-2.53,-2.52,-2.52
399.73,0.48,3.01,0.51,3.03,-3.05,-3.04,-2.66,-2.57,-2.54,-2.53
403.72,0.47,2.99,0.46,2.99,-3.02,-3.00,-2.64,-2.55,-2.56,-2.52
407.76,0.46,2.99,0.44,2.97,-2.98,-2.96,-2.61,-2.53,-2.55,-2.54
411.84,0.41,2.95,0.42,2.96,-2.94,-2.92,-2.59,-2.54,-2.53,-2.55
415.96,0.37,2.91,0.38,2.93,-2.91,-2.89,-2.57,-2.54,-2.52,-2.55
420.12,0.36,2.92,0.33,2.89,-2.87,-2.85,-2.55,-2.51,-2.53,-2.56
424.32,0.29,2.84,0.28,2.83,-2.83,-2.81,-2.53,-2.54,-2.55,-2.55
428.56,0.22,2.75,0.24,2.77,-2.79,-2.77,-2.52,-2.57,-2.55,-2.53
432.85,0.20,2.71,0.22,2.73,-2.74,-2.74,-2.50,-2.55,-2.53,-2.51
437.18,0.23,2.72,0.20,2.69,-2.70,-2.70,-2.48,-2.47,-2.49,-2.49
441.55,0.22,2.68,0.19,2.65,-2.65,-2.66,-2.47,-2.43,-2.46,-2.46
445.96,0.15,2.57,0.18,2.60,-2.60,-2.62,-2.45,-2.45,-2.42,-2.42
450.42,0.17,2.54,0.19,2.57,-2.56,-2.58,-2.43,-2.39,-2.37,-2.37
454.93,0.23,2.55,0.20,2.52,-2.51,-2.54,-2.42,-2.29,-2.32,-2.32
459.48,0.24,2.51,0.21,2.48,-2.47,-2.50,-2.40,-2.24,-2.27,-2.28
464.07,0.18,2.38,0.21,2.42,-2.44,-2.47,-2.38,-2.26,-2.22,-2.21
468.71,0.21,2.35,0.23,2.38,-2.40,-2.43,-2.36,-2.19,-2.17,-2.15
473.40,0.28,2.37,0.25,2.35,-2.36,-2.39,-2.34,-2.09,-2.11,-2.10
478.13,0.31,2.34,0.29,2.33,-2.32,-2.35,-2.32,-2.02,-2.03,-2.04
482.91,0.30,2.29,0.31,2.30,-2.28,-2.31,-2.30,-1.99,-1.97,-1.99
487.74,0.32,2.26,0.32,2.26,-2.24,-2.27,-2.28,-1.92,-1.92,-1.94
492.62,0.32,2.22,0.31,2.21,-2.20,-2.23,-2.25,-1.88,-1.89,-1.90
