frequency,raw,error,smoothed,error_smoothed,equalization,parametric_eq,fixed_band_eq,equalized_raw,equalized_smoothed,target
20.00,-25.59,-27.82,-25.59,-27.82,6.00,5.37,2.81,-19.59,-19.59,2.23
20.20,-25.49,-27.73,-25.49,-27.72,6.00,5.39,2.89,-19.49,-19.49,2.23
20.40,-25.38,-27.62,-25.39,-27.62,6.00,5.41,2.97,-19.38,-19.39,2.23
20.61,-25.28,-27.52,-25.28,-27.52,6.00,5.44,3.05,-19.28,-19.28,2.24
20.81,-25.18,-27.42,-25.18,-27.41,6.00,5.46,3.14,-19.18,-19.18,2.24
21.02,-25.07,-27.31,-25.08,-27.31,6.00,5.48,3.23,-19.07,-19.08,2.24
21.23,-24.97,-27.21,-24.97,-27.21,6.00,5.50,3.32,-18.97,-18.97,2.24
21.44,-24.87,-27.11,-24.87,-27.11,6.00,5.53,3.42,-18.87,-18.87,2.24
21.66,-24.76,-27.00,-24.77,-27.01,6.00,5.55,3.52,-18.76,-18.77,2.24
21.87,-24.66,-26.90,-24.66,-26.90,6.00,5.57,3.62,-18.66,-18.66,2.24
22.09,-24.56,-26.80,-24.56,-26.80,6.00,5.60,3.72,-18.56,-18.56,2.24
22.31,-24.46,-26.70,-24.46,-26.70,6.00,5.62,3.83,-18.46,-18.46,2.24
22.54,-24.35,-26.60,-24.36,-26.60,6.00,5.64,3.94,-18.35,-18.36,2.25
22.76,-24.25,-26.50,-24.25,-26.50,6.00,5.66,4.05,-18.25,-18.25,2.25
22.99,-24.15,-26.40,-24.15,-26.40,6.00,5.69,4.16,-18.15,-18.15,2.25
23.22,-24.04,-26.29,-24.05,-26.29,6.00,5.71,4.28,-18.04,-18.05,2.25
23.45,-23.94,-26.19,-23.94,-26.19,6.00,5.73,4.40,-17.94,-17.94,2.25
23.69,-23.84,-26.09,-23.84,-26.09,6.00,5.76,4.52,-17.84,-17.84,2.25
23.92,-23.73,-25.98,-23.74,-25.99,6.00,5.78,4.65,-17.73,-17.74,2.25
24.16,-23.63,-25.88,-23.63,-25.88,6.00,5.80,4.78,-17.63,-17.63,2.25
24.40,-23.53,-25.78,-23.53,-25.78,6.00,5.82,4.91,-17.53,-17.53,2.25
24.65,-23.42,-25.68,-23.43,-25.68,6.00,5.85,5.04,-17.42,-17.43,2.25
24.89,-23.32,-25.58,-23.32,-25.58,6.00,5.87,5.17,-17.32,-17.32,2.25
25.14,-23.22,-25.48,-23.22,-25.47,6.00,5.89,5.31,-17.22,-17.22,2.26
25.39,-23.11,-25.37,-23.11,-25.37,6.00,5.91,5.44,-17.11,-17.11,2.26
25.65,-23.01,-25.27,-23.01,-25.27,6.00,5.93,5.58,-17.01,-17.01,2.26
25.91,-22.91,-25.17,-22.91,-25.17,6.00,5.95,5.72,-16.91,-16.91,2.26
26.16,-22.81,-25.07,-22.81,-25.07,6.00,5.97,5.85,-16.81,-16.81,2.26
26.43,-22.70,-24.96,-22.72,-24.98,6.00,6.00,5.99,-16.70,-16.72,2.26
26.69,-22.62,-24.88,-22.62,-24.88,6.00,6.02,6.13,-16.62,-16.62,2.26
26.96,-22.52,-24.78,-22.51,-24.78,6.00,6.04,6.26,-16.52,-16.51,2.26
27.23,-22.39,-24.66,-22.38,-24.65,6.00,6.06,6.39,-16.39,-16.38,2.26
27.50,-22.21,-24.48,-22.22,-24.48,6.00,6.08,6.52,-16.21,-16.22,2.26
27.77,-22.04,-24.30,-22.04,-24.30,6.00,6.10,6.65,-16.04,-16.04,2.26
28.05,-21.85,-24.12,-21.86,-24.12,6.00,6.12,6.77,-15.85,-15.86,2.26
28.33,-21.68,-23.95,-21.68,-23.94,6.00,6.13,6.88,-15.68,-15.68,2.26
28.62,-21.50,-23.76,-21.50,-23.77,6.00,6.15,6.99,-15.50,-15.50,2.27
28.90,-21.33,-23.60,-21.33,-23.59,6.00,6.17,7.09,-15.33,-15.33,2.27
29.19,-21.15,-23.42,-21.15,-23.42,6.00,6.19,7.18,-15.15,-15.15,2.27
29.48,-20.97,-23.24,-20.98,-23.24,6.00,6.21,7.26,-14.97,-14.98,2.27
29.78,-20.79,-23.06,-20.79,-23.06,6.00,6.23,7.34,-14.79,-14.79,2.27
30.08,-20.63,-22.89,-20.62,-22.88,6.00,6.24,7.40,-14.63,-14.62,2.27
30.38,-20.43,-22.69,-20.44,-22.71,6.00,6.26,7.45,-14.43,-14.44,2.27
30.68,-20.26,-22.53,-20.26,-22.52,6.00,6.28,7.49,-14.26,-14.26,2.27
30.99,-20.08,-22.35,-20.07,-22.34,6.00,6.29,7.52,-14.08,-14.07,2.27
31.30,-19.87,-22.14,-19.89,-22.16,6.00,6.31,7.53,-13.87,-13.89,2.27
31.61,-19.71,-21.98,-19.70,-21.97,6.00,6.32,7.54,-13.71,-13.70,2.27
31.93,-19.51,-21.77,-19.51,-21.78,6.00,6.34,7.53,-13.51,-13.51,2.27
32.24,-19.32,-21.59,-19.33,-21.60,6.00,6.35,7.51,-13.32,-13.33,2.27
32.57,-19.15,-21.42,-19.15,-21.42,6.00,6.37,7.48,-13.15,-13.15,2.27
32.89,-19.00,-21.27,-19.00,-21.27,6.00,6.38,7.44,-13.00,-13.00,2.27
33.22,-18.84,-21.11,-18.85,-21.12,6.00,6.39,7.39,-12.84,-12.85,2.27
33.55,-18.70,-20.97,-18.70,-20.97,6.00,6.41,7.33,-12.70,-12.70,2.27
33.89,-18.54,-20.81,-18.54,-20.81,6.00,6.42,7.27,-12.54,-12.54,2.27
34.23,-18.36,-20.63,-18.36,-20.62,6.00,6.43,7.19,-12.36,-12.36,2.27
34.57,-18.16,-20.43,-18.16,-20.43,6.00,6.44,7.11,-12.16,-12.16,2.27
34.92,-17.95,-20.22,-17.97,-20.23,6.00,6.45,7.03,-11.95,-11.97,2.27
35.27,-17.77,-20.04,-17.77,-20.04,6.00,6.46,6.93,-11.77,-11.77,2.27
35.62,-17.58,-19.85,-17.57,-19.84,6.00,6.47,6.84,-11.58,-11.57,2.27
35.97,-17.37,-19.63,-17.38,-19.64,6.00,6.48,6.74,-11.37,-11.38,2.26
36.33,-17.18,-19.44,-17.18,-19.44,6.00,6.49,6.64,-11.18,-11.18,2.26
36.70,-16.98,-19.25,-16.98,-19.24,6.00,6.50,6.54,-10.98,-10.98,2.26
37.06,-16.78,-19.04,-16.79,-19.05,6.00,6.51,6.44,-10.78,-10.79,2.26
37.43,-16.59,-18.85,-16.59,-18.85,6.00,6.52,6.34,-10.59,-10.59,2.26
37.81,-16.39,-18.65,-16.39,-18.65,6.00,6.52,6.23,-10.39,-10.39,2.26
38.19,-16.19,-18.45,-16.20,-18.46,6.00,6.53,6.13,-10.19,-10.20,2.26
38.57,-16.01,-18.27,-16.00,-18.26,6.00,6.53,6.03,-10.01,-10.00,2.26
38.95,-15.81,-18.07,-15.81,-18.06,6.00,6.54,5.94,-9.81,-9.81,2.26
39.34,-15.60,-17.85,-15.61,-17.86,6.00,6.54,5.84,-9.60,-9.61,2.25
39.74,-15.40,-17.66,-15.41,-17.66,6.00,6.54,5.75,-9.40,-9.41,2.25
40.14,-15.21,-17.47,-15.21,-17.46,6.00,6.54,5.66,-9.21,-9.21,2.25
40.54,-15.01,-17.26,-15.01,-17.26,6.00,6.54,5.57,-9.01,-9.01,2.25
40.94,-14.80,-17.05,-14.80,-17.05,6.00,6.54,5.49,-8.80,-8.80,2.25
41.35,-14.59,-16.84,-14.59,-16.84,6.00,6.54,5.41,-8.59,-8.59,2.24
41.76,-14.39,-16.63,-14.39,-16.63,6.00,6.54,5.33,-8.39,-8.39,2.24
42.18,-14.19,-16.43,-14.19,-16.43,6.00,6.54,5.26,-8.19,-8.19,2.24
42.60,-14.00,-16.24,-14.00,-16.24,6.00,6.53,5.19,-8.00,-8.00,2.24
43.03,-13.81,-16.05,-13.81,-16.05,6.00,6.53,5.12,-7.81,-7.81,2.23
43.46,-13.63,-15.86,-13.63,-15.86,6.00,6.52,5.06,-7.63,-7.63,2.23
43.90,-13.44,-15.67,-13.45,-15.67,6.00,6.51,5.00,-7.44,-7.45,2.23
44.33,-13.26,-15.48,-13.26,-15.49,6.00,6.50,4.95,-7.26,-7.26,2.22
44.78,-13.09,-15.31,-13.09,-15.31,6.00,6.49,4.90,-7.09,-7.09,2.22
45.23,-12.89,-15.11,-12.91,-15.12,6.00,6.48,4.86,-6.89,-6.91,2.22
45.68,-12.73,-14.95,-12.72,-14.93,6.00,6.47,4.81,-6.73,-6.72,2.21
46.13,-12.52,-14.73,-12.52,-14.73,6.00,6.45,4.77,-6.52,-6.52,2.21
46.60,-12.31,-14.52,-12.31,-14.52,6.00,6.44,4.74,-6.31,-6.31,2.20
47.06,-12.09,-14.29,-12.10,-14.30,6.00,6.42,4.71,-6.09,-6.10,2.20
47.53,-11.88,-14.08,-11.88,-14.08,6.00,6.40,4.68,-5.88,-5.88,2.20
48.01,-11.67,-13.86,-11.67,-13.86,6.00,6.38,4.66,-5.67,-5.67,2.19
48.49,-11.45,-13.64,-11.45,-13.64,6.00,6.35,4.63,-5.45,-5.45,2.19
48.97,-11.22,-13.40,-11.22,-13.40,6.00,6.33,4.61,-5.22,-5.22,2.18
49.46,-10.97,-13.15,-10.97,-13.15,6.00,6.30,4.60,-4.97,-4.97,2.17
49.96,-10.72,-12.89,-10.72,-12.89,6.00,6.27,4.58,-4.72,-4.72,2.17
50.46,-10.47,-12.64,-10.47,-12.64,6.00,6.24,4.57,-4.47,-4.47,2.16
50.96,-10.23,-12.39,-10.24,-12.39,6.00,6.20,4.56,-4.23,-4.24,2.16
51.47,-10.00,-12.15,-10.00,-12.15,6.00,6.17,4.56,-4.00,-4.00,2.15
51.99,-9.78,-11.93,-9.78,-11.92,6.00,6.13,4.55,-3.78,-3.78,2.14
52.51,-9.54,-11.68,-9.55,-11.68,6.00,6.08,4.54,-3.54,-3.55,2.13
53.03,-9.31,-11.44,-9.32,-11.44,6.00,6.04,4.54,-3.31,-3.32,2.13
53.56,-9.08,-11.20,-9.08,-11.20,6.00,5.99,4.53,-3.08,-3.08,2.12
54.10,-8.84,-10.95,-8.84,-10.95,6.00,5.94,4.53,-2.84,-2.84,2.11
54.64,-8.58,-10.68,-8.58,-10.68,6.00,5.88,4.52,-2.58,-2.58,2.10
55.18,-8.30,-10.39,-8.30,-10.39,6.00,5.83,4.51,-2.30,-2.30,2.09
55.74,-8.00,-10.09,-8.01,-10.09,6.00,5.76,4.50,-2.00,-2.01,2.08
56.29,-7.70,-9.77,-7.71,-9.78,6.00,5.70,4.49,-1.70,-1.71,2.07
56.86,-7.42,-9.49,-7.41,-9.48,6.00,5.63,4.48,-1.42,-1.41,2.06
57.42,-7.12,-9.17,-7.13,-9.18,6.00,5.55,4.46,-1.12,-1.13,2.05
58.00,-6.83,-8.87,-6.84,-8.88,6.00,5.47,4.44,-0.83,-0.84,2.04
58.58,-6.55,-8.58,-6.55,-8.58,6.00,5.39,4.42,-0.55,-0.55,2.03
59.16,-6.25,-8.27,-6.26,-8.27,6.00,5.30,4.39,-0.25,-0.26,2.02
59.76,-5.96,-7.97,-5.96,-7.96,6.01,5.21,4.36,0.05,0.06,2.01
60.35,-5.65,-7.64,-5.65,-7.65,6.04,5.11,4.32,0.39,0.38,1.99
60.96,-5.35,-7.33,-5.36,-7.34,6.05,5.01,4.27,0.70,0.69,1.98
61.57,-5.06,-7.03,-5.07,-7.03,6.05,4.90,4.22,0.99,0.99,1.97
62.18,-4.79,-6.74,-4.78,-6.73,6.02,4.79,4.17,1.23,1.24,1.95
62.80,-4.49,-6.43,-4.49,-6.43,5.96,4.67,4.11,1.47,1.46,1.94
63.43,-4.21,-6.13,-4.21,-6.13,5.85,4.54,4.04,1.64,1.64,1.92
64.07,-3.91,-5.82,-3.92,-5.82,5.69,4.41,3.97,1.78,1.78,1.91
64.71,-3.64,-5.53,-3.63,-5.52,5.49,4.27,3.89,1.85,1.86,1.89
65.35,-3.33,-5.20,-3.35,-5.22,5.25,4.13,3.80,1.92,1.91,1.87
66.01,-3.07,-4.93,-3.07,-4.92,4.98,3.98,3.71,1.90,1.91,1.86
66.67,-2.79,-4.63,-2.78,-4.62,4.67,3.82,3.61,1.88,1.89,1.84
67.33,-2.49,-4.31,-2.50,-4.33,4.35,3.65,3.51,1.86,1.85,1.82
68.01,-2.22,-4.03,-2.22,-4.02,4.03,3.48,3.40,1.81,1.81,1.80
68.69,-1.93,-3.72,-1.94,-3.72,3.72,3.30,3.29,1.79,1.78,1.78
69.37,-1.65,-3.41,-1.65,-3.42,3.42,3.11,3.18,1.77,1.77,1.76
70.07,-1.38,-3.13,-1.37,-3.11,3.12,2.92,3.06,1.73,1.75,1.74
70.77,-1.07,-2.79,-1.09,-2.81,2.81,2.71,2.93,1.74,1.72,1.72
71.48,-0.81,-2.51,-0.81,-2.51,2.50,2.50,2.81,1.69,1.69,1.70
72.19,-0.52,-2.20,-0.52,-2.20,2.19,2.28,2.68,1.67,1.67,1.68
72.91,-0.23,-1.89,-0.23,-1.88,1.88,2.05,2.55,1.65,1.65,1.65
73.64,0.08,-1.55,0.07,-1.56,1.56,1.81,2.41,1.64,1.63,1.63
74.38,0.37,-1.24,0.37,-1.24,1.25,1.57,2.27,1.61,1.61,1.61
75.12,0.65,-0.93,0.66,-0.92,0.93,1.32,2.14,1.58,1.59,1.58
75.87,0.96,-0.60,0.95,-0.60,0.61,1.05,2.00,1.57,1.56,1.56
76.63,1.25,-0.28,1.25,-0.28,0.28,0.78,1.86,1.53,1.53,1.53
77.40,1.55,0.04,1.54,0.04,-0.04,0.51,1.71,1.51,1.51,1.51
78.17,1.83,0.35,1.83,0.36,-0.36,0.22,1.57,1.47,1.47,1.48
78.95,2.13,0.68,2.13,0.68,-0.69,-0.07,1.43,1.44,1.45,1.45
79.74,2.43,1.01,2.43,1.00,-1.01,-0.37,1.28,1.42,1.42,1.42
80.54,2.73,1.33,2.72,1.33,-1.33,-0.68,1.14,1.40,1.39,1.39
81.35,3.02,1.65,3.02,1.66,-1.65,-0.99,0.99,1.36,1.37,1.36
82.16,3.31,1.97,3.31,1.98,-1.97,-1.31,0.85,1.33,1.34,1.33
82.98,3.61,2.30,3.60,2.29,-2.29,-1.64,0.70,1.32,1.31,1.30
83.81,3.88,2.60,3.88,2.61,-2.61,-1.97,0.55,1.27,1.27,1.27
84.65,4.15,2.91,4.15,2.91,-2.91,-2.30,0.41,1.23,1.24,1.24
85.50,4.42,3.21,4.42,3.21,-3.21,-2.63,0.26,1.20,1.21,1.21
86.35,4.69,3.51,4.68,3.51,-3.51,-2.96,0.11,1.18,1.17,1.18
87.22,4.95,3.80,4.94,3.79,-3.80,-3.29,-0.04,1.15,1.14,1.14
88.09,5.17,4.06,5.18,4.07,-4.07,-3.61,-0.18,1.09,1.11,1.11
88.97,5.42,4.34,5.41,4.33,-4.34,-3.93,-0.33,1.08,1.07,1.08
89.86,5.63,4.58,5.63,4.59,-4.59,-4.23,-0.48,1.03,1.04,1.04
90.76,5.84,4.83,5.84,4.83,-4.83,-4.53,-0.63,1.01,1.01,1.01
91.66,6.02,5.05,6.02,5.05,-5.04,-4.80,-0.78,0.97,0.98,0.97
92.58,6.19,5.25,6.18,5.25,-5.24,-5.06,-0.93,0.95,0.95,0.94
93.51,6.32,5.42,6.32,5.41,-5.40,-5.30,-1.08,0.91,0.91,0.90
94.44,6.42,5.55,6.42,5.55,-5.54,-5.50,-1.23,0.87,0.87,0.86
95.39,6.49,5.66,6.49,5.66,-5.65,-5.68,-1.38,0.83,0.84,0.83
96.34,6.54,5.75,6.53,5.74,-5.73,-5.83,-1.53,0.80,0.80,0.79
97.30,6.55,5.79,6.54,5.79,-5.79,-5.95,-1.68,0.76,0.76,0.75
98.28,6.53,5.81,6.53,5.81,-5.81,-6.03,-1.83,0.72,0.72,0.72
99.26,6.48,5.80,6.49,5.81,-5.80,-6.08,-1.98,0.67,0.68,0.68
100.25,6.43,5.79,6.42,5.78,-5.78,-6.10,-2.12,0.65,0.64,0.64
101.25,6.34,5.73,6.33,5.73,-5.73,-6.08,-2.27,0.61,0.61,0.60
102.27,6.22,5.65,6.23,5.66,-5.66,-6.04,-2.42,0.56,0.57,0.57
103.29,6.12,5.59,6.10,5.58,-5.58,-5.97,-2.56,0.54,0.52,0.53
104.32,5.97,5.48,5.97,5.48,-5.49,-5.88,-2.71,0.48,0.49,0.49
105.37,5.82,5.37,5.83,5.37,-5.38,-5.77,-2.85,0.44,0.45,0.45
106.42,5.68,5.26,5.67,5.26,-5.26,-5.64,-2.99,0.42,0.41,0.41
107.48,5.51,5.13,5.51,5.13,-5.13,-5.50,-3.12,0.37,0.37,0.38
108.56,5.34,5.00,5.34,5.00,-5.00,-5.35,-3.25,0.34,0.34,0.34
109.64,5.16,4.86,5.17,4.87,-4.86,-5.19,-3.38,0.30,0.31,0.30
110.74,5.00,4.73,4.98,4.72,-4.72,-5.02,-3.50,0.28,0.26,0.26
111.85,4.79,4.56,4.79,4.56,-4.56,-4.85,-3.62,0.22,0.22,0.23
112.97,4.58,4.39,4.60,4.41,-4.41,-4.67,-3.73,0.17,0.19,0.19
114.10,4.41,4.26,4.40,4.25,-4.25,-4.50,-3.84,0.16,0.15,0.15
115.24,4.22,4.10,4.21,4.09,-4.09,-4.32,-3.93,0.13,0.11,0.11
116.39,4.01,3.93,4.01,3.93,-3.93,-4.15,-4.02,0.08,0.08,0.08
117.55,3.80,3.76,3.81,3.77,-3.77,-3.98,-4.10,0.03,0.04,0.04
118.73,3.62,3.61,3.61,3.61,-3.61,-3.81,-4.17,0.01,0.00,0.00
119.92,3.43,3.46,3.42,3.45,-3.45,-3.64,-4.23,-0.03,-0.03,-0.03
121.12,3.23,3.29,3.23,3.30,-3.30,-3.48,-4.29,-0.07,-0.07,-0.07
122.33,3.04,3.14,3.04,3.15,-3.15,-3.32,-4.33,-0.11,-0.10,-0.10
123.55,2.87,3.00,2.86,3.00,-3.00,-3.16,-4.36,-0.13,-0.14,-0.14
124.79,2.69,2.86,2.69,2.86,-2.86,-3.01,-4.37,-0.17,-0.17,-0.17
126.03,2.51,2.71,2.51,2.72,-2.72,-2.86,-4.38,-0.21,-0.20,-0.20
127.29,2.35,2.58,2.34,2.58,-2.58,-2.72,-4.38,-0.23,-0.24,-0.24
128.57,2.18,2.45,2.18,2.44,-2.45,-2.58,-4.36,-0.27,-0.27,-0.27
129.85,2.02,2.32,2.02,2.32,-2.32,-2.45,-4.34,-0.30,-0.30,-0.30
131.15,1.85,2.18,1.86,2.19,-2.19,-2.32,-4.30,-0.34,-0.33,-0.33
132.46,1.72,2.08,1.70,2.07,-2.06,-2.19,-4.26,-0.35,-0.36,-0.36
133.79,1.55,1.94,1.55,1.94,-1.94,-2.07,-4.21,-0.39,-0.39,-0.39
135.12,1.39,1.81,1.39,1.82,-1.82,-1.95,-4.14,-0.43,-0.43,-0.42
136.48,1.23,1.68,1.24,1.69,-1.70,-1.83,-4.07,-0.47,-0.46,-0.45
137.84,1.10,1.58,1.09,1.57,-1.58,-1.72,-3.99,-0.48,-0.48,-0.48
139.22,0.95,1.46,0.95,1.46,-1.46,-1.61,-3.91,-0.51,-0.51,-0.51
140.61,0.81,1.35,0.80,1.34,-1.34,-1.51,-3.82,-0.53,-0.53,-0.54
142.02,0.66,1.22,0.66,1.23,-1.22,-1.41,-3.72,-0.56,-0.56,-0.57
143.44,0.52,1.11,0.52,1.11,-1.11,-1.31,-3.62,-0.59,-0.59,-0.59
144.87,0.39,1.01,0.38,1.00,-1.00,-1.22,-3.51,-0.61,-0.62,-0.62
146.32,0.24,0.88,0.24,0.89,-0.89,-1.13,-3.40,-0.65,-0.65,-0.64
147.78,0.12,0.79,0.12,0.79,-0.79,-1.04,-3.29,-0.68,-0.68,-0.67
149.26,-0.00,0.69,-0.00,0.69,-0.70,-0.95,-3.18,-0.70,-0.70,-0.69
150.75,-0.10,0.61,-0.10,0.61,-0.62,-0.87,-3.06,-0.72,-0.72,-0.72
152.26,-0.20,0.54,-0.20,0.54,-0.54,-0.79,-2.94,-0.74,-0.74,-0.74
153.78,-0.28,0.48,-0.29,0.47,-0.47,-0.71,-2.82,-0.76,-0.76,-0.76
155.32,-0.37,0.41,-0.37,0.42,-0.41,-0.64,-2.70,-0.79,-0.78,-0.78
156.88,-0.44,0.36,-0.44,0.37,-0.37,-0.57,-2.58,-0.81,-0.80,-0.81
158.44,-0.49,0.33,-0.50,0.32,-0.33,-0.50,-2.46,-0.82,-0.83,-0.83
160.03,-0.56,0.28,-0.56,0.29,-0.29,-0.43,-2.34,-0.86,-0.85,-0.85
161.63,-0.61,0.25,-0.61,0.26,-0.27,-0.36,-2.22,-0.88,-0.87,-0.87
163.24,-0.64,0.24,-0.64,0.24,-0.25,-0.30,-2.10,-0.89,-0.89,-0.88
164.88,-0.67,0.23,-0.67,0.23,-0.23,-0.24,-1.98,-0.91,-0.91,-0.90
166.53,-0.69,0.23,-0.70,0.22,-0.22,-0.18,-1.86,-0.91,-0.92,-0.92
168.19,-0.73,0.21,-0.72,0.22,-0.21,-0.12,-1.74,-0.94,-0.93,-0.94
169.87,-0.74,0.21,-0.75,0.20,-0.19,-0.07,-1.62,-0.93,-0.95,-0.95
171.57,-0.79,0.18,-0.79,0.18,-0.17,-0.02,-1.51,-0.96,-0.96,-0.97
173.29,-0.84,0.14,-0.83,0.15,-0.14,0.04,-1.39,-0.98,-0.97,-0.99
175.02,-0.88,0.12,-0.89,0.11,-0.11,0.09,-1.28,-0.99,-1.00,-1.00
176.77,-0.95,0.06,-0.95,0.07,-0.06,0.13,-1.16,-1.02,-1.01,-1.02
178.54,-1.02,0.01,-1.01,0.02,-0.02,0.18,-1.05,-1.04,-1.03,-1.03
180.32,-1.07,-0.03,-1.08,-0.04,0.03,0.23,-0.94,-1.04,-1.05,-1.04
182.13,-1.15,-0.09,-1.15,-0.09,0.09,0.27,-0.83,-1.07,-1.06,-1.06
183.95,-1.21,-0.14,-1.21,-0.14,0.14,0.31,-0.72,-1.07,-1.07,-1.07
185.79,-1.27,-0.19,-1.27,-0.19,0.19,0.35,-0.61,-1.08,-1.08,-1.08
187.65,-1.33,-0.24,-1.33,-0.24,0.24,0.39,-0.50,-1.10,-1.10,-1.10
189.52,-1.39,-0.29,-1.39,-0.29,0.28,0.43,-0.39,-1.11,-1.11,-1.11
191.42,-1.45,-0.33,-1.45,-0.33,0.32,0.47,-0.28,-1.13,-1.12,-1.12
193.33,-1.49,-0.36,-1.49,-0.37,0.36,0.50,-0.18,-1.13,-1.13,-1.13
195.27,-1.53,-0.39,-1.54,-0.40,0.40,0.54,-0.07,-1.14,-1.14,-1.14
197.22,-1.58,-0.43,-1.58,-0.43,0.43,0.57,0.03,-1.15,-1.15,-1.15
199.19,-1.61,-0.45,-1.62,-0.46,0.46,0.60,0.13,-1.15,-1.16,-1.16
201.18,-1.66,-0.50,-1.66,-0.49,0.49,0.63,0.23,-1.17,-1.17,-1.17
203.19,-1.69,-0.52,-1.70,-0.52,0.52,0.66,0.33,-1.17,-1.18,-1.18
205.23,-1.73,-0.55,-1.73,-0.55,0.55,0.69,0.43,-1.18,-1.18,-1.18
207.28,-1.77,-0.58,-1.77,-0.58,0.58,0.72,0.52,-1.19,-1.19,-1.19
209.35,-1.80,-0.60,-1.81,-0.61,0.61,0.75,0.62,-1.19,-1.20,-1.20
211.44,-1.86,-0.65,-1.85,-0.64,0.64,0.77,0.71,-1.22,-1.21,-1.21
213.56,-1.88,-0.67,-1.89,-0.67,0.67,0.80,0.80,-1.21,-1.21,-1.22
215.69,-1.92,-0.70,-1.93,-0.71,0.70,0.82,0.89,-1.22,-1.22,-1.22
217.85,-1.97,-0.74,-1.96,-0.74,0.73,0.84,0.98,-1.24,-1.23,-1.23
220.03,-2.00,-0.77,-2.00,-0.77,0.76,0.87,1.06,-1.24,-1.24,-1.24
222.23,-2.03,-0.79,-2.03,-0.79,0.79,0.89,1.14,-1.24,-1.24,-1.24
224.45,-2.06,-0.82,-2.06,-0.82,0.82,0.91,1.22,-1.25,-1.25,-1.25
226.70,-2.09,-0.84,-2.09,-0.84,0.84,0.93,1.29,-1.25,-1.25,-1.25
228.96,-2.12,-0.86,-2.12,-0.86,0.86,0.95,1.37,-1.26,-1.25,-1.26
231.25,-2.15,-0.89,-2.15,-0.88,0.89,0.96,1.43,-1.26,-1.26,-1.26
233.57,-2.16,-0.89,-2.18,-0.91,0.91,0.98,1.50,-1.25,-1.27,-1.27
235.90,-2.21,-0.94,-2.20,-0.93,0.93,1.00,1.56,-1.28,-1.27,-1.27
238.26,-2.24,-0.97,-2.24,-0.96,0.96,1.02,1.61,-1.29,-1.28,-1.28
240.64,-2.25,-0.97,-2.26,-0.98,0.98,1.03,1.67,-1.27,-1.28,-1.28
243.05,-2.29,-1.01,-2.29,-1.00,1.00,1.04,1.71,-1.29,-1.28,-1.28
245.48,-2.30,-1.01,-2.31,-1.02,1.02,1.06,1.76,-1.28,-1.29,-1.29
247.93,-2.34,-1.05,-2.34,-1.05,1.04,1.07,1.79,-1.30,-1.30,-1.29
250.41,-2.35,-1.06,-2.35,-1.06,1.06,1.08,1.83,-1.29,-1.30,-1.30
252.92,-2.38,-1.08,-2.38,-1.08,1.07,1.10,1.86,-1.31,-1.30,-1.30
255.45,-2.38,-1.08,-2.39,-1.09,1.09,1.11,1.88,-1.29,-1.30,-1.30
258.00,-2.42,-1.12,-2.41,-1.11,1.11,1.12,1.90,-1.32,-1.30,-1.30
260.58,-2.42,-1.12,-2.43,-1.12,1.12,1.13,1.92,-1.30,-1.31,-1.31
263.19,-2.45,-1.14,-2.45,-1.14,1.14,1.14,1.93,-1.31,-1.31,-1.31
265.82,-2.47,-1.16,-2.47,-1.16,1.16,1.15,1.94,-1.31,-1.31,-1.31
268.48,-2.49,-1.18,-2.50,-1.18,1.18,1.16,1.95,-1.31,-1.32,-1.31
271.16,-2.52,-1.21,-2.52,-1.20,1.21,1.16,1.95,-1.32,-1.31,-1.32
273.87,-2.55,-1.23,-2.55,-1.23,1.24,1.17,1.95,-1.32,-1.32,-1.32
276.61,-2.58,-1.26,-2.59,-1.27,1.27,1.18,1.94,-1.31,-1.32,-1.32
279.38,-2.63,-1.31,-2.62,-1.30,1.31,1.19,1.93,-1.32,-1.31,-1.32
282.17,-2.66,-1.34,-2.67,-1.34,1.35,1.19,1.92,-1.31,-1.32,-1.32
284.99,-2.71,-1.39,-2.72,-1.39,1.39,1.20,1.91,-1.32,-1.32,-1.33
287.84,-2.77,-1.45,-2.77,-1.44,1.44,1.20,1.90,-1.34,-1.33,-1.33
290.72,-2.81,-1.48,-2.82,-1.49,1.48,1.21,1.89,-1.33,-1.34,-1.33
293.63,-2.86,-1.53,-2.86,-1.53,1.52,1.21,1.87,-1.35,-1.34,-1.33
296.57,-2.89,-1.56,-2.89,-1.56,1.55,1.21,1.85,-1.34,-1.34,-1.33
299.53,-2.90,-1.57,-2.91,-1.58,1.58,1.22,1.84,-1.32,-1.33,-1.33
302.53,-2.94,-1.61,-2.93,-1.60,1.61,1.22,1.82,-1.34,-1.33,-1.33
305.55,-2.94,-1.61,-2.96,-1.62,1.62,1.22,1.80,-1.32,-1.33,-1.33
308.61,-2.99,-1.66,-2.98,-1.65,1.64,1.22,1.79,-1.35,-1.34,-1.33
311.69,-2.99,-1.66,-2.99,-1.65,1.65,1.23,1.77,-1.34,-1.34,-1.33
314.81,-2.99,-1.66,-2.99,-1.66,1.66,1.23,1.75,-1.33,-1.33,-1.34
317.96,-2.99,-1.66,-3.00,-1.66,1.67,1.23,1.73,-1.32,-1.33,-1.34
321.14,-3.00,-1.67,-3.01,-1.67,1.68,1.23,1.72,-1.32,-1.33,-1.34
324.35,-3.03,-1.70,-3.02,-1.69,1.68,1.23,1.70,-1.35,-1.34,-1.34
327.59,-3.03,-1.70,-3.03,-1.69,1.69,1.23,1.69,-1.34,-1.34,-1.34
330.87,-3.03,-1.70,-3.04,-1.70,1.69,1.23,1.68,-1.34,-1.34,-1.34
334.18,-3.03,-1.70,-3.03,-1.70,1.69,1.23,1.67,-1.34,-1.34,-1.34
337.52,-3.03,-1.69,-3.03,-1.69,1.70,1.22,1.65,-1.34,-1.34,-1.34
340.90,-3.03,-1.69,-3.03,-1.69,1.70,1.22,1.65,-1.34,-1.34,-1.34
344.30,-3.03,-1.69,-3.03,-1.69,1.70,1.22,1.64,-1.34,-1.34,-1.34
347.75,-3.03,-1.69,-3.03,-1.69,1.70,1.22,1.63,-1.34,-1.34,-1.34
351.23,-3.03,-1.70,-3.03,-1.70,1.70,1.21,1.62,-1.34,-1.34,-1.34
354.74,-3.03,-1.70,-3.03,-1.70,1.70,1.21,1.62,-1.34,-1.34,-1.34
358.28,-3.03,-1.70,-3.03,-1.70,1.70,1.21,1.62,-1.34,-1.34,-1.34
361.87,-3.03,-1.70,-3.03,-1.70,1.70,1.20,1.62,-1.34,-1.34,-1.34
365.49,-3.03,-1.70,-3.03,-1.70,1.69,1.20,1.62,-1.34,-1.34,-1.34
369.14,-3.03,-1.70,-3.03,-1.70,1.69,1.19,1.62,-1.34,-1.34,-1.34
372.83,-3.03,-1.70,-3.03,-1.69,1.69,1.19,1.62,-1.34,-1.34,-1.34
376.56,-3.01,-1.68,-3.02,-1.69,1.69,1.18,1.62,-1.33,-1.33,-1.34
380.33,-3.01,-1.68,-3.01,-1.68,1.68,1.18,1.63,-1.33,-1.33,-1.33
384.13,-3.01,-1.68,-3.00,-1.67,1.68,1.17,1.64,-1.33,-1.33,-1.33
387.97,-2.99,-1.66,-3.00,-1.67,1.67,1.17,1.64,-1.32,-1.33,-1.33
391.85,-2.99,-1.66,-3.00,-1.66,1.66,1.16,1.65,-1.33,-1.34,-1.33
395.77,-2.99,-1.66,-2.99,-1.66,1.64,1.15,1.66,-1.35,-1.35,-1.33
399.73,-2.98,-1.65,-2.97,-1.64,1.63,1.15,1.67,-1.36,-1.34,-1.33
403.72,-2.94,-1.61,-2.95,-1.61,1.61,1.14,1.68,-1.33,-1.34,-1.33
407.76,-2.90,-1.57,-2.91,-1.58,1.59,1.13,1.69,-1.32,-1.32,-1.33
411.84,-2.89,-1.56,-2.89,-1.56,1.57,1.12,1.70,-1.33,-1.32,-1.33
415.96,-2.86,-1.53,-2.87,-1.54,1.54,1.11,1.72,-1.32,-1.32,-1.33
420.12,-2.86,-1.53,-2.85,-1.52,1.52,1.11,1.73,-1.34,-1.32,-1.33
424.32,-2.81,-1.48,-2.83,-1.50,1.50,1.10,1.74,-1.31,-1.32,-1.33
428.56,-2.81,-1.49,-2.82,-1.49,1.49,1.09,1.75,-1.32,-1.33,-1.33
432.85,-2.81,-1.49,-2.80,-1.48,1.48,1.08,1.76,-1.33,-1.33,-1.33
