frequency,raw,error,smoothed,error_smoothed,equalization,parametric_eq,fixed_band_eq,equalized_raw,equalized_smoothed,target
20.00,-7.06,-8.28,-7.06,-8.28,6.00,5.92,1.42,-1.06,-1.06,1.22
20.20,-6.92,-8.18,-6.92,-8.18,6.00,6.00,1.46,-0.92,-0.92,1.26
20.40,-6.78,-8.07,-6.78,-8.08,6.00,6.07,1.51,-0.78,-0.78,1.29
20.61,-6.64,-7.96,-6.64,-7.97,6.00,6.13,1.56,-0.64,-0.64,1.32
20.81,-6.51,-7.86,-6.51,-7.86,6.00,6.19,1.61,-0.51,-0.51,1.35
21.02,-6.37,-7.75,-6.36,-7.74,6.00,6.23,1.66,-0.37,-0.36,1.38
21.23,-6.22,-7.62,-6.22,-7.62,6.00,6.27,1.71,-0.22,-0.22,1.40
21.44,-6.07,-7.48,-6.07,-7.48,6.00,6.30,1.77,-0.07,-0.07,1.41
21.66,-5.92,-7.34,-5.92,-7.34,6.00,6.32,1.82,0.08,0.08,1.42
21.87,-5.77,-7.20,-5.76,-7.20,6.00,6.32,1.88,0.23,0.24,1.43
22.09,-5.61,-7.05,-5.61,-7.05,6.00,6.32,1.94,0.39,0.39,1.44
22.31,-5.45,-6.90,-5.45,-6.90,6.01,6.30,2.00,0.57,0.56,1.45
22.54,-5.29,-6.74,-5.29,-6.74,6.02,6.28,2.06,0.73,0.74,1.45
22.76,-5.13,-6.58,-5.13,-6.58,6.03,6.24,2.13,0.90,0.90,1.45
22.99,-4.97,-6.42,-4.97,-6.42,6.02,6.19,2.19,1.06,1.05,1.45
23.22,-4.82,-6.28,-4.82,-6.27,6.00,6.14,2.26,1.18,1.19,1.46
23.45,-4.67,-6.13,-4.67,-6.13,5.96,6.07,2.33,1.29,1.29,1.46
23.69,-4.52,-5.99,-4.52,-5.99,5.89,5.99,2.40,1.37,1.36,1.47
23.92,-4.38,-5.84,-4.37,-5.84,5.79,5.91,2.47,1.42,1.42,1.47
24.16,-4.22,-5.69,-4.22,-5.69,5.68,5.81,2.54,1.46,1.46,1.48
24.40,-4.06,-5.53,-4.06,-5.53,5.55,5.71,2.61,1.50,1.50,1.48
24.65,-3.91,-5.38,-3.90,-5.37,5.42,5.60,2.69,1.51,1.52,1.47
24.89,-3.75,-5.21,-3.76,-5.22,5.28,5.48,2.76,1.53,1.52,1.47
25.14,-3.63,-5.09,-3.63,-5.10,5.14,5.36,2.84,1.51,1.51,1.47
25.39,-3.54,-4.99,-3.53,-4.99,5.01,5.24,2.91,1.47,1.47,1.46
25.65,-3.45,-4.90,-3.45,-4.90,4.89,5.11,2.98,1.44,1.44,1.46
25.91,-3.36,-4.80,-3.35,-4.80,4.77,4.97,3.06,1.41,1.41,1.45
26.16,-3.24,-4.67,-3.23,-4.67,4.64,4.84,3.13,1.41,1.41,1.43
26.43,-3.10,-4.53,-3.10,-4.53,4.51,4.70,3.20,1.41,1.41,1.43
26.69,-2.96,-4.38,-2.96,-4.38,4.37,4.55,3.27,1.42,1.42,1.42
26.96,-2.81,-4.23,-2.82,-4.24,4.23,4.41,3.34,1.42,1.42,1.42
27.23,-2.68,-4.09,-2.67,-4.09,4.10,4.27,3.41,1.42,1.42,1.41
27.50,-2.54,-3.95,-2.53,-3.94,3.97,4.12,3.47,1.43,1.44,1.41
27.77,-2.40,-3.79,-2.40,-3.80,3.84,3.98,3.53,1.45,1.44,1.39
28.05,-2.28,-3.67,-2.29,-3.68,3.72,3.84,3.58,1.44,1.43,1.39
28.33,-2.21,-3.59,-2.21,-3.59,3.60,3.69,3.63,1.39,1.39,1.38
28.62,-2.14,-3.51,-2.14,-3.51,3.47,3.55,3.68,1.33,1.33,1.37
28.90,-2.07,-3.43,-2.05,-3.41,3.34,3.41,3.72,1.27,1.29,1.37
29.19,-1.92,-3.27,-1.91,-3.27,3.21,3.27,3.75,1.29,1.30,1.36
29.48,-1.73,-3.09,-1.73,-3.09,3.08,3.13,3.78,1.35,1.35,1.37
29.78,-1.54,-2.89,-1.54,-2.90,2.95,2.99,3.80,1.41,1.40,1.35
30.08,-1.37,-2.71,-1.40,-2.74,2.81,2.85,3.81,1.44,1.41,1.34
30.38,-1.30,-2.63,-1.30,-2.63,2.67,2.72,3.81,1.37,1.37,1.33
30.68,-1.22,-2.55,-1.21,-2.54,2.53,2.58,3.81,1.31,1.32,1.33
30.99,-1.14,-2.46,-1.12,-2.45,2.40,2.45,3.80,1.26,1.28,1.32
31.30,-1.00,-2.32,-1.00,-2.32,2.28,2.32,3.78,1.28,1.29,1.32
31.61,-0.86,-2.18,-0.86,-2.17,2.17,2.20,3.75,1.32,1.32,1.32
31.93,-0.71,-2.02,-0.73,-2.03,2.07,2.07,3.71,1.36,1.34,1.31
32.24,-0.62,-1.90,-0.63,-1.92,1.95,1.95,3.66,1.33,1.32,1.29
32.57,-0.55,-1.83,-0.54,-1.83,1.83,1.82,3.61,1.28,1.28,1.28
32.89,-0.47,-1.76,-0.46,-1.74,1.71,1.71,3.55,1.24,1.25,1.29
33.22,-0.35,-1.63,-0.34,-1.62,1.59,1.59,3.48,1.24,1.25,1.28
33.55,-0.20,-1.48,-0.20,-1.48,1.48,1.47,3.40,1.28,1.28,1.28
33.89,-0.05,-1.32,-0.06,-1.33,1.36,1.36,3.32,1.31,1.29,1.27
34.23,0.05,-1.21,0.04,-1.22,1.23,1.25,3.23,1.28,1.28,1.27
34.57,0.13,-1.12,0.13,-1.12,1.11,1.14,3.14,1.24,1.24,1.25
34.92,0.21,-1.04,0.23,-1.02,0.99,1.03,3.03,1.20,1.22,1.25
35.27,0.35,-0.90,0.37,-0.88,0.88,0.92,2.93,1.23,1.24,1.25
35.62,0.51,-0.73,0.51,-0.73,0.77,0.82,2.82,1.28,1.28,1.24
35.97,0.67,-0.56,0.63,-0.61,0.67,0.72,2.71,1.35,1.30,1.24
36.33,0.69,-0.54,0.69,-0.54,0.57,0.62,2.59,1.26,1.26,1.23
36.70,0.71,-0.51,0.73,-0.50,0.46,0.52,2.47,1.17,1.18,1.22
37.06,0.75,-0.46,0.79,-0.43,0.35,0.42,2.35,1.10,1.13,1.21
37.43,0.90,-0.30,0.90,-0.30,0.24,0.32,2.22,1.15,1.15,1.21
37.81,1.06,-0.13,1.04,-0.15,0.15,0.23,2.09,1.21,1.19,1.19
38.19,1.18,-0.00,1.18,-0.00,0.06,0.14,1.96,1.25,1.25,1.18
38.57,1.27,0.09,1.28,0.11,-0.03,0.05,1.83,1.24,1.25,1.18
38.95,1.36,0.20,1.34,0.18,-0.13,-0.04,1.70,1.23,1.21,1.17
39.34,1.38,0.23,1.37,0.22,-0.24,-0.13,1.57,1.15,1.13,1.15
39.74,1.39,0.25,1.41,0.27,-0.34,-0.22,1.44,1.05,1.07,1.14
40.14,1.46,0.31,1.50,0.36,-0.43,-0.31,1.30,1.03,1.06,1.15
40.54,1.63,0.50,1.63,0.49,-0.52,-0.39,1.17,1.11,1.10,1.13
40.94,1.80,0.67,1.77,0.64,-0.61,-0.47,1.04,1.19,1.16,1.13
41.35,1.88,0.77,1.89,0.77,-0.70,-0.55,0.90,1.18,1.19,1.12
41.76,1.96,0.85,1.96,0.85,-0.80,-0.63,0.77,1.16,1.16,1.11
42.18,2.01,0.91,2.00,0.90,-0.90,-0.71,0.63,1.12,1.10,1.10
42.60,2.03,0.95,2.04,0.95,-0.98,-0.79,0.50,1.05,1.05,1.08
43.03,2.06,0.99,2.09,1.03,-1.06,-0.87,0.36,1.00,1.03,1.07
43.46,2.16,1.12,2.16,1.12,-1.13,-0.95,0.23,1.03,1.03,1.05
43.90,2.26,1.25,2.23,1.21,-1.21,-1.02,0.09,1.06,1.02,1.01
44.33,2.28,1.30,2.27,1.28,-1.28,-1.09,-0.05,1.00,0.99,0.99
44.78,2.28,1.32,2.31,1.35,-1.36,-1.17,-0.18,0.92,0.94,0.96
45.23,2.33,1.39,2.36,1.42,-1.44,-1.24,-0.32,0.89,0.92,0.94
45.68,2.44,1.53,2.43,1.51,-1.50,-1.31,-0.45,0.94,0.92,0.91
46.13,2.51,1.62,2.49,1.59,-1.56,-1.38,-0.59,0.96,0.93,0.90
46.60,2.51,1.62,2.52,1.64,-1.60,-1.45,-0.72,0.91,0.92,0.89
47.06,2.51,1.64,2.52,1.65,-1.63,-1.52,-0.86,0.88,0.89,0.87
47.53,2.51,1.65,2.51,1.65,-1.65,-1.58,-0.99,0.86,0.86,0.86
48.01,2.51,1.65,2.51,1.65,-1.66,-1.65,-1.13,0.85,0.85,0.86
48.49,2.51,1.66,2.51,1.66,-1.66,-1.72,-1.26,0.85,0.85,0.86
48.97,2.51,1.67,2.51,1.67,-1.67,-1.78,-1.39,0.85,0.84,0.84
49.46,2.51,1.68,2.51,1.68,-1.67,-1.84,-1.53,0.84,0.84,0.83
49.96,2.51,1.68,2.51,1.67,-1.69,-1.91,-1.66,0.82,0.82,0.83
50.46,2.53,1.69,2.53,1.68,-1.72,-1.97,-1.79,0.82,0.81,0.85
50.96,2.55,1.70,2.58,1.74,-1.75,-2.03,-1.93,0.80,0.83,0.85
51.47,2.64,1.80,2.65,1.80,-1.80,-2.09,-2.06,0.85,0.85,0.84
51.99,2.74,1.91,2.70,1.86,-1.85,-2.15,-2.19,0.89,0.85,0.83
52.51,2.74,1.91,2.74,1.92,-1.91,-2.21,-2.31,0.84,0.84,0.83
53.03,2.75,1.94,2.80,1.98,-1.97,-2.27,-2.44,0.78,0.82,0.81
53.56,2.86,2.07,2.85,2.06,-2.06,-2.33,-2.56,0.80,0.80,0.79
54.10,2.96,2.19,2.91,2.14,-2.16,-2.38,-2.69,0.81,0.76,0.77
54.64,2.96,2.22,2.97,2.23,-2.26,-2.44,-2.80,0.70,0.72,0.74
55.18,3.00,2.29,3.04,2.32,-2.37,-2.49,-2.92,0.63,0.67,0.71
55.74,3.13,2.45,3.13,2.45,-2.48,-2.55,-3.03,0.65,0.66,0.68
56.29,3.26,2.60,3.26,2.60,-2.58,-2.60,-3.14,0.68,0.68,0.66
56.86,3.39,2.76,3.36,2.74,-2.68,-2.65,-3.24,0.71,0.69,0.63
57.42,3.42,2.83,3.42,2.83,-2.77,-2.71,-3.34,0.66,0.65,0.59
58.00,3.42,2.87,3.43,2.88,-2.84,-2.76,-3.43,0.58,0.59,0.56
58.58,3.42,2.90,3.43,2.90,-2.90,-2.81,-3.52,0.52,0.52,0.52
59.16,3.42,2.92,3.42,2.93,-2.95,-2.86,-3.61,0.47,0.47,0.50
59.76,3.42,2.96,3.42,2.96,-2.99,-2.91,-3.68,0.44,0.44,0.47
60.35,3.42,3.00,3.42,3.00,-3.02,-2.96,-3.75,0.41,0.41,0.42
60.96,3.42,3.03,3.42,3.04,-3.05,-3.01,-3.81,0.38,0.38,0.39
61.57,3.42,3.09,3.42,3.08,-3.08,-3.05,-3.87,0.34,0.34,0.33
62.18,3.42,3.12,3.42,3.13,-3.12,-3.10,-3.92,0.30,0.30,0.30
62.80,3.42,3.16,3.42,3.17,-3.16,-3.15,-3.96,0.26,0.26,0.26
63.43,3.42,3.21,3.42,3.20,-3.20,-3.19,-4.00,0.22,0.22,0.22
64.07,3.42,3.23,3.42,3.24,-3.24,-3.23,-4.03,0.19,0.19,0.19
64.71,3.42,3.27,3.42,3.27,-3.27,-3.28,-4.05,0.15,0.15,0.15
65.35,3.42,3.30,3.42,3.30,-3.30,-3.32,-4.07,0.12,0.12,0.12
66.01,3.42,3.34,3.42,3.33,-3.33,-3.36,-4.08,0.09,0.09,0.08
66.67,3.42,3.36,3.42,3.36,-3.36,-3.40,-4.08,0.06,0.06,0.07
67.33,3.42,3.39,3.42,3.39,-3.38,-3.44,-4.08,0.04,0.04,0.04
68.01,3.42,3.41,3.42,3.41,-3.40,-3.48,-4.07,0.02,0.02,0.02
68.69,3.42,3.43,3.42,3.43,-3.42,-3.52,-4.06,0.01,0.01,-0.01
69.37,3.42,3.45,3.42,3.45,-3.43,-3.56,-4.05,-0.01,-0.01,-0.03
70.07,3.42,3.47,3.42,3.47,-3.45,-3.60,-4.03,-0.03,-0.03,-0.05
70.77,3.42,3.48,3.42,3.48,-3.48,-3.63,-4.01,-0.06,-0.06,-0.06
71.48,3.42,3.50,3.41,3.49,-3.52,-3.67,-3.99,-0.09,-0.11,-0.07
72.19,3.42,3.52,3.42,3.52,-3.56,-3.70,-3.97,-0.14,-0.14,-0.10
72.91,3.42,3.54,3.48,3.60,-3.63,-3.74,-3.94,-0.20,-0.15,-0.12
73.64,3.57,3.72,3.55,3.69,-3.70,-3.77,-3.91,-0.13,-0.15,-0.15
74.38,3.65,3.81,3.61,3.78,-3.78,-3.80,-3.88,-0.12,-0.16,-0.16
75.12,3.66,3.85,3.68,3.87,-3.86,-3.83,-3.86,-0.19,-0.17,-0.19
75.87,3.70,3.92,3.74,3.95,-3.93,-3.86,-3.83,-0.23,-0.19,-0.21
76.63,3.82,4.05,3.80,4.04,-4.01,-3.89,-3.80,-0.18,-0.20,-0.23
77.40,3.88,4.13,3.86,4.11,-4.07,-3.92,-3.77,-0.19,-0.21,-0.25
78.17,3.88,4.15,3.88,4.14,-4.13,-3.95,-3.75,-0.25,-0.25,-0.27
78.95,3.88,4.15,3.88,4.15,-4.19,-3.97,-3.72,-0.31,-0.31,-0.27
79.74,3.88,4.16,3.91,4.19,-4.24,-4.00,-3.70,-0.35,-0.33,-0.28
80.54,3.96,4.25,3.97,4.25,-4.28,-4.02,-3.68,-0.32,-0.31,-0.29
81.35,4.05,4.34,4.04,4.32,-4.31,-4.05,-3.66,-0.26,-0.28,-0.29
82.16,4.10,4.39,4.09,4.38,-4.34,-4.07,-3.64,-0.23,-0.25,-0.29
82.98,4.10,4.38,4.11,4.39,-4.36,-4.09,-3.63,-0.25,-0.25,-0.28
83.81,4.10,4.38,4.11,4.39,-4.37,-4.11,-3.62,-0.27,-0.27,-0.28
84.65,4.10,4.38,4.10,4.37,-4.38,-4.13,-3.61,-0.28,-0.28,-0.28
85.50,4.10,4.36,4.10,4.36,-4.39,-4.15,-3.60,-0.28,-0.28,-0.26
86.35,4.10,4.35,4.10,4.35,-4.38,-4.17,-3.60,-0.28,-0.28,-0.25
87.22,4.10,4.34,4.10,4.34,-4.36,-4.19,-3.60,-0.26,-0.26,-0.24
88.09,4.10,4.33,4.10,4.33,-4.33,-4.20,-3.60,-0.23,-0.23,-0.23
88.97,4.10,4.32,4.12,4.33,-4.30,-4.22,-3.60,-0.19,-0.18,-0.22
89.86,4.10,4.31,4.10,4.31,-4.26,-4.23,-3.61,-0.16,-0.16,-0.20
90.76,4.09,4.30,4.05,4.25,-4.22,-4.25,-3.62,-0.13,-0.18,-0.21
91.66,3.95,4.15,3.98,4.18,-4.18,-4.26,-3.63,-0.23,-0.21,-0.20
92.58,3.88,4.08,3.91,4.11,-4.15,-4.27,-3.65,-0.27,-0.24,-0.20
93.51,3.88,4.07,3.87,4.06,-4.12,-4.28,-3.67,-0.23,-0.24,-0.19
94.44,3.88,4.07,3.88,4.07,-4.09,-4.29,-3.69,-0.21,-0.21,-0.19
95.39,3.88,4.08,3.88,4.08,-4.07,-4.30,-3.71,-0.19,-0.19,-0.20
96.34,3.88,4.09,3.88,4.08,-4.07,-4.31,-3.74,-0.18,-0.18,-0.20
97.30,3.88,4.08,3.88,4.09,-4.07,-4.32,-3.77,-0.19,-0.19,-0.20
98.28,3.88,4.09,3.88,4.09,-4.08,-4.32,-3.80,-0.20,-0.20,-0.21
99.26,3.88,4.10,3.88,4.10,-4.10,-4.33,-3.83,-0.22,-0.22,-0.22
100.25,3.88,4.11,3.88,4.11,-4.12,-4.33,-3.86,-0.24,-0.24,-0.23
101.25,3.88,4.12,3.88,4.12,-4.13,-4.33,-3.90,-0.25,-0.25,-0.24
102.27,3.88,4.13,3.88,4.13,-4.15,-4.34,-3.94,-0.27,-0.27,-0.25
103.29,3.88,4.16,3.88,4.15,-4.16,-4.34,-3.98,-0.28,-0.28,-0.28
104.32,3.88,4.18,3.89,4.19,-4.16,-4.34,-4.02,-0.28,-0.27,-0.30
105.37,3.88,4.21,3.89,4.21,-4.17,-4.34,-4.06,-0.28,-0.28,-0.33
106.42,3.88,4.24,3.84,4.20,-4.17,-4.33,-4.10,-0.29,-0.33,-0.35
107.48,3.78,4.19,3.78,4.18,-4.18,-4.33,-4.14,-0.40,-0.40,-0.40
108.56,3.66,4.12,3.70,4.15,-4.19,-4.33,-4.18,-0.53,-0.49,-0.45
109.64,3.65,4.14,3.65,4.15,-4.21,-4.33,-4.22,-0.56,-0.56,-0.49
110.74,3.65,4.19,3.64,4.18,-4.23,-4.32,-4.26,-0.57,-0.59,-0.54
111.85,3.65,4.23,3.65,4.24,-4.24,-4.32,-4.30,-0.59,-0.59,-0.58
112.97,3.65,4.30,3.66,4.30,-4.25,-4.31,-4.34,-0.60,-0.59,-0.65
114.10,3.65,4.34,3.64,4.34,-4.28,-4.30,-4.37,-0.62,-0.63,-0.69
115.24,3.62,4.37,3.59,4.33,-4.30,-4.29,-4.40,-0.68,-0.72,-0.75
116.39,3.49,4.29,3.51,4.31,-4.33,-4.29,-4.43,-0.83,-0.81,-0.79
117.55,3.42,4.26,3.45,4.29,-4.34,-4.28,-4.46,-0.92,-0.89,-0.84
118.73,3.42,4.30,3.41,4.29,-4.34,-4.27,-4.48,-0.92,-0.93,-0.88
119.92,3.42,4.33,3.43,4.34,-4.33,-4.25,-4.50,-0.91,-0.91,-0.91
121.12,3.42,4.37,3.43,4.37,-4.32,-4.24,-4.52,-0.90,-0.89,-0.94
122.33,3.42,4.39,3.38,4.35,-4.31,-4.23,-4.53,-0.89,-0.93,-0.97
123.55,3.32,4.31,3.32,4.31,-4.29,-4.22,-4.53,-0.97,-0.98,-0.99
124.79,3.20,4.21,3.25,4.26,-4.27,-4.21,-4.54,-1.07,-1.02,-1.01
126.03,3.19,4.23,3.20,4.24,-4.24,-4.19,-4.54,-1.05,-1.04,-1.04
127.29,3.19,4.24,3.16,4.22,-4.21,-4.18,-4.53,-1.02,-1.06,-1.05
128.57,3.14,4.23,3.10,4.18,-4.19,-4.16,-4.52,-1.04,-1.08,-1.08
129.85,2.98,4.09,3.03,4.14,-4.16,-4.15,-4.50,-1.18,-1.13,-1.11
131.15,2.96,4.09,2.97,4.10,-4.14,-4.13,-4.48,-1.18,-1.17,-1.13
132.46,2.96,4.12,2.95,4.10,-4.12,-4.11,-4.46,-1.16,-1.17,-1.15
133.79,2.96,4.13,2.97,4.14,-4.10,-4.10,-4.44,-1.14,-1.13,-1.17
135.12,2.96,4.16,2.94,4.13,-4.09,-4.08,-4.41,-1.12,-1.15,-1.20
136.48,2.91,4.12,2.88,4.09,-4.08,-4.06,-4.37,-1.17,-1.20,-1.21
137.84,2.76,4.00,2.81,4.05,-4.07,-4.04,-4.34,-1.31,-1.27,-1.24
139.22,2.74,4.02,2.75,4.02,-4.07,-4.02,-4.30,-1.33,-1.32,-1.28
140.61,2.74,4.04,2.73,4.02,-4.05,-4.01,-4.26,-1.31,-1.33,-1.30
142.02,2.74,4.05,2.75,4.07,-4.04,-3.99,-4.22,-1.30,-1.28,-1.31
143.44,2.74,4.08,2.74,4.08,-4.02,-3.97,-4.18,-1.28,-1.28,-1.33
144.87,2.74,4.10,2.69,4.05,-4.02,-3.95,-4.14,-1.28,-1.33,-1.36
146.32,2.59,3.99,2.62,4.01,-4.02,-3.93,-4.10,-1.42,-1.40,-1.40
147.78,2.51,3.94,2.55,3.97,-4.01,-3.91,-4.05,-1.50,-1.46,-1.42
149.26,2.51,3.97,2.52,3.98,-4.01,-3.89,-4.01,-1.50,-1.49,-1.46
150.75,2.51,4.03,2.50,4.01,-4.01,-3.87,-3.97,-1.50,-1.51,-1.51
152.26,2.50,4.07,2.45,4.02,-4.02,-3.85,-3.93,-1.52,-1.57,-1.57
153.78,2.35,3.98,2.38,4.01,-4.03,-3.83,-3.89,-1.68,-1.65,-1.63
155.32,2.29,3.99,2.32,4.01,-4.03,-3.81,-3.85,-1.74,-1.71,-1.70
156.88,2.28,4.03,2.28,4.04,-4.03,-3.79,-3.81,-1.74,-1.74,-1.75
158.44,2.28,4.09,2.27,4.08,-4.01,-3.77,-3.77,-1.73,-1.75,-1.81
160.03,2.22,4.09,2.19,4.06,-3.99,-3.75,-3.74,-1.77,-1.79,-1.87
161.63,2.08,3.99,2.07,3.99,-3.96,-3.73,-3.71,-1.88,-1.89,-1.91
163.24,1.91,3.87,1.94,3.90,-3.95,-3.71,-3.68,-2.03,-2.00,-1.96
164.88,1.83,3.82,1.85,3.85,-3.93,-3.69,-3.65,-2.10,-2.08,-1.99
166.53,1.83,3.85,1.82,3.84,-3.92,-3.67,-3.63,-2.08,-2.10,-2.02
168.19,1.83,3.88,1.82,3.87,-3.90,-3.65,-3.61,-2.06,-2.07,-2.05
169.87,1.83,3.90,1.83,3.90,-3.87,-3.63,-3.59,-2.04,-2.04,-2.07
171.57,1.83,3.91,1.85,3.92,-3.85,-3.62,-3.57,-2.02,-2.00,-2.08
173.29,1.83,3.91,1.83,3.90,-3.83,-3.60,-3.56,-2.00,-2.01,-2.07
175.02,1.83,3.90,1.77,3.84,-3.82,-3.58,-3.54,-1.99,-2.05,-2.07
176.77,1.64,3.72,1.69,3.76,-3.79,-3.57,-3.54,-2.15,-2.10,-2.08
178.54,1.60,3.67,1.62,3.69,-3.75,-3.55,-3.53,-2.15,-2.13,-2.07
180.32,1.60,3.67,1.59,3.65,-3.71,-3.54,-3.53,-2.11,-2.12,-2.07
182.13,1.60,3.66,1.61,3.68,-3.66,-3.53,-3.53,-2.06,-2.05,-2.06
183.95,1.60,3.67,1.60,3.66,-3.62,-3.52,-3.53,-2.02,-2.02,-2.07
185.79,1.60,3.66,1.54,3.61,-3.59,-3.51,-3.53,-1.99,-2.05,-2.06
187.65,1.43,3.52,1.47,3.55,-3.56,-3.50,-3.54,-2.13,-2.09,-2.08
189.52,1.37,3.47,1.41,3.50,-3.53,-3.49,-3.55,-2.15,-2.12,-2.10
191.42,1.37,3.48,1.36,3.47,-3.49,-3.49,-3.56,-2.11,-2.12,-2.11
193.33,1.37,3.49,1.33,3.45,-3.44,-3.49,-3.58,-2.07,-2.11,-2.12
195.27,1.27,3.40,1.28,3.42,-3.38,-3.48,-3.59,-2.11,-2.10,-2.13
197.22,1.17,3.32,1.20,3.35,-3.33,-3.49,-3.61,-2.15,-2.13,-2.14
199.19,1.13,3.31,1.09,3.26,-3.27,-3.49,-3.63,-2.14,-2.17,-2.17
201.18,1.00,3.19,1.02,3.20,-3.20,-3.50,-3.66,-2.20,-2.19,-2.18
203.19,0.91,3.11,0.95,3.15,-3.13,-3.50,-3.68,-2.22,-2.18,-2.19
205.23,0.91,3.13,0.88,3.08,-3.07,-3.52,-3.70,-2.16,-2.19,-2.21
207.28,0.83,3.06,0.81,3.04,-3.02,-3.53,-3.73,-2.19,-2.21,-2.22
209.35,0.72,2.97,0.75,3.00,-2.99,-3.55,-3.76,-2.27,-2.24,-2.24
211.44,0.69,2.96,0.68,2.94,-3.00,-3.57,-3.78,-2.31,-2.32,-2.27
213.56,0.69,2.97,0.68,2.96,-3.03,-3.60,-3.81,-2.34,-2.35,-2.28
215.69,0.69,2.97,0.75,3.04,-3.08,-3.63,-3.83,-2.39,-2.33,-2.28
217.85,0.89,3.19,0.85,3.15,-3.16,-3.66,-3.86,-2.27,-2.31,-2.30
220.03,1.00,3.32,0.99,3.30,-3.27,-3.70,-3.89,-2.27,-2.28,-2.31
222.23,1.11,3.44,1.13,3.45,-3.41,-3.74,-3.91,-2.30,-2.28,-2.33
224.45,1.25,3.58,1.23,3.57,-3.57,-3.79,-3.93,-2.32,-2.34,-2.33
226.70,1.36,3.70,1.39,3.72,-3.75,-3.84,-3.95,-2.38,-2.36,-2.34
228.96,1.53,3.87,1.54,3.88,-3.92,-3.89,-3.97,-2.39,-2.38,-2.33
231.25,1.76,4.09,1.72,4.05,-4.09,-3.95,-3.98,-2.32,-2.37,-2.33
233.57,1.86,4.20,1.91,4.25,-4.24,-4.01,-3.99,-2.37,-2.33,-2.34
235.90,2.08,4.42,2.08,4.42,-4.37,-4.07,-4.00,-2.28,-2.29,-2.34
238.26,2.23,4.57,2.20,4.54,-4.48,-4.12,-4.00,-2.24,-2.28,-2.34
240.64,2.28,4.61,2.28,4.61,-4.56,-4.18,-4.00,-2.28,-2.28,-2.33
243.05,2.28,4.60,2.29,4.61,-4.61,-4.23,-4.00,-2.32,-2.31,-2.32
245.48,2.28,4.59,2.29,4.60,-4.62,-4.27,-3.99,-2.34,-2.33,-2.30
247.93,2.28,4.57,2.30,4.59,-4.59,-4.30,-3.98,-2.31,-2.30,-2.29
250.41,2.28,4.57,2.26,4.54,-4.53,-4.33,-3.96,-2.25,-2.27,-2.28
252.92,2.24,4.50,2.21,4.47,-4.44,-4.33,-3.93,-2.20,-2.23,-2.26
255.45,2.08,4.31,2.13,4.37,-4.34,-4.33,-3.91,-2.26,-2.21,-2.23
258.00,2.05,4.27,2.03,4.25,-4.23,-4.30,-3.87,-2.18,-2.20,-2.22
260.58,1.91,4.12,1.91,4.11,-4.12,-4.26,-3.84,-2.21,-2.22,-2.21
263.19,1.82,4.01,1.79,3.98,-4.02,-4.21,-3.79,-2.19,-2.23,-2.18
265.82,1.62,3.79,1.67,3.84,-3.91,-4.14,-3.75,-2.29,-2.24,-2.17
268.48,1.60,3.75,1.62,3.77,-3.81,-4.06,-3.70,-2.21,-2.19,-2.15
271.16,1.60,3.73,1.59,3.71,-3.71,-3.96,-3.64,-2.11,-2.13,-2.13
273.87,1.60,3.71,1.56,3.66,-3.63,-3.86,-3.59,-2.02,-2.07,-2.11
276.61,1.47,3.55,1.49,3.58,-3.54,-3.75,-3.53,-2.07,-2.05,-2.08
279.38,1.39,3.46,1.43,3.49,-3.46,-3.64,-3.46,-2.07,-2.03,-2.07
282.17,1.37,3.41,1.35,3.38,-3.39,-3.53,-3.40,-2.01,-2.04,-2.04
284.99,1.32,3.33,1.28,3.29,-3.30,-3.42,-3.33,-1.98,-2.03,-2.01
287.84,1.15,3.14,1.21,3.19,-3.21,-3.31,-3.26,-2.06,-2.01,-1.98
290.72,1.14,3.10,1.17,3.12,-3.13,-3.20,-3.19,-1.99,-1.96,-1.96
293.63,1.14,3.08,1.12,3.06,-3.05,-3.09,-3.12,-1.90,-1.92,-1.94
296.57,1.14,3.04,1.08,2.99,-2.97,-2.99,-3.05,-1.83,-1.89,-1.90
299.53,0.97,2.86,1.01,2.90,-2.91,-2.89,-2.97,-1.93,-1.90,-1.88
302.53,0.91,2.79,0.94,2.81,-2.84,-2.79,-2.90,-1.93,-1.90,-1.88
305.55,0.91,2.75,0.91,2.76,-2.78,-2.70,-2.82,-1.86,-1.86,-1.84
308.61,0.91,2.74,0.91,2.73,-2.71,-2.62,-2.75,-1.80,-1.80,-1.83
311.69,0.91,2.71,0.86,2.67,-2.64,-2.54,-2.68,-1.73,-1.78,-1.80
314.81,0.77,2.56,0.81,2.60,-2.57,-2.46,-2.60,-1.79,-1.76,-1.78
317.96,0.70,2.48,0.72,2.50,-2.49,-2.38,-2.53,-1.79,-1.77,-1.78
321.14,0.68,2.46,0.62,2.40,-2.42,-2.31,-2.46,-1.73,-1.80,-1.78
324.35,0.51,2.29,0.56,2.33,-2.34,-2.25,-2.39,-1.83,-1.78,-1.78
327.59,0.46,2.22,0.49,2.26,-2.26,-2.18,-2.32,-1.80,-1.77,-1.76
330.87,0.46,2.22,0.41,2.17,-2.18,-2.12,-2.25,-1.72,-1.77,-1.75
334.18,0.35,2.11,0.35,2.09,-2.10,-2.07,-2.18,-1.75,-1.75,-1.75
337.52,0.24,1.98,0.29,2.02,-2.02,-2.01,-2.12,-1.78,-1.74,-1.74
340.90,0.23,1.95,0.24,1.96,-1.95,-1.96,-2.05,-1.71,-1.71,-1.72
344.30,0.23,1.93,0.20,1.90,-1.87,-1.91,-1.99,-1.64,-1.67,-1.70
347.75,0.17,1.85,0.15,1.83,-1.81,-1.86,-1.93,-1.63,-1.66,-1.68
351.23,0.04,1.70,0.08,1.74,-1.74,-1.82,-1.86,-1.70,-1.67,-1.66
354.74,0.00,1.65,0.02,1.66,-1.69,-1.77,-1.81,-1.69,-1.67,-1.64
358.28,0.00,1.62,-0.01,1.61,-1.64,-1.73,-1.75,-1.64,-1.65,-1.61
361.87,0.00,1.60,-0.00,1.59,-1.60,-1.69,-1.69,-1.60,-1.60,-1.60
365.49,0.00,1.57,0.00,1.57,-1.57,-1.65,-1.63,-1.56,-1.56,-1.57
369.14,0.00,1.56,0.00,1.56,-1.54,-1.62,-1.58,-1.54,-1.54,-1.56
372.83,0.00,1.54,0.00,1.54,-1.53,-1.58,-1.53,-1.52,-1.52,-1.54
376.56,0.00,1.52,0.00,1.52,-1.52,-1.55,-1.48,-1.52,-1.52,-1.52
380.33,0.00,1.49,0.00,1.50,-1.51,-1.51,-1.43,-1.51,-1.51,-1.49
384.13,0.00,1.47,0.00,1.48,-1.50,-1.48,-1.38,-1.50,-1.50,-1.47
387.97,0.00,1.47,0.00,1.47,-1.48,-1.45,-1.33,-1.47,-1.47,-1.47
391.85,0.00,1.46,0.01,1.47,-1.44,-1.42,-1.28,-1.44,-1.43,-1.46
395.77,0.00,1.45,0.01,1.46,-1.41,-1.39,-1.24,-1.41,-1.40,-1.44
399.73,0.00,1.44,-0.03,1.41,-1.37,-1.36,-1.20,-1.37,-1.40,-1.43
403.72,-0.08,1.35,-0.09,1.33,-1.34,-1.33,-1.15,-1.41,-1.43,-1.42
407.76,-0.20,1.22,-0.16,1.25,-1.29,-1.30,-1.11,-1.49,-1.45,-1.42
411.84,-0.23,1.18,-0.22,1.19,-1.23,-1.27,-1.07,-1.45,-1.45,-1.41
415.96,-0.23,1.17,-0.23,1.17,-1.16,-1.25,-1.03,-1.39,-1.39,-1.40
420.12,-0.23,1.16,-0.24,1.15,-1.10,-1.22,-0.99,-1.33,-1.34,-1.39
424.32,-0.25,1.14,-0.29,1.09,-1.05,-1.19,-0.96,-1.30,-1.34,-1.39
428.56,-0.39,0.99,-0.36,1.02,-1.02,-1.17,-0.92,-1.41,-1.38,-1.38
432.85,-0.45,0.93,-0.44,0.94,-1.01,-1.14,-0.89,-1.46,-1.45,-1.38
437.18,-0.45,0.92,-0.46,0.91,-1.01,-1.11,-0.86,-1.45,-1.46,-1.37
441.55,-0.45,0.91,-0.40,0.97,-1.01,-1.09,-0.82,-1.46,-1.41,-1.36
445.96,-0.29,1.06,-0.32,1.03,-1.02,-1.06,-0.79,-1.31,-1.34,-1.35
450.42,-0.23,1.12,-0.26,1.09,-1.03,-1.03,-0.76,-1.26,-1.29,-1.35
454.93,-0.23,1.10,-0.22,1.12,-1.06,-1.00,-0.74,-1.28,-1.27,-1.33
459.48,-0.23,1.10,-0.22,1.10,-1.08,-0.98,-0.71,-1.30,-1.30,-1.33
464.07,-0.23,1.08,-0.23,1.08,-1.09,-0.95,-0.68,-1.32,-1.32,-1.31
468.71,-0.23,1.06,-0.23,1.07,-1.09,-0.91,-0.66,-1.32,-1.32,-1.29
473.40,-0.23,1.07,-0.23,1.06,-1.08,-0.88,-0.64,-1.30,-1.30,-1.29
478.13,-0.23,1.05,-0.23,1.05,-1.06,-0.84,-0.61,-1.29,-1.29,-1.27
482.91,-0.23,1.04,-0.23,1.03,-1.05,-0.80,-0.59,-1.28,-1.28,-1.26
487.74,-0.23,1.01,-0.23,1.01,-1.03,-0.76,-0.57,-1.26,-1.26,-1.23
