frequency,raw,error,smoothed,error_smoothed,equalization,parametric_eq,fixed_band_eq,equalized_raw,equalized_smoothed,target
20.00,5.35,-0.56,5.35,-0.56,0.56,0.81,0.04,5.91,5.91,5.92
20.20,5.33,-0.56,5.34,-0.57,0.56,0.80,0.04,5.90,5.90,5.90
20.40,5.32,-0.56,5.32,-0.57,0.57,0.79,0.05,5.89,5.89,5.89
20.61,5.31,-0.57,5.31,-0.57,0.57,0.77,0.05,5.88,5.88,5.89
20.81,5.30,-0.56,5.31,-0.56,0.57,0.76,0.05,5.87,5.87,5.87
21.02,5.30,-0.55,5.30,-0.56,0.56,0.74,0.06,5.86,5.86,5.86
21.23,5.30,-0.54,5.30,-0.55,0.55,0.72,0.06,5.86,5.86,5.85
21.44,5.30,-0.55,5.31,-0.54,0.54,0.71,0.07,5.85,5.85,5.86
21.66,5.31,-0.53,5.31,-0.53,0.53,0.69,0.07,5.84,5.84,5.85
21.87,5.32,-0.51,5.32,-0.51,0.51,0.67,0.07,5.84,5.83,5.84
22.09,5.33,-0.49,5.34,-0.49,0.49,0.65,0.08,5.83,5.83,5.82
22.31,5.35,-0.47,5.35,-0.47,0.47,0.63,0.08,5.82,5.82,5.82
22.54,5.37,-0.44,5.38,-0.44,0.44,0.62,0.09,5.81,5.82,5.81
22.76,5.40,-0.42,5.40,-0.41,0.41,0.60,0.09,5.81,5.81,5.82
22.99,5.43,-0.38,5.43,-0.38,0.38,0.58,0.10,5.81,5.81,5.81
23.22,5.46,-0.34,5.46,-0.34,0.34,0.56,0.11,5.81,5.81,5.80
23.45,5.49,-0.31,5.49,-0.31,0.31,0.54,0.11,5.81,5.81,5.80
23.69,5.52,-0.28,5.52,-0.27,0.28,0.52,0.12,5.80,5.80,5.80
23.92,5.56,-0.25,5.56,-0.25,0.25,0.50,0.12,5.80,5.80,5.80
24.16,5.58,-0.22,5.59,-0.22,0.22,0.48,0.13,5.80,5.80,5.80
24.40,5.61,-0.19,5.61,-0.19,0.19,0.46,0.13,5.80,5.80,5.81
24.65,5.63,-0.17,5.64,-0.17,0.16,0.44,0.14,5.80,5.80,5.81
24.89,5.65,-0.14,5.65,-0.15,0.15,0.42,0.15,5.80,5.80,5.80
25.14,5.66,-0.12,5.67,-0.12,0.13,0.40,0.15,5.80,5.80,5.79
25.39,5.67,-0.11,5.67,-0.11,0.12,0.38,0.16,5.79,5.79,5.79
25.65,5.67,-0.10,5.68,-0.10,0.11,0.36,0.16,5.79,5.79,5.78
25.91,5.67,-0.10,5.67,-0.11,0.11,0.34,0.17,5.78,5.78,5.77
26.16,5.66,-0.12,5.66,-0.11,0.11,0.33,0.17,5.77,5.77,5.78
26.43,5.65,-0.12,5.66,-0.12,0.11,0.31,0.18,5.76,5.77,5.77
26.69,5.65,-0.12,5.66,-0.12,0.11,0.29,0.18,5.77,5.77,5.77
26.96,5.65,-0.12,5.65,-0.11,0.12,0.27,0.19,5.77,5.77,5.77
27.23,5.65,-0.11,5.65,-0.11,0.12,0.25,0.19,5.78,5.77,5.76
27.50,5.64,-0.11,5.64,-0.12,0.13,0.23,0.20,5.77,5.77,5.76
27.77,5.63,-0.13,5.64,-0.12,0.13,0.21,0.20,5.76,5.77,5.77
28.05,5.63,-0.13,5.63,-0.13,0.13,0.20,0.20,5.76,5.76,5.77
28.33,5.63,-0.13,5.63,-0.13,0.13,0.18,0.20,5.76,5.76,5.76
28.62,5.63,-0.13,5.64,-0.13,0.12,0.16,0.20,5.76,5.76,5.76
28.90,5.65,-0.12,5.65,-0.12,0.11,0.14,0.20,5.77,5.76,5.77
29.19,5.66,-0.11,5.67,-0.10,0.10,0.13,0.20,5.76,5.77,5.77
29.48,5.69,-0.07,5.69,-0.08,0.08,0.11,0.20,5.78,5.77,5.77
29.78,5.71,-0.05,5.72,-0.06,0.06,0.09,0.20,5.77,5.77,5.77
30.08,5.74,-0.04,5.74,-0.03,0.03,0.07,0.19,5.78,5.78,5.79
30.38,5.77,-0.00,5.77,-0.00,0.00,0.06,0.19,5.78,5.77,5.77
30.68,5.80,0.03,5.80,0.03,-0.03,0.04,0.18,5.77,5.77,5.77
30.99,5.83,0.06,5.83,0.06,-0.06,0.02,0.17,5.77,5.77,5.77
31.30,5.86,0.10,5.87,0.10,-0.10,0.01,0.17,5.77,5.77,5.77
31.61,5.89,0.13,5.89,0.13,-0.13,-0.01,0.16,5.76,5.76,5.77
31.93,5.92,0.17,5.92,0.17,-0.16,-0.03,0.14,5.76,5.76,5.76
32.24,5.95,0.19,5.95,0.20,-0.19,-0.04,0.13,5.75,5.75,5.75
32.57,5.97,0.23,5.97,0.23,-0.22,-0.06,0.12,5.75,5.75,5.74
32.89,5.98,0.25,5.99,0.25,-0.24,-0.08,0.10,5.74,5.75,5.74
33.22,5.99,0.26,6.00,0.26,-0.26,-0.09,0.09,5.74,5.74,5.74
33.55,6.00,0.27,6.00,0.27,-0.27,-0.11,0.07,5.74,5.73,5.73
33.89,5.99,0.27,6.00,0.28,-0.27,-0.13,0.05,5.72,5.72,5.72
34.23,5.99,0.29,5.99,0.28,-0.28,-0.14,0.03,5.72,5.71,5.71
34.57,5.98,0.28,5.98,0.28,-0.28,-0.16,0.01,5.70,5.70,5.71
34.92,5.97,0.28,5.98,0.28,-0.29,-0.18,-0.01,5.69,5.69,5.69
35.27,5.97,0.28,5.97,0.29,-0.29,-0.19,-0.03,5.68,5.68,5.70
35.62,5.97,0.31,5.97,0.30,-0.30,-0.21,-0.06,5.67,5.67,5.67
35.97,5.97,0.31,5.97,0.31,-0.31,-0.23,-0.08,5.66,5.66,5.66
36.33,5.97,0.33,5.97,0.33,-0.32,-0.24,-0.10,5.65,5.65,5.65
36.70,5.97,0.34,5.97,0.34,-0.34,-0.26,-0.13,5.64,5.64,5.64
37.06,5.97,0.35,5.97,0.35,-0.35,-0.28,-0.16,5.62,5.62,5.62
37.43,5.97,0.37,5.97,0.37,-0.37,-0.30,-0.18,5.61,5.61,5.61
37.81,5.97,0.38,5.97,0.38,-0.39,-0.31,-0.21,5.59,5.59,5.59
38.19,5.97,0.40,5.97,0.40,-0.40,-0.33,-0.24,5.57,5.57,5.57
38.57,5.97,0.42,5.97,0.42,-0.42,-0.35,-0.27,5.55,5.55,5.56
38.95,5.97,0.44,5.97,0.44,-0.44,-0.37,-0.30,5.53,5.53,5.53
39.34,5.97,0.47,5.97,0.46,-0.46,-0.38,-0.33,5.51,5.51,5.51
39.74,5.97,0.48,5.97,0.49,-0.48,-0.40,-0.36,5.49,5.49,5.49
40.14,5.97,0.51,5.97,0.51,-0.50,-0.42,-0.39,5.47,5.47,5.47
40.54,5.97,0.52,5.97,0.53,-0.52,-0.44,-0.43,5.45,5.45,5.45
40.94,5.97,0.55,5.97,0.55,-0.54,-0.46,-0.46,5.43,5.43,5.43
41.35,5.97,0.56,5.97,0.56,-0.56,-0.48,-0.49,5.41,5.41,5.41
41.76,5.97,0.58,5.97,0.58,-0.58,-0.50,-0.53,5.39,5.39,5.40
42.18,5.97,0.60,5.97,0.60,-0.60,-0.52,-0.56,5.37,5.37,5.38
42.60,5.97,0.62,5.97,0.62,-0.62,-0.54,-0.60,5.35,5.35,5.35
43.03,5.97,0.65,5.97,0.65,-0.64,-0.56,-0.63,5.33,5.33,5.33
43.46,5.97,0.67,5.97,0.67,-0.66,-0.58,-0.67,5.31,5.31,5.31
43.90,5.97,0.69,5.97,0.69,-0.69,-0.60,-0.70,5.29,5.29,5.28
44.33,5.97,0.71,5.97,0.71,-0.71,-0.62,-0.74,5.26,5.26,5.26
44.78,5.97,0.74,5.97,0.73,-0.74,-0.64,-0.78,5.24,5.24,5.24
45.23,5.97,0.76,5.97,0.76,-0.77,-0.66,-0.82,5.21,5.21,5.22
45.68,5.97,0.79,5.97,0.79,-0.79,-0.69,-0.85,5.18,5.18,5.18
46.13,5.97,0.83,5.97,0.83,-0.82,-0.71,-0.89,5.15,5.15,5.14
46.60,5.97,0.86,5.97,0.86,-0.86,-0.73,-0.93,5.12,5.12,5.11
47.06,5.97,0.89,5.97,0.89,-0.89,-0.76,-0.97,5.08,5.08,5.08
47.53,5.97,0.92,5.97,0.93,-0.93,-0.78,-1.01,5.05,5.05,5.06
48.01,5.97,0.97,5.97,0.96,-0.97,-0.80,-1.05,5.01,5.01,5.01
48.49,5.97,1.00,5.97,1.00,-1.00,-0.83,-1.09,4.97,4.97,4.98
48.97,5.97,1.04,5.97,1.04,-1.04,-0.86,-1.14,4.94,4.94,4.93
49.46,5.97,1.07,5.97,1.08,-1.07,-0.88,-1.18,4.90,4.90,4.90
49.96,5.97,1.12,5.97,1.11,-1.11,-0.91,-1.22,4.87,4.87,4.85
50.46,5.97,1.14,5.97,1.15,-1.14,-0.94,-1.26,4.83,4.83,4.83
50.96,5.97,1.18,5.97,1.18,-1.18,-0.96,-1.30,4.80,4.80,4.80
51.47,5.97,1.21,5.97,1.21,-1.21,-0.99,-1.35,4.77,4.77,4.77
51.99,5.97,1.24,5.97,1.24,-1.24,-1.02,-1.39,4.73,4.73,4.73
52.51,5.97,1.28,5.97,1.27,-1.28,-1.05,-1.43,4.70,4.70,4.70
53.03,5.97,1.30,5.97,1.31,-1.31,-1.08,-1.47,4.66,4.66,4.67
53.56,5.97,1.34,5.97,1.34,-1.35,-1.11,-1.52,4.63,4.63,4.63
54.10,5.97,1.38,5.97,1.38,-1.38,-1.15,-1.56,4.59,4.59,4.60
54.64,5.97,1.41,5.97,1.42,-1.42,-1.18,-1.60,4.56,4.56,4.56
55.18,5.97,1.46,5.97,1.46,-1.45,-1.21,-1.64,4.52,4.52,4.51
55.74,5.97,1.50,5.97,1.49,-1.49,-1.25,-1.68,4.49,4.49,4.48
56.29,5.97,1.51,5.97,1.52,-1.52,-1.28,-1.71,4.46,4.46,4.46
56.86,5.97,1.54,5.97,1.55,-1.55,-1.32,-1.75,4.43,4.43,4.43
57.42,5.97,1.58,5.97,1.58,-1.57,-1.35,-1.79,4.40,4.40,4.39
58.00,5.97,1.61,5.97,1.60,-1.60,-1.39,-1.82,4.38,4.38,4.36
58.58,5.97,1.62,5.97,1.63,-1.63,-1.43,-1.85,4.35,4.35,4.36
59.16,5.97,1.65,5.97,1.65,-1.66,-1.47,-1.89,4.32,4.32,4.32
59.76,5.97,1.68,5.97,1.68,-1.69,-1.51,-1.92,4.28,4.28,4.29
60.35,5.97,1.72,5.97,1.72,-1.73,-1.55,-1.94,4.24,4.24,4.25
60.96,5.97,1.76,5.97,1.77,-1.77,-1.59,-1.97,4.20,4.20,4.21
61.57,5.97,1.82,5.97,1.81,-1.81,-1.63,-1.99,4.16,4.16,4.16
62.18,5.97,1.86,5.97,1.86,-1.86,-1.68,-2.02,4.12,4.12,4.11
62.80,5.97,1.91,5.97,1.91,-1.90,-1.72,-2.04,4.08,4.08,4.07
63.43,5.97,1.95,5.97,1.95,-1.94,-1.76,-2.05,4.03,4.03,4.02
64.07,5.97,1.99,5.97,1.99,-1.98,-1.81,-2.07,3.99,3.99,3.99
64.71,5.97,2.02,5.97,2.02,-2.02,-1.85,-2.09,3.95,3.95,3.95
65.35,5.97,2.06,5.97,2.06,-2.06,-1.90,-2.10,3.91,3.91,3.91
66.01,5.97,2.10,5.97,2.10,-2.10,-1.95,-2.11,3.87,3.87,3.88
66.67,5.97,2.13,5.97,2.13,-2.14,-1.99,-2.12,3.84,3.84,3.85
67.33,5.97,2.18,5.97,2.17,-2.17,-2.04,-2.13,3.80,3.80,3.80
68.01,5.97,2.22,5.97,2.22,-2.21,-2.09,-2.14,3.76,3.76,3.76
68.69,5.97,2.26,5.97,2.26,-2.25,-2.14,-2.15,3.72,3.72,3.72
69.37,5.97,2.29,5.97,2.29,-2.29,-2.18,-2.15,3.68,3.68,3.68
70.07,5.97,2.32,5.98,2.33,-2.34,-2.23,-2.16,3.64,3.64,3.65
70.77,5.97,2.37,5.98,2.37,-2.38,-2.28,-2.17,3.59,3.59,3.61
71.48,5.98,2.42,5.98,2.42,-2.43,-2.32,-2.17,3.56,3.55,3.56
72.19,5.98,2.47,5.99,2.47,-2.47,-2.37,-2.18,3.51,3.52,3.52
72.91,5.99,2.51,6.00,2.52,-2.52,-2.41,-2.18,3.48,3.48,3.48
73.64,6.00,2.57,6.00,2.56,-2.55,-2.46,-2.19,3.45,3.44,3.43
74.38,5.99,2.60,6.00,2.60,-2.59,-2.50,-2.19,3.41,3.41,3.39
75.12,5.99,2.63,5.99,2.63,-2.62,-2.54,-2.20,3.38,3.37,3.37
75.87,5.97,2.64,5.98,2.64,-2.64,-2.58,-2.20,3.34,3.34,3.34
76.63,5.95,2.65,5.96,2.65,-2.65,-2.62,-2.21,3.30,3.31,3.31
77.40,5.93,2.66,5.93,2.66,-2.66,-2.65,-2.22,3.28,3.27,3.27
78.17,5.90,2.66,5.91,2.66,-2.66,-2.69,-2.23,3.24,3.25,3.24
78.95,5.87,2.66,5.88,2.66,-2.66,-2.72,-2.24,3.22,3.22,3.22
79.74,5.84,2.65,5.84,2.65,-2.66,-2.75,-2.25,3.19,3.19,3.19
80.54,5.81,2.66,5.81,2.65,-2.65,-2.78,-2.27,3.16,3.16,3.16
81.35,5.78,2.65,5.78,2.65,-2.65,-2.80,-2.28,3.13,3.13,3.13
82.16,5.75,2.65,5.75,2.65,-2.65,-2.83,-2.30,3.10,3.10,3.11
82.98,5.72,2.65,5.72,2.65,-2.66,-2.85,-2.32,3.07,3.07,3.07
83.81,5.69,2.66,5.70,2.66,-2.66,-2.87,-2.34,3.03,3.03,3.03
84.65,5.67,2.67,5.67,2.67,-2.67,-2.89,-2.36,3.00,3.00,3.00
85.50,5.65,2.69,5.66,2.69,-2.69,-2.90,-2.38,2.96,2.97,2.96
86.35,5.64,2.71,5.64,2.71,-2.71,-2.92,-2.41,2.93,2.93,2.93
87.22,5.63,2.73,5.63,2.73,-2.74,-2.93,-2.44,2.89,2.89,2.90
88.09,5.62,2.76,5.63,2.77,-2.78,-2.94,-2.47,2.85,2.86,2.86
88.97,5.63,2.81,5.63,2.81,-2.81,-2.96,-2.50,2.82,2.82,2.83
89.86,5.64,2.86,5.64,2.85,-2.85,-2.96,-2.53,2.79,2.79,2.79
90.76,5.65,2.90,5.66,2.90,-2.90,-2.97,-2.56,2.76,2.76,2.75
91.66,5.66,2.95,5.67,2.95,-2.94,-2.98,-2.60,2.72,2.72,2.72
92.58,5.67,2.99,5.67,2.99,-2.98,-2.99,-2.64,2.69,2.69,2.68
93.51,5.67,3.03,5.68,3.03,-3.03,-3.00,-2.68,2.65,2.65,2.65
94.44,5.67,3.06,5.67,3.06,-3.06,-3.00,-2.72,2.61,2.61,2.61
95.39,5.66,3.10,5.66,3.09,-3.09,-3.01,-2.77,2.57,2.57,2.57
96.34,5.64,3.12,5.65,3.12,-3.12,-3.01,-2.81,2.53,2.53,2.52
97.30,5.62,3.14,5.63,3.14,-3.14,-3.02,-2.86,2.49,2.49,2.49
98.28,5.60,3.16,5.60,3.16,-3.15,-3.03,-2.91,2.45,2.45,2.45
99.26,5.57,3.17,5.58,3.17,-3.16,-3.03,-2.96,2.41,2.41,2.40
100.25,5.54,3.18,5.55,3.17,-3.17,-3.04,-3.01,2.37,2.37,2.36
101.25,5.51,3.17,5.51,3.18,-3.17,-3.05,-3.06,2.34,2.34,2.35
102.27,5.48,3.18,5.48,3.18,-3.18,-3.06,-3.11,2.31,2.31,2.31
103.29,5.45,3.18,5.45,3.17,-3.18,-3.07,-3.17,2.27,2.27,2.27
104.32,5.42,3.17,5.42,3.18,-3.18,-3.08,-3.22,2.24,2.24,2.25
105.37,5.39,3.18,5.40,3.18,-3.19,-3.09,-3.28,2.20,2.21,2.22
106.42,5.38,3.20,5.38,3.19,-3.20,-3.10,-3.33,2.18,2.18,2.19
107.48,5.36,3.21,5.37,3.21,-3.21,-3.11,-3.38,2.15,2.15,2.15
108.56,5.35,3.23,5.35,3.23,-3.23,-3.12,-3.44,2.12,2.12,2.12
109.64,5.33,3.25,5.34,3.25,-3.25,-3.14,-3.49,2.09,2.09,2.08
110.74,5.32,3.27,5.32,3.27,-3.27,-3.15,-3.54,2.06,2.05,2.06
111.85,5.30,3.29,5.31,3.29,-3.29,-3.16,-3.59,2.02,2.02,2.02
112.97,5.29,3.31,5.29,3.31,-3.31,-3.18,-3.64,1.99,1.99,1.98
114.10,5.27,3.32,5.27,3.33,-3.32,-3.20,-3.68,1.95,1.95,1.96
115.24,5.25,3.34,5.25,3.34,-3.34,-3.22,-3.73,1.92,1.91,1.91
116.39,5.22,3.36,5.23,3.35,-3.35,-3.23,-3.77,1.88,1.88,1.86
117.55,5.19,3.36,5.20,3.36,-3.36,-3.25,-3.80,1.84,1.84,1.84
118.73,5.16,3.37,5.16,3.37,-3.36,-3.27,-3.84,1.80,1.80,1.79
119.92,5.13,3.37,5.13,3.36,-3.36,-3.29,-3.87,1.77,1.77,1.77
121.12,5.10,3.36,5.10,3.36,-3.36,-3.31,-3.90,1.74,1.74,1.74
122.33,5.07,3.36,5.07,3.36,-3.37,-3.34,-3.92,1.71,1.71,1.71
123.55,5.04,3.37,5.05,3.36,-3.37,-3.36,-3.94,1.68,1.68,1.68
124.79,5.02,3.37,5.02,3.37,-3.38,-3.38,-3.96,1.65,1.64,1.66
126.03,5.00,3.39,5.01,3.39,-3.39,-3.41,-3.97,1.61,1.61,1.61
127.29,4.99,3.41,4.99,3.41,-3.42,-3.43,-3.98,1.58,1.58,1.58
128.57,4.98,3.43,4.99,3.44,-3.44,-3.45,-3.98,1.54,1.54,1.55
129.85,4.98,3.47,4.98,3.47,-3.48,-3.48,-3.98,1.51,1.51,1.51
131.15,4.98,3.51,4.99,3.51,-3.51,-3.51,-3.98,1.47,1.47,1.47
132.46,4.99,3.56,4.99,3.56,-3.55,-3.53,-3.97,1.44,1.44,1.44
133.79,5.00,3.61,5.00,3.60,-3.59,-3.56,-3.96,1.41,1.41,1.40
135.12,5.00,3.64,5.01,3.64,-3.63,-3.58,-3.95,1.37,1.38,1.36
136.48,5.00,3.66,5.01,3.67,-3.67,-3.61,-3.93,1.34,1.34,1.35
137.84,5.00,3.69,5.00,3.70,-3.70,-3.64,-3.92,1.30,1.30,1.31
139.22,5.00,3.74,5.00,3.73,-3.73,-3.67,-3.90,1.27,1.27,1.27
140.61,5.00,3.76,5.00,3.77,-3.76,-3.69,-3.88,1.24,1.24,1.24
142.02,5.00,3.79,5.00,3.80,-3.79,-3.72,-3.85,1.21,1.21,1.21
143.44,5.00,3.83,5.00,3.82,-3.82,-3.75,-3.83,1.19,1.19,1.18
144.87,5.00,3.84,5.00,3.84,-3.84,-3.78,-3.81,1.16,1.16,1.17
146.32,5.00,3.87,5.00,3.87,-3.87,-3.80,-3.78,1.14,1.14,1.14
147.78,5.00,3.89,5.00,3.89,-3.89,-3.83,-3.76,1.11,1.11,1.12
149.26,5.00,3.92,5.00,3.91,-3.92,-3.86,-3.74,1.08,1.08,1.09
150.75,5.00,3.94,5.01,3.94,-3.95,-3.88,-3.71,1.06,1.06,1.06
152.26,5.01,3.97,5.01,3.97,-3.97,-3.91,-3.69,1.04,1.04,1.05
153.78,5.02,4.01,5.02,4.00,-4.00,-3.94,-3.67,1.02,1.02,1.02
155.32,5.02,4.03,5.03,4.03,-4.03,-3.96,-3.65,1.00,1.00,0.99
156.88,5.02,4.05,5.02,4.06,-4.05,-3.99,-3.63,0.97,0.97,0.97
158.44,5.01,4.08,5.02,4.07,-4.07,-4.02,-3.62,0.94,0.94,0.94
160.03,5.00,4.09,5.00,4.09,-4.09,-4.04,-3.60,0.91,0.91,0.91
161.63,4.98,4.10,4.99,4.11,-4.10,-4.06,-3.59,0.88,0.88,0.88
163.24,4.96,4.12,4.96,4.12,-4.11,-4.09,-3.58,0.85,0.85,0.84
164.88,4.93,4.12,4.94,4.12,-4.12,-4.11,-3.57,0.82,0.82,0.81
166.53,4.90,4.12,4.91,4.12,-4.12,-4.13,-3.57,0.78,0.78,0.78
168.19,4.87,4.12,4.87,4.12,-4.12,-4.16,-3.56,0.75,0.75,0.75
169.87,4.84,4.13,4.84,4.12,-4.13,-4.18,-3.56,0.72,0.72,0.72
171.57,4.81,4.12,4.81,4.13,-4.13,-4.20,-3.57,0.69,0.69,0.69
173.29,4.78,4.13,4.78,4.13,-4.13,-4.22,-3.57,0.66,0.66,0.65
175.02,4.75,4.14,4.75,4.13,-4.13,-4.24,-3.58,0.62,0.62,0.62
176.77,4.72,4.14,4.73,4.14,-4.14,-4.25,-3.59,0.58,0.59,0.58
178.54,4.70,4.14,4.70,4.15,-4.16,-4.27,-3.60,0.55,0.55,0.56
180.32,4.68,4.17,4.69,4.16,-4.18,-4.29,-3.62,0.51,0.51,0.52
182.13,4.67,4.19,4.68,4.19,-4.20,-4.30,-3.64,0.47,0.47,0.48
183.95,4.67,4.22,4.67,4.22,-4.23,-4.32,-3.66,0.44,0.44,0.45
185.79,4.67,4.26,4.68,4.26,-4.26,-4.33,-3.69,0.41,0.41,0.41
187.65,4.68,4.30,4.68,4.30,-4.29,-4.34,-3.71,0.39,0.39,0.38
189.52,4.68,4.34,4.68,4.34,-4.33,-4.35,-3.74,0.36,0.36,0.34
191.42,4.67,4.36,4.67,4.36,-4.35,-4.36,-3.78,0.32,0.32,0.31
193.33,4.65,4.37,4.66,4.38,-4.37,-4.37,-3.81,0.28,0.29,0.28
195.27,4.63,4.39,4.64,4.39,-4.39,-4.38,-3.85,0.25,0.25,0.25
197.22,4.61,4.41,4.61,4.40,-4.39,-4.38,-3.89,0.22,0.22,0.21
199.19,4.58,4.39,4.59,4.40,-4.40,-4.39,-3.93,0.19,0.19,0.19
201.18,4.55,4.40,4.55,4.39,-4.40,-4.39,-3.97,0.16,0.16,0.16
203.19,4.52,4.38,4.52,4.38,-4.39,-4.39,-4.01,0.13,0.13,0.14
205.23,4.49,4.38,4.50,4.38,-4.39,-4.39,-4.06,0.10,0.11,0.11
207.28,4.47,4.37,4.47,4.38,-4.38,-4.39,-4.10,0.09,0.09,0.10
209.35,4.45,4.39,4.45,4.38,-4.38,-4.39,-4.15,0.08,0.07,0.07
211.44,4.42,4.38,4.43,4.38,-4.37,-4.39,-4.19,0.05,0.05,0.04
213.56,4.39,4.37,4.40,4.37,-4.37,-4.38,-4.24,0.03,0.03,0.03
215.69,4.36,4.36,4.36,4.36,-4.36,-4.38,-4.28,0.00,0.00,0.01
217.85,4.33,4.35,4.33,4.35,-4.35,-4.37,-4.33,-0.02,-0.02,-0.02
220.03,4.30,4.34,4.31,4.34,-4.35,-4.36,-4.37,-0.04,-0.04,-0.04
222.23,4.27,4.33,4.28,4.34,-4.34,-4.35,-4.41,-0.07,-0.06,-0.06
224.45,4.25,4.34,4.25,4.33,-4.33,-4.34,-4.45,-0.08,-0.08,-0.08
226.70,4.22,4.32,4.23,4.32,-4.33,-4.33,-4.49,-0.10,-0.10,-0.09
228.96,4.21,4.32,4.21,4.31,-4.32,-4.31,-4.52,-0.10,-0.11,-0.10
231.25,4.18,4.31,4.19,4.31,-4.30,-4.30,-4.55,-0.12,-0.12,-0.12
233.57,4.16,4.30,4.16,4.30,-4.29,-4.28,-4.58,-0.12,-0.13,-0.13
235.90,4.13,4.29,4.13,4.28,-4.27,-4.26,-4.60,-0.13,-0.14,-0.15
238.26,4.09,4.25,4.10,4.25,-4.24,-4.24,-4.62,-0.15,-0.15,-0.16
240.64,4.06,4.21,4.06,4.22,-4.22,-4.22,-4.63,-0.15,-0.15,-0.15
243.05,4.02,4.18,4.02,4.19,-4.19,-4.20,-4.64,-0.16,-0.16,-0.16
245.48,3.98,4.16,3.99,4.15,-4.16,-4.18,-4.64,-0.17,-0.17,-0.17
247.93,3.94,4.13,3.95,4.12,-4.13,-4.16,-4.63,-0.18,-0.18,-0.18
250.41,3.91,4.08,3.91,4.09,-4.10,-4.13,-4.62,-0.18,-0.18,-0.17
252.92,3.88,4.05,3.89,4.06,-4.07,-4.11,-4.61,-0.19,-0.18,-0.17
255.45,3.87,4.05,3.87,4.04,-4.05,-4.08,-4.59,-0.17,-0.18,-0.17
258.00,3.85,4.02,3.85,4.03,-4.02,-4.05,-4.56,-0.17,-0.17,-0.17
260.58,3.83,4.01,3.83,4.01,-4.00,-4.02,-4.53,-0.16,-0.16,-0.18
263.19,3.80,3.98,3.81,3.98,-3.97,-3.99,-4.49,-0.16,-0.16,-0.17
265.82,3.77,3.95,3.77,3.95,-3.94,-3.96,-4.45,-0.16,-0.17,-0.18
268.48,3.73,3.91,3.74,3.91,-3.91,-3.93,-4.40,-0.17,-0.17,-0.17
271.16,3.69,3.87,3.69,3.87,-3.88,-3.90,-4.35,-0.18,-0.18,-0.18
273.87,3.65,3.83,3.65,3.83,-3.84,-3.87,-4.29,-0.19,-0.19,-0.17
276.61,3.61,3.79,3.62,3.80,-3.81,-3.83,-4.23,-0.20,-0.20,-0.18
279.38,3.58,3.78,3.59,3.77,-3.78,-3.80,-4.17,-0.20,-0.20,-0.19
282.17,3.56,3.74,3.57,3.75,-3.75,-3.77,-4.10,-0.19,-0.19,-0.18
284.99,3.55,3.73,3.55,3.73,-3.73,-3.73,-4.03,-0.17,-0.17,-0.17
287.84,3.53,3.70,3.53,3.71,-3.70,-3.69,-3.96,-0.16,-0.16,-0.17
290.72,3.50,3.69,3.50,3.68,-3.66,-3.66,-3.89,-0.16,-0.16,-0.18
293.63,3.46,3.64,3.47,3.64,-3.63,-3.62,-3.82,-0.16,-0.16,-0.18
296.57,3.42,3.59,3.43,3.59,-3.59,-3.58,-3.74,-0.16,-0.16,-0.16
299.53,3.38,3.55,3.38,3.55,-3.55,-3.54,-3.67,-0.16,-0.16,-0.16
302.53,3.34,3.50,3.34,3.50,-3.51,-3.51,-3.59,-0.16,-0.16,-0.16
305.55,3.30,3.46,3.30,3.46,-3.47,-3.47,-3.52,-0.16,-0.16,-0.15
308.61,3.26,3.41,3.27,3.41,-3.43,-3.43,-3.45,-0.16,-0.16,-0.14
311.69,3.24,3.38,3.24,3.38,-3.39,-3.39,-3.37,-0.15,-0.15,-0.14
314.81,3.22,3.36,3.22,3.35,-3.36,-3.35,-3.30,-0.13,-0.13,-0.13
317.96,3.20,3.33,3.21,3.33,-3.32,-3.31,-3.23,-0.12,-0.11,-0.12
321.14,3.18,3.30,3.18,3.30,-3.28,-3.27,-3.16,-0.10,-0.10,-0.12
324.35,3.14,3.26,3.15,3.25,-3.24,-3.23,-3.09,-0.10,-0.10,-0.12
327.59,3.10,3.20,3.11,3.21,-3.20,-3.18,-3.03,-0.10,-0.10,-0.09
330.87,3.06,3.16,3.06,3.16,-3.16,-3.14,-2.96,-0.09,-0.09,-0.09
334.18,3.02,3.12,3.02,3.11,-3.12,-3.10,-2.90,-0.09,-0.09,-0.10
337.52,2.98,3.06,2.98,3.07,-3.07,-3.06,-2.83,-0.09,-0.09,-0.08
340.90,2.94,3.02,2.95,3.02,-3.03,-3.02,-2.78,-0.09,-0.09,-0.07
344.30,2.91,2.98,2.92,2.98,-2.99,-2.98,-2.72,-0.08,-0.08,-0.06
347.75,2.89,2.95,2.90,2.95,-2.96,-2.94,-2.66,-0.06,-0.06,-0.06
351.23,2.88,2.93,2.88,2.93,-2.92,-2.89,-2.61,-0.04,-0.04,-0.05
354.74,2.86,2.89,2.86,2.90,-2.88,-2.85,-2.56,-0.02,-0.02,-0.03
358.28,2.82,2.86,2.83,2.86,-2.84,-2.81,-2.51,-0.02,-0.02,-0.03
361.87,2.78,2.82,2.79,2.81,-2.80,-2.77,-2.46,-0.02,-0.02,-0.03
365.49,2.74,2.76,2.74,2.76,-2.76,-2.73,-2.41,-0.02,-0.02,-0.01
369.14,2.70,2.71,2.70,2.71,-2.72,-2.69,-2.37,-0.01,-0.01,-0.01
372.83,2.66,2.66,2.66,2.66,-2.67,-2.65,-2.33,-0.01,-0.01,0.00
376.56,2.62,2.62,2.63,2.62,-2.63,-2.60,-2.29,-0.01,-0.01,0.00
380.33,2.59,2.59,2.59,2.59,-2.59,-2.56,-2.25,0.00,-0.00,0.01
384.13,2.56,2.55,2.57,2.55,-2.56,-2.52,-2.21,0.01,0.01,0.02
387.97,2.55,2.53,2.55,2.52,-2.52,-2.48,-2.18,0.03,0.03,0.03
391.85,2.53,2.49,2.53,2.50,-2.49,-2.44,-2.14,0.05,0.05,0.05
395.77,2.51,2.47,2.51,2.47,-2.45,-2.40,-2.11,0.06,0.06,0.04
399.73,2.48,2.43,2.48,2.43,-2.41,-2.36,-2.08,0.07,0.07,0.05
403.72,2.44,2.37,2.45,2.38,-2.38,-2.32,-2.05,0.07,0.07,0.07
407.76,2.41,2.33,2.41,2.33,-2.34,-2.28,-2.02,0.08,0.08,0.08
411.84,2.37,2.29,2.38,2.29,-2.30,-2.24,-2.00,0.08,0.08,0.09
415.96,2.34,2.25,2.34,2.25,-2.26,-2.20,-1.97,0.09,0.09,0.10
420.12,2.31,2.22,2.31,2.21,-2.22,-2.16,-1.95,0.09,0.09,0.10
424.32,2.28,2.18,2.29,2.18,-2.19,-2.12,-1.92,0.10,0.11,0.11
428.56,2.27,2.15,2.27,2.15,-2.15,-2.08,-1.90,0.12,0.12,0.13
432.85,2.25,2.11,2.25,2.12,-2.12,-2.04,-1.88,0.14,0.14,0.14
437.18,2.23,2.10,2.23,2.09,-2.08,-2.01,-1.86,0.15,0.15,0.13
441.55,2.20,2.06,2.20,2.06,-2.04,-1.97,-1.84,0.16,0.16,0.14
445.96,2.16,2.01,2.17,2.02,-2.00,-1.93,-1.81,0.16,0.16,0.15
450.42,2.12,1.96,2.13,1.97,-1.96,-1.89,-1.79,0.17,0.17,0.16
454.93,2.08,1.91,2.08,1.91,-1.91,-1.85,-1.77,0.17,0.17,0.17
459.48,2.04,1.86,2.04,1.86,-1.86,-1.82,-1.75,0.18,0.18,0.18
464.07,1.99,1.79,2.00,1.81,-1.82,-1.78,-1.73,0.18,0.18,0.20
468.71,1.96,1.77,1.96,1.76,-1.78,-1.74,-1.71,0.19,0.19,0.20
473.40,1.93,1.73,1.93,1.72,-1.74,-1.70,-1.68,0.20,0.20,0.21
478.13,1.91,1.70,1.92,1.70,-1.70,-1.67,-1.66,0.21,0.21,0.22
482.91,1.89,1.67,1.90,1.67,-1.67,-1.63,-1.64,0.23,0.23,0.23
487.74,1.88,1.65,1.88,1.64,-1.63,-1.59,-1.61,0.25,0.25,0.24
492.62,1.85,1.61,1.85,1.61,-1.59,-1.56,-1.59,0.26,0.26,0.25
497.55,1.82,1.57,1.82,1.57,-1.55,-1.52,-1.56,0.27,0.27,0.26
502.52,1.78,1.52,1.79,1.52,-1.51,-1.49,-1.53,0.27,0.27,0.27
507.55,1.75,1.47,1.75,1.47,-1.47,-1.45,-1.50,0.28,0.28,0.29
512.62,1.71,1.42,1.72,1.42,-1.43,-1.41,-1.47,0.29,0.29,0.29
517.75,1.68,1.37,1.68,1.37,-1.39,-1.38,-1.44,0.30,0.30,0.31
522.93,1.65,1.33,1.66,1.33,-1.35,-1.34,-1.41,0.31,0.31,0.32
528.16,1.63,1.30,1.64,1.30,-1.31,-1.31,-1.38,0.33,0.33,0.33
533.44,1.61,1.27,1.62,1.27,-1.27,-1.27,-1.34,0.34,0.35,0.34
538.77,1.60,1.25,1.60,1.24,-1.23,-1.24,-1.31,0.37,0.37,0.35
