frequency,raw,error,smoothed,error_smoothed,equalization,parametric_eq,fixed_band_eq,equalized_raw,equalized_smoothed,target
20.00,-1.03,2.31,-1.04,2.30,-2.36,-2.46,-0.21,-3.40,-3.41,-3.34
20.20,-1.06,2.27,-1.06,2.27,-2.29,-2.46,-0.21,-3.36,-3.35,-3.33
20.40,-1.10,2.22,-1.09,2.24,-2.22,-2.45,-0.22,-3.33,-3.31,-3.32
20.61,-1.13,2.19,-1.13,2.19,-2.15,-2.43,-0.23,-3.29,-3.28,-3.32
20.81,-1.17,2.14,-1.17,2.14,-2.08,-2.39,-0.24,-3.25,-3.25,-3.31
21.02,-1.21,2.10,-1.23,2.08,-2.01,-2.35,-0.24,-3.22,-3.24,-3.31
21.23,-1.32,1.98,-1.32,1.98,-1.94,-2.30,-0.25,-3.26,-3.26,-3.30
21.44,-1.43,1.87,-1.43,1.87,-1.86,-2.24,-0.26,-3.30,-3.29,-3.30
21.66,-1.54,1.76,-1.55,1.75,-1.77,-2.18,-0.27,-3.32,-3.32,-3.30
21.87,-1.65,1.65,-1.65,1.65,-1.69,-2.11,-0.28,-3.34,-3.34,-3.30
22.09,-1.73,1.56,-1.72,1.57,-1.61,-2.03,-0.29,-3.34,-3.33,-3.29
22.31,-1.77,1.52,-1.78,1.52,-1.54,-1.96,-0.30,-3.31,-3.32,-3.29
22.54,-1.81,1.49,-1.82,1.48,-1.48,-1.88,-0.31,-3.30,-3.31,-3.30
22.76,-1.86,1.45,-1.86,1.45,-1.44,-1.80,-0.32,-3.31,-3.30,-3.31
22.99,-1.90,1.41,-1.90,1.42,-1.41,-1.72,-0.33,-3.31,-3.31,-3.31
23.22,-1.92,1.39,-1.93,1.39,-1.39,-1.64,-0.34,-3.31,-3.32,-3.32
23.45,-1.95,1.37,-1.95,1.37,-1.37,-1.56,-0.35,-3.32,-3.32,-3.33
23.69,-1.98,1.34,-1.98,1.35,-1.34,-1.49,-0.36,-3.33,-3.32,-3.33
23.92,-2.00,1.32,-2.01,1.32,-1.32,-1.42,-0.37,-3.32,-3.33,-3.33
24.16,-2.03,1.29,-2.03,1.29,-1.29,-1.34,-0.38,-3.33,-3.33,-3.33
24.40,-2.06,1.26,-2.06,1.27,-1.26,-1.28,-0.40,-3.33,-3.33,-3.33
24.65,-2.09,1.23,-2.09,1.23,-1.23,-1.21,-0.41,-3.33,-3.33,-3.33
24.89,-2.13,1.19,-2.13,1.20,-1.19,-1.15,-0.42,-3.33,-3.33,-3.33
25.14,-2.17,1.15,-2.18,1.15,-1.15,-1.09,-0.43,-3.32,-3.33,-3.33
25.39,-2.23,1.10,-2.23,1.10,-1.10,-1.03,-0.44,-3.33,-3.33,-3.34
25.65,-2.29,1.05,-2.29,1.05,-1.04,-0.97,-0.45,-3.33,-3.33,-3.34
25.91,-2.35,0.99,-2.35,0.99,-0.98,-0.92,-0.46,-3.33,-3.33,-3.34
26.16,-2.42,0.92,-2.43,0.91,-0.90,-0.87,-0.47,-3.33,-3.33,-3.34
26.43,-2.50,0.84,-2.51,0.84,-0.82,-0.82,-0.48,-3.32,-3.33,-3.34
26.69,-2.59,0.75,-2.59,0.75,-0.74,-0.77,-0.49,-3.33,-3.33,-3.34
26.96,-2.67,0.67,-2.67,0.67,-0.67,-0.73,-0.50,-3.34,-3.33,-3.34
27.23,-2.74,0.60,-2.74,0.60,-0.61,-0.68,-0.51,-3.35,-3.35,-3.34
27.50,-2.80,0.54,-2.82,0.53,-0.57,-0.64,-0.52,-3.37,-3.38,-3.34
27.77,-2.87,0.47,-2.87,0.48,-0.54,-0.60,-0.53,-3.42,-3.41,-3.34
28.05,-2.91,0.43,-2.89,0.46,-0.53,-0.57,-0.53,-3.44,-3.41,-3.35
28.33,-2.85,0.49,-2.85,0.49,-0.52,-0.53,-0.54,-3.37,-3.37,-3.35
28.62,-2.80,0.54,-2.80,0.54,-0.50,-0.50,-0.54,-3.31,-3.30,-3.35
28.90,-2.74,0.59,-2.77,0.57,-0.48,-0.46,-0.55,-3.22,-3.25,-3.34
29.19,-2.79,0.55,-2.80,0.54,-0.45,-0.43,-0.55,-3.24,-3.25,-3.34
29.48,-2.89,0.45,-2.88,0.45,-0.40,-0.40,-0.55,-3.29,-3.28,-3.34
29.78,-2.99,0.34,-2.99,0.34,-0.34,-0.37,-0.55,-3.34,-3.33,-3.33
30.08,-3.09,0.24,-3.08,0.25,-0.29,-0.34,-0.55,-3.38,-3.37,-3.33
30.38,-3.15,0.18,-3.16,0.17,-0.24,-0.31,-0.55,-3.39,-3.40,-3.33
30.68,-3.21,0.12,-3.22,0.11,-0.19,-0.29,-0.54,-3.41,-3.42,-3.33
30.99,-3.27,0.06,-3.25,0.09,-0.15,-0.26,-0.53,-3.42,-3.39,-3.34
31.30,-3.23,0.10,-3.22,0.11,-0.11,-0.23,-0.53,-3.35,-3.33,-3.34
31.61,-3.18,0.15,-3.18,0.15,-0.08,-0.21,-0.52,-3.26,-3.26,-3.34
31.93,-3.13,0.21,-3.17,0.17,-0.06,-0.18,-0.51,-3.20,-3.23,-3.34
32.24,-3.23,0.13,-3.24,0.11,-0.05,-0.16,-0.50,-3.28,-3.29,-3.35
32.57,-3.35,-0.00,-3.35,0.00,-0.04,-0.14,-0.48,-3.39,-3.39,-3.35
32.89,-3.48,-0.13,-3.45,-0.09,-0.02,-0.11,-0.47,-3.50,-3.46,-3.35
33.22,-3.48,-0.12,-3.46,-0.09,0.02,-0.09,-0.45,-3.47,-3.44,-3.36
33.55,-3.41,-0.05,-3.42,-0.05,0.06,-0.07,-0.43,-3.35,-3.35,-3.37
33.89,-3.34,0.03,-3.39,-0.01,0.11,-0.04,-0.41,-3.23,-3.28,-3.38
34.23,-3.41,-0.03,-3.43,-0.06,0.14,-0.02,-0.39,-3.27,-3.29,-3.38
34.57,-3.54,-0.16,-3.54,-0.15,0.17,0.00,-0.37,-3.38,-3.37,-3.38
34.92,-3.67,-0.29,-3.63,-0.25,0.18,0.03,-0.35,-3.49,-3.45,-3.38
35.27,-3.68,-0.30,-3.67,-0.29,0.20,0.05,-0.32,-3.48,-3.47,-3.39
35.62,-3.65,-0.27,-3.66,-0.28,0.24,0.07,-0.30,-3.42,-3.43,-3.39
35.97,-3.62,-0.23,-3.64,-0.25,0.27,0.09,-0.27,-3.35,-3.37,-3.39
36.33,-3.64,-0.25,-3.64,-0.25,0.30,0.12,-0.24,-3.34,-3.34,-3.39
36.70,-3.67,-0.28,-3.67,-0.27,0.32,0.14,-0.22,-3.35,-3.35,-3.39
37.06,-3.70,-0.31,-3.71,-0.32,0.34,0.16,-0.19,-3.37,-3.37,-3.40
37.43,-3.75,-0.36,-3.76,-0.36,0.35,0.19,-0.16,-3.41,-3.41,-3.40
37.81,-3.80,-0.41,-3.79,-0.40,0.36,0.21,-0.13,-3.44,-3.43,-3.39
38.19,-3.82,-0.43,-3.82,-0.43,0.38,0.24,-0.10,-3.44,-3.44,-3.39
38.57,-3.82,-0.43,-3.83,-0.43,0.41,0.26,-0.07,-3.42,-3.42,-3.40
38.95,-3.82,-0.43,-3.82,-0.43,0.43,0.29,-0.03,-3.39,-3.39,-3.39
39.34,-3.81,-0.42,-3.81,-0.42,0.45,0.31,-0.00,-3.36,-3.36,-3.39
39.74,-3.81,-0.42,-3.81,-0.42,0.47,0.34,0.03,-3.34,-3.34,-3.40
40.14,-3.83,-0.43,-3.86,-0.46,0.50,0.36,0.06,-3.34,-3.36,-3.40
40.54,-3.92,-0.52,-3.93,-0.52,0.52,0.39,0.10,-3.41,-3.41,-3.40
40.94,-4.02,-0.62,-3.99,-0.58,0.54,0.42,0.13,-3.48,-3.45,-3.41
41.35,-4.03,-0.62,-4.03,-0.62,0.57,0.45,0.17,-3.46,-3.46,-3.41
41.76,-4.03,-0.61,-4.04,-0.63,0.61,0.48,0.20,-3.43,-3.44,-3.42
42.18,-4.04,-0.62,-4.04,-0.62,0.64,0.51,0.24,-3.40,-3.40,-3.43
42.60,-4.06,-0.63,-4.06,-0.63,0.67,0.54,0.27,-3.39,-3.39,-3.43
43.03,-4.08,-0.65,-4.10,-0.67,0.69,0.57,0.31,-3.39,-3.41,-3.44
43.46,-4.15,-0.71,-4.15,-0.71,0.71,0.60,0.34,-3.44,-3.44,-3.44
43.90,-4.21,-0.76,-4.20,-0.75,0.73,0.63,0.38,-3.49,-3.47,-3.45
44.33,-4.23,-0.77,-4.23,-0.77,0.74,0.66,0.42,-3.49,-3.49,-3.46
44.78,-4.23,-0.77,-4.24,-0.77,0.75,0.69,0.45,-3.48,-3.48,-3.46
45.23,-4.23,-0.76,-4.24,-0.77,0.76,0.73,0.49,-3.47,-3.47,-3.47
45.68,-4.23,-0.76,-4.23,-0.76,0.76,0.76,0.53,-3.47,-3.47,-3.47
46.13,-4.23,-0.76,-4.23,-0.76,0.76,0.79,0.57,-3.47,-3.47,-3.47
46.60,-4.23,-0.76,-4.23,-0.76,0.77,0.83,0.60,-3.47,-3.47,-3.48
47.06,-4.23,-0.76,-4.23,-0.76,0.78,0.86,0.64,-3.45,-3.44,-3.47
47.53,-4.23,-0.77,-4.23,-0.76,0.81,0.89,0.68,-3.42,-3.42,-3.47
48.01,-4.23,-0.77,-4.26,-0.79,0.84,0.93,0.72,-3.40,-3.42,-3.46
48.49,-4.30,-0.84,-4.30,-0.84,0.86,0.96,0.76,-3.45,-3.45,-3.46
48.97,-4.38,-0.93,-4.37,-0.91,0.86,0.99,0.80,-3.52,-3.51,-3.46
49.46,-4.40,-0.95,-4.42,-0.96,0.87,1.02,0.84,-3.54,-3.55,-3.45
49.96,-4.43,-0.99,-4.39,-0.95,0.87,1.05,0.88,-3.57,-3.53,-3.44
50.46,-4.33,-0.89,-4.33,-0.89,0.87,1.08,0.92,-3.46,-3.46,-3.44
50.96,-4.22,-0.80,-4.26,-0.83,0.88,1.10,0.95,-3.34,-3.38,-3.43
51.47,-4.22,-0.80,-4.22,-0.79,0.90,1.13,0.99,-3.33,-3.32,-3.43
51.99,-4.23,-0.81,-4.25,-0.83,0.92,1.15,1.03,-3.31,-3.33,-3.42
52.51,-4.33,-0.91,-4.33,-0.91,0.95,1.17,1.07,-3.38,-3.39,-3.42
53.03,-4.44,-1.02,-4.44,-1.02,0.99,1.19,1.10,-3.46,-3.45,-3.42
53.56,-4.53,-1.11,-4.53,-1.11,1.04,1.20,1.14,-3.50,-3.49,-3.42
54.10,-4.59,-1.18,-4.56,-1.15,1.09,1.21,1.17,-3.50,-3.47,-3.41
54.64,-4.56,-1.15,-4.58,-1.17,1.14,1.22,1.20,-3.43,-3.44,-3.41
55.18,-4.56,-1.15,-4.59,-1.17,1.18,1.23,1.23,-3.39,-3.41,-3.41
55.74,-4.61,-1.19,-4.60,-1.18,1.20,1.23,1.26,-3.41,-3.40,-3.42
56.29,-4.63,-1.21,-4.62,-1.20,1.22,1.23,1.29,-3.41,-3.40,-3.42
56.86,-4.63,-1.21,-4.64,-1.21,1.24,1.22,1.31,-3.40,-3.40,-3.42
57.42,-4.65,-1.22,-4.65,-1.22,1.25,1.22,1.34,-3.41,-3.41,-3.44
58.00,-4.67,-1.22,-4.70,-1.26,1.26,1.20,1.36,-3.42,-3.45,-3.45
58.58,-4.76,-1.30,-4.75,-1.29,1.26,1.19,1.37,-3.50,-3.49,-3.46
59.16,-4.81,-1.34,-4.77,-1.30,1.26,1.17,1.39,-3.55,-3.51,-3.48
59.76,-4.75,-1.26,-4.77,-1.28,1.25,1.16,1.40,-3.51,-3.52,-3.49
60.35,-4.73,-1.22,-4.75,-1.24,1.23,1.13,1.41,-3.50,-3.52,-3.51
60.96,-4.73,-1.20,-4.73,-1.19,1.20,1.11,1.41,-3.53,-3.52,-3.54
61.57,-4.73,-1.17,-4.73,-1.16,1.18,1.09,1.41,-3.56,-3.55,-3.56
62.18,-4.73,-1.14,-4.73,-1.13,1.15,1.06,1.41,-3.58,-3.58,-3.60
62.80,-4.73,-1.10,-4.74,-1.10,1.13,1.03,1.41,-3.61,-3.61,-3.63
63.43,-4.76,-1.08,-4.77,-1.09,1.11,1.00,1.40,-3.65,-3.66,-3.68
64.07,-4.80,-1.09,-4.81,-1.09,1.10,0.97,1.39,-3.71,-3.71,-3.72
64.71,-4.86,-1.10,-4.86,-1.10,1.09,0.94,1.37,-3.78,-3.77,-3.76
65.35,-4.90,-1.10,-4.90,-1.10,1.08,0.91,1.36,-3.83,-3.82,-3.80
66.01,-4.93,-1.09,-4.93,-1.09,1.06,0.88,1.34,-3.87,-3.87,-3.84
66.67,-4.93,-1.05,-4.94,-1.06,1.04,0.84,1.31,-3.89,-3.89,-3.88
67.33,-4.93,-1.02,-4.94,-1.02,1.02,0.81,1.29,-3.91,-3.92,-3.91
68.01,-4.93,-0.98,-4.93,-0.99,0.99,0.78,1.26,-3.95,-3.95,-3.95
68.69,-4.93,-0.95,-4.93,-0.95,0.95,0.75,1.22,-3.98,-3.98,-3.98
69.37,-4.93,-0.92,-4.93,-0.92,0.92,0.72,1.19,-4.01,-4.01,-4.01
70.07,-4.93,-0.89,-4.93,-0.89,0.90,0.69,1.15,-4.04,-4.04,-4.04
70.77,-4.93,-0.86,-4.93,-0.86,0.88,0.66,1.11,-4.05,-4.05,-4.08
71.48,-4.93,-0.83,-4.93,-0.82,0.87,0.63,1.07,-4.07,-4.06,-4.10
72.19,-4.94,-0.81,-4.96,-0.82,0.85,0.60,1.03,-4.09,-4.10,-4.13
72.91,-4.98,-0.82,-5.02,-0.85,0.84,0.57,0.99,-4.14,-4.18,-4.17
73.64,-5.10,-0.90,-5.06,-0.86,0.82,0.54,0.94,-4.28,-4.24,-4.20
74.38,-5.12,-0.89,-5.08,-0.85,0.79,0.51,0.90,-4.33,-4.29,-4.24
75.12,-5.03,-0.76,-5.07,-0.80,0.76,0.49,0.85,-4.27,-4.31,-4.27
75.87,-5.03,-0.71,-5.04,-0.72,0.72,0.46,0.80,-4.31,-4.31,-4.32
76.63,-5.03,-0.68,-5.02,-0.67,0.69,0.43,0.76,-4.34,-4.34,-4.36
77.40,-5.03,-0.63,-5.03,-0.63,0.66,0.41,0.71,-4.38,-4.38,-4.40
78.17,-5.03,-0.59,-5.02,-0.57,0.62,0.38,0.66,-4.41,-4.40,-4.44
78.95,-5.03,-0.54,-5.03,-0.54,0.59,0.36,0.61,-4.44,-4.44,-4.49
79.74,-5.03,-0.50,-5.09,-0.56,0.56,0.34,0.56,-4.47,-4.53,-4.53
80.54,-5.17,-0.59,-5.15,-0.57,0.54,0.32,0.51,-4.64,-4.61,-4.58
81.35,-5.25,-0.63,-5.19,-0.57,0.51,0.29,0.46,-4.74,-4.67,-4.62
82.16,-5.16,-0.50,-5.19,-0.53,0.48,0.27,0.41,-4.68,-4.71,-4.66
82.98,-5.13,-0.43,-5.16,-0.45,0.45,0.25,0.35,-4.68,-4.70,-4.71
83.81,-5.13,-0.39,-5.13,-0.38,0.41,0.23,0.30,-4.72,-4.71,-4.75
84.65,-5.13,-0.35,-5.13,-0.35,0.37,0.21,0.25,-4.77,-4.76,-4.78
85.50,-5.13,-0.31,-5.13,-0.31,0.32,0.19,0.20,-4.82,-4.82,-4.82
86.35,-5.13,-0.27,-5.13,-0.27,0.27,0.17,0.15,-4.87,-4.87,-4.87
87.22,-5.13,-0.22,-5.13,-0.22,0.22,0.15,0.10,-4.92,-4.92,-4.91
88.09,-5.13,-0.18,-5.13,-0.18,0.18,0.13,0.05,-4.96,-4.96,-4.96
88.97,-5.13,-0.14,-5.13,-0.14,0.13,0.12,0.00,-5.00,-5.00,-4.99
89.86,-5.13,-0.09,-5.13,-0.09,0.09,0.10,-0.05,-5.04,-5.04,-5.04
90.76,-5.13,-0.05,-5.13,-0.05,0.05,0.08,-0.10,-5.08,-5.08,-5.08
91.66,-5.13,-0.01,-5.13,-0.01,0.02,0.06,-0.15,-5.12,-5.11,-5.12
92.58,-5.12,0.03,-5.13,0.04,-0.02,0.04,-0.20,-5.14,-5.15,-5.16
93.51,-5.12,0.08,-5.12,0.08,-0.07,0.03,-0.25,-5.19,-5.19,-5.21
94.44,-5.12,0.12,-5.13,0.12,-0.12,0.01,-0.30,-5.24,-5.24,-5.24
95.39,-5.13,0.15,-5.14,0.15,-0.17,-0.01,-0.35,-5.31,-5.31,-5.28
96.34,-5.13,0.19,-5.15,0.17,-0.23,-0.02,-0.40,-5.36,-5.38,-5.32
97.30,-5.13,0.22,-5.10,0.26,-0.29,-0.04,-0.45,-5.42,-5.39,-5.36
98.28,-5.07,0.33,-5.02,0.39,-0.35,-0.06,-0.50,-5.43,-5.37,-5.41
99.26,-4.88,0.56,-4.98,0.46,-0.42,-0.07,-0.55,-5.30,-5.40,-5.45
100.25,-4.94,0.54,-4.99,0.49,-0.47,-0.09,-0.60,-5.42,-5.46,-5.48
101.25,-5.10,0.42,-5.01,0.51,-0.52,-0.11,-0.64,-5.62,-5.53,-5.52
102.27,-5.07,0.50,-5.01,0.56,-0.55,-0.13,-0.69,-5.62,-5.56,-5.57
103.29,-4.93,0.69,-5.00,0.62,-0.58,-0.14,-0.74,-5.52,-5.58,-5.62
104.32,-4.92,0.75,-5.03,0.64,-0.61,-0.16,-0.79,-5.54,-5.65,-5.67
105.37,-5.18,0.53,-5.09,0.62,-0.65,-0.18,-0.83,-5.83,-5.75,-5.71
106.42,-5.22,0.54,-5.15,0.62,-0.70,-0.20,-0.88,-5.92,-5.85,-5.76
107.48,-5.08,0.73,-5.14,0.67,-0.76,-0.21,-0.92,-5.84,-5.90,-5.81
108.56,-5.03,0.83,-5.08,0.78,-0.81,-0.23,-0.96,-5.85,-5.89,-5.86
109.64,-5.05,0.85,-5.01,0.89,-0.85,-0.25,-1.01,-5.90,-5.86,-5.91
110.74,-5.03,0.91,-4.99,0.96,-0.87,-0.27,-1.05,-5.90,-5.86,-5.95
111.85,-4.93,1.05,-5.01,0.97,-0.87,-0.29,-1.09,-5.81,-5.89,-5.99
112.97,-5.05,0.97,-5.05,0.97,-0.88,-0.31,-1.12,-5.93,-5.93,-6.02
114.10,-5.21,0.85,-5.15,0.91,-0.88,-0.33,-1.16,-6.09,-6.04,-6.06
115.24,-5.24,0.85,-5.31,0.79,-0.89,-0.35,-1.19,-6.13,-6.20,-6.09
116.39,-5.41,0.72,-5.41,0.71,-0.88,-0.37,-1.23,-6.29,-6.29,-6.13
117.55,-5.49,0.65,-5.41,0.74,-0.86,-0.40,-1.26,-6.35,-6.27,-6.15
118.73,-5.37,0.80,-5.34,0.84,-0.83,-0.42,-1.28,-6.20,-6.17,-6.17
119.92,-5.16,1.03,-5.22,0.97,-0.81,-0.44,-1.31,-5.97,-6.03,-6.19
121.12,-5.13,1.08,-5.20,1.01,-0.81,-0.47,-1.33,-5.94,-6.01,-6.21
122.33,-5.31,0.91,-5.33,0.90,-0.84,-0.49,-1.35,-6.15,-6.16,-6.22
123.55,-5.53,0.71,-5.49,0.75,-0.87,-0.52,-1.37,-6.40,-6.36,-6.24
124.79,-5.62,0.63,-5.56,0.70,-0.89,-0.55,-1.39,-6.52,-6.45,-6.26
126.03,-5.48,0.79,-5.48,0.79,-0.91,-0.57,-1.40,-6.40,-6.40,-6.27
127.29,-5.30,0.98,-5.32,0.97,-0.93,-0.60,-1.41,-6.24,-6.25,-6.29
128.57,-5.17,1.13,-5.21,1.09,-0.97,-0.63,-1.42,-6.14,-6.18,-6.30
129.85,-5.14,1.17,-5.21,1.10,-1.01,-0.66,-1.43,-6.15,-6.22,-6.31
131.15,-5.33,0.99,-5.27,1.05,-1.05,-0.70,-1.43,-6.38,-6.32,-6.33
132.46,-5.33,1.02,-5.25,1.09,-1.08,-0.73,-1.44,-6.42,-6.34,-6.35
133.79,-5.24,1.12,-5.22,1.14,-1.11,-0.76,-1.44,-6.35,-6.33,-6.36
135.12,-5.03,1.35,-5.23,1.15,-1.13,-0.80,-1.43,-6.17,-6.36,-6.38
136.48,-5.31,1.08,-5.26,1.13,-1.17,-0.84,-1.43,-6.48,-6.43,-6.39
137.84,-5.43,0.98,-5.31,1.11,-1.22,-0.88,-1.43,-6.65,-6.53,-6.41
139.22,-5.23,1.20,-5.28,1.15,-1.29,-0.92,-1.42,-6.53,-6.57,-6.43
140.61,-5.11,1.34,-5.09,1.36,-1.37,-0.96,-1.41,-6.49,-6.46,-6.45
142.02,-4.89,1.58,-4.93,1.54,-1.45,-1.00,-1.40,-6.34,-6.38,-6.47
143.44,-4.82,1.68,-4.89,1.61,-1.53,-1.05,-1.39,-6.35,-6.42,-6.50
144.87,-4.92,1.60,-4.87,1.65,-1.59,-1.09,-1.38,-6.51,-6.47,-6.53
146.32,-4.96,1.59,-4.89,1.67,-1.64,-1.14,-1.37,-6.61,-6.53,-6.55
147.78,-4.85,1.74,-4.92,1.66,-1.67,-1.19,-1.36,-6.53,-6.60,-6.59
149.26,-4.91,1.71,-4.96,1.67,-1.67,-1.24,-1.35,-6.59,-6.63,-6.62
150.75,-5.08,1.59,-5.01,1.66,-1.64,-1.29,-1.33,-6.72,-6.65,-6.67
152.26,-5.11,1.61,-5.10,1.63,-1.61,-1.35,-1.32,-6.73,-6.71,-6.72
153.78,-5.11,1.66,-5.21,1.57,-1.60,-1.40,-1.31,-6.71,-6.81,-6.78
155.32,-5.29,1.55,-5.27,1.57,-1.60,-1.45,-1.30,-6.89,-6.87,-6.84
156.88,-5.42,1.47,-5.30,1.59,-1.62,-1.51,-1.28,-7.04,-6.92,-6.89
158.44,-5.27,1.68,-5.38,1.57,-1.65,-1.56,-1.27,-6.92,-7.03,-6.96
160.03,-5.30,1.70,-5.39,1.62,-1.68,-1.62,-1.26,-6.98,-7.07,-7.01
161.63,-5.50,1.54,-5.29,1.76,-1.71,-1.67,-1.25,-7.22,-7.00,-7.05
163.24,-5.25,1.85,-5.28,1.82,-1.75,-1.72,-1.24,-7.01,-7.03,-7.10
164.88,-5.03,2.09,-5.28,1.85,-1.79,-1.77,-1.23,-6.83,-7.07,-7.13
166.53,-5.44,1.71,-5.28,1.88,-1.82,-1.81,-1.22,-7.27,-7.10,-7.16
168.19,-5.42,1.75,-5.36,1.82,-1.84,-1.86,-1.22,-7.26,-7.20,-7.18
169.87,-5.33,1.85,-5.41,1.78,-1.84,-1.90,-1.21,-7.18,-7.25,-7.18
171.57,-5.34,1.85,-5.35,1.84,-1.83,-1.93,-1.20,-7.18,-7.18,-7.19
173.29,-5.35,1.84,-5.34,1.85,-1.82,-1.96,-1.20,-7.17,-7.16,-7.19
175.02,-5.35,1.82,-5.35,1.82,-1.82,-1.98,-1.19,-7.17,-7.17,-7.18
176.77,-5.35,1.81,-5.36,1.81,-1.83,-2.00,-1.19,-7.18,-7.18,-7.16
178.54,-5.35,1.79,-5.37,1.78,-1.82,-2.02,-1.19,-7.18,-7.19,-7.15
180.32,-5.35,1.77,-5.34,1.78,-1.82,-2.02,-1.18,-7.17,-7.16,-7.12
182.13,-5.33,1.77,-5.25,1.85,-1.80,-2.02,-1.18,-7.14,-7.06,-7.11
183.95,-5.15,1.93,-5.21,1.88,-1.79,-2.02,-1.18,-6.94,-7.00,-7.08
185.79,-5.10,1.97,-5.22,1.86,-1.80,-2.01,-1.18,-6.90,-7.01,-7.07
187.65,-5.36,1.71,-5.29,1.78,-1.81,-1.99,-1.18,-7.17,-7.10,-7.07
189.52,-5.39,1.67,-5.37,1.70,-1.82,-1.97,-1.19,-7.21,-7.19,-7.06
191.42,-5.38,1.68,-5.33,1.73,-1.83,-1.95,-1.19,-7.21,-7.16,-7.06
193.33,-5.19,1.86,-5.21,1.85,-1.83,-1.92,-1.19,-7.02,-7.04,-7.06
195.27,-5.04,2.01,-5.14,1.92,-1.84,-1.89,-1.20,-6.88,-6.98,-7.06
197.22,-5.15,1.92,-5.13,1.93,-1.86,-1.85,-1.21,-7.01,-6.99,-7.07
199.19,-5.23,1.84,-5.18,1.89,-1.89,-1.81,-1.21,-7.12,-7.07,-7.07
201.18,-5.22,1.86,-5.23,1.85,-1.90,-1.78,-1.22,-7.13,-7.13,-7.08
203.19,-5.21,1.88,-5.22,1.86,-1.90,-1.74,-1.23,-7.11,-7.12,-7.09
205.23,-5.21,1.89,-5.21,1.89,-1.86,-1.70,-1.23,-7.07,-7.06,-7.10
207.28,-5.21,1.90,-5.19,1.92,-1.82,-1.66,-1.24,-7.04,-7.01,-7.11
209.35,-5.21,1.91,-5.25,1.87,-1.81,-1.62,-1.25,-7.02,-7.06,-7.12
211.44,-5.28,1.85,-5.37,1.77,-1.81,-1.58,-1.26,-7.10,-7.18,-7.14
213.56,-5.55,1.59,-5.45,1.70,-1.83,-1.54,-1.27,-7.39,-7.28,-7.15
215.69,-5.52,1.64,-5.49,1.68,-1.85,-1.51,-1.28,-7.37,-7.33,-7.16
217.85,-5.34,1.83,-5.38,1.80,-1.85,-1.47,-1.29,-7.19,-7.23,-7.17
220.03,-5.28,1.91,-5.21,1.97,-1.85,-1.44,-1.30,-7.13,-7.06,-7.19
222.23,-5.05,2.14,-5.23,1.97,-1.83,-1.40,-1.31,-6.88,-7.06,-7.20
224.45,-5.27,1.93,-5.27,1.94,-1.82,-1.37,-1.32,-7.09,-7.09,-7.20
226.70,-5.58,1.63,-5.37,1.84,-1.78,-1.34,-1.33,-7.37,-7.15,-7.21
228.96,-5.34,1.87,-5.53,1.68,-1.73,-1.32,-1.34,-7.07,-7.26,-7.22
231.25,-5.62,1.59,-5.59,1.63,-1.67,-1.29,-1.35,-7.30,-7.27,-7.21
233.57,-5.73,1.49,-5.66,1.55,-1.62,-1.27,-1.36,-7.35,-7.28,-7.22
235.90,-5.66,1.55,-5.72,1.49,-1.57,-1.24,-1.37,-7.24,-7.30,-7.22
238.26,-5.78,1.43,-5.68,1.53,-1.57,-1.22,-1.38,-7.35,-7.25,-7.21
240.64,-5.55,1.64,-5.72,1.48,-1.58,-1.20,-1.39,-7.13,-7.30,-7.20
243.05,-5.69,1.50,-5.62,1.57,-1.59,-1.18,-1.40,-7.28,-7.21,-7.19
245.48,-5.72,1.47,-5.46,1.72,-1.61,-1.17,-1.40,-7.33,-7.07,-7.19
247.93,-5.15,2.03,-5.50,1.69,-1.61,-1.15,-1.41,-6.77,-7.11,-7.18
250.41,-5.44,1.73,-5.52,1.66,-1.60,-1.14,-1.42,-7.04,-7.12,-7.18
252.92,-5.90,1.27,-5.57,1.61,-1.55,-1.13,-1.42,-7.46,-7.12,-7.17
255.45,-5.66,1.51,-5.75,1.43,-1.47,-1.12,-1.43,-7.13,-7.21,-7.18
258.00,-5.64,1.54,-5.82,1.36,-1.36,-1.11,-1.43,-7.00,-7.17,-7.18
260.58,-5.97,1.21,-5.86,1.33,-1.24,-1.10,-1.43,-7.21,-7.10,-7.19
263.19,-6.08,1.11,-6.06,1.13,-1.13,-1.09,-1.44,-7.21,-7.19,-7.19
265.82,-6.13,1.06,-6.22,0.98,-1.07,-1.08,-1.44,-7.20,-7.28,-7.19
268.48,-6.36,0.83,-6.31,0.89,-1.02,-1.08,-1.44,-7.38,-7.33,-7.20
271.16,-6.35,0.85,-6.38,0.82,-0.96,-1.07,-1.44,-7.31,-7.34,-7.20
273.87,-6.38,0.82,-6.29,0.92,-0.93,-1.07,-1.44,-7.31,-7.21,-7.20
276.61,-6.19,1.01,-6.17,1.04,-0.91,-1.07,-1.44,-7.10,-7.08,-7.21
279.38,-5.92,1.29,-6.15,1.06,-0.92,-1.06,-1.44,-6.84,-7.06,-7.21
282.17,-6.25,0.95,-6.15,1.06,-0.96,-1.06,-1.45,-7.21,-7.10,-7.20
284.99,-6.36,0.83,-6.35,0.85,-0.99,-1.06,-1.45,-7.35,-7.34,-7.20
287.84,-6.31,0.89,-6.42,0.78,-0.98,-1.06,-1.45,-7.29,-7.40,-7.20
290.72,-6.57,0.62,-6.18,1.01,-0.96,-1.06,-1.45,-7.53,-7.14,-7.19
293.63,-5.85,1.33,-6.10,1.08,-0.95,-1.06,-1.45,-6.80,-7.05,-7.18
296.57,-5.76,1.41,-6.12,1.06,-0.96,-1.06,-1.45,-6.73,-7.08,-7.18
299.53,-6.55,0.63,-6.15,1.02,-1.00,-1.06,-1.45,-7.56,-7.16,-7.18
302.53,-6.34,0.83,-6.33,0.85,-1.05,-1.06,-1.46,-7.39,-7.37,-7.17
305.55,-6.19,0.98,-6.35,0.82,-1.07,-1.06,-1.46,-7.26,-7.42,-7.17
308.61,-6.17,1.00,-6.09,1.09,-1.04,-1.06,-1.46,-7.21,-7.12,-7.18
311.69,-6.07,1.11,-5.93,1.25,-0.97,-1.06,-1.47,-7.04,-6.90,-7.18
314.81,-5.73,1.46,-5.99,1.19,-0.92,-1.06,-1.47,-6.65,-6.91,-7.19
317.96,-6.05,1.14,-6.21,0.99,-0.89,-1.06,-1.48,-6.94,-7.10,-7.19
321.14,-6.74,0.46,-6.44,0.76,-0.89,-1.06,-1.49,-7.64,-7.33,-7.20
324.35,-6.69,0.51,-6.61,0.60,-0.92,-1.05,-1.49,-7.61,-7.53,-7.21
327.59,-6.40,0.81,-6.58,0.64,-0.92,-1.04,-1.50,-7.33,-7.50,-7.22
330.87,-6.36,0.87,-6.39,0.84,-0.91,-1.03,-1.51,-7.27,-7.30,-7.23
334.18,-6.36,0.88,-6.21,1.03,-0.91,-1.02,-1.52,-7.27,-7.12,-7.24
337.52,-6.08,1.17,-6.07,1.18,-0.93,-1.00,-1.53,-7.01,-7.00,-7.25
340.90,-5.89,1.36,-6.07,1.19,-0.96,-0.98,-1.55,-6.85,-7.03,-7.25
344.30,-6.11,1.15,-6.23,1.04,-0.97,-0.95,-1.56,-7.09,-7.20,-7.26
347.75,-6.64,0.64,-6.42,0.86,-0.94,-0.91,-1.57,-7.58,-7.36,-7.29
351.23,-6.66,0.63,-6.53,0.76,-0.87,-0.87,-1.59,-7.53,-7.40,-7.30
354.74,-6.38,0.92,-6.56,0.75,-0.79,-0.83,-1.61,-7.18,-7.36,-7.31
358.28,-6.47,0.85,-6.62,0.70,-0.72,-0.79,-1.62,-7.20,-7.34,-7.32
361.87,-6.80,0.53,-6.66,0.67,-0.67,-0.76,-1.64,-7.48,-7.34,-7.33
365.49,-6.91,0.44,-6.72,0.63,-0.67,-0.74,-1.66,-7.59,-7.39,-7.35
369.14,-6.46,0.90,-6.75,0.61,-0.70,-0.74,-1.69,-7.16,-7.44,-7.36
372.83,-6.64,0.73,-6.61,0.76,-0.72,-0.77,-1.71,-7.36,-7.33,-7.37
376.56,-6.76,0.62,-6.52,0.86,-0.76,-0.83,-1.73,-7.52,-7.28,-7.38
380.33,-6.30,1.09,-6.59,0.81,-0.81,-0.90,-1.76,-7.11,-7.40,-7.40
384.13,-6.54,0.86,-6.49,0.91,-0.89,-0.98,-1.78,-7.44,-7.39,-7.41
387.97,-6.62,0.79,-6.42,1.00,-1.00,-1.07,-1.81,-7.62,-7.42,-7.42
391.85,-6.25,1.17,-6.50,0.92,-1.09,-1.16,-1.84,-7.34,-7.59,-7.43
395.77,-6.38,1.06,-6.37,1.07,-1.16,-1.25,-1.87,-7.54,-7.52,-7.44
399.73,-6.44,1.01,-6.11,1.34,-1.22,-1.33,-1.90,-7.67,-7.34,-7.45
403.72,-5.79,1.67,-6.00,1.47,-1.32,-1.40,-1.93,-7.11,-7.32,-7.46
407.76,-5.66,1.82,-5.93,1.55,-1.44,-1.47,-1.96,-7.11,-7.37,-7.48
411.84,-6.14,1.35,-5.95,1.54,-1.55,-1.54,-1.99,-7.69,-7.50,-7.49
415.96,-6.17,1.33,-6.08,1.42,-1.65,-1.60,-2.03,-7.82,-7.72,-7.50
420.12,-5.92,1.58,-5.93,1.58,-1.74,-1.66,-2.06,-7.66,-7.67,-7.50
424.32,-5.65,1.86,-5.57,1.94,-1.83,-1.71,-2.10,-7.48,-7.40,-7.51
428.56,-5.18,2.33,-5.42,2.09,-1.92,-1.77,-2.13,-7.10,-7.34,-7.51
