frequency,raw,error,smoothed,error_smoothed,equalization,parametric_eq,fixed_band_eq,equalized_raw,equalized_smoothed,target
20.00,16.16,7.32,16.16,7.32,-7.32,-7.45,-3.96,8.84,8.84,8.84
20.20,16.23,7.39,16.24,7.40,-7.40,-7.49,-4.07,8.83,8.84,8.84
20.40,16.30,7.47,16.31,7.48,-7.48,-7.54,-4.18,8.83,8.83,8.83
20.61,16.38,7.55,16.38,7.55,-7.55,-7.58,-4.29,8.83,8.83,8.83
20.81,16.44,7.62,16.45,7.62,-7.62,-7.62,-4.40,8.82,8.82,8.82
21.02,16.51,7.69,16.51,7.69,-7.69,-7.67,-4.53,8.82,8.82,8.82
21.23,16.56,7.76,16.57,7.76,-7.76,-7.71,-4.65,8.81,8.81,8.81
21.44,16.62,7.82,16.62,7.82,-7.82,-7.76,-4.77,8.80,8.80,8.81
21.66,16.67,7.88,16.68,7.88,-7.88,-7.80,-4.90,8.79,8.80,8.80
21.87,16.73,7.94,16.73,7.94,-7.94,-7.85,-5.04,8.80,8.80,8.80
22.09,16.78,8.00,16.78,7.99,-7.99,-7.89,-5.17,8.79,8.79,8.79
22.31,16.83,8.05,16.83,8.05,-8.05,-7.94,-5.31,8.79,8.79,8.79
22.54,16.87,8.09,16.88,8.09,-8.10,-7.98,-5.46,8.77,8.78,8.78
22.76,16.92,8.15,16.92,8.14,-8.15,-8.03,-5.61,8.77,8.77,8.77
22.99,16.96,8.19,16.97,8.20,-8.20,-8.07,-5.76,8.76,8.77,8.77
23.22,17.01,8.25,17.01,8.24,-8.25,-8.12,-5.91,8.77,8.76,8.76
23.45,17.05,8.29,17.05,8.29,-8.29,-8.16,-6.07,8.76,8.76,8.76
23.69,17.09,8.33,17.09,8.34,-8.33,-8.20,-6.24,8.76,8.76,8.76
23.92,17.13,8.38,17.13,8.38,-8.37,-8.25,-6.40,8.76,8.76,8.75
24.16,17.16,8.41,17.16,8.41,-8.41,-8.29,-6.57,8.75,8.75,8.75
24.40,17.19,8.45,17.19,8.45,-8.45,-8.33,-6.74,8.75,8.75,8.75
24.65,17.22,8.48,17.22,8.48,-8.48,-8.37,-6.92,8.74,8.74,8.75
24.89,17.24,8.51,17.25,8.51,-8.51,-8.41,-7.10,8.73,8.74,8.74
25.14,17.27,8.54,17.27,8.54,-8.54,-8.45,-7.28,8.74,8.74,8.74
25.39,17.29,8.56,17.30,8.56,-8.56,-8.48,-7.47,8.73,8.73,8.73
25.65,17.32,8.59,17.32,8.59,-8.59,-8.52,-7.65,8.74,8.73,8.73
25.91,17.34,8.61,17.34,8.61,-8.61,-8.55,-7.84,8.73,8.73,8.73
26.16,17.36,8.63,17.36,8.63,-8.63,-8.58,-8.03,8.73,8.73,8.73
26.43,17.37,8.64,17.38,8.65,-8.65,-8.62,-8.22,8.72,8.73,8.73
26.69,17.39,8.67,17.39,8.67,-8.67,-8.64,-8.41,8.73,8.72,8.72
26.96,17.40,8.69,17.40,8.68,-8.68,-8.67,-8.59,8.72,8.72,8.72
27.23,17.41,8.70,17.41,8.70,-8.69,-8.69,-8.78,8.72,8.72,8.72
27.50,17.41,8.70,17.42,8.70,-8.70,-8.71,-8.96,8.71,8.71,8.72
27.77,17.42,8.71,17.42,8.71,-8.71,-8.73,-9.14,8.71,8.71,8.71
28.05,17.42,8.72,17.42,8.72,-8.72,-8.75,-9.31,8.70,8.70,8.70
28.33,17.42,8.72,17.42,8.72,-8.72,-8.76,-9.47,8.70,8.70,8.70
28.62,17.42,8.72,17.42,8.73,-8.72,-8.77,-9.63,8.70,8.70,8.70
28.90,17.41,8.73,17.41,8.72,-8.72,-8.77,-9.77,8.69,8.69,8.69
29.19,17.40,8.72,17.40,8.72,-8.72,-8.78,-9.91,8.68,8.68,8.69
29.48,17.39,8.71,17.39,8.71,-8.71,-8.78,-10.02,8.68,8.68,8.68
29.78,17.38,8.71,17.38,8.71,-8.70,-8.77,-10.13,8.68,8.68,8.67
30.08,17.36,8.69,17.36,8.69,-8.69,-8.77,-10.21,8.67,8.67,8.67
30.38,17.34,8.67,17.34,8.67,-8.67,-8.76,-10.29,8.67,8.67,8.67
30.68,17.31,8.65,17.32,8.65,-8.65,-8.74,-10.34,8.66,8.67,8.67
30.99,17.29,8.63,17.29,8.63,-8.63,-8.73,-10.37,8.67,8.67,8.66
31.30,17.26,8.60,17.26,8.60,-8.60,-8.71,-10.38,8.67,8.67,8.66
31.61,17.23,8.56,17.23,8.56,-8.57,-8.69,-10.38,8.67,8.67,8.67
31.93,17.19,8.53,17.20,8.53,-8.53,-8.66,-10.35,8.66,8.67,8.67
32.24,17.16,8.50,17.16,8.49,-8.50,-8.63,-10.31,8.67,8.66,8.67
32.57,17.12,8.46,17.12,8.46,-8.46,-8.60,-10.25,8.66,8.66,8.66
32.89,17.08,8.42,17.08,8.42,-8.42,-8.56,-10.17,8.66,8.66,8.66
33.22,17.04,8.39,17.04,8.38,-8.39,-8.52,-10.07,8.66,8.66,8.66
33.55,16.99,8.34,17.00,8.35,-8.35,-8.48,-9.97,8.65,8.65,8.65
33.89,16.96,8.31,16.96,8.31,-8.31,-8.44,-9.84,8.65,8.65,8.65
34.23,16.91,8.27,16.91,8.27,-8.27,-8.39,-9.71,8.64,8.64,8.64
34.57,16.86,8.23,16.86,8.23,-8.23,-8.34,-9.56,8.64,8.64,8.64
34.92,16.80,8.18,16.81,8.19,-8.18,-8.29,-9.41,8.62,8.62,8.62
35.27,16.75,8.14,16.75,8.14,-8.14,-8.23,-9.25,8.61,8.61,8.61
35.62,16.69,8.10,16.69,8.09,-8.09,-8.18,-9.09,8.60,8.60,8.60
35.97,16.63,8.04,16.63,8.05,-8.05,-8.12,-8.92,8.58,8.59,8.59
36.33,16.57,7.99,16.57,8.00,-8.00,-8.06,-8.75,8.57,8.57,8.58
36.70,16.50,7.95,16.51,7.95,-7.95,-7.99,-8.58,8.55,8.55,8.55
37.06,16.44,7.90,16.44,7.90,-7.90,-7.93,-8.41,8.54,8.54,8.54
37.43,16.37,7.85,16.38,7.85,-7.85,-7.86,-8.24,8.52,8.53,8.53
37.81,16.31,7.80,16.31,7.79,-7.79,-7.79,-8.06,8.52,8.51,8.51
38.19,16.23,7.74,16.24,7.74,-7.74,-7.73,-7.89,8.50,8.50,8.50
38.57,16.16,7.67,16.16,7.68,-7.68,-7.65,-7.72,8.49,8.49,8.49
38.95,16.09,7.61,16.09,7.61,-7.61,-7.58,-7.56,8.48,8.48,8.48
39.34,16.01,7.55,16.01,7.55,-7.54,-7.51,-7.39,8.47,8.47,8.46
39.74,15.93,7.48,15.93,7.48,-7.47,-7.44,-7.23,8.46,8.46,8.46
40.14,15.84,7.40,15.84,7.40,-7.40,-7.36,-7.07,8.44,8.44,8.44
40.54,15.75,7.32,15.76,7.32,-7.32,-7.28,-6.92,8.43,8.43,8.44
40.94,15.67,7.24,15.67,7.24,-7.25,-7.21,-6.77,8.43,8.43,8.43
41.35,15.59,7.17,15.59,7.17,-7.16,-7.13,-6.63,8.43,8.42,8.42
41.76,15.50,7.08,15.50,7.08,-7.08,-7.05,-6.48,8.42,8.42,8.42
42.18,15.41,7.00,15.41,7.00,-7.00,-6.97,-6.35,8.41,8.41,8.41
42.60,15.31,6.91,15.32,6.91,-6.91,-6.89,-6.21,8.40,8.40,8.41
43.03,15.22,6.82,15.22,6.82,-6.82,-6.81,-6.08,8.40,8.40,8.40
43.46,15.12,6.73,15.13,6.73,-6.73,-6.73,-5.96,8.39,8.39,8.39
43.90,15.03,6.65,15.03,6.64,-6.64,-6.65,-5.84,8.39,8.39,8.38
44.33,14.93,6.55,14.93,6.55,-6.55,-6.57,-5.72,8.38,8.38,8.39
44.78,14.83,6.46,14.83,6.46,-6.46,-6.48,-5.61,8.38,8.38,8.38
45.23,14.73,6.36,14.73,6.36,-6.36,-6.40,-5.50,8.37,8.37,8.37
45.68,14.63,6.26,14.63,6.27,-6.27,-6.32,-5.40,8.37,8.37,8.37
46.13,14.53,6.17,14.53,6.17,-6.17,-6.23,-5.30,8.36,8.36,8.36
46.60,14.42,6.07,14.43,6.07,-6.07,-6.15,-5.20,8.35,8.35,8.35
47.06,14.32,5.98,14.32,5.98,-5.98,-6.06,-5.11,8.34,8.34,8.34
47.53,14.21,5.88,14.22,5.88,-5.89,-5.97,-5.02,8.33,8.33,8.33
48.01,14.11,5.79,14.11,5.79,-5.79,-5.89,-4.93,8.32,8.32,8.32
48.49,14.00,5.70,14.00,5.70,-5.70,-5.80,-4.85,8.31,8.31,8.30
48.97,13.89,5.60,13.90,5.61,-5.60,-5.71,-4.77,8.29,8.29,8.29
49.46,13.79,5.51,13.79,5.51,-5.51,-5.62,-4.70,8.28,8.28,8.28
49.96,13.68,5.43,13.68,5.42,-5.42,-5.53,-4.62,8.27,8.26,8.26
50.46,13.56,5.32,13.57,5.32,-5.32,-5.44,-4.55,8.24,8.24,8.25
50.96,13.45,5.23,13.45,5.23,-5.23,-5.35,-4.49,8.22,8.22,8.22
51.47,13.34,5.13,13.34,5.14,-5.14,-5.26,-4.42,8.21,8.21,8.21
51.99,13.23,5.05,13.23,5.04,-5.04,-5.16,-4.36,8.19,8.19,8.19
52.51,13.12,4.95,13.12,4.95,-4.95,-5.07,-4.30,8.18,8.17,8.17
53.03,13.00,4.85,13.01,4.85,-4.85,-4.97,-4.24,8.15,8.16,8.16
53.56,12.89,4.76,12.89,4.76,-4.76,-4.88,-4.19,8.14,8.14,8.13
54.10,12.78,4.67,12.78,4.66,-4.66,-4.78,-4.13,8.13,8.12,8.12
54.64,12.66,4.56,12.67,4.57,-4.56,-4.69,-4.08,8.10,8.11,8.10
55.18,12.55,4.47,12.55,4.46,-4.46,-4.59,-4.03,8.09,8.09,8.09
55.74,12.43,4.36,12.44,4.36,-4.37,-4.49,-3.98,8.07,8.07,8.08
56.29,12.32,4.26,12.32,4.26,-4.27,-4.39,-3.93,8.05,8.06,8.06
56.86,12.21,4.17,12.21,4.17,-4.17,-4.29,-3.88,8.04,8.04,8.04
57.42,12.10,4.08,12.10,4.08,-4.07,-4.19,-3.84,8.03,8.03,8.02
58.00,11.99,3.99,11.99,3.98,-3.98,-4.09,-3.79,8.01,8.01,8.00
58.58,11.87,3.89,11.87,3.89,-3.89,-3.99,-3.74,7.99,7.99,7.98
59.16,11.75,3.79,11.76,3.79,-3.80,-3.88,-3.69,7.96,7.96,7.96
59.76,11.64,3.70,11.64,3.70,-3.71,-3.78,-3.65,7.94,7.94,7.94
60.35,11.53,3.61,11.53,3.62,-3.62,-3.68,-3.60,7.92,7.92,7.92
60.96,11.42,3.53,11.42,3.53,-3.53,-3.58,-3.55,7.90,7.89,7.89
61.57,11.31,3.45,11.31,3.44,-3.44,-3.47,-3.50,7.87,7.87,7.87
62.18,11.19,3.35,11.20,3.36,-3.36,-3.37,-3.45,7.83,7.84,7.84
62.80,11.08,3.27,11.08,3.27,-3.28,-3.27,-3.40,7.81,7.81,7.81
63.43,10.97,3.19,10.97,3.19,-3.19,-3.16,-3.35,7.78,7.78,7.78
64.07,10.86,3.12,10.86,3.11,-3.11,-3.06,-3.30,7.75,7.75,7.75
64.71,10.75,3.03,10.75,3.03,-3.03,-2.96,-3.25,7.72,7.72,7.72
65.35,10.64,2.95,10.64,2.95,-2.95,-2.86,-3.19,7.69,7.70,7.69
66.01,10.53,2.87,10.53,2.87,-2.87,-2.76,-3.14,7.67,7.67,7.66
66.67,10.42,2.79,10.42,2.79,-2.79,-2.67,-3.09,7.64,7.63,7.64
67.33,10.31,2.71,10.31,2.71,-2.71,-2.57,-3.03,7.60,7.60,7.61
68.01,10.20,2.63,10.21,2.63,-2.63,-2.48,-2.97,7.57,7.57,7.57
68.69,10.10,2.56,10.10,2.56,-2.56,-2.39,-2.92,7.54,7.54,7.54
69.37,9.99,2.48,10.00,2.48,-2.49,-2.30,-2.86,7.51,7.51,7.51
70.07,9.89,2.41,9.89,2.41,-2.42,-2.22,-2.81,7.48,7.48,7.48
70.77,9.79,2.35,9.79,2.35,-2.35,-2.14,-2.75,7.45,7.44,7.45
71.48,9.68,2.28,9.69,2.28,-2.28,-2.06,-2.69,7.41,7.41,7.40
72.19,9.58,2.22,9.58,2.22,-2.21,-1.99,-2.63,7.37,7.37,7.37
72.91,9.48,2.15,9.48,2.15,-2.15,-1.91,-2.58,7.34,7.33,7.33
73.64,9.37,2.08,9.38,2.08,-2.08,-1.85,-2.52,7.29,7.29,7.29
74.38,9.27,2.01,9.28,2.01,-2.02,-1.79,-2.47,7.25,7.26,7.26
75.12,9.18,1.96,9.18,1.95,-1.96,-1.73,-2.41,7.23,7.22,7.23
75.87,9.08,1.90,9.08,1.89,-1.90,-1.67,-2.36,7.19,7.19,7.19
76.63,8.98,1.84,8.99,1.84,-1.84,-1.62,-2.30,7.14,7.15,7.15
77.40,8.89,1.79,8.89,1.78,-1.78,-1.57,-2.25,7.11,7.10,7.11
78.17,8.79,1.73,8.79,1.73,-1.73,-1.53,-2.20,7.06,7.06,7.06
78.95,8.69,1.67,8.70,1.68,-1.68,-1.49,-2.15,7.01,7.02,7.02
79.74,8.61,1.63,8.61,1.63,-1.63,-1.46,-2.10,6.99,6.98,6.98
80.54,8.51,1.58,8.52,1.58,-1.58,-1.43,-2.05,6.93,6.94,6.93
81.35,8.43,1.53,8.43,1.53,-1.53,-1.40,-2.00,6.90,6.90,6.90
82.16,8.33,1.48,8.34,1.48,-1.48,-1.38,-1.95,6.85,6.85,6.85
82.98,8.24,1.44,8.25,1.44,-1.44,-1.36,-1.90,6.81,6.81,6.81
83.81,8.16,1.39,8.16,1.39,-1.39,-1.34,-1.86,6.77,6.76,6.77
84.65,8.07,1.35,8.07,1.35,-1.35,-1.32,-1.81,6.72,6.72,6.72
85.50,7.98,1.31,7.99,1.31,-1.31,-1.31,-1.77,6.67,6.68,6.67
86.35,7.90,1.27,7.90,1.27,-1.27,-1.30,-1.73,6.63,6.63,6.63
87.22,7.81,1.23,7.82,1.23,-1.23,-1.29,-1.69,6.58,6.58,6.58
88.09,7.73,1.20,7.73,1.20,-1.20,-1.28,-1.65,6.54,6.54,6.53
88.97,7.65,1.16,7.65,1.16,-1.16,-1.28,-1.61,6.49,6.49,6.49
89.86,7.57,1.13,7.57,1.13,-1.13,-1.27,-1.57,6.45,6.45,6.44
90.76,7.49,1.09,7.49,1.10,-1.10,-1.27,-1.54,6.40,6.40,6.40
91.66,7.41,1.07,7.41,1.07,-1.07,-1.26,-1.50,6.35,6.35,6.35
92.58,7.33,1.04,7.34,1.04,-1.04,-1.26,-1.47,6.30,6.30,6.29
93.51,7.26,1.01,7.26,1.01,-1.01,-1.26,-1.43,6.25,6.25,6.25
94.44,7.18,0.99,7.18,0.99,-0.99,-1.25,-1.40,6.20,6.20,6.20
95.39,7.10,0.96,7.11,0.96,-0.96,-1.25,-1.37,6.14,6.14,6.14
96.34,7.03,0.95,7.03,0.94,-0.95,-1.25,-1.34,6.09,6.09,6.09
97.30,6.95,0.92,6.96,0.93,-0.93,-1.24,-1.31,6.02,6.03,6.03
98.28,6.89,0.92,6.89,0.91,-0.91,-1.24,-1.28,5.98,5.97,5.98
99.26,6.81,0.90,6.82,0.90,-0.90,-1.23,-1.25,5.91,5.92,5.91
100.25,6.75,0.90,6.75,0.89,-0.89,-1.23,-1.22,5.86,5.86,5.86
101.25,6.67,0.87,6.68,0.88,-0.88,-1.22,-1.20,5.79,5.79,5.80
102.27,6.61,0.88,6.61,0.88,-0.88,-1.21,-1.17,5.74,5.74,5.73
103.29,6.54,0.87,6.54,0.87,-0.87,-1.21,-1.15,5.67,5.67,5.68
104.32,6.48,0.87,6.48,0.87,-0.86,-1.20,-1.12,5.62,5.62,5.61
105.37,6.41,0.86,6.42,0.86,-0.86,-1.19,-1.10,5.55,5.56,5.55
106.42,6.35,0.86,6.35,0.86,-0.86,-1.18,-1.08,5.50,5.50,5.50
107.48,6.29,0.85,6.29,0.85,-0.85,-1.17,-1.06,5.44,5.44,5.44
108.56,6.22,0.85,6.23,0.85,-0.85,-1.15,-1.03,5.37,5.38,5.38
109.64,6.16,0.84,6.16,0.84,-0.84,-1.14,-1.01,5.32,5.32,5.32
110.74,6.10,0.84,6.10,0.84,-0.84,-1.13,-0.99,5.26,5.26,5.26
111.85,6.04,0.85,6.04,0.84,-0.84,-1.11,-0.97,5.20,5.21,5.20
112.97,5.98,0.84,5.98,0.84,-0.84,-1.10,-0.95,5.14,5.14,5.14
114.10,5.92,0.85,5.92,0.84,-0.84,-1.08,-0.93,5.09,5.08,5.08
115.24,5.84,0.82,5.85,0.84,-0.84,-1.07,-0.92,5.00,5.01,5.02
116.39,5.79,0.85,5.79,0.84,-0.84,-1.05,-0.90,4.95,4.95,4.95
117.55,5.73,0.85,5.73,0.84,-0.85,-1.03,-0.88,4.89,4.88,4.88
118.73,5.67,0.85,5.67,0.85,-0.85,-1.01,-0.86,4.82,4.82,4.82
119.92,5.60,0.86,5.61,0.86,-0.86,-0.99,-0.84,4.74,4.74,4.75
121.12,5.54,0.87,5.55,0.87,-0.87,-0.97,-0.83,4.67,4.67,4.67
122.33,5.49,0.89,5.49,0.89,-0.89,-0.95,-0.81,4.60,4.60,4.60
123.55,5.43,0.90,5.43,0.90,-0.90,-0.93,-0.79,4.53,4.53,4.53
124.79,5.37,0.91,5.37,0.92,-0.92,-0.91,-0.78,4.45,4.45,4.46
126.03,5.31,0.93,5.31,0.93,-0.93,-0.89,-0.76,4.38,4.38,4.38
127.29,5.25,0.95,5.25,0.95,-0.94,-0.87,-0.75,4.31,4.31,4.31
128.57,5.20,0.96,5.20,0.96,-0.96,-0.85,-0.73,4.25,4.24,4.24
129.85,5.13,0.96,5.14,0.97,-0.96,-0.83,-0.71,4.17,4.18,4.17
131.15,5.08,0.97,5.08,0.97,-0.97,-0.81,-0.70,4.11,4.11,4.11
132.46,5.02,0.97,5.02,0.97,-0.97,-0.78,-0.68,4.05,4.05,4.05
133.79,4.96,0.97,4.97,0.97,-0.97,-0.76,-0.67,3.99,4.00,4.00
135.12,4.91,0.97,4.91,0.97,-0.97,-0.74,-0.65,3.95,3.94,3.94
136.48,4.85,0.96,4.86,0.96,-0.96,-0.72,-0.64,3.89,3.90,3.90
137.84,4.80,0.96,4.80,0.95,-0.95,-0.70,-0.62,3.85,3.85,3.84
139.22,4.74,0.94,4.74,0.94,-0.94,-0.68,-0.61,3.80,3.80,3.80
140.61,4.68,0.93,4.69,0.93,-0.93,-0.65,-0.60,3.75,3.76,3.76
142.02,4.63,0.92,4.63,0.91,-0.92,-0.63,-0.58,3.72,3.71,3.71
143.44,4.57,0.90,4.57,0.90,-0.90,-0.61,-0.57,3.67,3.67,3.67
144.87,4.51,0.88,4.52,0.88,-0.88,-0.59,-0.55,3.63,3.63,3.63
146.32,4.46,0.87,4.46,0.87,-0.87,-0.57,-0.54,3.60,3.60,3.59
147.78,4.41,0.85,4.41,0.85,-0.85,-0.55,-0.53,3.57,3.56,3.56
149.26,4.35,0.83,4.35,0.83,-0.83,-0.53,-0.51,3.52,3.52,3.53
150.75,4.29,0.80,4.30,0.81,-0.81,-0.51,-0.50,3.48,3.49,3.49
152.26,4.24,0.79,4.24,0.79,-0.79,-0.49,-0.49,3.45,3.45,3.45
153.78,4.19,0.78,4.19,0.77,-0.77,-0.47,-0.47,3.42,3.42,3.42
155.32,4.14,0.76,4.14,0.76,-0.75,-0.45,-0.46,3.39,3.39,3.38
156.88,4.08,0.73,4.09,0.74,-0.74,-0.43,-0.45,3.35,3.35,3.35
158.44,4.03,0.72,4.03,0.72,-0.72,-0.41,-0.44,3.32,3.32,3.32
160.03,3.98,0.70,3.98,0.69,-0.70,-0.39,-0.43,3.29,3.28,3.28
161.63,3.92,0.67,3.93,0.68,-0.68,-0.37,-0.41,3.25,3.25,3.25
163.24,3.87,0.65,3.88,0.66,-0.66,-0.36,-0.40,3.22,3.22,3.22
164.88,3.83,0.64,3.83,0.63,-0.63,-0.34,-0.39,3.20,3.19,3.19
166.53,3.78,0.61,3.78,0.61,-0.61,-0.32,-0.38,3.17,3.17,3.17
168.19,3.73,0.59,3.73,0.59,-0.59,-0.30,-0.37,3.14,3.14,3.14
169.87,3.68,0.57,3.68,0.56,-0.56,-0.29,-0.36,3.12,3.12,3.12
171.57,3.63,0.53,3.63,0.54,-0.54,-0.27,-0.35,3.09,3.10,3.10
173.29,3.59,0.52,3.59,0.51,-0.51,-0.26,-0.34,3.08,3.07,3.07
175.02,3.53,0.49,3.54,0.49,-0.49,-0.24,-0.33,3.05,3.05,3.05
176.77,3.49,0.46,3.49,0.46,-0.46,-0.22,-0.32,3.03,3.03,3.03
178.54,3.44,0.43,3.44,0.43,-0.43,-0.21,-0.31,3.01,3.01,3.01
180.32,3.40,0.41,3.40,0.41,-0.41,-0.20,-0.30,2.99,2.99,3.00
182.13,3.35,0.38,3.36,0.38,-0.38,-0.18,-0.29,2.97,2.97,2.97
183.95,3.31,0.36,3.31,0.36,-0.36,-0.17,-0.28,2.95,2.95,2.95
185.79,3.27,0.33,3.27,0.34,-0.34,-0.15,-0.27,2.94,2.94,2.94
187.65,3.23,0.31,3.23,0.31,-0.31,-0.14,-0.26,2.92,2.92,2.92
189.52,3.19,0.29,3.20,0.29,-0.29,-0.13,-0.26,2.90,2.90,2.90
191.42,3.16,0.27,3.16,0.27,-0.27,-0.12,-0.25,2.89,2.89,2.89
193.33,3.12,0.25,3.12,0.25,-0.25,-0.10,-0.24,2.87,2.87,2.87
195.27,3.08,0.23,3.09,0.23,-0.23,-0.09,-0.23,2.85,2.85,2.85
197.22,3.05,0.22,3.05,0.21,-0.22,-0.08,-0.22,2.84,2.84,2.83
199.19,3.02,0.20,3.02,0.20,-0.20,-0.07,-0.21,2.82,2.82,2.83
201.18,2.99,0.18,2.99,0.18,-0.18,-0.06,-0.21,2.81,2.81,2.81
203.19,2.96,0.17,2.96,0.17,-0.17,-0.05,-0.20,2.79,2.79,2.79
205.23,2.93,0.15,2.94,0.16,-0.16,-0.04,-0.19,2.78,2.78,2.78
207.28,2.91,0.15,2.91,0.15,-0.14,-0.03,-0.18,2.77,2.77,2.76
209.35,2.88,0.13,2.88,0.14,-0.13,-0.02,-0.18,2.75,2.75,2.75
211.44,2.86,0.13,2.86,0.12,-0.12,-0.01,-0.17,2.74,2.74,2.74
213.56,2.83,0.11,2.84,0.11,-0.11,0.00,-0.16,2.72,2.72,2.72
215.69,2.81,0.10,2.81,0.10,-0.11,0.01,-0.16,2.71,2.71,2.71
217.85,2.79,0.10,2.79,0.10,-0.10,0.02,-0.15,2.70,2.70,2.70
220.03,2.77,0.09,2.77,0.09,-0.09,0.03,-0.14,2.69,2.69,2.68
222.23,2.75,0.08,2.75,0.08,-0.08,0.03,-0.14,2.68,2.67,2.67
224.45,2.72,0.06,2.73,0.07,-0.07,0.04,-0.13,2.66,2.66,2.66
226.70,2.70,0.05,2.70,0.05,-0.06,0.05,-0.12,2.65,2.65,2.65
228.96,2.68,0.04,2.68,0.05,-0.05,0.06,-0.12,2.63,2.64,2.64
231.25,2.67,0.05,2.67,0.04,-0.04,0.07,-0.11,2.63,2.63,2.63
233.57,2.64,0.04,2.65,0.03,-0.03,0.07,-0.11,2.61,2.61,2.61
235.90,2.62,0.02,2.62,0.03,-0.03,0.08,-0.10,2.60,2.60,2.60
238.26,2.60,0.01,2.60,0.02,-0.02,0.09,-0.09,2.58,2.58,2.59
240.64,2.58,0.01,2.59,0.01,-0.01,0.09,-0.09,2.57,2.57,2.57
243.05,2.57,0.01,2.57,0.01,-0.00,0.10,-0.08,2.57,2.57,2.56
245.48,2.55,0.00,2.55,-0.00,0.00,0.11,-0.08,2.56,2.56,2.55
247.93,2.53,-0.01,2.53,-0.01,0.01,0.11,-0.07,2.55,2.55,2.54
250.41,2.51,-0.02,2.51,-0.02,0.02,0.12,-0.07,2.53,2.53,2.54
252.92,2.49,-0.03,2.49,-0.03,0.03,0.12,-0.06,2.52,2.52,2.52
255.45,2.47,-0.04,2.47,-0.04,0.03,0.13,-0.06,2.51,2.51,2.51
258.00,2.45,-0.05,2.46,-0.04,0.04,0.13,-0.05,2.49,2.50,2.50
260.58,2.44,-0.04,2.44,-0.05,0.05,0.14,-0.05,2.49,2.49,2.49
263.19,2.43,-0.05,2.43,-0.05,0.05,0.14,-0.04,2.49,2.48,2.48
265.82,2.41,-0.05,2.41,-0.05,0.06,0.15,-0.04,2.47,2.47,2.46
268.48,2.39,-0.07,2.40,-0.06,0.06,0.15,-0.03,2.46,2.46,2.46
271.16,2.38,-0.06,2.38,-0.07,0.07,0.16,-0.03,2.45,2.45,2.44
273.87,2.35,-0.08,2.36,-0.08,0.07,0.16,-0.02,2.43,2.43,2.44
276.61,2.34,-0.08,2.34,-0.08,0.08,0.16,-0.02,2.42,2.42,2.42
279.38,2.32,-0.09,2.32,-0.09,0.09,0.17,-0.01,2.41,2.41,2.42
282.17,2.31,-0.09,2.31,-0.09,0.09,0.17,-0.01,2.40,2.40,2.40
284.99,2.29,-0.09,2.29,-0.09,0.09,0.18,-0.00,2.39,2.39,2.39
287.84,2.27,-0.10,2.28,-0.10,0.10,0.18,0.00,2.37,2.37,2.37
290.72,2.26,-0.09,2.26,-0.10,0.10,0.18,0.01,2.36,2.36,2.36
293.63,2.24,-0.11,2.24,-0.10,0.10,0.18,0.01,2.35,2.35,2.35
296.57,2.23,-0.11,2.23,-0.11,0.11,0.19,0.02,2.34,2.34,2.34
299.53,2.21,-0.11,2.22,-0.11,0.11,0.19,0.02,2.33,2.33,2.32
302.53,2.20,-0.12,2.20,-0.12,0.12,0.19,0.02,2.32,2.32,2.32
305.55,2.18,-0.12,2.18,-0.13,0.13,0.19,0.03,2.31,2.31,2.31
308.61,2.16,-0.14,2.17,-0.14,0.13,0.19,0.03,2.30,2.30,2.30
311.69,2.15,-0.15,2.15,-0.14,0.14,0.20,0.04,2.30,2.29,2.30
314.81,2.14,-0.14,2.14,-0.15,0.15,0.20,0.04,2.29,2.29,2.29
317.96,2.12,-0.16,2.13,-0.16,0.16,0.20,0.05,2.28,2.28,2.28
321.14,2.11,-0.17,2.11,-0.17,0.17,0.20,0.05,2.28,2.28,2.28
324.35,2.09,-0.17,2.09,-0.18,0.17,0.20,0.05,2.27,2.27,2.27
327.59,2.08,-0.18,2.08,-0.18,0.18,0.20,0.06,2.26,2.26,2.26
330.87,2.06,-0.19,2.07,-0.19,0.19,0.20,0.06,2.25,2.25,2.25
334.18,2.06,-0.19,2.06,-0.19,0.19,0.20,0.07,2.26,2.25,2.25
337.52,2.04,-0.20,2.04,-0.20,0.20,0.19,0.07,2.24,2.24,2.25
340.90,2.03,-0.20,2.03,-0.21,0.20,0.19,0.07,2.24,2.24,2.23
344.30,2.01,-0.22,2.02,-0.21,0.21,0.19,0.08,2.22,2.23,2.23
347.75,2.00,-0.22,2.00,-0.21,0.22,0.19,0.08,2.22,2.22,2.22
351.23,1.99,-0.21,1.99,-0.22,0.22,0.19,0.09,2.21,2.21,2.21
354.74,1.97,-0.22,1.97,-0.22,0.22,0.19,0.09,2.20,2.20,2.19
358.28,1.95,-0.24,1.96,-0.23,0.23,0.18,0.09,2.18,2.19,2.19
361.87,1.95,-0.23,1.95,-0.23,0.23,0.18,0.10,2.18,2.18,2.18
365.49,1.93,-0.23,1.94,-0.23,0.23,0.18,0.10,2.16,2.17,2.17
369.14,1.92,-0.23,1.92,-0.23,0.23,0.17,0.11,2.16,2.16,2.16
372.83,1.91,-0.23,1.91,-0.23,0.24,0.17,0.11,2.15,2.15,2.14
376.56,1.89,-0.24,1.90,-0.24,0.24,0.17,0.12,2.13,2.13,2.13
380.33,1.88,-0.24,1.88,-0.24,0.24,0.16,0.12,2.12,2.12,2.12
384.13,1.86,-0.25,1.86,-0.24,0.24,0.16,0.13,2.11,2.11,2.11
387.97,1.85,-0.24,1.85,-0.25,0.25,0.16,0.13,2.10,2.10,2.10
391.85,1.83,-0.25,1.84,-0.25,0.25,0.16,0.14,2.08,2.09,2.09
395.77,1.82,-0.25,1.82,-0.25,0.25,0.15,0.14,2.08,2.08,2.07
399.73,1.81,-0.25,1.81,-0.26,0.26,0.15,0.15,2.07,2.07,2.06
403.72,1.79,-0.27,1.80,-0.26,0.26,0.15,0.15,2.06,2.06,2.06
407.76,1.78,-0.27,1.78,-0.27,0.27,0.15,0.16,2.05,2.05,2.05
411.84,1.76,-0.28,1.77,-0.27,0.27,0.15,0.16,2.04,2.04,2.04
415.96,1.75,-0.27,1.75,-0.28,0.28,0.16,0.17,2.03,2.03,2.03
420.12,1.73,-0.28,1.73,-0.28,0.28,0.16,0.18,2.02,2.02,2.02
424.32,1.71,-0.29,1.72,-0.29,0.29,0.17,0.19,2.00,2.01,2.01
428.56,1.70,-0.29,1.70,-0.29,0.29,0.18,0.19,2.00,1.99,1.99
432.85,1.69,-0.29,1.69,-0.30,0.30,0.18,0.20,1.99,1.98,1.98
437.18,1.66,-0.31,1.67,-0.30,0.30,0.20,0.21,1.96,1.97,1.97
441.55,1.65,-0.31,1.65,-0.31,0.31,0.21,0.22,1.96,1.96,1.96
445.96,1.63,-0.31,1.63,-0.31,0.31,0.23,0.23,1.94,1.94,1.94
450.42,1.61,-0.32,1.61,-0.32,0.32,0.24,0.25,1.93,1.93,1.93
454.93,1.59,-0.33,1.59,-0.32,0.32,0.26,0.26,1.91,1.91,1.92
459.48,1.57,-0.32,1.57,-0.33,0.33,0.28,0.27,1.90,1.90,1.90
464.07,1.55,-0.33,1.55,-0.33,0.33,0.31,0.29,1.89,1.89,1.89
468.71,1.53,-0.34,1.53,-0.34,0.34,0.33,0.30,1.88,1.88,1.88
473.40,1.51,-0.35,1.51,-0.35,0.35,0.36,0.32,1.87,1.86,1.87
478.13,1.48,-0.36,1.49,-0.36,0.36,0.39,0.34,1.85,1.85,1.84
482.91,1.46,-0.37,1.46,-0.37,0.38,0.42,0.36,1.84,1.84,1.83
487.74,1.43,-0.39,1.43,-0.39,0.39,0.45,0.38,1.82,1.82,1.82
492.62,1.40,-0.41,1.41,-0.41,0.40,0.48,0.40,1.81,1.81,1.81
497.55,1.38,-0.42,1.38,-0.42,0.42,0.52,0.42,1.80,1.80,1.80
502.52,1.35,-0.44,1.35,-0.44,0.43,0.55,0.44,1.78,1.78,1.79
507.55,1.32,-0.45,1.33,-0.45,0.44,0.59,0.47,1.77,1.77,1.77
512.62,1.30,-0.46,1.30,-0.46,0.46,0.62,0.50,1.76,1.76,1.76
517.75,1.28,-0.47,1.28,-0.47,0.47,0.66,0.52,1.75,1.75,1.75
522.93,1.24,-0.50,1.25,-0.49,0.49,0.70,0.55,1.73,1.74,1.74
528.16,1.23,-0.50,1.23,-0.50,0.50,0.73,0.59,1.74,1.73,1.73
