frequency,raw,error,smoothed,error_smoothed,equalization,parametric_eq,fixed_band_eq,equalized_raw,equalized_smoothed,target
20.00,1.28,1.40,1.27,1.40,-1.43,-1.04,-1.03,-0.15,-0.15,-0.12
20.20,1.32,1.40,1.32,1.40,-1.41,-1.07,-1.06,-0.09,-0.09,-0.08
20.40,1.36,1.40,1.36,1.41,-1.40,-1.09,-1.08,-0.04,-0.04,-0.04
20.61,1.40,1.42,1.40,1.41,-1.39,-1.11,-1.11,0.01,0.01,-0.02
20.81,1.43,1.41,1.43,1.41,-1.38,-1.13,-1.14,0.05,0.05,0.02
21.02,1.47,1.41,1.46,1.41,-1.38,-1.16,-1.17,0.09,0.08,0.06
21.23,1.47,1.40,1.47,1.40,-1.38,-1.18,-1.20,0.09,0.09,0.07
21.44,1.47,1.38,1.47,1.39,-1.39,-1.21,-1.23,0.08,0.09,0.09
21.66,1.48,1.38,1.47,1.38,-1.39,-1.23,-1.27,0.09,0.08,0.10
21.87,1.48,1.38,1.48,1.38,-1.40,-1.26,-1.30,0.08,0.08,0.10
22.09,1.50,1.39,1.50,1.40,-1.42,-1.28,-1.33,0.08,0.08,0.11
22.31,1.53,1.42,1.53,1.42,-1.44,-1.31,-1.37,0.09,0.09,0.11
22.54,1.57,1.46,1.57,1.47,-1.47,-1.33,-1.41,0.10,0.10,0.11
22.76,1.61,1.51,1.61,1.51,-1.50,-1.36,-1.44,0.11,0.11,0.10
22.99,1.65,1.56,1.64,1.55,-1.53,-1.39,-1.48,0.12,0.11,0.09
23.22,1.66,1.57,1.66,1.58,-1.55,-1.41,-1.52,0.11,0.10,0.09
23.45,1.66,1.58,1.66,1.59,-1.58,-1.44,-1.56,0.08,0.09,0.07
23.69,1.67,1.59,1.67,1.59,-1.60,-1.47,-1.60,0.07,0.07,0.07
23.92,1.68,1.60,1.68,1.60,-1.61,-1.50,-1.64,0.06,0.07,0.07
24.16,1.70,1.61,1.70,1.62,-1.63,-1.52,-1.68,0.07,0.07,0.08
24.40,1.72,1.64,1.72,1.64,-1.65,-1.55,-1.72,0.07,0.07,0.08
24.65,1.75,1.68,1.74,1.67,-1.67,-1.58,-1.77,0.08,0.07,0.07
24.89,1.77,1.70,1.77,1.69,-1.70,-1.61,-1.81,0.07,0.07,0.07
25.14,1.79,1.72,1.79,1.72,-1.73,-1.64,-1.85,0.06,0.07,0.07
25.39,1.82,1.75,1.82,1.75,-1.75,-1.67,-1.90,0.07,0.07,0.07
25.65,1.85,1.79,1.85,1.79,-1.77,-1.70,-1.94,0.07,0.07,0.06
25.91,1.87,1.82,1.87,1.81,-1.79,-1.72,-1.98,0.07,0.07,0.05
26.16,1.88,1.83,1.88,1.83,-1.81,-1.75,-2.02,0.07,0.07,0.05
26.43,1.88,1.83,1.88,1.83,-1.83,-1.78,-2.07,0.05,0.05,0.05
26.69,1.88,1.83,1.88,1.83,-1.85,-1.81,-2.11,0.03,0.03,0.05
26.96,1.88,1.84,1.88,1.84,-1.86,-1.84,-2.15,0.01,0.02,0.04
27.23,1.90,1.86,1.90,1.86,-1.88,-1.87,-2.19,0.02,0.02,0.04
27.50,1.93,1.89,1.93,1.90,-1.90,-1.90,-2.23,0.03,0.03,0.04
27.77,1.96,1.93,1.96,1.93,-1.91,-1.93,-2.27,0.05,0.04,0.03
28.05,1.98,1.95,1.97,1.95,-1.93,-1.96,-2.30,0.05,0.04,0.02
28.33,1.98,1.96,1.98,1.96,-1.95,-1.98,-2.34,0.03,0.03,0.01
28.62,1.98,1.97,1.98,1.97,-1.96,-2.01,-2.37,0.01,0.01,0.01
28.90,1.98,1.97,1.98,1.97,-1.98,-2.04,-2.40,-0.00,0.00,0.01
29.19,2.00,1.99,2.00,1.99,-2.00,-2.07,-2.43,-0.01,-0.00,0.01
29.48,2.03,2.01,2.03,2.01,-2.03,-2.10,-2.45,0.00,-0.00,0.02
29.78,2.06,2.05,2.06,2.04,-2.05,-2.12,-2.48,0.01,0.00,0.01
30.08,2.09,2.07,2.09,2.08,-2.08,-2.15,-2.50,0.01,0.01,0.02
30.38,2.12,2.12,2.12,2.12,-2.11,-2.17,-2.51,0.01,0.01,-0.00
30.68,2.15,2.15,2.15,2.15,-2.14,-2.20,-2.53,0.01,0.01,-0.00
30.99,2.18,2.19,2.17,2.18,-2.16,-2.22,-2.54,0.02,0.01,-0.01
31.30,2.18,2.19,2.18,2.20,-2.18,-2.25,-2.55,-0.00,-0.00,-0.02
31.61,2.18,2.20,2.18,2.21,-2.20,-2.27,-2.55,-0.02,-0.02,-0.02
31.93,2.18,2.22,2.18,2.21,-2.21,-2.29,-2.56,-0.04,-0.04,-0.04
32.24,2.18,2.23,2.18,2.22,-2.23,-2.31,-2.56,-0.05,-0.05,-0.05
32.57,2.18,2.23,2.18,2.23,-2.25,-2.33,-2.55,-0.07,-0.07,-0.05
32.89,2.18,2.24,2.18,2.25,-2.27,-2.35,-2.55,-0.09,-0.09,-0.06
33.22,2.20,2.28,2.21,2.28,-2.30,-2.37,-2.54,-0.10,-0.09,-0.08
33.55,2.24,2.32,2.23,2.33,-2.32,-2.39,-2.53,-0.08,-0.09,-0.09
33.89,2.27,2.38,2.26,2.36,-2.35,-2.41,-2.52,-0.08,-0.09,-0.11
34.23,2.28,2.39,2.28,2.39,-2.37,-2.42,-2.50,-0.10,-0.10,-0.11
34.57,2.28,2.41,2.28,2.41,-2.40,-2.44,-2.49,-0.12,-0.12,-0.13
34.92,2.28,2.42,2.28,2.42,-2.42,-2.45,-2.47,-0.14,-0.14,-0.14
35.27,2.28,2.42,2.28,2.43,-2.44,-2.46,-2.45,-0.16,-0.16,-0.14
35.62,2.28,2.45,2.28,2.44,-2.45,-2.48,-2.43,-0.17,-0.17,-0.17
35.97,2.28,2.46,2.28,2.45,-2.46,-2.49,-2.41,-0.18,-0.18,-0.18
36.33,2.28,2.46,2.28,2.47,-2.46,-2.50,-2.39,-0.18,-0.18,-0.18
36.70,2.28,2.47,2.28,2.47,-2.47,-2.51,-2.37,-0.19,-0.19,-0.19
37.06,2.28,2.48,2.28,2.48,-2.48,-2.51,-2.35,-0.20,-0.20,-0.21
37.43,2.28,2.48,2.28,2.49,-2.48,-2.52,-2.33,-0.20,-0.20,-0.20
37.81,2.28,2.49,2.28,2.49,-2.49,-2.53,-2.31,-0.21,-0.21,-0.21
38.19,2.28,2.50,2.28,2.49,-2.49,-2.53,-2.29,-0.21,-0.21,-0.22
38.57,2.28,2.49,2.28,2.50,-2.50,-2.54,-2.27,-0.22,-0.22,-0.22
38.95,2.28,2.51,2.28,2.51,-2.51,-2.54,-2.25,-0.23,-0.23,-0.23
39.34,2.28,2.51,2.28,2.51,-2.53,-2.54,-2.23,-0.25,-0.25,-0.23
39.74,2.28,2.52,2.28,2.52,-2.54,-2.55,-2.22,-0.26,-0.26,-0.25
40.14,2.29,2.54,2.30,2.55,-2.55,-2.55,-2.20,-0.27,-0.25,-0.25
40.54,2.33,2.58,2.33,2.58,-2.56,-2.55,-2.19,-0.24,-0.23,-0.25
40.94,2.37,2.62,2.34,2.60,-2.57,-2.55,-2.17,-0.20,-0.23,-0.26
41.35,2.34,2.61,2.34,2.60,-2.58,-2.55,-2.16,-0.24,-0.24,-0.27
41.76,2.30,2.58,2.31,2.59,-2.59,-2.55,-2.15,-0.29,-0.28,-0.28
42.18,2.28,2.56,2.28,2.57,-2.59,-2.55,-2.14,-0.31,-0.31,-0.29
42.60,2.28,2.58,2.28,2.57,-2.60,-2.54,-2.14,-0.32,-0.32,-0.30
43.03,2.28,2.58,2.28,2.59,-2.61,-2.54,-2.13,-0.33,-0.33,-0.30
43.46,2.28,2.61,2.28,2.61,-2.62,-2.54,-2.13,-0.34,-0.34,-0.33
43.90,2.28,2.63,2.28,2.63,-2.63,-2.54,-2.13,-0.35,-0.35,-0.35
44.33,2.28,2.65,2.28,2.65,-2.65,-2.54,-2.13,-0.37,-0.37,-0.37
44.78,2.28,2.67,2.28,2.67,-2.67,-2.54,-2.13,-0.39,-0.39,-0.39
45.23,2.28,2.69,2.28,2.69,-2.68,-2.54,-2.13,-0.40,-0.39,-0.41
45.68,2.28,2.70,2.28,2.70,-2.68,-2.54,-2.13,-0.40,-0.40,-0.42
46.13,2.27,2.71,2.26,2.69,-2.67,-2.54,-2.14,-0.40,-0.41,-0.44
46.60,2.22,2.66,2.22,2.67,-2.66,-2.54,-2.15,-0.44,-0.43,-0.44
47.06,2.18,2.63,2.18,2.63,-2.64,-2.54,-2.16,-0.46,-0.46,-0.45
47.53,2.15,2.61,2.15,2.60,-2.62,-2.54,-2.17,-0.47,-0.48,-0.46
48.01,2.12,2.58,2.12,2.59,-2.61,-2.54,-2.18,-0.49,-0.49,-0.46
48.49,2.10,2.58,2.10,2.58,-2.59,-2.55,-2.19,-0.49,-0.49,-0.48
48.97,2.08,2.57,2.08,2.58,-2.58,-2.55,-2.21,-0.50,-0.50,-0.50
49.46,2.08,2.58,2.08,2.58,-2.58,-2.56,-2.23,-0.50,-0.50,-0.50
49.96,2.08,2.60,2.08,2.59,-2.58,-2.56,-2.24,-0.50,-0.51,-0.52
50.46,2.08,2.59,2.08,2.59,-2.59,-2.57,-2.26,-0.51,-0.51,-0.51
50.96,2.08,2.59,2.08,2.60,-2.59,-2.58,-2.28,-0.52,-0.52,-0.52
51.47,2.08,2.60,2.08,2.60,-2.60,-2.59,-2.30,-0.52,-0.52,-0.52
51.99,2.08,2.61,2.08,2.61,-2.61,-2.61,-2.32,-0.53,-0.53,-0.53
52.51,2.08,2.61,2.08,2.61,-2.61,-2.62,-2.34,-0.53,-0.53,-0.53
53.03,2.08,2.61,2.08,2.61,-2.61,-2.64,-2.37,-0.54,-0.54,-0.53
53.56,2.08,2.62,2.08,2.62,-2.62,-2.66,-2.39,-0.54,-0.54,-0.54
54.10,2.08,2.63,2.08,2.62,-2.62,-2.68,-2.41,-0.55,-0.55,-0.55
54.64,2.08,2.63,2.08,2.63,-2.63,-2.70,-2.43,-0.55,-0.55,-0.55
55.18,2.08,2.64,2.08,2.64,-2.64,-2.72,-2.46,-0.56,-0.56,-0.56
55.74,2.08,2.65,2.08,2.65,-2.65,-2.75,-2.48,-0.58,-0.58,-0.57
56.29,2.08,2.65,2.08,2.66,-2.67,-2.77,-2.50,-0.59,-0.59,-0.57
56.86,2.08,2.67,2.08,2.67,-2.68,-2.80,-2.52,-0.60,-0.60,-0.59
57.42,2.08,2.68,2.08,2.69,-2.68,-2.83,-2.54,-0.60,-0.60,-0.61
58.00,2.08,2.70,2.08,2.70,-2.68,-2.86,-2.56,-0.60,-0.60,-0.62
58.58,2.08,2.71,2.07,2.70,-2.68,-2.89,-2.58,-0.60,-0.61,-0.63
59.16,2.06,2.70,2.05,2.69,-2.68,-2.91,-2.59,-0.62,-0.63,-0.64
59.76,2.00,2.67,2.01,2.67,-2.67,-2.94,-2.61,-0.67,-0.66,-0.67
60.35,1.96,2.65,1.96,2.65,-2.67,-2.97,-2.62,-0.71,-0.71,-0.69
60.96,1.93,2.65,1.92,2.65,-2.67,-3.00,-2.63,-0.74,-0.75,-0.72
61.57,1.90,2.66,1.90,2.66,-2.68,-3.02,-2.64,-0.78,-0.78,-0.76
62.18,1.88,2.68,1.88,2.68,-2.69,-3.04,-2.65,-0.82,-0.81,-0.80
62.80,1.88,2.71,1.88,2.71,-2.72,-3.06,-2.65,-0.84,-0.84,-0.83
63.43,1.88,2.75,1.88,2.75,-2.75,-3.07,-2.66,-0.87,-0.87,-0.87
64.07,1.88,2.79,1.88,2.78,-2.78,-3.08,-2.66,-0.90,-0.90,-0.91
64.71,1.88,2.82,1.89,2.83,-2.81,-3.08,-2.66,-0.93,-0.92,-0.94
65.35,1.88,2.85,1.88,2.85,-2.83,-3.08,-2.66,-0.95,-0.95,-0.97
66.01,1.88,2.89,1.85,2.86,-2.85,-3.08,-2.66,-0.98,-1.00,-1.01
66.67,1.81,2.86,1.83,2.87,-2.87,-3.07,-2.65,-1.06,-1.04,-1.05
67.33,1.78,2.86,1.79,2.87,-2.88,-3.05,-2.65,-1.10,-1.09,-1.08
68.01,1.78,2.90,1.75,2.87,-2.89,-3.03,-2.64,-1.11,-1.14,-1.12
68.69,1.71,2.87,1.72,2.88,-2.89,-3.00,-2.63,-1.18,-1.17,-1.16
69.37,1.68,2.88,1.70,2.90,-2.89,-2.97,-2.62,-1.21,-1.19,-1.20
70.07,1.68,2.92,1.66,2.90,-2.89,-2.94,-2.61,-1.21,-1.23,-1.24
70.77,1.63,2.90,1.61,2.89,-2.89,-2.90,-2.60,-1.26,-1.28,-1.28
71.48,1.55,2.87,1.56,2.88,-2.89,-2.87,-2.59,-1.34,-1.33,-1.32
72.19,1.48,2.84,1.50,2.87,-2.89,-2.83,-2.58,-1.41,-1.38,-1.36
72.91,1.48,2.89,1.46,2.87,-2.88,-2.79,-2.57,-1.40,-1.42,-1.42
73.64,1.42,2.88,1.41,2.87,-2.87,-2.74,-2.56,-1.45,-1.46,-1.46
74.38,1.35,2.86,1.36,2.87,-2.85,-2.70,-2.56,-1.50,-1.49,-1.51
75.12,1.29,2.84,1.29,2.84,-2.82,-2.66,-2.55,-1.54,-1.54,-1.55
75.87,1.23,2.82,1.22,2.81,-2.80,-2.62,-2.54,-1.57,-1.58,-1.59
76.63,1.14,2.76,1.15,2.78,-2.77,-2.57,-2.53,-1.63,-1.62,-1.63
77.40,1.07,2.73,1.06,2.72,-2.74,-2.53,-2.53,-1.67,-1.68,-1.66
78.17,0.99,2.69,0.98,2.68,-2.70,-2.49,-2.52,-1.72,-1.73,-1.70
78.95,0.88,2.61,0.91,2.65,-2.67,-2.45,-2.52,-1.79,-1.75,-1.73
79.74,0.87,2.63,0.86,2.62,-2.63,-2.41,-2.52,-1.76,-1.77,-1.76
80.54,0.82,2.61,0.80,2.60,-2.59,-2.37,-2.52,-1.77,-1.79,-1.79
81.35,0.74,2.56,0.75,2.57,-2.54,-2.33,-2.52,-1.81,-1.79,-1.82
82.16,0.67,2.52,0.66,2.51,-2.50,-2.29,-2.52,-1.83,-1.83,-1.85
82.98,0.58,2.45,0.56,2.44,-2.44,-2.25,-2.53,-1.86,-1.88,-1.88
83.81,0.44,2.36,0.46,2.37,-2.38,-2.21,-2.53,-1.94,-1.92,-1.92
84.65,0.34,2.29,0.34,2.29,-2.30,-2.16,-2.54,-1.96,-1.96,-1.95
85.50,0.24,2.21,0.23,2.21,-2.22,-2.12,-2.55,-1.98,-1.99,-1.97
86.35,0.12,2.13,0.12,2.13,-2.12,-2.07,-2.56,-2.00,-2.00,-2.01
87.22,-0.01,2.03,-0.01,2.03,-2.01,-2.01,-2.58,-2.02,-2.03,-2.04
88.09,-0.16,1.92,-0.16,1.91,-1.90,-1.95,-2.60,-2.06,-2.06,-2.08
88.97,-0.31,1.79,-0.32,1.79,-1.78,-1.89,-2.61,-2.09,-2.10,-2.10
89.86,-0.49,1.65,-0.49,1.65,-1.65,-1.82,-2.63,-2.14,-2.14,-2.14
90.76,-0.66,1.51,-0.66,1.51,-1.51,-1.74,-2.66,-2.17,-2.17,-2.17
91.66,-0.83,1.37,-0.83,1.38,-1.37,-1.65,-2.68,-2.20,-2.20,-2.20
92.58,-0.98,1.26,-1.00,1.24,-1.24,-1.55,-2.71,-2.22,-2.23,-2.24
93.51,-1.16,1.10,-1.16,1.10,-1.11,-1.45,-2.73,-2.27,-2.27,-2.26
94.44,-1.33,0.96,-1.32,0.97,-0.99,-1.33,-2.76,-2.32,-2.31,-2.29
95.39,-1.46,0.86,-1.46,0.86,-0.87,-1.21,-2.80,-2.33,-2.33,-2.32
96.34,-1.56,0.80,-1.56,0.79,-0.78,-1.08,-2.83,-2.34,-2.34,-2.36
97.30,-1.65,0.74,-1.65,0.74,-0.71,-0.96,-2.86,-2.36,-2.35,-2.39
98.28,-1.71,0.70,-1.74,0.67,-0.67,-0.85,-2.90,-2.38,-2.41,-2.42
99.26,-1.81,0.62,-1.81,0.62,-0.66,-0.76,-2.94,-2.47,-2.47,-2.43
100.25,-1.87,0.59,-1.84,0.62,-0.69,-0.70,-2.98,-2.56,-2.53,-2.46
101.25,-1.81,0.68,-1.80,0.70,-0.75,-0.69,-3.02,-2.56,-2.55,-2.49
102.27,-1.68,0.84,-1.69,0.84,-0.85,-0.73,-3.06,-2.53,-2.54,-2.52
103.29,-1.54,1.03,-1.56,1.00,-0.98,-0.82,-3.10,-2.52,-2.54,-2.57
104.32,-1.43,1.16,-1.44,1.16,-1.13,-0.97,-3.14,-2.56,-2.57,-2.59
105.37,-1.33,1.30,-1.31,1.31,-1.30,-1.15,-3.18,-2.63,-2.61,-2.63
106.42,-1.18,1.48,-1.16,1.50,-1.49,-1.36,-3.23,-2.67,-2.65,-2.66
107.48,-0.99,1.71,-1.00,1.70,-1.68,-1.60,-3.27,-2.67,-2.68,-2.70
108.56,-0.82,1.92,-0.85,1.88,-1.87,-1.83,-3.31,-2.70,-2.73,-2.74
109.64,-0.72,2.06,-0.72,2.06,-2.06,-2.07,-3.35,-2.78,-2.78,-2.78
110.74,-0.60,2.21,-0.56,2.25,-2.26,-2.29,-3.39,-2.86,-2.82,-2.81
111.85,-0.38,2.45,-0.39,2.46,-2.46,-2.51,-3.43,-2.84,-2.85,-2.84
112.97,-0.16,2.72,-0.20,2.67,-2.67,-2.71,-3.47,-2.84,-2.88,-2.88
114.10,-0.03,2.87,-0.02,2.88,-2.89,-2.90,-3.51,-2.92,-2.92,-2.90
115.24,0.12,3.06,0.13,3.07,-3.11,-3.07,-3.54,-2.99,-2.98,-2.94
116.39,0.30,3.27,0.30,3.27,-3.32,-3.23,-3.57,-3.02,-3.02,-2.97
117.55,0.48,3.48,0.52,3.52,-3.51,-3.38,-3.60,-3.03,-2.99,-3.00
118.73,0.74,3.76,0.72,3.74,-3.68,-3.51,-3.63,-2.94,-2.96,-3.02
119.92,0.94,3.97,0.87,3.91,-3.82,-3.63,-3.65,-2.88,-2.95,-3.03
121.12,0.91,3.97,0.96,4.02,-3.94,-3.74,-3.67,-3.03,-2.98,-3.06
122.33,0.99,4.06,0.99,4.06,-4.04,-3.83,-3.69,-3.05,-3.05,-3.07
123.55,1.02,4.10,0.99,4.08,-4.12,-3.92,-3.70,-3.10,-3.13,-3.08
124.79,1.01,4.11,1.02,4.12,-4.18,-4.00,-3.71,-3.17,-3.16,-3.11
126.03,1.01,4.13,1.05,4.17,-4.22,-4.07,-3.72,-3.21,-3.18,-3.12
127.29,1.11,4.24,1.09,4.23,-4.26,-4.13,-3.72,-3.15,-3.16,-3.13
128.57,1.17,4.33,1.14,4.30,-4.29,-4.18,-3.72,-3.12,-3.14,-3.16
129.85,1.17,4.34,1.18,4.36,-4.31,-4.22,-3.72,-3.14,-3.13,-3.17
131.15,1.18,4.36,1.19,4.37,-4.33,-4.25,-3.71,-3.15,-3.15,-3.19
132.46,1.19,4.39,1.16,4.36,-4.35,-4.28,-3.70,-3.16,-3.18,-3.20
133.79,1.13,4.33,1.14,4.35,-4.35,-4.30,-3.69,-3.22,-3.21,-3.20
135.12,1.09,4.32,1.11,4.33,-4.34,-4.32,-3.67,-3.26,-3.24,-3.23
136.48,1.09,4.32,1.07,4.30,-4.33,-4.32,-3.66,-3.24,-3.26,-3.23
137.84,1.04,4.29,1.04,4.30,-4.31,-4.32,-3.64,-3.27,-3.27,-3.25
139.22,1.01,4.29,1.02,4.30,-4.29,-4.32,-3.62,-3.28,-3.27,-3.28
140.61,1.00,4.30,1.00,4.29,-4.28,-4.31,-3.59,-3.29,-3.29,-3.30
142.02,1.00,4.30,0.97,4.28,-4.28,-4.29,-3.57,-3.28,-3.31,-3.30
143.44,0.93,4.25,0.94,4.26,-4.28,-4.26,-3.55,-3.35,-3.34,-3.32
144.87,0.89,4.23,0.91,4.25,-4.28,-4.23,-3.52,-3.39,-3.36,-3.35
146.32,0.90,4.27,0.90,4.27,-4.28,-4.20,-3.50,-3.38,-3.38,-3.37
147.78,0.90,4.30,0.88,4.28,-4.28,-4.16,-3.47,-3.38,-3.40,-3.40
149.26,0.86,4.29,0.84,4.28,-4.27,-4.11,-3.45,-3.41,-3.43,-3.43
150.75,0.75,4.24,0.78,4.26,-4.26,-4.07,-3.42,-3.51,-3.48,-3.49
152.26,0.70,4.23,0.71,4.24,-4.23,-4.02,-3.40,-3.53,-3.52,-3.53
153.78,0.64,4.23,0.63,4.22,-4.18,-3.98,-3.38,-3.55,-3.56,-3.59
155.32,0.55,4.20,0.54,4.19,-4.12,-3.95,-3.36,-3.57,-3.58,-3.65
156.88,0.41,4.11,0.41,4.12,-4.05,-3.93,-3.34,-3.64,-3.64,-3.70
158.44,0.26,4.03,0.24,4.02,-3.98,-3.93,-3.32,-3.73,-3.74,-3.77
160.03,0.08,3.91,0.09,3.92,-3.94,-3.94,-3.30,-3.87,-3.85,-3.84
161.63,-0.04,3.85,-0.03,3.86,-3.94,-3.97,-3.29,-3.98,-3.97,-3.89
163.24,-0.07,3.88,-0.08,3.86,-3.98,-4.02,-3.28,-4.06,-4.07,-3.95
164.88,-0.06,3.92,-0.05,3.94,-4.07,-4.09,-3.27,-4.13,-4.11,-3.98
166.53,0.07,4.08,0.08,4.10,-4.18,-4.17,-3.26,-4.12,-4.10,-4.02
168.19,0.27,4.31,0.28,4.33,-4.33,-4.26,-3.25,-4.06,-4.05,-4.05
169.87,0.52,4.59,0.50,4.57,-4.49,-4.35,-3.25,-3.97,-3.99,-4.07
171.57,0.70,4.79,0.67,4.76,-4.64,-4.45,-3.25,-3.94,-3.98,-4.09
173.29,0.77,4.87,0.78,4.88,-4.78,-4.54,-3.25,-4.01,-4.00,-4.10
175.02,0.81,4.91,0.82,4.93,-4.89,-4.62,-3.25,-4.08,-4.06,-4.10
176.77,0.85,4.96,0.84,4.95,-4.95,-4.70,-3.26,-4.10,-4.11,-4.11
178.54,0.85,4.96,0.86,4.97,-4.98,-4.77,-3.27,-4.13,-4.12,-4.12
180.32,0.86,4.96,0.86,4.96,-4.98,-4.83,-3.28,-4.12,-4.12,-4.10
182.13,0.85,4.94,0.84,4.94,-4.95,-4.88,-3.30,-4.10,-4.11,-4.10
183.95,0.81,4.91,0.81,4.91,-4.92,-4.92,-3.31,-4.11,-4.11,-4.10
185.79,0.77,4.87,0.77,4.87,-4.88,-4.95,-3.33,-4.11,-4.11,-4.10
187.65,0.71,4.83,0.73,4.85,-4.84,-4.97,-3.35,-4.14,-4.11,-4.12
189.52,0.71,4.83,0.69,4.81,-4.81,-4.98,-3.38,-4.10,-4.12,-4.12
191.42,0.66,4.79,0.64,4.77,-4.77,-4.98,-3.40,-4.11,-4.13,-4.13
193.33,0.57,4.71,0.60,4.74,-4.74,-4.98,-3.43,-4.17,-4.14,-4.14
195.27,0.55,4.71,0.55,4.71,-4.72,-4.96,-3.46,-4.17,-4.17,-4.16
197.22,0.55,4.73,0.52,4.70,-4.71,-4.94,-3.49,-4.16,-4.19,-4.18
199.19,0.50,4.70,0.50,4.70,-4.72,-4.92,-3.52,-4.22,-4.21,-4.20
201.18,0.49,4.70,0.49,4.71,-4.73,-4.88,-3.56,-4.24,-4.24,-4.21
203.19,0.49,4.71,0.51,4.73,-4.76,-4.85,-3.59,-4.27,-4.25,-4.22
205.23,0.55,4.80,0.54,4.78,-4.79,-4.80,-3.63,-4.24,-4.25,-4.25
207.28,0.59,4.84,0.57,4.83,-4.82,-4.76,-3.67,-4.23,-4.25,-4.25
209.35,0.59,4.87,0.59,4.87,-4.85,-4.70,-3.71,-4.26,-4.25,-4.28
211.44,0.59,4.89,0.60,4.89,-4.86,-4.65,-3.75,-4.28,-4.26,-4.30
213.56,0.59,4.89,0.58,4.89,-4.87,-4.59,-3.78,-4.28,-4.29,-4.31
215.69,0.58,4.89,0.55,4.87,-4.86,-4.53,-3.82,-4.29,-4.31,-4.31
217.85,0.48,4.80,0.52,4.85,-4.84,-4.47,-3.86,-4.36,-4.32,-4.32
220.03,0.48,4.82,0.47,4.81,-4.80,-4.40,-3.90,-4.32,-4.33,-4.34
222.23,0.45,4.80,0.40,4.74,-4.75,-4.34,-3.93,-4.30,-4.35,-4.35
224.45,0.31,4.64,0.36,4.70,-4.69,-4.27,-3.97,-4.38,-4.33,-4.33
226.70,0.27,4.60,0.29,4.62,-4.62,-4.20,-4.00,-4.35,-4.33,-4.33
228.96,0.29,4.62,0.22,4.54,-4.55,-4.13,-4.03,-4.26,-4.34,-4.33
231.25,0.13,4.44,0.16,4.48,-4.48,-4.06,-4.05,-4.35,-4.32,-4.31
233.57,0.07,4.37,0.10,4.40,-4.41,-3.99,-4.07,-4.34,-4.31,-4.30
235.90,0.06,4.34,0.03,4.32,-4.33,-3.92,-4.09,-4.27,-4.30,-4.29
238.26,0.01,4.27,0.00,4.26,-4.26,-3.86,-4.11,-4.25,-4.26,-4.26
240.64,-0.05,4.19,-0.04,4.20,-4.18,-3.79,-4.12,-4.24,-4.22,-4.24
243.05,-0.09,4.11,-0.09,4.12,-4.11,-3.72,-4.13,-4.20,-4.20,-4.20
245.48,-0.12,4.06,-0.13,4.05,-4.05,-3.65,-4.13,-4.17,-4.17,-4.18
247.93,-0.17,3.98,-0.18,3.97,-3.98,-3.59,-4.13,-4.16,-4.17,-4.15
250.41,-0.23,3.91,-0.24,3.89,-3.92,-3.52,-4.12,-4.15,-4.16,-4.14
252.92,-0.31,3.79,-0.26,3.84,-3.86,-3.46,-4.11,-4.17,-4.12,-4.10
255.45,-0.27,3.81,-0.28,3.80,-3.80,-3.39,-4.10,-4.07,-4.08,-4.08
258.00,-0.26,3.80,-0.32,3.74,-3.73,-3.33,-4.08,-3.99,-4.06,-4.06
260.58,-0.39,3.65,-0.34,3.70,-3.67,-3.27,-4.05,-4.06,-4.01,-4.05
263.19,-0.44,3.58,-0.41,3.61,-3.60,-3.21,-4.02,-4.04,-4.00,-4.02
265.82,-0.41,3.59,-0.50,3.50,-3.52,-3.15,-3.99,-3.93,-4.02,-4.00
268.48,-0.58,3.40,-0.54,3.43,-3.43,-3.10,-3.95,-4.02,-3.98,-3.98
271.16,-0.66,3.29,-0.60,3.35,-3.34,-3.04,-3.91,-4.00,-3.94,-3.95
273.87,-0.62,3.31,-0.69,3.24,-3.24,-2.99,-3.87,-3.86,-3.93,-3.93
276.61,-0.75,3.16,-0.77,3.14,-3.14,-2.94,-3.83,-3.89,-3.90,-3.91
279.38,-0.90,2.98,-0.85,3.03,-3.03,-2.89,-3.78,-3.93,-3.88,-3.88
282.17,-0.95,2.91,-0.94,2.92,-2.92,-2.84,-3.73,-3.87,-3.86,-3.86
284.99,-0.97,2.85,-1.02,2.81,-2.82,-2.79,-3.67,-3.79,-3.84,-3.83
287.84,-1.07,2.73,-1.09,2.71,-2.71,-2.75,-3.62,-3.78,-3.80,-3.80
290.72,-1.23,2.53,-1.16,2.60,-2.61,-2.70,-3.56,-3.84,-3.77,-3.76
293.63,-1.20,2.53,-1.23,2.50,-2.51,-2.66,-3.51,-3.71,-3.74,-3.73
296.57,-1.27,2.42,-1.30,2.41,-2.41,-2.62,-3.45,-3.68,-3.71,-3.70
299.53,-1.36,2.32,-1.35,2.32,-2.31,-2.58,-3.39,-3.68,-3.67,-3.68
302.53,-1.45,2.20,-1.43,2.22,-2.22,-2.54,-3.34,-3.67,-3.65,-3.65
305.55,-1.49,2.12,-1.49,2.13,-2.12,-2.50,-3.28,-3.61,-3.61,-3.61
308.61,-1.53,2.06,-1.56,2.03,-2.02,-2.47,-3.22,-3.55,-3.58,-3.60
311.69,-1.64,1.94,-1.64,1.93,-1.92,-2.43,-3.17,-3.56,-3.56,-3.58
314.81,-1.76,1.78,-1.74,1.81,-1.81,-2.40,-3.11,-3.57,-3.55,-3.54
317.96,-1.83,1.70,-1.83,1.70,-1.70,-2.37,-3.06,-3.53,-3.53,-3.53
321.14,-1.90,1.61,-1.90,1.61,-1.60,-2.34,-3.01,-3.50,-3.50,-3.51
324.35,-1.96,1.54,-1.98,1.52,-1.50,-2.31,-2.96,-3.46,-3.48,-3.50
327.59,-2.08,1.40,-2.08,1.40,-1.40,-2.29,-2.91,-3.48,-3.49,-3.49
330.87,-2.19,1.29,-2.18,1.30,-1.32,-2.26,-2.86,-3.51,-3.50,-3.48
334.18,-2.26,1.21,-2.25,1.22,-1.25,-2.24,-2.82,-3.51,-3.50,-3.47
337.52,-2.27,1.19,-2.28,1.18,-1.20,-2.21,-2.77,-3.47,-3.48,-3.46
340.90,-2.27,1.17,-2.28,1.17,-1.16,-2.19,-2.73,-3.44,-3.44,-3.44
344.30,-2.27,1.16,-2.28,1.16,-1.15,-2.17,-2.69,-3.42,-3.42,-3.43
347.75,-2.27,1.15,-2.27,1.15,-1.15,-2.15,-2.65,-3.42,-3.42,-3.43
351.23,-2.27,1.14,-2.26,1.16,-1.17,-2.13,-2.62,-3.44,-3.43,-3.42
354.74,-2.22,1.20,-2.22,1.19,-1.21,-2.12,-2.58,-3.43,-3.43,-3.42
358.28,-2.16,1.25,-2.16,1.25,-1.26,-2.10,-2.55,-3.42,-3.42,-3.41
361.87,-2.08,1.33,-2.09,1.32,-1.32,-2.09,-2.52,-3.40,-3.41,-3.41
365.49,-2.02,1.38,-2.02,1.39,-1.39,-2.07,-2.49,-3.41,-3.41,-3.40
369.14,-1.95,1.45,-1.94,1.46,-1.45,-2.06,-2.46,-3.40,-3.40,-3.40
372.83,-1.86,1.54,-1.87,1.53,-1.51,-2.05,-2.44,-3.38,-3.38,-3.40
376.56,-1.80,1.60,-1.79,1.60,-1.57,-2.04,-2.41,-3.37,-3.36,-3.40
380.33,-1.73,1.65,-1.74,1.65,-1.62,-2.03,-2.39,-3.35,-3.36,-3.38
384.13,-1.71,1.68,-1.72,1.67,-1.66,-2.02,-2.37,-3.37,-3.38,-3.40
387.97,-1.71,1.69,-1.70,1.69,-1.70,-2.01,-2.36,-3.41,-3.41,-3.40
391.85,-1.70,1.70,-1.69,1.70,-1.74,-2.01,-2.34,-3.44,-3.43,-3.40
395.77,-1.65,1.74,-1.65,1.74,-1.78,-2.00,-2.33,-3.43,-3.43,-3.39
399.73,-1.60,1.79,-1.60,1.80,-1.82,-2.00,-2.31,-3.42,-3.41,-3.39
403.72,-1.53,1.87,-1.53,1.86,-1.85,-1.99,-2.30,-3.38,-3.38,-3.40
407.76,-1.47,1.93,-1.47,1.92,-1.89,-1.99,-2.29,-3.37,-3.37,-3.40
411.84,-1.42,1.97,-1.43,1.97,-1.94,-1.99,-2.28,-3.36,-3.37,-3.39
415.96,-1.41,1.99,-1.42,1.98,-1.98,-1.99,-2.28,-3.39,-3.39,-3.40
420.12,-1.41,1.99,-1.40,2.00,-2.01,-1.99,-2.27,-3.42,-3.41,-3.40
424.32,-1.39,2.00,-1.37,2.02,-2.04,-1.99,-2.27,-3.43,-3.41,-3.39
428.56,-1.32,2.07,-1.33,2.06,-2.06,-1.99,-2.26,-3.38,-3.39,-3.39
432.85,-1.28,2.09,-1.29,2.08,-2.08,-1.99,-2.26,-3.36,-3.37,-3.37
437.18,-1.25,2.10,-1.25,2.10,-2.09,-2.00,-2.26,-3.34,-3.34,-3.35
441.55,-1.22,2.09,-1.22,2.11,-2.11,-2.00,-2.26,-3.33,-3.32,-3.32
445.96,-1.17,2.11,-1.17,2.11,-2.12,-2.00,-2.26,-3.29,-3.29,-3.29
450.42,-1.12,2.13,-1.12,2.13,-2.13,-2.01,-2.25,-3.25,-3.25,-3.26
454.93,-1.06,2.13,-1.06,2.14,-2.14,-2.02,-2.25,-3.20,-3.20,-3.20
459.48,-1.00,2.16,-1.00,2.15,-2.14,-2.02,-2.25,-3.15,-3.15,-3.16
