frequency,raw,error,smoothed,error_smoothed,equalization,parametric_eq,fixed_band_eq,equalized_raw,equalized_smoothed,target
20.00,-0.85,-7.80,-0.84,-7.78,6.00,6.42,2.70,5.15,5.16,6.95
20.20,-0.80,-7.74,-0.81,-7.75,6.00,6.40,2.78,5.20,5.19,6.94
20.40,-0.74,-7.68,-0.77,-7.70,6.00,6.39,2.85,5.26,5.23,6.94
20.61,-0.69,-7.62,-0.71,-7.63,6.00,6.38,2.94,5.31,5.29,6.93
20.81,-0.64,-7.56,-0.64,-7.56,6.00,6.36,3.02,5.36,5.36,6.92
21.02,-0.57,-7.48,-0.54,-7.45,6.00,6.35,3.11,5.43,5.46,6.91
21.23,-0.37,-7.28,-0.38,-7.29,6.00,6.33,3.19,5.63,5.62,6.91
21.44,-0.17,-7.09,-0.17,-7.08,6.00,6.32,3.29,5.83,5.83,6.92
21.66,0.02,-6.88,0.05,-6.86,6.00,6.30,3.38,6.02,6.05,6.90
21.87,0.22,-6.69,0.19,-6.71,6.00,6.29,3.48,6.22,6.19,6.90
22.09,0.28,-6.61,0.24,-6.65,6.00,6.27,3.58,6.28,6.24,6.89
22.31,0.17,-6.72,0.20,-6.69,6.00,6.25,3.68,6.17,6.20,6.89
22.54,0.07,-6.81,0.07,-6.81,6.00,6.24,3.78,6.07,6.07,6.88
22.76,-0.04,-6.94,-0.05,-6.94,6.00,6.22,3.89,5.96,5.95,6.89
22.99,-0.15,-7.04,-0.13,-7.01,6.00,6.20,4.00,5.85,5.87,6.89
23.22,-0.17,-7.05,-0.17,-7.06,6.00,6.18,4.12,5.83,5.83,6.88
23.45,-0.17,-7.05,-0.20,-7.08,6.00,6.17,4.23,5.83,5.80,6.88
23.69,-0.18,-7.06,-0.20,-7.07,6.00,6.15,4.35,5.82,5.80,6.88
23.92,-0.19,-7.07,-0.16,-7.04,6.00,6.13,4.47,5.81,5.84,6.88
24.16,-0.09,-6.98,-0.08,-6.97,6.01,6.11,4.59,5.92,5.92,6.89
24.40,0.06,-6.84,0.04,-6.85,6.02,6.09,4.72,6.07,6.06,6.90
24.65,0.20,-6.69,0.20,-6.69,6.01,6.07,4.84,6.22,6.22,6.90
24.89,0.37,-6.53,0.37,-6.52,6.00,6.05,4.97,6.37,6.37,6.89
25.14,0.53,-6.36,0.53,-6.36,5.97,6.03,5.10,6.50,6.50,6.88
25.39,0.70,-6.18,0.71,-6.17,5.94,6.01,5.23,6.64,6.65,6.88
25.65,0.87,-6.02,0.88,-6.00,5.91,5.99,5.36,6.77,6.79,6.88
25.91,1.04,-5.84,1.01,-5.87,5.88,5.97,5.49,6.93,6.90,6.88
26.16,1.10,-5.78,1.08,-5.80,5.87,5.95,5.63,6.97,6.95,6.88
26.43,1.08,-5.79,1.10,-5.77,5.86,5.93,5.76,6.94,6.96,6.87
26.69,1.05,-5.82,1.06,-5.80,5.87,5.91,5.89,6.91,6.93,6.87
26.96,1.03,-5.83,1.00,-5.86,5.88,5.89,6.01,6.91,6.88,6.86
27.23,0.91,-5.94,0.90,-5.95,5.90,5.86,6.14,6.81,6.80,6.84
27.50,0.76,-6.09,0.75,-6.09,5.93,5.84,6.26,6.69,6.68,6.84
27.77,0.61,-6.23,0.62,-6.22,5.97,5.82,6.38,6.59,6.59,6.84
28.05,0.52,-6.32,0.57,-6.26,6.00,5.79,6.49,6.51,6.57,6.84
28.33,0.63,-6.21,0.62,-6.22,6.01,5.77,6.60,6.64,6.62,6.84
28.62,0.73,-6.09,0.72,-6.11,6.01,5.74,6.70,6.74,6.72,6.83
28.90,0.84,-6.00,0.83,-6.01,5.99,5.72,6.80,6.82,6.81,6.84
29.19,0.90,-5.94,0.89,-5.95,5.96,5.69,6.89,6.85,6.84,6.83
29.48,0.92,-5.93,0.92,-5.92,5.92,5.67,6.96,6.84,6.84,6.84
29.78,0.95,-5.89,0.95,-5.89,5.88,5.64,7.03,6.83,6.83,6.84
30.08,0.98,-5.87,0.98,-5.86,5.84,5.62,7.08,6.82,6.83,6.85
30.38,1.04,-5.80,1.04,-5.80,5.80,5.59,7.13,6.84,6.84,6.84
30.68,1.10,-5.74,1.10,-5.74,5.76,5.56,7.17,6.85,6.85,6.83
30.99,1.16,-5.67,1.14,-5.69,5.70,5.54,7.19,6.86,6.84,6.82
31.30,1.17,-5.65,1.17,-5.65,5.65,5.51,7.20,6.82,6.82,6.82
31.61,1.18,-5.64,1.18,-5.63,5.61,5.48,7.21,6.78,6.79,6.82
31.93,1.20,-5.61,1.20,-5.61,5.59,5.45,7.19,6.79,6.79,6.81
32.24,1.24,-5.57,1.25,-5.55,5.60,5.42,7.17,6.83,6.85,6.80
32.57,1.29,-5.51,1.29,-5.50,5.61,5.39,7.13,6.89,6.90,6.79
32.89,1.34,-5.44,1.31,-5.48,5.59,5.36,7.09,6.92,6.89,6.78
33.22,1.28,-5.50,1.23,-5.54,5.53,5.33,7.03,6.80,6.76,6.78
33.55,1.15,-5.62,1.14,-5.63,5.44,5.30,6.97,6.60,6.58,6.77
33.89,1.04,-5.73,1.13,-5.64,5.36,5.27,6.90,6.40,6.49,6.77
34.23,1.25,-5.50,1.33,-5.43,5.28,5.24,6.82,6.54,6.61,6.76
34.57,1.64,-5.12,1.63,-5.12,5.22,5.21,6.73,6.86,6.86,6.75
34.92,2.02,-4.72,1.88,-4.86,5.16,5.18,6.64,7.18,7.04,6.74
35.27,1.95,-4.80,1.90,-4.84,5.10,5.14,6.54,7.05,7.00,6.75
35.62,1.72,-5.01,1.75,-4.97,5.03,5.11,6.44,6.75,6.79,6.72
35.97,1.49,-5.22,1.58,-5.13,4.98,5.08,6.33,6.47,6.56,6.71
36.33,1.53,-5.17,1.52,-5.17,4.97,5.04,6.22,6.50,6.49,6.70
36.70,1.59,-5.10,1.56,-5.13,5.01,5.01,6.11,6.60,6.57,6.68
37.06,1.64,-5.03,1.64,-5.03,5.08,4.97,6.00,6.71,6.71,6.67
37.43,1.66,-5.00,1.67,-4.98,5.13,4.94,5.88,6.79,6.81,6.65
37.81,1.68,-4.95,1.66,-4.97,5.14,4.90,5.77,6.81,6.79,6.63
38.19,1.60,-5.01,1.53,-5.08,5.10,4.87,5.66,6.70,6.63,6.61
38.57,1.40,-5.18,1.39,-5.19,5.04,4.83,5.55,6.43,6.43,6.58
38.95,1.21,-5.35,1.34,-5.22,4.98,4.80,5.43,6.19,6.32,6.56
39.34,1.42,-5.11,1.43,-5.10,4.95,4.76,5.33,6.37,6.37,6.53
39.74,1.66,-4.84,1.61,-4.89,4.93,4.72,5.22,6.59,6.54,6.51
40.14,1.83,-4.65,1.81,-4.67,4.91,4.68,5.11,6.74,6.72,6.48
40.54,1.84,-4.62,1.86,-4.59,4.87,4.65,5.01,6.70,6.73,6.45
40.94,1.84,-4.59,1.77,-4.66,4.79,4.61,4.91,6.63,6.56,6.43
41.35,1.63,-4.79,1.58,-4.83,4.70,4.57,4.81,6.33,6.29,6.41
41.76,1.40,-4.99,1.48,-4.91,4.62,4.53,4.72,6.02,6.10,6.39
42.18,1.43,-4.94,1.56,-4.80,4.55,4.49,4.63,5.98,6.11,6.37
42.60,1.82,-4.52,1.79,-4.55,4.48,4.45,4.54,6.30,6.28,6.34
43.03,2.19,-4.13,2.03,-4.29,4.43,4.41,4.45,6.62,6.46,6.32
43.46,2.13,-4.17,2.14,-4.15,4.38,4.37,4.37,6.50,6.52,6.30
43.90,2.06,-4.21,2.12,-4.15,4.33,4.33,4.29,6.39,6.45,6.27
44.33,2.04,-4.21,2.05,-4.19,4.29,4.29,4.22,6.33,6.35,6.24
44.78,2.03,-4.19,1.98,-4.24,4.27,4.25,4.15,6.30,6.25,6.22
45.23,1.90,-4.30,1.82,-4.37,4.26,4.21,4.08,6.16,6.08,6.20
45.68,1.65,-4.51,1.70,-4.46,4.26,4.16,4.01,5.91,5.95,6.16
46.13,1.56,-4.56,1.70,-4.43,4.24,4.12,3.95,5.80,5.94,6.12
46.60,1.85,-4.24,1.82,-4.27,4.19,4.08,3.89,6.04,6.01,6.09
47.06,2.12,-3.94,2.01,-4.05,4.11,4.04,3.83,6.23,6.12,6.06
47.53,2.12,-3.91,2.13,-3.89,4.03,3.99,3.78,6.14,6.16,6.03
48.01,2.12,-3.85,2.14,-3.84,3.95,3.95,3.73,6.07,6.10,5.97
48.49,2.12,-3.82,2.12,-3.82,3.88,3.90,3.68,6.00,6.00,5.94
48.97,2.12,-3.78,2.11,-3.79,3.83,3.86,3.63,5.95,5.94,5.90
49.46,2.08,-3.78,2.08,-3.78,3.80,3.82,3.59,5.87,5.87,5.86
49.96,2.03,-3.78,1.99,-3.82,3.77,3.77,3.55,5.80,5.77,5.81
50.46,1.94,-3.85,1.93,-3.86,3.75,3.73,3.51,5.68,5.67,5.78
50.96,1.85,-3.90,1.94,-3.81,3.70,3.68,3.47,5.55,5.64,5.75
51.47,2.02,-3.70,2.02,-3.70,3.63,3.64,3.44,5.65,5.65,5.72
51.99,2.20,-3.47,2.13,-3.55,3.56,3.59,3.41,5.76,5.69,5.67
52.51,2.22,-3.42,2.22,-3.42,3.50,3.55,3.38,5.71,5.72,5.64
53.03,2.22,-3.39,2.23,-3.37,3.45,3.50,3.35,5.67,5.68,5.61
53.56,2.22,-3.34,2.23,-3.33,3.41,3.46,3.32,5.63,5.64,5.56
54.10,2.22,-3.30,2.24,-3.28,3.38,3.41,3.29,5.60,5.62,5.52
54.64,2.22,-3.26,2.16,-3.31,3.35,3.37,3.26,5.57,5.51,5.48
55.18,2.11,-3.32,2.02,-3.41,3.32,3.32,3.24,5.43,5.34,5.43
55.74,1.83,-3.57,1.95,-3.45,3.29,3.27,3.21,5.11,5.24,5.40
56.29,1.88,-3.49,1.98,-3.38,3.24,3.23,3.19,5.12,5.23,5.37
56.86,2.22,-3.12,2.11,-3.22,3.19,3.18,3.16,5.41,5.30,5.34
57.42,2.32,-2.97,2.27,-3.02,3.12,3.14,3.14,5.44,5.40,5.28
58.00,2.32,-2.95,2.34,-2.92,3.05,3.09,3.11,5.37,5.40,5.26
58.58,2.32,-2.93,2.32,-2.91,2.96,3.04,3.08,5.28,5.29,5.24
59.16,2.32,-2.90,2.32,-2.90,2.87,3.00,3.05,5.19,5.19,5.21
59.76,2.32,-2.86,2.32,-2.86,2.81,2.95,3.03,5.13,5.13,5.18
60.35,2.32,-2.81,2.32,-2.82,2.80,2.91,3.00,5.11,5.11,5.13
60.96,2.32,-2.78,2.32,-2.78,2.81,2.86,2.97,5.12,5.12,5.10
61.57,2.32,-2.73,2.34,-2.70,2.81,2.81,2.93,5.13,5.15,5.04
62.18,2.32,-2.67,2.33,-2.66,2.77,2.77,2.90,5.09,5.10,4.99
62.80,2.31,-2.62,2.19,-2.75,2.69,2.72,2.86,5.01,4.88,4.94
63.43,2.09,-2.80,2.07,-2.82,2.61,2.68,2.83,4.69,4.68,4.89
64.07,1.85,-3.00,2.07,-2.77,2.52,2.63,2.79,4.37,4.60,4.84
64.71,2.28,-2.52,2.29,-2.51,2.45,2.58,2.75,4.73,4.74,4.81
65.35,2.63,-2.13,2.56,-2.21,2.38,2.54,2.71,5.01,4.94,4.76
66.01,2.89,-1.84,2.69,-2.03,2.32,2.49,2.66,5.20,5.00,4.72
66.67,2.51,-2.18,2.59,-2.09,2.25,2.45,2.62,4.76,4.84,4.68
67.33,2.32,-2.31,2.42,-2.21,2.19,2.40,2.57,4.50,4.61,4.62
68.01,2.32,-2.27,2.29,-2.30,2.15,2.36,2.53,4.46,4.43,4.58
68.69,2.32,-2.23,2.30,-2.24,2.14,2.31,2.48,4.46,4.44,4.54
69.37,2.32,-2.18,2.32,-2.18,2.15,2.27,2.43,4.46,4.46,4.50
70.07,2.32,-2.13,2.32,-2.13,2.14,2.22,2.38,4.45,4.45,4.45
70.77,2.32,-2.09,2.32,-2.09,2.10,2.18,2.33,4.41,4.41,4.40
71.48,2.32,-2.04,2.32,-2.04,2.03,2.13,2.28,4.35,4.35,4.36
72.19,2.32,-2.00,2.30,-2.01,1.97,2.09,2.23,4.29,4.28,4.31
72.91,2.32,-1.94,2.31,-1.95,1.94,2.04,2.18,4.25,4.25,4.26
73.64,2.32,-1.89,2.43,-1.78,1.91,2.00,2.13,4.22,4.34,4.21
74.38,2.46,-1.72,2.39,-1.78,1.88,1.95,2.08,4.33,4.27,4.17
75.12,2.56,-1.57,2.29,-1.84,1.85,1.91,2.03,4.41,4.14,4.13
75.87,1.91,-2.20,2.22,-1.88,1.81,1.87,1.97,3.72,4.03,4.10
76.63,2.13,-1.93,2.16,-1.90,1.78,1.82,1.92,3.91,3.94,4.05
77.40,2.32,-1.71,2.18,-1.84,1.76,1.78,1.87,4.08,3.94,4.02
78.17,2.32,-1.67,2.33,-1.66,1.74,1.73,1.82,4.06,4.07,3.98
78.95,2.32,-1.64,2.33,-1.62,1.71,1.69,1.78,4.02,4.04,3.96
79.74,2.32,-1.61,2.32,-1.61,1.64,1.65,1.73,3.95,3.95,3.93
80.54,2.32,-1.58,2.32,-1.58,1.55,1.60,1.68,3.86,3.86,3.89
81.35,2.32,-1.54,2.28,-1.58,1.46,1.56,1.63,3.78,3.74,3.86
82.16,2.32,-1.52,2.33,-1.49,1.40,1.52,1.59,3.71,3.73,3.83
82.98,2.31,-1.48,2.45,-1.33,1.37,1.48,1.54,3.68,3.83,3.79
83.81,2.68,-1.07,2.55,-1.20,1.36,1.43,1.50,4.03,3.90,3.75
84.65,2.64,-1.07,2.54,-1.17,1.32,1.39,1.45,3.96,3.87,3.71
85.50,2.40,-1.27,2.45,-1.22,1.28,1.35,1.41,3.68,3.73,3.67
86.35,2.22,-1.42,2.28,-1.35,1.23,1.31,1.37,3.45,3.52,3.63
87.22,2.22,-1.38,2.18,-1.42,1.21,1.26,1.33,3.42,3.38,3.59
88.09,2.22,-1.34,2.20,-1.35,1.21,1.22,1.29,3.42,3.41,3.55
88.97,2.22,-1.30,2.36,-1.15,1.23,1.18,1.25,3.45,3.59,3.51
89.86,2.50,-0.97,2.44,-1.02,1.24,1.14,1.21,3.74,3.68,3.47
90.76,2.63,-0.80,2.37,-1.05,1.22,1.10,1.18,3.85,3.59,3.43
91.66,2.12,-1.25,2.23,-1.15,1.17,1.06,1.14,3.30,3.40,3.38
92.58,1.89,-1.45,2.07,-1.26,1.10,1.02,1.10,2.99,3.17,3.33
93.51,2.07,-1.22,2.01,-1.27,1.04,0.98,1.07,3.10,3.05,3.29
94.44,2.23,-1.02,2.13,-1.11,0.99,0.94,1.04,3.22,3.12,3.24
95.39,2.23,-0.96,2.28,-0.91,0.96,0.90,1.00,3.19,3.24,3.19
96.34,2.32,-0.82,2.39,-0.75,0.91,0.86,0.97,3.23,3.30,3.14
97.30,2.51,-0.57,2.39,-0.69,0.84,0.82,0.94,3.35,3.23,3.08
98.28,2.40,-0.63,2.33,-0.69,0.77,0.78,0.91,3.16,3.10,3.02
99.26,2.10,-0.86,2.21,-0.76,0.71,0.74,0.88,2.80,2.91,2.96
100.25,2.08,-0.83,2.10,-0.81,0.68,0.70,0.85,2.75,2.78,2.90
101.25,2.10,-0.76,2.10,-0.76,0.68,0.66,0.82,2.78,2.78,2.86
102.27,2.18,-0.63,2.15,-0.65,0.71,0.62,0.79,2.88,2.85,2.80
103.29,2.15,-0.60,2.12,-0.63,0.72,0.58,0.77,2.86,2.84,2.74
104.32,2.06,-0.64,2.04,-0.65,0.70,0.55,0.74,2.76,2.75,2.70
105.37,1.90,-0.74,1.94,-0.69,0.67,0.51,0.71,2.57,2.61,2.63
106.42,1.87,-0.72,1.86,-0.72,0.63,0.47,0.69,2.49,2.49,2.59
107.48,1.85,-0.67,1.81,-0.71,0.60,0.44,0.66,2.45,2.41,2.52
108.56,1.82,-0.66,1.85,-0.62,0.59,0.40,0.64,2.41,2.45,2.47
109.64,1.86,-0.56,1.93,-0.48,0.57,0.36,0.61,2.43,2.51,2.42
110.74,2.06,-0.31,1.94,-0.42,0.53,0.33,0.59,2.59,2.48,2.36
111.85,1.98,-0.34,1.89,-0.43,0.48,0.29,0.57,2.46,2.37,2.32
112.97,1.67,-0.60,1.77,-0.49,0.44,0.26,0.54,2.10,2.21,2.27
114.10,1.66,-0.57,1.68,-0.54,0.41,0.23,0.52,2.06,2.09,2.22
115.24,1.69,-0.47,1.73,-0.44,0.39,0.19,0.50,2.08,2.12,2.16
116.39,1.86,-0.26,1.82,-0.29,0.38,0.16,0.48,2.23,2.20,2.12
117.55,1.94,-0.14,1.81,-0.25,0.35,0.13,0.46,2.28,2.16,2.07
118.73,1.69,-0.34,1.73,-0.30,0.30,0.10,0.44,1.99,2.03,2.03
119.92,1.57,-0.42,1.62,-0.37,0.26,0.06,0.41,1.83,1.88,1.98
121.12,1.59,-0.38,1.61,-0.35,0.24,0.03,0.39,1.83,1.85,1.96
122.33,1.69,-0.23,1.71,-0.21,0.25,0.00,0.37,1.94,1.96,1.92
123.55,1.83,-0.06,1.77,-0.12,0.27,-0.03,0.35,2.10,2.04,1.89
124.79,1.79,-0.07,1.71,-0.14,0.29,-0.05,0.33,2.07,2.00,1.86
126.03,1.52,-0.30,1.56,-0.26,0.29,-0.08,0.31,1.81,1.85,1.82
127.29,1.34,-0.44,1.34,-0.44,0.30,-0.11,0.29,1.63,1.63,1.78
128.57,1.24,-0.50,1.28,-0.46,0.30,-0.14,0.27,1.54,1.58,1.74
129.85,1.25,-0.46,1.37,-0.34,0.30,-0.16,0.25,1.55,1.67,1.71
131.15,1.61,-0.06,1.45,-0.22,0.29,-0.19,0.23,1.89,1.74,1.67
132.46,1.54,-0.10,1.44,-0.19,0.24,-0.21,0.21,1.78,1.68,1.63
133.79,1.32,-0.27,1.38,-0.20,0.18,-0.24,0.19,1.49,1.56,1.59
135.12,1.22,-0.33,1.38,-0.18,0.10,-0.26,0.17,1.31,1.47,1.55
136.48,1.52,0.00,1.49,-0.02,0.01,-0.28,0.15,1.52,1.50,1.51
137.84,1.77,0.29,1.61,0.14,-0.07,-0.30,0.13,1.70,1.55,1.48
139.22,1.65,0.22,1.64,0.20,-0.13,-0.32,0.11,1.52,1.51,1.43
140.61,1.50,0.09,1.56,0.16,-0.17,-0.34,0.09,1.32,1.39,1.40
142.02,1.47,0.10,1.53,0.17,-0.21,-0.36,0.07,1.25,1.31,1.36
143.44,1.59,0.26,1.58,0.25,-0.24,-0.38,0.05,1.34,1.34,1.32
144.87,1.69,0.40,1.61,0.32,-0.26,-0.40,0.03,1.42,1.34,1.29
146.32,1.59,0.34,1.56,0.31,-0.27,-0.42,0.01,1.32,1.29,1.25
147.78,1.41,0.19,1.46,0.25,-0.28,-0.44,-0.01,1.13,1.18,1.21
149.26,1.37,0.19,1.37,0.20,-0.29,-0.45,-0.03,1.07,1.08,1.17
150.75,1.37,0.24,1.39,0.26,-0.31,-0.47,-0.05,1.06,1.08,1.13
152.26,1.43,0.33,1.46,0.36,-0.33,-0.48,-0.07,1.10,1.13,1.10
153.78,1.56,0.50,1.47,0.41,-0.35,-0.50,-0.09,1.21,1.12,1.06
155.32,1.45,0.42,1.42,0.39,-0.37,-0.51,-0.11,1.08,1.05,1.03
156.88,1.29,0.30,1.36,0.37,-0.40,-0.52,-0.13,0.89,0.96,0.99
158.44,1.28,0.33,1.33,0.38,-0.43,-0.54,-0.16,0.85,0.90,0.94
160.03,1.39,0.48,1.35,0.45,-0.45,-0.55,-0.18,0.94,0.90,0.90
161.63,1.42,0.56,1.34,0.49,-0.44,-0.56,-0.20,0.97,0.90,0.86
163.24,1.27,0.46,1.30,0.49,-0.43,-0.57,-0.22,0.83,0.86,0.81
164.88,1.17,0.40,1.21,0.44,-0.43,-0.58,-0.25,0.73,0.78,0.77
166.53,1.17,0.45,1.14,0.42,-0.44,-0.59,-0.27,0.73,0.70,0.72
168.19,1.11,0.42,1.10,0.42,-0.44,-0.60,-0.30,0.66,0.65,0.68
169.87,1.06,0.42,1.04,0.40,-0.45,-0.61,-0.32,0.61,0.59,0.63
171.57,0.98,0.39,1.00,0.41,-0.45,-0.62,-0.35,0.53,0.56,0.59
173.29,0.97,0.41,1.02,0.47,-0.45,-0.62,-0.37,0.51,0.56,0.55
175.02,1.07,0.56,1.02,0.51,-0.48,-0.63,-0.40,0.59,0.54,0.51
176.77,1.06,0.60,0.99,0.53,-0.50,-0.64,-0.42,0.55,0.49,0.46
178.54,0.90,0.47,0.94,0.51,-0.53,-0.64,-0.45,0.37,0.41,0.43
180.32,0.85,0.46,0.91,0.53,-0.54,-0.65,-0.48,0.30,0.37,0.38
182.13,0.92,0.57,0.91,0.57,-0.57,-0.66,-0.50,0.35,0.35,0.34
183.95,1.02,0.71,0.92,0.62,-0.59,-0.66,-0.53,0.43,0.33,0.31
185.79,0.87,0.60,0.90,0.63,-0.61,-0.67,-0.56,0.26,0.29,0.27
187.65,0.81,0.57,0.83,0.60,-0.63,-0.67,-0.59,0.17,0.20,0.24
189.52,0.81,0.61,0.81,0.61,-0.66,-0.68,-0.62,0.14,0.15,0.20
191.42,0.84,0.66,0.86,0.69,-0.69,-0.68,-0.65,0.14,0.17,0.18
193.33,0.94,0.80,0.89,0.75,-0.72,-0.68,-0.68,0.21,0.17,0.14
195.27,0.91,0.81,0.87,0.77,-0.75,-0.69,-0.71,0.16,0.12,0.10
197.22,0.81,0.74,0.84,0.78,-0.77,-0.69,-0.74,0.04,0.07,0.06
199.19,0.78,0.74,0.82,0.79,-0.80,-0.69,-0.77,-0.02,0.03,0.04
201.18,0.85,0.85,0.83,0.82,-0.82,-0.70,-0.80,0.02,0.00,-0.00
203.19,0.88,0.90,0.82,0.84,-0.84,-0.70,-0.83,0.04,-0.02,-0.03
205.23,0.77,0.82,0.78,0.84,-0.84,-0.70,-0.86,-0.07,-0.06,-0.05
207.28,0.70,0.77,0.75,0.83,-0.85,-0.71,-0.89,-0.15,-0.10,-0.08
209.35,0.73,0.85,0.73,0.85,-0.85,-0.71,-0.91,-0.13,-0.12,-0.12
211.44,0.78,0.92,0.72,0.87,-0.86,-0.71,-0.94,-0.08,-0.14,-0.15
213.56,0.70,0.88,0.68,0.86,-0.86,-0.72,-0.97,-0.16,-0.17,-0.18
215.69,0.60,0.80,0.64,0.85,-0.85,-0.72,-1.00,-0.25,-0.21,-0.20
217.85,0.59,0.81,0.61,0.84,-0.84,-0.72,-1.02,-0.25,-0.23,-0.23
220.03,0.64,0.90,0.59,0.85,-0.83,-0.72,-1.05,-0.19,-0.24,-0.27
222.23,0.57,0.86,0.54,0.84,-0.82,-0.73,-1.07,-0.25,-0.27,-0.29
224.45,0.46,0.77,0.48,0.79,-0.80,-0.73,-1.09,-0.35,-0.33,-0.31
226.70,0.40,0.73,0.43,0.76,-0.79,-0.73,-1.11,-0.39,-0.36,-0.33
228.96,0.42,0.76,0.42,0.77,-0.78,-0.73,-1.13,-0.36,-0.36,-0.34
231.25,0.47,0.83,0.41,0.77,-0.77,-0.73,-1.15,-0.31,-0.36,-0.36
233.57,0.39,0.76,0.39,0.77,-0.76,-0.73,-1.16,-0.38,-0.38,-0.37
235.90,0.33,0.72,0.37,0.76,-0.76,-0.74,-1.17,-0.43,-0.39,-0.39
238.26,0.35,0.75,0.36,0.76,-0.75,-0.74,-1.18,-0.41,-0.39,-0.40
240.64,0.41,0.80,0.37,0.77,-0.75,-0.73,-1.19,-0.35,-0.39,-0.39
243.05,0.38,0.78,0.36,0.76,-0.76,-0.73,-1.20,-0.38,-0.39,-0.40
245.48,0.32,0.72,0.35,0.75,-0.76,-0.73,-1.20,-0.44,-0.41,-0.40
247.93,0.33,0.73,0.33,0.73,-0.76,-0.73,-1.20,-0.43,-0.43,-0.41
250.41,0.35,0.74,0.34,0.74,-0.76,-0.72,-1.19,-0.41,-0.42,-0.40
252.92,0.36,0.75,0.36,0.76,-0.75,-0.72,-1.19,-0.39,-0.39,-0.39
255.45,0.38,0.79,0.37,0.77,-0.74,-0.71,-1.18,-0.36,-0.37,-0.41
258.00,0.36,0.77,0.34,0.76,-0.73,-0.71,-1.17,-0.37,-0.38,-0.42
260.58,0.30,0.72,0.29,0.71,-0.71,-0.70,-1.15,-0.41,-0.42,-0.42
263.19,0.22,0.65,0.24,0.67,-0.69,-0.69,-1.14,-0.48,-0.45,-0.43
265.82,0.20,0.63,0.21,0.66,-0.68,-0.67,-1.12,-0.48,-0.46,-0.44
268.48,0.22,0.67,0.19,0.64,-0.66,-0.66,-1.09,-0.44,-0.47,-0.45
271.16,0.18,0.65,0.15,0.62,-0.63,-0.65,-1.07,-0.45,-0.48,-0.47
273.87,0.09,0.56,0.12,0.60,-0.60,-0.63,-1.04,-0.52,-0.48,-0.47
276.61,0.09,0.58,0.10,0.59,-0.57,-0.61,-1.02,-0.49,-0.47,-0.49
279.38,0.11,0.61,0.09,0.59,-0.55,-0.59,-0.99,-0.44,-0.46,-0.51
282.17,0.10,0.60,0.06,0.56,-0.53,-0.57,-0.95,-0.43,-0.47,-0.50
284.99,-0.01,0.49,-0.01,0.50,-0.51,-0.55,-0.92,-0.52,-0.51,-0.51
287.84,-0.10,0.40,-0.06,0.44,-0.49,-0.53,-0.89,-0.59,-0.55,-0.50
290.72,-0.08,0.43,-0.09,0.42,-0.47,-0.51,-0.85,-0.56,-0.57,-0.51
293.63,-0.06,0.46,-0.07,0.44,-0.46,-0.49,-0.81,-0.52,-0.53,-0.52
296.57,-0.05,0.46,-0.04,0.47,-0.45,-0.46,-0.77,-0.50,-0.49,-0.51
299.53,-0.02,0.48,-0.04,0.47,-0.44,-0.44,-0.74,-0.46,-0.49,-0.51
302.53,-0.05,0.46,-0.06,0.45,-0.43,-0.41,-0.70,-0.49,-0.49,-0.51
305.55,-0.10,0.41,-0.08,0.43,-0.42,-0.39,-0.66,-0.53,-0.50,-0.52
308.61,-0.10,0.41,-0.10,0.41,-0.40,-0.36,-0.62,-0.51,-0.51,-0.51
311.69,-0.10,0.41,-0.12,0.39,-0.38,-0.33,-0.57,-0.48,-0.51,-0.51
314.81,-0.16,0.35,-0.16,0.36,-0.35,-0.31,-0.53,-0.52,-0.51,-0.52
317.96,-0.20,0.32,-0.21,0.31,-0.33,-0.28,-0.49,-0.53,-0.53,-0.52
321.14,-0.26,0.26,-0.25,0.27,-0.30,-0.25,-0.45,-0.56,-0.55,-0.52
324.35,-0.28,0.24,-0.28,0.24,-0.27,-0.23,-0.41,-0.55,-0.55,-0.53
327.59,-0.28,0.23,-0.28,0.24,-0.24,-0.20,-0.36,-0.52,-0.52,-0.52
330.87,-0.28,0.24,-0.28,0.24,-0.20,-0.17,-0.32,-0.49,-0.49,-0.52
334.18,-0.29,0.24,-0.32,0.21,-0.17,-0.14,-0.28,-0.47,-0.49,-0.53
337.52,-0.37,0.15,-0.38,0.15,-0.14,-0.12,-0.24,-0.52,-0.52,-0.53
340.90,-0.46,0.06,-0.44,0.08,-0.11,-0.09,-0.20,-0.57,-0.54,-0.52
344.30,-0.48,0.03,-0.48,0.04,-0.07,-0.06,-0.15,-0.55,-0.54,-0.51
347.75,-0.48,0.03,-0.49,0.02,-0.03,-0.03,-0.11,-0.51,-0.52,-0.51
351.23,-0.49,0.02,-0.51,0.00,0.02,-0.01,-0.07,-0.48,-0.49,-0.52
354.74,-0.54,-0.05,-0.55,-0.04,0.06,0.02,-0.03,-0.49,-0.49,-0.50
358.28,-0.60,-0.10,-0.60,-0.10,0.10,0.05,0.01,-0.51,-0.50,-0.50
361.87,-0.65,-0.16,-0.64,-0.15,0.13,0.08,0.06,-0.52,-0.51,-0.49
365.49,-0.66,-0.18,-0.66,-0.18,0.17,0.11,0.10,-0.49,-0.49,-0.48
369.14,-0.65,-0.18,-0.67,-0.19,0.21,0.14,0.14,-0.45,-0.46,-0.48
372.83,-0.69,-0.23,-0.70,-0.22,0.24,0.16,0.18,-0.45,-0.46,-0.47
376.56,-0.73,-0.25,-0.74,-0.27,0.27,0.19,0.22,-0.47,-0.47,-0.48
380.33,-0.79,-0.32,-0.78,-0.31,0.28,0.22,0.26,-0.51,-0.50,-0.47
384.13,-0.81,-0.34,-0.81,-0.34,0.30,0.25,0.30,-0.51,-0.51,-0.47
387.97,-0.80,-0.34,-0.81,-0.34,0.32,0.28,0.35,-0.48,-0.49,-0.46
391.85,-0.80,-0.34,-0.79,-0.32,0.35,0.31,0.39,-0.46,-0.45,-0.47
395.77,-0.79,-0.32,-0.80,-0.32,0.37,0.34,0.43,-0.42,-0.43,-0.48
399.73,-0.80,-0.31,-0.83,-0.35,0.39,0.37,0.47,-0.41,-0.44,-0.49
403.72,-0.89,-0.41,-0.89,-0.41,0.41,0.40,0.51,-0.49,-0.49,-0.48
407.76,-0.98,-0.49,-0.96,-0.47,0.43,0.43,0.55,-0.56,-0.53,-0.49
411.84,-1.00,-0.50,-1.00,-0.50,0.45,0.46,0.59,-0.55,-0.55,-0.50
415.96,-1.00,-0.50,-1.01,-0.50,0.49,0.49,0.63,-0.52,-0.52,-0.50
420.12,-1.00,-0.49,-1.00,-0.49,0.52,0.52,0.67,-0.48,-0.48,-0.52
424.32,-0.99,-0.49,-1.02,-0.51,0.56,0.54,0.71,-0.44,-0.46,-0.51
428.56,-1.05,-0.57,-1.05,-0.56,0.58,0.57,0.74,-0.47,-0.47,-0.49
432.85,-1.09,-0.63,-1.09,-0.62,0.60,0.60,0.78,-0.49,-0.49,-0.47
437.18,-1.12,-0.67,-1.11,-0.67,0.62,0.63,0.82,-0.50,-0.49,-0.45
441.55,-1.10,-0.68,-1.10,-0.68,0.64,0.66,0.85,-0.46,-0.46,-0.42
445.96,-1.06,-0.68,-1.06,-0.68,0.67,0.69,0.89,-0.39,-0.39,-0.38
450.42,-1.00,-0.67,-1.01,-0.68,0.70,0.71,0.92,-0.31,-0.32,-0.33
454.93,-0.95,-0.67,-0.97,-0.69,0.72,0.74,0.96,-0.23,-0.25,-0.28
459.48,-0.97,-0.74,-0.95,-0.72,0.75,0.77,0.99,-0.22,-0.20,-0.23
464.07,-0.92,-0.76,-0.94,-0.77,0.78,0.79,1.02,-0.14,-0.16,-0.17
468.71,-0.93,-0.83,-0.92,-0.81,0.81,0.82,1.05,-0.12,-0.11,-0.11
473.40,-0.90,-0.85,-0.91,-0.86,0.84,0.85,1.08,-0.06,-0.07,-0.06
478.13,-0.89,-0.90,-0.91,-0.91,0.88,0.87,1.11,-0.02,-0.03,0.00
482.91,-0.90,-0.96,-0.89,-0.94,0.91,0.90,1.13,0.01,0.02,0.05
487.74,-0.87,-0.98,-0.86,-0.96,0.95,0.92,1.16,0.08,0.09,0.10
492.62,-0.81,-0.95,-0.82,-0.96,0.99,0.95,1.18,0.17,0.17,0.14
497.55,-0.77,-0.94,-0.80,-0.97,1.02,0.97,1.20,0.25,0.22,0.17
502.52,-0.82,-1.02,-0.82,-1.02,1.05,1.00,1.23,0.22,0.23,0.20
507.55,-0.86,-1.09,-0.87,-1.09,1.07,1.03,1.24,0.21,0.21,0.23
512.62,-0.92,-1.16,-0.90,-1.14,1.09,1.05,1.26,0.17,0.19,0.24
517.75,-0.92,-1.17,-0.92,-1.17,1.12,1.08,1.28,0.19,0.20,0.25
522.93,-0.91,-1.15,-0.92,-1.16,1.15,1.11,1.30,0.24,0.23,0.24
528.16,-0.93,-1.16,-0.93,-1.15,1.18,1.14,1.31,0.25,0.26,0.23
