frequency,raw,error,smoothed,error_smoothed,equalization,parametric_eq,fixed_band_eq,equalized_raw,equalized_smoothed,target
20.00,-13.78,-17.64,-13.79,-17.65,6.00,6.07,2.72,-7.78,-7.79,3.86
20.20,-13.63,-17.50,-13.63,-17.49,6.00,6.06,2.80,-7.63,-7.63,3.87
20.40,-13.49,-17.37,-13.48,-17.35,6.00,6.06,2.87,-7.49,-7.48,3.88
20.61,-13.34,-17.22,-13.33,-17.21,6.00,6.06,2.96,-7.34,-7.33,3.88
20.81,-13.19,-17.07,-13.19,-17.08,6.00,6.06,3.04,-7.19,-7.19,3.89
21.02,-13.05,-16.94,-13.07,-16.96,6.00,6.06,3.13,-7.05,-7.07,3.89
21.23,-12.97,-16.87,-12.96,-16.86,6.00,6.06,3.21,-6.97,-6.96,3.90
21.44,-12.89,-16.78,-12.88,-16.78,6.00,6.06,3.31,-6.89,-6.88,3.90
21.66,-12.81,-16.71,-12.81,-16.71,6.00,6.06,3.40,-6.81,-6.81,3.90
21.87,-12.73,-16.62,-12.73,-16.63,6.00,6.06,3.50,-6.73,-6.73,3.90
22.09,-12.65,-16.55,-12.65,-16.55,6.00,6.06,3.59,-6.65,-6.65,3.91
22.31,-12.58,-16.48,-12.58,-16.48,6.00,6.06,3.70,-6.58,-6.58,3.90
22.54,-12.50,-16.39,-12.50,-16.40,6.00,6.06,3.80,-6.50,-6.50,3.89
22.76,-12.43,-16.31,-12.43,-16.32,6.00,6.06,3.91,-6.43,-6.43,3.88
22.99,-12.35,-16.23,-12.35,-16.23,6.00,6.06,4.02,-6.35,-6.35,3.88
23.22,-12.28,-16.16,-12.28,-16.16,6.00,6.06,4.13,-6.28,-6.28,3.88
23.45,-12.20,-16.07,-12.20,-16.08,6.00,6.06,4.24,-6.20,-6.20,3.87
23.69,-12.12,-15.99,-12.12,-16.00,6.00,6.06,4.36,-6.12,-6.12,3.87
23.92,-12.04,-15.91,-12.03,-15.90,6.00,6.06,4.48,-6.04,-6.03,3.87
24.16,-11.92,-15.79,-11.91,-15.78,6.00,6.06,4.60,-5.92,-5.91,3.87
24.40,-11.77,-15.64,-11.77,-15.64,6.00,6.06,4.73,-5.77,-5.77,3.87
24.65,-11.62,-15.49,-11.61,-15.48,6.00,6.06,4.85,-5.62,-5.61,3.87
24.89,-11.46,-15.33,-11.47,-15.34,6.00,6.06,4.98,-5.46,-5.47,3.87
25.14,-11.34,-15.21,-11.34,-15.21,6.00,6.06,5.11,-5.34,-5.34,3.87
25.39,-11.24,-15.10,-11.23,-15.09,6.00,6.06,5.24,-5.24,-5.23,3.86
25.65,-11.14,-15.00,-11.13,-14.99,6.00,6.06,5.37,-5.14,-5.13,3.86
25.91,-11.04,-14.90,-11.05,-14.91,6.00,6.06,5.50,-5.04,-5.05,3.86
26.16,-10.98,-14.83,-10.98,-14.84,6.00,6.06,5.64,-4.98,-4.98,3.86
26.43,-10.94,-14.79,-10.95,-14.80,6.00,6.06,5.77,-4.94,-4.95,3.86
26.69,-10.90,-14.75,-10.91,-14.76,6.00,6.06,5.90,-4.90,-4.91,3.85
26.96,-10.87,-14.72,-10.83,-14.68,6.00,6.06,6.03,-4.87,-4.83,3.85
27.23,-10.70,-14.55,-10.70,-14.55,6.00,6.06,6.15,-4.70,-4.70,3.85
27.50,-10.51,-14.36,-10.51,-14.36,6.00,6.06,6.28,-4.51,-4.51,3.85
27.77,-10.32,-14.17,-10.32,-14.18,6.00,6.06,6.40,-4.32,-4.32,3.85
28.05,-10.16,-14.01,-10.18,-14.03,6.00,6.06,6.52,-4.16,-4.18,3.85
28.33,-10.10,-13.95,-10.09,-13.94,6.00,6.06,6.63,-4.10,-4.09,3.85
28.62,-10.03,-13.88,-10.02,-13.88,6.00,6.06,6.74,-4.03,-4.02,3.85
28.90,-9.97,-13.83,-9.97,-13.82,6.00,6.06,6.84,-3.97,-3.97,3.86
29.19,-9.90,-13.75,-9.90,-13.75,6.00,6.05,6.93,-3.90,-3.90,3.86
29.48,-9.82,-13.67,-9.82,-13.68,6.00,6.05,7.02,-3.82,-3.82,3.86
29.78,-9.74,-13.60,-9.74,-13.60,6.00,6.05,7.10,-3.74,-3.74,3.86
30.08,-9.66,-13.52,-9.65,-13.52,6.00,6.05,7.16,-3.66,-3.65,3.86
30.38,-9.56,-13.42,-9.56,-13.42,6.00,6.05,7.23,-3.56,-3.56,3.86
30.68,-9.47,-13.33,-9.47,-13.33,6.00,6.05,7.27,-3.47,-3.47,3.86
30.99,-9.37,-13.23,-9.37,-13.23,6.00,6.05,7.32,-3.37,-3.37,3.86
31.30,-9.29,-13.15,-9.28,-13.14,6.00,6.05,7.35,-3.29,-3.28,3.86
31.61,-9.20,-13.06,-9.20,-13.06,6.00,6.05,7.37,-3.20,-3.20,3.86
31.93,-9.12,-12.97,-9.13,-12.98,6.00,6.05,7.38,-3.12,-3.13,3.85
32.24,-9.06,-12.90,-9.06,-12.90,6.00,6.05,7.38,-3.06,-3.06,3.84
32.57,-9.00,-12.84,-9.00,-12.84,6.00,6.05,7.37,-3.00,-3.00,3.84
32.89,-8.94,-12.78,-8.94,-12.78,6.00,6.04,7.35,-2.94,-2.94,3.84
33.22,-8.89,-12.72,-8.90,-12.73,6.00,6.04,7.33,-2.89,-2.90,3.83
33.55,-8.85,-12.67,-8.86,-12.68,6.00,6.04,7.29,-2.85,-2.86,3.83
33.89,-8.81,-12.62,-8.78,-12.59,6.00,6.04,7.25,-2.81,-2.78,3.81
34.23,-8.65,-12.46,-8.62,-12.43,6.00,6.04,7.21,-2.65,-2.62,3.81
34.57,-8.42,-12.23,-8.42,-12.23,6.00,6.04,7.15,-2.42,-2.42,3.81
34.92,-8.19,-12.00,-8.23,-12.04,6.00,6.04,7.10,-2.19,-2.23,3.81
35.27,-8.10,-11.91,-8.11,-11.92,6.00,6.03,7.04,-2.10,-2.11,3.81
35.62,-8.05,-11.85,-8.04,-11.84,6.00,6.03,6.97,-2.05,-2.04,3.80
35.97,-8.00,-11.80,-7.97,-11.77,6.00,6.03,6.91,-2.00,-1.97,3.80
36.33,-7.88,-11.68,-7.86,-11.66,6.00,6.03,6.84,-1.88,-1.86,3.80
36.70,-7.74,-11.54,-7.75,-11.55,6.00,6.03,6.77,-1.74,-1.75,3.80
37.06,-7.64,-11.43,-7.68,-11.48,6.00,6.03,6.70,-1.64,-1.68,3.79
37.43,-7.68,-11.47,-7.67,-11.47,6.00,6.02,6.63,-1.68,-1.67,3.79
37.81,-7.72,-11.52,-7.70,-11.49,6.00,6.02,6.56,-1.72,-1.70,3.80
38.19,-7.72,-11.51,-7.71,-11.50,6.00,6.02,6.50,-1.72,-1.71,3.80
38.57,-7.68,-11.47,-7.68,-11.48,6.00,6.02,6.43,-1.68,-1.68,3.79
38.95,-7.63,-11.43,-7.64,-11.43,6.00,6.02,6.37,-1.63,-1.64,3.80
39.34,-7.59,-11.38,-7.59,-11.38,6.00,6.01,6.31,-1.59,-1.59,3.80
39.74,-7.54,-11.33,-7.54,-11.33,6.00,6.01,6.25,-1.54,-1.54,3.79
40.14,-7.49,-11.28,-7.50,-11.29,6.00,6.01,6.20,-1.49,-1.50,3.79
40.54,-7.42,-11.21,-7.43,-11.22,6.00,6.01,6.15,-1.42,-1.43,3.79
40.94,-7.35,-11.13,-7.30,-11.08,6.00,6.00,6.10,-1.35,-1.30,3.78
41.35,-7.13,-10.91,-7.11,-10.88,6.00,6.00,6.06,-1.13,-1.11,3.78
41.76,-6.89,-10.65,-6.93,-10.70,6.00,6.00,6.02,-0.89,-0.93,3.76
42.18,-6.76,-10.52,-6.81,-10.57,6.00,6.00,5.98,-0.76,-0.81,3.76
42.60,-6.80,-10.55,-6.78,-10.53,6.00,5.99,5.95,-0.80,-0.78,3.76
43.03,-6.82,-10.57,-6.77,-10.52,6.00,5.99,5.93,-0.82,-0.77,3.75
43.46,-6.74,-10.49,-6.74,-10.49,6.00,5.99,5.91,-0.74,-0.74,3.75
43.90,-6.66,-10.39,-6.68,-10.41,6.00,5.98,5.89,-0.66,-0.68,3.73
44.33,-6.60,-10.32,-6.61,-10.33,6.00,5.98,5.87,-0.60,-0.61,3.73
44.78,-6.55,-10.27,-6.53,-10.25,6.00,5.98,5.87,-0.55,-0.53,3.72
45.23,-6.46,-10.18,-6.43,-10.15,6.00,5.98,5.86,-0.46,-0.43,3.72
45.68,-6.32,-10.03,-6.33,-10.05,6.00,5.97,5.86,-0.32,-0.33,3.71
46.13,-6.23,-9.94,-6.28,-9.99,6.00,5.97,5.87,-0.23,-0.28,3.71
46.60,-6.28,-9.99,-6.27,-9.98,6.00,5.97,5.88,-0.28,-0.27,3.71
47.06,-6.31,-10.02,-6.26,-9.98,6.00,5.96,5.89,-0.31,-0.26,3.71
47.53,-6.27,-9.98,-6.26,-9.98,6.00,5.96,5.91,-0.27,-0.26,3.72
48.01,-6.22,-9.94,-6.29,-10.01,6.00,5.96,5.93,-0.22,-0.29,3.72
48.49,-6.32,-10.04,-6.33,-10.05,6.00,5.95,5.95,-0.32,-0.33,3.72
48.97,-6.42,-10.14,-6.32,-10.05,6.00,5.95,5.98,-0.42,-0.32,3.73
49.46,-6.29,-10.02,-6.28,-10.01,6.00,5.95,6.01,-0.29,-0.28,3.73
49.96,-6.13,-9.87,-6.22,-9.95,6.00,5.94,6.05,-0.13,-0.22,3.74
50.46,-6.18,-9.92,-6.18,-9.92,6.00,5.94,6.08,-0.18,-0.18,3.74
50.96,-6.24,-9.99,-6.23,-9.98,6.00,5.94,6.12,-0.24,-0.23,3.75
51.47,-6.26,-10.01,-6.27,-10.03,6.00,5.93,6.17,-0.26,-0.27,3.76
51.99,-6.29,-10.05,-6.20,-9.96,6.00,5.93,6.21,-0.29,-0.20,3.76
52.51,-6.10,-9.86,-6.11,-9.86,6.00,5.93,6.25,-0.10,-0.11,3.76
53.03,-5.93,-9.69,-6.04,-9.80,6.00,5.93,6.30,0.07,-0.04,3.76
53.56,-6.02,-9.78,-6.00,-9.76,6.00,5.92,6.35,-0.02,0.00,3.76
54.10,-6.07,-9.84,-6.01,-9.77,6.00,5.92,6.39,-0.07,-0.01,3.77
54.64,-5.99,-9.76,-6.00,-9.77,6.00,5.92,6.44,0.01,-0.00,3.77
55.18,-5.91,-9.68,-5.93,-9.69,6.00,5.92,6.48,0.09,0.07,3.77
55.74,-5.84,-9.60,-5.84,-9.60,6.00,5.92,6.52,0.16,0.16,3.76
56.29,-5.75,-9.50,-5.75,-9.50,6.00,5.92,6.56,0.25,0.25,3.76
56.86,-5.65,-9.40,-5.64,-9.39,6.00,5.92,6.60,0.35,0.36,3.75
57.42,-5.52,-9.26,-5.52,-9.26,6.00,5.92,6.63,0.48,0.48,3.74
58.00,-5.39,-9.12,-5.40,-9.13,6.00,5.93,6.66,0.61,0.60,3.73
58.58,-5.29,-9.00,-5.28,-9.00,6.00,5.93,6.68,0.71,0.72,3.72
59.16,-5.17,-8.87,-5.15,-8.85,6.00,5.93,6.70,0.83,0.85,3.70
59.76,-5.01,-8.70,-5.03,-8.71,6.00,5.94,6.71,0.99,0.97,3.69
60.35,-4.89,-8.55,-4.90,-8.56,6.00,5.94,6.72,1.11,1.10,3.66
60.96,-4.80,-8.44,-4.78,-8.42,6.00,5.95,6.71,1.20,1.22,3.64
61.57,-4.68,-8.29,-4.69,-8.30,6.00,5.96,6.71,1.32,1.31,3.61
62.18,-4.60,-8.18,-4.63,-8.21,6.00,5.96,6.69,1.40,1.37,3.58
62.80,-4.60,-8.14,-4.60,-8.14,6.00,5.97,6.67,1.40,1.40,3.54
63.43,-4.57,-8.06,-4.54,-8.04,6.00,5.99,6.63,1.43,1.46,3.50
64.07,-4.50,-7.96,-4.45,-7.90,6.00,6.00,6.60,1.50,1.55,3.46
64.71,-4.29,-7.70,-4.35,-7.77,6.00,6.01,6.55,1.71,1.65,3.41
65.35,-4.22,-7.59,-4.26,-7.63,6.00,6.02,6.50,1.78,1.74,3.37
66.01,-4.25,-7.58,-4.17,-7.50,6.00,6.04,6.44,1.75,1.83,3.34
66.67,-4.09,-7.39,-4.11,-7.41,6.00,6.05,6.37,1.91,1.89,3.30
67.33,-3.99,-7.25,-4.02,-7.28,6.00,6.06,6.30,2.01,1.98,3.27
68.01,-3.94,-7.17,-3.91,-7.14,6.00,6.07,6.22,2.06,2.09,3.23
68.69,-3.83,-7.02,-3.86,-7.05,6.00,6.08,6.14,2.17,2.14,3.20
69.37,-3.78,-6.94,-3.79,-6.96,6.00,6.09,6.05,2.22,2.21,3.16
70.07,-3.77,-6.90,-3.71,-6.85,6.00,6.09,5.96,2.23,2.29,3.13
70.77,-3.62,-6.72,-3.64,-6.74,6.00,6.09,5.87,2.38,2.36,3.10
71.48,-3.54,-6.62,-3.57,-6.65,6.00,6.08,5.77,2.47,2.43,3.08
72.19,-3.51,-6.55,-3.50,-6.55,6.01,6.07,5.67,2.50,2.51,3.04
72.91,-3.49,-6.50,-3.44,-6.45,6.02,6.04,5.57,2.53,2.58,3.01
73.64,-3.34,-6.31,-3.36,-6.34,6.02,6.02,5.47,2.68,2.66,2.98
74.38,-3.24,-6.18,-3.26,-6.20,6.00,5.98,5.37,2.77,2.75,2.94
75.12,-3.20,-6.10,-3.18,-6.08,5.98,5.94,5.27,2.78,2.80,2.90
75.87,-3.11,-5.97,-3.15,-6.01,5.94,5.89,5.17,2.83,2.79,2.86
76.63,-3.14,-5.96,-3.12,-5.94,5.89,5.83,5.07,2.75,2.77,2.82
77.40,-3.10,-5.87,-3.05,-5.83,5.83,5.77,4.97,2.73,2.78,2.77
78.17,-2.98,-5.71,-2.98,-5.72,5.76,5.70,4.88,2.78,2.77,2.74
78.95,-2.86,-5.55,-2.93,-5.62,5.67,5.62,4.78,2.81,2.74,2.69
79.74,-2.92,-5.57,-2.92,-5.56,5.57,5.54,4.69,2.66,2.66,2.65
80.54,-2.96,-5.56,-2.92,-5.52,5.48,5.46,4.59,2.53,2.57,2.60
81.35,-2.90,-5.46,-2.86,-5.42,5.40,5.38,4.50,2.50,2.54,2.56
82.16,-2.76,-5.28,-2.78,-5.29,5.31,5.30,4.42,2.55,2.54,2.52
82.98,-2.64,-5.12,-2.72,-5.19,5.23,5.21,4.33,2.59,2.52,2.48
83.81,-2.73,-5.16,-2.69,-5.13,5.15,5.12,4.25,2.42,2.46,2.44
84.65,-2.71,-5.11,-2.68,-5.08,5.06,5.04,4.17,2.35,2.38,2.40
85.50,-2.64,-5.00,-2.65,-5.01,4.96,4.95,4.10,2.32,2.31,2.36
86.35,-2.56,-4.88,-2.56,-4.88,4.87,4.87,4.02,2.31,2.31,2.32
87.22,-2.48,-4.75,-2.49,-4.76,4.77,4.79,3.95,2.29,2.29,2.27
88.09,-2.42,-4.65,-2.43,-4.66,4.68,4.70,3.88,2.26,2.25,2.23
88.97,-2.40,-4.59,-2.39,-4.58,4.58,4.62,3.82,2.18,2.19,2.20
89.86,-2.36,-4.51,-2.35,-4.50,4.49,4.54,3.76,2.13,2.14,2.15
90.76,-2.30,-4.40,-2.29,-4.40,4.40,4.46,3.70,2.10,2.11,2.10
91.66,-2.22,-4.29,-2.23,-4.30,4.32,4.39,3.64,2.11,2.09,2.07
92.58,-2.19,-4.22,-2.20,-4.23,4.25,4.31,3.59,2.06,2.05,2.03
93.51,-2.19,-4.18,-2.19,-4.18,4.18,4.23,3.54,1.99,1.99,1.99
94.44,-2.19,-4.14,-2.18,-4.13,4.10,4.16,3.49,1.92,1.92,1.95
95.39,-2.17,-4.08,-2.16,-4.08,4.04,4.09,3.44,1.87,1.88,1.91
96.34,-2.12,-3.99,-2.11,-3.99,3.98,4.02,3.40,1.86,1.87,1.88
97.30,-2.07,-3.91,-2.07,-3.90,3.93,3.94,3.36,1.86,1.86,1.84
98.28,-2.01,-3.80,-2.03,-3.83,3.87,3.87,3.32,1.86,1.84,1.79
99.26,-2.03,-3.78,-2.02,-3.78,3.80,3.80,3.29,1.78,1.78,1.75
100.25,-2.04,-3.75,-2.05,-3.76,3.73,3.74,3.25,1.70,1.69,1.72
101.25,-2.06,-3.74,-2.06,-3.73,3.67,3.67,3.22,1.61,1.61,1.68
102.27,-2.07,-3.70,-2.02,-3.65,3.61,3.60,3.19,1.54,1.59,1.63
103.29,-1.96,-3.54,-1.97,-3.55,3.56,3.54,3.16,1.60,1.60,1.58
104.32,-1.88,-3.41,-1.92,-3.45,3.51,3.47,3.14,1.64,1.60,1.53
105.37,-1.90,-3.39,-1.90,-3.39,3.46,3.41,3.11,1.56,1.56,1.49
106.42,-1.95,-3.39,-1.95,-3.39,3.40,3.34,3.09,1.45,1.45,1.45
107.48,-2.00,-3.40,-1.99,-3.39,3.34,3.28,3.06,1.34,1.35,1.40
108.56,-2.02,-3.37,-2.00,-3.35,3.29,3.22,3.04,1.27,1.29,1.35
109.64,-1.96,-3.26,-1.97,-3.27,3.24,3.16,3.02,1.28,1.27,1.30
110.74,-1.92,-3.18,-1.90,-3.17,3.18,3.10,3.00,1.27,1.28,1.26
111.85,-1.84,-3.06,-1.87,-3.09,3.13,3.04,2.98,1.29,1.26,1.22
112.97,-1.84,-3.03,-1.86,-3.05,3.07,2.98,2.96,1.23,1.21,1.19
114.10,-1.90,-3.05,-1.85,-3.00,3.01,2.92,2.94,1.11,1.15,1.15
115.24,-1.84,-2.96,-1.84,-2.96,2.95,2.86,2.92,1.11,1.11,1.12
116.39,-1.79,-2.87,-1.81,-2.90,2.90,2.81,2.90,1.11,1.09,1.09
117.55,-1.77,-2.84,-1.77,-2.84,2.86,2.75,2.88,1.09,1.08,1.07
118.73,-1.77,-2.81,-1.77,-2.81,2.81,2.69,2.85,1.04,1.05,1.04
119.92,-1.76,-2.78,-1.75,-2.78,2.76,2.64,2.83,1.00,1.01,1.03
121.12,-1.74,-2.75,-1.73,-2.74,2.71,2.59,2.81,0.97,0.97,1.01
122.33,-1.68,-2.67,-1.68,-2.68,2.65,2.53,2.78,0.97,0.97,0.99
123.55,-1.64,-2.62,-1.62,-2.60,2.60,2.48,2.76,0.96,0.98,0.98
124.79,-1.55,-2.51,-1.56,-2.53,2.55,2.43,2.73,1.00,0.99,0.97
126.03,-1.52,-2.47,-1.53,-2.48,2.51,2.38,2.70,0.99,0.98,0.95
127.29,-1.51,-2.45,-1.50,-2.44,2.47,2.33,2.67,0.96,0.97,0.94
128.57,-1.51,-2.43,-1.50,-2.43,2.44,2.29,2.64,0.93,0.93,0.92
129.85,-1.50,-2.41,-1.50,-2.41,2.41,2.24,2.61,0.91,0.91,0.91
131.15,-1.50,-2.40,-1.50,-2.39,2.38,2.19,2.58,0.88,0.88,0.90
132.46,-1.49,-2.37,-1.50,-2.38,2.35,2.15,2.54,0.87,0.85,0.88
133.79,-1.50,-2.36,-1.49,-2.35,2.33,2.11,2.51,0.83,0.83,0.87
135.12,-1.49,-2.33,-1.46,-2.31,2.30,2.06,2.47,0.81,0.83,0.84
136.48,-1.41,-2.24,-1.43,-2.26,2.27,2.02,2.43,0.86,0.84,0.83
137.84,-1.38,-2.19,-1.39,-2.20,2.23,1.98,2.39,0.85,0.84,0.81
139.22,-1.37,-2.16,-1.37,-2.16,2.19,1.94,2.35,0.83,0.83,0.80
140.61,-1.37,-2.15,-1.37,-2.14,2.16,1.90,2.32,0.79,0.79,0.78
142.02,-1.37,-2.13,-1.37,-2.13,2.12,1.86,2.28,0.75,0.75,0.76
143.44,-1.37,-2.10,-1.37,-2.11,2.08,1.83,2.24,0.71,0.71,0.73
144.87,-1.37,-2.07,-1.35,-2.06,2.04,1.79,2.20,0.67,0.69,0.70
146.32,-1.33,-2.01,-1.32,-1.99,1.99,1.76,2.16,0.66,0.67,0.68
147.78,-1.26,-1.90,-1.30,-1.94,1.94,1.73,2.12,0.68,0.64,0.64
149.26,-1.28,-1.88,-1.27,-1.88,1.87,1.69,2.08,0.59,0.59,0.61
150.75,-1.29,-1.85,-1.25,-1.81,1.79,1.66,2.04,0.50,0.54,0.56
152.26,-1.21,-1.72,-1.22,-1.73,1.71,1.63,2.00,0.50,0.49,0.51
153.78,-1.17,-1.62,-1.19,-1.64,1.64,1.60,1.96,0.47,0.45,0.45
155.32,-1.17,-1.56,-1.16,-1.56,1.58,1.58,1.92,0.41,0.41,0.39
156.88,-1.17,-1.51,-1.16,-1.49,1.53,1.55,1.89,0.36,0.37,0.34
158.44,-1.17,-1.44,-1.17,-1.45,1.49,1.52,1.85,0.32,0.32,0.28
160.03,-1.17,-1.39,-1.19,-1.41,1.46,1.50,1.82,0.29,0.27,0.23
161.63,-1.24,-1.42,-1.23,-1.41,1.43,1.48,1.78,0.19,0.19,0.18
163.24,-1.29,-1.42,-1.30,-1.44,1.40,1.45,1.75,0.11,0.10,0.13
164.88,-1.37,-1.47,-1.35,-1.46,1.38,1.43,1.72,0.01,0.03,0.10
166.53,-1.38,-1.45,-1.34,-1.42,1.36,1.41,1.68,-0.02,0.02,0.07
168.19,-1.29,-1.34,-1.29,-1.35,1.34,1.39,1.65,0.05,0.04,0.06
169.87,-1.20,-1.25,-1.23,-1.28,1.32,1.37,1.63,0.12,0.08,0.05
171.57,-1.20,-1.24,-1.20,-1.24,1.30,1.36,1.60,0.10,0.10,0.04
173.29,-1.21,-1.25,-1.20,-1.24,1.28,1.34,1.57,0.08,0.09,0.04
175.02,-1.21,-1.27,-1.21,-1.27,1.27,1.33,1.54,0.07,0.06,0.06
176.77,-1.22,-1.29,-1.22,-1.29,1.28,1.31,1.52,0.06,0.06,0.07
178.54,-1.22,-1.30,-1.22,-1.30,1.29,1.30,1.50,0.07,0.07,0.08
180.32,-1.21,-1.32,-1.21,-1.32,1.31,1.28,1.47,0.10,0.09,0.11
182.13,-1.21,-1.33,-1.21,-1.33,1.32,1.27,1.45,0.12,0.12,0.12
183.95,-1.20,-1.35,-1.20,-1.34,1.34,1.26,1.43,0.14,0.14,0.15
185.79,-1.19,-1.34,-1.19,-1.34,1.34,1.25,1.41,0.15,0.15,0.16
187.65,-1.17,-1.33,-1.17,-1.34,1.33,1.24,1.39,0.17,0.16,0.16
189.52,-1.16,-1.33,-1.16,-1.33,1.33,1.24,1.37,0.17,0.17,0.17
191.42,-1.15,-1.32,-1.14,-1.32,1.31,1.23,1.36,0.17,0.17,0.17
193.33,-1.13,-1.30,-1.13,-1.30,1.30,1.22,1.34,0.17,0.17,0.17
195.27,-1.11,-1.28,-1.11,-1.28,1.28,1.22,1.33,0.17,0.17,0.17
197.22,-1.10,-1.26,-1.10,-1.26,1.26,1.21,1.31,0.17,0.17,0.16
199.19,-1.09,-1.25,-1.09,-1.25,1.25,1.21,1.30,0.16,0.16,0.16
201.18,-1.08,-1.23,-1.08,-1.23,1.23,1.21,1.29,0.15,0.15,0.15
203.19,-1.08,-1.22,-1.07,-1.21,1.22,1.20,1.28,0.14,0.14,0.14
205.23,-1.07,-1.20,-1.07,-1.20,1.20,1.20,1.27,0.13,0.13,0.13
207.28,-1.07,-1.19,-1.07,-1.19,1.19,1.20,1.26,0.12,0.12,0.12
209.35,-1.08,-1.19,-1.07,-1.18,1.18,1.20,1.25,0.10,0.11,0.11
211.44,-1.08,-1.17,-1.08,-1.17,1.17,1.20,1.24,0.09,0.09,0.09
213.56,-1.08,-1.16,-1.08,-1.16,1.16,1.20,1.23,0.08,0.07,0.08
215.69,-1.09,-1.15,-1.08,-1.15,1.14,1.20,1.22,0.06,0.06,0.06
217.85,-1.09,-1.14,-1.09,-1.14,1.13,1.20,1.21,0.05,0.05,0.05
220.03,-1.09,-1.12,-1.09,-1.13,1.13,1.20,1.20,0.04,0.03,0.04
222.23,-1.10,-1.13,-1.09,-1.12,1.13,1.21,1.20,0.03,0.03,0.03
224.45,-1.10,-1.12,-1.09,-1.11,1.13,1.21,1.19,0.03,0.04,0.02
226.70,-1.09,-1.10,-1.10,-1.11,1.13,1.21,1.18,0.04,0.03,0.01
228.96,-1.09,-1.10,-1.12,-1.13,1.13,1.22,1.18,0.05,0.01,0.01
231.25,-1.18,-1.19,-1.15,-1.16,1.14,1.22,1.17,-0.04,-0.01,0.01
233.57,-1.19,-1.19,-1.17,-1.17,1.16,1.22,1.16,-0.03,-0.01,0.00
235.90,-1.16,-1.17,-1.17,-1.17,1.17,1.23,1.15,0.01,0.00,0.01
238.26,-1.14,-1.15,-1.15,-1.17,1.19,1.23,1.15,0.05,0.03,0.01
240.64,-1.15,-1.17,-1.16,-1.18,1.20,1.24,1.14,0.05,0.04,0.03
243.05,-1.19,-1.22,-1.18,-1.21,1.20,1.24,1.13,0.01,0.02,0.03
245.48,-1.20,-1.23,-1.19,-1.22,1.20,1.25,1.12,0.00,0.01,0.03
247.93,-1.17,-1.21,-1.18,-1.22,1.20,1.25,1.11,0.03,0.02,0.04
250.41,-1.15,-1.19,-1.15,-1.20,1.19,1.25,1.10,0.04,0.04,0.04
252.92,-1.13,-1.18,-1.13,-1.18,1.18,1.26,1.10,0.05,0.05,0.05
255.45,-1.12,-1.16,-1.12,-1.16,1.17,1.26,1.09,0.05,0.06,0.04
258.00,-1.11,-1.15,-1.11,-1.15,1.16,1.27,1.08,0.05,0.05,0.04
260.58,-1.11,-1.14,-1.11,-1.14,1.15,1.27,1.07,0.04,0.04,0.04
263.19,-1.11,-1.14,-1.11,-1.14,1.14,1.27,1.05,0.03,0.03,0.03
265.82,-1.11,-1.14,-1.11,-1.13,1.14,1.28,1.04,0.03,0.03,0.03
268.48,-1.11,-1.13,-1.11,-1.13,1.13,1.28,1.03,0.02,0.02,0.02
271.16,-1.11,-1.13,-1.11,-1.13,1.13,1.28,1.02,0.02,0.02,0.02
273.87,-1.12,-1.13,-1.12,-1.13,1.13,1.28,1.01,0.01,0.01,0.02
276.61,-1.12,-1.13,-1.12,-1.13,1.12,1.28,1.00,0.00,0.00,0.01
279.38,-1.12,-1.13,-1.12,-1.13,1.12,1.28,0.99,0.01,0.00,0.01
282.17,-1.12,-1.13,-1.12,-1.13,1.13,1.28,0.97,0.01,0.02,0.02
284.99,-1.11,-1.13,-1.10,-1.12,1.14,1.28,0.96,0.03,0.04,0.02
287.84,-1.10,-1.12,-1.10,-1.13,1.15,1.28,0.95,0.05,0.05,0.02
290.72,-1.09,-1.12,-1.12,-1.15,1.16,1.28,0.94,0.07,0.04,0.03
293.63,-1.18,-1.21,-1.15,-1.18,1.17,1.28,0.93,-0.01,0.02,0.03
296.57,-1.19,-1.23,-1.17,-1.21,1.18,1.27,0.92,-0.01,0.01,0.04
299.53,-1.16,-1.20,-1.17,-1.21,1.19,1.27,0.90,0.03,0.02,0.04
302.53,-1.14,-1.18,-1.14,-1.19,1.19,1.27,0.89,0.05,0.05,0.05
305.55,-1.13,-1.17,-1.13,-1.17,1.19,1.26,0.88,0.06,0.06,0.04
308.61,-1.12,-1.16,-1.12,-1.16,1.17,1.26,0.87,0.05,0.05,0.04
311.69,-1.12,-1.16,-1.12,-1.16,1.15,1.25,0.86,0.03,0.03,0.04
314.81,-1.11,-1.14,-1.11,-1.14,1.12,1.24,0.85,0.01,0.00,0.03
317.96,-1.11,-1.13,-1.08,-1.11,1.09,1.24,0.84,-0.02,0.01,0.02
321.14,-1.05,-1.06,-1.04,-1.06,1.06,1.23,0.84,0.01,0.02,0.01
324.35,-0.98,-0.99,-1.01,-1.02,1.03,1.22,0.83,0.05,0.02,0.01
327.59,-1.00,-1.00,-0.99,-0.99,1.01,1.21,0.82,0.01,0.01,-0.00
330.87,-1.01,-1.00,-1.00,-0.99,0.99,1.20,0.81,-0.02,-0.01,-0.01
334.18,-1.02,-0.99,-1.02,-0.99,0.99,1.19,0.81,-0.03,-0.03,-0.03
337.52,-1.02,-0.98,-1.00,-0.97,1.00,1.18,0.80,-0.02,-0.00,-0.04
340.90,-1.01,-0.97,-1.01,-0.97,1.02,1.17,0.80,0.01,0.00,-0.04
344.30,-1.01,-0.96,-1.07,-1.01,1.04,1.16,0.79,0.03,-0.03,-0.05
347.75,-1.17,-1.10,-1.14,-1.07,1.06,1.15,0.79,-0.11,-0.08,-0.07
351.23,-1.24,-1.16,-1.20,-1.12,1.08,1.13,0.79,-0.16,-0.13,-0.08
354.74,-1.23,-1.13,-1.24,-1.14,1.09,1.12,0.78,-0.14,-0.15,-0.09
358.28,-1.21,-1.10,-1.22,-1.12,1.09,1.11,0.78,-0.11,-0.13,-0.11
361.87,-1.21,-1.09,-1.20,-1.08,1.09,1.10,0.78,-0.12,-0.11,-0.12
365.49,-1.20,-1.06,-1.20,-1.06,1.08,1.08,0.78,-0.12,-0.12,-0.14
369.14,-1.19,-1.04,-1.19,-1.04,1.05,1.07,0.78,-0.14,-0.14,-0.15
372.83,-1.19,-1.03,-1.19,-1.02,1.02,1.06,0.78,-0.16,-0.16,-0.16
376.56,-1.18,-1.01,-1.18,-1.01,1.00,1.04,0.78,-0.18,-0.18,-0.17
380.33,-1.17,-0.99,-1.17,-0.99,0.99,1.03,0.78,-0.18,-0.18,-0.18
384.13,-1.16,-0.96,-1.15,-0.96,0.98,1.02,0.78,-0.17,-0.17,-0.19
387.97,-1.16,-0.95,-1.16,-0.95,0.99,1.00,0.78,-0.17,-0.17,-0.20
391.85,-1.16,-0.94,-1.18,-0.97,0.99,0.99,0.78,-0.17,-0.20,-0.22
395.77,-1.23,-1.00,-1.23,-1.00,0.99,0.98,0.79,-0.24,-0.24,-0.23
399.73,-1.29,-1.05,-1.26,-1.02,0.99,0.96,0.79,-0.30,-0.27,-0.24
403.72,-1.28,-1.03,-1.28,-1.03,0.99,0.95,0.79,-0.28,-0.28,-0.25
407.76,-1.26,-0.99,-1.27,-1.01,1.00,0.94,0.80,-0.26,-0.28,-0.27
411.84,-1.26,-0.98,-1.26,-0.98,0.99,0.92,0.80,-0.26,-0.27,-0.28
415.96,-1.27,-0.98,-1.26,-0.97,0.99,0.91,0.80,-0.28,-0.27,-0.29
420.12,-1.26,-0.97,-1.26,-0.97,0.98,0.90,0.81,-0.28,-0.29,-0.29
424.32,-1.26,-0.96,-1.26,-0.96,0.96,0.88,0.81,-0.30,-0.30,-0.30
428.56,-1.25,-0.95,-1.25,-0.95,0.95,0.87,0.81,-0.30,-0.30,-0.30
432.85,-1.24,-0.94,-1.23,-0.94,0.93,0.86,0.82,-0.31,-0.31,-0.29
437.18,-1.21,-0.92,-1.21,-0.92,0.91,0.85,0.82,-0.30,-0.30,-0.28
441.55,-1.17,-0.90,-1.17,-0.91,0.89,0.84,0.82,-0.28,-0.28,-0.27
445.96,-1.13,-0.88,-1.13,-0.88,0.88,0.82,0.83,-0.25,-0.25,-0.25
450.42,-1.08,-0.86,-1.08,-0.86,0.87,0.81,0.83,-0.21,-0.21,-0.22
454.93,-1.02,-0.84,-1.01,-0.83,0.86,0.80,0.83,-0.16,-0.15,-0.18
459.48,-0.96,-0.82,-0.96,-0.81,0.85,0.79,0.83,-0.10,-0.10,-0.14
464.07,-0.89,-0.78,-0.94,-0.84,0.85,0.78,0.83,-0.04,-0.09,-0.11
468.71,-0.95,-0.88,-0.93,-0.86,0.84,0.77,0.83,-0.10,-0.08,-0.07
473.40,-0.95,-0.92,-0.90,-0.87,0.84,0.76,0.83,-0.11,-0.06,-0.03
