frequency,raw,error,smoothed,error_smoothed,equalization,parametric_eq,fixed_band_eq,equalized_raw,equalized_smoothed,target
20.00,-5.01,-8.15,-5.01,-8.16,6.00,6.45,1.04,0.99,0.99,3.15
20.20,-4.84,-7.99,-4.84,-8.00,6.00,6.37,1.07,1.16,1.16,3.16
20.40,-4.67,-7.84,-4.67,-7.84,6.00,6.29,1.11,1.33,1.33,3.17
20.61,-4.51,-7.68,-4.51,-7.68,6.00,6.20,1.14,1.49,1.49,3.17
20.81,-4.34,-7.52,-4.35,-7.52,6.00,6.12,1.18,1.66,1.65,3.18
21.02,-4.19,-7.36,-4.19,-7.37,6.00,6.03,1.22,1.81,1.81,3.18
21.23,-4.04,-7.22,-4.03,-7.22,6.00,5.94,1.25,1.96,1.97,3.19
21.44,-3.88,-7.07,-3.88,-7.07,6.00,5.85,1.29,2.12,2.12,3.19
21.66,-3.74,-6.92,-3.74,-6.92,6.00,5.77,1.34,2.27,2.27,3.19
21.87,-3.59,-6.78,-3.59,-6.78,6.02,5.68,1.38,2.42,2.42,3.19
22.09,-3.45,-6.65,-3.46,-6.65,6.03,5.59,1.42,2.57,2.57,3.20
22.31,-3.32,-6.52,-3.32,-6.52,6.03,5.49,1.47,2.71,2.71,3.19
22.54,-3.20,-6.38,-3.20,-6.38,6.02,5.40,1.51,2.82,2.82,3.18
22.76,-3.07,-6.24,-3.07,-6.25,5.98,5.31,1.56,2.92,2.91,3.17
22.99,-2.94,-6.11,-2.92,-6.10,5.92,5.22,1.60,2.99,3.00,3.17
23.22,-2.77,-5.94,-2.77,-5.94,5.84,5.12,1.65,3.08,3.07,3.17
23.45,-2.60,-5.76,-2.60,-5.76,5.74,5.03,1.70,3.14,3.14,3.16
23.69,-2.43,-5.59,-2.43,-5.59,5.61,4.93,1.75,3.18,3.18,3.16
23.92,-2.25,-5.42,-2.26,-5.42,5.46,4.83,1.81,3.21,3.20,3.16
24.16,-2.10,-5.27,-2.11,-5.27,5.30,4.73,1.86,3.20,3.20,3.16
24.40,-1.95,-5.11,-1.95,-5.11,5.13,4.63,1.91,3.18,3.18,3.16
24.65,-1.81,-4.97,-1.80,-4.96,4.96,4.53,1.96,3.15,3.16,3.16
24.89,-1.64,-4.80,-1.65,-4.81,4.80,4.43,2.02,3.15,3.15,3.16
25.14,-1.49,-4.65,-1.49,-4.65,4.65,4.33,2.07,3.15,3.15,3.16
25.39,-1.34,-4.49,-1.34,-4.49,4.50,4.23,2.13,3.16,3.16,3.15
25.65,-1.20,-4.34,-1.20,-4.34,4.36,4.13,2.18,3.16,3.16,3.15
25.91,-1.05,-4.20,-1.05,-4.20,4.22,4.02,2.23,3.17,3.16,3.15
26.16,-0.91,-4.06,-0.92,-4.06,4.08,3.92,2.28,3.16,3.16,3.15
26.43,-0.79,-3.93,-0.79,-3.94,3.93,3.81,2.34,3.15,3.14,3.15
26.69,-0.67,-3.81,-0.66,-3.81,3.79,3.70,2.39,3.12,3.13,3.14
26.96,-0.54,-3.68,-0.53,-3.67,3.65,3.60,2.44,3.11,3.12,3.14
27.23,-0.38,-3.52,-0.38,-3.52,3.50,3.49,2.48,3.12,3.12,3.14
27.50,-0.22,-3.36,-0.21,-3.36,3.35,3.38,2.53,3.14,3.14,3.14
27.77,-0.04,-3.19,-0.05,-3.19,3.21,3.27,2.57,3.16,3.16,3.14
28.05,0.10,-3.04,0.10,-3.04,3.06,3.15,2.61,3.16,3.16,3.14
28.33,0.24,-2.89,0.24,-2.90,2.92,3.04,2.64,3.16,3.16,3.14
28.62,0.37,-2.77,0.38,-2.77,2.78,2.93,2.67,3.15,3.15,3.14
28.90,0.50,-2.64,0.51,-2.63,2.64,2.82,2.70,3.14,3.15,3.15
29.19,0.64,-2.50,0.64,-2.51,2.50,2.70,2.72,3.14,3.14,3.15
29.48,0.77,-2.37,0.77,-2.38,2.36,2.59,2.74,3.14,3.13,3.15
29.78,0.90,-2.25,0.91,-2.24,2.22,2.47,2.75,3.13,3.13,3.15
30.08,1.04,-2.11,1.05,-2.10,2.08,2.35,2.76,3.12,3.13,3.15
30.38,1.20,-1.95,1.20,-1.95,1.94,2.24,2.76,3.14,3.15,3.15
30.68,1.36,-1.79,1.36,-1.79,1.80,2.12,2.75,3.17,3.17,3.15
30.99,1.52,-1.63,1.51,-1.64,1.67,2.00,2.74,3.19,3.18,3.15
31.30,1.63,-1.51,1.63,-1.51,1.54,1.88,2.73,3.17,3.17,3.15
31.61,1.74,-1.40,1.74,-1.40,1.41,1.76,2.70,3.15,3.15,3.15
31.93,1.84,-1.30,1.85,-1.29,1.28,1.64,2.67,3.13,3.13,3.14
32.24,1.97,-1.17,1.96,-1.17,1.16,1.51,2.64,3.13,3.13,3.13
32.57,2.08,-1.05,2.08,-1.05,1.04,1.39,2.60,3.13,3.12,3.13
32.89,2.19,-0.93,2.20,-0.93,0.92,1.27,2.55,3.12,3.12,3.13
33.22,2.31,-0.80,2.32,-0.80,0.79,1.15,2.50,3.11,3.11,3.12
33.55,2.45,-0.67,2.44,-0.67,0.66,1.02,2.44,3.10,3.10,3.12
33.89,2.56,-0.54,2.57,-0.54,0.52,0.90,2.37,3.09,3.09,3.10
34.23,2.70,-0.40,2.71,-0.39,0.40,0.78,2.31,3.10,3.11,3.10
34.57,2.85,-0.25,2.86,-0.24,0.27,0.65,2.23,3.13,3.13,3.10
34.92,3.00,-0.10,2.99,-0.11,0.15,0.53,2.16,3.15,3.14,3.10
35.27,3.09,-0.00,3.09,-0.01,0.03,0.41,2.08,3.13,3.12,3.10
35.62,3.16,0.07,3.17,0.07,-0.08,0.28,1.99,3.08,3.09,3.09
35.97,3.24,0.14,3.25,0.16,-0.19,0.16,1.90,3.05,3.06,3.09
36.33,3.36,0.27,3.36,0.27,-0.30,0.03,1.81,3.06,3.06,3.09
36.70,3.48,0.40,3.48,0.39,-0.40,-0.09,1.72,3.08,3.08,3.09
37.06,3.60,0.52,3.60,0.51,-0.50,-0.21,1.63,3.10,3.09,3.08
37.43,3.71,0.62,3.71,0.62,-0.61,-0.33,1.53,3.10,3.10,3.08
37.81,3.80,0.72,3.81,0.72,-0.72,-0.45,1.43,3.09,3.09,3.09
38.19,3.90,0.82,3.91,0.82,-0.82,-0.57,1.33,3.08,3.09,3.09
38.57,4.01,0.93,4.01,0.93,-0.93,-0.69,1.23,3.09,3.09,3.08
38.95,4.12,1.04,4.11,1.03,-1.03,-0.81,1.13,3.10,3.09,3.09
39.34,4.20,1.12,4.20,1.12,-1.12,-0.93,1.03,3.08,3.08,3.09
39.74,4.28,1.20,4.28,1.20,-1.21,-1.04,0.92,3.07,3.07,3.08
40.14,4.36,1.28,4.38,1.30,-1.30,-1.15,0.82,3.07,3.08,3.08
40.54,4.46,1.39,4.47,1.39,-1.38,-1.26,0.71,3.09,3.09,3.08
40.94,4.57,1.50,4.55,1.47,-1.45,-1.37,0.61,3.12,3.09,3.07
41.35,4.60,1.54,4.60,1.54,-1.53,-1.48,0.50,3.08,3.08,3.07
41.76,4.63,1.58,4.65,1.59,-1.60,-1.58,0.39,3.03,3.05,3.05
42.18,4.69,1.64,4.70,1.65,-1.68,-1.68,0.29,3.02,3.02,3.05
42.60,4.77,1.73,4.77,1.73,-1.75,-1.78,0.18,3.03,3.02,3.05
43.03,4.85,1.81,4.85,1.81,-1.82,-1.88,0.08,3.04,3.03,3.04
43.46,4.92,1.89,4.92,1.89,-1.88,-1.97,-0.03,3.04,3.04,3.04
43.90,4.98,1.96,4.99,1.96,-1.95,-2.06,-0.14,3.04,3.04,3.02
44.33,5.04,2.03,5.05,2.03,-2.01,-2.14,-0.25,3.04,3.04,3.02
44.78,5.10,2.09,5.09,2.08,-2.07,-2.22,-0.35,3.04,3.03,3.01
45.23,5.13,2.13,5.12,2.12,-2.12,-2.30,-0.46,3.01,3.00,3.01
45.68,5.14,2.14,5.15,2.15,-2.17,-2.37,-0.57,2.97,2.98,3.00
46.13,5.17,2.17,5.19,2.19,-2.22,-2.44,-0.68,2.96,2.98,3.00
46.60,5.25,2.25,5.25,2.24,-2.25,-2.50,-0.78,3.00,2.99,3.00
47.06,5.31,2.31,5.30,2.30,-2.28,-2.56,-0.89,3.03,3.02,3.00
47.53,5.33,2.33,5.34,2.33,-2.30,-2.62,-1.00,3.04,3.04,3.01
48.01,5.35,2.34,5.35,2.34,-2.31,-2.67,-1.11,3.04,3.04,3.01
48.49,5.35,2.34,5.36,2.34,-2.33,-2.71,-1.21,3.02,3.03,3.01
48.97,5.35,2.34,5.34,2.33,-2.34,-2.75,-1.32,3.01,3.00,3.02
49.46,5.33,2.32,5.33,2.31,-2.35,-2.78,-1.43,2.98,2.98,3.02
49.96,5.31,2.28,5.34,2.32,-2.36,-2.81,-1.53,2.95,2.98,3.03
50.46,5.37,2.34,5.38,2.34,-2.37,-2.84,-1.64,3.01,3.01,3.03
50.96,5.44,2.40,5.42,2.38,-2.37,-2.86,-1.75,3.07,3.05,3.04
51.47,5.45,2.41,5.45,2.41,-2.37,-2.87,-1.85,3.09,3.09,3.05
51.99,5.45,2.41,5.44,2.39,-2.35,-2.88,-1.95,3.10,3.09,3.05
52.51,5.39,2.35,5.40,2.35,-2.32,-2.89,-2.05,3.07,3.08,3.05
53.03,5.34,2.30,5.37,2.32,-2.28,-2.89,-2.15,3.06,3.09,3.05
53.56,5.32,2.27,5.32,2.27,-2.23,-2.89,-2.25,3.09,3.09,3.05
54.10,5.29,2.24,5.26,2.20,-2.19,-2.88,-2.35,3.10,3.07,3.06
54.64,5.18,2.13,5.19,2.13,-2.17,-2.87,-2.44,3.02,3.02,3.06
55.18,5.11,2.06,5.14,2.08,-2.17,-2.86,-2.53,2.94,2.96,3.06
55.74,5.13,2.09,5.14,2.09,-2.21,-2.84,-2.62,2.92,2.94,3.05
56.29,5.22,2.18,5.23,2.18,-2.26,-2.82,-2.70,2.96,2.97,3.05
56.86,5.37,2.33,5.37,2.33,-2.33,-2.79,-2.78,3.04,3.04,3.04
57.42,5.50,2.47,5.50,2.47,-2.41,-2.77,-2.85,3.10,3.10,3.03
58.00,5.62,2.60,5.60,2.58,-2.48,-2.74,-2.92,3.14,3.12,3.02
58.58,5.64,2.64,5.64,2.63,-2.55,-2.70,-2.99,3.10,3.09,3.01
59.16,5.63,2.64,5.63,2.63,-2.60,-2.67,-3.05,3.04,3.03,2.99
59.76,5.57,2.60,5.59,2.61,-2.63,-2.63,-3.10,2.95,2.97,2.98
60.35,5.54,2.59,5.55,2.60,-2.63,-2.60,-3.15,2.91,2.92,2.95
60.96,5.53,2.60,5.52,2.59,-2.62,-2.56,-3.19,2.91,2.89,2.93
61.57,5.48,2.58,5.49,2.59,-2.61,-2.52,-3.23,2.88,2.88,2.90
62.18,5.45,2.59,5.47,2.60,-2.60,-2.48,-3.26,2.85,2.87,2.87
62.80,5.44,2.61,5.43,2.60,-2.60,-2.44,-3.28,2.84,2.83,2.83
63.43,5.40,2.62,5.40,2.61,-2.61,-2.39,-3.30,2.80,2.79,2.79
64.07,5.34,2.60,5.36,2.61,-2.62,-2.35,-3.31,2.72,2.74,2.75
64.71,5.32,2.62,5.32,2.62,-2.63,-2.31,-3.32,2.69,2.69,2.70
65.35,5.30,2.64,5.30,2.64,-2.64,-2.26,-3.32,2.67,2.66,2.66
66.01,5.27,2.65,5.28,2.65,-2.64,-2.22,-3.31,2.63,2.63,2.62
66.67,5.24,2.66,5.24,2.66,-2.64,-2.18,-3.30,2.61,2.61,2.59
67.33,5.20,2.65,5.20,2.65,-2.63,-2.14,-3.28,2.57,2.57,2.56
68.01,5.15,2.64,5.15,2.63,-2.62,-2.10,-3.26,2.53,2.53,2.52
68.69,5.09,2.61,5.09,2.60,-2.61,-2.05,-3.24,2.48,2.48,2.49
69.37,5.02,2.57,5.03,2.57,-2.60,-2.01,-3.21,2.43,2.43,2.45
70.07,4.95,2.53,4.98,2.56,-2.58,-1.98,-3.17,2.38,2.40,2.42
70.77,4.95,2.56,4.93,2.54,-2.56,-1.94,-3.14,2.40,2.38,2.39
71.48,4.90,2.54,4.90,2.54,-2.53,-1.90,-3.10,2.37,2.37,2.37
72.19,4.84,2.51,4.86,2.53,-2.50,-1.87,-3.06,2.34,2.36,2.33
72.91,4.81,2.51,4.79,2.49,-2.46,-1.83,-3.02,2.35,2.33,2.30
73.64,4.71,2.45,4.72,2.45,-2.42,-1.80,-2.97,2.29,2.29,2.27
74.38,4.61,2.38,4.63,2.40,-2.38,-1.77,-2.93,2.23,2.24,2.23
75.12,4.53,2.34,4.52,2.32,-2.34,-1.74,-2.88,2.19,2.17,2.19
75.87,4.41,2.27,4.41,2.26,-2.30,-1.71,-2.83,2.11,2.11,2.15
76.63,4.31,2.20,4.33,2.22,-2.26,-1.68,-2.79,2.06,2.08,2.11
77.40,4.26,2.20,4.27,2.21,-2.22,-1.66,-2.74,2.04,2.05,2.06
78.17,4.24,2.22,4.22,2.20,-2.19,-1.63,-2.70,2.05,2.03,2.03
78.95,4.17,2.20,4.17,2.19,-2.16,-1.61,-2.65,2.01,2.00,1.98
79.74,4.08,2.14,4.09,2.15,-2.14,-1.59,-2.60,1.94,1.94,1.94
80.54,3.99,2.10,4.00,2.11,-2.12,-1.57,-2.56,1.87,1.88,1.89
81.35,3.91,2.07,3.92,2.08,-2.09,-1.56,-2.52,1.82,1.83,1.85
82.16,3.85,2.05,3.86,2.05,-2.05,-1.54,-2.48,1.80,1.81,1.81
82.98,3.80,2.04,3.78,2.02,-2.00,-1.53,-2.44,1.80,1.78,1.77
83.81,3.69,1.97,3.69,1.97,-1.95,-1.52,-2.40,1.75,1.75,1.73
84.65,3.57,1.88,3.58,1.89,-1.88,-1.51,-2.36,1.70,1.70,1.69
85.50,3.45,1.80,3.45,1.80,-1.80,-1.50,-2.32,1.65,1.65,1.65
86.35,3.31,1.71,3.31,1.71,-1.71,-1.49,-2.29,1.60,1.60,1.61
87.22,3.16,1.60,3.17,1.61,-1.61,-1.49,-2.26,1.56,1.56,1.56
88.09,3.01,1.49,3.02,1.49,-1.49,-1.49,-2.22,1.53,1.53,1.52
88.97,2.86,1.38,2.86,1.38,-1.36,-1.48,-2.20,1.51,1.50,1.48
89.86,2.68,1.24,2.69,1.25,-1.22,-1.48,-2.17,1.47,1.47,1.44
90.76,2.51,1.12,2.50,1.10,-1.08,-1.49,-2.14,1.44,1.42,1.39
91.66,2.29,0.93,2.30,0.94,-0.94,-1.49,-2.12,1.35,1.36,1.36
92.58,2.10,0.78,2.11,0.79,-0.81,-1.49,-2.10,1.29,1.30,1.32
93.51,1.94,0.67,1.95,0.67,-0.70,-1.50,-2.07,1.24,1.25,1.28
94.44,1.82,0.58,1.81,0.57,-0.61,-1.51,-2.06,1.22,1.20,1.24
95.39,1.71,0.51,1.72,0.52,-0.54,-1.52,-2.04,1.18,1.18,1.20
96.34,1.63,0.47,1.66,0.50,-0.49,-1.53,-2.02,1.14,1.17,1.17
97.30,1.64,0.52,1.61,0.49,-0.48,-1.54,-2.01,1.16,1.13,1.13
98.28,1.60,0.52,1.59,0.50,-0.49,-1.55,-2.00,1.11,1.09,1.08
99.26,1.54,0.50,1.58,0.54,-0.53,-1.56,-1.98,1.01,1.05,1.04
100.25,1.59,0.59,1.59,0.58,-0.60,-1.58,-1.97,1.00,0.99,1.00
101.25,1.64,0.68,1.63,0.67,-0.69,-1.60,-1.97,0.96,0.95,0.97
102.27,1.70,0.79,1.71,0.79,-0.80,-1.61,-1.96,0.90,0.91,0.92
103.29,1.78,0.91,1.79,0.91,-0.94,-1.63,-1.95,0.85,0.85,0.87
104.32,1.88,1.06,1.89,1.06,-1.09,-1.65,-1.95,0.79,0.79,0.82
105.37,2.00,1.22,2.01,1.23,-1.26,-1.67,-1.94,0.75,0.75,0.78
106.42,2.13,1.40,2.14,1.40,-1.42,-1.69,-1.94,0.72,0.72,0.74
107.48,2.27,1.59,2.26,1.58,-1.56,-1.72,-1.94,0.72,0.71,0.69
108.56,2.37,1.73,2.38,1.74,-1.67,-1.74,-1.94,0.71,0.71,0.64
109.64,2.44,1.85,2.45,1.86,-1.74,-1.76,-1.94,0.70,0.71,0.59
110.74,2.49,1.94,2.45,1.89,-1.80,-1.79,-1.94,0.70,0.65,0.55
111.85,2.38,1.87,2.38,1.87,-1.83,-1.81,-1.94,0.55,0.55,0.51
112.97,2.27,1.80,2.31,1.83,-1.87,-1.84,-1.94,0.41,0.44,0.48
114.10,2.23,1.79,2.25,1.81,-1.91,-1.86,-1.94,0.33,0.34,0.44
115.24,2.27,1.86,2.21,1.81,-1.95,-1.89,-1.94,0.33,0.27,0.41
116.39,2.24,1.87,2.28,1.90,-1.99,-1.92,-1.94,0.26,0.29,0.38
117.55,2.30,1.95,2.41,2.05,-2.04,-1.94,-1.94,0.26,0.36,0.36
118.73,2.62,2.29,2.53,2.20,-2.12,-1.97,-1.94,0.51,0.42,0.33
119.92,2.70,2.39,2.64,2.32,-2.21,-2.00,-1.95,0.50,0.43,0.32
121.12,2.61,2.31,2.66,2.36,-2.30,-2.03,-1.95,0.31,0.36,0.30
122.33,2.61,2.33,2.62,2.34,-2.40,-2.06,-1.95,0.21,0.22,0.28
123.55,2.63,2.36,2.66,2.39,-2.49,-2.08,-1.95,0.15,0.18,0.27
124.79,2.74,2.49,2.76,2.50,-2.55,-2.11,-1.95,0.19,0.20,0.25
126.03,2.90,2.66,2.85,2.61,-2.60,-2.14,-1.95,0.30,0.25,0.24
127.29,2.91,2.69,2.92,2.69,-2.65,-2.17,-1.95,0.27,0.27,0.23
128.57,2.93,2.72,2.95,2.74,-2.68,-2.20,-1.95,0.25,0.27,0.21
129.85,2.94,2.74,2.94,2.74,-2.72,-2.23,-1.95,0.23,0.23,0.20
131.15,2.93,2.75,2.92,2.73,-2.73,-2.26,-1.95,0.21,0.19,0.19
132.46,2.87,2.71,2.86,2.69,-2.70,-2.29,-1.94,0.17,0.16,0.17
133.79,2.77,2.62,2.80,2.65,-2.65,-2.31,-1.94,0.12,0.15,0.16
135.12,2.73,2.60,2.75,2.61,-2.58,-2.34,-1.94,0.15,0.17,0.13
136.48,2.69,2.57,2.68,2.56,-2.51,-2.37,-1.94,0.19,0.18,0.12
137.84,2.63,2.53,2.57,2.46,-2.44,-2.40,-1.94,0.20,0.13,0.10
139.22,2.41,2.33,2.43,2.34,-2.38,-2.42,-1.94,0.03,0.05,0.08
140.61,2.25,2.19,2.33,2.26,-2.35,-2.45,-1.94,-0.09,-0.02,0.07
142.02,2.29,2.25,2.28,2.24,-2.33,-2.48,-1.94,-0.03,-0.04,0.05
143.44,2.34,2.32,2.32,2.29,-2.32,-2.50,-1.94,0.03,0.00,0.02
144.87,2.36,2.37,2.35,2.35,-2.32,-2.53,-1.94,0.04,0.03,-0.01
146.32,2.36,2.40,2.37,2.41,-2.36,-2.56,-1.94,0.01,0.02,-0.03
147.78,2.36,2.43,2.41,2.47,-2.42,-2.58,-1.94,-0.06,-0.01,-0.07
149.26,2.46,2.57,2.41,2.52,-2.52,-2.61,-1.95,-0.06,-0.11,-0.10
150.75,2.44,2.59,2.39,2.54,-2.64,-2.63,-1.95,-0.19,-0.25,-0.15
152.26,2.34,2.55,2.41,2.61,-2.74,-2.65,-1.95,-0.40,-0.34,-0.20
153.78,2.40,2.66,2.50,2.76,-2.83,-2.68,-1.96,-0.42,-0.33,-0.26
155.32,2.66,2.98,2.61,2.93,-2.88,-2.70,-1.97,-0.22,-0.27,-0.32
156.88,2.80,3.18,2.71,3.08,-2.90,-2.72,-1.98,-0.10,-0.19,-0.37
158.44,2.60,3.04,2.67,3.10,-2.89,-2.74,-1.99,-0.28,-0.21,-0.43
160.03,2.53,3.02,2.49,2.97,-2.85,-2.76,-2.00,-0.31,-0.36,-0.49
161.63,2.25,2.78,2.27,2.80,-2.80,-2.78,-2.01,-0.54,-0.53,-0.53
163.24,2.03,2.61,2.05,2.62,-2.73,-2.80,-2.02,-0.69,-0.68,-0.58
164.88,1.89,2.50,1.87,2.47,-2.65,-2.82,-2.04,-0.76,-0.79,-0.61
166.53,1.73,2.37,1.84,2.47,-2.59,-2.84,-2.05,-0.86,-0.75,-0.64
168.19,1.88,2.54,1.85,2.51,-2.56,-2.86,-2.07,-0.68,-0.71,-0.65
169.87,2.01,2.68,1.92,2.58,-2.57,-2.88,-2.09,-0.56,-0.65,-0.66
171.57,1.92,2.59,2.01,2.68,-2.62,-2.90,-2.11,-0.69,-0.61,-0.67
173.29,2.06,2.73,2.05,2.72,-2.69,-2.91,-2.14,-0.63,-0.64,-0.67
175.02,2.14,2.80,2.12,2.77,-2.77,-2.93,-2.16,-0.63,-0.65,-0.65
176.77,2.18,2.82,2.22,2.86,-2.84,-2.94,-2.19,-0.66,-0.62,-0.64
178.54,2.29,2.92,2.26,2.89,-2.89,-2.96,-2.22,-0.59,-0.62,-0.63
180.32,2.32,2.92,2.32,2.92,-2.91,-2.97,-2.25,-0.59,-0.59,-0.60
182.13,2.33,2.92,2.38,2.97,-2.92,-2.99,-2.28,-0.59,-0.54,-0.59
183.95,2.42,2.98,2.39,2.96,-2.92,-3.00,-2.31,-0.50,-0.53,-0.56
185.79,2.43,2.99,2.38,2.93,-2.92,-3.01,-2.35,-0.48,-0.54,-0.55
187.65,2.29,2.84,2.34,2.89,-2.90,-3.03,-2.38,-0.60,-0.55,-0.55
189.52,2.28,2.82,2.30,2.84,-2.87,-3.04,-2.42,-0.59,-0.57,-0.54
191.42,2.29,2.84,2.29,2.82,-2.85,-3.05,-2.46,-0.56,-0.57,-0.54
193.33,2.30,2.84,2.31,2.84,-2.84,-3.06,-2.50,-0.54,-0.54,-0.54
195.27,2.32,2.86,2.29,2.83,-2.85,-3.07,-2.54,-0.53,-0.56,-0.54
197.22,2.28,2.83,2.29,2.83,-2.87,-3.08,-2.58,-0.59,-0.58,-0.55
199.19,2.26,2.81,2.32,2.87,-2.90,-3.09,-2.63,-0.64,-0.58,-0.55
201.18,2.37,2.94,2.36,2.93,-2.93,-3.10,-2.67,-0.55,-0.56,-0.56
203.19,2.46,3.04,2.43,3.00,-2.96,-3.11,-2.72,-0.49,-0.53,-0.57
205.23,2.46,3.05,2.48,3.06,-2.99,-3.12,-2.76,-0.52,-0.51,-0.58
207.28,2.46,3.06,2.47,3.06,-3.02,-3.13,-2.81,-0.55,-0.55,-0.59
209.35,2.46,3.07,2.43,3.03,-3.05,-3.13,-2.86,-0.59,-0.63,-0.60
211.44,2.39,3.01,2.41,3.03,-3.09,-3.14,-2.90,-0.69,-0.67,-0.62
213.56,2.37,3.00,2.43,3.06,-3.11,-3.15,-2.95,-0.74,-0.68,-0.63
215.69,2.51,3.16,2.47,3.12,-3.13,-3.16,-3.00,-0.62,-0.66,-0.65
217.85,2.54,3.20,2.53,3.18,-3.15,-3.16,-3.04,-0.61,-0.63,-0.66
220.03,2.54,3.22,2.56,3.23,-3.18,-3.17,-3.09,-0.63,-0.62,-0.67
222.23,2.54,3.23,2.55,3.23,-3.21,-3.18,-3.13,-0.66,-0.66,-0.68
224.45,2.54,3.23,2.54,3.23,-3.24,-3.18,-3.18,-0.69,-0.70,-0.69
226.70,2.54,3.24,2.52,3.22,-3.26,-3.19,-3.22,-0.71,-0.73,-0.70
228.96,2.50,3.21,2.55,3.25,-3.27,-3.19,-3.26,-0.77,-0.72,-0.70
231.25,2.56,3.26,2.57,3.28,-3.28,-3.20,-3.30,-0.71,-0.70,-0.70
233.57,2.66,3.37,2.60,3.30,-3.28,-3.21,-3.33,-0.62,-0.68,-0.71
235.90,2.58,3.29,2.61,3.32,-3.29,-3.21,-3.36,-0.70,-0.67,-0.70
238.26,2.59,3.29,2.60,3.30,-3.30,-3.22,-3.40,-0.70,-0.69,-0.70
240.64,2.60,3.29,2.59,3.28,-3.31,-3.22,-3.42,-0.70,-0.71,-0.68
243.05,2.61,3.29,2.62,3.30,-3.32,-3.23,-3.45,-0.70,-0.70,-0.68
245.48,2.64,3.32,2.64,3.32,-3.33,-3.23,-3.47,-0.68,-0.68,-0.68
247.93,2.67,3.34,2.67,3.34,-3.34,-3.24,-3.49,-0.66,-0.67,-0.67
250.41,2.68,3.35,2.69,3.35,-3.35,-3.24,-3.50,-0.67,-0.66,-0.67
252.92,2.70,3.36,2.70,3.37,-3.37,-3.25,-3.51,-0.66,-0.66,-0.66
255.45,2.71,3.38,2.71,3.38,-3.38,-3.25,-3.52,-0.67,-0.67,-0.67
258.00,2.72,3.39,2.72,3.39,-3.39,-3.26,-3.53,-0.67,-0.67,-0.67
260.58,2.73,3.41,2.74,3.41,-3.39,-3.26,-3.53,-0.66,-0.66,-0.67
263.19,2.73,3.41,2.74,3.42,-3.39,-3.27,-3.53,-0.66,-0.65,-0.68
265.82,2.74,3.43,2.72,3.41,-3.39,-3.27,-3.53,-0.65,-0.67,-0.68
268.48,2.70,3.39,2.69,3.38,-3.39,-3.28,-3.52,-0.68,-0.69,-0.69
271.16,2.64,3.33,2.68,3.37,-3.39,-3.28,-3.51,-0.74,-0.71,-0.69
273.87,2.67,3.37,2.68,3.37,-3.40,-3.29,-3.50,-0.72,-0.72,-0.69
276.61,2.72,3.42,2.69,3.39,-3.42,-3.29,-3.49,-0.69,-0.72,-0.70
279.38,2.72,3.43,2.72,3.42,-3.44,-3.30,-3.48,-0.72,-0.72,-0.70
282.17,2.72,3.42,2.75,3.45,-3.47,-3.30,-3.46,-0.75,-0.72,-0.69
284.99,2.80,3.49,2.80,3.49,-3.50,-3.31,-3.45,-0.69,-0.70,-0.69
287.84,2.87,3.56,2.88,3.56,-3.53,-3.31,-3.44,-0.65,-0.65,-0.69
290.72,2.92,3.61,2.91,3.59,-3.55,-3.32,-3.42,-0.62,-0.64,-0.68
293.63,2.94,3.62,2.90,3.58,-3.56,-3.32,-3.40,-0.61,-0.66,-0.68
296.57,2.81,3.48,2.88,3.55,-3.55,-3.33,-3.39,-0.74,-0.67,-0.67
299.53,2.86,3.54,2.86,3.52,-3.54,-3.33,-3.37,-0.67,-0.68,-0.67
302.53,2.85,3.52,2.83,3.50,-3.51,-3.34,-3.36,-0.65,-0.68,-0.66
305.55,2.81,3.48,2.82,3.48,-3.47,-3.35,-3.35,-0.65,-0.65,-0.67
308.61,2.75,3.42,2.77,3.44,-3.42,-3.35,-3.34,-0.67,-0.65,-0.67
311.69,2.71,3.39,2.70,3.38,-3.38,-3.36,-3.33,-0.67,-0.68,-0.67
314.81,2.66,3.35,2.64,3.32,-3.34,-3.37,-3.32,-0.68,-0.70,-0.68
317.96,2.56,3.25,2.61,3.30,-3.31,-3.37,-3.31,-0.75,-0.70,-0.69
321.14,2.56,3.26,2.57,3.26,-3.28,-3.38,-3.31,-0.71,-0.71,-0.70
324.35,2.60,3.30,2.52,3.23,-3.25,-3.39,-3.30,-0.64,-0.72,-0.70
327.59,2.44,3.16,2.51,3.22,-3.21,-3.39,-3.30,-0.77,-0.70,-0.71
330.87,2.45,3.18,2.48,3.21,-3.18,-3.40,-3.30,-0.73,-0.70,-0.72
334.18,2.50,3.24,2.43,3.16,-3.15,-3.41,-3.31,-0.65,-0.73,-0.74
337.52,2.39,3.14,2.41,3.15,-3.13,-3.41,-3.31,-0.73,-0.72,-0.75
340.90,2.29,3.04,2.35,3.10,-3.09,-3.42,-3.32,-0.80,-0.74,-0.75
344.30,2.33,3.09,2.27,3.03,-3.07,-3.43,-3.33,-0.74,-0.80,-0.76
347.75,2.23,3.02,2.25,3.03,-3.05,-3.44,-3.35,-0.82,-0.80,-0.78
351.23,2.18,2.98,2.24,3.04,-3.03,-3.44,-3.36,-0.85,-0.79,-0.79
354.74,2.27,3.08,2.20,3.00,-3.02,-3.45,-3.38,-0.74,-0.82,-0.80
358.28,2.19,3.01,2.18,2.99,-3.00,-3.46,-3.40,-0.81,-0.82,-0.82
361.87,2.09,2.92,2.18,3.01,-2.99,-3.47,-3.43,-0.90,-0.81,-0.83
365.49,2.18,3.03,2.18,3.02,-3.00,-3.48,-3.45,-0.81,-0.82,-0.85
369.14,2.23,3.09,2.15,3.01,-3.00,-3.48,-3.48,-0.77,-0.85,-0.86
372.83,2.13,3.00,2.12,2.99,-3.00,-3.49,-3.51,-0.87,-0.89,-0.87
376.56,1.97,2.86,2.08,2.96,-3.00,-3.50,-3.55,-1.03,-0.93,-0.88
380.33,2.08,2.98,2.08,2.97,-3.00,-3.51,-3.58,-0.92,-0.93,-0.89
384.13,2.16,3.07,2.14,3.04,-3.00,-3.52,-3.62,-0.84,-0.87,-0.90
387.97,2.17,3.09,2.15,3.06,-2.99,-3.53,-3.66,-0.82,-0.85,-0.92
391.85,2.11,3.04,2.07,3.00,-2.97,-3.53,-3.71,-0.86,-0.90,-0.93
395.77,1.92,2.86,2.00,2.94,-2.96,-3.54,-3.75,-1.04,-0.96,-0.94
399.73,1.95,2.90,2.00,2.95,-2.96,-3.55,-3.80,-1.00,-0.96,-0.95
403.72,2.04,3.00,2.00,2.97,-2.96,-3.56,-3.84,-0.91,-0.95,-0.96
407.76,2.07,3.05,1.94,2.92,-2.95,-3.57,-3.89,-0.87,-1.00,-0.98
411.84,1.83,2.82,1.88,2.87,-2.93,-3.58,-3.94,-1.09,-1.04,-0.99
415.96,1.72,2.73,1.94,2.94,-2.93,-3.59,-3.99,-1.21,-0.99,-1.00
420.12,2.08,3.09,2.00,3.01,-2.97,-3.60,-4.04,-0.88,-0.97,-1.00
424.32,2.26,3.28,2.02,3.03,-3.01,-3.61,-4.09,-0.74,-0.98,-1.01
428.56,1.90,2.92,1.99,3.00,-3.03,-3.61,-4.14,-1.13,-1.04,-1.01
432.85,1.77,2.78,1.95,2.96,-3.06,-3.62,-4.19,-1.28,-1.11,-1.00
437.18,2.05,3.05,2.08,3.07,-3.09,-3.63,-4.24,-1.04,-1.01,-0.99
441.55,2.37,3.35,2.28,3.26,-3.13,-3.64,-4.28,-0.75,-0.85,-0.98
445.96,2.48,3.44,2.30,3.26,-3.16,-3.65,-4.33,-0.68,-0.86,-0.96
450.42,2.14,3.07,2.19,3.12,-3.18,-3.66,-4.37,-1.04,-0.99,-0.93
454.93,1.94,2.83,2.19,3.08,-3.18,-3.67,-4.41,-1.24,-0.99,-0.89
459.48,2.29,3.14,2.32,3.17,-3.18,-3.68,-4.44,-0.88,-0.86,-0.85
464.07,2.71,3.53,2.43,3.24,-3.14,-3.69,-4.48,-0.43,-0.71,-0.82
468.71,2.49,3.27,2.46,3.24,-3.09,-3.70,-4.50,-0.60,-0.63,-0.78
473.40,2.14,2.88,2.40,3.14,-3.06,-3.70,-4.53,-0.92,-0.67,-0.74
478.13,2.33,3.03,2.29,2.99,-3.09,-3.71,-4.54,-0.75,-0.80,-0.70
482.91,2.47,3.14,2.31,2.98,-3.15,-3.72,-4.56,-0.67,-0.84,-0.67
487.74,2.30,2.94,2.40,3.04,-3.21,-3.73,-4.56,-0.91,-0.82,-0.64
492.62,2.46,3.08,2.52,3.14,-3.28,-3.74,-4.57,-0.82,-0.76,-0.62
497.55,2.71,3.31,2.77,3.37,-3.35,-3.75,-4.56,-0.64,-0.59,-0.60
502.52,3.11,3.71,3.04,3.63,-3.44,-3.76,-4.55,-0.33,-0.40,-0.59
507.55,3.26,3.86,3.15,3.74,-3.53,-3.77,-4.53,-0.26,-0.38,-0.59
512.62,3.06,3.67,3.12,3.72,-3.59,-3.77,-4.51,-0.53,-0.47,-0.60
