frequency,raw,error,smoothed,error_smoothed,equalization,parametric_eq,fixed_band_eq,equalized_raw,equalized_smoothed,target
20.00,-9.56,-6.92,-9.56,-6.92,5.98,6.28,1.68,-3.58,-3.58,-2.64
20.20,-9.46,-6.86,-9.46,-6.86,5.99,6.22,1.73,-3.46,-3.46,-2.60
20.40,-9.36,-6.80,-9.36,-6.79,6.00,6.17,1.79,-3.35,-3.35,-2.56
20.61,-9.27,-6.73,-9.26,-6.73,6.01,6.12,1.84,-3.26,-3.25,-2.54
20.81,-9.17,-6.67,-9.16,-6.67,6.02,6.06,1.90,-3.15,-3.15,-2.50
21.02,-9.07,-6.61,-9.07,-6.60,6.02,6.00,1.96,-3.05,-3.06,-2.46
21.23,-8.99,-6.54,-8.98,-6.54,6.02,5.95,2.01,-2.97,-2.97,-2.45
21.44,-8.91,-6.47,-8.90,-6.47,6.01,5.89,2.08,-2.89,-2.89,-2.43
21.66,-8.82,-6.40,-8.82,-6.40,6.02,5.83,2.14,-2.80,-2.80,-2.42
21.87,-8.73,-6.31,-8.73,-6.32,6.01,5.77,2.21,-2.72,-2.72,-2.42
22.09,-8.65,-6.23,-8.64,-6.23,6.00,5.71,2.27,-2.64,-2.64,-2.41
22.31,-8.54,-6.13,-8.55,-6.14,5.98,5.65,2.34,-2.57,-2.57,-2.41
22.54,-8.46,-6.04,-8.45,-6.03,5.95,5.59,2.41,-2.51,-2.50,-2.41
22.76,-8.36,-5.93,-8.35,-5.93,5.90,5.53,2.48,-2.45,-2.45,-2.42
22.99,-8.26,-5.82,-8.27,-5.84,5.85,5.47,2.56,-2.41,-2.42,-2.43
23.22,-8.20,-5.76,-8.19,-5.75,5.78,5.41,2.63,-2.41,-2.41,-2.43
23.45,-8.13,-5.68,-8.12,-5.68,5.71,5.35,2.71,-2.42,-2.42,-2.44
23.69,-8.06,-5.61,-8.06,-5.62,5.62,5.28,2.79,-2.43,-2.44,-2.45
23.92,-7.99,-5.54,-7.98,-5.54,5.53,5.22,2.87,-2.45,-2.45,-2.45
24.16,-7.91,-5.47,-7.90,-5.46,5.44,5.16,2.95,-2.46,-2.46,-2.44
24.40,-7.80,-5.37,-7.81,-5.37,5.36,5.09,3.03,-2.45,-2.45,-2.44
24.65,-7.72,-5.27,-7.71,-5.27,5.27,5.02,3.12,-2.44,-2.44,-2.45
24.89,-7.61,-5.17,-7.62,-5.17,5.19,4.96,3.20,-2.43,-2.43,-2.45
25.14,-7.54,-5.09,-7.53,-5.08,5.10,4.89,3.29,-2.44,-2.44,-2.45
25.39,-7.45,-5.01,-7.46,-5.00,5.01,4.82,3.37,-2.45,-2.45,-2.45
25.65,-7.38,-4.92,-7.38,-4.92,4.91,4.75,3.46,-2.46,-2.47,-2.46
25.91,-7.31,-4.84,-7.30,-4.83,4.82,4.69,3.54,-2.48,-2.48,-2.47
26.16,-7.21,-4.74,-7.21,-4.74,4.73,4.62,3.62,-2.48,-2.48,-2.47
26.43,-7.12,-4.65,-7.12,-4.64,4.64,4.55,3.71,-2.48,-2.48,-2.47
26.69,-7.02,-4.54,-7.02,-4.54,4.55,4.47,3.79,-2.47,-2.47,-2.47
26.96,-6.93,-4.44,-6.93,-4.45,4.45,4.40,3.87,-2.47,-2.47,-2.48
27.23,-6.84,-4.35,-6.84,-4.35,4.36,4.33,3.94,-2.48,-2.48,-2.48
27.50,-6.76,-4.27,-6.76,-4.27,4.27,4.26,4.02,-2.49,-2.49,-2.49
27.77,-6.67,-4.18,-6.67,-4.18,4.18,4.18,4.09,-2.50,-2.49,-2.50
28.05,-6.59,-4.09,-6.59,-4.09,4.09,4.11,4.15,-2.50,-2.50,-2.50
28.33,-6.51,-4.00,-6.51,-4.00,4.00,4.04,4.21,-2.50,-2.50,-2.51
28.62,-6.43,-3.92,-6.43,-3.92,3.92,3.96,4.27,-2.51,-2.51,-2.51
28.90,-6.35,-3.84,-6.34,-3.83,3.83,3.88,4.32,-2.52,-2.51,-2.51
29.19,-6.26,-3.74,-6.25,-3.74,3.74,3.81,4.36,-2.52,-2.51,-2.51
29.48,-6.16,-3.65,-6.16,-3.65,3.65,3.73,4.39,-2.50,-2.51,-2.50
29.78,-6.07,-3.55,-6.07,-3.56,3.56,3.65,4.42,-2.51,-2.51,-2.51
30.08,-5.98,-3.47,-5.98,-3.47,3.47,3.57,4.44,-2.51,-2.51,-2.51
30.38,-5.90,-3.37,-5.90,-3.38,3.37,3.49,4.46,-2.52,-2.52,-2.53
30.68,-5.82,-3.29,-5.81,-3.29,3.28,3.41,4.46,-2.54,-2.53,-2.53
30.99,-5.73,-3.19,-5.73,-3.20,3.19,3.33,4.45,-2.54,-2.54,-2.54
31.30,-5.65,-3.11,-5.64,-3.10,3.11,3.25,4.43,-2.54,-2.54,-2.54
31.61,-5.56,-3.01,-5.55,-3.00,3.02,3.17,4.41,-2.53,-2.53,-2.54
31.93,-5.47,-2.90,-5.47,-2.92,2.94,3.09,4.37,-2.53,-2.54,-2.56
32.24,-5.41,-2.83,-5.41,-2.84,2.85,3.01,4.33,-2.55,-2.56,-2.57
32.57,-5.36,-2.78,-5.36,-2.78,2.76,2.92,4.28,-2.60,-2.60,-2.58
32.89,-5.32,-2.73,-5.30,-2.71,2.67,2.84,4.22,-2.64,-2.63,-2.59
33.22,-5.22,-2.61,-5.21,-2.60,2.58,2.76,4.15,-2.63,-2.63,-2.61
33.55,-5.09,-2.48,-5.10,-2.48,2.49,2.67,4.08,-2.61,-2.61,-2.61
33.89,-4.98,-2.34,-4.99,-2.36,2.39,2.59,3.99,-2.59,-2.60,-2.63
34.23,-4.90,-2.26,-4.90,-2.26,2.28,2.50,3.90,-2.61,-2.62,-2.64
34.57,-4.84,-2.18,-4.84,-2.18,2.17,2.41,3.80,-2.66,-2.66,-2.66
34.92,-4.78,-2.11,-4.76,-2.10,2.07,2.33,3.70,-2.71,-2.69,-2.67
35.27,-4.67,-2.00,-4.66,-1.98,1.97,2.24,3.59,-2.70,-2.69,-2.67
35.62,-4.55,-1.85,-4.54,-1.85,1.87,2.15,3.48,-2.67,-2.67,-2.69
35.97,-4.42,-1.71,-4.44,-1.74,1.78,2.06,3.36,-2.63,-2.66,-2.71
36.33,-4.38,-1.67,-4.38,-1.67,1.69,1.97,3.25,-2.69,-2.69,-2.71
36.70,-4.34,-1.62,-4.33,-1.61,1.59,1.88,3.12,-2.74,-2.74,-2.72
37.06,-4.28,-1.55,-4.26,-1.54,1.50,1.79,3.00,-2.79,-2.77,-2.73
37.43,-4.16,-1.44,-4.16,-1.43,1.40,1.70,2.87,-2.76,-2.76,-2.73
37.81,-4.04,-1.30,-4.05,-1.31,1.31,1.61,2.74,-2.72,-2.74,-2.74
38.19,-3.95,-1.19,-3.95,-1.21,1.22,1.52,2.61,-2.72,-2.73,-2.75
38.57,-3.88,-1.13,-3.88,-1.13,1.14,1.43,2.48,-2.73,-2.73,-2.74
38.95,-3.82,-1.06,-3.81,-1.05,1.06,1.34,2.35,-2.75,-2.74,-2.76
39.34,-3.74,-0.97,-3.73,-0.96,0.99,1.25,2.21,-2.75,-2.74,-2.76
39.74,-3.65,-0.87,-3.66,-0.88,0.91,1.15,2.08,-2.74,-2.74,-2.77
40.14,-3.59,-0.81,-3.61,-0.83,0.83,1.06,1.95,-2.75,-2.77,-2.78
40.54,-3.57,-0.78,-3.57,-0.79,0.75,0.97,1.81,-2.82,-2.82,-2.78
40.94,-3.55,-0.76,-3.51,-0.72,0.66,0.87,1.68,-2.88,-2.85,-2.79
41.35,-3.43,-0.63,-3.42,-0.62,0.57,0.78,1.55,-2.85,-2.85,-2.80
41.76,-3.28,-0.47,-3.30,-0.49,0.49,0.69,1.41,-2.80,-2.81,-2.81
42.18,-3.17,-0.35,-3.17,-0.35,0.41,0.59,1.28,-2.76,-2.76,-2.82
42.60,-3.09,-0.25,-3.08,-0.25,0.33,0.50,1.15,-2.76,-2.75,-2.83
43.03,-3.01,-0.17,-3.04,-0.20,0.24,0.41,1.02,-2.77,-2.80,-2.84
43.46,-3.03,-0.17,-3.03,-0.17,0.15,0.31,0.89,-2.88,-2.88,-2.86
43.90,-3.05,-0.16,-3.00,-0.12,0.07,0.22,0.76,-2.98,-2.94,-2.89
44.33,-2.96,-0.05,-2.95,-0.05,-0.01,0.12,0.63,-2.97,-2.97,-2.90
44.78,-2.85,0.08,-2.86,0.06,-0.09,0.03,0.50,-2.94,-2.95,-2.93
45.23,-2.75,0.19,-2.75,0.19,-0.17,-0.06,0.37,-2.92,-2.92,-2.94
45.68,-2.67,0.29,-2.67,0.29,-0.25,-0.16,0.24,-2.92,-2.92,-2.96
46.13,-2.60,0.38,-2.60,0.37,-0.34,-0.25,0.11,-2.93,-2.94,-2.97
46.60,-2.55,0.43,-2.54,0.43,-0.42,-0.34,-0.02,-2.97,-2.96,-2.98
47.06,-2.50,0.49,-2.49,0.50,-0.49,-0.43,-0.14,-2.99,-2.98,-2.99
47.53,-2.44,0.56,-2.44,0.55,-0.56,-0.53,-0.27,-3.00,-3.00,-2.99
48.01,-2.38,0.62,-2.39,0.61,-0.63,-0.62,-0.40,-3.00,-3.02,-3.00
48.49,-2.35,0.67,-2.34,0.67,-0.69,-0.71,-0.52,-3.03,-3.03,-3.01
48.97,-2.31,0.73,-2.29,0.74,-0.75,-0.80,-0.64,-3.05,-3.04,-3.03
49.46,-2.23,0.81,-2.23,0.82,-0.81,-0.89,-0.77,-3.04,-3.04,-3.04
49.96,-2.15,0.91,-2.16,0.89,-0.88,-0.98,-0.89,-3.03,-3.04,-3.06
50.46,-2.09,0.96,-2.09,0.96,-0.96,-1.06,-1.01,-3.04,-3.05,-3.05
50.96,-2.04,1.02,-2.03,1.03,-1.03,-1.15,-1.13,-3.07,-3.06,-3.05
51.47,-1.97,1.10,-1.97,1.09,-1.11,-1.24,-1.25,-3.08,-3.08,-3.06
51.99,-1.90,1.17,-1.89,1.18,-1.19,-1.32,-1.37,-3.08,-3.08,-3.07
52.51,-1.81,1.26,-1.81,1.26,-1.26,-1.40,-1.48,-3.07,-3.07,-3.07
53.03,-1.72,1.35,-1.74,1.33,-1.33,-1.49,-1.60,-3.05,-3.07,-3.07
53.56,-1.69,1.39,-1.68,1.40,-1.39,-1.57,-1.71,-3.08,-3.07,-3.08
54.10,-1.64,1.45,-1.60,1.48,-1.45,-1.65,-1.82,-3.09,-3.05,-3.09
54.64,-1.54,1.55,-1.56,1.54,-1.50,-1.73,-1.93,-3.04,-3.06,-3.09
55.18,-1.49,1.61,-1.53,1.57,-1.55,-1.80,-2.03,-3.04,-3.08,-3.10
55.74,-1.56,1.56,-1.52,1.59,-1.60,-1.88,-2.13,-3.15,-3.12,-3.11
56.29,-1.54,1.58,-1.51,1.61,-1.65,-1.95,-2.23,-3.19,-3.16,-3.11
56.86,-1.45,1.69,-1.47,1.66,-1.71,-2.03,-2.32,-3.16,-3.18,-3.13
57.42,-1.39,1.76,-1.39,1.75,-1.77,-2.10,-2.41,-3.16,-3.16,-3.15
58.00,-1.33,1.83,-1.33,1.83,-1.83,-2.17,-2.50,-3.15,-3.15,-3.16
58.58,-1.27,1.91,-1.26,1.92,-1.89,-2.24,-2.58,-3.16,-3.14,-3.17
59.16,-1.20,1.99,-1.18,2.01,-1.96,-2.30,-2.66,-3.16,-3.14,-3.19
59.76,-1.11,2.10,-1.14,2.06,-2.04,-2.36,-2.73,-3.15,-3.18,-3.21
60.35,-1.11,2.13,-1.13,2.10,-2.12,-2.43,-2.79,-3.23,-3.25,-3.23
60.96,-1.18,2.08,-1.12,2.14,-2.20,-2.49,-2.85,-3.38,-3.32,-3.26
61.57,-1.10,2.21,-1.08,2.22,-2.27,-2.54,-2.91,-3.37,-3.35,-3.30
62.18,-1.00,2.34,-1.00,2.33,-2.33,-2.60,-2.96,-3.33,-3.34,-3.34
62.80,-0.90,2.48,-0.93,2.45,-2.39,-2.65,-3.00,-3.28,-3.32,-3.38
63.43,-0.90,2.52,-0.90,2.51,-2.44,-2.71,-3.04,-3.34,-3.34,-3.41
64.07,-0.93,2.52,-0.90,2.54,-2.50,-2.76,-3.08,-3.42,-3.40,-3.45
64.71,-0.93,2.56,-0.94,2.54,-2.56,-2.80,-3.10,-3.48,-3.50,-3.49
65.35,-0.95,2.57,-0.96,2.56,-2.62,-2.85,-3.13,-3.57,-3.58,-3.51
66.01,-0.99,2.57,-0.94,2.61,-2.68,-2.89,-3.15,-3.67,-3.62,-3.55
66.67,-0.89,2.71,-0.90,2.69,-2.74,-2.93,-3.16,-3.63,-3.64,-3.59
67.33,-0.81,2.82,-0.82,2.80,-2.80,-2.97,-3.17,-3.61,-3.62,-3.62
68.01,-0.76,2.91,-0.74,2.92,-2.87,-3.01,-3.18,-3.62,-3.61,-3.66
68.69,-0.70,3.01,-0.71,2.99,-2.94,-3.05,-3.18,-3.63,-3.65,-3.70
69.37,-0.70,3.05,-0.70,3.04,-3.00,-3.08,-3.18,-3.70,-3.71,-3.74
70.07,-0.73,3.06,-0.71,3.07,-3.06,-3.11,-3.18,-3.79,-3.78,-3.79
70.77,-0.73,3.09,-0.72,3.10,-3.12,-3.14,-3.17,-3.84,-3.84,-3.82
71.48,-0.73,3.13,-0.73,3.13,-3.16,-3.17,-3.16,-3.88,-3.89,-3.86
72.19,-0.73,3.18,-0.73,3.18,-3.20,-3.20,-3.15,-3.92,-3.92,-3.90
72.91,-0.73,3.23,-0.73,3.23,-3.23,-3.22,-3.14,-3.96,-3.96,-3.96
73.64,-0.73,3.28,-0.73,3.28,-3.27,-3.25,-3.13,-4.00,-4.00,-4.00
74.38,-0.73,3.32,-0.73,3.32,-3.32,-3.27,-3.12,-4.04,-4.04,-4.05
75.12,-0.73,3.37,-0.73,3.36,-3.36,-3.29,-3.11,-4.09,-4.09,-4.09
75.87,-0.73,3.40,-0.73,3.40,-3.40,-3.31,-3.10,-4.13,-4.13,-4.13
76.63,-0.73,3.44,-0.73,3.44,-3.44,-3.33,-3.09,-4.17,-4.17,-4.17
77.40,-0.73,3.48,-0.73,3.48,-3.48,-3.34,-3.08,-4.21,-4.21,-4.20
78.17,-0.73,3.52,-0.73,3.51,-3.52,-3.36,-3.07,-4.24,-4.24,-4.24
78.95,-0.73,3.54,-0.73,3.54,-3.55,-3.37,-3.06,-4.28,-4.28,-4.27
79.74,-0.73,3.57,-0.73,3.57,-3.58,-3.38,-3.05,-4.31,-4.31,-4.30
80.54,-0.73,3.60,-0.73,3.60,-3.61,-3.40,-3.05,-4.34,-4.34,-4.33
81.35,-0.73,3.63,-0.72,3.64,-3.63,-3.41,-3.05,-4.36,-4.35,-4.36
82.16,-0.73,3.66,-0.73,3.66,-3.64,-3.42,-3.04,-4.37,-4.37,-4.39
82.98,-0.73,3.68,-0.76,3.66,-3.64,-3.43,-3.04,-4.36,-4.39,-4.41
83.81,-0.83,3.63,-0.79,3.66,-3.63,-3.44,-3.05,-4.45,-4.42,-4.45
84.65,-0.84,3.65,-0.84,3.64,-3.62,-3.44,-3.05,-4.46,-4.46,-4.48
85.50,-0.88,3.63,-0.92,3.59,-3.61,-3.45,-3.06,-4.49,-4.53,-4.51
86.35,-0.99,3.55,-0.99,3.55,-3.60,-3.46,-3.07,-4.58,-4.59,-4.54
87.22,-1.10,3.48,-1.03,3.54,-3.59,-3.47,-3.08,-4.68,-4.62,-4.57
88.09,-1.06,3.55,-1.04,3.57,-3.58,-3.47,-3.10,-4.64,-4.62,-4.61
88.97,-0.95,3.69,-1.03,3.61,-3.58,-3.48,-3.11,-4.53,-4.62,-4.63
89.86,-1.05,3.62,-1.04,3.63,-3.59,-3.48,-3.13,-4.64,-4.63,-4.67
90.76,-1.12,3.59,-1.08,3.62,-3.61,-3.49,-3.16,-4.72,-4.69,-4.70
91.66,-1.12,3.61,-1.12,3.61,-3.63,-3.49,-3.18,-4.75,-4.75,-4.73
92.58,-1.12,3.65,-1.12,3.64,-3.66,-3.50,-3.21,-4.77,-4.78,-4.76
93.51,-1.12,3.67,-1.12,3.67,-3.68,-3.50,-3.24,-4.80,-4.80,-4.79
94.44,-1.12,3.70,-1.12,3.70,-3.70,-3.50,-3.27,-4.82,-4.82,-4.82
95.39,-1.13,3.72,-1.12,3.73,-3.73,-3.51,-3.30,-4.85,-4.85,-4.84
96.34,-1.13,3.76,-1.12,3.76,-3.75,-3.51,-3.34,-4.88,-4.87,-4.88
97.30,-1.13,3.78,-1.13,3.78,-3.77,-3.51,-3.38,-4.90,-4.90,-4.91
98.28,-1.14,3.80,-1.14,3.80,-3.78,-3.52,-3.42,-4.92,-4.92,-4.94
99.26,-1.16,3.80,-1.15,3.81,-3.79,-3.52,-3.46,-4.95,-4.94,-4.95
100.25,-1.18,3.81,-1.17,3.81,-3.80,-3.52,-3.50,-4.97,-4.97,-4.98
101.25,-1.20,3.81,-1.21,3.80,-3.80,-3.52,-3.54,-5.00,-5.01,-5.01
102.27,-1.26,3.78,-1.26,3.78,-3.81,-3.53,-3.59,-5.06,-5.07,-5.04
103.29,-1.32,3.77,-1.31,3.77,-3.80,-3.53,-3.64,-5.12,-5.11,-5.09
104.32,-1.36,3.75,-1.32,3.79,-3.79,-3.53,-3.68,-5.15,-5.12,-5.11
105.37,-1.33,3.82,-1.34,3.81,-3.78,-3.53,-3.73,-5.11,-5.12,-5.14
106.42,-1.33,3.85,-1.37,3.80,-3.77,-3.53,-3.78,-5.10,-5.14,-5.17
107.48,-1.45,3.76,-1.43,3.78,-3.75,-3.54,-3.82,-5.20,-5.18,-5.21
108.56,-1.54,3.71,-1.50,3.75,-3.74,-3.54,-3.87,-5.28,-5.24,-5.25
109.64,-1.56,3.73,-1.59,3.69,-3.73,-3.54,-3.91,-5.29,-5.32,-5.29
110.74,-1.62,3.70,-1.64,3.68,-3.72,-3.54,-3.95,-5.33,-5.35,-5.32
111.85,-1.74,3.61,-1.66,3.69,-3.70,-3.54,-3.99,-5.43,-5.36,-5.34
112.97,-1.67,3.72,-1.70,3.68,-3.68,-3.54,-4.03,-5.34,-5.38,-5.39
114.10,-1.70,3.71,-1.73,3.68,-3.66,-3.54,-4.07,-5.36,-5.39,-5.41
115.24,-1.81,3.64,-1.76,3.68,-3.64,-3.54,-4.10,-5.45,-5.41,-5.45
116.39,-1.83,3.65,-1.83,3.64,-3.63,-3.54,-4.13,-5.46,-5.46,-5.47
117.55,-1.88,3.62,-1.89,3.61,-3.63,-3.54,-4.15,-5.50,-5.52,-5.50
118.73,-1.94,3.59,-1.94,3.58,-3.61,-3.54,-4.17,-5.55,-5.55,-5.53
119.92,-2.00,3.54,-1.97,3.57,-3.59,-3.53,-4.18,-5.59,-5.56,-5.53
121.12,-1.99,3.57,-1.99,3.56,-3.57,-3.53,-4.20,-5.55,-5.56,-5.56
122.33,-1.99,3.59,-2.00,3.57,-3.54,-3.53,-4.20,-5.53,-5.54,-5.57
123.55,-2.03,3.55,-2.02,3.56,-3.52,-3.53,-4.20,-5.55,-5.54,-5.58
124.79,-2.08,3.53,-2.08,3.52,-3.50,-3.52,-4.19,-5.58,-5.59,-5.60
126.03,-2.15,3.47,-2.17,3.44,-3.48,-3.52,-4.18,-5.63,-5.65,-5.62
127.29,-2.26,3.37,-2.22,3.42,-3.45,-3.51,-4.16,-5.70,-5.66,-5.63
128.57,-2.29,3.37,-2.24,3.42,-3.41,-3.51,-4.14,-5.70,-5.64,-5.65
129.85,-2.18,3.49,-2.25,3.42,-3.38,-3.50,-4.11,-5.55,-5.63,-5.67
131.15,-2.28,3.40,-2.30,3.38,-3.35,-3.49,-4.08,-5.63,-5.65,-5.68
132.46,-2.39,3.30,-2.38,3.31,-3.33,-3.49,-4.04,-5.72,-5.71,-5.69
133.79,-2.50,3.20,-2.44,3.26,-3.32,-3.48,-4.00,-5.82,-5.76,-5.69
135.12,-2.46,3.27,-2.44,3.27,-3.31,-3.47,-3.95,-5.77,-5.75,-5.72
136.48,-2.37,3.36,-2.43,3.30,-3.30,-3.46,-3.90,-5.66,-5.72,-5.72
137.84,-2.43,3.32,-2.42,3.33,-3.28,-3.45,-3.85,-5.70,-5.70,-5.74
139.22,-2.49,3.29,-2.47,3.30,-3.26,-3.44,-3.79,-5.75,-5.73,-5.77
140.61,-2.52,3.27,-2.53,3.26,-3.24,-3.43,-3.73,-5.76,-5.77,-5.79
142.02,-2.59,3.20,-2.57,3.22,-3.22,-3.41,-3.67,-5.81,-5.80,-5.79
143.44,-2.61,3.20,-2.62,3.19,-3.20,-3.40,-3.60,-5.80,-5.82,-5.81
144.87,-2.68,3.16,-2.67,3.16,-3.16,-3.39,-3.53,-5.84,-5.83,-5.83
146.32,-2.72,3.14,-2.72,3.14,-3.14,-3.37,-3.46,-5.85,-5.85,-5.86
147.78,-2.78,3.11,-2.79,3.10,-3.12,-3.36,-3.39,-5.89,-5.90,-5.89
149.26,-2.85,3.08,-2.84,3.08,-3.11,-3.34,-3.32,-5.96,-5.95,-5.92
150.75,-2.91,3.07,-2.89,3.08,-3.11,-3.32,-3.25,-6.02,-6.00,-5.98
152.26,-2.92,3.10,-2.91,3.11,-3.12,-3.30,-3.18,-6.04,-6.04,-6.02
153.78,-2.92,3.16,-2.93,3.14,-3.13,-3.29,-3.11,-6.05,-6.07,-6.07
155.32,-2.97,3.17,-2.97,3.17,-3.15,-3.27,-3.04,-6.12,-6.11,-6.14
156.88,-3.02,3.17,-3.02,3.18,-3.16,-3.25,-2.97,-6.18,-6.18,-6.19
158.44,-3.09,3.18,-3.08,3.18,-3.17,-3.22,-2.91,-6.26,-6.25,-6.26
160.03,-3.14,3.19,-3.14,3.18,-3.17,-3.20,-2.84,-6.30,-6.31,-6.32
161.63,-3.21,3.17,-3.21,3.17,-3.16,-3.18,-2.77,-6.37,-6.37,-6.37
163.24,-3.28,3.16,-3.27,3.15,-3.15,-3.15,-2.71,-6.42,-6.42,-6.43
164.88,-3.35,3.12,-3.35,3.12,-3.13,-3.13,-2.64,-6.47,-6.47,-6.46
166.53,-3.41,3.10,-3.42,3.08,-3.10,-3.10,-2.58,-6.51,-6.52,-6.50
168.19,-3.50,3.04,-3.48,3.05,-3.07,-3.08,-2.52,-6.57,-6.55,-6.53
169.87,-3.54,3.02,-3.51,3.05,-3.04,-3.05,-2.46,-6.58,-6.55,-6.56
171.57,-3.54,3.04,-3.54,3.03,-3.01,-3.02,-2.40,-6.54,-6.55,-6.58
173.29,-3.55,3.04,-3.61,2.98,-2.97,-2.99,-2.35,-6.52,-6.57,-6.58
175.02,-3.69,2.91,-3.67,2.92,-2.93,-2.96,-2.29,-6.62,-6.60,-6.59
176.77,-3.80,2.80,-3.72,2.87,-2.89,-2.93,-2.24,-6.68,-6.61,-6.60
178.54,-3.73,2.88,-3.76,2.83,-2.84,-2.90,-2.19,-6.57,-6.60,-6.60
180.32,-3.76,2.83,-3.79,2.81,-2.79,-2.87,-2.14,-6.55,-6.58,-6.59
182.13,-3.84,2.75,-3.82,2.77,-2.74,-2.83,-2.10,-6.58,-6.56,-6.58
183.95,-3.91,2.68,-3.90,2.69,-2.70,-2.80,-2.05,-6.61,-6.60,-6.59
185.79,-3.95,2.65,-3.95,2.64,-2.66,-2.76,-2.01,-6.61,-6.62,-6.59
187.65,-4.01,2.60,-3.99,2.61,-2.63,-2.73,-1.96,-6.63,-6.62,-6.61
189.52,-4.01,2.60,-4.02,2.59,-2.59,-2.69,-1.93,-6.60,-6.61,-6.61
191.42,-4.05,2.58,-4.05,2.57,-2.57,-2.65,-1.89,-6.61,-6.62,-6.62
193.33,-4.09,2.55,-4.08,2.55,-2.54,-2.62,-1.85,-6.63,-6.63,-6.63
195.27,-4.14,2.51,-4.13,2.52,-2.52,-2.58,-1.81,-6.66,-6.65,-6.65
197.22,-4.17,2.50,-4.17,2.49,-2.50,-2.54,-1.78,-6.66,-6.67,-6.67
199.19,-4.22,2.47,-4.21,2.47,-2.47,-2.50,-1.74,-6.68,-6.68,-6.69
201.18,-4.25,2.45,-4.23,2.47,-2.44,-2.46,-1.71,-6.68,-6.67,-6.70
203.19,-4.28,2.43,-4.29,2.43,-2.40,-2.41,-1.68,-6.68,-6.69,-6.71
205.23,-4.33,2.41,-4.36,2.36,-2.37,-2.37,-1.65,-6.70,-6.74,-6.74
207.28,-4.48,2.26,-4.45,2.30,-2.34,-2.33,-1.62,-6.81,-6.79,-6.74
209.35,-4.54,2.23,-4.50,2.26,-2.30,-2.28,-1.59,-6.84,-6.81,-6.77
211.44,-4.53,2.26,-4.51,2.27,-2.27,-2.24,-1.57,-6.79,-6.78,-6.79
213.56,-4.50,2.30,-4.54,2.25,-2.22,-2.19,-1.54,-6.72,-6.77,-6.80
215.69,-4.56,2.25,-4.60,2.21,-2.18,-2.15,-1.51,-6.73,-6.78,-6.81
217.85,-4.76,2.06,-4.67,2.15,-2.13,-2.10,-1.49,-6.89,-6.80,-6.81
220.03,-4.74,2.10,-4.74,2.09,-2.09,-2.05,-1.46,-6.83,-6.83,-6.83
222.23,-4.76,2.08,-4.79,2.04,-2.05,-2.00,-1.44,-6.81,-6.84,-6.84
224.45,-4.83,2.00,-4.84,1.99,-2.01,-1.95,-1.41,-6.83,-6.85,-6.83
226.70,-4.94,1.89,-4.91,1.91,-1.95,-1.90,-1.39,-6.89,-6.87,-6.82
228.96,-4.99,1.83,-4.94,1.88,-1.90,-1.85,-1.36,-6.88,-6.83,-6.82
231.25,-4.93,1.88,-4.95,1.86,-1.84,-1.80,-1.33,-6.76,-6.79,-6.81
233.57,-4.91,1.89,-4.96,1.83,-1.77,-1.75,-1.31,-6.68,-6.74,-6.79
235.90,-5.05,1.73,-5.01,1.77,-1.71,-1.69,-1.28,-6.76,-6.72,-6.78
238.26,-5.11,1.65,-5.10,1.66,-1.65,-1.64,-1.25,-6.76,-6.75,-6.76
240.64,-5.17,1.57,-5.18,1.55,-1.60,-1.58,-1.23,-6.76,-6.78,-6.73
243.05,-5.23,1.47,-5.23,1.47,-1.54,-1.53,-1.20,-6.76,-6.77,-6.70
245.48,-5.28,1.40,-5.24,1.44,-1.48,-1.47,-1.17,-6.76,-6.72,-6.67
247.93,-5.23,1.42,-5.23,1.42,-1.42,-1.41,-1.14,-6.65,-6.65,-6.65
250.41,-5.18,1.46,-5.22,1.41,-1.37,-1.36,-1.11,-6.55,-6.59,-6.63
252.92,-5.24,1.36,-5.24,1.36,-1.32,-1.30,-1.07,-6.56,-6.56,-6.60
255.45,-5.30,1.28,-5.29,1.29,-1.27,-1.24,-1.04,-6.57,-6.56,-6.57
258.00,-5.37,1.19,-5.34,1.22,-1.22,-1.18,-1.01,-6.59,-6.56,-6.56
260.58,-5.36,1.19,-5.37,1.17,-1.16,-1.12,-0.97,-6.51,-6.53,-6.54
263.19,-5.40,1.12,-5.42,1.10,-1.10,-1.05,-0.93,-6.49,-6.51,-6.52
265.82,-5.47,1.03,-5.49,1.01,-1.03,-0.99,-0.90,-6.50,-6.52,-6.50
268.48,-5.59,0.89,-5.54,0.93,-0.97,-0.92,-0.86,-6.56,-6.52,-6.47
271.16,-5.60,0.85,-5.57,0.88,-0.92,-0.86,-0.82,-6.51,-6.49,-6.45
273.87,-5.55,0.89,-5.59,0.84,-0.86,-0.79,-0.78,-6.40,-6.44,-6.43
276.61,-5.58,0.83,-5.58,0.82,-0.79,-0.73,-0.74,-6.37,-6.38,-6.41
279.38,-5.65,0.73,-5.61,0.77,-0.72,-0.66,-0.69,-6.36,-6.33,-6.38
282.17,-5.66,0.71,-5.68,0.68,-0.63,-0.59,-0.65,-6.29,-6.31,-6.36
284.99,-5.75,0.58,-5.76,0.57,-0.55,-0.52,-0.61,-6.29,-6.30,-6.33
287.84,-5.86,0.44,-5.85,0.45,-0.45,-0.45,-0.56,-6.31,-6.30,-6.30
290.72,-5.95,0.32,-5.94,0.32,-0.35,-0.38,-0.52,-6.30,-6.30,-6.26
293.63,-6.03,0.21,-6.02,0.21,-0.25,-0.30,-0.47,-6.28,-6.27,-6.23
296.57,-6.07,0.13,-6.08,0.12,-0.15,-0.23,-0.42,-6.22,-6.23,-6.20
299.53,-6.14,0.04,-6.13,0.05,-0.06,-0.16,-0.37,-6.19,-6.19,-6.18
302.53,-6.18,-0.02,-6.16,-0.02,0.03,-0.08,-0.33,-6.14,-6.13,-6.15
305.55,-6.20,-0.08,-6.21,-0.08,0.12,-0.00,-0.28,-6.08,-6.09,-6.11
308.61,-6.25,-0.15,-6.27,-0.18,0.20,0.07,-0.23,-6.05,-6.07,-6.10
311.69,-6.36,-0.28,-6.35,-0.27,0.27,0.15,-0.18,-6.08,-6.07,-6.08
314.81,-6.45,-0.40,-6.42,-0.37,0.35,0.23,-0.13,-6.10,-6.07,-6.04
317.96,-6.48,-0.44,-6.48,-0.45,0.42,0.31,-0.08,-6.05,-6.06,-6.03
321.14,-6.53,-0.51,-6.53,-0.52,0.50,0.39,-0.02,-6.02,-6.03,-6.02
324.35,-6.58,-0.57,-6.59,-0.58,0.59,0.47,0.03,-5.99,-6.00,-6.01
327.59,-6.67,-0.68,-6.65,-0.66,0.67,0.55,0.08,-5.99,-5.97,-5.99
330.87,-6.72,-0.74,-6.71,-0.73,0.77,0.63,0.13,-5.95,-5.95,-5.98
334.18,-6.78,-0.80,-6.80,-0.82,0.86,0.71,0.19,-5.92,-5.94,-5.97
337.52,-6.88,-0.91,-6.89,-0.93,0.95,0.80,0.24,-5.93,-5.95,-5.96
340.90,-7.03,-1.08,-7.00,-1.05,1.04,0.88,0.30,-5.99,-5.96,-5.95
344.30,-7.11,-1.17,-7.10,-1.16,1.13,0.96,0.35,-5.98,-5.98,-5.94
347.75,-7.17,-1.24,-7.18,-1.25,1.21,1.04,0.41,-5.96,-5.97,-5.93
351.23,-7.24,-1.32,-7.23,-1.30,1.28,1.12,0.47,-5.95,-5.94,-5.92
354.74,-7.28,-1.35,-7.26,-1.34,1.35,1.20,0.52,-5.92,-5.91,-5.92
358.28,-7.28,-1.36,-7.30,-1.39,1.41,1.28,0.58,-5.87,-5.90,-5.91
361.87,-7.34,-1.42,-7.35,-1.44,1.46,1.36,0.64,-5.88,-5.90,-5.91
365.49,-7.45,-1.54,-7.41,-1.50,1.50,1.44,0.70,-5.94,-5.91,-5.91
369.14,-7.47,-1.56,-7.47,-1.56,1.55,1.51,0.76,-5.92,-5.92,-5.91
372.83,-7.50,-1.59,-7.51,-1.60,1.60,1.58,0.82,-5.90,-5.91,-5.91
376.56,-7.54,-1.63,-7.54,-1.64,1.66,1.65,0.88,-5.88,-5.89,-5.91
380.33,-7.61,-1.72,-7.59,-1.69,1.71,1.72,0.94,-5.89,-5.88,-5.89
384.13,-7.65,-1.74,-7.65,-1.75,1.76,1.79,1.00,-5.88,-5.89,-5.90
387.97,-7.71,-1.80,-7.72,-1.82,1.80,1.85,1.06,-5.90,-5.91,-5.90
391.85,-7.78,-1.87,-7.77,-1.87,1.84,1.91,1.12,-5.94,-5.93,-5.90
395.77,-7.82,-1.92,-7.81,-1.91,1.88,1.96,1.18,-5.94,-5.93,-5.89
399.73,-7.83,-1.93,-7.82,-1.92,1.91,2.01,1.24,-5.92,-5.92,-5.90
403.72,-7.83,-1.92,-7.83,-1.93,1.94,2.05,1.30,-5.89,-5.89,-5.91
407.76,-7.83,-1.92,-7.84,-1.94,1.97,2.09,1.36,-5.86,-5.87,-5.91
411.84,-7.87,-1.97,-7.87,-1.96,1.99,2.13,1.42,-5.87,-5.88,-5.90
415.96,-7.93,-2.02,-7.92,-2.01,2.02,2.16,1.47,-5.90,-5.89,-5.91
420.12,-7.96,-2.05,-7.97,-2.06,2.06,2.18,1.53,-5.90,-5.91,-5.91
424.32,-8.02,-2.12,-8.00,-2.09,2.09,2.19,1.58,-5.93,-5.91,-5.90
428.56,-8.02,-2.12,-8.02,-2.13,2.12,2.20,1.63,-5.89,-5.90,-5.90
432.85,-8.03,-2.14,-8.05,-2.16,2.15,2.21,1.68,-5.87,-5.89,-5.88
