frequency,raw,error,smoothed,error_smoothed,equalization,parametric_eq,fixed_band_eq,equalized_raw,equalized_smoothed,target
20.00,4.19,4.08,4.19,4.08,-4.08,-3.95,-2.14,0.11,0.12,0.11
20.20,4.20,4.12,4.20,4.11,-4.11,-3.98,-2.20,0.09,0.09,0.08
20.40,4.21,4.15,4.21,4.14,-4.14,-4.02,-2.26,0.07,0.06,0.06
20.61,4.21,4.17,4.21,4.17,-4.17,-4.05,-2.32,0.04,0.04,0.04
20.81,4.22,4.20,4.22,4.20,-4.20,-4.08,-2.39,0.02,0.02,0.02
21.02,4.23,4.23,4.23,4.23,-4.23,-4.11,-2.46,-0.00,-0.00,0.00
21.23,4.24,4.26,4.24,4.26,-4.26,-4.14,-2.53,-0.02,-0.02,-0.02
21.44,4.25,4.29,4.25,4.29,-4.28,-4.17,-2.60,-0.03,-0.03,-0.04
21.66,4.26,4.32,4.26,4.31,-4.31,-4.20,-2.67,-0.05,-0.05,-0.06
21.87,4.27,4.34,4.27,4.34,-4.33,-4.23,-2.75,-0.06,-0.07,-0.07
22.09,4.27,4.36,4.27,4.36,-4.35,-4.26,-2.83,-0.08,-0.08,-0.09
22.31,4.28,4.38,4.28,4.38,-4.38,-4.29,-2.91,-0.10,-0.10,-0.10
22.54,4.29,4.40,4.29,4.39,-4.39,-4.32,-2.99,-0.10,-0.11,-0.11
22.76,4.29,4.41,4.29,4.41,-4.41,-4.35,-3.07,-0.12,-0.12,-0.12
22.99,4.30,4.43,4.30,4.43,-4.43,-4.38,-3.16,-0.13,-0.13,-0.13
23.22,4.31,4.45,4.31,4.45,-4.45,-4.40,-3.24,-0.14,-0.14,-0.14
23.45,4.32,4.47,4.32,4.47,-4.46,-4.43,-3.33,-0.14,-0.14,-0.15
23.69,4.33,4.49,4.33,4.48,-4.48,-4.46,-3.42,-0.15,-0.15,-0.16
23.92,4.34,4.50,4.34,4.50,-4.50,-4.48,-3.52,-0.16,-0.16,-0.16
24.16,4.35,4.52,4.35,4.51,-4.51,-4.51,-3.61,-0.16,-0.16,-0.17
24.40,4.36,4.53,4.36,4.53,-4.53,-4.53,-3.71,-0.17,-0.17,-0.17
24.65,4.37,4.55,4.37,4.54,-4.54,-4.56,-3.81,-0.17,-0.17,-0.18
24.89,4.38,4.56,4.38,4.56,-4.56,-4.58,-3.90,-0.18,-0.18,-0.18
25.14,4.38,4.57,4.38,4.57,-4.57,-4.60,-4.00,-0.19,-0.19,-0.19
25.39,4.39,4.59,4.39,4.58,-4.58,-4.62,-4.10,-0.19,-0.19,-0.20
25.65,4.40,4.60,4.40,4.60,-4.60,-4.65,-4.20,-0.20,-0.20,-0.20
25.91,4.41,4.62,4.41,4.61,-4.61,-4.67,-4.31,-0.20,-0.20,-0.21
26.16,4.42,4.63,4.42,4.63,-4.63,-4.69,-4.41,-0.21,-0.21,-0.21
26.43,4.43,4.64,4.43,4.64,-4.64,-4.71,-4.51,-0.21,-0.21,-0.21
26.69,4.44,4.66,4.44,4.65,-4.65,-4.73,-4.60,-0.21,-0.21,-0.22
26.96,4.45,4.67,4.45,4.67,-4.67,-4.75,-4.70,-0.22,-0.22,-0.22
27.23,4.46,4.69,4.46,4.68,-4.68,-4.76,-4.80,-0.22,-0.22,-0.23
27.50,4.47,4.70,4.47,4.69,-4.69,-4.78,-4.89,-0.22,-0.23,-0.23
27.77,4.47,4.70,4.47,4.70,-4.70,-4.80,-4.98,-0.23,-0.23,-0.23
28.05,4.48,4.72,4.48,4.71,-4.72,-4.81,-5.07,-0.24,-0.24,-0.24
28.33,4.49,4.73,4.49,4.73,-4.73,-4.83,-5.15,-0.24,-0.24,-0.24
28.62,4.50,4.74,4.50,4.74,-4.74,-4.84,-5.23,-0.24,-0.24,-0.24
28.90,4.52,4.77,4.52,4.76,-4.75,-4.86,-5.31,-0.23,-0.24,-0.25
29.19,4.53,4.78,4.53,4.77,-4.77,-4.87,-5.38,-0.24,-0.24,-0.25
29.48,4.53,4.78,4.53,4.78,-4.78,-4.89,-5.44,-0.25,-0.25,-0.25
29.78,4.54,4.79,4.54,4.79,-4.79,-4.90,-5.50,-0.25,-0.25,-0.25
30.08,4.55,4.80,4.55,4.80,-4.81,-4.91,-5.55,-0.26,-0.26,-0.25
30.38,4.57,4.83,4.57,4.82,-4.82,-4.92,-5.59,-0.25,-0.25,-0.26
30.68,4.58,4.84,4.58,4.84,-4.84,-4.93,-5.63,-0.26,-0.25,-0.26
30.99,4.60,4.86,4.60,4.85,-4.85,-4.94,-5.66,-0.25,-0.25,-0.26
31.30,4.61,4.87,4.61,4.87,-4.87,-4.95,-5.68,-0.26,-0.26,-0.26
31.61,4.62,4.89,4.62,4.88,-4.88,-4.96,-5.70,-0.26,-0.26,-0.27
31.93,4.63,4.90,4.63,4.89,-4.90,-4.97,-5.71,-0.27,-0.27,-0.27
32.24,4.64,4.91,4.64,4.91,-4.91,-4.98,-5.71,-0.27,-0.27,-0.27
32.57,4.65,4.93,4.65,4.92,-4.93,-4.99,-5.71,-0.28,-0.27,-0.28
32.89,4.67,4.95,4.66,4.94,-4.94,-5.00,-5.69,-0.27,-0.27,-0.28
33.22,4.67,4.95,4.67,4.95,-4.95,-5.00,-5.68,-0.28,-0.28,-0.28
33.55,4.68,4.97,4.68,4.96,-4.96,-5.01,-5.65,-0.28,-0.28,-0.29
33.89,4.69,4.98,4.69,4.97,-4.97,-5.02,-5.63,-0.28,-0.29,-0.29
34.23,4.69,4.98,4.69,4.98,-4.98,-5.02,-5.59,-0.29,-0.29,-0.29
34.57,4.70,5.00,4.70,4.99,-5.00,-5.03,-5.56,-0.30,-0.29,-0.30
34.92,4.71,5.01,4.71,5.00,-5.01,-5.03,-5.52,-0.30,-0.30,-0.30
35.27,4.72,5.02,4.72,5.02,-5.02,-5.04,-5.47,-0.30,-0.30,-0.30
35.62,4.73,5.04,4.73,5.03,-5.03,-5.04,-5.43,-0.30,-0.30,-0.31
35.97,4.74,5.05,4.74,5.05,-5.05,-5.05,-5.38,-0.31,-0.31,-0.31
36.33,4.75,5.06,4.75,5.06,-5.06,-5.05,-5.33,-0.31,-0.31,-0.31
36.70,4.77,5.08,4.77,5.07,-5.07,-5.05,-5.28,-0.30,-0.31,-0.31
37.06,4.78,5.09,4.78,5.09,-5.09,-5.05,-5.23,-0.31,-0.31,-0.31
37.43,4.79,5.11,4.79,5.10,-5.10,-5.06,-5.18,-0.31,-0.31,-0.32
37.81,4.80,5.12,4.80,5.12,-5.12,-5.06,-5.13,-0.32,-0.32,-0.32
38.19,4.81,5.13,4.81,5.13,-5.13,-5.06,-5.09,-0.32,-0.32,-0.32
38.57,4.82,5.15,4.82,5.14,-5.15,-5.06,-5.04,-0.33,-0.33,-0.33
38.95,4.83,5.16,4.83,5.16,-5.16,-5.06,-4.99,-0.33,-0.33,-0.33
39.34,4.84,5.18,4.84,5.17,-5.18,-5.07,-4.95,-0.34,-0.34,-0.34
39.74,4.85,5.19,4.85,5.19,-5.19,-5.07,-4.91,-0.34,-0.34,-0.34
40.14,4.86,5.21,4.86,5.20,-5.20,-5.07,-4.87,-0.34,-0.34,-0.35
40.54,4.87,5.22,4.87,5.21,-5.21,-5.07,-4.83,-0.34,-0.34,-0.35
40.94,4.88,5.23,4.88,5.22,-5.22,-5.07,-4.80,-0.34,-0.34,-0.35
41.35,4.88,5.23,4.88,5.23,-5.23,-5.07,-4.77,-0.35,-0.34,-0.35
41.76,4.89,5.24,4.89,5.23,-5.23,-5.07,-4.74,-0.34,-0.34,-0.35
42.18,4.89,5.24,4.89,5.23,-5.23,-5.07,-4.72,-0.34,-0.34,-0.35
42.60,4.89,5.24,4.89,5.23,-5.23,-5.07,-4.70,-0.34,-0.34,-0.35
43.03,4.89,5.23,4.89,5.23,-5.23,-5.07,-4.68,-0.34,-0.34,-0.34
43.46,4.89,5.23,4.89,5.23,-5.23,-5.07,-4.67,-0.34,-0.34,-0.34
43.90,4.89,5.23,4.89,5.22,-5.22,-5.07,-4.66,-0.33,-0.33,-0.34
44.33,4.88,5.22,4.88,5.22,-5.21,-5.07,-4.65,-0.33,-0.33,-0.34
44.78,4.87,5.21,4.87,5.21,-5.21,-5.07,-4.65,-0.34,-0.34,-0.34
45.23,4.87,5.21,4.87,5.20,-5.20,-5.07,-4.65,-0.33,-0.34,-0.34
45.68,4.86,5.20,4.86,5.20,-5.20,-5.07,-4.65,-0.34,-0.34,-0.34
46.13,4.86,5.20,4.86,5.20,-5.20,-5.06,-4.66,-0.34,-0.34,-0.34
46.60,4.86,5.20,4.86,5.20,-5.20,-5.06,-4.67,-0.34,-0.34,-0.34
47.06,4.86,5.20,4.86,5.20,-5.20,-5.06,-4.68,-0.34,-0.34,-0.34
47.53,4.86,5.21,4.86,5.20,-5.20,-5.06,-4.70,-0.34,-0.34,-0.35
48.01,4.86,5.21,4.86,5.21,-5.20,-5.06,-4.72,-0.34,-0.34,-0.35
48.49,4.86,5.21,4.86,5.21,-5.20,-5.06,-4.74,-0.34,-0.34,-0.35
48.97,4.86,5.21,4.86,5.21,-5.21,-5.06,-4.77,-0.35,-0.35,-0.35
49.46,4.86,5.21,4.86,5.21,-5.21,-5.06,-4.80,-0.35,-0.35,-0.35
49.96,4.86,5.21,4.86,5.21,-5.21,-5.05,-4.83,-0.35,-0.35,-0.35
50.46,4.86,5.21,4.86,5.21,-5.20,-5.05,-4.86,-0.34,-0.34,-0.35
50.96,4.86,5.21,4.86,5.20,-5.20,-5.05,-4.90,-0.34,-0.34,-0.35
51.47,4.86,5.20,4.86,5.20,-5.20,-5.05,-4.93,-0.34,-0.34,-0.34
51.99,4.86,5.20,4.86,5.20,-5.20,-5.05,-4.97,-0.34,-0.34,-0.34
52.51,4.86,5.20,4.86,5.20,-5.20,-5.05,-5.01,-0.34,-0.34,-0.34
53.03,4.86,5.20,4.86,5.19,-5.19,-5.05,-5.05,-0.33,-0.34,-0.34
53.56,4.86,5.20,4.86,5.19,-5.19,-5.05,-5.10,-0.33,-0.33,-0.34
54.10,4.86,5.19,4.86,5.19,-5.20,-5.04,-5.14,-0.34,-0.33,-0.33
54.64,4.87,5.20,4.87,5.19,-5.20,-5.04,-5.18,-0.33,-0.33,-0.33
55.18,4.87,5.20,4.87,5.20,-5.20,-5.04,-5.22,-0.33,-0.33,-0.33
55.74,4.88,5.21,4.88,5.20,-5.20,-5.04,-5.26,-0.32,-0.32,-0.33
56.29,4.89,5.21,4.89,5.21,-5.20,-5.04,-5.29,-0.31,-0.32,-0.32
56.86,4.89,5.21,4.89,5.21,-5.20,-5.04,-5.33,-0.31,-0.31,-0.32
57.42,4.89,5.21,4.89,5.20,-5.20,-5.03,-5.36,-0.31,-0.31,-0.32
58.00,4.89,5.20,4.89,5.20,-5.19,-5.03,-5.39,-0.30,-0.30,-0.31
58.58,4.88,5.19,4.88,5.19,-5.18,-5.03,-5.42,-0.30,-0.30,-0.31
59.16,4.87,5.18,4.87,5.17,-5.17,-5.03,-5.44,-0.30,-0.30,-0.31
59.76,4.85,5.15,4.85,5.15,-5.16,-5.03,-5.46,-0.31,-0.30,-0.30
60.35,4.84,5.14,4.84,5.14,-5.14,-5.02,-5.47,-0.30,-0.30,-0.30
60.96,4.83,5.13,4.83,5.12,-5.12,-5.02,-5.48,-0.29,-0.30,-0.30
61.57,4.81,5.11,4.81,5.11,-5.11,-5.02,-5.49,-0.30,-0.30,-0.30
62.18,4.79,5.09,4.79,5.09,-5.09,-5.02,-5.49,-0.30,-0.30,-0.30
62.80,4.78,5.08,4.78,5.07,-5.07,-5.02,-5.48,-0.29,-0.29,-0.30
63.43,4.76,5.06,4.76,5.05,-5.05,-5.01,-5.47,-0.29,-0.29,-0.30
64.07,4.74,5.04,4.74,5.03,-5.03,-5.01,-5.46,-0.29,-0.29,-0.30
64.71,4.71,5.01,4.71,5.01,-5.01,-5.01,-5.43,-0.30,-0.29,-0.30
65.35,4.69,4.99,4.69,4.99,-4.99,-5.01,-5.41,-0.30,-0.30,-0.30
66.01,4.67,4.97,4.67,4.96,-4.96,-5.00,-5.38,-0.29,-0.30,-0.30
66.67,4.64,4.94,4.64,4.94,-4.94,-5.00,-5.35,-0.30,-0.30,-0.30
67.33,4.62,4.92,4.62,4.92,-4.92,-5.00,-5.31,-0.30,-0.30,-0.30
68.01,4.60,4.90,4.60,4.89,-4.90,-4.99,-5.27,-0.30,-0.30,-0.30
68.69,4.58,4.88,4.58,4.88,-4.88,-4.99,-5.22,-0.30,-0.30,-0.30
69.37,4.56,4.86,4.56,4.86,-4.86,-4.99,-5.17,-0.30,-0.30,-0.30
70.07,4.55,4.85,4.55,4.84,-4.84,-4.98,-5.13,-0.29,-0.29,-0.30
70.77,4.53,4.83,4.54,4.83,-4.83,-4.98,-5.07,-0.30,-0.29,-0.30
71.48,4.53,4.82,4.53,4.81,-4.82,-4.97,-5.02,-0.29,-0.29,-0.29
72.19,4.52,4.81,4.52,4.81,-4.81,-4.97,-4.97,-0.29,-0.29,-0.29
72.91,4.51,4.80,4.52,4.80,-4.80,-4.96,-4.91,-0.29,-0.29,-0.29
73.64,4.52,4.81,4.52,4.80,-4.80,-4.96,-4.86,-0.28,-0.29,-0.29
74.38,4.52,4.80,4.52,4.80,-4.80,-4.95,-4.80,-0.28,-0.28,-0.28
75.12,4.53,4.81,4.53,4.80,-4.80,-4.95,-4.75,-0.27,-0.27,-0.28
75.87,4.54,4.81,4.54,4.80,-4.80,-4.94,-4.70,-0.26,-0.27,-0.27
76.63,4.54,4.81,4.54,4.81,-4.81,-4.93,-4.65,-0.27,-0.27,-0.27
77.40,4.54,4.81,4.54,4.81,-4.81,-4.93,-4.60,-0.27,-0.27,-0.27
78.17,4.55,4.81,4.55,4.81,-4.81,-4.92,-4.55,-0.26,-0.26,-0.26
78.95,4.56,4.82,4.56,4.81,-4.81,-4.91,-4.50,-0.25,-0.25,-0.26
79.74,4.56,4.82,4.56,4.81,-4.81,-4.91,-4.46,-0.25,-0.25,-0.26
80.54,4.56,4.81,4.56,4.81,-4.80,-4.90,-4.41,-0.24,-0.24,-0.25
81.35,4.55,4.80,4.55,4.80,-4.79,-4.89,-4.37,-0.24,-0.24,-0.25
82.16,4.54,4.79,4.54,4.78,-4.78,-4.88,-4.34,-0.24,-0.24,-0.25
82.98,4.52,4.77,4.52,4.77,-4.76,-4.87,-4.30,-0.24,-0.24,-0.25
83.81,4.50,4.75,4.50,4.74,-4.74,-4.86,-4.27,-0.24,-0.24,-0.25
84.65,4.48,4.72,4.48,4.72,-4.72,-4.85,-4.24,-0.24,-0.24,-0.24
85.50,4.46,4.70,4.46,4.69,-4.69,-4.84,-4.22,-0.23,-0.24,-0.24
86.35,4.43,4.67,4.43,4.66,-4.66,-4.83,-4.20,-0.23,-0.24,-0.24
87.22,4.39,4.63,4.40,4.63,-4.63,-4.82,-4.18,-0.24,-0.24,-0.24
88.09,4.37,4.61,4.37,4.60,-4.60,-4.81,-4.16,-0.23,-0.24,-0.24
88.97,4.34,4.58,4.34,4.57,-4.57,-4.80,-4.15,-0.23,-0.23,-0.24
89.86,4.31,4.55,4.31,4.55,-4.54,-4.79,-4.14,-0.23,-0.23,-0.24
90.76,4.28,4.52,4.28,4.52,-4.51,-4.77,-4.13,-0.23,-0.24,-0.24
91.66,4.25,4.49,4.25,4.49,-4.49,-4.76,-4.13,-0.24,-0.24,-0.24
92.58,4.23,4.47,4.23,4.46,-4.47,-4.75,-4.13,-0.24,-0.24,-0.24
93.51,4.21,4.45,4.21,4.45,-4.45,-4.73,-4.13,-0.24,-0.24,-0.24
94.44,4.20,4.44,4.20,4.43,-4.44,-4.72,-4.14,-0.24,-0.24,-0.24
95.39,4.19,4.43,4.19,4.43,-4.43,-4.71,-4.14,-0.24,-0.24,-0.24
96.34,4.19,4.43,4.19,4.42,-4.43,-4.69,-4.15,-0.24,-0.24,-0.24
97.30,4.20,4.43,4.20,4.43,-4.43,-4.68,-4.17,-0.23,-0.23,-0.23
98.28,4.21,4.44,4.21,4.44,-4.43,-4.66,-4.18,-0.22,-0.22,-0.23
99.26,4.22,4.45,4.22,4.44,-4.44,-4.64,-4.20,-0.22,-0.22,-0.23
100.25,4.22,4.45,4.22,4.45,-4.44,-4.63,-4.22,-0.22,-0.22,-0.23
101.25,4.22,4.45,4.22,4.45,-4.44,-4.61,-4.24,-0.22,-0.22,-0.23
102.27,4.22,4.45,4.22,4.45,-4.44,-4.59,-4.27,-0.22,-0.22,-0.23
103.29,4.22,4.45,4.22,4.44,-4.44,-4.57,-4.29,-0.22,-0.22,-0.23
104.32,4.22,4.44,4.22,4.44,-4.44,-4.55,-4.32,-0.22,-0.22,-0.22
105.37,4.22,4.44,4.22,4.44,-4.44,-4.53,-4.35,-0.22,-0.22,-0.22
106.42,4.22,4.44,4.22,4.43,-4.44,-4.52,-4.37,-0.22,-0.22,-0.22
107.48,4.22,4.43,4.22,4.43,-4.44,-4.50,-4.40,-0.22,-0.22,-0.21
108.56,4.22,4.43,4.22,4.43,-4.44,-4.47,-4.43,-0.22,-0.21,-0.21
109.64,4.23,4.44,4.23,4.44,-4.44,-4.45,-4.45,-0.21,-0.21,-0.21
110.74,4.24,4.45,4.24,4.44,-4.44,-4.43,-4.48,-0.20,-0.20,-0.21
111.85,4.24,4.45,4.24,4.44,-4.43,-4.41,-4.50,-0.19,-0.19,-0.21
112.97,4.23,4.43,4.23,4.43,-4.42,-4.39,-4.53,-0.19,-0.19,-0.20
114.10,4.21,4.41,4.21,4.41,-4.41,-4.37,-4.55,-0.20,-0.19,-0.20
115.24,4.19,4.39,4.19,4.39,-4.38,-4.34,-4.57,-0.19,-0.19,-0.20
116.39,4.17,4.37,4.17,4.36,-4.36,-4.32,-4.58,-0.19,-0.19,-0.20
117.55,4.14,4.33,4.14,4.33,-4.33,-4.30,-4.59,-0.19,-0.19,-0.19
118.73,4.11,4.30,4.11,4.29,-4.29,-4.27,-4.60,-0.18,-0.19,-0.19
119.92,4.07,4.26,4.07,4.25,-4.26,-4.25,-4.61,-0.19,-0.19,-0.19
121.12,4.03,4.22,4.04,4.22,-4.22,-4.22,-4.61,-0.19,-0.18,-0.19
122.33,4.01,4.19,4.01,4.18,-4.19,-4.20,-4.60,-0.18,-0.18,-0.18
123.55,3.98,4.16,3.98,4.15,-4.16,-4.17,-4.59,-0.18,-0.18,-0.18
124.79,3.95,4.12,3.95,4.12,-4.13,-4.15,-4.58,-0.18,-0.17,-0.17
126.03,3.93,4.10,3.93,4.10,-4.10,-4.12,-4.56,-0.17,-0.17,-0.17
127.29,3.92,4.08,3.92,4.08,-4.08,-4.10,-4.54,-0.16,-0.16,-0.16
128.57,3.91,4.07,3.90,4.06,-4.06,-4.07,-4.52,-0.15,-0.16,-0.16
129.85,3.88,4.04,3.89,4.04,-4.04,-4.04,-4.48,-0.16,-0.15,-0.16
131.15,3.87,4.03,3.87,4.02,-4.02,-4.02,-4.45,-0.15,-0.15,-0.16
132.46,3.86,4.01,3.85,4.00,-4.00,-3.99,-4.41,-0.14,-0.15,-0.15
133.79,3.84,3.99,3.84,3.99,-3.98,-3.96,-4.37,-0.14,-0.14,-0.15
135.12,3.81,3.96,3.81,3.96,-3.96,-3.93,-4.32,-0.15,-0.14,-0.15
136.48,3.79,3.94,3.79,3.93,-3.93,-3.91,-4.27,-0.14,-0.14,-0.15
137.84,3.75,3.90,3.76,3.90,-3.90,-3.88,-4.22,-0.15,-0.14,-0.15
139.22,3.73,3.88,3.72,3.87,-3.87,-3.85,-4.16,-0.14,-0.14,-0.15
140.61,3.69,3.84,3.69,3.83,-3.83,-3.82,-4.10,-0.14,-0.14,-0.15
142.02,3.65,3.79,3.66,3.80,-3.80,-3.79,-4.04,-0.15,-0.14,-0.14
143.44,3.64,3.78,3.63,3.77,-3.77,-3.77,-3.98,-0.13,-0.14,-0.14
144.87,3.60,3.74,3.61,3.74,-3.75,-3.74,-3.92,-0.15,-0.14,-0.14
146.32,3.59,3.72,3.59,3.72,-3.72,-3.71,-3.86,-0.13,-0.13,-0.13
147.78,3.57,3.70,3.57,3.70,-3.70,-3.68,-3.80,-0.13,-0.13,-0.13
149.26,3.56,3.69,3.56,3.68,-3.68,-3.65,-3.73,-0.12,-0.12,-0.13
150.75,3.54,3.66,3.54,3.66,-3.66,-3.62,-3.67,-0.12,-0.12,-0.12
152.26,3.53,3.65,3.53,3.65,-3.64,-3.60,-3.61,-0.11,-0.11,-0.12
153.78,3.51,3.63,3.51,3.62,-3.62,-3.57,-3.54,-0.11,-0.11,-0.12
155.32,3.49,3.60,3.49,3.60,-3.59,-3.54,-3.48,-0.10,-0.10,-0.11
156.88,3.45,3.56,3.46,3.56,-3.56,-3.51,-3.42,-0.11,-0.10,-0.11
158.44,3.43,3.54,3.42,3.53,-3.53,-3.49,-3.36,-0.10,-0.10,-0.11
160.03,3.38,3.49,3.39,3.49,-3.49,-3.46,-3.31,-0.11,-0.10,-0.11
161.63,3.36,3.47,3.36,3.46,-3.46,-3.43,-3.25,-0.10,-0.10,-0.11
163.24,3.33,3.43,3.32,3.42,-3.43,-3.41,-3.20,-0.10,-0.11,-0.10
164.88,3.29,3.39,3.30,3.39,-3.40,-3.38,-3.14,-0.11,-0.11,-0.10
166.53,3.27,3.37,3.27,3.37,-3.38,-3.36,-3.09,-0.11,-0.11,-0.10
168.19,3.26,3.36,3.26,3.35,-3.36,-3.33,-3.04,-0.10,-0.10,-0.10
169.87,3.25,3.34,3.25,3.34,-3.34,-3.31,-3.00,-0.09,-0.09,-0.09
171.57,3.25,3.34,3.25,3.33,-3.33,-3.29,-2.95,-0.08,-0.08,-0.09
173.29,3.24,3.33,3.24,3.32,-3.32,-3.26,-2.91,-0.08,-0.08,-0.09
175.02,3.23,3.32,3.23,3.31,-3.30,-3.24,-2.87,-0.07,-0.08,-0.09
176.77,3.21,3.29,3.21,3.29,-3.29,-3.22,-2.83,-0.08,-0.08,-0.08
178.54,3.19,3.27,3.20,3.27,-3.27,-3.20,-2.80,-0.08,-0.07,-0.08
180.32,3.18,3.26,3.17,3.25,-3.25,-3.18,-2.76,-0.07,-0.08,-0.08
182.13,3.15,3.23,3.15,3.22,-3.23,-3.16,-2.73,-0.07,-0.08,-0.08
183.95,3.11,3.19,3.12,3.20,-3.20,-3.14,-2.70,-0.09,-0.08,-0.08
185.79,3.09,3.17,3.09,3.17,-3.17,-3.12,-2.67,-0.08,-0.07,-0.08
187.65,3.07,3.15,3.06,3.14,-3.13,-3.10,-2.65,-0.06,-0.07,-0.08
189.52,3.03,3.11,3.03,3.10,-3.10,-3.07,-2.62,-0.07,-0.07,-0.08
191.42,2.98,3.06,2.99,3.06,-3.06,-3.05,-2.60,-0.08,-0.07,-0.08
193.33,2.94,3.02,2.94,3.02,-3.02,-3.02,-2.58,-0.08,-0.08,-0.08
195.27,2.90,2.98,2.90,2.98,-2.98,-3.00,-2.57,-0.08,-0.08,-0.08
197.22,2.86,2.94,2.86,2.93,-2.94,-2.97,-2.55,-0.08,-0.08,-0.08
199.19,2.82,2.90,2.82,2.89,-2.90,-2.93,-2.53,-0.08,-0.08,-0.08
201.18,2.78,2.85,2.78,2.85,-2.86,-2.90,-2.52,-0.08,-0.08,-0.07
203.19,2.75,2.82,2.75,2.82,-2.82,-2.86,-2.51,-0.07,-0.07,-0.07
205.23,2.73,2.79,2.73,2.79,-2.79,-2.82,-2.50,-0.06,-0.06,-0.06
207.28,2.71,2.77,2.71,2.76,-2.76,-2.78,-2.49,-0.05,-0.05,-0.06
209.35,2.68,2.74,2.68,2.73,-2.72,-2.74,-2.48,-0.04,-0.04,-0.06
211.44,2.65,2.70,2.65,2.70,-2.69,-2.70,-2.47,-0.04,-0.04,-0.05
213.56,2.61,2.66,2.61,2.66,-2.65,-2.65,-2.46,-0.04,-0.05,-0.05
215.69,2.57,2.62,2.57,2.62,-2.62,-2.61,-2.46,-0.05,-0.05,-0.05
217.85,2.53,2.58,2.54,2.58,-2.59,-2.57,-2.45,-0.06,-0.05,-0.05
220.03,2.51,2.55,2.51,2.55,-2.55,-2.52,-2.44,-0.04,-0.05,-0.04
222.23,2.48,2.52,2.48,2.52,-2.52,-2.48,-2.43,-0.04,-0.04,-0.04
224.45,2.46,2.50,2.46,2.49,-2.49,-2.44,-2.43,-0.03,-0.03,-0.04
226.70,2.43,2.47,2.43,2.46,-2.46,-2.40,-2.42,-0.03,-0.03,-0.04
228.96,2.40,2.43,2.41,2.44,-2.43,-2.35,-2.41,-0.03,-0.03,-0.03
231.25,2.38,2.41,2.38,2.41,-2.40,-2.31,-2.40,-0.02,-0.02,-0.03
233.57,2.36,2.39,2.35,2.38,-2.37,-2.27,-2.39,-0.01,-0.02,-0.03
235.90,2.32,2.34,2.32,2.34,-2.33,-2.24,-2.38,-0.01,-0.01,-0.02
238.26,2.29,2.31,2.29,2.30,-2.30,-2.20,-2.37,-0.01,-0.01,-0.02
240.64,2.25,2.26,2.25,2.26,-2.26,-2.16,-2.35,-0.01,-0.01,-0.01
243.05,2.22,2.22,2.22,2.21,-2.22,-2.12,-2.33,-0.00,-0.00,0.00
245.48,2.18,2.17,2.18,2.17,-2.18,-2.09,-2.32,-0.00,-0.00,0.01
247.93,2.15,2.14,2.15,2.14,-2.15,-2.05,-2.30,0.00,0.01,0.01
250.41,2.13,2.11,2.13,2.10,-2.11,-2.02,-2.28,0.02,0.02,0.02
252.92,2.11,2.08,2.11,2.08,-2.07,-1.98,-2.25,0.04,0.04,0.03
255.45,2.09,2.05,2.09,2.05,-2.03,-1.95,-2.23,0.06,0.05,0.04
258.00,2.06,2.02,2.06,2.01,-1.99,-1.92,-2.20,0.07,0.06,0.04
260.58,2.02,1.97,2.02,1.97,-1.95,-1.89,-2.17,0.07,0.06,0.05
263.19,1.97,1.92,1.97,1.91,-1.91,-1.85,-2.14,0.06,0.06,0.05
265.82,1.91,1.86,1.92,1.86,-1.87,-1.82,-2.11,0.04,0.05,0.05
268.48,1.88,1.82,1.88,1.82,-1.83,-1.79,-2.07,0.05,0.04,0.06
271.16,1.84,1.78,1.84,1.78,-1.79,-1.76,-2.04,0.05,0.05,0.06
273.87,1.81,1.75,1.81,1.75,-1.75,-1.73,-2.00,0.06,0.06,0.06
276.61,1.79,1.72,1.79,1.72,-1.72,-1.70,-1.96,0.07,0.07,0.07
279.38,1.77,1.70,1.77,1.69,-1.68,-1.67,-1.93,0.09,0.09,0.07
282.17,1.74,1.66,1.74,1.66,-1.64,-1.64,-1.89,0.10,0.10,0.08
284.99,1.70,1.62,1.69,1.61,-1.60,-1.62,-1.84,0.10,0.09,0.08
287.84,1.64,1.56,1.64,1.56,-1.56,-1.59,-1.80,0.08,0.09,0.08
290.72,1.59,1.51,1.59,1.51,-1.52,-1.56,-1.76,0.07,0.08,0.08
293.63,1.55,1.47,1.55,1.46,-1.47,-1.53,-1.72,0.08,0.07,0.08
296.57,1.51,1.43,1.51,1.42,-1.43,-1.51,-1.68,0.08,0.08,0.08
299.53,1.47,1.38,1.47,1.38,-1.39,-1.48,-1.63,0.08,0.08,0.09
302.53,1.44,1.35,1.44,1.35,-1.35,-1.45,-1.59,0.09,0.09,0.09
305.55,1.42,1.33,1.42,1.32,-1.32,-1.43,-1.55,0.10,0.10,0.09
308.61,1.40,1.30,1.39,1.29,-1.28,-1.40,-1.51,0.12,0.11,0.10
311.69,1.36,1.26,1.36,1.26,-1.25,-1.38,-1.46,0.11,0.12,0.10
314.81,1.33,1.22,1.33,1.22,-1.21,-1.35,-1.42,0.12,0.12,0.11
317.96,1.29,1.18,1.29,1.17,-1.17,-1.33,-1.38,0.12,0.12,0.11
321.14,1.25,1.13,1.25,1.13,-1.13,-1.30,-1.34,0.12,0.12,0.12
324.35,1.21,1.09,1.21,1.09,-1.09,-1.28,-1.30,0.12,0.12,0.12
327.59,1.17,1.05,1.18,1.05,-1.05,-1.25,-1.26,0.12,0.12,0.12
330.87,1.15,1.02,1.15,1.01,-1.02,-1.23,-1.22,0.13,0.13,0.13
334.18,1.13,0.99,1.12,0.98,-0.98,-1.21,-1.18,0.15,0.14,0.14
337.52,1.09,0.95,1.10,0.95,-0.94,-1.18,-1.14,0.15,0.15,0.14
340.90,1.07,0.92,1.07,0.92,-0.91,-1.16,-1.11,0.16,0.16,0.15
344.30,1.04,0.89,1.04,0.89,-0.88,-1.14,-1.07,0.16,0.16,0.15
347.75,1.01,0.86,1.01,0.86,-0.86,-1.12,-1.03,0.15,0.16,0.15
351.23,0.99,0.84,0.99,0.83,-0.83,-1.09,-1.00,0.16,0.15,0.15
354.74,0.97,0.81,0.97,0.81,-0.82,-1.07,-0.96,0.15,0.15,0.16
358.28,0.95,0.79,0.96,0.79,-0.80,-1.05,-0.93,0.15,0.15,0.16
361.87,0.95,0.79,0.95,0.79,-0.80,-1.03,-0.90,0.15,0.16,0.16
365.49,0.96,0.80,0.96,0.79,-0.79,-1.00,-0.86,0.17,0.16,0.16
369.14,0.97,0.81,0.97,0.80,-0.79,-0.98,-0.83,0.18,0.17,0.16
372.83,0.97,0.81,0.97,0.80,-0.79,-0.96,-0.80,0.18,0.18,0.16
376.56,0.97,0.80,0.97,0.80,-0.80,-0.94,-0.77,0.17,0.18,0.17
380.33,0.97,0.80,0.97,0.80,-0.80,-0.92,-0.74,0.17,0.17,0.17
384.13,0.97,0.80,0.97,0.79,-0.79,-0.90,-0.71,0.18,0.18,0.17
387.97,0.97,0.80,0.97,0.79,-0.79,-0.88,-0.68,0.18,0.18,0.17
391.85,0.97,0.79,0.97,0.79,-0.79,-0.86,-0.66,0.18,0.18,0.18
395.77,0.97,0.79,0.97,0.78,-0.78,-0.84,-0.63,0.19,0.19,0.18
399.73,0.97,0.78,0.97,0.78,-0.78,-0.81,-0.60,0.19,0.19,0.19
403.72,0.97,0.78,0.97,0.77,-0.78,-0.79,-0.58,0.19,0.19,0.19
407.76,0.97,0.77,0.97,0.77,-0.78,-0.77,-0.55,0.19,0.19,0.20
411.84,0.98,0.78,0.98,0.77,-0.78,-0.75,-0.53,0.20,0.20,0.20
415.96,0.99,0.78,0.99,0.78,-0.78,-0.73,-0.50,0.21,0.21,0.21
420.12,1.00,0.79,1.00,0.78,-0.78,-0.71,-0.48,0.22,0.22,0.21
424.32,1.00,0.79,1.00,0.78,-0.77,-0.69,-0.46,0.23,0.23,0.21
428.56,0.99,0.77,0.99,0.77,-0.76,-0.67,-0.43,0.23,0.23,0.22
432.85,0.98,0.76,0.98,0.75,-0.75,-0.65,-0.41,0.23,0.23,0.22
437.18,0.95,0.73,0.96,0.73,-0.73,-0.63,-0.39,0.22,0.23,0.22
441.55,0.93,0.71,0.93,0.70,-0.70,-0.61,-0.37,0.23,0.22,0.22
445.96,0.90,0.68,0.90,0.67,-0.68,-0.59,-0.35,0.22,0.22,0.22
450.42,0.86,0.64,0.87,0.64,-0.65,-0.57,-0.33,0.21,0.22,0.22
454.93,0.84,0.62,0.83,0.61,-0.62,-0.55,-0.31,0.22,0.22,0.22
459.48,0.80,0.58,0.81,0.58,-0.59,-0.52,-0.29,0.21,0.22,0.22
464.07,0.78,0.56,0.78,0.56,-0.56,-0.50,-0.28,0.22,0.22,0.22
468.71,0.76,0.54,0.75,0.53,-0.52,-0.48,-0.26,0.24,0.23,0.22
473.40,0.72,0.50,0.73,0.50,-0.49,-0.46,-0.24,0.23,0.23,0.22
478.13,0.70,0.47,0.69,0.46,-0.46,-0.44,-0.23,0.24,0.23,0.23
482.91,0.66,0.43,0.66,0.43,-0.43,-0.41,-0.21,0.23,0.23,0.23
