frequency,raw,error,smoothed,error_smoothed,equalization,parametric_eq,fixed_band_eq,equalized_raw,equalized_smoothed,target
20.00,-3.40,-14.74,-3.40,-14.73,6.00,5.81,2.74,2.60,2.60,11.33
20.20,-3.28,-14.59,-3.29,-14.59,6.00,5.81,2.82,2.72,2.71,11.30
20.40,-3.16,-14.44,-3.17,-14.45,6.00,5.82,2.90,2.84,2.83,11.28
20.61,-3.06,-14.32,-3.05,-14.31,6.00,5.83,2.99,2.94,2.95,11.26
20.81,-2.93,-14.17,-2.93,-14.17,6.00,5.83,3.07,3.07,3.07,11.24
21.02,-2.81,-14.03,-2.81,-14.03,6.00,5.84,3.16,3.19,3.19,11.22
21.23,-2.69,-13.89,-2.69,-13.89,6.00,5.85,3.25,3.31,3.31,11.20
21.44,-2.57,-13.75,-2.57,-13.75,6.00,5.86,3.34,3.43,3.43,11.18
21.66,-2.46,-13.61,-2.45,-13.61,6.00,5.86,3.44,3.54,3.55,11.16
21.87,-2.33,-13.48,-2.33,-13.48,6.00,5.87,3.53,3.67,3.67,11.15
22.09,-2.21,-13.34,-2.21,-13.34,6.00,5.88,3.63,3.79,3.79,11.13
22.31,-2.09,-13.21,-2.09,-13.21,6.00,5.89,3.74,3.91,3.91,11.12
22.54,-1.98,-13.08,-1.97,-13.08,6.00,5.89,3.84,4.02,4.03,11.11
22.76,-1.85,-12.95,-1.86,-12.95,6.00,5.90,3.95,4.15,4.14,11.10
22.99,-1.74,-12.83,-1.74,-12.83,6.00,5.91,4.06,4.26,4.26,11.09
23.22,-1.62,-12.70,-1.62,-12.70,6.00,5.92,4.18,4.38,4.38,11.07
23.45,-1.50,-12.57,-1.51,-12.57,6.00,5.92,4.29,4.50,4.49,11.06
23.69,-1.39,-12.44,-1.39,-12.44,6.00,5.93,4.41,4.61,4.61,11.05
23.92,-1.27,-12.32,-1.27,-12.32,6.00,5.94,4.54,4.73,4.73,11.05
24.16,-1.15,-12.19,-1.15,-12.20,6.00,5.95,4.66,4.85,4.85,11.04
24.40,-1.03,-12.07,-1.04,-12.08,6.00,5.96,4.79,4.97,4.96,11.04
24.65,-0.92,-11.95,-0.92,-11.95,6.00,5.96,4.91,5.08,5.08,11.03
24.89,-0.80,-11.83,-0.80,-11.83,6.00,5.97,5.04,5.20,5.20,11.03
25.14,-0.68,-11.70,-0.69,-11.70,6.00,5.98,5.17,5.32,5.31,11.02
25.39,-0.57,-11.58,-0.57,-11.58,6.00,5.99,5.31,5.43,5.43,11.01
25.65,-0.46,-11.47,-0.46,-11.46,6.00,6.00,5.44,5.54,5.54,11.01
25.91,-0.35,-11.34,-0.35,-11.35,6.00,6.00,5.57,5.65,5.65,10.99
26.16,-0.23,-11.23,-0.23,-11.23,6.00,6.01,5.71,5.77,5.77,10.99
26.43,-0.12,-11.11,-0.12,-11.11,6.00,6.02,5.84,5.88,5.88,10.99
26.69,-0.00,-10.98,-0.00,-10.99,6.00,6.03,5.97,6.00,6.00,10.98
26.96,0.10,-10.87,0.11,-10.87,6.00,6.03,6.10,6.10,6.11,10.98
27.23,0.21,-10.75,0.22,-10.76,6.00,6.04,6.23,6.21,6.22,10.97
27.50,0.33,-10.64,0.33,-10.64,6.00,6.05,6.36,6.33,6.33,10.97
27.77,0.44,-10.53,0.44,-10.53,6.00,6.05,6.48,6.44,6.44,10.97
28.05,0.55,-10.41,0.54,-10.41,6.00,6.06,6.60,6.55,6.54,10.95
28.33,0.65,-10.31,0.65,-10.30,6.00,6.07,6.71,6.65,6.65,10.95
28.62,0.75,-10.20,0.75,-10.19,6.00,6.07,6.82,6.75,6.75,10.95
28.90,0.86,-10.08,0.86,-10.08,6.00,6.08,6.91,6.86,6.86,10.94
29.19,0.97,-9.97,0.96,-9.97,6.00,6.09,7.01,6.97,6.96,10.94
29.48,1.07,-9.87,1.07,-9.87,6.00,6.09,7.09,7.07,7.07,10.94
29.78,1.17,-9.77,1.17,-9.77,6.00,6.10,7.17,7.17,7.17,10.93
30.08,1.26,-9.67,1.26,-9.67,6.00,6.10,7.23,7.26,7.26,10.93
30.38,1.35,-9.58,1.35,-9.58,6.00,6.11,7.29,7.35,7.35,10.92
30.68,1.43,-9.49,1.43,-9.49,6.00,6.11,7.33,7.43,7.43,10.92
30.99,1.52,-9.40,1.51,-9.40,6.00,6.12,7.36,7.52,7.51,10.92
31.30,1.60,-9.32,1.60,-9.31,6.00,6.12,7.38,7.60,7.60,10.91
31.61,1.69,-9.22,1.69,-9.22,6.00,6.12,7.40,7.69,7.69,10.90
31.93,1.77,-9.13,1.77,-9.13,6.00,6.13,7.39,7.77,7.77,10.90
32.24,1.86,-9.04,1.86,-9.04,6.00,6.13,7.39,7.86,7.86,10.90
32.57,1.94,-8.95,1.94,-8.95,6.00,6.13,7.36,7.94,7.94,10.89
32.89,2.02,-8.87,2.02,-8.86,6.00,6.13,7.33,8.02,8.02,10.88
33.22,2.11,-8.77,2.10,-8.77,6.00,6.13,7.29,8.11,8.10,10.88
33.55,2.19,-8.68,2.19,-8.68,6.00,6.13,7.25,8.19,8.19,10.87
33.89,2.27,-8.60,2.27,-8.60,6.00,6.13,7.19,8.27,8.27,10.86
34.23,2.35,-8.52,2.35,-8.51,6.00,6.13,7.13,8.35,8.35,10.86
34.57,2.43,-8.42,2.42,-8.43,6.00,6.13,7.05,8.43,8.42,10.85
34.92,2.50,-8.35,2.50,-8.35,6.00,6.13,6.98,8.50,8.50,10.84
35.27,2.58,-8.27,2.57,-8.26,6.00,6.12,6.90,8.58,8.57,10.84
35.62,2.65,-8.18,2.65,-8.19,6.00,6.12,6.82,8.65,8.65,10.83
35.97,2.72,-8.11,2.72,-8.10,6.00,6.12,6.73,8.72,8.72,10.82
36.33,2.80,-8.02,2.80,-8.02,6.00,6.11,6.64,8.80,8.80,10.82
36.70,2.88,-7.94,2.87,-7.94,6.00,6.11,6.55,8.88,8.87,10.82
37.06,2.95,-7.87,2.95,-7.86,6.00,6.10,6.46,8.95,8.95,10.81
37.43,3.02,-7.78,3.02,-7.79,6.00,6.09,6.37,9.02,9.02,10.80
37.81,3.09,-7.71,3.09,-7.71,6.00,6.08,6.28,9.09,9.09,10.79
38.19,3.16,-7.63,3.16,-7.63,6.00,6.07,6.20,9.16,9.16,10.79
38.57,3.23,-7.55,3.23,-7.55,6.00,6.07,6.11,9.23,9.23,10.77
38.95,3.30,-7.47,3.30,-7.47,6.00,6.05,6.02,9.30,9.30,10.77
39.34,3.37,-7.39,3.36,-7.39,6.00,6.04,5.94,9.37,9.36,10.75
39.74,3.43,-7.32,3.43,-7.32,6.00,6.03,5.86,9.43,9.43,10.75
40.14,3.49,-7.25,3.49,-7.25,6.00,6.02,5.78,9.49,9.49,10.73
40.54,3.55,-7.18,3.54,-7.18,6.00,6.00,5.70,9.55,9.54,10.73
40.94,3.61,-7.12,3.61,-7.12,6.00,5.99,5.63,9.61,9.61,10.72
41.35,3.67,-7.05,3.67,-7.05,6.00,5.97,5.56,9.67,9.67,10.72
41.76,3.74,-6.97,3.73,-6.98,6.00,5.96,5.50,9.74,9.73,10.71
42.18,3.80,-6.91,3.80,-6.91,6.00,5.94,5.44,9.80,9.80,10.70
42.60,3.86,-6.84,3.86,-6.84,6.00,5.92,5.38,9.86,9.86,10.70
43.03,3.92,-6.78,3.92,-6.78,6.00,5.90,5.33,9.92,9.92,10.70
43.46,3.98,-6.72,3.98,-6.71,6.00,5.88,5.28,9.98,9.98,10.69
43.90,4.05,-6.64,4.04,-6.65,6.00,5.86,5.23,10.05,10.04,10.69
44.33,4.10,-6.58,4.10,-6.58,6.00,5.84,5.19,10.10,10.10,10.68
44.78,4.16,-6.51,4.16,-6.51,6.00,5.82,5.15,10.16,10.16,10.67
45.23,4.22,-6.45,4.22,-6.45,6.00,5.79,5.12,10.22,10.22,10.66
45.68,4.28,-6.38,4.28,-6.38,6.01,5.77,5.09,10.28,10.28,10.65
46.13,4.34,-6.31,4.33,-6.31,6.01,5.74,5.06,10.35,10.34,10.64
46.60,4.39,-6.25,4.39,-6.24,6.01,5.72,5.04,10.40,10.40,10.63
47.06,4.45,-6.18,4.44,-6.18,6.01,5.69,5.02,10.45,10.45,10.62
47.53,4.50,-6.11,4.50,-6.11,5.99,5.66,5.01,10.49,10.49,10.60
48.01,4.56,-6.04,4.55,-6.04,5.97,5.63,5.00,10.53,10.53,10.59
48.49,4.61,-5.98,4.61,-5.97,5.94,5.60,4.99,10.55,10.55,10.58
48.97,4.67,-5.91,4.66,-5.91,5.90,5.57,4.98,10.56,10.56,10.57
49.46,4.72,-5.85,4.72,-5.84,5.85,5.54,4.98,10.56,10.57,10.56
49.96,4.78,-5.77,4.77,-5.78,5.79,5.51,4.98,10.57,10.56,10.55
50.46,4.83,-5.71,4.82,-5.71,5.73,5.47,4.98,10.55,10.55,10.54
50.96,4.88,-5.65,4.88,-5.65,5.66,5.44,4.99,10.54,10.54,10.52
51.47,4.93,-5.60,4.93,-5.59,5.59,5.40,5.00,10.52,10.52,10.52
51.99,4.99,-5.52,4.98,-5.53,5.52,5.37,5.01,10.51,10.51,10.51
52.51,5.04,-5.46,5.03,-5.46,5.46,5.33,5.02,10.50,10.49,10.49
53.03,5.08,-5.40,5.08,-5.40,5.40,5.30,5.03,10.47,10.48,10.48
53.56,5.14,-5.33,5.13,-5.34,5.33,5.26,5.04,10.47,10.47,10.47
54.10,5.19,-5.27,5.19,-5.27,5.27,5.22,5.05,10.45,10.45,10.46
54.64,5.24,-5.21,5.24,-5.20,5.20,5.18,5.06,10.44,10.44,10.44
55.18,5.30,-5.13,5.29,-5.14,5.13,5.14,5.07,10.43,10.43,10.43
55.74,5.35,-5.06,5.35,-5.07,5.07,5.10,5.08,10.41,10.41,10.41
56.29,5.40,-5.01,5.40,-5.00,5.00,5.05,5.09,10.40,10.40,10.40
56.86,5.46,-4.93,5.45,-4.93,4.93,5.01,5.09,10.39,10.38,10.38
57.42,5.51,-4.86,5.51,-4.86,4.86,4.97,5.10,10.37,10.37,10.37
58.00,5.56,-4.80,5.56,-4.80,4.80,4.92,5.10,10.35,10.35,10.36
58.58,5.61,-4.73,5.60,-4.73,4.73,4.88,5.09,10.34,10.34,10.34
59.16,5.65,-4.67,5.65,-4.67,4.67,4.83,5.09,10.32,10.32,10.32
59.76,5.70,-4.61,5.69,-4.61,4.61,4.79,5.07,10.30,10.30,10.30
60.35,5.74,-4.55,5.74,-4.55,4.55,4.74,5.06,10.28,10.28,10.28
60.96,5.78,-4.48,5.78,-4.49,4.49,4.69,5.04,10.26,10.26,10.26
61.57,5.81,-4.43,5.81,-4.43,4.43,4.64,5.01,10.24,10.24,10.24
62.18,5.85,-4.37,5.84,-4.37,4.38,4.59,4.98,10.22,10.22,10.21
62.80,5.87,-4.32,5.87,-4.32,4.32,4.54,4.95,10.19,10.19,10.19
63.43,5.90,-4.27,5.89,-4.27,4.27,4.49,4.91,10.17,10.17,10.16
64.07,5.92,-4.22,5.91,-4.23,4.23,4.44,4.86,10.14,10.14,10.14
64.71,5.93,-4.19,5.93,-4.18,4.18,4.39,4.81,10.10,10.11,10.11
65.35,5.95,-4.14,5.95,-4.13,4.13,4.33,4.75,10.08,10.08,10.08
66.01,5.98,-4.08,5.97,-4.08,4.08,4.28,4.69,10.06,10.05,10.06
66.67,6.00,-4.03,5.99,-4.03,4.03,4.22,4.63,10.03,10.03,10.03
67.33,6.02,-3.98,6.01,-3.98,3.98,4.17,4.56,10.00,9.99,10.00
68.01,6.03,-3.94,6.03,-3.93,3.93,4.11,4.48,9.96,9.96,9.97
68.69,6.06,-3.88,6.06,-3.88,3.88,4.05,4.41,9.93,9.93,9.94
69.37,6.09,-3.82,6.08,-3.82,3.83,3.99,4.33,9.91,9.91,9.90
70.07,6.11,-3.76,6.11,-3.77,3.77,3.94,4.24,9.88,9.88,9.87
70.77,6.13,-3.71,6.12,-3.72,3.72,3.88,4.16,9.85,9.84,9.84
71.48,6.14,-3.68,6.14,-3.67,3.67,3.82,4.07,9.80,9.81,9.81
72.19,6.16,-3.62,6.16,-3.62,3.61,3.76,3.98,9.77,9.77,9.78
72.91,6.18,-3.57,6.18,-3.56,3.56,3.69,3.89,9.74,9.74,9.74
73.64,6.21,-3.50,6.20,-3.51,3.50,3.63,3.80,9.71,9.71,9.70
74.38,6.23,-3.45,6.23,-3.45,3.45,3.57,3.71,9.68,9.68,9.68
75.12,6.25,-3.39,6.25,-3.39,3.39,3.51,3.61,9.64,9.64,9.64
75.87,6.28,-3.33,6.27,-3.34,3.34,3.44,3.52,9.61,9.61,9.61
76.63,6.29,-3.28,6.29,-3.28,3.28,3.38,3.43,9.56,9.57,9.57
77.40,6.31,-3.22,6.31,-3.23,3.22,3.31,3.34,9.53,9.53,9.53
78.17,6.32,-3.18,6.32,-3.17,3.17,3.25,3.24,9.49,9.49,9.50
78.95,6.34,-3.12,6.33,-3.12,3.13,3.18,3.15,9.46,9.46,9.45
79.74,6.35,-3.06,6.34,-3.07,3.08,3.12,3.06,9.43,9.42,9.41
80.54,6.34,-3.04,6.34,-3.03,3.04,3.05,2.97,9.38,9.39,9.38
81.35,6.34,-3.00,6.33,-3.00,3.01,2.98,2.89,9.34,9.34,9.33
82.16,6.33,-2.96,6.32,-2.97,2.97,2.92,2.80,9.30,9.29,9.29
82.98,6.30,-2.94,6.30,-2.94,2.93,2.85,2.71,9.23,9.24,9.24
83.81,6.29,-2.91,6.29,-2.90,2.89,2.78,2.63,9.18,9.18,9.19
84.65,6.30,-2.86,6.29,-2.86,2.85,2.71,2.55,9.14,9.14,9.15
85.50,6.30,-2.81,6.30,-2.81,2.80,2.65,2.47,9.09,9.10,9.11
86.35,6.32,-2.74,6.31,-2.75,2.74,2.58,2.39,9.06,9.05,9.06
87.22,6.33,-2.68,6.33,-2.68,2.68,2.51,2.31,9.00,9.01,9.01
88.09,6.35,-2.61,6.35,-2.61,2.61,2.44,2.23,8.95,8.96,8.96
88.97,6.38,-2.53,6.37,-2.53,2.53,2.38,2.16,8.91,8.91,8.91
89.86,6.41,-2.45,6.40,-2.45,2.45,2.31,2.08,8.86,8.86,8.85
90.76,6.43,-2.38,6.43,-2.37,2.37,2.24,2.01,8.80,8.80,8.80
91.66,6.46,-2.29,6.46,-2.29,2.29,2.17,1.94,8.75,8.75,8.75
92.58,6.49,-2.21,6.49,-2.21,2.21,2.11,1.88,8.69,8.69,8.70
93.51,6.53,-2.12,6.52,-2.12,2.12,2.04,1.81,8.65,8.64,8.64
94.44,6.55,-2.04,6.55,-2.04,2.04,1.97,1.74,8.59,8.59,8.59
95.39,6.58,-1.96,6.58,-1.96,1.96,1.91,1.68,8.53,8.54,8.53
96.34,6.61,-1.87,6.61,-1.88,1.88,1.84,1.62,8.48,8.48,8.48
97.30,6.64,-1.80,6.63,-1.80,1.80,1.78,1.56,8.44,8.43,8.43
98.28,6.65,-1.73,6.65,-1.73,1.73,1.72,1.50,8.38,8.38,8.38
99.26,6.66,-1.67,6.66,-1.66,1.67,1.65,1.44,8.32,8.33,8.32
100.25,6.67,-1.60,6.66,-1.60,1.61,1.59,1.38,8.28,8.27,8.27
101.25,6.67,-1.55,6.66,-1.55,1.55,1.53,1.33,8.22,8.22,8.21
102.27,6.66,-1.50,6.66,-1.50,1.50,1.47,1.27,8.16,8.16,8.16
103.29,6.65,-1.45,6.65,-1.46,1.45,1.41,1.22,8.10,8.10,8.10
104.32,6.64,-1.42,6.64,-1.41,1.40,1.35,1.17,8.04,8.04,8.05
105.37,6.64,-1.36,6.64,-1.36,1.35,1.29,1.12,7.99,7.99,8.00
106.42,6.64,-1.30,6.64,-1.31,1.30,1.24,1.07,7.94,7.94,7.94
107.48,6.64,-1.26,6.64,-1.25,1.25,1.18,1.03,7.89,7.89,7.89
108.56,6.64,-1.20,6.64,-1.20,1.20,1.13,0.98,7.84,7.84,7.84
109.64,6.64,-1.15,6.64,-1.15,1.15,1.07,0.94,7.78,7.78,7.78
110.74,6.64,-1.09,6.64,-1.09,1.09,1.02,0.89,7.73,7.73,7.73
111.85,6.64,-1.03,6.64,-1.04,1.04,0.97,0.85,7.67,7.67,7.67
112.97,6.64,-0.99,6.64,-0.98,0.98,0.92,0.81,7.62,7.62,7.62
114.10,6.64,-0.93,6.64,-0.93,0.93,0.87,0.77,7.57,7.57,7.57
115.24,6.64,-0.88,6.64,-0.88,0.88,0.83,0.74,7.51,7.51,7.51
116.39,6.64,-0.82,6.64,-0.83,0.83,0.78,0.70,7.46,7.46,7.46
117.55,6.64,-0.78,6.64,-0.78,0.77,0.74,0.67,7.41,7.41,7.42
118.73,6.64,-0.73,6.64,-0.72,0.72,0.70,0.63,7.36,7.36,7.36
119.92,6.64,-0.67,6.64,-0.67,0.68,0.65,0.60,7.31,7.31,7.31
121.12,6.64,-0.62,6.64,-0.62,0.63,0.61,0.57,7.26,7.26,7.26
122.33,6.64,-0.58,6.64,-0.57,0.58,0.58,0.54,7.21,7.21,7.21
123.55,6.64,-0.53,6.64,-0.53,0.53,0.54,0.52,7.16,7.16,7.16
124.79,6.64,-0.48,6.64,-0.48,0.48,0.50,0.49,7.11,7.11,7.12
126.03,6.64,-0.43,6.63,-0.44,0.43,0.47,0.47,7.06,7.06,7.07
127.29,6.64,-0.39,6.64,-0.39,0.38,0.43,0.44,7.01,7.02,7.03
128.57,6.65,-0.33,6.65,-0.33,0.33,0.40,0.42,6.97,6.98,6.98
129.85,6.67,-0.27,6.66,-0.27,0.28,0.37,0.40,6.94,6.94,6.93
131.15,6.67,-0.22,6.67,-0.22,0.23,0.34,0.38,6.90,6.90,6.88
132.46,6.67,-0.18,6.66,-0.18,0.19,0.32,0.37,6.86,6.85,6.85
133.79,6.65,-0.15,6.65,-0.15,0.15,0.29,0.35,6.80,6.80,6.80
135.12,6.63,-0.13,6.63,-0.12,0.12,0.26,0.33,6.75,6.75,6.75
136.48,6.62,-0.09,6.61,-0.10,0.10,0.24,0.32,6.72,6.71,6.71
137.84,6.58,-0.09,6.58,-0.08,0.08,0.22,0.31,6.66,6.67,6.66
139.22,6.56,-0.06,6.55,-0.07,0.07,0.20,0.29,6.63,6.63,6.62
140.61,6.53,-0.05,6.52,-0.06,0.07,0.18,0.28,6.59,6.58,6.58
142.02,6.48,-0.07,6.49,-0.06,0.06,0.16,0.27,6.53,6.55,6.55
143.44,6.46,-0.05,6.45,-0.05,0.05,0.14,0.26,6.51,6.50,6.51
144.87,6.42,-0.05,6.42,-0.05,0.04,0.12,0.25,6.46,6.46,6.46
146.32,6.39,-0.05,6.39,-0.04,0.04,0.11,0.24,6.42,6.42,6.44
147.78,6.36,-0.04,6.36,-0.04,0.03,0.09,0.23,6.38,6.39,6.40
149.26,6.35,-0.01,6.35,-0.02,0.01,0.08,0.22,6.36,6.36,6.36
150.75,6.34,0.00,6.33,0.01,-0.00,0.07,0.22,6.33,6.33,6.33
152.26,6.33,0.03,6.32,0.02,-0.02,0.06,0.21,6.30,6.30,6.29
153.78,6.30,0.04,6.30,0.04,-0.04,0.04,0.20,6.26,6.26,6.26
155.32,6.29,0.05,6.29,0.06,-0.06,0.04,0.19,6.23,6.23,6.23
156.88,6.28,0.08,6.27,0.07,-0.07,0.03,0.19,6.21,6.20,6.20
158.44,6.27,0.10,6.26,0.09,-0.08,0.02,0.18,6.18,6.17,6.17
160.03,6.23,0.09,6.23,0.09,-0.09,0.01,0.17,6.13,6.14,6.14
161.63,6.20,0.09,6.20,0.09,-0.10,0.01,0.17,6.10,6.10,6.10
163.24,6.18,0.09,6.17,0.09,-0.10,0.00,0.16,6.08,6.07,6.08
164.88,6.15,0.09,6.15,0.10,-0.10,-0.00,0.16,6.05,6.05,6.05
166.53,6.13,0.10,6.12,0.10,-0.09,-0.00,0.15,6.04,6.03,6.02
168.19,6.10,0.10,6.09,0.09,-0.08,-0.01,0.14,6.02,6.01,6.00
169.87,6.05,0.07,6.05,0.08,-0.07,-0.01,0.14,5.98,5.98,5.98
171.57,6.01,0.05,6.01,0.06,-0.05,-0.01,0.13,5.95,5.95,5.95
173.29,5.97,0.04,5.96,0.03,-0.04,-0.01,0.12,5.93,5.92,5.93
175.02,5.92,0.02,5.92,0.02,-0.03,-0.01,0.12,5.89,5.89,5.90
176.77,5.88,-0.01,5.88,0.00,-0.01,-0.01,0.11,5.86,5.87,5.89
178.54,5.86,-0.00,5.85,-0.01,-0.00,-0.01,0.11,5.85,5.85,5.86
180.32,5.84,-0.00,5.83,-0.01,0.01,-0.00,0.10,5.84,5.84,5.84
182.13,5.81,-0.01,5.81,-0.01,0.01,-0.00,0.09,5.82,5.82,5.82
183.95,5.78,-0.02,5.78,-0.01,0.02,0.00,0.09,5.79,5.80,5.79
185.79,5.76,-0.02,5.76,-0.02,0.02,0.01,0.08,5.78,5.78,5.77
187.65,5.74,-0.02,5.73,-0.02,0.02,0.01,0.07,5.76,5.76,5.75
189.52,5.71,-0.03,5.71,-0.02,0.03,0.02,0.07,5.74,5.74,5.73
191.42,5.68,-0.04,5.68,-0.04,0.04,0.02,0.06,5.71,5.71,5.71
193.33,5.65,-0.05,5.64,-0.05,0.04,0.03,0.05,5.69,5.69,5.69
195.27,5.61,-0.07,5.61,-0.06,0.05,0.04,0.04,5.66,5.67,5.67
197.22,5.59,-0.07,5.59,-0.07,0.07,0.05,0.04,5.65,5.65,5.66
199.19,5.57,-0.07,5.57,-0.08,0.08,0.05,0.03,5.65,5.65,5.64
201.18,5.55,-0.09,5.54,-0.09,0.10,0.06,0.03,5.65,5.64,5.63
203.19,5.52,-0.10,5.51,-0.11,0.12,0.07,0.02,5.63,5.63,5.62
205.23,5.48,-0.14,5.48,-0.13,0.13,0.08,0.01,5.61,5.61,5.61
207.28,5.44,-0.16,5.44,-0.16,0.15,0.09,0.01,5.59,5.59,5.60
209.35,5.41,-0.18,5.41,-0.18,0.17,0.10,0.00,5.57,5.57,5.58
211.44,5.39,-0.19,5.38,-0.19,0.18,0.11,-0.00,5.56,5.56,5.58
213.56,5.37,-0.20,5.37,-0.19,0.19,0.12,-0.01,5.55,5.56,5.56
215.69,5.36,-0.19,5.36,-0.20,0.19,0.14,-0.01,5.55,5.55,5.55
217.85,5.35,-0.19,5.34,-0.20,0.20,0.15,-0.01,5.54,5.54,5.54
220.03,5.34,-0.20,5.33,-0.20,0.20,0.16,-0.02,5.54,5.53,5.54
222.23,5.32,-0.21,5.33,-0.20,0.20,0.17,-0.02,5.52,5.53,5.52
224.45,5.32,-0.20,5.31,-0.20,0.21,0.19,-0.02,5.53,5.52,5.51
226.70,5.30,-0.20,5.29,-0.21,0.22,0.20,-0.02,5.52,5.51,5.50
228.96,5.26,-0.24,5.27,-0.23,0.24,0.22,-0.01,5.50,5.51,5.50
231.25,5.24,-0.25,5.23,-0.26,0.26,0.23,-0.01,5.50,5.49,5.49
233.57,5.21,-0.27,5.20,-0.28,0.28,0.25,-0.01,5.49,5.48,5.48
235.90,5.16,-0.32,5.17,-0.31,0.31,0.26,-0.00,5.46,5.47,5.48
238.26,5.14,-0.33,5.13,-0.34,0.33,0.28,0.00,5.47,5.47,5.47
240.64,5.11,-0.37,5.11,-0.37,0.36,0.30,0.01,5.47,5.47,5.47
243.05,5.09,-0.39,5.09,-0.39,0.38,0.31,0.02,5.47,5.47,5.47
245.48,5.07,-0.41,5.06,-0.41,0.41,0.33,0.03,5.47,5.47,5.47
247.93,5.04,-0.43,5.04,-0.43,0.43,0.35,0.05,5.46,5.47,5.47
250.41,5.03,-0.44,5.02,-0.45,0.44,0.37,0.06,5.47,5.47,5.47
252.92,5.01,-0.46,5.01,-0.46,0.46,0.39,0.08,5.47,5.47,5.47
255.45,4.99,-0.49,4.99,-0.48,0.48,0.41,0.10,5.46,5.47,5.47
258.00,4.98,-0.49,4.97,-0.50,0.50,0.43,0.11,5.47,5.47,5.47
260.58,4.96,-0.51,4.96,-0.51,0.52,0.45,0.14,5.48,5.47,5.47
263.19,4.94,-0.53,4.93,-0.53,0.54,0.47,0.16,5.48,5.47,5.46
265.82,4.90,-0.56,4.90,-0.56,0.57,0.49,0.18,5.46,5.47,5.46
268.48,4.87,-0.59,4.87,-0.59,0.59,0.51,0.21,5.46,5.46,5.46
271.16,4.84,-0.62,4.83,-0.62,0.62,0.54,0.24,5.45,5.45,5.46
273.87,4.80,-0.65,4.80,-0.65,0.64,0.56,0.27,5.44,5.45,5.45
276.61,4.78,-0.68,4.78,-0.67,0.67,0.59,0.30,5.45,5.45,5.45
279.38,4.76,-0.69,4.75,-0.70,0.70,0.61,0.33,5.45,5.45,5.45
282.17,4.74,-0.72,4.73,-0.72,0.72,0.64,0.36,5.46,5.45,5.45
284.99,4.71,-0.74,4.71,-0.74,0.75,0.66,0.40,5.45,5.45,5.45
287.84,4.68,-0.77,4.68,-0.77,0.77,0.69,0.43,5.44,5.44,5.44
290.72,4.65,-0.79,4.65,-0.79,0.79,0.72,0.47,5.44,5.44,5.44
293.63,4.62,-0.82,4.62,-0.82,0.81,0.75,0.51,5.43,5.43,5.43
296.57,4.60,-0.83,4.60,-0.84,0.84,0.77,0.55,5.43,5.43,5.43
299.53,4.58,-0.86,4.57,-0.86,0.86,0.80,0.59,5.44,5.43,5.44
302.53,4.55,-0.89,4.55,-0.88,0.88,0.84,0.63,5.43,5.43,5.43
305.55,4.53,-0.90,4.52,-0.91,0.91,0.87,0.67,5.44,5.44,5.43
308.61,4.50,-0.94,4.50,-0.94,0.94,0.90,0.71,5.44,5.44,5.44
311.69,4.47,-0.97,4.47,-0.97,0.97,0.93,0.76,5.44,5.44,5.43
314.81,4.44,-1.00,4.43,-1.00,1.01,0.97,0.80,5.44,5.44,5.44
317.96,4.40,-1.04,4.40,-1.04,1.04,1.00,0.85,5.44,5.44,5.43
321.14,4.36,-1.09,4.35,-1.08,1.08,1.04,0.90,5.43,5.43,5.44
324.35,4.32,-1.12,4.32,-1.12,1.11,1.08,0.94,5.43,5.43,5.44
327.59,4.28,-1.16,4.29,-1.15,1.14,1.12,0.99,5.42,5.43,5.44
330.87,4.27,-1.18,4.26,-1.18,1.18,1.16,1.04,5.45,5.44,5.44
334.18,4.25,-1.20,4.24,-1.21,1.22,1.20,1.09,5.46,5.45,5.45
337.52,4.21,-1.24,4.21,-1.24,1.25,1.24,1.15,5.46,5.46,5.45
340.90,4.17,-1.29,4.17,-1.29,1.29,1.29,1.20,5.46,5.46,5.46
344.30,4.12,-1.34,4.12,-1.33,1.33,1.33,1.25,5.45,5.45,5.45
347.75,4.08,-1.37,4.07,-1.38,1.38,1.38,1.31,5.46,5.45,5.45
351.23,4.03,-1.42,4.03,-1.43,1.43,1.43,1.36,5.46,5.45,5.45
354.74,3.98,-1.48,3.98,-1.48,1.48,1.48,1.42,5.46,5.46,5.46
358.28,3.92,-1.54,3.92,-1.53,1.53,1.53,1.48,5.45,5.45,5.45
361.87,3.87,-1.59,3.86,-1.59,1.58,1.58,1.54,5.45,5.44,5.45
365.49,3.80,-1.65,3.80,-1.65,1.64,1.63,1.60,5.43,5.44,5.45
369.14,3.75,-1.70,3.75,-1.69,1.69,1.68,1.66,5.44,5.45,5.45
372.83,3.72,-1.73,3.71,-1.74,1.74,1.74,1.72,5.46,5.45,5.45
376.56,3.67,-1.79,3.66,-1.79,1.80,1.79,1.78,5.46,5.46,5.45
380.33,3.61,-1.85,3.61,-1.84,1.85,1.85,1.85,5.46,5.46,5.45
384.13,3.55,-1.90,3.55,-1.90,1.90,1.90,1.91,5.45,5.45,5.45
387.97,3.50,-1.95,3.49,-1.96,1.95,1.96,1.98,5.45,5.45,5.45
391.85,3.44,-2.02,3.44,-2.01,2.01,2.01,2.04,5.44,5.45,5.46
395.77,3.40,-2.06,3.40,-2.06,2.06,2.07,2.11,5.45,5.45,5.46
399.73,3.36,-2.11,3.36,-2.11,2.11,2.12,2.18,5.46,5.46,5.47
403.72,3.32,-2.15,3.32,-2.15,2.16,2.17,2.24,5.47,5.47,5.46
407.76,3.28,-2.20,3.27,-2.20,2.20,2.23,2.31,5.48,5.47,5.47
411.84,3.23,-2.24,3.23,-2.25,2.24,2.27,2.38,5.47,5.47,5.47
415.96,3.18,-2.30,3.18,-2.30,2.29,2.32,2.45,5.47,5.47,5.48
420.12,3.14,-2.34,3.14,-2.34,2.34,2.37,2.51,5.47,5.48,5.48
424.32,3.11,-2.37,3.10,-2.38,2.38,2.41,2.58,5.49,5.49,5.48
428.56,3.07,-2.42,3.06,-2.42,2.43,2.46,2.65,5.50,5.50,5.49
432.85,3.02,-2.47,3.01,-2.47,2.48,2.50,2.71,5.50,5.50,5.49
437.18,2.95,-2.54,2.95,-2.53,2.53,2.54,2.78,5.48,5.49,5.48
441.55,2.90,-2.59,2.89,-2.59,2.58,2.58,2.84,5.48,5.47,5.48
445.96,2.84,-2.65,2.84,-2.65,2.63,2.61,2.91,5.47,5.47,5.48
450.42,2.79,-2.70,2.79,-2.69,2.68,2.65,2.97,5.47,5.48,5.48
454.93,2.75,-2.73,2.74,-2.74,2.74,2.69,3.03,5.48,5.48,5.48
459.48,2.71,-2.77,2.70,-2.78,2.79,2.73,3.08,5.50,5.49,5.48
464.07,2.65,-2.83,2.65,-2.83,2.84,2.76,3.14,5.49,5.49,5.48
468.71,2.60,-2.88,2.59,-2.89,2.89,2.80,3.19,5.49,5.48,5.48
473.40,2.53,-2.95,2.53,-2.95,2.94,2.84,3.24,5.47,5.47,5.48
478.13,2.48,-3.01,2.48,-3.01,2.99,2.88,3.29,5.47,5.47,5.49
482.91,2.43,-3.06,2.43,-3.05,3.04,2.92,3.33,5.47,5.47,5.49
487.74,2.40,-3.09,2.39,-3.09,3.09,2.97,3.37,5.49,5.49,5.49
492.62,2.36,-3.13,2.36,-3.13,3.14,3.01,3.41,5.50,5.50,5.48
497.55,2.32,-3.18,2.31,-3.18,3.19,3.05,3.45,5.50,5.50,5.49
502.52,2.27,-3.23,2.27,-3.23,3.23,3.10,3.48,5.50,5.50,5.49
507.55,2.22,-3.28,2.22,-3.28,3.28,3.15,3.50,5.49,5.49,5.49
512.62,2.17,-3.33,2.17,-3.33,3.32,3.20,3.53,5.49,5.49,5.49
517.75,2.13,-3.38,2.13,-3.37,3.37,3.25,3.55,5.49,5.50,5.50
522.93,2.09,-3.42,2.09,-3.41,3.42,3.31,3.57,5.50,5.50,5.50
528.16,2.05,-3.45,2.04,-3.46,3.46,3.36,3.59,5.51,5.51,5.50
533.44,2.00,-3.50,2.00,-3.51,3.51,3.42,3.60,5.51,5.51,5.50
538.77,1.95,-3.56,1.95,-3.56,3.56,3.47,3.61,5.50,5.50,5.51
544.16,1.90,-3.61,1.90,-3.61,3.60,3.53,3.62,5.50,5.50,5.51
