frequency,raw,error,smoothed,error_smoothed,equalization,parametric_eq,fixed_band_eq,equalized_raw,equalized_smoothed,target
20.00,3.15,3.46,3.15,3.46,-3.47,-2.90,-0.91,-0.32,-0.32,-0.31
20.20,3.07,3.40,3.07,3.40,-3.40,-2.95,-0.94,-0.33,-0.33,-0.33
20.40,2.99,3.35,2.99,3.34,-3.34,-2.99,-0.97,-0.35,-0.35,-0.36
20.61,2.91,3.29,2.91,3.29,-3.28,-3.02,-1.00,-0.37,-0.37,-0.38
20.81,2.84,3.24,2.83,3.24,-3.23,-3.05,-1.03,-0.39,-0.39,-0.40
21.02,2.75,3.18,2.75,3.18,-3.17,-3.07,-1.06,-0.42,-0.42,-0.43
21.23,2.68,3.13,2.68,3.13,-3.12,-3.08,-1.09,-0.44,-0.44,-0.45
21.44,2.60,3.07,2.60,3.07,-3.07,-3.09,-1.12,-0.47,-0.47,-0.47
21.66,2.53,3.02,2.53,3.02,-3.02,-3.09,-1.15,-0.49,-0.49,-0.49
21.87,2.45,2.96,2.45,2.96,-2.97,-3.08,-1.19,-0.52,-0.52,-0.51
22.09,2.39,2.92,2.39,2.92,-2.93,-3.07,-1.22,-0.54,-0.54,-0.53
22.31,2.33,2.88,2.33,2.88,-2.89,-3.05,-1.26,-0.56,-0.56,-0.55
22.54,2.27,2.85,2.27,2.85,-2.85,-3.03,-1.29,-0.58,-0.57,-0.58
22.76,2.22,2.82,2.22,2.82,-2.81,-3.00,-1.33,-0.59,-0.59,-0.60
22.99,2.16,2.78,2.16,2.78,-2.77,-2.97,-1.37,-0.61,-0.61,-0.62
23.22,2.10,2.74,2.10,2.74,-2.74,-2.93,-1.41,-0.64,-0.63,-0.64
23.45,2.05,2.70,2.05,2.70,-2.70,-2.88,-1.45,-0.65,-0.66,-0.65
23.69,1.99,2.66,1.99,2.66,-2.66,-2.84,-1.49,-0.67,-0.67,-0.67
23.92,1.94,2.62,1.94,2.62,-2.62,-2.79,-1.53,-0.69,-0.68,-0.68
24.16,1.89,2.59,1.89,2.58,-2.59,-2.74,-1.58,-0.70,-0.70,-0.70
24.40,1.83,2.54,1.83,2.55,-2.55,-2.68,-1.62,-0.72,-0.71,-0.71
24.65,1.78,2.50,1.78,2.51,-2.51,-2.63,-1.66,-0.73,-0.73,-0.72
24.89,1.73,2.47,1.73,2.47,-2.47,-2.57,-1.71,-0.74,-0.74,-0.74
25.14,1.68,2.43,1.68,2.44,-2.44,-2.51,-1.75,-0.76,-0.75,-0.75
25.39,1.64,2.40,1.64,2.40,-2.40,-2.46,-1.79,-0.76,-0.77,-0.77
25.65,1.59,2.37,1.59,2.37,-2.37,-2.40,-1.84,-0.78,-0.78,-0.78
25.91,1.55,2.34,1.55,2.34,-2.34,-2.35,-1.88,-0.79,-0.79,-0.79
26.16,1.51,2.31,1.51,2.31,-2.31,-2.29,-1.93,-0.80,-0.80,-0.80
26.43,1.47,2.29,1.47,2.28,-2.28,-2.24,-1.97,-0.81,-0.81,-0.82
26.69,1.43,2.26,1.43,2.26,-2.25,-2.18,-2.01,-0.82,-0.82,-0.83
26.96,1.39,2.23,1.39,2.23,-2.22,-2.13,-2.05,-0.83,-0.83,-0.84
27.23,1.35,2.20,1.35,2.19,-2.19,-2.08,-2.10,-0.84,-0.85,-0.85
27.50,1.30,2.16,1.30,2.16,-2.16,-2.04,-2.13,-0.86,-0.86,-0.86
27.77,1.26,2.12,1.26,2.13,-2.13,-1.99,-2.17,-0.87,-0.87,-0.86
28.05,1.23,2.10,1.22,2.09,-2.10,-1.94,-2.21,-0.87,-0.88,-0.87
28.33,1.18,2.06,1.19,2.07,-2.06,-1.90,-2.24,-0.89,-0.88,-0.88
28.62,1.15,2.03,1.15,2.03,-2.03,-1.86,-2.28,-0.88,-0.89,-0.88
28.90,1.11,2.00,1.11,2.00,-2.00,-1.82,-2.30,-0.89,-0.89,-0.89
29.19,1.07,1.96,1.07,1.97,-1.97,-1.79,-2.33,-0.90,-0.90,-0.90
29.48,1.04,1.95,1.04,1.94,-1.94,-1.75,-2.36,-0.90,-0.90,-0.91
29.78,1.00,1.91,1.00,1.91,-1.91,-1.72,-2.38,-0.91,-0.91,-0.91
30.08,0.97,1.89,0.97,1.88,-1.88,-1.69,-2.40,-0.91,-0.92,-0.92
30.38,0.93,1.85,0.93,1.85,-1.85,-1.66,-2.41,-0.92,-0.92,-0.92
30.68,0.89,1.82,0.89,1.82,-1.82,-1.63,-2.42,-0.93,-0.93,-0.93
30.99,0.86,1.80,0.85,1.79,-1.79,-1.60,-2.43,-0.93,-0.93,-0.94
31.30,0.81,1.75,0.82,1.76,-1.76,-1.58,-2.43,-0.95,-0.94,-0.94
31.61,0.78,1.73,0.77,1.73,-1.73,-1.55,-2.43,-0.95,-0.95,-0.95
31.93,0.73,1.70,0.73,1.69,-1.70,-1.53,-2.43,-0.97,-0.96,-0.96
32.24,0.69,1.66,0.69,1.66,-1.67,-1.51,-2.43,-0.98,-0.97,-0.97
32.57,0.66,1.64,0.66,1.63,-1.64,-1.49,-2.42,-0.98,-0.98,-0.98
32.89,0.62,1.61,0.62,1.61,-1.61,-1.48,-2.41,-0.99,-0.99,-0.99
33.22,0.59,1.59,0.59,1.59,-1.58,-1.46,-2.39,-1.00,-1.00,-1.00
33.55,0.55,1.56,0.55,1.56,-1.56,-1.44,-2.37,-1.01,-1.01,-1.01
33.89,0.51,1.53,0.51,1.54,-1.54,-1.43,-2.35,-1.03,-1.02,-1.02
34.23,0.48,1.52,0.48,1.51,-1.51,-1.42,-2.33,-1.03,-1.03,-1.04
34.57,0.45,1.49,0.45,1.49,-1.49,-1.41,-2.30,-1.04,-1.04,-1.04
34.92,0.42,1.47,0.42,1.47,-1.47,-1.40,-2.27,-1.05,-1.05,-1.05
35.27,0.39,1.45,0.39,1.45,-1.45,-1.39,-2.24,-1.06,-1.06,-1.06
35.62,0.36,1.42,0.36,1.43,-1.42,-1.38,-2.21,-1.06,-1.06,-1.06
35.97,0.33,1.41,0.33,1.40,-1.40,-1.38,-2.18,-1.07,-1.07,-1.08
36.33,0.30,1.38,0.30,1.38,-1.38,-1.37,-2.15,-1.08,-1.08,-1.08
36.70,0.27,1.36,0.27,1.36,-1.36,-1.37,-2.11,-1.09,-1.09,-1.09
37.06,0.25,1.35,0.25,1.34,-1.34,-1.36,-2.08,-1.09,-1.10,-1.10
37.43,0.22,1.32,0.22,1.33,-1.32,-1.36,-2.04,-1.11,-1.11,-1.10
37.81,0.19,1.31,0.19,1.31,-1.31,-1.36,-2.01,-1.12,-1.11,-1.12
38.19,0.17,1.29,0.17,1.29,-1.29,-1.36,-1.97,-1.12,-1.12,-1.12
38.57,0.14,1.27,0.14,1.27,-1.27,-1.36,-1.93,-1.13,-1.13,-1.13
38.95,0.12,1.26,0.12,1.26,-1.26,-1.36,-1.90,-1.14,-1.14,-1.14
39.34,0.10,1.25,0.10,1.25,-1.24,-1.36,-1.86,-1.14,-1.14,-1.15
39.74,0.08,1.23,0.08,1.23,-1.23,-1.36,-1.83,-1.15,-1.15,-1.15
40.14,0.06,1.22,0.06,1.22,-1.22,-1.36,-1.79,-1.16,-1.16,-1.16
40.54,0.03,1.20,0.04,1.21,-1.21,-1.37,-1.76,-1.18,-1.17,-1.17
40.94,0.02,1.20,0.02,1.20,-1.20,-1.37,-1.73,-1.18,-1.18,-1.18
41.35,-0.00,1.19,0.00,1.19,-1.19,-1.38,-1.70,-1.19,-1.19,-1.19
41.76,-0.01,1.19,-0.01,1.18,-1.18,-1.38,-1.66,-1.19,-1.19,-1.20
42.18,-0.03,1.17,-0.03,1.17,-1.17,-1.39,-1.63,-1.20,-1.20,-1.20
42.60,-0.05,1.17,-0.05,1.17,-1.17,-1.40,-1.61,-1.22,-1.22,-1.22
43.03,-0.06,1.16,-0.06,1.16,-1.16,-1.40,-1.58,-1.22,-1.22,-1.22
43.46,-0.08,1.16,-0.07,1.16,-1.16,-1.41,-1.55,-1.24,-1.23,-1.24
43.90,-0.08,1.16,-0.09,1.15,-1.15,-1.42,-1.52,-1.23,-1.24,-1.24
44.33,-0.10,1.14,-0.10,1.15,-1.15,-1.43,-1.50,-1.25,-1.25,-1.25
44.78,-0.11,1.15,-0.11,1.15,-1.15,-1.44,-1.47,-1.26,-1.26,-1.26
45.23,-0.12,1.14,-0.12,1.14,-1.15,-1.45,-1.45,-1.27,-1.27,-1.26
45.68,-0.13,1.14,-0.13,1.14,-1.14,-1.46,-1.43,-1.27,-1.27,-1.27
46.13,-0.13,1.15,-0.13,1.14,-1.14,-1.47,-1.41,-1.27,-1.27,-1.28
46.60,-0.14,1.14,-0.14,1.14,-1.14,-1.48,-1.39,-1.28,-1.28,-1.28
47.06,-0.15,1.14,-0.15,1.14,-1.14,-1.50,-1.37,-1.29,-1.29,-1.29
47.53,-0.16,1.13,-0.16,1.14,-1.14,-1.51,-1.35,-1.30,-1.29,-1.29
48.01,-0.16,1.14,-0.16,1.14,-1.14,-1.52,-1.34,-1.30,-1.30,-1.30
48.49,-0.17,1.14,-0.17,1.14,-1.14,-1.54,-1.32,-1.31,-1.31,-1.31
48.97,-0.18,1.13,-0.18,1.14,-1.14,-1.55,-1.31,-1.32,-1.32,-1.31
49.46,-0.18,1.14,-0.18,1.14,-1.14,-1.57,-1.30,-1.32,-1.32,-1.32
49.96,-0.18,1.15,-0.18,1.15,-1.15,-1.58,-1.28,-1.33,-1.33,-1.33
50.46,-0.18,1.16,-0.18,1.16,-1.15,-1.60,-1.27,-1.33,-1.33,-1.34
50.96,-0.18,1.16,-0.18,1.16,-1.16,-1.62,-1.26,-1.34,-1.34,-1.34
51.47,-0.18,1.17,-0.18,1.17,-1.17,-1.63,-1.26,-1.35,-1.35,-1.35
51.99,-0.19,1.17,-0.19,1.17,-1.17,-1.65,-1.25,-1.36,-1.36,-1.36
52.51,-0.19,1.18,-0.19,1.18,-1.18,-1.67,-1.24,-1.37,-1.37,-1.37
53.03,-0.19,1.19,-0.19,1.19,-1.19,-1.69,-1.24,-1.38,-1.38,-1.38
53.56,-0.19,1.20,-0.19,1.20,-1.20,-1.71,-1.23,-1.39,-1.39,-1.39
54.10,-0.18,1.22,-0.19,1.21,-1.21,-1.73,-1.23,-1.39,-1.39,-1.40
54.64,-0.19,1.22,-0.19,1.22,-1.22,-1.75,-1.23,-1.41,-1.41,-1.41
55.18,-0.19,1.23,-0.19,1.23,-1.23,-1.77,-1.22,-1.42,-1.42,-1.42
55.74,-0.19,1.24,-0.19,1.24,-1.24,-1.79,-1.22,-1.43,-1.43,-1.43
56.29,-0.19,1.25,-0.19,1.25,-1.25,-1.81,-1.23,-1.44,-1.44,-1.44
56.86,-0.18,1.27,-0.18,1.27,-1.26,-1.83,-1.23,-1.44,-1.45,-1.45
57.42,-0.18,1.28,-0.18,1.28,-1.28,-1.85,-1.23,-1.46,-1.46,-1.46
58.00,-0.18,1.29,-0.18,1.29,-1.29,-1.87,-1.23,-1.47,-1.47,-1.47
58.58,-0.18,1.30,-0.18,1.30,-1.30,-1.90,-1.24,-1.48,-1.48,-1.48
59.16,-0.17,1.32,-0.17,1.32,-1.32,-1.92,-1.25,-1.49,-1.49,-1.49
59.76,-0.17,1.33,-0.17,1.33,-1.33,-1.94,-1.25,-1.50,-1.50,-1.50
60.35,-0.16,1.35,-0.16,1.35,-1.35,-1.97,-1.26,-1.51,-1.51,-1.51
60.96,-0.16,1.36,-0.16,1.37,-1.37,-1.99,-1.27,-1.53,-1.53,-1.52
61.57,-0.15,1.39,-0.15,1.39,-1.38,-2.02,-1.28,-1.53,-1.54,-1.54
62.18,-0.15,1.40,-0.15,1.41,-1.40,-2.04,-1.29,-1.55,-1.55,-1.55
62.80,-0.14,1.43,-0.14,1.42,-1.42,-2.07,-1.30,-1.56,-1.56,-1.57
63.43,-0.14,1.44,-0.14,1.44,-1.44,-2.09,-1.32,-1.58,-1.58,-1.58
64.07,-0.14,1.45,-0.14,1.46,-1.46,-2.12,-1.33,-1.60,-1.60,-1.59
64.71,-0.13,1.48,-0.13,1.48,-1.48,-2.15,-1.35,-1.61,-1.62,-1.61
65.35,-0.13,1.50,-0.13,1.50,-1.50,-2.17,-1.36,-1.63,-1.63,-1.63
66.01,-0.12,1.53,-0.12,1.53,-1.53,-2.20,-1.38,-1.65,-1.65,-1.65
66.67,-0.11,1.56,-0.11,1.55,-1.55,-2.23,-1.40,-1.66,-1.66,-1.67
67.33,-0.10,1.59,-0.10,1.58,-1.58,-2.26,-1.42,-1.68,-1.68,-1.69
68.01,-0.10,1.61,-0.10,1.61,-1.61,-2.28,-1.44,-1.71,-1.70,-1.71
68.69,-0.09,1.64,-0.09,1.63,-1.63,-2.31,-1.47,-1.72,-1.73,-1.73
69.37,-0.09,1.66,-0.09,1.66,-1.66,-2.34,-1.49,-1.75,-1.75,-1.75
70.07,-0.08,1.69,-0.08,1.69,-1.69,-2.37,-1.52,-1.77,-1.77,-1.77
70.77,-0.07,1.72,-0.07,1.72,-1.72,-2.40,-1.54,-1.79,-1.79,-1.79
71.48,-0.06,1.76,-0.06,1.75,-1.75,-2.43,-1.57,-1.81,-1.81,-1.82
72.19,-0.06,1.78,-0.06,1.78,-1.78,-2.46,-1.60,-1.84,-1.84,-1.84
72.91,-0.05,1.81,-0.05,1.82,-1.82,-2.49,-1.63,-1.87,-1.87,-1.86
73.64,-0.04,1.86,-0.04,1.85,-1.85,-2.52,-1.66,-1.89,-1.89,-1.90
74.38,-0.04,1.88,-0.03,1.89,-1.89,-2.55,-1.69,-1.93,-1.92,-1.92
75.12,-0.02,1.93,-0.03,1.93,-1.93,-2.59,-1.73,-1.95,-1.95,-1.95
75.87,-0.02,1.97,-0.02,1.96,-1.97,-2.62,-1.76,-1.99,-1.98,-1.99
76.63,-0.01,2.00,-0.01,2.01,-2.01,-2.65,-1.80,-2.02,-2.02,-2.01
77.40,-0.00,2.05,-0.00,2.05,-2.05,-2.68,-1.84,-2.05,-2.05,-2.05
78.17,-0.00,2.09,0.01,2.09,-2.10,-2.72,-1.88,-2.10,-2.09,-2.09
78.95,0.02,2.15,0.01,2.14,-2.14,-2.75,-1.92,-2.12,-2.13,-2.13
79.74,0.02,2.19,0.02,2.19,-2.19,-2.78,-1.97,-2.17,-2.17,-2.17
80.54,0.03,2.24,0.03,2.24,-2.24,-2.82,-2.01,-2.21,-2.21,-2.21
81.35,0.05,2.30,0.04,2.29,-2.29,-2.85,-2.06,-2.24,-2.25,-2.25
82.16,0.05,2.34,0.05,2.34,-2.34,-2.88,-2.11,-2.29,-2.29,-2.29
82.98,0.06,2.39,0.06,2.39,-2.39,-2.92,-2.16,-2.33,-2.33,-2.33
83.81,0.07,2.44,0.07,2.44,-2.44,-2.95,-2.21,-2.37,-2.38,-2.37
84.65,0.07,2.50,0.07,2.50,-2.49,-2.99,-2.26,-2.43,-2.42,-2.43
85.50,0.08,2.55,0.08,2.55,-2.55,-3.02,-2.32,-2.47,-2.47,-2.47
86.35,0.09,2.59,0.09,2.60,-2.60,-3.06,-2.38,-2.51,-2.51,-2.50
87.22,0.09,2.64,0.10,2.64,-2.65,-3.09,-2.44,-2.56,-2.55,-2.55
88.09,0.11,2.70,0.10,2.70,-2.70,-3.13,-2.50,-2.59,-2.59,-2.59
88.97,0.11,2.75,0.11,2.75,-2.75,-3.17,-2.56,-2.64,-2.64,-2.64
89.86,0.12,2.80,0.12,2.80,-2.80,-3.20,-2.62,-2.68,-2.68,-2.68
90.76,0.12,2.84,0.12,2.85,-2.85,-3.24,-2.69,-2.73,-2.72,-2.72
91.66,0.13,2.90,0.13,2.89,-2.89,-3.27,-2.76,-2.76,-2.77,-2.77
92.58,0.13,2.93,0.13,2.94,-2.94,-3.31,-2.83,-2.81,-2.81,-2.80
93.51,0.14,2.99,0.14,2.99,-2.99,-3.35,-2.90,-2.85,-2.85,-2.85
94.44,0.15,3.04,0.15,3.04,-3.04,-3.39,-2.97,-2.89,-2.89,-2.89
95.39,0.16,3.10,0.16,3.09,-3.09,-3.42,-3.05,-2.93,-2.93,-2.94
96.34,0.16,3.14,0.16,3.14,-3.14,-3.46,-3.13,-2.98,-2.98,-2.98
97.30,0.16,3.18,0.16,3.19,-3.19,-3.50,-3.20,-3.03,-3.02,-3.02
98.28,0.17,3.23,0.17,3.23,-3.24,-3.54,-3.28,-3.07,-3.07,-3.06
99.26,0.18,3.29,0.18,3.29,-3.29,-3.57,-3.36,-3.11,-3.11,-3.11
100.25,0.18,3.34,0.18,3.34,-3.34,-3.61,-3.44,-3.16,-3.16,-3.16
101.25,0.19,3.40,0.19,3.40,-3.40,-3.65,-3.53,-3.21,-3.21,-3.21
102.27,0.19,3.45,0.19,3.45,-3.45,-3.69,-3.61,-3.26,-3.26,-3.26
103.29,0.20,3.51,0.20,3.51,-3.50,-3.73,-3.69,-3.30,-3.30,-3.31
104.32,0.20,3.56,0.20,3.56,-3.56,-3.76,-3.78,-3.36,-3.36,-3.36
105.37,0.21,3.62,0.20,3.61,-3.61,-3.80,-3.86,-3.40,-3.41,-3.41
106.42,0.20,3.66,0.21,3.66,-3.66,-3.84,-3.94,-3.46,-3.46,-3.46
107.48,0.21,3.72,0.21,3.72,-3.72,-3.88,-4.03,-3.51,-3.51,-3.51
108.56,0.22,3.77,0.21,3.77,-3.77,-3.92,-4.11,-3.55,-3.56,-3.55
109.64,0.22,3.82,0.22,3.83,-3.83,-3.96,-4.19,-3.61,-3.60,-3.60
110.74,0.23,3.88,0.23,3.88,-3.88,-4.00,-4.27,-3.65,-3.65,-3.65
111.85,0.24,3.94,0.23,3.94,-3.94,-4.04,-4.35,-3.70,-3.70,-3.70
112.97,0.24,3.99,0.24,3.99,-3.99,-4.07,-4.42,-3.75,-3.75,-3.75
114.10,0.24,4.04,0.25,4.05,-4.05,-4.11,-4.49,-3.81,-3.80,-3.80
115.24,0.26,4.11,0.26,4.10,-4.11,-4.15,-4.56,-3.85,-3.85,-3.85
116.39,0.27,4.17,0.27,4.16,-4.16,-4.19,-4.62,-3.89,-3.89,-3.90
117.55,0.27,4.21,0.27,4.22,-4.21,-4.23,-4.69,-3.94,-3.94,-3.94
118.73,0.28,4.27,0.28,4.27,-4.27,-4.27,-4.74,-3.99,-3.99,-3.99
119.92,0.29,4.32,0.29,4.32,-4.32,-4.31,-4.79,-4.03,-4.03,-4.03
121.12,0.30,4.37,0.30,4.37,-4.37,-4.35,-4.84,-4.07,-4.07,-4.07
122.33,0.31,4.42,0.31,4.42,-4.42,-4.38,-4.89,-4.11,-4.11,-4.11
123.55,0.31,4.47,0.31,4.47,-4.47,-4.42,-4.92,-4.16,-4.16,-4.16
124.79,0.32,4.51,0.32,4.52,-4.52,-4.46,-4.96,-4.20,-4.20,-4.19
126.03,0.33,4.57,0.33,4.56,-4.57,-4.50,-4.98,-4.24,-4.24,-4.24
127.29,0.34,4.61,0.34,4.61,-4.61,-4.54,-5.01,-4.27,-4.27,-4.27
128.57,0.35,4.66,0.35,4.66,-4.66,-4.58,-5.02,-4.31,-4.31,-4.31
129.85,0.37,4.72,0.36,4.71,-4.71,-4.61,-5.04,-4.34,-4.34,-4.35
131.15,0.37,4.75,0.37,4.75,-4.75,-4.65,-5.05,-4.38,-4.38,-4.38
132.46,0.38,4.79,0.38,4.80,-4.80,-4.69,-5.05,-4.42,-4.41,-4.41
133.79,0.39,4.84,0.39,4.84,-4.84,-4.73,-5.05,-4.45,-4.45,-4.45
135.12,0.40,4.88,0.40,4.88,-4.88,-4.77,-5.05,-4.48,-4.48,-4.48
136.48,0.41,4.92,0.41,4.92,-4.92,-4.80,-5.04,-4.51,-4.51,-4.51
137.84,0.42,4.95,0.42,4.95,-4.95,-4.84,-5.03,-4.53,-4.53,-4.53
139.22,0.43,4.99,0.43,4.99,-4.99,-4.88,-5.02,-4.56,-4.56,-4.56
140.61,0.44,5.03,0.44,5.03,-5.03,-4.91,-5.01,-4.59,-4.58,-4.59
142.02,0.46,5.07,0.45,5.06,-5.06,-4.95,-4.99,-4.60,-4.61,-4.61
143.44,0.46,5.08,0.47,5.09,-5.10,-4.99,-4.98,-4.64,-4.63,-4.62
144.87,0.48,5.13,0.48,5.12,-5.13,-5.02,-4.96,-4.65,-4.65,-4.65
146.32,0.49,5.16,0.49,5.16,-5.16,-5.06,-4.94,-4.67,-4.67,-4.67
147.78,0.50,5.18,0.50,5.19,-5.19,-5.09,-4.93,-4.69,-4.69,-4.68
149.26,0.52,5.23,0.51,5.22,-5.22,-5.13,-4.91,-4.70,-4.70,-4.71
150.75,0.52,5.25,0.52,5.25,-5.25,-5.16,-4.90,-4.73,-4.72,-4.73
152.26,0.53,5.27,0.53,5.27,-5.27,-5.20,-4.88,-4.74,-4.74,-4.74
153.78,0.54,5.29,0.54,5.30,-5.30,-5.23,-4.87,-4.76,-4.76,-4.75
155.32,0.56,5.33,0.56,5.32,-5.32,-5.27,-4.86,-4.76,-4.77,-4.77
156.88,0.57,5.35,0.57,5.35,-5.35,-5.30,-4.85,-4.78,-4.78,-4.78
158.44,0.58,5.37,0.58,5.37,-5.37,-5.33,-4.85,-4.79,-4.79,-4.79
160.03,0.60,5.40,0.59,5.40,-5.40,-5.37,-4.84,-4.80,-4.80,-4.80
161.63,0.60,5.41,0.61,5.42,-5.42,-5.40,-4.84,-4.82,-4.81,-4.81
163.24,0.62,5.44,0.62,5.45,-5.44,-5.43,-4.85,-4.82,-4.82,-4.82
164.88,0.64,5.47,0.64,5.47,-5.47,-5.46,-4.85,-4.83,-4.83,-4.83
166.53,0.65,5.49,0.65,5.49,-5.49,-5.50,-4.86,-4.84,-4.84,-4.84
168.19,0.66,5.51,0.66,5.51,-5.51,-5.53,-4.88,-4.85,-4.85,-4.85
169.87,0.67,5.53,0.67,5.54,-5.54,-5.56,-4.89,-4.87,-4.87,-4.86
171.57,0.69,5.57,0.69,5.56,-5.56,-5.59,-4.91,-4.87,-4.87,-4.88
173.29,0.70,5.58,0.70,5.59,-5.58,-5.62,-4.94,-4.89,-4.88,-4.88
175.02,0.72,5.61,0.72,5.61,-5.61,-5.65,-4.96,-4.89,-4.89,-4.89
176.77,0.73,5.64,0.73,5.63,-5.63,-5.67,-4.99,-4.90,-4.90,-4.91
178.54,0.74,5.65,0.74,5.66,-5.66,-5.70,-5.03,-4.92,-4.92,-4.91
180.32,0.75,5.68,0.75,5.68,-5.68,-5.73,-5.07,-4.93,-4.93,-4.93
182.13,0.76,5.70,0.76,5.70,-5.71,-5.76,-5.11,-4.95,-4.95,-4.94
183.95,0.77,5.73,0.77,5.73,-5.73,-5.79,-5.16,-4.96,-4.96,-4.96
185.79,0.79,5.76,0.79,5.76,-5.75,-5.81,-5.21,-4.96,-4.97,-4.97
187.65,0.80,5.78,0.80,5.78,-5.78,-5.84,-5.26,-4.98,-4.98,-4.98
189.52,0.80,5.80,0.81,5.80,-5.80,-5.86,-5.32,-5.00,-4.99,-5.00
191.42,0.82,5.83,0.82,5.83,-5.83,-5.89,-5.38,-5.01,-5.01,-5.01
193.33,0.83,5.85,0.83,5.85,-5.85,-5.91,-5.44,-5.02,-5.02,-5.02
195.27,0.84,5.87,0.84,5.87,-5.87,-5.93,-5.51,-5.03,-5.04,-5.03
197.22,0.84,5.89,0.84,5.90,-5.90,-5.96,-5.58,-5.06,-5.05,-5.05
199.19,0.85,5.92,0.85,5.92,-5.92,-5.98,-5.65,-5.07,-5.07,-5.07
201.18,0.87,5.96,0.86,5.95,-5.95,-6.00,-5.72,-5.08,-5.08,-5.09
203.19,0.87,5.97,0.87,5.97,-5.97,-6.02,-5.80,-5.10,-5.10,-5.10
205.23,0.88,6.00,0.88,5.99,-6.00,-6.04,-5.88,-5.12,-5.11,-5.12
207.28,0.89,6.02,0.89,6.02,-6.02,-6.06,-5.96,-5.13,-5.13,-5.13
209.35,0.90,6.04,0.90,6.05,-6.05,-6.08,-6.04,-5.15,-5.14,-5.14
211.44,0.92,6.08,0.91,6.07,-6.07,-6.10,-6.12,-5.15,-5.16,-5.16
213.56,0.92,6.09,0.92,6.10,-6.10,-6.12,-6.20,-5.18,-5.18,-5.17
215.69,0.93,6.12,0.93,6.12,-6.12,-6.14,-6.29,-5.19,-5.19,-5.19
217.85,0.94,6.14,0.94,6.14,-6.15,-6.15,-6.37,-5.21,-5.21,-5.20
220.03,0.96,6.18,0.96,6.17,-6.17,-6.17,-6.45,-5.21,-5.21,-5.22
222.23,0.98,6.20,0.98,6.20,-6.20,-6.19,-6.52,-5.22,-5.22,-5.22
224.45,0.99,6.22,0.99,6.22,-6.22,-6.20,-6.60,-5.23,-5.23,-5.23
226.70,1.00,6.24,1.00,6.24,-6.24,-6.22,-6.67,-5.24,-5.24,-5.24
228.96,1.02,6.26,1.02,6.26,-6.26,-6.23,-6.74,-5.24,-5.25,-5.24
231.25,1.03,6.28,1.03,6.28,-6.28,-6.24,-6.80,-5.25,-5.25,-5.25
233.57,1.05,6.30,1.05,6.30,-6.30,-6.25,-6.86,-5.25,-5.25,-5.25
235.90,1.06,6.31,1.06,6.31,-6.31,-6.27,-6.91,-5.25,-5.25,-5.25
238.26,1.08,6.33,1.08,6.33,-6.32,-6.28,-6.95,-5.24,-5.24,-5.25
240.64,1.08,6.32,1.08,6.33,-6.32,-6.29,-6.99,-5.24,-5.24,-5.24
243.05,1.09,6.34,1.08,6.33,-6.32,-6.30,-7.02,-5.23,-5.24,-5.25
245.48,1.07,6.31,1.07,6.32,-6.31,-6.30,-7.05,-5.24,-5.24,-5.24
247.93,1.06,6.30,1.06,6.30,-6.30,-6.31,-7.06,-5.24,-5.24,-5.24
250.41,1.05,6.28,1.05,6.28,-6.28,-6.32,-7.07,-5.23,-5.24,-5.23
252.92,1.03,6.27,1.03,6.26,-6.26,-6.33,-7.07,-5.23,-5.23,-5.24
255.45,1.00,6.23,1.00,6.24,-6.24,-6.33,-7.06,-5.24,-5.23,-5.23
258.00,0.98,6.21,0.98,6.21,-6.21,-6.34,-7.05,-5.23,-5.23,-5.23
260.58,0.96,6.19,0.96,6.19,-6.19,-6.34,-7.02,-5.23,-5.23,-5.23
263.19,0.94,6.18,0.94,6.17,-6.18,-6.35,-6.99,-5.24,-5.24,-5.24
265.82,0.93,6.16,0.93,6.16,-6.17,-6.35,-6.96,-5.24,-5.24,-5.23
268.48,0.92,6.15,0.92,6.16,-6.16,-6.35,-6.92,-5.24,-5.24,-5.23
271.16,0.93,6.17,0.93,6.16,-6.17,-6.35,-6.87,-5.24,-5.24,-5.24
273.87,0.94,6.18,0.94,6.18,-6.18,-6.35,-6.81,-5.24,-5.24,-5.24
276.61,0.96,6.19,0.96,6.20,-6.20,-6.35,-6.76,-5.24,-5.24,-5.23
279.38,0.99,6.23,0.99,6.22,-6.22,-6.35,-6.70,-5.23,-5.24,-5.24
282.17,1.02,6.26,1.02,6.25,-6.25,-6.35,-6.63,-5.23,-5.24,-5.24
284.99,1.05,6.28,1.05,6.29,-6.29,-6.35,-6.57,-5.24,-5.24,-5.23
287.84,1.09,6.33,1.09,6.32,-6.32,-6.35,-6.50,-5.23,-5.24,-5.24
290.72,1.13,6.36,1.13,6.36,-6.36,-6.34,-6.43,-5.23,-5.23,-5.23
293.63,1.17,6.40,1.17,6.40,-6.40,-6.34,-6.36,-5.23,-5.23,-5.23
296.57,1.21,6.43,1.21,6.44,-6.43,-6.34,-6.29,-5.22,-5.22,-5.22
299.53,1.25,6.48,1.25,6.47,-6.47,-6.33,-6.22,-5.22,-5.22,-5.23
302.53,1.28,6.50,1.28,6.50,-6.50,-6.32,-6.15,-5.22,-5.21,-5.22
305.55,1.31,6.52,1.31,6.52,-6.52,-6.32,-6.08,-5.21,-5.21,-5.21
308.61,1.34,6.54,1.34,6.54,-6.54,-6.31,-6.02,-5.20,-5.20,-5.20
311.69,1.35,6.54,1.35,6.55,-6.55,-6.30,-5.96,-5.20,-5.19,-5.19
314.81,1.37,6.56,1.37,6.55,-6.55,-6.29,-5.90,-5.18,-5.18,-5.19
317.96,1.37,6.55,1.37,6.55,-6.54,-6.29,-5.84,-5.17,-5.17,-5.18
321.14,1.37,6.54,1.37,6.54,-6.53,-6.28,-5.78,-5.16,-5.16,-5.17
324.35,1.35,6.51,1.35,6.52,-6.51,-6.27,-5.73,-5.16,-5.16,-5.16
327.59,1.34,6.49,1.33,6.49,-6.49,-6.25,-5.68,-5.15,-5.16,-5.15
330.87,1.31,6.46,1.31,6.46,-6.46,-6.24,-5.64,-5.15,-5.15,-5.15
334.18,1.28,6.43,1.28,6.43,-6.43,-6.23,-5.60,-5.15,-5.15,-5.15
337.52,1.26,6.41,1.25,6.40,-6.40,-6.22,-5.56,-5.14,-5.15,-5.15
340.90,1.22,6.36,1.22,6.36,-6.37,-6.21,-5.53,-5.15,-5.15,-5.14
344.30,1.19,6.33,1.19,6.33,-6.34,-6.19,-5.50,-5.15,-5.15,-5.14
347.75,1.16,6.30,1.16,6.30,-6.31,-6.18,-5.47,-5.15,-5.15,-5.14
351.23,1.14,6.28,1.14,6.28,-6.28,-6.16,-5.45,-5.14,-5.14,-5.14
354.74,1.11,6.25,1.11,6.26,-6.25,-6.15,-5.43,-5.14,-5.15,-5.14
358.28,1.08,6.24,1.08,6.23,-6.23,-6.13,-5.42,-5.15,-5.15,-5.16
361.87,1.05,6.21,1.05,6.21,-6.21,-6.12,-5.41,-5.16,-5.16,-5.16
365.49,1.03,6.19,1.03,6.19,-6.19,-6.10,-5.41,-5.16,-5.16,-5.16
369.14,1.01,6.17,1.01,6.17,-6.17,-6.09,-5.41,-5.16,-5.16,-5.16
372.83,0.99,6.15,0.99,6.15,-6.15,-6.07,-5.41,-5.16,-5.16,-5.16
376.56,0.98,6.13,0.98,6.13,-6.13,-6.05,-5.42,-5.15,-5.15,-5.15
380.33,0.96,6.11,0.96,6.11,-6.11,-6.03,-5.43,-5.15,-5.15,-5.15
384.13,0.94,6.09,0.94,6.09,-6.09,-6.02,-5.45,-5.15,-5.15,-5.15
387.97,0.92,6.06,0.92,6.07,-6.07,-6.00,-5.46,-5.15,-5.15,-5.14
391.85,0.91,6.05,0.91,6.05,-6.05,-5.98,-5.49,-5.14,-5.14,-5.14
395.77,0.89,6.02,0.90,6.03,-6.03,-5.96,-5.51,-5.14,-5.13,-5.13
399.73,0.89,6.02,0.88,6.01,-6.01,-5.94,-5.54,-5.12,-5.13,-5.13
403.72,0.87,6.00,0.87,5.99,-5.99,-5.92,-5.57,-5.12,-5.12,-5.13
407.76,0.85,5.97,0.86,5.97,-5.97,-5.91,-5.60,-5.12,-5.12,-5.12
411.84,0.84,5.95,0.84,5.95,-5.96,-5.89,-5.64,-5.12,-5.11,-5.11
415.96,0.84,5.94,0.84,5.94,-5.94,-5.87,-5.67,-5.10,-5.10,-5.10
420.12,0.83,5.93,0.83,5.93,-5.92,-5.85,-5.71,-5.09,-5.09,-5.10
424.32,0.82,5.91,0.82,5.91,-5.91,-5.83,-5.75,-5.09,-5.09,-5.09
428.56,0.81,5.89,0.81,5.89,-5.89,-5.81,-5.79,-5.08,-5.08,-5.08
432.85,0.80,5.87,0.80,5.87,-5.87,-5.79,-5.83,-5.07,-5.07,-5.07
437.18,0.79,5.85,0.79,5.85,-5.86,-5.77,-5.87,-5.07,-5.06,-5.06
441.55,0.79,5.84,0.79,5.84,-5.84,-5.75,-5.91,-5.05,-5.05,-5.05
445.96,0.78,5.82,0.78,5.82,-5.82,-5.73,-5.95,-5.04,-5.04,-5.04
450.42,0.77,5.80,0.77,5.80,-5.80,-5.71,-5.98,-5.03,-5.03,-5.03
454.93,0.75,5.77,0.75,5.78,-5.78,-5.70,-6.02,-5.03,-5.02,-5.02
459.48,0.74,5.75,0.74,5.75,-5.75,-5.68,-6.05,-5.01,-5.02,-5.01
