frequency,raw,error,smoothed,error_smoothed,equalization,parametric_eq,fixed_band_eq,equalized_raw,equalized_smoothed,target
20.00,5.42,4.49,5.42,4.49,-4.49,-3.37,-1.95,0.93,0.93,0.93
20.20,5.38,4.47,5.37,4.47,-4.47,-3.41,-2.00,0.90,0.90,0.91
20.40,5.33,4.45,5.33,4.45,-4.46,-3.44,-2.06,0.87,0.88,0.88
20.61,5.30,4.44,5.30,4.44,-4.44,-3.48,-2.12,0.86,0.85,0.86
20.81,5.27,4.43,5.26,4.43,-4.43,-3.52,-2.18,0.84,0.83,0.84
21.02,5.23,4.42,5.23,4.42,-4.42,-3.55,-2.24,0.81,0.81,0.81
21.23,5.20,4.41,5.20,4.41,-4.41,-3.59,-2.30,0.79,0.79,0.79
21.44,5.17,4.40,5.16,4.40,-4.40,-3.63,-2.37,0.77,0.77,0.77
21.66,5.13,4.38,5.13,4.38,-4.39,-3.66,-2.43,0.74,0.74,0.75
21.87,5.10,4.37,5.10,4.37,-4.38,-3.70,-2.50,0.72,0.72,0.73
22.09,5.08,4.37,5.07,4.37,-4.37,-3.73,-2.57,0.71,0.70,0.71
22.31,5.05,4.36,5.05,4.36,-4.36,-3.77,-2.65,0.68,0.68,0.69
22.54,5.02,4.36,5.02,4.36,-4.36,-3.80,-2.72,0.66,0.66,0.66
22.76,5.00,4.36,4.99,4.36,-4.36,-3.84,-2.80,0.64,0.64,0.64
22.99,4.97,4.35,4.97,4.35,-4.35,-3.87,-2.88,0.61,0.62,0.62
23.22,4.95,4.35,4.95,4.35,-4.35,-3.91,-2.96,0.60,0.60,0.60
23.45,4.94,4.35,4.93,4.35,-4.35,-3.94,-3.04,0.59,0.58,0.59
23.69,4.91,4.34,4.91,4.35,-4.34,-3.98,-3.12,0.57,0.57,0.57
23.92,4.90,4.34,4.89,4.34,-4.34,-4.01,-3.21,0.56,0.56,0.56
24.16,4.88,4.34,4.87,4.33,-4.33,-4.05,-3.29,0.54,0.54,0.54
24.40,4.85,4.32,4.85,4.33,-4.33,-4.08,-3.38,0.52,0.52,0.53
24.65,4.84,4.32,4.84,4.32,-4.33,-4.11,-3.47,0.51,0.51,0.52
24.89,4.83,4.33,4.82,4.33,-4.33,-4.15,-3.56,0.50,0.50,0.50
25.14,4.82,4.33,4.82,4.33,-4.33,-4.18,-3.65,0.49,0.49,0.49
25.39,4.81,4.33,4.81,4.33,-4.33,-4.21,-3.74,0.48,0.48,0.48
25.65,4.80,4.33,4.80,4.33,-4.34,-4.25,-3.84,0.46,0.46,0.47
25.91,4.80,4.34,4.79,4.34,-4.34,-4.28,-3.93,0.45,0.45,0.46
26.16,4.79,4.34,4.79,4.35,-4.35,-4.31,-4.02,0.44,0.44,0.45
26.43,4.79,4.36,4.78,4.36,-4.35,-4.34,-4.11,0.43,0.43,0.43
26.69,4.78,4.36,4.78,4.36,-4.36,-4.37,-4.20,0.42,0.42,0.42
26.96,4.78,4.37,4.77,4.37,-4.36,-4.40,-4.29,0.41,0.41,0.41
27.23,4.77,4.37,4.77,4.37,-4.37,-4.43,-4.38,0.40,0.40,0.40
27.50,4.76,4.37,4.76,4.37,-4.37,-4.46,-4.46,0.39,0.39,0.39
27.77,4.75,4.36,4.75,4.37,-4.37,-4.49,-4.55,0.38,0.38,0.39
28.05,4.75,4.37,4.74,4.37,-4.37,-4.52,-4.63,0.38,0.37,0.38
28.33,4.74,4.37,4.74,4.37,-4.37,-4.54,-4.70,0.37,0.37,0.37
28.62,4.74,4.37,4.73,4.37,-4.37,-4.57,-4.77,0.37,0.36,0.37
28.90,4.73,4.37,4.73,4.37,-4.37,-4.60,-4.84,0.36,0.36,0.36
29.19,4.72,4.36,4.72,4.37,-4.37,-4.62,-4.91,0.34,0.35,0.36
29.48,4.73,4.38,4.72,4.38,-4.38,-4.65,-4.96,0.35,0.35,0.35
29.78,4.73,4.38,4.72,4.38,-4.38,-4.67,-5.02,0.35,0.34,0.35
30.08,4.73,4.39,4.73,4.39,-4.39,-4.70,-5.06,0.34,0.34,0.34
30.38,4.72,4.38,4.72,4.39,-4.39,-4.72,-5.10,0.33,0.33,0.34
30.68,4.73,4.40,4.72,4.40,-4.40,-4.74,-5.14,0.33,0.33,0.33
30.99,4.73,4.41,4.72,4.40,-4.40,-4.76,-5.16,0.33,0.32,0.32
31.30,4.72,4.40,4.72,4.41,-4.40,-4.78,-5.18,0.31,0.32,0.32
31.61,4.72,4.41,4.71,4.41,-4.41,-4.80,-5.20,0.31,0.31,0.31
31.93,4.71,4.41,4.71,4.41,-4.41,-4.82,-5.21,0.30,0.30,0.30
32.24,4.70,4.40,4.70,4.41,-4.41,-4.84,-5.21,0.29,0.29,0.30
32.57,4.70,4.41,4.69,4.41,-4.41,-4.86,-5.20,0.28,0.28,0.29
32.89,4.69,4.41,4.69,4.41,-4.42,-4.88,-5.19,0.27,0.27,0.28
33.22,4.69,4.42,4.69,4.42,-4.42,-4.90,-5.18,0.27,0.27,0.27
33.55,4.69,4.43,4.68,4.43,-4.43,-4.91,-5.16,0.26,0.26,0.26
33.89,4.68,4.43,4.68,4.43,-4.43,-4.93,-5.13,0.25,0.25,0.25
34.23,4.68,4.44,4.68,4.44,-4.44,-4.94,-5.10,0.24,0.24,0.24
34.57,4.68,4.44,4.68,4.44,-4.44,-4.95,-5.07,0.24,0.23,0.24
34.92,4.68,4.45,4.67,4.45,-4.45,-4.97,-5.03,0.23,0.23,0.23
35.27,4.67,4.45,4.67,4.45,-4.45,-4.98,-4.99,0.22,0.22,0.22
35.62,4.67,4.45,4.67,4.45,-4.46,-4.99,-4.95,0.21,0.21,0.22
35.97,4.67,4.46,4.67,4.46,-4.46,-5.00,-4.90,0.21,0.21,0.21
36.33,4.67,4.46,4.67,4.46,-4.47,-5.01,-4.86,0.20,0.20,0.21
36.70,4.67,4.47,4.67,4.47,-4.47,-5.01,-4.81,0.19,0.20,0.20
37.06,4.67,4.48,4.67,4.48,-4.48,-5.02,-4.77,0.19,0.19,0.19
37.43,4.68,4.49,4.67,4.49,-4.49,-5.03,-4.72,0.19,0.19,0.19
37.81,4.67,4.49,4.67,4.49,-4.49,-5.03,-4.68,0.18,0.18,0.18
38.19,4.68,4.50,4.67,4.50,-4.50,-5.04,-4.63,0.18,0.17,0.18
38.57,4.67,4.50,4.67,4.50,-4.50,-5.04,-4.59,0.16,0.17,0.17
38.95,4.68,4.51,4.67,4.51,-4.51,-5.04,-4.55,0.17,0.16,0.17
39.34,4.68,4.52,4.68,4.52,-4.52,-5.04,-4.51,0.16,0.16,0.16
39.74,4.68,4.52,4.68,4.52,-4.52,-5.05,-4.47,0.15,0.15,0.16
40.14,4.68,4.53,4.68,4.53,-4.53,-5.05,-4.44,0.15,0.15,0.15
40.54,4.68,4.53,4.68,4.53,-4.54,-5.04,-4.40,0.14,0.14,0.15
40.94,4.69,4.55,4.68,4.55,-4.55,-5.04,-4.37,0.14,0.14,0.14
41.35,4.69,4.55,4.69,4.56,-4.55,-5.04,-4.34,0.13,0.14,0.14
41.76,4.70,4.57,4.69,4.57,-4.56,-5.03,-4.32,0.13,0.13,0.13
42.18,4.70,4.57,4.70,4.57,-4.57,-5.03,-4.30,0.13,0.12,0.13
42.60,4.70,4.58,4.70,4.58,-4.58,-5.02,-4.28,0.12,0.12,0.12
43.03,4.70,4.58,4.70,4.59,-4.59,-5.02,-4.26,0.11,0.11,0.12
43.46,4.71,4.60,4.71,4.60,-4.60,-5.01,-4.25,0.11,0.11,0.11
43.90,4.72,4.61,4.72,4.61,-4.61,-5.00,-4.24,0.11,0.11,0.11
44.33,4.73,4.62,4.72,4.62,-4.62,-4.99,-4.23,0.11,0.11,0.11
44.78,4.73,4.63,4.73,4.63,-4.63,-4.98,-4.23,0.10,0.10,0.10
45.23,4.74,4.64,4.73,4.64,-4.64,-4.97,-4.23,0.10,0.10,0.10
45.68,4.74,4.64,4.74,4.64,-4.65,-4.96,-4.24,0.09,0.09,0.10
46.13,4.75,4.65,4.75,4.65,-4.65,-4.94,-4.24,0.09,0.09,0.10
46.60,4.76,4.66,4.76,4.66,-4.66,-4.93,-4.25,0.10,0.10,0.10
47.06,4.77,4.67,4.76,4.67,-4.67,-4.92,-4.27,0.10,0.10,0.10
47.53,4.77,4.67,4.77,4.67,-4.67,-4.90,-4.28,0.10,0.10,0.10
48.01,4.78,4.68,4.77,4.68,-4.68,-4.88,-4.30,0.10,0.10,0.10
48.49,4.78,4.68,4.78,4.68,-4.68,-4.87,-4.32,0.10,0.09,0.10
48.97,4.78,4.68,4.78,4.68,-4.68,-4.85,-4.35,0.09,0.09,0.10
49.46,4.78,4.68,4.78,4.69,-4.69,-4.83,-4.37,0.09,0.09,0.10
49.96,4.79,4.69,4.79,4.69,-4.69,-4.81,-4.40,0.10,0.10,0.10
50.46,4.80,4.70,4.79,4.69,-4.69,-4.79,-4.43,0.11,0.10,0.10
50.96,4.79,4.69,4.79,4.69,-4.69,-4.77,-4.46,0.10,0.10,0.10
51.47,4.79,4.69,4.79,4.69,-4.69,-4.75,-4.50,0.09,0.10,0.10
51.99,4.79,4.69,4.79,4.69,-4.69,-4.72,-4.53,0.09,0.09,0.10
52.51,4.79,4.69,4.79,4.69,-4.69,-4.70,-4.57,0.09,0.09,0.10
53.03,4.79,4.69,4.79,4.69,-4.69,-4.68,-4.61,0.10,0.10,0.10
53.56,4.79,4.69,4.79,4.69,-4.69,-4.65,-4.64,0.10,0.10,0.10
54.10,4.79,4.69,4.78,4.69,-4.69,-4.63,-4.68,0.10,0.10,0.10
54.64,4.78,4.68,4.78,4.68,-4.68,-4.60,-4.72,0.09,0.10,0.10
55.18,4.78,4.68,4.77,4.68,-4.68,-4.57,-4.75,0.10,0.09,0.10
55.74,4.77,4.67,4.77,4.67,-4.67,-4.55,-4.79,0.09,0.09,0.10
56.29,4.76,4.66,4.76,4.67,-4.67,-4.52,-4.82,0.09,0.10,0.10
56.86,4.76,4.66,4.75,4.66,-4.66,-4.49,-4.85,0.10,0.10,0.10
57.42,4.75,4.65,4.75,4.65,-4.65,-4.46,-4.87,0.10,0.10,0.10
58.00,4.74,4.63,4.74,4.64,-4.63,-4.43,-4.90,0.10,0.11,0.11
58.58,4.73,4.62,4.73,4.62,-4.62,-4.40,-4.92,0.11,0.11,0.11
59.16,4.72,4.61,4.71,4.61,-4.61,-4.37,-4.94,0.11,0.11,0.11
59.76,4.70,4.59,4.70,4.59,-4.59,-4.34,-4.95,0.11,0.11,0.11
60.35,4.69,4.57,4.68,4.57,-4.58,-4.31,-4.96,0.11,0.11,0.12
60.96,4.67,4.55,4.67,4.55,-4.56,-4.27,-4.96,0.11,0.11,0.12
61.57,4.66,4.54,4.66,4.54,-4.54,-4.24,-4.96,0.11,0.12,0.12
62.18,4.65,4.53,4.65,4.53,-4.53,-4.21,-4.95,0.12,0.12,0.12
62.80,4.64,4.52,4.63,4.51,-4.51,-4.18,-4.94,0.13,0.12,0.12
63.43,4.62,4.49,4.62,4.49,-4.49,-4.14,-4.92,0.12,0.13,0.13
64.07,4.60,4.47,4.60,4.48,-4.48,-4.11,-4.90,0.12,0.12,0.13
64.71,4.59,4.46,4.58,4.46,-4.46,-4.07,-4.87,0.13,0.12,0.13
65.35,4.57,4.44,4.57,4.44,-4.44,-4.04,-4.84,0.12,0.12,0.13
66.01,4.55,4.42,4.55,4.42,-4.42,-4.00,-4.80,0.12,0.13,0.13
66.67,4.54,4.41,4.53,4.41,-4.41,-3.97,-4.76,0.13,0.13,0.13
67.33,4.52,4.39,4.52,4.39,-4.39,-3.93,-4.72,0.13,0.13,0.13
68.01,4.50,4.37,4.50,4.37,-4.37,-3.90,-4.67,0.12,0.13,0.13
68.69,4.49,4.36,4.48,4.36,-4.36,-3.86,-4.61,0.13,0.13,0.13
69.37,4.47,4.34,4.47,4.34,-4.34,-3.82,-4.56,0.13,0.13,0.13
70.07,4.45,4.32,4.45,4.33,-4.32,-3.79,-4.50,0.12,0.13,0.13
70.77,4.44,4.31,4.43,4.31,-4.31,-3.75,-4.44,0.13,0.12,0.13
71.48,4.42,4.29,4.42,4.29,-4.29,-3.71,-4.38,0.13,0.13,0.13
72.19,4.40,4.27,4.40,4.28,-4.28,-3.68,-4.32,0.12,0.13,0.13
72.91,4.39,4.26,4.38,4.26,-4.26,-3.64,-4.26,0.13,0.12,0.13
73.64,4.37,4.25,4.36,4.24,-4.24,-3.60,-4.19,0.12,0.12,0.12
74.38,4.34,4.22,4.35,4.23,-4.23,-3.56,-4.13,0.11,0.12,0.12
75.12,4.33,4.21,4.32,4.21,-4.21,-3.53,-4.06,0.12,0.11,0.12
75.87,4.31,4.20,4.30,4.19,-4.19,-3.49,-4.00,0.11,0.11,0.11
76.63,4.28,4.17,4.28,4.18,-4.18,-3.45,-3.94,0.10,0.10,0.11
77.40,4.26,4.16,4.26,4.16,-4.16,-3.41,-3.87,0.09,0.09,0.10
78.17,4.24,4.15,4.24,4.15,-4.15,-3.37,-3.81,0.09,0.09,0.09
78.95,4.22,4.14,4.21,4.14,-4.14,-3.34,-3.75,0.08,0.08,0.08
79.74,4.19,4.12,4.19,4.12,-4.12,-3.30,-3.70,0.06,0.07,0.07
80.54,4.16,4.10,4.16,4.11,-4.11,-3.26,-3.64,0.05,0.06,0.06
81.35,4.15,4.10,4.14,4.09,-4.09,-3.22,-3.59,0.05,0.05,0.05
82.16,4.12,4.08,4.12,4.08,-4.08,-3.18,-3.53,0.04,0.04,0.04
82.98,4.09,4.06,4.09,4.06,-4.06,-3.14,-3.48,0.02,0.03,0.03
83.81,4.06,4.04,4.06,4.05,-4.04,-3.11,-3.44,0.01,0.01,0.02
84.65,4.03,4.03,4.03,4.03,-4.03,-3.07,-3.39,0.00,0.00,-0.00
85.50,4.00,4.01,4.00,4.01,-4.01,-3.03,-3.35,-0.01,-0.01,-0.01
86.35,3.97,3.98,3.96,3.98,-3.98,-2.99,-3.31,-0.02,-0.02,-0.01
87.22,3.93,3.95,3.93,3.96,-3.96,-2.95,-3.27,-0.03,-0.03,-0.02
88.09,3.90,3.93,3.90,3.93,-3.93,-2.91,-3.24,-0.04,-0.03,-0.03
88.97,3.87,3.91,3.86,3.91,-3.90,-2.88,-3.20,-0.04,-0.04,-0.04
89.86,3.83,3.88,3.83,3.88,-3.87,-2.84,-3.17,-0.05,-0.05,-0.05
90.76,3.79,3.84,3.79,3.84,-3.84,-2.80,-3.15,-0.06,-0.06,-0.05
91.66,3.75,3.81,3.75,3.81,-3.81,-2.76,-3.12,-0.06,-0.06,-0.06
92.58,3.71,3.77,3.71,3.77,-3.78,-2.72,-3.10,-0.07,-0.07,-0.06
93.51,3.67,3.74,3.67,3.74,-3.74,-2.69,-3.08,-0.07,-0.07,-0.07
94.44,3.63,3.70,3.63,3.70,-3.70,-2.65,-3.06,-0.07,-0.07,-0.07
95.39,3.59,3.67,3.58,3.67,-3.66,-2.61,-3.04,-0.08,-0.08,-0.08
96.34,3.54,3.62,3.54,3.62,-3.62,-2.57,-3.03,-0.09,-0.09,-0.08
97.30,3.49,3.58,3.49,3.58,-3.59,-2.54,-3.02,-0.10,-0.09,-0.09
98.28,3.45,3.54,3.45,3.54,-3.55,-2.50,-3.01,-0.10,-0.10,-0.09
99.26,3.41,3.51,3.40,3.51,-3.51,-2.46,-3.00,-0.10,-0.10,-0.10
100.25,3.36,3.47,3.36,3.47,-3.47,-2.42,-2.99,-0.11,-0.11,-0.11
101.25,3.31,3.43,3.31,3.43,-3.43,-2.39,-2.99,-0.12,-0.12,-0.12
102.27,3.26,3.39,3.26,3.39,-3.39,-2.35,-2.98,-0.13,-0.13,-0.13
103.29,3.21,3.35,3.21,3.35,-3.35,-2.31,-2.98,-0.14,-0.14,-0.14
104.32,3.16,3.31,3.16,3.31,-3.31,-2.28,-2.98,-0.16,-0.15,-0.15
105.37,3.12,3.28,3.11,3.27,-3.27,-2.24,-2.98,-0.16,-0.16,-0.16
106.42,3.06,3.23,3.06,3.23,-3.23,-2.21,-2.97,-0.18,-0.18,-0.17
107.48,3.01,3.19,3.01,3.19,-3.19,-2.17,-2.97,-0.19,-0.19,-0.18
108.56,2.96,3.15,2.96,3.15,-3.16,-2.13,-2.97,-0.20,-0.20,-0.19
109.64,2.92,3.12,2.91,3.12,-3.12,-2.10,-2.97,-0.20,-0.20,-0.20
110.74,2.87,3.08,2.87,3.08,-3.08,-2.06,-2.97,-0.21,-0.21,-0.21
111.85,2.82,3.04,2.82,3.04,-3.04,-2.03,-2.97,-0.22,-0.22,-0.22
112.97,2.77,3.00,2.76,3.00,-3.00,-1.99,-2.96,-0.23,-0.24,-0.23
114.10,2.71,2.95,2.71,2.96,-2.96,-1.96,-2.96,-0.25,-0.25,-0.24
115.24,2.67,2.92,2.67,2.92,-2.92,-1.92,-2.95,-0.25,-0.25,-0.25
116.39,2.62,2.88,2.61,2.88,-2.88,-1.89,-2.94,-0.26,-0.26,-0.26
117.55,2.57,2.84,2.56,2.84,-2.83,-1.85,-2.93,-0.27,-0.27,-0.27
118.73,2.51,2.79,2.51,2.79,-2.79,-1.82,-2.92,-0.28,-0.28,-0.28
119.92,2.46,2.74,2.46,2.75,-2.74,-1.79,-2.90,-0.29,-0.29,-0.28
121.12,2.41,2.70,2.41,2.70,-2.70,-1.75,-2.89,-0.29,-0.29,-0.29
122.33,2.36,2.65,2.35,2.65,-2.65,-1.72,-2.86,-0.29,-0.30,-0.29
123.55,2.30,2.60,2.30,2.60,-2.60,-1.69,-2.84,-0.31,-0.30,-0.30
124.79,2.25,2.55,2.25,2.56,-2.56,-1.65,-2.81,-0.31,-0.31,-0.30
126.03,2.20,2.51,2.19,2.51,-2.51,-1.62,-2.78,-0.31,-0.31,-0.31
127.29,2.15,2.46,2.14,2.46,-2.46,-1.59,-2.75,-0.31,-0.31,-0.31
128.57,2.09,2.40,2.09,2.41,-2.41,-1.55,-2.71,-0.32,-0.32,-0.31
129.85,2.05,2.37,2.04,2.36,-2.36,-1.52,-2.67,-0.31,-0.32,-0.32
131.15,1.99,2.31,1.99,2.31,-2.31,-1.49,-2.63,-0.32,-0.32,-0.32
132.46,1.94,2.26,1.94,2.26,-2.26,-1.46,-2.58,-0.32,-0.32,-0.32
133.79,1.89,2.21,1.88,2.21,-2.21,-1.42,-2.53,-0.32,-0.32,-0.32
135.12,1.83,2.15,1.83,2.15,-2.15,-1.39,-2.48,-0.33,-0.32,-0.32
136.48,1.78,2.10,1.77,2.09,-2.10,-1.36,-2.43,-0.32,-0.32,-0.32
137.84,1.72,2.03,1.72,2.04,-2.04,-1.33,-2.37,-0.32,-0.32,-0.31
139.22,1.67,1.98,1.67,1.98,-1.98,-1.30,-2.32,-0.32,-0.31,-0.31
140.61,1.62,1.93,1.62,1.92,-1.93,-1.27,-2.26,-0.31,-0.31,-0.31
142.02,1.57,1.87,1.56,1.87,-1.87,-1.24,-2.19,-0.30,-0.31,-0.30
143.44,1.51,1.80,1.51,1.81,-1.81,-1.20,-2.13,-0.30,-0.30,-0.29
144.87,1.46,1.75,1.46,1.75,-1.75,-1.17,-2.07,-0.29,-0.29,-0.29
146.32,1.42,1.70,1.41,1.69,-1.69,-1.14,-2.00,-0.28,-0.28,-0.28
147.78,1.36,1.63,1.36,1.64,-1.63,-1.11,-1.93,-0.28,-0.27,-0.27
149.26,1.31,1.58,1.30,1.58,-1.57,-1.08,-1.87,-0.27,-0.27,-0.27
150.75,1.25,1.51,1.25,1.51,-1.51,-1.05,-1.80,-0.27,-0.26,-0.26
152.26,1.20,1.45,1.20,1.45,-1.45,-1.02,-1.73,-0.26,-0.25,-0.25
153.78,1.15,1.39,1.15,1.39,-1.39,-0.99,-1.66,-0.25,-0.25,-0.24
155.32,1.10,1.33,1.10,1.33,-1.33,-0.96,-1.60,-0.23,-0.24,-0.23
156.88,1.05,1.27,1.05,1.27,-1.27,-0.93,-1.53,-0.22,-0.22,-0.22
158.44,1.00,1.21,1.00,1.21,-1.21,-0.90,-1.46,-0.22,-0.21,-0.21
160.03,0.96,1.16,0.95,1.15,-1.15,-0.87,-1.39,-0.20,-0.20,-0.20
161.63,0.90,1.09,0.90,1.10,-1.10,-0.84,-1.32,-0.20,-0.19,-0.19
163.24,0.86,1.04,0.86,1.04,-1.04,-0.81,-1.26,-0.18,-0.18,-0.18
164.88,0.82,0.99,0.81,0.99,-0.98,-0.78,-1.19,-0.17,-0.17,-0.17
166.53,0.77,0.93,0.77,0.93,-0.93,-0.75,-1.12,-0.16,-0.16,-0.16
168.19,0.72,0.87,0.72,0.88,-0.88,-0.72,-1.06,-0.16,-0.16,-0.15
169.87,0.68,0.82,0.67,0.82,-0.83,-0.70,-0.99,-0.15,-0.15,-0.14
171.57,0.64,0.78,0.63,0.77,-0.77,-0.67,-0.93,-0.14,-0.14,-0.14
173.29,0.59,0.72,0.59,0.73,-0.72,-0.64,-0.86,-0.14,-0.13,-0.13
175.02,0.56,0.68,0.55,0.68,-0.68,-0.61,-0.80,-0.12,-0.13,-0.12
176.77,0.51,0.63,0.51,0.63,-0.63,-0.58,-0.74,-0.12,-0.12,-0.12
178.54,0.47,0.58,0.47,0.58,-0.58,-0.55,-0.67,-0.12,-0.12,-0.11
180.32,0.43,0.54,0.42,0.54,-0.54,-0.52,-0.61,-0.11,-0.12,-0.11
182.13,0.38,0.49,0.38,0.49,-0.50,-0.49,-0.55,-0.12,-0.12,-0.11
183.95,0.34,0.45,0.34,0.45,-0.45,-0.46,-0.49,-0.11,-0.11,-0.11
185.79,0.30,0.41,0.30,0.41,-0.41,-0.43,-0.43,-0.11,-0.11,-0.11
187.65,0.26,0.37,0.25,0.37,-0.36,-0.40,-0.37,-0.11,-0.11,-0.11
189.52,0.21,0.32,0.21,0.33,-0.32,-0.37,-0.31,-0.12,-0.11,-0.11
191.42,0.17,0.28,0.17,0.28,-0.28,-0.35,-0.25,-0.11,-0.11,-0.11
193.33,0.13,0.24,0.12,0.24,-0.24,-0.32,-0.19,-0.11,-0.12,-0.11
195.27,0.08,0.19,0.08,0.19,-0.20,-0.29,-0.13,-0.12,-0.12,-0.11
197.22,0.03,0.15,0.03,0.15,-0.15,-0.26,-0.07,-0.13,-0.12,-0.12
199.19,-0.01,0.11,-0.01,0.11,-0.11,-0.23,-0.02,-0.13,-0.13,-0.12
201.18,-0.05,0.08,-0.06,0.07,-0.07,-0.20,0.04,-0.13,-0.13,-0.13
203.19,-0.10,0.03,-0.10,0.03,-0.03,-0.17,0.09,-0.14,-0.13,-0.13
205.23,-0.15,-0.01,-0.15,-0.01,0.01,-0.14,0.15,-0.15,-0.14,-0.14
207.28,-0.19,-0.05,-0.20,-0.05,0.05,-0.11,0.20,-0.15,-0.15,-0.14
209.35,-0.24,-0.09,-0.24,-0.09,0.09,-0.08,0.26,-0.16,-0.15,-0.15
211.44,-0.28,-0.12,-0.29,-0.13,0.13,-0.05,0.31,-0.16,-0.16,-0.16
213.56,-0.33,-0.17,-0.33,-0.17,0.17,-0.02,0.36,-0.17,-0.17,-0.16
215.69,-0.38,-0.21,-0.38,-0.21,0.21,0.01,0.41,-0.17,-0.17,-0.17
217.85,-0.43,-0.26,-0.43,-0.25,0.25,0.04,0.46,-0.18,-0.18,-0.17
220.03,-0.47,-0.29,-0.47,-0.29,0.29,0.07,0.51,-0.18,-0.18,-0.18
222.23,-0.51,-0.33,-0.52,-0.33,0.34,0.10,0.56,-0.18,-0.18,-0.18
224.45,-0.56,-0.38,-0.56,-0.38,0.38,0.14,0.61,-0.18,-0.18,-0.18
226.70,-0.61,-0.43,-0.61,-0.43,0.43,0.17,0.65,-0.19,-0.18,-0.18
228.96,-0.65,-0.47,-0.66,-0.47,0.47,0.20,0.69,-0.18,-0.18,-0.18
231.25,-0.70,-0.52,-0.70,-0.52,0.52,0.23,0.74,-0.18,-0.18,-0.18
233.57,-0.74,-0.57,-0.74,-0.56,0.56,0.26,0.78,-0.18,-0.18,-0.17
235.90,-0.78,-0.61,-0.78,-0.61,0.61,0.29,0.81,-0.17,-0.17,-0.17
238.26,-0.81,-0.65,-0.82,-0.65,0.65,0.33,0.85,-0.16,-0.16,-0.16
240.64,-0.85,-0.70,-0.85,-0.69,0.69,0.36,0.89,-0.16,-0.16,-0.15
243.05,-0.87,-0.72,-0.88,-0.73,0.73,0.39,0.92,-0.14,-0.15,-0.15
245.48,-0.91,-0.77,-0.91,-0.77,0.77,0.43,0.95,-0.15,-0.14,-0.14
247.93,-0.94,-0.81,-0.94,-0.80,0.80,0.46,0.98,-0.14,-0.13,-0.13
250.41,-0.95,-0.83,-0.96,-0.83,0.83,0.49,1.01,-0.12,-0.13,-0.12
252.92,-0.98,-0.86,-0.98,-0.86,0.86,0.53,1.04,-0.12,-0.12,-0.12
255.45,-1.00,-0.89,-1.00,-0.89,0.89,0.56,1.06,-0.12,-0.11,-0.11
258.00,-1.02,-0.92,-1.02,-0.91,0.91,0.60,1.08,-0.11,-0.11,-0.10
260.58,-1.03,-0.93,-1.04,-0.93,0.93,0.63,1.10,-0.10,-0.10,-0.10
263.19,-1.05,-0.95,-1.05,-0.95,0.95,0.67,1.12,-0.10,-0.10,-0.10
265.82,-1.06,-0.97,-1.06,-0.97,0.97,0.70,1.14,-0.10,-0.10,-0.09
268.48,-1.08,-0.99,-1.08,-0.98,0.98,0.74,1.16,-0.10,-0.10,-0.09
271.16,-1.08,-0.99,-1.09,-1.00,0.99,0.78,1.17,-0.09,-0.09,-0.09
273.87,-1.10,-1.01,-1.10,-1.01,1.01,0.81,1.19,-0.09,-0.09,-0.09
276.61,-1.11,-1.03,-1.11,-1.02,1.02,0.85,1.20,-0.09,-0.09,-0.08
279.38,-1.12,-1.04,-1.13,-1.04,1.04,0.89,1.22,-0.08,-0.08,-0.08
282.17,-1.14,-1.06,-1.14,-1.06,1.06,0.93,1.23,-0.08,-0.08,-0.08
284.99,-1.16,-1.09,-1.16,-1.09,1.09,0.96,1.24,-0.07,-0.07,-0.07
287.84,-1.19,-1.12,-1.19,-1.12,1.12,1.00,1.25,-0.07,-0.07,-0.07
290.72,-1.22,-1.16,-1.22,-1.16,1.16,1.04,1.26,-0.06,-0.06,-0.06
293.63,-1.26,-1.20,-1.27,-1.20,1.21,1.08,1.27,-0.05,-0.05,-0.06
296.57,-1.31,-1.26,-1.31,-1.26,1.27,1.12,1.28,-0.05,-0.05,-0.05
299.53,-1.37,-1.32,-1.37,-1.32,1.33,1.16,1.29,-0.04,-0.04,-0.05
302.53,-1.43,-1.39,-1.43,-1.39,1.40,1.20,1.30,-0.04,-0.04,-0.04
305.55,-1.50,-1.47,-1.50,-1.47,1.47,1.24,1.32,-0.03,-0.03,-0.03
308.61,-1.56,-1.54,-1.57,-1.54,1.54,1.28,1.33,-0.02,-0.03,-0.02
311.69,-1.63,-1.62,-1.63,-1.62,1.61,1.32,1.34,-0.03,-0.02,-0.01
314.81,-1.68,-1.68,-1.68,-1.68,1.67,1.36,1.35,-0.01,-0.01,-0.00
317.96,-1.73,-1.74,-1.73,-1.74,1.73,1.40,1.37,-0.01,-0.01,0.01
321.14,-1.76,-1.78,-1.76,-1.78,1.77,1.44,1.38,0.01,0.01,0.02
324.35,-1.79,-1.82,-1.79,-1.82,1.81,1.48,1.40,0.02,0.02,0.03
327.59,-1.80,-1.84,-1.81,-1.84,1.84,1.52,1.42,0.03,0.03,0.04
330.87,-1.82,-1.86,-1.82,-1.86,1.86,1.56,1.44,0.04,0.04,0.04
334.18,-1.83,-1.88,-1.83,-1.87,1.88,1.61,1.45,0.04,0.05,0.05
337.52,-1.83,-1.88,-1.84,-1.89,1.89,1.65,1.48,0.06,0.06,0.05
340.90,-1.85,-1.91,-1.85,-1.90,1.91,1.69,1.50,0.06,0.06,0.06
344.30,-1.86,-1.92,-1.87,-1.92,1.93,1.73,1.52,0.06,0.06,0.06
347.75,-1.89,-1.95,-1.89,-1.94,1.95,1.77,1.54,0.05,0.06,0.06
351.23,-1.90,-1.96,-1.91,-1.96,1.97,1.81,1.57,0.07,0.06,0.06
354.74,-1.93,-1.99,-1.94,-1.99,1.99,1.85,1.60,0.06,0.06,0.06
358.28,-1.97,-2.02,-1.97,-2.02,2.02,1.89,1.62,0.05,0.05,0.05
361.87,-2.00,-2.05,-2.00,-2.05,2.05,1.93,1.65,0.04,0.04,0.05
365.49,-2.03,-2.08,-2.03,-2.08,2.07,1.97,1.68,0.04,0.04,0.05
369.14,-2.05,-2.10,-2.06,-2.10,2.10,2.01,1.72,0.05,0.04,0.05
372.83,-2.08,-2.13,-2.08,-2.13,2.12,2.04,1.75,0.04,0.05,0.05
376.56,-2.09,-2.15,-2.10,-2.15,2.15,2.08,1.78,0.05,0.05,0.06
380.33,-2.11,-2.17,-2.11,-2.17,2.17,2.12,1.82,0.05,0.06,0.06
384.13,-2.12,-2.18,-2.13,-2.19,2.19,2.15,1.86,0.06,0.06,0.06
387.97,-2.14,-2.21,-2.14,-2.20,2.20,2.18,1.89,0.06,0.06,0.07
391.85,-2.15,-2.22,-2.15,-2.22,2.22,2.22,1.93,0.07,0.07,0.07
395.77,-2.16,-2.24,-2.16,-2.24,2.24,2.25,1.97,0.07,0.08,0.08
399.73,-2.16,-2.25,-2.17,-2.25,2.25,2.28,2.01,0.09,0.08,0.09
403.72,-2.17,-2.26,-2.18,-2.26,2.27,2.31,2.05,0.09,0.09,0.09
407.76,-2.18,-2.28,-2.18,-2.28,2.28,2.34,2.09,0.10,0.10,0.10
411.84,-2.19,-2.30,-2.19,-2.29,2.29,2.36,2.13,0.10,0.10,0.11
415.96,-2.18,-2.30,-2.19,-2.30,2.30,2.39,2.17,0.12,0.11,0.12
420.12,-2.19,-2.31,-2.19,-2.31,2.31,2.41,2.22,0.12,0.12,0.12
424.32,-2.19,-2.32,-2.19,-2.32,2.32,2.43,2.26,0.13,0.13,0.13
428.56,-2.19,-2.33,-2.19,-2.33,2.33,2.45,2.30,0.14,0.13,0.14
432.85,-2.19,-2.34,-2.19,-2.34,2.33,2.47,2.34,0.14,0.15,0.15
437.18,-2.18,-2.34,-2.19,-2.34,2.34,2.48,2.37,0.16,0.15,0.16
441.55,-2.17,-2.34,-2.18,-2.34,2.34,2.50,2.41,0.17,0.17,0.17
445.96,-2.17,-2.35,-2.17,-2.34,2.34,2.51,2.45,0.17,0.18,0.18
450.42,-2.15,-2.34,-2.16,-2.34,2.34,2.52,2.48,0.19,0.19,0.19
454.93,-2.15,-2.35,-2.15,-2.34,2.34,2.53,2.51,0.19,0.19,0.20
459.48,-2.13,-2.34,-2.13,-2.34,2.34,2.53,2.54,0.21,0.21,0.21
464.07,-2.12,-2.34,-2.12,-2.34,2.34,2.54,2.57,0.21,0.22,0.22
468.71,-2.10,-2.33,-2.11,-2.33,2.33,2.54,2.59,0.23,0.23,0.23
473.40,-2.09,-2.33,-2.09,-2.33,2.33,2.54,2.61,0.23,0.24,0.24
478.13,-2.07,-2.32,-2.08,-2.32,2.32,2.54,2.63,0.25,0.25,0.25
482.91,-2.06,-2.33,-2.06,-2.32,2.32,2.53,2.64,0.26,0.26,0.27
487.74,-2.03,-2.31,-2.03,-2.31,2.32,2.53,2.65,0.28,0.28,0.28
492.62,-2.01,-2.31,-2.01,-2.31,2.31,2.52,2.66,0.30,0.30,0.30
497.55,-1.99,-2.30,-2.00,-2.30,2.31,2.51,2.66,0.32,0.31,0.31
502.52,-1.98,-2.31,-1.98,-2.31,2.31,2.50,2.66,0.32,0.33,0.33
