frequency,raw,error,smoothed,error_smoothed,equalization,parametric_eq,fixed_band_eq,equalized_raw,equalized_smoothed,target
20.00,-12.30,-9.36,-12.30,-9.36,6.00,6.91,2.74,-6.30,-6.30,-2.94
20.20,-12.16,-9.22,-12.16,-9.23,6.00,6.99,2.81,-6.16,-6.16,-2.94
20.40,-12.02,-9.09,-12.02,-9.10,6.00,7.06,2.89,-6.02,-6.02,-2.93
20.61,-11.89,-8.97,-11.89,-8.97,6.00,7.12,2.98,-5.89,-5.89,-2.92
20.81,-11.76,-8.84,-11.76,-8.85,6.00,7.19,3.06,-5.76,-5.76,-2.92
21.02,-11.64,-8.73,-11.63,-8.72,6.00,7.24,3.15,-5.64,-5.63,-2.91
21.23,-11.51,-8.60,-11.51,-8.61,6.00,7.30,3.24,-5.51,-5.51,-2.91
21.44,-11.39,-8.49,-11.39,-8.49,6.00,7.34,3.33,-5.39,-5.39,-2.90
21.66,-11.27,-8.38,-11.27,-8.38,6.00,7.39,3.42,-5.27,-5.27,-2.89
21.87,-11.15,-8.27,-11.15,-8.27,6.00,7.42,3.52,-5.15,-5.15,-2.89
22.09,-11.05,-8.17,-11.04,-8.17,6.00,7.45,3.62,-5.05,-5.04,-2.88
22.31,-10.94,-8.07,-10.94,-8.07,6.00,7.47,3.72,-4.94,-4.94,-2.87
22.54,-10.84,-7.97,-10.84,-7.98,6.00,7.49,3.83,-4.84,-4.84,-2.87
22.76,-10.75,-7.89,-10.75,-7.89,6.00,7.50,3.94,-4.75,-4.75,-2.86
22.99,-10.66,-7.81,-10.65,-7.81,6.00,7.50,4.05,-4.66,-4.65,-2.85
23.22,-10.56,-7.72,-10.56,-7.72,6.00,7.50,4.16,-4.56,-4.56,-2.84
23.45,-10.46,-7.63,-10.46,-7.63,6.00,7.49,4.27,-4.46,-4.46,-2.83
23.69,-10.36,-7.54,-10.36,-7.55,6.00,7.47,4.39,-4.36,-4.36,-2.82
23.92,-10.27,-7.46,-10.27,-7.46,6.00,7.45,4.51,-4.27,-4.27,-2.81
24.16,-10.18,-7.38,-10.17,-7.38,6.00,7.42,4.63,-4.18,-4.17,-2.80
24.40,-10.08,-7.29,-10.08,-7.30,6.00,7.38,4.75,-4.08,-4.08,-2.78
24.65,-9.99,-7.22,-9.99,-7.22,6.00,7.34,4.88,-3.99,-3.99,-2.77
24.89,-9.91,-7.15,-9.90,-7.14,6.00,7.29,5.00,-3.91,-3.90,-2.76
25.14,-9.82,-7.07,-9.81,-7.07,6.00,7.23,5.13,-3.82,-3.81,-2.75
25.39,-9.72,-6.98,-9.72,-6.99,6.00,7.17,5.26,-3.72,-3.72,-2.74
25.65,-9.64,-6.91,-9.63,-6.91,6.00,7.11,5.39,-3.64,-3.63,-2.73
25.91,-9.55,-6.84,-9.54,-6.83,6.00,7.04,5.52,-3.55,-3.54,-2.71
26.16,-9.45,-6.75,-9.45,-6.75,6.00,6.97,5.64,-3.45,-3.45,-2.70
26.43,-9.36,-6.67,-9.36,-6.67,6.00,6.89,5.77,-3.36,-3.36,-2.69
26.69,-9.27,-6.59,-9.27,-6.59,6.00,6.81,5.90,-3.27,-3.27,-2.68
26.96,-9.18,-6.52,-9.18,-6.52,6.00,6.72,6.02,-3.18,-3.18,-2.66
27.23,-9.09,-6.44,-9.09,-6.45,6.00,6.63,6.14,-3.09,-3.09,-2.65
27.50,-9.01,-6.38,-9.00,-6.37,6.00,6.54,6.25,-3.00,-3.00,-2.63
27.77,-8.92,-6.30,-8.91,-6.30,6.01,6.45,6.37,-2.91,-2.91,-2.61
28.05,-8.83,-6.23,-8.83,-6.24,6.01,6.35,6.47,-2.82,-2.82,-2.60
28.33,-8.76,-6.17,-8.76,-6.17,6.01,6.25,6.57,-2.75,-2.75,-2.59
28.62,-8.69,-6.12,-8.68,-6.11,6.00,6.15,6.66,-2.69,-2.68,-2.57
28.90,-8.61,-6.05,-8.61,-6.05,5.98,6.05,6.75,-2.62,-2.62,-2.56
29.19,-8.53,-5.99,-8.53,-6.00,5.96,5.95,6.82,-2.56,-2.57,-2.54
29.48,-8.47,-5.94,-8.47,-5.94,5.93,5.84,6.89,-2.53,-2.53,-2.53
29.78,-8.41,-5.90,-8.40,-5.89,5.90,5.74,6.94,-2.51,-2.50,-2.51
30.08,-8.34,-5.84,-8.34,-5.85,5.86,5.63,6.98,-2.48,-2.48,-2.50
30.38,-8.28,-5.80,-8.28,-5.80,5.81,5.53,7.02,-2.47,-2.47,-2.48
30.68,-8.22,-5.75,-8.21,-5.75,5.76,5.42,7.03,-2.46,-2.45,-2.47
30.99,-8.15,-5.70,-8.15,-5.70,5.70,5.32,7.04,-2.44,-2.44,-2.45
31.30,-8.08,-5.64,-8.08,-5.65,5.65,5.21,7.03,-2.43,-2.43,-2.44
31.61,-8.02,-5.60,-8.02,-5.60,5.59,5.11,7.01,-2.42,-2.42,-2.42
31.93,-7.95,-5.54,-7.94,-5.54,5.54,5.00,6.98,-2.41,-2.41,-2.41
32.24,-7.87,-5.48,-7.86,-5.48,5.47,4.90,6.94,-2.39,-2.39,-2.39
32.57,-7.78,-5.40,-7.78,-5.41,5.41,4.79,6.88,-2.37,-2.37,-2.38
32.89,-7.70,-5.34,-7.70,-5.34,5.35,4.69,6.81,-2.35,-2.36,-2.36
33.22,-7.63,-5.28,-7.62,-5.28,5.28,4.59,6.73,-2.35,-2.34,-2.35
33.55,-7.54,-5.21,-7.54,-5.21,5.21,4.49,6.64,-2.33,-2.33,-2.33
33.89,-7.45,-5.13,-7.45,-5.14,5.14,4.39,6.54,-2.31,-2.31,-2.32
34.23,-7.36,-5.06,-7.36,-5.06,5.06,4.29,6.44,-2.29,-2.30,-2.30
34.57,-7.28,-4.99,-7.28,-4.99,4.99,4.19,6.32,-2.29,-2.29,-2.29
34.92,-7.19,-4.91,-7.19,-4.92,4.91,4.09,6.20,-2.27,-2.28,-2.28
35.27,-7.11,-4.85,-7.10,-4.84,4.84,3.99,6.07,-2.27,-2.26,-2.26
35.62,-7.01,-4.76,-7.01,-4.76,4.76,3.90,5.94,-2.24,-2.24,-2.25
35.97,-6.92,-4.68,-6.92,-4.69,4.69,3.80,5.80,-2.23,-2.23,-2.24
36.33,-6.84,-4.61,-6.84,-4.61,4.62,3.71,5.66,-2.22,-2.22,-2.23
36.70,-6.77,-4.55,-6.76,-4.55,4.54,3.62,5.51,-2.22,-2.22,-2.22
37.06,-6.69,-4.48,-6.68,-4.48,4.48,3.53,5.37,-2.21,-2.21,-2.21
37.43,-6.60,-4.40,-6.60,-4.41,4.41,3.44,5.22,-2.19,-2.19,-2.20
37.81,-6.53,-4.34,-6.53,-4.34,4.35,3.35,5.07,-2.18,-2.18,-2.19
38.19,-6.46,-4.28,-6.45,-4.28,4.28,3.26,4.92,-2.17,-2.17,-2.18
38.57,-6.39,-4.22,-6.39,-4.22,4.23,3.18,4.77,-2.16,-2.16,-2.17
38.95,-6.33,-4.17,-6.33,-4.17,4.17,3.09,4.62,-2.16,-2.16,-2.16
39.34,-6.27,-4.12,-6.26,-4.12,4.11,3.01,4.48,-2.15,-2.15,-2.15
39.74,-6.21,-4.07,-6.20,-4.06,4.06,2.93,4.33,-2.14,-2.14,-2.14
40.14,-6.14,-4.00,-6.14,-4.01,4.02,2.84,4.18,-2.12,-2.13,-2.14
40.54,-6.09,-3.96,-6.09,-3.96,3.97,2.76,4.04,-2.12,-2.12,-2.13
40.94,-6.04,-3.92,-6.03,-3.92,3.92,2.68,3.89,-2.11,-2.11,-2.12
41.35,-5.99,-3.88,-5.98,-3.88,3.88,2.61,3.75,-2.11,-2.11,-2.11
41.76,-5.93,-3.83,-5.93,-3.84,3.83,2.53,3.61,-2.09,-2.10,-2.10
42.18,-5.88,-3.79,-5.88,-3.79,3.79,2.45,3.47,-2.09,-2.09,-2.09
42.60,-5.83,-3.75,-5.82,-3.74,3.74,2.38,3.34,-2.08,-2.08,-2.08
43.03,-5.76,-3.69,-5.76,-3.69,3.70,2.30,3.20,-2.06,-2.06,-2.07
43.46,-5.70,-3.64,-5.70,-3.64,3.65,2.23,3.07,-2.05,-2.05,-2.06
43.90,-5.64,-3.59,-5.64,-3.60,3.60,2.16,2.94,-2.04,-2.04,-2.05
44.33,-5.58,-3.55,-5.57,-3.54,3.54,2.09,2.81,-2.03,-2.03,-2.03
44.78,-5.51,-3.49,-5.51,-3.49,3.49,2.01,2.68,-2.02,-2.02,-2.02
45.23,-5.43,-3.42,-5.43,-3.43,3.42,1.95,2.56,-2.00,-2.01,-2.01
45.68,-5.35,-3.36,-5.35,-3.36,3.36,1.88,2.43,-1.99,-1.99,-1.99
46.13,-5.26,-3.28,-5.25,-3.28,3.28,1.81,2.31,-1.97,-1.97,-1.98
46.60,-5.16,-3.20,-5.16,-3.20,3.20,1.74,2.19,-1.96,-1.96,-1.96
47.06,-5.05,-3.10,-5.05,-3.11,3.11,1.68,2.08,-1.93,-1.94,-1.95
47.53,-4.95,-3.02,-4.95,-3.02,3.02,1.61,1.96,-1.93,-1.93,-1.93
48.01,-4.84,-2.92,-4.83,-2.92,2.91,1.54,1.85,-1.92,-1.92,-1.92
48.49,-4.71,-2.81,-4.71,-2.81,2.80,1.48,1.74,-1.90,-1.90,-1.90
48.97,-4.57,-2.68,-4.57,-2.69,2.69,1.42,1.63,-1.88,-1.88,-1.89
49.46,-4.43,-2.56,-4.43,-2.56,2.57,1.35,1.52,-1.86,-1.86,-1.87
49.96,-4.29,-2.43,-4.29,-2.44,2.44,1.29,1.42,-1.85,-1.85,-1.86
50.46,-4.16,-2.31,-4.15,-2.31,2.30,1.23,1.31,-1.86,-1.85,-1.85
50.96,-4.00,-2.17,-4.00,-2.17,2.16,1.17,1.21,-1.83,-1.84,-1.83
51.47,-3.84,-2.02,-3.84,-2.03,2.02,1.11,1.11,-1.82,-1.82,-1.82
51.99,-3.69,-1.88,-3.68,-1.88,1.88,1.05,1.01,-1.81,-1.80,-1.81
52.51,-3.52,-1.72,-3.52,-1.73,1.74,0.99,0.91,-1.78,-1.79,-1.80
53.03,-3.37,-1.58,-3.37,-1.58,1.59,0.93,0.82,-1.78,-1.77,-1.79
53.56,-3.21,-1.44,-3.21,-1.44,1.45,0.87,0.73,-1.76,-1.76,-1.77
54.10,-3.07,-1.31,-3.06,-1.31,1.30,0.82,0.64,-1.76,-1.76,-1.76
54.64,-2.92,-1.17,-2.92,-1.17,1.17,0.76,0.55,-1.75,-1.75,-1.75
55.18,-2.78,-1.03,-2.77,-1.03,1.03,0.70,0.46,-1.75,-1.74,-1.75
55.74,-2.63,-0.89,-2.63,-0.89,0.90,0.64,0.38,-1.73,-1.73,-1.74
56.29,-2.49,-0.76,-2.49,-0.77,0.77,0.59,0.30,-1.72,-1.72,-1.73
56.86,-2.37,-0.64,-2.36,-0.64,0.64,0.53,0.22,-1.72,-1.72,-1.73
57.42,-2.25,-0.53,-2.24,-0.52,0.52,0.48,0.14,-1.72,-1.72,-1.72
58.00,-2.12,-0.40,-2.12,-0.41,0.41,0.42,0.07,-1.71,-1.71,-1.72
58.58,-2.00,-0.29,-2.00,-0.30,0.30,0.37,0.00,-1.70,-1.71,-1.71
59.16,-1.90,-0.19,-1.89,-0.19,0.19,0.31,-0.07,-1.71,-1.70,-1.71
59.76,-1.80,-0.09,-1.79,-0.09,0.09,0.26,-0.13,-1.71,-1.70,-1.71
60.35,-1.70,0.01,-1.70,0.01,-0.00,0.20,-0.20,-1.70,-1.70,-1.71
60.96,-1.60,0.11,-1.60,0.10,-0.10,0.15,-0.26,-1.70,-1.70,-1.71
61.57,-1.52,0.19,-1.52,0.19,-0.19,0.09,-0.31,-1.71,-1.70,-1.71
62.18,-1.44,0.27,-1.44,0.27,-0.28,0.04,-0.37,-1.71,-1.71,-1.71
62.80,-1.36,0.35,-1.35,0.35,-0.36,-0.01,-0.42,-1.72,-1.71,-1.71
63.43,-1.27,0.44,-1.27,0.44,-0.45,-0.07,-0.47,-1.71,-1.71,-1.71
64.07,-1.18,0.54,-1.18,0.53,-0.53,-0.12,-0.51,-1.71,-1.71,-1.72
64.71,-1.10,0.62,-1.10,0.62,-0.61,-0.17,-0.56,-1.71,-1.71,-1.72
65.35,-1.02,0.70,-1.02,0.70,-0.70,-0.23,-0.60,-1.71,-1.72,-1.72
66.01,-0.95,0.77,-0.94,0.77,-0.78,-0.28,-0.64,-1.73,-1.72,-1.72
66.67,-0.86,0.86,-0.86,0.86,-0.86,-0.33,-0.67,-1.72,-1.72,-1.72
67.33,-0.78,0.94,-0.78,0.94,-0.94,-0.39,-0.71,-1.72,-1.72,-1.72
68.01,-0.70,1.03,-0.70,1.02,-1.02,-0.44,-0.74,-1.72,-1.72,-1.73
68.69,-0.63,1.10,-0.63,1.10,-1.10,-0.49,-0.77,-1.72,-1.72,-1.73
69.37,-0.56,1.17,-0.56,1.17,-1.17,-0.55,-0.80,-1.73,-1.73,-1.73
70.07,-0.49,1.24,-0.48,1.24,-1.25,-0.60,-0.83,-1.74,-1.73,-1.73
70.77,-0.41,1.32,-0.41,1.32,-1.32,-0.65,-0.85,-1.73,-1.73,-1.73
71.48,-0.34,1.39,-0.33,1.39,-1.39,-0.70,-0.88,-1.73,-1.72,-1.73
72.19,-0.26,1.47,-0.26,1.46,-1.45,-0.76,-0.90,-1.71,-1.71,-1.73
72.91,-0.20,1.52,-0.20,1.52,-1.51,-0.81,-0.93,-1.71,-1.71,-1.72
73.64,-0.14,1.58,-0.14,1.57,-1.57,-0.86,-0.95,-1.71,-1.71,-1.72
74.38,-0.09,1.62,-0.09,1.62,-1.62,-0.91,-0.97,-1.71,-1.71,-1.71
75.12,-0.04,1.67,-0.03,1.67,-1.68,-0.96,-1.00,-1.71,-1.71,-1.71
75.87,0.02,1.72,0.02,1.71,-1.72,-1.02,-1.02,-1.70,-1.70,-1.70
76.63,0.07,1.76,0.08,1.76,-1.77,-1.07,-1.04,-1.70,-1.69,-1.69
77.40,0.13,1.81,0.13,1.81,-1.81,-1.12,-1.07,-1.68,-1.68,-1.68
78.17,0.19,1.86,0.19,1.86,-1.85,-1.17,-1.09,-1.66,-1.66,-1.67
78.95,0.24,1.90,0.25,1.90,-1.89,-1.22,-1.11,-1.65,-1.65,-1.66
79.74,0.29,1.94,0.29,1.94,-1.93,-1.27,-1.14,-1.64,-1.64,-1.65
80.54,0.33,1.97,0.33,1.97,-1.96,-1.33,-1.16,-1.63,-1.63,-1.64
81.35,0.36,1.99,0.36,1.99,-1.99,-1.38,-1.19,-1.62,-1.62,-1.63
82.16,0.39,2.01,0.39,2.01,-2.01,-1.43,-1.22,-1.62,-1.62,-1.62
82.98,0.42,2.03,0.42,2.03,-2.03,-1.48,-1.25,-1.61,-1.61,-1.61
83.81,0.45,2.05,0.45,2.05,-2.05,-1.53,-1.27,-1.60,-1.60,-1.60
84.65,0.48,2.07,0.48,2.07,-2.07,-1.58,-1.30,-1.59,-1.59,-1.59
85.50,0.51,2.09,0.51,2.09,-2.10,-1.63,-1.34,-1.58,-1.58,-1.58
86.35,0.54,2.11,0.55,2.11,-2.12,-1.68,-1.37,-1.57,-1.57,-1.57
87.22,0.58,2.14,0.58,2.14,-2.14,-1.73,-1.40,-1.55,-1.55,-1.56
88.09,0.62,2.17,0.62,2.16,-2.16,-1.77,-1.44,-1.53,-1.54,-1.55
88.97,0.65,2.18,0.65,2.18,-2.18,-1.82,-1.47,-1.52,-1.52,-1.53
89.86,0.68,2.20,0.68,2.20,-2.19,-1.87,-1.51,-1.51,-1.51,-1.52
90.76,0.70,2.21,0.70,2.21,-2.21,-1.91,-1.55,-1.50,-1.50,-1.51
91.66,0.72,2.21,0.73,2.22,-2.22,-1.96,-1.59,-1.49,-1.49,-1.49
92.58,0.75,2.23,0.75,2.23,-2.23,-2.01,-1.63,-1.47,-1.48,-1.48
93.51,0.77,2.24,0.77,2.23,-2.23,-2.05,-1.67,-1.46,-1.46,-1.47
94.44,0.79,2.24,0.79,2.24,-2.24,-2.09,-1.71,-1.45,-1.45,-1.45
95.39,0.81,2.25,0.81,2.24,-2.25,-2.14,-1.76,-1.43,-1.44,-1.44
96.34,0.83,2.25,0.83,2.25,-2.26,-2.18,-1.80,-1.42,-1.42,-1.42
97.30,0.85,2.26,0.86,2.26,-2.26,-2.22,-1.85,-1.41,-1.41,-1.41
98.28,0.88,2.28,0.88,2.27,-2.27,-2.26,-1.89,-1.39,-1.39,-1.40
99.26,0.90,2.29,0.90,2.28,-2.28,-2.30,-1.94,-1.38,-1.38,-1.39
100.25,0.92,2.29,0.92,2.29,-2.29,-2.33,-1.99,-1.37,-1.37,-1.37
101.25,0.94,2.30,0.95,2.30,-2.31,-2.37,-2.04,-1.36,-1.36,-1.36
102.27,0.97,2.32,0.97,2.32,-2.32,-2.40,-2.09,-1.35,-1.35,-1.35
103.29,0.99,2.34,1.00,2.34,-2.34,-2.44,-2.14,-1.35,-1.34,-1.35
104.32,1.02,2.36,1.02,2.36,-2.36,-2.47,-2.19,-1.34,-1.34,-1.34
105.37,1.05,2.38,1.05,2.38,-2.39,-2.50,-2.24,-1.33,-1.33,-1.33
106.42,1.08,2.41,1.08,2.41,-2.41,-2.53,-2.29,-1.33,-1.33,-1.33
107.48,1.11,2.44,1.11,2.44,-2.44,-2.56,-2.34,-1.32,-1.32,-1.33
108.56,1.14,2.47,1.14,2.47,-2.46,-2.59,-2.39,-1.32,-1.32,-1.33
109.64,1.16,2.49,1.17,2.49,-2.49,-2.61,-2.44,-1.32,-1.32,-1.33
110.74,1.18,2.51,1.18,2.51,-2.51,-2.64,-2.48,-1.32,-1.32,-1.33
111.85,1.20,2.53,1.20,2.53,-2.52,-2.66,-2.53,-1.32,-1.32,-1.33
112.97,1.20,2.54,1.21,2.54,-2.53,-2.68,-2.57,-1.33,-1.33,-1.34
114.10,1.21,2.55,1.21,2.55,-2.54,-2.70,-2.61,-1.33,-1.33,-1.34
115.24,1.20,2.55,1.20,2.55,-2.55,-2.72,-2.65,-1.34,-1.34,-1.35
116.39,1.19,2.54,1.20,2.54,-2.55,-2.73,-2.69,-1.35,-1.35,-1.35
117.55,1.19,2.55,1.19,2.54,-2.55,-2.75,-2.72,-1.36,-1.36,-1.36
118.73,1.18,2.54,1.19,2.54,-2.55,-2.76,-2.75,-1.37,-1.36,-1.36
119.92,1.18,2.55,1.18,2.55,-2.55,-2.77,-2.78,-1.36,-1.36,-1.37
121.12,1.18,2.55,1.18,2.55,-2.55,-2.78,-2.81,-1.36,-1.36,-1.37
122.33,1.18,2.55,1.18,2.55,-2.55,-2.79,-2.83,-1.36,-1.36,-1.37
123.55,1.18,2.55,1.18,2.55,-2.55,-2.80,-2.85,-1.36,-1.36,-1.37
124.79,1.18,2.55,1.18,2.55,-2.55,-2.80,-2.86,-1.37,-1.37,-1.37
126.03,1.18,2.55,1.18,2.55,-2.55,-2.80,-2.87,-1.37,-1.37,-1.37
127.29,1.18,2.55,1.18,2.55,-2.55,-2.81,-2.88,-1.37,-1.37,-1.37
128.57,1.18,2.55,1.18,2.55,-2.55,-2.81,-2.89,-1.36,-1.36,-1.37
129.85,1.18,2.55,1.18,2.55,-2.55,-2.81,-2.89,-1.36,-1.36,-1.37
131.15,1.18,2.55,1.18,2.55,-2.55,-2.81,-2.89,-1.36,-1.36,-1.37
132.46,1.18,2.55,1.18,2.55,-2.54,-2.80,-2.88,-1.36,-1.36,-1.37
133.79,1.18,2.54,1.18,2.54,-2.54,-2.80,-2.88,-1.36,-1.36,-1.36
135.12,1.18,2.54,1.18,2.54,-2.54,-2.80,-2.87,-1.36,-1.36,-1.36
136.48,1.18,2.54,1.18,2.54,-2.54,-2.79,-2.86,-1.36,-1.36,-1.36
137.84,1.18,2.54,1.18,2.54,-2.54,-2.78,-2.84,-1.36,-1.36,-1.36
139.22,1.18,2.54,1.19,2.54,-2.54,-2.78,-2.83,-1.36,-1.36,-1.36
140.61,1.19,2.55,1.19,2.54,-2.55,-2.77,-2.81,-1.35,-1.36,-1.36
142.02,1.19,2.54,1.20,2.55,-2.55,-2.76,-2.79,-1.36,-1.35,-1.35
143.44,1.20,2.55,1.20,2.55,-2.55,-2.75,-2.77,-1.35,-1.35,-1.35
144.87,1.21,2.56,1.21,2.55,-2.55,-2.74,-2.75,-1.34,-1.35,-1.35
146.32,1.20,2.56,1.21,2.56,-2.55,-2.72,-2.73,-1.35,-1.34,-1.36
147.78,1.19,2.55,1.20,2.55,-2.54,-2.71,-2.71,-1.35,-1.35,-1.36
149.26,1.18,2.54,1.18,2.54,-2.53,-2.70,-2.69,-1.35,-1.35,-1.36
150.75,1.16,2.52,1.16,2.52,-2.52,-2.69,-2.67,-1.35,-1.36,-1.36
152.26,1.13,2.49,1.14,2.50,-2.50,-2.67,-2.65,-1.36,-1.36,-1.36
153.78,1.11,2.48,1.11,2.47,-2.47,-2.66,-2.63,-1.36,-1.36,-1.37
155.32,1.08,2.45,1.08,2.45,-2.45,-2.65,-2.61,-1.36,-1.36,-1.37
156.88,1.05,2.42,1.05,2.42,-2.42,-2.63,-2.59,-1.36,-1.36,-1.37
158.44,1.02,2.39,1.02,2.39,-2.39,-2.62,-2.58,-1.37,-1.37,-1.37
160.03,0.98,2.36,0.99,2.36,-2.36,-2.60,-2.56,-1.38,-1.37,-1.38
161.63,0.95,2.33,0.96,2.33,-2.34,-2.59,-2.55,-1.38,-1.38,-1.38
163.24,0.93,2.32,0.93,2.31,-2.31,-2.57,-2.54,-1.38,-1.38,-1.39
164.88,0.90,2.29,0.91,2.29,-2.29,-2.56,-2.53,-1.39,-1.39,-1.39
166.53,0.88,2.28,0.88,2.28,-2.28,-2.55,-2.52,-1.40,-1.40,-1.40
168.19,0.86,2.27,0.86,2.27,-2.27,-2.53,-2.51,-1.41,-1.41,-1.41
169.87,0.84,2.26,0.85,2.26,-2.27,-2.52,-2.50,-1.43,-1.42,-1.42
171.57,0.84,2.27,0.84,2.27,-2.27,-2.50,-2.50,-1.43,-1.43,-1.43
173.29,0.84,2.28,0.84,2.28,-2.28,-2.49,-2.50,-1.44,-1.44,-1.44
175.02,0.84,2.29,0.85,2.29,-2.29,-2.47,-2.50,-1.45,-1.45,-1.45
176.77,0.85,2.32,0.85,2.32,-2.31,-2.46,-2.50,-1.46,-1.46,-1.47
178.54,0.86,2.34,0.86,2.34,-2.33,-2.45,-2.51,-1.47,-1.47,-1.48
180.32,0.86,2.36,0.86,2.36,-2.35,-2.43,-2.51,-1.49,-1.49,-1.50
182.13,0.86,2.37,0.86,2.37,-2.38,-2.42,-2.52,-1.51,-1.51,-1.51
183.95,0.86,2.39,0.87,2.39,-2.40,-2.41,-2.53,-1.53,-1.53,-1.53
185.79,0.87,2.42,0.87,2.41,-2.42,-2.40,-2.54,-1.55,-1.55,-1.55
187.65,0.88,2.44,0.88,2.44,-2.44,-2.39,-2.56,-1.55,-1.56,-1.56
189.52,0.88,2.46,0.88,2.46,-2.45,-2.37,-2.57,-1.57,-1.57,-1.58
191.42,0.88,2.48,0.88,2.48,-2.47,-2.36,-2.59,-1.59,-1.59,-1.60
193.33,0.87,2.49,0.87,2.49,-2.48,-2.35,-2.61,-1.61,-1.61,-1.62
195.27,0.86,2.49,0.86,2.49,-2.49,-2.34,-2.63,-1.63,-1.63,-1.63
197.22,0.84,2.49,0.84,2.49,-2.49,-2.33,-2.65,-1.65,-1.65,-1.65
199.19,0.82,2.49,0.82,2.49,-2.49,-2.32,-2.68,-1.67,-1.67,-1.67
201.18,0.80,2.50,0.80,2.49,-2.49,-2.31,-2.70,-1.69,-1.69,-1.70
203.19,0.77,2.49,0.77,2.49,-2.48,-2.31,-2.73,-1.71,-1.71,-1.72
205.23,0.74,2.48,0.74,2.48,-2.47,-2.30,-2.75,-1.73,-1.73,-1.74
207.28,0.71,2.47,0.71,2.47,-2.47,-2.29,-2.78,-1.75,-1.76,-1.76
209.35,0.67,2.45,0.68,2.45,-2.46,-2.28,-2.81,-1.79,-1.78,-1.78
211.44,0.64,2.45,0.64,2.45,-2.45,-2.27,-2.84,-1.81,-1.81,-1.81
213.56,0.61,2.44,0.61,2.44,-2.45,-2.27,-2.86,-1.83,-1.83,-1.83
215.69,0.59,2.45,0.59,2.44,-2.44,-2.26,-2.89,-1.85,-1.86,-1.86
217.85,0.56,2.45,0.57,2.45,-2.45,-2.26,-2.92,-1.88,-1.88,-1.89
220.03,0.54,2.45,0.55,2.45,-2.45,-2.25,-2.95,-1.91,-1.91,-1.91
222.23,0.53,2.46,0.53,2.46,-2.46,-2.25,-2.97,-1.93,-1.93,-1.93
224.45,0.52,2.48,0.52,2.47,-2.48,-2.24,-3.00,-1.96,-1.96,-1.96
226.70,0.51,2.49,0.52,2.49,-2.50,-2.24,-3.02,-1.98,-1.98,-1.98
228.96,0.51,2.51,0.52,2.51,-2.51,-2.23,-3.04,-2.00,-2.00,-2.00
231.25,0.52,2.54,0.52,2.54,-2.53,-2.23,-3.06,-2.01,-2.01,-2.02
233.57,0.53,2.56,0.53,2.56,-2.55,-2.23,-3.08,-2.02,-2.02,-2.03
235.90,0.53,2.58,0.53,2.58,-2.57,-2.23,-3.09,-2.04,-2.03,-2.05
238.26,0.53,2.59,0.53,2.59,-2.58,-2.22,-3.11,-2.05,-2.05,-2.06
240.64,0.53,2.60,0.53,2.60,-2.60,-2.22,-3.12,-2.07,-2.07,-2.07
243.05,0.53,2.61,0.53,2.61,-2.61,-2.22,-3.12,-2.08,-2.08,-2.08
245.48,0.53,2.62,0.53,2.62,-2.62,-2.22,-3.12,-2.09,-2.09,-2.09
247.93,0.53,2.63,0.53,2.63,-2.63,-2.22,-3.12,-2.10,-2.10,-2.10
250.41,0.53,2.64,0.53,2.64,-2.64,-2.22,-3.12,-2.11,-2.11,-2.11
252.92,0.53,2.65,0.53,2.65,-2.65,-2.22,-3.11,-2.11,-2.11,-2.12
255.45,0.53,2.66,0.53,2.66,-2.66,-2.22,-3.10,-2.12,-2.12,-2.13
258.00,0.53,2.67,0.53,2.67,-2.66,-2.22,-3.09,-2.13,-2.13,-2.14
260.58,0.53,2.67,0.53,2.67,-2.67,-2.22,-3.07,-2.14,-2.14,-2.14
263.19,0.53,2.68,0.53,2.68,-2.68,-2.23,-3.05,-2.15,-2.15,-2.15
265.82,0.53,2.69,0.53,2.69,-2.69,-2.23,-3.03,-2.16,-2.16,-2.16
268.48,0.53,2.70,0.53,2.70,-2.70,-2.23,-3.01,-2.17,-2.17,-2.17
271.16,0.53,2.71,0.53,2.71,-2.71,-2.23,-2.98,-2.17,-2.17,-2.18
273.87,0.53,2.72,0.53,2.72,-2.72,-2.24,-2.95,-2.18,-2.18,-2.19
276.61,0.53,2.73,0.53,2.73,-2.73,-2.24,-2.92,-2.19,-2.19,-2.20
279.38,0.53,2.74,0.53,2.74,-2.74,-2.24,-2.88,-2.21,-2.21,-2.21
282.17,0.53,2.75,0.53,2.75,-2.75,-2.25,-2.85,-2.22,-2.22,-2.22
284.99,0.53,2.76,0.53,2.76,-2.76,-2.25,-2.81,-2.23,-2.23,-2.23
287.84,0.53,2.77,0.53,2.77,-2.77,-2.25,-2.77,-2.23,-2.23,-2.24
290.72,0.53,2.78,0.53,2.78,-2.78,-2.26,-2.74,-2.24,-2.24,-2.25
293.63,0.53,2.79,0.53,2.79,-2.78,-2.26,-2.70,-2.25,-2.25,-2.26
296.57,0.53,2.80,0.53,2.80,-2.79,-2.27,-2.66,-2.26,-2.26,-2.27
299.53,0.52,2.80,0.53,2.80,-2.80,-2.27,-2.62,-2.27,-2.27,-2.28
302.53,0.52,2.81,0.52,2.81,-2.81,-2.28,-2.58,-2.28,-2.29,-2.29
305.55,0.51,2.82,0.51,2.82,-2.82,-2.28,-2.54,-2.31,-2.31,-2.31
308.61,0.51,2.83,0.52,2.83,-2.84,-2.29,-2.50,-2.33,-2.32,-2.32
311.69,0.52,2.85,0.52,2.85,-2.86,-2.29,-2.46,-2.34,-2.34,-2.33
314.81,0.54,2.89,0.54,2.88,-2.89,-2.30,-2.43,-2.34,-2.35,-2.35
317.96,0.56,2.92,0.56,2.92,-2.92,-2.31,-2.39,-2.36,-2.36,-2.36
321.14,0.58,2.96,0.59,2.96,-2.96,-2.31,-2.36,-2.37,-2.37,-2.38
324.35,0.61,3.00,0.61,3.00,-3.00,-2.32,-2.32,-2.39,-2.39,-2.39
327.59,0.64,3.05,0.64,3.05,-3.04,-2.33,-2.29,-2.40,-2.40,-2.41
330.87,0.67,3.09,0.67,3.09,-3.09,-2.33,-2.26,-2.41,-2.41,-2.42
334.18,0.70,3.14,0.70,3.14,-3.13,-2.34,-2.23,-2.43,-2.43,-2.44
337.52,0.73,3.18,0.73,3.18,-3.18,-2.35,-2.20,-2.45,-2.45,-2.45
340.90,0.76,3.23,0.76,3.23,-3.23,-2.35,-2.17,-2.47,-2.47,-2.47
344.30,0.79,3.27,0.79,3.27,-3.28,-2.36,-2.15,-2.48,-2.48,-2.48
347.75,0.82,3.32,0.82,3.32,-3.32,-2.37,-2.12,-2.50,-2.50,-2.50
351.23,0.84,3.36,0.85,3.36,-3.37,-2.38,-2.10,-2.52,-2.51,-2.52
354.74,0.88,3.41,0.88,3.41,-3.40,-2.38,-2.08,-2.52,-2.53,-2.53
358.28,0.90,3.45,0.90,3.45,-3.44,-2.39,-2.06,-2.54,-2.54,-2.55
361.87,0.91,3.48,0.91,3.48,-3.47,-2.40,-2.04,-2.55,-2.55,-2.57
365.49,0.91,3.49,0.91,3.49,-3.49,-2.41,-2.03,-2.57,-2.57,-2.58
369.14,0.90,3.50,0.91,3.50,-3.50,-2.42,-2.01,-2.60,-2.60,-2.60
372.83,0.89,3.50,0.89,3.50,-3.51,-2.42,-2.00,-2.61,-2.61,-2.61
376.56,0.87,3.50,0.87,3.50,-3.50,-2.43,-1.99,-2.63,-2.63,-2.63
380.33,0.84,3.49,0.84,3.49,-3.49,-2.44,-1.98,-2.64,-2.64,-2.65
384.13,0.80,3.46,0.81,3.47,-3.46,-2.45,-1.97,-2.66,-2.65,-2.66
387.97,0.76,3.44,0.76,3.43,-3.43,-2.45,-1.96,-2.66,-2.67,-2.68
391.85,0.70,3.39,0.70,3.39,-3.38,-2.46,-1.96,-2.68,-2.68,-2.69
395.77,0.63,3.33,0.63,3.33,-3.32,-2.47,-1.95,-2.69,-2.69,-2.70
399.73,0.55,3.26,0.55,3.25,-3.25,-2.48,-1.95,-2.70,-2.71,-2.71
403.72,0.45,3.17,0.46,3.17,-3.18,-2.49,-1.95,-2.72,-2.72,-2.72
407.76,0.35,3.08,0.36,3.09,-3.09,-2.50,-1.95,-2.74,-2.73,-2.73
411.84,0.25,3.00,0.25,2.99,-2.99,-2.50,-1.95,-2.74,-2.74,-2.75
415.96,0.14,2.90,0.14,2.90,-2.89,-2.51,-1.95,-2.75,-2.75,-2.76
420.12,0.02,2.79,0.02,2.79,-2.78,-2.52,-1.95,-2.76,-2.76,-2.77
424.32,-0.11,2.67,-0.10,2.67,-2.67,-2.53,-1.96,-2.78,-2.78,-2.78
428.56,-0.23,2.56,-0.23,2.56,-2.56,-2.54,-1.96,-2.79,-2.79,-2.79
432.85,-0.37,2.44,-0.36,2.44,-2.44,-2.54,-1.96,-2.81,-2.80,-2.81
437.18,-0.50,2.32,-0.49,2.32,-2.32,-2.55,-1.97,-2.82,-2.81,-2.82
441.55,-0.62,2.21,-0.62,2.21,-2.20,-2.56,-1.97,-2.82,-2.83,-2.83
445.96,-0.76,2.09,-0.76,2.09,-2.08,-2.57,-1.98,-2.84,-2.84,-2.85
450.42,-0.90,1.97,-0.89,1.97,-1.97,-2.58,-1.99,-2.86,-2.86,-2.87
