frequency,raw,error,smoothed,error_smoothed,equalization,parametric_eq,fixed_band_eq,equalized_raw,equalized_smoothed,target
20.00,9.96,-0.56,9.91,-0.61,0.28,-0.57,-0.54,10.23,10.18,10.52
20.20,10.20,-0.31,10.22,-0.28,0.14,-0.58,-0.55,10.33,10.36,10.51
20.40,10.43,-0.06,10.49,0.00,0.01,-0.59,-0.57,10.44,10.50,10.49
20.61,10.66,0.18,10.70,0.23,-0.09,-0.60,-0.58,10.57,10.61,10.48
20.81,10.91,0.45,10.91,0.45,-0.18,-0.61,-0.60,10.73,10.73,10.46
21.02,11.10,0.65,10.99,0.55,-0.24,-0.63,-0.62,10.85,10.75,10.45
21.23,10.93,0.49,10.95,0.52,-0.29,-0.64,-0.64,10.63,10.66,10.44
21.44,10.76,0.34,10.79,0.36,-0.32,-0.65,-0.66,10.44,10.46,10.42
21.66,10.60,0.19,10.58,0.16,-0.27,-0.67,-0.67,10.33,10.30,10.41
21.87,10.42,0.02,10.45,0.05,-0.21,-0.68,-0.69,10.21,10.23,10.40
22.09,10.36,-0.04,10.39,0.00,-0.17,-0.69,-0.71,10.19,10.23,10.39
22.31,10.44,0.05,10.42,0.04,-0.13,-0.71,-0.73,10.30,10.29,10.38
22.54,10.52,0.15,10.51,0.14,-0.13,-0.72,-0.76,10.40,10.39,10.37
22.76,10.61,0.24,10.61,0.24,-0.15,-0.74,-0.78,10.45,10.45,10.36
22.99,10.69,0.32,10.67,0.31,-0.21,-0.75,-0.80,10.48,10.46,10.36
23.22,10.71,0.35,10.71,0.36,-0.28,-0.77,-0.82,10.42,10.43,10.35
23.45,10.74,0.38,10.73,0.38,-0.37,-0.78,-0.85,10.36,10.36,10.35
23.69,10.76,0.41,10.75,0.40,-0.47,-0.80,-0.87,10.29,10.28,10.35
23.92,10.79,0.44,10.82,0.47,-0.59,-0.82,-0.89,10.20,10.24,10.35
24.16,10.94,0.59,10.95,0.60,-0.71,-0.83,-0.92,10.23,10.24,10.35
24.40,11.15,0.80,11.14,0.79,-0.84,-0.85,-0.94,10.31,10.30,10.35
24.65,11.34,1.00,11.36,1.01,-0.98,-0.87,-0.97,10.36,10.38,10.35
24.89,11.56,1.21,11.53,1.18,-1.11,-0.89,-0.99,10.44,10.41,10.35
25.14,11.65,1.30,11.63,1.28,-1.21,-0.90,-1.02,10.44,10.42,10.35
25.39,11.66,1.31,11.68,1.34,-1.25,-0.92,-1.05,10.41,10.43,10.34
25.65,11.66,1.32,11.68,1.34,-1.22,-0.94,-1.07,10.43,10.46,10.33
25.91,11.67,1.33,11.63,1.30,-1.16,-0.96,-1.10,10.51,10.47,10.33
26.16,11.54,1.22,11.53,1.20,-1.10,-0.98,-1.13,10.44,10.43,10.32
26.43,11.35,1.03,11.32,1.00,-1.08,-1.00,-1.15,10.27,10.24,10.32
26.69,11.16,0.84,11.13,0.82,-1.10,-1.02,-1.18,10.06,10.03,10.31
26.96,10.96,0.66,11.08,0.78,-1.15,-1.04,-1.20,9.81,9.94,10.30
27.23,11.21,0.91,11.23,0.94,-1.19,-1.06,-1.23,10.02,10.04,10.30
27.50,11.56,1.28,11.57,1.29,-1.22,-1.08,-1.26,10.34,10.35,10.29
27.77,11.92,1.64,11.89,1.62,-1.25,-1.10,-1.28,10.67,10.65,10.28
28.05,12.13,1.87,11.99,1.72,-1.29,-1.13,-1.30,10.85,10.71,10.27
28.33,11.82,1.56,11.83,1.57,-1.35,-1.15,-1.33,10.48,10.48,10.26
28.62,11.52,1.26,11.53,1.27,-1.40,-1.17,-1.35,10.12,10.13,10.26
28.90,11.20,0.94,11.30,1.04,-1.41,-1.19,-1.37,9.78,9.89,10.25
29.19,11.26,1.00,11.31,1.05,-1.36,-1.22,-1.39,9.90,9.95,10.26
29.48,11.51,1.25,11.50,1.24,-1.27,-1.24,-1.41,10.24,10.23,10.26
29.78,11.75,1.50,11.72,1.46,-1.20,-1.27,-1.43,10.56,10.52,10.26
30.08,11.88,1.63,11.79,1.54,-1.20,-1.29,-1.45,10.68,10.59,10.26
30.38,11.67,1.42,11.63,1.38,-1.28,-1.31,-1.46,10.39,10.35,10.25
30.68,11.44,1.18,11.44,1.19,-1.42,-1.34,-1.48,10.02,10.03,10.25
30.99,11.22,0.97,11.39,1.14,-1.55,-1.36,-1.49,9.67,9.84,10.25
31.30,11.60,1.35,11.62,1.37,-1.66,-1.39,-1.50,9.94,9.96,10.25
31.61,12.02,1.78,11.99,1.75,-1.73,-1.41,-1.51,10.29,10.26,10.25
31.93,12.43,2.19,12.32,2.08,-1.78,-1.44,-1.52,10.65,10.54,10.24
32.24,12.42,2.19,12.41,2.17,-1.80,-1.46,-1.53,10.63,10.61,10.23
32.57,12.27,2.04,12.32,2.09,-1.81,-1.49,-1.54,10.46,10.51,10.23
32.89,12.10,1.88,12.11,1.88,-1.81,-1.52,-1.54,10.30,10.30,10.23
33.22,11.90,1.68,11.87,1.64,-1.78,-1.54,-1.55,10.13,10.09,10.22
33.55,11.67,1.45,11.65,1.43,-1.71,-1.57,-1.55,9.96,9.94,10.22
33.89,11.45,1.24,11.53,1.32,-1.62,-1.59,-1.55,9.83,9.92,10.21
34.23,11.54,1.34,11.61,1.41,-1.53,-1.62,-1.55,10.02,10.09,10.21
34.57,11.82,1.61,11.81,1.60,-1.47,-1.64,-1.56,10.34,10.33,10.20
34.92,12.08,1.88,11.96,1.76,-1.47,-1.67,-1.56,10.61,10.49,10.20
35.27,11.97,1.77,11.90,1.70,-1.52,-1.70,-1.56,10.45,10.38,10.20
35.62,11.72,1.52,11.73,1.54,-1.60,-1.72,-1.56,10.12,10.14,10.20
35.97,11.47,1.29,11.62,1.43,-1.68,-1.75,-1.56,9.79,9.94,10.18
36.33,11.69,1.51,11.70,1.52,-1.74,-1.77,-1.56,9.94,9.95,10.18
36.70,11.94,1.77,11.89,1.72,-1.77,-1.80,-1.56,10.17,10.13,10.18
37.06,12.16,1.98,12.10,1.93,-1.77,-1.82,-1.56,10.38,10.33,10.17
37.43,12.16,2.00,12.18,2.02,-1.79,-1.85,-1.56,10.36,10.39,10.16
37.81,12.16,2.00,12.15,2.00,-1.84,-1.87,-1.56,10.32,10.32,10.15
38.19,12.07,1.93,12.01,1.87,-1.88,-1.89,-1.56,10.19,10.13,10.14
38.57,11.88,1.75,11.87,1.74,-1.88,-1.92,-1.56,9.99,9.99,10.13
38.95,11.69,1.58,11.80,1.69,-1.84,-1.94,-1.56,9.84,9.96,10.11
39.34,11.84,1.73,11.86,1.76,-1.79,-1.96,-1.57,10.05,10.07,10.11
39.74,12.02,1.93,11.97,1.88,-1.76,-1.98,-1.57,10.26,10.20,10.09
40.14,12.07,2.00,11.96,1.88,-1.77,-2.00,-1.58,10.30,10.18,10.08
40.54,11.85,1.79,11.84,1.78,-1.81,-2.02,-1.58,10.03,10.03,10.06
40.94,11.61,1.55,11.78,1.72,-1.88,-2.04,-1.59,9.73,9.90,10.06
41.35,11.83,1.78,11.86,1.81,-1.95,-2.06,-1.60,9.88,9.91,10.05
41.76,12.13,2.08,12.04,2.00,-2.00,-2.08,-1.61,10.13,10.04,10.04
42.18,12.26,2.23,12.20,2.17,-2.04,-2.10,-1.62,10.23,10.16,10.04
42.60,12.20,2.17,12.23,2.20,-2.07,-2.12,-1.63,10.14,10.16,10.03
43.03,12.16,2.13,12.19,2.17,-2.10,-2.13,-1.64,10.06,10.10,10.03
43.46,12.16,2.14,12.16,2.14,-2.12,-2.15,-1.66,10.04,10.04,10.02
43.90,12.16,2.13,12.13,2.11,-2.12,-2.16,-1.68,10.03,10.00,10.02
44.33,12.09,2.08,12.08,2.06,-2.11,-2.18,-1.69,9.99,9.97,10.01
44.78,12.01,2.00,12.04,2.03,-2.10,-2.19,-1.71,9.90,9.93,10.01
45.23,12.01,2.01,12.03,2.04,-2.12,-2.20,-1.73,9.89,9.92,10.00
45.68,12.09,2.10,12.08,2.09,-2.15,-2.21,-1.75,9.95,9.93,9.99
46.13,12.16,2.17,12.13,2.15,-2.17,-2.22,-1.77,9.99,9.96,9.98
46.60,12.18,2.20,12.18,2.20,-2.16,-2.23,-1.80,10.02,10.02,9.97
47.06,12.20,2.23,12.25,2.29,-2.14,-2.24,-1.82,10.06,10.12,9.96
47.53,12.27,2.31,12.28,2.33,-2.13,-2.25,-1.85,10.14,10.15,9.95
48.01,12.33,2.39,12.14,2.20,-2.13,-2.26,-1.88,10.19,10.01,9.93
48.49,11.96,2.03,11.95,2.02,-2.14,-2.27,-1.90,9.82,9.81,9.92
48.97,11.59,1.68,11.81,1.91,-2.14,-2.28,-1.93,9.44,9.67,9.90
49.46,11.83,1.93,11.81,1.92,-2.16,-2.28,-1.96,9.67,9.66,9.89
49.96,12.10,2.22,12.04,2.16,-2.19,-2.29,-2.00,9.92,9.85,9.88
50.46,12.26,2.39,12.28,2.41,-2.24,-2.29,-2.03,10.03,10.04,9.87
50.96,12.41,2.55,12.30,2.43,-2.30,-2.30,-2.06,10.11,10.00,9.87
51.47,12.25,2.39,12.24,2.39,-2.37,-2.30,-2.09,9.88,9.87,9.85
51.99,12.07,2.23,12.25,2.41,-2.41,-2.31,-2.13,9.65,9.83,9.84
52.51,12.26,2.45,12.26,2.44,-2.43,-2.31,-2.16,9.84,9.83,9.82
53.03,12.45,2.64,12.26,2.45,-2.40,-2.32,-2.20,10.04,9.86,9.80
53.56,12.18,2.39,12.20,2.41,-2.34,-2.32,-2.23,9.83,9.86,9.79
54.10,11.95,2.17,12.05,2.28,-2.28,-2.32,-2.27,9.66,9.77,9.77
54.64,11.95,2.19,11.93,2.17,-2.25,-2.33,-2.30,9.69,9.68,9.76
55.18,11.94,2.19,11.90,2.16,-2.24,-2.33,-2.33,9.70,9.67,9.74
55.74,11.91,2.18,11.91,2.19,-2.24,-2.34,-2.37,9.67,9.68,9.73
56.29,11.91,2.20,11.91,2.20,-2.25,-2.34,-2.40,9.66,9.67,9.71
56.86,11.94,2.24,11.93,2.24,-2.27,-2.34,-2.43,9.67,9.66,9.69
57.42,11.98,2.30,11.98,2.31,-2.29,-2.35,-2.46,9.68,9.69,9.67
58.00,12.03,2.37,12.06,2.41,-2.33,-2.35,-2.49,9.70,9.73,9.65
58.58,12.13,2.49,12.09,2.46,-2.36,-2.35,-2.52,9.76,9.73,9.63
59.16,12.13,2.52,12.06,2.44,-2.39,-2.36,-2.54,9.75,9.67,9.61
59.76,11.93,2.33,11.96,2.37,-2.41,-2.36,-2.57,9.52,9.55,9.59
60.35,11.85,2.27,11.89,2.32,-2.42,-2.37,-2.59,9.43,9.47,9.57
60.96,11.86,2.30,11.93,2.37,-2.43,-2.37,-2.61,9.43,9.50,9.56
61.57,12.04,2.51,11.98,2.44,-2.44,-2.38,-2.63,9.61,9.54,9.54
62.18,12.10,2.59,11.98,2.46,-2.43,-2.38,-2.64,9.67,9.54,9.51
62.80,11.84,2.36,11.96,2.48,-2.43,-2.39,-2.66,9.41,9.53,9.48
63.43,11.85,2.39,11.91,2.46,-2.42,-2.39,-2.67,9.42,9.48,9.45
64.07,11.96,2.55,11.88,2.46,-2.43,-2.40,-2.68,9.53,9.45,9.42
64.71,11.89,2.49,11.86,2.48,-2.45,-2.41,-2.69,9.44,9.42,9.39
65.35,11.77,2.42,11.77,2.42,-2.47,-2.42,-2.69,9.31,9.30,9.35
66.01,11.65,2.32,11.67,2.35,-2.49,-2.43,-2.70,9.16,9.18,9.33
66.67,11.65,2.36,11.70,2.41,-2.50,-2.43,-2.70,9.14,9.20,9.29
67.33,11.76,2.50,11.79,2.53,-2.52,-2.44,-2.70,9.24,9.27,9.26
68.01,11.97,2.76,11.86,2.65,-2.53,-2.45,-2.70,9.45,9.33,9.22
68.69,11.86,2.67,11.85,2.67,-2.53,-2.46,-2.70,9.32,9.32,9.18
69.37,11.71,2.57,11.74,2.60,-2.53,-2.47,-2.70,9.19,9.21,9.14
70.07,11.58,2.47,11.58,2.47,-2.51,-2.49,-2.69,9.07,9.07,9.11
70.77,11.48,2.41,11.49,2.42,-2.48,-2.50,-2.69,8.99,9.01,9.07
71.48,11.45,2.41,11.47,2.44,-2.45,-2.51,-2.69,8.99,9.02,9.03
72.19,11.45,2.46,11.43,2.44,-2.43,-2.52,-2.68,9.01,8.99,8.99
72.91,11.44,2.49,11.34,2.39,-2.44,-2.54,-2.68,9.00,8.90,8.95
73.64,11.22,2.30,11.29,2.38,-2.48,-2.55,-2.68,8.74,8.81,8.91
74.38,11.23,2.35,11.34,2.46,-2.54,-2.57,-2.67,8.69,8.80,8.87
75.12,11.48,2.64,11.43,2.60,-2.60,-2.58,-2.67,8.87,8.83,8.83
75.87,11.65,2.87,11.53,2.75,-2.67,-2.60,-2.67,8.99,8.87,8.79
76.63,11.53,2.78,11.56,2.81,-2.71,-2.62,-2.67,8.81,8.84,8.74
77.40,11.45,2.74,11.52,2.82,-2.75,-2.63,-2.67,8.69,8.77,8.70
78.17,11.48,2.82,11.46,2.80,-2.78,-2.65,-2.67,8.69,8.68,8.66
78.95,11.49,2.88,11.41,2.80,-2.80,-2.67,-2.68,8.69,8.61,8.62
79.74,11.31,2.73,11.35,2.78,-2.80,-2.69,-2.68,8.50,8.55,8.57
80.54,11.25,2.72,11.28,2.75,-2.79,-2.71,-2.69,8.45,8.48,8.53
81.35,11.24,2.75,11.21,2.73,-2.78,-2.73,-2.70,8.45,8.43,8.48
82.16,11.21,2.77,11.19,2.76,-2.78,-2.75,-2.71,8.43,8.42,8.44
82.98,11.15,2.77,11.19,2.80,-2.78,-2.77,-2.72,8.37,8.41,8.38
83.81,11.18,2.84,11.17,2.84,-2.79,-2.79,-2.74,8.39,8.38,8.33
84.65,11.18,2.89,11.13,2.85,-2.81,-2.82,-2.75,8.37,8.32,8.28
85.50,11.07,2.84,11.06,2.84,-2.84,-2.84,-2.77,8.23,8.22,8.22
86.35,10.95,2.77,10.98,2.81,-2.88,-2.86,-2.79,8.07,8.10,8.17
87.22,10.95,2.83,10.97,2.85,-2.91,-2.89,-2.81,8.04,8.06,8.11
88.09,10.97,2.91,10.99,2.94,-2.95,-2.91,-2.84,8.02,8.05,8.06
88.97,11.12,3.12,11.01,3.01,-2.98,-2.93,-2.87,8.13,8.03,8.00
89.86,10.97,3.03,11.00,3.07,-3.02,-2.96,-2.90,7.95,7.99,7.93
90.76,10.92,3.03,10.98,3.10,-3.06,-2.98,-2.93,7.85,7.91,7.88
91.66,10.97,3.16,10.91,3.09,-3.10,-3.01,-2.96,7.87,7.80,7.82
92.58,10.89,3.13,10.89,3.13,-3.14,-3.03,-3.00,7.74,7.74,7.75
93.51,10.81,3.12,10.86,3.18,-3.18,-3.06,-3.04,7.63,7.69,7.69
94.44,10.85,3.22,10.81,3.18,-3.21,-3.09,-3.08,7.64,7.60,7.62
95.39,10.81,3.25,10.77,3.21,-3.23,-3.11,-3.12,7.57,7.54,7.56
96.34,10.69,3.19,10.75,3.26,-3.26,-3.14,-3.16,7.43,7.49,7.49
97.30,10.72,3.30,10.70,3.29,-3.28,-3.17,-3.21,7.43,7.42,7.41
98.28,10.72,3.37,10.67,3.33,-3.30,-3.19,-3.25,7.41,7.37,7.35
99.26,10.60,3.33,10.63,3.36,-3.32,-3.22,-3.30,7.27,7.30,7.27
100.25,10.57,3.37,10.53,3.34,-3.34,-3.25,-3.35,7.23,7.20,7.19
101.25,10.43,3.31,10.45,3.33,-3.36,-3.27,-3.40,7.07,7.09,7.12
102.27,10.38,3.34,10.39,3.35,-3.38,-3.30,-3.46,7.00,7.01,7.04
103.29,10.35,3.39,10.33,3.37,-3.39,-3.33,-3.51,6.95,6.94,6.96
104.32,10.30,3.41,10.29,3.41,-3.41,-3.36,-3.56,6.89,6.88,6.88
105.37,10.22,3.42,10.24,3.44,-3.42,-3.38,-3.61,6.79,6.81,6.79
106.42,10.19,3.47,10.18,3.47,-3.44,-3.41,-3.67,6.74,6.74,6.72
107.48,10.14,3.50,10.12,3.48,-3.47,-3.44,-3.72,6.67,6.65,6.64
108.56,10.06,3.49,10.04,3.48,-3.49,-3.46,-3.77,6.56,6.55,6.56
109.64,9.96,3.47,9.98,3.50,-3.51,-3.49,-3.82,6.44,6.47,6.48
110.74,9.92,3.50,9.94,3.53,-3.53,-3.52,-3.87,6.38,6.40,6.42
111.85,9.94,3.60,9.89,3.55,-3.56,-3.54,-3.92,6.38,6.33,6.34
112.97,9.86,3.58,9.85,3.58,-3.58,-3.57,-3.96,6.28,6.28,6.27
114.10,9.77,3.56,9.81,3.61,-3.60,-3.59,-4.00,6.16,6.21,6.21
115.24,9.79,3.65,9.76,3.62,-3.62,-3.61,-4.04,6.16,6.13,6.14
116.39,9.73,3.65,9.73,3.65,-3.64,-3.64,-4.08,6.08,6.08,6.07
117.55,9.69,3.67,9.69,3.68,-3.66,-3.66,-4.11,6.03,6.03,6.02
118.73,9.65,3.69,9.64,3.68,-3.67,-3.68,-4.14,5.98,5.97,5.95
119.92,9.59,3.69,9.59,3.69,-3.68,-3.71,-4.16,5.90,5.90,5.90
121.12,9.53,3.69,9.52,3.69,-3.69,-3.73,-4.18,5.83,5.83,5.83
122.33,9.47,3.69,9.46,3.68,-3.71,-3.75,-4.19,5.76,5.76,5.78
123.55,9.42,3.68,9.43,3.70,-3.72,-3.77,-4.20,5.69,5.71,5.74
124.79,9.41,3.72,9.41,3.73,-3.74,-3.78,-4.21,5.66,5.67,5.68
126.03,9.42,3.79,9.39,3.75,-3.76,-3.80,-4.21,5.66,5.63,5.62
127.29,9.36,3.77,9.37,3.79,-3.78,-3.82,-4.20,5.58,5.59,5.58
128.57,9.33,3.79,9.34,3.81,-3.79,-3.84,-4.19,5.53,5.55,5.53
129.85,9.34,3.85,9.31,3.82,-3.81,-3.85,-4.17,5.53,5.50,5.48
131.15,9.27,3.83,9.27,3.84,-3.82,-3.86,-4.15,5.44,5.45,5.43
132.46,9.21,3.82,9.21,3.83,-3.83,-3.88,-4.13,5.37,5.38,5.38
133.79,9.16,3.83,9.15,3.82,-3.84,-3.89,-4.10,5.31,5.31,5.33
135.12,9.10,3.82,9.11,3.83,-3.84,-3.90,-4.07,5.25,5.26,5.28
136.48,9.07,3.83,9.07,3.84,-3.85,-3.91,-4.03,5.22,5.23,5.23
137.84,9.06,3.88,9.04,3.86,-3.84,-3.91,-3.99,5.21,5.19,5.18
139.22,9.00,3.86,9.00,3.87,-3.85,-3.92,-3.95,5.15,5.16,5.13
140.61,8.95,3.86,8.94,3.86,-3.85,-3.93,-3.91,5.10,5.09,5.08
142.02,8.88,3.85,8.86,3.83,-3.85,-3.93,-3.86,5.03,5.02,5.03
143.44,8.79,3.81,8.81,3.83,-3.84,-3.93,-3.81,4.94,4.97,4.98
144.87,8.76,3.82,8.76,3.83,-3.84,-3.93,-3.76,4.92,4.93,4.94
146.32,8.75,3.86,8.71,3.83,-3.83,-3.93,-3.71,4.91,4.88,4.89
147.78,8.67,3.84,8.67,3.84,-3.83,-3.93,-3.66,4.84,4.84,4.83
149.26,8.59,3.81,8.61,3.83,-3.83,-3.93,-3.61,4.76,4.78,4.78
150.75,8.56,3.82,8.54,3.81,-3.83,-3.92,-3.56,4.73,4.71,4.73
152.26,8.50,3.81,8.50,3.81,-3.83,-3.92,-3.51,4.67,4.67,4.68
153.78,8.46,3.81,8.48,3.83,-3.82,-3.91,-3.46,4.64,4.66,4.65
155.32,8.46,3.85,8.44,3.83,-3.81,-3.90,-3.41,4.65,4.63,4.60
156.88,8.42,3.86,8.39,3.82,-3.80,-3.89,-3.36,4.61,4.59,4.56
158.44,8.30,3.77,8.33,3.80,-3.80,-3.88,-3.31,4.50,4.53,4.53
160.03,8.26,3.77,8.25,3.77,-3.80,-3.86,-3.27,4.46,4.46,4.48
161.63,8.21,3.76,8.19,3.75,-3.80,-3.85,-3.23,4.41,4.40,4.44
163.24,8.16,3.75,8.17,3.77,-3.79,-3.83,-3.18,4.37,4.38,4.40
164.88,8.14,3.77,8.14,3.78,-3.78,-3.82,-3.15,4.36,4.37,4.36
166.53,8.15,3.82,8.12,3.80,-3.77,-3.80,-3.11,4.38,4.36,4.32
168.19,8.08,3.79,8.09,3.80,-3.76,-3.77,-3.07,4.32,4.33,4.28
169.87,8.03,3.78,8.01,3.77,-3.75,-3.75,-3.04,4.28,4.26,4.25
171.57,7.93,3.72,7.91,3.70,-3.73,-3.73,-3.01,4.19,4.18,4.21
173.29,7.82,3.64,7.85,3.67,-3.71,-3.70,-2.98,4.10,4.14,4.17
175.02,7.78,3.64,7.80,3.66,-3.68,-3.68,-2.95,4.10,4.12,4.14
176.77,7.81,3.69,7.77,3.66,-3.65,-3.65,-2.93,4.16,4.12,4.11
178.54,7.73,3.65,7.73,3.65,-3.61,-3.62,-2.91,4.11,4.12,4.08
180.32,7.67,3.61,7.66,3.60,-3.57,-3.59,-2.89,4.09,4.09,4.06
182.13,7.58,3.54,7.56,3.53,-3.54,-3.56,-2.87,4.04,4.03,4.03
183.95,7.47,3.45,7.50,3.49,-3.50,-3.53,-2.86,3.96,3.99,4.01
185.79,7.45,3.46,7.45,3.46,-3.47,-3.49,-2.84,3.97,3.97,3.98
187.65,7.43,3.45,7.40,3.44,-3.45,-3.46,-2.83,3.98,3.96,3.97
189.52,7.38,3.42,7.35,3.40,-3.42,-3.42,-2.82,3.95,3.92,3.95
191.42,7.28,3.34,7.30,3.37,-3.39,-3.39,-2.82,3.88,3.90,3.93
193.33,7.24,3.32,7.30,3.38,-3.37,-3.35,-2.81,3.87,3.93,3.91
195.27,7.33,3.42,7.29,3.39,-3.35,-3.31,-2.81,3.97,3.94,3.91
197.22,7.35,3.46,7.26,3.38,-3.33,-3.27,-2.81,4.01,3.93,3.89
199.19,7.16,3.28,7.20,3.32,-3.31,-3.23,-2.81,3.84,3.88,3.87
201.18,7.06,3.20,7.09,3.23,-3.28,-3.19,-2.81,3.77,3.81,3.85
203.19,7.05,3.21,7.04,3.20,-3.25,-3.15,-2.81,3.79,3.78,3.84
205.23,7.02,3.19,7.05,3.23,-3.22,-3.10,-2.82,3.80,3.84,3.82
207.28,7.08,3.27,7.02,3.21,-3.17,-3.06,-2.82,3.90,3.85,3.81
209.35,6.99,3.20,6.94,3.16,-3.12,-3.01,-2.83,3.86,3.82,3.78
211.44,6.79,3.01,6.85,3.08,-3.07,-2.97,-2.83,3.71,3.78,3.77
213.56,6.76,3.00,6.77,3.02,-3.03,-2.92,-2.84,3.73,3.74,3.76
215.69,6.73,2.99,6.71,2.98,-2.98,-2.88,-2.84,3.74,3.73,3.74
217.85,6.72,2.99,6.65,2.93,-2.93,-2.83,-2.85,3.78,3.72,3.72
220.03,6.54,2.83,6.57,2.87,-2.88,-2.78,-2.85,3.65,3.69,3.70
222.23,6.46,2.77,6.50,2.81,-2.84,-2.73,-2.86,3.61,3.66,3.69
224.45,6.50,2.82,6.46,2.78,-2.80,-2.69,-2.86,3.69,3.66,3.68
226.70,6.46,2.79,6.45,2.78,-2.76,-2.64,-2.86,3.69,3.68,3.67
228.96,6.42,2.76,6.42,2.76,-2.73,-2.59,-2.86,3.69,3.69,3.66
231.25,6.35,2.69,6.36,2.70,-2.69,-2.54,-2.85,3.66,3.67,3.66
233.57,6.32,2.67,6.32,2.67,-2.65,-2.49,-2.85,3.66,3.67,3.65
235.90,6.26,2.61,6.26,2.61,-2.61,-2.44,-2.84,3.64,3.64,3.65
238.26,6.24,2.60,6.18,2.54,-2.57,-2.39,-2.83,3.67,3.61,3.64
240.64,6.10,2.44,6.15,2.50,-2.52,-2.34,-2.81,3.58,3.63,3.65
243.05,6.08,2.42,6.14,2.49,-2.47,-2.29,-2.80,3.61,3.68,3.65
245.48,6.21,2.55,6.10,2.44,-2.42,-2.24,-2.78,3.78,3.67,3.65
247.93,6.08,2.43,6.05,2.39,-2.39,-2.18,-2.75,3.70,3.66,3.66
250.41,5.88,2.22,5.98,2.32,-2.35,-2.13,-2.72,3.53,3.64,3.66
252.92,5.92,2.25,5.92,2.26,-2.30,-2.08,-2.69,3.62,3.62,3.66
255.45,5.96,2.29,5.92,2.25,-2.25,-2.03,-2.65,3.71,3.67,3.67
258.00,5.92,2.26,5.90,2.24,-2.19,-1.98,-2.61,3.72,3.71,3.66
260.58,5.84,2.18,5.84,2.19,-2.13,-1.93,-2.57,3.70,3.71,3.65
263.19,5.71,2.06,5.74,2.09,-2.08,-1.87,-2.53,3.62,3.65,3.65
265.82,5.69,2.05,5.60,1.97,-2.02,-1.82,-2.48,3.66,3.58,3.63
268.48,5.48,1.85,5.54,1.92,-1.96,-1.77,-2.42,3.52,3.59,3.62
271.16,5.43,1.82,5.52,1.91,-1.90,-1.72,-2.37,3.53,3.62,3.61
273.87,5.61,2.01,5.45,1.85,-1.84,-1.67,-2.31,3.77,3.61,3.59
276.61,5.41,1.82,5.40,1.81,-1.79,-1.61,-2.25,3.62,3.61,3.59
279.38,5.21,1.62,5.32,1.74,-1.75,-1.56,-2.18,3.46,3.57,3.58
282.17,5.26,1.69,5.22,1.65,-1.71,-1.51,-2.12,3.54,3.51,3.57
284.99,5.25,1.68,5.23,1.66,-1.68,-1.46,-2.05,3.57,3.55,3.56
287.84,5.21,1.64,5.23,1.67,-1.63,-1.40,-1.98,3.57,3.59,3.56
290.72,5.22,1.67,5.18,1.63,-1.59,-1.35,-1.91,3.63,3.59,3.55
293.63,5.10,1.55,5.11,1.57,-1.55,-1.30,-1.83,3.55,3.57,3.54
296.57,5.05,1.51,5.04,1.50,-1.51,-1.25,-1.76,3.54,3.54,3.54
299.53,4.97,1.42,4.97,1.43,-1.46,-1.20,-1.69,3.50,3.51,3.54
302.53,4.93,1.38,4.93,1.39,-1.42,-1.14,-1.61,3.51,3.51,3.54
305.55,4.89,1.36,4.87,1.34,-1.35,-1.09,-1.53,3.53,3.52,3.53
308.61,4.82,1.29,4.83,1.30,-1.28,-1.04,-1.46,3.53,3.55,3.52
311.69,4.77,1.24,4.77,1.25,-1.21,-0.99,-1.38,3.55,3.56,3.52
314.81,4.71,1.20,4.67,1.16,-1.14,-0.94,-1.31,3.56,3.53,3.51
317.96,4.59,1.08,4.60,1.10,-1.08,-0.88,-1.23,3.51,3.53,3.51
321.14,4.47,0.96,4.50,1.00,-1.02,-0.83,-1.15,3.44,3.48,3.50
324.35,4.48,0.99,4.38,0.89,-0.96,-0.78,-1.08,3.51,3.42,3.49
327.59,4.27,0.79,4.33,0.85,-0.90,-0.73,-1.00,3.37,3.44,3.48
330.87,4.23,0.75,4.31,0.84,-0.83,-0.68,-0.93,3.40,3.48,3.47
334.18,4.40,0.92,4.27,0.80,-0.77,-0.62,-0.85,3.63,3.50,3.47
337.52,4.25,0.78,4.26,0.80,-0.71,-0.57,-0.78,3.53,3.55,3.47
340.90,4.12,0.66,4.17,0.70,-0.66,-0.52,-0.70,3.46,3.51,3.46
344.30,4.10,0.64,3.99,0.54,-0.61,-0.47,-0.63,3.49,3.39,3.46
347.75,3.85,0.39,3.93,0.48,-0.54,-0.42,-0.55,3.30,3.39,3.45
351.23,3.83,0.38,3.91,0.47,-0.47,-0.37,-0.48,3.36,3.44,3.44
354.74,4.00,0.56,3.86,0.42,-0.40,-0.31,-0.41,3.60,3.46,3.44
358.28,3.85,0.41,3.82,0.38,-0.33,-0.26,-0.33,3.52,3.49,3.44
361.87,3.65,0.21,3.72,0.29,-0.27,-0.21,-0.26,3.38,3.46,3.44
365.49,3.61,0.17,3.60,0.17,-0.22,-0.16,-0.19,3.38,3.38,3.43
369.14,3.57,0.13,3.55,0.11,-0.17,-0.11,-0.12,3.39,3.37,3.43
372.83,3.53,0.09,3.54,0.11,-0.12,-0.06,-0.04,3.41,3.42,3.43
376.56,3.50,0.07,3.49,0.06,-0.06,-0.00,0.03,3.44,3.43,3.43
380.33,3.49,0.07,3.46,0.03,0.00,0.05,0.10,3.49,3.46,3.42
384.13,3.35,-0.07,3.41,-0.00,0.06,0.10,0.17,3.41,3.48,3.42
387.97,3.38,-0.03,3.30,-0.11,0.12,0.15,0.24,3.50,3.42,3.41
391.85,3.22,-0.18,3.18,-0.21,0.18,0.20,0.31,3.39,3.36,3.39
395.77,2.99,-0.40,3.12,-0.26,0.25,0.26,0.38,3.23,3.37,3.38
399.73,3.07,-0.31,3.01,-0.36,0.32,0.31,0.45,3.38,3.33,3.37
403.72,3.06,-0.31,2.95,-0.41,0.39,0.36,0.52,3.44,3.34,3.36
407.76,2.79,-0.55,2.91,-0.43,0.46,0.41,0.58,3.25,3.38,3.34
411.84,2.84,-0.49,2.82,-0.51,0.53,0.46,0.65,3.37,3.35,3.33
415.96,2.80,-0.52,2.73,-0.59,0.60,0.52,0.72,3.39,3.33,3.32
420.12,2.64,-0.67,2.66,-0.64,0.67,0.57,0.78,3.30,3.33,3.31
424.32,2.55,-0.76,2.56,-0.75,0.74,0.62,0.85,3.29,3.30,3.31
428.56,2.48,-0.83,2.48,-0.83,0.81,0.68,0.92,3.28,3.29,3.30
432.85,2.45,-0.87,2.43,-0.88,0.87,0.73,0.98,3.31,3.30,3.31
437.18,2.41,-0.93,2.40,-0.93,0.92,0.78,1.04,3.32,3.32,3.33
441.55,2.37,-0.99,2.37,-0.99,0.96,0.83,1.11,3.32,3.33,3.35
445.96,2.37,-1.02,2.34,-1.04,0.99,0.89,1.17,3.36,3.34,3.38
450.42,2.34,-1.09,2.39,-1.03,1.03,0.94,1.23,3.37,3.42,3.42
454.93,2.43,-1.03,2.45,-1.02,1.07,1.00,1.29,3.49,3.51,3.46
459.48,2.57,-0.94,2.44,-1.07,1.10,1.05,1.35,3.67,3.54,3.51
464.07,2.41,-1.14,2.44,-1.11,1.14,1.10,1.40,3.55,3.58,3.55
468.71,2.31,-1.29,2.43,-1.17,1.18,1.16,1.46,3.49,3.61,3.60
473.40,2.48,-1.17,2.37,-1.27,1.23,1.21,1.51,3.70,3.60,3.65
478.13,2.44,-1.26,2.37,-1.33,1.28,1.27,1.56,3.72,3.65,3.70
482.91,2.26,-1.48,2.40,-1.34,1.34,1.32,1.61,3.60,3.74,3.74
487.74,2.40,-1.38,2.40,-1.38,1.41,1.38,1.66,3.80,3.80,3.78
492.62,2.48,-1.33,2.37,-1.44,1.46,1.43,1.71,3.94,3.83,3.81
497.55,2.36,-1.47,2.32,-1.51,1.52,1.49,1.75,3.88,3.84,3.82
