frequency,raw,error,smoothed,error_smoothed,equalization,parametric_eq,fixed_band_eq,equalized_raw,equalized_smoothed,target
20.00,11.29,9.67,11.29,9.68,-9.67,-9.67,-4.40,1.62,1.62,1.62
20.20,11.28,9.69,11.28,9.68,-9.68,-9.67,-4.51,1.60,1.59,1.59
20.40,11.26,9.69,11.26,9.69,-9.69,-9.68,-4.63,1.57,1.57,1.57
20.61,11.24,9.69,11.24,9.69,-9.70,-9.68,-4.75,1.54,1.55,1.55
20.81,11.22,9.69,11.22,9.69,-9.70,-9.68,-4.88,1.52,1.52,1.53
21.02,11.21,9.70,11.21,9.70,-9.70,-9.68,-5.00,1.51,1.50,1.51
21.23,11.19,9.70,11.19,9.70,-9.70,-9.68,-5.14,1.49,1.49,1.49
21.44,11.17,9.70,11.17,9.70,-9.70,-9.68,-5.27,1.47,1.47,1.47
21.66,11.15,9.70,11.15,9.70,-9.70,-9.68,-5.41,1.45,1.45,1.45
21.87,11.13,9.69,11.13,9.70,-9.69,-9.67,-5.55,1.44,1.44,1.44
22.09,11.11,9.69,11.11,9.69,-9.68,-9.67,-5.70,1.43,1.43,1.42
22.31,11.09,9.68,11.09,9.68,-9.67,-9.67,-5.85,1.42,1.42,1.41
22.54,11.06,9.66,11.06,9.66,-9.66,-9.66,-6.01,1.41,1.41,1.40
22.76,11.03,9.64,11.03,9.64,-9.64,-9.66,-6.16,1.39,1.39,1.39
22.99,11.00,9.62,11.00,9.62,-9.62,-9.65,-6.33,1.38,1.38,1.38
23.22,10.97,9.60,10.97,9.60,-9.60,-9.65,-6.49,1.37,1.36,1.37
23.45,10.94,9.58,10.94,9.58,-9.59,-9.64,-6.66,1.35,1.35,1.36
23.69,10.92,9.57,10.92,9.57,-9.58,-9.64,-6.84,1.34,1.34,1.35
23.92,10.91,9.56,10.91,9.57,-9.58,-9.63,-7.02,1.33,1.34,1.35
24.16,10.91,9.57,10.91,9.57,-9.57,-9.62,-7.20,1.34,1.33,1.34
24.40,10.91,9.57,10.91,9.57,-9.57,-9.61,-7.38,1.34,1.34,1.34
24.65,10.91,9.58,10.91,9.58,-9.58,-9.60,-7.57,1.34,1.34,1.33
24.89,10.91,9.58,10.91,9.58,-9.57,-9.59,-7.76,1.34,1.33,1.33
25.14,10.90,9.58,10.90,9.58,-9.57,-9.58,-7.96,1.33,1.33,1.32
25.39,10.88,9.57,10.88,9.57,-9.56,-9.57,-8.16,1.32,1.32,1.31
25.65,10.86,9.55,10.86,9.55,-9.55,-9.56,-8.36,1.32,1.31,1.31
25.91,10.83,9.53,10.83,9.53,-9.53,-9.55,-8.56,1.31,1.31,1.30
26.16,10.80,9.50,10.80,9.50,-9.50,-9.53,-8.76,1.30,1.30,1.30
26.43,10.77,9.47,10.77,9.47,-9.48,-9.52,-8.96,1.29,1.29,1.30
26.69,10.74,9.45,10.74,9.45,-9.46,-9.50,-9.16,1.28,1.28,1.29
26.96,10.71,9.42,10.71,9.43,-9.43,-9.49,-9.37,1.28,1.28,1.29
27.23,10.69,9.41,10.69,9.41,-9.41,-9.47,-9.57,1.28,1.28,1.28
27.50,10.67,9.39,10.67,9.39,-9.39,-9.46,-9.76,1.28,1.28,1.28
27.77,10.65,9.37,10.65,9.37,-9.37,-9.44,-9.95,1.28,1.28,1.28
28.05,10.62,9.35,10.62,9.35,-9.34,-9.42,-10.14,1.28,1.28,1.27
28.33,10.59,9.32,10.59,9.33,-9.32,-9.40,-10.31,1.27,1.27,1.27
28.62,10.57,9.30,10.57,9.30,-9.30,-9.38,-10.48,1.27,1.27,1.27
28.90,10.54,9.28,10.54,9.28,-9.28,-9.36,-10.64,1.26,1.26,1.26
29.19,10.51,9.25,10.51,9.25,-9.26,-9.34,-10.79,1.25,1.25,1.26
29.48,10.49,9.23,10.49,9.23,-9.24,-9.32,-10.92,1.25,1.25,1.26
29.78,10.47,9.21,10.47,9.22,-9.22,-9.29,-11.04,1.25,1.25,1.26
30.08,10.46,9.20,10.46,9.20,-9.20,-9.27,-11.14,1.26,1.26,1.26
30.38,10.44,9.19,10.44,9.19,-9.18,-9.25,-11.22,1.26,1.26,1.25
30.68,10.41,9.16,10.41,9.16,-9.15,-9.22,-11.28,1.26,1.26,1.25
30.99,10.38,9.13,10.38,9.13,-9.12,-9.19,-11.33,1.26,1.26,1.25
31.30,10.34,9.09,10.34,9.10,-9.09,-9.17,-11.35,1.25,1.25,1.25
31.61,10.30,9.06,10.30,9.06,-9.05,-9.14,-11.36,1.25,1.25,1.24
31.93,10.26,9.02,10.26,9.02,-9.02,-9.11,-11.34,1.24,1.24,1.24
32.24,10.21,8.97,10.21,8.98,-8.98,-9.08,-11.31,1.23,1.23,1.24
32.57,10.17,8.94,10.17,8.94,-8.95,-9.05,-11.26,1.22,1.22,1.23
32.89,10.14,8.91,10.13,8.90,-8.92,-9.02,-11.19,1.22,1.22,1.23
33.22,10.10,8.87,10.11,8.88,-8.89,-8.99,-11.11,1.21,1.21,1.23
33.55,10.08,8.86,10.09,8.86,-8.87,-8.96,-11.01,1.21,1.22,1.22
33.89,10.07,8.85,10.07,8.85,-8.85,-8.93,-10.90,1.22,1.22,1.22
34.23,10.06,8.84,10.05,8.84,-8.83,-8.90,-10.78,1.23,1.23,1.22
34.57,10.03,8.82,10.03,8.82,-8.80,-8.86,-10.65,1.23,1.23,1.21
34.92,10.00,8.79,10.00,8.79,-8.78,-8.83,-10.51,1.22,1.22,1.21
35.27,9.96,8.75,9.96,8.76,-8.75,-8.80,-10.37,1.21,1.21,1.21
35.62,9.93,8.73,9.93,8.73,-8.73,-8.76,-10.23,1.20,1.20,1.20
35.97,9.89,8.69,9.89,8.69,-8.70,-8.73,-10.08,1.19,1.19,1.20
36.33,9.86,8.66,9.86,8.66,-8.67,-8.69,-9.93,1.19,1.19,1.20
36.70,9.83,8.63,9.83,8.63,-8.65,-8.66,-9.78,1.18,1.19,1.20
37.06,9.81,8.61,9.81,8.62,-8.62,-8.62,-9.63,1.19,1.19,1.20
37.43,9.79,8.60,9.79,8.60,-8.60,-8.58,-9.48,1.19,1.19,1.19
37.81,9.78,8.59,9.78,8.59,-8.58,-8.55,-9.33,1.20,1.20,1.19
38.19,9.75,8.56,9.75,8.57,-8.55,-8.51,-9.18,1.20,1.20,1.19
38.57,9.72,8.54,9.72,8.54,-8.53,-8.47,-9.04,1.19,1.19,1.18
38.95,9.68,8.50,9.68,8.50,-8.50,-8.43,-8.90,1.18,1.18,1.18
39.34,9.63,8.46,9.64,8.47,-8.47,-8.39,-8.77,1.16,1.17,1.17
39.74,9.60,8.43,9.60,8.43,-8.44,-8.36,-8.64,1.16,1.16,1.17
40.14,9.56,8.40,9.56,8.40,-8.41,-8.32,-8.51,1.15,1.15,1.16
40.54,9.53,8.37,9.53,8.37,-8.37,-8.28,-8.39,1.16,1.16,1.16
40.94,9.50,8.34,9.50,8.34,-8.34,-8.24,-8.28,1.16,1.16,1.16
41.35,9.47,8.31,9.47,8.31,-8.30,-8.20,-8.17,1.17,1.16,1.16
41.76,9.43,8.27,9.43,8.27,-8.26,-8.16,-8.06,1.17,1.17,1.16
42.18,9.39,8.23,9.39,8.23,-8.22,-8.12,-7.96,1.17,1.17,1.16
42.60,9.35,8.19,9.35,8.18,-8.18,-8.09,-7.87,1.17,1.16,1.16
43.03,9.30,8.13,9.30,8.13,-8.14,-8.05,-7.78,1.16,1.16,1.17
43.46,9.25,8.08,9.25,8.09,-8.09,-8.01,-7.70,1.16,1.16,1.17
43.90,9.21,8.04,9.21,8.04,-8.04,-7.97,-7.62,1.17,1.17,1.17
44.33,9.17,8.00,9.17,8.00,-8.00,-7.93,-7.55,1.17,1.17,1.17
44.78,9.13,7.96,9.13,7.96,-7.96,-7.89,-7.48,1.18,1.17,1.17
45.23,9.08,7.91,9.08,7.91,-7.91,-7.85,-7.42,1.17,1.17,1.17
45.68,9.04,7.87,9.04,7.87,-7.88,-7.81,-7.36,1.16,1.17,1.17
46.13,9.00,7.83,9.00,7.83,-7.84,-7.77,-7.31,1.16,1.16,1.17
46.60,8.97,7.80,8.97,7.80,-7.80,-7.73,-7.27,1.17,1.17,1.17
47.06,8.93,7.76,8.93,7.77,-7.77,-7.69,-7.23,1.17,1.17,1.17
47.53,8.90,7.74,8.90,7.74,-7.73,-7.65,-7.19,1.17,1.17,1.16
48.01,8.86,7.70,8.86,7.70,-7.69,-7.61,-7.16,1.17,1.17,1.16
48.49,8.81,7.65,8.81,7.66,-7.65,-7.57,-7.13,1.16,1.16,1.16
48.97,8.77,7.61,8.77,7.61,-7.62,-7.53,-7.11,1.15,1.15,1.16
49.46,8.73,7.57,8.73,7.57,-7.58,-7.49,-7.09,1.15,1.15,1.16
49.96,8.69,7.53,8.69,7.53,-7.53,-7.46,-7.08,1.16,1.16,1.16
50.46,8.65,7.49,8.65,7.49,-7.49,-7.42,-7.07,1.17,1.17,1.16
50.96,8.61,7.45,8.61,7.45,-7.44,-7.38,-7.06,1.17,1.17,1.16
51.47,8.56,7.39,8.56,7.40,-7.39,-7.34,-7.06,1.17,1.17,1.17
51.99,8.51,7.34,8.51,7.34,-7.34,-7.30,-7.05,1.17,1.17,1.17
52.51,8.46,7.29,8.46,7.29,-7.30,-7.26,-7.05,1.16,1.16,1.17
53.03,8.41,7.24,8.41,7.24,-7.25,-7.22,-7.06,1.16,1.16,1.17
53.56,8.36,7.19,8.37,7.20,-7.20,-7.18,-7.06,1.16,1.16,1.17
54.10,8.33,7.15,8.33,7.15,-7.16,-7.14,-7.06,1.18,1.18,1.18
54.64,8.30,7.12,8.29,7.12,-7.11,-7.10,-7.07,1.20,1.19,1.18
55.18,8.25,7.07,8.25,7.07,-7.06,-7.05,-7.07,1.19,1.20,1.18
55.74,8.20,7.02,8.20,7.02,-7.01,-7.01,-7.07,1.19,1.19,1.18
56.29,8.14,6.95,8.14,6.95,-6.96,-6.97,-7.07,1.18,1.18,1.19
56.86,8.08,6.89,8.08,6.89,-6.90,-6.93,-7.07,1.18,1.18,1.19
57.42,8.03,6.84,8.03,6.84,-6.85,-6.89,-7.07,1.18,1.18,1.19
58.00,7.99,6.79,7.99,6.80,-6.80,-6.85,-7.06,1.19,1.19,1.20
58.58,7.95,6.75,7.95,6.75,-6.75,-6.80,-7.06,1.20,1.20,1.20
59.16,7.91,6.71,7.91,6.70,-6.70,-6.76,-7.04,1.21,1.21,1.20
59.76,7.86,6.65,7.86,6.65,-6.65,-6.72,-7.02,1.21,1.21,1.21
60.35,7.81,6.60,7.81,6.60,-6.61,-6.67,-7.00,1.20,1.20,1.21
60.96,7.76,6.55,7.76,6.55,-6.56,-6.63,-6.98,1.20,1.20,1.21
61.57,7.72,6.51,7.72,6.51,-6.52,-6.59,-6.94,1.20,1.20,1.21
62.18,7.68,6.47,7.68,6.47,-6.47,-6.54,-6.90,1.21,1.21,1.21
62.80,7.65,6.44,7.65,6.44,-6.43,-6.49,-6.86,1.23,1.22,1.21
63.43,7.60,6.39,7.60,6.39,-6.38,-6.45,-6.81,1.22,1.22,1.21
64.07,7.55,6.34,7.55,6.34,-6.34,-6.40,-6.76,1.22,1.21,1.21
64.71,7.49,6.28,7.49,6.28,-6.29,-6.36,-6.70,1.20,1.20,1.21
65.35,7.44,6.23,7.44,6.23,-6.25,-6.31,-6.63,1.20,1.20,1.21
66.01,7.39,6.18,7.40,6.19,-6.20,-6.26,-6.56,1.19,1.20,1.21
66.67,7.36,6.15,7.36,6.15,-6.15,-6.21,-6.49,1.21,1.21,1.21
67.33,7.32,6.11,7.32,6.11,-6.10,-6.16,-6.41,1.22,1.22,1.21
68.01,7.27,6.06,7.27,6.06,-6.05,-6.11,-6.32,1.23,1.22,1.21
68.69,7.21,6.00,7.21,6.00,-5.99,-6.06,-6.24,1.22,1.22,1.21
69.37,7.15,5.94,7.15,5.94,-5.94,-6.01,-6.15,1.21,1.21,1.21
70.07,7.09,5.88,7.09,5.88,-5.89,-5.96,-6.05,1.20,1.20,1.21
70.77,7.04,5.83,7.04,5.83,-5.84,-5.91,-5.96,1.20,1.20,1.21
71.48,7.00,5.78,7.00,5.78,-5.79,-5.85,-5.86,1.21,1.21,1.22
72.19,6.96,5.74,6.96,5.74,-5.74,-5.80,-5.76,1.22,1.22,1.22
72.91,6.92,5.70,6.92,5.70,-5.69,-5.75,-5.67,1.23,1.23,1.22
73.64,6.87,5.65,6.87,5.65,-5.65,-5.69,-5.57,1.23,1.23,1.22
74.38,6.82,5.59,6.82,5.60,-5.60,-5.64,-5.47,1.22,1.22,1.23
75.12,6.78,5.55,6.78,5.55,-5.55,-5.58,-5.37,1.23,1.23,1.23
75.87,6.74,5.50,6.74,5.51,-5.51,-5.52,-5.27,1.23,1.24,1.24
76.63,6.70,5.46,6.70,5.46,-5.46,-5.47,-5.18,1.25,1.25,1.24
77.40,6.66,5.42,6.66,5.41,-5.40,-5.41,-5.08,1.26,1.25,1.24
78.17,6.60,5.35,6.60,5.36,-5.35,-5.35,-4.99,1.25,1.25,1.25
78.95,6.55,5.30,6.55,5.30,-5.30,-5.29,-4.90,1.25,1.25,1.25
79.74,6.49,5.24,6.49,5.24,-5.25,-5.24,-4.81,1.24,1.24,1.25
80.54,6.44,5.18,6.44,5.19,-5.19,-5.18,-4.72,1.25,1.25,1.26
81.35,6.39,5.13,6.39,5.13,-5.14,-5.12,-4.64,1.25,1.26,1.26
82.16,6.35,5.09,6.34,5.09,-5.08,-5.06,-4.56,1.27,1.27,1.26
82.98,6.29,5.03,6.29,5.03,-5.02,-5.00,-4.48,1.27,1.27,1.26
83.81,6.23,4.97,6.23,4.97,-4.96,-4.94,-4.40,1.27,1.27,1.26
84.65,6.17,4.90,6.17,4.90,-4.91,-4.88,-4.33,1.26,1.26,1.27
85.50,6.11,4.84,6.11,4.85,-4.85,-4.82,-4.26,1.26,1.26,1.27
86.35,6.06,4.79,6.06,4.79,-4.79,-4.76,-4.19,1.27,1.26,1.27
87.22,6.00,4.73,6.00,4.73,-4.73,-4.70,-4.12,1.27,1.26,1.27
88.09,5.94,4.67,5.95,4.68,-4.68,-4.64,-4.06,1.26,1.27,1.27
88.97,5.89,4.62,5.89,4.62,-4.62,-4.58,-4.00,1.27,1.27,1.27
89.86,5.84,4.57,5.84,4.57,-4.56,-4.52,-3.95,1.28,1.28,1.27
90.76,5.78,4.51,5.78,4.51,-4.51,-4.45,-3.90,1.28,1.27,1.27
91.66,5.72,4.45,5.72,4.45,-4.45,-4.39,-3.85,1.27,1.27,1.27
92.58,5.65,4.38,5.65,4.38,-4.39,-4.33,-3.80,1.26,1.26,1.27
93.51,5.59,4.32,5.59,4.33,-4.33,-4.27,-3.76,1.26,1.26,1.27
94.44,5.54,4.27,5.54,4.27,-4.27,-4.21,-3.71,1.27,1.27,1.27
95.39,5.49,4.22,5.49,4.22,-4.21,-4.15,-3.67,1.28,1.28,1.27
96.34,5.43,4.16,5.43,4.16,-4.15,-4.09,-3.64,1.28,1.28,1.27
97.30,5.36,4.08,5.36,4.09,-4.09,-4.03,-3.60,1.27,1.28,1.28
98.28,5.30,4.02,5.30,4.02,-4.03,-3.97,-3.57,1.27,1.27,1.28
99.26,5.24,3.96,5.24,3.96,-3.97,-3.91,-3.54,1.27,1.27,1.28
100.25,5.19,3.91,5.19,3.91,-3.91,-3.85,-3.52,1.28,1.28,1.28
101.25,5.13,3.85,5.13,3.85,-3.85,-3.80,-3.49,1.28,1.28,1.28
102.27,5.07,3.79,5.07,3.79,-3.79,-3.74,-3.47,1.28,1.28,1.28
103.29,5.00,3.72,5.01,3.73,-3.73,-3.68,-3.44,1.27,1.28,1.28
104.32,4.95,3.66,4.95,3.67,-3.67,-3.62,-3.42,1.28,1.28,1.29
105.37,4.90,3.61,4.90,3.61,-3.61,-3.56,-3.40,1.29,1.29,1.29
106.42,4.84,3.55,4.84,3.55,-3.54,-3.51,-3.38,1.30,1.30,1.29
107.48,4.78,3.48,4.78,3.48,-3.48,-3.45,-3.36,1.30,1.30,1.30
108.56,4.72,3.42,4.72,3.42,-3.42,-3.39,-3.35,1.30,1.30,1.30
109.64,4.65,3.35,4.66,3.36,-3.36,-3.34,-3.33,1.29,1.30,1.30
110.74,4.60,3.30,4.60,3.30,-3.30,-3.28,-3.31,1.30,1.30,1.30
111.85,4.54,3.24,4.54,3.24,-3.24,-3.23,-3.29,1.30,1.30,1.30
112.97,4.48,3.17,4.48,3.18,-3.17,-3.17,-3.27,1.31,1.31,1.31
114.10,4.42,3.11,4.42,3.11,-3.11,-3.12,-3.25,1.31,1.31,1.31
115.24,4.36,3.05,4.36,3.05,-3.05,-3.07,-3.23,1.31,1.31,1.31
116.39,4.30,2.99,4.30,2.99,-2.99,-3.01,-3.21,1.31,1.32,1.31
117.55,4.25,2.93,4.25,2.93,-2.93,-2.96,-3.19,1.32,1.32,1.32
118.73,4.19,2.87,4.19,2.87,-2.87,-2.91,-3.16,1.32,1.32,1.32
119.92,4.12,2.80,4.13,2.81,-2.81,-2.86,-3.13,1.31,1.31,1.32
121.12,4.07,2.75,4.07,2.75,-2.76,-2.80,-3.10,1.31,1.32,1.32
122.33,4.03,2.70,4.03,2.70,-2.70,-2.75,-3.07,1.33,1.33,1.33
123.55,3.99,2.66,3.99,2.66,-2.65,-2.70,-3.04,1.34,1.34,1.33
124.79,3.95,2.61,3.95,2.61,-2.61,-2.65,-3.00,1.34,1.34,1.34
126.03,3.90,2.56,3.90,2.56,-2.56,-2.60,-2.96,1.34,1.34,1.34
127.29,3.85,2.50,3.85,2.51,-2.52,-2.55,-2.92,1.34,1.34,1.35
128.57,3.81,2.46,3.81,2.47,-2.47,-2.50,-2.88,1.34,1.34,1.35
129.85,3.78,2.43,3.78,2.43,-2.42,-2.45,-2.83,1.36,1.35,1.35
131.15,3.74,2.39,3.74,2.39,-2.37,-2.40,-2.79,1.37,1.36,1.35
132.46,3.69,2.33,3.69,2.34,-2.33,-2.36,-2.73,1.37,1.37,1.36
133.79,3.64,2.28,3.64,2.28,-2.28,-2.31,-2.68,1.36,1.36,1.36
135.12,3.58,2.22,3.58,2.22,-2.23,-2.26,-2.63,1.35,1.35,1.36
136.48,3.53,2.17,3.53,2.17,-2.18,-2.21,-2.57,1.35,1.35,1.36
137.84,3.48,2.12,3.48,2.13,-2.13,-2.16,-2.51,1.35,1.35,1.36
139.22,3.44,2.08,3.45,2.09,-2.08,-2.12,-2.45,1.36,1.36,1.36
140.61,3.41,2.05,3.40,2.04,-2.03,-2.07,-2.39,1.38,1.38,1.36
142.02,3.36,1.99,3.36,1.99,-1.98,-2.02,-2.33,1.38,1.38,1.37
143.44,3.30,1.93,3.30,1.93,-1.93,-1.98,-2.26,1.37,1.38,1.37
144.87,3.24,1.87,3.24,1.87,-1.88,-1.93,-2.20,1.37,1.37,1.37
146.32,3.19,1.81,3.19,1.81,-1.82,-1.88,-2.13,1.37,1.36,1.38
147.78,3.14,1.76,3.14,1.76,-1.77,-1.84,-2.07,1.37,1.37,1.38
149.26,3.10,1.72,3.10,1.72,-1.73,-1.79,-2.00,1.38,1.38,1.38
150.75,3.07,1.68,3.07,1.68,-1.68,-1.74,-1.93,1.39,1.39,1.39
152.26,3.03,1.64,3.03,1.64,-1.64,-1.70,-1.86,1.40,1.39,1.39
153.78,2.99,1.60,2.99,1.60,-1.59,-1.65,-1.80,1.40,1.40,1.39
155.32,2.95,1.55,2.95,1.55,-1.55,-1.61,-1.73,1.40,1.40,1.40
156.88,2.91,1.51,2.91,1.51,-1.51,-1.56,-1.66,1.40,1.40,1.40
158.44,2.87,1.47,2.87,1.47,-1.47,-1.51,-1.60,1.40,1.40,1.40
160.03,2.83,1.43,2.83,1.43,-1.43,-1.47,-1.53,1.40,1.40,1.40
161.63,2.79,1.39,2.79,1.39,-1.39,-1.42,-1.47,1.41,1.41,1.40
163.24,2.75,1.34,2.75,1.35,-1.34,-1.38,-1.40,1.41,1.41,1.41
164.88,2.71,1.30,2.71,1.30,-1.29,-1.33,-1.34,1.42,1.41,1.41
166.53,2.66,1.25,2.66,1.25,-1.25,-1.28,-1.27,1.41,1.41,1.41
168.19,2.61,1.20,2.61,1.20,-1.20,-1.24,-1.21,1.41,1.41,1.41
169.87,2.56,1.14,2.56,1.15,-1.16,-1.19,-1.15,1.40,1.41,1.42
171.57,2.52,1.10,2.52,1.11,-1.11,-1.14,-1.08,1.41,1.41,1.42
173.29,2.49,1.07,2.49,1.07,-1.07,-1.10,-1.02,1.43,1.42,1.42
175.02,2.45,1.03,2.45,1.03,-1.02,-1.05,-0.96,1.43,1.43,1.42
176.77,2.41,0.98,2.41,0.98,-0.97,-1.00,-0.90,1.44,1.44,1.43
178.54,2.36,0.93,2.36,0.93,-0.92,-0.96,-0.84,1.44,1.44,1.43
180.32,2.30,0.87,2.30,0.87,-0.88,-0.91,-0.78,1.42,1.43,1.43
182.13,2.25,0.82,2.25,0.82,-0.83,-0.86,-0.72,1.42,1.42,1.43
183.95,2.20,0.77,2.20,0.77,-0.78,-0.81,-0.67,1.42,1.42,1.43
185.79,2.16,0.73,2.16,0.73,-0.74,-0.77,-0.61,1.42,1.42,1.43
187.65,2.12,0.69,2.12,0.69,-0.69,-0.72,-0.55,1.43,1.43,1.43
189.52,2.09,0.66,2.09,0.66,-0.65,-0.67,-0.50,1.44,1.44,1.43
191.42,2.05,0.62,2.05,0.62,-0.61,-0.62,-0.44,1.44,1.44,1.43
193.33,2.00,0.57,2.00,0.57,-0.57,-0.58,-0.38,1.43,1.43,1.43
195.27,1.95,0.52,1.95,0.53,-0.53,-0.53,-0.33,1.42,1.42,1.43
197.22,1.91,0.48,1.91,0.48,-0.49,-0.48,-0.28,1.42,1.42,1.43
199.19,1.87,0.44,1.87,0.44,-0.44,-0.43,-0.22,1.43,1.43,1.43
201.18,1.84,0.40,1.84,0.40,-0.40,-0.38,-0.17,1.45,1.44,1.44
203.19,1.80,0.36,1.80,0.36,-0.35,-0.33,-0.12,1.45,1.45,1.44
205.23,1.75,0.30,1.75,0.31,-0.30,-0.29,-0.07,1.45,1.45,1.45
207.28,1.70,0.25,1.70,0.25,-0.25,-0.24,-0.01,1.45,1.45,1.45
209.35,1.65,0.20,1.65,0.20,-0.21,-0.19,0.04,1.45,1.44,1.45
211.44,1.60,0.14,1.60,0.15,-0.16,-0.14,0.09,1.44,1.45,1.46
213.56,1.56,0.10,1.56,0.10,-0.11,-0.09,0.13,1.45,1.45,1.46
215.69,1.52,0.06,1.52,0.06,-0.06,-0.04,0.18,1.46,1.46,1.46
217.85,1.48,0.02,1.48,0.02,-0.01,0.01,0.23,1.47,1.47,1.46
220.03,1.43,-0.04,1.43,-0.03,0.05,0.05,0.28,1.48,1.48,1.47
222.23,1.38,-0.09,1.38,-0.09,0.10,0.10,0.32,1.48,1.48,1.47
224.45,1.32,-0.15,1.32,-0.15,0.15,0.15,0.37,1.47,1.47,1.47
226.70,1.26,-0.21,1.26,-0.21,0.20,0.20,0.41,1.46,1.46,1.47
228.96,1.21,-0.27,1.21,-0.27,0.25,0.25,0.45,1.46,1.46,1.48
231.25,1.16,-0.32,1.17,-0.31,0.30,0.30,0.49,1.46,1.47,1.48
233.57,1.13,-0.35,1.13,-0.35,0.35,0.34,0.53,1.48,1.48,1.48
235.90,1.10,-0.39,1.09,-0.39,0.40,0.39,0.57,1.50,1.49,1.49
238.26,1.05,-0.44,1.05,-0.44,0.45,0.44,0.61,1.50,1.50,1.49
240.64,1.01,-0.49,1.01,-0.49,0.49,0.49,0.65,1.50,1.50,1.50
243.05,0.97,-0.54,0.97,-0.54,0.54,0.54,0.68,1.51,1.51,1.51
245.48,0.93,-0.59,0.93,-0.59,0.59,0.58,0.71,1.52,1.52,1.52
247.93,0.89,-0.63,0.89,-0.63,0.63,0.63,0.75,1.52,1.52,1.52
250.41,0.85,-0.68,0.85,-0.68,0.68,0.68,0.78,1.53,1.53,1.53
252.92,0.81,-0.73,0.81,-0.73,0.73,0.72,0.81,1.54,1.54,1.54
255.45,0.77,-0.78,0.77,-0.77,0.77,0.77,0.84,1.54,1.54,1.55
258.00,0.74,-0.81,0.74,-0.82,0.81,0.82,0.86,1.55,1.55,1.55
260.58,0.70,-0.86,0.70,-0.85,0.85,0.86,0.89,1.55,1.55,1.56
263.19,0.67,-0.89,0.67,-0.89,0.89,0.91,0.92,1.56,1.56,1.56
265.82,0.64,-0.92,0.64,-0.93,0.93,0.95,0.94,1.57,1.57,1.56
268.48,0.60,-0.97,0.60,-0.96,0.97,1.00,0.96,1.57,1.57,1.57
271.16,0.56,-1.01,0.56,-1.01,1.01,1.04,0.99,1.57,1.57,1.57
273.87,0.52,-1.05,0.52,-1.05,1.05,1.08,1.01,1.57,1.57,1.57
276.61,0.48,-1.10,0.48,-1.10,1.10,1.13,1.03,1.58,1.58,1.58
279.38,0.44,-1.14,0.44,-1.14,1.14,1.17,1.05,1.58,1.58,1.58
282.17,0.40,-1.19,0.40,-1.19,1.18,1.21,1.07,1.58,1.58,1.59
284.99,0.36,-1.23,0.36,-1.23,1.22,1.26,1.09,1.58,1.58,1.59
287.84,0.32,-1.27,0.32,-1.27,1.27,1.30,1.11,1.59,1.59,1.59
290.72,0.29,-1.30,0.29,-1.30,1.31,1.34,1.13,1.60,1.60,1.59
293.63,0.25,-1.34,0.25,-1.34,1.35,1.38,1.16,1.61,1.60,1.59
296.57,0.20,-1.39,0.20,-1.39,1.40,1.42,1.18,1.60,1.60,1.59
299.53,0.15,-1.45,0.15,-1.44,1.45,1.46,1.20,1.60,1.60,1.60
302.53,0.11,-1.49,0.10,-1.49,1.49,1.50,1.22,1.60,1.59,1.60
305.55,0.06,-1.54,0.06,-1.54,1.53,1.54,1.24,1.59,1.59,1.60
308.61,0.02,-1.59,0.03,-1.58,1.57,1.58,1.27,1.59,1.59,1.61
311.69,0.00,-1.61,-0.00,-1.61,1.60,1.62,1.29,1.60,1.60,1.61
314.81,-0.02,-1.64,-0.02,-1.63,1.63,1.66,1.31,1.61,1.62,1.62
317.96,-0.03,-1.65,-0.03,-1.65,1.66,1.69,1.34,1.63,1.63,1.62
321.14,-0.05,-1.68,-0.05,-1.68,1.69,1.73,1.37,1.64,1.64,1.63
324.35,-0.08,-1.71,-0.08,-1.71,1.72,1.77,1.39,1.64,1.64,1.63
327.59,-0.11,-1.74,-0.11,-1.75,1.75,1.80,1.42,1.64,1.64,1.63
330.87,-0.15,-1.79,-0.15,-1.78,1.78,1.84,1.45,1.63,1.64,1.64
334.18,-0.18,-1.83,-0.18,-1.82,1.82,1.87,1.48,1.64,1.64,1.65
337.52,-0.20,-1.85,-0.20,-1.86,1.85,1.91,1.52,1.65,1.64,1.65
340.90,-0.23,-1.89,-0.23,-1.88,1.88,1.94,1.55,1.65,1.65,1.66
344.30,-0.25,-1.91,-0.25,-1.91,1.91,1.97,1.58,1.66,1.66,1.66
347.75,-0.28,-1.94,-0.28,-1.94,1.94,2.00,1.62,1.66,1.66,1.66
351.23,-0.30,-1.96,-0.30,-1.96,1.96,2.04,1.66,1.66,1.66,1.66
354.74,-0.32,-1.99,-0.32,-1.99,1.99,2.07,1.70,1.67,1.67,1.67
358.28,-0.35,-2.02,-0.35,-2.01,2.02,2.10,1.74,1.67,1.67,1.67
361.87,-0.37,-2.04,-0.37,-2.04,2.05,2.13,1.78,1.68,1.68,1.67
365.49,-0.40,-2.07,-0.40,-2.07,2.08,2.16,1.82,1.68,1.68,1.67
369.14,-0.43,-2.10,-0.43,-2.10,2.11,2.19,1.87,1.68,1.67,1.67
372.83,-0.47,-2.14,-0.47,-2.14,2.14,2.21,1.91,1.67,1.67,1.67
376.56,-0.50,-2.18,-0.50,-2.18,2.17,2.24,1.96,1.67,1.67,1.68
380.33,-0.53,-2.21,-0.53,-2.21,2.20,2.27,2.01,1.67,1.67,1.68
384.13,-0.55,-2.23,-0.55,-2.23,2.23,2.29,2.06,1.68,1.68,1.68
387.97,-0.57,-2.25,-0.57,-2.25,2.26,2.32,2.11,1.69,1.69,1.68
391.85,-0.59,-2.28,-0.59,-2.28,2.29,2.35,2.16,1.70,1.70,1.69
395.77,-0.62,-2.31,-0.62,-2.31,2.32,2.37,2.21,1.70,1.70,1.69
399.73,-0.65,-2.35,-0.65,-2.35,2.35,2.39,2.27,1.70,1.70,1.70
403.72,-0.68,-2.38,-0.68,-2.38,2.38,2.42,2.32,1.70,1.70,1.70
407.76,-0.71,-2.42,-0.71,-2.41,2.41,2.44,2.38,1.70,1.70,1.71
411.84,-0.73,-2.44,-0.73,-2.44,2.44,2.46,2.43,1.71,1.70,1.71
415.96,-0.75,-2.47,-0.75,-2.47,2.46,2.48,2.48,1.71,1.70,1.72
420.12,-0.77,-2.49,-0.76,-2.48,2.47,2.50,2.54,1.70,1.71,1.72
424.32,-0.77,-2.49,-0.77,-2.49,2.48,2.52,2.59,1.71,1.71,1.72
428.56,-0.76,-2.49,-0.76,-2.49,2.49,2.54,2.65,1.73,1.72,1.73
432.85,-0.76,-2.49,-0.76,-2.49,2.49,2.56,2.70,1.73,1.73,1.73
437.18,-0.76,-2.49,-0.76,-2.49,2.50,2.58,2.75,1.74,1.74,1.73
441.55,-0.77,-2.50,-0.77,-2.50,2.51,2.60,2.80,1.74,1.74,1.73
445.96,-0.78,-2.51,-0.78,-2.51,2.52,2.61,2.85,1.74,1.74,1.73
450.42,-0.80,-2.53,-0.80,-2.53,2.53,2.63,2.90,1.73,1.73,1.73
454.93,-0.82,-2.55,-0.82,-2.55,2.55,2.65,2.94,1.73,1.73,1.73
459.48,-0.85,-2.58,-0.85,-2.58,2.58,2.66,2.98,1.73,1.73,1.73
464.07,-0.88,-2.61,-0.88,-2.61,2.61,2.68,3.02,1.73,1.73,1.73
468.71,-0.91,-2.64,-0.91,-2.64,2.64,2.69,3.05,1.73,1.73,1.73
473.40,-0.94,-2.67,-0.94,-2.68,2.68,2.70,3.08,1.74,1.73,1.73
478.13,-0.98,-2.72,-0.98,-2.71,2.71,2.72,3.11,1.73,1.73,1.74
482.91,-1.01,-2.75,-1.01,-2.74,2.74,2.73,3.14,1.73,1.74,1.74
487.74,-1.03,-2.77,-1.03,-2.77,2.77,2.74,3.16,1.74,1.74,1.74
492.62,-1.06,-2.80,-1.06,-2.80,2.80,2.75,3.17,1.74,1.74,1.74
497.55,-1.08,-2.83,-1.08,-2.83,2.82,2.76,3.18,1.74,1.74,1.75
502.52,-1.10,-2.85,-1.10,-2.85,2.84,2.77,3.19,1.74,1.74,1.75
507.55,-1.11,-2.86,-1.11,-2.86,2.85,2.78,3.19,1.74,1.74,1.75
512.62,-1.12,-2.87,-1.12,-2.87,2.86,2.79,3.19,1.74,1.75,1.75
517.75,-1.11,-2.87,-1.11,-2.87,2.87,2.79,3.19,1.76,1.75,1.76
522.93,-1.11,-2.87,-1.11,-2.86,2.87,2.80,3.18,1.76,1.76,1.76
528.16,-1.10,-2.86,-1.10,-2.86,2.87,2.81,3.17,1.77,1.77,1.76
533.44,-1.09,-2.85,-1.09,-2.86,2.86,2.81,3.15,1.77,1.77,1.76
