frequency,raw,error,smoothed,error_smoothed,equalization,parametric_eq,fixed_band_eq,equalized_raw,equalized_smoothed,target
20.00,4.94,-3.81,4.94,-3.81,3.81,3.53,1.12,8.75,8.75,8.75
20.20,4.93,-3.79,4.93,-3.80,3.80,3.51,1.15,8.72,8.72,8.72
20.40,4.93,-3.77,4.92,-3.78,3.78,3.48,1.19,8.70,8.70,8.70
20.61,4.93,-3.75,4.92,-3.75,3.76,3.46,1.22,8.68,8.68,8.68
20.81,4.93,-3.73,4.93,-3.73,3.73,3.43,1.26,8.66,8.66,8.66
21.02,4.94,-3.70,4.94,-3.70,3.70,3.41,1.30,8.64,8.64,8.64
21.23,4.95,-3.67,4.95,-3.67,3.67,3.38,1.34,8.62,8.62,8.62
21.44,4.97,-3.63,4.96,-3.63,3.64,3.36,1.38,8.60,8.60,8.60
21.66,4.99,-3.59,4.98,-3.60,3.60,3.33,1.42,8.58,8.58,8.58
21.87,5.01,-3.56,5.01,-3.56,3.56,3.31,1.47,8.56,8.57,8.57
22.09,5.04,-3.51,5.03,-3.51,3.51,3.28,1.51,8.55,8.55,8.55
22.31,5.07,-3.47,5.07,-3.47,3.46,3.25,1.56,8.53,8.53,8.54
22.54,5.11,-3.42,5.11,-3.42,3.41,3.23,1.60,8.52,8.52,8.53
22.76,5.16,-3.36,5.15,-3.36,3.36,3.20,1.65,8.51,8.51,8.52
22.99,5.21,-3.30,5.21,-3.30,3.30,3.17,1.70,8.51,8.51,8.51
23.22,5.26,-3.24,5.26,-3.24,3.24,3.14,1.75,8.50,8.50,8.49
23.45,5.31,-3.18,5.30,-3.18,3.19,3.12,1.80,8.50,8.49,8.48
23.69,5.35,-3.13,5.35,-3.13,3.14,3.09,1.85,8.48,8.48,8.47
23.92,5.39,-3.09,5.39,-3.08,3.09,3.06,1.91,8.47,8.47,8.47
24.16,5.43,-3.04,5.43,-3.04,3.04,3.03,1.96,8.46,8.46,8.46
24.40,5.47,-2.99,5.47,-2.99,2.99,3.00,2.02,8.45,8.46,8.46
24.65,5.52,-2.94,5.51,-2.94,2.94,2.97,2.07,8.46,8.45,8.45
24.89,5.55,-2.90,5.55,-2.90,2.89,2.94,2.13,8.44,8.44,8.45
25.14,5.59,-2.85,5.59,-2.85,2.85,2.92,2.19,8.43,8.43,8.44
25.39,5.63,-2.80,5.63,-2.80,2.80,2.89,2.24,8.43,8.43,8.43
25.65,5.68,-2.75,5.67,-2.75,2.75,2.86,2.30,8.43,8.43,8.43
25.91,5.72,-2.70,5.72,-2.70,2.71,2.83,2.36,8.42,8.42,8.42
26.16,5.76,-2.66,5.75,-2.66,2.67,2.80,2.41,8.42,8.42,8.42
26.43,5.79,-2.63,5.79,-2.62,2.63,2.77,2.47,8.41,8.41,8.41
26.69,5.82,-2.59,5.81,-2.59,2.59,2.74,2.52,8.41,8.41,8.40
26.96,5.84,-2.57,5.84,-2.56,2.56,2.71,2.58,8.40,8.40,8.40
27.23,5.86,-2.54,5.86,-2.54,2.54,2.68,2.63,8.39,8.39,8.39
27.50,5.88,-2.51,5.88,-2.51,2.51,2.65,2.68,8.39,8.39,8.39
27.77,5.90,-2.49,5.89,-2.49,2.50,2.62,2.73,8.39,8.39,8.39
28.05,5.91,-2.47,5.90,-2.48,2.48,2.59,2.78,8.39,8.39,8.38
28.33,5.91,-2.47,5.91,-2.47,2.47,2.55,2.82,8.38,8.38,8.38
28.62,5.92,-2.46,5.91,-2.46,2.46,2.52,2.86,8.38,8.37,8.38
28.90,5.92,-2.45,5.92,-2.45,2.45,2.49,2.90,8.37,8.37,8.36
29.19,5.92,-2.45,5.92,-2.45,2.44,2.46,2.93,8.36,8.36,8.36
29.48,5.93,-2.44,5.93,-2.44,2.43,2.43,2.96,8.35,8.35,8.36
29.78,5.94,-2.42,5.94,-2.42,2.41,2.40,2.98,8.34,8.35,8.36
30.08,5.97,-2.39,5.96,-2.39,2.39,2.37,3.00,8.35,8.35,8.36
30.38,5.99,-2.36,5.99,-2.36,2.36,2.34,3.02,8.35,8.35,8.35
30.68,6.02,-2.33,6.02,-2.33,2.34,2.31,3.03,8.35,8.35,8.34
30.99,6.05,-2.30,6.04,-2.30,2.31,2.28,3.03,8.35,8.35,8.34
31.30,6.07,-2.28,6.06,-2.27,2.27,2.24,3.03,8.34,8.34,8.34
31.61,6.09,-2.24,6.09,-2.24,2.24,2.21,3.03,8.33,8.33,8.33
31.93,6.12,-2.21,6.12,-2.21,2.20,2.18,3.02,8.32,8.32,8.33
32.24,6.16,-2.17,6.15,-2.17,2.16,2.15,3.01,8.32,8.31,8.32
32.57,6.19,-2.13,6.19,-2.13,2.12,2.12,2.99,8.31,8.31,8.31
32.89,6.23,-2.08,6.23,-2.08,2.08,2.09,2.96,8.31,8.31,8.31
33.22,6.27,-2.04,6.27,-2.04,2.04,2.06,2.93,8.31,8.31,8.31
33.55,6.31,-1.99,6.30,-2.00,2.00,2.02,2.90,8.31,8.31,8.30
33.89,6.34,-1.96,6.34,-1.96,1.97,1.99,2.86,8.30,8.30,8.29
34.23,6.37,-1.92,6.37,-1.92,1.93,1.96,2.82,8.30,8.30,8.29
34.57,6.39,-1.89,6.39,-1.90,1.90,1.93,2.78,8.29,8.28,8.28
34.92,6.41,-1.87,6.40,-1.87,1.87,1.90,2.73,8.27,8.27,8.27
35.27,6.42,-1.86,6.42,-1.85,1.84,1.87,2.69,8.25,8.26,8.27
35.62,6.45,-1.81,6.45,-1.81,1.80,1.83,2.63,8.25,8.25,8.26
35.97,6.49,-1.77,6.48,-1.77,1.77,1.80,2.58,8.25,8.25,8.26
36.33,6.53,-1.73,6.52,-1.73,1.73,1.77,2.53,8.25,8.25,8.25
36.70,6.56,-1.69,6.56,-1.69,1.69,1.74,2.47,8.24,8.25,8.25
37.06,6.60,-1.65,6.60,-1.64,1.64,1.71,2.41,8.24,8.24,8.24
37.43,6.64,-1.59,6.64,-1.60,1.60,1.68,2.35,8.24,8.24,8.23
37.81,6.68,-1.55,6.67,-1.55,1.56,1.65,2.29,8.24,8.24,8.23
38.19,6.71,-1.52,6.70,-1.52,1.52,1.61,2.23,8.23,8.22,8.22
38.57,6.73,-1.48,6.73,-1.48,1.48,1.58,2.18,8.21,8.21,8.21
38.95,6.75,-1.46,6.75,-1.45,1.45,1.55,2.12,8.19,8.20,8.20
39.34,6.78,-1.41,6.78,-1.42,1.41,1.52,2.06,8.18,8.18,8.19
39.74,6.81,-1.38,6.80,-1.38,1.37,1.49,2.00,8.18,8.18,8.18
40.14,6.83,-1.34,6.83,-1.34,1.34,1.46,1.94,8.17,8.17,8.17
40.54,6.86,-1.31,6.85,-1.31,1.31,1.43,1.88,8.17,8.16,8.16
40.94,6.88,-1.28,6.88,-1.28,1.29,1.39,1.83,8.16,8.16,8.16
41.35,6.90,-1.26,6.89,-1.26,1.27,1.36,1.77,8.16,8.16,8.15
41.76,6.91,-1.24,6.91,-1.24,1.25,1.33,1.72,8.16,8.16,8.15
42.18,6.91,-1.24,6.91,-1.23,1.25,1.30,1.66,8.16,8.16,8.14
42.60,6.91,-1.23,6.90,-1.24,1.25,1.27,1.61,8.15,8.15,8.14
43.03,6.89,-1.25,6.88,-1.25,1.25,1.24,1.56,8.13,8.13,8.14
43.46,6.87,-1.27,6.87,-1.26,1.25,1.21,1.51,8.12,8.12,8.13
43.90,6.86,-1.27,6.86,-1.26,1.25,1.18,1.46,8.10,8.11,8.12
44.33,6.87,-1.25,6.86,-1.25,1.24,1.15,1.41,8.11,8.11,8.12
44.78,6.88,-1.23,6.87,-1.24,1.23,1.11,1.37,8.11,8.11,8.11
45.23,6.89,-1.22,6.89,-1.21,1.21,1.08,1.32,8.10,8.10,8.10
45.68,6.91,-1.19,6.91,-1.19,1.19,1.05,1.28,8.09,8.09,8.09
46.13,6.93,-1.16,6.93,-1.16,1.15,1.02,1.23,8.08,8.08,8.09
46.60,6.96,-1.12,6.96,-1.12,1.12,0.99,1.19,8.07,8.07,8.08
47.06,6.99,-1.08,6.99,-1.08,1.08,0.96,1.15,8.06,8.06,8.07
47.53,7.02,-1.03,7.02,-1.03,1.04,0.93,1.11,8.05,8.05,8.05
48.01,7.05,-0.99,7.05,-0.99,0.99,0.90,1.07,8.04,8.04,8.04
48.49,7.08,-0.95,7.08,-0.95,0.95,0.87,1.04,8.03,8.03,8.03
48.97,7.11,-0.91,7.11,-0.91,0.91,0.84,1.00,8.02,8.02,8.02
49.46,7.14,-0.87,7.14,-0.87,0.87,0.80,0.96,8.01,8.01,8.01
49.96,7.17,-0.83,7.16,-0.83,0.83,0.77,0.93,8.00,8.00,7.99
50.46,7.19,-0.80,7.19,-0.80,0.80,0.74,0.89,7.99,7.99,7.98
50.96,7.21,-0.76,7.20,-0.77,0.77,0.71,0.86,7.98,7.98,7.97
51.47,7.22,-0.75,7.22,-0.75,0.75,0.68,0.83,7.97,7.97,7.97
51.99,7.23,-0.73,7.23,-0.73,0.73,0.65,0.80,7.96,7.96,7.95
52.51,7.24,-0.71,7.23,-0.71,0.72,0.62,0.76,7.95,7.95,7.94
53.03,7.23,-0.70,7.23,-0.70,0.70,0.59,0.73,7.93,7.93,7.93
53.56,7.22,-0.70,7.22,-0.70,0.69,0.56,0.70,7.91,7.91,7.91
54.10,7.22,-0.69,7.21,-0.69,0.69,0.53,0.67,7.90,7.90,7.91
54.64,7.21,-0.69,7.21,-0.68,0.68,0.49,0.64,7.88,7.88,7.89
55.18,7.21,-0.67,7.21,-0.67,0.67,0.46,0.61,7.87,7.87,7.88
55.74,7.21,-0.65,7.21,-0.66,0.66,0.43,0.59,7.86,7.86,7.86
56.29,7.21,-0.65,7.21,-0.64,0.64,0.40,0.56,7.85,7.85,7.85
56.86,7.21,-0.63,7.21,-0.63,0.63,0.37,0.53,7.83,7.83,7.83
57.42,7.21,-0.61,7.21,-0.61,0.61,0.34,0.50,7.82,7.82,7.82
58.00,7.21,-0.60,7.21,-0.60,0.60,0.31,0.47,7.81,7.81,7.81
58.58,7.21,-0.58,7.21,-0.58,0.59,0.28,0.44,7.79,7.79,7.79
59.16,7.21,-0.56,7.20,-0.57,0.57,0.25,0.42,7.78,7.78,7.77
59.76,7.20,-0.56,7.20,-0.55,0.56,0.21,0.39,7.75,7.76,7.76
60.35,7.20,-0.54,7.19,-0.54,0.54,0.18,0.36,7.74,7.73,7.73
60.96,7.19,-0.53,7.19,-0.53,0.52,0.15,0.33,7.71,7.71,7.71
61.57,7.19,-0.50,7.19,-0.50,0.50,0.12,0.30,7.68,7.68,7.69
62.18,7.20,-0.47,7.19,-0.47,0.47,0.09,0.27,7.66,7.66,7.67
62.80,7.21,-0.44,7.21,-0.43,0.43,0.06,0.24,7.64,7.64,7.64
63.43,7.23,-0.39,7.23,-0.39,0.39,0.02,0.21,7.61,7.61,7.62
64.07,7.25,-0.34,7.25,-0.34,0.34,-0.01,0.18,7.59,7.59,7.59
64.71,7.28,-0.29,7.28,-0.29,0.29,-0.04,0.15,7.56,7.56,7.56
65.35,7.31,-0.23,7.31,-0.23,0.23,-0.07,0.11,7.54,7.54,7.54
66.01,7.34,-0.17,7.34,-0.17,0.17,-0.10,0.08,7.51,7.51,7.51
66.67,7.37,-0.11,7.37,-0.11,0.11,-0.14,0.05,7.48,7.48,7.48
67.33,7.40,-0.05,7.40,-0.05,0.05,-0.17,0.02,7.45,7.45,7.45
68.01,7.43,0.01,7.43,0.01,-0.01,-0.20,-0.02,7.42,7.42,7.42
68.69,7.46,0.07,7.46,0.07,-0.07,-0.23,-0.05,7.39,7.39,7.39
69.37,7.49,0.13,7.48,0.13,-0.13,-0.27,-0.09,7.36,7.36,7.36
70.07,7.51,0.18,7.51,0.18,-0.18,-0.30,-0.12,7.32,7.33,7.32
70.77,7.53,0.24,7.53,0.24,-0.23,-0.33,-0.16,7.29,7.30,7.29
71.48,7.55,0.28,7.54,0.28,-0.28,-0.37,-0.20,7.27,7.27,7.26
72.19,7.56,0.33,7.55,0.33,-0.32,-0.40,-0.23,7.24,7.23,7.23
72.91,7.56,0.36,7.56,0.36,-0.36,-0.43,-0.27,7.20,7.20,7.19
73.64,7.56,0.40,7.55,0.40,-0.39,-0.47,-0.31,7.16,7.16,7.16
74.38,7.55,0.42,7.55,0.42,-0.42,-0.50,-0.35,7.12,7.12,7.13
75.12,7.54,0.45,7.54,0.45,-0.46,-0.53,-0.39,7.08,7.08,7.09
75.87,7.54,0.48,7.54,0.48,-0.49,-0.57,-0.43,7.05,7.05,7.06
76.63,7.54,0.52,7.54,0.52,-0.52,-0.60,-0.47,7.01,7.01,7.02
77.40,7.54,0.56,7.54,0.56,-0.56,-0.64,-0.51,6.98,6.98,6.98
78.17,7.54,0.59,7.54,0.60,-0.59,-0.67,-0.55,6.94,6.94,6.94
78.95,7.54,0.64,7.54,0.64,-0.63,-0.71,-0.60,6.90,6.90,6.90
79.74,7.54,0.68,7.54,0.68,-0.68,-0.74,-0.64,6.86,6.86,6.86
80.54,7.54,0.71,7.54,0.72,-0.72,-0.78,-0.69,6.82,6.82,6.82
81.35,7.54,0.76,7.54,0.76,-0.76,-0.81,-0.73,6.77,6.77,6.78
82.16,7.54,0.81,7.54,0.81,-0.81,-0.85,-0.78,6.73,6.73,6.73
82.98,7.54,0.85,7.54,0.85,-0.85,-0.89,-0.82,6.68,6.68,6.68
83.81,7.54,0.90,7.54,0.90,-0.90,-0.92,-0.87,6.64,6.64,6.63
84.65,7.54,0.94,7.54,0.94,-0.94,-0.96,-0.92,6.59,6.59,6.60
85.50,7.54,0.99,7.54,0.99,-0.99,-0.99,-0.97,6.54,6.54,6.55
86.35,7.54,1.04,7.54,1.04,-1.04,-1.03,-1.02,6.49,6.49,6.50
87.22,7.54,1.09,7.54,1.09,-1.09,-1.07,-1.07,6.44,6.44,6.44
88.09,7.54,1.14,7.54,1.14,-1.14,-1.11,-1.12,6.39,6.39,6.39
88.97,7.54,1.20,7.54,1.20,-1.19,-1.14,-1.17,6.34,6.34,6.34
89.86,7.54,1.25,7.54,1.25,-1.25,-1.18,-1.23,6.29,6.29,6.29
90.76,7.54,1.30,7.54,1.30,-1.30,-1.22,-1.28,6.24,6.24,6.23
91.66,7.54,1.36,7.54,1.36,-1.36,-1.26,-1.34,6.18,6.18,6.18
92.58,7.54,1.41,7.54,1.41,-1.41,-1.30,-1.39,6.12,6.12,6.13
93.51,7.54,1.46,7.54,1.46,-1.47,-1.34,-1.45,6.06,6.06,6.07
94.44,7.54,1.52,7.54,1.53,-1.53,-1.38,-1.51,6.01,6.01,6.02
95.39,7.55,1.59,7.55,1.59,-1.59,-1.41,-1.57,5.96,5.96,5.96
96.34,7.56,1.65,7.55,1.65,-1.64,-1.45,-1.63,5.92,5.91,5.90
97.30,7.56,1.70,7.55,1.70,-1.69,-1.49,-1.69,5.86,5.86,5.86
98.28,7.55,1.75,7.55,1.75,-1.74,-1.53,-1.75,5.80,5.80,5.80
99.26,7.54,1.79,7.53,1.79,-1.79,-1.57,-1.81,5.75,5.74,5.74
100.25,7.52,1.83,7.52,1.83,-1.83,-1.62,-1.87,5.69,5.69,5.69
101.25,7.50,1.87,7.50,1.87,-1.87,-1.66,-1.93,5.63,5.63,5.63
102.27,7.48,1.91,7.47,1.90,-1.90,-1.70,-1.99,5.58,5.57,5.57
103.29,7.45,1.93,7.45,1.93,-1.93,-1.74,-2.05,5.52,5.52,5.51
104.32,7.42,1.95,7.42,1.96,-1.95,-1.78,-2.12,5.46,5.46,5.47
105.37,7.39,1.98,7.39,1.98,-1.98,-1.82,-2.18,5.41,5.41,5.41
106.42,7.36,2.01,7.36,2.00,-2.00,-1.86,-2.24,5.35,5.35,5.35
107.48,7.33,2.02,7.33,2.03,-2.03,-1.91,-2.30,5.30,5.30,5.30
108.56,7.30,2.05,7.30,2.05,-2.05,-1.95,-2.36,5.24,5.24,5.24
109.64,7.27,2.08,7.26,2.08,-2.08,-1.99,-2.42,5.19,5.19,5.19
110.74,7.24,2.11,7.24,2.11,-2.11,-2.03,-2.47,5.13,5.13,5.13
111.85,7.22,2.14,7.22,2.14,-2.15,-2.08,-2.53,5.07,5.07,5.07
112.97,7.21,2.18,7.20,2.18,-2.19,-2.12,-2.58,5.02,5.02,5.02
114.10,7.19,2.22,7.19,2.22,-2.23,-2.16,-2.63,4.96,4.96,4.97
115.24,7.19,2.27,7.19,2.27,-2.28,-2.21,-2.68,4.91,4.91,4.91
116.39,7.19,2.33,7.19,2.33,-2.33,-2.25,-2.73,4.85,4.86,4.86
117.55,7.20,2.39,7.20,2.39,-2.39,-2.29,-2.77,4.81,4.81,4.81
118.73,7.21,2.45,7.20,2.45,-2.44,-2.34,-2.81,4.76,4.76,4.76
119.92,7.21,2.51,7.21,2.50,-2.50,-2.38,-2.85,4.71,4.71,4.70
121.12,7.21,2.56,7.21,2.56,-2.55,-2.42,-2.88,4.66,4.66,4.65
122.33,7.21,2.60,7.21,2.61,-2.60,-2.47,-2.91,4.60,4.60,4.60
123.55,7.21,2.66,7.21,2.65,-2.66,-2.51,-2.94,4.55,4.55,4.55
124.79,7.21,2.70,7.21,2.70,-2.71,-2.55,-2.97,4.50,4.50,4.51
126.03,7.21,2.75,7.21,2.75,-2.76,-2.60,-2.99,4.45,4.45,4.46
127.29,7.22,2.80,7.21,2.80,-2.81,-2.64,-3.00,4.41,4.40,4.42
128.57,7.22,2.85,7.22,2.86,-2.86,-2.68,-3.02,4.36,4.36,4.36
129.85,7.23,2.91,7.23,2.91,-2.91,-2.73,-3.03,4.32,4.32,4.31
131.15,7.24,2.97,7.23,2.96,-2.95,-2.77,-3.03,4.28,4.28,4.27
132.46,7.23,3.00,7.23,3.00,-3.00,-2.81,-3.04,4.23,4.23,4.23
133.79,7.22,3.04,7.22,3.04,-3.03,-2.86,-3.04,4.18,4.18,4.18
135.12,7.21,3.07,7.20,3.07,-3.07,-2.90,-3.04,4.14,4.14,4.13
136.48,7.18,3.09,7.18,3.09,-3.09,-2.94,-3.04,4.09,4.09,4.09
137.84,7.16,3.11,7.15,3.11,-3.11,-2.98,-3.03,4.04,4.04,4.04
139.22,7.13,3.13,7.13,3.13,-3.13,-3.03,-3.02,4.00,4.00,4.00
140.61,7.10,3.14,7.10,3.14,-3.14,-3.07,-3.01,3.96,3.96,3.95
142.02,7.07,3.14,7.07,3.15,-3.15,-3.11,-3.01,3.92,3.92,3.92
143.44,7.04,3.16,7.04,3.16,-3.16,-3.15,-2.99,3.88,3.88,3.88
144.87,7.01,3.17,7.01,3.16,-3.16,-3.19,-2.98,3.84,3.84,3.84
146.32,6.98,3.17,6.98,3.17,-3.17,-3.23,-2.97,3.81,3.81,3.81
147.78,6.95,3.18,6.95,3.18,-3.18,-3.26,-2.96,3.77,3.77,3.77
149.26,6.93,3.19,6.92,3.19,-3.19,-3.30,-2.95,3.74,3.73,3.73
150.75,6.90,3.19,6.90,3.20,-3.20,-3.34,-2.94,3.70,3.70,3.70
152.26,6.89,3.22,6.88,3.22,-3.22,-3.38,-2.93,3.67,3.66,3.67
153.78,6.87,3.23,6.87,3.23,-3.24,-3.41,-2.92,3.63,3.63,3.63
155.32,6.87,3.26,6.86,3.26,-3.27,-3.45,-2.91,3.60,3.60,3.61
156.88,6.86,3.28,6.86,3.29,-3.30,-3.48,-2.91,3.56,3.56,3.57
158.44,6.87,3.33,6.87,3.33,-3.33,-3.52,-2.90,3.54,3.54,3.54
160.03,6.88,3.37,6.87,3.37,-3.36,-3.55,-2.90,3.51,3.51,3.51
161.63,6.89,3.41,6.88,3.40,-3.40,-3.58,-2.89,3.49,3.49,3.48
163.24,6.89,3.43,6.89,3.44,-3.43,-3.61,-2.89,3.46,3.46,3.45
164.88,6.89,3.46,6.89,3.46,-3.46,-3.64,-2.90,3.43,3.43,3.42
166.53,6.89,3.49,6.89,3.49,-3.49,-3.67,-2.90,3.40,3.40,3.40
168.19,6.89,3.52,6.89,3.52,-3.52,-3.69,-2.91,3.37,3.37,3.37
169.87,6.89,3.54,6.89,3.54,-3.54,-3.72,-2.91,3.34,3.34,3.35
171.57,6.89,3.56,6.89,3.57,-3.57,-3.74,-2.92,3.32,3.32,3.32
173.29,6.89,3.59,6.89,3.59,-3.59,-3.77,-2.94,3.30,3.30,3.30
175.02,6.89,3.62,6.89,3.61,-3.61,-3.79,-2.95,3.28,3.28,3.27
176.77,6.89,3.63,6.89,3.63,-3.63,-3.81,-2.97,3.25,3.25,3.26
178.54,6.89,3.65,6.89,3.65,-3.66,-3.83,-2.99,3.23,3.23,3.23
180.32,6.89,3.68,6.89,3.68,-3.68,-3.85,-3.01,3.21,3.21,3.21
182.13,6.89,3.70,6.89,3.70,-3.70,-3.86,-3.04,3.19,3.19,3.19
183.95,6.89,3.72,6.89,3.72,-3.72,-3.88,-3.06,3.17,3.17,3.17
185.79,6.89,3.74,6.89,3.74,-3.74,-3.89,-3.09,3.15,3.15,3.14
187.65,6.89,3.76,6.89,3.76,-3.76,-3.90,-3.12,3.12,3.12,3.12
189.52,6.89,3.78,6.89,3.78,-3.78,-3.91,-3.16,3.10,3.10,3.10
191.42,6.89,3.80,6.89,3.80,-3.80,-3.92,-3.19,3.09,3.09,3.08
193.33,6.89,3.82,6.89,3.82,-3.82,-3.93,-3.23,3.07,3.07,3.07
195.27,6.89,3.84,6.89,3.84,-3.84,-3.93,-3.27,3.05,3.05,3.05
197.22,6.89,3.86,6.89,3.85,-3.86,-3.94,-3.31,3.03,3.03,3.03
199.19,6.89,3.87,6.89,3.87,-3.88,-3.94,-3.35,3.01,3.01,3.01
201.18,6.90,3.89,6.90,3.89,-3.89,-3.94,-3.40,3.00,3.00,3.01
203.19,6.91,3.91,6.90,3.91,-3.91,-3.94,-3.44,3.00,3.00,2.99
205.23,6.91,3.92,6.91,3.92,-3.92,-3.94,-3.49,2.99,2.99,2.99
207.28,6.91,3.93,6.90,3.93,-3.92,-3.93,-3.53,2.98,2.98,2.97
209.35,6.89,3.93,6.89,3.93,-3.92,-3.92,-3.58,2.96,2.97,2.96
211.44,6.88,3.92,6.88,3.92,-3.92,-3.92,-3.63,2.96,2.96,2.95
213.56,6.86,3.91,6.85,3.91,-3.91,-3.91,-3.67,2.95,2.94,2.94
215.69,6.83,3.90,6.83,3.90,-3.89,-3.90,-3.72,2.93,2.93,2.93
217.85,6.80,3.88,6.80,3.88,-3.88,-3.88,-3.76,2.92,2.92,2.92
220.03,6.77,3.85,6.77,3.85,-3.86,-3.87,-3.81,2.91,2.90,2.91
222.23,6.74,3.83,6.74,3.83,-3.84,-3.85,-3.85,2.89,2.89,2.90
224.45,6.71,3.81,6.71,3.82,-3.83,-3.84,-3.89,2.88,2.88,2.89
226.70,6.69,3.81,6.69,3.80,-3.81,-3.82,-3.92,2.88,2.88,2.88
228.96,6.67,3.79,6.67,3.79,-3.79,-3.80,-3.95,2.88,2.88,2.88
231.25,6.65,3.78,6.64,3.77,-3.76,-3.78,-3.98,2.88,2.88,2.87
233.57,6.62,3.76,6.62,3.75,-3.74,-3.75,-4.01,2.87,2.87,2.86
235.90,6.59,3.72,6.58,3.73,-3.72,-3.73,-4.03,2.87,2.87,2.86
238.26,6.55,3.69,6.55,3.69,-3.69,-3.71,-4.05,2.85,2.85,2.85
240.64,6.52,3.66,6.52,3.66,-3.67,-3.68,-4.06,2.85,2.85,2.85
243.05,6.49,3.63,6.49,3.63,-3.65,-3.65,-4.07,2.84,2.84,2.86
245.48,6.47,3.61,6.47,3.61,-3.62,-3.62,-4.07,2.84,2.84,2.86
247.93,6.45,3.60,6.45,3.60,-3.60,-3.59,-4.07,2.85,2.85,2.85
250.41,6.44,3.58,6.43,3.58,-3.57,-3.56,-4.06,2.86,2.86,2.85
252.92,6.42,3.56,6.41,3.56,-3.54,-3.53,-4.04,2.87,2.87,2.86
255.45,6.39,3.53,6.38,3.53,-3.51,-3.50,-4.02,2.87,2.87,2.86
258.00,6.35,3.49,6.35,3.49,-3.48,-3.46,-4.00,2.86,2.86,2.85
260.58,6.30,3.44,6.30,3.45,-3.45,-3.43,-3.97,2.85,2.85,2.86
263.19,6.26,3.41,6.25,3.40,-3.41,-3.39,-3.93,2.85,2.84,2.85
265.82,6.21,3.36,6.21,3.36,-3.37,-3.35,-3.89,2.83,2.84,2.84
268.48,6.17,3.32,6.17,3.33,-3.33,-3.32,-3.84,2.83,2.83,2.85
271.16,6.14,3.29,6.13,3.29,-3.30,-3.28,-3.80,2.84,2.84,2.84
273.87,6.11,3.27,6.11,3.26,-3.27,-3.24,-3.74,2.84,2.84,2.84
276.61,6.08,3.23,6.08,3.24,-3.23,-3.20,-3.68,2.84,2.84,2.84
279.38,6.05,3.21,6.05,3.21,-3.20,-3.16,-3.62,2.85,2.85,2.84
282.17,6.02,3.17,6.01,3.17,-3.17,-3.12,-3.56,2.85,2.85,2.84
284.99,5.98,3.14,5.98,3.14,-3.13,-3.08,-3.50,2.84,2.84,2.84
287.84,5.94,3.10,5.93,3.10,-3.10,-3.04,-3.43,2.84,2.84,2.83
290.72,5.89,3.06,5.89,3.06,-3.06,-2.99,-3.36,2.83,2.83,2.83
293.63,5.85,3.02,5.85,3.02,-3.02,-2.95,-3.29,2.82,2.82,2.83
296.57,5.81,2.98,5.80,2.98,-2.99,-2.91,-3.22,2.82,2.82,2.82
299.53,5.77,2.94,5.77,2.94,-2.95,-2.87,-3.15,2.81,2.82,2.83
302.53,5.74,2.91,5.74,2.91,-2.92,-2.82,-3.07,2.82,2.82,2.82
305.55,5.71,2.89,5.71,2.88,-2.88,-2.78,-3.00,2.82,2.83,2.82
308.61,5.69,2.86,5.68,2.86,-2.85,-2.74,-2.93,2.84,2.83,2.83
311.69,5.65,2.82,5.65,2.82,-2.81,-2.69,-2.86,2.83,2.83,2.82
314.81,5.61,2.77,5.61,2.78,-2.78,-2.65,-2.79,2.83,2.83,2.83
317.96,5.57,2.74,5.57,2.73,-2.74,-2.60,-2.72,2.83,2.82,2.83
321.14,5.53,2.69,5.53,2.70,-2.70,-2.56,-2.65,2.82,2.83,2.84
324.35,5.50,2.66,5.50,2.66,-2.67,-2.51,-2.58,2.83,2.83,2.83
327.59,5.47,2.64,5.46,2.63,-2.63,-2.47,-2.51,2.84,2.84,2.83
330.87,5.43,2.59,5.43,2.59,-2.59,-2.42,-2.45,2.84,2.84,2.84
334.18,5.40,2.55,5.39,2.55,-2.55,-2.38,-2.38,2.85,2.84,2.85
337.52,5.36,2.51,5.36,2.51,-2.51,-2.33,-2.32,2.84,2.84,2.84
340.90,5.32,2.47,5.32,2.47,-2.47,-2.29,-2.26,2.85,2.85,2.85
344.30,5.28,2.43,5.28,2.43,-2.43,-2.24,-2.20,2.85,2.85,2.85
347.75,5.24,2.39,5.24,2.39,-2.39,-2.20,-2.14,2.85,2.85,2.85
351.23,5.20,2.35,5.19,2.35,-2.34,-2.15,-2.09,2.85,2.85,2.84
354.74,5.15,2.29,5.15,2.30,-2.30,-2.11,-2.03,2.85,2.85,2.85
358.28,5.11,2.26,5.10,2.25,-2.26,-2.07,-1.98,2.85,2.85,2.85
361.87,5.06,2.21,5.05,2.20,-2.21,-2.02,-1.93,2.84,2.84,2.85
365.49,5.01,2.16,5.01,2.16,-2.17,-1.98,-1.88,2.84,2.84,2.85
369.14,4.97,2.12,4.97,2.12,-2.13,-1.93,-1.83,2.84,2.84,2.85
372.83,4.94,2.09,4.93,2.08,-2.08,-1.89,-1.79,2.86,2.85,2.84
376.56,4.90,2.04,4.89,2.04,-2.03,-1.84,-1.74,2.86,2.86,2.85
380.33,4.85,1.99,4.85,2.00,-1.99,-1.80,-1.70,2.86,2.86,2.85
384.13,4.80,1.95,4.79,1.94,-1.94,-1.76,-1.66,2.85,2.85,2.85
387.97,4.74,1.89,4.74,1.89,-1.89,-1.71,-1.62,2.84,2.84,2.85
391.85,4.69,1.83,4.69,1.84,-1.85,-1.67,-1.58,2.84,2.84,2.86
395.77,4.65,1.79,4.65,1.79,-1.80,-1.63,-1.54,2.85,2.85,2.86
399.73,4.62,1.75,4.61,1.75,-1.75,-1.58,-1.50,2.87,2.87,2.86
403.72,4.58,1.71,4.57,1.71,-1.70,-1.54,-1.47,2.88,2.88,2.86
407.76,4.53,1.65,4.53,1.66,-1.65,-1.50,-1.43,2.88,2.88,2.87
411.84,4.48,1.60,4.48,1.60,-1.60,-1.45,-1.40,2.87,2.87,2.87
415.96,4.43,1.55,4.42,1.55,-1.56,-1.41,-1.36,2.87,2.87,2.88
420.12,4.38,1.50,4.38,1.50,-1.51,-1.37,-1.33,2.86,2.87,2.88
424.32,4.34,1.46,4.34,1.46,-1.46,-1.33,-1.30,2.87,2.88,2.88
428.56,4.31,1.42,4.30,1.42,-1.41,-1.28,-1.27,2.89,2.89,2.89
432.85,4.27,1.38,4.26,1.38,-1.36,-1.24,-1.24,2.90,2.90,2.89
437.18,4.22,1.33,4.21,1.33,-1.31,-1.20,-1.21,2.90,2.90,2.89
441.55,4.16,1.27,4.15,1.27,-1.26,-1.16,-1.18,2.89,2.89,2.89
445.96,4.09,1.20,4.09,1.21,-1.21,-1.12,-1.15,2.87,2.88,2.88
450.42,4.04,1.15,4.03,1.15,-1.16,-1.08,-1.12,2.87,2.87,2.88
454.93,3.98,1.09,3.98,1.10,-1.11,-1.03,-1.08,2.86,2.87,2.88
459.48,3.95,1.06,3.94,1.06,-1.06,-0.99,-1.05,2.89,2.88,2.88
464.07,3.91,1.02,3.90,1.02,-1.01,-0.95,-1.02,2.90,2.89,2.88
468.71,3.86,0.97,3.86,0.98,-0.96,-0.91,-0.99,2.90,2.90,2.88
473.40,3.81,0.93,3.80,0.92,-0.91,-0.87,-0.96,2.89,2.89,2.88
478.13,3.75,0.86,3.75,0.86,-0.87,-0.83,-0.92,2.88,2.88,2.89
482.91,3.70,0.81,3.70,0.81,-0.82,-0.79,-0.89,2.87,2.88,2.89
487.74,3.66,0.77,3.66,0.77,-0.77,-0.75,-0.85,2.88,2.88,2.89
492.62,3.62,0.73,3.62,0.73,-0.73,-0.71,-0.82,2.89,2.89,2.89
497.55,3.59,0.69,3.58,0.69,-0.68,-0.67,-0.78,2.91,2.90,2.90
502.52,3.54,0.64,3.54,0.64,-0.63,-0.63,-0.74,2.90,2.90,2.90
507.55,3.49,0.59,3.49,0.59,-0.59,-0.59,-0.70,2.90,2.90,2.90
512.62,3.44,0.54,3.44,0.54,-0.55,-0.55,-0.66,2.89,2.89,2.90
517.75,3.40,0.49,3.40,0.49,-0.50,-0.51,-0.62,2.90,2.90,2.91
522.93,3.36,0.45,3.36,0.45,-0.45,-0.47,-0.58,2.91,2.91,2.91
528.16,3.32,0.41,3.31,0.41,-0.40,-0.43,-0.54,2.92,2.92,2.91
533.44,3.27,0.36,3.26,0.36,-0.35,-0.38,-0.49,2.92,2.92,2.91
538.77,3.21,0.29,3.21,0.29,-0.29,-0.34,-0.44,2.91,2.91,2.92
544.16,3.15,0.23,3.15,0.23,-0.24,-0.30,-0.40,2.91,2.91,2.91
549.60,3.09,0.17,3.09,0.17,-0.18,-0.26,-0.35,2.90,2.91,2.91
555.10,3.04,0.12,3.04,0.12,-0.13,-0.22,-0.30,2.91,2.91,2.91
