frequency,raw,error,smoothed,error_smoothed,equalization,parametric_eq,fixed_band_eq,equalized_raw,equalized_smoothed,target
20.00,1.04,2.43,1.03,2.43,-2.41,-2.30,-1.86,-1.37,-1.37,-1.39
20.20,1.07,2.46,1.07,2.47,-2.47,-2.35,-1.92,-1.40,-1.39,-1.39
20.40,1.11,2.50,1.12,2.51,-2.52,-2.39,-1.98,-1.41,-1.40,-1.39
20.61,1.17,2.56,1.17,2.56,-2.58,-2.44,-2.03,-1.41,-1.41,-1.39
20.81,1.24,2.63,1.23,2.62,-2.63,-2.49,-2.09,-1.39,-1.40,-1.39
21.02,1.30,2.69,1.30,2.69,-2.69,-2.54,-2.15,-1.39,-1.39,-1.39
21.23,1.36,2.75,1.36,2.75,-2.75,-2.58,-2.22,-1.39,-1.39,-1.39
21.44,1.42,2.81,1.42,2.80,-2.80,-2.63,-2.28,-1.38,-1.39,-1.38
21.66,1.47,2.85,1.48,2.87,-2.86,-2.68,-2.35,-1.39,-1.38,-1.38
21.87,1.55,2.93,1.54,2.93,-2.92,-2.74,-2.42,-1.37,-1.38,-1.38
22.09,1.61,2.99,1.60,2.98,-2.98,-2.79,-2.49,-1.37,-1.37,-1.38
22.31,1.65,3.03,1.66,3.03,-3.03,-2.84,-2.56,-1.38,-1.38,-1.38
22.54,1.70,3.08,1.70,3.08,-3.09,-2.89,-2.63,-1.39,-1.38,-1.38
22.76,1.75,3.13,1.75,3.13,-3.14,-2.94,-2.71,-1.39,-1.39,-1.38
22.99,1.81,3.19,1.81,3.19,-3.19,-3.00,-2.79,-1.38,-1.38,-1.38
23.22,1.87,3.24,1.87,3.24,-3.24,-3.05,-2.87,-1.37,-1.37,-1.37
23.45,1.93,3.30,1.93,3.30,-3.29,-3.10,-2.95,-1.36,-1.37,-1.37
23.69,1.98,3.35,1.98,3.35,-3.34,-3.16,-3.03,-1.36,-1.37,-1.37
23.92,2.02,3.39,2.03,3.40,-3.39,-3.21,-3.12,-1.37,-1.37,-1.37
24.16,2.07,3.44,2.07,3.44,-3.44,-3.27,-3.20,-1.37,-1.37,-1.37
24.40,2.12,3.49,2.12,3.48,-3.49,-3.32,-3.29,-1.37,-1.37,-1.37
24.65,2.16,3.53,2.16,3.53,-3.53,-3.38,-3.38,-1.37,-1.37,-1.37
24.89,2.21,3.58,2.21,3.57,-3.58,-3.43,-3.47,-1.37,-1.37,-1.36
25.14,2.26,3.62,2.26,3.62,-3.62,-3.49,-3.56,-1.36,-1.36,-1.36
25.39,2.30,3.66,2.30,3.67,-3.67,-3.54,-3.65,-1.36,-1.36,-1.36
25.65,2.35,3.71,2.35,3.71,-3.71,-3.60,-3.74,-1.36,-1.36,-1.36
25.91,2.40,3.76,2.40,3.76,-3.75,-3.65,-3.84,-1.36,-1.36,-1.36
26.16,2.44,3.80,2.44,3.80,-3.80,-3.71,-3.93,-1.36,-1.36,-1.36
26.43,2.49,3.85,2.49,3.84,-3.84,-3.76,-4.02,-1.35,-1.36,-1.36
26.69,2.52,3.87,2.53,3.88,-3.88,-3.81,-4.11,-1.36,-1.35,-1.35
26.96,2.58,3.93,2.57,3.92,-3.92,-3.87,-4.20,-1.34,-1.35,-1.35
27.23,2.61,3.96,2.61,3.96,-3.96,-3.92,-4.29,-1.35,-1.35,-1.35
27.50,2.65,4.00,2.65,4.00,-4.00,-3.97,-4.37,-1.35,-1.35,-1.35
27.77,2.69,4.04,2.69,4.04,-4.04,-4.02,-4.45,-1.35,-1.35,-1.35
28.05,2.73,4.08,2.73,4.07,-4.07,-4.07,-4.53,-1.34,-1.35,-1.35
28.33,2.76,4.11,2.76,4.11,-4.11,-4.12,-4.61,-1.35,-1.34,-1.35
28.62,2.79,4.13,2.80,4.14,-4.14,-4.16,-4.68,-1.35,-1.34,-1.34
28.90,2.84,4.18,2.83,4.17,-4.17,-4.21,-4.74,-1.33,-1.34,-1.34
29.19,2.85,4.19,2.86,4.20,-4.20,-4.25,-4.80,-1.35,-1.34,-1.34
29.48,2.89,4.23,2.88,4.23,-4.23,-4.30,-4.86,-1.34,-1.34,-1.34
29.78,2.91,4.25,2.91,4.25,-4.25,-4.34,-4.91,-1.34,-1.34,-1.34
30.08,2.93,4.27,2.93,4.27,-4.28,-4.38,-4.95,-1.35,-1.34,-1.34
30.38,2.97,4.31,2.96,4.30,-4.30,-4.42,-4.99,-1.33,-1.34,-1.34
30.68,2.98,4.32,2.99,4.33,-4.32,-4.45,-5.02,-1.34,-1.33,-1.34
30.99,3.03,4.36,3.02,4.35,-4.35,-4.48,-5.04,-1.32,-1.33,-1.33
31.30,3.03,4.36,3.04,4.37,-4.37,-4.52,-5.06,-1.34,-1.33,-1.33
31.61,3.05,4.38,3.05,4.38,-4.38,-4.55,-5.07,-1.33,-1.33,-1.33
31.93,3.07,4.40,3.06,4.39,-4.40,-4.57,-5.07,-1.33,-1.34,-1.33
32.24,3.07,4.40,3.09,4.42,-4.41,-4.60,-5.06,-1.34,-1.33,-1.33
32.57,3.12,4.45,3.11,4.43,-4.43,-4.62,-5.05,-1.31,-1.32,-1.33
32.89,3.12,4.45,3.12,4.44,-4.44,-4.64,-5.03,-1.32,-1.32,-1.33
33.22,3.12,4.44,3.12,4.45,-4.45,-4.66,-5.01,-1.33,-1.33,-1.32
33.55,3.12,4.44,3.12,4.45,-4.46,-4.68,-4.98,-1.34,-1.33,-1.32
33.89,3.13,4.45,3.14,4.46,-4.47,-4.69,-4.94,-1.34,-1.33,-1.32
34.23,3.16,4.48,3.15,4.47,-4.47,-4.70,-4.90,-1.31,-1.32,-1.32
34.57,3.17,4.49,3.17,4.48,-4.48,-4.71,-4.86,-1.31,-1.31,-1.32
34.92,3.17,4.49,3.17,4.49,-4.48,-4.72,-4.81,-1.31,-1.31,-1.32
35.27,3.17,4.49,3.17,4.49,-4.49,-4.72,-4.76,-1.32,-1.31,-1.32
35.62,3.17,4.48,3.17,4.48,-4.49,-4.72,-4.70,-1.32,-1.32,-1.31
35.97,3.17,4.48,3.17,4.48,-4.49,-4.72,-4.65,-1.32,-1.32,-1.31
36.33,3.17,4.48,3.17,4.48,-4.48,-4.72,-4.59,-1.31,-1.31,-1.31
36.70,3.17,4.48,3.17,4.48,-4.48,-4.72,-4.53,-1.31,-1.30,-1.31
37.06,3.17,4.48,3.17,4.48,-4.47,-4.71,-4.47,-1.30,-1.30,-1.31
37.43,3.17,4.48,3.16,4.47,-4.46,-4.70,-4.41,-1.29,-1.30,-1.31
37.81,3.14,4.45,3.15,4.46,-4.46,-4.69,-4.34,-1.32,-1.31,-1.31
38.19,3.14,4.44,3.14,4.44,-4.46,-4.68,-4.28,-1.32,-1.32,-1.30
38.57,3.14,4.44,3.14,4.45,-4.46,-4.67,-4.22,-1.32,-1.32,-1.30
38.95,3.15,4.45,3.15,4.46,-4.46,-4.65,-4.16,-1.31,-1.30,-1.30
39.34,3.17,4.47,3.16,4.46,-4.46,-4.64,-4.11,-1.29,-1.30,-1.30
39.74,3.17,4.47,3.17,4.47,-4.46,-4.62,-4.05,-1.29,-1.29,-1.30
40.14,3.17,4.47,3.17,4.47,-4.46,-4.60,-3.99,-1.29,-1.29,-1.30
40.54,3.17,4.47,3.17,4.47,-4.47,-4.58,-3.94,-1.30,-1.30,-1.30
40.94,3.17,4.47,3.17,4.47,-4.47,-4.56,-3.89,-1.30,-1.30,-1.30
41.35,3.17,4.46,3.17,4.46,-4.46,-4.54,-3.84,-1.29,-1.29,-1.29
41.76,3.17,4.46,3.17,4.46,-4.46,-4.52,-3.79,-1.29,-1.29,-1.29
42.18,3.17,4.46,3.17,4.46,-4.46,-4.50,-3.75,-1.29,-1.29,-1.29
42.60,3.17,4.46,3.17,4.46,-4.46,-4.47,-3.71,-1.29,-1.29,-1.29
43.03,3.17,4.46,3.17,4.46,-4.46,-4.45,-3.67,-1.29,-1.29,-1.29
43.46,3.17,4.46,3.18,4.46,-4.47,-4.43,-3.63,-1.30,-1.29,-1.29
43.90,3.19,4.48,3.18,4.47,-4.47,-4.40,-3.60,-1.28,-1.29,-1.29
44.33,3.19,4.47,3.19,4.47,-4.47,-4.38,-3.57,-1.28,-1.28,-1.28
44.78,3.19,4.47,3.19,4.47,-4.47,-4.35,-3.54,-1.28,-1.28,-1.28
45.23,3.19,4.47,3.19,4.47,-4.47,-4.33,-3.51,-1.28,-1.28,-1.28
45.68,3.19,4.47,3.19,4.47,-4.47,-4.30,-3.49,-1.28,-1.28,-1.28
46.13,3.19,4.47,3.19,4.47,-4.47,-4.28,-3.47,-1.28,-1.28,-1.28
46.60,3.19,4.47,3.18,4.46,-4.46,-4.25,-3.45,-1.27,-1.28,-1.28
47.06,3.17,4.45,3.18,4.45,-4.46,-4.23,-3.43,-1.29,-1.28,-1.28
47.53,3.17,4.44,3.17,4.45,-4.45,-4.21,-3.42,-1.28,-1.28,-1.27
48.01,3.17,4.44,3.17,4.45,-4.44,-4.18,-3.41,-1.27,-1.27,-1.27
48.49,3.17,4.44,3.17,4.44,-4.43,-4.16,-3.40,-1.26,-1.27,-1.27
48.97,3.17,4.44,3.16,4.43,-4.42,-4.13,-3.40,-1.25,-1.27,-1.27
49.46,3.12,4.39,3.14,4.41,-4.41,-4.11,-3.39,-1.29,-1.27,-1.27
49.96,3.12,4.39,3.12,4.38,-4.39,-4.08,-3.39,-1.27,-1.27,-1.27
50.46,3.10,4.37,3.09,4.36,-4.37,-4.06,-3.39,-1.26,-1.27,-1.27
50.96,3.07,4.33,3.07,4.34,-4.33,-4.03,-3.39,-1.26,-1.26,-1.27
51.47,3.04,4.30,3.04,4.30,-4.30,-4.00,-3.40,-1.26,-1.26,-1.26
51.99,3.00,4.26,3.00,4.26,-4.25,-3.98,-3.40,-1.25,-1.26,-1.26
52.51,2.95,4.21,2.95,4.21,-4.20,-3.94,-3.41,-1.25,-1.26,-1.26
53.03,2.88,4.14,2.89,4.15,-4.15,-3.91,-3.42,-1.27,-1.26,-1.26
53.56,2.82,4.08,2.82,4.08,-4.08,-3.88,-3.43,-1.26,-1.26,-1.26
54.10,2.76,4.02,2.76,4.02,-4.01,-3.84,-3.44,-1.25,-1.25,-1.26
54.64,2.69,3.95,2.69,3.94,-3.94,-3.80,-3.45,-1.25,-1.25,-1.26
55.18,2.61,3.86,2.61,3.86,-3.86,-3.75,-3.46,-1.25,-1.25,-1.25
55.74,2.51,3.76,2.52,3.77,-3.77,-3.70,-3.47,-1.26,-1.25,-1.25
56.29,2.44,3.69,2.43,3.68,-3.68,-3.65,-3.48,-1.25,-1.25,-1.25
56.86,2.33,3.58,2.34,3.59,-3.60,-3.59,-3.49,-1.27,-1.25,-1.25
57.42,2.27,3.52,2.26,3.51,-3.51,-3.52,-3.50,-1.24,-1.25,-1.25
58.00,2.16,3.41,2.17,3.41,-3.42,-3.45,-3.51,-1.26,-1.25,-1.25
58.58,2.09,3.34,2.08,3.33,-3.33,-3.37,-3.52,-1.24,-1.25,-1.25
59.16,1.99,3.23,2.00,3.24,-3.24,-3.28,-3.53,-1.25,-1.25,-1.24
59.76,1.92,3.16,1.92,3.16,-3.16,-3.19,-3.54,-1.24,-1.24,-1.24
60.35,1.84,3.08,1.84,3.08,-3.08,-3.09,-3.55,-1.24,-1.24,-1.24
60.96,1.76,3.00,1.76,3.00,-3.00,-2.98,-3.55,-1.24,-1.24,-1.24
61.57,1.69,2.93,1.69,2.93,-2.92,-2.88,-3.56,-1.23,-1.24,-1.24
62.18,1.61,2.85,1.62,2.86,-2.85,-2.77,-3.56,-1.24,-1.24,-1.24
62.80,1.56,2.80,1.55,2.79,-2.79,-2.67,-3.56,-1.23,-1.24,-1.24
63.43,1.50,2.73,1.49,2.73,-2.73,-2.58,-3.56,-1.23,-1.24,-1.23
64.07,1.44,2.67,1.45,2.69,-2.68,-2.50,-3.56,-1.24,-1.23,-1.23
64.71,1.41,2.64,1.41,2.64,-2.64,-2.44,-3.56,-1.23,-1.23,-1.23
65.35,1.40,2.63,1.38,2.61,-2.61,-2.41,-3.56,-1.21,-1.23,-1.23
66.01,1.35,2.58,1.36,2.59,-2.60,-2.39,-3.55,-1.25,-1.23,-1.23
66.67,1.35,2.58,1.36,2.59,-2.60,-2.40,-3.55,-1.25,-1.24,-1.23
67.33,1.38,2.61,1.37,2.59,-2.61,-2.43,-3.54,-1.23,-1.24,-1.23
68.01,1.40,2.62,1.40,2.62,-2.63,-2.48,-3.53,-1.23,-1.23,-1.23
68.69,1.43,2.65,1.44,2.67,-2.67,-2.54,-3.53,-1.24,-1.22,-1.22
69.37,1.50,2.72,1.49,2.71,-2.71,-2.61,-3.52,-1.21,-1.22,-1.22
70.07,1.56,2.78,1.55,2.77,-2.77,-2.69,-3.51,-1.21,-1.22,-1.22
70.77,1.61,2.83,1.62,2.84,-2.84,-2.77,-3.50,-1.23,-1.22,-1.22
71.48,1.69,2.91,1.69,2.91,-2.91,-2.86,-3.50,-1.22,-1.22,-1.22
72.19,1.77,2.99,1.77,2.99,-2.99,-2.94,-3.49,-1.22,-1.22,-1.22
72.91,1.86,3.08,1.86,3.07,-3.07,-3.02,-3.48,-1.21,-1.22,-1.22
73.64,1.94,3.15,1.94,3.16,-3.15,-3.09,-3.48,-1.21,-1.21,-1.21
74.38,2.02,3.23,2.02,3.24,-3.24,-3.16,-3.48,-1.22,-1.21,-1.21
75.12,2.11,3.32,2.11,3.32,-3.32,-3.22,-3.47,-1.21,-1.21,-1.21
75.87,2.18,3.39,2.18,3.39,-3.39,-3.29,-3.47,-1.21,-1.21,-1.21
76.63,2.26,3.47,2.26,3.47,-3.46,-3.34,-3.47,-1.20,-1.20,-1.21
77.40,2.32,3.53,2.32,3.53,-3.52,-3.39,-3.48,-1.20,-1.20,-1.21
78.17,2.38,3.59,2.38,3.59,-3.58,-3.44,-3.48,-1.20,-1.20,-1.21
78.95,2.42,3.62,2.42,3.63,-3.62,-3.49,-3.49,-1.20,-1.20,-1.20
79.74,2.47,3.67,2.46,3.66,-3.65,-3.53,-3.50,-1.18,-1.19,-1.20
80.54,2.47,3.67,2.48,3.69,-3.68,-3.57,-3.51,-1.21,-1.19,-1.20
81.35,2.51,3.71,2.50,3.70,-3.69,-3.61,-3.52,-1.18,-1.19,-1.20
82.16,2.51,3.71,2.51,3.71,-3.70,-3.64,-3.54,-1.19,-1.20,-1.20
82.98,2.51,3.71,2.51,3.71,-3.71,-3.68,-3.56,-1.20,-1.20,-1.20
83.81,2.51,3.71,2.52,3.71,-3.72,-3.71,-3.58,-1.21,-1.21,-1.20
84.65,2.53,3.72,2.53,3.72,-3.74,-3.74,-3.61,-1.21,-1.21,-1.19
85.50,2.56,3.75,2.55,3.75,-3.76,-3.77,-3.63,-1.20,-1.20,-1.19
86.35,2.58,3.77,2.59,3.78,-3.79,-3.80,-3.67,-1.21,-1.20,-1.19
87.22,2.64,3.83,2.63,3.82,-3.82,-3.83,-3.70,-1.18,-1.19,-1.19
88.09,2.68,3.87,2.68,3.86,-3.87,-3.86,-3.73,-1.19,-1.19,-1.19
88.97,2.72,3.91,2.73,3.92,-3.92,-3.89,-3.77,-1.20,-1.19,-1.19
89.86,2.79,3.98,2.79,3.97,-3.98,-3.92,-3.82,-1.19,-1.19,-1.19
90.76,2.86,4.04,2.85,4.04,-4.03,-3.95,-3.86,-1.18,-1.18,-1.19
91.66,2.91,4.09,2.91,4.10,-4.10,-3.98,-3.91,-1.19,-1.18,-1.18
92.58,2.97,4.15,2.97,4.16,-4.16,-4.00,-3.96,-1.19,-1.18,-1.18
93.51,3.04,4.22,3.04,4.22,-4.22,-4.03,-4.01,-1.18,-1.18,-1.18
94.44,3.10,4.28,3.10,4.28,-4.28,-4.06,-4.07,-1.18,-1.18,-1.18
95.39,3.16,4.34,3.16,4.34,-4.33,-4.08,-4.13,-1.17,-1.17,-1.18
96.34,3.22,4.40,3.22,4.39,-4.39,-4.11,-4.19,-1.17,-1.17,-1.18
97.30,3.26,4.44,3.26,4.44,-4.43,-4.13,-4.25,-1.17,-1.17,-1.18
98.28,3.31,4.48,3.31,4.48,-4.48,-4.16,-4.31,-1.17,-1.17,-1.17
99.26,3.34,4.51,3.34,4.51,-4.52,-4.18,-4.38,-1.18,-1.18,-1.17
100.25,3.38,4.55,3.38,4.55,-4.55,-4.21,-4.45,-1.17,-1.17,-1.17
101.25,3.40,4.57,3.41,4.58,-4.58,-4.23,-4.52,-1.18,-1.17,-1.17
102.27,3.45,4.62,3.44,4.61,-4.60,-4.25,-4.59,-1.15,-1.16,-1.17
103.29,3.45,4.62,3.46,4.63,-4.62,-4.28,-4.66,-1.17,-1.16,-1.17
104.32,3.48,4.65,3.48,4.64,-4.64,-4.30,-4.73,-1.16,-1.16,-1.17
105.37,3.49,4.65,3.48,4.65,-4.66,-4.32,-4.80,-1.17,-1.17,-1.16
106.42,3.49,4.65,3.50,4.66,-4.67,-4.34,-4.87,-1.18,-1.17,-1.16
107.48,3.51,4.67,3.51,4.68,-4.68,-4.36,-4.94,-1.17,-1.16,-1.16
108.56,3.54,4.70,3.53,4.69,-4.69,-4.38,-5.01,-1.15,-1.16,-1.16
109.64,3.54,4.70,3.54,4.70,-4.69,-4.40,-5.07,-1.15,-1.15,-1.16
110.74,3.54,4.70,3.54,4.70,-4.70,-4.41,-5.13,-1.16,-1.16,-1.16
111.85,3.54,4.70,3.54,4.70,-4.70,-4.43,-5.19,-1.16,-1.16,-1.16
112.97,3.54,4.69,3.54,4.69,-4.70,-4.44,-5.25,-1.16,-1.16,-1.15
114.10,3.54,4.69,3.54,4.70,-4.70,-4.46,-5.30,-1.16,-1.16,-1.15
115.24,3.54,4.69,3.54,4.69,-4.69,-4.47,-5.34,-1.15,-1.15,-1.15
116.39,3.54,4.69,3.53,4.68,-4.68,-4.48,-5.38,-1.14,-1.15,-1.15
117.55,3.52,4.67,3.52,4.67,-4.66,-4.49,-5.41,-1.14,-1.14,-1.15
118.73,3.49,4.64,3.50,4.64,-4.64,-4.50,-5.43,-1.15,-1.14,-1.15
119.92,3.47,4.62,3.47,4.62,-4.61,-4.50,-5.45,-1.14,-1.14,-1.15
121.12,3.44,4.59,3.44,4.58,-4.58,-4.51,-5.46,-1.14,-1.14,-1.15
122.33,3.40,4.54,3.40,4.54,-4.54,-4.51,-5.46,-1.14,-1.14,-1.14
123.55,3.35,4.49,3.36,4.50,-4.50,-4.51,-5.45,-1.15,-1.14,-1.14
124.79,3.32,4.46,3.31,4.45,-4.45,-4.51,-5.43,-1.13,-1.14,-1.14
126.03,3.26,4.40,3.27,4.41,-4.41,-4.51,-5.41,-1.15,-1.14,-1.14
127.29,3.23,4.37,3.22,4.36,-4.37,-4.50,-5.37,-1.14,-1.14,-1.14
128.57,3.18,4.32,3.18,4.32,-4.33,-4.50,-5.33,-1.15,-1.14,-1.14
129.85,3.15,4.29,3.15,4.29,-4.29,-4.49,-5.27,-1.14,-1.14,-1.14
131.15,3.12,4.25,3.12,4.25,-4.26,-4.48,-5.21,-1.14,-1.14,-1.13
132.46,3.09,4.22,3.10,4.23,-4.23,-4.47,-5.14,-1.14,-1.13,-1.13
133.79,3.07,4.20,3.07,4.20,-4.21,-4.45,-5.07,-1.14,-1.13,-1.13
135.12,3.07,4.20,3.05,4.18,-4.19,-4.44,-4.98,-1.12,-1.13,-1.13
136.48,3.03,4.16,3.04,4.17,-4.17,-4.42,-4.89,-1.14,-1.13,-1.13
137.84,3.03,4.16,3.04,4.16,-4.16,-4.40,-4.79,-1.13,-1.12,-1.13
139.22,3.03,4.16,3.02,4.15,-4.15,-4.38,-4.69,-1.12,-1.12,-1.13
140.61,3.03,4.15,3.01,4.14,-4.13,-4.35,-4.58,-1.10,-1.12,-1.12
142.02,2.98,4.10,3.00,4.12,-4.12,-4.32,-4.47,-1.14,-1.12,-1.12
143.44,2.98,4.10,2.98,4.10,-4.10,-4.30,-4.36,-1.12,-1.12,-1.12
144.87,2.98,4.10,2.96,4.08,-4.09,-4.26,-4.24,-1.11,-1.13,-1.12
146.32,2.94,4.06,2.95,4.07,-4.07,-4.23,-4.12,-1.13,-1.12,-1.12
147.78,2.93,4.05,2.93,4.05,-4.05,-4.20,-3.99,-1.12,-1.12,-1.12
149.26,2.93,4.05,2.92,4.04,-4.04,-4.16,-3.87,-1.11,-1.12,-1.12
150.75,2.90,4.01,2.90,4.02,-4.01,-4.12,-3.74,-1.11,-1.11,-1.11
152.26,2.89,4.00,2.89,4.00,-3.99,-4.08,-3.61,-1.10,-1.11,-1.11
153.78,2.85,3.96,2.86,3.97,-3.97,-4.04,-3.48,-1.12,-1.11,-1.11
155.32,2.84,3.95,2.83,3.94,-3.95,-3.99,-3.36,-1.11,-1.12,-1.11
156.88,2.79,3.90,2.80,3.91,-3.92,-3.94,-3.23,-1.13,-1.11,-1.11
158.44,2.78,3.89,2.78,3.88,-3.88,-3.90,-3.10,-1.10,-1.11,-1.11
160.03,2.75,3.86,2.74,3.85,-3.85,-3.84,-2.97,-1.10,-1.10,-1.11
161.63,2.70,3.81,2.71,3.81,-3.81,-3.79,-2.85,-1.11,-1.10,-1.11
163.24,2.67,3.77,2.66,3.77,-3.76,-3.74,-2.72,-1.09,-1.10,-1.10
164.88,2.61,3.71,2.61,3.72,-3.71,-3.68,-2.60,-1.10,-1.10,-1.10
166.53,2.56,3.66,2.56,3.66,-3.66,-3.62,-2.47,-1.10,-1.10,-1.10
168.19,2.50,3.60,2.50,3.60,-3.61,-3.56,-2.35,-1.11,-1.11,-1.10
169.87,2.44,3.54,2.45,3.54,-3.55,-3.50,-2.23,-1.11,-1.10,-1.10
171.57,2.39,3.49,2.39,3.48,-3.49,-3.44,-2.11,-1.10,-1.10,-1.10
173.29,2.33,3.43,2.33,3.42,-3.42,-3.37,-1.99,-1.09,-1.10,-1.10
175.02,2.26,3.35,2.27,3.36,-3.36,-3.31,-1.87,-1.10,-1.09,-1.09
176.77,2.20,3.29,2.20,3.29,-3.29,-3.24,-1.75,-1.09,-1.09,-1.09
178.54,2.13,3.22,2.13,3.22,-3.22,-3.17,-1.64,-1.09,-1.09,-1.09
180.32,2.05,3.14,2.05,3.14,-3.14,-3.10,-1.52,-1.09,-1.09,-1.09
182.13,1.98,3.07,1.98,3.07,-3.07,-3.02,-1.41,-1.09,-1.09,-1.09
183.95,1.90,2.99,1.90,2.98,-2.99,-2.95,-1.30,-1.09,-1.09,-1.09
185.79,1.82,2.91,1.82,2.90,-2.90,-2.87,-1.19,-1.08,-1.08,-1.09
187.65,1.72,2.80,1.73,2.81,-2.81,-2.79,-1.08,-1.09,-1.09,-1.08
189.52,1.65,2.73,1.64,2.72,-2.72,-2.71,-0.97,-1.07,-1.08,-1.08
191.42,1.54,2.62,1.55,2.63,-2.63,-2.63,-0.87,-1.09,-1.08,-1.08
193.33,1.46,2.54,1.46,2.54,-2.54,-2.55,-0.76,-1.08,-1.08,-1.08
195.27,1.36,2.44,1.36,2.44,-2.44,-2.46,-0.66,-1.08,-1.08,-1.08
197.22,1.26,2.34,1.26,2.34,-2.34,-2.38,-0.56,-1.08,-1.08,-1.08
199.19,1.16,2.24,1.16,2.24,-2.24,-2.29,-0.45,-1.08,-1.08,-1.08
201.18,1.06,2.13,1.06,2.14,-2.14,-2.20,-0.35,-1.08,-1.08,-1.07
203.19,0.96,2.03,0.96,2.03,-2.03,-2.11,-0.26,-1.07,-1.07,-1.07
205.23,0.85,1.92,0.85,1.92,-1.92,-2.01,-0.16,-1.07,-1.06,-1.07
207.28,0.74,1.81,0.74,1.81,-1.80,-1.92,-0.07,-1.06,-1.07,-1.07
209.35,0.62,1.69,0.62,1.68,-1.68,-1.82,0.03,-1.06,-1.07,-1.07
211.44,0.48,1.55,0.49,1.56,-1.56,-1.72,0.12,-1.08,-1.07,-1.07
213.56,0.37,1.44,0.37,1.43,-1.44,-1.62,0.21,-1.07,-1.07,-1.07
215.69,0.24,1.30,0.24,1.31,-1.31,-1.52,0.29,-1.07,-1.07,-1.07
217.85,0.13,1.19,0.12,1.19,-1.18,-1.41,0.38,-1.05,-1.06,-1.06
220.03,-0.01,1.05,-0.00,1.06,-1.05,-1.30,0.46,-1.06,-1.06,-1.06
222.23,-0.13,0.93,-0.13,0.93,-0.93,-1.19,0.54,-1.06,-1.06,-1.06
224.45,-0.27,0.79,-0.27,0.79,-0.79,-1.08,0.62,-1.06,-1.06,-1.06
226.70,-0.40,0.66,-0.40,0.66,-0.66,-0.97,0.69,-1.06,-1.06,-1.06
228.96,-0.53,0.53,-0.53,0.52,-0.53,-0.85,0.76,-1.06,-1.06,-1.06
231.25,-0.66,0.40,-0.66,0.39,-0.39,-0.73,0.83,-1.05,-1.05,-1.06
233.57,-0.81,0.24,-0.80,0.26,-0.25,-0.60,0.89,-1.06,-1.05,-1.05
235.90,-0.93,0.12,-0.94,0.11,-0.11,-0.48,0.95,-1.04,-1.05,-1.05
238.26,-1.08,-0.03,-1.08,-0.03,0.03,-0.35,1.01,-1.05,-1.05,-1.05
240.64,-1.23,-0.18,-1.22,-0.17,0.17,-0.21,1.06,-1.06,-1.05,-1.05
243.05,-1.37,-0.32,-1.37,-0.32,0.32,-0.08,1.11,-1.05,-1.05,-1.05
245.48,-1.50,-0.45,-1.51,-0.46,0.46,0.06,1.16,-1.04,-1.05,-1.05
247.93,-1.66,-0.61,-1.66,-0.61,0.61,0.21,1.20,-1.05,-1.04,-1.05
250.41,-1.81,-0.77,-1.81,-0.76,0.76,0.35,1.23,-1.05,-1.04,-1.04
252.92,-1.95,-0.91,-1.96,-0.91,0.91,0.50,1.27,-1.04,-1.04,-1.04
255.45,-2.11,-1.07,-2.10,-1.06,1.07,0.65,1.30,-1.04,-1.04,-1.04
258.00,-2.25,-1.21,-2.26,-1.22,1.22,0.81,1.32,-1.03,-1.04,-1.04
260.58,-2.41,-1.37,-2.41,-1.37,1.37,0.97,1.34,-1.04,-1.04,-1.04
263.19,-2.56,-1.52,-2.56,-1.52,1.52,1.13,1.36,-1.04,-1.04,-1.04
265.82,-2.70,-1.66,-2.71,-1.67,1.67,1.29,1.37,-1.03,-1.04,-1.04
268.48,-2.85,-1.82,-2.85,-1.81,1.81,1.46,1.39,-1.04,-1.04,-1.03
271.16,-2.99,-1.96,-2.99,-1.95,1.95,1.62,1.39,-1.04,-1.04,-1.03
273.87,-3.11,-2.08,-3.12,-2.09,2.08,1.79,1.40,-1.03,-1.04,-1.03
276.61,-3.25,-2.22,-3.24,-2.21,2.21,1.96,1.40,-1.04,-1.04,-1.03
279.38,-3.36,-2.33,-3.36,-2.33,2.33,2.13,1.40,-1.03,-1.03,-1.03
282.17,-3.46,-2.43,-3.47,-2.44,2.44,2.30,1.40,-1.02,-1.02,-1.03
284.99,-3.57,-2.54,-3.57,-2.55,2.55,2.47,1.40,-1.02,-1.02,-1.03
287.84,-3.68,-2.65,-3.68,-2.65,2.66,2.63,1.39,-1.02,-1.02,-1.03
290.72,-3.79,-2.77,-3.79,-2.76,2.76,2.79,1.39,-1.03,-1.03,-1.02
293.63,-3.88,-2.86,-3.88,-2.86,2.86,2.95,1.38,-1.02,-1.03,-1.02
296.57,-3.98,-2.96,-3.97,-2.95,2.95,3.09,1.37,-1.03,-1.03,-1.02
299.53,-4.05,-3.03,-4.05,-3.04,3.03,3.23,1.36,-1.02,-1.02,-1.02
302.53,-4.13,-3.11,-4.13,-3.11,3.11,3.36,1.35,-1.02,-1.02,-1.02
305.55,-4.20,-3.18,-4.20,-3.18,3.18,3.48,1.34,-1.02,-1.01,-1.02
308.61,-4.26,-3.24,-4.26,-3.25,3.25,3.58,1.33,-1.01,-1.01,-1.02
311.69,-4.32,-3.31,-4.32,-3.31,3.31,3.67,1.32,-1.01,-1.01,-1.01
314.81,-4.38,-3.37,-4.38,-3.37,3.37,3.74,1.31,-1.01,-1.01,-1.01
317.96,-4.44,-3.43,-4.43,-3.42,3.42,3.80,1.31,-1.02,-1.01,-1.01
321.14,-4.48,-3.47,-4.48,-3.47,3.47,3.84,1.30,-1.01,-1.01,-1.01
324.35,-4.52,-3.51,-4.52,-3.51,3.51,3.87,1.29,-1.01,-1.01,-1.01
327.59,-4.56,-3.55,-4.56,-3.55,3.55,3.87,1.28,-1.01,-1.01,-1.01
330.87,-4.59,-3.58,-4.58,-3.58,3.58,3.86,1.28,-1.01,-1.00,-1.01
334.18,-4.61,-3.61,-4.61,-3.60,3.61,3.84,1.27,-1.00,-1.00,-1.00
337.52,-4.61,-3.61,-4.63,-3.63,3.63,3.80,1.27,-0.98,-1.01,-1.00
340.90,-4.66,-3.66,-4.64,-3.64,3.64,3.74,1.26,-1.02,-1.01,-1.00
344.30,-4.66,-3.66,-4.64,-3.64,3.64,3.68,1.26,-1.02,-1.01,-1.00
347.75,-4.61,-3.61,-4.63,-3.63,3.63,3.60,1.26,-0.98,-1.00,-1.00
351.23,-4.61,-3.61,-4.61,-3.61,3.62,3.51,1.26,-0.99,-0.99,-1.00
354.74,-4.59,-3.59,-4.58,-3.59,3.59,3.42,1.26,-1.00,-0.99,-1.00
358.28,-4.56,-3.57,-4.56,-3.56,3.56,3.32,1.26,-1.00,-1.00,-0.99
361.87,-4.51,-3.52,-4.51,-3.52,3.51,3.21,1.26,-1.00,-1.00,-0.99
365.49,-4.46,-3.47,-4.46,-3.47,3.47,3.10,1.27,-0.99,-0.99,-0.99
369.14,-4.40,-3.41,-4.40,-3.41,3.41,2.99,1.27,-0.99,-0.99,-0.99
372.83,-4.34,-3.35,-4.34,-3.35,3.35,2.88,1.28,-0.99,-0.99,-0.99
376.56,-4.27,-3.28,-4.27,-3.28,3.28,2.76,1.28,-0.99,-0.99,-0.99
380.33,-4.19,-3.20,-4.20,-3.21,3.21,2.65,1.29,-0.98,-0.99,-0.99
384.13,-4.13,-3.14,-4.12,-3.14,3.14,2.53,1.30,-0.99,-0.98,-0.99
387.97,-4.04,-3.06,-4.04,-3.06,3.06,2.42,1.31,-0.98,-0.98,-0.98
391.85,-3.96,-2.98,-3.96,-2.98,2.98,2.31,1.32,-0.98,-0.98,-0.98
395.77,-3.88,-2.90,-3.88,-2.89,2.90,2.21,1.33,-0.98,-0.98,-0.98
399.73,-3.79,-2.81,-3.79,-2.81,2.81,2.10,1.35,-0.98,-0.98,-0.98
403.72,-3.70,-2.72,-3.70,-2.72,2.72,2.00,1.36,-0.98,-0.98,-0.98
407.76,-3.62,-2.64,-3.61,-2.63,2.63,1.90,1.37,-0.99,-0.97,-0.98
411.84,-3.51,-2.53,-3.52,-2.54,2.54,1.81,1.39,-0.97,-0.98,-0.98
415.96,-3.42,-2.45,-3.43,-2.45,2.45,1.71,1.40,-0.97,-0.98,-0.97
420.12,-3.34,-2.37,-3.33,-2.35,2.35,1.62,1.41,-0.99,-0.97,-0.97
424.32,-3.23,-2.26,-3.23,-2.26,2.26,1.54,1.43,-0.97,-0.97,-0.97
428.56,-3.12,-2.15,-3.13,-2.16,2.16,1.46,1.44,-0.96,-0.97,-0.97
432.85,-3.03,-2.06,-3.03,-2.06,2.06,1.38,1.45,-0.97,-0.97,-0.97
437.18,-2.94,-1.97,-2.93,-1.96,1.97,1.30,1.46,-0.97,-0.96,-0.97
441.55,-2.84,-1.87,-2.84,-1.87,1.87,1.23,1.48,-0.97,-0.97,-0.97
445.96,-2.73,-1.77,-2.74,-1.78,1.78,1.16,1.49,-0.95,-0.96,-0.96
450.42,-2.66,-1.70,-2.65,-1.69,1.69,1.09,1.50,-0.97,-0.96,-0.96
454.93,-2.56,-1.60,-2.56,-1.60,1.60,1.03,1.50,-0.96,-0.96,-0.96
459.48,-2.47,-1.51,-2.47,-1.51,1.51,0.97,1.51,-0.96,-0.96,-0.96
