frequency,raw,error,smoothed,error_smoothed,equalization,parametric_eq,fixed_band_eq,equalized_raw,equalized_smoothed,target
20.00,-7.72,-7.52,-7.74,-7.53,5.97,5.67,1.17,-1.75,-1.77,-0.21
20.20,-7.65,-7.45,-7.65,-7.44,5.99,5.86,1.21,-1.67,-1.66,-0.21
20.40,-7.56,-7.36,-7.55,-7.34,6.00,6.04,1.25,-1.56,-1.54,-0.21
20.61,-7.45,-7.24,-7.44,-7.23,6.01,6.19,1.29,-1.43,-1.42,-0.21
20.81,-7.29,-7.09,-7.30,-7.10,6.02,6.33,1.33,-1.27,-1.28,-0.20
21.02,-7.15,-6.95,-7.17,-6.96,6.02,6.43,1.37,-1.13,-1.14,-0.20
21.23,-7.04,-6.84,-7.03,-6.83,6.02,6.50,1.42,-1.02,-1.01,-0.20
21.44,-6.90,-6.70,-6.90,-6.70,6.02,6.54,1.46,-0.89,-0.88,-0.20
21.66,-6.77,-6.57,-6.77,-6.57,6.02,6.54,1.51,-0.74,-0.74,-0.20
21.87,-6.62,-6.43,-6.63,-6.43,6.02,6.50,1.56,-0.60,-0.61,-0.20
22.09,-6.50,-6.31,-6.49,-6.30,6.01,6.43,1.61,-0.49,-0.49,-0.20
22.31,-6.36,-6.17,-6.36,-6.17,5.98,6.33,1.66,-0.39,-0.39,-0.19
22.54,-6.23,-6.03,-6.24,-6.04,5.93,6.21,1.71,-0.30,-0.31,-0.19
22.76,-6.11,-5.92,-6.10,-5.91,5.86,6.05,1.76,-0.26,-0.24,-0.19
22.99,-5.96,-5.77,-5.97,-5.78,5.77,5.88,1.82,-0.20,-0.20,-0.19
23.22,-5.83,-5.64,-5.84,-5.65,5.66,5.69,1.87,-0.16,-0.17,-0.19
23.45,-5.71,-5.53,-5.70,-5.51,5.54,5.49,1.93,-0.17,-0.16,-0.19
23.69,-5.57,-5.38,-5.57,-5.38,5.41,5.29,1.99,-0.16,-0.16,-0.19
23.92,-5.43,-5.25,-5.44,-5.26,5.27,5.08,2.05,-0.17,-0.17,-0.18
24.16,-5.31,-5.13,-5.30,-5.12,5.12,4.87,2.11,-0.19,-0.18,-0.18
24.40,-5.17,-4.99,-5.18,-4.99,4.99,4.66,2.17,-0.18,-0.18,-0.18
24.65,-5.04,-4.86,-5.05,-4.86,4.86,4.45,2.23,-0.18,-0.18,-0.18
24.89,-4.92,-4.74,-4.91,-4.73,4.73,4.25,2.30,-0.19,-0.18,-0.18
25.14,-4.77,-4.60,-4.78,-4.60,4.60,4.05,2.36,-0.17,-0.18,-0.18
25.39,-4.63,-4.46,-4.64,-4.47,4.47,3.86,2.42,-0.16,-0.17,-0.18
25.65,-4.53,-4.35,-4.51,-4.34,4.34,3.68,2.49,-0.18,-0.17,-0.17
25.91,-4.39,-4.21,-4.39,-4.22,4.22,3.50,2.55,-0.17,-0.18,-0.17
26.16,-4.27,-4.10,-4.27,-4.09,4.09,3.33,2.62,-0.18,-0.18,-0.17
26.43,-4.14,-3.97,-4.14,-3.96,3.96,3.17,2.68,-0.17,-0.17,-0.17
26.69,-3.99,-3.83,-4.01,-3.84,3.84,3.02,2.74,-0.16,-0.17,-0.17
26.96,-3.89,-3.72,-3.88,-3.71,3.71,2.87,2.80,-0.18,-0.17,-0.17
27.23,-3.75,-3.58,-3.75,-3.58,3.58,2.73,2.86,-0.16,-0.17,-0.17
27.50,-3.64,-3.47,-3.63,-3.46,3.46,2.60,2.92,-0.18,-0.17,-0.17
27.77,-3.48,-3.32,-3.49,-3.33,3.33,2.47,2.97,-0.15,-0.16,-0.16
28.05,-3.38,-3.22,-3.37,-3.21,3.21,2.35,3.02,-0.17,-0.16,-0.16
28.33,-3.23,-3.07,-3.25,-3.09,3.09,2.24,3.07,-0.15,-0.16,-0.16
28.62,-3.14,-2.98,-3.13,-2.97,2.96,2.13,3.12,-0.17,-0.16,-0.16
28.90,-3.00,-2.85,-3.00,-2.85,2.84,2.03,3.16,-0.16,-0.16,-0.16
29.19,-2.88,-2.73,-2.88,-2.73,2.72,1.93,3.19,-0.16,-0.16,-0.16
29.48,-2.75,-2.60,-2.76,-2.60,2.61,1.84,3.23,-0.15,-0.15,-0.16
29.78,-2.64,-2.48,-2.64,-2.48,2.49,1.75,3.25,-0.15,-0.15,-0.15
30.08,-2.53,-2.37,-2.52,-2.37,2.37,1.67,3.27,-0.16,-0.15,-0.15
30.38,-2.41,-2.25,-2.41,-2.26,2.25,1.59,3.29,-0.15,-0.16,-0.15
30.68,-2.30,-2.15,-2.29,-2.14,2.14,1.51,3.30,-0.16,-0.15,-0.15
30.99,-2.18,-2.03,-2.18,-2.03,2.03,1.44,3.31,-0.15,-0.15,-0.15
31.30,-2.06,-1.91,-2.06,-1.92,1.92,1.37,3.30,-0.14,-0.14,-0.15
31.61,-1.95,-1.81,-1.95,-1.80,1.81,1.30,3.30,-0.14,-0.14,-0.15
31.93,-1.85,-1.70,-1.85,-1.70,1.70,1.23,3.28,-0.14,-0.14,-0.14
32.24,-1.74,-1.60,-1.74,-1.60,1.60,1.17,3.26,-0.15,-0.15,-0.14
32.57,-1.65,-1.50,-1.64,-1.50,1.49,1.11,3.24,-0.15,-0.15,-0.14
32.89,-1.53,-1.39,-1.54,-1.40,1.39,1.05,3.21,-0.14,-0.14,-0.14
33.22,-1.43,-1.30,-1.44,-1.30,1.30,0.99,3.17,-0.14,-0.14,-0.14
33.55,-1.33,-1.20,-1.33,-1.20,1.20,0.94,3.13,-0.13,-0.13,-0.14
33.89,-1.24,-1.11,-1.24,-1.10,1.11,0.88,3.09,-0.14,-0.13,-0.14
34.23,-1.15,-1.01,-1.15,-1.02,1.02,0.83,3.03,-0.13,-0.13,-0.14
34.57,-1.06,-0.93,-1.06,-0.93,0.93,0.78,2.98,-0.14,-0.13,-0.13
34.92,-0.99,-0.85,-0.98,-0.85,0.84,0.73,2.92,-0.14,-0.14,-0.13
35.27,-0.89,-0.76,-0.90,-0.77,0.76,0.68,2.86,-0.13,-0.14,-0.13
35.62,-0.82,-0.70,-0.81,-0.68,0.68,0.63,2.80,-0.15,-0.13,-0.13
35.97,-0.71,-0.59,-0.73,-0.60,0.60,0.58,2.73,-0.11,-0.13,-0.13
36.33,-0.64,-0.52,-0.65,-0.52,0.52,0.52,2.66,-0.12,-0.12,-0.13
36.70,-0.58,-0.45,-0.57,-0.44,0.45,0.47,2.59,-0.13,-0.12,-0.13
37.06,-0.49,-0.37,-0.50,-0.37,0.37,0.42,2.51,-0.12,-0.13,-0.12
37.43,-0.42,-0.30,-0.43,-0.30,0.30,0.37,2.44,-0.12,-0.13,-0.12
37.81,-0.35,-0.23,-0.35,-0.23,0.23,0.32,2.37,-0.13,-0.12,-0.12
38.19,-0.29,-0.17,-0.28,-0.16,0.16,0.26,2.29,-0.13,-0.12,-0.12
38.57,-0.20,-0.09,-0.21,-0.10,0.09,0.21,2.21,-0.11,-0.12,-0.12
38.95,-0.15,-0.04,-0.15,-0.03,0.03,0.15,2.14,-0.12,-0.12,-0.12
39.34,-0.08,0.03,-0.08,0.04,-0.03,0.10,2.06,-0.11,-0.11,-0.12
39.74,-0.02,0.10,-0.02,0.09,-0.09,0.04,1.98,-0.10,-0.11,-0.11
40.14,0.03,0.15,0.03,0.14,-0.14,-0.02,1.91,-0.11,-0.11,-0.11
40.54,0.08,0.19,0.08,0.19,-0.20,-0.08,1.83,-0.12,-0.11,-0.11
40.94,0.13,0.24,0.13,0.24,-0.25,-0.13,1.76,-0.12,-0.12,-0.11
41.35,0.19,0.29,0.18,0.29,-0.29,-0.19,1.68,-0.11,-0.11,-0.11
41.76,0.23,0.33,0.23,0.33,-0.33,-0.25,1.61,-0.11,-0.11,-0.11
42.18,0.27,0.37,0.27,0.38,-0.37,-0.30,1.53,-0.11,-0.10,-0.11
42.60,0.31,0.41,0.30,0.41,-0.41,-0.34,1.46,-0.10,-0.11,-0.10
43.03,0.34,0.44,0.34,0.44,-0.44,-0.38,1.39,-0.10,-0.10,-0.10
43.46,0.36,0.46,0.36,0.47,-0.46,-0.42,1.32,-0.10,-0.10,-0.10
43.90,0.39,0.50,0.38,0.48,-0.48,-0.44,1.25,-0.08,-0.09,-0.10
44.33,0.40,0.49,0.40,0.49,-0.49,-0.46,1.18,-0.09,-0.09,-0.10
44.78,0.40,0.49,0.40,0.50,-0.50,-0.47,1.11,-0.10,-0.10,-0.10
45.23,0.40,0.49,0.40,0.49,-0.50,-0.47,1.04,-0.10,-0.10,-0.10
45.68,0.40,0.49,0.40,0.49,-0.50,-0.47,0.98,-0.10,-0.10,-0.10
46.13,0.40,0.49,0.40,0.49,-0.49,-0.45,0.91,-0.10,-0.09,-0.09
46.60,0.40,0.49,0.39,0.49,-0.48,-0.44,0.85,-0.09,-0.09,-0.09
47.06,0.40,0.49,0.38,0.47,-0.47,-0.41,0.78,-0.08,-0.09,-0.09
47.53,0.36,0.44,0.37,0.46,-0.46,-0.39,0.72,-0.10,-0.09,-0.09
48.01,0.36,0.44,0.35,0.44,-0.44,-0.36,0.66,-0.08,-0.09,-0.09
48.49,0.34,0.42,0.33,0.42,-0.42,-0.33,0.60,-0.09,-0.09,-0.09
48.97,0.32,0.40,0.32,0.40,-0.40,-0.30,0.54,-0.09,-0.08,-0.09
49.46,0.31,0.39,0.30,0.38,-0.38,-0.27,0.48,-0.07,-0.08,-0.08
49.96,0.27,0.35,0.28,0.36,-0.36,-0.25,0.42,-0.09,-0.08,-0.08
50.46,0.27,0.35,0.25,0.33,-0.34,-0.22,0.37,-0.08,-0.09,-0.08
50.96,0.23,0.31,0.24,0.32,-0.32,-0.20,0.31,-0.10,-0.09,-0.08
51.47,0.23,0.30,0.23,0.31,-0.31,-0.18,0.26,-0.08,-0.08,-0.08
51.99,0.23,0.30,0.22,0.29,-0.29,-0.16,0.20,-0.07,-0.08,-0.08
52.51,0.22,0.29,0.21,0.28,-0.28,-0.14,0.15,-0.07,-0.07,-0.08
53.03,0.19,0.26,0.20,0.27,-0.27,-0.12,0.10,-0.09,-0.08,-0.07
53.56,0.19,0.26,0.19,0.26,-0.26,-0.11,0.05,-0.08,-0.08,-0.07
54.10,0.19,0.26,0.19,0.26,-0.26,-0.09,-0.00,-0.07,-0.07,-0.07
54.64,0.19,0.26,0.18,0.25,-0.25,-0.08,-0.05,-0.06,-0.06,-0.07
55.18,0.19,0.25,0.17,0.24,-0.23,-0.07,-0.10,-0.05,-0.06,-0.07
55.74,0.14,0.20,0.16,0.22,-0.22,-0.06,-0.14,-0.08,-0.06,-0.07
56.29,0.14,0.20,0.14,0.20,-0.20,-0.05,-0.18,-0.07,-0.07,-0.07
56.86,0.14,0.20,0.12,0.18,-0.18,-0.04,-0.23,-0.05,-0.06,-0.06
57.42,0.10,0.16,0.11,0.17,-0.16,-0.04,-0.27,-0.07,-0.06,-0.06
58.00,0.10,0.16,0.09,0.15,-0.15,-0.03,-0.30,-0.05,-0.06,-0.06
58.58,0.07,0.13,0.07,0.13,-0.13,-0.03,-0.34,-0.06,-0.06,-0.06
59.16,0.06,0.11,0.06,0.12,-0.12,-0.02,-0.37,-0.06,-0.06,-0.06
59.76,0.06,0.11,0.05,0.11,-0.11,-0.02,-0.41,-0.06,-0.06,-0.06
60.35,0.06,0.11,0.05,0.11,-0.12,-0.02,-0.44,-0.06,-0.06,-0.06
60.96,0.06,0.11,0.07,0.12,-0.13,-0.02,-0.47,-0.07,-0.06,-0.06
61.57,0.10,0.15,0.09,0.14,-0.15,-0.01,-0.49,-0.06,-0.06,-0.05
62.18,0.13,0.18,0.12,0.17,-0.18,-0.01,-0.52,-0.06,-0.06,-0.05
62.80,0.17,0.22,0.17,0.22,-0.22,-0.01,-0.54,-0.06,-0.06,-0.05
63.43,0.21,0.26,0.22,0.26,-0.27,-0.01,-0.56,-0.07,-0.06,-0.05
64.07,0.27,0.32,0.27,0.32,-0.33,-0.01,-0.58,-0.05,-0.06,-0.05
64.71,0.34,0.38,0.33,0.38,-0.38,-0.01,-0.60,-0.04,-0.05,-0.05
65.35,0.38,0.42,0.38,0.43,-0.43,-0.01,-0.61,-0.05,-0.05,-0.05
66.01,0.43,0.47,0.43,0.47,-0.47,-0.02,-0.63,-0.04,-0.04,-0.04
66.67,0.46,0.50,0.46,0.50,-0.49,-0.02,-0.64,-0.04,-0.03,-0.04
67.33,0.49,0.53,0.48,0.52,-0.50,-0.02,-0.65,-0.01,-0.02,-0.04
68.01,0.47,0.51,0.47,0.51,-0.48,-0.02,-0.66,-0.02,-0.02,-0.04
68.69,0.43,0.46,0.43,0.46,-0.44,-0.02,-0.66,-0.01,-0.01,-0.04
69.37,0.35,0.39,0.35,0.39,-0.38,-0.03,-0.67,-0.02,-0.02,-0.04
70.07,0.27,0.30,0.26,0.30,-0.29,-0.03,-0.67,-0.03,-0.03,-0.04
70.77,0.16,0.19,0.16,0.19,-0.19,-0.03,-0.68,-0.03,-0.03,-0.03
71.48,0.04,0.07,0.04,0.08,-0.07,-0.03,-0.68,-0.03,-0.03,-0.03
72.19,-0.07,-0.03,-0.08,-0.05,0.05,-0.04,-0.68,-0.01,-0.03,-0.03
72.91,-0.22,-0.18,-0.21,-0.18,0.17,-0.04,-0.69,-0.04,-0.03,-0.03
73.64,-0.33,-0.30,-0.32,-0.29,0.29,-0.05,-0.69,-0.04,-0.04,-0.03
74.38,-0.42,-0.40,-0.43,-0.40,0.38,-0.05,-0.69,-0.04,-0.04,-0.03
75.12,-0.50,-0.48,-0.51,-0.48,0.46,-0.05,-0.69,-0.04,-0.05,-0.03
75.87,-0.56,-0.54,-0.56,-0.54,0.51,-0.06,-0.69,-0.05,-0.05,-0.02
76.63,-0.59,-0.57,-0.59,-0.57,0.54,-0.06,-0.69,-0.05,-0.05,-0.02
77.40,-0.58,-0.56,-0.58,-0.56,0.55,-0.07,-0.69,-0.04,-0.04,-0.02
78.17,-0.55,-0.53,-0.56,-0.53,0.53,-0.07,-0.70,-0.03,-0.03,-0.02
78.95,-0.50,-0.49,-0.51,-0.49,0.49,-0.08,-0.70,-0.02,-0.02,-0.02
79.74,-0.45,-0.44,-0.45,-0.43,0.44,-0.08,-0.70,-0.02,-0.01,-0.02
80.54,-0.38,-0.37,-0.38,-0.36,0.37,-0.09,-0.70,-0.01,-0.01,-0.02
81.35,-0.30,-0.29,-0.31,-0.30,0.31,-0.10,-0.71,0.00,-0.01,-0.02
82.16,-0.23,-0.22,-0.24,-0.23,0.24,-0.10,-0.71,0.00,-0.00,-0.01
82.98,-0.18,-0.17,-0.17,-0.16,0.17,-0.11,-0.71,-0.01,-0.00,-0.01
83.81,-0.10,-0.09,-0.11,-0.10,0.11,-0.12,-0.72,0.00,-0.01,-0.01
84.65,-0.05,-0.05,-0.06,-0.05,0.05,-0.13,-0.72,-0.01,-0.01,-0.01
85.50,-0.00,0.00,0.00,0.01,-0.01,-0.13,-0.73,-0.01,-0.01,-0.01
86.35,0.06,0.06,0.06,0.06,-0.06,-0.14,-0.73,-0.01,-0.01,-0.01
87.22,0.12,0.12,0.11,0.12,-0.11,-0.15,-0.74,0.00,-0.00,-0.01
88.09,0.17,0.17,0.16,0.17,-0.16,-0.16,-0.75,0.00,-0.00,-0.00
88.97,0.21,0.21,0.21,0.21,-0.21,-0.17,-0.76,-0.01,-0.00,-0.00
89.86,0.26,0.26,0.26,0.26,-0.26,-0.18,-0.77,-0.01,-0.01,-0.00
90.76,0.31,0.31,0.30,0.30,-0.31,-0.19,-0.78,-0.00,-0.00,0.00
91.66,0.36,0.35,0.36,0.35,-0.36,-0.20,-0.79,-0.00,-0.00,0.00
92.58,0.41,0.40,0.41,0.40,-0.40,-0.21,-0.80,0.00,0.00,0.00
93.51,0.46,0.45,0.46,0.45,-0.45,-0.22,-0.81,0.00,0.01,0.00
94.44,0.51,0.50,0.51,0.50,-0.50,-0.23,-0.82,0.01,0.01,0.01
95.39,0.56,0.55,0.55,0.54,-0.54,-0.24,-0.83,0.01,0.01,0.01
96.34,0.60,0.59,0.60,0.59,-0.59,-0.26,-0.85,0.01,0.01,0.01
97.30,0.64,0.63,0.64,0.63,-0.63,-0.27,-0.86,0.00,0.01,0.01
98.28,0.69,0.67,0.68,0.67,-0.68,-0.29,-0.87,0.01,0.01,0.01
99.26,0.73,0.71,0.73,0.71,-0.72,-0.30,-0.89,0.01,0.01,0.01
100.25,0.77,0.75,0.77,0.75,-0.75,-0.31,-0.90,0.01,0.01,0.01
101.25,0.81,0.79,0.80,0.79,-0.79,-0.33,-0.92,0.02,0.02,0.02
102.27,0.84,0.82,0.84,0.82,-0.82,-0.35,-0.93,0.02,0.02,0.02
103.29,0.87,0.85,0.86,0.84,-0.85,-0.36,-0.95,0.02,0.01,0.02
104.32,0.88,0.86,0.88,0.86,-0.86,-0.38,-0.96,0.01,0.01,0.02
105.37,0.89,0.86,0.90,0.88,-0.88,-0.40,-0.97,0.01,0.02,0.02
106.42,0.92,0.89,0.91,0.88,-0.88,-0.42,-0.99,0.04,0.03,0.02
107.48,0.92,0.89,0.90,0.88,-0.87,-0.44,-1.00,0.05,0.03,0.02
108.56,0.88,0.85,0.89,0.86,-0.85,-0.46,-1.01,0.02,0.04,0.02
109.64,0.86,0.83,0.85,0.83,-0.82,-0.48,-1.02,0.03,0.03,0.03
110.74,0.82,0.79,0.81,0.79,-0.78,-0.50,-1.03,0.03,0.03,0.03
111.85,0.77,0.74,0.77,0.74,-0.73,-0.52,-1.04,0.03,0.04,0.03
112.97,0.73,0.70,0.72,0.69,-0.68,-0.54,-1.05,0.05,0.04,0.03
114.10,0.66,0.62,0.66,0.63,-0.62,-0.56,-1.05,0.04,0.04,0.03
115.24,0.60,0.56,0.60,0.56,-0.57,-0.58,-1.06,0.03,0.03,0.03
116.39,0.55,0.51,0.54,0.51,-0.52,-0.60,-1.06,0.02,0.02,0.03
117.55,0.50,0.46,0.51,0.47,-0.49,-0.62,-1.06,0.01,0.02,0.04
118.73,0.49,0.45,0.48,0.45,-0.47,-0.65,-1.05,0.02,0.02,0.04
119.92,0.49,0.45,0.48,0.44,-0.46,-0.67,-1.05,0.03,0.02,0.04
121.12,0.49,0.45,0.50,0.46,-0.46,-0.69,-1.04,0.02,0.03,0.04
122.33,0.53,0.48,0.52,0.48,-0.48,-0.70,-1.03,0.04,0.04,0.04
123.55,0.56,0.51,0.56,0.51,-0.51,-0.72,-1.01,0.04,0.04,0.04
124.79,0.60,0.55,0.60,0.55,-0.54,-0.74,-0.99,0.05,0.05,0.04
126.03,0.64,0.59,0.63,0.59,-0.58,-0.75,-0.97,0.06,0.06,0.05
127.29,0.67,0.62,0.67,0.62,-0.61,-0.77,-0.95,0.05,0.05,0.05
128.57,0.71,0.66,0.70,0.65,-0.64,-0.78,-0.93,0.07,0.06,0.05
129.85,0.71,0.66,0.72,0.67,-0.66,-0.79,-0.90,0.04,0.06,0.05
131.15,0.75,0.69,0.74,0.68,-0.68,-0.79,-0.87,0.07,0.06,0.05
132.46,0.75,0.69,0.74,0.69,-0.69,-0.80,-0.83,0.06,0.06,0.05
133.79,0.75,0.69,0.75,0.70,-0.69,-0.80,-0.79,0.05,0.06,0.05
135.12,0.75,0.69,0.75,0.69,-0.70,-0.79,-0.75,0.05,0.05,0.06
136.48,0.75,0.69,0.75,0.69,-0.70,-0.79,-0.71,0.05,0.05,0.06
137.84,0.75,0.69,0.75,0.69,-0.69,-0.78,-0.67,0.05,0.05,0.06
139.22,0.75,0.69,0.75,0.69,-0.69,-0.77,-0.62,0.06,0.06,0.06
140.61,0.75,0.68,0.75,0.69,-0.68,-0.76,-0.57,0.06,0.06,0.06
142.02,0.75,0.68,0.75,0.69,-0.68,-0.74,-0.52,0.07,0.07,0.06
143.44,0.75,0.68,0.74,0.68,-0.67,-0.72,-0.47,0.07,0.07,0.06
144.87,0.74,0.67,0.73,0.66,-0.67,-0.70,-0.41,0.07,0.06,0.06
146.32,0.71,0.64,0.72,0.65,-0.66,-0.67,-0.36,0.05,0.06,0.07
147.78,0.71,0.64,0.71,0.64,-0.65,-0.64,-0.30,0.06,0.06,0.07
149.26,0.71,0.64,0.71,0.64,-0.64,-0.62,-0.24,0.07,0.07,0.07
150.75,0.71,0.64,0.70,0.63,-0.63,-0.58,-0.18,0.08,0.08,0.07
152.26,0.71,0.63,0.69,0.62,-0.61,-0.55,-0.12,0.09,0.08,0.07
153.78,0.67,0.59,0.68,0.60,-0.60,-0.52,-0.06,0.06,0.07,0.07
155.32,0.66,0.58,0.66,0.59,-0.59,-0.48,0.00,0.06,0.07,0.07
156.88,0.66,0.58,0.65,0.57,-0.58,-0.44,0.07,0.07,0.07,0.08
158.44,0.66,0.58,0.64,0.56,-0.57,-0.40,0.13,0.09,0.07,0.08
160.03,0.62,0.54,0.63,0.55,-0.55,-0.37,0.20,0.06,0.08,0.08
161.63,0.62,0.54,0.62,0.54,-0.54,-0.33,0.27,0.08,0.08,0.08
163.24,0.62,0.53,0.60,0.52,-0.52,-0.28,0.33,0.10,0.08,0.08
164.88,0.58,0.49,0.59,0.50,-0.50,-0.24,0.40,0.08,0.09,0.08
166.53,0.58,0.49,0.56,0.48,-0.48,-0.20,0.47,0.10,0.09,0.08
168.19,0.53,0.44,0.54,0.45,-0.45,-0.16,0.54,0.07,0.08,0.09
169.87,0.52,0.43,0.51,0.42,-0.42,-0.12,0.61,0.09,0.09,0.09
171.57,0.49,0.40,0.48,0.39,-0.39,-0.08,0.68,0.09,0.09,0.09
173.29,0.45,0.36,0.45,0.36,-0.36,-0.03,0.75,0.08,0.09,0.09
175.02,0.43,0.33,0.42,0.33,-0.33,0.01,0.83,0.10,0.09,0.09
176.77,0.38,0.28,0.38,0.29,-0.29,0.05,0.90,0.08,0.09,0.09
178.54,0.35,0.25,0.35,0.25,-0.25,0.09,0.97,0.09,0.09,0.09
180.32,0.31,0.21,0.30,0.21,-0.21,0.14,1.05,0.10,0.09,0.10
182.13,0.27,0.17,0.26,0.17,-0.16,0.18,1.12,0.10,0.10,0.10
183.95,0.22,0.12,0.22,0.12,-0.12,0.23,1.20,0.10,0.10,0.10
185.79,0.17,0.07,0.16,0.06,-0.06,0.27,1.28,0.10,0.10,0.10
187.65,0.11,0.00,0.11,0.01,-0.01,0.31,1.35,0.10,0.10,0.10
189.52,0.05,-0.06,0.05,-0.06,0.06,0.36,1.43,0.10,0.10,0.10
191.42,-0.01,-0.12,-0.02,-0.12,0.12,0.41,1.51,0.11,0.10,0.10
193.33,-0.08,-0.19,-0.08,-0.19,0.19,0.45,1.59,0.10,0.10,0.10
195.27,-0.15,-0.26,-0.16,-0.26,0.26,0.50,1.67,0.10,0.10,0.11
197.22,-0.23,-0.34,-0.23,-0.34,0.33,0.55,1.75,0.10,0.10,0.11
199.19,-0.30,-0.41,-0.30,-0.41,0.41,0.60,1.83,0.11,0.11,0.11
201.18,-0.37,-0.48,-0.38,-0.49,0.49,0.65,1.90,0.12,0.11,0.11
203.19,-0.45,-0.57,-0.46,-0.57,0.57,0.70,1.98,0.12,0.12,0.11
205.23,-0.54,-0.66,-0.55,-0.66,0.66,0.75,2.06,0.12,0.12,0.11
207.28,-0.64,-0.76,-0.64,-0.75,0.75,0.81,2.14,0.11,0.12,0.11
209.35,-0.72,-0.84,-0.73,-0.85,0.84,0.87,2.22,0.12,0.11,0.12
211.44,-0.82,-0.94,-0.83,-0.95,0.94,0.92,2.29,0.12,0.11,0.12
213.56,-0.93,-1.05,-0.93,-1.05,1.04,0.98,2.37,0.11,0.12,0.12
215.69,-1.03,-1.15,-1.03,-1.15,1.15,1.05,2.44,0.12,0.12,0.12
217.85,-1.13,-1.26,-1.14,-1.26,1.26,1.11,2.51,0.13,0.13,0.12
220.03,-1.24,-1.37,-1.25,-1.37,1.38,1.18,2.58,0.13,0.13,0.12
222.23,-1.36,-1.49,-1.37,-1.49,1.50,1.24,2.65,0.14,0.13,0.12
224.45,-1.51,-1.64,-1.50,-1.62,1.63,1.32,2.71,0.11,0.13,0.13
226.70,-1.62,-1.75,-1.63,-1.76,1.76,1.39,2.77,0.13,0.13,0.13
228.96,-1.76,-1.89,-1.77,-1.90,1.89,1.47,2.83,0.13,0.13,0.13
231.25,-1.90,-2.03,-1.90,-2.03,2.03,1.55,2.88,0.13,0.13,0.13
233.57,-2.04,-2.18,-2.04,-2.17,2.17,1.63,2.93,0.13,0.13,0.13
235.90,-2.17,-2.31,-2.18,-2.31,2.31,1.72,2.98,0.14,0.13,0.13
238.26,-2.32,-2.46,-2.32,-2.45,2.45,1.81,3.02,0.13,0.13,0.13
240.64,-2.45,-2.59,-2.46,-2.59,2.59,1.90,3.05,0.14,0.13,0.14
243.05,-2.59,-2.73,-2.60,-2.73,2.73,1.99,3.08,0.13,0.13,0.14
245.48,-2.73,-2.87,-2.73,-2.86,2.86,2.09,3.11,0.13,0.14,0.14
247.93,-2.84,-2.98,-2.85,-2.99,2.99,2.20,3.13,0.15,0.14,0.14
250.41,-2.97,-3.12,-2.98,-3.12,3.12,2.31,3.14,0.14,0.14,0.14
252.92,-3.09,-3.24,-3.10,-3.24,3.24,2.42,3.15,0.14,0.14,0.14
255.45,-3.22,-3.37,-3.22,-3.36,3.35,2.53,3.15,0.13,0.14,0.14
258.00,-3.32,-3.47,-3.32,-3.47,3.47,2.65,3.15,0.14,0.14,0.14
260.58,-3.42,-3.57,-3.42,-3.57,3.57,2.77,3.14,0.15,0.15,0.15
263.19,-3.50,-3.65,-3.52,-3.67,3.67,2.89,3.13,0.17,0.15,0.15
265.82,-3.61,-3.76,-3.61,-3.76,3.76,3.01,3.11,0.15,0.15,0.15
268.48,-3.71,-3.86,-3.70,-3.85,3.85,3.14,3.09,0.14,0.15,0.15
271.16,-3.77,-3.93,-3.79,-3.94,3.94,3.26,3.07,0.16,0.15,0.15
273.87,-3.86,-4.02,-3.86,-4.01,4.01,3.39,3.04,0.15,0.16,0.15
276.61,-3.91,-4.07,-3.92,-4.08,4.08,3.51,3.01,0.17,0.16,0.15
279.38,-3.98,-4.14,-3.98,-4.14,4.14,3.63,2.97,0.16,0.16,0.16
282.17,-4.03,-4.19,-4.03,-4.19,4.19,3.74,2.93,0.16,0.16,0.16
284.99,-4.06,-4.22,-4.07,-4.23,4.23,3.85,2.89,0.17,0.16,0.16
287.84,-4.10,-4.26,-4.10,-4.26,4.25,3.95,2.85,0.15,0.15,0.16
290.72,-4.10,-4.27,-4.11,-4.27,4.26,4.04,2.81,0.15,0.15,0.16
293.63,-4.09,-4.26,-4.09,-4.26,4.24,4.12,2.76,0.15,0.15,0.16
296.57,-4.05,-4.22,-4.05,-4.22,4.20,4.19,2.71,0.15,0.15,0.16
299.53,-3.99,-4.16,-4.00,-4.16,4.14,4.24,2.67,0.15,0.15,0.17
302.53,-3.91,-4.08,-3.92,-4.08,4.07,4.28,2.62,0.15,0.15,0.17
305.55,-3.82,-3.99,-3.82,-3.99,3.97,4.31,2.57,0.15,0.16,0.17
308.61,-3.70,-3.87,-3.70,-3.87,3.87,4.32,2.52,0.17,0.17,0.17
311.69,-3.58,-3.76,-3.59,-3.76,3.77,4.31,2.47,0.18,0.18,0.17
314.81,-3.47,-3.65,-3.48,-3.65,3.67,4.28,2.43,0.19,0.19,0.17
317.96,-3.39,-3.57,-3.39,-3.56,3.58,4.24,2.38,0.19,0.19,0.17
321.14,-3.30,-3.48,-3.31,-3.48,3.51,4.19,2.33,0.20,0.20,0.18
324.35,-3.25,-3.43,-3.25,-3.43,3.45,4.12,2.29,0.20,0.20,0.18
327.59,-3.20,-3.38,-3.21,-3.39,3.41,4.04,2.25,0.21,0.20,0.18
330.87,-3.19,-3.37,-3.20,-3.37,3.39,3.95,2.20,0.19,0.19,0.18
334.18,-3.19,-3.38,-3.19,-3.37,3.37,3.86,2.16,0.18,0.18,0.18
337.52,-3.19,-3.38,-3.19,-3.38,3.36,3.75,2.12,0.17,0.17,0.18
340.90,-3.19,-3.38,-3.19,-3.37,3.35,3.64,2.08,0.16,0.17,0.18
344.30,-3.15,-3.34,-3.16,-3.35,3.33,3.53,2.05,0.18,0.17,0.18
347.75,-3.13,-3.32,-3.13,-3.32,3.30,3.41,2.01,0.17,0.17,0.19
351.23,-3.08,-3.27,-3.09,-3.27,3.26,3.30,1.98,0.18,0.18,0.19
354.74,-3.03,-3.22,-3.03,-3.22,3.21,3.18,1.95,0.17,0.18,0.19
358.28,-2.95,-3.14,-2.95,-3.14,3.14,3.07,1.92,0.19,0.19,0.19
361.87,-2.87,-3.07,-2.87,-3.07,3.07,2.95,1.89,0.19,0.19,0.19
365.49,-2.77,-2.97,-2.79,-2.98,2.99,2.84,1.86,0.21,0.20,0.19
369.14,-2.71,-2.91,-2.70,-2.90,2.91,2.73,1.83,0.19,0.20,0.19
372.83,-2.61,-2.81,-2.62,-2.82,2.82,2.62,1.81,0.21,0.20,0.20
376.56,-2.54,-2.74,-2.54,-2.74,2.73,2.52,1.78,0.19,0.20,0.20
380.33,-2.44,-2.64,-2.45,-2.65,2.65,2.42,1.76,0.21,0.20,0.20
384.13,-2.37,-2.57,-2.37,-2.57,2.57,2.32,1.74,0.19,0.20,0.20
387.97,-2.28,-2.49,-2.28,-2.48,2.49,2.23,1.72,0.20,0.20,0.20
391.85,-2.19,-2.40,-2.20,-2.40,2.41,2.14,1.71,0.21,0.20,0.20
395.77,-2.12,-2.33,-2.12,-2.33,2.33,2.06,1.69,0.20,0.21,0.20
399.73,-2.04,-2.25,-2.04,-2.25,2.25,1.98,1.67,0.21,0.21,0.21
403.72,-1.97,-2.18,-1.97,-2.18,2.18,1.90,1.66,0.21,0.21,0.21
407.76,-1.89,-2.10,-1.90,-2.11,2.11,1.83,1.65,0.21,0.21,0.21
411.84,-1.83,-2.04,-1.83,-2.04,2.04,1.76,1.64,0.21,0.21,0.21
415.96,-1.77,-1.99,-1.77,-1.98,1.98,1.69,1.62,0.20,0.21,0.21
420.12,-1.70,-1.92,-1.71,-1.92,1.92,1.63,1.61,0.21,0.21,0.21
424.32,-1.64,-1.86,-1.64,-1.85,1.86,1.57,1.60,0.21,0.22,0.21
428.56,-1.57,-1.79,-1.58,-1.79,1.80,1.51,1.59,0.23,0.22,0.22
432.85,-1.52,-1.74,-1.53,-1.74,1.75,1.46,1.59,0.23,0.22,0.22
437.18,-1.48,-1.70,-1.48,-1.70,1.70,1.40,1.58,0.22,0.22,0.22
441.55,-1.44,-1.66,-1.44,-1.66,1.66,1.36,1.57,0.21,0.22,0.22
445.96,-1.39,-1.62,-1.39,-1.61,1.61,1.31,1.56,0.22,0.22,0.22
450.42,-1.33,-1.56,-1.35,-1.57,1.56,1.26,1.55,0.23,0.22,0.22
454.93,-1.30,-1.53,-1.30,-1.52,1.51,1.22,1.54,0.21,0.22,0.22
459.48,-1.24,-1.47,-1.24,-1.47,1.46,1.18,1.54,0.21,0.21,0.22
464.07,-1.18,-1.41,-1.18,-1.41,1.40,1.14,1.53,0.22,0.22,0.23
468.71,-1.11,-1.34,-1.12,-1.34,1.34,1.11,1.52,0.23,0.22,0.23
473.40,-1.04,-1.27,-1.05,-1.28,1.28,1.07,1.51,0.23,0.23,0.23
478.13,-0.98,-1.21,-0.98,-1.21,1.22,1.04,1.50,0.23,0.24,0.23
482.91,-0.91,-1.15,-0.92,-1.15,1.16,1.01,1.49,0.24,0.24,0.23
487.74,-0.86,-1.10,-0.86,-1.10,1.10,0.98,1.48,0.24,0.24,0.23
492.62,-0.81,-1.05,-0.81,-1.05,1.05,0.95,1.46,0.24,0.24,0.23
