frequency,raw,error,smoothed,error_smoothed,equalization,parametric_eq,fixed_band_eq,equalized_raw,equalized_smoothed,target
20.00,-9.13,-7.01,-9.13,-7.00,4.02,-1.94,-2.14,-5.11,-5.10,-2.13
20.20,-8.80,-6.69,-8.81,-6.69,3.77,-1.99,-2.20,-5.04,-5.04,-2.12
20.40,-8.47,-6.36,-8.48,-6.37,3.51,-2.04,-2.26,-4.96,-4.97,-2.11
20.61,-8.15,-6.04,-8.15,-6.05,3.25,-2.08,-2.33,-4.90,-4.90,-2.11
20.81,-7.82,-5.72,-7.82,-5.72,2.99,-2.13,-2.40,-4.83,-4.83,-2.10
21.02,-7.49,-5.40,-7.48,-5.38,2.73,-2.18,-2.47,-4.76,-4.75,-2.10
21.23,-7.12,-5.03,-7.13,-5.04,2.47,-2.23,-2.54,-4.65,-4.65,-2.09
21.44,-6.76,-4.67,-6.77,-4.68,2.22,-2.29,-2.61,-4.54,-4.55,-2.09
21.66,-6.41,-4.32,-6.40,-4.31,1.96,-2.34,-2.69,-4.45,-4.44,-2.09
21.87,-6.04,-3.95,-6.04,-3.96,1.70,-2.40,-2.77,-4.34,-4.34,-2.09
22.09,-5.69,-3.61,-5.70,-3.62,1.44,-2.46,-2.85,-4.25,-4.26,-2.08
22.31,-5.37,-3.29,-5.37,-3.28,1.18,-2.51,-2.93,-4.19,-4.18,-2.08
22.54,-5.05,-2.96,-5.05,-2.96,0.92,-2.58,-3.02,-4.13,-4.12,-2.09
22.76,-4.72,-2.62,-4.72,-2.63,0.66,-2.64,-3.11,-4.06,-4.06,-2.10
22.99,-4.39,-2.30,-4.39,-2.29,0.41,-2.70,-3.19,-3.99,-3.98,-2.10
23.22,-4.04,-1.95,-4.05,-1.94,0.15,-2.77,-3.29,-3.90,-3.90,-2.10
23.45,-3.69,-1.58,-3.69,-1.59,-0.11,-2.84,-3.38,-3.80,-3.80,-2.11
23.69,-3.34,-1.23,-3.33,-1.23,-0.37,-2.91,-3.48,-3.71,-3.70,-2.11
23.92,-2.97,-0.86,-2.97,-0.87,-0.63,-2.98,-3.57,-3.60,-3.60,-2.11
24.16,-2.62,-0.51,-2.62,-0.51,-0.89,-3.06,-3.67,-3.51,-3.50,-2.11
24.40,-2.26,-0.15,-2.26,-0.16,-1.14,-3.14,-3.77,-3.40,-3.41,-2.11
24.65,-1.92,0.19,-1.91,0.20,-1.40,-3.22,-3.88,-3.32,-3.31,-2.11
24.89,-1.55,0.56,-1.55,0.56,-1.66,-3.31,-3.98,-3.21,-3.21,-2.11
25.14,-1.19,0.92,-1.19,0.93,-1.92,-3.39,-4.08,-3.11,-3.11,-2.11
25.39,-0.82,1.30,-0.82,1.29,-2.18,-3.49,-4.19,-2.99,-3.00,-2.12
25.65,-0.46,1.66,-0.46,1.66,-2.44,-3.58,-4.30,-2.89,-2.89,-2.12
25.91,-0.10,2.02,-0.09,2.03,-2.69,-3.68,-4.40,-2.79,-2.78,-2.12
26.16,0.29,2.41,0.28,2.40,-2.95,-3.78,-4.51,-2.66,-2.67,-2.12
26.43,0.66,2.78,0.67,2.79,-3.21,-3.89,-4.61,-2.55,-2.54,-2.12
26.69,1.06,3.17,1.06,3.17,-3.48,-4.00,-4.72,-2.42,-2.42,-2.12
26.96,1.43,3.55,1.41,3.53,-3.74,-4.12,-4.82,-2.31,-2.33,-2.12
27.23,1.75,3.87,1.76,3.88,-4.00,-4.24,-4.93,-2.24,-2.24,-2.12
27.50,2.07,4.18,2.09,4.20,-4.24,-4.37,-5.03,-2.18,-2.16,-2.12
27.77,2.39,4.51,2.38,4.50,-4.48,-4.50,-5.12,-2.09,-2.10,-2.12
28.05,2.67,4.79,2.64,4.76,-4.71,-4.64,-5.22,-2.04,-2.07,-2.12
28.33,2.86,4.98,2.86,4.97,-4.94,-4.78,-5.31,-2.09,-2.09,-2.12
28.62,3.03,5.15,3.04,5.16,-5.18,-4.93,-5.39,-2.14,-2.13,-2.12
28.90,3.23,5.34,3.24,5.35,-5.41,-5.08,-5.47,-2.19,-2.17,-2.11
29.19,3.47,5.57,3.47,5.58,-5.66,-5.23,-5.55,-2.19,-2.18,-2.11
29.48,3.74,5.85,3.74,5.84,-5.90,-5.38,-5.62,-2.16,-2.16,-2.11
29.78,4.01,6.11,4.01,6.11,-6.13,-5.53,-5.68,-2.11,-2.12,-2.10
30.08,4.26,6.36,4.25,6.35,-6.33,-5.68,-5.74,-2.07,-2.08,-2.10
30.38,4.45,6.55,4.48,6.58,-6.51,-5.82,-5.79,-2.05,-2.03,-2.10
30.68,4.65,6.74,4.66,6.76,-6.65,-5.95,-5.83,-2.00,-1.99,-2.10
30.99,4.83,6.93,4.77,6.87,-6.76,-6.06,-5.86,-1.92,-1.98,-2.10
31.30,4.80,6.89,4.79,6.89,-6.83,-6.17,-5.89,-2.03,-2.03,-2.10
31.61,4.75,6.84,4.76,6.86,-6.87,-6.27,-5.91,-2.13,-2.11,-2.10
31.93,4.70,6.80,4.73,6.83,-6.91,-6.35,-5.92,-2.21,-2.18,-2.10
32.24,4.76,6.87,4.75,6.86,-6.95,-6.42,-5.93,-2.19,-2.20,-2.11
32.57,4.84,6.94,4.83,6.93,-7.00,-6.48,-5.92,-2.17,-2.18,-2.11
32.89,4.93,7.04,4.94,7.05,-7.08,-6.54,-5.91,-2.15,-2.14,-2.11
33.22,5.06,7.18,5.06,7.17,-7.19,-6.59,-5.90,-2.13,-2.13,-2.12
33.55,5.20,7.32,5.19,7.31,-7.33,-6.64,-5.88,-2.13,-2.13,-2.12
33.89,5.34,7.46,5.34,7.47,-7.48,-6.69,-5.85,-2.14,-2.13,-2.13
34.23,5.50,7.62,5.50,7.63,-7.62,-6.74,-5.82,-2.13,-2.12,-2.13
34.57,5.65,7.77,5.65,7.78,-7.75,-6.80,-5.78,-2.11,-2.10,-2.13
34.92,5.80,7.93,5.78,7.91,-7.86,-6.85,-5.74,-2.06,-2.08,-2.13
35.27,5.87,7.99,5.87,7.99,-7.95,-6.91,-5.70,-2.08,-2.08,-2.13
35.62,5.90,8.02,5.91,8.04,-8.00,-6.97,-5.65,-2.11,-2.09,-2.13
35.97,5.93,8.05,5.91,8.04,-8.03,-7.03,-5.61,-2.11,-2.12,-2.13
36.33,5.90,8.02,5.90,8.03,-8.03,-7.09,-5.56,-2.14,-2.13,-2.13
36.70,5.87,7.99,5.87,8.00,-8.01,-7.15,-5.51,-2.15,-2.14,-2.13
37.06,5.84,7.96,5.83,7.96,-7.98,-7.21,-5.46,-2.14,-2.14,-2.13
37.43,5.80,7.92,5.80,7.92,-7.93,-7.28,-5.42,-2.13,-2.13,-2.13
37.81,5.76,7.87,5.75,7.88,-7.88,-7.34,-5.37,-2.12,-2.13,-2.12
38.19,5.71,7.82,5.71,7.82,-7.83,-7.40,-5.32,-2.12,-2.13,-2.12
38.57,5.66,7.77,5.66,7.77,-7.78,-7.46,-5.28,-2.13,-2.13,-2.12
38.95,5.61,7.71,5.61,7.72,-7.74,-7.52,-5.23,-2.13,-2.13,-2.11
39.34,5.57,7.67,5.57,7.68,-7.69,-7.57,-5.19,-2.12,-2.12,-2.11
39.74,5.53,7.63,5.53,7.63,-7.63,-7.63,-5.15,-2.10,-2.10,-2.11
40.14,5.49,7.59,5.48,7.59,-7.57,-7.67,-5.12,-2.08,-2.09,-2.11
40.54,5.42,7.52,5.42,7.53,-7.51,-7.72,-5.09,-2.09,-2.08,-2.11
40.94,5.36,7.46,5.35,7.46,-7.44,-7.76,-5.06,-2.09,-2.09,-2.11
41.35,5.27,7.37,5.26,7.37,-7.37,-7.79,-5.03,-2.11,-2.11,-2.11
41.76,5.17,7.28,5.17,7.29,-7.30,-7.82,-5.01,-2.13,-2.12,-2.12
42.18,5.09,7.20,5.09,7.21,-7.22,-7.84,-4.99,-2.14,-2.13,-2.12
42.60,5.03,7.14,5.02,7.14,-7.15,-7.85,-4.97,-2.13,-2.13,-2.12
43.03,4.97,7.08,4.96,7.08,-7.09,-7.86,-4.96,-2.12,-2.13,-2.12
43.46,4.90,7.01,4.90,7.02,-7.02,-7.86,-4.95,-2.13,-2.13,-2.12
43.90,4.83,6.96,4.83,6.96,-6.97,-7.86,-4.95,-2.14,-2.13,-2.13
44.33,4.78,6.90,4.78,6.90,-6.91,-7.85,-4.95,-2.13,-2.13,-2.13
44.78,4.73,6.85,4.73,6.86,-6.84,-7.83,-4.95,-2.11,-2.12,-2.13
45.23,4.68,6.80,4.67,6.80,-6.77,-7.80,-4.96,-2.10,-2.10,-2.13
45.68,4.61,6.73,4.61,6.73,-6.71,-7.77,-4.97,-2.10,-2.10,-2.13
46.13,4.54,6.65,4.53,6.65,-6.64,-7.73,-4.98,-2.11,-2.12,-2.12
46.60,4.44,6.56,4.44,6.56,-6.58,-7.68,-5.00,-2.15,-2.14,-2.12
47.06,4.36,6.46,4.37,6.48,-6.52,-7.63,-5.03,-2.16,-2.15,-2.11
47.53,4.32,6.41,4.32,6.42,-6.45,-7.57,-5.05,-2.13,-2.13,-2.10
48.01,4.29,6.37,4.29,6.38,-6.37,-7.51,-5.08,-2.09,-2.08,-2.09
48.49,4.27,6.34,4.27,6.35,-6.30,-7.44,-5.11,-2.03,-2.03,-2.08
48.97,4.24,6.30,4.21,6.27,-6.22,-7.36,-5.15,-1.98,-2.01,-2.07
49.46,4.12,6.17,4.12,6.17,-6.14,-7.29,-5.18,-2.03,-2.03,-2.06
49.96,3.99,6.03,4.00,6.05,-6.07,-7.20,-5.22,-2.08,-2.06,-2.04
50.46,3.91,5.93,3.91,5.93,-5.98,-7.11,-5.27,-2.08,-2.08,-2.03
50.96,3.84,5.84,3.85,5.87,-5.90,-7.02,-5.31,-2.06,-2.04,-2.01
51.47,3.82,5.81,3.82,5.82,-5.81,-6.93,-5.36,-1.99,-1.99,-2.00
51.99,3.81,5.79,3.77,5.75,-5.73,-6.83,-5.40,-1.92,-1.96,-1.99
52.51,3.70,5.68,3.70,5.68,-5.66,-6.73,-5.45,-1.96,-1.96,-1.98
53.03,3.60,5.56,3.62,5.59,-5.60,-6.63,-5.50,-2.00,-1.98,-1.97
53.56,3.55,5.50,3.55,5.50,-5.54,-6.53,-5.55,-1.99,-1.99,-1.96
54.10,3.51,5.44,3.51,5.45,-5.47,-6.42,-5.59,-1.97,-1.96,-1.94
54.64,3.49,5.41,3.48,5.41,-5.41,-6.32,-5.64,-1.92,-1.92,-1.93
55.18,3.46,5.37,3.44,5.36,-5.34,-6.21,-5.69,-1.88,-1.89,-1.92
55.74,3.39,5.30,3.39,5.31,-5.27,-6.10,-5.73,-1.88,-1.87,-1.92
56.29,3.32,5.22,3.33,5.23,-5.20,-5.99,-5.77,-1.89,-1.88,-1.91
56.86,3.26,5.15,3.22,5.12,-5.14,-5.89,-5.80,-1.88,-1.92,-1.90
57.42,3.14,5.03,3.13,5.03,-5.07,-5.78,-5.84,-1.93,-1.94,-1.90
58.00,3.00,4.89,3.10,5.00,-5.00,-5.67,-5.86,-2.00,-1.90,-1.90
58.58,3.10,4.99,3.05,4.95,-4.94,-5.57,-5.89,-1.84,-1.89,-1.90
59.16,3.09,4.99,2.99,4.88,-4.89,-5.46,-5.90,-1.80,-1.90,-1.90
59.76,2.86,4.76,2.94,4.84,-4.85,-5.36,-5.91,-1.99,-1.91,-1.90
60.35,2.82,4.73,2.88,4.79,-4.82,-5.26,-5.92,-2.00,-1.94,-1.91
60.96,2.93,4.84,2.86,4.77,-4.79,-5.15,-5.91,-1.87,-1.94,-1.92
61.57,2.88,4.80,2.86,4.79,-4.77,-5.05,-5.90,-1.89,-1.90,-1.93
62.18,2.81,4.75,2.83,4.77,-4.74,-4.95,-5.88,-1.93,-1.91,-1.95
62.80,2.75,4.71,2.75,4.72,-4.72,-4.86,-5.86,-1.97,-1.97,-1.97
63.43,2.69,4.68,2.68,4.68,-4.69,-4.76,-5.82,-2.00,-2.00,-2.00
64.07,2.62,4.63,2.62,4.64,-4.65,-4.67,-5.78,-2.03,-2.03,-2.02
64.71,2.56,4.60,2.55,4.60,-4.60,-4.58,-5.74,-2.04,-2.04,-2.05
65.35,2.49,4.55,2.50,4.56,-4.53,-4.49,-5.68,-2.05,-2.04,-2.07
66.01,2.43,4.51,2.43,4.52,-4.48,-4.40,-5.62,-2.05,-2.04,-2.09
66.67,2.36,4.46,2.31,4.42,-4.42,-4.31,-5.55,-2.07,-2.11,-2.11
67.33,2.23,4.34,2.21,4.33,-4.37,-4.23,-5.47,-2.15,-2.16,-2.12
68.01,2.03,4.16,2.14,4.27,-4.32,-4.15,-5.39,-2.30,-2.18,-2.14
68.69,2.14,4.28,2.08,4.23,-4.27,-4.07,-5.31,-2.13,-2.19,-2.15
69.37,2.12,4.27,2.08,4.24,-4.22,-3.99,-5.22,-2.10,-2.14,-2.16
70.07,2.00,4.16,2.07,4.24,-4.17,-3.92,-5.12,-2.18,-2.10,-2.17
70.77,2.05,4.22,1.95,4.13,-4.13,-3.85,-5.02,-2.08,-2.18,-2.18
71.48,1.88,4.06,1.91,4.10,-4.08,-3.78,-4.92,-2.20,-2.17,-2.18
72.19,1.74,3.92,1.86,4.04,-4.03,-3.72,-4.82,-2.29,-2.17,-2.19
72.91,1.94,4.14,1.74,3.94,-3.96,-3.66,-4.71,-2.02,-2.23,-2.20
73.64,1.62,3.82,1.72,3.93,-3.91,-3.60,-4.61,-2.29,-2.19,-2.21
74.38,1.57,3.78,1.66,3.88,-3.86,-3.54,-4.50,-2.29,-2.19,-2.22
75.12,1.74,3.96,1.54,3.77,-3.82,-3.49,-4.39,-2.09,-2.28,-2.23
75.87,1.43,3.67,1.49,3.74,-3.80,-3.44,-4.28,-2.37,-2.30,-2.25
76.63,1.38,3.63,1.45,3.71,-3.77,-3.40,-4.17,-2.39,-2.31,-2.26
77.40,1.45,3.72,1.47,3.74,-3.74,-3.36,-4.07,-2.29,-2.27,-2.28
78.17,1.55,3.83,1.49,3.78,-3.71,-3.32,-3.96,-2.16,-2.22,-2.29
78.95,1.55,3.86,1.42,3.73,-3.66,-3.29,-3.85,-2.10,-2.23,-2.31
79.74,1.17,3.48,1.34,3.66,-3.61,-3.26,-3.75,-2.44,-2.27,-2.32
80.54,1.21,3.54,1.24,3.58,-3.57,-3.23,-3.64,-2.36,-2.33,-2.34
81.35,1.26,3.60,1.10,3.45,-3.51,-3.21,-3.54,-2.26,-2.41,-2.35
82.16,1.05,3.40,1.06,3.42,-3.45,-3.19,-3.44,-2.40,-2.39,-2.36
82.98,0.83,3.19,0.97,3.33,-3.38,-3.18,-3.34,-2.55,-2.41,-2.37
83.81,1.00,3.37,0.90,3.28,-3.31,-3.17,-3.25,-2.31,-2.41,-2.38
84.65,0.90,3.27,0.93,3.31,-3.26,-3.16,-3.15,-2.36,-2.33,-2.38
85.50,0.91,3.29,0.90,3.28,-3.22,-3.15,-3.06,-2.31,-2.32,-2.39
86.35,0.86,3.25,0.75,3.15,-3.19,-3.14,-2.97,-2.33,-2.44,-2.40
87.22,0.59,3.00,0.70,3.11,-3.15,-3.13,-2.88,-2.57,-2.45,-2.41
88.09,0.57,2.98,0.67,3.08,-3.11,-3.11,-2.79,-2.54,-2.44,-2.42
88.97,0.82,3.23,0.65,3.08,-3.07,-3.10,-2.71,-2.25,-2.41,-2.42
89.86,0.65,3.07,0.65,3.08,-3.02,-3.07,-2.63,-2.37,-2.36,-2.43
90.76,0.53,2.96,0.57,3.01,-2.96,-3.04,-2.55,-2.43,-2.38,-2.44
91.66,0.45,2.88,0.44,2.88,-2.90,-3.00,-2.47,-2.45,-2.45,-2.44
92.58,0.38,2.81,0.38,2.82,-2.84,-2.95,-2.39,-2.46,-2.46,-2.44
93.51,0.32,2.76,0.32,2.76,-2.78,-2.89,-2.32,-2.46,-2.46,-2.45
94.44,0.26,2.70,0.25,2.70,-2.72,-2.82,-2.25,-2.46,-2.46,-2.45
95.39,0.20,2.64,0.19,2.64,-2.66,-2.74,-2.18,-2.46,-2.47,-2.45
96.34,0.12,2.56,0.12,2.56,-2.59,-2.65,-2.11,-2.47,-2.47,-2.45
97.30,0.06,2.50,0.06,2.51,-2.52,-2.56,-2.04,-2.46,-2.46,-2.45
98.28,-0.00,2.45,0.04,2.50,-2.44,-2.47,-1.98,-2.45,-2.40,-2.46
99.26,0.01,2.46,-0.00,2.46,-2.37,-2.37,-1.91,-2.36,-2.37,-2.46
100.25,-0.01,2.44,-0.13,2.33,-2.29,-2.26,-1.85,-2.31,-2.43,-2.46
101.25,-0.31,2.14,-0.28,2.18,-2.22,-2.16,-1.79,-2.54,-2.50,-2.46
102.27,-0.52,1.94,-0.40,2.06,-2.14,-2.06,-1.73,-2.67,-2.55,-2.47
103.29,-0.44,2.03,-0.48,2.00,-2.07,-1.96,-1.68,-2.51,-2.55,-2.48
104.32,-0.42,2.06,-0.48,2.00,-2.00,-1.87,-1.62,-2.42,-2.48,-2.49
105.37,-0.52,1.96,-0.51,1.98,-1.93,-1.77,-1.57,-2.45,-2.44,-2.49
106.42,-0.60,1.89,-0.59,1.90,-1.87,-1.68,-1.51,-2.47,-2.46,-2.50
107.48,-0.69,1.81,-0.70,1.81,-1.82,-1.59,-1.46,-2.51,-2.52,-2.51
108.56,-0.77,1.74,-0.79,1.73,-1.76,-1.51,-1.41,-2.53,-2.55,-2.52
109.64,-0.87,1.65,-0.81,1.71,-1.69,-1.43,-1.36,-2.57,-2.51,-2.53
110.74,-0.88,1.64,-0.87,1.66,-1.62,-1.35,-1.31,-2.51,-2.49,-2.53
111.85,-0.81,1.71,-0.99,1.54,-1.54,-1.27,-1.27,-2.35,-2.53,-2.53
112.97,-1.17,1.36,-1.06,1.47,-1.46,-1.20,-1.22,-2.64,-2.52,-2.53
114.10,-1.26,1.26,-1.15,1.38,-1.39,-1.13,-1.17,-2.66,-2.54,-2.53
115.24,-1.08,1.43,-1.26,1.26,-1.32,-1.06,-1.13,-2.40,-2.58,-2.52
116.39,-1.30,1.21,-1.26,1.25,-1.24,-1.00,-1.08,-2.55,-2.51,-2.52
117.55,-1.39,1.10,-1.31,1.19,-1.16,-0.94,-1.04,-2.56,-2.48,-2.50
118.73,-1.32,1.16,-1.40,1.09,-1.09,-0.88,-0.99,-2.42,-2.49,-2.49
119.92,-1.44,1.02,-1.43,1.03,-1.03,-0.82,-0.95,-2.47,-2.46,-2.47
121.12,-1.50,0.94,-1.49,0.96,-0.95,-0.76,-0.90,-2.46,-2.44,-2.45
122.33,-1.56,0.86,-1.57,0.86,-0.87,-0.71,-0.86,-2.43,-2.44,-2.43
123.55,-1.61,0.79,-1.62,0.79,-0.78,-0.65,-0.82,-2.39,-2.40,-2.41
124.79,-1.67,0.71,-1.66,0.73,-0.69,-0.60,-0.77,-2.36,-2.35,-2.39
126.03,-1.71,0.65,-1.71,0.65,-0.61,-0.55,-0.73,-2.33,-2.33,-2.37
127.29,-1.77,0.57,-1.82,0.52,-0.55,-0.50,-0.69,-2.33,-2.38,-2.35
128.57,-1.91,0.41,-1.92,0.40,-0.49,-0.45,-0.65,-2.41,-2.42,-2.33
129.85,-2.06,0.24,-1.95,0.36,-0.44,-0.40,-0.60,-2.50,-2.39,-2.31
131.15,-1.92,0.36,-1.92,0.37,-0.39,-0.36,-0.56,-2.31,-2.31,-2.29
132.46,-1.78,0.49,-1.88,0.39,-0.34,-0.31,-0.52,-2.12,-2.22,-2.28
133.79,-1.88,0.37,-1.88,0.38,-0.28,-0.27,-0.48,-2.17,-2.16,-2.26
135.12,-1.99,0.25,-1.96,0.29,-0.23,-0.22,-0.43,-2.22,-2.19,-2.25
136.48,-2.05,0.17,-2.06,0.17,-0.18,-0.18,-0.39,-2.23,-2.24,-2.23
137.84,-2.12,0.09,-2.13,0.09,-0.12,-0.14,-0.35,-2.24,-2.24,-2.22
139.22,-2.18,0.02,-2.19,0.02,-0.04,-0.10,-0.31,-2.23,-2.23,-2.21
140.61,-2.25,-0.06,-2.25,-0.05,0.03,-0.06,-0.26,-2.22,-2.22,-2.20
142.02,-2.30,-0.12,-2.30,-0.11,0.10,-0.01,-0.22,-2.21,-2.20,-2.19
143.44,-2.35,-0.17,-2.35,-0.16,0.16,0.03,-0.17,-2.20,-2.19,-2.19
144.87,-2.37,-0.19,-2.39,-0.20,0.21,0.07,-0.13,-2.17,-2.18,-2.19
146.32,-2.44,-0.26,-2.45,-0.26,0.25,0.11,-0.09,-2.19,-2.19,-2.19
147.78,-2.49,-0.30,-2.47,-0.27,0.30,0.14,-0.04,-2.20,-2.17,-2.20
149.26,-2.53,-0.33,-2.49,-0.28,0.32,0.18,0.00,-2.21,-2.17,-2.21
150.75,-2.47,-0.25,-2.59,-0.36,0.35,0.22,0.05,-2.13,-2.24,-2.23
152.26,-2.66,-0.41,-2.69,-0.43,0.37,0.26,0.09,-2.29,-2.31,-2.26
153.78,-2.89,-0.61,-2.72,-0.44,0.40,0.30,0.14,-2.50,-2.33,-2.29
155.32,-2.73,-0.41,-2.75,-0.42,0.42,0.34,0.18,-2.32,-2.33,-2.33
156.88,-2.61,-0.26,-2.74,-0.38,0.43,0.37,0.23,-2.18,-2.32,-2.36
158.44,-2.80,-0.41,-2.79,-0.40,0.44,0.41,0.28,-2.36,-2.35,-2.40
160.03,-2.94,-0.52,-2.90,-0.47,0.45,0.45,0.33,-2.49,-2.44,-2.43
161.63,-3.03,-0.59,-2.97,-0.52,0.47,0.48,0.37,-2.56,-2.50,-2.45
163.24,-2.92,-0.45,-2.98,-0.51,0.50,0.52,0.42,-2.42,-2.48,-2.48
164.88,-2.98,-0.50,-3.00,-0.51,0.55,0.56,0.47,-2.43,-2.45,-2.49
166.53,-3.06,-0.57,-3.04,-0.55,0.61,0.59,0.52,-2.45,-2.44,-2.50
168.19,-3.15,-0.66,-3.13,-0.64,0.67,0.63,0.57,-2.48,-2.46,-2.50
169.87,-3.20,-0.72,-3.24,-0.75,0.73,0.67,0.62,-2.47,-2.51,-2.49
171.57,-3.32,-0.85,-3.34,-0.86,0.81,0.70,0.67,-2.52,-2.53,-2.48
173.29,-3.46,-1.01,-3.38,-0.92,0.89,0.74,0.72,-2.57,-2.49,-2.46
175.02,-3.39,-0.97,-3.41,-0.98,0.98,0.78,0.78,-2.41,-2.42,-2.43
176.77,-3.36,-0.97,-3.43,-1.03,1.07,0.81,0.83,-2.30,-2.36,-2.40
178.54,-3.48,-1.12,-3.47,-1.11,1.14,0.85,0.89,-2.34,-2.33,-2.37
180.32,-3.59,-1.27,-3.58,-1.25,1.22,0.89,0.94,-2.38,-2.36,-2.33
182.13,-3.65,-1.36,-3.65,-1.36,1.30,0.92,1.00,-2.36,-2.36,-2.30
183.95,-3.70,-1.45,-3.63,-1.37,1.38,0.96,1.05,-2.33,-2.26,-2.26
185.79,-3.60,-1.37,-3.64,-1.40,1.45,1.00,1.11,-2.15,-2.18,-2.24
187.65,-3.58,-1.37,-3.70,-1.49,1.52,1.03,1.17,-2.06,-2.18,-2.22
189.52,-3.85,-1.66,-3.79,-1.59,1.59,1.07,1.22,-2.27,-2.20,-2.20
191.42,-3.95,-1.77,-3.87,-1.69,1.64,1.11,1.28,-2.31,-2.24,-2.19
193.33,-3.87,-1.71,-3.91,-1.74,1.68,1.14,1.34,-2.19,-2.23,-2.17
195.27,-3.86,-1.71,-3.89,-1.73,1.73,1.18,1.40,-2.14,-2.17,-2.16
197.22,-3.90,-1.75,-3.90,-1.75,1.77,1.22,1.46,-2.13,-2.13,-2.16
199.19,-3.96,-1.82,-3.95,-1.80,1.81,1.25,1.52,-2.15,-2.13,-2.15
201.18,-3.99,-1.85,-3.99,-1.84,1.86,1.29,1.59,-2.14,-2.13,-2.15
203.19,-4.01,-1.87,-4.03,-1.88,1.90,1.33,1.65,-2.11,-2.13,-2.15
205.23,-4.06,-1.92,-4.07,-1.93,1.95,1.37,1.71,-2.11,-2.12,-2.15
207.28,-4.14,-2.00,-4.11,-1.97,2.00,1.40,1.77,-2.14,-2.12,-2.15
209.35,-4.18,-2.04,-4.19,-2.04,2.04,1.44,1.83,-2.14,-2.15,-2.15
211.44,-4.22,-2.07,-4.30,-2.14,2.08,1.48,1.89,-2.15,-2.22,-2.16
213.56,-4.40,-2.25,-4.33,-2.17,2.09,1.52,1.96,-2.31,-2.23,-2.16
215.69,-4.40,-2.24,-4.32,-2.15,2.11,1.55,2.02,-2.29,-2.21,-2.17
217.85,-4.18,-2.02,-4.31,-2.14,2.13,1.59,2.08,-2.05,-2.18,-2.17
220.03,-4.26,-2.09,-4.28,-2.11,2.16,1.63,2.13,-2.10,-2.12,-2.18
222.23,-4.37,-2.20,-4.27,-2.10,2.19,1.67,2.19,-2.18,-2.08,-2.18
224.45,-4.31,-2.14,-4.33,-2.15,2.22,1.71,2.25,-2.09,-2.11,-2.18
226.70,-4.31,-2.14,-4.39,-2.21,2.25,1.75,2.30,-2.06,-2.14,-2.18
228.96,-4.50,-2.33,-4.50,-2.33,2.29,1.79,2.36,-2.22,-2.22,-2.18
231.25,-4.64,-2.48,-4.61,-2.43,2.33,1.83,2.41,-2.31,-2.27,-2.17
233.57,-4.71,-2.55,-4.62,-2.45,2.38,1.87,2.46,-2.34,-2.24,-2.17
235.90,-4.51,-2.36,-4.58,-2.42,2.42,1.90,2.50,-2.10,-2.16,-2.16
238.26,-4.46,-2.32,-4.54,-2.40,2.45,1.94,2.55,-2.02,-2.10,-2.15
240.64,-4.60,-2.48,-4.55,-2.42,2.47,1.98,2.59,-2.13,-2.07,-2.13
243.05,-4.62,-2.51,-4.60,-2.48,2.49,2.02,2.63,-2.13,-2.10,-2.12
245.48,-4.61,-2.51,-4.62,-2.52,2.51,2.06,2.67,-2.10,-2.11,-2.11
247.93,-4.60,-2.51,-4.63,-2.53,2.53,2.11,2.70,-2.08,-2.10,-2.10
250.41,-4.65,-2.57,-4.65,-2.57,2.55,2.15,2.73,-2.10,-2.10,-2.09
252.92,-4.70,-2.63,-4.69,-2.61,2.59,2.19,2.76,-2.12,-2.10,-2.08
255.45,-4.72,-2.65,-4.72,-2.64,2.62,2.23,2.79,-2.11,-2.10,-2.08
258.00,-4.72,-2.65,-4.72,-2.64,2.65,2.27,2.82,-2.08,-2.07,-2.08
260.58,-4.72,-2.65,-4.73,-2.65,2.68,2.31,2.84,-2.05,-2.05,-2.08
263.19,-4.73,-2.66,-4.75,-2.67,2.70,2.35,2.86,-2.03,-2.05,-2.08
265.82,-4.80,-2.73,-4.80,-2.72,2.73,2.39,2.87,-2.07,-2.07,-2.08
268.48,-4.86,-2.79,-4.86,-2.78,2.76,2.43,2.89,-2.10,-2.10,-2.08
271.16,-4.91,-2.84,-4.91,-2.83,2.79,2.47,2.90,-2.12,-2.11,-2.08
273.87,-4.93,-2.86,-4.92,-2.85,2.83,2.52,2.92,-2.10,-2.09,-2.08
276.61,-4.93,-2.86,-4.94,-2.86,2.87,2.56,2.93,-2.06,-2.06,-2.08
279.38,-4.93,-2.86,-4.95,-2.88,2.91,2.60,2.94,-2.02,-2.04,-2.08
282.17,-4.99,-2.93,-5.00,-2.93,2.94,2.64,2.95,-2.05,-2.05,-2.07
284.99,-5.04,-2.99,-5.05,-2.99,2.98,2.68,2.96,-2.07,-2.08,-2.06
287.84,-5.12,-3.07,-5.09,-3.04,3.01,2.72,2.97,-2.11,-2.08,-2.06
290.72,-5.10,-3.06,-5.11,-3.06,3.05,2.77,2.98,-2.06,-2.06,-2.05
293.63,-5.09,-3.06,-5.11,-3.07,3.08,2.81,2.98,-2.01,-2.03,-2.04
296.57,-5.12,-3.10,-5.13,-3.10,3.12,2.85,2.99,-2.01,-2.01,-2.03
299.53,-5.16,-3.14,-5.17,-3.15,3.15,2.89,3.01,-2.01,-2.02,-2.03
302.53,-5.23,-3.22,-5.22,-3.20,3.19,2.93,3.02,-2.05,-2.03,-2.02
305.55,-5.25,-3.24,-5.24,-3.22,3.22,2.98,3.03,-2.04,-2.02,-2.02
308.61,-5.24,-3.23,-5.24,-3.22,3.24,3.02,3.04,-2.01,-2.00,-2.02
311.69,-5.23,-3.22,-5.27,-3.25,3.26,3.06,3.06,-1.98,-2.01,-2.02
314.81,-5.29,-3.27,-5.33,-3.30,3.27,3.10,3.08,-2.02,-2.06,-2.03
317.96,-5.42,-3.40,-5.35,-3.32,3.29,3.14,3.10,-2.14,-2.06,-2.03
321.14,-5.38,-3.35,-5.34,-3.30,3.29,3.19,3.12,-2.09,-2.04,-2.04
324.35,-5.22,-3.19,-5.31,-3.27,3.29,3.23,3.14,-1.93,-2.02,-2.04
327.59,-5.28,-3.24,-5.31,-3.26,3.29,3.27,3.17,-1.99,-2.02,-2.05
330.87,-5.39,-3.34,-5.36,-3.30,3.30,3.31,3.20,-2.10,-2.06,-2.06
334.18,-5.43,-3.37,-5.42,-3.35,3.32,3.35,3.23,-2.12,-2.10,-2.07
337.52,-5.43,-3.36,-5.39,-3.32,3.35,3.39,3.26,-2.09,-2.04,-2.08
340.90,-5.35,-3.28,-5.39,-3.31,3.38,3.43,3.30,-1.97,-2.00,-2.08
344.30,-5.36,-3.28,-5.46,-3.37,3.42,3.47,3.34,-1.94,-2.04,-2.09
347.75,-5.62,-3.52,-5.57,-3.46,3.45,3.51,3.38,-2.17,-2.11,-2.11
351.23,-5.74,-3.63,-5.66,-3.55,3.47,3.55,3.42,-2.27,-2.19,-2.12
354.74,-5.66,-3.54,-5.70,-3.57,3.47,3.59,3.47,-2.19,-2.23,-2.13
358.28,-5.63,-3.50,-5.66,-3.52,3.47,3.63,3.52,-2.17,-2.19,-2.14
361.87,-5.62,-3.48,-5.62,-3.47,3.46,3.66,3.57,-2.16,-2.16,-2.15
365.49,-5.62,-3.46,-5.59,-3.42,3.46,3.70,3.63,-2.16,-2.13,-2.17
369.14,-5.56,-3.39,-5.56,-3.39,3.45,3.74,3.69,-2.11,-2.11,-2.18
372.83,-5.50,-3.32,-5.56,-3.38,3.45,3.77,3.75,-2.05,-2.11,-2.19
376.56,-5.62,-3.43,-5.59,-3.39,3.46,3.81,3.81,-2.17,-2.13,-2.20
380.33,-5.68,-3.48,-5.68,-3.47,3.47,3.85,3.88,-2.21,-2.20,-2.21
384.13,-5.73,-3.52,-5.77,-3.56,3.49,3.88,3.95,-2.24,-2.28,-2.22
387.97,-5.86,-3.64,-5.81,-3.59,3.51,3.91,4.02,-2.35,-2.30,-2.23
391.85,-5.84,-3.61,-5.83,-3.59,3.53,3.95,4.09,-2.31,-2.30,-2.24
395.77,-5.78,-3.54,-5.81,-3.57,3.54,3.98,4.16,-2.24,-2.27,-2.25
399.73,-5.77,-3.52,-5.77,-3.51,3.54,4.01,4.24,-2.23,-2.23,-2.26
403.72,-5.77,-3.51,-5.77,-3.50,3.54,4.04,4.31,-2.23,-2.23,-2.27
407.76,-5.78,-3.50,-5.80,-3.51,3.55,4.07,4.39,-2.24,-2.25,-2.29
411.84,-5.85,-3.56,-5.85,-3.55,3.56,4.10,4.47,-2.29,-2.29,-2.30
415.96,-5.88,-3.58,-5.87,-3.57,3.59,4.12,4.55,-2.30,-2.28,-2.31
420.12,-5.93,-3.63,-5.90,-3.59,3.62,4.15,4.63,-2.32,-2.28,-2.31
424.32,-5.89,-3.58,-5.98,-3.66,3.65,4.18,4.71,-2.24,-2.33,-2.32
428.56,-6.04,-3.73,-6.05,-3.74,3.69,4.20,4.78,-2.36,-2.37,-2.32
432.85,-6.20,-3.90,-6.09,-3.78,3.72,4.22,4.86,-2.48,-2.37,-2.31
437.18,-6.07,-3.78,-6.11,-3.81,3.76,4.24,4.93,-2.32,-2.35,-2.30
441.55,-6.01,-3.74,-6.06,-3.78,3.80,4.26,5.00,-2.21,-2.26,-2.28
445.96,-6.05,-3.80,-6.04,-3.78,3.85,4.28,5.06,-2.20,-2.18,-2.26
