frequency,raw,error,smoothed,error_smoothed,equalization,parametric_eq,fixed_band_eq,equalized_raw,equalized_smoothed,target
20.00,-11.49,-5.29,-11.50,-5.30,5.32,4.31,1.17,-6.17,-6.18,-6.20
20.20,-11.44,-5.24,-11.44,-5.24,5.23,4.28,1.21,-6.21,-6.20,-6.20
20.40,-11.37,-5.17,-11.36,-5.16,5.15,4.26,1.24,-6.22,-6.22,-6.20
20.61,-11.27,-5.08,-11.28,-5.08,5.06,4.23,1.28,-6.21,-6.22,-6.20
20.81,-11.19,-4.99,-11.19,-4.99,4.98,4.20,1.32,-6.21,-6.21,-6.20
21.02,-11.09,-4.89,-11.09,-4.89,4.89,4.17,1.36,-6.20,-6.20,-6.20
21.23,-10.99,-4.79,-11.00,-4.80,4.81,4.14,1.40,-6.18,-6.19,-6.20
21.44,-10.92,-4.72,-10.92,-4.72,4.73,4.11,1.45,-6.19,-6.19,-6.20
21.66,-10.84,-4.64,-10.84,-4.64,4.64,4.08,1.49,-6.20,-6.20,-6.20
21.87,-10.76,-4.56,-10.76,-4.56,4.56,4.05,1.54,-6.20,-6.20,-6.20
22.09,-10.68,-4.48,-10.68,-4.48,4.48,4.02,1.58,-6.20,-6.20,-6.20
22.31,-10.60,-4.40,-10.61,-4.41,4.41,3.99,1.63,-6.19,-6.20,-6.20
22.54,-10.54,-4.34,-10.53,-4.33,4.33,3.96,1.68,-6.21,-6.20,-6.20
22.76,-10.45,-4.25,-10.46,-4.26,4.26,3.92,1.73,-6.20,-6.20,-6.20
22.99,-10.38,-4.18,-10.38,-4.18,4.18,3.89,1.79,-6.20,-6.20,-6.20
23.22,-10.30,-4.10,-10.30,-4.10,4.10,3.85,1.84,-6.20,-6.20,-6.20
23.45,-10.21,-4.01,-10.22,-4.02,4.02,3.82,1.89,-6.19,-6.20,-6.20
23.69,-10.15,-3.95,-10.14,-3.95,3.95,3.78,1.95,-6.21,-6.20,-6.20
23.92,-10.06,-3.86,-10.07,-3.87,3.87,3.75,2.00,-6.20,-6.20,-6.20
24.16,-9.99,-3.79,-9.99,-3.79,3.79,3.71,2.06,-6.21,-6.21,-6.20
24.40,-9.90,-3.70,-9.91,-3.71,3.70,3.67,2.12,-6.20,-6.20,-6.20
24.65,-9.83,-3.63,-9.83,-3.63,3.62,3.63,2.18,-6.21,-6.20,-6.20
24.89,-9.73,-3.53,-9.74,-3.54,3.54,3.60,2.24,-6.19,-6.20,-6.20
25.14,-9.66,-3.46,-9.66,-3.46,3.46,3.56,2.30,-6.21,-6.20,-6.20
25.39,-9.56,-3.36,-9.57,-3.37,3.38,3.52,2.36,-6.19,-6.20,-6.20
25.65,-9.50,-3.30,-9.49,-3.29,3.30,3.47,2.41,-6.21,-6.20,-6.20
25.91,-9.41,-3.21,-9.42,-3.22,3.22,3.43,2.47,-6.20,-6.20,-6.20
26.16,-9.34,-3.14,-9.34,-3.14,3.14,3.39,2.53,-6.20,-6.20,-6.20
26.43,-9.27,-3.07,-9.27,-3.07,3.07,3.35,2.59,-6.20,-6.20,-6.20
26.69,-9.20,-3.00,-9.21,-3.01,3.01,3.30,2.65,-6.20,-6.20,-6.20
26.96,-9.14,-2.94,-9.14,-2.94,2.95,3.26,2.70,-6.20,-6.20,-6.20
27.23,-9.08,-2.88,-9.08,-2.88,2.89,3.21,2.75,-6.20,-6.19,-6.20
27.50,-9.02,-2.82,-9.03,-2.83,2.83,3.17,2.80,-6.19,-6.19,-6.20
27.77,-8.97,-2.77,-8.98,-2.78,2.78,3.12,2.85,-6.19,-6.20,-6.20
28.05,-8.93,-2.73,-8.93,-2.73,2.72,3.07,2.90,-6.21,-6.20,-6.20
28.33,-8.88,-2.68,-8.88,-2.68,2.67,3.03,2.94,-6.21,-6.21,-6.20
28.62,-8.82,-2.62,-8.82,-2.62,2.62,2.98,2.98,-6.21,-6.21,-6.20
28.90,-8.76,-2.56,-8.76,-2.56,2.56,2.93,3.01,-6.20,-6.20,-6.20
29.19,-8.70,-2.50,-8.70,-2.50,2.50,2.88,3.04,-6.20,-6.20,-6.20
29.48,-8.64,-2.44,-8.64,-2.44,2.44,2.83,3.07,-6.20,-6.20,-6.20
29.78,-8.58,-2.38,-8.58,-2.38,2.38,2.77,3.09,-6.20,-6.20,-6.20
30.08,-8.52,-2.32,-8.52,-2.32,2.32,2.72,3.10,-6.20,-6.20,-6.20
30.38,-8.46,-2.26,-8.46,-2.26,2.26,2.67,3.11,-6.20,-6.20,-6.20
30.68,-8.40,-2.20,-8.40,-2.20,2.20,2.61,3.12,-6.20,-6.20,-6.20
30.99,-8.34,-2.14,-8.34,-2.14,2.15,2.56,3.11,-6.19,-6.19,-6.20
31.30,-8.28,-2.08,-8.29,-2.09,2.10,2.50,3.11,-6.18,-6.19,-6.20
31.61,-8.25,-2.05,-8.24,-2.04,2.05,2.45,3.09,-6.20,-6.20,-6.20
31.93,-8.20,-2.00,-8.20,-2.00,2.00,2.39,3.07,-6.20,-6.20,-6.20
32.24,-8.15,-1.95,-8.16,-1.96,1.96,2.33,3.05,-6.20,-6.21,-6.20
32.57,-8.12,-1.92,-8.11,-1.91,1.91,2.27,3.01,-6.21,-6.20,-6.20
32.89,-8.07,-1.87,-8.07,-1.87,1.87,2.21,2.98,-6.20,-6.21,-6.20
33.22,-8.02,-1.82,-8.03,-1.83,1.83,2.15,2.93,-6.20,-6.20,-6.20
33.55,-7.99,-1.79,-7.98,-1.78,1.78,2.09,2.89,-6.21,-6.20,-6.20
33.89,-7.93,-1.73,-7.94,-1.74,1.74,2.03,2.83,-6.19,-6.20,-6.20
34.23,-7.90,-1.70,-7.90,-1.70,1.70,1.97,2.78,-6.20,-6.20,-6.20
34.57,-7.85,-1.65,-7.86,-1.66,1.66,1.91,2.72,-6.19,-6.19,-6.20
34.92,-7.82,-1.62,-7.82,-1.62,1.63,1.84,2.65,-6.20,-6.20,-6.20
35.27,-7.79,-1.59,-7.79,-1.59,1.59,1.78,2.58,-6.20,-6.20,-6.20
35.62,-7.76,-1.56,-7.76,-1.56,1.56,1.71,2.51,-6.20,-6.20,-6.20
35.97,-7.73,-1.53,-7.73,-1.53,1.53,1.65,2.44,-6.20,-6.20,-6.20
36.33,-7.69,-1.49,-7.69,-1.49,1.49,1.58,2.36,-6.20,-6.20,-6.20
36.70,-7.65,-1.45,-7.66,-1.46,1.46,1.51,2.28,-6.19,-6.20,-6.20
37.06,-7.62,-1.42,-7.62,-1.42,1.42,1.45,2.20,-6.20,-6.20,-6.20
37.43,-7.59,-1.39,-7.59,-1.39,1.38,1.38,2.12,-6.21,-6.21,-6.20
37.81,-7.54,-1.34,-7.55,-1.35,1.34,1.31,2.04,-6.21,-6.21,-6.20
38.19,-7.49,-1.29,-7.49,-1.29,1.29,1.24,1.95,-6.20,-6.20,-6.20
38.57,-7.44,-1.24,-7.44,-1.24,1.24,1.17,1.87,-6.20,-6.19,-6.20
38.95,-7.37,-1.17,-7.38,-1.18,1.19,1.10,1.78,-6.18,-6.19,-6.20
39.34,-7.33,-1.13,-7.33,-1.13,1.13,1.03,1.70,-6.20,-6.20,-6.20
39.74,-7.28,-1.08,-7.28,-1.08,1.07,0.96,1.61,-6.21,-6.20,-6.20
40.14,-7.21,-1.01,-7.22,-1.02,1.01,0.89,1.53,-6.20,-6.21,-6.20
40.54,-7.15,-0.95,-7.15,-0.95,0.95,0.82,1.44,-6.21,-6.20,-6.20
40.94,-7.08,-0.88,-7.08,-0.88,0.88,0.75,1.36,-6.20,-6.20,-6.20
41.35,-7.01,-0.81,-7.01,-0.81,0.82,0.68,1.27,-6.20,-6.20,-6.20
41.76,-6.94,-0.74,-6.94,-0.74,0.74,0.61,1.19,-6.20,-6.20,-6.20
42.18,-6.86,-0.66,-6.87,-0.67,0.67,0.54,1.10,-6.19,-6.20,-6.20
42.60,-6.80,-0.60,-6.80,-0.60,0.60,0.47,1.02,-6.21,-6.20,-6.20
43.03,-6.72,-0.52,-6.72,-0.52,0.52,0.40,0.93,-6.20,-6.20,-6.20
43.46,-6.64,-0.44,-6.65,-0.45,0.44,0.33,0.85,-6.20,-6.20,-6.20
43.90,-6.57,-0.37,-6.57,-0.37,0.36,0.27,0.77,-6.21,-6.20,-6.20
44.33,-6.47,-0.27,-6.48,-0.28,0.29,0.20,0.69,-6.19,-6.20,-6.20
44.78,-6.41,-0.21,-6.40,-0.20,0.21,0.13,0.61,-6.21,-6.20,-6.20
45.23,-6.31,-0.11,-6.32,-0.12,0.13,0.06,0.52,-6.19,-6.20,-6.20
45.68,-6.25,-0.05,-6.25,-0.05,0.05,-0.00,0.44,-6.21,-6.20,-6.20
46.13,-6.16,0.04,-6.17,0.03,-0.04,-0.07,0.36,-6.20,-6.20,-6.20
46.60,-6.09,0.11,-6.09,0.11,-0.12,-0.14,0.29,-6.21,-6.20,-6.20
47.06,-6.00,0.20,-6.01,0.19,-0.20,-0.20,0.21,-6.20,-6.20,-6.20
47.53,-5.92,0.28,-5.93,0.27,-0.27,-0.26,0.13,-6.20,-6.20,-6.20
48.01,-5.85,0.35,-5.85,0.35,-0.35,-0.32,0.05,-6.21,-6.20,-6.20
48.49,-5.77,0.43,-5.78,0.42,-0.43,-0.38,-0.02,-6.20,-6.20,-6.20
48.97,-5.70,0.50,-5.70,0.50,-0.50,-0.44,-0.10,-6.20,-6.20,-6.20
49.46,-5.63,0.57,-5.63,0.57,-0.57,-0.50,-0.18,-6.20,-6.20,-6.20
49.96,-5.56,0.64,-5.57,0.63,-0.63,-0.56,-0.25,-6.19,-6.19,-6.20
50.46,-5.51,0.69,-5.52,0.68,-0.68,-0.61,-0.32,-6.19,-6.19,-6.20
50.96,-5.47,0.73,-5.47,0.73,-0.72,-0.66,-0.39,-6.19,-6.19,-6.20
51.47,-5.44,0.76,-5.44,0.76,-0.76,-0.71,-0.47,-6.20,-6.19,-6.20
51.99,-5.40,0.80,-5.42,0.78,-0.78,-0.76,-0.54,-6.19,-6.20,-6.20
52.51,-5.40,0.80,-5.40,0.80,-0.81,-0.81,-0.60,-6.21,-6.21,-6.20
53.03,-5.40,0.80,-5.38,0.82,-0.82,-0.85,-0.67,-6.23,-6.20,-6.20
53.56,-5.35,0.85,-5.37,0.83,-0.83,-0.89,-0.74,-6.19,-6.20,-6.20
54.10,-5.35,0.85,-5.36,0.84,-0.84,-0.93,-0.80,-6.20,-6.20,-6.20
54.64,-5.35,0.85,-5.35,0.85,-0.85,-0.97,-0.86,-6.20,-6.20,-6.20
55.18,-5.35,0.85,-5.34,0.86,-0.85,-1.01,-0.92,-6.21,-6.20,-6.20
55.74,-5.33,0.87,-5.34,0.86,-0.86,-1.04,-0.98,-6.19,-6.20,-6.20
56.29,-5.33,0.87,-5.34,0.86,-0.86,-1.07,-1.03,-6.19,-6.20,-6.20
56.86,-5.35,0.85,-5.34,0.86,-0.85,-1.10,-1.09,-6.21,-6.20,-6.20
57.42,-5.35,0.85,-5.35,0.85,-0.85,-1.12,-1.14,-6.20,-6.20,-6.20
58.00,-5.35,0.85,-5.35,0.84,-0.85,-1.15,-1.18,-6.20,-6.20,-6.20
58.58,-5.35,0.85,-5.35,0.85,-0.85,-1.17,-1.23,-6.20,-6.20,-6.20
59.16,-5.35,0.85,-5.35,0.85,-0.85,-1.19,-1.27,-6.20,-6.20,-6.20
59.76,-5.35,0.85,-5.36,0.84,-0.85,-1.20,-1.30,-6.20,-6.20,-6.20
60.35,-5.35,0.85,-5.35,0.85,-0.85,-1.22,-1.34,-6.21,-6.20,-6.20
60.96,-5.35,0.85,-5.34,0.86,-0.86,-1.23,-1.37,-6.21,-6.20,-6.20
61.57,-5.31,0.89,-5.33,0.87,-0.87,-1.24,-1.39,-6.19,-6.20,-6.20
62.18,-5.31,0.89,-5.31,0.89,-0.89,-1.24,-1.42,-6.20,-6.20,-6.20
62.80,-5.30,0.90,-5.30,0.90,-0.90,-1.25,-1.43,-6.21,-6.20,-6.20
63.43,-5.27,0.93,-5.28,0.92,-0.92,-1.25,-1.45,-6.20,-6.20,-6.20
64.07,-5.27,0.93,-5.26,0.94,-0.94,-1.25,-1.46,-6.22,-6.20,-6.20
64.71,-5.22,0.98,-5.24,0.96,-0.96,-1.25,-1.47,-6.19,-6.20,-6.20
65.35,-5.22,0.98,-5.21,0.99,-0.98,-1.25,-1.47,-6.20,-6.20,-6.20
66.01,-5.18,1.02,-5.19,1.01,-1.00,-1.25,-1.47,-6.18,-6.19,-6.20
66.67,-5.18,1.02,-5.18,1.02,-1.02,-1.24,-1.47,-6.20,-6.20,-6.20
67.33,-5.17,1.03,-5.16,1.04,-1.03,-1.23,-1.47,-6.21,-6.20,-6.20
68.01,-5.14,1.06,-5.16,1.04,-1.05,-1.23,-1.46,-6.19,-6.20,-6.20
68.69,-5.14,1.06,-5.15,1.05,-1.06,-1.22,-1.45,-6.20,-6.21,-6.20
69.37,-5.14,1.06,-5.13,1.07,-1.07,-1.21,-1.43,-6.22,-6.21,-6.20
70.07,-5.12,1.08,-5.12,1.08,-1.08,-1.19,-1.42,-6.21,-6.20,-6.20
70.77,-5.09,1.11,-5.10,1.10,-1.09,-1.18,-1.40,-6.18,-6.20,-6.20
71.48,-5.09,1.11,-5.09,1.11,-1.10,-1.17,-1.38,-6.19,-6.19,-6.20
72.19,-5.09,1.11,-5.09,1.11,-1.11,-1.15,-1.36,-6.20,-6.20,-6.20
72.91,-5.09,1.11,-5.09,1.11,-1.11,-1.14,-1.34,-6.20,-6.20,-6.20
73.64,-5.09,1.11,-5.09,1.11,-1.11,-1.12,-1.32,-6.21,-6.21,-6.20
74.38,-5.09,1.11,-5.09,1.11,-1.11,-1.11,-1.29,-6.20,-6.20,-6.20
75.12,-5.09,1.11,-5.09,1.11,-1.10,-1.09,-1.27,-6.20,-6.19,-6.20
75.87,-5.09,1.11,-5.09,1.11,-1.10,-1.08,-1.24,-6.19,-6.19,-6.20
76.63,-5.09,1.11,-5.10,1.10,-1.09,-1.06,-1.22,-6.18,-6.19,-6.20
77.40,-5.12,1.08,-5.12,1.08,-1.08,-1.05,-1.19,-6.20,-6.20,-6.20
78.17,-5.14,1.06,-5.14,1.06,-1.08,-1.04,-1.16,-6.22,-6.21,-6.20
78.95,-5.14,1.06,-5.14,1.05,-1.07,-1.02,-1.14,-6.21,-6.21,-6.20
79.74,-5.14,1.06,-5.15,1.05,-1.06,-1.01,-1.11,-6.21,-6.21,-6.20
80.54,-5.14,1.06,-5.14,1.06,-1.06,-0.99,-1.09,-6.20,-6.20,-6.20
81.35,-5.14,1.06,-5.14,1.06,-1.05,-0.98,-1.06,-6.19,-6.19,-6.20
82.16,-5.14,1.06,-5.14,1.06,-1.05,-0.97,-1.04,-6.19,-6.19,-6.20
82.98,-5.14,1.06,-5.15,1.05,-1.04,-0.96,-1.01,-6.19,-6.19,-6.20
83.81,-5.16,1.04,-5.16,1.04,-1.04,-0.95,-0.99,-6.20,-6.20,-6.20
84.65,-5.18,1.02,-5.18,1.02,-1.03,-0.94,-0.96,-6.21,-6.21,-6.20
85.50,-5.18,1.02,-5.18,1.02,-1.02,-0.93,-0.94,-6.20,-6.20,-6.20
86.35,-5.18,1.02,-5.19,1.01,-1.01,-0.92,-0.92,-6.20,-6.20,-6.20
87.22,-5.18,1.02,-5.20,1.00,-1.00,-0.91,-0.90,-6.19,-6.20,-6.20
88.09,-5.22,0.98,-5.21,0.99,-0.99,-0.91,-0.88,-6.22,-6.20,-6.20
88.97,-5.22,0.98,-5.22,0.98,-0.98,-0.90,-0.86,-6.21,-6.20,-6.20
89.86,-5.22,0.98,-5.23,0.97,-0.97,-0.89,-0.84,-6.20,-6.20,-6.20
90.76,-5.22,0.98,-5.23,0.97,-0.96,-0.89,-0.82,-6.19,-6.19,-6.20
91.66,-5.24,0.96,-5.25,0.95,-0.95,-0.88,-0.80,-6.20,-6.20,-6.20
92.58,-5.27,0.93,-5.26,0.94,-0.94,-0.88,-0.78,-6.22,-6.21,-6.20
93.51,-5.27,0.93,-5.27,0.93,-0.93,-0.87,-0.77,-6.21,-6.20,-6.20
94.44,-5.27,0.93,-5.28,0.92,-0.92,-0.87,-0.75,-6.20,-6.20,-6.20
95.39,-5.27,0.93,-5.28,0.92,-0.91,-0.87,-0.74,-6.19,-6.20,-6.20
96.34,-5.30,0.90,-5.29,0.91,-0.90,-0.86,-0.72,-6.20,-6.19,-6.20
97.30,-5.31,0.89,-5.31,0.89,-0.89,-0.86,-0.71,-6.20,-6.20,-6.20
98.28,-5.31,0.89,-5.33,0.87,-0.87,-0.85,-0.70,-6.19,-6.20,-6.20
99.26,-5.35,0.85,-5.34,0.86,-0.86,-0.84,-0.68,-6.21,-6.20,-6.20
100.25,-5.35,0.85,-5.35,0.85,-0.85,-0.84,-0.67,-6.20,-6.20,-6.20
101.25,-5.35,0.85,-5.37,0.83,-0.83,-0.83,-0.66,-6.19,-6.21,-6.20
102.27,-5.40,0.80,-5.39,0.81,-0.82,-0.82,-0.65,-6.22,-6.20,-6.20
103.29,-5.40,0.80,-5.40,0.80,-0.81,-0.81,-0.64,-6.21,-6.21,-6.20
104.32,-5.40,0.80,-5.40,0.80,-0.80,-0.80,-0.63,-6.20,-6.20,-6.20
105.37,-5.40,0.80,-5.41,0.79,-0.79,-0.79,-0.62,-6.19,-6.19,-6.20
106.42,-5.40,0.80,-5.42,0.78,-0.78,-0.78,-0.61,-6.18,-6.20,-6.20
107.48,-5.44,0.76,-5.43,0.77,-0.77,-0.77,-0.61,-6.22,-6.20,-6.20
108.56,-5.44,0.76,-5.44,0.76,-0.76,-0.76,-0.60,-6.21,-6.21,-6.20
109.64,-5.44,0.76,-5.44,0.76,-0.76,-0.75,-0.59,-6.20,-6.20,-6.20
110.74,-5.44,0.76,-5.44,0.75,-0.75,-0.74,-0.58,-6.19,-6.19,-6.20
111.85,-5.44,0.76,-5.46,0.74,-0.74,-0.73,-0.58,-6.18,-6.20,-6.20
112.97,-5.48,0.72,-5.47,0.73,-0.73,-0.72,-0.57,-6.22,-6.20,-6.20
114.10,-5.48,0.72,-5.48,0.72,-0.73,-0.71,-0.56,-6.21,-6.21,-6.20
115.24,-5.48,0.72,-5.49,0.71,-0.72,-0.70,-0.56,-6.21,-6.21,-6.20
116.39,-5.48,0.72,-5.48,0.72,-0.72,-0.69,-0.55,-6.20,-6.20,-6.20
117.55,-5.48,0.72,-5.48,0.72,-0.71,-0.68,-0.55,-6.19,-6.19,-6.20
118.73,-5.48,0.72,-5.49,0.71,-0.70,-0.67,-0.54,-6.19,-6.19,-6.20
119.92,-5.49,0.71,-5.50,0.70,-0.70,-0.66,-0.53,-6.19,-6.20,-6.20
121.12,-5.53,0.67,-5.52,0.68,-0.69,-0.65,-0.53,-6.22,-6.21,-6.20
122.33,-5.53,0.67,-5.53,0.67,-0.68,-0.64,-0.52,-6.21,-6.20,-6.20
123.55,-5.53,0.67,-5.54,0.66,-0.66,-0.63,-0.52,-6.20,-6.20,-6.20
124.79,-5.53,0.67,-5.54,0.66,-0.65,-0.62,-0.51,-6.18,-6.19,-6.20
126.03,-5.57,0.63,-5.56,0.64,-0.63,-0.61,-0.51,-6.21,-6.19,-6.20
127.29,-5.57,0.63,-5.58,0.62,-0.62,-0.61,-0.50,-6.19,-6.20,-6.20
128.57,-5.61,0.59,-5.60,0.60,-0.60,-0.60,-0.50,-6.22,-6.20,-6.20
129.85,-5.61,0.59,-5.61,0.59,-0.59,-0.59,-0.49,-6.20,-6.20,-6.20
131.15,-5.61,0.59,-5.63,0.57,-0.58,-0.58,-0.49,-6.19,-6.20,-6.20
132.46,-5.64,0.56,-5.64,0.56,-0.56,-0.58,-0.48,-6.20,-6.20,-6.20
133.79,-5.66,0.54,-5.65,0.55,-0.55,-0.57,-0.48,-6.21,-6.20,-6.20
135.12,-5.66,0.54,-5.67,0.53,-0.53,-0.56,-0.47,-6.20,-6.20,-6.20
136.48,-5.66,0.54,-5.68,0.52,-0.52,-0.55,-0.47,-6.18,-6.20,-6.20
137.84,-5.70,0.50,-5.69,0.51,-0.51,-0.54,-0.46,-6.21,-6.19,-6.20
139.22,-5.70,0.50,-5.70,0.50,-0.50,-0.54,-0.46,-6.20,-6.20,-6.20
140.61,-5.70,0.50,-5.72,0.48,-0.48,-0.53,-0.45,-6.19,-6.20,-6.20
142.02,-5.74,0.46,-5.73,0.47,-0.47,-0.52,-0.45,-6.21,-6.20,-6.20
143.44,-5.74,0.46,-5.74,0.46,-0.46,-0.51,-0.44,-6.20,-6.20,-6.20
144.87,-5.74,0.46,-5.75,0.45,-0.45,-0.50,-0.44,-6.19,-6.20,-6.20
146.32,-5.76,0.44,-5.76,0.44,-0.44,-0.49,-0.44,-6.20,-6.20,-6.20
147.78,-5.77,0.43,-5.78,0.42,-0.43,-0.49,-0.43,-6.20,-6.20,-6.20
149.26,-5.79,0.41,-5.79,0.41,-0.42,-0.48,-0.43,-6.21,-6.21,-6.20
150.75,-5.79,0.41,-5.79,0.41,-0.41,-0.47,-0.42,-6.20,-6.20,-6.20
152.26,-5.79,0.41,-5.79,0.41,-0.40,-0.46,-0.42,-6.20,-6.19,-6.20
153.78,-5.79,0.41,-5.80,0.40,-0.40,-0.45,-0.42,-6.19,-6.19,-6.20
155.32,-5.79,0.41,-5.81,0.39,-0.39,-0.43,-0.41,-6.18,-6.20,-6.20
156.88,-5.83,0.37,-5.82,0.38,-0.38,-0.42,-0.41,-6.22,-6.20,-6.20
158.44,-5.83,0.37,-5.83,0.37,-0.38,-0.41,-0.41,-6.21,-6.21,-6.20
160.03,-5.83,0.37,-5.84,0.36,-0.37,-0.40,-0.41,-6.21,-6.21,-6.20
161.63,-5.83,0.37,-5.83,0.37,-0.36,-0.39,-0.40,-6.20,-6.20,-6.20
163.24,-5.83,0.37,-5.83,0.37,-0.36,-0.37,-0.40,-6.19,-6.19,-6.20
164.88,-5.83,0.37,-5.84,0.36,-0.35,-0.36,-0.40,-6.18,-6.19,-6.20
166.53,-5.85,0.35,-5.85,0.35,-0.35,-0.35,-0.40,-6.20,-6.20,-6.20
168.19,-5.87,0.33,-5.87,0.33,-0.34,-0.33,-0.40,-6.21,-6.21,-6.20
169.87,-5.87,0.33,-5.87,0.33,-0.34,-0.32,-0.40,-6.21,-6.21,-6.20
171.57,-5.87,0.33,-5.88,0.32,-0.33,-0.31,-0.40,-6.21,-6.21,-6.20
173.29,-5.87,0.33,-5.87,0.33,-0.33,-0.29,-0.40,-6.20,-6.20,-6.20
175.02,-5.87,0.33,-5.87,0.33,-0.32,-0.28,-0.40,-6.19,-6.19,-6.20
176.77,-5.87,0.33,-5.87,0.33,-0.31,-0.27,-0.40,-6.19,-6.19,-6.20
178.54,-5.87,0.33,-5.88,0.32,-0.31,-0.25,-0.40,-6.18,-6.19,-6.20
180.32,-5.89,0.31,-5.90,0.30,-0.30,-0.24,-0.40,-6.20,-6.20,-6.20
182.13,-5.92,0.28,-5.91,0.29,-0.30,-0.23,-0.40,-6.22,-6.21,-6.20
183.95,-5.92,0.28,-5.92,0.28,-0.29,-0.22,-0.40,-6.22,-6.22,-6.20
185.79,-5.92,0.28,-5.93,0.27,-0.28,-0.21,-0.40,-6.21,-6.21,-6.20
187.65,-5.92,0.28,-5.92,0.28,-0.28,-0.20,-0.40,-6.20,-6.20,-6.20
189.52,-5.92,0.28,-5.92,0.28,-0.27,-0.20,-0.40,-6.19,-6.19,-6.20
191.42,-5.92,0.28,-5.93,0.27,-0.26,-0.19,-0.41,-6.18,-6.19,-6.20
193.33,-5.95,0.25,-5.95,0.25,-0.24,-0.19,-0.41,-6.20,-6.19,-6.20
195.27,-5.96,0.24,-5.97,0.23,-0.23,-0.18,-0.41,-6.19,-6.20,-6.20
197.22,-6.00,0.20,-5.99,0.21,-0.21,-0.18,-0.41,-6.22,-6.20,-6.20
199.19,-6.00,0.20,-6.00,0.20,-0.19,-0.18,-0.42,-6.20,-6.20,-6.20
201.18,-6.00,0.20,-6.02,0.18,-0.18,-0.18,-0.42,-6.18,-6.20,-6.20
203.19,-6.05,0.15,-6.04,0.16,-0.16,-0.19,-0.42,-6.22,-6.20,-6.20
205.23,-6.05,0.15,-6.05,0.15,-0.16,-0.19,-0.43,-6.21,-6.21,-6.20
207.28,-6.05,0.15,-6.06,0.14,-0.15,-0.19,-0.43,-6.21,-6.22,-6.20
209.35,-6.05,0.15,-6.05,0.15,-0.16,-0.20,-0.44,-6.21,-6.21,-6.20
211.44,-6.05,0.15,-6.04,0.16,-0.17,-0.21,-0.44,-6.22,-6.21,-6.20
213.56,-6.00,0.20,-6.02,0.18,-0.18,-0.22,-0.44,-6.18,-6.20,-6.20
215.69,-6.00,0.20,-5.99,0.21,-0.20,-0.23,-0.45,-6.20,-6.19,-6.20
217.85,-5.96,0.24,-5.97,0.23,-0.22,-0.24,-0.45,-6.18,-6.19,-6.20
220.03,-5.96,0.24,-5.97,0.23,-0.23,-0.25,-0.46,-6.20,-6.20,-6.20
222.23,-5.96,0.24,-5.95,0.25,-0.25,-0.26,-0.46,-6.21,-6.20,-6.20
224.45,-5.94,0.26,-5.94,0.26,-0.26,-0.27,-0.47,-6.20,-6.20,-6.20
226.70,-5.92,0.28,-5.93,0.27,-0.27,-0.28,-0.47,-6.19,-6.20,-6.20
228.96,-5.92,0.28,-5.92,0.28,-0.27,-0.29,-0.47,-6.19,-6.19,-6.20
231.25,-5.92,0.28,-5.92,0.28,-0.27,-0.31,-0.48,-6.19,-6.19,-6.20
233.57,-5.92,0.28,-5.93,0.27,-0.27,-0.32,-0.48,-6.19,-6.20,-6.20
235.90,-5.94,0.26,-5.94,0.26,-0.27,-0.33,-0.49,-6.21,-6.20,-6.20
238.26,-5.94,0.26,-5.94,0.26,-0.26,-0.34,-0.49,-6.21,-6.21,-6.20
240.64,-5.94,0.26,-5.94,0.26,-0.26,-0.36,-0.50,-6.21,-6.21,-6.20
243.05,-5.94,0.26,-5.94,0.26,-0.26,-0.37,-0.50,-6.21,-6.20,-6.20
245.48,-5.92,0.28,-5.93,0.27,-0.27,-0.38,-0.50,-6.19,-6.20,-6.20
247.93,-5.92,0.28,-5.92,0.28,-0.28,-0.39,-0.51,-6.20,-6.20,-6.20
250.41,-5.92,0.28,-5.91,0.29,-0.30,-0.40,-0.51,-6.22,-6.20,-6.20
252.92,-5.87,0.33,-5.89,0.31,-0.32,-0.41,-0.51,-6.19,-6.21,-6.20
255.45,-5.87,0.33,-5.86,0.34,-0.34,-0.42,-0.51,-6.21,-6.20,-6.20
258.00,-5.83,0.37,-5.84,0.36,-0.36,-0.43,-0.52,-6.19,-6.20,-6.20
260.58,-5.81,0.39,-5.81,0.39,-0.39,-0.44,-0.52,-6.20,-6.20,-6.20
263.19,-5.79,0.41,-5.78,0.42,-0.41,-0.45,-0.52,-6.20,-6.19,-6.20
265.82,-5.75,0.45,-5.77,0.43,-0.43,-0.46,-0.52,-6.19,-6.20,-6.20
268.48,-5.74,0.46,-5.74,0.46,-0.45,-0.47,-0.53,-6.19,-6.20,-6.20
271.16,-5.74,0.46,-5.73,0.47,-0.47,-0.48,-0.53,-6.21,-6.19,-6.20
273.87,-5.70,0.50,-5.72,0.48,-0.48,-0.49,-0.53,-6.18,-6.20,-6.20
276.61,-5.70,0.50,-5.71,0.49,-0.49,-0.50,-0.53,-6.19,-6.20,-6.20
279.38,-5.70,0.50,-5.70,0.50,-0.50,-0.51,-0.54,-6.20,-6.20,-6.20
282.17,-5.70,0.50,-5.70,0.50,-0.51,-0.52,-0.54,-6.21,-6.21,-6.20
284.99,-5.70,0.50,-5.69,0.51,-0.51,-0.53,-0.54,-6.22,-6.20,-6.20
287.84,-5.66,0.54,-5.68,0.52,-0.52,-0.53,-0.54,-6.19,-6.20,-6.20
290.72,-5.66,0.54,-5.67,0.53,-0.53,-0.54,-0.54,-6.20,-6.20,-6.20
293.63,-5.66,0.54,-5.66,0.54,-0.54,-0.55,-0.55,-6.21,-6.20,-6.20
296.57,-5.66,0.54,-5.65,0.55,-0.55,-0.56,-0.55,-6.22,-6.20,-6.20
299.53,-5.61,0.59,-5.63,0.57,-0.57,-0.57,-0.55,-6.18,-6.20,-6.20
302.53,-5.61,0.59,-5.62,0.58,-0.58,-0.58,-0.55,-6.19,-6.20,-6.20
305.55,-5.61,0.59,-5.61,0.59,-0.59,-0.58,-0.56,-6.20,-6.20,-6.20
308.61,-5.61,0.59,-5.60,0.60,-0.60,-0.59,-0.56,-6.21,-6.20,-6.20
311.69,-5.57,0.63,-5.59,0.61,-0.61,-0.60,-0.56,-6.19,-6.20,-6.20
314.81,-5.57,0.63,-5.57,0.63,-0.63,-0.61,-0.57,-6.20,-6.20,-6.20
317.96,-5.57,0.63,-5.56,0.64,-0.64,-0.62,-0.57,-6.21,-6.20,-6.20
321.14,-5.53,0.67,-5.55,0.65,-0.66,-0.63,-0.58,-6.19,-6.21,-6.20
324.35,-5.53,0.67,-5.53,0.67,-0.67,-0.63,-0.58,-6.20,-6.20,-6.20
327.59,-5.52,0.68,-5.51,0.69,-0.69,-0.64,-0.59,-6.21,-6.20,-6.20
330.87,-5.48,0.72,-5.50,0.70,-0.70,-0.65,-0.59,-6.18,-6.20,-6.20
334.18,-5.48,0.72,-5.48,0.72,-0.72,-0.66,-0.60,-6.20,-6.20,-6.20
337.52,-5.48,0.72,-5.47,0.73,-0.73,-0.67,-0.60,-6.21,-6.19,-6.20
340.90,-5.44,0.76,-5.46,0.74,-0.74,-0.68,-0.61,-6.18,-6.20,-6.20
344.30,-5.44,0.76,-5.45,0.75,-0.75,-0.69,-0.62,-6.20,-6.20,-6.20
347.75,-5.44,0.76,-5.43,0.77,-0.76,-0.70,-0.62,-6.21,-6.20,-6.20
351.23,-5.43,0.77,-5.43,0.77,-0.78,-0.71,-0.63,-6.21,-6.20,-6.20
354.74,-5.40,0.80,-5.42,0.78,-0.79,-0.72,-0.64,-6.19,-6.21,-6.20
358.28,-5.40,0.80,-5.40,0.80,-0.80,-0.73,-0.65,-6.20,-6.20,-6.20
361.87,-5.39,0.81,-5.38,0.82,-0.82,-0.74,-0.65,-6.21,-6.20,-6.20
365.49,-5.35,0.85,-5.37,0.83,-0.83,-0.75,-0.66,-6.19,-6.20,-6.20
369.14,-5.35,0.85,-5.34,0.86,-0.85,-0.76,-0.67,-6.21,-6.20,-6.20
372.83,-5.31,0.89,-5.32,0.88,-0.88,-0.78,-0.68,-6.19,-6.20,-6.20
376.56,-5.31,0.89,-5.30,0.90,-0.90,-0.79,-0.69,-6.21,-6.20,-6.20
380.33,-5.27,0.93,-5.28,0.92,-0.92,-0.80,-0.70,-6.20,-6.20,-6.20
384.13,-5.25,0.95,-5.25,0.95,-0.95,-0.81,-0.71,-6.20,-6.20,-6.20
387.97,-5.22,0.98,-5.22,0.98,-0.98,-0.82,-0.73,-6.20,-6.20,-6.20
391.85,-5.19,1.01,-5.19,1.01,-1.00,-0.84,-0.74,-6.20,-6.20,-6.20
395.77,-5.16,1.04,-5.16,1.04,-1.03,-0.85,-0.75,-6.20,-6.20,-6.20
399.73,-5.13,1.07,-5.13,1.07,-1.07,-0.87,-0.77,-6.20,-6.20,-6.20
403.72,-5.10,1.10,-5.10,1.10,-1.10,-0.88,-0.78,-6.20,-6.20,-6.20
407.76,-5.07,1.13,-5.07,1.13,-1.13,-0.90,-0.79,-6.21,-6.20,-6.20
411.84,-5.03,1.17,-5.03,1.17,-1.17,-0.91,-0.81,-6.20,-6.20,-6.20
415.96,-4.99,1.21,-5.00,1.20,-1.20,-0.93,-0.82,-6.20,-6.20,-6.20
420.12,-4.96,1.24,-4.96,1.24,-1.24,-0.94,-0.84,-6.20,-6.20,-6.20
424.32,-4.92,1.28,-4.92,1.28,-1.27,-0.96,-0.86,-6.20,-6.20,-6.20
428.56,-4.88,1.32,-4.89,1.31,-1.31,-0.98,-0.87,-6.19,-6.20,-6.20
