frequency,raw,error,smoothed,error_smoothed,equalization,parametric_eq,fixed_band_eq,equalized_raw,equalized_smoothed,target
20.00,-1.85,-4.47,-1.85,-4.48,4.50,3.06,1.16,2.65,2.64,2.63
20.20,-1.83,-4.45,-1.82,-4.44,4.44,3.06,1.19,2.62,2.63,2.63
20.40,-1.78,-4.40,-1.77,-4.40,4.39,3.05,1.23,2.61,2.62,2.63
20.61,-1.72,-4.34,-1.72,-4.35,4.34,3.04,1.26,2.62,2.61,2.63
20.81,-1.67,-4.29,-1.66,-4.29,4.28,3.02,1.30,2.62,2.62,2.63
21.02,-1.61,-4.23,-1.61,-4.23,4.23,3.01,1.34,2.62,2.62,2.63
21.23,-1.55,-4.17,-1.55,-4.17,4.17,3.00,1.38,2.62,2.62,2.62
21.44,-1.49,-4.11,-1.49,-4.11,4.11,2.99,1.43,2.63,2.63,2.62
21.66,-1.43,-4.05,-1.43,-4.05,4.05,2.98,1.47,2.63,2.62,2.62
21.87,-1.38,-4.00,-1.37,-3.99,3.99,2.97,1.51,2.62,2.63,2.62
22.09,-1.31,-3.93,-1.31,-3.93,3.93,2.96,1.56,2.63,2.63,2.62
22.31,-1.25,-3.87,-1.25,-3.88,3.88,2.95,1.61,2.63,2.63,2.62
22.54,-1.20,-3.82,-1.20,-3.82,3.82,2.93,1.65,2.62,2.62,2.62
22.76,-1.16,-3.78,-1.14,-3.77,3.77,2.92,1.70,2.61,2.62,2.62
22.99,-1.09,-3.71,-1.09,-3.71,3.71,2.91,1.75,2.62,2.62,2.62
23.22,-1.03,-3.65,-1.04,-3.66,3.65,2.90,1.80,2.63,2.62,2.62
23.45,-0.99,-3.61,-0.98,-3.60,3.60,2.88,1.86,2.61,2.62,2.62
23.69,-0.93,-3.55,-0.93,-3.55,3.54,2.87,1.91,2.61,2.61,2.62
23.92,-0.87,-3.49,-0.87,-3.49,3.48,2.86,1.97,2.62,2.62,2.62
24.16,-0.81,-3.42,-0.80,-3.42,3.43,2.84,2.02,2.62,2.62,2.62
24.40,-0.75,-3.36,-0.74,-3.36,3.37,2.83,2.08,2.63,2.63,2.62
24.65,-0.69,-3.30,-0.69,-3.31,3.31,2.81,2.14,2.63,2.63,2.62
24.89,-0.64,-3.25,-0.64,-3.26,3.26,2.80,2.19,2.62,2.62,2.62
25.14,-0.60,-3.21,-0.59,-3.21,3.21,2.78,2.25,2.61,2.61,2.62
25.39,-0.55,-3.16,-0.54,-3.16,3.15,2.77,2.31,2.61,2.61,2.62
25.65,-0.50,-3.11,-0.49,-3.11,3.10,2.75,2.37,2.60,2.61,2.62
25.91,-0.43,-3.04,-0.43,-3.05,3.05,2.73,2.43,2.62,2.62,2.61
26.16,-0.38,-2.99,-0.38,-3.00,3.00,2.72,2.49,2.62,2.62,2.61
26.43,-0.34,-2.95,-0.33,-2.95,2.95,2.70,2.54,2.61,2.62,2.61
26.69,-0.29,-2.90,-0.28,-2.90,2.90,2.68,2.60,2.61,2.61,2.61
26.96,-0.24,-2.85,-0.23,-2.85,2.84,2.66,2.66,2.61,2.61,2.61
27.23,-0.18,-2.79,-0.18,-2.79,2.79,2.65,2.71,2.62,2.61,2.61
27.50,-0.14,-2.75,-0.13,-2.74,2.74,2.63,2.76,2.61,2.61,2.61
27.77,-0.09,-2.69,-0.08,-2.69,2.70,2.61,2.81,2.61,2.61,2.61
28.05,-0.04,-2.64,-0.04,-2.65,2.65,2.59,2.86,2.61,2.61,2.61
28.33,0.01,-2.59,0.01,-2.60,2.60,2.57,2.91,2.61,2.61,2.61
28.62,0.04,-2.56,0.05,-2.56,2.55,2.55,2.95,2.60,2.60,2.61
28.90,0.09,-2.51,0.09,-2.51,2.51,2.52,2.99,2.60,2.60,2.61
29.19,0.14,-2.46,0.14,-2.46,2.46,2.50,3.02,2.61,2.60,2.60
29.48,0.18,-2.42,0.19,-2.42,2.42,2.48,3.05,2.60,2.61,2.60
29.78,0.23,-2.37,0.23,-2.37,2.38,2.46,3.08,2.61,2.60,2.60
30.08,0.26,-2.34,0.27,-2.33,2.33,2.44,3.10,2.60,2.60,2.60
30.38,0.31,-2.29,0.31,-2.29,2.29,2.41,3.12,2.60,2.60,2.60
30.68,0.34,-2.25,0.35,-2.25,2.25,2.39,3.13,2.59,2.59,2.60
30.99,0.39,-2.20,0.39,-2.21,2.21,2.36,3.14,2.60,2.60,2.60
31.30,0.42,-2.17,0.43,-2.17,2.17,2.34,3.15,2.59,2.60,2.60
31.61,0.47,-2.12,0.47,-2.13,2.13,2.31,3.15,2.60,2.60,2.59
31.93,0.50,-2.09,0.50,-2.09,2.09,2.28,3.14,2.60,2.59,2.59
32.24,0.53,-2.06,0.54,-2.05,2.06,2.26,3.13,2.59,2.59,2.59
32.57,0.56,-2.03,0.57,-2.02,2.02,2.23,3.11,2.59,2.59,2.59
32.89,0.60,-1.98,0.60,-1.99,1.99,2.20,3.09,2.59,2.59,2.59
33.22,0.62,-1.96,0.62,-1.96,1.96,2.17,3.07,2.58,2.59,2.59
33.55,0.64,-1.94,0.65,-1.93,1.93,2.14,3.04,2.58,2.58,2.58
33.89,0.68,-1.90,0.68,-1.90,1.90,2.11,3.01,2.59,2.58,2.58
34.23,0.70,-1.88,0.71,-1.87,1.88,2.08,2.97,2.58,2.58,2.58
34.57,0.73,-1.84,0.73,-1.85,1.85,2.04,2.93,2.58,2.58,2.58
34.92,0.75,-1.82,0.76,-1.82,1.82,2.01,2.89,2.58,2.58,2.58
35.27,0.77,-1.80,0.78,-1.80,1.80,1.98,2.85,2.57,2.58,2.57
35.62,0.81,-1.76,0.80,-1.77,1.77,1.94,2.80,2.59,2.57,2.57
35.97,0.81,-1.76,0.82,-1.75,1.75,1.91,2.75,2.56,2.57,2.57
36.33,0.85,-1.71,0.85,-1.72,1.72,1.87,2.71,2.57,2.57,2.57
36.70,0.86,-1.70,0.87,-1.69,1.69,1.83,2.65,2.56,2.56,2.56
37.06,0.90,-1.66,0.90,-1.67,1.66,1.80,2.60,2.57,2.56,2.56
37.43,0.92,-1.64,0.92,-1.64,1.63,1.76,2.55,2.56,2.55,2.56
37.81,0.94,-1.61,0.96,-1.60,1.60,1.72,2.50,2.54,2.55,2.56
38.19,0.99,-1.56,0.99,-1.56,1.56,1.68,2.45,2.56,2.55,2.55
38.57,1.03,-1.52,1.03,-1.52,1.53,1.64,2.39,2.56,2.56,2.55
38.95,1.06,-1.48,1.06,-1.48,1.49,1.60,2.34,2.55,2.55,2.55
39.34,1.09,-1.45,1.10,-1.45,1.45,1.55,2.29,2.54,2.54,2.54
39.74,1.12,-1.42,1.13,-1.41,1.41,1.51,2.24,2.53,2.54,2.54
40.14,1.17,-1.36,1.17,-1.37,1.37,1.47,2.19,2.54,2.53,2.54
40.54,1.20,-1.33,1.21,-1.33,1.32,1.42,2.14,2.53,2.53,2.53
40.94,1.25,-1.28,1.25,-1.28,1.28,1.38,2.09,2.54,2.53,2.53
41.35,1.28,-1.24,1.29,-1.24,1.24,1.34,2.04,2.52,2.53,2.53
41.76,1.33,-1.19,1.33,-1.19,1.20,1.29,2.00,2.53,2.53,2.52
42.18,1.36,-1.15,1.36,-1.16,1.16,1.25,1.95,2.52,2.52,2.52
42.60,1.39,-1.12,1.40,-1.12,1.12,1.20,1.91,2.51,2.51,2.51
43.03,1.42,-1.09,1.43,-1.08,1.08,1.16,1.87,2.50,2.50,2.51
43.46,1.46,-1.04,1.46,-1.04,1.04,1.11,1.83,2.50,2.50,2.50
43.90,1.50,-1.00,1.50,-1.00,1.00,1.07,1.79,2.50,2.50,2.50
44.33,1.53,-0.96,1.53,-0.96,0.96,1.03,1.75,2.50,2.50,2.49
44.78,1.56,-0.93,1.57,-0.92,0.93,0.98,1.72,2.49,2.49,2.49
45.23,1.59,-0.89,1.59,-0.89,0.89,0.94,1.68,2.49,2.48,2.48
45.68,1.62,-0.85,1.62,-0.85,0.86,0.90,1.65,2.48,2.48,2.48
46.13,1.64,-0.83,1.65,-0.82,0.83,0.86,1.62,2.47,2.47,2.47
46.60,1.68,-0.78,1.67,-0.79,0.79,0.82,1.59,2.48,2.47,2.47
47.06,1.68,-0.78,1.69,-0.77,0.76,0.79,1.56,2.45,2.46,2.46
47.53,1.72,-0.73,1.72,-0.74,0.73,0.75,1.53,2.46,2.45,2.45
48.01,1.73,-0.71,1.74,-0.71,0.70,0.72,1.50,2.44,2.45,2.45
48.49,1.77,-0.67,1.77,-0.67,0.67,0.68,1.48,2.45,2.44,2.44
48.97,1.79,-0.64,1.79,-0.64,0.64,0.65,1.45,2.44,2.43,2.43
49.46,1.81,-0.61,1.81,-0.61,0.61,0.62,1.43,2.42,2.42,2.43
49.96,1.83,-0.58,1.84,-0.58,0.58,0.60,1.41,2.41,2.41,2.42
50.46,1.86,-0.55,1.87,-0.54,0.54,0.57,1.39,2.41,2.41,2.41
50.96,1.90,-0.50,1.89,-0.51,0.51,0.55,1.37,2.41,2.40,2.40
51.47,1.91,-0.48,1.92,-0.47,0.47,0.53,1.35,2.39,2.40,2.39
51.99,1.94,-0.44,1.95,-0.44,0.44,0.51,1.32,2.38,2.39,2.39
52.51,1.97,-0.40,1.96,-0.41,0.41,0.50,1.30,2.38,2.37,2.38
53.03,1.98,-0.38,1.98,-0.38,0.38,0.48,1.28,2.36,2.36,2.37
53.56,1.98,-0.37,2.00,-0.35,0.35,0.47,1.26,2.34,2.35,2.36
54.10,2.03,-0.31,2.02,-0.32,0.33,0.46,1.24,2.36,2.35,2.35
54.64,2.03,-0.30,2.03,-0.31,0.32,0.45,1.22,2.35,2.35,2.34
55.18,2.03,-0.29,2.02,-0.30,0.31,0.44,1.20,2.34,2.33,2.33
55.74,1.98,-0.33,2.00,-0.31,0.31,0.44,1.18,2.30,2.31,2.31
56.29,1.98,-0.32,1.98,-0.32,0.32,0.44,1.16,2.31,2.30,2.30
56.86,1.95,-0.34,1.95,-0.34,0.34,0.44,1.13,2.30,2.29,2.29
57.42,1.92,-0.36,1.92,-0.36,0.37,0.44,1.11,2.29,2.29,2.28
58.00,1.86,-0.40,1.86,-0.40,0.40,0.45,1.08,2.27,2.27,2.27
58.58,1.80,-0.45,1.81,-0.45,0.44,0.46,1.05,2.25,2.25,2.25
59.16,1.74,-0.50,1.75,-0.49,0.49,0.47,1.02,2.23,2.23,2.24
59.76,1.69,-0.53,1.69,-0.54,0.53,0.48,0.99,2.23,2.22,2.23
60.35,1.62,-0.59,1.63,-0.59,0.58,0.51,0.95,2.21,2.21,2.21
60.96,1.56,-0.63,1.56,-0.63,0.63,0.53,0.92,2.20,2.20,2.20
61.57,1.49,-0.69,1.49,-0.69,0.69,0.56,0.88,2.18,2.18,2.18
62.18,1.42,-0.74,1.42,-0.74,0.74,0.60,0.84,2.17,2.17,2.17
62.80,1.34,-0.81,1.35,-0.80,0.80,0.64,0.79,2.14,2.15,2.15
63.43,1.27,-0.86,1.27,-0.86,0.86,0.70,0.74,2.14,2.14,2.13
64.07,1.19,-0.92,1.20,-0.92,0.93,0.76,0.70,2.12,2.12,2.12
64.71,1.11,-0.99,1.11,-0.99,1.00,0.83,0.64,2.11,2.11,2.10
65.35,1.01,-1.07,1.01,-1.07,1.07,0.91,0.59,2.09,2.09,2.08
66.01,0.90,-1.16,0.92,-1.15,1.15,1.00,0.53,2.06,2.07,2.06
66.67,0.82,-1.22,0.82,-1.23,1.23,1.10,0.48,2.06,2.05,2.04
67.33,0.72,-1.30,0.72,-1.31,1.31,1.20,0.41,2.03,2.03,2.02
68.01,0.62,-1.38,0.62,-1.38,1.38,1.31,0.35,2.01,2.01,2.00
68.69,0.51,-1.47,0.53,-1.46,1.45,1.41,0.28,1.97,1.98,1.98
69.37,0.45,-1.51,0.44,-1.52,1.51,1.50,0.22,1.96,1.95,1.96
70.07,0.37,-1.57,0.37,-1.57,1.56,1.56,0.14,1.94,1.94,1.94
70.77,0.31,-1.60,0.32,-1.60,1.60,1.60,0.07,1.91,1.92,1.92
71.48,0.28,-1.61,0.28,-1.62,1.63,1.59,-0.00,1.91,1.90,1.90
72.19,0.25,-1.62,0.26,-1.61,1.63,1.55,-0.08,1.89,1.89,1.87
72.91,0.25,-1.59,0.25,-1.60,1.62,1.45,-0.16,1.87,1.87,1.85
73.64,0.25,-1.57,0.25,-1.57,1.58,1.33,-0.24,1.83,1.83,1.82
74.38,0.27,-1.52,0.28,-1.52,1.50,1.16,-0.32,1.78,1.79,1.80
75.12,0.34,-1.43,0.35,-1.42,1.39,0.98,-0.40,1.74,1.74,1.77
75.87,0.47,-1.27,0.47,-1.28,1.24,0.79,-0.49,1.71,1.70,1.75
76.63,0.63,-1.08,0.64,-1.08,1.04,0.59,-0.57,1.67,1.68,1.72
77.40,0.85,-0.84,0.86,-0.83,0.80,0.39,-0.66,1.65,1.66,1.69
78.17,1.12,-0.54,1.12,-0.55,0.52,0.20,-0.75,1.64,1.63,1.66
78.95,1.41,-0.23,1.41,-0.23,0.21,0.02,-0.84,1.61,1.62,1.64
79.74,1.72,0.11,1.73,0.12,-0.12,-0.16,-0.93,1.60,1.61,1.61
80.54,2.04,0.47,2.04,0.46,-0.45,-0.32,-1.03,1.60,1.59,1.58
81.35,2.35,0.81,2.34,0.80,-0.77,-0.47,-1.12,1.58,1.57,1.55
82.16,2.60,1.09,2.61,1.09,-1.06,-0.61,-1.22,1.54,1.55,1.52
82.98,2.84,1.36,2.84,1.35,-1.32,-0.75,-1.32,1.52,1.51,1.48
83.81,3.01,1.56,3.02,1.57,-1.54,-0.88,-1.42,1.47,1.48,1.45
84.65,3.17,1.75,3.16,1.74,-1.71,-1.00,-1.52,1.46,1.45,1.42
85.50,3.24,1.86,3.25,1.86,-1.83,-1.12,-1.62,1.41,1.41,1.39
86.35,3.28,1.93,3.29,1.93,-1.90,-1.23,-1.72,1.38,1.38,1.36
87.22,3.28,1.96,3.27,1.95,-1.93,-1.33,-1.83,1.35,1.34,1.32
88.09,3.22,1.94,3.23,1.94,-1.92,-1.44,-1.94,1.31,1.31,1.29
88.97,3.14,1.89,3.14,1.89,-1.87,-1.54,-2.04,1.27,1.27,1.25
89.86,3.04,1.83,3.04,1.82,-1.81,-1.63,-2.15,1.23,1.23,1.22
90.76,2.92,1.74,2.93,1.75,-1.75,-1.73,-2.27,1.18,1.18,1.18
91.66,2.83,1.69,2.82,1.67,-1.70,-1.82,-2.38,1.14,1.12,1.15
92.58,2.71,1.60,2.73,1.62,-1.67,-1.91,-2.49,1.05,1.07,1.11
93.51,2.68,1.61,2.68,1.61,-1.67,-2.00,-2.61,1.02,1.02,1.07
94.44,2.68,1.65,2.69,1.65,-1.71,-2.09,-2.73,0.98,0.98,1.04
95.39,2.74,1.74,2.75,1.74,-1.79,-2.17,-2.85,0.96,0.96,1.00
96.34,2.84,1.88,2.84,1.87,-1.90,-2.26,-2.97,0.95,0.94,0.96
97.30,2.95,2.03,2.96,2.04,-2.03,-2.34,-3.09,0.92,0.93,0.93
98.28,3.10,2.21,3.10,2.21,-2.19,-2.42,-3.21,0.91,0.91,0.89
99.26,3.24,2.39,3.24,2.38,-2.35,-2.50,-3.33,0.89,0.88,0.85
100.25,3.35,2.54,3.36,2.55,-2.51,-2.59,-3.45,0.84,0.85,0.81
101.25,3.47,2.70,3.46,2.69,-2.66,-2.67,-3.58,0.81,0.80,0.77
102.27,3.55,2.82,3.56,2.82,-2.80,-2.74,-3.70,0.75,0.75,0.74
103.29,3.63,2.94,3.63,2.94,-2.93,-2.82,-3.82,0.70,0.70,0.70
104.32,3.71,3.05,3.71,3.05,-3.06,-2.90,-3.94,0.65,0.65,0.66
105.37,3.77,3.15,3.78,3.16,-3.18,-2.98,-4.06,0.59,0.60,0.62
106.42,3.87,3.29,3.86,3.28,-3.30,-3.05,-4.18,0.57,0.56,0.58
107.48,3.93,3.39,3.95,3.40,-3.42,-3.13,-4.30,0.52,0.53,0.55
108.56,4.04,3.54,4.04,3.53,-3.53,-3.20,-4.41,0.51,0.51,0.51
109.64,4.12,3.66,4.12,3.65,-3.65,-3.27,-4.52,0.48,0.48,0.47
110.74,4.20,3.77,4.20,3.77,-3.76,-3.35,-4.63,0.45,0.45,0.43
111.85,4.26,3.87,4.26,3.87,-3.86,-3.42,-4.73,0.41,0.40,0.39
112.97,4.30,3.95,4.31,3.96,-3.95,-3.49,-4.82,0.35,0.36,0.36
114.10,4.35,4.04,4.35,4.04,-4.04,-3.56,-4.92,0.32,0.32,0.32
115.24,4.40,4.12,4.39,4.11,-4.11,-3.63,-5.00,0.29,0.28,0.28
116.39,4.41,4.17,4.43,4.18,-4.18,-3.69,-5.08,0.24,0.25,0.24
117.55,4.45,4.25,4.44,4.23,-4.24,-3.76,-5.14,0.22,0.20,0.21
118.73,4.45,4.28,4.46,4.29,-4.29,-3.83,-5.20,0.16,0.17,0.17
119.92,4.46,4.33,4.48,4.34,-4.34,-3.89,-5.25,0.12,0.14,0.13
121.12,4.50,4.41,4.49,4.39,-4.39,-3.95,-5.29,0.11,0.10,0.10
122.33,4.50,4.44,4.50,4.44,-4.44,-4.02,-5.32,0.06,0.06,0.06
123.55,4.50,4.48,4.52,4.49,-4.49,-4.08,-5.35,0.01,0.02,0.03
124.79,4.53,4.54,4.53,4.53,-4.54,-4.14,-5.35,-0.01,-0.02,-0.01
126.03,4.54,4.59,4.54,4.59,-4.60,-4.20,-5.35,-0.05,-0.05,-0.04
127.29,4.57,4.65,4.57,4.65,-4.65,-4.25,-5.34,-0.07,-0.08,-0.07
128.57,4.58,4.69,4.60,4.70,-4.70,-4.31,-5.32,-0.11,-0.10,-0.11
129.85,4.63,4.77,4.62,4.76,-4.75,-4.36,-5.28,-0.12,-0.13,-0.14
131.15,4.63,4.81,4.63,4.80,-4.80,-4.41,-5.25,-0.17,-0.17,-0.17
132.46,4.63,4.84,4.64,4.85,-4.85,-4.46,-5.19,-0.21,-0.21,-0.21
133.79,4.63,4.87,4.65,4.88,-4.89,-4.51,-5.13,-0.26,-0.24,-0.24
135.12,4.67,4.94,4.66,4.93,-4.93,-4.56,-5.06,-0.26,-0.27,-0.27
136.48,4.67,4.97,4.67,4.97,-4.97,-4.61,-4.99,-0.30,-0.30,-0.30
137.84,4.67,5.00,4.68,5.01,-5.00,-4.65,-4.90,-0.33,-0.33,-0.33
139.22,4.67,5.03,4.67,5.03,-5.03,-4.69,-4.82,-0.36,-0.36,-0.36
140.61,4.67,5.06,4.68,5.06,-5.06,-4.73,-4.72,-0.39,-0.38,-0.39
142.02,4.67,5.09,4.67,5.09,-5.08,-4.77,-4.62,-0.41,-0.41,-0.41
143.44,4.67,5.12,4.66,5.10,-5.10,-4.80,-4.52,-0.42,-0.43,-0.44
144.87,4.63,5.10,4.64,5.11,-5.11,-4.84,-4.41,-0.47,-0.46,-0.47
146.32,4.61,5.11,4.61,5.11,-5.11,-4.87,-4.30,-0.50,-0.50,-0.49
147.78,4.58,5.10,4.58,5.10,-5.11,-4.90,-4.19,-0.53,-0.53,-0.52
149.26,4.55,5.10,4.56,5.10,-5.10,-4.93,-4.08,-0.55,-0.55,-0.55
150.75,4.52,5.09,4.52,5.09,-5.09,-4.95,-3.96,-0.57,-0.57,-0.57
152.26,4.49,5.09,4.49,5.08,-5.08,-4.97,-3.84,-0.59,-0.59,-0.59
153.78,4.44,5.06,4.45,5.07,-5.07,-4.99,-3.73,-0.62,-0.62,-0.62
155.32,4.41,5.06,4.41,5.05,-5.05,-5.01,-3.61,-0.64,-0.64,-0.64
156.88,4.36,5.03,4.37,5.03,-5.03,-5.03,-3.49,-0.67,-0.67,-0.66
158.44,4.33,5.02,4.33,5.01,-5.01,-5.04,-3.38,-0.68,-0.69,-0.69
160.03,4.27,4.98,4.28,4.99,-4.99,-5.05,-3.26,-0.72,-0.71,-0.71
161.63,4.24,4.97,4.24,4.97,-4.97,-5.05,-3.15,-0.73,-0.73,-0.73
163.24,4.19,4.94,4.20,4.94,-4.95,-5.06,-3.03,-0.76,-0.76,-0.75
164.88,4.16,4.93,4.16,4.93,-4.93,-5.06,-2.92,-0.77,-0.77,-0.77
166.53,4.11,4.90,4.12,4.91,-4.91,-5.05,-2.81,-0.79,-0.79,-0.79
168.19,4.08,4.89,4.08,4.88,-4.88,-5.05,-2.70,-0.80,-0.80,-0.81
169.87,4.02,4.85,4.03,4.85,-4.84,-5.04,-2.59,-0.82,-0.82,-0.82
171.57,3.96,4.81,3.97,4.81,-4.80,-5.03,-2.48,-0.83,-0.83,-0.84
173.29,3.91,4.77,3.90,4.76,-4.74,-5.01,-2.38,-0.83,-0.84,-0.86
175.02,3.82,4.70,3.83,4.70,-4.67,-4.99,-2.28,-0.85,-0.85,-0.88
176.77,3.74,4.64,3.74,4.63,-4.61,-4.97,-2.17,-0.86,-0.87,-0.89
178.54,3.63,4.54,3.64,4.55,-4.54,-4.94,-2.07,-0.91,-0.90,-0.91
180.32,3.55,4.48,3.54,4.47,-4.49,-4.91,-1.98,-0.93,-0.94,-0.92
182.13,3.45,4.39,3.47,4.40,-4.45,-4.88,-1.88,-0.99,-0.98,-0.94
183.95,3.41,4.37,3.42,4.37,-4.43,-4.84,-1.78,-1.01,-1.01,-0.95
185.79,3.41,4.38,3.41,4.38,-4.43,-4.80,-1.69,-1.01,-1.02,-0.97
187.65,3.43,4.41,3.44,4.42,-4.44,-4.75,-1.60,-1.01,-1.00,-0.98
189.52,3.48,4.48,3.48,4.47,-4.47,-4.70,-1.51,-0.99,-0.99,-0.99
191.42,3.52,4.53,3.52,4.53,-4.50,-4.65,-1.42,-0.98,-0.98,-1.01
193.33,3.55,4.57,3.55,4.57,-4.53,-4.59,-1.33,-0.97,-0.98,-1.02
195.27,3.55,4.58,3.55,4.58,-4.54,-4.53,-1.25,-0.99,-0.99,-1.03
197.22,3.52,4.57,3.52,4.57,-4.54,-4.46,-1.17,-1.02,-1.02,-1.04
199.19,3.47,4.53,3.48,4.53,-4.52,-4.39,-1.08,-1.05,-1.04,-1.05
201.18,3.41,4.48,3.41,4.48,-4.48,-4.31,-1.00,-1.06,-1.07,-1.06
203.19,3.33,4.41,3.33,4.41,-4.42,-4.22,-0.92,-1.09,-1.08,-1.07
205.23,3.25,4.34,3.25,4.34,-4.35,-4.14,-0.85,-1.09,-1.09,-1.08
207.28,3.15,4.25,3.16,4.26,-4.26,-4.04,-0.77,-1.11,-1.10,-1.09
209.35,3.07,4.18,3.07,4.17,-4.17,-3.94,-0.70,-1.10,-1.10,-1.10
211.44,2.96,4.08,2.96,4.07,-4.07,-3.84,-0.62,-1.11,-1.11,-1.11
213.56,2.84,3.97,2.85,3.97,-3.97,-3.73,-0.55,-1.12,-1.12,-1.12
215.69,2.72,3.85,2.72,3.85,-3.86,-3.62,-0.48,-1.13,-1.14,-1.13
217.85,2.59,3.73,2.60,3.73,-3.74,-3.50,-0.42,-1.15,-1.15,-1.14
220.03,2.46,3.61,2.46,3.61,-3.61,-3.37,-0.35,-1.15,-1.15,-1.15
222.23,2.32,3.48,2.32,3.48,-3.48,-3.24,-0.29,-1.15,-1.15,-1.15
224.45,2.17,3.33,2.18,3.34,-3.33,-3.11,-0.22,-1.16,-1.15,-1.16
226.70,2.02,3.19,2.02,3.18,-3.17,-2.96,-0.17,-1.15,-1.16,-1.17
228.96,1.84,3.02,1.84,3.02,-3.01,-2.81,-0.11,-1.16,-1.17,-1.18
231.25,1.64,2.83,1.65,2.83,-2.83,-2.65,-0.05,-1.19,-1.18,-1.18
233.57,1.45,2.64,1.45,2.64,-2.65,-2.49,0.00,-1.19,-1.20,-1.19
235.90,1.24,2.44,1.25,2.44,-2.45,-2.32,0.05,-1.21,-1.20,-1.19
238.26,1.04,2.24,1.04,2.24,-2.25,-2.15,0.10,-1.20,-1.21,-1.20
240.64,0.83,2.04,0.83,2.03,-2.04,-1.96,0.15,-1.20,-1.21,-1.21
243.05,0.60,1.82,0.61,1.82,-1.82,-1.78,0.19,-1.22,-1.21,-1.21
245.48,0.38,1.60,0.38,1.60,-1.59,-1.58,0.23,-1.21,-1.21,-1.22
247.93,0.15,1.38,0.14,1.37,-1.36,-1.38,0.27,-1.21,-1.22,-1.22
250.41,-0.11,1.12,-0.10,1.13,-1.13,-1.16,0.31,-1.23,-1.22,-1.23
252.92,-0.36,0.88,-0.35,0.88,-0.88,-0.95,0.35,-1.24,-1.23,-1.23
255.45,-0.60,0.64,-0.61,0.63,-0.63,-0.72,0.38,-1.23,-1.24,-1.24
258.00,-0.87,0.38,-0.87,0.38,-0.38,-0.50,0.41,-1.24,-1.24,-1.24
260.58,-1.14,0.11,-1.13,0.11,-0.12,-0.26,0.44,-1.26,-1.25,-1.25
263.19,-1.42,-0.17,-1.42,-0.16,0.14,-0.02,0.46,-1.28,-1.28,-1.25
265.82,-1.69,-0.43,-1.69,-0.44,0.40,0.24,0.49,-1.29,-1.30,-1.25
268.48,-2.00,-0.74,-1.98,-0.72,0.66,0.49,0.51,-1.34,-1.32,-1.26
271.16,-2.26,-0.99,-2.27,-1.01,0.92,0.75,0.53,-1.34,-1.36,-1.26
273.87,-2.58,-1.31,-2.57,-1.30,1.17,1.02,0.55,-1.40,-1.40,-1.27
276.61,-2.88,-1.61,-2.88,-1.61,1.43,1.30,0.57,-1.44,-1.44,-1.27
279.38,-3.20,-1.92,-3.20,-1.93,1.69,1.57,0.59,-1.51,-1.51,-1.27
282.17,-3.54,-2.26,-3.53,-2.26,1.95,1.85,0.60,-1.59,-1.58,-1.28
284.99,-3.88,-2.60,-3.88,-2.60,2.21,2.14,0.62,-1.67,-1.67,-1.28
287.84,-4.24,-2.95,-4.23,-2.95,2.47,2.42,0.63,-1.77,-1.77,-1.28
290.72,-4.60,-3.31,-4.60,-3.31,2.72,2.71,0.65,-1.87,-1.87,-1.29
293.63,-4.96,-3.67,-4.96,-3.68,2.98,2.99,0.66,-1.97,-1.98,-1.29
296.57,-5.34,-4.04,-5.33,-4.04,3.24,3.27,0.67,-2.09,-2.09,-1.29
299.53,-5.70,-4.40,-5.69,-4.40,3.50,3.55,0.69,-2.20,-2.19,-1.29
302.53,-6.05,-4.75,-6.05,-4.75,3.76,3.82,0.70,-2.29,-2.29,-1.30
305.55,-6.39,-5.09,-6.39,-5.09,4.02,4.08,0.71,-2.37,-2.37,-1.30
308.61,-6.72,-5.41,-6.72,-5.42,4.28,4.33,0.72,-2.44,-2.44,-1.30
311.69,-7.05,-5.74,-7.04,-5.74,4.56,4.56,0.74,-2.49,-2.48,-1.30
314.81,-7.36,-6.05,-7.35,-6.04,4.84,4.77,0.75,-2.52,-2.51,-1.31
317.96,-7.62,-6.31,-7.63,-6.33,5.10,4.97,0.76,-2.52,-2.54,-1.31
321.14,-7.90,-6.59,-7.88,-6.57,5.34,5.14,0.78,-2.56,-2.55,-1.31
324.35,-8.10,-6.78,-8.09,-6.78,5.55,5.28,0.79,-2.55,-2.54,-1.31
327.59,-8.26,-6.94,-8.26,-6.95,5.72,5.40,0.81,-2.53,-2.54,-1.31
330.87,-8.37,-7.05,-8.37,-7.05,5.86,5.48,0.82,-2.51,-2.51,-1.32
334.18,-8.44,-7.12,-8.43,-7.11,5.96,5.54,0.84,-2.48,-2.47,-1.32
337.52,-8.44,-7.12,-8.43,-7.11,6.02,5.57,0.85,-2.42,-2.42,-1.32
340.90,-8.39,-7.07,-8.39,-7.07,6.06,5.57,0.87,-2.33,-2.33,-1.32
344.30,-8.30,-6.97,-8.30,-6.98,6.08,5.53,0.89,-2.22,-2.22,-1.32
347.75,-8.19,-6.86,-8.17,-6.85,6.08,5.48,0.91,-2.11,-2.09,-1.32
351.23,-8.01,-6.68,-8.01,-6.69,6.06,5.39,0.93,-1.95,-1.95,-1.33
354.74,-7.82,-6.49,-7.83,-6.50,6.02,5.29,0.95,-1.80,-1.81,-1.33
358.28,-7.64,-6.31,-7.62,-6.30,5.96,5.16,0.97,-1.68,-1.67,-1.33
361.87,-7.41,-6.08,-7.41,-6.08,5.86,5.03,0.99,-1.55,-1.55,-1.33
365.49,-7.17,-5.84,-7.17,-5.84,5.72,4.87,1.02,-1.44,-1.44,-1.33
369.14,-6.91,-5.57,-6.90,-5.57,5.55,4.71,1.04,-1.36,-1.36,-1.33
372.83,-6.64,-5.30,-6.64,-5.30,5.34,4.54,1.07,-1.30,-1.30,-1.33
376.56,-6.37,-5.03,-6.37,-5.04,5.09,4.36,1.09,-1.27,-1.28,-1.33
380.33,-6.11,-4.77,-6.11,-4.77,4.83,4.17,1.12,-1.28,-1.28,-1.33
384.13,-5.86,-4.52,-5.85,-4.52,4.55,3.99,1.15,-1.31,-1.30,-1.34
387.97,-5.60,-4.26,-5.60,-4.26,4.26,3.80,1.17,-1.33,-1.33,-1.34
391.85,-5.34,-4.00,-5.34,-4.00,3.99,3.62,1.20,-1.35,-1.35,-1.34
395.77,-5.08,-3.74,-5.07,-3.73,3.71,3.43,1.23,-1.36,-1.36,-1.34
399.73,-4.80,-3.46,-4.80,-3.46,3.44,3.25,1.26,-1.36,-1.36,-1.34
403.72,-4.53,-3.19,-4.52,-3.18,3.16,3.07,1.29,-1.37,-1.36,-1.34
407.76,-4.22,-2.87,-4.23,-2.89,2.88,2.89,1.32,-1.33,-1.35,-1.34
411.84,-3.97,-2.62,-3.95,-2.61,2.62,2.72,1.34,-1.35,-1.34,-1.34
415.96,-3.69,-2.34,-3.69,-2.35,2.36,2.55,1.37,-1.32,-1.32,-1.34
420.12,-3.45,-2.10,-3.45,-2.11,2.13,2.39,1.40,-1.32,-1.32,-1.34
424.32,-3.24,-1.89,-3.24,-1.89,1.92,2.23,1.43,-1.32,-1.32,-1.34
428.56,-3.06,-1.71,-3.06,-1.71,1.73,2.08,1.46,-1.32,-1.33,-1.35
432.85,-2.92,-1.57,-2.91,-1.56,1.57,1.93,1.48,-1.34,-1.34,-1.35
437.18,-2.78,-1.43,-2.78,-1.43,1.43,1.78,1.51,-1.34,-1.35,-1.35
441.55,-2.68,-1.33,-2.67,-1.32,1.32,1.64,1.53,-1.36,-1.35,-1.35
445.96,-2.57,-1.22,-2.57,-1.22,1.22,1.51,1.55,-1.34,-1.35,-1.35
450.42,-2.49,-1.14,-2.48,-1.13,1.14,1.38,1.57,-1.35,-1.34,-1.35
454.93,-2.41,-1.06,-2.41,-1.06,1.06,1.25,1.59,-1.34,-1.34,-1.35
459.48,-2.34,-0.99,-2.34,-0.99,0.99,1.13,1.60,-1.34,-1.35,-1.35
464.07,-2.29,-0.94,-2.28,-0.93,0.92,1.02,1.61,-1.36,-1.36,-1.35
468.71,-2.22,-0.87,-2.21,-0.86,0.85,0.90,1.62,-1.37,-1.36,-1.35
473.40,-2.14,-0.79,-2.14,-0.79,0.78,0.80,1.63,-1.36,-1.36,-1.35
478.13,-2.05,-0.69,-2.05,-0.70,0.69,0.70,1.63,-1.35,-1.36,-1.35
482.91,-1.98,-0.62,-1.96,-0.61,0.61,0.60,1.63,-1.37,-1.36,-1.35
487.74,-1.86,-0.50,-1.86,-0.51,0.51,0.50,1.63,-1.35,-1.36,-1.35
492.62,-1.76,-0.40,-1.76,-0.41,0.40,0.41,1.62,-1.35,-1.36,-1.35
497.55,-1.65,-0.29,-1.64,-0.29,0.29,0.33,1.61,-1.36,-1.35,-1.35
502.52,-1.53,-0.17,-1.53,-0.17,0.17,0.25,1.60,-1.36,-1.36,-1.35
507.55,-1.40,-0.04,-1.40,-0.05,0.04,0.17,1.58,-1.36,-1.36,-1.35
