frequency,raw
20.00,-15.70
20.20,-15.44
20.40,-15.19
20.61,-14.93
20.81,-14.68
21.02,-14.43
21.23,-14.36
21.44,-14.28
21.66,-14.20
21.87,-14.12
22.09,-14.01
22.31,-13.88
22.54,-13.73
22.76,-13.59
22.99,-13.46
23.22,-13.28
23.45,-13.11
23.69,-12.93
23.92,-12.76
24.16,-12.61
24.40,-12.46
24.65,-12.32
24.89,-12.16
25.14,-12.03
25.39,-11.90
25.65,-11.77
25.91,-11.65
26.16,-11.52
26.43,-11.39
26.69,-11.27
26.96,-11.13
27.23,-10.91
27.50,-10.67
27.77,-10.43
28.05,-10.21
28.33,-10.13
28.62,-10.05
28.90,-9.97
29.19,-9.85
29.48,-9.73
29.78,-9.60
30.08,-9.47
30.38,-9.34
30.68,-9.21
30.99,-9.08
31.30,-8.94
31.61,-8.81
31.93,-8.68
32.24,-8.54
32.57,-8.42
32.89,-8.28
33.22,-8.16
33.55,-8.02
33.89,-7.90
34.23,-7.75
34.57,-7.60
34.92,-7.45
35.27,-7.29
35.62,-7.15
35.97,-7.01
36.33,-6.95
36.70,-6.89
37.06,-6.82
37.43,-6.66
37.81,-6.50
38.19,-6.37
38.57,-6.25
38.95,-6.12
39.34,-6.00
39.74,-5.87
40.14,-5.77
40.54,-5.70
40.94,-5.64
41.35,-5.46
41.76,-5.28
42.18,-5.10
42.60,-4.90
43.03,-4.74
43.46,-4.88
43.90,-5.03
44.33,-4.87
44.78,-4.60
45.23,-4.41
45.68,-4.29
46.13,-4.22
46.60,-4.27
47.06,-4.28
47.53,-3.94
48.01,-3.62
48.49,-3.57
48.97,-3.51
49.46,-3.53
49.96,-3.56
50.46,-3.40
50.96,-3.22
51.47,-3.06
51.99,-2.89
52.51,-2.99
53.03,-3.09
53.56,-3.03
54.10,-2.94
54.64,-2.65
55.18,-2.48
55.74,-2.57
56.29,-2.62
56.86,-2.67
57.42,-2.53
58.00,-2.33
58.58,-2.13
59.16,-2.03
59.76,-2.18
60.35,-2.01
60.96,-1.60
61.57,-1.83
62.18,-1.96
62.80,-1.73
63.43,-1.73
64.07,-1.80
64.71,-1.57
65.35,-1.45
66.01,-1.43
66.67,-1.41
67.33,-1.40
68.01,-1.38
68.69,-1.44
69.37,-1.47
70.07,-1.46
70.77,-1.36
71.48,-1.23
72.19,-1.10
72.91,-0.98
73.64,-0.82
74.38,-0.66
75.12,-0.57
75.87,-0.64
76.63,-0.43
77.40,-0.22
78.17,-0.07
78.95,0.04
79.74,0.12
80.54,0.05
81.35,0.02
82.16,0.14
82.98,0.38
83.81,0.47
84.65,0.49
85.50,0.55
86.35,0.68
87.22,0.72
88.09,0.53
88.97,0.58
89.86,0.66
90.76,0.70
91.66,0.77
92.58,0.69
93.51,0.64
94.44,0.66
95.39,0.62
96.34,0.53
97.30,0.54
98.28,0.49
99.26,0.32
100.25,0.22
101.25,0.23
102.27,0.17
103.29,0.01
104.32,-0.14
105.37,-0.23
106.42,-0.30
107.48,-0.53
108.56,-0.75
109.64,-0.88
110.74,-0.89
111.85,-0.80
112.97,-1.07
114.10,-1.13
115.24,-0.99
116.39,-0.98
117.55,-0.93
118.73,-0.84
119.92,-0.77
121.12,-0.74
122.33,-0.71
123.55,-0.51
124.79,-0.26
126.03,-0.24
127.29,-0.16
128.57,-0.11
129.85,-0.19
131.15,-0.06
132.46,-0.07
133.79,0.03
135.12,0.16
136.48,0.24
137.84,0.30
139.22,0.37
140.61,0.50
142.02,0.69
143.44,0.68
144.87,0.64
146.32,0.78
147.78,0.99
149.26,1.00
150.75,1.00
152.26,1.07
153.78,1.15
155.32,1.23
156.88,1.21
158.44,1.15
160.03,1.17
161.63,0.98
163.24,0.85
164.88,0.76
166.53,0.61
168.19,0.70
169.87,0.81
171.57,0.94
173.29,0.94
175.02,0.86
176.77,0.67
178.54,0.46
180.32,0.43
182.13,0.48
183.95,0.50
185.79,0.38
187.65,0.47
189.52,0.61
191.42,0.58
193.33,0.76
195.27,1.01
197.22,1.02
199.19,0.90
201.18,0.97
203.19,1.23
205.23,1.19
207.28,1.08
209.35,1.25
211.44,1.34
213.56,1.36
215.69,1.54
217.85,1.45
220.03,1.35
222.23,1.46
224.45,1.55
226.70,1.55
228.96,1.55
231.25,1.56
233.57,1.49
235.90,1.51
238.26,1.68
240.64,1.61
243.05,1.59
245.48,1.59
247.93,1.61
250.41,1.64
252.92,1.70
255.45,1.55
258.00,1.59
260.58,1.65
263.19,1.66
265.82,1.66
268.48,1.68
271.16,1.65
273.87,1.56
276.61,1.57
279.38,1.54
282.17,1.47
284.99,1.44
287.84,1.45
290.72,1.45
293.63,1.47
296.57,1.47
299.53,1.39
302.53,1.35
305.55,1.30
308.61,1.30
311.69,1.32
314.81,1.32
317.96,1.33
321.14,1.35
324.35,1.34
327.59,1.23
330.87,1.17
334.18,1.17
337.52,1.17
340.90,1.18
344.30,1.19
347.75,1.14
351.23,1.11
354.74,1.06
358.28,1.06
361.87,1.07
365.49,1.09
369.14,1.11
372.83,1.14
376.56,1.15
380.33,1.17
384.13,1.19
387.97,1.22
391.85,1.38
395.77,1.44
399.73,1.45
403.72,1.46
407.76,1.52
411.84,1.64
415.96,1.69
420.12,1.75
424.32,1.85
428.56,1.91
432.85,1.93
437.18,1.96
441.55,2.04
445.96,2.08
450.42,2.03
454.93,2.04
459.48,2.04
464.07,1.94
468.71,1.86
473.40,1.76
478.13,1.70
482.91,1.60
487.74,1.39
492.62,1.17
497.55,1.05
502.52,0.99
507.55,0.99
512.62,1.05
517.75,1.16
522.93,1.23
528.16,1.25
533.44,1.33
538.77,1.42
544.16,1.42
549.60,1.44
555.10,1.45
560.65,1.47
566.25,1.49
571.92,1.49
577.64,1.42
583.41,1.36
589.25,1.27
595.14,1.20
601.09,1.16
607.10,1.06
613.17,0.85
619.30,0.62
625.50,0.41
631.75,0.25
638.07,0.07
644.45,0.12
650.89,0.20
657.40,0.06
663.98,0.03
670.62,0.27
677.32,0.39
684.10,0.50
690.94,0.63
697.85,0.71
704.83,0.87
711.87,1.00
718.99,1.01
726.18,1.02
733.44,1.02
740.78,1.04
748.19,1.04
755.67,0.95
763.23,0.93
770.86,0.97
778.57,1.01
786.35,1.00
794.22,0.92
802.16,0.92
810.18,0.92
818.28,0.93
826.46,0.92
834.73,0.92
843.08,0.92
851.51,0.80
860.02,0.76
868.62,0.74
877.31,0.80
886.08,0.80
894.94,0.78
903.89,0.71
912.93,0.59
922.06,0.54
931.28,0.53
940.59,0.52
950.00,0.42
959.50,0.34
969.09,0.32
978.78,0.26
988.57,0.17
998.46,0.09
1008.44,-0.01
1018.53,-0.04
1028.71,-0.05
1039.00,-0.13
1049.39,-0.16
1059.88,-0.19
1070.48,-0.27
1081.19,-0.31
1092.00,-0.35
1102.92,-0.37
1113.95,-0.44
1125.09,-0.51
1136.34,-0.56
1147.70,-0.65
1159.18,-0.78
1170.77,-0.90
1182.48,-1.02
1194.30,-1.10
1206.25,-1.13
1218.31,-1.17
1230.49,-1.31
1242.80,-1.40
1255.22,-1.42
1267.78,-1.47
1280.45,-1.52
1293.26,-1.57
1306.19,-1.60
1319.25,-1.64
1332.45,-1.67
1345.77,-1.66
1359.23,-1.56
1372.82,-1.54
1386.55,-1.66
1400.41,-1.65
1414.42,-1.44
1428.56,-1.27
1442.85,-1.23
1457.28,-1.19
1471.85,-1.07
1486.57,-0.98
1501.43,-0.98
1516.45,-0.85
1531.61,-0.70
1546.93,-0.61
1562.40,-0.51
1578.02,-0.40
1593.80,-0.36
1609.74,-0.25
1625.84,-0.12
1642.10,-0.05
1658.52,-0.01
1675.10,0.08
1691.85,0.17
1708.77,0.15
1725.86,0.14
1743.12,0.11
1760.55,0.21
1778.15,0.34
1795.94,0.36
1813.90,0.36
1832.03,0.38
1850.36,0.41
1868.86,0.40
1887.55,0.35
1906.42,0.34
1925.49,0.38
1944.74,0.32
1964.19,0.37
1983.83,0.43
2003.67,0.35
2023.71,0.12
2043.94,0.03
2064.38,-0.05
2085.03,-0.07
2105.88,-0.01
2126.94,0.06
2148.20,0.08
2169.69,0.03
2191.38,-0.04
2213.30,-0.04
2235.43,0.06
2257.78,0.05
2280.36,0.09
2303.17,0.17
2326.20,0.28
2349.46,0.45
2372.95,0.61
2396.68,0.62
2420.65,0.69
2444.86,0.80
2469.31,0.97
2494.00,1.02
2518.94,1.17
2544.13,1.24
2569.57,1.25
2595.27,1.07
2621.22,1.01
2647.43,1.04
2673.90,0.95
2700.64,1.01
2727.65,1.19
2754.93,1.08
2782.48,0.98
2810.30,1.08
2838.40,0.96
2866.79,0.88
2895.46,0.89
2924.41,0.92
2953.65,0.76
2983.19,0.76
3013.02,0.88
3043.15,1.05
3073.58,0.92
3104.32,0.39
3135.36,0.41
3166.72,0.51
3198.38,0.79
3230.37,1.24
3262.67,1.50
3295.30,1.58
3328.25,1.71
3361.53,2.05
3395.15,2.41
3429.10,2.59
3463.39,2.60
3498.03,2.69
3533.01,2.96
3568.34,3.48
3604.02,3.73
3640.06,3.66
3676.46,3.60
3713.22,3.39
3750.36,3.27
3787.86,3.02
3825.74,2.63
3864.00,2.48
3902.64,2.65
3941.66,3.02
3981.08,3.34
4020.89,3.50
4061.10,3.80
4101.71,3.96
4142.73,3.98
4184.15,4.09
4226.00,4.28
4268.26,4.17
4310.94,3.92
4354.05,3.56
4397.59,3.25
4441.56,3.05
4485.98,2.92
4530.84,2.91
4576.15,2.93
4621.91,2.86
4668.13,2.65
4714.81,2.52
4761.96,2.43
4809.58,2.20
4857.67,1.97
4906.25,1.84
4955.31,1.54
5004.87,1.35
5054.91,1.23
5105.46,1.13
5156.52,0.99
5208.08,0.82
5260.16,0.78
5312.77,0.70
5365.89,0.56
5419.55,0.43
5473.75,0.19
5528.49,-0.16
5583.77,-0.44
5639.61,-0.96
5696.00,-1.47
5752.96,-2.24
5810.49,-2.52
5868.60,-2.55
5927.28,-3.15
5986.56,-3.51
6046.42,-3.60
6106.89,-3.92
6167.96,-4.68
6229.64,-5.26
6291.93,-5.58
6354.85,-5.74
6418.40,-5.82
6482.58,-5.89
6547.41,-5.93
6612.88,-6.05
6679.01,-6.08
6745.80,-5.95
6813.26,-5.58
6881.39,-5.40
6950.21,-4.81
7019.71,-4.54
7089.91,-4.34
7160.81,-3.93
7232.41,-3.68
7304.74,-3.57
7377.79,-3.47
7451.56,-3.08
7526.08,-2.77
7601.34,-2.47
7677.35,-1.89
7754.13,-1.62
7831.67,-1.77
7909.98,-1.92
7989.08,-1.67
8068.98,-1.17
8149.67,-0.98
8231.16,-0.92
8313.47,-0.93
8396.61,-0.93
8480.57,-1.37
8565.38,-1.76
8651.03,-2.40
8737.54,-3.59
8824.92,-4.83
8913.17,-5.44
9002.30,-5.44
9092.32,-5.49
9183.25,-5.21
9275.08,-4.57
9367.83,-4.12
9461.51,-3.71
9556.12,-3.23
9651.68,-2.51
9748.20,-1.67
9845.68,-0.81
9944.14,-0.56
10043.58,-1.15
10144.02,-1.99
10245.46,-2.17
10347.91,-2.34
10451.39,-3.12
10555.91,-3.54
10661.46,-4.17
10768.08,-4.87
10875.76,-5.38
10984.52,-6.03
11094.36,-6.76
11205.31,-7.69
11317.36,-8.34
11430.53,-9.01
11544.84,-9.86
11660.29,-10.23
11776.89,-11.02
11894.66,-11.81
12013.60,-12.32
12133.74,-12.27
12255.08,-12.02
12377.63,-11.98
12501.41,-12.26
12626.42,-13.45
12752.68,-14.77
12880.21,-15.58
13009.01,-16.32
13139.10,-18.60
13270.49,-20.54
13403.20,-22.06
13537.23,-22.07
13672.60,-21.32
13809.33,-21.47
13947.42,-22.97
14086.90,-22.53
14227.77,-21.87
14370.04,-21.10
14513.74,-19.68
14658.88,-18.40
14805.47,-19.09
14953.52,-21.24
15103.06,-20.82
15254.09,-18.82
15406.63,-16.52
15560.70,-14.87
15716.30,-15.03
15873.47,-16.85
16032.20,-18.35
16192.52,-17.96
16354.45,-15.77
16517.99,-14.40
16683.17,-15.57
16850.01,-16.36
17018.51,-15.52
17188.69,-16.12
17360.58,-17.68
17534.18,-19.79
17709.53,-20.92
17886.62,-21.28
18065.49,-21.46
18246.14,-21.97
18428.60,-22.91
18612.89,-23.48
18799.02,-23.65
18987.01,-23.87
19176.88,-25.19
19368.65,-26.82
19562.33,-27.94
19757.96,-27.83
19955.54,-28.24
