frequency,raw,error,smoothed,error_smoothed,equalization,parametric_eq,fixed_band_eq,equalized_raw,equalized_smoothed,target
20.00,-0.03,1.86,-0.03,1.86,-1.86,-1.73,-0.98,-1.88,-1.88,-1.88
20.20,0.04,1.84,0.04,1.84,-1.83,-1.75,-1.01,-1.79,-1.79,-1.79
20.40,0.11,1.81,0.11,1.82,-1.82,-1.76,-1.04,-1.71,-1.71,-1.70
20.61,0.17,1.81,0.18,1.80,-1.80,-1.78,-1.07,-1.63,-1.63,-1.64
20.81,0.25,1.79,0.24,1.79,-1.79,-1.80,-1.10,-1.55,-1.55,-1.54
21.02,0.31,1.78,0.31,1.78,-1.79,-1.81,-1.14,-1.47,-1.47,-1.46
21.23,0.37,1.78,0.38,1.78,-1.78,-1.83,-1.17,-1.41,-1.40,-1.40
21.44,0.45,1.79,0.44,1.78,-1.79,-1.85,-1.21,-1.34,-1.34,-1.34
21.66,0.51,1.79,0.51,1.79,-1.79,-1.86,-1.24,-1.28,-1.28,-1.28
21.87,0.58,1.80,0.58,1.80,-1.80,-1.88,-1.28,-1.23,-1.22,-1.22
22.09,0.65,1.82,0.64,1.82,-1.82,-1.89,-1.32,-1.17,-1.17,-1.18
22.31,0.71,1.83,0.71,1.83,-1.83,-1.91,-1.36,-1.13,-1.13,-1.13
22.54,0.77,1.85,0.77,1.85,-1.85,-1.92,-1.40,-1.08,-1.08,-1.08
22.76,0.84,1.87,0.84,1.87,-1.87,-1.94,-1.44,-1.04,-1.04,-1.04
22.99,0.90,1.90,0.90,1.90,-1.89,-1.96,-1.49,-0.99,-0.99,-1.00
23.22,0.96,1.92,0.96,1.92,-1.92,-1.97,-1.53,-0.95,-0.95,-0.96
23.45,1.03,1.93,1.03,1.94,-1.94,-1.99,-1.58,-0.91,-0.91,-0.91
23.69,1.09,1.96,1.09,1.96,-1.96,-2.00,-1.62,-0.86,-0.87,-0.87
23.92,1.16,1.98,1.15,1.98,-1.98,-2.02,-1.67,-0.82,-0.82,-0.83
24.16,1.22,1.99,1.22,2.00,-2.00,-2.03,-1.72,-0.78,-0.78,-0.78
24.40,1.28,2.01,1.28,2.02,-2.02,-2.04,-1.77,-0.74,-0.74,-0.74
24.65,1.33,2.04,1.34,2.04,-2.04,-2.06,-1.82,-0.71,-0.71,-0.71
24.89,1.40,2.07,1.40,2.06,-2.06,-2.07,-1.87,-0.67,-0.67,-0.67
25.14,1.46,2.09,1.46,2.09,-2.09,-2.09,-1.92,-0.63,-0.63,-0.63
25.39,1.52,2.11,1.52,2.11,-2.11,-2.10,-1.97,-0.59,-0.59,-0.59
25.65,1.57,2.13,1.58,2.13,-2.13,-2.11,-2.02,-0.56,-0.56,-0.55
25.91,1.63,2.16,1.63,2.15,-2.15,-2.13,-2.07,-0.52,-0.52,-0.52
26.16,1.70,2.18,1.69,2.18,-2.17,-2.14,-2.12,-0.48,-0.48,-0.48
26.43,1.74,2.20,1.75,2.20,-2.19,-2.15,-2.17,-0.45,-0.45,-0.45
26.69,1.80,2.22,1.80,2.22,-2.21,-2.17,-2.22,-0.41,-0.41,-0.41
26.96,1.85,2.23,1.85,2.23,-2.24,-2.18,-2.27,-0.38,-0.38,-0.38
27.23,1.90,2.25,1.91,2.25,-2.25,-2.19,-2.32,-0.35,-0.35,-0.35
27.50,1.96,2.27,1.96,2.27,-2.27,-2.21,-2.37,-0.31,-0.31,-0.31
27.77,2.02,2.29,2.01,2.29,-2.29,-2.22,-2.41,-0.28,-0.28,-0.28
28.05,2.06,2.30,2.07,2.31,-2.31,-2.23,-2.46,-0.24,-0.24,-0.24
28.33,2.12,2.33,2.11,2.33,-2.32,-2.24,-2.50,-0.21,-0.21,-0.22
28.62,2.16,2.34,2.16,2.34,-2.34,-2.25,-2.54,-0.17,-0.17,-0.18
28.90,2.20,2.34,2.21,2.35,-2.35,-2.26,-2.58,-0.14,-0.14,-0.14
29.19,2.25,2.37,2.25,2.36,-2.36,-2.27,-2.61,-0.11,-0.11,-0.11
29.48,2.30,2.36,2.30,2.37,-2.37,-2.29,-2.65,-0.08,-0.08,-0.06
29.78,2.34,2.39,2.34,2.38,-2.38,-2.30,-2.67,-0.04,-0.04,-0.04
30.08,2.38,2.39,2.38,2.39,-2.39,-2.31,-2.70,-0.01,-0.01,-0.00
30.38,2.42,2.40,2.43,2.40,-2.40,-2.32,-2.72,0.03,0.03,0.02
30.68,2.46,2.40,2.46,2.41,-2.40,-2.33,-2.74,0.06,0.06,0.06
30.99,2.50,2.42,2.50,2.41,-2.41,-2.34,-2.76,0.09,0.09,0.08
31.30,2.53,2.41,2.53,2.41,-2.41,-2.34,-2.77,0.12,0.12,0.12
31.61,2.56,2.41,2.56,2.41,-2.41,-2.35,-2.78,0.15,0.15,0.15
31.93,2.58,2.41,2.59,2.41,-2.41,-2.36,-2.78,0.17,0.18,0.18
32.24,2.62,2.42,2.62,2.41,-2.41,-2.37,-2.78,0.20,0.20,0.20
32.57,2.64,2.42,2.64,2.41,-2.41,-2.38,-2.78,0.23,0.23,0.23
32.89,2.66,2.40,2.67,2.41,-2.41,-2.39,-2.78,0.26,0.26,0.26
33.22,2.68,2.40,2.69,2.40,-2.40,-2.39,-2.77,0.28,0.28,0.28
33.55,2.70,2.40,2.70,2.40,-2.40,-2.40,-2.76,0.30,0.30,0.30
33.89,2.72,2.40,2.72,2.40,-2.40,-2.41,-2.74,0.32,0.32,0.32
34.23,2.74,2.40,2.75,2.40,-2.40,-2.42,-2.73,0.34,0.34,0.35
34.57,2.76,2.40,2.77,2.40,-2.40,-2.42,-2.71,0.36,0.36,0.37
34.92,2.79,2.42,2.79,2.40,-2.41,-2.43,-2.69,0.39,0.38,0.37
35.27,2.80,2.40,2.80,2.41,-2.41,-2.43,-2.66,0.40,0.40,0.40
35.62,2.81,2.40,2.82,2.41,-2.41,-2.44,-2.64,0.41,0.41,0.41
35.97,2.83,2.42,2.83,2.41,-2.41,-2.45,-2.61,0.43,0.42,0.42
36.33,2.84,2.41,2.84,2.41,-2.41,-2.45,-2.59,0.44,0.44,0.44
36.70,2.85,2.41,2.86,2.41,-2.41,-2.46,-2.56,0.45,0.45,0.44
37.06,2.86,2.41,2.87,2.41,-2.41,-2.46,-2.54,0.46,0.46,0.45
37.43,2.87,2.41,2.87,2.41,-2.41,-2.46,-2.51,0.47,0.47,0.47
37.81,2.88,2.41,2.88,2.40,-2.41,-2.47,-2.48,0.48,0.47,0.48
38.19,2.88,2.40,2.89,2.40,-2.41,-2.47,-2.45,0.48,0.48,0.48
38.57,2.89,2.40,2.89,2.41,-2.41,-2.47,-2.43,0.48,0.48,0.49
38.95,2.90,2.42,2.90,2.41,-2.41,-2.48,-2.40,0.49,0.49,0.49
39.34,2.90,2.42,2.91,2.42,-2.42,-2.48,-2.38,0.49,0.49,0.49
39.74,2.91,2.42,2.91,2.42,-2.42,-2.48,-2.36,0.50,0.49,0.49
40.14,2.91,2.43,2.91,2.42,-2.42,-2.48,-2.33,0.49,0.49,0.49
40.54,2.91,2.43,2.91,2.43,-2.42,-2.49,-2.31,0.49,0.49,0.49
40.94,2.91,2.42,2.92,2.43,-2.43,-2.49,-2.29,0.49,0.49,0.49
41.35,2.91,2.43,2.92,2.43,-2.43,-2.49,-2.27,0.49,0.49,0.49
41.76,2.92,2.43,2.92,2.43,-2.43,-2.49,-2.26,0.50,0.49,0.50
42.18,2.92,2.42,2.92,2.43,-2.43,-2.49,-2.24,0.50,0.50,0.50
42.60,2.92,2.43,2.93,2.42,-2.43,-2.49,-2.23,0.50,0.50,0.50
43.03,2.92,2.42,2.93,2.43,-2.43,-2.49,-2.22,0.50,0.50,0.50
43.46,2.92,2.43,2.93,2.43,-2.43,-2.49,-2.21,0.50,0.50,0.50
43.90,2.92,2.44,2.92,2.43,-2.43,-2.49,-2.20,0.49,0.49,0.48
44.33,2.91,2.44,2.91,2.43,-2.43,-2.49,-2.19,0.48,0.48,0.48
44.78,2.90,2.43,2.91,2.44,-2.44,-2.49,-2.19,0.47,0.47,0.47
45.23,2.90,2.44,2.90,2.44,-2.44,-2.48,-2.18,0.47,0.47,0.47
45.68,2.90,2.44,2.90,2.44,-2.44,-2.48,-2.18,0.47,0.47,0.46
46.13,2.90,2.45,2.90,2.44,-2.44,-2.48,-2.18,0.47,0.47,0.46
46.60,2.90,2.44,2.90,2.44,-2.44,-2.48,-2.18,0.47,0.47,0.46
47.06,2.90,2.44,2.90,2.44,-2.44,-2.48,-2.18,0.46,0.46,0.47
47.53,2.90,2.44,2.90,2.44,-2.44,-2.47,-2.19,0.46,0.46,0.46
48.01,2.90,2.43,2.90,2.44,-2.45,-2.47,-2.20,0.46,0.46,0.47
48.49,2.90,2.45,2.90,2.44,-2.45,-2.46,-2.20,0.46,0.46,0.46
48.97,2.90,2.45,2.90,2.45,-2.45,-2.46,-2.21,0.45,0.45,0.45
49.46,2.90,2.46,2.90,2.46,-2.45,-2.46,-2.22,0.45,0.45,0.44
49.96,2.90,2.47,2.90,2.46,-2.45,-2.45,-2.23,0.45,0.45,0.44
50.46,2.90,2.45,2.90,2.45,-2.45,-2.45,-2.25,0.45,0.45,0.46
50.96,2.90,2.44,2.90,2.45,-2.45,-2.44,-2.26,0.45,0.45,0.46
51.47,2.90,2.45,2.91,2.44,-2.45,-2.44,-2.27,0.46,0.46,0.45
51.99,2.90,2.44,2.91,2.44,-2.44,-2.43,-2.29,0.46,0.46,0.46
52.51,2.91,2.44,2.91,2.44,-2.44,-2.43,-2.30,0.47,0.47,0.48
53.03,2.91,2.43,2.92,2.43,-2.44,-2.42,-2.32,0.48,0.48,0.49
53.56,2.92,2.44,2.92,2.43,-2.43,-2.41,-2.33,0.49,0.49,0.49
54.10,2.92,2.44,2.92,2.43,-2.43,-2.41,-2.35,0.49,0.49,0.49
54.64,2.92,2.43,2.93,2.43,-2.43,-2.40,-2.37,0.49,0.49,0.50
55.18,2.92,2.43,2.93,2.43,-2.43,-2.39,-2.38,0.49,0.49,0.50
55.74,2.92,2.43,2.93,2.43,-2.43,-2.38,-2.40,0.50,0.50,0.50
56.29,2.92,2.43,2.92,2.43,-2.43,-2.38,-2.41,0.50,0.50,0.49
56.86,2.91,2.42,2.92,2.43,-2.42,-2.37,-2.42,0.49,0.50,0.49
57.42,2.90,2.42,2.91,2.42,-2.41,-2.36,-2.43,0.49,0.49,0.48
58.00,2.89,2.42,2.89,2.41,-2.41,-2.35,-2.44,0.49,0.48,0.48
58.58,2.87,2.40,2.88,2.40,-2.40,-2.34,-2.45,0.47,0.48,0.48
59.16,2.86,2.39,2.86,2.39,-2.39,-2.34,-2.46,0.47,0.47,0.47
59.76,2.84,2.38,2.85,2.38,-2.39,-2.33,-2.47,0.46,0.46,0.47
60.35,2.83,2.38,2.83,2.38,-2.38,-2.32,-2.47,0.45,0.45,0.46
60.96,2.81,2.37,2.81,2.38,-2.38,-2.31,-2.47,0.44,0.43,0.44
61.57,2.79,2.38,2.79,2.38,-2.37,-2.30,-2.47,0.42,0.42,0.42
62.18,2.76,2.37,2.77,2.37,-2.37,-2.29,-2.47,0.39,0.40,0.39
62.80,2.75,2.37,2.75,2.37,-2.37,-2.28,-2.46,0.39,0.38,0.38
63.43,2.72,2.37,2.73,2.36,-2.36,-2.27,-2.45,0.37,0.37,0.36
64.07,2.70,2.35,2.71,2.35,-2.35,-2.26,-2.44,0.35,0.35,0.35
64.71,2.68,2.34,2.68,2.34,-2.34,-2.25,-2.43,0.34,0.34,0.34
65.35,2.66,2.33,2.66,2.33,-2.34,-2.24,-2.42,0.33,0.33,0.34
66.01,2.64,2.32,2.65,2.32,-2.33,-2.23,-2.40,0.32,0.32,0.33
66.67,2.63,2.32,2.63,2.31,-2.32,-2.22,-2.38,0.32,0.32,0.32
67.33,2.62,2.31,2.62,2.31,-2.30,-2.20,-2.36,0.32,0.32,0.32
68.01,2.61,2.30,2.61,2.30,-2.29,-2.19,-2.34,0.32,0.32,0.32
68.69,2.60,2.29,2.60,2.29,-2.28,-2.18,-2.32,0.33,0.32,0.32
69.37,2.58,2.27,2.59,2.27,-2.27,-2.17,-2.29,0.32,0.32,0.32
70.07,2.57,2.26,2.57,2.25,-2.26,-2.16,-2.27,0.32,0.31,0.31
70.77,2.55,2.23,2.56,2.24,-2.25,-2.15,-2.24,0.31,0.31,0.32
71.48,2.54,2.23,2.55,2.23,-2.24,-2.14,-2.21,0.31,0.31,0.32
72.19,2.53,2.22,2.53,2.22,-2.22,-2.12,-2.18,0.31,0.31,0.32
72.91,2.52,2.21,2.53,2.22,-2.21,-2.11,-2.16,0.31,0.31,0.31
73.64,2.51,2.22,2.51,2.21,-2.20,-2.10,-2.13,0.31,0.31,0.30
74.38,2.49,2.19,2.49,2.20,-2.19,-2.09,-2.10,0.30,0.30,0.30
75.12,2.47,2.18,2.47,2.18,-2.18,-2.08,-2.07,0.30,0.29,0.29
75.87,2.44,2.15,2.45,2.16,-2.16,-2.06,-2.04,0.28,0.29,0.30
76.63,2.43,2.14,2.43,2.14,-2.14,-2.05,-2.02,0.29,0.29,0.29
77.40,2.41,2.12,2.41,2.12,-2.12,-2.04,-1.99,0.30,0.29,0.29
78.17,2.38,2.10,2.39,2.10,-2.09,-2.03,-1.96,0.30,0.30,0.29
78.95,2.35,2.06,2.35,2.06,-2.05,-2.01,-1.94,0.30,0.30,0.30
79.74,2.32,2.02,2.32,2.02,-2.01,-2.00,-1.91,0.31,0.31,0.31
80.54,2.28,1.97,2.29,1.97,-1.97,-1.99,-1.89,0.31,0.32,0.32
81.35,2.25,1.93,2.25,1.92,-1.93,-1.98,-1.87,0.33,0.33,0.33
82.16,2.21,1.88,2.21,1.87,-1.88,-1.96,-1.84,0.34,0.34,0.33
82.98,2.17,1.81,2.18,1.82,-1.83,-1.95,-1.82,0.35,0.35,0.36
83.81,2.14,1.77,2.14,1.77,-1.78,-1.94,-1.80,0.37,0.37,0.37
84.65,2.11,1.74,2.12,1.73,-1.73,-1.93,-1.79,0.38,0.39,0.38
85.50,2.09,1.68,2.09,1.68,-1.68,-1.91,-1.77,0.41,0.41,0.41
86.35,2.06,1.63,2.07,1.64,-1.64,-1.90,-1.75,0.43,0.43,0.43
87.22,2.04,1.60,2.05,1.60,-1.60,-1.89,-1.74,0.45,0.45,0.45
88.09,2.02,1.57,2.02,1.56,-1.56,-1.88,-1.73,0.47,0.46,0.45
88.97,1.99,1.52,1.99,1.53,-1.52,-1.86,-1.71,0.47,0.47,0.48
89.86,1.96,1.49,1.97,1.49,-1.49,-1.85,-1.70,0.47,0.48,0.48
90.76,1.94,1.47,1.94,1.46,-1.47,-1.84,-1.69,0.48,0.48,0.47
91.66,1.92,1.44,1.93,1.45,-1.45,-1.83,-1.69,0.48,0.48,0.49
92.58,1.91,1.44,1.91,1.44,-1.44,-1.82,-1.68,0.47,0.47,0.47
93.51,1.90,1.43,1.91,1.43,-1.45,-1.80,-1.68,0.46,0.46,0.47
94.44,1.90,1.44,1.91,1.45,-1.46,-1.79,-1.67,0.44,0.45,0.47
95.39,1.91,1.47,1.92,1.47,-1.48,-1.78,-1.67,0.43,0.43,0.45
96.34,1.93,1.52,1.93,1.51,-1.51,-1.77,-1.67,0.42,0.42,0.42
97.30,1.94,1.55,1.95,1.55,-1.54,-1.76,-1.67,0.40,0.40,0.39
98.28,1.95,1.59,1.95,1.59,-1.58,-1.75,-1.67,0.38,0.38,0.36
99.26,1.95,1.62,1.95,1.62,-1.61,-1.73,-1.67,0.35,0.34,0.33
100.25,1.93,1.64,1.94,1.64,-1.64,-1.72,-1.67,0.29,0.30,0.29
101.25,1.91,1.66,1.92,1.66,-1.67,-1.71,-1.67,0.25,0.25,0.25
102.27,1.90,1.68,1.90,1.68,-1.69,-1.70,-1.68,0.22,0.22,0.23
103.29,1.88,1.71,1.89,1.70,-1.70,-1.69,-1.68,0.18,0.19,0.18
104.32,1.86,1.72,1.86,1.72,-1.71,-1.68,-1.69,0.15,0.15,0.15
105.37,1.83,1.73,1.83,1.72,-1.72,-1.67,-1.69,0.12,0.12,0.11
106.42,1.79,1.72,1.80,1.72,-1.72,-1.66,-1.70,0.07,0.08,0.08
107.48,1.76,1.73,1.76,1.72,-1.72,-1.65,-1.71,0.04,0.04,0.04
108.56,1.72,1.73,1.72,1.72,-1.72,-1.64,-1.71,0.00,0.00,-0.00
109.64,1.68,1.72,1.69,1.72,-1.73,-1.63,-1.72,-0.04,-0.04,-0.04
110.74,1.65,1.72,1.65,1.72,-1.73,-1.62,-1.72,-0.08,-0.08,-0.07
111.85,1.62,1.71,1.63,1.73,-1.74,-1.61,-1.73,-0.12,-0.11,-0.09
112.97,1.61,1.75,1.61,1.74,-1.75,-1.60,-1.73,-0.14,-0.14,-0.14
114.10,1.60,1.76,1.61,1.76,-1.77,-1.59,-1.74,-0.17,-0.17,-0.16
115.24,1.60,1.79,1.60,1.79,-1.79,-1.58,-1.74,-0.18,-0.18,-0.18
116.39,1.60,1.81,1.61,1.81,-1.80,-1.58,-1.74,-0.20,-0.20,-0.20
117.55,1.60,1.83,1.61,1.83,-1.82,-1.57,-1.75,-0.21,-0.21,-0.23
118.73,1.60,1.85,1.60,1.84,-1.83,-1.56,-1.75,-0.22,-0.23,-0.25
119.92,1.58,1.84,1.58,1.84,-1.83,-1.55,-1.75,-0.25,-0.25,-0.25
121.12,1.55,1.83,1.56,1.83,-1.83,-1.55,-1.75,-0.28,-0.27,-0.27
122.33,1.53,1.82,1.54,1.82,-1.83,-1.54,-1.74,-0.29,-0.29,-0.29
123.55,1.51,1.81,1.51,1.81,-1.81,-1.53,-1.74,-0.30,-0.30,-0.29
124.79,1.48,1.79,1.49,1.79,-1.80,-1.52,-1.73,-0.31,-0.31,-0.31
126.03,1.45,1.78,1.46,1.78,-1.77,-1.52,-1.73,-0.32,-0.32,-0.32
127.29,1.42,1.75,1.43,1.76,-1.75,-1.51,-1.72,-0.32,-0.32,-0.33
128.57,1.39,1.75,1.38,1.73,-1.72,-1.51,-1.71,-0.33,-0.34,-0.35
129.85,1.33,1.70,1.34,1.70,-1.69,-1.50,-1.70,-0.36,-0.36,-0.37
131.15,1.27,1.65,1.28,1.66,-1.66,-1.49,-1.68,-0.39,-0.38,-0.38
132.46,1.23,1.63,1.23,1.62,-1.64,-1.49,-1.67,-0.40,-0.40,-0.39
133.79,1.19,1.59,1.19,1.59,-1.61,-1.48,-1.65,-0.42,-0.42,-0.39
135.12,1.15,1.58,1.16,1.57,-1.59,-1.48,-1.64,-0.43,-0.43,-0.42
136.48,1.13,1.56,1.13,1.56,-1.57,-1.47,-1.62,-0.43,-0.44,-0.42
137.84,1.10,1.55,1.11,1.56,-1.55,-1.47,-1.60,-0.44,-0.44,-0.45
139.22,1.08,1.56,1.08,1.55,-1.53,-1.47,-1.58,-0.44,-0.45,-0.47
140.61,1.04,1.54,1.04,1.53,-1.51,-1.46,-1.56,-0.47,-0.47,-0.49
142.02,0.98,1.49,0.99,1.50,-1.49,-1.46,-1.54,-0.51,-0.50,-0.50
143.44,0.94,1.47,0.94,1.47,-1.48,-1.45,-1.52,-0.53,-0.53,-0.52
144.87,0.89,1.44,0.90,1.44,-1.46,-1.45,-1.50,-0.57,-0.56,-0.55
146.32,0.86,1.44,0.86,1.43,-1.45,-1.45,-1.48,-0.58,-0.58,-0.57
147.78,0.83,1.42,0.83,1.42,-1.43,-1.45,-1.46,-0.60,-0.60,-0.58
149.26,0.80,1.41,0.81,1.42,-1.42,-1.44,-1.44,-0.61,-0.61,-0.61
150.75,0.77,1.43,0.77,1.41,-1.40,-1.44,-1.42,-0.63,-0.63,-0.65
152.26,0.73,1.41,0.73,1.41,-1.39,-1.44,-1.40,-0.66,-0.66,-0.68
153.78,0.68,1.38,0.69,1.39,-1.38,-1.44,-1.38,-0.69,-0.69,-0.70
155.32,0.64,1.38,0.64,1.37,-1.36,-1.43,-1.36,-0.72,-0.72,-0.73
156.88,0.58,1.34,0.58,1.34,-1.35,-1.43,-1.34,-0.76,-0.76,-0.76
158.44,0.53,1.32,0.53,1.32,-1.33,-1.43,-1.32,-0.80,-0.80,-0.79
160.03,0.47,1.30,0.49,1.31,-1.32,-1.43,-1.30,-0.85,-0.84,-0.83
161.63,0.45,1.31,0.45,1.31,-1.31,-1.43,-1.29,-0.86,-0.86,-0.86
163.24,0.42,1.31,0.42,1.31,-1.31,-1.43,-1.27,-0.89,-0.89,-0.89
164.88,0.39,1.30,0.40,1.31,-1.31,-1.42,-1.26,-0.92,-0.91,-0.91
166.53,0.37,1.31,0.37,1.32,-1.31,-1.42,-1.24,-0.94,-0.94,-0.94
168.19,0.35,1.33,0.35,1.32,-1.32,-1.42,-1.23,-0.97,-0.97,-0.98
169.87,0.33,1.33,0.34,1.33,-1.33,-1.42,-1.21,-1.00,-1.00,-1.00
171.57,0.31,1.34,0.32,1.34,-1.34,-1.42,-1.20,-1.03,-1.03,-1.02
173.29,0.30,1.36,0.30,1.35,-1.36,-1.41,-1.19,-1.05,-1.06,-1.05
175.02,0.28,1.35,0.28,1.36,-1.36,-1.41,-1.18,-1.08,-1.08,-1.07
176.77,0.26,1.37,0.27,1.37,-1.37,-1.41,-1.17,-1.10,-1.10,-1.10
178.54,0.25,1.38,0.26,1.38,-1.37,-1.41,-1.16,-1.11,-1.11,-1.13
180.32,0.24,1.39,0.24,1.38,-1.36,-1.40,-1.15,-1.12,-1.13,-1.14
182.13,0.21,1.36,0.21,1.36,-1.35,-1.40,-1.15,-1.14,-1.15,-1.15
183.95,0.16,1.34,0.17,1.34,-1.34,-1.40,-1.14,-1.18,-1.17,-1.17
185.79,0.12,1.31,0.13,1.32,-1.32,-1.39,-1.14,-1.20,-1.19,-1.19
187.65,0.10,1.30,0.10,1.30,-1.31,-1.39,-1.13,-1.20,-1.21,-1.20
189.52,0.07,1.29,0.07,1.29,-1.29,-1.39,-1.13,-1.21,-1.21,-1.21
191.42,0.04,1.27,0.05,1.27,-1.27,-1.38,-1.12,-1.22,-1.22,-1.23
193.33,0.01,1.25,0.02,1.25,-1.26,-1.38,-1.12,-1.24,-1.24,-1.24
195.27,-0.01,1.24,-0.01,1.24,-1.25,-1.37,-1.12,-1.25,-1.26,-1.25
197.22,-0.03,1.24,-0.02,1.24,-1.25,-1.36,-1.12,-1.27,-1.27,-1.26
199.19,-0.04,1.26,-0.03,1.25,-1.25,-1.36,-1.12,-1.29,-1.29,-1.29
201.18,-0.04,1.26,-0.04,1.26,-1.26,-1.35,-1.12,-1.30,-1.30,-1.29
203.19,-0.04,1.27,-0.03,1.27,-1.28,-1.34,-1.12,-1.31,-1.31,-1.30
205.23,-0.03,1.30,-0.02,1.29,-1.30,-1.33,-1.12,-1.32,-1.32,-1.32
207.28,-0.02,1.31,-0.01,1.32,-1.32,-1.32,-1.12,-1.33,-1.33,-1.32
209.35,0.00,1.35,-0.00,1.34,-1.33,-1.31,-1.13,-1.33,-1.33,-1.34
211.44,0.00,1.36,0.01,1.36,-1.35,-1.30,-1.13,-1.34,-1.34,-1.36
213.56,0.00,1.36,0.00,1.36,-1.35,-1.29,-1.13,-1.35,-1.35,-1.36
215.69,-0.01,1.35,-0.01,1.36,-1.35,-1.27,-1.13,-1.36,-1.36,-1.36
217.85,-0.03,1.34,-0.02,1.35,-1.35,-1.26,-1.13,-1.37,-1.37,-1.36
220.03,-0.04,1.35,-0.04,1.34,-1.33,-1.25,-1.13,-1.37,-1.37,-1.38
222.23,-0.07,1.32,-0.06,1.32,-1.31,-1.23,-1.13,-1.37,-1.37,-1.39
224.45,-0.10,1.28,-0.10,1.29,-1.28,-1.22,-1.13,-1.38,-1.38,-1.38
226.70,-0.14,1.25,-0.13,1.25,-1.25,-1.20,-1.13,-1.39,-1.39,-1.38
228.96,-0.18,1.21,-0.17,1.22,-1.22,-1.18,-1.13,-1.40,-1.39,-1.39
231.25,-0.20,1.19,-0.20,1.19,-1.19,-1.16,-1.13,-1.39,-1.39,-1.39
233.57,-0.23,1.17,-0.23,1.16,-1.16,-1.15,-1.12,-1.39,-1.40,-1.39
235.90,-0.28,1.12,-0.26,1.14,-1.14,-1.13,-1.12,-1.41,-1.40,-1.40
238.26,-0.30,1.12,-0.29,1.11,-1.11,-1.11,-1.11,-1.41,-1.41,-1.41
240.64,-0.32,1.09,-0.32,1.09,-1.09,-1.08,-1.11,-1.41,-1.41,-1.41
243.05,-0.34,1.08,-0.34,1.08,-1.08,-1.06,-1.10,-1.42,-1.42,-1.42
245.48,-0.36,1.06,-0.35,1.06,-1.08,-1.04,-1.09,-1.43,-1.43,-1.41
247.93,-0.37,1.05,-0.36,1.06,-1.07,-1.02,-1.08,-1.44,-1.43,-1.42
250.41,-0.36,1.07,-0.35,1.06,-1.07,-0.99,-1.06,-1.42,-1.42,-1.42
252.92,-0.34,1.07,-0.34,1.07,-1.06,-0.97,-1.05,-1.40,-1.40,-1.40
255.45,-0.32,1.07,-0.32,1.07,-1.06,-0.94,-1.03,-1.37,-1.38,-1.39
258.00,-0.33,1.06,-0.32,1.06,-1.05,-0.92,-1.02,-1.37,-1.37,-1.38
260.58,-0.34,1.04,-0.33,1.04,-1.03,-0.89,-1.00,-1.36,-1.36,-1.38
263.19,-0.35,1.01,-0.35,1.01,-1.00,-0.86,-0.98,-1.35,-1.35,-1.35
265.82,-0.38,0.97,-0.37,0.97,-0.97,-0.83,-0.96,-1.35,-1.34,-1.35
268.48,-0.40,0.93,-0.40,0.93,-0.93,-0.81,-0.93,-1.33,-1.33,-1.33
271.16,-0.43,0.89,-0.43,0.88,-0.89,-0.78,-0.91,-1.31,-1.32,-1.31
273.87,-0.47,0.83,-0.46,0.84,-0.84,-0.75,-0.88,-1.30,-1.30,-1.30
276.61,-0.50,0.78,-0.50,0.79,-0.79,-0.72,-0.86,-1.28,-1.28,-1.28
279.38,-0.53,0.75,-0.53,0.74,-0.74,-0.69,-0.83,-1.27,-1.27,-1.27
282.17,-0.57,0.70,-0.56,0.70,-0.69,-0.66,-0.80,-1.26,-1.26,-1.27
284.99,-0.60,0.64,-0.60,0.65,-0.65,-0.63,-0.77,-1.25,-1.25,-1.24
287.84,-0.63,0.61,-0.62,0.61,-0.61,-0.60,-0.74,-1.24,-1.24,-1.23
290.72,-0.65,0.57,-0.64,0.57,-0.58,-0.57,-0.71,-1.22,-1.22,-1.21
293.63,-0.66,0.54,-0.66,0.54,-0.55,-0.53,-0.68,-1.20,-1.21,-1.20
296.57,-0.67,0.50,-0.66,0.51,-0.52,-0.50,-0.64,-1.18,-1.18,-1.17
299.53,-0.67,0.50,-0.67,0.49,-0.49,-0.47,-0.61,-1.16,-1.16,-1.16
302.53,-0.67,0.48,-0.67,0.47,-0.46,-0.44,-0.58,-1.13,-1.13,-1.14
305.55,-0.68,0.43,-0.67,0.44,-0.43,-0.41,-0.54,-1.10,-1.10,-1.11
308.61,-0.69,0.40,-0.69,0.40,-0.39,-0.37,-0.51,-1.08,-1.08,-1.09
311.69,-0.71,0.35,-0.70,0.35,-0.35,-0.34,-0.48,-1.05,-1.05,-1.06
314.81,-0.73,0.30,-0.73,0.30,-0.30,-0.31,-0.44,-1.02,-1.03,-1.02
317.96,-0.76,0.25,-0.75,0.25,-0.25,-0.27,-0.41,-1.00,-1.00,-1.00
321.14,-0.79,0.19,-0.79,0.19,-0.19,-0.24,-0.37,-0.97,-0.98,-0.98
324.35,-0.83,0.13,-0.83,0.13,-0.13,-0.21,-0.34,-0.95,-0.95,-0.96
327.59,-0.87,0.06,-0.86,0.07,-0.07,-0.17,-0.30,-0.93,-0.93,-0.93
330.87,-0.90,0.01,-0.90,0.01,-0.01,-0.14,-0.27,-0.90,-0.91,-0.90
334.18,-0.93,-0.04,-0.93,-0.05,0.05,-0.11,-0.23,-0.88,-0.88,-0.88
337.52,-0.96,-0.10,-0.95,-0.10,0.10,-0.07,-0.20,-0.86,-0.85,-0.85
340.90,-0.98,-0.15,-0.98,-0.15,0.15,-0.04,-0.16,-0.83,-0.83,-0.83
344.30,-1.00,-0.20,-1.00,-0.20,0.19,-0.01,-0.13,-0.81,-0.81,-0.80
347.75,-1.01,-0.23,-1.01,-0.23,0.22,0.03,-0.09,-0.78,-0.78,-0.78
351.23,-1.02,-0.27,-1.01,-0.26,0.26,0.06,-0.06,-0.76,-0.75,-0.75
354.74,-1.01,-0.29,-1.01,-0.28,0.28,0.09,-0.02,-0.72,-0.73,-0.72
358.28,-1.00,-0.29,-1.00,-0.30,0.30,0.13,0.01,-0.69,-0.70,-0.70
361.87,-1.00,-0.32,-0.99,-0.32,0.32,0.16,0.05,-0.67,-0.67,-0.67
365.49,-0.99,-0.33,-0.99,-0.33,0.34,0.19,0.09,-0.64,-0.65,-0.65
369.14,-0.99,-0.35,-0.99,-0.35,0.36,0.22,0.12,-0.63,-0.63,-0.63
372.83,-0.99,-0.37,-0.98,-0.37,0.37,0.26,0.16,-0.61,-0.61,-0.62
376.56,-0.99,-0.39,-0.99,-0.39,0.39,0.29,0.19,-0.59,-0.59,-0.60
380.33,-0.99,-0.42,-0.99,-0.41,0.41,0.32,0.23,-0.58,-0.58,-0.57
384.13,-0.99,-0.43,-0.99,-0.43,0.42,0.35,0.26,-0.56,-0.56,-0.56
387.97,-0.99,-0.44,-0.99,-0.44,0.44,0.38,0.30,-0.55,-0.55,-0.55
391.85,-0.99,-0.45,-0.99,-0.45,0.45,0.41,0.33,-0.54,-0.54,-0.54
395.77,-0.99,-0.46,-0.99,-0.46,0.46,0.45,0.37,-0.53,-0.53,-0.52
399.73,-0.99,-0.47,-0.98,-0.47,0.47,0.48,0.40,-0.52,-0.52,-0.51
403.72,-0.98,-0.47,-0.97,-0.47,0.47,0.51,0.43,-0.50,-0.50,-0.50
407.76,-0.97,-0.47,-0.97,-0.48,0.48,0.53,0.47,-0.48,-0.49,-0.49
411.84,-0.97,-0.49,-0.97,-0.49,0.49,0.56,0.50,-0.47,-0.48,-0.47
415.96,-0.98,-0.50,-0.98,-0.50,0.50,0.59,0.53,-0.47,-0.47,-0.47
420.12,-1.00,-0.52,-0.99,-0.52,0.52,0.62,0.56,-0.48,-0.47,-0.47
424.32,-1.02,-0.54,-1.01,-0.53,0.54,0.65,0.59,-0.48,-0.47,-0.48
428.56,-1.03,-0.55,-1.03,-0.56,0.56,0.67,0.63,-0.46,-0.47,-0.48
432.85,-1.06,-0.58,-1.06,-0.58,0.59,0.70,0.65,-0.47,-0.47,-0.48
437.18,-1.10,-0.62,-1.09,-0.61,0.61,0.72,0.68,-0.48,-0.47,-0.48
441.55,-1.13,-0.65,-1.13,-0.65,0.65,0.74,0.71,-0.48,-0.48,-0.48
445.96,-1.16,-0.68,-1.16,-0.68,0.68,0.77,0.73,-0.48,-0.48,-0.48
450.42,-1.20,-0.71,-1.19,-0.71,0.71,0.79,0.76,-0.49,-0.48,-0.49
454.93,-1.23,-0.74,-1.23,-0.74,0.74,0.81,0.78,-0.48,-0.49,-0.49
459.48,-1.27,-0.78,-1.26,-0.77,0.77,0.83,0.80,-0.49,-0.49,-0.49
464.07,-1.29,-0.80,-1.29,-0.80,0.79,0.85,0.82,-0.49,-0.49,-0.49
468.71,-1.31,-0.83,-1.31,-0.82,0.81,0.86,0.84,-0.49,-0.49,-0.48
473.40,-1.33,-0.83,-1.32,-0.84,0.83,0.88,0.85,-0.50,-0.50,-0.49
478.13,-1.34,-0.85,-1.33,-0.85,0.84,0.89,0.86,-0.50,-0.50,-0.48
482.91,-1.34,-0.84,-1.33,-0.85,0.84,0.90,0.87,-0.49,-0.49,-0.49
