frequency,raw,error,smoothed,error_smoothed,equalization,parametric_eq,fixed_band_eq,equalized_raw,equalized_smoothed,target
20.00,-13.64,-14.13,-13.64,-14.12,6.00,5.89,2.70,-7.64,-7.64,0.49
20.20,-13.54,-14.09,-13.54,-14.09,6.00,5.89,2.78,-7.54,-7.54,0.55
20.40,-13.45,-14.04,-13.45,-14.05,6.00,5.89,2.85,-7.45,-7.45,0.60
20.61,-13.35,-14.01,-13.35,-14.01,6.00,5.90,2.94,-7.35,-7.35,0.65
20.81,-13.26,-13.96,-13.26,-13.97,6.00,5.90,3.02,-7.26,-7.26,0.71
21.02,-13.16,-13.92,-13.16,-13.92,6.00,5.90,3.10,-7.16,-7.16,0.76
21.23,-13.06,-13.87,-13.06,-13.87,6.00,5.90,3.19,-7.06,-7.06,0.81
21.44,-12.96,-13.82,-12.96,-13.83,6.00,5.90,3.28,-6.96,-6.96,0.86
21.66,-12.87,-13.78,-12.87,-13.78,6.00,5.91,3.38,-6.87,-6.87,0.91
21.87,-12.77,-13.73,-12.77,-13.73,6.00,5.91,3.47,-6.77,-6.77,0.96
22.09,-12.67,-13.68,-12.67,-13.68,6.00,5.91,3.57,-6.67,-6.67,1.01
22.31,-12.57,-13.63,-12.57,-13.63,6.00,5.91,3.67,-6.57,-6.57,1.06
22.54,-12.48,-13.58,-12.48,-13.58,6.00,5.91,3.78,-6.48,-6.48,1.10
22.76,-12.38,-13.53,-12.38,-13.53,6.00,5.92,3.88,-6.38,-6.38,1.15
22.99,-12.28,-13.47,-12.28,-13.48,6.00,5.92,3.99,-6.28,-6.28,1.19
23.22,-12.19,-13.43,-12.19,-13.43,6.00,5.92,4.10,-6.19,-6.19,1.24
23.45,-12.09,-13.37,-12.09,-13.37,6.00,5.92,4.22,-6.09,-6.09,1.28
23.69,-11.99,-13.32,-11.99,-13.32,6.00,5.93,4.33,-5.99,-5.99,1.33
23.92,-11.89,-13.26,-11.89,-13.26,6.00,5.93,4.45,-5.89,-5.89,1.37
24.16,-11.79,-13.21,-11.79,-13.21,6.00,5.93,4.57,-5.79,-5.79,1.42
24.40,-11.69,-13.15,-11.69,-13.15,6.00,5.93,4.70,-5.69,-5.69,1.46
24.65,-11.59,-13.09,-11.59,-13.09,6.00,5.93,4.82,-5.59,-5.59,1.50
24.89,-11.49,-13.03,-11.49,-13.02,6.00,5.94,4.95,-5.49,-5.49,1.54
25.14,-11.39,-12.97,-11.39,-12.97,6.00,5.94,5.08,-5.39,-5.39,1.58
25.39,-11.29,-12.90,-11.29,-12.91,6.00,5.94,5.21,-5.29,-5.29,1.62
25.65,-11.20,-12.85,-11.20,-12.85,6.00,5.94,5.34,-5.20,-5.20,1.65
25.91,-11.10,-12.80,-11.10,-12.79,6.00,5.95,5.47,-5.10,-5.10,1.69
26.16,-11.00,-12.73,-11.00,-12.73,6.00,5.95,5.60,-5.00,-5.00,1.73
26.43,-10.90,-12.66,-10.90,-12.67,6.00,5.95,5.73,-4.90,-4.90,1.76
26.69,-10.80,-12.60,-10.80,-12.61,6.00,5.96,5.86,-4.80,-4.80,1.80
26.96,-10.71,-12.55,-10.71,-12.54,6.00,5.96,5.99,-4.71,-4.71,1.84
27.23,-10.61,-12.48,-10.61,-12.48,6.00,5.96,6.11,-4.61,-4.61,1.87
27.50,-10.51,-12.42,-10.51,-12.42,6.00,5.96,6.24,-4.51,-4.51,1.91
27.77,-10.42,-12.37,-10.42,-12.36,6.00,5.97,6.36,-4.42,-4.42,1.95
28.05,-10.32,-12.30,-10.32,-12.30,6.00,5.97,6.48,-4.32,-4.32,1.98
28.33,-10.23,-12.25,-10.23,-12.25,6.00,5.97,6.58,-4.23,-4.23,2.02
28.62,-10.14,-12.20,-10.14,-12.19,6.00,5.98,6.69,-4.14,-4.14,2.05
28.90,-10.04,-12.13,-10.04,-12.13,6.00,5.98,6.79,-4.04,-4.04,2.09
29.19,-9.95,-12.07,-9.95,-12.07,6.00,5.98,6.88,-3.95,-3.95,2.12
29.48,-9.85,-12.01,-9.85,-12.01,6.00,5.98,6.97,-3.85,-3.85,2.16
29.78,-9.76,-11.96,-9.76,-11.96,6.00,5.99,7.05,-3.76,-3.76,2.20
30.08,-9.67,-11.90,-9.67,-11.90,6.00,5.99,7.11,-3.67,-3.67,2.23
30.38,-9.58,-11.85,-9.58,-11.85,6.00,5.99,7.17,-3.58,-3.58,2.27
30.68,-9.49,-11.79,-9.49,-11.79,6.00,6.00,7.22,-3.49,-3.49,2.30
30.99,-9.39,-11.73,-9.40,-11.73,6.00,6.00,7.26,-3.39,-3.40,2.34
31.30,-9.31,-11.68,-9.31,-11.67,6.00,6.00,7.29,-3.31,-3.31,2.36
31.61,-9.22,-11.61,-9.22,-11.61,6.00,6.01,7.31,-3.22,-3.22,2.39
31.93,-9.13,-11.55,-9.13,-11.56,6.00,6.01,7.31,-3.13,-3.13,2.42
32.24,-9.05,-11.50,-9.05,-11.50,6.00,6.01,7.32,-3.05,-3.05,2.45
32.57,-8.97,-11.45,-8.97,-11.45,6.00,6.02,7.30,-2.97,-2.97,2.48
32.89,-8.89,-11.40,-8.89,-11.39,6.00,6.02,7.29,-2.89,-2.89,2.51
33.22,-8.80,-11.32,-8.80,-11.33,6.00,6.02,7.26,-2.80,-2.80,2.53
33.55,-8.72,-11.27,-8.72,-11.27,6.00,6.03,7.22,-2.72,-2.72,2.55
33.89,-8.64,-11.21,-8.64,-11.21,6.00,6.03,7.18,-2.64,-2.64,2.57
34.23,-8.56,-11.15,-8.56,-11.15,6.00,6.03,7.13,-2.56,-2.56,2.59
34.57,-8.48,-11.10,-8.48,-11.09,6.00,6.04,7.08,-2.48,-2.48,2.62
34.92,-8.40,-11.04,-8.40,-11.04,6.00,6.04,7.02,-2.40,-2.40,2.64
35.27,-8.32,-10.97,-8.32,-10.98,6.00,6.04,6.95,-2.32,-2.32,2.65
35.62,-8.24,-10.91,-8.24,-10.91,6.00,6.05,6.89,-2.24,-2.24,2.67
35.97,-8.16,-10.85,-8.16,-10.84,6.00,6.05,6.82,-2.16,-2.16,2.69
36.33,-8.08,-10.78,-8.08,-10.78,6.00,6.05,6.75,-2.08,-2.08,2.70
36.70,-8.00,-10.71,-8.00,-10.72,6.00,6.06,6.68,-2.00,-2.00,2.71
37.06,-7.93,-10.66,-7.93,-10.66,6.00,6.06,6.61,-1.93,-1.93,2.73
37.43,-7.86,-10.60,-7.86,-10.60,6.00,6.06,6.53,-1.86,-1.86,2.74
37.81,-7.79,-10.55,-7.79,-10.54,6.00,6.07,6.46,-1.79,-1.79,2.76
38.19,-7.71,-10.47,-7.71,-10.48,6.00,6.07,6.39,-1.71,-1.71,2.76
38.57,-7.64,-10.41,-7.64,-10.41,6.00,6.07,6.33,-1.64,-1.64,2.77
38.95,-7.56,-10.34,-7.56,-10.34,6.00,6.07,6.26,-1.56,-1.56,2.78
39.34,-7.49,-10.27,-7.49,-10.27,6.00,6.08,6.20,-1.49,-1.49,2.78
39.74,-7.42,-10.21,-7.42,-10.21,6.00,6.08,6.14,-1.42,-1.42,2.79
40.14,-7.36,-10.15,-7.36,-10.15,6.00,6.08,6.08,-1.36,-1.36,2.79
40.54,-7.29,-10.08,-7.29,-10.08,6.00,6.09,6.02,-1.29,-1.29,2.79
40.94,-7.22,-10.02,-7.22,-10.02,6.00,6.09,5.97,-1.22,-1.22,2.80
41.35,-7.15,-9.95,-7.15,-9.95,6.00,6.09,5.93,-1.15,-1.15,2.80
41.76,-7.08,-9.88,-7.08,-9.88,6.00,6.10,5.88,-1.08,-1.08,2.80
42.18,-7.01,-9.81,-7.01,-9.81,6.00,6.10,5.84,-1.01,-1.01,2.80
42.60,-6.95,-9.75,-6.95,-9.75,6.00,6.10,5.81,-0.95,-0.95,2.80
43.03,-6.89,-9.69,-6.89,-9.69,6.00,6.10,5.78,-0.89,-0.89,2.80
43.46,-6.82,-9.62,-6.82,-9.63,6.00,6.11,5.75,-0.82,-0.82,2.80
43.90,-6.76,-9.56,-6.76,-9.56,6.00,6.11,5.73,-0.76,-0.76,2.80
44.33,-6.69,-9.49,-6.69,-9.49,6.00,6.11,5.71,-0.69,-0.69,2.80
44.78,-6.62,-9.42,-6.62,-9.43,6.00,6.11,5.70,-0.62,-0.62,2.80
45.23,-6.56,-9.36,-6.56,-9.36,6.00,6.12,5.69,-0.56,-0.56,2.80
45.68,-6.50,-9.30,-6.50,-9.30,6.00,6.12,5.69,-0.50,-0.50,2.80
46.13,-6.44,-9.23,-6.44,-9.24,6.00,6.12,5.68,-0.44,-0.44,2.79
46.60,-6.38,-9.18,-6.38,-9.17,6.00,6.12,5.69,-0.38,-0.38,2.80
47.06,-6.32,-9.11,-6.32,-9.11,6.00,6.12,5.70,-0.32,-0.32,2.79
47.53,-6.26,-9.04,-6.26,-9.05,6.00,6.13,5.71,-0.26,-0.26,2.78
48.01,-6.20,-8.99,-6.20,-8.98,6.00,6.13,5.72,-0.20,-0.20,2.79
48.49,-6.14,-8.92,-6.14,-8.92,6.00,6.13,5.74,-0.14,-0.14,2.78
48.97,-6.08,-8.85,-6.08,-8.86,6.00,6.13,5.76,-0.08,-0.08,2.77
49.46,-6.03,-8.80,-6.03,-8.80,6.00,6.13,5.79,-0.03,-0.03,2.78
49.96,-5.97,-8.74,-5.97,-8.74,6.00,6.13,5.82,0.03,0.03,2.77
50.46,-5.92,-8.69,-5.92,-8.69,6.00,6.13,5.85,0.08,0.08,2.77
50.96,-5.86,-8.62,-5.86,-8.63,6.00,6.13,5.88,0.14,0.14,2.76
51.47,-5.81,-8.57,-5.81,-8.57,6.00,6.13,5.92,0.19,0.19,2.76
51.99,-5.75,-8.50,-5.75,-8.51,6.00,6.13,5.96,0.25,0.25,2.75
52.51,-5.70,-8.45,-5.70,-8.45,6.00,6.13,6.00,0.30,0.30,2.75
53.03,-5.65,-8.40,-5.64,-8.38,6.00,6.13,6.04,0.35,0.36,2.75
53.56,-5.58,-8.32,-5.58,-8.32,6.00,6.13,6.08,0.42,0.42,2.74
54.10,-5.52,-8.25,-5.53,-8.26,6.00,6.12,6.12,0.48,0.47,2.73
54.64,-5.49,-8.21,-5.48,-8.20,6.00,6.12,6.16,0.51,0.52,2.72
55.18,-5.44,-8.14,-5.44,-8.14,6.00,6.12,6.20,0.56,0.56,2.70
55.74,-5.39,-8.08,-5.39,-8.08,6.00,6.12,6.24,0.61,0.61,2.69
56.29,-5.34,-8.01,-5.34,-8.02,6.00,6.11,6.27,0.66,0.66,2.67
56.86,-5.29,-7.95,-5.29,-7.95,6.00,6.11,6.30,0.71,0.71,2.66
57.42,-5.24,-7.88,-5.24,-7.88,6.00,6.11,6.33,0.76,0.76,2.64
58.00,-5.19,-7.81,-5.19,-7.81,6.00,6.10,6.36,0.81,0.81,2.62
58.58,-5.14,-7.73,-5.14,-7.73,6.00,6.10,6.38,0.86,0.86,2.59
59.16,-5.09,-7.66,-5.09,-7.66,6.00,6.09,6.40,0.91,0.91,2.57
59.76,-5.05,-7.60,-5.05,-7.59,6.00,6.09,6.41,0.95,0.95,2.55
60.35,-5.01,-7.52,-5.01,-7.52,6.00,6.08,6.42,0.99,0.99,2.51
60.96,-4.96,-7.45,-4.96,-7.45,6.00,6.07,6.42,1.04,1.04,2.49
61.57,-4.91,-7.37,-4.91,-7.37,6.00,6.07,6.41,1.09,1.09,2.46
62.18,-4.87,-7.30,-4.87,-7.30,6.00,6.06,6.40,1.13,1.13,2.43
62.80,-4.82,-7.22,-4.82,-7.22,6.00,6.05,6.38,1.18,1.18,2.40
63.43,-4.78,-7.15,-4.78,-7.15,6.00,6.04,6.36,1.22,1.22,2.37
64.07,-4.73,-7.08,-4.73,-7.07,6.00,6.03,6.33,1.27,1.27,2.35
64.71,-4.68,-7.00,-4.68,-7.01,6.00,6.02,6.29,1.32,1.32,2.32
65.35,-4.64,-6.94,-4.64,-6.94,6.00,6.01,6.25,1.36,1.36,2.30
66.01,-4.61,-6.89,-4.61,-6.89,6.00,5.99,6.20,1.39,1.39,2.28
66.67,-4.57,-6.83,-4.57,-6.83,6.00,5.98,6.14,1.43,1.43,2.26
67.33,-4.53,-6.77,-4.53,-6.78,6.00,5.97,6.08,1.47,1.47,2.24
68.01,-4.49,-6.72,-4.49,-6.72,6.00,5.95,6.02,1.51,1.51,2.23
68.69,-4.44,-6.66,-4.44,-6.67,6.00,5.94,5.95,1.56,1.56,2.22
69.37,-4.40,-6.61,-4.40,-6.61,6.00,5.92,5.88,1.60,1.60,2.21
70.07,-4.36,-6.56,-4.36,-6.56,6.00,5.91,5.80,1.64,1.64,2.20
70.77,-4.31,-6.50,-4.31,-6.50,6.00,5.89,5.73,1.69,1.69,2.19
71.48,-4.27,-6.45,-4.27,-6.45,6.00,5.87,5.65,1.73,1.73,2.18
72.19,-4.22,-6.39,-4.22,-6.39,6.00,5.85,5.57,1.78,1.78,2.17
72.91,-4.18,-6.34,-4.18,-6.34,6.00,5.83,5.49,1.82,1.82,2.16
73.64,-4.15,-6.29,-4.15,-6.29,6.01,5.81,5.40,1.86,1.86,2.14
74.38,-4.12,-6.25,-4.12,-6.25,6.01,5.79,5.32,1.89,1.89,2.13
75.12,-4.09,-6.20,-4.09,-6.20,6.01,5.76,5.24,1.92,1.92,2.11
75.87,-4.05,-6.15,-4.05,-6.15,6.00,5.74,5.16,1.95,1.95,2.10
76.63,-4.01,-6.09,-4.01,-6.09,5.99,5.71,5.08,1.98,1.98,2.08
77.40,-3.97,-6.02,-3.97,-6.02,5.97,5.69,5.00,2.00,2.00,2.05
78.17,-3.92,-5.95,-3.92,-5.96,5.94,5.66,4.92,2.02,2.01,2.03
78.95,-3.88,-5.89,-3.88,-5.90,5.90,5.63,4.85,2.02,2.01,2.01
79.74,-3.85,-5.85,-3.85,-5.85,5.85,5.60,4.78,2.00,2.00,2.00
80.54,-3.82,-5.80,-3.82,-5.79,5.80,5.57,4.71,1.98,1.98,1.98
81.35,-3.79,-5.75,-3.79,-5.74,5.75,5.54,4.64,1.96,1.97,1.96
82.16,-3.75,-5.69,-3.75,-5.69,5.70,5.51,4.57,1.95,1.95,1.94
82.98,-3.72,-5.63,-3.72,-5.64,5.65,5.47,4.51,1.93,1.93,1.91
83.81,-3.70,-5.60,-3.70,-5.60,5.60,5.44,4.45,1.90,1.91,1.90
84.65,-3.67,-5.56,-3.67,-5.56,5.56,5.40,4.39,1.89,1.88,1.89
85.50,-3.65,-5.53,-3.64,-5.52,5.51,5.36,4.34,1.86,1.87,1.88
86.35,-3.61,-5.47,-3.61,-5.47,5.46,5.33,4.29,1.85,1.85,1.86
87.22,-3.57,-5.42,-3.57,-5.42,5.42,5.29,4.24,1.85,1.85,1.85
88.09,-3.53,-5.37,-3.53,-5.37,5.37,5.25,4.20,1.84,1.84,1.84
88.97,-3.49,-5.31,-3.49,-5.31,5.33,5.20,4.16,1.84,1.83,1.82
89.86,-3.46,-5.27,-3.46,-5.27,5.28,5.16,4.12,1.82,1.82,1.81
90.76,-3.43,-5.22,-3.43,-5.23,5.23,5.12,4.09,1.80,1.80,1.79
91.66,-3.41,-5.19,-3.41,-5.18,5.18,5.07,4.05,1.77,1.77,1.78
92.58,-3.38,-5.14,-3.38,-5.14,5.13,5.03,4.03,1.75,1.75,1.76
93.51,-3.35,-5.08,-3.35,-5.09,5.07,4.98,4.00,1.72,1.72,1.73
94.44,-3.31,-5.03,-3.31,-5.02,5.01,4.93,3.98,1.70,1.70,1.72
95.39,-3.26,-4.95,-3.26,-4.95,4.94,4.88,3.96,1.68,1.68,1.69
96.34,-3.21,-4.87,-3.21,-4.87,4.87,4.83,3.94,1.66,1.66,1.66
97.30,-3.16,-4.79,-3.16,-4.79,4.80,4.78,3.93,1.64,1.64,1.63
98.28,-3.12,-4.72,-3.12,-4.72,4.73,4.73,3.92,1.61,1.61,1.60
99.26,-3.09,-4.65,-3.09,-4.65,4.66,4.68,3.90,1.57,1.57,1.56
100.25,-3.06,-4.58,-3.06,-4.58,4.59,4.63,3.90,1.53,1.53,1.52
101.25,-3.04,-4.52,-3.04,-4.52,4.53,4.57,3.89,1.49,1.49,1.48
102.27,-3.02,-4.47,-3.02,-4.47,4.46,4.52,3.89,1.44,1.44,1.45
103.29,-3.00,-4.41,-3.00,-4.41,4.39,4.46,3.88,1.39,1.39,1.41
104.32,-2.98,-4.34,-2.97,-4.33,4.31,4.40,3.88,1.33,1.34,1.36
105.37,-2.93,-4.25,-2.93,-4.25,4.24,4.35,3.88,1.31,1.31,1.32
106.42,-2.88,-4.15,-2.88,-4.16,4.16,4.29,3.88,1.28,1.28,1.27
107.48,-2.84,-4.07,-2.84,-4.07,4.08,4.23,3.88,1.24,1.25,1.23
108.56,-2.80,-3.99,-2.80,-3.99,4.01,4.17,3.88,1.21,1.20,1.19
109.64,-2.77,-3.92,-2.77,-3.92,3.93,4.11,3.88,1.16,1.16,1.15
110.74,-2.75,-3.85,-2.75,-3.85,3.85,4.05,3.88,1.10,1.10,1.10
111.85,-2.73,-3.79,-2.73,-3.79,3.78,3.99,3.88,1.05,1.05,1.06
112.97,-2.70,-3.72,-2.70,-3.72,3.71,3.93,3.88,1.01,1.01,1.02
114.10,-2.66,-3.65,-2.66,-3.65,3.64,3.87,3.88,0.98,0.98,0.99
115.24,-2.62,-3.57,-2.62,-3.57,3.57,3.81,3.87,0.95,0.94,0.95
116.39,-2.59,-3.50,-2.59,-3.50,3.50,3.75,3.87,0.91,0.91,0.91
117.55,-2.55,-3.44,-2.55,-3.43,3.43,3.69,3.86,0.88,0.88,0.89
118.73,-2.51,-3.36,-2.51,-3.36,3.37,3.63,3.85,0.86,0.86,0.85
119.92,-2.46,-3.28,-2.47,-3.29,3.31,3.57,3.83,0.85,0.84,0.82
121.12,-2.44,-3.24,-2.44,-3.24,3.25,3.51,3.81,0.81,0.81,0.80
122.33,-2.42,-3.20,-2.42,-3.20,3.20,3.45,3.79,0.78,0.78,0.78
123.55,-2.40,-3.16,-2.40,-3.15,3.15,3.39,3.76,0.75,0.75,0.76
124.79,-2.37,-3.10,-2.37,-3.11,3.10,3.33,3.73,0.73,0.73,0.73
126.03,-2.34,-3.06,-2.35,-3.06,3.06,3.27,3.70,0.72,0.71,0.72
127.29,-2.33,-3.02,-2.32,-3.02,3.01,3.21,3.67,0.68,0.69,0.69
128.57,-2.30,-2.98,-2.29,-2.97,2.97,3.15,3.63,0.67,0.68,0.68
129.85,-2.25,-2.91,-2.26,-2.92,2.92,3.09,3.58,0.67,0.66,0.66
131.15,-2.22,-2.87,-2.22,-2.87,2.87,3.03,3.54,0.65,0.65,0.65
132.46,-2.20,-2.82,-2.19,-2.82,2.83,2.97,3.49,0.63,0.63,0.62
133.79,-2.17,-2.77,-2.17,-2.78,2.78,2.91,3.44,0.61,0.60,0.60
135.12,-2.15,-2.73,-2.15,-2.73,2.73,2.85,3.38,0.58,0.58,0.58
136.48,-2.13,-2.69,-2.12,-2.68,2.68,2.80,3.32,0.55,0.56,0.56
137.84,-2.09,-2.63,-2.10,-2.64,2.63,2.74,3.26,0.54,0.54,0.54
139.22,-2.07,-2.58,-2.07,-2.59,2.58,2.68,3.20,0.51,0.51,0.51
140.61,-2.05,-2.54,-2.04,-2.54,2.53,2.63,3.13,0.48,0.49,0.49
142.02,-2.01,-2.48,-2.02,-2.49,2.48,2.57,3.07,0.47,0.46,0.47
143.44,-1.99,-2.44,-1.98,-2.43,2.43,2.52,3.00,0.44,0.44,0.45
144.87,-1.95,-2.37,-1.95,-2.37,2.37,2.47,2.93,0.42,0.42,0.42
146.32,-1.92,-2.31,-1.92,-2.32,2.32,2.41,2.86,0.40,0.40,0.39
147.78,-1.89,-2.27,-1.89,-2.26,2.27,2.36,2.79,0.38,0.38,0.38
149.26,-1.86,-2.21,-1.86,-2.21,2.22,2.31,2.72,0.36,0.35,0.35
150.75,-1.83,-2.16,-1.83,-2.16,2.16,2.26,2.65,0.33,0.33,0.33
152.26,-1.81,-2.11,-1.81,-2.11,2.11,2.21,2.58,0.30,0.30,0.30
153.78,-1.78,-2.06,-1.78,-2.06,2.05,2.17,2.50,0.27,0.28,0.28
155.32,-1.75,-2.02,-1.74,-2.01,2.00,2.12,2.43,0.25,0.26,0.27
156.88,-1.70,-1.95,-1.71,-1.95,1.95,2.07,2.36,0.25,0.24,0.25
158.44,-1.68,-1.90,-1.68,-1.90,1.91,2.03,2.29,0.23,0.23,0.22
160.03,-1.65,-1.85,-1.65,-1.86,1.86,1.98,2.22,0.21,0.21,0.20
161.63,-1.63,-1.82,-1.63,-1.82,1.83,1.94,2.16,0.20,0.20,0.19
163.24,-1.62,-1.79,-1.62,-1.79,1.80,1.90,2.09,0.18,0.18,0.17
164.88,-1.61,-1.76,-1.62,-1.77,1.78,1.86,2.02,0.17,0.16,0.15
166.53,-1.62,-1.76,-1.62,-1.76,1.76,1.82,1.95,0.14,0.14,0.14
168.19,-1.63,-1.75,-1.63,-1.75,1.75,1.78,1.89,0.12,0.12,0.12
169.87,-1.63,-1.74,-1.63,-1.74,1.73,1.74,1.83,0.10,0.10,0.11
171.57,-1.63,-1.73,-1.63,-1.73,1.71,1.70,1.76,0.08,0.08,0.10
173.29,-1.62,-1.71,-1.61,-1.70,1.69,1.67,1.70,0.07,0.08,0.09
175.02,-1.58,-1.66,-1.59,-1.67,1.67,1.63,1.64,0.09,0.08,0.08
176.77,-1.56,-1.63,-1.56,-1.64,1.64,1.60,1.58,0.08,0.07,0.07
178.54,-1.54,-1.61,-1.53,-1.60,1.60,1.57,1.52,0.06,0.07,0.07
180.32,-1.50,-1.57,-1.50,-1.57,1.57,1.54,1.47,0.07,0.06,0.07
182.13,-1.47,-1.53,-1.46,-1.53,1.53,1.51,1.41,0.06,0.06,0.06
183.95,-1.42,-1.48,-1.43,-1.49,1.49,1.48,1.36,0.07,0.06,0.06
185.79,-1.39,-1.45,-1.39,-1.45,1.46,1.45,1.30,0.07,0.06,0.06
187.65,-1.37,-1.43,-1.36,-1.42,1.42,1.43,1.25,0.05,0.06,0.06
189.52,-1.34,-1.40,-1.34,-1.40,1.40,1.40,1.20,0.06,0.05,0.06
191.42,-1.32,-1.37,-1.32,-1.37,1.37,1.38,1.15,0.05,0.06,0.05
193.33,-1.30,-1.35,-1.30,-1.35,1.36,1.36,1.10,0.06,0.06,0.05
195.27,-1.28,-1.33,-1.29,-1.34,1.35,1.34,1.05,0.07,0.06,0.05
197.22,-1.28,-1.33,-1.28,-1.33,1.34,1.32,1.01,0.06,0.06,0.05
199.19,-1.29,-1.34,-1.29,-1.33,1.34,1.30,0.96,0.05,0.05,0.05
201.18,-1.30,-1.34,-1.30,-1.34,1.34,1.29,0.91,0.04,0.03,0.04
203.19,-1.32,-1.36,-1.31,-1.34,1.33,1.27,0.87,0.01,0.02,0.04
205.23,-1.31,-1.34,-1.31,-1.34,1.33,1.25,0.83,0.02,0.01,0.03
207.28,-1.30,-1.32,-1.30,-1.32,1.31,1.23,0.79,0.01,0.01,0.02
209.35,-1.29,-1.31,-1.29,-1.30,1.30,1.21,0.75,0.01,0.01,0.02
211.44,-1.27,-1.28,-1.27,-1.27,1.27,1.19,0.71,0.00,0.00,0.01
213.56,-1.24,-1.24,-1.24,-1.24,1.24,1.17,0.67,-0.00,0.00,-0.00
215.69,-1.20,-1.20,-1.20,-1.20,1.20,1.15,0.63,0.00,0.00,-0.00
217.85,-1.16,-1.15,-1.17,-1.16,1.16,1.12,0.59,0.00,-0.01,-0.01
220.03,-1.14,-1.12,-1.14,-1.12,1.12,1.10,0.56,-0.02,-0.02,-0.02
222.23,-1.11,-1.09,-1.10,-1.08,1.08,1.07,0.52,-0.03,-0.03,-0.02
224.45,-1.07,-1.04,-1.07,-1.04,1.03,1.04,0.49,-0.04,-0.04,-0.03
226.70,-1.03,-0.99,-1.03,-0.99,0.99,1.00,0.46,-0.04,-0.04,-0.04
228.96,-1.00,-0.95,-1.00,-0.95,0.96,0.97,0.43,-0.04,-0.04,-0.05
231.25,-0.98,-0.93,-0.98,-0.92,0.94,0.94,0.40,-0.04,-0.04,-0.05
233.57,-0.96,-0.89,-0.96,-0.90,0.91,0.91,0.37,-0.05,-0.05,-0.07
235.90,-0.96,-0.88,-0.96,-0.88,0.90,0.87,0.34,-0.06,-0.06,-0.08
238.26,-0.97,-0.88,-0.97,-0.88,0.88,0.84,0.32,-0.09,-0.09,-0.09
240.64,-0.98,-0.88,-0.98,-0.88,0.87,0.81,0.29,-0.11,-0.11,-0.10
243.05,-0.99,-0.88,-0.98,-0.87,0.86,0.78,0.27,-0.13,-0.13,-0.11
245.48,-0.98,-0.85,-0.98,-0.85,0.84,0.75,0.25,-0.14,-0.14,-0.13
247.93,-0.96,-0.83,-0.96,-0.83,0.82,0.72,0.23,-0.14,-0.14,-0.13
250.41,-0.94,-0.79,-0.94,-0.79,0.79,0.69,0.21,-0.15,-0.15,-0.15
252.92,-0.91,-0.76,-0.91,-0.76,0.76,0.67,0.19,-0.15,-0.16,-0.15
255.45,-0.89,-0.72,-0.89,-0.72,0.72,0.64,0.18,-0.17,-0.17,-0.17
258.00,-0.86,-0.69,-0.86,-0.68,0.68,0.62,0.16,-0.18,-0.18,-0.17
260.58,-0.82,-0.63,-0.82,-0.64,0.64,0.60,0.15,-0.18,-0.19,-0.19
263.19,-0.79,-0.60,-0.79,-0.59,0.59,0.57,0.14,-0.20,-0.19,-0.19
265.82,-0.75,-0.55,-0.75,-0.55,0.55,0.55,0.12,-0.20,-0.20,-0.20
268.48,-0.72,-0.51,-0.72,-0.52,0.51,0.53,0.11,-0.21,-0.21,-0.21
271.16,-0.70,-0.49,-0.69,-0.47,0.47,0.51,0.10,-0.23,-0.22,-0.21
273.87,-0.66,-0.43,-0.66,-0.44,0.44,0.49,0.10,-0.22,-0.22,-0.23
276.61,-0.64,-0.40,-0.64,-0.41,0.42,0.47,0.09,-0.22,-0.22,-0.24
279.38,-0.63,-0.39,-0.63,-0.38,0.40,0.45,0.08,-0.23,-0.23,-0.24
282.17,-0.63,-0.37,-0.63,-0.37,0.39,0.43,0.08,-0.24,-0.24,-0.26
284.99,-0.64,-0.37,-0.64,-0.37,0.38,0.42,0.07,-0.26,-0.27,-0.27
287.84,-0.66,-0.38,-0.66,-0.37,0.37,0.40,0.07,-0.29,-0.29,-0.28
290.72,-0.67,-0.37,-0.67,-0.37,0.36,0.38,0.06,-0.31,-0.31,-0.30
293.63,-0.67,-0.36,-0.67,-0.36,0.34,0.37,0.06,-0.33,-0.33,-0.31
296.57,-0.65,-0.33,-0.65,-0.33,0.32,0.35,0.06,-0.33,-0.33,-0.32
299.53,-0.63,-0.30,-0.63,-0.30,0.29,0.34,0.06,-0.34,-0.34,-0.33
302.53,-0.61,-0.26,-0.61,-0.26,0.26,0.32,0.05,-0.35,-0.35,-0.35
305.55,-0.58,-0.22,-0.58,-0.22,0.22,0.31,0.05,-0.36,-0.36,-0.36
308.61,-0.55,-0.18,-0.55,-0.18,0.18,0.29,0.05,-0.37,-0.37,-0.37
311.69,-0.52,-0.14,-0.52,-0.14,0.14,0.28,0.05,-0.38,-0.38,-0.38
314.81,-0.49,-0.09,-0.49,-0.09,0.09,0.27,0.05,-0.40,-0.40,-0.40
317.96,-0.46,-0.05,-0.46,-0.05,0.05,0.25,0.05,-0.41,-0.41,-0.41
321.14,-0.42,-0.01,-0.42,-0.01,0.01,0.24,0.05,-0.41,-0.41,-0.41
324.35,-0.39,0.03,-0.39,0.03,-0.03,0.23,0.05,-0.42,-0.42,-0.42
327.59,-0.36,0.06,-0.36,0.07,-0.06,0.21,0.05,-0.42,-0.43,-0.42
330.87,-0.34,0.10,-0.34,0.10,-0.09,0.20,0.05,-0.43,-0.43,-0.44
334.18,-0.32,0.12,-0.32,0.12,-0.11,0.19,0.05,-0.43,-0.43,-0.44
337.52,-0.30,0.14,-0.31,0.14,-0.13,0.18,0.05,-0.43,-0.43,-0.44
340.90,-0.30,0.15,-0.30,0.15,-0.14,0.17,0.05,-0.44,-0.44,-0.45
344.30,-0.31,0.14,-0.31,0.14,-0.14,0.15,0.05,-0.45,-0.45,-0.45
347.75,-0.32,0.13,-0.32,0.14,-0.15,0.14,0.05,-0.47,-0.46,-0.45
351.23,-0.32,0.14,-0.32,0.14,-0.14,0.13,0.05,-0.46,-0.47,-0.46
354.74,-0.32,0.14,-0.32,0.14,-0.14,0.12,0.05,-0.46,-0.46,-0.46
358.28,-0.32,0.14,-0.32,0.14,-0.14,0.11,0.06,-0.46,-0.46,-0.46
361.87,-0.32,0.14,-0.32,0.14,-0.14,0.10,0.06,-0.46,-0.46,-0.46
365.49,-0.32,0.14,-0.32,0.14,-0.14,0.09,0.06,-0.46,-0.46,-0.46
369.14,-0.32,0.14,-0.32,0.14,-0.14,0.08,0.06,-0.46,-0.46,-0.46
372.83,-0.32,0.13,-0.32,0.14,-0.14,0.07,0.06,-0.46,-0.46,-0.45
376.56,-0.32,0.13,-0.32,0.14,-0.14,0.06,0.06,-0.46,-0.46,-0.45
380.33,-0.32,0.15,-0.32,0.14,-0.14,0.04,0.06,-0.46,-0.46,-0.47
384.13,-0.32,0.15,-0.32,0.15,-0.14,0.03,0.06,-0.46,-0.46,-0.47
387.97,-0.32,0.15,-0.32,0.15,-0.15,0.02,0.06,-0.47,-0.47,-0.47
391.85,-0.32,0.15,-0.32,0.15,-0.15,0.01,0.06,-0.47,-0.47,-0.47
395.77,-0.32,0.15,-0.32,0.15,-0.15,0.00,0.06,-0.47,-0.47,-0.47
399.73,-0.32,0.16,-0.32,0.16,-0.16,-0.01,0.06,-0.48,-0.48,-0.48
403.72,-0.32,0.16,-0.32,0.16,-0.16,-0.02,0.06,-0.48,-0.48,-0.48
407.76,-0.32,0.17,-0.32,0.17,-0.17,-0.03,0.06,-0.49,-0.49,-0.49
411.84,-0.32,0.17,-0.32,0.17,-0.18,-0.04,0.06,-0.50,-0.50,-0.49
415.96,-0.32,0.18,-0.32,0.18,-0.19,-0.05,0.06,-0.51,-0.51,-0.50
420.12,-0.32,0.19,-0.32,0.20,-0.20,-0.06,0.06,-0.52,-0.52,-0.51
424.32,-0.32,0.22,-0.32,0.21,-0.21,-0.07,0.06,-0.53,-0.53,-0.54
428.56,-0.32,0.23,-0.32,0.23,-0.23,-0.08,0.05,-0.55,-0.55,-0.55
432.85,-0.32,0.24,-0.32,0.24,-0.24,-0.09,0.05,-0.56,-0.56,-0.56
437.18,-0.32,0.26,-0.32,0.26,-0.26,-0.10,0.05,-0.58,-0.58,-0.58
441.55,-0.32,0.28,-0.32,0.27,-0.27,-0.11,0.05,-0.59,-0.59,-0.60
445.96,-0.32,0.29,-0.32,0.29,-0.29,-0.12,0.04,-0.61,-0.61,-0.61
450.42,-0.32,0.31,-0.32,0.31,-0.31,-0.13,0.04,-0.63,-0.63,-0.63
454.93,-0.32,0.33,-0.32,0.33,-0.33,-0.15,0.03,-0.65,-0.65,-0.65
459.48,-0.32,0.34,-0.32,0.34,-0.34,-0.16,0.03,-0.66,-0.66,-0.66
464.07,-0.32,0.36,-0.32,0.36,-0.36,-0.17,0.02,-0.68,-0.68,-0.68
468.71,-0.32,0.37,-0.32,0.37,-0.37,-0.18,0.02,-0.69,-0.69,-0.69
