frequency,raw,error,smoothed,error_smoothed,equalization,parametric_eq,fixed_band_eq,equalized_raw,equalized_smoothed,target
20.00,-0.69,-4.10,-0.69,-4.10,4.19,3.45,1.19,3.50,3.50,3.41
20.20,-0.65,-4.07,-0.66,-4.08,4.11,3.47,1.22,3.45,3.45,3.42
20.40,-0.60,-4.03,-0.62,-4.05,4.03,3.49,1.26,3.42,3.41,3.43
20.61,-0.57,-3.99,-0.57,-4.00,3.95,3.51,1.30,3.38,3.38,3.43
20.81,-0.52,-3.96,-0.52,-3.96,3.88,3.52,1.34,3.35,3.35,3.44
21.02,-0.47,-3.91,-0.45,-3.90,3.81,3.54,1.38,3.33,3.35,3.44
21.23,-0.35,-3.80,-0.36,-3.81,3.74,3.55,1.43,3.39,3.38,3.45
21.44,-0.23,-3.68,-0.24,-3.69,3.68,3.56,1.47,3.45,3.44,3.45
21.66,-0.13,-3.57,-0.11,-3.56,3.60,3.57,1.52,3.48,3.49,3.45
21.87,-0.00,-3.45,-0.02,-3.47,3.54,3.58,1.56,3.54,3.52,3.45
22.09,0.06,-3.40,0.03,-3.42,3.49,3.58,1.61,3.54,3.52,3.46
22.31,0.04,-3.42,0.05,-3.40,3.45,3.59,1.66,3.48,3.49,3.46
22.54,0.03,-3.42,0.02,-3.43,3.41,3.59,1.71,3.44,3.44,3.45
22.76,0.01,-3.43,0.00,-3.44,3.39,3.59,1.76,3.39,3.39,3.44
22.99,-0.01,-3.45,0.01,-3.43,3.37,3.59,1.82,3.35,3.37,3.44
23.22,0.04,-3.40,0.04,-3.40,3.35,3.59,1.87,3.38,3.38,3.44
23.45,0.10,-3.33,0.09,-3.34,3.33,3.59,1.93,3.42,3.42,3.43
23.69,0.15,-3.27,0.16,-3.27,3.30,3.58,1.99,3.46,3.46,3.43
23.92,0.21,-3.22,0.20,-3.23,3.28,3.58,2.04,3.48,3.47,3.42
24.16,0.22,-3.21,0.21,-3.21,3.25,3.57,2.10,3.47,3.46,3.42
24.40,0.21,-3.22,0.21,-3.22,3.23,3.56,2.17,3.44,3.44,3.42
24.65,0.20,-3.23,0.20,-3.23,3.22,3.55,2.23,3.41,3.41,3.42
24.89,0.19,-3.24,0.19,-3.23,3.21,3.53,2.29,3.39,3.40,3.42
25.14,0.20,-3.23,0.20,-3.22,3.20,3.52,2.35,3.40,3.40,3.42
25.39,0.22,-3.20,0.21,-3.20,3.19,3.51,2.42,3.40,3.40,3.41
25.65,0.24,-3.18,0.23,-3.18,3.17,3.49,2.48,3.40,3.40,3.41
25.91,0.26,-3.16,0.26,-3.15,3.14,3.47,2.54,3.40,3.40,3.41
26.16,0.29,-3.12,0.28,-3.13,3.12,3.45,2.61,3.41,3.40,3.41
26.43,0.32,-3.09,0.32,-3.09,3.10,3.43,2.67,3.42,3.42,3.41
26.69,0.35,-3.06,0.35,-3.06,3.10,3.41,2.74,3.44,3.45,3.41
26.96,0.38,-3.03,0.36,-3.05,3.10,3.38,2.80,3.47,3.46,3.41
27.23,0.35,-3.06,0.34,-3.06,3.10,3.36,2.86,3.45,3.45,3.41
27.50,0.31,-3.10,0.30,-3.11,3.10,3.34,2.92,3.41,3.40,3.41
27.77,0.27,-3.14,0.27,-3.14,3.10,3.31,2.98,3.36,3.36,3.41
28.05,0.24,-3.17,0.27,-3.14,3.08,3.28,3.04,3.31,3.35,3.41
28.33,0.32,-3.09,0.31,-3.10,3.05,3.25,3.09,3.36,3.35,3.40
28.62,0.38,-3.02,0.38,-3.03,3.01,3.23,3.14,3.39,3.38,3.40
28.90,0.46,-2.96,0.46,-2.95,2.95,3.20,3.19,3.41,3.41,3.41
29.19,0.54,-2.88,0.53,-2.88,2.89,3.17,3.24,3.43,3.43,3.41
29.48,0.61,-2.81,0.61,-2.80,2.83,3.14,3.28,3.44,3.45,3.41
29.78,0.67,-2.75,0.67,-2.74,2.78,3.10,3.32,3.46,3.46,3.42
30.08,0.72,-2.69,0.71,-2.71,2.75,3.07,3.36,3.47,3.45,3.42
30.38,0.71,-2.71,0.71,-2.71,2.72,3.04,3.39,3.43,3.43,3.42
30.68,0.70,-2.72,0.70,-2.72,2.71,3.01,3.42,3.41,3.41,3.42
30.99,0.69,-2.73,0.69,-2.73,2.71,2.97,3.44,3.40,3.40,3.42
31.30,0.69,-2.73,0.69,-2.73,2.72,2.94,3.46,3.40,3.40,3.41
31.61,0.69,-2.73,0.69,-2.73,2.73,2.91,3.47,3.41,3.41,3.41
31.93,0.69,-2.73,0.68,-2.73,2.73,2.87,3.49,3.42,3.42,3.41
32.24,0.68,-2.73,0.67,-2.73,2.73,2.84,3.49,3.41,3.40,3.40
32.57,0.67,-2.73,0.66,-2.74,2.72,2.81,3.49,3.38,3.38,3.40
32.89,0.66,-2.74,0.67,-2.73,2.70,2.77,3.49,3.36,3.37,3.40
33.22,0.69,-2.70,0.69,-2.70,2.68,2.74,3.49,3.36,3.37,3.39
33.55,0.73,-2.66,0.73,-2.65,2.66,2.71,3.48,3.38,3.38,3.38
33.89,0.78,-2.60,0.76,-2.61,2.64,2.67,3.47,3.41,3.40,3.37
34.23,0.79,-2.59,0.78,-2.59,2.62,2.64,3.45,3.40,3.40,3.37
34.57,0.79,-2.58,0.79,-2.58,2.60,2.61,3.43,3.38,3.39,3.37
34.92,0.79,-2.58,0.79,-2.58,2.58,2.57,3.41,3.37,3.37,3.37
35.27,0.79,-2.58,0.79,-2.58,2.57,2.54,3.39,3.36,3.36,3.37
35.62,0.79,-2.58,0.79,-2.58,2.57,2.51,3.37,3.36,3.36,3.36
35.97,0.79,-2.58,0.79,-2.58,2.58,2.48,3.35,3.36,3.36,3.36
36.33,0.79,-2.57,0.79,-2.57,2.58,2.45,3.32,3.37,3.37,3.36
36.70,0.79,-2.57,0.79,-2.57,2.58,2.41,3.29,3.37,3.37,3.36
37.06,0.79,-2.57,0.78,-2.58,2.58,2.38,3.27,3.36,3.36,3.36
37.43,0.78,-2.58,0.77,-2.58,2.57,2.35,3.24,3.34,3.34,3.35
37.81,0.77,-2.59,0.77,-2.58,2.56,2.32,3.22,3.32,3.33,3.36
38.19,0.79,-2.57,0.80,-2.56,2.54,2.30,3.19,3.33,3.34,3.36
38.57,0.84,-2.52,0.83,-2.53,2.53,2.27,3.17,3.36,3.36,3.35
38.95,0.88,-2.49,0.87,-2.49,2.51,2.24,3.15,3.39,3.38,3.36
39.34,0.89,-2.47,0.89,-2.47,2.50,2.21,3.12,3.38,3.38,3.36
39.74,0.89,-2.47,0.89,-2.47,2.48,2.19,3.10,3.37,3.37,3.36
40.14,0.89,-2.47,0.89,-2.47,2.47,2.16,3.09,3.35,3.35,3.35
40.54,0.89,-2.46,0.89,-2.46,2.46,2.14,3.07,3.35,3.35,3.35
40.94,0.89,-2.46,0.89,-2.46,2.46,2.12,3.05,3.34,3.34,3.35
41.35,0.89,-2.46,0.89,-2.45,2.45,2.09,3.04,3.33,3.33,3.34
41.76,0.89,-2.44,0.89,-2.45,2.44,2.07,3.03,3.32,3.32,3.33
42.18,0.89,-2.44,0.88,-2.44,2.42,2.05,3.02,3.31,3.31,3.32
42.60,0.89,-2.43,0.88,-2.44,2.41,2.03,3.02,3.30,3.30,3.32
43.03,0.89,-2.43,0.91,-2.41,2.41,2.02,3.01,3.29,3.31,3.32
43.46,0.93,-2.39,0.93,-2.38,2.41,2.00,3.01,3.33,3.34,3.31
43.90,0.97,-2.33,0.93,-2.37,2.41,1.98,3.01,3.38,3.35,3.30
44.33,0.91,-2.38,0.90,-2.39,2.42,1.97,3.01,3.34,3.33,3.29
44.78,0.83,-2.46,0.85,-2.44,2.44,1.96,3.02,3.26,3.28,3.29
45.23,0.79,-2.50,0.80,-2.48,2.45,1.95,3.03,3.23,3.25,3.28
45.68,0.79,-2.49,0.78,-2.50,2.46,1.94,3.04,3.25,3.24,3.28
46.13,0.79,-2.50,0.78,-2.50,2.48,1.93,3.05,3.26,3.26,3.28
46.60,0.79,-2.49,0.79,-2.49,2.49,1.92,3.06,3.27,3.28,3.28
47.06,0.79,-2.49,0.79,-2.49,2.50,1.92,3.08,3.28,3.29,3.28
47.53,0.80,-2.49,0.79,-2.49,2.51,1.91,3.10,3.30,3.30,3.28
48.01,0.80,-2.49,0.80,-2.49,2.51,1.91,3.12,3.31,3.30,3.29
48.49,0.79,-2.51,0.79,-2.50,2.52,1.92,3.14,3.30,3.31,3.29
48.97,0.78,-2.52,0.76,-2.53,2.53,1.92,3.17,3.31,3.29,3.29
49.46,0.74,-2.56,0.73,-2.57,2.55,1.92,3.19,3.29,3.28,3.30
49.96,0.69,-2.62,0.72,-2.58,2.58,1.93,3.22,3.27,3.30,3.31
50.46,0.72,-2.60,0.72,-2.60,2.61,1.94,3.25,3.33,3.33,3.31
50.96,0.75,-2.58,0.70,-2.62,2.64,1.96,3.28,3.39,3.34,3.32
51.47,0.67,-2.66,0.67,-2.66,2.67,1.97,3.31,3.33,3.33,3.33
51.99,0.59,-2.74,0.62,-2.71,2.69,1.99,3.34,3.28,3.31,3.33
52.51,0.59,-2.74,0.58,-2.75,2.71,2.02,3.37,3.29,3.29,3.33
53.03,0.59,-2.74,0.58,-2.75,2.73,2.04,3.40,3.32,3.31,3.33
53.56,0.60,-2.73,0.59,-2.74,2.75,2.07,3.43,3.35,3.35,3.33
54.10,0.60,-2.74,0.59,-2.75,2.77,2.11,3.46,3.37,3.36,3.34
54.64,0.57,-2.77,0.57,-2.77,2.79,2.14,3.49,3.36,3.36,3.34
55.18,0.54,-2.80,0.54,-2.80,2.81,2.18,3.52,3.35,3.35,3.34
55.74,0.51,-2.82,0.50,-2.83,2.83,2.23,3.54,3.33,3.33,3.33
56.29,0.47,-2.86,0.46,-2.87,2.85,2.28,3.57,3.31,3.31,3.33
56.86,0.43,-2.90,0.44,-2.88,2.88,2.33,3.59,3.30,3.32,3.33
57.42,0.42,-2.90,0.42,-2.90,2.90,2.39,3.60,3.32,3.32,3.31
58.00,0.42,-2.89,0.40,-2.91,2.92,2.45,3.62,3.33,3.32,3.30
58.58,0.37,-2.92,0.37,-2.92,2.93,2.52,3.63,3.29,3.30,3.29
59.16,0.33,-2.95,0.33,-2.95,2.93,2.59,3.63,3.26,3.26,3.28
59.76,0.30,-2.97,0.30,-2.96,2.93,2.66,3.63,3.23,3.23,3.26
60.35,0.29,-2.95,0.29,-2.95,2.93,2.74,3.63,3.22,3.22,3.24
60.96,0.29,-2.93,0.29,-2.92,2.94,2.82,3.62,3.22,3.23,3.21
61.57,0.30,-2.89,0.29,-2.90,2.94,2.90,3.61,3.23,3.23,3.19
62.18,0.28,-2.88,0.26,-2.90,2.93,2.98,3.59,3.21,3.19,3.15
62.80,0.20,-2.92,0.20,-2.92,2.92,3.06,3.56,3.12,3.12,3.12
63.43,0.13,-2.95,0.13,-2.94,2.91,3.14,3.53,3.03,3.04,3.07
64.07,0.07,-2.97,0.08,-2.95,2.89,3.22,3.49,2.96,2.98,3.03
64.71,0.08,-2.91,0.08,-2.91,2.88,3.29,3.45,2.95,2.96,2.99
65.35,0.10,-2.85,0.09,-2.86,2.86,3.36,3.40,2.96,2.95,2.95
66.01,0.11,-2.80,0.09,-2.82,2.85,3.42,3.35,2.96,2.94,2.91
66.67,0.07,-2.81,0.07,-2.80,2.84,3.46,3.30,2.90,2.91,2.87
67.33,0.03,-2.82,0.03,-2.81,2.83,3.50,3.23,2.85,2.86,2.84
68.01,-0.01,-2.82,-0.02,-2.83,2.83,3.53,3.17,2.81,2.80,2.80
68.69,-0.08,-2.85,-0.08,-2.85,2.84,3.55,3.10,2.75,2.76,2.77
69.37,-0.13,-2.87,-0.13,-2.87,2.86,3.55,3.02,2.73,2.73,2.74
70.07,-0.18,-2.89,-0.19,-2.90,2.89,3.54,2.95,2.71,2.70,2.71
70.77,-0.24,-2.92,-0.24,-2.92,2.93,3.52,2.87,2.68,2.68,2.67
71.48,-0.30,-2.96,-0.30,-2.95,2.96,3.49,2.78,2.66,2.66,2.65
72.19,-0.37,-2.99,-0.38,-2.99,3.00,3.46,2.70,2.63,2.63,2.62
72.91,-0.45,-3.03,-0.46,-3.05,3.04,3.42,2.61,2.59,2.58,2.58
73.64,-0.55,-3.10,-0.53,-3.08,3.07,3.37,2.52,2.52,2.54,2.55
74.38,-0.61,-3.13,-0.60,-3.12,3.11,3.32,2.43,2.49,2.50,2.51
75.12,-0.63,-3.11,-0.67,-3.15,3.13,3.27,2.34,2.50,2.46,2.48
75.87,-0.75,-3.19,-0.73,-3.17,3.16,3.23,2.24,2.41,2.43,2.43
76.63,-0.80,-3.20,-0.79,-3.19,3.19,3.18,2.15,2.39,2.40,2.39
77.40,-0.84,-3.19,-0.84,-3.19,3.21,3.14,2.06,2.37,2.37,2.35
78.17,-0.88,-3.19,-0.90,-3.20,3.23,3.11,1.96,2.35,2.34,2.31
78.95,-0.95,-3.20,-0.97,-3.23,3.24,3.09,1.87,2.30,2.27,2.26
79.74,-1.07,-3.29,-1.05,-3.27,3.25,3.07,1.77,2.17,2.20,2.22
80.54,-1.12,-3.29,-1.11,-3.28,3.25,3.07,1.68,2.12,2.14,2.17
81.35,-1.12,-3.25,-1.13,-3.26,3.24,3.07,1.58,2.12,2.11,2.13
82.16,-1.12,-3.21,-1.13,-3.21,3.22,3.07,1.49,2.10,2.09,2.09
82.98,-1.12,-3.17,-1.12,-3.17,3.19,3.09,1.39,2.07,2.07,2.05
83.81,-1.12,-3.13,-1.13,-3.14,3.15,3.10,1.30,2.02,2.02,2.00
84.65,-1.12,-3.10,-1.13,-3.10,3.09,3.11,1.21,1.97,1.96,1.97
85.50,-1.12,-3.05,-1.11,-3.04,3.02,3.11,1.12,1.90,1.91,1.93
86.35,-1.08,-2.97,-1.07,-2.96,2.95,3.10,1.02,1.86,1.88,1.88
87.22,-1.00,-2.84,-1.02,-2.85,2.86,3.08,0.93,1.86,1.85,1.84
88.09,-0.95,-2.75,-0.97,-2.77,2.77,3.03,0.84,1.82,1.80,1.79
88.97,-0.91,-2.67,-0.92,-2.68,2.67,2.95,0.75,1.76,1.75,1.76
89.86,-0.90,-2.62,-0.86,-2.57,2.56,2.84,0.66,1.66,1.70,1.71
90.76,-0.77,-2.43,-0.78,-2.45,2.46,2.71,0.57,1.69,1.68,1.67
91.66,-0.67,-2.30,-0.69,-2.31,2.34,2.56,0.48,1.67,1.66,1.63
92.58,-0.59,-2.19,-0.60,-2.18,2.23,2.39,0.39,1.63,1.63,1.59
93.51,-0.52,-2.07,-0.54,-2.09,2.09,2.21,0.31,1.57,1.56,1.55
94.44,-0.47,-1.98,-0.46,-1.97,1.94,2.02,0.22,1.47,1.48,1.51
95.39,-0.37,-1.85,-0.36,-1.83,1.78,1.82,0.13,1.41,1.43,1.47
96.34,-0.21,-1.65,-0.22,-1.65,1.61,1.62,0.05,1.39,1.38,1.43
97.30,-0.03,-1.43,-0.05,-1.44,1.42,1.42,-0.04,1.38,1.37,1.39
98.28,0.12,-1.22,0.15,-1.20,1.21,1.22,-0.12,1.34,1.36,1.35
99.26,0.35,-0.96,0.33,-0.98,1.00,1.02,-0.20,1.34,1.32,1.31
100.25,0.53,-0.74,0.50,-0.76,0.78,0.83,-0.28,1.30,1.28,1.27
101.25,0.65,-0.58,0.68,-0.55,0.56,0.64,-0.37,1.21,1.24,1.23
102.27,0.83,-0.34,0.84,-0.33,0.35,0.45,-0.45,1.18,1.19,1.18
103.29,1.02,-0.11,1.00,-0.13,0.14,0.27,-0.52,1.16,1.14,1.13
104.32,1.16,0.08,1.13,0.05,-0.05,0.10,-0.60,1.10,1.08,1.08
105.37,1.22,0.17,1.24,0.20,-0.22,-0.07,-0.68,0.99,1.02,1.04
106.42,1.34,0.34,1.34,0.35,-0.37,-0.24,-0.75,0.97,0.97,0.99
107.48,1.46,0.51,1.47,0.52,-0.49,-0.40,-0.83,0.97,0.98,0.94
108.56,1.58,0.68,1.58,0.69,-0.60,-0.55,-0.90,0.98,0.98,0.89
109.64,1.68,0.83,1.62,0.78,-0.69,-0.70,-0.96,0.98,0.93,0.84
110.74,1.62,0.81,1.60,0.80,-0.79,-0.84,-1.03,0.82,0.81,0.80
111.85,1.56,0.79,1.58,0.82,-0.90,-0.97,-1.09,0.66,0.69,0.77
112.97,1.57,0.84,1.63,0.90,-1.02,-1.10,-1.15,0.55,0.61,0.73
114.10,1.77,1.09,1.75,1.06,-1.15,-1.23,-1.21,0.63,0.60,0.69
115.24,1.95,1.29,1.91,1.25,-1.29,-1.34,-1.27,0.66,0.63,0.66
116.39,2.07,1.44,2.09,1.46,-1.44,-1.45,-1.32,0.63,0.65,0.62
117.55,2.23,1.62,2.24,1.64,-1.59,-1.56,-1.37,0.63,0.65,0.60
118.73,2.40,1.82,2.38,1.80,-1.75,-1.65,-1.41,0.64,0.63,0.58
119.92,2.53,1.97,2.50,1.94,-1.90,-1.74,-1.45,0.63,0.61,0.56
121.12,2.58,2.03,2.59,2.05,-2.02,-1.83,-1.48,0.56,0.57,0.54
122.33,2.65,2.12,2.66,2.13,-2.12,-1.90,-1.52,0.53,0.54,0.53
123.55,2.72,2.20,2.69,2.18,-2.20,-1.97,-1.54,0.52,0.49,0.51
124.79,2.74,2.24,2.73,2.24,-2.27,-2.04,-1.57,0.47,0.47,0.50
126.03,2.74,2.26,2.78,2.30,-2.32,-2.09,-1.59,0.41,0.45,0.48
127.29,2.84,2.37,2.82,2.36,-2.37,-2.14,-1.60,0.46,0.45,0.47
128.57,2.90,2.44,2.87,2.42,-2.41,-2.19,-1.61,0.48,0.46,0.45
129.85,2.90,2.46,2.90,2.47,-2.45,-2.22,-1.62,0.45,0.46,0.44
131.15,2.91,2.48,2.92,2.50,-2.48,-2.26,-1.62,0.43,0.44,0.43
132.46,2.92,2.51,2.92,2.51,-2.50,-2.28,-1.62,0.42,0.42,0.40
133.79,2.94,2.54,2.91,2.52,-2.52,-2.30,-1.62,0.42,0.39,0.39
135.12,2.88,2.51,2.88,2.51,-2.53,-2.31,-1.61,0.35,0.36,0.37
136.48,2.84,2.48,2.85,2.49,-2.52,-2.32,-1.60,0.31,0.33,0.36
137.84,2.83,2.49,2.83,2.50,-2.51,-2.32,-1.59,0.31,0.32,0.34
139.22,2.83,2.51,2.82,2.50,-2.50,-2.32,-1.57,0.33,0.33,0.32
140.61,2.83,2.53,2.79,2.49,-2.47,-2.31,-1.55,0.36,0.32,0.30
142.02,2.73,2.45,2.75,2.47,-2.44,-2.30,-1.53,0.29,0.31,0.28
143.44,2.66,2.40,2.67,2.41,-2.40,-2.29,-1.51,0.26,0.27,0.25
144.87,2.60,2.37,2.57,2.34,-2.35,-2.27,-1.48,0.24,0.22,0.23
146.32,2.47,2.27,2.49,2.29,-2.30,-2.24,-1.46,0.16,0.18,0.20
147.78,2.39,2.22,2.38,2.22,-2.25,-2.22,-1.43,0.14,0.14,0.16
149.26,2.30,2.17,2.28,2.16,-2.19,-2.19,-1.40,0.10,0.09,0.13
150.75,2.18,2.09,2.20,2.12,-2.13,-2.16,-1.37,0.04,0.06,0.08
152.26,2.10,2.07,2.09,2.06,-2.07,-2.12,-1.34,0.02,0.02,0.03
153.78,1.98,2.00,1.96,1.98,-1.99,-2.09,-1.31,-0.02,-0.03,-0.03
155.32,1.81,1.89,1.82,1.90,-1.88,-2.05,-1.29,-0.08,-0.06,-0.09
156.88,1.64,1.78,1.67,1.81,-1.73,-2.01,-1.26,-0.10,-0.06,-0.14
158.44,1.48,1.69,1.46,1.66,-1.55,-1.97,-1.23,-0.07,-0.09,-0.20
160.03,1.28,1.53,1.21,1.47,-1.35,-1.93,-1.20,-0.07,-0.13,-0.26
161.63,0.87,1.16,0.92,1.22,-1.14,-1.89,-1.17,-0.28,-0.23,-0.30
163.24,0.60,0.95,0.59,0.93,-0.96,-1.84,-1.14,-0.36,-0.37,-0.35
164.88,0.33,0.70,0.31,0.69,-0.82,-1.80,-1.11,-0.50,-0.51,-0.38
166.53,0.12,0.52,0.16,0.56,-0.74,-1.76,-1.08,-0.63,-0.59,-0.41
168.19,0.12,0.54,0.13,0.56,-0.73,-1.71,-1.06,-0.62,-0.60,-0.42
169.87,0.25,0.68,0.26,0.69,-0.79,-1.67,-1.03,-0.55,-0.54,-0.43
171.57,0.50,0.94,0.46,0.90,-0.92,-1.63,-1.00,-0.42,-0.45,-0.44
173.29,0.71,1.14,0.69,1.13,-1.08,-1.58,-0.98,-0.37,-0.39,-0.44
175.02,0.90,1.32,0.93,1.35,-1.26,-1.54,-0.95,-0.36,-0.33,-0.42
176.77,1.13,1.54,1.13,1.54,-1.43,-1.49,-0.93,-0.31,-0.30,-0.41
178.54,1.33,1.72,1.28,1.68,-1.58,-1.45,-0.91,-0.25,-0.29,-0.40
180.32,1.38,1.75,1.37,1.75,-1.68,-1.41,-0.89,-0.31,-0.31,-0.37
182.13,1.39,1.74,1.40,1.75,-1.75,-1.37,-0.87,-0.36,-0.35,-0.36
183.95,1.40,1.73,1.40,1.73,-1.77,-1.33,-0.85,-0.38,-0.37,-0.33
185.79,1.41,1.73,1.41,1.73,-1.77,-1.29,-0.83,-0.36,-0.36,-0.32
187.65,1.42,1.73,1.42,1.74,-1.75,-1.24,-0.81,-0.33,-0.33,-0.32
189.52,1.44,1.75,1.42,1.73,-1.72,-1.21,-0.79,-0.29,-0.30,-0.31
191.42,1.40,1.71,1.40,1.70,-1.70,-1.17,-0.77,-0.30,-0.30,-0.31
193.33,1.36,1.66,1.35,1.66,-1.68,-1.13,-0.76,-0.32,-0.32,-0.30
195.27,1.31,1.61,1.31,1.62,-1.66,-1.09,-0.74,-0.35,-0.34,-0.31
197.22,1.29,1.60,1.30,1.61,-1.63,-1.05,-0.73,-0.35,-0.33,-0.32
199.19,1.30,1.61,1.29,1.61,-1.61,-1.02,-0.71,-0.31,-0.31,-0.32
201.18,1.30,1.62,1.26,1.59,-1.57,-0.98,-0.70,-0.28,-0.31,-0.33
203.19,1.22,1.55,1.22,1.56,-1.54,-0.94,-0.68,-0.32,-0.32,-0.34
205.23,1.14,1.48,1.17,1.51,-1.50,-0.91,-0.67,-0.36,-0.33,-0.35
207.28,1.12,1.47,1.09,1.45,-1.46,-0.88,-0.66,-0.34,-0.36,-0.36
209.35,1.05,1.41,1.03,1.40,-1.41,-0.84,-0.65,-0.36,-0.38,-0.37
211.44,0.94,1.32,0.98,1.36,-1.35,-0.81,-0.64,-0.42,-0.38,-0.39
213.56,0.91,1.30,0.90,1.29,-1.30,-0.78,-0.62,-0.40,-0.41,-0.39
215.69,0.87,1.28,0.82,1.23,-1.25,-0.74,-0.61,-0.38,-0.42,-0.41
217.85,0.72,1.14,0.76,1.19,-1.19,-0.71,-0.60,-0.48,-0.43,-0.42
220.03,0.70,1.13,0.70,1.13,-1.14,-0.68,-0.59,-0.44,-0.44,-0.44
222.23,0.66,1.10,0.64,1.09,-1.08,-0.65,-0.58,-0.43,-0.44,-0.45
224.45,0.60,1.05,0.60,1.05,-1.03,-0.62,-0.57,-0.43,-0.43,-0.45
226.70,0.53,0.99,0.51,0.97,-0.97,-0.59,-0.56,-0.44,-0.45,-0.46
228.96,0.44,0.90,0.43,0.89,-0.90,-0.56,-0.55,-0.47,-0.47,-0.47
231.25,0.33,0.79,0.36,0.83,-0.83,-0.52,-0.54,-0.51,-0.47,-0.46
233.57,0.31,0.78,0.30,0.77,-0.76,-0.49,-0.52,-0.46,-0.46,-0.47
235.90,0.28,0.74,0.24,0.70,-0.69,-0.46,-0.51,-0.42,-0.46,-0.47
238.26,0.16,0.62,0.17,0.62,-0.62,-0.43,-0.50,-0.46,-0.45,-0.46
240.64,0.07,0.51,0.09,0.54,-0.55,-0.40,-0.49,-0.49,-0.46,-0.45
243.05,0.03,0.47,0.02,0.47,-0.49,-0.37,-0.47,-0.47,-0.47,-0.44
245.48,-0.00,0.43,-0.01,0.42,-0.44,-0.34,-0.46,-0.44,-0.45,-0.44
247.93,-0.05,0.38,-0.05,0.38,-0.38,-0.31,-0.44,-0.43,-0.43,-0.43
250.41,-0.09,0.33,-0.10,0.33,-0.32,-0.28,-0.43,-0.42,-0.42,-0.43
252.92,-0.15,0.27,-0.15,0.28,-0.27,-0.24,-0.41,-0.42,-0.42,-0.42
255.45,-0.20,0.22,-0.20,0.23,-0.21,-0.21,-0.40,-0.41,-0.41,-0.43
258.00,-0.24,0.19,-0.26,0.17,-0.15,-0.18,-0.38,-0.40,-0.41,-0.43
260.58,-0.32,0.11,-0.34,0.10,-0.10,-0.14,-0.36,-0.42,-0.43,-0.43
263.19,-0.42,0.01,-0.42,0.02,-0.03,-0.11,-0.34,-0.46,-0.45,-0.44
265.82,-0.52,-0.08,-0.49,-0.04,0.03,-0.07,-0.32,-0.49,-0.45,-0.44
268.48,-0.53,-0.09,-0.55,-0.11,0.10,-0.04,-0.30,-0.44,-0.46,-0.45
271.16,-0.57,-0.13,-0.61,-0.16,0.16,-0.00,-0.28,-0.41,-0.45,-0.45
273.87,-0.70,-0.25,-0.66,-0.21,0.23,0.04,-0.26,-0.48,-0.44,-0.45
276.61,-0.74,-0.29,-0.74,-0.28,0.29,0.08,-0.24,-0.45,-0.44,-0.46
279.38,-0.76,-0.31,-0.81,-0.35,0.35,0.12,-0.22,-0.41,-0.45,-0.46
282.17,-0.88,-0.43,-0.86,-0.41,0.41,0.16,-0.20,-0.47,-0.45,-0.45
284.99,-0.93,-0.49,-0.92,-0.47,0.47,0.21,-0.18,-0.47,-0.45,-0.45
287.84,-0.97,-0.53,-0.99,-0.54,0.52,0.25,-0.15,-0.45,-0.46,-0.45
290.72,-1.01,-0.57,-1.03,-0.59,0.58,0.30,-0.13,-0.43,-0.45,-0.44
293.63,-1.09,-0.66,-1.06,-0.63,0.63,0.35,-0.10,-0.46,-0.43,-0.43
296.57,-1.09,-0.67,-1.09,-0.66,0.67,0.40,-0.08,-0.42,-0.42,-0.43
299.53,-1.08,-0.66,-1.13,-0.71,0.71,0.45,-0.05,-0.37,-0.42,-0.43
302.53,-1.17,-0.75,-1.17,-0.75,0.75,0.51,-0.03,-0.43,-0.43,-0.42
305.55,-1.25,-0.83,-1.22,-0.80,0.78,0.56,-0.00,-0.47,-0.44,-0.42
308.61,-1.25,-0.83,-1.25,-0.82,0.82,0.62,0.02,-0.44,-0.43,-0.42
311.69,-1.24,-0.82,-1.26,-0.83,0.85,0.68,0.05,-0.39,-0.41,-0.43
314.81,-1.26,-0.83,-1.29,-0.86,0.88,0.74,0.08,-0.38,-0.41,-0.44
317.96,-1.36,-0.92,-1.35,-0.91,0.90,0.80,0.11,-0.46,-0.45,-0.44
321.14,-1.42,-0.97,-1.41,-0.96,0.92,0.86,0.13,-0.50,-0.48,-0.45
324.35,-1.43,-0.98,-1.44,-0.98,0.95,0.92,0.16,-0.49,-0.49,-0.45
327.59,-1.44,-0.98,-1.44,-0.97,0.98,0.98,0.19,-0.47,-0.46,-0.47
330.87,-1.44,-0.97,-1.44,-0.96,1.00,1.03,0.22,-0.44,-0.44,-0.48
334.18,-1.44,-0.96,-1.47,-0.98,1.03,1.09,0.25,-0.41,-0.44,-0.49
337.52,-1.52,-1.02,-1.53,-1.03,1.05,1.13,0.28,-0.47,-0.48,-0.50
340.90,-1.61,-1.11,-1.59,-1.09,1.07,1.18,0.31,-0.55,-0.53,-0.50
344.30,-1.65,-1.14,-1.64,-1.13,1.08,1.22,0.34,-0.58,-0.57,-0.51
347.75,-1.65,-1.12,-1.66,-1.13,1.09,1.25,0.37,-0.56,-0.57,-0.53
351.23,-1.64,-1.10,-1.65,-1.11,1.10,1.27,0.40,-0.54,-0.55,-0.55
354.74,-1.64,-1.09,-1.64,-1.08,1.11,1.28,0.43,-0.54,-0.53,-0.56
358.28,-1.64,-1.08,-1.65,-1.08,1.11,1.29,0.46,-0.54,-0.54,-0.57
361.87,-1.65,-1.08,-1.67,-1.09,1.10,1.29,0.49,-0.56,-0.57,-0.58
365.49,-1.71,-1.11,-1.70,-1.10,1.09,1.28,0.53,-0.62,-0.60,-0.60
369.14,-1.72,-1.11,-1.71,-1.10,1.09,1.26,0.56,-0.63,-0.62,-0.61
372.83,-1.71,-1.09,-1.72,-1.09,1.10,1.24,0.59,-0.61,-0.62,-0.62
376.56,-1.70,-1.07,-1.72,-1.08,1.10,1.21,0.63,-0.60,-0.61,-0.63
380.33,-1.72,-1.08,-1.73,-1.09,1.10,1.17,0.66,-0.62,-0.63,-0.64
384.13,-1.77,-1.12,-1.76,-1.11,1.09,1.13,0.69,-0.68,-0.67,-0.66
387.97,-1.78,-1.12,-1.78,-1.12,1.08,1.09,0.73,-0.70,-0.70,-0.67
391.85,-1.78,-1.11,-1.77,-1.09,1.06,1.04,0.76,-0.72,-0.71,-0.68
395.77,-1.73,-1.05,-1.74,-1.05,1.05,1.00,0.79,-0.69,-0.69,-0.69
399.73,-1.69,-1.00,-1.71,-1.01,1.02,0.95,0.83,-0.67,-0.68,-0.70
403.72,-1.68,-0.98,-1.69,-0.98,1.00,0.90,0.86,-0.68,-0.69,-0.71
407.76,-1.69,-0.96,-1.69,-0.96,0.98,0.85,0.90,-0.71,-0.71,-0.73
411.84,-1.69,-0.95,-1.69,-0.95,0.96,0.81,0.93,-0.74,-0.74,-0.74
415.96,-1.69,-0.94,-1.70,-0.95,0.94,0.76,0.96,-0.75,-0.75,-0.75
420.12,-1.69,-0.94,-1.69,-0.94,0.93,0.72,0.99,-0.76,-0.76,-0.75
424.32,-1.68,-0.92,-1.69,-0.93,0.93,0.68,1.03,-0.76,-0.76,-0.76
428.56,-1.67,-0.91,-1.68,-0.92,0.92,0.64,1.06,-0.75,-0.75,-0.76
432.85,-1.66,-0.91,-1.66,-0.91,0.91,0.60,1.09,-0.75,-0.75,-0.75
437.18,-1.63,-0.89,-1.64,-0.89,0.89,0.57,1.12,-0.74,-0.74,-0.74
441.55,-1.60,-0.88,-1.61,-0.88,0.86,0.53,1.14,-0.74,-0.75,-0.72
445.96,-1.55,-0.85,-1.55,-0.85,0.82,0.50,1.17,-0.73,-0.73,-0.70
450.42,-1.50,-0.83,-1.48,-0.81,0.78,0.48,1.19,-0.72,-0.70,-0.68
454.93,-1.36,-0.73,-1.38,-0.74,0.74,0.45,1.21,-0.63,-0.65,-0.64
459.48,-1.28,-0.69,-1.27,-0.67,0.69,0.43,1.23,-0.60,-0.58,-0.60
464.07,-1.14,-0.58,-1.16,-0.60,0.64,0.40,1.25,-0.51,-0.52,-0.57
468.71,-1.07,-0.55,-1.08,-0.55,0.58,0.38,1.27,-0.49,-0.49,-0.53
473.40,-1.00,-0.52,-1.01,-0.52,0.53,0.37,1.28,-0.48,-0.48,-0.49
478.13,-0.95,-0.51,-0.95,-0.50,0.48,0.35,1.29,-0.48,-0.47,-0.45
482.91,-0.89,-0.48,-0.88,-0.46,0.43,0.34,1.30,-0.46,-0.45,-0.42
487.74,-0.78,-0.40,-0.79,-0.40,0.39,0.33,1.30,-0.40,-0.40,-0.39
492.62,-0.68,-0.32,-0.69,-0.33,0.34,0.32,1.30,-0.34,-0.35,-0.37
497.55,-0.61,-0.27,-0.63,-0.28,0.29,0.31,1.30,-0.32,-0.33,-0.35
502.52,-0.57,-0.24,-0.57,-0.23,0.24,0.31,1.30,-0.33,-0.33,-0.34
507.55,-0.55,-0.22,-0.53,-0.19,0.18,0.30,1.29,-0.37,-0.34,-0.34
512.62,-0.47,-0.12,-0.49,-0.14,0.12,0.30,1.28,-0.35,-0.36,-0.35
