frequency,raw,error,smoothed,error_smoothed,equalization,parametric_eq,fixed_band_eq,equalized_raw,equalized_smoothed,target
20.00,6.48,-2.20,6.48,-2.20,2.19,2.58,0.21,8.67,8.67,8.68
20.20,6.53,-2.15,6.53,-2.15,2.15,2.52,0.22,8.68,8.68,8.68
20.40,6.58,-2.11,6.59,-2.10,2.10,2.46,0.23,8.69,8.69,8.69
20.61,6.63,-2.06,6.63,-2.05,2.06,2.39,0.24,8.69,8.69,8.69
20.81,6.68,-2.00,6.68,-2.01,2.01,2.31,0.25,8.70,8.70,8.69
21.02,6.73,-1.95,6.73,-1.96,1.97,2.23,0.26,8.70,8.70,8.69
21.23,6.77,-1.92,6.78,-1.92,1.92,2.15,0.27,8.70,8.70,8.70
21.44,6.82,-1.88,6.82,-1.88,1.88,2.06,0.28,8.70,8.70,8.71
21.66,6.87,-1.83,6.87,-1.84,1.83,1.98,0.29,8.70,8.70,8.71
21.87,6.92,-1.79,6.92,-1.79,1.78,1.89,0.30,8.71,8.71,8.72
22.09,6.97,-1.73,6.97,-1.74,1.74,1.81,0.31,8.71,8.71,8.71
22.31,7.02,-1.69,7.02,-1.69,1.69,1.73,0.32,8.71,8.71,8.72
22.54,7.07,-1.63,7.07,-1.64,1.64,1.65,0.34,8.71,8.71,8.71
22.76,7.12,-1.59,7.12,-1.59,1.59,1.57,0.35,8.71,8.71,8.71
22.99,7.17,-1.54,7.17,-1.54,1.53,1.49,0.36,8.71,8.71,8.71
23.22,7.22,-1.48,7.22,-1.48,1.48,1.42,0.38,8.71,8.71,8.70
23.45,7.27,-1.43,7.27,-1.43,1.44,1.35,0.39,8.71,8.71,8.70
23.69,7.32,-1.38,7.32,-1.38,1.39,1.28,0.40,8.71,8.71,8.70
23.92,7.36,-1.34,7.37,-1.34,1.34,1.21,0.42,8.70,8.71,8.70
24.16,7.41,-1.29,7.41,-1.29,1.29,1.15,0.43,8.71,8.71,8.70
24.40,7.45,-1.26,7.46,-1.25,1.25,1.09,0.45,8.70,8.70,8.71
24.65,7.50,-1.21,7.50,-1.21,1.20,1.04,0.46,8.70,8.70,8.71
24.89,7.54,-1.16,7.55,-1.16,1.15,0.98,0.48,8.70,8.70,8.71
25.14,7.59,-1.10,7.59,-1.11,1.11,0.93,0.49,8.70,8.70,8.70
25.39,7.64,-1.05,7.64,-1.06,1.06,0.88,0.51,8.71,8.70,8.70
25.65,7.68,-1.01,7.69,-1.01,1.01,0.83,0.52,8.70,8.70,8.70
25.91,7.73,-0.96,7.73,-0.97,0.96,0.79,0.54,8.70,8.70,8.70
26.16,7.78,-0.92,7.78,-0.92,0.92,0.75,0.55,8.70,8.70,8.70
26.43,7.82,-0.88,7.83,-0.87,0.87,0.70,0.56,8.69,8.70,8.70
26.69,7.87,-0.82,7.87,-0.82,0.83,0.67,0.58,8.70,8.70,8.69
26.96,7.91,-0.78,7.92,-0.78,0.78,0.63,0.59,8.69,8.70,8.69
27.23,7.96,-0.73,7.96,-0.73,0.74,0.59,0.61,8.70,8.70,8.69
27.50,7.99,-0.70,8.00,-0.70,0.70,0.56,0.62,8.69,8.69,8.69
27.77,8.03,-0.66,8.04,-0.66,0.65,0.53,0.63,8.69,8.69,8.70
28.05,8.08,-0.61,8.08,-0.62,0.61,0.49,0.64,8.70,8.69,8.70
28.33,8.11,-0.57,8.12,-0.57,0.57,0.46,0.65,8.69,8.69,8.69
28.62,8.15,-0.53,8.16,-0.53,0.53,0.43,0.66,8.69,8.69,8.68
28.90,8.19,-0.50,8.19,-0.50,0.49,0.41,0.67,8.69,8.69,8.69
29.19,8.23,-0.46,8.23,-0.46,0.46,0.38,0.67,8.69,8.69,8.69
29.48,8.26,-0.42,8.27,-0.42,0.42,0.35,0.68,8.68,8.69,8.68
29.78,8.30,-0.38,8.30,-0.38,0.38,0.33,0.68,8.69,8.68,8.68
30.08,8.33,-0.35,8.33,-0.35,0.35,0.30,0.68,8.68,8.68,8.69
30.38,8.36,-0.31,8.37,-0.32,0.32,0.28,0.68,8.68,8.68,8.68
30.68,8.39,-0.29,8.39,-0.29,0.29,0.26,0.68,8.68,8.68,8.68
30.99,8.42,-0.26,8.42,-0.26,0.26,0.23,0.68,8.68,8.68,8.68
31.30,8.44,-0.24,8.45,-0.24,0.23,0.21,0.68,8.68,8.68,8.68
31.61,8.47,-0.21,8.47,-0.21,0.21,0.19,0.67,8.68,8.68,8.69
31.93,8.50,-0.17,8.50,-0.18,0.18,0.17,0.66,8.68,8.68,8.68
32.24,8.52,-0.16,8.53,-0.15,0.15,0.15,0.65,8.68,8.68,8.68
32.57,8.55,-0.13,8.55,-0.13,0.13,0.13,0.64,8.68,8.68,8.68
32.89,8.58,-0.10,8.58,-0.10,0.10,0.11,0.63,8.68,8.68,8.68
33.22,8.60,-0.07,8.61,-0.07,0.07,0.09,0.62,8.68,8.68,8.68
33.55,8.62,-0.05,8.62,-0.05,0.05,0.07,0.60,8.67,8.67,8.67
33.89,8.64,-0.03,8.64,-0.03,0.03,0.05,0.58,8.67,8.67,8.67
34.23,8.65,-0.01,8.66,-0.00,0.00,0.03,0.57,8.66,8.66,8.66
34.57,8.67,0.03,8.67,0.02,-0.01,0.01,0.55,8.66,8.65,8.65
34.92,8.67,0.04,8.67,0.04,-0.03,-0.00,0.52,8.64,8.64,8.63
35.27,8.67,0.04,8.68,0.05,-0.05,-0.02,0.50,8.62,8.63,8.63
35.62,8.67,0.08,8.67,0.07,-0.07,-0.04,0.48,8.61,8.60,8.60
35.97,8.66,0.08,8.67,0.08,-0.09,-0.06,0.45,8.58,8.58,8.58
36.33,8.66,0.10,8.66,0.10,-0.11,-0.08,0.43,8.56,8.56,8.56
36.70,8.66,0.13,8.66,0.12,-0.13,-0.10,0.40,8.53,8.53,8.54
37.06,8.66,0.15,8.67,0.16,-0.16,-0.12,0.37,8.51,8.51,8.51
37.43,8.67,0.18,8.68,0.18,-0.19,-0.14,0.35,8.49,8.49,8.49
37.81,8.69,0.23,8.69,0.22,-0.22,-0.15,0.32,8.48,8.47,8.47
38.19,8.69,0.24,8.70,0.25,-0.25,-0.17,0.29,8.44,8.45,8.45
38.57,8.71,0.29,8.71,0.29,-0.29,-0.19,0.26,8.43,8.43,8.43
38.95,8.72,0.32,8.73,0.32,-0.32,-0.21,0.23,8.40,8.40,8.40
39.34,8.74,0.37,8.74,0.36,-0.36,-0.23,0.20,8.39,8.39,8.38
39.74,8.75,0.40,8.75,0.39,-0.39,-0.25,0.17,8.36,8.36,8.35
40.14,8.76,0.42,8.76,0.42,-0.42,-0.27,0.14,8.34,8.34,8.34
40.54,8.76,0.44,8.77,0.45,-0.46,-0.29,0.11,8.31,8.32,8.32
40.94,8.78,0.49,8.78,0.48,-0.49,-0.31,0.07,8.30,8.29,8.30
41.35,8.79,0.51,8.79,0.51,-0.52,-0.33,0.04,8.28,8.28,8.28
41.76,8.80,0.55,8.80,0.55,-0.55,-0.36,0.01,8.26,8.26,8.26
42.18,8.81,0.57,8.81,0.57,-0.57,-0.38,-0.02,8.24,8.24,8.24
42.60,8.81,0.60,8.82,0.60,-0.60,-0.40,-0.06,8.22,8.22,8.21
43.03,8.82,0.63,8.82,0.62,-0.62,-0.42,-0.09,8.20,8.20,8.20
43.46,8.81,0.64,8.82,0.64,-0.64,-0.44,-0.12,8.17,8.18,8.17
43.90,8.81,0.66,8.81,0.66,-0.65,-0.47,-0.15,8.16,8.16,8.15
44.33,8.79,0.67,8.80,0.67,-0.66,-0.49,-0.19,8.13,8.13,8.13
44.78,8.78,0.68,8.78,0.67,-0.67,-0.51,-0.22,8.11,8.11,8.11
45.23,8.76,0.66,8.76,0.67,-0.68,-0.53,-0.26,8.09,8.09,8.10
45.68,8.74,0.68,8.74,0.68,-0.68,-0.56,-0.29,8.06,8.06,8.06
46.13,8.72,0.69,8.72,0.68,-0.68,-0.58,-0.32,8.04,8.04,8.03
46.60,8.69,0.69,8.70,0.69,-0.69,-0.60,-0.36,8.01,8.01,8.01
47.06,8.67,0.69,8.67,0.69,-0.69,-0.62,-0.39,7.98,7.98,7.99
47.53,8.64,0.69,8.64,0.69,-0.69,-0.64,-0.43,7.95,7.95,7.96
48.01,8.61,0.71,8.61,0.70,-0.70,-0.67,-0.46,7.91,7.91,7.91
48.49,8.57,0.70,8.58,0.70,-0.70,-0.69,-0.50,7.87,7.87,7.88
48.97,8.54,0.71,8.55,0.71,-0.71,-0.71,-0.53,7.83,7.84,7.84
49.46,8.51,0.71,8.51,0.72,-0.71,-0.73,-0.56,7.80,7.80,7.80
49.96,8.48,0.74,8.48,0.72,-0.72,-0.75,-0.60,7.77,7.76,7.74
50.46,8.43,0.72,8.44,0.73,-0.72,-0.76,-0.63,7.71,7.72,7.71
50.96,8.40,0.72,8.40,0.73,-0.73,-0.78,-0.67,7.67,7.68,7.68
51.47,8.37,0.73,8.37,0.73,-0.73,-0.79,-0.70,7.64,7.64,7.65
51.99,8.34,0.74,8.34,0.74,-0.74,-0.81,-0.73,7.60,7.60,7.60
52.51,8.31,0.74,8.31,0.74,-0.74,-0.82,-0.77,7.57,7.57,7.57
53.03,8.28,0.75,8.28,0.75,-0.75,-0.83,-0.80,7.53,7.53,7.54
53.56,8.24,0.75,8.25,0.75,-0.75,-0.84,-0.83,7.49,7.49,7.49
54.10,8.21,0.77,8.21,0.76,-0.76,-0.85,-0.86,7.46,7.46,7.45
54.64,8.17,0.76,8.17,0.76,-0.76,-0.85,-0.89,7.42,7.42,7.41
55.18,8.14,0.77,8.14,0.77,-0.76,-0.86,-0.92,7.38,7.38,7.37
55.74,8.09,0.76,8.10,0.76,-0.76,-0.86,-0.94,7.33,7.34,7.34
56.29,8.07,0.76,8.07,0.76,-0.77,-0.86,-0.97,7.31,7.31,7.31
56.86,8.04,0.75,8.04,0.76,-0.77,-0.86,-1.00,7.28,7.28,7.29
57.42,8.02,0.78,8.03,0.77,-0.77,-0.86,-1.02,7.25,7.25,7.25
58.00,8.00,0.79,8.00,0.78,-0.78,-0.86,-1.04,7.23,7.22,7.22
58.58,7.98,0.79,7.98,0.79,-0.79,-0.86,-1.06,7.20,7.20,7.20
59.16,7.95,0.79,7.96,0.79,-0.80,-0.85,-1.08,7.16,7.16,7.17
59.76,7.93,0.80,7.93,0.80,-0.81,-0.85,-1.10,7.13,7.13,7.14
60.35,7.90,0.82,7.90,0.82,-0.82,-0.84,-1.11,7.09,7.09,7.08
60.96,7.87,0.83,7.87,0.83,-0.83,-0.83,-1.12,7.05,7.04,7.04
61.57,7.82,0.85,7.82,0.84,-0.84,-0.82,-1.13,6.99,6.99,6.98
62.18,7.77,0.85,7.78,0.85,-0.85,-0.81,-1.14,6.93,6.93,6.93
62.80,7.73,0.85,7.74,0.86,-0.86,-0.81,-1.15,6.88,6.88,6.88
63.43,7.70,0.87,7.70,0.86,-0.87,-0.80,-1.15,6.84,6.84,6.84
64.07,7.67,0.87,7.67,0.87,-0.87,-0.79,-1.15,6.80,6.80,6.80
64.71,7.64,0.88,7.64,0.88,-0.88,-0.78,-1.15,6.76,6.76,6.76
65.35,7.60,0.89,7.61,0.89,-0.89,-0.77,-1.15,6.71,6.72,6.72
66.01,7.58,0.91,7.58,0.90,-0.90,-0.76,-1.14,6.68,6.68,6.68
66.67,7.55,0.90,7.55,0.91,-0.91,-0.75,-1.14,6.64,6.64,6.65
67.33,7.51,0.91,7.52,0.92,-0.92,-0.74,-1.13,6.59,6.60,6.60
68.01,7.49,0.94,7.49,0.93,-0.93,-0.73,-1.12,6.57,6.56,6.56
68.69,7.46,0.95,7.46,0.94,-0.93,-0.73,-1.11,6.53,6.53,6.52
69.37,7.42,0.94,7.43,0.94,-0.94,-0.72,-1.10,6.48,6.49,6.49
70.07,7.39,0.94,7.39,0.94,-0.95,-0.71,-1.08,6.45,6.45,6.45
70.77,7.35,0.95,7.36,0.95,-0.95,-0.70,-1.07,6.40,6.40,6.41
71.48,7.32,0.96,7.32,0.95,-0.96,-0.70,-1.05,6.37,6.36,6.36
72.19,7.27,0.96,7.28,0.96,-0.96,-0.69,-1.03,6.31,6.32,6.32
72.91,7.24,0.97,7.24,0.97,-0.97,-0.69,-1.02,6.28,6.27,6.27
73.64,7.20,0.98,7.20,0.97,-0.97,-0.68,-1.00,6.23,6.23,6.22
74.38,7.15,0.97,7.16,0.97,-0.97,-0.68,-0.98,6.18,6.19,6.19
75.12,7.12,0.98,7.12,0.97,-0.97,-0.67,-0.96,6.15,6.15,6.15
75.87,7.08,0.97,7.09,0.97,-0.97,-0.67,-0.94,6.11,6.11,6.12
76.63,7.05,0.98,7.05,0.97,-0.97,-0.67,-0.92,6.08,6.08,6.08
77.40,7.02,0.97,7.02,0.97,-0.97,-0.66,-0.90,6.06,6.05,6.06
78.17,6.98,0.97,6.99,0.97,-0.96,-0.66,-0.88,6.02,6.02,6.01
78.95,6.94,0.95,6.95,0.96,-0.96,-0.66,-0.86,5.99,5.99,5.99
79.74,6.91,0.95,6.91,0.95,-0.95,-0.66,-0.84,5.96,5.96,5.97
80.54,6.86,0.93,6.87,0.94,-0.94,-0.66,-0.82,5.92,5.93,5.93
81.35,6.83,0.94,6.83,0.93,-0.93,-0.66,-0.80,5.90,5.90,5.89
82.16,6.79,0.92,6.79,0.92,-0.93,-0.66,-0.78,5.87,5.87,5.88
82.98,6.75,0.91,6.76,0.92,-0.92,-0.66,-0.77,5.84,5.84,5.84
83.81,6.72,0.91,6.72,0.91,-0.91,-0.66,-0.75,5.82,5.81,5.81
84.65,6.67,0.90,6.68,0.90,-0.89,-0.66,-0.73,5.78,5.78,5.77
85.50,6.62,0.88,6.63,0.88,-0.88,-0.66,-0.71,5.75,5.75,5.74
86.35,6.58,0.87,6.58,0.86,-0.86,-0.66,-0.69,5.73,5.72,5.71
87.22,6.52,0.83,6.52,0.84,-0.83,-0.67,-0.68,5.69,5.69,5.69
88.09,6.46,0.81,6.46,0.81,-0.81,-0.67,-0.66,5.66,5.66,5.65
88.97,6.39,0.76,6.40,0.77,-0.77,-0.67,-0.65,5.62,5.62,5.63
89.86,6.33,0.75,6.33,0.74,-0.74,-0.68,-0.63,5.59,5.59,5.59
90.76,6.26,0.70,6.26,0.70,-0.70,-0.68,-0.62,5.56,5.56,5.56
91.66,6.19,0.67,6.19,0.67,-0.67,-0.69,-0.60,5.53,5.53,5.52
92.58,6.12,0.63,6.12,0.63,-0.63,-0.69,-0.59,5.49,5.49,5.50
93.51,6.05,0.59,6.05,0.59,-0.59,-0.70,-0.57,5.46,5.46,5.46
94.44,5.98,0.55,5.98,0.56,-0.56,-0.70,-0.56,5.42,5.42,5.44
95.39,5.91,0.52,5.92,0.53,-0.53,-0.71,-0.55,5.38,5.39,5.39
96.34,5.85,0.51,5.85,0.50,-0.50,-0.72,-0.54,5.35,5.35,5.34
97.30,5.78,0.48,5.78,0.48,-0.48,-0.72,-0.53,5.30,5.30,5.31
98.28,5.72,0.46,5.72,0.46,-0.46,-0.73,-0.51,5.26,5.26,5.26
99.26,5.65,0.44,5.66,0.45,-0.45,-0.74,-0.50,5.20,5.21,5.21
100.25,5.62,0.45,5.62,0.44,-0.44,-0.74,-0.49,5.18,5.18,5.18
101.25,5.57,0.43,5.58,0.43,-0.44,-0.75,-0.49,5.14,5.14,5.15
102.27,5.54,0.43,5.54,0.43,-0.43,-0.76,-0.48,5.11,5.11,5.11
103.29,5.50,0.43,5.50,0.43,-0.43,-0.77,-0.47,5.07,5.07,5.07
104.32,5.47,0.44,5.47,0.44,-0.43,-0.78,-0.46,5.04,5.04,5.03
105.37,5.43,0.44,5.44,0.44,-0.43,-0.79,-0.46,5.00,5.00,5.00
106.42,5.40,0.44,5.40,0.44,-0.44,-0.80,-0.45,4.97,4.97,4.97
107.48,5.36,0.44,5.37,0.44,-0.44,-0.81,-0.45,4.93,4.93,4.92
108.56,5.33,0.44,5.33,0.44,-0.44,-0.82,-0.44,4.89,4.89,4.89
109.64,5.30,0.45,5.30,0.44,-0.45,-0.83,-0.44,4.86,4.85,4.86
110.74,5.26,0.45,5.27,0.45,-0.46,-0.84,-0.43,4.81,4.82,4.82
111.85,5.24,0.46,5.24,0.46,-0.47,-0.85,-0.43,4.78,4.78,4.78
112.97,5.21,0.48,5.21,0.47,-0.48,-0.86,-0.43,4.74,4.73,4.73
114.10,5.18,0.49,5.18,0.49,-0.49,-0.87,-0.43,4.69,4.69,4.70
115.24,5.14,0.50,5.15,0.51,-0.51,-0.88,-0.43,4.64,4.64,4.64
116.39,5.11,0.53,5.11,0.52,-0.52,-0.90,-0.44,4.59,4.59,4.59
117.55,5.07,0.54,5.07,0.54,-0.54,-0.91,-0.44,4.54,4.54,4.53
118.73,5.03,0.56,5.03,0.56,-0.55,-0.92,-0.44,4.48,4.48,4.47
119.92,4.99,0.57,4.99,0.57,-0.57,-0.93,-0.45,4.42,4.42,4.42
121.12,4.95,0.58,4.95,0.58,-0.59,-0.95,-0.46,4.37,4.37,4.38
122.33,4.91,0.60,4.91,0.60,-0.60,-0.96,-0.46,4.31,4.31,4.31
123.55,4.87,0.61,4.87,0.62,-0.62,-0.98,-0.47,4.25,4.25,4.26
124.79,4.83,0.64,4.83,0.63,-0.64,-0.99,-0.48,4.20,4.19,4.20
126.03,4.78,0.65,4.79,0.65,-0.65,-1.00,-0.50,4.13,4.13,4.14
127.29,4.74,0.67,4.74,0.67,-0.67,-1.02,-0.51,4.07,4.07,4.07
128.57,4.70,0.69,4.70,0.69,-0.69,-1.04,-0.52,4.02,4.02,4.01
129.85,4.66,0.71,4.66,0.71,-0.70,-1.05,-0.54,3.96,3.96,3.95
131.15,4.62,0.73,4.62,0.72,-0.72,-1.07,-0.55,3.91,3.90,3.90
132.46,4.57,0.73,4.58,0.73,-0.73,-1.08,-0.57,3.85,3.85,3.85
133.79,4.53,0.73,4.54,0.74,-0.74,-1.10,-0.59,3.80,3.80,3.80
135.12,4.50,0.75,4.50,0.74,-0.74,-1.12,-0.61,3.76,3.75,3.75
136.48,4.46,0.74,4.47,0.75,-0.75,-1.13,-0.63,3.71,3.71,3.73
137.84,4.43,0.75,4.43,0.75,-0.76,-1.15,-0.66,3.67,3.67,3.68
139.22,4.41,0.78,4.41,0.76,-0.77,-1.17,-0.68,3.64,3.64,3.64
140.61,4.38,0.77,4.39,0.78,-0.78,-1.19,-0.71,3.60,3.61,3.61
142.02,4.38,0.80,4.38,0.80,-0.79,-1.20,-0.73,3.59,3.59,3.58
143.44,4.36,0.81,4.36,0.81,-0.80,-1.22,-0.76,3.56,3.56,3.55
144.87,4.34,0.82,4.34,0.82,-0.81,-1.24,-0.79,3.54,3.54,3.53
146.32,4.31,0.82,4.32,0.82,-0.82,-1.26,-0.82,3.50,3.50,3.50
147.78,4.29,0.82,4.29,0.82,-0.82,-1.28,-0.85,3.47,3.46,3.47
149.26,4.26,0.82,4.27,0.83,-0.83,-1.30,-0.88,3.43,3.43,3.44
150.75,4.24,0.84,4.25,0.84,-0.84,-1.32,-0.91,3.40,3.40,3.40
152.26,4.24,0.86,4.24,0.85,-0.86,-1.34,-0.95,3.38,3.38,3.39
153.78,4.22,0.87,4.23,0.87,-0.88,-1.36,-0.98,3.35,3.35,3.35
155.32,4.22,0.90,4.22,0.90,-0.90,-1.38,-1.02,3.32,3.32,3.33
156.88,4.21,0.92,4.22,0.93,-0.93,-1.41,-1.05,3.29,3.29,3.29
158.44,4.21,0.97,4.21,0.96,-0.96,-1.43,-1.09,3.25,3.25,3.25
160.03,4.21,1.00,4.21,0.99,-0.99,-1.45,-1.13,3.22,3.22,3.22
161.63,4.20,1.02,4.21,1.03,-1.03,-1.47,-1.17,3.18,3.18,3.18
163.24,4.20,1.06,4.21,1.07,-1.06,-1.50,-1.21,3.14,3.15,3.14
164.88,4.21,1.11,4.21,1.10,-1.10,-1.52,-1.26,3.11,3.11,3.10
166.53,4.21,1.15,4.21,1.14,-1.14,-1.54,-1.30,3.08,3.07,3.06
168.19,4.20,1.17,4.21,1.18,-1.17,-1.57,-1.34,3.03,3.04,3.04
169.87,4.21,1.22,4.21,1.21,-1.21,-1.59,-1.39,3.00,3.00,3.00
171.57,4.22,1.25,4.22,1.25,-1.26,-1.62,-1.44,2.97,2.97,2.97
173.29,4.23,1.30,4.23,1.30,-1.30,-1.64,-1.48,2.93,2.93,2.94
175.02,4.24,1.34,4.24,1.34,-1.35,-1.67,-1.53,2.89,2.90,2.90
176.77,4.26,1.40,4.26,1.40,-1.40,-1.69,-1.58,2.86,2.86,2.87
178.54,4.28,1.44,4.29,1.45,-1.46,-1.72,-1.64,2.83,2.83,2.84
180.32,4.32,1.53,4.32,1.51,-1.52,-1.75,-1.69,2.81,2.80,2.80
182.13,4.34,1.58,4.35,1.58,-1.58,-1.77,-1.74,2.77,2.77,2.77
183.95,4.37,1.64,4.38,1.65,-1.64,-1.80,-1.80,2.74,2.74,2.73
185.79,4.41,1.71,4.41,1.71,-1.70,-1.83,-1.85,2.71,2.71,2.70
187.65,4.44,1.77,4.44,1.77,-1.76,-1.86,-1.91,2.68,2.68,2.67
189.52,4.45,1.82,4.46,1.82,-1.82,-1.88,-1.97,2.63,2.64,2.63
191.42,4.48,1.87,4.48,1.88,-1.88,-1.91,-2.03,2.60,2.60,2.61
193.33,4.51,1.94,4.51,1.94,-1.94,-1.94,-2.09,2.57,2.57,2.58
195.27,4.53,2.00,4.54,2.00,-2.00,-1.97,-2.15,2.54,2.54,2.54
197.22,4.56,2.06,4.56,2.06,-2.05,-2.00,-2.21,2.51,2.51,2.50
199.19,4.58,2.11,4.59,2.11,-2.11,-2.03,-2.27,2.47,2.48,2.47
201.18,4.61,2.17,4.62,2.17,-2.17,-2.07,-2.34,2.44,2.45,2.45
203.19,4.65,2.23,4.65,2.22,-2.23,-2.10,-2.40,2.43,2.42,2.42
205.23,4.67,2.28,4.68,2.28,-2.29,-2.13,-2.47,2.39,2.39,2.40
207.28,4.71,2.34,4.71,2.34,-2.35,-2.16,-2.53,2.37,2.37,2.37
209.35,4.74,2.41,4.74,2.40,-2.41,-2.20,-2.59,2.34,2.34,2.34
211.44,4.78,2.47,4.78,2.47,-2.47,-2.23,-2.66,2.32,2.31,2.31
213.56,4.81,2.52,4.82,2.53,-2.53,-2.26,-2.72,2.29,2.29,2.29
215.69,4.85,2.59,4.85,2.59,-2.59,-2.30,-2.79,2.27,2.27,2.27
217.85,4.89,2.65,4.89,2.65,-2.65,-2.33,-2.85,2.25,2.24,2.25
220.03,4.92,2.71,4.93,2.71,-2.71,-2.37,-2.91,2.22,2.22,2.21
222.23,4.96,2.77,4.96,2.77,-2.76,-2.40,-2.97,2.20,2.20,2.19
224.45,4.99,2.82,4.99,2.82,-2.82,-2.44,-3.03,2.17,2.17,2.17
226.70,5.02,2.87,5.03,2.88,-2.88,-2.48,-3.09,2.15,2.15,2.15
228.96,5.06,2.92,5.06,2.93,-2.93,-2.51,-3.15,2.13,2.13,2.14
231.25,5.10,2.98,5.10,2.98,-2.99,-2.55,-3.20,2.12,2.11,2.12
233.57,5.13,3.03,5.14,3.04,-3.04,-2.59,-3.25,2.09,2.10,2.10
235.90,5.17,3.10,5.17,3.10,-3.10,-2.63,-3.30,2.08,2.08,2.07
238.26,5.21,3.16,5.21,3.15,-3.15,-2.67,-3.35,2.06,2.06,2.05
240.64,5.24,3.19,5.25,3.20,-3.20,-2.71,-3.39,2.04,2.05,2.05
243.05,5.29,3.26,5.28,3.25,-3.25,-2.75,-3.43,2.04,2.03,2.04
245.48,5.31,3.30,5.32,3.30,-3.30,-2.79,-3.47,2.01,2.02,2.02
247.93,5.34,3.34,5.35,3.35,-3.34,-2.83,-3.50,2.00,2.01,2.00
250.41,5.38,3.39,5.38,3.39,-3.38,-2.87,-3.54,2.00,2.00,1.99
252.92,5.40,3.42,5.40,3.42,-3.42,-2.92,-3.56,1.99,1.99,1.98
255.45,5.42,3.46,5.43,3.45,-3.45,-2.96,-3.59,1.97,1.97,1.97
258.00,5.44,3.48,5.44,3.48,-3.48,-3.00,-3.61,1.96,1.96,1.96
260.58,5.46,3.51,5.46,3.51,-3.52,-3.05,-3.63,1.95,1.95,1.95
263.19,5.48,3.54,5.49,3.54,-3.55,-3.09,-3.65,1.93,1.94,1.94
265.82,5.51,3.58,5.51,3.58,-3.58,-3.14,-3.66,1.93,1.93,1.93
268.48,5.53,3.62,5.54,3.62,-3.62,-3.18,-3.68,1.91,1.92,1.92
271.16,5.56,3.65,5.56,3.65,-3.66,-3.23,-3.69,1.91,1.91,1.91
273.87,5.59,3.70,5.59,3.70,-3.70,-3.28,-3.70,1.90,1.89,1.90
276.61,5.62,3.74,5.62,3.74,-3.74,-3.33,-3.70,1.89,1.89,1.88
279.38,5.65,3.79,5.65,3.79,-3.78,-3.37,-3.71,1.88,1.88,1.87
282.17,5.68,3.82,5.68,3.82,-3.82,-3.42,-3.72,1.87,1.87,1.86
284.99,5.71,3.86,5.71,3.86,-3.86,-3.47,-3.72,1.86,1.86,1.86
287.84,5.74,3.88,5.74,3.89,-3.89,-3.52,-3.73,1.85,1.85,1.86
290.72,5.77,3.94,5.77,3.93,-3.93,-3.57,-3.73,1.85,1.84,1.84
293.63,5.80,3.97,5.80,3.96,-3.96,-3.62,-3.74,1.84,1.84,1.83
296.57,5.82,3.99,5.83,4.00,-3.99,-3.68,-3.74,1.83,1.83,1.83
299.53,5.85,4.03,5.85,4.03,-4.03,-3.73,-3.75,1.83,1.83,1.83
302.53,5.88,4.06,5.88,4.06,-4.06,-3.78,-3.76,1.82,1.82,1.82
305.55,5.91,4.09,5.91,4.09,-4.09,-3.83,-3.77,1.82,1.82,1.82
308.61,5.94,4.12,5.95,4.12,-4.13,-3.89,-3.78,1.82,1.82,1.83
311.69,5.98,4.16,5.98,4.16,-4.16,-3.94,-3.79,1.83,1.82,1.82
314.81,6.01,4.19,6.01,4.19,-4.19,-4.00,-3.81,1.82,1.82,1.82
317.96,6.04,4.23,6.05,4.23,-4.22,-4.05,-3.82,1.82,1.83,1.82
321.14,6.08,4.26,6.08,4.26,-4.26,-4.11,-3.84,1.83,1.82,1.82
324.35,6.11,4.29,6.11,4.29,-4.29,-4.16,-3.87,1.83,1.82,1.82
327.59,6.14,4.30,6.15,4.32,-4.32,-4.22,-3.89,1.82,1.83,1.84
330.87,6.18,4.36,6.18,4.35,-4.36,-4.28,-3.92,1.83,1.83,1.83
334.18,6.22,4.40,6.22,4.39,-4.39,-4.33,-3.95,1.83,1.83,1.82
337.52,6.26,4.43,6.26,4.43,-4.43,-4.39,-3.98,1.84,1.84,1.83
340.90,6.30,4.46,6.30,4.46,-4.47,-4.45,-4.02,1.84,1.84,1.84
344.30,6.34,4.51,6.34,4.51,-4.51,-4.51,-4.06,1.84,1.84,1.84
347.75,6.38,4.54,6.39,4.55,-4.55,-4.57,-4.10,1.83,1.84,1.85
351.23,6.44,4.61,6.44,4.59,-4.59,-4.62,-4.15,1.85,1.84,1.83
354.74,6.48,4.63,6.48,4.64,-4.64,-4.68,-4.20,1.84,1.84,1.85
358.28,6.52,4.68,6.53,4.69,-4.69,-4.74,-4.25,1.84,1.84,1.84
361.87,6.58,4.75,6.58,4.74,-4.74,-4.80,-4.31,1.84,1.84,1.84
365.49,6.63,4.79,6.63,4.79,-4.79,-4.85,-4.37,1.84,1.84,1.85
369.14,6.68,4.84,6.69,4.84,-4.84,-4.91,-4.43,1.84,1.84,1.84
372.83,6.74,4.90,6.74,4.90,-4.90,-4.97,-4.50,1.84,1.84,1.84
376.56,6.79,4.96,6.80,4.96,-4.95,-5.02,-4.57,1.84,1.84,1.83
380.33,6.85,5.01,6.85,5.01,-5.01,-5.08,-4.64,1.84,1.84,1.84
384.13,6.90,5.06,6.90,5.06,-5.06,-5.13,-4.71,1.84,1.84,1.84
387.97,6.96,5.12,6.96,5.12,-5.12,-5.19,-4.79,1.84,1.84,1.85
391.85,7.01,5.17,7.02,5.17,-5.18,-5.24,-4.87,1.84,1.84,1.85
395.77,7.08,5.24,7.08,5.23,-5.23,-5.29,-4.95,1.85,1.85,1.85
399.73,7.14,5.29,7.14,5.28,-5.29,-5.34,-5.03,1.86,1.85,1.85
403.72,7.19,5.33,7.20,5.34,-5.34,-5.39,-5.12,1.85,1.86,1.86
407.76,7.25,5.39,7.26,5.39,-5.39,-5.44,-5.21,1.86,1.86,1.86
411.84,7.31,5.45,7.31,5.44,-5.45,-5.48,-5.29,1.87,1.86,1.86
415.96,7.36,5.49,7.36,5.50,-5.50,-5.52,-5.38,1.87,1.87,1.87
420.12,7.40,5.54,7.41,5.54,-5.54,-5.56,-5.47,1.86,1.87,1.86
424.32,7.45,5.60,7.45,5.59,-5.59,-5.60,-5.56,1.87,1.87,1.86
428.56,7.49,5.62,7.50,5.63,-5.63,-5.64,-5.64,1.86,1.87,1.88
432.85,7.54,5.67,7.54,5.66,-5.67,-5.67,-5.72,1.88,1.87,1.88
437.18,7.56,5.70,7.57,5.70,-5.70,-5.70,-5.81,1.86,1.87,1.87
441.55,7.60,5.74,7.60,5.73,-5.73,-5.72,-5.88,1.87,1.87,1.86
445.96,7.62,5.76,7.62,5.76,-5.76,-5.74,-5.96,1.86,1.86,1.86
450.42,7.64,5.78,7.65,5.78,-5.78,-5.76,-6.02,1.86,1.87,1.86
454.93,7.66,5.80,7.66,5.80,-5.80,-5.77,-6.09,1.87,1.87,1.86
459.48,7.67,5.81,7.67,5.81,-5.80,-5.78,-6.14,1.87,1.87,1.86
464.07,7.67,5.80,7.68,5.81,-5.81,-5.78,-6.19,1.87,1.87,1.87
468.71,7.68,5.80,7.68,5.80,-5.81,-5.78,-6.23,1.88,1.87,1.88
473.40,7.67,5.79,7.67,5.79,-5.80,-5.77,-6.26,1.88,1.88,1.88
478.13,7.66,5.78,7.66,5.78,-5.78,-5.75,-6.28,1.88,1.88,1.88
482.91,7.64,5.76,7.64,5.77,-5.77,-5.73,-6.29,1.88,1.88,1.88
487.74,7.62,5.75,7.62,5.74,-5.74,-5.71,-6.29,1.88,1.88,1.88
492.62,7.58,5.71,7.59,5.71,-5.71,-5.68,-6.27,1.87,1.88,1.88
497.55,7.55,5.68,7.55,5.67,-5.67,-5.64,-6.25,1.88,1.88,1.88
502.52,7.51,5.64,7.51,5.63,-5.63,-5.59,-6.21,1.88,1.88,1.88
507.55,7.46,5.58,7.47,5.58,-5.58,-5.54,-6.16,1.88,1.89,1.89
512.62,7.41,5.53,7.41,5.52,-5.53,-5.48,-6.09,1.89,1.88,1.89
517.75,7.35,5.46,7.35,5.46,-5.47,-5.42,-6.02,1.89,1.89,1.90
522.93,7.28,5.39,7.29,5.40,-5.40,-5.35,-5.93,1.88,1.89,1.90
528.16,7.23,5.34,7.23,5.33,-5.33,-5.27,-5.83,1.91,1.90,1.89
533.44,7.15,5.25,7.16,5.26,-5.25,-5.19,-5.73,1.90,1.91,1.90
538.77,7.08,5.18,7.08,5.17,-5.17,-5.10,-5.61,1.92,1.91,1.90
544.16,6.99,5.08,7.00,5.08,-5.08,-5.00,-5.48,1.92,1.92,1.91
549.60,6.90,4.98,6.91,4.98,-4.98,-4.90,-5.35,1.92,1.92,1.92
555.10,6.82,4.89,6.82,4.89,-4.89,-4.79,-5.20,1.94,1.93,1.93
