frequency,raw,error,smoothed,error_smoothed,equalization,parametric_eq,fixed_band_eq,equalized_raw,equalized_smoothed,target
20.00,-6.24,-4.52,-6.25,-4.53,4.55,3.83,0.93,-1.69,-1.70,-1.72
20.20,-6.21,-4.49,-6.20,-4.48,4.48,3.80,0.96,-1.73,-1.72,-1.72
20.40,-6.15,-4.43,-6.15,-4.43,4.41,3.77,0.99,-1.74,-1.73,-1.72
20.61,-6.08,-4.36,-6.08,-4.36,4.35,3.73,1.02,-1.74,-1.74,-1.72
20.81,-6.00,-4.28,-6.00,-4.28,4.28,3.70,1.05,-1.72,-1.72,-1.72
21.02,-5.92,-4.20,-5.92,-4.20,4.21,3.66,1.09,-1.72,-1.72,-1.72
21.23,-5.84,-4.12,-5.85,-4.13,4.14,3.63,1.12,-1.71,-1.72,-1.72
21.44,-5.79,-4.07,-5.78,-4.06,4.06,3.59,1.15,-1.73,-1.72,-1.72
21.66,-5.71,-3.99,-5.71,-3.99,3.99,3.55,1.19,-1.72,-1.72,-1.72
21.87,-5.63,-3.91,-5.63,-3.91,3.91,3.52,1.23,-1.72,-1.72,-1.72
22.09,-5.55,-3.83,-5.56,-3.84,3.84,3.48,1.26,-1.71,-1.72,-1.72
22.31,-5.49,-3.77,-5.49,-3.77,3.77,3.44,1.30,-1.72,-1.72,-1.72
22.54,-5.42,-3.70,-5.42,-3.70,3.70,3.40,1.34,-1.72,-1.72,-1.72
22.76,-5.34,-3.62,-5.35,-3.63,3.62,3.36,1.39,-1.72,-1.72,-1.72
22.99,-5.27,-3.55,-5.27,-3.55,3.55,3.32,1.43,-1.72,-1.72,-1.72
23.22,-5.20,-3.48,-5.20,-3.48,3.48,3.28,1.47,-1.72,-1.72,-1.72
23.45,-5.13,-3.41,-5.13,-3.41,3.41,3.24,1.51,-1.72,-1.72,-1.72
23.69,-5.06,-3.34,-5.05,-3.34,3.34,3.20,1.56,-1.73,-1.72,-1.72
23.92,-4.98,-3.26,-4.98,-3.26,3.27,3.16,1.60,-1.71,-1.72,-1.72
24.16,-4.90,-3.18,-4.91,-3.19,3.20,3.12,1.65,-1.70,-1.71,-1.72
24.40,-4.86,-3.14,-4.84,-3.13,3.13,3.08,1.70,-1.73,-1.71,-1.72
24.65,-4.78,-3.06,-4.78,-3.07,3.07,3.04,1.74,-1.71,-1.72,-1.72
24.89,-4.72,-3.00,-4.73,-3.01,3.01,2.99,1.79,-1.71,-1.72,-1.72
25.14,-4.67,-2.95,-4.66,-2.94,2.94,2.95,1.84,-1.73,-1.72,-1.72
25.39,-4.61,-2.89,-4.60,-2.88,2.88,2.91,1.89,-1.73,-1.72,-1.72
25.65,-4.53,-2.81,-4.54,-2.82,2.82,2.86,1.93,-1.71,-1.72,-1.72
25.91,-4.48,-2.76,-4.48,-2.76,2.76,2.82,1.98,-1.72,-1.72,-1.72
26.16,-4.42,-2.70,-4.41,-2.69,2.70,2.77,2.03,-1.72,-1.72,-1.72
26.43,-4.34,-2.62,-4.35,-2.63,2.63,2.73,2.07,-1.71,-1.72,-1.72
26.69,-4.29,-2.57,-4.29,-2.57,2.57,2.68,2.12,-1.72,-1.72,-1.72
26.96,-4.22,-2.50,-4.22,-2.50,2.50,2.64,2.16,-1.72,-1.72,-1.72
27.23,-4.16,-2.44,-4.16,-2.44,2.44,2.59,2.20,-1.72,-1.72,-1.72
27.50,-4.10,-2.38,-4.10,-2.38,2.38,2.54,2.25,-1.72,-1.72,-1.72
27.77,-4.03,-2.31,-4.03,-2.32,2.31,2.49,2.28,-1.72,-1.72,-1.72
28.05,-3.97,-2.25,-3.97,-2.25,2.25,2.45,2.32,-1.72,-1.72,-1.72
28.33,-3.91,-2.19,-3.90,-2.19,2.19,2.40,2.35,-1.72,-1.72,-1.72
28.62,-3.84,-2.12,-3.85,-2.13,2.13,2.35,2.38,-1.71,-1.72,-1.72
28.90,-3.78,-2.06,-3.79,-2.07,2.07,2.30,2.41,-1.71,-1.72,-1.72
29.19,-3.74,-2.02,-3.73,-2.01,2.01,2.25,2.43,-1.73,-1.72,-1.72
29.48,-3.67,-1.95,-3.67,-1.95,1.95,2.20,2.45,-1.72,-1.72,-1.72
29.78,-3.60,-1.88,-3.61,-1.89,1.89,2.15,2.47,-1.71,-1.72,-1.72
30.08,-3.55,-1.83,-3.55,-1.84,1.84,2.10,2.48,-1.71,-1.72,-1.72
30.38,-3.51,-1.79,-3.50,-1.78,1.78,2.05,2.48,-1.73,-1.72,-1.72
30.68,-3.45,-1.73,-3.45,-1.73,1.73,2.00,2.48,-1.73,-1.73,-1.72
30.99,-3.39,-1.67,-3.39,-1.67,1.67,1.95,2.48,-1.72,-1.72,-1.72
31.30,-3.33,-1.61,-3.33,-1.61,1.62,1.90,2.47,-1.71,-1.71,-1.72
31.61,-3.27,-1.55,-3.28,-1.56,1.56,1.84,2.46,-1.71,-1.71,-1.72
31.93,-3.23,-1.51,-3.23,-1.51,1.51,1.79,2.44,-1.72,-1.72,-1.72
32.24,-3.18,-1.46,-3.18,-1.46,1.46,1.74,2.42,-1.72,-1.72,-1.72
32.57,-3.13,-1.41,-3.13,-1.41,1.41,1.69,2.39,-1.72,-1.72,-1.72
32.89,-3.08,-1.36,-3.08,-1.36,1.36,1.63,2.36,-1.72,-1.72,-1.72
33.22,-3.02,-1.30,-3.03,-1.31,1.31,1.58,2.32,-1.71,-1.72,-1.72
33.55,-2.99,-1.27,-2.98,-1.26,1.26,1.53,2.28,-1.73,-1.72,-1.72
33.89,-2.92,-1.20,-2.93,-1.21,1.21,1.47,2.24,-1.71,-1.72,-1.72
34.23,-2.88,-1.16,-2.88,-1.16,1.16,1.42,2.19,-1.72,-1.72,-1.72
34.57,-2.83,-1.11,-2.83,-1.11,1.11,1.36,2.14,-1.72,-1.72,-1.72
34.92,-2.78,-1.06,-2.79,-1.07,1.06,1.31,2.08,-1.72,-1.72,-1.72
35.27,-2.74,-1.02,-2.74,-1.02,1.02,1.25,2.03,-1.73,-1.72,-1.72
35.62,-2.69,-0.97,-2.69,-0.97,0.97,1.20,1.97,-1.72,-1.72,-1.72
35.97,-2.63,-0.91,-2.64,-0.92,0.92,1.14,1.90,-1.71,-1.72,-1.72
36.33,-2.58,-0.86,-2.59,-0.87,0.87,1.09,1.84,-1.71,-1.72,-1.72
36.70,-2.55,-0.83,-2.54,-0.82,0.82,1.03,1.77,-1.73,-1.72,-1.72
37.06,-2.49,-0.77,-2.49,-0.77,0.77,0.98,1.70,-1.72,-1.72,-1.72
37.43,-2.44,-0.72,-2.44,-0.72,0.72,0.92,1.63,-1.72,-1.72,-1.72
37.81,-2.39,-0.67,-2.39,-0.67,0.67,0.87,1.56,-1.72,-1.72,-1.72
38.19,-2.34,-0.62,-2.34,-0.62,0.62,0.81,1.49,-1.72,-1.72,-1.72
38.57,-2.30,-0.58,-2.29,-0.57,0.58,0.76,1.42,-1.72,-1.72,-1.72
38.95,-2.24,-0.52,-2.25,-0.53,0.53,0.70,1.35,-1.71,-1.72,-1.72
39.34,-2.20,-0.48,-2.20,-0.48,0.48,0.65,1.28,-1.72,-1.72,-1.72
39.74,-2.16,-0.44,-2.16,-0.44,0.44,0.60,1.20,-1.72,-1.72,-1.72
40.14,-2.11,-0.39,-2.11,-0.39,0.39,0.54,1.13,-1.72,-1.72,-1.72
40.54,-2.07,-0.35,-2.07,-0.35,0.35,0.49,1.06,-1.72,-1.72,-1.72
40.94,-2.02,-0.30,-2.03,-0.31,0.31,0.43,0.98,-1.71,-1.72,-1.72
41.35,-1.99,-0.27,-1.98,-0.26,0.27,0.38,0.91,-1.72,-1.72,-1.72
41.76,-1.94,-0.22,-1.94,-0.22,0.23,0.32,0.84,-1.71,-1.71,-1.72
42.18,-1.90,-0.18,-1.91,-0.19,0.19,0.27,0.77,-1.71,-1.72,-1.72
42.60,-1.87,-0.15,-1.87,-0.15,0.15,0.22,0.69,-1.72,-1.72,-1.72
43.03,-1.84,-0.12,-1.84,-0.12,0.11,0.16,0.62,-1.73,-1.72,-1.72
43.46,-1.80,-0.08,-1.80,-0.08,0.08,0.11,0.55,-1.72,-1.72,-1.72
43.90,-1.76,-0.04,-1.76,-0.04,0.04,0.06,0.48,-1.72,-1.72,-1.72
44.33,-1.72,-0.00,-1.72,-0.01,0.01,0.01,0.41,-1.71,-1.72,-1.72
44.78,-1.69,0.03,-1.69,0.03,-0.03,-0.05,0.34,-1.72,-1.72,-1.72
45.23,-1.66,0.06,-1.66,0.06,-0.07,-0.10,0.27,-1.73,-1.72,-1.72
45.68,-1.62,0.10,-1.62,0.10,-0.10,-0.15,0.20,-1.72,-1.72,-1.72
46.13,-1.57,0.15,-1.58,0.14,-0.14,-0.20,0.13,-1.71,-1.72,-1.72
46.60,-1.54,0.18,-1.54,0.18,-0.17,-0.25,0.06,-1.72,-1.72,-1.72
47.06,-1.51,0.21,-1.51,0.21,-0.21,-0.30,-0.01,-1.72,-1.72,-1.72
47.53,-1.48,0.24,-1.48,0.24,-0.25,-0.34,-0.08,-1.73,-1.72,-1.72
48.01,-1.43,0.29,-1.44,0.28,-0.28,-0.39,-0.15,-1.71,-1.72,-1.72
48.49,-1.41,0.31,-1.40,0.32,-0.31,-0.44,-0.21,-1.73,-1.72,-1.72
48.97,-1.36,0.36,-1.37,0.35,-0.35,-0.49,-0.28,-1.71,-1.72,-1.72
49.46,-1.34,0.38,-1.34,0.38,-0.38,-0.53,-0.35,-1.72,-1.72,-1.72
49.96,-1.30,0.42,-1.30,0.42,-0.42,-0.58,-0.41,-1.72,-1.72,-1.72
50.46,-1.27,0.45,-1.27,0.45,-0.45,-0.62,-0.48,-1.72,-1.73,-1.72
50.96,-1.24,0.48,-1.24,0.48,-0.49,-0.66,-0.54,-1.73,-1.72,-1.72
51.47,-1.20,0.52,-1.20,0.52,-0.52,-0.71,-0.61,-1.72,-1.72,-1.72
51.99,-1.15,0.57,-1.16,0.56,-0.55,-0.75,-0.67,-1.71,-1.72,-1.72
52.51,-1.12,0.60,-1.13,0.59,-0.59,-0.79,-0.73,-1.71,-1.71,-1.72
53.03,-1.11,0.61,-1.10,0.62,-0.62,-0.83,-0.79,-1.73,-1.72,-1.72
53.56,-1.06,0.66,-1.07,0.65,-0.65,-0.87,-0.85,-1.72,-1.72,-1.72
54.10,-1.03,0.69,-1.03,0.69,-0.69,-0.91,-0.91,-1.72,-1.72,-1.72
54.64,-1.00,0.72,-1.00,0.72,-0.72,-0.94,-0.97,-1.72,-1.72,-1.72
55.18,-0.97,0.75,-0.97,0.75,-0.75,-0.98,-1.02,-1.72,-1.72,-1.72
55.74,-0.94,0.78,-0.94,0.78,-0.78,-1.02,-1.08,-1.72,-1.72,-1.72
56.29,-0.91,0.81,-0.91,0.81,-0.81,-1.05,-1.13,-1.72,-1.72,-1.72
56.86,-0.87,0.85,-0.87,0.84,-0.84,-1.08,-1.18,-1.71,-1.72,-1.72
57.42,-0.84,0.88,-0.84,0.88,-0.88,-1.12,-1.23,-1.72,-1.72,-1.72
58.00,-0.81,0.91,-0.81,0.91,-0.91,-1.15,-1.27,-1.72,-1.72,-1.72
58.58,-0.78,0.94,-0.78,0.94,-0.95,-1.18,-1.32,-1.73,-1.72,-1.72
59.16,-0.73,0.99,-0.74,0.98,-0.98,-1.21,-1.36,-1.71,-1.72,-1.72
59.76,-0.70,1.02,-0.70,1.02,-1.02,-1.24,-1.40,-1.72,-1.72,-1.72
60.35,-0.66,1.06,-0.66,1.06,-1.06,-1.26,-1.43,-1.72,-1.72,-1.72
60.96,-0.62,1.10,-0.62,1.10,-1.10,-1.29,-1.47,-1.72,-1.72,-1.72
61.57,-0.58,1.14,-0.58,1.14,-1.13,-1.32,-1.50,-1.72,-1.72,-1.72
62.18,-0.55,1.17,-0.54,1.17,-1.17,-1.34,-1.52,-1.72,-1.71,-1.72
62.80,-0.50,1.22,-0.51,1.21,-1.21,-1.36,-1.55,-1.71,-1.72,-1.72
63.43,-0.48,1.24,-0.48,1.24,-1.24,-1.39,-1.57,-1.72,-1.72,-1.72
64.07,-0.45,1.27,-0.45,1.27,-1.27,-1.41,-1.59,-1.72,-1.72,-1.72
64.71,-0.41,1.31,-0.42,1.30,-1.30,-1.43,-1.61,-1.72,-1.72,-1.72
65.35,-0.39,1.33,-0.38,1.33,-1.33,-1.45,-1.62,-1.73,-1.72,-1.72
66.01,-0.36,1.36,-0.36,1.36,-1.36,-1.47,-1.63,-1.72,-1.72,-1.72
66.67,-0.31,1.41,-0.33,1.39,-1.39,-1.48,-1.64,-1.70,-1.72,-1.72
67.33,-0.31,1.41,-0.30,1.42,-1.42,-1.50,-1.65,-1.73,-1.72,-1.72
68.01,-0.27,1.45,-0.27,1.44,-1.44,-1.52,-1.65,-1.71,-1.72,-1.72
68.69,-0.26,1.46,-0.26,1.46,-1.47,-1.53,-1.66,-1.73,-1.72,-1.72
69.37,-0.22,1.50,-0.23,1.49,-1.49,-1.55,-1.66,-1.71,-1.72,-1.72
70.07,-0.22,1.50,-0.21,1.51,-1.51,-1.56,-1.66,-1.73,-1.72,-1.72
70.77,-0.17,1.55,-0.18,1.54,-1.54,-1.58,-1.66,-1.71,-1.72,-1.72
71.48,-0.16,1.56,-0.16,1.56,-1.56,-1.59,-1.66,-1.72,-1.72,-1.72
72.19,-0.13,1.59,-0.13,1.59,-1.58,-1.60,-1.66,-1.72,-1.72,-1.72
72.91,-0.12,1.60,-0.12,1.60,-1.61,-1.61,-1.65,-1.73,-1.72,-1.72
73.64,-0.08,1.64,-0.09,1.63,-1.63,-1.62,-1.65,-1.71,-1.72,-1.72
74.38,-0.08,1.64,-0.07,1.65,-1.65,-1.63,-1.65,-1.73,-1.72,-1.72
75.12,-0.03,1.69,-0.04,1.67,-1.67,-1.64,-1.64,-1.70,-1.72,-1.72
75.87,-0.03,1.69,-0.03,1.69,-1.69,-1.65,-1.64,-1.72,-1.71,-1.72
76.63,-0.01,1.71,-0.01,1.71,-1.70,-1.66,-1.64,-1.72,-1.71,-1.72
77.40,0.01,1.73,-0.00,1.72,-1.72,-1.67,-1.64,-1.71,-1.72,-1.72
78.17,0.01,1.73,0.01,1.73,-1.74,-1.67,-1.63,-1.73,-1.72,-1.72
78.95,0.01,1.73,0.03,1.75,-1.75,-1.68,-1.63,-1.74,-1.72,-1.72
79.74,0.06,1.78,0.04,1.76,-1.76,-1.69,-1.63,-1.70,-1.72,-1.72
80.54,0.06,1.78,0.06,1.78,-1.78,-1.70,-1.63,-1.72,-1.72,-1.72
81.35,0.06,1.78,0.07,1.79,-1.79,-1.70,-1.63,-1.73,-1.71,-1.72
82.16,0.09,1.81,0.09,1.80,-1.80,-1.71,-1.64,-1.71,-1.72,-1.72
82.98,0.11,1.83,0.10,1.82,-1.82,-1.71,-1.64,-1.71,-1.72,-1.72
83.81,0.11,1.83,0.11,1.83,-1.83,-1.72,-1.64,-1.72,-1.72,-1.72
84.65,0.11,1.83,0.12,1.84,-1.84,-1.72,-1.65,-1.73,-1.72,-1.72
85.50,0.14,1.86,0.13,1.85,-1.85,-1.73,-1.66,-1.71,-1.72,-1.72
86.35,0.15,1.87,0.14,1.86,-1.86,-1.73,-1.67,-1.71,-1.72,-1.72
87.22,0.15,1.87,0.15,1.87,-1.87,-1.74,-1.68,-1.72,-1.72,-1.72
88.09,0.15,1.87,0.16,1.88,-1.88,-1.74,-1.69,-1.73,-1.72,-1.72
88.97,0.18,1.90,0.18,1.89,-1.89,-1.75,-1.70,-1.71,-1.72,-1.72
89.86,0.20,1.92,0.19,1.91,-1.90,-1.75,-1.71,-1.70,-1.71,-1.72
90.76,0.20,1.92,0.20,1.92,-1.91,-1.76,-1.73,-1.72,-1.72,-1.72
91.66,0.20,1.92,0.20,1.92,-1.93,-1.76,-1.74,-1.73,-1.73,-1.72
92.58,0.20,1.92,0.21,1.93,-1.94,-1.77,-1.76,-1.74,-1.73,-1.72
93.51,0.22,1.94,0.22,1.94,-1.95,-1.77,-1.78,-1.73,-1.72,-1.72
94.44,0.25,1.97,0.24,1.96,-1.95,-1.77,-1.80,-1.70,-1.71,-1.72
95.39,0.25,1.97,0.25,1.97,-1.96,-1.78,-1.82,-1.71,-1.71,-1.72
96.34,0.25,1.97,0.25,1.97,-1.96,-1.78,-1.85,-1.71,-1.71,-1.72
97.30,0.25,1.97,0.25,1.97,-1.97,-1.79,-1.87,-1.72,-1.72,-1.72
98.28,0.25,1.97,0.25,1.97,-1.97,-1.79,-1.90,-1.72,-1.72,-1.72
99.26,0.25,1.97,0.25,1.97,-1.97,-1.79,-1.92,-1.72,-1.72,-1.72
100.25,0.25,1.97,0.25,1.97,-1.97,-1.80,-1.95,-1.72,-1.72,-1.72
101.25,0.25,1.97,0.25,1.97,-1.97,-1.80,-1.97,-1.72,-1.72,-1.72
102.27,0.25,1.97,0.25,1.97,-1.97,-1.80,-2.00,-1.72,-1.72,-1.72
103.29,0.25,1.97,0.25,1.97,-1.97,-1.81,-2.03,-1.72,-1.72,-1.72
104.32,0.25,1.97,0.25,1.97,-1.97,-1.81,-2.06,-1.72,-1.72,-1.72
105.37,0.25,1.97,0.25,1.97,-1.97,-1.81,-2.09,-1.72,-1.72,-1.72
106.42,0.25,1.97,0.25,1.97,-1.97,-1.82,-2.11,-1.72,-1.72,-1.72
107.48,0.25,1.97,0.25,1.97,-1.97,-1.82,-2.14,-1.72,-1.72,-1.72
108.56,0.25,1.97,0.25,1.97,-1.97,-1.82,-2.17,-1.73,-1.72,-1.72
109.64,0.25,1.97,0.26,1.97,-1.98,-1.82,-2.19,-1.73,-1.72,-1.72
110.74,0.27,1.99,0.26,1.98,-1.98,-1.82,-2.22,-1.71,-1.72,-1.72
111.85,0.27,1.99,0.27,1.99,-1.98,-1.83,-2.24,-1.71,-1.71,-1.72
112.97,0.27,1.99,0.27,1.99,-1.98,-1.83,-2.26,-1.71,-1.71,-1.72
114.10,0.27,1.99,0.26,1.98,-1.98,-1.83,-2.29,-1.71,-1.72,-1.72
115.24,0.25,1.97,0.26,1.97,-1.98,-1.83,-2.30,-1.73,-1.72,-1.72
116.39,0.25,1.97,0.25,1.97,-1.97,-1.83,-2.32,-1.73,-1.72,-1.72
117.55,0.25,1.97,0.25,1.97,-1.97,-1.83,-2.33,-1.72,-1.72,-1.72
118.73,0.25,1.97,0.25,1.97,-1.97,-1.83,-2.34,-1.72,-1.72,-1.72
119.92,0.25,1.97,0.25,1.97,-1.97,-1.83,-2.35,-1.72,-1.72,-1.72
121.12,0.25,1.97,0.25,1.97,-1.97,-1.83,-2.36,-1.72,-1.72,-1.72
122.33,0.25,1.97,0.25,1.97,-1.97,-1.83,-2.36,-1.72,-1.72,-1.72
123.55,0.25,1.97,0.25,1.97,-1.97,-1.83,-2.36,-1.72,-1.72,-1.72
124.79,0.25,1.97,0.25,1.97,-1.97,-1.83,-2.35,-1.72,-1.72,-1.72
126.03,0.25,1.97,0.25,1.97,-1.97,-1.82,-2.35,-1.72,-1.71,-1.72
127.29,0.25,1.97,0.25,1.97,-1.96,-1.82,-2.33,-1.71,-1.71,-1.72
128.57,0.25,1.97,0.24,1.96,-1.96,-1.82,-2.32,-1.71,-1.71,-1.72
129.85,0.23,1.95,0.23,1.95,-1.95,-1.81,-2.30,-1.72,-1.72,-1.72
131.15,0.22,1.94,0.22,1.94,-1.94,-1.81,-2.28,-1.72,-1.73,-1.72
132.46,0.20,1.92,0.20,1.92,-1.93,-1.80,-2.26,-1.74,-1.73,-1.72
133.79,0.20,1.92,0.20,1.92,-1.93,-1.80,-2.23,-1.73,-1.73,-1.72
135.12,0.20,1.92,0.20,1.92,-1.92,-1.79,-2.20,-1.72,-1.71,-1.72
136.48,0.20,1.92,0.20,1.92,-1.91,-1.79,-2.17,-1.71,-1.71,-1.72
137.84,0.20,1.92,0.18,1.90,-1.90,-1.78,-2.14,-1.70,-1.71,-1.72
139.22,0.15,1.87,0.17,1.88,-1.89,-1.77,-2.10,-1.74,-1.72,-1.72
140.61,0.15,1.87,0.16,1.87,-1.88,-1.77,-2.06,-1.73,-1.72,-1.72
142.02,0.15,1.87,0.14,1.86,-1.87,-1.76,-2.03,-1.72,-1.72,-1.72
143.44,0.15,1.87,0.14,1.85,-1.85,-1.75,-1.99,-1.70,-1.72,-1.72
144.87,0.11,1.83,0.13,1.85,-1.84,-1.74,-1.94,-1.73,-1.71,-1.72
146.32,0.11,1.83,0.11,1.83,-1.83,-1.73,-1.90,-1.72,-1.72,-1.72
147.78,0.11,1.83,0.09,1.81,-1.81,-1.72,-1.86,-1.70,-1.72,-1.72
149.26,0.06,1.78,0.08,1.80,-1.80,-1.71,-1.81,-1.74,-1.71,-1.72
150.75,0.06,1.78,0.06,1.78,-1.78,-1.70,-1.77,-1.72,-1.72,-1.72
152.26,0.06,1.78,0.04,1.76,-1.76,-1.68,-1.73,-1.70,-1.72,-1.72
153.78,0.01,1.73,0.03,1.75,-1.75,-1.67,-1.68,-1.74,-1.72,-1.72
155.32,0.01,1.73,0.00,1.72,-1.73,-1.66,-1.64,-1.72,-1.72,-1.72
156.88,-0.01,1.71,-0.01,1.71,-1.71,-1.64,-1.59,-1.72,-1.72,-1.72
158.44,-0.03,1.69,-0.03,1.69,-1.69,-1.63,-1.55,-1.72,-1.71,-1.72
160.03,-0.03,1.69,-0.04,1.68,-1.67,-1.62,-1.51,-1.70,-1.71,-1.72
161.63,-0.08,1.64,-0.07,1.65,-1.65,-1.60,-1.46,-1.73,-1.72,-1.72
163.24,-0.08,1.64,-0.09,1.63,-1.63,-1.58,-1.42,-1.71,-1.72,-1.72
164.88,-0.13,1.59,-0.12,1.60,-1.61,-1.57,-1.38,-1.74,-1.73,-1.72
166.53,-0.13,1.59,-0.14,1.58,-1.58,-1.55,-1.34,-1.72,-1.72,-1.72
168.19,-0.16,1.56,-0.16,1.56,-1.56,-1.53,-1.30,-1.72,-1.72,-1.72
169.87,-0.17,1.55,-0.18,1.54,-1.54,-1.51,-1.26,-1.71,-1.72,-1.72
171.57,-0.20,1.52,-0.20,1.52,-1.52,-1.49,-1.22,-1.72,-1.72,-1.72
173.29,-0.22,1.50,-0.22,1.50,-1.50,-1.47,-1.18,-1.72,-1.72,-1.72
175.02,-0.24,1.48,-0.24,1.48,-1.48,-1.45,-1.15,-1.72,-1.72,-1.72
176.77,-0.27,1.45,-0.27,1.45,-1.46,-1.43,-1.11,-1.73,-1.72,-1.72
178.54,-0.28,1.44,-0.28,1.43,-1.43,-1.41,-1.08,-1.71,-1.72,-1.72
180.32,-0.31,1.41,-0.31,1.41,-1.41,-1.39,-1.04,-1.72,-1.72,-1.72
182.13,-0.32,1.40,-0.33,1.39,-1.39,-1.37,-1.01,-1.71,-1.71,-1.72
183.95,-0.36,1.36,-0.36,1.36,-1.36,-1.34,-0.98,-1.72,-1.72,-1.72
185.79,-0.38,1.34,-0.38,1.34,-1.34,-1.32,-0.95,-1.72,-1.72,-1.72
187.65,-0.41,1.31,-0.41,1.31,-1.31,-1.30,-0.91,-1.72,-1.72,-1.72
189.52,-0.44,1.28,-0.44,1.28,-1.28,-1.27,-0.89,-1.73,-1.72,-1.72
191.42,-0.45,1.27,-0.46,1.26,-1.26,-1.24,-0.86,-1.71,-1.72,-1.72
193.33,-0.50,1.22,-0.49,1.23,-1.23,-1.22,-0.83,-1.73,-1.72,-1.72
195.27,-0.51,1.21,-0.52,1.20,-1.20,-1.19,-0.80,-1.71,-1.72,-1.72
197.22,-0.55,1.17,-0.55,1.17,-1.17,-1.16,-0.77,-1.72,-1.72,-1.72
199.19,-0.59,1.13,-0.58,1.14,-1.14,-1.13,-0.75,-1.73,-1.72,-1.72
201.18,-0.60,1.12,-0.61,1.11,-1.11,-1.10,-0.72,-1.71,-1.72,-1.72
203.19,-0.64,1.08,-0.65,1.07,-1.07,-1.07,-0.70,-1.71,-1.72,-1.72
205.23,-0.69,1.03,-0.68,1.04,-1.04,-1.04,-0.67,-1.73,-1.72,-1.72
207.28,-0.72,1.00,-0.72,1.00,-1.00,-1.01,-0.65,-1.72,-1.72,-1.72
209.35,-0.75,0.97,-0.75,0.96,-0.96,-0.97,-0.63,-1.72,-1.72,-1.72
211.44,-0.78,0.94,-0.79,0.93,-0.93,-0.94,-0.60,-1.71,-1.72,-1.72
213.56,-0.84,0.88,-0.83,0.89,-0.89,-0.90,-0.58,-1.73,-1.72,-1.72
215.69,-0.87,0.85,-0.88,0.84,-0.85,-0.87,-0.56,-1.72,-1.72,-1.72
217.85,-0.92,0.80,-0.92,0.80,-0.81,-0.83,-0.54,-1.73,-1.72,-1.72
220.03,-0.95,0.77,-0.95,0.77,-0.77,-0.79,-0.51,-1.72,-1.72,-1.72
222.23,-0.99,0.73,-0.99,0.72,-0.72,-0.75,-0.49,-1.71,-1.72,-1.72
224.45,-1.04,0.68,-1.04,0.68,-0.68,-0.71,-0.47,-1.72,-1.71,-1.72
226.70,-1.08,0.64,-1.08,0.63,-0.63,-0.67,-0.45,-1.71,-1.72,-1.72
228.96,-1.13,0.59,-1.13,0.59,-0.59,-0.62,-0.43,-1.72,-1.72,-1.72
231.25,-1.18,0.54,-1.18,0.54,-0.54,-0.58,-0.41,-1.72,-1.72,-1.72
233.57,-1.22,0.50,-1.22,0.49,-0.50,-0.54,-0.38,-1.72,-1.72,-1.72
235.90,-1.27,0.45,-1.27,0.45,-0.45,-0.49,-0.36,-1.72,-1.72,-1.72
238.26,-1.32,0.40,-1.32,0.40,-0.40,-0.44,-0.34,-1.72,-1.72,-1.72
240.64,-1.37,0.35,-1.37,0.35,-0.35,-0.40,-0.32,-1.72,-1.72,-1.72
243.05,-1.41,0.31,-1.41,0.31,-0.30,-0.35,-0.30,-1.71,-1.72,-1.72
245.48,-1.46,0.26,-1.46,0.26,-0.26,-0.30,-0.27,-1.72,-1.72,-1.72
247.93,-1.51,0.21,-1.51,0.21,-0.21,-0.26,-0.25,-1.72,-1.72,-1.72
250.41,-1.57,0.15,-1.56,0.16,-0.16,-0.21,-0.23,-1.73,-1.72,-1.72
252.92,-1.60,0.12,-1.61,0.11,-0.11,-0.17,-0.21,-1.71,-1.72,-1.72
255.45,-1.65,0.07,-1.65,0.07,-0.07,-0.13,-0.18,-1.72,-1.72,-1.72
258.00,-1.69,0.03,-1.69,0.03,-0.02,-0.09,-0.16,-1.71,-1.71,-1.72
260.58,-1.74,-0.02,-1.74,-0.02,0.02,-0.05,-0.13,-1.72,-1.72,-1.72
263.19,-1.78,-0.06,-1.78,-0.06,0.06,-0.01,-0.11,-1.72,-1.72,-1.72
265.82,-1.83,-0.11,-1.83,-0.11,0.10,0.03,-0.08,-1.73,-1.72,-1.72
268.48,-1.86,-0.14,-1.86,-0.15,0.14,0.06,-0.06,-1.72,-1.72,-1.72
271.16,-1.90,-0.18,-1.90,-0.18,0.18,0.09,-0.03,-1.72,-1.72,-1.72
273.87,-1.94,-0.22,-1.94,-0.22,0.22,0.12,-0.00,-1.72,-1.72,-1.72
276.61,-1.97,-0.25,-1.97,-0.25,0.25,0.15,0.03,-1.72,-1.72,-1.72
279.38,-2.00,-0.28,-2.01,-0.29,0.29,0.18,0.05,-1.71,-1.72,-1.72
282.17,-2.04,-0.32,-2.04,-0.32,0.32,0.20,0.08,-1.72,-1.72,-1.72
284.99,-2.07,-0.35,-2.07,-0.35,0.35,0.23,0.11,-1.72,-1.72,-1.72
287.84,-2.10,-0.38,-2.10,-0.39,0.38,0.26,0.14,-1.72,-1.72,-1.72
290.72,-2.13,-0.41,-2.14,-0.42,0.42,0.29,0.17,-1.72,-1.72,-1.72
293.63,-2.18,-0.46,-2.17,-0.45,0.45,0.32,0.20,-1.73,-1.72,-1.72
296.57,-2.19,-0.47,-2.20,-0.48,0.48,0.35,0.23,-1.71,-1.71,-1.72
299.53,-2.22,-0.50,-2.23,-0.51,0.52,0.38,0.27,-1.71,-1.72,-1.72
302.53,-2.27,-0.55,-2.27,-0.55,0.55,0.42,0.30,-1.72,-1.72,-1.72
305.55,-2.31,-0.59,-2.31,-0.59,0.58,0.46,0.33,-1.73,-1.72,-1.72
308.61,-2.34,-0.62,-2.34,-0.62,0.61,0.50,0.37,-1.73,-1.72,-1.72
311.69,-2.36,-0.64,-2.37,-0.65,0.65,0.54,0.40,-1.71,-1.72,-1.72
314.81,-2.40,-0.68,-2.40,-0.68,0.68,0.58,0.43,-1.72,-1.72,-1.72
317.96,-2.43,-0.71,-2.43,-0.71,0.71,0.63,0.47,-1.72,-1.71,-1.72
321.14,-2.46,-0.74,-2.46,-0.74,0.74,0.68,0.51,-1.72,-1.72,-1.72
324.35,-2.49,-0.77,-2.49,-0.77,0.77,0.73,0.54,-1.72,-1.72,-1.72
327.59,-2.53,-0.81,-2.53,-0.81,0.80,0.79,0.58,-1.73,-1.72,-1.72
330.87,-2.55,-0.83,-2.56,-0.84,0.83,0.84,0.62,-1.72,-1.72,-1.72
334.18,-2.59,-0.87,-2.58,-0.86,0.86,0.90,0.66,-1.73,-1.72,-1.72
337.52,-2.60,-0.88,-2.61,-0.89,0.89,0.97,0.70,-1.71,-1.72,-1.72
340.90,-2.64,-0.92,-2.63,-0.92,0.92,1.03,0.74,-1.72,-1.72,-1.72
344.30,-2.66,-0.94,-2.66,-0.95,0.95,1.10,0.78,-1.71,-1.72,-1.72
347.75,-2.69,-0.97,-2.70,-0.98,0.98,1.17,0.82,-1.71,-1.72,-1.72
351.23,-2.74,-1.02,-2.72,-1.01,1.01,1.24,0.86,-1.73,-1.72,-1.72
354.74,-2.75,-1.03,-2.76,-1.04,1.04,1.31,0.91,-1.71,-1.72,-1.72
358.28,-2.78,-1.06,-2.79,-1.07,1.07,1.38,0.95,-1.71,-1.72,-1.72
361.87,-2.83,-1.11,-2.83,-1.11,1.11,1.46,1.00,-1.72,-1.72,-1.72
365.49,-2.87,-1.15,-2.87,-1.15,1.14,1.53,1.04,-1.73,-1.73,-1.72
369.14,-2.90,-1.18,-2.90,-1.18,1.18,1.60,1.09,-1.73,-1.73,-1.72
372.83,-2.93,-1.21,-2.93,-1.21,1.21,1.68,1.13,-1.72,-1.72,-1.72
376.56,-2.96,-1.24,-2.96,-1.24,1.25,1.75,1.18,-1.71,-1.71,-1.72
380.33,-2.99,-1.27,-3.00,-1.28,1.28,1.81,1.23,-1.71,-1.71,-1.72
384.13,-3.04,-1.32,-3.04,-1.32,1.32,1.88,1.28,-1.72,-1.72,-1.72
387.97,-3.08,-1.36,-3.08,-1.36,1.36,1.94,1.33,-1.72,-1.72,-1.72
391.85,-3.11,-1.39,-3.12,-1.40,1.40,1.99,1.38,-1.71,-1.72,-1.72
395.77,-3.16,-1.44,-3.15,-1.44,1.44,2.04,1.43,-1.73,-1.72,-1.72
399.73,-3.19,-1.47,-3.19,-1.47,1.47,2.09,1.48,-1.72,-1.72,-1.72
403.72,-3.23,-1.51,-3.23,-1.51,1.51,2.12,1.53,-1.72,-1.72,-1.72
407.76,-3.27,-1.55,-3.27,-1.55,1.55,2.15,1.57,-1.72,-1.72,-1.72
411.84,-3.31,-1.59,-3.31,-1.59,1.59,2.17,1.62,-1.72,-1.72,-1.72
415.96,-3.34,-1.62,-3.34,-1.62,1.62,2.19,1.67,-1.72,-1.72,-1.72
420.12,-3.37,-1.65,-3.37,-1.65,1.66,2.19,1.72,-1.71,-1.72,-1.72
424.32,-3.40,-1.68,-3.41,-1.69,1.69,2.19,1.77,-1.71,-1.72,-1.72
428.56,-3.44,-1.72,-3.44,-1.72,1.72,2.18,1.81,-1.72,-1.72,-1.72
432.85,-3.47,-1.75,-3.46,-1.75,1.75,2.16,1.85,-1.73,-1.72,-1.72
437.18,-3.48,-1.76,-3.49,-1.77,1.77,2.14,1.90,-1.71,-1.72,-1.72
441.55,-3.51,-1.79,-3.51,-1.79,1.79,2.11,1.94,-1.72,-1.72,-1.72
