frequency,raw,error,smoothed,error_smoothed,equalization,parametric_eq,fixed_band_eq,equalized_raw,equalized_smoothed,target
20.00,2.59,1.11,2.59,1.11,-1.11,-1.38,-1.16,1.48,1.48,1.48
20.20,2.62,1.17,2.62,1.17,-1.17,-1.40,-1.19,1.45,1.45,1.45
20.40,2.66,1.23,2.65,1.22,-1.22,-1.43,-1.22,1.43,1.43,1.43
20.61,2.69,1.28,2.69,1.28,-1.28,-1.45,-1.26,1.41,1.41,1.41
20.81,2.72,1.33,2.72,1.33,-1.33,-1.48,-1.30,1.39,1.39,1.39
21.02,2.75,1.38,2.75,1.38,-1.39,-1.51,-1.33,1.36,1.37,1.37
21.23,2.79,1.44,2.79,1.44,-1.44,-1.53,-1.37,1.35,1.35,1.35
21.44,2.82,1.49,2.82,1.49,-1.49,-1.56,-1.41,1.33,1.33,1.33
21.66,2.85,1.54,2.85,1.54,-1.54,-1.59,-1.45,1.31,1.31,1.31
21.87,2.88,1.58,2.88,1.58,-1.58,-1.62,-1.49,1.30,1.30,1.30
22.09,2.91,1.63,2.91,1.63,-1.63,-1.65,-1.53,1.28,1.28,1.28
22.31,2.95,1.68,2.94,1.67,-1.68,-1.68,-1.58,1.27,1.27,1.27
22.54,2.98,1.72,2.98,1.72,-1.72,-1.71,-1.62,1.26,1.26,1.26
22.76,3.01,1.76,3.01,1.76,-1.76,-1.74,-1.67,1.24,1.25,1.25
22.99,3.05,1.81,3.04,1.81,-1.81,-1.77,-1.71,1.24,1.24,1.24
23.22,3.08,1.85,3.08,1.85,-1.85,-1.80,-1.76,1.23,1.23,1.23
23.45,3.11,1.89,3.11,1.89,-1.89,-1.83,-1.81,1.22,1.22,1.22
23.69,3.15,1.94,3.15,1.93,-1.93,-1.86,-1.86,1.22,1.22,1.21
23.92,3.18,1.97,3.18,1.97,-1.97,-1.89,-1.91,1.21,1.21,1.21
24.16,3.21,2.01,3.21,2.01,-2.01,-1.93,-1.96,1.20,1.20,1.20
24.40,3.24,2.04,3.24,2.04,-2.05,-1.96,-2.01,1.19,1.19,1.20
24.65,3.27,2.08,3.27,2.08,-2.08,-1.99,-2.07,1.18,1.19,1.19
24.89,3.31,2.12,3.31,2.12,-2.12,-2.02,-2.12,1.19,1.18,1.19
25.14,3.34,2.16,3.34,2.16,-2.16,-2.06,-2.17,1.18,1.18,1.18
25.39,3.37,2.20,3.37,2.20,-2.20,-2.09,-2.23,1.17,1.17,1.17
25.65,3.40,2.23,3.40,2.24,-2.23,-2.13,-2.28,1.17,1.17,1.17
25.91,3.44,2.28,3.43,2.27,-2.27,-2.16,-2.34,1.17,1.16,1.16
26.16,3.47,2.31,3.47,2.31,-2.31,-2.19,-2.39,1.16,1.16,1.16
26.43,3.50,2.34,3.50,2.34,-2.34,-2.23,-2.45,1.15,1.15,1.16
26.69,3.53,2.38,3.53,2.38,-2.38,-2.26,-2.50,1.15,1.15,1.15
26.96,3.56,2.41,3.56,2.41,-2.42,-2.30,-2.55,1.14,1.15,1.15
27.23,3.60,2.46,3.59,2.45,-2.45,-2.33,-2.60,1.15,1.14,1.14
27.50,3.63,2.49,3.63,2.49,-2.49,-2.37,-2.66,1.14,1.14,1.14
27.77,3.66,2.52,3.66,2.52,-2.52,-2.40,-2.71,1.14,1.14,1.14
28.05,3.69,2.56,3.69,2.56,-2.56,-2.44,-2.75,1.13,1.13,1.13
28.33,3.72,2.59,3.72,2.59,-2.59,-2.47,-2.80,1.13,1.13,1.13
28.62,3.75,2.62,3.75,2.62,-2.62,-2.51,-2.84,1.13,1.13,1.13
28.90,3.78,2.66,3.78,2.66,-2.65,-2.55,-2.89,1.13,1.12,1.12
29.19,3.81,2.69,3.81,2.69,-2.68,-2.58,-2.93,1.13,1.12,1.12
29.48,3.83,2.71,3.83,2.71,-2.71,-2.62,-2.96,1.12,1.12,1.12
29.78,3.86,2.74,3.86,2.74,-2.74,-2.65,-3.00,1.12,1.12,1.12
30.08,3.89,2.77,3.88,2.77,-2.77,-2.69,-3.03,1.12,1.11,1.12
30.38,3.91,2.80,3.91,2.80,-2.80,-2.72,-3.06,1.11,1.11,1.11
30.68,3.94,2.83,3.94,2.83,-2.83,-2.76,-3.08,1.11,1.11,1.11
30.99,3.97,2.86,3.96,2.86,-2.86,-2.79,-3.10,1.11,1.11,1.11
31.30,3.99,2.88,3.99,2.89,-2.88,-2.82,-3.12,1.10,1.11,1.11
31.61,4.02,2.92,4.02,2.91,-2.91,-2.86,-3.14,1.11,1.10,1.10
31.93,4.04,2.94,4.04,2.94,-2.94,-2.89,-3.15,1.10,1.10,1.10
32.24,4.07,2.97,4.07,2.97,-2.97,-2.92,-3.16,1.10,1.10,1.10
32.57,4.09,3.00,4.09,3.00,-3.00,-2.96,-3.17,1.09,1.09,1.09
32.89,4.11,3.02,4.11,3.02,-3.02,-2.99,-3.17,1.09,1.09,1.09
33.22,4.14,3.05,4.13,3.05,-3.05,-3.02,-3.17,1.09,1.08,1.09
33.55,4.16,3.08,4.16,3.08,-3.08,-3.05,-3.17,1.08,1.08,1.08
33.89,4.18,3.10,4.18,3.10,-3.10,-3.08,-3.17,1.08,1.08,1.08
34.23,4.21,3.13,4.21,3.13,-3.13,-3.11,-3.16,1.08,1.08,1.08
34.57,4.23,3.16,4.23,3.15,-3.15,-3.14,-3.15,1.07,1.07,1.07
34.92,4.25,3.18,4.25,3.18,-3.18,-3.17,-3.14,1.07,1.07,1.07
35.27,4.27,3.20,4.27,3.20,-3.20,-3.20,-3.13,1.07,1.07,1.07
35.62,4.29,3.23,4.29,3.23,-3.23,-3.23,-3.12,1.06,1.06,1.06
35.97,4.31,3.25,4.31,3.25,-3.25,-3.25,-3.11,1.06,1.06,1.06
36.33,4.33,3.27,4.33,3.27,-3.27,-3.28,-3.10,1.06,1.06,1.06
36.70,4.35,3.29,4.35,3.29,-3.29,-3.30,-3.08,1.06,1.06,1.06
37.06,4.37,3.31,4.37,3.31,-3.31,-3.33,-3.07,1.05,1.06,1.06
37.43,4.39,3.34,4.39,3.34,-3.33,-3.35,-3.06,1.06,1.06,1.05
37.81,4.41,3.36,4.41,3.36,-3.35,-3.37,-3.05,1.06,1.05,1.05
38.19,4.42,3.37,4.42,3.37,-3.37,-3.40,-3.04,1.05,1.05,1.05
38.57,4.43,3.39,4.43,3.39,-3.39,-3.42,-3.03,1.04,1.04,1.04
38.95,4.44,3.40,4.44,3.40,-3.40,-3.44,-3.02,1.03,1.03,1.04
39.34,4.45,3.42,4.45,3.42,-3.42,-3.46,-3.01,1.03,1.03,1.03
39.74,4.46,3.43,4.46,3.43,-3.43,-3.47,-3.01,1.02,1.02,1.03
40.14,4.47,3.45,4.47,3.45,-3.45,-3.49,-3.00,1.02,1.02,1.02
40.54,4.48,3.46,4.48,3.46,-3.46,-3.51,-3.00,1.02,1.02,1.02
40.94,4.49,3.47,4.49,3.47,-3.47,-3.53,-3.00,1.02,1.02,1.02
41.35,4.50,3.48,4.50,3.48,-3.48,-3.54,-3.00,1.02,1.02,1.02
41.76,4.51,3.49,4.51,3.49,-3.48,-3.56,-3.00,1.02,1.02,1.02
42.18,4.51,3.49,4.51,3.49,-3.49,-3.57,-3.01,1.02,1.02,1.02
42.60,4.52,3.50,4.52,3.50,-3.50,-3.58,-3.01,1.02,1.02,1.02
43.03,4.53,3.50,4.53,3.51,-3.51,-3.59,-3.02,1.02,1.02,1.03
43.46,4.55,3.52,4.55,3.52,-3.52,-3.61,-3.03,1.03,1.03,1.03
43.90,4.57,3.54,4.56,3.53,-3.53,-3.62,-3.05,1.03,1.03,1.03
44.33,4.58,3.55,4.58,3.55,-3.55,-3.63,-3.06,1.03,1.03,1.03
44.78,4.59,3.56,4.59,3.56,-3.56,-3.64,-3.08,1.03,1.03,1.03
45.23,4.61,3.58,4.60,3.57,-3.57,-3.64,-3.10,1.03,1.03,1.03
45.68,4.62,3.59,4.62,3.59,-3.59,-3.65,-3.13,1.03,1.03,1.03
46.13,4.63,3.60,4.63,3.60,-3.60,-3.66,-3.15,1.03,1.03,1.03
46.60,4.65,3.62,4.65,3.62,-3.62,-3.67,-3.18,1.03,1.03,1.03
47.06,4.66,3.63,4.66,3.63,-3.63,-3.67,-3.21,1.03,1.03,1.03
47.53,4.67,3.65,4.67,3.65,-3.64,-3.68,-3.24,1.02,1.02,1.02
48.01,4.68,3.66,4.68,3.66,-3.66,-3.69,-3.28,1.02,1.02,1.02
48.49,4.69,3.67,4.69,3.67,-3.67,-3.69,-3.31,1.02,1.02,1.02
48.97,4.71,3.69,4.71,3.69,-3.69,-3.70,-3.35,1.02,1.02,1.02
49.46,4.72,3.70,4.72,3.70,-3.70,-3.70,-3.39,1.02,1.02,1.02
49.96,4.74,3.72,4.74,3.72,-3.72,-3.71,-3.43,1.02,1.02,1.02
50.46,4.75,3.73,4.75,3.73,-3.73,-3.71,-3.47,1.02,1.02,1.02
50.96,4.77,3.75,4.77,3.75,-3.75,-3.71,-3.52,1.02,1.02,1.02
51.47,4.79,3.76,4.79,3.76,-3.76,-3.72,-3.56,1.02,1.02,1.03
51.99,4.81,3.78,4.81,3.78,-3.78,-3.72,-3.60,1.03,1.03,1.03
52.51,4.83,3.80,4.83,3.80,-3.79,-3.72,-3.65,1.04,1.03,1.03
53.03,4.84,3.81,4.84,3.81,-3.80,-3.72,-3.70,1.03,1.03,1.03
53.56,4.85,3.82,4.85,3.82,-3.82,-3.73,-3.74,1.03,1.03,1.03
54.10,4.86,3.82,4.86,3.82,-3.83,-3.73,-3.79,1.03,1.03,1.04
54.64,4.87,3.83,4.87,3.83,-3.84,-3.73,-3.83,1.03,1.03,1.04
55.18,4.88,3.84,4.88,3.84,-3.84,-3.73,-3.87,1.04,1.04,1.04
55.74,4.89,3.85,4.89,3.85,-3.85,-3.74,-3.92,1.04,1.04,1.04
56.29,4.90,3.85,4.90,3.85,-3.85,-3.74,-3.96,1.05,1.05,1.05
56.86,4.91,3.86,4.91,3.86,-3.85,-3.74,-4.00,1.06,1.06,1.05
57.42,4.91,3.86,4.91,3.85,-3.85,-3.74,-4.03,1.06,1.06,1.05
58.00,4.91,3.85,4.91,3.85,-3.85,-3.74,-4.07,1.06,1.06,1.06
58.58,4.90,3.84,4.90,3.84,-3.84,-3.75,-4.10,1.06,1.06,1.06
59.16,4.90,3.84,4.89,3.83,-3.83,-3.75,-4.12,1.07,1.06,1.06
59.76,4.88,3.81,4.88,3.82,-3.82,-3.75,-4.15,1.05,1.06,1.07
60.35,4.88,3.81,4.88,3.81,-3.82,-3.75,-4.17,1.06,1.06,1.07
60.96,4.88,3.81,4.88,3.81,-3.81,-3.75,-4.18,1.07,1.06,1.07
61.57,4.88,3.81,4.88,3.81,-3.81,-3.75,-4.20,1.07,1.07,1.07
62.18,4.88,3.81,4.88,3.81,-3.81,-3.76,-4.21,1.07,1.07,1.07
62.80,4.88,3.81,4.88,3.81,-3.81,-3.76,-4.21,1.07,1.07,1.07
63.43,4.88,3.81,4.88,3.81,-3.81,-3.76,-4.21,1.07,1.07,1.07
64.07,4.88,3.81,4.88,3.81,-3.81,-3.76,-4.21,1.07,1.07,1.07
64.71,4.88,3.81,4.88,3.81,-3.81,-3.76,-4.20,1.07,1.07,1.07
65.35,4.88,3.81,4.88,3.81,-3.81,-3.77,-4.19,1.07,1.07,1.07
66.01,4.88,3.81,4.88,3.81,-3.81,-3.77,-4.17,1.07,1.07,1.07
66.67,4.88,3.81,4.88,3.81,-3.81,-3.77,-4.15,1.07,1.07,1.07
67.33,4.88,3.81,4.88,3.81,-3.81,-3.77,-4.13,1.07,1.07,1.07
68.01,4.88,3.81,4.88,3.81,-3.81,-3.77,-4.10,1.07,1.07,1.07
68.69,4.88,3.81,4.88,3.81,-3.81,-3.78,-4.08,1.07,1.07,1.07
69.37,4.88,3.81,4.88,3.81,-3.81,-3.78,-4.05,1.07,1.07,1.07
70.07,4.88,3.81,4.88,3.81,-3.81,-3.78,-4.01,1.07,1.07,1.07
70.77,4.88,3.81,4.88,3.81,-3.81,-3.78,-3.98,1.07,1.07,1.07
71.48,4.88,3.80,4.88,3.80,-3.80,-3.78,-3.95,1.07,1.07,1.08
72.19,4.88,3.80,4.88,3.80,-3.80,-3.79,-3.91,1.08,1.08,1.08
72.91,4.88,3.80,4.88,3.80,-3.80,-3.79,-3.87,1.08,1.08,1.08
73.64,4.88,3.80,4.88,3.80,-3.79,-3.79,-3.84,1.08,1.08,1.08
74.38,4.88,3.79,4.88,3.79,-3.79,-3.79,-3.80,1.09,1.09,1.09
75.12,4.88,3.79,4.88,3.79,-3.79,-3.80,-3.77,1.09,1.09,1.09
75.87,4.88,3.78,4.88,3.78,-3.78,-3.80,-3.73,1.09,1.09,1.10
76.63,4.88,3.78,4.88,3.78,-3.78,-3.80,-3.70,1.10,1.10,1.10
77.40,4.88,3.78,4.88,3.77,-3.78,-3.80,-3.67,1.10,1.10,1.10
78.17,4.88,3.77,4.88,3.77,-3.77,-3.80,-3.63,1.11,1.11,1.11
78.95,4.88,3.77,4.88,3.77,-3.77,-3.81,-3.60,1.11,1.11,1.11
79.74,4.88,3.77,4.88,3.76,-3.77,-3.81,-3.58,1.11,1.11,1.11
80.54,4.88,3.76,4.88,3.76,-3.76,-3.81,-3.55,1.11,1.11,1.12
81.35,4.88,3.76,4.88,3.76,-3.76,-3.81,-3.53,1.12,1.12,1.12
82.16,4.88,3.76,4.88,3.76,-3.76,-3.81,-3.50,1.12,1.12,1.12
82.98,4.88,3.76,4.88,3.76,-3.76,-3.82,-3.48,1.12,1.12,1.12
83.81,4.88,3.76,4.88,3.76,-3.75,-3.82,-3.47,1.12,1.12,1.12
84.65,4.88,3.75,4.88,3.75,-3.75,-3.82,-3.45,1.13,1.13,1.13
85.50,4.88,3.75,4.88,3.75,-3.75,-3.82,-3.44,1.13,1.13,1.13
86.35,4.88,3.75,4.88,3.75,-3.75,-3.82,-3.43,1.13,1.13,1.13
87.22,4.88,3.75,4.88,3.75,-3.75,-3.82,-3.42,1.13,1.13,1.13
88.09,4.88,3.75,4.88,3.75,-3.75,-3.82,-3.42,1.13,1.13,1.13
88.97,4.88,3.75,4.88,3.75,-3.75,-3.83,-3.41,1.13,1.13,1.13
89.86,4.88,3.75,4.88,3.75,-3.75,-3.83,-3.41,1.13,1.13,1.13
90.76,4.88,3.75,4.88,3.75,-3.75,-3.83,-3.42,1.13,1.13,1.13
91.66,4.88,3.75,4.88,3.75,-3.75,-3.83,-3.42,1.13,1.13,1.13
92.58,4.88,3.75,4.88,3.75,-3.75,-3.83,-3.43,1.13,1.13,1.13
93.51,4.88,3.75,4.88,3.75,-3.75,-3.83,-3.44,1.13,1.13,1.13
94.44,4.88,3.75,4.88,3.75,-3.75,-3.83,-3.45,1.13,1.13,1.13
95.39,4.88,3.75,4.88,3.75,-3.75,-3.83,-3.47,1.13,1.13,1.13
96.34,4.88,3.75,4.88,3.75,-3.75,-3.83,-3.49,1.13,1.13,1.13
97.30,4.88,3.74,4.88,3.74,-3.74,-3.83,-3.51,1.13,1.13,1.14
98.28,4.88,3.74,4.88,3.74,-3.74,-3.83,-3.53,1.14,1.14,1.14
99.26,4.88,3.74,4.88,3.74,-3.74,-3.83,-3.55,1.14,1.14,1.14
100.25,4.88,3.74,4.88,3.74,-3.74,-3.83,-3.58,1.14,1.14,1.14
101.25,4.88,3.74,4.88,3.74,-3.74,-3.83,-3.60,1.14,1.14,1.14
102.27,4.88,3.74,4.88,3.74,-3.74,-3.83,-3.63,1.14,1.14,1.14
103.29,4.88,3.74,4.88,3.74,-3.73,-3.82,-3.66,1.14,1.14,1.14
104.32,4.88,3.73,4.88,3.73,-3.73,-3.82,-3.69,1.15,1.15,1.15
105.37,4.88,3.73,4.88,3.73,-3.73,-3.82,-3.72,1.15,1.15,1.15
106.42,4.88,3.73,4.88,3.72,-3.73,-3.82,-3.75,1.15,1.15,1.15
107.48,4.88,3.72,4.88,3.72,-3.72,-3.82,-3.79,1.15,1.15,1.16
108.56,4.88,3.72,4.88,3.72,-3.72,-3.81,-3.82,1.16,1.16,1.16
109.64,4.88,3.72,4.88,3.72,-3.72,-3.81,-3.85,1.16,1.16,1.16
110.74,4.88,3.72,4.88,3.72,-3.72,-3.81,-3.88,1.16,1.16,1.16
111.85,4.88,3.72,4.88,3.72,-3.71,-3.80,-3.91,1.16,1.16,1.16
112.97,4.88,3.71,4.88,3.71,-3.71,-3.80,-3.93,1.17,1.17,1.17
114.10,4.88,3.71,4.88,3.71,-3.71,-3.80,-3.96,1.17,1.17,1.17
115.24,4.88,3.71,4.88,3.71,-3.71,-3.79,-3.98,1.17,1.17,1.17
116.39,4.88,3.71,4.88,3.71,-3.71,-3.79,-4.00,1.17,1.17,1.17
117.55,4.88,3.70,4.88,3.70,-3.70,-3.79,-4.02,1.17,1.17,1.18
118.73,4.88,3.70,4.88,3.70,-3.70,-3.78,-4.03,1.18,1.18,1.18
119.92,4.88,3.70,4.88,3.70,-3.70,-3.78,-4.04,1.18,1.18,1.18
121.12,4.88,3.70,4.88,3.70,-3.69,-3.77,-4.05,1.18,1.18,1.18
122.33,4.88,3.69,4.88,3.69,-3.69,-3.76,-4.06,1.19,1.19,1.19
123.55,4.88,3.69,4.88,3.69,-3.69,-3.76,-4.06,1.19,1.19,1.19
124.79,4.88,3.68,4.88,3.68,-3.68,-3.75,-4.05,1.20,1.20,1.20
126.03,4.88,3.68,4.88,3.68,-3.68,-3.75,-4.05,1.20,1.20,1.20
127.29,4.88,3.67,4.88,3.67,-3.67,-3.74,-4.04,1.20,1.20,1.21
128.57,4.88,3.67,4.88,3.67,-3.67,-3.73,-4.02,1.21,1.21,1.21
129.85,4.88,3.67,4.88,3.67,-3.67,-3.73,-4.00,1.21,1.21,1.21
131.15,4.88,3.67,4.88,3.67,-3.66,-3.72,-3.98,1.21,1.21,1.21
132.46,4.88,3.66,4.88,3.66,-3.66,-3.71,-3.96,1.22,1.22,1.22
133.79,4.88,3.66,4.88,3.66,-3.66,-3.70,-3.93,1.22,1.22,1.22
135.12,4.88,3.66,4.88,3.66,-3.66,-3.69,-3.90,1.22,1.22,1.22
136.48,4.88,3.66,4.88,3.66,-3.66,-3.69,-3.86,1.22,1.22,1.22
137.84,4.88,3.66,4.88,3.66,-3.66,-3.68,-3.82,1.22,1.22,1.22
139.22,4.88,3.66,4.88,3.66,-3.66,-3.67,-3.79,1.22,1.22,1.22
140.61,4.88,3.66,4.88,3.66,-3.65,-3.66,-3.75,1.22,1.22,1.22
142.02,4.88,3.65,4.88,3.65,-3.65,-3.65,-3.70,1.22,1.22,1.23
143.44,4.88,3.65,4.88,3.65,-3.66,-3.64,-3.66,1.22,1.22,1.23
144.87,4.88,3.65,4.88,3.65,-3.66,-3.63,-3.62,1.22,1.22,1.23
146.32,4.89,3.65,4.89,3.65,-3.66,-3.62,-3.57,1.23,1.23,1.24
147.78,4.90,3.66,4.90,3.66,-3.66,-3.61,-3.53,1.24,1.24,1.24
149.26,4.91,3.67,4.90,3.66,-3.66,-3.59,-3.48,1.25,1.25,1.24
150.75,4.90,3.65,4.90,3.66,-3.65,-3.58,-3.44,1.25,1.25,1.25
152.26,4.90,3.65,4.90,3.65,-3.64,-3.57,-3.40,1.26,1.26,1.25
153.78,4.88,3.63,4.88,3.63,-3.62,-3.56,-3.35,1.25,1.26,1.25
155.32,4.87,3.61,4.86,3.61,-3.60,-3.55,-3.31,1.26,1.26,1.26
156.88,4.83,3.57,4.83,3.57,-3.58,-3.53,-3.27,1.25,1.26,1.26
158.44,4.81,3.55,4.80,3.55,-3.55,-3.52,-3.23,1.26,1.26,1.26
160.03,4.77,3.51,4.78,3.52,-3.51,-3.51,-3.20,1.25,1.26,1.26
161.63,4.75,3.49,4.75,3.48,-3.48,-3.49,-3.16,1.27,1.27,1.26
163.24,4.72,3.45,4.71,3.44,-3.44,-3.48,-3.13,1.28,1.27,1.27
164.88,4.67,3.40,4.68,3.41,-3.41,-3.46,-3.10,1.26,1.27,1.27
166.53,4.64,3.37,4.64,3.37,-3.37,-3.45,-3.07,1.27,1.27,1.27
168.19,4.61,3.34,4.61,3.33,-3.34,-3.43,-3.04,1.27,1.27,1.27
169.87,4.58,3.30,4.58,3.31,-3.31,-3.42,-3.01,1.27,1.27,1.28
171.57,4.56,3.28,4.56,3.28,-3.29,-3.40,-2.99,1.27,1.27,1.28
173.29,4.55,3.27,4.54,3.26,-3.27,-3.39,-2.97,1.28,1.27,1.28
175.02,4.53,3.25,4.53,3.25,-3.26,-3.37,-2.95,1.27,1.28,1.28
176.77,4.53,3.24,4.53,3.25,-3.25,-3.35,-2.93,1.28,1.28,1.29
178.54,4.54,3.25,4.54,3.25,-3.25,-3.34,-2.92,1.29,1.29,1.29
180.32,4.55,3.26,4.55,3.26,-3.25,-3.32,-2.91,1.30,1.30,1.29
182.13,4.56,3.27,4.56,3.27,-3.26,-3.30,-2.90,1.30,1.30,1.29
183.95,4.56,3.27,4.56,3.27,-3.26,-3.28,-2.89,1.30,1.30,1.29
185.79,4.56,3.27,4.56,3.27,-3.27,-3.27,-2.88,1.29,1.29,1.29
187.65,4.56,3.27,4.56,3.27,-3.28,-3.25,-2.88,1.28,1.28,1.29
189.52,4.56,3.27,4.56,3.27,-3.28,-3.23,-2.88,1.28,1.28,1.29
191.42,4.57,3.28,4.57,3.28,-3.29,-3.21,-2.88,1.28,1.28,1.29
193.33,4.58,3.29,4.58,3.29,-3.28,-3.19,-2.88,1.29,1.29,1.29
195.27,4.58,3.29,4.58,3.29,-3.28,-3.17,-2.89,1.30,1.30,1.29
197.22,4.57,3.28,4.57,3.28,-3.27,-3.15,-2.89,1.30,1.30,1.29
199.19,4.56,3.27,4.56,3.27,-3.26,-3.13,-2.90,1.30,1.30,1.29
201.18,4.54,3.24,4.54,3.24,-3.24,-3.11,-2.91,1.30,1.30,1.30
203.19,4.52,3.22,4.52,3.21,-3.21,-3.09,-2.92,1.31,1.30,1.30
205.23,4.49,3.18,4.49,3.18,-3.18,-3.07,-2.93,1.31,1.31,1.31
207.28,4.45,3.14,4.45,3.14,-3.14,-3.05,-2.94,1.30,1.31,1.31
209.35,4.42,3.11,4.42,3.11,-3.11,-3.03,-2.95,1.31,1.31,1.31
211.44,4.39,3.07,4.38,3.07,-3.07,-3.01,-2.97,1.32,1.32,1.32
213.56,4.35,3.03,4.35,3.03,-3.03,-2.99,-2.98,1.32,1.32,1.32
215.69,4.31,2.99,4.31,2.99,-2.99,-2.96,-2.99,1.32,1.32,1.32
217.85,4.28,2.96,4.28,2.96,-2.96,-2.94,-3.01,1.32,1.32,1.32
220.03,4.26,2.93,4.26,2.93,-2.94,-2.92,-3.02,1.32,1.32,1.33
222.23,4.24,2.91,4.24,2.91,-2.92,-2.90,-3.03,1.32,1.32,1.33
224.45,4.22,2.89,4.22,2.89,-2.91,-2.87,-3.04,1.31,1.32,1.33
226.70,4.22,2.89,4.22,2.89,-2.90,-2.85,-3.05,1.32,1.32,1.33
228.96,4.23,2.89,4.23,2.89,-2.90,-2.83,-3.06,1.33,1.33,1.34
231.25,4.24,2.90,4.24,2.90,-2.89,-2.80,-3.06,1.35,1.35,1.34
233.57,4.25,2.91,4.24,2.90,-2.89,-2.78,-3.07,1.36,1.36,1.34
235.90,4.24,2.89,4.24,2.89,-2.88,-2.76,-3.07,1.36,1.36,1.35
238.26,4.22,2.87,4.22,2.87,-2.86,-2.73,-3.07,1.36,1.36,1.35
240.64,4.20,2.84,4.20,2.84,-2.84,-2.71,-3.06,1.36,1.37,1.36
243.05,4.18,2.81,4.17,2.81,-2.80,-2.68,-3.06,1.37,1.37,1.37
245.48,4.15,2.77,4.14,2.77,-2.77,-2.66,-3.05,1.38,1.38,1.38
247.93,4.10,2.72,4.11,2.72,-2.72,-2.63,-3.03,1.37,1.38,1.38
250.41,4.08,2.69,4.07,2.68,-2.68,-2.61,-3.02,1.40,1.39,1.39
252.92,4.03,2.63,4.04,2.64,-2.64,-2.58,-3.00,1.39,1.39,1.40
255.45,4.01,2.60,4.01,2.60,-2.61,-2.56,-2.98,1.40,1.40,1.41
258.00,3.98,2.57,3.98,2.56,-2.57,-2.53,-2.95,1.41,1.40,1.41
260.58,3.95,2.53,3.95,2.54,-2.54,-2.50,-2.92,1.40,1.41,1.42
263.19,3.94,2.52,3.93,2.51,-2.52,-2.48,-2.89,1.42,1.41,1.42
265.82,3.92,2.50,3.92,2.50,-2.50,-2.45,-2.86,1.42,1.42,1.42
268.48,3.91,2.48,3.91,2.48,-2.48,-2.42,-2.82,1.43,1.43,1.43
271.16,3.90,2.47,3.90,2.47,-2.46,-2.40,-2.78,1.43,1.43,1.43
273.87,3.88,2.45,3.88,2.45,-2.45,-2.37,-2.74,1.43,1.44,1.43
276.61,3.87,2.43,3.87,2.43,-2.43,-2.34,-2.69,1.44,1.44,1.44
279.38,3.85,2.41,3.85,2.41,-2.40,-2.32,-2.65,1.45,1.45,1.44
282.17,3.83,2.38,3.83,2.38,-2.37,-2.29,-2.60,1.46,1.45,1.45
284.99,3.80,2.35,3.80,2.35,-2.34,-2.26,-2.55,1.46,1.45,1.45
287.84,3.76,2.31,3.76,2.31,-2.31,-2.24,-2.50,1.45,1.45,1.45
290.72,3.72,2.27,3.72,2.27,-2.28,-2.21,-2.45,1.44,1.45,1.45
293.63,3.69,2.24,3.69,2.24,-2.24,-2.18,-2.40,1.44,1.44,1.45
296.57,3.66,2.21,3.66,2.20,-2.21,-2.15,-2.35,1.44,1.44,1.45
299.53,3.63,2.17,3.64,2.18,-2.19,-2.12,-2.30,1.44,1.45,1.46
302.53,3.62,2.16,3.62,2.16,-2.16,-2.10,-2.24,1.46,1.45,1.46
305.55,3.61,2.15,3.60,2.14,-2.14,-2.07,-2.19,1.47,1.46,1.46
308.61,3.59,2.12,3.59,2.13,-2.12,-2.04,-2.14,1.46,1.47,1.47
311.69,3.58,2.11,3.58,2.11,-2.11,-2.01,-2.09,1.47,1.47,1.47
314.81,3.57,2.09,3.57,2.09,-2.09,-1.98,-2.04,1.48,1.48,1.48
317.96,3.55,2.07,3.55,2.07,-2.07,-1.95,-1.99,1.48,1.49,1.48
321.14,3.54,2.05,3.53,2.05,-2.04,-1.92,-1.94,1.50,1.49,1.49
324.35,3.51,2.02,3.51,2.02,-2.01,-1.90,-1.89,1.50,1.50,1.49
327.59,3.48,1.99,3.48,1.99,-1.98,-1.87,-1.84,1.50,1.50,1.49
330.87,3.45,1.95,3.45,1.95,-1.95,-1.84,-1.79,1.50,1.50,1.50
334.18,3.42,1.91,3.42,1.91,-1.91,-1.81,-1.75,1.50,1.50,1.51
337.52,3.38,1.87,3.38,1.87,-1.88,-1.78,-1.70,1.50,1.50,1.51
340.90,3.36,1.84,3.36,1.84,-1.85,-1.75,-1.66,1.51,1.51,1.52
344.30,3.33,1.81,3.33,1.82,-1.82,-1.72,-1.61,1.51,1.52,1.52
347.75,3.32,1.80,3.32,1.80,-1.79,-1.69,-1.57,1.53,1.52,1.52
351.23,3.30,1.78,3.29,1.77,-1.77,-1.66,-1.53,1.53,1.53,1.52
354.74,3.27,1.74,3.27,1.74,-1.74,-1.63,-1.49,1.53,1.53,1.53
358.28,3.24,1.71,3.25,1.72,-1.72,-1.60,-1.46,1.52,1.53,1.53
361.87,3.23,1.70,3.22,1.69,-1.70,-1.57,-1.42,1.53,1.53,1.53
365.49,3.20,1.67,3.20,1.67,-1.67,-1.54,-1.38,1.53,1.53,1.53
369.14,3.18,1.65,3.18,1.65,-1.65,-1.51,-1.35,1.53,1.53,1.53
372.83,3.16,1.63,3.16,1.62,-1.62,-1.48,-1.31,1.54,1.53,1.53
376.56,3.13,1.59,3.13,1.60,-1.60,-1.45,-1.28,1.53,1.53,1.54
380.33,3.11,1.57,3.11,1.57,-1.57,-1.42,-1.25,1.54,1.54,1.54
384.13,3.08,1.54,3.08,1.54,-1.54,-1.39,-1.22,1.54,1.54,1.54
387.97,3.05,1.51,3.05,1.51,-1.50,-1.36,-1.19,1.55,1.55,1.54
391.85,3.02,1.47,3.02,1.47,-1.46,-1.33,-1.16,1.56,1.56,1.55
395.77,2.98,1.43,2.98,1.43,-1.42,-1.30,-1.13,1.56,1.56,1.55
399.73,2.94,1.38,2.94,1.38,-1.38,-1.27,-1.11,1.56,1.56,1.56
403.72,2.89,1.33,2.89,1.33,-1.33,-1.24,-1.08,1.55,1.56,1.56
407.76,2.85,1.28,2.85,1.28,-1.29,-1.21,-1.06,1.56,1.56,1.57
411.84,2.82,1.25,2.82,1.24,-1.25,-1.18,-1.03,1.56,1.56,1.57
415.96,2.79,1.21,2.79,1.21,-1.22,-1.15,-1.01,1.57,1.57,1.58
420.12,2.76,1.18,2.76,1.18,-1.19,-1.12,-0.99,1.57,1.58,1.58
424.32,2.74,1.16,2.74,1.16,-1.16,-1.09,-0.96,1.58,1.58,1.58
428.56,2.72,1.13,2.72,1.13,-1.13,-1.06,-0.94,1.59,1.59,1.59
432.85,2.70,1.11,2.70,1.11,-1.10,-1.03,-0.92,1.60,1.60,1.59
437.18,2.67,1.08,2.67,1.08,-1.07,-1.00,-0.90,1.60,1.60,1.59
441.55,2.64,1.05,2.64,1.05,-1.04,-0.97,-0.88,1.59,1.60,1.59
445.96,2.61,1.02,2.61,1.02,-1.02,-0.93,-0.86,1.59,1.59,1.59
450.42,2.57,0.98,2.57,0.98,-0.99,-0.90,-0.84,1.58,1.58,1.59
454.93,2.54,0.95,2.54,0.95,-0.96,-0.87,-0.81,1.57,1.57,1.59
459.48,2.51,0.92,2.52,0.93,-0.94,-0.84,-0.79,1.57,1.58,1.59
464.07,2.50,0.91,2.50,0.91,-0.91,-0.81,-0.77,1.59,1.59,1.59
468.71,2.49,0.90,2.48,0.89,-0.88,-0.78,-0.75,1.61,1.60,1.59
473.40,2.45,0.86,2.45,0.86,-0.85,-0.75,-0.73,1.60,1.61,1.59
478.13,2.42,0.82,2.42,0.82,-0.81,-0.72,-0.71,1.61,1.61,1.60
482.91,2.38,0.78,2.38,0.78,-0.77,-0.69,-0.69,1.61,1.61,1.60
487.74,2.33,0.73,2.33,0.73,-0.72,-0.65,-0.67,1.60,1.61,1.60
492.62,2.28,0.68,2.28,0.67,-0.68,-0.62,-0.64,1.60,1.60,1.60
497.55,2.23,0.62,2.23,0.62,-0.63,-0.59,-0.62,1.60,1.60,1.61
502.52,2.18,0.57,2.18,0.58,-0.59,-0.56,-0.60,1.59,1.60,1.61
507.55,2.15,0.54,2.15,0.54,-0.55,-0.53,-0.57,1.60,1.60,1.61
512.62,2.12,0.51,2.12,0.50,-0.51,-0.50,-0.55,1.61,1.60,1.61
517.75,2.09,0.47,2.09,0.48,-0.48,-0.46,-0.53,1.61,1.62,1.62
522.93,2.07,0.45,2.07,0.45,-0.44,-0.43,-0.50,1.63,1.63,1.62
528.16,2.05,0.43,2.04,0.42,-0.41,-0.40,-0.48,1.64,1.63,1.62
533.44,2.01,0.39,2.01,0.39,-0.37,-0.37,-0.45,1.63,1.64,1.62
538.77,1.97,0.34,1.97,0.34,-0.34,-0.33,-0.42,1.63,1.63,1.63
544.16,1.93,0.30,1.93,0.30,-0.31,-0.30,-0.40,1.62,1.62,1.63
