frequency,raw,error,smoothed,error_smoothed,equalization,parametric_eq,fixed_band_eq,equalized_raw,equalized_smoothed,target
20.00,-4.18,-6.82,-4.19,-6.83,6.00,5.58,2.32,1.82,1.81,2.64
20.20,-4.18,-6.82,-4.16,-6.80,6.00,5.62,2.38,1.82,1.84,2.64
20.40,-4.13,-6.77,-4.13,-6.77,6.00,5.67,2.45,1.87,1.87,2.64
20.61,-4.09,-6.73,-4.09,-6.73,6.00,5.71,2.53,1.91,1.91,2.64
20.81,-4.04,-6.68,-4.04,-6.68,6.00,5.75,2.60,1.96,1.96,2.64
21.02,-4.00,-6.64,-4.00,-6.64,6.00,5.78,2.68,2.00,2.00,2.65
21.23,-3.96,-6.60,-3.95,-6.60,6.00,5.82,2.76,2.04,2.05,2.65
21.44,-3.91,-6.55,-3.91,-6.55,6.00,5.85,2.84,2.09,2.09,2.65
21.66,-3.86,-6.51,-3.86,-6.51,6.00,5.88,2.93,2.14,2.14,2.65
21.87,-3.82,-6.47,-3.81,-6.46,6.00,5.90,3.01,2.18,2.19,2.65
22.09,-3.78,-6.43,-3.77,-6.42,6.00,5.93,3.10,2.22,2.23,2.65
22.31,-3.72,-6.37,-3.73,-6.38,6.00,5.95,3.19,2.28,2.27,2.65
22.54,-3.69,-6.34,-3.68,-6.33,6.00,5.97,3.29,2.31,2.32,2.65
22.76,-3.64,-6.29,-3.64,-6.29,6.00,5.98,3.38,2.36,2.36,2.65
22.99,-3.59,-6.24,-3.59,-6.25,6.00,6.00,3.48,2.42,2.41,2.65
23.22,-3.56,-6.21,-3.55,-6.21,6.01,6.01,3.58,2.45,2.45,2.66
23.45,-3.51,-6.16,-3.51,-6.17,6.01,6.02,3.69,2.50,2.50,2.66
23.69,-3.48,-6.14,-3.47,-6.13,6.01,6.02,3.79,2.53,2.53,2.66
23.92,-3.43,-6.09,-3.43,-6.09,6.00,6.02,3.90,2.57,2.57,2.66
24.16,-3.40,-6.06,-3.39,-6.05,5.99,6.02,4.01,2.59,2.60,2.66
24.40,-3.35,-6.01,-3.35,-6.01,5.97,6.02,4.12,2.63,2.63,2.66
24.65,-3.31,-5.97,-3.31,-5.97,5.95,6.01,4.24,2.64,2.65,2.66
24.89,-3.26,-5.92,-3.26,-5.92,5.93,6.01,4.35,2.67,2.66,2.66
25.14,-3.23,-5.89,-3.22,-5.88,5.89,5.99,4.47,2.67,2.67,2.66
25.39,-3.18,-5.84,-3.18,-5.85,5.86,5.98,4.59,2.68,2.67,2.66
25.65,-3.15,-5.81,-3.15,-5.81,5.82,5.96,4.71,2.67,2.67,2.67
25.91,-3.12,-5.78,-3.11,-5.77,5.78,5.95,4.83,2.66,2.67,2.67
26.16,-3.07,-5.73,-3.08,-5.74,5.74,5.92,4.95,2.67,2.66,2.67
26.43,-3.04,-5.70,-3.04,-5.70,5.70,5.90,5.07,2.67,2.67,2.67
26.69,-3.01,-5.68,-3.00,-5.67,5.67,5.87,5.19,2.66,2.67,2.67
26.96,-2.96,-5.63,-2.96,-5.63,5.63,5.85,5.30,2.68,2.67,2.67
27.23,-2.93,-5.60,-2.93,-5.60,5.60,5.82,5.42,2.67,2.67,2.67
27.50,-2.90,-5.57,-2.89,-5.56,5.57,5.78,5.53,2.67,2.67,2.67
27.77,-2.87,-5.54,-2.86,-5.54,5.53,5.75,5.64,2.67,2.67,2.67
28.05,-2.83,-5.50,-2.83,-5.51,5.50,5.71,5.75,2.67,2.67,2.67
28.33,-2.81,-5.48,-2.80,-5.47,5.47,5.67,5.85,2.66,2.67,2.67
28.62,-2.77,-5.44,-2.76,-5.44,5.44,5.64,5.94,2.67,2.67,2.67
28.90,-2.73,-5.40,-2.73,-5.41,5.41,5.59,6.03,2.68,2.67,2.67
29.19,-2.70,-5.37,-2.70,-5.37,5.38,5.55,6.12,2.68,2.68,2.67
29.48,-2.68,-5.35,-2.67,-5.34,5.35,5.51,6.19,2.67,2.68,2.67
29.78,-2.64,-5.31,-2.64,-5.32,5.32,5.46,6.26,2.68,2.67,2.67
30.08,-2.61,-5.28,-2.61,-5.29,5.29,5.42,6.32,2.68,2.67,2.68
30.38,-2.60,-5.27,-2.58,-5.26,5.26,5.37,6.37,2.66,2.68,2.68
30.68,-2.55,-5.22,-2.55,-5.23,5.23,5.32,6.42,2.68,2.68,2.68
30.99,-2.52,-5.19,-2.53,-5.20,5.20,5.27,6.45,2.69,2.68,2.68
31.30,-2.51,-5.18,-2.50,-5.17,5.18,5.22,6.47,2.67,2.68,2.68
31.61,-2.47,-5.14,-2.47,-5.15,5.15,5.17,6.48,2.68,2.67,2.68
31.93,-2.45,-5.12,-2.45,-5.12,5.12,5.12,6.49,2.67,2.67,2.68
32.24,-2.42,-5.09,-2.41,-5.09,5.09,5.07,6.48,2.68,2.68,2.68
32.57,-2.39,-5.06,-2.39,-5.07,5.06,5.02,6.47,2.68,2.67,2.68
32.89,-2.36,-5.03,-2.36,-5.04,5.04,4.97,6.44,2.68,2.68,2.68
33.22,-2.34,-5.01,-2.33,-5.01,5.01,4.92,6.41,2.67,2.68,2.68
33.55,-2.30,-4.97,-2.30,-4.98,4.98,4.87,6.37,2.68,2.68,2.68
33.89,-2.27,-4.94,-2.27,-4.95,4.95,4.81,6.32,2.68,2.67,2.68
34.23,-2.25,-4.92,-2.24,-4.91,4.91,4.76,6.27,2.67,2.68,2.68
34.57,-2.21,-4.88,-2.21,-4.88,4.88,4.71,6.21,2.68,2.67,2.67
34.92,-2.18,-4.85,-2.18,-4.85,4.85,4.66,6.14,2.68,2.67,2.67
35.27,-2.15,-4.82,-2.15,-4.82,4.82,4.61,6.08,2.67,2.68,2.67
35.62,-2.12,-4.79,-2.12,-4.79,4.79,4.56,6.00,2.67,2.67,2.67
35.97,-2.09,-4.76,-2.09,-4.76,4.76,4.51,5.93,2.67,2.67,2.67
36.33,-2.06,-4.73,-2.06,-4.73,4.73,4.46,5.85,2.67,2.67,2.67
36.70,-2.03,-4.70,-2.03,-4.70,4.70,4.41,5.77,2.67,2.67,2.67
37.06,-2.00,-4.67,-2.00,-4.67,4.66,4.37,5.69,2.67,2.67,2.67
37.43,-1.97,-4.64,-1.97,-4.63,4.63,4.32,5.61,2.67,2.67,2.67
37.81,-1.94,-4.60,-1.93,-4.60,4.60,4.27,5.53,2.66,2.67,2.67
38.19,-1.90,-4.56,-1.90,-4.57,4.57,4.23,5.45,2.67,2.67,2.67
38.57,-1.88,-4.54,-1.87,-4.54,4.54,4.19,5.37,2.66,2.67,2.66
38.95,-1.85,-4.51,-1.85,-4.51,4.51,4.14,5.29,2.67,2.66,2.66
39.34,-1.82,-4.48,-1.82,-4.49,4.48,4.10,5.22,2.67,2.66,2.66
39.74,-1.82,-4.48,-1.80,-4.46,4.46,4.06,5.15,2.64,2.66,2.66
40.14,-1.77,-4.43,-1.78,-4.44,4.44,4.02,5.07,2.67,2.66,2.66
40.54,-1.77,-4.42,-1.76,-4.41,4.41,3.99,5.01,2.65,2.66,2.66
40.94,-1.73,-4.38,-1.74,-4.39,4.39,3.95,4.94,2.67,2.66,2.65
41.35,-1.73,-4.38,-1.73,-4.38,4.38,3.92,4.88,2.65,2.65,2.65
41.76,-1.73,-4.38,-1.71,-4.36,4.36,3.88,4.82,2.64,2.65,2.65
42.18,-1.70,-4.34,-1.70,-4.35,4.35,3.85,4.76,2.65,2.65,2.65
42.60,-1.69,-4.33,-1.69,-4.34,4.34,3.82,4.71,2.65,2.65,2.64
43.03,-1.69,-4.33,-1.68,-4.33,4.33,3.79,4.66,2.65,2.65,2.64
43.46,-1.69,-4.33,-1.69,-4.32,4.33,3.77,4.61,2.64,2.64,2.64
43.90,-1.69,-4.32,-1.69,-4.32,4.32,3.74,4.57,2.63,2.63,2.64
44.33,-1.69,-4.32,-1.69,-4.32,4.31,3.72,4.53,2.63,2.62,2.63
44.78,-1.69,-4.32,-1.69,-4.31,4.30,3.70,4.50,2.62,2.62,2.63
45.23,-1.69,-4.31,-1.68,-4.30,4.30,3.68,4.46,2.61,2.62,2.62
45.68,-1.66,-4.28,-1.67,-4.29,4.29,3.67,4.44,2.63,2.62,2.62
46.13,-1.66,-4.27,-1.65,-4.27,4.28,3.65,4.41,2.62,2.62,2.62
46.60,-1.64,-4.25,-1.64,-4.25,4.26,3.64,4.39,2.63,2.62,2.61
47.06,-1.64,-4.24,-1.64,-4.25,4.25,3.63,4.37,2.62,2.61,2.61
47.53,-1.64,-4.24,-1.64,-4.24,4.24,3.63,4.35,2.60,2.60,2.60
48.01,-1.64,-4.24,-1.63,-4.23,4.23,3.62,4.34,2.59,2.59,2.60
48.49,-1.64,-4.23,-1.62,-4.22,4.21,3.62,4.33,2.57,2.59,2.59
48.97,-1.60,-4.18,-1.61,-4.20,4.20,3.62,4.32,2.60,2.58,2.59
49.46,-1.60,-4.18,-1.60,-4.18,4.18,3.63,4.32,2.58,2.58,2.58
49.96,-1.60,-4.17,-1.58,-4.16,4.16,3.63,4.32,2.56,2.58,2.58
50.46,-1.56,-4.13,-1.57,-4.14,4.14,3.64,4.32,2.58,2.57,2.57
50.96,-1.56,-4.12,-1.55,-4.11,4.11,3.66,4.32,2.56,2.56,2.56
51.47,-1.54,-4.09,-1.53,-4.09,4.09,3.67,4.33,2.55,2.56,2.56
51.99,-1.51,-4.06,-1.52,-4.07,4.06,3.69,4.33,2.56,2.54,2.55
52.51,-1.51,-4.05,-1.50,-4.04,4.04,3.71,4.34,2.53,2.54,2.54
53.03,-1.49,-4.02,-1.48,-4.02,4.02,3.74,4.34,2.53,2.54,2.53
53.56,-1.47,-3.99,-1.47,-4.00,4.00,3.76,4.35,2.54,2.53,2.53
54.10,-1.47,-3.98,-1.46,-3.98,3.99,3.79,4.36,2.52,2.53,2.52
54.64,-1.47,-3.98,-1.47,-3.98,3.98,3.83,4.37,2.51,2.51,2.51
55.18,-1.47,-3.97,-1.48,-3.98,3.98,3.86,4.37,2.51,2.50,2.50
55.74,-1.51,-4.00,-1.49,-3.98,3.98,3.90,4.38,2.47,2.49,2.49
56.29,-1.51,-3.99,-1.51,-3.99,3.98,3.93,4.39,2.48,2.48,2.48
56.86,-1.51,-3.98,-1.52,-4.00,3.99,3.97,4.39,2.49,2.47,2.47
57.42,-1.56,-4.02,-1.54,-4.00,4.01,4.01,4.39,2.45,2.46,2.46
58.00,-1.57,-4.02,-1.57,-4.02,4.02,4.05,4.39,2.45,2.45,2.45
58.58,-1.60,-4.03,-1.60,-4.04,4.04,4.09,4.38,2.44,2.44,2.44
59.16,-1.64,-4.06,-1.63,-4.05,4.06,4.13,4.38,2.42,2.43,2.43
59.76,-1.66,-4.07,-1.67,-4.08,4.08,4.16,4.37,2.42,2.41,2.41
60.35,-1.71,-4.11,-1.70,-4.10,4.10,4.19,4.35,2.39,2.40,2.40
60.96,-1.74,-4.12,-1.74,-4.12,4.12,4.22,4.33,2.39,2.39,2.39
61.57,-1.77,-4.14,-1.78,-4.15,4.15,4.24,4.31,2.38,2.37,2.37
62.18,-1.82,-4.18,-1.81,-4.17,4.17,4.26,4.28,2.35,2.36,2.36
62.80,-1.85,-4.19,-1.84,-4.19,4.19,4.27,4.25,2.34,2.34,2.35
63.43,-1.88,-4.21,-1.88,-4.21,4.21,4.28,4.21,2.33,2.33,2.33
64.07,-1.90,-4.21,-1.90,-4.22,4.22,4.27,4.17,2.32,2.32,2.31
64.71,-1.94,-4.24,-1.93,-4.23,4.23,4.26,4.13,2.29,2.30,2.30
65.35,-1.95,-4.23,-1.96,-4.24,4.24,4.24,4.08,2.29,2.28,2.28
66.01,-1.99,-4.25,-1.98,-4.24,4.24,4.21,4.03,2.25,2.26,2.26
66.67,-1.99,-4.23,-1.99,-4.24,4.24,4.17,3.97,2.25,2.25,2.25
67.33,-1.99,-4.22,-2.00,-4.23,4.23,4.12,3.91,2.24,2.23,2.23
68.01,-2.01,-4.22,-1.99,-4.20,4.21,4.07,3.85,2.20,2.22,2.21
68.69,-1.99,-4.18,-1.99,-4.19,4.19,4.00,3.78,2.20,2.19,2.19
69.37,-1.99,-4.16,-1.99,-4.16,4.16,3.93,3.71,2.17,2.17,2.17
70.07,-1.98,-4.13,-1.97,-4.12,4.11,3.86,3.64,2.14,2.14,2.15
70.77,-1.95,-4.08,-1.94,-4.07,4.06,3.77,3.57,2.11,2.12,2.13
71.48,-1.89,-3.99,-1.90,-4.01,4.00,3.68,3.49,2.11,2.10,2.11
72.19,-1.85,-3.93,-1.84,-3.93,3.92,3.59,3.42,2.08,2.08,2.09
72.91,-1.79,-3.85,-1.78,-3.84,3.84,3.50,3.34,2.06,2.06,2.06
73.64,-1.72,-3.76,-1.72,-3.75,3.75,3.40,3.26,2.04,2.04,2.04
74.38,-1.64,-3.65,-1.64,-3.66,3.66,3.30,3.18,2.02,2.02,2.02
75.12,-1.57,-3.56,-1.57,-3.56,3.57,3.20,3.10,2.00,2.00,1.99
75.87,-1.50,-3.46,-1.50,-3.46,3.47,3.10,3.02,1.98,1.98,1.97
76.63,-1.44,-3.38,-1.43,-3.37,3.38,3.00,2.94,1.94,1.95,1.94
77.40,-1.37,-3.28,-1.37,-3.29,3.29,2.90,2.86,1.92,1.92,1.91
78.17,-1.32,-3.20,-1.32,-3.20,3.20,2.80,2.78,1.88,1.88,1.89
78.95,-1.27,-3.12,-1.26,-3.12,3.11,2.71,2.70,1.85,1.85,1.86
79.74,-1.20,-3.03,-1.20,-3.03,3.02,2.61,2.63,1.83,1.82,1.83
80.54,-1.14,-2.94,-1.14,-2.94,2.94,2.52,2.55,1.80,1.80,1.80
81.35,-1.09,-2.86,-1.08,-2.85,2.85,2.43,2.47,1.77,1.77,1.77
82.16,-1.03,-2.77,-1.03,-2.77,2.77,2.34,2.40,1.74,1.74,1.74
82.98,-0.97,-2.68,-0.97,-2.69,2.69,2.26,2.33,1.72,1.71,1.71
83.81,-0.93,-2.61,-0.92,-2.60,2.61,2.17,2.26,1.68,1.68,1.68
84.65,-0.88,-2.53,-0.88,-2.53,2.53,2.09,2.19,1.65,1.65,1.65
85.50,-0.84,-2.45,-0.84,-2.46,2.46,2.02,2.12,1.62,1.62,1.62
86.35,-0.81,-2.39,-0.80,-2.39,2.39,1.94,2.05,1.59,1.59,1.59
87.22,-0.78,-2.33,-0.77,-2.33,2.33,1.87,1.98,1.55,1.56,1.55
88.09,-0.75,-2.27,-0.75,-2.27,2.27,1.80,1.92,1.53,1.52,1.52
88.97,-0.73,-2.21,-0.73,-2.22,2.22,1.73,1.85,1.49,1.49,1.48
89.86,-0.73,-2.18,-0.71,-2.16,2.17,1.67,1.79,1.44,1.45,1.45
90.76,-0.70,-2.11,-0.70,-2.12,2.12,1.60,1.73,1.42,1.42,1.42
91.66,-0.69,-2.07,-0.69,-2.07,2.07,1.54,1.67,1.38,1.38,1.38
92.58,-0.69,-2.03,-0.68,-2.02,2.02,1.48,1.61,1.33,1.34,1.34
93.51,-0.66,-1.97,-0.66,-1.97,1.97,1.43,1.56,1.31,1.30,1.31
94.44,-0.65,-1.92,-0.64,-1.92,1.91,1.37,1.50,1.26,1.27,1.27
95.39,-0.62,-1.85,-0.62,-1.85,1.85,1.32,1.45,1.23,1.23,1.24
96.34,-0.59,-1.79,-0.59,-1.79,1.78,1.27,1.40,1.19,1.19,1.20
97.30,-0.56,-1.72,-0.55,-1.71,1.71,1.22,1.34,1.15,1.16,1.16
98.28,-0.50,-1.62,-0.51,-1.63,1.63,1.17,1.29,1.14,1.13,1.12
99.26,-0.47,-1.55,-0.46,-1.55,1.56,1.12,1.24,1.09,1.10,1.09
100.25,-0.43,-1.48,-0.43,-1.48,1.48,1.08,1.20,1.06,1.06,1.05
101.25,-0.39,-1.40,-0.40,-1.41,1.41,1.04,1.15,1.02,1.02,1.01
102.27,-0.38,-1.35,-0.37,-1.34,1.34,0.99,1.10,0.97,0.98,0.97
103.29,-0.34,-1.27,-0.34,-1.28,1.28,0.95,1.06,0.94,0.94,0.94
104.32,-0.32,-1.21,-0.32,-1.22,1.22,0.91,1.02,0.90,0.90,0.90
105.37,-0.30,-1.16,-0.30,-1.16,1.16,0.87,0.97,0.86,0.86,0.86
106.42,-0.30,-1.12,-0.28,-1.10,1.11,0.84,0.93,0.81,0.82,0.82
107.48,-0.26,-1.04,-0.27,-1.06,1.05,0.80,0.89,0.79,0.78,0.78
108.56,-0.26,-1.00,-0.26,-1.00,1.00,0.77,0.85,0.74,0.74,0.75
109.64,-0.26,-0.96,-0.24,-0.94,0.95,0.73,0.81,0.69,0.71,0.71
110.74,-0.21,-0.88,-0.23,-0.90,0.89,0.70,0.78,0.69,0.67,0.67
111.85,-0.21,-0.84,-0.21,-0.84,0.84,0.66,0.74,0.64,0.63,0.63
112.97,-0.21,-0.80,-0.19,-0.79,0.79,0.63,0.71,0.59,0.60,0.60
114.10,-0.19,-0.75,-0.19,-0.75,0.74,0.60,0.67,0.56,0.56,0.56
115.24,-0.17,-0.69,-0.18,-0.70,0.70,0.57,0.64,0.53,0.52,0.52
116.39,-0.17,-0.65,-0.17,-0.65,0.65,0.54,0.60,0.48,0.48,0.48
117.55,-0.17,-0.62,-0.15,-0.60,0.60,0.51,0.57,0.44,0.45,0.45
118.73,-0.14,-0.55,-0.14,-0.56,0.56,0.49,0.54,0.42,0.42,0.41
119.92,-0.13,-0.50,-0.13,-0.51,0.51,0.46,0.51,0.39,0.38,0.38
121.12,-0.13,-0.47,-0.13,-0.47,0.47,0.43,0.48,0.34,0.34,0.34
122.33,-0.13,-0.43,-0.13,-0.43,0.42,0.41,0.45,0.30,0.30,0.31
123.55,-0.13,-0.40,-0.12,-0.39,0.38,0.38,0.43,0.25,0.26,0.27
124.79,-0.11,-0.35,-0.10,-0.34,0.34,0.35,0.40,0.23,0.24,0.24
126.03,-0.08,-0.28,-0.09,-0.29,0.30,0.33,0.37,0.22,0.21,0.20
127.29,-0.08,-0.25,-0.08,-0.25,0.26,0.31,0.35,0.18,0.18,0.17
128.57,-0.08,-0.22,-0.07,-0.21,0.22,0.28,0.32,0.14,0.15,0.14
129.85,-0.08,-0.18,-0.08,-0.19,0.18,0.26,0.30,0.10,0.10,0.11
131.15,-0.08,-0.15,-0.08,-0.15,0.14,0.24,0.28,0.06,0.06,0.07
132.46,-0.08,-0.12,-0.07,-0.11,0.10,0.21,0.25,0.03,0.03,0.04
133.79,-0.06,-0.07,-0.06,-0.07,0.07,0.19,0.23,0.01,0.01,0.01
135.12,-0.05,-0.03,-0.05,-0.03,0.03,0.17,0.21,-0.01,-0.01,-0.02
136.48,-0.04,0.01,-0.04,0.01,0.00,0.15,0.19,-0.04,-0.04,-0.05
137.84,-0.04,0.04,-0.04,0.04,-0.03,0.13,0.17,-0.07,-0.07,-0.08
139.22,-0.04,0.07,-0.04,0.07,-0.07,0.11,0.15,-0.10,-0.10,-0.10
140.61,-0.04,0.09,-0.04,0.09,-0.10,0.09,0.13,-0.13,-0.13,-0.13
142.02,-0.04,0.12,-0.04,0.12,-0.12,0.07,0.11,-0.16,-0.16,-0.16
143.44,-0.04,0.15,-0.04,0.15,-0.15,0.05,0.09,-0.19,-0.19,-0.19
144.87,-0.04,0.17,-0.04,0.17,-0.18,0.03,0.07,-0.21,-0.21,-0.21
146.32,-0.04,0.20,-0.04,0.20,-0.20,0.01,0.05,-0.24,-0.24,-0.24
147.78,-0.04,0.22,-0.04,0.22,-0.22,-0.01,0.03,-0.26,-0.26,-0.26
149.26,-0.04,0.25,-0.04,0.25,-0.25,-0.03,0.01,-0.28,-0.28,-0.29
150.75,-0.04,0.27,-0.04,0.27,-0.27,-0.05,-0.01,-0.31,-0.31,-0.31
152.26,-0.04,0.30,-0.04,0.29,-0.30,-0.06,-0.03,-0.33,-0.33,-0.33
153.78,-0.04,0.32,-0.04,0.32,-0.32,-0.08,-0.04,-0.36,-0.36,-0.35
155.32,-0.04,0.34,-0.03,0.34,-0.35,-0.10,-0.06,-0.39,-0.38,-0.38
156.88,-0.03,0.37,-0.03,0.37,-0.38,-0.12,-0.08,-0.40,-0.40,-0.40
158.44,-0.02,0.40,-0.01,0.40,-0.40,-0.13,-0.10,-0.42,-0.42,-0.42
160.03,0.00,0.44,-0.00,0.44,-0.43,-0.15,-0.12,-0.43,-0.43,-0.44
161.63,0.00,0.46,0.00,0.46,-0.45,-0.17,-0.14,-0.45,-0.45,-0.46
163.24,0.00,0.48,0.00,0.48,-0.48,-0.18,-0.16,-0.47,-0.47,-0.48
164.88,0.00,0.50,0.00,0.50,-0.50,-0.20,-0.18,-0.49,-0.49,-0.50
166.53,0.00,0.52,0.00,0.52,-0.52,-0.22,-0.20,-0.51,-0.51,-0.51
168.19,0.00,0.53,0.00,0.53,-0.53,-0.23,-0.22,-0.53,-0.53,-0.53
169.87,0.00,0.55,0.00,0.55,-0.55,-0.25,-0.24,-0.55,-0.55,-0.55
171.57,0.00,0.57,0.00,0.57,-0.57,-0.26,-0.26,-0.57,-0.57,-0.56
173.29,0.00,0.58,0.01,0.59,-0.59,-0.28,-0.28,-0.59,-0.59,-0.58
175.02,0.02,0.62,0.02,0.61,-0.62,-0.30,-0.30,-0.59,-0.60,-0.59
176.77,0.02,0.63,0.03,0.64,-0.64,-0.31,-0.33,-0.62,-0.61,-0.61
178.54,0.05,0.68,0.05,0.67,-0.66,-0.33,-0.35,-0.61,-0.62,-0.62
180.32,0.05,0.69,0.05,0.69,-0.68,-0.34,-0.37,-0.63,-0.63,-0.64
182.13,0.05,0.70,0.06,0.71,-0.70,-0.35,-0.39,-0.65,-0.64,-0.65
183.95,0.05,0.72,0.05,0.72,-0.72,-0.37,-0.42,-0.66,-0.66,-0.66
185.79,0.05,0.73,0.05,0.73,-0.73,-0.38,-0.44,-0.68,-0.68,-0.68
187.65,0.05,0.74,0.05,0.74,-0.74,-0.40,-0.46,-0.69,-0.69,-0.69
189.52,0.05,0.75,0.05,0.75,-0.75,-0.41,-0.49,-0.70,-0.70,-0.70
191.42,0.05,0.76,0.05,0.76,-0.76,-0.43,-0.51,-0.71,-0.71,-0.71
193.33,0.05,0.77,0.05,0.77,-0.77,-0.44,-0.54,-0.72,-0.72,-0.72
195.27,0.05,0.78,0.05,0.78,-0.78,-0.45,-0.56,-0.73,-0.73,-0.73
197.22,0.05,0.79,0.05,0.79,-0.79,-0.47,-0.59,-0.74,-0.74,-0.74
199.19,0.05,0.80,0.05,0.80,-0.80,-0.48,-0.61,-0.75,-0.75,-0.75
201.18,0.05,0.81,0.05,0.81,-0.81,-0.49,-0.64,-0.76,-0.76,-0.76
203.19,0.05,0.82,0.05,0.82,-0.82,-0.51,-0.66,-0.77,-0.77,-0.77
205.23,0.05,0.83,0.05,0.83,-0.83,-0.52,-0.69,-0.78,-0.78,-0.78
207.28,0.05,0.84,0.05,0.84,-0.84,-0.53,-0.71,-0.79,-0.79,-0.79
209.35,0.05,0.85,0.05,0.85,-0.85,-0.54,-0.74,-0.79,-0.79,-0.79
211.44,0.05,0.85,0.06,0.86,-0.85,-0.56,-0.76,-0.80,-0.80,-0.80
213.56,0.05,0.86,0.05,0.86,-0.85,-0.57,-0.79,-0.80,-0.80,-0.81
215.69,0.05,0.87,0.05,0.86,-0.86,-0.58,-0.81,-0.80,-0.81,-0.81
217.85,0.03,0.85,0.04,0.86,-0.86,-0.59,-0.83,-0.83,-0.82,-0.82
220.03,0.02,0.85,0.03,0.85,-0.86,-0.60,-0.86,-0.84,-0.83,-0.83
222.23,0.02,0.86,0.02,0.86,-0.86,-0.61,-0.88,-0.84,-0.84,-0.83
224.45,0.02,0.86,0.02,0.86,-0.86,-0.63,-0.90,-0.84,-0.84,-0.84
226.70,0.02,0.87,0.02,0.86,-0.86,-0.64,-0.92,-0.84,-0.84,-0.84
228.96,0.00,0.85,0.01,0.86,-0.86,-0.65,-0.94,-0.86,-0.85,-0.85
231.25,0.00,0.86,0.00,0.86,-0.86,-0.66,-0.96,-0.86,-0.86,-0.86
233.57,0.00,0.86,0.00,0.86,-0.86,-0.67,-0.97,-0.86,-0.86,-0.86
235.90,0.00,0.87,0.00,0.87,-0.87,-0.68,-0.99,-0.86,-0.86,-0.86
238.26,0.00,0.87,0.00,0.87,-0.87,-0.69,-1.00,-0.87,-0.87,-0.87
240.64,0.00,0.88,0.00,0.88,-0.88,-0.70,-1.02,-0.87,-0.87,-0.87
243.05,0.00,0.88,0.00,0.88,-0.88,-0.71,-1.03,-0.88,-0.88,-0.88
245.48,0.00,0.88,0.00,0.88,-0.89,-0.72,-1.04,-0.88,-0.88,-0.88
247.93,0.00,0.89,0.00,0.89,-0.89,-0.73,-1.04,-0.89,-0.89,-0.88
250.41,0.00,0.89,0.00,0.89,-0.89,-0.74,-1.05,-0.89,-0.89,-0.89
252.92,0.00,0.89,0.01,0.90,-0.89,-0.75,-1.06,-0.89,-0.89,-0.89
255.45,0.00,0.90,0.00,0.90,-0.89,-0.76,-1.06,-0.89,-0.88,-0.89
258.00,0.00,0.90,-0.00,0.89,-0.89,-0.77,-1.06,-0.88,-0.89,-0.90
260.58,-0.02,0.88,-0.02,0.88,-0.88,-0.78,-1.06,-0.90,-0.90,-0.90
263.19,-0.04,0.87,-0.03,0.87,-0.88,-0.78,-1.06,-0.92,-0.91,-0.90
265.82,-0.04,0.87,-0.04,0.87,-0.88,-0.79,-1.05,-0.91,-0.92,-0.90
268.48,-0.04,0.87,-0.04,0.87,-0.88,-0.80,-1.05,-0.91,-0.92,-0.91
271.16,-0.04,0.87,-0.04,0.87,-0.87,-0.81,-1.04,-0.91,-0.91,-0.91
273.87,-0.04,0.87,-0.04,0.87,-0.87,-0.82,-1.04,-0.91,-0.91,-0.91
276.61,-0.04,0.88,-0.03,0.88,-0.87,-0.82,-1.03,-0.91,-0.91,-0.91
279.38,-0.04,0.88,-0.04,0.88,-0.87,-0.83,-1.02,-0.90,-0.90,-0.91
282.17,-0.04,0.88,-0.04,0.87,-0.86,-0.84,-1.01,-0.90,-0.91,-0.92
284.99,-0.06,0.86,-0.06,0.86,-0.86,-0.85,-1.00,-0.92,-0.92,-0.92
287.84,-0.08,0.84,-0.07,0.85,-0.86,-0.85,-0.99,-0.93,-0.93,-0.92
290.72,-0.08,0.84,-0.08,0.84,-0.85,-0.86,-0.98,-0.93,-0.93,-0.92
293.63,-0.08,0.84,-0.08,0.84,-0.85,-0.87,-0.97,-0.93,-0.93,-0.92
296.57,-0.08,0.85,-0.08,0.85,-0.85,-0.87,-0.96,-0.92,-0.92,-0.92
299.53,-0.08,0.85,-0.08,0.85,-0.84,-0.88,-0.94,-0.92,-0.92,-0.92
302.53,-0.08,0.85,-0.07,0.85,-0.84,-0.88,-0.93,-0.91,-0.91,-0.92
305.55,-0.08,0.85,-0.08,0.84,-0.83,-0.89,-0.92,-0.91,-0.91,-0.93
308.61,-0.09,0.84,-0.09,0.83,-0.83,-0.90,-0.91,-0.92,-0.92,-0.93
311.69,-0.12,0.81,-0.11,0.82,-0.82,-0.90,-0.90,-0.94,-0.93,-0.93
314.81,-0.13,0.80,-0.12,0.80,-0.82,-0.91,-0.88,-0.94,-0.94,-0.93
317.96,-0.13,0.80,-0.13,0.80,-0.81,-0.91,-0.87,-0.94,-0.94,-0.93
321.14,-0.13,0.80,-0.13,0.80,-0.80,-0.91,-0.86,-0.93,-0.93,-0.93
324.35,-0.13,0.80,-0.12,0.80,-0.80,-0.92,-0.85,-0.92,-0.92,-0.93
327.59,-0.13,0.80,-0.13,0.80,-0.79,-0.92,-0.84,-0.92,-0.92,-0.93
330.87,-0.13,0.80,-0.13,0.80,-0.79,-0.93,-0.83,-0.91,-0.92,-0.93
334.18,-0.15,0.78,-0.14,0.79,-0.78,-0.93,-0.82,-0.93,-0.93,-0.93
337.52,-0.16,0.77,-0.16,0.77,-0.78,-0.93,-0.81,-0.94,-0.93,-0.93
340.90,-0.17,0.76,-0.16,0.76,-0.77,-0.94,-0.81,-0.94,-0.94,-0.93
344.30,-0.17,0.76,-0.17,0.76,-0.77,-0.94,-0.80,-0.94,-0.94,-0.93
347.75,-0.17,0.76,-0.17,0.76,-0.77,-0.94,-0.79,-0.93,-0.93,-0.93
351.23,-0.17,0.76,-0.17,0.76,-0.76,-0.94,-0.79,-0.93,-0.93,-0.93
354.74,-0.17,0.76,-0.16,0.76,-0.76,-0.95,-0.78,-0.93,-0.92,-0.93
358.28,-0.17,0.76,-0.17,0.76,-0.75,-0.95,-0.78,-0.92,-0.92,-0.93
361.87,-0.17,0.76,-0.17,0.76,-0.75,-0.95,-0.77,-0.92,-0.92,-0.93
365.49,-0.19,0.74,-0.18,0.75,-0.74,-0.95,-0.77,-0.93,-0.92,-0.93
369.14,-0.19,0.74,-0.19,0.74,-0.74,-0.95,-0.77,-0.92,-0.93,-0.93
372.83,-0.21,0.72,-0.20,0.73,-0.73,-0.95,-0.77,-0.94,-0.93,-0.93
376.56,-0.21,0.72,-0.21,0.72,-0.73,-0.95,-0.76,-0.94,-0.94,-0.93
380.33,-0.21,0.72,-0.21,0.72,-0.73,-0.96,-0.76,-0.93,-0.93,-0.93
384.13,-0.21,0.72,-0.20,0.73,-0.73,-0.96,-0.76,-0.94,-0.93,-0.93
387.97,-0.19,0.74,-0.20,0.73,-0.73,-0.96,-0.76,-0.92,-0.93,-0.93
391.85,-0.19,0.74,-0.19,0.74,-0.74,-0.96,-0.77,-0.92,-0.92,-0.93
395.77,-0.19,0.74,-0.18,0.75,-0.74,-0.96,-0.77,-0.93,-0.92,-0.92
399.73,-0.17,0.76,-0.17,0.75,-0.75,-0.95,-0.77,-0.91,-0.92,-0.92
403.72,-0.17,0.76,-0.17,0.76,-0.75,-0.95,-0.77,-0.92,-0.92,-0.92
407.76,-0.17,0.76,-0.16,0.76,-0.76,-0.95,-0.77,-0.92,-0.92,-0.92
411.84,-0.17,0.76,-0.17,0.76,-0.76,-0.95,-0.78,-0.92,-0.92,-0.92
415.96,-0.17,0.75,-0.17,0.75,-0.76,-0.95,-0.78,-0.92,-0.92,-0.92
420.12,-0.17,0.75,-0.17,0.75,-0.76,-0.95,-0.78,-0.92,-0.92,-0.92
424.32,-0.17,0.75,-0.17,0.75,-0.75,-0.95,-0.79,-0.92,-0.92,-0.92
428.56,-0.17,0.75,-0.16,0.75,-0.75,-0.94,-0.79,-0.92,-0.92,-0.92
432.85,-0.17,0.75,-0.17,0.75,-0.75,-0.94,-0.79,-0.91,-0.91,-0.92
437.18,-0.17,0.75,-0.17,0.75,-0.74,-0.94,-0.80,-0.91,-0.91,-0.92
441.55,-0.19,0.73,-0.18,0.74,-0.73,-0.94,-0.80,-0.92,-0.91,-0.92
445.96,-0.19,0.73,-0.19,0.72,-0.73,-0.93,-0.81,-0.91,-0.92,-0.92
450.42,-0.21,0.71,-0.20,0.71,-0.72,-0.93,-0.81,-0.93,-0.92,-0.91
454.93,-0.21,0.71,-0.21,0.71,-0.71,-0.93,-0.81,-0.92,-0.92,-0.91
459.48,-0.21,0.71,-0.21,0.70,-0.71,-0.92,-0.81,-0.91,-0.92,-0.91
464.07,-0.21,0.70,-0.21,0.70,-0.70,-0.92,-0.82,-0.91,-0.91,-0.91
468.71,-0.21,0.70,-0.21,0.70,-0.70,-0.92,-0.82,-0.91,-0.91,-0.91
473.40,-0.21,0.70,-0.21,0.70,-0.70,-0.91,-0.82,-0.91,-0.91,-0.91
478.13,-0.21,0.70,-0.21,0.70,-0.70,-0.91,-0.82,-0.91,-0.91,-0.91
482.91,-0.21,0.70,-0.20,0.70,-0.71,-0.90,-0.82,-0.91,-0.91,-0.91
