frequency,raw,error,smoothed,error_smoothed,equalization,parametric_eq,fixed_band_eq,equalized_raw,equalized_smoothed,target
20.00,12.12,4.11,12.12,4.11,-4.11,-4.07,-1.77,8.01,8.01,8.01
20.20,12.12,4.14,12.12,4.13,-4.13,-4.08,-1.82,7.99,7.99,7.98
20.40,12.11,4.15,12.11,4.15,-4.15,-4.09,-1.87,7.96,7.96,7.96
20.61,12.10,4.16,12.10,4.16,-4.17,-4.09,-1.92,7.93,7.94,7.94
20.81,12.10,4.18,12.10,4.18,-4.18,-4.10,-1.98,7.92,7.92,7.92
21.02,12.09,4.19,12.09,4.19,-4.19,-4.11,-2.04,7.90,7.90,7.90
21.23,12.07,4.19,12.07,4.19,-4.20,-4.11,-2.09,7.87,7.88,7.88
21.44,12.06,4.20,12.06,4.20,-4.20,-4.11,-2.15,7.86,7.86,7.86
21.66,12.04,4.20,12.04,4.20,-4.20,-4.12,-2.22,7.84,7.84,7.84
21.87,12.03,4.20,12.03,4.20,-4.20,-4.12,-2.28,7.83,7.83,7.83
22.09,12.01,4.20,12.01,4.20,-4.19,-4.12,-2.35,7.82,7.82,7.81
22.31,11.99,4.19,11.99,4.19,-4.18,-4.12,-2.41,7.81,7.80,7.80
22.54,11.96,4.17,11.96,4.17,-4.17,-4.13,-2.48,7.79,7.79,7.79
22.76,11.93,4.15,11.93,4.15,-4.15,-4.13,-2.55,7.78,7.78,7.78
22.99,11.90,4.13,11.90,4.13,-4.13,-4.12,-2.63,7.76,7.76,7.77
23.22,11.87,4.11,11.87,4.11,-4.11,-4.12,-2.70,7.76,7.75,7.76
23.45,11.84,4.09,11.84,4.09,-4.09,-4.12,-2.77,7.75,7.75,7.74
23.69,11.81,4.08,11.81,4.08,-4.07,-4.12,-2.85,7.74,7.74,7.73
23.92,11.79,4.06,11.79,4.06,-4.06,-4.11,-2.93,7.73,7.73,7.73
24.16,11.77,4.05,11.77,4.04,-4.05,-4.11,-3.01,7.72,7.72,7.72
24.40,11.75,4.03,11.75,4.03,-4.05,-4.11,-3.09,7.70,7.71,7.72
24.65,11.75,4.04,11.75,4.03,-4.05,-4.10,-3.17,7.70,7.70,7.71
24.89,11.75,4.04,11.75,4.04,-4.06,-4.09,-3.26,7.69,7.69,7.71
25.14,11.76,4.06,11.76,4.06,-4.07,-4.09,-3.34,7.69,7.70,7.70
25.39,11.78,4.09,11.78,4.08,-4.07,-4.08,-3.42,7.70,7.70,7.69
25.65,11.79,4.10,11.78,4.10,-4.08,-4.07,-3.51,7.71,7.70,7.69
25.91,11.78,4.10,11.78,4.10,-4.09,-4.07,-3.59,7.69,7.70,7.68
26.16,11.77,4.09,11.77,4.09,-4.08,-4.06,-3.67,7.68,7.68,7.68
26.43,11.75,4.07,11.75,4.08,-4.08,-4.05,-3.76,7.67,7.67,7.68
26.69,11.73,4.06,11.73,4.06,-4.06,-4.04,-3.84,7.67,7.67,7.66
26.96,11.70,4.04,11.70,4.04,-4.04,-4.03,-3.92,7.66,7.66,7.66
27.23,11.67,4.02,11.67,4.01,-4.02,-4.02,-4.00,7.65,7.65,7.65
27.50,11.64,3.99,11.64,3.99,-3.99,-4.01,-4.08,7.65,7.65,7.65
27.77,11.61,3.96,11.61,3.96,-3.96,-4.00,-4.15,7.65,7.65,7.65
28.05,11.58,3.94,11.58,3.94,-3.94,-3.98,-4.22,7.64,7.64,7.64
28.33,11.55,3.91,11.55,3.91,-3.91,-3.97,-4.29,7.64,7.64,7.64
28.62,11.52,3.88,11.52,3.89,-3.89,-3.96,-4.35,7.63,7.63,7.64
28.90,11.49,3.86,11.49,3.86,-3.86,-3.95,-4.41,7.63,7.63,7.63
29.19,11.47,3.85,11.47,3.84,-3.84,-3.94,-4.47,7.63,7.63,7.62
29.48,11.45,3.83,11.45,3.82,-3.83,-3.92,-4.52,7.62,7.62,7.62
29.78,11.43,3.81,11.43,3.81,-3.82,-3.91,-4.56,7.61,7.61,7.62
30.08,11.42,3.80,11.42,3.81,-3.81,-3.90,-4.60,7.61,7.61,7.62
30.38,11.42,3.81,11.42,3.81,-3.82,-3.88,-4.64,7.60,7.60,7.61
30.68,11.42,3.81,11.42,3.81,-3.82,-3.87,-4.67,7.60,7.60,7.61
30.99,11.43,3.83,11.43,3.83,-3.83,-3.86,-4.69,7.60,7.60,7.60
31.30,11.45,3.85,11.45,3.85,-3.85,-3.84,-4.70,7.60,7.60,7.60
31.61,11.46,3.87,11.46,3.86,-3.86,-3.83,-4.71,7.60,7.60,7.59
31.93,11.47,3.88,11.46,3.88,-3.87,-3.82,-4.71,7.60,7.60,7.59
32.24,11.46,3.87,11.46,3.88,-3.87,-3.80,-4.71,7.58,7.59,7.59
32.57,11.46,3.89,11.46,3.88,-3.88,-3.79,-4.70,7.58,7.58,7.57
32.89,11.45,3.88,11.45,3.87,-3.87,-3.78,-4.68,7.58,7.57,7.57
33.22,11.43,3.86,11.43,3.86,-3.86,-3.76,-4.66,7.57,7.57,7.57
33.55,11.40,3.84,11.40,3.84,-3.84,-3.75,-4.64,7.55,7.56,7.56
33.89,11.38,3.83,11.38,3.82,-3.83,-3.74,-4.61,7.55,7.55,7.55
34.23,11.35,3.80,11.35,3.80,-3.80,-3.72,-4.57,7.55,7.55,7.55
34.57,11.32,3.78,11.32,3.78,-3.78,-3.71,-4.53,7.54,7.54,7.54
34.92,11.29,3.75,11.29,3.75,-3.75,-3.70,-4.49,7.54,7.54,7.54
35.27,11.26,3.73,11.26,3.73,-3.73,-3.68,-4.45,7.53,7.53,7.53
35.62,11.23,3.71,11.23,3.71,-3.70,-3.67,-4.40,7.53,7.53,7.52
35.97,11.20,3.68,11.20,3.68,-3.68,-3.66,-4.35,7.52,7.52,7.52
36.33,11.17,3.66,11.17,3.66,-3.66,-3.65,-4.30,7.51,7.51,7.51
36.70,11.15,3.64,11.14,3.64,-3.64,-3.64,-4.25,7.51,7.51,7.51
37.06,11.12,3.61,11.12,3.62,-3.63,-3.62,-4.20,7.49,7.50,7.51
37.43,11.11,3.62,11.11,3.61,-3.62,-3.61,-4.15,7.49,7.49,7.49
37.81,11.10,3.61,11.10,3.61,-3.62,-3.60,-4.09,7.48,7.48,7.49
38.19,11.09,3.61,11.10,3.61,-3.62,-3.59,-4.04,7.47,7.47,7.48
38.57,11.10,3.63,11.10,3.63,-3.63,-3.58,-3.99,7.46,7.46,7.47
38.95,11.11,3.64,11.11,3.64,-3.65,-3.57,-3.94,7.46,7.46,7.46
39.34,11.12,3.67,11.12,3.67,-3.67,-3.56,-3.89,7.45,7.45,7.45
39.74,11.13,3.68,11.13,3.69,-3.68,-3.55,-3.84,7.45,7.45,7.45
40.14,11.14,3.71,11.14,3.70,-3.69,-3.54,-3.80,7.44,7.44,7.43
40.54,11.14,3.71,11.14,3.71,-3.70,-3.53,-3.75,7.44,7.43,7.43
40.94,11.13,3.71,11.13,3.71,-3.71,-3.52,-3.71,7.42,7.43,7.42
41.35,11.12,3.71,11.12,3.70,-3.70,-3.52,-3.67,7.42,7.42,7.41
41.76,11.10,3.69,11.10,3.69,-3.69,-3.51,-3.63,7.41,7.41,7.41
42.18,11.08,3.68,11.08,3.68,-3.68,-3.50,-3.60,7.40,7.40,7.40
42.60,11.06,3.66,11.06,3.66,-3.66,-3.49,-3.56,7.40,7.40,7.40
43.03,11.03,3.63,11.03,3.63,-3.63,-3.49,-3.53,7.39,7.40,7.40
43.46,11.00,3.61,11.00,3.61,-3.61,-3.48,-3.50,7.39,7.39,7.39
43.90,10.97,3.58,10.97,3.58,-3.59,-3.48,-3.48,7.38,7.38,7.39
44.33,10.94,3.56,10.94,3.56,-3.56,-3.47,-3.45,7.38,7.38,7.38
44.78,10.91,3.54,10.91,3.54,-3.54,-3.47,-3.43,7.37,7.37,7.37
45.23,10.88,3.52,10.88,3.52,-3.51,-3.46,-3.41,7.37,7.37,7.36
45.68,10.85,3.50,10.85,3.49,-3.49,-3.46,-3.40,7.36,7.35,7.35
46.13,10.82,3.47,10.82,3.48,-3.48,-3.46,-3.39,7.34,7.34,7.35
46.60,10.80,3.46,10.80,3.46,-3.47,-3.45,-3.37,7.33,7.33,7.34
47.06,10.79,3.46,10.78,3.46,-3.47,-3.45,-3.37,7.32,7.32,7.33
47.53,10.77,3.46,10.77,3.46,-3.47,-3.45,-3.36,7.30,7.30,7.31
48.01,10.77,3.47,10.77,3.47,-3.48,-3.45,-3.36,7.29,7.29,7.30
48.49,10.78,3.49,10.78,3.49,-3.50,-3.45,-3.36,7.28,7.28,7.29
48.97,10.79,3.51,10.79,3.51,-3.51,-3.45,-3.36,7.28,7.28,7.28
49.46,10.80,3.53,10.80,3.53,-3.53,-3.45,-3.36,7.27,7.27,7.27
49.96,10.81,3.55,10.81,3.55,-3.54,-3.45,-3.37,7.27,7.26,7.26
50.46,10.81,3.57,10.81,3.56,-3.55,-3.45,-3.37,7.26,7.25,7.24
50.96,10.80,3.57,10.80,3.57,-3.56,-3.46,-3.38,7.24,7.24,7.23
51.47,10.79,3.56,10.79,3.56,-3.56,-3.46,-3.39,7.23,7.23,7.23
51.99,10.77,3.55,10.77,3.56,-3.55,-3.46,-3.40,7.21,7.22,7.22
52.51,10.75,3.55,10.75,3.55,-3.54,-3.47,-3.42,7.20,7.20,7.20
53.03,10.72,3.53,10.72,3.53,-3.53,-3.47,-3.43,7.19,7.19,7.19
53.56,10.69,3.52,10.69,3.51,-3.51,-3.48,-3.45,7.18,7.18,7.17
54.10,10.66,3.49,10.66,3.49,-3.50,-3.48,-3.46,7.16,7.16,7.17
54.64,10.63,3.48,10.63,3.48,-3.48,-3.49,-3.48,7.15,7.15,7.15
55.18,10.60,3.46,10.60,3.46,-3.46,-3.50,-3.50,7.14,7.14,7.14
55.74,10.57,3.45,10.57,3.45,-3.44,-3.50,-3.52,7.12,7.13,7.12
56.29,10.54,3.43,10.54,3.43,-3.43,-3.51,-3.53,7.11,7.11,7.11
56.86,10.52,3.42,10.52,3.42,-3.42,-3.52,-3.55,7.10,7.10,7.10
57.42,10.49,3.41,10.49,3.41,-3.42,-3.53,-3.57,7.07,7.08,7.08
58.00,10.48,3.41,10.48,3.41,-3.42,-3.54,-3.58,7.06,7.06,7.07
58.58,10.46,3.41,10.46,3.41,-3.42,-3.55,-3.60,7.04,7.04,7.05
59.16,10.46,3.43,10.46,3.43,-3.44,-3.56,-3.61,7.02,7.02,7.03
59.76,10.46,3.44,10.46,3.45,-3.46,-3.57,-3.63,7.00,7.01,7.02
60.35,10.47,3.47,10.47,3.47,-3.48,-3.58,-3.64,6.99,6.99,7.00
60.96,10.48,3.51,10.48,3.50,-3.50,-3.59,-3.65,6.98,6.98,6.97
61.57,10.48,3.53,10.48,3.53,-3.52,-3.61,-3.66,6.96,6.96,6.95
62.18,10.48,3.55,10.48,3.55,-3.54,-3.62,-3.67,6.94,6.94,6.93
62.80,10.47,3.57,10.47,3.57,-3.56,-3.63,-3.68,6.91,6.91,6.90
63.43,10.45,3.57,10.45,3.57,-3.57,-3.65,-3.68,6.88,6.88,6.88
64.07,10.43,3.58,10.43,3.58,-3.58,-3.66,-3.68,6.85,6.85,6.85
64.71,10.40,3.57,10.40,3.58,-3.58,-3.68,-3.69,6.82,6.83,6.82
65.35,10.38,3.58,10.38,3.58,-3.58,-3.69,-3.69,6.80,6.80,6.80
66.01,10.35,3.58,10.35,3.58,-3.58,-3.71,-3.69,6.77,6.77,6.77
66.67,10.31,3.57,10.31,3.57,-3.57,-3.73,-3.69,6.74,6.74,6.74
67.33,10.28,3.57,10.28,3.57,-3.57,-3.74,-3.68,6.71,6.71,6.71
68.01,10.25,3.57,10.25,3.57,-3.57,-3.76,-3.68,6.68,6.68,6.68
68.69,10.22,3.57,10.22,3.57,-3.57,-3.78,-3.68,6.65,6.65,6.65
69.37,10.20,3.58,10.19,3.58,-3.58,-3.80,-3.68,6.62,6.62,6.62
70.07,10.17,3.59,10.17,3.59,-3.59,-3.82,-3.67,6.58,6.59,6.58
70.77,10.15,3.60,10.15,3.60,-3.60,-3.84,-3.67,6.55,6.55,6.55
71.48,10.14,3.61,10.13,3.61,-3.62,-3.86,-3.67,6.52,6.52,6.53
72.19,10.12,3.63,10.12,3.64,-3.64,-3.88,-3.66,6.48,6.48,6.49
72.91,10.12,3.67,10.12,3.66,-3.67,-3.90,-3.66,6.45,6.45,6.45
73.64,10.12,3.70,10.12,3.70,-3.70,-3.92,-3.66,6.41,6.42,6.42
74.38,10.13,3.74,10.13,3.74,-3.74,-3.94,-3.66,6.39,6.39,6.39
75.12,10.14,3.79,10.14,3.79,-3.79,-3.97,-3.66,6.35,6.35,6.35
75.87,10.15,3.83,10.15,3.83,-3.83,-3.99,-3.66,6.32,6.32,6.32
76.63,10.15,3.87,10.15,3.87,-3.87,-4.01,-3.67,6.28,6.28,6.28
77.40,10.16,3.92,10.16,3.92,-3.92,-4.04,-3.67,6.24,6.24,6.24
78.17,10.16,3.95,10.16,3.96,-3.96,-4.06,-3.68,6.20,6.20,6.20
78.95,10.17,4.01,10.16,4.00,-4.00,-4.08,-3.69,6.17,6.17,6.16
79.74,10.16,4.04,10.16,4.04,-4.03,-4.11,-3.71,6.13,6.13,6.12
80.54,10.15,4.07,10.15,4.07,-4.07,-4.13,-3.72,6.08,6.08,6.08
81.35,10.13,4.09,10.13,4.09,-4.09,-4.16,-3.74,6.04,6.04,6.04
82.16,10.11,4.12,10.11,4.12,-4.12,-4.18,-3.76,5.99,5.99,5.99
82.98,10.09,4.15,10.09,4.14,-4.14,-4.21,-3.78,5.95,5.95,5.94
83.81,10.06,4.16,10.06,4.16,-4.16,-4.23,-3.81,5.90,5.90,5.89
84.65,10.03,4.17,10.03,4.18,-4.18,-4.26,-3.84,5.85,5.85,5.86
85.50,10.00,4.19,10.00,4.19,-4.20,-4.29,-3.87,5.80,5.80,5.81
86.35,9.97,4.21,9.97,4.21,-4.21,-4.31,-3.90,5.76,5.76,5.76
87.22,9.94,4.23,9.94,4.23,-4.23,-4.34,-3.94,5.71,5.71,5.71
88.09,9.91,4.26,9.91,4.25,-4.25,-4.37,-3.98,5.66,5.66,5.65
88.97,9.88,4.28,9.88,4.28,-4.28,-4.39,-4.02,5.60,5.60,5.60
89.86,9.85,4.30,9.85,4.30,-4.31,-4.42,-4.07,5.54,5.54,5.55
90.76,9.83,4.33,9.83,4.34,-4.34,-4.45,-4.12,5.49,5.49,5.50
91.66,9.82,4.38,9.82,4.38,-4.38,-4.48,-4.17,5.44,5.44,5.44
92.58,9.81,4.42,9.81,4.42,-4.42,-4.51,-4.22,5.38,5.38,5.39
93.51,9.80,4.47,9.80,4.47,-4.47,-4.53,-4.28,5.33,5.33,5.33
94.44,9.80,4.52,9.80,4.53,-4.53,-4.56,-4.34,5.27,5.28,5.28
95.39,9.81,4.59,9.81,4.58,-4.58,-4.59,-4.40,5.23,5.22,5.22
96.34,9.81,4.64,9.81,4.64,-4.64,-4.62,-4.47,5.17,5.17,5.16
97.30,9.82,4.70,9.82,4.70,-4.70,-4.65,-4.54,5.12,5.12,5.12
98.28,9.82,4.76,9.82,4.76,-4.76,-4.67,-4.61,5.06,5.06,5.06
99.26,9.82,4.82,9.82,4.82,-4.82,-4.70,-4.68,5.00,5.00,5.00
100.25,9.83,4.88,9.83,4.88,-4.88,-4.73,-4.75,4.94,4.94,4.95
101.25,9.83,4.94,9.83,4.94,-4.94,-4.76,-4.83,4.88,4.89,4.89
102.27,9.84,5.01,9.84,5.01,-5.00,-4.79,-4.91,4.84,4.84,4.83
103.29,9.84,5.07,9.84,5.06,-5.06,-4.82,-4.99,4.78,4.78,4.77
104.32,9.84,5.11,9.84,5.12,-5.11,-4.85,-5.06,4.73,4.73,4.73
105.37,9.83,5.16,9.83,5.16,-5.16,-4.87,-5.14,4.67,4.67,4.67
106.42,9.81,5.20,9.81,5.20,-5.20,-4.90,-5.22,4.61,4.62,4.61
107.48,9.80,5.24,9.79,5.24,-5.24,-4.93,-5.30,4.56,4.56,4.56
108.56,9.77,5.26,9.77,5.27,-5.27,-4.96,-5.38,4.50,4.50,4.50
109.64,9.75,5.30,9.75,5.30,-5.30,-4.99,-5.46,4.45,4.44,4.45
110.74,9.72,5.33,9.72,5.33,-5.33,-5.01,-5.53,4.39,4.39,4.39
111.85,9.70,5.37,9.70,5.36,-5.36,-5.04,-5.60,4.34,4.34,4.33
112.97,9.67,5.38,9.67,5.39,-5.39,-5.07,-5.67,4.28,4.28,4.29
114.10,9.64,5.41,9.64,5.41,-5.41,-5.09,-5.74,4.23,4.23,4.23
115.24,9.61,5.44,9.61,5.44,-5.43,-5.12,-5.80,4.18,4.18,4.17
116.39,9.58,5.46,9.58,5.45,-5.45,-5.15,-5.86,4.13,4.13,4.12
117.55,9.54,5.47,9.54,5.47,-5.47,-5.17,-5.91,4.07,4.07,4.07
118.73,9.49,5.47,9.50,5.48,-5.49,-5.20,-5.96,4.00,4.01,4.02
119.92,9.46,5.50,9.46,5.49,-5.50,-5.23,-6.00,3.96,3.95,3.96
121.12,9.42,5.51,9.42,5.51,-5.52,-5.25,-6.03,3.90,3.90,3.91
122.33,9.40,5.54,9.40,5.54,-5.54,-5.27,-6.06,3.86,3.86,3.86
123.55,9.37,5.56,9.37,5.56,-5.55,-5.30,-6.08,3.82,3.82,3.81
124.79,9.34,5.57,9.34,5.57,-5.57,-5.32,-6.10,3.77,3.78,3.77
126.03,9.31,5.59,9.31,5.59,-5.58,-5.35,-6.11,3.73,3.73,3.72
127.29,9.27,5.59,9.27,5.59,-5.59,-5.37,-6.11,3.68,3.68,3.68
128.57,9.22,5.59,9.22,5.60,-5.59,-5.39,-6.10,3.63,3.63,3.63
129.85,9.17,5.59,9.17,5.59,-5.60,-5.41,-6.09,3.57,3.57,3.58
131.15,9.12,5.59,9.12,5.59,-5.60,-5.44,-6.08,3.52,3.52,3.53
132.46,9.08,5.59,9.08,5.60,-5.61,-5.46,-6.05,3.47,3.47,3.49
133.79,9.05,5.61,9.04,5.60,-5.61,-5.48,-6.02,3.44,3.43,3.44
135.12,9.01,5.62,9.01,5.62,-5.62,-5.50,-5.99,3.39,3.39,3.39
136.48,8.98,5.63,8.98,5.63,-5.63,-5.52,-5.95,3.35,3.35,3.35
137.84,8.95,5.65,8.95,5.64,-5.63,-5.54,-5.91,3.32,3.31,3.30
139.22,8.91,5.65,8.91,5.65,-5.64,-5.55,-5.87,3.27,3.27,3.26
140.61,8.87,5.65,8.87,5.65,-5.65,-5.57,-5.82,3.22,3.22,3.22
142.02,8.83,5.65,8.83,5.65,-5.65,-5.59,-5.77,3.18,3.17,3.18
143.44,8.79,5.65,8.79,5.65,-5.66,-5.61,-5.72,3.13,3.13,3.14
144.87,8.75,5.65,8.76,5.65,-5.66,-5.62,-5.66,3.09,3.09,3.10
146.32,8.73,5.66,8.73,5.66,-5.67,-5.64,-5.61,3.06,3.06,3.07
147.78,8.70,5.67,8.70,5.67,-5.67,-5.65,-5.56,3.03,3.03,3.03
149.26,8.67,5.68,8.67,5.68,-5.67,-5.66,-5.50,3.00,3.00,2.99
150.75,8.64,5.67,8.64,5.68,-5.66,-5.68,-5.45,2.97,2.97,2.96
152.26,8.60,5.67,8.60,5.67,-5.66,-5.69,-5.40,2.94,2.94,2.93
153.78,8.55,5.66,8.55,5.66,-5.65,-5.70,-5.35,2.90,2.90,2.89
155.32,8.51,5.64,8.51,5.64,-5.64,-5.71,-5.30,2.87,2.87,2.87
156.88,8.46,5.63,8.46,5.62,-5.63,-5.72,-5.25,2.83,2.83,2.83
158.44,8.41,5.61,8.41,5.61,-5.62,-5.73,-5.21,2.79,2.79,2.80
160.03,8.37,5.60,8.37,5.60,-5.62,-5.74,-5.17,2.75,2.75,2.77
161.63,8.34,5.60,8.34,5.60,-5.61,-5.74,-5.13,2.73,2.73,2.74
163.24,8.32,5.60,8.32,5.61,-5.61,-5.75,-5.09,2.71,2.71,2.72
164.88,8.30,5.61,8.30,5.62,-5.61,-5.76,-5.06,2.69,2.69,2.69
166.53,8.29,5.63,8.28,5.63,-5.61,-5.76,-5.03,2.68,2.67,2.66
168.19,8.26,5.63,8.26,5.63,-5.61,-5.76,-5.00,2.65,2.65,2.63
169.87,8.22,5.61,8.22,5.62,-5.61,-5.77,-4.98,2.61,2.61,2.61
171.57,8.19,5.61,8.19,5.60,-5.60,-5.77,-4.96,2.58,2.58,2.58
173.29,8.15,5.59,8.15,5.59,-5.60,-5.77,-4.95,2.55,2.55,2.56
175.02,8.12,5.59,8.12,5.58,-5.59,-5.77,-4.94,2.53,2.53,2.53
176.77,8.09,5.57,8.09,5.58,-5.58,-5.77,-4.93,2.51,2.51,2.52
178.54,8.06,5.57,8.07,5.57,-5.58,-5.77,-4.93,2.48,2.49,2.49
180.32,8.05,5.58,8.04,5.57,-5.57,-5.76,-4.93,2.48,2.47,2.47
182.13,8.02,5.57,8.02,5.57,-5.57,-5.76,-4.93,2.45,2.45,2.45
183.95,7.99,5.56,7.99,5.57,-5.57,-5.76,-4.94,2.42,2.43,2.43
185.79,7.97,5.56,7.97,5.56,-5.57,-5.75,-4.95,2.40,2.40,2.41
187.65,7.95,5.56,7.95,5.56,-5.57,-5.74,-4.97,2.38,2.38,2.38
189.52,7.93,5.56,7.93,5.57,-5.56,-5.74,-4.98,2.37,2.37,2.36
191.42,7.91,5.56,7.91,5.56,-5.56,-5.73,-5.01,2.35,2.35,2.35
193.33,7.89,5.56,7.89,5.56,-5.56,-5.72,-5.03,2.33,2.33,2.33
195.27,7.86,5.55,7.86,5.55,-5.55,-5.71,-5.06,2.31,2.31,2.31
197.22,7.84,5.55,7.84,5.55,-5.55,-5.70,-5.09,2.29,2.29,2.29
199.19,7.82,5.54,7.82,5.54,-5.54,-5.68,-5.12,2.28,2.28,2.28
201.18,7.80,5.53,7.80,5.53,-5.53,-5.67,-5.16,2.27,2.27,2.27
203.19,7.77,5.52,7.77,5.52,-5.52,-5.66,-5.20,2.25,2.26,2.25
205.23,7.75,5.50,7.75,5.50,-5.50,-5.64,-5.24,2.24,2.24,2.25
207.28,7.72,5.49,7.72,5.49,-5.49,-5.63,-5.28,2.23,2.23,2.23
209.35,7.70,5.48,7.70,5.47,-5.48,-5.61,-5.32,2.22,2.22,2.22
211.44,7.67,5.45,7.67,5.46,-5.46,-5.59,-5.36,2.21,2.21,2.22
213.56,7.65,5.45,7.65,5.45,-5.44,-5.57,-5.41,2.21,2.20,2.20
215.69,7.62,5.43,7.62,5.43,-5.43,-5.55,-5.45,2.19,2.19,2.19
217.85,7.59,5.41,7.59,5.41,-5.41,-5.53,-5.49,2.18,2.18,2.18
220.03,7.56,5.38,7.56,5.39,-5.39,-5.51,-5.53,2.17,2.17,2.17
222.23,7.53,5.37,7.53,5.37,-5.37,-5.49,-5.57,2.16,2.16,2.16
224.45,7.50,5.35,7.50,5.34,-5.35,-5.47,-5.61,2.15,2.15,2.15
226.70,7.47,5.33,7.47,5.32,-5.33,-5.44,-5.64,2.14,2.14,2.14
228.96,7.44,5.30,7.44,5.31,-5.31,-5.42,-5.68,2.13,2.14,2.14
231.25,7.42,5.29,7.42,5.29,-5.29,-5.39,-5.70,2.13,2.13,2.13
233.57,7.40,5.28,7.39,5.27,-5.27,-5.36,-5.73,2.13,2.13,2.12
235.90,7.37,5.25,7.37,5.25,-5.25,-5.34,-5.75,2.12,2.12,2.12
238.26,7.34,5.23,7.34,5.23,-5.23,-5.31,-5.76,2.11,2.12,2.11
240.64,7.32,5.20,7.32,5.20,-5.21,-5.28,-5.77,2.11,2.11,2.12
243.05,7.30,5.18,7.30,5.18,-5.18,-5.25,-5.77,2.12,2.11,2.12
245.48,7.28,5.16,7.28,5.16,-5.16,-5.22,-5.76,2.12,2.12,2.12
247.93,7.26,5.15,7.26,5.14,-5.14,-5.19,-5.75,2.12,2.12,2.11
250.41,7.24,5.13,7.24,5.12,-5.12,-5.16,-5.73,2.12,2.12,2.11
252.92,7.21,5.09,7.21,5.10,-5.10,-5.12,-5.71,2.11,2.11,2.12
255.45,7.19,5.07,7.19,5.07,-5.08,-5.09,-5.68,2.11,2.11,2.12
258.00,7.17,5.06,7.17,5.06,-5.07,-5.06,-5.64,2.10,2.11,2.11
260.58,7.16,5.04,7.16,5.05,-5.05,-5.02,-5.60,2.11,2.11,2.12
263.19,7.15,5.04,7.14,5.03,-5.03,-4.98,-5.55,2.12,2.12,2.11
265.82,7.12,5.01,7.12,5.01,-5.00,-4.95,-5.49,2.12,2.12,2.10
268.48,7.09,4.98,7.09,4.98,-4.98,-4.91,-5.43,2.11,2.11,2.11
271.16,7.05,4.95,7.05,4.95,-4.94,-4.87,-5.37,2.11,2.11,2.10
273.87,7.01,4.91,7.01,4.91,-4.91,-4.84,-5.30,2.10,2.10,2.10
276.61,6.96,4.86,6.96,4.86,-4.86,-4.80,-5.22,2.10,2.10,2.10
279.38,6.92,4.82,6.91,4.81,-4.81,-4.76,-5.15,2.11,2.10,2.10
282.17,6.86,4.76,6.86,4.76,-4.76,-4.72,-5.07,2.10,2.10,2.10
284.99,6.81,4.71,6.81,4.71,-4.71,-4.68,-4.98,2.10,2.10,2.10
287.84,6.75,4.65,6.75,4.65,-4.65,-4.64,-4.90,2.10,2.09,2.09
290.72,6.69,4.60,6.69,4.60,-4.60,-4.60,-4.81,2.09,2.09,2.09
293.63,6.63,4.54,6.63,4.54,-4.55,-4.55,-4.73,2.08,2.08,2.09
296.57,6.58,4.50,6.58,4.49,-4.50,-4.51,-4.64,2.08,2.08,2.08
299.53,6.53,4.44,6.53,4.45,-4.45,-4.47,-4.55,2.08,2.08,2.09
302.53,6.49,4.40,6.49,4.41,-4.41,-4.42,-4.46,2.08,2.09,2.09
305.55,6.46,4.38,6.45,4.37,-4.36,-4.38,-4.38,2.10,2.09,2.08
308.61,6.41,4.32,6.41,4.32,-4.32,-4.34,-4.29,2.09,2.09,2.09
311.69,6.36,4.27,6.36,4.28,-4.27,-4.29,-4.20,2.09,2.09,2.09
314.81,6.32,4.23,6.32,4.23,-4.23,-4.25,-4.12,2.09,2.09,2.09
317.96,6.27,4.18,6.28,4.18,-4.18,-4.20,-4.04,2.08,2.09,2.09
321.14,6.24,4.14,6.24,4.14,-4.14,-4.16,-3.96,2.10,2.09,2.10
324.35,6.20,4.11,6.20,4.10,-4.10,-4.11,-3.88,2.10,2.10,2.09
327.59,6.16,4.07,6.16,4.06,-4.06,-4.06,-3.80,2.09,2.09,2.09
330.87,6.12,4.02,6.12,4.02,-4.03,-4.01,-3.73,2.09,2.09,2.10
334.18,6.09,3.98,6.09,3.99,-4.00,-3.97,-3.65,2.09,2.09,2.11
337.52,6.07,3.97,6.07,3.96,-3.97,-3.92,-3.58,2.10,2.10,2.10
340.90,6.06,3.95,6.06,3.95,-3.94,-3.87,-3.52,2.12,2.11,2.11
344.30,6.04,3.93,6.04,3.93,-3.91,-3.82,-3.45,2.13,2.12,2.11
347.75,6.01,3.90,6.01,3.90,-3.88,-3.77,-3.39,2.13,2.12,2.11
351.23,5.97,3.86,5.97,3.86,-3.85,-3.73,-3.33,2.11,2.12,2.11
354.74,5.93,3.82,5.93,3.82,-3.83,-3.68,-3.27,2.10,2.10,2.11
358.28,5.89,3.78,5.89,3.78,-3.79,-3.63,-3.22,2.09,2.10,2.11
361.87,5.86,3.75,5.86,3.75,-3.76,-3.58,-3.16,2.10,2.10,2.11
365.49,5.84,3.73,5.84,3.73,-3.73,-3.53,-3.11,2.11,2.10,2.11
369.14,5.81,3.70,5.81,3.70,-3.70,-3.48,-3.07,2.11,2.11,2.11
372.83,5.78,3.67,5.78,3.67,-3.67,-3.43,-3.02,2.11,2.11,2.11
376.56,5.75,3.64,5.75,3.64,-3.63,-3.38,-2.98,2.11,2.11,2.11
380.33,5.72,3.61,5.71,3.60,-3.60,-3.32,-2.94,2.12,2.12,2.11
384.13,5.67,3.56,5.67,3.56,-3.56,-3.27,-2.90,2.11,2.12,2.11
387.97,5.63,3.52,5.63,3.52,-3.51,-3.22,-2.86,2.12,2.12,2.11
391.85,5.58,3.46,5.57,3.46,-3.46,-3.17,-2.83,2.12,2.12,2.12
395.77,5.52,3.40,5.52,3.40,-3.40,-3.12,-2.80,2.11,2.12,2.12
399.73,5.46,3.33,5.47,3.34,-3.35,-3.07,-2.77,2.11,2.12,2.13
403.72,5.42,3.29,5.42,3.29,-3.29,-3.02,-2.74,2.12,2.12,2.12
407.76,5.37,3.24,5.36,3.23,-3.24,-2.96,-2.71,2.13,2.13,2.13
411.84,5.31,3.18,5.31,3.18,-3.18,-2.91,-2.68,2.13,2.13,2.13
415.96,5.26,3.12,5.26,3.12,-3.12,-2.86,-2.66,2.14,2.14,2.14
420.12,5.21,3.07,5.21,3.07,-3.06,-2.81,-2.64,2.15,2.15,2.14
424.32,5.16,3.02,5.15,3.01,-3.00,-2.75,-2.61,2.16,2.15,2.14
428.56,5.09,2.94,5.09,2.94,-2.94,-2.70,-2.59,2.15,2.15,2.15
432.85,5.02,2.87,5.02,2.87,-2.88,-2.65,-2.57,2.14,2.14,2.15
437.18,4.95,2.80,4.95,2.80,-2.81,-2.59,-2.54,2.14,2.14,2.15
441.55,4.88,2.73,4.88,2.74,-2.74,-2.54,-2.52,2.14,2.14,2.15
445.96,4.82,2.67,4.82,2.67,-2.67,-2.49,-2.50,2.15,2.15,2.15
450.42,4.76,2.61,4.75,2.61,-2.60,-2.43,-2.47,2.16,2.15,2.14
454.93,4.68,2.54,4.68,2.53,-2.53,-2.38,-2.45,2.15,2.15,2.14
459.48,4.60,2.46,4.60,2.46,-2.46,-2.33,-2.42,2.14,2.14,2.14
464.07,4.53,2.39,4.53,2.39,-2.40,-2.27,-2.40,2.13,2.14,2.14
468.71,4.47,2.33,4.47,2.33,-2.33,-2.22,-2.37,2.14,2.14,2.14
473.40,4.41,2.27,4.41,2.26,-2.26,-2.17,-2.34,2.15,2.15,2.14
478.13,4.34,2.19,4.34,2.19,-2.19,-2.11,-2.31,2.15,2.15,2.15
482.91,4.27,2.12,4.27,2.12,-2.12,-2.06,-2.27,2.15,2.15,2.15
487.74,4.20,2.05,4.20,2.05,-2.05,-2.00,-2.24,2.15,2.15,2.15
492.62,4.14,1.99,4.14,1.98,-1.98,-1.95,-2.20,2.16,2.15,2.15
497.55,4.07,1.91,4.07,1.91,-1.91,-1.90,-2.16,2.16,2.16,2.16
502.52,4.00,1.84,4.00,1.84,-1.84,-1.84,-2.12,2.16,2.16,2.16
507.55,3.93,1.77,3.93,1.77,-1.77,-1.79,-2.07,2.16,2.16,2.16
512.62,3.86,1.70,3.86,1.70,-1.70,-1.73,-2.02,2.16,2.16,2.16
517.75,3.80,1.63,3.80,1.63,-1.63,-1.68,-1.97,2.17,2.17,2.17
522.93,3.74,1.57,3.73,1.57,-1.56,-1.62,-1.92,2.18,2.17,2.17
