frequency,raw,error,smoothed,error_smoothed,equalization,parametric_eq,fixed_band_eq,equalized_raw,equalized_smoothed,target
20.00,10.03,7.33,10.02,7.33,-7.33,-7.59,-3.63,2.70,2.70,2.69
20.20,10.01,7.34,10.01,7.34,-7.34,-7.59,-3.72,2.67,2.67,2.66
20.40,9.99,7.34,9.99,7.34,-7.34,-7.59,-3.83,2.64,2.64,2.64
20.61,9.98,7.35,9.97,7.35,-7.35,-7.59,-3.93,2.62,2.62,2.62
20.81,9.97,7.36,9.96,7.36,-7.36,-7.59,-4.04,2.60,2.60,2.60
21.02,9.96,7.37,9.95,7.37,-7.38,-7.59,-4.15,2.58,2.58,2.58
21.23,9.95,7.38,9.95,7.39,-7.39,-7.59,-4.26,2.56,2.56,2.56
21.44,9.95,7.40,9.94,7.40,-7.40,-7.59,-4.38,2.54,2.54,2.54
21.66,9.95,7.42,9.94,7.42,-7.42,-7.59,-4.50,2.53,2.53,2.52
21.87,9.95,7.43,9.95,7.44,-7.43,-7.59,-4.62,2.51,2.51,2.51
22.09,9.95,7.45,9.95,7.45,-7.45,-7.59,-4.75,2.50,2.50,2.49
22.31,9.96,7.47,9.95,7.47,-7.47,-7.59,-4.88,2.49,2.48,2.48
22.54,9.96,7.49,9.96,7.49,-7.49,-7.59,-5.01,2.47,2.47,2.47
22.76,9.97,7.51,9.97,7.51,-7.51,-7.59,-5.15,2.46,2.46,2.46
22.99,9.98,7.53,9.98,7.53,-7.53,-7.59,-5.29,2.44,2.44,2.45
23.22,10.00,7.56,9.99,7.56,-7.56,-7.59,-5.43,2.43,2.43,2.44
23.45,10.02,7.59,10.02,7.59,-7.59,-7.59,-5.58,2.42,2.43,2.43
23.69,10.04,7.63,10.04,7.63,-7.62,-7.59,-5.73,2.42,2.42,2.42
23.92,10.08,7.66,10.07,7.66,-7.66,-7.59,-5.88,2.42,2.42,2.42
24.16,10.11,7.70,10.11,7.70,-7.70,-7.59,-6.04,2.41,2.41,2.41
24.40,10.14,7.73,10.14,7.73,-7.73,-7.59,-6.20,2.40,2.40,2.41
24.65,10.17,7.77,10.17,7.77,-7.77,-7.59,-6.36,2.39,2.39,2.39
24.89,10.20,7.80,10.20,7.81,-7.81,-7.59,-6.52,2.39,2.39,2.39
25.14,10.23,7.84,10.23,7.84,-7.84,-7.59,-6.69,2.38,2.38,2.38
25.39,10.26,7.88,10.25,7.88,-7.88,-7.58,-6.86,2.38,2.38,2.37
25.65,10.28,7.90,10.28,7.91,-7.90,-7.58,-7.03,2.37,2.37,2.37
25.91,10.29,7.93,10.30,7.93,-7.93,-7.58,-7.20,2.37,2.37,2.36
26.16,10.32,7.96,10.31,7.95,-7.95,-7.58,-7.37,2.37,2.36,2.36
26.43,10.33,7.97,10.32,7.97,-7.96,-7.58,-7.54,2.36,2.36,2.36
26.69,10.33,7.98,10.33,7.98,-7.97,-7.58,-7.71,2.35,2.36,2.35
26.96,10.33,7.98,10.32,7.98,-7.98,-7.58,-7.88,2.35,2.35,2.35
27.23,10.32,7.98,10.32,7.98,-7.98,-7.58,-8.04,2.34,2.34,2.34
27.50,10.31,7.97,10.31,7.97,-7.98,-7.57,-8.20,2.32,2.33,2.33
27.77,10.31,7.97,10.30,7.98,-7.98,-7.57,-8.36,2.32,2.32,2.33
28.05,10.31,7.98,10.30,7.98,-7.98,-7.57,-8.52,2.32,2.32,2.32
28.33,10.31,7.98,10.31,7.98,-7.98,-7.57,-8.66,2.32,2.32,2.32
28.62,10.31,7.99,10.31,7.99,-7.99,-7.57,-8.80,2.32,2.32,2.32
28.90,10.31,8.00,10.31,7.99,-7.99,-7.57,-8.94,2.31,2.31,2.31
29.19,10.31,8.00,10.31,8.00,-8.00,-7.56,-9.06,2.31,2.31,2.31
29.48,10.31,8.00,10.31,8.00,-8.00,-7.56,-9.17,2.31,2.31,2.31
29.78,10.31,8.00,10.31,8.00,-8.00,-7.56,-9.27,2.30,2.30,2.30
30.08,10.31,8.00,10.31,8.01,-8.01,-7.56,-9.36,2.30,2.30,2.30
30.38,10.31,8.01,10.31,8.01,-8.01,-7.56,-9.44,2.29,2.29,2.29
30.68,10.31,8.02,10.31,8.02,-8.01,-7.55,-9.50,2.29,2.29,2.29
30.99,10.31,8.02,10.31,8.02,-8.02,-7.55,-9.55,2.29,2.29,2.29
31.30,10.31,8.02,10.31,8.02,-8.02,-7.55,-9.59,2.28,2.28,2.29
31.61,10.31,8.03,10.31,8.03,-8.03,-7.55,-9.61,2.28,2.28,2.27
31.93,10.31,8.03,10.31,8.03,-8.03,-7.54,-9.61,2.27,2.27,2.27
32.24,10.31,8.04,10.31,8.04,-8.04,-7.54,-9.61,2.27,2.27,2.27
32.57,10.31,8.05,10.31,8.04,-8.04,-7.54,-9.59,2.26,2.26,2.26
32.89,10.31,8.05,10.31,8.05,-8.05,-7.54,-9.56,2.26,2.26,2.25
33.22,10.31,8.05,10.31,8.06,-8.06,-7.53,-9.51,2.25,2.25,2.25
33.55,10.31,8.07,10.30,8.06,-8.07,-7.53,-9.46,2.24,2.24,2.24
33.89,10.31,8.07,10.30,8.07,-8.08,-7.53,-9.40,2.23,2.23,2.24
34.23,10.31,8.07,10.31,8.08,-8.08,-7.52,-9.33,2.22,2.22,2.23
34.57,10.32,8.09,10.32,8.09,-8.09,-7.52,-9.25,2.22,2.22,2.22
34.92,10.33,8.11,10.32,8.10,-8.10,-7.52,-9.16,2.23,2.22,2.22
35.27,10.33,8.11,10.32,8.11,-8.10,-7.51,-9.07,2.22,2.22,2.22
35.62,10.32,8.11,10.32,8.11,-8.11,-7.51,-8.98,2.21,2.21,2.20
35.97,10.31,8.11,10.31,8.11,-8.10,-7.51,-8.89,2.20,2.21,2.20
36.33,10.30,8.10,10.29,8.10,-8.09,-7.50,-8.79,2.20,2.20,2.20
36.70,10.28,8.08,10.27,8.08,-8.08,-7.50,-8.69,2.19,2.19,2.19
37.06,10.25,8.06,10.25,8.06,-8.06,-7.50,-8.59,2.18,2.19,2.19
37.43,10.22,8.05,10.22,8.04,-8.04,-7.49,-8.49,2.18,2.18,2.17
37.81,10.20,8.02,10.19,8.02,-8.02,-7.49,-8.40,2.17,2.17,2.17
38.19,10.17,8.00,10.16,8.00,-8.00,-7.48,-8.30,2.17,2.16,2.17
38.57,10.13,7.97,10.13,7.97,-7.98,-7.48,-8.21,2.15,2.15,2.15
38.95,10.09,7.95,10.10,7.95,-7.95,-7.48,-8.12,2.14,2.14,2.15
39.34,10.07,7.93,10.07,7.93,-7.93,-7.47,-8.04,2.13,2.13,2.13
39.74,10.05,7.92,10.04,7.92,-7.91,-7.47,-7.96,2.13,2.13,2.13
40.14,10.02,7.90,10.02,7.90,-7.90,-7.46,-7.88,2.12,2.12,2.11
40.54,10.00,7.89,10.00,7.89,-7.89,-7.46,-7.81,2.11,2.11,2.11
40.94,9.98,7.87,9.98,7.87,-7.88,-7.45,-7.74,2.10,2.10,2.10
41.35,9.97,7.87,9.96,7.87,-7.87,-7.45,-7.67,2.09,2.09,2.10
41.76,9.96,7.86,9.96,7.87,-7.87,-7.44,-7.61,2.08,2.09,2.09
42.18,9.96,7.87,9.96,7.87,-7.87,-7.44,-7.56,2.08,2.08,2.09
42.60,9.97,7.89,9.96,7.88,-7.88,-7.43,-7.51,2.09,2.08,2.08
43.03,9.97,7.88,9.97,7.89,-7.89,-7.43,-7.47,2.08,2.08,2.08
43.46,9.98,7.90,9.97,7.90,-7.89,-7.42,-7.43,2.08,2.08,2.08
43.90,9.98,7.91,9.97,7.91,-7.90,-7.41,-7.40,2.07,2.07,2.07
44.33,9.98,7.91,9.98,7.92,-7.91,-7.41,-7.37,2.06,2.07,2.06
44.78,9.98,7.92,9.98,7.92,-7.92,-7.40,-7.35,2.05,2.05,2.05
45.23,9.98,7.93,9.97,7.93,-7.93,-7.40,-7.33,2.04,2.04,2.05
45.68,9.98,7.94,9.97,7.94,-7.94,-7.39,-7.32,2.03,2.03,2.04
46.13,9.98,7.95,9.98,7.95,-7.96,-7.38,-7.32,2.02,2.02,2.03
46.60,9.99,7.97,9.98,7.96,-7.97,-7.38,-7.32,2.01,2.01,2.02
47.06,10.00,7.98,9.99,7.99,-7.99,-7.37,-7.32,2.01,2.01,2.01
47.53,10.00,8.00,10.00,8.00,-8.00,-7.36,-7.33,1.99,2.00,1.99
48.01,10.01,8.02,10.00,8.02,-8.01,-7.36,-7.35,1.99,1.99,1.98
48.49,10.00,8.02,10.00,8.03,-8.02,-7.35,-7.36,1.98,1.98,1.97
48.97,9.99,8.02,9.99,8.03,-8.02,-7.34,-7.39,1.97,1.97,1.96
49.46,9.98,8.03,9.97,8.02,-8.02,-7.33,-7.42,1.96,1.95,1.95
49.96,9.95,8.01,9.95,8.01,-8.01,-7.33,-7.45,1.94,1.94,1.94
50.46,9.93,8.00,9.92,8.00,-8.00,-7.32,-7.48,1.93,1.93,1.93
50.96,9.90,7.98,9.89,7.98,-7.98,-7.31,-7.52,1.91,1.91,1.91
51.47,9.87,7.95,9.87,7.96,-7.97,-7.30,-7.56,1.90,1.90,1.91
51.99,9.84,7.94,9.84,7.94,-7.95,-7.29,-7.61,1.89,1.89,1.90
52.51,9.82,7.93,9.82,7.93,-7.93,-7.29,-7.65,1.88,1.88,1.89
53.03,9.80,7.92,9.79,7.92,-7.92,-7.28,-7.70,1.88,1.87,1.87
53.56,9.77,7.91,9.77,7.91,-7.90,-7.27,-7.75,1.87,1.87,1.86
54.10,9.74,7.88,9.74,7.89,-7.88,-7.26,-7.80,1.85,1.86,1.85
54.64,9.71,7.87,9.71,7.87,-7.86,-7.25,-7.85,1.84,1.84,1.84
55.18,9.68,7.86,9.67,7.85,-7.85,-7.24,-7.90,1.83,1.82,1.82
55.74,9.64,7.83,9.63,7.83,-7.83,-7.23,-7.95,1.80,1.80,1.80
56.29,9.60,7.80,9.60,7.81,-7.82,-7.22,-7.99,1.78,1.78,1.80
56.86,9.57,7.79,9.57,7.79,-7.81,-7.21,-8.04,1.76,1.76,1.78
57.42,9.55,7.79,9.55,7.78,-7.79,-7.20,-8.08,1.75,1.76,1.76
58.00,9.54,7.78,9.53,7.79,-7.78,-7.19,-8.12,1.75,1.75,1.75
58.58,9.52,7.78,9.51,7.78,-7.77,-7.18,-8.15,1.75,1.74,1.73
59.16,9.49,7.77,9.48,7.77,-7.75,-7.17,-8.18,1.73,1.73,1.71
59.76,9.45,7.75,9.45,7.75,-7.74,-7.16,-8.20,1.71,1.71,1.70
60.35,9.41,7.73,9.40,7.72,-7.72,-7.15,-8.22,1.68,1.68,1.68
60.96,9.36,7.70,9.36,7.70,-7.71,-7.14,-8.23,1.65,1.65,1.66
61.57,9.31,7.67,9.31,7.68,-7.69,-7.12,-8.23,1.62,1.62,1.63
62.18,9.28,7.67,9.27,7.66,-7.67,-7.11,-8.23,1.61,1.60,1.61
62.80,9.24,7.65,9.24,7.65,-7.65,-7.10,-8.22,1.58,1.58,1.59
63.43,9.21,7.64,9.20,7.64,-7.64,-7.09,-8.20,1.57,1.56,1.56
64.07,9.17,7.63,9.16,7.63,-7.63,-7.08,-8.18,1.54,1.53,1.53
64.71,9.13,7.62,9.13,7.62,-7.62,-7.06,-8.15,1.51,1.51,1.51
65.35,9.09,7.60,9.09,7.61,-7.61,-7.05,-8.12,1.48,1.48,1.48
66.01,9.06,7.60,9.05,7.60,-7.60,-7.04,-8.08,1.46,1.45,1.45
66.67,9.02,7.59,9.02,7.59,-7.59,-7.02,-8.03,1.43,1.43,1.42
67.33,8.98,7.58,8.97,7.58,-7.57,-7.01,-7.98,1.40,1.40,1.39
68.01,8.93,7.56,8.93,7.56,-7.56,-6.99,-7.92,1.37,1.37,1.36
68.69,8.88,7.54,8.88,7.54,-7.54,-6.98,-7.86,1.33,1.33,1.33
69.37,8.83,7.53,8.82,7.53,-7.53,-6.96,-7.80,1.30,1.30,1.30
70.07,8.78,7.51,8.78,7.51,-7.51,-6.95,-7.73,1.26,1.26,1.27
70.77,8.73,7.49,8.73,7.49,-7.50,-6.93,-7.66,1.23,1.23,1.23
71.48,8.69,7.48,8.68,7.48,-7.48,-6.92,-7.59,1.21,1.20,1.21
72.19,8.64,7.46,8.64,7.47,-7.47,-6.90,-7.52,1.17,1.17,1.17
72.91,8.60,7.46,8.60,7.46,-7.45,-6.88,-7.45,1.14,1.14,1.14
73.64,8.56,7.46,8.55,7.45,-7.44,-6.87,-7.38,1.11,1.11,1.10
74.38,8.51,7.43,8.51,7.44,-7.44,-6.85,-7.31,1.07,1.07,1.07
75.12,8.46,7.42,8.46,7.42,-7.43,-6.83,-7.24,1.02,1.03,1.03
75.87,8.42,7.41,8.42,7.42,-7.43,-6.82,-7.18,0.99,0.99,1.00
76.63,8.38,7.41,8.38,7.42,-7.42,-6.80,-7.12,0.95,0.96,0.96
77.40,8.36,7.44,8.35,7.42,-7.42,-6.78,-7.05,0.94,0.93,0.92
78.17,8.32,7.43,8.31,7.43,-7.42,-6.76,-7.00,0.90,0.89,0.89
78.95,8.27,7.42,8.27,7.42,-7.42,-6.74,-6.94,0.85,0.85,0.84
79.74,8.22,7.41,8.22,7.41,-7.42,-6.72,-6.89,0.79,0.80,0.80
80.54,8.18,7.41,8.18,7.41,-7.42,-6.70,-6.84,0.75,0.75,0.77
81.35,8.14,7.42,8.14,7.42,-7.42,-6.68,-6.80,0.72,0.72,0.72
82.16,8.10,7.42,8.09,7.42,-7.41,-6.66,-6.76,0.68,0.68,0.67
82.98,8.05,7.42,8.04,7.42,-7.41,-6.64,-6.73,0.64,0.64,0.63
83.81,7.99,7.41,7.99,7.41,-7.40,-6.62,-6.70,0.59,0.59,0.58
84.65,7.93,7.39,7.93,7.39,-7.39,-6.59,-6.67,0.54,0.54,0.54
85.50,7.87,7.38,7.86,7.37,-7.37,-6.57,-6.65,0.49,0.49,0.49
86.35,7.80,7.36,7.80,7.35,-7.36,-6.55,-6.64,0.44,0.44,0.44
87.22,7.73,7.34,7.73,7.34,-7.34,-6.53,-6.63,0.38,0.38,0.39
88.09,7.66,7.32,7.66,7.32,-7.33,-6.50,-6.62,0.32,0.33,0.34
88.97,7.60,7.31,7.60,7.31,-7.32,-6.48,-6.62,0.28,0.28,0.28
89.86,7.55,7.31,7.54,7.31,-7.31,-6.45,-6.63,0.24,0.23,0.23
90.76,7.49,7.31,7.48,7.30,-7.30,-6.43,-6.63,0.19,0.18,0.18
91.66,7.42,7.29,7.42,7.29,-7.29,-6.40,-6.65,0.12,0.13,0.12
92.58,7.36,7.29,7.35,7.28,-7.28,-6.38,-6.67,0.07,0.07,0.07
93.51,7.29,7.27,7.29,7.27,-7.27,-6.35,-6.69,0.02,0.02,0.02
94.44,7.23,7.27,7.22,7.26,-7.26,-6.32,-6.72,-0.03,-0.04,-0.04
95.39,7.15,7.24,7.15,7.24,-7.24,-6.29,-6.75,-0.10,-0.09,-0.10
96.34,7.08,7.23,7.08,7.23,-7.23,-6.27,-6.79,-0.15,-0.15,-0.15
97.30,7.01,7.20,7.00,7.21,-7.21,-6.24,-6.83,-0.21,-0.21,-0.20
98.28,6.94,7.19,6.94,7.19,-7.20,-6.21,-6.87,-0.26,-0.26,-0.26
99.26,6.87,7.18,6.87,7.18,-7.18,-6.18,-6.92,-0.32,-0.31,-0.31
100.25,6.81,7.18,6.80,7.17,-7.17,-6.15,-6.97,-0.36,-0.37,-0.37
101.25,6.74,7.16,6.73,7.16,-7.15,-6.12,-7.02,-0.42,-0.42,-0.43
102.27,6.66,7.14,6.66,7.14,-7.13,-6.08,-7.08,-0.48,-0.48,-0.49
103.29,6.58,7.12,6.58,7.12,-7.12,-6.05,-7.14,-0.54,-0.54,-0.54
104.32,6.50,7.09,6.50,7.09,-7.10,-6.02,-7.20,-0.60,-0.60,-0.59
105.37,6.43,7.07,6.42,7.07,-7.08,-5.98,-7.26,-0.65,-0.65,-0.65
106.42,6.35,7.05,6.35,7.05,-7.05,-5.95,-7.32,-0.71,-0.71,-0.71
107.48,6.28,7.03,6.27,7.03,-7.03,-5.92,-7.38,-0.76,-0.76,-0.75
108.56,6.20,7.01,6.19,7.01,-7.01,-5.88,-7.44,-0.81,-0.81,-0.81
109.64,6.11,6.97,6.11,6.98,-6.98,-5.84,-7.50,-0.88,-0.87,-0.87
110.74,6.04,6.96,6.03,6.96,-6.95,-5.81,-7.55,-0.92,-0.92,-0.93
111.85,5.95,6.93,5.94,6.92,-6.92,-5.77,-7.60,-0.97,-0.98,-0.98
112.97,5.86,6.89,5.85,6.89,-6.89,-5.73,-7.65,-1.03,-1.03,-1.03
114.10,5.76,6.84,5.76,6.85,-6.85,-5.69,-7.69,-1.09,-1.09,-1.09
115.24,5.67,6.81,5.67,6.81,-6.81,-5.65,-7.72,-1.14,-1.14,-1.14
116.39,5.58,6.78,5.57,6.76,-6.77,-5.61,-7.75,-1.19,-1.20,-1.20
117.55,5.47,6.71,5.47,6.72,-6.73,-5.57,-7.77,-1.26,-1.25,-1.25
118.73,5.38,6.68,5.38,6.68,-6.68,-5.53,-7.78,-1.31,-1.31,-1.30
119.92,5.29,6.64,5.28,6.64,-6.64,-5.48,-7.78,-1.35,-1.36,-1.36
121.12,5.19,6.60,5.19,6.60,-6.59,-5.44,-7.77,-1.41,-1.40,-1.41
122.33,5.10,6.55,5.09,6.55,-6.54,-5.39,-7.74,-1.45,-1.45,-1.45
123.55,5.00,6.50,5.00,6.50,-6.50,-5.35,-7.71,-1.50,-1.50,-1.51
124.79,4.90,6.44,4.90,6.45,-6.45,-5.30,-7.66,-1.55,-1.55,-1.55
126.03,4.80,6.40,4.79,6.39,-6.40,-5.26,-7.61,-1.60,-1.60,-1.60
127.29,4.70,6.34,4.69,6.34,-6.34,-5.21,-7.54,-1.65,-1.65,-1.64
128.57,4.59,6.28,4.59,6.29,-6.29,-5.16,-7.46,-1.70,-1.70,-1.69
129.85,4.50,6.24,4.49,6.23,-6.23,-5.11,-7.36,-1.74,-1.74,-1.74
131.15,4.40,6.19,4.39,6.18,-6.18,-5.06,-7.26,-1.78,-1.78,-1.79
132.46,4.29,6.11,4.29,6.12,-6.12,-5.01,-7.14,-1.83,-1.83,-1.83
133.79,4.19,6.06,4.18,6.06,-6.06,-4.95,-7.02,-1.87,-1.88,-1.88
135.12,4.06,5.99,4.07,5.99,-5.99,-4.90,-6.88,-1.93,-1.92,-1.92
136.48,3.96,5.92,3.96,5.93,-5.92,-4.84,-6.74,-1.97,-1.97,-1.97
137.84,3.85,5.86,3.84,5.86,-5.85,-4.79,-6.59,-2.01,-2.01,-2.01
139.22,3.73,5.78,3.73,5.78,-5.78,-4.73,-6.43,-2.06,-2.05,-2.06
140.61,3.61,5.71,3.61,5.71,-5.71,-4.67,-6.27,-2.10,-2.10,-2.10
142.02,3.50,5.63,3.49,5.63,-5.63,-4.61,-6.10,-2.14,-2.14,-2.13
143.44,3.38,5.55,3.38,5.55,-5.56,-4.55,-5.92,-2.18,-2.18,-2.18
144.87,3.27,5.48,3.27,5.48,-5.48,-4.49,-5.75,-2.22,-2.22,-2.22
146.32,3.16,5.40,3.16,5.41,-5.41,-4.43,-5.57,-2.25,-2.25,-2.25
147.78,3.05,5.33,3.04,5.33,-5.33,-4.37,-5.38,-2.29,-2.29,-2.29
149.26,2.94,5.26,2.93,5.25,-5.25,-4.30,-5.20,-2.32,-2.32,-2.32
150.75,2.82,5.17,2.82,5.18,-5.18,-4.23,-5.01,-2.36,-2.35,-2.35
152.26,2.72,5.10,2.71,5.10,-5.10,-4.17,-4.83,-2.38,-2.39,-2.39
153.78,2.60,5.02,2.59,5.02,-5.02,-4.10,-4.64,-2.42,-2.42,-2.42
155.32,2.48,4.92,2.48,4.93,-4.93,-4.03,-4.45,-2.46,-2.45,-2.45
156.88,2.37,4.85,2.36,4.85,-4.85,-3.96,-4.26,-2.48,-2.49,-2.48
158.44,2.25,4.76,2.24,4.76,-4.76,-3.89,-4.08,-2.51,-2.51,-2.52
160.03,2.12,4.66,2.12,4.67,-4.66,-3.81,-3.89,-2.55,-2.55,-2.55
161.63,2.00,4.58,1.99,4.57,-4.57,-3.74,-3.71,-2.57,-2.58,-2.58
163.24,1.85,4.46,1.86,4.47,-4.47,-3.66,-3.52,-2.61,-2.61,-2.60
164.88,1.74,4.37,1.73,4.37,-4.37,-3.58,-3.34,-2.63,-2.63,-2.63
166.53,1.61,4.27,1.60,4.26,-4.26,-3.50,-3.16,-2.65,-2.66,-2.66
168.19,1.46,4.14,1.46,4.15,-4.15,-3.42,-2.98,-2.69,-2.68,-2.69
169.87,1.32,4.02,1.32,4.03,-4.03,-3.34,-2.80,-2.71,-2.71,-2.71
171.57,1.19,3.92,1.18,3.91,-3.91,-3.26,-2.62,-2.73,-2.73,-2.73
173.29,1.04,3.80,1.04,3.79,-3.79,-3.17,-2.45,-2.76,-2.76,-2.76
175.02,0.89,3.67,0.89,3.67,-3.67,-3.08,-2.27,-2.78,-2.78,-2.79
176.77,0.74,3.53,0.73,3.54,-3.55,-3.00,-2.10,-2.81,-2.81,-2.80
178.54,0.59,3.41,0.59,3.41,-3.42,-2.91,-1.93,-2.83,-2.83,-2.82
180.32,0.45,3.29,0.45,3.29,-3.29,-2.81,-1.76,-2.85,-2.85,-2.85
182.13,0.31,3.17,0.30,3.17,-3.17,-2.72,-1.59,-2.86,-2.87,-2.87
183.95,0.16,3.05,0.15,3.04,-3.04,-2.63,-1.42,-2.88,-2.89,-2.89
185.79,-0.00,2.91,-0.00,2.91,-2.91,-2.53,-1.26,-2.91,-2.91,-2.91
187.65,-0.15,2.78,-0.16,2.77,-2.78,-2.43,-1.09,-2.93,-2.94,-2.93
189.52,-0.31,2.64,-0.31,2.64,-2.65,-2.33,-0.93,-2.96,-2.96,-2.95
191.42,-0.46,2.51,-0.46,2.51,-2.51,-2.23,-0.77,-2.97,-2.97,-2.97
193.33,-0.61,2.37,-0.62,2.37,-2.37,-2.12,-0.61,-2.98,-2.98,-2.99
195.27,-0.77,2.23,-0.78,2.23,-2.22,-2.02,-0.45,-3.00,-3.00,-3.01
197.22,-0.94,2.08,-0.94,2.08,-2.08,-1.91,-0.29,-3.02,-3.02,-3.03
199.19,-1.11,1.93,-1.11,1.93,-1.93,-1.80,-0.14,-3.05,-3.04,-3.04
201.18,-1.27,1.77,-1.28,1.78,-1.78,-1.69,0.02,-3.06,-3.06,-3.05
203.19,-1.43,1.63,-1.43,1.63,-1.63,-1.57,0.17,-3.07,-3.07,-3.06
205.23,-1.59,1.47,-1.59,1.48,-1.48,-1.46,0.32,-3.07,-3.07,-3.07
207.28,-1.75,1.33,-1.76,1.33,-1.32,-1.34,0.47,-3.07,-3.08,-3.08
209.35,-1.92,1.17,-1.93,1.17,-1.16,-1.22,0.61,-3.09,-3.09,-3.10
211.44,-2.10,1.00,-2.10,1.00,-1.00,-1.09,0.76,-3.11,-3.10,-3.10
213.56,-2.27,0.84,-2.28,0.84,-0.84,-0.97,0.90,-3.11,-3.12,-3.11
215.69,-2.45,0.67,-2.45,0.67,-0.67,-0.84,1.03,-3.13,-3.13,-3.13
217.85,-2.63,0.51,-2.63,0.51,-0.51,-0.71,1.16,-3.14,-3.14,-3.14
220.03,-2.80,0.34,-2.81,0.34,-0.34,-0.58,1.29,-3.14,-3.15,-3.14
222.23,-2.98,0.17,-2.98,0.17,-0.17,-0.44,1.42,-3.16,-3.16,-3.15
224.45,-3.15,0.01,-3.16,0.01,-0.01,-0.30,1.54,-3.16,-3.16,-3.16
226.70,-3.33,-0.16,-3.33,-0.16,0.16,-0.16,1.65,-3.17,-3.17,-3.18
228.96,-3.50,-0.33,-3.51,-0.33,0.33,-0.02,1.76,-3.18,-3.18,-3.18
231.25,-3.68,-0.50,-3.68,-0.50,0.49,0.13,1.87,-3.19,-3.19,-3.19
233.57,-3.85,-0.66,-3.85,-0.66,0.66,0.28,1.96,-3.19,-3.19,-3.20
235.90,-4.02,-0.83,-4.03,-0.83,0.83,0.43,2.05,-3.19,-3.20,-3.19
238.26,-4.19,-0.99,-4.19,-0.99,1.00,0.59,2.14,-3.20,-3.20,-3.20
240.64,-4.36,-1.16,-4.36,-1.16,1.17,0.75,2.22,-3.20,-3.20,-3.20
243.05,-4.53,-1.33,-4.54,-1.33,1.33,0.91,2.29,-3.20,-3.20,-3.20
245.48,-4.70,-1.51,-4.71,-1.50,1.50,1.08,2.35,-3.21,-3.21,-3.20
247.93,-4.87,-1.67,-4.87,-1.67,1.67,1.25,2.41,-3.21,-3.21,-3.21
250.41,-5.03,-1.83,-5.03,-1.83,1.83,1.43,2.46,-3.20,-3.20,-3.20
252.92,-5.19,-1.99,-5.20,-1.99,2.00,1.61,2.50,-3.20,-3.20,-3.20
255.45,-5.35,-2.16,-5.36,-2.16,2.16,1.79,2.53,-3.19,-3.19,-3.20
258.00,-5.52,-2.32,-5.53,-2.32,2.33,1.98,2.56,-3.20,-3.20,-3.20
260.58,-5.69,-2.49,-5.69,-2.49,2.49,2.17,2.58,-3.20,-3.20,-3.20
263.19,-5.86,-2.66,-5.86,-2.66,2.65,2.36,2.59,-3.21,-3.21,-3.21
265.82,-6.02,-2.81,-6.03,-2.82,2.82,2.56,2.60,-3.21,-3.21,-3.21
268.48,-6.18,-2.98,-6.19,-2.97,2.98,2.76,2.60,-3.21,-3.21,-3.21
271.16,-6.34,-3.13,-6.34,-3.13,3.13,2.96,2.60,-3.21,-3.21,-3.21
273.87,-6.49,-3.28,-6.50,-3.28,3.28,3.16,2.59,-3.22,-3.22,-3.22
276.61,-6.64,-3.43,-6.64,-3.43,3.42,3.36,2.57,-3.22,-3.22,-3.21
279.38,-6.78,-3.57,-6.78,-3.56,3.56,3.55,2.55,-3.22,-3.22,-3.22
282.17,-6.90,-3.69,-6.91,-3.69,3.69,3.74,2.53,-3.21,-3.22,-3.21
284.99,-7.03,-3.82,-7.04,-3.82,3.82,3.92,2.51,-3.22,-3.22,-3.22
287.84,-7.15,-3.93,-7.16,-3.93,3.94,4.09,2.48,-3.22,-3.22,-3.22
290.72,-7.27,-4.05,-7.27,-4.04,4.05,4.24,2.45,-3.23,-3.22,-3.23
293.63,-7.37,-4.14,-7.38,-4.15,4.15,4.37,2.41,-3.22,-3.23,-3.23
296.57,-7.47,-4.24,-7.48,-4.24,4.25,4.48,2.38,-3.23,-3.23,-3.23
299.53,-7.56,-4.34,-7.56,-4.33,4.33,4.57,2.34,-3.23,-3.23,-3.23
302.53,-7.64,-4.41,-7.65,-4.41,4.41,4.64,2.30,-3.24,-3.24,-3.23
305.55,-7.71,-4.48,-7.71,-4.48,4.47,4.69,2.27,-3.24,-3.24,-3.24
308.61,-7.76,-4.54,-7.76,-4.53,4.52,4.71,2.23,-3.24,-3.24,-3.23
311.69,-7.79,-4.56,-7.80,-4.57,4.56,4.71,2.19,-3.23,-3.23,-3.23
314.81,-7.81,-4.59,-7.82,-4.59,4.59,4.70,2.15,-3.22,-3.23,-3.22
317.96,-7.82,-4.60,-7.83,-4.60,4.60,4.67,2.12,-3.22,-3.22,-3.23
321.14,-7.83,-4.61,-7.83,-4.61,4.61,4.63,2.08,-3.23,-3.22,-3.22
324.35,-7.82,-4.60,-7.82,-4.60,4.60,4.58,2.04,-3.22,-3.22,-3.22
327.59,-7.79,-4.57,-7.80,-4.58,4.58,4.52,2.01,-3.21,-3.22,-3.23
330.87,-7.77,-4.56,-7.77,-4.55,4.55,4.45,1.98,-3.22,-3.22,-3.22
334.18,-7.73,-4.52,-7.73,-4.52,4.52,4.38,1.94,-3.22,-3.22,-3.21
337.52,-7.68,-4.47,-7.68,-4.48,4.47,4.30,1.91,-3.22,-3.22,-3.21
340.90,-7.62,-4.42,-7.62,-4.42,4.41,4.22,1.88,-3.21,-3.21,-3.21
344.30,-7.55,-4.35,-7.56,-4.35,4.35,4.14,1.86,-3.21,-3.21,-3.21
347.75,-7.48,-4.28,-7.48,-4.28,4.28,4.06,1.83,-3.21,-3.21,-3.21
351.23,-7.40,-4.19,-7.41,-4.20,4.20,3.97,1.80,-3.21,-3.21,-3.21
354.74,-7.32,-4.12,-7.32,-4.12,4.12,3.89,1.78,-3.21,-3.21,-3.20
358.28,-7.23,-4.03,-7.23,-4.03,4.03,3.80,1.76,-3.21,-3.21,-3.21
361.87,-7.14,-3.94,-7.14,-3.94,3.94,3.71,1.74,-3.21,-3.20,-3.21
365.49,-7.04,-3.84,-7.05,-3.84,3.85,3.62,1.72,-3.20,-3.20,-3.21
369.14,-6.95,-3.74,-6.96,-3.75,3.75,3.53,1.70,-3.20,-3.21,-3.21
372.83,-6.86,-3.65,-6.86,-3.65,3.65,3.43,1.69,-3.21,-3.21,-3.21
376.56,-6.76,-3.56,-6.76,-3.56,3.55,3.34,1.67,-3.22,-3.21,-3.20
380.33,-6.65,-3.45,-6.65,-3.45,3.44,3.24,1.66,-3.21,-3.21,-3.20
384.13,-6.54,-3.34,-6.54,-3.34,3.34,3.14,1.65,-3.21,-3.21,-3.21
387.97,-6.42,-3.22,-6.43,-3.23,3.23,3.04,1.64,-3.19,-3.20,-3.21
391.85,-6.32,-3.13,-6.32,-3.12,3.12,2.94,1.63,-3.20,-3.20,-3.20
395.77,-6.20,-3.00,-6.21,-3.01,3.01,2.84,1.62,-3.19,-3.20,-3.20
399.73,-6.09,-2.90,-6.10,-2.90,2.90,2.74,1.62,-3.19,-3.19,-3.19
403.72,-5.98,-2.79,-5.98,-2.79,2.79,2.64,1.61,-3.19,-3.19,-3.19
407.76,-5.86,-2.68,-5.87,-2.68,2.68,2.54,1.61,-3.18,-3.19,-3.18
411.84,-5.75,-2.57,-5.75,-2.57,2.57,2.44,1.60,-3.18,-3.18,-3.18
415.96,-5.64,-2.47,-5.64,-2.46,2.46,2.33,1.60,-3.18,-3.18,-3.18
420.12,-5.52,-2.35,-5.53,-2.35,2.35,2.23,1.59,-3.17,-3.18,-3.18
424.32,-5.41,-2.24,-5.41,-2.24,2.24,2.13,1.59,-3.18,-3.17,-3.18
428.56,-5.29,-2.13,-5.29,-2.12,2.12,2.03,1.59,-3.17,-3.17,-3.17
432.85,-5.17,-2.01,-5.18,-2.01,2.01,1.93,1.58,-3.17,-3.17,-3.17
437.18,-5.06,-1.89,-5.06,-1.89,1.89,1.82,1.58,-3.18,-3.17,-3.17
441.55,-4.94,-1.77,-4.94,-1.77,1.77,1.72,1.57,-3.17,-3.17,-3.17
445.96,-4.82,-1.65,-4.83,-1.65,1.65,1.62,1.56,-3.17,-3.17,-3.17
450.42,-4.70,-1.53,-4.71,-1.54,1.54,1.52,1.55,-3.17,-3.17,-3.17
454.93,-4.59,-1.42,-4.59,-1.42,1.42,1.42,1.54,-3.17,-3.17,-3.17
459.48,-4.48,-1.31,-4.48,-1.31,1.31,1.33,1.53,-3.18,-3.17,-3.17
464.07,-4.36,-1.19,-4.37,-1.19,1.20,1.23,1.52,-3.17,-3.17,-3.17
468.71,-4.25,-1.08,-4.26,-1.08,1.08,1.13,1.50,-3.17,-3.17,-3.17
473.40,-4.15,-0.98,-4.15,-0.98,0.98,1.04,1.49,-3.18,-3.17,-3.18
478.13,-4.04,-0.88,-4.04,-0.87,0.87,0.94,1.47,-3.18,-3.17,-3.17
482.91,-3.93,-0.77,-3.93,-0.77,0.77,0.85,1.44,-3.17,-3.17,-3.17
