frequency,raw,error,smoothed,error_smoothed,equalization,parametric_eq,fixed_band_eq,equalized_raw,equalized_smoothed,target
20.00,-9.65,-19.25,-9.65,-19.25,6.00,5.89,2.68,-3.65,-3.65,9.60
20.20,-9.52,-19.12,-9.52,-19.12,6.00,5.89,2.76,-3.52,-3.52,9.60
20.40,-9.39,-19.00,-9.39,-19.00,6.00,5.90,2.84,-3.39,-3.39,9.61
20.61,-9.26,-18.88,-9.26,-18.88,6.00,5.90,2.92,-3.26,-3.26,9.62
20.81,-9.14,-18.76,-9.14,-18.76,6.00,5.91,3.00,-3.14,-3.14,9.62
21.02,-9.01,-18.64,-9.01,-18.64,6.00,5.91,3.09,-3.01,-3.01,9.63
21.23,-8.89,-18.52,-8.89,-18.52,6.00,5.92,3.18,-2.89,-2.89,9.63
21.44,-8.77,-18.41,-8.76,-18.40,6.00,5.92,3.27,-2.77,-2.76,9.64
21.66,-8.64,-18.29,-8.64,-18.29,6.00,5.93,3.36,-2.64,-2.64,9.65
21.87,-8.52,-18.17,-8.52,-18.17,6.00,5.93,3.46,-2.52,-2.52,9.65
22.09,-8.40,-18.06,-8.40,-18.06,6.00,5.93,3.56,-2.40,-2.40,9.66
22.31,-8.28,-17.95,-8.27,-17.94,6.00,5.94,3.66,-2.28,-2.27,9.67
22.54,-8.15,-17.82,-8.15,-17.82,6.00,5.94,3.77,-2.15,-2.15,9.67
22.76,-8.02,-17.70,-8.02,-17.70,6.00,5.95,3.87,-2.02,-2.02,9.68
22.99,-7.90,-17.59,-7.91,-17.59,6.00,5.95,3.98,-1.90,-1.91,9.69
23.22,-7.80,-17.50,-7.79,-17.49,6.00,5.96,4.10,-1.80,-1.79,9.70
23.45,-7.69,-17.40,-7.69,-17.40,6.00,5.96,4.21,-1.69,-1.69,9.71
23.69,-7.58,-17.30,-7.58,-17.30,6.00,5.96,4.33,-1.58,-1.58,9.72
23.92,-7.47,-17.19,-7.47,-17.19,6.00,5.97,4.45,-1.47,-1.47,9.73
24.16,-7.36,-17.09,-7.36,-17.10,6.00,5.97,4.57,-1.36,-1.36,9.74
24.40,-7.25,-16.99,-7.25,-17.00,6.00,5.97,4.70,-1.25,-1.25,9.75
24.65,-7.15,-16.92,-7.14,-16.91,6.00,5.98,4.82,-1.15,-1.14,9.77
24.89,-7.04,-16.81,-7.04,-16.81,6.00,5.98,4.95,-1.04,-1.04,9.77
25.14,-6.94,-16.72,-6.94,-16.72,6.00,5.98,5.08,-0.94,-0.94,9.78
25.39,-6.84,-16.63,-6.84,-16.64,6.00,5.99,5.21,-0.84,-0.84,9.79
25.65,-6.75,-16.55,-6.74,-16.55,6.00,5.99,5.34,-0.75,-0.74,9.80
25.91,-6.64,-16.46,-6.64,-16.46,6.00,5.99,5.47,-0.64,-0.64,9.82
26.16,-6.53,-16.36,-6.53,-16.36,6.00,6.00,5.60,-0.53,-0.53,9.83
26.43,-6.41,-16.25,-6.41,-16.25,6.00,6.00,5.73,-0.41,-0.41,9.84
26.69,-6.29,-16.14,-6.29,-16.14,6.00,6.00,5.86,-0.29,-0.29,9.85
26.96,-6.17,-16.04,-6.17,-16.04,6.00,6.01,5.99,-0.17,-0.17,9.87
27.23,-6.04,-15.92,-6.04,-15.92,6.00,6.01,6.12,-0.04,-0.04,9.88
27.50,-5.91,-15.81,-5.91,-15.81,6.00,6.01,6.24,0.09,0.09,9.90
27.77,-5.78,-15.69,-5.78,-15.69,6.00,6.02,6.36,0.22,0.22,9.91
28.05,-5.66,-15.59,-5.65,-15.58,6.00,6.02,6.48,0.34,0.35,9.93
28.33,-5.52,-15.46,-5.53,-15.47,6.00,6.02,6.59,0.48,0.47,9.94
28.62,-5.40,-15.36,-5.40,-15.35,6.00,6.02,6.69,0.60,0.60,9.96
28.90,-5.28,-15.24,-5.27,-15.24,6.00,6.03,6.79,0.72,0.73,9.96
29.19,-5.14,-15.12,-5.15,-15.13,6.00,6.03,6.88,0.86,0.85,9.98
29.48,-5.02,-15.01,-5.02,-15.01,6.00,6.03,6.96,0.98,0.98,9.99
29.78,-4.90,-14.91,-4.89,-14.90,6.00,6.03,7.04,1.10,1.11,10.01
30.08,-4.77,-14.79,-4.77,-14.80,6.00,6.03,7.10,1.23,1.23,10.02
30.38,-4.65,-14.69,-4.65,-14.69,6.00,6.04,7.16,1.35,1.35,10.04
30.68,-4.54,-14.59,-4.53,-14.59,6.00,6.04,7.20,1.46,1.47,10.05
30.99,-4.42,-14.49,-4.42,-14.49,6.00,6.04,7.24,1.58,1.58,10.07
31.30,-4.31,-14.39,-4.31,-14.39,6.00,6.04,7.26,1.69,1.69,10.08
31.61,-4.21,-14.30,-4.21,-14.30,6.00,6.05,7.28,1.79,1.79,10.10
31.93,-4.11,-14.21,-4.10,-14.21,6.00,6.05,7.28,1.89,1.90,10.10
32.24,-4.00,-14.12,-4.00,-14.12,6.00,6.05,7.28,2.00,2.00,10.12
32.57,-3.90,-14.03,-3.90,-14.04,6.00,6.05,7.26,2.10,2.10,10.13
32.89,-3.81,-13.96,-3.80,-13.95,6.00,6.05,7.24,2.19,2.20,10.15
33.22,-3.70,-13.86,-3.70,-13.86,6.00,6.05,7.21,2.30,2.30,10.16
33.55,-3.60,-13.77,-3.60,-13.78,6.00,6.06,7.17,2.40,2.40,10.18
33.89,-3.51,-13.69,-3.50,-13.69,6.00,6.06,7.13,2.49,2.50,10.18
34.23,-3.41,-13.61,-3.41,-13.61,6.00,6.06,7.07,2.59,2.59,10.20
34.57,-3.31,-13.52,-3.31,-13.52,6.00,6.06,7.02,2.69,2.69,10.21
34.92,-3.21,-13.43,-3.21,-13.44,6.00,6.06,6.96,2.79,2.79,10.22
35.27,-3.12,-13.36,-3.12,-13.35,6.00,6.06,6.89,2.88,2.88,10.24
35.62,-3.03,-13.28,-3.02,-13.27,6.00,6.07,6.82,2.97,2.98,10.25
35.97,-2.93,-13.18,-2.93,-13.18,6.00,6.07,6.75,3.07,3.07,10.25
36.33,-2.83,-13.09,-2.83,-13.09,6.00,6.07,6.68,3.17,3.17,10.26
36.70,-2.74,-13.01,-2.73,-13.00,6.00,6.07,6.61,3.26,3.27,10.27
37.06,-2.64,-12.91,-2.64,-12.92,6.00,6.07,6.53,3.36,3.36,10.28
37.43,-2.54,-12.82,-2.55,-12.83,6.00,6.07,6.46,3.46,3.45,10.28
37.81,-2.46,-12.75,-2.45,-12.74,6.00,6.07,6.39,3.54,3.55,10.29
38.19,-2.36,-12.66,-2.36,-12.66,6.00,6.07,6.32,3.64,3.64,10.30
38.57,-2.27,-12.58,-2.27,-12.58,6.00,6.08,6.25,3.73,3.73,10.31
38.95,-2.18,-12.49,-2.18,-12.49,6.00,6.08,6.18,3.82,3.82,10.31
39.34,-2.09,-12.41,-2.09,-12.41,6.00,6.08,6.12,3.91,3.91,10.32
39.74,-2.01,-12.34,-2.01,-12.33,6.00,6.08,6.05,3.99,3.99,10.33
40.14,-1.92,-12.24,-1.92,-12.25,6.00,6.08,6.00,4.08,4.08,10.32
40.54,-1.84,-12.17,-1.83,-12.17,6.00,6.08,5.94,4.16,4.17,10.33
40.94,-1.74,-12.08,-1.74,-12.08,6.00,6.08,5.89,4.26,4.26,10.34
41.35,-1.64,-11.98,-1.64,-11.98,6.00,6.08,5.84,4.36,4.36,10.34
41.76,-1.54,-11.89,-1.54,-11.89,6.00,6.08,5.80,4.46,4.46,10.35
42.18,-1.43,-11.78,-1.43,-11.78,6.00,6.08,5.76,4.57,4.57,10.36
42.60,-1.32,-11.68,-1.32,-11.68,6.00,6.08,5.72,4.68,4.68,10.36
43.03,-1.20,-11.57,-1.20,-11.57,6.00,6.08,5.69,4.80,4.80,10.37
43.46,-1.09,-11.46,-1.08,-11.46,6.00,6.08,5.66,4.91,4.92,10.37
43.90,-0.96,-11.34,-0.96,-11.34,6.00,6.09,5.64,5.04,5.04,10.38
44.33,-0.82,-11.21,-0.83,-11.22,6.00,6.09,5.62,5.18,5.17,10.39
44.78,-0.69,-11.09,-0.69,-11.09,6.00,6.09,5.60,5.31,5.31,10.40
45.23,-0.55,-10.95,-0.55,-10.96,6.00,6.09,5.59,5.45,5.45,10.40
45.68,-0.41,-10.83,-0.41,-10.83,6.00,6.09,5.59,5.59,5.59,10.42
46.13,-0.27,-10.69,-0.27,-10.69,6.00,6.09,5.58,5.73,5.73,10.42
46.60,-0.13,-10.57,-0.13,-10.56,6.00,6.09,5.58,5.87,5.87,10.44
47.06,0.01,-10.43,0.01,-10.43,6.00,6.09,5.59,6.01,6.01,10.44
47.53,0.15,-10.30,0.15,-10.31,6.00,6.09,5.60,6.15,6.15,10.46
48.01,0.28,-10.18,0.29,-10.18,6.00,6.09,5.61,6.28,6.29,10.46
48.49,0.42,-10.05,0.42,-10.05,6.00,6.09,5.63,6.42,6.42,10.47
48.97,0.55,-9.92,0.55,-9.93,6.00,6.09,5.65,6.55,6.55,10.48
49.46,0.67,-9.82,0.67,-9.81,6.00,6.09,5.67,6.67,6.67,10.49
49.96,0.79,-9.70,0.79,-9.70,6.00,6.09,5.70,6.79,6.79,10.49
50.46,0.91,-9.58,0.91,-9.59,6.00,6.09,5.73,6.91,6.91,10.49
50.96,1.02,-9.48,1.02,-9.48,6.00,6.09,5.76,7.02,7.02,10.51
51.47,1.13,-9.38,1.13,-9.38,6.00,6.09,5.80,7.13,7.13,10.51
51.99,1.23,-9.28,1.24,-9.27,6.00,6.09,5.83,7.23,7.24,10.51
52.51,1.34,-9.17,1.34,-9.17,6.00,6.09,5.87,7.34,7.34,10.51
53.03,1.44,-9.07,1.44,-9.08,6.00,6.09,5.91,7.44,7.44,10.51
53.56,1.53,-8.99,1.53,-8.99,6.00,6.09,5.95,7.53,7.53,10.52
54.10,1.63,-8.89,1.63,-8.89,6.00,6.09,5.99,7.63,7.63,10.52
54.64,1.72,-8.80,1.72,-8.80,6.00,6.09,6.03,7.72,7.72,10.52
55.18,1.82,-8.69,1.82,-8.70,6.00,6.09,6.07,7.82,7.82,10.51
55.74,1.91,-8.60,1.91,-8.60,6.00,6.09,6.11,7.91,7.91,10.51
56.29,2.00,-8.51,2.00,-8.51,6.00,6.09,6.15,8.00,8.00,10.51
56.86,2.07,-8.43,2.07,-8.43,6.00,6.09,6.18,8.07,8.07,10.50
57.42,2.14,-8.35,2.14,-8.35,6.00,6.09,6.22,8.14,8.14,10.50
58.00,2.21,-8.27,2.21,-8.28,6.00,6.09,6.25,8.21,8.21,10.48
58.58,2.28,-8.20,2.28,-8.20,6.00,6.08,6.28,8.28,8.28,10.48
59.16,2.35,-8.12,2.35,-8.12,6.00,6.08,6.30,8.35,8.35,10.47
59.76,2.42,-8.03,2.42,-8.03,6.00,6.08,6.32,8.42,8.42,10.45
60.35,2.49,-7.95,2.49,-7.95,6.00,6.08,6.34,8.49,8.49,10.44
60.96,2.55,-7.88,2.55,-7.88,6.00,6.08,6.35,8.55,8.55,10.43
61.57,2.60,-7.81,2.60,-7.81,6.00,6.08,6.36,8.60,8.60,10.41
62.18,2.65,-7.74,2.65,-7.74,6.00,6.08,6.36,8.65,8.65,10.39
62.80,2.70,-7.68,2.69,-7.68,6.00,6.08,6.35,8.70,8.69,10.38
63.43,2.73,-7.63,2.73,-7.63,6.00,6.08,6.35,8.73,8.73,10.36
64.07,2.76,-7.58,2.77,-7.57,6.00,6.08,6.33,8.76,8.77,10.34
64.71,2.80,-7.52,2.79,-7.52,6.00,6.08,6.32,8.80,8.79,10.32
65.35,2.82,-7.48,2.81,-7.48,6.00,6.08,6.29,8.82,8.81,10.30
66.01,2.82,-7.46,2.83,-7.46,6.00,6.08,6.27,8.82,8.83,10.28
66.67,2.83,-7.43,2.83,-7.43,6.00,6.07,6.24,8.83,8.83,10.26
67.33,2.84,-7.40,2.84,-7.40,6.00,6.07,6.20,8.84,8.84,10.24
68.01,2.85,-7.36,2.85,-7.37,6.00,6.07,6.17,8.85,8.85,10.21
68.69,2.86,-7.33,2.86,-7.33,6.00,6.07,6.13,8.86,8.86,10.19
69.37,2.87,-7.30,2.87,-7.30,6.00,6.07,6.09,8.87,8.87,10.17
70.07,2.88,-7.27,2.88,-7.27,6.00,6.07,6.04,8.88,8.88,10.15
70.77,2.90,-7.23,2.90,-7.23,6.00,6.07,6.00,8.90,8.90,10.13
71.48,2.92,-7.18,2.92,-7.19,6.00,6.07,5.95,8.92,8.92,10.10
72.19,2.94,-7.14,2.94,-7.14,6.00,6.07,5.90,8.94,8.94,10.08
72.91,2.97,-7.09,2.97,-7.09,6.00,6.06,5.85,8.97,8.97,10.07
73.64,3.01,-7.03,3.01,-7.04,6.00,6.06,5.81,9.01,9.01,10.04
74.38,3.04,-6.98,3.04,-6.98,6.00,6.06,5.76,9.04,9.04,10.03
75.12,3.07,-6.93,3.08,-6.93,6.00,6.06,5.72,9.07,9.08,10.00
75.87,3.11,-6.87,3.11,-6.87,6.00,6.06,5.67,9.11,9.11,9.98
76.63,3.15,-6.82,3.15,-6.82,6.00,6.06,5.63,9.15,9.15,9.97
77.40,3.17,-6.78,3.17,-6.77,6.00,6.05,5.59,9.17,9.17,9.95
78.17,3.19,-6.74,3.19,-6.74,6.00,6.05,5.55,9.19,9.19,9.93
78.95,3.19,-6.72,3.19,-6.72,6.00,6.05,5.52,9.19,9.19,9.91
79.74,3.18,-6.71,3.18,-6.71,6.00,6.05,5.49,9.18,9.18,9.89
80.54,3.17,-6.70,3.17,-6.71,6.00,6.05,5.46,9.17,9.17,9.87
81.35,3.14,-6.71,3.14,-6.71,6.00,6.05,5.43,9.14,9.14,9.85
82.16,3.11,-6.72,3.11,-6.72,6.00,6.04,5.41,9.11,9.11,9.83
82.98,3.08,-6.73,3.08,-6.73,6.00,6.04,5.39,9.08,9.08,9.81
83.81,3.05,-6.73,3.05,-6.73,6.00,6.04,5.38,9.05,9.05,9.79
84.65,3.02,-6.74,3.02,-6.74,6.00,6.04,5.37,9.02,9.02,9.76
85.50,2.98,-6.76,2.98,-6.76,6.00,6.04,5.36,8.98,8.98,9.74
86.35,2.93,-6.78,2.93,-6.78,6.00,6.03,5.35,8.93,8.93,9.71
87.22,2.89,-6.80,2.89,-6.80,6.00,6.03,5.35,8.89,8.89,9.69
88.09,2.84,-6.82,2.84,-6.83,6.00,6.03,5.36,8.84,8.84,9.67
88.97,2.80,-6.85,2.80,-6.84,6.00,6.03,5.37,8.80,8.80,9.65
89.86,2.77,-6.85,2.77,-6.86,6.00,6.03,5.38,8.77,8.77,9.62
90.76,2.73,-6.87,2.73,-6.87,6.00,6.02,5.39,8.73,8.73,9.60
91.66,2.69,-6.89,2.69,-6.89,6.00,6.02,5.41,8.69,8.69,9.58
92.58,2.65,-6.90,2.65,-6.90,6.00,6.02,5.44,8.65,8.65,9.55
93.51,2.62,-6.91,2.62,-6.91,6.00,6.02,5.47,8.62,8.62,9.53
94.44,2.58,-6.93,2.58,-6.93,6.00,6.01,5.50,8.58,8.58,9.51
95.39,2.53,-6.95,2.53,-6.95,6.00,6.01,5.53,8.53,8.53,9.48
96.34,2.48,-6.98,2.48,-6.98,6.00,6.01,5.57,8.48,8.48,9.46
97.30,2.44,-6.99,2.44,-6.99,6.00,6.00,5.61,8.44,8.44,9.44
98.28,2.40,-7.01,2.40,-7.01,6.00,6.00,5.66,8.40,8.40,9.41
99.26,2.37,-7.01,2.37,-7.01,6.00,6.00,5.70,8.37,8.37,9.38
100.25,2.33,-7.03,2.33,-7.02,6.00,6.00,5.75,8.33,8.33,9.36
101.25,2.30,-7.03,2.30,-7.03,6.00,5.99,5.81,8.30,8.30,9.33
102.27,2.27,-7.03,2.27,-7.03,6.00,5.99,5.86,8.27,8.27,9.30
103.29,2.23,-7.03,2.23,-7.03,6.00,5.99,5.92,8.23,8.23,9.26
104.32,2.19,-7.04,2.19,-7.04,6.00,5.98,5.98,8.19,8.19,9.23
105.37,2.16,-7.04,2.16,-7.04,6.00,5.98,6.04,8.16,8.16,9.20
106.42,2.12,-7.04,2.12,-7.04,6.00,5.98,6.10,8.12,8.12,9.16
107.48,2.09,-7.03,2.09,-7.04,6.00,5.97,6.16,8.09,8.09,9.12
108.56,2.05,-7.03,2.05,-7.03,6.00,5.97,6.21,8.05,8.05,9.08
109.64,2.01,-7.03,2.01,-7.03,6.00,5.97,6.27,8.01,8.01,9.04
110.74,1.97,-7.04,1.97,-7.04,6.00,5.96,6.33,7.97,7.97,9.01
111.85,1.93,-7.04,1.93,-7.04,6.00,5.96,6.39,7.93,7.93,8.97
112.97,1.88,-7.04,1.89,-7.04,6.00,5.96,6.44,7.88,7.89,8.92
114.10,1.84,-7.04,1.84,-7.04,6.00,5.95,6.49,7.84,7.84,8.88
115.24,1.80,-7.03,1.80,-7.04,6.00,5.95,6.54,7.80,7.80,8.83
116.39,1.75,-7.04,1.75,-7.04,6.00,5.95,6.58,7.75,7.75,8.79
117.55,1.70,-7.05,1.70,-7.04,6.00,5.94,6.62,7.70,7.70,8.75
118.73,1.66,-7.05,1.66,-7.04,6.00,5.94,6.65,7.66,7.66,8.71
119.92,1.62,-7.04,1.62,-7.04,6.00,5.93,6.68,7.62,7.62,8.66
121.12,1.59,-7.03,1.59,-7.04,6.00,5.93,6.70,7.59,7.59,8.62
122.33,1.55,-7.04,1.55,-7.04,6.00,5.93,6.71,7.55,7.55,8.59
123.55,1.51,-7.04,1.51,-7.05,6.00,5.92,6.72,7.51,7.51,8.55
124.79,1.45,-7.07,1.45,-7.07,6.00,5.92,6.73,7.45,7.45,8.52
126.03,1.39,-7.09,1.39,-7.09,6.00,5.91,6.72,7.39,7.39,8.48
127.29,1.34,-7.11,1.34,-7.10,6.00,5.91,6.71,7.34,7.34,8.45
128.57,1.30,-7.11,1.30,-7.11,6.00,5.91,6.69,7.30,7.30,8.41
129.85,1.26,-7.12,1.26,-7.12,6.00,5.90,6.67,7.26,7.26,8.38
131.15,1.21,-7.14,1.21,-7.14,6.00,5.90,6.64,7.21,7.21,8.35
132.46,1.16,-7.15,1.15,-7.16,6.00,5.89,6.61,7.16,7.15,8.31
133.79,1.09,-7.20,1.10,-7.19,6.00,5.89,6.57,7.09,7.10,8.29
135.12,1.04,-7.22,1.04,-7.22,6.00,5.88,6.52,7.04,7.04,8.26
136.48,0.99,-7.24,0.99,-7.24,6.00,5.88,6.47,6.99,6.99,8.23
137.84,0.93,-7.27,0.93,-7.27,6.00,5.87,6.42,6.93,6.93,8.20
139.22,0.88,-7.29,0.88,-7.29,6.00,5.87,6.36,6.88,6.88,8.17
140.61,0.82,-7.32,0.83,-7.32,6.00,5.86,6.31,6.82,6.83,8.14
142.02,0.78,-7.34,0.78,-7.34,6.00,5.86,6.25,6.78,6.78,8.12
143.44,0.72,-7.37,0.72,-7.37,6.00,5.85,6.18,6.72,6.72,8.09
144.87,0.66,-7.41,0.66,-7.40,6.00,5.85,6.12,6.66,6.66,8.07
146.32,0.60,-7.43,0.60,-7.43,6.00,5.84,6.06,6.60,6.60,8.03
147.78,0.54,-7.46,0.54,-7.46,6.00,5.84,5.99,6.54,6.54,8.00
149.26,0.49,-7.49,0.49,-7.49,6.00,5.83,5.93,6.49,6.49,7.98
150.75,0.43,-7.52,0.43,-7.53,6.00,5.83,5.87,6.43,6.43,7.95
152.26,0.36,-7.57,0.36,-7.56,6.00,5.82,5.81,6.36,6.36,7.93
153.78,0.29,-7.60,0.29,-7.61,6.00,5.82,5.75,6.29,6.29,7.90
155.32,0.22,-7.65,0.22,-7.65,6.00,5.81,5.69,6.22,6.22,7.87
156.88,0.15,-7.70,0.15,-7.70,6.00,5.80,5.63,6.15,6.15,7.85
158.44,0.07,-7.76,0.08,-7.75,6.00,5.80,5.58,6.07,6.08,7.83
160.03,0.00,-7.80,0.00,-7.79,6.00,5.79,5.53,6.00,6.00,7.80
161.63,-0.06,-7.83,-0.07,-7.84,6.00,5.79,5.48,5.94,5.93,7.78
163.24,-0.15,-7.89,-0.15,-7.89,6.00,5.78,5.44,5.85,5.85,7.74
164.88,-0.23,-7.95,-0.23,-7.95,6.00,5.78,5.40,5.77,5.77,7.73
166.53,-0.31,-8.01,-0.31,-8.00,6.00,5.77,5.36,5.69,5.69,7.70
168.19,-0.38,-8.05,-0.38,-8.05,6.00,5.76,5.33,5.62,5.62,7.67
169.87,-0.46,-8.10,-0.46,-8.10,6.00,5.76,5.30,5.54,5.54,7.64
171.57,-0.55,-8.16,-0.55,-8.16,6.00,5.75,5.27,5.45,5.45,7.61
173.29,-0.64,-8.22,-0.63,-8.22,6.00,5.74,5.25,5.36,5.37,7.58
175.02,-0.71,-8.27,-0.71,-8.26,6.00,5.74,5.23,5.29,5.29,7.56
176.77,-0.78,-8.30,-0.78,-8.31,6.00,5.73,5.22,5.22,5.22,7.52
178.54,-0.86,-8.36,-0.86,-8.36,6.00,5.72,5.20,5.14,5.14,7.50
180.32,-0.95,-8.41,-0.94,-8.41,6.00,5.72,5.20,5.05,5.06,7.46
182.13,-1.03,-8.47,-1.02,-8.46,6.00,5.71,5.19,4.97,4.98,7.44
183.95,-1.09,-8.49,-1.10,-8.50,6.00,5.70,5.20,4.91,4.90,7.40
185.79,-1.17,-8.54,-1.17,-8.54,6.00,5.70,5.20,4.83,4.83,7.37
187.65,-1.24,-8.58,-1.24,-8.58,6.00,5.69,5.21,4.76,4.76,7.34
189.52,-1.32,-8.63,-1.31,-8.62,6.00,5.68,5.22,4.68,4.69,7.31
191.42,-1.38,-8.66,-1.39,-8.67,6.00,5.68,5.23,4.62,4.61,7.28
193.33,-1.46,-8.71,-1.46,-8.72,6.00,5.67,5.25,4.54,4.54,7.25
195.27,-1.55,-8.77,-1.54,-8.77,6.00,5.66,5.28,4.45,4.46,7.23
197.22,-1.63,-8.82,-1.62,-8.82,6.00,5.66,5.30,4.37,4.38,7.19
199.19,-1.70,-8.86,-1.70,-8.86,6.00,5.65,5.33,4.30,4.30,7.16
201.18,-1.77,-8.89,-1.78,-8.90,6.00,5.64,5.36,4.23,4.22,7.12
203.19,-1.86,-8.95,-1.85,-8.95,6.00,5.63,5.39,4.14,4.15,7.09
205.23,-1.93,-8.99,-1.93,-8.99,6.00,5.63,5.43,4.07,4.07,7.06
207.28,-2.00,-9.03,-2.00,-9.03,6.00,5.62,5.46,4.00,4.00,7.03
209.35,-2.07,-9.07,-2.08,-9.08,6.00,5.61,5.50,3.93,3.92,7.00
211.44,-2.16,-9.12,-2.16,-9.13,6.00,5.60,5.54,3.84,3.84,6.97
213.56,-2.25,-9.19,-2.24,-9.17,6.00,5.59,5.58,3.75,3.76,6.94
215.69,-2.32,-9.22,-2.32,-9.22,6.00,5.59,5.62,3.68,3.68,6.90
217.85,-2.40,-9.26,-2.40,-9.27,6.00,5.58,5.66,3.60,3.60,6.86
220.03,-2.49,-9.32,-2.49,-9.32,6.00,5.57,5.70,3.51,3.51,6.83
222.23,-2.59,-9.39,-2.59,-9.39,6.00,5.56,5.74,3.41,3.41,6.81
224.45,-2.69,-9.46,-2.69,-9.46,6.00,5.55,5.78,3.31,3.31,6.77
226.70,-2.79,-9.53,-2.79,-9.53,6.00,5.54,5.81,3.21,3.21,6.74
228.96,-2.88,-9.59,-2.88,-9.59,6.00,5.53,5.85,3.12,3.12,6.71
231.25,-2.96,-9.65,-2.96,-9.65,6.00,5.52,5.88,3.04,3.04,6.69
233.57,-3.04,-9.71,-3.04,-9.71,6.00,5.51,5.91,2.96,2.96,6.67
235.90,-3.10,-9.75,-3.10,-9.75,6.00,5.50,5.93,2.90,2.90,6.65
238.26,-3.15,-9.78,-3.15,-9.78,6.00,5.49,5.95,2.85,2.85,6.63
240.64,-3.17,-9.78,-3.17,-9.79,6.00,5.48,5.97,2.83,2.83,6.61
243.05,-3.17,-9.77,-3.16,-9.76,6.00,5.47,5.98,2.83,2.84,6.60
245.48,-3.12,-9.70,-3.12,-9.70,6.00,5.46,5.99,2.88,2.88,6.58
247.93,-3.03,-9.60,-3.03,-9.60,6.00,5.45,5.99,2.97,2.97,6.57
250.41,-2.91,-9.46,-2.91,-9.47,6.00,5.43,5.99,3.09,3.09,6.55
252.92,-2.76,-9.30,-2.75,-9.29,6.00,5.42,5.99,3.24,3.25,6.54
255.45,-2.56,-9.08,-2.56,-9.09,6.00,5.40,5.98,3.44,3.44,6.53
258.00,-2.33,-8.84,-2.33,-8.85,6.00,5.39,5.96,3.67,3.67,6.51
260.58,-2.07,-8.58,-2.07,-8.57,6.00,5.37,5.94,3.93,3.93,6.51
263.19,-1.78,-8.27,-1.78,-8.27,6.01,5.36,5.92,4.23,4.23,6.49
265.82,-1.46,-7.94,-1.46,-7.94,6.03,5.34,5.89,4.57,4.57,6.48
268.48,-1.12,-7.59,-1.12,-7.59,6.05,5.32,5.86,4.93,4.93,6.47
271.16,-0.78,-7.23,-0.78,-7.24,6.05,5.29,5.82,5.27,5.27,6.45
273.87,-0.45,-6.89,-0.45,-6.89,6.02,5.27,5.78,5.57,5.58,6.44
276.61,-0.12,-6.54,-0.12,-6.54,5.96,5.24,5.74,5.84,5.84,6.43
279.38,0.20,-6.21,0.20,-6.21,5.86,5.21,5.70,6.06,6.06,6.41
282.17,0.51,-5.89,0.51,-5.89,5.72,5.17,5.65,6.23,6.23,6.40
284.99,0.80,-5.59,0.80,-5.59,5.55,5.13,5.61,6.35,6.35,6.39
287.84,1.06,-5.31,1.06,-5.31,5.35,5.09,5.56,6.41,6.41,6.37
290.72,1.30,-5.06,1.30,-5.06,5.12,5.04,5.51,6.42,6.42,6.36
293.63,1.52,-4.83,1.52,-4.83,4.89,4.98,5.47,6.41,6.41,6.35
296.57,1.72,-4.62,1.72,-4.62,4.66,4.91,5.42,6.38,6.38,6.34
299.53,1.90,-4.42,1.89,-4.43,4.45,4.83,5.38,6.35,6.34,6.32
302.53,2.04,-4.27,2.04,-4.27,4.27,4.73,5.33,6.31,6.31,6.31
305.55,2.16,-4.13,2.16,-4.13,4.13,4.63,5.29,6.29,6.30,6.29
308.61,2.26,-4.02,2.26,-4.02,4.02,4.51,5.25,6.28,6.28,6.28
311.69,2.33,-3.93,2.33,-3.93,3.93,4.37,5.21,6.26,6.26,6.26
314.81,2.38,-3.86,2.38,-3.86,3.86,4.23,5.17,6.24,6.25,6.24
317.96,2.41,-3.82,2.41,-3.82,3.82,4.09,5.14,6.23,6.23,6.23
321.14,2.42,-3.79,2.42,-3.79,3.79,3.96,5.11,6.21,6.21,6.21
324.35,2.40,-3.80,2.40,-3.79,3.79,3.86,5.08,6.19,6.19,6.20
327.59,2.37,-3.81,2.37,-3.80,3.81,3.81,5.06,6.18,6.18,6.18
330.87,2.33,-3.83,2.33,-3.84,3.84,3.82,5.03,6.17,6.17,6.16
334.18,2.26,-3.88,2.26,-3.89,3.90,3.89,5.02,6.16,6.16,6.14
337.52,2.17,-3.96,2.17,-3.96,3.97,3.99,5.00,6.14,6.14,6.13
340.90,2.05,-4.06,2.06,-4.05,4.06,4.12,4.99,6.11,6.12,6.11
344.30,1.94,-4.16,1.94,-4.15,4.16,4.26,4.98,6.10,6.10,6.10
347.75,1.82,-4.26,1.81,-4.26,4.26,4.40,4.98,6.08,6.07,6.08
351.23,1.68,-4.38,1.68,-4.38,4.37,4.52,4.98,6.05,6.05,6.06
354.74,1.54,-4.50,1.55,-4.49,4.48,4.64,4.98,6.02,6.03,6.04
358.28,1.42,-4.60,1.42,-4.60,4.59,4.73,4.99,6.01,6.01,6.02
361.87,1.30,-4.70,1.30,-4.70,4.70,4.82,5.00,6.00,6.00,6.00
365.49,1.19,-4.80,1.19,-4.80,4.80,4.89,5.02,5.99,5.99,5.99
369.14,1.08,-4.89,1.08,-4.89,4.89,4.95,5.04,5.97,5.97,5.97
372.83,0.97,-4.99,0.97,-4.98,4.98,5.01,5.06,5.95,5.95,5.96
376.56,0.87,-5.07,0.87,-5.06,5.06,5.05,5.08,5.93,5.94,5.94
380.33,0.78,-5.14,0.78,-5.14,5.14,5.09,5.11,5.92,5.92,5.92
384.13,0.70,-5.21,0.70,-5.21,5.21,5.13,5.15,5.91,5.90,5.91
387.97,0.61,-5.27,0.62,-5.27,5.28,5.16,5.18,5.89,5.89,5.89
391.85,0.54,-5.33,0.54,-5.34,5.34,5.18,5.22,5.88,5.88,5.87
395.77,0.47,-5.39,0.47,-5.40,5.39,5.21,5.26,5.86,5.86,5.86
399.73,0.40,-5.45,0.40,-5.45,5.45,5.23,5.31,5.85,5.85,5.85
403.72,0.34,-5.50,0.34,-5.50,5.50,5.25,5.35,5.84,5.84,5.84
407.76,0.29,-5.54,0.29,-5.54,5.54,5.27,5.40,5.84,5.83,5.83
411.84,0.23,-5.58,0.23,-5.58,5.59,5.28,5.45,5.82,5.82,5.81
415.96,0.17,-5.63,0.17,-5.63,5.64,5.30,5.50,5.81,5.81,5.80
420.12,0.11,-5.68,0.11,-5.68,5.68,5.31,5.56,5.79,5.79,5.79
424.32,0.05,-5.73,0.05,-5.73,5.73,5.32,5.61,5.78,5.78,5.78
428.56,0.00,-5.77,-0.00,-5.77,5.77,5.34,5.66,5.77,5.76,5.77
432.85,-0.06,-5.81,-0.06,-5.81,5.81,5.35,5.72,5.75,5.75,5.75
437.18,-0.11,-5.85,-0.11,-5.85,5.84,5.36,5.77,5.73,5.74,5.74
441.55,-0.16,-5.89,-0.15,-5.88,5.88,5.37,5.82,5.72,5.72,5.73
445.96,-0.19,-5.90,-0.19,-5.90,5.90,5.38,5.88,5.71,5.71,5.71
450.42,-0.23,-5.92,-0.23,-5.92,5.92,5.39,5.92,5.69,5.69,5.69
454.93,-0.27,-5.95,-0.27,-5.94,5.93,5.40,5.97,5.66,5.67,5.68
459.48,-0.30,-5.95,-0.30,-5.95,5.94,5.41,6.02,5.64,5.65,5.66
464.07,-0.32,-5.95,-0.32,-5.95,5.95,5.42,6.06,5.63,5.63,5.64
468.71,-0.33,-5.94,-0.33,-5.95,5.95,5.43,6.09,5.62,5.62,5.61
473.40,-0.34,-5.94,-0.35,-5.95,5.96,5.44,6.12,5.62,5.61,5.60
478.13,-0.37,-5.95,-0.36,-5.95,5.96,5.45,6.15,5.59,5.60,5.58
482.91,-0.39,-5.96,-0.39,-5.96,5.97,5.46,6.17,5.58,5.58,5.57
487.74,-0.41,-5.96,-0.41,-5.97,5.97,5.47,6.19,5.56,5.56,5.55
492.62,-0.44,-5.98,-0.44,-5.98,5.98,5.48,6.20,5.54,5.54,5.54
497.55,-0.46,-5.99,-0.46,-5.99,5.99,5.48,6.21,5.53,5.53,5.53
502.52,-0.48,-6.00,-0.48,-6.00,5.99,5.49,6.21,5.51,5.51,5.52
507.55,-0.50,-6.01,-0.50,-6.01,6.00,5.50,6.20,5.50,5.50,5.51
512.62,-0.52,-6.01,-0.52,-6.02,6.00,5.51,6.19,5.48,5.48,5.49
517.75,-0.55,-6.03,-0.55,-6.03,6.00,5.52,6.17,5.45,5.45,5.48
