frequency,raw
20.00,-2.70
20.20,-2.69
20.40,-2.70
20.61,-2.69
20.81,-2.69
21.02,-2.69
21.23,-2.70
21.44,-2.70
21.66,-2.71
21.87,-2.71
22.09,-2.71
22.31,-2.72
22.54,-2.71
22.76,-2.70
22.99,-2.70
23.22,-2.68
23.45,-2.67
23.69,-2.65
23.92,-2.63
24.16,-2.59
24.40,-2.53
24.65,-2.47
24.89,-2.40
25.14,-2.33
25.39,-2.26
25.65,-2.19
25.91,-2.12
26.16,-2.05
26.43,-1.98
26.69,-1.91
26.96,-1.84
27.23,-1.75
27.50,-1.66
27.77,-1.57
28.05,-1.49
28.33,-1.42
28.62,-1.35
28.90,-1.27
29.19,-1.20
29.48,-1.15
29.78,-1.09
30.08,-1.04
30.38,-1.02
30.68,-0.99
30.99,-0.96
31.30,-0.90
31.61,-0.85
31.93,-0.79
32.24,-0.78
32.57,-0.78
32.89,-0.77
33.22,-0.78
33.55,-0.78
33.89,-0.79
34.23,-0.80
34.57,-0.83
34.92,-0.85
35.27,-0.86
35.62,-0.86
35.97,-0.87
36.33,-0.80
36.70,-0.73
37.06,-0.66
37.43,-0.64
37.81,-0.62
38.19,-0.61
38.57,-0.60
38.95,-0.59
39.34,-0.57
39.74,-0.55
40.14,-0.54
40.54,-0.54
40.94,-0.55
41.35,-0.56
41.76,-0.58
42.18,-0.60
42.60,-0.61
43.03,-0.63
43.46,-0.64
43.90,-0.66
44.33,-0.67
44.78,-0.67
45.23,-0.66
45.68,-0.65
46.13,-0.64
46.60,-0.64
47.06,-0.64
47.53,-0.63
48.01,-0.62
48.49,-0.59
48.97,-0.57
49.46,-0.50
49.96,-0.45
50.46,-0.40
50.96,-0.34
51.47,-0.30
51.99,-0.26
52.51,-0.23
53.03,-0.21
53.56,-0.21
54.10,-0.21
54.64,-0.21
55.18,-0.23
55.74,-0.27
56.29,-0.30
56.86,-0.33
57.42,-0.34
58.00,-0.34
58.58,-0.34
59.16,-0.34
59.76,-0.33
60.35,-0.32
60.96,-0.31
61.57,-0.32
62.18,-0.32
62.80,-0.34
63.43,-0.33
64.07,-0.30
64.71,-0.28
65.35,-0.25
66.01,-0.23
66.67,-0.19
67.33,-0.17
68.01,-0.15
68.69,-0.18
69.37,-0.18
70.07,-0.15
70.77,-0.15
71.48,-0.13
72.19,-0.11
72.91,-0.10
73.64,-0.09
74.38,-0.08
75.12,-0.07
75.87,-0.06
76.63,-0.04
77.40,-0.03
78.17,-0.02
78.95,-0.01
79.74,0.00
80.54,0.00
81.35,0.02
82.16,0.03
82.98,0.04
83.81,0.05
84.65,0.06
85.50,0.07
86.35,0.08
87.22,0.09
88.09,0.10
88.97,0.12
89.86,0.12
90.76,0.13
91.66,0.16
92.58,0.17
93.51,0.18
94.44,0.18
95.39,0.20
96.34,0.20
97.30,0.19
98.28,0.18
99.26,0.18
100.25,0.16
101.25,0.14
102.27,0.13
103.29,0.11
104.32,0.09
105.37,0.07
106.42,0.06
107.48,0.04
108.56,0.03
109.64,0.02
110.74,-0.00
111.85,-0.02
112.97,-0.02
114.10,-0.02
115.24,-0.02
116.39,-0.01
117.55,-0.01
118.73,-0.01
119.92,-0.03
121.12,-0.03
122.33,-0.04
123.55,-0.05
124.79,-0.07
126.03,-0.08
127.29,-0.09
128.57,-0.11
129.85,-0.14
131.15,-0.15
132.46,-0.16
133.79,-0.17
135.12,-0.18
136.48,-0.19
137.84,-0.20
139.22,-0.21
140.61,-0.20
142.02,-0.22
143.44,-0.23
144.87,-0.21
146.32,-0.21
147.78,-0.20
149.26,-0.19
150.75,-0.18
152.26,-0.16
153.78,-0.12
155.32,-0.09
156.88,-0.05
158.44,-0.01
160.03,0.02
161.63,0.05
163.24,0.09
164.88,0.13
166.53,0.15
168.19,0.16
169.87,0.15
171.57,0.13
173.29,0.10
175.02,0.08
176.77,0.06
178.54,0.02
180.32,-0.00
182.13,-0.02
183.95,-0.05
185.79,-0.05
187.65,-0.05
189.52,-0.06
191.42,-0.06
193.33,-0.05
195.27,-0.04
197.22,-0.03
199.19,-0.03
201.18,-0.02
203.19,-0.03
205.23,-0.04
207.28,-0.04
209.35,-0.03
211.44,-0.02
213.56,-0.02
215.69,-0.05
217.85,-0.05
220.03,-0.05
222.23,-0.05
224.45,-0.05
226.70,-0.04
228.96,-0.01
231.25,-0.03
233.57,-0.05
235.90,-0.04
238.26,-0.03
240.64,-0.04
243.05,-0.06
245.48,-0.05
247.93,-0.04
250.41,0.00
252.92,0.04
255.45,0.01
258.00,0.00
260.58,0.00
263.19,0.01
265.82,0.04
268.48,0.07
271.16,0.04
273.87,0.00
276.61,0.01
279.38,-0.03
282.17,-0.03
284.99,-0.02
287.84,-0.03
290.72,-0.03
293.63,-0.04
296.57,-0.06
299.53,-0.06
302.53,-0.05
305.55,-0.06
308.61,-0.06
311.69,-0.04
314.81,-0.06
317.96,-0.08
321.14,-0.08
324.35,-0.07
327.59,-0.06
330.87,-0.07
334.18,-0.09
337.52,-0.11
340.90,-0.12
344.30,-0.12
347.75,-0.13
351.23,-0.13
354.74,-0.15
358.28,-0.16
361.87,-0.14
365.49,-0.14
369.14,-0.13
372.83,-0.11
376.56,-0.09
380.33,-0.08
384.13,-0.06
387.97,-0.03
391.85,0.00
395.77,0.04
399.73,0.08
403.72,0.12
407.76,0.16
411.84,0.19
415.96,0.22
420.12,0.25
424.32,0.28
428.56,0.32
432.85,0.35
437.18,0.39
441.55,0.42
445.96,0.48
450.42,0.52
454.93,0.56
459.48,0.59
464.07,0.64
468.71,0.65
473.40,0.68
478.13,0.71
482.91,0.73
487.74,0.70
492.62,0.71
497.55,0.72
502.52,0.73
507.55,0.74
512.62,0.78
517.75,0.81
522.93,0.83
528.16,0.87
533.44,0.92
538.77,0.94
544.16,0.99
549.60,1.02
555.10,1.00
560.65,1.01
566.25,1.03
571.92,1.03
577.64,1.05
583.41,1.10
589.25,1.12
595.14,1.20
601.09,1.24
607.10,1.27
613.17,1.27
619.30,1.27
625.50,1.26
631.75,1.27
638.07,1.29
644.45,1.28
650.89,1.26
657.40,1.26
663.98,1.26
670.62,1.27
677.32,1.29
684.10,1.29
690.94,1.29
697.85,1.31
704.83,1.32
711.87,1.30
718.99,1.29
726.18,1.28
733.44,1.27
740.78,1.27
748.19,1.28
755.67,1.29
763.23,1.26
770.86,1.29
778.57,1.27
786.35,1.25
794.22,1.27
802.16,1.33
810.18,1.34
818.28,1.31
826.46,1.29
834.73,1.27
843.08,1.21
851.51,1.13
860.02,1.06
868.62,1.00
877.31,0.93
886.08,0.86
894.94,0.76
903.89,0.69
912.93,0.60
922.06,0.51
931.28,0.42
940.59,0.39
950.00,0.37
959.50,0.34
969.09,0.33
978.78,0.25
988.57,0.14
998.46,0.08
1008.44,0.06
1018.53,0.06
1028.71,0.04
1039.00,-0.05
1049.39,-0.11
1059.88,-0.12
1070.48,-0.13
1081.19,-0.08
1092.00,-0.03
1102.92,-0.00
1113.95,0.02
1125.09,0.02
1136.34,0.03
1147.70,0.01
1159.18,-0.03
1170.77,-0.09
1182.48,-0.14
1194.30,-0.20
1206.25,-0.21
1218.31,-0.22
1230.49,-0.27
1242.80,-0.27
1255.22,-0.25
1267.78,-0.25
1280.45,-0.25
1293.26,-0.21
1306.19,-0.11
1319.25,0.02
1332.45,0.11
1345.77,0.18
1359.23,0.25
1372.82,0.29
1386.55,0.28
1400.41,0.29
1414.42,0.36
1428.56,0.44
1442.85,0.56
1457.28,0.64
1471.85,0.65
1486.57,0.69
1501.43,0.75
1516.45,0.85
1531.61,0.93
1546.93,0.99
1562.40,0.97
1578.02,0.96
1593.80,0.94
1609.74,0.95
1625.84,0.99
1642.10,0.97
1658.52,0.94
1675.10,0.88
1691.85,0.83
1708.77,0.82
1725.86,0.80
1743.12,0.80
1760.55,0.83
1778.15,0.84
1795.94,0.86
1813.90,0.91
1832.03,0.95
1850.36,1.07
1868.86,1.17
1887.55,1.26
1906.42,1.26
1925.49,1.30
1944.74,1.29
1964.19,1.38
1983.83,1.53
2003.67,1.66
2023.71,1.78
2043.94,1.91
2064.38,2.07
2085.03,2.23
2105.88,2.36
2126.94,2.47
2148.20,2.79
2169.69,3.02
2191.38,3.15
2213.30,3.28
2235.43,3.36
2257.78,3.41
2280.36,3.54
2303.17,3.69
2326.20,3.84
2349.46,4.03
2372.95,4.23
2396.68,4.44
2420.65,4.69
2444.86,4.90
2469.31,5.06
2494.00,5.17
2518.94,5.29
2544.13,5.42
2569.57,5.58
2595.27,5.59
2621.22,5.66
2647.43,5.80
2673.90,5.95
2700.64,6.09
2727.65,6.24
2754.93,6.39
2782.48,6.50
2810.30,6.56
2838.40,6.60
2866.79,6.59
2895.46,6.58
2924.41,6.56
2953.65,6.62
2983.19,6.77
3013.02,6.97
3043.15,7.01
3073.58,7.01
3104.32,7.02
3135.36,6.96
3166.72,6.82
3198.38,6.75
3230.37,6.64
3262.67,6.47
3295.30,6.30
3328.25,6.09
3361.53,5.84
3395.15,5.62
3429.10,5.38
3463.39,5.15
3498.03,4.95
3533.01,4.60
3568.34,4.30
3604.02,3.84
3640.06,3.52
3676.46,3.30
3713.22,3.29
3750.36,3.24
3787.86,3.07
3825.74,2.80
3864.00,2.52
3902.64,2.20
3941.66,1.90
3981.08,1.66
4020.89,1.50
4061.10,1.36
4101.71,1.22
4142.73,1.10
4184.15,0.97
4226.00,0.85
4268.26,0.78
4310.94,0.70
4354.05,0.69
4397.59,0.70
4441.56,0.67
4485.98,0.74
4530.84,0.89
4576.15,1.04
4621.91,1.19
4668.13,1.30
4714.81,1.47
4761.96,1.62
4809.58,1.82
4857.67,2.07
4906.25,2.37
4955.31,2.71
5004.87,3.02
5054.91,3.30
5105.46,3.59
5156.52,3.94
5208.08,4.41
5260.16,4.94
5312.77,5.47
5365.89,6.05
5419.55,6.47
5473.75,6.83
5528.49,7.18
5583.77,7.38
5639.61,7.49
5696.00,7.59
5752.96,7.63
5810.49,7.48
5868.60,7.15
5927.28,6.86
5986.56,6.55
6046.42,6.11
6106.89,5.62
6167.96,5.11
6229.64,4.59
6291.93,4.11
6354.85,3.72
6418.40,3.42
6482.58,3.11
6547.41,2.76
6612.88,2.44
6679.01,2.13
6745.80,1.85
6813.26,1.65
6881.39,1.44
6950.21,1.28
7019.71,1.07
7089.91,0.90
7160.81,0.80
7232.41,0.55
7304.74,0.27
7377.79,0.05
7451.56,-0.35
7526.08,-0.70
7601.34,-1.09
7677.35,-1.47
7754.13,-1.74
7831.67,-1.98
7909.98,-2.20
7989.08,-2.34
8068.98,-2.41
8149.67,-2.52
8231.16,-2.48
8313.47,-2.49
8396.61,-2.78
8480.57,-3.30
8565.38,-3.89
8651.03,-4.53
8737.54,-5.13
8824.92,-5.94
8913.17,-7.37
9002.30,-8.79
9092.32,-10.37
9183.25,-11.61
9275.08,-12.43
9367.83,-12.54
9461.51,-12.26
9556.12,-11.97
9651.68,-11.59
9748.20,-10.96
9845.68,-10.32
9944.14,-9.83
10043.58,-9.79
10144.02,-9.97
10245.46,-10.05
10347.91,-10.39
10451.39,-11.09
10555.91,-11.34
10661.46,-11.27
10768.08,-10.93
10875.76,-10.43
10984.52,-10.11
11094.36,-8.87
11205.31,-7.68
11317.36,-6.56
11430.53,-5.62
11544.84,-4.83
11660.29,-4.07
11776.89,-3.48
11894.66,-3.17
12013.60,-3.09
12133.74,-2.94
12255.08,-2.39
12377.63,-1.56
12501.41,-1.30
12626.42,-1.34
12752.68,-1.41
12880.21,-1.39
13009.01,-1.47
13139.10,-1.60
13270.49,-1.67
13403.20,-1.90
13537.23,-2.09
13672.60,-2.27
13809.33,-2.67
13947.42,-2.92
14086.90,-3.04
14227.77,-3.19
14370.04,-3.30
14513.74,-3.55
14658.88,-4.32
14805.47,-5.05
14953.52,-5.58
15103.06,-5.84
15254.09,-5.65
15406.63,-5.21
15560.70,-4.56
15716.30,-3.92
15873.47,-3.50
16032.20,-2.76
16192.52,-2.02
16354.45,-1.50
16517.99,-0.70
16683.17,-0.55
16850.01,-0.63
17018.51,-0.55
17188.69,-0.79
17360.58,-1.16
17534.18,-1.38
17709.53,-1.36
17886.62,-1.43
18065.49,-1.48
18246.14,-1.58
18428.60,-1.85
18612.89,-2.47
18799.02,-3.19
18987.01,-4.22
19176.88,-5.53
19368.65,-6.93
19562.33,-8.40
19757.96,-9.50
19955.54,-10.36
