frequency,raw,error,smoothed,error_smoothed,equalization,parametric_eq,fixed_band_eq,equalized_raw,equalized_smoothed,target
20.00,6.98,10.99,6.98,10.99,-10.99,-10.23,-5.08,-4.01,-4.01,-4.01
20.20,7.00,11.04,7.00,11.04,-11.04,-10.23,-5.21,-4.04,-4.03,-4.04
20.40,7.02,11.08,7.02,11.08,-11.08,-10.23,-5.34,-4.06,-4.06,-4.06
20.61,7.03,11.11,7.04,11.12,-11.12,-10.23,-5.48,-4.09,-4.08,-4.08
20.81,7.05,11.15,7.05,11.15,-11.15,-10.23,-5.62,-4.10,-4.10,-4.10
21.02,7.06,11.18,7.06,11.18,-11.18,-10.23,-5.77,-4.12,-4.12,-4.12
21.23,7.06,11.20,7.06,11.20,-11.20,-10.23,-5.91,-4.14,-4.14,-4.14
21.44,7.06,11.22,7.06,11.22,-11.22,-10.23,-6.07,-4.16,-4.16,-4.16
21.66,7.06,11.24,7.06,11.24,-11.24,-10.23,-6.22,-4.18,-4.18,-4.18
21.87,7.06,11.25,7.06,11.25,-11.25,-10.23,-6.39,-4.19,-4.19,-4.19
22.09,7.05,11.26,7.05,11.26,-11.25,-10.23,-6.55,-4.20,-4.20,-4.21
22.31,7.04,11.26,7.04,11.26,-11.26,-10.23,-6.72,-4.22,-4.22,-4.22
22.54,7.02,11.25,7.02,11.25,-11.25,-10.23,-6.89,-4.23,-4.23,-4.23
22.76,7.01,11.25,7.01,11.24,-11.25,-10.23,-7.07,-4.23,-4.24,-4.24
22.99,6.98,11.23,6.98,11.23,-11.23,-10.23,-7.26,-4.25,-4.25,-4.25
23.22,6.96,11.22,6.96,11.22,-11.22,-10.23,-7.45,-4.26,-4.26,-4.26
23.45,6.93,11.20,6.93,11.20,-11.20,-10.23,-7.64,-4.27,-4.27,-4.27
23.69,6.90,11.18,6.90,11.18,-11.17,-10.23,-7.84,-4.27,-4.27,-4.28
23.92,6.87,11.15,6.87,11.15,-11.15,-10.23,-8.04,-4.28,-4.28,-4.28
24.16,6.84,11.13,6.84,11.13,-11.13,-10.23,-8.25,-4.29,-4.29,-4.29
24.40,6.81,11.10,6.81,11.10,-11.11,-10.23,-8.46,-4.30,-4.30,-4.29
24.65,6.78,11.08,6.78,11.08,-11.09,-10.23,-8.67,-4.31,-4.31,-4.30
24.89,6.76,11.06,6.76,11.06,-11.07,-10.22,-8.89,-4.31,-4.31,-4.30
25.14,6.74,11.05,6.74,11.05,-11.06,-10.22,-9.12,-4.32,-4.31,-4.31
25.39,6.73,11.05,6.73,11.05,-11.04,-10.22,-9.35,-4.31,-4.31,-4.32
25.65,6.72,11.04,6.72,11.04,-11.03,-10.22,-9.58,-4.31,-4.32,-4.32
25.91,6.70,11.03,6.70,11.03,-11.02,-10.22,-9.81,-4.32,-4.32,-4.33
26.16,6.68,11.01,6.69,11.01,-11.01,-10.22,-10.05,-4.33,-4.33,-4.33
26.43,6.67,11.00,6.67,11.00,-11.00,-10.22,-10.29,-4.33,-4.33,-4.33
26.69,6.65,10.99,6.65,10.99,-10.99,-10.22,-10.53,-4.34,-4.34,-4.34
26.96,6.63,10.97,6.63,10.97,-10.97,-10.22,-10.77,-4.34,-4.34,-4.34
27.23,6.61,10.96,6.61,10.95,-10.95,-10.22,-11.00,-4.34,-4.34,-4.35
27.50,6.58,10.93,6.58,10.93,-10.92,-10.21,-11.24,-4.34,-4.34,-4.35
27.77,6.55,10.90,6.55,10.90,-10.90,-10.21,-11.47,-4.35,-4.35,-4.35
28.05,6.52,10.88,6.52,10.87,-10.88,-10.21,-11.70,-4.36,-4.36,-4.36
28.33,6.48,10.84,6.49,10.85,-10.85,-10.21,-11.92,-4.37,-4.37,-4.36
28.62,6.46,10.82,6.46,10.82,-10.83,-10.21,-12.13,-4.37,-4.37,-4.36
28.90,6.44,10.81,6.44,10.80,-10.81,-10.20,-12.32,-4.37,-4.37,-4.37
29.19,6.42,10.79,6.42,10.79,-10.79,-10.20,-12.51,-4.37,-4.37,-4.37
29.48,6.40,10.77,6.40,10.77,-10.77,-10.20,-12.68,-4.37,-4.37,-4.37
29.78,6.39,10.76,6.39,10.76,-10.76,-10.20,-12.84,-4.37,-4.37,-4.37
30.08,6.37,10.74,6.37,10.74,-10.75,-10.20,-12.97,-4.38,-4.37,-4.37
30.38,6.36,10.74,6.36,10.73,-10.73,-10.19,-13.08,-4.37,-4.37,-4.38
30.68,6.34,10.72,6.34,10.72,-10.72,-10.19,-13.17,-4.38,-4.38,-4.38
30.99,6.33,10.71,6.33,10.71,-10.71,-10.19,-13.24,-4.37,-4.38,-4.38
31.30,6.31,10.69,6.31,10.69,-10.69,-10.18,-13.28,-4.38,-4.38,-4.38
31.61,6.29,10.68,6.29,10.67,-10.67,-10.18,-13.30,-4.38,-4.38,-4.39
31.93,6.26,10.65,6.26,10.65,-10.65,-10.18,-13.29,-4.39,-4.39,-4.39
32.24,6.24,10.63,6.24,10.63,-10.63,-10.17,-13.26,-4.39,-4.39,-4.39
32.57,6.21,10.61,6.21,10.61,-10.61,-10.17,-13.21,-4.40,-4.40,-4.40
32.89,6.19,10.59,6.19,10.59,-10.58,-10.17,-13.14,-4.39,-4.40,-4.40
33.22,6.16,10.56,6.16,10.56,-10.56,-10.16,-13.05,-4.39,-4.40,-4.40
33.55,6.12,10.53,6.13,10.53,-10.52,-10.16,-12.94,-4.40,-4.40,-4.41
33.89,6.09,10.50,6.09,10.50,-10.49,-10.15,-12.82,-4.40,-4.40,-4.41
34.23,6.05,10.46,6.05,10.46,-10.46,-10.15,-12.69,-4.41,-4.41,-4.41
34.57,6.01,10.43,6.01,10.43,-10.43,-10.14,-12.54,-4.42,-4.42,-4.42
34.92,5.97,10.39,5.97,10.39,-10.40,-10.14,-12.40,-4.43,-4.43,-4.42
35.27,5.94,10.36,5.94,10.36,-10.37,-10.13,-12.24,-4.43,-4.43,-4.42
35.62,5.91,10.34,5.91,10.34,-10.35,-10.13,-12.08,-4.43,-4.43,-4.43
35.97,5.89,10.32,5.89,10.32,-10.32,-10.12,-11.91,-4.43,-4.43,-4.43
36.33,5.87,10.30,5.87,10.30,-10.30,-10.11,-11.75,-4.43,-4.43,-4.43
36.70,5.85,10.28,5.85,10.28,-10.27,-10.10,-11.59,-4.42,-4.42,-4.43
37.06,5.83,10.26,5.83,10.26,-10.25,-10.10,-11.42,-4.42,-4.42,-4.43
37.43,5.80,10.24,5.80,10.23,-10.22,-10.09,-11.26,-4.42,-4.43,-4.44
37.81,5.76,10.20,5.76,10.20,-10.20,-10.08,-11.11,-4.44,-4.43,-4.44
38.19,5.73,10.17,5.73,10.17,-10.17,-10.07,-10.95,-4.44,-4.44,-4.44
38.57,5.69,10.14,5.69,10.14,-10.15,-10.06,-10.80,-4.45,-4.45,-4.45
38.95,5.66,10.11,5.66,10.11,-10.12,-10.05,-10.66,-4.46,-4.46,-4.45
39.34,5.63,10.09,5.63,10.09,-10.10,-10.04,-10.52,-4.47,-4.47,-4.46
39.74,5.60,10.06,5.61,10.07,-10.08,-10.03,-10.39,-4.48,-4.47,-4.46
40.14,5.59,10.06,5.59,10.06,-10.06,-10.02,-10.26,-4.47,-4.47,-4.47
40.54,5.58,10.05,5.57,10.04,-10.03,-10.01,-10.14,-4.45,-4.46,-4.47
40.94,5.55,10.02,5.55,10.02,-10.01,-10.00,-10.02,-4.46,-4.46,-4.47
41.35,5.52,9.99,5.52,9.99,-9.98,-9.99,-9.92,-4.46,-4.46,-4.47
41.76,5.48,9.95,5.48,9.95,-9.94,-9.97,-9.81,-4.46,-4.46,-4.47
42.18,5.44,9.91,5.44,9.91,-9.90,-9.96,-9.72,-4.46,-4.46,-4.47
42.60,5.40,9.87,5.40,9.86,-9.86,-9.95,-9.63,-4.46,-4.47,-4.47
43.03,5.35,9.81,5.35,9.82,-9.82,-9.93,-9.55,-4.47,-4.47,-4.46
43.46,5.31,9.77,5.31,9.77,-9.78,-9.92,-9.48,-4.47,-4.47,-4.46
43.90,5.28,9.74,5.28,9.74,-9.75,-9.90,-9.41,-4.47,-4.47,-4.46
44.33,5.25,9.71,5.25,9.71,-9.72,-9.88,-9.35,-4.47,-4.47,-4.46
44.78,5.23,9.69,5.23,9.69,-9.69,-9.86,-9.29,-4.46,-4.46,-4.46
45.23,5.21,9.67,5.21,9.67,-9.67,-9.85,-9.24,-4.46,-4.45,-4.46
45.68,5.20,9.66,5.20,9.65,-9.64,-9.83,-9.20,-4.44,-4.45,-4.46
46.13,5.17,9.63,5.17,9.63,-9.62,-9.81,-9.16,-4.45,-4.45,-4.46
46.60,5.14,9.60,5.14,9.60,-9.59,-9.78,-9.14,-4.45,-4.45,-4.46
47.06,5.10,9.56,5.10,9.57,-9.56,-9.76,-9.11,-4.46,-4.46,-4.46
47.53,5.07,9.54,5.07,9.53,-9.53,-9.74,-9.09,-4.46,-4.47,-4.47
48.01,5.03,9.50,5.03,9.50,-9.51,-9.71,-9.08,-4.47,-4.47,-4.47
48.49,5.00,9.47,5.00,9.47,-9.48,-9.69,-9.08,-4.48,-4.48,-4.47
48.97,4.97,9.44,4.97,9.44,-9.45,-9.66,-9.07,-4.48,-4.48,-4.47
49.46,4.95,9.42,4.95,9.42,-9.42,-9.63,-9.08,-4.47,-4.47,-4.47
49.96,4.93,9.40,4.93,9.40,-9.40,-9.60,-9.09,-4.47,-4.47,-4.47
50.46,4.91,9.38,4.91,9.38,-9.37,-9.57,-9.10,-4.46,-4.46,-4.47
50.96,4.89,9.36,4.89,9.35,-9.35,-9.54,-9.12,-4.46,-4.46,-4.47
51.47,4.86,9.32,4.86,9.32,-9.32,-9.51,-9.14,-4.46,-4.46,-4.46
51.99,4.83,9.29,4.83,9.29,-9.29,-9.48,-9.16,-4.46,-4.46,-4.46
52.51,4.80,9.26,4.80,9.26,-9.25,-9.44,-9.19,-4.45,-4.45,-4.46
53.03,4.76,9.22,4.76,9.22,-9.22,-9.41,-9.21,-4.46,-4.46,-4.46
53.56,4.73,9.19,4.73,9.18,-9.19,-9.37,-9.24,-4.46,-4.46,-4.46
54.10,4.69,9.14,4.69,9.14,-9.15,-9.33,-9.27,-4.46,-4.46,-4.45
54.64,4.66,9.11,4.66,9.11,-9.12,-9.29,-9.31,-4.46,-4.46,-4.45
55.18,4.63,9.08,4.64,9.08,-9.10,-9.25,-9.34,-4.46,-4.46,-4.45
55.74,4.62,9.07,4.62,9.07,-9.07,-9.21,-9.37,-4.45,-4.45,-4.45
56.29,4.61,9.05,4.60,9.05,-9.04,-9.17,-9.39,-4.43,-4.43,-4.44
56.86,4.58,9.02,4.58,9.02,-9.01,-9.12,-9.42,-4.43,-4.42,-4.44
57.42,4.55,8.99,4.55,8.98,-8.97,-9.08,-9.44,-4.42,-4.42,-4.44
58.00,4.51,8.94,4.51,8.94,-8.94,-9.03,-9.46,-4.43,-4.43,-4.43
58.58,4.47,8.90,4.47,8.90,-8.90,-8.99,-9.47,-4.43,-4.43,-4.43
59.16,4.43,8.86,4.43,8.86,-8.86,-8.94,-9.48,-4.43,-4.43,-4.43
59.76,4.39,8.81,4.39,8.81,-8.82,-8.90,-9.48,-4.43,-4.43,-4.42
60.35,4.35,8.77,4.35,8.77,-8.78,-8.85,-9.48,-4.43,-4.43,-4.42
60.96,4.31,8.73,4.32,8.73,-8.75,-8.81,-9.47,-4.44,-4.43,-4.42
61.57,4.29,8.71,4.29,8.71,-8.72,-8.76,-9.45,-4.43,-4.43,-4.42
62.18,4.27,8.69,4.27,8.69,-8.69,-8.72,-9.42,-4.42,-4.42,-4.42
62.80,4.25,8.67,4.25,8.67,-8.66,-8.67,-9.39,-4.41,-4.41,-4.42
63.43,4.23,8.65,4.22,8.64,-8.63,-8.63,-9.35,-4.40,-4.41,-4.42
64.07,4.19,8.61,4.19,8.61,-8.60,-8.59,-9.30,-4.41,-4.41,-4.42
64.71,4.15,8.57,4.15,8.57,-8.56,-8.55,-9.24,-4.41,-4.41,-4.42
65.35,4.11,8.53,4.11,8.53,-8.53,-8.51,-9.18,-4.42,-4.42,-4.42
66.01,4.07,8.49,4.07,8.49,-8.49,-8.47,-9.11,-4.42,-4.42,-4.42
66.67,4.03,8.45,4.03,8.45,-8.46,-8.43,-9.03,-4.43,-4.43,-4.42
67.33,3.99,8.41,3.99,8.41,-8.42,-8.40,-8.95,-4.43,-4.43,-4.42
68.01,3.96,8.38,3.96,8.38,-8.39,-8.36,-8.86,-4.43,-4.43,-4.42
68.69,3.94,8.36,3.94,8.36,-8.37,-8.33,-8.77,-4.43,-4.43,-4.42
69.37,3.92,8.34,3.92,8.34,-8.34,-8.30,-8.68,-4.42,-4.42,-4.42
70.07,3.91,8.33,3.90,8.32,-8.31,-8.27,-8.58,-4.40,-4.41,-4.42
70.77,3.88,8.30,3.88,8.30,-8.28,-8.24,-8.48,-4.40,-4.40,-4.42
71.48,3.85,8.26,3.85,8.27,-8.25,-8.22,-8.38,-4.40,-4.40,-4.41
72.19,3.82,8.23,3.82,8.23,-8.22,-8.19,-8.28,-4.40,-4.41,-4.41
72.91,3.78,8.19,3.78,8.19,-8.19,-8.16,-8.17,-4.41,-4.41,-4.41
73.64,3.74,8.15,3.74,8.15,-8.16,-8.14,-8.07,-4.41,-4.41,-4.41
74.38,3.71,8.11,3.71,8.11,-8.12,-8.11,-7.97,-4.41,-4.41,-4.40
75.12,3.68,8.08,3.68,8.08,-8.09,-8.09,-7.87,-4.41,-4.41,-4.40
75.87,3.66,8.05,3.66,8.05,-8.06,-8.07,-7.77,-4.40,-4.40,-4.39
76.63,3.64,8.03,3.64,8.03,-8.03,-8.04,-7.68,-4.39,-4.39,-4.39
77.40,3.63,8.02,3.63,8.01,-8.00,-8.02,-7.58,-4.37,-4.38,-4.39
78.17,3.60,7.98,3.60,7.98,-7.97,-7.99,-7.49,-4.37,-4.37,-4.38
78.95,3.57,7.95,3.57,7.95,-7.94,-7.96,-7.41,-4.37,-4.37,-4.38
79.74,3.53,7.91,3.53,7.91,-7.90,-7.94,-7.32,-4.37,-4.37,-4.38
80.54,3.49,7.86,3.49,7.86,-7.86,-7.91,-7.24,-4.37,-4.37,-4.37
81.35,3.45,7.82,3.45,7.82,-7.83,-7.88,-7.17,-4.37,-4.38,-4.37
82.16,3.41,7.78,3.41,7.78,-7.79,-7.85,-7.10,-4.38,-4.38,-4.37
82.98,3.37,7.74,3.37,7.74,-7.75,-7.82,-7.03,-4.38,-4.38,-4.37
83.81,3.34,7.71,3.34,7.71,-7.72,-7.79,-6.97,-4.38,-4.37,-4.37
84.65,3.32,7.68,3.32,7.68,-7.68,-7.76,-6.91,-4.36,-4.36,-4.36
85.50,3.30,7.66,3.30,7.66,-7.65,-7.72,-6.86,-4.35,-4.35,-4.36
86.35,3.27,7.63,3.27,7.63,-7.61,-7.69,-6.81,-4.34,-4.35,-4.36
87.22,3.23,7.59,3.23,7.59,-7.58,-7.65,-6.76,-4.35,-4.34,-4.36
88.09,3.19,7.55,3.19,7.55,-7.54,-7.62,-6.72,-4.35,-4.35,-4.36
88.97,3.14,7.50,3.14,7.50,-7.50,-7.58,-6.69,-4.36,-4.36,-4.36
89.86,3.09,7.45,3.09,7.45,-7.46,-7.54,-6.66,-4.37,-4.37,-4.36
90.76,3.05,7.41,3.05,7.41,-7.42,-7.50,-6.64,-4.37,-4.37,-4.36
91.66,3.01,7.37,3.01,7.37,-7.38,-7.47,-6.62,-4.37,-4.37,-4.36
92.58,2.98,7.34,2.98,7.34,-7.35,-7.43,-6.60,-4.37,-4.37,-4.36
93.51,2.96,7.32,2.96,7.32,-7.32,-7.39,-6.59,-4.36,-4.36,-4.36
94.44,2.93,7.29,2.93,7.29,-7.28,-7.35,-6.59,-4.35,-4.35,-4.36
95.39,2.91,7.27,2.91,7.26,-7.25,-7.31,-6.58,-4.34,-4.34,-4.36
96.34,2.87,7.23,2.87,7.23,-7.21,-7.26,-6.59,-4.34,-4.34,-4.36
97.30,2.83,7.18,2.83,7.18,-7.18,-7.22,-6.59,-4.35,-4.35,-4.35
98.28,2.79,7.14,2.79,7.14,-7.14,-7.18,-6.60,-4.35,-4.35,-4.35
99.26,2.75,7.10,2.75,7.10,-7.10,-7.14,-6.62,-4.35,-4.35,-4.35
100.25,2.71,7.06,2.71,7.06,-7.07,-7.10,-6.64,-4.36,-4.36,-4.35
101.25,2.67,7.02,2.67,7.02,-7.04,-7.06,-6.66,-4.37,-4.36,-4.35
102.27,2.64,6.99,2.65,7.00,-7.01,-7.02,-6.68,-4.37,-4.36,-4.35
103.29,2.63,6.98,2.63,6.98,-6.98,-6.98,-6.70,-4.35,-4.35,-4.35
104.32,2.62,6.96,2.62,6.96,-6.95,-6.94,-6.73,-4.33,-4.33,-4.34
105.37,2.60,6.94,2.60,6.94,-6.92,-6.90,-6.76,-4.32,-4.32,-4.34
106.42,2.57,6.91,2.57,6.90,-6.89,-6.86,-6.79,-4.32,-4.32,-4.34
107.48,2.53,6.86,2.53,6.87,-6.86,-6.82,-6.82,-4.33,-4.33,-4.33
108.56,2.50,6.83,2.50,6.83,-6.83,-6.79,-6.85,-4.33,-4.33,-4.33
109.64,2.46,6.79,2.46,6.79,-6.80,-6.75,-6.88,-4.33,-4.33,-4.33
110.74,2.43,6.76,2.43,6.76,-6.76,-6.71,-6.91,-4.33,-4.33,-4.33
111.85,2.39,6.72,2.40,6.72,-6.73,-6.68,-6.94,-4.34,-4.33,-4.33
112.97,2.37,6.69,2.37,6.69,-6.69,-6.65,-6.97,-4.32,-4.33,-4.32
114.10,2.34,6.66,2.34,6.66,-6.66,-6.62,-7.00,-4.32,-4.32,-4.32
115.24,2.32,6.64,2.32,6.64,-6.64,-6.59,-7.02,-4.32,-4.32,-4.32
116.39,2.30,6.62,2.30,6.61,-6.61,-6.56,-7.04,-4.31,-4.32,-4.32
117.55,2.27,6.58,2.27,6.59,-6.59,-6.53,-7.05,-4.32,-4.31,-4.31
118.73,2.25,6.56,2.25,6.56,-6.56,-6.50,-7.06,-4.31,-4.31,-4.31
119.92,2.23,6.54,2.23,6.54,-6.53,-6.48,-7.06,-4.30,-4.31,-4.31
121.12,2.21,6.52,2.21,6.51,-6.51,-6.45,-7.07,-4.30,-4.30,-4.31
122.33,2.18,6.48,2.18,6.49,-6.48,-6.43,-7.06,-4.30,-4.30,-4.30
123.55,2.16,6.46,2.16,6.45,-6.46,-6.41,-7.05,-4.30,-4.30,-4.30
124.79,2.13,6.42,2.13,6.42,-6.43,-6.39,-7.03,-4.30,-4.30,-4.29
126.03,2.11,6.40,2.11,6.40,-6.40,-6.37,-7.01,-4.29,-4.29,-4.29
127.29,2.09,6.37,2.09,6.37,-6.38,-6.36,-6.98,-4.28,-4.28,-4.28
128.57,2.07,6.35,2.07,6.35,-6.35,-6.34,-6.95,-4.28,-4.28,-4.28
129.85,2.05,6.33,2.05,6.33,-6.32,-6.33,-6.90,-4.27,-4.27,-4.28
131.15,2.02,6.30,2.02,6.30,-6.29,-6.31,-6.86,-4.27,-4.27,-4.28
132.46,1.99,6.26,1.99,6.26,-6.26,-6.30,-6.81,-4.27,-4.27,-4.27
133.79,1.96,6.23,1.96,6.23,-6.23,-6.29,-6.75,-4.27,-4.27,-4.27
135.12,1.93,6.20,1.93,6.20,-6.20,-6.27,-6.69,-4.27,-4.27,-4.27
136.48,1.90,6.17,1.90,6.17,-6.17,-6.26,-6.63,-4.27,-4.27,-4.27
137.84,1.88,6.15,1.88,6.15,-6.15,-6.25,-6.56,-4.27,-4.27,-4.27
139.22,1.86,6.13,1.86,6.13,-6.13,-6.24,-6.49,-4.27,-4.27,-4.27
140.61,1.84,6.11,1.84,6.11,-6.12,-6.22,-6.41,-4.27,-4.27,-4.27
142.02,1.83,6.09,1.83,6.10,-6.11,-6.21,-6.34,-4.27,-4.27,-4.26
143.44,1.83,6.09,1.83,6.09,-6.10,-6.19,-6.26,-4.27,-4.27,-4.26
144.87,1.84,6.10,1.84,6.09,-6.10,-6.17,-6.19,-4.25,-4.26,-4.26
146.32,1.84,6.09,1.84,6.09,-6.09,-6.15,-6.11,-4.25,-4.25,-4.25
147.78,1.84,6.09,1.84,6.09,-6.08,-6.13,-6.03,-4.24,-4.24,-4.25
149.26,1.84,6.09,1.84,6.08,-6.07,-6.11,-5.95,-4.23,-4.23,-4.25
150.75,1.83,6.07,1.83,6.07,-6.06,-6.08,-5.88,-4.23,-4.23,-4.24
152.26,1.81,6.05,1.81,6.05,-6.04,-6.06,-5.80,-4.23,-4.23,-4.24
153.78,1.78,6.02,1.78,6.02,-6.02,-6.03,-5.73,-4.24,-4.24,-4.24
155.32,1.75,5.98,1.75,5.98,-5.99,-6.00,-5.66,-4.24,-4.24,-4.23
156.88,1.72,5.95,1.72,5.95,-5.96,-5.97,-5.59,-4.24,-4.24,-4.23
158.44,1.70,5.93,1.70,5.93,-5.93,-5.94,-5.52,-4.23,-4.23,-4.23
160.03,1.68,5.91,1.68,5.91,-5.90,-5.91,-5.46,-4.22,-4.23,-4.23
161.63,1.65,5.88,1.65,5.88,-5.87,-5.87,-5.40,-4.22,-4.22,-4.23
163.24,1.62,5.84,1.62,5.84,-5.84,-5.84,-5.34,-4.22,-4.22,-4.22
164.88,1.59,5.81,1.59,5.81,-5.80,-5.81,-5.29,-4.21,-4.22,-4.22
166.53,1.55,5.77,1.55,5.77,-5.77,-5.77,-5.23,-4.21,-4.21,-4.22
168.19,1.51,5.73,1.51,5.73,-5.73,-5.74,-5.19,-4.22,-4.21,-4.22
169.87,1.48,5.69,1.48,5.69,-5.69,-5.71,-5.14,-4.21,-4.22,-4.21
171.57,1.44,5.65,1.44,5.65,-5.66,-5.67,-5.10,-4.22,-4.22,-4.21
173.29,1.40,5.61,1.41,5.61,-5.63,-5.64,-5.07,-4.23,-4.22,-4.21
175.02,1.38,5.59,1.38,5.59,-5.60,-5.61,-5.03,-4.22,-4.21,-4.21
176.77,1.36,5.56,1.36,5.56,-5.57,-5.57,-5.00,-4.21,-4.20,-4.20
178.54,1.35,5.55,1.35,5.54,-5.54,-5.54,-4.98,-4.19,-4.19,-4.20
180.32,1.32,5.52,1.32,5.52,-5.51,-5.51,-4.95,-4.19,-4.19,-4.20
182.13,1.29,5.49,1.29,5.49,-5.48,-5.48,-4.94,-4.19,-4.19,-4.20
183.95,1.25,5.45,1.25,5.45,-5.44,-5.44,-4.92,-4.19,-4.19,-4.20
185.79,1.21,5.41,1.21,5.41,-5.40,-5.41,-4.91,-4.19,-4.19,-4.20
187.65,1.17,5.37,1.17,5.37,-5.37,-5.38,-4.90,-4.20,-4.20,-4.20
189.52,1.12,5.32,1.12,5.32,-5.33,-5.35,-4.90,-4.21,-4.21,-4.20
191.42,1.08,5.28,1.08,5.28,-5.30,-5.32,-4.89,-4.21,-4.21,-4.20
193.33,1.05,5.25,1.05,5.25,-5.26,-5.29,-4.90,-4.21,-4.21,-4.20
195.27,1.02,5.22,1.03,5.23,-5.23,-5.25,-4.90,-4.21,-4.21,-4.20
197.22,1.01,5.21,1.01,5.21,-5.20,-5.22,-4.91,-4.19,-4.20,-4.20
199.19,0.99,5.19,0.99,5.19,-5.18,-5.19,-4.92,-4.19,-4.19,-4.20
201.18,0.97,5.16,0.97,5.16,-5.15,-5.16,-4.93,-4.18,-4.18,-4.19
203.19,0.94,5.13,0.94,5.13,-5.12,-5.13,-4.94,-4.18,-4.18,-4.19
205.23,0.91,5.09,0.91,5.09,-5.09,-5.09,-4.96,-4.17,-4.18,-4.18
207.28,0.87,5.05,0.87,5.05,-5.05,-5.06,-4.98,-4.18,-4.18,-4.18
209.35,0.84,5.02,0.84,5.01,-5.02,-5.03,-5.00,-4.18,-4.18,-4.18
211.44,0.80,4.97,0.80,4.97,-4.98,-4.99,-5.02,-4.18,-4.18,-4.17
213.56,0.77,4.94,0.77,4.94,-4.95,-4.96,-5.04,-4.18,-4.18,-4.17
215.69,0.74,4.91,0.74,4.91,-4.92,-4.93,-5.06,-4.18,-4.18,-4.17
217.85,0.72,4.89,0.72,4.89,-4.89,-4.89,-5.08,-4.17,-4.17,-4.17
220.03,0.70,4.86,0.70,4.86,-4.87,-4.86,-5.10,-4.16,-4.16,-4.16
222.23,0.69,4.85,0.69,4.85,-4.84,-4.83,-5.12,-4.15,-4.15,-4.16
224.45,0.66,4.82,0.66,4.82,-4.81,-4.80,-5.14,-4.15,-4.15,-4.16
226.70,0.64,4.80,0.64,4.79,-4.78,-4.77,-5.15,-4.14,-4.15,-4.16
228.96,0.60,4.75,0.60,4.76,-4.75,-4.74,-5.17,-4.15,-4.15,-4.15
231.25,0.57,4.72,0.57,4.72,-4.72,-4.72,-5.18,-4.15,-4.15,-4.15
233.57,0.53,4.68,0.53,4.68,-4.68,-4.69,-5.19,-4.15,-4.15,-4.15
235.90,0.50,4.64,0.50,4.64,-4.64,-4.66,-5.19,-4.14,-4.15,-4.14
238.26,0.46,4.60,0.46,4.60,-4.60,-4.64,-5.19,-4.14,-4.14,-4.14
240.64,0.43,4.56,0.43,4.56,-4.57,-4.62,-5.19,-4.14,-4.13,-4.13
243.05,0.41,4.53,0.41,4.53,-4.53,-4.60,-5.18,-4.12,-4.12,-4.12
245.48,0.39,4.50,0.39,4.50,-4.49,-4.57,-5.17,-4.10,-4.11,-4.11
247.93,0.36,4.47,0.36,4.47,-4.46,-4.55,-5.15,-4.10,-4.10,-4.11
250.41,0.33,4.43,0.33,4.43,-4.43,-4.53,-5.13,-4.10,-4.10,-4.10
252.92,0.31,4.40,0.31,4.40,-4.40,-4.51,-5.11,-4.09,-4.09,-4.09
255.45,0.28,4.36,0.29,4.37,-4.37,-4.49,-5.07,-4.09,-4.09,-4.08
258.00,0.27,4.35,0.27,4.34,-4.35,-4.47,-5.04,-4.08,-4.08,-4.08
260.58,0.25,4.32,0.25,4.32,-4.32,-4.45,-5.00,-4.07,-4.07,-4.07
263.19,0.23,4.30,0.23,4.30,-4.30,-4.42,-4.96,-4.07,-4.07,-4.07
265.82,0.21,4.28,0.21,4.27,-4.28,-4.40,-4.91,-4.07,-4.07,-4.07
268.48,0.19,4.25,0.19,4.25,-4.26,-4.38,-4.85,-4.07,-4.06,-4.06
271.16,0.17,4.23,0.17,4.23,-4.23,-4.35,-4.80,-4.06,-4.06,-4.06
273.87,0.16,4.22,0.16,4.21,-4.21,-4.33,-4.74,-4.05,-4.05,-4.06
276.61,0.14,4.19,0.14,4.19,-4.18,-4.30,-4.68,-4.04,-4.04,-4.05
279.38,0.12,4.17,0.12,4.16,-4.16,-4.27,-4.61,-4.04,-4.04,-4.05
282.17,0.09,4.13,0.09,4.13,-4.13,-4.24,-4.54,-4.04,-4.04,-4.04
284.99,0.05,4.09,0.05,4.09,-4.10,-4.21,-4.48,-4.05,-4.05,-4.04
287.84,0.02,4.06,0.02,4.06,-4.07,-4.18,-4.41,-4.05,-4.05,-4.04
290.72,0.00,4.04,-0.00,4.04,-4.04,-4.15,-4.34,-4.04,-4.04,-4.04
293.63,-0.02,4.02,-0.02,4.01,-4.01,-4.12,-4.26,-4.03,-4.04,-4.04
296.57,-0.05,3.99,-0.05,3.99,-3.99,-4.08,-4.19,-4.04,-4.03,-4.04
299.53,-0.07,3.96,-0.07,3.97,-3.96,-4.05,-4.12,-4.03,-4.03,-4.03
302.53,-0.09,3.94,-0.09,3.94,-3.94,-4.01,-4.05,-4.03,-4.03,-4.03
305.55,-0.11,3.92,-0.11,3.91,-3.91,-3.98,-3.98,-4.02,-4.03,-4.03
308.61,-0.14,3.88,-0.14,3.89,-3.89,-3.94,-3.90,-4.03,-4.02,-4.02
311.69,-0.16,3.86,-0.16,3.86,-3.86,-3.90,-3.84,-4.02,-4.02,-4.02
314.81,-0.18,3.83,-0.18,3.83,-3.83,-3.87,-3.77,-4.01,-4.01,-4.01
317.96,-0.20,3.81,-0.20,3.81,-3.80,-3.83,-3.70,-4.00,-4.00,-4.01
321.14,-0.22,3.78,-0.22,3.78,-3.77,-3.79,-3.63,-3.99,-4.00,-4.00
324.35,-0.25,3.75,-0.25,3.75,-3.74,-3.75,-3.57,-3.99,-3.99,-4.00
327.59,-0.28,3.72,-0.28,3.71,-3.71,-3.71,-3.51,-3.99,-3.99,-4.00
330.87,-0.31,3.68,-0.31,3.68,-3.68,-3.67,-3.45,-3.99,-3.99,-3.99
334.18,-0.34,3.64,-0.34,3.65,-3.65,-3.63,-3.39,-3.99,-3.99,-3.98
337.52,-0.36,3.62,-0.36,3.61,-3.62,-3.60,-3.34,-3.98,-3.98,-3.98
340.90,-0.38,3.59,-0.38,3.59,-3.60,-3.56,-3.28,-3.98,-3.98,-3.97
344.30,-0.40,3.57,-0.40,3.57,-3.57,-3.52,-3.23,-3.97,-3.97,-3.97
347.75,-0.41,3.56,-0.41,3.56,-3.55,-3.48,-3.18,-3.96,-3.97,-3.97
351.23,-0.43,3.54,-0.43,3.54,-3.54,-3.44,-3.13,-3.97,-3.97,-3.97
354.74,-0.44,3.52,-0.44,3.52,-3.52,-3.40,-3.09,-3.96,-3.96,-3.96
358.28,-0.46,3.50,-0.46,3.50,-3.50,-3.36,-3.05,-3.96,-3.96,-3.96
361.87,-0.47,3.49,-0.47,3.49,-3.49,-3.33,-3.01,-3.95,-3.96,-3.96
365.49,-0.49,3.47,-0.49,3.47,-3.46,-3.29,-2.97,-3.95,-3.95,-3.96
369.14,-0.51,3.45,-0.51,3.45,-3.44,-3.25,-2.93,-3.95,-3.95,-3.96
372.83,-0.54,3.42,-0.54,3.42,-3.41,-3.21,-2.90,-3.95,-3.95,-3.96
376.56,-0.57,3.38,-0.57,3.38,-3.38,-3.18,-2.87,-3.95,-3.95,-3.95
380.33,-0.60,3.35,-0.60,3.35,-3.35,-3.14,-2.84,-3.95,-3.95,-3.95
384.13,-0.63,3.32,-0.63,3.32,-3.32,-3.11,-2.81,-3.95,-3.95,-3.95
387.97,-0.66,3.29,-0.66,3.29,-3.29,-3.07,-2.79,-3.95,-3.95,-3.95
391.85,-0.69,3.25,-0.69,3.25,-3.26,-3.04,-2.76,-3.95,-3.95,-3.94
395.77,-0.71,3.23,-0.71,3.23,-3.23,-3.00,-2.74,-3.94,-3.94,-3.94
399.73,-0.73,3.20,-0.73,3.20,-3.21,-2.97,-2.72,-3.94,-3.94,-3.93
403.72,-0.74,3.19,-0.74,3.19,-3.19,-2.94,-2.71,-3.93,-3.93,-3.93
407.76,-0.75,3.17,-0.75,3.17,-3.17,-2.90,-2.69,-3.92,-3.92,-3.92
411.84,-0.76,3.16,-0.76,3.16,-3.16,-2.87,-2.68,-3.92,-3.92,-3.92
415.96,-0.77,3.14,-0.77,3.14,-3.14,-2.84,-2.66,-3.91,-3.91,-3.91
420.12,-0.78,3.13,-0.78,3.13,-3.13,-2.81,-2.65,-3.90,-3.90,-3.91
424.32,-0.79,3.12,-0.79,3.11,-3.11,-2.78,-2.64,-3.90,-3.90,-3.91
428.56,-0.81,3.09,-0.81,3.09,-3.08,-2.75,-2.63,-3.89,-3.89,-3.90
432.85,-0.84,3.06,-0.83,3.06,-3.06,-2.72,-2.63,-3.90,-3.89,-3.90
437.18,-0.86,3.04,-0.86,3.03,-3.03,-2.70,-2.62,-3.89,-3.90,-3.90
