frequency,raw,error,smoothed,error_smoothed,equalization,parametric_eq,fixed_band_eq,equalized_raw,equalized_smoothed,target
20.00,-1.90,-0.12,-1.91,-0.12,0.11,-0.05,-0.63,-1.80,-1.80,-1.79
20.20,-1.84,-0.10,-1.84,-0.09,0.09,-0.09,-0.65,-1.75,-1.75,-1.75
20.40,-1.78,-0.07,-1.78,-0.07,0.07,-0.12,-0.66,-1.71,-1.71,-1.71
20.61,-1.73,-0.04,-1.72,-0.04,0.05,-0.16,-0.68,-1.68,-1.67,-1.69
20.81,-1.66,-0.01,-1.66,-0.02,0.02,-0.19,-0.70,-1.64,-1.64,-1.65
21.02,-1.60,0.01,-1.61,0.01,-0.00,-0.22,-0.72,-1.61,-1.61,-1.61
21.23,-1.56,0.04,-1.56,0.04,-0.03,-0.26,-0.74,-1.60,-1.59,-1.60
21.44,-1.51,0.07,-1.52,0.07,-0.07,-0.29,-0.76,-1.58,-1.58,-1.58
21.66,-1.48,0.10,-1.48,0.10,-0.10,-0.33,-0.78,-1.58,-1.58,-1.57
21.87,-1.43,0.14,-1.43,0.13,-0.14,-0.36,-0.80,-1.57,-1.57,-1.57
22.09,-1.39,0.17,-1.39,0.17,-0.18,-0.40,-0.82,-1.57,-1.57,-1.56
22.31,-1.34,0.22,-1.34,0.22,-0.23,-0.43,-0.85,-1.57,-1.57,-1.56
22.54,-1.30,0.27,-1.29,0.27,-0.28,-0.47,-0.87,-1.57,-1.57,-1.56
22.76,-1.24,0.33,-1.25,0.33,-0.33,-0.50,-0.89,-1.57,-1.57,-1.57
22.99,-1.19,0.39,-1.20,0.38,-0.38,-0.54,-0.92,-1.57,-1.58,-1.58
23.22,-1.15,0.43,-1.15,0.44,-0.43,-0.57,-0.94,-1.59,-1.58,-1.58
23.45,-1.10,0.49,-1.10,0.49,-0.48,-0.61,-0.97,-1.59,-1.59,-1.60
23.69,-1.06,0.54,-1.06,0.54,-0.53,-0.65,-0.99,-1.59,-1.59,-1.60
23.92,-1.01,0.58,-1.01,0.58,-0.58,-0.68,-1.02,-1.59,-1.59,-1.60
24.16,-0.96,0.62,-0.97,0.62,-0.62,-0.72,-1.05,-1.59,-1.59,-1.59
24.40,-0.92,0.66,-0.92,0.67,-0.67,-0.76,-1.07,-1.59,-1.59,-1.59
24.65,-0.88,0.72,-0.88,0.72,-0.72,-0.79,-1.10,-1.59,-1.60,-1.60
24.89,-0.83,0.76,-0.83,0.76,-0.77,-0.83,-1.13,-1.60,-1.60,-1.60
25.14,-0.78,0.82,-0.78,0.82,-0.83,-0.87,-1.16,-1.61,-1.61,-1.60
25.39,-0.72,0.88,-0.73,0.88,-0.89,-0.91,-1.19,-1.61,-1.62,-1.60
25.65,-0.67,0.95,-0.67,0.94,-0.96,-0.94,-1.22,-1.62,-1.63,-1.61
25.91,-0.61,1.02,-0.60,1.01,-1.03,-0.98,-1.25,-1.63,-1.63,-1.62
26.16,-0.54,1.08,-0.54,1.08,-1.09,-1.02,-1.28,-1.63,-1.63,-1.62
26.43,-0.48,1.15,-0.47,1.15,-1.14,-1.06,-1.31,-1.61,-1.61,-1.62
26.69,-0.41,1.21,-0.41,1.22,-1.18,-1.09,-1.34,-1.59,-1.58,-1.62
26.96,-0.35,1.29,-0.37,1.26,-1.20,-1.13,-1.37,-1.55,-1.57,-1.63
27.23,-0.36,1.27,-0.37,1.27,-1.23,-1.17,-1.40,-1.59,-1.59,-1.64
27.50,-0.39,1.24,-0.39,1.24,-1.25,-1.21,-1.43,-1.64,-1.64,-1.64
27.77,-0.43,1.22,-0.42,1.22,-1.27,-1.24,-1.46,-1.70,-1.70,-1.65
28.05,-0.44,1.20,-0.42,1.23,-1.30,-1.28,-1.49,-1.74,-1.72,-1.65
28.33,-0.37,1.28,-0.38,1.28,-1.32,-1.32,-1.52,-1.70,-1.70,-1.66
28.62,-0.31,1.35,-0.31,1.35,-1.36,-1.36,-1.55,-1.66,-1.67,-1.66
28.90,-0.22,1.44,-0.23,1.43,-1.40,-1.40,-1.57,-1.62,-1.63,-1.66
29.19,-0.17,1.49,-0.18,1.48,-1.45,-1.44,-1.60,-1.62,-1.63,-1.66
29.48,-0.14,1.51,-0.14,1.52,-1.49,-1.47,-1.63,-1.64,-1.63,-1.65
29.78,-0.11,1.56,-0.10,1.55,-1.53,-1.51,-1.65,-1.64,-1.64,-1.66
30.08,-0.08,1.58,-0.08,1.58,-1.57,-1.55,-1.68,-1.65,-1.65,-1.66
30.38,-0.06,1.61,-0.07,1.60,-1.60,-1.59,-1.70,-1.67,-1.67,-1.68
30.68,-0.06,1.61,-0.06,1.62,-1.64,-1.63,-1.72,-1.70,-1.70,-1.68
30.99,-0.05,1.63,-0.04,1.65,-1.67,-1.66,-1.75,-1.73,-1.72,-1.69
31.30,0.00,1.69,0.00,1.69,-1.72,-1.70,-1.77,-1.72,-1.72,-1.69
31.61,0.07,1.76,0.06,1.76,-1.78,-1.74,-1.79,-1.71,-1.72,-1.69
31.93,0.12,1.84,0.12,1.83,-1.83,-1.78,-1.81,-1.71,-1.71,-1.71
32.24,0.18,1.90,0.18,1.90,-1.89,-1.82,-1.82,-1.71,-1.71,-1.72
32.57,0.23,1.96,0.24,1.97,-1.94,-1.85,-1.84,-1.71,-1.70,-1.73
32.89,0.30,2.03,0.28,2.02,-1.99,-1.89,-1.86,-1.70,-1.71,-1.74
33.22,0.32,2.08,0.31,2.06,-2.04,-1.93,-1.88,-1.73,-1.73,-1.76
33.55,0.32,2.08,0.32,2.08,-2.09,-1.97,-1.89,-1.77,-1.77,-1.76
33.89,0.32,2.10,0.32,2.10,-2.13,-2.00,-1.91,-1.82,-1.81,-1.78
34.23,0.35,2.13,0.35,2.14,-2.17,-2.04,-1.92,-1.83,-1.82,-1.79
34.57,0.39,2.19,0.39,2.19,-2.21,-2.08,-1.94,-1.82,-1.82,-1.81
34.92,0.43,2.25,0.43,2.24,-2.24,-2.12,-1.95,-1.80,-1.81,-1.82
35.27,0.46,2.29,0.47,2.30,-2.27,-2.15,-1.97,-1.80,-1.80,-1.82
35.62,0.49,2.33,0.49,2.33,-2.30,-2.19,-1.98,-1.81,-1.80,-1.84
35.97,0.52,2.37,0.50,2.35,-2.33,-2.23,-2.00,-1.82,-1.83,-1.86
36.33,0.50,2.36,0.49,2.36,-2.37,-2.26,-2.01,-1.87,-1.88,-1.86
36.70,0.49,2.36,0.50,2.37,-2.41,-2.30,-2.03,-1.93,-1.92,-1.87
37.06,0.50,2.38,0.52,2.40,-2.45,-2.33,-2.05,-1.95,-1.93,-1.88
37.43,0.59,2.46,0.58,2.47,-2.48,-2.37,-2.07,-1.90,-1.90,-1.88
37.81,0.67,2.55,0.65,2.54,-2.52,-2.41,-2.09,-1.85,-1.86,-1.89
38.19,0.71,2.62,0.70,2.60,-2.55,-2.44,-2.11,-1.83,-1.84,-1.90
38.57,0.72,2.61,0.72,2.62,-2.58,-2.48,-2.13,-1.86,-1.86,-1.90
38.95,0.72,2.62,0.72,2.62,-2.61,-2.51,-2.15,-1.89,-1.89,-1.91
39.34,0.71,2.62,0.70,2.61,-2.63,-2.55,-2.18,-1.93,-1.93,-1.91
39.74,0.70,2.62,0.70,2.62,-2.65,-2.58,-2.20,-1.96,-1.95,-1.92
40.14,0.71,2.63,0.72,2.65,-2.67,-2.61,-2.23,-1.97,-1.95,-1.93
40.54,0.75,2.69,0.75,2.69,-2.69,-2.65,-2.26,-1.94,-1.94,-1.93
40.94,0.81,2.74,0.79,2.73,-2.72,-2.68,-2.29,-1.92,-1.93,-1.94
41.35,0.82,2.77,0.81,2.76,-2.76,-2.71,-2.32,-1.94,-1.95,-1.95
41.76,0.82,2.78,0.83,2.79,-2.79,-2.75,-2.35,-1.98,-1.96,-1.96
42.18,0.85,2.81,0.86,2.83,-2.83,-2.78,-2.39,-1.98,-1.97,-1.97
42.60,0.91,2.89,0.90,2.88,-2.87,-2.81,-2.43,-1.96,-1.96,-1.98
43.03,0.96,2.94,0.93,2.92,-2.90,-2.84,-2.47,-1.95,-1.98,-1.99
43.46,0.93,2.94,0.93,2.94,-2.94,-2.88,-2.51,-2.01,-2.01,-2.01
43.90,0.91,2.94,0.92,2.96,-2.97,-2.91,-2.55,-2.07,-2.05,-2.04
44.33,0.93,2.98,0.93,2.99,-3.01,-2.94,-2.60,-2.08,-2.08,-2.05
44.78,0.96,3.04,0.96,3.03,-3.04,-2.97,-2.64,-2.08,-2.08,-2.08
45.23,0.99,3.09,0.99,3.08,-3.07,-3.00,-2.69,-2.07,-2.08,-2.09
45.68,1.01,3.11,1.01,3.12,-3.09,-3.03,-2.75,-2.08,-2.08,-2.11
46.13,1.02,3.14,1.01,3.13,-3.11,-3.06,-2.80,-2.09,-2.09,-2.12
46.60,1.02,3.14,1.02,3.15,-3.13,-3.09,-2.85,-2.12,-2.12,-2.13
47.06,1.02,3.15,1.01,3.15,-3.16,-3.12,-2.91,-2.14,-2.15,-2.14
47.53,1.02,3.16,1.01,3.15,-3.19,-3.15,-2.97,-2.17,-2.18,-2.14
48.01,1.02,3.16,1.03,3.18,-3.22,-3.17,-3.03,-2.21,-2.19,-2.15
48.49,1.06,3.23,1.06,3.23,-3.26,-3.20,-3.09,-2.19,-2.19,-2.17
48.97,1.12,3.30,1.12,3.30,-3.29,-3.23,-3.16,-2.18,-2.18,-2.18
49.46,1.17,3.36,1.17,3.36,-3.33,-3.26,-3.22,-2.16,-2.16,-2.19
49.96,1.21,3.42,1.20,3.40,-3.37,-3.28,-3.29,-2.15,-2.16,-2.21
50.46,1.22,3.41,1.22,3.42,-3.40,-3.31,-3.35,-2.18,-2.18,-2.20
50.96,1.22,3.42,1.22,3.43,-3.42,-3.33,-3.42,-2.20,-2.20,-2.20
51.47,1.22,3.43,1.22,3.43,-3.43,-3.36,-3.49,-2.22,-2.22,-2.21
51.99,1.22,3.44,1.22,3.43,-3.44,-3.38,-3.56,-2.23,-2.23,-2.22
52.51,1.22,3.44,1.22,3.44,-3.44,-3.41,-3.63,-2.23,-2.23,-2.22
53.03,1.22,3.43,1.22,3.44,-3.44,-3.43,-3.70,-2.23,-2.23,-2.22
53.56,1.22,3.44,1.22,3.44,-3.45,-3.46,-3.76,-2.23,-2.23,-2.23
54.10,1.22,3.45,1.22,3.45,-3.45,-3.48,-3.83,-2.24,-2.24,-2.24
54.64,1.22,3.45,1.22,3.46,-3.46,-3.50,-3.90,-2.25,-2.25,-2.24
55.18,1.22,3.47,1.22,3.46,-3.47,-3.52,-3.96,-2.26,-2.26,-2.25
55.74,1.22,3.48,1.22,3.47,-3.48,-3.55,-4.02,-2.26,-2.26,-2.26
56.29,1.22,3.48,1.22,3.49,-3.48,-3.57,-4.08,-2.26,-2.26,-2.26
56.86,1.22,3.50,1.22,3.50,-3.48,-3.59,-4.14,-2.27,-2.26,-2.28
57.42,1.21,3.50,1.20,3.50,-3.48,-3.61,-4.19,-2.28,-2.28,-2.30
58.00,1.19,3.49,1.17,3.48,-3.48,-3.63,-4.24,-2.29,-2.31,-2.31
58.58,1.13,3.45,1.14,3.46,-3.47,-3.65,-4.29,-2.35,-2.33,-2.32
59.16,1.10,3.43,1.13,3.46,-3.47,-3.67,-4.33,-2.37,-2.34,-2.34
59.76,1.13,3.49,1.10,3.46,-3.46,-3.68,-4.37,-2.33,-2.36,-2.36
60.35,1.10,3.49,1.08,3.47,-3.46,-3.70,-4.40,-2.36,-2.38,-2.38
60.96,1.03,3.43,1.05,3.47,-3.47,-3.72,-4.43,-2.45,-2.42,-2.41
61.57,1.02,3.47,1.02,3.47,-3.49,-3.74,-4.46,-2.47,-2.47,-2.45
62.18,1.02,3.50,1.01,3.50,-3.51,-3.75,-4.47,-2.50,-2.51,-2.49
62.80,1.02,3.54,1.01,3.54,-3.54,-3.77,-4.49,-2.53,-2.53,-2.53
63.43,1.02,3.58,1.01,3.58,-3.57,-3.79,-4.49,-2.56,-2.56,-2.56
64.07,1.02,3.61,1.01,3.61,-3.61,-3.80,-4.49,-2.59,-2.59,-2.60
64.71,1.02,3.65,1.02,3.66,-3.64,-3.82,-4.49,-2.62,-2.62,-2.64
65.35,1.03,3.69,1.03,3.69,-3.67,-3.83,-4.48,-2.65,-2.65,-2.66
66.01,1.04,3.74,1.02,3.72,-3.71,-3.84,-4.47,-2.67,-2.69,-2.70
66.67,1.00,3.74,1.00,3.73,-3.75,-3.86,-4.45,-2.75,-2.75,-2.74
67.33,0.98,3.75,0.98,3.76,-3.78,-3.87,-4.43,-2.81,-2.80,-2.77
68.01,0.97,3.78,0.98,3.80,-3.82,-3.88,-4.41,-2.85,-2.83,-2.81
68.69,1.02,3.87,1.00,3.85,-3.85,-3.89,-4.38,-2.84,-2.85,-2.85
69.37,1.03,3.92,1.02,3.91,-3.89,-3.91,-4.35,-2.87,-2.88,-2.89
70.07,1.02,3.95,1.02,3.95,-3.94,-3.92,-4.31,-2.92,-2.91,-2.94
70.77,1.02,3.98,1.02,3.99,-3.99,-3.93,-4.28,-2.97,-2.97,-2.97
71.48,1.02,4.03,1.01,4.03,-4.04,-3.94,-4.24,-3.02,-3.02,-3.01
72.19,1.02,4.07,1.02,4.07,-4.09,-3.95,-4.20,-3.07,-3.07,-3.05
72.91,1.02,4.12,1.02,4.12,-4.13,-3.96,-4.16,-3.12,-3.12,-3.11
73.64,1.02,4.17,1.02,4.17,-4.17,-3.97,-4.12,-3.15,-3.15,-3.15
74.38,1.02,4.21,1.02,4.22,-4.20,-3.97,-4.09,-3.19,-3.19,-3.20
75.12,1.02,4.26,1.02,4.26,-4.24,-3.98,-4.05,-3.22,-3.22,-3.24
75.87,1.02,4.29,1.01,4.29,-4.27,-3.99,-4.01,-3.25,-3.26,-3.28
76.63,0.99,4.30,0.97,4.29,-4.30,-4.00,-3.97,-3.31,-3.32,-3.32
77.40,0.94,4.29,0.94,4.29,-4.31,-4.00,-3.93,-3.38,-3.38,-3.35
78.17,0.89,4.28,0.92,4.31,-4.32,-4.01,-3.90,-3.44,-3.41,-3.39
78.95,0.92,4.34,0.91,4.33,-4.33,-4.01,-3.86,-3.41,-3.42,-3.42
79.74,0.91,4.36,0.89,4.34,-4.33,-4.02,-3.83,-3.41,-3.43,-3.45
80.54,0.87,4.34,0.86,4.34,-4.32,-4.02,-3.80,-3.46,-3.46,-3.48
81.35,0.79,4.29,0.81,4.31,-4.30,-4.03,-3.77,-3.52,-3.50,-3.51
82.16,0.74,4.28,0.74,4.28,-4.28,-4.03,-3.75,-3.55,-3.54,-3.54
82.98,0.71,4.28,0.69,4.26,-4.25,-4.04,-3.72,-3.54,-3.56,-3.56
83.81,0.62,4.22,0.65,4.25,-4.23,-4.04,-3.70,-3.61,-3.58,-3.60
84.65,0.61,4.24,0.57,4.20,-4.20,-4.04,-3.69,-3.60,-3.64,-3.64
85.50,0.50,4.15,0.48,4.14,-4.18,-4.04,-3.67,-3.69,-3.70,-3.66
86.35,0.38,4.07,0.42,4.11,-4.16,-4.04,-3.66,-3.78,-3.74,-3.69
87.22,0.39,4.11,0.41,4.13,-4.14,-4.04,-3.65,-3.76,-3.73,-3.72
88.09,0.42,4.17,0.40,4.15,-4.13,-4.04,-3.64,-3.71,-3.73,-3.76
88.97,0.45,4.23,0.36,4.15,-4.11,-4.04,-3.64,-3.67,-3.75,-3.78
89.86,0.24,4.05,0.30,4.11,-4.10,-4.04,-3.64,-3.86,-3.80,-3.82
90.76,0.20,4.05,0.22,4.07,-4.09,-4.04,-3.64,-3.89,-3.86,-3.85
91.66,0.19,4.06,0.16,4.04,-4.07,-4.04,-3.65,-3.89,-3.91,-3.88
92.58,0.15,4.06,0.13,4.04,-4.05,-4.04,-3.65,-3.90,-3.92,-3.92
93.51,0.07,4.01,0.08,4.02,-4.01,-4.03,-3.66,-3.95,-3.94,-3.94
94.44,0.01,3.97,0.01,3.98,-3.97,-4.03,-3.68,-3.97,-3.96,-3.97
95.39,-0.04,3.95,-0.05,3.95,-3.93,-4.02,-3.69,-3.97,-3.98,-4.00
96.34,-0.11,3.92,-0.12,3.91,-3.88,-4.02,-3.71,-4.00,-4.01,-4.03
97.30,-0.22,3.84,-0.22,3.84,-3.83,-4.01,-3.73,-4.05,-4.05,-4.06
98.28,-0.31,3.77,-0.31,3.77,-3.78,-4.01,-3.75,-4.09,-4.09,-4.09
99.26,-0.42,3.68,-0.40,3.70,-3.72,-4.00,-3.77,-4.15,-4.13,-4.11
100.25,-0.46,3.67,-0.48,3.65,-3.68,-3.99,-3.80,-4.14,-4.16,-4.13
101.25,-0.55,3.62,-0.54,3.62,-3.63,-3.98,-3.83,-4.18,-4.18,-4.16
102.27,-0.60,3.58,-0.61,3.58,-3.59,-3.98,-3.85,-4.19,-4.20,-4.19
103.29,-0.68,3.55,-0.69,3.54,-3.54,-3.97,-3.88,-4.22,-4.23,-4.24
104.32,-0.76,3.49,-0.73,3.53,-3.49,-3.95,-3.91,-4.26,-4.22,-4.26
105.37,-0.79,3.50,-0.78,3.51,-3.46,-3.94,-3.94,-4.26,-4.24,-4.29
106.42,-0.79,3.53,-0.87,3.45,-3.44,-3.93,-3.97,-4.23,-4.31,-4.32
107.48,-0.98,3.39,-0.99,3.37,-3.41,-3.92,-4.00,-4.39,-4.40,-4.36
108.56,-1.15,3.24,-1.06,3.34,-3.39,-3.90,-4.03,-4.55,-4.45,-4.40
109.64,-1.10,3.33,-1.08,3.35,-3.38,-3.89,-4.05,-4.49,-4.46,-4.44
110.74,-0.97,3.49,-1.04,3.43,-3.39,-3.87,-4.08,-4.37,-4.43,-4.47
111.85,-1.00,3.49,-1.03,3.47,-3.42,-3.86,-4.10,-4.43,-4.45,-4.49
112.97,-1.06,3.48,-1.08,3.45,-3.48,-3.84,-4.12,-4.54,-4.56,-4.54
114.10,-1.15,3.40,-1.11,3.46,-3.55,-3.82,-4.14,-4.70,-4.66,-4.56
115.24,-1.10,3.49,-1.04,3.56,-3.62,-3.80,-4.15,-4.72,-4.66,-4.60
116.39,-0.88,3.74,-0.93,3.69,-3.68,-3.78,-4.16,-4.57,-4.61,-4.62
117.55,-0.76,3.88,-0.84,3.81,-3.73,-3.76,-4.17,-4.50,-4.57,-4.65
118.73,-0.83,3.84,-0.80,3.87,-3.78,-3.74,-4.17,-4.62,-4.58,-4.68
119.92,-0.85,3.83,-0.82,3.87,-3.83,-3.72,-4.16,-4.68,-4.65,-4.68
121.12,-0.84,3.86,-0.86,3.84,-3.86,-3.70,-4.16,-4.71,-4.73,-4.71
122.33,-0.85,3.87,-0.90,3.82,-3.88,-3.67,-4.14,-4.73,-4.78,-4.72
123.55,-0.95,3.77,-0.90,3.83,-3.87,-3.64,-4.12,-4.82,-4.77,-4.73
124.79,-0.96,3.79,-0.90,3.85,-3.84,-3.62,-4.09,-4.80,-4.74,-4.75
126.03,-0.82,3.95,-0.91,3.85,-3.81,-3.59,-4.06,-4.62,-4.72,-4.77
127.29,-0.95,3.84,-0.97,3.81,-3.78,-3.56,-4.02,-4.73,-4.75,-4.78
128.57,-1.09,3.71,-1.06,3.74,-3.75,-3.53,-3.98,-4.84,-4.81,-4.80
129.85,-1.21,3.60,-1.13,3.68,-3.71,-3.50,-3.93,-4.93,-4.85,-4.82
131.15,-1.13,3.69,-1.17,3.66,-3.68,-3.47,-3.87,-4.81,-4.85,-4.83
132.46,-1.13,3.72,-1.21,3.63,-3.64,-3.43,-3.81,-4.76,-4.85,-4.84
133.79,-1.31,3.53,-1.23,3.62,-3.61,-3.40,-3.74,-4.92,-4.84,-4.84
135.12,-1.34,3.53,-1.32,3.55,-3.58,-3.36,-3.67,-4.92,-4.89,-4.87
136.48,-1.28,3.59,-1.39,3.49,-3.54,-3.33,-3.59,-4.82,-4.93,-4.87
137.84,-1.47,3.42,-1.38,3.52,-3.49,-3.29,-3.51,-4.96,-4.87,-4.89
139.22,-1.44,3.48,-1.42,3.50,-3.43,-3.25,-3.43,-4.88,-4.85,-4.92
140.61,-1.39,3.55,-1.50,3.43,-3.37,-3.21,-3.34,-4.76,-4.87,-4.94
142.02,-1.61,3.33,-1.59,3.36,-3.31,-3.17,-3.25,-4.92,-4.90,-4.94
143.44,-1.78,3.17,-1.76,3.20,-3.24,-3.13,-3.15,-5.03,-5.01,-4.96
144.87,-1.90,3.08,-1.91,3.07,-3.17,-3.09,-3.06,-5.08,-5.09,-4.98
146.32,-2.02,2.99,-1.97,3.04,-3.10,-3.04,-2.96,-5.12,-5.06,-5.01
147.78,-1.97,3.06,-2.00,3.04,-3.02,-2.99,-2.86,-5.00,-5.02,-5.04
149.26,-2.00,3.07,-2.05,3.02,-2.96,-2.95,-2.76,-4.97,-5.01,-5.07
150.75,-2.16,2.97,-2.17,2.95,-2.92,-2.90,-2.65,-5.07,-5.09,-5.13
152.26,-2.34,2.83,-2.33,2.84,-2.88,-2.85,-2.55,-5.22,-5.21,-5.17
153.78,-2.51,2.71,-2.45,2.78,-2.84,-2.80,-2.45,-5.36,-5.29,-5.22
155.32,-2.50,2.78,-2.53,2.75,-2.79,-2.75,-2.34,-5.29,-5.32,-5.29
156.88,-2.56,2.78,-2.59,2.76,-2.71,-2.69,-2.24,-5.28,-5.30,-5.34
158.44,-2.70,2.72,-2.69,2.72,-2.62,-2.64,-2.13,-5.32,-5.32,-5.41
160.03,-2.83,2.64,-2.87,2.60,-2.53,-2.58,-2.03,-5.36,-5.40,-5.47
161.63,-3.10,2.42,-3.07,2.45,-2.42,-2.52,-1.92,-5.53,-5.50,-5.52
163.24,-3.28,2.31,-3.25,2.33,-2.33,-2.46,-1.82,-5.61,-5.58,-5.58
164.88,-3.40,2.21,-3.42,2.20,-2.26,-2.40,-1.71,-5.66,-5.68,-5.61
166.53,-3.49,2.16,-3.55,2.11,-2.20,-2.34,-1.61,-5.69,-5.75,-5.65
168.19,-3.68,2.00,-3.64,2.04,-2.15,-2.28,-1.51,-5.83,-5.79,-5.68
169.87,-3.71,2.00,-3.69,2.02,-2.10,-2.22,-1.40,-5.82,-5.79,-5.71
171.57,-3.63,2.09,-3.64,2.09,-2.07,-2.15,-1.30,-5.70,-5.70,-5.73
173.29,-3.58,2.15,-3.56,2.18,-2.05,-2.08,-1.20,-5.63,-5.60,-5.74
175.02,-3.47,2.27,-3.58,2.16,-2.03,-2.01,-1.10,-5.51,-5.62,-5.74
176.77,-3.68,2.06,-3.71,2.04,-2.01,-1.95,-1.00,-5.70,-5.72,-5.75
178.54,-3.94,1.81,-3.86,1.89,-1.97,-1.87,-0.90,-5.92,-5.83,-5.75
180.32,-3.99,1.74,-3.94,1.80,-1.90,-1.80,-0.81,-5.90,-5.84,-5.74
182.13,-3.92,1.81,-3.93,1.81,-1.81,-1.73,-0.71,-5.73,-5.73,-5.73
183.95,-3.83,1.90,-3.93,1.81,-1.70,-1.65,-0.61,-5.54,-5.63,-5.74
185.79,-4.02,1.72,-4.05,1.69,-1.60,-1.57,-0.52,-5.62,-5.65,-5.74
187.65,-4.27,1.48,-4.25,1.50,-1.51,-1.50,-0.42,-5.78,-5.76,-5.76
189.52,-4.50,1.25,-4.43,1.33,-1.43,-1.42,-0.33,-5.93,-5.86,-5.76
191.42,-4.51,1.26,-4.52,1.25,-1.34,-1.33,-0.23,-5.86,-5.86,-5.77
193.33,-4.51,1.27,-4.56,1.22,-1.26,-1.25,-0.14,-5.77,-5.81,-5.78
195.27,-4.59,1.20,-4.60,1.20,-1.17,-1.17,-0.05,-5.76,-5.76,-5.80
197.22,-4.69,1.12,-4.69,1.13,-1.09,-1.08,0.04,-5.78,-5.77,-5.82
199.19,-4.78,1.05,-4.79,1.04,-1.03,-0.99,0.13,-5.81,-5.82,-5.84
201.18,-4.90,0.94,-4.89,0.96,-0.96,-0.91,0.22,-5.87,-5.85,-5.85
203.19,-4.98,0.87,-4.98,0.89,-0.89,-0.82,0.31,-5.88,-5.87,-5.86
205.23,-5.05,0.84,-5.08,0.80,-0.80,-0.72,0.40,-5.86,-5.88,-5.89
207.28,-5.17,0.72,-5.18,0.72,-0.70,-0.63,0.48,-5.87,-5.88,-5.89
209.35,-5.31,0.60,-5.30,0.62,-0.60,-0.54,0.56,-5.91,-5.89,-5.92
211.44,-5.43,0.51,-5.43,0.50,-0.50,-0.44,0.65,-5.93,-5.93,-5.94
213.56,-5.54,0.40,-5.56,0.39,-0.41,-0.35,0.73,-5.96,-5.97,-5.95
215.69,-5.70,0.26,-5.68,0.27,-0.32,-0.25,0.81,-6.02,-6.00,-5.96
217.85,-5.80,0.16,-5.79,0.18,-0.22,-0.15,0.88,-6.03,-6.01,-5.96
220.03,-5.87,0.11,-5.88,0.10,-0.11,-0.05,0.95,-5.99,-5.99,-5.98
222.23,-5.94,0.04,-5.94,0.05,0.00,0.05,1.02,-5.94,-5.93,-5.99
224.45,-6.01,-0.04,-6.02,-0.04,0.13,0.15,1.09,-5.89,-5.90,-5.98
226.70,-6.12,-0.15,-6.17,-0.19,0.25,0.25,1.16,-5.87,-5.91,-5.97
228.96,-6.36,-0.38,-6.35,-0.38,0.39,0.35,1.22,-5.97,-5.96,-5.97
231.25,-6.55,-0.60,-6.53,-0.57,0.52,0.46,1.27,-6.04,-6.01,-5.96
233.57,-6.68,-0.74,-6.65,-0.70,0.64,0.56,1.33,-6.05,-6.01,-5.94
235.90,-6.72,-0.79,-6.74,-0.81,0.76,0.66,1.38,-5.97,-5.98,-5.93
238.26,-6.73,-0.83,-6.82,-0.91,0.87,0.77,1.42,-5.86,-5.94,-5.91
240.64,-6.94,-1.06,-6.87,-0.99,0.98,0.87,1.46,-5.96,-5.88,-5.88
243.05,-6.93,-1.09,-6.90,-1.05,1.09,0.97,1.50,-5.84,-5.81,-5.85
245.48,-6.88,-1.06,-6.92,-1.10,1.19,1.07,1.53,-5.70,-5.74,-5.82
247.93,-6.95,-1.15,-6.99,-1.18,1.27,1.17,1.56,-5.68,-5.72,-5.80
250.41,-7.10,-1.31,-7.15,-1.37,1.35,1.27,1.58,-5.74,-5.80,-5.78
252.92,-7.37,-1.63,-7.29,-1.53,1.44,1.36,1.60,-5.93,-5.84,-5.75
255.45,-7.42,-1.70,-7.34,-1.62,1.53,1.46,1.62,-5.90,-5.82,-5.72
258.00,-7.25,-1.55,-7.34,-1.64,1.60,1.55,1.63,-5.65,-5.74,-5.71
260.58,-7.28,-1.59,-7.31,-1.62,1.68,1.64,1.63,-5.61,-5.63,-5.69
263.19,-7.38,-1.72,-7.36,-1.69,1.75,1.73,1.63,-5.64,-5.61,-5.67
265.82,-7.44,-1.79,-7.47,-1.82,1.81,1.81,1.63,-5.63,-5.66,-5.65
268.48,-7.56,-1.94,-7.52,-1.90,1.89,1.89,1.62,-5.67,-5.63,-5.62
271.16,-7.58,-1.99,-7.53,-1.93,1.98,1.96,1.61,-5.61,-5.55,-5.60
273.87,-7.51,-1.92,-7.60,-2.03,2.08,2.03,1.60,-5.43,-5.52,-5.58
276.61,-7.65,-2.09,-7.70,-2.14,2.18,2.10,1.58,-5.46,-5.52,-5.56
279.38,-7.93,-2.41,-7.81,-2.28,2.28,2.16,1.56,-5.66,-5.54,-5.53
282.17,-7.92,-2.41,-7.95,-2.44,2.35,2.22,1.54,-5.57,-5.59,-5.51
284.99,-7.92,-2.45,-7.96,-2.49,2.41,2.27,1.51,-5.52,-5.56,-5.48
287.84,-7.99,-2.55,-7.92,-2.47,2.45,2.31,1.49,-5.55,-5.47,-5.45
290.72,-7.81,-2.40,-7.89,-2.47,2.47,2.35,1.46,-5.35,-5.42,-5.41
293.63,-7.84,-2.46,-7.82,-2.44,2.46,2.38,1.43,-5.39,-5.36,-5.38
296.57,-7.76,-2.42,-7.77,-2.41,2.43,2.41,1.40,-5.34,-5.34,-5.35
299.53,-7.68,-2.35,-7.73,-2.40,2.39,2.43,1.37,-5.30,-5.34,-5.33
302.53,-7.70,-2.40,-7.61,-2.31,2.33,2.44,1.34,-5.37,-5.28,-5.30
305.55,-7.51,-2.25,-7.56,-2.28,2.28,2.45,1.30,-5.23,-5.27,-5.26
308.61,-7.40,-2.16,-7.50,-2.26,2.25,2.45,1.27,-5.16,-5.26,-5.25
311.69,-7.55,-2.33,-7.42,-2.20,2.22,2.45,1.24,-5.33,-5.20,-5.23
314.81,-7.37,-2.18,-7.38,-2.18,2.21,2.44,1.20,-5.17,-5.18,-5.19
317.96,-7.27,-2.09,-7.35,-2.17,2.20,2.42,1.17,-5.07,-5.15,-5.18
321.14,-7.32,-2.16,-7.30,-2.13,2.19,2.40,1.13,-5.13,-5.10,-5.17
324.35,-7.34,-2.19,-7.34,-2.18,2.18,2.37,1.10,-5.16,-5.15,-5.16
327.59,-7.35,-2.22,-7.40,-2.25,2.17,2.34,1.07,-5.19,-5.23,-5.14
330.87,-7.41,-2.28,-7.38,-2.24,2.16,2.31,1.04,-5.26,-5.22,-5.13
334.18,-7.37,-2.25,-7.30,-2.18,2.15,2.27,1.01,-5.22,-5.15,-5.12
337.52,-7.14,-2.03,-7.22,-2.11,2.14,2.22,0.98,-5.01,-5.08,-5.11
340.90,-7.10,-2.01,-7.14,-2.04,2.12,2.18,0.95,-4.99,-5.02,-5.10
344.30,-7.14,-2.06,-7.12,-2.03,2.09,2.12,0.92,-5.05,-5.03,-5.09
347.75,-7.15,-2.08,-7.15,-2.07,2.06,2.07,0.89,-5.10,-5.09,-5.08
351.23,-7.15,-2.08,-7.15,-2.07,2.02,2.01,0.86,-5.13,-5.12,-5.07
354.74,-7.10,-2.03,-7.11,-2.04,2.00,1.95,0.83,-5.10,-5.10,-5.07
358.28,-7.05,-1.99,-7.05,-1.98,1.98,1.89,0.81,-5.08,-5.07,-5.06
361.87,-6.97,-1.91,-6.99,-1.93,1.95,1.83,0.78,-5.03,-5.05,-5.07
365.49,-6.93,-1.88,-6.94,-1.89,1.90,1.77,0.76,-5.03,-5.04,-5.06
369.14,-6.92,-1.87,-6.91,-1.85,1.84,1.70,0.73,-5.08,-5.06,-5.06
372.83,-6.85,-1.80,-6.87,-1.82,1.78,1.63,0.71,-5.08,-5.10,-5.06
376.56,-6.81,-1.75,-6.79,-1.74,1.71,1.57,0.69,-5.10,-5.08,-5.06
380.33,-6.72,-1.68,-6.68,-1.63,1.65,1.50,0.67,-5.07,-5.02,-5.04
384.13,-6.54,-1.49,-6.62,-1.57,1.60,1.43,0.65,-4.95,-5.02,-5.05
387.97,-6.51,-1.46,-6.57,-1.52,1.54,1.36,0.63,-4.98,-5.03,-5.05
391.85,-6.64,-1.59,-6.50,-1.45,1.48,1.29,0.61,-5.16,-5.02,-5.05
395.77,-6.45,-1.41,-6.47,-1.42,1.42,1.22,0.59,-5.03,-5.05,-5.04
399.73,-6.31,-1.27,-6.44,-1.39,1.36,1.15,0.57,-4.95,-5.08,-5.05
403.72,-6.43,-1.38,-6.37,-1.32,1.31,1.09,0.55,-5.13,-5.06,-5.06
407.76,-6.41,-1.36,-6.31,-1.26,1.25,1.02,0.53,-5.16,-5.06,-5.06
411.84,-6.17,-1.13,-6.26,-1.20,1.18,0.95,0.51,-4.99,-5.07,-5.05
415.96,-6.11,-1.06,-6.18,-1.12,1.11,0.88,0.50,-5.00,-5.07,-5.06
420.12,-6.16,-1.10,-6.08,-1.03,1.04,0.81,0.48,-5.12,-5.04,-5.06
424.32,-6.06,-1.01,-6.01,-0.95,0.97,0.75,0.46,-5.09,-5.04,-5.05
428.56,-5.83,-0.78,-5.95,-0.90,0.90,0.68,0.44,-4.93,-5.04,-5.05
432.85,-5.82,-0.79,-5.84,-0.81,0.83,0.62,0.42,-4.99,-5.01,-5.03
437.18,-5.87,-0.86,-5.73,-0.72,0.75,0.55,0.41,-5.12,-4.98,-5.01
441.55,-5.59,-0.62,-5.69,-0.71,0.67,0.49,0.39,-4.93,-5.02,-4.97
