frequency,raw,error,smoothed,error_smoothed,equalization,parametric_eq,fixed_band_eq,equalized_raw,equalized_smoothed,target
20.00,6.63,7.50,6.63,7.51,-7.51,-7.35,-4.04,-0.87,-0.87,-0.87
20.20,6.66,7.56,6.66,7.56,-7.56,-7.41,-4.14,-0.90,-0.90,-0.90
20.40,6.69,7.61,6.69,7.61,-7.61,-7.47,-4.26,-0.92,-0.92,-0.92
20.61,6.72,7.66,6.72,7.66,-7.66,-7.53,-4.37,-0.94,-0.94,-0.94
20.81,6.75,7.71,6.75,7.71,-7.72,-7.59,-4.49,-0.96,-0.96,-0.96
21.02,6.78,7.76,6.78,7.76,-7.77,-7.64,-4.61,-0.98,-0.98,-0.98
21.23,6.81,7.81,6.81,7.81,-7.81,-7.70,-4.74,-1.00,-1.00,-1.00
21.44,6.84,7.86,6.84,7.86,-7.86,-7.76,-4.87,-1.02,-1.02,-1.02
21.66,6.87,7.91,6.87,7.91,-7.91,-7.81,-5.00,-1.04,-1.04,-1.04
21.87,6.90,7.95,6.90,7.96,-7.96,-7.87,-5.14,-1.05,-1.06,-1.05
22.09,6.93,8.00,6.93,8.00,-8.00,-7.92,-5.28,-1.07,-1.07,-1.07
22.31,6.96,8.04,6.97,8.05,-8.05,-7.97,-5.42,-1.08,-1.08,-1.08
22.54,7.00,8.09,7.00,8.09,-8.09,-8.03,-5.57,-1.09,-1.09,-1.09
22.76,7.03,8.13,7.03,8.13,-8.13,-8.08,-5.72,-1.10,-1.10,-1.10
22.99,7.06,8.17,7.06,8.17,-8.17,-8.13,-5.88,-1.11,-1.11,-1.11
23.22,7.09,8.21,7.09,8.21,-8.21,-8.18,-6.04,-1.12,-1.12,-1.12
23.45,7.12,8.25,7.12,8.25,-8.25,-8.23,-6.20,-1.13,-1.13,-1.13
23.69,7.15,8.29,7.15,8.29,-8.29,-8.27,-6.37,-1.14,-1.14,-1.14
23.92,7.18,8.32,7.18,8.33,-8.33,-8.32,-6.54,-1.14,-1.14,-1.14
24.16,7.21,8.36,7.21,8.36,-8.36,-8.36,-6.71,-1.15,-1.15,-1.15
24.40,7.24,8.39,7.24,8.40,-8.40,-8.41,-6.89,-1.15,-1.15,-1.15
24.65,7.27,8.43,7.27,8.43,-8.43,-8.45,-7.07,-1.16,-1.16,-1.16
24.89,7.30,8.46,7.30,8.47,-8.46,-8.50,-7.25,-1.16,-1.16,-1.16
25.14,7.33,8.50,7.33,8.50,-8.50,-8.54,-7.43,-1.17,-1.17,-1.17
25.39,7.35,8.52,7.36,8.53,-8.53,-8.58,-7.62,-1.18,-1.18,-1.17
25.65,7.38,8.56,7.38,8.56,-8.57,-8.62,-7.81,-1.18,-1.18,-1.18
25.91,7.41,8.59,7.41,8.59,-8.60,-8.65,-8.01,-1.19,-1.19,-1.18
26.16,7.44,8.63,7.44,8.63,-8.63,-8.69,-8.20,-1.19,-1.19,-1.19
26.43,7.47,8.66,7.47,8.67,-8.66,-8.73,-8.39,-1.19,-1.19,-1.19
26.69,7.50,8.70,7.50,8.70,-8.70,-8.76,-8.58,-1.19,-1.19,-1.20
26.96,7.53,8.73,7.53,8.73,-8.73,-8.80,-8.78,-1.20,-1.20,-1.20
27.23,7.55,8.75,7.56,8.76,-8.76,-8.83,-8.97,-1.21,-1.20,-1.20
27.50,7.58,8.79,7.58,8.79,-8.79,-8.86,-9.15,-1.21,-1.21,-1.21
27.77,7.60,8.81,7.60,8.82,-8.82,-8.89,-9.34,-1.22,-1.22,-1.21
28.05,7.62,8.84,7.63,8.85,-8.85,-8.92,-9.52,-1.22,-1.22,-1.22
28.33,7.65,8.87,7.65,8.87,-8.87,-8.95,-9.69,-1.22,-1.22,-1.22
28.62,7.68,8.90,7.68,8.90,-8.90,-8.98,-9.85,-1.22,-1.22,-1.22
28.90,7.70,8.93,7.71,8.93,-8.93,-9.00,-10.01,-1.23,-1.23,-1.23
29.19,7.73,8.96,7.73,8.96,-8.96,-9.03,-10.16,-1.23,-1.23,-1.23
29.48,7.75,8.98,7.76,8.99,-8.99,-9.05,-10.29,-1.24,-1.23,-1.23
29.78,7.78,9.01,7.78,9.01,-9.01,-9.08,-10.41,-1.23,-1.23,-1.23
30.08,7.81,9.04,7.81,9.04,-9.04,-9.10,-10.52,-1.23,-1.23,-1.23
30.38,7.83,9.06,7.83,9.07,-9.06,-9.12,-10.62,-1.23,-1.23,-1.23
30.68,7.85,9.09,7.85,9.09,-9.09,-9.14,-10.70,-1.23,-1.23,-1.24
30.99,7.87,9.11,7.87,9.11,-9.11,-9.16,-10.77,-1.24,-1.24,-1.24
31.30,7.88,9.12,7.89,9.13,-9.13,-9.18,-10.81,-1.25,-1.24,-1.24
31.61,7.90,9.14,7.90,9.15,-9.15,-9.20,-10.85,-1.25,-1.25,-1.24
31.93,7.92,9.17,7.92,9.17,-9.17,-9.22,-10.86,-1.25,-1.25,-1.25
32.24,7.93,9.18,7.94,9.19,-9.19,-9.23,-10.87,-1.25,-1.25,-1.25
32.57,7.95,9.21,7.95,9.21,-9.21,-9.25,-10.85,-1.25,-1.26,-1.26
32.89,7.96,9.22,7.96,9.22,-9.23,-9.26,-10.83,-1.27,-1.26,-1.26
33.22,7.98,9.24,7.98,9.25,-9.25,-9.28,-10.79,-1.27,-1.27,-1.26
33.55,8.00,9.26,8.00,9.27,-9.27,-9.29,-10.74,-1.27,-1.27,-1.26
33.89,8.02,9.29,8.02,9.29,-9.29,-9.30,-10.68,-1.27,-1.27,-1.27
34.23,8.04,9.31,8.04,9.32,-9.31,-9.31,-10.61,-1.27,-1.27,-1.27
34.57,8.06,9.34,8.06,9.34,-9.34,-9.33,-10.53,-1.27,-1.27,-1.28
34.92,8.08,9.36,8.08,9.36,-9.35,-9.34,-10.44,-1.27,-1.28,-1.28
35.27,8.09,9.37,8.09,9.38,-9.37,-9.35,-10.35,-1.28,-1.28,-1.28
35.62,8.10,9.38,8.10,9.39,-9.39,-9.36,-10.26,-1.28,-1.28,-1.28
35.97,8.11,9.40,8.11,9.40,-9.40,-9.36,-10.16,-1.29,-1.29,-1.29
36.33,8.12,9.41,8.12,9.41,-9.41,-9.37,-10.07,-1.29,-1.29,-1.29
36.70,8.13,9.42,8.13,9.42,-9.43,-9.38,-9.97,-1.29,-1.29,-1.29
37.06,8.14,9.43,8.14,9.43,-9.44,-9.39,-9.87,-1.30,-1.30,-1.29
37.43,8.15,9.44,8.15,9.45,-9.45,-9.39,-9.78,-1.30,-1.30,-1.29
37.81,8.16,9.46,8.16,9.46,-9.46,-9.40,-9.68,-1.30,-1.30,-1.30
38.19,8.17,9.47,8.17,9.48,-9.48,-9.41,-9.59,-1.30,-1.30,-1.30
38.57,8.18,9.49,8.18,9.49,-9.49,-9.41,-9.50,-1.31,-1.31,-1.31
38.95,8.19,9.50,8.19,9.50,-9.50,-9.42,-9.42,-1.31,-1.31,-1.31
39.34,8.19,9.51,8.20,9.51,-9.51,-9.42,-9.34,-1.32,-1.32,-1.32
39.74,8.20,9.52,8.20,9.52,-9.52,-9.43,-9.26,-1.32,-1.32,-1.32
40.14,8.20,9.52,8.21,9.53,-9.53,-9.43,-9.19,-1.33,-1.33,-1.32
40.54,8.21,9.54,8.21,9.54,-9.54,-9.43,-9.13,-1.33,-1.33,-1.33
40.94,8.22,9.55,8.22,9.55,-9.55,-9.44,-9.07,-1.33,-1.33,-1.33
41.35,8.22,9.55,8.23,9.56,-9.55,-9.44,-9.01,-1.33,-1.33,-1.33
41.76,8.23,9.56,8.23,9.56,-9.56,-9.44,-8.97,-1.33,-1.33,-1.33
42.18,8.23,9.55,8.24,9.56,-9.56,-9.45,-8.92,-1.33,-1.33,-1.32
42.60,8.24,9.56,8.24,9.56,-9.56,-9.45,-8.89,-1.32,-1.32,-1.32
43.03,8.24,9.56,8.24,9.56,-9.56,-9.45,-8.86,-1.32,-1.32,-1.32
43.46,8.24,9.56,8.24,9.56,-9.56,-9.45,-8.83,-1.31,-1.31,-1.32
43.90,8.24,9.56,8.24,9.56,-9.55,-9.46,-8.82,-1.31,-1.31,-1.32
44.33,8.23,9.54,8.23,9.55,-9.55,-9.46,-8.81,-1.31,-1.31,-1.31
44.78,8.22,9.53,8.23,9.54,-9.54,-9.46,-8.80,-1.32,-1.32,-1.31
45.23,8.22,9.53,8.22,9.53,-9.54,-9.46,-8.80,-1.31,-1.32,-1.31
45.68,8.21,9.52,8.21,9.53,-9.53,-9.46,-8.81,-1.32,-1.32,-1.31
46.13,8.21,9.52,8.21,9.53,-9.53,-9.46,-8.82,-1.32,-1.32,-1.31
46.60,8.21,9.53,8.21,9.53,-9.53,-9.47,-8.84,-1.32,-1.32,-1.32
47.06,8.21,9.53,8.21,9.53,-9.53,-9.47,-8.87,-1.32,-1.32,-1.32
47.53,8.21,9.53,8.21,9.53,-9.53,-9.47,-8.90,-1.32,-1.32,-1.32
48.01,8.21,9.53,8.21,9.54,-9.54,-9.47,-8.94,-1.32,-1.32,-1.32
48.49,8.21,9.54,8.21,9.54,-9.54,-9.47,-8.98,-1.33,-1.33,-1.33
48.97,8.21,9.54,8.21,9.54,-9.54,-9.47,-9.03,-1.33,-1.33,-1.33
49.46,8.21,9.54,8.21,9.54,-9.54,-9.47,-9.09,-1.33,-1.33,-1.33
49.96,8.21,9.54,8.21,9.54,-9.54,-9.47,-9.14,-1.33,-1.33,-1.33
50.46,8.21,9.53,8.21,9.54,-9.54,-9.47,-9.21,-1.33,-1.33,-1.32
50.96,8.21,9.53,8.21,9.53,-9.54,-9.48,-9.27,-1.32,-1.32,-1.32
51.47,8.21,9.53,8.21,9.53,-9.53,-9.48,-9.34,-1.32,-1.32,-1.32
51.99,8.21,9.53,8.21,9.53,-9.53,-9.48,-9.42,-1.32,-1.32,-1.32
52.51,8.21,9.52,8.21,9.53,-9.53,-9.48,-9.49,-1.32,-1.32,-1.31
53.03,8.21,9.52,8.21,9.52,-9.53,-9.48,-9.57,-1.31,-1.31,-1.31
53.56,8.21,9.52,8.21,9.52,-9.52,-9.48,-9.65,-1.31,-1.31,-1.31
54.10,8.21,9.52,8.21,9.52,-9.52,-9.48,-9.73,-1.31,-1.31,-1.31
54.64,8.21,9.52,8.21,9.52,-9.52,-9.48,-9.81,-1.31,-1.31,-1.31
55.18,8.21,9.51,8.21,9.52,-9.52,-9.48,-9.89,-1.30,-1.30,-1.30
55.74,8.21,9.51,8.21,9.51,-9.51,-9.48,-9.96,-1.30,-1.30,-1.30
56.29,8.21,9.51,8.21,9.51,-9.51,-9.48,-10.04,-1.30,-1.30,-1.30
56.86,8.21,9.50,8.21,9.51,-9.51,-9.48,-10.11,-1.30,-1.30,-1.29
57.42,8.21,9.50,8.21,9.50,-9.51,-9.48,-10.17,-1.29,-1.29,-1.29
58.00,8.21,9.50,8.21,9.50,-9.50,-9.48,-10.23,-1.29,-1.29,-1.29
58.58,8.21,9.50,8.21,9.50,-9.50,-9.48,-10.29,-1.29,-1.29,-1.29
59.16,8.21,9.49,8.21,9.50,-9.50,-9.48,-10.33,-1.28,-1.28,-1.28
59.76,8.21,9.49,8.21,9.49,-9.49,-9.48,-10.37,-1.28,-1.28,-1.28
60.35,8.21,9.49,8.21,9.49,-9.49,-9.48,-10.40,-1.28,-1.28,-1.28
60.96,8.21,9.48,8.21,9.49,-9.49,-9.48,-10.42,-1.28,-1.28,-1.27
61.57,8.21,9.48,8.21,9.48,-9.49,-9.48,-10.43,-1.27,-1.27,-1.27
62.18,8.21,9.48,8.21,9.48,-9.48,-9.48,-10.43,-1.27,-1.27,-1.27
62.80,8.21,9.48,8.21,9.48,-9.48,-9.48,-10.42,-1.27,-1.27,-1.27
63.43,8.21,9.48,8.21,9.48,-9.48,-9.48,-10.41,-1.27,-1.27,-1.27
64.07,8.21,9.48,8.21,9.48,-9.48,-9.48,-10.38,-1.27,-1.27,-1.27
64.71,8.21,9.48,8.21,9.48,-9.48,-9.48,-10.34,-1.27,-1.27,-1.27
65.35,8.21,9.48,8.21,9.48,-9.48,-9.48,-10.29,-1.27,-1.27,-1.27
66.01,8.21,9.48,8.21,9.48,-9.48,-9.48,-10.23,-1.27,-1.27,-1.27
66.67,8.21,9.48,8.21,9.48,-9.48,-9.47,-10.17,-1.27,-1.27,-1.27
67.33,8.21,9.48,8.21,9.48,-9.48,-9.47,-10.09,-1.27,-1.27,-1.27
68.01,8.21,9.48,8.21,9.48,-9.48,-9.47,-10.01,-1.27,-1.27,-1.27
68.69,8.21,9.48,8.21,9.48,-9.48,-9.47,-9.93,-1.27,-1.27,-1.27
69.37,8.21,9.48,8.21,9.48,-9.48,-9.47,-9.84,-1.27,-1.27,-1.27
70.07,8.21,9.48,8.21,9.48,-9.48,-9.46,-9.75,-1.27,-1.27,-1.27
70.77,8.21,9.48,8.21,9.48,-9.48,-9.46,-9.65,-1.27,-1.27,-1.27
71.48,8.21,9.48,8.21,9.48,-9.49,-9.46,-9.56,-1.27,-1.27,-1.27
72.19,8.22,9.48,8.22,9.48,-9.49,-9.46,-9.46,-1.27,-1.27,-1.26
72.91,8.22,9.48,8.23,9.49,-9.49,-9.45,-9.36,-1.27,-1.27,-1.26
73.64,8.23,9.49,8.23,9.49,-9.49,-9.45,-9.26,-1.26,-1.26,-1.26
74.38,8.24,9.49,8.24,9.49,-9.49,-9.44,-9.16,-1.25,-1.25,-1.25
75.12,8.24,9.49,8.24,9.49,-9.48,-9.44,-9.07,-1.24,-1.24,-1.25
75.87,8.23,9.48,8.23,9.48,-9.48,-9.43,-8.97,-1.24,-1.24,-1.25
76.63,8.22,9.46,8.22,9.47,-9.47,-9.43,-8.88,-1.24,-1.24,-1.24
77.40,8.21,9.45,8.21,9.45,-9.45,-9.42,-8.80,-1.24,-1.24,-1.24
78.17,8.19,9.42,8.19,9.43,-9.43,-9.42,-8.72,-1.24,-1.24,-1.23
78.95,8.17,9.40,8.18,9.41,-9.41,-9.41,-8.64,-1.24,-1.23,-1.23
79.74,8.16,9.39,8.16,9.38,-9.38,-9.41,-8.56,-1.22,-1.23,-1.23
80.54,8.13,9.35,8.13,9.36,-9.36,-9.40,-8.49,-1.22,-1.22,-1.22
81.35,8.10,9.32,8.11,9.33,-9.33,-9.39,-8.43,-1.23,-1.22,-1.22
82.16,8.08,9.30,8.08,9.30,-9.30,-9.38,-8.37,-1.22,-1.22,-1.22
82.98,8.05,9.27,8.05,9.27,-9.27,-9.38,-8.31,-1.22,-1.22,-1.22
83.81,8.02,9.24,8.02,9.24,-9.24,-9.37,-8.27,-1.22,-1.22,-1.22
84.65,7.99,9.21,7.99,9.21,-9.21,-9.36,-8.22,-1.22,-1.22,-1.22
85.50,7.97,9.18,7.97,9.18,-9.18,-9.35,-8.19,-1.21,-1.21,-1.21
86.35,7.94,9.15,7.94,9.16,-9.16,-9.34,-8.15,-1.21,-1.21,-1.21
87.22,7.92,9.13,7.92,9.13,-9.13,-9.33,-8.13,-1.21,-1.21,-1.21
88.09,7.90,9.11,7.90,9.11,-9.12,-9.32,-8.11,-1.21,-1.22,-1.21
88.97,7.88,9.09,7.88,9.09,-9.10,-9.31,-8.10,-1.22,-1.22,-1.21
89.86,7.87,9.08,7.87,9.08,-9.10,-9.29,-8.09,-1.23,-1.23,-1.21
90.76,7.87,9.08,7.87,9.09,-9.10,-9.28,-8.09,-1.23,-1.23,-1.21
91.66,7.88,9.09,7.89,9.10,-9.10,-9.27,-8.09,-1.22,-1.22,-1.21
92.58,7.90,9.11,7.90,9.11,-9.10,-9.25,-8.10,-1.20,-1.20,-1.21
93.51,7.91,9.12,7.91,9.12,-9.11,-9.24,-8.12,-1.19,-1.20,-1.21
94.44,7.91,9.12,7.91,9.12,-9.10,-9.22,-8.14,-1.19,-1.19,-1.21
95.39,7.89,9.10,7.89,9.10,-9.09,-9.21,-8.16,-1.20,-1.20,-1.21
96.34,7.87,9.08,7.88,9.08,-9.08,-9.19,-8.19,-1.21,-1.20,-1.21
97.30,7.85,9.05,7.85,9.06,-9.06,-9.18,-8.23,-1.21,-1.21,-1.20
98.28,7.83,9.03,7.83,9.03,-9.03,-9.16,-8.27,-1.20,-1.20,-1.20
99.26,7.80,9.00,7.80,9.00,-9.00,-9.14,-8.32,-1.20,-1.20,-1.20
100.25,7.76,8.96,7.77,8.97,-8.97,-9.12,-8.37,-1.21,-1.20,-1.20
101.25,7.73,8.93,7.73,8.93,-8.94,-9.10,-8.42,-1.21,-1.21,-1.20
102.27,7.70,8.90,7.71,8.91,-8.91,-9.09,-8.48,-1.21,-1.20,-1.20
103.29,7.68,8.88,7.68,8.88,-8.88,-9.06,-8.54,-1.20,-1.20,-1.20
104.32,7.66,8.85,7.66,8.85,-8.85,-9.04,-8.60,-1.19,-1.20,-1.19
105.37,7.63,8.82,7.64,8.83,-8.83,-9.02,-8.67,-1.20,-1.19,-1.19
106.42,7.61,8.80,7.62,8.80,-8.81,-9.00,-8.73,-1.19,-1.19,-1.19
107.48,7.60,8.78,7.60,8.78,-8.78,-8.98,-8.80,-1.18,-1.19,-1.18
108.56,7.58,8.76,7.58,8.76,-8.76,-8.95,-8.87,-1.18,-1.18,-1.18
109.64,7.56,8.74,7.56,8.74,-8.74,-8.93,-8.93,-1.18,-1.18,-1.18
110.74,7.54,8.72,7.54,8.72,-8.72,-8.91,-9.00,-1.18,-1.18,-1.18
111.85,7.52,8.69,7.52,8.70,-8.70,-8.88,-9.06,-1.17,-1.17,-1.17
112.97,7.50,8.67,7.50,8.67,-8.67,-8.86,-9.12,-1.17,-1.17,-1.17
114.10,7.48,8.65,7.48,8.65,-8.64,-8.83,-9.17,-1.16,-1.17,-1.17
115.24,7.44,8.61,7.45,8.62,-8.61,-8.80,-9.23,-1.17,-1.16,-1.17
116.39,7.42,8.59,7.42,8.59,-8.58,-8.77,-9.27,-1.16,-1.16,-1.17
117.55,7.39,8.55,7.39,8.55,-8.55,-8.75,-9.31,-1.16,-1.17,-1.16
118.73,7.35,8.51,7.36,8.52,-8.52,-8.72,-9.34,-1.17,-1.17,-1.16
119.92,7.32,8.48,7.33,8.48,-8.49,-8.69,-9.36,-1.17,-1.17,-1.16
121.12,7.30,8.45,7.31,8.46,-8.46,-8.66,-9.38,-1.16,-1.16,-1.15
122.33,7.29,8.44,7.29,8.44,-8.44,-8.63,-9.38,-1.14,-1.15,-1.15
123.55,7.27,8.41,7.27,8.41,-8.41,-8.59,-9.38,-1.14,-1.14,-1.14
124.79,7.24,8.38,7.24,8.38,-8.38,-8.56,-9.36,-1.14,-1.14,-1.14
126.03,7.21,8.35,7.22,8.36,-8.36,-8.53,-9.34,-1.14,-1.14,-1.14
127.29,7.20,8.33,7.20,8.33,-8.33,-8.50,-9.31,-1.13,-1.13,-1.13
128.57,7.18,8.31,7.18,8.31,-8.30,-8.46,-9.26,-1.12,-1.13,-1.13
129.85,7.15,8.27,7.15,8.28,-8.28,-8.43,-9.21,-1.13,-1.12,-1.12
131.15,7.12,8.24,7.13,8.25,-8.25,-8.39,-9.15,-1.13,-1.13,-1.12
132.46,7.10,8.22,7.10,8.22,-8.22,-8.36,-9.08,-1.12,-1.13,-1.12
133.79,7.07,8.19,7.07,8.20,-8.20,-8.32,-9.00,-1.13,-1.12,-1.12
135.12,7.04,8.16,7.05,8.17,-8.17,-8.28,-8.91,-1.13,-1.12,-1.12
136.48,7.03,8.15,7.02,8.14,-8.14,-8.25,-8.82,-1.10,-1.11,-1.12
137.84,6.99,8.10,7.00,8.11,-8.10,-8.21,-8.72,-1.11,-1.10,-1.11
139.22,6.96,8.07,6.96,8.07,-8.07,-8.17,-8.62,-1.10,-1.10,-1.11
140.61,6.93,8.04,6.92,8.03,-8.03,-8.13,-8.52,-1.10,-1.11,-1.11
142.02,6.87,7.98,6.88,7.99,-8.00,-8.09,-8.41,-1.12,-1.12,-1.11
143.44,6.84,7.95,6.84,7.95,-7.96,-8.05,-8.30,-1.12,-1.12,-1.11
144.87,6.80,7.90,6.81,7.91,-7.93,-8.01,-8.18,-1.13,-1.12,-1.10
146.32,6.79,7.89,6.79,7.89,-7.90,-7.97,-8.07,-1.11,-1.11,-1.10
147.78,6.77,7.87,6.77,7.87,-7.87,-7.93,-7.96,-1.10,-1.09,-1.10
149.26,6.76,7.85,6.75,7.85,-7.83,-7.89,-7.85,-1.07,-1.08,-1.09
150.75,6.72,7.81,6.72,7.81,-7.80,-7.85,-7.73,-1.08,-1.08,-1.09
152.26,6.68,7.77,6.69,7.77,-7.76,-7.80,-7.63,-1.08,-1.07,-1.09
153.78,6.64,7.72,6.64,7.73,-7.72,-7.76,-7.52,-1.08,-1.08,-1.08
155.32,6.60,7.68,6.60,7.68,-7.68,-7.72,-7.41,-1.08,-1.08,-1.08
156.88,6.54,7.62,6.55,7.62,-7.64,-7.68,-7.31,-1.09,-1.09,-1.08
158.44,6.50,7.57,6.50,7.58,-7.60,-7.63,-7.21,-1.10,-1.10,-1.07
160.03,6.46,7.53,6.47,7.54,-7.56,-7.59,-7.12,-1.10,-1.09,-1.07
161.63,6.44,7.51,6.45,7.52,-7.52,-7.54,-7.03,-1.08,-1.08,-1.07
163.24,6.43,7.50,6.43,7.50,-7.49,-7.50,-6.94,-1.06,-1.06,-1.07
164.88,6.40,7.47,6.40,7.47,-7.45,-7.45,-6.86,-1.05,-1.05,-1.07
166.53,6.37,7.43,6.37,7.44,-7.41,-7.41,-6.78,-1.04,-1.04,-1.06
168.19,6.33,7.39,6.32,7.39,-7.38,-7.36,-6.71,-1.05,-1.05,-1.06
169.87,6.27,7.33,6.28,7.33,-7.34,-7.31,-6.64,-1.07,-1.06,-1.06
171.57,6.22,7.27,6.23,7.28,-7.30,-7.27,-6.57,-1.08,-1.07,-1.05
173.29,6.19,7.24,6.19,7.24,-7.26,-7.22,-6.51,-1.06,-1.07,-1.05
175.02,6.15,7.20,6.16,7.20,-7.21,-7.18,-6.46,-1.06,-1.06,-1.05
176.77,6.12,7.17,6.13,7.17,-7.17,-7.13,-6.41,-1.05,-1.04,-1.05
178.54,6.10,7.14,6.10,7.14,-7.13,-7.08,-6.36,-1.03,-1.03,-1.04
180.32,6.06,7.10,6.06,7.10,-7.09,-7.03,-6.32,-1.03,-1.03,-1.04
182.13,6.02,7.06,6.01,7.05,-7.05,-6.99,-6.28,-1.03,-1.04,-1.04
183.95,5.95,6.99,5.96,7.01,-7.01,-6.94,-6.25,-1.06,-1.05,-1.04
185.79,5.91,6.96,5.91,6.96,-6.97,-6.89,-6.22,-1.06,-1.05,-1.05
187.65,5.87,6.92,5.87,6.92,-6.93,-6.85,-6.20,-1.05,-1.06,-1.05
189.52,5.83,6.88,5.83,6.88,-6.88,-6.80,-6.18,-1.05,-1.05,-1.05
191.42,5.79,6.84,5.79,6.84,-6.84,-6.75,-6.17,-1.05,-1.05,-1.05
193.33,5.75,6.79,5.76,6.80,-6.81,-6.70,-6.16,-1.05,-1.05,-1.04
195.27,5.72,6.76,5.72,6.76,-6.77,-6.66,-6.15,-1.04,-1.04,-1.04
197.22,5.69,6.73,5.69,6.73,-6.73,-6.61,-6.15,-1.03,-1.04,-1.04
199.19,5.65,6.69,5.65,6.69,-6.68,-6.56,-6.15,-1.03,-1.03,-1.04
201.18,5.61,6.64,5.61,6.65,-6.64,-6.52,-6.15,-1.02,-1.03,-1.03
203.19,5.56,6.59,5.56,6.59,-6.59,-6.47,-6.16,-1.02,-1.03,-1.03
205.23,5.50,6.53,5.51,6.53,-6.54,-6.42,-6.17,-1.03,-1.03,-1.03
207.28,5.45,6.47,5.45,6.48,-6.49,-6.38,-6.18,-1.03,-1.03,-1.02
209.35,5.40,6.42,5.40,6.42,-6.43,-6.33,-6.19,-1.03,-1.03,-1.02
211.44,5.35,6.37,5.36,6.37,-6.38,-6.29,-6.20,-1.02,-1.02,-1.02
213.56,5.31,6.32,5.31,6.32,-6.32,-6.24,-6.22,-1.01,-1.01,-1.01
215.69,5.26,6.27,5.26,6.27,-6.26,-6.19,-6.23,-1.00,-1.01,-1.01
217.85,5.19,6.20,5.20,6.21,-6.21,-6.15,-6.25,-1.02,-1.01,-1.01
220.03,5.15,6.16,5.15,6.15,-6.15,-6.10,-6.26,-1.00,-1.01,-1.01
222.23,5.09,6.09,5.09,6.09,-6.10,-6.06,-6.27,-1.01,-1.01,-1.00
224.45,5.03,6.03,5.04,6.04,-6.04,-6.02,-6.28,-1.01,-1.01,-1.00
226.70,4.98,5.98,4.98,5.98,-5.99,-5.97,-6.29,-1.00,-1.00,-1.00
228.96,4.93,5.93,4.94,5.94,-5.93,-5.93,-6.30,-1.00,-0.99,-1.00
231.25,4.89,5.88,4.89,5.88,-5.88,-5.88,-6.30,-0.98,-0.99,-0.99
233.57,4.84,5.83,4.83,5.82,-5.82,-5.83,-6.30,-0.98,-0.99,-0.99
235.90,4.77,5.75,4.78,5.76,-5.77,-5.79,-6.30,-1.00,-0.99,-0.98
238.26,4.72,5.70,4.73,5.70,-5.71,-5.74,-6.29,-0.99,-0.99,-0.98
240.64,4.68,5.65,4.68,5.65,-5.66,-5.69,-6.27,-0.97,-0.97,-0.97
243.05,4.64,5.60,4.64,5.61,-5.60,-5.65,-6.25,-0.96,-0.96,-0.96
245.48,4.60,5.56,4.60,5.55,-5.54,-5.60,-6.23,-0.94,-0.95,-0.96
247.93,4.54,5.49,4.54,5.49,-5.49,-5.54,-6.20,-0.95,-0.94,-0.95
250.41,4.49,5.43,4.49,5.43,-5.44,-5.49,-6.16,-0.94,-0.95,-0.94
252.92,4.43,5.36,4.44,5.37,-5.38,-5.44,-6.11,-0.95,-0.95,-0.93
255.45,4.39,5.32,4.39,5.32,-5.33,-5.38,-6.06,-0.94,-0.94,-0.93
258.00,4.35,5.27,4.36,5.28,-5.28,-5.33,-6.01,-0.93,-0.92,-0.92
260.58,4.32,5.24,4.31,5.23,-5.23,-5.27,-5.95,-0.90,-0.91,-0.92
263.19,4.27,5.18,4.27,5.18,-5.17,-5.21,-5.88,-0.90,-0.90,-0.91
265.82,4.21,5.12,4.22,5.13,-5.12,-5.15,-5.80,-0.91,-0.90,-0.91
268.48,4.17,5.07,4.17,5.07,-5.07,-5.09,-5.73,-0.90,-0.91,-0.90
271.16,4.12,5.02,4.11,5.02,-5.02,-5.03,-5.64,-0.90,-0.91,-0.90
273.87,4.05,4.95,4.07,4.96,-4.97,-4.97,-5.56,-0.92,-0.90,-0.90
276.61,4.02,4.91,4.02,4.91,-4.92,-4.91,-5.47,-0.90,-0.90,-0.89
279.38,3.98,4.87,3.98,4.87,-4.86,-4.85,-5.37,-0.88,-0.89,-0.89
282.17,3.93,4.82,3.94,4.82,-4.81,-4.79,-5.28,-0.88,-0.88,-0.89
284.99,3.89,4.77,3.88,4.77,-4.76,-4.73,-5.18,-0.87,-0.88,-0.88
287.84,3.82,4.70,3.83,4.71,-4.71,-4.67,-5.07,-0.89,-0.89,-0.88
290.72,3.77,4.65,3.78,4.66,-4.67,-4.61,-4.97,-0.89,-0.89,-0.88
293.63,3.73,4.61,3.73,4.61,-4.62,-4.55,-4.87,-0.89,-0.89,-0.88
296.57,3.68,4.56,3.69,4.57,-4.57,-4.49,-4.76,-0.89,-0.88,-0.88
299.53,3.64,4.52,3.65,4.53,-4.52,-4.43,-4.66,-0.88,-0.87,-0.88
302.53,3.61,4.48,3.61,4.48,-4.47,-4.37,-4.56,-0.86,-0.87,-0.87
305.55,3.56,4.43,3.56,4.43,-4.42,-4.31,-4.45,-0.86,-0.86,-0.87
308.61,3.51,4.37,3.51,4.38,-4.38,-4.26,-4.35,-0.87,-0.86,-0.86
311.69,3.46,4.32,3.47,4.33,-4.33,-4.20,-4.25,-0.87,-0.86,-0.86
314.81,3.42,4.27,3.42,4.27,-4.28,-4.14,-4.14,-0.86,-0.86,-0.85
317.96,3.38,4.23,3.38,4.23,-4.23,-4.09,-4.04,-0.85,-0.85,-0.85
321.14,3.33,4.17,3.34,4.18,-4.18,-4.03,-3.95,-0.84,-0.84,-0.84
324.35,3.29,4.13,3.29,4.13,-4.13,-3.98,-3.85,-0.83,-0.84,-0.84
327.59,3.24,4.08,3.24,4.08,-4.08,-3.93,-3.75,-0.83,-0.83,-0.84
330.87,3.19,4.02,3.19,4.03,-4.03,-3.87,-3.66,-0.83,-0.84,-0.83
334.18,3.14,3.97,3.14,3.97,-3.98,-3.82,-3.57,-0.83,-0.83,-0.83
337.52,3.09,3.91,3.10,3.92,-3.93,-3.77,-3.48,-0.83,-0.83,-0.82
340.90,3.06,3.87,3.06,3.88,-3.88,-3.72,-3.40,-0.81,-0.82,-0.81
344.30,3.02,3.83,3.02,3.83,-3.83,-3.66,-3.31,-0.81,-0.81,-0.81
347.75,2.98,3.79,2.98,3.79,-3.78,-3.61,-3.23,-0.80,-0.80,-0.81
351.23,2.92,3.73,2.93,3.74,-3.73,-3.56,-3.15,-0.81,-0.81,-0.81
354.74,2.88,3.68,2.88,3.68,-3.69,-3.51,-3.07,-0.81,-0.81,-0.80
358.28,2.82,3.62,2.83,3.63,-3.64,-3.46,-3.00,-0.82,-0.81,-0.80
361.87,2.78,3.58,2.79,3.59,-3.59,-3.41,-2.92,-0.81,-0.80,-0.80
365.49,2.75,3.55,2.75,3.55,-3.54,-3.37,-2.85,-0.79,-0.79,-0.80
369.14,2.70,3.50,2.70,3.50,-3.48,-3.32,-2.78,-0.78,-0.78,-0.80
372.83,2.64,3.44,2.64,3.44,-3.43,-3.27,-2.72,-0.79,-0.79,-0.80
376.56,2.57,3.36,2.57,3.37,-3.37,-3.22,-2.65,-0.80,-0.80,-0.79
380.33,2.50,3.29,2.51,3.30,-3.32,-3.17,-2.59,-0.81,-0.81,-0.79
384.13,2.45,3.24,2.45,3.24,-3.26,-3.13,-2.53,-0.80,-0.80,-0.79
387.97,2.40,3.19,2.40,3.19,-3.19,-3.08,-2.47,-0.79,-0.79,-0.79
391.85,2.35,3.13,2.35,3.14,-3.13,-3.03,-2.42,-0.78,-0.77,-0.78
395.77,2.30,3.08,2.30,3.07,-3.06,-2.99,-2.36,-0.76,-0.77,-0.78
399.73,2.23,3.00,2.23,3.01,-3.00,-2.94,-2.31,-0.77,-0.77,-0.77
403.72,2.16,2.93,2.17,2.94,-2.94,-2.90,-2.26,-0.77,-0.77,-0.77
407.76,2.10,2.86,2.10,2.86,-2.87,-2.85,-2.21,-0.77,-0.77,-0.76
411.84,2.04,2.80,2.04,2.80,-2.81,-2.81,-2.16,-0.76,-0.76,-0.76
415.96,1.98,2.73,1.98,2.74,-2.74,-2.77,-2.12,-0.76,-0.76,-0.75
420.12,1.93,2.68,1.93,2.68,-2.68,-2.72,-2.07,-0.75,-0.76,-0.75
424.32,1.87,2.62,1.88,2.62,-2.63,-2.68,-2.03,-0.76,-0.75,-0.75
428.56,1.82,2.56,1.83,2.57,-2.57,-2.64,-1.99,-0.75,-0.75,-0.74
432.85,1.78,2.52,1.78,2.52,-2.52,-2.60,-1.95,-0.74,-0.74,-0.74
437.18,1.73,2.47,1.73,2.47,-2.47,-2.55,-1.91,-0.74,-0.74,-0.74
441.55,1.68,2.42,1.68,2.42,-2.42,-2.51,-1.88,-0.73,-0.73,-0.74
445.96,1.63,2.37,1.63,2.37,-2.36,-2.47,-1.84,-0.73,-0.74,-0.74
450.42,1.56,2.30,1.57,2.31,-2.31,-2.43,-1.81,-0.75,-0.74,-0.74
454.93,1.50,2.24,1.51,2.25,-2.25,-2.39,-1.77,-0.75,-0.75,-0.74
459.48,1.45,2.19,1.45,2.19,-2.19,-2.35,-1.74,-0.74,-0.74,-0.74
464.07,1.39,2.13,1.39,2.14,-2.13,-2.31,-1.71,-0.73,-0.73,-0.74
