frequency,raw,error,smoothed,error_smoothed,equalization,parametric_eq,fixed_band_eq,equalized_raw,equalized_smoothed,target
20.00,6.63,7.48,6.63,7.49,-7.49,-8.52,-4.09,-0.85,-0.85,-0.85
20.20,6.66,7.54,6.66,7.54,-7.54,-8.53,-4.21,-0.88,-0.88,-0.88
20.40,6.69,7.59,6.69,7.59,-7.59,-8.53,-4.32,-0.90,-0.90,-0.90
20.61,6.72,7.64,6.72,7.64,-7.64,-8.54,-4.43,-0.92,-0.92,-0.92
20.81,6.75,7.69,6.75,7.69,-7.69,-8.55,-4.55,-0.94,-0.94,-0.94
21.02,6.78,7.74,6.78,7.74,-7.74,-8.55,-4.68,-0.96,-0.96,-0.96
21.23,6.81,7.79,6.81,7.79,-7.79,-8.56,-4.80,-0.98,-0.98,-0.98
21.44,6.84,7.84,6.84,7.84,-7.84,-8.57,-4.93,-1.00,-1.00,-1.00
21.66,6.87,7.89,6.87,7.89,-7.89,-8.57,-5.06,-1.02,-1.02,-1.02
21.87,6.90,7.93,6.90,7.94,-7.94,-8.58,-5.20,-1.03,-1.03,-1.03
22.09,6.93,7.98,6.93,7.98,-7.98,-8.59,-5.34,-1.05,-1.05,-1.05
22.31,6.96,8.02,6.97,8.03,-8.03,-8.60,-5.49,-1.06,-1.06,-1.06
22.54,7.00,8.07,7.00,8.07,-8.07,-8.60,-5.64,-1.07,-1.07,-1.07
22.76,7.03,8.11,7.03,8.11,-8.11,-8.61,-5.79,-1.08,-1.08,-1.08
22.99,7.06,8.15,7.06,8.15,-8.15,-8.62,-5.94,-1.09,-1.09,-1.09
23.22,7.09,8.19,7.09,8.19,-8.19,-8.63,-6.10,-1.10,-1.10,-1.10
23.45,7.12,8.23,7.12,8.23,-8.23,-8.64,-6.27,-1.11,-1.11,-1.11
23.69,7.15,8.27,7.15,8.27,-8.27,-8.65,-6.44,-1.12,-1.12,-1.12
23.92,7.18,8.30,7.18,8.31,-8.31,-8.66,-6.60,-1.12,-1.12,-1.12
24.16,7.21,8.34,7.21,8.34,-8.34,-8.66,-6.78,-1.13,-1.13,-1.13
24.40,7.24,8.37,7.24,8.38,-8.38,-8.67,-6.96,-1.13,-1.13,-1.13
24.65,7.27,8.41,7.27,8.41,-8.41,-8.68,-7.14,-1.14,-1.14,-1.14
24.89,7.30,8.44,7.30,8.45,-8.45,-8.69,-7.32,-1.14,-1.14,-1.14
25.14,7.33,8.48,7.33,8.48,-8.48,-8.70,-7.51,-1.15,-1.15,-1.15
25.39,7.35,8.51,7.36,8.51,-8.51,-8.71,-7.70,-1.16,-1.16,-1.16
25.65,7.38,8.54,7.38,8.55,-8.55,-8.72,-7.89,-1.17,-1.16,-1.16
25.91,7.41,8.58,7.41,8.58,-8.58,-8.73,-8.08,-1.17,-1.17,-1.17
26.16,7.44,8.61,7.44,8.61,-8.61,-8.75,-8.28,-1.17,-1.17,-1.17
26.43,7.47,8.64,7.47,8.65,-8.65,-8.76,-8.47,-1.18,-1.17,-1.17
26.69,7.50,8.68,7.50,8.68,-8.68,-8.77,-8.67,-1.18,-1.18,-1.18
26.96,7.53,8.71,7.53,8.71,-8.71,-8.78,-8.86,-1.18,-1.18,-1.18
27.23,7.55,8.74,7.56,8.74,-8.74,-8.79,-9.05,-1.19,-1.18,-1.19
27.50,7.58,8.77,7.58,8.77,-8.77,-8.81,-9.24,-1.19,-1.19,-1.19
27.77,7.60,8.79,7.60,8.80,-8.80,-8.82,-9.42,-1.20,-1.20,-1.19
28.05,7.62,8.82,7.63,8.82,-8.83,-8.83,-9.61,-1.20,-1.20,-1.20
28.33,7.65,8.85,7.65,8.85,-8.85,-8.84,-9.78,-1.20,-1.20,-1.20
28.62,7.68,8.88,7.68,8.88,-8.88,-8.86,-9.95,-1.20,-1.20,-1.20
28.90,7.70,8.91,7.71,8.91,-8.91,-8.87,-10.10,-1.21,-1.21,-1.21
29.19,7.73,8.94,7.73,8.94,-8.94,-8.89,-10.25,-1.21,-1.21,-1.21
29.48,7.75,8.96,7.76,8.97,-8.97,-8.90,-10.38,-1.22,-1.21,-1.21
29.78,7.78,8.99,7.78,8.99,-9.00,-8.92,-10.51,-1.21,-1.21,-1.21
30.08,7.81,9.02,7.81,9.02,-9.02,-8.93,-10.61,-1.21,-1.21,-1.21
30.38,7.83,9.05,7.83,9.05,-9.05,-8.95,-10.71,-1.21,-1.21,-1.22
30.68,7.85,9.07,7.85,9.07,-9.07,-8.97,-10.78,-1.22,-1.22,-1.22
30.99,7.87,9.09,7.87,9.09,-9.09,-8.98,-10.85,-1.22,-1.22,-1.22
31.30,7.88,9.10,7.89,9.11,-9.11,-9.00,-10.89,-1.23,-1.22,-1.22
31.61,7.90,9.13,7.90,9.13,-9.13,-9.02,-10.93,-1.23,-1.23,-1.23
31.93,7.92,9.15,7.92,9.15,-9.15,-9.04,-10.94,-1.23,-1.23,-1.23
32.24,7.93,9.16,7.94,9.17,-9.17,-9.05,-10.94,-1.24,-1.23,-1.23
32.57,7.95,9.19,7.95,9.19,-9.19,-9.07,-10.92,-1.24,-1.24,-1.24
32.89,7.96,9.20,7.96,9.21,-9.21,-9.09,-10.89,-1.25,-1.24,-1.24
33.22,7.98,9.22,7.98,9.23,-9.23,-9.11,-10.84,-1.25,-1.25,-1.24
33.55,8.00,9.25,8.00,9.25,-9.25,-9.13,-10.79,-1.25,-1.25,-1.25
33.89,8.02,9.27,8.02,9.27,-9.27,-9.15,-10.72,-1.25,-1.25,-1.25
34.23,8.04,9.29,8.04,9.30,-9.30,-9.17,-10.65,-1.25,-1.25,-1.25
34.57,8.06,9.32,8.06,9.32,-9.32,-9.19,-10.56,-1.25,-1.25,-1.26
34.92,8.08,9.34,8.08,9.34,-9.34,-9.21,-10.48,-1.25,-1.26,-1.26
35.27,8.09,9.35,8.09,9.36,-9.35,-9.23,-10.38,-1.26,-1.26,-1.26
35.62,8.10,9.37,8.10,9.37,-9.37,-9.25,-10.28,-1.27,-1.27,-1.27
35.97,8.11,9.38,8.11,9.38,-9.38,-9.27,-10.18,-1.27,-1.27,-1.27
36.33,8.12,9.39,8.12,9.39,-9.40,-9.29,-10.08,-1.27,-1.27,-1.27
36.70,8.13,9.40,8.13,9.40,-9.41,-9.31,-9.98,-1.27,-1.27,-1.27
37.06,8.14,9.41,8.14,9.42,-9.42,-9.33,-9.87,-1.28,-1.28,-1.27
37.43,8.15,9.43,8.15,9.43,-9.43,-9.34,-9.77,-1.28,-1.28,-1.28
37.81,8.16,9.44,8.16,9.44,-9.44,-9.36,-9.67,-1.28,-1.28,-1.28
38.19,8.17,9.45,8.17,9.46,-9.46,-9.37,-9.58,-1.28,-1.28,-1.28
38.57,8.18,9.47,8.18,9.47,-9.47,-9.39,-9.48,-1.29,-1.29,-1.29
38.95,8.19,9.48,8.19,9.48,-9.48,-9.40,-9.40,-1.29,-1.29,-1.29
39.34,8.19,9.49,8.20,9.49,-9.49,-9.41,-9.31,-1.30,-1.30,-1.30
39.74,8.20,9.50,8.20,9.50,-9.50,-9.42,-9.23,-1.30,-1.30,-1.30
40.14,8.20,9.51,8.21,9.51,-9.51,-9.43,-9.15,-1.31,-1.31,-1.31
40.54,8.21,9.52,8.21,9.52,-9.52,-9.44,-9.08,-1.31,-1.31,-1.31
40.94,8.22,9.53,8.22,9.53,-9.53,-9.45,-9.02,-1.31,-1.31,-1.31
41.35,8.22,9.53,8.23,9.54,-9.54,-9.45,-8.96,-1.31,-1.31,-1.31
41.76,8.23,9.54,8.23,9.54,-9.54,-9.46,-8.91,-1.31,-1.31,-1.31
42.18,8.23,9.54,8.24,9.55,-9.54,-9.46,-8.86,-1.31,-1.31,-1.31
42.60,8.24,9.55,8.24,9.55,-9.55,-9.47,-8.82,-1.30,-1.31,-1.31
43.03,8.24,9.54,8.24,9.55,-9.54,-9.47,-8.79,-1.30,-1.30,-1.30
43.46,8.24,9.54,8.24,9.54,-9.54,-9.47,-8.76,-1.30,-1.30,-1.30
43.90,8.24,9.54,8.24,9.54,-9.54,-9.48,-8.74,-1.30,-1.30,-1.30
44.33,8.23,9.53,8.23,9.53,-9.53,-9.48,-8.72,-1.30,-1.30,-1.30
44.78,8.22,9.52,8.23,9.53,-9.53,-9.48,-8.71,-1.30,-1.30,-1.30
45.23,8.22,9.52,8.22,9.52,-9.52,-9.49,-8.71,-1.30,-1.30,-1.30
45.68,8.21,9.51,8.21,9.52,-9.52,-9.49,-8.71,-1.31,-1.30,-1.30
46.13,8.21,9.51,8.21,9.51,-9.52,-9.49,-8.72,-1.30,-1.30,-1.30
46.60,8.21,9.51,8.21,9.51,-9.52,-9.49,-8.74,-1.30,-1.30,-1.30
47.06,8.21,9.51,8.21,9.52,-9.52,-9.50,-8.76,-1.30,-1.30,-1.30
47.53,8.21,9.52,8.21,9.52,-9.52,-9.50,-8.79,-1.31,-1.31,-1.31
48.01,8.21,9.52,8.21,9.52,-9.52,-9.51,-8.82,-1.31,-1.31,-1.31
48.49,8.21,9.52,8.21,9.52,-9.52,-9.51,-8.86,-1.31,-1.31,-1.31
48.97,8.21,9.52,8.21,9.52,-9.52,-9.51,-8.90,-1.31,-1.31,-1.31
49.46,8.21,9.52,8.21,9.52,-9.52,-9.52,-8.95,-1.31,-1.31,-1.31
49.96,8.21,9.52,8.21,9.52,-9.52,-9.52,-9.01,-1.31,-1.31,-1.31
50.46,8.21,9.52,8.21,9.52,-9.52,-9.53,-9.06,-1.31,-1.31,-1.31
50.96,8.21,9.52,8.21,9.52,-9.52,-9.53,-9.12,-1.31,-1.31,-1.31
51.47,8.21,9.51,8.21,9.52,-9.52,-9.54,-9.19,-1.31,-1.31,-1.30
51.99,8.21,9.51,8.21,9.51,-9.52,-9.54,-9.26,-1.30,-1.30,-1.30
52.51,8.21,9.51,8.21,9.51,-9.51,-9.55,-9.33,-1.30,-1.30,-1.30
53.03,8.21,9.51,8.21,9.51,-9.51,-9.55,-9.40,-1.30,-1.30,-1.30
53.56,8.21,9.51,8.21,9.51,-9.51,-9.55,-9.48,-1.30,-1.30,-1.30
54.10,8.21,9.50,8.21,9.51,-9.51,-9.56,-9.55,-1.29,-1.29,-1.29
54.64,8.21,9.50,8.21,9.50,-9.50,-9.56,-9.62,-1.29,-1.29,-1.29
55.18,8.21,9.50,8.21,9.50,-9.50,-9.57,-9.70,-1.29,-1.29,-1.29
55.74,8.21,9.50,8.21,9.50,-9.50,-9.57,-9.77,-1.29,-1.29,-1.29
56.29,8.21,9.49,8.21,9.50,-9.50,-9.58,-9.84,-1.28,-1.28,-1.28
56.86,8.21,9.49,8.21,9.49,-9.49,-9.58,-9.91,-1.28,-1.28,-1.28
57.42,8.21,9.49,8.21,9.49,-9.49,-9.58,-9.97,-1.28,-1.28,-1.28
58.00,8.21,9.48,8.21,9.49,-9.49,-9.59,-10.02,-1.27,-1.27,-1.27
58.58,8.21,9.48,8.21,9.48,-9.48,-9.59,-10.07,-1.27,-1.27,-1.27
59.16,8.21,9.48,8.21,9.48,-9.48,-9.60,-10.12,-1.27,-1.27,-1.27
59.76,8.21,9.47,8.21,9.48,-9.48,-9.60,-10.15,-1.26,-1.26,-1.26
60.35,8.21,9.47,8.21,9.47,-9.48,-9.60,-10.18,-1.26,-1.26,-1.26
60.96,8.21,9.47,8.21,9.47,-9.47,-9.60,-10.20,-1.26,-1.26,-1.26
61.57,8.21,9.47,8.21,9.47,-9.47,-9.60,-10.21,-1.26,-1.26,-1.26
62.18,8.21,9.47,8.21,9.47,-9.47,-9.61,-10.21,-1.26,-1.26,-1.26
62.80,8.21,9.47,8.21,9.47,-9.47,-9.61,-10.20,-1.26,-1.26,-1.26
63.43,8.21,9.47,8.21,9.47,-9.47,-9.61,-10.18,-1.26,-1.26,-1.26
64.07,8.21,9.47,8.21,9.47,-9.47,-9.61,-10.15,-1.26,-1.26,-1.26
64.71,8.21,9.47,8.21,9.47,-9.47,-9.61,-10.11,-1.26,-1.26,-1.26
65.35,8.21,9.47,8.21,9.47,-9.47,-9.61,-10.06,-1.26,-1.26,-1.26
66.01,8.21,9.47,8.21,9.47,-9.47,-9.60,-10.00,-1.26,-1.26,-1.26
66.67,8.21,9.47,8.21,9.47,-9.47,-9.60,-9.94,-1.26,-1.26,-1.26
67.33,8.21,9.47,8.21,9.47,-9.47,-9.60,-9.87,-1.26,-1.26,-1.26
68.01,8.21,9.47,8.21,9.47,-9.47,-9.60,-9.79,-1.26,-1.26,-1.26
68.69,8.21,9.47,8.21,9.47,-9.47,-9.59,-9.71,-1.26,-1.26,-1.26
69.37,8.21,9.47,8.21,9.47,-9.47,-9.59,-9.62,-1.26,-1.26,-1.26
70.07,8.21,9.47,8.21,9.47,-9.47,-9.59,-9.53,-1.26,-1.26,-1.26
70.77,8.21,9.47,8.21,9.47,-9.47,-9.58,-9.44,-1.26,-1.26,-1.26
71.48,8.21,9.46,8.21,9.47,-9.48,-9.57,-9.34,-1.26,-1.26,-1.25
72.19,8.22,9.47,8.22,9.47,-9.48,-9.57,-9.24,-1.26,-1.26,-1.25
72.91,8.22,9.47,8.23,9.48,-9.48,-9.56,-9.15,-1.26,-1.25,-1.25
73.64,8.23,9.48,8.23,9.48,-9.48,-9.55,-9.05,-1.25,-1.24,-1.25
74.38,8.24,9.48,8.24,9.48,-9.48,-9.55,-8.96,-1.23,-1.24,-1.24
75.12,8.24,9.48,8.24,9.48,-9.47,-9.54,-8.86,-1.23,-1.23,-1.24
75.87,8.23,9.46,8.23,9.47,-9.46,-9.53,-8.77,-1.23,-1.23,-1.23
76.63,8.22,9.45,8.22,9.45,-9.45,-9.52,-8.68,-1.23,-1.23,-1.23
77.40,8.21,9.44,8.21,9.44,-9.44,-9.51,-8.60,-1.23,-1.23,-1.23
78.17,8.19,9.41,8.19,9.42,-9.42,-9.49,-8.51,-1.23,-1.22,-1.22
78.95,8.17,9.39,8.18,9.40,-9.40,-9.48,-8.44,-1.22,-1.22,-1.22
79.74,8.16,9.38,8.16,9.37,-9.37,-9.47,-8.36,-1.21,-1.22,-1.22
80.54,8.13,9.34,8.13,9.35,-9.35,-9.46,-8.29,-1.21,-1.21,-1.21
81.35,8.10,9.31,8.11,9.32,-9.32,-9.44,-8.23,-1.22,-1.21,-1.21
82.16,8.08,9.29,8.08,9.29,-9.29,-9.43,-8.17,-1.21,-1.21,-1.21
82.98,8.05,9.26,8.05,9.26,-9.26,-9.41,-8.12,-1.21,-1.21,-1.21
83.81,8.02,9.23,8.02,9.23,-9.23,-9.40,-8.07,-1.21,-1.21,-1.21
84.65,7.99,9.19,7.99,9.20,-9.20,-9.38,-8.02,-1.21,-1.20,-1.20
85.50,7.97,9.17,7.97,9.17,-9.17,-9.36,-7.99,-1.20,-1.20,-1.20
86.35,7.94,9.14,7.94,9.14,-9.14,-9.35,-7.96,-1.20,-1.20,-1.20
87.22,7.92,9.12,7.92,9.12,-9.12,-9.33,-7.93,-1.20,-1.20,-1.20
88.09,7.90,9.10,7.90,9.10,-9.10,-9.31,-7.91,-1.20,-1.20,-1.20
88.97,7.88,9.08,7.88,9.08,-9.09,-9.29,-7.90,-1.21,-1.21,-1.20
89.86,7.87,9.07,7.87,9.07,-9.09,-9.27,-7.89,-1.22,-1.22,-1.20
90.76,7.87,9.07,7.87,9.08,-9.09,-9.25,-7.88,-1.22,-1.22,-1.20
91.66,7.88,9.08,7.89,9.09,-9.09,-9.23,-7.89,-1.21,-1.21,-1.20
92.58,7.90,9.10,7.90,9.10,-9.09,-9.21,-7.90,-1.19,-1.19,-1.20
93.51,7.91,9.11,7.91,9.11,-9.09,-9.19,-7.91,-1.18,-1.19,-1.20
94.44,7.91,9.11,7.91,9.11,-9.09,-9.16,-7.93,-1.18,-1.18,-1.20
95.39,7.89,9.09,7.89,9.09,-9.08,-9.14,-7.95,-1.19,-1.19,-1.20
96.34,7.87,9.07,7.88,9.07,-9.07,-9.12,-7.98,-1.20,-1.19,-1.20
97.30,7.85,9.04,7.85,9.05,-9.05,-9.10,-8.01,-1.20,-1.19,-1.19
98.28,7.83,9.02,7.83,9.02,-9.02,-9.07,-8.05,-1.19,-1.19,-1.19
99.26,7.80,8.99,7.80,8.99,-8.99,-9.05,-8.10,-1.19,-1.19,-1.19
100.25,7.76,8.95,7.77,8.96,-8.96,-9.02,-8.14,-1.20,-1.19,-1.19
101.25,7.73,8.92,7.73,8.92,-8.93,-9.00,-8.19,-1.20,-1.20,-1.19
102.27,7.70,8.89,7.71,8.90,-8.90,-8.97,-8.25,-1.20,-1.19,-1.19
103.29,7.68,8.87,7.68,8.87,-8.87,-8.95,-8.31,-1.19,-1.19,-1.19
104.32,7.66,8.84,7.66,8.84,-8.84,-8.92,-8.37,-1.18,-1.19,-1.18
105.37,7.63,8.81,7.64,8.82,-8.82,-8.90,-8.43,-1.19,-1.18,-1.18
106.42,7.61,8.79,7.62,8.79,-8.80,-8.87,-8.49,-1.18,-1.18,-1.18
107.48,7.60,8.77,7.60,8.77,-8.77,-8.85,-8.55,-1.17,-1.18,-1.17
108.56,7.58,8.75,7.58,8.75,-8.75,-8.82,-8.62,-1.17,-1.17,-1.17
109.64,7.56,8.73,7.56,8.73,-8.73,-8.79,-8.68,-1.17,-1.17,-1.17
110.74,7.54,8.71,7.54,8.71,-8.71,-8.77,-8.74,-1.17,-1.17,-1.17
111.85,7.52,8.69,7.52,8.69,-8.69,-8.74,-8.80,-1.17,-1.16,-1.17
112.97,7.50,8.66,7.50,8.67,-8.66,-8.72,-8.86,-1.16,-1.16,-1.16
114.10,7.48,8.64,7.48,8.64,-8.63,-8.69,-8.91,-1.15,-1.16,-1.16
115.24,7.44,8.60,7.45,8.61,-8.60,-8.66,-8.96,-1.16,-1.15,-1.16
116.39,7.42,8.58,7.42,8.58,-8.57,-8.63,-9.00,-1.15,-1.16,-1.16
117.55,7.39,8.54,7.39,8.54,-8.54,-8.61,-9.04,-1.15,-1.16,-1.15
118.73,7.35,8.50,7.36,8.51,-8.51,-8.58,-9.07,-1.16,-1.16,-1.15
119.92,7.32,8.47,7.33,8.48,-8.48,-8.55,-9.09,-1.16,-1.16,-1.15
121.12,7.30,8.45,7.31,8.45,-8.46,-8.53,-9.10,-1.15,-1.15,-1.15
122.33,7.29,8.43,7.29,8.43,-8.43,-8.50,-9.11,-1.14,-1.14,-1.14
123.55,7.27,8.41,7.27,8.41,-8.40,-8.47,-9.11,-1.13,-1.13,-1.14
124.79,7.24,8.37,7.24,8.38,-8.38,-8.44,-9.09,-1.13,-1.13,-1.13
126.03,7.21,8.34,7.22,8.35,-8.35,-8.41,-9.07,-1.14,-1.13,-1.13
127.29,7.20,8.32,7.20,8.32,-8.32,-8.39,-9.04,-1.12,-1.13,-1.12
128.57,7.18,8.30,7.18,8.30,-8.30,-8.36,-9.00,-1.11,-1.12,-1.12
129.85,7.15,8.27,7.15,8.27,-8.27,-8.33,-8.95,-1.12,-1.12,-1.12
131.15,7.12,8.24,7.13,8.24,-8.24,-8.30,-8.89,-1.12,-1.12,-1.12
132.46,7.10,8.21,7.10,8.21,-8.22,-8.27,-8.83,-1.12,-1.12,-1.11
133.79,7.07,8.18,7.07,8.19,-8.19,-8.24,-8.76,-1.12,-1.12,-1.11
135.12,7.04,8.15,7.05,8.16,-8.16,-8.21,-8.68,-1.12,-1.11,-1.11
136.48,7.03,8.14,7.02,8.13,-8.13,-8.18,-8.59,-1.10,-1.11,-1.11
137.84,6.99,8.10,7.00,8.11,-8.09,-8.15,-8.50,-1.10,-1.10,-1.11
139.22,6.96,8.07,6.96,8.07,-8.06,-8.13,-8.41,-1.10,-1.10,-1.11
140.61,6.93,8.04,6.92,8.03,-8.03,-8.09,-8.31,-1.09,-1.10,-1.11
142.02,6.87,7.97,6.88,7.99,-7.99,-8.06,-8.21,-1.12,-1.11,-1.10
143.44,6.84,7.94,6.84,7.94,-7.96,-8.03,-8.11,-1.12,-1.12,-1.10
144.87,6.80,7.90,6.81,7.90,-7.93,-8.00,-8.00,-1.12,-1.12,-1.10
146.32,6.79,7.88,6.79,7.89,-7.89,-7.97,-7.90,-1.10,-1.10,-1.09
147.78,6.77,7.86,6.77,7.86,-7.86,-7.94,-7.79,-1.09,-1.09,-1.09
149.26,6.76,7.85,6.75,7.84,-7.83,-7.90,-7.69,-1.06,-1.07,-1.09
150.75,6.72,7.80,6.72,7.81,-7.79,-7.87,-7.59,-1.07,-1.07,-1.08
152.26,6.68,7.76,6.69,7.77,-7.75,-7.84,-7.49,-1.07,-1.07,-1.08
153.78,6.64,7.72,6.64,7.72,-7.71,-7.80,-7.39,-1.07,-1.07,-1.08
155.32,6.60,7.67,6.60,7.67,-7.67,-7.77,-7.29,-1.07,-1.08,-1.07
156.88,6.54,7.61,6.55,7.62,-7.63,-7.73,-7.20,-1.09,-1.08,-1.07
158.44,6.50,7.57,6.50,7.57,-7.59,-7.70,-7.11,-1.09,-1.09,-1.07
160.03,6.46,7.53,6.47,7.54,-7.55,-7.66,-7.02,-1.09,-1.09,-1.07
161.63,6.44,7.51,6.45,7.51,-7.52,-7.62,-6.94,-1.08,-1.07,-1.07
163.24,6.43,7.49,6.43,7.49,-7.48,-7.59,-6.86,-1.05,-1.06,-1.06
164.88,6.40,7.46,6.40,7.47,-7.45,-7.55,-6.79,-1.04,-1.04,-1.06
166.53,6.37,7.43,6.37,7.43,-7.41,-7.51,-6.72,-1.04,-1.04,-1.06
168.19,6.33,7.39,6.32,7.38,-7.37,-7.47,-6.65,-1.04,-1.05,-1.06
169.87,6.27,7.32,6.28,7.33,-7.33,-7.43,-6.59,-1.06,-1.06,-1.05
171.57,6.22,7.27,6.23,7.28,-7.30,-7.39,-6.54,-1.07,-1.07,-1.05
173.29,6.19,7.24,6.19,7.24,-7.25,-7.35,-6.48,-1.06,-1.07,-1.05
175.02,6.15,7.20,6.16,7.20,-7.21,-7.30,-6.44,-1.06,-1.06,-1.05
176.77,6.12,7.16,6.13,7.17,-7.17,-7.26,-6.39,-1.05,-1.04,-1.04
178.54,6.10,7.14,6.10,7.14,-7.13,-7.22,-6.36,-1.03,-1.03,-1.04
180.32,6.06,7.10,6.06,7.10,-7.09,-7.17,-6.32,-1.02,-1.03,-1.04
182.13,6.02,7.06,6.01,7.06,-7.05,-7.13,-6.30,-1.02,-1.03,-1.04
183.95,5.95,6.99,5.96,7.00,-7.00,-7.08,-6.27,-1.05,-1.04,-1.04
185.79,5.91,6.95,5.91,6.95,-6.96,-7.03,-6.26,-1.05,-1.05,-1.04
187.65,5.87,6.91,5.87,6.91,-6.92,-6.99,-6.24,-1.05,-1.05,-1.04
189.52,5.83,6.87,5.83,6.87,-6.88,-6.94,-6.23,-1.05,-1.05,-1.04
191.42,5.79,6.83,5.79,6.83,-6.84,-6.89,-6.22,-1.05,-1.05,-1.04
193.33,5.75,6.79,5.76,6.80,-6.80,-6.84,-6.22,-1.05,-1.05,-1.04
195.27,5.72,6.76,5.72,6.76,-6.76,-6.79,-6.22,-1.04,-1.04,-1.04
197.22,5.69,6.73,5.69,6.73,-6.72,-6.74,-6.23,-1.03,-1.03,-1.04
199.19,5.65,6.69,5.65,6.69,-6.68,-6.69,-6.24,-1.03,-1.03,-1.04
201.18,5.61,6.64,5.61,6.64,-6.63,-6.64,-6.25,-1.02,-1.02,-1.03
203.19,5.56,6.59,5.56,6.59,-6.59,-6.58,-6.26,-1.02,-1.03,-1.03
205.23,5.50,6.52,5.51,6.53,-6.53,-6.53,-6.28,-1.03,-1.03,-1.02
207.28,5.45,6.47,5.45,6.47,-6.48,-6.48,-6.30,-1.03,-1.03,-1.02
209.35,5.40,6.42,5.40,6.42,-6.43,-6.42,-6.32,-1.03,-1.03,-1.02
211.44,5.35,6.36,5.36,6.37,-6.37,-6.37,-6.34,-1.02,-1.01,-1.01
213.56,5.31,6.32,5.31,6.32,-6.32,-6.31,-6.36,-1.00,-1.01,-1.01
215.69,5.26,6.27,5.26,6.27,-6.26,-6.26,-6.38,-1.00,-1.00,-1.01
217.85,5.19,6.20,5.20,6.21,-6.21,-6.20,-6.41,-1.01,-1.00,-1.01
220.03,5.15,6.15,5.15,6.15,-6.15,-6.14,-6.43,-1.00,-1.01,-1.00
222.23,5.09,6.09,5.09,6.09,-6.10,-6.09,-6.45,-1.00,-1.01,-1.00
224.45,5.03,6.03,5.04,6.04,-6.04,-6.03,-6.47,-1.01,-1.00,-1.00
226.70,4.98,5.98,4.98,5.98,-5.98,-5.97,-6.48,-1.00,-1.00,-1.00
228.96,4.93,5.92,4.94,5.93,-5.93,-5.91,-6.49,-1.00,-0.99,-0.99
231.25,4.89,5.88,4.89,5.88,-5.87,-5.85,-6.50,-0.98,-0.99,-0.99
233.57,4.84,5.83,4.83,5.82,-5.82,-5.79,-6.51,-0.98,-0.99,-0.99
235.90,4.77,5.75,4.78,5.76,-5.77,-5.74,-6.51,-0.99,-0.99,-0.98
238.26,4.72,5.70,4.73,5.70,-5.71,-5.68,-6.50,-0.99,-0.99,-0.98
240.64,4.68,5.65,4.68,5.65,-5.66,-5.62,-6.49,-0.97,-0.97,-0.97
243.05,4.64,5.60,4.64,5.60,-5.60,-5.56,-6.47,-0.96,-0.96,-0.96
245.48,4.60,5.55,4.60,5.55,-5.54,-5.50,-6.45,-0.94,-0.94,-0.95
247.93,4.54,5.49,4.54,5.49,-5.49,-5.44,-6.42,-0.94,-0.94,-0.95
250.41,4.49,5.43,4.49,5.43,-5.43,-5.38,-6.38,-0.94,-0.94,-0.94
252.92,4.43,5.36,4.44,5.37,-5.38,-5.32,-6.34,-0.95,-0.94,-0.93
255.45,4.39,5.31,4.39,5.32,-5.33,-5.26,-6.29,-0.94,-0.93,-0.92
258.00,4.35,5.27,4.36,5.27,-5.28,-5.20,-6.24,-0.92,-0.92,-0.92
260.58,4.32,5.23,4.31,5.23,-5.22,-5.14,-6.17,-0.90,-0.91,-0.91
263.19,4.27,5.18,4.27,5.18,-5.17,-5.08,-6.10,-0.90,-0.90,-0.91
265.82,4.21,5.12,4.22,5.13,-5.12,-5.02,-6.03,-0.91,-0.90,-0.91
268.48,4.17,5.07,4.17,5.07,-5.07,-4.96,-5.95,-0.90,-0.91,-0.90
271.16,4.12,5.02,4.11,5.01,-5.02,-4.90,-5.86,-0.90,-0.91,-0.90
273.87,4.05,4.95,4.07,4.96,-4.97,-4.84,-5.77,-0.92,-0.90,-0.90
276.61,4.02,4.91,4.02,4.91,-4.92,-4.78,-5.68,-0.89,-0.90,-0.89
279.38,3.98,4.87,3.98,4.87,-4.86,-4.72,-5.58,-0.88,-0.88,-0.89
282.17,3.93,4.81,3.94,4.82,-4.81,-4.66,-5.48,-0.88,-0.88,-0.88
284.99,3.89,4.77,3.88,4.76,-4.76,-4.60,-5.38,-0.87,-0.88,-0.88
287.84,3.82,4.70,3.83,4.71,-4.71,-4.54,-5.27,-0.89,-0.88,-0.88
290.72,3.77,4.65,3.78,4.66,-4.66,-4.48,-5.16,-0.89,-0.89,-0.88
293.63,3.73,4.61,3.73,4.61,-4.61,-4.42,-5.05,-0.88,-0.89,-0.88
296.57,3.68,4.56,3.69,4.56,-4.57,-4.36,-4.94,-0.88,-0.88,-0.88
299.53,3.64,4.51,3.65,4.52,-4.52,-4.30,-4.83,-0.88,-0.87,-0.87
302.53,3.61,4.48,3.61,4.48,-4.47,-4.24,-4.72,-0.86,-0.86,-0.87
305.55,3.56,4.43,3.56,4.43,-4.42,-4.19,-4.62,-0.86,-0.86,-0.87
308.61,3.51,4.37,3.51,4.38,-4.38,-4.13,-4.51,-0.86,-0.86,-0.86
311.69,3.46,4.32,3.47,4.33,-4.33,-4.07,-4.40,-0.87,-0.86,-0.86
314.81,3.42,4.27,3.42,4.27,-4.28,-4.01,-4.29,-0.86,-0.86,-0.85
317.96,3.38,4.23,3.38,4.23,-4.23,-3.96,-4.19,-0.85,-0.85,-0.85
321.14,3.33,4.17,3.34,4.18,-4.18,-3.90,-4.08,-0.84,-0.84,-0.84
324.35,3.29,4.13,3.29,4.13,-4.12,-3.84,-3.98,-0.83,-0.83,-0.84
327.59,3.24,4.08,3.24,4.08,-4.07,-3.79,-3.88,-0.83,-0.83,-0.84
330.87,3.19,4.02,3.19,4.02,-4.02,-3.73,-3.78,-0.83,-0.83,-0.83
334.18,3.14,3.96,3.14,3.97,-3.98,-3.67,-3.69,-0.83,-0.83,-0.82
337.52,3.09,3.91,3.10,3.92,-3.93,-3.62,-3.59,-0.83,-0.83,-0.82
340.90,3.06,3.87,3.06,3.87,-3.88,-3.56,-3.50,-0.81,-0.81,-0.81
344.30,3.02,3.83,3.02,3.83,-3.83,-3.51,-3.41,-0.80,-0.81,-0.81
347.75,2.98,3.79,2.98,3.79,-3.78,-3.45,-3.33,-0.80,-0.80,-0.81
351.23,2.92,3.73,2.93,3.74,-3.73,-3.40,-3.24,-0.81,-0.81,-0.81
354.74,2.88,3.68,2.88,3.68,-3.69,-3.35,-3.16,-0.81,-0.81,-0.80
358.28,2.82,3.62,2.83,3.63,-3.64,-3.29,-3.08,-0.82,-0.81,-0.80
361.87,2.78,3.58,2.79,3.59,-3.59,-3.24,-3.00,-0.81,-0.80,-0.80
365.49,2.75,3.55,2.75,3.55,-3.54,-3.19,-2.93,-0.78,-0.79,-0.80
369.14,2.70,3.50,2.70,3.50,-3.48,-3.14,-2.85,-0.78,-0.78,-0.80
372.83,2.64,3.44,2.64,3.44,-3.43,-3.08,-2.78,-0.79,-0.79,-0.80
376.56,2.57,3.36,2.57,3.37,-3.37,-3.03,-2.72,-0.80,-0.80,-0.79
380.33,2.50,3.29,2.51,3.30,-3.32,-2.98,-2.65,-0.81,-0.81,-0.79
384.13,2.45,3.24,2.45,3.24,-3.25,-2.93,-2.58,-0.80,-0.80,-0.79
387.97,2.40,3.19,2.40,3.19,-3.19,-2.88,-2.52,-0.79,-0.79,-0.79
391.85,2.35,3.13,2.35,3.14,-3.13,-2.83,-2.46,-0.77,-0.77,-0.78
395.77,2.30,3.08,2.30,3.07,-3.06,-2.78,-2.40,-0.76,-0.77,-0.78
399.73,2.23,3.00,2.23,3.01,-3.00,-2.73,-2.35,-0.77,-0.77,-0.77
403.72,2.16,2.93,2.17,2.94,-2.93,-2.68,-2.29,-0.77,-0.77,-0.77
407.76,2.10,2.86,2.10,2.86,-2.87,-2.63,-2.24,-0.77,-0.77,-0.76
411.84,2.04,2.80,2.04,2.80,-2.81,-2.58,-2.19,-0.76,-0.76,-0.76
415.96,1.98,2.73,1.98,2.74,-2.74,-2.53,-2.14,-0.76,-0.76,-0.75
420.12,1.93,2.68,1.93,2.68,-2.68,-2.49,-2.09,-0.75,-0.76,-0.75
424.32,1.87,2.62,1.88,2.62,-2.63,-2.44,-2.05,-0.75,-0.75,-0.75
428.56,1.82,2.56,1.83,2.57,-2.57,-2.39,-2.00,-0.75,-0.75,-0.74
432.85,1.78,2.52,1.78,2.52,-2.52,-2.34,-1.96,-0.74,-0.74,-0.74
437.18,1.73,2.47,1.73,2.47,-2.47,-2.30,-1.92,-0.74,-0.73,-0.74
441.55,1.68,2.42,1.68,2.42,-2.42,-2.25,-1.88,-0.73,-0.73,-0.74
445.96,1.63,2.37,1.63,2.37,-2.36,-2.20,-1.84,-0.73,-0.74,-0.74
450.42,1.56,2.30,1.57,2.31,-2.31,-2.16,-1.80,-0.75,-0.74,-0.74
454.93,1.50,2.24,1.51,2.25,-2.25,-2.11,-1.77,-0.75,-0.74,-0.74
459.48,1.45,2.19,1.45,2.19,-2.19,-2.06,-1.73,-0.74,-0.74,-0.74
464.07,1.39,2.13,1.39,2.14,-2.13,-2.02,-1.70,-0.73,-0.73,-0.74
