frequency,raw,error,smoothed,error_smoothed,equalization,parametric_eq,fixed_band_eq,equalized_raw,equalized_smoothed,target
20.00,7.51,6.25,7.51,6.25,-6.25,-6.21,-3.49,1.26,1.26,1.26
20.20,7.56,6.30,7.56,6.30,-6.30,-6.26,-3.59,1.26,1.26,1.26
20.40,7.60,6.35,7.60,6.35,-6.35,-6.31,-3.68,1.25,1.25,1.25
20.61,7.64,6.39,7.64,6.40,-6.39,-6.35,-3.79,1.25,1.25,1.25
20.81,7.68,6.44,7.68,6.44,-6.44,-6.40,-3.89,1.24,1.24,1.24
21.02,7.73,6.49,7.72,6.49,-6.49,-6.45,-4.00,1.24,1.24,1.24
21.23,7.76,6.53,7.76,6.53,-6.53,-6.50,-4.11,1.23,1.23,1.23
21.44,7.80,6.57,7.80,6.58,-6.58,-6.55,-4.22,1.22,1.23,1.23
21.66,7.84,6.62,7.84,6.62,-6.62,-6.59,-4.34,1.22,1.22,1.22
21.87,7.88,6.66,7.88,6.67,-6.66,-6.64,-4.46,1.22,1.22,1.22
22.09,7.92,6.71,7.92,6.71,-6.71,-6.68,-4.59,1.21,1.21,1.21
22.31,7.96,6.75,7.96,6.75,-6.75,-6.73,-4.71,1.21,1.21,1.21
22.54,8.00,6.79,8.00,6.80,-6.80,-6.78,-4.84,1.20,1.20,1.21
22.76,8.04,6.84,8.04,6.84,-6.84,-6.82,-4.98,1.20,1.20,1.20
22.99,8.08,6.88,8.08,6.88,-6.89,-6.87,-5.12,1.20,1.20,1.20
23.22,8.12,6.93,8.12,6.93,-6.93,-6.91,-5.26,1.19,1.19,1.19
23.45,8.16,6.97,8.16,6.97,-6.97,-6.95,-5.40,1.19,1.19,1.19
23.69,8.20,7.01,8.20,7.02,-7.01,-7.00,-5.55,1.19,1.19,1.19
23.92,8.24,7.06,8.24,7.06,-7.06,-7.04,-5.70,1.19,1.18,1.18
24.16,8.28,7.10,8.28,7.10,-7.10,-7.09,-5.85,1.18,1.18,1.18
24.40,8.31,7.13,8.31,7.14,-7.14,-7.13,-6.01,1.17,1.18,1.18
24.65,8.35,7.17,8.35,7.17,-7.18,-7.17,-6.17,1.17,1.17,1.18
24.89,8.38,7.21,8.38,7.21,-7.21,-7.21,-6.33,1.17,1.17,1.17
25.14,8.42,7.25,8.42,7.25,-7.25,-7.25,-6.49,1.17,1.17,1.17
25.39,8.46,7.29,8.46,7.29,-7.29,-7.29,-6.66,1.17,1.17,1.17
25.65,8.50,7.33,8.50,7.33,-7.33,-7.34,-6.82,1.17,1.17,1.17
25.91,8.53,7.36,8.54,7.37,-7.37,-7.38,-6.99,1.16,1.17,1.17
26.16,8.57,7.40,8.57,7.40,-7.40,-7.42,-7.16,1.17,1.17,1.17
26.43,8.61,7.44,8.61,7.44,-7.44,-7.46,-7.33,1.17,1.17,1.17
26.69,8.64,7.48,8.64,7.48,-7.48,-7.49,-7.50,1.16,1.17,1.16
26.96,8.68,7.52,8.68,7.52,-7.51,-7.53,-7.66,1.17,1.16,1.16
27.23,8.71,7.55,8.71,7.55,-7.55,-7.57,-7.83,1.16,1.16,1.16
27.50,8.74,7.58,8.74,7.58,-7.59,-7.61,-7.99,1.15,1.16,1.16
27.77,8.77,7.61,8.77,7.62,-7.62,-7.65,-8.15,1.15,1.15,1.16
28.05,8.81,7.66,8.81,7.66,-7.66,-7.69,-8.30,1.15,1.15,1.15
28.33,8.84,7.69,8.84,7.70,-7.69,-7.72,-8.45,1.15,1.15,1.15
28.62,8.88,7.73,8.88,7.73,-7.73,-7.76,-8.59,1.15,1.15,1.15
28.90,8.91,7.77,8.91,7.77,-7.77,-7.80,-8.73,1.14,1.14,1.14
29.19,8.94,7.80,8.94,7.80,-7.80,-7.83,-8.86,1.14,1.14,1.14
29.48,8.97,7.83,8.98,7.84,-7.84,-7.87,-8.98,1.13,1.14,1.14
29.78,9.01,7.88,9.01,7.87,-7.87,-7.90,-9.08,1.14,1.13,1.13
30.08,9.04,7.91,9.04,7.91,-7.91,-7.94,-9.18,1.13,1.13,1.13
30.38,9.06,7.93,9.07,7.94,-7.94,-7.97,-9.27,1.12,1.13,1.13
30.68,9.10,7.97,9.10,7.97,-7.97,-8.01,-9.34,1.13,1.13,1.13
30.99,9.13,8.00,9.13,8.00,-8.00,-8.04,-9.40,1.13,1.13,1.13
31.30,9.16,8.03,9.16,8.03,-8.03,-8.07,-9.45,1.13,1.13,1.13
31.61,9.19,8.05,9.19,8.06,-8.06,-8.11,-9.49,1.13,1.13,1.14
31.93,9.22,8.08,9.22,8.08,-8.09,-8.14,-9.52,1.13,1.13,1.14
32.24,9.25,8.11,9.25,8.11,-8.11,-8.17,-9.53,1.14,1.14,1.14
32.57,9.28,8.14,9.29,8.15,-8.14,-8.20,-9.53,1.14,1.14,1.14
32.89,9.32,8.18,9.32,8.18,-8.18,-8.24,-9.52,1.15,1.14,1.14
33.22,9.35,8.21,9.35,8.21,-8.21,-8.27,-9.50,1.14,1.14,1.14
33.55,9.37,8.23,9.38,8.24,-8.24,-8.30,-9.48,1.13,1.14,1.14
33.89,9.41,8.27,9.41,8.27,-8.27,-8.33,-9.44,1.14,1.13,1.14
34.23,9.44,8.31,9.44,8.31,-8.31,-8.36,-9.40,1.13,1.13,1.13
34.57,9.47,8.34,9.47,8.34,-8.34,-8.39,-9.35,1.13,1.13,1.13
34.92,9.50,8.38,9.50,8.38,-8.38,-8.42,-9.30,1.13,1.12,1.12
35.27,9.52,8.41,9.52,8.41,-8.41,-8.45,-9.24,1.11,1.11,1.11
35.62,9.55,8.45,9.55,8.44,-8.45,-8.48,-9.18,1.10,1.10,1.10
35.97,9.57,8.47,9.57,8.48,-8.48,-8.51,-9.12,1.09,1.09,1.10
36.33,9.60,8.51,9.60,8.52,-8.52,-8.54,-9.05,1.08,1.08,1.09
36.70,9.63,8.56,9.63,8.56,-8.56,-8.57,-8.99,1.07,1.07,1.07
37.06,9.66,8.60,9.66,8.60,-8.60,-8.60,-8.93,1.06,1.06,1.06
37.43,9.69,8.64,9.69,8.64,-8.64,-8.63,-8.86,1.05,1.05,1.05
37.81,9.72,8.68,9.72,8.68,-8.68,-8.66,-8.80,1.05,1.04,1.04
38.19,9.74,8.71,9.74,8.71,-8.71,-8.69,-8.75,1.03,1.03,1.03
38.57,9.77,8.74,9.77,8.75,-8.75,-8.72,-8.69,1.02,1.02,1.03
38.95,9.80,8.78,9.80,8.78,-8.78,-8.75,-8.64,1.02,1.02,1.02
39.34,9.83,8.82,9.83,8.82,-8.82,-8.78,-8.60,1.01,1.02,1.01
39.74,9.86,8.85,9.86,8.85,-8.85,-8.81,-8.55,1.01,1.01,1.01
40.14,9.89,8.89,9.88,8.88,-8.88,-8.83,-8.51,1.01,1.00,1.00
40.54,9.90,8.90,9.91,8.91,-8.91,-8.86,-8.48,0.99,1.00,1.00
40.94,9.94,8.94,9.94,8.94,-8.94,-8.89,-8.45,1.00,1.00,1.00
41.35,9.97,8.97,9.97,8.97,-8.97,-8.92,-8.43,1.00,1.00,1.00
41.76,10.00,9.00,10.00,9.00,-9.00,-8.95,-8.41,1.00,1.00,1.00
42.18,10.03,9.03,10.03,9.03,-9.03,-8.97,-8.40,1.00,1.00,1.00
42.60,10.05,9.05,10.05,9.06,-9.06,-9.00,-8.40,0.99,1.00,1.00
43.03,10.08,9.08,10.08,9.08,-9.08,-9.03,-8.40,1.00,1.00,1.00
43.46,10.11,9.11,10.11,9.11,-9.11,-9.06,-8.41,1.00,1.00,1.00
43.90,10.14,9.14,10.14,9.13,-9.13,-9.08,-8.42,1.01,1.01,1.00
44.33,10.16,9.15,10.16,9.16,-9.16,-9.11,-8.44,1.01,1.01,1.01
44.78,10.18,9.17,10.18,9.18,-9.18,-9.14,-8.46,1.00,1.01,1.01
45.23,10.21,9.20,10.21,9.20,-9.20,-9.17,-8.49,1.01,1.01,1.01
45.68,10.24,9.22,10.24,9.22,-9.23,-9.19,-8.53,1.01,1.01,1.02
46.13,10.27,9.25,10.27,9.25,-9.25,-9.22,-8.57,1.02,1.02,1.02
46.60,10.30,9.28,10.30,9.28,-9.28,-9.25,-8.62,1.02,1.02,1.02
47.06,10.33,9.31,10.33,9.31,-9.31,-9.28,-8.68,1.02,1.02,1.02
47.53,10.35,9.33,10.35,9.34,-9.33,-9.30,-8.74,1.02,1.02,1.02
48.01,10.38,9.36,10.38,9.36,-9.36,-9.33,-8.81,1.02,1.01,1.02
48.49,10.40,9.39,10.40,9.39,-9.39,-9.36,-8.88,1.01,1.01,1.01
48.97,10.43,9.42,10.43,9.42,-9.42,-9.39,-8.95,1.01,1.01,1.01
49.46,10.46,9.45,10.46,9.45,-9.45,-9.41,-9.04,1.01,1.01,1.01
49.96,10.48,9.48,10.48,9.48,-9.48,-9.44,-9.12,1.00,1.00,1.00
50.46,10.50,9.50,10.50,9.51,-9.51,-9.47,-9.21,0.99,0.99,1.00
50.96,10.53,9.54,10.53,9.54,-9.54,-9.50,-9.31,0.99,0.99,0.99
51.47,10.56,9.57,10.56,9.57,-9.57,-9.52,-9.41,0.99,0.99,0.99
51.99,10.59,9.61,10.59,9.61,-9.61,-9.55,-9.51,0.98,0.98,0.98
52.51,10.62,9.64,10.62,9.64,-9.64,-9.58,-9.61,0.98,0.98,0.98
53.03,10.64,9.66,10.65,9.67,-9.67,-9.61,-9.72,0.97,0.98,0.98
53.56,10.67,9.70,10.67,9.70,-9.70,-9.64,-9.83,0.97,0.97,0.97
54.10,10.70,9.73,10.70,9.73,-9.73,-9.66,-9.94,0.97,0.97,0.97
54.64,10.72,9.75,10.73,9.76,-9.76,-9.69,-10.05,0.97,0.97,0.97
55.18,10.76,9.79,10.75,9.78,-9.78,-9.72,-10.15,0.98,0.97,0.97
55.74,10.78,9.80,10.78,9.81,-9.81,-9.75,-10.26,0.97,0.97,0.98
56.29,10.81,9.83,10.81,9.83,-9.84,-9.78,-10.36,0.97,0.98,0.98
56.86,10.84,9.86,10.84,9.86,-9.86,-9.80,-10.46,0.98,0.98,0.98
57.42,10.87,9.89,10.87,9.89,-9.89,-9.83,-10.55,0.98,0.98,0.98
58.00,10.90,9.92,10.90,9.92,-9.91,-9.86,-10.64,0.99,0.98,0.98
58.58,10.92,9.94,10.92,9.94,-9.94,-9.89,-10.73,0.98,0.98,0.98
59.16,10.94,9.96,10.94,9.96,-9.97,-9.92,-10.80,0.97,0.98,0.98
59.76,10.97,9.99,10.97,9.99,-9.99,-9.95,-10.87,0.98,0.97,0.98
60.35,10.99,10.01,10.99,10.02,-10.02,-9.98,-10.93,0.97,0.97,0.98
60.96,11.02,10.05,11.02,10.05,-10.05,-10.01,-10.98,0.97,0.97,0.97
61.57,11.05,10.08,11.05,10.08,-10.08,-10.03,-11.02,0.97,0.97,0.97
62.18,11.07,10.10,11.07,10.11,-10.11,-10.06,-11.05,0.96,0.97,0.97
62.80,11.10,10.14,11.10,10.14,-10.14,-10.09,-11.07,0.96,0.96,0.96
63.43,11.12,10.16,11.12,10.17,-10.17,-10.12,-11.08,0.95,0.96,0.96
64.07,11.15,10.20,11.15,10.20,-10.20,-10.15,-11.08,0.95,0.95,0.95
64.71,11.18,10.23,11.18,10.23,-10.23,-10.18,-11.07,0.95,0.95,0.95
65.35,11.20,10.25,11.21,10.26,-10.25,-10.21,-11.05,0.95,0.95,0.95
66.01,11.23,10.28,11.23,10.28,-10.28,-10.24,-11.02,0.95,0.95,0.95
66.67,11.26,10.31,11.26,10.31,-10.31,-10.27,-10.99,0.95,0.95,0.95
67.33,11.28,10.33,11.29,10.34,-10.34,-10.30,-10.95,0.95,0.95,0.95
68.01,11.31,10.36,11.31,10.36,-10.36,-10.33,-10.90,0.95,0.95,0.95
68.69,11.34,10.39,11.34,10.39,-10.39,-10.36,-10.84,0.95,0.95,0.95
69.37,11.36,10.41,11.37,10.42,-10.42,-10.39,-10.79,0.94,0.95,0.95
70.07,11.39,10.44,11.39,10.44,-10.44,-10.42,-10.73,0.95,0.95,0.95
70.77,11.42,10.47,11.42,10.47,-10.47,-10.44,-10.66,0.95,0.94,0.95
71.48,11.44,10.50,11.44,10.50,-10.50,-10.47,-10.60,0.94,0.94,0.94
72.19,11.46,10.52,11.47,10.53,-10.52,-10.50,-10.53,0.94,0.94,0.94
72.91,11.50,10.56,11.49,10.55,-10.55,-10.53,-10.47,0.95,0.94,0.94
73.64,11.52,10.58,11.52,10.58,-10.58,-10.56,-10.40,0.94,0.94,0.94
74.38,11.54,10.59,11.55,10.60,-10.61,-10.59,-10.34,0.93,0.94,0.95
75.12,11.58,10.63,11.58,10.63,-10.63,-10.62,-10.28,0.95,0.94,0.95
75.87,11.61,10.66,11.61,10.66,-10.66,-10.65,-10.22,0.95,0.95,0.95
76.63,11.64,10.69,11.64,10.69,-10.69,-10.68,-10.17,0.95,0.95,0.95
77.40,11.67,10.72,11.67,10.72,-10.72,-10.71,-10.12,0.95,0.95,0.95
78.17,11.70,10.75,11.70,10.75,-10.75,-10.74,-10.08,0.95,0.95,0.95
78.95,11.73,10.78,11.73,10.78,-10.78,-10.77,-10.04,0.95,0.95,0.95
79.74,11.76,10.81,11.76,10.81,-10.81,-10.80,-10.00,0.95,0.95,0.95
80.54,11.78,10.83,11.79,10.84,-10.83,-10.83,-9.97,0.95,0.95,0.95
81.35,11.82,10.86,11.81,10.86,-10.86,-10.86,-9.95,0.96,0.95,0.96
82.16,11.84,10.88,11.84,10.88,-10.88,-10.89,-9.93,0.96,0.96,0.96
82.98,11.86,10.90,11.87,10.91,-10.91,-10.92,-9.92,0.95,0.96,0.96
83.81,11.90,10.93,11.89,10.93,-10.93,-10.94,-9.92,0.97,0.96,0.97
84.65,11.92,10.95,11.92,10.95,-10.95,-10.97,-9.92,0.97,0.97,0.97
85.50,11.95,10.98,11.95,10.98,-10.98,-11.00,-9.93,0.97,0.97,0.97
86.35,11.98,11.00,11.98,11.00,-11.00,-11.03,-9.94,0.98,0.97,0.98
87.22,12.00,11.02,12.01,11.03,-11.03,-11.05,-9.97,0.97,0.98,0.98
88.09,12.04,11.06,12.04,11.05,-11.05,-11.08,-10.00,0.99,0.98,0.98
88.97,12.06,11.07,12.07,11.08,-11.08,-11.11,-10.03,0.98,0.99,0.99
89.86,12.10,11.11,12.10,11.11,-11.10,-11.13,-10.08,1.00,0.99,0.99
90.76,12.13,11.13,12.13,11.13,-11.13,-11.16,-10.13,1.00,1.00,1.00
91.66,12.15,11.15,12.16,11.16,-11.15,-11.18,-10.19,1.00,1.00,1.00
92.58,12.18,11.18,12.18,11.18,-11.18,-11.21,-10.25,1.00,1.00,1.00
93.51,12.21,11.20,12.21,11.21,-11.21,-11.23,-10.32,1.00,1.00,1.01
94.44,12.24,11.23,12.24,11.23,-11.23,-11.26,-10.40,1.01,1.01,1.01
95.39,12.27,11.26,12.27,11.26,-11.26,-11.28,-10.49,1.01,1.01,1.01
96.34,12.29,11.28,12.30,11.29,-11.29,-11.30,-10.58,1.00,1.01,1.01
97.30,12.32,11.31,12.32,11.31,-11.32,-11.33,-10.68,1.00,1.01,1.01
98.28,12.36,11.35,12.35,11.35,-11.35,-11.35,-10.79,1.02,1.01,1.01
99.26,12.37,11.37,12.38,11.38,-11.38,-11.37,-10.90,1.00,1.01,1.00
100.25,12.41,11.41,12.41,11.41,-11.41,-11.40,-11.01,1.01,1.00,1.00
101.25,12.43,11.43,12.43,11.43,-11.44,-11.42,-11.13,1.00,0.99,1.00
102.27,12.45,11.46,12.46,11.46,-11.46,-11.44,-11.26,0.99,0.99,0.99
103.29,12.48,11.49,12.48,11.49,-11.49,-11.47,-11.39,0.99,0.99,0.99
104.32,12.51,11.53,12.51,11.53,-11.52,-11.50,-11.53,0.99,0.98,0.98
105.37,12.53,11.55,12.54,11.55,-11.55,-11.53,-11.67,0.98,0.98,0.98
106.42,12.56,11.58,12.56,11.58,-11.58,-11.56,-11.81,0.98,0.98,0.98
107.48,12.59,11.61,12.59,11.61,-11.61,-11.59,-11.95,0.98,0.97,0.98
108.56,12.61,11.64,12.61,11.64,-11.64,-11.62,-12.09,0.97,0.97,0.97
109.64,12.64,11.67,12.64,11.67,-11.67,-11.66,-12.24,0.97,0.97,0.97
110.74,12.67,11.70,12.67,11.70,-11.71,-11.70,-12.38,0.97,0.96,0.97
111.85,12.70,11.74,12.70,11.74,-11.74,-11.73,-12.52,0.96,0.97,0.96
112.97,12.73,11.77,12.73,11.77,-11.77,-11.77,-12.65,0.96,0.96,0.96
114.10,12.76,11.81,12.75,11.80,-11.80,-11.81,-12.78,0.96,0.95,0.95
115.24,12.77,11.82,12.78,11.84,-11.84,-11.84,-12.91,0.93,0.94,0.95
116.39,12.80,11.87,12.80,11.87,-11.87,-11.88,-13.02,0.93,0.93,0.93
117.55,12.83,11.91,12.83,11.91,-11.91,-11.92,-13.13,0.92,0.92,0.92
118.73,12.85,11.94,12.85,11.95,-11.94,-11.95,-13.22,0.91,0.91,0.91
119.92,12.87,11.98,12.87,11.98,-11.98,-11.99,-13.31,0.89,0.89,0.89
121.12,12.89,12.02,12.89,12.02,-12.02,-12.02,-13.38,0.87,0.87,0.87
122.33,12.91,12.06,12.91,12.06,-12.07,-12.06,-13.44,0.85,0.85,0.85
123.55,12.93,12.10,12.93,12.11,-12.11,-12.09,-13.48,0.82,0.83,0.83
124.79,12.96,12.15,12.95,12.15,-12.15,-12.12,-13.51,0.81,0.80,0.81
126.03,12.97,12.19,12.97,12.19,-12.19,-12.16,-13.53,0.78,0.78,0.78
127.29,12.99,12.23,12.99,12.23,-12.23,-12.19,-13.53,0.76,0.76,0.76
128.57,13.01,12.27,13.01,12.27,-12.27,-12.22,-13.51,0.74,0.74,0.74
129.85,13.03,12.31,13.03,12.31,-12.30,-12.25,-13.48,0.73,0.73,0.72
131.15,13.05,12.34,13.05,12.34,-12.34,-12.28,-13.44,0.71,0.71,0.71
132.46,13.06,12.36,13.06,12.37,-12.37,-12.31,-13.39,0.69,0.70,0.70
133.79,13.08,12.39,13.08,12.39,-12.39,-12.33,-13.32,0.69,0.69,0.69
135.12,13.09,12.41,13.09,12.41,-12.41,-12.36,-13.25,0.68,0.68,0.68
136.48,13.11,12.43,13.11,12.44,-12.43,-12.39,-13.17,0.68,0.68,0.68
137.84,13.13,12.46,13.13,12.45,-12.45,-12.42,-13.08,0.68,0.67,0.67
139.22,13.14,12.47,13.14,12.47,-12.47,-12.44,-12.98,0.67,0.67,0.67
140.61,13.15,12.48,13.15,12.49,-12.49,-12.47,-12.89,0.66,0.67,0.67
142.02,13.17,12.50,13.17,12.50,-12.51,-12.49,-12.78,0.67,0.66,0.67
143.44,13.19,12.52,13.19,12.52,-12.52,-12.52,-12.68,0.67,0.67,0.67
144.87,13.21,12.54,13.21,12.54,-12.54,-12.54,-12.58,0.67,0.67,0.67
146.32,13.23,12.56,13.23,12.56,-12.56,-12.57,-12.48,0.67,0.67,0.67
147.78,13.26,12.58,13.26,12.58,-12.58,-12.59,-12.38,0.68,0.68,0.68
149.26,13.28,12.60,13.28,12.60,-12.60,-12.61,-12.28,0.68,0.68,0.68
150.75,13.30,12.62,13.30,12.62,-12.63,-12.64,-12.18,0.67,0.68,0.68
152.26,13.33,12.65,13.33,12.65,-12.65,-12.66,-12.09,0.68,0.68,0.68
153.78,13.36,12.68,13.36,12.68,-12.68,-12.68,-12.01,0.68,0.68,0.68
155.32,13.39,12.71,13.39,12.71,-12.71,-12.70,-11.92,0.68,0.68,0.68
156.88,13.41,12.73,13.42,12.74,-12.74,-12.72,-11.85,0.67,0.68,0.68
158.44,13.44,12.76,13.44,12.77,-12.77,-12.74,-11.78,0.67,0.68,0.68
160.03,13.48,12.80,13.47,12.79,-12.80,-12.76,-11.72,0.69,0.68,0.68
161.63,13.50,12.82,13.50,12.83,-12.82,-12.78,-11.66,0.68,0.68,0.68
163.24,13.53,12.85,13.53,12.85,-12.85,-12.80,-11.61,0.68,0.68,0.68
164.88,13.56,12.88,13.56,12.88,-12.88,-12.82,-11.57,0.68,0.68,0.68
166.53,13.59,12.90,13.59,12.91,-12.91,-12.83,-11.53,0.69,0.69,0.69
168.19,13.62,12.93,13.62,12.93,-12.93,-12.85,-11.51,0.69,0.69,0.69
169.87,13.64,12.95,13.65,12.95,-12.95,-12.87,-11.49,0.69,0.69,0.69
171.57,13.67,12.97,13.67,12.98,-12.98,-12.88,-11.47,0.69,0.70,0.70
173.29,13.70,13.00,13.70,13.00,-13.00,-12.90,-11.47,0.70,0.70,0.70
175.02,13.72,13.02,13.72,13.02,-13.02,-12.91,-11.47,0.70,0.70,0.70
176.77,13.74,13.03,13.74,13.04,-13.03,-12.93,-11.48,0.71,0.71,0.71
178.54,13.76,13.05,13.76,13.05,-13.05,-12.94,-11.50,0.71,0.71,0.71
180.32,13.78,13.06,13.78,13.06,-13.06,-12.95,-11.53,0.72,0.71,0.72
182.13,13.79,13.07,13.79,13.07,-13.08,-12.97,-11.57,0.71,0.72,0.72
183.95,13.81,13.09,13.81,13.09,-13.09,-12.98,-11.61,0.72,0.72,0.72
185.79,13.82,13.09,13.82,13.10,-13.10,-12.99,-11.66,0.72,0.73,0.73
187.65,13.84,13.11,13.84,13.11,-13.11,-13.00,-11.72,0.74,0.73,0.73
189.52,13.84,13.11,13.84,13.11,-13.11,-13.01,-11.79,0.73,0.73,0.73
191.42,13.85,13.11,13.85,13.12,-13.12,-13.02,-11.87,0.73,0.73,0.74
193.33,13.86,13.12,13.86,13.12,-13.12,-13.03,-11.95,0.74,0.74,0.74
195.27,13.87,13.13,13.87,13.13,-13.13,-13.03,-12.04,0.74,0.74,0.74
197.22,13.88,13.14,13.88,13.13,-13.13,-13.04,-12.13,0.75,0.74,0.74
199.19,13.88,13.13,13.88,13.14,-13.13,-13.05,-12.24,0.75,0.75,0.75
201.18,13.88,13.13,13.88,13.14,-13.14,-13.05,-12.35,0.74,0.75,0.75
203.19,13.89,13.14,13.89,13.14,-13.14,-13.06,-12.47,0.75,0.75,0.75
205.23,13.88,13.13,13.89,13.14,-13.14,-13.06,-12.59,0.74,0.75,0.75
207.28,13.89,13.14,13.89,13.14,-13.14,-13.06,-12.72,0.75,0.75,0.75
209.35,13.88,13.13,13.88,13.13,-13.14,-13.07,-12.85,0.74,0.75,0.75
211.44,13.88,13.13,13.88,13.13,-13.13,-13.07,-12.98,0.75,0.75,0.75
213.56,13.88,13.13,13.88,13.13,-13.13,-13.07,-13.12,0.75,0.75,0.75
215.69,13.88,13.13,13.88,13.13,-13.13,-13.07,-13.26,0.75,0.75,0.75
217.85,13.87,13.12,13.87,13.13,-13.12,-13.07,-13.40,0.75,0.75,0.75
220.03,13.87,13.12,13.87,13.12,-13.12,-13.07,-13.54,0.75,0.75,0.75
222.23,13.86,13.11,13.86,13.11,-13.11,-13.07,-13.68,0.75,0.75,0.75
224.45,13.85,13.10,13.85,13.10,-13.10,-13.06,-13.82,0.75,0.75,0.75
226.70,13.83,13.08,13.84,13.09,-13.09,-13.06,-13.95,0.74,0.75,0.75
228.96,13.83,13.08,13.83,13.08,-13.08,-13.05,-14.08,0.75,0.75,0.75
231.25,13.82,13.07,13.82,13.07,-13.07,-13.05,-14.19,0.75,0.74,0.75
233.57,13.80,13.06,13.80,13.06,-13.06,-13.04,-14.30,0.74,0.74,0.74
235.90,13.78,13.04,13.78,13.05,-13.05,-13.03,-14.39,0.73,0.74,0.74
238.26,13.77,13.03,13.77,13.03,-13.03,-13.02,-14.47,0.74,0.73,0.74
240.64,13.75,13.02,13.75,13.02,-13.02,-13.01,-14.54,0.73,0.73,0.73
243.05,13.74,13.01,13.74,13.01,-13.00,-13.00,-14.58,0.74,0.73,0.73
245.48,13.72,12.99,13.72,12.99,-12.99,-12.99,-14.61,0.73,0.73,0.73
247.93,13.69,12.96,13.70,12.97,-12.97,-12.98,-14.62,0.72,0.73,0.73
250.41,13.68,12.95,13.68,12.95,-12.95,-12.96,-14.61,0.73,0.72,0.73
252.92,13.65,12.93,13.65,12.93,-12.93,-12.95,-14.58,0.72,0.72,0.72
255.45,13.63,12.91,13.63,12.91,-12.91,-12.93,-14.53,0.72,0.72,0.72
258.00,13.60,12.88,13.60,12.89,-12.89,-12.92,-14.46,0.71,0.71,0.72
260.58,13.58,12.87,13.58,12.87,-12.87,-12.90,-14.38,0.71,0.71,0.71
263.19,13.56,12.85,13.56,12.85,-12.85,-12.88,-14.27,0.71,0.71,0.71
265.82,13.53,12.83,13.53,12.83,-12.83,-12.86,-14.15,0.70,0.70,0.70
268.48,13.50,12.80,13.50,12.80,-12.80,-12.84,-14.02,0.70,0.70,0.70
271.16,13.47,12.78,13.47,12.78,-12.78,-12.81,-13.88,0.69,0.69,0.69
273.87,13.44,12.75,13.44,12.75,-12.75,-12.79,-13.73,0.69,0.69,0.69
276.61,13.41,12.73,13.41,12.73,-12.73,-12.76,-13.56,0.68,0.68,0.68
279.38,13.37,12.69,13.37,12.70,-12.70,-12.74,-13.40,0.67,0.67,0.68
282.17,13.34,12.67,13.34,12.67,-12.67,-12.71,-13.22,0.67,0.66,0.67
284.99,13.30,12.64,13.30,12.64,-12.64,-12.68,-13.05,0.66,0.66,0.66
287.84,13.26,12.61,13.27,12.62,-12.62,-12.65,-12.87,0.65,0.65,0.65
290.72,13.23,12.59,13.23,12.59,-12.58,-12.62,-12.70,0.65,0.64,0.64
293.63,13.19,12.55,13.19,12.56,-12.55,-12.59,-12.52,0.64,0.64,0.64
296.57,13.15,12.52,13.15,12.52,-12.52,-12.55,-12.35,0.63,0.63,0.63
299.53,13.10,12.48,13.10,12.48,-12.48,-12.52,-12.17,0.62,0.62,0.62
302.53,13.05,12.43,13.06,12.44,-12.44,-12.48,-12.01,0.61,0.61,0.62
305.55,13.01,12.40,13.01,12.39,-12.40,-12.44,-11.84,0.61,0.61,0.61
308.61,12.96,12.35,12.96,12.35,-12.35,-12.40,-11.68,0.61,0.61,0.61
311.69,12.91,12.30,12.91,12.31,-12.31,-12.36,-11.53,0.60,0.61,0.61
314.81,12.87,12.27,12.87,12.26,-12.26,-12.32,-11.39,0.61,0.60,0.60
317.96,12.81,12.21,12.81,12.21,-12.21,-12.28,-11.24,0.60,0.60,0.60
321.14,12.76,12.16,12.76,12.16,-12.17,-12.23,-11.11,0.60,0.59,0.60
324.35,12.70,12.11,12.70,12.11,-12.11,-12.19,-10.98,0.59,0.59,0.59
327.59,12.65,12.06,12.65,12.06,-12.06,-12.14,-10.86,0.59,0.59,0.59
330.87,12.59,12.01,12.59,12.01,-12.01,-12.09,-10.75,0.58,0.59,0.58
334.18,12.54,11.96,12.54,11.96,-11.95,-12.04,-10.64,0.59,0.58,0.58
337.52,12.47,11.89,12.47,11.90,-11.90,-11.99,-10.54,0.57,0.58,0.58
340.90,12.41,11.84,12.41,11.84,-11.84,-11.93,-10.45,0.57,0.57,0.57
344.30,12.34,11.77,12.34,11.78,-11.78,-11.88,-10.36,0.56,0.56,0.57
347.75,12.28,11.72,12.28,11.73,-11.72,-11.82,-10.29,0.56,0.56,0.56
351.23,12.22,11.67,12.22,11.67,-11.66,-11.76,-10.22,0.56,0.55,0.55
354.74,12.15,11.61,12.15,11.61,-11.60,-11.70,-10.15,0.55,0.55,0.54
358.28,12.07,11.53,12.08,11.54,-11.54,-11.64,-10.10,0.53,0.54,0.54
361.87,12.01,11.48,12.00,11.48,-11.48,-11.58,-10.05,0.53,0.52,0.53
365.49,11.93,11.41,11.93,11.41,-11.42,-11.52,-10.00,0.51,0.52,0.52
369.14,11.86,11.35,11.86,11.35,-11.35,-11.45,-9.97,0.51,0.51,0.51
372.83,11.79,11.29,11.78,11.29,-11.29,-11.38,-9.94,0.51,0.50,0.50
376.56,11.70,11.21,11.71,11.22,-11.22,-11.32,-9.92,0.48,0.49,0.49
380.33,11.63,11.15,11.63,11.15,-11.15,-11.25,-9.90,0.48,0.48,0.48
384.13,11.55,11.08,11.55,11.08,-11.08,-11.17,-9.89,0.47,0.47,0.47
387.97,11.46,11.00,11.46,11.01,-11.01,-11.10,-9.89,0.46,0.46,0.46
391.85,11.38,10.93,11.38,10.93,-10.93,-11.03,-9.89,0.45,0.45,0.45
395.77,11.29,10.85,11.29,10.85,-10.85,-10.95,-9.90,0.44,0.44,0.44
399.73,11.21,10.78,11.21,10.78,-10.77,-10.87,-9.91,0.44,0.43,0.43
403.72,11.12,10.69,11.12,10.69,-10.69,-10.79,-9.93,0.43,0.43,0.43
407.76,11.03,10.61,11.03,10.61,-10.61,-10.71,-9.95,0.42,0.42,0.42
411.84,10.94,10.53,10.94,10.53,-10.53,-10.63,-9.98,0.41,0.41,0.41
415.96,10.85,10.45,10.85,10.45,-10.45,-10.55,-10.01,0.40,0.40,0.40
420.12,10.75,10.36,10.75,10.37,-10.37,-10.46,-10.04,0.38,0.39,0.39
424.32,10.66,10.28,10.66,10.28,-10.29,-10.37,-10.07,0.37,0.38,0.38
428.56,10.57,10.20,10.57,10.20,-10.20,-10.28,-10.11,0.37,0.37,0.37
