frequency,raw,error,smoothed,error_smoothed,equalization,parametric_eq,fixed_band_eq,equalized_raw,equalized_smoothed,target
20.00,12.44,7.02,12.44,7.01,-7.02,-6.72,-3.12,5.43,5.43,5.43
20.20,12.44,7.01,12.45,7.01,-7.01,-6.72,-3.21,5.43,5.44,5.44
20.40,12.45,7.01,12.45,7.01,-7.01,-6.72,-3.30,5.45,5.44,5.45
20.61,12.45,7.00,12.45,7.00,-7.00,-6.72,-3.39,5.45,5.45,5.45
20.81,12.46,7.01,12.46,7.00,-7.00,-6.73,-3.49,5.46,5.46,5.45
21.02,12.46,7.00,12.46,7.00,-7.00,-6.73,-3.58,5.46,5.47,5.46
21.23,12.47,7.00,12.47,7.00,-7.00,-6.73,-3.68,5.47,5.48,5.47
21.44,12.48,6.99,12.48,6.99,-7.00,-6.73,-3.79,5.48,5.48,5.49
21.66,12.49,7.00,12.49,7.00,-7.00,-6.73,-3.89,5.49,5.49,5.49
21.87,12.50,7.00,12.50,7.00,-7.00,-6.73,-4.00,5.50,5.50,5.50
22.09,12.51,7.01,12.51,7.01,-7.01,-6.73,-4.12,5.50,5.50,5.50
22.31,12.52,7.01,12.52,7.01,-7.01,-6.73,-4.23,5.51,5.51,5.51
22.54,12.53,7.02,12.53,7.02,-7.02,-6.74,-4.35,5.51,5.51,5.51
22.76,12.54,7.02,12.54,7.03,-7.03,-6.74,-4.47,5.51,5.51,5.52
22.99,12.55,7.03,12.55,7.03,-7.04,-6.74,-4.59,5.52,5.52,5.52
23.22,12.56,7.04,12.56,7.04,-7.04,-6.74,-4.72,5.52,5.52,5.52
23.45,12.57,7.05,12.57,7.05,-7.05,-6.74,-4.85,5.52,5.53,5.53
23.69,12.58,7.06,12.58,7.06,-7.05,-6.74,-4.99,5.53,5.53,5.53
23.92,12.59,7.07,12.59,7.06,-7.05,-6.74,-5.12,5.54,5.54,5.53
24.16,12.59,7.06,12.59,7.06,-7.06,-6.75,-5.26,5.54,5.54,5.53
24.40,12.59,7.05,12.59,7.05,-7.06,-6.75,-5.40,5.54,5.54,5.54
24.65,12.59,7.05,12.59,7.05,-7.06,-6.75,-5.54,5.54,5.54,5.54
24.89,12.59,7.05,12.59,7.05,-7.05,-6.75,-5.69,5.54,5.54,5.54
25.14,12.59,7.05,12.59,7.05,-7.05,-6.75,-5.84,5.54,5.54,5.54
25.39,12.59,7.05,12.59,7.05,-7.05,-6.75,-5.98,5.54,5.54,5.54
25.65,12.59,7.05,12.59,7.05,-7.05,-6.75,-6.14,5.54,5.54,5.54
25.91,12.59,7.05,12.59,7.05,-7.05,-6.75,-6.29,5.54,5.54,5.54
26.16,12.59,7.05,12.59,7.05,-7.05,-6.76,-6.44,5.54,5.54,5.55
26.43,12.59,7.05,12.59,7.05,-7.05,-6.76,-6.59,5.54,5.54,5.55
26.69,12.59,7.05,12.59,7.05,-7.05,-6.76,-6.74,5.54,5.54,5.54
26.96,12.59,7.05,12.59,7.05,-7.05,-6.76,-6.88,5.54,5.54,5.54
27.23,12.59,7.05,12.59,7.05,-7.05,-6.76,-7.03,5.54,5.54,5.54
27.50,12.59,7.05,12.59,7.05,-7.05,-6.76,-7.17,5.54,5.55,5.54
27.77,12.59,7.04,12.59,7.05,-7.04,-6.76,-7.31,5.55,5.55,5.55
28.05,12.59,7.04,12.59,7.04,-7.04,-6.76,-7.45,5.55,5.55,5.55
28.33,12.58,7.04,12.58,7.03,-7.03,-6.76,-7.57,5.55,5.55,5.55
28.62,12.57,7.03,12.57,7.02,-7.02,-6.77,-7.70,5.55,5.55,5.54
28.90,12.55,7.00,12.56,7.01,-7.01,-6.77,-7.81,5.54,5.55,5.55
29.19,12.54,6.99,12.55,7.00,-7.00,-6.77,-7.92,5.54,5.54,5.55
29.48,12.54,6.99,12.54,6.99,-6.99,-6.77,-8.02,5.55,5.54,5.55
29.78,12.53,6.98,12.53,6.98,-6.99,-6.77,-8.11,5.55,5.55,5.55
30.08,12.52,6.97,12.53,6.98,-6.98,-6.77,-8.18,5.54,5.55,5.56
30.38,12.52,6.98,12.52,6.97,-6.97,-6.77,-8.25,5.55,5.55,5.54
30.68,12.51,6.97,12.52,6.97,-6.97,-6.77,-8.30,5.55,5.55,5.54
30.99,12.51,6.97,12.51,6.97,-6.96,-6.77,-8.35,5.55,5.55,5.54
31.30,12.49,6.95,12.49,6.96,-6.95,-6.77,-8.37,5.54,5.54,5.54
31.61,12.47,6.94,12.47,6.94,-6.94,-6.77,-8.40,5.53,5.53,5.54
31.93,12.45,6.93,12.46,6.93,-6.93,-6.77,-8.40,5.52,5.53,5.52
32.24,12.44,6.91,12.44,6.91,-6.91,-6.77,-8.39,5.53,5.52,5.53
32.57,12.42,6.90,12.42,6.90,-6.90,-6.77,-8.37,5.52,5.52,5.52
32.89,12.40,6.89,12.40,6.89,-6.88,-6.77,-8.35,5.52,5.52,5.52
33.22,12.38,6.87,12.38,6.87,-6.87,-6.77,-8.31,5.51,5.51,5.51
33.55,12.36,6.85,12.36,6.85,-6.86,-6.77,-8.26,5.51,5.51,5.51
33.89,12.34,6.84,12.34,6.84,-6.84,-6.77,-8.20,5.50,5.50,5.51
34.23,12.32,6.83,12.32,6.83,-6.83,-6.77,-8.14,5.49,5.49,5.49
34.57,12.31,6.82,12.31,6.82,-6.82,-6.77,-8.07,5.49,5.49,5.49
34.92,12.29,6.81,12.30,6.81,-6.81,-6.77,-7.99,5.48,5.48,5.48
35.27,12.28,6.80,12.28,6.81,-6.80,-6.77,-7.91,5.48,5.48,5.48
35.62,12.26,6.80,12.26,6.80,-6.79,-6.76,-7.82,5.47,5.47,5.46
35.97,12.24,6.78,12.24,6.78,-6.78,-6.76,-7.74,5.46,5.46,5.46
36.33,12.21,6.77,12.21,6.77,-6.77,-6.76,-7.65,5.44,5.44,5.44
36.70,12.18,6.75,12.19,6.76,-6.76,-6.76,-7.55,5.42,5.43,5.43
37.06,12.16,6.75,12.16,6.74,-6.75,-6.76,-7.46,5.42,5.41,5.42
37.43,12.13,6.73,12.13,6.73,-6.73,-6.75,-7.37,5.40,5.40,5.40
37.81,12.10,6.72,12.11,6.72,-6.72,-6.75,-7.28,5.38,5.39,5.39
38.19,12.08,6.71,12.08,6.71,-6.71,-6.75,-7.19,5.38,5.37,5.37
38.57,12.05,6.69,12.05,6.69,-6.69,-6.74,-7.11,5.36,5.36,5.36
38.95,12.02,6.68,12.02,6.68,-6.68,-6.74,-7.02,5.34,5.34,5.34
39.34,11.99,6.67,11.99,6.67,-6.67,-6.73,-6.94,5.32,5.32,5.32
39.74,11.96,6.66,11.96,6.66,-6.66,-6.73,-6.86,5.30,5.30,5.30
40.14,11.93,6.65,11.93,6.65,-6.65,-6.72,-6.79,5.28,5.28,5.29
40.54,11.90,6.63,11.90,6.63,-6.64,-6.72,-6.71,5.26,5.26,5.27
40.94,11.87,6.63,11.87,6.63,-6.63,-6.71,-6.65,5.24,5.24,5.25
41.35,11.85,6.62,11.85,6.62,-6.62,-6.71,-6.58,5.23,5.23,5.23
41.76,11.82,6.62,11.82,6.62,-6.62,-6.70,-6.52,5.21,5.21,5.20
42.18,11.80,6.62,11.80,6.61,-6.61,-6.70,-6.47,5.19,5.19,5.19
42.60,11.76,6.60,11.76,6.60,-6.60,-6.69,-6.42,5.16,5.16,5.16
43.03,11.73,6.60,11.73,6.60,-6.60,-6.68,-6.37,5.14,5.13,5.13
43.46,11.69,6.59,11.69,6.59,-6.59,-6.68,-6.33,5.10,5.10,5.11
43.90,11.66,6.58,11.66,6.59,-6.58,-6.67,-6.30,5.08,5.08,5.08
44.33,11.63,6.58,11.63,6.58,-6.58,-6.66,-6.27,5.05,5.05,5.05
44.78,11.60,6.58,11.60,6.57,-6.57,-6.66,-6.24,5.03,5.03,5.02
45.23,11.56,6.56,11.57,6.57,-6.57,-6.65,-6.22,4.99,4.99,5.00
45.68,11.53,6.57,11.53,6.57,-6.57,-6.64,-6.20,4.96,4.96,4.97
46.13,11.50,6.58,11.50,6.57,-6.57,-6.64,-6.19,4.93,4.93,4.93
46.60,11.47,6.57,11.47,6.57,-6.57,-6.63,-6.18,4.90,4.90,4.90
47.06,11.44,6.57,11.44,6.58,-6.58,-6.62,-6.17,4.87,4.87,4.87
47.53,11.41,6.57,11.41,6.58,-6.58,-6.62,-6.18,4.83,4.84,4.84
48.01,11.38,6.59,11.38,6.59,-6.58,-6.61,-6.18,4.80,4.80,4.79
48.49,11.34,6.59,11.34,6.58,-6.58,-6.61,-6.19,4.76,4.76,4.76
48.97,11.29,6.58,11.30,6.58,-6.58,-6.61,-6.20,4.71,4.72,4.72
49.46,11.25,6.57,11.25,6.57,-6.58,-6.60,-6.22,4.68,4.68,4.68
49.96,11.21,6.58,11.21,6.57,-6.57,-6.60,-6.23,4.64,4.64,4.63
50.46,11.17,6.57,11.17,6.57,-6.57,-6.60,-6.26,4.60,4.60,4.60
50.96,11.13,6.56,11.13,6.57,-6.57,-6.60,-6.28,4.57,4.57,4.57
51.47,11.09,6.56,11.09,6.56,-6.56,-6.60,-6.31,4.53,4.53,4.53
51.99,11.05,6.56,11.06,6.56,-6.56,-6.59,-6.34,4.49,4.49,4.49
52.51,11.02,6.56,11.02,6.56,-6.56,-6.59,-6.37,4.46,4.46,4.46
53.03,10.99,6.56,10.99,6.56,-6.57,-6.59,-6.40,4.43,4.42,4.43
53.56,10.95,6.56,10.95,6.56,-6.57,-6.59,-6.44,4.38,4.38,4.39
54.10,10.91,6.57,10.92,6.57,-6.57,-6.59,-6.47,4.34,4.34,4.34
54.64,10.88,6.58,10.88,6.58,-6.58,-6.59,-6.50,4.31,4.31,4.31
55.18,10.85,6.59,10.85,6.59,-6.58,-6.59,-6.54,4.27,4.27,4.26
55.74,10.81,6.59,10.81,6.58,-6.58,-6.59,-6.57,4.24,4.24,4.22
56.29,10.77,6.58,10.77,6.58,-6.57,-6.58,-6.60,4.20,4.20,4.20
56.86,10.72,6.55,10.72,6.57,-6.57,-6.58,-6.63,4.16,4.16,4.17
57.42,10.68,6.56,10.68,6.55,-6.56,-6.58,-6.65,4.13,4.12,4.12
58.00,10.63,6.54,10.64,6.55,-6.55,-6.57,-6.67,4.09,4.09,4.09
58.58,10.60,6.53,10.60,6.53,-6.53,-6.57,-6.69,4.07,4.07,4.07
59.16,10.56,6.52,10.56,6.52,-6.52,-6.57,-6.71,4.04,4.04,4.04
59.76,10.51,6.50,10.51,6.51,-6.51,-6.56,-6.71,4.00,4.00,4.01
60.35,10.46,6.51,10.46,6.50,-6.50,-6.55,-6.72,3.96,3.96,3.96
60.96,10.40,6.49,10.41,6.49,-6.50,-6.55,-6.72,3.90,3.91,3.91
61.57,10.35,6.49,10.35,6.49,-6.50,-6.54,-6.71,3.86,3.86,3.86
62.18,10.30,6.50,10.30,6.49,-6.49,-6.53,-6.70,3.81,3.81,3.81
62.80,10.25,6.49,10.25,6.49,-6.49,-6.52,-6.68,3.76,3.76,3.76
63.43,10.20,6.48,10.21,6.49,-6.48,-6.51,-6.66,3.72,3.72,3.72
64.07,10.17,6.49,10.17,6.49,-6.48,-6.50,-6.63,3.69,3.69,3.68
64.71,10.12,6.48,10.12,6.48,-6.47,-6.48,-6.59,3.65,3.65,3.64
65.35,10.07,6.46,10.07,6.46,-6.46,-6.47,-6.55,3.61,3.61,3.61
66.01,10.01,6.44,10.02,6.44,-6.45,-6.46,-6.50,3.57,3.57,3.57
66.67,9.96,6.42,9.96,6.43,-6.43,-6.44,-6.45,3.53,3.53,3.54
67.33,9.90,6.41,9.91,6.41,-6.41,-6.43,-6.40,3.49,3.49,3.49
68.01,9.85,6.40,9.85,6.40,-6.39,-6.41,-6.34,3.46,3.45,3.45
68.69,9.79,6.38,9.79,6.38,-6.38,-6.39,-6.27,3.42,3.42,3.41
69.37,9.73,6.36,9.73,6.36,-6.36,-6.37,-6.21,3.37,3.37,3.38
70.07,9.67,6.34,9.67,6.34,-6.34,-6.35,-6.14,3.33,3.33,3.33
70.77,9.61,6.32,9.61,6.32,-6.33,-6.33,-6.07,3.28,3.28,3.29
71.48,9.55,6.31,9.55,6.31,-6.31,-6.31,-6.00,3.24,3.24,3.25
72.19,9.49,6.29,9.49,6.29,-6.30,-6.29,-5.92,3.19,3.20,3.20
72.91,9.44,6.29,9.44,6.29,-6.28,-6.27,-5.85,3.16,3.16,3.15
73.64,9.38,6.27,9.39,6.28,-6.27,-6.24,-5.77,3.11,3.12,3.11
74.38,9.33,6.26,9.33,6.26,-6.25,-6.22,-5.70,3.08,3.07,3.07
75.12,9.27,6.24,9.27,6.24,-6.24,-6.19,-5.63,3.03,3.03,3.03
75.87,9.20,6.20,9.21,6.21,-6.22,-6.16,-5.56,2.98,2.99,3.00
76.63,9.16,6.20,9.16,6.20,-6.20,-6.14,-5.48,2.96,2.96,2.96
77.40,9.11,6.18,9.11,6.18,-6.18,-6.11,-5.42,2.93,2.93,2.93
78.17,9.05,6.16,9.05,6.16,-6.15,-6.08,-5.35,2.90,2.90,2.89
78.95,8.99,6.13,9.00,6.13,-6.13,-6.05,-5.29,2.86,2.87,2.87
79.74,8.94,6.11,8.93,6.10,-6.10,-6.02,-5.22,2.84,2.83,2.83
80.54,8.87,6.07,8.87,6.07,-6.07,-5.98,-5.16,2.80,2.80,2.80
81.35,8.80,6.04,8.81,6.04,-6.04,-5.95,-5.11,2.76,2.77,2.76
82.16,8.74,6.00,8.74,6.00,-6.01,-5.92,-5.05,2.73,2.73,2.74
82.98,8.67,5.97,8.67,5.97,-5.98,-5.88,-5.00,2.70,2.70,2.70
83.81,8.60,5.94,8.60,5.94,-5.94,-5.85,-4.96,2.66,2.66,2.67
84.65,8.53,5.90,8.54,5.91,-5.91,-5.81,-4.91,2.63,2.63,2.63
85.50,8.47,5.88,8.47,5.88,-5.87,-5.77,-4.88,2.60,2.60,2.59
86.35,8.40,5.84,8.40,5.84,-5.84,-5.74,-4.84,2.56,2.56,2.56
87.22,8.33,5.80,8.33,5.80,-5.80,-5.70,-4.81,2.53,2.53,2.53
88.09,8.25,5.76,8.26,5.76,-5.77,-5.66,-4.78,2.49,2.49,2.49
88.97,8.18,5.72,8.18,5.73,-5.73,-5.62,-4.75,2.45,2.46,2.46
89.86,8.11,5.70,8.11,5.69,-5.69,-5.58,-4.73,2.42,2.42,2.42
90.76,8.04,5.66,8.04,5.65,-5.65,-5.54,-4.71,2.39,2.39,2.38
91.66,7.95,5.61,7.96,5.61,-5.61,-5.50,-4.70,2.34,2.35,2.34
92.58,7.88,5.57,7.88,5.57,-5.57,-5.46,-4.68,2.31,2.31,2.31
93.51,7.80,5.53,7.80,5.53,-5.53,-5.41,-4.68,2.27,2.27,2.28
94.44,7.72,5.48,7.73,5.49,-5.50,-5.37,-4.67,2.23,2.23,2.24
95.39,7.65,5.46,7.65,5.45,-5.46,-5.33,-4.67,2.19,2.19,2.20
96.34,7.58,5.43,7.58,5.42,-5.42,-5.28,-4.67,2.16,2.16,2.15
97.30,7.49,5.37,7.50,5.39,-5.38,-5.24,-4.67,2.11,2.12,2.12
98.28,7.42,5.35,7.42,5.35,-5.34,-5.19,-4.68,2.08,2.07,2.07
99.26,7.33,5.31,7.34,5.30,-5.30,-5.15,-4.69,2.03,2.03,2.03
100.25,7.25,5.26,7.26,5.26,-5.26,-5.10,-4.70,1.99,2.00,1.99
101.25,7.18,5.22,7.18,5.22,-5.21,-5.06,-4.72,1.97,1.96,1.96
102.27,7.09,5.16,7.10,5.17,-5.17,-5.01,-4.73,1.93,1.93,1.93
103.29,7.01,5.12,7.01,5.11,-5.12,-4.97,-4.75,1.90,1.89,1.89
104.32,6.92,5.06,6.92,5.06,-5.06,-4.92,-4.77,1.86,1.86,1.87
105.37,6.83,5.00,6.84,5.01,-5.01,-4.87,-4.79,1.82,1.83,1.83
106.42,6.75,4.95,6.75,4.95,-4.95,-4.83,-4.81,1.80,1.80,1.80
107.48,6.66,4.91,6.66,4.90,-4.89,-4.78,-4.83,1.77,1.77,1.76
108.56,6.57,4.84,6.57,4.84,-4.83,-4.73,-4.85,1.74,1.73,1.73
109.64,6.47,4.78,6.47,4.78,-4.77,-4.69,-4.87,1.70,1.70,1.69
110.74,6.37,4.71,6.38,4.72,-4.71,-4.64,-4.89,1.66,1.66,1.66
111.85,6.28,4.66,6.28,4.65,-4.66,-4.60,-4.91,1.63,1.62,1.62
112.97,6.18,4.60,6.18,4.59,-4.60,-4.55,-4.92,1.58,1.58,1.59
114.10,6.08,4.53,6.09,4.54,-4.54,-4.50,-4.94,1.54,1.54,1.55
115.24,6.00,4.50,6.00,4.49,-4.49,-4.46,-4.95,1.51,1.50,1.51
116.39,5.91,4.45,5.91,4.45,-4.45,-4.41,-4.96,1.46,1.46,1.46
117.55,5.83,4.40,5.84,4.41,-4.41,-4.37,-4.96,1.42,1.43,1.43
118.73,5.76,4.38,5.76,4.37,-4.38,-4.32,-4.97,1.39,1.39,1.38
119.92,5.70,4.35,5.70,4.34,-4.35,-4.28,-4.96,1.35,1.35,1.35
121.12,5.64,4.31,5.64,4.32,-4.33,-4.23,-4.96,1.32,1.32,1.33
122.33,5.59,4.31,5.60,4.31,-4.31,-4.19,-4.95,1.28,1.29,1.29
123.55,5.55,4.30,5.55,4.29,-4.30,-4.14,-4.93,1.25,1.25,1.25
124.79,5.51,4.29,5.51,4.29,-4.29,-4.10,-4.91,1.22,1.22,1.22
126.03,5.46,4.28,5.47,4.28,-4.28,-4.06,-4.89,1.18,1.18,1.18
127.29,5.42,4.28,5.42,4.28,-4.28,-4.01,-4.86,1.14,1.15,1.14
128.57,5.38,4.28,5.38,4.27,-4.27,-3.97,-4.83,1.11,1.11,1.10
129.85,5.33,4.27,5.33,4.27,-4.26,-3.93,-4.79,1.07,1.07,1.07
131.15,5.27,4.25,5.28,4.25,-4.25,-3.89,-4.74,1.02,1.03,1.03
132.46,5.23,4.24,5.23,4.24,-4.23,-3.85,-4.70,1.00,0.99,0.99
133.79,5.17,4.22,5.17,4.22,-4.22,-3.81,-4.65,0.96,0.95,0.95
135.12,5.10,4.18,5.11,4.19,-4.19,-3.77,-4.59,0.91,0.92,0.92
136.48,5.05,4.16,5.05,4.16,-4.17,-3.73,-4.53,0.89,0.88,0.89
137.84,4.98,4.12,4.98,4.13,-4.13,-3.69,-4.47,0.85,0.85,0.86
139.22,4.92,4.11,4.92,4.10,-4.10,-3.65,-4.41,0.83,0.82,0.81
140.61,4.84,4.05,4.85,4.06,-4.05,-3.61,-4.34,0.79,0.79,0.79
142.02,4.77,4.01,4.77,4.01,-4.00,-3.58,-4.27,0.77,0.77,0.76
143.44,4.69,3.96,4.69,3.96,-3.95,-3.54,-4.20,0.74,0.74,0.73
144.87,4.60,3.89,4.60,3.90,-3.89,-3.50,-4.13,0.71,0.71,0.71
146.32,4.50,3.82,4.51,3.83,-3.83,-3.47,-4.06,0.67,0.68,0.68
147.78,4.41,3.76,4.41,3.76,-3.76,-3.43,-3.99,0.65,0.65,0.65
149.26,4.31,3.69,4.31,3.69,-3.69,-3.40,-3.91,0.62,0.62,0.62
150.75,4.21,3.63,4.21,3.62,-3.62,-3.36,-3.84,0.59,0.59,0.58
152.26,4.11,3.54,4.12,3.55,-3.55,-3.33,-3.77,0.56,0.56,0.57
153.78,4.02,3.49,4.02,3.48,-3.48,-3.30,-3.70,0.54,0.53,0.53
155.32,3.92,3.41,3.92,3.41,-3.42,-3.26,-3.63,0.50,0.50,0.51
156.88,3.82,3.35,3.83,3.35,-3.35,-3.23,-3.56,0.47,0.47,0.47
158.44,3.73,3.29,3.73,3.29,-3.29,-3.20,-3.49,0.44,0.44,0.44
160.03,3.64,3.23,3.64,3.23,-3.23,-3.17,-3.42,0.41,0.41,0.41
161.63,3.55,3.18,3.55,3.18,-3.18,-3.14,-3.36,0.38,0.37,0.38
163.24,3.46,3.13,3.46,3.12,-3.12,-3.11,-3.29,0.34,0.34,0.34
164.88,3.37,3.07,3.37,3.07,-3.07,-3.08,-3.23,0.30,0.30,0.31
166.53,3.29,3.03,3.29,3.02,-3.02,-3.05,-3.17,0.27,0.27,0.27
168.19,3.20,2.96,3.21,2.97,-2.97,-3.02,-3.11,0.23,0.24,0.24
169.87,3.13,2.93,3.12,2.92,-2.92,-2.99,-3.06,0.21,0.20,0.20
171.57,3.03,2.87,3.04,2.87,-2.87,-2.97,-3.00,0.16,0.16,0.16
173.29,2.95,2.82,2.95,2.83,-2.83,-2.94,-2.95,0.12,0.13,0.13
175.02,2.87,2.78,2.88,2.78,-2.78,-2.91,-2.90,0.09,0.09,0.09
176.77,2.80,2.74,2.80,2.74,-2.74,-2.88,-2.85,0.06,0.06,0.06
178.54,2.73,2.71,2.72,2.70,-2.70,-2.86,-2.81,0.03,0.02,0.02
180.32,2.64,2.66,2.65,2.66,-2.66,-2.83,-2.76,-0.02,-0.02,-0.02
182.13,2.56,2.61,2.57,2.62,-2.62,-2.80,-2.72,-0.06,-0.05,-0.05
183.95,2.51,2.60,2.50,2.59,-2.59,-2.78,-2.68,-0.08,-0.09,-0.08
185.79,2.43,2.56,2.43,2.56,-2.55,-2.75,-2.65,-0.12,-0.12,-0.13
187.65,2.36,2.52,2.36,2.52,-2.52,-2.73,-2.61,-0.16,-0.15,-0.16
189.52,2.29,2.49,2.29,2.48,-2.49,-2.70,-2.58,-0.19,-0.20,-0.20
191.42,2.22,2.45,2.22,2.45,-2.45,-2.68,-2.55,-0.23,-0.23,-0.23
193.33,2.15,2.42,2.16,2.42,-2.42,-2.65,-2.52,-0.27,-0.27,-0.26
195.27,2.09,2.39,2.09,2.39,-2.39,-2.63,-2.49,-0.30,-0.30,-0.30
197.22,2.03,2.37,2.03,2.36,-2.36,-2.61,-2.47,-0.33,-0.34,-0.34
199.19,1.96,2.33,1.97,2.34,-2.34,-2.58,-2.44,-0.37,-0.37,-0.37
201.18,1.90,2.31,1.91,2.31,-2.31,-2.56,-2.42,-0.41,-0.40,-0.40
203.19,1.85,2.28,1.85,2.28,-2.28,-2.53,-2.40,-0.43,-0.43,-0.43
205.23,1.80,2.26,1.80,2.26,-2.25,-2.51,-2.38,-0.45,-0.45,-0.46
207.28,1.74,2.22,1.75,2.23,-2.23,-2.49,-2.36,-0.48,-0.48,-0.48
209.35,1.69,2.21,1.69,2.20,-2.20,-2.46,-2.34,-0.51,-0.51,-0.52
211.44,1.63,2.17,1.63,2.17,-2.17,-2.44,-2.32,-0.54,-0.54,-0.54
213.56,1.58,2.15,1.58,2.14,-2.15,-2.42,-2.31,-0.57,-0.57,-0.56
215.69,1.53,2.12,1.53,2.12,-2.12,-2.39,-2.29,-0.59,-0.59,-0.59
217.85,1.48,2.09,1.49,2.10,-2.10,-2.37,-2.28,-0.62,-0.61,-0.61
220.03,1.44,2.08,1.44,2.08,-2.07,-2.35,-2.26,-0.63,-0.64,-0.64
222.23,1.39,2.06,1.39,2.06,-2.05,-2.32,-2.25,-0.66,-0.66,-0.66
224.45,1.34,2.03,1.35,2.03,-2.03,-2.30,-2.23,-0.69,-0.68,-0.68
226.70,1.30,2.01,1.30,2.00,-2.01,-2.28,-2.22,-0.70,-0.70,-0.71
228.96,1.26,1.98,1.26,1.98,-1.98,-2.25,-2.20,-0.72,-0.72,-0.72
231.25,1.21,1.95,1.22,1.96,-1.96,-2.23,-2.19,-0.75,-0.74,-0.74
233.57,1.18,1.94,1.18,1.94,-1.93,-2.21,-2.17,-0.75,-0.76,-0.76
235.90,1.13,1.91,1.14,1.91,-1.91,-2.18,-2.15,-0.78,-0.77,-0.78
238.26,1.10,1.90,1.10,1.88,-1.88,-2.16,-2.14,-0.78,-0.79,-0.80
240.64,1.05,1.85,1.06,1.86,-1.86,-2.14,-2.12,-0.80,-0.80,-0.80
243.05,1.01,1.83,1.02,1.84,-1.83,-2.11,-2.10,-0.82,-0.81,-0.81
245.48,0.99,1.82,0.98,1.81,-1.81,-2.09,-2.08,-0.82,-0.83,-0.83
247.93,0.94,1.79,0.95,1.79,-1.79,-2.07,-2.06,-0.85,-0.85,-0.85
250.41,0.91,1.76,0.92,1.77,-1.78,-2.04,-2.03,-0.87,-0.87,-0.85
252.92,0.89,1.75,0.90,1.76,-1.77,-2.02,-2.01,-0.88,-0.88,-0.86
255.45,0.89,1.77,0.89,1.76,-1.77,-2.00,-1.98,-0.88,-0.88,-0.87
258.00,0.89,1.77,0.89,1.77,-1.77,-1.97,-1.96,-0.87,-0.87,-0.88
260.58,0.89,1.78,0.89,1.78,-1.77,-1.95,-1.93,-0.87,-0.87,-0.89
263.19,0.89,1.79,0.88,1.78,-1.77,-1.92,-1.90,-0.88,-0.88,-0.89
265.82,0.87,1.77,0.87,1.77,-1.77,-1.90,-1.87,-0.90,-0.90,-0.90
268.48,0.85,1.76,0.86,1.77,-1.77,-1.87,-1.84,-0.92,-0.91,-0.91
271.16,0.85,1.76,0.85,1.76,-1.77,-1.85,-1.80,-0.92,-0.92,-0.91
273.87,0.85,1.77,0.84,1.76,-1.76,-1.82,-1.77,-0.91,-0.92,-0.92
276.61,0.82,1.75,0.83,1.76,-1.76,-1.80,-1.74,-0.93,-0.93,-0.92
279.38,0.81,1.75,0.82,1.75,-1.75,-1.78,-1.70,-0.94,-0.93,-0.94
282.17,0.81,1.75,0.81,1.75,-1.74,-1.75,-1.67,-0.93,-0.93,-0.93
284.99,0.81,1.74,0.81,1.74,-1.73,-1.73,-1.63,-0.92,-0.92,-0.93
287.84,0.81,1.74,0.80,1.73,-1.73,-1.70,-1.59,-0.91,-0.93,-0.92
290.72,0.76,1.70,0.78,1.71,-1.72,-1.67,-1.56,-0.96,-0.94,-0.94
293.63,0.76,1.69,0.76,1.70,-1.71,-1.65,-1.52,-0.95,-0.94,-0.93
296.57,0.76,1.69,0.76,1.69,-1.70,-1.62,-1.48,-0.93,-0.94,-0.93
299.53,0.76,1.69,0.76,1.69,-1.68,-1.60,-1.45,-0.92,-0.92,-0.93
302.53,0.76,1.69,0.76,1.68,-1.67,-1.57,-1.41,-0.91,-0.92,-0.92
305.55,0.73,1.66,0.74,1.66,-1.66,-1.55,-1.37,-0.92,-0.92,-0.93
308.61,0.72,1.64,0.72,1.64,-1.64,-1.52,-1.34,-0.92,-0.92,-0.92
311.69,0.68,1.61,0.69,1.62,-1.62,-1.49,-1.30,-0.94,-0.93,-0.93
314.81,0.68,1.60,0.67,1.59,-1.60,-1.47,-1.26,-0.92,-0.92,-0.92
317.96,0.65,1.57,0.65,1.57,-1.58,-1.44,-1.23,-0.92,-0.92,-0.92
321.14,0.63,1.55,0.64,1.55,-1.55,-1.41,-1.19,-0.92,-0.91,-0.92
324.35,0.61,1.53,0.61,1.52,-1.52,-1.39,-1.16,-0.91,-0.91,-0.92
327.59,0.59,1.49,0.59,1.50,-1.50,-1.36,-1.13,-0.91,-0.91,-0.90
330.87,0.56,1.47,0.57,1.47,-1.47,-1.33,-1.09,-0.91,-0.90,-0.90
334.18,0.55,1.46,0.54,1.45,-1.45,-1.31,-1.06,-0.89,-0.90,-0.91
337.52,0.51,1.41,0.52,1.42,-1.42,-1.28,-1.03,-0.91,-0.90,-0.90
340.90,0.50,1.39,0.50,1.39,-1.39,-1.25,-1.00,-0.89,-0.89,-0.89
344.30,0.47,1.36,0.48,1.36,-1.37,-1.23,-0.97,-0.89,-0.89,-0.88
347.75,0.46,1.34,0.46,1.34,-1.34,-1.20,-0.94,-0.88,-0.88,-0.88
351.23,0.43,1.31,0.44,1.31,-1.31,-1.17,-0.91,-0.88,-0.87,-0.88
354.74,0.42,1.28,0.42,1.29,-1.28,-1.14,-0.88,-0.86,-0.86,-0.86
358.28,0.40,1.27,0.40,1.26,-1.26,-1.12,-0.85,-0.86,-0.86,-0.86
361.87,0.38,1.24,0.38,1.23,-1.23,-1.09,-0.82,-0.85,-0.85,-0.86
365.49,0.35,1.20,0.36,1.20,-1.21,-1.06,-0.79,-0.85,-0.85,-0.85
369.14,0.33,1.17,0.33,1.17,-1.18,-1.03,-0.77,-0.85,-0.85,-0.84
372.83,0.32,1.15,0.32,1.15,-1.15,-1.00,-0.74,-0.83,-0.84,-0.83
376.56,0.29,1.12,0.30,1.13,-1.13,-0.98,-0.72,-0.83,-0.83,-0.83
380.33,0.29,1.12,0.28,1.11,-1.10,-0.95,-0.69,-0.81,-0.82,-0.82
384.13,0.25,1.07,0.26,1.07,-1.07,-0.92,-0.67,-0.82,-0.82,-0.82
387.97,0.24,1.05,0.24,1.05,-1.05,-0.89,-0.64,-0.81,-0.81,-0.81
391.85,0.21,1.01,0.22,1.02,-1.02,-0.86,-0.62,-0.81,-0.81,-0.80
395.77,0.20,1.00,0.20,0.99,-0.99,-0.84,-0.60,-0.79,-0.79,-0.80
399.73,0.17,0.96,0.18,0.97,-0.96,-0.81,-0.58,-0.79,-0.79,-0.79
403.72,0.16,0.94,0.16,0.94,-0.94,-0.78,-0.56,-0.77,-0.78,-0.77
407.76,0.13,0.91,0.13,0.90,-0.91,-0.75,-0.53,-0.78,-0.78,-0.77
411.84,0.11,0.88,0.11,0.88,-0.88,-0.72,-0.51,-0.77,-0.77,-0.77
415.96,0.08,0.84,0.09,0.85,-0.85,-0.69,-0.49,-0.77,-0.76,-0.76
420.12,0.07,0.83,0.07,0.82,-0.82,-0.67,-0.47,-0.75,-0.75,-0.76
424.32,0.05,0.80,0.05,0.79,-0.79,-0.64,-0.45,-0.74,-0.74,-0.75
428.56,0.03,0.76,0.03,0.77,-0.76,-0.61,-0.43,-0.73,-0.73,-0.73
432.85,0.00,0.72,0.01,0.73,-0.73,-0.58,-0.41,-0.73,-0.73,-0.72
437.18,-0.02,0.70,-0.02,0.70,-0.71,-0.55,-0.40,-0.72,-0.72,-0.72
441.55,-0.04,0.68,-0.04,0.67,-0.67,-0.52,-0.38,-0.71,-0.71,-0.71
445.96,-0.06,0.65,-0.06,0.65,-0.64,-0.50,-0.36,-0.70,-0.70,-0.70
450.42,-0.09,0.61,-0.08,0.61,-0.61,-0.47,-0.34,-0.70,-0.69,-0.70
454.93,-0.10,0.59,-0.10,0.58,-0.58,-0.44,-0.32,-0.68,-0.68,-0.69
459.48,-0.13,0.55,-0.13,0.55,-0.55,-0.41,-0.31,-0.67,-0.67,-0.68
464.07,-0.15,0.51,-0.15,0.51,-0.51,-0.38,-0.29,-0.66,-0.66,-0.66
468.71,-0.18,0.47,-0.17,0.48,-0.48,-0.35,-0.27,-0.66,-0.65,-0.65
473.40,-0.19,0.45,-0.19,0.45,-0.45,-0.33,-0.25,-0.64,-0.64,-0.64
478.13,-0.22,0.41,-0.21,0.42,-0.42,-0.30,-0.24,-0.63,-0.63,-0.63
482.91,-0.23,0.39,-0.23,0.39,-0.38,-0.27,-0.22,-0.61,-0.62,-0.62
487.74,-0.27,0.34,-0.26,0.35,-0.35,-0.24,-0.20,-0.62,-0.61,-0.61
492.62,-0.28,0.32,-0.28,0.32,-0.32,-0.21,-0.19,-0.60,-0.60,-0.60
497.55,-0.31,0.28,-0.30,0.29,-0.29,-0.19,-0.17,-0.60,-0.59,-0.59
