frequency,raw,error,smoothed,error_smoothed,equalization,parametric_eq,fixed_band_eq,equalized_raw,equalized_smoothed,target
20.00,-12.21,-18.46,-12.21,-18.46,6.00,5.62,2.71,-6.21,-6.21,6.25
20.20,-12.09,-18.34,-12.09,-18.35,6.00,5.64,2.78,-6.09,-6.09,6.25
20.40,-11.97,-18.23,-11.97,-18.23,6.00,5.67,2.86,-5.97,-5.97,6.26
20.61,-11.85,-18.12,-11.85,-18.12,6.00,5.69,2.94,-5.85,-5.85,6.27
20.81,-11.73,-18.00,-11.73,-18.00,6.00,5.71,3.03,-5.73,-5.73,6.27
21.02,-11.61,-17.89,-11.61,-17.89,6.00,5.73,3.11,-5.61,-5.61,6.28
21.23,-11.49,-17.77,-11.48,-17.77,6.00,5.75,3.20,-5.49,-5.48,6.28
21.44,-11.35,-17.65,-11.36,-17.65,6.00,5.77,3.29,-5.35,-5.36,6.29
21.66,-11.24,-17.54,-11.24,-17.54,6.00,5.79,3.38,-5.24,-5.24,6.30
21.87,-11.11,-17.42,-11.11,-17.42,6.00,5.81,3.48,-5.11,-5.11,6.30
22.09,-10.99,-17.31,-10.99,-17.31,6.00,5.83,3.58,-4.99,-4.99,6.31
22.31,-10.86,-17.19,-10.87,-17.19,6.00,5.85,3.68,-4.86,-4.87,6.32
22.54,-10.75,-17.07,-10.74,-17.07,6.00,5.87,3.79,-4.75,-4.74,6.32
22.76,-10.62,-16.95,-10.62,-16.95,6.00,5.88,3.89,-4.62,-4.62,6.33
22.99,-10.50,-16.84,-10.49,-16.83,6.00,5.90,4.00,-4.50,-4.49,6.34
23.22,-10.37,-16.72,-10.37,-16.72,6.00,5.92,4.11,-4.37,-4.37,6.35
23.45,-10.25,-16.61,-10.24,-16.61,6.00,5.93,4.23,-4.25,-4.24,6.36
23.69,-10.12,-16.49,-10.12,-16.49,6.00,5.95,4.35,-4.12,-4.12,6.37
23.92,-9.99,-16.37,-9.99,-16.37,6.00,5.97,4.47,-3.99,-3.99,6.38
24.16,-9.87,-16.25,-9.87,-16.26,6.00,5.98,4.59,-3.87,-3.87,6.39
24.40,-9.74,-16.14,-9.74,-16.14,6.00,6.00,4.71,-3.74,-3.74,6.40
24.65,-9.62,-16.04,-9.62,-16.03,6.00,6.01,4.84,-3.62,-3.62,6.42
24.89,-9.48,-15.91,-9.49,-15.92,6.00,6.03,4.97,-3.48,-3.49,6.43
25.14,-9.36,-15.80,-9.36,-15.80,6.00,6.04,5.09,-3.36,-3.36,6.44
25.39,-9.23,-15.68,-9.24,-15.68,6.00,6.05,5.23,-3.23,-3.24,6.45
25.65,-9.11,-15.56,-9.11,-15.57,6.00,6.06,5.36,-3.11,-3.11,6.46
25.91,-8.99,-15.46,-8.98,-15.46,6.00,6.08,5.49,-2.99,-2.98,6.48
26.16,-8.85,-15.34,-8.86,-15.34,6.00,6.09,5.62,-2.85,-2.86,6.49
26.43,-8.73,-15.22,-8.73,-15.22,6.00,6.10,5.75,-2.73,-2.73,6.49
26.69,-8.60,-15.10,-8.60,-15.10,6.00,6.11,5.88,-2.60,-2.60,6.50
26.96,-8.47,-14.99,-8.47,-14.99,6.00,6.12,6.01,-2.47,-2.47,6.52
27.23,-8.34,-14.87,-8.34,-14.87,6.00,6.13,6.14,-2.34,-2.34,6.53
27.50,-8.21,-14.76,-8.21,-14.76,6.00,6.14,6.26,-2.21,-2.21,6.55
27.77,-8.07,-14.64,-8.08,-14.64,6.00,6.15,6.38,-2.07,-2.08,6.56
28.05,-7.96,-14.54,-7.95,-14.53,6.00,6.16,6.50,-1.96,-1.95,6.58
28.33,-7.83,-14.41,-7.82,-14.42,6.00,6.17,6.61,-1.83,-1.82,6.59
28.62,-7.70,-14.31,-7.70,-14.30,6.00,6.18,6.72,-1.70,-1.70,6.61
28.90,-7.57,-14.18,-7.57,-14.19,6.00,6.18,6.82,-1.57,-1.57,6.62
29.19,-7.45,-14.08,-7.44,-14.08,6.00,6.19,6.91,-1.45,-1.44,6.64
29.48,-7.32,-13.96,-7.31,-13.96,6.00,6.20,7.00,-1.32,-1.31,6.65
29.78,-7.19,-13.85,-7.19,-13.85,6.00,6.20,7.07,-1.19,-1.19,6.66
30.08,-7.07,-13.74,-7.07,-13.74,6.00,6.21,7.14,-1.07,-1.07,6.67
30.38,-6.95,-13.64,-6.95,-13.64,6.00,6.21,7.20,-0.95,-0.95,6.69
30.68,-6.83,-13.53,-6.83,-13.53,6.00,6.22,7.25,-0.83,-0.83,6.70
30.99,-6.72,-13.44,-6.71,-13.43,6.00,6.22,7.29,-0.72,-0.71,6.72
31.30,-6.60,-13.33,-6.60,-13.33,6.00,6.23,7.31,-0.60,-0.60,6.73
31.61,-6.48,-13.22,-6.48,-13.23,6.00,6.23,7.33,-0.48,-0.48,6.75
31.93,-6.36,-13.11,-6.36,-13.12,6.00,6.23,7.34,-0.36,-0.36,6.76
32.24,-6.23,-13.01,-6.23,-13.01,6.00,6.23,7.34,-0.23,-0.23,6.78
32.57,-6.11,-12.89,-6.11,-12.90,6.00,6.24,7.32,-0.11,-0.11,6.78
32.89,-5.99,-12.79,-5.99,-12.79,6.00,6.24,7.30,0.01,0.01,6.80
33.22,-5.87,-12.68,-5.86,-12.67,6.00,6.24,7.27,0.13,0.14,6.81
33.55,-5.73,-12.56,-5.74,-12.57,6.00,6.24,7.23,0.27,0.26,6.83
33.89,-5.62,-12.45,-5.62,-12.46,6.00,6.24,7.19,0.38,0.38,6.84
34.23,-5.50,-12.35,-5.50,-12.35,6.00,6.24,7.14,0.50,0.50,6.86
34.57,-5.38,-12.24,-5.38,-12.24,6.00,6.24,7.08,0.62,0.62,6.86
34.92,-5.27,-12.14,-5.26,-12.14,6.00,6.24,7.02,0.73,0.74,6.87
35.27,-5.15,-12.04,-5.15,-12.03,6.00,6.24,6.95,0.85,0.85,6.89
35.62,-5.03,-11.93,-5.03,-11.93,6.00,6.23,6.89,0.97,0.97,6.90
35.97,-4.90,-11.81,-4.91,-11.81,6.00,6.23,6.81,1.10,1.09,6.91
36.33,-4.78,-11.70,-4.79,-11.70,6.00,6.23,6.74,1.22,1.21,6.91
36.70,-4.67,-11.59,-4.66,-11.59,6.00,6.23,6.67,1.33,1.34,6.92
37.06,-4.54,-11.47,-4.55,-11.48,6.00,6.22,6.59,1.46,1.45,6.93
37.43,-4.42,-11.36,-4.43,-11.37,6.00,6.22,6.52,1.58,1.57,6.94
37.81,-4.32,-11.26,-4.31,-11.26,6.00,6.21,6.44,1.68,1.69,6.94
38.19,-4.20,-11.15,-4.20,-11.15,6.00,6.21,6.37,1.80,1.80,6.95
38.57,-4.09,-11.05,-4.08,-11.04,6.00,6.20,6.30,1.91,1.92,6.96
38.95,-3.96,-10.93,-3.97,-10.94,6.00,6.20,6.23,2.04,2.03,6.97
39.34,-3.85,-10.83,-3.86,-10.83,6.00,6.19,6.17,2.15,2.14,6.97
39.74,-3.75,-10.73,-3.74,-10.72,6.00,6.18,6.10,2.25,2.26,6.98
40.14,-3.63,-10.60,-3.63,-10.61,6.00,6.18,6.04,2.37,2.37,6.98
40.54,-3.52,-10.50,-3.52,-10.50,6.00,6.17,5.98,2.48,2.48,6.98
40.94,-3.41,-10.40,-3.41,-10.39,6.00,6.16,5.93,2.59,2.59,6.99
41.35,-3.30,-10.29,-3.30,-10.29,6.00,6.15,5.88,2.70,2.70,7.00
41.76,-3.18,-10.19,-3.19,-10.19,6.00,6.14,5.84,2.82,2.81,7.00
42.18,-3.08,-10.08,-3.07,-10.08,6.00,6.13,5.79,2.92,2.93,7.01
42.60,-2.96,-9.98,-2.96,-9.98,6.00,6.12,5.76,3.04,3.04,7.02
43.03,-2.85,-9.87,-2.85,-9.87,6.00,6.11,5.72,3.15,3.15,7.02
43.46,-2.74,-9.76,-2.74,-9.77,6.00,6.10,5.69,3.26,3.26,7.03
43.90,-2.64,-9.67,-2.63,-9.66,6.00,6.09,5.67,3.36,3.37,7.03
44.33,-2.52,-9.56,-2.52,-9.56,6.00,6.08,5.65,3.48,3.48,7.05
44.78,-2.41,-9.46,-2.41,-9.46,6.00,6.07,5.63,3.59,3.59,7.05
45.23,-2.30,-9.35,-2.30,-9.36,6.00,6.06,5.62,3.70,3.70,7.06
45.68,-2.19,-9.26,-2.19,-9.26,6.00,6.04,5.61,3.81,3.81,7.07
46.13,-2.09,-9.16,-2.08,-9.16,6.00,6.03,5.61,3.91,3.92,7.08
46.60,-1.98,-9.07,-1.98,-9.07,6.00,6.02,5.61,4.02,4.02,7.09
47.06,-1.88,-8.97,-1.87,-8.97,6.00,6.00,5.61,4.12,4.13,7.09
47.53,-1.77,-8.87,-1.77,-8.88,6.00,5.99,5.62,4.23,4.23,7.11
48.01,-1.67,-8.78,-1.67,-8.78,6.00,5.98,5.63,4.33,4.33,7.11
48.49,-1.57,-8.69,-1.57,-8.69,6.00,5.96,5.65,4.43,4.43,7.13
48.97,-1.47,-8.59,-1.47,-8.60,6.00,5.95,5.67,4.53,4.53,7.13
49.46,-1.37,-8.51,-1.37,-8.50,6.00,5.93,5.69,4.63,4.63,7.14
49.96,-1.27,-8.41,-1.27,-8.41,6.00,5.91,5.72,4.73,4.73,7.14
50.46,-1.17,-8.31,-1.17,-8.32,6.00,5.90,5.74,4.83,4.83,7.15
50.96,-1.08,-8.23,-1.07,-8.23,6.00,5.88,5.78,4.92,4.93,7.16
51.47,-0.98,-8.14,-0.97,-8.13,6.00,5.87,5.81,5.02,5.03,7.16
51.99,-0.88,-8.04,-0.88,-8.04,6.00,5.85,5.84,5.12,5.12,7.16
52.51,-0.79,-7.95,-0.79,-7.95,6.00,5.83,5.88,5.21,5.21,7.16
53.03,-0.71,-7.87,-0.70,-7.87,6.00,5.81,5.91,5.29,5.30,7.16
53.56,-0.62,-7.79,-0.62,-7.79,6.00,5.79,5.95,5.38,5.38,7.17
54.10,-0.54,-7.71,-0.53,-7.71,6.00,5.78,5.99,5.46,5.47,7.18
54.64,-0.45,-7.62,-0.45,-7.62,6.00,5.76,6.03,5.55,5.55,7.18
55.18,-0.38,-7.54,-0.38,-7.55,6.00,5.74,6.06,5.62,5.62,7.16
55.74,-0.31,-7.47,-0.30,-7.47,6.00,5.72,6.10,5.69,5.70,7.16
56.29,-0.24,-7.40,-0.23,-7.39,6.00,5.70,6.13,5.76,5.77,7.16
56.86,-0.16,-7.31,-0.16,-7.31,6.00,5.68,6.16,5.84,5.84,7.15
57.42,-0.08,-7.22,-0.08,-7.23,6.00,5.66,6.19,5.92,5.92,7.15
58.00,-0.01,-7.14,-0.01,-7.15,6.00,5.64,6.21,5.99,5.99,7.14
58.58,0.05,-7.08,0.06,-7.07,6.00,5.62,6.23,6.05,6.06,7.13
59.16,0.12,-7.00,0.12,-7.00,6.00,5.60,6.25,6.12,6.12,7.12
59.76,0.18,-6.92,0.19,-6.92,6.00,5.58,6.26,6.18,6.19,7.11
60.35,0.25,-6.84,0.25,-6.84,6.00,5.55,6.26,6.25,6.25,7.09
60.96,0.31,-6.77,0.31,-6.76,6.00,5.53,6.26,6.31,6.31,7.08
61.57,0.37,-6.69,0.38,-6.68,6.00,5.51,6.25,6.37,6.38,7.06
62.18,0.44,-6.60,0.44,-6.61,6.00,5.49,6.24,6.44,6.44,7.05
62.80,0.50,-6.53,0.50,-6.53,6.00,5.46,6.22,6.51,6.50,7.03
63.43,0.55,-6.46,0.56,-6.45,6.01,5.44,6.20,6.56,6.57,7.02
64.07,0.61,-6.38,0.61,-6.38,6.01,5.42,6.17,6.63,6.62,6.99
64.71,0.66,-6.31,0.67,-6.31,6.02,5.40,6.13,6.68,6.68,6.97
65.35,0.72,-6.23,0.72,-6.23,6.01,5.37,6.09,6.73,6.73,6.95
66.01,0.78,-6.15,0.79,-6.15,5.99,5.35,6.04,6.78,6.78,6.93
66.67,0.85,-6.06,0.85,-6.06,5.97,5.33,5.99,6.82,6.82,6.92
67.33,0.91,-5.98,0.91,-5.98,5.93,5.30,5.93,6.85,6.85,6.90
68.01,0.97,-5.89,0.97,-5.89,5.88,5.28,5.87,6.86,6.86,6.87
68.69,1.03,-5.81,1.03,-5.81,5.82,5.25,5.80,6.86,6.85,6.85
69.37,1.08,-5.74,1.09,-5.74,5.75,5.23,5.73,6.84,6.84,6.82
70.07,1.14,-5.66,1.14,-5.66,5.67,5.20,5.66,6.82,6.81,6.80
70.77,1.19,-5.59,1.20,-5.58,5.59,5.18,5.59,6.78,6.79,6.78
71.48,1.25,-5.50,1.25,-5.50,5.51,5.15,5.51,6.76,6.76,6.76
72.19,1.31,-5.42,1.31,-5.42,5.42,5.13,5.44,6.74,6.74,6.73
72.91,1.36,-5.35,1.37,-5.35,5.35,5.10,5.36,6.71,6.72,6.72
73.64,1.42,-5.27,1.42,-5.27,5.28,5.08,5.28,6.70,6.70,6.69
74.38,1.47,-5.20,1.47,-5.20,5.20,5.05,5.20,6.68,6.68,6.68
75.12,1.52,-5.13,1.52,-5.13,5.13,5.03,5.12,6.66,6.66,6.65
75.87,1.56,-5.07,1.57,-5.07,5.07,5.00,5.04,6.63,6.64,6.64
76.63,1.61,-5.00,1.62,-5.00,5.00,4.98,4.97,6.62,6.62,6.62
77.40,1.66,-4.94,1.66,-4.94,4.94,4.95,4.89,6.60,6.60,6.60
78.17,1.70,-4.88,1.70,-4.88,4.88,4.93,4.82,6.58,6.58,6.58
78.95,1.73,-4.83,1.74,-4.83,4.82,4.90,4.74,6.56,6.56,6.56
79.74,1.77,-4.77,1.77,-4.77,4.77,4.87,4.68,6.55,6.55,6.54
80.54,1.80,-4.72,1.80,-4.72,4.72,4.85,4.61,6.53,6.53,6.52
81.35,1.83,-4.67,1.83,-4.67,4.68,4.82,4.54,6.51,6.51,6.50
82.16,1.84,-4.64,1.85,-4.63,4.64,4.80,4.48,6.48,6.48,6.48
82.98,1.86,-4.60,1.86,-4.60,4.60,4.77,4.42,6.46,6.46,6.46
83.81,1.86,-4.57,1.87,-4.57,4.57,4.74,4.36,6.43,6.43,6.44
84.65,1.87,-4.54,1.88,-4.54,4.54,4.72,4.31,6.41,6.41,6.42
85.50,1.88,-4.51,1.88,-4.51,4.51,4.69,4.26,6.39,6.39,6.39
86.35,1.89,-4.47,1.89,-4.48,4.49,4.67,4.21,6.38,6.38,6.37
87.22,1.88,-4.46,1.88,-4.46,4.47,4.64,4.16,6.35,6.35,6.34
88.09,1.87,-4.44,1.88,-4.45,4.45,4.61,4.12,6.32,6.32,6.32
88.97,1.86,-4.44,1.87,-4.43,4.43,4.59,4.08,6.29,6.29,6.30
89.86,1.86,-4.41,1.86,-4.41,4.41,4.56,4.05,6.27,6.27,6.28
90.76,1.86,-4.39,1.86,-4.39,4.39,4.54,4.01,6.25,6.25,6.25
91.66,1.86,-4.37,1.86,-4.37,4.37,4.51,3.98,6.23,6.23,6.23
92.58,1.86,-4.34,1.86,-4.34,4.35,4.48,3.96,6.21,6.21,6.21
93.51,1.86,-4.32,1.86,-4.32,4.32,4.46,3.93,6.19,6.19,6.18
94.44,1.86,-4.30,1.86,-4.30,4.30,4.43,3.91,6.16,6.16,6.16
95.39,1.86,-4.27,1.86,-4.27,4.27,4.41,3.89,6.14,6.14,6.14
96.34,1.86,-4.25,1.86,-4.25,4.25,4.38,3.88,6.11,6.11,6.12
97.30,1.86,-4.22,1.86,-4.22,4.22,4.36,3.87,6.09,6.09,6.09
98.28,1.86,-4.20,1.86,-4.20,4.20,4.33,3.86,6.06,6.06,6.06
99.26,1.86,-4.17,1.86,-4.17,4.17,4.31,3.85,6.04,6.04,6.03
100.25,1.86,-4.15,1.86,-4.15,4.14,4.28,3.84,6.01,6.01,6.01
101.25,1.86,-4.12,1.86,-4.12,4.12,4.26,3.84,5.98,5.98,5.98
102.27,1.86,-4.09,1.86,-4.09,4.09,4.23,3.83,5.95,5.95,5.95
103.29,1.86,-4.05,1.86,-4.05,4.05,4.21,3.83,5.92,5.92,5.91
104.32,1.86,-4.02,1.86,-4.02,4.02,4.18,3.83,5.89,5.89,5.88
105.37,1.86,-3.99,1.86,-3.99,3.99,4.16,3.84,5.85,5.85,5.86
106.42,1.86,-3.95,1.86,-3.95,3.95,4.13,3.84,5.82,5.82,5.82
107.48,1.86,-3.91,1.86,-3.91,3.91,4.11,3.84,5.78,5.78,5.78
108.56,1.86,-3.87,1.86,-3.87,3.87,4.09,3.85,5.74,5.74,5.74
109.64,1.86,-3.83,1.86,-3.83,3.83,4.06,3.85,5.69,5.69,5.70
110.74,1.86,-3.80,1.87,-3.79,3.79,4.04,3.86,5.65,5.65,5.66
111.85,1.87,-3.75,1.87,-3.75,3.74,4.02,3.86,5.61,5.61,5.62
112.97,1.87,-3.70,1.88,-3.70,3.70,3.99,3.87,5.57,5.57,5.57
114.10,1.88,-3.65,1.88,-3.65,3.65,3.97,3.87,5.54,5.53,5.53
115.24,1.88,-3.60,1.88,-3.61,3.61,3.95,3.87,5.49,5.49,5.48
116.39,1.87,-3.57,1.88,-3.57,3.57,3.93,3.87,5.45,5.45,5.45
117.55,1.86,-3.53,1.87,-3.53,3.54,3.90,3.87,5.40,5.41,5.40
118.73,1.85,-3.51,1.85,-3.51,3.51,3.88,3.87,5.37,5.36,5.36
119.92,1.82,-3.49,1.83,-3.49,3.49,3.86,3.87,5.32,5.32,5.31
121.12,1.79,-3.48,1.80,-3.48,3.48,3.84,3.86,5.28,5.28,5.28
122.33,1.77,-3.47,1.77,-3.47,3.47,3.82,3.86,5.25,5.24,5.24
123.55,1.74,-3.46,1.74,-3.47,3.47,3.80,3.85,5.21,5.21,5.21
124.79,1.70,-3.47,1.71,-3.46,3.46,3.78,3.83,5.17,5.17,5.17
126.03,1.66,-3.47,1.67,-3.46,3.46,3.76,3.82,5.13,5.14,5.14
127.29,1.64,-3.46,1.64,-3.46,3.46,3.74,3.80,5.10,5.10,5.10
128.57,1.61,-3.45,1.61,-3.46,3.46,3.72,3.78,5.07,5.06,5.07
129.85,1.57,-3.46,1.58,-3.45,3.45,3.70,3.76,5.02,5.03,5.03
131.15,1.55,-3.45,1.56,-3.44,3.43,3.68,3.74,4.99,4.99,5.00
132.46,1.54,-3.42,1.54,-3.43,3.41,3.66,3.71,4.96,4.96,4.97
133.79,1.54,-3.40,1.54,-3.40,3.39,3.64,3.68,4.93,4.93,4.95
135.12,1.54,-3.37,1.54,-3.37,3.37,3.62,3.65,4.91,4.91,4.91
136.48,1.54,-3.34,1.54,-3.34,3.34,3.60,3.62,4.89,4.89,4.88
137.84,1.54,-3.31,1.54,-3.31,3.32,3.58,3.59,4.87,4.87,4.85
139.22,1.53,-3.29,1.53,-3.29,3.31,3.57,3.56,4.84,4.84,4.82
140.61,1.52,-3.27,1.52,-3.28,3.29,3.55,3.52,4.82,4.81,4.79
142.02,1.48,-3.29,1.49,-3.28,3.28,3.53,3.49,4.77,4.77,4.78
143.44,1.46,-3.28,1.46,-3.29,3.28,3.52,3.45,4.74,4.74,4.75
144.87,1.42,-3.30,1.43,-3.29,3.28,3.50,3.42,4.70,4.71,4.72
146.32,1.40,-3.28,1.40,-3.28,3.28,3.48,3.38,4.68,4.68,4.68
147.78,1.37,-3.28,1.37,-3.29,3.28,3.47,3.35,4.66,4.65,4.66
149.26,1.34,-3.29,1.35,-3.29,3.29,3.45,3.31,4.63,4.63,4.63
150.75,1.31,-3.29,1.32,-3.29,3.29,3.44,3.28,4.60,4.61,4.61
152.26,1.29,-3.29,1.29,-3.29,3.29,3.42,3.25,4.59,4.59,4.58
153.78,1.26,-3.28,1.26,-3.29,3.30,3.41,3.22,4.56,4.56,4.55
155.32,1.23,-3.29,1.23,-3.30,3.30,3.39,3.19,4.54,4.53,4.53
156.88,1.18,-3.32,1.19,-3.31,3.30,3.38,3.16,4.49,4.50,4.50
158.44,1.16,-3.32,1.16,-3.32,3.31,3.36,3.13,4.47,4.46,4.48
160.03,1.12,-3.33,1.13,-3.32,3.31,3.35,3.10,4.43,4.44,4.45
161.63,1.11,-3.31,1.11,-3.31,3.30,3.34,3.08,4.42,4.42,4.43
163.24,1.10,-3.29,1.10,-3.30,3.31,3.32,3.06,4.41,4.40,4.40
164.88,1.07,-3.30,1.08,-3.30,3.31,3.31,3.04,4.38,4.39,4.38
166.53,1.05,-3.30,1.05,-3.30,3.31,3.30,3.02,4.37,4.36,4.35
168.19,1.01,-3.31,1.01,-3.31,3.32,3.28,3.00,4.34,4.33,4.32
169.87,0.96,-3.33,0.97,-3.32,3.34,3.27,2.99,4.30,4.30,4.29
171.57,0.91,-3.35,0.92,-3.35,3.35,3.26,2.98,4.26,4.26,4.26
173.29,0.87,-3.36,0.86,-3.37,3.36,3.25,2.97,4.24,4.23,4.24
175.02,0.80,-3.41,0.81,-3.39,3.38,3.24,2.96,4.18,4.19,4.21
176.77,0.77,-3.40,0.78,-3.40,3.39,3.23,2.95,4.16,4.16,4.17
178.54,0.74,-3.41,0.74,-3.40,3.39,3.22,2.95,4.14,4.14,4.15
180.32,0.72,-3.39,0.72,-3.40,3.40,3.21,2.95,4.12,4.12,4.11
182.13,0.69,-3.40,0.69,-3.39,3.40,3.20,2.95,4.10,4.10,4.09
183.95,0.66,-3.39,0.66,-3.39,3.41,3.19,2.96,4.07,4.07,4.06
185.79,0.62,-3.40,0.62,-3.40,3.41,3.18,2.96,4.04,4.04,4.02
187.65,0.58,-3.41,0.58,-3.41,3.42,3.17,2.97,4.00,4.00,4.00
189.52,0.53,-3.43,0.54,-3.43,3.43,3.16,2.98,3.96,3.96,3.97
191.42,0.49,-3.44,0.49,-3.44,3.43,3.15,2.99,3.93,3.93,3.93
193.33,0.45,-3.45,0.45,-3.45,3.44,3.14,3.00,3.89,3.89,3.90
195.27,0.42,-3.45,0.42,-3.45,3.45,3.13,3.02,3.87,3.87,3.88
197.22,0.39,-3.45,0.40,-3.45,3.45,3.12,3.03,3.84,3.84,3.85
199.19,0.37,-3.44,0.37,-3.44,3.45,3.11,3.05,3.82,3.82,3.82
201.18,0.34,-3.43,0.34,-3.44,3.45,3.11,3.07,3.79,3.79,3.78
203.19,0.31,-3.43,0.31,-3.43,3.44,3.10,3.09,3.76,3.76,3.75
205.23,0.28,-3.43,0.29,-3.43,3.43,3.09,3.12,3.72,3.72,3.72
207.28,0.26,-3.42,0.26,-3.42,3.42,3.08,3.14,3.68,3.68,3.69
209.35,0.24,-3.41,0.24,-3.41,3.40,3.08,3.16,3.65,3.64,3.66
211.44,0.22,-3.39,0.23,-3.39,3.38,3.07,3.18,3.60,3.61,3.62
213.56,0.22,-3.37,0.22,-3.36,3.35,3.06,3.21,3.58,3.58,3.59
215.69,0.22,-3.33,0.23,-3.32,3.32,3.06,3.23,3.55,3.55,3.55
217.85,0.23,-3.28,0.23,-3.28,3.29,3.05,3.26,3.52,3.52,3.51
220.03,0.24,-3.24,0.24,-3.24,3.25,3.04,3.28,3.50,3.49,3.49
222.23,0.24,-3.21,0.24,-3.21,3.22,3.04,3.30,3.46,3.46,3.46
224.45,0.24,-3.18,0.24,-3.18,3.18,3.03,3.32,3.43,3.43,3.42
226.70,0.24,-3.15,0.24,-3.15,3.15,3.03,3.34,3.40,3.40,3.39
228.96,0.24,-3.12,0.24,-3.12,3.12,3.02,3.36,3.37,3.37,3.37
231.25,0.24,-3.10,0.24,-3.10,3.10,3.02,3.38,3.34,3.34,3.34
233.57,0.24,-3.08,0.24,-3.08,3.08,3.01,3.39,3.32,3.32,3.33
235.90,0.24,-3.06,0.24,-3.06,3.06,3.01,3.41,3.30,3.30,3.30
238.26,0.24,-3.04,0.24,-3.04,3.04,3.00,3.42,3.28,3.28,3.28
240.64,0.24,-3.02,0.24,-3.02,3.02,2.99,3.42,3.27,3.27,3.27
243.05,0.24,-3.01,0.24,-3.01,3.01,2.99,3.43,3.25,3.25,3.25
245.48,0.24,-2.99,0.24,-2.99,2.99,2.98,3.43,3.24,3.24,3.24
247.93,0.24,-2.98,0.24,-2.98,2.98,2.98,3.42,3.22,3.22,3.22
250.41,0.24,-2.96,0.24,-2.96,2.96,2.98,3.42,3.21,3.21,3.21
252.92,0.24,-2.95,0.24,-2.95,2.95,2.97,3.41,3.19,3.19,3.19
255.45,0.24,-2.93,0.24,-2.94,2.94,2.97,3.40,3.18,3.18,3.18
258.00,0.24,-2.92,0.24,-2.92,2.93,2.96,3.38,3.17,3.17,3.16
260.58,0.24,-2.92,0.24,-2.91,2.91,2.96,3.37,3.16,3.16,3.16
263.19,0.24,-2.90,0.24,-2.90,2.90,2.95,3.35,3.14,3.14,3.15
265.82,0.24,-2.89,0.24,-2.89,2.89,2.95,3.32,3.13,3.13,3.13
268.48,0.24,-2.88,0.24,-2.88,2.87,2.94,3.30,3.12,3.12,3.12
271.16,0.24,-2.86,0.24,-2.86,2.86,2.94,3.27,3.10,3.10,3.11
273.87,0.24,-2.85,0.25,-2.85,2.84,2.93,3.24,3.08,3.09,3.09
276.61,0.25,-2.82,0.25,-2.83,2.82,2.93,3.21,3.08,3.07,3.08
279.38,0.25,-2.81,0.26,-2.81,2.81,2.92,3.17,3.06,3.07,3.07
282.17,0.26,-2.79,0.26,-2.79,2.79,2.92,3.14,3.06,3.06,3.05
284.99,0.26,-2.78,0.26,-2.78,2.78,2.92,3.10,3.05,3.05,3.04
287.84,0.25,-2.77,0.26,-2.77,2.78,2.91,3.06,3.03,3.03,3.03
290.72,0.24,-2.77,0.24,-2.77,2.78,2.91,3.02,3.02,3.02,3.01
293.63,0.22,-2.78,0.22,-2.78,2.78,2.90,2.99,3.00,3.01,3.00
296.57,0.20,-2.79,0.20,-2.79,2.79,2.90,2.95,2.99,2.99,2.99
299.53,0.17,-2.80,0.18,-2.80,2.80,2.89,2.91,2.98,2.98,2.98
302.53,0.14,-2.82,0.14,-2.82,2.82,2.89,2.87,2.96,2.96,2.96
305.55,0.11,-2.83,0.11,-2.84,2.83,2.88,2.84,2.95,2.94,2.94
308.61,0.07,-2.86,0.08,-2.85,2.85,2.88,2.80,2.93,2.93,2.93
311.69,0.04,-2.87,0.04,-2.87,2.87,2.87,2.76,2.91,2.91,2.92
314.81,0.01,-2.88,0.01,-2.89,2.89,2.87,2.73,2.90,2.90,2.90
317.96,-0.02,-2.90,-0.01,-2.90,2.90,2.86,2.70,2.88,2.88,2.88
321.14,-0.04,-2.90,-0.04,-2.91,2.91,2.86,2.66,2.87,2.87,2.86
324.35,-0.07,-2.92,-0.07,-2.91,2.91,2.85,2.63,2.84,2.85,2.85
327.59,-0.09,-2.92,-0.08,-2.92,2.91,2.84,2.60,2.82,2.82,2.83
330.87,-0.10,-2.91,-0.10,-2.91,2.90,2.84,2.58,2.80,2.80,2.82
334.18,-0.10,-2.89,-0.09,-2.89,2.88,2.83,2.55,2.79,2.79,2.80
337.52,-0.09,-2.87,-0.09,-2.87,2.86,2.83,2.53,2.78,2.78,2.78
340.90,-0.08,-2.84,-0.08,-2.84,2.84,2.82,2.50,2.77,2.77,2.76
344.30,-0.07,-2.82,-0.07,-2.81,2.82,2.81,2.48,2.76,2.76,2.75
347.75,-0.06,-2.79,-0.06,-2.79,2.80,2.81,2.46,2.75,2.74,2.73
351.23,-0.07,-2.78,-0.07,-2.78,2.79,2.80,2.45,2.72,2.72,2.71
354.74,-0.08,-2.77,-0.08,-2.77,2.78,2.79,2.43,2.71,2.70,2.70
358.28,-0.11,-2.78,-0.10,-2.78,2.78,2.79,2.42,2.68,2.68,2.68
361.87,-0.13,-2.78,-0.13,-2.79,2.79,2.78,2.41,2.66,2.66,2.66
365.49,-0.16,-2.80,-0.16,-2.80,2.80,2.77,2.40,2.64,2.64,2.64
369.14,-0.19,-2.81,-0.19,-2.82,2.81,2.77,2.39,2.63,2.63,2.62
372.83,-0.23,-2.84,-0.23,-2.84,2.83,2.76,2.38,2.61,2.61,2.61
376.56,-0.27,-2.86,-0.26,-2.85,2.85,2.75,2.38,2.58,2.59,2.59
380.33,-0.30,-2.87,-0.30,-2.87,2.87,2.74,2.38,2.57,2.57,2.57
384.13,-0.33,-2.89,-0.33,-2.88,2.88,2.73,2.38,2.56,2.56,2.56
387.97,-0.36,-2.89,-0.35,-2.89,2.90,2.72,2.38,2.54,2.55,2.54
391.85,-0.38,-2.90,-0.38,-2.91,2.91,2.72,2.38,2.53,2.53,2.53
395.77,-0.40,-2.91,-0.40,-2.91,2.91,2.71,2.38,2.52,2.51,2.52
399.73,-0.42,-2.92,-0.41,-2.92,2.91,2.70,2.39,2.50,2.50,2.51
403.72,-0.43,-2.92,-0.42,-2.92,2.91,2.69,2.40,2.48,2.48,2.50
407.76,-0.43,-2.91,-0.42,-2.91,2.90,2.68,2.40,2.47,2.47,2.49
411.84,-0.42,-2.88,-0.42,-2.88,2.89,2.67,2.41,2.47,2.47,2.46
415.96,-0.41,-2.86,-0.41,-2.86,2.87,2.66,2.42,2.47,2.46,2.45
420.12,-0.41,-2.85,-0.40,-2.85,2.86,2.65,2.43,2.46,2.46,2.44
424.32,-0.41,-2.84,-0.40,-2.84,2.85,2.64,2.44,2.44,2.44,2.43
428.56,-0.41,-2.83,-0.41,-2.83,2.84,2.63,2.45,2.43,2.43,2.42
432.85,-0.42,-2.82,-0.42,-2.82,2.82,2.62,2.46,2.41,2.41,2.40
437.18,-0.43,-2.82,-0.42,-2.82,2.81,2.61,2.47,2.38,2.39,2.39
441.55,-0.43,-2.81,-0.43,-2.80,2.79,2.60,2.48,2.37,2.37,2.38
445.96,-0.43,-2.79,-0.42,-2.78,2.77,2.58,2.49,2.35,2.35,2.36
450.42,-0.41,-2.75,-0.41,-2.75,2.75,2.57,2.50,2.34,2.34,2.34
454.93,-0.39,-2.72,-0.39,-2.71,2.71,2.56,2.51,2.33,2.32,2.33
459.48,-0.37,-2.67,-0.37,-2.67,2.67,2.55,2.52,2.31,2.31,2.31
464.07,-0.35,-2.63,-0.34,-2.63,2.63,2.54,2.52,2.28,2.29,2.29
468.71,-0.32,-2.58,-0.31,-2.58,2.58,2.52,2.53,2.27,2.27,2.27
473.40,-0.28,-2.53,-0.28,-2.53,2.53,2.51,2.53,2.26,2.25,2.26
478.13,-0.25,-2.48,-0.24,-2.48,2.48,2.50,2.53,2.24,2.24,2.24
482.91,-0.21,-2.43,-0.21,-2.43,2.44,2.48,2.53,2.23,2.23,2.23
487.74,-0.18,-2.38,-0.18,-2.38,2.39,2.47,2.53,2.21,2.21,2.21
492.62,-0.15,-2.34,-0.14,-2.34,2.34,2.46,2.53,2.20,2.20,2.20
497.55,-0.12,-2.30,-0.12,-2.30,2.30,2.44,2.52,2.19,2.19,2.19
502.52,-0.10,-2.27,-0.09,-2.27,2.27,2.43,2.51,2.17,2.18,2.18
507.55,-0.08,-2.24,-0.07,-2.24,2.24,2.41,2.50,2.17,2.17,2.17
512.62,-0.06,-2.20,-0.06,-2.21,2.22,2.40,2.49,2.16,2.16,2.14
517.75,-0.06,-2.19,-0.06,-2.19,2.20,2.38,2.48,2.14,2.14,2.13
522.93,-0.07,-2.18,-0.06,-2.18,2.18,2.37,2.46,2.11,2.11,2.11
