frequency,raw,error,smoothed,error_smoothed,equalization,parametric_eq,fixed_band_eq,equalized_raw,equalized_smoothed,target
20.00,12.74,6.14,12.74,6.14,-6.14,-6.44,-3.13,6.60,6.60,6.60
20.20,12.77,6.17,12.77,6.17,-6.17,-6.44,-3.21,6.60,6.60,6.60
20.40,12.80,6.19,12.80,6.19,-6.19,-6.45,-3.30,6.61,6.61,6.61
20.61,12.83,6.22,12.83,6.22,-6.21,-6.46,-3.39,6.62,6.62,6.61
20.81,12.85,6.24,12.85,6.24,-6.24,-6.46,-3.49,6.61,6.62,6.61
21.02,12.88,6.27,12.88,6.26,-6.26,-6.47,-3.59,6.62,6.62,6.61
21.23,12.90,6.28,12.90,6.29,-6.28,-6.48,-3.68,6.62,6.62,6.62
21.44,12.93,6.30,12.93,6.30,-6.31,-6.49,-3.79,6.62,6.62,6.63
21.66,12.96,6.33,12.96,6.33,-6.33,-6.49,-3.89,6.63,6.63,6.63
21.87,12.98,6.34,12.98,6.35,-6.35,-6.50,-4.00,6.63,6.63,6.64
22.09,13.01,6.38,13.01,6.38,-6.38,-6.51,-4.11,6.64,6.63,6.63
22.31,13.03,6.39,13.03,6.40,-6.40,-6.52,-4.23,6.63,6.63,6.64
22.54,13.06,6.43,13.06,6.43,-6.43,-6.53,-4.35,6.63,6.63,6.63
22.76,13.08,6.45,13.08,6.45,-6.45,-6.54,-4.47,6.63,6.63,6.64
22.99,13.11,6.48,13.11,6.48,-6.48,-6.55,-4.59,6.63,6.63,6.64
23.22,13.13,6.51,13.13,6.51,-6.51,-6.55,-4.72,6.63,6.63,6.62
23.45,13.16,6.54,13.16,6.53,-6.53,-6.56,-4.85,6.63,6.63,6.62
23.69,13.18,6.56,13.18,6.56,-6.55,-6.57,-4.98,6.63,6.63,6.62
23.92,13.20,6.58,13.20,6.58,-6.57,-6.58,-5.11,6.63,6.63,6.62
24.16,13.22,6.60,13.22,6.59,-6.59,-6.59,-5.25,6.63,6.63,6.62
24.40,13.23,6.60,13.23,6.61,-6.61,-6.60,-5.39,6.62,6.62,6.63
24.65,13.25,6.62,13.25,6.62,-6.63,-6.61,-5.53,6.62,6.62,6.63
24.89,13.27,6.64,13.27,6.64,-6.65,-6.62,-5.68,6.62,6.62,6.63
25.14,13.29,6.67,13.29,6.67,-6.67,-6.63,-5.82,6.62,6.62,6.62
25.39,13.31,6.69,13.31,6.70,-6.69,-6.64,-5.97,6.62,6.62,6.62
25.65,13.33,6.72,13.33,6.72,-6.71,-6.65,-6.12,6.62,6.62,6.62
25.91,13.35,6.74,13.35,6.73,-6.73,-6.66,-6.27,6.62,6.62,6.61
26.16,13.37,6.75,13.37,6.75,-6.75,-6.67,-6.42,6.62,6.62,6.62
26.43,13.38,6.76,13.38,6.77,-6.77,-6.68,-6.57,6.61,6.62,6.62
26.69,13.40,6.79,13.40,6.78,-6.79,-6.69,-6.72,6.62,6.61,6.61
26.96,13.41,6.80,13.41,6.80,-6.80,-6.70,-6.87,6.61,6.61,6.61
27.23,13.43,6.82,13.43,6.82,-6.82,-6.72,-7.01,6.61,6.61,6.61
27.50,13.44,6.83,13.44,6.83,-6.83,-6.73,-7.16,6.61,6.61,6.61
27.77,13.46,6.85,13.46,6.85,-6.85,-6.74,-7.30,6.61,6.61,6.62
28.05,13.47,6.86,13.47,6.86,-6.86,-6.75,-7.43,6.61,6.61,6.61
28.33,13.48,6.88,13.48,6.88,-6.88,-6.76,-7.56,6.60,6.61,6.60
28.62,13.50,6.90,13.50,6.89,-6.89,-6.77,-7.69,6.61,6.60,6.60
28.90,13.50,6.89,13.51,6.90,-6.90,-6.79,-7.80,6.60,6.60,6.61
29.19,13.52,6.91,13.52,6.92,-6.92,-6.80,-7.91,6.60,6.60,6.61
29.48,13.53,6.93,13.53,6.93,-6.93,-6.81,-8.01,6.60,6.60,6.60
29.78,13.54,6.95,13.54,6.94,-6.94,-6.82,-8.11,6.60,6.60,6.59
30.08,13.55,6.95,13.55,6.95,-6.95,-6.84,-8.19,6.60,6.60,6.60
30.38,13.55,6.96,13.56,6.96,-6.96,-6.85,-8.26,6.59,6.60,6.59
30.68,13.56,6.96,13.56,6.97,-6.97,-6.86,-8.32,6.60,6.60,6.60
30.99,13.57,6.97,13.57,6.97,-6.97,-6.88,-8.38,6.60,6.59,6.60
31.30,13.57,6.98,13.57,6.98,-6.98,-6.89,-8.41,6.59,6.59,6.59
31.61,13.58,6.98,13.58,6.99,-6.99,-6.90,-8.44,6.59,6.60,6.60
31.93,13.59,7.00,13.59,6.99,-6.99,-6.92,-8.46,6.60,6.60,6.59
32.24,13.60,7.00,13.60,7.00,-7.00,-6.93,-8.46,6.60,6.60,6.60
32.57,13.60,7.01,13.61,7.01,-7.01,-6.95,-8.46,6.60,6.60,6.60
32.89,13.61,7.02,13.61,7.01,-7.01,-6.96,-8.44,6.60,6.59,6.59
33.22,13.61,7.02,13.61,7.02,-7.02,-6.97,-8.42,6.59,6.59,6.59
33.55,13.61,7.02,13.61,7.03,-7.03,-6.99,-8.39,6.58,6.58,6.59
33.89,13.62,7.04,13.62,7.04,-7.04,-7.00,-8.35,6.58,6.58,6.58
34.23,13.62,7.05,13.62,7.05,-7.05,-7.02,-8.30,6.57,6.57,6.57
34.57,13.63,7.07,13.63,7.07,-7.07,-7.03,-8.25,6.57,6.56,6.56
34.92,13.63,7.09,13.63,7.08,-7.08,-7.05,-8.19,6.55,6.55,6.55
35.27,13.63,7.09,13.63,7.10,-7.10,-7.06,-8.13,6.53,6.53,6.54
35.62,13.63,7.12,13.63,7.11,-7.12,-7.08,-8.06,6.52,6.51,6.51
35.97,13.62,7.13,13.62,7.13,-7.14,-7.10,-7.99,6.49,6.49,6.49
36.33,13.62,7.15,13.62,7.15,-7.16,-7.11,-7.92,6.47,6.47,6.47
36.70,13.62,7.17,13.62,7.17,-7.17,-7.13,-7.85,6.45,6.45,6.45
37.06,13.62,7.20,13.62,7.20,-7.20,-7.14,-7.79,6.43,6.43,6.42
37.43,13.62,7.22,13.62,7.22,-7.22,-7.16,-7.72,6.40,6.40,6.40
37.81,13.62,7.25,13.62,7.24,-7.24,-7.18,-7.65,6.38,6.38,6.37
38.19,13.61,7.25,13.61,7.26,-7.26,-7.19,-7.58,6.35,6.35,6.36
38.57,13.61,7.28,13.61,7.28,-7.28,-7.21,-7.52,6.33,6.33,6.34
38.95,13.61,7.30,13.61,7.30,-7.30,-7.23,-7.46,6.31,6.31,6.31
39.34,13.61,7.33,13.61,7.32,-7.32,-7.24,-7.40,6.29,6.29,6.28
39.74,13.60,7.34,13.60,7.34,-7.33,-7.26,-7.34,6.27,6.27,6.26
40.14,13.59,7.35,13.59,7.35,-7.35,-7.28,-7.29,6.24,6.24,6.24
40.54,13.58,7.35,13.58,7.36,-7.36,-7.29,-7.25,6.22,6.22,6.23
40.94,13.58,7.38,13.58,7.37,-7.38,-7.31,-7.20,6.20,6.20,6.20
41.35,13.57,7.38,13.58,7.39,-7.39,-7.33,-7.17,6.18,6.18,6.19
41.76,13.57,7.41,13.57,7.40,-7.40,-7.35,-7.13,6.17,6.16,6.16
42.18,13.56,7.42,13.56,7.42,-7.42,-7.36,-7.11,6.15,6.14,6.14
42.60,13.54,7.42,13.55,7.43,-7.43,-7.38,-7.08,6.11,6.12,6.12
43.03,13.54,7.44,13.54,7.44,-7.44,-7.40,-7.07,6.10,6.10,6.10
43.46,13.53,7.46,13.53,7.45,-7.45,-7.42,-7.05,6.08,6.08,6.07
43.90,13.52,7.47,13.52,7.47,-7.46,-7.43,-7.05,6.06,6.06,6.06
44.33,13.50,7.47,13.50,7.47,-7.47,-7.45,-7.04,6.03,6.03,6.03
44.78,13.49,7.48,13.49,7.48,-7.48,-7.47,-7.05,6.01,6.01,6.01
45.23,13.48,7.48,13.48,7.49,-7.49,-7.49,-7.05,5.99,5.99,6.00
45.68,13.47,7.51,13.47,7.51,-7.51,-7.51,-7.07,5.97,5.97,5.96
46.13,13.46,7.53,13.46,7.52,-7.52,-7.52,-7.08,5.94,5.94,5.93
46.60,13.44,7.54,13.45,7.54,-7.53,-7.54,-7.11,5.91,5.91,5.91
47.06,13.43,7.55,13.43,7.55,-7.55,-7.56,-7.14,5.88,5.88,5.89
47.53,13.41,7.56,13.41,7.56,-7.57,-7.58,-7.17,5.84,5.84,5.86
48.01,13.39,7.59,13.40,7.58,-7.59,-7.60,-7.21,5.80,5.81,5.81
48.49,13.38,7.61,13.38,7.60,-7.61,-7.61,-7.25,5.77,5.77,5.77
48.97,13.36,7.63,13.36,7.63,-7.63,-7.63,-7.30,5.73,5.73,5.73
49.46,13.34,7.64,13.35,7.65,-7.65,-7.65,-7.35,5.69,5.70,5.70
49.96,13.33,7.69,13.32,7.67,-7.67,-7.67,-7.40,5.66,5.65,5.64
50.46,13.30,7.69,13.30,7.69,-7.69,-7.68,-7.46,5.61,5.61,5.61
50.96,13.28,7.71,13.29,7.71,-7.71,-7.70,-7.52,5.57,5.57,5.58
51.47,13.27,7.73,13.27,7.73,-7.73,-7.72,-7.58,5.54,5.54,5.54
51.99,13.25,7.75,13.25,7.75,-7.75,-7.73,-7.65,5.50,5.50,5.50
52.51,13.23,7.77,13.23,7.77,-7.77,-7.75,-7.72,5.46,5.46,5.46
53.03,13.21,7.78,13.21,7.78,-7.79,-7.77,-7.79,5.42,5.42,5.43
53.56,13.18,7.80,13.19,7.80,-7.80,-7.79,-7.86,5.38,5.38,5.39
54.10,13.17,7.83,13.17,7.82,-7.82,-7.80,-7.93,5.35,5.35,5.34
54.64,13.14,7.84,13.14,7.84,-7.83,-7.82,-8.00,5.31,5.31,5.30
55.18,13.12,7.85,13.12,7.86,-7.85,-7.83,-8.07,5.27,5.27,5.27
55.74,13.09,7.86,13.09,7.86,-7.86,-7.85,-8.14,5.23,5.24,5.23
56.29,13.07,7.87,13.07,7.86,-7.87,-7.87,-8.20,5.20,5.20,5.20
56.86,13.04,7.86,13.04,7.87,-7.87,-7.88,-8.26,5.17,5.17,5.18
57.42,13.02,7.89,13.02,7.88,-7.88,-7.90,-8.32,5.14,5.15,5.14
58.00,13.00,7.89,13.00,7.89,-7.88,-7.91,-8.38,5.12,5.12,5.11
58.58,12.98,7.89,12.98,7.89,-7.89,-7.92,-8.43,5.09,5.09,5.09
59.16,12.94,7.88,12.95,7.89,-7.90,-7.94,-8.47,5.04,5.05,5.06
59.76,12.92,7.90,12.92,7.90,-7.91,-7.95,-8.51,5.01,5.01,5.03
60.35,12.89,7.92,12.89,7.92,-7.93,-7.97,-8.54,4.96,4.97,4.97
60.96,12.87,7.94,12.87,7.94,-7.95,-7.98,-8.56,4.93,4.92,4.93
61.57,12.84,7.97,12.84,7.97,-7.96,-7.99,-8.57,4.88,4.87,4.87
62.18,12.80,7.99,12.81,7.99,-7.98,-8.00,-8.58,4.82,4.83,4.81
62.80,12.78,8.01,12.78,8.01,-8.00,-8.01,-8.58,4.78,4.78,4.77
63.43,12.75,8.03,12.75,8.02,-8.02,-8.03,-8.57,4.73,4.73,4.72
64.07,12.72,8.03,12.72,8.03,-8.03,-8.04,-8.56,4.69,4.69,4.69
64.71,12.69,8.04,12.69,8.04,-8.04,-8.05,-8.53,4.65,4.65,4.65
65.35,12.65,8.05,12.66,8.05,-8.05,-8.06,-8.50,4.60,4.61,4.60
66.01,12.62,8.05,12.62,8.05,-8.06,-8.07,-8.46,4.56,4.57,4.57
66.67,12.60,8.06,12.59,8.06,-8.06,-8.08,-8.42,4.54,4.53,4.54
67.33,12.55,8.06,12.56,8.07,-8.07,-8.08,-8.36,4.48,4.49,4.49
68.01,12.52,8.07,12.53,8.08,-8.07,-8.09,-8.31,4.45,4.45,4.45
68.69,12.50,8.10,12.49,8.08,-8.08,-8.10,-8.25,4.42,4.41,4.41
69.37,12.46,8.09,12.46,8.09,-8.09,-8.10,-8.18,4.37,4.37,4.37
70.07,12.42,8.08,12.43,8.09,-8.09,-8.11,-8.12,4.33,4.33,4.34
70.77,12.39,8.09,12.39,8.09,-8.10,-8.12,-8.05,4.29,4.29,4.30
71.48,12.36,8.11,12.36,8.10,-8.11,-8.12,-7.98,4.25,4.25,4.25
72.19,12.32,8.11,12.32,8.11,-8.11,-8.12,-7.90,4.21,4.21,4.21
72.91,12.28,8.12,12.28,8.12,-8.12,-8.13,-7.83,4.16,4.16,4.16
73.64,12.24,8.13,12.24,8.12,-8.12,-8.13,-7.76,4.12,4.12,4.12
74.38,12.20,8.12,12.20,8.13,-8.12,-8.13,-7.69,4.08,4.08,4.08
75.12,12.17,8.13,12.17,8.13,-8.13,-8.14,-7.62,4.05,4.04,4.04
75.87,12.13,8.12,12.13,8.12,-8.12,-8.14,-7.55,4.01,4.01,4.01
76.63,12.09,8.12,12.09,8.12,-8.12,-8.14,-7.48,3.97,3.98,3.97
77.40,12.05,8.10,12.05,8.11,-8.11,-8.14,-7.42,3.94,3.94,3.95
78.17,12.02,8.11,12.02,8.10,-8.10,-8.13,-7.36,3.92,3.91,3.91
78.95,11.97,8.09,11.98,8.09,-8.09,-8.13,-7.30,3.88,3.88,3.88
79.74,11.94,8.08,11.94,8.08,-8.08,-8.13,-7.25,3.86,3.86,3.86
80.54,11.89,8.06,11.90,8.07,-8.07,-8.13,-7.20,3.82,3.83,3.83
81.35,11.86,8.07,11.86,8.06,-8.06,-8.12,-7.15,3.80,3.80,3.79
82.16,11.81,8.04,11.81,8.04,-8.05,-8.12,-7.11,3.76,3.77,3.78
82.98,11.77,8.03,11.77,8.03,-8.03,-8.11,-7.08,3.74,3.74,3.74
83.81,11.73,8.02,11.73,8.02,-8.02,-8.11,-7.05,3.71,3.71,3.71
84.65,11.69,8.02,11.69,8.01,-8.01,-8.10,-7.02,3.68,3.68,3.67
85.50,11.64,8.00,11.64,8.00,-7.99,-8.09,-7.00,3.65,3.65,3.65
86.35,11.60,7.98,11.60,7.98,-7.98,-8.09,-6.98,3.62,3.62,3.62
87.22,11.55,7.95,11.55,7.96,-7.97,-8.08,-6.97,3.59,3.59,3.60
88.09,11.51,7.95,11.51,7.95,-7.95,-8.07,-6.96,3.56,3.56,3.56
88.97,11.46,7.93,11.46,7.93,-7.93,-8.06,-6.96,3.53,3.53,3.54
89.86,11.42,7.93,11.42,7.92,-7.92,-8.05,-6.97,3.50,3.50,3.49
90.76,11.37,7.90,11.37,7.90,-7.90,-8.04,-6.98,3.47,3.47,3.47
91.66,11.32,7.89,11.33,7.89,-7.89,-8.03,-6.99,3.44,3.44,3.43
92.58,11.28,7.87,11.28,7.87,-7.87,-8.01,-7.01,3.41,3.40,3.41
93.51,11.23,7.86,11.23,7.86,-7.86,-8.00,-7.03,3.37,3.37,3.37
94.44,11.18,7.83,11.19,7.84,-7.85,-7.99,-7.06,3.33,3.34,3.35
95.39,11.14,7.84,11.14,7.83,-7.84,-7.98,-7.10,3.30,3.30,3.30
96.34,11.09,7.83,11.09,7.83,-7.83,-7.96,-7.14,3.26,3.26,3.26
97.30,11.04,7.82,11.04,7.82,-7.82,-7.95,-7.18,3.22,3.22,3.22
98.28,11.00,7.82,11.00,7.82,-7.81,-7.93,-7.23,3.19,3.18,3.18
99.26,10.94,7.81,10.95,7.81,-7.80,-7.92,-7.28,3.14,3.15,3.13
100.25,10.90,7.80,10.90,7.80,-7.79,-7.90,-7.33,3.11,3.11,3.10
101.25,10.84,7.77,10.84,7.78,-7.78,-7.89,-7.39,3.06,3.07,3.07
102.27,10.79,7.76,10.79,7.76,-7.76,-7.87,-7.45,3.03,3.03,3.04
103.29,10.74,7.74,10.74,7.74,-7.75,-7.85,-7.51,3.00,2.99,3.00
104.32,10.69,7.73,10.69,7.73,-7.73,-7.84,-7.58,2.96,2.96,2.96
105.37,10.64,7.72,10.64,7.71,-7.71,-7.82,-7.64,2.93,2.93,2.93
106.42,10.59,7.69,10.59,7.70,-7.69,-7.80,-7.71,2.90,2.90,2.90
107.48,10.54,7.69,10.54,7.68,-7.68,-7.78,-7.78,2.87,2.86,2.85
108.56,10.48,7.65,10.48,7.66,-7.66,-7.76,-7.85,2.82,2.83,2.83
109.64,10.43,7.64,10.43,7.64,-7.64,-7.75,-7.91,2.79,2.79,2.79
110.74,10.38,7.63,10.38,7.63,-7.63,-7.73,-7.98,2.75,2.75,2.76
111.85,10.33,7.61,10.33,7.61,-7.61,-7.71,-8.04,2.72,2.72,2.72
112.97,10.28,7.61,10.28,7.60,-7.60,-7.69,-8.10,2.68,2.68,2.67
114.10,10.22,7.58,10.22,7.59,-7.59,-7.67,-8.16,2.63,2.63,2.64
115.24,10.16,7.58,10.17,7.58,-7.59,-7.65,-8.21,2.58,2.58,2.58
116.39,10.11,7.58,10.11,7.58,-7.58,-7.63,-8.26,2.53,2.53,2.53
117.55,10.06,7.59,10.06,7.58,-7.58,-7.61,-8.29,2.49,2.48,2.48
118.73,10.00,7.58,10.00,7.58,-7.57,-7.59,-8.33,2.43,2.43,2.42
119.92,9.94,7.57,9.94,7.57,-7.57,-7.57,-8.36,2.37,2.37,2.37
121.12,9.89,7.57,9.89,7.57,-7.57,-7.55,-8.38,2.32,2.32,2.33
122.33,9.83,7.57,9.84,7.57,-7.57,-7.53,-8.38,2.26,2.26,2.26
123.55,9.78,7.57,9.78,7.57,-7.57,-7.52,-8.39,2.21,2.21,2.21
124.79,9.73,7.58,9.72,7.57,-7.58,-7.50,-8.38,2.16,2.15,2.15
126.03,9.66,7.57,9.67,7.58,-7.58,-7.48,-8.37,2.08,2.09,2.09
127.29,9.61,7.58,9.61,7.58,-7.58,-7.46,-8.34,2.03,2.03,2.03
128.57,9.55,7.58,9.55,7.58,-7.58,-7.44,-8.31,1.97,1.97,1.97
129.85,9.49,7.58,9.49,7.58,-7.58,-7.42,-8.27,1.91,1.91,1.91
131.15,9.44,7.59,9.44,7.58,-7.57,-7.40,-8.22,1.87,1.86,1.85
132.46,9.37,7.56,9.38,7.57,-7.57,-7.38,-8.16,1.80,1.81,1.81
133.79,9.32,7.56,9.32,7.56,-7.56,-7.36,-8.10,1.77,1.76,1.76
135.12,9.26,7.55,9.26,7.54,-7.54,-7.34,-8.03,1.72,1.72,1.71
136.48,9.20,7.51,9.20,7.52,-7.52,-7.32,-7.96,1.68,1.68,1.69
137.84,9.14,7.50,9.14,7.50,-7.50,-7.30,-7.87,1.64,1.64,1.65
139.22,9.08,7.48,9.08,7.47,-7.47,-7.28,-7.79,1.61,1.61,1.60
140.61,9.02,7.44,9.02,7.45,-7.45,-7.26,-7.70,1.58,1.58,1.58
142.02,8.96,7.41,8.96,7.42,-7.42,-7.24,-7.61,1.55,1.55,1.55
143.44,8.91,7.40,8.90,7.38,-7.39,-7.22,-7.52,1.53,1.52,1.52
144.87,8.84,7.35,8.85,7.35,-7.35,-7.20,-7.42,1.49,1.49,1.50
146.32,8.78,7.32,8.79,7.32,-7.32,-7.18,-7.33,1.46,1.46,1.47
147.78,8.73,7.29,8.72,7.29,-7.29,-7.16,-7.23,1.44,1.43,1.44
149.26,8.66,7.25,8.66,7.26,-7.26,-7.14,-7.14,1.41,1.41,1.41
150.75,8.60,7.23,8.60,7.22,-7.22,-7.11,-7.04,1.38,1.38,1.37
152.26,8.54,7.19,8.54,7.19,-7.19,-7.09,-6.95,1.35,1.35,1.36
153.78,8.48,7.16,8.48,7.16,-7.16,-7.07,-6.86,1.32,1.32,1.32
155.32,8.42,7.13,8.42,7.12,-7.13,-7.05,-6.77,1.29,1.29,1.30
156.88,8.35,7.09,8.36,7.10,-7.10,-7.03,-6.69,1.25,1.26,1.26
158.44,8.29,7.07,8.29,7.07,-7.07,-7.01,-6.61,1.22,1.22,1.22
160.03,8.23,7.05,8.23,7.04,-7.04,-6.98,-6.53,1.19,1.18,1.19
161.63,8.16,7.01,8.16,7.01,-7.02,-6.96,-6.45,1.15,1.15,1.15
163.24,8.10,6.99,8.10,6.99,-6.99,-6.94,-6.38,1.11,1.11,1.11
164.88,8.04,6.97,8.04,6.96,-6.96,-6.92,-6.32,1.08,1.08,1.07
166.53,7.98,6.95,7.98,6.94,-6.94,-6.89,-6.25,1.04,1.04,1.03
168.19,7.91,6.91,7.91,6.91,-6.91,-6.87,-6.19,1.00,1.01,1.01
169.87,7.85,6.88,7.85,6.88,-6.88,-6.84,-6.14,0.97,0.97,0.97
171.57,7.79,6.85,7.79,6.85,-6.85,-6.82,-6.09,0.94,0.94,0.94
173.29,7.73,6.83,7.73,6.82,-6.82,-6.79,-6.04,0.91,0.91,0.91
175.02,7.66,6.79,7.66,6.79,-6.79,-6.77,-6.00,0.87,0.87,0.87
176.77,7.60,6.77,7.60,6.76,-6.76,-6.74,-5.96,0.84,0.84,0.84
178.54,7.53,6.72,7.53,6.73,-6.73,-6.72,-5.93,0.80,0.80,0.81
180.32,7.47,6.70,7.47,6.70,-6.70,-6.69,-5.90,0.77,0.77,0.77
182.13,7.40,6.67,7.40,6.67,-6.67,-6.66,-5.88,0.73,0.74,0.74
183.95,7.34,6.64,7.34,6.64,-6.64,-6.63,-5.86,0.71,0.71,0.70
185.79,7.28,6.61,7.28,6.61,-6.60,-6.60,-5.84,0.68,0.67,0.67
187.65,7.21,6.57,7.21,6.57,-6.57,-6.57,-5.83,0.64,0.64,0.64
189.52,7.14,6.54,7.15,6.54,-6.54,-6.54,-5.82,0.60,0.61,0.60
191.42,7.08,6.50,7.08,6.50,-6.51,-6.51,-5.82,0.58,0.57,0.58
193.33,7.01,6.47,7.01,6.47,-6.47,-6.48,-5.82,0.54,0.54,0.54
195.27,6.94,6.44,6.94,6.44,-6.44,-6.45,-5.82,0.50,0.51,0.51
197.22,6.88,6.41,6.88,6.41,-6.41,-6.41,-5.83,0.48,0.47,0.47
199.19,6.81,6.37,6.81,6.38,-6.37,-6.38,-5.84,0.44,0.44,0.44
201.18,6.75,6.34,6.75,6.34,-6.34,-6.35,-5.86,0.42,0.42,0.41
203.19,6.69,6.30,6.69,6.30,-6.30,-6.31,-5.87,0.39,0.39,0.39
205.23,6.62,6.26,6.63,6.26,-6.26,-6.28,-5.89,0.36,0.36,0.36
207.28,6.56,6.22,6.56,6.22,-6.23,-6.24,-5.91,0.34,0.33,0.34
209.35,6.49,6.19,6.49,6.19,-6.19,-6.20,-5.93,0.30,0.30,0.30
211.44,6.42,6.14,6.43,6.15,-6.15,-6.16,-5.95,0.27,0.28,0.28
213.56,6.36,6.11,6.36,6.11,-6.11,-6.13,-5.97,0.25,0.25,0.25
215.69,6.30,6.07,6.30,6.07,-6.07,-6.09,-6.00,0.23,0.23,0.23
217.85,6.23,6.02,6.23,6.03,-6.03,-6.05,-6.02,0.20,0.21,0.21
220.03,6.16,5.99,6.17,5.99,-5.98,-6.00,-6.04,0.18,0.18,0.18
222.23,6.10,5.95,6.10,5.94,-5.94,-5.96,-6.06,0.16,0.16,0.15
224.45,6.03,5.90,6.03,5.90,-5.90,-5.92,-6.08,0.14,0.14,0.13
226.70,5.96,5.85,5.97,5.85,-5.85,-5.88,-6.10,0.11,0.12,0.11
228.96,5.90,5.80,5.90,5.80,-5.80,-5.83,-6.11,0.10,0.10,0.10
231.25,5.83,5.75,5.83,5.75,-5.75,-5.79,-6.12,0.08,0.08,0.08
233.57,5.76,5.70,5.76,5.71,-5.71,-5.74,-6.13,0.06,0.06,0.06
235.90,5.69,5.66,5.69,5.65,-5.65,-5.70,-6.13,0.04,0.03,0.03
238.26,5.62,5.61,5.62,5.60,-5.60,-5.65,-6.12,0.02,0.02,0.01
240.64,5.55,5.54,5.56,5.55,-5.55,-5.60,-6.11,-0.00,0.00,0.01
243.05,5.50,5.51,5.49,5.50,-5.50,-5.55,-6.10,0.00,-0.01,-0.01
245.48,5.42,5.45,5.42,5.45,-5.45,-5.50,-6.07,-0.03,-0.02,-0.02
247.93,5.35,5.39,5.36,5.40,-5.39,-5.45,-6.05,-0.04,-0.04,-0.04
250.41,5.29,5.34,5.29,5.34,-5.34,-5.40,-6.01,-0.05,-0.05,-0.05
252.92,5.22,5.28,5.22,5.28,-5.28,-5.35,-5.97,-0.06,-0.06,-0.06
255.45,5.15,5.23,5.15,5.22,-5.22,-5.30,-5.92,-0.07,-0.07,-0.08
258.00,5.08,5.16,5.08,5.16,-5.17,-5.24,-5.87,-0.08,-0.09,-0.08
260.58,5.01,5.10,5.01,5.11,-5.11,-5.19,-5.81,-0.10,-0.09,-0.09
263.19,4.94,5.05,4.94,5.05,-5.05,-5.13,-5.74,-0.11,-0.11,-0.11
265.82,4.88,4.99,4.88,4.99,-4.99,-5.08,-5.67,-0.11,-0.11,-0.11
268.48,4.80,4.93,4.81,4.93,-4.93,-5.02,-5.59,-0.13,-0.13,-0.13
271.16,4.74,4.88,4.74,4.87,-4.88,-4.97,-5.51,-0.13,-0.14,-0.13
273.87,4.66,4.81,4.67,4.82,-4.82,-4.91,-5.42,-0.16,-0.15,-0.15
276.61,4.60,4.77,4.60,4.76,-4.76,-4.85,-5.33,-0.16,-0.16,-0.17
279.38,4.52,4.70,4.53,4.71,-4.70,-4.79,-5.24,-0.18,-0.17,-0.18
282.17,4.46,4.65,4.46,4.64,-4.64,-4.73,-5.14,-0.18,-0.18,-0.19
284.99,4.39,4.58,4.39,4.58,-4.58,-4.67,-5.04,-0.19,-0.19,-0.19
287.84,4.32,4.51,4.33,4.52,-4.52,-4.61,-4.93,-0.20,-0.20,-0.19
290.72,4.26,4.47,4.26,4.46,-4.46,-4.55,-4.83,-0.20,-0.21,-0.21
293.63,4.19,4.41,4.19,4.40,-4.40,-4.49,-4.72,-0.21,-0.21,-0.21
296.57,4.12,4.34,4.12,4.34,-4.34,-4.43,-4.62,-0.22,-0.22,-0.22
299.53,4.05,4.27,4.05,4.28,-4.27,-4.37,-4.51,-0.22,-0.22,-0.22
302.53,3.98,4.21,3.98,4.21,-4.21,-4.30,-4.41,-0.23,-0.23,-0.23
305.55,3.92,4.15,3.91,4.14,-4.15,-4.24,-4.30,-0.22,-0.23,-0.23
308.61,3.84,4.07,3.85,4.08,-4.08,-4.18,-4.19,-0.24,-0.23,-0.22
311.69,3.78,4.01,3.78,4.01,-4.01,-4.11,-4.09,-0.23,-0.23,-0.23
314.81,3.72,3.95,3.72,3.95,-3.95,-4.05,-3.98,-0.22,-0.23,-0.23
317.96,3.65,3.89,3.65,3.89,-3.88,-3.98,-3.88,-0.23,-0.23,-0.23
321.14,3.59,3.82,3.59,3.82,-3.82,-3.92,-3.78,-0.23,-0.23,-0.23
324.35,3.52,3.75,3.52,3.75,-3.75,-3.85,-3.68,-0.23,-0.23,-0.23
327.59,3.46,3.68,3.46,3.69,-3.69,-3.78,-3.58,-0.23,-0.23,-0.21
330.87,3.40,3.63,3.40,3.63,-3.63,-3.72,-3.49,-0.23,-0.23,-0.23
334.18,3.35,3.58,3.35,3.57,-3.57,-3.65,-3.39,-0.21,-0.22,-0.23
337.52,3.28,3.50,3.29,3.51,-3.51,-3.58,-3.30,-0.22,-0.22,-0.22
340.90,3.23,3.45,3.23,3.45,-3.45,-3.51,-3.21,-0.21,-0.22,-0.21
344.30,3.17,3.39,3.17,3.39,-3.39,-3.45,-3.12,-0.22,-0.22,-0.22
347.75,3.11,3.32,3.12,3.33,-3.33,-3.38,-3.04,-0.22,-0.22,-0.21
351.23,3.06,3.28,3.06,3.27,-3.28,-3.31,-2.95,-0.21,-0.21,-0.22
354.74,3.01,3.22,3.01,3.22,-3.22,-3.24,-2.87,-0.21,-0.21,-0.20
358.28,2.95,3.17,2.95,3.17,-3.17,-3.17,-2.79,-0.21,-0.21,-0.22
361.87,2.90,3.12,2.90,3.11,-3.11,-3.10,-2.71,-0.21,-0.21,-0.22
365.49,2.84,3.05,2.84,3.06,-3.06,-3.03,-2.64,-0.22,-0.22,-0.21
369.14,2.79,3.00,2.79,3.01,-3.01,-2.96,-2.57,-0.22,-0.22,-0.21
372.83,2.74,2.95,2.74,2.95,-2.95,-2.89,-2.50,-0.21,-0.22,-0.21
376.56,2.68,2.91,2.69,2.90,-2.90,-2.82,-2.43,-0.22,-0.21,-0.23
380.33,2.63,2.85,2.63,2.85,-2.84,-2.75,-2.36,-0.21,-0.21,-0.22
384.13,2.57,2.79,2.57,2.79,-2.79,-2.68,-2.29,-0.21,-0.21,-0.22
387.97,2.51,2.72,2.51,2.73,-2.73,-2.61,-2.23,-0.21,-0.21,-0.21
391.85,2.45,2.66,2.45,2.66,-2.66,-2.54,-2.17,-0.21,-0.21,-0.21
395.77,2.39,2.60,2.39,2.60,-2.60,-2.47,-2.11,-0.21,-0.21,-0.21
399.73,2.33,2.54,2.33,2.54,-2.54,-2.40,-2.05,-0.20,-0.20,-0.20
403.72,2.27,2.47,2.27,2.47,-2.47,-2.33,-2.00,-0.20,-0.20,-0.20
407.76,2.20,2.40,2.21,2.40,-2.40,-2.26,-1.94,-0.20,-0.20,-0.20
411.84,2.14,2.34,2.14,2.34,-2.34,-2.19,-1.89,-0.20,-0.20,-0.20
415.96,2.08,2.27,2.08,2.28,-2.27,-2.12,-1.83,-0.19,-0.19,-0.19
420.12,2.01,2.21,2.01,2.21,-2.21,-2.04,-1.78,-0.20,-0.19,-0.20
424.32,1.95,2.15,1.95,2.14,-2.14,-1.97,-1.73,-0.19,-0.19,-0.20
428.56,1.88,2.06,1.88,2.07,-2.08,-1.90,-1.68,-0.20,-0.19,-0.18
432.85,1.82,2.01,1.82,2.01,-2.01,-1.83,-1.64,-0.19,-0.19,-0.18
437.18,1.75,1.95,1.75,1.94,-1.95,-1.76,-1.59,-0.20,-0.19,-0.20
441.55,1.69,1.89,1.69,1.88,-1.88,-1.69,-1.54,-0.19,-0.19,-0.20
445.96,1.62,1.82,1.62,1.82,-1.82,-1.62,-1.50,-0.19,-0.19,-0.20
450.42,1.55,1.75,1.56,1.75,-1.75,-1.55,-1.45,-0.20,-0.19,-0.20
454.93,1.49,1.69,1.49,1.69,-1.68,-1.48,-1.41,-0.19,-0.19,-0.20
459.48,1.42,1.62,1.42,1.62,-1.62,-1.41,-1.37,-0.19,-0.19,-0.20
464.07,1.35,1.54,1.36,1.55,-1.55,-1.34,-1.32,-0.20,-0.19,-0.19
468.71,1.29,1.47,1.29,1.47,-1.48,-1.27,-1.28,-0.19,-0.19,-0.18
473.40,1.23,1.41,1.23,1.41,-1.42,-1.20,-1.24,-0.18,-0.19,-0.18
478.13,1.16,1.34,1.17,1.35,-1.35,-1.13,-1.19,-0.19,-0.18,-0.18
482.91,1.11,1.29,1.10,1.29,-1.29,-1.07,-1.15,-0.18,-0.18,-0.18
487.74,1.04,1.23,1.04,1.23,-1.22,-1.00,-1.11,-0.18,-0.18,-0.18
492.62,0.97,1.16,0.98,1.16,-1.16,-0.93,-1.07,-0.19,-0.18,-0.18
497.55,0.92,1.11,0.91,1.10,-1.10,-0.86,-1.02,-0.18,-0.18,-0.19
