frequency,raw,error,smoothed,error_smoothed,equalization,parametric_eq,fixed_band_eq,equalized_raw,equalized_smoothed,target
20.00,-1.79,-4.64,-1.80,-4.66,4.69,4.53,0.69,2.90,2.88,2.85
20.20,-1.73,-4.58,-1.71,-4.57,4.57,4.49,0.71,2.85,2.86,2.86
20.40,-1.64,-4.49,-1.62,-4.48,4.46,4.44,0.73,2.83,2.84,2.86
20.61,-1.51,-4.37,-1.52,-4.38,4.35,4.38,0.75,2.84,2.83,2.86
20.81,-1.40,-4.26,-1.40,-4.26,4.24,4.31,0.77,2.85,2.84,2.86
21.02,-1.29,-4.15,-1.29,-4.15,4.14,4.24,0.79,2.85,2.85,2.86
21.23,-1.19,-4.05,-1.18,-4.04,4.03,4.16,0.81,2.84,2.85,2.86
21.44,-1.08,-3.94,-1.07,-3.93,3.93,4.07,0.84,2.85,2.86,2.86
21.66,-0.95,-3.81,-0.95,-3.82,3.82,3.98,0.86,2.87,2.87,2.86
21.87,-0.84,-3.70,-0.84,-3.70,3.71,3.89,0.89,2.88,2.88,2.86
22.09,-0.73,-3.59,-0.73,-3.60,3.61,3.79,0.91,2.89,2.88,2.87
22.31,-0.65,-3.51,-0.64,-3.51,3.52,3.69,0.94,2.87,2.88,2.87
22.54,-0.56,-3.43,-0.56,-3.43,3.43,3.59,0.96,2.87,2.87,2.87
22.76,-0.49,-3.36,-0.48,-3.35,3.34,3.49,0.99,2.86,2.86,2.87
22.99,-0.39,-3.26,-0.40,-3.27,3.26,3.39,1.02,2.87,2.86,2.87
23.22,-0.32,-3.19,-0.31,-3.19,3.18,3.30,1.05,2.86,2.87,2.87
23.45,-0.24,-3.11,-0.23,-3.11,3.10,3.20,1.08,2.87,2.87,2.87
23.69,-0.15,-3.02,-0.15,-3.03,3.02,3.10,1.11,2.87,2.87,2.87
23.92,-0.08,-2.95,-0.07,-2.95,2.94,3.00,1.14,2.87,2.87,2.87
24.16,0.02,-2.85,0.01,-2.86,2.86,2.91,1.17,2.88,2.87,2.87
24.40,0.08,-2.79,0.10,-2.78,2.78,2.82,1.20,2.86,2.87,2.88
24.65,0.19,-2.69,0.18,-2.70,2.70,2.73,1.23,2.89,2.88,2.88
24.89,0.25,-2.62,0.26,-2.62,2.61,2.64,1.26,2.87,2.88,2.88
25.14,0.35,-2.53,0.35,-2.53,2.53,2.56,1.29,2.89,2.88,2.88
25.39,0.42,-2.46,0.43,-2.45,2.45,2.47,1.32,2.88,2.88,2.88
25.65,0.51,-2.37,0.51,-2.37,2.37,2.39,1.36,2.89,2.88,2.88
25.91,0.58,-2.30,0.58,-2.30,2.30,2.32,1.39,2.88,2.88,2.88
26.16,0.66,-2.22,0.66,-2.22,2.22,2.24,1.42,2.88,2.88,2.88
26.43,0.74,-2.14,0.74,-2.14,2.14,2.17,1.45,2.88,2.88,2.88
26.69,0.82,-2.06,0.82,-2.07,2.07,2.10,1.48,2.89,2.88,2.88
26.96,0.89,-1.99,0.89,-1.99,1.99,2.03,1.51,2.88,2.88,2.88
27.23,0.95,-1.93,0.96,-1.92,1.92,1.97,1.54,2.87,2.88,2.88
27.50,1.04,-1.84,1.04,-1.85,1.85,1.91,1.57,2.89,2.88,2.89
27.77,1.11,-1.77,1.11,-1.77,1.78,1.85,1.60,2.89,2.89,2.89
28.05,1.18,-1.70,1.18,-1.70,1.71,1.79,1.63,2.90,2.90,2.89
28.33,1.24,-1.64,1.24,-1.64,1.65,1.74,1.65,2.89,2.89,2.89
28.62,1.30,-1.59,1.30,-1.59,1.59,1.68,1.67,2.89,2.89,2.89
28.90,1.35,-1.54,1.36,-1.53,1.53,1.63,1.70,2.88,2.88,2.89
29.19,1.41,-1.48,1.41,-1.47,1.47,1.58,1.72,2.88,2.88,2.89
29.48,1.47,-1.42,1.47,-1.42,1.42,1.54,1.73,2.89,2.89,2.89
29.78,1.53,-1.36,1.53,-1.36,1.36,1.49,1.75,2.90,2.89,2.89
30.08,1.58,-1.31,1.58,-1.31,1.31,1.45,1.76,2.90,2.89,2.89
30.38,1.62,-1.27,1.63,-1.26,1.26,1.41,1.77,2.88,2.89,2.89
30.68,1.67,-1.22,1.67,-1.22,1.21,1.37,1.78,2.89,2.89,2.89
30.99,1.73,-1.16,1.72,-1.17,1.17,1.33,1.79,2.90,2.89,2.89
31.30,1.76,-1.13,1.77,-1.12,1.12,1.30,1.79,2.88,2.89,2.89
31.61,1.81,-1.08,1.82,-1.07,1.07,1.26,1.80,2.89,2.89,2.89
31.93,1.87,-1.02,1.86,-1.03,1.03,1.23,1.80,2.90,2.89,2.89
32.24,1.90,-0.99,1.91,-0.98,0.99,1.20,1.79,2.89,2.89,2.89
32.57,1.95,-0.94,1.95,-0.94,0.95,1.17,1.79,2.90,2.89,2.89
32.89,1.97,-0.92,1.98,-0.91,0.91,1.14,1.78,2.88,2.89,2.89
33.22,2.02,-0.87,2.02,-0.87,0.88,1.11,1.77,2.90,2.89,2.89
33.55,2.05,-0.84,2.05,-0.84,0.85,1.09,1.76,2.90,2.90,2.89
33.89,2.07,-0.82,2.08,-0.81,0.82,1.06,1.75,2.89,2.90,2.89
34.23,2.10,-0.79,2.09,-0.80,0.80,1.04,1.73,2.90,2.89,2.89
34.57,2.11,-0.78,2.11,-0.78,0.78,1.02,1.72,2.89,2.89,2.89
34.92,2.11,-0.78,2.13,-0.76,0.76,1.00,1.70,2.87,2.89,2.89
35.27,2.16,-0.73,2.14,-0.75,0.74,0.98,1.68,2.90,2.88,2.89
35.62,2.16,-0.73,2.17,-0.72,0.72,0.96,1.66,2.88,2.89,2.89
35.97,2.17,-0.71,2.19,-0.70,0.71,0.94,1.64,2.88,2.89,2.89
36.33,2.21,-0.67,2.19,-0.69,0.69,0.92,1.62,2.90,2.89,2.89
36.70,2.21,-0.67,2.21,-0.67,0.67,0.91,1.60,2.89,2.89,2.89
37.06,2.21,-0.67,2.23,-0.66,0.66,0.89,1.58,2.87,2.89,2.88
37.43,2.25,-0.63,2.23,-0.65,0.64,0.88,1.56,2.89,2.87,2.88
37.81,2.25,-0.63,2.25,-0.63,0.62,0.86,1.53,2.88,2.88,2.88
38.19,2.25,-0.63,2.27,-0.61,0.61,0.85,1.51,2.86,2.88,2.88
38.57,2.30,-0.58,2.29,-0.59,0.60,0.84,1.49,2.90,2.88,2.88
38.95,2.30,-0.58,2.30,-0.58,0.59,0.83,1.47,2.89,2.89,2.88
39.34,2.30,-0.57,2.31,-0.57,0.58,0.82,1.45,2.88,2.88,2.88
39.74,2.30,-0.57,2.30,-0.57,0.57,0.81,1.43,2.87,2.87,2.87
40.14,2.30,-0.57,2.30,-0.57,0.56,0.80,1.41,2.87,2.87,2.87
40.54,2.30,-0.57,2.30,-0.57,0.56,0.79,1.39,2.86,2.86,2.87
40.94,2.30,-0.57,2.30,-0.57,0.56,0.79,1.38,2.87,2.87,2.87
41.35,2.30,-0.56,2.31,-0.56,0.57,0.78,1.36,2.87,2.87,2.87
41.76,2.30,-0.56,2.30,-0.56,0.57,0.78,1.35,2.87,2.87,2.86
42.18,2.30,-0.56,2.29,-0.57,0.58,0.77,1.33,2.88,2.87,2.86
42.60,2.27,-0.59,2.28,-0.58,0.58,0.77,1.32,2.85,2.86,2.86
43.03,2.25,-0.60,2.26,-0.59,0.59,0.76,1.30,2.84,2.85,2.86
43.46,2.25,-0.60,2.25,-0.60,0.60,0.76,1.29,2.85,2.85,2.85
43.90,2.25,-0.60,2.24,-0.61,0.60,0.76,1.28,2.86,2.85,2.85
44.33,2.23,-0.61,2.23,-0.61,0.61,0.76,1.27,2.85,2.85,2.85
44.78,2.21,-0.63,2.22,-0.62,0.62,0.76,1.26,2.84,2.85,2.84
45.23,2.21,-0.63,2.21,-0.63,0.63,0.76,1.26,2.85,2.84,2.84
45.68,2.21,-0.62,2.20,-0.64,0.64,0.76,1.25,2.86,2.84,2.84
46.13,2.16,-0.67,2.18,-0.65,0.66,0.77,1.24,2.82,2.83,2.83
46.60,2.16,-0.66,2.15,-0.67,0.67,0.77,1.24,2.83,2.82,2.83
47.06,2.13,-0.69,2.13,-0.69,0.68,0.77,1.24,2.81,2.82,2.82
47.53,2.11,-0.71,2.12,-0.70,0.70,0.78,1.23,2.81,2.81,2.82
48.01,2.11,-0.70,2.10,-0.71,0.71,0.79,1.23,2.82,2.81,2.81
48.49,2.07,-0.74,2.08,-0.73,0.73,0.79,1.23,2.80,2.81,2.81
48.97,2.07,-0.73,2.06,-0.74,0.75,0.80,1.23,2.82,2.81,2.80
49.46,2.02,-0.77,2.03,-0.76,0.77,0.81,1.23,2.79,2.80,2.80
49.96,2.01,-0.78,2.01,-0.78,0.79,0.82,1.23,2.80,2.79,2.79
50.46,1.97,-0.81,1.97,-0.81,0.81,0.83,1.23,2.78,2.78,2.78
50.96,1.94,-0.84,1.94,-0.83,0.83,0.84,1.24,2.77,2.78,2.78
51.47,1.91,-0.86,1.91,-0.86,0.86,0.85,1.24,2.77,2.77,2.77
51.99,1.88,-0.88,1.88,-0.88,0.88,0.87,1.24,2.77,2.77,2.76
52.51,1.85,-0.90,1.85,-0.91,0.91,0.88,1.25,2.76,2.76,2.76
53.03,1.81,-0.94,1.81,-0.94,0.94,0.89,1.25,2.75,2.75,2.75
53.56,1.77,-0.97,1.77,-0.97,0.97,0.91,1.25,2.74,2.74,2.74
54.10,1.73,-1.00,1.73,-1.00,1.00,0.93,1.26,2.73,2.73,2.73
54.64,1.69,-1.03,1.69,-1.03,1.03,0.94,1.26,2.72,2.72,2.72
55.18,1.65,-1.06,1.66,-1.06,1.06,0.96,1.26,2.71,2.71,2.71
55.74,1.62,-1.08,1.62,-1.08,1.08,0.98,1.26,2.71,2.71,2.71
56.29,1.59,-1.10,1.59,-1.11,1.11,1.00,1.27,2.70,2.70,2.70
56.86,1.55,-1.13,1.55,-1.13,1.14,1.02,1.27,2.69,2.69,2.69
57.42,1.51,-1.16,1.51,-1.16,1.16,1.05,1.27,2.67,2.67,2.67
58.00,1.47,-1.19,1.48,-1.19,1.18,1.07,1.27,2.66,2.66,2.66
58.58,1.44,-1.21,1.44,-1.21,1.21,1.09,1.27,2.65,2.65,2.65
59.16,1.41,-1.23,1.41,-1.23,1.23,1.12,1.26,2.64,2.64,2.64
59.76,1.38,-1.25,1.39,-1.24,1.24,1.14,1.26,2.63,2.63,2.63
60.35,1.37,-1.24,1.36,-1.25,1.26,1.17,1.25,2.63,2.62,2.62
60.96,1.32,-1.28,1.33,-1.27,1.27,1.19,1.25,2.59,2.60,2.60
61.57,1.31,-1.28,1.31,-1.28,1.28,1.22,1.24,2.59,2.59,2.59
62.18,1.27,-1.30,1.28,-1.30,1.29,1.24,1.23,2.56,2.57,2.57
62.80,1.27,-1.29,1.26,-1.30,1.30,1.27,1.22,2.57,2.56,2.56
63.43,1.23,-1.31,1.24,-1.31,1.31,1.30,1.21,2.54,2.55,2.54
64.07,1.23,-1.30,1.22,-1.31,1.31,1.32,1.19,2.55,2.53,2.53
64.71,1.18,-1.33,1.19,-1.32,1.32,1.34,1.17,2.50,2.51,2.51
65.35,1.18,-1.31,1.17,-1.32,1.32,1.37,1.16,2.50,2.49,2.50
66.01,1.14,-1.34,1.15,-1.33,1.32,1.39,1.14,2.47,2.47,2.48
66.67,1.13,-1.33,1.13,-1.33,1.33,1.41,1.12,2.46,2.46,2.46
67.33,1.12,-1.32,1.11,-1.33,1.33,1.43,1.10,2.45,2.45,2.44
68.01,1.09,-1.33,1.10,-1.33,1.33,1.45,1.07,2.43,2.43,2.42
68.69,1.07,-1.33,1.07,-1.33,1.34,1.46,1.05,2.41,2.41,2.41
69.37,1.04,-1.34,1.05,-1.34,1.34,1.48,1.03,2.38,2.39,2.39
70.07,1.02,-1.34,1.02,-1.35,1.34,1.49,1.00,2.37,2.36,2.37
70.77,0.99,-1.35,0.99,-1.35,1.35,1.50,0.97,2.34,2.34,2.34
71.48,0.96,-1.36,0.97,-1.36,1.36,1.50,0.95,2.32,2.32,2.32
72.19,0.95,-1.35,0.94,-1.36,1.36,1.50,0.92,2.31,2.30,2.30
72.91,0.90,-1.38,0.91,-1.36,1.37,1.50,0.89,2.27,2.28,2.28
73.64,0.89,-1.36,0.88,-1.37,1.37,1.50,0.86,2.26,2.25,2.25
74.38,0.85,-1.38,0.85,-1.38,1.37,1.49,0.83,2.22,2.22,2.23
75.12,0.82,-1.38,0.83,-1.37,1.37,1.48,0.80,2.19,2.20,2.21
75.87,0.81,-1.37,0.81,-1.37,1.37,1.47,0.77,2.18,2.18,2.18
76.63,0.79,-1.36,0.79,-1.37,1.37,1.45,0.74,2.16,2.16,2.15
77.40,0.76,-1.37,0.77,-1.36,1.36,1.43,0.71,2.12,2.13,2.13
78.17,0.75,-1.35,0.75,-1.35,1.36,1.41,0.68,2.11,2.11,2.10
78.95,0.72,-1.35,0.73,-1.35,1.35,1.38,0.65,2.07,2.07,2.07
79.74,0.72,-1.32,0.71,-1.34,1.34,1.35,0.62,2.06,2.04,2.05
80.54,0.67,-1.34,0.69,-1.33,1.33,1.32,0.59,2.00,2.02,2.02
81.35,0.67,-1.31,0.67,-1.32,1.32,1.29,0.56,1.99,1.99,1.99
82.16,0.67,-1.29,0.65,-1.31,1.30,1.26,0.53,1.97,1.95,1.96
82.98,0.62,-1.30,0.64,-1.29,1.28,1.22,0.50,1.91,1.92,1.93
83.81,0.62,-1.27,0.63,-1.27,1.27,1.19,0.48,1.89,1.89,1.90
84.65,0.62,-1.24,0.62,-1.25,1.25,1.15,0.45,1.87,1.87,1.86
85.50,0.62,-1.21,0.61,-1.22,1.23,1.11,0.42,1.85,1.84,1.83
86.35,0.60,-1.20,0.60,-1.20,1.20,1.07,0.39,1.80,1.80,1.80
87.22,0.58,-1.18,0.59,-1.18,1.17,1.03,0.36,1.76,1.76,1.77
88.09,0.58,-1.15,0.58,-1.15,1.15,0.99,0.33,1.73,1.73,1.73
88.97,0.58,-1.12,0.58,-1.12,1.11,0.95,0.31,1.70,1.70,1.70
89.86,0.58,-1.08,0.58,-1.08,1.08,0.91,0.28,1.67,1.67,1.67
90.76,0.58,-1.05,0.58,-1.05,1.05,0.87,0.25,1.63,1.63,1.63
91.66,0.58,-1.01,0.58,-1.01,1.02,0.83,0.22,1.60,1.60,1.60
92.58,0.58,-0.98,0.58,-0.98,0.98,0.79,0.20,1.56,1.56,1.56
93.51,0.58,-0.94,0.58,-0.94,0.94,0.76,0.17,1.52,1.52,1.52
94.44,0.58,-0.91,0.58,-0.91,0.91,0.72,0.15,1.49,1.49,1.49
95.39,0.58,-0.87,0.58,-0.87,0.87,0.68,0.12,1.45,1.45,1.45
96.34,0.58,-0.83,0.58,-0.83,0.83,0.64,0.09,1.42,1.42,1.41
97.30,0.58,-0.79,0.58,-0.79,0.80,0.60,0.07,1.38,1.38,1.38
98.28,0.58,-0.76,0.58,-0.76,0.76,0.56,0.04,1.34,1.34,1.34
99.26,0.58,-0.72,0.58,-0.72,0.72,0.53,0.02,1.30,1.29,1.30
100.25,0.58,-0.68,0.58,-0.68,0.67,0.49,-0.01,1.26,1.26,1.26
101.25,0.58,-0.64,0.59,-0.63,0.63,0.46,-0.03,1.21,1.22,1.23
102.27,0.61,-0.58,0.61,-0.58,0.59,0.42,-0.05,1.20,1.19,1.19
103.29,0.62,-0.53,0.62,-0.53,0.54,0.39,-0.08,1.17,1.16,1.15
104.32,0.62,-0.49,0.62,-0.49,0.50,0.35,-0.10,1.12,1.12,1.11
105.37,0.62,-0.45,0.62,-0.45,0.45,0.32,-0.12,1.08,1.07,1.07
106.42,0.62,-0.41,0.62,-0.41,0.41,0.28,-0.15,1.03,1.03,1.04
107.48,0.62,-0.38,0.63,-0.37,0.36,0.25,-0.17,0.98,0.99,1.00
108.56,0.65,-0.31,0.65,-0.31,0.31,0.22,-0.19,0.96,0.96,0.96
109.64,0.67,-0.25,0.66,-0.26,0.26,0.18,-0.21,0.93,0.92,0.92
110.74,0.67,-0.21,0.69,-0.20,0.21,0.15,-0.23,0.88,0.89,0.89
111.85,0.70,-0.15,0.70,-0.15,0.15,0.12,-0.25,0.85,0.85,0.85
112.97,0.72,-0.09,0.72,-0.09,0.09,0.08,-0.27,0.82,0.81,0.81
114.10,0.72,-0.05,0.73,-0.04,0.04,0.05,-0.29,0.76,0.77,0.77
115.24,0.76,0.03,0.75,0.02,-0.02,0.02,-0.31,0.74,0.73,0.74
116.39,0.76,0.06,0.78,0.08,-0.07,-0.02,-0.33,0.69,0.70,0.70
117.55,0.81,0.15,0.80,0.13,-0.13,-0.05,-0.35,0.68,0.67,0.66
118.73,0.81,0.18,0.81,0.18,-0.18,-0.08,-0.36,0.63,0.63,0.63
119.92,0.81,0.22,0.83,0.24,-0.23,-0.12,-0.38,0.58,0.60,0.59
121.12,0.85,0.30,0.84,0.28,-0.28,-0.15,-0.39,0.57,0.56,0.56
122.33,0.85,0.33,0.85,0.33,-0.33,-0.19,-0.41,0.52,0.52,0.52
123.55,0.85,0.37,0.86,0.38,-0.38,-0.22,-0.42,0.47,0.49,0.49
124.79,0.87,0.42,0.88,0.42,-0.42,-0.26,-0.44,0.45,0.45,0.45
126.03,0.90,0.48,0.89,0.47,-0.47,-0.29,-0.45,0.43,0.41,0.42
127.29,0.90,0.52,0.91,0.52,-0.52,-0.33,-0.46,0.38,0.39,0.39
128.57,0.90,0.55,0.92,0.57,-0.57,-0.36,-0.47,0.34,0.36,0.35
129.85,0.95,0.63,0.93,0.61,-0.61,-0.40,-0.48,0.34,0.32,0.32
131.15,0.95,0.66,0.95,0.66,-0.66,-0.44,-0.49,0.29,0.29,0.29
132.46,0.95,0.69,0.97,0.71,-0.70,-0.48,-0.50,0.25,0.27,0.26
133.79,0.99,0.76,0.98,0.75,-0.75,-0.52,-0.51,0.24,0.22,0.23
135.12,0.99,0.79,0.99,0.79,-0.80,-0.56,-0.52,0.20,0.20,0.20
136.48,0.99,0.82,1.01,0.84,-0.84,-0.60,-0.53,0.15,0.17,0.17
137.84,1.03,0.89,1.02,0.88,-0.89,-0.65,-0.53,0.15,0.13,0.14
139.22,1.04,0.93,1.04,0.93,-0.93,-0.69,-0.54,0.11,0.11,0.11
140.61,1.04,0.96,1.06,0.98,-0.97,-0.74,-0.55,0.07,0.09,0.08
142.02,1.09,1.04,1.07,1.02,-1.02,-0.78,-0.56,0.07,0.06,0.06
143.44,1.09,1.06,1.09,1.06,-1.06,-0.83,-0.56,0.03,0.03,0.03
144.87,1.10,1.10,1.11,1.11,-1.10,-0.88,-0.57,0.00,0.01,0.00
146.32,1.13,1.15,1.12,1.14,-1.14,-0.93,-0.58,-0.01,-0.03,-0.02
147.78,1.13,1.18,1.13,1.18,-1.18,-0.98,-0.58,-0.05,-0.05,-0.05
149.26,1.13,1.20,1.15,1.22,-1.22,-1.03,-0.59,-0.09,-0.07,-0.07
150.75,1.18,1.28,1.16,1.26,-1.26,-1.08,-0.60,-0.08,-0.10,-0.09
152.26,1.18,1.30,1.18,1.30,-1.30,-1.13,-0.60,-0.12,-0.12,-0.12
153.78,1.18,1.32,1.20,1.34,-1.34,-1.19,-0.61,-0.15,-0.13,-0.14
155.32,1.22,1.38,1.21,1.37,-1.37,-1.24,-0.62,-0.15,-0.16,-0.16
156.88,1.23,1.41,1.23,1.41,-1.40,-1.29,-0.63,-0.17,-0.18,-0.18
158.44,1.23,1.44,1.23,1.44,-1.43,-1.35,-0.64,-0.20,-0.20,-0.20
160.03,1.23,1.46,1.23,1.46,-1.46,-1.40,-0.65,-0.23,-0.23,-0.22
161.63,1.23,1.48,1.24,1.48,-1.49,-1.45,-0.66,-0.26,-0.25,-0.24
163.24,1.25,1.51,1.24,1.51,-1.51,-1.50,-0.67,-0.26,-0.27,-0.26
164.88,1.25,1.53,1.25,1.53,-1.53,-1.55,-0.68,-0.28,-0.28,-0.28
166.53,1.25,1.55,1.26,1.56,-1.56,-1.60,-0.69,-0.30,-0.29,-0.30
168.19,1.27,1.59,1.26,1.58,-1.58,-1.65,-0.70,-0.31,-0.31,-0.32
169.87,1.27,1.60,1.27,1.60,-1.60,-1.69,-0.71,-0.32,-0.33,-0.33
171.57,1.25,1.60,1.27,1.62,-1.61,-1.73,-0.73,-0.36,-0.35,-0.35
173.29,1.27,1.64,1.27,1.63,-1.63,-1.77,-0.74,-0.36,-0.36,-0.36
175.02,1.27,1.65,1.26,1.64,-1.64,-1.81,-0.75,-0.37,-0.38,-0.38
176.77,1.25,1.65,1.26,1.66,-1.65,-1.84,-0.77,-0.40,-0.39,-0.39
178.54,1.25,1.66,1.25,1.66,-1.66,-1.86,-0.78,-0.41,-0.41,-0.41
180.32,1.25,1.67,1.24,1.67,-1.67,-1.88,-0.80,-0.42,-0.43,-0.42
182.13,1.23,1.67,1.24,1.67,-1.68,-1.90,-0.82,-0.45,-0.44,-0.44
183.95,1.23,1.68,1.23,1.68,-1.69,-1.91,-0.83,-0.46,-0.46,-0.45
185.79,1.23,1.69,1.23,1.69,-1.70,-1.91,-0.85,-0.46,-0.46,-0.46
187.65,1.23,1.70,1.24,1.71,-1.70,-1.91,-0.87,-0.47,-0.46,-0.47
189.52,1.23,1.72,1.23,1.71,-1.70,-1.91,-0.89,-0.47,-0.47,-0.48
191.42,1.23,1.73,1.22,1.71,-1.71,-1.89,-0.91,-0.47,-0.49,-0.50
193.33,1.18,1.69,1.20,1.71,-1.71,-1.88,-0.93,-0.52,-0.50,-0.51
195.27,1.18,1.70,1.19,1.70,-1.70,-1.86,-0.95,-0.52,-0.52,-0.52
197.22,1.18,1.71,1.17,1.69,-1.70,-1.83,-0.97,-0.52,-0.53,-0.53
199.19,1.15,1.69,1.16,1.70,-1.69,-1.80,-0.99,-0.54,-0.53,-0.54
201.18,1.13,1.68,1.14,1.68,-1.68,-1.77,-1.02,-0.55,-0.54,-0.54
203.19,1.13,1.69,1.12,1.67,-1.67,-1.73,-1.04,-0.54,-0.56,-0.55
205.23,1.09,1.65,1.11,1.67,-1.67,-1.69,-1.06,-0.57,-0.56,-0.56
207.28,1.09,1.66,1.09,1.66,-1.66,-1.65,-1.08,-0.57,-0.57,-0.57
209.35,1.09,1.67,1.07,1.65,-1.65,-1.60,-1.10,-0.56,-0.58,-0.58
211.44,1.04,1.63,1.06,1.64,-1.65,-1.56,-1.12,-0.60,-0.59,-0.59
213.56,1.04,1.64,1.05,1.64,-1.64,-1.51,-1.14,-0.60,-0.60,-0.59
215.69,1.04,1.64,1.04,1.64,-1.64,-1.46,-1.16,-0.60,-0.60,-0.60
217.85,1.04,1.65,1.04,1.64,-1.64,-1.41,-1.18,-0.60,-0.61,-0.61
220.03,1.03,1.64,1.03,1.65,-1.65,-1.36,-1.20,-0.62,-0.62,-0.61
222.23,1.02,1.64,1.03,1.65,-1.66,-1.31,-1.22,-0.63,-0.62,-0.62
224.45,1.04,1.67,1.04,1.66,-1.66,-1.27,-1.23,-0.62,-0.63,-0.62
226.70,1.04,1.67,1.04,1.67,-1.67,-1.22,-1.25,-0.63,-0.63,-0.63
228.96,1.04,1.68,1.05,1.68,-1.68,-1.17,-1.26,-0.63,-0.63,-0.64
231.25,1.04,1.68,1.04,1.68,-1.68,-1.12,-1.28,-0.64,-0.64,-0.64
233.57,1.04,1.69,1.03,1.68,-1.67,-1.08,-1.29,-0.63,-0.64,-0.65
235.90,1.00,1.65,1.01,1.66,-1.66,-1.03,-1.29,-0.66,-0.65,-0.65
238.26,0.99,1.65,0.99,1.64,-1.64,-0.99,-1.30,-0.65,-0.65,-0.65
240.64,0.96,1.62,0.96,1.62,-1.61,-0.95,-1.30,-0.65,-0.65,-0.66
243.05,0.92,1.58,0.92,1.59,-1.58,-0.90,-1.31,-0.65,-0.65,-0.66
245.48,0.87,1.54,0.87,1.53,-1.53,-0.86,-1.31,-0.65,-0.66,-0.67
247.93,0.80,1.47,0.80,1.47,-1.47,-0.82,-1.30,-0.67,-0.66,-0.67
250.41,0.72,1.40,0.73,1.40,-1.40,-0.78,-1.30,-0.68,-0.67,-0.67
252.92,0.66,1.34,0.65,1.33,-1.33,-0.75,-1.29,-0.67,-0.68,-0.68
255.45,0.56,1.24,0.57,1.25,-1.25,-0.71,-1.28,-0.69,-0.68,-0.68
258.00,0.49,1.17,0.49,1.17,-1.17,-0.67,-1.27,-0.68,-0.68,-0.68
260.58,0.39,1.08,0.40,1.08,-1.09,-0.64,-1.26,-0.69,-0.69,-0.68
263.19,0.32,1.01,0.31,1.00,-1.00,-0.60,-1.24,-0.68,-0.69,-0.69
265.82,0.21,0.90,0.22,0.91,-0.91,-0.57,-1.22,-0.70,-0.69,-0.69
268.48,0.14,0.83,0.14,0.83,-0.83,-0.54,-1.20,-0.69,-0.69,-0.69
271.16,0.04,0.74,0.05,0.74,-0.74,-0.50,-1.18,-0.70,-0.70,-0.69
273.87,-0.03,0.67,-0.04,0.66,-0.66,-0.47,-1.16,-0.69,-0.70,-0.70
276.61,-0.13,0.57,-0.12,0.58,-0.58,-0.44,-1.13,-0.70,-0.70,-0.70
279.38,-0.21,0.49,-0.20,0.50,-0.50,-0.41,-1.10,-0.70,-0.70,-0.70
282.17,-0.28,0.42,-0.28,0.42,-0.42,-0.38,-1.07,-0.69,-0.70,-0.70
284.99,-0.36,0.35,-0.36,0.34,-0.34,-0.35,-1.04,-0.70,-0.70,-0.70
287.84,-0.44,0.27,-0.44,0.27,-0.27,-0.32,-1.01,-0.71,-0.70,-0.70
290.72,-0.52,0.19,-0.51,0.20,-0.20,-0.28,-0.98,-0.72,-0.71,-0.71
293.63,-0.57,0.14,-0.58,0.13,-0.13,-0.25,-0.95,-0.70,-0.71,-0.71
296.57,-0.64,0.07,-0.64,0.07,-0.07,-0.22,-0.91,-0.71,-0.71,-0.71
299.53,-0.70,0.01,-0.69,0.02,-0.02,-0.19,-0.88,-0.71,-0.71,-0.71
302.53,-0.75,-0.04,-0.75,-0.04,0.03,-0.16,-0.84,-0.71,-0.71,-0.71
305.55,-0.79,-0.08,-0.79,-0.08,0.08,-0.12,-0.81,-0.71,-0.71,-0.71
308.61,-0.84,-0.13,-0.84,-0.12,0.13,-0.09,-0.77,-0.71,-0.71,-0.71
311.69,-0.88,-0.17,-0.88,-0.17,0.17,-0.05,-0.74,-0.71,-0.71,-0.71
314.81,-0.92,-0.20,-0.92,-0.21,0.21,-0.02,-0.70,-0.71,-0.71,-0.71
317.96,-0.96,-0.24,-0.95,-0.24,0.24,0.02,-0.66,-0.72,-0.71,-0.71
321.14,-0.99,-0.27,-0.99,-0.27,0.28,0.06,-0.63,-0.71,-0.71,-0.71
324.35,-1.02,-0.30,-1.02,-0.31,0.31,0.10,-0.59,-0.71,-0.72,-0.71
327.59,-1.06,-0.34,-1.05,-0.34,0.34,0.15,-0.55,-0.72,-0.71,-0.71
330.87,-1.09,-0.37,-1.08,-0.37,0.37,0.19,-0.52,-0.72,-0.72,-0.71
334.18,-1.10,-0.38,-1.11,-0.39,0.39,0.24,-0.48,-0.70,-0.71,-0.71
337.52,-1.15,-0.43,-1.13,-0.42,0.42,0.28,-0.45,-0.73,-0.71,-0.71
340.90,-1.15,-0.43,-1.16,-0.44,0.44,0.33,-0.41,-0.70,-0.71,-0.71
344.30,-1.19,-0.47,-1.18,-0.47,0.47,0.38,-0.37,-0.72,-0.72,-0.71
347.75,-1.20,-0.48,-1.20,-0.49,0.49,0.43,-0.34,-0.71,-0.71,-0.71
351.23,-1.23,-0.51,-1.22,-0.50,0.51,0.48,-0.30,-0.72,-0.71,-0.71
354.74,-1.24,-0.52,-1.24,-0.52,0.53,0.52,-0.27,-0.71,-0.71,-0.71
358.28,-1.24,-0.52,-1.26,-0.54,0.54,0.57,-0.23,-0.70,-0.72,-0.71
361.87,-1.29,-0.57,-1.27,-0.56,0.55,0.61,-0.20,-0.73,-0.72,-0.71
365.49,-1.29,-0.57,-1.29,-0.57,0.56,0.64,-0.16,-0.72,-0.72,-0.71
369.14,-1.29,-0.57,-1.29,-0.58,0.57,0.67,-0.13,-0.72,-0.72,-0.71
372.83,-1.29,-0.57,-1.29,-0.57,0.58,0.68,-0.10,-0.71,-0.71,-0.71
376.56,-1.29,-0.58,-1.29,-0.58,0.58,0.70,-0.06,-0.71,-0.71,-0.71
380.33,-1.29,-0.58,-1.29,-0.58,0.58,0.70,-0.03,-0.71,-0.71,-0.71
384.13,-1.29,-0.58,-1.29,-0.58,0.58,0.69,0.00,-0.71,-0.71,-0.71
387.97,-1.29,-0.58,-1.29,-0.58,0.58,0.68,0.04,-0.71,-0.71,-0.71
391.85,-1.29,-0.58,-1.29,-0.58,0.57,0.66,0.07,-0.72,-0.72,-0.71
395.77,-1.29,-0.58,-1.29,-0.58,0.57,0.63,0.10,-0.72,-0.72,-0.71
399.73,-1.29,-0.58,-1.27,-0.56,0.56,0.60,0.13,-0.73,-0.71,-0.71
403.72,-1.24,-0.53,-1.25,-0.55,0.55,0.57,0.16,-0.69,-0.70,-0.71
407.76,-1.24,-0.53,-1.24,-0.54,0.54,0.54,0.19,-0.70,-0.70,-0.71
411.84,-1.24,-0.53,-1.23,-0.52,0.53,0.50,0.22,-0.71,-0.70,-0.71
415.96,-1.24,-0.53,-1.22,-0.52,0.52,0.47,0.25,-0.72,-0.71,-0.71
420.12,-1.20,-0.49,-1.22,-0.51,0.50,0.43,0.28,-0.69,-0.71,-0.71
424.32,-1.20,-0.49,-1.20,-0.49,0.49,0.40,0.31,-0.71,-0.71,-0.71
428.56,-1.20,-0.49,-1.18,-0.47,0.48,0.37,0.34,-0.72,-0.70,-0.70
432.85,-1.15,-0.44,-1.17,-0.46,0.46,0.34,0.36,-0.69,-0.71,-0.70
437.18,-1.15,-0.45,-1.14,-0.44,0.44,0.31,0.39,-0.70,-0.70,-0.70
441.55,-1.13,-0.43,-1.12,-0.42,0.43,0.29,0.41,-0.70,-0.70,-0.70
445.96,-1.10,-0.40,-1.11,-0.41,0.41,0.27,0.44,-0.69,-0.70,-0.70
450.42,-1.10,-0.40,-1.09,-0.39,0.38,0.24,0.46,-0.71,-0.70,-0.70
454.93,-1.06,-0.36,-1.06,-0.37,0.36,0.22,0.48,-0.70,-0.70,-0.70
459.48,-1.05,-0.35,-1.04,-0.34,0.34,0.21,0.50,-0.71,-0.70,-0.70
464.07,-1.01,-0.31,-1.01,-0.32,0.31,0.19,0.52,-0.69,-0.70,-0.70
468.71,-0.99,-0.29,-0.98,-0.29,0.29,0.18,0.53,-0.70,-0.69,-0.70
473.40,-0.96,-0.26,-0.96,-0.26,0.26,0.16,0.55,-0.69,-0.69,-0.69
478.13,-0.92,-0.22,-0.93,-0.23,0.24,0.15,0.56,-0.68,-0.69,-0.69
482.91,-0.92,-0.22,-0.90,-0.21,0.21,0.14,0.57,-0.70,-0.69,-0.69
487.74,-0.87,-0.18,-0.88,-0.19,0.19,0.13,0.58,-0.68,-0.69,-0.69
492.62,-0.87,-0.18,-0.86,-0.17,0.17,0.12,0.59,-0.70,-0.69,-0.69
497.55,-0.85,-0.16,-0.84,-0.15,0.15,0.11,0.59,-0.70,-0.69,-0.69
502.52,-0.82,-0.13,-0.83,-0.14,0.14,0.10,0.59,-0.68,-0.69,-0.69
507.55,-0.82,-0.13,-0.80,-0.12,0.12,0.10,0.59,-0.69,-0.68,-0.69
512.62,-0.78,-0.09,-0.79,-0.10,0.11,0.09,0.59,-0.67,-0.68,-0.69
