frequency,raw,error,smoothed,error_smoothed,equalization,parametric_eq,fixed_band_eq,equalized_raw,equalized_smoothed,target
20.00,18.47,10.81,18.47,10.82,-10.81,-11.05,-4.61,7.65,7.66,7.65
20.20,18.43,10.80,18.43,10.80,-10.80,-11.02,-4.73,7.63,7.63,7.62
20.40,18.39,10.78,18.38,10.78,-10.78,-10.99,-4.85,7.61,7.60,7.60
20.61,18.34,10.75,18.34,10.76,-10.76,-10.97,-4.98,7.58,7.58,7.58
20.81,18.30,10.73,18.30,10.74,-10.74,-10.94,-5.11,7.56,7.56,7.56
21.02,18.26,10.71,18.26,10.71,-10.72,-10.91,-5.25,7.54,7.54,7.54
21.23,18.22,10.69,18.21,10.69,-10.69,-10.88,-5.39,7.52,7.52,7.52
21.44,18.17,10.66,18.17,10.67,-10.67,-10.85,-5.53,7.50,7.50,7.50
21.66,18.13,10.65,18.13,10.64,-10.64,-10.82,-5.67,7.49,7.49,7.48
21.87,18.09,10.62,18.08,10.62,-10.61,-10.79,-5.82,7.47,7.47,7.47
22.09,18.04,10.59,18.04,10.59,-10.58,-10.76,-5.98,7.45,7.46,7.45
22.31,18.00,10.56,18.00,10.55,-10.55,-10.72,-6.14,7.44,7.44,7.44
22.54,17.95,10.52,17.95,10.52,-10.52,-10.69,-6.30,7.43,7.43,7.43
22.76,17.91,10.49,17.90,10.49,-10.49,-10.66,-6.47,7.42,7.42,7.42
22.99,17.86,10.45,17.86,10.45,-10.45,-10.62,-6.64,7.40,7.41,7.41
23.22,17.82,10.42,17.82,10.42,-10.42,-10.59,-6.82,7.40,7.40,7.40
23.45,17.78,10.39,17.78,10.39,-10.39,-10.55,-7.00,7.39,7.39,7.39
23.69,17.74,10.36,17.74,10.36,-10.36,-10.52,-7.18,7.38,7.38,7.38
23.92,17.70,10.32,17.70,10.32,-10.32,-10.48,-7.37,7.37,7.37,7.38
24.16,17.66,10.29,17.66,10.29,-10.29,-10.44,-7.56,7.36,7.37,7.37
24.40,17.63,10.26,17.62,10.26,-10.26,-10.41,-7.76,7.37,7.36,7.37
24.65,17.59,10.23,17.59,10.23,-10.23,-10.37,-7.96,7.36,7.36,7.35
24.89,17.55,10.19,17.55,10.20,-10.20,-10.33,-8.17,7.35,7.35,7.35
25.14,17.51,10.16,17.51,10.16,-10.16,-10.29,-8.38,7.34,7.34,7.34
25.39,17.47,10.13,17.47,10.13,-10.13,-10.26,-8.59,7.34,7.34,7.33
25.65,17.43,10.10,17.43,10.10,-10.09,-10.22,-8.80,7.33,7.33,7.33
25.91,17.39,10.07,17.39,10.06,-10.06,-10.18,-9.02,7.33,7.33,7.32
26.16,17.35,10.03,17.35,10.03,-10.03,-10.14,-9.24,7.32,7.32,7.32
26.43,17.31,9.99,17.31,9.99,-10.00,-10.10,-9.46,7.31,7.31,7.32
26.69,17.27,9.96,17.27,9.96,-9.97,-10.06,-9.68,7.30,7.30,7.31
26.96,17.24,9.93,17.24,9.94,-9.94,-10.02,-9.90,7.30,7.30,7.31
27.23,17.22,9.92,17.21,9.91,-9.92,-9.98,-10.12,7.30,7.30,7.30
27.50,17.19,9.89,17.19,9.89,-9.89,-9.93,-10.34,7.30,7.30,7.29
27.77,17.16,9.86,17.16,9.87,-9.87,-9.89,-10.55,7.29,7.29,7.29
28.05,17.14,9.86,17.13,9.85,-9.85,-9.85,-10.76,7.29,7.29,7.28
28.33,17.11,9.83,17.11,9.83,-9.83,-9.81,-10.95,7.28,7.28,7.28
28.62,17.08,9.80,17.08,9.80,-9.80,-9.77,-11.14,7.28,7.28,7.28
28.90,17.05,9.78,17.05,9.78,-9.77,-9.72,-11.32,7.27,7.27,7.27
29.19,17.02,9.75,17.02,9.75,-9.74,-9.68,-11.48,7.28,7.27,7.27
29.48,16.98,9.71,16.98,9.71,-9.71,-9.64,-11.63,7.27,7.27,7.27
29.78,16.94,9.67,16.94,9.67,-9.67,-9.60,-11.77,7.27,7.26,7.26
30.08,16.89,9.63,16.89,9.63,-9.63,-9.55,-11.88,7.26,7.26,7.26
30.38,16.84,9.59,16.84,9.59,-9.59,-9.51,-11.97,7.25,7.25,7.25
30.68,16.80,9.55,16.79,9.54,-9.54,-9.46,-12.04,7.25,7.25,7.25
30.99,16.75,9.50,16.75,9.50,-9.50,-9.42,-12.09,7.25,7.25,7.25
31.30,16.70,9.45,16.70,9.46,-9.46,-9.38,-12.12,7.24,7.24,7.25
31.61,16.65,9.41,16.65,9.41,-9.42,-9.33,-12.12,7.23,7.23,7.23
31.93,16.60,9.37,16.60,9.37,-9.38,-9.29,-12.10,7.22,7.22,7.23
32.24,16.56,9.33,16.56,9.33,-9.34,-9.24,-12.06,7.22,7.22,7.23
32.57,16.52,9.30,16.52,9.30,-9.30,-9.20,-11.99,7.22,7.22,7.22
32.89,16.48,9.26,16.48,9.26,-9.26,-9.15,-11.91,7.22,7.22,7.21
33.22,16.44,9.23,16.44,9.23,-9.22,-9.11,-11.81,7.22,7.22,7.21
33.55,16.39,9.19,16.39,9.18,-9.18,-9.06,-11.69,7.21,7.21,7.20
33.89,16.34,9.14,16.34,9.14,-9.14,-9.02,-11.56,7.20,7.20,7.20
34.23,16.28,9.08,16.28,9.09,-9.10,-8.97,-11.42,7.18,7.18,7.19
34.57,16.24,9.06,16.24,9.05,-9.06,-8.93,-11.27,7.18,7.18,7.18
34.92,16.19,9.01,16.19,9.01,-9.01,-8.88,-11.11,7.18,7.18,7.18
35.27,16.14,8.96,16.14,8.97,-8.96,-8.83,-10.94,7.18,7.18,7.18
35.62,16.09,8.93,16.09,8.92,-8.91,-8.79,-10.77,7.18,7.18,7.16
35.97,16.03,8.87,16.03,8.87,-8.86,-8.74,-10.60,7.17,7.17,7.16
36.33,15.97,8.81,15.96,8.81,-8.81,-8.70,-10.42,7.16,7.16,7.16
36.70,15.90,8.75,15.90,8.75,-8.76,-8.65,-10.24,7.14,7.14,7.15
37.06,15.84,8.69,15.84,8.70,-8.71,-8.61,-10.07,7.13,7.14,7.15
37.43,15.79,8.65,15.79,8.65,-8.66,-8.56,-9.89,7.13,7.13,7.13
37.81,15.75,8.62,15.74,8.61,-8.61,-8.51,-9.72,7.14,7.13,7.13
38.19,15.70,8.57,15.70,8.57,-8.57,-8.47,-9.55,7.13,7.12,7.13
38.57,15.65,8.54,15.65,8.53,-8.54,-8.42,-9.39,7.11,7.11,7.11
38.95,15.60,8.49,15.60,8.49,-8.50,-8.38,-9.22,7.09,7.10,7.11
39.34,15.56,8.46,15.56,8.46,-8.47,-8.33,-9.07,7.09,7.09,7.09
39.74,15.53,8.44,15.53,8.44,-8.44,-8.28,-8.91,7.09,7.09,7.09
40.14,15.49,8.41,15.49,8.41,-8.40,-8.24,-8.77,7.09,7.09,7.07
40.54,15.45,8.38,15.44,8.37,-8.36,-8.19,-8.62,7.08,7.08,7.07
40.94,15.39,8.32,15.39,8.33,-8.33,-8.15,-8.49,7.06,7.07,7.06
41.35,15.34,8.28,15.34,8.28,-8.28,-8.10,-8.36,7.05,7.05,7.06
41.76,15.29,8.24,15.29,8.24,-8.24,-8.05,-8.23,7.05,7.05,7.05
42.18,15.24,8.19,15.24,8.19,-8.19,-8.01,-8.11,7.05,7.05,7.05
42.60,15.19,8.15,15.18,8.14,-8.14,-7.96,-7.99,7.05,7.04,7.04
43.03,15.13,8.09,15.13,8.09,-8.09,-7.92,-7.88,7.04,7.04,7.04
43.46,15.07,8.03,15.07,8.03,-8.03,-7.87,-7.78,7.03,7.04,7.04
43.90,15.01,7.98,15.01,7.98,-7.98,-7.83,-7.68,7.03,7.03,7.03
44.33,14.96,7.94,14.95,7.93,-7.93,-7.78,-7.59,7.03,7.02,7.02
44.78,14.89,7.87,14.89,7.88,-7.88,-7.73,-7.50,7.01,7.01,7.01
45.23,14.83,7.82,14.83,7.82,-7.82,-7.69,-7.42,7.00,7.00,7.01
45.68,14.76,7.76,14.76,7.77,-7.77,-7.64,-7.35,6.99,6.99,7.00
46.13,14.71,7.72,14.71,7.72,-7.72,-7.60,-7.27,6.99,6.99,6.99
46.60,14.66,7.68,14.65,7.67,-7.67,-7.55,-7.21,6.99,6.99,6.98
47.06,14.60,7.63,14.59,7.62,-7.62,-7.51,-7.15,6.98,6.98,6.97
47.53,14.52,7.57,14.52,7.57,-7.56,-7.46,-7.09,6.95,6.96,6.95
48.01,14.45,7.51,14.45,7.51,-7.51,-7.42,-7.04,6.94,6.94,6.94
48.49,14.38,7.45,14.38,7.45,-7.46,-7.37,-6.99,6.92,6.92,6.93
48.97,14.33,7.41,14.32,7.40,-7.41,-7.33,-6.95,6.92,6.92,6.92
49.46,14.27,7.36,14.27,7.36,-7.35,-7.28,-6.91,6.91,6.91,6.91
49.96,14.21,7.31,14.20,7.31,-7.30,-7.24,-6.88,6.91,6.90,6.90
50.46,14.14,7.25,14.14,7.25,-7.25,-7.19,-6.85,6.89,6.89,6.89
50.96,14.07,7.19,14.08,7.20,-7.20,-7.15,-6.82,6.87,6.88,6.87
51.47,14.02,7.15,14.01,7.15,-7.15,-7.10,-6.79,6.87,6.87,6.87
51.99,13.96,7.10,13.95,7.09,-7.09,-7.06,-6.77,6.86,6.86,6.86
52.51,13.89,7.04,13.89,7.04,-7.04,-7.01,-6.75,6.85,6.85,6.85
53.03,13.82,6.99,13.82,6.99,-6.99,-6.97,-6.74,6.83,6.83,6.83
53.56,13.76,6.94,13.76,6.94,-6.94,-6.92,-6.72,6.82,6.82,6.82
54.10,13.70,6.89,13.70,6.89,-6.89,-6.87,-6.71,6.81,6.80,6.81
54.64,13.64,6.84,13.64,6.84,-6.84,-6.83,-6.69,6.79,6.79,6.80
55.18,13.58,6.80,13.58,6.80,-6.80,-6.78,-6.68,6.78,6.78,6.78
55.74,13.52,6.75,13.52,6.75,-6.75,-6.74,-6.67,6.77,6.77,6.76
56.29,13.45,6.69,13.45,6.70,-6.70,-6.69,-6.65,6.75,6.76,6.76
56.86,13.39,6.65,13.39,6.65,-6.64,-6.65,-6.64,6.74,6.74,6.74
57.42,13.32,6.60,13.32,6.59,-6.59,-6.60,-6.63,6.73,6.73,6.72
58.00,13.25,6.54,13.25,6.54,-6.54,-6.56,-6.61,6.71,6.71,6.71
58.58,13.17,6.48,13.17,6.48,-6.48,-6.51,-6.59,6.69,6.69,6.69
59.16,13.10,6.43,13.09,6.42,-6.42,-6.46,-6.57,6.67,6.67,6.67
59.76,13.02,6.36,13.02,6.36,-6.37,-6.42,-6.55,6.65,6.65,6.66
60.35,12.95,6.31,12.95,6.31,-6.31,-6.37,-6.52,6.64,6.64,6.64
60.96,12.88,6.26,12.87,6.26,-6.26,-6.32,-6.49,6.62,6.62,6.62
61.57,12.80,6.20,12.80,6.21,-6.21,-6.27,-6.46,6.59,6.59,6.59
62.18,12.73,6.16,12.72,6.15,-6.16,-6.23,-6.42,6.57,6.57,6.57
62.80,12.65,6.10,12.65,6.11,-6.11,-6.18,-6.38,6.54,6.54,6.55
63.43,12.58,6.06,12.58,6.06,-6.06,-6.13,-6.34,6.52,6.52,6.52
64.07,12.52,6.02,12.51,6.01,-6.01,-6.08,-6.29,6.51,6.50,6.49
64.71,12.44,5.97,12.44,5.97,-5.97,-6.03,-6.24,6.47,6.47,6.47
65.35,12.36,5.92,12.36,5.92,-5.92,-5.97,-6.18,6.44,6.44,6.44
66.01,12.29,5.88,12.29,5.88,-5.88,-5.92,-6.13,6.41,6.41,6.41
66.67,12.22,5.83,12.22,5.83,-5.83,-5.87,-6.06,6.38,6.38,6.38
67.33,12.15,5.79,12.14,5.79,-5.79,-5.81,-6.00,6.36,6.35,6.35
68.01,12.07,5.74,12.07,5.75,-5.75,-5.76,-5.94,6.32,6.32,6.32
68.69,12.00,5.71,12.00,5.71,-5.71,-5.70,-5.87,6.29,6.29,6.29
69.37,11.93,5.67,11.93,5.67,-5.66,-5.65,-5.80,6.26,6.26,6.26
70.07,11.86,5.63,11.85,5.63,-5.62,-5.59,-5.73,6.23,6.23,6.23
70.77,11.78,5.58,11.78,5.58,-5.58,-5.53,-5.65,6.20,6.20,6.19
71.48,11.70,5.53,11.70,5.54,-5.54,-5.47,-5.58,6.16,6.16,6.17
72.19,11.63,5.49,11.63,5.50,-5.50,-5.42,-5.51,6.13,6.13,6.13
72.91,11.56,5.46,11.55,5.45,-5.45,-5.36,-5.44,6.10,6.10,6.10
73.64,11.48,5.42,11.47,5.41,-5.41,-5.31,-5.36,6.07,6.06,6.06
74.38,11.39,5.36,11.39,5.37,-5.37,-5.25,-5.29,6.02,6.02,6.03
75.12,11.32,5.33,11.32,5.32,-5.33,-5.20,-5.22,5.99,5.99,5.99
75.87,11.25,5.28,11.25,5.29,-5.29,-5.16,-5.15,5.96,5.96,5.96
76.63,11.18,5.26,11.17,5.25,-5.25,-5.12,-5.09,5.93,5.92,5.92
77.40,11.10,5.22,11.10,5.21,-5.21,-5.08,-5.02,5.89,5.89,5.88
78.17,11.02,5.17,11.02,5.18,-5.17,-5.05,-4.96,5.85,5.85,5.85
78.95,10.94,5.13,10.93,5.13,-5.13,-5.02,-4.89,5.81,5.81,5.80
79.74,10.85,5.09,10.85,5.08,-5.08,-4.99,-4.84,5.76,5.76,5.76
80.54,10.76,5.03,10.76,5.04,-5.04,-4.97,-4.78,5.72,5.72,5.73
81.35,10.68,5.00,10.67,4.99,-5.00,-4.95,-4.73,5.68,5.67,5.68
82.16,10.59,4.95,10.59,4.95,-4.96,-4.93,-4.68,5.63,5.63,5.63
82.98,10.50,4.91,10.50,4.91,-4.91,-4.91,-4.63,5.58,5.59,5.59
83.81,10.42,4.88,10.41,4.87,-4.87,-4.89,-4.58,5.54,5.54,5.54
84.65,10.33,4.83,10.33,4.83,-4.83,-4.88,-4.54,5.49,5.50,5.50
85.50,10.25,4.80,10.25,4.80,-4.79,-4.86,-4.50,5.45,5.45,5.45
86.35,10.16,4.76,10.16,4.76,-4.76,-4.84,-4.47,5.40,5.40,5.40
87.22,10.07,4.72,10.07,4.72,-4.72,-4.82,-4.44,5.35,5.35,5.35
88.09,9.98,4.68,9.98,4.68,-4.68,-4.80,-4.41,5.30,5.30,5.30
88.97,9.89,4.64,9.89,4.64,-4.65,-4.78,-4.38,5.24,5.24,5.24
89.86,9.80,4.61,9.80,4.61,-4.61,-4.75,-4.36,5.19,5.19,5.19
90.76,9.72,4.58,9.71,4.58,-4.58,-4.73,-4.34,5.14,5.14,5.14
91.66,9.63,4.54,9.63,4.55,-4.55,-4.71,-4.33,5.08,5.09,5.08
92.58,9.55,4.52,9.55,4.52,-4.51,-4.68,-4.31,5.03,5.03,5.03
93.51,9.47,4.49,9.46,4.49,-4.48,-4.65,-4.30,4.98,4.98,4.98
94.44,9.38,4.46,9.38,4.46,-4.46,-4.63,-4.30,4.92,4.92,4.92
95.39,9.29,4.42,9.29,4.43,-4.43,-4.60,-4.29,4.86,4.86,4.86
96.34,9.22,4.41,9.21,4.40,-4.41,-4.57,-4.29,4.81,4.81,4.81
97.30,9.14,4.38,9.14,4.38,-4.38,-4.54,-4.29,4.75,4.75,4.76
98.28,9.07,4.36,9.07,4.36,-4.36,-4.51,-4.29,4.70,4.70,4.70
99.26,8.99,4.34,8.99,4.34,-4.35,-4.48,-4.30,4.64,4.65,4.65
100.25,8.93,4.34,8.92,4.33,-4.33,-4.45,-4.31,4.59,4.59,4.59
101.25,8.86,4.32,8.86,4.32,-4.32,-4.41,-4.32,4.54,4.53,4.53
102.27,8.79,4.31,8.79,4.31,-4.31,-4.38,-4.33,4.48,4.48,4.48
103.29,8.72,4.30,8.72,4.30,-4.30,-4.35,-4.34,4.42,4.42,4.42
104.32,8.66,4.29,8.66,4.29,-4.29,-4.32,-4.35,4.36,4.36,4.37
105.37,8.60,4.29,8.60,4.28,-4.29,-4.28,-4.37,4.31,4.31,4.31
106.42,8.54,4.28,8.54,4.28,-4.28,-4.25,-4.38,4.26,4.26,4.25
107.48,8.47,4.26,8.47,4.27,-4.27,-4.21,-4.40,4.20,4.20,4.21
108.56,8.41,4.26,8.41,4.26,-4.26,-4.18,-4.41,4.15,4.15,4.15
109.64,8.34,4.25,8.34,4.25,-4.25,-4.14,-4.43,4.09,4.09,4.09
110.74,8.27,4.23,8.27,4.23,-4.24,-4.11,-4.44,4.03,4.03,4.03
111.85,8.20,4.22,8.20,4.22,-4.22,-4.07,-4.45,3.98,3.98,3.98
112.97,8.13,4.20,8.13,4.21,-4.21,-4.03,-4.46,3.92,3.93,3.93
114.10,8.07,4.20,8.06,4.19,-4.19,-4.00,-4.46,3.88,3.87,3.87
115.24,7.99,4.17,7.99,4.17,-4.17,-3.96,-4.47,3.82,3.82,3.82
116.39,7.91,4.15,7.91,4.15,-4.15,-3.92,-4.47,3.76,3.77,3.76
117.55,7.83,4.11,7.83,4.12,-4.12,-3.89,-4.47,3.71,3.71,3.71
118.73,7.76,4.10,7.75,4.09,-4.09,-3.85,-4.46,3.67,3.66,3.66
119.92,7.67,4.06,7.67,4.06,-4.06,-3.81,-4.45,3.61,3.61,3.60
121.12,7.58,4.03,7.58,4.03,-4.03,-3.77,-4.43,3.55,3.56,3.55
122.33,7.50,3.99,7.49,3.99,-3.99,-3.73,-4.42,3.51,3.50,3.51
123.55,7.41,3.95,7.41,3.95,-3.95,-3.69,-4.39,3.46,3.46,3.45
124.79,7.32,3.91,7.32,3.91,-3.91,-3.65,-4.36,3.41,3.41,3.41
126.03,7.24,3.88,7.23,3.87,-3.87,-3.61,-4.33,3.37,3.36,3.36
127.29,7.14,3.82,7.14,3.82,-3.83,-3.57,-4.29,3.31,3.31,3.32
128.57,7.05,3.78,7.05,3.78,-3.78,-3.53,-4.24,3.27,3.27,3.27
129.85,6.96,3.74,6.96,3.74,-3.74,-3.49,-4.19,3.22,3.22,3.22
131.15,6.87,3.70,6.87,3.70,-3.69,-3.45,-4.14,3.17,3.18,3.17
132.46,6.79,3.66,6.78,3.65,-3.65,-3.41,-4.08,3.14,3.13,3.13
133.79,6.69,3.60,6.69,3.61,-3.61,-3.37,-4.02,3.08,3.08,3.08
135.12,6.60,3.56,6.60,3.56,-3.56,-3.33,-3.95,3.03,3.04,3.04
136.48,6.51,3.52,6.51,3.52,-3.52,-3.28,-3.88,2.99,2.99,2.99
137.84,6.43,3.48,6.42,3.48,-3.48,-3.24,-3.81,2.95,2.95,2.95
139.22,6.34,3.44,6.34,3.44,-3.43,-3.20,-3.73,2.91,2.91,2.90
140.61,6.25,3.39,6.25,3.39,-3.39,-3.15,-3.65,2.86,2.86,2.86
142.02,6.17,3.34,6.16,3.34,-3.34,-3.11,-3.57,2.83,2.82,2.83
143.44,6.08,3.29,6.08,3.30,-3.30,-3.06,-3.49,2.78,2.78,2.78
144.87,6.00,3.25,6.00,3.25,-3.25,-3.02,-3.40,2.74,2.75,2.74
146.32,5.93,3.21,5.92,3.21,-3.21,-2.97,-3.32,2.72,2.71,2.71
147.78,5.84,3.16,5.84,3.16,-3.17,-2.93,-3.23,2.67,2.67,2.67
149.26,5.76,3.12,5.76,3.12,-3.12,-2.88,-3.14,2.64,2.64,2.64
150.75,5.68,3.07,5.68,3.08,-3.08,-2.84,-3.05,2.60,2.60,2.61
152.26,5.62,3.05,5.61,3.04,-3.04,-2.79,-2.96,2.58,2.57,2.57
153.78,5.54,3.00,5.54,3.00,-3.00,-2.74,-2.87,2.54,2.54,2.54
155.32,5.47,2.96,5.47,2.96,-2.96,-2.69,-2.78,2.51,2.51,2.51
156.88,5.40,2.92,5.40,2.92,-2.92,-2.64,-2.69,2.47,2.47,2.48
158.44,5.33,2.88,5.33,2.88,-2.88,-2.60,-2.61,2.44,2.44,2.44
160.03,5.26,2.85,5.26,2.85,-2.85,-2.55,-2.52,2.41,2.41,2.41
161.63,5.19,2.81,5.19,2.81,-2.81,-2.50,-2.43,2.38,2.38,2.38
163.24,5.13,2.77,5.12,2.77,-2.77,-2.45,-2.35,2.36,2.36,2.36
164.88,5.06,2.73,5.05,2.73,-2.73,-2.40,-2.26,2.33,2.33,2.33
166.53,4.98,2.68,4.98,2.68,-2.68,-2.35,-2.18,2.30,2.30,2.30
168.19,4.91,2.64,4.91,2.64,-2.64,-2.29,-2.10,2.27,2.27,2.27
169.87,4.84,2.58,4.84,2.59,-2.59,-2.24,-2.02,2.25,2.25,2.25
171.57,4.78,2.55,4.77,2.54,-2.54,-2.19,-1.94,2.24,2.23,2.23
173.29,4.69,2.49,4.69,2.49,-2.49,-2.14,-1.86,2.20,2.20,2.20
175.02,4.62,2.44,4.62,2.44,-2.44,-2.08,-1.78,2.18,2.18,2.18
176.77,4.54,2.38,4.54,2.38,-2.38,-2.03,-1.71,2.15,2.16,2.16
178.54,4.47,2.33,4.47,2.33,-2.33,-1.97,-1.63,2.14,2.14,2.14
180.32,4.39,2.27,4.38,2.27,-2.27,-1.92,-1.56,2.12,2.12,2.11
182.13,4.30,2.21,4.30,2.21,-2.20,-1.86,-1.49,2.09,2.09,2.09
183.95,4.21,2.14,4.21,2.14,-2.14,-1.81,-1.42,2.07,2.07,2.07
185.79,4.12,2.07,4.12,2.07,-2.07,-1.75,-1.35,2.05,2.05,2.05
187.65,4.03,2.00,4.03,2.00,-2.00,-1.69,-1.28,2.03,2.03,2.03
189.52,3.94,1.93,3.93,1.93,-1.93,-1.63,-1.21,2.01,2.00,2.01
191.42,3.84,1.85,3.84,1.85,-1.85,-1.58,-1.14,1.98,1.99,1.99
193.33,3.75,1.78,3.75,1.78,-1.78,-1.52,-1.08,1.97,1.97,1.97
195.27,3.66,1.71,3.65,1.70,-1.70,-1.46,-1.02,1.96,1.96,1.95
197.22,3.56,1.62,3.55,1.62,-1.61,-1.40,-0.95,1.94,1.94,1.94
199.19,3.45,1.53,3.45,1.53,-1.53,-1.34,-0.89,1.92,1.92,1.92
201.18,3.35,1.44,3.35,1.44,-1.44,-1.28,-0.83,1.90,1.91,1.91
203.19,3.26,1.36,3.25,1.35,-1.36,-1.21,-0.77,1.90,1.89,1.90
205.23,3.16,1.27,3.16,1.27,-1.27,-1.15,-0.71,1.88,1.88,1.89
207.28,3.06,1.18,3.06,1.18,-1.19,-1.09,-0.65,1.87,1.87,1.88
209.35,2.97,1.11,2.97,1.10,-1.10,-1.03,-0.59,1.86,1.86,1.86
211.44,2.88,1.02,2.88,1.02,-1.02,-0.96,-0.54,1.86,1.86,1.86
213.56,2.79,0.94,2.78,0.94,-0.94,-0.90,-0.48,1.85,1.85,1.85
215.69,2.69,0.85,2.69,0.86,-0.85,-0.83,-0.43,1.83,1.84,1.83
217.85,2.60,0.78,2.60,0.77,-0.77,-0.77,-0.37,1.83,1.83,1.82
220.03,2.51,0.69,2.50,0.69,-0.69,-0.70,-0.32,1.82,1.82,1.82
222.23,2.41,0.60,2.41,0.61,-0.61,-0.63,-0.26,1.80,1.81,1.81
224.45,2.32,0.52,2.32,0.52,-0.52,-0.57,-0.21,1.79,1.79,1.80
226.70,2.23,0.44,2.23,0.44,-0.44,-0.50,-0.16,1.79,1.78,1.79
228.96,2.14,0.35,2.14,0.36,-0.36,-0.43,-0.11,1.78,1.78,1.78
231.25,2.05,0.27,2.05,0.28,-0.28,-0.36,-0.06,1.77,1.77,1.77
233.57,1.97,0.20,1.97,0.20,-0.20,-0.29,-0.01,1.77,1.77,1.77
235.90,1.89,0.12,1.88,0.12,-0.11,-0.22,0.04,1.77,1.77,1.77
238.26,1.80,0.04,1.80,0.04,-0.03,-0.15,0.09,1.77,1.77,1.76
240.64,1.71,-0.05,1.71,-0.05,0.05,-0.08,0.14,1.76,1.76,1.76
243.05,1.62,-0.14,1.62,-0.14,0.14,-0.01,0.19,1.76,1.76,1.76
245.48,1.54,-0.22,1.53,-0.23,0.22,0.06,0.24,1.76,1.76,1.76
247.93,1.45,-0.31,1.45,-0.31,0.31,0.13,0.29,1.76,1.75,1.75
250.41,1.36,-0.40,1.36,-0.40,0.39,0.21,0.33,1.75,1.75,1.76
252.92,1.28,-0.48,1.28,-0.48,0.48,0.28,0.38,1.76,1.76,1.76
255.45,1.20,-0.57,1.20,-0.56,0.56,0.35,0.43,1.76,1.76,1.76
258.00,1.13,-0.63,1.12,-0.64,0.64,0.43,0.47,1.77,1.76,1.76
260.58,1.04,-0.72,1.04,-0.72,0.72,0.50,0.52,1.76,1.76,1.76
263.19,0.95,-0.81,0.95,-0.80,0.80,0.58,0.57,1.75,1.75,1.75
265.82,0.87,-0.88,0.87,-0.88,0.88,0.65,0.61,1.75,1.75,1.75
268.48,0.80,-0.95,0.79,-0.95,0.96,0.73,0.66,1.75,1.75,1.75
271.16,0.72,-1.03,0.72,-1.03,1.03,0.80,0.71,1.75,1.75,1.75
273.87,0.64,-1.10,0.64,-1.11,1.11,0.88,0.76,1.75,1.75,1.74
276.61,0.56,-1.19,0.56,-1.18,1.18,0.95,0.80,1.74,1.74,1.75
279.38,0.49,-1.25,0.49,-1.26,1.26,1.03,0.85,1.74,1.74,1.74
282.17,0.42,-1.33,0.41,-1.33,1.33,1.11,0.90,1.75,1.74,1.75
284.99,0.34,-1.40,0.34,-1.40,1.40,1.18,0.95,1.74,1.74,1.74
287.84,0.26,-1.48,0.26,-1.48,1.48,1.26,1.00,1.73,1.74,1.74
290.72,0.19,-1.55,0.19,-1.55,1.55,1.34,1.05,1.74,1.73,1.73
293.63,0.12,-1.61,0.11,-1.62,1.62,1.41,1.10,1.74,1.73,1.73
296.57,0.04,-1.69,0.04,-1.69,1.69,1.49,1.15,1.73,1.73,1.73
299.53,-0.03,-1.76,-0.03,-1.76,1.76,1.57,1.20,1.73,1.73,1.73
302.53,-0.11,-1.84,-0.11,-1.84,1.83,1.65,1.26,1.72,1.73,1.73
305.55,-0.17,-1.90,-0.18,-1.90,1.90,1.72,1.31,1.73,1.73,1.73
308.61,-0.24,-1.97,-0.24,-1.97,1.97,1.80,1.37,1.73,1.73,1.73
311.69,-0.31,-2.04,-0.31,-2.04,2.04,1.88,1.43,1.73,1.73,1.73
314.81,-0.38,-2.12,-0.38,-2.11,2.11,1.96,1.49,1.73,1.73,1.74
317.96,-0.44,-2.17,-0.45,-2.18,2.18,2.03,1.55,1.74,1.73,1.73
321.14,-0.52,-2.26,-0.52,-2.25,2.25,2.11,1.61,1.73,1.73,1.74
324.35,-0.58,-2.32,-0.58,-2.32,2.32,2.18,1.67,1.74,1.74,1.74
327.59,-0.64,-2.38,-0.64,-2.38,2.39,2.26,1.74,1.74,1.74,1.73
330.87,-0.70,-2.44,-0.71,-2.45,2.45,2.34,1.80,1.75,1.75,1.74
334.18,-0.77,-2.52,-0.77,-2.52,2.52,2.41,1.87,1.75,1.75,1.75
337.52,-0.84,-2.59,-0.84,-2.59,2.59,2.49,1.94,1.74,1.74,1.75
340.90,-0.91,-2.67,-0.91,-2.66,2.65,2.56,2.01,1.74,1.75,1.75
344.30,-0.96,-2.72,-0.97,-2.72,2.72,2.63,2.08,1.76,1.75,1.75
347.75,-1.02,-2.77,-1.03,-2.78,2.78,2.71,2.16,1.76,1.76,1.75
351.23,-1.09,-2.84,-1.09,-2.84,2.85,2.78,2.23,1.76,1.76,1.75
354.74,-1.16,-2.92,-1.16,-2.91,2.91,2.85,2.31,1.75,1.75,1.76
358.28,-1.22,-2.98,-1.22,-2.98,2.97,2.92,2.39,1.75,1.74,1.75
361.87,-1.28,-3.04,-1.28,-3.03,3.03,2.99,2.48,1.74,1.75,1.75
365.49,-1.33,-3.08,-1.33,-3.08,3.09,3.06,2.56,1.75,1.75,1.75
369.14,-1.38,-3.13,-1.39,-3.14,3.14,3.13,2.65,1.76,1.76,1.75
372.83,-1.44,-3.19,-1.44,-3.19,3.20,3.19,2.73,1.76,1.76,1.75
376.56,-1.50,-3.26,-1.50,-3.25,3.26,3.26,2.82,1.75,1.76,1.76
380.33,-1.55,-3.31,-1.56,-3.31,3.31,3.32,2.91,1.76,1.75,1.76
384.13,-1.61,-3.37,-1.61,-3.37,3.36,3.39,3.01,1.75,1.75,1.75
387.97,-1.67,-3.43,-1.67,-3.42,3.42,3.45,3.10,1.75,1.75,1.75
391.85,-1.72,-3.48,-1.72,-3.48,3.47,3.51,3.20,1.75,1.75,1.76
395.77,-1.76,-3.52,-1.76,-3.52,3.52,3.57,3.29,1.76,1.76,1.76
399.73,-1.80,-3.57,-1.80,-3.57,3.57,3.63,3.39,1.77,1.77,1.77
403.72,-1.84,-3.61,-1.85,-3.62,3.62,3.68,3.49,1.78,1.78,1.77
407.76,-1.89,-3.67,-1.89,-3.67,3.67,3.74,3.58,1.78,1.78,1.78
411.84,-1.94,-3.72,-1.94,-3.72,3.72,3.79,3.68,1.78,1.78,1.78
415.96,-1.99,-3.78,-1.99,-3.77,3.77,3.84,3.78,1.78,1.78,1.78
420.12,-2.04,-3.83,-2.04,-3.82,3.82,3.89,3.88,1.78,1.78,1.78
424.32,-2.08,-3.87,-2.08,-3.87,3.87,3.94,3.98,1.78,1.78,1.78
428.56,-2.12,-3.91,-2.12,-3.91,3.91,3.98,4.07,1.78,1.78,1.79
432.85,-2.16,-3.95,-2.16,-3.95,3.94,4.03,4.17,1.78,1.78,1.79
437.18,-2.19,-3.98,-2.19,-3.99,3.98,4.07,4.26,1.79,1.78,1.79
441.55,-2.22,-4.01,-2.22,-4.01,4.01,4.11,4.35,1.79,1.79,1.79
445.96,-2.25,-4.04,-2.25,-4.04,4.04,4.15,4.43,1.79,1.79,1.79
450.42,-2.27,-4.06,-2.28,-4.06,4.07,4.18,4.51,1.80,1.80,1.79
454.93,-2.30,-4.09,-2.30,-4.09,4.10,4.22,4.59,1.80,1.80,1.79
459.48,-2.34,-4.13,-2.34,-4.13,4.14,4.25,4.66,1.80,1.80,1.79
464.07,-2.38,-4.17,-2.38,-4.17,4.17,4.28,4.73,1.79,1.79,1.79
468.71,-2.43,-4.22,-2.43,-4.21,4.21,4.30,4.79,1.78,1.78,1.79
473.40,-2.46,-4.25,-2.47,-4.25,4.25,4.33,4.85,1.79,1.78,1.78
478.13,-2.50,-4.30,-2.50,-4.29,4.29,4.35,4.90,1.79,1.79,1.79
482.91,-2.53,-4.33,-2.53,-4.32,4.33,4.37,4.94,1.79,1.79,1.79
487.74,-2.56,-4.36,-2.56,-4.36,4.36,4.39,4.97,1.80,1.80,1.79
492.62,-2.59,-4.39,-2.59,-4.39,4.40,4.40,5.00,1.80,1.80,1.79
497.55,-2.62,-4.42,-2.62,-4.42,4.42,4.42,5.01,1.80,1.80,1.80
502.52,-2.65,-4.45,-2.65,-4.45,4.45,4.43,5.02,1.79,1.80,1.80
