frequency,raw,error,smoothed,error_smoothed,equalization,parametric_eq,fixed_band_eq,equalized_raw,equalized_smoothed,target
20.00,-9.57,-8.62,-9.57,-8.62,6.00,6.23,2.42,-3.57,-3.57,-0.94
20.20,-9.48,-8.53,-9.47,-8.53,6.00,6.21,2.49,-3.48,-3.47,-0.94
20.40,-9.38,-8.43,-9.38,-8.44,6.00,6.19,2.56,-3.38,-3.38,-0.94
20.61,-9.29,-8.35,-9.29,-8.35,6.00,6.17,2.64,-3.29,-3.29,-0.93
20.81,-9.19,-8.25,-9.19,-8.25,6.00,6.15,2.72,-3.19,-3.19,-0.93
21.02,-9.10,-8.16,-9.10,-8.16,6.00,6.13,2.80,-3.10,-3.10,-0.94
21.23,-9.00,-8.06,-9.00,-8.07,6.00,6.11,2.88,-3.00,-3.00,-0.94
21.44,-8.91,-7.98,-8.90,-7.98,6.00,6.09,2.96,-2.91,-2.90,-0.93
21.66,-8.81,-7.88,-8.81,-7.88,6.00,6.07,3.05,-2.81,-2.81,-0.93
21.87,-8.72,-7.79,-8.72,-7.79,6.00,6.05,3.14,-2.72,-2.72,-0.93
22.09,-8.63,-7.70,-8.63,-7.71,6.00,6.03,3.23,-2.63,-2.63,-0.93
22.31,-8.57,-7.65,-8.57,-7.64,6.00,6.00,3.32,-2.57,-2.57,-0.92
22.54,-8.51,-7.58,-8.50,-7.58,6.00,5.98,3.42,-2.51,-2.50,-0.93
22.76,-8.45,-7.53,-8.44,-7.52,6.00,5.95,3.52,-2.45,-2.44,-0.92
22.99,-8.38,-7.46,-8.39,-7.47,6.00,5.93,3.62,-2.38,-2.39,-0.92
23.22,-8.34,-7.42,-8.34,-7.42,6.00,5.91,3.72,-2.34,-2.34,-0.92
23.45,-8.30,-7.38,-8.30,-7.38,6.00,5.88,3.82,-2.30,-2.30,-0.92
23.69,-8.26,-7.34,-8.26,-7.34,6.00,5.86,3.93,-2.26,-2.26,-0.92
23.92,-8.21,-7.30,-8.20,-7.28,6.00,5.83,4.04,-2.21,-2.20,-0.91
24.16,-8.13,-7.21,-8.12,-7.20,6.00,5.80,4.15,-2.13,-2.12,-0.92
24.40,-8.02,-7.09,-8.02,-7.10,6.00,5.78,4.27,-2.02,-2.02,-0.92
24.65,-7.91,-6.99,-7.91,-6.98,6.00,5.75,4.38,-1.91,-1.91,-0.92
24.89,-7.80,-6.86,-7.81,-6.88,6.00,5.72,4.50,-1.80,-1.81,-0.93
25.14,-7.73,-6.79,-7.73,-6.80,6.00,5.69,4.62,-1.73,-1.73,-0.93
25.39,-7.69,-6.74,-7.68,-6.74,6.00,5.66,4.74,-1.69,-1.68,-0.94
25.65,-7.65,-6.70,-7.64,-6.70,6.00,5.63,4.86,-1.65,-1.64,-0.94
25.91,-7.61,-6.65,-7.61,-6.66,6.00,5.60,4.97,-1.61,-1.61,-0.96
26.16,-7.59,-6.63,-7.59,-6.63,6.00,5.57,5.09,-1.59,-1.59,-0.96
26.43,-7.57,-6.60,-7.56,-6.59,6.00,5.54,5.21,-1.57,-1.56,-0.97
26.69,-7.54,-6.57,-7.54,-6.57,6.00,5.51,5.33,-1.54,-1.54,-0.97
26.96,-7.52,-6.55,-7.54,-6.57,6.00,5.48,5.44,-1.52,-1.54,-0.97
27.23,-7.58,-6.61,-7.58,-6.60,6.00,5.44,5.55,-1.58,-1.58,-0.97
27.50,-7.64,-6.66,-7.65,-6.67,6.01,5.41,5.66,-1.63,-1.64,-0.98
27.77,-7.71,-6.73,-7.70,-6.73,6.03,5.38,5.77,-1.68,-1.67,-0.98
28.05,-7.74,-6.76,-7.69,-6.71,6.04,5.34,5.87,-1.70,-1.65,-0.97
28.33,-7.60,-6.62,-7.62,-6.65,6.03,5.31,5.96,-1.57,-1.59,-0.97
28.62,-7.47,-6.50,-7.49,-6.52,6.00,5.27,6.05,-1.47,-1.49,-0.97
28.90,-7.34,-6.36,-7.31,-6.34,5.94,5.23,6.13,-1.40,-1.37,-0.98
29.19,-7.12,-6.14,-7.11,-6.13,5.86,5.20,6.20,-1.26,-1.24,-0.98
29.48,-6.86,-5.88,-6.85,-5.88,5.76,5.16,6.26,-1.09,-1.09,-0.98
29.78,-6.60,-5.62,-6.61,-5.63,5.65,5.12,6.32,-0.95,-0.96,-0.98
30.08,-6.39,-5.40,-6.42,-5.44,5.53,5.08,6.36,-0.86,-0.90,-0.99
30.38,-6.31,-5.32,-6.30,-5.31,5.40,5.04,6.40,-0.91,-0.90,-0.99
30.68,-6.23,-5.24,-6.22,-5.22,5.27,5.00,6.42,-0.95,-0.94,-0.99
30.99,-6.15,-5.15,-6.15,-5.15,5.16,4.96,6.43,-0.99,-1.00,-1.00
31.30,-6.08,-5.07,-6.08,-5.07,5.05,4.92,6.43,-1.03,-1.03,-1.00
31.61,-6.01,-4.99,-6.01,-4.99,4.97,4.88,6.42,-1.04,-1.04,-1.02
31.93,-5.94,-4.92,-5.94,-4.92,4.90,4.83,6.39,-1.04,-1.04,-1.02
32.24,-5.87,-4.84,-5.86,-4.83,4.83,4.79,6.36,-1.03,-1.03,-1.03
32.57,-5.79,-4.75,-5.79,-4.76,4.76,4.75,6.31,-1.03,-1.04,-1.04
32.89,-5.72,-4.67,-5.72,-4.67,4.68,4.70,6.26,-1.04,-1.04,-1.04
33.22,-5.65,-4.60,-5.64,-4.59,4.59,4.66,6.19,-1.05,-1.05,-1.04
33.55,-5.57,-4.51,-5.57,-4.52,4.51,4.61,6.11,-1.06,-1.06,-1.06
33.89,-5.50,-4.43,-5.50,-4.43,4.42,4.56,6.03,-1.07,-1.07,-1.07
34.23,-5.42,-4.35,-5.42,-4.34,4.34,4.51,5.94,-1.08,-1.08,-1.07
34.57,-5.34,-4.26,-5.34,-4.26,4.25,4.47,5.84,-1.08,-1.09,-1.08
34.92,-5.26,-4.17,-5.26,-4.18,4.18,4.42,5.73,-1.08,-1.08,-1.08
35.27,-5.18,-4.09,-5.17,-4.09,4.11,4.37,5.62,-1.07,-1.06,-1.09
35.62,-5.10,-4.01,-5.09,-4.00,4.04,4.32,5.51,-1.06,-1.06,-1.09
35.97,-5.02,-3.92,-5.04,-3.94,3.97,4.26,5.38,-1.05,-1.07,-1.10
36.33,-5.00,-3.89,-5.01,-3.91,3.89,4.21,5.26,-1.11,-1.12,-1.10
36.70,-4.99,-3.88,-4.98,-3.87,3.82,4.16,5.14,-1.17,-1.16,-1.11
37.06,-4.95,-3.84,-4.91,-3.80,3.74,4.10,5.01,-1.20,-1.16,-1.11
37.43,-4.80,-3.68,-4.79,-3.68,3.67,4.05,4.88,-1.13,-1.12,-1.11
37.81,-4.64,-3.53,-4.67,-3.56,3.59,3.99,4.75,-1.05,-1.07,-1.10
38.19,-4.56,-3.45,-4.59,-3.48,3.52,3.94,4.62,-1.04,-1.07,-1.11
38.57,-4.56,-3.45,-4.55,-3.44,3.45,3.88,4.49,-1.11,-1.10,-1.11
38.95,-4.56,-3.44,-4.52,-3.41,3.40,3.82,4.36,-1.16,-1.12,-1.11
39.34,-4.48,-3.36,-4.46,-3.35,3.36,3.76,4.23,-1.12,-1.10,-1.12
39.74,-4.39,-3.27,-4.41,-3.29,3.34,3.71,4.10,-1.05,-1.07,-1.12
40.14,-4.36,-3.24,-4.40,-3.28,3.33,3.65,3.98,-1.03,-1.08,-1.12
40.54,-4.45,-3.32,-4.44,-3.32,3.32,3.58,3.85,-1.13,-1.13,-1.13
40.94,-4.54,-3.41,-4.48,-3.35,3.31,3.52,3.73,-1.23,-1.18,-1.13
41.35,-4.49,-3.34,-4.48,-3.34,3.29,3.46,3.60,-1.20,-1.20,-1.14
41.76,-4.42,-3.26,-4.44,-3.28,3.26,3.40,3.48,-1.16,-1.18,-1.16
42.18,-4.37,-3.20,-4.38,-3.21,3.22,3.33,3.37,-1.15,-1.17,-1.17
42.60,-4.35,-3.16,-4.34,-3.16,3.15,3.27,3.25,-1.20,-1.19,-1.19
43.03,-4.32,-3.12,-4.30,-3.09,3.07,3.21,3.13,-1.25,-1.23,-1.20
43.46,-4.22,-2.99,-4.22,-3.00,2.98,3.14,3.02,-1.24,-1.25,-1.23
43.90,-4.12,-2.88,-4.12,-2.88,2.88,3.07,2.91,-1.24,-1.24,-1.24
44.33,-4.02,-2.76,-4.01,-2.76,2.79,3.01,2.80,-1.22,-1.22,-1.26
44.78,-3.92,-2.65,-3.93,-2.66,2.71,2.94,2.70,-1.21,-1.22,-1.27
45.23,-3.86,-2.57,-3.87,-2.58,2.62,2.87,2.60,-1.24,-1.25,-1.29
45.68,-3.83,-2.53,-3.82,-2.52,2.53,2.80,2.49,-1.30,-1.29,-1.30
46.13,-3.79,-2.48,-3.78,-2.47,2.44,2.73,2.39,-1.35,-1.34,-1.31
46.60,-3.71,-2.39,-3.71,-2.39,2.35,2.66,2.30,-1.36,-1.36,-1.31
47.06,-3.62,-2.30,-3.61,-2.29,2.26,2.59,2.20,-1.36,-1.35,-1.32
47.53,-3.50,-2.17,-3.50,-2.17,2.16,2.52,2.11,-1.34,-1.33,-1.33
48.01,-3.37,-2.05,-3.38,-2.06,2.06,2.45,2.02,-1.31,-1.32,-1.32
48.49,-3.28,-1.96,-3.28,-1.96,1.97,2.38,1.93,-1.31,-1.31,-1.32
48.97,-3.19,-1.87,-3.17,-1.85,1.88,2.31,1.84,-1.31,-1.29,-1.32
49.46,-3.08,-1.76,-3.07,-1.76,1.80,2.23,1.76,-1.28,-1.28,-1.31
49.96,-2.97,-1.66,-3.00,-1.69,1.73,2.16,1.67,-1.24,-1.28,-1.31
50.46,-2.96,-1.66,-2.96,-1.66,1.67,2.09,1.59,-1.29,-1.29,-1.30
50.96,-2.96,-1.66,-2.94,-1.64,1.62,2.02,1.51,-1.34,-1.32,-1.30
51.47,-2.91,-1.61,-2.91,-1.61,1.58,1.94,1.43,-1.33,-1.33,-1.30
51.99,-2.86,-1.55,-2.85,-1.55,1.53,1.87,1.36,-1.33,-1.32,-1.31
52.51,-2.79,-1.47,-2.79,-1.48,1.48,1.79,1.28,-1.31,-1.31,-1.31
53.03,-2.73,-1.40,-2.76,-1.43,1.43,1.72,1.21,-1.30,-1.33,-1.32
53.56,-2.73,-1.39,-2.72,-1.39,1.37,1.65,1.14,-1.35,-1.35,-1.33
54.10,-2.71,-1.36,-2.67,-1.32,1.32,1.57,1.07,-1.39,-1.35,-1.34
54.64,-2.59,-1.22,-2.60,-1.24,1.26,1.50,1.00,-1.32,-1.34,-1.36
55.18,-2.51,-1.12,-2.54,-1.15,1.21,1.43,0.94,-1.30,-1.33,-1.38
55.74,-2.51,-1.10,-2.51,-1.10,1.14,1.35,0.87,-1.37,-1.37,-1.41
56.29,-2.51,-1.07,-2.51,-1.07,1.04,1.28,0.81,-1.46,-1.46,-1.44
56.86,-2.51,-1.05,-2.48,-1.02,0.93,1.21,0.75,-1.58,-1.55,-1.46
57.42,-2.41,-0.92,-2.40,-0.91,0.80,1.14,0.69,-1.61,-1.61,-1.49
58.00,-2.28,-0.75,-2.28,-0.76,0.67,1.06,0.64,-1.61,-1.61,-1.52
58.58,-2.14,-0.58,-2.13,-0.57,0.57,0.99,0.58,-1.57,-1.56,-1.56
59.16,-2.00,-0.41,-1.99,-0.40,0.50,0.92,0.53,-1.50,-1.49,-1.59
59.76,-1.87,-0.24,-1.89,-0.27,0.46,0.85,0.48,-1.41,-1.43,-1.62
60.35,-1.89,-0.23,-1.91,-0.25,0.44,0.78,0.43,-1.45,-1.47,-1.66
60.96,-2.01,-0.31,-2.05,-0.36,0.43,0.71,0.39,-1.58,-1.62,-1.69
61.57,-2.28,-0.56,-2.26,-0.54,0.44,0.65,0.34,-1.83,-1.81,-1.72
62.18,-2.49,-0.73,-2.42,-0.67,0.47,0.58,0.30,-2.02,-1.95,-1.75
62.80,-2.50,-0.71,-2.50,-0.71,0.51,0.51,0.26,-1.98,-1.99,-1.79
63.43,-2.47,-0.64,-2.46,-0.63,0.57,0.45,0.22,-1.90,-1.89,-1.83
64.07,-2.40,-0.53,-2.39,-0.52,0.62,0.39,0.19,-1.78,-1.77,-1.86
64.71,-2.35,-0.45,-2.40,-0.50,0.66,0.32,0.15,-1.69,-1.75,-1.90
65.35,-2.47,-0.53,-2.51,-0.57,0.70,0.26,0.12,-1.77,-1.81,-1.94
66.01,-2.73,-0.76,-2.68,-0.71,0.75,0.20,0.09,-1.97,-1.93,-1.97
66.67,-2.88,-0.88,-2.86,-0.86,0.83,0.14,0.06,-2.05,-2.03,-2.00
67.33,-2.99,-0.97,-2.98,-0.96,0.93,0.08,0.03,-2.06,-2.06,-2.02
68.01,-3.06,-1.01,-3.08,-1.03,1.03,0.03,0.00,-2.03,-2.05,-2.05
68.69,-3.17,-1.10,-3.20,-1.14,1.11,-0.03,-0.02,-2.06,-2.09,-2.07
69.37,-3.30,-1.22,-3.29,-1.21,1.15,-0.08,-0.05,-2.14,-2.13,-2.08
70.07,-3.40,-1.31,-3.32,-1.23,1.16,-0.13,-0.07,-2.23,-2.15,-2.09
70.77,-3.24,-1.14,-3.30,-1.19,1.14,-0.18,-0.09,-2.09,-2.15,-2.10
71.48,-3.19,-1.07,-3.20,-1.08,1.10,-0.23,-0.11,-2.09,-2.10,-2.12
72.19,-3.14,-1.01,-3.09,-0.97,1.03,-0.28,-0.14,-2.11,-2.07,-2.13
72.91,-2.98,-0.85,-3.03,-0.89,0.93,-0.33,-0.16,-2.05,-2.10,-2.13
73.64,-2.96,-0.81,-2.95,-0.80,0.81,-0.37,-0.18,-2.15,-2.14,-2.15
74.38,-2.90,-0.74,-2.88,-0.72,0.68,-0.42,-0.20,-2.22,-2.20,-2.16
75.12,-2.78,-0.60,-2.79,-0.61,0.55,-0.46,-0.22,-2.23,-2.24,-2.18
75.87,-2.69,-0.48,-2.63,-0.43,0.42,-0.50,-0.23,-2.27,-2.21,-2.20
76.63,-2.45,-0.23,-2.47,-0.25,0.29,-0.54,-0.25,-2.15,-2.18,-2.22
77.40,-2.31,-0.07,-2.36,-0.12,0.17,-0.58,-0.27,-2.14,-2.19,-2.24
78.17,-2.28,-0.02,-2.27,-0.01,0.05,-0.62,-0.29,-2.22,-2.21,-2.26
78.95,-2.28,0.01,-2.21,0.08,-0.06,-0.65,-0.31,-2.33,-2.26,-2.28
79.74,-2.11,0.20,-2.15,0.16,-0.16,-0.69,-0.33,-2.27,-2.31,-2.30
80.54,-2.05,0.28,-2.09,0.23,-0.26,-0.72,-0.35,-2.31,-2.35,-2.32
81.35,-2.05,0.30,-2.01,0.34,-0.36,-0.76,-0.37,-2.40,-2.37,-2.34
82.16,-2.00,0.37,-1.96,0.40,-0.45,-0.79,-0.39,-2.44,-2.41,-2.36
82.98,-1.82,0.57,-1.88,0.50,-0.53,-0.82,-0.41,-2.35,-2.41,-2.39
83.81,-1.82,0.58,-1.77,0.63,-0.61,-0.85,-0.43,-2.43,-2.38,-2.40
84.65,-1.67,0.75,-1.67,0.74,-0.69,-0.88,-0.45,-2.36,-2.36,-2.42
85.50,-1.59,0.84,-1.62,0.81,-0.76,-0.91,-0.47,-2.35,-2.38,-2.43
86.35,-1.59,0.86,-1.58,0.87,-0.83,-0.94,-0.49,-2.42,-2.41,-2.45
87.22,-1.59,0.87,-1.59,0.86,-0.89,-0.97,-0.51,-2.48,-2.49,-2.46
88.09,-1.59,0.89,-1.59,0.89,-0.95,-1.00,-0.53,-2.54,-2.54,-2.47
88.97,-1.59,0.90,-1.54,0.95,-1.00,-1.03,-0.56,-2.58,-2.53,-2.49
89.86,-1.44,1.07,-1.47,1.04,-1.04,-1.06,-0.58,-2.47,-2.50,-2.51
90.76,-1.38,1.15,-1.40,1.13,-1.08,-1.09,-0.61,-2.46,-2.48,-2.53
91.66,-1.37,1.18,-1.36,1.18,-1.13,-1.12,-0.63,-2.50,-2.49,-2.54
92.58,-1.37,1.19,-1.37,1.19,-1.19,-1.15,-0.66,-2.56,-2.56,-2.56
93.51,-1.37,1.21,-1.37,1.20,-1.26,-1.18,-0.68,-2.63,-2.63,-2.58
94.44,-1.36,1.23,-1.32,1.27,-1.32,-1.21,-0.71,-2.67,-2.64,-2.59
95.39,-1.27,1.34,-1.25,1.35,-1.37,-1.24,-0.73,-2.64,-2.62,-2.61
96.34,-1.14,1.49,-1.18,1.44,-1.42,-1.28,-0.76,-2.55,-2.60,-2.63
97.30,-1.14,1.51,-1.14,1.51,-1.46,-1.31,-0.79,-2.59,-2.59,-2.64
98.28,-1.14,1.52,-1.13,1.54,-1.49,-1.35,-0.82,-2.63,-2.62,-2.66
99.26,-1.14,1.54,-1.14,1.54,-1.53,-1.38,-0.84,-2.67,-2.67,-2.68
100.25,-1.14,1.57,-1.14,1.57,-1.56,-1.42,-0.87,-2.70,-2.70,-2.71
101.25,-1.14,1.59,-1.14,1.59,-1.60,-1.47,-0.90,-2.74,-2.74,-2.73
102.27,-1.14,1.62,-1.14,1.61,-1.64,-1.51,-0.93,-2.78,-2.78,-2.75
103.29,-1.14,1.64,-1.15,1.64,-1.69,-1.56,-0.96,-2.83,-2.84,-2.78
104.32,-1.14,1.68,-1.12,1.70,-1.75,-1.61,-0.99,-2.89,-2.87,-2.82
105.37,-1.08,1.78,-1.05,1.80,-1.82,-1.66,-1.01,-2.90,-2.87,-2.86
106.42,-0.95,1.95,-0.98,1.92,-1.90,-1.72,-1.04,-2.85,-2.88,-2.90
107.48,-0.91,2.04,-0.92,2.03,-1.99,-1.77,-1.07,-2.89,-2.91,-2.95
108.56,-0.91,2.10,-0.90,2.10,-2.07,-1.83,-1.10,-2.98,-2.97,-3.00
109.64,-0.91,2.14,-0.90,2.15,-2.15,-1.90,-1.12,-3.05,-3.05,-3.05
110.74,-0.91,2.19,-0.91,2.19,-2.21,-1.96,-1.15,-3.12,-3.12,-3.10
111.85,-0.91,2.24,-0.90,2.25,-2.25,-2.03,-1.17,-3.16,-3.16,-3.15
112.97,-0.91,2.30,-0.90,2.31,-2.28,-2.09,-1.20,-3.19,-3.17,-3.21
114.10,-0.91,2.35,-0.92,2.34,-2.29,-2.16,-1.22,-3.20,-3.21,-3.25
115.24,-0.94,2.36,-0.97,2.33,-2.30,-2.22,-1.24,-3.24,-3.28,-3.30
116.39,-1.07,2.28,-1.05,2.30,-2.31,-2.28,-1.26,-3.38,-3.36,-3.35
117.55,-1.14,2.26,-1.11,2.28,-2.32,-2.32,-1.28,-3.46,-3.43,-3.39
118.73,-1.14,2.29,-1.15,2.28,-2.34,-2.36,-1.30,-3.48,-3.48,-3.43
119.92,-1.14,2.33,-1.14,2.32,-2.35,-2.38,-1.31,-3.49,-3.50,-3.47
121.12,-1.14,2.36,-1.14,2.36,-2.37,-2.40,-1.32,-3.51,-3.51,-3.50
122.33,-1.14,2.40,-1.14,2.40,-2.39,-2.39,-1.33,-3.53,-3.53,-3.54
123.55,-1.14,2.42,-1.13,2.44,-2.41,-2.38,-1.34,-3.55,-3.54,-3.56
124.79,-1.14,2.46,-1.13,2.46,-2.43,-2.33,-1.35,-3.57,-3.56,-3.60
126.03,-1.14,2.48,-1.16,2.46,-2.44,-2.29,-1.36,-3.58,-3.60,-3.62
127.29,-1.21,2.44,-1.22,2.43,-2.44,-2.22,-1.36,-3.64,-3.66,-3.65
128.57,-1.32,2.36,-1.28,2.39,-2.42,-2.16,-1.36,-3.74,-3.70,-3.68
129.85,-1.37,2.33,-1.37,2.33,-2.38,-2.07,-1.36,-3.75,-3.75,-3.70
131.15,-1.41,2.32,-1.43,2.30,-2.31,-1.98,-1.36,-3.72,-3.74,-3.72
132.46,-1.54,2.22,-1.50,2.26,-2.21,-1.89,-1.35,-3.75,-3.71,-3.76
133.79,-1.59,2.20,-1.61,2.17,-2.09,-1.79,-1.35,-3.68,-3.71,-3.79
135.12,-1.76,2.05,-1.79,2.02,-1.96,-1.68,-1.34,-3.72,-3.75,-3.81
136.48,-2.03,1.81,-2.02,1.82,-1.81,-1.57,-1.33,-3.83,-3.83,-3.84
137.84,-2.29,1.58,-2.29,1.58,-1.64,-1.45,-1.32,-3.93,-3.93,-3.87
139.22,-2.55,1.34,-2.51,1.38,-1.45,-1.33,-1.31,-4.00,-3.96,-3.89
140.61,-2.72,1.20,-2.70,1.21,-1.25,-1.20,-1.29,-3.96,-3.95,-3.92
142.02,-2.84,1.11,-2.89,1.05,-1.02,-1.07,-1.28,-3.86,-3.92,-3.94
143.44,-3.11,0.86,-3.10,0.87,-0.80,-0.92,-1.27,-3.90,-3.90,-3.97
144.87,-3.37,0.63,-3.35,0.65,-0.57,-0.77,-1.25,-3.94,-3.92,-4.00
146.32,-3.63,0.41,-3.63,0.40,-0.36,-0.60,-1.24,-3.98,-3.98,-4.04
147.78,-3.89,0.18,-3.91,0.16,-0.16,-0.43,-1.22,-4.05,-4.07,-4.07
149.26,-4.16,-0.05,-4.17,-0.06,0.01,-0.26,-1.20,-4.15,-4.16,-4.11
150.75,-4.42,-0.27,-4.38,-0.23,0.14,-0.09,-1.19,-4.28,-4.24,-4.15
152.26,-4.52,-0.32,-4.51,-0.32,0.22,0.05,-1.17,-4.30,-4.29,-4.20
153.78,-4.56,-0.31,-4.58,-0.33,0.25,0.19,-1.16,-4.31,-4.33,-4.25
155.32,-4.56,-0.26,-4.56,-0.26,0.23,0.26,-1.14,-4.33,-4.33,-4.30
156.88,-4.54,-0.18,-4.50,-0.14,0.16,0.32,-1.13,-4.38,-4.33,-4.35
158.44,-4.39,0.01,-4.43,-0.03,0.06,0.28,-1.11,-4.32,-4.37,-4.40
160.03,-4.33,0.11,-4.35,0.08,-0.05,0.25,-1.10,-4.38,-4.41,-4.44
161.63,-4.33,0.15,-4.27,0.21,-0.18,0.14,-1.08,-4.50,-4.44,-4.48
163.24,-4.19,0.32,-4.20,0.31,-0.29,0.04,-1.07,-4.48,-4.49,-4.51
164.88,-4.10,0.44,-4.14,0.40,-0.39,-0.09,-1.05,-4.49,-4.53,-4.54
166.53,-4.10,0.46,-4.10,0.46,-0.46,-0.21,-1.04,-4.56,-4.56,-4.56
168.19,-4.10,0.48,-4.06,0.52,-0.51,-0.33,-1.03,-4.61,-4.57,-4.58
169.87,-4.05,0.54,-4.01,0.57,-0.54,-0.44,-1.02,-4.59,-4.56,-4.58
171.57,-3.91,0.67,-3.99,0.59,-0.56,-0.53,-1.01,-4.46,-4.55,-4.58
173.29,-4.01,0.57,-4.01,0.57,-0.55,-0.62,-1.00,-4.56,-4.56,-4.58
175.02,-4.10,0.48,-4.05,0.52,-0.53,-0.69,-0.99,-4.63,-4.58,-4.58
176.77,-4.10,0.46,-4.10,0.46,-0.50,-0.76,-0.98,-4.60,-4.60,-4.56
178.54,-4.10,0.45,-4.10,0.45,-0.46,-0.81,-0.98,-4.55,-4.55,-4.55
180.32,-4.10,0.44,-4.09,0.44,-0.41,-0.86,-0.97,-4.51,-4.50,-4.53
182.13,-4.10,0.42,-4.15,0.37,-0.37,-0.89,-0.96,-4.46,-4.52,-4.52
183.95,-4.19,0.32,-4.18,0.33,-0.34,-0.93,-0.96,-4.52,-4.52,-4.51
185.79,-4.32,0.19,-4.22,0.28,-0.31,-0.96,-0.95,-4.63,-4.54,-4.51
187.65,-4.16,0.34,-4.26,0.24,-0.30,-0.98,-0.95,-4.46,-4.56,-4.50
189.52,-4.28,0.23,-4.24,0.26,-0.28,-1.00,-0.95,-4.56,-4.53,-4.50
191.42,-4.27,0.24,-4.20,0.31,-0.27,-1.02,-0.95,-4.54,-4.47,-4.51
193.33,-4.15,0.37,-4.22,0.30,-0.26,-1.03,-0.94,-4.40,-4.47,-4.52
195.27,-4.20,0.32,-4.22,0.30,-0.25,-1.04,-0.94,-4.45,-4.47,-4.52
197.22,-4.30,0.22,-4.26,0.26,-0.24,-1.05,-0.94,-4.54,-4.50,-4.52
199.19,-4.33,0.21,-4.32,0.21,-0.23,-1.06,-0.94,-4.56,-4.55,-4.53
201.18,-4.33,0.22,-4.34,0.21,-0.23,-1.06,-0.95,-4.56,-4.57,-4.54
203.19,-4.33,0.23,-4.33,0.22,-0.24,-1.07,-0.95,-4.57,-4.57,-4.55
205.23,-4.33,0.24,-4.34,0.23,-0.25,-1.07,-0.95,-4.58,-4.59,-4.56
207.28,-4.33,0.26,-4.33,0.25,-0.28,-1.07,-0.95,-4.61,-4.61,-4.58
209.35,-4.33,0.28,-4.28,0.32,-0.32,-1.07,-0.95,-4.65,-4.60,-4.60
211.44,-4.20,0.42,-4.21,0.40,-0.37,-1.07,-0.96,-4.57,-4.58,-4.61
213.56,-4.11,0.52,-4.15,0.48,-0.45,-1.07,-0.96,-4.55,-4.59,-4.63
215.69,-4.10,0.54,-4.10,0.54,-0.53,-1.07,-0.96,-4.63,-4.63,-4.64
217.85,-4.10,0.56,-4.07,0.59,-0.63,-1.07,-0.97,-4.73,-4.70,-4.66
220.03,-4.01,0.66,-4.01,0.66,-0.74,-1.06,-0.97,-4.75,-4.75,-4.67
222.23,-3.91,0.78,-3.91,0.78,-0.84,-1.06,-0.98,-4.74,-4.74,-4.68
224.45,-3.76,0.93,-3.75,0.94,-0.92,-1.06,-0.98,-4.67,-4.66,-4.69
226.70,-3.65,1.06,-3.63,1.08,-0.98,-1.05,-0.98,-4.63,-4.61,-4.71
228.96,-3.49,1.23,-3.57,1.15,-1.04,-1.05,-0.99,-4.53,-4.61,-4.72
231.25,-3.60,1.13,-3.57,1.16,-1.10,-1.05,-0.99,-4.70,-4.67,-4.73
233.57,-3.64,1.10,-3.60,1.14,-1.15,-1.04,-0.99,-4.79,-4.76,-4.74
235.90,-3.64,1.11,-3.66,1.09,-1.20,-1.04,-0.99,-4.83,-4.86,-4.75
238.26,-3.64,1.12,-3.64,1.12,-1.22,-1.03,-1.00,-4.86,-4.86,-4.76
240.64,-3.64,1.13,-3.58,1.18,-1.22,-1.03,-1.00,-4.86,-4.81,-4.77
243.05,-3.49,1.28,-3.50,1.28,-1.23,-1.03,-1.00,-4.71,-4.72,-4.77
245.48,-3.42,1.36,-3.45,1.33,-1.23,-1.02,-1.00,-4.65,-4.68,-4.78
247.93,-3.42,1.37,-3.47,1.31,-1.23,-1.02,-1.00,-4.65,-4.70,-4.78
250.41,-3.60,1.19,-3.54,1.24,-1.23,-1.01,-1.00,-4.83,-4.78,-4.79
252.92,-3.64,1.16,-3.62,1.18,-1.23,-1.01,-0.99,-4.87,-4.84,-4.79
255.45,-3.64,1.16,-3.65,1.14,-1.22,-1.00,-0.99,-4.85,-4.87,-4.80
258.00,-3.64,1.16,-3.64,1.16,-1.20,-1.00,-0.99,-4.84,-4.84,-4.80
260.58,-3.64,1.17,-3.64,1.17,-1.19,-0.99,-0.99,-4.83,-4.83,-4.81
263.19,-3.64,1.18,-3.64,1.18,-1.18,-0.99,-0.98,-4.82,-4.82,-4.82
265.82,-3.64,1.19,-3.64,1.19,-1.17,-0.99,-0.98,-4.81,-4.81,-4.83
268.48,-3.64,1.19,-3.62,1.21,-1.16,-0.98,-0.97,-4.80,-4.79,-4.83
271.16,-3.64,1.21,-3.64,1.20,-1.15,-0.98,-0.97,-4.79,-4.79,-4.84
273.87,-3.64,1.21,-3.69,1.16,-1.13,-0.97,-0.96,-4.77,-4.81,-4.85
276.61,-3.78,1.07,-3.76,1.10,-1.10,-0.97,-0.96,-4.88,-4.86,-4.85
279.38,-3.86,1.01,-3.83,1.03,-1.07,-0.97,-0.95,-4.93,-4.90,-4.86
282.17,-3.87,1.00,-3.87,0.99,-1.04,-0.96,-0.94,-4.91,-4.92,-4.87
284.99,-3.87,1.00,-3.87,1.00,-1.02,-0.96,-0.94,-4.89,-4.89,-4.87
287.84,-3.87,1.01,-3.87,1.00,-1.00,-0.96,-0.93,-4.87,-4.87,-4.87
290.72,-3.87,1.01,-3.87,1.01,-1.00,-0.95,-0.92,-4.86,-4.86,-4.88
293.63,-3.87,1.01,-3.87,1.01,-1.00,-0.95,-0.92,-4.87,-4.87,-4.88
296.57,-3.87,1.01,-3.87,1.01,-1.01,-0.95,-0.91,-4.87,-4.87,-4.88
299.53,-3.87,1.02,-3.87,1.02,-1.02,-0.95,-0.90,-4.88,-4.88,-4.88
302.53,-3.87,1.03,-3.87,1.02,-1.02,-0.94,-0.90,-4.89,-4.89,-4.90
305.55,-3.87,1.03,-3.87,1.03,-1.03,-0.94,-0.89,-4.90,-4.90,-4.90
308.61,-3.87,1.03,-3.87,1.04,-1.04,-0.94,-0.88,-4.91,-4.91,-4.90
311.69,-3.87,1.05,-3.87,1.04,-1.05,-0.94,-0.88,-4.92,-4.92,-4.91
314.81,-3.87,1.06,-3.87,1.06,-1.06,-0.94,-0.87,-4.93,-4.93,-4.93
317.96,-3.87,1.07,-3.87,1.07,-1.07,-0.94,-0.87,-4.94,-4.94,-4.94
321.14,-3.87,1.09,-3.87,1.09,-1.09,-0.94,-0.86,-4.96,-4.96,-4.96
324.35,-3.87,1.10,-3.87,1.10,-1.10,-0.94,-0.86,-4.97,-4.97,-4.97
327.59,-3.87,1.12,-3.87,1.12,-1.11,-0.94,-0.86,-4.98,-4.98,-4.98
330.87,-3.87,1.13,-3.87,1.13,-1.13,-0.94,-0.85,-5.00,-5.00,-5.00
334.18,-3.87,1.14,-3.87,1.14,-1.15,-0.94,-0.85,-5.02,-5.02,-5.01
337.52,-3.87,1.15,-3.87,1.15,-1.16,-0.94,-0.85,-5.03,-5.03,-5.02
340.90,-3.87,1.15,-3.87,1.16,-1.17,-0.94,-0.85,-5.04,-5.04,-5.02
344.30,-3.87,1.16,-3.87,1.16,-1.16,-0.94,-0.84,-5.03,-5.03,-5.03
347.75,-3.87,1.17,-3.86,1.18,-1.15,-0.94,-0.84,-5.02,-5.00,-5.03
351.23,-3.87,1.17,-3.86,1.17,-1.12,-0.95,-0.84,-4.99,-4.99,-5.04
354.74,-3.87,1.17,-3.91,1.13,-1.09,-0.95,-0.84,-4.96,-5.00,-5.04
358.28,-3.98,1.06,-3.97,1.06,-1.06,-0.95,-0.85,-5.04,-5.03,-5.04
361.87,-4.07,0.96,-4.04,0.99,-1.02,-0.95,-0.85,-5.09,-5.07,-5.03
365.49,-4.10,0.93,-4.09,0.94,-0.99,-0.96,-0.85,-5.09,-5.08,-5.03
369.14,-4.10,0.93,-4.10,0.93,-0.96,-0.96,-0.85,-5.06,-5.06,-5.03
372.83,-4.10,0.94,-4.10,0.93,-0.93,-0.96,-0.86,-5.03,-5.03,-5.03
376.56,-4.10,0.93,-4.10,0.93,-0.92,-0.97,-0.86,-5.02,-5.02,-5.02
380.33,-4.10,0.93,-4.10,0.93,-0.92,-0.97,-0.87,-5.02,-5.02,-5.03
384.13,-4.10,0.93,-4.10,0.93,-0.93,-0.98,-0.87,-5.03,-5.03,-5.03
387.97,-4.10,0.93,-4.10,0.93,-0.94,-0.98,-0.88,-5.04,-5.04,-5.03
391.85,-4.10,0.93,-4.10,0.93,-0.94,-0.99,-0.88,-5.04,-5.04,-5.03
395.77,-4.10,0.93,-4.10,0.93,-0.92,-1.00,-0.89,-5.02,-5.02,-5.03
399.73,-4.10,0.92,-4.09,0.94,-0.89,-1.00,-0.90,-4.99,-4.98,-5.02
403.72,-4.10,0.92,-4.10,0.93,-0.86,-1.01,-0.91,-4.96,-4.96,-5.02
407.76,-4.10,0.92,-4.14,0.88,-0.83,-1.02,-0.92,-4.93,-4.98,-5.02
411.84,-4.23,0.79,-4.22,0.81,-0.82,-1.03,-0.93,-5.04,-5.03,-5.02
415.96,-4.32,0.71,-4.30,0.73,-0.80,-1.03,-0.94,-5.12,-5.10,-5.02
420.12,-4.33,0.70,-4.32,0.70,-0.80,-1.04,-0.95,-5.12,-5.12,-5.02
424.32,-4.31,0.72,-4.27,0.76,-0.80,-1.05,-0.96,-5.10,-5.07,-5.02
428.56,-4.16,0.87,-4.19,0.83,-0.81,-1.06,-0.97,-4.97,-5.00,-5.03
