frequency,raw,error,smoothed,error_smoothed,equalization,parametric_eq,fixed_band_eq,equalized_raw,equalized_smoothed,target
20.00,1.30,1.60,1.30,1.60,-1.60,-1.55,-1.51,-0.30,-0.30,-0.30
20.20,1.34,1.67,1.33,1.66,-1.66,-1.61,-1.56,-0.32,-0.33,-0.33
20.40,1.37,1.72,1.37,1.72,-1.72,-1.67,-1.60,-0.35,-0.35,-0.35
20.61,1.41,1.78,1.41,1.78,-1.78,-1.72,-1.65,-0.37,-0.37,-0.37
20.81,1.45,1.84,1.44,1.83,-1.83,-1.78,-1.69,-0.39,-0.39,-0.39
21.02,1.48,1.89,1.48,1.89,-1.89,-1.84,-1.74,-0.41,-0.41,-0.41
21.23,1.52,1.95,1.52,1.95,-1.95,-1.90,-1.79,-0.43,-0.43,-0.43
21.44,1.56,2.01,1.55,2.00,-2.00,-1.95,-1.85,-0.45,-0.45,-0.45
21.66,1.59,2.06,1.59,2.06,-2.06,-2.01,-1.90,-0.47,-0.47,-0.47
21.87,1.63,2.11,1.63,2.11,-2.11,-2.06,-1.95,-0.48,-0.48,-0.48
22.09,1.67,2.17,1.67,2.16,-2.16,-2.12,-2.01,-0.50,-0.50,-0.50
22.31,1.71,2.22,1.71,2.22,-2.22,-2.17,-2.07,-0.51,-0.51,-0.51
22.54,1.75,2.27,1.75,2.27,-2.27,-2.23,-2.13,-0.52,-0.52,-0.52
22.76,1.79,2.32,1.79,2.32,-2.32,-2.28,-2.19,-0.53,-0.53,-0.53
22.99,1.83,2.37,1.83,2.37,-2.37,-2.34,-2.25,-0.54,-0.54,-0.54
23.22,1.87,2.42,1.87,2.42,-2.42,-2.39,-2.31,-0.55,-0.55,-0.55
23.45,1.92,2.48,1.91,2.47,-2.47,-2.44,-2.38,-0.55,-0.56,-0.56
23.69,1.96,2.53,1.96,2.52,-2.52,-2.50,-2.44,-0.56,-0.56,-0.57
23.92,2.00,2.57,2.00,2.57,-2.57,-2.55,-2.51,-0.57,-0.57,-0.57
24.16,2.04,2.62,2.04,2.62,-2.62,-2.60,-2.58,-0.58,-0.58,-0.58
24.40,2.09,2.67,2.08,2.67,-2.67,-2.65,-2.65,-0.58,-0.59,-0.58
24.65,2.13,2.72,2.13,2.72,-2.72,-2.70,-2.72,-0.59,-0.59,-0.59
24.89,2.18,2.77,2.18,2.77,-2.77,-2.75,-2.79,-0.59,-0.59,-0.59
25.14,2.23,2.83,2.22,2.82,-2.82,-2.80,-2.87,-0.59,-0.60,-0.60
25.39,2.27,2.88,2.27,2.87,-2.87,-2.85,-2.94,-0.60,-0.60,-0.61
25.65,2.31,2.92,2.31,2.92,-2.92,-2.90,-3.01,-0.61,-0.61,-0.61
25.91,2.35,2.97,2.35,2.97,-2.97,-2.95,-3.09,-0.62,-0.62,-0.62
26.16,2.40,3.02,2.39,3.01,-3.01,-3.00,-3.16,-0.61,-0.62,-0.62
26.43,2.44,3.06,2.43,3.06,-3.05,-3.05,-3.23,-0.62,-0.62,-0.62
26.69,2.47,3.10,2.47,3.10,-3.09,-3.10,-3.30,-0.63,-0.62,-0.63
26.96,2.50,3.13,2.50,3.13,-3.13,-3.14,-3.38,-0.63,-0.63,-0.63
27.23,2.54,3.18,2.53,3.17,-3.17,-3.19,-3.45,-0.63,-0.64,-0.64
27.50,2.57,3.21,2.57,3.21,-3.21,-3.23,-3.52,-0.64,-0.65,-0.64
27.77,2.60,3.24,2.60,3.24,-3.25,-3.28,-3.58,-0.66,-0.65,-0.64
28.05,2.64,3.29,2.64,3.28,-3.29,-3.32,-3.65,-0.66,-0.66,-0.65
28.33,2.68,3.33,2.68,3.33,-3.33,-3.37,-3.71,-0.66,-0.65,-0.65
28.62,2.73,3.38,2.72,3.38,-3.37,-3.41,-3.77,-0.64,-0.65,-0.65
28.90,2.77,3.43,2.76,3.42,-3.41,-3.45,-3.83,-0.64,-0.64,-0.66
29.19,2.80,3.46,2.79,3.45,-3.44,-3.49,-3.88,-0.64,-0.65,-0.66
29.48,2.82,3.48,2.82,3.48,-3.47,-3.53,-3.93,-0.66,-0.65,-0.66
29.78,2.84,3.50,2.84,3.50,-3.50,-3.57,-3.98,-0.67,-0.67,-0.66
30.08,2.87,3.53,2.86,3.53,-3.54,-3.61,-4.02,-0.67,-0.67,-0.66
30.38,2.89,3.56,2.89,3.56,-3.57,-3.65,-4.06,-0.68,-0.68,-0.67
30.68,2.93,3.60,2.92,3.59,-3.60,-3.69,-4.09,-0.67,-0.68,-0.67
30.99,2.96,3.63,2.96,3.63,-3.64,-3.73,-4.12,-0.68,-0.68,-0.67
31.30,3.00,3.67,3.00,3.67,-3.67,-3.77,-4.15,-0.68,-0.67,-0.67
31.61,3.04,3.72,3.04,3.71,-3.71,-3.80,-4.17,-0.67,-0.67,-0.68
31.93,3.08,3.76,3.07,3.75,-3.74,-3.84,-4.18,-0.67,-0.67,-0.68
32.24,3.11,3.79,3.10,3.79,-3.78,-3.87,-4.19,-0.67,-0.67,-0.68
32.57,3.13,3.82,3.13,3.81,-3.81,-3.91,-4.20,-0.68,-0.68,-0.69
32.89,3.15,3.84,3.15,3.84,-3.84,-3.94,-4.20,-0.69,-0.69,-0.69
33.22,3.17,3.86,3.17,3.86,-3.86,-3.97,-4.20,-0.70,-0.70,-0.69
33.55,3.19,3.89,3.19,3.88,-3.89,-4.00,-4.19,-0.70,-0.70,-0.70
33.89,3.21,3.91,3.21,3.91,-3.92,-4.03,-4.18,-0.71,-0.71,-0.70
34.23,3.24,3.94,3.24,3.94,-3.94,-4.06,-4.17,-0.71,-0.71,-0.70
34.57,3.27,3.98,3.27,3.97,-3.97,-4.09,-4.16,-0.71,-0.71,-0.71
34.92,3.30,4.01,3.30,4.01,-4.01,-4.12,-4.14,-0.71,-0.71,-0.71
35.27,3.33,4.04,3.33,4.04,-4.04,-4.15,-4.13,-0.71,-0.71,-0.71
35.62,3.36,4.08,3.36,4.07,-4.07,-4.17,-4.11,-0.71,-0.71,-0.72
35.97,3.39,4.11,3.39,4.11,-4.10,-4.20,-4.09,-0.71,-0.71,-0.72
36.33,3.42,4.14,3.41,4.13,-4.13,-4.22,-4.06,-0.71,-0.72,-0.72
36.70,3.44,4.16,3.44,4.16,-4.16,-4.25,-4.04,-0.73,-0.72,-0.72
37.06,3.47,4.19,3.46,4.19,-4.19,-4.27,-4.02,-0.73,-0.73,-0.72
37.43,3.49,4.22,3.49,4.21,-4.22,-4.29,-4.00,-0.74,-0.73,-0.73
37.81,3.52,4.25,3.52,4.25,-4.25,-4.32,-3.98,-0.74,-0.74,-0.73
38.19,3.55,4.28,3.55,4.28,-4.28,-4.34,-3.96,-0.74,-0.74,-0.73
38.57,3.58,4.32,3.57,4.31,-4.31,-4.36,-3.94,-0.73,-0.74,-0.74
38.95,3.60,4.34,3.60,4.34,-4.33,-4.37,-3.93,-0.74,-0.73,-0.74
39.34,3.62,4.37,3.62,4.36,-4.35,-4.39,-3.91,-0.74,-0.74,-0.75
39.74,3.63,4.38,3.62,4.38,-4.37,-4.41,-3.90,-0.74,-0.74,-0.75
40.14,3.63,4.39,3.63,4.39,-4.38,-4.43,-3.89,-0.75,-0.75,-0.76
40.54,3.63,4.39,3.63,4.39,-4.38,-4.44,-3.88,-0.76,-0.76,-0.76
40.94,3.63,4.39,3.62,4.38,-4.39,-4.46,-3.87,-0.76,-0.77,-0.76
41.35,3.62,4.38,3.62,4.38,-4.39,-4.47,-3.87,-0.78,-0.77,-0.76
41.76,3.63,4.39,3.63,4.39,-4.40,-4.48,-3.87,-0.77,-0.77,-0.76
42.18,3.65,4.41,3.64,4.40,-4.41,-4.50,-3.87,-0.76,-0.77,-0.76
42.60,3.67,4.43,3.67,4.42,-4.42,-4.51,-3.87,-0.76,-0.76,-0.76
43.03,3.69,4.44,3.69,4.44,-4.45,-4.52,-3.88,-0.76,-0.76,-0.75
43.46,3.72,4.47,3.72,4.47,-4.47,-4.53,-3.89,-0.75,-0.76,-0.75
43.90,3.75,4.50,3.75,4.50,-4.50,-4.54,-3.90,-0.75,-0.75,-0.75
44.33,3.78,4.53,3.78,4.53,-4.53,-4.55,-3.92,-0.75,-0.75,-0.75
44.78,3.82,4.57,3.81,4.56,-4.56,-4.55,-3.94,-0.74,-0.75,-0.75
45.23,3.85,4.60,3.84,4.59,-4.59,-4.56,-3.96,-0.74,-0.75,-0.75
45.68,3.87,4.62,3.87,4.62,-4.62,-4.57,-3.98,-0.75,-0.75,-0.75
46.13,3.90,4.65,3.89,4.64,-4.65,-4.57,-4.01,-0.75,-0.75,-0.75
46.60,3.92,4.67,3.92,4.67,-4.67,-4.58,-4.04,-0.75,-0.75,-0.75
47.06,3.94,4.69,3.94,4.69,-4.69,-4.58,-4.08,-0.75,-0.75,-0.75
47.53,3.96,4.72,3.95,4.71,-4.71,-4.58,-4.11,-0.75,-0.75,-0.76
48.01,3.97,4.73,3.97,4.72,-4.72,-4.59,-4.15,-0.75,-0.75,-0.76
48.49,3.97,4.73,3.97,4.73,-4.72,-4.59,-4.19,-0.75,-0.75,-0.76
48.97,3.97,4.73,3.97,4.73,-4.72,-4.59,-4.24,-0.76,-0.76,-0.76
49.46,3.96,4.72,3.96,4.72,-4.72,-4.59,-4.28,-0.77,-0.76,-0.76
49.96,3.96,4.72,3.95,4.71,-4.72,-4.59,-4.33,-0.76,-0.76,-0.76
50.46,3.95,4.71,3.95,4.71,-4.71,-4.59,-4.38,-0.77,-0.76,-0.76
50.96,3.95,4.71,3.95,4.70,-4.71,-4.59,-4.43,-0.76,-0.76,-0.76
51.47,3.95,4.70,3.95,4.70,-4.70,-4.59,-4.48,-0.76,-0.76,-0.75
51.99,3.95,4.70,3.95,4.70,-4.70,-4.58,-4.54,-0.75,-0.75,-0.75
52.51,3.95,4.70,3.95,4.70,-4.70,-4.58,-4.59,-0.75,-0.75,-0.75
53.03,3.95,4.70,3.95,4.70,-4.69,-4.58,-4.65,-0.75,-0.75,-0.75
53.56,3.95,4.70,3.95,4.69,-4.69,-4.58,-4.70,-0.75,-0.75,-0.75
54.10,3.95,4.69,3.95,4.69,-4.69,-4.57,-4.76,-0.74,-0.74,-0.74
54.64,3.95,4.69,3.95,4.69,-4.69,-4.57,-4.81,-0.74,-0.74,-0.74
55.18,3.95,4.69,3.95,4.69,-4.69,-4.56,-4.86,-0.74,-0.74,-0.74
55.74,3.95,4.69,3.95,4.68,-4.68,-4.56,-4.91,-0.74,-0.74,-0.74
56.29,3.95,4.68,3.95,4.68,-4.68,-4.55,-4.96,-0.73,-0.73,-0.73
56.86,3.95,4.68,3.95,4.68,-4.68,-4.55,-5.01,-0.73,-0.73,-0.73
57.42,3.95,4.68,3.95,4.67,-4.67,-4.54,-5.05,-0.72,-0.72,-0.73
58.00,3.95,4.67,3.95,4.67,-4.67,-4.53,-5.09,-0.72,-0.72,-0.72
58.58,3.95,4.67,3.95,4.67,-4.67,-4.53,-5.13,-0.72,-0.72,-0.72
59.16,3.95,4.67,3.95,4.66,-4.67,-4.52,-5.16,-0.72,-0.72,-0.72
59.76,3.95,4.66,3.95,4.66,-4.67,-4.52,-5.19,-0.72,-0.72,-0.71
60.35,3.95,4.66,3.95,4.66,-4.67,-4.51,-5.21,-0.72,-0.72,-0.71
60.96,3.96,4.67,3.96,4.67,-4.67,-4.50,-5.23,-0.71,-0.71,-0.71
61.57,3.97,4.68,3.96,4.67,-4.67,-4.49,-5.25,-0.71,-0.71,-0.71
62.18,3.97,4.68,3.97,4.68,-4.67,-4.49,-5.25,-0.70,-0.70,-0.71
62.80,3.97,4.68,3.97,4.68,-4.67,-4.48,-5.26,-0.70,-0.70,-0.71
63.43,3.96,4.67,3.95,4.66,-4.66,-4.47,-5.25,-0.70,-0.70,-0.71
64.07,3.94,4.65,3.94,4.65,-4.65,-4.47,-5.24,-0.71,-0.71,-0.71
64.71,3.92,4.63,3.92,4.63,-4.63,-4.46,-5.23,-0.71,-0.71,-0.71
65.35,3.90,4.61,3.89,4.60,-4.60,-4.45,-5.21,-0.71,-0.71,-0.71
66.01,3.87,4.58,3.87,4.58,-4.58,-4.45,-5.19,-0.71,-0.71,-0.71
66.67,3.84,4.55,3.84,4.55,-4.55,-4.44,-5.16,-0.71,-0.71,-0.71
67.33,3.81,4.52,3.81,4.52,-4.52,-4.43,-5.13,-0.71,-0.71,-0.71
68.01,3.78,4.49,3.78,4.49,-4.49,-4.43,-5.10,-0.71,-0.71,-0.71
68.69,3.75,4.46,3.75,4.46,-4.45,-4.42,-5.06,-0.71,-0.71,-0.71
69.37,3.72,4.43,3.72,4.43,-4.42,-4.42,-5.02,-0.71,-0.71,-0.71
70.07,3.69,4.40,3.69,4.40,-4.39,-4.41,-4.97,-0.71,-0.71,-0.71
70.77,3.66,4.37,3.66,4.37,-4.37,-4.40,-4.93,-0.71,-0.71,-0.71
71.48,3.64,4.34,3.64,4.34,-4.34,-4.40,-4.88,-0.71,-0.71,-0.70
72.19,3.62,4.32,3.62,4.32,-4.33,-4.39,-4.83,-0.71,-0.71,-0.70
72.91,3.61,4.31,3.60,4.30,-4.31,-4.39,-4.78,-0.70,-0.71,-0.70
73.64,3.60,4.30,3.60,4.30,-4.30,-4.39,-4.73,-0.70,-0.70,-0.70
74.38,3.60,4.29,3.60,4.29,-4.29,-4.38,-4.68,-0.70,-0.69,-0.69
75.12,3.61,4.30,3.61,4.29,-4.29,-4.38,-4.64,-0.68,-0.68,-0.69
75.87,3.62,4.30,3.61,4.30,-4.29,-4.38,-4.59,-0.67,-0.67,-0.68
76.63,3.62,4.30,3.61,4.29,-4.28,-4.37,-4.54,-0.67,-0.67,-0.68
77.40,3.61,4.29,3.61,4.29,-4.28,-4.37,-4.49,-0.67,-0.67,-0.68
78.17,3.61,4.28,3.61,4.28,-4.28,-4.37,-4.45,-0.67,-0.67,-0.67
78.95,3.61,4.28,3.60,4.27,-4.28,-4.37,-4.41,-0.67,-0.68,-0.67
79.74,3.61,4.28,3.61,4.27,-4.28,-4.37,-4.37,-0.68,-0.67,-0.67
80.54,3.62,4.28,3.62,4.28,-4.29,-4.37,-4.33,-0.67,-0.67,-0.66
81.35,3.64,4.30,3.63,4.29,-4.30,-4.37,-4.30,-0.66,-0.67,-0.66
82.16,3.66,4.32,3.66,4.32,-4.32,-4.37,-4.26,-0.66,-0.66,-0.66
82.98,3.68,4.34,3.68,4.34,-4.34,-4.37,-4.23,-0.66,-0.66,-0.66
83.81,3.71,4.37,3.71,4.36,-4.36,-4.37,-4.21,-0.65,-0.65,-0.66
84.65,3.74,4.39,3.74,4.39,-4.39,-4.37,-4.18,-0.65,-0.65,-0.65
85.50,3.77,4.42,3.77,4.42,-4.42,-4.37,-4.16,-0.65,-0.65,-0.65
86.35,3.80,4.45,3.80,4.45,-4.45,-4.37,-4.14,-0.65,-0.65,-0.65
87.22,3.83,4.48,3.83,4.48,-4.48,-4.37,-4.13,-0.65,-0.65,-0.65
88.09,3.86,4.51,3.86,4.51,-4.51,-4.38,-4.12,-0.65,-0.65,-0.65
88.97,3.89,4.54,3.89,4.54,-4.54,-4.38,-4.11,-0.65,-0.65,-0.65
89.86,3.92,4.57,3.91,4.56,-4.56,-4.38,-4.10,-0.64,-0.65,-0.65
90.76,3.94,4.59,3.94,4.59,-4.58,-4.39,-4.10,-0.64,-0.64,-0.65
91.66,3.95,4.60,3.95,4.60,-4.60,-4.39,-4.10,-0.65,-0.64,-0.65
92.58,3.97,4.62,3.96,4.61,-4.61,-4.39,-4.10,-0.64,-0.64,-0.65
93.51,3.97,4.62,3.97,4.62,-4.61,-4.40,-4.11,-0.64,-0.64,-0.65
94.44,3.97,4.62,3.97,4.62,-4.61,-4.40,-4.12,-0.65,-0.65,-0.65
95.39,3.96,4.61,3.96,4.61,-4.61,-4.41,-4.13,-0.66,-0.66,-0.65
96.34,3.96,4.61,3.96,4.60,-4.61,-4.41,-4.15,-0.66,-0.66,-0.65
97.30,3.96,4.60,3.96,4.60,-4.61,-4.42,-4.16,-0.66,-0.65,-0.64
98.28,3.97,4.61,3.96,4.60,-4.61,-4.42,-4.19,-0.64,-0.65,-0.64
99.26,3.97,4.61,3.97,4.61,-4.61,-4.43,-4.21,-0.64,-0.64,-0.64
100.25,3.97,4.61,3.97,4.61,-4.60,-4.43,-4.23,-0.63,-0.63,-0.64
101.25,3.97,4.61,3.96,4.60,-4.59,-4.44,-4.26,-0.63,-0.63,-0.64
102.27,3.95,4.59,3.95,4.59,-4.58,-4.44,-4.29,-0.63,-0.63,-0.64
103.29,3.94,4.58,3.93,4.57,-4.56,-4.45,-4.31,-0.63,-0.63,-0.64
104.32,3.91,4.54,3.91,4.54,-4.54,-4.45,-4.35,-0.64,-0.63,-0.63
105.37,3.89,4.52,3.89,4.52,-4.52,-4.46,-4.38,-0.63,-0.63,-0.63
106.42,3.86,4.49,3.86,4.48,-4.49,-4.46,-4.41,-0.64,-0.64,-0.63
107.48,3.84,4.46,3.83,4.46,-4.47,-4.47,-4.44,-0.63,-0.63,-0.62
108.56,3.81,4.43,3.81,4.43,-4.43,-4.47,-4.47,-0.63,-0.62,-0.62
109.64,3.79,4.41,3.78,4.40,-4.40,-4.48,-4.50,-0.61,-0.62,-0.62
110.74,3.76,4.38,3.75,4.37,-4.37,-4.48,-4.53,-0.61,-0.61,-0.62
111.85,3.72,4.34,3.72,4.34,-4.33,-4.48,-4.56,-0.61,-0.61,-0.62
112.97,3.68,4.29,3.68,4.29,-4.28,-4.49,-4.59,-0.61,-0.60,-0.61
114.10,3.64,4.25,3.63,4.24,-4.24,-4.49,-4.62,-0.60,-0.61,-0.61
115.24,3.59,4.20,3.59,4.20,-4.19,-4.49,-4.64,-0.61,-0.61,-0.61
116.39,3.54,4.15,3.54,4.15,-4.15,-4.49,-4.66,-0.61,-0.61,-0.61
117.55,3.50,4.10,3.49,4.10,-4.11,-4.50,-4.68,-0.61,-0.62,-0.60
118.73,3.46,4.06,3.46,4.06,-4.07,-4.50,-4.69,-0.62,-0.61,-0.60
119.92,3.44,4.04,3.44,4.04,-4.04,-4.50,-4.70,-0.61,-0.60,-0.60
121.12,3.43,4.03,3.42,4.02,-4.02,-4.50,-4.71,-0.59,-0.60,-0.60
122.33,3.42,4.01,3.42,4.01,-4.00,-4.50,-4.71,-0.59,-0.59,-0.59
123.55,3.41,4.00,3.41,4.00,-3.99,-4.50,-4.71,-0.58,-0.58,-0.59
124.79,3.41,3.99,3.41,3.99,-3.99,-4.49,-4.70,-0.58,-0.58,-0.58
126.03,3.41,3.99,3.41,3.99,-3.99,-4.49,-4.69,-0.58,-0.58,-0.58
127.29,3.42,3.99,3.42,3.99,-4.00,-4.49,-4.67,-0.58,-0.58,-0.57
128.57,3.44,4.01,3.43,4.01,-4.01,-4.49,-4.65,-0.57,-0.57,-0.57
129.85,3.46,4.03,3.45,4.02,-4.03,-4.48,-4.63,-0.57,-0.57,-0.57
131.15,3.48,4.05,3.48,4.05,-4.05,-4.48,-4.60,-0.58,-0.57,-0.57
132.46,3.51,4.07,3.51,4.07,-4.08,-4.47,-4.57,-0.57,-0.57,-0.56
133.79,3.55,4.11,3.55,4.11,-4.11,-4.46,-4.53,-0.56,-0.56,-0.56
135.12,3.59,4.15,3.58,4.14,-4.14,-4.46,-4.49,-0.55,-0.55,-0.56
136.48,3.61,4.17,3.61,4.17,-4.16,-4.45,-4.45,-0.55,-0.55,-0.56
137.84,3.63,4.19,3.63,4.19,-4.18,-4.44,-4.41,-0.55,-0.55,-0.56
139.22,3.64,4.20,3.64,4.20,-4.19,-4.43,-4.36,-0.55,-0.55,-0.56
140.61,3.65,4.21,3.65,4.20,-4.19,-4.42,-4.31,-0.55,-0.55,-0.56
142.02,3.65,4.20,3.64,4.20,-4.19,-4.41,-4.26,-0.55,-0.55,-0.55
143.44,3.64,4.19,3.64,4.19,-4.19,-4.40,-4.21,-0.55,-0.55,-0.55
144.87,3.63,4.18,3.63,4.18,-4.18,-4.39,-4.15,-0.56,-0.55,-0.55
146.32,3.63,4.17,3.63,4.17,-4.18,-4.37,-4.10,-0.55,-0.55,-0.54
147.78,3.63,4.17,3.62,4.16,-4.17,-4.36,-4.05,-0.55,-0.55,-0.54
149.26,3.63,4.17,3.63,4.16,-4.17,-4.35,-3.99,-0.54,-0.54,-0.54
150.75,3.63,4.16,3.63,4.16,-4.17,-4.33,-3.94,-0.54,-0.54,-0.53
152.26,3.64,4.17,3.63,4.16,-4.17,-4.31,-3.89,-0.53,-0.53,-0.53
153.78,3.64,4.17,3.64,4.17,-4.17,-4.30,-3.84,-0.53,-0.53,-0.53
155.32,3.65,4.17,3.65,4.17,-4.16,-4.28,-3.79,-0.52,-0.52,-0.52
156.88,3.65,4.17,3.64,4.16,-4.16,-4.26,-3.74,-0.51,-0.51,-0.52
158.44,3.64,4.16,3.64,4.16,-4.15,-4.24,-3.69,-0.51,-0.51,-0.52
160.03,3.62,4.14,3.62,4.14,-4.14,-4.22,-3.64,-0.52,-0.51,-0.52
161.63,3.61,4.13,3.60,4.12,-4.12,-4.20,-3.60,-0.51,-0.52,-0.52
163.24,3.58,4.09,3.58,4.09,-4.10,-4.18,-3.56,-0.52,-0.52,-0.51
164.88,3.56,4.07,3.56,4.07,-4.08,-4.16,-3.52,-0.52,-0.52,-0.51
166.53,3.54,4.05,3.54,4.05,-4.05,-4.14,-3.48,-0.51,-0.51,-0.51
168.19,3.52,4.03,3.51,4.02,-4.02,-4.11,-3.45,-0.50,-0.50,-0.51
169.87,3.49,3.99,3.48,3.99,-3.98,-4.09,-3.41,-0.50,-0.50,-0.50
171.57,3.45,3.95,3.45,3.95,-3.94,-4.07,-3.38,-0.50,-0.49,-0.50
173.29,3.41,3.91,3.41,3.91,-3.90,-4.04,-3.36,-0.49,-0.49,-0.50
175.02,3.37,3.87,3.36,3.86,-3.86,-4.01,-3.33,-0.49,-0.49,-0.50
176.77,3.32,3.81,3.32,3.81,-3.81,-3.99,-3.31,-0.49,-0.49,-0.49
178.54,3.27,3.76,3.27,3.76,-3.76,-3.96,-3.29,-0.49,-0.49,-0.49
180.32,3.22,3.71,3.22,3.71,-3.72,-3.94,-3.27,-0.50,-0.50,-0.49
182.13,3.18,3.67,3.18,3.67,-3.67,-3.91,-3.26,-0.50,-0.50,-0.49
183.95,3.14,3.63,3.14,3.63,-3.63,-3.88,-3.24,-0.50,-0.50,-0.49
185.79,3.11,3.60,3.11,3.60,-3.60,-3.85,-3.23,-0.49,-0.49,-0.49
187.65,3.08,3.57,3.08,3.57,-3.57,-3.82,-3.22,-0.49,-0.49,-0.49
189.52,3.06,3.55,3.06,3.55,-3.54,-3.79,-3.22,-0.48,-0.48,-0.49
191.42,3.04,3.53,3.03,3.52,-3.52,-3.76,-3.22,-0.48,-0.49,-0.49
193.33,3.01,3.50,3.01,3.50,-3.50,-3.73,-3.22,-0.49,-0.49,-0.49
195.27,2.99,3.48,2.99,3.48,-3.49,-3.70,-3.21,-0.50,-0.50,-0.49
197.22,2.98,3.47,2.98,3.47,-3.48,-3.67,-3.22,-0.50,-0.50,-0.49
199.19,2.98,3.47,2.98,3.46,-3.47,-3.64,-3.22,-0.49,-0.49,-0.49
201.18,2.98,3.46,2.98,3.46,-3.46,-3.61,-3.23,-0.48,-0.48,-0.48
203.19,2.98,3.46,2.97,3.45,-3.45,-3.58,-3.23,-0.47,-0.47,-0.48
205.23,2.97,3.44,2.97,3.45,-3.44,-3.55,-3.24,-0.47,-0.47,-0.47
207.28,2.97,3.44,2.96,3.43,-3.43,-3.52,-3.25,-0.46,-0.46,-0.47
209.35,2.96,3.43,2.95,3.42,-3.41,-3.48,-3.26,-0.45,-0.46,-0.47
211.44,2.93,3.39,2.93,3.39,-3.39,-3.45,-3.27,-0.46,-0.46,-0.46
213.56,2.91,3.37,2.91,3.37,-3.37,-3.42,-3.29,-0.46,-0.46,-0.46
215.69,2.88,3.34,2.88,3.34,-3.34,-3.39,-3.30,-0.47,-0.47,-0.46
217.85,2.86,3.32,2.85,3.31,-3.32,-3.35,-3.31,-0.46,-0.46,-0.46
220.03,2.83,3.28,2.83,3.28,-3.29,-3.32,-3.32,-0.46,-0.46,-0.45
222.23,2.81,3.26,2.81,3.26,-3.25,-3.29,-3.33,-0.44,-0.45,-0.45
224.45,2.78,3.23,2.77,3.22,-3.22,-3.26,-3.34,-0.44,-0.44,-0.45
226.70,2.74,3.19,2.74,3.19,-3.18,-3.22,-3.35,-0.44,-0.44,-0.45
228.96,2.70,3.14,2.70,3.14,-3.14,-3.19,-3.35,-0.44,-0.44,-0.44
231.25,2.66,3.10,2.65,3.09,-3.09,-3.16,-3.36,-0.44,-0.44,-0.44
233.57,2.61,3.05,2.61,3.05,-3.05,-3.12,-3.36,-0.45,-0.44,-0.44
235.90,2.57,3.00,2.57,3.00,-3.01,-3.09,-3.36,-0.45,-0.44,-0.43
238.26,2.54,2.97,2.53,2.96,-2.97,-3.06,-3.36,-0.44,-0.44,-0.43
240.64,2.51,2.93,2.51,2.93,-2.94,-3.02,-3.35,-0.43,-0.43,-0.42
243.05,2.49,2.90,2.49,2.90,-2.90,-2.99,-3.34,-0.42,-0.41,-0.41
245.48,2.48,2.88,2.47,2.87,-2.87,-2.96,-3.33,-0.39,-0.40,-0.40
247.93,2.45,2.85,2.45,2.84,-2.83,-2.93,-3.32,-0.38,-0.38,-0.40
250.41,2.42,2.81,2.42,2.81,-2.79,-2.89,-3.30,-0.37,-0.37,-0.39
252.92,2.38,2.76,2.38,2.76,-2.75,-2.86,-3.28,-0.37,-0.37,-0.38
255.45,2.34,2.71,2.33,2.71,-2.71,-2.83,-3.25,-0.37,-0.37,-0.37
258.00,2.29,2.66,2.29,2.66,-2.66,-2.80,-3.23,-0.38,-0.37,-0.37
260.58,2.25,2.61,2.25,2.61,-2.62,-2.77,-3.20,-0.37,-0.37,-0.36
263.19,2.22,2.58,2.21,2.57,-2.58,-2.74,-3.16,-0.36,-0.37,-0.36
265.82,2.18,2.54,2.18,2.53,-2.54,-2.71,-3.13,-0.36,-0.36,-0.36
268.48,2.15,2.50,2.15,2.51,-2.51,-2.68,-3.09,-0.36,-0.35,-0.35
271.16,2.13,2.48,2.12,2.47,-2.47,-2.65,-3.04,-0.35,-0.35,-0.35
273.87,2.11,2.46,2.10,2.45,-2.44,-2.62,-3.00,-0.33,-0.34,-0.35
276.61,2.08,2.42,2.08,2.42,-2.41,-2.59,-2.95,-0.34,-0.33,-0.34
279.38,2.06,2.40,2.05,2.39,-2.39,-2.56,-2.91,-0.33,-0.33,-0.34
282.17,2.03,2.36,2.03,2.36,-2.36,-2.53,-2.86,-0.34,-0.33,-0.33
284.99,2.01,2.34,2.01,2.34,-2.34,-2.50,-2.81,-0.34,-0.34,-0.33
287.84,1.99,2.32,1.99,2.32,-2.33,-2.47,-2.75,-0.34,-0.34,-0.33
290.72,1.98,2.31,1.98,2.31,-2.32,-2.45,-2.70,-0.34,-0.34,-0.33
293.63,1.98,2.31,1.98,2.30,-2.31,-2.42,-2.65,-0.33,-0.33,-0.33
296.57,1.98,2.31,1.98,2.31,-2.30,-2.39,-2.59,-0.33,-0.33,-0.33
299.53,1.99,2.31,1.99,2.31,-2.30,-2.37,-2.54,-0.32,-0.32,-0.32
302.53,2.00,2.32,1.99,2.31,-2.31,-2.34,-2.48,-0.31,-0.31,-0.32
305.55,2.00,2.32,2.00,2.31,-2.31,-2.32,-2.43,-0.31,-0.31,-0.32
308.61,2.00,2.31,2.00,2.31,-2.31,-2.30,-2.38,-0.32,-0.31,-0.31
311.69,2.00,2.31,2.00,2.31,-2.32,-2.27,-2.32,-0.32,-0.32,-0.31
314.81,2.01,2.31,2.01,2.31,-2.32,-2.25,-2.27,-0.31,-0.31,-0.30
317.96,2.02,2.32,2.02,2.31,-2.32,-2.23,-2.22,-0.30,-0.30,-0.30
321.14,2.03,2.32,2.02,2.32,-2.31,-2.21,-2.17,-0.29,-0.29,-0.29
324.35,2.03,2.32,2.02,2.32,-2.31,-2.19,-2.12,-0.28,-0.28,-0.29
327.59,2.02,2.31,2.02,2.30,-2.30,-2.17,-2.07,-0.28,-0.28,-0.29
330.87,2.01,2.29,2.01,2.29,-2.28,-2.15,-2.02,-0.28,-0.27,-0.28
334.18,2.00,2.27,1.99,2.27,-2.26,-2.14,-1.97,-0.27,-0.27,-0.27
337.52,1.98,2.25,1.97,2.24,-2.24,-2.12,-1.93,-0.26,-0.27,-0.27
340.90,1.95,2.21,1.95,2.21,-2.21,-2.10,-1.88,-0.26,-0.26,-0.26
344.30,1.92,2.18,1.92,2.18,-2.18,-2.09,-1.84,-0.26,-0.26,-0.26
347.75,1.89,2.15,1.89,2.15,-2.15,-2.07,-1.80,-0.26,-0.26,-0.26
351.23,1.86,2.12,1.86,2.11,-2.11,-2.06,-1.75,-0.26,-0.26,-0.26
354.74,1.83,2.08,1.83,2.08,-2.08,-2.04,-1.72,-0.25,-0.26,-0.25
358.28,1.80,2.05,1.80,2.05,-2.05,-2.03,-1.68,-0.26,-0.26,-0.25
361.87,1.77,2.02,1.77,2.02,-2.03,-2.01,-1.64,-0.26,-0.26,-0.25
365.49,1.75,2.00,1.75,2.00,-2.00,-1.99,-1.61,-0.25,-0.25,-0.25
369.14,1.73,1.98,1.73,1.98,-1.98,-1.98,-1.57,-0.25,-0.25,-0.25
372.83,1.72,1.97,1.71,1.96,-1.96,-1.96,-1.54,-0.24,-0.24,-0.25
376.56,1.70,1.94,1.70,1.94,-1.94,-1.94,-1.51,-0.24,-0.24,-0.24
380.33,1.68,1.92,1.68,1.92,-1.92,-1.92,-1.48,-0.24,-0.24,-0.24
384.13,1.66,1.90,1.66,1.89,-1.90,-1.89,-1.45,-0.24,-0.24,-0.24
387.97,1.64,1.88,1.64,1.87,-1.88,-1.87,-1.42,-0.24,-0.24,-0.24
391.85,1.62,1.85,1.62,1.85,-1.86,-1.84,-1.39,-0.24,-0.24,-0.23
395.77,1.61,1.84,1.60,1.83,-1.83,-1.81,-1.37,-0.23,-0.23,-0.23
399.73,1.59,1.81,1.59,1.81,-1.81,-1.78,-1.34,-0.22,-0.22,-0.22
403.72,1.57,1.79,1.57,1.78,-1.78,-1.75,-1.32,-0.21,-0.21,-0.22
407.76,1.54,1.75,1.54,1.75,-1.74,-1.72,-1.29,-0.21,-0.20,-0.21
411.84,1.51,1.72,1.50,1.71,-1.70,-1.68,-1.27,-0.20,-0.20,-0.21
415.96,1.47,1.67,1.47,1.67,-1.66,-1.64,-1.25,-0.19,-0.20,-0.20
420.12,1.42,1.62,1.42,1.62,-1.62,-1.61,-1.23,-0.20,-0.19,-0.20
424.32,1.38,1.58,1.37,1.57,-1.57,-1.57,-1.21,-0.19,-0.20,-0.20
428.56,1.33,1.52,1.32,1.52,-1.53,-1.53,-1.19,-0.20,-0.20,-0.19
432.85,1.28,1.47,1.28,1.47,-1.48,-1.49,-1.17,-0.21,-0.20,-0.19
437.18,1.24,1.43,1.24,1.43,-1.45,-1.45,-1.15,-0.21,-0.20,-0.19
441.55,1.22,1.41,1.21,1.40,-1.41,-1.41,-1.14,-0.19,-0.20,-0.19
445.96,1.19,1.38,1.19,1.38,-1.37,-1.37,-1.12,-0.19,-0.19,-0.19
450.42,1.16,1.35,1.16,1.35,-1.34,-1.33,-1.10,-0.18,-0.18,-0.19
454.93,1.13,1.32,1.12,1.31,-1.30,-1.30,-1.09,-0.18,-0.18,-0.19
459.48,1.09,1.28,1.09,1.28,-1.27,-1.26,-1.07,-0.18,-0.18,-0.19
464.07,1.05,1.24,1.05,1.24,-1.23,-1.22,-1.06,-0.18,-0.18,-0.19
468.71,1.01,1.20,1.00,1.19,-1.19,-1.19,-1.04,-0.18,-0.19,-0.19
