frequency,raw,error,smoothed,error_smoothed,equalization,parametric_eq,fixed_band_eq,equalized_raw,equalized_smoothed,target
20.00,-8.16,-11.30,-8.16,-11.30,6.00,5.92,2.81,-2.16,-2.16,3.14
20.20,-8.08,-11.26,-8.08,-11.26,6.00,5.92,2.89,-2.08,-2.08,3.18
20.40,-8.01,-11.23,-8.01,-11.22,6.00,5.92,2.97,-2.01,-2.01,3.22
20.61,-7.93,-11.17,-7.93,-11.18,6.00,5.92,3.05,-1.93,-1.93,3.24
20.81,-7.85,-11.13,-7.85,-11.13,6.00,5.91,3.14,-1.85,-1.85,3.28
21.02,-7.77,-11.09,-7.77,-11.08,6.00,5.91,3.23,-1.77,-1.77,3.32
21.23,-7.70,-11.03,-7.70,-11.03,6.00,5.91,3.32,-1.70,-1.70,3.33
21.44,-7.62,-10.97,-7.62,-10.96,6.00,5.91,3.41,-1.62,-1.62,3.35
21.66,-7.54,-10.90,-7.54,-10.89,6.00,5.91,3.51,-1.54,-1.54,3.35
21.87,-7.46,-10.81,-7.46,-10.82,6.00,5.91,3.61,-1.46,-1.46,3.35
22.09,-7.39,-10.75,-7.39,-10.75,6.00,5.91,3.71,-1.39,-1.39,3.36
22.31,-7.32,-10.68,-7.32,-10.69,6.00,5.91,3.82,-1.32,-1.32,3.36
22.54,-7.26,-10.63,-7.26,-10.62,6.00,5.91,3.92,-1.26,-1.26,3.36
22.76,-7.19,-10.54,-7.19,-10.55,6.00,5.91,4.04,-1.19,-1.19,3.35
22.99,-7.12,-10.46,-7.12,-10.47,6.00,5.91,4.15,-1.12,-1.12,3.34
23.22,-7.06,-10.40,-7.06,-10.40,6.00,5.91,4.27,-1.06,-1.06,3.34
23.45,-6.99,-10.32,-6.99,-10.33,6.00,5.91,4.38,-0.99,-0.99,3.33
23.69,-6.93,-10.26,-6.93,-10.26,6.00,5.90,4.51,-0.93,-0.93,3.33
23.92,-6.86,-10.19,-6.86,-10.20,6.00,5.90,4.63,-0.86,-0.86,3.33
24.16,-6.79,-10.13,-6.79,-10.13,6.00,5.90,4.75,-0.79,-0.79,3.34
24.40,-6.72,-10.06,-6.72,-10.05,6.00,5.90,4.88,-0.72,-0.72,3.34
24.65,-6.64,-9.97,-6.64,-9.98,6.00,5.90,5.01,-0.64,-0.64,3.33
24.89,-6.57,-9.90,-6.57,-9.90,6.00,5.90,5.14,-0.57,-0.57,3.33
25.14,-6.50,-9.83,-6.50,-9.83,6.00,5.90,5.28,-0.50,-0.50,3.33
25.39,-6.43,-9.76,-6.43,-9.75,6.00,5.90,5.41,-0.43,-0.43,3.33
25.65,-6.36,-9.68,-6.36,-9.68,6.00,5.90,5.55,-0.36,-0.36,3.32
25.91,-6.30,-9.61,-6.30,-9.61,6.00,5.89,5.69,-0.30,-0.30,3.31
26.16,-6.25,-9.56,-6.26,-9.57,6.00,5.89,5.82,-0.25,-0.26,3.30
26.43,-6.23,-9.54,-6.23,-9.54,6.00,5.89,5.96,-0.23,-0.23,3.30
26.69,-6.21,-9.51,-6.21,-9.51,6.00,5.89,6.09,-0.21,-0.21,3.30
26.96,-6.18,-9.47,-6.17,-9.47,6.00,5.89,6.23,-0.18,-0.17,3.29
27.23,-6.12,-9.41,-6.12,-9.41,6.00,5.89,6.36,-0.12,-0.12,3.29
27.50,-6.05,-9.34,-6.06,-9.34,6.00,5.89,6.49,-0.05,-0.06,3.29
27.77,-5.98,-9.26,-5.98,-9.26,6.00,5.88,6.61,0.02,0.02,3.28
28.05,-5.90,-9.18,-5.90,-9.18,6.00,5.88,6.73,0.10,0.10,3.28
28.33,-5.82,-9.09,-5.82,-9.09,6.00,5.88,6.85,0.18,0.18,3.27
28.62,-5.73,-9.00,-5.73,-9.00,6.00,5.88,6.96,0.27,0.27,3.27
28.90,-5.65,-8.92,-5.66,-8.93,6.00,5.88,7.06,0.35,0.34,3.27
29.19,-5.61,-8.88,-5.62,-8.89,6.00,5.87,7.16,0.39,0.38,3.26
29.48,-5.60,-8.88,-5.60,-8.87,6.00,5.87,7.24,0.40,0.40,3.27
29.78,-5.58,-8.84,-5.58,-8.85,6.00,5.87,7.32,0.42,0.42,3.26
30.08,-5.55,-8.82,-5.54,-8.81,6.00,5.87,7.39,0.45,0.46,3.27
30.38,-5.49,-8.74,-5.50,-8.75,6.00,5.87,7.45,0.51,0.50,3.25
30.68,-5.43,-8.68,-5.43,-8.68,6.00,5.86,7.49,0.57,0.57,3.25
30.99,-5.37,-8.61,-5.37,-8.61,6.00,5.86,7.54,0.63,0.63,3.24
31.30,-5.30,-8.54,-5.31,-8.54,6.00,5.86,7.56,0.70,0.69,3.24
31.61,-5.24,-8.48,-5.24,-8.47,6.00,5.86,7.58,0.76,0.76,3.23
31.93,-5.17,-8.39,-5.17,-8.39,6.00,5.85,7.58,0.83,0.83,3.21
32.24,-5.10,-8.30,-5.10,-8.31,6.00,5.85,7.58,0.90,0.90,3.20
32.57,-5.04,-8.24,-5.04,-8.23,6.00,5.85,7.56,0.96,0.96,3.20
32.89,-4.97,-8.16,-4.97,-8.16,6.00,5.84,7.53,1.03,1.03,3.19
33.22,-4.91,-8.08,-4.91,-8.08,6.00,5.84,7.50,1.09,1.09,3.17
33.55,-4.84,-8.01,-4.84,-8.00,6.00,5.84,7.45,1.16,1.16,3.16
33.89,-4.78,-7.92,-4.78,-7.93,6.00,5.84,7.40,1.22,1.22,3.14
34.23,-4.71,-7.85,-4.71,-7.85,6.00,5.83,7.35,1.29,1.29,3.14
34.57,-4.64,-7.76,-4.64,-7.76,6.00,5.83,7.28,1.36,1.36,3.12
34.92,-4.57,-7.68,-4.57,-7.68,6.00,5.82,7.21,1.43,1.43,3.11
35.27,-4.49,-7.60,-4.49,-7.59,6.00,5.82,7.14,1.51,1.51,3.10
35.62,-4.42,-7.50,-4.42,-7.51,6.00,5.82,7.06,1.58,1.58,3.08
35.97,-4.35,-7.42,-4.36,-7.43,6.00,5.81,6.98,1.65,1.64,3.07
36.33,-4.31,-7.38,-4.31,-7.37,6.00,5.81,6.90,1.69,1.69,3.07
36.70,-4.28,-7.34,-4.28,-7.33,6.00,5.80,6.82,1.72,1.72,3.06
37.06,-4.25,-7.29,-4.25,-7.30,6.00,5.80,6.73,1.75,1.75,3.04
37.43,-4.22,-7.27,-4.22,-7.26,6.00,5.79,6.65,1.78,1.78,3.05
37.81,-4.18,-7.22,-4.18,-7.22,6.00,5.79,6.57,1.82,1.82,3.04
38.19,-4.14,-7.17,-4.14,-7.17,6.00,5.78,6.49,1.86,1.86,3.02
38.57,-4.09,-7.12,-4.09,-7.12,6.00,5.78,6.41,1.91,1.91,3.03
38.95,-4.04,-7.06,-4.03,-7.05,6.00,5.77,6.33,1.96,1.97,3.02
39.34,-3.96,-6.98,-3.95,-6.97,6.00,5.77,6.25,2.04,2.05,3.01
39.74,-3.87,-6.87,-3.88,-6.89,6.00,5.76,6.18,2.13,2.12,3.00
40.14,-3.81,-6.81,-3.82,-6.82,6.00,5.76,6.11,2.19,2.18,3.00
40.54,-3.79,-6.79,-3.79,-6.78,6.00,5.75,6.05,2.21,2.21,2.99
40.94,-3.77,-6.76,-3.76,-6.75,6.00,5.74,5.98,2.23,2.24,2.99
41.35,-3.73,-6.71,-3.73,-6.71,6.00,5.74,5.93,2.27,2.27,2.98
41.76,-3.68,-6.64,-3.68,-6.65,6.00,5.73,5.87,2.32,2.32,2.96
42.18,-3.63,-6.59,-3.64,-6.59,6.00,5.72,5.82,2.37,2.36,2.96
42.60,-3.59,-6.54,-3.59,-6.54,6.00,5.71,5.77,2.41,2.41,2.94
43.03,-3.55,-6.49,-3.54,-6.47,6.00,5.71,5.73,2.45,2.46,2.94
43.46,-3.48,-6.40,-3.48,-6.39,6.00,5.70,5.69,2.52,2.52,2.92
43.90,-3.41,-6.30,-3.43,-6.32,6.00,5.69,5.66,2.59,2.58,2.89
44.33,-3.38,-6.26,-3.39,-6.26,6.01,5.68,5.63,2.63,2.62,2.88
44.78,-3.37,-6.22,-3.36,-6.21,6.01,5.67,5.60,2.64,2.65,2.85
45.23,-3.34,-6.18,-3.33,-6.17,6.01,5.66,5.58,2.67,2.68,2.83
45.68,-3.29,-6.11,-3.30,-6.11,6.00,5.65,5.56,2.71,2.71,2.82
46.13,-3.24,-6.04,-3.25,-6.05,5.99,5.64,5.55,2.74,2.74,2.80
46.60,-3.20,-6.00,-3.20,-6.00,5.96,5.63,5.54,2.76,2.76,2.80
47.06,-3.15,-5.94,-3.15,-5.94,5.92,5.62,5.54,2.77,2.77,2.79
47.53,-3.10,-5.89,-3.10,-5.89,5.87,5.61,5.54,2.77,2.77,2.78
48.01,-3.05,-5.83,-3.05,-5.83,5.82,5.60,5.54,2.77,2.77,2.78
48.49,-3.00,-5.76,-3.00,-5.76,5.76,5.59,5.55,2.76,2.76,2.76
48.97,-2.95,-5.70,-2.95,-5.69,5.71,5.58,5.56,2.76,2.76,2.74
49.46,-2.90,-5.64,-2.90,-5.63,5.66,5.56,5.57,2.76,2.76,2.74
49.96,-2.85,-5.57,-2.87,-5.59,5.62,5.55,5.58,2.77,2.76,2.72
50.46,-2.85,-5.58,-2.85,-5.57,5.60,5.54,5.60,2.74,2.75,2.73
50.96,-2.85,-5.57,-2.85,-5.57,5.57,5.52,5.62,2.72,2.73,2.72
51.47,-2.85,-5.57,-2.85,-5.57,5.56,5.51,5.65,2.70,2.70,2.71
51.99,-2.85,-5.56,-2.85,-5.56,5.54,5.49,5.67,2.69,2.69,2.71
52.51,-2.84,-5.55,-2.85,-5.55,5.52,5.48,5.70,2.68,2.68,2.71
53.03,-2.84,-5.55,-2.82,-5.53,5.50,5.46,5.72,2.66,2.68,2.71
53.56,-2.79,-5.49,-2.79,-5.49,5.48,5.44,5.75,2.69,2.69,2.70
54.10,-2.75,-5.44,-2.77,-5.46,5.47,5.43,5.78,2.71,2.70,2.69
54.64,-2.75,-5.44,-2.75,-5.43,5.45,5.41,5.80,2.70,2.70,2.69
55.18,-2.75,-5.43,-2.74,-5.42,5.44,5.39,5.83,2.69,2.70,2.68
55.74,-2.75,-5.42,-2.76,-5.43,5.44,5.37,5.85,2.69,2.68,2.67
56.29,-2.78,-5.45,-2.79,-5.45,5.45,5.35,5.87,2.67,2.66,2.66
56.86,-2.84,-5.48,-2.83,-5.47,5.47,5.33,5.89,2.63,2.64,2.64
57.42,-2.88,-5.51,-2.88,-5.51,5.50,5.31,5.91,2.62,2.62,2.63
58.00,-2.93,-5.55,-2.94,-5.55,5.55,5.29,5.92,2.62,2.62,2.62
58.58,-3.00,-5.61,-3.00,-5.60,5.61,5.27,5.93,2.61,2.62,2.60
59.16,-3.07,-5.66,-3.08,-5.66,5.68,5.24,5.93,2.61,2.60,2.59
59.76,-3.16,-5.73,-3.15,-5.72,5.75,5.22,5.93,2.59,2.60,2.57
60.35,-3.25,-5.79,-3.24,-5.79,5.81,5.19,5.92,2.56,2.57,2.54
60.96,-3.34,-5.86,-3.36,-5.88,5.87,5.17,5.91,2.53,2.51,2.52
61.57,-3.53,-6.00,-3.55,-6.02,5.92,5.14,5.89,2.39,2.37,2.47
62.18,-3.75,-6.19,-3.76,-6.20,5.96,5.12,5.87,2.21,2.20,2.44
62.80,-4.01,-6.41,-3.96,-6.36,5.99,5.09,5.84,1.98,2.03,2.40
63.43,-4.12,-6.49,-4.12,-6.49,6.01,5.06,5.80,1.89,1.89,2.36
64.07,-4.19,-6.52,-4.25,-6.58,6.03,5.03,5.75,1.84,1.77,2.33
64.71,-4.36,-6.65,-4.32,-6.62,6.04,5.00,5.70,1.68,1.72,2.29
65.35,-4.39,-6.65,-4.36,-6.62,6.05,4.97,5.65,1.66,1.69,2.26
66.01,-4.30,-6.53,-4.34,-6.56,6.04,4.94,5.58,1.74,1.70,2.22
66.67,-4.25,-6.44,-4.25,-6.44,6.01,4.90,5.52,1.76,1.77,2.18
67.33,-4.14,-6.30,-4.13,-6.28,5.96,4.87,5.44,1.82,1.83,2.15
68.01,-3.97,-6.09,-3.98,-6.10,5.87,4.83,5.36,1.90,1.89,2.11
68.69,-3.80,-5.88,-3.79,-5.87,5.75,4.80,5.28,1.95,1.96,2.07
69.37,-3.60,-5.63,-3.59,-5.63,5.61,4.76,5.20,2.01,2.01,2.03
70.07,-3.38,-5.37,-3.40,-5.39,5.43,4.72,5.11,2.05,2.03,1.99
70.77,-3.21,-5.17,-3.21,-5.17,5.23,4.68,5.02,2.02,2.02,1.96
71.48,-3.06,-4.98,-3.06,-4.98,5.02,4.64,4.92,1.96,1.95,1.92
72.19,-2.93,-4.80,-2.93,-4.80,4.81,4.60,4.83,1.88,1.87,1.87
72.91,-2.82,-4.64,-2.80,-4.62,4.61,4.56,4.73,1.79,1.81,1.82
73.64,-2.67,-4.44,-2.67,-4.44,4.45,4.52,4.63,1.78,1.78,1.77
74.38,-2.54,-4.27,-2.55,-4.28,4.31,4.47,4.53,1.77,1.76,1.73
75.12,-2.44,-4.12,-2.47,-4.16,4.19,4.43,4.43,1.75,1.72,1.68
75.87,-2.44,-4.09,-2.44,-4.08,4.09,4.38,4.33,1.65,1.66,1.65
76.63,-2.44,-4.05,-2.41,-4.02,4.01,4.33,4.23,1.57,1.60,1.61
77.40,-2.39,-3.96,-2.38,-3.96,3.95,4.28,4.13,1.56,1.56,1.57
78.17,-2.32,-3.86,-2.35,-3.89,3.89,4.23,4.04,1.57,1.54,1.53
78.95,-2.33,-3.84,-2.34,-3.84,3.85,4.18,3.94,1.51,1.51,1.51
79.74,-2.35,-3.83,-2.35,-3.82,3.80,4.13,3.85,1.45,1.45,1.48
80.54,-2.36,-3.81,-2.34,-3.79,3.75,4.08,3.75,1.39,1.41,1.45
81.35,-2.32,-3.74,-2.31,-3.73,3.70,4.02,3.66,1.38,1.39,1.42
82.16,-2.24,-3.63,-2.27,-3.66,3.66,3.97,3.57,1.42,1.39,1.39
82.98,-2.24,-3.61,-2.24,-3.60,3.63,3.91,3.48,1.39,1.39,1.37
83.81,-2.24,-3.57,-2.23,-3.56,3.60,3.85,3.40,1.36,1.37,1.32
84.65,-2.24,-3.53,-2.24,-3.54,3.57,3.79,3.31,1.33,1.33,1.29
85.50,-2.24,-3.51,-2.25,-3.51,3.54,3.73,3.23,1.29,1.29,1.27
86.35,-2.26,-3.50,-2.28,-3.51,3.50,3.67,3.15,1.24,1.22,1.24
87.22,-2.30,-3.50,-2.31,-3.51,3.46,3.61,3.07,1.16,1.15,1.20
88.09,-2.33,-3.50,-2.30,-3.47,3.41,3.55,3.00,1.08,1.11,1.17
88.97,-2.26,-3.41,-2.25,-3.39,3.35,3.49,2.93,1.09,1.11,1.14
89.86,-2.14,-3.25,-2.16,-3.27,3.28,3.42,2.85,1.14,1.12,1.11
90.76,-2.07,-3.15,-2.09,-3.17,3.21,3.36,2.79,1.13,1.11,1.07
91.66,-2.05,-3.10,-2.05,-3.10,3.12,3.29,2.72,1.07,1.07,1.05
92.58,-2.04,-3.05,-2.02,-3.03,3.04,3.23,2.66,0.99,1.02,1.01
93.51,-1.98,-2.97,-1.97,-2.95,2.95,3.16,2.59,0.97,0.98,0.99
94.44,-1.89,-2.85,-1.91,-2.87,2.86,3.09,2.53,0.97,0.96,0.96
95.39,-1.84,-2.77,-1.86,-2.79,2.79,3.03,2.47,0.95,0.93,0.93
96.34,-1.84,-2.74,-1.83,-2.73,2.72,2.96,2.42,0.88,0.89,0.89
97.30,-1.82,-2.69,-1.79,-2.66,2.66,2.90,2.36,0.84,0.87,0.87
98.28,-1.74,-2.58,-1.74,-2.59,2.60,2.83,2.31,0.86,0.85,0.84
99.26,-1.67,-2.49,-1.70,-2.52,2.54,2.77,2.26,0.87,0.84,0.82
100.25,-1.68,-2.48,-1.68,-2.48,2.49,2.70,2.21,0.81,0.81,0.79
101.25,-1.70,-2.47,-1.69,-2.45,2.45,2.64,2.16,0.75,0.76,0.77
102.27,-1.70,-2.44,-1.69,-2.42,2.40,2.58,2.12,0.70,0.72,0.74
103.29,-1.66,-2.35,-1.68,-2.37,2.36,2.51,2.07,0.70,0.69,0.69
104.32,-1.65,-2.32,-1.67,-2.33,2.32,2.45,2.03,0.67,0.66,0.67
105.37,-1.67,-2.30,-1.66,-2.29,2.29,2.39,1.99,0.62,0.63,0.63
106.42,-1.66,-2.27,-1.65,-2.25,2.26,2.34,1.95,0.60,0.61,0.60
107.48,-1.63,-2.20,-1.65,-2.21,2.23,2.28,1.91,0.60,0.58,0.57
108.56,-1.64,-2.17,-1.64,-2.17,2.20,2.22,1.87,0.56,0.56,0.53
109.64,-1.66,-2.15,-1.66,-2.15,2.17,2.17,1.84,0.51,0.51,0.49
110.74,-1.68,-2.14,-1.69,-2.15,2.13,2.12,1.80,0.45,0.45,0.46
111.85,-1.70,-2.13,-1.70,-2.13,2.09,2.06,1.77,0.39,0.39,0.43
112.97,-1.71,-2.10,-1.69,-2.09,2.04,2.01,1.73,0.33,0.35,0.39
114.10,-1.65,-2.02,-1.66,-2.02,1.99,1.96,1.70,0.34,0.33,0.37
115.24,-1.61,-1.94,-1.60,-1.94,1.94,1.92,1.67,0.33,0.34,0.33
116.39,-1.54,-1.85,-1.55,-1.86,1.89,1.87,1.64,0.34,0.33,0.30
117.55,-1.51,-1.79,-1.52,-1.80,1.83,1.83,1.60,0.32,0.31,0.28
118.73,-1.51,-1.76,-1.50,-1.76,1.79,1.78,1.57,0.27,0.28,0.25
119.92,-1.50,-1.75,-1.50,-1.73,1.75,1.74,1.54,0.24,0.25,0.24
121.12,-1.49,-1.71,-1.49,-1.71,1.71,1.70,1.51,0.22,0.22,0.22
122.33,-1.48,-1.68,-1.48,-1.69,1.68,1.66,1.48,0.20,0.20,0.20
123.55,-1.48,-1.68,-1.48,-1.67,1.66,1.61,1.45,0.18,0.18,0.20
124.79,-1.47,-1.65,-1.48,-1.65,1.63,1.57,1.42,0.16,0.15,0.17
126.03,-1.47,-1.63,-1.46,-1.62,1.60,1.53,1.39,0.13,0.14,0.16
127.29,-1.43,-1.58,-1.43,-1.57,1.57,1.50,1.37,0.13,0.14,0.15
128.57,-1.38,-1.50,-1.39,-1.51,1.53,1.46,1.34,0.14,0.14,0.12
129.85,-1.34,-1.45,-1.35,-1.46,1.48,1.42,1.31,0.14,0.13,0.11
131.15,-1.34,-1.44,-1.34,-1.44,1.44,1.38,1.28,0.10,0.10,0.10
132.46,-1.33,-1.42,-1.32,-1.41,1.39,1.34,1.25,0.06,0.07,0.09
133.79,-1.31,-1.40,-1.29,-1.36,1.35,1.31,1.22,0.04,0.06,0.08
135.12,-1.22,-1.27,-1.25,-1.32,1.32,1.27,1.19,0.10,0.07,0.05
136.48,-1.22,-1.27,-1.22,-1.27,1.29,1.23,1.17,0.07,0.06,0.05
137.84,-1.22,-1.25,-1.21,-1.24,1.26,1.20,1.14,0.04,0.05,0.03
139.22,-1.22,-1.23,-1.22,-1.23,1.24,1.16,1.11,0.01,0.01,0.00
140.61,-1.22,-1.21,-1.22,-1.21,1.21,1.13,1.08,-0.01,-0.00,-0.01
142.02,-1.21,-1.20,-1.21,-1.19,1.20,1.09,1.05,-0.01,-0.02,-0.01
143.44,-1.21,-1.18,-1.21,-1.18,1.18,1.06,1.03,-0.03,-0.03,-0.03
144.87,-1.21,-1.15,-1.21,-1.16,1.16,1.02,1.00,-0.05,-0.05,-0.06
146.32,-1.21,-1.13,-1.21,-1.13,1.13,0.99,0.97,-0.09,-0.09,-0.08
147.78,-1.21,-1.10,-1.22,-1.11,1.08,0.95,0.94,-0.13,-0.14,-0.11
149.26,-1.22,-1.08,-1.21,-1.06,1.03,0.92,0.92,-0.19,-0.18,-0.15
150.75,-1.20,-1.00,-1.19,-0.99,0.98,0.88,0.89,-0.23,-0.21,-0.20
152.26,-1.14,-0.90,-1.15,-0.91,0.91,0.85,0.87,-0.23,-0.24,-0.24
153.78,-1.11,-0.81,-1.12,-0.82,0.84,0.81,0.84,-0.27,-0.29,-0.30
155.32,-1.11,-0.75,-1.11,-0.75,0.76,0.78,0.81,-0.35,-0.35,-0.36
156.88,-1.11,-0.70,-1.11,-0.69,0.69,0.75,0.79,-0.42,-0.42,-0.41
158.44,-1.11,-0.63,-1.11,-0.63,0.63,0.71,0.76,-0.48,-0.48,-0.49
160.03,-1.11,-0.57,-1.11,-0.57,0.58,0.68,0.74,-0.53,-0.53,-0.55
161.63,-1.11,-0.51,-1.11,-0.51,0.54,0.65,0.71,-0.57,-0.57,-0.60
163.24,-1.12,-0.46,-1.12,-0.47,0.51,0.61,0.69,-0.61,-0.62,-0.66
164.88,-1.14,-0.45,-1.16,-0.46,0.47,0.58,0.67,-0.67,-0.69,-0.69
166.53,-1.20,-0.47,-1.21,-0.48,0.43,0.55,0.64,-0.77,-0.77,-0.73
168.19,-1.23,-0.48,-1.22,-0.46,0.40,0.51,0.62,-0.83,-0.82,-0.76
169.87,-1.23,-0.45,-1.18,-0.40,0.36,0.48,0.60,-0.87,-0.82,-0.78
171.57,-1.08,-0.28,-1.12,-0.32,0.33,0.45,0.58,-0.75,-0.79,-0.80
173.29,-1.05,-0.24,-1.07,-0.26,0.31,0.42,0.55,-0.75,-0.76,-0.81
175.02,-1.05,-0.24,-1.04,-0.23,0.28,0.38,0.53,-0.77,-0.76,-0.82
176.77,-1.06,-0.24,-1.05,-0.23,0.25,0.35,0.51,-0.81,-0.80,-0.82
178.54,-1.06,-0.23,-1.06,-0.24,0.23,0.32,0.49,-0.83,-0.82,-0.83
180.32,-1.05,-0.24,-1.06,-0.24,0.22,0.29,0.47,-0.83,-0.83,-0.81
182.13,-1.05,-0.24,-1.05,-0.24,0.22,0.26,0.45,-0.83,-0.83,-0.81
183.95,-1.04,-0.23,-1.04,-0.23,0.22,0.23,0.43,-0.82,-0.82,-0.81
185.79,-1.03,-0.22,-1.03,-0.21,0.21,0.19,0.41,-0.82,-0.82,-0.82
187.65,-1.01,-0.18,-1.02,-0.19,0.20,0.16,0.39,-0.82,-0.82,-0.83
189.52,-1.00,-0.17,-1.00,-0.17,0.17,0.14,0.37,-0.84,-0.84,-0.83
191.42,-0.99,-0.15,-0.99,-0.15,0.13,0.11,0.35,-0.86,-0.86,-0.84
193.33,-0.97,-0.11,-0.97,-0.11,0.09,0.08,0.33,-0.88,-0.88,-0.86
195.27,-0.94,-0.07,-0.93,-0.06,0.05,0.05,0.31,-0.90,-0.88,-0.87
197.22,-0.88,0.01,-0.88,0.01,0.00,0.02,0.29,-0.88,-0.88,-0.89
199.19,-0.83,0.08,-0.84,0.06,-0.04,-0.00,0.27,-0.87,-0.88,-0.91
201.18,-0.82,0.10,-0.82,0.10,-0.08,-0.02,0.25,-0.90,-0.90,-0.92
203.19,-0.82,0.11,-0.82,0.12,-0.11,-0.05,0.24,-0.93,-0.93,-0.93
205.23,-0.82,0.14,-0.82,0.13,-0.14,-0.07,0.22,-0.96,-0.96,-0.96
207.28,-0.82,0.14,-0.82,0.15,-0.16,-0.08,0.20,-0.98,-0.98,-0.96
209.35,-0.82,0.17,-0.82,0.17,-0.18,-0.10,0.19,-1.00,-1.00,-0.99
211.44,-0.82,0.19,-0.82,0.18,-0.19,-0.12,0.17,-1.01,-1.01,-1.01
213.56,-0.82,0.20,-0.82,0.20,-0.20,-0.13,0.16,-1.02,-1.02,-1.02
215.69,-0.83,0.20,-0.83,0.20,-0.20,-0.14,0.14,-1.03,-1.03,-1.03
217.85,-0.83,0.21,-0.83,0.21,-0.21,-0.14,0.13,-1.04,-1.04,-1.04
220.03,-0.83,0.22,-0.84,0.22,-0.21,-0.15,0.12,-1.05,-1.05,-1.06
222.23,-0.84,0.22,-0.84,0.22,-0.21,-0.15,0.10,-1.06,-1.05,-1.06
224.45,-0.84,0.21,-0.84,0.22,-0.21,-0.15,0.09,-1.06,-1.06,-1.05
226.70,-0.84,0.21,-0.84,0.21,-0.21,-0.15,0.08,-1.05,-1.05,-1.05
228.96,-0.83,0.21,-0.84,0.20,-0.21,-0.15,0.07,-1.04,-1.05,-1.04
231.25,-0.83,0.20,-0.83,0.20,-0.20,-0.14,0.06,-1.04,-1.03,-1.03
233.57,-0.82,0.20,-0.82,0.20,-0.20,-0.13,0.06,-1.02,-1.02,-1.02
235.90,-0.80,0.20,-0.81,0.20,-0.19,-0.12,0.05,-0.99,-1.00,-1.00
238.26,-0.79,0.19,-0.79,0.19,-0.19,-0.11,0.04,-0.98,-0.98,-0.98
240.64,-0.77,0.18,-0.78,0.18,-0.18,-0.09,0.04,-0.95,-0.96,-0.96
243.05,-0.76,0.16,-0.76,0.17,-0.18,-0.08,0.04,-0.94,-0.93,-0.92
245.48,-0.74,0.16,-0.74,0.16,-0.17,-0.06,0.03,-0.91,-0.91,-0.90
247.93,-0.71,0.16,-0.71,0.16,-0.16,-0.05,0.03,-0.87,-0.88,-0.87
250.41,-0.69,0.17,-0.69,0.16,-0.16,-0.03,0.03,-0.85,-0.85,-0.86
252.92,-0.67,0.15,-0.67,0.15,-0.15,-0.01,0.03,-0.82,-0.82,-0.82
255.45,-0.66,0.14,-0.66,0.14,-0.14,0.01,0.04,-0.80,-0.80,-0.80
258.00,-0.65,0.13,-0.65,0.13,-0.13,0.03,0.04,-0.78,-0.78,-0.78
260.58,-0.65,0.11,-0.65,0.11,-0.11,0.05,0.05,-0.77,-0.77,-0.77
263.19,-0.65,0.09,-0.65,0.09,-0.09,0.07,0.05,-0.74,-0.74,-0.74
265.82,-0.65,0.07,-0.65,0.08,-0.06,0.09,0.06,-0.71,-0.70,-0.72
268.48,-0.65,0.05,-0.66,0.04,-0.02,0.11,0.07,-0.67,-0.68,-0.70
271.16,-0.66,0.01,-0.68,-0.01,0.02,0.13,0.08,-0.64,-0.67,-0.67
273.87,-0.73,-0.08,-0.72,-0.07,0.05,0.15,0.09,-0.68,-0.66,-0.66
276.61,-0.76,-0.13,-0.75,-0.12,0.09,0.17,0.10,-0.67,-0.66,-0.63
279.38,-0.76,-0.16,-0.77,-0.16,0.13,0.18,0.11,-0.63,-0.64,-0.60
282.17,-0.76,-0.18,-0.76,-0.18,0.17,0.20,0.13,-0.59,-0.59,-0.59
284.99,-0.75,-0.20,-0.75,-0.20,0.21,0.22,0.14,-0.54,-0.53,-0.55
287.84,-0.74,-0.22,-0.74,-0.22,0.25,0.24,0.16,-0.49,-0.49,-0.52
290.72,-0.73,-0.25,-0.75,-0.27,0.29,0.26,0.17,-0.44,-0.47,-0.49
293.63,-0.77,-0.31,-0.78,-0.32,0.32,0.28,0.19,-0.46,-0.46,-0.46
296.57,-0.82,-0.40,-0.80,-0.37,0.34,0.30,0.21,-0.48,-0.45,-0.42
299.53,-0.80,-0.40,-0.80,-0.40,0.37,0.32,0.23,-0.43,-0.43,-0.40
302.53,-0.78,-0.41,-0.79,-0.42,0.40,0.34,0.25,-0.38,-0.39,-0.38
305.55,-0.77,-0.43,-0.77,-0.42,0.43,0.36,0.27,-0.34,-0.34,-0.34
308.61,-0.76,-0.44,-0.75,-0.44,0.46,0.37,0.29,-0.30,-0.29,-0.32
311.69,-0.75,-0.45,-0.75,-0.46,0.49,0.39,0.31,-0.27,-0.26,-0.30
314.81,-0.74,-0.48,-0.77,-0.49,0.51,0.41,0.33,-0.23,-0.25,-0.27
317.96,-0.80,-0.54,-0.79,-0.54,0.54,0.43,0.35,-0.26,-0.25,-0.26
321.14,-0.84,-0.60,-0.83,-0.59,0.57,0.45,0.37,-0.27,-0.26,-0.24
324.35,-0.85,-0.62,-0.85,-0.62,0.59,0.47,0.39,-0.26,-0.26,-0.23
327.59,-0.85,-0.64,-0.86,-0.64,0.62,0.48,0.42,-0.23,-0.24,-0.21
330.87,-0.86,-0.66,-0.86,-0.65,0.65,0.50,0.44,-0.21,-0.21,-0.20
334.18,-0.86,-0.66,-0.86,-0.67,0.67,0.52,0.46,-0.19,-0.19,-0.20
337.52,-0.86,-0.67,-0.85,-0.67,0.70,0.54,0.49,-0.16,-0.15,-0.19
340.90,-0.86,-0.69,-0.86,-0.69,0.72,0.56,0.51,-0.14,-0.14,-0.17
344.30,-0.86,-0.70,-0.89,-0.73,0.74,0.57,0.54,-0.12,-0.15,-0.16
347.75,-0.94,-0.79,-0.93,-0.78,0.76,0.59,0.56,-0.18,-0.17,-0.15
351.23,-0.98,-0.84,-0.96,-0.81,0.77,0.61,0.59,-0.21,-0.19,-0.14
354.74,-0.97,-0.83,-0.97,-0.83,0.79,0.63,0.62,-0.18,-0.19,-0.15
358.28,-0.95,-0.81,-0.96,-0.82,0.80,0.65,0.65,-0.15,-0.16,-0.14
361.87,-0.95,-0.81,-0.94,-0.81,0.83,0.67,0.67,-0.13,-0.12,-0.14
365.49,-0.94,-0.81,-0.93,-0.79,0.85,0.68,0.70,-0.09,-0.08,-0.13
369.14,-0.92,-0.79,-0.95,-0.81,0.87,0.70,0.73,-0.05,-0.08,-0.13
372.83,-0.96,-0.83,-0.99,-0.86,0.89,0.72,0.76,-0.07,-0.11,-0.13
376.56,-1.09,-0.96,-1.05,-0.93,0.91,0.74,0.79,-0.18,-0.15,-0.13
380.33,-1.12,-1.01,-1.11,-0.98,0.93,0.76,0.82,-0.19,-0.17,-0.11
384.13,-1.11,-0.99,-1.12,-1.00,0.96,0.78,0.85,-0.16,-0.17,-0.13
387.97,-1.10,-0.98,-1.11,-0.98,0.98,0.80,0.88,-0.13,-0.13,-0.13
391.85,-1.10,-0.97,-1.10,-0.98,0.99,0.82,0.91,-0.11,-0.11,-0.13
395.77,-1.10,-0.98,-1.10,-0.98,0.99,0.84,0.94,-0.11,-0.11,-0.12
399.73,-1.10,-0.98,-1.10,-0.98,0.99,0.86,0.97,-0.11,-0.11,-0.12
403.72,-1.10,-0.97,-1.10,-0.98,0.98,0.88,1.00,-0.12,-0.12,-0.13
407.76,-1.10,-0.97,-1.10,-0.98,0.98,0.90,1.03,-0.13,-0.13,-0.13
411.84,-1.11,-0.99,-1.11,-0.98,0.97,0.92,1.06,-0.14,-0.14,-0.12
415.96,-1.11,-0.98,-1.11,-0.98,0.97,0.94,1.09,-0.14,-0.14,-0.13
420.12,-1.11,-0.98,-1.11,-0.98,0.97,0.96,1.12,-0.14,-0.14,-0.13
424.32,-1.10,-0.98,-1.10,-0.97,0.98,0.98,1.15,-0.12,-0.12,-0.12
428.56,-1.09,-0.97,-1.09,-0.97,0.99,1.00,1.18,-0.10,-0.10,-0.12
432.85,-1.08,-0.98,-1.07,-0.97,0.99,1.03,1.21,-0.09,-0.08,-0.11
437.18,-1.05,-0.97,-1.08,-1.00,1.00,1.05,1.23,-0.05,-0.08,-0.09
441.55,-1.08,-1.03,-1.08,-1.03,1.01,1.07,1.26,-0.07,-0.07,-0.05
445.96,-1.10,-1.08,-1.07,-1.05,1.02,1.09,1.29,-0.08,-0.04,-0.02
450.42,-1.02,-1.03,-1.03,-1.05,1.04,1.11,1.31,0.01,0.01,0.01
454.93,-0.96,-1.03,-0.96,-1.03,1.04,1.13,1.33,0.08,0.08,0.07
459.48,-0.90,-1.01,-0.92,-1.03,1.05,1.15,1.35,0.15,0.13,0.11
464.07,-0.88,-1.05,-0.90,-1.07,1.06,1.17,1.37,0.18,0.16,0.17
468.71,-0.92,-1.14,-0.88,-1.10,1.08,1.19,1.39,0.16,0.19,0.22
473.40,-0.85,-1.12,-0.82,-1.09,1.10,1.21,1.41,0.25,0.28,0.27
478.13,-0.76,-1.08,-0.77,-1.08,1.14,1.23,1.42,0.37,0.37,0.32
482.91,-0.67,-1.03,-0.75,-1.12,1.17,1.25,1.44,0.50,0.42,0.36
