frequency,raw,error,smoothed,error_smoothed,equalization,parametric_eq,fixed_band_eq,equalized_raw,equalized_smoothed,target
20.00,13.12,10.48,13.12,10.48,-10.48,-10.52,-4.87,2.64,2.64,2.64
20.20,13.11,10.50,13.12,10.50,-10.50,-10.52,-4.99,2.61,2.62,2.61
20.40,13.11,10.52,13.11,10.52,-10.51,-10.52,-5.12,2.60,2.60,2.59
20.61,13.10,10.53,13.10,10.53,-10.53,-10.52,-5.26,2.58,2.57,2.57
20.81,13.09,10.54,13.09,10.54,-10.54,-10.52,-5.39,2.55,2.55,2.55
21.02,13.07,10.54,13.08,10.54,-10.55,-10.52,-5.53,2.52,2.53,2.53
21.23,13.06,10.55,13.06,10.55,-10.55,-10.52,-5.68,2.51,2.51,2.51
21.44,13.05,10.56,13.05,10.56,-10.56,-10.51,-5.83,2.49,2.49,2.49
21.66,13.04,10.57,13.04,10.57,-10.56,-10.51,-5.98,2.48,2.48,2.47
21.87,13.03,10.57,13.03,10.57,-10.57,-10.51,-6.14,2.47,2.46,2.46
22.09,13.01,10.57,13.02,10.57,-10.57,-10.51,-6.30,2.45,2.45,2.44
22.31,13.00,10.57,13.00,10.57,-10.56,-10.50,-6.47,2.44,2.43,2.43
22.54,12.98,10.56,12.98,10.56,-10.56,-10.50,-6.64,2.42,2.42,2.42
22.76,12.96,10.55,12.97,10.55,-10.55,-10.50,-6.81,2.41,2.41,2.41
22.99,12.95,10.55,12.95,10.55,-10.55,-10.49,-6.99,2.40,2.40,2.40
23.22,12.93,10.54,12.93,10.54,-10.54,-10.49,-7.18,2.39,2.39,2.39
23.45,12.91,10.53,12.91,10.53,-10.53,-10.49,-7.37,2.38,2.38,2.38
23.69,12.89,10.52,12.89,10.52,-10.52,-10.48,-7.56,2.37,2.38,2.37
23.92,12.88,10.51,12.88,10.51,-10.51,-10.48,-7.76,2.37,2.37,2.37
24.16,12.86,10.50,12.87,10.50,-10.50,-10.47,-7.96,2.36,2.37,2.36
24.40,12.85,10.49,12.85,10.49,-10.49,-10.47,-8.17,2.36,2.36,2.36
24.65,12.83,10.48,12.83,10.48,-10.48,-10.46,-8.39,2.36,2.36,2.35
24.89,12.81,10.46,12.82,10.46,-10.47,-10.45,-8.60,2.35,2.35,2.35
25.14,12.80,10.46,12.80,10.45,-10.45,-10.45,-8.82,2.35,2.34,2.34
25.39,12.78,10.44,12.78,10.44,-10.44,-10.44,-9.05,2.34,2.34,2.34
25.65,12.76,10.43,12.77,10.43,-10.43,-10.44,-9.28,2.33,2.34,2.33
25.91,12.75,10.42,12.75,10.42,-10.42,-10.43,-9.51,2.33,2.33,2.33
26.16,12.73,10.41,12.73,10.41,-10.41,-10.42,-9.74,2.33,2.33,2.32
26.43,12.71,10.39,12.72,10.40,-10.39,-10.41,-9.98,2.32,2.32,2.32
26.69,12.70,10.39,12.70,10.38,-10.38,-10.41,-10.21,2.32,2.32,2.31
26.96,12.68,10.37,12.68,10.37,-10.37,-10.40,-10.45,2.31,2.31,2.31
27.23,12.66,10.35,12.67,10.36,-10.36,-10.39,-10.69,2.30,2.31,2.31
27.50,12.65,10.35,12.65,10.34,-10.35,-10.38,-10.92,2.31,2.30,2.30
27.77,12.63,10.33,12.64,10.33,-10.33,-10.37,-11.15,2.30,2.30,2.30
28.05,12.62,10.33,12.62,10.32,-10.32,-10.36,-11.37,2.30,2.30,2.29
28.33,12.60,10.31,12.60,10.31,-10.31,-10.35,-11.59,2.29,2.29,2.29
28.62,12.58,10.29,12.59,10.30,-10.30,-10.34,-11.80,2.29,2.29,2.29
28.90,12.57,10.29,12.57,10.28,-10.28,-10.33,-12.00,2.29,2.29,2.28
29.19,12.55,10.27,12.55,10.27,-10.27,-10.32,-12.18,2.29,2.29,2.28
29.48,12.53,10.25,12.54,10.25,-10.25,-10.31,-12.35,2.28,2.28,2.28
29.78,12.52,10.24,12.52,10.23,-10.24,-10.30,-12.51,2.29,2.28,2.28
30.08,12.50,10.22,12.50,10.22,-10.22,-10.29,-12.64,2.28,2.28,2.28
30.38,12.48,10.20,12.49,10.21,-10.21,-10.28,-12.75,2.28,2.28,2.28
30.68,12.47,10.20,12.47,10.19,-10.19,-10.26,-12.84,2.28,2.28,2.27
30.99,12.45,10.18,12.45,10.18,-10.18,-10.25,-12.91,2.28,2.28,2.27
31.30,12.43,10.16,12.44,10.16,-10.16,-10.24,-12.95,2.27,2.27,2.27
31.61,12.42,10.15,12.42,10.15,-10.15,-10.22,-12.97,2.27,2.27,2.27
31.93,12.40,10.14,12.40,10.14,-10.14,-10.21,-12.97,2.26,2.26,2.26
32.24,12.38,10.12,12.39,10.13,-10.12,-10.20,-12.94,2.26,2.26,2.26
32.57,12.37,10.12,12.37,10.11,-10.11,-10.18,-12.89,2.26,2.26,2.25
32.89,12.35,10.10,12.35,10.10,-10.10,-10.17,-12.82,2.25,2.26,2.25
33.22,12.34,10.09,12.34,10.09,-10.09,-10.15,-12.73,2.26,2.25,2.25
33.55,12.32,10.07,12.32,10.07,-10.07,-10.14,-12.63,2.25,2.25,2.25
33.89,12.30,10.06,12.30,10.06,-10.06,-10.12,-12.51,2.24,2.25,2.24
34.23,12.28,10.04,12.29,10.05,-10.04,-10.11,-12.38,2.24,2.24,2.24
34.57,12.27,10.04,12.27,10.03,-10.03,-10.09,-12.24,2.24,2.24,2.23
34.92,12.25,10.02,12.25,10.02,-10.02,-10.08,-12.09,2.24,2.24,2.23
35.27,12.23,10.00,12.24,10.00,-10.00,-10.06,-11.93,2.23,2.23,2.23
35.62,12.22,9.99,12.22,9.99,-9.99,-10.04,-11.77,2.23,2.23,2.23
35.97,12.20,9.98,12.20,9.98,-9.98,-10.02,-11.61,2.22,2.22,2.22
36.33,12.19,9.97,12.19,9.97,-9.97,-10.01,-11.45,2.22,2.22,2.22
36.70,12.18,9.96,12.19,9.96,-9.97,-9.99,-11.29,2.21,2.22,2.22
37.06,12.18,9.96,12.18,9.96,-9.96,-9.97,-11.13,2.22,2.22,2.22
37.43,12.18,9.96,12.18,9.96,-9.95,-9.95,-10.97,2.23,2.22,2.22
37.81,12.17,9.96,12.17,9.95,-9.95,-9.93,-10.81,2.23,2.22,2.21
38.19,12.15,9.94,12.15,9.94,-9.94,-9.91,-10.66,2.22,2.22,2.21
38.57,12.13,9.93,12.13,9.93,-9.92,-9.89,-10.51,2.21,2.21,2.20
38.95,12.11,9.91,12.11,9.91,-9.91,-9.87,-10.37,2.20,2.20,2.20
39.34,12.09,9.90,12.09,9.89,-9.89,-9.85,-10.24,2.20,2.19,2.19
39.74,12.06,9.87,12.06,9.87,-9.87,-9.83,-10.10,2.19,2.19,2.19
40.14,12.03,9.84,12.04,9.85,-9.85,-9.81,-9.98,2.18,2.18,2.19
40.54,12.01,9.83,12.01,9.83,-9.83,-9.79,-9.86,2.18,2.18,2.18
40.94,11.99,9.81,11.99,9.81,-9.80,-9.77,-9.75,2.19,2.19,2.18
41.35,11.96,9.78,11.96,9.78,-9.77,-9.74,-9.64,2.19,2.19,2.18
41.76,11.93,9.75,11.93,9.75,-9.74,-9.72,-9.54,2.19,2.19,2.18
42.18,11.90,9.71,11.90,9.71,-9.70,-9.70,-9.45,2.20,2.20,2.19
42.60,11.86,9.67,11.86,9.67,-9.66,-9.67,-9.36,2.20,2.20,2.19
43.03,11.82,9.63,11.82,9.63,-9.62,-9.65,-9.29,2.20,2.20,2.19
43.46,11.77,9.58,11.77,9.58,-9.58,-9.62,-9.21,2.19,2.19,2.19
43.90,11.73,9.54,11.73,9.54,-9.54,-9.60,-9.15,2.19,2.19,2.19
44.33,11.69,9.49,11.69,9.49,-9.50,-9.57,-9.09,2.19,2.19,2.20
44.78,11.66,9.46,11.66,9.46,-9.47,-9.55,-9.04,2.20,2.19,2.20
45.23,11.63,9.43,11.64,9.43,-9.44,-9.52,-8.99,2.20,2.20,2.20
45.68,11.61,9.41,11.61,9.41,-9.41,-9.50,-8.95,2.20,2.20,2.20
46.13,11.59,9.39,11.59,9.39,-9.39,-9.47,-8.92,2.20,2.20,2.20
46.60,11.56,9.37,11.57,9.37,-9.37,-9.44,-8.89,2.19,2.20,2.19
47.06,11.55,9.36,11.55,9.35,-9.35,-9.42,-8.87,2.20,2.20,2.19
47.53,11.53,9.34,11.53,9.34,-9.34,-9.39,-8.85,2.19,2.19,2.19
48.01,11.51,9.32,11.51,9.32,-9.32,-9.36,-8.84,2.19,2.19,2.19
48.49,11.49,9.31,11.49,9.31,-9.31,-9.33,-8.84,2.19,2.19,2.18
48.97,11.47,9.29,11.47,9.29,-9.29,-9.30,-8.84,2.18,2.18,2.18
49.46,11.45,9.27,11.45,9.27,-9.27,-9.27,-8.85,2.18,2.18,2.18
49.96,11.43,9.25,11.44,9.25,-9.25,-9.24,-8.86,2.18,2.19,2.18
50.46,11.42,9.23,11.42,9.23,-9.23,-9.21,-8.87,2.20,2.19,2.19
50.96,11.40,9.21,11.40,9.21,-9.20,-9.18,-8.89,2.20,2.20,2.19
51.47,11.37,9.18,11.37,9.18,-9.18,-9.15,-8.91,2.19,2.20,2.19
51.99,11.34,9.15,11.35,9.15,-9.15,-9.12,-8.94,2.19,2.19,2.19
52.51,11.32,9.12,11.32,9.12,-9.13,-9.09,-8.97,2.20,2.19,2.20
53.03,11.29,9.09,11.30,9.09,-9.10,-9.06,-9.00,2.20,2.20,2.20
53.56,11.27,9.07,11.27,9.07,-9.06,-9.02,-9.03,2.21,2.21,2.20
54.10,11.24,9.04,11.24,9.04,-9.03,-8.99,-9.06,2.21,2.21,2.20
54.64,11.21,9.01,11.21,9.00,-9.00,-8.96,-9.09,2.22,2.22,2.20
55.18,11.17,8.96,11.18,8.97,-8.96,-8.92,-9.12,2.21,2.21,2.21
55.74,11.14,8.93,11.14,8.93,-8.93,-8.89,-9.15,2.21,2.21,2.21
56.29,11.10,8.89,11.10,8.89,-8.90,-8.85,-9.18,2.20,2.20,2.21
56.86,11.07,8.85,11.08,8.86,-8.87,-8.82,-9.21,2.20,2.20,2.22
57.42,11.05,8.83,11.06,8.83,-8.84,-8.78,-9.23,2.21,2.21,2.22
58.00,11.04,8.82,11.04,8.81,-8.81,-8.75,-9.24,2.23,2.23,2.22
58.58,11.02,8.80,11.02,8.79,-8.78,-8.71,-9.26,2.24,2.24,2.22
59.16,10.99,8.76,10.99,8.76,-8.75,-8.67,-9.26,2.25,2.25,2.23
59.76,10.95,8.72,10.95,8.72,-8.71,-8.64,-9.26,2.24,2.24,2.23
60.35,10.91,8.68,10.91,8.67,-8.67,-8.60,-9.25,2.24,2.24,2.23
60.96,10.86,8.62,10.87,8.63,-8.63,-8.56,-9.24,2.23,2.23,2.24
61.57,10.82,8.58,10.82,8.58,-8.59,-8.52,-9.22,2.23,2.24,2.24
62.18,10.78,8.54,10.78,8.54,-8.54,-8.48,-9.18,2.24,2.24,2.24
62.80,10.74,8.50,10.74,8.50,-8.50,-8.45,-9.15,2.24,2.24,2.24
63.43,10.70,8.46,10.70,8.46,-8.46,-8.41,-9.10,2.24,2.24,2.24
64.07,10.66,8.42,10.66,8.42,-8.42,-8.37,-9.04,2.24,2.24,2.24
64.71,10.62,8.38,10.62,8.38,-8.38,-8.33,-8.98,2.24,2.24,2.24
65.35,10.58,8.34,10.58,8.34,-8.34,-8.29,-8.91,2.24,2.24,2.24
66.01,10.54,8.30,10.55,8.30,-8.30,-8.24,-8.83,2.24,2.25,2.24
66.67,10.51,8.27,10.51,8.26,-8.25,-8.20,-8.74,2.26,2.25,2.24
67.33,10.46,8.22,10.46,8.22,-8.21,-8.16,-8.65,2.26,2.25,2.24
68.01,10.40,8.16,10.41,8.16,-8.16,-8.12,-8.55,2.24,2.25,2.24
68.69,10.35,8.11,10.35,8.11,-8.11,-8.08,-8.45,2.24,2.24,2.24
69.37,10.29,8.05,10.29,8.05,-8.06,-8.03,-8.34,2.23,2.23,2.24
70.07,10.24,8.00,10.25,8.00,-8.01,-7.99,-8.24,2.23,2.23,2.24
70.77,10.20,7.96,10.20,7.96,-7.96,-7.95,-8.12,2.24,2.24,2.24
71.48,10.17,7.93,10.17,7.92,-7.91,-7.90,-8.01,2.26,2.26,2.24
72.19,10.12,7.87,10.12,7.87,-7.86,-7.86,-7.89,2.26,2.26,2.25
72.91,10.07,7.82,10.07,7.82,-7.81,-7.81,-7.78,2.26,2.26,2.25
73.64,10.01,7.76,10.01,7.76,-7.76,-7.77,-7.66,2.25,2.25,2.25
74.38,9.96,7.70,9.96,7.70,-7.71,-7.72,-7.55,2.25,2.25,2.26
75.12,9.91,7.65,9.91,7.65,-7.66,-7.68,-7.43,2.25,2.25,2.26
75.87,9.87,7.61,9.87,7.61,-7.61,-7.63,-7.32,2.26,2.27,2.26
76.63,9.83,7.56,9.83,7.56,-7.56,-7.58,-7.21,2.28,2.28,2.27
77.40,9.79,7.52,9.79,7.51,-7.50,-7.54,-7.10,2.29,2.28,2.27
78.17,9.74,7.46,9.74,7.46,-7.46,-7.49,-6.99,2.29,2.28,2.28
78.95,9.68,7.40,9.69,7.40,-7.41,-7.44,-6.89,2.27,2.28,2.28
79.74,9.63,7.35,9.64,7.35,-7.36,-7.39,-6.79,2.27,2.28,2.28
80.54,9.59,7.30,9.59,7.30,-7.31,-7.35,-6.69,2.29,2.28,2.29
81.35,9.55,7.26,9.55,7.26,-7.25,-7.30,-6.60,2.30,2.30,2.29
82.16,9.50,7.21,9.50,7.21,-7.20,-7.25,-6.51,2.31,2.31,2.29
82.98,9.45,7.16,9.45,7.15,-7.14,-7.20,-6.43,2.31,2.31,2.29
83.81,9.38,7.09,9.39,7.09,-7.09,-7.15,-6.35,2.30,2.30,2.29
84.65,9.32,7.03,9.32,7.03,-7.03,-7.10,-6.27,2.29,2.29,2.29
85.50,9.26,6.96,9.26,6.96,-6.98,-7.05,-6.20,2.28,2.29,2.30
86.35,9.21,6.91,9.22,6.91,-6.92,-7.00,-6.13,2.29,2.29,2.30
87.22,9.17,6.87,9.17,6.87,-6.87,-6.95,-6.07,2.30,2.30,2.30
88.09,9.13,6.83,9.13,6.82,-6.82,-6.90,-6.01,2.31,2.31,2.30
88.97,9.08,6.78,9.08,6.78,-6.77,-6.85,-5.96,2.31,2.31,2.30
89.86,9.02,6.72,9.03,6.72,-6.72,-6.79,-5.91,2.30,2.31,2.30
90.76,8.97,6.67,8.97,6.67,-6.67,-6.74,-5.86,2.30,2.30,2.30
91.66,8.92,6.62,8.92,6.62,-6.62,-6.69,-5.82,2.30,2.30,2.30
92.58,8.87,6.57,8.88,6.57,-6.57,-6.64,-5.79,2.30,2.30,2.30
93.51,8.83,6.53,8.83,6.53,-6.52,-6.58,-5.75,2.31,2.31,2.30
94.44,8.78,6.48,8.78,6.48,-6.47,-6.53,-5.72,2.31,2.31,2.30
95.39,8.73,6.43,8.73,6.43,-6.42,-6.48,-5.70,2.31,2.31,2.30
96.34,8.67,6.37,8.68,6.37,-6.37,-6.42,-5.68,2.30,2.31,2.30
97.30,8.63,6.32,8.63,6.32,-6.32,-6.37,-5.66,2.31,2.31,2.31
98.28,8.58,6.27,8.58,6.27,-6.27,-6.31,-5.65,2.31,2.31,2.31
99.26,8.53,6.22,8.53,6.22,-6.21,-6.26,-5.63,2.32,2.32,2.31
100.25,8.47,6.16,8.47,6.16,-6.16,-6.20,-5.63,2.32,2.31,2.31
101.25,8.41,6.10,8.41,6.10,-6.10,-6.15,-5.62,2.31,2.31,2.31
102.27,8.35,6.04,8.36,6.04,-6.04,-6.09,-5.62,2.31,2.31,2.31
103.29,8.30,5.99,8.30,5.98,-5.98,-6.04,-5.62,2.32,2.32,2.31
104.32,8.24,5.92,8.24,5.92,-5.92,-5.98,-5.62,2.32,2.32,2.32
105.37,8.18,5.86,8.18,5.86,-5.86,-5.93,-5.62,2.32,2.32,2.32
106.42,8.12,5.80,8.13,5.80,-5.80,-5.87,-5.62,2.32,2.32,2.32
107.48,8.07,5.74,8.07,5.74,-5.74,-5.81,-5.63,2.33,2.33,2.33
108.56,8.02,5.69,8.02,5.69,-5.68,-5.76,-5.63,2.34,2.33,2.33
109.64,7.96,5.63,7.96,5.63,-5.62,-5.70,-5.63,2.34,2.34,2.33
110.74,7.90,5.57,7.90,5.57,-5.56,-5.64,-5.64,2.34,2.34,2.33
111.85,7.84,5.50,7.84,5.50,-5.50,-5.59,-5.64,2.34,2.34,2.34
112.97,7.78,5.44,7.78,5.44,-5.44,-5.53,-5.64,2.34,2.34,2.34
114.10,7.72,5.38,7.72,5.38,-5.38,-5.47,-5.64,2.34,2.34,2.34
115.24,7.66,5.32,7.66,5.32,-5.32,-5.41,-5.63,2.34,2.34,2.34
116.39,7.60,5.26,7.60,5.25,-5.26,-5.35,-5.62,2.35,2.35,2.34
117.55,7.54,5.19,7.54,5.19,-5.19,-5.30,-5.61,2.35,2.35,2.35
118.73,7.48,5.13,7.48,5.13,-5.13,-5.24,-5.60,2.35,2.35,2.35
119.92,7.43,5.08,7.43,5.07,-5.07,-5.18,-5.58,2.36,2.36,2.35
121.12,7.37,5.01,7.37,5.01,-5.01,-5.12,-5.55,2.36,2.36,2.36
122.33,7.32,4.96,7.32,4.95,-4.95,-5.06,-5.53,2.37,2.37,2.36
123.55,7.26,4.89,7.26,4.89,-4.89,-5.00,-5.49,2.37,2.37,2.37
124.79,7.21,4.84,7.21,4.84,-4.83,-4.94,-5.45,2.38,2.38,2.37
126.03,7.15,4.78,7.16,4.78,-4.77,-4.88,-5.41,2.38,2.38,2.37
127.29,7.10,4.72,7.10,4.72,-4.72,-4.82,-5.36,2.38,2.38,2.38
128.57,7.04,4.66,7.04,4.66,-4.66,-4.76,-5.31,2.38,2.38,2.38
129.85,6.98,4.59,6.99,4.60,-4.61,-4.70,-5.25,2.38,2.38,2.39
131.15,6.94,4.55,6.94,4.55,-4.55,-4.64,-5.19,2.39,2.39,2.39
132.46,6.89,4.50,6.90,4.50,-4.50,-4.58,-5.12,2.39,2.40,2.39
133.79,6.85,4.46,6.85,4.46,-4.45,-4.52,-5.04,2.41,2.40,2.39
135.12,6.80,4.41,6.80,4.40,-4.40,-4.46,-4.97,2.41,2.40,2.39
136.48,6.74,4.35,6.74,4.35,-4.35,-4.40,-4.89,2.40,2.40,2.39
137.84,6.68,4.28,6.69,4.29,-4.30,-4.34,-4.80,2.38,2.39,2.40
139.22,6.64,4.24,6.64,4.24,-4.25,-4.28,-4.71,2.39,2.39,2.40
140.61,6.60,4.20,6.60,4.20,-4.20,-4.22,-4.63,2.40,2.40,2.40
142.02,6.56,4.16,6.56,4.16,-4.15,-4.16,-4.53,2.41,2.41,2.40
143.44,6.51,4.11,6.51,4.11,-4.10,-4.10,-4.44,2.41,2.41,2.40
144.87,6.46,4.05,6.46,4.05,-4.05,-4.04,-4.34,2.41,2.41,2.41
146.32,6.41,4.00,6.41,4.00,-4.00,-3.98,-4.25,2.41,2.41,2.41
147.78,6.36,3.95,6.37,3.95,-3.96,-3.92,-4.15,2.41,2.41,2.41
149.26,6.32,3.90,6.32,3.90,-3.90,-3.86,-4.05,2.42,2.42,2.42
150.75,6.28,3.86,6.28,3.86,-3.85,-3.80,-3.96,2.43,2.43,2.42
152.26,6.23,3.81,6.23,3.80,-3.80,-3.73,-3.86,2.44,2.43,2.42
153.78,6.17,3.74,6.17,3.75,-3.74,-3.67,-3.76,2.43,2.43,2.43
155.32,6.11,3.68,6.12,3.68,-3.68,-3.61,-3.67,2.43,2.43,2.43
156.88,6.06,3.63,6.06,3.62,-3.63,-3.55,-3.57,2.44,2.43,2.43
158.44,6.00,3.56,6.00,3.56,-3.57,-3.49,-3.48,2.44,2.43,2.44
160.03,5.94,3.50,5.94,3.50,-3.50,-3.43,-3.38,2.44,2.44,2.44
161.63,5.88,3.44,5.89,3.44,-3.44,-3.37,-3.29,2.44,2.44,2.44
163.24,5.83,3.39,5.83,3.38,-3.38,-3.30,-3.20,2.45,2.45,2.44
164.88,5.77,3.33,5.77,3.32,-3.32,-3.24,-3.11,2.46,2.45,2.44
166.53,5.70,3.25,5.71,3.26,-3.25,-3.18,-3.03,2.45,2.45,2.45
168.19,5.64,3.19,5.64,3.19,-3.19,-3.12,-2.94,2.45,2.45,2.45
169.87,5.57,3.12,5.58,3.12,-3.13,-3.06,-2.86,2.44,2.45,2.45
171.57,5.52,3.06,5.52,3.06,-3.07,-3.00,-2.78,2.46,2.46,2.46
173.29,5.47,3.01,5.47,3.01,-3.00,-2.93,-2.70,2.47,2.47,2.46
175.02,5.41,2.95,5.41,2.95,-2.94,-2.87,-2.62,2.47,2.47,2.46
176.77,5.35,2.89,5.35,2.88,-2.88,-2.81,-2.55,2.47,2.47,2.46
178.54,5.28,2.81,5.28,2.81,-2.82,-2.75,-2.47,2.46,2.47,2.47
180.32,5.22,2.75,5.22,2.75,-2.76,-2.69,-2.40,2.46,2.46,2.47
182.13,5.16,2.69,5.17,2.69,-2.70,-2.63,-2.33,2.46,2.47,2.47
183.95,5.11,2.64,5.11,2.64,-2.64,-2.57,-2.26,2.48,2.47,2.47
185.79,5.05,2.59,5.05,2.58,-2.57,-2.50,-2.19,2.48,2.47,2.46
187.65,4.97,2.51,4.98,2.52,-2.51,-2.44,-2.13,2.46,2.47,2.46
189.52,4.91,2.45,4.91,2.45,-2.45,-2.38,-2.07,2.46,2.46,2.46
191.42,4.85,2.39,4.85,2.38,-2.39,-2.32,-2.00,2.47,2.47,2.46
193.33,4.79,2.32,4.79,2.32,-2.32,-2.26,-1.95,2.47,2.47,2.47
195.27,4.73,2.26,4.73,2.26,-2.26,-2.20,-1.89,2.48,2.47,2.47
197.22,4.66,2.19,4.66,2.19,-2.19,-2.14,-1.83,2.47,2.47,2.47
199.19,4.59,2.12,4.60,2.12,-2.12,-2.08,-1.77,2.47,2.47,2.47
201.18,4.53,2.05,4.54,2.06,-2.06,-2.02,-1.72,2.47,2.48,2.48
203.19,4.48,2.00,4.48,2.00,-2.00,-1.95,-1.67,2.49,2.49,2.48
205.23,4.43,1.95,4.42,1.94,-1.93,-1.89,-1.62,2.50,2.49,2.48
207.28,4.36,1.87,4.36,1.87,-1.87,-1.83,-1.57,2.49,2.49,2.49
209.35,4.29,1.80,4.30,1.80,-1.81,-1.77,-1.52,2.48,2.49,2.49
211.44,4.23,1.74,4.24,1.74,-1.75,-1.71,-1.47,2.49,2.49,2.49
213.56,4.18,1.68,4.18,1.68,-1.68,-1.65,-1.42,2.50,2.50,2.50
215.69,4.13,1.63,4.13,1.63,-1.62,-1.59,-1.37,2.51,2.51,2.50
217.85,4.07,1.57,4.07,1.57,-1.56,-1.53,-1.33,2.51,2.51,2.50
220.03,4.00,1.50,4.01,1.50,-1.50,-1.47,-1.28,2.51,2.51,2.50
222.23,3.94,1.43,3.94,1.43,-1.43,-1.41,-1.24,2.51,2.50,2.51
224.45,3.87,1.36,3.88,1.37,-1.37,-1.35,-1.19,2.50,2.51,2.51
226.70,3.82,1.31,3.82,1.31,-1.31,-1.29,-1.15,2.51,2.51,2.51
228.96,3.77,1.26,3.77,1.25,-1.25,-1.23,-1.11,2.52,2.52,2.51
231.25,3.71,1.19,3.71,1.19,-1.19,-1.17,-1.06,2.53,2.52,2.52
233.57,3.64,1.12,3.65,1.12,-1.12,-1.11,-1.02,2.52,2.53,2.52
235.90,3.59,1.06,3.59,1.06,-1.06,-1.05,-0.98,2.53,2.53,2.53
238.26,3.53,1.00,3.54,1.00,-1.00,-0.99,-0.94,2.53,2.54,2.53
240.64,3.48,0.94,3.48,0.94,-0.94,-0.93,-0.90,2.55,2.55,2.54
243.05,3.43,0.88,3.42,0.88,-0.87,-0.87,-0.85,2.56,2.55,2.55
245.48,3.36,0.81,3.37,0.81,-0.81,-0.82,-0.81,2.55,2.56,2.55
247.93,3.30,0.74,3.31,0.74,-0.74,-0.76,-0.77,2.56,2.56,2.56
250.41,3.25,0.68,3.25,0.68,-0.68,-0.70,-0.73,2.58,2.57,2.57
252.92,3.19,0.61,3.19,0.61,-0.61,-0.64,-0.68,2.58,2.58,2.58
255.45,3.13,0.55,3.13,0.55,-0.54,-0.58,-0.64,2.59,2.59,2.58
258.00,3.07,0.48,3.07,0.48,-0.48,-0.52,-0.60,2.59,2.59,2.59
260.58,3.00,0.41,3.01,0.41,-0.41,-0.47,-0.56,2.59,2.59,2.59
263.19,2.94,0.34,2.95,0.34,-0.35,-0.41,-0.51,2.59,2.60,2.60
265.82,2.89,0.29,2.89,0.28,-0.28,-0.35,-0.47,2.61,2.61,2.60
268.48,2.83,0.22,2.83,0.22,-0.22,-0.29,-0.42,2.62,2.61,2.61
271.16,2.77,0.16,2.77,0.16,-0.15,-0.24,-0.38,2.62,2.62,2.61
273.87,2.70,0.09,2.70,0.09,-0.09,-0.18,-0.33,2.62,2.62,2.61
276.61,2.64,0.02,2.64,0.02,-0.02,-0.12,-0.29,2.62,2.62,2.62
279.38,2.58,-0.04,2.58,-0.04,0.04,-0.07,-0.24,2.62,2.62,2.62
282.17,2.53,-0.09,2.53,-0.10,0.10,-0.01,-0.20,2.63,2.63,2.62
284.99,2.47,-0.16,2.47,-0.16,0.15,0.04,-0.15,2.63,2.63,2.63
287.84,2.41,-0.22,2.42,-0.22,0.21,0.10,-0.10,2.62,2.63,2.63
290.72,2.36,-0.27,2.37,-0.27,0.26,0.16,-0.05,2.63,2.63,2.63
293.63,2.32,-0.31,2.32,-0.31,0.31,0.21,-0.00,2.64,2.64,2.63
296.57,2.28,-0.35,2.28,-0.36,0.36,0.27,0.04,2.65,2.64,2.63
299.53,2.23,-0.40,2.23,-0.40,0.41,0.32,0.09,2.65,2.64,2.63
302.53,2.18,-0.46,2.18,-0.46,0.46,0.37,0.14,2.64,2.64,2.64
305.55,2.13,-0.51,2.13,-0.51,0.50,0.43,0.19,2.64,2.64,2.64
308.61,2.09,-0.56,2.09,-0.56,0.55,0.48,0.25,2.64,2.64,2.65
311.69,2.05,-0.60,2.06,-0.60,0.60,0.54,0.30,2.65,2.65,2.65
314.81,2.02,-0.64,2.02,-0.64,0.64,0.59,0.35,2.66,2.66,2.66
317.96,1.99,-0.67,1.99,-0.68,0.68,0.64,0.40,2.68,2.67,2.66
321.14,1.95,-0.72,1.95,-0.72,0.72,0.70,0.46,2.68,2.67,2.67
324.35,1.90,-0.77,1.91,-0.77,0.77,0.75,0.51,2.67,2.67,2.67
327.59,1.86,-0.81,1.86,-0.81,0.81,0.80,0.57,2.67,2.67,2.67
330.87,1.82,-0.86,1.83,-0.85,0.85,0.85,0.62,2.68,2.68,2.68
334.18,1.79,-0.89,1.79,-0.90,0.90,0.90,0.68,2.69,2.69,2.68
337.52,1.75,-0.94,1.75,-0.95,0.95,0.96,0.74,2.70,2.70,2.69
340.90,1.70,-1.00,1.70,-1.00,1.00,1.01,0.79,2.70,2.71,2.70
344.30,1.65,-1.05,1.65,-1.05,1.05,1.06,0.85,2.70,2.70,2.70
347.75,1.60,-1.10,1.60,-1.10,1.10,1.11,0.91,2.70,2.70,2.70
351.23,1.55,-1.15,1.55,-1.16,1.15,1.16,0.97,2.70,2.70,2.70
354.74,1.50,-1.21,1.51,-1.20,1.19,1.21,1.03,2.70,2.70,2.71
358.28,1.46,-1.25,1.47,-1.25,1.24,1.26,1.10,2.70,2.71,2.71
361.87,1.43,-1.28,1.43,-1.28,1.29,1.30,1.16,2.72,2.72,2.71
365.49,1.39,-1.32,1.39,-1.32,1.34,1.35,1.22,2.73,2.73,2.71
369.14,1.34,-1.37,1.34,-1.37,1.39,1.40,1.29,2.73,2.73,2.71
372.83,1.28,-1.43,1.29,-1.43,1.43,1.45,1.35,2.72,2.72,2.71
376.56,1.23,-1.49,1.23,-1.49,1.48,1.49,1.42,2.72,2.71,2.72
380.33,1.17,-1.55,1.17,-1.55,1.53,1.54,1.49,2.71,2.71,2.72
384.13,1.12,-1.60,1.13,-1.59,1.59,1.59,1.56,2.71,2.72,2.72
387.97,1.09,-1.63,1.09,-1.64,1.64,1.63,1.62,2.73,2.73,2.72
391.85,1.05,-1.68,1.05,-1.68,1.69,1.68,1.69,2.74,2.74,2.73
395.77,1.00,-1.73,1.00,-1.73,1.74,1.72,1.76,2.75,2.75,2.73
399.73,0.95,-1.79,0.95,-1.79,1.79,1.77,1.83,2.75,2.75,2.74
403.72,0.90,-1.84,0.90,-1.84,1.84,1.81,1.90,2.75,2.75,2.74
407.76,0.85,-1.90,0.85,-1.90,1.89,1.86,1.97,2.75,2.75,2.75
411.84,0.80,-1.95,0.80,-1.95,1.94,1.90,2.04,2.75,2.75,2.75
415.96,0.76,-2.00,0.76,-2.00,1.99,1.94,2.11,2.75,2.75,2.76
420.12,0.72,-2.04,0.72,-2.04,2.04,1.98,2.18,2.76,2.76,2.76
424.32,0.69,-2.07,0.69,-2.08,2.08,2.02,2.25,2.77,2.77,2.76
428.56,0.65,-2.12,0.65,-2.12,2.12,2.06,2.32,2.77,2.77,2.77
432.85,0.61,-2.16,0.61,-2.16,2.16,2.11,2.39,2.77,2.77,2.77
437.18,0.57,-2.20,0.58,-2.20,2.20,2.15,2.45,2.77,2.77,2.77
441.55,0.54,-2.23,0.54,-2.23,2.24,2.18,2.52,2.78,2.78,2.77
445.96,0.50,-2.27,0.50,-2.27,2.28,2.22,2.58,2.78,2.78,2.77
450.42,0.46,-2.31,0.46,-2.31,2.32,2.26,2.64,2.78,2.78,2.77
454.93,0.42,-2.35,0.42,-2.35,2.36,2.30,2.69,2.78,2.78,2.77
459.48,0.37,-2.40,0.37,-2.40,2.40,2.34,2.75,2.77,2.77,2.77
464.07,0.33,-2.44,0.33,-2.44,2.44,2.37,2.80,2.77,2.77,2.77
468.71,0.29,-2.48,0.29,-2.48,2.47,2.41,2.85,2.76,2.76,2.77
473.40,0.26,-2.51,0.26,-2.51,2.50,2.44,2.89,2.76,2.76,2.77
478.13,0.24,-2.54,0.24,-2.54,2.53,2.48,2.93,2.77,2.77,2.78
482.91,0.22,-2.56,0.23,-2.56,2.56,2.51,2.97,2.78,2.79,2.78
487.74,0.21,-2.57,0.21,-2.58,2.59,2.54,3.00,2.80,2.79,2.78
492.62,0.18,-2.60,0.18,-2.60,2.62,2.58,3.03,2.80,2.80,2.78
497.55,0.15,-2.64,0.15,-2.64,2.64,2.61,3.05,2.80,2.80,2.79
502.52,0.12,-2.67,0.12,-2.67,2.67,2.64,3.07,2.79,2.79,2.79
