frequency,raw,error,smoothed,error_smoothed,equalization,parametric_eq,fixed_band_eq,equalized_raw,equalized_smoothed,target
20.00,-1.51,-7.43,-1.51,-7.43,6.00,6.34,2.63,4.49,4.49,5.92
20.20,-1.47,-7.40,-1.47,-7.40,6.00,6.34,2.70,4.53,4.53,5.93
20.40,-1.43,-7.37,-1.44,-7.37,6.00,6.33,2.78,4.57,4.56,5.94
20.61,-1.39,-7.33,-1.40,-7.34,6.00,6.33,2.86,4.61,4.60,5.94
20.81,-1.36,-7.31,-1.36,-7.30,6.00,6.32,2.94,4.64,4.64,5.95
21.02,-1.32,-7.27,-1.32,-7.27,6.00,6.31,3.02,4.68,4.68,5.95
21.23,-1.27,-7.23,-1.28,-7.23,6.00,6.31,3.11,4.73,4.72,5.96
21.44,-1.23,-7.19,-1.23,-7.19,6.00,6.30,3.20,4.77,4.77,5.96
21.66,-1.19,-7.15,-1.19,-7.15,6.00,6.30,3.29,4.81,4.81,5.96
21.87,-1.14,-7.10,-1.15,-7.11,6.00,6.29,3.38,4.86,4.85,5.96
22.09,-1.10,-7.07,-1.10,-7.06,6.00,6.29,3.48,4.90,4.90,5.96
22.31,-1.05,-7.02,-1.05,-7.01,6.00,6.28,3.58,4.95,4.95,5.96
22.54,-1.00,-6.96,-1.00,-6.95,6.00,6.27,3.68,5.00,5.00,5.95
22.76,-0.94,-6.89,-0.94,-6.89,6.00,6.27,3.78,5.06,5.06,5.94
22.99,-0.89,-6.84,-0.90,-6.84,6.00,6.26,3.89,5.11,5.10,5.94
23.22,-0.87,-6.82,-0.87,-6.81,6.00,6.26,4.00,5.13,5.13,5.94
23.45,-0.85,-6.78,-0.85,-6.79,6.00,6.25,4.11,5.15,5.15,5.93
23.69,-0.83,-6.76,-0.83,-6.77,6.00,6.24,4.22,5.17,5.17,5.93
23.92,-0.81,-6.74,-0.81,-6.74,6.00,6.24,4.34,5.19,5.19,5.93
24.16,-0.79,-6.72,-0.79,-6.72,6.00,6.23,4.46,5.21,5.21,5.93
24.40,-0.76,-6.69,-0.77,-6.70,6.00,6.22,4.58,5.24,5.23,5.93
24.65,-0.74,-6.67,-0.74,-6.68,6.00,6.22,4.70,5.26,5.26,5.93
24.89,-0.72,-6.65,-0.72,-6.65,6.00,6.21,4.83,5.28,5.28,5.93
25.14,-0.68,-6.61,-0.68,-6.60,6.00,6.20,4.95,5.32,5.32,5.93
25.39,-0.63,-6.55,-0.63,-6.55,6.00,6.19,5.08,5.37,5.37,5.92
25.65,-0.57,-6.49,-0.57,-6.49,6.00,6.19,5.21,5.43,5.43,5.92
25.91,-0.52,-6.44,-0.53,-6.45,6.00,6.18,5.33,5.48,5.47,5.92
26.16,-0.50,-6.42,-0.51,-6.42,6.00,6.17,5.46,5.50,5.49,5.92
26.43,-0.50,-6.42,-0.50,-6.42,6.00,6.16,5.59,5.50,5.50,5.92
26.69,-0.50,-6.42,-0.50,-6.42,6.00,6.16,5.72,5.50,5.50,5.91
26.96,-0.50,-6.42,-0.49,-6.40,6.00,6.15,5.84,5.50,5.51,5.91
27.23,-0.45,-6.37,-0.45,-6.36,6.00,6.14,5.97,5.55,5.55,5.91
27.50,-0.39,-6.30,-0.39,-6.30,6.00,6.13,6.09,5.61,5.61,5.91
27.77,-0.33,-6.24,-0.33,-6.24,6.00,6.12,6.20,5.67,5.67,5.91
28.05,-0.28,-6.19,-0.30,-6.21,6.00,6.11,6.32,5.72,5.70,5.91
28.33,-0.29,-6.20,-0.29,-6.20,6.00,6.11,6.43,5.71,5.71,5.91
28.62,-0.29,-6.20,-0.29,-6.20,6.00,6.10,6.53,5.71,5.71,5.91
28.90,-0.30,-6.22,-0.30,-6.21,6.00,6.09,6.63,5.70,5.70,5.92
29.19,-0.30,-6.22,-0.30,-6.22,6.00,6.08,6.72,5.70,5.70,5.92
29.48,-0.30,-6.22,-0.30,-6.22,6.00,6.07,6.81,5.70,5.70,5.91
29.78,-0.30,-6.23,-0.30,-6.22,6.00,6.06,6.89,5.70,5.70,5.92
30.08,-0.30,-6.22,-0.30,-6.22,6.00,6.05,6.95,5.70,5.70,5.92
30.38,-0.30,-6.22,-0.30,-6.22,6.00,6.04,7.02,5.70,5.70,5.92
30.68,-0.30,-6.22,-0.30,-6.22,6.00,6.03,7.06,5.70,5.70,5.92
30.99,-0.30,-6.22,-0.30,-6.22,6.00,6.02,7.11,5.70,5.70,5.92
31.30,-0.30,-6.22,-0.30,-6.22,6.00,6.01,7.14,5.70,5.70,5.92
31.61,-0.30,-6.22,-0.30,-6.22,6.00,6.00,7.16,5.70,5.70,5.92
31.93,-0.30,-6.22,-0.30,-6.21,6.00,5.99,7.17,5.70,5.70,5.91
32.24,-0.30,-6.20,-0.30,-6.21,6.00,5.98,7.18,5.70,5.70,5.90
32.57,-0.30,-6.20,-0.30,-6.20,6.00,5.97,7.17,5.70,5.70,5.90
32.89,-0.30,-6.20,-0.30,-6.20,6.00,5.96,7.16,5.70,5.70,5.90
33.22,-0.30,-6.19,-0.30,-6.19,6.00,5.95,7.14,5.70,5.70,5.89
33.55,-0.31,-6.20,-0.31,-6.19,6.00,5.94,7.12,5.69,5.69,5.89
33.89,-0.31,-6.19,-0.32,-6.19,6.00,5.93,7.08,5.69,5.68,5.87
34.23,-0.33,-6.20,-0.33,-6.21,6.00,5.92,7.04,5.67,5.67,5.87
34.57,-0.36,-6.23,-0.36,-6.23,6.00,5.91,7.00,5.64,5.64,5.87
34.92,-0.39,-6.26,-0.39,-6.26,6.00,5.90,6.95,5.61,5.61,5.87
35.27,-0.43,-6.30,-0.43,-6.30,6.00,5.89,6.89,5.57,5.57,5.87
35.62,-0.46,-6.33,-0.47,-6.33,6.00,5.88,6.84,5.54,5.53,5.86
35.97,-0.50,-6.36,-0.49,-6.35,6.00,5.87,6.78,5.50,5.51,5.86
36.33,-0.51,-6.37,-0.50,-6.36,6.00,5.86,6.72,5.49,5.50,5.86
36.70,-0.51,-6.37,-0.52,-6.37,6.00,5.85,6.66,5.49,5.48,5.86
37.06,-0.53,-6.39,-0.55,-6.40,6.00,5.84,6.60,5.47,5.45,5.85
37.43,-0.60,-6.45,-0.60,-6.45,6.00,5.82,6.54,5.40,5.40,5.85
37.81,-0.67,-6.53,-0.66,-6.52,6.00,5.81,6.48,5.33,5.34,5.86
38.19,-0.72,-6.58,-0.72,-6.58,6.00,5.80,6.42,5.28,5.28,5.86
38.57,-0.76,-6.61,-0.77,-6.62,6.00,5.79,6.36,5.24,5.23,5.85
38.95,-0.80,-6.66,-0.80,-6.65,6.00,5.78,6.31,5.20,5.20,5.86
39.34,-0.82,-6.68,-0.83,-6.68,6.00,5.77,6.26,5.18,5.17,5.86
39.74,-0.84,-6.69,-0.84,-6.70,6.00,5.76,6.21,5.16,5.16,5.85
40.14,-0.85,-6.70,-0.84,-6.69,6.00,5.75,6.17,5.15,5.16,5.85
40.54,-0.83,-6.68,-0.83,-6.68,6.00,5.74,6.13,5.17,5.17,5.85
40.94,-0.80,-6.64,-0.81,-6.65,6.00,5.73,6.09,5.20,5.19,5.84
41.35,-0.79,-6.63,-0.79,-6.62,6.00,5.73,6.06,5.21,5.21,5.84
41.76,-0.78,-6.61,-0.79,-6.61,6.00,5.72,6.03,5.22,5.21,5.82
42.18,-0.80,-6.62,-0.81,-6.63,6.00,5.71,6.00,5.20,5.19,5.82
42.60,-0.85,-6.67,-0.85,-6.66,6.00,5.70,5.98,5.15,5.15,5.82
43.03,-0.90,-6.71,-0.91,-6.72,6.00,5.69,5.96,5.10,5.09,5.81
43.46,-0.98,-6.79,-0.98,-6.78,6.00,5.69,5.95,5.02,5.02,5.81
43.90,-1.06,-6.85,-1.07,-6.87,6.00,5.68,5.94,4.94,4.93,5.79
44.33,-1.16,-6.95,-1.17,-6.96,6.00,5.67,5.94,4.84,4.83,5.79
44.78,-1.27,-7.05,-1.26,-7.04,6.00,5.67,5.94,4.73,4.74,5.78
45.23,-1.32,-7.10,-1.31,-7.08,6.00,5.66,5.95,4.68,4.69,5.78
45.68,-1.31,-7.08,-1.32,-7.09,6.00,5.66,5.96,4.69,4.68,5.77
46.13,-1.29,-7.07,-1.31,-7.08,6.00,5.66,5.97,4.71,4.69,5.77
46.60,-1.28,-7.05,-1.28,-7.05,6.00,5.66,5.99,4.72,4.72,5.77
47.06,-1.25,-7.02,-1.22,-7.00,6.00,5.65,6.02,4.75,4.78,5.77
47.53,-1.16,-6.94,-1.17,-6.94,6.00,5.65,6.05,4.84,4.83,5.78
48.01,-1.08,-6.86,-1.12,-6.90,6.00,5.66,6.08,4.92,4.88,5.78
48.49,-1.10,-6.88,-1.10,-6.88,6.00,5.66,6.11,4.90,4.90,5.78
48.97,-1.12,-6.91,-1.09,-6.87,6.00,5.66,6.15,4.88,4.91,5.79
49.46,-1.06,-6.85,-1.07,-6.86,6.00,5.67,6.19,4.94,4.93,5.79
49.96,-1.01,-6.81,-1.03,-6.83,6.00,5.67,6.24,4.99,4.97,5.80
50.46,-1.00,-6.80,-1.00,-6.81,6.00,5.68,6.29,5.00,5.00,5.80
50.96,-1.00,-6.82,-1.00,-6.81,6.00,5.69,6.34,5.00,5.00,5.81
51.47,-1.00,-6.82,-1.00,-6.82,6.00,5.71,6.39,5.00,5.00,5.82
51.99,-1.00,-6.82,-1.00,-6.82,6.00,5.72,6.44,5.00,5.00,5.82
52.51,-1.00,-6.82,-1.00,-6.82,6.00,5.74,6.50,5.00,5.00,5.82
53.03,-1.00,-6.82,-1.00,-6.82,6.00,5.76,6.55,5.00,5.00,5.82
53.56,-1.00,-6.82,-1.00,-6.83,6.00,5.78,6.60,5.00,5.00,5.82
54.10,-1.01,-6.84,-1.03,-6.85,6.00,5.80,6.66,4.99,4.97,5.83
54.64,-1.06,-6.89,-1.05,-6.88,6.00,5.82,6.71,4.94,4.95,5.83
55.18,-1.10,-6.93,-1.08,-6.91,6.00,5.85,6.76,4.90,4.92,5.83
55.74,-1.10,-6.92,-1.12,-6.94,6.00,5.88,6.80,4.90,4.88,5.82
56.29,-1.15,-6.97,-1.17,-6.99,6.00,5.91,6.84,4.85,4.83,5.82
56.86,-1.24,-7.05,-1.22,-7.03,6.00,5.95,6.88,4.76,4.78,5.81
57.42,-1.28,-7.08,-1.27,-7.08,6.00,5.99,6.91,4.72,4.73,5.80
58.00,-1.30,-7.09,-1.31,-7.10,6.00,6.02,6.94,4.70,4.69,5.79
58.58,-1.32,-7.10,-1.33,-7.11,6.00,6.06,6.95,4.68,4.67,5.78
59.16,-1.35,-7.11,-1.36,-7.12,6.00,6.10,6.96,4.65,4.64,5.76
59.76,-1.39,-7.14,-1.38,-7.13,6.00,6.14,6.96,4.61,4.62,5.75
60.35,-1.40,-7.13,-1.40,-7.12,6.00,6.18,6.96,4.60,4.60,5.72
60.96,-1.40,-7.10,-1.40,-7.10,6.00,6.22,6.94,4.60,4.60,5.70
61.57,-1.40,-7.08,-1.41,-7.08,6.00,6.26,6.91,4.60,4.59,5.67
62.18,-1.41,-7.05,-1.42,-7.06,6.00,6.29,6.87,4.59,4.58,5.64
62.80,-1.45,-7.05,-1.45,-7.05,6.00,6.32,6.82,4.55,4.55,5.60
63.43,-1.48,-7.04,-1.48,-7.04,6.00,6.35,6.76,4.52,4.52,5.56
64.07,-1.51,-7.03,-1.50,-7.02,6.00,6.37,6.69,4.49,4.50,5.52
64.71,-1.51,-6.98,-1.52,-6.99,6.00,6.37,6.60,4.49,4.48,5.47
65.35,-1.51,-6.95,-1.51,-6.95,6.00,6.37,6.51,4.49,4.49,5.43
66.01,-1.51,-6.91,-1.49,-6.88,6.00,6.36,6.41,4.49,4.51,5.39
66.67,-1.44,-6.80,-1.46,-6.82,6.00,6.34,6.29,4.56,4.54,5.36
67.33,-1.41,-6.74,-1.43,-6.75,6.00,6.30,6.17,4.59,4.57,5.33
68.01,-1.40,-6.69,-1.38,-6.67,6.01,6.25,6.04,4.61,4.63,5.29
68.69,-1.32,-6.58,-1.32,-6.57,6.03,6.18,5.91,4.70,4.71,5.26
69.37,-1.23,-6.46,-1.24,-6.46,6.03,6.10,5.76,4.80,4.80,5.22
70.07,-1.13,-6.32,-1.15,-6.34,6.03,6.00,5.61,4.89,4.88,5.19
70.77,-1.07,-6.23,-1.07,-6.23,6.00,5.90,5.46,4.93,4.93,5.16
71.48,-0.99,-6.13,-0.99,-6.12,5.96,5.77,5.30,4.97,4.97,5.14
72.19,-0.89,-6.00,-0.89,-5.99,5.89,5.64,5.14,5.00,5.01,5.10
72.91,-0.77,-5.84,-0.76,-5.83,5.80,5.49,4.97,5.03,5.04,5.07
73.64,-0.62,-5.66,-0.63,-5.67,5.68,5.33,4.80,5.06,5.05,5.04
74.38,-0.49,-5.49,-0.51,-5.51,5.53,5.16,4.63,5.04,5.02,5.00
75.12,-0.38,-5.35,-0.38,-5.34,5.35,4.99,4.46,4.97,4.97,4.96
75.87,-0.26,-5.18,-0.24,-5.16,5.15,4.81,4.28,4.89,4.91,4.92
76.63,-0.08,-4.96,-0.08,-4.96,4.94,4.62,4.11,4.86,4.86,4.88
77.40,0.11,-4.73,0.11,-4.73,4.73,4.43,3.93,4.84,4.84,4.83
78.17,0.30,-4.50,0.29,-4.50,4.52,4.24,3.76,4.82,4.81,4.80
78.95,0.47,-4.28,0.46,-4.29,4.31,4.05,3.58,4.78,4.77,4.75
79.74,0.61,-4.10,0.62,-4.08,4.10,3.85,3.41,4.71,4.73,4.71
80.54,0.78,-3.88,0.78,-3.88,3.89,3.66,3.23,4.67,4.67,4.66
81.35,0.95,-3.67,0.93,-3.69,3.68,3.47,3.06,4.63,4.60,4.62
82.16,1.09,-3.49,1.08,-3.50,3.48,3.28,2.89,4.56,4.56,4.58
82.98,1.20,-3.34,1.24,-3.29,3.28,3.09,2.71,4.48,4.53,4.54
83.81,1.43,-3.07,1.42,-3.08,3.09,2.90,2.54,4.52,4.51,4.49
84.65,1.62,-2.84,1.59,-2.87,2.90,2.72,2.37,4.52,4.49,4.46
85.50,1.75,-2.67,1.75,-2.67,2.70,2.54,2.20,4.45,4.45,4.42
86.35,1.86,-2.52,1.87,-2.51,2.50,2.36,2.04,4.35,4.36,4.38
87.22,2.00,-2.34,2.00,-2.34,2.29,2.18,1.87,4.29,4.28,4.33
88.09,2.15,-2.14,2.16,-2.13,2.08,2.01,1.70,4.23,4.25,4.29
88.97,2.35,-1.91,2.36,-1.89,1.88,1.84,1.54,4.23,4.24,4.25
89.86,2.58,-1.63,2.55,-1.66,1.69,1.67,1.38,4.26,4.24,4.21
90.76,2.74,-1.43,2.72,-1.45,1.50,1.50,1.21,4.23,4.22,4.16
91.66,2.85,-1.28,2.86,-1.26,1.31,1.34,1.05,4.15,4.17,4.13
92.58,2.98,-1.11,2.99,-1.10,1.11,1.18,0.89,4.09,4.10,4.09
93.51,3.13,-0.92,3.11,-0.94,0.92,1.03,0.73,4.05,4.03,4.05
94.44,3.25,-0.76,3.24,-0.77,0.73,0.87,0.58,3.98,3.97,4.01
95.39,3.36,-0.62,3.38,-0.59,0.55,0.72,0.42,3.90,3.92,3.97
96.34,3.53,-0.41,3.55,-0.39,0.35,0.57,0.27,3.88,3.90,3.94
97.30,3.75,-0.15,3.73,-0.17,0.16,0.43,0.11,3.91,3.89,3.90
98.28,3.93,0.08,3.92,0.06,-0.03,0.28,-0.04,3.89,3.88,3.85
99.26,4.07,0.26,4.08,0.27,-0.22,0.14,-0.19,3.84,3.86,3.81
100.25,4.23,0.45,4.21,0.44,-0.41,0.00,-0.34,3.82,3.80,3.77
101.25,4.34,0.60,4.33,0.60,-0.59,-0.14,-0.49,3.74,3.74,3.74
102.27,4.42,0.73,4.44,0.75,-0.77,-0.27,-0.64,3.65,3.67,3.69
103.29,4.55,0.91,4.54,0.90,-0.94,-0.40,-0.78,3.61,3.60,3.64
104.32,4.66,1.07,4.65,1.05,-1.09,-0.53,-0.92,3.57,3.56,3.59
105.37,4.75,1.19,4.77,1.22,-1.22,-0.66,-1.06,3.53,3.55,3.55
106.42,4.87,1.36,4.88,1.37,-1.33,-0.78,-1.20,3.54,3.55,3.50
107.48,4.99,1.53,4.96,1.51,-1.44,-0.90,-1.33,3.55,3.53,3.46
108.56,5.03,1.62,5.01,1.60,-1.53,-1.02,-1.46,3.49,3.48,3.41
109.64,5.01,1.65,5.01,1.64,-1.63,-1.14,-1.59,3.38,3.38,3.36
110.74,4.99,1.67,4.99,1.67,-1.73,-1.25,-1.71,3.26,3.27,3.32
111.85,5.00,1.71,5.02,1.74,-1.83,-1.36,-1.83,3.16,3.19,3.28
112.97,5.11,1.86,5.11,1.86,-1.94,-1.47,-1.94,3.16,3.17,3.25
114.10,5.25,2.04,5.24,2.03,-2.06,-1.58,-2.05,3.19,3.18,3.21
115.24,5.39,2.21,5.38,2.20,-2.18,-1.68,-2.15,3.20,3.20,3.18
116.39,5.51,2.36,5.51,2.36,-2.31,-1.78,-2.25,3.20,3.20,3.14
117.55,5.62,2.49,5.63,2.50,-2.44,-1.88,-2.34,3.18,3.18,3.13
118.73,5.73,2.63,5.71,2.61,-2.57,-1.98,-2.42,3.16,3.14,3.10
119.92,5.78,2.69,5.77,2.68,-2.68,-2.07,-2.50,3.10,3.09,3.09
121.12,5.79,2.72,5.81,2.74,-2.77,-2.16,-2.57,3.02,3.04,3.07
122.33,5.85,2.79,5.86,2.80,-2.84,-2.24,-2.63,3.01,3.02,3.05
123.55,5.92,2.88,5.92,2.88,-2.89,-2.33,-2.68,3.03,3.03,3.04
124.79,6.00,2.97,5.98,2.96,-2.93,-2.41,-2.73,3.07,3.05,3.02
126.03,6.02,3.01,6.02,3.01,-2.96,-2.49,-2.77,3.06,3.06,3.01
127.29,6.02,3.02,6.01,3.01,-2.99,-2.56,-2.80,3.03,3.02,3.00
128.57,5.98,2.99,5.97,2.99,-3.01,-2.63,-2.83,2.97,2.96,2.98
129.85,5.92,2.95,5.94,2.97,-3.02,-2.70,-2.84,2.90,2.92,2.97
131.15,5.93,2.97,5.94,2.98,-3.02,-2.76,-2.85,2.91,2.92,2.96
132.46,5.95,3.01,5.95,3.01,-3.00,-2.83,-2.85,2.94,2.94,2.94
133.79,5.97,3.04,5.94,3.01,-2.98,-2.89,-2.85,2.99,2.96,2.92
135.12,5.90,2.99,5.89,2.99,-2.95,-2.94,-2.84,2.95,2.94,2.90
136.48,5.79,2.89,5.82,2.93,-2.91,-2.99,-2.83,2.88,2.91,2.89
137.84,5.76,2.88,5.74,2.86,-2.87,-3.04,-2.81,2.89,2.87,2.87
139.22,5.67,2.81,5.66,2.81,-2.82,-3.09,-2.79,2.85,2.85,2.85
140.61,5.57,2.73,5.58,2.75,-2.76,-3.13,-2.76,2.81,2.83,2.84
142.02,5.51,2.69,5.49,2.67,-2.69,-3.17,-2.73,2.82,2.80,2.82
143.44,5.40,2.61,5.41,2.62,-2.62,-3.20,-2.70,2.77,2.79,2.79
144.87,5.33,2.56,5.34,2.57,-2.57,-3.24,-2.66,2.76,2.77,2.76
146.32,5.27,2.53,5.26,2.53,-2.52,-3.26,-2.62,2.74,2.74,2.74
147.78,5.19,2.49,5.17,2.47,-2.49,-3.29,-2.58,2.70,2.68,2.70
149.26,5.09,2.42,5.08,2.41,-2.45,-3.31,-2.54,2.63,2.62,2.67
150.75,4.95,2.33,5.00,2.38,-2.41,-3.33,-2.49,2.54,2.59,2.62
152.26,4.95,2.38,4.94,2.38,-2.36,-3.35,-2.45,2.59,2.59,2.57
153.78,4.91,2.39,4.87,2.36,-2.28,-3.36,-2.41,2.63,2.59,2.51
155.32,4.78,2.33,4.77,2.32,-2.19,-3.37,-2.36,2.59,2.58,2.45
156.88,4.59,2.19,4.61,2.22,-2.11,-3.38,-2.32,2.48,2.51,2.40
158.44,4.44,2.10,4.42,2.08,-2.04,-3.38,-2.27,2.40,2.38,2.34
160.03,4.27,1.98,4.24,1.96,-2.02,-3.38,-2.23,2.25,2.23,2.28
161.63,4.10,1.85,4.12,1.89,-2.04,-3.38,-2.19,2.05,2.08,2.24
163.24,4.10,1.90,4.12,1.92,-2.13,-3.37,-2.15,1.97,1.99,2.19
164.88,4.23,2.06,4.26,2.10,-2.27,-3.36,-2.11,1.95,1.99,2.16
166.53,4.55,2.41,4.54,2.40,-2.47,-3.35,-2.07,2.08,2.07,2.13
168.19,4.88,2.76,4.86,2.74,-2.70,-3.34,-2.03,2.18,2.16,2.12
169.87,5.18,3.07,5.17,3.07,-2.94,-3.32,-2.00,2.24,2.24,2.11
171.57,5.42,3.32,5.41,3.31,-3.16,-3.30,-1.96,2.26,2.25,2.10
173.29,5.59,3.48,5.58,3.47,-3.35,-3.28,-1.93,2.23,2.22,2.10
175.02,5.67,3.55,5.67,3.56,-3.49,-3.25,-1.90,2.17,2.17,2.12
176.77,5.71,3.58,5.71,3.58,-3.58,-3.22,-1.87,2.13,2.13,2.13
178.54,5.72,3.57,5.72,3.57,-3.61,-3.19,-1.84,2.11,2.11,2.14
180.32,5.72,3.55,5.73,3.56,-3.60,-3.16,-1.81,2.12,2.13,2.17
182.13,5.72,3.53,5.72,3.54,-3.57,-3.12,-1.79,2.15,2.16,2.18
183.95,5.73,3.52,5.71,3.51,-3.53,-3.08,-1.77,2.20,2.19,2.21
185.79,5.69,3.47,5.69,3.47,-3.48,-3.04,-1.75,2.21,2.21,2.22
187.65,5.65,3.43,5.65,3.42,-3.42,-3.00,-1.73,2.23,2.23,2.22
189.52,5.59,3.36,5.60,3.37,-3.36,-2.95,-1.71,2.23,2.24,2.23
191.42,5.54,3.31,5.53,3.30,-3.29,-2.90,-1.69,2.25,2.24,2.23
193.33,5.47,3.23,5.46,3.22,-3.22,-2.85,-1.68,2.25,2.24,2.23
195.27,5.36,3.13,5.38,3.15,-3.15,-2.80,-1.66,2.21,2.24,2.23
197.22,5.30,3.08,5.29,3.06,-3.07,-2.75,-1.65,2.22,2.21,2.22
199.19,5.22,3.00,5.19,2.98,-3.00,-2.69,-1.63,2.22,2.19,2.22
201.18,5.09,2.88,5.13,2.92,-2.94,-2.63,-1.62,2.15,2.19,2.21
203.19,5.05,2.85,5.06,2.86,-2.87,-2.57,-1.61,2.17,2.18,2.20
205.23,5.04,2.85,4.99,2.80,-2.81,-2.51,-1.60,2.22,2.18,2.19
207.28,4.92,2.74,4.94,2.77,-2.76,-2.45,-1.59,2.16,2.19,2.18
209.35,4.86,2.69,4.88,2.71,-2.70,-2.38,-1.58,2.16,2.18,2.17
211.44,4.83,2.68,4.79,2.64,-2.64,-2.31,-1.58,2.19,2.15,2.15
213.56,4.71,2.57,4.71,2.58,-2.57,-2.24,-1.57,2.14,2.15,2.14
215.69,4.60,2.48,4.62,2.50,-2.49,-2.17,-1.56,2.11,2.14,2.12
217.85,4.53,2.41,4.51,2.40,-2.39,-2.10,-1.55,2.13,2.12,2.11
220.03,4.41,2.31,4.40,2.30,-2.29,-2.02,-1.54,2.12,2.11,2.10
222.23,4.27,2.18,4.28,2.19,-2.18,-1.95,-1.53,2.09,2.10,2.09
224.45,4.15,2.07,4.14,2.06,-2.06,-1.87,-1.51,2.09,2.08,2.08
226.70,4.02,1.94,4.01,1.93,-1.94,-1.79,-1.50,2.07,2.07,2.07
228.96,3.87,1.80,3.88,1.81,-1.82,-1.71,-1.48,2.04,2.06,2.07
231.25,3.76,1.69,3.76,1.69,-1.71,-1.63,-1.47,2.05,2.05,2.07
233.57,3.65,1.58,3.65,1.58,-1.60,-1.54,-1.45,2.05,2.05,2.06
235.90,3.56,1.49,3.56,1.49,-1.50,-1.46,-1.43,2.06,2.06,2.07
238.26,3.48,1.41,3.47,1.40,-1.40,-1.37,-1.40,2.08,2.07,2.07
240.64,3.40,1.31,3.38,1.30,-1.31,-1.28,-1.38,2.09,2.08,2.08
243.05,3.29,1.20,3.30,1.21,-1.21,-1.19,-1.35,2.08,2.10,2.09
245.48,3.21,1.11,3.23,1.14,-1.11,-1.10,-1.32,2.10,2.12,2.09
247.93,3.18,1.08,3.15,1.05,-1.01,-1.01,-1.28,2.17,2.14,2.10
250.41,3.07,0.96,3.04,0.94,-0.92,-0.91,-1.25,2.15,2.12,2.10
252.92,2.90,0.79,2.92,0.81,-0.83,-0.82,-1.21,2.07,2.09,2.11
255.45,2.78,0.67,2.80,0.70,-0.75,-0.72,-1.16,2.03,2.06,2.10
258.00,2.74,0.64,2.73,0.63,-0.68,-0.63,-1.12,2.06,2.05,2.10
260.58,2.70,0.60,2.69,0.60,-0.61,-0.53,-1.07,2.08,2.08,2.10
263.19,2.65,0.56,2.65,0.56,-0.56,-0.43,-1.02,2.09,2.09,2.09
265.82,2.61,0.52,2.59,0.50,-0.50,-0.33,-0.96,2.10,2.09,2.09
268.48,2.52,0.44,2.54,0.46,-0.45,-0.22,-0.90,2.07,2.10,2.08
271.16,2.48,0.40,2.49,0.41,-0.38,-0.12,-0.84,2.10,2.11,2.08
273.87,2.45,0.37,2.41,0.33,-0.29,-0.01,-0.78,2.15,2.11,2.08
276.61,2.30,0.23,2.30,0.23,-0.19,0.09,-0.71,2.11,2.11,2.07
279.38,2.15,0.08,2.17,0.09,-0.07,0.20,-0.64,2.08,2.10,2.07
282.17,2.02,-0.06,2.03,-0.05,0.05,0.31,-0.57,2.07,2.08,2.08
284.99,1.90,-0.18,1.87,-0.21,0.18,0.42,-0.50,2.08,2.05,2.08
287.84,1.75,-0.33,1.73,-0.36,0.31,0.53,-0.43,2.06,2.04,2.08
290.72,1.54,-0.55,1.61,-0.48,0.44,0.64,-0.35,1.98,2.05,2.09
293.63,1.53,-0.57,1.51,-0.58,0.56,0.75,-0.27,2.09,2.07,2.09
296.57,1.46,-0.64,1.42,-0.67,0.68,0.86,-0.19,2.14,2.10,2.10
299.53,1.34,-0.76,1.34,-0.76,0.79,0.97,-0.11,2.13,2.13,2.10
302.53,1.21,-0.90,1.23,-0.88,0.90,1.09,-0.03,2.10,2.12,2.11
305.55,1.12,-0.99,1.11,-1.00,1.00,1.20,0.06,2.12,2.11,2.10
308.61,1.00,-1.10,0.99,-1.11,1.11,1.32,0.14,2.11,2.10,2.10
311.69,0.86,-1.24,0.87,-1.22,1.22,1.43,0.23,2.08,2.09,2.10
314.81,0.75,-1.34,0.74,-1.35,1.34,1.55,0.32,2.08,2.08,2.09
317.96,0.62,-1.47,0.62,-1.46,1.45,1.66,0.41,2.07,2.07,2.08
321.14,0.49,-1.58,0.50,-1.57,1.57,1.78,0.50,2.06,2.07,2.07
324.35,0.40,-1.67,0.38,-1.69,1.69,1.89,0.59,2.08,2.07,2.07
327.59,0.26,-1.80,0.25,-1.80,1.81,2.01,0.68,2.07,2.06,2.06
330.87,0.11,-1.94,0.13,-1.92,1.93,2.12,0.77,2.04,2.06,2.05
334.18,-0.00,-2.04,-0.01,-2.04,2.06,2.24,0.87,2.06,2.05,2.03
337.52,-0.13,-2.16,-0.15,-2.18,2.18,2.35,0.96,2.05,2.03,2.02
340.90,-0.30,-2.32,-0.30,-2.32,2.31,2.46,1.06,2.01,2.01,2.02
344.30,-0.47,-2.48,-0.45,-2.46,2.44,2.58,1.16,1.97,1.98,2.01
347.75,-0.59,-2.58,-0.60,-2.59,2.57,2.69,1.26,1.98,1.97,1.99
351.23,-0.72,-2.70,-0.72,-2.70,2.70,2.80,1.36,1.98,1.98,1.98
354.74,-0.85,-2.82,-0.85,-2.81,2.84,2.90,1.46,1.98,1.99,1.97
358.28,-0.98,-2.94,-0.99,-2.94,2.96,3.01,1.56,1.98,1.97,1.95
361.87,-1.13,-3.07,-1.15,-3.09,3.09,3.11,1.66,1.96,1.94,1.94
365.49,-1.32,-3.24,-1.31,-3.23,3.21,3.21,1.77,1.89,1.90,1.92
369.14,-1.47,-3.38,-1.45,-3.36,3.34,3.31,1.87,1.86,1.88,1.91
372.83,-1.57,-3.47,-1.58,-3.48,3.46,3.40,1.98,1.89,1.88,1.90
376.56,-1.68,-3.57,-1.69,-3.57,3.59,3.50,2.09,1.91,1.91,1.89
380.33,-1.81,-3.69,-1.81,-3.69,3.72,3.58,2.19,1.91,1.91,1.88
384.13,-1.94,-3.81,-1.96,-3.83,3.85,3.67,2.30,1.91,1.89,1.87
387.97,-2.13,-3.99,-2.12,-3.97,3.97,3.75,2.41,1.84,1.85,1.85
391.85,-2.28,-4.13,-2.26,-4.11,4.09,3.83,2.52,1.81,1.83,1.84
395.77,-2.38,-4.22,-2.40,-4.23,4.21,3.90,2.63,1.83,1.81,1.83
399.73,-2.51,-4.33,-2.53,-4.35,4.32,3.96,2.74,1.81,1.80,1.82
403.72,-2.65,-4.46,-2.63,-4.44,4.44,4.03,2.86,1.79,1.81,1.81
407.76,-2.76,-4.55,-2.74,-4.53,4.55,4.08,2.97,1.79,1.81,1.79
411.84,-2.81,-4.59,-2.85,-4.63,4.66,4.13,3.08,1.84,1.80,1.78
415.96,-2.96,-4.73,-2.96,-4.73,4.76,4.18,3.19,1.80,1.80,1.77
420.12,-3.10,-4.87,-3.07,-4.84,4.86,4.22,3.29,1.75,1.78,1.77
424.32,-3.17,-4.93,-3.19,-4.95,4.95,4.25,3.40,1.77,1.76,1.76
428.56,-3.27,-5.03,-3.28,-5.04,5.02,4.28,3.51,1.75,1.74,1.76
432.85,-3.35,-5.12,-3.35,-5.11,5.09,4.30,3.61,1.73,1.74,1.77
437.18,-3.41,-5.19,-3.39,-5.17,5.13,4.32,3.71,1.72,1.74,1.78
441.55,-3.39,-5.19,-3.39,-5.19,5.16,4.33,3.81,1.77,1.77,1.79
445.96,-3.35,-5.17,-3.36,-5.17,5.17,4.33,3.90,1.82,1.81,1.81
450.42,-3.30,-5.15,-3.30,-5.15,5.17,4.33,3.99,1.87,1.87,1.84
454.93,-3.24,-5.13,-3.24,-5.12,5.15,4.32,4.08,1.91,1.91,1.88
459.48,-3.18,-5.10,-3.19,-5.10,5.13,4.31,4.15,1.95,1.95,1.92
464.07,-3.12,-5.07,-3.12,-5.08,5.10,4.29,4.23,1.98,1.97,1.95
468.71,-3.06,-5.05,-3.06,-5.05,5.06,4.26,4.30,1.99,2.00,1.99
473.40,-2.98,-5.01,-2.98,-5.01,5.00,4.23,4.36,2.02,2.02,2.03
478.13,-2.89,-4.96,-2.90,-4.97,4.93,4.19,4.41,2.04,2.04,2.07
482.91,-2.79,-4.89,-2.79,-4.89,4.85,4.15,4.46,2.06,2.06,2.10
487.74,-2.67,-4.80,-2.65,-4.78,4.76,4.10,4.50,2.09,2.11,2.13
492.62,-2.49,-4.64,-2.49,-4.64,4.65,4.04,4.53,2.16,2.16,2.15
497.55,-2.31,-4.48,-2.33,-4.50,4.53,3.98,4.55,2.22,2.20,2.17
502.52,-2.17,-4.35,-2.19,-4.36,4.39,3.92,4.57,2.22,2.21,2.18
507.55,-2.07,-4.25,-2.07,-4.25,4.24,3.85,4.57,2.17,2.17,2.18
512.62,-1.96,-4.13,-1.95,-4.12,4.09,3.77,4.57,2.12,2.14,2.17
517.75,-1.82,-3.97,-1.80,-3.95,3.93,3.68,4.56,2.11,2.13,2.15
522.93,-1.63,-3.76,-1.65,-3.77,3.77,3.60,4.55,2.14,2.13,2.13
528.16,-1.48,-3.57,-1.50,-3.59,3.61,3.50,4.52,2.13,2.11,2.09
533.44,-1.38,-3.42,-1.38,-3.42,3.45,3.40,4.49,2.07,2.07,2.04
