frequency,raw,error,smoothed,error_smoothed,equalization,parametric_eq,fixed_band_eq,equalized_raw,equalized_smoothed,target
20.00,3.03,-0.19,3.03,-0.20,0.18,-0.47,-0.52,3.21,3.21,3.22
20.20,3.09,-0.17,3.09,-0.17,0.17,-0.48,-0.53,3.26,3.26,3.26
20.40,3.14,-0.16,3.14,-0.15,0.16,-0.49,-0.54,3.30,3.30,3.30
20.61,3.20,-0.12,3.20,-0.13,0.14,-0.50,-0.56,3.34,3.34,3.32
20.81,3.26,-0.10,3.26,-0.11,0.12,-0.52,-0.57,3.38,3.37,3.36
21.02,3.31,-0.09,3.31,-0.08,0.10,-0.53,-0.59,3.40,3.40,3.40
21.23,3.35,-0.06,3.35,-0.07,0.07,-0.54,-0.60,3.42,3.42,3.41
21.44,3.39,-0.04,3.39,-0.04,0.04,-0.55,-0.62,3.43,3.43,3.43
21.66,3.42,-0.02,3.42,-0.02,0.01,-0.56,-0.64,3.43,3.43,3.44
21.87,3.46,0.02,3.46,0.01,-0.02,-0.57,-0.65,3.44,3.44,3.44
22.09,3.50,0.05,3.50,0.05,-0.06,-0.59,-0.67,3.44,3.44,3.45
22.31,3.54,0.09,3.54,0.09,-0.10,-0.60,-0.69,3.44,3.44,3.45
22.54,3.59,0.14,3.59,0.14,-0.14,-0.61,-0.71,3.45,3.45,3.45
22.76,3.63,0.19,3.63,0.19,-0.18,-0.63,-0.73,3.45,3.45,3.44
22.99,3.68,0.25,3.67,0.24,-0.22,-0.64,-0.75,3.46,3.45,3.43
23.22,3.70,0.27,3.70,0.28,-0.26,-0.66,-0.77,3.44,3.44,3.43
23.45,3.73,0.31,3.73,0.31,-0.30,-0.67,-0.79,3.43,3.43,3.42
23.69,3.76,0.34,3.75,0.33,-0.34,-0.69,-0.81,3.42,3.41,3.42
23.92,3.78,0.36,3.79,0.36,-0.38,-0.70,-0.83,3.40,3.41,3.42
24.16,3.82,0.39,3.82,0.40,-0.41,-0.72,-0.85,3.41,3.41,3.43
24.40,3.87,0.44,3.87,0.44,-0.45,-0.73,-0.88,3.42,3.42,3.43
24.65,3.91,0.49,3.91,0.49,-0.49,-0.75,-0.90,3.42,3.43,3.42
24.89,3.96,0.54,3.95,0.54,-0.52,-0.77,-0.92,3.44,3.43,3.42
25.14,3.99,0.57,3.99,0.57,-0.56,-0.78,-0.94,3.43,3.43,3.42
25.39,4.02,0.60,4.02,0.61,-0.60,-0.80,-0.97,3.42,3.42,3.41
25.65,4.05,0.64,4.04,0.64,-0.65,-0.82,-0.99,3.40,3.40,3.40
25.91,4.07,0.67,4.07,0.68,-0.69,-0.84,-1.02,3.38,3.39,3.39
26.16,4.11,0.72,4.11,0.72,-0.73,-0.86,-1.04,3.38,3.38,3.39
26.43,4.16,0.77,4.16,0.77,-0.77,-0.88,-1.06,3.39,3.39,3.39
26.69,4.21,0.82,4.21,0.82,-0.81,-0.90,-1.09,3.39,3.39,3.39
26.96,4.26,0.88,4.25,0.87,-0.86,-0.92,-1.11,3.40,3.40,3.38
27.23,4.29,0.91,4.29,0.91,-0.90,-0.94,-1.14,3.39,3.39,3.38
27.50,4.32,0.94,4.32,0.94,-0.93,-0.96,-1.16,3.38,3.38,3.38
27.77,4.35,0.98,4.35,0.97,-0.97,-0.98,-1.19,3.38,3.37,3.37
28.05,4.37,1.00,4.37,1.01,-1.01,-1.00,-1.21,3.36,3.37,3.37
28.33,4.40,1.04,4.40,1.04,-1.04,-1.03,-1.24,3.36,3.35,3.36
28.62,4.43,1.07,4.42,1.07,-1.08,-1.05,-1.26,3.35,3.34,3.36
28.90,4.45,1.09,4.46,1.10,-1.12,-1.08,-1.28,3.33,3.34,3.36
29.19,4.50,1.14,4.50,1.15,-1.16,-1.10,-1.30,3.34,3.35,3.35
29.48,4.56,1.20,4.56,1.20,-1.19,-1.13,-1.33,3.37,3.37,3.36
29.78,4.62,1.26,4.61,1.26,-1.23,-1.15,-1.35,3.39,3.39,3.35
30.08,4.66,1.30,4.65,1.29,-1.26,-1.18,-1.37,3.39,3.38,3.36
30.38,4.66,1.32,4.66,1.31,-1.30,-1.20,-1.39,3.36,3.35,3.34
30.68,4.66,1.32,4.66,1.32,-1.34,-1.23,-1.41,3.32,3.32,3.34
30.99,4.66,1.33,4.68,1.34,-1.38,-1.26,-1.43,3.28,3.30,3.33
31.30,4.72,1.39,4.72,1.39,-1.41,-1.29,-1.45,3.30,3.30,3.33
31.61,4.78,1.45,4.78,1.46,-1.45,-1.32,-1.46,3.33,3.32,3.33
31.93,4.84,1.53,4.83,1.52,-1.49,-1.35,-1.48,3.35,3.34,3.31
32.24,4.86,1.57,4.86,1.56,-1.53,-1.38,-1.50,3.32,3.32,3.29
32.57,4.87,1.58,4.87,1.59,-1.58,-1.41,-1.52,3.29,3.29,3.29
32.89,4.89,1.61,4.89,1.61,-1.63,-1.45,-1.53,3.26,3.26,3.28
33.22,4.92,1.66,4.92,1.66,-1.68,-1.48,-1.55,3.24,3.25,3.26
33.55,4.97,1.71,4.97,1.72,-1.72,-1.51,-1.56,3.25,3.25,3.26
33.89,5.02,1.78,5.01,1.77,-1.77,-1.55,-1.58,3.25,3.25,3.24
34.23,5.06,1.82,5.05,1.82,-1.81,-1.58,-1.59,3.24,3.24,3.23
34.57,5.08,1.87,5.08,1.86,-1.87,-1.62,-1.60,3.21,3.21,3.21
34.92,5.10,1.90,5.10,1.90,-1.92,-1.65,-1.62,3.18,3.18,3.20
35.27,5.14,1.94,5.14,1.95,-1.97,-1.69,-1.63,3.17,3.17,3.20
35.62,5.18,2.00,5.18,2.00,-2.00,-1.73,-1.65,3.18,3.18,3.18
35.97,5.23,2.06,5.21,2.05,-2.02,-1.77,-1.66,3.21,3.20,3.16
36.33,5.23,2.07,5.24,2.08,-2.02,-1.81,-1.68,3.20,3.21,3.16
36.70,5.23,2.08,5.23,2.08,-2.03,-1.85,-1.70,3.20,3.20,3.15
37.06,5.22,2.08,5.20,2.05,-2.03,-1.89,-1.71,3.18,3.16,3.14
37.43,5.16,2.01,5.15,2.02,-2.05,-1.93,-1.73,3.11,3.10,3.15
37.81,5.11,1.98,5.13,2.00,-2.08,-1.97,-1.75,3.03,3.05,3.13
38.19,5.13,2.01,5.15,2.02,-2.11,-2.01,-1.77,3.02,3.04,3.12
38.57,5.22,2.09,5.21,2.09,-2.14,-2.06,-1.79,3.08,3.07,3.13
38.95,5.32,2.20,5.31,2.19,-2.17,-2.10,-1.81,3.15,3.14,3.11
39.34,5.39,2.28,5.40,2.29,-2.20,-2.15,-1.83,3.19,3.20,3.11
39.74,5.46,2.36,5.45,2.35,-2.23,-2.19,-1.85,3.23,3.22,3.10
40.14,5.47,2.37,5.43,2.33,-2.27,-2.24,-1.88,3.20,3.16,3.10
40.54,5.38,2.29,5.38,2.28,-2.31,-2.28,-1.90,3.07,3.06,3.09
40.94,5.28,2.19,5.34,2.26,-2.35,-2.33,-1.93,2.92,2.99,3.09
41.35,5.36,2.28,5.36,2.28,-2.39,-2.38,-1.96,2.96,2.96,3.07
41.76,5.46,2.40,5.44,2.38,-2.43,-2.42,-1.99,3.03,3.01,3.06
42.18,5.56,2.50,5.57,2.51,-2.48,-2.47,-2.02,3.08,3.09,3.06
42.60,5.66,2.62,5.66,2.62,-2.53,-2.52,-2.05,3.13,3.13,3.04
43.03,5.75,2.71,5.71,2.68,-2.60,-2.56,-2.09,3.15,3.11,3.04
43.46,5.72,2.70,5.72,2.71,-2.68,-2.61,-2.13,3.04,3.04,3.01
43.90,5.69,2.70,5.71,2.72,-2.76,-2.66,-2.16,2.93,2.95,2.99
44.33,5.72,2.74,5.72,2.75,-2.83,-2.70,-2.20,2.88,2.88,2.97
44.78,5.77,2.82,5.77,2.82,-2.89,-2.75,-2.24,2.88,2.88,2.95
45.23,5.84,2.90,5.86,2.92,-2.92,-2.80,-2.29,2.91,2.93,2.94
45.68,5.95,3.03,5.94,3.02,-2.95,-2.84,-2.33,3.00,2.99,2.92
46.13,6.02,3.11,5.99,3.08,-2.96,-2.89,-2.38,3.06,3.03,2.90
46.60,5.98,3.08,5.99,3.09,-2.98,-2.94,-2.42,3.00,3.01,2.90
47.06,5.94,3.05,5.91,3.02,-3.01,-2.98,-2.47,2.92,2.90,2.89
47.53,5.84,2.95,5.83,2.94,-3.05,-3.02,-2.52,2.79,2.78,2.89
48.01,5.74,2.86,5.81,2.93,-3.09,-3.07,-2.58,2.65,2.72,2.88
48.49,5.87,3.00,5.86,2.99,-3.13,-3.11,-2.63,2.74,2.73,2.86
48.97,6.00,3.15,6.00,3.15,-3.16,-3.15,-2.68,2.84,2.84,2.85
49.46,6.14,3.30,6.15,3.31,-3.20,-3.19,-2.74,2.94,2.95,2.84
49.96,6.27,3.45,6.21,3.37,-3.24,-3.23,-2.80,3.03,2.97,2.82
50.46,6.20,3.36,6.20,3.37,-3.27,-3.27,-2.86,2.93,2.93,2.83
50.96,6.11,3.28,6.15,3.32,-3.29,-3.31,-2.91,2.82,2.86,2.83
51.47,6.09,3.27,6.09,3.27,-3.30,-3.34,-2.97,2.79,2.78,2.82
51.99,6.07,3.26,6.05,3.24,-3.31,-3.38,-3.03,2.76,2.74,2.81
52.51,6.05,3.24,6.05,3.23,-3.32,-3.41,-3.09,2.73,2.72,2.81
53.03,6.04,3.23,6.06,3.25,-3.34,-3.44,-3.16,2.70,2.72,2.81
53.56,6.13,3.33,6.13,3.33,-3.38,-3.47,-3.22,2.75,2.75,2.80
54.10,6.23,3.43,6.25,3.45,-3.42,-3.50,-3.28,2.81,2.83,2.79
54.64,6.37,3.57,6.35,3.56,-3.47,-3.53,-3.34,2.90,2.88,2.79
55.18,6.44,3.66,6.38,3.60,-3.51,-3.56,-3.39,2.92,2.87,2.78
55.74,6.34,3.57,6.37,3.59,-3.55,-3.58,-3.45,2.79,2.82,2.77
56.29,6.30,3.53,6.32,3.56,-3.57,-3.60,-3.51,2.72,2.75,2.77
56.86,6.30,3.55,6.29,3.54,-3.59,-3.63,-3.57,2.71,2.71,2.75
57.42,6.30,3.56,6.29,3.56,-3.59,-3.65,-3.62,2.71,2.71,2.74
58.00,6.30,3.57,6.30,3.57,-3.58,-3.67,-3.67,2.72,2.72,2.72
58.58,6.30,3.59,6.30,3.59,-3.58,-3.69,-3.72,2.71,2.71,2.71
59.16,6.30,3.60,6.30,3.60,-3.60,-3.71,-3.77,2.70,2.70,2.70
59.76,6.30,3.62,6.30,3.62,-3.63,-3.73,-3.81,2.67,2.67,2.68
60.35,6.30,3.65,6.30,3.65,-3.66,-3.74,-3.85,2.64,2.64,2.65
60.96,6.30,3.67,6.30,3.68,-3.69,-3.76,-3.89,2.61,2.61,2.63
61.57,6.30,3.72,6.30,3.72,-3.71,-3.78,-3.93,2.59,2.59,2.58
62.18,6.30,3.75,6.30,3.75,-3.73,-3.79,-3.96,2.57,2.57,2.55
62.80,6.30,3.79,6.30,3.79,-3.75,-3.81,-3.99,2.55,2.55,2.51
63.43,6.27,3.79,6.26,3.79,-3.77,-3.82,-4.02,2.50,2.49,2.47
64.07,6.23,3.79,6.18,3.74,-3.78,-3.84,-4.04,2.45,2.40,2.44
64.71,6.08,3.68,6.15,3.74,-3.78,-3.85,-4.06,2.30,2.37,2.40
65.35,6.08,3.71,6.13,3.76,-3.77,-3.87,-4.08,2.31,2.35,2.37
66.01,6.20,3.87,6.11,3.77,-3.76,-3.88,-4.09,2.44,2.35,2.33
66.67,6.08,3.79,6.10,3.80,-3.74,-3.90,-4.11,2.34,2.36,2.29
67.33,5.99,3.72,6.01,3.75,-3.72,-3.91,-4.12,2.27,2.29,2.26
68.01,5.93,3.70,5.87,3.64,-3.69,-3.93,-4.13,2.24,2.18,2.22
68.69,5.74,3.56,5.83,3.65,-3.65,-3.94,-4.14,2.09,2.18,2.18
69.37,5.74,3.60,5.78,3.63,-3.60,-3.96,-4.14,2.13,2.17,2.14
70.07,5.86,3.76,5.70,3.59,-3.57,-3.98,-4.15,2.29,2.13,2.10
70.77,5.57,3.50,5.63,3.56,-3.54,-4.00,-4.16,2.03,2.09,2.07
71.48,5.48,3.45,5.55,3.52,-3.54,-4.01,-4.16,1.94,2.01,2.02
72.19,5.50,3.52,5.47,3.50,-3.57,-4.03,-4.17,1.93,1.91,1.98
72.91,5.55,3.62,5.49,3.56,-3.63,-4.05,-4.17,1.92,1.87,1.93
73.64,5.51,3.63,5.56,3.68,-3.71,-4.07,-4.18,1.80,1.85,1.88
74.38,5.61,3.77,5.64,3.81,-3.82,-4.10,-4.19,1.79,1.83,1.84
75.12,5.82,4.03,5.75,3.96,-3.96,-4.12,-4.19,1.86,1.79,1.79
75.87,5.89,4.14,5.89,4.14,-4.12,-4.14,-4.20,1.77,1.77,1.75
76.63,6.00,4.28,6.03,4.31,-4.30,-4.17,-4.22,1.70,1.73,1.72
77.40,6.15,4.47,6.15,4.48,-4.47,-4.19,-4.23,1.67,1.68,1.68
78.17,6.32,4.68,6.30,4.65,-4.64,-4.22,-4.24,1.68,1.65,1.64
78.95,6.44,4.83,6.43,4.82,-4.81,-4.24,-4.26,1.63,1.62,1.61
79.74,6.52,4.94,6.55,4.97,-4.96,-4.27,-4.28,1.56,1.58,1.58
80.54,6.65,5.10,6.63,5.08,-5.10,-4.30,-4.31,1.55,1.53,1.55
81.35,6.73,5.21,6.71,5.19,-5.20,-4.33,-4.33,1.53,1.51,1.52
82.16,6.74,5.25,6.79,5.30,-5.27,-4.36,-4.36,1.47,1.52,1.49
82.98,6.87,5.40,6.85,5.38,-5.31,-4.39,-4.39,1.56,1.53,1.47
83.81,6.87,5.44,6.86,5.43,-5.33,-4.42,-4.43,1.53,1.52,1.43
84.65,6.83,5.44,6.79,5.40,-5.35,-4.45,-4.47,1.48,1.44,1.39
85.50,6.67,5.30,6.66,5.30,-5.36,-4.49,-4.51,1.31,1.30,1.37
86.35,6.51,5.17,6.55,5.21,-5.36,-4.52,-4.56,1.15,1.19,1.34
87.22,6.50,5.20,6.54,5.23,-5.35,-4.55,-4.60,1.15,1.19,1.30
88.09,6.56,5.29,6.59,5.32,-5.33,-4.59,-4.66,1.23,1.26,1.27
88.97,6.73,5.49,6.62,5.38,-5.31,-4.62,-4.71,1.42,1.31,1.24
89.86,6.58,5.37,6.58,5.38,-5.28,-4.66,-4.77,1.30,1.30,1.21
90.76,6.43,5.26,6.48,5.30,-5.25,-4.70,-4.84,1.18,1.23,1.17
91.66,6.34,5.20,6.33,5.19,-5.20,-4.73,-4.90,1.14,1.13,1.14
92.58,6.23,5.12,6.24,5.13,-5.13,-4.77,-4.97,1.09,1.10,1.11
93.51,6.14,5.06,6.14,5.06,-5.05,-4.81,-5.05,1.09,1.09,1.08
94.44,6.04,4.99,6.00,4.95,-4.96,-4.84,-5.12,1.08,1.05,1.05
95.39,5.86,4.84,5.84,4.82,-4.87,-4.88,-5.20,0.99,0.97,1.02
96.34,5.66,4.67,5.71,4.73,-4.79,-4.92,-5.29,0.87,0.92,0.98
97.30,5.60,4.64,5.63,4.67,-4.71,-4.95,-5.37,0.89,0.92,0.96
98.28,5.62,4.69,5.58,4.65,-4.62,-4.99,-5.46,0.99,0.95,0.93
99.26,5.54,4.63,5.52,4.61,-4.53,-5.03,-5.55,1.01,0.99,0.91
100.25,5.40,4.52,5.42,4.54,-4.44,-5.06,-5.65,0.96,0.98,0.88
101.25,5.26,4.41,5.27,4.42,-4.36,-5.10,-5.74,0.89,0.91,0.85
102.27,5.15,4.33,5.10,4.29,-4.30,-5.14,-5.84,0.84,0.80,0.82
103.29,4.96,4.19,4.96,4.18,-4.26,-5.17,-5.94,0.70,0.70,0.77
104.32,4.83,4.08,4.89,4.14,-4.24,-5.21,-6.04,0.59,0.65,0.75
105.37,4.89,4.17,4.89,4.17,-4.25,-5.24,-6.14,0.64,0.64,0.71
106.42,4.99,4.30,4.95,4.27,-4.28,-5.28,-6.23,0.71,0.67,0.68
107.48,5.03,4.38,5.03,4.39,-4.35,-5.31,-6.33,0.68,0.68,0.64
108.56,5.09,4.48,5.10,4.50,-4.44,-5.34,-6.43,0.65,0.66,0.61
109.64,5.17,4.60,5.19,4.62,-4.57,-5.37,-6.52,0.60,0.62,0.57
110.74,5.29,4.75,5.25,4.71,-4.71,-5.40,-6.61,0.58,0.54,0.54
111.85,5.35,4.84,5.32,4.82,-4.85,-5.44,-6.70,0.50,0.47,0.51
112.97,5.33,4.87,5.42,4.96,-5.00,-5.46,-6.78,0.33,0.43,0.46
114.10,5.58,5.14,5.54,5.11,-5.15,-5.49,-6.85,0.43,0.40,0.44
115.24,5.74,5.34,5.71,5.31,-5.30,-5.52,-6.92,0.44,0.42,0.40
116.39,5.84,5.46,5.87,5.50,-5.45,-5.55,-6.99,0.39,0.42,0.37
117.55,6.01,5.66,5.94,5.60,-5.59,-5.58,-7.04,0.41,0.35,0.35
118.73,6.01,5.69,6.05,5.73,-5.72,-5.60,-7.08,0.29,0.33,0.32
119.92,6.10,5.79,6.17,5.87,-5.83,-5.63,-7.12,0.27,0.34,0.31
121.12,6.36,6.07,6.25,5.96,-5.93,-5.66,-7.14,0.43,0.32,0.29
122.33,6.34,6.07,6.33,6.06,-6.02,-5.68,-7.16,0.32,0.31,0.27
123.55,6.29,6.03,6.35,6.09,-6.10,-5.71,-7.16,0.19,0.25,0.26
124.79,6.38,6.14,6.33,6.09,-6.18,-5.73,-7.15,0.20,0.15,0.24
126.03,6.36,6.14,6.40,6.17,-6.25,-5.76,-7.14,0.11,0.15,0.22
127.29,6.46,6.25,6.51,6.31,-6.30,-5.78,-7.11,0.16,0.21,0.21
128.57,6.66,6.47,6.58,6.40,-6.35,-5.80,-7.06,0.31,0.24,0.18
129.85,6.67,6.50,6.63,6.46,-6.39,-5.83,-7.01,0.28,0.25,0.17
131.15,6.58,6.42,6.63,6.47,-6.42,-5.85,-6.95,0.15,0.20,0.16
132.46,6.58,6.43,6.59,6.44,-6.46,-5.87,-6.87,0.12,0.13,0.15
133.79,6.59,6.45,6.58,6.44,-6.48,-5.90,-6.79,0.10,0.09,0.14
135.12,6.59,6.48,6.59,6.47,-6.50,-5.92,-6.70,0.09,0.09,0.11
136.48,6.59,6.48,6.59,6.49,-6.51,-5.94,-6.60,0.08,0.08,0.11
137.84,6.60,6.51,6.60,6.51,-6.53,-5.97,-6.49,0.07,0.07,0.09
139.22,6.60,6.54,6.60,6.53,-6.54,-5.99,-6.38,0.06,0.06,0.06
140.61,6.60,6.56,6.60,6.55,-6.54,-6.02,-6.26,0.06,0.06,0.04
142.02,6.60,6.56,6.62,6.58,-6.53,-6.04,-6.14,0.07,0.09,0.04
143.44,6.60,6.57,6.60,6.58,-6.51,-6.07,-6.02,0.09,0.09,0.03
144.87,6.60,6.60,6.53,6.52,-6.48,-6.09,-5.89,0.11,0.04,-0.00
146.32,6.39,6.42,6.43,6.45,-6.47,-6.11,-5.75,-0.08,-0.05,-0.03
147.78,6.28,6.33,6.31,6.37,-6.46,-6.14,-5.62,-0.19,-0.15,-0.05
149.26,6.26,6.35,6.22,6.32,-6.45,-6.16,-5.49,-0.20,-0.23,-0.09
150.75,6.19,6.33,6.22,6.36,-6.43,-6.18,-5.35,-0.24,-0.21,-0.15
152.26,6.21,6.40,6.23,6.42,-6.38,-6.20,-5.22,-0.18,-0.16,-0.19
153.78,6.25,6.49,6.22,6.46,-6.32,-6.22,-5.08,-0.07,-0.11,-0.24
155.32,6.14,6.45,6.12,6.42,-6.25,-6.24,-4.95,-0.11,-0.13,-0.31
156.88,5.96,6.32,5.91,6.27,-6.17,-6.26,-4.81,-0.21,-0.26,-0.36
158.44,5.61,6.04,5.65,6.08,-6.08,-6.27,-4.68,-0.48,-0.43,-0.43
160.03,5.36,5.85,5.41,5.90,-5.99,-6.28,-4.55,-0.64,-0.59,-0.49
161.63,5.29,5.83,5.23,5.78,-5.91,-6.28,-4.42,-0.63,-0.69,-0.54
163.24,5.11,5.71,5.16,5.76,-5.86,-6.28,-4.29,-0.75,-0.70,-0.60
164.88,5.15,5.78,5.15,5.78,-5.84,-6.28,-4.17,-0.69,-0.69,-0.63
166.53,5.19,5.86,5.15,5.82,-5.86,-6.27,-4.05,-0.67,-0.71,-0.67
168.19,5.19,5.89,5.21,5.91,-5.90,-6.26,-3.92,-0.71,-0.69,-0.70
169.87,5.24,5.97,5.26,5.99,-5.95,-6.23,-3.81,-0.71,-0.69,-0.73
171.57,5.33,6.08,5.31,6.06,-6.00,-6.20,-3.69,-0.67,-0.68,-0.75
173.29,5.36,6.11,5.34,6.10,-6.02,-6.16,-3.58,-0.66,-0.68,-0.75
175.02,5.32,6.08,5.31,6.08,-6.01,-6.12,-3.47,-0.69,-0.70,-0.76
176.77,5.23,6.00,5.23,6.00,-5.98,-6.06,-3.36,-0.75,-0.74,-0.77
178.54,5.14,5.91,5.14,5.91,-5.92,-5.99,-3.26,-0.78,-0.78,-0.77
180.32,5.05,5.81,5.06,5.82,-5.85,-5.92,-3.15,-0.80,-0.79,-0.76
182.13,4.99,5.74,4.99,5.74,-5.78,-5.83,-3.05,-0.79,-0.79,-0.75
183.95,4.93,5.69,4.90,5.66,-5.71,-5.73,-2.96,-0.78,-0.81,-0.76
185.79,4.81,5.57,4.81,5.57,-5.62,-5.62,-2.86,-0.82,-0.81,-0.76
187.65,4.70,5.47,4.73,5.50,-5.53,-5.51,-2.77,-0.83,-0.80,-0.77
189.52,4.68,5.46,4.69,5.47,-5.43,-5.38,-2.68,-0.75,-0.74,-0.78
191.42,4.64,5.43,4.63,5.42,-5.32,-5.24,-2.59,-0.68,-0.68,-0.79
193.33,4.56,5.36,4.49,5.29,-5.19,-5.09,-2.50,-0.64,-0.71,-0.80
195.27,4.27,5.08,4.25,5.07,-5.07,-4.94,-2.42,-0.80,-0.81,-0.81
197.22,3.94,4.77,4.02,4.86,-4.93,-4.78,-2.34,-0.99,-0.91,-0.83
199.19,3.81,4.66,3.84,4.69,-4.78,-4.60,-2.26,-0.98,-0.95,-0.86
201.18,3.76,4.62,3.72,4.58,-4.63,-4.43,-2.18,-0.88,-0.92,-0.87
203.19,3.64,4.51,3.61,4.49,-4.48,-4.24,-2.10,-0.84,-0.87,-0.88
205.23,3.44,4.34,3.46,4.36,-4.32,-4.05,-2.03,-0.88,-0.86,-0.91
207.28,3.27,4.17,3.28,4.20,-4.16,-3.86,-1.95,-0.89,-0.88,-0.91
209.35,3.12,4.05,3.11,4.04,-4.01,-3.67,-1.88,-0.89,-0.90,-0.93
211.44,2.94,3.89,2.93,3.88,-3.85,-3.47,-1.82,-0.91,-0.92,-0.95
213.56,2.73,3.69,2.72,3.69,-3.68,-3.27,-1.75,-0.95,-0.96,-0.96
215.69,2.49,3.46,2.49,3.47,-3.51,-3.06,-1.68,-1.02,-1.01,-0.97
217.85,2.29,3.27,2.27,3.25,-3.33,-2.86,-1.62,-1.04,-1.06,-0.98
220.03,2.06,3.05,2.10,3.09,-3.14,-2.66,-1.55,-1.08,-1.04,-1.00
222.23,1.95,2.95,1.99,2.98,-2.96,-2.46,-1.49,-1.01,-0.97,-1.00
224.45,1.89,2.88,1.82,2.82,-2.76,-2.25,-1.43,-0.88,-0.94,-0.99
226.70,1.69,2.68,1.62,2.61,-2.56,-2.05,-1.37,-0.87,-0.95,-0.99
228.96,1.28,2.26,1.38,2.36,-2.35,-1.86,-1.32,-1.07,-0.96,-0.98
231.25,1.13,2.10,1.15,2.13,-2.12,-1.66,-1.26,-0.99,-0.96,-0.97
233.57,0.99,1.95,0.94,1.90,-1.88,-1.47,-1.20,-0.90,-0.94,-0.96
235.90,0.78,1.72,0.73,1.67,-1.65,-1.28,-1.15,-0.87,-0.91,-0.94
238.26,0.44,1.36,0.48,1.40,-1.42,-1.09,-1.10,-0.98,-0.94,-0.92
240.64,0.21,1.10,0.23,1.12,-1.20,-0.91,-1.04,-0.99,-0.97,-0.89
243.05,0.05,0.91,0.05,0.91,-0.99,-0.73,-0.99,-0.94,-0.94,-0.86
245.48,-0.09,0.74,-0.07,0.77,-0.79,-0.56,-0.94,-0.88,-0.86,-0.83
247.93,-0.14,0.67,-0.17,0.64,-0.60,-0.39,-0.89,-0.74,-0.77,-0.81
250.41,-0.29,0.50,-0.31,0.48,-0.41,-0.22,-0.84,-0.70,-0.72,-0.79
252.92,-0.48,0.28,-0.47,0.29,-0.23,-0.06,-0.79,-0.71,-0.70,-0.76
255.45,-0.69,0.04,-0.68,0.06,-0.06,0.10,-0.75,-0.76,-0.74,-0.73
258.00,-0.84,-0.12,-0.87,-0.15,0.11,0.25,-0.70,-0.73,-0.76,-0.72
260.58,-1.06,-0.36,-1.02,-0.33,0.29,0.40,-0.65,-0.77,-0.73,-0.70
263.19,-1.16,-0.49,-1.17,-0.49,0.48,0.54,-0.61,-0.68,-0.68,-0.68
265.82,-1.28,-0.62,-1.31,-0.65,0.67,0.68,-0.56,-0.61,-0.64,-0.66
268.48,-1.45,-0.82,-1.44,-0.81,0.85,0.81,-0.51,-0.60,-0.59,-0.63
271.16,-1.60,-1.00,-1.61,-1.00,1.02,0.94,-0.47,-0.58,-0.59,-0.61
273.87,-1.77,-1.18,-1.78,-1.20,1.18,1.06,-0.43,-0.59,-0.60,-0.59
276.61,-1.94,-1.38,-1.93,-1.37,1.33,1.17,-0.38,-0.61,-0.60,-0.56
279.38,-2.07,-1.54,-2.04,-1.50,1.47,1.28,-0.34,-0.60,-0.57,-0.54
282.17,-2.12,-1.60,-2.14,-1.63,1.61,1.39,-0.29,-0.51,-0.54,-0.52
284.99,-2.20,-1.72,-2.23,-1.74,1.74,1.49,-0.25,-0.46,-0.49,-0.48
287.84,-2.33,-1.88,-2.30,-1.84,1.86,1.59,-0.20,-0.47,-0.44,-0.46
290.72,-2.38,-1.96,-2.36,-1.94,1.98,1.68,-0.16,-0.40,-0.38,-0.42
293.63,-2.40,-2.01,-2.43,-2.05,2.09,1.76,-0.12,-0.31,-0.35,-0.39
296.57,-2.49,-2.14,-2.53,-2.17,2.19,1.84,-0.07,-0.30,-0.33,-0.35
299.53,-2.67,-2.34,-2.64,-2.31,2.29,1.91,-0.03,-0.38,-0.35,-0.34
302.53,-2.76,-2.45,-2.75,-2.44,2.39,1.98,0.02,-0.37,-0.35,-0.31
305.55,-2.80,-2.53,-2.79,-2.51,2.49,2.05,0.06,-0.31,-0.30,-0.27
308.61,-2.79,-2.54,-2.79,-2.54,2.56,2.10,0.10,-0.23,-0.23,-0.25
311.69,-2.78,-2.55,-2.82,-2.59,2.62,2.16,0.15,-0.16,-0.20,-0.23
314.81,-2.85,-2.66,-2.86,-2.65,2.65,2.21,0.20,-0.20,-0.21,-0.20
317.96,-2.93,-2.74,-2.91,-2.72,2.67,2.25,0.24,-0.26,-0.24,-0.19
321.14,-2.91,-2.74,-2.90,-2.73,2.67,2.29,0.29,-0.24,-0.23,-0.17
324.35,-2.87,-2.71,-2.83,-2.67,2.67,2.32,0.33,-0.20,-0.15,-0.16
327.59,-2.71,-2.57,-2.76,-2.62,2.68,2.35,0.38,-0.04,-0.09,-0.14
330.87,-2.69,-2.56,-2.76,-2.62,2.68,2.37,0.43,-0.01,-0.08,-0.13
334.18,-2.82,-2.70,-2.77,-2.64,2.68,2.39,0.48,-0.14,-0.09,-0.13
337.52,-2.84,-2.72,-2.79,-2.67,2.67,2.40,0.53,-0.17,-0.11,-0.12
340.90,-2.73,-2.63,-2.78,-2.68,2.67,2.41,0.58,-0.07,-0.12,-0.10
344.30,-2.73,-2.64,-2.75,-2.66,2.66,2.41,0.63,-0.07,-0.09,-0.09
347.75,-2.76,-2.68,-2.74,-2.66,2.64,2.40,0.68,-0.12,-0.10,-0.08
351.23,-2.73,-2.66,-2.72,-2.65,2.61,2.39,0.73,-0.12,-0.11,-0.07
354.74,-2.67,-2.60,-2.65,-2.58,2.55,2.38,0.78,-0.12,-0.10,-0.07
358.28,-2.54,-2.48,-2.56,-2.49,2.48,2.36,0.83,-0.06,-0.08,-0.07
361.87,-2.44,-2.38,-2.46,-2.40,2.39,2.33,0.89,-0.05,-0.07,-0.07
365.49,-2.38,-2.32,-2.36,-2.30,2.29,2.30,0.94,-0.09,-0.06,-0.06
369.14,-2.25,-2.19,-2.24,-2.18,2.19,2.26,1.00,-0.06,-0.05,-0.06
372.83,-2.11,-2.05,-2.12,-2.06,2.09,2.21,1.05,-0.03,-0.03,-0.06
376.56,-1.98,-1.92,-2.02,-1.96,1.98,2.16,1.11,0.00,-0.03,-0.06
380.33,-1.95,-1.91,-1.94,-1.89,1.89,2.11,1.17,-0.06,-0.05,-0.04
384.13,-1.89,-1.84,-1.87,-1.81,1.81,2.04,1.23,-0.08,-0.05,-0.05
387.97,-1.79,-1.74,-1.79,-1.74,1.74,1.97,1.28,-0.05,-0.05,-0.05
391.85,-1.69,-1.64,-1.72,-1.67,1.68,1.90,1.34,-0.01,-0.04,-0.05
395.77,-1.66,-1.62,-1.67,-1.62,1.62,1.83,1.40,-0.04,-0.05,-0.04
399.73,-1.66,-1.62,-1.64,-1.59,1.57,1.75,1.46,-0.09,-0.06,-0.05
403.72,-1.61,-1.56,-1.61,-1.56,1.53,1.67,1.52,-0.08,-0.08,-0.06
407.76,-1.56,-1.50,-1.57,-1.51,1.50,1.60,1.58,-0.06,-0.07,-0.06
411.84,-1.52,-1.47,-1.52,-1.46,1.48,1.53,1.64,-0.04,-0.04,-0.05
415.96,-1.49,-1.43,-1.50,-1.44,1.47,1.47,1.70,-0.02,-0.03,-0.06
420.12,-1.48,-1.42,-1.50,-1.45,1.47,1.43,1.75,-0.01,-0.03,-0.06
424.32,-1.53,-1.48,-1.52,-1.46,1.48,1.39,1.81,-0.06,-0.04,-0.05
428.56,-1.55,-1.50,-1.54,-1.49,1.49,1.37,1.87,-0.06,-0.05,-0.05
432.85,-1.54,-1.51,-1.56,-1.53,1.51,1.37,1.92,-0.03,-0.05,-0.03
437.18,-1.55,-1.54,-1.56,-1.55,1.53,1.38,1.98,-0.02,-0.03,-0.01
441.55,-1.57,-1.60,-1.55,-1.57,1.56,1.41,2.03,-0.01,0.01,0.03
445.96,-1.53,-1.59,-1.52,-1.58,1.58,1.44,2.08,0.05,0.06,0.06
450.42,-1.48,-1.57,-1.49,-1.59,1.60,1.48,2.12,0.12,0.10,0.09
454.93,-1.44,-1.59,-1.46,-1.60,1.61,1.53,2.17,0.17,0.15,0.15
459.48,-1.46,-1.65,-1.44,-1.63,1.62,1.58,2.21,0.16,0.18,0.19
464.07,-1.41,-1.66,-1.40,-1.64,1.63,1.62,2.25,0.22,0.23,0.25
468.71,-1.34,-1.64,-1.35,-1.64,1.64,1.67,2.29,0.30,0.30,0.30
473.40,-1.28,-1.63,-1.29,-1.64,1.66,1.71,2.32,0.38,0.36,0.35
478.13,-1.25,-1.65,-1.27,-1.66,1.67,1.74,2.35,0.42,0.40,0.40
482.91,-1.26,-1.70,-1.24,-1.68,1.68,1.78,2.37,0.41,0.43,0.43
487.74,-1.23,-1.72,-1.22,-1.70,1.69,1.81,2.39,0.45,0.47,0.48
492.62,-1.17,-1.70,-1.19,-1.71,1.70,1.83,2.41,0.53,0.51,0.52
497.55,-1.16,-1.72,-1.16,-1.72,1.72,1.85,2.42,0.56,0.56,0.55
502.52,-1.15,-1.74,-1.13,-1.71,1.74,1.87,2.43,0.59,0.61,0.58
507.55,-1.13,-1.72,-1.13,-1.73,1.76,1.88,2.44,0.63,0.63,0.59
