frequency,raw,error,smoothed,error_smoothed,equalization,parametric_eq,fixed_band_eq,equalized_raw,equalized_smoothed,target
20.00,-8.90,-12.90,-8.90,-12.90,6.00,5.91,2.80,-2.90,-2.90,4.00
20.20,-8.80,-12.80,-8.80,-12.81,6.00,5.92,2.88,-2.80,-2.80,4.00
20.40,-8.71,-12.71,-8.71,-12.71,6.00,5.92,2.96,-2.71,-2.71,4.00
20.61,-8.61,-12.62,-8.61,-12.62,6.00,5.92,3.05,-2.61,-2.61,4.01
20.81,-8.52,-12.53,-8.52,-12.53,6.00,5.93,3.13,-2.52,-2.52,4.01
21.02,-8.42,-12.43,-8.42,-12.43,6.00,5.93,3.22,-2.42,-2.42,4.01
21.23,-8.32,-12.33,-8.32,-12.33,6.00,5.94,3.32,-2.32,-2.32,4.01
21.44,-8.22,-12.24,-8.22,-12.24,6.00,5.94,3.41,-2.22,-2.22,4.02
21.66,-8.12,-12.14,-8.12,-12.14,6.00,5.94,3.51,-2.12,-2.12,4.02
21.87,-8.02,-12.04,-8.02,-12.04,6.00,5.95,3.61,-2.02,-2.02,4.02
22.09,-7.91,-11.93,-7.91,-11.93,6.00,5.95,3.71,-1.91,-1.91,4.02
22.31,-7.80,-11.83,-7.80,-11.82,6.00,5.96,3.82,-1.80,-1.80,4.03
22.54,-7.69,-11.71,-7.69,-11.71,6.00,5.96,3.93,-1.69,-1.69,4.02
22.76,-7.58,-11.61,-7.58,-11.61,6.00,5.97,4.04,-1.58,-1.58,4.03
22.99,-7.48,-11.51,-7.48,-11.50,6.00,5.97,4.15,-1.48,-1.48,4.03
23.22,-7.38,-11.41,-7.38,-11.41,6.00,5.98,4.27,-1.38,-1.38,4.03
23.45,-7.29,-11.31,-7.29,-11.31,6.00,5.98,4.39,-1.29,-1.29,4.03
23.69,-7.19,-11.22,-7.19,-11.22,6.00,5.99,4.52,-1.19,-1.19,4.02
23.92,-7.10,-11.13,-7.10,-11.12,6.00,5.99,4.64,-1.10,-1.10,4.03
24.16,-7.00,-11.02,-7.00,-11.03,6.00,6.00,4.77,-1.00,-1.00,4.02
24.40,-6.90,-10.92,-6.90,-10.92,6.00,6.00,4.90,-0.90,-0.90,4.02
24.65,-6.80,-10.82,-6.80,-10.82,6.00,6.01,5.03,-0.80,-0.80,4.02
24.89,-6.69,-10.70,-6.69,-10.70,6.00,6.02,5.16,-0.69,-0.69,4.01
25.14,-6.58,-10.59,-6.57,-10.58,6.00,6.02,5.30,-0.58,-0.57,4.01
25.39,-6.45,-10.45,-6.45,-10.45,6.00,6.03,5.43,-0.45,-0.45,4.00
25.65,-6.32,-10.32,-6.32,-10.32,6.00,6.03,5.57,-0.32,-0.32,4.00
25.91,-6.20,-10.19,-6.20,-10.19,6.00,6.04,5.71,-0.20,-0.20,3.99
26.16,-6.08,-10.07,-6.09,-10.07,6.00,6.04,5.84,-0.08,-0.09,3.99
26.43,-5.98,-9.96,-5.98,-9.96,6.00,6.05,5.98,0.02,0.02,3.98
26.69,-5.88,-9.86,-5.88,-9.86,6.00,6.05,6.11,0.12,0.12,3.98
26.96,-5.78,-9.76,-5.79,-9.76,6.00,6.06,6.25,0.22,0.21,3.98
27.23,-5.70,-9.68,-5.70,-9.67,6.00,6.06,6.38,0.30,0.30,3.98
27.50,-5.62,-9.59,-5.62,-9.59,6.00,6.06,6.50,0.38,0.38,3.96
27.77,-5.55,-9.51,-5.55,-9.52,6.00,6.07,6.63,0.45,0.45,3.96
28.05,-5.48,-9.45,-5.48,-9.45,6.00,6.07,6.74,0.52,0.52,3.97
28.33,-5.41,-9.38,-5.41,-9.38,6.00,6.07,6.85,0.59,0.59,3.97
28.62,-5.34,-9.31,-5.34,-9.31,6.00,6.08,6.96,0.66,0.66,3.97
28.90,-5.26,-9.23,-5.25,-9.22,6.00,6.08,7.05,0.74,0.75,3.97
29.19,-5.15,-9.12,-5.15,-9.12,6.00,6.08,7.14,0.85,0.85,3.97
29.48,-5.02,-8.99,-5.02,-8.99,6.00,6.08,7.22,0.98,0.98,3.97
29.78,-4.89,-8.86,-4.89,-8.86,6.00,6.08,7.29,1.11,1.11,3.97
30.08,-4.76,-8.72,-4.76,-8.72,6.00,6.08,7.34,1.24,1.24,3.96
30.38,-4.64,-8.60,-4.64,-8.59,6.00,6.08,7.39,1.36,1.36,3.95
30.68,-4.52,-8.47,-4.52,-8.47,6.00,6.08,7.42,1.48,1.48,3.95
30.99,-4.41,-8.35,-4.41,-8.36,6.00,6.08,7.44,1.59,1.59,3.94
31.30,-4.31,-8.25,-4.31,-8.25,6.00,6.08,7.44,1.69,1.69,3.94
31.61,-4.22,-8.15,-4.21,-8.15,6.00,6.07,7.43,1.78,1.79,3.93
31.93,-4.12,-8.05,-4.13,-8.05,6.00,6.07,7.41,1.88,1.87,3.93
32.24,-4.04,-7.95,-4.05,-7.96,6.00,6.06,7.38,1.96,1.95,3.92
32.57,-3.97,-7.87,-3.97,-7.88,6.00,6.05,7.33,2.03,2.03,3.90
32.89,-3.89,-7.79,-3.88,-7.78,6.00,6.04,7.27,2.11,2.12,3.90
33.22,-3.77,-7.67,-3.76,-7.65,6.00,6.03,7.20,2.23,2.24,3.90
33.55,-3.62,-7.51,-3.62,-7.51,6.00,6.02,7.12,2.38,2.38,3.89
33.89,-3.47,-7.35,-3.49,-7.37,6.00,6.01,7.03,2.53,2.51,3.88
34.23,-3.38,-7.26,-3.39,-7.26,6.00,5.99,6.93,2.62,2.61,3.88
34.57,-3.33,-7.19,-3.32,-7.19,6.00,5.98,6.82,2.67,2.68,3.86
34.92,-3.27,-7.13,-3.26,-7.12,6.00,5.96,6.71,2.73,2.74,3.86
35.27,-3.18,-7.04,-3.18,-7.04,6.00,5.94,6.59,2.82,2.82,3.86
35.62,-3.08,-6.94,-3.08,-6.94,6.00,5.91,6.47,2.92,2.92,3.86
35.97,-2.98,-6.82,-2.98,-6.83,6.00,5.89,6.34,3.02,3.02,3.84
36.33,-2.89,-6.73,-2.89,-6.74,6.00,5.86,6.21,3.11,3.11,3.84
36.70,-2.81,-6.65,-2.81,-6.64,6.00,5.84,6.08,3.19,3.19,3.84
37.06,-2.72,-6.56,-2.71,-6.55,6.01,5.80,5.94,3.29,3.29,3.84
37.43,-2.62,-6.45,-2.62,-6.45,6.02,5.77,5.81,3.40,3.40,3.83
37.81,-2.51,-6.35,-2.52,-6.36,6.03,5.74,5.67,3.52,3.51,3.84
38.19,-2.43,-6.27,-2.44,-6.27,6.03,5.70,5.53,3.60,3.59,3.84
38.57,-2.36,-6.20,-2.36,-6.19,6.01,5.66,5.40,3.65,3.65,3.84
38.95,-2.29,-6.12,-2.28,-6.11,5.97,5.61,5.26,3.68,3.69,3.83
39.34,-2.19,-6.02,-2.20,-6.03,5.91,5.57,5.13,3.72,3.71,3.83
39.74,-2.09,-5.92,-2.09,-5.91,5.83,5.52,5.00,3.74,3.74,3.83
40.14,-1.96,-5.78,-1.94,-5.77,5.74,5.47,4.87,3.78,3.80,3.82
40.54,-1.79,-5.61,-1.79,-5.61,5.64,5.41,4.74,3.85,3.85,3.82
40.94,-1.62,-5.43,-1.65,-5.46,5.53,5.36,4.62,3.91,3.89,3.81
41.35,-1.54,-5.34,-1.53,-5.33,5.42,5.30,4.49,3.88,3.89,3.80
41.76,-1.46,-5.25,-1.46,-5.25,5.30,5.24,4.37,3.84,3.84,3.79
42.18,-1.41,-5.18,-1.43,-5.21,5.18,5.17,4.26,3.77,3.74,3.77
42.60,-1.39,-5.15,-1.39,-5.15,5.07,5.10,4.14,3.68,3.68,3.76
43.03,-1.36,-5.10,-1.29,-5.04,4.97,5.03,4.03,3.61,3.68,3.74
43.46,-1.16,-4.88,-1.16,-4.88,4.88,4.96,3.92,3.72,3.72,3.72
43.90,-0.96,-4.67,-1.02,-4.73,4.78,4.88,3.81,3.82,3.76,3.70
44.33,-0.91,-4.60,-0.93,-4.61,4.69,4.80,3.71,3.78,3.76,3.69
44.78,-0.91,-4.58,-0.88,-4.55,4.58,4.72,3.61,3.67,3.70,3.67
45.23,-0.86,-4.52,-0.84,-4.50,4.47,4.64,3.51,3.61,3.63,3.66
45.68,-0.75,-4.39,-0.76,-4.41,4.37,4.55,3.42,3.61,3.60,3.64
46.13,-0.65,-4.29,-0.66,-4.29,4.26,4.46,3.33,3.61,3.61,3.64
46.60,-0.55,-4.18,-0.55,-4.18,4.16,4.37,3.24,3.61,3.61,3.63
47.06,-0.44,-4.06,-0.43,-4.06,4.05,4.28,3.15,3.61,3.62,3.63
47.53,-0.31,-3.93,-0.31,-3.93,3.94,4.18,3.06,3.63,3.63,3.62
48.01,-0.18,-3.80,-0.20,-3.82,3.83,4.09,2.98,3.65,3.64,3.62
48.49,-0.09,-3.72,-0.09,-3.71,3.73,3.99,2.90,3.64,3.64,3.63
48.97,0.00,-3.63,0.02,-3.61,3.63,3.89,2.83,3.63,3.65,3.63
49.46,0.11,-3.52,0.11,-3.52,3.55,3.78,2.75,3.66,3.66,3.63
49.96,0.22,-3.41,0.18,-3.45,3.46,3.68,2.68,3.68,3.65,3.63
50.46,0.25,-3.40,0.24,-3.40,3.38,3.57,2.61,3.63,3.63,3.65
50.96,0.27,-3.38,0.32,-3.33,3.30,3.46,2.54,3.57,3.62,3.65
51.47,0.41,-3.24,0.41,-3.24,3.21,3.35,2.47,3.62,3.62,3.65
51.99,0.56,-3.08,0.52,-3.12,3.11,3.24,2.40,3.67,3.63,3.64
52.51,0.62,-3.01,0.62,-3.01,3.01,3.13,2.34,3.63,3.63,3.63
53.03,0.69,-2.93,0.71,-2.91,2.91,3.02,2.28,3.60,3.62,3.62
53.56,0.81,-2.80,0.81,-2.80,2.80,2.90,2.22,3.61,3.61,3.61
54.10,0.93,-2.67,0.94,-2.66,2.69,2.79,2.16,3.62,3.63,3.60
54.64,1.06,-2.52,1.04,-2.54,2.57,2.67,2.10,3.63,3.62,3.58
55.18,1.14,-2.42,1.11,-2.45,2.46,2.56,2.04,3.60,3.57,3.56
55.74,1.14,-2.40,1.17,-2.37,2.35,2.44,1.98,3.49,3.51,3.54
56.29,1.21,-2.30,1.23,-2.28,2.23,2.32,1.92,3.44,3.46,3.51
56.86,1.34,-2.15,1.34,-2.14,2.12,2.20,1.87,3.46,3.46,3.49
57.42,1.47,-1.98,1.47,-1.99,2.01,2.08,1.81,3.48,3.47,3.45
58.00,1.60,-1.82,1.55,-1.87,1.90,1.97,1.76,3.50,3.45,3.42
58.58,1.60,-1.79,1.62,-1.77,1.79,1.85,1.70,3.39,3.42,3.39
59.16,1.64,-1.71,1.68,-1.67,1.69,1.73,1.64,3.33,3.37,3.35
59.76,1.77,-1.55,1.73,-1.59,1.59,1.61,1.59,3.36,3.32,3.32
60.35,1.82,-1.47,1.80,-1.49,1.48,1.49,1.53,3.30,3.28,3.29
60.96,1.82,-1.43,1.88,-1.38,1.38,1.37,1.48,3.20,3.26,3.25
61.57,1.95,-1.28,1.93,-1.29,1.27,1.26,1.42,3.22,3.20,3.23
62.18,2.05,-1.14,2.00,-1.19,1.15,1.14,1.36,3.20,3.15,3.19
62.80,2.05,-1.10,2.11,-1.05,1.03,1.02,1.30,3.08,3.13,3.16
63.43,2.19,-0.93,2.22,-0.90,0.90,0.91,1.25,3.09,3.12,3.12
64.07,2.39,-0.69,2.35,-0.74,0.77,0.79,1.19,3.16,3.11,3.08
64.71,2.47,-0.57,2.45,-0.60,0.64,0.68,1.13,3.11,3.09,3.04
65.35,2.51,-0.50,2.51,-0.50,0.51,0.57,1.07,3.02,3.02,3.01
66.01,2.51,-0.47,2.57,-0.41,0.39,0.45,1.01,2.90,2.96,2.98
66.67,2.66,-0.29,2.64,-0.31,0.28,0.34,0.94,2.94,2.93,2.95
67.33,2.77,-0.16,2.75,-0.18,0.18,0.23,0.88,2.95,2.93,2.93
68.01,2.83,-0.07,2.85,-0.05,0.09,0.12,0.82,2.92,2.94,2.90
68.69,2.92,0.04,2.90,0.02,-0.00,0.01,0.75,2.92,2.89,2.88
69.37,2.96,0.09,2.96,0.09,-0.09,-0.09,0.69,2.87,2.86,2.87
70.07,2.98,0.12,3.03,0.18,-0.19,-0.20,0.62,2.79,2.84,2.86
70.77,3.14,0.30,3.09,0.25,-0.28,-0.30,0.56,2.86,2.81,2.84
71.48,3.19,0.36,3.19,0.36,-0.37,-0.40,0.49,2.82,2.82,2.83
72.19,3.24,0.42,3.28,0.46,-0.46,-0.50,0.42,2.78,2.83,2.82
72.91,3.40,0.59,3.35,0.54,-0.54,-0.60,0.35,2.86,2.80,2.81
73.64,3.42,0.62,3.43,0.63,-0.63,-0.70,0.28,2.79,2.80,2.80
74.38,3.48,0.70,3.52,0.73,-0.71,-0.79,0.21,2.77,2.80,2.78
75.12,3.60,0.83,3.57,0.81,-0.80,-0.88,0.14,2.80,2.78,2.77
75.87,3.64,0.90,3.62,0.88,-0.87,-0.98,0.07,2.77,2.75,2.74
76.63,3.65,0.93,3.65,0.93,-0.94,-1.06,-0.00,2.71,2.71,2.72
77.40,3.67,0.96,3.69,0.99,-1.01,-1.15,-0.07,2.66,2.69,2.71
78.17,3.74,1.05,3.76,1.07,-1.07,-1.24,-0.15,2.67,2.68,2.69
78.95,3.86,1.20,3.82,1.16,-1.13,-1.32,-0.22,2.73,2.69,2.66
79.74,3.87,1.23,3.86,1.22,-1.20,-1.40,-0.30,2.67,2.67,2.64
80.54,3.87,1.25,3.87,1.25,-1.26,-1.48,-0.37,2.61,2.61,2.62
81.35,3.88,1.28,3.90,1.30,-1.33,-1.56,-0.45,2.55,2.57,2.60
82.16,3.92,1.34,3.97,1.38,-1.40,-1.63,-0.53,2.52,2.57,2.58
82.98,4.10,1.54,4.03,1.47,-1.47,-1.70,-0.61,2.63,2.56,2.56
83.81,4.10,1.55,4.09,1.54,-1.54,-1.77,-0.68,2.56,2.55,2.55
84.65,4.10,1.57,4.14,1.61,-1.61,-1.84,-0.76,2.49,2.53,2.53
85.50,4.16,1.65,4.18,1.67,-1.67,-1.91,-0.85,2.49,2.51,2.51
86.35,4.27,1.77,4.25,1.75,-1.73,-1.97,-0.93,2.54,2.52,2.50
87.22,4.33,1.84,4.31,1.82,-1.79,-2.03,-1.01,2.54,2.52,2.49
88.09,4.33,1.86,4.34,1.86,-1.84,-2.09,-1.09,2.49,2.49,2.47
88.97,4.33,1.87,4.32,1.87,-1.90,-2.15,-1.18,2.43,2.42,2.46
89.86,4.33,1.90,4.34,1.90,-1.96,-2.21,-1.26,2.37,2.38,2.43
90.76,4.35,1.93,4.39,1.98,-2.01,-2.26,-1.35,2.34,2.38,2.42
91.66,4.49,2.09,4.47,2.07,-2.06,-2.31,-1.44,2.43,2.40,2.40
92.58,4.56,2.17,4.53,2.15,-2.11,-2.36,-1.53,2.45,2.42,2.39
93.51,4.56,2.19,4.57,2.20,-2.15,-2.41,-1.62,2.41,2.42,2.37
94.44,4.56,2.21,4.57,2.21,-2.18,-2.45,-1.71,2.38,2.38,2.35
95.39,4.56,2.22,4.56,2.22,-2.21,-2.49,-1.80,2.35,2.35,2.34
96.34,4.56,2.24,4.56,2.24,-2.24,-2.53,-1.89,2.32,2.32,2.32
97.30,4.56,2.26,4.56,2.26,-2.27,-2.57,-1.98,2.29,2.29,2.30
98.28,4.56,2.28,4.55,2.27,-2.30,-2.61,-2.07,2.26,2.25,2.28
99.26,4.56,2.29,4.55,2.29,-2.34,-2.64,-2.17,2.22,2.21,2.27
100.25,4.57,2.33,4.60,2.36,-2.39,-2.68,-2.26,2.18,2.20,2.24
101.25,4.64,2.42,4.67,2.45,-2.45,-2.71,-2.35,2.19,2.21,2.22
102.27,4.79,2.60,4.74,2.55,-2.52,-2.74,-2.45,2.27,2.22,2.19
103.29,4.79,2.63,4.79,2.63,-2.58,-2.76,-2.54,2.21,2.21,2.16
104.32,4.79,2.67,4.80,2.68,-2.64,-2.79,-2.63,2.15,2.16,2.12
105.37,4.79,2.70,4.79,2.70,-2.71,-2.82,-2.72,2.08,2.08,2.09
106.42,4.79,2.74,4.79,2.75,-2.77,-2.84,-2.81,2.02,2.02,2.05
107.48,4.79,2.79,4.79,2.79,-2.82,-2.86,-2.90,1.97,1.97,2.00
108.56,4.79,2.85,4.79,2.84,-2.86,-2.88,-2.99,1.93,1.93,1.94
109.64,4.79,2.90,4.79,2.90,-2.89,-2.90,-3.07,1.90,1.91,1.89
110.74,4.79,2.94,4.81,2.96,-2.91,-2.91,-3.15,1.88,1.90,1.85
111.85,4.79,2.99,4.77,2.98,-2.93,-2.93,-3.23,1.86,1.84,1.80
112.97,4.76,3.02,4.70,2.96,-2.95,-2.94,-3.31,1.81,1.76,1.74
114.10,4.56,2.87,4.63,2.94,-2.96,-2.95,-3.38,1.60,1.67,1.69
115.24,4.56,2.92,4.57,2.92,-2.97,-2.96,-3.44,1.59,1.59,1.64
116.39,4.56,2.96,4.54,2.94,-2.99,-2.97,-3.51,1.57,1.55,1.60
117.55,4.56,3.01,4.56,3.01,-3.01,-2.98,-3.56,1.55,1.55,1.55
118.73,4.56,3.05,4.56,3.05,-3.03,-2.99,-3.61,1.53,1.53,1.51
119.92,4.56,3.08,4.56,3.08,-3.07,-2.99,-3.65,1.49,1.49,1.48
121.12,4.56,3.12,4.56,3.12,-3.12,-3.00,-3.70,1.44,1.44,1.44
122.33,4.56,3.15,4.56,3.15,-3.16,-3.00,-3.73,1.40,1.40,1.41
123.55,4.56,3.18,4.56,3.18,-3.19,-3.00,-3.75,1.37,1.37,1.38
124.79,4.56,3.21,4.56,3.21,-3.20,-3.00,-3.77,1.36,1.37,1.35
126.03,4.56,3.24,4.57,3.25,-3.20,-3.00,-3.79,1.36,1.37,1.32
127.29,4.56,3.26,4.54,3.24,-3.20,-3.00,-3.79,1.36,1.33,1.30
128.57,4.51,3.24,4.47,3.20,-3.20,-3.00,-3.79,1.31,1.27,1.27
129.85,4.35,3.11,4.40,3.15,-3.19,-2.99,-3.79,1.16,1.20,1.24
131.15,4.33,3.11,4.34,3.12,-3.18,-2.99,-3.78,1.15,1.16,1.22
132.46,4.33,3.14,4.32,3.13,-3.16,-2.98,-3.76,1.17,1.16,1.19
133.79,4.33,3.17,4.34,3.17,-3.13,-2.98,-3.73,1.20,1.20,1.16
135.12,4.32,3.18,4.30,3.17,-3.11,-2.97,-3.70,1.21,1.19,1.14
136.48,4.27,3.16,4.24,3.13,-3.10,-2.96,-3.67,1.17,1.14,1.11
137.84,4.12,3.04,4.16,3.08,-3.10,-2.95,-3.63,1.02,1.07,1.08
139.22,4.10,3.04,4.11,3.05,-3.10,-2.94,-3.59,1.00,1.01,1.06
140.61,4.10,3.07,4.09,3.06,-3.10,-2.93,-3.55,1.00,0.99,1.03
142.02,4.10,3.10,4.10,3.10,-3.11,-2.92,-3.50,0.99,0.99,1.00
143.44,4.10,3.13,4.10,3.13,-3.13,-2.91,-3.45,0.97,0.97,0.97
144.87,4.10,3.15,4.10,3.16,-3.16,-2.89,-3.40,0.94,0.94,0.95
146.32,4.10,3.19,4.10,3.19,-3.19,-2.88,-3.34,0.91,0.91,0.91
147.78,4.10,3.23,4.10,3.23,-3.22,-2.86,-3.29,0.88,0.88,0.87
149.26,4.10,3.26,4.11,3.28,-3.24,-2.85,-3.23,0.86,0.87,0.84
150.75,4.10,3.31,4.10,3.30,-3.26,-2.83,-3.18,0.84,0.83,0.79
152.26,4.09,3.34,4.04,3.30,-3.28,-2.82,-3.12,0.81,0.76,0.75
153.78,3.95,3.25,3.97,3.28,-3.30,-2.80,-3.06,0.65,0.67,0.70
155.32,3.88,3.24,3.91,3.26,-3.31,-2.78,-3.01,0.57,0.59,0.64
156.88,3.87,3.28,3.86,3.27,-3.32,-2.76,-2.95,0.55,0.55,0.59
158.44,3.87,3.32,3.88,3.33,-3.31,-2.74,-2.89,0.56,0.56,0.55
160.03,3.87,3.36,3.87,3.36,-3.31,-2.72,-2.84,0.56,0.56,0.51
161.63,3.87,3.40,3.82,3.35,-3.31,-2.70,-2.79,0.56,0.51,0.47
163.24,3.73,3.29,3.75,3.31,-3.31,-2.68,-2.74,0.42,0.44,0.44
164.88,3.65,3.24,3.68,3.28,-3.32,-2.66,-2.69,0.33,0.37,0.41
166.53,3.65,3.26,3.64,3.25,-3.32,-2.64,-2.64,0.33,0.32,0.39
168.19,3.65,3.28,3.64,3.27,-3.31,-2.62,-2.59,0.34,0.33,0.37
169.87,3.65,3.29,3.65,3.29,-3.29,-2.59,-2.55,0.36,0.36,0.36
171.57,3.65,3.29,3.67,3.31,-3.26,-2.57,-2.50,0.39,0.41,0.36
173.29,3.65,3.28,3.64,3.28,-3.22,-2.55,-2.46,0.43,0.43,0.37
175.02,3.65,3.28,3.59,3.22,-3.17,-2.52,-2.42,0.48,0.42,0.37
176.77,3.46,3.08,3.52,3.13,-3.11,-2.50,-2.38,0.35,0.41,0.38
178.54,3.42,3.02,3.42,3.02,-3.04,-2.48,-2.35,0.38,0.38,0.40
180.32,3.34,2.93,3.31,2.90,-2.96,-2.45,-2.31,0.38,0.35,0.41
182.13,3.24,2.81,3.26,2.83,-2.88,-2.43,-2.28,0.36,0.38,0.43
183.95,3.19,2.76,3.22,2.79,-2.80,-2.40,-2.25,0.39,0.42,0.43
185.79,3.19,2.75,3.18,2.74,-2.73,-2.37,-2.22,0.46,0.45,0.44
187.65,3.19,2.75,3.12,2.68,-2.66,-2.35,-2.20,0.53,0.47,0.44
189.52,3.01,2.57,3.06,2.62,-2.60,-2.32,-2.17,0.41,0.46,0.44
191.42,2.96,2.52,2.99,2.55,-2.55,-2.30,-2.15,0.41,0.44,0.44
193.33,2.96,2.53,2.91,2.48,-2.50,-2.27,-2.13,0.46,0.41,0.43
195.27,2.86,2.44,2.85,2.43,-2.44,-2.24,-2.11,0.42,0.41,0.42
197.22,2.76,2.34,2.80,2.38,-2.39,-2.22,-2.09,0.37,0.41,0.42
199.19,2.74,2.33,2.75,2.34,-2.34,-2.19,-2.07,0.40,0.41,0.41
201.18,2.74,2.34,2.71,2.31,-2.30,-2.16,-2.06,0.44,0.41,0.40
203.19,2.69,2.30,2.66,2.27,-2.26,-2.14,-2.05,0.43,0.40,0.39
205.23,2.57,2.19,2.59,2.22,-2.22,-2.11,-2.03,0.35,0.37,0.38
207.28,2.51,2.15,2.55,2.18,-2.18,-2.08,-2.02,0.33,0.37,0.36
209.35,2.51,2.17,2.50,2.16,-2.13,-2.06,-2.01,0.38,0.37,0.34
211.44,2.51,2.18,2.45,2.12,-2.10,-2.03,-2.00,0.41,0.35,0.33
213.56,2.35,2.04,2.38,2.06,-2.07,-2.00,-1.99,0.28,0.31,0.31
215.69,2.28,1.98,2.31,2.01,-2.05,-1.98,-1.98,0.23,0.26,0.30
217.85,2.28,1.99,2.27,1.98,-2.03,-1.95,-1.97,0.25,0.24,0.29
220.03,2.28,2.00,2.27,2.00,-2.01,-1.92,-1.96,0.27,0.26,0.28
222.23,2.28,2.02,2.30,2.03,-2.00,-1.89,-1.95,0.28,0.30,0.26
224.45,2.28,2.03,2.28,2.03,-1.98,-1.87,-1.94,0.30,0.30,0.25
226.70,2.28,2.04,2.23,1.99,-1.96,-1.84,-1.93,0.32,0.27,0.24
228.96,2.12,1.89,2.16,1.93,-1.93,-1.81,-1.92,0.19,0.23,0.23
231.25,2.07,1.86,2.10,1.88,-1.89,-1.79,-1.91,0.18,0.21,0.21
233.57,2.05,1.84,2.05,1.84,-1.85,-1.76,-1.90,0.20,0.20,0.21
235.90,2.05,1.85,2.01,1.81,-1.80,-1.73,-1.89,0.25,0.20,0.20
238.26,1.94,1.76,1.94,1.75,-1.76,-1.70,-1.87,0.18,0.18,0.18
240.64,1.84,1.66,1.87,1.69,-1.73,-1.68,-1.86,0.11,0.15,0.18
243.05,1.82,1.65,1.82,1.65,-1.69,-1.65,-1.84,0.13,0.13,0.17
245.48,1.82,1.65,1.82,1.65,-1.66,-1.62,-1.82,0.16,0.16,0.17
247.93,1.82,1.66,1.83,1.67,-1.62,-1.60,-1.80,0.20,0.21,0.16
250.41,1.82,1.66,1.80,1.65,-1.59,-1.57,-1.78,0.23,0.21,0.16
252.92,1.78,1.63,1.74,1.59,-1.56,-1.54,-1.76,0.22,0.18,0.15
255.45,1.63,1.48,1.67,1.52,-1.54,-1.52,-1.74,0.09,0.13,0.15
258.00,1.60,1.46,1.61,1.47,-1.53,-1.49,-1.71,0.07,0.08,0.14
260.58,1.60,1.46,1.59,1.45,-1.51,-1.47,-1.68,0.09,0.08,0.14
263.19,1.60,1.48,1.60,1.47,-1.48,-1.44,-1.66,0.12,0.11,0.12
265.82,1.60,1.48,1.61,1.49,-1.45,-1.41,-1.63,0.15,0.15,0.12
268.48,1.60,1.48,1.61,1.50,-1.43,-1.39,-1.59,0.17,0.18,0.12
271.16,1.60,1.50,1.57,1.46,-1.41,-1.36,-1.56,0.19,0.15,0.10
273.87,1.51,1.41,1.50,1.40,-1.40,-1.34,-1.53,0.11,0.10,0.10
276.61,1.39,1.30,1.43,1.34,-1.38,-1.31,-1.49,0.01,0.05,0.09
279.38,1.37,1.29,1.37,1.29,-1.35,-1.28,-1.46,0.02,0.02,0.08
282.17,1.37,1.29,1.36,1.28,-1.32,-1.26,-1.42,0.05,0.04,0.08
284.99,1.37,1.30,1.38,1.30,-1.28,-1.23,-1.38,0.09,0.10,0.07
287.84,1.37,1.30,1.38,1.30,-1.24,-1.21,-1.34,0.13,0.14,0.07
290.72,1.37,1.30,1.33,1.26,-1.21,-1.18,-1.31,0.16,0.12,0.07
293.63,1.26,1.19,1.26,1.19,-1.19,-1.16,-1.27,0.07,0.07,0.07
296.57,1.15,1.09,1.19,1.13,-1.17,-1.13,-1.23,-0.02,0.02,0.06
299.53,1.14,1.08,1.14,1.08,-1.15,-1.11,-1.19,-0.01,-0.01,0.06
302.53,1.14,1.09,1.13,1.08,-1.12,-1.08,-1.15,0.02,0.01,0.05
305.55,1.14,1.09,1.14,1.09,-1.09,-1.06,-1.11,0.05,0.05,0.05
308.61,1.14,1.10,1.15,1.11,-1.07,-1.03,-1.07,0.07,0.09,0.04
311.69,1.14,1.11,1.14,1.11,-1.05,-1.01,-1.03,0.09,0.10,0.03
314.81,1.14,1.12,1.09,1.07,-1.03,-0.98,-0.99,0.11,0.06,0.02
317.96,1.00,0.99,1.02,1.01,-1.01,-0.96,-0.95,-0.01,0.00,0.01
321.14,0.91,0.93,0.95,0.96,-1.00,-0.93,-0.91,-0.09,-0.05,-0.02
324.35,0.91,0.94,0.90,0.93,-0.98,-0.91,-0.87,-0.07,-0.08,-0.03
327.59,0.91,0.95,0.90,0.94,-0.97,-0.88,-0.83,-0.06,-0.07,-0.04
330.87,0.91,0.96,0.91,0.96,-0.97,-0.86,-0.79,-0.06,-0.06,-0.05
334.18,0.91,0.97,0.91,0.97,-0.97,-0.83,-0.75,-0.06,-0.06,-0.06
337.52,0.91,0.98,0.91,0.98,-0.98,-0.81,-0.71,-0.07,-0.07,-0.07
340.90,0.91,0.99,0.91,0.99,-0.99,-0.78,-0.68,-0.08,-0.08,-0.08
344.30,0.91,1.00,0.92,1.00,-0.99,-0.75,-0.64,-0.08,-0.07,-0.09
347.75,0.91,1.00,0.92,1.00,-0.98,-0.73,-0.60,-0.07,-0.06,-0.09
351.23,0.91,1.00,0.87,0.97,-0.94,-0.70,-0.57,-0.03,-0.07,-0.09
354.74,0.81,0.90,0.82,0.91,-0.89,-0.68,-0.53,-0.08,-0.07,-0.09
358.28,0.70,0.79,0.73,0.82,-0.81,-0.65,-0.49,-0.11,-0.08,-0.09
361.87,0.68,0.76,0.64,0.73,-0.72,-0.62,-0.46,-0.04,-0.08,-0.08
365.49,0.52,0.61,0.54,0.63,-0.61,-0.60,-0.42,-0.08,-0.06,-0.09
369.14,0.44,0.53,0.43,0.52,-0.49,-0.57,-0.39,-0.05,-0.06,-0.09
372.83,0.29,0.38,0.29,0.37,-0.38,-0.54,-0.35,-0.09,-0.09,-0.09
376.56,0.18,0.26,0.16,0.25,-0.28,-0.52,-0.32,-0.10,-0.12,-0.08
380.33,0.03,0.11,0.06,0.14,-0.20,-0.49,-0.29,-0.17,-0.14,-0.08
384.13,0.00,0.08,0.01,0.09,-0.14,-0.46,-0.25,-0.14,-0.13,-0.08
387.97,0.00,0.08,-0.01,0.07,-0.09,-0.43,-0.22,-0.09,-0.11,-0.08
391.85,0.00,0.08,-0.00,0.08,-0.07,-0.40,-0.19,-0.07,-0.07,-0.08
395.77,0.00,0.08,-0.00,0.08,-0.06,-0.37,-0.16,-0.06,-0.06,-0.08
399.73,0.00,0.08,0.00,0.08,-0.07,-0.35,-0.12,-0.07,-0.07,-0.08
403.72,0.00,0.08,0.00,0.08,-0.08,-0.32,-0.09,-0.08,-0.08,-0.08
407.76,0.00,0.08,0.00,0.08,-0.08,-0.29,-0.06,-0.08,-0.08,-0.08
411.84,0.00,0.08,0.00,0.08,-0.07,-0.25,-0.03,-0.07,-0.07,-0.08
415.96,0.00,0.08,0.01,0.09,-0.05,-0.22,-0.00,-0.05,-0.04,-0.08
420.12,0.00,0.08,-0.01,0.07,-0.02,-0.19,0.02,-0.02,-0.03,-0.08
424.32,-0.02,0.06,-0.07,0.01,0.01,-0.16,0.05,-0.01,-0.05,-0.08
428.56,-0.17,-0.09,-0.14,-0.06,0.04,-0.13,0.08,-0.13,-0.09,-0.08
432.85,-0.23,-0.15,-0.20,-0.12,0.08,-0.10,0.11,-0.15,-0.13,-0.08
437.18,-0.23,-0.15,-0.24,-0.16,0.10,-0.06,0.13,-0.13,-0.14,-0.08
441.55,-0.23,-0.14,-0.24,-0.15,0.13,-0.03,0.16,-0.10,-0.11,-0.09
445.96,-0.23,-0.14,-0.23,-0.14,0.14,0.00,0.18,-0.09,-0.09,-0.09
450.42,-0.23,-0.14,-0.23,-0.13,0.15,0.04,0.20,-0.08,-0.08,-0.09
454.93,-0.23,-0.14,-0.23,-0.13,0.14,0.07,0.23,-0.09,-0.09,-0.09
459.48,-0.23,-0.13,-0.23,-0.13,0.13,0.11,0.25,-0.10,-0.10,-0.10
464.07,-0.23,-0.13,-0.23,-0.13,0.12,0.14,0.26,-0.11,-0.11,-0.10
468.71,-0.23,-0.13,-0.23,-0.13,0.12,0.17,0.28,-0.11,-0.11,-0.10
473.40,-0.23,-0.13,-0.23,-0.14,0.13,0.21,0.30,-0.10,-0.10,-0.10
478.13,-0.23,-0.13,-0.22,-0.13,0.15,0.24,0.31,-0.08,-0.07,-0.10
482.91,-0.23,-0.14,-0.22,-0.13,0.18,0.27,0.33,-0.05,-0.04,-0.09
487.74,-0.23,-0.14,-0.26,-0.17,0.22,0.31,0.34,-0.01,-0.04,-0.09
492.62,-0.31,-0.23,-0.32,-0.24,0.26,0.34,0.35,-0.05,-0.07,-0.08
497.55,-0.43,-0.35,-0.40,-0.32,0.30,0.37,0.36,-0.13,-0.10,-0.08
502.52,-0.46,-0.39,-0.45,-0.38,0.33,0.40,0.37,-0.13,-0.12,-0.07
507.55,-0.46,-0.40,-0.47,-0.41,0.37,0.42,0.38,-0.09,-0.10,-0.06
512.62,-0.46,-0.40,-0.46,-0.41,0.40,0.45,0.38,-0.06,-0.07,-0.06
517.75,-0.46,-0.41,-0.46,-0.41,0.42,0.47,0.39,-0.04,-0.04,-0.05
