frequency,raw,error,smoothed,error_smoothed,equalization,parametric_eq,fixed_band_eq,equalized_raw,equalized_smoothed,target
20.00,2.75,0.73,2.75,0.73,-0.72,-0.08,-0.22,2.03,2.03,2.02
20.20,2.70,0.69,2.70,0.68,-0.67,-0.09,-0.23,2.03,2.02,2.01
20.40,2.64,0.63,2.65,0.63,-0.64,-0.09,-0.23,2.00,2.01,2.01
20.61,2.60,0.60,2.60,0.60,-0.60,-0.09,-0.24,2.00,2.00,2.00
20.81,2.57,0.57,2.56,0.56,-0.57,-0.09,-0.25,2.00,1.99,2.00
21.02,2.53,0.53,2.53,0.54,-0.55,-0.10,-0.25,1.98,1.99,2.00
21.23,2.50,0.52,2.50,0.52,-0.53,-0.10,-0.26,1.97,1.97,1.98
21.44,2.47,0.51,2.47,0.50,-0.51,-0.11,-0.27,1.96,1.96,1.96
21.66,2.44,0.50,2.44,0.50,-0.50,-0.11,-0.28,1.94,1.94,1.94
21.87,2.41,0.50,2.41,0.50,-0.50,-0.11,-0.28,1.91,1.92,1.91
22.09,2.39,0.50,2.39,0.49,-0.49,-0.12,-0.29,1.89,1.89,1.89
22.31,2.36,0.49,2.36,0.49,-0.49,-0.12,-0.30,1.86,1.87,1.87
22.54,2.33,0.49,2.33,0.49,-0.49,-0.12,-0.31,1.84,1.84,1.84
22.76,2.31,0.50,2.30,0.49,-0.49,-0.13,-0.32,1.82,1.81,1.81
22.99,2.27,0.49,2.27,0.49,-0.48,-0.13,-0.33,1.79,1.79,1.78
23.22,2.23,0.48,2.24,0.48,-0.47,-0.14,-0.33,1.76,1.76,1.75
23.45,2.20,0.47,2.20,0.47,-0.46,-0.14,-0.34,1.74,1.73,1.73
23.69,2.16,0.45,2.16,0.45,-0.45,-0.15,-0.35,1.71,1.71,1.71
23.92,2.12,0.43,2.12,0.43,-0.43,-0.15,-0.36,1.69,1.69,1.69
24.16,2.09,0.41,2.08,0.41,-0.41,-0.16,-0.37,1.68,1.67,1.68
24.40,2.04,0.38,2.05,0.39,-0.40,-0.17,-0.38,1.64,1.65,1.66
24.65,2.01,0.37,2.01,0.37,-0.38,-0.17,-0.39,1.63,1.63,1.64
24.89,1.98,0.36,1.98,0.36,-0.37,-0.18,-0.40,1.61,1.61,1.62
25.14,1.95,0.35,1.95,0.35,-0.35,-0.18,-0.41,1.60,1.59,1.60
25.39,1.92,0.34,1.92,0.34,-0.34,-0.19,-0.42,1.58,1.58,1.58
25.65,1.89,0.33,1.89,0.33,-0.33,-0.20,-0.43,1.56,1.56,1.56
25.91,1.87,0.34,1.87,0.33,-0.32,-0.21,-0.44,1.55,1.54,1.53
26.16,1.84,0.32,1.84,0.32,-0.31,-0.21,-0.45,1.53,1.53,1.52
26.43,1.81,0.31,1.81,0.31,-0.30,-0.22,-0.46,1.51,1.51,1.50
26.69,1.78,0.29,1.78,0.29,-0.29,-0.23,-0.47,1.49,1.49,1.49
26.96,1.75,0.28,1.75,0.28,-0.28,-0.24,-0.48,1.47,1.47,1.47
27.23,1.72,0.26,1.72,0.26,-0.26,-0.25,-0.49,1.46,1.45,1.46
27.50,1.69,0.25,1.69,0.25,-0.25,-0.26,-0.50,1.44,1.44,1.44
27.77,1.66,0.24,1.66,0.24,-0.24,-0.27,-0.51,1.42,1.42,1.42
28.05,1.64,0.23,1.64,0.24,-0.23,-0.28,-0.52,1.41,1.40,1.41
28.33,1.61,0.23,1.62,0.23,-0.23,-0.29,-0.53,1.38,1.39,1.38
28.62,1.60,0.23,1.60,0.23,-0.22,-0.30,-0.53,1.38,1.37,1.37
28.90,1.58,0.21,1.58,0.22,-0.22,-0.31,-0.54,1.36,1.36,1.37
29.19,1.56,0.21,1.57,0.22,-0.22,-0.32,-0.55,1.34,1.35,1.35
29.48,1.56,0.22,1.56,0.22,-0.22,-0.34,-0.55,1.34,1.33,1.34
29.78,1.55,0.23,1.55,0.22,-0.23,-0.35,-0.56,1.32,1.32,1.32
30.08,1.54,0.23,1.54,0.23,-0.23,-0.36,-0.56,1.31,1.31,1.31
30.38,1.53,0.24,1.53,0.24,-0.24,-0.38,-0.57,1.29,1.29,1.29
30.68,1.53,0.26,1.53,0.26,-0.25,-0.39,-0.57,1.28,1.28,1.27
30.99,1.52,0.27,1.52,0.27,-0.26,-0.41,-0.57,1.26,1.26,1.25
31.30,1.51,0.27,1.51,0.27,-0.27,-0.43,-0.57,1.24,1.24,1.24
31.61,1.50,0.27,1.50,0.28,-0.28,-0.44,-0.57,1.22,1.22,1.23
31.93,1.49,0.29,1.49,0.29,-0.30,-0.46,-0.57,1.19,1.20,1.20
32.24,1.48,0.31,1.48,0.31,-0.31,-0.48,-0.57,1.17,1.17,1.17
32.57,1.49,0.34,1.48,0.33,-0.33,-0.50,-0.57,1.16,1.15,1.15
32.89,1.48,0.34,1.49,0.35,-0.35,-0.52,-0.57,1.13,1.13,1.14
33.22,1.50,0.39,1.49,0.38,-0.38,-0.54,-0.57,1.12,1.11,1.11
33.55,1.50,0.40,1.50,0.41,-0.41,-0.56,-0.56,1.09,1.09,1.10
33.89,1.51,0.44,1.52,0.44,-0.45,-0.58,-0.56,1.06,1.07,1.07
34.23,1.53,0.48,1.53,0.48,-0.48,-0.60,-0.55,1.05,1.05,1.05
34.57,1.55,0.53,1.55,0.52,-0.51,-0.62,-0.55,1.04,1.03,1.02
34.92,1.56,0.56,1.56,0.55,-0.55,-0.64,-0.54,1.01,1.01,1.00
35.27,1.57,0.58,1.57,0.59,-0.58,-0.67,-0.54,0.99,0.99,0.99
35.62,1.58,0.61,1.58,0.62,-0.62,-0.69,-0.53,0.96,0.96,0.97
35.97,1.59,0.66,1.59,0.65,-0.65,-0.71,-0.52,0.94,0.94,0.93
36.33,1.60,0.68,1.60,0.68,-0.68,-0.73,-0.51,0.92,0.92,0.92
36.70,1.60,0.70,1.60,0.71,-0.71,-0.75,-0.51,0.89,0.90,0.90
37.06,1.61,0.74,1.61,0.73,-0.73,-0.77,-0.50,0.88,0.88,0.87
37.43,1.62,0.76,1.62,0.76,-0.76,-0.79,-0.49,0.86,0.85,0.86
37.81,1.62,0.79,1.62,0.79,-0.79,-0.81,-0.48,0.83,0.83,0.83
38.19,1.63,0.82,1.63,0.81,-0.82,-0.82,-0.48,0.81,0.81,0.81
38.57,1.63,0.83,1.63,0.84,-0.85,-0.84,-0.47,0.78,0.79,0.80
38.95,1.64,0.87,1.64,0.87,-0.87,-0.85,-0.46,0.77,0.77,0.77
39.34,1.65,0.90,1.65,0.90,-0.90,-0.87,-0.45,0.75,0.75,0.75
39.74,1.65,0.93,1.65,0.92,-0.92,-0.88,-0.45,0.73,0.73,0.72
40.14,1.64,0.93,1.65,0.94,-0.94,-0.88,-0.44,0.70,0.71,0.71
40.54,1.64,0.96,1.64,0.96,-0.95,-0.89,-0.43,0.69,0.69,0.68
40.94,1.64,0.97,1.63,0.97,-0.97,-0.89,-0.43,0.67,0.67,0.67
41.35,1.62,0.97,1.62,0.98,-0.97,-0.89,-0.42,0.65,0.65,0.65
41.76,1.61,0.98,1.61,0.98,-0.97,-0.89,-0.41,0.64,0.63,0.63
42.18,1.59,0.97,1.59,0.98,-0.97,-0.89,-0.41,0.62,0.62,0.62
42.60,1.57,0.98,1.57,0.97,-0.97,-0.88,-0.40,0.60,0.60,0.59
43.03,1.54,0.95,1.54,0.96,-0.97,-0.88,-0.40,0.57,0.58,0.59
43.46,1.51,0.95,1.51,0.95,-0.96,-0.87,-0.39,0.55,0.56,0.56
43.90,1.49,0.96,1.48,0.95,-0.95,-0.86,-0.38,0.54,0.53,0.53
44.33,1.45,0.94,1.45,0.94,-0.94,-0.84,-0.38,0.51,0.51,0.51
44.78,1.41,0.92,1.41,0.93,-0.92,-0.83,-0.38,0.49,0.49,0.49
45.23,1.38,0.91,1.38,0.91,-0.91,-0.81,-0.37,0.47,0.47,0.47
45.68,1.34,0.89,1.34,0.89,-0.89,-0.79,-0.37,0.45,0.45,0.45
46.13,1.31,0.88,1.31,0.88,-0.87,-0.78,-0.36,0.43,0.43,0.42
46.60,1.27,0.85,1.27,0.86,-0.86,-0.76,-0.36,0.41,0.42,0.42
47.06,1.24,0.84,1.24,0.84,-0.84,-0.74,-0.36,0.40,0.40,0.40
47.53,1.20,0.81,1.20,0.81,-0.82,-0.72,-0.35,0.38,0.38,0.39
48.01,1.17,0.80,1.17,0.80,-0.80,-0.70,-0.35,0.37,0.36,0.37
48.49,1.13,0.79,1.13,0.78,-0.79,-0.68,-0.35,0.34,0.34,0.34
48.97,1.09,0.77,1.09,0.77,-0.77,-0.66,-0.35,0.32,0.32,0.32
49.46,1.05,0.76,1.05,0.76,-0.76,-0.64,-0.34,0.29,0.29,0.29
49.96,1.01,0.75,1.01,0.75,-0.74,-0.62,-0.34,0.27,0.27,0.26
50.46,0.98,0.73,0.98,0.73,-0.73,-0.60,-0.34,0.25,0.25,0.25
50.96,0.94,0.71,0.94,0.72,-0.71,-0.58,-0.34,0.23,0.23,0.23
51.47,0.90,0.70,0.90,0.69,-0.69,-0.57,-0.34,0.21,0.21,0.20
51.99,0.85,0.67,0.85,0.67,-0.67,-0.55,-0.34,0.18,0.18,0.18
52.51,0.81,0.64,0.81,0.64,-0.65,-0.53,-0.34,0.16,0.16,0.17
53.03,0.77,0.62,0.77,0.62,-0.63,-0.52,-0.34,0.14,0.14,0.15
53.56,0.74,0.62,0.74,0.61,-0.61,-0.50,-0.33,0.13,0.13,0.12
54.10,0.70,0.60,0.70,0.59,-0.59,-0.48,-0.33,0.11,0.11,0.10
54.64,0.65,0.57,0.66,0.58,-0.57,-0.47,-0.33,0.08,0.09,0.08
55.18,0.62,0.56,0.62,0.55,-0.55,-0.45,-0.33,0.07,0.06,0.06
55.74,0.58,0.54,0.58,0.54,-0.54,-0.44,-0.33,0.04,0.04,0.04
56.29,0.54,0.52,0.54,0.52,-0.52,-0.43,-0.33,0.02,0.02,0.02
56.86,0.50,0.50,0.50,0.50,-0.50,-0.42,-0.34,0.00,0.00,-0.00
57.42,0.46,0.48,0.46,0.48,-0.48,-0.40,-0.34,-0.02,-0.02,-0.02
58.00,0.42,0.45,0.42,0.45,-0.45,-0.39,-0.34,-0.03,-0.03,-0.03
58.58,0.38,0.43,0.38,0.43,-0.43,-0.38,-0.34,-0.05,-0.05,-0.05
59.16,0.35,0.41,0.35,0.41,-0.41,-0.37,-0.34,-0.06,-0.07,-0.06
59.76,0.31,0.39,0.31,0.39,-0.40,-0.36,-0.34,-0.09,-0.09,-0.08
60.35,0.27,0.38,0.27,0.38,-0.38,-0.35,-0.34,-0.11,-0.11,-0.11
60.96,0.23,0.35,0.23,0.36,-0.37,-0.34,-0.34,-0.14,-0.13,-0.12
61.57,0.20,0.36,0.20,0.35,-0.35,-0.34,-0.34,-0.15,-0.15,-0.16
62.18,0.16,0.34,0.16,0.34,-0.34,-0.33,-0.34,-0.18,-0.18,-0.18
62.80,0.13,0.33,0.13,0.33,-0.32,-0.32,-0.34,-0.19,-0.20,-0.20
63.43,0.09,0.32,0.09,0.31,-0.31,-0.31,-0.34,-0.22,-0.22,-0.23
64.07,0.05,0.29,0.05,0.30,-0.29,-0.31,-0.35,-0.24,-0.24,-0.24
64.71,0.02,0.28,0.02,0.28,-0.28,-0.30,-0.35,-0.26,-0.26,-0.26
65.35,-0.02,0.26,-0.02,0.26,-0.26,-0.30,-0.35,-0.28,-0.28,-0.28
66.01,-0.06,0.24,-0.06,0.24,-0.24,-0.29,-0.35,-0.30,-0.30,-0.30
66.67,-0.09,0.23,-0.09,0.22,-0.23,-0.28,-0.35,-0.32,-0.32,-0.32
67.33,-0.12,0.22,-0.12,0.21,-0.21,-0.28,-0.35,-0.33,-0.33,-0.34
68.01,-0.16,0.20,-0.16,0.20,-0.20,-0.28,-0.35,-0.36,-0.35,-0.36
68.69,-0.19,0.19,-0.19,0.18,-0.18,-0.27,-0.36,-0.37,-0.37,-0.38
69.37,-0.23,0.17,-0.23,0.17,-0.17,-0.27,-0.36,-0.40,-0.40,-0.40
70.07,-0.26,0.16,-0.26,0.16,-0.16,-0.26,-0.36,-0.42,-0.42,-0.42
70.77,-0.29,0.14,-0.29,0.14,-0.15,-0.26,-0.36,-0.44,-0.44,-0.43
71.48,-0.32,0.13,-0.32,0.13,-0.14,-0.26,-0.37,-0.46,-0.46,-0.45
72.19,-0.36,0.12,-0.35,0.13,-0.13,-0.25,-0.37,-0.49,-0.48,-0.48
72.91,-0.38,0.13,-0.39,0.12,-0.12,-0.25,-0.37,-0.50,-0.51,-0.51
73.64,-0.42,0.12,-0.42,0.12,-0.11,-0.25,-0.37,-0.53,-0.53,-0.54
74.38,-0.45,0.10,-0.45,0.11,-0.10,-0.25,-0.38,-0.55,-0.55,-0.55
75.12,-0.48,0.10,-0.48,0.10,-0.10,-0.25,-0.38,-0.58,-0.58,-0.58
75.87,-0.51,0.10,-0.51,0.09,-0.09,-0.25,-0.38,-0.60,-0.60,-0.61
76.63,-0.55,0.07,-0.55,0.08,-0.08,-0.24,-0.39,-0.63,-0.63,-0.62
77.40,-0.58,0.07,-0.58,0.07,-0.08,-0.24,-0.39,-0.66,-0.65,-0.65
78.17,-0.61,0.08,-0.61,0.07,-0.07,-0.24,-0.40,-0.68,-0.68,-0.69
78.95,-0.64,0.07,-0.64,0.07,-0.07,-0.24,-0.40,-0.71,-0.71,-0.71
79.74,-0.67,0.06,-0.67,0.06,-0.06,-0.24,-0.41,-0.73,-0.73,-0.73
80.54,-0.70,0.06,-0.70,0.06,-0.06,-0.24,-0.41,-0.76,-0.76,-0.76
81.35,-0.73,0.06,-0.73,0.06,-0.06,-0.24,-0.42,-0.79,-0.79,-0.79
82.16,-0.75,0.07,-0.75,0.06,-0.06,-0.24,-0.43,-0.81,-0.81,-0.82
82.98,-0.78,0.06,-0.78,0.07,-0.06,-0.24,-0.43,-0.84,-0.84,-0.84
83.81,-0.81,0.07,-0.81,0.07,-0.06,-0.24,-0.44,-0.87,-0.88,-0.88
84.65,-0.85,0.07,-0.85,0.07,-0.07,-0.24,-0.45,-0.92,-0.91,-0.92
85.50,-0.88,0.06,-0.88,0.07,-0.07,-0.25,-0.45,-0.95,-0.95,-0.94
86.35,-0.90,0.07,-0.91,0.07,-0.07,-0.25,-0.46,-0.97,-0.98,-0.97
87.22,-0.94,0.07,-0.93,0.07,-0.07,-0.25,-0.47,-1.01,-1.01,-1.01
88.09,-0.96,0.08,-0.96,0.08,-0.08,-0.25,-0.48,-1.04,-1.04,-1.04
88.97,-0.99,0.08,-0.99,0.08,-0.08,-0.25,-0.49,-1.07,-1.07,-1.07
89.86,-1.02,0.07,-1.02,0.08,-0.08,-0.26,-0.50,-1.10,-1.10,-1.09
90.76,-1.05,0.09,-1.05,0.09,-0.09,-0.26,-0.51,-1.14,-1.13,-1.14
91.66,-1.07,0.10,-1.07,0.10,-0.09,-0.26,-0.52,-1.16,-1.17,-1.17
92.58,-1.10,0.11,-1.10,0.10,-0.10,-0.26,-0.53,-1.20,-1.20,-1.21
93.51,-1.13,0.10,-1.13,0.11,-0.11,-0.27,-0.54,-1.24,-1.24,-1.23
94.44,-1.15,0.12,-1.15,0.12,-0.12,-0.27,-0.55,-1.27,-1.27,-1.27
95.39,-1.18,0.13,-1.18,0.13,-0.13,-0.27,-0.56,-1.31,-1.31,-1.31
96.34,-1.21,0.14,-1.21,0.15,-0.15,-0.28,-0.57,-1.36,-1.35,-1.35
97.30,-1.23,0.16,-1.23,0.16,-0.16,-0.28,-0.58,-1.39,-1.39,-1.39
98.28,-1.25,0.18,-1.25,0.18,-0.18,-0.29,-0.60,-1.43,-1.43,-1.43
99.26,-1.28,0.19,-1.28,0.19,-0.19,-0.29,-0.61,-1.47,-1.47,-1.47
100.25,-1.30,0.21,-1.30,0.21,-0.21,-0.30,-0.62,-1.51,-1.51,-1.51
101.25,-1.32,0.23,-1.32,0.23,-0.23,-0.30,-0.63,-1.55,-1.55,-1.55
102.27,-1.34,0.25,-1.34,0.25,-0.25,-0.31,-0.65,-1.59,-1.59,-1.59
103.29,-1.37,0.28,-1.37,0.27,-0.27,-0.32,-0.66,-1.64,-1.64,-1.65
104.32,-1.39,0.29,-1.39,0.30,-0.29,-0.32,-0.67,-1.68,-1.68,-1.68
105.37,-1.40,0.33,-1.41,0.31,-0.32,-0.33,-0.69,-1.72,-1.72,-1.73
106.42,-1.43,0.34,-1.43,0.34,-0.34,-0.34,-0.70,-1.77,-1.77,-1.77
107.48,-1.45,0.36,-1.45,0.37,-0.37,-0.34,-0.71,-1.82,-1.81,-1.81
108.56,-1.46,0.40,-1.47,0.39,-0.40,-0.35,-0.73,-1.86,-1.86,-1.86
109.64,-1.48,0.42,-1.48,0.42,-0.43,-0.36,-0.74,-1.91,-1.91,-1.90
110.74,-1.50,0.45,-1.50,0.46,-0.46,-0.37,-0.75,-1.96,-1.95,-1.95
111.85,-1.51,0.48,-1.51,0.49,-0.49,-0.38,-0.76,-2.00,-2.00,-1.99
112.97,-1.53,0.53,-1.53,0.52,-0.52,-0.39,-0.78,-2.05,-2.05,-2.06
114.10,-1.55,0.55,-1.55,0.55,-0.55,-0.40,-0.79,-2.10,-2.10,-2.10
115.24,-1.56,0.59,-1.56,0.59,-0.58,-0.41,-0.80,-2.14,-2.15,-2.15
116.39,-1.58,0.62,-1.58,0.62,-0.61,-0.42,-0.81,-2.19,-2.19,-2.20
117.55,-1.60,0.64,-1.60,0.65,-0.65,-0.43,-0.82,-2.25,-2.24,-2.24
118.73,-1.61,0.68,-1.61,0.67,-0.67,-0.44,-0.83,-2.28,-2.29,-2.29
119.92,-1.63,0.70,-1.63,0.70,-0.70,-0.46,-0.84,-2.33,-2.33,-2.33
121.12,-1.64,0.73,-1.64,0.73,-0.73,-0.47,-0.85,-2.37,-2.37,-2.37
122.33,-1.66,0.76,-1.66,0.76,-0.76,-0.48,-0.85,-2.42,-2.41,-2.42
123.55,-1.67,0.79,-1.67,0.79,-0.79,-0.50,-0.86,-2.46,-2.46,-2.46
124.79,-1.68,0.81,-1.68,0.81,-0.82,-0.52,-0.87,-2.50,-2.50,-2.49
126.03,-1.70,0.84,-1.70,0.84,-0.85,-0.53,-0.87,-2.55,-2.54,-2.54
127.29,-1.71,0.87,-1.71,0.87,-0.88,-0.55,-0.88,-2.59,-2.58,-2.58
128.57,-1.72,0.91,-1.72,0.91,-0.91,-0.57,-0.88,-2.63,-2.62,-2.63
129.85,-1.72,0.95,-1.73,0.94,-0.94,-0.58,-0.88,-2.66,-2.66,-2.67
131.15,-1.74,0.96,-1.73,0.97,-0.96,-0.60,-0.89,-2.70,-2.70,-2.70
132.46,-1.74,0.99,-1.74,0.99,-0.99,-0.62,-0.89,-2.73,-2.73,-2.73
133.79,-1.75,1.02,-1.75,1.02,-1.02,-0.65,-0.89,-2.77,-2.77,-2.77
135.12,-1.76,1.05,-1.76,1.04,-1.04,-0.67,-0.89,-2.80,-2.80,-2.81
136.48,-1.77,1.06,-1.77,1.06,-1.06,-0.69,-0.89,-2.83,-2.83,-2.83
137.84,-1.78,1.08,-1.78,1.08,-1.08,-0.72,-0.89,-2.86,-2.86,-2.86
139.22,-1.79,1.10,-1.79,1.10,-1.10,-0.74,-0.89,-2.89,-2.89,-2.89
140.61,-1.79,1.13,-1.79,1.12,-1.12,-0.77,-0.89,-2.91,-2.91,-2.92
142.02,-1.80,1.13,-1.80,1.14,-1.13,-0.80,-0.89,-2.93,-2.93,-2.93
143.44,-1.80,1.15,-1.80,1.15,-1.15,-0.83,-0.89,-2.95,-2.95,-2.95
144.87,-1.81,1.16,-1.81,1.16,-1.17,-0.86,-0.89,-2.98,-2.97,-2.97
146.32,-1.81,1.18,-1.81,1.18,-1.18,-0.89,-0.89,-2.99,-2.99,-2.99
147.78,-1.81,1.19,-1.81,1.19,-1.20,-0.92,-0.89,-3.01,-3.01,-3.00
149.26,-1.81,1.21,-1.81,1.21,-1.21,-0.96,-0.89,-3.02,-3.02,-3.02
150.75,-1.82,1.23,-1.82,1.23,-1.23,-0.99,-0.89,-3.05,-3.04,-3.05
152.26,-1.82,1.25,-1.82,1.25,-1.24,-1.03,-0.89,-3.06,-3.06,-3.07
153.78,-1.83,1.25,-1.83,1.26,-1.26,-1.07,-0.90,-3.09,-3.09,-3.08
155.32,-1.83,1.28,-1.83,1.27,-1.27,-1.11,-0.90,-3.10,-3.11,-3.11
156.88,-1.84,1.28,-1.84,1.28,-1.29,-1.15,-0.90,-3.13,-3.13,-3.12
158.44,-1.84,1.30,-1.84,1.30,-1.31,-1.19,-0.90,-3.15,-3.15,-3.14
160.03,-1.84,1.32,-1.84,1.32,-1.32,-1.23,-0.91,-3.16,-3.16,-3.16
161.63,-1.85,1.34,-1.85,1.34,-1.34,-1.28,-0.91,-3.19,-3.18,-3.19
163.24,-1.85,1.36,-1.85,1.36,-1.35,-1.32,-0.91,-3.20,-3.20,-3.21
164.88,-1.86,1.36,-1.86,1.37,-1.37,-1.37,-0.92,-3.23,-3.23,-3.22
166.53,-1.86,1.38,-1.86,1.38,-1.39,-1.41,-0.93,-3.25,-3.25,-3.24
168.19,-1.87,1.40,-1.87,1.40,-1.40,-1.46,-0.93,-3.27,-3.27,-3.27
169.87,-1.87,1.42,-1.87,1.42,-1.42,-1.51,-0.94,-3.29,-3.29,-3.29
171.57,-1.87,1.45,-1.87,1.44,-1.44,-1.56,-0.95,-3.31,-3.31,-3.32
173.29,-1.88,1.45,-1.88,1.46,-1.46,-1.60,-0.96,-3.34,-3.34,-3.33
175.02,-1.88,1.48,-1.88,1.48,-1.48,-1.65,-0.97,-3.36,-3.37,-3.36
176.77,-1.89,1.51,-1.89,1.51,-1.51,-1.69,-0.98,-3.40,-3.40,-3.40
178.54,-1.89,1.54,-1.89,1.53,-1.53,-1.74,-0.99,-3.42,-3.43,-3.43
180.32,-1.90,1.56,-1.90,1.56,-1.56,-1.78,-1.00,-3.46,-3.46,-3.46
182.13,-1.90,1.58,-1.90,1.59,-1.59,-1.82,-1.01,-3.49,-3.49,-3.48
183.95,-1.91,1.62,-1.91,1.61,-1.61,-1.85,-1.03,-3.52,-3.52,-3.53
185.79,-1.91,1.64,-1.91,1.64,-1.64,-1.88,-1.04,-3.55,-3.55,-3.55
187.65,-1.92,1.66,-1.92,1.66,-1.66,-1.91,-1.06,-3.58,-3.58,-3.58
189.52,-1.93,1.68,-1.93,1.68,-1.68,-1.94,-1.07,-3.61,-3.61,-3.61
191.42,-1.93,1.71,-1.93,1.70,-1.71,-1.96,-1.09,-3.64,-3.64,-3.64
193.33,-1.94,1.72,-1.94,1.72,-1.73,-1.97,-1.10,-3.67,-3.67,-3.66
195.27,-1.95,1.74,-1.95,1.74,-1.74,-1.98,-1.12,-3.69,-3.69,-3.69
197.22,-1.96,1.75,-1.96,1.76,-1.76,-1.99,-1.14,-3.72,-3.72,-3.71
199.19,-1.96,1.79,-1.96,1.78,-1.78,-1.99,-1.16,-3.74,-3.74,-3.75
201.18,-1.97,1.80,-1.97,1.80,-1.79,-1.99,-1.18,-3.76,-3.77,-3.77
203.19,-1.99,1.80,-1.98,1.81,-1.80,-1.98,-1.19,-3.79,-3.79,-3.79
205.23,-2.00,1.82,-2.00,1.81,-1.82,-1.97,-1.21,-3.82,-3.81,-3.82
207.28,-2.00,1.82,-2.01,1.82,-1.82,-1.95,-1.23,-3.82,-3.83,-3.82
209.35,-2.02,1.82,-2.01,1.83,-1.83,-1.93,-1.25,-3.85,-3.84,-3.84
211.44,-2.02,1.85,-2.02,1.84,-1.84,-1.91,-1.27,-3.86,-3.86,-3.87
213.56,-2.04,1.84,-2.04,1.84,-1.84,-1.88,-1.29,-3.88,-3.88,-3.88
215.69,-2.05,1.83,-2.05,1.84,-1.84,-1.85,-1.31,-3.89,-3.89,-3.88
217.85,-2.07,1.83,-2.07,1.83,-1.83,-1.82,-1.32,-3.90,-3.90,-3.90
220.03,-2.08,1.83,-2.08,1.83,-1.83,-1.79,-1.34,-3.91,-3.90,-3.91
222.23,-2.08,1.83,-2.09,1.82,-1.82,-1.76,-1.36,-3.90,-3.90,-3.91
224.45,-2.10,1.80,-2.10,1.81,-1.80,-1.73,-1.37,-3.90,-3.90,-3.90
226.70,-2.12,1.78,-2.11,1.79,-1.79,-1.70,-1.38,-3.91,-3.90,-3.90
228.96,-2.12,1.77,-2.13,1.76,-1.77,-1.67,-1.40,-3.89,-3.89,-3.89
231.25,-2.14,1.74,-2.14,1.74,-1.75,-1.65,-1.41,-3.89,-3.89,-3.88
233.57,-2.16,1.72,-2.16,1.72,-1.72,-1.62,-1.42,-3.88,-3.88,-3.88
235.90,-2.17,1.69,-2.17,1.69,-1.70,-1.60,-1.42,-3.87,-3.87,-3.86
238.26,-2.18,1.68,-2.18,1.67,-1.67,-1.58,-1.43,-3.85,-3.85,-3.86
240.64,-2.19,1.64,-2.19,1.65,-1.64,-1.57,-1.43,-3.83,-3.83,-3.83
243.05,-2.20,1.62,-2.20,1.61,-1.61,-1.55,-1.43,-3.81,-3.82,-3.82
245.48,-2.22,1.57,-2.22,1.58,-1.58,-1.54,-1.43,-3.80,-3.80,-3.79
247.93,-2.24,1.53,-2.23,1.54,-1.54,-1.53,-1.43,-3.78,-3.78,-3.77
250.41,-2.24,1.52,-2.25,1.51,-1.51,-1.51,-1.42,-3.75,-3.75,-3.76
252.92,-2.26,1.47,-2.26,1.47,-1.47,-1.50,-1.42,-3.73,-3.73,-3.73
255.45,-2.28,1.42,-2.28,1.43,-1.43,-1.47,-1.41,-3.71,-3.71,-3.70
258.00,-2.30,1.39,-2.30,1.39,-1.39,-1.45,-1.39,-3.69,-3.69,-3.69
260.58,-2.31,1.35,-2.31,1.35,-1.35,-1.41,-1.38,-3.66,-3.66,-3.66
263.19,-2.33,1.31,-2.33,1.31,-1.30,-1.37,-1.36,-3.63,-3.64,-3.64
265.82,-2.35,1.27,-2.35,1.26,-1.26,-1.31,-1.35,-3.61,-3.61,-3.62
268.48,-2.37,1.21,-2.37,1.22,-1.22,-1.26,-1.33,-3.59,-3.59,-3.58
271.16,-2.39,1.17,-2.39,1.17,-1.17,-1.19,-1.30,-3.56,-3.57,-3.56
273.87,-2.42,1.12,-2.42,1.12,-1.12,-1.13,-1.28,-3.54,-3.54,-3.54
276.61,-2.44,1.07,-2.44,1.08,-1.08,-1.06,-1.25,-3.52,-3.52,-3.51
279.38,-2.46,1.04,-2.46,1.03,-1.03,-0.99,-1.23,-3.49,-3.49,-3.50
282.17,-2.49,0.98,-2.49,0.98,-0.97,-0.92,-1.20,-3.46,-3.46,-3.47
284.99,-2.52,0.92,-2.52,0.92,-0.92,-0.85,-1.17,-3.44,-3.44,-3.44
287.84,-2.56,0.85,-2.55,0.86,-0.87,-0.79,-1.14,-3.43,-3.42,-3.41
290.72,-2.58,0.81,-2.59,0.80,-0.81,-0.73,-1.11,-3.39,-3.39,-3.39
293.63,-2.62,0.74,-2.62,0.74,-0.75,-0.67,-1.08,-3.37,-3.36,-3.36
296.57,-2.65,0.68,-2.65,0.68,-0.68,-0.61,-1.04,-3.33,-3.33,-3.33
299.53,-2.69,0.61,-2.69,0.62,-0.61,-0.56,-1.01,-3.30,-3.30,-3.30
302.53,-2.73,0.56,-2.73,0.55,-0.54,-0.50,-0.98,-3.27,-3.27,-3.29
305.55,-2.78,0.46,-2.78,0.47,-0.46,-0.45,-0.94,-3.24,-3.24,-3.24
308.61,-2.82,0.39,-2.82,0.39,-0.39,-0.40,-0.91,-3.21,-3.21,-3.21
311.69,-2.87,0.30,-2.87,0.30,-0.30,-0.35,-0.87,-3.17,-3.17,-3.17
314.81,-2.91,0.22,-2.92,0.22,-0.22,-0.30,-0.84,-3.13,-3.14,-3.13
317.96,-2.97,0.14,-2.96,0.14,-0.14,-0.25,-0.80,-3.11,-3.11,-3.11
321.14,-3.01,0.07,-3.01,0.06,-0.06,-0.20,-0.77,-3.07,-3.08,-3.08
324.35,-3.06,-0.01,-3.06,-0.01,0.01,-0.15,-0.74,-3.05,-3.05,-3.05
327.59,-3.11,-0.09,-3.11,-0.09,0.08,-0.10,-0.70,-3.03,-3.03,-3.02
330.87,-3.15,-0.16,-3.15,-0.15,0.15,-0.05,-0.67,-3.00,-3.00,-2.99
334.18,-3.19,-0.21,-3.18,-0.21,0.21,0.00,-0.63,-2.98,-2.98,-2.98
337.52,-3.21,-0.25,-3.22,-0.26,0.26,0.06,-0.60,-2.95,-2.95,-2.96
340.90,-3.24,-0.31,-3.24,-0.31,0.31,0.12,-0.57,-2.93,-2.93,-2.93
344.30,-3.27,-0.36,-3.26,-0.35,0.35,0.17,-0.53,-2.92,-2.91,-2.91
347.75,-3.28,-0.39,-3.28,-0.39,0.39,0.23,-0.50,-2.89,-2.89,-2.89
351.23,-3.28,-0.41,-3.29,-0.41,0.42,0.29,-0.47,-2.86,-2.87,-2.87
354.74,-3.29,-0.44,-3.29,-0.44,0.44,0.35,-0.44,-2.85,-2.85,-2.85
358.28,-3.30,-0.47,-3.30,-0.46,0.46,0.41,-0.41,-2.84,-2.84,-2.83
361.87,-3.30,-0.48,-3.30,-0.48,0.48,0.47,-0.37,-2.82,-2.82,-2.82
365.49,-3.29,-0.49,-3.29,-0.50,0.49,0.53,-0.34,-2.80,-2.81,-2.80
369.14,-3.29,-0.50,-3.29,-0.50,0.50,0.58,-0.31,-2.79,-2.78,-2.79
372.83,-3.28,-0.51,-3.28,-0.51,0.52,0.63,-0.28,-2.76,-2.76,-2.77
376.56,-3.27,-0.51,-3.27,-0.52,0.53,0.67,-0.25,-2.74,-2.75,-2.76
380.33,-3.27,-0.54,-3.27,-0.54,0.54,0.70,-0.22,-2.73,-2.73,-2.73
384.13,-3.27,-0.56,-3.27,-0.55,0.56,0.73,-0.19,-2.71,-2.71,-2.71
387.97,-3.27,-0.58,-3.27,-0.58,0.57,0.74,-0.16,-2.70,-2.70,-2.69
391.85,-3.27,-0.59,-3.27,-0.59,0.59,0.75,-0.14,-2.68,-2.68,-2.68
395.77,-3.27,-0.62,-3.27,-0.61,0.61,0.74,-0.11,-2.66,-2.66,-2.65
399.73,-3.26,-0.62,-3.26,-0.63,0.63,0.73,-0.08,-2.63,-2.63,-2.64
403.72,-3.26,-0.64,-3.26,-0.64,0.64,0.70,-0.05,-2.62,-2.61,-2.62
407.76,-3.25,-0.65,-3.25,-0.66,0.66,0.67,-0.03,-2.59,-2.59,-2.60
411.84,-3.24,-0.67,-3.24,-0.67,0.67,0.64,-0.00,-2.57,-2.57,-2.57
415.96,-3.22,-0.67,-3.22,-0.67,0.67,0.60,0.02,-2.55,-2.55,-2.55
420.12,-3.20,-0.67,-3.20,-0.67,0.67,0.56,0.05,-2.53,-2.53,-2.53
424.32,-3.17,-0.66,-3.17,-0.66,0.66,0.51,0.07,-2.51,-2.51,-2.51
428.56,-3.14,-0.65,-3.14,-0.65,0.65,0.47,0.09,-2.49,-2.49,-2.49
432.85,-3.10,-0.63,-3.10,-0.63,0.63,0.42,0.12,-2.47,-2.47,-2.47
437.18,-3.05,-0.61,-3.05,-0.61,0.61,0.38,0.14,-2.44,-2.44,-2.44
441.55,-2.99,-0.58,-2.99,-0.58,0.58,0.34,0.16,-2.41,-2.42,-2.41
445.96,-2.94,-0.55,-2.94,-0.55,0.55,0.30,0.18,-2.39,-2.39,-2.39
450.42,-2.87,-0.50,-2.87,-0.51,0.51,0.27,0.20,-2.36,-2.36,-2.37
454.93,-2.81,-0.48,-2.81,-0.47,0.47,0.23,0.21,-2.34,-2.34,-2.33
459.48,-2.74,-0.43,-2.74,-0.43,0.43,0.20,0.23,-2.31,-2.31,-2.31
