frequency,raw,error,smoothed,error_smoothed,equalization,parametric_eq,fixed_band_eq,equalized_raw,equalized_smoothed,target
20.00,-2.78,-7.01,-2.79,-7.02,6.00,5.10,2.12,3.22,3.21,4.23
20.20,-2.77,-7.03,-2.76,-7.01,6.00,5.09,2.18,3.23,3.24,4.26
20.40,-2.72,-7.01,-2.71,-6.99,6.00,5.08,2.24,3.28,3.29,4.29
20.61,-2.64,-6.95,-2.65,-6.96,6.00,5.07,2.31,3.36,3.35,4.31
20.81,-2.56,-6.90,-2.56,-6.90,6.00,5.06,2.38,3.44,3.44,4.34
21.02,-2.48,-6.85,-2.48,-6.84,6.00,5.05,2.45,3.52,3.52,4.37
21.23,-2.40,-6.78,-2.40,-6.78,6.00,5.04,2.52,3.60,3.60,4.38
21.44,-2.33,-6.72,-2.33,-6.71,6.00,5.03,2.60,3.67,3.67,4.39
21.66,-2.25,-6.65,-2.25,-6.64,6.00,5.02,2.67,3.75,3.75,4.40
21.87,-2.16,-6.56,-2.17,-6.57,6.00,5.01,2.75,3.84,3.83,4.40
22.09,-2.09,-6.50,-2.09,-6.49,6.00,5.00,2.83,3.91,3.91,4.41
22.31,-2.01,-6.41,-2.01,-6.42,6.01,4.98,2.91,4.00,3.99,4.41
22.54,-1.94,-6.35,-1.94,-6.34,6.01,4.97,3.00,4.07,4.07,4.41
22.76,-1.86,-6.26,-1.86,-6.27,6.01,4.96,3.09,4.15,4.15,4.40
22.99,-1.79,-6.18,-1.79,-6.19,6.01,4.95,3.18,4.22,4.22,4.39
23.22,-1.73,-6.12,-1.72,-6.12,6.00,4.93,3.27,4.27,4.27,4.39
23.45,-1.65,-6.04,-1.66,-6.05,5.98,4.92,3.36,4.33,4.32,4.39
23.69,-1.61,-6.00,-1.60,-5.99,5.95,4.91,3.46,4.34,4.36,4.39
23.92,-1.53,-5.92,-1.53,-5.93,5.92,4.89,3.55,4.39,4.39,4.39
24.16,-1.47,-5.87,-1.48,-5.87,5.88,4.88,3.65,4.41,4.40,4.40
24.40,-1.42,-5.82,-1.42,-5.82,5.83,4.87,3.75,4.41,4.41,4.40
24.65,-1.37,-5.76,-1.37,-5.76,5.77,4.85,3.86,4.40,4.40,4.39
24.89,-1.32,-5.71,-1.32,-5.71,5.71,4.83,3.96,4.39,4.39,4.39
25.14,-1.26,-5.65,-1.26,-5.65,5.65,4.82,4.06,4.39,4.39,4.39
25.39,-1.20,-5.59,-1.20,-5.59,5.58,4.80,4.17,4.38,4.38,4.39
25.65,-1.14,-5.53,-1.14,-5.52,5.52,4.78,4.27,4.38,4.39,4.39
25.91,-1.07,-5.45,-1.07,-5.45,5.46,4.77,4.38,4.39,4.39,4.38
26.16,-1.01,-5.39,-1.01,-5.39,5.40,4.75,4.48,4.39,4.39,4.38
26.43,-0.95,-5.33,-0.96,-5.33,5.33,4.73,4.59,4.38,4.38,4.38
26.69,-0.91,-5.29,-0.90,-5.28,5.27,4.71,4.69,4.36,4.37,4.38
26.96,-0.84,-5.22,-0.84,-5.22,5.20,4.69,4.79,4.36,4.36,4.37
27.23,-0.77,-5.14,-0.78,-5.15,5.14,4.67,4.89,4.37,4.37,4.37
27.50,-0.71,-5.08,-0.70,-5.07,5.08,4.65,4.99,4.37,4.37,4.37
27.77,-0.64,-5.00,-0.64,-5.01,5.02,4.63,5.08,4.38,4.38,4.36
28.05,-0.58,-4.94,-0.59,-4.94,4.96,4.61,5.17,4.38,4.37,4.36
28.33,-0.54,-4.89,-0.54,-4.89,4.89,4.59,5.25,4.35,4.36,4.35
28.62,-0.49,-4.84,-0.49,-4.84,4.83,4.56,5.33,4.34,4.34,4.35
28.90,-0.44,-4.79,-0.44,-4.78,4.77,4.54,5.40,4.33,4.34,4.35
29.19,-0.38,-4.72,-0.38,-4.72,4.72,4.51,5.46,4.34,4.34,4.34
29.48,-0.31,-4.66,-0.32,-4.66,4.66,4.49,5.52,4.35,4.34,4.35
29.78,-0.26,-4.60,-0.26,-4.60,4.60,4.46,5.57,4.34,4.34,4.33
30.08,-0.21,-4.54,-0.21,-4.54,4.54,4.44,5.61,4.33,4.33,4.33
30.38,-0.16,-4.48,-0.16,-4.49,4.48,4.41,5.65,4.32,4.32,4.32
30.68,-0.11,-4.43,-0.11,-4.42,4.42,4.38,5.67,4.31,4.31,4.32
30.99,-0.05,-4.36,-0.05,-4.36,4.36,4.35,5.68,4.31,4.31,4.31
31.30,0.02,-4.29,0.01,-4.30,4.29,4.32,5.68,4.31,4.31,4.31
31.61,0.07,-4.24,0.07,-4.23,4.23,4.28,5.68,4.30,4.31,4.31
31.93,0.13,-4.17,0.13,-4.17,4.17,4.25,5.66,4.30,4.30,4.30
32.24,0.18,-4.10,0.18,-4.11,4.12,4.22,5.64,4.30,4.29,4.28
32.57,0.22,-4.06,0.23,-4.05,4.06,4.18,5.60,4.28,4.29,4.28
32.89,0.27,-4.01,0.27,-4.01,4.01,4.14,5.57,4.28,4.28,4.28
33.22,0.32,-3.95,0.32,-3.96,3.95,4.10,5.51,4.28,4.27,4.27
33.55,0.35,-3.92,0.36,-3.91,3.90,4.06,5.46,4.25,4.26,4.27
33.89,0.41,-3.85,0.40,-3.86,3.85,4.02,5.39,4.26,4.25,4.26
34.23,0.44,-3.81,0.45,-3.80,3.80,3.98,5.32,4.24,4.25,4.25
34.57,0.49,-3.75,0.49,-3.75,3.75,3.93,5.24,4.24,4.24,4.24
34.92,0.55,-3.68,0.54,-3.70,3.70,3.89,5.16,4.25,4.23,4.23
35.27,0.58,-3.65,0.59,-3.64,3.64,3.84,5.07,4.22,4.23,4.23
35.62,0.63,-3.58,0.63,-3.58,3.59,3.79,4.98,4.21,4.22,4.21
35.97,0.68,-3.52,0.67,-3.53,3.53,3.73,4.88,4.21,4.20,4.20
36.33,0.72,-3.48,0.73,-3.47,3.47,3.68,4.79,4.19,4.19,4.20
36.70,0.78,-3.41,0.78,-3.41,3.40,3.62,4.69,4.18,4.18,4.19
37.06,0.84,-3.33,0.84,-3.34,3.34,3.56,4.59,4.18,4.17,4.17
37.43,0.90,-3.27,0.90,-3.27,3.27,3.50,4.48,4.17,4.17,4.17
37.81,0.96,-3.20,0.96,-3.20,3.20,3.44,4.38,4.16,4.16,4.16
38.19,1.02,-3.13,1.02,-3.13,3.13,3.38,4.28,4.15,4.15,4.15
38.57,1.09,-3.05,1.08,-3.06,3.06,3.31,4.18,4.15,4.14,4.14
38.95,1.14,-2.99,1.14,-2.99,2.99,3.25,4.08,4.13,4.13,4.13
39.34,1.19,-2.93,1.19,-2.93,2.93,3.18,3.97,4.12,4.12,4.12
39.74,1.23,-2.87,1.24,-2.87,2.87,3.11,3.88,4.10,4.11,4.10
40.14,1.28,-2.82,1.28,-2.82,2.82,3.04,3.78,4.09,4.09,4.10
40.54,1.33,-2.76,1.32,-2.77,2.77,2.97,3.68,4.10,4.09,4.09
40.94,1.35,-2.73,1.36,-2.72,2.73,2.90,3.58,4.08,4.09,4.08
41.35,1.40,-2.67,1.39,-2.68,2.69,2.84,3.49,4.09,4.08,4.07
41.76,1.41,-2.65,1.42,-2.65,2.66,2.77,3.40,4.07,4.07,4.06
42.18,1.44,-2.62,1.43,-2.62,2.63,2.71,3.31,4.07,4.06,4.06
42.60,1.44,-2.61,1.44,-2.61,2.60,2.65,3.22,4.04,4.04,4.05
43.03,1.44,-2.60,1.45,-2.59,2.58,2.59,3.14,4.02,4.03,4.04
43.46,1.46,-2.57,1.46,-2.57,2.56,2.54,3.06,4.02,4.02,4.03
43.90,1.47,-2.53,1.47,-2.54,2.54,2.49,2.98,4.01,4.01,4.00
44.33,1.47,-2.52,1.47,-2.52,2.52,2.44,2.90,3.99,3.99,3.99
44.78,1.47,-2.50,1.47,-2.50,2.50,2.41,2.83,3.97,3.98,3.97
45.23,1.47,-2.49,1.48,-2.48,2.48,2.37,2.75,3.95,3.96,3.96
45.68,1.49,-2.45,1.48,-2.46,2.46,2.34,2.68,3.95,3.95,3.94
46.13,1.49,-2.44,1.48,-2.44,2.44,2.32,2.61,3.93,3.93,3.93
46.60,1.49,-2.43,1.49,-2.42,2.42,2.29,2.55,3.91,3.91,3.92
47.06,1.49,-2.41,1.50,-2.40,2.39,2.28,2.48,3.88,3.89,3.90
47.53,1.54,-2.35,1.53,-2.37,2.36,2.26,2.42,3.90,3.88,3.89
48.01,1.54,-2.34,1.55,-2.33,2.32,2.25,2.36,3.86,3.87,3.88
48.49,1.58,-2.27,1.57,-2.28,2.28,2.23,2.30,3.86,3.85,3.85
48.97,1.58,-2.25,1.59,-2.24,2.24,2.22,2.25,3.82,3.83,3.83
49.46,1.61,-2.19,1.61,-2.19,2.20,2.21,2.19,3.81,3.80,3.80
49.96,1.63,-2.14,1.62,-2.15,2.15,2.20,2.14,3.78,3.78,3.77
50.46,1.63,-2.13,1.65,-2.11,2.12,2.19,2.09,3.75,3.76,3.76
50.96,1.68,-2.06,1.67,-2.07,2.08,2.18,2.04,3.76,3.75,3.74
51.47,1.68,-2.04,1.68,-2.04,2.05,2.17,1.99,3.73,3.73,3.72
51.99,1.68,-2.02,1.68,-2.02,2.02,2.16,1.94,3.70,3.71,3.70
52.51,1.68,-2.01,1.68,-2.00,2.00,2.15,1.89,3.68,3.68,3.69
53.03,1.68,-1.99,1.68,-1.99,1.98,2.14,1.85,3.66,3.66,3.67
53.56,1.68,-1.97,1.68,-1.97,1.96,2.13,1.80,3.64,3.65,3.65
54.10,1.68,-1.95,1.68,-1.95,1.95,2.12,1.76,3.63,3.63,3.63
54.64,1.68,-1.93,1.67,-1.94,1.95,2.11,1.71,3.63,3.61,3.61
55.18,1.63,-1.96,1.65,-1.94,1.95,2.09,1.67,3.58,3.59,3.59
55.74,1.63,-1.94,1.62,-1.95,1.95,2.09,1.62,3.58,3.57,3.57
56.29,1.59,-1.97,1.59,-1.96,1.96,2.08,1.58,3.55,3.55,3.56
56.86,1.56,-1.97,1.56,-1.98,1.98,2.07,1.54,3.54,3.54,3.53
57.42,1.51,-2.00,1.51,-2.00,2.01,2.07,1.49,3.52,3.53,3.51
58.00,1.47,-2.03,1.47,-2.03,2.05,2.07,1.45,3.52,3.51,3.50
58.58,1.42,-2.07,1.42,-2.07,2.08,2.07,1.40,3.50,3.50,3.49
59.16,1.36,-2.11,1.36,-2.11,2.11,2.07,1.35,3.47,3.47,3.47
59.76,1.31,-2.15,1.31,-2.14,2.14,2.07,1.31,3.45,3.45,3.46
60.35,1.26,-2.17,1.27,-2.17,2.15,2.08,1.26,3.41,3.42,3.43
60.96,1.26,-2.16,1.24,-2.17,2.16,2.08,1.21,3.42,3.40,3.42
61.57,1.21,-2.17,1.23,-2.16,2.15,2.08,1.16,3.36,3.38,3.39
62.18,1.25,-2.11,1.24,-2.12,2.12,2.06,1.10,3.37,3.36,3.36
62.80,1.26,-2.08,1.26,-2.07,2.07,2.04,1.05,3.33,3.34,3.34
63.43,1.31,-2.01,1.31,-2.01,2.01,1.99,0.99,3.32,3.32,3.32
64.07,1.37,-1.93,1.37,-1.93,1.94,1.93,0.94,3.31,3.30,3.30
64.71,1.43,-1.85,1.44,-1.85,1.85,1.84,0.88,3.28,3.29,3.28
65.35,1.52,-1.74,1.51,-1.75,1.75,1.74,0.82,3.27,3.26,3.26
66.01,1.60,-1.65,1.60,-1.64,1.64,1.61,0.75,3.24,3.24,3.25
66.67,1.71,-1.52,1.71,-1.52,1.51,1.46,0.69,3.22,3.22,3.23
67.33,1.82,-1.39,1.82,-1.39,1.38,1.30,0.63,3.20,3.20,3.21
68.01,1.95,-1.24,1.94,-1.24,1.24,1.13,0.56,3.19,3.19,3.19
68.69,2.07,-1.10,2.08,-1.09,1.09,0.95,0.49,3.16,3.17,3.17
69.37,2.22,-0.92,2.22,-0.93,0.93,0.77,0.42,3.16,3.15,3.14
70.07,2.37,-0.75,2.36,-0.77,0.77,0.59,0.35,3.14,3.13,3.12
70.77,2.51,-0.60,2.51,-0.59,0.59,0.42,0.28,3.10,3.11,3.11
71.48,2.66,-0.43,2.67,-0.42,0.41,0.24,0.20,3.07,3.08,3.09
72.19,2.84,-0.22,2.83,-0.23,0.22,0.07,0.13,3.06,3.06,3.06
72.91,3.01,-0.03,3.01,-0.03,0.02,-0.10,0.05,3.04,3.03,3.04
73.64,3.19,0.17,3.19,0.18,-0.18,-0.26,-0.03,3.01,3.01,3.02
74.38,3.37,0.37,3.38,0.38,-0.39,-0.42,-0.10,2.98,2.99,3.00
75.12,3.59,0.62,3.58,0.60,-0.60,-0.58,-0.18,2.99,2.97,2.98
75.87,3.76,0.80,3.78,0.82,-0.81,-0.73,-0.27,2.95,2.96,2.96
76.63,3.98,1.04,3.97,1.03,-1.02,-0.88,-0.35,2.96,2.95,2.94
77.40,4.16,1.24,4.16,1.23,-1.22,-1.03,-0.43,2.94,2.93,2.92
78.17,4.33,1.43,4.33,1.43,-1.41,-1.17,-0.52,2.92,2.92,2.90
78.95,4.49,1.60,4.49,1.61,-1.59,-1.31,-0.60,2.90,2.90,2.89
79.74,4.64,1.77,4.64,1.77,-1.76,-1.45,-0.69,2.88,2.88,2.87
80.54,4.78,1.93,4.78,1.93,-1.92,-1.58,-0.78,2.86,2.85,2.85
81.35,4.91,2.08,4.91,2.07,-2.08,-1.72,-0.87,2.83,2.83,2.83
82.16,5.02,2.21,5.02,2.21,-2.22,-1.85,-0.96,2.80,2.80,2.81
82.98,5.14,2.34,5.14,2.35,-2.36,-1.98,-1.05,2.78,2.78,2.80
83.81,5.26,2.49,5.26,2.49,-2.50,-2.10,-1.14,2.76,2.76,2.77
84.65,5.39,2.65,5.38,2.64,-2.64,-2.22,-1.23,2.75,2.75,2.74
85.50,5.50,2.77,5.50,2.77,-2.77,-2.34,-1.33,2.73,2.73,2.73
86.35,5.61,2.90,5.61,2.91,-2.90,-2.46,-1.43,2.71,2.71,2.71
87.22,5.72,3.04,5.72,3.03,-3.03,-2.57,-1.52,2.68,2.68,2.68
88.09,5.83,3.17,5.82,3.16,-3.16,-2.68,-1.62,2.67,2.66,2.66
88.97,5.91,3.26,5.92,3.28,-3.28,-2.79,-1.72,2.63,2.64,2.65
89.86,6.01,3.39,6.01,3.39,-3.39,-2.89,-1.82,2.62,2.62,2.62
90.76,6.09,3.50,6.09,3.50,-3.49,-2.99,-1.93,2.60,2.59,2.59
91.66,6.17,3.60,6.17,3.60,-3.59,-3.09,-2.03,2.58,2.57,2.57
92.58,6.22,3.69,6.22,3.68,-3.68,-3.18,-2.14,2.54,2.54,2.53
93.51,6.28,3.76,6.28,3.76,-3.76,-3.27,-2.24,2.52,2.52,2.52
94.44,6.31,3.82,6.32,3.83,-3.83,-3.36,-2.35,2.48,2.49,2.49
95.39,6.36,3.90,6.35,3.89,-3.89,-3.44,-2.46,2.46,2.46,2.46
96.34,6.38,3.95,6.38,3.95,-3.95,-3.52,-2.57,2.43,2.43,2.43
97.30,6.40,4.00,6.40,4.00,-4.00,-3.59,-2.68,2.40,2.41,2.40
98.28,6.42,4.05,6.41,4.04,-4.04,-3.66,-2.79,2.38,2.38,2.37
99.26,6.42,4.08,6.42,4.08,-4.08,-3.72,-2.91,2.34,2.34,2.34
100.25,6.42,4.10,6.42,4.11,-4.11,-3.78,-3.02,2.31,2.31,2.32
101.25,6.42,4.13,6.42,4.13,-4.14,-3.84,-3.13,2.28,2.28,2.29
102.27,6.42,4.16,6.42,4.16,-4.17,-3.89,-3.24,2.25,2.25,2.26
103.29,6.42,4.20,6.42,4.19,-4.20,-3.94,-3.36,2.22,2.22,2.22
104.32,6.42,4.22,6.42,4.22,-4.22,-3.99,-3.47,2.20,2.20,2.20
105.37,6.42,4.25,6.42,4.25,-4.25,-4.03,-3.58,2.17,2.17,2.17
106.42,6.42,4.27,6.42,4.27,-4.27,-4.06,-3.69,2.15,2.15,2.15
107.48,6.42,4.30,6.41,4.30,-4.29,-4.10,-3.80,2.13,2.12,2.12
108.56,6.39,4.31,6.40,4.31,-4.31,-4.12,-3.91,2.08,2.09,2.08
109.64,6.38,4.33,6.38,4.32,-4.32,-4.15,-4.01,2.06,2.06,2.05
110.74,6.35,4.33,6.35,4.33,-4.33,-4.17,-4.11,2.02,2.02,2.02
111.85,6.33,4.33,6.32,4.33,-4.34,-4.19,-4.21,1.99,1.99,2.00
112.97,6.28,4.33,6.30,4.34,-4.35,-4.21,-4.30,1.93,1.95,1.95
114.10,6.28,4.36,6.27,4.35,-4.35,-4.22,-4.39,1.93,1.91,1.92
115.24,6.24,4.36,6.24,4.36,-4.36,-4.23,-4.47,1.88,1.87,1.88
116.39,6.21,4.36,6.22,4.37,-4.38,-4.24,-4.55,1.83,1.84,1.85
117.55,6.19,4.38,6.19,4.38,-4.39,-4.25,-4.63,1.80,1.80,1.81
118.73,6.17,4.40,6.17,4.40,-4.40,-4.25,-4.69,1.77,1.77,1.77
119.92,6.15,4.40,6.15,4.41,-4.41,-4.25,-4.75,1.74,1.75,1.75
121.12,6.14,4.43,6.13,4.42,-4.41,-4.25,-4.81,1.73,1.72,1.71
122.33,6.08,4.40,6.09,4.41,-4.41,-4.25,-4.85,1.67,1.68,1.68
123.55,6.05,4.40,6.04,4.39,-4.39,-4.25,-4.89,1.66,1.65,1.65
124.79,5.98,4.36,5.99,4.37,-4.37,-4.25,-4.92,1.61,1.62,1.62
126.03,5.92,4.34,5.93,4.34,-4.33,-4.24,-4.94,1.59,1.59,1.58
127.29,5.86,4.31,5.84,4.30,-4.28,-4.24,-4.96,1.58,1.56,1.55
128.57,5.74,4.24,5.74,4.23,-4.22,-4.23,-4.97,1.52,1.52,1.50
129.85,5.62,4.15,5.63,4.16,-4.15,-4.23,-4.97,1.47,1.48,1.47
131.15,5.51,4.07,5.51,4.07,-4.07,-4.22,-4.96,1.44,1.45,1.44
132.46,5.40,3.99,5.40,3.99,-3.99,-4.21,-4.95,1.41,1.41,1.41
133.79,5.30,3.91,5.28,3.90,-3.90,-4.20,-4.93,1.40,1.38,1.39
135.12,5.16,3.81,5.17,3.82,-3.83,-4.20,-4.90,1.33,1.34,1.35
136.48,5.06,3.74,5.07,3.75,-3.77,-4.19,-4.88,1.29,1.31,1.32
137.84,5.01,3.71,4.99,3.70,-3.72,-4.18,-4.84,1.29,1.27,1.30
139.22,4.93,3.67,4.94,3.68,-3.69,-4.17,-4.80,1.24,1.25,1.26
140.61,4.89,3.66,4.90,3.67,-3.68,-4.17,-4.76,1.21,1.22,1.23
142.02,4.89,3.67,4.88,3.67,-3.68,-4.16,-4.72,1.21,1.20,1.22
143.44,4.89,3.70,4.89,3.70,-3.70,-4.15,-4.67,1.19,1.19,1.19
144.87,4.89,3.73,4.90,3.73,-3.73,-4.15,-4.62,1.16,1.17,1.16
146.32,4.93,3.79,4.91,3.77,-3.77,-4.14,-4.57,1.16,1.15,1.14
147.78,4.93,3.81,4.94,3.82,-3.81,-4.14,-4.52,1.12,1.13,1.12
149.26,4.95,3.85,4.96,3.86,-3.85,-4.13,-4.46,1.10,1.10,1.10
150.75,4.98,3.92,4.97,3.90,-3.90,-4.13,-4.41,1.08,1.07,1.06
152.26,4.98,3.94,4.98,3.94,-3.94,-4.13,-4.36,1.04,1.04,1.04
153.78,4.98,3.97,4.98,3.97,-3.97,-4.12,-4.31,1.01,1.01,1.01
155.32,4.98,4.00,4.98,3.99,-4.00,-4.12,-4.26,0.98,0.98,0.98
156.88,4.98,4.02,4.98,4.03,-4.03,-4.12,-4.21,0.95,0.96,0.96
158.44,4.98,4.05,4.98,4.05,-4.05,-4.12,-4.16,0.93,0.93,0.93
160.03,4.98,4.08,4.97,4.07,-4.07,-4.12,-4.12,0.91,0.90,0.90
161.63,4.93,4.07,4.94,4.08,-4.08,-4.13,-4.08,0.85,0.87,0.86
163.24,4.93,4.10,4.92,4.09,-4.08,-4.13,-4.03,0.85,0.84,0.83
164.88,4.89,4.08,4.90,4.09,-4.09,-4.13,-4.00,0.80,0.81,0.81
166.53,4.89,4.10,4.88,4.09,-4.08,-4.14,-3.96,0.81,0.79,0.79
168.19,4.84,4.08,4.84,4.08,-4.08,-4.14,-3.93,0.76,0.76,0.76
169.87,4.80,4.07,4.81,4.08,-4.07,-4.15,-3.90,0.73,0.73,0.73
171.57,4.77,4.07,4.77,4.07,-4.07,-4.15,-3.87,0.70,0.70,0.70
173.29,4.75,4.08,4.74,4.07,-4.08,-4.16,-3.85,0.67,0.66,0.67
175.02,4.71,4.06,4.72,4.07,-4.09,-4.17,-3.83,0.62,0.63,0.65
176.77,4.70,4.09,4.70,4.09,-4.10,-4.18,-3.81,0.60,0.60,0.61
178.54,4.70,4.13,4.69,4.11,-4.13,-4.18,-3.79,0.57,0.56,0.57
180.32,4.70,4.15,4.70,4.15,-4.16,-4.19,-3.78,0.54,0.54,0.55
182.13,4.70,4.18,4.72,4.20,-4.19,-4.20,-3.77,0.51,0.52,0.52
183.95,4.75,4.26,4.73,4.24,-4.23,-4.21,-3.76,0.52,0.50,0.49
185.79,4.75,4.28,4.75,4.28,-4.27,-4.22,-3.76,0.48,0.48,0.47
187.65,4.75,4.32,4.75,4.32,-4.31,-4.23,-3.76,0.44,0.45,0.43
189.52,4.75,4.34,4.75,4.34,-4.34,-4.24,-3.76,0.41,0.41,0.41
191.42,4.75,4.36,4.75,4.36,-4.37,-4.25,-3.76,0.38,0.38,0.39
193.33,4.75,4.39,4.75,4.39,-4.39,-4.26,-3.77,0.36,0.37,0.36
195.27,4.75,4.41,4.75,4.41,-4.40,-4.26,-3.78,0.35,0.35,0.34
197.22,4.75,4.43,4.74,4.42,-4.41,-4.27,-3.79,0.34,0.33,0.32
199.19,4.70,4.41,4.71,4.42,-4.41,-4.28,-3.81,0.29,0.30,0.29
201.18,4.69,4.41,4.69,4.41,-4.41,-4.28,-3.82,0.28,0.28,0.28
203.19,4.66,4.39,4.66,4.40,-4.40,-4.29,-3.84,0.26,0.26,0.27
205.23,4.65,4.40,4.64,4.39,-4.39,-4.29,-3.86,0.26,0.25,0.25
207.28,4.61,4.36,4.62,4.37,-4.38,-4.29,-3.88,0.23,0.24,0.25
209.35,4.59,4.36,4.59,4.36,-4.36,-4.29,-3.90,0.23,0.23,0.23
211.44,4.56,4.35,4.56,4.34,-4.34,-4.29,-3.92,0.22,0.22,0.21
213.56,4.53,4.32,4.53,4.32,-4.32,-4.28,-3.94,0.21,0.21,0.21
215.69,4.52,4.31,4.51,4.30,-4.30,-4.28,-3.96,0.22,0.21,0.21
217.85,4.47,4.27,4.48,4.28,-4.28,-4.27,-3.98,0.19,0.20,0.20
220.03,4.46,4.26,4.45,4.25,-4.25,-4.26,-4.01,0.21,0.20,0.20
222.23,4.42,4.23,4.42,4.22,-4.22,-4.25,-4.02,0.20,0.20,0.19
224.45,4.38,4.18,4.39,4.19,-4.19,-4.23,-4.04,0.19,0.20,0.20
226.70,4.36,4.16,4.36,4.15,-4.15,-4.21,-4.06,0.21,0.20,0.20
228.96,4.33,4.12,4.32,4.11,-4.11,-4.19,-4.07,0.22,0.21,0.21
231.25,4.28,4.06,4.29,4.07,-4.07,-4.17,-4.08,0.21,0.21,0.22
233.57,4.25,4.03,4.25,4.03,-4.03,-4.15,-4.09,0.22,0.22,0.22
235.90,4.22,3.99,4.22,3.99,-3.99,-4.12,-4.09,0.23,0.23,0.23
238.26,4.19,3.96,4.19,3.95,-3.95,-4.09,-4.09,0.24,0.24,0.23
240.64,4.15,3.90,4.15,3.91,-3.91,-4.05,-4.09,0.24,0.25,0.25
243.05,4.12,3.86,4.12,3.86,-3.86,-4.02,-4.08,0.26,0.26,0.26
245.48,4.09,3.82,4.09,3.81,-3.82,-3.98,-4.06,0.27,0.27,0.27
247.93,4.05,3.76,4.06,3.77,-3.77,-3.94,-4.05,0.28,0.29,0.29
250.41,4.03,3.74,4.03,3.73,-3.72,-3.89,-4.02,0.31,0.31,0.29
252.92,4.00,3.68,3.99,3.67,-3.67,-3.85,-4.00,0.33,0.32,0.32
255.45,3.96,3.62,3.96,3.62,-3.62,-3.80,-3.97,0.34,0.34,0.34
258.00,3.91,3.55,3.92,3.56,-3.56,-3.75,-3.93,0.35,0.36,0.36
260.58,3.88,3.50,3.88,3.50,-3.50,-3.70,-3.89,0.38,0.38,0.38
263.19,3.85,3.45,3.85,3.45,-3.45,-3.64,-3.84,0.40,0.40,0.40
265.82,3.82,3.40,3.81,3.39,-3.39,-3.59,-3.79,0.43,0.43,0.42
268.48,3.77,3.33,3.77,3.33,-3.33,-3.53,-3.74,0.44,0.44,0.44
271.16,3.73,3.26,3.74,3.27,-3.27,-3.47,-3.68,0.46,0.46,0.47
273.87,3.70,3.21,3.70,3.21,-3.22,-3.41,-3.62,0.48,0.48,0.49
276.61,3.68,3.17,3.67,3.16,-3.17,-3.35,-3.56,0.51,0.51,0.51
279.38,3.64,3.11,3.64,3.11,-3.11,-3.29,-3.49,0.53,0.53,0.53
282.17,3.61,3.06,3.61,3.06,-3.06,-3.23,-3.42,0.55,0.55,0.55
284.99,3.58,3.01,3.58,3.01,-3.01,-3.16,-3.35,0.57,0.57,0.57
287.84,3.55,2.96,3.55,2.96,-2.96,-3.10,-3.28,0.59,0.59,0.59
290.72,3.52,2.90,3.52,2.90,-2.91,-3.04,-3.21,0.61,0.61,0.62
293.63,3.49,2.86,3.49,2.85,-2.86,-2.97,-3.13,0.63,0.63,0.63
296.57,3.45,2.79,3.46,2.80,-2.81,-2.91,-3.05,0.64,0.65,0.66
299.53,3.45,2.77,3.44,2.76,-2.76,-2.84,-2.98,0.69,0.68,0.68
302.53,3.40,2.70,3.41,2.71,-2.71,-2.78,-2.90,0.69,0.70,0.70
305.55,3.40,2.67,3.39,2.66,-2.66,-2.71,-2.82,0.74,0.73,0.73
308.61,3.35,2.60,3.36,2.61,-2.61,-2.65,-2.75,0.74,0.76,0.75
311.69,3.35,2.57,3.34,2.56,-2.56,-2.58,-2.67,0.79,0.78,0.78
314.81,3.31,2.49,3.31,2.50,-2.50,-2.52,-2.59,0.81,0.81,0.82
317.96,3.28,2.45,3.29,2.45,-2.45,-2.46,-2.52,0.83,0.83,0.83
321.14,3.26,2.41,3.25,2.40,-2.40,-2.39,-2.44,0.86,0.85,0.85
324.35,3.22,2.35,3.22,2.35,-2.35,-2.33,-2.37,0.87,0.88,0.87
327.59,3.19,2.29,3.19,2.30,-2.30,-2.27,-2.30,0.89,0.90,0.90
330.87,3.17,2.25,3.16,2.25,-2.24,-2.21,-2.23,0.93,0.92,0.92
334.18,3.13,2.19,3.13,2.20,-2.19,-2.15,-2.16,0.94,0.94,0.94
337.52,3.10,2.15,3.10,2.14,-2.14,-2.09,-2.09,0.96,0.96,0.95
340.90,3.07,2.09,3.07,2.09,-2.09,-2.03,-2.02,0.98,0.98,0.98
344.30,3.03,2.03,3.04,2.04,-2.04,-1.97,-1.96,0.99,1.00,1.00
347.75,3.03,2.01,3.02,2.00,-2.00,-1.91,-1.89,1.03,1.02,1.02
351.23,2.98,1.94,2.99,1.95,-1.95,-1.85,-1.83,1.03,1.04,1.04
354.74,2.98,1.92,2.97,1.91,-1.91,-1.80,-1.77,1.07,1.05,1.06
358.28,2.93,1.86,2.95,1.87,-1.88,-1.74,-1.71,1.05,1.07,1.07
361.87,2.93,1.84,2.93,1.84,-1.84,-1.69,-1.65,1.09,1.09,1.09
365.49,2.93,1.82,2.92,1.81,-1.81,-1.63,-1.59,1.12,1.11,1.11
369.14,2.89,1.77,2.90,1.78,-1.77,-1.58,-1.53,1.12,1.13,1.12
372.83,2.89,1.75,2.88,1.74,-1.73,-1.53,-1.48,1.16,1.15,1.14
376.56,2.85,1.70,2.85,1.70,-1.70,-1.47,-1.42,1.15,1.16,1.15
380.33,2.84,1.66,2.83,1.66,-1.66,-1.42,-1.37,1.18,1.17,1.18
384.13,2.79,1.60,2.80,1.62,-1.62,-1.37,-1.32,1.17,1.18,1.19
387.97,2.78,1.58,2.77,1.58,-1.58,-1.32,-1.27,1.20,1.20,1.20
391.85,2.75,1.55,2.74,1.53,-1.53,-1.27,-1.22,1.22,1.21,1.20
395.77,2.70,1.48,2.71,1.49,-1.49,-1.22,-1.17,1.21,1.22,1.22
399.73,2.68,1.45,2.68,1.45,-1.45,-1.18,-1.13,1.23,1.23,1.23
403.72,2.65,1.41,2.64,1.40,-1.40,-1.13,-1.08,1.25,1.24,1.24
407.76,2.61,1.36,2.61,1.36,-1.36,-1.08,-1.04,1.25,1.25,1.25
411.84,2.57,1.30,2.57,1.31,-1.31,-1.04,-0.99,1.26,1.26,1.27
415.96,2.54,1.26,2.54,1.26,-1.26,-0.99,-0.95,1.28,1.28,1.28
420.12,2.51,1.22,2.50,1.21,-1.22,-0.94,-0.91,1.29,1.29,1.29
424.32,2.47,1.17,2.47,1.17,-1.17,-0.90,-0.87,1.30,1.30,1.30
428.56,2.42,1.11,2.43,1.12,-1.12,-0.86,-0.83,1.30,1.31,1.31
432.85,2.39,1.07,2.39,1.07,-1.07,-0.81,-0.79,1.32,1.32,1.32
437.18,2.35,1.02,2.35,1.02,-1.02,-0.77,-0.75,1.33,1.33,1.33
441.55,2.30,0.95,2.31,0.97,-0.97,-0.73,-0.71,1.33,1.34,1.35
445.96,2.27,0.92,2.27,0.91,-0.92,-0.69,-0.67,1.35,1.35,1.35
450.42,2.23,0.87,2.23,0.86,-0.86,-0.64,-0.63,1.37,1.36,1.36
454.93,2.19,0.81,2.19,0.81,-0.81,-0.60,-0.60,1.38,1.38,1.38
459.48,2.16,0.77,2.16,0.76,-0.76,-0.56,-0.56,1.40,1.40,1.39
464.07,2.13,0.72,2.13,0.71,-0.71,-0.52,-0.52,1.42,1.42,1.41
468.71,2.09,0.66,2.09,0.66,-0.66,-0.48,-0.49,1.43,1.43,1.43
473.40,2.05,0.61,2.05,0.61,-0.61,-0.44,-0.45,1.44,1.44,1.44
478.13,2.01,0.55,2.01,0.56,-0.56,-0.40,-0.42,1.45,1.46,1.46
482.91,1.98,0.51,1.98,0.50,-0.51,-0.36,-0.38,1.47,1.47,1.47
487.74,1.95,0.46,1.95,0.46,-0.46,-0.33,-0.35,1.49,1.49,1.49
492.62,1.91,0.40,1.91,0.41,-0.41,-0.29,-0.31,1.50,1.50,1.51
497.55,1.88,0.36,1.88,0.36,-0.36,-0.25,-0.28,1.52,1.52,1.52
502.52,1.85,0.31,1.85,0.31,-0.32,-0.21,-0.24,1.53,1.53,1.54
507.55,1.82,0.27,1.82,0.27,-0.28,-0.17,-0.21,1.54,1.54,1.55
512.62,1.79,0.22,1.79,0.22,-0.23,-0.13,-0.18,1.56,1.56,1.57
517.75,1.77,0.18,1.77,0.18,-0.18,-0.10,-0.14,1.59,1.59,1.59
522.93,1.73,0.12,1.74,0.13,-0.12,-0.06,-0.11,1.61,1.61,1.61
528.16,1.70,0.08,1.69,0.07,-0.05,-0.02,-0.07,1.65,1.64,1.62
533.44,1.63,-0.01,1.63,-0.01,0.03,0.02,-0.04,1.66,1.66,1.64
538.77,1.55,-0.11,1.55,-0.10,0.13,0.05,-0.00,1.68,1.68,1.66
544.16,1.46,-0.22,1.46,-0.22,0.24,0.09,0.03,1.70,1.70,1.68
549.60,1.36,-0.34,1.35,-0.34,0.36,0.13,0.07,1.72,1.71,1.70
