frequency,raw,error,smoothed,error_smoothed,equalization,parametric_eq,fixed_band_eq,equalized_raw,equalized_smoothed,target
20.00,-25.04,-26.14,-25.03,-26.13,6.00,6.63,2.74,-19.04,-19.03,1.10
20.20,-24.92,-26.06,-24.93,-26.06,6.00,6.62,2.82,-18.92,-18.93,1.14
20.40,-24.80,-25.98,-24.81,-25.98,6.00,6.62,2.90,-18.80,-18.81,1.18
20.61,-24.68,-25.88,-24.69,-25.89,6.00,6.62,2.98,-18.68,-18.69,1.20
20.81,-24.56,-25.80,-24.56,-25.80,6.00,6.61,3.06,-18.56,-18.56,1.24
21.02,-24.43,-25.71,-24.42,-25.68,6.00,6.61,3.15,-18.43,-18.42,1.28
21.23,-24.25,-25.54,-24.25,-25.54,6.00,6.61,3.24,-18.25,-18.25,1.29
21.44,-24.06,-25.36,-24.07,-25.37,6.00,6.60,3.33,-18.06,-18.07,1.31
21.66,-23.88,-25.20,-23.87,-25.19,6.00,6.60,3.43,-17.88,-17.87,1.31
21.87,-23.70,-25.01,-23.70,-25.02,6.00,6.59,3.53,-17.70,-17.70,1.31
22.09,-23.54,-24.86,-23.56,-24.88,6.00,6.59,3.63,-17.54,-17.56,1.32
22.31,-23.44,-24.76,-23.43,-24.76,6.00,6.59,3.73,-17.44,-17.43,1.32
22.54,-23.33,-24.66,-23.33,-24.65,6.00,6.58,3.84,-17.33,-17.33,1.32
22.76,-23.22,-24.53,-23.23,-24.54,6.00,6.58,3.94,-17.22,-17.23,1.31
22.99,-23.11,-24.41,-23.09,-24.40,6.00,6.57,4.06,-17.11,-17.09,1.30
23.22,-22.94,-24.24,-22.94,-24.24,6.00,6.57,4.17,-16.94,-16.94,1.30
23.45,-22.75,-24.04,-22.76,-24.05,6.00,6.56,4.29,-16.75,-16.76,1.29
23.69,-22.57,-23.86,-22.57,-23.86,6.00,6.56,4.41,-16.57,-16.57,1.29
23.92,-22.39,-23.68,-22.40,-23.69,6.00,6.55,4.53,-16.39,-16.40,1.29
24.16,-22.25,-23.55,-22.26,-23.55,6.00,6.55,4.65,-16.25,-16.26,1.30
24.40,-22.14,-23.44,-22.14,-23.43,6.00,6.54,4.78,-16.14,-16.14,1.30
24.65,-22.03,-23.32,-22.03,-23.33,6.00,6.54,4.90,-16.03,-16.03,1.29
24.89,-21.92,-23.21,-21.91,-23.20,6.00,6.53,5.03,-15.92,-15.91,1.29
25.14,-21.76,-23.05,-21.75,-23.04,6.00,6.53,5.17,-15.76,-15.75,1.29
25.39,-21.56,-22.84,-21.56,-22.84,6.00,6.52,5.30,-15.56,-15.56,1.29
25.65,-21.36,-22.64,-21.36,-22.64,6.00,6.52,5.43,-15.36,-15.36,1.28
25.91,-21.16,-22.43,-21.17,-22.44,6.00,6.51,5.56,-15.16,-15.17,1.27
26.16,-21.00,-22.26,-21.01,-22.27,6.00,6.50,5.70,-15.00,-15.01,1.27
26.43,-20.86,-22.13,-20.86,-22.12,6.00,6.50,5.83,-14.86,-14.86,1.26
26.69,-20.72,-21.98,-20.72,-21.98,6.00,6.49,5.96,-14.72,-14.72,1.26
26.96,-20.58,-21.83,-20.57,-21.83,6.00,6.48,6.10,-14.58,-14.57,1.25
27.23,-20.40,-21.65,-20.40,-21.65,6.00,6.48,6.22,-14.40,-14.40,1.25
27.50,-20.21,-21.46,-20.21,-21.46,6.00,6.47,6.35,-14.21,-14.21,1.25
27.77,-20.02,-21.26,-20.02,-21.26,6.00,6.46,6.47,-14.02,-14.02,1.24
28.05,-19.84,-21.08,-19.85,-21.09,6.00,6.46,6.59,-13.84,-13.85,1.24
28.33,-19.71,-20.94,-19.71,-20.94,6.00,6.45,6.70,-13.71,-13.71,1.23
28.62,-19.57,-20.80,-19.57,-20.80,6.00,6.44,6.81,-13.57,-13.57,1.23
28.90,-19.43,-20.66,-19.42,-20.65,6.00,6.43,6.91,-13.43,-13.42,1.23
29.19,-19.25,-20.48,-19.25,-20.48,6.00,6.43,7.00,-13.25,-13.25,1.23
29.48,-19.06,-20.29,-19.06,-20.29,6.00,6.42,7.08,-13.06,-13.06,1.23
29.78,-18.87,-20.09,-18.87,-20.10,6.00,6.41,7.16,-12.87,-12.87,1.22
30.08,-18.68,-19.91,-18.68,-19.91,6.00,6.40,7.23,-12.68,-12.68,1.23
30.38,-18.49,-19.70,-18.48,-19.70,6.00,6.39,7.29,-12.49,-12.48,1.21
30.68,-18.29,-19.50,-18.29,-19.50,6.00,6.38,7.33,-12.29,-12.29,1.21
30.99,-18.10,-19.30,-18.12,-19.32,6.00,6.38,7.37,-12.10,-12.12,1.20
31.30,-17.97,-19.17,-17.97,-19.17,6.00,6.37,7.39,-11.97,-11.97,1.20
31.61,-17.84,-19.04,-17.84,-19.02,6.00,6.36,7.40,-11.84,-11.84,1.20
31.93,-17.72,-18.90,-17.72,-18.90,6.00,6.35,7.40,-11.72,-11.72,1.17
32.24,-17.59,-18.75,-17.60,-18.76,6.00,6.34,7.40,-11.59,-11.60,1.16
32.57,-17.47,-18.63,-17.47,-18.63,6.00,6.33,7.38,-11.47,-11.47,1.16
32.89,-17.34,-18.49,-17.33,-18.48,6.00,6.32,7.35,-11.34,-11.33,1.15
33.22,-17.17,-18.30,-17.16,-18.29,6.00,6.31,7.31,-11.17,-11.16,1.13
33.55,-16.98,-18.10,-16.98,-18.10,6.00,6.30,7.27,-10.98,-10.98,1.13
33.89,-16.78,-17.88,-16.80,-17.91,6.00,6.28,7.22,-10.78,-10.80,1.10
34.23,-16.64,-17.74,-16.66,-17.75,6.00,6.27,7.16,-10.64,-10.66,1.10
34.57,-16.52,-17.60,-16.52,-17.61,6.00,6.26,7.09,-10.52,-10.52,1.08
34.92,-16.40,-17.47,-16.37,-17.44,6.00,6.25,7.02,-10.40,-10.37,1.07
35.27,-16.16,-17.23,-16.14,-17.20,6.00,6.24,6.94,-10.16,-10.14,1.07
35.62,-15.89,-16.93,-15.90,-16.94,6.00,6.23,6.87,-9.89,-9.90,1.04
35.97,-15.62,-16.65,-15.67,-16.70,6.00,6.21,6.78,-9.62,-9.67,1.03
36.33,-15.50,-16.53,-15.51,-16.53,6.00,6.20,6.70,-9.50,-9.51,1.03
36.70,-15.39,-16.41,-15.37,-16.39,6.00,6.19,6.62,-9.39,-9.37,1.02
37.06,-15.26,-16.26,-15.22,-16.23,6.00,6.18,6.53,-9.26,-9.22,1.00
37.43,-15.02,-16.03,-15.02,-16.02,6.00,6.16,6.45,-9.02,-9.02,1.01
37.81,-14.77,-15.77,-14.80,-15.79,6.00,6.15,6.36,-8.77,-8.80,1.00
38.19,-14.58,-15.57,-14.59,-15.58,6.00,6.13,6.28,-8.58,-8.59,0.98
38.57,-14.44,-15.43,-14.43,-15.42,6.00,6.12,6.20,-8.44,-8.43,0.99
38.95,-14.30,-15.28,-14.30,-15.28,6.00,6.11,6.12,-8.30,-8.30,0.98
39.34,-14.17,-15.14,-14.18,-15.15,6.00,6.09,6.04,-8.17,-8.18,0.98
39.74,-14.04,-15.00,-14.03,-15.00,6.00,6.08,5.96,-8.04,-8.03,0.96
40.14,-13.87,-14.83,-13.83,-14.79,6.00,6.06,5.89,-7.87,-7.83,0.96
40.54,-13.60,-14.56,-13.60,-14.56,6.00,6.05,5.82,-7.60,-7.60,0.95
40.94,-13.33,-14.28,-13.39,-14.34,6.00,6.03,5.76,-7.33,-7.39,0.95
41.35,-13.22,-14.16,-13.23,-14.17,6.00,6.02,5.69,-7.22,-7.23,0.94
41.76,-13.13,-14.05,-13.09,-14.02,6.00,6.00,5.64,-7.13,-7.09,0.92
42.18,-12.95,-13.87,-12.91,-13.82,6.00,5.99,5.58,-6.95,-6.91,0.92
42.60,-12.66,-13.56,-12.67,-13.58,6.00,5.97,5.53,-6.66,-6.67,0.90
43.03,-12.38,-13.28,-12.43,-13.32,6.00,5.95,5.49,-6.38,-6.43,0.90
43.46,-12.24,-13.12,-12.23,-13.11,6.00,5.94,5.44,-6.24,-6.23,0.88
43.90,-12.09,-12.94,-12.09,-12.95,6.00,5.92,5.41,-6.09,-6.09,0.85
44.33,-11.96,-12.79,-11.97,-12.80,6.00,5.91,5.37,-5.96,-5.97,0.84
44.78,-11.82,-12.63,-11.80,-12.61,6.00,5.89,5.34,-5.82,-5.80,0.81
45.23,-11.60,-12.40,-11.57,-12.36,6.00,5.88,5.32,-5.60,-5.57,0.80
45.68,-11.30,-12.08,-11.32,-12.10,6.00,5.87,5.30,-5.30,-5.32,0.78
46.13,-11.06,-11.82,-11.11,-11.88,6.00,5.85,5.28,-5.06,-5.11,0.76
46.60,-10.95,-11.71,-10.94,-11.70,6.00,5.84,5.26,-4.95,-4.94,0.76
47.06,-10.84,-11.59,-10.80,-11.56,6.00,5.83,5.25,-4.84,-4.80,0.75
47.53,-10.67,-11.41,-10.67,-11.42,6.00,5.82,5.25,-4.67,-4.67,0.75
48.01,-10.50,-11.24,-10.54,-11.28,6.00,5.81,5.25,-4.50,-4.54,0.74
48.49,-10.40,-11.12,-10.41,-11.13,6.00,5.80,5.25,-4.40,-4.41,0.72
48.97,-10.30,-11.00,-10.22,-10.93,6.00,5.79,5.25,-4.30,-4.22,0.70
49.46,-10.00,-10.70,-10.00,-10.69,6.00,5.79,5.26,-4.00,-4.00,0.70
49.96,-9.70,-10.38,-9.77,-10.46,6.00,5.78,5.27,-3.70,-3.77,0.68
50.46,-9.55,-10.24,-9.55,-10.24,6.00,5.78,5.28,-3.55,-3.55,0.69
50.96,-9.42,-10.10,-9.39,-10.07,6.00,5.79,5.29,-3.42,-3.39,0.68
51.47,-9.23,-9.90,-9.23,-9.91,6.00,5.79,5.31,-3.23,-3.23,0.67
51.99,-9.05,-9.72,-9.05,-9.72,6.00,5.80,5.33,-3.05,-3.05,0.67
52.51,-8.85,-9.52,-8.85,-9.52,6.00,5.81,5.34,-2.85,-2.85,0.67
53.03,-8.66,-9.33,-8.66,-9.33,6.00,5.83,5.36,-2.66,-2.66,0.67
53.56,-8.47,-9.13,-8.47,-9.13,6.00,5.85,5.38,-2.47,-2.47,0.66
54.10,-8.28,-8.93,-8.28,-8.93,6.00,5.88,5.40,-2.28,-2.28,0.65
54.64,-8.09,-8.74,-8.09,-8.73,6.00,5.91,5.41,-2.09,-2.09,0.65
55.18,-7.90,-8.54,-7.89,-8.53,6.00,5.94,5.43,-1.90,-1.89,0.64
55.74,-7.70,-8.33,-7.71,-8.34,6.00,5.98,5.44,-1.70,-1.71,0.63
56.29,-7.53,-8.15,-7.54,-8.15,6.00,6.02,5.45,-1.53,-1.54,0.62
56.86,-7.38,-7.98,-7.37,-7.98,6.00,6.06,5.46,-1.38,-1.37,0.60
57.42,-7.21,-7.80,-7.21,-7.80,6.00,6.09,5.46,-1.21,-1.21,0.59
58.00,-7.03,-7.61,-7.03,-7.61,6.00,6.12,5.46,-1.03,-1.03,0.58
58.58,-6.84,-7.41,-6.84,-7.41,6.01,6.14,5.46,-0.83,-0.83,0.56
59.16,-6.65,-7.20,-6.66,-7.20,6.03,6.15,5.45,-0.62,-0.63,0.55
59.76,-6.47,-7.00,-6.46,-6.99,6.04,6.13,5.43,-0.43,-0.42,0.53
60.35,-6.27,-6.77,-6.27,-6.77,6.04,6.09,5.41,-0.23,-0.23,0.50
60.96,-6.06,-6.54,-6.07,-6.55,6.01,6.03,5.38,-0.05,-0.06,0.48
61.57,-5.88,-6.31,-5.87,-6.31,5.96,5.94,5.34,0.08,0.08,0.43
62.18,-5.68,-6.08,-5.67,-6.07,5.87,5.82,5.29,0.19,0.20,0.40
62.80,-5.46,-5.82,-5.47,-5.83,5.75,5.68,5.24,0.29,0.28,0.36
63.43,-5.27,-5.59,-5.28,-5.60,5.59,5.52,5.18,0.32,0.31,0.33
64.07,-5.10,-5.39,-5.10,-5.39,5.41,5.34,5.12,0.31,0.31,0.29
64.71,-4.94,-5.19,-4.92,-5.18,5.21,5.14,5.04,0.27,0.29,0.25
65.35,-4.74,-4.96,-4.73,-4.95,4.99,4.94,4.96,0.26,0.26,0.22
66.01,-4.52,-4.70,-4.54,-4.73,4.77,4.74,4.87,0.25,0.23,0.18
66.67,-4.36,-4.51,-4.35,-4.50,4.54,4.53,4.78,0.18,0.19,0.14
67.33,-4.20,-4.31,-4.20,-4.31,4.32,4.32,4.68,0.12,0.12,0.12
68.01,-4.03,-4.11,-4.07,-4.14,4.09,4.11,4.57,0.06,0.02,0.08
68.69,-3.95,-3.98,-3.91,-3.94,3.87,3.91,4.46,-0.08,-0.03,0.03
69.37,-3.74,-3.73,-3.70,-3.69,3.66,3.70,4.34,-0.08,-0.04,-0.01
70.07,-3.45,-3.40,-3.47,-3.43,3.46,3.50,4.22,0.01,-0.02,-0.05
70.77,-3.22,-3.14,-3.28,-3.19,3.26,3.29,4.10,0.04,-0.01,-0.08
71.48,-3.14,-3.02,-3.13,-3.01,3.08,3.09,3.97,-0.06,-0.05,-0.12
72.19,-3.08,-2.91,-3.03,-2.86,2.90,2.89,3.84,-0.18,-0.13,-0.17
72.91,-2.92,-2.70,-2.94,-2.72,2.72,2.69,3.70,-0.20,-0.22,-0.22
73.64,-2.82,-2.55,-2.85,-2.58,2.54,2.49,3.57,-0.28,-0.31,-0.27
74.38,-2.74,-2.43,-2.74,-2.43,2.36,2.30,3.43,-0.38,-0.38,-0.31
75.12,-2.65,-2.29,-2.60,-2.25,2.18,2.10,3.29,-0.47,-0.42,-0.36
75.87,-2.42,-2.03,-2.41,-2.02,1.99,1.91,3.15,-0.43,-0.42,-0.39
76.63,-2.16,-1.73,-2.20,-1.77,1.80,1.72,3.01,-0.36,-0.40,-0.43
77.40,-1.99,-1.52,-2.00,-1.54,1.60,1.53,2.87,-0.39,-0.40,-0.47
78.17,-1.88,-1.37,-1.86,-1.36,1.40,1.35,2.72,-0.48,-0.46,-0.50
78.95,-1.74,-1.21,-1.75,-1.21,1.20,1.18,2.58,-0.54,-0.55,-0.53
79.74,-1.63,-1.07,-1.62,-1.06,1.01,1.01,2.44,-0.62,-0.61,-0.56
80.54,-1.49,-0.90,-1.49,-0.90,0.85,0.86,2.30,-0.64,-0.64,-0.59
81.35,-1.34,-0.72,-1.32,-0.70,0.72,0.71,2.16,-0.62,-0.60,-0.62
82.16,-1.19,-0.54,-1.16,-0.51,0.60,0.57,2.01,-0.59,-0.55,-0.65
82.98,-0.99,-0.32,-1.07,-0.39,0.48,0.44,1.87,-0.51,-0.59,-0.67
83.81,-1.01,-0.29,-1.06,-0.35,0.36,0.33,1.73,-0.65,-0.71,-0.72
84.65,-1.15,-0.40,-1.06,-0.31,0.23,0.22,1.59,-0.92,-0.82,-0.75
85.50,-1.06,-0.29,-1.01,-0.23,0.11,0.12,1.45,-0.95,-0.89,-0.77
86.35,-0.82,-0.02,-0.87,-0.07,-0.01,0.02,1.31,-0.83,-0.88,-0.80
87.22,-0.66,0.18,-0.69,0.15,-0.13,-0.06,1.18,-0.79,-0.82,-0.84
88.09,-0.58,0.29,-0.55,0.32,-0.26,-0.15,1.04,-0.84,-0.81,-0.87
88.97,-0.44,0.46,-0.47,0.43,-0.39,-0.23,0.90,-0.83,-0.87,-0.90
89.86,-0.42,0.51,-0.40,0.53,-0.52,-0.31,0.77,-0.94,-0.92,-0.93
90.76,-0.34,0.63,-0.32,0.64,-0.62,-0.39,0.63,-0.96,-0.95,-0.97
91.66,-0.25,0.74,-0.26,0.74,-0.70,-0.47,0.50,-0.95,-0.96,-0.99
92.58,-0.20,0.83,-0.21,0.82,-0.77,-0.54,0.36,-0.97,-0.98,-1.03
93.51,-0.18,0.87,-0.21,0.84,-0.84,-0.62,0.23,-1.02,-1.05,-1.05
94.44,-0.23,0.85,-0.22,0.86,-0.91,-0.70,0.10,-1.14,-1.14,-1.08
95.39,-0.26,0.85,-0.20,0.91,-0.99,-0.79,-0.03,-1.25,-1.20,-1.11
96.34,-0.14,1.01,-0.16,0.98,-1.07,-0.87,-0.17,-1.21,-1.22,-1.15
97.30,-0.03,1.14,-0.05,1.12,-1.13,-0.95,-0.30,-1.16,-1.18,-1.17
98.28,0.01,1.21,0.07,1.26,-1.19,-1.03,-0.42,-1.18,-1.12,-1.20
99.26,0.16,1.38,0.11,1.33,-1.24,-1.11,-0.55,-1.08,-1.13,-1.22
100.25,0.16,1.41,0.11,1.35,-1.29,-1.20,-0.68,-1.13,-1.19,-1.25
101.25,0.01,1.28,0.07,1.35,-1.34,-1.28,-0.81,-1.33,-1.27,-1.27
102.27,-0.00,1.30,0.01,1.31,-1.37,-1.36,-0.93,-1.37,-1.37,-1.30
103.29,-0.01,1.34,-0.03,1.31,-1.40,-1.44,-1.05,-1.41,-1.43,-1.35
104.32,-0.03,1.34,-0.02,1.35,-1.40,-1.51,-1.17,-1.43,-1.42,-1.37
105.37,-0.04,1.37,0.00,1.41,-1.38,-1.59,-1.29,-1.42,-1.38,-1.41
106.42,0.02,1.46,-0.00,1.44,-1.36,-1.66,-1.41,-1.34,-1.36,-1.44
107.48,0.02,1.49,-0.04,1.43,-1.34,-1.73,-1.52,-1.32,-1.39,-1.47
108.56,-0.16,1.35,-0.11,1.40,-1.33,-1.79,-1.63,-1.49,-1.44,-1.51
109.64,-0.25,1.30,-0.23,1.32,-1.33,-1.86,-1.74,-1.58,-1.56,-1.55
110.74,-0.29,1.29,-0.36,1.22,-1.33,-1.92,-1.84,-1.62,-1.69,-1.58
111.85,-0.43,1.18,-0.39,1.22,-1.33,-1.97,-1.94,-1.76,-1.72,-1.61
112.97,-0.46,1.19,-0.36,1.28,-1.35,-2.03,-2.04,-1.81,-1.71,-1.65
114.10,-0.20,1.47,-0.30,1.38,-1.38,-2.08,-2.13,-1.58,-1.68,-1.67
115.24,-0.20,1.51,-0.22,1.49,-1.43,-2.12,-2.22,-1.63,-1.64,-1.71
116.39,-0.20,1.54,-0.18,1.56,-1.48,-2.16,-2.30,-1.68,-1.66,-1.74
117.55,-0.20,1.56,-0.20,1.57,-1.54,-2.20,-2.37,-1.74,-1.74,-1.76
118.73,-0.19,1.60,-0.19,1.59,-1.59,-2.23,-2.45,-1.78,-1.78,-1.79
119.92,-0.18,1.62,-0.18,1.62,-1.63,-2.26,-2.51,-1.81,-1.81,-1.80
121.12,-0.18,1.64,-0.18,1.64,-1.66,-2.29,-2.57,-1.84,-1.83,-1.82
122.33,-0.17,1.67,-0.17,1.66,-1.68,-2.31,-2.62,-1.85,-1.85,-1.84
123.55,-0.16,1.68,-0.16,1.69,-1.70,-2.32,-2.66,-1.86,-1.86,-1.84
124.79,-0.15,1.72,-0.15,1.71,-1.72,-2.34,-2.70,-1.87,-1.88,-1.87
126.03,-0.15,1.73,-0.15,1.73,-1.74,-2.35,-2.73,-1.89,-1.89,-1.88
127.29,-0.14,1.75,-0.14,1.76,-1.74,-2.35,-2.75,-1.88,-1.88,-1.89
128.57,-0.13,1.79,-0.12,1.79,-1.74,-2.36,-2.78,-1.87,-1.85,-1.92
129.85,-0.13,1.80,-0.13,1.80,-1.73,-2.36,-2.78,-1.86,-1.87,-1.93
131.15,-0.14,1.80,-0.20,1.74,-1.73,-2.36,-2.79,-1.87,-1.93,-1.94
132.46,-0.30,1.65,-0.26,1.69,-1.74,-2.35,-2.79,-2.04,-2.00,-1.95
133.79,-0.36,1.60,-0.29,1.67,-1.75,-2.35,-2.79,-2.11,-2.05,-1.96
135.12,-0.24,1.75,-0.29,1.68,-1.77,-2.34,-2.77,-2.01,-2.06,-1.99
136.48,-0.22,1.77,-0.24,1.75,-1.79,-2.33,-2.76,-2.01,-2.02,-1.99
137.84,-0.21,1.80,-0.15,1.86,-1.80,-2.31,-2.74,-2.01,-1.96,-2.01
139.22,-0.12,1.92,-0.13,1.90,-1.83,-2.30,-2.72,-1.95,-1.95,-2.04
140.61,-0.05,2.00,-0.13,1.92,-1.85,-2.28,-2.69,-1.90,-1.98,-2.05
142.02,-0.21,1.84,-0.17,1.89,-1.86,-2.26,-2.66,-2.07,-2.03,-2.05
143.44,-0.27,1.80,-0.25,1.83,-1.85,-2.24,-2.62,-2.12,-2.10,-2.07
144.87,-0.30,1.80,-0.29,1.80,-1.83,-2.22,-2.59,-2.13,-2.12,-2.10
146.32,-0.30,1.82,-0.29,1.83,-1.81,-2.19,-2.55,-2.11,-2.10,-2.12
147.78,-0.30,1.85,-0.34,1.81,-1.80,-2.17,-2.51,-2.10,-2.14,-2.15
149.26,-0.38,1.80,-0.41,1.78,-1.81,-2.15,-2.47,-2.19,-2.22,-2.18
150.75,-0.53,1.71,-0.46,1.77,-1.84,-2.12,-2.43,-2.37,-2.30,-2.24
152.26,-0.48,1.80,-0.48,1.80,-1.89,-2.10,-2.38,-2.37,-2.37,-2.28
153.78,-0.41,1.93,-0.43,1.91,-1.94,-2.07,-2.34,-2.35,-2.37,-2.34
155.32,-0.38,2.02,-0.34,2.05,-1.99,-2.04,-2.30,-2.37,-2.34,-2.40
156.88,-0.28,2.17,-0.34,2.12,-2.04,-2.02,-2.26,-2.32,-2.38,-2.45
158.44,-0.34,2.18,-0.38,2.15,-2.09,-1.99,-2.21,-2.43,-2.47,-2.52
160.03,-0.50,2.09,-0.42,2.16,-2.14,-1.96,-2.17,-2.64,-2.56,-2.59
161.63,-0.50,2.14,-0.51,2.14,-2.17,-1.93,-2.13,-2.67,-2.68,-2.64
163.24,-0.50,2.20,-0.57,2.12,-2.18,-1.90,-2.09,-2.68,-2.75,-2.70
164.88,-0.64,2.09,-0.58,2.15,-2.18,-1.88,-2.05,-2.82,-2.75,-2.73
166.53,-0.63,2.14,-0.60,2.16,-2.16,-1.85,-2.01,-2.79,-2.76,-2.77
168.19,-0.57,2.22,-0.64,2.16,-2.13,-1.82,-1.98,-2.70,-2.77,-2.79
169.87,-0.68,2.14,-0.67,2.15,-2.10,-1.79,-1.94,-2.78,-2.77,-2.82
171.57,-0.77,2.07,-0.75,2.09,-2.06,-1.77,-1.91,-2.83,-2.81,-2.84
173.29,-0.84,2.01,-0.85,2.00,-2.01,-1.74,-1.87,-2.85,-2.85,-2.85
175.02,-0.92,1.93,-0.91,1.95,-1.95,-1.71,-1.84,-2.87,-2.86,-2.85
176.77,-0.97,1.89,-0.98,1.88,-1.90,-1.68,-1.81,-2.87,-2.88,-2.86
178.54,-1.03,1.84,-1.04,1.82,-1.84,-1.66,-1.78,-2.87,-2.89,-2.87
180.32,-1.11,1.74,-1.10,1.76,-1.79,-1.63,-1.76,-2.90,-2.88,-2.85
182.13,-1.14,1.71,-1.13,1.72,-1.73,-1.61,-1.73,-2.87,-2.86,-2.85
183.95,-1.13,1.72,-1.12,1.73,-1.70,-1.58,-1.71,-2.83,-2.81,-2.85
185.79,-1.12,1.73,-1.13,1.73,-1.68,-1.55,-1.69,-2.80,-2.81,-2.86
187.65,-1.11,1.76,-1.19,1.68,-1.68,-1.53,-1.66,-2.79,-2.87,-2.87
189.52,-1.29,1.58,-1.26,1.62,-1.69,-1.50,-1.65,-2.98,-2.95,-2.87
191.42,-1.34,1.54,-1.26,1.62,-1.71,-1.48,-1.63,-3.05,-2.97,-2.88
193.33,-1.21,1.69,-1.20,1.69,-1.73,-1.46,-1.61,-2.94,-2.93,-2.90
195.27,-1.04,1.87,-1.11,1.80,-1.75,-1.43,-1.59,-2.79,-2.86,-2.91
197.22,-1.05,1.88,-1.09,1.84,-1.76,-1.41,-1.58,-2.81,-2.84,-2.93
199.19,-1.17,1.78,-1.13,1.82,-1.76,-1.39,-1.57,-2.93,-2.89,-2.95
201.18,-1.22,1.74,-1.18,1.78,-1.75,-1.36,-1.56,-2.97,-2.94,-2.96
203.19,-1.21,1.76,-1.22,1.76,-1.75,-1.34,-1.54,-2.96,-2.97,-2.97
205.23,-1.21,1.79,-1.27,1.72,-1.75,-1.32,-1.54,-2.96,-3.02,-3.00
207.28,-1.34,1.66,-1.33,1.68,-1.74,-1.30,-1.53,-3.08,-3.07,-3.00
209.35,-1.44,1.59,-1.37,1.66,-1.74,-1.28,-1.52,-3.18,-3.12,-3.03
211.44,-1.35,1.70,-1.38,1.66,-1.75,-1.26,-1.51,-3.10,-3.13,-3.05
213.56,-1.32,1.74,-1.30,1.76,-1.75,-1.24,-1.50,-3.07,-3.05,-3.06
215.69,-1.26,1.81,-1.25,1.82,-1.73,-1.22,-1.50,-2.99,-2.98,-3.07
217.85,-1.18,1.90,-1.26,1.82,-1.71,-1.20,-1.49,-2.89,-2.98,-3.08
220.03,-1.35,1.74,-1.30,1.79,-1.69,-1.18,-1.49,-3.04,-3.00,-3.10
222.23,-1.43,1.67,-1.42,1.68,-1.67,-1.16,-1.48,-3.10,-3.09,-3.10
224.45,-1.49,1.60,-1.55,1.55,-1.63,-1.14,-1.47,-3.12,-3.18,-3.09
226.70,-1.66,1.43,-1.60,1.49,-1.59,-1.12,-1.47,-3.25,-3.19,-3.09
228.96,-1.63,1.45,-1.61,1.47,-1.54,-1.11,-1.46,-3.17,-3.15,-3.08
231.25,-1.55,1.52,-1.56,1.51,-1.50,-1.09,-1.46,-3.05,-3.06,-3.07
233.57,-1.51,1.55,-1.54,1.52,-1.46,-1.07,-1.45,-2.97,-3.00,-3.06
235.90,-1.50,1.54,-1.56,1.48,-1.44,-1.06,-1.45,-2.94,-3.00,-3.04
238.26,-1.69,1.33,-1.57,1.45,-1.42,-1.04,-1.44,-3.11,-3.00,-3.02
240.64,-1.57,1.43,-1.59,1.41,-1.42,-1.02,-1.43,-2.99,-3.00,-3.00
243.05,-1.52,1.44,-1.59,1.37,-1.41,-1.01,-1.42,-2.93,-2.99,-2.96
245.48,-1.60,1.34,-1.58,1.36,-1.39,-0.99,-1.41,-2.99,-2.96,-2.94
247.93,-1.61,1.30,-1.59,1.32,-1.36,-0.98,-1.40,-2.97,-2.95,-2.91
250.41,-1.59,1.31,-1.55,1.34,-1.34,-0.96,-1.39,-2.93,-2.89,-2.90
252.92,-1.48,1.38,-1.51,1.36,-1.32,-0.95,-1.38,-2.80,-2.83,-2.86
255.45,-1.44,1.40,-1.51,1.33,-1.30,-0.94,-1.37,-2.74,-2.81,-2.84
258.00,-1.58,1.24,-1.55,1.27,-1.26,-0.92,-1.36,-2.84,-2.81,-2.82
260.58,-1.65,1.16,-1.59,1.21,-1.21,-0.91,-1.34,-2.86,-2.80,-2.81
263.19,-1.63,1.15,-1.63,1.16,-1.15,-0.90,-1.33,-2.78,-2.77,-2.78
265.82,-1.58,1.18,-1.65,1.11,-1.08,-0.88,-1.31,-2.66,-2.74,-2.76
268.48,-1.72,1.02,-1.71,1.03,-1.01,-0.87,-1.30,-2.73,-2.72,-2.74
271.16,-1.83,0.88,-1.79,0.92,-0.94,-0.86,-1.28,-2.77,-2.73,-2.71
273.87,-1.86,0.84,-1.86,0.83,-0.88,-0.85,-1.26,-2.74,-2.74,-2.70
276.61,-1.86,0.81,-1.87,0.80,-0.84,-0.84,-1.24,-2.70,-2.71,-2.67
279.38,-1.86,0.78,-1.86,0.78,-0.80,-0.83,-1.23,-2.66,-2.66,-2.64
282.17,-1.86,0.77,-1.86,0.76,-0.75,-0.82,-1.21,-2.61,-2.61,-2.63
284.99,-1.85,0.74,-1.85,0.74,-0.71,-0.81,-1.19,-2.56,-2.56,-2.59
287.84,-1.84,0.72,-1.84,0.72,-0.68,-0.80,-1.17,-2.52,-2.52,-2.56
290.72,-1.83,0.69,-1.82,0.70,-0.66,-0.79,-1.15,-2.49,-2.48,-2.52
293.63,-1.82,0.68,-1.82,0.68,-0.66,-0.78,-1.13,-2.48,-2.47,-2.50
296.57,-1.81,0.65,-1.86,0.60,-0.65,-0.77,-1.11,-2.46,-2.52,-2.46
299.53,-1.88,0.56,-1.88,0.56,-0.65,-0.76,-1.09,-2.53,-2.53,-2.44
302.53,-1.92,0.50,-1.80,0.61,-0.66,-0.75,-1.07,-2.58,-2.46,-2.42
305.55,-1.66,0.72,-1.69,0.70,-0.69,-0.74,-1.05,-2.35,-2.38,-2.38
308.61,-1.46,0.90,-1.57,0.79,-0.73,-0.73,-1.04,-2.19,-2.31,-2.36
311.69,-1.55,0.79,-1.52,0.82,-0.78,-0.73,-1.02,-2.33,-2.30,-2.34
314.81,-1.55,0.75,-1.53,0.78,-0.82,-0.72,-1.00,-2.37,-2.35,-2.30
317.96,-1.55,0.75,-1.51,0.78,-0.84,-0.71,-0.98,-2.39,-2.35,-2.30
321.14,-1.43,0.85,-1.40,0.88,-0.83,-0.70,-0.96,-2.26,-2.24,-2.28
324.35,-1.31,0.96,-1.34,0.92,-0.81,-0.70,-0.95,-2.12,-2.15,-2.27
327.59,-1.29,0.96,-1.40,0.85,-0.76,-0.69,-0.93,-2.05,-2.16,-2.25
330.87,-1.58,0.66,-1.54,0.70,-0.70,-0.68,-0.92,-2.28,-2.24,-2.24
334.18,-1.79,0.45,-1.67,0.56,-0.63,-0.68,-0.90,-2.42,-2.31,-2.24
337.52,-1.72,0.51,-1.73,0.49,-0.56,-0.67,-0.89,-2.28,-2.30,-2.23
340.90,-1.67,0.54,-1.73,0.48,-0.50,-0.67,-0.87,-2.17,-2.23,-2.21
344.30,-1.71,0.49,-1.75,0.45,-0.44,-0.66,-0.86,-2.15,-2.19,-2.20
347.75,-1.87,0.32,-1.81,0.39,-0.40,-0.66,-0.85,-2.27,-2.21,-2.19
351.23,-1.86,0.32,-1.83,0.35,-0.39,-0.65,-0.83,-2.25,-2.22,-2.18
354.74,-1.78,0.41,-1.81,0.37,-0.38,-0.65,-0.82,-2.16,-2.20,-2.19
358.28,-1.75,0.43,-1.76,0.42,-0.39,-0.65,-0.81,-2.14,-2.15,-2.18
361.87,-1.75,0.43,-1.74,0.43,-0.39,-0.64,-0.80,-2.14,-2.14,-2.18
365.49,-1.74,0.43,-1.74,0.43,-0.41,-0.64,-0.79,-2.15,-2.15,-2.17
369.14,-1.73,0.44,-1.73,0.44,-0.44,-0.64,-0.78,-2.17,-2.17,-2.17
372.83,-1.72,0.45,-1.74,0.43,-0.48,-0.63,-0.77,-2.20,-2.22,-2.17
376.56,-1.72,0.45,-1.72,0.45,-0.51,-0.63,-0.77,-2.24,-2.23,-2.17
380.33,-1.71,0.44,-1.64,0.53,-0.54,-0.63,-0.76,-2.25,-2.18,-2.15
384.13,-1.53,0.63,-1.56,0.60,-0.56,-0.62,-0.75,-2.09,-2.12,-2.16
387.97,-1.44,0.73,-1.51,0.65,-0.57,-0.62,-0.74,-2.01,-2.08,-2.17
391.85,-1.54,0.63,-1.51,0.65,-0.58,-0.62,-0.74,-2.12,-2.09,-2.17
395.77,-1.59,0.57,-1.56,0.60,-0.59,-0.62,-0.73,-2.18,-2.14,-2.16
399.73,-1.59,0.57,-1.60,0.57,-0.60,-0.62,-0.73,-2.19,-2.20,-2.16
403.72,-1.59,0.58,-1.60,0.57,-0.62,-0.62,-0.73,-2.21,-2.22,-2.17
407.76,-1.60,0.57,-1.62,0.55,-0.63,-0.62,-0.72,-2.23,-2.25,-2.17
411.84,-1.60,0.56,-1.60,0.57,-0.63,-0.62,-0.72,-2.23,-2.23,-2.16
