frequency,raw,error,smoothed,error_smoothed,equalization,parametric_eq,fixed_band_eq,equalized_raw,equalized_smoothed,target
20.00,-19.49,-20.11,-19.50,-20.12,6.00,5.77,2.89,-13.49,-13.50,0.62
20.20,-19.34,-20.00,-19.34,-20.00,6.00,5.77,2.98,-13.34,-13.34,0.66
20.40,-19.20,-19.90,-19.19,-19.89,6.00,5.77,3.06,-13.20,-13.19,0.70
20.61,-19.06,-19.78,-19.05,-19.78,6.00,5.78,3.15,-13.06,-13.05,0.72
20.81,-18.90,-19.66,-18.91,-19.67,6.00,5.78,3.24,-12.90,-12.91,0.76
21.02,-18.76,-19.56,-18.77,-19.56,6.00,5.78,3.33,-12.76,-12.77,0.80
21.23,-18.66,-19.47,-18.66,-19.47,6.00,5.79,3.42,-12.66,-12.66,0.81
21.44,-18.56,-19.39,-18.56,-19.39,6.00,5.79,3.52,-12.56,-12.56,0.83
21.66,-18.46,-19.30,-18.47,-19.30,6.00,5.79,3.62,-12.46,-12.47,0.84
21.87,-18.36,-19.20,-18.35,-19.19,6.00,5.80,3.72,-12.36,-12.35,0.84
22.09,-18.22,-19.07,-18.21,-19.06,6.00,5.80,3.83,-12.22,-12.21,0.85
22.31,-18.04,-18.89,-18.05,-18.89,6.00,5.81,3.94,-12.04,-12.05,0.85
22.54,-17.87,-18.71,-17.86,-18.71,6.00,5.82,4.05,-11.87,-11.86,0.85
22.76,-17.68,-18.52,-17.68,-18.52,6.00,5.82,4.16,-11.68,-11.68,0.84
22.99,-17.50,-18.33,-17.52,-18.35,6.00,5.83,4.28,-11.50,-11.52,0.83
23.22,-17.37,-18.20,-17.37,-18.19,6.00,5.83,4.40,-11.37,-11.37,0.83
23.45,-17.25,-18.07,-17.24,-18.06,6.00,5.84,4.52,-11.25,-11.24,0.82
23.69,-17.13,-17.94,-17.13,-17.94,6.00,5.85,4.65,-11.13,-11.13,0.81
23.92,-17.00,-17.82,-17.00,-17.82,6.00,5.86,4.77,-11.00,-11.00,0.81
24.16,-16.88,-17.71,-16.88,-17.70,6.00,5.86,4.90,-10.88,-10.88,0.82
24.40,-16.76,-17.58,-16.76,-17.58,6.00,5.87,5.03,-10.76,-10.76,0.82
24.65,-16.63,-17.45,-16.64,-17.45,6.00,5.88,5.17,-10.63,-10.64,0.81
24.89,-16.51,-17.32,-16.51,-17.32,6.00,5.89,5.30,-10.51,-10.51,0.81
25.14,-16.39,-17.20,-16.39,-17.20,6.00,5.90,5.44,-10.39,-10.39,0.81
25.39,-16.26,-17.07,-16.27,-17.08,6.00,5.91,5.58,-10.26,-10.27,0.81
25.65,-16.14,-16.94,-16.14,-16.94,6.00,5.92,5.72,-10.14,-10.14,0.80
25.91,-16.03,-16.81,-16.01,-16.81,6.00,5.93,5.86,-10.03,-10.01,0.79
26.16,-15.87,-16.66,-15.88,-16.67,6.00,5.94,6.00,-9.87,-9.88,0.79
26.43,-15.73,-16.51,-15.72,-16.51,6.00,5.95,6.14,-9.73,-9.72,0.79
26.69,-15.57,-16.36,-15.57,-16.35,6.00,5.97,6.28,-9.57,-9.57,0.79
26.96,-15.41,-16.19,-15.43,-16.21,6.00,5.98,6.42,-9.41,-9.43,0.78
27.23,-15.30,-16.08,-15.30,-16.08,6.00,5.99,6.56,-9.30,-9.30,0.78
27.50,-15.19,-15.97,-15.19,-15.96,6.00,6.00,6.69,-9.19,-9.19,0.77
27.77,-15.09,-15.86,-15.09,-15.85,6.00,6.02,6.82,-9.09,-9.09,0.76
28.05,-14.97,-15.74,-14.97,-15.73,6.00,6.03,6.94,-8.97,-8.97,0.76
28.33,-14.84,-15.59,-14.84,-15.60,6.00,6.04,7.06,-8.84,-8.84,0.75
28.62,-14.71,-15.46,-14.71,-15.46,6.00,6.06,7.18,-8.71,-8.71,0.75
28.90,-14.57,-15.32,-14.57,-15.32,6.00,6.07,7.28,-8.57,-8.57,0.75
29.19,-14.43,-15.18,-14.44,-15.19,6.00,6.08,7.38,-8.43,-8.44,0.75
29.48,-14.30,-15.06,-14.30,-15.06,6.00,6.09,7.47,-8.30,-8.30,0.76
29.78,-14.17,-14.92,-14.17,-14.92,6.00,6.10,7.55,-8.17,-8.17,0.75
30.08,-14.05,-14.80,-14.04,-14.79,6.00,6.11,7.62,-8.05,-8.04,0.76
30.38,-13.91,-14.65,-13.92,-14.66,6.00,6.12,7.68,-7.91,-7.92,0.73
30.68,-13.78,-14.52,-13.79,-14.52,6.00,6.13,7.72,-7.78,-7.79,0.73
30.99,-13.65,-14.38,-13.65,-14.37,6.00,6.14,7.76,-7.65,-7.65,0.72
31.30,-13.49,-14.22,-13.49,-14.21,6.00,6.14,7.79,-7.49,-7.49,0.72
31.61,-13.33,-14.05,-13.33,-14.04,6.00,6.14,7.80,-7.33,-7.33,0.72
31.93,-13.18,-13.87,-13.18,-13.88,6.00,6.14,7.80,-7.18,-7.18,0.70
32.24,-13.04,-13.73,-13.05,-13.74,6.00,6.14,7.80,-7.04,-7.05,0.69
32.57,-12.93,-13.62,-12.93,-13.61,6.00,6.14,7.77,-6.93,-6.93,0.68
32.89,-12.82,-13.49,-12.82,-13.49,6.00,6.13,7.75,-6.82,-6.82,0.67
33.22,-12.71,-13.36,-12.72,-13.38,6.00,6.13,7.71,-6.71,-6.72,0.65
33.55,-12.62,-13.27,-12.62,-13.27,6.00,6.12,7.66,-6.62,-6.62,0.65
33.89,-12.52,-13.15,-12.51,-13.14,6.00,6.11,7.60,-6.52,-6.51,0.63
34.23,-12.38,-13.01,-12.38,-13.00,6.00,6.10,7.54,-6.38,-6.38,0.63
34.57,-12.23,-12.84,-12.23,-12.84,6.00,6.08,7.47,-6.23,-6.23,0.60
34.92,-12.07,-12.67,-12.08,-12.67,6.00,6.07,7.39,-6.07,-6.08,0.59
35.27,-11.92,-12.51,-11.93,-12.51,6.00,6.06,7.31,-5.92,-5.93,0.59
35.62,-11.78,-12.35,-11.78,-12.35,6.00,6.04,7.23,-5.78,-5.78,0.57
35.97,-11.64,-12.20,-11.65,-12.20,6.00,6.03,7.14,-5.64,-5.65,0.55
36.33,-11.52,-12.07,-11.51,-12.06,6.00,6.01,7.05,-5.52,-5.51,0.55
36.70,-11.39,-11.93,-11.39,-11.93,6.00,6.00,6.96,-5.39,-5.39,0.54
37.06,-11.28,-11.81,-11.30,-11.83,6.00,5.98,6.87,-5.28,-5.30,0.53
37.43,-11.21,-11.75,-11.21,-11.74,6.00,5.96,6.78,-5.21,-5.21,0.53
37.81,-11.14,-11.66,-11.13,-11.65,6.00,5.95,6.69,-5.14,-5.13,0.52
38.19,-11.03,-11.54,-11.03,-11.54,6.00,5.94,6.60,-5.03,-5.03,0.51
38.57,-10.89,-11.41,-10.90,-11.41,6.00,5.92,6.52,-4.89,-4.90,0.52
38.95,-10.75,-11.25,-10.76,-11.26,6.00,5.91,6.43,-4.75,-4.76,0.50
39.34,-10.62,-11.12,-10.62,-11.12,6.00,5.90,6.35,-4.62,-4.62,0.50
39.74,-10.49,-10.98,-10.49,-10.98,6.00,5.89,6.27,-4.49,-4.49,0.49
40.14,-10.36,-10.85,-10.35,-10.83,6.00,5.88,6.19,-4.36,-4.35,0.48
40.54,-10.20,-10.68,-10.20,-10.68,6.00,5.87,6.12,-4.20,-4.20,0.48
40.94,-10.04,-10.52,-10.07,-10.54,6.00,5.86,6.05,-4.04,-4.07,0.47
41.35,-9.96,-10.42,-9.97,-10.43,6.00,5.85,5.98,-3.96,-3.97,0.46
41.76,-9.89,-10.34,-9.88,-10.33,6.00,5.85,5.92,-3.89,-3.88,0.45
42.18,-9.79,-10.23,-9.78,-10.22,6.00,5.84,5.86,-3.79,-3.78,0.44
42.60,-9.64,-10.07,-9.65,-10.08,6.00,5.84,5.81,-3.64,-3.65,0.43
43.03,-9.50,-9.93,-9.51,-9.92,6.00,5.83,5.76,-3.50,-3.51,0.42
43.46,-9.37,-9.77,-9.37,-9.77,6.00,5.83,5.72,-3.37,-3.37,0.40
43.90,-9.24,-9.62,-9.25,-9.63,6.00,5.83,5.68,-3.24,-3.25,0.37
44.33,-9.14,-9.50,-9.14,-9.50,6.00,5.84,5.64,-3.14,-3.14,0.36
44.78,-9.04,-9.38,-9.04,-9.38,6.00,5.84,5.61,-3.04,-3.04,0.33
45.23,-8.94,-9.26,-8.94,-9.26,6.00,5.85,5.58,-2.94,-2.94,0.32
45.68,-8.84,-9.15,-8.84,-9.14,6.00,5.85,5.55,-2.84,-2.84,0.30
46.13,-8.73,-9.02,-8.73,-9.02,6.00,5.86,5.53,-2.73,-2.73,0.29
46.60,-8.61,-8.90,-8.61,-8.89,6.00,5.87,5.52,-2.61,-2.61,0.28
47.06,-8.48,-8.76,-8.47,-8.75,6.00,5.89,5.51,-2.48,-2.47,0.28
47.53,-8.33,-8.60,-8.34,-8.60,6.00,5.90,5.50,-2.33,-2.34,0.27
48.01,-8.19,-8.46,-8.23,-8.48,6.00,5.92,5.49,-2.19,-2.23,0.26
48.49,-8.13,-8.38,-8.13,-8.38,6.00,5.94,5.49,-2.13,-2.13,0.25
48.97,-8.06,-8.29,-8.02,-8.25,6.00,5.96,5.50,-2.06,-2.02,0.23
49.46,-7.90,-8.12,-7.90,-8.12,6.00,5.98,5.50,-1.90,-1.90,0.22
49.96,-7.72,-7.93,-7.77,-7.98,6.00,6.00,5.51,-1.72,-1.77,0.20
50.46,-7.64,-7.86,-7.64,-7.85,6.00,6.03,5.52,-1.64,-1.64,0.22
50.96,-7.56,-7.77,-7.53,-7.74,6.00,6.05,5.54,-1.56,-1.53,0.21
51.47,-7.43,-7.63,-7.43,-7.63,6.00,6.08,5.55,-1.43,-1.43,0.20
51.99,-7.30,-7.49,-7.32,-7.52,6.00,6.10,5.57,-1.30,-1.32,0.19
52.51,-7.22,-7.41,-7.22,-7.41,6.00,6.13,5.59,-1.22,-1.22,0.19
53.03,-7.14,-7.33,-7.14,-7.32,6.00,6.15,5.61,-1.14,-1.14,0.19
53.56,-7.05,-7.23,-7.05,-7.23,6.00,6.17,5.63,-1.05,-1.05,0.18
54.10,-6.95,-7.13,-6.95,-7.13,6.00,6.18,5.65,-0.95,-0.95,0.17
54.64,-6.85,-7.02,-6.85,-7.02,6.00,6.19,5.67,-0.85,-0.85,0.17
55.18,-6.74,-6.90,-6.74,-6.90,6.00,6.20,5.68,-0.74,-0.74,0.16
55.74,-6.63,-6.78,-6.65,-6.80,6.00,6.19,5.70,-0.63,-0.65,0.15
56.29,-6.55,-6.70,-6.57,-6.71,6.01,6.18,5.72,-0.55,-0.56,0.15
56.86,-6.51,-6.64,-6.50,-6.63,6.01,6.16,5.73,-0.50,-0.48,0.13
57.42,-6.42,-6.54,-6.42,-6.53,6.02,6.12,5.74,-0.40,-0.40,0.11
58.00,-6.31,-6.41,-6.30,-6.40,6.02,6.08,5.74,-0.29,-0.28,0.10
58.58,-6.16,-6.25,-6.17,-6.26,6.01,6.02,5.74,-0.16,-0.16,0.09
59.16,-6.03,-6.11,-6.04,-6.12,5.98,5.96,5.74,-0.05,-0.06,0.07
59.76,-5.94,-5.99,-5.95,-6.01,5.94,5.89,5.73,-0.01,-0.02,0.05
60.35,-5.88,-5.91,-5.89,-5.91,5.88,5.80,5.71,-0.01,-0.01,0.03
60.96,-5.84,-5.85,-5.81,-5.81,5.80,5.71,5.69,-0.04,-0.01,0.00
61.57,-5.73,-5.69,-5.74,-5.70,5.71,5.62,5.67,-0.02,-0.03,-0.04
62.18,-5.63,-5.55,-5.66,-5.59,5.60,5.52,5.63,-0.03,-0.06,-0.08
62.80,-5.60,-5.49,-5.58,-5.47,5.49,5.41,5.60,-0.11,-0.09,-0.11
63.43,-5.52,-5.37,-5.52,-5.36,5.37,5.31,5.55,-0.15,-0.15,-0.15
64.07,-5.43,-5.25,-5.45,-5.26,5.25,5.20,5.50,-0.18,-0.19,-0.19
64.71,-5.36,-5.14,-5.35,-5.13,5.14,5.09,5.44,-0.22,-0.21,-0.23
65.35,-5.28,-5.03,-5.28,-5.02,5.04,4.97,5.38,-0.25,-0.24,-0.25
66.01,-5.19,-4.90,-5.22,-4.92,4.93,4.86,5.31,-0.27,-0.29,-0.29
66.67,-5.16,-4.83,-5.15,-4.83,4.82,4.76,5.23,-0.34,-0.33,-0.33
67.33,-5.10,-4.74,-5.09,-4.73,4.71,4.65,5.15,-0.39,-0.38,-0.36
68.01,-5.01,-4.61,-5.02,-4.62,4.60,4.54,5.07,-0.41,-0.42,-0.40
68.69,-4.93,-4.49,-4.93,-4.49,4.49,4.44,4.98,-0.44,-0.44,-0.44
69.37,-4.85,-4.37,-4.85,-4.37,4.38,4.34,4.88,-0.47,-0.47,-0.48
70.07,-4.78,-4.26,-4.78,-4.26,4.27,4.24,4.78,-0.51,-0.51,-0.52
70.77,-4.71,-4.16,-4.72,-4.16,4.16,4.14,4.68,-0.55,-0.56,-0.56
71.48,-4.65,-4.05,-4.65,-4.05,4.05,4.04,4.58,-0.60,-0.60,-0.60
72.19,-4.59,-3.95,-4.58,-3.94,3.94,3.95,4.48,-0.65,-0.64,-0.64
72.91,-4.50,-3.81,-4.53,-3.84,3.83,3.86,4.37,-0.67,-0.70,-0.70
73.64,-4.49,-3.75,-4.47,-3.73,3.73,3.77,4.26,-0.76,-0.74,-0.74
74.38,-4.43,-3.65,-4.42,-3.63,3.63,3.68,4.15,-0.80,-0.79,-0.79
75.12,-4.33,-3.50,-4.36,-3.53,3.53,3.60,4.04,-0.81,-0.83,-0.83
75.87,-4.30,-3.43,-4.29,-3.42,3.43,3.52,3.93,-0.88,-0.87,-0.87
76.63,-4.23,-3.33,-4.23,-3.32,3.33,3.43,3.82,-0.91,-0.91,-0.91
77.40,-4.17,-3.23,-4.18,-3.23,3.22,3.36,3.72,-0.95,-0.95,-0.94
78.17,-4.11,-3.13,-4.10,-3.13,3.12,3.28,3.61,-0.99,-0.98,-0.98
78.95,-4.03,-3.02,-4.04,-3.03,3.02,3.20,3.50,-1.01,-1.02,-1.01
79.74,-3.96,-2.92,-3.97,-2.93,2.92,3.12,3.39,-1.04,-1.05,-1.04
80.54,-3.90,-2.83,-3.90,-2.83,2.82,3.05,3.29,-1.08,-1.08,-1.07
81.35,-3.84,-2.74,-3.83,-2.74,2.73,2.97,3.18,-1.11,-1.10,-1.10
82.16,-3.77,-2.64,-3.77,-2.64,2.65,2.90,3.08,-1.12,-1.11,-1.13
82.98,-3.69,-2.54,-3.71,-2.56,2.58,2.83,2.98,-1.11,-1.13,-1.15
83.81,-3.68,-2.49,-3.68,-2.49,2.52,2.76,2.88,-1.16,-1.16,-1.19
84.65,-3.68,-2.46,-3.68,-2.46,2.47,2.69,2.78,-1.22,-1.21,-1.22
85.50,-3.68,-2.44,-3.68,-2.43,2.42,2.62,2.68,-1.26,-1.26,-1.25
86.35,-3.68,-2.40,-3.68,-2.40,2.39,2.55,2.58,-1.29,-1.29,-1.28
87.22,-3.68,-2.37,-3.68,-2.37,2.36,2.48,2.49,-1.32,-1.32,-1.31
88.09,-3.68,-2.33,-3.68,-2.34,2.33,2.41,2.40,-1.35,-1.35,-1.35
88.97,-3.68,-2.31,-3.68,-2.31,2.30,2.34,2.31,-1.38,-1.38,-1.37
89.86,-3.68,-2.28,-3.68,-2.28,2.27,2.27,2.22,-1.41,-1.41,-1.41
90.76,-3.68,-2.24,-3.68,-2.24,2.25,2.20,2.13,-1.44,-1.44,-1.44
91.66,-3.68,-2.21,-3.68,-2.21,2.22,2.14,2.05,-1.47,-1.47,-1.47
92.58,-3.68,-2.18,-3.68,-2.18,2.19,2.07,1.97,-1.49,-1.49,-1.50
93.51,-3.68,-2.15,-3.68,-2.15,2.17,2.00,1.88,-1.52,-1.52,-1.53
94.44,-3.68,-2.13,-3.68,-2.12,2.14,1.94,1.80,-1.55,-1.55,-1.56
95.39,-3.68,-2.10,-3.69,-2.10,2.10,1.87,1.73,-1.58,-1.59,-1.58
96.34,-3.68,-2.06,-3.69,-2.07,2.05,1.81,1.65,-1.63,-1.64,-1.62
97.30,-3.68,-2.03,-3.67,-2.03,1.99,1.74,1.57,-1.70,-1.69,-1.65
98.28,-3.64,-1.97,-3.63,-1.96,1.92,1.68,1.50,-1.73,-1.71,-1.68
99.26,-3.55,-1.86,-3.55,-1.85,1.84,1.62,1.43,-1.71,-1.71,-1.69
100.25,-3.46,-1.74,-3.46,-1.74,1.76,1.56,1.36,-1.71,-1.71,-1.72
101.25,-3.36,-1.61,-3.39,-1.63,1.67,1.50,1.29,-1.69,-1.72,-1.75
102.27,-3.34,-1.56,-3.33,-1.55,1.58,1.44,1.22,-1.76,-1.75,-1.78
103.29,-3.30,-1.48,-3.30,-1.48,1.50,1.38,1.16,-1.81,-1.80,-1.83
104.32,-3.27,-1.43,-3.27,-1.42,1.41,1.32,1.09,-1.86,-1.86,-1.85
105.37,-3.24,-1.36,-3.24,-1.36,1.34,1.26,1.03,-1.90,-1.90,-1.88
106.42,-3.20,-1.29,-3.20,-1.29,1.28,1.21,0.97,-1.92,-1.93,-1.91
107.48,-3.17,-1.22,-3.16,-1.21,1.22,1.15,0.91,-1.96,-1.95,-1.95
108.56,-3.12,-1.13,-3.14,-1.15,1.16,1.10,0.85,-1.96,-1.98,-1.99
109.64,-3.11,-1.09,-3.12,-1.10,1.10,1.05,0.80,-2.01,-2.02,-2.03
110.74,-3.13,-1.08,-3.11,-1.05,1.05,1.00,0.75,-2.08,-2.05,-2.05
111.85,-3.09,-1.01,-3.09,-1.00,1.00,0.95,0.69,-2.09,-2.09,-2.08
112.97,-3.05,-0.92,-3.07,-0.95,0.95,0.90,0.64,-2.10,-2.12,-2.13
114.10,-3.05,-0.91,-3.06,-0.90,0.91,0.85,0.59,-2.15,-2.15,-2.15
115.24,-3.06,-0.88,-3.06,-0.87,0.86,0.81,0.55,-2.20,-2.20,-2.19
116.39,-3.05,-0.84,-3.04,-0.83,0.81,0.77,0.50,-2.24,-2.23,-2.21
117.55,-3.02,-0.78,-3.01,-0.78,0.77,0.73,0.46,-2.25,-2.25,-2.24
118.73,-2.96,-0.70,-2.98,-0.72,0.73,0.68,0.42,-2.23,-2.25,-2.27
119.92,-2.94,-0.67,-2.95,-0.67,0.69,0.65,0.38,-2.25,-2.25,-2.27
121.12,-2.93,-0.64,-2.93,-0.64,0.66,0.61,0.35,-2.28,-2.27,-2.30
122.33,-2.92,-0.61,-2.93,-0.62,0.62,0.57,0.31,-2.31,-2.31,-2.31
123.55,-2.92,-0.61,-2.93,-0.60,0.58,0.54,0.28,-2.34,-2.35,-2.32
124.79,-2.91,-0.57,-2.91,-0.57,0.54,0.50,0.25,-2.37,-2.37,-2.34
126.03,-2.90,-0.55,-2.88,-0.53,0.51,0.47,0.22,-2.39,-2.37,-2.36
127.29,-2.83,-0.46,-2.84,-0.47,0.48,0.44,0.20,-2.36,-2.37,-2.37
128.57,-2.79,-0.40,-2.81,-0.42,0.44,0.41,0.18,-2.35,-2.37,-2.39
129.85,-2.78,-0.38,-2.78,-0.38,0.40,0.38,0.15,-2.38,-2.38,-2.41
131.15,-2.78,-0.36,-2.78,-0.37,0.35,0.35,0.13,-2.43,-2.43,-2.42
132.46,-2.77,-0.34,-2.76,-0.34,0.31,0.33,0.12,-2.46,-2.45,-2.43
133.79,-2.75,-0.32,-2.73,-0.29,0.28,0.30,0.10,-2.48,-2.45,-2.43
135.12,-2.66,-0.20,-2.69,-0.24,0.24,0.28,0.09,-2.42,-2.45,-2.46
136.48,-2.66,-0.20,-2.67,-0.20,0.21,0.25,0.07,-2.45,-2.45,-2.46
137.84,-2.66,-0.18,-2.65,-0.16,0.19,0.23,0.06,-2.47,-2.47,-2.48
139.22,-2.66,-0.15,-2.66,-0.15,0.17,0.21,0.05,-2.50,-2.49,-2.51
140.61,-2.65,-0.12,-2.66,-0.13,0.14,0.19,0.04,-2.51,-2.51,-2.53
142.02,-2.65,-0.12,-2.65,-0.12,0.12,0.17,0.03,-2.53,-2.53,-2.53
143.44,-2.65,-0.11,-2.65,-0.10,0.10,0.15,0.03,-2.56,-2.56,-2.55
144.87,-2.65,-0.08,-2.66,-0.09,0.06,0.13,0.02,-2.59,-2.59,-2.57
146.32,-2.65,-0.05,-2.65,-0.06,0.02,0.11,0.02,-2.63,-2.63,-2.60
147.78,-2.65,-0.03,-2.63,-0.00,-0.03,0.09,0.01,-2.68,-2.66,-2.63
149.26,-2.59,0.07,-2.60,0.07,-0.09,0.08,0.01,-2.68,-2.68,-2.66
150.75,-2.55,0.16,-2.57,0.14,-0.14,0.06,0.01,-2.69,-2.71,-2.72
152.26,-2.55,0.21,-2.55,0.22,-0.20,0.04,0.01,-2.75,-2.74,-2.76
153.78,-2.55,0.26,-2.54,0.27,-0.24,0.03,0.01,-2.79,-2.78,-2.81
155.32,-2.55,0.32,-2.56,0.31,-0.28,0.01,0.01,-2.83,-2.84,-2.88
156.88,-2.59,0.34,-2.62,0.32,-0.30,-0.00,0.00,-2.89,-2.91,-2.93
158.44,-2.69,0.31,-2.69,0.30,-0.30,-0.02,0.00,-2.99,-2.99,-3.00
160.03,-2.81,0.25,-2.77,0.29,-0.29,-0.03,0.00,-3.10,-3.06,-3.06
161.63,-2.84,0.27,-2.85,0.27,-0.27,-0.04,0.00,-3.11,-3.12,-3.11
163.24,-2.89,0.28,-2.92,0.25,-0.25,-0.06,0.00,-3.14,-3.17,-3.17
164.88,-2.99,0.21,-2.98,0.23,-0.23,-0.07,0.01,-3.22,-3.21,-3.20
166.53,-3.05,0.19,-3.04,0.20,-0.22,-0.08,0.01,-3.28,-3.26,-3.24
168.19,-3.07,0.20,-3.08,0.19,-0.23,-0.10,0.01,-3.30,-3.31,-3.27
169.87,-3.08,0.22,-3.08,0.21,-0.24,-0.11,0.01,-3.32,-3.32,-3.30
171.57,-3.08,0.23,-3.07,0.25,-0.25,-0.12,0.01,-3.34,-3.32,-3.32
173.29,-3.03,0.29,-3.04,0.29,-0.27,-0.13,0.01,-3.30,-3.31,-3.32
175.02,-3.00,0.33,-3.02,0.32,-0.29,-0.14,0.01,-3.29,-3.30,-3.33
176.77,-3.00,0.33,-3.00,0.34,-0.31,-0.15,0.01,-3.31,-3.31,-3.34
178.54,-3.00,0.34,-3.00,0.34,-0.33,-0.16,0.01,-3.33,-3.33,-3.34
180.32,-3.00,0.33,-3.00,0.33,-0.34,-0.17,0.01,-3.35,-3.34,-3.33
182.13,-2.99,0.33,-2.99,0.33,-0.35,-0.18,0.01,-3.35,-3.35,-3.32
183.95,-2.98,0.34,-2.98,0.34,-0.36,-0.19,0.01,-3.34,-3.34,-3.33
185.79,-2.97,0.36,-2.96,0.37,-0.36,-0.20,0.01,-3.33,-3.33,-3.33
187.65,-2.95,0.39,-2.96,0.39,-0.36,-0.21,0.01,-3.32,-3.32,-3.35
189.52,-2.94,0.41,-2.96,0.39,-0.37,-0.22,0.01,-3.32,-3.33,-3.35
191.42,-2.98,0.38,-2.98,0.38,-0.39,-0.23,0.01,-3.37,-3.36,-3.36
193.33,-3.00,0.37,-2.99,0.38,-0.40,-0.24,0.01,-3.40,-3.40,-3.37
195.27,-3.00,0.38,-3.00,0.39,-0.42,-0.25,0.01,-3.42,-3.42,-3.39
197.22,-2.98,0.42,-2.99,0.42,-0.43,-0.26,0.01,-3.42,-3.42,-3.41
199.19,-2.97,0.45,-2.97,0.45,-0.44,-0.27,0.01,-3.42,-3.42,-3.43
201.18,-2.96,0.48,-2.96,0.48,-0.46,-0.28,0.01,-3.42,-3.42,-3.44
203.19,-2.96,0.49,-2.96,0.49,-0.47,-0.29,0.00,-3.43,-3.43,-3.45
205.23,-2.96,0.52,-2.98,0.49,-0.48,-0.30,0.00,-3.44,-3.46,-3.48
207.28,-3.01,0.47,-3.01,0.48,-0.48,-0.30,0.00,-3.50,-3.49,-3.48
209.35,-3.05,0.46,-3.04,0.47,-0.49,-0.31,-0.00,-3.54,-3.53,-3.51
211.44,-3.06,0.46,-3.07,0.46,-0.48,-0.32,-0.00,-3.54,-3.54,-3.53
213.56,-3.07,0.46,-3.07,0.47,-0.47,-0.33,-0.01,-3.54,-3.53,-3.54
215.69,-3.07,0.47,-3.07,0.47,-0.45,-0.34,-0.01,-3.53,-3.53,-3.55
217.85,-3.07,0.48,-3.10,0.46,-0.44,-0.35,-0.01,-3.51,-3.54,-3.55
220.03,-3.14,0.43,-3.13,0.44,-0.43,-0.35,-0.02,-3.57,-3.56,-3.57
222.23,-3.18,0.40,-3.17,0.41,-0.42,-0.36,-0.02,-3.60,-3.58,-3.58
224.45,-3.18,0.38,-3.19,0.38,-0.40,-0.37,-0.03,-3.59,-3.59,-3.57
226.70,-3.18,0.38,-3.19,0.38,-0.39,-0.38,-0.03,-3.58,-3.58,-3.56
228.96,-3.18,0.38,-3.18,0.38,-0.38,-0.39,-0.04,-3.56,-3.56,-3.56
231.25,-3.17,0.37,-3.17,0.37,-0.37,-0.40,-0.05,-3.54,-3.55,-3.55
233.57,-3.16,0.37,-3.16,0.37,-0.36,-0.40,-0.06,-3.53,-3.53,-3.53
235.90,-3.15,0.37,-3.15,0.37,-0.36,-0.41,-0.06,-3.51,-3.51,-3.52
238.26,-3.13,0.36,-3.13,0.36,-0.36,-0.42,-0.07,-3.49,-3.49,-3.50
240.64,-3.11,0.36,-3.12,0.35,-0.35,-0.43,-0.08,-3.47,-3.47,-3.47
243.05,-3.10,0.33,-3.10,0.34,-0.35,-0.44,-0.09,-3.45,-3.45,-3.44
245.48,-3.08,0.33,-3.08,0.34,-0.34,-0.45,-0.10,-3.42,-3.42,-3.41
247.93,-3.05,0.34,-3.06,0.33,-0.34,-0.46,-0.12,-3.39,-3.39,-3.39
250.41,-3.03,0.34,-3.03,0.33,-0.33,-0.46,-0.13,-3.36,-3.36,-3.37
252.92,-3.02,0.32,-3.02,0.32,-0.32,-0.47,-0.14,-3.34,-3.34,-3.34
255.45,-3.00,0.31,-3.01,0.31,-0.31,-0.48,-0.16,-3.31,-3.31,-3.31
258.00,-3.00,0.29,-3.00,0.30,-0.29,-0.49,-0.17,-3.29,-3.29,-3.30
260.58,-2.99,0.29,-2.99,0.28,-0.28,-0.50,-0.19,-3.27,-3.27,-3.28
263.19,-2.99,0.26,-2.99,0.27,-0.26,-0.51,-0.21,-3.25,-3.25,-3.26
265.82,-2.99,0.25,-3.00,0.24,-0.25,-0.52,-0.22,-3.24,-3.25,-3.24
268.48,-2.99,0.22,-3.00,0.22,-0.24,-0.53,-0.24,-3.23,-3.24,-3.21
271.16,-3.00,0.19,-2.98,0.21,-0.23,-0.54,-0.26,-3.23,-3.21,-3.19
273.87,-2.95,0.22,-2.96,0.21,-0.22,-0.55,-0.28,-3.17,-3.17,-3.17
276.61,-2.91,0.23,-2.93,0.22,-0.21,-0.56,-0.30,-3.12,-3.14,-3.15
279.38,-2.90,0.22,-2.90,0.22,-0.20,-0.57,-0.32,-3.10,-3.10,-3.12
282.17,-2.90,0.20,-2.90,0.20,-0.18,-0.58,-0.35,-3.08,-3.08,-3.10
284.99,-2.89,0.17,-2.90,0.17,-0.16,-0.59,-0.37,-3.05,-3.06,-3.07
287.84,-2.89,0.15,-2.89,0.15,-0.14,-0.60,-0.39,-3.03,-3.03,-3.04
290.72,-2.88,0.12,-2.88,0.12,-0.12,-0.61,-0.42,-3.01,-3.00,-3.00
293.63,-2.86,0.11,-2.87,0.10,-0.12,-0.63,-0.45,-2.98,-2.98,-2.97
296.57,-2.85,0.08,-2.87,0.07,-0.12,-0.64,-0.47,-2.97,-2.98,-2.94
299.53,-2.84,0.08,-2.84,0.08,-0.12,-0.65,-0.50,-2.96,-2.96,-2.92
302.53,-2.83,0.06,-2.78,0.11,-0.13,-0.66,-0.53,-2.96,-2.91,-2.89
305.55,-2.66,0.19,-2.70,0.16,-0.14,-0.67,-0.56,-2.80,-2.84,-2.85
308.61,-2.61,0.22,-2.63,0.20,-0.15,-0.69,-0.59,-2.76,-2.78,-2.84
311.69,-2.60,0.22,-2.59,0.22,-0.17,-0.70,-0.62,-2.77,-2.76,-2.82
314.81,-2.60,0.18,-2.60,0.19,-0.18,-0.71,-0.65,-2.79,-2.78,-2.78
317.96,-2.59,0.18,-2.60,0.17,-0.20,-0.73,-0.68,-2.79,-2.80,-2.77
321.14,-2.59,0.16,-2.59,0.17,-0.21,-0.74,-0.71,-2.80,-2.80,-2.76
324.35,-2.55,0.19,-2.55,0.20,-0.22,-0.76,-0.75,-2.77,-2.77,-2.75
327.59,-2.50,0.23,-2.49,0.24,-0.23,-0.77,-0.78,-2.73,-2.72,-2.73
330.87,-2.42,0.30,-2.44,0.28,-0.25,-0.79,-0.82,-2.67,-2.69,-2.72
334.18,-2.40,0.31,-2.41,0.30,-0.27,-0.80,-0.85,-2.68,-2.69,-2.71
337.52,-2.40,0.30,-2.39,0.31,-0.31,-0.82,-0.89,-2.72,-2.70,-2.70
340.90,-2.37,0.31,-2.36,0.33,-0.36,-0.83,-0.93,-2.73,-2.72,-2.69
344.30,-2.29,0.38,-2.30,0.37,-0.41,-0.85,-0.97,-2.70,-2.71,-2.68
347.75,-2.22,0.45,-2.23,0.44,-0.46,-0.87,-1.00,-2.68,-2.69,-2.67
351.23,-2.15,0.51,-2.14,0.52,-0.51,-0.88,-1.05,-2.67,-2.66,-2.66
354.74,-2.07,0.59,-2.07,0.59,-0.57,-0.90,-1.09,-2.65,-2.64,-2.66
358.28,-1.99,0.66,-2.01,0.64,-0.63,-0.92,-1.13,-2.62,-2.64,-2.65
361.87,-1.96,0.69,-1.96,0.69,-0.68,-0.94,-1.17,-2.65,-2.64,-2.65
365.49,-1.94,0.70,-1.92,0.72,-0.72,-0.96,-1.22,-2.67,-2.65,-2.65
369.14,-1.88,0.76,-1.89,0.76,-0.74,-0.98,-1.26,-2.63,-2.64,-2.65
372.83,-1.86,0.79,-1.86,0.78,-0.75,-1.00,-1.31,-2.61,-2.61,-2.65
376.56,-1.85,0.80,-1.86,0.78,-0.75,-1.02,-1.35,-2.60,-2.61,-2.65
380.33,-1.87,0.76,-1.89,0.75,-0.74,-1.04,-1.40,-2.62,-2.63,-2.63
384.13,-1.94,0.70,-1.92,0.72,-0.74,-1.06,-1.45,-2.68,-2.66,-2.64
387.97,-1.95,0.69,-1.94,0.70,-0.73,-1.08,-1.49,-2.68,-2.67,-2.64
391.85,-1.93,0.71,-1.95,0.69,-0.73,-1.11,-1.54,-2.66,-2.68,-2.64
395.77,-1.93,0.70,-1.93,0.71,-0.72,-1.13,-1.59,-2.66,-2.65,-2.63
399.73,-1.92,0.71,-1.89,0.75,-0.73,-1.15,-1.64,-2.65,-2.62,-2.64
403.72,-1.83,0.81,-1.85,0.79,-0.76,-1.18,-1.69,-2.59,-2.61,-2.65
407.76,-1.80,0.84,-1.85,0.79,-0.79,-1.20,-1.74,-2.59,-2.64,-2.65
411.84,-1.86,0.77,-1.85,0.80,-0.83,-1.23,-1.79,-2.69,-2.68,-2.64
415.96,-1.88,0.77,-1.81,0.83,-0.87,-1.25,-1.84,-2.75,-2.68,-2.65
420.12,-1.72,0.93,-1.74,0.90,-0.90,-1.28,-1.89,-2.62,-2.65,-2.65
424.32,-1.61,1.03,-1.66,0.98,-0.93,-1.31,-1.94,-2.55,-2.60,-2.64
