frequency,raw,error,smoothed,error_smoothed,equalization,parametric_eq,fixed_band_eq,equalized_raw,equalized_smoothed,target
20.00,-10.80,-15.51,-10.80,-15.51,6.00,5.61,2.95,-4.80,-4.80,4.71
20.20,-10.69,-15.44,-10.69,-15.43,6.00,5.62,3.04,-4.69,-4.69,4.75
20.40,-10.57,-15.36,-10.57,-15.35,6.00,5.64,3.12,-4.57,-4.57,4.79
20.61,-10.46,-15.27,-10.46,-15.27,6.00,5.65,3.21,-4.46,-4.46,4.81
20.81,-10.34,-15.19,-10.34,-15.19,6.00,5.67,3.30,-4.34,-4.34,4.85
21.02,-10.23,-15.12,-10.22,-15.11,6.00,5.69,3.39,-4.23,-4.22,4.89
21.23,-10.11,-15.02,-10.11,-15.02,6.00,5.71,3.49,-4.11,-4.11,4.91
21.44,-9.99,-14.91,-9.99,-14.92,6.00,5.73,3.59,-3.99,-3.99,4.93
21.66,-9.88,-14.83,-9.87,-14.82,6.00,5.75,3.69,-3.88,-3.87,4.95
21.87,-9.76,-14.71,-9.76,-14.72,6.00,5.77,3.80,-3.76,-3.76,4.96
22.09,-9.64,-14.61,-9.64,-14.61,6.00,5.79,3.90,-3.64,-3.64,4.98
22.31,-9.52,-14.50,-9.52,-14.50,6.00,5.82,4.01,-3.52,-3.52,4.99
22.54,-9.41,-14.40,-9.41,-14.40,6.00,5.85,4.13,-3.41,-3.41,4.99
22.76,-9.29,-14.28,-9.29,-14.28,6.00,5.88,4.24,-3.29,-3.29,5.00
22.99,-9.18,-14.17,-9.17,-14.17,6.00,5.90,4.36,-3.18,-3.17,4.99
23.22,-9.05,-14.05,-9.05,-14.06,6.00,5.94,4.48,-3.05,-3.05,5.00
23.45,-8.93,-13.94,-8.93,-13.94,6.00,5.97,4.61,-2.93,-2.93,5.01
23.69,-8.81,-13.83,-8.81,-13.83,6.00,6.00,4.74,-2.81,-2.81,5.02
23.92,-8.69,-13.73,-8.69,-13.73,6.00,6.04,4.87,-2.69,-2.69,5.04
24.16,-8.57,-13.63,-8.57,-13.62,6.00,6.07,5.00,-2.57,-2.57,5.06
24.40,-8.45,-13.52,-8.44,-13.51,6.00,6.11,5.13,-2.45,-2.44,5.07
24.65,-8.32,-13.39,-8.32,-13.40,6.00,6.14,5.27,-2.32,-2.32,5.07
24.89,-8.20,-13.29,-8.20,-13.29,6.00,6.17,5.41,-2.20,-2.20,5.09
25.14,-8.08,-13.18,-8.08,-13.18,6.00,6.20,5.55,-2.08,-2.08,5.10
25.39,-7.96,-13.07,-7.96,-13.07,6.00,6.23,5.69,-1.96,-1.96,5.11
25.65,-7.84,-12.96,-7.83,-12.95,6.00,6.25,5.83,-1.84,-1.83,5.12
25.91,-7.71,-12.84,-7.71,-12.84,6.00,6.27,5.98,-1.71,-1.71,5.13
26.16,-7.59,-12.72,-7.59,-12.73,6.00,6.29,6.12,-1.59,-1.59,5.14
26.43,-7.47,-12.62,-7.47,-12.62,6.00,6.30,6.26,-1.47,-1.47,5.15
26.69,-7.34,-12.50,-7.34,-12.50,6.00,6.30,6.40,-1.34,-1.34,5.17
26.96,-7.22,-12.39,-7.22,-12.39,6.00,6.30,6.54,-1.22,-1.22,5.17
27.23,-7.09,-12.27,-7.09,-12.28,6.00,6.29,6.68,-1.09,-1.09,5.18
27.50,-6.97,-12.17,-6.97,-12.16,6.00,6.28,6.82,-0.97,-0.97,5.20
27.77,-6.84,-12.04,-6.84,-12.05,6.00,6.26,6.95,-0.84,-0.84,5.20
28.05,-6.72,-11.94,-6.72,-11.93,6.00,6.23,7.07,-0.72,-0.72,5.22
28.33,-6.60,-11.82,-6.59,-11.82,6.00,6.21,7.19,-0.60,-0.59,5.22
28.62,-6.47,-11.71,-6.47,-11.71,6.00,6.18,7.30,-0.47,-0.47,5.24
28.90,-6.35,-11.60,-6.35,-11.60,6.00,6.14,7.41,-0.35,-0.35,5.25
29.19,-6.23,-11.49,-6.22,-11.49,6.00,6.11,7.51,-0.23,-0.22,5.26
29.48,-6.10,-11.37,-6.10,-11.37,6.00,6.08,7.59,-0.10,-0.10,5.28
29.78,-5.97,-11.25,-5.97,-11.26,6.00,6.04,7.67,0.03,0.03,5.28
30.08,-5.85,-11.14,-5.85,-11.14,6.00,6.01,7.73,0.15,0.15,5.29
30.38,-5.72,-11.02,-5.72,-11.02,6.00,5.98,7.79,0.28,0.28,5.30
30.68,-5.59,-10.90,-5.59,-10.90,6.00,5.95,7.83,0.41,0.41,5.31
30.99,-5.47,-10.79,-5.47,-10.79,6.00,5.92,7.86,0.53,0.53,5.32
31.30,-5.34,-10.67,-5.34,-10.67,6.00,5.89,7.87,0.66,0.66,5.33
31.61,-5.22,-10.57,-5.22,-10.56,6.00,5.87,7.88,0.78,0.78,5.35
31.93,-5.10,-10.45,-5.10,-10.45,6.00,5.84,7.87,0.90,0.90,5.35
32.24,-4.98,-10.33,-4.98,-10.33,6.00,5.82,7.85,1.02,1.02,5.35
32.57,-4.85,-10.21,-4.85,-10.22,6.00,5.80,7.81,1.15,1.15,5.36
32.89,-4.73,-10.11,-4.73,-10.10,6.00,5.78,7.77,1.27,1.27,5.38
33.22,-4.61,-9.99,-4.61,-9.99,6.00,5.77,7.71,1.39,1.39,5.38
33.55,-4.49,-9.88,-4.49,-9.88,6.00,5.75,7.65,1.51,1.51,5.40
33.89,-4.38,-9.77,-4.37,-9.77,6.00,5.74,7.57,1.62,1.63,5.40
34.23,-4.26,-9.67,-4.26,-9.67,6.00,5.73,7.49,1.74,1.74,5.41
34.57,-4.14,-9.55,-4.14,-9.56,6.00,5.72,7.40,1.86,1.86,5.41
34.92,-4.03,-9.45,-4.03,-9.45,6.00,5.72,7.30,1.97,1.97,5.42
35.27,-3.91,-9.34,-3.91,-9.33,6.00,5.72,7.20,2.09,2.09,5.43
35.62,-3.79,-9.21,-3.79,-9.22,6.00,5.72,7.09,2.21,2.21,5.43
35.97,-3.67,-9.09,-3.67,-9.10,6.00,5.72,6.98,2.33,2.33,5.42
36.33,-3.56,-9.00,-3.55,-8.99,6.00,5.72,6.87,2.44,2.45,5.44
36.70,-3.44,-8.88,-3.44,-8.87,6.00,5.73,6.76,2.56,2.56,5.44
37.06,-3.33,-8.75,-3.32,-8.76,6.00,5.74,6.64,2.67,2.68,5.43
37.43,-3.21,-8.64,-3.21,-8.64,6.00,5.76,6.53,2.79,2.79,5.43
37.81,-3.09,-8.52,-3.09,-8.52,6.00,5.78,6.41,2.91,2.91,5.43
38.19,-2.98,-8.41,-2.97,-8.41,6.00,5.80,6.30,3.02,3.03,5.43
38.57,-2.86,-8.29,-2.86,-8.29,6.00,5.83,6.18,3.14,3.14,5.43
38.95,-2.75,-8.17,-2.75,-8.17,6.00,5.86,6.07,3.25,3.25,5.42
39.34,-2.64,-8.05,-2.64,-8.05,6.00,5.89,5.96,3.36,3.36,5.42
39.74,-2.53,-7.93,-2.52,-7.93,6.00,5.93,5.86,3.47,3.48,5.40
40.14,-2.41,-7.82,-2.41,-7.81,6.00,5.97,5.75,3.59,3.59,5.41
40.54,-2.29,-7.69,-2.29,-7.70,6.00,6.02,5.65,3.71,3.71,5.40
40.94,-2.18,-7.58,-2.18,-7.58,6.00,6.07,5.55,3.82,3.82,5.40
41.35,-2.07,-7.47,-2.07,-7.46,6.00,6.12,5.45,3.93,3.93,5.40
41.76,-1.96,-7.35,-1.96,-7.36,6.00,6.17,5.36,4.04,4.04,5.40
42.18,-1.85,-7.25,-1.85,-7.25,6.00,6.22,5.27,4.15,4.15,5.40
42.60,-1.75,-7.14,-1.74,-7.14,6.00,6.25,5.19,4.25,4.26,5.40
43.03,-1.64,-7.04,-1.64,-7.04,6.00,6.28,5.11,4.36,4.36,5.40
43.46,-1.54,-6.94,-1.54,-6.94,6.00,6.30,5.03,4.46,4.46,5.40
43.90,-1.44,-6.83,-1.44,-6.83,6.00,6.30,4.95,4.56,4.56,5.39
44.33,-1.34,-6.73,-1.34,-6.73,6.00,6.29,4.88,4.66,4.66,5.39
44.78,-1.24,-6.62,-1.24,-6.62,6.00,6.25,4.81,4.77,4.77,5.38
45.23,-1.14,-6.53,-1.14,-6.52,6.01,6.20,4.75,4.87,4.88,5.39
45.68,-1.03,-6.41,-1.03,-6.42,6.02,6.13,4.69,4.99,4.99,5.38
46.13,-0.93,-6.31,-0.93,-6.32,6.02,6.06,4.63,5.09,5.09,5.39
46.60,-0.83,-6.23,-0.83,-6.22,6.01,5.98,4.58,5.18,5.18,5.40
47.06,-0.73,-6.12,-0.73,-6.13,5.98,5.89,4.53,5.25,5.25,5.39
47.53,-0.63,-6.03,-0.63,-6.03,5.94,5.80,4.49,5.31,5.31,5.40
48.01,-0.53,-5.94,-0.53,-5.93,5.89,5.70,4.44,5.36,5.36,5.41
48.49,-0.43,-5.83,-0.43,-5.83,5.82,5.61,4.40,5.39,5.39,5.40
48.97,-0.33,-5.71,-0.33,-5.72,5.73,5.52,4.37,5.41,5.40,5.39
49.46,-0.24,-5.62,-0.24,-5.61,5.64,5.44,4.33,5.40,5.40,5.38
49.96,-0.15,-5.51,-0.15,-5.52,5.54,5.36,4.30,5.39,5.39,5.36
50.46,-0.06,-5.43,-0.06,-5.43,5.44,5.28,4.27,5.38,5.38,5.37
50.96,0.02,-5.34,0.03,-5.33,5.34,5.20,4.25,5.36,5.36,5.37
51.47,0.11,-5.24,0.11,-5.24,5.24,5.13,4.22,5.36,5.36,5.35
51.99,0.20,-5.15,0.20,-5.15,5.15,5.06,4.20,5.35,5.35,5.35
52.51,0.28,-5.07,0.28,-5.07,5.07,4.99,4.18,5.35,5.35,5.35
53.03,0.35,-4.99,0.36,-4.98,4.98,4.92,4.16,5.33,5.33,5.34
53.56,0.43,-4.90,0.43,-4.90,4.89,4.86,4.14,5.33,5.32,5.33
54.10,0.50,-4.81,0.50,-4.81,4.81,4.79,4.13,5.31,5.31,5.31
54.64,0.58,-4.72,0.58,-4.72,4.72,4.73,4.11,5.30,5.30,5.30
55.18,0.65,-4.64,0.65,-4.63,4.64,4.66,4.10,5.29,5.29,5.29
55.74,0.72,-4.55,0.72,-4.55,4.55,4.60,4.08,5.27,5.27,5.27
56.29,0.79,-4.47,0.79,-4.47,4.47,4.54,4.06,5.26,5.26,5.27
56.86,0.85,-4.39,0.86,-4.39,4.39,4.47,4.05,5.24,5.24,5.24
57.42,0.92,-4.30,0.92,-4.30,4.31,4.41,4.03,5.23,5.23,5.22
58.00,0.99,-4.22,0.99,-4.22,4.23,4.35,4.02,5.22,5.22,5.21
58.58,1.05,-4.15,1.05,-4.15,4.15,4.28,4.00,5.20,5.20,5.20
59.16,1.10,-4.08,1.11,-4.08,4.08,4.21,3.98,5.18,5.19,5.18
59.76,1.16,-4.01,1.16,-4.01,4.01,4.15,3.96,5.17,5.16,5.17
60.35,1.20,-3.94,1.20,-3.94,3.93,4.08,3.94,5.14,5.14,5.15
60.96,1.25,-3.87,1.25,-3.87,3.86,4.01,3.91,5.12,5.11,5.12
61.57,1.29,-3.79,1.29,-3.80,3.80,3.93,3.89,5.09,5.09,5.09
62.18,1.33,-3.73,1.34,-3.72,3.73,3.86,3.86,5.06,5.06,5.06
62.80,1.38,-3.65,1.38,-3.65,3.66,3.79,3.83,5.04,5.04,5.03
63.43,1.42,-3.59,1.42,-3.59,3.59,3.71,3.79,5.01,5.01,5.01
64.07,1.45,-3.53,1.46,-3.52,3.52,3.64,3.76,4.98,4.98,4.98
64.71,1.50,-3.46,1.50,-3.46,3.46,3.56,3.72,4.96,4.96,4.96
65.35,1.54,-3.39,1.54,-3.40,3.39,3.48,3.68,4.94,4.93,4.93
66.01,1.58,-3.33,1.58,-3.33,3.33,3.40,3.64,4.91,4.91,4.92
66.67,1.61,-3.28,1.62,-3.27,3.27,3.33,3.60,4.88,4.88,4.89
67.33,1.65,-3.21,1.65,-3.21,3.21,3.25,3.55,4.86,4.86,4.86
68.01,1.69,-3.15,1.69,-3.14,3.15,3.17,3.51,4.84,4.84,4.84
68.69,1.72,-3.09,1.72,-3.09,3.09,3.10,3.46,4.81,4.81,4.81
69.37,1.76,-3.02,1.76,-3.03,3.03,3.03,3.41,4.79,4.79,4.79
70.07,1.78,-2.98,1.79,-2.97,2.97,2.96,3.36,4.76,4.76,4.76
70.77,1.82,-2.92,1.82,-2.92,2.92,2.89,3.31,4.75,4.74,4.74
71.48,1.84,-2.88,1.84,-2.88,2.88,2.83,3.26,4.72,4.72,4.72
72.19,1.86,-2.83,1.86,-2.83,2.84,2.77,3.21,4.70,4.70,4.70
72.91,1.88,-2.79,1.88,-2.79,2.80,2.71,3.16,4.68,4.68,4.67
73.64,1.89,-2.75,1.89,-2.76,2.76,2.66,3.11,4.66,4.65,4.65
74.38,1.89,-2.74,1.90,-2.74,2.73,2.62,3.06,4.62,4.63,4.63
75.12,1.90,-2.71,1.91,-2.71,2.70,2.58,3.01,4.60,4.61,4.62
75.87,1.93,-2.68,1.93,-2.68,2.67,2.55,2.96,4.60,4.60,4.61
76.63,1.95,-2.64,1.95,-2.64,2.64,2.52,2.91,4.60,4.59,4.59
77.40,1.97,-2.61,1.97,-2.61,2.62,2.50,2.86,4.59,4.59,4.59
78.17,1.99,-2.58,1.99,-2.58,2.59,2.48,2.82,4.58,4.58,4.57
78.95,2.01,-2.56,2.01,-2.56,2.56,2.47,2.77,4.57,4.57,4.57
79.74,2.02,-2.54,2.02,-2.54,2.53,2.46,2.73,4.55,4.55,4.56
80.54,2.04,-2.51,2.04,-2.51,2.50,2.46,2.68,4.54,4.54,4.55
81.35,2.06,-2.48,2.07,-2.47,2.46,2.46,2.64,4.52,4.53,4.54
82.16,2.10,-2.43,2.10,-2.43,2.43,2.46,2.60,4.53,4.53,4.53
82.98,2.13,-2.40,2.13,-2.39,2.39,2.47,2.56,4.52,4.52,4.53
83.81,2.16,-2.34,2.16,-2.35,2.36,2.47,2.52,4.52,4.52,4.51
84.65,2.18,-2.32,2.18,-2.32,2.33,2.48,2.49,4.51,4.51,4.50
85.50,2.20,-2.30,2.20,-2.30,2.30,2.49,2.46,4.50,4.50,4.50
86.35,2.21,-2.28,2.21,-2.28,2.28,2.49,2.42,4.49,4.49,4.49
87.22,2.22,-2.26,2.22,-2.27,2.27,2.50,2.39,4.49,4.49,4.48
88.09,2.21,-2.26,2.21,-2.26,2.27,2.51,2.36,4.48,4.48,4.47
88.97,2.20,-2.27,2.20,-2.27,2.27,2.51,2.34,4.47,4.47,4.48
89.86,2.18,-2.28,2.18,-2.28,2.28,2.52,2.31,4.47,4.47,4.46
90.76,2.16,-2.28,2.16,-2.30,2.30,2.52,2.29,4.47,4.46,4.45
91.66,2.12,-2.33,2.13,-2.32,2.33,2.52,2.27,4.45,4.45,4.45
92.58,2.09,-2.34,2.09,-2.35,2.35,2.52,2.25,4.44,4.44,4.43
93.51,2.05,-2.39,2.05,-2.39,2.38,2.52,2.23,4.43,4.43,4.44
94.44,2.01,-2.42,2.01,-2.41,2.40,2.51,2.21,4.42,4.42,4.43
95.39,1.98,-2.44,1.98,-2.44,2.42,2.51,2.19,4.41,4.41,4.42
96.34,1.96,-2.44,1.96,-2.44,2.44,2.50,2.18,4.40,4.40,4.40
97.30,1.94,-2.45,1.94,-2.45,2.45,2.49,2.17,4.39,4.39,4.39
98.28,1.93,-2.45,1.93,-2.45,2.45,2.48,2.16,4.38,4.38,4.38
99.26,1.92,-2.44,1.92,-2.44,2.44,2.47,2.15,4.36,4.36,4.36
100.25,1.92,-2.43,1.92,-2.43,2.43,2.46,2.14,4.35,4.35,4.36
101.25,1.93,-2.41,1.93,-2.41,2.41,2.44,2.13,4.34,4.34,4.34
102.27,1.94,-2.38,1.94,-2.38,2.39,2.42,2.12,4.33,4.32,4.32
103.29,1.94,-2.35,1.94,-2.36,2.36,2.41,2.12,4.30,4.30,4.29
104.32,1.94,-2.34,1.94,-2.34,2.33,2.39,2.11,4.28,4.28,4.28
105.37,1.94,-2.31,1.95,-2.31,2.30,2.37,2.11,4.25,4.25,4.25
106.42,1.95,-2.28,1.95,-2.28,2.27,2.35,2.11,4.23,4.23,4.24
107.48,1.96,-2.25,1.96,-2.25,2.25,2.32,2.10,4.21,4.21,4.21
108.56,1.96,-2.21,1.96,-2.21,2.22,2.30,2.10,4.18,4.18,4.17
109.64,1.95,-2.19,1.95,-2.19,2.20,2.28,2.10,4.15,4.15,4.14
110.74,1.94,-2.16,1.94,-2.17,2.18,2.25,2.10,4.12,4.11,4.10
111.85,1.91,-2.16,1.92,-2.15,2.16,2.23,2.09,4.07,4.07,4.08
112.97,1.89,-2.14,1.89,-2.15,2.14,2.20,2.09,4.03,4.03,4.03
114.10,1.85,-2.14,1.85,-2.14,2.13,2.17,2.09,3.98,3.98,3.99
115.24,1.82,-2.13,1.83,-2.12,2.12,2.15,2.09,3.94,3.95,3.95
116.39,1.80,-2.10,1.80,-2.11,2.11,2.12,2.08,3.92,3.91,3.91
117.55,1.77,-2.10,1.77,-2.10,2.11,2.09,2.08,3.88,3.88,3.87
118.73,1.73,-2.09,1.73,-2.09,2.10,2.06,2.08,3.83,3.83,3.82
119.92,1.69,-2.10,1.69,-2.09,2.09,2.04,2.07,3.79,3.79,3.79
121.12,1.66,-2.09,1.66,-2.09,2.08,2.01,2.06,3.74,3.74,3.75
122.33,1.64,-2.07,1.64,-2.08,2.07,1.98,2.06,3.71,3.70,3.72
123.55,1.62,-2.07,1.63,-2.06,2.04,1.95,2.05,3.67,3.67,3.69
124.79,1.62,-2.03,1.62,-2.04,2.02,1.92,2.04,3.64,3.64,3.66
126.03,1.62,-2.00,1.62,-2.00,2.00,1.90,2.03,3.62,3.62,3.62
127.29,1.62,-1.97,1.62,-1.96,1.97,1.87,2.02,3.59,3.59,3.59
128.57,1.62,-1.92,1.62,-1.93,1.95,1.84,2.01,3.57,3.56,3.54
129.85,1.61,-1.91,1.61,-1.91,1.93,1.82,1.99,3.54,3.54,3.52
131.15,1.59,-1.90,1.59,-1.90,1.91,1.79,1.98,3.50,3.51,3.49
132.46,1.57,-1.90,1.57,-1.90,1.90,1.76,1.97,3.47,3.47,3.47
133.79,1.54,-1.90,1.54,-1.90,1.90,1.74,1.95,3.44,3.44,3.45
135.12,1.50,-1.91,1.51,-1.91,1.91,1.71,1.93,3.41,3.42,3.42
136.48,1.48,-1.91,1.48,-1.92,1.92,1.69,1.92,3.40,3.39,3.40
137.84,1.44,-1.93,1.44,-1.92,1.93,1.66,1.90,3.37,3.37,3.38
139.22,1.41,-1.92,1.41,-1.93,1.94,1.64,1.88,3.35,3.35,3.34
140.61,1.38,-1.94,1.38,-1.94,1.94,1.62,1.86,3.32,3.32,3.32
142.02,1.34,-1.97,1.35,-1.95,1.94,1.59,1.84,3.29,3.29,3.31
143.44,1.33,-1.95,1.33,-1.95,1.94,1.57,1.83,3.27,3.27,3.28
144.87,1.31,-1.94,1.31,-1.95,1.94,1.55,1.81,3.25,3.25,3.25
146.32,1.30,-1.93,1.30,-1.93,1.93,1.53,1.79,3.23,3.23,3.23
147.78,1.29,-1.92,1.29,-1.92,1.92,1.51,1.77,3.21,3.21,3.21
149.26,1.28,-1.91,1.28,-1.90,1.90,1.49,1.75,3.19,3.18,3.19
150.75,1.26,-1.89,1.27,-1.89,1.89,1.47,1.73,3.16,3.16,3.15
152.26,1.25,-1.87,1.25,-1.87,1.89,1.45,1.72,3.14,3.14,3.12
153.78,1.23,-1.86,1.23,-1.87,1.88,1.44,1.70,3.11,3.10,3.09
155.32,1.20,-1.86,1.20,-1.87,1.87,1.42,1.68,3.07,3.07,3.06
156.88,1.15,-1.89,1.16,-1.88,1.87,1.40,1.67,3.02,3.03,3.04
158.44,1.13,-1.88,1.13,-1.88,1.87,1.39,1.65,3.00,2.99,3.01
160.03,1.09,-1.87,1.10,-1.87,1.86,1.37,1.64,2.96,2.96,2.97
161.63,1.07,-1.86,1.07,-1.86,1.86,1.36,1.63,2.93,2.93,2.94
163.24,1.05,-1.84,1.05,-1.85,1.86,1.35,1.62,2.91,2.90,2.89
164.88,1.02,-1.85,1.03,-1.84,1.85,1.33,1.61,2.87,2.88,2.88
166.53,1.00,-1.83,1.00,-1.84,1.84,1.32,1.60,2.84,2.84,2.84
168.19,0.98,-1.83,0.98,-1.83,1.83,1.31,1.59,2.81,2.80,2.81
169.87,0.95,-1.82,0.96,-1.81,1.81,1.30,1.58,2.76,2.77,2.77
171.57,0.93,-1.80,0.93,-1.80,1.79,1.29,1.57,2.72,2.72,2.73
173.29,0.91,-1.77,0.91,-1.78,1.78,1.28,1.57,2.69,2.68,2.68
175.02,0.88,-1.77,0.89,-1.76,1.76,1.28,1.56,2.64,2.65,2.65
176.77,0.86,-1.74,0.86,-1.74,1.74,1.27,1.56,2.60,2.60,2.60
178.54,0.84,-1.70,0.84,-1.71,1.72,1.26,1.56,2.57,2.56,2.55
180.32,0.80,-1.70,0.80,-1.70,1.71,1.26,1.56,2.51,2.51,2.50
182.13,0.77,-1.68,0.77,-1.69,1.69,1.25,1.56,2.46,2.46,2.46
183.95,0.72,-1.68,0.73,-1.68,1.67,1.25,1.56,2.40,2.40,2.40
185.79,0.69,-1.67,0.69,-1.66,1.65,1.24,1.56,2.34,2.35,2.36
187.65,0.67,-1.63,0.67,-1.64,1.63,1.24,1.57,2.30,2.30,2.30
189.52,0.65,-1.61,0.65,-1.61,1.60,1.24,1.57,2.25,2.25,2.26
191.42,0.64,-1.58,0.64,-1.57,1.56,1.24,1.58,2.20,2.20,2.22
193.33,0.64,-1.53,0.64,-1.54,1.52,1.24,1.58,2.16,2.16,2.18
195.27,0.64,-1.49,0.64,-1.48,1.48,1.24,1.59,2.12,2.13,2.13
197.22,0.65,-1.43,0.65,-1.43,1.44,1.24,1.60,2.09,2.09,2.08
199.19,0.65,-1.38,0.65,-1.39,1.40,1.24,1.61,2.05,2.05,2.03
201.18,0.64,-1.35,0.64,-1.35,1.37,1.24,1.62,2.01,2.01,1.99
203.19,0.62,-1.34,0.62,-1.33,1.34,1.24,1.63,1.96,1.97,1.96
205.23,0.60,-1.32,0.60,-1.32,1.32,1.25,1.64,1.92,1.92,1.92
207.28,0.57,-1.32,0.57,-1.31,1.31,1.25,1.65,1.88,1.88,1.89
209.35,0.53,-1.31,0.54,-1.30,1.30,1.25,1.66,1.83,1.84,1.84
211.44,0.50,-1.29,0.50,-1.30,1.30,1.26,1.68,1.80,1.80,1.79
213.56,0.47,-1.29,0.46,-1.30,1.29,1.26,1.69,1.77,1.76,1.76
215.69,0.43,-1.30,0.43,-1.30,1.29,1.27,1.70,1.72,1.72,1.73
217.85,0.39,-1.30,0.40,-1.29,1.29,1.28,1.71,1.68,1.69,1.70
220.03,0.38,-1.28,0.38,-1.28,1.28,1.29,1.73,1.66,1.66,1.66
222.23,0.36,-1.27,0.36,-1.27,1.27,1.29,1.74,1.63,1.63,1.63
224.45,0.34,-1.27,0.34,-1.26,1.26,1.30,1.75,1.61,1.61,1.61
226.70,0.33,-1.26,0.33,-1.26,1.25,1.31,1.76,1.59,1.59,1.59
228.96,0.32,-1.25,0.32,-1.25,1.25,1.32,1.77,1.57,1.57,1.57
231.25,0.32,-1.24,0.32,-1.24,1.24,1.34,1.78,1.56,1.56,1.56
233.57,0.30,-1.24,0.30,-1.24,1.24,1.35,1.79,1.55,1.55,1.54
235.90,0.29,-1.25,0.29,-1.24,1.25,1.36,1.80,1.54,1.54,1.54
238.26,0.27,-1.25,0.27,-1.26,1.26,1.37,1.81,1.54,1.54,1.52
240.64,0.25,-1.27,0.25,-1.28,1.28,1.39,1.81,1.54,1.54,1.53
243.05,0.22,-1.31,0.22,-1.31,1.31,1.41,1.82,1.53,1.53,1.53
245.48,0.18,-1.34,0.18,-1.34,1.35,1.42,1.82,1.53,1.53,1.53
247.93,0.14,-1.39,0.14,-1.38,1.38,1.44,1.82,1.53,1.53,1.53
250.41,0.11,-1.41,0.11,-1.43,1.42,1.46,1.82,1.54,1.53,1.52
252.92,0.07,-1.48,0.08,-1.47,1.47,1.48,1.82,1.54,1.54,1.55
255.45,0.05,-1.51,0.05,-1.51,1.51,1.50,1.82,1.56,1.56,1.57
258.00,0.03,-1.54,0.03,-1.55,1.54,1.52,1.81,1.57,1.57,1.57
260.58,0.00,-1.57,0.01,-1.57,1.57,1.54,1.81,1.57,1.58,1.58
263.19,-0.01,-1.60,-0.01,-1.60,1.59,1.57,1.80,1.59,1.58,1.59
265.82,-0.02,-1.62,-0.02,-1.62,1.61,1.59,1.80,1.59,1.59,1.60
268.48,-0.02,-1.64,-0.02,-1.64,1.62,1.62,1.79,1.60,1.61,1.62
271.16,-0.01,-1.65,-0.00,-1.64,1.63,1.65,1.78,1.63,1.63,1.64
273.87,0.01,-1.64,0.01,-1.64,1.64,1.68,1.77,1.66,1.65,1.65
276.61,0.02,-1.64,0.02,-1.64,1.66,1.71,1.76,1.68,1.68,1.66
279.38,0.01,-1.66,0.02,-1.66,1.68,1.74,1.75,1.69,1.69,1.67
282.17,0.00,-1.69,0.00,-1.69,1.70,1.77,1.74,1.70,1.70,1.69
284.99,-0.02,-1.72,-0.02,-1.72,1.73,1.80,1.72,1.71,1.70,1.70
287.84,-0.06,-1.77,-0.05,-1.77,1.76,1.84,1.71,1.71,1.71,1.71
290.72,-0.09,-1.82,-0.09,-1.81,1.81,1.87,1.70,1.72,1.72,1.73
293.63,-0.12,-1.85,-0.12,-1.86,1.85,1.91,1.69,1.73,1.73,1.73
296.57,-0.15,-1.90,-0.15,-1.90,1.90,1.94,1.67,1.75,1.75,1.75
299.53,-0.19,-1.95,-0.19,-1.94,1.95,1.98,1.66,1.76,1.76,1.76
302.53,-0.22,-1.99,-0.22,-1.99,1.99,2.01,1.65,1.78,1.77,1.77
305.55,-0.26,-2.04,-0.26,-2.04,2.04,2.04,1.64,1.78,1.78,1.78
308.61,-0.29,-2.08,-0.28,-2.08,2.08,2.06,1.63,1.79,1.79,1.79
311.69,-0.31,-2.12,-0.31,-2.12,2.11,2.09,1.62,1.80,1.81,1.81
314.81,-0.32,-2.15,-0.32,-2.15,2.14,2.11,1.61,1.82,1.82,1.83
317.96,-0.34,-2.17,-0.34,-2.17,2.16,2.12,1.60,1.83,1.83,1.84
321.14,-0.35,-2.19,-0.35,-2.19,2.18,2.13,1.60,1.83,1.84,1.84
324.35,-0.35,-2.20,-0.35,-2.20,2.19,2.14,1.59,1.85,1.85,1.85
327.59,-0.34,-2.20,-0.34,-2.20,2.20,2.14,1.58,1.86,1.86,1.86
330.87,-0.33,-2.20,-0.33,-2.20,2.21,2.14,1.58,1.88,1.87,1.87
334.18,-0.33,-2.20,-0.33,-2.20,2.21,2.14,1.58,1.88,1.88,1.88
337.52,-0.33,-2.20,-0.33,-2.21,2.21,2.13,1.57,1.88,1.89,1.87
340.90,-0.33,-2.22,-0.33,-2.22,2.22,2.12,1.57,1.89,1.89,1.89
344.30,-0.33,-2.22,-0.33,-2.22,2.22,2.11,1.57,1.89,1.89,1.89
347.75,-0.33,-2.23,-0.33,-2.23,2.22,2.10,1.57,1.89,1.89,1.90
351.23,-0.33,-2.23,-0.33,-2.23,2.23,2.09,1.58,1.90,1.90,1.90
354.74,-0.33,-2.23,-0.33,-2.23,2.23,2.08,1.58,1.90,1.91,1.90
358.28,-0.33,-2.23,-0.33,-2.23,2.24,2.08,1.58,1.91,1.91,1.91
361.87,-0.33,-2.23,-0.33,-2.24,2.24,2.07,1.59,1.91,1.91,1.90
365.49,-0.34,-2.24,-0.34,-2.24,2.24,2.06,1.60,1.90,1.90,1.90
369.14,-0.35,-2.24,-0.35,-2.24,2.24,2.05,1.61,1.89,1.89,1.89
372.83,-0.35,-2.24,-0.35,-2.24,2.23,2.05,1.61,1.88,1.88,1.89
376.56,-0.34,-2.23,-0.34,-2.23,2.22,2.04,1.63,1.88,1.88,1.89
380.33,-0.32,-2.22,-0.32,-2.21,2.21,2.04,1.64,1.89,1.89,1.90
384.13,-0.30,-2.19,-0.30,-2.19,2.19,2.04,1.65,1.89,1.89,1.89
387.97,-0.28,-2.16,-0.28,-2.16,2.17,2.03,1.66,1.89,1.89,1.89
391.85,-0.26,-2.13,-0.26,-2.14,2.14,2.03,1.68,1.88,1.89,1.88
395.77,-0.23,-2.11,-0.23,-2.11,2.11,2.03,1.69,1.89,1.88,1.88
399.73,-0.21,-2.08,-0.21,-2.08,2.08,2.03,1.71,1.87,1.87,1.87
403.72,-0.18,-2.05,-0.17,-2.05,2.05,2.04,1.73,1.87,1.87,1.87
407.76,-0.14,-2.01,-0.14,-2.01,2.01,2.04,1.75,1.87,1.87,1.87
411.84,-0.09,-1.97,-0.09,-1.97,1.96,2.04,1.77,1.87,1.87,1.88
415.96,-0.05,-1.93,-0.05,-1.93,1.92,2.04,1.78,1.87,1.87,1.88
420.12,0.00,-1.88,0.00,-1.88,1.87,2.05,1.80,1.87,1.88,1.88
424.32,0.05,-1.83,0.05,-1.82,1.83,2.05,1.82,1.88,1.88,1.88
428.56,0.10,-1.77,0.10,-1.77,1.78,2.06,1.84,1.89,1.88,1.87
432.85,0.14,-1.73,0.14,-1.73,1.74,2.06,1.86,1.88,1.88,1.87
437.18,0.17,-1.69,0.17,-1.70,1.71,2.07,1.88,1.88,1.87,1.87
441.55,0.19,-1.68,0.20,-1.67,1.67,2.07,1.90,1.86,1.87,1.88
445.96,0.22,-1.65,0.22,-1.65,1.64,2.08,1.92,1.86,1.86,1.88
450.42,0.26,-1.60,0.25,-1.62,1.61,2.09,1.94,1.87,1.86,1.86
454.93,0.28,-1.59,0.28,-1.59,1.58,2.09,1.96,1.86,1.87,1.87
459.48,0.31,-1.56,0.31,-1.56,1.56,2.10,1.98,1.87,1.87,1.87
464.07,0.33,-1.54,0.33,-1.54,1.54,2.10,1.99,1.87,1.88,1.87
468.71,0.35,-1.53,0.35,-1.52,1.53,2.11,2.01,1.88,1.89,1.88
473.40,0.37,-1.50,0.36,-1.51,1.53,2.12,2.02,1.90,1.89,1.87
478.13,0.36,-1.52,0.36,-1.52,1.53,2.12,2.04,1.89,1.89,1.88
482.91,0.34,-1.54,0.34,-1.54,1.54,2.13,2.05,1.88,1.89,1.88
487.74,0.32,-1.56,0.32,-1.56,1.56,2.14,2.06,1.88,1.88,1.88
492.62,0.29,-1.60,0.29,-1.59,1.58,2.14,2.07,1.88,1.88,1.89
497.55,0.27,-1.61,0.27,-1.62,1.61,2.15,2.08,1.89,1.88,1.88
502.52,0.23,-1.66,0.24,-1.65,1.65,2.16,2.08,1.88,1.88,1.89
507.55,0.20,-1.68,0.20,-1.68,1.68,2.16,2.09,1.88,1.88,1.88
512.62,0.17,-1.71,0.17,-1.72,1.72,2.17,2.09,1.89,1.88,1.88
517.75,0.13,-1.76,0.13,-1.75,1.75,2.18,2.09,1.88,1.89,1.89
522.93,0.10,-1.79,0.10,-1.78,1.78,2.18,2.09,1.88,1.89,1.89
528.16,0.07,-1.81,0.07,-1.81,1.81,2.19,2.09,1.88,1.88,1.88
533.44,0.04,-1.84,0.04,-1.84,1.84,2.19,2.09,1.88,1.88,1.88
