frequency,raw,error,smoothed,error_smoothed,equalization,parametric_eq,fixed_band_eq,equalized_raw,equalized_smoothed,target
20.00,-1.08,-3.56,-1.08,-3.56,3.56,3.39,0.80,2.48,2.48,2.48
20.20,-1.04,-3.51,-1.04,-3.51,3.51,3.39,0.83,2.47,2.48,2.47
20.40,-1.00,-3.47,-1.00,-3.47,3.47,3.37,0.85,2.47,2.47,2.47
20.61,-0.96,-3.42,-0.96,-3.42,3.43,3.36,0.88,2.47,2.47,2.46
20.81,-0.91,-3.37,-0.92,-3.38,3.38,3.34,0.91,2.47,2.46,2.46
21.02,-0.88,-3.34,-0.88,-3.33,3.33,3.31,0.94,2.45,2.45,2.46
21.23,-0.84,-3.28,-0.84,-3.28,3.28,3.29,0.97,2.44,2.44,2.44
21.44,-0.81,-3.23,-0.81,-3.23,3.23,3.25,1.00,2.42,2.42,2.42
21.66,-0.78,-3.18,-0.78,-3.18,3.18,3.22,1.03,2.40,2.40,2.40
21.87,-0.75,-3.12,-0.75,-3.12,3.12,3.18,1.06,2.37,2.37,2.37
22.09,-0.71,-3.06,-0.71,-3.06,3.06,3.14,1.09,2.35,2.35,2.35
22.31,-0.68,-3.01,-0.68,-3.00,3.00,3.10,1.13,2.32,2.32,2.33
22.54,-0.65,-2.95,-0.65,-2.95,2.94,3.05,1.16,2.29,2.30,2.30
22.76,-0.61,-2.88,-0.61,-2.88,2.88,3.00,1.20,2.27,2.27,2.27
22.99,-0.58,-2.82,-0.58,-2.82,2.82,2.95,1.23,2.24,2.24,2.24
23.22,-0.55,-2.76,-0.55,-2.76,2.76,2.90,1.27,2.21,2.22,2.21
23.45,-0.51,-2.70,-0.51,-2.70,2.70,2.84,1.31,2.19,2.19,2.19
23.69,-0.47,-2.64,-0.47,-2.64,2.64,2.79,1.35,2.17,2.17,2.17
23.92,-0.44,-2.59,-0.44,-2.59,2.59,2.73,1.39,2.15,2.15,2.15
24.16,-0.40,-2.54,-0.40,-2.53,2.53,2.67,1.43,2.13,2.13,2.14
24.40,-0.37,-2.48,-0.37,-2.48,2.48,2.61,1.47,2.11,2.11,2.12
24.65,-0.33,-2.43,-0.33,-2.43,2.43,2.55,1.51,2.09,2.09,2.10
24.89,-0.30,-2.37,-0.30,-2.37,2.37,2.49,1.55,2.07,2.07,2.07
25.14,-0.26,-2.31,-0.26,-2.32,2.32,2.43,1.59,2.06,2.06,2.05
25.39,-0.23,-2.26,-0.23,-2.26,2.26,2.36,1.63,2.03,2.04,2.03
25.65,-0.19,-2.21,-0.19,-2.21,2.21,2.30,1.67,2.02,2.02,2.02
25.91,-0.16,-2.15,-0.16,-2.16,2.16,2.24,1.71,2.00,2.00,1.99
26.16,-0.12,-2.10,-0.12,-2.10,2.10,2.18,1.75,1.98,1.98,1.98
26.43,-0.09,-2.05,-0.09,-2.05,2.05,2.12,1.79,1.96,1.97,1.96
26.69,-0.05,-2.00,-0.05,-2.00,2.00,2.05,1.83,1.95,1.95,1.95
26.96,-0.02,-1.95,-0.02,-1.95,1.95,1.99,1.87,1.93,1.93,1.93
27.23,0.01,-1.91,0.01,-1.91,1.90,1.93,1.90,1.91,1.91,1.92
27.50,0.04,-1.86,0.04,-1.86,1.85,1.87,1.94,1.89,1.89,1.90
27.77,0.07,-1.81,0.07,-1.81,1.81,1.81,1.97,1.88,1.88,1.88
28.05,0.10,-1.77,0.10,-1.76,1.76,1.75,2.00,1.86,1.86,1.87
28.33,0.13,-1.71,0.13,-1.71,1.72,1.70,2.03,1.85,1.85,1.84
28.62,0.16,-1.67,0.16,-1.67,1.68,1.64,2.05,1.83,1.83,1.83
28.90,0.19,-1.63,0.19,-1.63,1.63,1.58,2.07,1.82,1.82,1.82
29.19,0.21,-1.59,0.21,-1.60,1.59,1.53,2.09,1.80,1.81,1.80
29.48,0.24,-1.56,0.24,-1.56,1.55,1.47,2.10,1.79,1.79,1.80
29.78,0.27,-1.51,0.27,-1.52,1.52,1.42,2.11,1.78,1.78,1.78
30.08,0.29,-1.48,0.29,-1.48,1.48,1.36,2.12,1.77,1.77,1.77
30.38,0.31,-1.44,0.31,-1.44,1.44,1.31,2.12,1.75,1.75,1.75
30.68,0.33,-1.40,0.33,-1.40,1.40,1.26,2.12,1.73,1.73,1.73
30.99,0.36,-1.35,0.35,-1.36,1.36,1.21,2.11,1.72,1.71,1.71
31.30,0.37,-1.33,0.38,-1.32,1.32,1.16,2.10,1.69,1.70,1.70
31.61,0.40,-1.29,0.40,-1.28,1.28,1.11,2.08,1.68,1.68,1.69
31.93,0.42,-1.23,0.42,-1.24,1.24,1.06,2.06,1.66,1.66,1.65
32.24,0.43,-1.20,0.44,-1.20,1.20,1.01,2.04,1.63,1.64,1.63
32.57,0.46,-1.15,0.45,-1.16,1.16,0.96,2.01,1.62,1.61,1.61
32.89,0.47,-1.13,0.48,-1.12,1.12,0.91,1.97,1.59,1.59,1.60
33.22,0.50,-1.07,0.50,-1.08,1.08,0.87,1.93,1.58,1.57,1.57
33.55,0.52,-1.04,0.52,-1.04,1.03,0.82,1.89,1.55,1.55,1.56
33.89,0.53,-1.00,0.54,-0.99,0.99,0.78,1.85,1.52,1.53,1.53
34.23,0.56,-0.95,0.56,-0.95,0.95,0.74,1.80,1.51,1.51,1.51
34.57,0.58,-0.90,0.58,-0.91,0.91,0.69,1.75,1.49,1.49,1.48
34.92,0.60,-0.86,0.60,-0.86,0.87,0.65,1.69,1.47,1.47,1.46
35.27,0.62,-0.83,0.62,-0.82,0.82,0.61,1.63,1.44,1.44,1.45
35.62,0.64,-0.79,0.64,-0.78,0.78,0.57,1.58,1.42,1.42,1.43
35.97,0.66,-0.73,0.66,-0.74,0.73,0.53,1.51,1.39,1.40,1.39
36.33,0.69,-0.69,0.69,-0.69,0.69,0.49,1.45,1.38,1.37,1.38
36.70,0.71,-0.65,0.71,-0.64,0.64,0.45,1.38,1.35,1.36,1.36
37.06,0.74,-0.59,0.74,-0.59,0.60,0.41,1.32,1.34,1.34,1.33
37.43,0.77,-0.54,0.77,-0.54,0.55,0.37,1.25,1.32,1.32,1.31
37.81,0.79,-0.50,0.79,-0.50,0.50,0.33,1.18,1.29,1.29,1.29
38.19,0.82,-0.45,0.82,-0.46,0.45,0.29,1.11,1.27,1.27,1.27
38.57,0.84,-0.42,0.84,-0.41,0.41,0.26,1.04,1.25,1.25,1.26
38.95,0.87,-0.36,0.87,-0.36,0.36,0.22,0.97,1.23,1.23,1.23
39.34,0.89,-0.32,0.89,-0.32,0.31,0.18,0.90,1.20,1.21,1.21
39.74,0.92,-0.26,0.92,-0.27,0.27,0.15,0.83,1.19,1.18,1.18
40.14,0.94,-0.22,0.94,-0.22,0.22,0.11,0.75,1.16,1.16,1.16
40.54,0.97,-0.17,0.97,-0.17,0.18,0.08,0.68,1.15,1.15,1.14
40.94,1.00,-0.13,1.00,-0.13,0.13,0.04,0.61,1.13,1.13,1.13
41.35,1.02,-0.08,1.02,-0.08,0.09,0.01,0.54,1.11,1.11,1.10
41.76,1.05,-0.04,1.05,-0.04,0.04,-0.03,0.47,1.09,1.09,1.09
42.18,1.07,-0.01,1.07,-0.00,-0.00,-0.06,0.39,1.07,1.07,1.08
42.60,1.10,0.05,1.10,0.04,-0.05,-0.10,0.32,1.05,1.05,1.05
43.03,1.13,0.08,1.13,0.09,-0.10,-0.13,0.25,1.03,1.03,1.05
43.46,1.16,0.14,1.16,0.14,-0.14,-0.16,0.18,1.02,1.02,1.02
43.90,1.19,0.20,1.19,0.19,-0.19,-0.20,0.11,1.00,1.00,0.99
44.33,1.21,0.25,1.21,0.24,-0.24,-0.23,0.04,0.97,0.97,0.96
44.78,1.23,0.28,1.23,0.29,-0.28,-0.26,-0.03,0.95,0.95,0.95
45.23,1.26,0.34,1.26,0.33,-0.33,-0.29,-0.10,0.93,0.93,0.92
45.68,1.28,0.37,1.28,0.38,-0.37,-0.33,-0.18,0.91,0.91,0.91
46.13,1.31,0.43,1.31,0.42,-0.41,-0.36,-0.25,0.90,0.90,0.88
46.60,1.33,0.45,1.33,0.45,-0.45,-0.39,-0.32,0.88,0.88,0.88
47.06,1.35,0.49,1.35,0.49,-0.49,-0.42,-0.39,0.86,0.86,0.86
47.53,1.37,0.52,1.37,0.53,-0.53,-0.46,-0.46,0.84,0.84,0.85
48.01,1.40,0.57,1.40,0.57,-0.58,-0.49,-0.53,0.82,0.82,0.83
48.49,1.42,0.62,1.42,0.62,-0.62,-0.52,-0.60,0.80,0.80,0.80
48.97,1.45,0.67,1.45,0.67,-0.67,-0.55,-0.66,0.78,0.77,0.78
49.46,1.47,0.72,1.47,0.72,-0.72,-0.58,-0.73,0.75,0.75,0.75
49.96,1.50,0.78,1.50,0.78,-0.77,-0.62,-0.80,0.73,0.73,0.72
50.46,1.53,0.83,1.53,0.83,-0.82,-0.65,-0.87,0.71,0.71,0.70
50.96,1.56,0.87,1.56,0.88,-0.87,-0.68,-0.94,0.69,0.69,0.69
51.47,1.58,0.92,1.58,0.92,-0.92,-0.71,-1.00,0.66,0.67,0.66
51.99,1.61,0.97,1.61,0.96,-0.96,-0.74,-1.07,0.65,0.64,0.64
52.51,1.63,1.00,1.63,1.00,-1.01,-0.78,-1.14,0.62,0.62,0.63
53.03,1.65,1.04,1.66,1.05,-1.05,-0.81,-1.20,0.60,0.60,0.61
53.56,1.68,1.10,1.68,1.09,-1.10,-0.84,-1.26,0.58,0.58,0.58
54.10,1.71,1.15,1.70,1.14,-1.14,-0.87,-1.33,0.57,0.56,0.56
54.64,1.72,1.18,1.73,1.18,-1.18,-0.91,-1.39,0.54,0.54,0.54
55.18,1.74,1.22,1.75,1.22,-1.22,-0.94,-1.45,0.52,0.52,0.52
55.74,1.77,1.27,1.76,1.26,-1.26,-0.97,-1.50,0.51,0.50,0.50
56.29,1.78,1.30,1.78,1.30,-1.29,-1.00,-1.56,0.49,0.49,0.48
56.86,1.79,1.33,1.79,1.33,-1.33,-1.04,-1.62,0.46,0.47,0.46
57.42,1.80,1.36,1.80,1.36,-1.35,-1.07,-1.67,0.45,0.45,0.44
58.00,1.81,1.39,1.81,1.39,-1.38,-1.10,-1.72,0.43,0.43,0.42
58.58,1.82,1.41,1.82,1.41,-1.41,-1.14,-1.77,0.41,0.41,0.41
59.16,1.83,1.43,1.83,1.44,-1.45,-1.17,-1.81,0.38,0.39,0.40
59.76,1.84,1.47,1.84,1.47,-1.48,-1.20,-1.86,0.36,0.36,0.37
60.35,1.87,1.52,1.86,1.51,-1.52,-1.24,-1.90,0.35,0.34,0.35
60.96,1.88,1.54,1.89,1.56,-1.57,-1.27,-1.93,0.31,0.32,0.34
61.57,1.92,1.62,1.92,1.61,-1.61,-1.30,-1.97,0.31,0.31,0.30
62.18,1.95,1.67,1.94,1.67,-1.66,-1.34,-2.00,0.29,0.29,0.28
62.80,1.97,1.71,1.97,1.72,-1.70,-1.37,-2.03,0.27,0.27,0.26
63.43,1.99,1.76,1.99,1.76,-1.75,-1.41,-2.06,0.24,0.24,0.23
64.07,2.01,1.79,2.01,1.79,-1.79,-1.44,-2.08,0.22,0.22,0.22
64.71,2.03,1.83,2.03,1.83,-1.83,-1.48,-2.11,0.20,0.20,0.20
65.35,2.04,1.86,2.04,1.86,-1.87,-1.51,-2.13,0.17,0.18,0.18
66.01,2.06,1.90,2.06,1.90,-1.90,-1.55,-2.14,0.16,0.16,0.16
66.67,2.08,1.94,2.08,1.94,-1.94,-1.58,-2.16,0.14,0.14,0.14
67.33,2.10,1.98,2.10,1.98,-1.98,-1.62,-2.17,0.12,0.12,0.12
68.01,2.12,2.02,2.12,2.02,-2.01,-1.65,-2.19,0.11,0.11,0.10
68.69,2.14,2.06,2.14,2.06,-2.05,-1.69,-2.20,0.09,0.08,0.08
69.37,2.15,2.09,2.15,2.09,-2.09,-1.73,-2.21,0.06,0.06,0.06
70.07,2.17,2.13,2.17,2.13,-2.13,-1.76,-2.21,0.04,0.04,0.04
70.77,2.19,2.16,2.19,2.16,-2.17,-1.80,-2.22,0.02,0.02,0.03
71.48,2.21,2.21,2.21,2.20,-2.21,-1.84,-2.23,0.00,-0.00,0.00
72.19,2.22,2.24,2.22,2.25,-2.25,-1.87,-2.23,-0.03,-0.02,-0.02
72.91,2.24,2.29,2.24,2.29,-2.29,-1.91,-2.24,-0.05,-0.05,-0.05
73.64,2.25,2.33,2.25,2.33,-2.32,-1.95,-2.24,-0.07,-0.07,-0.08
74.38,2.26,2.35,2.26,2.36,-2.36,-1.99,-2.25,-0.10,-0.10,-0.09
75.12,2.28,2.40,2.27,2.39,-2.39,-2.03,-2.26,-0.11,-0.12,-0.12
75.87,2.28,2.43,2.28,2.42,-2.43,-2.06,-2.26,-0.15,-0.14,-0.15
76.63,2.29,2.45,2.29,2.46,-2.46,-2.10,-2.27,-0.17,-0.17,-0.16
77.40,2.29,2.48,2.29,2.49,-2.49,-2.14,-2.28,-0.20,-0.19,-0.19
78.17,2.29,2.52,2.29,2.52,-2.51,-2.18,-2.29,-0.22,-0.22,-0.23
78.95,2.30,2.55,2.29,2.54,-2.54,-2.22,-2.30,-0.24,-0.25,-0.25
79.74,2.29,2.56,2.29,2.57,-2.57,-2.26,-2.31,-0.28,-0.27,-0.27
80.54,2.29,2.59,2.29,2.59,-2.60,-2.30,-2.32,-0.31,-0.30,-0.30
81.35,2.30,2.63,2.29,2.62,-2.62,-2.34,-2.34,-0.32,-0.33,-0.33
82.16,2.29,2.65,2.29,2.65,-2.65,-2.38,-2.36,-0.36,-0.36,-0.36
82.98,2.29,2.67,2.29,2.68,-2.68,-2.42,-2.37,-0.39,-0.39,-0.38
83.81,2.29,2.71,2.29,2.71,-2.71,-2.46,-2.39,-0.42,-0.42,-0.42
84.65,2.28,2.74,2.28,2.74,-2.73,-2.50,-2.41,-0.45,-0.45,-0.46
85.50,2.28,2.76,2.28,2.76,-2.76,-2.54,-2.44,-0.48,-0.48,-0.48
86.35,2.27,2.78,2.27,2.79,-2.79,-2.58,-2.46,-0.52,-0.52,-0.52
87.22,2.26,2.81,2.26,2.81,-2.81,-2.62,-2.49,-0.55,-0.55,-0.55
88.09,2.26,2.84,2.26,2.84,-2.84,-2.66,-2.52,-0.58,-0.58,-0.58
88.97,2.26,2.87,2.26,2.87,-2.86,-2.70,-2.55,-0.60,-0.61,-0.61
89.86,2.25,2.89,2.25,2.89,-2.89,-2.74,-2.58,-0.64,-0.64,-0.64
90.76,2.24,2.92,2.24,2.92,-2.92,-2.78,-2.62,-0.68,-0.68,-0.68
91.66,2.23,2.94,2.23,2.94,-2.95,-2.82,-2.66,-0.72,-0.71,-0.71
92.58,2.23,2.98,2.23,2.97,-2.98,-2.86,-2.69,-0.75,-0.75,-0.76
93.51,2.22,2.99,2.23,3.00,-3.01,-2.90,-2.73,-0.79,-0.78,-0.77
94.44,2.23,3.04,2.22,3.04,-3.04,-2.95,-2.78,-0.81,-0.81,-0.81
95.39,2.22,3.07,2.22,3.07,-3.07,-2.99,-2.82,-0.85,-0.85,-0.85
96.34,2.21,3.11,2.21,3.10,-3.10,-3.03,-2.87,-0.89,-0.89,-0.90
97.30,2.20,3.13,2.20,3.14,-3.14,-3.07,-2.92,-0.94,-0.93,-0.93
98.28,2.20,3.17,2.20,3.17,-3.17,-3.11,-2.97,-0.97,-0.97,-0.97
99.26,2.19,3.20,2.19,3.20,-3.20,-3.15,-3.02,-1.01,-1.01,-1.01
100.25,2.18,3.23,2.18,3.23,-3.23,-3.19,-3.07,-1.05,-1.05,-1.05
101.25,2.16,3.25,2.16,3.25,-3.25,-3.23,-3.12,-1.09,-1.09,-1.09
102.27,2.14,3.27,2.14,3.28,-3.28,-3.27,-3.17,-1.14,-1.13,-1.13
103.29,2.12,3.31,2.12,3.30,-3.30,-3.31,-3.23,-1.18,-1.18,-1.19
104.32,2.10,3.32,2.10,3.32,-3.32,-3.35,-3.28,-1.22,-1.22,-1.22
105.37,2.07,3.34,2.07,3.34,-3.34,-3.39,-3.34,-1.27,-1.26,-1.27
106.42,2.04,3.35,2.04,3.35,-3.35,-3.43,-3.39,-1.31,-1.31,-1.31
107.48,2.02,3.37,2.02,3.37,-3.37,-3.47,-3.45,-1.35,-1.36,-1.35
108.56,1.99,3.40,1.99,3.39,-3.39,-3.51,-3.50,-1.40,-1.40,-1.41
109.64,1.97,3.41,1.97,3.41,-3.41,-3.54,-3.56,-1.44,-1.45,-1.45
110.74,1.94,3.43,1.94,3.43,-3.43,-3.58,-3.61,-1.49,-1.49,-1.49
111.85,1.91,3.44,1.91,3.45,-3.46,-3.62,-3.66,-1.55,-1.55,-1.53
112.97,1.89,3.49,1.89,3.48,-3.48,-3.66,-3.71,-1.59,-1.60,-1.60
114.10,1.86,3.50,1.87,3.51,-3.51,-3.69,-3.76,-1.65,-1.64,-1.64
115.24,1.85,3.54,1.85,3.54,-3.54,-3.73,-3.80,-1.69,-1.69,-1.69
116.39,1.83,3.57,1.83,3.56,-3.56,-3.77,-3.84,-1.73,-1.73,-1.74
117.55,1.80,3.58,1.81,3.59,-3.58,-3.80,-3.88,-1.78,-1.78,-1.78
118.73,1.78,3.61,1.78,3.61,-3.60,-3.83,-3.92,-1.82,-1.82,-1.83
119.92,1.75,3.62,1.75,3.62,-3.61,-3.87,-3.95,-1.86,-1.87,-1.87
121.12,1.71,3.63,1.72,3.63,-3.63,-3.90,-3.98,-1.92,-1.91,-1.92
122.33,1.68,3.64,1.68,3.64,-3.64,-3.93,-4.00,-1.96,-1.96,-1.96
123.55,1.65,3.65,1.65,3.64,-3.65,-3.97,-4.02,-2.00,-2.00,-2.00
124.79,1.61,3.64,1.61,3.65,-3.66,-4.00,-4.04,-2.05,-2.04,-2.03
126.03,1.58,3.66,1.58,3.66,-3.67,-4.03,-4.05,-2.09,-2.09,-2.08
127.29,1.55,3.67,1.55,3.67,-3.68,-4.06,-4.06,-2.13,-2.13,-2.12
128.57,1.53,3.70,1.53,3.70,-3.69,-4.08,-4.06,-2.16,-2.16,-2.17
129.85,1.51,3.72,1.51,3.72,-3.71,-4.11,-4.06,-2.20,-2.20,-2.21
131.15,1.49,3.73,1.49,3.73,-3.73,-4.14,-4.06,-2.24,-2.24,-2.24
132.46,1.47,3.75,1.47,3.75,-3.75,-4.17,-4.05,-2.28,-2.28,-2.28
133.79,1.46,3.77,1.46,3.77,-3.77,-4.19,-4.04,-2.31,-2.31,-2.31
135.12,1.45,3.80,1.45,3.79,-3.79,-4.21,-4.02,-2.34,-2.35,-2.35
136.48,1.44,3.81,1.44,3.81,-3.81,-4.24,-4.01,-2.37,-2.37,-2.37
137.84,1.43,3.83,1.43,3.84,-3.83,-4.26,-3.99,-2.40,-2.40,-2.40
139.22,1.43,3.86,1.43,3.86,-3.85,-4.28,-3.97,-2.42,-2.43,-2.43
140.61,1.42,3.88,1.42,3.88,-3.87,-4.30,-3.95,-2.45,-2.45,-2.46
142.02,1.42,3.89,1.42,3.89,-3.89,-4.32,-3.92,-2.47,-2.47,-2.47
143.44,1.41,3.91,1.41,3.91,-3.91,-4.33,-3.90,-2.50,-2.49,-2.50
144.87,1.41,3.92,1.41,3.92,-3.92,-4.35,-3.87,-2.51,-2.51,-2.51
146.32,1.41,3.94,1.41,3.94,-3.94,-4.37,-3.85,-2.53,-2.53,-2.53
147.78,1.40,3.95,1.40,3.95,-3.95,-4.38,-3.82,-2.55,-2.55,-2.55
149.26,1.40,3.96,1.40,3.97,-3.96,-4.39,-3.80,-2.56,-2.57,-2.56
150.75,1.39,3.99,1.39,3.98,-3.97,-4.40,-3.77,-2.58,-2.58,-2.60
152.26,1.37,3.98,1.37,3.98,-3.98,-4.41,-3.75,-2.61,-2.60,-2.61
153.78,1.36,3.98,1.36,3.99,-3.98,-4.42,-3.73,-2.62,-2.62,-2.62
155.32,1.34,3.99,1.34,3.98,-3.99,-4.43,-3.71,-2.65,-2.65,-2.65
156.88,1.32,3.98,1.32,3.98,-3.99,-4.44,-3.69,-2.67,-2.67,-2.66
158.44,1.30,3.98,1.30,3.99,-3.99,-4.44,-3.67,-2.69,-2.69,-2.68
160.03,1.29,3.99,1.29,3.99,-4.00,-4.45,-3.65,-2.71,-2.71,-2.70
161.63,1.27,4.00,1.27,4.00,-4.00,-4.45,-3.64,-2.73,-2.73,-2.73
163.24,1.26,4.01,1.26,4.01,-4.01,-4.45,-3.63,-2.75,-2.75,-2.75
164.88,1.25,4.01,1.25,4.02,-4.02,-4.45,-3.62,-2.77,-2.77,-2.76
166.53,1.24,4.02,1.24,4.02,-4.03,-4.45,-3.61,-2.79,-2.79,-2.78
168.19,1.22,4.03,1.23,4.03,-4.03,-4.45,-3.61,-2.81,-2.81,-2.81
169.87,1.21,4.04,1.21,4.04,-4.04,-4.45,-3.61,-2.83,-2.83,-2.83
171.57,1.20,4.06,1.19,4.05,-4.05,-4.44,-3.61,-2.85,-2.85,-2.86
173.29,1.17,4.05,1.18,4.05,-4.05,-4.44,-3.61,-2.88,-2.88,-2.88
175.02,1.16,4.06,1.15,4.06,-4.06,-4.43,-3.62,-2.90,-2.91,-2.90
176.77,1.13,4.07,1.13,4.07,-4.07,-4.42,-3.63,-2.94,-2.94,-2.94
178.54,1.10,4.07,1.11,4.07,-4.07,-4.41,-3.64,-2.97,-2.97,-2.97
180.32,1.08,4.08,1.08,4.08,-4.08,-4.40,-3.66,-3.00,-3.00,-3.00
182.13,1.05,4.07,1.05,4.08,-4.08,-4.39,-3.68,-3.03,-3.03,-3.02
183.95,1.02,4.09,1.02,4.09,-4.09,-4.38,-3.70,-3.07,-3.06,-3.07
185.79,1.00,4.09,1.00,4.09,-4.09,-4.37,-3.72,-3.09,-3.09,-3.09
187.65,0.98,4.10,0.98,4.10,-4.10,-4.35,-3.75,-3.12,-3.12,-3.12
189.52,0.95,4.10,0.96,4.11,-4.10,-4.34,-3.78,-3.16,-3.15,-3.15
191.42,0.94,4.12,0.93,4.11,-4.11,-4.32,-3.81,-3.17,-3.18,-3.18
193.33,0.91,4.11,0.91,4.11,-4.12,-4.30,-3.85,-3.21,-3.21,-3.20
195.27,0.89,4.12,0.89,4.12,-4.13,-4.29,-3.88,-3.24,-3.24,-3.23
197.22,0.87,4.13,0.87,4.13,-4.13,-4.27,-3.92,-3.26,-3.26,-3.26
199.19,0.86,4.16,0.86,4.15,-4.14,-4.25,-3.96,-3.28,-3.28,-3.30
201.18,0.85,4.16,0.84,4.15,-4.15,-4.23,-4.00,-3.30,-3.30,-3.31
203.19,0.82,4.15,0.82,4.15,-4.15,-4.21,-4.04,-3.33,-3.33,-3.33
205.23,0.80,4.16,0.80,4.15,-4.16,-4.19,-4.09,-3.36,-3.35,-3.36
207.28,0.79,4.15,0.79,4.16,-4.16,-4.17,-4.13,-3.37,-3.37,-3.36
209.35,0.78,4.17,0.78,4.17,-4.17,-4.15,-4.18,-3.39,-3.39,-3.39
211.44,0.77,4.18,0.77,4.17,-4.17,-4.12,-4.22,-3.40,-3.40,-3.41
213.56,0.75,4.17,0.75,4.17,-4.17,-4.10,-4.27,-3.42,-3.42,-3.42
215.69,0.74,4.16,0.74,4.17,-4.17,-4.08,-4.31,-3.43,-3.43,-3.42
217.85,0.73,4.17,0.73,4.17,-4.17,-4.06,-4.35,-3.44,-3.44,-3.44
220.03,0.73,4.18,0.73,4.18,-4.17,-4.03,-4.39,-3.44,-3.44,-3.45
222.23,0.73,4.18,0.73,4.17,-4.17,-4.01,-4.43,-3.44,-3.44,-3.45
224.45,0.72,4.16,0.72,4.17,-4.16,-3.99,-4.47,-3.44,-3.44,-3.44
226.70,0.71,4.15,0.71,4.15,-4.15,-3.97,-4.50,-3.44,-3.44,-3.44
228.96,0.71,4.15,0.71,4.14,-4.14,-3.95,-4.53,-3.43,-3.44,-3.44
231.25,0.70,4.12,0.70,4.13,-4.13,-3.93,-4.56,-3.43,-3.43,-3.42
233.57,0.70,4.12,0.70,4.12,-4.12,-3.90,-4.58,-3.42,-3.42,-3.42
235.90,0.70,4.10,0.70,4.10,-4.10,-3.88,-4.60,-3.40,-3.40,-3.40
238.26,0.70,4.10,0.70,4.09,-4.09,-3.86,-4.61,-3.39,-3.39,-3.40
240.64,0.69,4.07,0.69,4.07,-4.07,-3.85,-4.62,-3.38,-3.38,-3.38
243.05,0.69,4.05,0.69,4.04,-4.05,-3.83,-4.62,-3.36,-3.36,-3.36
245.48,0.68,4.02,0.68,4.02,-4.02,-3.81,-4.61,-3.34,-3.34,-3.34
247.93,0.68,3.99,0.68,4.00,-4.00,-3.79,-4.60,-3.32,-3.31,-3.31
250.41,0.68,3.99,0.68,3.97,-3.97,-3.78,-4.58,-3.29,-3.29,-3.31
252.92,0.67,3.94,0.67,3.94,-3.94,-3.77,-4.55,-3.27,-3.27,-3.27
255.45,0.65,3.89,0.66,3.91,-3.90,-3.75,-4.52,-3.25,-3.25,-3.24
258.00,0.64,3.87,0.64,3.87,-3.87,-3.74,-4.48,-3.23,-3.23,-3.23
260.58,0.64,3.84,0.63,3.84,-3.84,-3.73,-4.44,-3.20,-3.21,-3.20
263.19,0.62,3.80,0.63,3.81,-3.80,-3.72,-4.39,-3.18,-3.18,-3.18
265.82,0.62,3.78,0.62,3.77,-3.77,-3.71,-4.33,-3.15,-3.15,-3.16
268.48,0.61,3.73,0.61,3.74,-3.74,-3.70,-4.27,-3.13,-3.13,-3.12
271.16,0.60,3.70,0.60,3.70,-3.71,-3.69,-4.20,-3.11,-3.11,-3.10
273.87,0.59,3.67,0.59,3.67,-3.67,-3.68,-4.13,-3.08,-3.08,-3.08
276.61,0.58,3.63,0.58,3.64,-3.64,-3.67,-4.06,-3.06,-3.06,-3.05
279.38,0.58,3.62,0.58,3.61,-3.61,-3.65,-3.98,-3.03,-3.03,-3.04
282.17,0.57,3.58,0.57,3.58,-3.57,-3.64,-3.90,-3.00,-3.01,-3.01
284.99,0.55,3.53,0.55,3.54,-3.54,-3.62,-3.81,-2.99,-2.98,-2.98
287.84,0.54,3.50,0.54,3.50,-3.50,-3.59,-3.72,-2.96,-2.96,-2.96
290.72,0.54,3.47,0.54,3.46,-3.47,-3.57,-3.63,-2.93,-2.93,-2.93
293.63,0.53,3.43,0.53,3.43,-3.43,-3.53,-3.54,-2.90,-2.90,-2.90
296.57,0.52,3.39,0.52,3.40,-3.39,-3.50,-3.45,-2.87,-2.87,-2.87
299.53,0.51,3.36,0.51,3.36,-3.35,-3.45,-3.35,-2.84,-2.85,-2.85
302.53,0.50,3.33,0.50,3.32,-3.31,-3.41,-3.26,-2.81,-2.81,-2.83
305.55,0.48,3.26,0.49,3.27,-3.27,-3.35,-3.16,-2.79,-2.78,-2.78
308.61,0.48,3.23,0.48,3.23,-3.22,-3.30,-3.07,-2.74,-2.75,-2.75
311.69,0.46,3.17,0.46,3.17,-3.17,-3.24,-2.97,-2.71,-2.71,-2.71
314.81,0.45,3.12,0.45,3.12,-3.12,-3.18,-2.88,-2.67,-2.68,-2.67
317.96,0.42,3.07,0.42,3.07,-3.07,-3.11,-2.78,-2.65,-2.65,-2.65
321.14,0.40,3.02,0.40,3.02,-3.02,-3.04,-2.69,-2.62,-2.62,-2.62
324.35,0.38,2.97,0.38,2.97,-2.97,-2.97,-2.60,-2.59,-2.59,-2.59
327.59,0.35,2.91,0.35,2.92,-2.92,-2.91,-2.51,-2.57,-2.57,-2.56
330.87,0.33,2.87,0.33,2.87,-2.87,-2.84,-2.41,-2.54,-2.54,-2.54
334.18,0.30,2.82,0.31,2.82,-2.82,-2.77,-2.33,-2.52,-2.52,-2.52
337.52,0.29,2.79,0.28,2.78,-2.78,-2.70,-2.24,-2.49,-2.49,-2.50
340.90,0.26,2.73,0.26,2.73,-2.73,-2.64,-2.15,-2.47,-2.47,-2.47
344.30,0.23,2.68,0.23,2.68,-2.68,-2.57,-2.06,-2.45,-2.45,-2.45
347.75,0.20,2.63,0.20,2.63,-2.63,-2.51,-1.98,-2.43,-2.43,-2.43
351.23,0.17,2.58,0.17,2.58,-2.58,-2.44,-1.90,-2.41,-2.41,-2.41
354.74,0.14,2.54,0.14,2.53,-2.53,-2.38,-1.81,-2.39,-2.39,-2.40
358.28,0.10,2.48,0.10,2.48,-2.48,-2.32,-1.73,-2.38,-2.38,-2.38
361.87,0.06,2.42,0.06,2.42,-2.43,-2.26,-1.66,-2.37,-2.36,-2.36
365.49,0.03,2.37,0.02,2.37,-2.37,-2.21,-1.58,-2.34,-2.35,-2.34
369.14,-0.01,2.32,-0.01,2.32,-2.32,-2.15,-1.50,-2.33,-2.33,-2.33
372.83,-0.05,2.26,-0.04,2.27,-2.27,-2.10,-1.43,-2.32,-2.31,-2.31
376.56,-0.07,2.23,-0.08,2.22,-2.21,-2.04,-1.35,-2.28,-2.29,-2.30
380.33,-0.12,2.15,-0.11,2.16,-2.16,-1.99,-1.28,-2.28,-2.27,-2.27
384.13,-0.15,2.10,-0.15,2.11,-2.10,-1.94,-1.21,-2.25,-2.25,-2.25
387.97,-0.19,2.04,-0.19,2.04,-2.05,-1.89,-1.14,-2.24,-2.24,-2.23
391.85,-0.23,1.99,-0.23,1.99,-1.99,-1.84,-1.07,-2.22,-2.22,-2.23
395.77,-0.27,1.93,-0.27,1.93,-1.93,-1.79,-1.01,-2.20,-2.20,-2.20
399.73,-0.30,1.88,-0.31,1.87,-1.87,-1.75,-0.94,-2.17,-2.18,-2.18
403.72,-0.35,1.81,-0.35,1.81,-1.81,-1.70,-0.88,-2.16,-2.16,-2.16
407.76,-0.39,1.75,-0.39,1.75,-1.75,-1.66,-0.82,-2.14,-2.14,-2.14
411.84,-0.43,1.68,-0.43,1.68,-1.69,-1.61,-0.76,-2.12,-2.12,-2.11
415.96,-0.46,1.63,-0.46,1.63,-1.63,-1.57,-0.70,-2.09,-2.09,-2.09
420.12,-0.50,1.57,-0.50,1.57,-1.57,-1.52,-0.64,-2.07,-2.07,-2.07
424.32,-0.54,1.51,-0.54,1.51,-1.51,-1.48,-0.58,-2.05,-2.05,-2.05
428.56,-0.58,1.45,-0.58,1.45,-1.45,-1.43,-0.53,-2.03,-2.03,-2.03
432.85,-0.62,1.39,-0.62,1.39,-1.39,-1.39,-0.47,-2.01,-2.01,-2.01
437.18,-0.66,1.32,-0.66,1.32,-1.33,-1.35,-0.42,-1.99,-1.98,-1.98
441.55,-0.69,1.26,-0.70,1.26,-1.26,-1.31,-0.37,-1.95,-1.96,-1.95
445.96,-0.74,1.19,-0.73,1.20,-1.20,-1.26,-0.33,-1.94,-1.93,-1.93
450.42,-0.77,1.14,-0.77,1.13,-1.13,-1.22,-0.28,-1.90,-1.90,-1.91
454.93,-0.81,1.06,-0.81,1.07,-1.07,-1.18,-0.24,-1.88,-1.88,-1.87
459.48,-0.85,1.00,-0.85,1.00,-1.00,-1.14,-0.20,-1.85,-1.85,-1.85
464.07,-0.89,0.93,-0.89,0.93,-0.94,-1.09,-0.16,-1.83,-1.83,-1.82
468.71,-0.93,0.87,-0.93,0.87,-0.87,-1.05,-0.12,-1.80,-1.80,-1.80
473.40,-0.96,0.81,-0.96,0.80,-0.80,-1.01,-0.09,-1.76,-1.77,-1.77
478.13,-1.00,0.74,-1.00,0.74,-0.74,-0.96,-0.05,-1.74,-1.74,-1.74
482.91,-1.04,0.68,-1.04,0.68,-0.68,-0.92,-0.02,-1.72,-1.71,-1.72
487.74,-1.07,0.62,-1.07,0.62,-0.61,-0.88,0.00,-1.68,-1.68,-1.69
492.62,-1.10,0.56,-1.10,0.55,-0.55,-0.83,0.03,-1.65,-1.65,-1.66
