frequency,raw,error,smoothed,error_smoothed,equalization,parametric_eq,fixed_band_eq,equalized_raw,equalized_smoothed,target
20.00,3.82,-2.95,3.82,-2.95,2.94,2.60,1.14,6.76,6.76,6.77
20.20,3.83,-2.92,3.83,-2.92,2.92,2.61,1.17,6.75,6.75,6.75
20.40,3.84,-2.90,3.84,-2.90,2.90,2.62,1.21,6.74,6.74,6.74
20.61,3.86,-2.88,3.85,-2.87,2.88,2.63,1.24,6.73,6.73,6.73
20.81,3.87,-2.85,3.87,-2.85,2.85,2.64,1.28,6.72,6.72,6.71
21.02,3.88,-2.83,3.88,-2.83,2.83,2.65,1.32,6.71,6.71,6.70
21.23,3.89,-2.81,3.89,-2.81,2.81,2.66,1.36,6.70,6.70,6.69
21.44,3.90,-2.81,3.90,-2.80,2.80,2.66,1.40,6.69,6.69,6.70
21.66,3.91,-2.79,3.91,-2.78,2.78,2.67,1.44,6.69,6.68,6.69
21.87,3.92,-2.76,3.92,-2.77,2.76,2.68,1.49,6.68,6.68,6.68
22.09,3.93,-2.74,3.93,-2.74,2.74,2.68,1.53,6.67,6.68,6.67
22.31,3.95,-2.72,3.94,-2.72,2.73,2.69,1.58,6.68,6.67,6.67
22.54,3.96,-2.70,3.96,-2.71,2.71,2.69,1.63,6.67,6.67,6.66
22.76,3.97,-2.70,3.97,-2.70,2.70,2.70,1.67,6.66,6.66,6.67
22.99,3.98,-2.68,3.98,-2.68,2.68,2.70,1.72,6.66,6.66,6.66
23.22,3.99,-2.66,3.99,-2.67,2.66,2.71,1.77,6.65,6.65,6.65
23.45,4.00,-2.65,4.00,-2.65,2.65,2.71,1.83,6.65,6.65,6.65
23.69,4.01,-2.64,4.01,-2.64,2.64,2.71,1.88,6.65,6.65,6.65
23.92,4.03,-2.62,4.02,-2.62,2.63,2.71,1.93,6.65,6.65,6.65
24.16,4.04,-2.61,4.04,-2.61,2.61,2.71,1.99,6.65,6.65,6.65
24.40,4.05,-2.61,4.05,-2.60,2.60,2.71,2.04,6.65,6.65,6.66
24.65,4.06,-2.60,4.06,-2.59,2.59,2.71,2.10,6.65,6.65,6.66
24.89,4.07,-2.58,4.06,-2.58,2.58,2.71,2.16,6.65,6.64,6.64
25.14,4.07,-2.57,4.07,-2.57,2.57,2.71,2.21,6.63,6.64,6.63
25.39,4.08,-2.56,4.08,-2.55,2.55,2.71,2.27,6.63,6.63,6.63
25.65,4.09,-2.53,4.09,-2.54,2.54,2.70,2.33,6.63,6.63,6.62
25.91,4.10,-2.52,4.10,-2.53,2.53,2.70,2.39,6.63,6.63,6.62
26.16,4.11,-2.52,4.10,-2.52,2.52,2.69,2.44,6.63,6.62,6.63
26.43,4.11,-2.51,4.11,-2.51,2.51,2.69,2.50,6.61,6.62,6.62
26.69,4.12,-2.50,4.12,-2.50,2.50,2.68,2.56,6.61,6.61,6.62
26.96,4.13,-2.49,4.13,-2.49,2.49,2.68,2.61,6.61,6.61,6.62
27.23,4.14,-2.47,4.14,-2.47,2.48,2.67,2.66,6.62,6.61,6.61
27.50,4.15,-2.46,4.14,-2.47,2.47,2.66,2.72,6.62,6.61,6.61
27.77,4.15,-2.47,4.15,-2.46,2.46,2.65,2.77,6.61,6.61,6.61
28.05,4.16,-2.46,4.16,-2.45,2.45,2.65,2.81,6.61,6.61,6.61
28.33,4.17,-2.44,4.17,-2.45,2.44,2.64,2.86,6.61,6.61,6.61
28.62,4.18,-2.43,4.18,-2.44,2.44,2.63,2.90,6.62,6.62,6.61
28.90,4.19,-2.43,4.18,-2.43,2.44,2.62,2.94,6.62,6.62,6.62
29.19,4.19,-2.43,4.19,-2.43,2.43,2.60,2.97,6.62,6.62,6.62
29.48,4.19,-2.43,4.19,-2.43,2.43,2.59,3.00,6.62,6.62,6.62
29.78,4.20,-2.42,4.19,-2.43,2.42,2.58,3.03,6.62,6.62,6.61
30.08,4.20,-2.44,4.20,-2.42,2.42,2.57,3.05,6.62,6.62,6.63
30.38,4.21,-2.41,4.21,-2.42,2.42,2.55,3.07,6.62,6.62,6.62
30.68,4.21,-2.41,4.21,-2.41,2.41,2.54,3.09,6.62,6.62,6.62
30.99,4.22,-2.40,4.22,-2.40,2.40,2.52,3.10,6.62,6.62,6.62
31.30,4.22,-2.40,4.22,-2.40,2.39,2.51,3.10,6.61,6.61,6.62
31.61,4.23,-2.39,4.22,-2.39,2.39,2.49,3.10,6.61,6.61,6.61
31.93,4.23,-2.37,4.23,-2.38,2.38,2.48,3.09,6.60,6.60,6.60
32.24,4.23,-2.37,4.23,-2.37,2.37,2.46,3.08,6.60,6.60,6.60
32.57,4.24,-2.35,4.24,-2.36,2.36,2.44,3.07,6.60,6.60,6.59
32.89,4.24,-2.35,4.24,-2.35,2.35,2.43,3.05,6.59,6.59,6.59
33.22,4.24,-2.35,4.24,-2.35,2.35,2.41,3.02,6.59,6.58,6.58
33.55,4.23,-2.35,4.23,-2.34,2.34,2.39,2.99,6.57,6.58,6.58
33.89,4.23,-2.34,4.23,-2.34,2.34,2.37,2.96,6.57,6.57,6.57
34.23,4.23,-2.33,4.22,-2.33,2.34,2.35,2.93,6.57,6.56,6.56
34.57,4.22,-2.33,4.22,-2.33,2.33,2.33,2.89,6.55,6.55,6.55
34.92,4.21,-2.33,4.21,-2.33,2.33,2.31,2.85,6.54,6.54,6.54
35.27,4.21,-2.34,4.21,-2.33,2.32,2.29,2.80,6.53,6.53,6.55
35.62,4.21,-2.31,4.21,-2.32,2.31,2.27,2.76,6.52,6.52,6.51
35.97,4.21,-2.30,4.21,-2.30,2.30,2.25,2.71,6.51,6.51,6.51
36.33,4.21,-2.29,4.21,-2.29,2.29,2.22,2.66,6.50,6.50,6.50
36.70,4.21,-2.28,4.21,-2.28,2.28,2.20,2.61,6.49,6.49,6.48
37.06,4.21,-2.26,4.21,-2.26,2.26,2.18,2.56,6.47,6.47,6.47
37.43,4.21,-2.25,4.21,-2.25,2.25,2.16,2.51,6.45,6.45,6.46
37.81,4.21,-2.23,4.21,-2.23,2.23,2.13,2.45,6.44,6.44,6.44
38.19,4.21,-2.21,4.21,-2.21,2.21,2.11,2.40,6.42,6.42,6.42
38.57,4.21,-2.20,4.21,-2.19,2.19,2.08,2.35,6.40,6.40,6.40
38.95,4.21,-2.17,4.21,-2.17,2.17,2.06,2.29,6.38,6.38,6.38
39.34,4.21,-2.15,4.21,-2.15,2.15,2.03,2.24,6.36,6.36,6.35
39.74,4.21,-2.13,4.21,-2.13,2.13,2.01,2.19,6.34,6.34,6.34
40.14,4.21,-2.11,4.21,-2.11,2.11,1.98,2.14,6.32,6.32,6.31
40.54,4.21,-2.09,4.21,-2.09,2.09,1.96,2.09,6.30,6.30,6.30
40.94,4.21,-2.07,4.21,-2.07,2.07,1.93,2.04,6.28,6.28,6.27
41.35,4.21,-2.05,4.21,-2.05,2.05,1.91,1.99,6.26,6.26,6.26
41.76,4.21,-2.03,4.21,-2.03,2.03,1.88,1.94,6.24,6.24,6.24
42.18,4.21,-2.02,4.21,-2.01,2.01,1.85,1.90,6.22,6.22,6.23
42.60,4.21,-1.99,4.21,-1.99,1.99,1.83,1.85,6.20,6.20,6.20
43.03,4.21,-1.97,4.21,-1.97,1.97,1.80,1.81,6.18,6.18,6.17
43.46,4.21,-1.95,4.21,-1.95,1.95,1.77,1.76,6.16,6.16,6.16
43.90,4.21,-1.92,4.21,-1.92,1.93,1.75,1.72,6.13,6.13,6.13
44.33,4.21,-1.90,4.21,-1.90,1.90,1.72,1.68,6.11,6.11,6.11
44.78,4.21,-1.88,4.21,-1.88,1.88,1.69,1.65,6.08,6.08,6.08
45.23,4.21,-1.86,4.21,-1.85,1.85,1.66,1.61,6.06,6.06,6.07
45.68,4.21,-1.82,4.21,-1.82,1.82,1.64,1.57,6.03,6.03,6.03
46.13,4.21,-1.78,4.21,-1.79,1.79,1.61,1.54,6.00,6.00,5.99
46.60,4.21,-1.75,4.21,-1.75,1.76,1.58,1.51,5.96,5.96,5.96
47.06,4.21,-1.72,4.21,-1.72,1.72,1.55,1.48,5.93,5.93,5.93
47.53,4.21,-1.69,4.21,-1.69,1.69,1.52,1.45,5.89,5.89,5.90
48.01,4.21,-1.65,4.21,-1.65,1.65,1.49,1.42,5.86,5.86,5.85
48.49,4.21,-1.61,4.21,-1.61,1.61,1.46,1.39,5.82,5.82,5.82
48.97,4.21,-1.57,4.21,-1.57,1.58,1.44,1.36,5.78,5.78,5.78
49.46,4.21,-1.54,4.21,-1.54,1.54,1.41,1.34,5.75,5.75,5.75
49.96,4.21,-1.49,4.21,-1.50,1.50,1.38,1.31,5.71,5.71,5.70
50.46,4.21,-1.47,4.21,-1.47,1.47,1.35,1.29,5.68,5.68,5.68
50.96,4.21,-1.44,4.21,-1.44,1.44,1.32,1.27,5.65,5.65,5.65
51.47,4.21,-1.41,4.21,-1.41,1.40,1.29,1.24,5.61,5.61,5.61
51.99,4.21,-1.37,4.21,-1.37,1.37,1.26,1.22,5.58,5.58,5.58
52.51,4.21,-1.34,4.21,-1.34,1.34,1.23,1.20,5.55,5.55,5.55
53.03,4.21,-1.31,4.21,-1.31,1.30,1.20,1.18,5.51,5.51,5.52
53.56,4.21,-1.27,4.21,-1.27,1.27,1.17,1.16,5.48,5.48,5.48
54.10,4.21,-1.24,4.21,-1.24,1.23,1.14,1.14,5.44,5.44,5.44
54.64,4.21,-1.20,4.21,-1.19,1.20,1.11,1.12,5.40,5.40,5.41
55.18,4.21,-1.15,4.21,-1.16,1.16,1.08,1.11,5.37,5.37,5.36
55.74,4.21,-1.12,4.21,-1.12,1.13,1.05,1.09,5.34,5.34,5.32
56.29,4.21,-1.10,4.21,-1.09,1.10,1.02,1.07,5.31,5.31,5.31
56.86,4.21,-1.07,4.21,-1.06,1.07,0.99,1.05,5.28,5.28,5.28
57.42,4.21,-1.03,4.21,-1.04,1.04,0.96,1.03,5.25,5.25,5.24
58.00,4.21,-1.00,4.21,-1.01,1.01,0.93,1.01,5.22,5.22,5.21
58.58,4.21,-0.99,4.21,-0.99,0.99,0.90,0.99,5.19,5.19,5.20
59.16,4.21,-0.96,4.21,-0.96,0.96,0.87,0.97,5.16,5.16,5.17
59.76,4.21,-0.93,4.21,-0.93,0.92,0.84,0.95,5.13,5.13,5.14
60.35,4.21,-0.89,4.21,-0.89,0.88,0.81,0.93,5.09,5.09,5.10
60.96,4.21,-0.85,4.21,-0.85,0.84,0.78,0.91,5.05,5.05,5.06
61.57,4.21,-0.80,4.21,-0.80,0.80,0.75,0.88,5.01,5.01,5.00
62.18,4.21,-0.75,4.21,-0.75,0.76,0.72,0.86,4.97,4.97,4.96
62.80,4.21,-0.71,4.21,-0.71,0.72,0.69,0.83,4.92,4.92,4.92
63.43,4.21,-0.66,4.21,-0.67,0.67,0.66,0.81,4.88,4.88,4.87
64.07,4.21,-0.63,4.21,-0.63,0.63,0.63,0.78,4.84,4.84,4.84
64.71,4.21,-0.59,4.21,-0.59,0.59,0.60,0.75,4.80,4.80,4.80
65.35,4.21,-0.55,4.21,-0.56,0.55,0.57,0.72,4.76,4.76,4.76
66.01,4.21,-0.52,4.21,-0.52,0.51,0.54,0.70,4.72,4.72,4.72
66.67,4.21,-0.49,4.21,-0.48,0.48,0.51,0.66,4.68,4.68,4.69
67.33,4.21,-0.44,4.21,-0.44,0.44,0.48,0.63,4.65,4.65,4.65
68.01,4.21,-0.40,4.21,-0.40,0.40,0.45,0.60,4.61,4.61,4.60
68.69,4.21,-0.36,4.21,-0.36,0.36,0.42,0.57,4.57,4.57,4.56
69.37,4.21,-0.32,4.21,-0.32,0.32,0.39,0.53,4.53,4.53,4.53
70.07,4.21,-0.29,4.21,-0.29,0.28,0.36,0.50,4.49,4.49,4.50
70.77,4.21,-0.25,4.21,-0.25,0.24,0.33,0.47,4.45,4.45,4.45
71.48,4.21,-0.20,4.21,-0.20,0.20,0.30,0.43,4.41,4.41,4.41
72.19,4.21,-0.16,4.21,-0.16,0.16,0.26,0.39,4.37,4.37,4.36
72.91,4.21,-0.12,4.21,-0.12,0.12,0.23,0.36,4.33,4.33,4.33
73.64,4.21,-0.07,4.21,-0.07,0.08,0.20,0.32,4.29,4.29,4.28
74.38,4.21,-0.03,4.21,-0.04,0.04,0.17,0.28,4.25,4.25,4.24
75.12,4.21,-0.01,4.21,-0.00,0.01,0.14,0.24,4.21,4.21,4.21
75.87,4.21,0.02,4.21,0.03,-0.03,0.11,0.20,4.18,4.18,4.18
76.63,4.21,0.06,4.21,0.06,-0.06,0.08,0.17,4.15,4.15,4.15
77.40,4.21,0.09,4.21,0.09,-0.09,0.05,0.13,4.12,4.12,4.12
78.17,4.21,0.12,4.21,0.12,-0.11,0.02,0.09,4.09,4.09,4.09
78.95,4.21,0.14,4.21,0.14,-0.14,-0.02,0.05,4.07,4.07,4.07
79.74,4.21,0.17,4.21,0.17,-0.17,-0.05,0.01,4.04,4.04,4.04
80.54,4.21,0.20,4.21,0.20,-0.20,-0.08,-0.03,4.01,4.01,4.01
81.35,4.21,0.23,4.21,0.23,-0.23,-0.11,-0.08,3.98,3.98,3.98
82.16,4.21,0.25,4.21,0.26,-0.26,-0.14,-0.12,3.95,3.95,3.95
82.98,4.21,0.29,4.21,0.29,-0.29,-0.17,-0.16,3.92,3.92,3.92
83.81,4.21,0.33,4.21,0.33,-0.32,-0.21,-0.20,3.88,3.88,3.88
84.65,4.21,0.36,4.21,0.36,-0.36,-0.24,-0.24,3.85,3.85,3.85
85.50,4.21,0.40,4.21,0.39,-0.39,-0.27,-0.28,3.82,3.82,3.81
86.35,4.21,0.43,4.21,0.43,-0.43,-0.30,-0.33,3.78,3.78,3.78
87.22,4.21,0.46,4.21,0.46,-0.46,-0.33,-0.37,3.74,3.74,3.75
88.09,4.21,0.50,4.21,0.50,-0.50,-0.37,-0.41,3.71,3.71,3.71
88.97,4.21,0.53,4.21,0.53,-0.53,-0.40,-0.46,3.67,3.67,3.68
89.86,4.21,0.57,4.21,0.57,-0.57,-0.43,-0.50,3.64,3.64,3.63
90.76,4.21,0.61,4.21,0.61,-0.60,-0.46,-0.55,3.60,3.60,3.60
91.66,4.21,0.64,4.21,0.64,-0.64,-0.50,-0.59,3.57,3.57,3.57
92.58,4.21,0.68,4.21,0.68,-0.68,-0.53,-0.64,3.53,3.53,3.53
93.51,4.21,0.71,4.21,0.71,-0.72,-0.56,-0.68,3.49,3.49,3.50
94.44,4.21,0.75,4.21,0.75,-0.76,-0.60,-0.73,3.45,3.45,3.46
95.39,4.21,0.79,4.21,0.79,-0.79,-0.63,-0.77,3.41,3.41,3.42
96.34,4.21,0.84,4.21,0.83,-0.83,-0.66,-0.82,3.37,3.37,3.37
97.30,4.21,0.88,4.21,0.88,-0.87,-0.70,-0.87,3.33,3.33,3.33
98.28,4.21,0.91,4.21,0.92,-0.91,-0.73,-0.91,3.29,3.29,3.30
99.26,4.21,0.96,4.21,0.95,-0.95,-0.77,-0.96,3.26,3.26,3.25
100.25,4.21,1.00,4.21,0.99,-0.99,-0.80,-1.01,3.22,3.22,3.21
101.25,4.21,1.01,4.21,1.02,-1.02,-0.83,-1.05,3.19,3.19,3.19
102.27,4.21,1.05,4.21,1.05,-1.05,-0.87,-1.10,3.15,3.15,3.16
103.29,4.21,1.09,4.21,1.08,-1.08,-0.90,-1.15,3.12,3.12,3.12
104.32,4.21,1.11,4.21,1.11,-1.11,-0.94,-1.19,3.09,3.09,3.10
105.37,4.21,1.15,4.21,1.14,-1.15,-0.97,-1.24,3.06,3.06,3.06
106.42,4.21,1.17,4.21,1.17,-1.18,-1.01,-1.29,3.03,3.03,3.03
107.48,4.21,1.21,4.21,1.21,-1.21,-1.04,-1.33,3.00,3.00,3.00
108.56,4.21,1.24,4.21,1.24,-1.24,-1.08,-1.38,2.97,2.97,2.97
109.64,4.21,1.28,4.21,1.27,-1.27,-1.11,-1.42,2.94,2.94,2.93
110.74,4.21,1.30,4.21,1.31,-1.31,-1.15,-1.46,2.90,2.90,2.90
111.85,4.21,1.34,4.21,1.34,-1.34,-1.18,-1.51,2.87,2.87,2.87
112.97,4.21,1.38,4.21,1.37,-1.38,-1.22,-1.55,2.83,2.83,2.83
114.10,4.21,1.40,4.21,1.41,-1.42,-1.26,-1.59,2.79,2.79,2.80
115.24,4.21,1.45,4.21,1.45,-1.45,-1.29,-1.63,2.76,2.76,2.76
116.39,4.21,1.50,4.21,1.49,-1.49,-1.33,-1.67,2.72,2.72,2.71
117.55,4.21,1.52,4.21,1.53,-1.52,-1.37,-1.70,2.69,2.69,2.69
118.73,4.21,1.57,4.21,1.56,-1.56,-1.40,-1.74,2.65,2.65,2.64
119.92,4.21,1.59,4.21,1.59,-1.59,-1.44,-1.77,2.62,2.62,2.62
121.12,4.21,1.62,4.21,1.62,-1.62,-1.48,-1.80,2.59,2.59,2.59
122.33,4.21,1.65,4.21,1.65,-1.65,-1.51,-1.83,2.56,2.56,2.56
123.55,4.21,1.68,4.21,1.68,-1.68,-1.55,-1.86,2.53,2.53,2.53
124.79,4.21,1.70,4.21,1.71,-1.71,-1.59,-1.88,2.50,2.50,2.50
126.03,4.21,1.75,4.21,1.74,-1.74,-1.63,-1.91,2.46,2.46,2.46
127.29,4.21,1.78,4.21,1.78,-1.78,-1.66,-1.93,2.43,2.43,2.43
128.57,4.21,1.81,4.21,1.81,-1.81,-1.70,-1.95,2.39,2.39,2.40
129.85,4.21,1.85,4.21,1.85,-1.85,-1.74,-1.96,2.36,2.36,2.36
131.15,4.21,1.89,4.21,1.89,-1.89,-1.78,-1.98,2.32,2.32,2.32
132.46,4.21,1.93,4.21,1.93,-1.92,-1.82,-2.00,2.29,2.29,2.28
133.79,4.21,1.96,4.21,1.96,-1.96,-1.85,-2.01,2.25,2.25,2.25
135.12,4.21,2.00,4.21,1.99,-1.99,-1.89,-2.02,2.22,2.22,2.21
136.48,4.21,2.02,4.21,2.02,-2.03,-1.93,-2.03,2.18,2.18,2.19
137.84,4.21,2.05,4.21,2.05,-2.06,-1.97,-2.04,2.15,2.15,2.16
139.22,4.21,2.09,4.21,2.09,-2.09,-2.01,-2.05,2.12,2.12,2.11
140.61,4.21,2.12,4.21,2.12,-2.12,-2.05,-2.06,2.09,2.09,2.09
142.02,4.21,2.15,4.21,2.15,-2.15,-2.08,-2.07,2.06,2.06,2.06
143.44,4.21,2.18,4.21,2.18,-2.17,-2.12,-2.08,2.03,2.03,2.03
144.87,4.21,2.19,4.21,2.20,-2.20,-2.16,-2.09,2.01,2.01,2.01
146.32,4.21,2.22,4.21,2.22,-2.22,-2.20,-2.10,1.98,1.98,1.98
147.78,4.21,2.24,4.21,2.25,-2.25,-2.24,-2.11,1.96,1.96,1.96
149.26,4.21,2.27,4.21,2.27,-2.27,-2.28,-2.12,1.94,1.94,1.94
150.75,4.21,2.30,4.21,2.29,-2.29,-2.31,-2.13,1.91,1.91,1.91
152.26,4.21,2.32,4.21,2.32,-2.32,-2.35,-2.14,1.89,1.89,1.89
153.78,4.21,2.34,4.21,2.34,-2.34,-2.39,-2.15,1.87,1.87,1.87
155.32,4.21,2.37,4.21,2.37,-2.37,-2.43,-2.16,1.84,1.84,1.84
156.88,4.21,2.39,4.21,2.39,-2.39,-2.47,-2.17,1.81,1.81,1.82
158.44,4.21,2.42,4.21,2.42,-2.42,-2.51,-2.19,1.79,1.79,1.78
160.03,4.21,2.45,4.21,2.45,-2.45,-2.54,-2.21,1.76,1.76,1.76
161.63,4.21,2.48,4.21,2.48,-2.48,-2.58,-2.22,1.73,1.73,1.73
163.24,4.21,2.52,4.21,2.51,-2.51,-2.62,-2.24,1.70,1.70,1.69
164.88,4.21,2.55,4.21,2.55,-2.54,-2.66,-2.27,1.66,1.66,1.66
166.53,4.21,2.58,4.21,2.58,-2.58,-2.69,-2.29,1.63,1.63,1.63
168.19,4.21,2.61,4.21,2.61,-2.61,-2.73,-2.31,1.60,1.60,1.60
169.87,4.21,2.64,4.21,2.64,-2.64,-2.77,-2.34,1.57,1.57,1.56
171.57,4.21,2.67,4.21,2.67,-2.67,-2.80,-2.37,1.53,1.53,1.54
173.29,4.21,2.71,4.21,2.71,-2.71,-2.84,-2.40,1.50,1.50,1.50
175.02,4.21,2.74,4.21,2.74,-2.74,-2.87,-2.43,1.47,1.47,1.47
176.77,4.21,2.78,4.21,2.77,-2.77,-2.91,-2.46,1.44,1.44,1.43
178.54,4.21,2.80,4.21,2.81,-2.81,-2.94,-2.50,1.40,1.40,1.41
180.32,4.21,2.84,4.21,2.84,-2.84,-2.98,-2.54,1.37,1.37,1.36
182.13,4.21,2.88,4.21,2.87,-2.88,-3.01,-2.58,1.33,1.33,1.33
183.95,4.21,2.91,4.21,2.91,-2.91,-3.04,-2.62,1.30,1.30,1.30
185.79,4.21,2.95,4.21,2.95,-2.95,-3.07,-2.66,1.26,1.26,1.26
187.65,4.21,2.98,4.21,2.98,-2.98,-3.11,-2.71,1.23,1.23,1.23
189.52,4.21,3.02,4.21,3.02,-3.02,-3.14,-2.76,1.19,1.19,1.19
191.42,4.21,3.05,4.21,3.05,-3.05,-3.17,-2.81,1.16,1.16,1.16
193.33,4.21,3.08,4.21,3.08,-3.08,-3.20,-2.86,1.13,1.13,1.13
195.27,4.21,3.11,4.21,3.11,-3.11,-3.23,-2.91,1.09,1.09,1.09
197.22,4.21,3.15,4.21,3.15,-3.14,-3.26,-2.96,1.07,1.07,1.06
199.19,4.21,3.17,4.21,3.18,-3.17,-3.29,-3.02,1.04,1.04,1.04
201.18,4.21,3.20,4.21,3.20,-3.20,-3.31,-3.07,1.01,1.01,1.00
203.19,4.21,3.22,4.21,3.22,-3.22,-3.34,-3.13,0.98,0.98,0.99
205.23,4.21,3.25,4.21,3.24,-3.25,-3.36,-3.19,0.96,0.96,0.96
207.28,4.21,3.26,4.21,3.27,-3.27,-3.39,-3.24,0.94,0.94,0.95
209.35,4.21,3.29,4.21,3.29,-3.29,-3.41,-3.30,0.92,0.92,0.91
211.44,4.21,3.32,4.21,3.31,-3.31,-3.44,-3.36,0.89,0.89,0.89
213.56,4.21,3.33,4.21,3.34,-3.34,-3.46,-3.41,0.87,0.87,0.88
215.69,4.21,3.35,4.21,3.35,-3.36,-3.48,-3.47,0.85,0.85,0.85
217.85,4.21,3.38,4.21,3.38,-3.38,-3.50,-3.53,0.83,0.83,0.83
220.03,4.21,3.40,4.21,3.40,-3.40,-3.52,-3.58,0.81,0.81,0.81
222.23,4.21,3.42,4.21,3.42,-3.42,-3.54,-3.63,0.79,0.79,0.79
224.45,4.21,3.44,4.21,3.44,-3.44,-3.55,-3.68,0.77,0.77,0.77
226.70,4.21,3.45,4.21,3.45,-3.45,-3.57,-3.73,0.75,0.75,0.76
228.96,4.21,3.46,4.21,3.47,-3.47,-3.58,-3.77,0.74,0.74,0.75
231.25,4.21,3.48,4.21,3.48,-3.48,-3.60,-3.81,0.73,0.73,0.73
233.57,4.21,3.49,4.21,3.50,-3.49,-3.61,-3.85,0.71,0.71,0.72
235.90,4.21,3.51,4.21,3.51,-3.50,-3.62,-3.88,0.70,0.70,0.70
238.26,4.21,3.52,4.21,3.51,-3.51,-3.63,-3.91,0.70,0.70,0.69
240.64,4.21,3.51,4.21,3.52,-3.52,-3.64,-3.93,0.69,0.69,0.70
243.05,4.21,3.52,4.21,3.52,-3.52,-3.65,-3.95,0.68,0.68,0.69
245.48,4.21,3.53,4.21,3.53,-3.53,-3.66,-3.96,0.68,0.68,0.67
247.93,4.21,3.54,4.21,3.53,-3.53,-3.66,-3.97,0.68,0.68,0.67
250.41,4.21,3.53,4.21,3.54,-3.53,-3.67,-3.98,0.68,0.68,0.68
252.92,4.21,3.53,4.21,3.53,-3.53,-3.67,-3.97,0.67,0.67,0.68
255.45,4.21,3.53,4.21,3.53,-3.53,-3.67,-3.97,0.67,0.67,0.67
258.00,4.21,3.53,4.21,3.53,-3.53,-3.67,-3.95,0.67,0.67,0.68
260.58,4.21,3.54,4.21,3.53,-3.53,-3.67,-3.94,0.67,0.67,0.67
263.19,4.21,3.53,4.21,3.53,-3.53,-3.67,-3.92,0.67,0.67,0.67
265.82,4.21,3.54,4.21,3.54,-3.54,-3.67,-3.89,0.67,0.67,0.67
268.48,4.21,3.53,4.21,3.54,-3.54,-3.66,-3.86,0.67,0.67,0.67
271.16,4.21,3.54,4.21,3.54,-3.55,-3.66,-3.82,0.66,0.66,0.67
273.87,4.21,3.54,4.21,3.54,-3.55,-3.65,-3.79,0.66,0.66,0.67
276.61,4.22,3.55,4.22,3.55,-3.56,-3.64,-3.75,0.66,0.66,0.67
279.38,4.23,3.58,4.22,3.56,-3.56,-3.63,-3.70,0.67,0.67,0.65
282.17,4.23,3.56,4.23,3.56,-3.56,-3.62,-3.66,0.67,0.67,0.67
284.99,4.23,3.55,4.23,3.56,-3.55,-3.61,-3.61,0.68,0.68,0.67
287.84,4.22,3.54,4.22,3.54,-3.54,-3.60,-3.56,0.68,0.68,0.68
290.72,4.20,3.53,4.20,3.53,-3.52,-3.59,-3.51,0.68,0.68,0.66
293.63,4.18,3.51,4.18,3.50,-3.50,-3.57,-3.45,0.68,0.68,0.67
296.57,4.15,3.46,4.15,3.47,-3.47,-3.56,-3.40,0.68,0.68,0.69
299.53,4.12,3.43,4.12,3.43,-3.43,-3.54,-3.35,0.69,0.69,0.68
302.53,4.09,3.40,4.09,3.39,-3.40,-3.52,-3.29,0.69,0.69,0.69
305.55,4.05,3.35,4.05,3.35,-3.36,-3.50,-3.24,0.69,0.69,0.70
308.61,4.02,3.32,4.02,3.31,-3.32,-3.48,-3.19,0.70,0.70,0.70
311.69,3.98,3.27,3.98,3.27,-3.28,-3.46,-3.14,0.70,0.71,0.71
314.81,3.96,3.24,3.96,3.24,-3.24,-3.44,-3.08,0.72,0.72,0.72
317.96,3.93,3.20,3.93,3.21,-3.20,-3.42,-3.04,0.72,0.72,0.72
321.14,3.91,3.18,3.90,3.18,-3.18,-3.40,-2.99,0.73,0.73,0.73
324.35,3.88,3.15,3.88,3.14,-3.15,-3.38,-2.94,0.73,0.73,0.73
327.59,3.87,3.11,3.87,3.12,-3.13,-3.35,-2.90,0.73,0.73,0.76
330.87,3.86,3.10,3.86,3.11,-3.12,-3.33,-2.85,0.74,0.74,0.75
334.18,3.87,3.12,3.86,3.10,-3.11,-3.30,-2.81,0.76,0.76,0.75
337.52,3.87,3.10,3.87,3.11,-3.10,-3.28,-2.77,0.77,0.77,0.77
340.90,3.88,3.10,3.88,3.10,-3.09,-3.25,-2.73,0.79,0.78,0.78
344.30,3.88,3.09,3.88,3.09,-3.09,-3.23,-2.70,0.79,0.79,0.78
347.75,3.88,3.09,3.88,3.09,-3.08,-3.20,-2.66,0.79,0.80,0.79
351.23,3.88,3.08,3.88,3.07,-3.08,-3.17,-2.63,0.80,0.80,0.80
354.74,3.88,3.06,3.88,3.07,-3.07,-3.15,-2.60,0.81,0.81,0.82
358.28,3.88,3.06,3.88,3.06,-3.06,-3.12,-2.58,0.82,0.82,0.82
361.87,3.88,3.06,3.88,3.06,-3.05,-3.09,-2.55,0.82,0.82,0.81
365.49,3.88,3.05,3.88,3.05,-3.05,-3.06,-2.53,0.83,0.83,0.83
369.14,3.88,3.04,3.88,3.04,-3.04,-3.04,-2.51,0.84,0.84,0.84
372.83,3.88,3.03,3.88,3.03,-3.03,-3.01,-2.49,0.84,0.84,0.85
376.56,3.88,3.03,3.88,3.03,-3.03,-2.99,-2.47,0.85,0.85,0.85
380.33,3.88,3.02,3.88,3.02,-3.03,-2.96,-2.45,0.85,0.85,0.86
384.13,3.88,3.01,3.88,3.02,-3.02,-2.93,-2.44,0.86,0.86,0.86
387.97,3.89,3.01,3.89,3.01,-3.02,-2.91,-2.43,0.87,0.87,0.87
391.85,3.90,3.01,3.90,3.01,-3.01,-2.89,-2.42,0.89,0.89,0.89
395.77,3.91,3.02,3.91,3.01,-3.00,-2.86,-2.41,0.90,0.90,0.89
399.73,3.91,3.01,3.91,3.00,-2.99,-2.84,-2.40,0.91,0.91,0.90
403.72,3.90,2.98,3.90,2.99,-2.98,-2.82,-2.40,0.92,0.92,0.92
407.76,3.89,2.96,3.89,2.96,-2.96,-2.80,-2.39,0.93,0.93,0.93
411.84,3.87,2.93,3.87,2.93,-2.93,-2.78,-2.39,0.94,0.94,0.94
415.96,3.85,2.90,3.85,2.90,-2.90,-2.77,-2.38,0.95,0.94,0.95
420.12,3.82,2.87,3.82,2.87,-2.87,-2.75,-2.38,0.95,0.95,0.94
424.32,3.79,2.83,3.79,2.83,-2.83,-2.74,-2.38,0.96,0.96,0.95
428.56,3.76,2.78,3.76,2.79,-2.80,-2.72,-2.37,0.96,0.96,0.97
432.85,3.73,2.74,3.73,2.75,-2.76,-2.71,-2.37,0.97,0.97,0.99
437.18,3.70,2.72,3.70,2.71,-2.71,-2.69,-2.37,0.98,0.99,0.98
441.55,3.68,2.69,3.67,2.68,-2.67,-2.68,-2.37,1.01,1.00,0.99
445.96,3.64,2.64,3.64,2.64,-2.63,-2.66,-2.36,1.01,1.01,1.00
450.42,3.60,2.59,3.60,2.59,-2.58,-2.64,-2.36,1.02,1.02,1.01
454.93,3.56,2.54,3.56,2.54,-2.54,-2.62,-2.35,1.02,1.02,1.02
459.48,3.52,2.49,3.52,2.49,-2.50,-2.59,-2.34,1.02,1.02,1.03
464.07,3.48,2.43,3.48,2.44,-2.46,-2.55,-2.34,1.02,1.02,1.05
468.71,3.45,2.40,3.45,2.40,-2.42,-2.51,-2.32,1.03,1.03,1.05
473.40,3.43,2.37,3.43,2.37,-2.37,-2.46,-2.31,1.05,1.05,1.06
478.13,3.41,2.34,3.41,2.34,-2.33,-2.41,-2.30,1.08,1.08,1.07
482.91,3.39,2.31,3.38,2.31,-2.29,-2.35,-2.28,1.10,1.09,1.07
487.74,3.35,2.26,3.34,2.26,-2.25,-2.29,-2.26,1.10,1.10,1.08
492.62,3.30,2.20,3.30,2.21,-2.20,-2.22,-2.24,1.09,1.10,1.09
497.55,3.25,2.14,3.25,2.15,-2.15,-2.16,-2.21,1.09,1.10,1.10
502.52,3.21,2.09,3.21,2.10,-2.10,-2.09,-2.18,1.11,1.11,1.11
507.55,3.18,2.05,3.17,2.04,-2.05,-2.01,-2.15,1.13,1.13,1.13
512.62,3.14,2.00,3.14,1.99,-2.00,-1.94,-2.12,1.14,1.14,1.14
517.75,3.10,1.94,3.09,1.94,-1.94,-1.87,-2.08,1.16,1.15,1.16
522.93,3.05,1.88,3.05,1.88,-1.89,-1.80,-2.04,1.16,1.17,1.17
528.16,3.01,1.83,3.01,1.83,-1.83,-1.74,-2.00,1.18,1.18,1.18
533.44,2.98,1.79,2.97,1.78,-1.77,-1.67,-1.96,1.21,1.20,1.19
538.77,2.93,1.73,2.92,1.72,-1.71,-1.60,-1.91,1.22,1.22,1.20
544.16,2.87,1.65,2.87,1.65,-1.64,-1.54,-1.86,1.22,1.23,1.22
549.60,2.81,1.58,2.81,1.58,-1.58,-1.48,-1.81,1.23,1.23,1.23
555.10,2.75,1.50,2.75,1.50,-1.51,-1.41,-1.76,1.23,1.23,1.25
560.65,2.69,1.43,2.69,1.43,-1.45,-1.35,-1.70,1.24,1.24,1.26
