frequency,raw,error,smoothed,error_smoothed,equalization,parametric_eq,fixed_band_eq,equalized_raw,equalized_smoothed,target
20.00,-5.20,-5.54,-5.20,-5.55,5.51,3.16,0.89,0.31,0.31,0.35
20.20,-5.08,-5.46,-5.07,-5.46,5.45,3.29,0.92,0.37,0.37,0.38
20.40,-4.96,-5.38,-4.95,-5.37,5.38,3.42,0.95,0.42,0.43,0.42
20.61,-4.84,-5.28,-4.83,-5.29,5.31,3.55,0.99,0.47,0.48,0.44
20.81,-4.72,-5.20,-4.71,-5.20,5.23,3.68,1.02,0.52,0.52,0.48
21.02,-4.60,-5.12,-4.61,-5.12,5.16,3.81,1.05,0.56,0.55,0.52
21.23,-4.52,-5.05,-4.51,-5.05,5.07,3.93,1.09,0.56,0.56,0.53
21.44,-4.44,-4.99,-4.43,-4.99,4.99,4.04,1.12,0.55,0.55,0.55
21.66,-4.36,-4.92,-4.36,-4.92,4.90,4.15,1.16,0.54,0.54,0.56
21.87,-4.28,-4.84,-4.27,-4.84,4.81,4.24,1.20,0.53,0.54,0.56
22.09,-4.18,-4.75,-4.17,-4.74,4.71,4.32,1.23,0.53,0.54,0.57
22.31,-4.05,-4.63,-4.06,-4.63,4.61,4.39,1.27,0.55,0.55,0.57
22.54,-3.93,-4.50,-3.93,-4.50,4.50,4.44,1.31,0.57,0.58,0.57
22.76,-3.81,-4.37,-3.81,-4.37,4.40,4.47,1.36,0.59,0.60,0.56
22.99,-3.69,-4.24,-3.70,-4.25,4.30,4.49,1.40,0.61,0.60,0.55
23.22,-3.62,-4.17,-3.61,-4.16,4.20,4.48,1.44,0.59,0.59,0.55
23.45,-3.55,-4.09,-3.55,-4.09,4.10,4.46,1.49,0.56,0.55,0.54
23.69,-3.49,-4.03,-3.49,-4.03,4.00,4.41,1.53,0.52,0.52,0.54
23.92,-3.42,-3.96,-3.41,-3.95,3.90,4.35,1.58,0.49,0.50,0.54
24.16,-3.31,-3.85,-3.30,-3.85,3.80,4.28,1.63,0.49,0.50,0.55
24.40,-3.16,-3.71,-3.17,-3.71,3.69,4.19,1.67,0.53,0.52,0.55
24.65,-3.03,-3.57,-3.03,-3.57,3.58,4.09,1.72,0.55,0.55,0.54
24.89,-2.88,-3.42,-2.89,-3.43,3.46,3.97,1.77,0.58,0.57,0.54
25.14,-2.78,-3.31,-2.78,-3.32,3.34,3.85,1.82,0.57,0.56,0.54
25.39,-2.69,-3.22,-2.68,-3.21,3.23,3.73,1.87,0.55,0.55,0.54
25.65,-2.60,-3.12,-2.59,-3.12,3.13,3.59,1.92,0.54,0.54,0.53
25.91,-2.51,-3.02,-2.51,-3.03,3.04,3.46,1.96,0.53,0.53,0.52
26.16,-2.43,-2.94,-2.43,-2.95,2.95,3.32,2.01,0.52,0.52,0.52
26.43,-2.36,-2.87,-2.36,-2.87,2.86,3.18,2.06,0.50,0.50,0.51
26.69,-2.29,-2.80,-2.29,-2.80,2.77,3.04,2.10,0.48,0.48,0.51
26.96,-2.21,-2.71,-2.20,-2.71,2.67,2.91,2.15,0.46,0.47,0.50
27.23,-2.10,-2.60,-2.10,-2.60,2.58,2.77,2.19,0.48,0.48,0.50
27.50,-1.98,-2.48,-1.98,-2.47,2.49,2.64,2.23,0.51,0.51,0.50
27.77,-1.87,-2.36,-1.86,-2.36,2.40,2.52,2.27,0.54,0.54,0.49
28.05,-1.76,-2.25,-1.78,-2.27,2.32,2.39,2.31,0.56,0.54,0.49
28.33,-1.73,-2.21,-1.73,-2.21,2.23,2.27,2.34,0.51,0.51,0.48
28.62,-1.70,-2.18,-1.69,-2.17,2.15,2.15,2.37,0.45,0.46,0.48
28.90,-1.66,-2.13,-1.65,-2.13,2.07,2.04,2.40,0.42,0.43,0.48
29.19,-1.58,-2.05,-1.57,-2.05,2.00,1.93,2.42,0.43,0.43,0.48
29.48,-1.47,-1.95,-1.46,-1.95,1.94,1.83,2.44,0.47,0.48,0.49
29.78,-1.36,-1.83,-1.36,-1.84,1.88,1.73,2.46,0.52,0.52,0.48
30.08,-1.27,-1.75,-1.29,-1.76,1.82,1.63,2.47,0.55,0.53,0.48
30.38,-1.25,-1.71,-1.25,-1.72,1.75,1.54,2.48,0.50,0.50,0.46
30.68,-1.23,-1.69,-1.22,-1.68,1.68,1.45,2.48,0.45,0.46,0.46
30.99,-1.20,-1.65,-1.18,-1.64,1.60,1.36,2.48,0.41,0.42,0.45
31.30,-1.12,-1.57,-1.12,-1.57,1.53,1.28,2.47,0.41,0.41,0.45
31.61,-1.03,-1.48,-1.04,-1.48,1.45,1.20,2.45,0.43,0.42,0.45
31.93,-0.95,-1.38,-0.94,-1.37,1.37,1.12,2.44,0.42,0.42,0.43
32.24,-0.85,-1.26,-0.85,-1.27,1.27,1.05,2.41,0.42,0.42,0.42
32.57,-0.75,-1.16,-0.75,-1.16,1.16,0.98,2.38,0.42,0.42,0.41
32.89,-0.65,-1.05,-0.65,-1.05,1.06,0.91,2.35,0.41,0.41,0.40
33.22,-0.56,-0.94,-0.56,-0.95,0.95,0.84,2.31,0.40,0.40,0.38
33.55,-0.48,-0.86,-0.47,-0.85,0.86,0.78,2.27,0.38,0.39,0.38
33.89,-0.40,-0.76,-0.40,-0.76,0.77,0.71,2.23,0.37,0.37,0.36
34.23,-0.33,-0.68,-0.33,-0.68,0.69,0.65,2.18,0.36,0.36,0.36
34.57,-0.28,-0.61,-0.27,-0.61,0.62,0.59,2.13,0.34,0.34,0.33
34.92,-0.22,-0.54,-0.22,-0.55,0.55,0.53,2.07,0.33,0.33,0.32
35.27,-0.18,-0.50,-0.17,-0.49,0.49,0.48,2.01,0.31,0.31,0.32
35.62,-0.13,-0.43,-0.13,-0.43,0.42,0.42,1.95,0.30,0.30,0.30
35.97,-0.08,-0.36,-0.08,-0.37,0.36,0.36,1.89,0.28,0.28,0.29
36.33,-0.03,-0.31,-0.03,-0.31,0.29,0.31,1.82,0.27,0.26,0.28
36.70,0.02,-0.25,0.02,-0.25,0.23,0.26,1.75,0.25,0.25,0.27
37.06,0.07,-0.19,0.09,-0.18,0.17,0.20,1.68,0.24,0.26,0.26
37.43,0.16,-0.10,0.17,-0.09,0.11,0.15,1.61,0.27,0.28,0.27
37.81,0.25,-0.00,0.24,-0.02,0.05,0.10,1.54,0.31,0.29,0.26
38.19,0.29,0.05,0.28,0.03,-0.00,0.05,1.47,0.29,0.28,0.24
38.57,0.30,0.05,0.31,0.06,-0.06,-0.01,1.39,0.24,0.25,0.25
38.95,0.31,0.08,0.33,0.09,-0.12,-0.06,1.32,0.19,0.21,0.24
39.34,0.37,0.14,0.37,0.14,-0.18,-0.11,1.25,0.19,0.19,0.23
39.74,0.43,0.21,0.43,0.21,-0.24,-0.16,1.17,0.20,0.19,0.22
40.14,0.50,0.28,0.51,0.29,-0.29,-0.21,1.10,0.21,0.22,0.22
40.54,0.58,0.37,0.59,0.37,-0.34,-0.27,1.02,0.24,0.25,0.21
40.94,0.67,0.46,0.65,0.44,-0.40,-0.32,0.95,0.27,0.25,0.21
41.35,0.68,0.49,0.68,0.48,-0.46,-0.37,0.87,0.23,0.23,0.20
41.76,0.69,0.51,0.70,0.52,-0.52,-0.43,0.80,0.18,0.18,0.18
42.18,0.71,0.53,0.72,0.54,-0.58,-0.49,0.73,0.14,0.15,0.18
42.60,0.76,0.60,0.76,0.59,-0.63,-0.54,0.65,0.13,0.13,0.17
43.03,0.82,0.66,0.83,0.67,-0.69,-0.60,0.58,0.13,0.14,0.16
43.46,0.89,0.76,0.90,0.76,-0.76,-0.66,0.51,0.14,0.14,0.14
43.90,0.97,0.86,0.95,0.84,-0.83,-0.72,0.43,0.14,0.12,0.11
44.33,1.00,0.91,1.00,0.90,-0.91,-0.78,0.36,0.09,0.08,0.10
44.78,1.02,0.95,1.04,0.97,-0.98,-0.84,0.29,0.04,0.06,0.07
45.23,1.08,1.03,1.10,1.04,-1.04,-0.90,0.22,0.05,0.06,0.06
45.68,1.17,1.13,1.16,1.12,-1.08,-0.96,0.15,0.10,0.09,0.04
46.13,1.23,1.21,1.21,1.18,-1.11,-1.02,0.08,0.12,0.10,0.03
46.60,1.21,1.19,1.22,1.20,-1.15,-1.08,0.01,0.07,0.07,0.02
47.06,1.19,1.18,1.17,1.15,-1.19,-1.14,-0.06,0.00,-0.02,0.02
47.53,1.14,1.13,1.13,1.12,-1.23,-1.20,-0.13,-0.09,-0.10,0.01
48.01,1.08,1.08,1.17,1.18,-1.27,-1.26,-0.20,-0.18,-0.09,0.00
48.49,1.26,1.28,1.26,1.28,-1.30,-1.32,-0.27,-0.03,-0.03,-0.01
48.97,1.44,1.47,1.36,1.39,-1.32,-1.38,-0.34,0.12,0.03,-0.03
49.46,1.41,1.45,1.42,1.46,-1.36,-1.44,-0.41,0.06,0.06,-0.04
49.96,1.37,1.43,1.40,1.45,-1.40,-1.49,-0.47,-0.02,0.01,-0.06
50.46,1.37,1.42,1.37,1.42,-1.44,-1.54,-0.54,-0.07,-0.07,-0.04
50.96,1.37,1.42,1.37,1.42,-1.48,-1.58,-0.61,-0.10,-0.11,-0.05
51.47,1.38,1.44,1.38,1.44,-1.50,-1.62,-0.67,-0.11,-0.11,-0.06
51.99,1.40,1.47,1.43,1.49,-1.51,-1.66,-0.74,-0.10,-0.08,-0.07
52.51,1.47,1.54,1.47,1.54,-1.52,-1.69,-0.80,-0.04,-0.04,-0.07
53.03,1.54,1.61,1.50,1.57,-1.53,-1.71,-0.87,0.02,-0.03,-0.07
53.56,1.49,1.57,1.50,1.58,-1.54,-1.73,-0.93,-0.05,-0.04,-0.07
54.10,1.46,1.55,1.48,1.56,-1.56,-1.75,-1.00,-0.10,-0.08,-0.08
54.64,1.46,1.55,1.46,1.55,-1.57,-1.76,-1.06,-0.11,-0.11,-0.08
55.18,1.46,1.56,1.46,1.55,-1.57,-1.77,-1.12,-0.11,-0.11,-0.10
55.74,1.46,1.57,1.46,1.57,-1.58,-1.77,-1.18,-0.11,-0.11,-0.11
56.29,1.46,1.57,1.46,1.58,-1.58,-1.77,-1.24,-0.12,-0.12,-0.11
56.86,1.46,1.59,1.46,1.59,-1.59,-1.76,-1.29,-0.13,-0.13,-0.13
57.42,1.46,1.60,1.46,1.60,-1.60,-1.75,-1.35,-0.14,-0.14,-0.14
58.00,1.46,1.62,1.46,1.62,-1.61,-1.74,-1.41,-0.15,-0.15,-0.15
58.58,1.46,1.63,1.47,1.63,-1.61,-1.73,-1.46,-0.15,-0.14,-0.17
59.16,1.46,1.64,1.47,1.65,-1.61,-1.72,-1.51,-0.15,-0.14,-0.18
59.76,1.46,1.67,1.44,1.64,-1.62,-1.70,-1.56,-0.15,-0.18,-0.20
60.35,1.40,1.63,1.38,1.61,-1.63,-1.69,-1.61,-0.23,-0.24,-0.23
60.96,1.29,1.54,1.34,1.60,-1.65,-1.68,-1.66,-0.35,-0.31,-0.25
61.57,1.31,1.61,1.32,1.61,-1.67,-1.66,-1.70,-0.36,-0.35,-0.30
62.18,1.34,1.68,1.33,1.66,-1.69,-1.65,-1.75,-0.35,-0.36,-0.33
62.80,1.36,1.73,1.36,1.73,-1.71,-1.64,-1.79,-0.34,-0.35,-0.37
63.43,1.37,1.78,1.38,1.79,-1.72,-1.63,-1.83,-0.35,-0.34,-0.40
64.07,1.37,1.81,1.39,1.83,-1.74,-1.62,-1.87,-0.37,-0.36,-0.44
64.71,1.37,1.85,1.33,1.80,-1.77,-1.61,-1.91,-0.40,-0.44,-0.48
65.35,1.28,1.79,1.26,1.77,-1.80,-1.61,-1.95,-0.52,-0.54,-0.51
66.01,1.12,1.67,1.21,1.76,-1.83,-1.61,-1.98,-0.71,-0.62,-0.54
66.67,1.21,1.80,1.20,1.78,-1.85,-1.60,-2.02,-0.64,-0.65,-0.58
67.33,1.26,1.88,1.23,1.85,-1.87,-1.60,-2.05,-0.61,-0.64,-0.61
68.01,1.27,1.93,1.28,1.93,-1.89,-1.61,-2.08,-0.62,-0.61,-0.65
68.69,1.27,1.97,1.29,1.99,-1.91,-1.61,-2.12,-0.64,-0.62,-0.69
69.37,1.27,2.01,1.26,1.99,-1.94,-1.62,-2.15,-0.67,-0.69,-0.74
70.07,1.25,2.03,1.19,1.97,-1.97,-1.63,-2.18,-0.72,-0.78,-0.78
70.77,1.06,1.87,1.14,1.96,-1.99,-1.64,-2.21,-0.93,-0.85,-0.81
71.48,1.08,1.94,1.11,1.96,-2.01,-1.65,-2.25,-0.92,-0.89,-0.85
72.19,1.15,2.05,1.09,1.99,-2.02,-1.67,-2.28,-0.86,-0.93,-0.90
72.91,1.09,2.04,1.09,2.03,-2.02,-1.68,-2.31,-0.93,-0.93,-0.95
73.64,1.02,2.02,1.05,2.04,-2.02,-1.70,-2.34,-1.00,-0.98,-1.00
74.38,0.98,2.02,0.99,2.03,-2.02,-1.72,-2.38,-1.04,-1.03,-1.04
75.12,0.97,2.06,0.96,2.04,-2.03,-1.75,-2.41,-1.05,-1.07,-1.09
75.87,0.91,2.04,0.93,2.06,-2.03,-1.77,-2.45,-1.12,-1.10,-1.12
76.63,0.89,2.05,0.87,2.03,-2.03,-1.80,-2.49,-1.14,-1.16,-1.16
77.40,0.80,2.00,0.76,1.96,-2.01,-1.83,-2.53,-1.21,-1.25,-1.20
78.17,0.67,1.91,0.71,1.95,-1.98,-1.86,-2.57,-1.31,-1.27,-1.24
78.95,0.60,1.87,0.70,1.97,-1.95,-1.89,-2.61,-1.34,-1.24,-1.27
79.74,0.79,2.09,0.70,2.00,-1.92,-1.93,-2.66,-1.12,-1.22,-1.30
80.54,0.71,2.04,0.65,1.98,-1.90,-1.96,-2.70,-1.19,-1.25,-1.33
81.35,0.51,1.87,0.53,1.88,-1.90,-2.00,-2.75,-1.39,-1.37,-1.36
82.16,0.35,1.74,0.39,1.77,-1.92,-2.04,-2.80,-1.56,-1.53,-1.39
82.98,0.30,1.71,0.38,1.80,-1.93,-2.08,-2.86,-1.63,-1.55,-1.41
83.81,0.48,1.94,0.47,1.92,-1.94,-2.13,-2.91,-1.45,-1.47,-1.45
84.65,0.63,2.12,0.55,2.03,-1.94,-2.18,-2.97,-1.30,-1.38,-1.48
85.50,0.58,2.09,0.57,2.08,-1.94,-2.22,-3.03,-1.36,-1.37,-1.51
86.35,0.45,1.99,0.51,2.05,-1.96,-2.27,-3.09,-1.50,-1.45,-1.54
87.22,0.40,1.98,0.41,1.99,-1.99,-2.33,-3.16,-1.59,-1.58,-1.58
88.09,0.39,2.00,0.32,1.92,-2.02,-2.38,-3.22,-1.63,-1.71,-1.61
88.97,0.24,1.88,0.29,1.93,-2.04,-2.44,-3.29,-1.80,-1.75,-1.64
89.86,0.23,1.91,0.32,1.99,-2.05,-2.50,-3.37,-1.82,-1.73,-1.67
90.76,0.43,2.14,0.38,2.09,-2.06,-2.56,-3.44,-1.63,-1.68,-1.71
91.66,0.50,2.24,0.45,2.19,-2.09,-2.63,-3.52,-1.58,-1.63,-1.73
92.58,0.46,2.23,0.47,2.24,-2.13,-2.69,-3.60,-1.67,-1.67,-1.77
93.51,0.39,2.19,0.42,2.22,-2.20,-2.76,-3.68,-1.80,-1.78,-1.80
94.44,0.38,2.21,0.38,2.21,-2.27,-2.83,-3.76,-1.89,-1.89,-1.83
95.39,0.40,2.26,0.40,2.26,-2.35,-2.90,-3.85,-1.95,-1.95,-1.85
96.34,0.45,2.35,0.46,2.35,-2.43,-2.98,-3.94,-1.97,-1.96,-1.89
97.30,0.56,2.48,0.58,2.50,-2.51,-3.06,-4.03,-1.94,-1.92,-1.92
98.28,0.71,2.66,0.72,2.66,-2.60,-3.14,-4.12,-1.89,-1.89,-1.95
99.26,0.88,2.85,0.82,2.80,-2.72,-3.22,-4.22,-1.84,-1.90,-1.97
100.25,0.88,2.88,0.88,2.88,-2.86,-3.31,-4.32,-1.97,-1.97,-2.00
101.25,0.90,2.93,0.93,2.96,-2.99,-3.40,-4.41,-2.09,-2.06,-2.03
102.27,0.97,3.03,1.01,3.07,-3.13,-3.49,-4.51,-2.15,-2.12,-2.06
103.29,1.14,3.25,1.13,3.22,-3.25,-3.58,-4.61,-2.10,-2.12,-2.11
104.32,1.28,3.41,1.25,3.38,-3.36,-3.67,-4.71,-2.08,-2.11,-2.12
105.37,1.34,3.51,1.36,3.52,-3.48,-3.77,-4.80,-2.14,-2.12,-2.16
106.42,1.42,3.62,1.43,3.63,-3.60,-3.87,-4.90,-2.17,-2.16,-2.19
107.48,1.51,3.75,1.48,3.72,-3.72,-3.97,-5.00,-2.21,-2.23,-2.23
108.56,1.53,3.81,1.54,3.81,-3.83,-4.07,-5.09,-2.30,-2.29,-2.27
109.64,1.57,3.89,1.60,3.91,-3.93,-4.18,-5.18,-2.35,-2.33,-2.31
110.74,1.67,4.01,1.68,4.02,-4.02,-4.29,-5.27,-2.34,-2.34,-2.34
111.85,1.77,4.14,1.76,4.14,-4.10,-4.40,-5.36,-2.33,-2.34,-2.37
112.97,1.84,4.26,1.82,4.23,-4.19,-4.51,-5.44,-2.35,-2.38,-2.42
114.10,1.84,4.28,1.85,4.29,-4.29,-4.62,-5.51,-2.45,-2.44,-2.44
115.24,1.86,4.34,1.89,4.36,-4.39,-4.73,-5.58,-2.53,-2.50,-2.48
116.39,1.95,4.46,1.97,4.47,-4.50,-4.84,-5.64,-2.55,-2.54,-2.50
117.55,2.09,4.62,2.07,4.60,-4.62,-4.95,-5.70,-2.53,-2.55,-2.53
118.73,2.20,4.76,2.19,4.74,-4.75,-5.07,-5.75,-2.54,-2.56,-2.56
119.92,2.28,4.85,2.31,4.89,-4.89,-5.18,-5.79,-2.60,-2.57,-2.57
121.12,2.44,5.03,2.44,5.03,-5.03,-5.29,-5.82,-2.59,-2.59,-2.59
122.33,2.60,5.21,2.59,5.19,-5.19,-5.40,-5.85,-2.59,-2.60,-2.61
123.55,2.73,5.35,2.73,5.35,-5.34,-5.50,-5.86,-2.61,-2.61,-2.61
124.79,2.86,5.50,2.86,5.50,-5.49,-5.60,-5.87,-2.63,-2.63,-2.64
126.03,2.98,5.64,3.00,5.65,-5.64,-5.70,-5.87,-2.66,-2.64,-2.65
127.29,3.12,5.79,3.11,5.79,-5.78,-5.80,-5.85,-2.66,-2.67,-2.67
128.57,3.24,5.94,3.22,5.91,-5.92,-5.89,-5.83,-2.68,-2.70,-2.69
129.85,3.30,6.01,3.33,6.04,-6.06,-5.98,-5.80,-2.76,-2.72,-2.71
131.15,3.44,6.16,3.45,6.17,-6.18,-6.05,-5.76,-2.74,-2.74,-2.72
132.46,3.57,6.31,3.56,6.29,-6.30,-6.13,-5.71,-2.73,-2.74,-2.73
133.79,3.67,6.41,3.67,6.41,-6.40,-6.19,-5.66,-2.73,-2.74,-2.73
135.12,3.74,6.51,3.75,6.50,-6.48,-6.25,-5.60,-2.74,-2.74,-2.77
136.48,3.78,6.55,3.80,6.57,-6.55,-6.29,-5.53,-2.76,-2.74,-2.77
137.84,3.85,6.64,3.82,6.61,-6.58,-6.33,-5.45,-2.73,-2.76,-2.79
139.22,3.81,6.63,3.82,6.63,-6.60,-6.36,-5.37,-2.79,-2.79,-2.82
140.61,3.76,6.60,3.78,6.61,-6.61,-6.38,-5.29,-2.85,-2.82,-2.84
142.02,3.74,6.58,3.73,6.57,-6.60,-6.39,-5.20,-2.85,-2.87,-2.83
143.44,3.67,6.53,3.68,6.53,-6.57,-6.39,-5.11,-2.90,-2.89,-2.85
144.87,3.62,6.50,3.61,6.49,-6.54,-6.38,-5.01,-2.91,-2.92,-2.88
146.32,3.54,6.45,3.56,6.47,-6.49,-6.36,-4.92,-2.95,-2.93,-2.91
147.78,3.48,6.42,3.50,6.44,-6.43,-6.33,-4.82,-2.95,-2.93,-2.93
149.26,3.45,6.42,3.40,6.37,-6.35,-6.29,-4.72,-2.90,-2.95,-2.97
150.75,3.25,6.28,3.26,6.27,-6.25,-6.25,-4.62,-2.99,-2.99,-3.02
152.26,3.03,6.10,3.07,6.14,-6.11,-6.19,-4.52,-3.08,-3.05,-3.07
153.78,2.85,5.97,2.87,5.99,-5.95,-6.13,-4.42,-3.10,-3.08,-3.12
155.32,2.62,5.81,2.61,5.79,-5.76,-6.06,-4.32,-3.13,-3.14,-3.18
156.88,2.36,5.60,2.28,5.52,-5.54,-5.99,-4.22,-3.17,-3.26,-3.24
158.44,1.80,5.11,1.85,5.16,-5.28,-5.91,-4.13,-3.47,-3.42,-3.31
160.03,1.38,4.75,1.39,4.75,-4.98,-5.82,-4.03,-3.60,-3.60,-3.37
161.63,0.93,4.35,0.94,4.36,-4.69,-5.74,-3.94,-3.76,-3.75,-3.42
163.24,0.58,4.06,0.59,4.06,-4.42,-5.65,-3.84,-3.84,-3.84,-3.48
164.88,0.29,3.81,0.28,3.79,-4.21,-5.56,-3.75,-3.92,-3.93,-3.51
166.53,0.09,3.64,0.07,3.62,-4.06,-5.47,-3.67,-3.97,-3.99,-3.55
168.19,-0.04,3.54,0.03,3.61,-3.99,-5.38,-3.58,-4.03,-3.96,-3.58
169.87,0.10,3.71,0.15,3.76,-4.00,-5.29,-3.50,-3.89,-3.85,-3.61
171.57,0.45,4.08,0.37,3.99,-4.08,-5.20,-3.42,-3.63,-3.71,-3.63
173.29,0.65,4.29,0.63,4.27,-4.23,-5.12,-3.34,-3.58,-3.60,-3.63
175.02,0.83,4.47,0.86,4.50,-4.42,-5.04,-3.26,-3.58,-3.56,-3.64
176.77,1.05,4.70,1.07,4.71,-4.63,-4.96,-3.19,-3.57,-3.56,-3.64
178.54,1.27,4.92,1.28,4.93,-4.83,-4.90,-3.11,-3.56,-3.55,-3.65
180.32,1.50,5.14,1.47,5.11,-5.00,-4.84,-3.05,-3.50,-3.53,-3.64
182.13,1.57,5.20,1.57,5.20,-5.12,-4.78,-2.98,-3.55,-3.56,-3.63
183.95,1.60,5.24,1.56,5.19,-5.20,-4.74,-2.92,-3.60,-3.64,-3.63
185.79,1.50,5.14,1.56,5.20,-5.25,-4.71,-2.85,-3.74,-3.69,-3.64
187.65,1.47,5.13,1.56,5.21,-5.28,-4.69,-2.79,-3.80,-3.71,-3.65
189.52,1.69,5.35,1.54,5.20,-5.27,-4.69,-2.74,-3.58,-3.73,-3.65
191.42,1.53,5.20,1.56,5.23,-5.24,-4.69,-2.68,-3.71,-3.68,-3.67
193.33,1.45,5.13,1.57,5.25,-5.19,-4.72,-2.63,-3.73,-3.62,-3.68
195.27,1.57,5.26,1.49,5.19,-5.12,-4.75,-2.58,-3.55,-3.63,-3.69
197.22,1.47,5.19,1.41,5.12,-5.04,-4.78,-2.53,-3.57,-3.63,-3.71
199.19,1.20,4.94,1.25,4.97,-4.95,-4.81,-2.48,-3.74,-3.70,-3.73
201.18,1.01,4.76,1.04,4.78,-4.84,-4.83,-2.44,-3.83,-3.81,-3.74
203.19,0.86,4.62,0.87,4.63,-4.73,-4.83,-2.39,-3.86,-3.85,-3.75
205.23,0.77,4.56,0.76,4.53,-4.60,-4.79,-2.35,-3.82,-3.84,-3.78
207.28,0.66,4.45,0.66,4.45,-4.46,-4.71,-2.31,-3.80,-3.81,-3.78
209.35,0.53,4.35,0.56,4.37,-4.33,-4.58,-2.27,-3.79,-3.77,-3.81
211.44,0.43,4.26,0.42,4.25,-4.19,-4.41,-2.24,-3.76,-3.77,-3.83
213.56,0.29,4.13,0.26,4.10,-4.06,-4.21,-2.20,-3.77,-3.80,-3.84
215.69,0.06,3.91,0.08,3.93,-3.93,-3.99,-2.17,-3.86,-3.84,-3.85
217.85,-0.12,3.74,-0.11,3.76,-3.79,-3.77,-2.13,-3.90,-3.89,-3.86
220.03,-0.28,3.60,-0.28,3.59,-3.63,-3.54,-2.10,-3.91,-3.92,-3.87
222.23,-0.43,3.45,-0.43,3.45,-3.48,-3.32,-2.07,-3.90,-3.90,-3.88
224.45,-0.57,3.30,-0.56,3.32,-3.31,-3.11,-2.04,-3.88,-3.87,-3.87
226.70,-0.69,3.18,-0.69,3.18,-3.15,-2.91,-2.01,-3.84,-3.84,-3.87
228.96,-0.82,3.04,-0.83,3.03,-2.99,-2.72,-1.98,-3.81,-3.82,-3.86
231.25,-0.99,2.86,-0.99,2.86,-2.83,-2.55,-1.95,-3.82,-3.82,-3.85
233.57,-1.15,2.69,-1.16,2.67,-2.67,-2.39,-1.92,-3.82,-3.83,-3.83
235.90,-1.36,2.46,-1.32,2.50,-2.52,-2.24,-1.89,-3.87,-3.84,-3.82
238.26,-1.45,2.35,-1.45,2.34,-2.37,-2.09,-1.86,-3.82,-3.82,-3.80
240.64,-1.56,2.21,-1.57,2.20,-2.23,-1.96,-1.84,-3.79,-3.81,-3.77
243.05,-1.68,2.06,-1.68,2.06,-2.10,-1.83,-1.81,-3.77,-3.77,-3.74
245.48,-1.79,1.93,-1.78,1.94,-1.97,-1.71,-1.78,-3.75,-3.74,-3.71
247.93,-1.86,1.83,-1.83,1.86,-1.84,-1.59,-1.75,-3.69,-3.67,-3.69
250.41,-1.90,1.78,-1.90,1.77,-1.71,-1.48,-1.72,-3.60,-3.60,-3.67
252.92,-1.93,1.71,-2.01,1.63,-1.58,-1.36,-1.69,-3.51,-3.59,-3.64
255.45,-2.19,1.42,-2.15,1.46,-1.45,-1.26,-1.66,-3.63,-3.60,-3.61
258.00,-2.37,1.23,-2.32,1.27,-1.31,-1.15,-1.63,-3.68,-3.63,-3.60
260.58,-2.45,1.13,-2.47,1.11,-1.16,-1.05,-1.60,-3.61,-3.63,-3.58
263.19,-2.57,0.99,-2.57,0.99,-1.00,-0.94,-1.57,-3.57,-3.57,-3.55
265.82,-2.68,0.86,-2.67,0.86,-0.83,-0.84,-1.54,-3.50,-3.50,-3.54
268.48,-2.80,0.71,-2.81,0.70,-0.65,-0.74,-1.51,-3.45,-3.46,-3.51
271.16,-2.95,0.54,-2.95,0.54,-0.49,-0.64,-1.48,-3.44,-3.44,-3.48
273.87,-3.13,0.34,-3.11,0.36,-0.34,-0.53,-1.45,-3.47,-3.45,-3.47
276.61,-3.26,0.18,-3.28,0.16,-0.21,-0.43,-1.42,-3.46,-3.49,-3.44
279.38,-3.41,0.01,-3.43,-0.01,-0.08,-0.33,-1.39,-3.48,-3.50,-3.41
282.17,-3.58,-0.18,-3.52,-0.13,0.05,-0.22,-1.35,-3.53,-3.47,-3.40
284.99,-3.56,-0.20,-3.54,-0.18,0.17,-0.12,-1.32,-3.39,-3.37,-3.36
287.84,-3.53,-0.19,-3.54,-0.20,0.27,-0.01,-1.29,-3.26,-3.27,-3.33
290.72,-3.49,-0.19,-3.57,-0.27,0.36,0.10,-1.26,-3.13,-3.21,-3.30
293.63,-3.69,-0.42,-3.67,-0.41,0.44,0.21,-1.23,-3.24,-3.23,-3.27
296.57,-3.83,-0.60,-3.78,-0.54,0.52,0.32,-1.20,-3.31,-3.26,-3.23
299.53,-3.88,-0.66,-3.85,-0.64,0.60,0.43,-1.17,-3.28,-3.25,-3.21
302.53,-3.83,-0.64,-3.87,-0.69,0.67,0.54,-1.14,-3.16,-3.20,-3.19
305.55,-3.88,-0.73,-3.90,-0.75,0.74,0.65,-1.11,-3.14,-3.17,-3.15
308.61,-3.96,-0.83,-3.96,-0.83,0.80,0.75,-1.08,-3.15,-3.15,-3.13
311.69,-4.05,-0.94,-3.98,-0.88,0.86,0.86,-1.05,-3.18,-3.12,-3.11
314.81,-3.99,-0.91,-3.99,-0.90,0.92,0.96,-1.02,-3.07,-3.07,-3.07
317.96,-3.93,-0.86,-4.00,-0.93,0.98,1.05,-0.99,-2.95,-3.02,-3.07
321.14,-4.04,-0.99,-4.01,-0.96,1.04,1.14,-0.96,-3.00,-2.97,-3.05
324.35,-4.13,-1.09,-4.09,-1.06,1.10,1.22,-0.93,-3.02,-2.99,-3.04
327.59,-4.14,-1.12,-4.21,-1.18,1.15,1.30,-0.91,-2.99,-3.06,-3.02
330.87,-4.31,-1.29,-4.26,-1.25,1.18,1.36,-0.88,-3.13,-3.08,-3.01
334.18,-4.34,-1.33,-4.29,-1.29,1.21,1.41,-0.85,-3.12,-3.07,-3.00
337.52,-4.25,-1.25,-4.29,-1.30,1.25,1.45,-0.83,-2.99,-3.04,-3.00
340.90,-4.24,-1.26,-4.25,-1.27,1.29,1.48,-0.80,-2.95,-2.96,-2.98
344.30,-4.24,-1.27,-4.18,-1.21,1.31,1.49,-0.78,-2.92,-2.87,-2.97
347.75,-4.17,-1.21,-4.17,-1.21,1.32,1.49,-0.75,-2.85,-2.86,-2.96
351.23,-4.12,-1.17,-4.23,-1.28,1.30,1.48,-0.73,-2.82,-2.93,-2.95
354.74,-4.34,-1.38,-4.31,-1.36,1.27,1.46,-0.71,-3.06,-3.04,-2.95
358.28,-4.45,-1.50,-4.33,-1.39,1.25,1.43,-0.68,-3.19,-3.08,-2.94
361.87,-4.29,-1.34,-4.27,-1.32,1.24,1.39,-0.66,-3.05,-3.02,-2.94
365.49,-4.05,-1.11,-4.13,-1.19,1.24,1.34,-0.64,-2.81,-2.89,-2.94
369.14,-4.00,-1.06,-4.03,-1.09,1.23,1.29,-0.62,-2.76,-2.80,-2.94
372.83,-4.08,-1.14,-4.03,-1.10,1.22,1.23,-0.60,-2.86,-2.81,-2.94
376.56,-4.10,-1.16,-4.10,-1.17,1.19,1.16,-0.58,-2.90,-2.91,-2.94
380.33,-4.14,-1.22,-4.16,-1.23,1.17,1.10,-0.56,-2.97,-2.99,-2.92
384.13,-4.20,-1.27,-4.17,-1.24,1.15,1.03,-0.54,-3.05,-3.01,-2.93
387.97,-4.17,-1.24,-4.13,-1.21,1.14,0.96,-0.52,-3.03,-3.00,-2.93
391.85,-4.04,-1.10,-4.07,-1.14,1.12,0.89,-0.50,-2.91,-2.95,-2.93
395.77,-3.98,-1.05,-3.99,-1.07,1.09,0.82,-0.48,-2.88,-2.90,-2.92
399.73,-3.95,-1.02,-3.93,-1.01,1.04,0.76,-0.46,-2.90,-2.89,-2.92
403.72,-3.91,-0.97,-3.89,-0.96,0.98,0.69,-0.45,-2.92,-2.91,-2.93
407.76,-3.84,-0.90,-3.85,-0.92,0.93,0.63,-0.43,-2.91,-2.92,-2.93
411.84,-3.81,-0.88,-3.81,-0.88,0.88,0.57,-0.41,-2.92,-2.93,-2.93
415.96,-3.80,-0.86,-3.78,-0.85,0.84,0.51,-0.40,-2.95,-2.93,-2.94
420.12,-3.74,-0.80,-3.73,-0.80,0.81,0.45,-0.38,-2.93,-2.92,-2.94
424.32,-3.69,-0.76,-3.68,-0.75,0.77,0.40,-0.37,-2.92,-2.91,-2.93
428.56,-3.62,-0.69,-3.66,-0.74,0.73,0.35,-0.36,-2.89,-2.93,-2.93
432.85,-3.63,-0.72,-3.63,-0.72,0.68,0.30,-0.34,-2.94,-2.95,-2.91
437.18,-3.64,-0.75,-3.53,-0.65,0.63,0.25,-0.33,-3.00,-2.90,-2.89
441.55,-3.40,-0.55,-3.43,-0.57,0.58,0.20,-0.32,-2.82,-2.85,-2.85
445.96,-3.23,-0.41,-3.33,-0.51,0.51,0.16,-0.31,-2.71,-2.82,-2.82
450.42,-3.28,-0.49,-3.22,-0.44,0.45,0.12,-0.31,-2.83,-2.77,-2.79
454.93,-3.20,-0.47,-3.11,-0.38,0.38,0.08,-0.30,-2.82,-2.74,-2.73
459.48,-2.94,-0.25,-2.99,-0.30,0.29,0.04,-0.29,-2.64,-2.70,-2.69
464.07,-2.79,-0.16,-2.85,-0.22,0.21,-0.00,-0.29,-2.57,-2.64,-2.63
468.71,-2.76,-0.17,-2.71,-0.13,0.14,-0.04,-0.28,-2.62,-2.57,-2.58
473.40,-2.67,-0.13,-2.59,-0.06,0.07,-0.08,-0.28,-2.60,-2.53,-2.53
