frequency,raw,error,smoothed,error_smoothed,equalization,parametric_eq,fixed_band_eq,equalized_raw,equalized_smoothed,target
20.00,7.86,7.08,7.86,7.09,-7.08,-7.66,-4.59,0.78,0.77,0.77
20.20,7.93,7.18,7.93,7.18,-7.18,-7.72,-4.71,0.75,0.75,0.74
20.40,8.01,7.29,8.01,7.28,-7.28,-7.78,-4.83,0.73,0.73,0.72
20.61,8.08,7.37,8.08,7.38,-7.38,-7.84,-4.96,0.70,0.70,0.70
20.81,8.15,7.47,8.15,7.47,-7.47,-7.89,-5.10,0.68,0.68,0.68
21.02,8.23,7.56,8.23,7.56,-7.57,-7.95,-5.23,0.66,0.66,0.66
21.23,8.30,7.66,8.30,7.66,-7.66,-8.01,-5.37,0.64,0.64,0.64
21.44,8.38,7.76,8.38,7.75,-7.75,-8.07,-5.52,0.63,0.63,0.62
21.66,8.45,7.84,8.45,7.85,-7.84,-8.13,-5.67,0.61,0.61,0.60
21.87,8.53,7.94,8.53,7.94,-7.93,-8.19,-5.82,0.60,0.59,0.59
22.09,8.60,8.03,8.60,8.02,-8.02,-8.24,-5.97,0.58,0.58,0.57
22.31,8.67,8.11,8.67,8.11,-8.11,-8.30,-6.13,0.56,0.56,0.56
22.54,8.75,8.19,8.75,8.19,-8.19,-8.36,-6.30,0.55,0.55,0.55
22.76,8.82,8.28,8.82,8.28,-8.28,-8.42,-6.47,0.54,0.54,0.54
22.99,8.90,8.36,8.90,8.36,-8.36,-8.47,-6.64,0.54,0.53,0.53
23.22,8.97,8.44,8.97,8.44,-8.44,-8.53,-6.82,0.52,0.52,0.52
23.45,9.04,8.53,9.04,8.53,-8.53,-8.59,-7.00,0.51,0.52,0.51
23.69,9.11,8.60,9.11,8.61,-8.61,-8.64,-7.19,0.50,0.51,0.50
23.92,9.19,8.69,9.19,8.68,-8.68,-8.70,-7.38,0.51,0.50,0.50
24.16,9.26,8.77,9.26,8.76,-8.76,-8.76,-7.58,0.50,0.50,0.49
24.40,9.33,8.84,9.33,8.84,-8.84,-8.81,-7.78,0.49,0.49,0.49
24.65,9.40,8.91,9.40,8.91,-8.91,-8.87,-7.98,0.48,0.49,0.48
24.89,9.47,8.99,9.47,8.99,-8.99,-8.92,-8.19,0.48,0.48,0.48
25.14,9.54,9.07,9.54,9.06,-9.06,-8.98,-8.40,0.48,0.48,0.47
25.39,9.61,9.14,9.61,9.14,-9.14,-9.03,-8.61,0.47,0.47,0.47
25.65,9.68,9.21,9.68,9.21,-9.21,-9.09,-8.83,0.47,0.47,0.46
25.91,9.74,9.27,9.74,9.28,-9.28,-9.14,-9.05,0.46,0.46,0.46
26.16,9.81,9.36,9.81,9.35,-9.35,-9.20,-9.27,0.46,0.46,0.45
26.43,9.88,9.42,9.88,9.42,-9.42,-9.25,-9.49,0.45,0.45,0.45
26.69,9.94,9.49,9.94,9.49,-9.49,-9.30,-9.72,0.45,0.45,0.44
26.96,10.01,9.56,10.01,9.56,-9.56,-9.36,-9.94,0.45,0.44,0.44
27.23,10.07,9.62,10.07,9.63,-9.63,-9.41,-10.16,0.44,0.44,0.44
27.50,10.14,9.70,10.14,9.70,-9.70,-9.46,-10.38,0.44,0.44,0.43
27.77,10.20,9.77,10.20,9.77,-9.77,-9.52,-10.60,0.43,0.43,0.43
28.05,10.26,9.84,10.26,9.83,-9.83,-9.57,-10.81,0.43,0.43,0.42
28.33,10.32,9.90,10.32,9.90,-9.90,-9.62,-11.01,0.42,0.42,0.42
28.62,10.38,9.95,10.38,9.96,-9.96,-9.67,-11.21,0.42,0.42,0.42
28.90,10.44,10.03,10.44,10.02,-10.02,-9.72,-11.40,0.42,0.42,0.41
29.19,10.50,10.08,10.50,10.08,-10.08,-9.77,-11.57,0.42,0.42,0.41
29.48,10.55,10.14,10.55,10.14,-10.14,-9.82,-11.74,0.41,0.42,0.41
29.78,10.61,10.19,10.61,10.19,-10.19,-9.87,-11.89,0.42,0.42,0.41
30.08,10.66,10.24,10.66,10.24,-10.24,-9.92,-12.02,0.42,0.41,0.41
30.38,10.70,10.28,10.70,10.29,-10.29,-9.97,-12.14,0.41,0.41,0.41
30.68,10.75,10.34,10.75,10.34,-10.34,-10.02,-12.24,0.41,0.41,0.40
30.99,10.79,10.38,10.79,10.38,-10.39,-10.07,-12.32,0.40,0.40,0.40
31.30,10.83,10.42,10.83,10.43,-10.43,-10.11,-12.38,0.40,0.40,0.40
31.61,10.88,10.47,10.88,10.47,-10.48,-10.16,-12.43,0.40,0.40,0.40
31.93,10.92,10.52,10.92,10.52,-10.52,-10.21,-12.45,0.40,0.40,0.39
32.24,10.96,10.57,10.96,10.57,-10.57,-10.26,-12.46,0.39,0.39,0.39
32.57,11.00,10.61,11.00,10.62,-10.61,-10.30,-12.45,0.39,0.39,0.38
32.89,11.05,10.67,11.04,10.66,-10.66,-10.35,-12.42,0.39,0.39,0.38
33.22,11.08,10.70,11.08,10.70,-10.70,-10.39,-12.38,0.38,0.38,0.38
33.55,11.12,10.74,11.12,10.74,-10.74,-10.44,-12.33,0.38,0.38,0.38
33.89,11.16,10.78,11.16,10.78,-10.78,-10.48,-12.26,0.38,0.37,0.37
34.23,11.20,10.82,11.20,10.82,-10.82,-10.52,-12.18,0.37,0.37,0.37
34.57,11.23,10.86,11.23,10.87,-10.87,-10.57,-12.10,0.36,0.37,0.36
34.92,11.27,10.90,11.27,10.90,-10.91,-10.61,-12.01,0.36,0.36,0.36
35.27,11.31,10.94,11.31,10.94,-10.94,-10.65,-11.91,0.36,0.36,0.36
35.62,11.34,10.97,11.34,10.98,-10.98,-10.69,-11.81,0.36,0.36,0.36
35.97,11.38,11.03,11.38,11.02,-11.02,-10.74,-11.71,0.36,0.36,0.35
36.33,11.41,11.06,11.41,11.05,-11.05,-10.78,-11.61,0.36,0.36,0.35
36.70,11.44,11.08,11.44,11.08,-11.08,-10.82,-11.51,0.36,0.36,0.35
37.06,11.46,11.11,11.46,11.11,-11.11,-10.86,-11.41,0.35,0.35,0.35
37.43,11.49,11.14,11.49,11.13,-11.14,-10.90,-11.31,0.35,0.35,0.35
37.81,11.51,11.16,11.51,11.16,-11.17,-10.93,-11.22,0.34,0.34,0.34
38.19,11.53,11.18,11.53,11.19,-11.20,-10.97,-11.13,0.33,0.34,0.34
38.57,11.56,11.22,11.56,11.22,-11.22,-11.01,-11.04,0.34,0.33,0.33
38.95,11.59,11.26,11.59,11.25,-11.25,-11.05,-10.96,0.34,0.33,0.33
39.34,11.61,11.29,11.61,11.29,-11.28,-11.08,-10.88,0.33,0.33,0.32
39.74,11.64,11.31,11.64,11.31,-11.31,-11.12,-10.81,0.32,0.32,0.32
40.14,11.67,11.34,11.67,11.35,-11.34,-11.16,-10.75,0.32,0.32,0.32
40.54,11.69,11.37,11.69,11.37,-11.37,-11.19,-10.69,0.32,0.32,0.31
40.94,11.72,11.41,11.72,11.40,-11.40,-11.22,-10.64,0.32,0.32,0.31
41.35,11.74,11.43,11.74,11.43,-11.43,-11.26,-10.59,0.31,0.32,0.31
41.76,11.77,11.46,11.77,11.45,-11.45,-11.29,-10.56,0.32,0.32,0.31
42.18,11.80,11.48,11.80,11.48,-11.48,-11.32,-10.52,0.32,0.32,0.32
42.60,11.83,11.51,11.83,11.50,-11.51,-11.36,-10.50,0.32,0.32,0.32
43.03,11.85,11.52,11.85,11.53,-11.53,-11.39,-10.49,0.32,0.32,0.32
43.46,11.88,11.55,11.88,11.55,-11.56,-11.42,-10.48,0.32,0.32,0.32
43.90,11.91,11.58,11.91,11.58,-11.58,-11.45,-10.48,0.33,0.33,0.32
44.33,11.94,11.61,11.94,11.61,-11.61,-11.48,-10.48,0.33,0.33,0.33
44.78,11.97,11.63,11.97,11.63,-11.63,-11.51,-10.50,0.34,0.34,0.33
45.23,11.99,11.65,11.99,11.65,-11.65,-11.54,-10.52,0.34,0.34,0.33
45.68,12.01,11.67,12.01,11.67,-11.67,-11.56,-10.55,0.34,0.34,0.33
46.13,12.02,11.69,12.02,11.69,-11.69,-11.59,-10.59,0.33,0.33,0.33
46.60,12.04,11.71,12.04,11.71,-11.71,-11.62,-10.63,0.33,0.32,0.32
47.06,12.05,11.72,12.05,11.73,-11.73,-11.64,-10.68,0.32,0.32,0.32
47.53,12.07,11.75,12.07,11.75,-11.75,-11.67,-10.74,0.32,0.32,0.32
48.01,12.09,11.76,12.09,11.77,-11.77,-11.69,-10.81,0.32,0.32,0.32
48.49,12.11,11.79,12.11,11.79,-11.79,-11.72,-10.88,0.32,0.32,0.31
48.97,12.13,11.81,12.12,11.81,-11.80,-11.74,-10.96,0.33,0.32,0.31
49.46,12.13,11.81,12.13,11.82,-11.81,-11.77,-11.04,0.32,0.32,0.31
49.96,12.14,11.82,12.14,11.82,-11.82,-11.79,-11.13,0.32,0.32,0.31
50.46,12.15,11.82,12.15,11.83,-11.83,-11.81,-11.23,0.32,0.32,0.32
50.96,12.16,11.83,12.16,11.84,-11.84,-11.83,-11.33,0.32,0.32,0.32
51.47,12.17,11.84,12.17,11.84,-11.85,-11.85,-11.43,0.32,0.32,0.32
51.99,12.18,11.85,12.18,11.85,-11.85,-11.87,-11.54,0.33,0.33,0.32
52.51,12.19,11.85,12.19,11.86,-11.86,-11.89,-11.66,0.33,0.33,0.33
53.03,12.20,11.86,12.20,11.86,-11.86,-11.91,-11.77,0.34,0.33,0.33
53.56,12.20,11.86,12.20,11.87,-11.87,-11.93,-11.89,0.33,0.33,0.33
54.10,12.20,11.86,12.20,11.87,-11.87,-11.95,-12.01,0.33,0.34,0.33
54.64,12.21,11.87,12.21,11.87,-11.86,-11.97,-12.13,0.35,0.34,0.33
55.18,12.21,11.86,12.21,11.87,-11.86,-11.98,-12.25,0.35,0.35,0.34
55.74,12.20,11.85,12.20,11.86,-11.85,-12.00,-12.36,0.35,0.35,0.34
56.29,12.19,11.84,12.19,11.84,-11.85,-12.01,-12.48,0.34,0.34,0.34
56.86,12.18,11.83,12.18,11.83,-11.84,-12.03,-12.59,0.34,0.34,0.35
57.42,12.18,11.82,12.18,11.83,-11.83,-12.04,-12.69,0.35,0.35,0.35
58.00,12.18,11.82,12.18,11.82,-11.83,-12.06,-12.79,0.35,0.35,0.35
58.58,12.18,11.82,12.18,11.82,-11.82,-12.07,-12.88,0.36,0.36,0.35
59.16,12.18,11.81,12.18,11.82,-11.82,-12.08,-12.96,0.36,0.36,0.36
59.76,12.18,11.81,12.18,11.81,-11.81,-12.10,-13.03,0.37,0.37,0.36
60.35,12.18,11.81,12.18,11.81,-11.81,-12.11,-13.08,0.37,0.37,0.36
60.96,12.18,11.80,12.18,11.81,-11.81,-12.12,-13.13,0.37,0.37,0.37
61.57,12.18,11.80,12.18,11.81,-11.81,-12.13,-13.16,0.37,0.37,0.37
62.18,12.18,11.80,12.18,11.80,-11.81,-12.14,-13.18,0.37,0.37,0.37
62.80,12.18,11.80,12.18,11.80,-11.81,-12.15,-13.18,0.37,0.37,0.37
63.43,12.18,11.80,12.18,11.80,-11.81,-12.16,-13.17,0.37,0.37,0.37
64.07,12.18,11.80,12.18,11.80,-11.81,-12.17,-13.15,0.37,0.37,0.37
64.71,12.18,11.80,12.18,11.81,-11.80,-12.17,-13.11,0.38,0.38,0.37
65.35,12.18,11.80,12.18,11.81,-11.80,-12.18,-13.06,0.38,0.38,0.37
66.01,12.18,11.80,12.18,11.80,-11.79,-12.19,-13.00,0.38,0.38,0.37
66.67,12.17,11.79,12.17,11.79,-11.79,-12.19,-12.93,0.38,0.38,0.37
67.33,12.16,11.78,12.16,11.79,-11.79,-12.20,-12.85,0.37,0.37,0.37
68.01,12.15,11.77,12.15,11.78,-11.78,-12.20,-12.76,0.37,0.37,0.37
68.69,12.15,11.77,12.15,11.77,-11.78,-12.21,-12.66,0.37,0.36,0.37
69.37,12.15,11.77,12.15,11.78,-11.78,-12.21,-12.56,0.37,0.37,0.37
70.07,12.16,11.78,12.16,11.79,-11.79,-12.21,-12.45,0.37,0.37,0.37
70.77,12.18,11.80,12.17,11.80,-11.80,-12.22,-12.34,0.38,0.38,0.37
71.48,12.19,11.81,12.19,11.81,-11.81,-12.22,-12.23,0.38,0.38,0.37
72.19,12.20,11.81,12.20,11.82,-11.82,-12.22,-12.12,0.38,0.38,0.38
72.91,12.22,11.84,12.22,11.83,-11.84,-12.22,-12.01,0.38,0.38,0.38
73.64,12.24,11.85,12.24,11.85,-11.85,-12.22,-11.90,0.39,0.38,0.38
74.38,12.26,11.86,12.26,11.87,-11.87,-12.22,-11.79,0.39,0.39,0.39
75.12,12.28,11.89,12.28,11.89,-11.89,-12.22,-11.68,0.39,0.39,0.39
75.87,12.31,11.92,12.31,11.91,-11.91,-12.22,-11.58,0.40,0.40,0.39
76.63,12.34,11.94,12.34,11.94,-11.94,-12.22,-11.48,0.40,0.40,0.40
77.40,12.37,11.96,12.37,11.96,-11.96,-12.22,-11.39,0.41,0.41,0.40
78.17,12.40,11.98,12.40,11.98,-11.98,-12.22,-11.30,0.42,0.41,0.41
78.95,12.42,12.01,12.42,12.01,-12.01,-12.21,-11.22,0.41,0.41,0.41
79.74,12.44,12.03,12.44,12.03,-12.03,-12.21,-11.14,0.41,0.42,0.41
80.54,12.47,12.04,12.47,12.04,-12.05,-12.21,-11.07,0.42,0.42,0.42
81.35,12.49,12.06,12.49,12.06,-12.07,-12.20,-11.01,0.42,0.42,0.42
82.16,12.50,12.07,12.51,12.08,-12.08,-12.20,-10.95,0.42,0.43,0.42
82.98,12.52,12.09,12.52,12.09,-12.09,-12.19,-10.90,0.43,0.43,0.42
83.81,12.53,12.10,12.53,12.10,-12.09,-12.19,-10.86,0.44,0.43,0.42
84.65,12.53,12.10,12.53,12.10,-12.09,-12.18,-10.82,0.44,0.44,0.42
85.50,12.53,12.09,12.53,12.10,-12.09,-12.17,-10.79,0.44,0.44,0.43
86.35,12.52,12.08,12.52,12.08,-12.09,-12.17,-10.77,0.43,0.43,0.43
87.22,12.51,12.07,12.51,12.07,-12.08,-12.16,-10.76,0.43,0.43,0.43
88.09,12.50,12.06,12.50,12.07,-12.08,-12.15,-10.75,0.42,0.43,0.43
88.97,12.50,12.06,12.50,12.06,-12.07,-12.14,-10.75,0.43,0.43,0.43
89.86,12.50,12.06,12.50,12.06,-12.07,-12.13,-10.76,0.43,0.43,0.43
90.76,12.50,12.06,12.50,12.06,-12.06,-12.12,-10.78,0.44,0.44,0.43
91.66,12.50,12.06,12.50,12.06,-12.06,-12.11,-10.80,0.44,0.44,0.43
92.58,12.50,12.06,12.50,12.06,-12.06,-12.10,-10.83,0.44,0.44,0.43
93.51,12.50,12.06,12.50,12.06,-12.06,-12.09,-10.87,0.44,0.44,0.43
94.44,12.50,12.06,12.50,12.07,-12.06,-12.08,-10.92,0.44,0.44,0.43
95.39,12.50,12.06,12.50,12.06,-12.06,-12.07,-10.97,0.44,0.44,0.43
96.34,12.50,12.06,12.50,12.06,-12.06,-12.06,-11.03,0.44,0.44,0.43
97.30,12.50,12.05,12.50,12.06,-12.06,-12.05,-11.10,0.44,0.44,0.44
98.28,12.50,12.05,12.50,12.06,-12.06,-12.03,-11.17,0.44,0.44,0.44
99.26,12.50,12.05,12.50,12.05,-12.06,-12.02,-11.25,0.44,0.44,0.44
100.25,12.50,12.05,12.50,12.05,-12.05,-12.01,-11.33,0.44,0.44,0.44
101.25,12.50,12.05,12.50,12.06,-12.05,-11.99,-11.43,0.45,0.45,0.44
102.27,12.50,12.05,12.50,12.05,-12.05,-11.98,-11.52,0.45,0.45,0.44
103.29,12.50,12.05,12.50,12.05,-12.05,-11.96,-11.62,0.45,0.45,0.44
104.32,12.50,12.04,12.50,12.05,-12.05,-11.95,-11.73,0.45,0.45,0.45
105.37,12.50,12.04,12.50,12.04,-12.05,-11.93,-11.83,0.45,0.45,0.45
106.42,12.50,12.04,12.50,12.04,-12.05,-11.92,-11.94,0.45,0.45,0.45
107.48,12.50,12.03,12.51,12.05,-12.05,-11.90,-12.06,0.45,0.45,0.46
108.56,12.52,12.05,12.52,12.05,-12.05,-11.88,-12.17,0.47,0.46,0.46
109.64,12.53,12.06,12.53,12.06,-12.05,-11.87,-12.28,0.48,0.47,0.46
110.74,12.53,12.06,12.53,12.06,-12.05,-11.85,-12.39,0.48,0.48,0.46
111.85,12.52,12.04,12.52,12.05,-12.04,-11.83,-12.50,0.48,0.48,0.47
112.97,12.50,12.02,12.50,12.03,-12.03,-11.81,-12.60,0.47,0.47,0.47
114.10,12.48,12.00,12.48,12.01,-12.01,-11.80,-12.70,0.47,0.47,0.47
115.24,12.46,11.98,12.46,11.99,-11.98,-11.78,-12.80,0.48,0.48,0.47
116.39,12.44,11.96,12.44,11.96,-11.95,-11.76,-12.88,0.49,0.48,0.47
117.55,12.41,11.92,12.41,11.93,-11.92,-11.74,-12.96,0.49,0.49,0.48
118.73,12.37,11.88,12.37,11.88,-11.88,-11.72,-13.02,0.49,0.49,0.48
119.92,12.33,11.85,12.33,11.84,-11.85,-11.70,-13.08,0.48,0.48,0.48
121.12,12.29,11.80,12.30,11.80,-11.81,-11.68,-13.12,0.48,0.49,0.49
122.33,12.27,11.77,12.27,11.77,-11.77,-11.66,-13.14,0.50,0.50,0.49
123.55,12.24,11.73,12.24,11.73,-11.73,-11.64,-13.15,0.51,0.50,0.50
124.79,12.21,11.71,12.21,11.70,-11.70,-11.61,-13.15,0.51,0.51,0.50
126.03,12.18,11.67,12.18,11.68,-11.68,-11.59,-13.13,0.50,0.50,0.50
127.29,12.17,11.65,12.17,11.65,-11.67,-11.57,-13.10,0.50,0.50,0.51
128.57,12.16,11.64,12.16,11.64,-11.66,-11.55,-13.05,0.50,0.50,0.51
129.85,12.16,11.63,12.17,11.64,-11.66,-11.53,-12.98,0.50,0.51,0.52
131.15,12.18,11.65,12.18,11.65,-11.66,-11.50,-12.91,0.52,0.52,0.52
132.46,12.19,11.66,12.19,11.66,-11.66,-11.48,-12.82,0.53,0.53,0.52
133.79,12.20,11.67,12.20,11.67,-11.65,-11.46,-12.72,0.54,0.54,0.52
135.12,12.19,11.66,12.19,11.67,-11.65,-11.43,-12.61,0.54,0.54,0.52
136.48,12.18,11.65,12.18,11.65,-11.64,-11.41,-12.49,0.54,0.54,0.52
137.84,12.15,11.61,12.16,11.62,-11.62,-11.38,-12.36,0.53,0.54,0.53
139.22,12.13,11.59,12.13,11.59,-11.59,-11.36,-12.23,0.54,0.53,0.53
140.61,12.10,11.56,12.09,11.56,-11.56,-11.33,-12.09,0.54,0.53,0.53
142.02,12.05,11.52,12.06,11.52,-11.53,-11.31,-11.95,0.52,0.53,0.53
143.44,12.03,11.49,12.02,11.49,-11.49,-11.28,-11.81,0.54,0.53,0.53
144.87,11.99,11.44,11.99,11.45,-11.46,-11.26,-11.67,0.53,0.53,0.54
146.32,11.96,11.41,11.96,11.42,-11.42,-11.23,-11.53,0.54,0.54,0.54
147.78,11.93,11.38,11.93,11.38,-11.39,-11.21,-11.39,0.54,0.54,0.54
149.26,11.92,11.36,11.91,11.36,-11.36,-11.18,-11.25,0.56,0.55,0.55
150.75,11.89,11.33,11.89,11.34,-11.34,-11.15,-11.11,0.55,0.56,0.55
152.26,11.88,11.32,11.88,11.32,-11.31,-11.12,-10.98,0.57,0.56,0.55
153.78,11.85,11.28,11.85,11.29,-11.29,-11.10,-10.85,0.56,0.56,0.56
155.32,11.83,11.26,11.83,11.26,-11.26,-11.07,-10.72,0.57,0.56,0.56
156.88,11.80,11.23,11.80,11.24,-11.24,-11.04,-10.60,0.56,0.57,0.56
158.44,11.79,11.21,11.78,11.21,-11.21,-11.01,-10.49,0.58,0.57,0.57
160.03,11.76,11.18,11.76,11.19,-11.19,-10.99,-10.38,0.57,0.58,0.57
161.63,11.74,11.16,11.74,11.16,-11.16,-10.96,-10.28,0.58,0.58,0.57
163.24,11.71,11.13,11.71,11.13,-11.13,-10.93,-10.18,0.58,0.57,0.57
164.88,11.67,11.09,11.68,11.10,-11.10,-10.90,-10.09,0.57,0.58,0.57
166.53,11.65,11.06,11.65,11.07,-11.07,-10.87,-10.01,0.58,0.58,0.58
168.19,11.63,11.04,11.62,11.04,-11.03,-10.84,-9.93,0.60,0.59,0.58
169.87,11.59,11.00,11.59,11.01,-11.00,-10.81,-9.86,0.59,0.60,0.58
171.57,11.56,10.96,11.56,10.97,-10.96,-10.78,-9.80,0.60,0.60,0.59
173.29,11.52,10.92,11.51,10.92,-10.92,-10.75,-9.74,0.60,0.59,0.59
175.02,11.47,10.87,11.48,10.88,-10.89,-10.72,-9.69,0.58,0.59,0.59
176.77,11.44,10.84,11.44,10.84,-10.85,-10.69,-9.65,0.59,0.59,0.59
178.54,11.42,10.81,11.42,10.82,-10.82,-10.66,-9.61,0.60,0.60,0.60
180.32,11.40,10.79,11.40,10.79,-10.80,-10.63,-9.59,0.60,0.60,0.60
182.13,11.38,10.77,11.37,10.77,-10.77,-10.60,-9.56,0.61,0.60,0.60
183.95,11.34,10.73,11.35,10.75,-10.74,-10.57,-9.55,0.59,0.60,0.60
185.79,11.32,10.72,11.32,10.72,-10.72,-10.54,-9.54,0.60,0.60,0.59
187.65,11.30,10.70,11.29,10.70,-10.69,-10.51,-9.54,0.61,0.60,0.59
189.52,11.27,10.67,11.27,10.68,-10.67,-10.48,-9.54,0.60,0.60,0.59
191.42,11.24,10.64,11.24,10.64,-10.64,-10.45,-9.55,0.60,0.60,0.59
193.33,11.21,10.60,11.21,10.60,-10.61,-10.42,-9.57,0.60,0.60,0.60
195.27,11.17,10.57,11.17,10.57,-10.57,-10.38,-9.59,0.60,0.60,0.60
197.22,11.14,10.53,11.14,10.54,-10.54,-10.35,-9.61,0.60,0.60,0.60
199.19,11.12,10.51,11.11,10.51,-10.51,-10.32,-9.65,0.61,0.60,0.60
201.18,11.09,10.47,11.09,10.48,-10.48,-10.29,-9.68,0.61,0.61,0.61
203.19,11.06,10.44,11.06,10.45,-10.45,-10.26,-9.72,0.61,0.61,0.61
205.23,11.04,10.42,11.04,10.42,-10.42,-10.22,-9.77,0.62,0.62,0.61
207.28,11.02,10.39,11.02,10.40,-10.39,-10.19,-9.82,0.63,0.63,0.62
209.35,10.99,10.36,10.99,10.37,-10.36,-10.16,-9.87,0.63,0.63,0.62
211.44,10.96,10.33,10.96,10.33,-10.33,-10.13,-9.93,0.63,0.64,0.62
213.56,10.93,10.29,10.92,10.29,-10.29,-10.09,-9.98,0.64,0.63,0.63
215.69,10.89,10.25,10.89,10.26,-10.26,-10.06,-10.04,0.63,0.63,0.63
217.85,10.85,10.21,10.86,10.22,-10.23,-10.03,-10.10,0.62,0.62,0.63
220.03,10.83,10.19,10.83,10.19,-10.20,-9.99,-10.15,0.63,0.63,0.63
222.23,10.81,10.16,10.81,10.17,-10.17,-9.96,-10.21,0.64,0.64,0.64
224.45,10.79,10.14,10.79,10.14,-10.14,-9.93,-10.26,0.65,0.65,0.64
226.70,10.76,10.11,10.76,10.11,-10.10,-9.89,-10.31,0.66,0.66,0.64
228.96,10.72,10.07,10.72,10.08,-10.06,-9.86,-10.36,0.66,0.66,0.64
231.25,10.68,10.02,10.68,10.02,-10.01,-9.82,-10.40,0.67,0.66,0.65
233.57,10.63,9.97,10.62,9.97,-9.96,-9.79,-10.43,0.67,0.66,0.65
235.90,10.56,9.89,10.57,9.91,-9.91,-9.75,-10.46,0.65,0.66,0.66
238.26,10.52,9.85,10.51,9.85,-9.86,-9.72,-10.48,0.66,0.66,0.66
240.64,10.46,9.78,10.47,9.79,-9.80,-9.69,-10.50,0.66,0.66,0.67
243.05,10.43,9.74,10.42,9.74,-9.75,-9.65,-10.50,0.68,0.67,0.68
245.48,10.39,9.70,10.38,9.70,-9.70,-9.62,-10.49,0.69,0.69,0.68
247.93,10.34,9.64,10.35,9.65,-9.65,-9.58,-10.48,0.69,0.70,0.69
250.41,10.32,9.61,10.31,9.61,-9.61,-9.54,-10.45,0.71,0.71,0.70
252.92,10.28,9.56,10.28,9.57,-9.56,-9.51,-10.41,0.72,0.71,0.71
255.45,10.24,9.52,10.24,9.52,-9.52,-9.47,-10.37,0.72,0.72,0.71
258.00,10.20,9.47,10.20,9.48,-9.48,-9.44,-10.31,0.72,0.72,0.72
260.58,10.16,9.43,10.16,9.43,-9.44,-9.40,-10.25,0.72,0.72,0.72
263.19,10.13,9.39,10.12,9.39,-9.40,-9.37,-10.17,0.73,0.73,0.73
265.82,10.08,9.34,10.09,9.35,-9.35,-9.33,-10.09,0.73,0.74,0.73
268.48,10.06,9.31,10.05,9.31,-9.31,-9.29,-10.00,0.75,0.74,0.74
271.16,10.02,9.27,10.01,9.27,-9.27,-9.26,-9.90,0.75,0.75,0.74
273.87,9.96,9.21,9.97,9.22,-9.22,-9.22,-9.80,0.74,0.75,0.74
276.61,9.93,9.17,9.92,9.17,-9.17,-9.18,-9.69,0.76,0.75,0.75
279.38,9.88,9.12,9.88,9.12,-9.12,-9.15,-9.58,0.76,0.76,0.75
282.17,9.83,9.07,9.83,9.07,-9.07,-9.11,-9.46,0.76,0.76,0.75
284.99,9.78,9.01,9.78,9.01,-9.02,-9.07,-9.35,0.76,0.75,0.76
287.84,9.72,8.95,9.72,8.96,-8.97,-9.03,-9.23,0.75,0.75,0.76
290.72,9.67,8.90,9.67,8.91,-8.91,-9.00,-9.11,0.76,0.76,0.76
293.63,9.63,8.86,9.62,8.86,-8.86,-8.96,-8.99,0.77,0.77,0.76
296.57,9.57,8.80,9.57,8.80,-8.79,-8.92,-8.87,0.78,0.78,0.76
299.53,9.51,8.74,9.51,8.74,-8.73,-8.88,-8.75,0.78,0.78,0.76
302.53,9.44,8.66,9.44,8.67,-8.66,-8.84,-8.63,0.78,0.78,0.77
305.55,9.37,8.59,9.37,8.59,-8.59,-8.80,-8.52,0.78,0.77,0.77
308.61,9.29,8.50,9.29,8.51,-8.52,-8.76,-8.41,0.77,0.77,0.78
311.69,9.21,8.42,9.22,8.43,-8.44,-8.72,-8.30,0.77,0.78,0.78
314.81,9.15,8.35,9.15,8.36,-8.36,-8.68,-8.20,0.79,0.79,0.79
317.96,9.09,8.29,9.09,8.29,-8.28,-8.64,-8.10,0.81,0.80,0.79
321.14,9.02,8.21,9.01,8.21,-8.21,-8.60,-8.00,0.81,0.81,0.80
324.35,8.94,8.13,8.94,8.13,-8.13,-8.56,-7.91,0.81,0.81,0.80
327.59,8.85,8.04,8.86,8.05,-8.05,-8.52,-7.83,0.80,0.81,0.80
330.87,8.79,7.97,8.79,7.97,-7.97,-8.48,-7.74,0.82,0.81,0.81
334.18,8.72,7.90,8.72,7.90,-7.90,-8.44,-7.67,0.82,0.82,0.81
337.52,8.65,7.82,8.65,7.83,-7.83,-8.40,-7.60,0.82,0.82,0.82
340.90,8.59,7.75,8.58,7.75,-7.76,-8.36,-7.53,0.83,0.82,0.83
344.30,8.52,7.68,8.53,7.69,-7.71,-8.31,-7.47,0.81,0.82,0.83
347.75,8.48,7.64,8.48,7.65,-7.66,-8.27,-7.42,0.82,0.83,0.83
351.23,8.45,7.61,8.45,7.61,-7.61,-8.23,-7.37,0.84,0.83,0.83
354.74,8.42,7.57,8.42,7.57,-7.57,-8.19,-7.32,0.85,0.84,0.84
358.28,8.38,7.53,8.38,7.54,-7.53,-8.14,-7.29,0.84,0.85,0.84
361.87,8.35,7.50,8.35,7.51,-7.50,-8.10,-7.25,0.85,0.85,0.84
365.49,8.32,7.47,8.32,7.48,-7.46,-8.05,-7.22,0.85,0.85,0.84
369.14,8.29,7.44,8.29,7.44,-7.43,-8.01,-7.20,0.86,0.86,0.84
372.83,8.25,7.40,8.25,7.40,-7.40,-7.97,-7.18,0.85,0.85,0.84
376.56,8.21,7.35,8.21,7.36,-7.37,-7.92,-7.17,0.84,0.84,0.85
380.33,8.17,7.31,8.17,7.32,-7.34,-7.87,-7.16,0.83,0.84,0.85
384.13,8.14,7.28,8.15,7.29,-7.30,-7.83,-7.16,0.83,0.84,0.85
387.97,8.13,7.27,8.13,7.27,-7.27,-7.78,-7.16,0.86,0.86,0.85
391.85,8.12,7.25,8.11,7.25,-7.24,-7.73,-7.16,0.88,0.87,0.86
395.77,8.09,7.22,8.09,7.22,-7.20,-7.69,-7.17,0.89,0.89,0.86
399.73,8.05,7.17,8.05,7.18,-7.17,-7.64,-7.19,0.88,0.89,0.87
403.72,8.01,7.13,8.01,7.13,-7.13,-7.59,-7.20,0.88,0.88,0.87
407.76,7.97,7.08,7.97,7.08,-7.09,-7.54,-7.22,0.88,0.87,0.88
411.84,7.92,7.03,7.92,7.04,-7.05,-7.49,-7.24,0.87,0.87,0.88
415.96,7.89,6.99,7.89,7.00,-7.01,-7.44,-7.27,0.87,0.87,0.89
420.12,7.86,6.96,7.86,6.97,-6.98,-7.39,-7.29,0.88,0.89,0.89
424.32,7.84,6.94,7.84,6.94,-6.94,-7.34,-7.32,0.90,0.90,0.89
