frequency,raw,error,smoothed,error_smoothed,equalization,parametric_eq,fixed_band_eq,equalized_raw,equalized_smoothed,target
20.00,1.48,0.36,1.48,0.36,-0.35,-0.26,-0.61,1.13,1.13,1.12
20.20,1.52,0.36,1.52,0.36,-0.35,-0.29,-0.63,1.17,1.16,1.16
20.40,1.56,0.36,1.56,0.36,-0.36,-0.32,-0.64,1.20,1.19,1.20
20.61,1.60,0.38,1.60,0.37,-0.37,-0.35,-0.66,1.22,1.22,1.22
20.81,1.64,0.38,1.64,0.38,-0.39,-0.38,-0.68,1.25,1.25,1.26
21.02,1.68,0.38,1.68,0.39,-0.40,-0.41,-0.70,1.27,1.28,1.30
21.23,1.73,0.42,1.72,0.41,-0.42,-0.44,-0.72,1.31,1.30,1.31
21.44,1.77,0.44,1.77,0.44,-0.44,-0.47,-0.74,1.32,1.33,1.33
21.66,1.81,0.47,1.81,0.48,-0.47,-0.50,-0.76,1.34,1.34,1.34
21.87,1.86,0.52,1.85,0.51,-0.50,-0.53,-0.78,1.36,1.36,1.34
22.09,1.89,0.54,1.88,0.54,-0.53,-0.56,-0.80,1.36,1.36,1.35
22.31,1.91,0.56,1.91,0.56,-0.56,-0.59,-0.82,1.35,1.35,1.35
22.54,1.93,0.58,1.93,0.59,-0.59,-0.62,-0.84,1.34,1.34,1.35
22.76,1.96,0.62,1.95,0.62,-0.63,-0.65,-0.86,1.33,1.33,1.34
22.99,1.98,0.65,1.98,0.65,-0.66,-0.68,-0.89,1.31,1.32,1.33
23.22,2.02,0.69,2.02,0.70,-0.70,-0.71,-0.91,1.32,1.32,1.33
23.45,2.07,0.75,2.07,0.75,-0.75,-0.74,-0.94,1.32,1.32,1.32
23.69,2.12,0.80,2.11,0.80,-0.80,-0.77,-0.96,1.32,1.32,1.32
23.92,2.16,0.84,2.16,0.84,-0.85,-0.81,-0.99,1.31,1.31,1.31
24.16,2.21,0.88,2.21,0.89,-0.90,-0.84,-1.01,1.31,1.31,1.32
24.40,2.26,0.94,2.26,0.94,-0.94,-0.87,-1.04,1.32,1.32,1.32
24.65,2.31,1.00,2.31,0.99,-0.98,-0.90,-1.07,1.33,1.33,1.31
24.89,2.36,1.05,2.35,1.04,-1.01,-0.93,-1.09,1.35,1.34,1.31
25.14,2.38,1.07,2.37,1.06,-1.04,-0.96,-1.12,1.34,1.34,1.31
25.39,2.38,1.07,2.38,1.07,-1.07,-0.99,-1.15,1.31,1.31,1.31
25.65,2.38,1.08,2.38,1.08,-1.10,-1.02,-1.18,1.28,1.28,1.30
25.91,2.38,1.09,2.39,1.09,-1.13,-1.06,-1.21,1.25,1.26,1.29
26.16,2.41,1.12,2.42,1.13,-1.16,-1.09,-1.24,1.25,1.26,1.29
26.43,2.47,1.18,2.47,1.18,-1.19,-1.12,-1.27,1.28,1.28,1.29
26.69,2.52,1.23,2.52,1.23,-1.22,-1.15,-1.29,1.30,1.30,1.29
26.96,2.57,1.29,2.56,1.28,-1.25,-1.18,-1.32,1.32,1.31,1.28
27.23,2.58,1.30,2.58,1.30,-1.28,-1.21,-1.35,1.30,1.30,1.28
27.50,2.59,1.31,2.59,1.31,-1.31,-1.25,-1.38,1.28,1.28,1.27
27.77,2.59,1.32,2.59,1.32,-1.33,-1.28,-1.41,1.26,1.25,1.26
28.05,2.59,1.33,2.60,1.34,-1.35,-1.31,-1.44,1.23,1.24,1.26
28.33,2.62,1.37,2.62,1.36,-1.37,-1.34,-1.46,1.25,1.24,1.25
28.62,2.65,1.40,2.64,1.39,-1.39,-1.37,-1.49,1.26,1.25,1.25
28.90,2.67,1.42,2.67,1.42,-1.42,-1.40,-1.51,1.25,1.26,1.25
29.19,2.70,1.45,2.70,1.45,-1.44,-1.44,-1.54,1.25,1.26,1.25
29.48,2.73,1.47,2.73,1.47,-1.48,-1.47,-1.56,1.25,1.25,1.26
29.78,2.76,1.51,2.76,1.51,-1.51,-1.50,-1.59,1.25,1.25,1.25
30.08,2.79,1.53,2.79,1.54,-1.55,-1.53,-1.61,1.24,1.24,1.26
30.38,2.82,1.58,2.82,1.58,-1.58,-1.56,-1.63,1.24,1.24,1.23
30.68,2.86,1.63,2.85,1.62,-1.62,-1.59,-1.65,1.24,1.24,1.23
30.99,2.89,1.67,2.89,1.66,-1.66,-1.63,-1.67,1.23,1.23,1.22
31.30,2.92,1.70,2.92,1.70,-1.70,-1.66,-1.69,1.22,1.22,1.22
31.61,2.95,1.73,2.95,1.74,-1.74,-1.69,-1.71,1.20,1.20,1.22
31.93,2.98,1.78,2.98,1.78,-1.78,-1.72,-1.72,1.19,1.20,1.20
32.24,3.01,1.82,3.01,1.82,-1.82,-1.75,-1.74,1.19,1.19,1.19
32.57,3.05,1.86,3.05,1.87,-1.85,-1.78,-1.75,1.19,1.19,1.18
32.89,3.08,1.91,3.07,1.90,-1.89,-1.81,-1.77,1.19,1.19,1.17
33.22,3.09,1.94,3.09,1.93,-1.92,-1.84,-1.78,1.17,1.17,1.15
33.55,3.09,1.94,3.09,1.94,-1.95,-1.87,-1.79,1.14,1.14,1.15
33.89,3.09,1.96,3.10,1.96,-1.98,-1.90,-1.80,1.11,1.11,1.13
34.23,3.11,1.98,3.12,2.00,-2.01,-1.94,-1.81,1.10,1.11,1.13
34.57,3.15,2.05,3.14,2.04,-2.03,-1.97,-1.83,1.11,1.11,1.10
34.92,3.18,2.09,3.17,2.08,-2.06,-2.00,-1.84,1.12,1.11,1.09
35.27,3.19,2.10,3.18,2.10,-2.09,-2.03,-1.85,1.10,1.10,1.09
35.62,3.19,2.12,3.19,2.12,-2.12,-2.06,-1.86,1.07,1.07,1.07
35.97,3.19,2.13,3.20,2.14,-2.16,-2.09,-1.87,1.03,1.04,1.05
36.33,3.22,2.17,3.22,2.17,-2.19,-2.12,-1.88,1.03,1.03,1.05
36.70,3.26,2.22,3.25,2.21,-2.22,-2.15,-1.89,1.04,1.03,1.04
37.06,3.29,2.26,3.29,2.25,-2.25,-2.18,-1.90,1.03,1.04,1.03
37.43,3.32,2.28,3.32,2.30,-2.29,-2.21,-1.92,1.03,1.04,1.03
37.81,3.35,2.33,3.35,2.32,-2.32,-2.24,-1.93,1.03,1.03,1.02
38.19,3.37,2.36,3.37,2.35,-2.34,-2.27,-1.94,1.03,1.02,1.01
38.57,3.38,2.36,3.38,2.37,-2.36,-2.29,-1.96,1.01,1.02,1.02
38.95,3.39,2.39,3.39,2.38,-2.38,-2.32,-1.98,1.01,1.01,1.00
39.34,3.39,2.39,3.39,2.39,-2.39,-2.35,-1.99,1.00,1.00,1.00
39.74,3.39,2.40,3.39,2.40,-2.39,-2.38,-2.01,1.00,1.00,0.99
40.14,3.39,2.41,3.39,2.40,-2.40,-2.41,-2.03,0.99,0.99,0.98
40.54,3.39,2.41,3.39,2.41,-2.41,-2.44,-2.05,0.98,0.98,0.98
40.94,3.39,2.41,3.38,2.41,-2.43,-2.47,-2.08,0.96,0.96,0.97
41.35,3.39,2.43,3.38,2.42,-2.45,-2.50,-2.10,0.94,0.93,0.96
41.76,3.39,2.44,3.40,2.45,-2.49,-2.53,-2.13,0.90,0.91,0.95
42.18,3.43,2.49,3.45,2.51,-2.53,-2.55,-2.16,0.90,0.92,0.94
42.60,3.51,2.58,3.51,2.58,-2.57,-2.58,-2.18,0.94,0.94,0.93
43.03,3.59,2.66,3.56,2.64,-2.61,-2.61,-2.22,0.97,0.95,0.92
43.46,3.59,2.69,3.59,2.69,-2.66,-2.64,-2.25,0.93,0.93,0.90
43.90,3.59,2.71,3.60,2.72,-2.70,-2.66,-2.28,0.89,0.90,0.87
44.33,3.59,2.73,3.59,2.73,-2.73,-2.69,-2.32,0.85,0.85,0.86
44.78,3.59,2.75,3.59,2.75,-2.76,-2.72,-2.36,0.83,0.83,0.83
45.23,3.59,2.77,3.59,2.77,-2.78,-2.75,-2.40,0.81,0.81,0.82
45.68,3.59,2.78,3.59,2.79,-2.79,-2.77,-2.44,0.80,0.80,0.80
46.13,3.59,2.80,3.59,2.80,-2.80,-2.80,-2.48,0.79,0.79,0.79
46.60,3.59,2.81,3.59,2.81,-2.80,-2.83,-2.52,0.78,0.78,0.78
47.06,3.59,2.81,3.59,2.81,-2.82,-2.86,-2.57,0.77,0.77,0.78
47.53,3.59,2.82,3.59,2.82,-2.83,-2.88,-2.62,0.76,0.76,0.77
48.01,3.59,2.83,3.59,2.83,-2.84,-2.91,-2.67,0.75,0.75,0.76
48.49,3.59,2.84,3.59,2.84,-2.84,-2.93,-2.72,0.74,0.74,0.75
48.97,3.59,2.86,3.59,2.86,-2.85,-2.96,-2.77,0.74,0.74,0.73
49.46,3.59,2.87,3.59,2.87,-2.86,-2.99,-2.82,0.73,0.73,0.72
49.96,3.59,2.89,3.59,2.88,-2.87,-3.01,-2.88,0.72,0.72,0.70
50.46,3.59,2.87,3.59,2.88,-2.88,-3.04,-2.93,0.71,0.71,0.72
50.96,3.59,2.88,3.59,2.88,-2.89,-3.07,-2.99,0.70,0.70,0.71
51.47,3.59,2.89,3.59,2.89,-2.90,-3.09,-3.04,0.69,0.68,0.70
51.99,3.59,2.90,3.60,2.90,-2.92,-3.12,-3.10,0.67,0.68,0.69
52.51,3.62,2.93,3.62,2.93,-2.94,-3.14,-3.16,0.68,0.68,0.69
53.03,3.65,2.96,3.64,2.96,-2.95,-3.17,-3.22,0.69,0.69,0.69
53.56,3.67,2.99,3.67,2.99,-2.97,-3.19,-3.27,0.69,0.70,0.68
54.10,3.69,3.02,3.68,3.01,-2.99,-3.22,-3.33,0.69,0.69,0.67
54.64,3.69,3.02,3.69,3.02,-3.01,-3.24,-3.39,0.68,0.68,0.67
55.18,3.69,3.03,3.69,3.03,-3.03,-3.27,-3.44,0.66,0.66,0.66
55.74,3.69,3.04,3.69,3.04,-3.04,-3.29,-3.50,0.65,0.65,0.65
56.29,3.69,3.04,3.69,3.05,-3.05,-3.32,-3.55,0.64,0.64,0.65
56.86,3.69,3.06,3.69,3.06,-3.06,-3.34,-3.60,0.63,0.63,0.63
57.42,3.69,3.07,3.69,3.07,-3.07,-3.37,-3.65,0.62,0.62,0.61
58.00,3.69,3.09,3.69,3.09,-3.08,-3.39,-3.69,0.61,0.61,0.60
58.58,3.69,3.10,3.69,3.10,-3.09,-3.42,-3.74,0.59,0.59,0.59
59.16,3.69,3.11,3.69,3.12,-3.11,-3.44,-3.78,0.58,0.58,0.58
59.76,3.69,3.14,3.69,3.13,-3.14,-3.47,-3.82,0.55,0.55,0.55
60.35,3.69,3.16,3.69,3.16,-3.17,-3.49,-3.85,0.52,0.52,0.53
60.96,3.69,3.19,3.68,3.19,-3.21,-3.52,-3.88,0.48,0.47,0.50
61.57,3.69,3.23,3.70,3.24,-3.26,-3.54,-3.91,0.43,0.44,0.46
62.18,3.71,3.29,3.72,3.30,-3.31,-3.57,-3.94,0.40,0.42,0.42
62.80,3.77,3.38,3.75,3.37,-3.36,-3.59,-3.96,0.41,0.40,0.39
63.43,3.79,3.44,3.78,3.43,-3.41,-3.62,-3.97,0.38,0.37,0.35
64.07,3.79,3.48,3.79,3.48,-3.45,-3.64,-3.99,0.34,0.34,0.31
64.71,3.79,3.51,3.79,3.51,-3.50,-3.67,-4.00,0.29,0.29,0.27
65.35,3.79,3.54,3.79,3.55,-3.54,-3.69,-4.01,0.24,0.24,0.25
66.01,3.79,3.58,3.79,3.58,-3.59,-3.72,-4.01,0.20,0.20,0.21
66.67,3.79,3.62,3.78,3.61,-3.63,-3.74,-4.01,0.15,0.15,0.17
67.33,3.79,3.65,3.79,3.65,-3.68,-3.77,-4.01,0.11,0.11,0.14
68.01,3.79,3.69,3.81,3.71,-3.73,-3.79,-4.01,0.06,0.08,0.10
68.69,3.86,3.80,3.85,3.79,-3.78,-3.82,-4.00,0.08,0.06,0.06
69.37,3.89,3.87,3.88,3.86,-3.84,-3.84,-3.99,0.05,0.04,0.02
70.07,3.89,3.91,3.89,3.91,-3.89,-3.87,-3.99,-0.00,0.00,-0.02
70.77,3.89,3.95,3.89,3.95,-3.94,-3.89,-3.98,-0.06,-0.05,-0.06
71.48,3.89,3.99,3.89,3.99,-4.00,-3.92,-3.97,-0.11,-0.11,-0.10
72.19,3.89,4.03,3.89,4.03,-4.05,-3.94,-3.96,-0.16,-0.16,-0.14
72.91,3.89,4.09,3.89,4.08,-4.09,-3.97,-3.95,-0.20,-0.20,-0.20
73.64,3.89,4.13,3.89,4.13,-4.13,-3.99,-3.93,-0.24,-0.24,-0.24
74.38,3.89,4.18,3.89,4.18,-4.17,-4.02,-3.92,-0.28,-0.28,-0.29
75.12,3.89,4.22,3.89,4.22,-4.21,-4.04,-3.92,-0.33,-0.33,-0.33
75.87,3.89,4.26,3.89,4.26,-4.26,-4.07,-3.91,-0.37,-0.37,-0.37
76.63,3.89,4.29,3.89,4.30,-4.30,-4.10,-3.90,-0.41,-0.41,-0.41
77.40,3.89,4.33,3.89,4.33,-4.33,-4.12,-3.89,-0.44,-0.44,-0.44
78.17,3.89,4.37,3.89,4.37,-4.37,-4.15,-3.89,-0.48,-0.48,-0.48
78.95,3.89,4.40,3.89,4.40,-4.40,-4.17,-3.89,-0.51,-0.51,-0.51
79.74,3.89,4.43,3.89,4.43,-4.43,-4.20,-3.89,-0.54,-0.54,-0.54
80.54,3.89,4.46,3.89,4.46,-4.46,-4.23,-3.89,-0.58,-0.58,-0.57
81.35,3.89,4.49,3.89,4.49,-4.49,-4.25,-3.90,-0.60,-0.60,-0.60
82.16,3.89,4.52,3.89,4.52,-4.52,-4.28,-3.90,-0.63,-0.63,-0.63
82.98,3.89,4.54,3.89,4.55,-4.54,-4.30,-3.91,-0.65,-0.64,-0.65
83.81,3.89,4.58,3.89,4.58,-4.55,-4.33,-3.93,-0.66,-0.67,-0.69
84.65,3.88,4.60,3.86,4.58,-4.57,-4.36,-3.94,-0.69,-0.71,-0.72
85.50,3.83,4.58,3.83,4.58,-4.58,-4.38,-3.96,-0.76,-0.75,-0.75
86.35,3.79,4.57,3.80,4.58,-4.60,-4.41,-3.98,-0.81,-0.80,-0.78
87.22,3.79,4.60,3.79,4.60,-4.62,-4.44,-4.01,-0.83,-0.84,-0.81
88.09,3.79,4.64,3.78,4.63,-4.65,-4.46,-4.04,-0.86,-0.86,-0.85
88.97,3.79,4.66,3.79,4.67,-4.67,-4.49,-4.07,-0.88,-0.88,-0.87
89.86,3.79,4.70,3.79,4.70,-4.70,-4.51,-4.10,-0.91,-0.91,-0.91
90.76,3.80,4.74,3.80,4.74,-4.72,-4.54,-4.14,-0.93,-0.93,-0.94
91.66,3.80,4.77,3.80,4.77,-4.75,-4.57,-4.18,-0.95,-0.95,-0.97
92.58,3.80,4.80,3.79,4.79,-4.77,-4.59,-4.22,-0.97,-0.98,-1.00
93.51,3.78,4.81,3.77,4.80,-4.79,-4.62,-4.27,-1.01,-1.02,-1.03
94.44,3.73,4.79,3.74,4.79,-4.80,-4.65,-4.31,-1.07,-1.07,-1.06
95.39,3.70,4.78,3.71,4.79,-4.81,-4.67,-4.37,-1.11,-1.10,-1.08
96.34,3.69,4.81,3.69,4.81,-4.82,-4.70,-4.42,-1.13,-1.13,-1.12
97.30,3.69,4.84,3.68,4.83,-4.83,-4.73,-4.48,-1.14,-1.14,-1.15
98.28,3.68,4.85,3.67,4.85,-4.84,-4.75,-4.54,-1.17,-1.17,-1.18
99.26,3.66,4.85,3.66,4.86,-4.87,-4.78,-4.60,-1.21,-1.21,-1.19
100.25,3.65,4.87,3.65,4.87,-4.90,-4.80,-4.66,-1.25,-1.25,-1.22
101.25,3.65,4.90,3.66,4.91,-4.93,-4.83,-4.72,-1.28,-1.27,-1.25
102.27,3.69,4.97,3.68,4.96,-4.96,-4.85,-4.79,-1.27,-1.29,-1.28
103.29,3.69,5.02,3.68,5.00,-4.98,-4.88,-4.86,-1.30,-1.30,-1.33
104.32,3.68,5.02,3.68,5.03,-5.00,-4.90,-4.93,-1.32,-1.32,-1.35
105.37,3.66,5.04,3.66,5.05,-5.01,-4.93,-5.00,-1.36,-1.35,-1.38
106.42,3.64,5.05,3.62,5.04,-5.02,-4.95,-5.07,-1.38,-1.40,-1.41
107.48,3.58,5.03,3.57,5.02,-5.02,-4.98,-5.14,-1.44,-1.45,-1.45
108.56,3.50,4.99,3.52,5.00,-5.02,-5.00,-5.20,-1.52,-1.50,-1.49
109.64,3.47,4.99,3.47,4.99,-5.02,-5.03,-5.27,-1.55,-1.55,-1.53
110.74,3.45,5.00,3.44,5.00,-5.02,-5.05,-5.34,-1.57,-1.57,-1.55
111.85,3.43,5.01,3.43,5.02,-5.02,-5.07,-5.40,-1.60,-1.60,-1.58
112.97,3.42,5.05,3.42,5.04,-5.04,-5.10,-5.46,-1.62,-1.62,-1.63
114.10,3.41,5.06,3.41,5.06,-5.07,-5.12,-5.52,-1.66,-1.66,-1.65
115.24,3.41,5.09,3.41,5.09,-5.10,-5.14,-5.58,-1.69,-1.69,-1.68
116.39,3.41,5.12,3.41,5.12,-5.12,-5.17,-5.63,-1.72,-1.71,-1.71
117.55,3.42,5.16,3.41,5.15,-5.15,-5.19,-5.68,-1.73,-1.73,-1.74
118.73,3.42,5.18,3.43,5.18,-5.17,-5.21,-5.72,-1.75,-1.74,-1.77
119.92,3.43,5.20,3.43,5.21,-5.19,-5.23,-5.76,-1.76,-1.76,-1.77
121.12,3.44,5.24,3.42,5.21,-5.20,-5.25,-5.79,-1.76,-1.78,-1.80
122.33,3.40,5.21,3.40,5.21,-5.21,-5.27,-5.82,-1.81,-1.81,-1.81
123.55,3.36,5.18,3.38,5.20,-5.22,-5.29,-5.84,-1.86,-1.84,-1.82
124.79,3.36,5.20,3.36,5.20,-5.22,-5.31,-5.85,-1.86,-1.85,-1.84
126.03,3.37,5.22,3.37,5.22,-5.21,-5.33,-5.87,-1.85,-1.85,-1.86
127.29,3.37,5.24,3.35,5.23,-5.21,-5.35,-5.87,-1.84,-1.86,-1.87
128.57,3.34,5.23,3.33,5.22,-5.21,-5.37,-5.87,-1.88,-1.88,-1.89
129.85,3.28,5.18,3.30,5.21,-5.22,-5.38,-5.86,-1.94,-1.92,-1.91
131.15,3.29,5.21,3.29,5.20,-5.23,-5.40,-5.85,-1.94,-1.94,-1.92
132.46,3.29,5.22,3.29,5.21,-5.23,-5.42,-5.83,-1.94,-1.95,-1.93
133.79,3.30,5.23,3.30,5.24,-5.24,-5.44,-5.81,-1.94,-1.94,-1.93
135.12,3.30,5.26,3.30,5.25,-5.24,-5.45,-5.78,-1.94,-1.94,-1.96
136.48,3.30,5.26,3.29,5.25,-5.24,-5.47,-5.75,-1.94,-1.95,-1.96
137.84,3.26,5.24,3.26,5.25,-5.24,-5.48,-5.72,-1.98,-1.98,-1.98
139.22,3.23,5.24,3.24,5.25,-5.23,-5.50,-5.68,-2.00,-1.99,-2.01
140.61,3.21,5.24,3.21,5.23,-5.22,-5.51,-5.64,-2.02,-2.01,-2.03
142.02,3.21,5.24,3.18,5.22,-5.21,-5.53,-5.60,-2.01,-2.03,-2.03
143.44,3.14,5.18,3.15,5.20,-5.21,-5.54,-5.56,-2.07,-2.06,-2.05
144.87,3.11,5.18,3.12,5.19,-5.21,-5.55,-5.52,-2.10,-2.09,-2.07
146.32,3.11,5.21,3.10,5.20,-5.22,-5.57,-5.47,-2.11,-2.11,-2.10
147.78,3.11,5.23,3.11,5.23,-5.24,-5.58,-5.43,-2.13,-2.13,-2.13
149.26,3.11,5.27,3.11,5.27,-5.28,-5.59,-5.39,-2.17,-2.17,-2.16
150.75,3.11,5.32,3.10,5.31,-5.33,-5.60,-5.35,-2.22,-2.22,-2.22
152.26,3.11,5.37,3.11,5.38,-5.39,-5.61,-5.31,-2.28,-2.28,-2.26
153.78,3.13,5.44,3.14,5.46,-5.47,-5.62,-5.27,-2.34,-2.33,-2.31
155.32,3.18,5.56,3.17,5.54,-5.55,-5.63,-5.23,-2.37,-2.38,-2.38
156.88,3.21,5.64,3.20,5.63,-5.63,-5.64,-5.19,-2.42,-2.43,-2.43
158.44,3.21,5.71,3.21,5.71,-5.71,-5.65,-5.16,-2.50,-2.49,-2.50
160.03,3.21,5.77,3.21,5.77,-5.77,-5.66,-5.13,-2.56,-2.55,-2.56
161.63,3.21,5.82,3.21,5.83,-5.81,-5.67,-5.11,-2.60,-2.59,-2.61
163.24,3.21,5.88,3.21,5.87,-5.83,-5.68,-5.08,-2.62,-2.62,-2.67
164.88,3.18,5.88,3.17,5.88,-5.83,-5.69,-5.06,-2.65,-2.66,-2.70
166.53,3.12,5.86,3.10,5.84,-5.82,-5.70,-5.04,-2.70,-2.72,-2.74
168.19,3.00,5.77,3.01,5.78,-5.80,-5.70,-5.03,-2.80,-2.79,-2.77
169.87,2.90,5.70,2.93,5.73,-5.76,-5.71,-5.02,-2.86,-2.83,-2.80
171.57,2.88,5.70,2.88,5.69,-5.72,-5.72,-5.01,-2.84,-2.84,-2.82
173.29,2.87,5.69,2.85,5.67,-5.68,-5.73,-5.01,-2.81,-2.83,-2.82
175.02,2.83,5.66,2.82,5.65,-5.64,-5.73,-5.01,-2.81,-2.82,-2.83
176.77,2.77,5.61,2.79,5.62,-5.61,-5.74,-5.02,-2.84,-2.82,-2.84
178.54,2.76,5.60,2.76,5.60,-5.59,-5.75,-5.03,-2.84,-2.83,-2.84
180.32,2.77,5.60,2.76,5.59,-5.60,-5.75,-5.04,-2.83,-2.84,-2.83
182.13,2.77,5.59,2.76,5.59,-5.62,-5.76,-5.06,-2.85,-2.86,-2.82
183.95,2.78,5.61,2.78,5.60,-5.65,-5.77,-5.07,-2.87,-2.87,-2.83
185.79,2.79,5.62,2.82,5.65,-5.69,-5.77,-5.10,-2.90,-2.87,-2.83
187.65,2.90,5.74,2.90,5.74,-5.75,-5.78,-5.12,-2.85,-2.85,-2.84
189.52,3.00,5.85,2.97,5.82,-5.80,-5.79,-5.16,-2.81,-2.83,-2.85
191.42,3.04,5.90,3.03,5.89,-5.86,-5.80,-5.19,-2.82,-2.82,-2.86
193.33,3.05,5.92,3.06,5.93,-5.90,-5.80,-5.23,-2.85,-2.84,-2.87
195.27,3.07,5.95,3.07,5.96,-5.93,-5.81,-5.27,-2.86,-2.86,-2.88
197.22,3.08,5.98,3.07,5.98,-5.95,-5.82,-5.31,-2.87,-2.88,-2.91
199.19,3.05,5.98,3.05,5.97,-5.95,-5.83,-5.36,-2.90,-2.91,-2.93
201.18,3.01,5.95,3.00,5.94,-5.94,-5.84,-5.41,-2.94,-2.94,-2.94
203.19,2.94,5.89,2.95,5.91,-5.93,-5.85,-5.46,-2.99,-2.98,-2.95
205.23,2.91,5.89,2.92,5.89,-5.92,-5.85,-5.51,-3.01,-3.00,-2.98
207.28,2.91,5.89,2.90,5.89,-5.91,-5.86,-5.56,-3.01,-3.01,-2.98
209.35,2.90,5.91,2.90,5.91,-5.91,-5.87,-5.62,-3.01,-3.01,-3.01
211.44,2.90,5.93,2.90,5.92,-5.91,-5.88,-5.67,-3.02,-3.02,-3.03
213.56,2.90,5.93,2.89,5.93,-5.92,-5.89,-5.73,-3.02,-3.03,-3.04
215.69,2.89,5.93,2.89,5.94,-5.93,-5.89,-5.78,-3.04,-3.04,-3.04
217.85,2.89,5.94,2.89,5.95,-5.94,-5.90,-5.84,-3.06,-3.05,-3.05
220.03,2.89,5.96,2.89,5.95,-5.96,-5.90,-5.89,-3.07,-3.07,-3.07
222.23,2.89,5.97,2.89,5.96,-5.96,-5.90,-5.95,-3.07,-3.08,-3.08
224.45,2.88,5.94,2.88,5.96,-5.97,-5.90,-6.00,-3.09,-3.08,-3.07
226.70,2.89,5.95,2.89,5.95,-5.96,-5.89,-6.04,-3.07,-3.08,-3.06
228.96,2.89,5.95,2.89,5.95,-5.95,-5.88,-6.09,-3.06,-3.05,-3.06
231.25,2.90,5.95,2.90,5.95,-5.92,-5.87,-6.12,-3.02,-3.02,-3.05
233.57,2.91,5.94,2.89,5.93,-5.89,-5.85,-6.16,-2.98,-3.00,-3.03
235.90,2.87,5.89,2.86,5.88,-5.86,-5.83,-6.19,-2.99,-3.00,-3.02
238.26,2.82,5.81,2.82,5.81,-5.83,-5.80,-6.22,-3.01,-3.01,-3.00
240.64,2.76,5.73,2.78,5.74,-5.79,-5.77,-6.23,-3.03,-3.02,-2.97
243.05,2.76,5.70,2.76,5.70,-5.75,-5.74,-6.25,-3.00,-2.99,-2.94
245.48,2.78,5.69,2.78,5.70,-5.71,-5.70,-6.25,-2.93,-2.93,-2.91
247.93,2.81,5.70,2.81,5.70,-5.67,-5.66,-6.25,-2.86,-2.86,-2.89
250.41,2.83,5.70,2.81,5.68,-5.63,-5.62,-6.24,-2.81,-2.82,-2.87
252.92,2.79,5.63,2.79,5.63,-5.60,-5.58,-6.23,-2.81,-2.81,-2.84
255.45,2.75,5.56,2.74,5.56,-5.57,-5.53,-6.21,-2.82,-2.82,-2.81
258.00,2.69,5.49,2.70,5.50,-5.53,-5.49,-6.18,-2.84,-2.83,-2.80
260.58,2.67,5.45,2.68,5.46,-5.49,-5.44,-6.14,-2.82,-2.81,-2.78
263.19,2.67,5.42,2.67,5.43,-5.43,-5.39,-6.10,-2.76,-2.77,-2.76
265.82,2.67,5.41,2.66,5.40,-5.37,-5.34,-6.06,-2.70,-2.71,-2.74
268.48,2.63,5.34,2.62,5.34,-5.31,-5.28,-6.01,-2.68,-2.69,-2.71
271.16,2.58,5.27,2.57,5.26,-5.24,-5.23,-5.95,-2.67,-2.68,-2.69
273.87,2.49,5.16,2.52,5.18,-5.17,-5.17,-5.89,-2.69,-2.66,-2.67
276.61,2.46,5.10,2.46,5.11,-5.10,-5.12,-5.82,-2.64,-2.64,-2.64
279.38,2.44,5.06,2.40,5.02,-5.03,-5.06,-5.75,-2.59,-2.63,-2.62
282.17,2.32,4.92,2.34,4.93,-4.95,-5.01,-5.68,-2.63,-2.61,-2.60
284.99,2.27,4.83,2.29,4.86,-4.88,-4.95,-5.61,-2.61,-2.58,-2.56
287.84,2.27,4.81,2.26,4.80,-4.81,-4.89,-5.53,-2.54,-2.55,-2.54
290.72,2.28,4.78,2.26,4.76,-4.76,-4.83,-5.45,-2.48,-2.50,-2.50
293.63,2.25,4.72,2.25,4.72,-4.71,-4.78,-5.38,-2.46,-2.46,-2.47
296.57,2.22,4.65,2.23,4.67,-4.67,-4.73,-5.30,-2.45,-2.44,-2.44
299.53,2.22,4.64,2.22,4.63,-4.64,-4.68,-5.22,-2.42,-2.42,-2.42
302.53,2.23,4.62,2.23,4.61,-4.62,-4.63,-5.14,-2.39,-2.39,-2.39
305.55,2.24,4.59,2.23,4.60,-4.61,-4.59,-5.07,-2.37,-2.38,-2.35
308.61,2.25,4.58,2.25,4.58,-4.60,-4.56,-4.99,-2.36,-2.36,-2.34
311.69,2.26,4.58,2.28,4.59,-4.60,-4.53,-4.92,-2.34,-2.33,-2.32
314.81,2.32,4.60,2.31,4.60,-4.60,-4.51,-4.84,-2.29,-2.29,-2.28
317.96,2.36,4.63,2.35,4.62,-4.60,-4.49,-4.77,-2.24,-2.25,-2.27
321.14,2.37,4.62,2.37,4.63,-4.59,-4.48,-4.70,-2.23,-2.22,-2.25
324.35,2.37,4.62,2.37,4.62,-4.58,-4.47,-4.64,-2.21,-2.21,-2.25
327.59,2.36,4.59,2.35,4.58,-4.56,-4.47,-4.58,-2.20,-2.21,-2.23
330.87,2.32,4.54,2.32,4.54,-4.54,-4.47,-4.52,-2.22,-2.22,-2.22
334.18,2.27,4.48,2.28,4.49,-4.51,-4.47,-4.46,-2.24,-2.23,-2.21
337.52,2.26,4.46,2.26,4.46,-4.48,-4.47,-4.40,-2.23,-2.22,-2.20
340.90,2.26,4.44,2.25,4.44,-4.46,-4.47,-4.35,-2.20,-2.20,-2.19
344.30,2.26,4.44,2.26,4.43,-4.44,-4.47,-4.30,-2.18,-2.18,-2.18
347.75,2.26,4.43,2.26,4.43,-4.43,-4.47,-4.26,-2.17,-2.17,-2.17
351.23,2.26,4.42,2.26,4.42,-4.42,-4.47,-4.22,-2.16,-2.16,-2.16
354.74,2.26,4.42,2.26,4.42,-4.42,-4.47,-4.18,-2.16,-2.16,-2.16
358.28,2.26,4.41,2.27,4.42,-4.41,-4.46,-4.14,-2.15,-2.15,-2.15
361.87,2.27,4.42,2.27,4.42,-4.41,-4.46,-4.11,-2.14,-2.14,-2.15
365.49,2.28,4.42,2.26,4.41,-4.40,-4.45,-4.08,-2.12,-2.14,-2.15
369.14,2.25,4.40,2.24,4.39,-4.39,-4.44,-4.05,-2.15,-2.15,-2.15
372.83,2.20,4.35,2.22,4.36,-4.38,-4.43,-4.03,-2.18,-2.16,-2.15
376.56,2.20,4.35,2.21,4.35,-4.36,-4.42,-4.01,-2.16,-2.15,-2.15
380.33,2.21,4.34,2.20,4.34,-4.33,-4.40,-3.99,-2.13,-2.13,-2.13
384.13,2.21,4.35,2.20,4.34,-4.31,-4.39,-3.98,-2.10,-2.11,-2.14
387.97,2.16,4.30,2.16,4.30,-4.28,-4.37,-3.97,-2.12,-2.12,-2.14
391.85,2.11,4.25,2.10,4.24,-4.25,-4.35,-3.96,-2.14,-2.14,-2.14
395.77,2.04,4.17,2.05,4.19,-4.21,-4.33,-3.95,-2.18,-2.16,-2.13
399.73,2.02,4.15,2.03,4.17,-4.18,-4.32,-3.94,-2.16,-2.15,-2.13
403.72,2.02,4.16,2.01,4.15,-4.15,-4.30,-3.94,-2.13,-2.14,-2.15
407.76,2.02,4.17,1.99,4.13,-4.12,-4.27,-3.94,-2.11,-2.14,-2.15
411.84,1.94,4.08,1.95,4.10,-4.10,-4.25,-3.94,-2.16,-2.15,-2.14
415.96,1.91,4.06,1.92,4.07,-4.08,-4.23,-3.94,-2.17,-2.16,-2.15
420.12,1.91,4.06,1.91,4.05,-4.06,-4.21,-3.95,-2.15,-2.16,-2.15
424.32,1.92,4.06,1.92,4.06,-4.04,-4.18,-3.95,-2.12,-2.12,-2.14
428.56,1.93,4.07,1.92,4.06,-4.02,-4.16,-3.96,-2.09,-2.10,-2.14
432.85,1.92,4.04,1.91,4.03,-4.01,-4.13,-3.96,-2.09,-2.10,-2.12
437.18,1.89,3.99,1.90,4.00,-4.01,-4.11,-3.97,-2.12,-2.11,-2.10
441.55,1.90,3.96,1.90,3.97,-4.02,-4.08,-3.97,-2.12,-2.12,-2.06
445.96,1.95,3.98,1.94,3.98,-4.03,-4.06,-3.98,-2.08,-2.09,-2.03
450.42,2.00,4.00,2.03,4.02,-4.04,-4.03,-3.98,-2.04,-2.02,-2.00
454.93,2.14,4.08,2.12,4.07,-4.05,-4.00,-3.99,-1.92,-1.93,-1.94
459.48,2.22,4.12,2.21,4.11,-4.07,-3.97,-3.99,-1.85,-1.86,-1.90
464.07,2.28,4.12,2.27,4.12,-4.08,-3.95,-3.99,-1.80,-1.81,-1.85
468.71,2.31,4.10,2.30,4.10,-4.09,-3.92,-3.99,-1.78,-1.79,-1.80
473.40,2.31,4.05,2.33,4.08,-4.08,-3.89,-3.99,-1.77,-1.75,-1.75
478.13,2.35,4.05,2.36,4.05,-4.06,-3.86,-3.98,-1.71,-1.70,-1.70
482.91,2.40,4.06,2.38,4.03,-4.03,-3.83,-3.97,-1.63,-1.65,-1.66
487.74,2.39,4.00,2.39,4.00,-3.99,-3.80,-3.96,-1.60,-1.59,-1.61
492.62,2.38,3.95,2.39,3.96,-3.96,-3.77,-3.95,-1.58,-1.57,-1.57
497.55,2.39,3.93,2.37,3.90,-3.93,-3.74,-3.93,-1.54,-1.56,-1.54
