frequency,raw,error,smoothed,error_smoothed,equalization,parametric_eq,fixed_band_eq,equalized_raw,equalized_smoothed,target
20.00,-5.47,-1.38,-5.48,-1.39,1.36,-0.42,-0.32,-4.11,-4.11,-4.09
20.20,-5.38,-1.29,-5.37,-1.29,1.28,-0.43,-0.33,-4.10,-4.09,-4.09
20.40,-5.28,-1.19,-5.28,-1.19,1.20,-0.44,-0.34,-4.08,-4.08,-4.09
20.61,-5.19,-1.12,-5.18,-1.10,1.12,-0.45,-0.34,-4.07,-4.07,-4.08
20.81,-5.09,-1.01,-5.09,-1.02,1.04,-0.46,-0.35,-4.05,-4.05,-4.08
21.02,-5.01,-0.93,-5.02,-0.94,0.97,-0.47,-0.36,-4.04,-4.05,-4.08
21.23,-4.96,-0.88,-4.96,-0.88,0.90,-0.48,-0.37,-4.06,-4.05,-4.08
21.44,-4.91,-0.84,-4.91,-0.84,0.84,-0.49,-0.38,-4.07,-4.07,-4.07
21.66,-4.86,-0.80,-4.86,-0.80,0.79,-0.50,-0.39,-4.07,-4.08,-4.07
21.87,-4.82,-0.75,-4.81,-0.75,0.73,-0.51,-0.40,-4.09,-4.08,-4.07
22.09,-4.76,-0.69,-4.76,-0.70,0.68,-0.53,-0.42,-4.08,-4.08,-4.07
22.31,-4.70,-0.64,-4.70,-0.64,0.63,-0.54,-0.43,-4.07,-4.07,-4.06
22.54,-4.64,-0.58,-4.64,-0.58,0.58,-0.55,-0.44,-4.06,-4.06,-4.07
22.76,-4.58,-0.52,-4.58,-0.52,0.53,-0.56,-0.45,-4.05,-4.04,-4.06
22.99,-4.51,-0.45,-4.52,-0.46,0.49,-0.57,-0.46,-4.02,-4.03,-4.06
23.22,-4.47,-0.41,-4.47,-0.41,0.43,-0.59,-0.47,-4.04,-4.04,-4.06
23.45,-4.43,-0.37,-4.43,-0.38,0.38,-0.60,-0.49,-4.05,-4.05,-4.06
23.69,-4.39,-0.34,-4.39,-0.34,0.31,-0.61,-0.50,-4.08,-4.08,-4.06
23.92,-4.34,-0.29,-4.33,-0.28,0.24,-0.63,-0.51,-4.10,-4.09,-4.05
24.16,-4.26,-0.20,-4.26,-0.21,0.17,-0.64,-0.53,-4.09,-4.09,-4.06
24.40,-4.16,-0.10,-4.16,-0.10,0.09,-0.65,-0.54,-4.07,-4.07,-4.06
24.65,-4.06,-0.01,-4.05,0.01,0.01,-0.67,-0.56,-4.05,-4.04,-4.06
24.89,-3.95,0.12,-3.96,0.10,-0.06,-0.68,-0.57,-4.01,-4.03,-4.07
25.14,-3.89,0.18,-3.90,0.17,-0.13,-0.70,-0.59,-4.02,-4.03,-4.07
25.39,-3.86,0.22,-3.85,0.22,-0.20,-0.71,-0.60,-4.06,-4.05,-4.08
25.65,-3.83,0.25,-3.83,0.25,-0.25,-0.73,-0.62,-4.08,-4.08,-4.08
25.91,-3.80,0.28,-3.80,0.28,-0.29,-0.75,-0.63,-4.09,-4.09,-4.09
26.16,-3.77,0.32,-3.77,0.32,-0.33,-0.76,-0.65,-4.10,-4.10,-4.09
26.43,-3.73,0.36,-3.73,0.36,-0.37,-0.78,-0.67,-4.10,-4.10,-4.10
26.69,-3.69,0.41,-3.70,0.40,-0.41,-0.80,-0.68,-4.10,-4.11,-4.10
26.96,-3.66,0.44,-3.65,0.45,-0.46,-0.81,-0.70,-4.12,-4.11,-4.10
27.23,-3.60,0.49,-3.60,0.50,-0.51,-0.83,-0.72,-4.11,-4.11,-4.10
27.50,-3.53,0.58,-3.54,0.56,-0.57,-0.85,-0.74,-4.10,-4.10,-4.11
27.77,-3.47,0.64,-3.47,0.63,-0.63,-0.87,-0.75,-4.10,-4.10,-4.11
28.05,-3.41,0.69,-3.41,0.69,-0.69,-0.89,-0.77,-4.10,-4.10,-4.10
28.33,-3.34,0.76,-3.34,0.75,-0.76,-0.91,-0.79,-4.10,-4.10,-4.10
28.62,-3.28,0.81,-3.28,0.82,-0.83,-0.93,-0.81,-4.11,-4.10,-4.10
28.90,-3.21,0.89,-3.21,0.88,-0.89,-0.95,-0.83,-4.10,-4.10,-4.10
29.19,-3.15,0.95,-3.15,0.95,-0.95,-0.97,-0.85,-4.10,-4.10,-4.10
29.48,-3.09,1.01,-3.08,1.01,-1.00,-0.99,-0.87,-4.08,-4.08,-4.10
29.78,-3.03,1.07,-3.03,1.07,-1.04,-1.02,-0.88,-4.07,-4.07,-4.10
30.08,-2.98,1.12,-2.99,1.11,-1.08,-1.04,-0.90,-4.07,-4.08,-4.11
30.38,-2.97,1.14,-2.98,1.13,-1.13,-1.06,-0.92,-4.10,-4.11,-4.11
30.68,-2.97,1.14,-2.97,1.14,-1.17,-1.09,-0.94,-4.14,-4.14,-4.11
30.99,-2.96,1.16,-2.94,1.17,-1.21,-1.11,-0.96,-4.17,-4.15,-4.12
31.30,-2.89,1.22,-2.89,1.22,-1.24,-1.14,-0.98,-4.14,-4.14,-4.12
31.61,-2.83,1.30,-2.83,1.29,-1.28,-1.16,-1.00,-4.11,-4.11,-4.13
31.93,-2.76,1.36,-2.77,1.36,-1.31,-1.19,-1.02,-4.07,-4.09,-4.13
32.24,-2.74,1.40,-2.75,1.39,-1.35,-1.21,-1.04,-4.09,-4.10,-4.14
32.57,-2.74,1.41,-2.74,1.40,-1.40,-1.24,-1.06,-4.14,-4.14,-4.15
32.89,-2.74,1.41,-2.72,1.42,-1.46,-1.27,-1.08,-4.20,-4.18,-4.15
33.22,-2.69,1.46,-2.68,1.47,-1.51,-1.30,-1.10,-4.20,-4.19,-4.15
33.55,-2.61,1.55,-2.62,1.54,-1.56,-1.33,-1.12,-4.17,-4.18,-4.16
33.89,-2.54,1.63,-2.54,1.62,-1.62,-1.36,-1.14,-4.16,-4.16,-4.17
34.23,-2.47,1.70,-2.47,1.70,-1.68,-1.39,-1.16,-4.15,-4.15,-4.17
34.57,-2.42,1.76,-2.41,1.76,-1.73,-1.42,-1.19,-4.15,-4.15,-4.18
34.92,-2.36,1.81,-2.37,1.81,-1.78,-1.45,-1.21,-4.14,-4.15,-4.18
35.27,-2.33,1.85,-2.33,1.85,-1.83,-1.48,-1.23,-4.16,-4.16,-4.18
35.62,-2.31,1.87,-2.30,1.88,-1.87,-1.52,-1.25,-4.18,-4.17,-4.18
35.97,-2.28,1.91,-2.29,1.90,-1.90,-1.55,-1.28,-4.18,-4.19,-4.19
36.33,-2.27,1.92,-2.28,1.91,-1.93,-1.58,-1.30,-4.20,-4.20,-4.19
36.70,-2.26,1.93,-2.26,1.93,-1.96,-1.62,-1.33,-4.22,-4.21,-4.19
37.06,-2.24,1.95,-2.22,1.97,-1.98,-1.66,-1.36,-4.22,-4.20,-4.19
37.43,-2.16,2.03,-2.16,2.02,-2.01,-1.69,-1.38,-4.17,-4.18,-4.19
37.81,-2.09,2.09,-2.10,2.08,-2.05,-1.73,-1.41,-4.14,-4.15,-4.18
38.19,-2.05,2.13,-2.07,2.11,-2.09,-1.77,-1.44,-4.14,-4.16,-4.18
38.57,-2.05,2.13,-2.05,2.12,-2.14,-1.81,-1.47,-4.19,-4.19,-4.18
38.95,-2.05,2.13,-2.02,2.16,-2.18,-1.85,-1.50,-4.23,-4.20,-4.18
39.34,-1.97,2.21,-1.96,2.21,-2.22,-1.89,-1.53,-4.19,-4.19,-4.18
39.74,-1.88,2.30,-1.89,2.28,-2.26,-1.93,-1.57,-4.14,-4.16,-4.18
40.14,-1.82,2.35,-1.84,2.33,-2.31,-1.97,-1.60,-4.13,-4.15,-4.18
40.54,-1.82,2.36,-1.82,2.36,-2.36,-2.01,-1.64,-4.18,-4.17,-4.18
40.94,-1.82,2.36,-1.80,2.38,-2.41,-2.05,-1.67,-4.23,-4.20,-4.18
41.35,-1.76,2.43,-1.76,2.43,-2.46,-2.09,-1.71,-4.22,-4.21,-4.19
41.76,-1.69,2.51,-1.70,2.49,-2.50,-2.14,-1.75,-4.19,-4.20,-4.20
42.18,-1.64,2.57,-1.65,2.56,-2.54,-2.18,-1.80,-4.18,-4.18,-4.21
42.60,-1.62,2.60,-1.62,2.60,-2.57,-2.23,-1.84,-4.19,-4.18,-4.22
43.03,-1.60,2.63,-1.60,2.63,-2.60,-2.27,-1.88,-4.20,-4.20,-4.23
43.46,-1.60,2.65,-1.60,2.64,-2.63,-2.32,-1.93,-4.23,-4.23,-4.25
43.90,-1.60,2.66,-1.60,2.65,-2.67,-2.36,-1.98,-4.27,-4.27,-4.26
44.33,-1.60,2.67,-1.61,2.66,-2.71,-2.41,-2.02,-4.31,-4.32,-4.27
44.78,-1.60,2.68,-1.58,2.69,-2.75,-2.46,-2.07,-4.35,-4.33,-4.28
45.23,-1.55,2.73,-1.53,2.76,-2.78,-2.50,-2.13,-4.33,-4.31,-4.29
45.68,-1.44,2.85,-1.46,2.84,-2.82,-2.55,-2.18,-4.26,-4.27,-4.30
46.13,-1.37,2.93,-1.39,2.90,-2.85,-2.60,-2.23,-4.22,-4.24,-4.30
46.60,-1.37,2.93,-1.36,2.93,-2.88,-2.64,-2.29,-4.25,-4.24,-4.30
47.06,-1.37,2.93,-1.36,2.93,-2.90,-2.69,-2.35,-4.27,-4.26,-4.30
47.53,-1.37,2.93,-1.37,2.92,-2.93,-2.74,-2.41,-4.30,-4.30,-4.30
48.01,-1.37,2.92,-1.38,2.91,-2.95,-2.79,-2.47,-4.32,-4.33,-4.29
48.49,-1.37,2.91,-1.37,2.90,-2.97,-2.83,-2.53,-4.34,-4.34,-4.28
48.97,-1.37,2.90,-1.33,2.94,-2.98,-2.88,-2.59,-4.35,-4.31,-4.27
49.46,-1.26,3.00,-1.26,3.00,-2.99,-2.93,-2.65,-4.25,-4.25,-4.26
49.96,-1.15,3.10,-1.19,3.05,-3.01,-2.97,-2.72,-4.16,-4.20,-4.25
50.46,-1.14,3.09,-1.14,3.09,-3.02,-3.02,-2.78,-4.16,-4.16,-4.23
50.96,-1.14,3.08,-1.13,3.09,-3.05,-3.06,-2.85,-4.19,-4.18,-4.22
51.47,-1.14,3.07,-1.14,3.07,-3.07,-3.11,-2.91,-4.21,-4.21,-4.21
51.99,-1.14,3.07,-1.15,3.05,-3.10,-3.15,-2.98,-4.24,-4.25,-4.21
52.51,-1.14,3.07,-1.14,3.06,-3.13,-3.19,-3.04,-4.27,-4.27,-4.21
53.03,-1.13,3.08,-1.09,3.12,-3.16,-3.23,-3.11,-4.29,-4.25,-4.21
53.56,-1.01,3.20,-1.02,3.19,-3.19,-3.27,-3.17,-4.20,-4.20,-4.21
54.10,-0.91,3.29,-0.95,3.26,-3.22,-3.31,-3.23,-4.13,-4.17,-4.21
54.64,-0.91,3.31,-0.90,3.31,-3.25,-3.34,-3.30,-4.16,-4.15,-4.22
55.18,-0.91,3.32,-0.90,3.32,-3.28,-3.38,-3.36,-4.19,-4.18,-4.23
55.74,-0.91,3.33,-0.91,3.33,-3.32,-3.41,-3.41,-4.23,-4.23,-4.24
56.29,-0.91,3.35,-0.91,3.34,-3.36,-3.44,-3.47,-4.27,-4.27,-4.26
56.86,-0.91,3.36,-0.92,3.35,-3.39,-3.47,-3.52,-4.30,-4.32,-4.27
57.42,-0.91,3.38,-0.91,3.37,-3.44,-3.50,-3.58,-4.35,-4.35,-4.29
58.00,-0.91,3.40,-0.86,3.44,-3.48,-3.53,-3.62,-4.39,-4.34,-4.31
58.58,-0.78,3.55,-0.79,3.54,-3.53,-3.55,-3.67,-4.31,-4.32,-4.33
59.16,-0.68,3.67,-0.72,3.63,-3.59,-3.57,-3.71,-4.27,-4.31,-4.35
59.76,-0.68,3.69,-0.67,3.69,-3.65,-3.59,-3.74,-4.33,-4.32,-4.37
60.35,-0.68,3.71,-0.67,3.71,-3.70,-3.61,-3.77,-4.38,-4.37,-4.39
60.96,-0.68,3.73,-0.68,3.72,-3.73,-3.62,-3.80,-4.41,-4.41,-4.41
61.57,-0.68,3.74,-0.68,3.74,-3.75,-3.64,-3.82,-4.43,-4.43,-4.42
62.18,-0.68,3.76,-0.68,3.76,-3.75,-3.65,-3.84,-4.43,-4.43,-4.44
62.80,-0.68,3.78,-0.69,3.77,-3.74,-3.66,-3.86,-4.42,-4.43,-4.46
63.43,-0.72,3.76,-0.73,3.75,-3.72,-3.66,-3.87,-4.44,-4.45,-4.48
64.07,-0.79,3.71,-0.79,3.70,-3.70,-3.66,-3.87,-4.49,-4.50,-4.50
64.71,-0.87,3.65,-0.86,3.66,-3.69,-3.67,-3.87,-4.55,-4.54,-4.52
65.35,-0.91,3.63,-0.90,3.63,-3.67,-3.67,-3.86,-4.58,-4.57,-4.54
66.01,-0.91,3.64,-0.92,3.63,-3.66,-3.66,-3.86,-4.57,-4.57,-4.55
66.67,-0.91,3.65,-0.91,3.64,-3.66,-3.66,-3.84,-4.57,-4.57,-4.56
67.33,-0.91,3.65,-0.91,3.65,-3.66,-3.65,-3.83,-4.57,-4.57,-4.56
68.01,-0.91,3.66,-0.91,3.65,-3.66,-3.64,-3.81,-4.57,-4.57,-4.57
68.69,-0.91,3.66,-0.91,3.65,-3.66,-3.63,-3.78,-4.57,-4.57,-4.57
69.37,-0.91,3.65,-0.90,3.66,-3.63,-3.62,-3.76,-4.54,-4.53,-4.56
70.07,-0.91,3.64,-0.90,3.65,-3.59,-3.61,-3.73,-4.50,-4.49,-4.55
70.77,-0.91,3.63,-0.94,3.60,-3.52,-3.59,-3.70,-4.43,-4.46,-4.54
71.48,-1.02,3.51,-1.05,3.48,-3.44,-3.57,-3.67,-4.46,-4.48,-4.53
72.19,-1.19,3.33,-1.18,3.34,-3.34,-3.56,-3.64,-4.53,-4.52,-4.52
72.91,-1.35,3.15,-1.30,3.20,-3.24,-3.54,-3.61,-4.59,-4.54,-4.50
73.64,-1.37,3.12,-1.39,3.09,-3.14,-3.52,-3.57,-4.51,-4.53,-4.49
74.38,-1.43,3.05,-1.47,3.01,-3.04,-3.50,-3.54,-4.47,-4.51,-4.48
75.12,-1.55,2.92,-1.52,2.95,-2.96,-3.47,-3.51,-4.51,-4.48,-4.47
75.87,-1.59,2.88,-1.58,2.88,-2.90,-3.45,-3.47,-4.49,-4.48,-4.47
76.63,-1.60,2.86,-1.61,2.85,-2.86,-3.43,-3.44,-4.46,-4.46,-4.46
77.40,-1.60,2.85,-1.60,2.84,-2.83,-3.41,-3.41,-4.43,-4.43,-4.45
78.17,-1.60,2.84,-1.60,2.84,-2.81,-3.38,-3.38,-4.41,-4.41,-4.44
78.95,-1.60,2.84,-1.60,2.83,-2.80,-3.36,-3.35,-4.40,-4.40,-4.44
79.74,-1.60,2.83,-1.60,2.82,-2.81,-3.34,-3.32,-4.41,-4.42,-4.43
80.54,-1.60,2.82,-1.61,2.80,-2.84,-3.31,-3.29,-4.44,-4.45,-4.42
81.35,-1.59,2.82,-1.57,2.84,-2.88,-3.29,-3.27,-4.47,-4.45,-4.41
82.16,-1.55,2.85,-1.52,2.88,-2.92,-3.26,-3.25,-4.47,-4.44,-4.40
82.98,-1.37,3.02,-1.43,2.95,-2.96,-3.24,-3.23,-4.33,-4.39,-4.39
83.81,-1.37,3.00,-1.32,3.05,-3.01,-3.22,-3.21,-4.38,-4.34,-4.37
84.65,-1.22,3.14,-1.23,3.13,-3.07,-3.20,-3.19,-4.29,-4.30,-4.36
85.50,-1.14,3.20,-1.18,3.16,-3.13,-3.17,-3.18,-4.27,-4.31,-4.34
86.35,-1.14,3.18,-1.14,3.18,-3.18,-3.15,-3.17,-4.32,-4.32,-4.32
87.22,-1.13,3.17,-1.10,3.20,-3.22,-3.13,-3.16,-4.35,-4.32,-4.30
88.09,-1.07,3.21,-1.04,3.24,-3.25,-3.11,-3.15,-4.32,-4.29,-4.28
88.97,-0.92,3.34,-0.97,3.29,-3.28,-3.10,-3.15,-4.20,-4.25,-4.26
89.86,-0.91,3.34,-0.92,3.32,-3.30,-3.08,-3.15,-4.21,-4.23,-4.25
90.76,-0.91,3.32,-0.90,3.32,-3.33,-3.06,-3.15,-4.24,-4.23,-4.23
91.66,-0.91,3.30,-0.88,3.32,-3.36,-3.04,-3.15,-4.27,-4.24,-4.21
92.58,-0.83,3.36,-0.82,3.36,-3.39,-3.03,-3.16,-4.22,-4.21,-4.19
93.51,-0.73,3.44,-0.75,3.42,-3.41,-3.02,-3.16,-4.14,-4.16,-4.17
94.44,-0.68,3.47,-0.69,3.45,-3.42,-3.00,-3.17,-4.10,-4.11,-4.15
95.39,-0.68,3.45,-0.67,3.45,-3.42,-2.99,-3.19,-4.10,-4.09,-4.13
96.34,-0.68,3.43,-0.68,3.43,-3.42,-2.98,-3.20,-4.10,-4.09,-4.11
97.30,-0.68,3.41,-0.68,3.40,-3.41,-2.97,-3.22,-4.09,-4.09,-4.09
98.28,-0.68,3.39,-0.68,3.39,-3.40,-2.96,-3.23,-4.08,-4.08,-4.07
99.26,-0.68,3.37,-0.68,3.37,-3.38,-2.96,-3.25,-4.06,-4.06,-4.05
100.25,-0.68,3.36,-0.68,3.35,-3.36,-2.95,-3.28,-4.04,-4.04,-4.04
101.25,-0.68,3.34,-0.68,3.34,-3.34,-2.95,-3.30,-4.02,-4.02,-4.02
102.27,-0.68,3.33,-0.68,3.33,-3.33,-2.94,-3.33,-4.01,-4.01,-4.01
103.29,-0.68,3.32,-0.68,3.32,-3.32,-2.94,-3.35,-4.00,-4.00,-4.00
104.32,-0.68,3.32,-0.68,3.31,-3.32,-2.94,-3.38,-4.00,-4.00,-4.00
105.37,-0.68,3.32,-0.68,3.31,-3.32,-2.94,-3.41,-4.00,-4.00,-4.00
106.42,-0.68,3.32,-0.68,3.32,-3.32,-2.94,-3.43,-4.00,-4.00,-4.00
107.48,-0.68,3.33,-0.68,3.33,-3.33,-2.95,-3.46,-4.01,-4.01,-4.01
108.56,-0.68,3.35,-0.68,3.34,-3.34,-2.95,-3.49,-4.02,-4.02,-4.03
109.64,-0.68,3.36,-0.68,3.35,-3.35,-2.96,-3.52,-4.03,-4.03,-4.04
110.74,-0.68,3.37,-0.68,3.37,-3.37,-2.97,-3.55,-4.05,-4.05,-4.05
111.85,-0.68,3.38,-0.68,3.38,-3.38,-2.98,-3.58,-4.06,-4.06,-4.06
112.97,-0.68,3.40,-0.68,3.39,-3.39,-2.99,-3.61,-4.07,-4.07,-4.08
114.10,-0.68,3.41,-0.68,3.41,-3.41,-3.00,-3.63,-4.09,-4.09,-4.09
115.24,-0.68,3.42,-0.68,3.42,-3.42,-3.01,-3.66,-4.10,-4.10,-4.10
116.39,-0.68,3.43,-0.68,3.43,-3.42,-3.03,-3.68,-4.10,-4.10,-4.11
117.55,-0.68,3.44,-0.68,3.43,-3.43,-3.05,-3.70,-4.11,-4.11,-4.12
118.73,-0.68,3.44,-0.68,3.44,-3.43,-3.06,-3.72,-4.11,-4.11,-4.12
119.92,-0.68,3.44,-0.68,3.44,-3.44,-3.08,-3.74,-4.12,-4.12,-4.12
121.12,-0.68,3.44,-0.68,3.44,-3.44,-3.10,-3.75,-4.12,-4.12,-4.12
122.33,-0.68,3.44,-0.68,3.43,-3.43,-3.13,-3.76,-4.11,-4.11,-4.12
123.55,-0.68,3.43,-0.68,3.43,-3.43,-3.15,-3.77,-4.11,-4.11,-4.11
124.79,-0.68,3.43,-0.68,3.42,-3.42,-3.18,-3.78,-4.10,-4.10,-4.11
126.03,-0.68,3.42,-0.68,3.42,-3.42,-3.20,-3.78,-4.10,-4.10,-4.10
127.29,-0.68,3.41,-0.68,3.41,-3.41,-3.23,-3.78,-4.09,-4.09,-4.09
128.57,-0.68,3.41,-0.68,3.40,-3.40,-3.26,-3.78,-4.08,-4.08,-4.09
129.85,-0.68,3.40,-0.68,3.39,-3.40,-3.29,-3.78,-4.08,-4.08,-4.08
131.15,-0.68,3.39,-0.68,3.39,-3.39,-3.32,-3.77,-4.07,-4.07,-4.07
132.46,-0.68,3.39,-0.68,3.38,-3.39,-3.36,-3.76,-4.07,-4.07,-4.07
133.79,-0.68,3.39,-0.68,3.38,-3.38,-3.39,-3.75,-4.06,-4.06,-4.07
135.12,-0.68,3.38,-0.68,3.38,-3.38,-3.43,-3.74,-4.06,-4.06,-4.06
136.48,-0.68,3.38,-0.68,3.38,-3.37,-3.46,-3.73,-4.05,-4.05,-4.06
137.84,-0.68,3.38,-0.68,3.37,-3.37,-3.50,-3.71,-4.05,-4.05,-4.06
139.22,-0.68,3.37,-0.68,3.37,-3.36,-3.54,-3.69,-4.04,-4.04,-4.05
140.61,-0.68,3.37,-0.68,3.37,-3.36,-3.58,-3.68,-4.04,-4.04,-4.05
142.02,-0.68,3.37,-0.68,3.36,-3.35,-3.62,-3.66,-4.03,-4.03,-4.05
143.44,-0.68,3.37,-0.68,3.37,-3.35,-3.67,-3.64,-4.03,-4.03,-4.05
144.87,-0.68,3.37,-0.68,3.37,-3.37,-3.71,-3.62,-4.05,-4.05,-4.05
146.32,-0.68,3.38,-0.69,3.36,-3.39,-3.75,-3.60,-4.07,-4.08,-4.06
147.78,-0.68,3.39,-0.68,3.38,-3.42,-3.80,-3.59,-4.10,-4.10,-4.07
149.26,-0.68,3.40,-0.65,3.43,-3.46,-3.84,-3.57,-4.14,-4.10,-4.08
150.75,-0.58,3.52,-0.58,3.51,-3.51,-3.89,-3.55,-4.09,-4.09,-4.10
152.26,-0.49,3.63,-0.52,3.60,-3.57,-3.93,-3.54,-4.06,-4.09,-4.12
153.78,-0.46,3.69,-0.48,3.67,-3.65,-3.98,-3.52,-4.11,-4.12,-4.15
155.32,-0.46,3.72,-0.44,3.73,-3.72,-4.03,-3.51,-4.18,-4.17,-4.18
156.88,-0.44,3.77,-0.39,3.81,-3.81,-4.07,-3.50,-4.25,-4.20,-4.21
158.44,-0.29,3.94,-0.33,3.89,-3.90,-4.12,-3.49,-4.19,-4.24,-4.23
160.03,-0.23,4.02,-0.26,3.99,-4.00,-4.17,-3.49,-4.23,-4.26,-4.25
161.63,-0.23,4.04,-0.18,4.08,-4.10,-4.21,-3.48,-4.33,-4.29,-4.27
163.24,-0.09,4.19,-0.10,4.18,-4.20,-4.26,-3.48,-4.29,-4.30,-4.28
164.88,-0.00,4.29,0.02,4.31,-4.30,-4.30,-3.48,-4.30,-4.28,-4.29
166.53,0.18,4.47,0.13,4.42,-4.40,-4.35,-3.49,-4.22,-4.26,-4.29
168.19,0.23,4.52,0.23,4.52,-4.49,-4.39,-3.49,-4.26,-4.26,-4.29
169.87,0.28,4.56,0.33,4.60,-4.58,-4.43,-3.50,-4.30,-4.25,-4.28
171.57,0.42,4.68,0.37,4.63,-4.65,-4.47,-3.51,-4.23,-4.28,-4.26
173.29,0.46,4.70,0.45,4.69,-4.71,-4.51,-3.52,-4.25,-4.26,-4.24
175.02,0.46,4.68,0.54,4.75,-4.75,-4.55,-3.54,-4.29,-4.21,-4.22
176.77,0.65,4.84,0.60,4.79,-4.77,-4.59,-3.56,-4.12,-4.17,-4.19
178.54,0.68,4.84,0.66,4.82,-4.79,-4.62,-3.58,-4.11,-4.12,-4.16
180.32,0.68,4.81,0.70,4.82,-4.79,-4.65,-3.60,-4.11,-4.09,-4.13
182.13,0.68,4.78,0.68,4.78,-4.79,-4.68,-3.63,-4.11,-4.11,-4.10
183.95,0.68,4.76,0.68,4.75,-4.79,-4.70,-3.66,-4.11,-4.11,-4.08
185.79,0.68,4.74,0.68,4.73,-4.77,-4.73,-3.69,-4.09,-4.09,-4.06
187.65,0.68,4.72,0.68,4.72,-4.74,-4.75,-3.73,-4.06,-4.06,-4.04
189.52,0.68,4.71,0.69,4.72,-4.70,-4.77,-3.77,-4.02,-4.01,-4.03
191.42,0.68,4.70,0.68,4.70,-4.65,-4.78,-3.81,-3.97,-3.97,-4.02
193.33,0.68,4.70,0.64,4.66,-4.61,-4.79,-3.85,-3.93,-3.97,-4.02
195.27,0.58,4.59,0.58,4.58,-4.58,-4.80,-3.89,-4.00,-4.00,-4.01
197.22,0.48,4.48,0.51,4.51,-4.54,-4.80,-3.94,-4.06,-4.03,-4.00
199.19,0.46,4.46,0.46,4.46,-4.51,-4.80,-3.98,-4.05,-4.05,-4.00
201.18,0.46,4.46,0.45,4.45,-4.48,-4.80,-4.03,-4.02,-4.03,-4.00
203.19,0.46,4.46,0.46,4.45,-4.46,-4.79,-4.08,-4.00,-4.00,-4.00
205.23,0.46,4.46,0.46,4.46,-4.45,-4.78,-4.13,-3.99,-3.99,-4.00
207.28,0.46,4.47,0.46,4.46,-4.45,-4.77,-4.19,-3.99,-3.99,-4.01
209.35,0.46,4.48,0.46,4.47,-4.46,-4.75,-4.24,-4.00,-4.00,-4.02
211.44,0.46,4.48,0.46,4.48,-4.47,-4.73,-4.29,-4.01,-4.01,-4.02
213.56,0.46,4.49,0.46,4.48,-4.48,-4.71,-4.34,-4.02,-4.02,-4.03
215.69,0.46,4.49,0.46,4.49,-4.49,-4.68,-4.39,-4.03,-4.03,-4.03
217.85,0.46,4.50,0.46,4.49,-4.50,-4.65,-4.44,-4.04,-4.04,-4.04
220.03,0.46,4.50,0.46,4.50,-4.51,-4.61,-4.49,-4.05,-4.05,-4.04
222.23,0.46,4.51,0.46,4.50,-4.52,-4.58,-4.53,-4.06,-4.06,-4.05
224.45,0.46,4.51,0.46,4.51,-4.52,-4.54,-4.58,-4.06,-4.06,-4.05
226.70,0.46,4.52,0.46,4.52,-4.50,-4.49,-4.61,-4.04,-4.04,-4.06
228.96,0.46,4.52,0.48,4.53,-4.48,-4.45,-4.65,-4.02,-4.01,-4.06
231.25,0.46,4.53,0.44,4.50,-4.46,-4.40,-4.68,-4.00,-4.02,-4.07
233.57,0.42,4.49,0.37,4.44,-4.44,-4.35,-4.71,-4.02,-4.06,-4.07
235.90,0.24,4.31,0.30,4.37,-4.41,-4.30,-4.73,-4.17,-4.11,-4.07
238.26,0.23,4.31,0.24,4.31,-4.37,-4.25,-4.74,-4.14,-4.14,-4.08
240.64,0.23,4.31,0.21,4.29,-4.33,-4.19,-4.75,-4.10,-4.12,-4.08
243.05,0.23,4.31,0.25,4.32,-4.28,-4.14,-4.76,-4.05,-4.03,-4.08
245.48,0.23,4.31,0.22,4.30,-4.24,-4.08,-4.75,-4.01,-4.01,-4.08
247.93,0.23,4.31,0.16,4.24,-4.20,-4.02,-4.75,-3.97,-4.04,-4.08
250.41,0.04,4.12,0.09,4.17,-4.17,-3.96,-4.73,-4.13,-4.08,-4.08
252.92,0.00,4.08,0.02,4.10,-4.15,-3.90,-4.71,-4.15,-4.13,-4.08
255.45,0.00,4.08,-0.02,4.06,-4.13,-3.83,-4.67,-4.13,-4.15,-4.08
258.00,0.00,4.08,-0.00,4.07,-4.11,-3.77,-4.64,-4.11,-4.11,-4.08
260.58,0.00,4.08,0.00,4.08,-4.08,-3.71,-4.59,-4.08,-4.08,-4.08
263.19,0.00,4.09,0.01,4.09,-4.06,-3.65,-4.54,-4.06,-4.05,-4.09
265.82,0.00,4.09,-0.02,4.07,-4.03,-3.58,-4.49,-4.03,-4.05,-4.09
268.48,-0.05,4.04,-0.07,4.02,-3.99,-3.52,-4.43,-4.04,-4.06,-4.09
271.16,-0.18,3.92,-0.15,3.94,-3.93,-3.46,-4.36,-4.11,-4.08,-4.10
273.87,-0.23,3.87,-0.24,3.85,-3.85,-3.39,-4.29,-4.08,-4.10,-4.10
276.61,-0.36,3.74,-0.35,3.75,-3.76,-3.33,-4.21,-4.12,-4.11,-4.10
279.38,-0.44,3.67,-0.46,3.64,-3.64,-3.27,-4.13,-4.08,-4.10,-4.11
282.17,-0.62,3.49,-0.61,3.50,-3.51,-3.21,-4.05,-4.13,-4.12,-4.11
284.99,-0.74,3.37,-0.73,3.37,-3.37,-3.15,-3.96,-4.11,-4.10,-4.11
287.84,-0.90,3.21,-0.89,3.22,-3.21,-3.08,-3.87,-4.11,-4.10,-4.11
290.72,-0.98,3.13,-1.03,3.08,-3.05,-3.02,-3.78,-4.03,-4.08,-4.11
293.63,-1.23,2.88,-1.18,2.92,-2.88,-2.96,-3.68,-4.11,-4.06,-4.11
296.57,-1.35,2.76,-1.38,2.73,-2.71,-2.91,-3.59,-4.06,-4.09,-4.11
299.53,-1.54,2.57,-1.57,2.54,-2.55,-2.85,-3.49,-4.09,-4.12,-4.11
302.53,-1.78,2.34,-1.70,2.41,-2.42,-2.79,-3.39,-4.20,-4.12,-4.12
305.55,-1.82,2.30,-1.84,2.28,-2.31,-2.73,-3.30,-4.13,-4.15,-4.12
308.61,-1.88,2.24,-1.95,2.17,-2.24,-2.68,-3.20,-4.12,-4.18,-4.12
311.69,-2.03,2.10,-1.99,2.13,-2.20,-2.62,-3.10,-4.23,-4.19,-4.13
314.81,-2.05,2.09,-1.99,2.14,-2.18,-2.57,-3.00,-4.23,-4.17,-4.14
317.96,-1.91,2.24,-1.94,2.21,-2.20,-2.52,-2.90,-4.11,-4.14,-4.15
321.14,-1.82,2.35,-1.86,2.30,-2.25,-2.46,-2.81,-4.07,-4.11,-4.17
324.35,-1.82,2.36,-1.82,2.35,-2.31,-2.41,-2.71,-4.13,-4.13,-4.18
327.59,-1.82,2.37,-1.82,2.37,-2.38,-2.36,-2.62,-4.20,-4.19,-4.19
330.87,-1.82,2.38,-1.78,2.41,-2.45,-2.31,-2.52,-4.27,-4.23,-4.20
334.18,-1.72,2.49,-1.72,2.49,-2.51,-2.27,-2.43,-4.23,-4.23,-4.21
337.52,-1.61,2.61,-1.65,2.57,-2.56,-2.22,-2.34,-4.17,-4.21,-4.22
340.90,-1.60,2.62,-1.60,2.62,-2.59,-2.17,-2.25,-4.19,-4.19,-4.22
344.30,-1.60,2.63,-1.59,2.63,-2.61,-2.13,-2.16,-4.21,-4.20,-4.23
347.75,-1.60,2.63,-1.59,2.64,-2.62,-2.08,-2.07,-4.22,-4.21,-4.23
351.23,-1.60,2.63,-1.60,2.63,-2.61,-2.04,-1.99,-4.21,-4.21,-4.23
354.74,-1.60,2.63,-1.64,2.59,-2.59,-2.00,-1.90,-4.19,-4.23,-4.23
358.28,-1.71,2.52,-1.70,2.52,-2.54,-1.96,-1.82,-4.25,-4.24,-4.23
361.87,-1.80,2.42,-1.76,2.46,-2.47,-1.92,-1.73,-4.27,-4.23,-4.22
365.49,-1.82,2.40,-1.82,2.39,-2.39,-1.88,-1.65,-4.21,-4.21,-4.22
369.14,-1.84,2.38,-1.88,2.33,-2.30,-1.84,-1.58,-4.14,-4.18,-4.22
372.83,-1.99,2.23,-1.98,2.23,-2.20,-1.80,-1.50,-4.19,-4.18,-4.22
376.56,-2.10,2.11,-2.10,2.11,-2.09,-1.76,-1.42,-4.19,-4.19,-4.21
380.33,-2.25,1.96,-2.22,1.99,-2.00,-1.73,-1.35,-4.25,-4.22,-4.21
384.13,-2.28,1.93,-2.33,1.88,-1.91,-1.69,-1.27,-4.19,-4.23,-4.21
387.97,-2.43,1.78,-2.42,1.79,-1.83,-1.66,-1.20,-4.26,-4.24,-4.21
391.85,-2.50,1.71,-2.48,1.73,-1.76,-1.63,-1.13,-4.26,-4.24,-4.21
395.77,-2.51,1.70,-2.52,1.68,-1.71,-1.59,-1.06,-4.22,-4.23,-4.21
399.73,-2.51,1.69,-2.52,1.68,-1.69,-1.56,-0.99,-4.20,-4.20,-4.20
403.72,-2.51,1.69,-2.51,1.69,-1.68,-1.53,-0.93,-4.19,-4.19,-4.20
407.76,-2.51,1.69,-2.51,1.68,-1.68,-1.50,-0.86,-4.19,-4.19,-4.20
411.84,-2.51,1.69,-2.51,1.69,-1.69,-1.47,-0.80,-4.20,-4.20,-4.20
415.96,-2.51,1.69,-2.51,1.69,-1.69,-1.44,-0.74,-4.20,-4.20,-4.20
420.12,-2.51,1.69,-2.50,1.69,-1.68,-1.41,-0.68,-4.19,-4.18,-4.20
424.32,-2.51,1.69,-2.50,1.69,-1.65,-1.39,-0.63,-4.16,-4.16,-4.20
428.56,-2.51,1.69,-2.54,1.65,-1.61,-1.36,-0.57,-4.12,-4.16,-4.20
