frequency,raw,error,smoothed,error_smoothed,equalization,parametric_eq,fixed_band_eq,equalized_raw,equalized_smoothed,target
20.00,-8.23,-11.32,-8.23,-11.31,6.00,5.78,2.79,-2.23,-2.23,3.09
20.20,-8.16,-11.22,-8.16,-11.22,6.00,5.79,2.87,-2.16,-2.16,3.06
20.40,-8.10,-11.14,-8.10,-11.14,6.00,5.80,2.95,-2.10,-2.10,3.04
20.61,-8.03,-11.05,-8.03,-11.05,6.00,5.82,3.03,-2.03,-2.03,3.02
20.81,-7.97,-10.97,-7.97,-10.96,6.00,5.83,3.12,-1.97,-1.97,3.00
21.02,-7.90,-10.88,-7.90,-10.88,6.00,5.85,3.21,-1.90,-1.90,2.98
21.23,-7.83,-10.79,-7.83,-10.79,6.00,5.86,3.30,-1.83,-1.83,2.96
21.44,-7.77,-10.71,-7.77,-10.70,6.00,5.88,3.39,-1.77,-1.77,2.94
21.66,-7.70,-10.62,-7.70,-10.62,6.00,5.89,3.49,-1.70,-1.70,2.92
21.87,-7.63,-10.54,-7.63,-10.53,6.00,5.91,3.59,-1.63,-1.63,2.91
22.09,-7.56,-10.45,-7.56,-10.45,6.00,5.92,3.69,-1.56,-1.56,2.89
22.31,-7.49,-10.37,-7.49,-10.37,6.00,5.93,3.80,-1.49,-1.49,2.88
22.54,-7.42,-10.29,-7.42,-10.28,6.00,5.95,3.90,-1.42,-1.42,2.87
22.76,-7.34,-10.20,-7.34,-10.20,6.00,5.96,4.02,-1.34,-1.34,2.86
22.99,-7.27,-10.12,-7.27,-10.12,6.00,5.98,4.13,-1.27,-1.27,2.85
23.22,-7.20,-10.04,-7.20,-10.03,6.00,5.99,4.25,-1.20,-1.20,2.84
23.45,-7.13,-9.96,-7.13,-9.96,6.00,6.00,4.36,-1.13,-1.13,2.83
23.69,-7.06,-9.88,-7.06,-9.88,6.00,6.01,4.48,-1.06,-1.06,2.82
23.92,-6.99,-9.81,-6.99,-9.80,6.00,6.03,4.61,-0.99,-0.99,2.82
24.16,-6.92,-9.73,-6.92,-9.73,6.00,6.04,4.73,-0.92,-0.92,2.81
24.40,-6.85,-9.66,-6.85,-9.65,6.00,6.05,4.86,-0.85,-0.85,2.81
24.65,-6.77,-9.57,-6.77,-9.57,6.00,6.06,4.99,-0.77,-0.77,2.80
24.89,-6.70,-9.50,-6.70,-9.49,6.00,6.07,5.12,-0.70,-0.70,2.80
25.14,-6.63,-9.42,-6.62,-9.41,6.00,6.08,5.26,-0.63,-0.62,2.79
25.39,-6.55,-9.33,-6.55,-9.33,6.00,6.09,5.39,-0.55,-0.55,2.78
25.65,-6.47,-9.25,-6.47,-9.25,6.00,6.10,5.53,-0.47,-0.47,2.78
25.91,-6.40,-9.17,-6.40,-9.17,6.00,6.11,5.66,-0.40,-0.40,2.77
26.16,-6.32,-9.09,-6.32,-9.09,6.00,6.12,5.80,-0.32,-0.32,2.77
26.43,-6.25,-9.02,-6.25,-9.01,6.00,6.12,5.93,-0.25,-0.25,2.77
26.69,-6.18,-8.94,-6.18,-8.94,6.00,6.13,6.07,-0.18,-0.18,2.76
26.96,-6.10,-8.86,-6.10,-8.86,6.00,6.13,6.20,-0.10,-0.10,2.76
27.23,-6.03,-8.78,-6.03,-8.78,6.00,6.14,6.33,-0.03,-0.03,2.75
27.50,-5.95,-8.70,-5.95,-8.70,6.00,6.14,6.46,0.05,0.05,2.75
27.77,-5.87,-8.62,-5.87,-8.62,6.00,6.14,6.58,0.13,0.13,2.75
28.05,-5.80,-8.54,-5.80,-8.54,6.00,6.15,6.70,0.20,0.20,2.74
28.33,-5.72,-8.46,-5.72,-8.46,6.00,6.15,6.81,0.28,0.28,2.74
28.62,-5.64,-8.38,-5.64,-8.37,6.00,6.15,6.91,0.36,0.36,2.74
28.90,-5.56,-8.29,-5.56,-8.29,6.00,6.15,7.01,0.44,0.44,2.73
29.19,-5.48,-8.21,-5.48,-8.21,6.00,6.14,7.10,0.52,0.52,2.73
29.48,-5.40,-8.13,-5.40,-8.13,6.00,6.14,7.18,0.60,0.60,2.73
29.78,-5.33,-8.06,-5.33,-8.05,6.00,6.14,7.25,0.67,0.67,2.73
30.08,-5.25,-7.98,-5.25,-7.97,6.00,6.13,7.31,0.75,0.75,2.73
30.38,-5.16,-7.88,-5.16,-7.88,6.00,6.13,7.36,0.84,0.84,2.72
30.68,-5.08,-7.80,-5.08,-7.80,6.00,6.12,7.40,0.92,0.92,2.72
30.99,-4.99,-7.71,-4.99,-7.71,6.00,6.11,7.42,1.01,1.01,2.72
31.30,-4.91,-7.63,-4.91,-7.62,6.00,6.10,7.43,1.09,1.09,2.72
31.61,-4.82,-7.53,-4.82,-7.53,6.00,6.09,7.44,1.18,1.18,2.71
31.93,-4.74,-7.45,-4.74,-7.45,6.00,6.07,7.42,1.26,1.26,2.71
32.24,-4.66,-7.37,-4.66,-7.36,6.00,6.06,7.40,1.34,1.34,2.71
32.57,-4.57,-7.27,-4.57,-7.27,6.00,6.04,7.36,1.43,1.43,2.70
32.89,-4.49,-7.19,-4.49,-7.19,6.00,6.03,7.32,1.51,1.51,2.70
33.22,-4.41,-7.11,-4.41,-7.10,6.00,6.01,7.26,1.59,1.59,2.70
33.55,-4.33,-7.02,-4.33,-7.02,6.00,5.99,7.20,1.67,1.67,2.69
33.89,-4.25,-6.94,-4.25,-6.94,6.00,5.97,7.12,1.75,1.75,2.69
34.23,-4.17,-6.86,-4.17,-6.85,6.00,5.95,7.04,1.83,1.83,2.69
34.57,-4.09,-6.77,-4.09,-6.77,6.00,5.93,6.95,1.91,1.91,2.68
34.92,-4.01,-6.69,-4.01,-6.69,6.00,5.90,6.86,1.99,1.99,2.68
35.27,-3.94,-6.62,-3.94,-6.61,6.00,5.88,6.76,2.06,2.06,2.68
35.62,-3.87,-6.54,-3.87,-6.54,6.00,5.85,6.65,2.13,2.13,2.67
35.97,-3.80,-6.47,-3.80,-6.46,6.00,5.82,6.54,2.20,2.21,2.67
36.33,-3.72,-6.39,-3.72,-6.39,6.01,5.79,6.43,2.29,2.29,2.67
36.70,-3.64,-6.31,-3.64,-6.31,6.01,5.76,6.32,2.37,2.37,2.67
37.06,-3.57,-6.24,-3.57,-6.23,6.01,5.73,6.20,2.44,2.44,2.67
37.43,-3.50,-6.16,-3.50,-6.16,6.00,5.69,6.09,2.51,2.51,2.66
37.81,-3.43,-6.09,-3.43,-6.09,5.99,5.66,5.97,2.56,2.55,2.66
38.19,-3.37,-6.03,-3.37,-6.02,5.96,5.63,5.86,2.59,2.59,2.66
38.57,-3.30,-5.95,-3.30,-5.95,5.92,5.59,5.74,2.62,2.62,2.65
38.95,-3.23,-5.88,-3.23,-5.87,5.87,5.55,5.63,2.64,2.64,2.65
39.34,-3.16,-5.80,-3.16,-5.80,5.81,5.51,5.52,2.65,2.65,2.64
39.74,-3.09,-5.73,-3.09,-5.73,5.74,5.47,5.41,2.65,2.65,2.64
40.14,-3.03,-5.66,-3.03,-5.66,5.67,5.43,5.30,2.64,2.64,2.63
40.54,-2.96,-5.59,-2.96,-5.59,5.59,5.39,5.20,2.63,2.63,2.63
40.94,-2.89,-5.52,-2.89,-5.52,5.51,5.35,5.10,2.62,2.62,2.63
41.35,-2.82,-5.45,-2.82,-5.44,5.44,5.30,5.00,2.62,2.62,2.63
41.76,-2.74,-5.37,-2.74,-5.37,5.37,5.26,4.91,2.63,2.63,2.63
42.18,-2.67,-5.30,-2.67,-5.30,5.30,5.21,4.81,2.63,2.63,2.63
42.60,-2.60,-5.23,-2.60,-5.23,5.23,5.17,4.72,2.63,2.63,2.63
43.03,-2.52,-5.16,-2.52,-5.16,5.16,5.12,4.64,2.64,2.63,2.64
43.46,-2.45,-5.09,-2.45,-5.09,5.09,5.07,4.56,2.64,2.64,2.64
43.90,-2.38,-5.02,-2.38,-5.02,5.01,5.02,4.48,2.63,2.63,2.64
44.33,-2.31,-4.95,-2.31,-4.95,4.94,4.97,4.40,2.63,2.63,2.64
44.78,-2.24,-4.88,-2.24,-4.87,4.87,4.92,4.33,2.63,2.63,2.64
45.23,-2.16,-4.80,-2.16,-4.80,4.79,4.87,4.26,2.63,2.63,2.64
45.68,-2.08,-4.72,-2.08,-4.72,4.72,4.82,4.19,2.64,2.64,2.64
46.13,-2.01,-4.65,-2.01,-4.64,4.64,4.77,4.13,2.64,2.64,2.64
46.60,-1.93,-4.57,-1.93,-4.57,4.57,4.71,4.07,2.64,2.64,2.64
47.06,-1.86,-4.50,-1.86,-4.50,4.50,4.66,4.02,2.64,2.64,2.64
47.53,-1.80,-4.43,-1.80,-4.43,4.43,4.61,3.96,2.63,2.63,2.63
48.01,-1.73,-4.36,-1.73,-4.36,4.36,4.55,3.91,2.63,2.63,2.63
48.49,-1.67,-4.30,-1.67,-4.30,4.30,4.50,3.87,2.63,2.63,2.63
48.97,-1.61,-4.24,-1.61,-4.24,4.23,4.44,3.82,2.62,2.62,2.63
49.46,-1.55,-4.18,-1.55,-4.18,4.17,4.38,3.78,2.62,2.62,2.63
49.96,-1.49,-4.12,-1.49,-4.11,4.12,4.33,3.74,2.63,2.63,2.63
50.46,-1.43,-4.06,-1.43,-4.06,4.06,4.27,3.70,2.63,2.63,2.63
50.96,-1.37,-4.00,-1.37,-4.00,4.01,4.21,3.67,2.64,2.63,2.63
51.47,-1.32,-3.96,-1.32,-3.95,3.95,4.16,3.63,2.63,2.63,2.64
51.99,-1.27,-3.91,-1.27,-3.91,3.90,4.10,3.60,2.63,2.63,2.64
52.51,-1.22,-3.86,-1.22,-3.86,3.85,4.04,3.57,2.63,2.63,2.64
53.03,-1.17,-3.81,-1.17,-3.81,3.81,3.98,3.54,2.64,2.64,2.64
53.56,-1.12,-3.76,-1.12,-3.76,3.76,3.92,3.51,2.64,2.64,2.64
54.10,-1.07,-3.72,-1.07,-3.72,3.72,3.86,3.49,2.65,2.65,2.65
54.64,-1.03,-3.68,-1.03,-3.68,3.68,3.81,3.46,2.65,2.65,2.65
55.18,-0.99,-3.64,-0.99,-3.64,3.63,3.75,3.44,2.64,2.65,2.65
55.74,-0.95,-3.60,-0.95,-3.60,3.59,3.69,3.41,2.64,2.65,2.65
56.29,-0.90,-3.56,-0.90,-3.55,3.55,3.63,3.39,2.65,2.65,2.66
56.86,-0.85,-3.51,-0.85,-3.51,3.51,3.57,3.36,2.66,2.66,2.66
57.42,-0.81,-3.47,-0.81,-3.47,3.47,3.51,3.34,2.66,2.66,2.66
58.00,-0.76,-3.43,-0.76,-3.42,3.43,3.45,3.31,2.67,2.67,2.67
58.58,-0.71,-3.38,-0.71,-3.38,3.38,3.39,3.29,2.67,2.67,2.67
59.16,-0.67,-3.34,-0.67,-3.34,3.34,3.34,3.26,2.67,2.67,2.67
59.76,-0.62,-3.30,-0.62,-3.29,3.29,3.28,3.23,2.67,2.67,2.68
60.35,-0.57,-3.25,-0.57,-3.25,3.24,3.22,3.20,2.67,2.67,2.68
60.96,-0.52,-3.20,-0.52,-3.20,3.19,3.16,3.17,2.67,2.67,2.68
61.57,-0.47,-3.15,-0.47,-3.14,3.14,3.11,3.14,2.67,2.67,2.68
62.18,-0.41,-3.09,-0.41,-3.09,3.09,3.05,3.10,2.68,2.67,2.68
62.80,-0.36,-3.04,-0.36,-3.03,3.03,2.99,3.07,2.67,2.67,2.68
63.43,-0.30,-2.98,-0.30,-2.97,2.97,2.94,3.03,2.67,2.68,2.68
64.07,-0.23,-2.91,-0.24,-2.91,2.92,2.88,2.99,2.69,2.68,2.68
64.71,-0.18,-2.86,-0.18,-2.85,2.86,2.83,2.95,2.68,2.68,2.68
65.35,-0.12,-2.80,-0.12,-2.80,2.80,2.77,2.91,2.68,2.68,2.68
66.01,-0.07,-2.75,-0.07,-2.75,2.75,2.72,2.86,2.68,2.68,2.68
66.67,-0.02,-2.70,-0.02,-2.70,2.69,2.67,2.82,2.67,2.67,2.68
67.33,0.03,-2.65,0.03,-2.65,2.64,2.61,2.77,2.67,2.67,2.68
68.01,0.08,-2.60,0.08,-2.60,2.59,2.56,2.72,2.67,2.67,2.68
68.69,0.13,-2.55,0.13,-2.55,2.55,2.51,2.67,2.68,2.68,2.68
69.37,0.18,-2.50,0.18,-2.49,2.50,2.46,2.62,2.68,2.68,2.68
70.07,0.23,-2.45,0.23,-2.45,2.46,2.41,2.57,2.69,2.69,2.68
70.77,0.27,-2.41,0.27,-2.41,2.42,2.37,2.52,2.69,2.68,2.68
71.48,0.30,-2.39,0.30,-2.38,2.38,2.32,2.47,2.68,2.68,2.69
72.19,0.34,-2.35,0.34,-2.34,2.34,2.27,2.41,2.68,2.68,2.69
72.91,0.38,-2.31,0.38,-2.31,2.30,2.23,2.36,2.68,2.68,2.69
73.64,0.43,-2.26,0.43,-2.26,2.26,2.18,2.30,2.69,2.69,2.69
74.38,0.47,-2.23,0.47,-2.22,2.22,2.14,2.25,2.69,2.70,2.70
75.12,0.52,-2.18,0.52,-2.18,2.19,2.10,2.20,2.71,2.70,2.70
75.87,0.56,-2.15,0.56,-2.14,2.15,2.06,2.14,2.71,2.71,2.71
76.63,0.60,-2.11,0.60,-2.11,2.11,2.01,2.09,2.71,2.71,2.71
77.40,0.64,-2.07,0.64,-2.07,2.08,1.97,2.04,2.72,2.71,2.71
78.17,0.67,-2.05,0.67,-2.04,2.04,1.94,1.99,2.71,2.71,2.72
78.95,0.71,-2.01,0.71,-2.01,2.00,1.90,1.93,2.71,2.71,2.72
79.74,0.75,-1.97,0.75,-1.97,1.96,1.86,1.88,2.71,2.71,2.72
80.54,0.80,-1.93,0.80,-1.92,1.92,1.82,1.83,2.72,2.72,2.73
81.35,0.85,-1.88,0.85,-1.88,1.87,1.79,1.78,2.72,2.72,2.73
82.16,0.90,-1.83,0.90,-1.83,1.83,1.75,1.73,2.73,2.73,2.73
82.98,0.95,-1.78,0.95,-1.78,1.79,1.72,1.69,2.74,2.74,2.73
83.81,0.99,-1.74,0.99,-1.74,1.75,1.69,1.64,2.74,2.74,2.73
84.65,1.03,-1.71,1.03,-1.71,1.71,1.66,1.59,2.74,2.74,2.74
85.50,1.06,-1.68,1.06,-1.68,1.67,1.62,1.55,2.73,2.73,2.74
86.35,1.09,-1.65,1.09,-1.65,1.64,1.59,1.51,2.73,2.73,2.74
87.22,1.13,-1.61,1.13,-1.61,1.60,1.56,1.46,2.73,2.73,2.74
88.09,1.16,-1.58,1.17,-1.57,1.57,1.53,1.42,2.73,2.74,2.74
88.97,1.21,-1.53,1.20,-1.53,1.53,1.51,1.38,2.74,2.74,2.74
89.86,1.24,-1.50,1.24,-1.50,1.50,1.48,1.34,2.74,2.73,2.74
90.76,1.27,-1.47,1.28,-1.46,1.46,1.45,1.30,2.73,2.73,2.74
91.66,1.31,-1.43,1.31,-1.42,1.42,1.42,1.26,2.73,2.73,2.74
92.58,1.36,-1.38,1.36,-1.38,1.38,1.40,1.23,2.74,2.74,2.74
93.51,1.40,-1.34,1.40,-1.34,1.35,1.37,1.19,2.75,2.74,2.74
94.44,1.43,-1.31,1.43,-1.30,1.32,1.34,1.15,2.75,2.75,2.74
95.39,1.46,-1.28,1.46,-1.28,1.29,1.32,1.12,2.75,2.75,2.74
96.34,1.49,-1.25,1.49,-1.25,1.25,1.29,1.09,2.74,2.74,2.74
97.30,1.51,-1.24,1.51,-1.23,1.22,1.27,1.05,2.73,2.73,2.75
98.28,1.53,-1.22,1.54,-1.21,1.19,1.25,1.02,2.72,2.73,2.75
99.26,1.57,-1.18,1.57,-1.18,1.16,1.22,0.99,2.73,2.73,2.75
100.25,1.61,-1.14,1.61,-1.14,1.14,1.20,0.96,2.75,2.75,2.75
101.25,1.65,-1.10,1.65,-1.09,1.11,1.18,0.93,2.76,2.76,2.75
102.27,1.69,-1.06,1.68,-1.06,1.08,1.15,0.91,2.77,2.76,2.75
103.29,1.71,-1.04,1.71,-1.04,1.05,1.13,0.88,2.76,2.76,2.75
104.32,1.73,-1.03,1.73,-1.02,1.02,1.11,0.85,2.75,2.75,2.76
105.37,1.76,-1.00,1.76,-1.00,0.99,1.09,0.83,2.75,2.75,2.76
106.42,1.79,-0.97,1.79,-0.97,0.96,1.06,0.80,2.75,2.75,2.76
107.48,1.82,-0.95,1.82,-0.94,0.94,1.04,0.78,2.76,2.76,2.77
108.56,1.85,-0.92,1.85,-0.92,0.91,1.02,0.76,2.76,2.76,2.77
109.64,1.88,-0.89,1.88,-0.89,0.88,1.00,0.73,2.76,2.76,2.77
110.74,1.91,-0.86,1.91,-0.85,0.86,0.98,0.71,2.77,2.77,2.77
111.85,1.94,-0.83,1.94,-0.83,0.84,0.96,0.69,2.78,2.78,2.77
112.97,1.96,-0.82,1.95,-0.82,0.83,0.94,0.67,2.79,2.78,2.78
114.10,1.96,-0.82,1.96,-0.81,0.82,0.92,0.66,2.78,2.78,2.78
115.24,1.96,-0.82,1.96,-0.82,0.82,0.90,0.64,2.78,2.78,2.78
116.39,1.96,-0.82,1.96,-0.82,0.83,0.88,0.62,2.79,2.78,2.78
117.55,1.95,-0.84,1.95,-0.83,0.83,0.87,0.61,2.78,2.78,2.79
118.73,1.94,-0.85,1.94,-0.85,0.84,0.85,0.59,2.78,2.78,2.79
119.92,1.93,-0.86,1.93,-0.86,0.85,0.83,0.58,2.78,2.78,2.79
121.12,1.92,-0.87,1.92,-0.86,0.86,0.81,0.57,2.78,2.78,2.79
122.33,1.93,-0.87,1.93,-0.87,0.86,0.80,0.56,2.79,2.79,2.80
123.55,1.94,-0.86,1.94,-0.86,0.85,0.78,0.55,2.79,2.80,2.80
124.79,1.96,-0.85,1.96,-0.85,0.84,0.77,0.54,2.80,2.80,2.81
126.03,1.98,-0.83,1.98,-0.83,0.83,0.75,0.54,2.81,2.81,2.81
127.29,2.00,-0.82,2.00,-0.81,0.81,0.74,0.53,2.81,2.81,2.82
128.57,2.03,-0.79,2.03,-0.78,0.78,0.72,0.52,2.81,2.81,2.82
129.85,2.07,-0.75,2.07,-0.75,0.75,0.71,0.52,2.82,2.82,2.82
131.15,2.11,-0.71,2.10,-0.72,0.72,0.69,0.52,2.83,2.82,2.82
132.46,2.13,-0.70,2.14,-0.68,0.69,0.68,0.52,2.82,2.82,2.83
133.79,2.17,-0.66,2.17,-0.66,0.65,0.67,0.51,2.82,2.82,2.83
135.12,2.21,-0.62,2.20,-0.62,0.62,0.66,0.51,2.83,2.83,2.83
136.48,2.23,-0.60,2.23,-0.59,0.60,0.65,0.52,2.83,2.83,2.83
137.84,2.26,-0.57,2.26,-0.57,0.58,0.64,0.52,2.84,2.83,2.83
139.22,2.27,-0.56,2.27,-0.55,0.56,0.63,0.52,2.83,2.83,2.83
140.61,2.29,-0.54,2.29,-0.54,0.55,0.62,0.52,2.84,2.84,2.83
142.02,2.29,-0.55,2.29,-0.54,0.55,0.61,0.53,2.84,2.84,2.84
143.44,2.29,-0.55,2.29,-0.55,0.55,0.61,0.53,2.84,2.84,2.84
144.87,2.28,-0.56,2.28,-0.56,0.56,0.60,0.54,2.84,2.84,2.84
146.32,2.27,-0.58,2.27,-0.57,0.56,0.60,0.55,2.83,2.84,2.85
147.78,2.27,-0.58,2.27,-0.58,0.57,0.59,0.55,2.84,2.84,2.85
149.26,2.27,-0.58,2.27,-0.58,0.58,0.59,0.56,2.85,2.85,2.85
150.75,2.27,-0.59,2.27,-0.58,0.58,0.59,0.57,2.85,2.85,2.86
152.26,2.27,-0.59,2.27,-0.59,0.59,0.59,0.58,2.86,2.86,2.86
153.78,2.27,-0.59,2.27,-0.59,0.59,0.58,0.59,2.86,2.86,2.86
155.32,2.27,-0.60,2.27,-0.59,0.58,0.59,0.60,2.85,2.86,2.87
156.88,2.28,-0.59,2.28,-0.59,0.58,0.59,0.61,2.86,2.86,2.87
158.44,2.28,-0.59,2.28,-0.58,0.58,0.59,0.62,2.86,2.86,2.87
160.03,2.29,-0.58,2.29,-0.58,0.58,0.59,0.64,2.87,2.87,2.87
161.63,2.29,-0.58,2.29,-0.58,0.59,0.60,0.65,2.88,2.88,2.87
163.24,2.29,-0.59,2.28,-0.59,0.60,0.61,0.66,2.89,2.88,2.88
164.88,2.27,-0.61,2.27,-0.60,0.61,0.62,0.68,2.88,2.88,2.88
166.53,2.25,-0.63,2.25,-0.62,0.63,0.63,0.69,2.88,2.88,2.88
168.19,2.24,-0.64,2.23,-0.65,0.65,0.64,0.71,2.89,2.88,2.88
169.87,2.20,-0.69,2.21,-0.68,0.68,0.65,0.72,2.88,2.88,2.89
171.57,2.18,-0.71,2.18,-0.71,0.70,0.67,0.74,2.88,2.88,2.89
173.29,2.15,-0.74,2.14,-0.74,0.73,0.68,0.75,2.88,2.88,2.89
175.02,2.11,-0.78,2.12,-0.77,0.77,0.70,0.77,2.88,2.89,2.89
176.77,2.09,-0.81,2.09,-0.80,0.80,0.72,0.79,2.89,2.89,2.90
178.54,2.07,-0.83,2.07,-0.83,0.84,0.75,0.81,2.91,2.91,2.90
180.32,2.03,-0.87,2.03,-0.86,0.88,0.77,0.83,2.91,2.91,2.90
182.13,2.00,-0.90,1.99,-0.91,0.92,0.80,0.85,2.92,2.90,2.90
183.95,1.93,-0.97,1.94,-0.96,0.95,0.83,0.87,2.88,2.89,2.90
185.79,1.89,-1.01,1.90,-1.00,0.99,0.86,0.89,2.88,2.89,2.90
187.65,1.86,-1.04,1.86,-1.04,1.03,0.90,0.91,2.89,2.89,2.90
189.52,1.83,-1.07,1.83,-1.07,1.06,0.94,0.93,2.89,2.89,2.90
191.42,1.80,-1.10,1.80,-1.10,1.09,0.97,0.95,2.89,2.89,2.90
193.33,1.77,-1.13,1.77,-1.12,1.12,1.02,0.97,2.89,2.89,2.90
195.27,1.75,-1.15,1.75,-1.15,1.15,1.06,1.00,2.90,2.90,2.90
197.22,1.73,-1.17,1.73,-1.17,1.17,1.11,1.02,2.90,2.90,2.90
199.19,1.71,-1.19,1.71,-1.19,1.20,1.16,1.04,2.91,2.91,2.90
201.18,1.68,-1.23,1.68,-1.22,1.23,1.22,1.07,2.91,2.91,2.91
203.19,1.65,-1.26,1.65,-1.26,1.26,1.27,1.09,2.91,2.91,2.91
205.23,1.62,-1.30,1.62,-1.29,1.29,1.33,1.11,2.91,2.91,2.92
207.28,1.59,-1.33,1.59,-1.33,1.32,1.38,1.14,2.91,2.91,2.92
209.35,1.56,-1.36,1.56,-1.36,1.35,1.44,1.16,2.91,2.92,2.92
211.44,1.54,-1.39,1.54,-1.39,1.39,1.49,1.18,2.93,2.92,2.93
213.56,1.51,-1.42,1.51,-1.42,1.42,1.54,1.21,2.93,2.93,2.93
215.69,1.47,-1.46,1.47,-1.45,1.46,1.59,1.23,2.93,2.93,2.93
217.85,1.44,-1.49,1.45,-1.48,1.49,1.63,1.25,2.93,2.94,2.93
220.03,1.42,-1.52,1.42,-1.52,1.53,1.66,1.27,2.95,2.94,2.94
222.23,1.39,-1.55,1.38,-1.55,1.56,1.69,1.30,2.95,2.95,2.94
224.45,1.34,-1.60,1.34,-1.60,1.60,1.71,1.32,2.94,2.94,2.94
226.70,1.30,-1.64,1.30,-1.64,1.63,1.71,1.34,2.93,2.93,2.94
228.96,1.28,-1.67,1.28,-1.66,1.65,1.71,1.36,2.93,2.93,2.95
231.25,1.27,-1.68,1.27,-1.67,1.66,1.70,1.37,2.93,2.94,2.95
233.57,1.28,-1.67,1.28,-1.67,1.67,1.68,1.39,2.95,2.94,2.95
235.90,1.29,-1.67,1.29,-1.66,1.66,1.66,1.41,2.95,2.95,2.96
238.26,1.31,-1.65,1.31,-1.65,1.65,1.62,1.42,2.96,2.96,2.96
240.64,1.34,-1.63,1.34,-1.63,1.62,1.58,1.43,2.96,2.96,2.97
243.05,1.38,-1.60,1.38,-1.59,1.59,1.54,1.44,2.97,2.97,2.98
245.48,1.43,-1.56,1.43,-1.55,1.56,1.49,1.45,2.99,2.99,2.99
247.93,1.49,-1.50,1.48,-1.51,1.52,1.45,1.46,3.01,3.00,2.99
250.41,1.53,-1.47,1.53,-1.46,1.47,1.40,1.47,3.00,3.01,3.00
252.92,1.59,-1.42,1.58,-1.42,1.42,1.35,1.48,3.01,3.01,3.01
255.45,1.63,-1.39,1.64,-1.38,1.37,1.30,1.48,3.00,3.01,3.02
258.00,1.69,-1.33,1.69,-1.33,1.31,1.25,1.48,3.00,3.01,3.02
260.58,1.76,-1.27,1.76,-1.27,1.26,1.21,1.48,3.02,3.01,3.03
263.19,1.82,-1.21,1.83,-1.20,1.20,1.16,1.49,3.02,3.03,3.03
265.82,1.90,-1.13,1.89,-1.14,1.14,1.12,1.48,3.04,3.04,3.03
268.48,1.96,-1.08,1.96,-1.07,1.09,1.08,1.48,3.05,3.04,3.04
271.16,2.01,-1.03,2.01,-1.02,1.03,1.05,1.48,3.04,3.05,3.04
273.87,2.07,-0.97,2.06,-0.98,0.98,1.01,1.47,3.05,3.04,3.04
276.61,2.10,-0.95,2.11,-0.94,0.94,0.98,1.47,3.04,3.04,3.05
279.38,2.15,-0.90,2.15,-0.90,0.90,0.95,1.46,3.05,3.05,3.05
282.17,2.19,-0.87,2.19,-0.87,0.86,0.93,1.46,3.05,3.05,3.06
284.99,2.22,-0.84,2.22,-0.83,0.83,0.90,1.45,3.05,3.06,3.06
287.84,2.25,-0.81,2.25,-0.81,0.81,0.88,1.44,3.06,3.06,3.06
290.72,2.26,-0.80,2.27,-0.79,0.79,0.86,1.43,3.05,3.06,3.06
293.63,2.28,-0.78,2.28,-0.78,0.78,0.85,1.43,3.06,3.06,3.06
296.57,2.29,-0.77,2.29,-0.77,0.78,0.83,1.42,3.07,3.07,3.06
299.53,2.29,-0.78,2.29,-0.77,0.78,0.82,1.41,3.07,3.07,3.07
302.53,2.29,-0.78,2.29,-0.78,0.78,0.81,1.40,3.07,3.07,3.07
305.55,2.28,-0.79,2.28,-0.79,0.79,0.81,1.40,3.07,3.07,3.07
308.61,2.27,-0.81,2.27,-0.80,0.80,0.81,1.39,3.07,3.07,3.08
311.69,2.27,-0.81,2.27,-0.81,0.80,0.81,1.38,3.07,3.07,3.08
314.81,2.27,-0.82,2.27,-0.82,0.81,0.81,1.38,3.08,3.08,3.09
317.96,2.27,-0.82,2.27,-0.82,0.81,0.82,1.37,3.08,3.08,3.09
321.14,2.27,-0.83,2.27,-0.82,0.82,0.83,1.37,3.09,3.09,3.10
324.35,2.27,-0.83,2.27,-0.82,0.82,0.84,1.36,3.09,3.09,3.10
327.59,2.28,-0.82,2.28,-0.82,0.82,0.85,1.36,3.10,3.10,3.10
330.87,2.29,-0.82,2.29,-0.82,0.82,0.87,1.36,3.11,3.11,3.11
334.18,2.29,-0.83,2.29,-0.82,0.83,0.88,1.36,3.12,3.12,3.12
337.52,2.29,-0.83,2.29,-0.83,0.83,0.90,1.36,3.12,3.12,3.12
340.90,2.28,-0.85,2.28,-0.84,0.84,0.91,1.36,3.12,3.13,3.13
344.30,2.27,-0.86,2.27,-0.86,0.86,0.93,1.36,3.13,3.13,3.13
347.75,2.25,-0.88,2.25,-0.88,0.88,0.95,1.36,3.13,3.13,3.13
351.23,2.23,-0.90,2.23,-0.90,0.91,0.97,1.36,3.14,3.14,3.13
354.74,2.20,-0.94,2.20,-0.94,0.94,0.99,1.37,3.14,3.13,3.14
358.28,2.16,-0.98,2.16,-0.97,0.97,1.01,1.37,3.13,3.13,3.14
361.87,2.13,-1.01,2.13,-1.01,1.00,1.03,1.38,3.13,3.13,3.14
365.49,2.10,-1.04,2.10,-1.04,1.03,1.06,1.39,3.13,3.13,3.14
369.14,2.07,-1.07,2.07,-1.07,1.07,1.08,1.40,3.14,3.14,3.14
372.83,2.04,-1.10,2.04,-1.10,1.10,1.10,1.41,3.14,3.14,3.14
376.56,2.01,-1.14,2.01,-1.13,1.13,1.12,1.42,3.14,3.14,3.15
380.33,1.99,-1.16,1.99,-1.16,1.16,1.15,1.43,3.15,3.14,3.15
384.13,1.96,-1.19,1.96,-1.19,1.19,1.17,1.44,3.15,3.15,3.15
387.97,1.94,-1.21,1.94,-1.21,1.21,1.19,1.45,3.15,3.15,3.15
391.85,1.91,-1.25,1.91,-1.24,1.24,1.22,1.47,3.15,3.15,3.16
395.77,1.88,-1.28,1.88,-1.27,1.27,1.24,1.48,3.15,3.16,3.16
399.73,1.86,-1.31,1.86,-1.30,1.30,1.27,1.50,3.16,3.16,3.17
403.72,1.84,-1.33,1.84,-1.33,1.34,1.29,1.52,3.18,3.17,3.17
407.76,1.81,-1.37,1.81,-1.36,1.37,1.32,1.53,3.18,3.18,3.18
411.84,1.78,-1.40,1.78,-1.40,1.40,1.34,1.55,3.18,3.18,3.18
415.96,1.75,-1.44,1.75,-1.44,1.43,1.37,1.57,3.18,3.18,3.19
420.12,1.72,-1.47,1.72,-1.47,1.46,1.40,1.59,3.18,3.18,3.19
424.32,1.69,-1.50,1.70,-1.49,1.49,1.42,1.61,3.18,3.19,3.19
428.56,1.68,-1.52,1.67,-1.52,1.52,1.45,1.63,3.20,3.19,3.20
432.85,1.65,-1.55,1.65,-1.55,1.55,1.48,1.65,3.20,3.20,3.20
437.18,1.62,-1.58,1.63,-1.57,1.58,1.51,1.67,3.20,3.20,3.20
441.55,1.60,-1.60,1.60,-1.60,1.60,1.54,1.69,3.20,3.20,3.20
445.96,1.57,-1.63,1.57,-1.63,1.63,1.57,1.71,3.20,3.20,3.20
450.42,1.54,-1.66,1.54,-1.65,1.65,1.60,1.73,3.19,3.19,3.20
454.93,1.52,-1.68,1.52,-1.68,1.68,1.63,1.74,3.20,3.19,3.20
459.48,1.49,-1.71,1.49,-1.70,1.70,1.66,1.76,3.19,3.20,3.20
464.07,1.47,-1.73,1.47,-1.73,1.73,1.69,1.78,3.20,3.20,3.20
468.71,1.44,-1.76,1.44,-1.76,1.76,1.72,1.80,3.20,3.20,3.20
473.40,1.41,-1.79,1.42,-1.78,1.79,1.75,1.82,3.20,3.20,3.20
478.13,1.39,-1.82,1.39,-1.82,1.82,1.78,1.84,3.21,3.21,3.21
482.91,1.36,-1.85,1.36,-1.85,1.85,1.81,1.85,3.21,3.21,3.21
487.74,1.32,-1.89,1.32,-1.89,1.89,1.84,1.87,3.21,3.21,3.21
492.62,1.28,-1.93,1.28,-1.93,1.93,1.87,1.88,3.21,3.21,3.21
497.55,1.25,-1.97,1.25,-1.97,1.96,1.91,1.90,3.21,3.21,3.22
502.52,1.21,-2.01,1.21,-2.00,2.00,1.94,1.91,3.21,3.21,3.22
507.55,1.18,-2.04,1.18,-2.03,2.03,1.97,1.92,3.21,3.22,3.22
512.62,1.16,-2.06,1.16,-2.06,2.06,2.00,1.93,3.22,3.22,3.22
517.75,1.13,-2.10,1.13,-2.10,2.09,2.03,1.94,3.22,3.22,3.23
522.93,1.10,-2.13,1.10,-2.12,2.12,2.07,1.95,3.22,3.23,3.23
528.16,1.07,-2.16,1.08,-2.15,2.15,2.10,1.96,3.22,3.23,3.23
533.44,1.06,-2.17,1.05,-2.18,2.18,2.13,1.97,3.24,3.23,3.23
538.77,1.03,-2.21,1.03,-2.20,2.21,2.16,1.98,3.24,3.24,3.24
544.16,1.00,-2.24,1.01,-2.23,2.23,2.19,1.99,3.23,3.24,3.24
