frequency,raw,error,smoothed,error_smoothed,equalization,parametric_eq,fixed_band_eq,equalized_raw,equalized_smoothed,target
20.00,5.71,0.69,5.71,0.70,-0.69,-2.03,-1.02,5.02,5.02,5.01
20.20,5.76,0.76,5.75,0.76,-0.76,-2.03,-1.05,5.00,4.99,4.99
20.40,5.79,0.82,5.79,0.82,-0.83,-2.03,-1.08,4.96,4.96,4.96
20.61,5.83,0.88,5.83,0.89,-0.89,-2.04,-1.11,4.93,4.94,4.94
20.81,5.88,0.95,5.87,0.95,-0.96,-2.04,-1.15,4.92,4.91,4.92
21.02,5.92,1.02,5.92,1.02,-1.02,-2.04,-1.18,4.89,4.90,4.89
21.23,5.97,1.09,5.96,1.09,-1.08,-2.04,-1.21,4.88,4.88,4.87
21.44,6.00,1.15,6.00,1.15,-1.14,-2.05,-1.25,4.85,4.85,4.85
21.66,6.04,1.20,6.04,1.20,-1.20,-2.05,-1.29,4.83,4.83,4.83
21.87,6.07,1.26,6.07,1.26,-1.26,-2.05,-1.32,4.81,4.81,4.81
22.09,6.11,1.32,6.10,1.31,-1.31,-2.05,-1.36,4.79,4.79,4.79
22.31,6.13,1.36,6.13,1.36,-1.37,-2.06,-1.40,4.76,4.76,4.77
22.54,6.16,1.42,6.16,1.41,-1.41,-2.06,-1.44,4.74,4.74,4.74
22.76,6.19,1.47,6.18,1.46,-1.46,-2.06,-1.48,4.73,4.72,4.72
22.99,6.21,1.51,6.21,1.51,-1.51,-2.06,-1.53,4.70,4.70,4.70
23.22,6.23,1.55,6.23,1.55,-1.55,-2.07,-1.57,4.68,4.68,4.68
23.45,6.26,1.59,6.25,1.59,-1.59,-2.07,-1.62,4.67,4.66,4.67
23.69,6.28,1.63,6.28,1.63,-1.63,-2.07,-1.66,4.65,4.65,4.65
23.92,6.30,1.66,6.30,1.66,-1.66,-2.08,-1.71,4.64,4.64,4.64
24.16,6.32,1.70,6.31,1.69,-1.69,-2.08,-1.75,4.62,4.62,4.62
24.40,6.33,1.72,6.33,1.72,-1.72,-2.08,-1.80,4.60,4.61,4.61
24.65,6.35,1.75,6.35,1.76,-1.76,-2.09,-1.85,4.59,4.59,4.60
24.89,6.37,1.79,6.36,1.78,-1.79,-2.09,-1.90,4.58,4.58,4.57
25.14,6.38,1.81,6.38,1.82,-1.82,-2.09,-1.95,4.56,4.56,4.56
25.39,6.40,1.84,6.40,1.84,-1.85,-2.10,-2.00,4.55,4.55,4.55
25.65,6.42,1.87,6.42,1.87,-1.88,-2.10,-2.05,4.54,4.54,4.54
25.91,6.44,1.90,6.44,1.91,-1.91,-2.10,-2.10,4.53,4.53,4.53
26.16,6.46,1.94,6.46,1.94,-1.94,-2.11,-2.15,4.52,4.52,4.52
26.43,6.48,1.97,6.47,1.97,-1.97,-2.11,-2.20,4.51,4.50,4.50
26.69,6.49,2.00,6.49,2.00,-2.00,-2.11,-2.25,4.49,4.50,4.49
26.96,6.51,2.03,6.51,2.03,-2.02,-2.12,-2.30,4.48,4.48,4.48
27.23,6.53,2.06,6.52,2.05,-2.05,-2.12,-2.34,4.48,4.47,4.47
27.50,6.53,2.07,6.53,2.07,-2.07,-2.13,-2.39,4.46,4.46,4.46
27.77,6.54,2.08,6.54,2.09,-2.09,-2.13,-2.43,4.45,4.45,4.46
28.05,6.56,2.11,6.55,2.11,-2.11,-2.13,-2.48,4.45,4.44,4.45
28.33,6.57,2.13,6.57,2.13,-2.13,-2.14,-2.52,4.44,4.44,4.43
28.62,6.58,2.14,6.58,2.14,-2.15,-2.14,-2.56,4.43,4.43,4.43
28.90,6.59,2.16,6.59,2.16,-2.17,-2.15,-2.59,4.42,4.42,4.42
29.19,6.60,2.17,6.60,2.18,-2.19,-2.15,-2.63,4.41,4.42,4.42
29.48,6.63,2.22,6.62,2.21,-2.21,-2.15,-2.66,4.42,4.41,4.41
29.78,6.64,2.23,6.64,2.23,-2.23,-2.16,-2.69,4.41,4.41,4.41
30.08,6.66,2.26,6.65,2.25,-2.25,-2.16,-2.72,4.40,4.40,4.40
30.38,6.67,2.27,6.67,2.27,-2.28,-2.17,-2.74,4.39,4.39,4.40
30.68,6.69,2.30,6.69,2.30,-2.30,-2.17,-2.76,4.38,4.38,4.39
30.99,6.71,2.33,6.70,2.33,-2.33,-2.18,-2.77,4.38,4.38,4.37
31.30,6.73,2.35,6.73,2.36,-2.35,-2.18,-2.79,4.37,4.37,4.37
31.61,6.75,2.38,6.74,2.38,-2.38,-2.19,-2.80,4.37,4.36,4.36
31.93,6.77,2.42,6.76,2.41,-2.41,-2.19,-2.80,4.36,4.36,4.35
32.24,6.78,2.43,6.78,2.44,-2.44,-2.20,-2.80,4.34,4.34,4.35
32.57,6.81,2.47,6.80,2.46,-2.47,-2.20,-2.80,4.34,4.33,4.34
32.89,6.82,2.49,6.82,2.50,-2.50,-2.21,-2.80,4.32,4.32,4.32
33.22,6.85,2.53,6.84,2.53,-2.53,-2.21,-2.79,4.31,4.31,4.31
33.55,6.87,2.56,6.86,2.56,-2.56,-2.22,-2.78,4.30,4.30,4.30
33.89,6.89,2.60,6.89,2.60,-2.60,-2.23,-2.77,4.29,4.29,4.29
34.23,6.91,2.63,6.91,2.63,-2.63,-2.23,-2.76,4.28,4.28,4.28
34.57,6.94,2.66,6.93,2.66,-2.66,-2.24,-2.74,4.28,4.27,4.28
34.92,6.96,2.69,6.95,2.69,-2.69,-2.24,-2.73,4.27,4.27,4.26
35.27,6.97,2.71,6.97,2.71,-2.71,-2.25,-2.71,4.25,4.26,4.25
35.62,6.99,2.74,6.98,2.74,-2.74,-2.26,-2.69,4.25,4.24,4.25
35.97,7.00,2.76,7.00,2.76,-2.76,-2.26,-2.66,4.23,4.23,4.24
36.33,7.02,2.78,7.01,2.78,-2.79,-2.27,-2.64,4.23,4.23,4.23
36.70,7.03,2.80,7.03,2.81,-2.81,-2.27,-2.62,4.22,4.22,4.22
37.06,7.05,2.84,7.04,2.83,-2.83,-2.28,-2.60,4.22,4.22,4.21
37.43,7.06,2.85,7.05,2.85,-2.85,-2.29,-2.57,4.21,4.21,4.21
37.81,7.06,2.86,7.06,2.87,-2.86,-2.29,-2.55,4.19,4.20,4.19
38.19,7.07,2.88,7.06,2.87,-2.87,-2.30,-2.53,4.19,4.19,4.19
38.57,7.07,2.89,7.07,2.89,-2.89,-2.31,-2.50,4.18,4.18,4.18
38.95,7.07,2.89,7.07,2.89,-2.90,-2.31,-2.48,4.17,4.17,4.17
39.34,7.07,2.90,7.07,2.90,-2.90,-2.32,-2.46,4.16,4.16,4.16
39.74,7.07,2.91,7.07,2.91,-2.91,-2.33,-2.44,4.16,4.15,4.16
40.14,7.07,2.92,7.06,2.92,-2.92,-2.34,-2.43,4.15,4.15,4.14
40.54,7.06,2.92,7.06,2.92,-2.92,-2.34,-2.41,4.14,4.14,4.14
40.94,7.06,2.93,7.06,2.93,-2.92,-2.35,-2.39,4.13,4.13,4.13
41.35,7.05,2.92,7.05,2.93,-2.93,-2.36,-2.38,4.12,4.12,4.12
41.76,7.05,2.94,7.04,2.93,-2.93,-2.37,-2.37,4.12,4.11,4.11
42.18,7.03,2.92,7.03,2.93,-2.93,-2.37,-2.36,4.10,4.10,4.11
42.60,7.02,2.93,7.02,2.92,-2.92,-2.38,-2.35,4.09,4.09,4.09
43.03,7.01,2.92,7.00,2.92,-2.92,-2.39,-2.34,4.09,4.08,4.09
43.46,6.99,2.91,6.99,2.92,-2.91,-2.40,-2.33,4.07,4.08,4.07
43.90,6.98,2.91,6.98,2.91,-2.91,-2.41,-2.33,4.07,4.07,4.07
44.33,6.97,2.90,6.96,2.90,-2.90,-2.42,-2.33,4.06,4.06,4.06
44.78,6.94,2.89,6.94,2.89,-2.89,-2.42,-2.33,4.04,4.05,4.05
45.23,6.93,2.88,6.92,2.88,-2.88,-2.43,-2.33,4.04,4.04,4.04
45.68,6.91,2.87,6.91,2.87,-2.87,-2.44,-2.33,4.03,4.03,4.04
46.13,6.90,2.87,6.89,2.86,-2.86,-2.45,-2.33,4.03,4.03,4.03
46.60,6.88,2.85,6.88,2.85,-2.85,-2.46,-2.34,4.03,4.02,4.02
47.06,6.86,2.84,6.86,2.84,-2.84,-2.47,-2.35,4.02,4.02,4.02
47.53,6.84,2.82,6.84,2.82,-2.82,-2.48,-2.36,4.01,4.01,4.01
48.01,6.82,2.81,6.81,2.81,-2.81,-2.49,-2.37,4.01,4.01,4.00
48.49,6.79,2.79,6.79,2.79,-2.79,-2.50,-2.38,3.99,4.00,4.00
48.97,6.77,2.78,6.76,2.77,-2.78,-2.51,-2.40,3.99,3.99,3.99
49.46,6.74,2.75,6.74,2.76,-2.76,-2.52,-2.41,3.98,3.98,3.98
49.96,6.72,2.74,6.72,2.74,-2.74,-2.53,-2.43,3.98,3.97,3.98
50.46,6.70,2.73,6.69,2.73,-2.72,-2.54,-2.45,3.97,3.97,3.97
50.96,6.67,2.71,6.67,2.71,-2.71,-2.55,-2.47,3.96,3.96,3.96
51.47,6.65,2.69,6.64,2.69,-2.69,-2.56,-2.49,3.95,3.95,3.95
51.99,6.62,2.67,6.62,2.68,-2.68,-2.57,-2.51,3.94,3.94,3.94
52.51,6.60,2.66,6.59,2.66,-2.66,-2.58,-2.53,3.94,3.93,3.93
53.03,6.57,2.64,6.57,2.65,-2.65,-2.59,-2.55,3.92,3.92,3.92
53.56,6.55,2.63,6.55,2.63,-2.63,-2.60,-2.58,3.91,3.91,3.91
54.10,6.53,2.62,6.52,2.62,-2.62,-2.61,-2.60,3.91,3.90,3.90
54.64,6.50,2.60,6.50,2.61,-2.61,-2.62,-2.62,3.89,3.89,3.89
55.18,6.48,2.59,6.48,2.60,-2.60,-2.63,-2.65,3.88,3.88,3.88
55.74,6.47,2.59,6.46,2.59,-2.59,-2.64,-2.67,3.88,3.87,3.87
56.29,6.44,2.58,6.44,2.58,-2.58,-2.65,-2.69,3.86,3.86,3.86
56.86,6.43,2.58,6.42,2.57,-2.57,-2.66,-2.71,3.85,3.85,3.85
57.42,6.41,2.57,6.40,2.56,-2.56,-2.68,-2.73,3.84,3.84,3.84
58.00,6.39,2.55,6.39,2.56,-2.56,-2.69,-2.75,3.83,3.83,3.83
58.58,6.37,2.55,6.37,2.55,-2.55,-2.70,-2.77,3.82,3.82,3.82
59.16,6.36,2.55,6.35,2.54,-2.54,-2.71,-2.79,3.81,3.81,3.81
59.76,6.34,2.54,6.33,2.54,-2.54,-2.72,-2.80,3.80,3.80,3.79
60.35,6.32,2.53,6.32,2.53,-2.53,-2.73,-2.82,3.78,3.78,3.79
60.96,6.30,2.52,6.30,2.52,-2.53,-2.75,-2.83,3.77,3.77,3.77
61.57,6.29,2.53,6.29,2.53,-2.53,-2.76,-2.84,3.76,3.76,3.76
62.18,6.28,2.53,6.28,2.53,-2.53,-2.77,-2.85,3.75,3.75,3.74
62.80,6.27,2.54,6.26,2.53,-2.53,-2.78,-2.85,3.74,3.73,3.73
63.43,6.26,2.53,6.25,2.54,-2.53,-2.79,-2.86,3.72,3.72,3.72
64.07,6.24,2.53,6.24,2.54,-2.54,-2.81,-2.86,3.70,3.70,3.70
64.71,6.24,2.55,6.23,2.54,-2.55,-2.82,-2.86,3.69,3.68,3.69
65.35,6.22,2.55,6.22,2.55,-2.55,-2.83,-2.86,3.66,3.66,3.67
66.01,6.21,2.56,6.21,2.56,-2.56,-2.84,-2.86,3.64,3.65,3.65
66.67,6.21,2.57,6.20,2.57,-2.57,-2.86,-2.85,3.63,3.63,3.63
67.33,6.21,2.59,6.20,2.59,-2.58,-2.87,-2.85,3.62,3.61,3.61
68.01,6.19,2.59,6.19,2.60,-2.60,-2.88,-2.84,3.59,3.60,3.59
68.69,6.19,2.62,6.18,2.61,-2.61,-2.89,-2.84,3.57,3.57,3.57
69.37,6.18,2.63,6.18,2.63,-2.63,-2.91,-2.83,3.55,3.55,3.55
70.07,6.17,2.64,6.17,2.64,-2.64,-2.92,-2.82,3.52,3.53,3.53
70.77,6.17,2.66,6.16,2.66,-2.66,-2.93,-2.81,3.51,3.50,3.51
71.48,6.16,2.67,6.16,2.67,-2.67,-2.94,-2.80,3.48,3.48,3.48
72.19,6.15,2.69,6.15,2.69,-2.69,-2.96,-2.79,3.45,3.46,3.46
72.91,6.15,2.71,6.14,2.71,-2.71,-2.97,-2.79,3.43,3.43,3.44
73.64,6.14,2.74,6.14,2.73,-2.73,-2.98,-2.78,3.40,3.40,3.40
74.38,6.13,2.75,6.13,2.75,-2.75,-3.00,-2.77,3.37,3.38,3.38
75.12,6.13,2.78,6.12,2.78,-2.77,-3.01,-2.76,3.35,3.35,3.35
75.87,6.12,2.80,6.12,2.80,-2.80,-3.02,-2.76,3.32,3.32,3.31
76.63,6.11,2.82,6.11,2.82,-2.82,-3.04,-2.75,3.28,3.28,3.29
77.40,6.10,2.85,6.10,2.85,-2.85,-3.05,-2.75,3.25,3.25,3.25
78.17,6.09,2.87,6.09,2.87,-2.88,-3.06,-2.75,3.21,3.21,3.21
78.95,6.08,2.90,6.08,2.90,-2.90,-3.08,-2.75,3.17,3.17,3.17
79.74,6.07,2.93,6.07,2.93,-2.93,-3.09,-2.75,3.13,3.13,3.13
80.54,6.06,2.96,6.06,2.96,-2.96,-3.10,-2.75,3.09,3.09,3.09
81.35,6.06,3.00,6.05,3.00,-2.99,-3.12,-2.76,3.06,3.05,3.05
82.16,6.04,3.02,6.04,3.03,-3.03,-3.13,-2.76,3.01,3.01,3.01
82.98,6.03,3.05,6.03,3.06,-3.06,-3.14,-2.77,2.97,2.97,2.97
83.81,6.02,3.09,6.01,3.09,-3.09,-3.16,-2.78,2.93,2.93,2.93
84.65,6.00,3.12,6.00,3.12,-3.11,-3.17,-2.79,2.88,2.89,2.88
85.50,5.99,3.15,5.98,3.14,-3.14,-3.18,-2.81,2.84,2.84,2.84
86.35,5.97,3.16,5.97,3.17,-3.17,-3.19,-2.83,2.80,2.80,2.80
87.22,5.95,3.19,5.95,3.19,-3.20,-3.21,-2.84,2.75,2.76,2.76
88.09,5.94,3.22,5.93,3.22,-3.22,-3.22,-2.87,2.72,2.71,2.71
88.97,5.92,3.25,5.92,3.25,-3.24,-3.23,-2.89,2.67,2.67,2.67
89.86,5.90,3.27,5.90,3.27,-3.27,-3.25,-2.91,2.63,2.63,2.63
90.76,5.88,3.29,5.88,3.29,-3.29,-3.26,-2.94,2.59,2.59,2.59
91.66,5.86,3.31,5.85,3.31,-3.31,-3.27,-2.97,2.55,2.54,2.54
92.58,5.84,3.33,5.83,3.33,-3.33,-3.29,-3.01,2.51,2.50,2.51
93.51,5.81,3.34,5.81,3.35,-3.35,-3.30,-3.04,2.46,2.47,2.46
94.44,5.80,3.37,5.79,3.37,-3.37,-3.31,-3.08,2.43,2.42,2.43
95.39,5.77,3.39,5.76,3.38,-3.38,-3.32,-3.11,2.38,2.38,2.38
96.34,5.74,3.39,5.74,3.40,-3.40,-3.34,-3.15,2.34,2.34,2.34
97.30,5.71,3.41,5.71,3.41,-3.42,-3.35,-3.20,2.29,2.29,2.29
98.28,5.69,3.43,5.68,3.43,-3.43,-3.36,-3.24,2.25,2.25,2.26
99.26,5.66,3.45,5.66,3.45,-3.45,-3.37,-3.28,2.21,2.21,2.21
100.25,5.63,3.47,5.63,3.47,-3.46,-3.39,-3.33,2.16,2.16,2.16
101.25,5.60,3.48,5.59,3.48,-3.48,-3.40,-3.38,2.12,2.11,2.11
102.27,5.56,3.49,5.56,3.50,-3.50,-3.41,-3.43,2.06,2.06,2.06
103.29,5.53,3.51,5.53,3.51,-3.51,-3.42,-3.47,2.01,2.02,2.02
104.32,5.50,3.53,5.49,3.53,-3.53,-3.43,-3.52,1.97,1.97,1.97
105.37,5.47,3.55,5.46,3.54,-3.54,-3.45,-3.57,1.93,1.92,1.92
106.42,5.42,3.55,5.42,3.55,-3.55,-3.46,-3.62,1.86,1.87,1.87
107.48,5.39,3.56,5.38,3.56,-3.56,-3.47,-3.67,1.82,1.82,1.82
108.56,5.35,3.57,5.35,3.57,-3.58,-3.48,-3.72,1.77,1.77,1.77
109.64,5.32,3.59,5.31,3.59,-3.59,-3.49,-3.76,1.73,1.73,1.73
110.74,5.28,3.60,5.28,3.60,-3.60,-3.50,-3.81,1.68,1.68,1.68
111.85,5.24,3.61,5.24,3.61,-3.61,-3.51,-3.85,1.63,1.63,1.63
112.97,5.20,3.61,5.19,3.61,-3.61,-3.52,-3.89,1.58,1.58,1.58
114.10,5.15,3.61,5.15,3.62,-3.62,-3.53,-3.93,1.52,1.53,1.53
115.24,5.12,3.63,5.11,3.63,-3.63,-3.54,-3.96,1.49,1.49,1.49
116.39,5.08,3.64,5.07,3.63,-3.63,-3.55,-3.99,1.44,1.44,1.44
117.55,5.04,3.64,5.03,3.64,-3.63,-3.55,-4.02,1.40,1.40,1.39
118.73,4.99,3.64,4.99,3.64,-3.64,-3.56,-4.04,1.35,1.35,1.35
119.92,4.95,3.64,4.95,3.64,-3.64,-3.57,-4.06,1.31,1.31,1.31
121.12,4.91,3.64,4.90,3.63,-3.64,-3.58,-4.07,1.27,1.27,1.27
122.33,4.86,3.63,4.86,3.63,-3.63,-3.58,-4.08,1.22,1.22,1.23
123.55,4.82,3.63,4.82,3.63,-3.63,-3.59,-4.08,1.18,1.18,1.18
124.79,4.78,3.63,4.78,3.63,-3.63,-3.59,-4.08,1.15,1.15,1.15
126.03,4.74,3.63,4.74,3.63,-3.63,-3.60,-4.07,1.11,1.11,1.11
127.29,4.70,3.62,4.70,3.62,-3.62,-3.60,-4.06,1.07,1.07,1.07
128.57,4.66,3.62,4.66,3.62,-3.62,-3.60,-4.04,1.03,1.03,1.04
129.85,4.62,3.62,4.62,3.62,-3.62,-3.61,-4.02,1.00,1.00,1.00
131.15,4.58,3.61,4.58,3.62,-3.61,-3.61,-3.99,0.96,0.97,0.96
132.46,4.55,3.61,4.54,3.61,-3.61,-3.61,-3.96,0.94,0.93,0.93
133.79,4.51,3.61,4.51,3.61,-3.60,-3.61,-3.93,0.90,0.90,0.90
135.12,4.47,3.60,4.47,3.60,-3.60,-3.61,-3.88,0.87,0.87,0.87
136.48,4.43,3.59,4.43,3.58,-3.59,-3.61,-3.84,0.84,0.84,0.84
137.84,4.39,3.57,4.39,3.57,-3.58,-3.60,-3.79,0.81,0.81,0.82
139.22,4.36,3.57,4.35,3.56,-3.56,-3.60,-3.74,0.79,0.79,0.79
140.61,4.32,3.55,4.32,3.55,-3.55,-3.60,-3.69,0.76,0.77,0.76
142.02,4.29,3.54,4.28,3.54,-3.54,-3.59,-3.64,0.75,0.75,0.74
143.44,4.25,3.52,4.25,3.52,-3.52,-3.58,-3.58,0.72,0.72,0.73
144.87,4.21,3.51,4.21,3.51,-3.51,-3.58,-3.52,0.70,0.70,0.70
146.32,4.18,3.49,4.17,3.49,-3.49,-3.57,-3.46,0.68,0.68,0.68
147.78,4.14,3.47,4.14,3.48,-3.48,-3.56,-3.40,0.66,0.66,0.67
149.26,4.11,3.46,4.10,3.46,-3.46,-3.55,-3.34,0.65,0.65,0.64
150.75,4.07,3.44,4.07,3.44,-3.44,-3.54,-3.28,0.63,0.63,0.63
152.26,4.04,3.42,4.03,3.42,-3.42,-3.53,-3.22,0.62,0.62,0.61
153.78,4.00,3.40,4.00,3.40,-3.39,-3.51,-3.15,0.60,0.60,0.60
155.32,3.96,3.37,3.96,3.37,-3.37,-3.50,-3.09,0.59,0.59,0.59
156.88,3.92,3.34,3.92,3.34,-3.34,-3.48,-3.03,0.57,0.57,0.57
158.44,3.88,3.31,3.88,3.31,-3.32,-3.46,-2.98,0.56,0.56,0.56
160.03,3.84,3.29,3.84,3.29,-3.29,-3.45,-2.92,0.55,0.55,0.55
161.63,3.80,3.26,3.80,3.26,-3.26,-3.43,-2.86,0.54,0.54,0.54
163.24,3.76,3.23,3.76,3.23,-3.23,-3.41,-2.81,0.53,0.53,0.53
164.88,3.72,3.20,3.72,3.20,-3.20,-3.39,-2.75,0.52,0.52,0.52
166.53,3.68,3.17,3.68,3.16,-3.17,-3.36,-2.70,0.51,0.51,0.51
168.19,3.64,3.13,3.64,3.14,-3.14,-3.34,-2.65,0.50,0.50,0.50
169.87,3.60,3.10,3.60,3.11,-3.11,-3.32,-2.60,0.49,0.49,0.49
171.57,3.57,3.09,3.56,3.08,-3.08,-3.29,-2.56,0.48,0.48,0.48
173.29,3.53,3.06,3.53,3.06,-3.06,-3.26,-2.51,0.47,0.47,0.47
175.02,3.50,3.03,3.49,3.04,-3.03,-3.24,-2.47,0.46,0.46,0.46
176.77,3.46,3.01,3.46,3.01,-3.01,-3.21,-2.43,0.45,0.45,0.45
178.54,3.43,2.99,3.42,2.99,-2.99,-3.18,-2.39,0.44,0.44,0.44
180.32,3.39,2.96,3.39,2.96,-2.97,-3.15,-2.35,0.42,0.42,0.42
182.13,3.36,2.95,3.35,2.94,-2.95,-3.11,-2.32,0.41,0.41,0.41
183.95,3.32,2.92,3.32,2.93,-2.93,-3.08,-2.29,0.39,0.39,0.40
185.79,3.30,2.91,3.29,2.91,-2.91,-3.05,-2.25,0.39,0.38,0.38
187.65,3.27,2.90,3.26,2.90,-2.89,-3.01,-2.22,0.37,0.37,0.37
189.52,3.23,2.87,3.23,2.88,-2.87,-2.98,-2.20,0.35,0.36,0.35
191.42,3.21,2.86,3.20,2.86,-2.86,-2.94,-2.17,0.35,0.34,0.34
193.33,3.17,2.84,3.17,2.84,-2.84,-2.90,-2.15,0.33,0.33,0.33
195.27,3.14,2.82,3.13,2.82,-2.82,-2.86,-2.12,0.31,0.31,0.32
197.22,3.10,2.80,3.10,2.80,-2.81,-2.82,-2.10,0.29,0.30,0.30
199.19,3.08,2.79,3.07,2.79,-2.79,-2.78,-2.08,0.29,0.28,0.28
201.18,3.05,2.78,3.04,2.77,-2.77,-2.74,-2.06,0.28,0.27,0.26
203.19,3.00,2.74,3.00,2.75,-2.75,-2.70,-2.04,0.24,0.25,0.25
205.23,2.97,2.73,2.97,2.73,-2.73,-2.66,-2.03,0.23,0.23,0.23
207.28,2.94,2.71,2.93,2.71,-2.71,-2.61,-2.01,0.22,0.22,0.22
209.35,2.90,2.69,2.90,2.69,-2.69,-2.57,-2.00,0.21,0.21,0.20
211.44,2.86,2.67,2.86,2.67,-2.67,-2.52,-1.98,0.19,0.19,0.18
213.56,2.82,2.64,2.81,2.64,-2.64,-2.48,-1.97,0.18,0.17,0.18
215.69,2.77,2.61,2.77,2.61,-2.61,-2.43,-1.95,0.16,0.16,0.16
217.85,2.72,2.57,2.72,2.57,-2.58,-2.38,-1.94,0.14,0.15,0.15
220.03,2.68,2.54,2.67,2.54,-2.54,-2.33,-1.93,0.14,0.13,0.13
222.23,2.63,2.50,2.62,2.50,-2.50,-2.28,-1.91,0.13,0.12,0.12
224.45,2.57,2.45,2.57,2.45,-2.45,-2.23,-1.90,0.12,0.12,0.12
226.70,2.51,2.40,2.51,2.40,-2.40,-2.18,-1.88,0.11,0.11,0.11
228.96,2.46,2.35,2.45,2.35,-2.35,-2.13,-1.87,0.11,0.10,0.10
231.25,2.39,2.29,2.39,2.29,-2.29,-2.08,-1.85,0.10,0.10,0.10
233.57,2.32,2.22,2.32,2.22,-2.22,-2.02,-1.84,0.09,0.09,0.10
235.90,2.25,2.15,2.25,2.15,-2.16,-1.97,-1.82,0.09,0.09,0.09
238.26,2.19,2.09,2.18,2.09,-2.08,-1.91,-1.80,0.10,0.10,0.10
240.64,2.11,2.01,2.11,2.01,-2.01,-1.85,-1.78,0.10,0.10,0.10
243.05,2.04,1.94,2.03,1.93,-1.93,-1.79,-1.76,0.11,0.10,0.09
245.48,1.94,1.84,1.94,1.84,-1.84,-1.73,-1.74,0.09,0.10,0.10
247.93,1.86,1.75,1.86,1.76,-1.75,-1.67,-1.71,0.10,0.10,0.10
250.41,1.78,1.67,1.77,1.66,-1.67,-1.61,-1.69,0.11,0.11,0.11
252.92,1.69,1.58,1.68,1.57,-1.57,-1.55,-1.66,0.11,0.11,0.10
255.45,1.59,1.48,1.59,1.48,-1.48,-1.48,-1.63,0.10,0.11,0.11
258.00,1.50,1.38,1.50,1.39,-1.39,-1.41,-1.60,0.11,0.11,0.11
260.58,1.42,1.31,1.41,1.30,-1.30,-1.35,-1.57,0.11,0.11,0.11
263.19,1.32,1.21,1.32,1.21,-1.21,-1.28,-1.54,0.10,0.11,0.11
265.82,1.24,1.12,1.23,1.13,-1.13,-1.20,-1.50,0.11,0.11,0.11
268.48,1.15,1.04,1.15,1.04,-1.04,-1.13,-1.46,0.10,0.10,0.11
271.16,1.07,0.96,1.06,0.96,-0.96,-1.05,-1.43,0.11,0.10,0.10
273.87,0.98,0.88,0.98,0.88,-0.88,-0.97,-1.39,0.10,0.10,0.10
276.61,0.90,0.79,0.90,0.80,-0.79,-0.89,-1.35,0.10,0.11,0.11
279.38,0.83,0.72,0.82,0.71,-0.71,-0.81,-1.30,0.11,0.11,0.10
282.17,0.74,0.64,0.74,0.63,-0.63,-0.73,-1.26,0.11,0.11,0.10
284.99,0.65,0.54,0.65,0.54,-0.54,-0.64,-1.22,0.10,0.11,0.11
287.84,0.56,0.45,0.56,0.45,-0.45,-0.55,-1.17,0.10,0.10,0.10
290.72,0.48,0.36,0.47,0.36,-0.37,-0.46,-1.13,0.11,0.11,0.11
293.63,0.39,0.28,0.39,0.27,-0.27,-0.36,-1.08,0.11,0.11,0.11
296.57,0.30,0.18,0.30,0.18,-0.18,-0.26,-1.04,0.12,0.12,0.12
299.53,0.21,0.09,0.20,0.09,-0.09,-0.16,-0.99,0.12,0.12,0.11
302.53,0.12,-0.00,0.11,-0.01,0.01,-0.06,-0.94,0.13,0.12,0.12
305.55,0.02,-0.11,0.02,-0.11,0.10,0.04,-0.90,0.12,0.13,0.13
308.61,-0.06,-0.20,-0.07,-0.20,0.20,0.14,-0.85,0.14,0.13,0.14
311.69,-0.15,-0.30,-0.15,-0.30,0.30,0.25,-0.80,0.14,0.14,0.14
314.81,-0.23,-0.39,-0.24,-0.39,0.39,0.35,-0.75,0.16,0.16,0.15
317.96,-0.32,-0.48,-0.32,-0.48,0.48,0.46,-0.71,0.16,0.16,0.16
321.14,-0.40,-0.57,-0.41,-0.58,0.57,0.56,-0.66,0.17,0.17,0.17
324.35,-0.49,-0.67,-0.49,-0.66,0.66,0.66,-0.61,0.17,0.17,0.18
327.59,-0.56,-0.75,-0.57,-0.75,0.74,0.76,-0.56,0.18,0.18,0.18
330.87,-0.63,-0.82,-0.64,-0.82,0.82,0.85,-0.52,0.19,0.18,0.18
334.18,-0.71,-0.90,-0.70,-0.89,0.90,0.94,-0.47,0.18,0.19,0.19
337.52,-0.76,-0.95,-0.77,-0.96,0.97,1.01,-0.42,0.20,0.20,0.19
340.90,-0.83,-1.03,-0.83,-1.03,1.03,1.08,-0.37,0.20,0.20,0.20
344.30,-0.89,-1.09,-0.89,-1.08,1.09,1.14,-0.33,0.19,0.20,0.20
347.75,-0.94,-1.14,-0.95,-1.14,1.13,1.19,-0.28,0.19,0.19,0.19
351.23,-0.98,-1.18,-0.99,-1.18,1.17,1.23,-0.23,0.19,0.18,0.19
354.74,-1.03,-1.22,-1.02,-1.21,1.20,1.26,-0.19,0.17,0.18,0.19
358.28,-1.04,-1.22,-1.05,-1.23,1.22,1.27,-0.14,0.18,0.17,0.18
361.87,-1.05,-1.23,-1.06,-1.23,1.23,1.28,-0.09,0.18,0.18,0.18
365.49,-1.05,-1.23,-1.05,-1.23,1.23,1.28,-0.05,0.18,0.18,0.18
369.14,-1.04,-1.22,-1.04,-1.22,1.23,1.26,0.00,0.18,0.18,0.18
372.83,-1.03,-1.21,-1.03,-1.21,1.21,1.24,0.05,0.18,0.18,0.17
376.56,-1.00,-1.19,-1.01,-1.19,1.19,1.21,0.09,0.19,0.18,0.18
380.33,-0.99,-1.18,-0.99,-1.17,1.17,1.17,0.14,0.18,0.18,0.18
384.13,-0.96,-1.15,-0.96,-1.15,1.15,1.13,0.19,0.18,0.18,0.18
387.97,-0.93,-1.12,-0.94,-1.12,1.12,1.09,0.23,0.19,0.18,0.19
391.85,-0.90,-1.09,-0.90,-1.09,1.09,1.04,0.28,0.19,0.19,0.19
395.77,-0.86,-1.06,-0.86,-1.06,1.06,0.99,0.32,0.20,0.20,0.20
399.73,-0.81,-1.02,-0.82,-1.03,1.03,0.95,0.37,0.21,0.21,0.21
403.72,-0.78,-0.99,-0.78,-0.99,0.99,0.90,0.41,0.21,0.21,0.21
407.76,-0.74,-0.96,-0.74,-0.96,0.95,0.85,0.45,0.21,0.21,0.22
411.84,-0.69,-0.92,-0.70,-0.92,0.91,0.81,0.50,0.22,0.22,0.22
415.96,-0.64,-0.88,-0.64,-0.88,0.87,0.76,0.54,0.23,0.23,0.23
420.12,-0.59,-0.83,-0.59,-0.83,0.83,0.72,0.58,0.24,0.24,0.23
424.32,-0.54,-0.79,-0.54,-0.79,0.79,0.68,0.63,0.24,0.24,0.24
428.56,-0.49,-0.75,-0.50,-0.75,0.75,0.64,0.67,0.25,0.25,0.25
432.85,-0.45,-0.72,-0.45,-0.71,0.71,0.61,0.71,0.25,0.26,0.26
437.18,-0.40,-0.67,-0.40,-0.67,0.67,0.58,0.75,0.27,0.27,0.27
441.55,-0.35,-0.63,-0.36,-0.64,0.64,0.55,0.78,0.29,0.29,0.28
445.96,-0.31,-0.60,-0.32,-0.61,0.62,0.52,0.82,0.30,0.30,0.29
450.42,-0.29,-0.59,-0.29,-0.59,0.60,0.50,0.86,0.30,0.31,0.30
454.93,-0.27,-0.58,-0.27,-0.58,0.58,0.48,0.89,0.31,0.31,0.31
459.48,-0.25,-0.57,-0.25,-0.57,0.57,0.46,0.92,0.31,0.31,0.32
464.07,-0.23,-0.56,-0.24,-0.56,0.56,0.45,0.95,0.33,0.32,0.33
468.71,-0.22,-0.56,-0.22,-0.56,0.55,0.43,0.98,0.33,0.33,0.34
473.40,-0.20,-0.55,-0.20,-0.55,0.55,0.42,1.01,0.34,0.34,0.35
478.13,-0.18,-0.54,-0.19,-0.55,0.54,0.42,1.04,0.36,0.36,0.36
482.91,-0.17,-0.55,-0.17,-0.54,0.54,0.41,1.06,0.37,0.37,0.38
487.74,-0.15,-0.54,-0.15,-0.54,0.54,0.41,1.08,0.39,0.39,0.38
492.62,-0.13,-0.54,-0.14,-0.54,0.54,0.40,1.10,0.41,0.40,0.40
497.55,-0.11,-0.53,-0.12,-0.54,0.54,0.41,1.12,0.43,0.42,0.41
502.52,-0.11,-0.55,-0.11,-0.54,0.54,0.41,1.13,0.43,0.43,0.43
507.55,-0.09,-0.55,-0.09,-0.55,0.54,0.41,1.14,0.45,0.45,0.45
512.62,-0.08,-0.56,-0.08,-0.55,0.55,0.42,1.15,0.46,0.47,0.47
517.75,-0.05,-0.54,-0.06,-0.55,0.55,0.43,1.16,0.49,0.49,0.48
522.93,-0.05,-0.56,-0.05,-0.55,0.55,0.43,1.17,0.50,0.50,0.50
528.16,-0.03,-0.56,-0.03,-0.55,0.55,0.45,1.17,0.52,0.52,0.52
533.44,-0.01,-0.55,-0.02,-0.56,0.55,0.46,1.18,0.54,0.53,0.53
538.77,-0.00,-0.56,-0.00,-0.55,0.55,0.47,1.18,0.55,0.55,0.55
