frequency,raw,error,smoothed,error_smoothed,equalization,parametric_eq,fixed_band_eq,equalized_raw,equalized_smoothed,target
20.00,-10.83,-11.78,-10.83,-11.78,6.00,6.29,2.80,-4.83,-4.83,0.95
20.20,-10.77,-11.70,-10.77,-11.70,6.00,6.28,2.88,-4.77,-4.77,0.93
20.40,-10.72,-11.62,-10.72,-11.62,6.00,6.28,2.96,-4.72,-4.72,0.90
20.61,-10.66,-11.54,-10.66,-11.54,6.00,6.28,3.04,-4.66,-4.66,0.88
20.81,-10.60,-11.46,-10.60,-11.46,6.00,6.27,3.13,-4.60,-4.60,0.86
21.02,-10.54,-11.37,-10.53,-11.37,6.00,6.27,3.22,-4.54,-4.53,0.83
21.23,-10.47,-11.28,-10.47,-11.28,6.00,6.26,3.31,-4.47,-4.47,0.81
21.44,-10.41,-11.20,-10.41,-11.20,6.00,6.26,3.41,-4.41,-4.41,0.79
21.66,-10.35,-11.12,-10.35,-11.12,6.00,6.25,3.50,-4.35,-4.35,0.77
21.87,-10.29,-11.04,-10.28,-11.03,6.00,6.25,3.60,-4.29,-4.28,0.75
22.09,-10.21,-10.94,-10.21,-10.94,6.00,6.25,3.70,-4.21,-4.21,0.73
22.31,-10.14,-10.85,-10.14,-10.84,6.00,6.24,3.81,-4.14,-4.14,0.71
22.54,-10.07,-10.75,-10.07,-10.75,6.00,6.24,3.92,-4.07,-4.07,0.68
22.76,-10.00,-10.65,-10.00,-10.66,6.00,6.23,4.03,-4.00,-4.00,0.66
22.99,-9.93,-10.57,-9.93,-10.56,6.00,6.23,4.14,-3.93,-3.93,0.64
23.22,-9.86,-10.47,-9.86,-10.48,6.00,6.22,4.26,-3.86,-3.86,0.62
23.45,-9.79,-10.39,-9.79,-10.39,6.00,6.21,4.38,-3.79,-3.79,0.61
23.69,-9.72,-10.31,-9.72,-10.30,6.00,6.21,4.50,-3.72,-3.72,0.59
23.92,-9.65,-10.22,-9.65,-10.22,6.00,6.20,4.62,-3.65,-3.65,0.58
24.16,-9.58,-10.13,-9.58,-10.14,6.00,6.20,4.75,-3.58,-3.58,0.55
24.40,-9.52,-10.06,-9.51,-10.05,6.00,6.19,4.88,-3.52,-3.51,0.54
24.65,-9.44,-9.97,-9.44,-9.97,6.00,6.19,5.01,-3.44,-3.44,0.53
24.89,-9.37,-9.88,-9.37,-9.88,6.00,6.18,5.14,-3.37,-3.37,0.51
25.14,-9.30,-9.80,-9.30,-9.80,6.00,6.17,5.27,-3.30,-3.30,0.50
25.39,-9.23,-9.72,-9.23,-9.72,6.00,6.17,5.41,-3.23,-3.23,0.49
25.65,-9.16,-9.64,-9.15,-9.64,6.00,6.16,5.55,-3.16,-3.15,0.48
25.91,-9.08,-9.55,-9.08,-9.55,6.00,6.15,5.68,-3.08,-3.08,0.47
26.16,-9.01,-9.47,-9.01,-9.47,6.00,6.15,5.82,-3.01,-3.01,0.46
26.43,-8.94,-9.38,-8.94,-9.38,6.00,6.14,5.95,-2.94,-2.94,0.44
26.69,-8.87,-9.30,-8.86,-9.29,6.00,6.13,6.09,-2.87,-2.86,0.43
26.96,-8.79,-9.21,-8.79,-9.21,6.00,6.12,6.22,-2.79,-2.79,0.42
27.23,-8.72,-9.13,-8.72,-9.13,6.00,6.12,6.35,-2.72,-2.72,0.41
27.50,-8.65,-9.04,-8.64,-9.04,6.00,6.11,6.48,-2.65,-2.64,0.40
27.77,-8.57,-8.96,-8.57,-8.96,6.00,6.10,6.60,-2.57,-2.57,0.39
28.05,-8.49,-8.87,-8.49,-8.87,6.00,6.09,6.72,-2.49,-2.49,0.38
28.33,-8.42,-8.79,-8.41,-8.79,6.00,6.09,6.84,-2.42,-2.41,0.37
28.62,-8.34,-8.71,-8.34,-8.71,6.00,6.08,6.95,-2.34,-2.34,0.37
28.90,-8.27,-8.63,-8.27,-8.63,6.00,6.07,7.05,-2.27,-2.27,0.36
29.19,-8.21,-8.57,-8.20,-8.56,6.00,6.06,7.14,-2.21,-2.20,0.36
29.48,-8.13,-8.48,-8.13,-8.48,6.00,6.05,7.22,-2.13,-2.13,0.35
29.78,-8.06,-8.41,-8.06,-8.41,6.00,6.04,7.30,-2.06,-2.06,0.35
30.08,-8.00,-8.34,-8.00,-8.34,6.00,6.03,7.36,-2.00,-2.00,0.34
30.38,-7.94,-8.27,-7.93,-8.26,6.00,6.02,7.42,-1.94,-1.93,0.34
30.68,-7.87,-8.19,-7.87,-8.19,6.00,6.01,7.46,-1.87,-1.87,0.32
30.99,-7.80,-8.11,-7.80,-8.12,6.00,6.00,7.49,-1.80,-1.80,0.31
31.30,-7.75,-8.06,-7.74,-8.05,6.00,5.99,7.51,-1.75,-1.74,0.31
31.61,-7.68,-7.98,-7.68,-7.98,6.00,5.98,7.52,-1.68,-1.68,0.30
31.93,-7.63,-7.92,-7.63,-7.92,6.00,5.97,7.52,-1.63,-1.63,0.29
32.24,-7.57,-7.85,-7.57,-7.85,6.00,5.96,7.51,-1.57,-1.57,0.29
32.57,-7.51,-7.78,-7.51,-7.78,6.00,5.95,7.48,-1.51,-1.51,0.28
32.89,-7.45,-7.71,-7.45,-7.71,6.00,5.94,7.44,-1.45,-1.45,0.26
33.22,-7.39,-7.64,-7.39,-7.64,6.00,5.92,7.40,-1.39,-1.39,0.25
33.55,-7.34,-7.58,-7.33,-7.57,6.00,5.91,7.35,-1.34,-1.33,0.24
33.89,-7.28,-7.51,-7.28,-7.51,6.00,5.90,7.28,-1.28,-1.28,0.23
34.23,-7.23,-7.44,-7.22,-7.44,6.00,5.89,7.21,-1.23,-1.22,0.22
34.57,-7.17,-7.38,-7.17,-7.38,6.00,5.87,7.14,-1.17,-1.17,0.21
34.92,-7.12,-7.32,-7.12,-7.32,6.00,5.86,7.06,-1.12,-1.12,0.20
35.27,-7.07,-7.26,-7.06,-7.26,6.00,5.85,6.97,-1.07,-1.06,0.19
35.62,-7.01,-7.20,-7.01,-7.19,6.00,5.83,6.88,-1.01,-1.01,0.19
35.97,-6.96,-7.13,-6.96,-7.13,6.00,5.82,6.79,-0.96,-0.96,0.18
36.33,-6.90,-7.07,-6.90,-7.07,6.00,5.80,6.69,-0.90,-0.90,0.17
36.70,-6.86,-7.02,-6.85,-7.01,6.00,5.79,6.59,-0.86,-0.85,0.16
37.06,-6.80,-6.95,-6.80,-6.95,6.00,5.77,6.49,-0.80,-0.80,0.15
37.43,-6.75,-6.89,-6.75,-6.89,6.00,5.76,6.40,-0.75,-0.75,0.15
37.81,-6.70,-6.83,-6.69,-6.83,6.00,5.74,6.30,-0.70,-0.69,0.13
38.19,-6.64,-6.77,-6.64,-6.77,6.00,5.72,6.20,-0.64,-0.64,0.13
38.57,-6.60,-6.71,-6.59,-6.71,6.00,5.71,6.11,-0.60,-0.59,0.12
38.95,-6.54,-6.65,-6.54,-6.65,6.00,5.69,6.01,-0.54,-0.54,0.11
39.34,-6.49,-6.59,-6.49,-6.59,6.00,5.67,5.92,-0.49,-0.49,0.10
39.74,-6.44,-6.53,-6.44,-6.53,6.00,5.65,5.83,-0.44,-0.44,0.10
40.14,-6.39,-6.47,-6.39,-6.48,6.00,5.64,5.75,-0.39,-0.39,0.08
40.54,-6.35,-6.43,-6.34,-6.42,6.00,5.62,5.66,-0.35,-0.34,0.08
40.94,-6.29,-6.35,-6.29,-6.36,6.00,5.60,5.58,-0.28,-0.29,0.07
41.35,-6.24,-6.30,-6.24,-6.30,6.01,5.58,5.51,-0.23,-0.23,0.06
41.76,-6.19,-6.24,-6.19,-6.24,6.01,5.56,5.43,-0.18,-0.17,0.05
42.18,-6.14,-6.18,-6.14,-6.18,6.01,5.54,5.36,-0.13,-0.13,0.04
42.60,-6.09,-6.12,-6.09,-6.12,6.00,5.52,5.30,-0.09,-0.09,0.03
43.03,-6.05,-6.07,-6.04,-6.06,5.98,5.49,5.23,-0.06,-0.06,0.02
43.46,-5.99,-6.00,-5.99,-6.00,5.96,5.47,5.18,-0.03,-0.03,0.01
43.90,-5.94,-5.94,-5.94,-5.94,5.93,5.45,5.12,-0.01,-0.01,0.01
44.33,-5.89,-5.89,-5.89,-5.88,5.88,5.42,5.07,-0.00,-0.00,0.00
44.78,-5.84,-5.82,-5.84,-5.83,5.84,5.40,5.02,-0.00,-0.00,-0.01
45.23,-5.79,-5.77,-5.79,-5.77,5.78,5.38,4.98,-0.01,-0.01,-0.02
45.68,-5.74,-5.71,-5.74,-5.71,5.72,5.35,4.94,-0.02,-0.02,-0.03
46.13,-5.69,-5.66,-5.69,-5.66,5.66,5.33,4.91,-0.03,-0.03,-0.03
46.60,-5.64,-5.60,-5.64,-5.60,5.60,5.30,4.88,-0.03,-0.04,-0.04
47.06,-5.60,-5.55,-5.59,-5.55,5.55,5.27,4.85,-0.05,-0.04,-0.04
47.53,-5.55,-5.50,-5.55,-5.50,5.50,5.24,4.82,-0.05,-0.05,-0.05
48.01,-5.50,-5.44,-5.50,-5.45,5.45,5.22,4.80,-0.05,-0.06,-0.06
48.49,-5.46,-5.39,-5.46,-5.39,5.39,5.19,4.79,-0.06,-0.06,-0.06
48.97,-5.42,-5.35,-5.41,-5.34,5.34,5.16,4.77,-0.08,-0.07,-0.07
49.46,-5.37,-5.29,-5.37,-5.29,5.29,5.13,4.76,-0.08,-0.08,-0.08
49.96,-5.33,-5.24,-5.33,-5.24,5.24,5.10,4.75,-0.09,-0.09,-0.09
50.46,-5.28,-5.18,-5.28,-5.19,5.19,5.06,4.74,-0.09,-0.09,-0.09
50.96,-5.24,-5.14,-5.24,-5.13,5.13,5.03,4.74,-0.10,-0.10,-0.10
51.47,-5.19,-5.08,-5.19,-5.08,5.08,5.00,4.73,-0.11,-0.11,-0.11
51.99,-5.15,-5.03,-5.15,-5.03,5.03,4.96,4.73,-0.12,-0.12,-0.12
52.51,-5.11,-4.98,-5.11,-4.98,4.98,4.93,4.73,-0.13,-0.13,-0.13
53.03,-5.07,-4.93,-5.06,-4.93,4.93,4.89,4.73,-0.14,-0.14,-0.14
53.56,-5.02,-4.87,-5.02,-4.87,4.87,4.86,4.73,-0.14,-0.15,-0.15
54.10,-4.98,-4.82,-4.98,-4.82,4.82,4.82,4.74,-0.16,-0.16,-0.16
54.64,-4.94,-4.77,-4.94,-4.77,4.77,4.78,4.74,-0.17,-0.17,-0.17
55.18,-4.90,-4.72,-4.89,-4.72,4.71,4.74,4.74,-0.18,-0.18,-0.18
55.74,-4.85,-4.66,-4.85,-4.66,4.66,4.70,4.74,-0.19,-0.19,-0.19
56.29,-4.81,-4.61,-4.81,-4.61,4.61,4.66,4.73,-0.20,-0.20,-0.20
56.86,-4.77,-4.56,-4.76,-4.55,4.55,4.62,4.73,-0.22,-0.21,-0.21
57.42,-4.72,-4.49,-4.72,-4.50,4.50,4.58,4.72,-0.22,-0.22,-0.22
58.00,-4.68,-4.45,-4.68,-4.45,4.45,4.54,4.72,-0.23,-0.23,-0.23
58.58,-4.64,-4.40,-4.63,-4.39,4.40,4.49,4.70,-0.24,-0.24,-0.24
59.16,-4.59,-4.33,-4.59,-4.34,4.34,4.45,4.69,-0.24,-0.25,-0.25
59.76,-4.56,-4.29,-4.55,-4.29,4.29,4.40,4.67,-0.27,-0.26,-0.27
60.35,-4.52,-4.25,-4.52,-4.24,4.24,4.36,4.65,-0.28,-0.28,-0.27
60.96,-4.48,-4.19,-4.48,-4.19,4.18,4.31,4.62,-0.29,-0.29,-0.29
61.57,-4.44,-4.14,-4.43,-4.13,4.13,4.26,4.59,-0.31,-0.30,-0.30
62.18,-4.39,-4.07,-4.39,-4.07,4.08,4.21,4.55,-0.31,-0.31,-0.32
62.80,-4.35,-4.01,-4.35,-4.02,4.02,4.16,4.51,-0.32,-0.32,-0.33
63.43,-4.31,-3.97,-4.31,-3.97,3.97,4.11,4.46,-0.34,-0.34,-0.34
64.07,-4.28,-3.92,-4.27,-3.92,3.91,4.06,4.41,-0.36,-0.36,-0.36
64.71,-4.24,-3.86,-4.24,-3.87,3.86,4.00,4.36,-0.38,-0.38,-0.37
65.35,-4.20,-3.80,-4.20,-3.81,3.80,3.95,4.30,-0.39,-0.40,-0.39
66.01,-4.17,-3.76,-4.16,-3.75,3.75,3.89,4.23,-0.42,-0.41,-0.41
66.67,-4.12,-3.69,-4.12,-3.69,3.70,3.84,4.16,-0.42,-0.43,-0.43
67.33,-4.09,-3.64,-4.09,-3.64,3.64,3.78,4.09,-0.45,-0.45,-0.45
68.01,-4.06,-3.59,-4.05,-3.58,3.58,3.72,4.01,-0.47,-0.47,-0.47
68.69,-4.02,-3.53,-4.02,-3.53,3.53,3.66,3.93,-0.49,-0.49,-0.49
69.37,-3.99,-3.48,-3.99,-3.47,3.47,3.60,3.85,-0.52,-0.51,-0.51
70.07,-3.95,-3.41,-3.95,-3.42,3.42,3.54,3.76,-0.53,-0.53,-0.53
70.77,-3.92,-3.36,-3.91,-3.36,3.36,3.48,3.67,-0.56,-0.55,-0.56
71.48,-3.88,-3.30,-3.88,-3.30,3.30,3.42,3.58,-0.57,-0.58,-0.58
72.19,-3.85,-3.25,-3.85,-3.25,3.25,3.35,3.49,-0.60,-0.60,-0.60
72.91,-3.82,-3.19,-3.82,-3.19,3.19,3.29,3.39,-0.63,-0.63,-0.63
73.64,-3.79,-3.13,-3.79,-3.13,3.13,3.22,3.30,-0.66,-0.66,-0.66
74.38,-3.76,-3.07,-3.75,-3.07,3.07,3.16,3.20,-0.69,-0.68,-0.69
75.12,-3.72,-3.01,-3.72,-3.01,3.01,3.09,3.11,-0.71,-0.71,-0.71
75.87,-3.69,-2.94,-3.69,-2.95,2.95,3.02,3.01,-0.74,-0.74,-0.75
76.63,-3.67,-2.89,-3.66,-2.89,2.89,2.95,2.91,-0.78,-0.78,-0.77
77.40,-3.64,-2.83,-3.64,-2.82,2.82,2.88,2.81,-0.82,-0.81,-0.81
78.17,-3.61,-2.76,-3.61,-2.76,2.76,2.81,2.72,-0.85,-0.85,-0.85
78.95,-3.58,-2.69,-3.58,-2.69,2.69,2.74,2.62,-0.89,-0.89,-0.89
79.74,-3.56,-2.63,-3.55,-2.63,2.63,2.67,2.52,-0.93,-0.93,-0.93
80.54,-3.53,-2.56,-3.53,-2.56,2.56,2.60,2.43,-0.97,-0.97,-0.97
81.35,-3.50,-2.49,-3.50,-2.49,2.49,2.52,2.33,-1.01,-1.01,-1.01
82.16,-3.47,-2.42,-3.47,-2.42,2.42,2.45,2.24,-1.04,-1.04,-1.05
82.98,-3.45,-2.36,-3.45,-2.36,2.36,2.38,2.15,-1.09,-1.09,-1.09
83.81,-3.42,-2.29,-3.42,-2.29,2.29,2.30,2.06,-1.13,-1.14,-1.13
84.65,-3.41,-2.22,-3.40,-2.22,2.22,2.23,1.97,-1.19,-1.18,-1.18
85.50,-3.38,-2.15,-3.38,-2.16,2.15,2.15,1.88,-1.22,-1.22,-1.23
86.35,-3.35,-2.09,-3.35,-2.09,2.09,2.08,1.79,-1.26,-1.26,-1.26
87.22,-3.33,-2.03,-3.32,-2.02,2.02,2.00,1.70,-1.31,-1.30,-1.30
88.09,-3.30,-1.95,-3.30,-1.95,1.96,1.93,1.62,-1.34,-1.34,-1.35
88.97,-3.28,-1.89,-3.28,-1.89,1.89,1.85,1.53,-1.39,-1.39,-1.39
89.86,-3.26,-1.82,-3.26,-1.82,1.82,1.78,1.45,-1.43,-1.43,-1.44
90.76,-3.24,-1.77,-3.23,-1.76,1.76,1.70,1.37,-1.48,-1.48,-1.47
91.66,-3.21,-1.69,-3.21,-1.70,1.69,1.62,1.28,-1.51,-1.52,-1.52
92.58,-3.19,-1.63,-3.19,-1.63,1.63,1.55,1.20,-1.56,-1.56,-1.55
93.51,-3.17,-1.57,-3.16,-1.56,1.56,1.47,1.12,-1.60,-1.60,-1.60
94.44,-3.13,-1.49,-3.13,-1.50,1.50,1.40,1.05,-1.63,-1.64,-1.64
95.39,-3.11,-1.42,-3.11,-1.43,1.43,1.32,0.97,-1.68,-1.68,-1.68
96.34,-3.09,-1.37,-3.09,-1.36,1.36,1.25,0.89,-1.72,-1.72,-1.72
97.30,-3.07,-1.30,-3.06,-1.30,1.30,1.17,0.82,-1.77,-1.77,-1.77
98.28,-3.04,-1.23,-3.04,-1.23,1.23,1.10,0.75,-1.81,-1.81,-1.81
99.26,-3.01,-1.15,-3.01,-1.16,1.16,1.03,0.67,-1.85,-1.86,-1.85
100.25,-2.99,-1.09,-2.98,-1.08,1.08,0.95,0.60,-1.90,-1.90,-1.90
101.25,-2.96,-1.01,-2.96,-1.01,1.01,0.88,0.53,-1.95,-1.95,-1.95
102.27,-2.94,-0.94,-2.94,-0.94,0.94,0.81,0.46,-2.00,-2.00,-2.00
103.29,-2.91,-0.86,-2.91,-0.86,0.87,0.74,0.40,-2.04,-2.04,-2.05
104.32,-2.89,-0.79,-2.88,-0.79,0.79,0.67,0.33,-2.10,-2.09,-2.09
105.37,-2.86,-0.72,-2.86,-0.72,0.72,0.60,0.26,-2.14,-2.14,-2.14
106.42,-2.84,-0.65,-2.84,-0.65,0.65,0.53,0.20,-2.19,-2.19,-2.19
107.48,-2.82,-0.58,-2.81,-0.57,0.57,0.47,0.14,-2.24,-2.24,-2.24
108.56,-2.79,-0.50,-2.79,-0.50,0.50,0.40,0.08,-2.28,-2.29,-2.29
109.64,-2.77,-0.43,-2.77,-0.43,0.43,0.34,0.02,-2.33,-2.33,-2.34
110.74,-2.75,-0.36,-2.75,-0.36,0.37,0.27,-0.04,-2.38,-2.38,-2.38
111.85,-2.73,-0.30,-2.73,-0.30,0.30,0.21,-0.10,-2.43,-2.43,-2.43
112.97,-2.72,-0.24,-2.71,-0.24,0.23,0.15,-0.15,-2.49,-2.48,-2.48
114.10,-2.70,-0.17,-2.70,-0.17,0.17,0.09,-0.20,-2.53,-2.53,-2.53
115.24,-2.68,-0.10,-2.68,-0.10,0.10,0.03,-0.25,-2.57,-2.57,-2.57
116.39,-2.66,-0.04,-2.66,-0.04,0.04,-0.03,-0.30,-2.61,-2.62,-2.62
117.55,-2.65,0.02,-2.65,0.02,-0.02,-0.08,-0.34,-2.66,-2.66,-2.67
118.73,-2.64,0.08,-2.64,0.07,-0.07,-0.14,-0.39,-2.71,-2.71,-2.71
119.92,-2.63,0.12,-2.63,0.13,-0.13,-0.19,-0.43,-2.75,-2.75,-2.75
121.12,-2.62,0.18,-2.62,0.18,-0.18,-0.24,-0.47,-2.80,-2.80,-2.80
122.33,-2.61,0.22,-2.61,0.23,-0.23,-0.29,-0.50,-2.84,-2.83,-2.83
123.55,-2.60,0.28,-2.60,0.28,-0.28,-0.34,-0.54,-2.87,-2.87,-2.88
124.79,-2.59,0.32,-2.59,0.32,-0.32,-0.39,-0.57,-2.91,-2.91,-2.91
126.03,-2.59,0.37,-2.59,0.37,-0.37,-0.43,-0.60,-2.96,-2.96,-2.96
127.29,-2.58,0.41,-2.58,0.41,-0.42,-0.48,-0.62,-2.99,-2.99,-2.99
128.57,-2.57,0.45,-2.57,0.46,-0.46,-0.52,-0.65,-3.03,-3.03,-3.02
129.85,-2.55,0.52,-2.55,0.51,-0.51,-0.56,-0.67,-3.05,-3.06,-3.07
131.15,-2.55,0.55,-2.55,0.55,-0.55,-0.60,-0.69,-3.10,-3.09,-3.10
132.46,-2.54,0.59,-2.54,0.59,-0.59,-0.64,-0.71,-3.13,-3.13,-3.13
133.79,-2.54,0.62,-2.54,0.63,-0.63,-0.68,-0.72,-3.16,-3.16,-3.16
135.12,-2.53,0.66,-2.53,0.66,-0.66,-0.71,-0.74,-3.19,-3.19,-3.19
136.48,-2.53,0.69,-2.52,0.69,-0.70,-0.75,-0.75,-3.22,-3.22,-3.22
137.84,-2.52,0.72,-2.52,0.73,-0.73,-0.78,-0.76,-3.25,-3.25,-3.24
139.22,-2.51,0.76,-2.51,0.76,-0.76,-0.81,-0.77,-3.27,-3.27,-3.27
140.61,-2.51,0.79,-2.50,0.79,-0.79,-0.84,-0.78,-3.30,-3.29,-3.30
142.02,-2.50,0.82,-2.50,0.82,-0.82,-0.87,-0.79,-3.32,-3.32,-3.32
143.44,-2.50,0.84,-2.49,0.85,-0.85,-0.90,-0.79,-3.34,-3.34,-3.34
144.87,-2.49,0.87,-2.49,0.87,-0.87,-0.92,-0.80,-3.36,-3.36,-3.36
146.32,-2.48,0.90,-2.48,0.90,-0.90,-0.95,-0.80,-3.38,-3.38,-3.38
147.78,-2.48,0.92,-2.47,0.93,-0.92,-0.97,-0.81,-3.40,-3.40,-3.39
149.26,-2.47,0.95,-2.47,0.95,-0.94,-0.99,-0.81,-3.41,-3.42,-3.42
150.75,-2.47,0.97,-2.47,0.97,-0.96,-1.01,-0.82,-3.43,-3.43,-3.43
152.26,-2.47,0.98,-2.46,0.99,-0.98,-1.03,-0.82,-3.45,-3.45,-3.45
153.78,-2.46,1.00,-2.46,1.00,-1.00,-1.05,-0.82,-3.46,-3.46,-3.46
155.32,-2.46,1.02,-2.46,1.02,-1.02,-1.07,-0.83,-3.48,-3.48,-3.48
156.88,-2.46,1.03,-2.46,1.03,-1.03,-1.08,-0.83,-3.49,-3.49,-3.49
158.44,-2.46,1.04,-2.45,1.05,-1.05,-1.10,-0.83,-3.51,-3.50,-3.50
160.03,-2.45,1.06,-2.45,1.06,-1.06,-1.11,-0.84,-3.51,-3.51,-3.51
161.63,-2.45,1.07,-2.45,1.07,-1.07,-1.13,-0.84,-3.52,-3.52,-3.52
163.24,-2.45,1.08,-2.44,1.09,-1.09,-1.14,-0.85,-3.53,-3.53,-3.53
164.88,-2.44,1.10,-2.44,1.10,-1.10,-1.15,-0.86,-3.54,-3.54,-3.54
166.53,-2.44,1.11,-2.44,1.11,-1.11,-1.16,-0.86,-3.55,-3.55,-3.55
168.19,-2.44,1.12,-2.44,1.12,-1.12,-1.17,-0.87,-3.56,-3.56,-3.56
169.87,-2.45,1.12,-2.44,1.13,-1.13,-1.18,-0.88,-3.58,-3.57,-3.57
171.57,-2.45,1.14,-2.45,1.14,-1.14,-1.18,-0.88,-3.58,-3.58,-3.59
173.29,-2.45,1.15,-2.45,1.14,-1.14,-1.19,-0.89,-3.59,-3.59,-3.59
175.02,-2.45,1.15,-2.45,1.15,-1.15,-1.20,-0.90,-3.60,-3.60,-3.60
176.77,-2.46,1.16,-2.45,1.16,-1.16,-1.20,-0.91,-3.62,-3.61,-3.62
178.54,-2.46,1.16,-2.46,1.16,-1.16,-1.21,-0.93,-3.62,-3.62,-3.62
180.32,-2.47,1.17,-2.47,1.17,-1.17,-1.21,-0.94,-3.64,-3.64,-3.64
182.13,-2.48,1.17,-2.48,1.17,-1.18,-1.22,-0.95,-3.65,-3.65,-3.65
183.95,-2.49,1.18,-2.48,1.18,-1.18,-1.22,-0.96,-3.67,-3.67,-3.67
185.79,-2.49,1.19,-2.49,1.19,-1.19,-1.22,-0.98,-3.67,-3.68,-3.68
187.65,-2.50,1.20,-2.50,1.19,-1.19,-1.22,-0.99,-3.69,-3.69,-3.69
189.52,-2.52,1.19,-2.51,1.20,-1.20,-1.23,-1.01,-3.71,-3.71,-3.71
191.42,-2.52,1.20,-2.52,1.20,-1.20,-1.23,-1.03,-3.72,-3.72,-3.72
193.33,-2.53,1.20,-2.53,1.20,-1.20,-1.23,-1.05,-3.73,-3.73,-3.73
195.27,-2.54,1.21,-2.54,1.21,-1.21,-1.23,-1.06,-3.74,-3.75,-3.74
197.22,-2.56,1.21,-2.55,1.21,-1.21,-1.23,-1.08,-3.77,-3.76,-3.77
199.19,-2.57,1.21,-2.57,1.21,-1.21,-1.23,-1.10,-3.78,-3.78,-3.78
201.18,-2.58,1.22,-2.58,1.21,-1.21,-1.23,-1.12,-3.79,-3.80,-3.80
203.19,-2.60,1.21,-2.59,1.22,-1.22,-1.23,-1.14,-3.81,-3.81,-3.81
205.23,-2.61,1.22,-2.61,1.22,-1.22,-1.22,-1.16,-3.83,-3.83,-3.83
207.28,-2.62,1.22,-2.62,1.22,-1.22,-1.22,-1.18,-3.84,-3.84,-3.84
209.35,-2.64,1.22,-2.63,1.22,-1.22,-1.22,-1.20,-3.86,-3.86,-3.86
211.44,-2.65,1.23,-2.65,1.22,-1.22,-1.22,-1.22,-3.87,-3.87,-3.88
213.56,-2.67,1.22,-2.67,1.22,-1.22,-1.22,-1.24,-3.89,-3.89,-3.89
215.69,-2.68,1.23,-2.68,1.22,-1.22,-1.21,-1.26,-3.90,-3.90,-3.90
217.85,-2.70,1.21,-2.70,1.22,-1.22,-1.21,-1.28,-3.92,-3.92,-3.91
220.03,-2.71,1.22,-2.71,1.22,-1.22,-1.21,-1.30,-3.93,-3.93,-3.93
222.23,-2.72,1.22,-2.72,1.22,-1.22,-1.21,-1.32,-3.93,-3.94,-3.94
224.45,-2.73,1.22,-2.73,1.22,-1.21,-1.20,-1.34,-3.94,-3.94,-3.95
226.70,-2.75,1.20,-2.74,1.21,-1.21,-1.20,-1.36,-3.95,-3.95,-3.95
228.96,-2.76,1.20,-2.76,1.20,-1.20,-1.20,-1.37,-3.96,-3.96,-3.96
231.25,-2.78,1.19,-2.78,1.19,-1.19,-1.19,-1.39,-3.97,-3.97,-3.97
233.57,-2.79,1.18,-2.79,1.18,-1.18,-1.19,-1.40,-3.97,-3.97,-3.96
235.90,-2.80,1.17,-2.80,1.17,-1.17,-1.19,-1.42,-3.97,-3.97,-3.97
238.26,-2.80,1.17,-2.80,1.16,-1.16,-1.18,-1.43,-3.96,-3.96,-3.97
240.64,-2.82,1.14,-2.81,1.15,-1.15,-1.18,-1.44,-3.97,-3.96,-3.96
243.05,-2.82,1.15,-2.82,1.14,-1.14,-1.18,-1.45,-3.96,-3.96,-3.97
245.48,-2.84,1.12,-2.84,1.13,-1.13,-1.17,-1.45,-3.96,-3.96,-3.96
247.93,-2.85,1.11,-2.84,1.12,-1.12,-1.17,-1.46,-3.96,-3.96,-3.96
250.41,-2.85,1.10,-2.85,1.10,-1.10,-1.17,-1.46,-3.95,-3.96,-3.95
252.92,-2.86,1.10,-2.86,1.09,-1.09,-1.16,-1.47,-3.95,-3.95,-3.96
255.45,-2.88,1.07,-2.87,1.08,-1.08,-1.16,-1.47,-3.96,-3.95,-3.95
258.00,-2.88,1.07,-2.88,1.07,-1.07,-1.16,-1.46,-3.95,-3.95,-3.95
260.58,-2.88,1.07,-2.89,1.06,-1.07,-1.16,-1.46,-3.94,-3.95,-3.95
263.19,-2.90,1.06,-2.89,1.06,-1.06,-1.15,-1.46,-3.96,-3.95,-3.96
265.82,-2.90,1.05,-2.90,1.05,-1.05,-1.15,-1.45,-3.95,-3.95,-3.95
268.48,-2.91,1.05,-2.91,1.05,-1.05,-1.15,-1.44,-3.96,-3.96,-3.95
271.16,-2.91,1.05,-2.91,1.04,-1.05,-1.15,-1.44,-3.95,-3.96,-3.96
273.87,-2.92,1.04,-2.91,1.04,-1.04,-1.14,-1.43,-3.96,-3.96,-3.96
276.61,-2.92,1.04,-2.92,1.04,-1.04,-1.14,-1.41,-3.96,-3.96,-3.95
279.38,-2.91,1.05,-2.91,1.04,-1.04,-1.14,-1.40,-3.95,-3.96,-3.96
282.17,-2.92,1.04,-2.91,1.04,-1.05,-1.14,-1.39,-3.96,-3.96,-3.96
284.99,-2.91,1.05,-2.91,1.05,-1.05,-1.14,-1.38,-3.96,-3.96,-3.95
287.84,-2.91,1.05,-2.90,1.05,-1.05,-1.14,-1.36,-3.96,-3.96,-3.96
290.72,-2.89,1.06,-2.89,1.06,-1.06,-1.13,-1.35,-3.95,-3.95,-3.95
293.63,-2.89,1.06,-2.89,1.06,-1.06,-1.13,-1.34,-3.95,-3.95,-3.95
296.57,-2.88,1.07,-2.88,1.07,-1.07,-1.13,-1.32,-3.95,-3.95,-3.95
299.53,-2.87,1.08,-2.87,1.08,-1.08,-1.13,-1.31,-3.94,-3.95,-3.95
302.53,-2.86,1.08,-2.86,1.08,-1.08,-1.13,-1.29,-3.94,-3.94,-3.94
305.55,-2.85,1.09,-2.84,1.09,-1.09,-1.13,-1.28,-3.94,-3.93,-3.93
308.61,-2.83,1.10,-2.83,1.09,-1.09,-1.13,-1.26,-3.92,-3.92,-3.93
311.69,-2.82,1.10,-2.82,1.10,-1.10,-1.13,-1.25,-3.91,-3.92,-3.92
314.81,-2.81,1.10,-2.81,1.10,-1.10,-1.13,-1.24,-3.91,-3.91,-3.91
317.96,-2.80,1.10,-2.80,1.11,-1.11,-1.13,-1.22,-3.91,-3.90,-3.90
321.14,-2.78,1.12,-2.78,1.11,-1.12,-1.13,-1.21,-3.89,-3.90,-3.89
324.35,-2.77,1.12,-2.77,1.12,-1.13,-1.13,-1.20,-3.90,-3.89,-3.89
327.59,-2.75,1.13,-2.75,1.13,-1.14,-1.13,-1.19,-3.89,-3.89,-3.88
330.87,-2.73,1.15,-2.73,1.15,-1.15,-1.13,-1.18,-3.88,-3.88,-3.88
334.18,-2.71,1.16,-2.70,1.17,-1.17,-1.14,-1.17,-3.88,-3.87,-3.87
337.52,-2.68,1.20,-2.68,1.19,-1.18,-1.14,-1.16,-3.86,-3.86,-3.87
340.90,-2.67,1.20,-2.67,1.20,-1.19,-1.14,-1.15,-3.86,-3.86,-3.86
344.30,-2.66,1.21,-2.66,1.21,-1.20,-1.14,-1.14,-3.86,-3.86,-3.87
347.75,-2.66,1.21,-2.65,1.21,-1.21,-1.14,-1.14,-3.87,-3.86,-3.87
351.23,-2.65,1.22,-2.65,1.22,-1.21,-1.15,-1.13,-3.86,-3.87,-3.87
354.74,-2.66,1.21,-2.66,1.22,-1.22,-1.15,-1.13,-3.87,-3.87,-3.87
358.28,-2.67,1.21,-2.66,1.22,-1.21,-1.15,-1.12,-3.88,-3.88,-3.88
361.87,-2.67,1.22,-2.67,1.21,-1.21,-1.15,-1.12,-3.88,-3.88,-3.88
365.49,-2.68,1.21,-2.68,1.21,-1.21,-1.16,-1.12,-3.89,-3.89,-3.88
369.14,-2.68,1.21,-2.68,1.21,-1.21,-1.16,-1.11,-3.89,-3.89,-3.89
372.83,-2.68,1.21,-2.68,1.21,-1.21,-1.17,-1.11,-3.89,-3.89,-3.89
376.56,-2.67,1.21,-2.67,1.21,-1.21,-1.17,-1.11,-3.88,-3.88,-3.88
380.33,-2.67,1.21,-2.67,1.21,-1.21,-1.17,-1.12,-3.88,-3.88,-3.88
384.13,-2.66,1.22,-2.66,1.22,-1.22,-1.18,-1.12,-3.88,-3.88,-3.88
387.97,-2.65,1.22,-2.65,1.22,-1.23,-1.18,-1.12,-3.87,-3.88,-3.87
391.85,-2.64,1.23,-2.63,1.23,-1.24,-1.19,-1.12,-3.87,-3.87,-3.87
395.77,-2.62,1.25,-2.62,1.25,-1.25,-1.19,-1.13,-3.87,-3.87,-3.86
399.73,-2.59,1.27,-2.59,1.27,-1.27,-1.20,-1.13,-3.85,-3.86,-3.85
403.72,-2.57,1.29,-2.57,1.28,-1.28,-1.20,-1.14,-3.85,-3.85,-3.85
407.76,-2.54,1.31,-2.54,1.30,-1.30,-1.21,-1.15,-3.84,-3.84,-3.85
411.84,-2.52,1.32,-2.51,1.32,-1.33,-1.21,-1.15,-3.84,-3.84,-3.84
415.96,-2.48,1.35,-2.48,1.35,-1.35,-1.22,-1.16,-3.83,-3.83,-3.83
420.12,-2.45,1.38,-2.45,1.38,-1.38,-1.23,-1.17,-3.83,-3.83,-3.83
424.32,-2.41,1.41,-2.41,1.41,-1.41,-1.23,-1.18,-3.82,-3.82,-3.82
428.56,-2.38,1.43,-2.38,1.43,-1.44,-1.24,-1.19,-3.82,-3.82,-3.81
432.85,-2.34,1.46,-2.34,1.46,-1.47,-1.25,-1.20,-3.80,-3.80,-3.80
437.18,-2.30,1.49,-2.30,1.49,-1.49,-1.25,-1.21,-3.79,-3.79,-3.79
