frequency,raw,error,smoothed,error_smoothed,equalization,parametric_eq,fixed_band_eq,equalized_raw,equalized_smoothed,target
20.00,-1.96,-5.91,-1.96,-5.91,5.91,5.21,1.64,3.94,3.94,3.94
20.20,-1.87,-5.82,-1.87,-5.82,5.82,5.23,1.69,3.95,3.95,3.94
20.40,-1.78,-5.74,-1.78,-5.73,5.73,5.25,1.74,3.95,3.95,3.95
20.61,-1.68,-5.65,-1.69,-5.65,5.65,5.26,1.79,3.96,3.96,3.96
20.81,-1.59,-5.56,-1.59,-5.56,5.56,5.26,1.84,3.97,3.97,3.96
21.02,-1.50,-5.48,-1.50,-5.47,5.48,5.26,1.90,3.97,3.98,3.97
21.23,-1.41,-5.39,-1.42,-5.39,5.39,5.25,1.96,3.98,3.98,3.97
21.44,-1.33,-5.31,-1.33,-5.31,5.31,5.23,2.01,3.98,3.98,3.98
21.66,-1.24,-5.24,-1.24,-5.23,5.23,5.21,2.07,3.98,3.99,3.99
21.87,-1.15,-5.14,-1.15,-5.15,5.15,5.18,2.13,4.00,3.99,3.99
22.09,-1.06,-5.06,-1.07,-5.07,5.07,5.14,2.20,4.00,4.00,4.00
22.31,-0.98,-4.99,-0.98,-4.99,4.99,5.10,2.26,4.00,4.01,4.01
22.54,-0.89,-4.91,-0.89,-4.91,4.91,5.05,2.33,4.01,4.01,4.01
22.76,-0.80,-4.82,-0.80,-4.83,4.83,5.00,2.40,4.03,4.02,4.02
22.99,-0.71,-4.74,-0.72,-4.75,4.75,4.94,2.47,4.04,4.04,4.03
23.22,-0.63,-4.67,-0.63,-4.67,4.68,4.88,2.54,4.04,4.04,4.04
23.45,-0.55,-4.60,-0.55,-4.60,4.60,4.81,2.61,4.05,4.05,4.05
23.69,-0.47,-4.53,-0.47,-4.53,4.53,4.74,2.69,4.06,4.06,4.06
23.92,-0.39,-4.46,-0.39,-4.46,4.46,4.67,2.76,4.07,4.07,4.07
24.16,-0.31,-4.39,-0.31,-4.39,4.39,4.60,2.84,4.08,4.08,4.08
24.40,-0.23,-4.32,-0.23,-4.32,4.32,4.52,2.92,4.09,4.09,4.09
24.65,-0.14,-4.25,-0.15,-4.25,4.25,4.45,3.00,4.11,4.10,4.11
24.89,-0.06,-4.18,-0.07,-4.18,4.18,4.37,3.08,4.12,4.12,4.12
25.14,0.01,-4.12,0.01,-4.11,4.12,4.29,3.16,4.12,4.13,4.13
25.39,0.09,-4.05,0.09,-4.05,4.05,4.21,3.24,4.14,4.14,4.14
25.65,0.17,-3.98,0.16,-3.99,3.98,4.13,3.32,4.15,4.15,4.15
25.91,0.24,-3.93,0.24,-3.92,3.92,4.05,3.40,4.16,4.16,4.16
26.16,0.32,-3.86,0.31,-3.86,3.86,3.97,3.49,4.18,4.17,4.17
26.43,0.39,-3.80,0.39,-3.80,3.80,3.89,3.57,4.18,4.18,4.18
26.69,0.46,-3.74,0.46,-3.73,3.74,3.82,3.65,4.19,4.20,4.19
26.96,0.54,-3.68,0.53,-3.68,3.68,3.74,3.73,4.22,4.21,4.21
27.23,0.61,-3.62,0.60,-3.62,3.62,3.67,3.80,4.23,4.23,4.22
27.50,0.67,-3.57,0.67,-3.57,3.57,3.59,3.88,4.24,4.24,4.24
27.77,0.74,-3.51,0.73,-3.52,3.52,3.52,3.95,4.25,4.25,4.25
28.05,0.80,-3.47,0.80,-3.47,3.47,3.45,4.02,4.26,4.26,4.27
28.33,0.86,-3.42,0.86,-3.42,3.42,3.39,4.09,4.28,4.28,4.28
28.62,0.93,-3.37,0.92,-3.37,3.37,3.32,4.15,4.30,4.29,4.30
28.90,0.99,-3.32,0.98,-3.33,3.33,3.26,4.21,4.31,4.31,4.31
29.19,1.04,-3.29,1.04,-3.28,3.28,3.20,4.26,4.32,4.33,4.33
29.48,1.10,-3.24,1.10,-3.24,3.24,3.14,4.31,4.34,4.34,4.34
29.78,1.15,-3.21,1.15,-3.21,3.21,3.08,4.35,4.35,4.35,4.35
30.08,1.20,-3.17,1.19,-3.17,3.17,3.03,4.39,4.37,4.37,4.36
30.38,1.24,-3.15,1.24,-3.14,3.14,2.98,4.42,4.38,4.38,4.38
30.68,1.29,-3.10,1.29,-3.11,3.11,2.93,4.45,4.40,4.39,4.39
30.99,1.33,-3.08,1.33,-3.08,3.08,2.88,4.46,4.41,4.41,4.41
31.30,1.37,-3.05,1.37,-3.06,3.06,2.84,4.48,4.42,4.42,4.42
31.61,1.40,-3.04,1.40,-3.04,3.03,2.80,4.48,4.43,4.43,4.44
31.93,1.44,-3.01,1.43,-3.01,3.01,2.76,4.48,4.45,4.45,4.45
32.24,1.47,-3.00,1.47,-3.00,3.00,2.73,4.47,4.46,4.46,4.47
32.57,1.50,-2.98,1.50,-2.98,2.98,2.70,4.46,4.48,4.48,4.47
32.89,1.53,-2.97,1.52,-2.97,2.97,2.67,4.44,4.49,4.49,4.49
33.22,1.55,-2.95,1.55,-2.96,2.96,2.64,4.42,4.50,4.50,4.50
33.55,1.57,-2.95,1.57,-2.95,2.95,2.62,4.39,4.51,4.52,4.52
33.89,1.59,-2.94,1.59,-2.94,2.94,2.60,4.36,4.53,4.53,4.53
34.23,1.61,-2.94,1.60,-2.94,2.94,2.58,4.32,4.55,4.54,4.55
34.57,1.62,-2.94,1.62,-2.94,2.94,2.57,4.28,4.56,4.56,4.55
34.92,1.63,-2.94,1.63,-2.94,2.94,2.56,4.23,4.57,4.57,4.56
35.27,1.63,-2.95,1.63,-2.95,2.95,2.55,4.18,4.57,4.58,4.58
35.62,1.64,-2.95,1.64,-2.95,2.95,2.55,4.13,4.59,4.59,4.59
35.97,1.64,-2.96,1.64,-2.96,2.96,2.55,4.08,4.60,4.60,4.60
36.33,1.64,-2.97,1.64,-2.97,2.97,2.55,4.02,4.61,4.61,4.60
36.70,1.63,-2.98,1.63,-2.98,2.98,2.56,3.97,4.61,4.61,4.61
37.06,1.63,-2.99,1.62,-2.99,3.00,2.57,3.91,4.62,4.62,4.62
37.43,1.62,-3.01,1.62,-3.01,3.01,2.58,3.85,4.63,4.63,4.63
37.81,1.61,-3.03,1.61,-3.03,3.03,2.60,3.80,4.63,4.63,4.63
38.19,1.60,-3.04,1.60,-3.04,3.04,2.63,3.74,4.64,4.64,4.64
38.57,1.59,-3.06,1.59,-3.06,3.06,2.66,3.68,4.65,4.65,4.65
38.95,1.58,-3.08,1.58,-3.08,3.08,2.69,3.63,4.66,4.66,4.66
39.34,1.57,-3.10,1.56,-3.10,3.10,2.72,3.58,4.66,4.66,4.66
39.74,1.55,-3.12,1.55,-3.12,3.12,2.77,3.52,4.67,4.67,4.67
40.14,1.53,-3.14,1.53,-3.14,3.14,2.81,3.47,4.67,4.67,4.67
40.54,1.52,-3.16,1.51,-3.16,3.16,2.86,3.42,4.68,4.68,4.67
40.94,1.50,-3.18,1.50,-3.18,3.19,2.91,3.38,4.68,4.68,4.68
41.35,1.48,-3.21,1.48,-3.21,3.21,2.97,3.33,4.69,4.69,4.69
41.76,1.46,-3.24,1.46,-3.24,3.24,3.03,3.29,4.69,4.69,4.69
42.18,1.44,-3.26,1.44,-3.26,3.26,3.10,3.25,4.70,4.70,4.70
42.60,1.42,-3.29,1.42,-3.29,3.29,3.16,3.21,4.70,4.70,4.70
43.03,1.40,-3.31,1.40,-3.31,3.31,3.23,3.17,4.71,4.71,4.71
43.46,1.39,-3.33,1.38,-3.33,3.33,3.30,3.14,4.72,4.72,4.72
43.90,1.37,-3.35,1.37,-3.36,3.35,3.37,3.11,4.72,4.72,4.72
44.33,1.36,-3.38,1.36,-3.38,3.38,3.44,3.08,4.73,4.73,4.74
44.78,1.35,-3.39,1.35,-3.40,3.40,3.51,3.05,4.74,4.74,4.74
45.23,1.34,-3.41,1.34,-3.41,3.42,3.58,3.03,4.75,4.75,4.75
45.68,1.33,-3.43,1.33,-3.43,3.43,3.64,3.01,4.76,4.76,4.76
46.13,1.32,-3.45,1.32,-3.45,3.45,3.69,2.99,4.77,4.77,4.77
46.60,1.31,-3.47,1.31,-3.47,3.47,3.74,2.97,4.78,4.78,4.78
47.06,1.30,-3.49,1.30,-3.49,3.49,3.78,2.96,4.79,4.79,4.78
47.53,1.29,-3.51,1.29,-3.51,3.50,3.80,2.95,4.79,4.80,4.80
48.01,1.29,-3.52,1.29,-3.52,3.52,3.82,2.94,4.80,4.80,4.80
48.49,1.29,-3.53,1.28,-3.53,3.53,3.82,2.93,4.82,4.81,4.82
48.97,1.28,-3.54,1.28,-3.54,3.54,3.81,2.92,4.81,4.82,4.82
49.46,1.28,-3.55,1.28,-3.55,3.54,3.78,2.92,4.82,4.82,4.83
49.96,1.29,-3.55,1.28,-3.55,3.55,3.74,2.92,4.83,4.83,4.83
50.46,1.29,-3.55,1.29,-3.55,3.55,3.69,2.91,4.84,4.84,4.84
50.96,1.30,-3.55,1.30,-3.55,3.55,3.63,2.91,4.85,4.85,4.85
51.47,1.30,-3.55,1.30,-3.55,3.56,3.55,2.91,4.86,4.85,4.85
51.99,1.30,-3.55,1.30,-3.56,3.56,3.46,2.91,4.86,4.86,4.85
52.51,1.29,-3.57,1.29,-3.56,3.57,3.37,2.92,4.86,4.86,4.85
53.03,1.29,-3.57,1.29,-3.57,3.57,3.26,2.92,4.86,4.86,4.85
53.56,1.28,-3.59,1.28,-3.58,3.58,3.16,2.92,4.86,4.86,4.86
54.10,1.28,-3.59,1.27,-3.59,3.59,3.04,2.92,4.86,4.86,4.86
54.64,1.27,-3.60,1.27,-3.59,3.59,2.93,2.92,4.86,4.86,4.86
55.18,1.27,-3.59,1.27,-3.59,3.59,2.81,2.92,4.86,4.86,4.85
55.74,1.28,-3.58,1.27,-3.58,3.58,2.70,2.92,4.86,4.86,4.85
56.29,1.28,-3.58,1.28,-3.57,3.58,2.58,2.91,4.85,4.85,4.85
56.86,1.28,-3.56,1.28,-3.56,3.56,2.46,2.91,4.84,4.84,4.84
57.42,1.29,-3.55,1.29,-3.55,3.55,2.35,2.90,4.83,4.84,4.84
58.00,1.31,-3.52,1.30,-3.52,3.52,2.24,2.89,4.83,4.83,4.83
58.58,1.33,-3.50,1.33,-3.50,3.50,2.13,2.87,4.82,4.82,4.82
59.16,1.35,-3.46,1.35,-3.46,3.46,2.03,2.86,4.81,4.81,4.81
59.76,1.38,-3.42,1.38,-3.42,3.42,1.93,2.84,4.80,4.80,4.80
60.35,1.41,-3.38,1.41,-3.37,3.38,1.83,2.81,4.78,4.78,4.78
60.96,1.45,-3.32,1.45,-3.32,3.32,1.73,2.78,4.77,4.77,4.77
61.57,1.50,-3.26,1.49,-3.26,3.26,1.64,2.75,4.76,4.75,4.75
62.18,1.55,-3.19,1.55,-3.19,3.19,1.55,2.72,4.74,4.74,4.74
62.80,1.61,-3.11,1.61,-3.11,3.11,1.47,2.68,4.72,4.72,4.72
63.43,1.68,-3.03,1.68,-3.03,3.02,1.39,2.63,4.70,4.70,4.71
64.07,1.76,-2.92,1.76,-2.92,2.92,1.31,2.58,4.68,4.68,4.68
64.71,1.85,-2.81,1.85,-2.81,2.82,1.23,2.53,4.66,4.66,4.66
65.35,1.95,-2.70,1.94,-2.70,2.70,1.16,2.47,4.65,4.64,4.64
66.01,2.05,-2.58,2.05,-2.58,2.57,1.09,2.41,4.62,4.62,4.62
66.67,2.16,-2.45,2.16,-2.45,2.44,1.02,2.34,4.60,4.60,4.61
67.33,2.28,-2.31,2.27,-2.31,2.30,0.96,2.27,4.58,4.58,4.59
68.01,2.40,-2.16,2.40,-2.16,2.16,0.90,2.20,4.55,4.56,4.56
68.69,2.53,-2.01,2.53,-2.01,2.01,0.83,2.12,4.54,4.54,4.53
69.37,2.66,-1.86,2.66,-1.86,1.86,0.78,2.04,4.52,4.52,4.51
70.07,2.79,-1.71,2.79,-1.70,1.70,0.72,1.96,4.49,4.49,4.49
70.77,2.93,-1.54,2.92,-1.55,1.55,0.66,1.87,4.48,4.47,4.47
71.48,3.05,-1.40,3.05,-1.40,1.40,0.61,1.78,4.44,4.45,4.45
72.19,3.18,-1.25,3.18,-1.25,1.25,0.55,1.69,4.42,4.43,4.42
72.91,3.31,-1.10,3.31,-1.10,1.10,0.50,1.60,4.41,4.41,4.41
73.64,3.44,-0.95,3.43,-0.95,0.95,0.45,1.51,4.39,4.39,4.38
74.38,3.56,-0.81,3.55,-0.81,0.81,0.40,1.41,4.37,4.37,4.37
75.12,3.67,-0.68,3.67,-0.68,0.67,0.35,1.31,4.34,4.34,4.34
75.87,3.78,-0.55,3.78,-0.54,0.54,0.30,1.21,4.32,4.32,4.33
76.63,3.90,-0.41,3.90,-0.41,0.41,0.25,1.11,4.31,4.31,4.31
77.40,4.01,-0.28,4.01,-0.29,0.29,0.21,1.01,4.30,4.30,4.29
78.17,4.11,-0.17,4.11,-0.17,0.18,0.16,0.91,4.28,4.28,4.27
78.95,4.20,-0.06,4.20,-0.06,0.06,0.11,0.81,4.26,4.26,4.25
79.74,4.28,0.04,4.28,0.04,-0.05,0.06,0.71,4.23,4.23,4.23
80.54,4.36,0.14,4.36,0.14,-0.16,0.02,0.60,4.20,4.20,4.21
81.35,4.44,0.24,4.44,0.25,-0.26,-0.03,0.50,4.18,4.18,4.19
82.16,4.53,0.36,4.53,0.35,-0.36,-0.08,0.39,4.17,4.17,4.17
82.98,4.62,0.47,4.61,0.46,-0.46,-0.12,0.29,4.16,4.15,4.15
83.81,4.69,0.56,4.69,0.57,-0.55,-0.17,0.18,4.13,4.14,4.13
84.65,4.77,0.66,4.76,0.66,-0.65,-0.22,0.07,4.12,4.11,4.10
85.50,4.83,0.75,4.82,0.74,-0.74,-0.27,-0.03,4.09,4.08,4.08
86.35,4.88,0.82,4.88,0.83,-0.83,-0.32,-0.14,4.05,4.06,4.06
87.22,4.94,0.90,4.94,0.90,-0.91,-0.37,-0.25,4.03,4.03,4.03
88.09,5.00,0.99,5.00,0.98,-0.99,-0.42,-0.35,4.01,4.01,4.01
88.97,5.06,1.06,5.06,1.07,-1.07,-0.47,-0.46,3.99,3.99,3.99
89.86,5.11,1.14,5.11,1.14,-1.14,-0.53,-0.57,3.96,3.97,3.97
90.76,5.17,1.23,5.16,1.22,-1.22,-0.58,-0.68,3.95,3.95,3.94
91.66,5.21,1.28,5.21,1.29,-1.29,-0.64,-0.79,3.92,3.92,3.92
92.58,5.26,1.36,5.26,1.36,-1.36,-0.69,-0.90,3.90,3.90,3.90
93.51,5.30,1.43,5.30,1.42,-1.42,-0.75,-1.01,3.87,3.87,3.87
94.44,5.34,1.48,5.34,1.49,-1.49,-0.81,-1.12,3.85,3.85,3.85
95.39,5.38,1.55,5.38,1.55,-1.54,-0.87,-1.23,3.83,3.83,3.82
96.34,5.41,1.60,5.41,1.60,-1.60,-0.94,-1.34,3.81,3.81,3.81
97.30,5.44,1.66,5.43,1.65,-1.65,-1.00,-1.45,3.79,3.78,3.78
98.28,5.45,1.70,5.45,1.70,-1.70,-1.07,-1.56,3.75,3.75,3.75
99.26,5.46,1.74,5.47,1.74,-1.74,-1.14,-1.67,3.71,3.72,3.72
100.25,5.49,1.79,5.48,1.78,-1.79,-1.21,-1.78,3.70,3.69,3.70
101.25,5.51,1.83,5.51,1.83,-1.84,-1.29,-1.89,3.67,3.67,3.67
102.27,5.53,1.88,5.53,1.89,-1.89,-1.37,-1.99,3.64,3.64,3.64
103.29,5.55,1.94,5.55,1.94,-1.94,-1.45,-2.10,3.61,3.61,3.60
104.32,5.57,1.99,5.57,1.99,-1.99,-1.53,-2.21,3.57,3.58,3.57
105.37,5.60,2.05,5.59,2.05,-2.05,-1.61,-2.31,3.54,3.54,3.54
106.42,5.62,2.11,5.62,2.11,-2.12,-1.70,-2.41,3.50,3.50,3.51
107.48,5.64,2.17,5.64,2.18,-2.19,-1.79,-2.51,3.45,3.46,3.47
108.56,5.68,2.25,5.68,2.25,-2.26,-1.88,-2.61,3.42,3.42,3.43
109.64,5.72,2.33,5.72,2.33,-2.34,-1.97,-2.70,3.38,3.38,3.39
110.74,5.76,2.41,5.76,2.41,-2.41,-2.06,-2.79,3.34,3.34,3.35
111.85,5.80,2.49,5.80,2.49,-2.49,-2.16,-2.88,3.31,3.31,3.31
112.97,5.84,2.58,5.83,2.57,-2.56,-2.25,-2.96,3.28,3.27,3.26
114.10,5.86,2.63,5.86,2.64,-2.62,-2.35,-3.04,3.23,3.23,3.22
115.24,5.87,2.69,5.87,2.69,-2.67,-2.45,-3.11,3.19,3.19,3.17
116.39,5.86,2.72,5.86,2.73,-2.72,-2.54,-3.18,3.14,3.15,3.14
117.55,5.85,2.76,5.84,2.75,-2.74,-2.64,-3.24,3.10,3.10,3.09
118.73,5.82,2.77,5.81,2.77,-2.76,-2.73,-3.29,3.05,3.05,3.05
119.92,5.78,2.77,5.78,2.77,-2.77,-2.82,-3.34,3.00,3.00,3.00
121.12,5.74,2.77,5.74,2.77,-2.78,-2.91,-3.38,2.96,2.96,2.97
122.33,5.71,2.78,5.71,2.78,-2.78,-2.99,-3.42,2.93,2.93,2.93
123.55,5.68,2.78,5.67,2.78,-2.78,-3.06,-3.44,2.90,2.89,2.90
124.79,5.64,2.78,5.64,2.78,-2.78,-3.13,-3.46,2.86,2.86,2.86
126.03,5.60,2.77,5.60,2.78,-2.79,-3.19,-3.47,2.81,2.82,2.82
127.29,5.58,2.79,5.57,2.78,-2.79,-3.24,-3.48,2.78,2.78,2.79
128.57,5.56,2.80,5.55,2.80,-2.81,-3.28,-3.47,2.75,2.75,2.76
129.85,5.54,2.81,5.54,2.82,-2.82,-3.31,-3.46,2.71,2.72,2.72
131.15,5.54,2.85,5.53,2.84,-2.84,-3.33,-3.44,2.70,2.69,2.69
132.46,5.53,2.87,5.53,2.87,-2.86,-3.34,-3.42,2.66,2.66,2.66
133.79,5.52,2.88,5.52,2.89,-2.89,-3.34,-3.39,2.63,2.63,2.63
135.12,5.51,2.90,5.51,2.90,-2.91,-3.33,-3.35,2.60,2.60,2.60
136.48,5.50,2.92,5.49,2.92,-2.92,-3.30,-3.31,2.57,2.57,2.57
137.84,5.48,2.93,5.48,2.94,-2.94,-3.27,-3.26,2.54,2.55,2.54
139.22,5.47,2.95,5.47,2.95,-2.94,-3.23,-3.21,2.52,2.52,2.51
140.61,5.45,2.96,5.44,2.95,-2.94,-3.17,-3.15,2.50,2.50,2.48
142.02,5.41,2.94,5.41,2.95,-2.94,-3.12,-3.09,2.46,2.47,2.46
143.44,5.37,2.93,5.37,2.93,-2.93,-3.05,-3.02,2.43,2.43,2.44
144.87,5.32,2.91,5.32,2.91,-2.92,-2.98,-2.96,2.39,2.40,2.41
146.32,5.28,2.90,5.28,2.90,-2.91,-2.90,-2.89,2.37,2.37,2.37
147.78,5.24,2.89,5.24,2.89,-2.89,-2.82,-2.82,2.35,2.35,2.35
149.26,5.20,2.88,5.19,2.87,-2.86,-2.74,-2.75,2.33,2.33,2.32
150.75,5.13,2.83,5.13,2.84,-2.84,-2.65,-2.67,2.29,2.29,2.30
152.26,5.08,2.81,5.08,2.81,-2.81,-2.57,-2.60,2.26,2.26,2.27
153.78,5.02,2.78,5.02,2.78,-2.78,-2.48,-2.52,2.23,2.24,2.24
155.32,4.98,2.76,4.97,2.75,-2.75,-2.39,-2.45,2.22,2.22,2.21
156.88,4.91,2.71,4.91,2.72,-2.72,-2.31,-2.37,2.19,2.19,2.19
158.44,4.86,2.69,4.85,2.68,-2.68,-2.22,-2.29,2.18,2.17,2.17
160.03,4.78,2.64,4.78,2.64,-2.64,-2.14,-2.22,2.14,2.14,2.14
161.63,4.71,2.59,4.72,2.60,-2.60,-2.06,-2.14,2.11,2.12,2.12
163.24,4.66,2.57,4.64,2.55,-2.55,-1.98,-2.07,2.11,2.09,2.09
164.88,4.56,2.49,4.57,2.50,-2.50,-1.91,-2.00,2.06,2.07,2.07
166.53,4.48,2.44,4.48,2.44,-2.44,-1.83,-1.92,2.03,2.04,2.04
168.19,4.41,2.40,4.39,2.38,-2.39,-1.76,-1.85,2.02,2.01,2.01
169.87,4.31,2.32,4.32,2.34,-2.33,-1.69,-1.78,1.98,1.99,1.98
171.57,4.23,2.27,4.23,2.27,-2.27,-1.62,-1.71,1.95,1.95,1.95
173.29,4.15,2.22,4.13,2.20,-2.21,-1.56,-1.65,1.93,1.92,1.93
175.02,4.02,2.12,4.04,2.14,-2.15,-1.50,-1.58,1.87,1.89,1.90
176.77,3.95,2.08,3.95,2.08,-2.08,-1.44,-1.51,1.86,1.86,1.86
178.54,3.87,2.03,3.86,2.03,-2.01,-1.39,-1.45,1.85,1.85,1.84
180.32,3.78,1.97,3.77,1.96,-1.94,-1.33,-1.38,1.84,1.83,1.80
182.13,3.67,1.89,3.65,1.88,-1.86,-1.28,-1.32,1.80,1.79,1.78
183.95,3.51,1.76,3.53,1.78,-1.79,-1.23,-1.26,1.72,1.74,1.74
185.79,3.41,1.70,3.41,1.69,-1.70,-1.18,-1.20,1.70,1.70,1.71
187.65,3.30,1.61,3.29,1.61,-1.62,-1.14,-1.14,1.68,1.67,1.69
189.52,3.19,1.53,3.19,1.53,-1.53,-1.10,-1.09,1.65,1.65,1.65
191.42,3.08,1.45,3.07,1.45,-1.45,-1.06,-1.03,1.63,1.63,1.62
193.33,2.96,1.37,2.96,1.37,-1.36,-1.02,-0.98,1.59,1.60,1.59
195.27,2.85,1.28,2.85,1.28,-1.28,-0.98,-0.92,1.57,1.57,1.57
197.22,2.74,1.20,2.74,1.20,-1.20,-0.95,-0.87,1.54,1.53,1.54
199.19,2.63,1.12,2.62,1.12,-1.12,-0.91,-0.82,1.51,1.50,1.51
201.18,2.51,1.04,2.51,1.04,-1.04,-0.88,-0.77,1.47,1.47,1.47
203.19,2.40,0.96,2.40,0.96,-0.96,-0.85,-0.72,1.44,1.44,1.44
205.23,2.29,0.88,2.29,0.88,-0.88,-0.82,-0.67,1.41,1.40,1.41
207.28,2.18,0.80,2.18,0.80,-0.80,-0.79,-0.62,1.38,1.38,1.38
209.35,2.07,0.72,2.07,0.73,-0.72,-0.77,-0.58,1.34,1.35,1.35
211.44,1.97,0.66,1.96,0.65,-0.65,-0.74,-0.53,1.32,1.31,1.31
213.56,1.86,0.58,1.85,0.58,-0.58,-0.72,-0.49,1.28,1.28,1.28
215.69,1.75,0.51,1.74,0.50,-0.51,-0.69,-0.45,1.24,1.24,1.24
217.85,1.63,0.42,1.64,0.43,-0.44,-0.67,-0.41,1.19,1.20,1.20
220.03,1.55,0.37,1.54,0.37,-0.37,-0.65,-0.37,1.17,1.17,1.18
222.23,1.46,0.31,1.45,0.31,-0.31,-0.63,-0.33,1.15,1.15,1.15
224.45,1.37,0.26,1.36,0.25,-0.24,-0.61,-0.30,1.12,1.12,1.11
226.70,1.28,0.19,1.27,0.19,-0.18,-0.59,-0.26,1.09,1.09,1.08
228.96,1.18,0.12,1.19,0.13,-0.13,-0.58,-0.23,1.05,1.06,1.06
231.25,1.12,0.09,1.11,0.07,-0.07,-0.56,-0.19,1.04,1.03,1.03
233.57,1.04,0.02,1.03,0.02,-0.03,-0.54,-0.16,1.01,1.00,1.01
235.90,0.95,-0.04,0.96,-0.03,0.02,-0.53,-0.13,0.97,0.98,0.99
238.26,0.91,-0.07,0.90,-0.07,0.06,-0.51,-0.11,0.96,0.96,0.97
240.64,0.86,-0.10,0.86,-0.10,0.09,-0.50,-0.08,0.95,0.95,0.96
243.05,0.83,-0.12,0.83,-0.12,0.12,-0.49,-0.05,0.95,0.95,0.94
245.48,0.80,-0.13,0.79,-0.14,0.14,-0.47,-0.03,0.94,0.93,0.93
247.93,0.75,-0.17,0.75,-0.16,0.17,-0.46,-0.01,0.91,0.92,0.91
250.41,0.72,-0.18,0.71,-0.18,0.19,-0.45,0.01,0.90,0.90,0.90
252.92,0.67,-0.22,0.68,-0.21,0.21,-0.44,0.03,0.88,0.89,0.88
255.45,0.65,-0.22,0.64,-0.23,0.23,-0.43,0.05,0.88,0.87,0.87
258.00,0.61,-0.25,0.60,-0.25,0.26,-0.42,0.06,0.86,0.86,0.85
260.58,0.57,-0.28,0.57,-0.28,0.28,-0.41,0.08,0.85,0.85,0.85
263.19,0.53,-0.31,0.53,-0.31,0.30,-0.40,0.09,0.83,0.83,0.84
265.82,0.49,-0.34,0.49,-0.33,0.32,-0.39,0.10,0.81,0.82,0.82
268.48,0.47,-0.34,0.47,-0.34,0.34,-0.38,0.11,0.81,0.81,0.81
271.16,0.45,-0.35,0.44,-0.36,0.36,-0.37,0.12,0.81,0.80,0.79
273.87,0.41,-0.37,0.41,-0.37,0.38,-0.37,0.13,0.78,0.79,0.78
276.61,0.38,-0.39,0.38,-0.39,0.39,-0.36,0.14,0.77,0.77,0.77
279.38,0.36,-0.40,0.36,-0.40,0.39,-0.35,0.15,0.75,0.75,0.76
282.17,0.35,-0.40,0.34,-0.40,0.39,-0.35,0.15,0.74,0.73,0.74
284.99,0.33,-0.40,0.33,-0.40,0.39,-0.34,0.16,0.72,0.72,0.73
287.84,0.32,-0.40,0.32,-0.39,0.38,-0.33,0.16,0.70,0.70,0.72
290.72,0.33,-0.38,0.33,-0.38,0.37,-0.33,0.16,0.70,0.70,0.70
293.63,0.34,-0.35,0.34,-0.35,0.36,-0.32,0.17,0.69,0.69,0.69
296.57,0.35,-0.33,0.35,-0.33,0.34,-0.32,0.17,0.69,0.69,0.68
299.53,0.35,-0.32,0.34,-0.32,0.33,-0.31,0.17,0.68,0.68,0.67
302.53,0.34,-0.32,0.34,-0.31,0.32,-0.31,0.17,0.66,0.66,0.65
305.55,0.32,-0.31,0.32,-0.32,0.32,-0.30,0.18,0.64,0.64,0.63
308.61,0.30,-0.32,0.30,-0.32,0.32,-0.30,0.18,0.62,0.62,0.62
311.69,0.27,-0.34,0.27,-0.33,0.33,-0.30,0.18,0.60,0.60,0.61
314.81,0.25,-0.34,0.25,-0.34,0.34,-0.29,0.18,0.59,0.59,0.59
317.96,0.22,-0.36,0.22,-0.36,0.36,-0.29,0.18,0.58,0.58,0.57
321.14,0.19,-0.37,0.18,-0.37,0.37,-0.28,0.18,0.56,0.56,0.55
324.35,0.15,-0.39,0.15,-0.39,0.39,-0.28,0.18,0.54,0.54,0.54
327.59,0.11,-0.41,0.11,-0.41,0.41,-0.28,0.19,0.51,0.52,0.52
330.87,0.09,-0.42,0.08,-0.42,0.42,-0.28,0.19,0.51,0.50,0.51
334.18,0.06,-0.43,0.06,-0.43,0.43,-0.27,0.19,0.49,0.49,0.49
337.52,0.03,-0.45,0.03,-0.44,0.44,-0.27,0.19,0.46,0.47,0.47
340.90,0.02,-0.44,0.01,-0.44,0.44,-0.27,0.19,0.45,0.45,0.45
344.30,-0.00,-0.44,-0.00,-0.44,0.43,-0.27,0.19,0.43,0.43,0.44
347.75,-0.01,-0.43,-0.01,-0.43,0.42,-0.27,0.20,0.41,0.41,0.42
351.23,-0.00,-0.40,-0.01,-0.41,0.41,-0.26,0.20,0.40,0.40,0.40
354.74,-0.00,-0.39,-0.00,-0.38,0.39,-0.26,0.20,0.39,0.39,0.39
358.28,0.01,-0.36,0.00,-0.36,0.37,-0.26,0.20,0.38,0.37,0.37
361.87,0.01,-0.34,0.01,-0.34,0.35,-0.26,0.21,0.36,0.36,0.35
365.49,0.01,-0.33,0.01,-0.32,0.33,-0.26,0.21,0.33,0.34,0.33
369.14,0.01,-0.31,0.01,-0.31,0.31,-0.26,0.21,0.31,0.31,0.31
372.83,0.01,-0.30,0.01,-0.29,0.29,-0.26,0.22,0.30,0.30,0.30
376.56,0.01,-0.27,0.01,-0.27,0.27,-0.26,0.22,0.28,0.28,0.28
380.33,0.01,-0.25,0.01,-0.26,0.26,-0.26,0.23,0.26,0.26,0.26
384.13,0.01,-0.24,0.01,-0.24,0.24,-0.26,0.23,0.25,0.25,0.25
387.97,0.01,-0.22,0.01,-0.22,0.23,-0.26,0.24,0.23,0.23,0.23
391.85,0.01,-0.21,0.01,-0.21,0.21,-0.26,0.24,0.22,0.22,0.22
395.77,0.01,-0.20,0.01,-0.20,0.20,-0.26,0.25,0.21,0.21,0.21
399.73,0.01,-0.19,0.01,-0.19,0.19,-0.26,0.25,0.20,0.20,0.20
403.72,0.01,-0.18,0.01,-0.18,0.18,-0.26,0.25,0.18,0.18,0.19
407.76,0.01,-0.17,0.01,-0.16,0.16,-0.26,0.26,0.17,0.17,0.17
411.84,0.01,-0.15,0.01,-0.15,0.15,-0.26,0.26,0.16,0.15,0.15
415.96,0.01,-0.14,0.01,-0.14,0.13,-0.26,0.27,0.14,0.14,0.14
420.12,0.01,-0.13,0.01,-0.12,0.12,-0.26,0.27,0.12,0.13,0.13
424.32,0.02,-0.11,0.02,-0.10,0.10,-0.26,0.28,0.12,0.12,0.12
428.56,0.03,-0.08,0.03,-0.08,0.08,-0.26,0.28,0.11,0.11,0.11
432.85,0.04,-0.05,0.03,-0.06,0.07,-0.26,0.29,0.11,0.10,0.09
437.18,0.03,-0.05,0.03,-0.05,0.06,-0.26,0.29,0.08,0.09,0.08
441.55,0.02,-0.05,0.02,-0.05,0.05,-0.27,0.29,0.07,0.07,0.07
445.96,0.01,-0.04,0.01,-0.04,0.05,-0.27,0.30,0.05,0.05,0.05
450.42,-0.01,-0.04,-0.01,-0.05,0.05,-0.27,0.30,0.03,0.03,0.03
454.93,-0.03,-0.05,-0.04,-0.05,0.06,-0.27,0.30,0.02,0.02,0.02
459.48,-0.07,-0.07,-0.07,-0.06,0.07,-0.27,0.30,-0.01,0.00,-0.00
464.07,-0.09,-0.07,-0.10,-0.08,0.08,-0.27,0.30,-0.01,-0.02,-0.02
468.71,-0.13,-0.09,-0.13,-0.09,0.10,-0.28,0.30,-0.04,-0.04,-0.04
473.40,-0.17,-0.12,-0.17,-0.11,0.11,-0.28,0.30,-0.06,-0.06,-0.05
478.13,-0.20,-0.13,-0.20,-0.13,0.13,-0.28,0.30,-0.07,-0.07,-0.07
482.91,-0.23,-0.15,-0.23,-0.15,0.15,-0.28,0.29,-0.09,-0.09,-0.08
487.74,-0.26,-0.16,-0.26,-0.16,0.16,-0.29,0.29,-0.10,-0.10,-0.10
492.62,-0.28,-0.17,-0.28,-0.17,0.17,-0.29,0.28,-0.11,-0.11,-0.11
497.55,-0.30,-0.18,-0.31,-0.18,0.18,-0.29,0.28,-0.12,-0.13,-0.12
502.52,-0.32,-0.19,-0.32,-0.19,0.18,-0.30,0.27,-0.14,-0.14,-0.13
507.55,-0.33,-0.19,-0.33,-0.18,0.17,-0.30,0.26,-0.16,-0.16,-0.15
512.62,-0.33,-0.17,-0.33,-0.17,0.16,-0.30,0.25,-0.17,-0.17,-0.17
517.75,-0.32,-0.15,-0.33,-0.15,0.15,-0.30,0.24,-0.18,-0.18,-0.18
522.93,-0.32,-0.13,-0.32,-0.12,0.13,-0.31,0.23,-0.19,-0.19,-0.20
528.16,-0.31,-0.10,-0.32,-0.10,0.11,-0.31,0.22,-0.20,-0.21,-0.22
533.44,-0.31,-0.08,-0.31,-0.08,0.08,-0.32,0.21,-0.23,-0.23,-0.24
538.77,-0.31,-0.06,-0.31,-0.06,0.06,-0.32,0.19,-0.26,-0.26,-0.26
544.16,-0.31,-0.04,-0.31,-0.03,0.03,-0.32,0.18,-0.28,-0.29,-0.28
