frequency,raw,error,smoothed,error_smoothed,equalization,parametric_eq,fixed_band_eq,equalized_raw,equalized_smoothed,target
20.00,-3.61,-6.82,-3.62,-6.82,6.00,5.58,2.29,2.39,2.38,3.20
20.20,-3.58,-6.79,-3.58,-6.78,6.00,5.62,2.36,2.42,2.42,3.20
20.40,-3.54,-6.75,-3.53,-6.74,6.00,5.67,2.43,2.46,2.47,3.20
20.61,-3.48,-6.69,-3.49,-6.69,6.00,5.71,2.50,2.52,2.51,3.21
20.81,-3.43,-6.64,-3.44,-6.65,6.00,5.75,2.57,2.57,2.56,3.21
21.02,-3.39,-6.60,-3.39,-6.60,6.00,5.79,2.65,2.61,2.61,3.21
21.23,-3.35,-6.56,-3.35,-6.56,6.00,5.83,2.73,2.65,2.65,3.21
21.44,-3.30,-6.51,-3.31,-6.52,6.00,5.87,2.81,2.70,2.69,3.21
21.66,-3.26,-6.48,-3.26,-6.47,6.00,5.90,2.89,2.74,2.74,3.21
21.87,-3.21,-6.43,-3.21,-6.42,6.00,5.93,2.98,2.79,2.79,3.21
22.09,-3.15,-6.37,-3.15,-6.37,6.00,5.96,3.06,2.85,2.85,3.21
22.31,-3.09,-6.31,-3.10,-6.31,6.00,5.98,3.15,2.91,2.90,3.21
22.54,-3.04,-6.26,-3.05,-6.26,6.00,6.00,3.24,2.96,2.95,3.22
22.76,-3.01,-6.23,-3.01,-6.22,6.00,6.02,3.34,2.99,3.00,3.22
22.99,-2.96,-6.18,-2.97,-6.19,6.00,6.04,3.44,3.04,3.04,3.22
23.22,-2.93,-6.15,-2.94,-6.15,6.01,6.05,3.53,3.07,3.07,3.22
23.45,-2.90,-6.12,-2.90,-6.12,6.01,6.06,3.63,3.10,3.10,3.22
23.69,-2.87,-6.10,-2.87,-6.09,6.00,6.07,3.74,3.13,3.14,3.22
23.92,-2.83,-6.06,-2.83,-6.05,6.00,6.08,3.84,3.16,3.17,3.22
24.16,-2.78,-6.01,-2.79,-6.02,5.98,6.08,3.95,3.20,3.19,3.22
24.40,-2.75,-5.98,-2.75,-5.98,5.96,6.08,4.06,3.21,3.21,3.22
24.65,-2.72,-5.95,-2.72,-5.94,5.93,6.08,4.17,3.21,3.21,3.22
24.89,-2.67,-5.90,-2.68,-5.90,5.90,6.07,4.28,3.22,3.22,3.23
25.14,-2.63,-5.86,-2.63,-5.85,5.86,6.06,4.39,3.22,3.23,3.23
25.39,-2.57,-5.80,-2.58,-5.80,5.82,6.05,4.51,3.24,3.24,3.23
25.65,-2.52,-5.75,-2.53,-5.76,5.77,6.04,4.62,3.25,3.24,3.23
25.91,-2.50,-5.73,-2.49,-5.72,5.73,6.02,4.74,3.23,3.24,3.23
26.16,-2.46,-5.69,-2.47,-5.70,5.70,6.00,4.85,3.24,3.23,3.23
26.43,-2.43,-5.66,-2.44,-5.67,5.67,5.98,4.96,3.23,3.23,3.23
26.69,-2.42,-5.66,-2.41,-5.64,5.64,5.96,5.08,3.22,3.23,3.23
26.96,-2.37,-5.61,-2.39,-5.62,5.62,5.93,5.19,3.25,3.23,3.23
27.23,-2.37,-5.61,-2.37,-5.60,5.60,5.90,5.30,3.23,3.23,3.23
27.50,-2.33,-5.57,-2.34,-5.57,5.58,5.87,5.40,3.24,3.24,3.23
27.77,-2.33,-5.57,-2.33,-5.56,5.56,5.84,5.50,3.22,3.23,3.23
28.05,-2.29,-5.53,-2.30,-5.54,5.53,5.80,5.60,3.24,3.23,3.23
28.33,-2.28,-5.52,-2.28,-5.51,5.51,5.77,5.70,3.22,3.23,3.24
28.62,-2.24,-5.48,-2.24,-5.48,5.48,5.73,5.79,3.23,3.24,3.24
28.90,-2.20,-5.44,-2.21,-5.45,5.45,5.69,5.87,3.24,3.23,3.24
29.19,-2.18,-5.42,-2.18,-5.41,5.41,5.65,5.95,3.23,3.24,3.24
29.48,-2.14,-5.38,-2.14,-5.38,5.37,5.61,6.02,3.23,3.23,3.24
29.78,-2.09,-5.33,-2.10,-5.34,5.33,5.57,6.08,3.24,3.23,3.24
30.08,-2.05,-5.29,-2.05,-5.29,5.29,5.52,6.14,3.23,3.24,3.24
30.38,-2.00,-5.24,-2.01,-5.24,5.24,5.48,6.18,3.24,3.24,3.24
30.68,-1.96,-5.20,-1.96,-5.20,5.20,5.43,6.22,3.24,3.24,3.24
30.99,-1.91,-5.15,-1.92,-5.15,5.16,5.38,6.25,3.25,3.24,3.24
31.30,-1.87,-5.11,-1.87,-5.11,5.12,5.34,6.27,3.25,3.25,3.24
31.61,-1.83,-5.07,-1.83,-5.07,5.08,5.29,6.28,3.25,3.25,3.24
31.93,-1.80,-5.04,-1.81,-5.04,5.05,5.24,6.28,3.24,3.24,3.24
32.24,-1.77,-5.01,-1.78,-5.02,5.01,5.19,6.28,3.24,3.23,3.24
32.57,-1.76,-5.00,-1.75,-4.99,4.98,5.14,6.26,3.22,3.23,3.24
32.89,-1.72,-4.96,-1.72,-4.96,4.96,5.09,6.24,3.24,3.24,3.24
33.22,-1.68,-4.92,-1.69,-4.93,4.93,5.05,6.21,3.25,3.25,3.24
33.55,-1.65,-4.89,-1.66,-4.90,4.91,5.00,6.17,3.26,3.25,3.24
33.89,-1.64,-4.88,-1.64,-4.88,4.89,4.95,6.12,3.24,3.24,3.24
34.23,-1.64,-4.88,-1.63,-4.86,4.86,4.90,6.07,3.22,3.23,3.24
34.57,-1.59,-4.83,-1.60,-4.84,4.83,4.85,6.02,3.24,3.23,3.24
34.92,-1.57,-4.81,-1.58,-4.81,4.80,4.81,5.96,3.23,3.23,3.24
35.27,-1.54,-4.78,-1.54,-4.78,4.77,4.76,5.89,3.23,3.23,3.24
35.62,-1.51,-4.75,-1.51,-4.74,4.74,4.72,5.82,3.23,3.24,3.24
35.97,-1.46,-4.70,-1.47,-4.71,4.71,4.67,5.75,3.25,3.24,3.24
36.33,-1.43,-4.67,-1.44,-4.67,4.68,4.63,5.68,3.25,3.24,3.23
36.70,-1.42,-4.66,-1.41,-4.65,4.65,4.58,5.61,3.23,3.24,3.23
37.06,-1.38,-4.62,-1.39,-4.62,4.62,4.54,5.53,3.23,3.23,3.23
37.43,-1.36,-4.59,-1.36,-4.59,4.59,4.50,5.46,3.22,3.23,3.23
37.81,-1.33,-4.56,-1.33,-4.56,4.56,4.46,5.38,3.23,3.23,3.23
38.19,-1.30,-4.53,-1.31,-4.53,4.53,4.42,5.31,3.23,3.23,3.23
38.57,-1.27,-4.50,-1.28,-4.50,4.51,4.39,5.24,3.23,3.23,3.23
38.95,-1.25,-4.48,-1.25,-4.47,4.48,4.35,5.16,3.23,3.23,3.23
39.34,-1.22,-4.45,-1.23,-4.45,4.46,4.32,5.09,3.23,3.23,3.22
39.74,-1.20,-4.43,-1.21,-4.43,4.43,4.28,5.03,3.23,3.23,3.22
40.14,-1.20,-4.42,-1.19,-4.41,4.41,4.25,4.96,3.21,3.22,3.22
40.54,-1.16,-4.38,-1.18,-4.40,4.40,4.22,4.90,3.23,3.22,3.22
40.94,-1.16,-4.38,-1.16,-4.38,4.38,4.20,4.84,3.22,3.22,3.22
41.35,-1.15,-4.37,-1.15,-4.36,4.36,4.17,4.78,3.21,3.22,3.21
41.76,-1.12,-4.34,-1.13,-4.35,4.34,4.15,4.73,3.22,3.21,3.21
42.18,-1.12,-4.33,-1.12,-4.33,4.32,4.13,4.67,3.20,3.20,3.21
42.60,-1.09,-4.30,-1.10,-4.30,4.29,4.11,4.63,3.20,3.20,3.21
43.03,-1.07,-4.28,-1.07,-4.27,4.27,4.09,4.58,3.19,3.20,3.20
43.46,-1.04,-4.25,-1.04,-4.24,4.24,4.08,4.54,3.20,3.20,3.20
43.90,-0.99,-4.19,-1.01,-4.21,4.21,4.07,4.50,3.22,3.20,3.20
44.33,-0.99,-4.19,-0.98,-4.17,4.18,4.06,4.47,3.19,3.21,3.19
44.78,-0.94,-4.14,-0.96,-4.15,4.16,4.05,4.44,3.21,3.20,3.19
45.23,-0.94,-4.13,-0.94,-4.13,4.13,4.05,4.41,3.19,3.19,3.19
45.68,-0.94,-4.13,-0.93,-4.11,4.11,4.05,4.38,3.17,3.19,3.18
46.13,-0.90,-4.08,-0.92,-4.10,4.09,4.05,4.36,3.19,3.18,3.18
46.60,-0.90,-4.08,-0.91,-4.08,4.08,4.05,4.34,3.18,3.17,3.18
47.06,-0.90,-4.07,-0.90,-4.07,4.07,4.06,4.33,3.17,3.17,3.17
47.53,-0.90,-4.07,-0.90,-4.07,4.06,4.07,4.32,3.16,3.16,3.17
48.01,-0.90,-4.06,-0.90,-4.06,4.06,4.08,4.31,3.16,3.16,3.16
48.49,-0.90,-4.06,-0.90,-4.06,4.06,4.10,4.30,3.16,3.16,3.16
48.97,-0.90,-4.05,-0.91,-4.06,4.07,4.12,4.30,3.17,3.16,3.15
49.46,-0.93,-4.08,-0.93,-4.08,4.09,4.14,4.30,3.15,3.15,3.14
49.96,-0.96,-4.10,-0.96,-4.10,4.10,4.16,4.30,3.14,3.14,3.14
50.46,-0.99,-4.13,-1.00,-4.13,4.12,4.19,4.31,3.13,3.13,3.13
50.96,-1.03,-4.16,-1.03,-4.16,4.15,4.22,4.31,3.12,3.12,3.13
51.47,-1.07,-4.19,-1.07,-4.19,4.18,4.25,4.32,3.11,3.11,3.12
51.99,-1.10,-4.22,-1.11,-4.22,4.22,4.29,4.33,3.12,3.12,3.11
52.51,-1.14,-4.25,-1.14,-4.25,4.26,4.32,4.34,3.12,3.12,3.10
53.03,-1.18,-4.28,-1.19,-4.29,4.30,4.36,4.35,3.12,3.11,3.10
53.56,-1.24,-4.33,-1.24,-4.33,4.34,4.40,4.36,3.09,3.09,3.09
54.10,-1.30,-4.38,-1.30,-4.38,4.37,4.43,4.37,3.07,3.08,3.08
54.64,-1.34,-4.42,-1.35,-4.42,4.41,4.47,4.38,3.06,3.06,3.07
55.18,-1.38,-4.45,-1.39,-4.45,4.43,4.51,4.39,3.05,3.05,3.06
55.74,-1.42,-4.48,-1.41,-4.46,4.46,4.54,4.40,3.03,3.05,3.05
56.29,-1.42,-4.47,-1.43,-4.47,4.47,4.58,4.41,3.05,3.04,3.04
56.86,-1.42,-4.46,-1.44,-4.47,4.48,4.61,4.41,3.05,3.04,3.03
57.42,-1.46,-4.49,-1.45,-4.47,4.48,4.63,4.42,3.01,3.03,3.02
58.00,-1.46,-4.48,-1.46,-4.47,4.47,4.65,4.42,3.01,3.01,3.01
58.58,-1.46,-4.46,-1.47,-4.47,4.46,4.67,4.42,3.00,3.00,3.00
59.16,-1.46,-4.45,-1.46,-4.45,4.45,4.68,4.41,2.99,2.99,2.99
59.76,-1.46,-4.44,-1.46,-4.44,4.44,4.68,4.40,2.98,2.98,2.98
60.35,-1.46,-4.43,-1.46,-4.43,4.43,4.67,4.39,2.96,2.96,2.96
60.96,-1.46,-4.41,-1.46,-4.41,4.42,4.66,4.37,2.95,2.95,2.95
61.57,-1.46,-4.40,-1.46,-4.40,4.41,4.64,4.35,2.94,2.95,2.94
62.18,-1.46,-4.39,-1.46,-4.39,4.40,4.60,4.33,2.93,2.93,2.92
62.80,-1.46,-4.37,-1.48,-4.39,4.39,4.56,4.30,2.93,2.91,2.91
63.43,-1.50,-4.40,-1.49,-4.39,4.39,4.52,4.26,2.88,2.89,2.89
64.07,-1.51,-4.39,-1.51,-4.38,4.39,4.46,4.22,2.87,2.88,2.88
64.71,-1.51,-4.38,-1.52,-4.38,4.38,4.39,4.18,2.87,2.86,2.86
65.35,-1.51,-4.36,-1.52,-4.37,4.38,4.32,4.13,2.86,2.85,2.84
66.01,-1.53,-4.36,-1.53,-4.36,4.36,4.24,4.08,2.83,2.83,2.83
66.67,-1.53,-4.34,-1.53,-4.34,4.33,4.15,4.02,2.80,2.80,2.81
67.33,-1.51,-4.31,-1.52,-4.31,4.29,4.06,3.96,2.78,2.77,2.79
68.01,-1.49,-4.27,-1.48,-4.26,4.24,3.97,3.90,2.74,2.75,2.77
68.69,-1.42,-4.18,-1.43,-4.18,4.17,3.87,3.83,2.74,2.74,2.75
69.37,-1.36,-4.10,-1.36,-4.09,4.08,3.77,3.77,2.72,2.73,2.73
70.07,-1.26,-3.98,-1.27,-3.99,3.99,3.67,3.69,2.72,2.72,2.71
70.77,-1.18,-3.88,-1.19,-3.88,3.88,3.56,3.62,2.70,2.70,2.69
71.48,-1.10,-3.77,-1.09,-3.76,3.77,3.46,3.54,2.67,2.68,2.67
72.19,-0.99,-3.64,-1.00,-3.65,3.66,3.35,3.47,2.66,2.65,2.65
72.91,-0.90,-3.53,-0.91,-3.54,3.54,3.25,3.39,2.63,2.63,2.63
73.64,-0.83,-3.44,-0.82,-3.42,3.42,3.15,3.31,2.59,2.60,2.60
74.38,-0.73,-3.31,-0.74,-3.32,3.31,3.04,3.23,2.57,2.57,2.58
75.12,-0.65,-3.21,-0.65,-3.21,3.20,2.94,3.15,2.55,2.54,2.55
75.87,-0.57,-3.10,-0.57,-3.10,3.10,2.85,3.07,2.53,2.53,2.53
76.63,-0.49,-3.00,-0.49,-2.99,3.02,2.75,2.99,2.52,2.53,2.50
77.40,-0.42,-2.90,-0.43,-2.91,2.94,2.66,2.91,2.52,2.51,2.48
78.17,-0.38,-2.83,-0.39,-2.84,2.87,2.56,2.83,2.49,2.48,2.45
78.95,-0.38,-2.81,-0.38,-2.80,2.81,2.48,2.75,2.42,2.42,2.42
79.74,-0.38,-2.78,-0.38,-2.77,2.74,2.39,2.68,2.36,2.37,2.39
80.54,-0.36,-2.73,-0.36,-2.72,2.68,2.31,2.60,2.32,2.33,2.36
81.35,-0.31,-2.65,-0.31,-2.65,2.63,2.23,2.52,2.31,2.31,2.34
82.16,-0.26,-2.57,-0.26,-2.57,2.56,2.15,2.45,2.30,2.30,2.31
82.98,-0.20,-2.48,-0.21,-2.49,2.50,2.07,2.38,2.30,2.29,2.28
83.81,-0.17,-2.42,-0.17,-2.42,2.43,2.00,2.30,2.26,2.26,2.24
84.65,-0.14,-2.36,-0.14,-2.35,2.36,1.93,2.23,2.22,2.22,2.21
85.50,-0.11,-2.29,-0.11,-2.29,2.29,1.86,2.16,2.18,2.18,2.18
86.35,-0.08,-2.23,-0.09,-2.23,2.23,1.79,2.10,2.15,2.14,2.15
87.22,-0.05,-2.17,-0.05,-2.17,2.17,1.73,2.03,2.11,2.11,2.11
88.09,-0.03,-2.12,-0.03,-2.11,2.11,1.67,1.97,2.08,2.08,2.08
88.97,0.01,-2.04,-0.01,-2.05,2.05,1.61,1.90,2.06,2.05,2.05
89.86,0.01,-2.01,0.02,-2.00,1.99,1.55,1.84,2.00,2.01,2.01
90.76,0.05,-1.93,0.04,-1.93,1.93,1.49,1.78,1.98,1.98,1.98
91.66,0.07,-1.88,0.06,-1.88,1.87,1.44,1.72,1.94,1.94,1.94
92.58,0.10,-1.81,0.09,-1.82,1.82,1.39,1.66,1.92,1.91,1.91
93.51,0.10,-1.78,0.11,-1.76,1.77,1.33,1.61,1.86,1.88,1.87
94.44,0.14,-1.70,0.13,-1.71,1.72,1.29,1.55,1.86,1.85,1.84
95.39,0.14,-1.66,0.13,-1.66,1.67,1.24,1.50,1.81,1.81,1.80
96.34,0.14,-1.63,0.14,-1.62,1.63,1.19,1.45,1.76,1.77,1.76
97.30,0.14,-1.59,0.13,-1.59,1.58,1.15,1.40,1.72,1.72,1.73
98.28,0.14,-1.55,0.14,-1.55,1.54,1.11,1.35,1.68,1.68,1.69
99.26,0.14,-1.51,0.15,-1.50,1.50,1.06,1.30,1.63,1.65,1.65
100.25,0.18,-1.44,0.16,-1.45,1.45,1.02,1.25,1.63,1.61,1.61
101.25,0.18,-1.40,0.17,-1.40,1.40,0.98,1.20,1.58,1.57,1.57
102.27,0.18,-1.36,0.19,-1.35,1.35,0.95,1.16,1.53,1.54,1.54
103.29,0.20,-1.30,0.20,-1.30,1.30,0.91,1.12,1.50,1.50,1.50
104.32,0.23,-1.23,0.21,-1.25,1.25,0.87,1.07,1.47,1.46,1.46
105.37,0.23,-1.20,0.23,-1.19,1.20,0.84,1.03,1.42,1.42,1.42
106.42,0.23,-1.16,0.24,-1.14,1.14,0.80,0.99,1.37,1.39,1.38
107.48,0.27,-1.08,0.25,-1.10,1.09,0.77,0.95,1.36,1.34,1.35
108.56,0.27,-1.04,0.27,-1.04,1.04,0.74,0.91,1.31,1.31,1.31
109.64,0.27,-1.00,0.28,-0.99,0.99,0.71,0.88,1.26,1.28,1.27
110.74,0.31,-0.93,0.29,-0.94,0.94,0.68,0.84,1.25,1.24,1.23
111.85,0.31,-0.89,0.30,-0.89,0.89,0.65,0.80,1.20,1.20,1.20
112.97,0.31,-0.85,0.31,-0.85,0.85,0.62,0.77,1.15,1.15,1.16
114.10,0.31,-0.82,0.31,-0.81,0.80,0.59,0.74,1.10,1.11,1.12
115.24,0.33,-0.76,0.33,-0.75,0.75,0.56,0.70,1.07,1.08,1.08
116.39,0.36,-0.69,0.35,-0.70,0.70,0.54,0.67,1.06,1.05,1.05
117.55,0.36,-0.66,0.36,-0.65,0.66,0.51,0.64,1.02,1.02,1.01
118.73,0.36,-0.62,0.36,-0.62,0.62,0.48,0.61,0.98,0.98,0.98
119.92,0.36,-0.58,0.36,-0.58,0.59,0.46,0.58,0.94,0.95,0.94
121.12,0.36,-0.55,0.35,-0.55,0.56,0.43,0.55,0.91,0.91,0.90
122.33,0.36,-0.51,0.34,-0.53,0.53,0.41,0.52,0.89,0.87,0.87
123.55,0.31,-0.53,0.32,-0.51,0.51,0.39,0.50,0.82,0.84,0.84
124.79,0.31,-0.49,0.31,-0.49,0.49,0.36,0.47,0.80,0.80,0.80
126.03,0.31,-0.46,0.29,-0.47,0.47,0.34,0.44,0.77,0.76,0.77
127.29,0.29,-0.45,0.28,-0.45,0.44,0.32,0.42,0.72,0.72,0.73
128.57,0.27,-0.44,0.28,-0.43,0.41,0.30,0.40,0.68,0.69,0.70
129.85,0.27,-0.40,0.28,-0.39,0.38,0.28,0.37,0.65,0.66,0.67
131.15,0.31,-0.33,0.29,-0.35,0.35,0.26,0.35,0.66,0.64,0.64
132.46,0.31,-0.30,0.31,-0.30,0.32,0.24,0.33,0.63,0.63,0.61
133.79,0.31,-0.27,0.31,-0.27,0.29,0.22,0.30,0.60,0.60,0.58
135.12,0.31,-0.24,0.29,-0.26,0.26,0.20,0.28,0.56,0.55,0.55
136.48,0.27,-0.25,0.28,-0.24,0.22,0.18,0.26,0.49,0.51,0.52
137.84,0.27,-0.22,0.28,-0.21,0.19,0.16,0.24,0.46,0.47,0.49
139.22,0.31,-0.15,0.29,-0.17,0.15,0.14,0.22,0.46,0.44,0.46
140.61,0.31,-0.13,0.31,-0.12,0.12,0.13,0.20,0.42,0.43,0.43
142.02,0.34,-0.07,0.33,-0.07,0.07,0.11,0.18,0.41,0.41,0.40
143.44,0.36,-0.02,0.35,-0.02,0.03,0.09,0.16,0.39,0.38,0.38
144.87,0.37,0.01,0.37,0.02,-0.02,0.07,0.14,0.35,0.35,0.35
146.32,0.40,0.07,0.39,0.06,-0.06,0.06,0.12,0.33,0.33,0.33
147.78,0.40,0.09,0.41,0.11,-0.10,0.04,0.11,0.29,0.30,0.30
149.26,0.44,0.16,0.43,0.15,-0.14,0.02,0.09,0.30,0.29,0.28
150.75,0.44,0.18,0.43,0.18,-0.17,0.01,0.07,0.26,0.26,0.25
152.26,0.44,0.21,0.44,0.21,-0.20,-0.01,0.05,0.23,0.24,0.23
153.78,0.44,0.23,0.44,0.23,-0.23,-0.02,0.03,0.21,0.21,0.21
155.32,0.44,0.25,0.44,0.25,-0.26,-0.04,0.01,0.18,0.18,0.19
156.88,0.44,0.27,0.43,0.27,-0.28,-0.05,-0.01,0.16,0.16,0.17
158.44,0.44,0.29,0.44,0.30,-0.30,-0.07,-0.02,0.13,0.14,0.14
160.03,0.45,0.32,0.45,0.32,-0.33,-0.08,-0.04,0.12,0.12,0.12
161.63,0.47,0.36,0.46,0.35,-0.35,-0.09,-0.06,0.11,0.11,0.11
163.24,0.47,0.38,0.47,0.38,-0.37,-0.11,-0.08,0.09,0.09,0.09
164.88,0.47,0.40,0.47,0.40,-0.40,-0.12,-0.10,0.07,0.07,0.07
166.53,0.47,0.42,0.47,0.42,-0.41,-0.14,-0.12,0.05,0.05,0.05
168.19,0.47,0.43,0.47,0.44,-0.43,-0.15,-0.14,0.04,0.04,0.03
169.87,0.47,0.45,0.46,0.45,-0.44,-0.16,-0.16,0.03,0.02,0.02
171.57,0.47,0.47,0.46,0.46,-0.45,-0.17,-0.18,0.01,0.00,-0.00
173.29,0.44,0.45,0.45,0.46,-0.47,-0.19,-0.20,-0.03,-0.02,-0.02
175.02,0.44,0.47,0.44,0.47,-0.48,-0.20,-0.22,-0.05,-0.05,-0.03
176.77,0.44,0.48,0.44,0.48,-0.50,-0.21,-0.24,-0.06,-0.06,-0.05
178.54,0.45,0.51,0.45,0.51,-0.52,-0.22,-0.26,-0.07,-0.07,-0.06
180.32,0.47,0.54,0.47,0.54,-0.54,-0.23,-0.28,-0.07,-0.07,-0.07
182.13,0.49,0.57,0.48,0.57,-0.56,-0.25,-0.30,-0.07,-0.08,-0.09
183.95,0.49,0.59,0.49,0.59,-0.58,-0.26,-0.33,-0.09,-0.09,-0.10
185.79,0.49,0.60,0.49,0.60,-0.59,-0.27,-0.35,-0.11,-0.11,-0.11
187.65,0.49,0.61,0.49,0.61,-0.61,-0.28,-0.37,-0.12,-0.12,-0.12
189.52,0.49,0.62,0.49,0.62,-0.63,-0.29,-0.39,-0.14,-0.14,-0.14
191.42,0.49,0.63,0.49,0.63,-0.64,-0.30,-0.41,-0.15,-0.15,-0.15
193.33,0.49,0.64,0.48,0.64,-0.65,-0.31,-0.44,-0.16,-0.17,-0.16
195.27,0.49,0.65,0.49,0.66,-0.66,-0.32,-0.46,-0.17,-0.17,-0.17
197.22,0.49,0.66,0.49,0.67,-0.67,-0.33,-0.48,-0.18,-0.18,-0.18
199.19,0.51,0.69,0.50,0.69,-0.68,-0.34,-0.51,-0.17,-0.18,-0.19
201.18,0.51,0.70,0.50,0.70,-0.69,-0.35,-0.53,-0.18,-0.19,-0.20
203.19,0.50,0.70,0.50,0.70,-0.70,-0.36,-0.55,-0.20,-0.20,-0.21
205.23,0.49,0.70,0.49,0.70,-0.71,-0.37,-0.58,-0.22,-0.22,-0.21
207.28,0.49,0.71,0.49,0.71,-0.71,-0.38,-0.60,-0.23,-0.23,-0.22
209.35,0.49,0.72,0.49,0.72,-0.72,-0.39,-0.62,-0.23,-0.24,-0.23
211.44,0.49,0.72,0.49,0.72,-0.73,-0.40,-0.65,-0.24,-0.24,-0.24
213.56,0.49,0.73,0.49,0.73,-0.73,-0.41,-0.67,-0.25,-0.25,-0.24
215.69,0.49,0.74,0.49,0.74,-0.74,-0.42,-0.69,-0.25,-0.25,-0.25
217.85,0.49,0.74,0.49,0.75,-0.74,-0.43,-0.71,-0.25,-0.25,-0.26
220.03,0.49,0.75,0.49,0.75,-0.74,-0.44,-0.73,-0.26,-0.25,-0.26
222.23,0.49,0.76,0.48,0.75,-0.74,-0.45,-0.75,-0.25,-0.26,-0.27
224.45,0.47,0.74,0.47,0.74,-0.74,-0.45,-0.77,-0.27,-0.27,-0.28
226.70,0.45,0.73,0.45,0.73,-0.74,-0.46,-0.79,-0.29,-0.29,-0.28
228.96,0.44,0.72,0.44,0.73,-0.74,-0.47,-0.81,-0.30,-0.30,-0.29
231.25,0.44,0.73,0.43,0.73,-0.74,-0.48,-0.82,-0.30,-0.30,-0.29
233.57,0.44,0.73,0.44,0.73,-0.74,-0.49,-0.84,-0.30,-0.30,-0.30
235.90,0.44,0.74,0.44,0.74,-0.74,-0.49,-0.85,-0.31,-0.30,-0.30
238.26,0.45,0.75,0.44,0.75,-0.74,-0.50,-0.87,-0.30,-0.30,-0.31
240.64,0.45,0.76,0.45,0.76,-0.74,-0.51,-0.88,-0.30,-0.30,-0.31
243.05,0.44,0.75,0.44,0.75,-0.74,-0.52,-0.89,-0.31,-0.30,-0.31
245.48,0.44,0.75,0.42,0.74,-0.74,-0.52,-0.90,-0.30,-0.31,-0.32
247.93,0.40,0.72,0.41,0.73,-0.73,-0.53,-0.90,-0.33,-0.32,-0.32
250.41,0.40,0.72,0.40,0.72,-0.72,-0.54,-0.91,-0.32,-0.32,-0.32
252.92,0.40,0.72,0.38,0.71,-0.71,-0.54,-0.91,-0.32,-0.33,-0.33
255.45,0.36,0.69,0.37,0.70,-0.71,-0.55,-0.92,-0.35,-0.34,-0.33
258.00,0.36,0.69,0.36,0.69,-0.71,-0.56,-0.92,-0.35,-0.35,-0.33
260.58,0.36,0.69,0.36,0.69,-0.71,-0.56,-0.92,-0.35,-0.35,-0.34
263.19,0.38,0.72,0.37,0.71,-0.71,-0.57,-0.92,-0.34,-0.34,-0.34
265.82,0.38,0.72,0.38,0.72,-0.72,-0.58,-0.91,-0.34,-0.34,-0.34
268.48,0.40,0.74,0.39,0.74,-0.73,-0.58,-0.91,-0.33,-0.33,-0.34
271.16,0.40,0.74,0.40,0.74,-0.73,-0.59,-0.90,-0.34,-0.34,-0.35
273.87,0.40,0.74,0.40,0.75,-0.74,-0.59,-0.90,-0.35,-0.34,-0.35
276.61,0.40,0.75,0.40,0.75,-0.75,-0.60,-0.89,-0.35,-0.35,-0.35
279.38,0.40,0.75,0.40,0.75,-0.75,-0.61,-0.88,-0.35,-0.35,-0.35
282.17,0.40,0.75,0.40,0.75,-0.75,-0.61,-0.87,-0.36,-0.36,-0.35
284.99,0.40,0.75,0.40,0.75,-0.75,-0.62,-0.86,-0.36,-0.36,-0.35
287.84,0.40,0.75,0.40,0.75,-0.75,-0.62,-0.85,-0.36,-0.36,-0.36
290.72,0.40,0.75,0.40,0.75,-0.75,-0.63,-0.84,-0.36,-0.36,-0.36
293.63,0.40,0.76,0.40,0.76,-0.75,-0.63,-0.83,-0.36,-0.36,-0.36
296.57,0.40,0.76,0.40,0.76,-0.76,-0.64,-0.82,-0.36,-0.36,-0.36
299.53,0.40,0.76,0.40,0.76,-0.76,-0.64,-0.81,-0.36,-0.36,-0.36
302.53,0.40,0.76,0.39,0.75,-0.77,-0.65,-0.80,-0.37,-0.37,-0.36
305.55,0.40,0.76,0.40,0.76,-0.77,-0.65,-0.79,-0.38,-0.38,-0.36
308.61,0.40,0.76,0.41,0.77,-0.78,-0.66,-0.77,-0.38,-0.37,-0.36
311.69,0.44,0.80,0.43,0.79,-0.78,-0.66,-0.76,-0.35,-0.36,-0.36
314.81,0.44,0.80,0.43,0.80,-0.78,-0.67,-0.75,-0.35,-0.35,-0.36
317.96,0.44,0.80,0.43,0.79,-0.78,-0.67,-0.74,-0.35,-0.35,-0.37
321.14,0.41,0.77,0.42,0.78,-0.78,-0.67,-0.73,-0.37,-0.36,-0.37
324.35,0.40,0.76,0.40,0.77,-0.77,-0.68,-0.72,-0.37,-0.37,-0.37
327.59,0.40,0.76,0.38,0.75,-0.75,-0.68,-0.71,-0.36,-0.37,-0.37
330.87,0.36,0.72,0.37,0.74,-0.74,-0.69,-0.70,-0.38,-0.36,-0.37
334.18,0.36,0.72,0.36,0.72,-0.72,-0.69,-0.69,-0.36,-0.36,-0.37
337.52,0.36,0.72,0.34,0.70,-0.71,-0.69,-0.69,-0.35,-0.37,-0.37
340.90,0.31,0.67,0.32,0.69,-0.69,-0.70,-0.68,-0.39,-0.37,-0.37
344.30,0.31,0.67,0.31,0.68,-0.68,-0.70,-0.67,-0.38,-0.38,-0.37
347.75,0.31,0.67,0.30,0.67,-0.68,-0.70,-0.66,-0.37,-0.38,-0.37
351.23,0.31,0.67,0.31,0.67,-0.67,-0.71,-0.66,-0.37,-0.37,-0.37
354.74,0.31,0.67,0.31,0.67,-0.67,-0.71,-0.65,-0.36,-0.36,-0.37
358.28,0.31,0.67,0.31,0.67,-0.67,-0.71,-0.65,-0.36,-0.36,-0.37
361.87,0.31,0.67,0.31,0.67,-0.67,-0.71,-0.64,-0.36,-0.36,-0.37
365.49,0.31,0.67,0.31,0.67,-0.67,-0.72,-0.64,-0.36,-0.36,-0.37
369.14,0.31,0.67,0.31,0.67,-0.67,-0.72,-0.63,-0.37,-0.37,-0.37
372.83,0.31,0.67,0.31,0.67,-0.67,-0.72,-0.63,-0.37,-0.37,-0.36
376.56,0.31,0.67,0.31,0.67,-0.67,-0.72,-0.63,-0.37,-0.37,-0.36
380.33,0.31,0.67,0.31,0.67,-0.67,-0.73,-0.63,-0.37,-0.37,-0.36
384.13,0.31,0.67,0.31,0.67,-0.67,-0.73,-0.63,-0.37,-0.37,-0.36
387.97,0.31,0.67,0.31,0.67,-0.67,-0.73,-0.63,-0.36,-0.36,-0.36
391.85,0.31,0.67,0.31,0.67,-0.66,-0.73,-0.63,-0.36,-0.35,-0.36
395.77,0.31,0.67,0.30,0.67,-0.66,-0.73,-0.63,-0.35,-0.35,-0.36
399.73,0.31,0.67,0.29,0.65,-0.65,-0.74,-0.63,-0.34,-0.36,-0.36
403.72,0.27,0.63,0.28,0.64,-0.64,-0.74,-0.63,-0.38,-0.36,-0.36
407.76,0.27,0.63,0.27,0.63,-0.64,-0.74,-0.63,-0.37,-0.37,-0.36
411.84,0.27,0.63,0.26,0.62,-0.63,-0.74,-0.63,-0.37,-0.37,-0.36
415.96,0.27,0.62,0.27,0.62,-0.63,-0.74,-0.63,-0.36,-0.36,-0.36
420.12,0.27,0.62,0.27,0.62,-0.62,-0.74,-0.63,-0.36,-0.36,-0.36
424.32,0.27,0.62,0.27,0.62,-0.62,-0.74,-0.63,-0.35,-0.35,-0.36
428.56,0.27,0.62,0.27,0.62,-0.62,-0.74,-0.64,-0.35,-0.35,-0.36
432.85,0.27,0.62,0.26,0.62,-0.61,-0.75,-0.64,-0.35,-0.35,-0.36
437.18,0.26,0.61,0.26,0.61,-0.61,-0.75,-0.64,-0.35,-0.35,-0.35
441.55,0.25,0.60,0.25,0.60,-0.60,-0.75,-0.64,-0.36,-0.35,-0.35
445.96,0.25,0.60,0.24,0.59,-0.59,-0.75,-0.64,-0.35,-0.36,-0.35
450.42,0.23,0.58,0.23,0.58,-0.59,-0.75,-0.65,-0.36,-0.36,-0.35
454.93,0.23,0.58,0.23,0.58,-0.58,-0.75,-0.65,-0.36,-0.36,-0.35
459.48,0.23,0.58,0.22,0.57,-0.58,-0.75,-0.65,-0.35,-0.35,-0.35
464.07,0.23,0.58,0.23,0.58,-0.57,-0.75,-0.65,-0.35,-0.35,-0.35
468.71,0.23,0.57,0.23,0.57,-0.57,-0.75,-0.65,-0.35,-0.35,-0.35
473.40,0.23,0.57,0.23,0.57,-0.57,-0.75,-0.65,-0.35,-0.35,-0.35
478.13,0.23,0.57,0.23,0.57,-0.57,-0.75,-0.65,-0.34,-0.34,-0.35
482.91,0.23,0.57,0.23,0.57,-0.57,-0.75,-0.65,-0.34,-0.34,-0.34
487.74,0.23,0.57,0.23,0.57,-0.57,-0.75,-0.65,-0.34,-0.34,-0.34
492.62,0.23,0.57,0.23,0.57,-0.57,-0.74,-0.65,-0.34,-0.34,-0.34
497.55,0.23,0.57,0.23,0.57,-0.57,-0.74,-0.64,-0.34,-0.34,-0.34
502.52,0.23,0.57,0.23,0.57,-0.57,-0.74,-0.64,-0.34,-0.34,-0.34
507.55,0.23,0.57,0.23,0.57,-0.57,-0.74,-0.64,-0.34,-0.34,-0.34
