frequency,raw,error,smoothed,error_smoothed,equalization,parametric_eq,fixed_band_eq,equalized_raw,equalized_smoothed,target
20.00,-4.25,-10.09,-4.25,-10.10,6.00,5.07,2.00,1.75,1.75,5.84
20.20,-4.09,-9.94,-4.09,-9.94,6.00,5.20,2.06,1.91,1.91,5.85
20.40,-3.93,-9.79,-3.93,-9.78,6.00,5.33,2.12,2.07,2.07,5.86
20.61,-3.77,-9.63,-3.77,-9.63,6.00,5.46,2.18,2.23,2.23,5.86
20.81,-3.61,-9.48,-3.61,-9.48,6.00,5.58,2.25,2.39,2.39,5.87
21.02,-3.45,-9.32,-3.46,-9.33,6.00,5.70,2.31,2.55,2.54,5.87
21.23,-3.32,-9.20,-3.32,-9.20,6.00,5.82,2.38,2.68,2.68,5.88
21.44,-3.20,-9.08,-3.19,-9.07,6.00,5.93,2.45,2.80,2.81,5.88
21.66,-3.07,-8.95,-3.07,-8.95,6.00,6.04,2.53,2.93,2.93,5.88
21.87,-2.94,-8.82,-2.94,-8.83,6.00,6.14,2.60,3.06,3.06,5.88
22.09,-2.82,-8.71,-2.82,-8.70,6.00,6.23,2.68,3.18,3.18,5.89
22.31,-2.69,-8.58,-2.69,-8.57,6.00,6.32,2.75,3.31,3.31,5.89
22.54,-2.56,-8.44,-2.57,-8.44,6.00,6.39,2.83,3.44,3.43,5.88
22.76,-2.43,-8.30,-2.44,-8.31,6.00,6.46,2.91,3.57,3.56,5.87
22.99,-2.31,-8.18,-2.29,-8.16,6.00,6.51,3.00,3.69,3.71,5.87
23.22,-2.13,-8.00,-2.13,-7.99,6.00,6.55,3.08,3.87,3.87,5.87
23.45,-1.95,-7.81,-1.96,-7.82,6.00,6.58,3.17,4.05,4.04,5.86
23.69,-1.78,-7.64,-1.77,-7.63,6.00,6.59,3.26,4.22,4.23,5.86
23.92,-1.60,-7.45,-1.60,-7.46,6.00,6.59,3.35,4.40,4.40,5.86
24.16,-1.44,-7.29,-1.45,-7.30,6.00,6.58,3.44,4.56,4.55,5.85
24.40,-1.30,-7.15,-1.29,-7.15,6.00,6.55,3.54,4.70,4.71,5.85
24.65,-1.16,-7.02,-1.15,-7.01,6.00,6.51,3.63,4.84,4.85,5.85
24.89,-1.01,-6.86,-1.01,-6.87,6.00,6.46,3.72,4.99,4.99,5.85
25.14,-0.88,-6.73,-0.88,-6.73,6.01,6.40,3.82,5.13,5.13,5.85
25.39,-0.75,-6.59,-0.75,-6.60,6.02,6.33,3.92,5.27,5.27,5.84
25.65,-0.63,-6.47,-0.63,-6.47,6.03,6.24,4.01,5.39,5.40,5.84
25.91,-0.51,-6.35,-0.51,-6.35,6.02,6.15,4.11,5.51,5.51,5.84
26.16,-0.38,-6.22,-0.38,-6.22,6.00,6.05,4.20,5.62,5.61,5.84
26.43,-0.25,-6.09,-0.25,-6.10,5.95,5.94,4.30,5.70,5.70,5.84
26.69,-0.13,-5.97,-0.13,-5.97,5.89,5.82,4.39,5.76,5.76,5.84
26.96,-0.00,-5.84,-0.00,-5.84,5.81,5.70,4.48,5.81,5.81,5.84
27.23,0.13,-5.71,0.13,-5.71,5.71,5.57,4.57,5.83,5.84,5.84
27.50,0.27,-5.57,0.27,-5.57,5.58,5.44,4.65,5.85,5.85,5.84
27.77,0.40,-5.44,0.40,-5.43,5.45,5.31,4.73,5.85,5.85,5.84
28.05,0.54,-5.30,0.54,-5.30,5.31,5.17,4.81,5.85,5.85,5.84
28.33,0.67,-5.16,0.68,-5.16,5.18,5.04,4.88,5.85,5.85,5.84
28.62,0.81,-5.03,0.81,-5.03,5.05,4.90,4.94,5.86,5.86,5.83
28.90,0.94,-4.90,0.93,-4.91,4.94,4.76,5.00,5.88,5.87,5.84
29.19,1.04,-4.80,1.03,-4.81,4.83,4.63,5.05,5.87,5.87,5.84
29.48,1.12,-4.72,1.12,-4.73,4.72,4.49,5.09,5.84,5.84,5.84
29.78,1.20,-4.65,1.20,-4.64,4.61,4.35,5.13,5.81,5.81,5.85
30.08,1.30,-4.55,1.31,-4.54,4.49,4.22,5.16,5.79,5.80,5.85
30.38,1.45,-4.40,1.45,-4.40,4.37,4.09,5.18,5.81,5.82,5.85
30.68,1.61,-4.24,1.60,-4.25,4.24,3.96,5.19,5.85,5.84,5.85
30.99,1.76,-4.09,1.75,-4.09,4.11,3.83,5.19,5.87,5.86,5.85
31.30,1.89,-3.96,1.89,-3.95,3.98,3.71,5.18,5.87,5.88,5.85
31.61,2.02,-3.82,2.02,-3.82,3.86,3.58,5.16,5.88,5.88,5.84
31.93,2.15,-3.69,2.14,-3.70,3.73,3.46,5.13,5.88,5.87,5.84
32.24,2.24,-3.59,2.23,-3.61,3.60,3.34,5.09,5.84,5.83,5.83
32.57,2.31,-3.52,2.31,-3.52,3.48,3.23,5.04,5.79,5.79,5.83
32.89,2.39,-3.44,2.40,-3.42,3.37,3.12,4.99,5.76,5.77,5.83
33.22,2.52,-3.30,2.53,-3.28,3.26,3.01,4.92,5.78,5.80,5.82
33.55,2.68,-3.13,2.68,-3.13,3.16,2.90,4.85,5.84,5.84,5.82
33.89,2.85,-2.95,2.82,-2.99,3.05,2.79,4.77,5.90,5.88,5.80
34.23,2.92,-2.88,2.91,-2.90,2.94,2.69,4.69,5.86,5.85,5.80
34.57,2.96,-2.84,2.96,-2.84,2.83,2.59,4.59,5.79,5.79,5.80
34.92,2.99,-2.81,3.02,-2.78,2.71,2.50,4.50,5.70,5.73,5.80
35.27,3.13,-2.67,3.14,-2.66,2.59,2.40,4.39,5.72,5.73,5.80
35.62,3.30,-2.50,3.29,-2.50,2.48,2.31,4.29,5.78,5.77,5.79
35.97,3.47,-2.32,3.45,-2.34,2.36,2.22,4.18,5.83,5.81,5.79
36.33,3.57,-2.22,3.57,-2.22,2.25,2.14,4.06,5.82,5.83,5.79
36.70,3.67,-2.12,3.68,-2.11,2.14,2.05,3.95,5.81,5.82,5.79
37.06,3.76,-2.02,3.76,-2.02,2.05,1.97,3.83,5.81,5.81,5.79
37.43,3.85,-1.93,3.85,-1.93,1.96,1.89,3.71,5.81,5.81,5.78
37.81,3.93,-1.86,3.92,-1.86,1.89,1.81,3.59,5.82,5.81,5.79
38.19,3.98,-1.81,3.97,-1.82,1.82,1.73,3.46,5.80,5.78,5.79
38.57,4.00,-1.79,4.00,-1.79,1.75,1.66,3.34,5.75,5.76,5.78
38.95,4.03,-1.76,4.06,-1.73,1.69,1.59,3.22,5.72,5.74,5.79
39.34,4.14,-1.65,4.15,-1.64,1.61,1.52,3.09,5.75,5.76,5.79
39.74,4.27,-1.52,4.25,-1.53,1.53,1.45,2.97,5.80,5.79,5.79
40.14,4.37,-1.41,4.36,-1.43,1.44,1.38,2.85,5.81,5.80,5.78
40.54,4.44,-1.34,4.44,-1.34,1.35,1.31,2.72,5.79,5.79,5.78
40.94,4.50,-1.28,4.52,-1.26,1.25,1.25,2.60,5.75,5.77,5.78
41.35,4.60,-1.17,4.61,-1.16,1.16,1.19,2.48,5.76,5.76,5.77
41.76,4.71,-1.05,4.70,-1.06,1.07,1.13,2.36,5.78,5.77,5.76
42.18,4.79,-0.96,4.78,-0.97,0.99,1.07,2.24,5.78,5.77,5.75
42.60,4.84,-0.91,4.84,-0.91,0.92,1.01,2.13,5.76,5.76,5.75
43.03,4.89,-0.86,4.90,-0.85,0.85,0.95,2.01,5.74,5.75,5.75
43.46,4.95,-0.79,4.95,-0.79,0.79,0.89,1.90,5.74,5.74,5.74
43.90,5.00,-0.73,5.00,-0.74,0.74,0.84,1.78,5.74,5.73,5.73
44.33,5.04,-0.68,5.04,-0.69,0.69,0.79,1.67,5.73,5.72,5.72
44.78,5.07,-0.65,5.07,-0.64,0.64,0.73,1.56,5.71,5.71,5.72
45.23,5.11,-0.60,5.11,-0.60,0.59,0.68,1.45,5.70,5.70,5.71
45.68,5.16,-0.55,5.16,-0.55,0.54,0.63,1.34,5.70,5.70,5.71
46.13,5.21,-0.50,5.22,-0.49,0.49,0.58,1.23,5.70,5.72,5.71
46.60,5.29,-0.42,5.28,-0.42,0.44,0.53,1.13,5.73,5.73,5.71
47.06,5.35,-0.36,5.33,-0.38,0.38,0.48,1.02,5.73,5.71,5.71
47.53,5.37,-0.34,5.37,-0.34,0.33,0.43,0.92,5.69,5.70,5.71
48.01,5.39,-0.33,5.42,-0.30,0.27,0.39,0.81,5.66,5.69,5.72
48.49,5.49,-0.23,5.49,-0.24,0.21,0.34,0.71,5.70,5.70,5.72
48.97,5.58,-0.14,5.57,-0.16,0.17,0.30,0.61,5.75,5.74,5.72
49.46,5.64,-0.09,5.64,-0.09,0.13,0.25,0.51,5.77,5.77,5.73
49.96,5.69,-0.05,5.68,-0.06,0.10,0.21,0.42,5.79,5.78,5.74
50.46,5.69,-0.05,5.69,-0.05,0.07,0.16,0.32,5.76,5.76,5.74
50.96,5.69,-0.06,5.69,-0.06,0.05,0.12,0.23,5.73,5.74,5.75
51.47,5.70,-0.06,5.70,-0.05,0.02,0.08,0.13,5.72,5.73,5.76
51.99,5.72,-0.04,5.72,-0.04,0.00,0.03,0.04,5.72,5.73,5.76
52.51,5.76,0.00,5.76,-0.00,-0.01,-0.01,-0.05,5.75,5.74,5.76
53.03,5.79,0.03,5.80,0.04,-0.03,-0.05,-0.14,5.76,5.77,5.76
53.56,5.85,0.09,5.84,0.08,-0.06,-0.09,-0.22,5.79,5.78,5.76
54.10,5.89,0.12,5.87,0.10,-0.09,-0.13,-0.31,5.80,5.78,5.77
54.64,5.89,0.12,5.90,0.13,-0.13,-0.17,-0.39,5.76,5.77,5.77
55.18,5.91,0.14,5.92,0.16,-0.16,-0.21,-0.47,5.75,5.76,5.77
55.74,5.96,0.20,5.95,0.18,-0.20,-0.25,-0.55,5.76,5.75,5.76
56.29,5.99,0.23,5.98,0.22,-0.23,-0.29,-0.63,5.76,5.75,5.76
56.86,5.99,0.23,6.01,0.26,-0.26,-0.33,-0.70,5.73,5.75,5.76
57.42,6.03,0.29,6.04,0.29,-0.29,-0.37,-0.77,5.74,5.75,5.74
58.00,6.09,0.36,6.07,0.33,-0.32,-0.41,-0.84,5.77,5.75,5.73
58.58,6.09,0.37,6.09,0.37,-0.34,-0.45,-0.91,5.75,5.75,5.72
59.16,6.09,0.38,6.10,0.39,-0.37,-0.49,-0.97,5.72,5.73,5.71
59.76,6.09,0.40,6.09,0.40,-0.39,-0.53,-1.03,5.70,5.70,5.69
60.35,6.09,0.42,6.09,0.42,-0.43,-0.57,-1.09,5.66,5.66,5.67
60.96,6.09,0.45,6.08,0.44,-0.47,-0.61,-1.14,5.62,5.62,5.64
61.57,6.09,0.47,6.09,0.48,-0.52,-0.65,-1.20,5.57,5.57,5.62
62.18,6.11,0.53,6.12,0.54,-0.58,-0.68,-1.24,5.53,5.55,5.58
62.80,6.18,0.63,6.18,0.63,-0.64,-0.72,-1.29,5.54,5.54,5.55
63.43,6.24,0.74,6.24,0.73,-0.71,-0.76,-1.33,5.53,5.53,5.50
64.07,6.30,0.83,6.28,0.82,-0.78,-0.80,-1.37,5.52,5.50,5.46
64.71,6.30,0.88,6.30,0.88,-0.85,-0.84,-1.40,5.45,5.45,5.42
65.35,6.30,0.92,6.31,0.93,-0.91,-0.88,-1.44,5.39,5.39,5.38
66.01,6.30,0.96,6.30,0.96,-0.96,-0.92,-1.47,5.34,5.34,5.34
66.67,6.30,1.00,6.30,1.00,-1.01,-0.95,-1.50,5.29,5.29,5.30
67.33,6.30,1.03,6.30,1.03,-1.04,-0.99,-1.52,5.26,5.26,5.27
68.01,6.30,1.07,6.30,1.07,-1.06,-1.03,-1.55,5.23,5.23,5.23
68.69,6.30,1.10,6.30,1.10,-1.09,-1.07,-1.57,5.21,5.21,5.20
69.37,6.30,1.13,6.30,1.13,-1.13,-1.11,-1.59,5.17,5.17,5.17
70.07,6.30,1.16,6.30,1.16,-1.16,-1.15,-1.61,5.14,5.13,5.14
70.77,6.30,1.19,6.29,1.19,-1.21,-1.19,-1.62,5.09,5.09,5.11
71.48,6.30,1.22,6.31,1.23,-1.25,-1.23,-1.64,5.05,5.06,5.08
72.19,6.32,1.27,6.34,1.29,-1.30,-1.27,-1.65,5.02,5.04,5.05
72.91,6.39,1.38,6.37,1.35,-1.35,-1.31,-1.67,5.04,5.02,5.01
73.64,6.40,1.42,6.39,1.41,-1.39,-1.35,-1.68,5.01,5.00,4.98
74.38,6.40,1.46,6.41,1.46,-1.44,-1.39,-1.70,4.96,4.96,4.94
75.12,6.40,1.49,6.40,1.49,-1.49,-1.43,-1.71,4.91,4.91,4.91
75.87,6.40,1.54,6.40,1.54,-1.54,-1.46,-1.72,4.86,4.86,4.86
76.63,6.40,1.58,6.40,1.58,-1.58,-1.50,-1.74,4.82,4.82,4.82
77.40,6.40,1.62,6.40,1.62,-1.63,-1.54,-1.75,4.77,4.77,4.78
78.17,6.40,1.66,6.40,1.66,-1.67,-1.58,-1.77,4.73,4.73,4.74
78.95,6.40,1.71,6.40,1.71,-1.71,-1.63,-1.78,4.69,4.69,4.69
79.74,6.40,1.75,6.40,1.75,-1.75,-1.67,-1.80,4.65,4.65,4.65
80.54,6.40,1.80,6.40,1.80,-1.80,-1.71,-1.82,4.60,4.60,4.60
81.35,6.40,1.84,6.40,1.84,-1.84,-1.75,-1.84,4.56,4.56,4.56
82.16,6.40,1.88,6.40,1.88,-1.88,-1.79,-1.86,4.52,4.52,4.52
82.98,6.40,1.92,6.40,1.92,-1.92,-1.83,-1.88,4.48,4.48,4.48
83.81,6.40,1.97,6.40,1.96,-1.96,-1.87,-1.90,4.44,4.44,4.43
84.65,6.40,2.00,6.40,2.00,-2.00,-1.91,-1.92,4.40,4.40,4.40
85.50,6.40,2.04,6.40,2.04,-2.05,-1.95,-1.95,4.35,4.35,4.36
86.35,6.40,2.09,6.40,2.09,-2.09,-1.99,-1.97,4.31,4.31,4.31
87.22,6.40,2.13,6.40,2.13,-2.14,-2.03,-2.00,4.26,4.26,4.27
88.09,6.40,2.18,6.40,2.17,-2.18,-2.07,-2.03,4.22,4.22,4.22
88.97,6.40,2.21,6.40,2.21,-2.21,-2.11,-2.06,4.19,4.19,4.19
89.86,6.40,2.26,6.40,2.26,-2.25,-2.15,-2.10,4.15,4.16,4.14
90.76,6.40,2.30,6.40,2.30,-2.28,-2.19,-2.13,4.12,4.12,4.10
91.66,6.40,2.34,6.38,2.32,-2.31,-2.23,-2.17,4.09,4.08,4.06
92.58,6.35,2.33,6.35,2.33,-2.33,-2.27,-2.20,4.02,4.02,4.02
93.51,6.31,2.33,6.32,2.34,-2.36,-2.31,-2.24,3.95,3.96,3.98
94.44,6.30,2.36,6.30,2.36,-2.38,-2.35,-2.28,3.92,3.92,3.94
95.39,6.30,2.40,6.30,2.40,-2.41,-2.39,-2.32,3.89,3.89,3.90
96.34,6.30,2.44,6.30,2.43,-2.43,-2.43,-2.37,3.87,3.86,3.86
97.30,6.29,2.47,6.29,2.47,-2.46,-2.47,-2.41,3.83,3.83,3.82
98.28,6.28,2.50,6.28,2.50,-2.49,-2.51,-2.46,3.79,3.79,3.78
99.26,6.27,2.53,6.27,2.53,-2.52,-2.55,-2.51,3.75,3.74,3.74
100.25,6.25,2.55,6.25,2.55,-2.56,-2.59,-2.55,3.69,3.69,3.70
101.25,6.23,2.57,6.23,2.58,-2.59,-2.63,-2.60,3.64,3.65,3.66
102.27,6.22,2.61,6.22,2.61,-2.62,-2.67,-2.65,3.60,3.60,3.61
103.29,6.21,2.65,6.21,2.65,-2.64,-2.71,-2.70,3.57,3.57,3.56
104.32,6.19,2.68,6.19,2.68,-2.66,-2.75,-2.76,3.53,3.53,3.51
105.37,6.17,2.70,6.17,2.70,-2.69,-2.79,-2.81,3.48,3.48,3.47
106.42,6.14,2.72,6.14,2.72,-2.72,-2.82,-2.86,3.42,3.43,3.42
107.48,6.12,2.75,6.12,2.74,-2.75,-2.86,-2.91,3.37,3.37,3.37
108.56,6.09,2.77,6.09,2.76,-2.78,-2.90,-2.96,3.31,3.31,3.32
109.64,6.07,2.80,6.07,2.79,-2.81,-2.94,-3.02,3.26,3.25,3.27
110.74,6.05,2.82,6.07,2.84,-2.85,-2.97,-3.07,3.20,3.22,3.23
111.85,6.09,2.89,6.09,2.89,-2.89,-3.01,-3.12,3.20,3.20,3.20
112.97,6.13,2.97,6.11,2.95,-2.93,-3.05,-3.17,3.19,3.17,3.16
114.10,6.12,3.00,6.12,3.00,-2.98,-3.08,-3.22,3.14,3.14,3.12
115.24,6.12,3.03,6.12,3.03,-3.04,-3.12,-3.26,3.08,3.08,3.09
116.39,6.12,3.07,6.12,3.06,-3.09,-3.16,-3.31,3.03,3.04,3.05
117.55,6.13,3.10,6.15,3.12,-3.13,-3.19,-3.35,3.00,3.02,3.03
118.73,6.20,3.19,6.19,3.18,-3.18,-3.23,-3.39,3.02,3.01,3.01
119.92,6.24,3.25,6.22,3.23,-3.22,-3.26,-3.43,3.02,3.01,2.99
121.12,6.24,3.27,6.25,3.27,-3.25,-3.30,-3.47,2.99,2.99,2.97
122.33,6.25,3.29,6.25,3.30,-3.29,-3.33,-3.50,2.96,2.96,2.96
123.55,6.26,3.32,6.26,3.32,-3.32,-3.37,-3.53,2.94,2.94,2.94
124.79,6.27,3.34,6.27,3.34,-3.34,-3.41,-3.56,2.93,2.92,2.93
126.03,6.27,3.36,6.27,3.36,-3.36,-3.44,-3.59,2.91,2.91,2.91
127.29,6.28,3.38,6.28,3.38,-3.38,-3.48,-3.62,2.90,2.90,2.90
128.57,6.29,3.41,6.29,3.40,-3.40,-3.51,-3.64,2.89,2.89,2.88
129.85,6.29,3.42,6.29,3.42,-3.43,-3.55,-3.66,2.86,2.86,2.87
131.15,6.30,3.44,6.29,3.44,-3.46,-3.58,-3.68,2.83,2.83,2.86
132.46,6.30,3.47,6.31,3.47,-3.51,-3.62,-3.69,2.79,2.80,2.83
133.79,6.33,3.51,6.35,3.53,-3.56,-3.65,-3.71,2.77,2.79,2.82
135.12,6.42,3.62,6.41,3.61,-3.60,-3.68,-3.72,2.81,2.81,2.80
136.48,6.48,3.69,6.47,3.69,-3.65,-3.72,-3.73,2.83,2.82,2.79
137.84,6.52,3.75,6.51,3.74,-3.70,-3.76,-3.74,2.82,2.82,2.77
139.22,6.52,3.77,6.52,3.77,-3.74,-3.79,-3.75,2.78,2.78,2.75
140.61,6.52,3.79,6.52,3.79,-3.78,-3.83,-3.76,2.74,2.74,2.73
142.02,6.52,3.81,6.51,3.80,-3.83,-3.86,-3.77,2.69,2.69,2.71
143.44,6.52,3.84,6.52,3.84,-3.87,-3.90,-3.77,2.65,2.65,2.68
144.87,6.52,3.86,6.54,3.88,-3.91,-3.93,-3.78,2.60,2.62,2.66
146.32,6.59,3.96,6.58,3.95,-3.97,-3.97,-3.79,2.62,2.61,2.63
147.78,6.62,4.03,6.63,4.03,-4.02,-4.00,-3.80,2.59,2.60,2.59
149.26,6.68,4.12,6.68,4.12,-4.10,-4.04,-3.81,2.58,2.58,2.56
150.75,6.72,4.21,6.70,4.19,-4.18,-4.08,-3.82,2.54,2.52,2.51
152.26,6.72,4.26,6.72,4.26,-4.27,-4.11,-3.84,2.45,2.45,2.46
153.78,6.72,4.32,6.74,4.34,-4.36,-4.15,-3.85,2.36,2.38,2.40
155.32,6.77,4.43,6.76,4.42,-4.46,-4.19,-3.87,2.31,2.31,2.34
156.88,6.82,4.53,6.81,4.53,-4.55,-4.22,-3.89,2.27,2.26,2.29
158.44,6.85,4.62,6.87,4.64,-4.64,-4.26,-3.91,2.21,2.23,2.23
160.03,6.92,4.74,6.90,4.72,-4.71,-4.30,-3.93,2.21,2.19,2.17
161.63,6.92,4.79,6.92,4.79,-4.77,-4.34,-3.96,2.15,2.15,2.13
163.24,6.92,4.84,6.94,4.85,-4.80,-4.38,-3.99,2.12,2.14,2.08
164.88,6.92,4.87,6.92,4.87,-4.81,-4.41,-4.02,2.10,2.10,2.05
166.53,6.91,4.89,6.87,4.85,-4.81,-4.45,-4.05,2.10,2.06,2.02
168.19,6.79,4.78,6.79,4.79,-4.79,-4.49,-4.09,2.00,2.01,2.01
169.87,6.70,4.70,6.71,4.72,-4.75,-4.53,-4.13,1.95,1.96,2.00
171.57,6.64,4.65,6.66,4.67,-4.72,-4.57,-4.17,1.92,1.95,1.99
173.29,6.67,4.68,6.66,4.66,-4.68,-4.61,-4.22,1.99,1.97,1.99
175.02,6.68,4.67,6.67,4.66,-4.66,-4.65,-4.27,2.02,2.00,2.01
176.77,6.68,4.66,6.67,4.65,-4.66,-4.69,-4.32,2.02,2.01,2.02
178.54,6.68,4.64,6.68,4.64,-4.67,-4.73,-4.38,2.01,2.01,2.03
180.32,6.69,4.63,6.73,4.67,-4.69,-4.77,-4.44,2.00,2.04,2.06
182.13,6.80,4.72,6.80,4.72,-4.71,-4.82,-4.50,2.09,2.08,2.07
183.95,6.90,4.80,6.86,4.77,-4.74,-4.86,-4.56,2.16,2.12,2.10
185.79,6.91,4.80,6.92,4.81,-4.77,-4.90,-4.63,2.14,2.15,2.11
187.65,6.92,4.81,6.93,4.81,-4.80,-4.94,-4.71,2.12,2.13,2.11
189.52,6.94,4.82,6.93,4.82,-4.83,-4.98,-4.78,2.11,2.10,2.12
191.42,6.95,4.83,6.97,4.84,-4.87,-5.03,-4.86,2.08,2.10,2.12
193.33,7.01,4.88,7.01,4.89,-4.90,-5.07,-4.94,2.11,2.11,2.13
195.27,7.07,4.95,7.05,4.93,-4.93,-5.11,-5.02,2.14,2.12,2.12
197.22,7.10,4.99,7.09,4.98,-4.96,-5.16,-5.11,2.14,2.13,2.11
199.19,7.11,5.00,7.12,5.01,-5.00,-5.20,-5.20,2.11,2.12,2.11
201.18,7.15,5.05,7.15,5.05,-5.05,-5.24,-5.29,2.10,2.11,2.10
203.19,7.20,5.11,7.19,5.09,-5.10,-5.29,-5.38,2.10,2.09,2.09
205.23,7.22,5.14,7.22,5.14,-5.15,-5.33,-5.47,2.07,2.07,2.08
207.28,7.25,5.18,7.26,5.19,-5.20,-5.38,-5.57,2.05,2.06,2.07
209.35,7.30,5.24,7.30,5.24,-5.26,-5.42,-5.66,2.04,2.04,2.06
211.44,7.37,5.33,7.37,5.32,-5.32,-5.47,-5.76,2.05,2.05,2.04
213.56,7.42,5.38,7.43,5.40,-5.39,-5.51,-5.86,2.03,2.05,2.04
215.69,7.51,5.49,7.47,5.45,-5.45,-5.56,-5.95,2.06,2.02,2.02
217.85,7.51,5.50,7.51,5.50,-5.52,-5.60,-6.05,1.99,1.99,2.01
220.03,7.51,5.52,7.57,5.57,-5.57,-5.65,-6.14,1.94,1.99,1.99
222.23,7.64,5.66,7.62,5.64,-5.62,-5.70,-6.24,2.02,2.00,1.98
224.45,7.72,5.74,7.68,5.71,-5.67,-5.74,-6.33,2.05,2.01,1.98
226.70,7.70,5.73,7.71,5.74,-5.71,-5.79,-6.41,1.99,2.00,1.97
228.96,7.71,5.75,7.71,5.75,-5.75,-5.84,-6.50,1.96,1.96,1.96
231.25,7.71,5.74,7.72,5.76,-5.79,-5.89,-6.58,1.92,1.93,1.97
233.57,7.77,5.81,7.77,5.81,-5.83,-5.93,-6.65,1.94,1.94,1.96
235.90,7.84,5.87,7.84,5.88,-5.87,-5.98,-6.72,1.97,1.97,1.96
238.26,7.92,5.95,7.91,5.94,-5.92,-6.03,-6.79,2.00,1.99,1.97
240.64,7.97,5.99,7.94,5.96,-5.97,-6.08,-6.85,2.00,1.97,1.98
243.05,7.97,5.98,8.00,6.01,-6.03,-6.12,-6.90,1.94,1.97,1.99
245.48,8.02,6.03,8.08,6.09,-6.09,-6.17,-6.95,1.93,1.99,1.99
247.93,8.24,6.24,8.15,6.16,-6.15,-6.22,-6.99,2.09,2.00,2.00
250.41,8.24,6.24,8.24,6.24,-6.21,-6.27,-7.03,2.03,2.03,2.00
252.92,8.25,6.24,8.30,6.30,-6.27,-6.32,-7.05,1.98,2.03,2.01
255.45,8.36,6.36,8.32,6.31,-6.33,-6.37,-7.07,2.03,1.99,2.00
258.00,8.39,6.39,8.38,6.38,-6.40,-6.42,-7.09,1.99,1.99,2.00
260.58,8.40,6.40,8.46,6.46,-6.46,-6.47,-7.10,1.94,2.00,2.00
263.19,8.55,6.56,8.51,6.52,-6.53,-6.52,-7.10,2.02,1.98,1.99
265.82,8.60,6.61,8.57,6.58,-6.59,-6.57,-7.10,2.01,1.98,1.99
268.48,8.59,6.61,8.64,6.65,-6.66,-6.62,-7.09,1.93,1.98,1.98
271.16,8.70,6.72,8.70,6.72,-6.72,-6.67,-7.08,1.98,1.98,1.98
273.87,8.79,6.81,8.78,6.81,-6.78,-6.72,-7.07,2.01,2.00,1.98
276.61,8.87,6.90,8.85,6.88,-6.84,-6.77,-7.05,2.03,2.01,1.97
279.38,8.90,6.93,8.89,6.91,-6.90,-6.82,-7.03,2.00,1.99,1.97
282.17,8.89,6.91,8.91,6.93,-6.97,-6.87,-7.01,1.92,1.94,1.98
284.99,8.95,6.96,8.95,6.97,-7.02,-6.92,-6.98,1.93,1.93,1.99
287.84,9.00,7.02,9.04,7.06,-7.07,-6.97,-6.96,1.93,1.97,1.98
290.72,9.17,7.18,9.14,7.15,-7.12,-7.02,-6.93,2.05,2.02,1.99
293.63,9.26,7.26,9.22,7.22,-7.17,-7.07,-6.91,2.09,2.05,2.00
296.57,9.24,7.24,9.25,7.25,-7.21,-7.12,-6.88,2.02,2.04,2.00
299.53,9.25,7.25,9.26,7.26,-7.26,-7.17,-6.86,1.98,2.00,2.00
302.53,9.26,7.25,9.28,7.27,-7.31,-7.22,-6.84,1.95,1.97,2.01
305.55,9.36,7.35,9.34,7.33,-7.36,-7.28,-6.82,2.00,1.98,2.01
308.61,9.38,7.37,9.40,7.40,-7.40,-7.33,-6.80,1.98,2.00,2.01
311.69,9.48,7.48,9.46,7.46,-7.45,-7.38,-6.79,2.03,2.01,2.00
314.81,9.50,7.51,9.49,7.50,-7.50,-7.43,-6.77,2.00,2.00,1.99
317.96,9.52,7.53,9.54,7.55,-7.55,-7.48,-6.77,1.97,1.99,1.99
321.14,9.58,7.60,9.58,7.60,-7.60,-7.53,-6.76,1.98,1.98,1.98
324.35,9.65,7.67,9.64,7.67,-7.65,-7.58,-6.76,2.00,1.99,1.98
327.59,9.69,7.73,9.67,7.71,-7.70,-7.63,-6.77,1.99,1.97,1.96
330.87,9.70,7.75,9.70,7.74,-7.75,-7.69,-6.78,1.95,1.95,1.95
334.18,9.69,7.75,9.72,7.77,-7.79,-7.74,-6.79,1.90,1.93,1.94
337.52,9.76,7.83,9.76,7.83,-7.84,-7.79,-6.81,1.92,1.92,1.93
340.90,9.82,7.89,9.82,7.89,-7.88,-7.84,-6.83,1.94,1.93,1.93
344.30,9.88,7.96,9.86,7.95,-7.94,-7.89,-6.86,1.94,1.92,1.92
347.75,9.89,7.99,9.89,7.99,-8.00,-7.94,-6.90,1.89,1.89,1.90
351.23,9.89,8.01,9.90,8.02,-8.05,-8.00,-6.93,1.84,1.85,1.88
354.74,9.94,8.07,9.94,8.07,-8.10,-8.05,-6.98,1.84,1.85,1.87
358.28,10.00,8.14,10.02,8.16,-8.14,-8.10,-7.03,1.86,1.89,1.86
361.87,10.10,8.25,10.08,8.24,-8.17,-8.15,-7.08,1.93,1.92,1.85
365.49,10.15,8.32,10.10,8.27,-8.20,-8.21,-7.14,1.95,1.90,1.83
369.14,10.05,8.23,10.07,8.25,-8.24,-8.26,-7.21,1.81,1.83,1.82
372.83,10.01,8.20,10.03,8.22,-8.28,-8.31,-7.28,1.73,1.75,1.81
376.56,10.01,8.21,10.04,8.24,-8.32,-8.37,-7.35,1.69,1.72,1.80
380.33,10.12,8.33,10.11,8.32,-8.36,-8.42,-7.43,1.76,1.75,1.79
384.13,10.23,8.45,10.20,8.42,-8.40,-8.48,-7.51,1.82,1.79,1.78
387.97,10.26,8.50,10.28,8.51,-8.46,-8.54,-7.60,1.80,1.82,1.76
391.85,10.33,8.58,10.32,8.56,-8.53,-8.59,-7.70,1.80,1.79,1.75
395.77,10.36,8.62,10.35,8.61,-8.61,-8.65,-7.79,1.75,1.75,1.74
399.73,10.37,8.64,10.40,8.67,-8.69,-8.72,-7.89,1.68,1.71,1.73
403.72,10.48,8.76,10.46,8.74,-8.78,-8.78,-8.00,1.70,1.68,1.72
407.76,10.55,8.85,10.54,8.84,-8.86,-8.85,-8.11,1.69,1.68,1.70
411.84,10.62,8.93,10.64,8.95,-8.96,-8.92,-8.22,1.66,1.69,1.69
415.96,10.75,9.07,10.75,9.07,-9.06,-8.99,-8.33,1.69,1.68,1.68
420.12,10.87,9.19,10.85,9.18,-9.17,-9.06,-8.44,1.70,1.68,1.68
424.32,10.95,9.28,10.95,9.28,-9.28,-9.14,-8.56,1.67,1.67,1.67
428.56,11.03,9.36,11.05,9.38,-9.38,-9.22,-8.67,1.65,1.68,1.67
432.85,11.15,9.47,11.17,9.49,-9.47,-9.31,-8.79,1.68,1.70,1.68
437.18,11.31,9.62,11.27,9.58,-9.56,-9.39,-8.90,1.75,1.72,1.69
441.55,11.36,9.65,11.34,9.64,-9.63,-9.48,-9.01,1.73,1.71,1.71
445.96,11.39,9.66,11.41,9.68,-9.70,-9.57,-9.11,1.69,1.71,1.73
450.42,11.44,9.68,11.48,9.73,-9.76,-9.66,-9.21,1.68,1.72,1.76
454.93,11.61,9.81,11.58,9.79,-9.81,-9.75,-9.30,1.80,1.77,1.79
459.48,11.70,9.87,11.68,9.85,-9.84,-9.82,-9.39,1.86,1.85,1.83
464.07,11.74,9.88,11.76,9.90,-9.86,-9.89,-9.46,1.88,1.91,1.86
468.71,11.82,9.92,11.79,9.89,-9.87,-9.95,-9.52,1.95,1.93,1.90
473.40,11.81,9.87,11.82,9.88,-9.87,-9.98,-9.58,1.94,1.95,1.94
478.13,11.81,9.83,11.82,9.84,-9.85,-10.00,-9.61,1.96,1.97,1.98
482.91,11.84,9.83,11.81,9.80,-9.82,-9.98,-9.64,2.02,2.00,2.01
487.74,11.78,9.74,11.81,9.77,-9.77,-9.94,-9.65,2.01,2.04,2.04
492.62,11.80,9.74,11.78,9.72,-9.72,-9.88,-9.64,2.08,2.06,2.06
497.55,11.75,9.67,11.74,9.65,-9.66,-9.79,-9.61,2.09,2.07,2.08
502.52,11.67,9.58,11.68,9.59,-9.60,-9.68,-9.57,2.07,2.08,2.09
507.55,11.60,9.51,11.61,9.52,-9.53,-9.55,-9.51,2.07,2.08,2.09
512.62,11.54,9.46,11.53,9.45,-9.46,-9.40,-9.43,2.08,2.08,2.08
517.75,11.44,9.38,11.43,9.37,-9.37,-9.25,-9.34,2.07,2.07,2.06
522.93,11.31,9.27,11.32,9.28,-9.26,-9.09,-9.23,2.05,2.05,2.04
528.16,11.16,9.16,11.16,9.16,-9.15,-8.93,-9.11,2.01,2.01,2.00
533.44,11.00,9.05,10.99,9.03,-9.03,-8.76,-8.97,1.97,1.95,1.95
538.77,10.78,8.88,10.80,8.90,-8.90,-8.59,-8.82,1.88,1.90,1.90
544.16,10.58,8.74,10.57,8.73,-8.75,-8.43,-8.66,1.83,1.83,1.84
