frequency,raw,error,smoothed,error_smoothed,equalization,parametric_eq,fixed_band_eq,equalized_raw,equalized_smoothed,target
20.00,-17.67,-13.92,-17.68,-13.92,6.00,6.50,2.87,-11.67,-11.68,-3.75
20.20,-17.58,-13.83,-17.58,-13.83,6.00,6.50,2.95,-11.58,-11.58,-3.75
20.40,-17.51,-13.75,-17.48,-13.73,6.00,6.49,3.03,-11.51,-11.48,-3.75
20.61,-17.37,-13.62,-17.37,-13.61,6.00,6.48,3.12,-11.37,-11.37,-3.75
20.81,-17.23,-13.47,-17.24,-13.48,6.00,6.47,3.21,-11.23,-11.24,-3.75
21.02,-17.10,-13.35,-17.10,-13.35,6.00,6.47,3.30,-11.10,-11.10,-3.75
21.23,-16.99,-13.24,-17.00,-13.24,6.00,6.46,3.39,-10.99,-11.00,-3.75
21.44,-16.91,-13.15,-16.91,-13.15,6.00,6.45,3.49,-10.91,-10.91,-3.75
21.66,-16.83,-13.08,-16.83,-13.07,6.00,6.44,3.59,-10.83,-10.83,-3.75
21.87,-16.75,-12.99,-16.75,-12.99,6.00,6.43,3.69,-10.75,-10.75,-3.75
22.09,-16.65,-12.89,-16.65,-12.90,6.00,6.43,3.80,-10.65,-10.65,-3.75
22.31,-16.56,-12.80,-16.55,-12.80,6.00,6.42,3.91,-10.56,-10.55,-3.75
22.54,-16.43,-12.68,-16.44,-12.68,6.00,6.41,4.02,-10.43,-10.44,-3.75
22.76,-16.32,-12.56,-16.31,-12.56,6.00,6.40,4.13,-10.32,-10.31,-3.75
22.99,-16.18,-12.43,-16.19,-12.43,6.00,6.39,4.25,-10.18,-10.19,-3.75
23.22,-16.06,-12.31,-16.06,-12.30,6.00,6.38,4.37,-10.06,-10.06,-3.75
23.45,-15.93,-12.17,-15.93,-12.17,6.00,6.37,4.49,-9.93,-9.93,-3.75
23.69,-15.79,-12.04,-15.80,-12.05,6.00,6.36,4.62,-9.79,-9.80,-3.75
23.92,-15.69,-11.93,-15.68,-11.93,6.00,6.35,4.74,-9.69,-9.68,-3.75
24.16,-15.58,-11.82,-15.57,-11.82,6.00,6.34,4.87,-9.58,-9.57,-3.75
24.40,-15.47,-11.71,-15.48,-11.72,6.00,6.33,5.00,-9.47,-9.48,-3.75
24.65,-15.38,-11.63,-15.38,-11.63,6.00,6.32,5.14,-9.38,-9.38,-3.75
24.89,-15.30,-11.54,-15.29,-11.53,6.00,6.31,5.27,-9.30,-9.29,-3.75
25.14,-15.19,-11.43,-15.18,-11.43,6.00,6.30,5.41,-9.19,-9.18,-3.75
25.39,-15.06,-11.30,-15.07,-11.32,6.00,6.29,5.55,-9.06,-9.07,-3.75
25.65,-14.95,-11.20,-14.95,-11.20,6.00,6.28,5.69,-8.95,-8.95,-3.75
25.91,-14.84,-11.09,-14.83,-11.08,6.00,6.26,5.83,-8.84,-8.83,-3.75
26.16,-14.71,-10.95,-14.71,-10.96,6.00,6.25,5.97,-8.71,-8.71,-3.75
26.43,-14.59,-10.84,-14.59,-10.84,6.00,6.24,6.11,-8.59,-8.59,-3.75
26.69,-14.46,-10.71,-14.46,-10.71,6.00,6.23,6.24,-8.46,-8.46,-3.75
26.96,-14.35,-10.60,-14.34,-10.58,6.00,6.22,6.38,-8.35,-8.34,-3.75
27.23,-14.20,-10.45,-14.21,-10.46,6.00,6.20,6.51,-8.20,-8.21,-3.75
27.50,-14.09,-10.34,-14.09,-10.34,6.00,6.19,6.64,-8.09,-8.09,-3.75
27.77,-13.98,-10.22,-13.98,-10.22,6.00,6.18,6.77,-7.98,-7.98,-3.75
28.05,-13.87,-10.11,-13.87,-10.11,6.00,6.17,6.89,-7.87,-7.87,-3.75
28.33,-13.76,-10.00,-13.76,-10.00,6.00,6.15,7.00,-7.76,-7.76,-3.75
28.62,-13.65,-9.90,-13.65,-9.90,6.00,6.14,7.11,-7.65,-7.65,-3.75
28.90,-13.54,-9.78,-13.54,-9.79,6.00,6.13,7.21,-7.54,-7.54,-3.75
29.19,-13.44,-9.69,-13.44,-9.68,6.00,6.11,7.30,-7.44,-7.44,-3.75
29.48,-13.33,-9.57,-13.33,-9.57,6.00,6.10,7.38,-7.33,-7.33,-3.75
29.78,-13.22,-9.47,-13.22,-9.47,6.00,6.09,7.45,-7.22,-7.22,-3.75
30.08,-13.11,-9.36,-13.11,-9.36,6.00,6.07,7.51,-7.11,-7.11,-3.75
30.38,-13.00,-9.25,-13.00,-9.25,6.00,6.06,7.56,-7.00,-7.00,-3.75
30.68,-12.89,-9.14,-12.89,-9.13,6.00,6.05,7.59,-6.89,-6.89,-3.75
30.99,-12.77,-9.02,-12.76,-9.01,6.00,6.03,7.61,-6.77,-6.76,-3.75
31.30,-12.63,-8.88,-12.64,-8.89,6.00,6.02,7.61,-6.63,-6.64,-3.75
31.61,-12.52,-8.77,-12.52,-8.77,6.00,6.01,7.61,-6.52,-6.52,-3.75
31.93,-12.41,-8.66,-12.40,-8.65,6.00,6.00,7.59,-6.41,-6.40,-3.75
32.24,-12.28,-8.52,-12.28,-8.53,6.00,5.98,7.56,-6.28,-6.28,-3.75
32.57,-12.16,-8.41,-12.16,-8.41,6.00,5.97,7.51,-6.16,-6.16,-3.75
32.89,-12.04,-8.28,-12.04,-8.29,6.00,5.96,7.45,-6.04,-6.04,-3.75
33.22,-11.93,-8.17,-11.93,-8.17,6.00,5.95,7.38,-5.93,-5.93,-3.75
33.55,-11.82,-8.06,-11.82,-8.06,6.00,5.95,7.31,-5.82,-5.82,-3.75
33.89,-11.71,-7.96,-11.71,-7.96,6.00,5.94,7.21,-5.71,-5.71,-3.75
34.23,-11.60,-7.85,-11.60,-7.84,6.00,5.93,7.12,-5.60,-5.60,-3.75
34.57,-11.49,-7.74,-11.49,-7.74,6.00,5.93,7.01,-5.49,-5.49,-3.75
34.92,-11.38,-7.63,-11.39,-7.64,6.00,5.93,6.90,-5.38,-5.39,-3.75
35.27,-11.30,-7.55,-11.29,-7.54,6.00,5.93,6.78,-5.30,-5.29,-3.75
35.62,-11.19,-7.44,-11.19,-7.44,6.00,5.93,6.66,-5.19,-5.19,-3.75
35.97,-11.09,-7.33,-11.09,-7.34,6.00,5.93,6.54,-5.09,-5.09,-3.75
36.33,-10.99,-7.23,-10.98,-7.23,6.00,5.93,6.41,-4.99,-4.98,-3.75
36.70,-10.88,-7.13,-10.88,-7.13,6.00,5.94,6.27,-4.88,-4.88,-3.75
37.06,-10.77,-7.01,-10.77,-7.02,6.00,5.94,6.14,-4.77,-4.77,-3.75
37.43,-10.67,-6.91,-10.66,-6.91,6.00,5.95,6.01,-4.67,-4.66,-3.75
37.81,-10.56,-6.81,-10.56,-6.81,6.00,5.95,5.87,-4.56,-4.56,-3.75
38.19,-10.45,-6.70,-10.45,-6.70,6.00,5.95,5.74,-4.45,-4.45,-3.75
38.57,-10.36,-6.61,-10.35,-6.60,6.00,5.95,5.60,-4.36,-4.35,-3.75
38.95,-10.25,-6.49,-10.26,-6.50,6.01,5.94,5.47,-4.24,-4.25,-3.75
39.34,-10.17,-6.41,-10.17,-6.41,6.02,5.92,5.34,-4.15,-4.15,-3.75
39.74,-10.08,-6.33,-10.07,-6.32,6.02,5.88,5.21,-4.06,-4.06,-3.75
40.14,-9.97,-6.22,-9.98,-6.23,6.01,5.84,5.08,-3.97,-3.98,-3.75
40.54,-9.89,-6.14,-9.88,-6.13,5.98,5.79,4.96,-3.91,-3.90,-3.75
40.94,-9.78,-6.03,-9.78,-6.03,5.95,5.72,4.84,-3.83,-3.83,-3.75
41.35,-9.69,-5.94,-9.69,-5.93,5.90,5.65,4.72,-3.79,-3.79,-3.75
41.76,-9.58,-5.82,-9.59,-5.84,5.84,5.58,4.60,-3.74,-3.76,-3.75
42.18,-9.52,-5.76,-9.50,-5.75,5.76,5.49,4.48,-3.76,-3.74,-3.75
42.60,-9.41,-5.65,-9.41,-5.65,5.67,5.41,4.37,-3.74,-3.74,-3.75
43.03,-9.30,-5.55,-9.31,-5.56,5.57,5.32,4.26,-3.73,-3.74,-3.75
43.46,-9.22,-5.47,-9.21,-5.46,5.46,5.23,4.16,-3.76,-3.75,-3.75
43.90,-9.11,-5.36,-9.11,-5.36,5.35,5.15,4.06,-3.77,-3.76,-3.75
44.33,-9.00,-5.24,-9.00,-5.24,5.23,5.06,3.96,-3.76,-3.76,-3.75
44.78,-8.87,-5.12,-8.87,-5.12,5.12,4.98,3.86,-3.75,-3.75,-3.75
45.23,-8.74,-4.99,-8.75,-4.99,5.01,4.90,3.77,-3.74,-3.74,-3.75
45.68,-8.63,-4.88,-8.63,-4.88,4.89,4.82,3.68,-3.74,-3.74,-3.75
46.13,-8.52,-4.76,-8.52,-4.76,4.76,4.74,3.59,-3.75,-3.75,-3.75
46.60,-8.41,-4.66,-8.40,-4.65,4.64,4.66,3.50,-3.77,-3.76,-3.75
47.06,-8.28,-4.53,-8.28,-4.52,4.51,4.58,3.42,-3.77,-3.77,-3.75
47.53,-8.15,-4.39,-8.15,-4.40,4.39,4.50,3.34,-3.76,-3.76,-3.75
48.01,-8.01,-4.26,-8.02,-4.26,4.26,4.43,3.26,-3.75,-3.76,-3.75
48.49,-7.89,-4.14,-7.88,-4.13,4.13,4.35,3.19,-3.76,-3.75,-3.75
48.97,-7.75,-3.99,-7.75,-4.00,4.01,4.27,3.12,-3.74,-3.75,-3.75
49.46,-7.63,-3.87,-7.63,-3.88,3.88,4.19,3.05,-3.75,-3.75,-3.75
49.96,-7.51,-3.76,-7.51,-3.76,3.76,4.11,2.98,-3.75,-3.75,-3.75
50.46,-7.40,-3.65,-7.40,-3.64,3.65,4.04,2.92,-3.75,-3.75,-3.75
50.96,-7.29,-3.54,-7.29,-3.53,3.54,3.96,2.85,-3.75,-3.75,-3.75
51.47,-7.18,-3.43,-7.19,-3.43,3.43,3.88,2.79,-3.75,-3.76,-3.75
51.99,-7.09,-3.34,-7.09,-3.33,3.33,3.80,2.73,-3.76,-3.76,-3.75
52.51,-6.99,-3.24,-6.98,-3.23,3.22,3.71,2.68,-3.77,-3.76,-3.75
53.03,-6.88,-3.13,-6.88,-3.13,3.12,3.63,2.62,-3.76,-3.76,-3.75
53.56,-6.77,-3.02,-6.78,-3.02,3.02,3.55,2.57,-3.75,-3.75,-3.75
54.10,-6.68,-2.93,-6.67,-2.92,2.92,3.46,2.51,-3.76,-3.75,-3.75
54.64,-6.57,-2.82,-6.58,-2.82,2.82,3.38,2.46,-3.75,-3.76,-3.75
55.18,-6.49,-2.73,-6.48,-2.72,2.72,3.29,2.41,-3.76,-3.75,-3.75
55.74,-6.38,-2.63,-6.38,-2.63,2.63,3.20,2.36,-3.75,-3.75,-3.75
56.29,-6.28,-2.53,-6.29,-2.53,2.54,3.11,2.31,-3.74,-3.75,-3.75
56.86,-6.21,-2.46,-6.20,-2.44,2.45,3.02,2.27,-3.76,-3.75,-3.75
57.42,-6.10,-2.35,-6.11,-2.36,2.36,2.93,2.22,-3.74,-3.75,-3.75
58.00,-6.04,-2.29,-6.03,-2.28,2.27,2.83,2.17,-3.77,-3.76,-3.75
58.58,-5.95,-2.20,-5.95,-2.20,2.19,2.74,2.13,-3.76,-3.76,-3.75
59.16,-5.87,-2.11,-5.87,-2.11,2.11,2.64,2.08,-3.76,-3.76,-3.75
59.76,-5.78,-2.03,-5.78,-2.02,2.02,2.55,2.03,-3.76,-3.75,-3.75
60.35,-5.69,-1.94,-5.69,-1.94,1.94,2.45,1.99,-3.75,-3.75,-3.75
60.96,-5.61,-1.86,-5.61,-1.86,1.86,2.35,1.94,-3.75,-3.75,-3.75
61.57,-5.54,-1.79,-5.54,-1.78,1.78,2.25,1.89,-3.76,-3.75,-3.75
62.18,-5.46,-1.71,-5.46,-1.70,1.70,2.15,1.85,-3.76,-3.76,-3.75
62.80,-5.38,-1.62,-5.38,-1.63,1.62,2.05,1.80,-3.76,-3.76,-3.75
63.43,-5.30,-1.55,-5.30,-1.55,1.55,1.94,1.75,-3.75,-3.75,-3.75
64.07,-5.23,-1.48,-5.22,-1.47,1.47,1.84,1.71,-3.76,-3.75,-3.75
64.71,-5.15,-1.40,-5.15,-1.40,1.40,1.74,1.66,-3.75,-3.75,-3.75
65.35,-5.07,-1.32,-5.08,-1.33,1.33,1.63,1.61,-3.74,-3.75,-3.75
66.01,-5.02,-1.27,-5.01,-1.26,1.25,1.53,1.56,-3.77,-3.76,-3.75
66.67,-4.94,-1.19,-4.94,-1.18,1.18,1.43,1.51,-3.76,-3.75,-3.75
67.33,-4.86,-1.10,-4.87,-1.11,1.11,1.32,1.46,-3.75,-3.75,-3.75
68.01,-4.78,-1.03,-4.79,-1.03,1.04,1.22,1.42,-3.74,-3.75,-3.75
68.69,-4.73,-0.98,-4.72,-0.96,0.96,1.12,1.37,-3.77,-3.76,-3.75
69.37,-4.64,-0.89,-4.64,-0.89,0.88,1.01,1.32,-3.76,-3.76,-3.75
70.07,-4.57,-0.82,-4.57,-0.81,0.80,0.91,1.26,-3.77,-3.76,-3.75
70.77,-4.47,-0.72,-4.48,-0.72,0.72,0.81,1.21,-3.75,-3.76,-3.75
71.48,-4.40,-0.65,-4.39,-0.64,0.63,0.71,1.16,-3.77,-3.76,-3.75
72.19,-4.29,-0.54,-4.30,-0.55,0.55,0.61,1.11,-3.74,-3.75,-3.75
72.91,-4.23,-0.47,-4.22,-0.46,0.46,0.52,1.06,-3.77,-3.75,-3.75
73.64,-4.12,-0.37,-4.13,-0.38,0.38,0.42,1.01,-3.74,-3.75,-3.75
74.38,-4.06,-0.31,-4.06,-0.30,0.30,0.33,0.96,-3.76,-3.75,-3.75
75.12,-3.98,-0.23,-3.98,-0.22,0.23,0.24,0.91,-3.75,-3.75,-3.75
75.87,-3.91,-0.16,-3.91,-0.16,0.16,0.15,0.86,-3.75,-3.75,-3.75
76.63,-3.85,-0.10,-3.85,-0.10,0.10,0.06,0.80,-3.75,-3.75,-3.75
77.40,-3.80,-0.05,-3.80,-0.04,0.04,-0.02,0.75,-3.76,-3.76,-3.75
78.17,-3.74,0.01,-3.74,0.01,-0.02,-0.10,0.70,-3.76,-3.76,-3.75
78.95,-3.69,0.06,-3.68,0.07,-0.07,-0.18,0.65,-3.76,-3.75,-3.75
79.74,-3.63,0.12,-3.63,0.12,-0.12,-0.25,0.60,-3.75,-3.75,-3.75
80.54,-3.58,0.17,-3.59,0.17,-0.17,-0.32,0.55,-3.75,-3.75,-3.75
81.35,-3.55,0.20,-3.54,0.22,-0.22,-0.39,0.49,-3.77,-3.76,-3.75
82.16,-3.49,0.26,-3.50,0.26,-0.26,-0.45,0.44,-3.75,-3.76,-3.75
82.98,-3.45,0.30,-3.45,0.30,-0.31,-0.51,0.39,-3.76,-3.76,-3.75
83.81,-3.41,0.34,-3.40,0.35,-0.35,-0.57,0.34,-3.76,-3.75,-3.75
84.65,-3.37,0.38,-3.37,0.39,-0.38,-0.62,0.29,-3.75,-3.75,-3.75
85.50,-3.32,0.43,-3.33,0.43,-0.42,-0.67,0.24,-3.74,-3.75,-3.75
86.35,-3.31,0.44,-3.30,0.46,-0.45,-0.71,0.19,-3.76,-3.75,-3.75
87.22,-3.26,0.49,-3.27,0.48,-0.48,-0.75,0.13,-3.74,-3.75,-3.75
88.09,-3.26,0.49,-3.25,0.50,-0.50,-0.79,0.08,-3.76,-3.75,-3.75
88.97,-3.22,0.53,-3.23,0.53,-0.53,-0.82,0.03,-3.75,-3.75,-3.75
89.86,-3.22,0.53,-3.21,0.54,-0.55,-0.86,-0.02,-3.77,-3.76,-3.75
90.76,-3.18,0.57,-3.19,0.57,-0.58,-0.88,-0.07,-3.76,-3.76,-3.75
91.66,-3.17,0.58,-3.16,0.59,-0.60,-0.91,-0.13,-3.77,-3.77,-3.75
92.58,-3.12,0.63,-3.13,0.63,-0.64,-0.93,-0.18,-3.76,-3.76,-3.75
93.51,-3.09,0.66,-3.09,0.67,-0.67,-0.95,-0.23,-3.76,-3.76,-3.75
94.44,-3.05,0.70,-3.05,0.70,-0.70,-0.96,-0.28,-3.75,-3.75,-3.75
95.39,-3.01,0.74,-3.01,0.74,-0.73,-0.98,-0.33,-3.74,-3.75,-3.75
96.34,-2.99,0.76,-2.98,0.77,-0.76,-0.99,-0.39,-3.75,-3.75,-3.75
97.30,-2.94,0.81,-2.95,0.80,-0.79,-1.00,-0.44,-3.73,-3.75,-3.75
98.28,-2.94,0.81,-2.93,0.82,-0.82,-1.00,-0.49,-3.76,-3.75,-3.75
99.26,-2.91,0.84,-2.91,0.85,-0.85,-1.01,-0.54,-3.76,-3.75,-3.75
100.25,-2.89,0.86,-2.89,0.86,-0.87,-1.01,-0.59,-3.76,-3.76,-3.75
101.25,-2.86,0.89,-2.87,0.89,-0.90,-1.01,-0.64,-3.76,-3.76,-3.75
102.27,-2.85,0.90,-2.84,0.92,-0.92,-1.01,-0.69,-3.77,-3.76,-3.75
103.29,-2.80,0.95,-2.81,0.95,-0.95,-1.01,-0.74,-3.75,-3.76,-3.75
104.32,-2.77,0.98,-2.77,0.98,-0.98,-1.01,-0.79,-3.75,-3.75,-3.75
105.37,-2.75,1.00,-2.74,1.01,-1.01,-1.00,-0.84,-3.76,-3.75,-3.75
106.42,-2.71,1.04,-2.72,1.04,-1.03,-1.00,-0.89,-3.74,-3.75,-3.75
107.48,-2.70,1.05,-2.69,1.06,-1.06,-1.00,-0.94,-3.76,-3.76,-3.75
108.56,-2.66,1.09,-2.67,1.09,-1.09,-0.99,-0.98,-3.75,-3.76,-3.75
109.64,-2.66,1.09,-2.65,1.11,-1.11,-0.98,-1.03,-3.77,-3.76,-3.75
110.74,-2.61,1.14,-2.62,1.14,-1.14,-0.98,-1.07,-3.75,-3.76,-3.75
111.85,-2.60,1.15,-2.60,1.15,-1.16,-0.97,-1.11,-3.76,-3.76,-3.75
112.97,-2.57,1.18,-2.57,1.18,-1.18,-0.97,-1.15,-3.75,-3.75,-3.75
114.10,-2.57,1.18,-2.55,1.20,-1.20,-0.96,-1.19,-3.77,-3.75,-3.75
115.24,-2.52,1.23,-2.53,1.22,-1.21,-0.95,-1.22,-3.73,-3.75,-3.75
116.39,-2.52,1.23,-2.52,1.23,-1.22,-0.95,-1.26,-3.74,-3.75,-3.75
117.55,-2.52,1.23,-2.52,1.24,-1.23,-0.94,-1.29,-3.75,-3.75,-3.75
118.73,-2.52,1.23,-2.52,1.23,-1.24,-0.94,-1.32,-3.76,-3.76,-3.75
119.92,-2.52,1.23,-2.52,1.23,-1.24,-0.93,-1.34,-3.76,-3.76,-3.75
121.12,-2.52,1.23,-2.52,1.23,-1.24,-0.92,-1.36,-3.76,-3.76,-3.75
122.33,-2.52,1.23,-2.52,1.23,-1.24,-0.92,-1.38,-3.76,-3.76,-3.75
123.55,-2.52,1.23,-2.52,1.23,-1.24,-0.91,-1.40,-3.76,-3.76,-3.75
124.79,-2.52,1.23,-2.52,1.23,-1.24,-0.91,-1.41,-3.76,-3.76,-3.75
126.03,-2.52,1.23,-2.52,1.23,-1.24,-0.90,-1.42,-3.76,-3.76,-3.75
127.29,-2.52,1.23,-2.52,1.23,-1.24,-0.90,-1.43,-3.76,-3.76,-3.75
128.57,-2.52,1.23,-2.52,1.23,-1.24,-0.89,-1.44,-3.76,-3.76,-3.75
129.85,-2.52,1.23,-2.52,1.24,-1.23,-0.89,-1.44,-3.75,-3.75,-3.75
131.15,-2.52,1.23,-2.52,1.24,-1.23,-0.89,-1.44,-3.75,-3.74,-3.75
132.46,-2.52,1.23,-2.53,1.23,-1.22,-0.88,-1.43,-3.74,-3.74,-3.75
133.79,-2.54,1.21,-2.54,1.21,-1.21,-0.88,-1.43,-3.75,-3.75,-3.75
135.12,-2.57,1.18,-2.56,1.19,-1.19,-0.88,-1.42,-3.76,-3.76,-3.75
136.48,-2.57,1.18,-2.58,1.17,-1.18,-0.87,-1.41,-3.75,-3.77,-3.75
137.84,-2.61,1.14,-2.60,1.15,-1.17,-0.87,-1.40,-3.78,-3.77,-3.75
139.22,-2.61,1.14,-2.61,1.15,-1.15,-0.87,-1.38,-3.76,-3.76,-3.75
140.61,-2.61,1.14,-2.61,1.14,-1.14,-0.87,-1.37,-3.75,-3.75,-3.75
142.02,-2.61,1.14,-2.62,1.14,-1.13,-0.86,-1.35,-3.74,-3.75,-3.75
143.44,-2.62,1.13,-2.63,1.12,-1.12,-0.86,-1.33,-3.74,-3.75,-3.75
144.87,-2.66,1.09,-2.65,1.11,-1.11,-0.86,-1.31,-3.77,-3.76,-3.75
146.32,-2.66,1.09,-2.66,1.10,-1.10,-0.86,-1.29,-3.76,-3.75,-3.75
147.78,-2.66,1.09,-2.66,1.09,-1.09,-0.86,-1.27,-3.75,-3.75,-3.75
149.26,-2.66,1.09,-2.67,1.08,-1.08,-0.86,-1.25,-3.74,-3.75,-3.75
150.75,-2.70,1.05,-2.69,1.06,-1.07,-0.86,-1.22,-3.77,-3.76,-3.75
152.26,-2.71,1.04,-2.70,1.05,-1.06,-0.86,-1.20,-3.77,-3.76,-3.75
153.78,-2.71,1.04,-2.71,1.04,-1.05,-0.85,-1.18,-3.76,-3.76,-3.75
155.32,-2.71,1.04,-2.71,1.05,-1.04,-0.85,-1.15,-3.75,-3.75,-3.75
156.88,-2.71,1.04,-2.71,1.04,-1.03,-0.85,-1.13,-3.74,-3.74,-3.75
158.44,-2.71,1.04,-2.72,1.03,-1.03,-0.85,-1.11,-3.74,-3.75,-3.75
160.03,-2.74,1.01,-2.73,1.02,-1.02,-0.85,-1.08,-3.76,-3.75,-3.75
161.63,-2.75,1.00,-2.75,1.01,-1.02,-0.85,-1.06,-3.77,-3.76,-3.75
163.24,-2.75,1.00,-2.75,1.00,-1.01,-0.85,-1.04,-3.76,-3.77,-3.75
164.88,-2.75,1.00,-2.75,1.00,-1.01,-0.85,-1.02,-3.76,-3.76,-3.75
166.53,-2.75,1.00,-2.75,1.00,-1.01,-0.85,-1.00,-3.76,-3.76,-3.75
168.19,-2.75,1.00,-2.75,1.00,-1.00,-0.85,-0.98,-3.75,-3.75,-3.75
169.87,-2.75,1.00,-2.75,1.01,-1.00,-0.85,-0.96,-3.75,-3.75,-3.75
171.57,-2.75,1.00,-2.75,1.01,-0.99,-0.85,-0.94,-3.74,-3.74,-3.75
173.29,-2.75,1.00,-2.76,1.00,-0.99,-0.85,-0.92,-3.74,-3.75,-3.75
175.02,-2.77,0.98,-2.77,0.98,-0.98,-0.85,-0.90,-3.75,-3.75,-3.75
176.77,-2.80,0.95,-2.79,0.97,-0.97,-0.85,-0.88,-3.77,-3.76,-3.75
178.54,-2.80,0.95,-2.80,0.95,-0.97,-0.85,-0.87,-3.77,-3.77,-3.75
180.32,-2.80,0.95,-2.80,0.95,-0.96,-0.85,-0.85,-3.76,-3.76,-3.75
182.13,-2.80,0.95,-2.80,0.96,-0.95,-0.85,-0.84,-3.75,-3.75,-3.75
183.95,-2.80,0.95,-2.80,0.95,-0.95,-0.85,-0.82,-3.75,-3.75,-3.75
185.79,-2.80,0.95,-2.81,0.95,-0.95,-0.85,-0.81,-3.75,-3.75,-3.75
187.65,-2.82,0.93,-2.81,0.94,-0.95,-0.85,-0.80,-3.77,-3.76,-3.75
189.52,-2.82,0.93,-2.81,0.94,-0.95,-0.85,-0.78,-3.77,-3.76,-3.75
191.42,-2.80,0.95,-2.81,0.95,-0.95,-0.85,-0.77,-3.75,-3.76,-3.75
193.33,-2.80,0.95,-2.80,0.95,-0.95,-0.85,-0.76,-3.75,-3.75,-3.75
195.27,-2.80,0.95,-2.80,0.96,-0.95,-0.85,-0.75,-3.75,-3.75,-3.75
197.22,-2.80,0.95,-2.80,0.95,-0.96,-0.85,-0.74,-3.76,-3.76,-3.75
199.19,-2.80,0.95,-2.80,0.95,-0.95,-0.85,-0.73,-3.75,-3.75,-3.75
201.18,-2.80,0.95,-2.80,0.96,-0.95,-0.85,-0.73,-3.75,-3.75,-3.75
203.19,-2.80,0.95,-2.80,0.96,-0.95,-0.85,-0.72,-3.75,-3.74,-3.75
205.23,-2.80,0.95,-2.81,0.95,-0.94,-0.85,-0.71,-3.74,-3.75,-3.75
207.28,-2.82,0.93,-2.82,0.93,-0.93,-0.85,-0.71,-3.75,-3.76,-3.75
209.35,-2.85,0.90,-2.84,0.92,-0.93,-0.85,-0.70,-3.78,-3.76,-3.75
211.44,-2.85,0.90,-2.85,0.90,-0.92,-0.85,-0.69,-3.77,-3.77,-3.75
213.56,-2.85,0.90,-2.85,0.90,-0.91,-0.85,-0.69,-3.76,-3.76,-3.75
215.69,-2.85,0.90,-2.85,0.91,-0.90,-0.85,-0.69,-3.75,-3.75,-3.75
217.85,-2.85,0.90,-2.85,0.90,-0.89,-0.84,-0.68,-3.74,-3.75,-3.75
220.03,-2.85,0.90,-2.86,0.89,-0.89,-0.84,-0.68,-3.74,-3.75,-3.75
222.23,-2.89,0.86,-2.88,0.88,-0.88,-0.84,-0.68,-3.77,-3.75,-3.75
224.45,-2.89,0.86,-2.88,0.87,-0.87,-0.84,-0.67,-3.76,-3.75,-3.75
226.70,-2.89,0.86,-2.90,0.86,-0.86,-0.84,-0.67,-3.75,-3.75,-3.75
228.96,-2.89,0.86,-2.91,0.85,-0.84,-0.84,-0.67,-3.73,-3.75,-3.75
231.25,-2.94,0.81,-2.92,0.83,-0.83,-0.84,-0.67,-3.77,-3.76,-3.75
233.57,-2.94,0.81,-2.94,0.82,-0.83,-0.84,-0.67,-3.77,-3.76,-3.75
235.90,-2.94,0.81,-2.94,0.81,-0.82,-0.84,-0.67,-3.76,-3.76,-3.75
238.26,-2.94,0.81,-2.94,0.81,-0.82,-0.84,-0.66,-3.76,-3.76,-3.75
240.64,-2.94,0.81,-2.94,0.81,-0.81,-0.84,-0.66,-3.75,-3.75,-3.75
243.05,-2.94,0.81,-2.94,0.81,-0.81,-0.84,-0.66,-3.75,-3.75,-3.75
245.48,-2.94,0.81,-2.94,0.81,-0.81,-0.84,-0.66,-3.75,-3.75,-3.75
247.93,-2.94,0.81,-2.94,0.81,-0.81,-0.84,-0.66,-3.75,-3.75,-3.75
250.41,-2.94,0.81,-2.94,0.81,-0.81,-0.84,-0.66,-3.75,-3.75,-3.75
252.92,-2.94,0.81,-2.94,0.81,-0.81,-0.84,-0.66,-3.75,-3.75,-3.75
255.45,-2.94,0.81,-2.94,0.81,-0.81,-0.84,-0.66,-3.75,-3.75,-3.75
258.00,-2.94,0.81,-2.94,0.81,-0.81,-0.84,-0.67,-3.75,-3.75,-3.75
260.58,-2.94,0.81,-2.94,0.81,-0.81,-0.84,-0.67,-3.75,-3.75,-3.75
263.19,-2.94,0.81,-2.94,0.81,-0.81,-0.85,-0.67,-3.75,-3.75,-3.75
265.82,-2.94,0.81,-2.94,0.81,-0.81,-0.85,-0.67,-3.75,-3.75,-3.75
268.48,-2.94,0.81,-2.94,0.81,-0.81,-0.85,-0.67,-3.75,-3.75,-3.75
271.16,-2.94,0.81,-2.94,0.81,-0.81,-0.85,-0.67,-3.75,-3.75,-3.75
273.87,-2.94,0.81,-2.94,0.81,-0.81,-0.85,-0.67,-3.75,-3.75,-3.75
276.61,-2.94,0.81,-2.94,0.81,-0.82,-0.85,-0.68,-3.76,-3.76,-3.75
279.38,-2.94,0.81,-2.94,0.81,-0.82,-0.85,-0.68,-3.76,-3.76,-3.75
282.17,-2.94,0.81,-2.94,0.82,-0.83,-0.85,-0.68,-3.77,-3.77,-3.75
284.99,-2.93,0.82,-2.92,0.83,-0.84,-0.85,-0.69,-3.77,-3.76,-3.75
287.84,-2.90,0.85,-2.91,0.85,-0.85,-0.85,-0.69,-3.75,-3.75,-3.75
290.72,-2.89,0.86,-2.89,0.86,-0.85,-0.85,-0.69,-3.74,-3.75,-3.75
293.63,-2.89,0.86,-2.89,0.87,-0.86,-0.85,-0.70,-3.75,-3.74,-3.75
296.57,-2.89,0.86,-2.88,0.87,-0.86,-0.85,-0.70,-3.75,-3.74,-3.75
299.53,-2.89,0.86,-2.89,0.86,-0.85,-0.86,-0.71,-3.74,-3.74,-3.75
302.53,-2.89,0.86,-2.91,0.85,-0.85,-0.86,-0.71,-3.74,-3.75,-3.75
305.55,-2.94,0.81,-2.92,0.83,-0.84,-0.86,-0.72,-3.78,-3.76,-3.75
308.61,-2.94,0.81,-2.94,0.82,-0.83,-0.86,-0.73,-3.77,-3.77,-3.75
311.69,-2.94,0.81,-2.94,0.81,-0.82,-0.86,-0.73,-3.76,-3.77,-3.75
314.81,-2.94,0.81,-2.94,0.81,-0.82,-0.87,-0.74,-3.76,-3.76,-3.75
317.96,-2.94,0.81,-2.94,0.81,-0.81,-0.87,-0.75,-3.75,-3.75,-3.75
321.14,-2.94,0.81,-2.94,0.81,-0.81,-0.87,-0.76,-3.75,-3.75,-3.75
324.35,-2.94,0.81,-2.94,0.81,-0.81,-0.88,-0.77,-3.75,-3.75,-3.75
327.59,-2.94,0.81,-2.94,0.81,-0.81,-0.88,-0.78,-3.75,-3.75,-3.75
330.87,-2.94,0.81,-2.94,0.81,-0.81,-0.88,-0.79,-3.75,-3.75,-3.75
334.18,-2.94,0.81,-2.94,0.81,-0.81,-0.89,-0.80,-3.75,-3.75,-3.75
337.52,-2.94,0.81,-2.94,0.81,-0.81,-0.89,-0.81,-3.75,-3.75,-3.75
340.90,-2.94,0.81,-2.94,0.81,-0.81,-0.90,-0.82,-3.75,-3.75,-3.75
344.30,-2.94,0.81,-2.94,0.81,-0.81,-0.90,-0.83,-3.75,-3.75,-3.75
347.75,-2.94,0.81,-2.94,0.81,-0.82,-0.91,-0.85,-3.76,-3.76,-3.75
351.23,-2.94,0.81,-2.94,0.82,-0.82,-0.92,-0.86,-3.76,-3.76,-3.75
354.74,-2.94,0.81,-2.92,0.83,-0.83,-0.93,-0.88,-3.77,-3.76,-3.75
358.28,-2.89,0.86,-2.91,0.84,-0.84,-0.93,-0.89,-3.73,-3.75,-3.75
361.87,-2.89,0.86,-2.89,0.86,-0.86,-0.94,-0.91,-3.75,-3.75,-3.75
365.49,-2.89,0.86,-2.87,0.88,-0.88,-0.95,-0.92,-3.77,-3.75,-3.75
369.14,-2.85,0.90,-2.86,0.89,-0.89,-0.96,-0.94,-3.74,-3.76,-3.75
372.83,-2.85,0.90,-2.84,0.91,-0.91,-0.97,-0.96,-3.76,-3.76,-3.75
376.56,-2.82,0.93,-2.82,0.93,-0.94,-0.99,-0.98,-3.76,-3.76,-3.75
380.33,-2.80,0.95,-2.80,0.96,-0.96,-1.00,-0.99,-3.76,-3.76,-3.75
384.13,-2.77,0.98,-2.77,0.98,-0.98,-1.01,-1.01,-3.75,-3.75,-3.75
387.97,-2.75,1.00,-2.75,1.00,-1.00,-1.03,-1.03,-3.75,-3.75,-3.75
391.85,-2.73,1.02,-2.73,1.02,-1.02,-1.04,-1.06,-3.75,-3.75,-3.75
395.77,-2.71,1.04,-2.71,1.04,-1.05,-1.06,-1.08,-3.76,-3.76,-3.75
399.73,-2.69,1.06,-2.69,1.07,-1.07,-1.07,-1.10,-3.76,-3.76,-3.75
403.72,-2.66,1.09,-2.66,1.09,-1.09,-1.09,-1.12,-3.75,-3.75,-3.75
407.76,-2.64,1.11,-2.64,1.11,-1.11,-1.11,-1.14,-3.75,-3.75,-3.75
411.84,-2.61,1.14,-2.62,1.14,-1.13,-1.13,-1.17,-3.74,-3.75,-3.75
415.96,-2.61,1.14,-2.60,1.15,-1.16,-1.15,-1.19,-3.77,-3.76,-3.75
