frequency,raw,error,smoothed,error_smoothed,equalization,parametric_eq,fixed_band_eq,equalized_raw,equalized_smoothed,target
20.00,6.38,5.47,6.37,5.46,-5.48,-3.94,-2.04,0.90,0.90,0.91
20.20,6.38,5.43,6.38,5.43,-5.44,-3.94,-2.10,0.94,0.94,0.95
20.40,6.38,5.40,6.39,5.41,-5.40,-3.94,-2.16,0.98,0.98,0.98
20.61,6.38,5.37,6.38,5.37,-5.36,-3.93,-2.22,1.02,1.02,1.01
20.81,6.38,5.34,6.38,5.34,-5.32,-3.93,-2.28,1.06,1.06,1.04
21.02,6.38,5.31,6.37,5.30,-5.28,-3.93,-2.35,1.10,1.09,1.07
21.23,6.33,5.24,6.33,5.24,-5.23,-3.93,-2.42,1.10,1.10,1.09
21.44,6.28,5.18,6.28,5.18,-5.18,-3.93,-2.49,1.10,1.10,1.10
21.66,6.23,5.12,6.23,5.12,-5.12,-3.93,-2.56,1.11,1.11,1.11
21.87,6.18,5.06,6.18,5.06,-5.06,-3.93,-2.64,1.12,1.12,1.12
22.09,6.13,5.00,6.13,5.00,-5.00,-3.93,-2.72,1.13,1.13,1.13
22.31,6.08,4.94,6.08,4.94,-4.94,-3.93,-2.79,1.14,1.14,1.14
22.54,6.03,4.89,6.03,4.89,-4.90,-3.93,-2.88,1.13,1.13,1.14
22.76,5.98,4.84,5.98,4.84,-4.86,-3.93,-2.96,1.12,1.12,1.14
22.99,5.93,4.79,5.94,4.81,-4.83,-3.93,-3.04,1.10,1.12,1.14
23.22,5.93,4.78,5.93,4.78,-4.80,-3.92,-3.13,1.13,1.12,1.15
23.45,5.93,4.78,5.93,4.78,-4.78,-3.92,-3.22,1.15,1.15,1.15
23.69,5.93,4.77,5.93,4.78,-4.76,-3.92,-3.31,1.17,1.18,1.16
23.92,5.93,4.77,5.92,4.76,-4.73,-3.92,-3.40,1.20,1.19,1.16
24.16,5.90,4.74,5.90,4.73,-4.71,-3.92,-3.50,1.19,1.19,1.16
24.40,5.85,4.69,5.85,4.69,-4.68,-3.92,-3.59,1.17,1.17,1.16
24.65,5.80,4.65,5.80,4.64,-4.65,-3.92,-3.69,1.15,1.15,1.15
24.89,5.75,4.60,5.76,4.61,-4.63,-3.92,-3.79,1.12,1.13,1.15
25.14,5.73,4.58,5.73,4.58,-4.60,-3.92,-3.89,1.13,1.13,1.15
25.39,5.72,4.58,5.72,4.57,-4.59,-3.91,-3.99,1.13,1.13,1.14
25.65,5.71,4.57,5.71,4.57,-4.58,-3.91,-4.09,1.13,1.13,1.14
25.91,5.70,4.57,5.70,4.57,-4.58,-3.91,-4.19,1.12,1.12,1.13
26.16,5.70,4.58,5.70,4.58,-4.58,-3.91,-4.29,1.12,1.12,1.12
26.43,5.70,4.58,5.70,4.59,-4.57,-3.91,-4.39,1.13,1.13,1.12
26.69,5.70,4.59,5.70,4.59,-4.56,-3.91,-4.48,1.14,1.14,1.11
26.96,5.70,4.59,5.69,4.58,-4.54,-3.91,-4.58,1.16,1.14,1.11
27.23,5.65,4.55,5.65,4.55,-4.52,-3.90,-4.67,1.13,1.12,1.10
27.50,5.58,4.48,5.58,4.49,-4.50,-3.90,-4.77,1.08,1.08,1.10
27.77,5.52,4.44,5.52,4.44,-4.48,-3.90,-4.85,1.04,1.04,1.07
28.05,5.47,4.40,5.48,4.41,-4.46,-3.90,-4.94,1.01,1.03,1.07
28.33,5.47,4.41,5.47,4.41,-4.43,-3.90,-5.02,1.04,1.04,1.06
28.62,5.47,4.42,5.47,4.42,-4.40,-3.89,-5.10,1.07,1.07,1.05
28.90,5.47,4.42,5.46,4.41,-4.37,-3.89,-5.17,1.10,1.09,1.05
29.19,5.43,4.39,5.42,4.38,-4.35,-3.89,-5.23,1.08,1.08,1.04
29.48,5.37,4.32,5.37,4.33,-4.33,-3.89,-5.29,1.04,1.04,1.05
29.78,5.31,4.27,5.31,4.28,-4.31,-3.89,-5.34,1.00,1.00,1.04
30.08,5.26,4.23,5.27,4.24,-4.28,-3.88,-5.39,0.98,0.99,1.03
30.38,5.25,4.24,5.26,4.24,-4.25,-3.88,-5.42,1.00,1.01,1.01
30.68,5.25,4.24,5.25,4.24,-4.21,-3.88,-5.45,1.04,1.04,1.01
30.99,5.24,4.24,5.22,4.22,-4.17,-3.88,-5.47,1.07,1.05,1.00
31.30,5.17,4.17,5.17,4.17,-4.14,-3.87,-5.48,1.03,1.03,1.00
31.61,5.10,4.10,5.10,4.11,-4.12,-3.87,-5.49,0.98,0.99,1.00
31.93,5.03,4.04,5.04,4.06,-4.09,-3.87,-5.48,0.94,0.95,0.99
32.24,5.01,4.04,5.01,4.04,-4.07,-3.86,-5.47,0.94,0.94,0.97
32.57,5.01,4.05,5.00,4.04,-4.05,-3.86,-5.45,0.96,0.95,0.96
32.89,5.01,4.04,5.01,4.04,-4.04,-3.86,-5.42,0.97,0.97,0.97
33.22,5.01,4.05,5.01,4.05,-4.04,-3.85,-5.39,0.97,0.97,0.96
33.55,5.01,4.05,5.01,4.05,-4.05,-3.85,-5.35,0.96,0.96,0.96
33.89,5.01,4.06,5.01,4.06,-4.06,-3.85,-5.30,0.95,0.95,0.95
34.23,5.01,4.06,5.01,4.07,-4.07,-3.84,-5.25,0.94,0.94,0.95
34.57,5.01,4.08,5.01,4.07,-4.08,-3.84,-5.19,0.93,0.93,0.93
34.92,5.01,4.08,5.01,4.08,-4.08,-3.83,-5.13,0.93,0.93,0.93
35.27,5.01,4.08,5.02,4.09,-4.07,-3.83,-5.06,0.94,0.94,0.93
35.62,5.01,4.09,5.01,4.09,-4.06,-3.82,-4.99,0.95,0.96,0.92
35.97,5.01,4.09,4.99,4.07,-4.03,-3.82,-4.92,0.98,0.96,0.91
36.33,4.94,4.03,4.93,4.03,-4.01,-3.82,-4.84,0.93,0.92,0.91
36.70,4.86,3.96,4.87,3.97,-3.98,-3.81,-4.77,0.88,0.88,0.90
37.06,4.79,3.90,4.81,3.92,-3.96,-3.81,-4.69,0.83,0.85,0.89
37.43,4.79,3.91,4.79,3.91,-3.95,-3.80,-4.61,0.84,0.84,0.88
37.81,4.79,3.92,4.78,3.91,-3.94,-3.79,-4.54,0.85,0.85,0.87
38.19,4.79,3.93,4.79,3.93,-3.93,-3.79,-4.46,0.86,0.86,0.86
38.57,4.79,3.93,4.79,3.94,-3.93,-3.78,-4.38,0.86,0.86,0.86
38.95,4.79,3.95,4.79,3.95,-3.92,-3.78,-4.30,0.87,0.87,0.84
39.34,4.78,3.95,4.79,3.95,-3.91,-3.77,-4.23,0.87,0.87,0.83
39.74,4.77,3.95,4.76,3.94,-3.90,-3.76,-4.16,0.87,0.87,0.82
40.14,4.73,3.91,4.71,3.90,-3.88,-3.76,-4.08,0.85,0.83,0.82
40.54,4.65,3.84,4.65,3.84,-3.86,-3.75,-4.01,0.79,0.79,0.81
40.94,4.57,3.76,4.59,3.79,-3.84,-3.74,-3.95,0.73,0.76,0.81
41.35,4.56,3.77,4.56,3.77,-3.81,-3.73,-3.88,0.75,0.74,0.79
41.76,4.56,3.77,4.55,3.77,-3.79,-3.72,-3.82,0.77,0.76,0.79
42.18,4.56,3.79,4.57,3.79,-3.77,-3.71,-3.76,0.79,0.80,0.77
42.60,4.56,3.80,4.56,3.80,-3.76,-3.71,-3.70,0.80,0.80,0.76
43.03,4.55,3.81,4.52,3.78,-3.75,-3.70,-3.64,0.80,0.77,0.74
43.46,4.45,3.73,4.45,3.73,-3.74,-3.69,-3.59,0.71,0.71,0.72
43.90,4.35,3.67,4.39,3.70,-3.72,-3.68,-3.54,0.64,0.67,0.69
44.33,4.33,3.67,4.34,3.68,-3.69,-3.67,-3.49,0.64,0.65,0.66
44.78,4.33,3.70,4.31,3.67,-3.66,-3.66,-3.45,0.67,0.65,0.63
45.23,4.28,3.67,4.25,3.65,-3.63,-3.64,-3.40,0.65,0.62,0.61
45.68,4.17,3.59,4.19,3.60,-3.61,-3.63,-3.36,0.56,0.58,0.58
46.13,4.10,3.53,4.13,3.56,-3.59,-3.62,-3.33,0.51,0.54,0.57
46.60,4.10,3.54,4.09,3.54,-3.56,-3.61,-3.29,0.54,0.53,0.56
47.06,4.10,3.55,4.09,3.55,-3.53,-3.59,-3.26,0.57,0.56,0.55
47.53,4.08,3.55,4.08,3.55,-3.50,-3.58,-3.23,0.58,0.58,0.53
48.01,4.06,3.53,4.03,3.51,-3.48,-3.57,-3.20,0.58,0.56,0.53
48.49,3.97,3.44,3.97,3.45,-3.45,-3.55,-3.18,0.52,0.52,0.53
48.97,3.88,3.37,3.91,3.40,-3.43,-3.54,-3.16,0.45,0.48,0.51
49.46,3.87,3.37,3.87,3.36,-3.40,-3.52,-3.14,0.47,0.46,0.50
49.96,3.87,3.37,3.87,3.36,-3.37,-3.50,-3.12,0.50,0.49,0.50
50.46,3.87,3.35,3.87,3.36,-3.34,-3.49,-3.10,0.53,0.54,0.52
50.96,3.87,3.35,3.86,3.34,-3.30,-3.47,-3.09,0.57,0.55,0.52
51.47,3.82,3.31,3.82,3.31,-3.28,-3.45,-3.07,0.54,0.54,0.51
51.99,3.77,3.27,3.77,3.26,-3.26,-3.43,-3.06,0.51,0.50,0.50
52.51,3.71,3.21,3.71,3.21,-3.25,-3.41,-3.05,0.46,0.46,0.50
53.03,3.65,3.17,3.67,3.19,-3.23,-3.39,-3.04,0.42,0.43,0.48
53.56,3.65,3.19,3.65,3.19,-3.22,-3.37,-3.03,0.43,0.43,0.46
54.10,3.65,3.21,3.65,3.22,-3.20,-3.35,-3.02,0.45,0.46,0.44
54.64,3.65,3.24,3.64,3.22,-3.18,-3.33,-3.02,0.47,0.46,0.41
55.18,3.61,3.23,3.58,3.19,-3.16,-3.31,-3.01,0.45,0.42,0.38
55.74,3.48,3.13,3.51,3.16,-3.14,-3.28,-3.00,0.34,0.37,0.35
56.29,3.42,3.09,3.45,3.13,-3.12,-3.26,-3.00,0.30,0.33,0.33
56.86,3.42,3.12,3.37,3.08,-3.10,-3.23,-2.99,0.32,0.27,0.30
57.42,3.32,3.06,3.30,3.05,-3.07,-3.21,-2.98,0.25,0.23,0.25
58.00,3.19,2.97,3.24,3.01,-3.05,-3.18,-2.98,0.14,0.19,0.22
58.58,3.19,3.00,3.19,3.00,-3.03,-3.16,-2.97,0.16,0.17,0.19
59.16,3.19,3.02,3.19,3.03,-3.01,-3.13,-2.96,0.18,0.18,0.17
59.76,3.19,3.06,3.16,3.03,-2.99,-3.11,-2.95,0.20,0.16,0.13
60.35,3.11,3.02,3.09,3.00,-2.98,-3.08,-2.94,0.13,0.11,0.09
60.96,2.97,2.92,3.03,2.98,-2.97,-3.05,-2.92,0.01,0.06,0.05
61.57,2.96,2.96,2.95,2.94,-2.95,-3.03,-2.91,0.01,-0.00,-0.00
62.18,2.92,2.96,2.87,2.91,-2.94,-3.00,-2.89,-0.02,-0.06,-0.04
62.80,2.78,2.85,2.82,2.90,-2.92,-2.97,-2.87,-0.14,-0.10,-0.07
63.43,2.74,2.86,2.76,2.88,-2.89,-2.95,-2.85,-0.15,-0.13,-0.12
64.07,2.74,2.89,2.72,2.87,-2.87,-2.92,-2.83,-0.13,-0.15,-0.15
64.71,2.70,2.89,2.68,2.87,-2.84,-2.90,-2.81,-0.14,-0.16,-0.19
65.35,2.63,2.84,2.62,2.84,-2.81,-2.87,-2.79,-0.18,-0.18,-0.21
66.01,2.51,2.76,2.56,2.81,-2.78,-2.85,-2.76,-0.27,-0.22,-0.25
66.67,2.51,2.78,2.48,2.75,-2.75,-2.82,-2.73,-0.24,-0.28,-0.27
67.33,2.43,2.73,2.40,2.69,-2.72,-2.80,-2.71,-0.30,-0.33,-0.30
68.01,2.28,2.60,2.33,2.65,-2.70,-2.78,-2.68,-0.42,-0.36,-0.32
68.69,2.28,2.62,2.28,2.62,-2.66,-2.76,-2.65,-0.38,-0.38,-0.34
69.37,2.28,2.64,2.28,2.64,-2.63,-2.74,-2.62,-0.35,-0.36,-0.36
70.07,2.28,2.66,2.29,2.67,-2.60,-2.72,-2.59,-0.32,-0.32,-0.38
70.77,2.28,2.68,2.24,2.63,-2.58,-2.70,-2.55,-0.30,-0.35,-0.40
71.48,2.17,2.58,2.17,2.58,-2.57,-2.68,-2.52,-0.40,-0.40,-0.41
72.19,2.05,2.48,2.10,2.53,-2.56,-2.67,-2.49,-0.51,-0.46,-0.43
72.91,2.05,2.51,2.05,2.50,-2.55,-2.65,-2.46,-0.50,-0.51,-0.46
73.64,2.05,2.53,2.04,2.52,-2.56,-2.64,-2.43,-0.51,-0.52,-0.48
74.38,2.05,2.55,2.05,2.55,-2.56,-2.62,-2.39,-0.51,-0.51,-0.50
75.12,2.05,2.57,2.05,2.57,-2.58,-2.61,-2.36,-0.53,-0.53,-0.52
75.87,2.05,2.60,2.05,2.59,-2.59,-2.60,-2.33,-0.54,-0.54,-0.55
76.63,2.05,2.62,2.05,2.62,-2.60,-2.59,-2.30,-0.55,-0.55,-0.57
77.40,2.05,2.63,2.07,2.65,-2.60,-2.57,-2.27,-0.55,-0.53,-0.58
78.17,2.05,2.65,2.05,2.64,-2.59,-2.56,-2.24,-0.54,-0.54,-0.60
78.95,2.05,2.65,1.99,2.59,-2.57,-2.55,-2.22,-0.52,-0.58,-0.60
79.74,1.88,2.49,1.92,2.53,-2.54,-2.54,-2.19,-0.66,-0.62,-0.61
80.54,1.82,2.44,1.85,2.46,-2.51,-2.53,-2.16,-0.69,-0.66,-0.62
81.35,1.82,2.44,1.81,2.42,-2.48,-2.51,-2.14,-0.66,-0.67,-0.62
82.16,1.82,2.44,1.81,2.43,-2.45,-2.50,-2.12,-0.63,-0.64,-0.62
82.98,1.82,2.43,1.82,2.43,-2.43,-2.49,-2.10,-0.61,-0.61,-0.61
83.81,1.82,2.43,1.82,2.43,-2.41,-2.47,-2.08,-0.59,-0.59,-0.61
84.65,1.82,2.42,1.82,2.42,-2.40,-2.46,-2.06,-0.58,-0.58,-0.60
85.50,1.82,2.41,1.82,2.41,-2.40,-2.45,-2.04,-0.58,-0.58,-0.59
86.35,1.82,2.40,1.82,2.40,-2.40,-2.43,-2.03,-0.58,-0.58,-0.58
87.22,1.82,2.38,1.82,2.39,-2.40,-2.42,-2.01,-0.58,-0.58,-0.56
88.09,1.82,2.38,1.82,2.37,-2.39,-2.40,-2.00,-0.57,-0.57,-0.56
88.97,1.82,2.36,1.82,2.36,-2.38,-2.39,-1.99,-0.56,-0.56,-0.54
89.86,1.82,2.35,1.82,2.35,-2.36,-2.37,-1.98,-0.54,-0.54,-0.53
90.76,1.82,2.35,1.83,2.36,-2.33,-2.35,-1.97,-0.51,-0.50,-0.53
91.66,1.82,2.34,1.82,2.35,-2.30,-2.33,-1.96,-0.48,-0.47,-0.52
92.58,1.82,2.34,1.78,2.30,-2.27,-2.31,-1.96,-0.45,-0.49,-0.52
93.51,1.72,2.23,1.72,2.23,-2.24,-2.30,-1.95,-0.52,-0.52,-0.51
94.44,1.62,2.13,1.65,2.16,-2.21,-2.28,-1.95,-0.59,-0.56,-0.51
95.39,1.60,2.11,1.60,2.11,-2.17,-2.26,-1.95,-0.57,-0.57,-0.51
96.34,1.60,2.12,1.60,2.11,-2.13,-2.24,-1.95,-0.53,-0.53,-0.52
97.30,1.60,2.12,1.61,2.13,-2.09,-2.21,-1.95,-0.49,-0.47,-0.52
98.28,1.60,2.13,1.57,2.10,-2.05,-2.19,-1.95,-0.45,-0.48,-0.53
99.26,1.54,2.07,1.50,2.04,-2.02,-2.17,-1.96,-0.48,-0.52,-0.53
100.25,1.37,1.91,1.43,1.97,-2.00,-2.15,-1.96,-0.63,-0.57,-0.54
101.25,1.37,1.92,1.38,1.93,-1.96,-2.13,-1.97,-0.59,-0.58,-0.55
102.27,1.37,1.93,1.36,1.93,-1.93,-2.10,-1.97,-0.56,-0.57,-0.56
103.29,1.37,1.96,1.35,1.94,-1.90,-2.08,-1.98,-0.53,-0.55,-0.59
104.32,1.32,1.92,1.29,1.90,-1.88,-2.06,-1.99,-0.56,-0.59,-0.60
105.37,1.20,1.83,1.22,1.86,-1.88,-2.04,-2.00,-0.68,-0.65,-0.63
106.42,1.14,1.80,1.16,1.83,-1.88,-2.01,-2.00,-0.74,-0.72,-0.66
107.48,1.14,1.85,1.13,1.84,-1.88,-1.99,-2.01,-0.74,-0.75,-0.71
108.56,1.14,1.90,1.15,1.91,-1.88,-1.97,-2.02,-0.74,-0.73,-0.76
109.64,1.14,1.94,1.13,1.93,-1.88,-1.94,-2.03,-0.74,-0.75,-0.80
110.74,1.13,1.97,1.07,1.91,-1.88,-1.92,-2.04,-0.75,-0.82,-0.84
111.85,0.94,1.82,1.00,1.89,-1.89,-1.90,-2.05,-0.95,-0.89,-0.88
112.97,0.91,1.86,0.94,1.88,-1.88,-1.88,-2.05,-0.97,-0.95,-0.95
114.10,0.91,1.90,0.88,1.88,-1.88,-1.85,-2.06,-0.97,-0.99,-0.99
115.24,0.88,1.92,0.84,1.88,-1.87,-1.83,-2.07,-0.99,-1.03,-1.04
116.39,0.75,1.84,0.77,1.86,-1.87,-1.81,-2.07,-1.12,-1.10,-1.09
117.55,0.68,1.82,0.71,1.84,-1.87,-1.79,-2.07,-1.19,-1.17,-1.14
118.73,0.68,1.85,0.67,1.84,-1.89,-1.77,-2.08,-1.21,-1.22,-1.17
119.92,0.68,1.88,0.67,1.88,-1.90,-1.75,-2.08,-1.22,-1.23,-1.20
121.12,0.68,1.92,0.68,1.91,-1.90,-1.73,-2.08,-1.22,-1.22,-1.24
122.33,0.68,1.94,0.69,1.95,-1.90,-1.71,-2.08,-1.22,-1.21,-1.26
123.55,0.68,1.96,0.68,1.96,-1.90,-1.69,-2.08,-1.22,-1.23,-1.28
124.79,0.68,1.98,0.63,1.93,-1.91,-1.67,-2.07,-1.23,-1.28,-1.30
126.03,0.53,1.86,0.56,1.88,-1.91,-1.66,-2.06,-1.38,-1.35,-1.33
127.29,0.48,1.82,0.50,1.84,-1.90,-1.64,-2.06,-1.42,-1.40,-1.34
128.57,0.46,1.83,0.45,1.82,-1.87,-1.62,-2.05,-1.41,-1.42,-1.37
129.85,0.46,1.86,0.47,1.86,-1.85,-1.61,-2.04,-1.39,-1.38,-1.40
131.15,0.46,1.88,0.46,1.88,-1.82,-1.60,-2.02,-1.36,-1.36,-1.42
132.46,0.46,1.90,0.41,1.85,-1.80,-1.58,-2.01,-1.34,-1.39,-1.44
133.79,0.32,1.77,0.34,1.79,-1.79,-1.57,-2.00,-1.47,-1.46,-1.45
135.12,0.23,1.71,0.27,1.74,-1.79,-1.56,-1.98,-1.56,-1.52,-1.48
136.48,0.23,1.72,0.22,1.72,-1.79,-1.55,-1.96,-1.56,-1.57,-1.49
137.84,0.23,1.75,0.22,1.75,-1.78,-1.54,-1.94,-1.55,-1.56,-1.52
139.22,0.23,1.79,0.23,1.78,-1.77,-1.53,-1.93,-1.54,-1.54,-1.56
140.61,0.23,1.81,0.25,1.82,-1.76,-1.53,-1.91,-1.53,-1.51,-1.58
142.02,0.23,1.82,0.22,1.82,-1.75,-1.52,-1.89,-1.52,-1.53,-1.59
143.44,0.22,1.84,0.16,1.78,-1.76,-1.52,-1.87,-1.54,-1.59,-1.62
144.87,0.04,1.68,0.09,1.73,-1.76,-1.52,-1.85,-1.72,-1.67,-1.64
146.32,0.01,1.69,0.02,1.70,-1.76,-1.51,-1.83,-1.75,-1.73,-1.68
147.78,0.00,1.71,-0.01,1.70,-1.75,-1.51,-1.80,-1.75,-1.76,-1.71
149.26,0.00,1.74,0.01,1.76,-1.75,-1.51,-1.78,-1.75,-1.74,-1.74
150.75,-0.00,1.80,-0.00,1.79,-1.76,-1.52,-1.76,-1.76,-1.76,-1.80
152.26,-0.01,1.84,-0.06,1.80,-1.78,-1.52,-1.74,-1.79,-1.84,-1.85
153.78,-0.15,1.76,-0.13,1.79,-1.80,-1.53,-1.72,-1.95,-1.93,-1.91
155.32,-0.22,1.76,-0.19,1.78,-1.81,-1.53,-1.70,-2.03,-2.00,-1.98
156.88,-0.23,1.80,-0.23,1.81,-1.80,-1.54,-1.69,-2.03,-2.03,-2.03
158.44,-0.23,1.86,-0.25,1.84,-1.78,-1.55,-1.67,-2.02,-2.03,-2.09
160.03,-0.29,1.86,-0.32,1.83,-1.75,-1.56,-1.65,-2.04,-2.07,-2.15
161.63,-0.43,1.76,-0.44,1.76,-1.72,-1.57,-1.64,-2.15,-2.16,-2.19
163.24,-0.60,1.64,-0.57,1.67,-1.69,-1.59,-1.62,-2.29,-2.26,-2.24
164.88,-0.68,1.59,-0.66,1.62,-1.68,-1.60,-1.61,-2.36,-2.33,-2.27
166.53,-0.68,1.62,-0.69,1.61,-1.67,-1.62,-1.59,-2.35,-2.36,-2.30
168.19,-0.68,1.65,-0.70,1.63,-1.68,-1.63,-1.58,-2.36,-2.38,-2.33
169.87,-0.68,1.67,-0.68,1.67,-1.69,-1.65,-1.57,-2.37,-2.37,-2.35
171.57,-0.68,1.68,-0.63,1.72,-1.73,-1.67,-1.56,-2.41,-2.36,-2.36
173.29,-0.54,1.81,-0.56,1.80,-1.77,-1.69,-1.55,-2.31,-2.33,-2.35
175.02,-0.46,1.89,-0.49,1.86,-1.81,-1.71,-1.55,-2.27,-2.31,-2.35
176.77,-0.46,1.90,-0.45,1.90,-1.85,-1.73,-1.54,-2.31,-2.30,-2.36
178.54,-0.46,1.89,-0.45,1.90,-1.87,-1.75,-1.53,-2.33,-2.33,-2.35
180.32,-0.46,1.89,-0.46,1.89,-1.90,-1.77,-1.53,-2.36,-2.36,-2.35
182.13,-0.46,1.88,-0.46,1.88,-1.91,-1.80,-1.53,-2.37,-2.37,-2.34
183.95,-0.46,1.89,-0.46,1.88,-1.91,-1.82,-1.52,-2.37,-2.37,-2.35
185.79,-0.46,1.88,-0.46,1.89,-1.91,-1.84,-1.52,-2.37,-2.37,-2.34
187.65,-0.46,1.90,-0.46,1.90,-1.89,-1.86,-1.52,-2.35,-2.35,-2.36
189.52,-0.46,1.92,-0.45,1.92,-1.88,-1.87,-1.53,-2.34,-2.33,-2.38
191.42,-0.46,1.93,-0.46,1.94,-1.88,-1.89,-1.53,-2.34,-2.34,-2.39
193.33,-0.46,1.94,-0.51,1.89,-1.89,-1.90,-1.53,-2.35,-2.40,-2.40
195.27,-0.56,1.85,-0.56,1.85,-1.90,-1.92,-1.54,-2.46,-2.46,-2.41
197.22,-0.66,1.77,-0.58,1.85,-1.91,-1.93,-1.54,-2.57,-2.49,-2.43
199.19,-0.55,1.91,-0.56,1.89,-1.93,-1.93,-1.55,-2.48,-2.49,-2.46
201.18,-0.46,2.01,-0.50,1.96,-1.96,-1.94,-1.55,-2.42,-2.46,-2.47
203.19,-0.46,2.02,-0.45,2.03,-1.99,-1.94,-1.56,-2.45,-2.44,-2.48
205.23,-0.46,2.04,-0.45,2.04,-2.02,-1.94,-1.57,-2.48,-2.48,-2.50
207.28,-0.46,2.05,-0.46,2.05,-2.06,-1.94,-1.58,-2.52,-2.52,-2.51
209.35,-0.46,2.07,-0.46,2.07,-2.08,-1.93,-1.59,-2.54,-2.54,-2.53
211.44,-0.46,2.10,-0.44,2.11,-2.08,-1.92,-1.60,-2.54,-2.52,-2.56
213.56,-0.46,2.11,-0.47,2.09,-2.06,-1.91,-1.61,-2.52,-2.53,-2.57
215.69,-0.46,2.10,-0.53,2.04,-2.03,-1.90,-1.62,-2.49,-2.56,-2.56
217.85,-0.66,1.92,-0.59,2.00,-1.98,-1.88,-1.63,-2.64,-2.57,-2.58
220.03,-0.68,1.92,-0.66,1.94,-1.93,-1.86,-1.64,-2.61,-2.59,-2.60
222.23,-0.68,1.94,-0.74,1.87,-1.88,-1.84,-1.65,-2.56,-2.62,-2.62
224.45,-0.79,1.83,-0.79,1.83,-1.84,-1.82,-1.65,-2.63,-2.63,-2.62
226.70,-0.90,1.72,-0.86,1.76,-1.80,-1.80,-1.66,-2.70,-2.66,-2.62
228.96,-0.91,1.71,-0.91,1.71,-1.77,-1.78,-1.67,-2.68,-2.68,-2.62
231.25,-0.91,1.71,-0.92,1.70,-1.74,-1.75,-1.68,-2.65,-2.66,-2.62
233.57,-0.91,1.71,-0.91,1.71,-1.71,-1.73,-1.69,-2.62,-2.62,-2.62
235.90,-0.91,1.72,-0.89,1.73,-1.68,-1.70,-1.69,-2.59,-2.57,-2.63
238.26,-0.91,1.72,-0.91,1.72,-1.64,-1.68,-1.70,-2.55,-2.55,-2.63
240.64,-0.91,1.71,-0.97,1.65,-1.61,-1.66,-1.70,-2.52,-2.57,-2.62
243.05,-1.07,1.54,-1.04,1.57,-1.57,-1.63,-1.71,-2.64,-2.61,-2.61
245.48,-1.14,1.45,-1.11,1.49,-1.53,-1.61,-1.71,-2.67,-2.64,-2.59
247.93,-1.14,1.44,-1.15,1.43,-1.48,-1.59,-1.71,-2.62,-2.64,-2.58
250.41,-1.14,1.43,-1.15,1.42,-1.44,-1.56,-1.71,-2.58,-2.59,-2.57
252.92,-1.14,1.41,-1.14,1.41,-1.40,-1.54,-1.71,-2.54,-2.54,-2.55
255.45,-1.14,1.38,-1.14,1.39,-1.38,-1.52,-1.70,-2.52,-2.52,-2.52
258.00,-1.14,1.37,-1.14,1.37,-1.36,-1.50,-1.70,-2.50,-2.50,-2.51
260.58,-1.14,1.36,-1.14,1.35,-1.34,-1.49,-1.70,-2.48,-2.48,-2.50
263.19,-1.14,1.34,-1.14,1.34,-1.32,-1.47,-1.69,-2.46,-2.46,-2.48
265.82,-1.14,1.32,-1.14,1.32,-1.31,-1.45,-1.68,-2.45,-2.45,-2.46
268.48,-1.14,1.30,-1.14,1.30,-1.29,-1.44,-1.68,-2.43,-2.43,-2.44
271.16,-1.14,1.28,-1.14,1.28,-1.28,-1.42,-1.67,-2.42,-2.42,-2.42
273.87,-1.14,1.26,-1.16,1.24,-1.27,-1.41,-1.66,-2.41,-2.43,-2.40
276.61,-1.14,1.23,-1.14,1.24,-1.27,-1.40,-1.65,-2.41,-2.41,-2.37
279.38,-1.14,1.22,-1.08,1.28,-1.29,-1.39,-1.64,-2.43,-2.37,-2.36
282.17,-0.97,1.36,-1.01,1.32,-1.31,-1.38,-1.63,-2.28,-2.32,-2.33
284.99,-0.91,1.39,-0.95,1.36,-1.35,-1.37,-1.62,-2.26,-2.30,-2.30
287.84,-0.91,1.37,-0.87,1.41,-1.40,-1.36,-1.61,-2.31,-2.27,-2.28
290.72,-0.84,1.41,-0.83,1.43,-1.46,-1.35,-1.59,-2.30,-2.29,-2.25
293.63,-0.70,1.53,-0.74,1.49,-1.51,-1.35,-1.58,-2.21,-2.25,-2.23
296.57,-0.68,1.52,-0.63,1.58,-1.56,-1.34,-1.57,-2.24,-2.18,-2.20
299.53,-0.51,1.67,-0.54,1.64,-1.60,-1.34,-1.56,-2.11,-2.13,-2.18
302.53,-0.46,1.71,-0.48,1.68,-1.63,-1.33,-1.55,-2.09,-2.12,-2.17
305.55,-0.46,1.67,-0.45,1.70,-1.67,-1.33,-1.54,-2.13,-2.11,-2.13
308.61,-0.46,1.67,-0.47,1.65,-1.70,-1.33,-1.53,-2.16,-2.17,-2.13
311.69,-0.46,1.64,-0.46,1.64,-1.71,-1.33,-1.53,-2.17,-2.17,-2.10
314.81,-0.46,1.62,-0.39,1.69,-1.71,-1.33,-1.52,-2.17,-2.10,-2.08
317.96,-0.31,1.76,-0.34,1.74,-1.70,-1.33,-1.51,-2.01,-2.04,-2.07
321.14,-0.24,1.83,-0.33,1.74,-1.68,-1.33,-1.51,-1.92,-2.01,-2.07
324.35,-0.41,1.67,-0.36,1.71,-1.67,-1.33,-1.50,-2.08,-2.03,-2.08
327.59,-0.46,1.60,-0.43,1.63,-1.65,-1.33,-1.50,-2.11,-2.08,-2.06
330.87,-0.46,1.59,-0.47,1.58,-1.65,-1.33,-1.49,-2.11,-2.12,-2.05
334.18,-0.46,1.59,-0.46,1.58,-1.63,-1.34,-1.49,-2.09,-2.10,-2.05
337.52,-0.46,1.57,-0.46,1.57,-1.60,-1.34,-1.49,-2.06,-2.06,-2.03
340.90,-0.46,1.56,-0.46,1.56,-1.57,-1.34,-1.49,-2.03,-2.03,-2.02
344.30,-0.46,1.54,-0.45,1.55,-1.51,-1.35,-1.49,-1.97,-1.96,-2.00
347.75,-0.46,1.52,-0.44,1.54,-1.45,-1.35,-1.50,-1.91,-1.89,-1.98
351.23,-0.46,1.50,-0.49,1.47,-1.37,-1.36,-1.50,-1.83,-1.86,-1.96
354.74,-0.56,1.38,-0.60,1.34,-1.27,-1.36,-1.50,-1.83,-1.88,-1.94
358.28,-0.78,1.13,-0.74,1.17,-1.18,-1.37,-1.51,-1.96,-1.92,-1.91
361.87,-0.89,1.00,-0.86,1.03,-1.10,-1.37,-1.52,-1.99,-1.96,-1.89
365.49,-0.91,0.96,-0.92,0.95,-1.04,-1.38,-1.53,-1.95,-1.96,-1.87
369.14,-0.91,0.95,-0.94,0.91,-1.01,-1.39,-1.53,-1.92,-1.95,-1.86
372.83,-0.91,0.93,-0.90,0.94,-1.00,-1.39,-1.55,-1.91,-1.90,-1.84
376.56,-0.86,0.96,-0.79,1.02,-1.03,-1.40,-1.56,-1.89,-1.82,-1.82
380.33,-0.62,1.17,-0.66,1.14,-1.09,-1.41,-1.57,-1.71,-1.75,-1.79
384.13,-0.48,1.29,-0.54,1.24,-1.18,-1.41,-1.58,-1.66,-1.72,-1.77
387.97,-0.46,1.31,-0.45,1.32,-1.27,-1.42,-1.60,-1.73,-1.72,-1.77
391.85,-0.45,1.31,-0.39,1.36,-1.37,-1.43,-1.61,-1.82,-1.76,-1.76
395.77,-0.29,1.45,-0.33,1.42,-1.46,-1.44,-1.63,-1.75,-1.79,-1.74
399.73,-0.23,1.50,-0.22,1.51,-1.53,-1.44,-1.65,-1.76,-1.75,-1.73
403.72,-0.14,1.59,-0.12,1.60,-1.59,-1.45,-1.66,-1.73,-1.71,-1.73
407.76,-0.03,1.69,-0.06,1.66,-1.63,-1.46,-1.68,-1.66,-1.68,-1.72
411.84,-0.00,1.71,-0.01,1.70,-1.66,-1.47,-1.70,-1.66,-1.67,-1.71
415.96,0.00,1.70,0.01,1.71,-1.69,-1.48,-1.72,-1.69,-1.68,-1.70
420.12,0.00,1.69,0.00,1.69,-1.70,-1.49,-1.74,-1.70,-1.69,-1.69
424.32,0.00,1.69,0.00,1.69,-1.69,-1.49,-1.75,-1.69,-1.69,-1.69
428.56,0.00,1.68,-0.00,1.68,-1.68,-1.50,-1.77,-1.68,-1.68,-1.68
432.85,0.00,1.68,-0.00,1.68,-1.67,-1.51,-1.79,-1.67,-1.67,-1.68
437.18,0.00,1.67,-0.00,1.67,-1.68,-1.52,-1.81,-1.68,-1.68,-1.67
441.55,0.00,1.66,-0.02,1.65,-1.69,-1.53,-1.83,-1.69,-1.71,-1.66
445.96,0.00,1.65,0.00,1.66,-1.71,-1.54,-1.84,-1.71,-1.71,-1.65
450.42,0.00,1.65,0.06,1.71,-1.74,-1.54,-1.86,-1.74,-1.67,-1.65
454.93,0.18,1.81,0.14,1.78,-1.76,-1.55,-1.87,-1.58,-1.62,-1.63
459.48,0.23,1.86,0.20,1.83,-1.77,-1.56,-1.88,-1.54,-1.57,-1.63
464.07,0.23,1.84,0.24,1.86,-1.79,-1.57,-1.89,-1.56,-1.55,-1.61
468.71,0.23,1.83,0.23,1.84,-1.81,-1.57,-1.90,-1.58,-1.58,-1.60
473.40,0.23,1.83,0.23,1.82,-1.84,-1.58,-1.91,-1.61,-1.61,-1.60
478.13,0.23,1.81,0.22,1.80,-1.86,-1.59,-1.92,-1.63,-1.64,-1.58
