frequency,raw,error,smoothed,error_smoothed,equalization,parametric_eq,fixed_band_eq,equalized_raw,equalized_smoothed,target
20.00,-4.79,-6.63,-4.79,-6.63,6.01,5.77,1.07,1.22,1.21,1.84
20.20,-4.65,-6.49,-4.65,-6.49,6.02,5.82,1.10,1.37,1.37,1.84
20.40,-4.51,-6.35,-4.50,-6.35,6.01,5.85,1.13,1.50,1.51,1.84
20.61,-4.37,-6.22,-4.37,-6.21,5.99,5.86,1.17,1.62,1.63,1.85
20.81,-4.23,-6.08,-4.23,-6.08,5.96,5.86,1.20,1.73,1.73,1.85
21.02,-4.09,-5.94,-4.10,-5.95,5.91,5.84,1.24,1.82,1.81,1.85
21.23,-3.99,-5.84,-3.99,-5.84,5.84,5.81,1.28,1.85,1.85,1.85
21.44,-3.89,-5.75,-3.89,-5.74,5.76,5.76,1.32,1.87,1.87,1.86
21.66,-3.79,-5.65,-3.79,-5.65,5.65,5.70,1.35,1.86,1.86,1.86
21.87,-3.69,-5.55,-3.68,-5.54,5.53,5.63,1.40,1.84,1.84,1.86
22.09,-3.56,-5.42,-3.55,-5.41,5.39,5.54,1.44,1.83,1.84,1.86
22.31,-3.40,-5.26,-3.40,-5.26,5.25,5.45,1.48,1.85,1.84,1.87
22.54,-3.24,-5.10,-3.24,-5.10,5.11,5.34,1.52,1.87,1.87,1.86
22.76,-3.08,-4.95,-3.08,-4.94,4.98,5.22,1.57,1.90,1.90,1.87
22.99,-2.92,-4.79,-2.94,-4.80,4.85,5.10,1.62,1.93,1.91,1.87
23.22,-2.82,-4.69,-2.82,-4.69,4.72,4.97,1.66,1.90,1.90,1.87
23.45,-2.73,-4.59,-2.73,-4.59,4.60,4.84,1.71,1.87,1.87,1.87
23.69,-2.63,-4.50,-2.64,-4.50,4.47,4.71,1.76,1.84,1.84,1.87
23.92,-2.54,-4.41,-2.53,-4.39,4.35,4.57,1.81,1.81,1.82,1.87
24.16,-2.40,-4.26,-2.40,-4.26,4.22,4.43,1.86,1.82,1.82,1.86
24.40,-2.24,-4.10,-2.24,-4.11,4.09,4.29,1.91,1.85,1.85,1.86
24.65,-2.09,-3.95,-2.08,-3.94,3.96,4.15,1.96,1.87,1.88,1.86
24.89,-1.93,-3.78,-1.94,-3.79,3.83,4.02,2.02,1.90,1.89,1.85
25.14,-1.81,-3.66,-1.82,-3.67,3.70,3.88,2.07,1.89,1.88,1.85
25.39,-1.72,-3.56,-1.71,-3.56,3.58,3.75,2.12,1.86,1.87,1.84
25.65,-1.63,-3.47,-1.63,-3.47,3.47,3.62,2.17,1.84,1.84,1.84
25.91,-1.54,-3.37,-1.54,-3.38,3.37,3.49,2.22,1.83,1.82,1.83
26.16,-1.46,-3.29,-1.46,-3.29,3.28,3.36,2.28,1.82,1.82,1.83
26.43,-1.38,-3.20,-1.38,-3.20,3.20,3.24,2.33,1.81,1.82,1.82
26.69,-1.29,-3.11,-1.29,-3.11,3.12,3.12,2.38,1.83,1.82,1.82
26.96,-1.21,-3.03,-1.21,-3.03,3.04,3.00,2.43,1.82,1.82,1.82
27.23,-1.13,-2.95,-1.13,-2.94,2.95,2.89,2.47,1.82,1.82,1.82
27.50,-1.05,-2.86,-1.05,-2.87,2.86,2.78,2.52,1.80,1.80,1.81
27.77,-0.97,-2.78,-0.97,-2.78,2.76,2.68,2.56,1.79,1.79,1.81
28.05,-0.89,-2.70,-0.88,-2.69,2.66,2.58,2.60,1.77,1.78,1.82
28.33,-0.76,-2.57,-0.76,-2.57,2.56,2.48,2.64,1.80,1.80,1.81
28.62,-0.63,-2.45,-0.63,-2.45,2.46,2.38,2.68,1.82,1.82,1.81
28.90,-0.50,-2.31,-0.51,-2.33,2.36,2.29,2.71,1.86,1.84,1.81
29.19,-0.42,-2.23,-0.42,-2.23,2.26,2.20,2.74,1.84,1.84,1.81
29.48,-0.35,-2.16,-0.34,-2.16,2.17,2.12,2.76,1.82,1.82,1.81
29.78,-0.28,-2.09,-0.28,-2.09,2.08,2.04,2.78,1.80,1.80,1.81
30.08,-0.21,-2.01,-0.21,-2.01,2.00,1.96,2.80,1.79,1.79,1.80
30.38,-0.14,-1.94,-0.14,-1.94,1.93,1.88,2.81,1.79,1.79,1.80
30.68,-0.07,-1.87,-0.07,-1.86,1.86,1.81,2.82,1.79,1.79,1.80
30.99,-0.00,-1.79,-0.00,-1.79,1.79,1.74,2.82,1.79,1.79,1.79
31.30,0.07,-1.72,0.07,-1.71,1.71,1.68,2.82,1.78,1.78,1.78
31.61,0.14,-1.63,0.14,-1.64,1.63,1.61,2.81,1.77,1.77,1.77
31.93,0.21,-1.56,0.21,-1.56,1.55,1.55,2.80,1.76,1.76,1.77
32.24,0.29,-1.47,0.29,-1.47,1.46,1.49,2.79,1.76,1.75,1.76
32.57,0.36,-1.39,0.36,-1.39,1.38,1.44,2.77,1.74,1.74,1.75
32.89,0.44,-1.31,0.44,-1.31,1.30,1.38,2.74,1.74,1.74,1.75
33.22,0.51,-1.24,0.52,-1.23,1.23,1.33,2.72,1.74,1.74,1.75
33.55,0.58,-1.15,0.59,-1.15,1.16,1.28,2.68,1.74,1.75,1.73
33.89,0.66,-1.06,0.64,-1.08,1.11,1.23,2.65,1.77,1.75,1.72
34.23,0.68,-1.04,0.68,-1.04,1.07,1.19,2.61,1.75,1.75,1.72
34.57,0.68,-1.03,0.69,-1.03,1.04,1.14,2.57,1.72,1.73,1.71
34.92,0.68,-1.03,0.68,-1.03,1.02,1.10,2.52,1.70,1.70,1.71
35.27,0.68,-1.03,0.68,-1.02,1.01,1.06,2.47,1.69,1.69,1.71
35.62,0.68,-1.02,0.68,-1.02,1.01,1.02,2.42,1.69,1.69,1.70
35.97,0.68,-1.01,0.68,-1.01,1.02,0.99,2.37,1.70,1.70,1.69
36.33,0.68,-1.01,0.68,-1.01,1.02,0.95,2.32,1.70,1.70,1.69
36.70,0.68,-1.01,0.68,-1.01,1.02,0.92,2.26,1.70,1.70,1.69
37.06,0.68,-1.00,0.68,-1.01,1.01,0.89,2.21,1.69,1.68,1.68
37.43,0.68,-1.00,0.67,-1.01,0.99,0.86,2.15,1.67,1.66,1.68
37.81,0.68,-1.01,0.69,-1.00,0.96,0.83,2.09,1.64,1.65,1.69
38.19,0.72,-0.97,0.74,-0.95,0.93,0.80,2.03,1.65,1.67,1.69
38.57,0.81,-0.87,0.81,-0.88,0.89,0.78,1.98,1.70,1.69,1.68
38.95,0.90,-0.78,0.87,-0.81,0.84,0.75,1.92,1.74,1.71,1.68
39.34,0.92,-0.76,0.92,-0.76,0.78,0.73,1.86,1.71,1.70,1.68
39.74,0.93,-0.75,0.94,-0.73,0.73,0.71,1.80,1.66,1.68,1.68
40.14,0.97,-0.70,0.99,-0.69,0.68,0.69,1.74,1.65,1.67,1.67
40.54,1.05,-0.62,1.05,-0.62,0.62,0.66,1.69,1.67,1.67,1.67
40.94,1.13,-0.54,1.10,-0.56,0.57,0.65,1.63,1.70,1.67,1.67
41.35,1.14,-0.51,1.13,-0.52,0.51,0.63,1.57,1.65,1.64,1.65
41.76,1.14,-0.50,1.16,-0.48,0.45,0.61,1.52,1.59,1.61,1.64
42.18,1.18,-0.44,1.21,-0.42,0.39,0.59,1.46,1.57,1.60,1.62
42.60,1.28,-0.33,1.28,-0.33,0.33,0.58,1.41,1.61,1.61,1.61
43.03,1.37,-0.23,1.34,-0.25,0.28,0.56,1.36,1.65,1.62,1.60
43.46,1.37,-0.20,1.38,-0.20,0.24,0.55,1.30,1.61,1.61,1.57
43.90,1.37,-0.19,1.38,-0.18,0.20,0.53,1.25,1.57,1.58,1.56
44.33,1.37,-0.17,1.37,-0.17,0.17,0.52,1.20,1.54,1.54,1.54
44.78,1.37,-0.16,1.37,-0.16,0.14,0.50,1.15,1.51,1.51,1.53
45.23,1.37,-0.14,1.37,-0.14,0.13,0.49,1.10,1.50,1.50,1.51
45.68,1.37,-0.13,1.37,-0.13,0.12,0.48,1.06,1.49,1.49,1.50
46.13,1.37,-0.12,1.37,-0.12,0.11,0.47,1.01,1.48,1.48,1.49
46.60,1.37,-0.12,1.37,-0.11,0.10,0.46,0.96,1.47,1.47,1.49
47.06,1.37,-0.11,1.37,-0.11,0.10,0.45,0.92,1.47,1.47,1.48
47.53,1.37,-0.10,1.37,-0.11,0.11,0.44,0.87,1.48,1.48,1.47
48.01,1.37,-0.11,1.38,-0.10,0.13,0.43,0.83,1.50,1.51,1.48
48.49,1.37,-0.11,1.37,-0.10,0.16,0.42,0.79,1.53,1.53,1.48
48.97,1.37,-0.11,1.33,-0.15,0.18,0.41,0.75,1.55,1.51,1.48
49.46,1.26,-0.23,1.26,-0.23,0.21,0.40,0.71,1.47,1.47,1.49
49.96,1.15,-0.34,1.19,-0.30,0.25,0.40,0.67,1.40,1.44,1.49
50.46,1.14,-0.36,1.14,-0.36,0.29,0.39,0.63,1.43,1.43,1.50
50.96,1.14,-0.36,1.14,-0.36,0.34,0.38,0.59,1.48,1.49,1.50
51.47,1.14,-0.37,1.14,-0.36,0.40,0.38,0.56,1.54,1.55,1.51
51.99,1.14,-0.36,1.11,-0.39,0.46,0.37,0.52,1.60,1.57,1.50
52.51,1.02,-0.47,1.02,-0.47,0.52,0.36,0.49,1.54,1.54,1.49
53.03,0.90,-0.58,0.90,-0.58,0.58,0.36,0.45,1.48,1.48,1.48
53.56,0.78,-0.69,0.79,-0.69,0.64,0.35,0.42,1.42,1.43,1.47
54.10,0.68,-0.78,0.72,-0.74,0.71,0.35,0.39,1.39,1.43,1.46
54.64,0.68,-0.76,0.66,-0.78,0.77,0.34,0.36,1.45,1.43,1.44
55.18,0.64,-0.78,0.60,-0.82,0.82,0.34,0.33,1.46,1.42,1.42
55.74,0.52,-0.88,0.54,-0.85,0.86,0.33,0.30,1.38,1.40,1.40
56.29,0.46,-0.91,0.48,-0.89,0.88,0.33,0.27,1.34,1.36,1.37
56.86,0.46,-0.89,0.45,-0.89,0.88,0.33,0.25,1.34,1.33,1.35
57.42,0.46,-0.85,0.45,-0.86,0.86,0.32,0.22,1.32,1.32,1.31
58.00,0.46,-0.82,0.46,-0.82,0.83,0.32,0.20,1.29,1.29,1.28
58.58,0.46,-0.79,0.45,-0.80,0.79,0.32,0.18,1.25,1.24,1.25
59.16,0.46,-0.76,0.45,-0.76,0.73,0.31,0.16,1.19,1.18,1.22
59.76,0.46,-0.72,0.49,-0.69,0.66,0.31,0.14,1.12,1.15,1.18
60.35,0.54,-0.61,0.56,-0.59,0.58,0.31,0.12,1.13,1.14,1.15
60.96,0.67,-0.44,0.63,-0.49,0.51,0.31,0.10,1.18,1.14,1.11
61.57,0.68,-0.41,0.68,-0.41,0.44,0.31,0.09,1.12,1.12,1.09
62.18,0.68,-0.37,0.69,-0.36,0.38,0.30,0.08,1.06,1.08,1.05
62.80,0.68,-0.34,0.68,-0.33,0.34,0.30,0.06,1.02,1.02,1.02
63.43,0.68,-0.30,0.68,-0.30,0.31,0.30,0.05,0.99,1.00,0.98
64.07,0.68,-0.26,0.67,-0.27,0.30,0.30,0.04,0.98,0.97,0.94
64.71,0.64,-0.27,0.62,-0.28,0.30,0.30,0.03,0.94,0.93,0.91
65.35,0.57,-0.30,0.56,-0.31,0.31,0.30,0.03,0.87,0.86,0.87
66.01,0.46,-0.38,0.50,-0.34,0.31,0.30,0.02,0.77,0.81,0.84
66.67,0.46,-0.35,0.46,-0.35,0.31,0.30,0.02,0.77,0.77,0.81
67.33,0.46,-0.33,0.45,-0.34,0.31,0.30,0.01,0.77,0.76,0.79
68.01,0.46,-0.30,0.46,-0.30,0.30,0.30,0.01,0.76,0.76,0.76
68.69,0.46,-0.28,0.46,-0.28,0.29,0.31,0.01,0.75,0.75,0.74
69.37,0.46,-0.27,0.46,-0.27,0.27,0.31,0.01,0.73,0.73,0.73
70.07,0.46,-0.26,0.46,-0.26,0.25,0.31,0.01,0.71,0.71,0.72
70.77,0.46,-0.24,0.46,-0.24,0.25,0.31,0.01,0.71,0.71,0.70
71.48,0.46,-0.23,0.47,-0.22,0.26,0.32,0.01,0.72,0.73,0.69
72.19,0.46,-0.22,0.46,-0.22,0.27,0.32,0.01,0.73,0.73,0.68
72.91,0.46,-0.21,0.41,-0.26,0.29,0.32,0.02,0.75,0.70,0.67
73.64,0.31,-0.35,0.33,-0.33,0.32,0.33,0.02,0.63,0.65,0.66
74.38,0.23,-0.41,0.26,-0.38,0.34,0.33,0.03,0.57,0.60,0.64
75.12,0.23,-0.40,0.22,-0.40,0.35,0.34,0.03,0.58,0.57,0.63
75.87,0.23,-0.37,0.22,-0.38,0.36,0.35,0.03,0.59,0.58,0.60
76.63,0.23,-0.35,0.23,-0.36,0.35,0.35,0.04,0.58,0.58,0.58
77.40,0.23,-0.34,0.23,-0.33,0.34,0.36,0.05,0.57,0.57,0.57
78.17,0.23,-0.32,0.23,-0.31,0.31,0.37,0.05,0.54,0.54,0.55
78.95,0.23,-0.29,0.23,-0.29,0.29,0.38,0.06,0.52,0.52,0.52
79.74,0.23,-0.27,0.23,-0.27,0.29,0.39,0.06,0.52,0.52,0.50
80.54,0.23,-0.25,0.24,-0.23,0.29,0.40,0.07,0.52,0.53,0.48
81.35,0.23,-0.23,0.20,-0.25,0.29,0.41,0.08,0.52,0.50,0.46
82.16,0.18,-0.26,0.14,-0.30,0.30,0.42,0.08,0.48,0.44,0.44
82.98,0.00,-0.42,0.06,-0.36,0.31,0.43,0.09,0.31,0.38,0.42
83.81,0.00,-0.40,0.00,-0.40,0.34,0.45,0.10,0.34,0.34,0.40
84.65,0.00,-0.38,-0.01,-0.40,0.37,0.46,0.10,0.37,0.36,0.38
85.50,0.00,-0.37,0.01,-0.35,0.40,0.48,0.11,0.40,0.42,0.37
86.35,-0.00,-0.35,-0.03,-0.38,0.43,0.49,0.12,0.43,0.40,0.35
87.22,-0.05,-0.39,-0.09,-0.43,0.44,0.51,0.13,0.39,0.35,0.34
88.09,-0.23,-0.55,-0.17,-0.49,0.46,0.52,0.13,0.23,0.29,0.32
88.97,-0.23,-0.54,-0.23,-0.53,0.48,0.54,0.14,0.25,0.25,0.31
89.86,-0.23,-0.51,-0.24,-0.53,0.50,0.55,0.15,0.27,0.26,0.28
90.76,-0.23,-0.50,-0.22,-0.49,0.53,0.56,0.15,0.30,0.31,0.27
91.66,-0.23,-0.48,-0.26,-0.51,0.56,0.57,0.16,0.33,0.30,0.25
92.58,-0.31,-0.54,-0.32,-0.55,0.57,0.58,0.17,0.26,0.25,0.23
93.51,-0.41,-0.63,-0.39,-0.61,0.58,0.59,0.18,0.17,0.19,0.22
94.44,-0.46,-0.66,-0.45,-0.64,0.59,0.59,0.18,0.13,0.14,0.20
95.39,-0.46,-0.64,-0.47,-0.65,0.60,0.59,0.19,0.14,0.14,0.18
96.34,-0.46,-0.62,-0.46,-0.62,0.63,0.59,0.20,0.17,0.17,0.16
97.30,-0.46,-0.60,-0.45,-0.59,0.65,0.59,0.21,0.19,0.21,0.14
98.28,-0.46,-0.58,-0.49,-0.61,0.67,0.58,0.21,0.21,0.18,0.12
99.26,-0.52,-0.63,-0.55,-0.66,0.68,0.58,0.22,0.16,0.12,0.11
100.25,-0.68,-0.76,-0.62,-0.70,0.68,0.57,0.23,0.00,0.06,0.08
101.25,-0.68,-0.74,-0.68,-0.73,0.69,0.56,0.24,0.01,0.01,0.06
102.27,-0.68,-0.71,-0.70,-0.72,0.68,0.55,0.24,0.00,-0.01,0.03
103.29,-0.68,-0.68,-0.68,-0.68,0.67,0.54,0.25,-0.01,-0.01,-0.00
104.32,-0.68,-0.64,-0.68,-0.64,0.64,0.53,0.26,-0.04,-0.04,-0.04
105.37,-0.68,-0.60,-0.68,-0.60,0.60,0.51,0.27,-0.08,-0.08,-0.08
106.42,-0.68,-0.56,-0.68,-0.56,0.55,0.50,0.27,-0.13,-0.13,-0.12
107.48,-0.68,-0.51,-0.68,-0.51,0.52,0.49,0.28,-0.16,-0.16,-0.17
108.56,-0.68,-0.45,-0.66,-0.44,0.49,0.49,0.29,-0.19,-0.17,-0.23
109.64,-0.68,-0.40,-0.69,-0.41,0.47,0.48,0.30,-0.21,-0.22,-0.28
110.74,-0.69,-0.36,-0.75,-0.42,0.45,0.47,0.31,-0.24,-0.30,-0.33
111.85,-0.88,-0.50,-0.83,-0.45,0.42,0.46,0.31,-0.46,-0.40,-0.37
112.97,-0.91,-0.48,-0.89,-0.46,0.40,0.46,0.32,-0.51,-0.49,-0.43
114.10,-0.91,-0.43,-0.93,-0.44,0.38,0.45,0.33,-0.53,-0.55,-0.48
115.24,-0.91,-0.38,-0.91,-0.38,0.36,0.45,0.34,-0.55,-0.55,-0.53
116.39,-0.91,-0.33,-0.91,-0.33,0.35,0.44,0.35,-0.56,-0.56,-0.58
117.55,-0.91,-0.28,-0.89,-0.27,0.33,0.44,0.36,-0.58,-0.56,-0.63
118.73,-0.91,-0.25,-0.92,-0.26,0.31,0.44,0.37,-0.60,-0.61,-0.66
119.92,-0.92,-0.22,-0.99,-0.29,0.30,0.43,0.37,-0.62,-0.69,-0.70
121.12,-1.14,-0.40,-1.07,-0.33,0.31,0.43,0.38,-0.83,-0.76,-0.74
122.33,-1.14,-0.37,-1.12,-0.34,0.33,0.43,0.39,-0.81,-0.79,-0.77
123.55,-1.14,-0.34,-1.16,-0.36,0.36,0.43,0.40,-0.78,-0.81,-0.80
124.79,-1.14,-0.31,-1.19,-0.36,0.38,0.43,0.41,-0.76,-0.81,-0.83
126.03,-1.29,-0.43,-1.26,-0.40,0.40,0.43,0.42,-0.89,-0.85,-0.86
127.29,-1.34,-0.46,-1.33,-0.44,0.41,0.43,0.43,-0.93,-0.92,-0.88
128.57,-1.37,-0.45,-1.37,-0.46,0.41,0.44,0.44,-0.96,-0.97,-0.92
129.85,-1.37,-0.43,-1.37,-0.43,0.40,0.44,0.45,-0.97,-0.97,-0.94
131.15,-1.37,-0.40,-1.37,-0.40,0.40,0.44,0.46,-0.97,-0.98,-0.97
132.46,-1.37,-0.37,-1.37,-0.37,0.40,0.44,0.47,-0.97,-0.97,-1.00
133.79,-1.37,-0.34,-1.36,-0.34,0.40,0.45,0.48,-0.97,-0.96,-1.03
135.12,-1.38,-0.33,-1.40,-0.34,0.40,0.45,0.49,-0.98,-1.00,-1.05
136.48,-1.43,-0.35,-1.46,-0.38,0.40,0.46,0.50,-1.03,-1.07,-1.08
137.84,-1.58,-0.47,-1.54,-0.43,0.40,0.46,0.51,-1.18,-1.14,-1.11
139.22,-1.60,-0.47,-1.59,-0.46,0.40,0.47,0.52,-1.20,-1.19,-1.13
140.61,-1.60,-0.44,-1.61,-0.45,0.40,0.47,0.53,-1.20,-1.22,-1.16
142.02,-1.60,-0.41,-1.60,-0.41,0.40,0.48,0.54,-1.20,-1.20,-1.19
143.44,-1.60,-0.38,-1.60,-0.38,0.40,0.48,0.56,-1.20,-1.20,-1.22
144.87,-1.60,-0.36,-1.59,-0.34,0.39,0.49,0.57,-1.21,-1.20,-1.24
146.32,-1.60,-0.32,-1.62,-0.34,0.38,0.50,0.58,-1.22,-1.24,-1.28
147.78,-1.65,-0.33,-1.67,-0.36,0.36,0.50,0.60,-1.29,-1.31,-1.32
149.26,-1.76,-0.41,-1.74,-0.39,0.35,0.51,0.61,-1.41,-1.39,-1.35
150.75,-1.82,-0.42,-1.79,-0.40,0.35,0.52,0.63,-1.47,-1.44,-1.40
152.26,-1.82,-0.38,-1.81,-0.37,0.36,0.53,0.64,-1.46,-1.46,-1.44
153.78,-1.82,-0.32,-1.85,-0.35,0.37,0.53,0.66,-1.45,-1.48,-1.50
155.32,-1.87,-0.32,-1.90,-0.35,0.38,0.54,0.67,-1.49,-1.52,-1.55
156.88,-2.03,-0.43,-1.97,-0.37,0.40,0.55,0.69,-1.63,-1.57,-1.60
158.44,-2.05,-0.41,-2.06,-0.42,0.42,0.56,0.71,-1.63,-1.65,-1.64
160.03,-2.11,-0.42,-2.15,-0.47,0.45,0.57,0.73,-1.66,-1.71,-1.69
161.63,-2.25,-0.52,-2.20,-0.47,0.49,0.58,0.74,-1.76,-1.71,-1.73
163.24,-2.28,-0.52,-2.27,-0.51,0.53,0.59,0.76,-1.75,-1.74,-1.76
164.88,-2.28,-0.49,-2.35,-0.57,0.57,0.60,0.78,-1.71,-1.78,-1.79
166.53,-2.46,-0.65,-2.42,-0.61,0.61,0.61,0.80,-1.85,-1.81,-1.81
168.19,-2.51,-0.69,-2.48,-0.66,0.63,0.63,0.83,-1.88,-1.85,-1.82
169.87,-2.51,-0.68,-2.52,-0.69,0.66,0.64,0.85,-1.85,-1.87,-1.83
171.57,-2.51,-0.68,-2.51,-0.68,0.68,0.65,0.87,-1.83,-1.84,-1.83
173.29,-2.51,-0.68,-2.51,-0.68,0.70,0.66,0.89,-1.81,-1.81,-1.83
175.02,-2.51,-0.69,-2.51,-0.69,0.71,0.68,0.92,-1.80,-1.80,-1.82
176.77,-2.51,-0.70,-2.51,-0.70,0.71,0.69,0.94,-1.80,-1.80,-1.81
178.54,-2.51,-0.71,-2.51,-0.71,0.71,0.70,0.97,-1.80,-1.80,-1.80
180.32,-2.51,-0.73,-2.51,-0.73,0.72,0.72,1.00,-1.79,-1.79,-1.78
182.13,-2.51,-0.74,-2.51,-0.74,0.72,0.73,1.02,-1.79,-1.79,-1.77
183.95,-2.51,-0.75,-2.51,-0.75,0.74,0.75,1.05,-1.77,-1.77,-1.76
185.79,-2.51,-0.76,-2.51,-0.75,0.76,0.76,1.08,-1.75,-1.74,-1.75
187.65,-2.51,-0.76,-2.50,-0.75,0.79,0.78,1.11,-1.72,-1.71,-1.75
189.52,-2.51,-0.76,-2.53,-0.78,0.82,0.79,1.14,-1.69,-1.71,-1.75
191.42,-2.56,-0.81,-2.59,-0.83,0.84,0.81,1.17,-1.72,-1.75,-1.75
193.33,-2.69,-0.93,-2.66,-0.90,0.87,0.83,1.20,-1.82,-1.79,-1.76
195.27,-2.74,-0.97,-2.72,-0.96,0.90,0.84,1.23,-1.84,-1.82,-1.77
197.22,-2.74,-0.97,-2.75,-0.97,0.94,0.86,1.26,-1.80,-1.80,-1.77
199.19,-2.74,-0.96,-2.74,-0.96,0.98,0.88,1.30,-1.76,-1.75,-1.78
201.18,-2.74,-0.95,-2.75,-0.97,1.02,0.90,1.33,-1.72,-1.74,-1.79
203.19,-2.78,-0.98,-2.81,-1.01,1.04,0.92,1.36,-1.74,-1.77,-1.80
205.23,-2.90,-1.09,-2.88,-1.07,1.05,0.94,1.39,-1.85,-1.82,-1.81
207.28,-2.96,-1.13,-2.94,-1.11,1.06,0.96,1.43,-1.90,-1.88,-1.83
209.35,-2.96,-1.11,-2.97,-1.12,1.07,0.98,1.46,-1.89,-1.90,-1.85
211.44,-2.96,-1.10,-2.97,-1.11,1.09,1.00,1.49,-1.87,-1.88,-1.86
213.56,-2.96,-1.08,-2.95,-1.08,1.11,1.02,1.52,-1.85,-1.84,-1.88
215.69,-2.96,-1.08,-2.95,-1.07,1.13,1.04,1.56,-1.83,-1.83,-1.88
217.85,-2.96,-1.06,-2.99,-1.09,1.14,1.06,1.59,-1.82,-1.85,-1.90
220.03,-3.05,-1.14,-3.06,-1.14,1.16,1.08,1.62,-1.89,-1.90,-1.91
222.23,-3.15,-1.22,-3.13,-1.20,1.17,1.11,1.64,-1.98,-1.96,-1.93
224.45,-3.19,-1.26,-3.18,-1.24,1.18,1.13,1.67,-2.01,-2.00,-1.93
226.70,-3.19,-1.24,-3.20,-1.25,1.20,1.16,1.70,-1.99,-2.00,-1.95
228.96,-3.19,-1.23,-3.19,-1.23,1.22,1.18,1.72,-1.97,-1.97,-1.96
231.25,-3.19,-1.22,-3.18,-1.21,1.25,1.20,1.74,-1.94,-1.93,-1.97
233.57,-3.19,-1.21,-3.19,-1.21,1.27,1.23,1.76,-1.92,-1.92,-1.98
235.90,-3.19,-1.20,-3.23,-1.24,1.29,1.26,1.78,-1.90,-1.94,-1.99
238.26,-3.30,-1.30,-3.30,-1.30,1.31,1.28,1.80,-1.99,-1.99,-2.00
240.64,-3.40,-1.39,-3.37,-1.36,1.33,1.31,1.81,-2.07,-2.04,-2.01
243.05,-3.42,-1.41,-3.42,-1.41,1.35,1.34,1.82,-2.07,-2.07,-2.01
245.48,-3.42,-1.40,-3.43,-1.41,1.36,1.36,1.83,-2.06,-2.06,-2.02
247.93,-3.42,-1.40,-3.42,-1.40,1.38,1.39,1.84,-2.04,-2.04,-2.02
250.41,-3.42,-1.39,-3.42,-1.39,1.41,1.42,1.84,-2.01,-2.01,-2.03
252.92,-3.42,-1.39,-3.41,-1.37,1.42,1.45,1.84,-2.00,-1.98,-2.03
255.45,-3.42,-1.38,-3.42,-1.38,1.44,1.48,1.84,-1.98,-1.98,-2.04
258.00,-3.42,-1.38,-3.47,-1.43,1.45,1.51,1.84,-1.97,-2.01,-2.04
260.58,-3.56,-1.52,-3.54,-1.49,1.47,1.54,1.83,-2.09,-2.07,-2.04
263.19,-3.64,-1.58,-3.61,-1.56,1.50,1.57,1.82,-2.14,-2.11,-2.06
265.82,-3.65,-1.59,-3.66,-1.59,1.54,1.60,1.81,-2.11,-2.11,-2.06
268.48,-3.65,-1.58,-3.64,-1.57,1.58,1.63,1.79,-2.07,-2.06,-2.07
271.16,-3.65,-1.57,-3.65,-1.57,1.62,1.66,1.78,-2.03,-2.02,-2.08
273.87,-3.65,-1.57,-3.70,-1.61,1.66,1.69,1.76,-1.99,-2.04,-2.08
276.61,-3.78,-1.69,-3.76,-1.67,1.68,1.72,1.74,-2.10,-2.08,-2.09
279.38,-3.86,-1.76,-3.83,-1.73,1.70,1.75,1.72,-2.16,-2.13,-2.10
282.17,-3.87,-1.77,-3.88,-1.77,1.71,1.78,1.70,-2.16,-2.16,-2.10
284.99,-3.87,-1.76,-3.88,-1.77,1.74,1.81,1.68,-2.13,-2.14,-2.11
287.84,-3.87,-1.76,-3.87,-1.76,1.77,1.84,1.65,-2.10,-2.10,-2.11
290.72,-3.87,-1.76,-3.85,-1.74,1.80,1.87,1.63,-2.07,-2.05,-2.11
293.63,-3.87,-1.76,-3.87,-1.76,1.83,1.90,1.60,-2.04,-2.05,-2.11
296.57,-3.87,-1.75,-3.93,-1.82,1.85,1.93,1.57,-2.02,-2.08,-2.12
299.53,-4.05,-1.93,-4.01,-1.89,1.87,1.96,1.55,-2.18,-2.13,-2.12
302.53,-4.10,-1.97,-4.07,-1.95,1.89,1.99,1.52,-2.21,-2.18,-2.13
305.55,-4.10,-1.97,-4.11,-1.98,1.91,2.02,1.50,-2.19,-2.20,-2.13
308.61,-4.10,-1.97,-4.10,-1.97,1.94,2.05,1.47,-2.16,-2.17,-2.13
311.69,-4.10,-1.95,-4.10,-1.95,1.96,2.08,1.44,-2.14,-2.14,-2.15
314.81,-4.10,-1.94,-4.08,-1.93,1.98,2.10,1.42,-2.12,-2.10,-2.16
317.96,-4.10,-1.93,-4.11,-1.93,2.00,2.13,1.39,-2.10,-2.11,-2.17
321.14,-4.11,-1.92,-4.17,-1.98,2.01,2.15,1.37,-2.10,-2.16,-2.19
324.35,-4.28,-2.08,-4.24,-2.04,2.02,2.17,1.35,-2.26,-2.22,-2.20
327.59,-4.33,-2.11,-4.31,-2.09,2.03,2.20,1.32,-2.30,-2.27,-2.22
330.87,-4.33,-2.10,-4.34,-2.12,2.06,2.22,1.30,-2.27,-2.29,-2.23
334.18,-4.33,-2.09,-4.33,-2.10,2.08,2.24,1.28,-2.25,-2.26,-2.24
337.52,-4.33,-2.08,-4.32,-2.08,2.10,2.25,1.26,-2.23,-2.22,-2.25
340.90,-4.33,-2.08,-4.32,-2.06,2.12,2.27,1.24,-2.21,-2.20,-2.25
344.30,-4.33,-2.07,-4.36,-2.10,2.12,2.28,1.22,-2.21,-2.24,-2.26
347.75,-4.39,-2.13,-4.41,-2.15,2.14,2.29,1.20,-2.25,-2.27,-2.26
351.23,-4.52,-2.25,-4.45,-2.18,2.16,2.30,1.19,-2.36,-2.29,-2.27
354.74,-4.46,-2.19,-4.48,-2.21,2.20,2.31,1.17,-2.26,-2.28,-2.27
358.28,-4.46,-2.19,-4.50,-2.23,2.24,2.32,1.16,-2.22,-2.26,-2.27
361.87,-4.53,-2.27,-4.50,-2.23,2.29,2.32,1.14,-2.24,-2.21,-2.26
365.49,-4.56,-2.30,-4.55,-2.29,2.33,2.32,1.13,-2.23,-2.23,-2.26
369.14,-4.58,-2.32,-4.64,-2.38,2.36,2.32,1.12,-2.22,-2.28,-2.26
372.83,-4.73,-2.47,-4.71,-2.45,2.40,2.31,1.11,-2.33,-2.31,-2.26
376.56,-4.79,-2.54,-4.71,-2.46,2.42,2.30,1.10,-2.37,-2.29,-2.25
380.33,-4.69,-2.44,-4.70,-2.44,2.44,2.29,1.09,-2.25,-2.26,-2.25
384.13,-4.58,-2.32,-4.69,-2.43,2.44,2.27,1.08,-2.14,-2.25,-2.26
387.97,-4.71,-2.45,-4.68,-2.42,2.44,2.26,1.07,-2.27,-2.25,-2.26
391.85,-4.77,-2.51,-4.68,-2.42,2.42,2.24,1.06,-2.35,-2.26,-2.26
395.77,-4.62,-2.36,-4.66,-2.41,2.40,2.21,1.06,-2.22,-2.26,-2.26
399.73,-4.56,-2.31,-4.59,-2.34,2.37,2.18,1.05,-2.19,-2.22,-2.25
403.72,-4.56,-2.31,-4.55,-2.30,2.34,2.15,1.04,-2.22,-2.21,-2.25
407.76,-4.56,-2.31,-4.57,-2.32,2.31,2.12,1.04,-2.25,-2.27,-2.25
411.84,-4.56,-2.31,-4.56,-2.31,2.27,2.08,1.03,-2.29,-2.28,-2.25
415.96,-4.56,-2.31,-4.50,-2.25,2.24,2.04,1.03,-2.32,-2.26,-2.25
420.12,-4.38,-2.13,-4.42,-2.17,2.19,1.99,1.02,-2.19,-2.23,-2.25
424.32,-4.33,-2.08,-4.37,-2.11,2.14,1.95,1.02,-2.19,-2.23,-2.25
428.56,-4.33,-2.08,-4.32,-2.07,2.08,1.89,1.01,-2.25,-2.24,-2.25
432.85,-4.33,-2.08,-4.30,-2.05,2.01,1.84,1.01,-2.32,-2.30,-2.25
437.18,-4.22,-1.97,-4.22,-1.97,1.93,1.78,1.00,-2.29,-2.30,-2.25
441.55,-4.13,-1.87,-4.10,-1.84,1.84,1.72,0.99,-2.29,-2.26,-2.26
445.96,-3.94,-1.67,-3.98,-1.71,1.75,1.66,0.99,-2.19,-2.22,-2.27
450.42,-3.87,-1.60,-3.92,-1.65,1.66,1.59,0.98,-2.21,-2.26,-2.27
454.93,-3.87,-1.60,-3.84,-1.57,1.56,1.52,0.97,-2.31,-2.29,-2.27
459.48,-3.83,-1.55,-3.75,-1.48,1.46,1.45,0.96,-2.37,-2.29,-2.28
464.07,-3.58,-1.31,-3.62,-1.35,1.35,1.38,0.95,-2.23,-2.27,-2.27
468.71,-3.45,-1.18,-3.51,-1.24,1.26,1.30,0.94,-2.19,-2.25,-2.27
473.40,-3.42,-1.15,-3.41,-1.14,1.17,1.22,0.92,-2.25,-2.24,-2.27
478.13,-3.42,-1.15,-3.35,-1.09,1.09,1.14,0.91,-2.33,-2.27,-2.27
482.91,-3.24,-0.98,-3.29,-1.03,1.00,1.06,0.89,-2.24,-2.28,-2.26
487.74,-3.19,-0.93,-3.19,-0.93,0.93,0.98,0.87,-2.26,-2.26,-2.26
492.62,-3.11,-0.86,-3.08,-0.83,0.86,0.89,0.85,-2.25,-2.22,-2.25
