frequency,raw,error,smoothed,error_smoothed,equalization,parametric_eq,fixed_band_eq,equalized_raw,equalized_smoothed,target
20.00,-19.23,-14.70,-19.24,-14.71,6.00,5.70,2.61,-13.23,-13.24,-4.53
20.20,-19.14,-14.61,-19.13,-14.61,6.00,5.75,2.68,-13.14,-13.13,-4.53
20.40,-19.03,-14.50,-19.01,-14.48,6.00,5.79,2.76,-13.03,-13.01,-4.53
20.61,-18.87,-14.35,-18.87,-14.35,6.00,5.83,2.84,-12.87,-12.87,-4.53
20.81,-18.70,-14.17,-18.71,-14.18,6.00,5.86,2.92,-12.70,-12.71,-4.52
21.02,-18.54,-14.02,-18.54,-14.02,6.00,5.90,3.01,-12.54,-12.54,-4.52
21.23,-18.37,-13.85,-18.37,-13.85,6.00,5.94,3.10,-12.37,-12.37,-4.52
21.44,-18.21,-13.69,-18.21,-13.69,6.00,5.97,3.19,-12.21,-12.21,-4.52
21.66,-18.04,-13.52,-18.04,-13.52,6.00,6.01,3.28,-12.04,-12.04,-4.52
21.87,-17.86,-13.34,-17.86,-13.35,6.00,6.04,3.38,-11.86,-11.86,-4.52
22.09,-17.69,-13.17,-17.69,-13.17,6.00,6.07,3.47,-11.69,-11.69,-4.52
22.31,-17.51,-12.99,-17.51,-13.00,6.00,6.10,3.57,-11.51,-11.51,-4.51
22.54,-17.34,-12.83,-17.34,-12.82,6.00,6.12,3.68,-11.34,-11.34,-4.51
22.76,-17.16,-12.65,-17.16,-12.65,6.00,6.15,3.78,-11.16,-11.16,-4.51
22.99,-16.98,-12.47,-16.98,-12.47,6.00,6.17,3.89,-10.98,-10.98,-4.51
23.22,-16.81,-12.30,-16.80,-12.30,6.00,6.19,4.00,-10.81,-10.80,-4.51
23.45,-16.62,-12.11,-16.63,-12.12,6.00,6.21,4.11,-10.62,-10.63,-4.51
23.69,-16.46,-11.96,-16.45,-11.95,6.00,6.23,4.23,-10.46,-10.45,-4.51
23.92,-16.28,-11.77,-16.28,-11.78,6.00,6.25,4.35,-10.28,-10.28,-4.50
24.16,-16.11,-11.61,-16.11,-11.61,6.00,6.26,4.47,-10.11,-10.11,-4.50
24.40,-15.94,-11.44,-15.94,-11.43,6.00,6.27,4.59,-9.94,-9.94,-4.50
24.65,-15.76,-11.26,-15.76,-11.26,6.00,6.28,4.71,-9.76,-9.76,-4.50
24.89,-15.59,-11.09,-15.59,-11.09,6.00,6.29,4.84,-9.59,-9.59,-4.50
25.14,-15.41,-10.91,-15.41,-10.91,6.00,6.29,4.97,-9.41,-9.41,-4.50
25.39,-15.24,-10.74,-15.24,-10.74,6.00,6.29,5.09,-9.24,-9.24,-4.50
25.65,-15.06,-10.57,-15.06,-10.56,6.00,6.29,5.22,-9.06,-9.06,-4.50
25.91,-14.87,-10.38,-14.87,-10.38,6.00,6.29,5.35,-8.87,-8.87,-4.49
26.16,-14.69,-10.20,-14.69,-10.20,6.00,6.28,5.48,-8.69,-8.69,-4.49
26.43,-14.52,-10.03,-14.52,-10.03,6.00,6.27,5.60,-8.52,-8.52,-4.49
26.69,-14.35,-9.86,-14.35,-9.86,6.00,6.26,5.73,-8.35,-8.35,-4.49
26.96,-14.18,-9.69,-14.18,-9.69,6.00,6.24,5.85,-8.18,-8.18,-4.49
27.23,-14.01,-9.53,-14.01,-9.52,6.00,6.23,5.97,-8.01,-8.01,-4.49
27.50,-13.82,-9.34,-13.83,-9.34,6.00,6.21,6.09,-7.82,-7.83,-4.49
27.77,-13.65,-9.16,-13.64,-9.16,6.00,6.18,6.20,-7.65,-7.64,-4.48
28.05,-13.45,-8.97,-13.45,-8.97,6.00,6.16,6.30,-7.45,-7.45,-4.48
28.33,-13.27,-8.79,-13.28,-8.80,6.00,6.13,6.40,-7.27,-7.28,-4.48
28.62,-13.10,-8.62,-13.10,-8.62,6.00,6.10,6.50,-7.10,-7.10,-4.48
28.90,-12.93,-8.45,-12.92,-8.44,6.00,6.06,6.58,-6.93,-6.92,-4.48
29.19,-12.73,-8.25,-12.73,-8.26,6.00,6.02,6.66,-6.73,-6.73,-4.48
29.48,-12.54,-8.06,-12.55,-8.07,6.00,5.98,6.72,-6.54,-6.55,-4.48
29.78,-12.37,-7.90,-12.37,-7.89,6.00,5.94,6.77,-6.37,-6.37,-4.47
30.08,-12.19,-7.72,-12.19,-7.71,6.00,5.89,6.82,-6.19,-6.19,-4.47
30.38,-12.00,-7.53,-12.00,-7.53,6.00,5.84,6.85,-6.00,-6.00,-4.47
30.68,-11.81,-7.34,-11.82,-7.35,6.00,5.78,6.86,-5.81,-5.82,-4.47
30.99,-11.63,-7.16,-11.63,-7.16,6.01,5.73,6.87,-5.62,-5.62,-4.47
31.30,-11.44,-6.97,-11.44,-6.97,6.02,5.67,6.86,-5.42,-5.42,-4.47
31.61,-11.25,-6.78,-11.26,-6.80,6.03,5.60,6.84,-5.22,-5.23,-4.47
31.93,-11.08,-6.62,-11.07,-6.61,6.03,5.54,6.80,-5.05,-5.04,-4.46
32.24,-10.90,-6.43,-10.89,-6.43,6.01,5.47,6.75,-4.89,-4.88,-4.46
32.57,-10.69,-6.23,-10.71,-6.24,5.97,5.40,6.69,-4.73,-4.74,-4.46
32.89,-10.52,-6.06,-10.52,-6.05,5.90,5.32,6.61,-4.62,-4.62,-4.46
33.22,-10.34,-5.88,-10.33,-5.87,5.80,5.25,6.53,-4.54,-4.53,-4.46
33.55,-10.14,-5.68,-10.15,-5.69,5.68,5.17,6.43,-4.46,-4.47,-4.46
33.89,-9.97,-5.51,-9.97,-5.51,5.54,5.08,6.33,-4.43,-4.43,-4.46
34.23,-9.79,-5.34,-9.79,-5.34,5.37,5.00,6.21,-4.42,-4.42,-4.46
34.57,-9.62,-5.17,-9.62,-5.17,5.19,4.91,6.09,-4.43,-4.43,-4.45
34.92,-9.45,-5.00,-9.45,-4.99,5.01,4.82,5.96,-4.44,-4.44,-4.45
35.27,-9.27,-4.82,-9.27,-4.82,4.83,4.72,5.82,-4.45,-4.44,-4.45
35.62,-9.09,-4.64,-9.10,-4.65,4.65,4.63,5.67,-4.44,-4.44,-4.45
35.97,-8.93,-4.48,-8.93,-4.48,4.49,4.53,5.53,-4.44,-4.45,-4.45
36.33,-8.78,-4.33,-8.77,-4.32,4.32,4.42,5.38,-4.46,-4.45,-4.45
36.70,-8.61,-4.17,-8.61,-4.16,4.16,4.32,5.22,-4.46,-4.45,-4.45
37.06,-8.44,-3.99,-8.44,-4.00,3.99,4.21,5.06,-4.45,-4.45,-4.44
37.43,-8.27,-3.83,-8.27,-3.83,3.83,4.11,4.90,-4.44,-4.44,-4.44
37.81,-8.11,-3.67,-8.11,-3.67,3.67,4.00,4.74,-4.44,-4.44,-4.44
38.19,-7.95,-3.51,-7.95,-3.51,3.51,3.88,4.58,-4.44,-4.44,-4.44
38.57,-7.80,-3.36,-7.80,-3.36,3.36,3.77,4.42,-4.44,-4.44,-4.44
38.95,-7.64,-3.20,-7.64,-3.20,3.20,3.65,4.26,-4.44,-4.43,-4.44
39.34,-7.48,-3.04,-7.48,-3.05,3.05,3.53,4.10,-4.43,-4.43,-4.44
39.74,-7.33,-2.90,-7.33,-2.90,2.90,3.41,3.94,-4.43,-4.43,-4.43
40.14,-7.20,-2.77,-7.19,-2.76,2.76,3.29,3.78,-4.44,-4.43,-4.43
40.54,-7.04,-2.61,-7.05,-2.62,2.61,3.17,3.62,-4.43,-4.44,-4.43
40.94,-6.91,-2.48,-6.91,-2.48,2.47,3.05,3.46,-4.44,-4.43,-4.43
41.35,-6.77,-2.34,-6.76,-2.33,2.33,2.92,3.30,-4.44,-4.43,-4.43
41.76,-6.62,-2.19,-6.63,-2.20,2.20,2.79,3.15,-4.42,-4.43,-4.43
42.18,-6.49,-2.06,-6.49,-2.06,2.07,2.67,2.99,-4.42,-4.42,-4.43
42.60,-6.36,-1.93,-6.36,-1.93,1.94,2.54,2.84,-4.42,-4.42,-4.42
43.03,-6.23,-1.81,-6.23,-1.81,1.81,2.41,2.69,-4.42,-4.42,-4.42
43.46,-6.11,-1.69,-6.11,-1.68,1.68,2.28,2.54,-4.43,-4.42,-4.42
43.90,-5.98,-1.56,-5.98,-1.56,1.56,2.15,2.39,-4.42,-4.43,-4.42
44.33,-5.86,-1.44,-5.86,-1.44,1.43,2.02,2.25,-4.42,-4.43,-4.42
44.78,-5.74,-1.32,-5.74,-1.32,1.31,1.89,2.10,-4.43,-4.42,-4.42
45.23,-5.61,-1.19,-5.61,-1.19,1.19,1.76,1.96,-4.42,-4.42,-4.42
45.68,-5.48,-1.07,-5.49,-1.07,1.08,1.63,1.82,-4.41,-4.41,-4.42
46.13,-5.37,-0.96,-5.37,-0.96,0.96,1.50,1.68,-4.41,-4.41,-4.41
46.60,-5.26,-0.85,-5.26,-0.84,0.85,1.37,1.54,-4.41,-4.41,-4.41
47.06,-5.15,-0.74,-5.15,-0.74,0.74,1.25,1.41,-4.41,-4.41,-4.41
47.53,-5.04,-0.63,-5.05,-0.64,0.64,1.12,1.27,-4.40,-4.41,-4.41
48.01,-4.96,-0.55,-4.95,-0.54,0.54,0.99,1.14,-4.42,-4.41,-4.41
48.49,-4.85,-0.44,-4.85,-0.44,0.44,0.87,1.01,-4.41,-4.41,-4.41
48.97,-4.74,-0.33,-4.76,-0.35,0.35,0.75,0.88,-4.39,-4.41,-4.41
49.46,-4.68,-0.28,-4.66,-0.26,0.26,0.63,0.75,-4.42,-4.40,-4.40
49.96,-4.57,-0.17,-4.58,-0.18,0.17,0.51,0.62,-4.40,-4.41,-4.40
50.46,-4.50,-0.10,-4.49,-0.09,0.09,0.40,0.50,-4.41,-4.41,-4.40
50.96,-4.40,0.00,-4.40,-0.00,0.00,0.29,0.38,-4.40,-4.40,-4.40
51.47,-4.32,0.08,-4.32,0.08,-0.08,0.18,0.26,-4.40,-4.40,-4.40
51.99,-4.24,0.16,-4.24,0.16,-0.16,0.07,0.14,-4.40,-4.40,-4.40
52.51,-4.17,0.23,-4.17,0.23,-0.23,-0.03,0.02,-4.40,-4.40,-4.40
53.03,-4.09,0.30,-4.09,0.31,-0.31,-0.13,-0.09,-4.40,-4.39,-4.39
53.56,-4.01,0.38,-4.02,0.38,-0.37,-0.23,-0.20,-4.38,-4.39,-4.39
54.10,-3.95,0.44,-3.95,0.44,-0.44,-0.32,-0.31,-4.39,-4.39,-4.39
54.64,-3.89,0.50,-3.89,0.50,-0.50,-0.41,-0.41,-4.39,-4.39,-4.39
55.18,-3.83,0.56,-3.83,0.55,-0.56,-0.49,-0.51,-4.39,-4.39,-4.39
55.74,-3.78,0.61,-3.78,0.61,-0.61,-0.57,-0.61,-4.39,-4.39,-4.39
56.29,-3.74,0.65,-3.73,0.65,-0.65,-0.64,-0.70,-4.39,-4.39,-4.39
56.86,-3.68,0.70,-3.69,0.70,-0.70,-0.71,-0.79,-4.38,-4.39,-4.38
57.42,-3.65,0.73,-3.65,0.74,-0.74,-0.78,-0.88,-4.39,-4.38,-4.38
58.00,-3.61,0.77,-3.61,0.78,-0.77,-0.84,-0.96,-4.38,-4.38,-4.38
58.58,-3.57,0.81,-3.58,0.80,-0.81,-0.90,-1.03,-4.38,-4.38,-4.38
59.16,-3.54,0.84,-3.54,0.84,-0.84,-0.95,-1.10,-4.38,-4.38,-4.38
59.76,-3.52,0.86,-3.51,0.87,-0.87,-1.00,-1.17,-4.39,-4.38,-4.38
60.35,-3.47,0.91,-3.48,0.89,-0.89,-1.04,-1.23,-4.36,-4.37,-4.38
60.96,-3.47,0.91,-3.46,0.92,-0.91,-1.08,-1.28,-4.38,-4.37,-4.38
61.57,-3.43,0.94,-3.44,0.93,-0.93,-1.11,-1.33,-4.36,-4.37,-4.37
62.18,-3.43,0.94,-3.43,0.94,-0.95,-1.14,-1.38,-4.38,-4.38,-4.37
62.80,-3.43,0.94,-3.41,0.96,-0.96,-1.17,-1.41,-4.39,-4.37,-4.37
63.43,-3.39,0.98,-3.40,0.97,-0.97,-1.19,-1.45,-4.36,-4.37,-4.37
64.07,-3.38,0.99,-3.39,0.98,-0.98,-1.21,-1.47,-4.36,-4.37,-4.37
64.71,-3.38,0.99,-3.38,0.99,-0.98,-1.22,-1.50,-4.36,-4.36,-4.37
65.35,-3.38,0.99,-3.38,0.99,-0.98,-1.24,-1.51,-4.36,-4.36,-4.37
66.01,-3.38,0.98,-3.38,0.99,-0.98,-1.24,-1.52,-4.36,-4.36,-4.36
66.67,-3.38,0.98,-3.38,0.98,-0.98,-1.25,-1.53,-4.36,-4.36,-4.36
67.33,-3.38,0.98,-3.39,0.97,-0.97,-1.25,-1.53,-4.35,-4.36,-4.36
68.01,-3.42,0.94,-3.41,0.95,-0.96,-1.25,-1.53,-4.38,-4.37,-4.36
68.69,-3.43,0.93,-3.42,0.93,-0.94,-1.25,-1.53,-4.37,-4.37,-4.36
69.37,-3.43,0.93,-3.43,0.93,-0.93,-1.25,-1.52,-4.36,-4.36,-4.36
70.07,-3.43,0.93,-3.44,0.92,-0.92,-1.24,-1.51,-4.35,-4.35,-4.36
70.77,-3.44,0.91,-3.45,0.91,-0.90,-1.23,-1.49,-4.34,-4.35,-4.35
71.48,-3.47,0.88,-3.46,0.90,-0.89,-1.22,-1.47,-4.36,-4.35,-4.35
72.19,-3.47,0.88,-3.47,0.88,-0.88,-1.21,-1.45,-4.35,-4.35,-4.35
72.91,-3.47,0.88,-3.49,0.86,-0.86,-1.20,-1.43,-4.33,-4.35,-4.35
73.64,-3.51,0.84,-3.50,0.85,-0.85,-1.19,-1.41,-4.36,-4.35,-4.35
74.38,-3.52,0.83,-3.51,0.83,-0.84,-1.18,-1.38,-4.36,-4.35,-4.35
75.12,-3.52,0.83,-3.52,0.82,-0.83,-1.16,-1.35,-4.35,-4.35,-4.35
75.87,-3.52,0.82,-3.52,0.82,-0.82,-1.15,-1.33,-4.34,-4.34,-4.34
76.63,-3.52,0.82,-3.52,0.82,-0.82,-1.14,-1.30,-4.34,-4.35,-4.34
77.40,-3.52,0.82,-3.52,0.82,-0.83,-1.12,-1.27,-4.35,-4.34,-4.34
78.17,-3.52,0.82,-3.51,0.83,-0.84,-1.11,-1.24,-4.36,-4.34,-4.34
78.95,-3.47,0.87,-3.49,0.85,-0.85,-1.10,-1.21,-4.32,-4.34,-4.34
79.74,-3.47,0.87,-3.46,0.88,-0.88,-1.08,-1.18,-4.35,-4.34,-4.34
80.54,-3.43,0.91,-3.43,0.90,-0.90,-1.07,-1.15,-4.33,-4.34,-4.34
81.35,-3.40,0.93,-3.41,0.93,-0.94,-1.06,-1.12,-4.34,-4.34,-4.34
82.16,-3.37,0.96,-3.36,0.97,-0.98,-1.05,-1.09,-4.35,-4.34,-4.33
82.98,-3.32,1.01,-3.32,1.01,-1.02,-1.05,-1.06,-4.34,-4.34,-4.33
83.81,-3.26,1.07,-3.27,1.06,-1.06,-1.04,-1.04,-4.32,-4.33,-4.33
84.65,-3.22,1.11,-3.22,1.11,-1.11,-1.04,-1.01,-4.33,-4.33,-4.33
85.50,-3.17,1.16,-3.17,1.16,-1.16,-1.03,-0.98,-4.33,-4.33,-4.33
86.35,-3.12,1.21,-3.12,1.20,-1.20,-1.03,-0.96,-4.32,-4.33,-4.33
87.22,-3.08,1.25,-3.08,1.24,-1.25,-1.04,-0.93,-4.33,-4.33,-4.33
88.09,-3.04,1.28,-3.04,1.29,-1.28,-1.04,-0.91,-4.32,-4.32,-4.32
88.97,-3.01,1.31,-3.00,1.32,-1.31,-1.05,-0.89,-4.33,-4.32,-4.32
89.86,-2.96,1.36,-2.98,1.35,-1.34,-1.05,-0.87,-4.30,-4.32,-4.32
90.76,-2.96,1.36,-2.96,1.36,-1.36,-1.06,-0.84,-4.32,-4.31,-4.32
91.66,-2.96,1.36,-2.95,1.37,-1.37,-1.07,-0.82,-4.33,-4.32,-4.32
92.58,-2.94,1.38,-2.95,1.36,-1.37,-1.09,-0.80,-4.31,-4.32,-4.32
93.51,-2.96,1.36,-2.95,1.37,-1.36,-1.10,-0.78,-4.32,-4.31,-4.32
94.44,-2.96,1.35,-2.96,1.35,-1.35,-1.12,-0.77,-4.31,-4.31,-4.31
95.39,-2.96,1.35,-2.97,1.34,-1.34,-1.13,-0.75,-4.30,-4.31,-4.31
96.34,-3.01,1.30,-3.00,1.32,-1.32,-1.15,-0.73,-4.33,-4.31,-4.31
97.30,-3.01,1.30,-3.02,1.29,-1.30,-1.16,-0.72,-4.31,-4.31,-4.31
98.28,-3.05,1.26,-3.04,1.27,-1.27,-1.17,-0.70,-4.32,-4.31,-4.31
99.26,-3.05,1.26,-3.06,1.24,-1.24,-1.18,-0.69,-4.29,-4.31,-4.31
100.25,-3.10,1.21,-3.10,1.21,-1.21,-1.18,-0.67,-4.31,-4.31,-4.31
101.25,-3.13,1.17,-3.13,1.18,-1.18,-1.18,-0.66,-4.31,-4.31,-4.30
102.27,-3.16,1.14,-3.16,1.14,-1.15,-1.17,-0.65,-4.31,-4.30,-4.30
103.29,-3.19,1.11,-3.19,1.11,-1.11,-1.15,-0.64,-4.30,-4.30,-4.30
104.32,-3.22,1.08,-3.23,1.07,-1.07,-1.13,-0.63,-4.29,-4.30,-4.30
105.37,-3.28,1.02,-3.27,1.03,-1.03,-1.10,-0.61,-4.31,-4.30,-4.30
106.42,-3.31,0.99,-3.31,0.98,-0.98,-1.06,-0.60,-4.29,-4.30,-4.30
107.48,-3.36,0.94,-3.36,0.94,-0.94,-1.02,-0.59,-4.30,-4.30,-4.30
108.56,-3.40,0.90,-3.40,0.89,-0.89,-0.98,-0.58,-4.29,-4.29,-4.30
109.64,-3.45,0.84,-3.45,0.84,-0.85,-0.93,-0.57,-4.30,-4.30,-4.29
110.74,-3.50,0.79,-3.49,0.80,-0.80,-0.88,-0.56,-4.30,-4.30,-4.29
111.85,-3.54,0.75,-3.54,0.75,-0.76,-0.82,-0.55,-4.30,-4.30,-4.29
112.97,-3.57,0.72,-3.58,0.71,-0.71,-0.77,-0.54,-4.29,-4.29,-4.29
114.10,-3.62,0.67,-3.61,0.68,-0.67,-0.71,-0.53,-4.29,-4.29,-4.29
115.24,-3.65,0.64,-3.65,0.64,-0.63,-0.66,-0.52,-4.28,-4.29,-4.29
116.39,-3.68,0.61,-3.69,0.60,-0.60,-0.60,-0.51,-4.28,-4.28,-4.29
117.55,-3.73,0.55,-3.72,0.56,-0.56,-0.55,-0.50,-4.29,-4.28,-4.28
118.73,-3.75,0.53,-3.76,0.52,-0.52,-0.50,-0.49,-4.27,-4.28,-4.28
119.92,-3.80,0.48,-3.79,0.49,-0.49,-0.45,-0.48,-4.29,-4.28,-4.28
121.12,-3.83,0.45,-3.83,0.45,-0.46,-0.40,-0.47,-4.29,-4.28,-4.28
122.33,-3.85,0.43,-3.86,0.42,-0.43,-0.35,-0.46,-4.28,-4.28,-4.28
123.55,-3.89,0.39,-3.88,0.40,-0.39,-0.31,-0.44,-4.28,-4.28,-4.28
124.79,-3.90,0.38,-3.91,0.37,-0.37,-0.27,-0.43,-4.27,-4.27,-4.28
126.03,-3.94,0.33,-3.93,0.34,-0.34,-0.23,-0.42,-4.28,-4.27,-4.27
127.29,-3.96,0.31,-3.96,0.31,-0.31,-0.19,-0.40,-4.27,-4.27,-4.27
128.57,-3.99,0.28,-3.99,0.28,-0.28,-0.15,-0.39,-4.27,-4.27,-4.27
129.85,-4.03,0.24,-4.02,0.25,-0.25,-0.12,-0.37,-4.28,-4.27,-4.27
131.15,-4.03,0.24,-4.05,0.22,-0.22,-0.09,-0.36,-4.25,-4.27,-4.27
132.46,-4.08,0.19,-4.07,0.20,-0.19,-0.06,-0.34,-4.27,-4.26,-4.27
133.79,-4.10,0.17,-4.10,0.17,-0.16,-0.03,-0.32,-4.26,-4.26,-4.27
135.12,-4.13,0.13,-4.14,0.13,-0.13,0.00,-0.31,-4.26,-4.27,-4.26
136.48,-4.17,0.09,-4.16,0.10,-0.10,0.03,-0.29,-4.27,-4.26,-4.26
137.84,-4.19,0.07,-4.19,0.07,-0.07,0.06,-0.27,-4.26,-4.27,-4.26
139.22,-4.22,0.04,-4.22,0.04,-0.04,0.08,-0.25,-4.26,-4.26,-4.26
140.61,-4.25,0.01,-4.25,0.01,-0.01,0.11,-0.23,-4.26,-4.26,-4.26
142.02,-4.27,-0.01,-4.27,-0.02,0.02,0.13,-0.21,-4.25,-4.26,-4.26
143.44,-4.31,-0.05,-4.30,-0.05,0.05,0.15,-0.19,-4.26,-4.26,-4.26
144.87,-4.32,-0.06,-4.33,-0.07,0.07,0.17,-0.17,-4.25,-4.26,-4.26
146.32,-4.36,-0.11,-4.36,-0.10,0.10,0.19,-0.15,-4.26,-4.26,-4.25
147.78,-4.38,-0.13,-4.38,-0.13,0.13,0.22,-0.13,-4.25,-4.25,-4.25
149.26,-4.41,-0.16,-4.40,-0.15,0.15,0.24,-0.11,-4.26,-4.25,-4.25
150.75,-4.42,-0.17,-4.43,-0.18,0.18,0.26,-0.08,-4.24,-4.25,-4.25
152.26,-4.45,-0.20,-4.45,-0.21,0.21,0.27,-0.06,-4.24,-4.25,-4.25
153.78,-4.49,-0.24,-4.48,-0.23,0.23,0.29,-0.04,-4.26,-4.25,-4.25
155.32,-4.50,-0.25,-4.50,-0.26,0.25,0.31,-0.02,-4.25,-4.25,-4.25
156.88,-4.52,-0.28,-4.52,-0.28,0.28,0.33,0.01,-4.24,-4.25,-4.24
158.44,-4.55,-0.31,-4.54,-0.30,0.30,0.35,0.03,-4.25,-4.24,-4.24
160.03,-4.56,-0.32,-4.56,-0.32,0.32,0.36,0.06,-4.24,-4.24,-4.24
161.63,-4.59,-0.35,-4.59,-0.35,0.35,0.38,0.08,-4.24,-4.24,-4.24
163.24,-4.60,-0.36,-4.60,-0.37,0.37,0.40,0.10,-4.23,-4.23,-4.24
164.88,-4.64,-0.40,-4.63,-0.39,0.39,0.41,0.13,-4.25,-4.24,-4.24
166.53,-4.64,-0.40,-4.65,-0.42,0.42,0.43,0.15,-4.22,-4.23,-4.24
168.19,-4.69,-0.46,-4.68,-0.44,0.44,0.44,0.18,-4.25,-4.24,-4.23
169.87,-4.69,-0.46,-4.70,-0.47,0.46,0.46,0.20,-4.23,-4.24,-4.23
171.57,-4.73,-0.50,-4.72,-0.49,0.49,0.48,0.23,-4.25,-4.23,-4.23
173.29,-4.73,-0.50,-4.74,-0.51,0.51,0.49,0.25,-4.22,-4.23,-4.23
175.02,-4.75,-0.52,-4.75,-0.52,0.53,0.51,0.28,-4.22,-4.23,-4.23
176.77,-4.78,-0.55,-4.77,-0.54,0.55,0.52,0.30,-4.23,-4.22,-4.23
178.54,-4.78,-0.55,-4.79,-0.57,0.57,0.54,0.33,-4.21,-4.23,-4.23
180.32,-4.82,-0.60,-4.81,-0.59,0.58,0.55,0.36,-4.24,-4.23,-4.22
182.13,-4.83,-0.61,-4.83,-0.60,0.60,0.57,0.38,-4.23,-4.23,-4.22
183.95,-4.83,-0.61,-4.84,-0.62,0.61,0.58,0.41,-4.22,-4.23,-4.22
185.79,-4.86,-0.64,-4.85,-0.63,0.63,0.59,0.44,-4.23,-4.22,-4.22
187.65,-4.87,-0.65,-4.86,-0.64,0.65,0.61,0.47,-4.22,-4.22,-4.22
189.52,-4.87,-0.65,-4.87,-0.66,0.66,0.62,0.49,-4.21,-4.21,-4.22
191.42,-4.87,-0.65,-4.89,-0.67,0.68,0.64,0.52,-4.19,-4.21,-4.22
193.33,-4.92,-0.70,-4.90,-0.68,0.69,0.65,0.55,-4.23,-4.21,-4.22
195.27,-4.92,-0.71,-4.92,-0.71,0.71,0.67,0.58,-4.21,-4.21,-4.21
197.22,-4.92,-0.71,-4.94,-0.73,0.72,0.68,0.61,-4.20,-4.22,-4.21
199.19,-4.97,-0.76,-4.95,-0.74,0.74,0.69,0.63,-4.23,-4.22,-4.21
201.18,-4.97,-0.76,-4.96,-0.75,0.75,0.71,0.66,-4.22,-4.21,-4.21
203.19,-4.97,-0.76,-4.98,-0.77,0.77,0.72,0.69,-4.20,-4.21,-4.21
205.23,-4.97,-0.76,-4.98,-0.78,0.78,0.73,0.72,-4.19,-4.20,-4.21
207.28,-5.01,-0.80,-5.00,-0.79,0.79,0.75,0.75,-4.22,-4.20,-4.21
209.35,-5.01,-0.81,-5.00,-0.80,0.81,0.76,0.77,-4.20,-4.20,-4.20
211.44,-5.01,-0.81,-5.02,-0.81,0.82,0.77,0.80,-4.19,-4.20,-4.20
213.56,-5.01,-0.81,-5.03,-0.83,0.83,0.79,0.83,-4.18,-4.20,-4.20
215.69,-5.06,-0.86,-5.04,-0.84,0.84,0.80,0.85,-4.22,-4.21,-4.20
217.85,-5.06,-0.86,-5.06,-0.86,0.85,0.81,0.88,-4.21,-4.21,-4.20
220.03,-5.06,-0.86,-5.06,-0.87,0.86,0.82,0.90,-4.20,-4.21,-4.20
222.23,-5.06,-0.86,-5.06,-0.86,0.87,0.83,0.93,-4.19,-4.19,-4.20
224.45,-5.06,-0.87,-5.06,-0.86,0.88,0.85,0.95,-4.18,-4.18,-4.19
226.70,-5.06,-0.87,-5.07,-0.87,0.89,0.86,0.97,-4.17,-4.18,-4.19
228.96,-5.08,-0.89,-5.08,-0.89,0.90,0.87,0.99,-4.18,-4.19,-4.19
231.25,-5.11,-0.92,-5.10,-0.91,0.90,0.88,1.01,-4.21,-4.20,-4.19
233.57,-5.11,-0.92,-5.11,-0.92,0.91,0.89,1.03,-4.20,-4.20,-4.19
235.90,-5.11,-0.92,-5.11,-0.93,0.92,0.90,1.05,-4.20,-4.20,-4.19
238.26,-5.11,-0.92,-5.11,-0.92,0.92,0.91,1.06,-4.19,-4.19,-4.19
240.64,-5.11,-0.93,-5.11,-0.93,0.93,0.92,1.07,-4.18,-4.18,-4.19
243.05,-5.11,-0.93,-5.11,-0.92,0.93,0.93,1.09,-4.18,-4.18,-4.18
245.48,-5.11,-0.93,-5.11,-0.93,0.94,0.94,1.09,-4.17,-4.17,-4.18
247.93,-5.11,-0.93,-5.11,-0.93,0.94,0.95,1.10,-4.17,-4.17,-4.18
250.41,-5.13,-0.95,-5.12,-0.94,0.95,0.95,1.11,-4.18,-4.18,-4.18
252.92,-5.13,-0.95,-5.14,-0.96,0.95,0.96,1.11,-4.18,-4.18,-4.18
255.45,-5.15,-0.97,-5.15,-0.97,0.96,0.97,1.12,-4.19,-4.18,-4.18
258.00,-5.15,-0.97,-5.15,-0.97,0.97,0.97,1.12,-4.18,-4.18,-4.18
260.58,-5.15,-0.98,-5.15,-0.98,0.97,0.98,1.12,-4.18,-4.18,-4.17
263.19,-5.15,-0.98,-5.15,-0.98,0.98,0.99,1.11,-4.17,-4.17,-4.17
265.82,-5.15,-0.98,-5.15,-0.98,0.98,0.99,1.11,-4.17,-4.17,-4.17
268.48,-5.15,-0.98,-5.15,-0.98,0.98,0.99,1.10,-4.17,-4.17,-4.17
271.16,-5.15,-0.98,-5.15,-0.98,0.98,1.00,1.10,-4.17,-4.17,-4.17
273.87,-5.15,-0.98,-5.15,-0.98,0.99,1.00,1.09,-4.16,-4.16,-4.17
276.61,-5.15,-0.98,-5.15,-0.98,0.99,1.00,1.08,-4.16,-4.16,-4.17
279.38,-5.15,-0.99,-5.15,-0.99,0.99,1.01,1.07,-4.16,-4.16,-4.16
282.17,-5.15,-0.99,-5.15,-0.99,0.99,1.01,1.06,-4.16,-4.16,-4.16
284.99,-5.15,-0.99,-5.15,-0.99,0.99,1.01,1.04,-4.17,-4.17,-4.16
287.84,-5.15,-0.99,-5.15,-0.99,0.98,1.01,1.03,-4.17,-4.17,-4.16
290.72,-5.15,-0.99,-5.14,-0.98,0.98,1.01,1.02,-4.17,-4.16,-4.16
293.63,-5.11,-0.95,-5.12,-0.97,0.97,1.01,1.01,-4.14,-4.15,-4.16
296.57,-5.11,-0.95,-5.11,-0.96,0.96,1.00,0.99,-4.15,-4.15,-4.16
299.53,-5.11,-0.96,-5.11,-0.95,0.95,1.00,0.98,-4.16,-4.16,-4.15
302.53,-5.11,-0.96,-5.10,-0.95,0.94,1.00,0.96,-4.17,-4.16,-4.15
305.55,-5.08,-0.93,-5.08,-0.93,0.93,0.99,0.95,-4.15,-4.15,-4.15
308.61,-5.06,-0.91,-5.07,-0.92,0.93,0.99,0.94,-4.13,-4.14,-4.15
311.69,-5.06,-0.91,-5.06,-0.91,0.92,0.99,0.92,-4.14,-4.14,-4.15
314.81,-5.06,-0.91,-5.06,-0.91,0.92,0.98,0.91,-4.14,-4.14,-4.15
317.96,-5.06,-0.91,-5.06,-0.91,0.91,0.97,0.90,-4.15,-4.15,-4.15
321.14,-5.06,-0.92,-5.06,-0.92,0.91,0.97,0.89,-4.15,-4.16,-4.15
324.35,-5.06,-0.92,-5.06,-0.91,0.90,0.96,0.87,-4.16,-4.16,-4.14
327.59,-5.06,-0.92,-5.04,-0.90,0.90,0.95,0.86,-4.16,-4.15,-4.14
330.87,-5.01,-0.87,-5.03,-0.89,0.89,0.94,0.85,-4.12,-4.14,-4.14
334.18,-5.01,-0.87,-5.01,-0.88,0.88,0.93,0.84,-4.13,-4.13,-4.14
337.52,-5.01,-0.87,-5.00,-0.86,0.87,0.92,0.83,-4.14,-4.13,-4.14
340.90,-5.00,-0.86,-4.99,-0.86,0.86,0.91,0.82,-4.14,-4.14,-4.14
344.30,-4.97,-0.83,-4.98,-0.85,0.84,0.90,0.82,-4.13,-4.14,-4.14
347.75,-4.97,-0.84,-4.97,-0.84,0.83,0.89,0.81,-4.14,-4.14,-4.13
351.23,-4.97,-0.84,-4.96,-0.83,0.83,0.88,0.80,-4.14,-4.13,-4.13
354.74,-4.95,-0.82,-4.95,-0.82,0.82,0.86,0.80,-4.13,-4.13,-4.13
358.28,-4.92,-0.79,-4.93,-0.80,0.81,0.85,0.79,-4.11,-4.12,-4.13
361.87,-4.92,-0.79,-4.92,-0.79,0.80,0.84,0.79,-4.12,-4.13,-4.13
365.49,-4.92,-0.79,-4.92,-0.79,0.79,0.82,0.78,-4.13,-4.13,-4.13
369.14,-4.92,-0.79,-4.91,-0.78,0.78,0.81,0.78,-4.14,-4.13,-4.13
372.83,-4.89,-0.77,-4.89,-0.77,0.77,0.79,0.78,-4.12,-4.13,-4.12
376.56,-4.87,-0.75,-4.88,-0.76,0.76,0.78,0.78,-4.11,-4.12,-4.12
380.33,-4.87,-0.75,-4.87,-0.74,0.75,0.76,0.78,-4.12,-4.12,-4.12
384.13,-4.87,-0.75,-4.85,-0.73,0.74,0.75,0.77,-4.13,-4.12,-4.12
387.97,-4.83,-0.71,-4.85,-0.73,0.72,0.73,0.77,-4.11,-4.12,-4.12
391.85,-4.83,-0.71,-4.83,-0.71,0.71,0.71,0.77,-4.12,-4.12,-4.12
395.77,-4.83,-0.71,-4.81,-0.70,0.70,0.70,0.77,-4.13,-4.11,-4.12
399.73,-4.79,-0.68,-4.80,-0.69,0.69,0.68,0.77,-4.10,-4.11,-4.11
403.72,-4.78,-0.67,-4.79,-0.68,0.68,0.66,0.78,-4.11,-4.12,-4.11
407.76,-4.78,-0.67,-4.77,-0.66,0.66,0.64,0.78,-4.12,-4.11,-4.11
411.84,-4.78,-0.67,-4.76,-0.65,0.65,0.63,0.78,-4.13,-4.11,-4.11
415.96,-4.73,-0.62,-4.75,-0.64,0.64,0.61,0.78,-4.09,-4.11,-4.11
420.12,-4.73,-0.62,-4.73,-0.62,0.62,0.59,0.78,-4.11,-4.11,-4.11
424.32,-4.73,-0.62,-4.71,-0.61,0.61,0.57,0.78,-4.12,-4.10,-4.11
