frequency,raw,error,smoothed,error_smoothed,equalization,parametric_eq,fixed_band_eq,equalized_raw,equalized_smoothed,target
20.00,7.92,2.12,7.92,2.12,-2.12,-1.84,-0.61,5.80,5.80,5.81
20.20,7.83,2.05,7.83,2.05,-2.05,-1.82,-0.63,5.79,5.78,5.79
20.40,7.73,1.98,7.74,1.98,-1.98,-1.80,-0.65,5.75,5.76,5.76
20.61,7.65,1.92,7.65,1.91,-1.91,-1.78,-0.67,5.74,5.74,5.74
20.81,7.57,1.86,7.57,1.86,-1.85,-1.76,-0.69,5.72,5.71,5.71
21.02,7.48,1.80,7.49,1.80,-1.80,-1.74,-0.71,5.69,5.69,5.68
21.23,7.41,1.75,7.41,1.75,-1.74,-1.72,-0.73,5.67,5.67,5.66
21.44,7.34,1.70,7.33,1.69,-1.69,-1.70,-0.75,5.65,5.64,5.64
21.66,7.26,1.64,7.26,1.64,-1.64,-1.68,-0.78,5.62,5.62,5.62
21.87,7.19,1.59,7.20,1.59,-1.60,-1.66,-0.80,5.59,5.60,5.60
22.09,7.14,1.56,7.14,1.55,-1.56,-1.64,-0.82,5.58,5.58,5.58
22.31,7.08,1.52,7.08,1.52,-1.52,-1.63,-0.85,5.56,5.56,5.56
22.54,7.02,1.49,7.03,1.49,-1.49,-1.61,-0.87,5.54,5.54,5.53
22.76,6.97,1.46,6.97,1.46,-1.45,-1.59,-0.90,5.52,5.52,5.51
22.99,6.92,1.43,6.92,1.43,-1.43,-1.57,-0.92,5.50,5.49,5.49
23.22,6.87,1.40,6.87,1.40,-1.40,-1.56,-0.95,5.47,5.48,5.47
23.45,6.83,1.37,6.83,1.37,-1.37,-1.54,-0.98,5.46,5.46,5.46
23.69,6.79,1.35,6.79,1.35,-1.35,-1.53,-1.00,5.44,5.44,5.44
23.92,6.75,1.32,6.75,1.33,-1.33,-1.51,-1.03,5.43,5.43,5.43
24.16,6.72,1.31,6.72,1.30,-1.30,-1.50,-1.06,5.42,5.41,5.41
24.40,6.68,1.28,6.68,1.28,-1.29,-1.48,-1.09,5.40,5.40,5.40
24.65,6.65,1.26,6.65,1.27,-1.27,-1.47,-1.12,5.38,5.39,5.39
24.89,6.63,1.26,6.63,1.25,-1.25,-1.46,-1.15,5.38,5.37,5.37
25.14,6.60,1.24,6.60,1.24,-1.24,-1.45,-1.18,5.36,5.36,5.36
25.39,6.58,1.23,6.58,1.23,-1.23,-1.43,-1.21,5.35,5.35,5.35
25.65,6.56,1.22,6.56,1.22,-1.23,-1.42,-1.24,5.34,5.34,5.34
25.91,6.54,1.21,6.54,1.22,-1.22,-1.41,-1.27,5.32,5.32,5.33
26.16,6.53,1.22,6.53,1.21,-1.22,-1.40,-1.30,5.31,5.31,5.32
26.43,6.51,1.22,6.51,1.21,-1.21,-1.39,-1.33,5.30,5.30,5.30
26.69,6.50,1.22,6.50,1.22,-1.21,-1.38,-1.36,5.29,5.29,5.29
26.96,6.49,1.22,6.49,1.22,-1.21,-1.37,-1.39,5.28,5.28,5.27
27.23,6.48,1.22,6.48,1.22,-1.22,-1.37,-1.42,5.26,5.26,5.26
27.50,6.47,1.22,6.48,1.22,-1.22,-1.36,-1.44,5.25,5.26,5.25
27.77,6.47,1.22,6.47,1.22,-1.22,-1.35,-1.47,5.25,5.25,5.25
28.05,6.47,1.23,6.47,1.23,-1.23,-1.34,-1.50,5.24,5.24,5.24
28.33,6.46,1.23,6.47,1.23,-1.23,-1.34,-1.52,5.23,5.24,5.23
28.62,6.47,1.24,6.46,1.24,-1.24,-1.33,-1.54,5.23,5.23,5.23
28.90,6.46,1.24,6.46,1.24,-1.24,-1.33,-1.57,5.22,5.22,5.22
29.19,6.46,1.24,6.47,1.25,-1.25,-1.32,-1.59,5.21,5.22,5.22
29.48,6.47,1.26,6.47,1.26,-1.26,-1.32,-1.60,5.21,5.21,5.21
29.78,6.47,1.27,6.47,1.27,-1.27,-1.32,-1.62,5.20,5.20,5.21
30.08,6.47,1.28,6.47,1.27,-1.28,-1.31,-1.64,5.20,5.20,5.20
30.38,6.47,1.28,6.47,1.28,-1.29,-1.31,-1.65,5.19,5.19,5.19
30.68,6.48,1.30,6.48,1.30,-1.29,-1.31,-1.66,5.19,5.18,5.18
30.99,6.48,1.31,6.48,1.30,-1.30,-1.31,-1.67,5.18,5.18,5.17
31.30,6.48,1.31,6.48,1.32,-1.31,-1.31,-1.68,5.17,5.17,5.17
31.61,6.48,1.32,6.48,1.32,-1.32,-1.31,-1.68,5.16,5.16,5.16
31.93,6.48,1.33,6.48,1.33,-1.33,-1.31,-1.69,5.15,5.15,5.15
32.24,6.47,1.33,6.48,1.33,-1.34,-1.31,-1.69,5.13,5.14,5.15
32.57,6.48,1.35,6.48,1.34,-1.35,-1.31,-1.69,5.13,5.13,5.14
32.89,6.48,1.36,6.48,1.36,-1.36,-1.31,-1.68,5.12,5.12,5.12
33.22,6.48,1.37,6.48,1.37,-1.37,-1.31,-1.68,5.11,5.11,5.11
33.55,6.48,1.38,6.48,1.38,-1.38,-1.31,-1.67,5.10,5.10,5.10
33.89,6.48,1.39,6.48,1.40,-1.39,-1.31,-1.67,5.09,5.09,5.09
34.23,6.49,1.41,6.49,1.41,-1.41,-1.32,-1.66,5.09,5.08,5.08
34.57,6.49,1.42,6.49,1.42,-1.42,-1.32,-1.65,5.07,5.07,5.08
34.92,6.49,1.43,6.50,1.43,-1.43,-1.32,-1.64,5.06,5.07,5.06
35.27,6.50,1.45,6.50,1.44,-1.44,-1.33,-1.62,5.06,5.06,5.05
35.62,6.50,1.45,6.50,1.45,-1.45,-1.33,-1.61,5.05,5.05,5.05
35.97,6.50,1.46,6.50,1.46,-1.47,-1.33,-1.60,5.03,5.04,5.04
36.33,6.51,1.48,6.51,1.48,-1.48,-1.34,-1.58,5.03,5.03,5.04
36.70,6.51,1.49,6.51,1.49,-1.49,-1.34,-1.57,5.02,5.02,5.02
37.06,6.52,1.51,6.52,1.51,-1.51,-1.34,-1.55,5.02,5.02,5.01
37.43,6.53,1.52,6.53,1.52,-1.52,-1.35,-1.54,5.01,5.01,5.01
37.81,6.53,1.54,6.53,1.54,-1.53,-1.35,-1.52,5.00,5.00,5.00
38.19,6.54,1.55,6.54,1.55,-1.55,-1.36,-1.51,4.99,4.99,4.99
38.57,6.54,1.56,6.54,1.56,-1.56,-1.36,-1.50,4.98,4.98,4.98
38.95,6.55,1.57,6.55,1.58,-1.58,-1.37,-1.48,4.97,4.97,4.98
39.34,6.56,1.60,6.56,1.59,-1.59,-1.37,-1.47,4.97,4.97,4.96
39.74,6.56,1.60,6.56,1.60,-1.61,-1.37,-1.46,4.96,4.96,4.96
40.14,6.57,1.62,6.57,1.62,-1.62,-1.38,-1.44,4.95,4.95,4.95
40.54,6.57,1.63,6.58,1.63,-1.64,-1.38,-1.43,4.94,4.94,4.94
40.94,6.59,1.66,6.59,1.65,-1.65,-1.39,-1.42,4.94,4.94,4.93
41.35,6.59,1.66,6.59,1.67,-1.67,-1.39,-1.41,4.93,4.93,4.93
41.76,6.60,1.69,6.60,1.68,-1.68,-1.40,-1.40,4.92,4.92,4.91
42.18,6.60,1.69,6.60,1.69,-1.70,-1.40,-1.40,4.91,4.91,4.91
42.60,6.60,1.71,6.60,1.71,-1.71,-1.40,-1.39,4.89,4.90,4.90
43.03,6.61,1.72,6.61,1.72,-1.72,-1.41,-1.38,4.89,4.89,4.89
43.46,6.61,1.73,6.62,1.73,-1.73,-1.41,-1.38,4.88,4.88,4.88
43.90,6.62,1.75,6.62,1.74,-1.74,-1.42,-1.38,4.88,4.87,4.87
44.33,6.62,1.75,6.62,1.76,-1.75,-1.42,-1.37,4.87,4.87,4.87
44.78,6.61,1.76,6.62,1.76,-1.76,-1.42,-1.37,4.85,4.86,4.85
45.23,6.62,1.77,6.62,1.77,-1.77,-1.43,-1.37,4.85,4.85,4.85
45.68,6.61,1.77,6.61,1.77,-1.77,-1.43,-1.37,4.84,4.84,4.84
46.13,6.61,1.77,6.61,1.77,-1.78,-1.43,-1.37,4.84,4.84,4.84
46.60,6.61,1.78,6.61,1.78,-1.78,-1.44,-1.38,4.83,4.83,4.83
47.06,6.60,1.78,6.61,1.78,-1.78,-1.44,-1.38,4.82,4.83,4.83
47.53,6.60,1.78,6.60,1.78,-1.78,-1.44,-1.39,4.82,4.82,4.82
48.01,6.59,1.78,6.59,1.78,-1.78,-1.45,-1.39,4.81,4.81,4.81
48.49,6.58,1.77,6.58,1.78,-1.78,-1.45,-1.40,4.81,4.81,4.81
48.97,6.57,1.77,6.57,1.77,-1.77,-1.45,-1.41,4.80,4.80,4.80
49.46,6.56,1.77,6.56,1.77,-1.77,-1.46,-1.41,4.79,4.79,4.79
49.96,6.54,1.76,6.55,1.76,-1.76,-1.46,-1.42,4.78,4.79,4.79
50.46,6.54,1.76,6.53,1.76,-1.76,-1.46,-1.43,4.78,4.78,4.78
50.96,6.52,1.75,6.52,1.75,-1.75,-1.47,-1.44,4.77,4.77,4.77
51.47,6.50,1.74,6.51,1.74,-1.74,-1.47,-1.45,4.76,4.76,4.76
51.99,6.49,1.74,6.49,1.73,-1.74,-1.47,-1.46,4.76,4.75,4.75
52.51,6.47,1.73,6.47,1.73,-1.73,-1.47,-1.48,4.74,4.74,4.74
53.03,6.45,1.72,6.45,1.72,-1.72,-1.48,-1.49,4.73,4.74,4.74
53.56,6.43,1.71,6.43,1.71,-1.71,-1.48,-1.50,4.72,4.73,4.73
54.10,6.42,1.71,6.41,1.70,-1.70,-1.48,-1.51,4.72,4.72,4.72
54.64,6.39,1.69,6.40,1.69,-1.69,-1.48,-1.52,4.70,4.71,4.71
55.18,6.37,1.68,6.37,1.68,-1.68,-1.48,-1.54,4.70,4.70,4.70
55.74,6.35,1.67,6.35,1.66,-1.66,-1.49,-1.55,4.69,4.68,4.68
56.29,6.32,1.65,6.32,1.65,-1.65,-1.49,-1.56,4.67,4.67,4.67
56.86,6.30,1.64,6.30,1.64,-1.64,-1.49,-1.57,4.66,4.66,4.66
57.42,6.28,1.63,6.28,1.63,-1.63,-1.49,-1.58,4.65,4.65,4.65
58.00,6.26,1.61,6.26,1.61,-1.61,-1.49,-1.59,4.65,4.65,4.65
58.58,6.23,1.60,6.24,1.60,-1.60,-1.50,-1.60,4.63,4.64,4.64
59.16,6.21,1.59,6.21,1.59,-1.58,-1.50,-1.60,4.63,4.63,4.62
59.76,6.18,1.57,6.18,1.57,-1.57,-1.50,-1.61,4.61,4.61,4.61
60.35,6.15,1.55,6.15,1.55,-1.55,-1.50,-1.61,4.60,4.60,4.60
60.96,6.12,1.53,6.12,1.53,-1.54,-1.50,-1.62,4.58,4.58,4.59
61.57,6.09,1.52,6.09,1.52,-1.52,-1.50,-1.62,4.57,4.57,4.57
62.18,6.07,1.51,6.07,1.51,-1.51,-1.50,-1.62,4.57,4.56,4.56
62.80,6.04,1.50,6.04,1.49,-1.49,-1.50,-1.62,4.55,4.55,4.54
63.43,6.01,1.47,6.01,1.48,-1.47,-1.50,-1.62,4.54,4.54,4.54
64.07,5.97,1.45,5.98,1.46,-1.46,-1.51,-1.62,4.51,4.52,4.52
64.71,5.95,1.45,5.95,1.44,-1.45,-1.51,-1.61,4.51,4.50,4.50
65.35,5.91,1.43,5.91,1.43,-1.43,-1.51,-1.61,4.48,4.48,4.48
66.01,5.88,1.42,5.88,1.42,-1.42,-1.51,-1.60,4.46,4.47,4.47
66.67,5.85,1.40,5.85,1.40,-1.40,-1.51,-1.59,4.45,4.45,4.45
67.33,5.82,1.39,5.82,1.39,-1.39,-1.51,-1.58,4.43,4.43,4.43
68.01,5.78,1.37,5.78,1.38,-1.38,-1.51,-1.57,4.41,4.41,4.41
68.69,5.75,1.37,5.75,1.36,-1.36,-1.51,-1.56,4.39,4.38,4.39
69.37,5.71,1.35,5.71,1.35,-1.35,-1.51,-1.55,4.36,4.36,4.37
70.07,5.68,1.34,5.68,1.34,-1.34,-1.51,-1.54,4.34,4.34,4.34
70.77,5.65,1.33,5.65,1.33,-1.33,-1.51,-1.53,4.33,4.32,4.32
71.48,5.61,1.31,5.61,1.31,-1.31,-1.51,-1.51,4.30,4.30,4.30
72.19,5.57,1.30,5.58,1.30,-1.30,-1.51,-1.50,4.27,4.27,4.27
72.91,5.54,1.29,5.54,1.29,-1.29,-1.51,-1.49,4.25,4.25,4.25
73.64,5.50,1.29,5.50,1.28,-1.28,-1.51,-1.47,4.22,4.22,4.22
74.38,5.46,1.27,5.47,1.28,-1.27,-1.51,-1.46,4.19,4.19,4.19
75.12,5.43,1.27,5.43,1.27,-1.27,-1.51,-1.45,4.16,4.16,4.16
75.87,5.39,1.26,5.39,1.26,-1.26,-1.51,-1.44,4.13,4.13,4.13
76.63,5.35,1.25,5.36,1.26,-1.26,-1.50,-1.42,4.09,4.10,4.10
77.40,5.32,1.26,5.32,1.26,-1.26,-1.50,-1.41,4.07,4.06,4.06
78.17,5.28,1.26,5.28,1.26,-1.26,-1.50,-1.40,4.03,4.03,4.02
78.95,5.24,1.26,5.24,1.26,-1.26,-1.50,-1.39,3.98,3.98,3.98
79.74,5.20,1.26,5.20,1.26,-1.26,-1.50,-1.38,3.94,3.94,3.95
80.54,5.16,1.26,5.17,1.26,-1.26,-1.50,-1.37,3.90,3.90,3.91
81.35,5.13,1.27,5.13,1.27,-1.27,-1.50,-1.36,3.86,3.86,3.86
82.16,5.10,1.28,5.10,1.27,-1.27,-1.50,-1.36,3.83,3.83,3.82
82.98,5.06,1.28,5.06,1.28,-1.28,-1.50,-1.35,3.78,3.78,3.78
83.81,5.02,1.28,5.02,1.28,-1.28,-1.49,-1.34,3.74,3.74,3.74
84.65,4.97,1.29,4.98,1.29,-1.29,-1.49,-1.34,3.69,3.69,3.69
85.50,4.94,1.30,4.94,1.29,-1.29,-1.49,-1.33,3.65,3.65,3.64
86.35,4.90,1.29,4.90,1.29,-1.29,-1.49,-1.33,3.61,3.60,3.61
87.22,4.85,1.29,4.86,1.30,-1.30,-1.49,-1.33,3.55,3.56,3.56
88.09,4.82,1.30,4.82,1.30,-1.30,-1.49,-1.33,3.52,3.52,3.52
88.97,4.78,1.31,4.78,1.31,-1.30,-1.48,-1.33,3.48,3.48,3.47
89.86,4.74,1.31,4.74,1.31,-1.31,-1.48,-1.33,3.43,3.44,3.43
90.76,4.70,1.31,4.70,1.31,-1.31,-1.48,-1.33,3.39,3.39,3.39
91.66,4.66,1.32,4.66,1.31,-1.31,-1.48,-1.34,3.35,3.35,3.35
92.58,4.62,1.31,4.62,1.32,-1.32,-1.47,-1.34,3.30,3.31,3.31
93.51,4.58,1.32,4.58,1.32,-1.32,-1.47,-1.35,3.26,3.27,3.26
94.44,4.55,1.33,4.54,1.32,-1.32,-1.47,-1.35,3.23,3.22,3.22
95.39,4.50,1.33,4.50,1.33,-1.32,-1.47,-1.36,3.18,3.18,3.18
96.34,4.46,1.32,4.46,1.33,-1.33,-1.46,-1.37,3.13,3.14,3.14
97.30,4.42,1.33,4.42,1.33,-1.33,-1.46,-1.38,3.09,3.09,3.09
98.28,4.39,1.34,4.39,1.34,-1.34,-1.46,-1.39,3.05,3.05,3.05
99.26,4.34,1.34,4.35,1.35,-1.35,-1.46,-1.40,3.00,3.00,3.00
100.25,4.31,1.36,4.31,1.36,-1.35,-1.45,-1.41,2.96,2.96,2.95
101.25,4.27,1.37,4.27,1.36,-1.36,-1.45,-1.42,2.91,2.91,2.90
102.27,4.22,1.37,4.23,1.37,-1.37,-1.45,-1.43,2.85,2.86,2.85
103.29,4.18,1.38,4.18,1.38,-1.38,-1.44,-1.45,2.80,2.81,2.81
104.32,4.14,1.39,4.14,1.38,-1.39,-1.44,-1.46,2.76,2.75,2.76
105.37,4.10,1.40,4.10,1.39,-1.39,-1.44,-1.47,2.71,2.70,2.71
106.42,4.05,1.39,4.06,1.40,-1.40,-1.43,-1.48,2.65,2.66,2.66
107.48,4.02,1.41,4.02,1.41,-1.41,-1.43,-1.50,2.61,2.61,2.61
108.56,3.98,1.42,3.98,1.42,-1.42,-1.42,-1.51,2.56,2.56,2.56
109.64,3.94,1.43,3.94,1.43,-1.43,-1.42,-1.52,2.51,2.51,2.51
110.74,3.90,1.44,3.90,1.44,-1.44,-1.42,-1.53,2.46,2.46,2.46
111.85,3.86,1.45,3.86,1.45,-1.45,-1.41,-1.55,2.41,2.41,2.41
112.97,3.81,1.45,3.82,1.45,-1.46,-1.41,-1.56,2.35,2.36,2.36
114.10,3.77,1.46,3.78,1.46,-1.46,-1.40,-1.56,2.31,2.31,2.31
115.24,3.74,1.48,3.74,1.47,-1.47,-1.40,-1.57,2.27,2.27,2.27
116.39,3.70,1.48,3.70,1.48,-1.48,-1.39,-1.58,2.23,2.22,2.22
117.55,3.65,1.48,3.66,1.49,-1.48,-1.39,-1.59,2.17,2.17,2.17
118.73,3.61,1.49,3.61,1.49,-1.49,-1.38,-1.59,2.12,2.13,2.12
119.92,3.57,1.49,3.57,1.49,-1.49,-1.38,-1.59,2.08,2.08,2.09
121.12,3.53,1.49,3.53,1.49,-1.49,-1.37,-1.60,2.04,2.04,2.04
122.33,3.49,1.49,3.50,1.49,-1.50,-1.37,-1.60,2.00,2.00,2.00
123.55,3.46,1.50,3.46,1.50,-1.50,-1.36,-1.59,1.96,1.96,1.96
124.79,3.42,1.50,3.42,1.50,-1.50,-1.36,-1.59,1.92,1.92,1.92
126.03,3.38,1.51,3.38,1.50,-1.50,-1.35,-1.58,1.88,1.88,1.88
127.29,3.34,1.50,3.34,1.50,-1.50,-1.35,-1.58,1.84,1.84,1.84
128.57,3.30,1.49,3.30,1.50,-1.50,-1.34,-1.57,1.80,1.80,1.81
129.85,3.27,1.51,3.27,1.50,-1.50,-1.33,-1.56,1.77,1.77,1.76
131.15,3.23,1.50,3.23,1.50,-1.50,-1.33,-1.54,1.73,1.73,1.73
132.46,3.20,1.50,3.20,1.50,-1.50,-1.32,-1.53,1.71,1.70,1.70
133.79,3.16,1.50,3.16,1.49,-1.49,-1.31,-1.52,1.67,1.67,1.67
135.12,3.12,1.49,3.12,1.49,-1.49,-1.31,-1.50,1.63,1.63,1.64
136.48,3.08,1.48,3.09,1.48,-1.48,-1.30,-1.48,1.60,1.60,1.60
137.84,3.05,1.47,3.05,1.47,-1.47,-1.29,-1.46,1.58,1.58,1.58
139.22,3.02,1.47,3.02,1.47,-1.47,-1.29,-1.44,1.56,1.55,1.55
140.61,2.98,1.46,2.99,1.46,-1.46,-1.28,-1.42,1.52,1.53,1.53
142.02,2.96,1.46,2.96,1.45,-1.45,-1.27,-1.40,1.51,1.51,1.51
143.44,2.92,1.43,2.92,1.44,-1.44,-1.27,-1.37,1.48,1.49,1.49
144.87,2.89,1.43,2.89,1.43,-1.43,-1.26,-1.35,1.46,1.46,1.46
146.32,2.86,1.42,2.86,1.42,-1.42,-1.25,-1.33,1.44,1.44,1.44
147.78,2.83,1.40,2.83,1.41,-1.41,-1.24,-1.30,1.43,1.42,1.43
149.26,2.80,1.40,2.80,1.39,-1.39,-1.23,-1.28,1.41,1.41,1.40
150.75,2.76,1.37,2.77,1.38,-1.38,-1.23,-1.26,1.38,1.39,1.39
152.26,2.74,1.37,2.74,1.37,-1.37,-1.22,-1.23,1.38,1.37,1.37
153.78,2.71,1.35,2.71,1.35,-1.35,-1.21,-1.21,1.36,1.36,1.36
155.32,2.68,1.34,2.68,1.34,-1.33,-1.20,-1.18,1.35,1.35,1.35
156.88,2.65,1.32,2.65,1.32,-1.32,-1.19,-1.16,1.34,1.34,1.33
158.44,2.62,1.30,2.62,1.30,-1.30,-1.18,-1.14,1.32,1.32,1.32
160.03,2.59,1.28,2.59,1.28,-1.28,-1.17,-1.11,1.31,1.31,1.31
161.63,2.55,1.25,2.56,1.26,-1.26,-1.17,-1.09,1.29,1.30,1.30
163.24,2.53,1.24,2.53,1.24,-1.24,-1.16,-1.07,1.29,1.29,1.29
164.88,2.50,1.22,2.50,1.22,-1.22,-1.15,-1.05,1.28,1.28,1.28
166.53,2.47,1.20,2.47,1.20,-1.20,-1.14,-1.03,1.27,1.27,1.27
168.19,2.44,1.18,2.44,1.18,-1.18,-1.13,-1.01,1.26,1.26,1.26
169.87,2.41,1.16,2.41,1.16,-1.16,-1.12,-0.99,1.25,1.25,1.25
171.57,2.38,1.15,2.38,1.14,-1.14,-1.11,-0.97,1.24,1.24,1.24
173.29,2.35,1.12,2.35,1.12,-1.12,-1.10,-0.95,1.23,1.23,1.23
175.02,2.32,1.10,2.32,1.10,-1.10,-1.09,-0.94,1.22,1.22,1.22
176.77,2.29,1.09,2.29,1.08,-1.09,-1.07,-0.92,1.21,1.21,1.21
178.54,2.26,1.06,2.26,1.07,-1.07,-1.06,-0.91,1.19,1.20,1.20
180.32,2.24,1.06,2.24,1.05,-1.05,-1.05,-0.89,1.19,1.18,1.19
182.13,2.21,1.04,2.21,1.04,-1.04,-1.04,-0.88,1.17,1.17,1.17
183.95,2.18,1.03,2.19,1.03,-1.03,-1.03,-0.86,1.16,1.16,1.16
185.79,2.16,1.02,2.16,1.01,-1.01,-1.02,-0.85,1.15,1.14,1.14
187.65,2.13,1.00,2.13,1.00,-1.00,-1.01,-0.84,1.13,1.13,1.13
189.52,2.10,0.99,2.10,0.99,-0.99,-0.99,-0.83,1.11,1.12,1.12
191.42,2.08,0.98,2.08,0.97,-0.98,-0.98,-0.82,1.11,1.10,1.10
193.33,2.05,0.96,2.05,0.96,-0.97,-0.97,-0.81,1.09,1.09,1.09
195.27,2.03,0.95,2.03,0.95,-0.95,-0.96,-0.80,1.08,1.07,1.08
197.22,2.00,0.94,2.00,0.94,-0.94,-0.94,-0.79,1.06,1.06,1.06
199.19,1.98,0.93,1.98,0.94,-0.93,-0.93,-0.78,1.05,1.05,1.05
201.18,1.96,0.93,1.96,0.93,-0.93,-0.92,-0.77,1.04,1.03,1.03
203.19,1.93,0.91,1.93,0.92,-0.92,-0.91,-0.76,1.02,1.02,1.02
205.23,1.90,0.90,1.90,0.90,-0.91,-0.89,-0.76,0.99,1.00,1.00
207.28,1.88,0.89,1.88,0.89,-0.90,-0.88,-0.75,0.98,0.98,0.99
209.35,1.85,0.88,1.85,0.89,-0.89,-0.86,-0.74,0.97,0.97,0.97
211.44,1.83,0.88,1.83,0.88,-0.87,-0.85,-0.74,0.96,0.96,0.95
213.56,1.80,0.86,1.80,0.86,-0.86,-0.84,-0.73,0.94,0.94,0.94
215.69,1.77,0.85,1.77,0.85,-0.85,-0.82,-0.73,0.92,0.92,0.92
217.85,1.74,0.83,1.74,0.83,-0.83,-0.81,-0.72,0.91,0.91,0.91
220.03,1.71,0.81,1.71,0.82,-0.82,-0.79,-0.71,0.90,0.90,0.90
222.23,1.69,0.80,1.69,0.80,-0.80,-0.78,-0.71,0.89,0.89,0.89
224.45,1.66,0.78,1.66,0.78,-0.78,-0.76,-0.70,0.88,0.88,0.88
226.70,1.63,0.76,1.64,0.76,-0.76,-0.75,-0.69,0.87,0.88,0.88
228.96,1.61,0.74,1.61,0.74,-0.74,-0.73,-0.69,0.87,0.87,0.87
231.25,1.58,0.72,1.58,0.72,-0.72,-0.71,-0.68,0.87,0.86,0.86
233.57,1.55,0.69,1.56,0.69,-0.69,-0.70,-0.67,0.86,0.86,0.87
235.90,1.53,0.67,1.53,0.67,-0.67,-0.68,-0.66,0.86,0.86,0.86
238.26,1.51,0.65,1.51,0.64,-0.64,-0.67,-0.66,0.87,0.87,0.86
240.64,1.48,0.61,1.48,0.62,-0.62,-0.65,-0.65,0.86,0.87,0.87
243.05,1.46,0.60,1.46,0.59,-0.59,-0.63,-0.64,0.87,0.87,0.86
245.48,1.43,0.56,1.43,0.56,-0.57,-0.61,-0.63,0.87,0.87,0.87
247.93,1.41,0.54,1.41,0.54,-0.54,-0.60,-0.61,0.87,0.87,0.87
250.41,1.39,0.51,1.39,0.51,-0.51,-0.58,-0.60,0.88,0.87,0.88
252.92,1.37,0.50,1.37,0.49,-0.49,-0.56,-0.59,0.88,0.88,0.87
255.45,1.34,0.46,1.35,0.47,-0.47,-0.54,-0.58,0.87,0.88,0.88
258.00,1.33,0.45,1.33,0.45,-0.45,-0.53,-0.56,0.88,0.88,0.89
260.58,1.31,0.43,1.31,0.43,-0.43,-0.51,-0.55,0.88,0.88,0.88
263.19,1.29,0.41,1.29,0.41,-0.41,-0.49,-0.53,0.88,0.88,0.88
265.82,1.28,0.40,1.28,0.40,-0.40,-0.47,-0.52,0.88,0.88,0.88
268.48,1.26,0.38,1.26,0.38,-0.38,-0.45,-0.50,0.88,0.88,0.88
271.16,1.25,0.38,1.25,0.37,-0.37,-0.43,-0.48,0.88,0.88,0.88
273.87,1.23,0.36,1.23,0.36,-0.36,-0.41,-0.46,0.87,0.88,0.87
276.61,1.22,0.34,1.22,0.35,-0.35,-0.39,-0.44,0.88,0.88,0.88
279.38,1.21,0.33,1.21,0.33,-0.33,-0.37,-0.43,0.88,0.88,0.88
282.17,1.19,0.32,1.19,0.32,-0.32,-0.35,-0.41,0.87,0.88,0.87
284.99,1.18,0.30,1.18,0.30,-0.30,-0.33,-0.39,0.88,0.88,0.88
287.84,1.16,0.28,1.16,0.28,-0.28,-0.31,-0.36,0.88,0.88,0.88
290.72,1.15,0.27,1.15,0.27,-0.27,-0.29,-0.34,0.89,0.88,0.89
293.63,1.13,0.25,1.13,0.25,-0.25,-0.27,-0.32,0.89,0.89,0.88
296.57,1.11,0.22,1.11,0.23,-0.22,-0.25,-0.30,0.89,0.89,0.89
299.53,1.09,0.20,1.09,0.20,-0.20,-0.23,-0.28,0.89,0.89,0.89
302.53,1.07,0.18,1.07,0.18,-0.18,-0.21,-0.26,0.90,0.90,0.90
305.55,1.05,0.15,1.05,0.15,-0.15,-0.19,-0.23,0.90,0.90,0.90
308.61,1.03,0.12,1.03,0.12,-0.12,-0.17,-0.21,0.91,0.91,0.91
311.69,1.01,0.09,1.01,0.09,-0.09,-0.15,-0.19,0.92,0.92,0.92
314.81,0.99,0.06,0.99,0.06,-0.06,-0.12,-0.17,0.93,0.93,0.93
317.96,0.96,0.03,0.97,0.03,-0.03,-0.10,-0.14,0.93,0.94,0.94
321.14,0.95,0.01,0.94,0.00,-0.00,-0.08,-0.12,0.95,0.94,0.94
324.35,0.92,-0.03,0.92,-0.03,0.03,-0.06,-0.10,0.95,0.95,0.95
327.59,0.89,-0.07,0.90,-0.06,0.06,-0.04,-0.07,0.95,0.96,0.96
330.87,0.87,-0.09,0.87,-0.09,0.09,-0.01,-0.05,0.96,0.96,0.96
334.18,0.84,-0.13,0.84,-0.12,0.12,0.01,-0.03,0.96,0.96,0.97
337.52,0.82,-0.14,0.82,-0.15,0.15,0.03,-0.00,0.97,0.97,0.97
340.90,0.80,-0.17,0.80,-0.17,0.18,0.05,0.02,0.98,0.97,0.97
344.30,0.77,-0.20,0.77,-0.20,0.20,0.07,0.05,0.97,0.97,0.97
347.75,0.74,-0.23,0.74,-0.23,0.23,0.10,0.07,0.97,0.97,0.97
351.23,0.72,-0.25,0.72,-0.25,0.25,0.12,0.09,0.97,0.97,0.97
354.74,0.69,-0.28,0.69,-0.27,0.27,0.14,0.12,0.96,0.96,0.97
358.28,0.67,-0.29,0.67,-0.29,0.29,0.17,0.14,0.96,0.96,0.96
361.87,0.65,-0.31,0.65,-0.31,0.31,0.19,0.17,0.96,0.96,0.96
365.49,0.62,-0.33,0.63,-0.33,0.33,0.21,0.19,0.95,0.96,0.96
369.14,0.61,-0.34,0.61,-0.35,0.35,0.23,0.22,0.96,0.96,0.95
372.83,0.59,-0.36,0.59,-0.36,0.36,0.26,0.24,0.96,0.96,0.95
376.56,0.58,-0.38,0.58,-0.38,0.38,0.28,0.26,0.96,0.96,0.96
380.33,0.56,-0.40,0.56,-0.40,0.40,0.30,0.29,0.96,0.96,0.96
384.13,0.55,-0.41,0.55,-0.41,0.41,0.33,0.31,0.96,0.96,0.96
387.97,0.54,-0.43,0.54,-0.43,0.43,0.35,0.34,0.97,0.97,0.97
391.85,0.53,-0.44,0.53,-0.44,0.44,0.37,0.36,0.97,0.97,0.97
395.77,0.52,-0.46,0.52,-0.45,0.46,0.39,0.39,0.98,0.98,0.98
399.73,0.52,-0.47,0.52,-0.47,0.47,0.42,0.41,0.99,0.99,0.99
403.72,0.51,-0.48,0.51,-0.48,0.48,0.44,0.44,0.99,0.99,0.99
407.76,0.50,-0.49,0.50,-0.50,0.49,0.46,0.47,0.99,0.99,1.00
411.84,0.49,-0.51,0.50,-0.51,0.50,0.48,0.49,0.99,1.00,1.01
415.96,0.50,-0.51,0.50,-0.51,0.51,0.50,0.52,1.01,1.01,1.01
420.12,0.50,-0.51,0.50,-0.52,0.52,0.52,0.54,1.02,1.02,1.01
424.32,0.49,-0.53,0.49,-0.53,0.53,0.55,0.56,1.02,1.03,1.02
428.56,0.49,-0.54,0.49,-0.54,0.54,0.57,0.59,1.03,1.03,1.03
432.85,0.49,-0.55,0.49,-0.55,0.55,0.59,0.61,1.04,1.04,1.04
437.18,0.50,-0.55,0.50,-0.55,0.55,0.61,0.64,1.05,1.05,1.05
441.55,0.50,-0.56,0.50,-0.56,0.56,0.63,0.66,1.06,1.06,1.06
445.96,0.50,-0.57,0.50,-0.57,0.57,0.64,0.68,1.07,1.07,1.07
450.42,0.50,-0.58,0.50,-0.58,0.58,0.66,0.71,1.09,1.08,1.08
454.93,0.49,-0.60,0.50,-0.59,0.60,0.68,0.73,1.09,1.09,1.09
459.48,0.49,-0.61,0.49,-0.61,0.61,0.70,0.75,1.10,1.10,1.10
464.07,0.48,-0.63,0.48,-0.63,0.63,0.72,0.77,1.11,1.11,1.11
468.71,0.47,-0.65,0.48,-0.64,0.64,0.73,0.79,1.12,1.12,1.12
473.40,0.47,-0.66,0.47,-0.66,0.66,0.75,0.81,1.13,1.13,1.13
478.13,0.46,-0.68,0.46,-0.68,0.68,0.76,0.83,1.14,1.14,1.14
482.91,0.45,-0.71,0.46,-0.70,0.70,0.78,0.84,1.15,1.15,1.16
487.74,0.45,-0.72,0.45,-0.72,0.72,0.79,0.86,1.17,1.17,1.17
492.62,0.45,-0.74,0.45,-0.73,0.74,0.80,0.88,1.19,1.19,1.19
497.55,0.45,-0.75,0.45,-0.75,0.76,0.81,0.89,1.21,1.20,1.20
502.52,0.44,-0.78,0.44,-0.77,0.78,0.83,0.91,1.22,1.22,1.22
507.55,0.44,-0.79,0.44,-0.80,0.80,0.84,0.92,1.24,1.24,1.24
512.62,0.43,-0.82,0.43,-0.82,0.82,0.85,0.93,1.25,1.25,1.26
517.75,0.43,-0.83,0.43,-0.84,0.84,0.86,0.95,1.27,1.27,1.27
522.93,0.42,-0.86,0.42,-0.86,0.86,0.87,0.96,1.28,1.28,1.29
528.16,0.42,-0.88,0.42,-0.88,0.88,0.88,0.97,1.30,1.30,1.31
533.44,0.42,-0.89,0.42,-0.90,0.90,0.89,0.98,1.32,1.32,1.32
538.77,0.41,-0.92,0.41,-0.92,0.92,0.91,0.99,1.33,1.33,1.33
544.16,0.40,-0.94,0.40,-0.94,0.94,0.92,1.00,1.34,1.34,1.34
549.60,0.39,-0.96,0.39,-0.96,0.96,0.94,1.00,1.36,1.36,1.35
