frequency,raw,error,smoothed,error_smoothed,equalization,parametric_eq,fixed_band_eq,equalized_raw,equalized_smoothed,target
20.00,3.49,-0.30,3.48,-0.31,0.29,-0.25,-0.12,3.78,3.78,3.79
20.20,3.53,-0.25,3.53,-0.25,0.25,-0.25,-0.12,3.77,3.78,3.78
20.40,3.57,-0.21,3.57,-0.20,0.20,-0.26,-0.12,3.77,3.78,3.78
20.61,3.61,-0.16,3.61,-0.16,0.17,-0.26,-0.12,3.77,3.78,3.77
20.81,3.65,-0.11,3.65,-0.11,0.13,-0.27,-0.12,3.78,3.78,3.76
21.02,3.69,-0.06,3.68,-0.08,0.10,-0.27,-0.12,3.79,3.78,3.75
21.23,3.69,-0.06,3.69,-0.06,0.08,-0.28,-0.12,3.77,3.77,3.75
21.44,3.69,-0.07,3.69,-0.06,0.06,-0.28,-0.13,3.75,3.75,3.76
21.66,3.69,-0.06,3.69,-0.06,0.06,-0.29,-0.13,3.74,3.74,3.75
21.87,3.69,-0.06,3.69,-0.06,0.05,-0.29,-0.13,3.74,3.74,3.75
22.09,3.69,-0.05,3.69,-0.05,0.05,-0.30,-0.13,3.74,3.74,3.74
22.31,3.69,-0.05,3.69,-0.05,0.05,-0.31,-0.13,3.74,3.74,3.74
22.54,3.69,-0.04,3.69,-0.05,0.05,-0.31,-0.13,3.74,3.73,3.73
22.76,3.69,-0.05,3.69,-0.05,0.04,-0.32,-0.13,3.73,3.73,3.74
22.99,3.69,-0.05,3.69,-0.04,0.03,-0.32,-0.13,3.72,3.72,3.74
23.22,3.71,-0.02,3.71,-0.02,0.01,-0.33,-0.13,3.72,3.72,3.73
23.45,3.74,0.01,3.73,0.01,-0.01,-0.34,-0.13,3.73,3.73,3.73
23.69,3.76,0.03,3.76,0.03,-0.03,-0.34,-0.14,3.73,3.73,3.73
23.92,3.78,0.05,3.78,0.05,-0.05,-0.35,-0.14,3.73,3.73,3.73
24.16,3.81,0.07,3.81,0.07,-0.07,-0.36,-0.14,3.74,3.73,3.73
24.40,3.83,0.08,3.83,0.09,-0.10,-0.37,-0.14,3.73,3.74,3.74
24.65,3.86,0.11,3.86,0.11,-0.11,-0.37,-0.14,3.74,3.74,3.74
24.89,3.88,0.14,3.88,0.14,-0.13,-0.38,-0.14,3.75,3.75,3.74
25.14,3.89,0.16,3.89,0.15,-0.14,-0.39,-0.14,3.75,3.75,3.73
25.39,3.89,0.16,3.89,0.16,-0.15,-0.40,-0.14,3.74,3.74,3.73
25.65,3.89,0.16,3.89,0.16,-0.16,-0.40,-0.15,3.73,3.73,3.73
25.91,3.89,0.16,3.89,0.16,-0.17,-0.41,-0.15,3.72,3.72,3.73
26.16,3.89,0.16,3.89,0.16,-0.17,-0.42,-0.15,3.72,3.72,3.73
26.43,3.89,0.17,3.89,0.17,-0.17,-0.43,-0.15,3.72,3.72,3.72
26.69,3.89,0.17,3.89,0.18,-0.17,-0.44,-0.16,3.72,3.72,3.72
26.96,3.89,0.18,3.89,0.18,-0.18,-0.45,-0.16,3.71,3.71,3.71
27.23,3.89,0.19,3.89,0.19,-0.19,-0.45,-0.16,3.70,3.70,3.69
27.50,3.89,0.20,3.89,0.19,-0.20,-0.46,-0.17,3.69,3.69,3.69
27.77,3.89,0.20,3.89,0.20,-0.21,-0.47,-0.17,3.68,3.68,3.69
28.05,3.90,0.21,3.90,0.21,-0.23,-0.48,-0.18,3.67,3.67,3.69
28.33,3.92,0.23,3.92,0.24,-0.24,-0.49,-0.18,3.68,3.68,3.69
28.62,3.95,0.27,3.95,0.26,-0.25,-0.50,-0.19,3.70,3.70,3.68
28.90,3.98,0.29,3.97,0.29,-0.26,-0.51,-0.19,3.71,3.71,3.69
29.19,3.99,0.30,3.99,0.30,-0.28,-0.52,-0.20,3.71,3.71,3.69
29.48,3.99,0.29,3.99,0.30,-0.30,-0.53,-0.21,3.69,3.69,3.69
29.78,3.99,0.30,3.99,0.30,-0.32,-0.54,-0.21,3.67,3.67,3.69
30.08,4.00,0.30,4.00,0.31,-0.33,-0.55,-0.22,3.66,3.67,3.70
30.38,4.03,0.34,4.03,0.34,-0.35,-0.56,-0.23,3.68,3.68,3.69
30.68,4.06,0.37,4.06,0.37,-0.37,-0.57,-0.24,3.69,3.69,3.69
30.99,4.09,0.41,4.08,0.40,-0.38,-0.59,-0.25,3.71,3.70,3.68
31.30,4.09,0.41,4.09,0.42,-0.40,-0.60,-0.27,3.69,3.69,3.67
31.61,4.09,0.42,4.09,0.42,-0.42,-0.61,-0.28,3.67,3.67,3.67
31.93,4.09,0.43,4.09,0.42,-0.43,-0.62,-0.29,3.66,3.66,3.66
32.24,4.09,0.43,4.09,0.43,-0.44,-0.63,-0.31,3.65,3.65,3.66
32.57,4.09,0.44,4.09,0.44,-0.45,-0.65,-0.32,3.64,3.64,3.65
32.89,4.09,0.46,4.09,0.45,-0.45,-0.66,-0.34,3.64,3.64,3.63
33.22,4.09,0.46,4.09,0.46,-0.46,-0.67,-0.35,3.63,3.63,3.63
33.55,4.09,0.46,4.09,0.46,-0.46,-0.69,-0.37,3.63,3.63,3.63
33.89,4.09,0.46,4.09,0.47,-0.47,-0.70,-0.39,3.62,3.62,3.63
34.23,4.09,0.48,4.09,0.47,-0.47,-0.71,-0.41,3.62,3.62,3.61
34.57,4.09,0.48,4.09,0.48,-0.48,-0.73,-0.43,3.61,3.61,3.61
34.92,4.09,0.49,4.09,0.49,-0.49,-0.74,-0.45,3.60,3.60,3.60
35.27,4.09,0.48,4.09,0.49,-0.50,-0.76,-0.47,3.59,3.59,3.60
35.62,4.09,0.51,4.09,0.50,-0.51,-0.77,-0.49,3.58,3.58,3.58
35.97,4.09,0.52,4.09,0.52,-0.52,-0.79,-0.51,3.57,3.57,3.57
36.33,4.09,0.53,4.09,0.53,-0.53,-0.80,-0.54,3.56,3.56,3.55
36.70,4.09,0.55,4.09,0.55,-0.55,-0.82,-0.56,3.54,3.54,3.54
37.06,4.09,0.56,4.09,0.56,-0.56,-0.84,-0.59,3.53,3.53,3.53
37.43,4.09,0.58,4.09,0.58,-0.58,-0.85,-0.61,3.51,3.51,3.51
37.81,4.09,0.60,4.09,0.60,-0.59,-0.87,-0.64,3.49,3.49,3.49
38.19,4.09,0.62,4.09,0.62,-0.61,-0.89,-0.67,3.47,3.47,3.47
38.57,4.09,0.65,4.09,0.65,-0.64,-0.90,-0.70,3.45,3.44,3.44
38.95,4.09,0.67,4.09,0.67,-0.68,-0.92,-0.73,3.41,3.41,3.42
39.34,4.10,0.71,4.09,0.70,-0.73,-0.94,-0.75,3.37,3.37,3.39
39.74,4.11,0.74,4.11,0.74,-0.78,-0.96,-0.79,3.33,3.33,3.37
40.14,4.14,0.80,4.15,0.81,-0.83,-0.98,-0.82,3.31,3.33,3.34
40.54,4.21,0.89,4.21,0.89,-0.88,-1.00,-0.85,3.33,3.33,3.32
40.94,4.28,0.99,4.26,0.96,-0.93,-1.02,-0.88,3.35,3.32,3.29
41.35,4.29,1.01,4.29,1.02,-0.98,-1.04,-0.92,3.31,3.31,3.28
41.76,4.29,1.04,4.29,1.04,-1.02,-1.06,-0.95,3.26,3.27,3.25
42.18,4.29,1.05,4.29,1.06,-1.06,-1.08,-0.98,3.23,3.23,3.23
42.60,4.29,1.08,4.29,1.08,-1.09,-1.10,-1.02,3.20,3.20,3.21
43.03,4.29,1.11,4.29,1.10,-1.11,-1.12,-1.06,3.17,3.17,3.18
43.46,4.29,1.12,4.29,1.13,-1.13,-1.14,-1.10,3.15,3.15,3.16
43.90,4.29,1.15,4.29,1.15,-1.15,-1.17,-1.13,3.13,3.13,3.14
44.33,4.29,1.18,4.29,1.18,-1.18,-1.19,-1.17,3.11,3.11,3.11
44.78,4.29,1.21,4.29,1.20,-1.20,-1.21,-1.21,3.08,3.08,3.08
45.23,4.29,1.22,4.29,1.23,-1.23,-1.24,-1.25,3.06,3.06,3.06
45.68,4.29,1.26,4.29,1.26,-1.26,-1.26,-1.30,3.03,3.03,3.03
46.13,4.29,1.30,4.29,1.30,-1.29,-1.29,-1.34,2.99,2.99,2.99
46.60,4.29,1.33,4.29,1.33,-1.33,-1.31,-1.38,2.96,2.96,2.96
47.06,4.29,1.36,4.29,1.36,-1.36,-1.34,-1.43,2.92,2.92,2.93
47.53,4.29,1.39,4.29,1.40,-1.40,-1.36,-1.47,2.89,2.89,2.90
48.01,4.29,1.45,4.29,1.44,-1.44,-1.39,-1.52,2.85,2.85,2.84
48.49,4.29,1.48,4.29,1.48,-1.48,-1.42,-1.56,2.81,2.81,2.81
48.97,4.29,1.52,4.29,1.52,-1.52,-1.45,-1.61,2.77,2.77,2.77
49.46,4.29,1.56,4.29,1.56,-1.56,-1.48,-1.66,2.73,2.73,2.73
49.96,4.29,1.61,4.29,1.60,-1.60,-1.50,-1.71,2.69,2.69,2.68
50.46,4.29,1.63,4.29,1.64,-1.63,-1.53,-1.76,2.66,2.66,2.66
50.96,4.29,1.67,4.29,1.67,-1.67,-1.56,-1.80,2.62,2.62,2.62
51.47,4.29,1.70,4.29,1.70,-1.70,-1.59,-1.85,2.58,2.58,2.59
51.99,4.29,1.74,4.29,1.74,-1.74,-1.63,-1.90,2.55,2.55,2.55
52.51,4.29,1.77,4.29,1.77,-1.78,-1.66,-1.95,2.51,2.51,2.51
53.03,4.29,1.81,4.29,1.81,-1.82,-1.69,-2.00,2.47,2.47,2.48
53.56,4.29,1.85,4.29,1.85,-1.85,-1.72,-2.05,2.43,2.43,2.44
54.10,4.29,1.90,4.29,1.90,-1.89,-1.75,-2.10,2.39,2.39,2.39
54.64,4.29,1.93,4.29,1.94,-1.93,-1.79,-2.15,2.35,2.35,2.35
55.18,4.29,1.98,4.29,1.98,-1.97,-1.82,-2.19,2.31,2.31,2.31
55.74,4.29,2.02,4.29,2.01,-2.01,-1.86,-2.24,2.28,2.28,2.27
56.29,4.29,2.04,4.29,2.05,-2.05,-1.89,-2.29,2.24,2.24,2.24
56.86,4.29,2.07,4.29,2.08,-2.08,-1.93,-2.33,2.21,2.21,2.22
57.42,4.29,2.13,4.29,2.12,-2.11,-1.97,-2.37,2.18,2.18,2.16
58.00,4.29,2.15,4.29,2.15,-2.14,-2.00,-2.42,2.15,2.15,2.14
58.58,4.29,2.17,4.29,2.17,-2.17,-2.04,-2.46,2.12,2.12,2.12
59.16,4.29,2.20,4.29,2.20,-2.21,-2.08,-2.49,2.08,2.08,2.09
59.76,4.29,2.23,4.29,2.23,-2.24,-2.12,-2.53,2.05,2.05,2.06
60.35,4.29,2.28,4.29,2.27,-2.28,-2.16,-2.56,2.01,2.01,2.01
60.96,4.29,2.31,4.29,2.32,-2.32,-2.20,-2.60,1.96,1.96,1.98
61.57,4.29,2.37,4.29,2.37,-2.37,-2.24,-2.63,1.92,1.92,1.92
62.18,4.29,2.42,4.29,2.42,-2.42,-2.28,-2.65,1.87,1.87,1.87
62.80,4.29,2.47,4.29,2.47,-2.46,-2.32,-2.68,1.82,1.82,1.81
63.43,4.29,2.52,4.29,2.52,-2.51,-2.36,-2.70,1.78,1.78,1.77
64.07,4.29,2.57,4.29,2.56,-2.56,-2.41,-2.73,1.73,1.73,1.72
64.71,4.29,2.60,4.29,2.61,-2.60,-2.45,-2.75,1.68,1.68,1.69
65.35,4.29,2.65,4.29,2.64,-2.65,-2.49,-2.77,1.64,1.64,1.64
66.01,4.29,2.69,4.29,2.69,-2.69,-2.54,-2.78,1.60,1.60,1.60
66.67,4.29,2.73,4.29,2.73,-2.74,-2.58,-2.80,1.55,1.55,1.56
67.33,4.29,2.79,4.29,2.78,-2.78,-2.63,-2.81,1.51,1.51,1.50
68.01,4.29,2.83,4.29,2.82,-2.82,-2.67,-2.82,1.47,1.47,1.46
68.69,4.29,2.87,4.29,2.87,-2.87,-2.72,-2.83,1.42,1.42,1.42
69.37,4.29,2.91,4.29,2.91,-2.91,-2.77,-2.84,1.37,1.37,1.38
70.07,4.29,2.96,4.29,2.96,-2.96,-2.81,-2.85,1.33,1.33,1.33
70.77,4.29,3.01,4.29,3.01,-3.01,-2.86,-2.86,1.28,1.28,1.28
71.48,4.29,3.05,4.29,3.05,-3.06,-2.91,-2.87,1.23,1.23,1.24
72.19,4.29,3.10,4.29,3.10,-3.11,-2.95,-2.88,1.18,1.18,1.19
72.91,4.29,3.15,4.29,3.15,-3.15,-3.00,-2.89,1.14,1.14,1.13
73.64,4.29,3.20,4.29,3.20,-3.18,-3.05,-2.90,1.10,1.11,1.09
74.38,4.29,3.24,4.29,3.24,-3.22,-3.09,-2.92,1.07,1.07,1.05
75.12,4.28,3.27,4.27,3.26,-3.24,-3.14,-2.93,1.03,1.03,1.01
75.87,4.25,3.27,4.24,3.27,-3.27,-3.19,-2.94,0.98,0.97,0.98
76.63,4.21,3.28,4.22,3.28,-3.29,-3.24,-2.95,0.92,0.92,0.93
77.40,4.19,3.29,4.19,3.30,-3.31,-3.28,-2.97,0.87,0.88,0.90
78.17,4.19,3.33,4.19,3.32,-3.34,-3.33,-2.99,0.85,0.85,0.86
78.95,4.19,3.36,4.19,3.36,-3.36,-3.38,-3.01,0.83,0.83,0.83
79.74,4.19,3.39,4.19,3.39,-3.39,-3.43,-3.03,0.80,0.80,0.80
80.54,4.19,3.42,4.19,3.42,-3.42,-3.47,-3.05,0.77,0.77,0.76
81.35,4.19,3.46,4.19,3.46,-3.46,-3.52,-3.07,0.73,0.73,0.73
82.16,4.19,3.49,4.19,3.49,-3.49,-3.56,-3.10,0.70,0.70,0.70
82.98,4.19,3.53,4.19,3.53,-3.53,-3.61,-3.13,0.66,0.66,0.65
83.81,4.19,3.57,4.19,3.57,-3.57,-3.65,-3.16,0.62,0.62,0.62
84.65,4.19,3.61,4.19,3.61,-3.61,-3.70,-3.19,0.58,0.58,0.58
85.50,4.19,3.65,4.19,3.65,-3.65,-3.74,-3.23,0.54,0.54,0.54
86.35,4.19,3.69,4.19,3.69,-3.69,-3.79,-3.27,0.50,0.50,0.50
87.22,4.19,3.73,4.19,3.73,-3.74,-3.83,-3.31,0.45,0.45,0.46
88.09,4.19,3.77,4.19,3.78,-3.78,-3.87,-3.35,0.41,0.41,0.42
88.97,4.20,3.83,4.20,3.82,-3.83,-3.91,-3.40,0.37,0.37,0.37
89.86,4.20,3.87,4.20,3.87,-3.87,-3.95,-3.45,0.33,0.33,0.33
90.76,4.20,3.91,4.20,3.92,-3.91,-3.99,-3.50,0.29,0.29,0.29
91.66,4.20,3.97,4.20,3.97,-3.95,-4.03,-3.55,0.25,0.26,0.23
92.58,4.20,4.01,4.19,4.00,-3.98,-4.07,-3.61,0.22,0.21,0.19
93.51,4.18,4.03,4.17,4.02,-4.02,-4.11,-3.67,0.16,0.15,0.14
94.44,4.13,4.03,4.14,4.04,-4.05,-4.14,-3.73,0.08,0.08,0.10
95.39,4.10,4.06,4.11,4.07,-4.09,-4.18,-3.79,0.01,0.02,0.04
96.34,4.10,4.11,4.09,4.10,-4.13,-4.21,-3.86,-0.03,-0.04,-0.01
97.30,4.09,4.16,4.09,4.16,-4.17,-4.25,-3.93,-0.08,-0.08,-0.07
98.28,4.08,4.21,4.08,4.21,-4.21,-4.28,-4.00,-0.13,-0.13,-0.13
99.26,4.07,4.26,4.07,4.26,-4.24,-4.31,-4.07,-0.17,-0.18,-0.19
100.25,4.05,4.30,4.05,4.30,-4.28,-4.34,-4.14,-0.23,-0.22,-0.25
101.25,4.03,4.33,4.03,4.33,-4.31,-4.38,-4.21,-0.28,-0.28,-0.30
102.27,4.00,4.36,3.99,4.34,-4.34,-4.41,-4.29,-0.34,-0.35,-0.36
103.29,3.94,4.35,3.94,4.35,-4.36,-4.44,-4.37,-0.42,-0.42,-0.41
104.32,3.89,4.35,3.90,4.36,-4.38,-4.46,-4.44,-0.49,-0.48,-0.46
105.37,3.86,4.39,3.86,4.38,-4.40,-4.49,-4.52,-0.54,-0.54,-0.53
106.42,3.84,4.42,3.83,4.42,-4.42,-4.52,-4.60,-0.59,-0.59,-0.58
107.48,3.81,4.45,3.81,4.45,-4.45,-4.55,-4.68,-0.64,-0.64,-0.65
108.56,3.79,4.48,3.79,4.49,-4.48,-4.58,-4.75,-0.69,-0.69,-0.69
109.64,3.77,4.52,3.77,4.52,-4.51,-4.60,-4.83,-0.74,-0.75,-0.75
110.74,3.75,4.56,3.75,4.55,-4.55,-4.63,-4.90,-0.80,-0.80,-0.81
111.85,3.73,4.58,3.73,4.59,-4.59,-4.65,-4.98,-0.87,-0.86,-0.86
112.97,3.72,4.62,3.72,4.62,-4.64,-4.68,-5.05,-0.92,-0.92,-0.90
114.10,3.72,4.67,3.71,4.67,-4.69,-4.70,-5.11,-0.97,-0.97,-0.95
115.24,3.71,4.72,3.71,4.72,-4.73,-4.73,-5.18,-1.02,-1.02,-1.02
116.39,3.71,4.77,3.72,4.78,-4.77,-4.75,-5.24,-1.06,-1.05,-1.06
117.55,3.72,4.83,3.71,4.83,-4.80,-4.78,-5.29,-1.08,-1.08,-1.11
118.73,3.72,4.87,3.70,4.85,-4.82,-4.80,-5.34,-1.10,-1.12,-1.15
119.92,3.67,4.87,3.68,4.87,-4.84,-4.83,-5.39,-1.17,-1.17,-1.20
121.12,3.64,4.86,3.64,4.86,-4.86,-4.85,-5.43,-1.22,-1.23,-1.22
122.33,3.60,4.86,3.59,4.86,-4.88,-4.88,-5.47,-1.28,-1.28,-1.26
123.55,3.56,4.86,3.57,4.87,-4.90,-4.90,-5.50,-1.34,-1.32,-1.30
124.79,3.56,4.89,3.56,4.89,-4.92,-4.92,-5.52,-1.36,-1.36,-1.33
126.03,3.57,4.94,3.56,4.93,-4.94,-4.95,-5.54,-1.37,-1.38,-1.37
127.29,3.57,4.98,3.57,4.98,-4.98,-4.97,-5.56,-1.41,-1.40,-1.41
128.57,3.58,5.03,3.58,5.03,-5.02,-5.00,-5.56,-1.44,-1.44,-1.45
129.85,3.59,5.07,3.59,5.07,-5.07,-5.02,-5.57,-1.48,-1.48,-1.48
131.15,3.59,5.11,3.59,5.11,-5.12,-5.05,-5.57,-1.53,-1.52,-1.52
132.46,3.60,5.16,3.60,5.16,-5.16,-5.07,-5.56,-1.56,-1.57,-1.56
133.79,3.60,5.21,3.60,5.20,-5.21,-5.10,-5.55,-1.61,-1.61,-1.61
135.12,3.60,5.24,3.61,5.25,-5.24,-5.12,-5.54,-1.65,-1.64,-1.64
136.48,3.61,5.29,3.61,5.29,-5.28,-5.14,-5.52,-1.67,-1.67,-1.68
137.84,3.61,5.32,3.60,5.32,-5.30,-5.17,-5.50,-1.69,-1.71,-1.72
139.22,3.58,5.35,3.57,5.33,-5.32,-5.19,-5.47,-1.74,-1.75,-1.77
140.61,3.53,5.32,3.55,5.34,-5.34,-5.22,-5.45,-1.81,-1.79,-1.79
142.02,3.51,5.34,3.51,5.35,-5.35,-5.25,-5.42,-1.84,-1.84,-1.84
143.44,3.51,5.39,3.48,5.36,-5.36,-5.27,-5.39,-1.85,-1.88,-1.88
144.87,3.45,5.36,3.46,5.37,-5.38,-5.30,-5.36,-1.93,-1.92,-1.91
146.32,3.42,5.37,3.43,5.38,-5.39,-5.32,-5.33,-1.98,-1.97,-1.95
147.78,3.41,5.40,3.41,5.40,-5.42,-5.35,-5.30,-2.01,-2.01,-1.99
149.26,3.41,5.43,3.41,5.43,-5.44,-5.37,-5.28,-2.04,-2.04,-2.03
150.75,3.41,5.48,3.41,5.48,-5.47,-5.40,-5.25,-2.06,-2.06,-2.07
152.26,3.41,5.51,3.41,5.52,-5.50,-5.42,-5.22,-2.09,-2.09,-2.10
153.78,3.41,5.55,3.41,5.55,-5.53,-5.45,-5.20,-2.12,-2.12,-2.15
155.32,3.41,5.58,3.40,5.57,-5.56,-5.47,-5.17,-2.15,-2.16,-2.17
156.88,3.37,5.58,3.37,5.58,-5.59,-5.50,-5.15,-2.22,-2.22,-2.22
158.44,3.33,5.59,3.34,5.59,-5.61,-5.52,-5.14,-2.28,-2.27,-2.26
160.03,3.31,5.61,3.32,5.62,-5.63,-5.55,-5.12,-2.32,-2.31,-2.30
161.63,3.31,5.65,3.30,5.65,-5.65,-5.57,-5.11,-2.34,-2.34,-2.34
163.24,3.30,5.69,3.28,5.67,-5.67,-5.60,-5.10,-2.37,-2.38,-2.39
164.88,3.25,5.68,3.25,5.69,-5.69,-5.62,-5.10,-2.44,-2.44,-2.43
166.53,3.21,5.69,3.22,5.70,-5.71,-5.65,-5.09,-2.50,-2.49,-2.48
168.19,3.20,5.72,3.20,5.72,-5.73,-5.67,-5.09,-2.53,-2.53,-2.52
169.87,3.19,5.76,3.19,5.76,-5.75,-5.70,-5.10,-2.56,-2.56,-2.57
171.57,3.18,5.79,3.17,5.78,-5.77,-5.72,-5.11,-2.59,-2.60,-2.62
173.29,3.16,5.81,3.14,5.80,-5.79,-5.74,-5.12,-2.63,-2.65,-2.65
175.02,3.09,5.78,3.11,5.80,-5.81,-5.77,-5.14,-2.72,-2.70,-2.70
176.77,3.07,5.81,3.08,5.82,-5.82,-5.79,-5.16,-2.75,-2.74,-2.74
178.54,3.07,5.84,3.07,5.85,-5.84,-5.81,-5.18,-2.77,-2.77,-2.77
180.32,3.07,5.89,3.05,5.87,-5.86,-5.83,-5.21,-2.79,-2.81,-2.82
182.13,3.04,5.90,3.03,5.89,-5.89,-5.86,-5.24,-2.85,-2.86,-2.86
183.95,2.98,5.87,3.01,5.90,-5.92,-5.88,-5.28,-2.94,-2.91,-2.89
185.79,3.00,5.93,3.00,5.93,-5.95,-5.90,-5.32,-2.95,-2.95,-2.93
187.65,3.01,5.97,3.00,5.97,-5.98,-5.92,-5.36,-2.98,-2.98,-2.96
189.52,3.03,6.03,3.03,6.03,-6.02,-5.94,-5.41,-2.99,-2.99,-3.00
191.42,3.04,6.06,3.04,6.07,-6.05,-5.96,-5.46,-3.01,-3.01,-3.02
193.33,3.05,6.11,3.04,6.10,-6.08,-5.97,-5.52,-3.04,-3.05,-3.06
195.27,3.02,6.12,3.02,6.12,-6.11,-5.99,-5.57,-3.09,-3.09,-3.10
197.22,2.99,6.12,3.01,6.14,-6.14,-6.01,-5.63,-3.15,-3.13,-3.14
199.19,2.99,6.15,2.99,6.15,-6.16,-6.02,-5.70,-3.17,-3.17,-3.16
201.18,2.99,6.19,2.97,6.16,-6.17,-6.04,-5.76,-3.18,-3.20,-3.20
203.19,2.94,6.16,2.95,6.17,-6.18,-6.05,-5.83,-3.24,-3.23,-3.23
205.23,2.91,6.16,2.93,6.18,-6.18,-6.07,-5.90,-3.27,-3.25,-3.25
207.28,2.91,6.18,2.90,6.18,-6.18,-6.08,-5.97,-3.27,-3.28,-3.28
209.35,2.89,6.21,2.87,6.18,-6.17,-6.09,-6.04,-3.28,-3.30,-3.32
211.44,2.82,6.16,2.84,6.19,-6.17,-6.11,-6.12,-3.35,-3.32,-3.34
213.56,2.80,6.17,2.79,6.16,-6.16,-6.12,-6.19,-3.36,-3.37,-3.38
215.69,2.76,6.16,2.74,6.14,-6.16,-6.13,-6.26,-3.40,-3.42,-3.40
217.85,2.69,6.11,2.71,6.14,-6.17,-6.13,-6.33,-3.48,-3.45,-3.42
220.03,2.69,6.15,2.68,6.14,-6.17,-6.14,-6.40,-3.48,-3.49,-3.46
222.23,2.68,6.16,2.67,6.16,-6.17,-6.15,-6.47,-3.50,-3.50,-3.48
224.45,2.68,6.18,2.69,6.19,-6.17,-6.15,-6.54,-3.50,-3.49,-3.51
226.70,2.68,6.21,2.68,6.21,-6.18,-6.16,-6.60,-3.50,-3.49,-3.53
228.96,2.69,6.23,2.67,6.21,-6.17,-6.16,-6.65,-3.49,-3.50,-3.54
231.25,2.63,6.19,2.63,6.19,-6.17,-6.17,-6.71,-3.54,-3.54,-3.56
233.57,2.59,6.15,2.58,6.15,-6.16,-6.17,-6.75,-3.57,-3.58,-3.57
235.90,2.52,6.10,2.55,6.13,-6.15,-6.17,-6.79,-3.63,-3.61,-3.59
238.26,2.53,6.12,2.53,6.12,-6.14,-6.17,-6.83,-3.61,-3.61,-3.59
240.64,2.55,6.13,2.52,6.11,-6.12,-6.17,-6.85,-3.57,-3.60,-3.58
243.05,2.52,6.11,2.52,6.11,-6.11,-6.16,-6.87,-3.59,-3.59,-3.59
245.48,2.50,6.09,2.52,6.11,-6.10,-6.16,-6.88,-3.60,-3.58,-3.59
247.93,2.51,6.11,2.51,6.10,-6.09,-6.15,-6.89,-3.59,-3.59,-3.60
250.41,2.53,6.11,2.50,6.09,-6.09,-6.15,-6.88,-3.57,-3.59,-3.58
252.92,2.48,6.06,2.49,6.08,-6.09,-6.14,-6.87,-3.61,-3.60,-3.58
255.45,2.46,6.06,2.47,6.07,-6.08,-6.13,-6.84,-3.62,-3.61,-3.60
258.00,2.47,6.07,2.47,6.07,-6.07,-6.12,-6.81,-3.60,-3.60,-3.61
260.58,2.47,6.08,2.47,6.08,-6.05,-6.11,-6.78,-3.58,-3.58,-3.61
263.19,2.46,6.08,2.44,6.06,-6.03,-6.10,-6.73,-3.57,-3.59,-3.62
265.82,2.39,6.01,2.39,6.02,-6.01,-6.09,-6.68,-3.62,-3.62,-3.62
268.48,2.33,5.97,2.33,5.97,-5.99,-6.07,-6.62,-3.66,-3.66,-3.64
271.16,2.28,5.93,2.28,5.94,-5.97,-6.06,-6.55,-3.69,-3.69,-3.65
273.87,2.26,5.92,2.27,5.93,-5.95,-6.04,-6.48,-3.69,-3.68,-3.66
276.61,2.26,5.93,2.25,5.93,-5.93,-6.03,-6.41,-3.67,-3.68,-3.68
279.38,2.26,5.95,2.24,5.92,-5.91,-6.01,-6.33,-3.65,-3.67,-3.69
282.17,2.20,5.88,2.21,5.89,-5.89,-5.99,-6.24,-3.69,-3.68,-3.68
284.99,2.17,5.86,2.19,5.88,-5.86,-5.97,-6.16,-3.70,-3.67,-3.69
287.84,2.17,5.85,2.17,5.86,-5.84,-5.95,-6.07,-3.67,-3.68,-3.68
290.72,2.18,5.88,2.13,5.83,-5.82,-5.92,-5.98,-3.64,-3.69,-3.70
293.63,2.07,5.77,2.09,5.78,-5.80,-5.90,-5.89,-3.73,-3.71,-3.70
296.57,2.02,5.71,2.04,5.74,-5.77,-5.88,-5.79,-3.75,-3.73,-3.70
299.53,2.02,5.71,2.02,5.71,-5.74,-5.85,-5.70,-3.72,-3.72,-3.69
302.53,2.03,5.72,2.03,5.72,-5.71,-5.82,-5.61,-3.68,-3.68,-3.69
305.55,2.04,5.73,2.02,5.71,-5.68,-5.80,-5.52,-3.65,-3.66,-3.70
308.61,1.99,5.68,1.99,5.68,-5.66,-5.77,-5.43,-3.67,-3.67,-3.69
311.69,1.94,5.63,1.94,5.63,-5.64,-5.74,-5.34,-3.70,-3.70,-3.69
314.81,1.88,5.57,1.89,5.58,-5.61,-5.71,-5.26,-3.74,-3.72,-3.70
317.96,1.86,5.56,1.87,5.57,-5.58,-5.68,-5.17,-3.73,-3.71,-3.70
321.14,1.86,5.56,1.86,5.56,-5.55,-5.64,-5.09,-3.69,-3.69,-3.70
324.35,1.86,5.56,1.83,5.53,-5.51,-5.61,-5.02,-3.65,-3.68,-3.70
327.59,1.78,5.48,1.78,5.49,-5.46,-5.58,-4.94,-3.69,-3.68,-3.70
330.87,1.72,5.42,1.73,5.44,-5.43,-5.54,-4.87,-3.71,-3.69,-3.70
334.18,1.67,5.38,1.67,5.38,-5.39,-5.51,-4.80,-3.72,-3.72,-3.71
337.52,1.65,5.35,1.63,5.33,-5.35,-5.47,-4.73,-3.71,-3.73,-3.70
340.90,1.58,5.28,1.59,5.29,-5.31,-5.43,-4.67,-3.73,-3.73,-3.70
344.30,1.55,5.24,1.56,5.25,-5.27,-5.39,-4.61,-3.72,-3.71,-3.69
347.75,1.55,5.24,1.55,5.24,-5.23,-5.36,-4.55,-3.68,-3.68,-3.69
351.23,1.55,5.24,1.54,5.23,-5.19,-5.32,-4.50,-3.64,-3.65,-3.69
354.74,1.54,5.21,1.50,5.18,-5.16,-5.28,-4.45,-3.62,-3.66,-3.67
358.28,1.43,5.10,1.44,5.12,-5.12,-5.24,-4.40,-3.70,-3.68,-3.68
361.87,1.37,5.04,1.40,5.06,-5.09,-5.20,-4.36,-3.72,-3.69,-3.67
365.49,1.37,5.03,1.37,5.03,-5.05,-5.15,-4.32,-3.68,-3.68,-3.66
369.14,1.38,5.03,1.36,5.02,-5.01,-5.11,-4.28,-3.63,-3.64,-3.65
372.83,1.35,4.99,1.34,4.99,-4.97,-5.07,-4.25,-3.62,-3.63,-3.64
376.56,1.30,4.95,1.29,4.94,-4.93,-5.02,-4.22,-3.64,-3.64,-3.65
380.33,1.23,4.87,1.25,4.89,-4.91,-4.98,-4.19,-3.68,-3.66,-3.65
384.13,1.21,4.86,1.22,4.86,-4.88,-4.94,-4.17,-3.67,-3.66,-3.65
387.97,1.21,4.85,1.20,4.84,-4.85,-4.89,-4.15,-3.64,-3.65,-3.64
391.85,1.20,4.84,1.18,4.82,-4.82,-4.85,-4.13,-3.63,-3.64,-3.64
395.77,1.14,4.79,1.15,4.80,-4.79,-4.80,-4.11,-3.65,-3.64,-3.65
399.73,1.11,4.77,1.12,4.78,-4.76,-4.75,-4.10,-3.65,-3.64,-3.66
403.72,1.10,4.75,1.08,4.74,-4.73,-4.71,-4.09,-3.63,-3.65,-3.65
407.76,1.04,4.70,1.03,4.70,-4.70,-4.66,-4.08,-3.66,-3.67,-3.66
411.84,0.97,4.64,0.98,4.66,-4.66,-4.61,-4.07,-3.69,-3.68,-3.68
415.96,0.92,4.60,0.93,4.61,-4.62,-4.57,-4.07,-3.70,-3.69,-3.68
420.12,0.91,4.60,0.88,4.57,-4.57,-4.52,-4.06,-3.66,-3.68,-3.69
424.32,0.84,4.52,0.86,4.54,-4.52,-4.47,-4.06,-3.68,-3.66,-3.68
428.56,0.82,4.48,0.83,4.49,-4.47,-4.42,-4.06,-3.65,-3.64,-3.66
432.85,0.83,4.47,0.78,4.42,-4.43,-4.37,-4.05,-3.60,-3.65,-3.64
437.18,0.72,4.34,0.74,4.36,-4.38,-4.32,-4.05,-3.66,-3.65,-3.62
441.55,0.69,4.28,0.72,4.31,-4.34,-4.27,-4.05,-3.65,-3.61,-3.59
445.96,0.73,4.28,0.74,4.29,-4.29,-4.22,-4.05,-3.56,-3.55,-3.55
450.42,0.81,4.31,0.77,4.28,-4.25,-4.18,-4.05,-3.44,-3.48,-3.50
454.93,0.82,4.27,0.78,4.24,-4.22,-4.13,-4.04,-3.40,-3.44,-3.45
459.48,0.73,4.13,0.77,4.17,-4.19,-4.08,-4.04,-3.46,-3.42,-3.40
464.07,0.77,4.10,0.78,4.12,-4.16,-4.03,-4.03,-3.39,-3.38,-3.34
468.71,0.82,4.09,0.82,4.10,-4.12,-3.98,-4.03,-3.30,-3.30,-3.28
473.40,0.89,4.12,0.88,4.11,-4.08,-3.93,-4.02,-3.19,-3.19,-3.23
478.13,0.93,4.10,0.92,4.09,-4.03,-3.88,-4.01,-3.10,-3.11,-3.17
482.91,0.91,4.03,0.90,4.01,-3.97,-3.83,-3.99,-3.06,-3.08,-3.12
487.74,0.86,3.93,0.84,3.91,-3.92,-3.78,-3.97,-3.06,-3.08,-3.07
492.62,0.76,3.79,0.80,3.83,-3.86,-3.73,-3.95,-3.11,-3.06,-3.03
497.55,0.77,3.77,0.78,3.78,-3.81,-3.68,-3.93,-3.04,-3.03,-3.00
502.52,0.81,3.78,0.77,3.74,-3.75,-3.62,-3.91,-2.94,-2.98,-2.97
