frequency,raw,error,smoothed,error_smoothed,equalization,parametric_eq,fixed_band_eq,equalized_raw,equalized_smoothed,target
20.00,12.69,7.22,12.69,7.22,-7.22,-7.37,-2.98,5.47,5.47,5.47
20.20,12.68,7.23,12.67,7.23,-7.23,-7.36,-3.07,5.44,5.44,5.45
20.40,12.66,7.24,12.66,7.24,-7.24,-7.35,-3.15,5.41,5.41,5.42
20.61,12.65,7.25,12.65,7.25,-7.26,-7.34,-3.24,5.39,5.39,5.40
20.81,12.64,7.26,12.64,7.27,-7.26,-7.33,-3.33,5.37,5.37,5.38
21.02,12.63,7.28,12.63,7.28,-7.27,-7.31,-3.43,5.35,5.35,5.35
21.23,12.62,7.29,12.61,7.28,-7.28,-7.30,-3.52,5.34,5.33,5.33
21.44,12.59,7.28,12.59,7.29,-7.28,-7.29,-3.62,5.31,5.31,5.30
21.66,12.57,7.28,12.56,7.28,-7.28,-7.27,-3.72,5.29,5.28,5.28
21.87,12.54,7.27,12.54,7.27,-7.28,-7.26,-3.83,5.26,5.26,5.26
22.09,12.52,7.27,12.51,7.27,-7.27,-7.24,-3.94,5.24,5.24,5.24
22.31,12.49,7.26,12.48,7.26,-7.27,-7.22,-4.05,5.22,5.22,5.22
22.54,12.46,7.26,12.46,7.26,-7.26,-7.21,-4.16,5.20,5.20,5.19
22.76,12.43,7.25,12.42,7.25,-7.25,-7.19,-4.28,5.18,5.17,5.17
22.99,12.40,7.24,12.39,7.24,-7.24,-7.17,-4.40,5.16,5.15,5.15
23.22,12.36,7.22,12.36,7.23,-7.23,-7.15,-4.52,5.13,5.13,5.13
23.45,12.34,7.21,12.33,7.21,-7.21,-7.13,-4.64,5.12,5.12,5.12
23.69,12.30,7.19,12.30,7.20,-7.20,-7.12,-4.77,5.10,5.10,5.10
23.92,12.27,7.17,12.27,7.18,-7.18,-7.10,-4.90,5.09,5.09,5.09
24.16,12.24,7.16,12.23,7.15,-7.15,-7.08,-5.03,5.08,5.08,5.07
24.40,12.19,7.12,12.19,7.13,-7.13,-7.06,-5.16,5.06,5.06,5.06
24.65,12.15,7.10,12.15,7.10,-7.10,-7.03,-5.30,5.04,5.05,5.05
24.89,12.10,7.08,12.11,7.07,-7.07,-7.01,-5.44,5.03,5.03,5.03
25.14,12.07,7.05,12.06,7.05,-7.04,-6.99,-5.58,5.02,5.02,5.02
25.39,12.02,7.02,12.02,7.01,-7.02,-6.97,-5.72,5.01,5.01,5.01
25.65,11.98,6.98,11.98,6.98,-6.99,-6.95,-5.86,4.99,4.99,5.00
25.91,11.94,6.95,11.94,6.95,-6.96,-6.92,-6.00,4.98,4.98,4.99
26.16,11.90,6.92,11.89,6.92,-6.92,-6.90,-6.14,4.97,4.97,4.98
26.43,11.86,6.90,11.85,6.89,-6.89,-6.88,-6.29,4.96,4.96,4.96
26.69,11.81,6.86,11.81,6.86,-6.86,-6.85,-6.43,4.95,4.95,4.95
26.96,11.77,6.83,11.76,6.83,-6.82,-6.83,-6.56,4.94,4.94,4.93
27.23,11.72,6.79,11.71,6.79,-6.78,-6.80,-6.70,4.93,4.93,4.92
27.50,11.66,6.74,11.66,6.74,-6.74,-6.78,-6.83,4.91,4.92,4.91
27.77,11.61,6.69,11.61,6.70,-6.70,-6.75,-6.96,4.90,4.91,4.91
28.05,11.57,6.66,11.56,6.66,-6.66,-6.72,-7.08,4.91,4.90,4.90
28.33,11.51,6.61,11.51,6.61,-6.61,-6.70,-7.20,4.89,4.89,4.89
28.62,11.46,6.57,11.46,6.57,-6.57,-6.67,-7.31,4.89,4.89,4.89
28.90,11.41,6.53,11.41,6.52,-6.53,-6.64,-7.42,4.88,4.88,4.88
29.19,11.36,6.48,11.36,6.48,-6.49,-6.62,-7.51,4.87,4.87,4.88
29.48,11.33,6.46,11.32,6.45,-6.45,-6.59,-7.60,4.88,4.87,4.87
29.78,11.28,6.41,11.28,6.41,-6.41,-6.56,-7.68,4.86,4.86,4.87
30.08,11.24,6.38,11.23,6.38,-6.38,-6.53,-7.74,4.86,4.86,4.86
30.38,11.19,6.33,11.19,6.34,-6.34,-6.50,-7.79,4.85,4.85,4.85
30.68,11.16,6.31,11.15,6.31,-6.31,-6.48,-7.84,4.85,4.84,4.84
30.99,11.12,6.28,11.11,6.28,-6.28,-6.45,-7.87,4.84,4.84,4.83
31.30,11.07,6.24,11.07,6.25,-6.24,-6.42,-7.88,4.82,4.83,4.83
31.61,11.04,6.22,11.03,6.21,-6.21,-6.39,-7.89,4.82,4.82,4.82
31.93,11.00,6.19,10.99,6.18,-6.18,-6.36,-7.88,4.81,4.81,4.81
32.24,10.96,6.15,10.96,6.16,-6.16,-6.33,-7.87,4.80,4.80,4.81
32.57,10.93,6.13,10.92,6.13,-6.13,-6.30,-7.84,4.80,4.79,4.80
32.89,10.89,6.10,10.89,6.10,-6.11,-6.27,-7.80,4.78,4.78,4.78
33.22,10.86,6.08,10.86,6.08,-6.08,-6.24,-7.74,4.77,4.77,4.77
33.55,10.83,6.06,10.82,6.06,-6.06,-6.21,-7.68,4.77,4.76,4.76
33.89,10.79,6.04,10.79,6.04,-6.04,-6.18,-7.62,4.75,4.75,4.75
34.23,10.76,6.02,10.76,6.01,-6.01,-6.15,-7.54,4.74,4.74,4.74
34.57,10.73,5.99,10.72,5.99,-5.99,-6.12,-7.46,4.74,4.73,4.74
34.92,10.69,5.96,10.69,5.97,-5.97,-6.09,-7.37,4.72,4.72,4.72
35.27,10.66,5.94,10.65,5.94,-5.94,-6.06,-7.27,4.71,4.71,4.71
35.62,10.63,5.92,10.62,5.92,-5.92,-6.03,-7.17,4.71,4.71,4.71
35.97,10.59,5.89,10.59,5.89,-5.89,-6.00,-7.07,4.69,4.70,4.70
36.33,10.57,5.87,10.56,5.86,-5.87,-5.96,-6.97,4.70,4.69,4.70
36.70,10.52,5.83,10.52,5.84,-5.84,-5.93,-6.86,4.68,4.68,4.68
37.06,10.50,5.82,10.49,5.82,-5.81,-5.90,-6.76,4.68,4.68,4.67
37.43,10.46,5.79,10.45,5.79,-5.79,-5.87,-6.65,4.67,4.67,4.67
37.81,10.42,5.76,10.42,5.76,-5.76,-5.84,-6.54,4.66,4.66,4.66
38.19,10.39,5.73,10.38,5.73,-5.73,-5.81,-6.44,4.66,4.65,4.65
38.57,10.35,5.70,10.35,5.70,-5.70,-5.78,-6.33,4.65,4.64,4.64
38.95,10.31,5.67,10.31,5.67,-5.67,-5.75,-6.23,4.63,4.63,4.64
39.34,10.27,5.64,10.27,5.64,-5.64,-5.72,-6.13,4.62,4.62,4.63
39.74,10.23,5.60,10.23,5.61,-5.61,-5.68,-6.03,4.61,4.62,4.62
40.14,10.20,5.59,10.19,5.58,-5.58,-5.65,-5.94,4.61,4.61,4.61
40.54,10.16,5.55,10.16,5.55,-5.56,-5.62,-5.85,4.60,4.60,4.61
40.94,10.13,5.53,10.12,5.53,-5.53,-5.59,-5.76,4.60,4.60,4.59
41.35,10.09,5.50,10.09,5.50,-5.50,-5.56,-5.67,4.59,4.59,4.59
41.76,10.06,5.48,10.05,5.48,-5.47,-5.53,-5.59,4.58,4.58,4.57
42.18,10.02,5.44,10.01,5.45,-5.45,-5.50,-5.51,4.57,4.57,4.57
42.60,9.98,5.42,9.98,5.42,-5.42,-5.47,-5.43,4.56,4.56,4.56
43.03,9.94,5.38,9.94,5.39,-5.39,-5.44,-5.36,4.54,4.55,4.55
43.46,9.91,5.37,9.91,5.36,-5.37,-5.41,-5.29,4.54,4.54,4.54
43.90,9.88,5.34,9.87,5.34,-5.34,-5.38,-5.23,4.54,4.53,4.53
44.33,9.85,5.32,9.84,5.32,-5.32,-5.35,-5.17,4.53,4.53,4.53
44.78,9.81,5.29,9.81,5.29,-5.29,-5.32,-5.11,4.52,4.52,4.51
45.23,9.78,5.27,9.78,5.27,-5.27,-5.29,-5.06,4.51,4.51,4.51
45.68,9.75,5.24,9.74,5.24,-5.24,-5.26,-5.01,4.50,4.50,4.50
46.13,9.72,5.22,9.72,5.22,-5.22,-5.23,-4.97,4.50,4.50,4.50
46.60,9.69,5.19,9.69,5.19,-5.19,-5.21,-4.93,4.49,4.49,4.49
47.06,9.66,5.17,9.66,5.17,-5.17,-5.18,-4.89,4.49,4.49,4.49
47.53,9.63,5.15,9.63,5.15,-5.15,-5.15,-4.86,4.48,4.48,4.48
48.01,9.60,5.12,9.60,5.12,-5.12,-5.12,-4.82,4.47,4.47,4.47
48.49,9.57,5.10,9.57,5.10,-5.10,-5.09,-4.80,4.47,4.47,4.47
48.97,9.54,5.07,9.53,5.07,-5.07,-5.07,-4.77,4.46,4.46,4.46
49.46,9.51,5.05,9.50,5.05,-5.05,-5.04,-4.75,4.46,4.45,4.45
49.96,9.47,5.02,9.47,5.03,-5.03,-5.01,-4.73,4.44,4.44,4.45
50.46,9.45,5.01,9.44,5.00,-5.01,-4.99,-4.72,4.44,4.44,4.44
50.96,9.42,4.99,9.41,4.98,-4.98,-4.96,-4.71,4.43,4.43,4.43
51.47,9.39,4.96,9.39,4.96,-4.96,-4.93,-4.69,4.42,4.42,4.42
51.99,9.36,4.94,9.36,4.95,-4.95,-4.91,-4.69,4.41,4.41,4.41
52.51,9.34,4.93,9.33,4.93,-4.93,-4.88,-4.68,4.41,4.40,4.41
53.03,9.31,4.91,9.31,4.91,-4.91,-4.86,-4.67,4.40,4.40,4.40
53.56,9.28,4.89,9.28,4.89,-4.89,-4.83,-4.67,4.38,4.39,4.39
54.10,9.26,4.88,9.25,4.87,-4.87,-4.81,-4.67,4.38,4.38,4.38
54.64,9.22,4.85,9.22,4.86,-4.85,-4.79,-4.67,4.36,4.37,4.37
55.18,9.20,4.84,9.19,4.84,-4.84,-4.76,-4.67,4.36,4.36,4.36
55.74,9.17,4.82,9.16,4.82,-4.82,-4.74,-4.67,4.35,4.34,4.35
56.29,9.13,4.79,9.13,4.80,-4.80,-4.72,-4.66,4.33,4.33,4.33
56.86,9.10,4.77,9.10,4.77,-4.77,-4.70,-4.66,4.32,4.32,4.32
57.42,9.07,4.75,9.06,4.75,-4.75,-4.67,-4.66,4.31,4.31,4.31
58.00,9.04,4.73,9.03,4.73,-4.73,-4.65,-4.66,4.31,4.31,4.31
58.58,9.00,4.70,9.00,4.71,-4.70,-4.63,-4.66,4.29,4.30,4.30
59.16,8.97,4.68,8.96,4.68,-4.68,-4.61,-4.65,4.29,4.28,4.28
59.76,8.93,4.66,8.93,4.65,-4.65,-4.59,-4.65,4.27,4.27,4.27
60.35,8.89,4.62,8.89,4.62,-4.63,-4.57,-4.64,4.26,4.26,4.26
60.96,8.85,4.60,8.85,4.60,-4.60,-4.55,-4.63,4.24,4.25,4.25
61.57,8.81,4.57,8.81,4.57,-4.57,-4.54,-4.62,4.23,4.23,4.24
62.18,8.78,4.56,8.77,4.55,-4.55,-4.52,-4.60,4.23,4.22,4.22
62.80,8.73,4.52,8.73,4.52,-4.52,-4.50,-4.59,4.21,4.21,4.20
63.43,8.69,4.49,8.68,4.49,-4.49,-4.48,-4.57,4.20,4.20,4.20
64.07,8.64,4.46,8.64,4.46,-4.46,-4.47,-4.55,4.18,4.18,4.18
64.71,8.60,4.43,8.59,4.43,-4.43,-4.45,-4.53,4.16,4.16,4.16
65.35,8.55,4.40,8.54,4.40,-4.40,-4.44,-4.50,4.14,4.14,4.14
66.01,8.50,4.37,8.50,4.37,-4.38,-4.42,-4.48,4.12,4.13,4.13
66.67,8.46,4.35,8.45,4.35,-4.35,-4.41,-4.45,4.11,4.11,4.11
67.33,8.42,4.33,8.41,4.32,-4.32,-4.39,-4.42,4.09,4.09,4.09
68.01,8.37,4.30,8.37,4.30,-4.30,-4.38,-4.39,4.07,4.07,4.07
68.69,8.33,4.28,8.32,4.28,-4.28,-4.37,-4.36,4.05,4.05,4.05
69.37,8.28,4.25,8.28,4.25,-4.25,-4.36,-4.33,4.02,4.02,4.03
70.07,8.24,4.23,8.24,4.23,-4.23,-4.34,-4.29,4.00,4.00,4.00
70.77,8.20,4.21,8.19,4.21,-4.21,-4.33,-4.26,3.98,3.98,3.98
71.48,8.16,4.20,8.15,4.19,-4.19,-4.32,-4.23,3.96,3.96,3.96
72.19,8.11,4.17,8.11,4.18,-4.17,-4.31,-4.19,3.93,3.94,3.93
72.91,8.07,4.16,8.06,4.16,-4.15,-4.30,-4.16,3.91,3.91,3.91
73.64,8.02,4.14,8.01,4.13,-4.14,-4.29,-4.13,3.88,3.88,3.88
74.38,7.97,4.12,7.97,4.12,-4.12,-4.29,-4.10,3.85,3.85,3.85
75.12,7.93,4.10,7.92,4.10,-4.11,-4.28,-4.07,3.82,3.82,3.82
75.87,7.89,4.10,7.88,4.09,-4.09,-4.27,-4.04,3.79,3.79,3.79
76.63,7.84,4.08,7.84,4.08,-4.08,-4.26,-4.02,3.75,3.76,3.76
77.40,7.80,4.07,7.80,4.07,-4.07,-4.26,-3.99,3.72,3.72,3.72
78.17,7.76,4.07,7.75,4.07,-4.07,-4.25,-3.97,3.69,3.69,3.68
78.95,7.72,4.07,7.71,4.07,-4.07,-4.25,-3.95,3.65,3.65,3.65
79.74,7.67,4.06,7.67,4.06,-4.06,-4.24,-3.93,3.60,3.60,3.61
80.54,7.63,4.06,7.63,4.06,-4.06,-4.24,-3.91,3.56,3.56,3.57
81.35,7.60,4.07,7.59,4.07,-4.07,-4.24,-3.90,3.53,3.52,3.53
82.16,7.56,4.07,7.56,4.07,-4.07,-4.23,-3.89,3.49,3.49,3.48
82.98,7.52,4.07,7.52,4.07,-4.07,-4.23,-3.88,3.44,3.44,3.44
83.81,7.48,4.08,7.47,4.08,-4.08,-4.23,-3.88,3.40,3.40,3.40
84.65,7.43,4.08,7.43,4.08,-4.08,-4.23,-3.87,3.34,3.35,3.35
85.50,7.40,4.09,7.39,4.08,-4.09,-4.23,-3.87,3.31,3.31,3.30
86.35,7.36,4.09,7.36,4.09,-4.09,-4.23,-3.88,3.27,3.27,3.27
87.22,7.32,4.09,7.32,4.09,-4.09,-4.23,-3.88,3.22,3.23,3.23
88.09,7.29,4.11,7.28,4.10,-4.10,-4.23,-3.89,3.19,3.18,3.18
88.97,7.24,4.10,7.24,4.10,-4.10,-4.23,-3.90,3.13,3.14,3.13
89.86,7.20,4.11,7.20,4.11,-4.11,-4.23,-3.92,3.09,3.09,3.09
90.76,7.17,4.11,7.16,4.11,-4.11,-4.23,-3.93,3.05,3.05,3.05
91.66,7.13,4.12,7.12,4.12,-4.12,-4.23,-3.95,3.01,3.01,3.01
92.58,7.09,4.12,7.09,4.12,-4.12,-4.24,-3.98,2.97,2.97,2.97
93.51,7.05,4.12,7.05,4.12,-4.12,-4.24,-4.00,2.92,2.92,2.92
94.44,7.02,4.13,7.01,4.13,-4.13,-4.24,-4.03,2.89,2.88,2.88
95.39,6.98,4.14,6.97,4.14,-4.13,-4.25,-4.06,2.84,2.84,2.84
96.34,6.94,4.14,6.94,4.14,-4.14,-4.25,-4.10,2.80,2.80,2.80
97.30,6.90,4.15,6.90,4.15,-4.15,-4.26,-4.13,2.75,2.75,2.75
98.28,6.87,4.15,6.86,4.15,-4.16,-4.26,-4.17,2.71,2.71,2.71
99.26,6.83,4.16,6.83,4.17,-4.17,-4.27,-4.21,2.66,2.66,2.66
100.25,6.80,4.18,6.79,4.18,-4.18,-4.28,-4.25,2.62,2.61,2.61
101.25,6.76,4.19,6.76,4.19,-4.19,-4.28,-4.30,2.56,2.56,2.56
102.27,6.73,4.21,6.72,4.21,-4.21,-4.29,-4.34,2.52,2.52,2.52
103.29,6.69,4.22,6.69,4.22,-4.22,-4.30,-4.39,2.46,2.47,2.47
104.32,6.66,4.24,6.66,4.24,-4.24,-4.30,-4.43,2.42,2.42,2.42
105.37,6.63,4.26,6.62,4.25,-4.25,-4.31,-4.48,2.37,2.37,2.37
106.42,6.59,4.27,6.59,4.27,-4.27,-4.32,-4.53,2.32,2.32,2.32
107.48,6.55,4.28,6.55,4.28,-4.28,-4.33,-4.58,2.26,2.27,2.27
108.56,6.52,4.30,6.52,4.30,-4.30,-4.33,-4.62,2.22,2.21,2.22
109.64,6.49,4.32,6.48,4.32,-4.32,-4.34,-4.67,2.17,2.17,2.17
110.74,6.46,4.34,6.46,4.34,-4.33,-4.35,-4.71,2.12,2.12,2.12
111.85,6.43,4.35,6.42,4.35,-4.35,-4.36,-4.76,2.07,2.07,2.07
112.97,6.40,4.37,6.39,4.37,-4.37,-4.37,-4.80,2.03,2.02,2.02
114.10,6.36,4.38,6.36,4.39,-4.39,-4.38,-4.83,1.97,1.98,1.97
115.24,6.34,4.41,6.33,4.41,-4.40,-4.38,-4.87,1.93,1.93,1.93
116.39,6.31,4.43,6.30,4.42,-4.42,-4.39,-4.90,1.88,1.88,1.88
117.55,6.27,4.44,6.27,4.44,-4.44,-4.40,-4.93,1.83,1.83,1.83
118.73,6.24,4.45,6.24,4.45,-4.45,-4.41,-4.95,1.78,1.78,1.78
119.92,6.21,4.46,6.21,4.46,-4.47,-4.42,-4.97,1.74,1.74,1.75
121.12,6.18,4.48,6.18,4.48,-4.48,-4.43,-4.98,1.70,1.70,1.70
122.33,6.16,4.49,6.15,4.49,-4.49,-4.44,-4.99,1.66,1.66,1.66
123.55,6.13,4.51,6.13,4.51,-4.50,-4.44,-5.00,1.62,1.62,1.62
124.79,6.10,4.51,6.10,4.52,-4.51,-4.45,-4.99,1.58,1.58,1.58
126.03,6.07,4.53,6.06,4.52,-4.53,-4.46,-4.99,1.54,1.54,1.54
127.29,6.04,4.53,6.04,4.53,-4.54,-4.47,-4.98,1.50,1.50,1.50
128.57,6.01,4.54,6.01,4.55,-4.55,-4.47,-4.96,1.46,1.46,1.47
129.85,5.99,4.56,5.98,4.55,-4.56,-4.48,-4.94,1.43,1.43,1.42
131.15,5.96,4.56,5.96,4.56,-4.56,-4.49,-4.91,1.39,1.39,1.39
132.46,5.93,4.57,5.93,4.57,-4.57,-4.49,-4.88,1.36,1.36,1.36
133.79,5.91,4.58,5.90,4.58,-4.57,-4.50,-4.84,1.33,1.33,1.33
135.12,5.88,4.58,5.87,4.57,-4.57,-4.50,-4.80,1.30,1.30,1.30
136.48,5.84,4.57,5.84,4.57,-4.57,-4.51,-4.75,1.26,1.27,1.26
137.84,5.81,4.56,5.81,4.57,-4.57,-4.51,-4.71,1.23,1.24,1.24
139.22,5.79,4.57,5.78,4.57,-4.57,-4.51,-4.66,1.22,1.21,1.21
140.61,5.76,4.57,5.76,4.56,-4.56,-4.52,-4.60,1.19,1.19,1.19
142.02,5.73,4.56,5.73,4.56,-4.56,-4.52,-4.55,1.17,1.17,1.17
143.44,5.70,4.55,5.70,4.55,-4.55,-4.52,-4.49,1.14,1.15,1.15
144.87,5.67,4.54,5.67,4.54,-4.54,-4.52,-4.44,1.12,1.12,1.12
146.32,5.65,4.54,5.64,4.54,-4.54,-4.52,-4.38,1.11,1.10,1.10
147.78,5.61,4.52,5.61,4.53,-4.53,-4.52,-4.32,1.08,1.08,1.09
149.26,5.59,4.52,5.58,4.51,-4.51,-4.52,-4.26,1.07,1.07,1.06
150.75,5.55,4.50,5.55,4.50,-4.50,-4.51,-4.20,1.04,1.05,1.05
152.26,5.53,4.49,5.52,4.49,-4.49,-4.51,-4.15,1.04,1.04,1.03
153.78,5.50,4.48,5.49,4.47,-4.47,-4.51,-4.09,1.02,1.02,1.02
155.32,5.47,4.46,5.47,4.46,-4.46,-4.50,-4.03,1.01,1.01,1.01
156.88,5.44,4.44,5.44,4.44,-4.44,-4.50,-3.98,0.99,0.99,0.99
158.44,5.41,4.42,5.41,4.43,-4.43,-4.49,-3.93,0.98,0.98,0.98
160.03,5.39,4.41,5.38,4.41,-4.41,-4.48,-3.88,0.97,0.97,0.97
161.63,5.36,4.40,5.36,4.40,-4.40,-4.47,-3.83,0.96,0.96,0.96
163.24,5.34,4.39,5.34,4.39,-4.39,-4.46,-3.78,0.95,0.95,0.95
164.88,5.32,4.38,5.32,4.38,-4.37,-4.45,-3.74,0.94,0.94,0.94
166.53,5.30,4.37,5.30,4.36,-4.36,-4.44,-3.70,0.93,0.93,0.93
168.19,5.28,4.35,5.27,4.35,-4.35,-4.42,-3.66,0.93,0.92,0.92
169.87,5.25,4.33,5.25,4.34,-4.34,-4.41,-3.62,0.91,0.91,0.91
171.57,5.23,4.33,5.22,4.32,-4.32,-4.39,-3.59,0.90,0.90,0.90
173.29,5.20,4.31,5.20,4.31,-4.31,-4.38,-3.56,0.89,0.89,0.89
175.02,5.18,4.29,5.17,4.29,-4.30,-4.36,-3.53,0.88,0.88,0.88
176.77,5.15,4.28,5.15,4.28,-4.28,-4.34,-3.51,0.87,0.87,0.87
178.54,5.13,4.26,5.12,4.27,-4.26,-4.32,-3.48,0.86,0.86,0.86
180.32,5.10,4.25,5.09,4.25,-4.25,-4.30,-3.46,0.85,0.84,0.85
182.13,5.06,4.22,5.06,4.23,-4.23,-4.27,-3.45,0.83,0.83,0.83
183.95,5.02,4.20,5.02,4.21,-4.21,-4.25,-3.43,0.81,0.82,0.82
185.79,5.00,4.19,4.99,4.18,-4.18,-4.22,-3.42,0.81,0.80,0.80
187.65,4.96,4.17,4.95,4.16,-4.16,-4.19,-3.41,0.79,0.79,0.79
189.52,4.91,4.13,4.92,4.14,-4.14,-4.17,-3.40,0.77,0.78,0.78
191.42,4.88,4.11,4.87,4.11,-4.11,-4.14,-3.40,0.77,0.76,0.76
193.33,4.84,4.08,4.83,4.08,-4.08,-4.11,-3.39,0.76,0.75,0.75
195.27,4.79,4.05,4.79,4.05,-4.05,-4.07,-3.39,0.74,0.74,0.74
197.22,4.74,4.02,4.74,4.02,-4.02,-4.04,-3.39,0.72,0.72,0.72
199.19,4.70,3.99,4.69,3.99,-3.99,-4.01,-3.40,0.71,0.71,0.71
201.18,4.65,3.96,4.64,3.95,-3.95,-3.97,-3.40,0.69,0.69,0.69
203.19,4.59,3.91,4.59,3.92,-3.92,-3.93,-3.41,0.67,0.67,0.68
205.23,4.54,3.88,4.54,3.88,-3.88,-3.89,-3.41,0.65,0.66,0.66
207.28,4.50,3.85,4.49,3.84,-3.85,-3.85,-3.42,0.65,0.64,0.65
209.35,4.44,3.81,4.44,3.81,-3.81,-3.81,-3.43,0.63,0.63,0.63
211.44,4.39,3.78,4.38,3.77,-3.77,-3.77,-3.44,0.62,0.62,0.61
213.56,4.33,3.72,4.32,3.73,-3.73,-3.73,-3.44,0.60,0.60,0.60
215.69,4.27,3.68,4.27,3.68,-3.68,-3.68,-3.45,0.58,0.58,0.58
217.85,4.21,3.63,4.21,3.64,-3.64,-3.64,-3.46,0.57,0.57,0.58
220.03,4.16,3.60,4.15,3.59,-3.59,-3.59,-3.46,0.56,0.56,0.56
222.23,4.10,3.55,4.10,3.54,-3.54,-3.54,-3.47,0.55,0.55,0.55
224.45,4.04,3.49,4.04,3.50,-3.49,-3.49,-3.47,0.54,0.55,0.54
226.70,3.98,3.44,3.98,3.44,-3.44,-3.44,-3.47,0.54,0.54,0.54
228.96,3.92,3.39,3.91,3.38,-3.38,-3.39,-3.47,0.53,0.53,0.53
231.25,3.85,3.32,3.85,3.32,-3.32,-3.33,-3.46,0.52,0.52,0.52
233.57,3.79,3.26,3.79,3.26,-3.27,-3.28,-3.45,0.52,0.52,0.53
235.90,3.73,3.20,3.72,3.20,-3.20,-3.22,-3.44,0.52,0.52,0.52
238.26,3.67,3.14,3.67,3.14,-3.14,-3.17,-3.42,0.52,0.52,0.52
240.64,3.61,3.08,3.61,3.08,-3.08,-3.11,-3.40,0.53,0.53,0.53
243.05,3.55,3.02,3.54,3.01,-3.01,-3.05,-3.37,0.53,0.53,0.52
245.48,3.48,2.95,3.48,2.95,-2.95,-2.99,-3.34,0.53,0.53,0.53
247.93,3.42,2.88,3.42,2.88,-2.88,-2.93,-3.30,0.53,0.53,0.53
250.41,3.36,2.82,3.35,2.82,-2.82,-2.86,-3.26,0.54,0.53,0.54
252.92,3.29,2.75,3.29,2.75,-2.75,-2.80,-3.21,0.54,0.54,0.53
255.45,3.22,2.68,3.22,2.68,-2.68,-2.73,-3.16,0.54,0.54,0.54
258.00,3.16,2.61,3.15,2.61,-2.61,-2.67,-3.10,0.54,0.54,0.55
260.58,3.09,2.54,3.09,2.54,-2.54,-2.60,-3.04,0.54,0.54,0.54
263.19,3.02,2.48,3.02,2.47,-2.47,-2.53,-2.97,0.54,0.54,0.54
265.82,2.95,2.40,2.95,2.41,-2.41,-2.46,-2.90,0.54,0.54,0.54
268.48,2.88,2.34,2.88,2.34,-2.34,-2.39,-2.82,0.54,0.54,0.54
271.16,2.81,2.27,2.80,2.26,-2.27,-2.31,-2.74,0.54,0.54,0.54
273.87,2.73,2.19,2.73,2.19,-2.19,-2.24,-2.66,0.53,0.54,0.53
276.61,2.66,2.12,2.66,2.12,-2.12,-2.16,-2.57,0.54,0.54,0.54
279.38,2.59,2.05,2.58,2.05,-2.04,-2.09,-2.48,0.54,0.54,0.54
282.17,2.51,1.97,2.50,1.97,-1.97,-2.01,-2.38,0.54,0.54,0.53
284.99,2.43,1.88,2.42,1.89,-1.89,-1.93,-2.28,0.54,0.54,0.54
287.84,2.34,1.80,2.34,1.80,-1.80,-1.85,-2.18,0.53,0.54,0.54
290.72,2.27,1.72,2.26,1.72,-1.72,-1.77,-2.08,0.55,0.54,0.55
293.63,2.18,1.63,2.18,1.63,-1.63,-1.69,-1.97,0.54,0.55,0.54
296.57,2.10,1.55,2.09,1.55,-1.54,-1.60,-1.86,0.55,0.55,0.55
299.53,2.01,1.46,2.00,1.45,-1.45,-1.52,-1.75,0.55,0.55,0.55
302.53,1.92,1.36,1.92,1.36,-1.36,-1.43,-1.64,0.56,0.56,0.56
305.55,1.83,1.26,1.83,1.27,-1.26,-1.34,-1.53,0.56,0.56,0.56
308.61,1.75,1.17,1.74,1.17,-1.17,-1.25,-1.42,0.58,0.57,0.57
311.69,1.66,1.08,1.65,1.07,-1.07,-1.16,-1.30,0.58,0.58,0.58
314.81,1.57,0.98,1.57,0.98,-0.98,-1.06,-1.19,0.59,0.59,0.59
317.96,1.48,0.88,1.48,0.88,-0.88,-0.97,-1.07,0.59,0.60,0.60
321.14,1.40,0.79,1.39,0.79,-0.79,-0.87,-0.96,0.61,0.60,0.60
324.35,1.31,0.69,1.31,0.70,-0.70,-0.78,-0.84,0.60,0.61,0.61
327.59,1.24,0.62,1.23,0.62,-0.62,-0.68,-0.72,0.61,0.61,0.62
330.87,1.17,0.55,1.16,0.54,-0.55,-0.58,-0.61,0.62,0.61,0.62
334.18,1.10,0.47,1.10,0.48,-0.49,-0.47,-0.49,0.61,0.61,0.63
337.52,1.05,0.42,1.04,0.42,-0.43,-0.37,-0.37,0.61,0.61,0.63
340.90,1.00,0.36,0.99,0.36,-0.38,-0.26,-0.26,0.62,0.61,0.63
344.30,0.95,0.31,0.95,0.31,-0.33,-0.16,-0.14,0.62,0.62,0.63
347.75,0.90,0.26,0.91,0.27,-0.27,-0.05,-0.02,0.63,0.64,0.63
351.23,0.86,0.23,0.85,0.22,-0.20,0.06,0.10,0.66,0.65,0.63
354.74,0.80,0.17,0.78,0.15,-0.12,0.17,0.22,0.68,0.66,0.63
358.28,0.67,0.05,0.67,0.05,-0.02,0.29,0.34,0.64,0.65,0.62
361.87,0.54,-0.08,0.54,-0.08,0.09,0.40,0.46,0.62,0.63,0.62
365.49,0.40,-0.22,0.39,-0.22,0.22,0.52,0.57,0.61,0.61,0.62
369.14,0.25,-0.37,0.25,-0.37,0.36,0.64,0.69,0.61,0.61,0.61
372.83,0.10,-0.52,0.09,-0.52,0.52,0.76,0.81,0.61,0.61,0.61
376.56,-0.06,-0.69,-0.07,-0.69,0.69,0.88,0.93,0.62,0.62,0.62
380.33,-0.24,-0.87,-0.24,-0.86,0.86,1.00,1.05,0.62,0.62,0.62
384.13,-0.41,-1.04,-0.42,-1.04,1.04,1.12,1.17,0.63,0.63,0.62
387.97,-0.59,-1.22,-0.60,-1.22,1.22,1.24,1.29,0.63,0.63,0.63
391.85,-0.77,-1.40,-0.77,-1.41,1.41,1.36,1.41,0.63,0.63,0.63
395.77,-0.95,-1.59,-0.95,-1.59,1.59,1.49,1.53,0.63,0.64,0.64
399.73,-1.12,-1.77,-1.13,-1.77,1.77,1.61,1.65,0.64,0.64,0.65
403.72,-1.29,-1.94,-1.30,-1.95,1.94,1.73,1.76,0.65,0.65,0.65
407.76,-1.46,-2.12,-1.46,-2.12,2.11,1.86,1.88,0.65,0.65,0.66
411.84,-1.61,-2.28,-1.61,-2.28,2.28,1.98,2.00,0.66,0.66,0.67
415.96,-1.75,-2.43,-1.76,-2.43,2.43,2.10,2.11,0.68,0.67,0.68
420.12,-1.89,-2.57,-1.89,-2.57,2.58,2.22,2.22,0.69,0.69,0.67
424.32,-2.02,-2.71,-2.03,-2.71,2.72,2.33,2.33,0.69,0.69,0.68
428.56,-2.14,-2.84,-2.15,-2.84,2.84,2.45,2.44,0.70,0.69,0.69
432.85,-2.25,-2.96,-2.25,-2.95,2.95,2.56,2.55,0.69,0.70,0.70
437.18,-2.33,-3.05,-2.34,-3.05,3.04,2.67,2.65,0.70,0.70,0.71
441.55,-2.40,-3.13,-2.41,-3.13,3.11,2.77,2.75,0.70,0.70,0.72
445.96,-2.46,-3.20,-2.45,-3.18,3.16,2.87,2.85,0.70,0.71,0.73
450.42,-2.46,-3.21,-2.47,-3.21,3.20,2.97,2.94,0.74,0.73,0.74
454.93,-2.47,-3.22,-2.47,-3.22,3.23,3.06,3.03,0.75,0.75,0.75
459.48,-2.46,-3.22,-2.47,-3.23,3.24,3.14,3.11,0.78,0.77,0.76
464.07,-2.46,-3.23,-2.47,-3.24,3.25,3.22,3.18,0.79,0.79,0.77
468.71,-2.46,-3.24,-2.46,-3.24,3.26,3.29,3.25,0.79,0.80,0.78
473.40,-2.46,-3.25,-2.47,-3.26,3.27,3.35,3.32,0.80,0.80,0.79
478.13,-2.46,-3.26,-2.47,-3.27,3.27,3.40,3.38,0.81,0.81,0.80
482.91,-2.47,-3.29,-2.47,-3.28,3.28,3.45,3.43,0.81,0.81,0.82
487.74,-2.46,-3.29,-2.46,-3.29,3.29,3.49,3.47,0.83,0.83,0.83
492.62,-2.45,-3.30,-2.46,-3.30,3.30,3.52,3.50,0.85,0.84,0.85
497.55,-2.44,-3.30,-2.45,-3.31,3.30,3.55,3.53,0.86,0.86,0.86
502.52,-2.43,-3.31,-2.43,-3.31,3.30,3.56,3.55,0.87,0.87,0.88
507.55,-2.40,-3.30,-2.40,-3.30,3.30,3.57,3.57,0.89,0.89,0.90
512.62,-2.37,-3.29,-2.37,-3.29,3.28,3.57,3.57,0.91,0.91,0.92
517.75,-2.33,-3.26,-2.34,-3.27,3.27,3.56,3.57,0.93,0.93,0.93
522.93,-2.30,-3.25,-2.30,-3.25,3.25,3.55,3.56,0.95,0.95,0.95
528.16,-2.26,-3.23,-2.26,-3.23,3.23,3.53,3.55,0.96,0.96,0.97
