frequency,raw
20.00,-15.85
20.20,-15.70
20.40,-15.56
20.61,-15.41
20.81,-15.27
21.02,-15.13
21.23,-14.99
21.44,-14.84
21.66,-14.70
21.87,-14.57
22.09,-14.43
22.31,-14.30
22.54,-14.16
22.76,-14.03
22.99,-13.90
23.22,-13.76
23.45,-13.63
23.69,-13.50
23.92,-13.38
24.16,-13.25
24.40,-13.13
24.65,-13.00
24.89,-12.88
25.14,-12.75
25.39,-12.62
25.65,-12.50
25.91,-12.37
26.16,-12.25
26.43,-12.14
26.69,-12.01
26.96,-11.89
27.23,-11.76
27.50,-11.65
27.77,-11.53
28.05,-11.41
28.33,-11.30
28.62,-11.19
28.90,-11.07
29.19,-10.96
29.48,-10.85
29.78,-10.74
30.08,-10.64
30.38,-10.54
30.68,-10.45
30.99,-10.35
31.30,-10.26
31.61,-10.16
31.93,-10.06
32.24,-9.97
32.57,-9.87
32.89,-9.78
33.22,-9.69
33.55,-9.58
33.89,-9.49
34.23,-9.40
34.57,-9.31
34.92,-9.23
35.27,-9.15
35.62,-9.05
35.97,-8.97
36.33,-8.89
36.70,-8.81
37.06,-8.73
37.43,-8.64
37.81,-8.57
38.19,-8.49
38.57,-8.41
38.95,-8.34
39.34,-8.26
39.74,-8.19
40.14,-8.11
40.54,-8.03
40.94,-7.96
41.35,-7.89
41.76,-7.82
42.18,-7.75
42.60,-7.68
43.03,-7.62
43.46,-7.55
43.90,-7.48
44.33,-7.41
44.78,-7.35
45.23,-7.29
45.68,-7.22
46.13,-7.16
46.60,-7.10
47.06,-7.03
47.53,-6.96
48.01,-6.90
48.49,-6.84
48.97,-6.78
49.46,-6.72
49.96,-6.67
50.46,-6.61
50.96,-6.55
51.47,-6.50
51.99,-6.44
52.51,-6.38
53.03,-6.33
53.56,-6.27
54.10,-6.23
54.64,-6.18
55.18,-6.13
55.74,-6.07
56.29,-6.03
56.86,-5.98
57.42,-5.93
58.00,-5.89
58.58,-5.85
59.16,-5.81
59.76,-5.77
60.35,-5.72
60.96,-5.67
61.57,-5.62
62.18,-5.58
62.80,-5.53
63.43,-5.48
64.07,-5.44
64.71,-5.40
65.35,-5.37
66.01,-5.33
66.67,-5.28
67.33,-5.23
68.01,-5.19
68.69,-5.15
69.37,-5.11
70.07,-5.07
70.77,-5.02
71.48,-5.00
72.19,-4.97
72.91,-4.93
73.64,-4.90
74.38,-4.87
75.12,-4.82
75.87,-4.79
76.63,-4.75
77.40,-4.71
78.17,-4.69
78.95,-4.66
79.74,-4.63
80.54,-4.61
81.35,-4.57
82.16,-4.53
82.98,-4.50
83.81,-4.48
84.65,-4.45
85.50,-4.42
86.35,-4.37
87.22,-4.33
88.09,-4.30
88.97,-4.28
89.86,-4.26
90.76,-4.24
91.66,-4.21
92.58,-4.18
93.51,-4.13
94.44,-4.09
95.39,-4.05
96.34,-4.01
97.30,-3.99
98.28,-3.96
99.26,-3.94
100.25,-3.92
101.25,-3.89
102.27,-3.87
103.29,-3.86
104.32,-3.85
105.37,-3.82
106.42,-3.78
107.48,-3.76
108.56,-3.74
109.64,-3.71
110.74,-3.69
111.85,-3.65
112.97,-3.62
114.10,-3.59
115.24,-3.57
116.39,-3.56
117.55,-3.56
118.73,-3.54
119.92,-3.51
121.12,-3.49
122.33,-3.49
123.55,-3.47
124.79,-3.45
126.03,-3.41
127.29,-3.40
128.57,-3.37
129.85,-3.32
131.15,-3.29
132.46,-3.29
133.79,-3.26
135.12,-3.25
136.48,-3.24
137.84,-3.23
139.22,-3.22
140.61,-3.21
142.02,-3.19
143.44,-3.18
144.87,-3.14
146.32,-3.12
147.78,-3.09
149.26,-3.05
150.75,-3.03
152.26,-3.00
153.78,-2.97
155.32,-2.96
156.88,-2.94
158.44,-2.93
160.03,-2.94
161.63,-2.96
163.24,-2.98
164.88,-2.99
166.53,-2.98
168.19,-2.97
169.87,-2.95
171.57,-2.93
173.29,-2.90
175.02,-2.86
176.77,-2.83
178.54,-2.81
180.32,-2.77
182.13,-2.74
183.95,-2.70
185.79,-2.68
187.65,-2.66
189.52,-2.65
191.42,-2.65
193.33,-2.66
195.27,-2.67
197.22,-2.67
199.19,-2.66
201.18,-2.66
203.19,-2.63
205.23,-2.61
207.28,-2.58
209.35,-2.54
211.44,-2.52
213.56,-2.48
215.69,-2.45
217.85,-2.43
220.03,-2.43
222.23,-2.41
224.45,-2.39
226.70,-2.35
228.96,-2.34
231.25,-2.32
233.57,-2.30
235.90,-2.28
238.26,-2.26
240.64,-2.24
243.05,-2.21
245.48,-2.19
247.93,-2.15
250.41,-2.14
252.92,-2.12
255.45,-2.12
258.00,-2.11
260.58,-2.12
263.19,-2.13
265.82,-2.14
268.48,-2.15
271.16,-2.15
273.87,-2.15
276.61,-2.16
279.38,-2.16
282.17,-2.17
284.99,-2.17
287.84,-2.18
290.72,-2.19
293.63,-2.19
296.57,-2.19
299.53,-2.19
302.53,-2.17
305.55,-2.15
308.61,-2.15
311.69,-2.13
314.81,-2.12
317.96,-2.08
321.14,-2.04
324.35,-1.99
327.59,-1.94
330.87,-1.91
334.18,-1.87
337.52,-1.80
340.90,-1.75
344.30,-1.68
347.75,-1.64
351.23,-1.59
354.74,-1.56
358.28,-1.50
361.87,-1.44
365.49,-1.37
369.14,-1.31
372.83,-1.27
376.56,-1.24
380.33,-1.20
384.13,-1.15
387.97,-1.10
391.85,-1.05
395.77,-1.01
399.73,-0.98
403.72,-0.94
407.76,-0.91
411.84,-0.86
415.96,-0.82
420.12,-0.77
424.32,-0.73
428.56,-0.69
432.85,-0.64
437.18,-0.60
441.55,-0.56
445.96,-0.52
450.42,-0.48
454.93,-0.45
459.48,-0.41
464.07,-0.37
468.71,-0.32
473.40,-0.28
478.13,-0.25
482.91,-0.22
487.74,-0.21
492.62,-0.17
497.55,-0.14
502.52,-0.10
507.55,-0.05
512.62,0.00
517.75,0.03
522.93,0.07
528.16,0.10
533.44,0.12
538.77,0.13
544.16,0.16
549.60,0.20
555.10,0.24
560.65,0.28
566.25,0.32
571.92,0.34
577.64,0.37
583.41,0.40
589.25,0.42
595.14,0.45
601.09,0.49
607.10,0.51
613.17,0.52
619.30,0.54
625.50,0.56
631.75,0.56
638.07,0.55
644.45,0.54
650.89,0.53
657.40,0.53
663.98,0.53
670.62,0.54
677.32,0.54
684.10,0.54
690.94,0.52
697.85,0.51
704.83,0.48
711.87,0.46
718.99,0.44
726.18,0.42
733.44,0.37
740.78,0.33
748.19,0.28
755.67,0.24
763.23,0.17
770.86,0.12
778.57,0.06
786.35,-0.01
794.22,-0.06
802.16,-0.13
810.18,-0.19
818.28,-0.26
826.46,-0.32
834.73,-0.39
843.08,-0.46
851.51,-0.54
860.02,-0.60
868.62,-0.66
877.31,-0.74
886.08,-0.83
894.94,-0.91
903.89,-0.99
912.93,-1.08
922.06,-1.17
931.28,-1.27
940.59,-1.34
950.00,-1.44
959.50,-1.55
969.09,-1.65
978.78,-1.74
988.57,-1.83
998.46,-1.91
1008.44,-2.01
1018.53,-2.09
1028.71,-2.17
1039.00,-2.24
1049.39,-2.31
1059.88,-2.40
1070.48,-2.48
1081.19,-2.57
1092.00,-2.66
1102.92,-2.74
1113.95,-2.81
1125.09,-2.86
1136.34,-2.93
1147.70,-3.00
1159.18,-3.07
1170.77,-3.14
1182.48,-3.21
1194.30,-3.30
1206.25,-3.41
1218.31,-3.50
1230.49,-3.58
1242.80,-3.67
1255.22,-3.78
1267.78,-3.89
1280.45,-4.02
1293.26,-4.14
1306.19,-4.26
1319.25,-4.37
1332.45,-4.50
1345.77,-4.60
1359.23,-4.70
1372.82,-4.80
1386.55,-4.88
1400.41,-4.96
1414.42,-5.04
1428.56,-5.13
1442.85,-5.22
1457.28,-5.30
1471.85,-5.35
1486.57,-5.39
1501.43,-5.41
1516.45,-5.44
1531.61,-5.43
1546.93,-5.39
1562.40,-5.36
1578.02,-5.30
1593.80,-5.23
1609.74,-5.16
1625.84,-5.08
1642.10,-4.97
1658.52,-4.88
1675.10,-4.79
1691.85,-4.69
1708.77,-4.59
1725.86,-4.47
1743.12,-4.37
1760.55,-4.27
1778.15,-4.15
1795.94,-4.04
1813.90,-3.92
1832.03,-3.80
1850.36,-3.67
1868.86,-3.54
1887.55,-3.41
1906.42,-3.28
1925.49,-3.13
1944.74,-2.98
1964.19,-2.83
1983.83,-2.67
2003.67,-2.50
2023.71,-2.32
2043.94,-2.13
2064.38,-1.92
2085.03,-1.72
2105.88,-1.51
2126.94,-1.29
2148.20,-1.07
2169.69,-0.83
2191.38,-0.57
2213.30,-0.30
2235.43,-0.02
2257.78,0.28
2280.36,0.60
2303.17,0.94
2326.20,1.31
2349.46,1.69
2372.95,2.11
2396.68,2.56
2420.65,3.03
2444.86,3.54
2469.31,4.06
2494.00,4.59
2518.94,5.14
2544.13,5.69
2569.57,6.23
2595.27,6.74
2621.22,7.26
2647.43,7.77
2673.90,8.24
2700.64,8.71
2727.65,9.16
2754.93,9.58
2782.48,9.98
2810.30,10.33
2838.40,10.68
2866.79,10.99
2895.46,11.28
2924.41,11.54
2953.65,11.80
2983.19,12.01
3013.02,12.20
3043.15,12.35
3073.58,12.47
3104.32,12.56
3135.36,12.61
3166.72,12.62
3198.38,12.62
3230.37,12.57
3262.67,12.51
3295.30,12.42
3328.25,12.30
3361.53,12.16
3395.15,12.00
3429.10,11.81
3463.39,11.61
3498.03,11.36
3533.01,11.12
3568.34,10.83
3604.02,10.54
3640.06,10.22
3676.46,9.89
3713.22,9.53
3750.36,9.18
3787.86,8.81
3825.74,8.44
3864.00,8.08
3902.64,7.69
3941.66,7.33
3981.08,6.97
4020.89,6.65
4061.10,6.33
4101.71,6.03
4142.73,5.76
4184.15,5.48
4226.00,5.23
4268.26,5.00
4310.94,4.79
4354.05,4.59
4397.59,4.41
4441.56,4.28
4485.98,4.17
4530.84,4.08
4576.15,4.03
4621.91,3.99
4668.13,4.00
4714.81,4.02
4761.96,4.08
4809.58,4.20
4857.67,4.34
4906.25,4.53
4955.31,4.76
5004.87,5.01
5054.91,5.31
5105.46,5.63
5156.52,6.00
5208.08,6.37
5260.16,6.77
5312.77,7.17
5365.89,7.58
5419.55,7.98
5473.75,8.36
5528.49,8.70
5583.77,9.02
5639.61,9.30
5696.00,9.56
5752.96,9.80
5810.49,10.02
5868.60,10.22
5927.28,10.40
5986.56,10.55
6046.42,10.69
6106.89,10.82
6167.96,10.94
6229.64,11.03
6291.93,11.09
6354.85,11.11
6418.40,11.11
6482.58,11.06
6547.41,10.93
6612.88,10.76
6679.01,10.51
6745.80,10.20
6813.26,9.83
6881.39,9.43
6950.21,9.00
7019.71,8.55
7089.91,8.12
7160.81,7.69
7232.41,7.27
7304.74,6.87
7377.79,6.49
7451.56,6.14
7526.08,5.82
7601.34,5.52
7677.35,5.22
7754.13,4.92
7831.67,4.60
7909.98,4.24
7989.08,3.83
8068.98,3.37
8149.67,2.85
8231.16,2.27
8313.47,1.63
8396.61,0.95
8480.57,0.20
8565.38,-0.55
8651.03,-1.31
8737.54,-2.07
8824.92,-2.76
8913.17,-3.38
9002.30,-3.92
9092.32,-4.34
9183.25,-4.65
9275.08,-4.83
9367.83,-4.91
9461.51,-4.93
9556.12,-4.89
9651.68,-4.81
9748.20,-4.68
9845.68,-4.56
9944.14,-4.46
10043.58,-4.38
10144.02,-4.37
10245.46,-4.40
10347.91,-4.49
10451.39,-4.64
10555.91,-4.81
10661.46,-5.02
10768.08,-5.21
10875.76,-5.40
10984.52,-5.58
11094.36,-5.76
11205.31,-5.92
11317.36,-6.09
11430.53,-6.28
11544.84,-6.55
11660.29,-6.91
11776.89,-7.42
11894.66,-8.04
12013.60,-8.84
12133.74,-9.76
12255.08,-10.79
12377.63,-11.92
12501.41,-13.11
12626.42,-14.34
12752.68,-15.58
12880.21,-16.79
13009.01,-17.94
13139.10,-19.01
13270.49,-19.97
13403.20,-20.80
13537.23,-21.49
13672.60,-22.04
13809.33,-22.46
13947.42,-22.80
14086.90,-23.05
14227.77,-23.26
14370.04,-23.41
14513.74,-23.54
14658.88,-23.64
14805.47,-23.70
14953.52,-23.74
15103.06,-23.78
15254.09,-23.81
15406.63,-23.81
15560.70,-23.76
15716.30,-23.63
15873.47,-23.40
16032.20,-23.06
16192.52,-22.61
16354.45,-22.08
16517.99,-21.43
16683.17,-20.70
16850.01,-19.88
17018.51,-19.01
17188.69,-18.07
17360.58,-17.12
17534.18,-16.18
17709.53,-15.32
17886.62,-14.54
18065.49,-13.95
18246.14,-13.41
18428.60,-12.94
18612.89,-12.52
18799.02,-12.17
18987.01,-11.89
19176.88,-11.68
19368.65,-11.53
19562.33,-11.44
19757.96,-11.43
19955.54,-11.48
