frequency,raw,error,smoothed,error_smoothed,equalization,parametric_eq,fixed_band_eq,equalized_raw,equalized_smoothed,target
20.00,3.70,0.06,3.70,0.06,-0.06,-0.63,-0.58,3.64,3.64,3.64
20.20,3.74,0.06,3.74,0.06,-0.05,-0.64,-0.60,3.68,3.68,3.68
20.40,3.78,0.06,3.78,0.06,-0.06,-0.65,-0.62,3.72,3.72,3.72
20.61,3.82,0.08,3.82,0.07,-0.06,-0.67,-0.63,3.75,3.75,3.74
20.81,3.86,0.08,3.86,0.07,-0.08,-0.68,-0.65,3.78,3.78,3.78
21.02,3.90,0.08,3.90,0.09,-0.09,-0.69,-0.67,3.80,3.81,3.82
21.23,3.94,0.11,3.94,0.10,-0.11,-0.70,-0.69,3.82,3.83,3.83
21.44,3.99,0.14,3.98,0.13,-0.14,-0.72,-0.71,3.85,3.85,3.85
21.66,4.03,0.17,4.03,0.17,-0.17,-0.73,-0.73,3.86,3.86,3.86
21.87,4.07,0.21,4.07,0.20,-0.20,-0.74,-0.75,3.87,3.87,3.86
22.09,4.11,0.24,4.11,0.24,-0.24,-0.76,-0.77,3.87,3.87,3.87
22.31,4.15,0.28,4.15,0.28,-0.28,-0.77,-0.79,3.86,3.86,3.87
22.54,4.19,0.32,4.19,0.32,-0.33,-0.79,-0.81,3.86,3.86,3.87
22.76,4.24,0.38,4.23,0.37,-0.38,-0.80,-0.84,3.86,3.86,3.86
22.99,4.28,0.43,4.28,0.43,-0.42,-0.81,-0.86,3.85,3.85,3.85
23.22,4.32,0.47,4.32,0.48,-0.47,-0.83,-0.88,3.85,3.85,3.85
23.45,4.37,0.53,4.36,0.53,-0.52,-0.85,-0.91,3.85,3.84,3.84
23.69,4.41,0.57,4.41,0.57,-0.57,-0.86,-0.93,3.84,3.84,3.84
23.92,4.46,0.62,4.45,0.61,-0.62,-0.88,-0.96,3.84,3.84,3.84
24.16,4.50,0.65,4.50,0.66,-0.67,-0.89,-0.98,3.83,3.83,3.85
24.40,4.55,0.70,4.55,0.71,-0.71,-0.91,-1.01,3.83,3.84,3.85
24.65,4.60,0.76,4.60,0.76,-0.76,-0.92,-1.04,3.84,3.84,3.83
24.89,4.65,0.81,4.64,0.81,-0.80,-0.94,-1.06,3.85,3.85,3.83
25.14,4.68,0.84,4.68,0.85,-0.84,-0.96,-1.09,3.84,3.84,3.83
25.39,4.71,0.87,4.71,0.88,-0.87,-0.98,-1.12,3.84,3.84,3.83
25.65,4.73,0.90,4.73,0.91,-0.90,-0.99,-1.15,3.83,3.83,3.82
25.91,4.75,0.93,4.75,0.93,-0.93,-1.01,-1.18,3.81,3.82,3.81
26.16,4.78,0.97,4.77,0.96,-0.96,-1.03,-1.20,3.81,3.81,3.81
26.43,4.80,0.99,4.80,0.99,-1.00,-1.05,-1.23,3.80,3.80,3.81
26.69,4.83,1.02,4.82,1.02,-1.04,-1.07,-1.26,3.79,3.79,3.81
26.96,4.86,1.06,4.86,1.05,-1.08,-1.09,-1.29,3.78,3.78,3.80
27.23,4.90,1.10,4.90,1.10,-1.12,-1.10,-1.32,3.78,3.79,3.80
27.50,4.96,1.16,4.96,1.16,-1.15,-1.12,-1.35,3.80,3.80,3.80
27.77,5.01,1.22,5.00,1.21,-1.19,-1.14,-1.38,3.82,3.82,3.79
28.05,5.05,1.26,5.04,1.25,-1.22,-1.16,-1.40,3.83,3.82,3.79
28.33,5.05,1.27,5.05,1.27,-1.25,-1.18,-1.43,3.80,3.80,3.78
28.62,5.05,1.27,5.05,1.27,-1.28,-1.20,-1.46,3.77,3.77,3.78
28.90,5.05,1.27,5.05,1.28,-1.31,-1.23,-1.48,3.74,3.74,3.77
29.19,5.08,1.30,5.08,1.31,-1.34,-1.25,-1.51,3.74,3.75,3.77
29.48,5.13,1.34,5.13,1.35,-1.36,-1.27,-1.53,3.77,3.77,3.78
29.78,5.18,1.40,5.17,1.40,-1.39,-1.29,-1.56,3.79,3.79,3.77
30.08,5.22,1.44,5.21,1.44,-1.41,-1.31,-1.58,3.80,3.79,3.78
30.38,5.23,1.47,5.23,1.46,-1.44,-1.34,-1.60,3.78,3.78,3.76
30.68,5.24,1.48,5.24,1.48,-1.48,-1.36,-1.62,3.76,3.76,3.76
30.99,5.25,1.50,5.25,1.50,-1.51,-1.38,-1.64,3.74,3.74,3.75
31.30,5.28,1.53,5.28,1.53,-1.54,-1.40,-1.66,3.74,3.73,3.75
31.61,5.31,1.56,5.30,1.56,-1.57,-1.43,-1.68,3.73,3.73,3.74
31.93,5.33,1.60,5.33,1.60,-1.61,-1.45,-1.69,3.72,3.72,3.72
32.24,5.36,1.65,5.36,1.64,-1.65,-1.48,-1.71,3.71,3.71,3.71
32.57,5.40,1.69,5.39,1.69,-1.69,-1.50,-1.72,3.71,3.70,3.71
32.89,5.43,1.73,5.43,1.73,-1.73,-1.53,-1.74,3.69,3.69,3.70
33.22,5.46,1.78,5.46,1.78,-1.77,-1.55,-1.75,3.68,3.69,3.68
33.55,5.50,1.82,5.50,1.82,-1.81,-1.58,-1.76,3.69,3.69,3.68
33.89,5.53,1.87,5.52,1.86,-1.84,-1.60,-1.77,3.68,3.68,3.65
34.23,5.54,1.88,5.53,1.89,-1.87,-1.63,-1.78,3.66,3.66,3.65
34.57,5.54,1.91,5.54,1.90,-1.91,-1.66,-1.80,3.63,3.63,3.63
34.92,5.54,1.92,5.54,1.92,-1.94,-1.68,-1.81,3.60,3.61,3.62
35.27,5.56,1.94,5.56,1.95,-1.97,-1.71,-1.82,3.59,3.59,3.62
35.62,5.60,2.00,5.59,1.99,-2.01,-1.74,-1.83,3.59,3.58,3.60
35.97,5.63,2.04,5.63,2.04,-2.04,-1.77,-1.84,3.58,3.58,3.58
36.33,5.66,2.08,5.66,2.09,-2.08,-1.79,-1.85,3.57,3.58,3.58
36.70,5.70,2.13,5.70,2.13,-2.12,-1.82,-1.86,3.57,3.58,3.57
37.06,5.74,2.18,5.73,2.17,-2.16,-1.85,-1.87,3.58,3.57,3.56
37.43,5.77,2.20,5.77,2.21,-2.19,-1.88,-1.89,3.57,3.57,3.56
37.81,5.79,2.24,5.79,2.24,-2.23,-1.91,-1.90,3.56,3.56,3.55
38.19,5.81,2.27,5.80,2.26,-2.26,-1.94,-1.91,3.55,3.54,3.54
38.57,5.82,2.27,5.81,2.27,-2.29,-1.97,-1.93,3.53,3.53,3.55
38.95,5.82,2.28,5.83,2.29,-2.31,-2.00,-1.95,3.51,3.52,3.53
39.34,5.85,2.32,5.85,2.32,-2.33,-2.03,-1.96,3.51,3.52,3.53
39.74,5.89,2.37,5.88,2.36,-2.35,-2.06,-1.98,3.53,3.53,3.52
40.14,5.92,2.40,5.91,2.39,-2.37,-2.09,-2.00,3.55,3.54,3.51
40.54,5.92,2.41,5.92,2.41,-2.39,-2.12,-2.02,3.53,3.53,3.51
40.94,5.92,2.41,5.92,2.42,-2.41,-2.16,-2.05,3.50,3.51,3.51
41.35,5.92,2.42,5.92,2.42,-2.44,-2.19,-2.07,3.48,3.48,3.49
41.76,5.93,2.45,5.93,2.45,-2.46,-2.22,-2.10,3.46,3.46,3.48
42.18,5.95,2.47,5.95,2.48,-2.49,-2.25,-2.13,3.45,3.46,3.48
42.60,5.98,2.52,5.98,2.52,-2.53,-2.28,-2.15,3.45,3.45,3.46
43.03,6.02,2.56,6.01,2.56,-2.56,-2.32,-2.19,3.45,3.45,3.46
43.46,6.05,2.61,6.04,2.61,-2.61,-2.35,-2.22,3.44,3.44,3.43
43.90,6.07,2.66,6.07,2.66,-2.65,-2.38,-2.25,3.42,3.42,3.41
44.33,6.09,2.69,6.09,2.70,-2.69,-2.42,-2.29,3.40,3.40,3.39
44.78,6.10,2.73,6.10,2.73,-2.72,-2.45,-2.33,3.38,3.38,3.37
45.23,6.11,2.75,6.10,2.75,-2.74,-2.49,-2.37,3.36,3.36,3.35
45.68,6.11,2.77,6.11,2.77,-2.76,-2.52,-2.41,3.34,3.34,3.34
46.13,6.11,2.78,6.11,2.78,-2.78,-2.56,-2.45,3.33,3.33,3.32
46.60,6.11,2.79,6.11,2.79,-2.78,-2.59,-2.50,3.32,3.32,3.32
47.06,6.11,2.80,6.11,2.79,-2.79,-2.62,-2.54,3.31,3.31,3.31
47.53,6.11,2.80,6.11,2.80,-2.81,-2.66,-2.59,3.30,3.30,3.31
48.01,6.11,2.81,6.11,2.81,-2.83,-2.70,-2.64,3.28,3.28,3.30
48.49,6.12,2.83,6.12,2.83,-2.85,-2.73,-2.69,3.26,3.26,3.28
48.97,6.13,2.86,6.13,2.87,-2.89,-2.77,-2.74,3.24,3.25,3.27
49.46,6.17,2.91,6.17,2.91,-2.92,-2.80,-2.80,3.25,3.24,3.26
49.96,6.21,2.97,6.21,2.96,-2.96,-2.84,-2.85,3.25,3.25,3.24
50.46,6.26,3.00,6.26,3.01,-2.99,-2.87,-2.91,3.26,3.27,3.25
50.96,6.31,3.06,6.29,3.05,-3.02,-2.91,-2.96,3.28,3.27,3.25
51.47,6.31,3.07,6.31,3.07,-3.05,-2.94,-3.02,3.26,3.26,3.24
51.99,6.31,3.08,6.31,3.08,-3.07,-2.98,-3.08,3.24,3.24,3.23
52.51,6.31,3.08,6.31,3.08,-3.08,-3.02,-3.14,3.22,3.22,3.23
53.03,6.31,3.08,6.31,3.08,-3.09,-3.05,-3.19,3.22,3.22,3.23
53.56,6.31,3.09,6.31,3.08,-3.09,-3.09,-3.25,3.21,3.21,3.22
54.10,6.31,3.10,6.31,3.09,-3.10,-3.12,-3.31,3.21,3.21,3.21
54.64,6.31,3.10,6.31,3.10,-3.10,-3.16,-3.37,3.21,3.21,3.21
55.18,6.31,3.11,6.31,3.10,-3.11,-3.20,-3.42,3.20,3.20,3.20
55.74,6.31,3.12,6.31,3.11,-3.11,-3.23,-3.48,3.19,3.19,3.19
56.29,6.31,3.12,6.31,3.12,-3.12,-3.27,-3.53,3.18,3.18,3.19
56.86,6.31,3.14,6.31,3.14,-3.13,-3.30,-3.58,3.17,3.17,3.17
57.42,6.31,3.15,6.31,3.15,-3.15,-3.34,-3.63,3.16,3.16,3.16
58.00,6.31,3.16,6.31,3.16,-3.16,-3.37,-3.67,3.15,3.15,3.14
58.58,6.31,3.18,6.31,3.18,-3.18,-3.41,-3.72,3.13,3.13,3.13
59.16,6.31,3.19,6.31,3.19,-3.19,-3.44,-3.76,3.11,3.11,3.12
59.76,6.31,3.21,6.31,3.21,-3.22,-3.48,-3.79,3.09,3.09,3.09
60.35,6.31,3.24,6.31,3.24,-3.24,-3.51,-3.83,3.06,3.06,3.07
60.96,6.31,3.26,6.31,3.27,-3.27,-3.55,-3.86,3.03,3.03,3.05
61.57,6.31,3.31,6.31,3.30,-3.30,-3.58,-3.88,3.00,3.00,3.00
62.18,6.31,3.34,6.31,3.34,-3.34,-3.61,-3.91,2.97,2.97,2.96
62.80,6.31,3.38,6.31,3.38,-3.37,-3.65,-3.93,2.93,2.93,2.93
63.43,6.31,3.41,6.31,3.42,-3.41,-3.68,-3.94,2.90,2.90,2.89
64.07,6.31,3.45,6.31,3.45,-3.45,-3.71,-3.95,2.86,2.86,2.86
64.71,6.31,3.49,6.31,3.49,-3.48,-3.74,-3.96,2.82,2.82,2.82
65.35,6.31,3.52,6.31,3.52,-3.52,-3.77,-3.97,2.79,2.79,2.79
66.01,6.31,3.56,6.31,3.56,-3.56,-3.81,-3.97,2.75,2.75,2.75
66.67,6.31,3.59,6.31,3.59,-3.59,-3.84,-3.97,2.71,2.71,2.71
67.33,6.31,3.62,6.31,3.63,-3.63,-3.87,-3.96,2.67,2.67,2.68
68.01,6.31,3.66,6.31,3.66,-3.67,-3.90,-3.96,2.64,2.64,2.64
68.69,6.31,3.71,6.31,3.71,-3.71,-3.93,-3.95,2.60,2.60,2.60
69.37,6.31,3.75,6.31,3.75,-3.75,-3.95,-3.94,2.56,2.56,2.56
70.07,6.31,3.79,6.31,3.79,-3.78,-3.98,-3.93,2.53,2.53,2.52
70.77,6.31,3.82,6.31,3.83,-3.81,-4.01,-3.92,2.50,2.50,2.49
71.48,6.31,3.86,6.30,3.86,-3.84,-4.04,-3.90,2.47,2.46,2.44
72.19,6.29,3.89,6.27,3.87,-3.87,-4.06,-3.89,2.42,2.40,2.40
72.91,6.22,3.87,6.24,3.89,-3.90,-4.09,-3.87,2.32,2.34,2.35
73.64,6.21,3.91,6.21,3.91,-3.93,-4.11,-3.86,2.28,2.28,2.30
74.38,6.21,3.95,6.20,3.95,-3.96,-4.14,-3.85,2.25,2.24,2.26
75.12,6.21,4.00,6.21,3.99,-3.99,-4.16,-3.83,2.21,2.21,2.21
75.87,6.21,4.03,6.21,4.03,-4.03,-4.19,-3.82,2.18,2.18,2.17
76.63,6.21,4.07,6.21,4.07,-4.07,-4.21,-3.81,2.14,2.14,2.14
77.40,6.21,4.11,6.21,4.11,-4.11,-4.23,-3.80,2.10,2.10,2.10
78.17,6.21,4.15,6.21,4.14,-4.15,-4.25,-3.79,2.06,2.06,2.06
78.95,6.21,4.18,6.21,4.18,-4.17,-4.27,-3.79,2.03,2.03,2.03
79.74,6.21,4.21,6.21,4.21,-4.20,-4.29,-3.78,2.01,2.01,2.00
80.54,6.21,4.24,6.21,4.24,-4.22,-4.31,-3.78,1.99,1.99,1.97
81.35,6.20,4.26,6.18,4.24,-4.23,-4.33,-3.78,1.97,1.95,1.94
82.16,6.16,4.25,6.15,4.24,-4.25,-4.34,-3.79,1.91,1.91,1.91
82.98,6.11,4.22,6.12,4.25,-4.26,-4.36,-3.79,1.85,1.86,1.89
83.81,6.11,4.26,6.11,4.26,-4.28,-4.38,-3.80,1.83,1.83,1.84
84.65,6.11,4.30,6.10,4.29,-4.30,-4.39,-3.81,1.81,1.80,1.81
85.50,6.11,4.32,6.11,4.32,-4.33,-4.41,-3.83,1.78,1.78,1.79
86.35,6.11,4.35,6.11,4.35,-4.36,-4.42,-3.84,1.75,1.75,1.75
87.22,6.11,4.39,6.11,4.39,-4.39,-4.43,-3.86,1.72,1.72,1.72
88.09,6.11,4.42,6.11,4.42,-4.41,-4.44,-3.89,1.69,1.70,1.69
88.97,6.12,4.46,6.12,4.46,-4.44,-4.46,-3.91,1.68,1.68,1.66
89.86,6.12,4.49,6.11,4.48,-4.46,-4.47,-3.94,1.66,1.64,1.62
90.76,6.09,4.50,6.08,4.49,-4.48,-4.48,-3.97,1.61,1.60,1.59
91.66,6.04,4.48,6.05,4.49,-4.50,-4.49,-4.01,1.54,1.55,1.56
92.58,6.02,4.49,6.02,4.50,-4.52,-4.49,-4.05,1.50,1.50,1.52
93.51,6.02,4.52,6.01,4.51,-4.54,-4.50,-4.09,1.48,1.47,1.50
94.44,6.02,4.55,6.02,4.55,-4.56,-4.51,-4.13,1.46,1.45,1.47
95.39,6.02,4.58,6.02,4.58,-4.58,-4.52,-4.18,1.44,1.44,1.44
96.34,6.02,4.61,6.02,4.61,-4.59,-4.52,-4.22,1.42,1.42,1.40
97.30,6.01,4.63,6.01,4.64,-4.61,-4.53,-4.28,1.40,1.41,1.37
98.28,6.00,4.65,5.99,4.64,-4.62,-4.53,-4.33,1.38,1.38,1.35
99.26,5.97,4.64,5.95,4.63,-4.62,-4.54,-4.38,1.34,1.33,1.33
100.25,5.91,4.61,5.91,4.61,-4.63,-4.54,-4.44,1.28,1.29,1.30
101.25,5.86,4.59,5.87,4.60,-4.63,-4.55,-4.50,1.23,1.25,1.27
102.27,5.85,4.61,5.84,4.61,-4.63,-4.55,-4.56,1.22,1.21,1.24
103.29,5.83,4.64,5.82,4.62,-4.63,-4.55,-4.62,1.20,1.19,1.19
104.32,5.81,4.64,5.81,4.64,-4.64,-4.55,-4.69,1.17,1.17,1.17
105.37,5.79,4.66,5.79,4.65,-4.65,-4.56,-4.75,1.14,1.13,1.13
106.42,5.77,4.66,5.76,4.66,-4.67,-4.56,-4.81,1.10,1.10,1.10
107.48,5.74,4.67,5.74,4.68,-4.68,-4.56,-4.87,1.06,1.06,1.06
108.56,5.72,4.69,5.72,4.70,-4.68,-4.56,-4.94,1.03,1.04,1.02
109.64,5.70,4.71,5.70,4.71,-4.69,-4.56,-5.00,1.01,1.01,0.98
110.74,5.68,4.72,5.66,4.71,-4.69,-4.56,-5.05,0.99,0.97,0.96
111.85,5.62,4.69,5.61,4.69,-4.70,-4.56,-5.11,0.92,0.92,0.93
112.97,5.55,4.67,5.57,4.68,-4.71,-4.56,-5.17,0.84,0.86,0.88
114.10,5.54,4.68,5.54,4.69,-4.72,-4.56,-5.22,0.81,0.82,0.86
115.24,5.55,4.73,5.54,4.71,-4.74,-4.57,-5.26,0.81,0.80,0.82
116.39,5.55,4.75,5.55,4.75,-4.76,-4.57,-5.31,0.79,0.79,0.79
117.55,5.55,4.78,5.55,4.79,-4.77,-4.57,-5.35,0.77,0.78,0.77
118.73,5.56,4.82,5.56,4.81,-4.78,-4.57,-5.38,0.77,0.77,0.74
119.92,5.56,4.83,5.56,4.83,-4.79,-4.57,-5.41,0.76,0.76,0.73
121.12,5.55,4.84,5.54,4.83,-4.80,-4.57,-5.43,0.75,0.74,0.70
122.33,5.50,4.81,5.49,4.80,-4.80,-4.57,-5.45,0.70,0.69,0.69
123.55,5.44,4.75,5.45,4.77,-4.80,-4.58,-5.46,0.64,0.65,0.68
124.79,5.40,4.74,5.41,4.75,-4.80,-4.58,-5.46,0.60,0.61,0.66
126.03,5.41,4.77,5.40,4.76,-4.80,-4.58,-5.46,0.61,0.60,0.64
127.29,5.41,4.78,5.41,4.79,-4.79,-4.58,-5.45,0.62,0.62,0.63
128.57,5.42,4.81,5.42,4.81,-4.78,-4.59,-5.44,0.64,0.64,0.60
129.85,5.43,4.84,5.41,4.83,-4.77,-4.59,-5.42,0.65,0.64,0.59
131.15,5.39,4.81,5.38,4.80,-4.77,-4.60,-5.39,0.62,0.61,0.58
132.46,5.34,4.77,5.33,4.76,-4.77,-4.60,-5.36,0.57,0.56,0.56
133.79,5.26,4.70,5.28,4.72,-4.77,-4.61,-5.32,0.49,0.51,0.56
135.12,5.25,4.72,5.25,4.71,-4.76,-4.61,-5.28,0.49,0.49,0.53
136.48,5.25,4.72,5.25,4.72,-4.74,-4.62,-5.24,0.50,0.50,0.53
137.84,5.26,4.75,5.26,4.75,-4.73,-4.63,-5.19,0.53,0.53,0.51
139.22,5.26,4.78,5.25,4.76,-4.71,-4.63,-5.14,0.54,0.53,0.48
140.61,5.22,4.76,5.21,4.74,-4.71,-4.64,-5.08,0.51,0.51,0.46
142.02,5.16,4.70,5.16,4.70,-4.70,-4.65,-5.02,0.46,0.46,0.46
143.44,5.10,4.65,5.11,4.67,-4.70,-4.66,-4.96,0.40,0.41,0.44
144.87,5.07,4.65,5.08,4.66,-4.69,-4.67,-4.90,0.37,0.38,0.42
146.32,5.07,4.68,5.07,4.67,-4.69,-4.68,-4.84,0.38,0.38,0.39
147.78,5.07,4.70,5.06,4.69,-4.69,-4.69,-4.78,0.37,0.36,0.36
149.26,5.05,4.72,5.03,4.71,-4.71,-4.70,-4.72,0.34,0.33,0.33
150.75,4.99,4.71,5.01,4.73,-4.73,-4.71,-4.66,0.26,0.28,0.27
152.26,4.98,4.75,4.98,4.75,-4.75,-4.73,-4.59,0.22,0.22,0.23
153.78,4.97,4.79,4.95,4.77,-4.78,-4.74,-4.53,0.19,0.17,0.17
155.32,4.91,4.80,4.92,4.80,-4.80,-4.75,-4.48,0.10,0.12,0.11
156.88,4.88,4.82,4.88,4.83,-4.82,-4.76,-4.42,0.06,0.06,0.06
158.44,4.84,4.85,4.83,4.84,-4.83,-4.77,-4.36,0.01,0.00,-0.01
160.03,4.78,4.85,4.78,4.85,-4.83,-4.78,-4.31,-0.05,-0.05,-0.07
161.63,4.71,4.83,4.71,4.84,-4.83,-4.80,-4.26,-0.12,-0.11,-0.13
163.24,4.66,4.84,4.65,4.83,-4.83,-4.81,-4.21,-0.17,-0.18,-0.19
164.88,4.59,4.80,4.59,4.81,-4.82,-4.82,-4.16,-0.23,-0.23,-0.22
166.53,4.53,4.78,4.53,4.79,-4.81,-4.83,-4.12,-0.28,-0.28,-0.25
168.19,4.49,4.77,4.49,4.77,-4.79,-4.83,-4.08,-0.31,-0.30,-0.28
169.87,4.47,4.78,4.47,4.78,-4.78,-4.84,-4.04,-0.31,-0.30,-0.31
171.57,4.46,4.79,4.46,4.78,-4.76,-4.85,-4.01,-0.30,-0.30,-0.33
173.29,4.45,4.78,4.43,4.77,-4.75,-4.85,-3.98,-0.30,-0.32,-0.34
175.02,4.40,4.74,4.39,4.74,-4.74,-4.86,-3.95,-0.34,-0.35,-0.34
176.77,4.34,4.69,4.36,4.71,-4.73,-4.86,-3.92,-0.39,-0.37,-0.35
178.54,4.35,4.70,4.34,4.69,-4.71,-4.86,-3.90,-0.37,-0.37,-0.35
180.32,4.35,4.69,4.35,4.70,-4.69,-4.85,-3.88,-0.34,-0.34,-0.34
182.13,4.36,4.69,4.37,4.70,-4.67,-4.85,-3.86,-0.31,-0.30,-0.33
183.95,4.39,4.73,4.34,4.68,-4.65,-4.84,-3.85,-0.27,-0.31,-0.34
185.79,4.29,4.63,4.29,4.63,-4.64,-4.83,-3.84,-0.36,-0.35,-0.34
187.65,4.21,4.56,4.24,4.59,-4.63,-4.82,-3.83,-0.42,-0.39,-0.36
189.52,4.21,4.57,4.21,4.57,-4.62,-4.80,-3.82,-0.41,-0.40,-0.36
191.42,4.23,4.60,4.22,4.59,-4.59,-4.79,-3.82,-0.37,-0.38,-0.37
193.33,4.24,4.62,4.23,4.61,-4.57,-4.76,-3.82,-0.33,-0.34,-0.38
195.27,4.21,4.60,4.21,4.61,-4.55,-4.74,-3.82,-0.35,-0.35,-0.39
197.22,4.17,4.58,4.14,4.56,-4.54,-4.71,-3.83,-0.38,-0.40,-0.42
199.19,4.06,4.49,4.06,4.50,-4.53,-4.68,-3.83,-0.48,-0.47,-0.44
201.18,3.98,4.42,4.02,4.47,-4.52,-4.65,-3.84,-0.54,-0.50,-0.45
203.19,4.01,4.46,4.00,4.47,-4.49,-4.61,-3.85,-0.48,-0.49,-0.46
205.23,4.04,4.52,4.01,4.49,-4.46,-4.57,-3.86,-0.42,-0.45,-0.49
207.28,3.99,4.47,3.98,4.48,-4.42,-4.53,-3.87,-0.43,-0.44,-0.49
209.35,3.92,4.43,3.91,4.43,-4.39,-4.49,-3.89,-0.47,-0.48,-0.52
211.44,3.81,4.34,3.83,4.36,-4.37,-4.44,-3.90,-0.56,-0.54,-0.54
213.56,3.78,4.32,3.75,4.30,-4.35,-4.39,-3.92,-0.57,-0.60,-0.54
215.69,3.71,4.26,3.70,4.26,-4.32,-4.34,-3.93,-0.62,-0.62,-0.55
217.85,3.65,4.21,3.70,4.27,-4.29,-4.28,-3.94,-0.64,-0.59,-0.56
220.03,3.72,4.29,3.70,4.27,-4.25,-4.22,-3.96,-0.53,-0.55,-0.58
222.23,3.74,4.32,3.70,4.28,-4.21,-4.16,-3.97,-0.48,-0.52,-0.59
224.45,3.65,4.22,3.65,4.22,-4.18,-4.10,-3.98,-0.53,-0.53,-0.57
226.70,3.57,4.14,3.57,4.14,-4.14,-4.04,-3.99,-0.57,-0.57,-0.57
228.96,3.45,4.01,3.51,4.07,-4.09,-3.98,-4.00,-0.65,-0.59,-0.57
231.25,3.50,4.05,3.46,4.01,-4.04,-3.91,-4.00,-0.54,-0.58,-0.55
233.57,3.45,3.99,3.42,3.96,-3.97,-3.85,-4.01,-0.53,-0.55,-0.54
235.90,3.36,3.88,3.40,3.92,-3.91,-3.78,-4.00,-0.55,-0.51,-0.52
238.26,3.36,3.86,3.35,3.85,-3.84,-3.72,-4.00,-0.48,-0.49,-0.50
240.64,3.32,3.79,3.31,3.78,-3.78,-3.65,-3.99,-0.46,-0.47,-0.48
243.05,3.28,3.72,3.29,3.74,-3.72,-3.58,-3.98,-0.44,-0.43,-0.44
245.48,3.24,3.65,3.25,3.66,-3.66,-3.51,-3.96,-0.43,-0.42,-0.42
247.93,3.25,3.64,3.19,3.59,-3.61,-3.45,-3.94,-0.36,-0.42,-0.39
250.41,3.12,3.49,3.16,3.53,-3.56,-3.38,-3.92,-0.44,-0.40,-0.38
252.92,3.11,3.45,3.14,3.48,-3.50,-3.31,-3.89,-0.39,-0.36,-0.34
255.45,3.16,3.47,3.12,3.44,-3.44,-3.24,-3.86,-0.28,-0.32,-0.31
258.00,3.13,3.43,3.12,3.42,-3.37,-3.18,-3.82,-0.25,-0.25,-0.30
260.58,3.07,3.35,3.07,3.35,-3.31,-3.11,-3.78,-0.24,-0.24,-0.28
263.19,3.02,3.27,2.99,3.25,-3.25,-3.05,-3.73,-0.23,-0.26,-0.26
265.82,2.88,3.12,2.91,3.15,-3.18,-2.98,-3.68,-0.30,-0.27,-0.24
268.48,2.85,3.06,2.86,3.08,-3.10,-2.92,-3.63,-0.25,-0.24,-0.21
271.16,2.84,3.03,2.82,3.01,-3.02,-2.86,-3.57,-0.18,-0.20,-0.19
273.87,2.82,2.99,2.80,2.96,-2.94,-2.79,-3.51,-0.12,-0.14,-0.17
276.61,2.73,2.87,2.76,2.91,-2.87,-2.73,-3.45,-0.14,-0.11,-0.14
279.38,2.72,2.83,2.69,2.81,-2.82,-2.67,-3.38,-0.10,-0.12,-0.12
282.17,2.65,2.75,2.61,2.71,-2.77,-2.61,-3.32,-0.12,-0.15,-0.10
284.99,2.55,2.61,2.61,2.67,-2.72,-2.55,-3.25,-0.18,-0.12,-0.06
287.84,2.58,2.61,2.63,2.66,-2.68,-2.50,-3.17,-0.10,-0.05,-0.04
290.72,2.75,2.75,2.66,2.66,-2.63,-2.44,-3.10,0.11,0.02,0.00
293.63,2.70,2.67,2.68,2.65,-2.59,-2.39,-3.03,0.11,0.09,0.03
296.57,2.60,2.53,2.65,2.59,-2.54,-2.33,-2.95,0.05,0.10,0.07
299.53,2.59,2.50,2.58,2.49,-2.50,-2.28,-2.88,0.09,0.08,0.08
302.53,2.56,2.45,2.56,2.44,-2.45,-2.23,-2.80,0.10,0.10,0.11
305.55,2.53,2.38,2.53,2.39,-2.40,-2.18,-2.73,0.13,0.13,0.15
308.61,2.52,2.35,2.49,2.32,-2.34,-2.13,-2.65,0.18,0.15,0.17
311.69,2.44,2.25,2.46,2.27,-2.29,-2.08,-2.58,0.15,0.17,0.18
314.81,2.44,2.21,2.44,2.23,-2.24,-2.03,-2.51,0.19,0.20,0.22
317.96,2.44,2.21,2.42,2.19,-2.20,-1.98,-2.43,0.24,0.22,0.23
321.14,2.42,2.17,2.40,2.15,-2.15,-1.94,-2.36,0.26,0.25,0.25
324.35,2.36,2.10,2.37,2.11,-2.09,-1.89,-2.29,0.26,0.27,0.26
327.59,2.31,2.03,2.35,2.08,-2.03,-1.85,-2.22,0.28,0.32,0.28
330.87,2.33,2.04,2.29,2.01,-1.96,-1.80,-2.15,0.37,0.33,0.28
334.18,2.28,1.98,2.20,1.91,-1.90,-1.76,-2.08,0.38,0.30,0.29
337.52,2.04,1.74,2.11,1.80,-1.84,-1.72,-2.01,0.20,0.27,0.30
340.90,1.98,1.66,2.02,1.71,-1.77,-1.68,-1.95,0.20,0.25,0.32
344.30,2.03,1.70,1.98,1.65,-1.71,-1.64,-1.88,0.31,0.27,0.33
347.75,2.00,1.66,1.98,1.65,-1.65,-1.60,-1.82,0.35,0.33,0.34
351.23,1.96,1.61,1.98,1.64,-1.59,-1.57,-1.75,0.37,0.39,0.35
354.74,1.93,1.58,1.96,1.61,-1.54,-1.53,-1.69,0.39,0.42,0.34
358.28,1.95,1.59,1.88,1.53,-1.50,-1.49,-1.63,0.45,0.38,0.35
361.87,1.82,1.47,1.79,1.44,-1.45,-1.46,-1.57,0.37,0.34,0.35
365.49,1.62,1.26,1.73,1.37,-1.40,-1.42,-1.52,0.21,0.32,0.36
369.14,1.70,1.34,1.67,1.31,-1.35,-1.39,-1.46,0.34,0.32,0.36
372.83,1.71,1.35,1.65,1.29,-1.30,-1.36,-1.41,0.40,0.35,0.36
376.56,1.62,1.26,1.64,1.28,-1.25,-1.33,-1.35,0.36,0.39,0.36
380.33,1.58,1.20,1.59,1.22,-1.21,-1.30,-1.30,0.37,0.38,0.38
384.13,1.54,1.17,1.54,1.17,-1.17,-1.26,-1.25,0.37,0.37,0.37
387.97,1.52,1.15,1.50,1.14,-1.13,-1.23,-1.20,0.38,0.37,0.37
391.85,1.46,1.09,1.46,1.09,-1.09,-1.21,-1.15,0.37,0.38,0.36
395.77,1.41,1.03,1.41,1.04,-1.03,-1.18,-1.10,0.38,0.38,0.37
399.73,1.36,0.98,1.35,0.98,-0.97,-1.15,-1.06,0.39,0.38,0.37
403.72,1.29,0.92,1.31,0.94,-0.91,-1.12,-1.01,0.37,0.39,0.36
407.76,1.25,0.89,1.24,0.88,-0.87,-1.09,-0.97,0.38,0.38,0.36
411.84,1.22,0.85,1.17,0.80,-0.83,-1.07,-0.92,0.38,0.33,0.37
415.96,1.08,0.72,1.12,0.75,-0.80,-1.04,-0.88,0.27,0.31,0.36
420.12,1.06,0.70,1.09,0.73,-0.78,-1.02,-0.84,0.28,0.31,0.36
424.32,1.14,0.77,1.10,0.74,-0.76,-0.99,-0.80,0.38,0.34,0.37
428.56,1.16,0.79,1.15,0.78,-0.75,-0.97,-0.76,0.41,0.40,0.37
432.85,1.17,0.78,1.19,0.80,-0.74,-0.94,-0.72,0.43,0.45,0.39
437.18,1.20,0.79,1.19,0.77,-0.73,-0.92,-0.69,0.47,0.46,0.41
441.55,1.21,0.76,1.16,0.72,-0.71,-0.90,-0.65,0.49,0.44,0.45
445.96,1.11,0.63,1.14,0.67,-0.70,-0.88,-0.61,0.41,0.45,0.48
450.42,1.12,0.61,1.18,0.67,-0.68,-0.85,-0.58,0.43,0.50,0.51
454.93,1.26,0.69,1.22,0.66,-0.68,-0.83,-0.55,0.58,0.54,0.57
459.48,1.35,0.74,1.25,0.64,-0.67,-0.81,-0.52,0.68,0.58,0.61
464.07,1.22,0.55,1.29,0.63,-0.66,-0.79,-0.49,0.55,0.63,0.66
468.71,1.27,0.55,1.36,0.64,-0.65,-0.77,-0.46,0.61,0.70,0.71
473.40,1.51,0.74,1.43,0.67,-0.64,-0.75,-0.43,0.87,0.79,0.76
478.13,1.58,0.76,1.52,0.71,-0.62,-0.73,-0.40,0.96,0.90,0.81
482.91,1.48,0.62,1.53,0.68,-0.59,-0.71,-0.38,0.89,0.94,0.85
487.74,1.48,0.57,1.46,0.56,-0.56,-0.69,-0.35,0.92,0.90,0.90
492.62,1.42,0.47,1.40,0.46,-0.53,-0.68,-0.33,0.89,0.87,0.94
497.55,1.34,0.36,1.39,0.42,-0.49,-0.66,-0.30,0.85,0.90,0.97
502.52,1.42,0.41,1.43,0.43,-0.46,-0.64,-0.28,0.96,0.97,1.00
507.55,1.49,0.48,1.45,0.43,-0.43,-0.62,-0.26,1.05,1.01,1.01
512.62,1.51,0.49,1.44,0.42,-0.40,-0.60,-0.24,1.10,1.04,1.02
517.75,1.33,0.30,1.42,0.40,-0.38,-0.59,-0.22,0.95,1.04,1.03
522.93,1.38,0.36,1.40,0.38,-0.36,-0.57,-0.20,1.02,1.04,1.02
528.16,1.43,0.44,1.37,0.37,-0.33,-0.55,-0.19,1.10,1.04,0.99
