frequency,raw,error,smoothed,error_smoothed,equalization,parametric_eq,fixed_band_eq,equalized_raw,equalized_smoothed,target
20.00,-5.30,-10.84,-5.30,-10.84,6.00,5.26,2.80,0.70,0.70,5.54
20.20,-5.25,-10.77,-5.25,-10.77,6.00,5.30,2.88,0.75,0.75,5.52
20.40,-5.20,-10.69,-5.20,-10.69,6.00,5.34,2.96,0.80,0.80,5.49
20.61,-5.15,-10.62,-5.15,-10.62,6.00,5.38,3.04,0.85,0.85,5.47
20.81,-5.09,-10.54,-5.10,-10.54,6.00,5.42,3.13,0.91,0.90,5.45
21.02,-5.04,-10.46,-5.04,-10.46,6.00,5.45,3.22,0.96,0.96,5.42
21.23,-4.98,-10.38,-4.98,-10.38,6.00,5.49,3.31,1.02,1.02,5.39
21.44,-4.92,-10.30,-4.93,-10.30,6.00,5.52,3.40,1.08,1.07,5.37
21.66,-4.87,-10.23,-4.87,-10.23,6.00,5.56,3.50,1.13,1.13,5.35
21.87,-4.82,-10.16,-4.81,-10.15,6.00,5.59,3.60,1.18,1.19,5.33
22.09,-4.75,-10.07,-4.76,-10.07,6.00,5.63,3.70,1.25,1.24,5.31
22.31,-4.70,-10.00,-4.70,-9.99,6.00,5.66,3.81,1.30,1.30,5.29
22.54,-4.65,-9.92,-4.65,-9.91,6.00,5.69,3.92,1.35,1.35,5.26
22.76,-4.58,-9.83,-4.59,-9.83,6.00,5.72,4.03,1.42,1.41,5.24
22.99,-4.53,-9.76,-4.53,-9.75,6.00,5.75,4.14,1.47,1.47,5.22
23.22,-4.47,-9.68,-4.47,-9.68,6.00,5.78,4.25,1.53,1.53,5.20
23.45,-4.41,-9.60,-4.41,-9.60,6.00,5.81,4.37,1.59,1.59,5.19
23.69,-4.35,-9.53,-4.35,-9.53,6.00,5.84,4.49,1.65,1.65,5.17
23.92,-4.29,-9.45,-4.29,-9.45,6.00,5.86,4.62,1.71,1.71,5.16
24.16,-4.23,-9.37,-4.24,-9.38,6.00,5.89,4.74,1.77,1.76,5.14
24.40,-4.18,-9.31,-4.18,-9.31,6.00,5.91,4.87,1.82,1.82,5.13
24.65,-4.11,-9.23,-4.12,-9.23,6.00,5.93,5.00,1.89,1.88,5.12
24.89,-4.05,-9.15,-4.05,-9.16,6.00,5.96,5.13,1.95,1.95,5.10
25.14,-3.99,-9.08,-3.99,-9.08,6.00,5.98,5.26,2.01,2.01,5.09
25.39,-3.92,-9.00,-3.93,-9.00,6.00,5.99,5.40,2.08,2.07,5.08
25.65,-3.86,-8.93,-3.86,-8.93,6.00,6.01,5.53,2.14,2.14,5.07
25.91,-3.80,-8.86,-3.80,-8.86,6.00,6.03,5.67,2.20,2.20,5.06
26.16,-3.74,-8.79,-3.74,-8.78,6.00,6.04,5.80,2.26,2.26,5.05
26.43,-3.67,-8.70,-3.68,-8.71,6.00,6.06,5.93,2.33,2.32,5.03
26.69,-3.61,-8.63,-3.61,-8.63,6.00,6.07,6.07,2.39,2.39,5.02
26.96,-3.55,-8.56,-3.55,-8.55,6.00,6.08,6.20,2.45,2.45,5.00
27.23,-3.48,-8.48,-3.49,-8.48,6.00,6.09,6.33,2.52,2.51,4.99
27.50,-3.43,-8.42,-3.43,-8.41,6.00,6.09,6.45,2.57,2.57,4.98
27.77,-3.36,-8.34,-3.36,-8.34,6.00,6.10,6.57,2.64,2.64,4.98
28.05,-3.30,-8.27,-3.30,-8.28,6.00,6.10,6.69,2.70,2.70,4.97
28.33,-3.24,-8.20,-3.24,-8.21,6.00,6.10,6.80,2.76,2.76,4.96
28.62,-3.18,-8.14,-3.18,-8.14,6.00,6.11,6.91,2.82,2.82,4.96
28.90,-3.12,-8.07,-3.12,-8.07,6.00,6.10,7.01,2.88,2.88,4.95
29.19,-3.06,-8.01,-3.06,-8.01,6.00,6.10,7.10,2.94,2.94,4.95
29.48,-3.00,-7.94,-3.00,-7.94,6.00,6.10,7.18,3.00,3.00,4.94
29.78,-2.94,-7.88,-2.94,-7.88,6.00,6.09,7.25,3.06,3.06,4.94
30.08,-2.88,-7.81,-2.89,-7.81,6.00,6.09,7.31,3.12,3.11,4.93
30.38,-2.83,-7.76,-2.83,-7.75,6.00,6.08,7.36,3.17,3.17,4.92
30.68,-2.76,-7.68,-2.77,-7.68,6.00,6.07,7.40,3.24,3.23,4.91
30.99,-2.70,-7.61,-2.71,-7.62,6.00,6.06,7.43,3.30,3.29,4.90
31.30,-2.66,-7.56,-2.66,-7.55,6.00,6.05,7.45,3.34,3.34,4.90
31.61,-2.61,-7.50,-2.61,-7.50,6.00,6.04,7.46,3.39,3.39,4.89
31.93,-2.56,-7.44,-2.57,-7.45,6.00,6.03,7.45,3.44,3.43,4.88
32.24,-2.52,-7.40,-2.52,-7.39,6.00,6.02,7.44,3.48,3.48,4.88
32.57,-2.47,-7.34,-2.47,-7.34,6.00,6.01,7.41,3.53,3.53,4.87
32.89,-2.42,-7.28,-2.42,-7.28,6.00,5.99,7.38,3.58,3.58,4.85
33.22,-2.37,-7.22,-2.38,-7.22,6.00,5.98,7.33,3.63,3.62,4.84
33.55,-2.33,-7.16,-2.33,-7.16,6.00,5.97,7.28,3.67,3.67,4.83
33.89,-2.28,-7.10,-2.28,-7.10,6.00,5.96,7.22,3.72,3.72,4.82
34.23,-2.24,-7.05,-2.24,-7.05,6.00,5.95,7.15,3.76,3.76,4.81
34.57,-2.19,-7.00,-2.20,-7.00,6.00,5.94,7.08,3.81,3.80,4.81
34.92,-2.15,-6.95,-2.15,-6.95,6.00,5.93,7.00,3.85,3.85,4.79
35.27,-2.11,-6.90,-2.11,-6.90,6.00,5.93,6.92,3.89,3.89,4.78
35.62,-2.07,-6.85,-2.07,-6.85,6.00,5.92,6.83,3.93,3.93,4.78
35.97,-2.03,-6.80,-2.03,-6.80,6.00,5.91,6.74,3.97,3.97,4.77
36.33,-1.99,-6.76,-1.99,-6.75,6.00,5.90,6.65,4.01,4.01,4.77
36.70,-1.95,-6.71,-1.95,-6.70,6.00,5.90,6.56,4.05,4.05,4.75
37.06,-1.90,-6.64,-1.91,-6.65,6.00,5.89,6.47,4.10,4.09,4.74
37.43,-1.86,-6.60,-1.86,-6.60,6.00,5.88,6.38,4.14,4.14,4.74
37.81,-1.82,-6.55,-1.82,-6.55,6.00,5.88,6.29,4.18,4.18,4.73
38.19,-1.77,-6.50,-1.78,-6.50,6.00,5.87,6.20,4.23,4.22,4.72
38.57,-1.74,-6.45,-1.74,-6.45,6.00,5.86,6.11,4.26,4.26,4.71
38.95,-1.69,-6.40,-1.70,-6.40,6.00,5.85,6.02,4.31,4.30,4.71
39.34,-1.65,-6.35,-1.66,-6.35,6.00,5.84,5.94,4.35,4.34,4.69
39.74,-1.62,-6.32,-1.62,-6.31,6.00,5.83,5.86,4.38,4.38,4.69
40.14,-1.58,-6.26,-1.58,-6.26,6.01,5.81,5.78,4.42,4.42,4.68
40.54,-1.54,-6.22,-1.55,-6.22,6.01,5.80,5.70,4.46,4.46,4.68
40.94,-1.50,-6.16,-1.51,-6.17,6.01,5.78,5.63,4.51,4.50,4.66
41.35,-1.47,-6.13,-1.47,-6.12,6.00,5.77,5.56,4.53,4.54,4.66
41.76,-1.42,-6.07,-1.43,-6.08,5.99,5.75,5.50,4.57,4.57,4.64
42.18,-1.39,-6.03,-1.39,-6.03,5.98,5.73,5.44,4.59,4.59,4.64
42.60,-1.35,-5.98,-1.35,-5.98,5.96,5.71,5.38,4.60,4.60,4.63
43.03,-1.31,-5.94,-1.31,-5.93,5.93,5.69,5.33,4.61,4.61,4.62
43.46,-1.27,-5.88,-1.27,-5.88,5.89,5.67,5.28,4.62,4.62,4.61
43.90,-1.23,-5.84,-1.24,-5.84,5.85,5.65,5.23,4.62,4.61,4.60
44.33,-1.20,-5.80,-1.20,-5.80,5.80,5.62,5.19,4.60,4.60,4.60
44.78,-1.17,-5.76,-1.17,-5.75,5.76,5.60,5.16,4.58,4.59,4.58
45.23,-1.12,-5.70,-1.13,-5.71,5.71,5.57,5.12,4.59,4.58,4.58
45.68,-1.09,-5.67,-1.09,-5.66,5.67,5.54,5.09,4.57,4.58,4.57
46.13,-1.05,-5.62,-1.05,-5.62,5.63,5.52,5.07,4.57,4.57,4.57
46.60,-1.02,-5.59,-1.02,-5.59,5.59,5.49,5.05,4.56,4.56,4.56
47.06,-0.99,-5.55,-0.99,-5.55,5.55,5.46,5.03,4.56,4.56,4.56
47.53,-0.96,-5.51,-0.96,-5.51,5.51,5.43,5.02,4.55,4.55,4.55
48.01,-0.93,-5.48,-0.93,-5.48,5.47,5.40,5.01,4.54,4.54,4.54
48.49,-0.90,-5.44,-0.90,-5.44,5.44,5.37,5.00,4.53,4.53,4.54
48.97,-0.87,-5.40,-0.87,-5.40,5.40,5.33,5.00,4.53,4.53,4.53
49.46,-0.84,-5.37,-0.84,-5.37,5.36,5.30,5.00,4.52,4.52,4.52
49.96,-0.81,-5.33,-0.81,-5.33,5.33,5.27,5.00,4.51,4.52,4.52
50.46,-0.77,-5.28,-0.78,-5.29,5.29,5.23,5.00,4.52,4.51,4.51
50.96,-0.75,-5.25,-0.75,-5.25,5.25,5.20,5.01,4.50,4.50,4.50
51.47,-0.72,-5.22,-0.72,-5.21,5.22,5.17,5.02,4.49,4.49,4.49
51.99,-0.69,-5.18,-0.70,-5.18,5.18,5.13,5.03,4.49,4.48,4.48
52.51,-0.67,-5.15,-0.67,-5.14,5.14,5.09,5.04,4.47,4.47,4.48
53.03,-0.64,-5.11,-0.64,-5.11,5.11,5.06,5.05,4.46,4.47,4.47
53.56,-0.61,-5.07,-0.61,-5.07,5.07,5.02,5.07,4.46,4.46,4.46
54.10,-0.58,-5.03,-0.59,-5.03,5.04,4.99,5.08,4.45,4.45,4.45
54.64,-0.56,-5.00,-0.56,-5.00,5.00,4.95,5.09,4.44,4.44,4.44
55.18,-0.54,-4.97,-0.54,-4.97,4.96,4.91,5.11,4.42,4.42,4.43
55.74,-0.51,-4.93,-0.52,-4.93,4.93,4.87,5.12,4.42,4.41,4.42
56.29,-0.49,-4.90,-0.49,-4.89,4.89,4.84,5.13,4.40,4.40,4.40
56.86,-0.46,-4.86,-0.46,-4.86,4.86,4.80,5.14,4.40,4.40,4.39
57.42,-0.44,-4.82,-0.44,-4.83,4.83,4.76,5.14,4.38,4.39,4.38
58.00,-0.41,-4.79,-0.42,-4.79,4.79,4.72,5.14,4.38,4.38,4.38
58.58,-0.40,-4.77,-0.40,-4.76,4.76,4.68,5.14,4.36,4.36,4.37
59.16,-0.37,-4.73,-0.38,-4.73,4.73,4.65,5.14,4.36,4.35,4.35
59.76,-0.36,-4.70,-0.36,-4.70,4.70,4.61,5.13,4.34,4.34,4.34
60.35,-0.33,-4.67,-0.34,-4.67,4.67,4.57,5.12,4.34,4.33,4.33
60.96,-0.32,-4.64,-0.32,-4.64,4.64,4.53,5.10,4.31,4.32,4.32
61.57,-0.30,-4.61,-0.30,-4.61,4.61,4.49,5.08,4.30,4.31,4.31
62.18,-0.28,-4.57,-0.28,-4.57,4.58,4.45,5.06,4.29,4.29,4.29
62.80,-0.26,-4.54,-0.27,-4.54,4.55,4.41,5.03,4.28,4.28,4.27
63.43,-0.25,-4.52,-0.25,-4.52,4.52,4.37,4.99,4.26,4.26,4.27
64.07,-0.24,-4.49,-0.24,-4.49,4.49,4.33,4.95,4.24,4.25,4.25
64.71,-0.22,-4.46,-0.22,-4.46,4.45,4.29,4.90,4.23,4.23,4.23
65.35,-0.20,-4.42,-0.21,-4.42,4.42,4.26,4.85,4.22,4.21,4.21
66.01,-0.19,-4.39,-0.19,-4.39,4.39,4.22,4.80,4.19,4.20,4.20
66.67,-0.17,-4.35,-0.17,-4.35,4.35,4.18,4.74,4.18,4.18,4.18
67.33,-0.15,-4.31,-0.16,-4.32,4.31,4.14,4.67,4.16,4.16,4.16
68.01,-0.14,-4.28,-0.14,-4.28,4.28,4.10,4.60,4.13,4.14,4.14
68.69,-0.12,-4.24,-0.12,-4.24,4.24,4.06,4.53,4.12,4.12,4.12
69.37,-0.10,-4.20,-0.10,-4.20,4.20,4.02,4.46,4.10,4.10,4.10
70.07,-0.08,-4.16,-0.09,-4.16,4.16,3.98,4.38,4.08,4.08,4.07
70.77,-0.07,-4.12,-0.07,-4.12,4.12,3.94,4.30,4.05,4.05,4.05
71.48,-0.05,-4.08,-0.06,-4.08,4.08,3.90,4.22,4.03,4.03,4.03
72.19,-0.04,-4.05,-0.04,-4.05,4.04,3.86,4.14,4.00,4.00,4.00
72.91,-0.02,-4.00,-0.03,-4.00,4.00,3.81,4.06,3.98,3.97,3.98
73.64,-0.01,-3.96,-0.01,-3.96,3.96,3.77,3.97,3.95,3.95,3.95
74.38,0.01,-3.91,0.01,-3.91,3.92,3.73,3.89,3.92,3.92,3.92
75.12,0.03,-3.87,0.02,-3.87,3.87,3.69,3.80,3.90,3.89,3.89
75.87,0.04,-3.82,0.04,-3.82,3.83,3.65,3.72,3.86,3.86,3.86
76.63,0.05,-3.78,0.05,-3.78,3.78,3.61,3.64,3.83,3.83,3.83
77.40,0.06,-3.74,0.06,-3.73,3.73,3.56,3.55,3.79,3.79,3.79
78.17,0.07,-3.69,0.07,-3.68,3.68,3.52,3.47,3.75,3.75,3.75
78.95,0.09,-3.63,0.08,-3.63,3.63,3.48,3.39,3.72,3.71,3.72
79.74,0.10,-3.58,0.10,-3.58,3.58,3.43,3.31,3.68,3.68,3.68
80.54,0.11,-3.53,0.11,-3.52,3.53,3.39,3.23,3.63,3.64,3.64
81.35,0.13,-3.47,0.12,-3.47,3.47,3.35,3.15,3.60,3.60,3.60
82.16,0.14,-3.42,0.13,-3.42,3.42,3.30,3.07,3.56,3.56,3.55
82.98,0.14,-3.37,0.14,-3.37,3.37,3.26,3.00,3.51,3.51,3.51
83.81,0.15,-3.32,0.15,-3.32,3.32,3.21,2.93,3.47,3.47,3.47
84.65,0.15,-3.27,0.15,-3.27,3.27,3.16,2.86,3.42,3.42,3.42
85.50,0.17,-3.21,0.16,-3.22,3.22,3.12,2.79,3.39,3.38,3.37
86.35,0.17,-3.17,0.17,-3.17,3.17,3.07,2.72,3.33,3.33,3.34
87.22,0.17,-3.13,0.17,-3.12,3.12,3.02,2.65,3.28,3.29,3.30
88.09,0.19,-3.06,0.18,-3.07,3.07,2.97,2.59,3.25,3.25,3.25
88.97,0.19,-3.02,0.19,-3.02,3.02,2.93,2.53,3.20,3.21,3.20
89.86,0.20,-2.96,0.20,-2.96,2.97,2.88,2.47,3.16,3.17,3.16
90.76,0.21,-2.92,0.20,-2.92,2.92,2.83,2.41,3.12,3.12,3.12
91.66,0.21,-2.87,0.21,-2.87,2.87,2.78,2.35,3.07,3.08,3.08
92.58,0.22,-2.82,0.22,-2.82,2.82,2.73,2.30,3.03,3.03,3.04
93.51,0.23,-2.77,0.23,-2.77,2.77,2.68,2.25,2.99,2.99,2.99
94.44,0.24,-2.72,0.24,-2.71,2.72,2.63,2.20,2.95,2.95,2.95
95.39,0.25,-2.66,0.25,-2.66,2.66,2.58,2.15,2.91,2.91,2.91
96.34,0.26,-2.61,0.25,-2.61,2.61,2.52,2.10,2.87,2.87,2.87
97.30,0.26,-2.56,0.26,-2.56,2.56,2.47,2.06,2.81,2.82,2.82
98.28,0.28,-2.50,0.27,-2.50,2.50,2.42,2.01,2.78,2.78,2.78
99.26,0.29,-2.45,0.29,-2.45,2.44,2.37,1.97,2.73,2.73,2.73
100.25,0.30,-2.39,0.30,-2.39,2.39,2.32,1.93,2.68,2.68,2.68
101.25,0.31,-2.33,0.31,-2.33,2.33,2.26,1.89,2.64,2.64,2.63
102.27,0.32,-2.27,0.32,-2.27,2.27,2.21,1.85,2.59,2.58,2.58
103.29,0.33,-2.21,0.33,-2.21,2.21,2.16,1.81,2.54,2.54,2.54
104.32,0.34,-2.15,0.34,-2.15,2.15,2.10,1.78,2.48,2.49,2.49
105.37,0.36,-2.08,0.35,-2.09,2.09,2.05,1.75,2.44,2.44,2.44
106.42,0.36,-2.03,0.36,-2.03,2.03,2.00,1.71,2.38,2.39,2.39
107.48,0.37,-1.97,0.37,-1.97,1.97,1.94,1.68,2.33,2.34,2.34
108.56,0.39,-1.90,0.38,-1.91,1.90,1.89,1.65,2.29,2.29,2.29
109.64,0.40,-1.84,0.40,-1.84,1.84,1.83,1.62,2.24,2.24,2.24
110.74,0.41,-1.78,0.41,-1.78,1.78,1.78,1.59,2.19,2.19,2.19
111.85,0.42,-1.72,0.42,-1.72,1.72,1.73,1.56,2.14,2.14,2.14
112.97,0.43,-1.67,0.43,-1.67,1.66,1.68,1.53,2.09,2.09,2.09
114.10,0.44,-1.61,0.44,-1.61,1.61,1.62,1.51,2.04,2.04,2.04
115.24,0.45,-1.55,0.45,-1.55,1.55,1.57,1.48,2.00,2.00,2.00
116.39,0.46,-1.49,0.46,-1.49,1.49,1.52,1.45,1.95,1.95,1.95
117.55,0.47,-1.43,0.46,-1.44,1.44,1.47,1.43,1.91,1.90,1.90
118.73,0.47,-1.39,0.47,-1.39,1.39,1.42,1.40,1.85,1.86,1.85
119.92,0.48,-1.34,0.48,-1.33,1.34,1.37,1.38,1.81,1.81,1.82
121.12,0.49,-1.28,0.49,-1.29,1.28,1.32,1.35,1.77,1.77,1.77
122.33,0.50,-1.24,0.49,-1.24,1.24,1.27,1.33,1.73,1.73,1.73
123.55,0.50,-1.19,0.50,-1.19,1.19,1.22,1.30,1.68,1.69,1.69
124.79,0.51,-1.14,0.51,-1.14,1.14,1.17,1.28,1.65,1.65,1.65
126.03,0.52,-1.09,0.51,-1.10,1.09,1.13,1.26,1.61,1.61,1.61
127.29,0.53,-1.05,0.52,-1.05,1.05,1.08,1.23,1.57,1.57,1.57
128.57,0.53,-1.01,0.53,-1.00,1.00,1.04,1.21,1.53,1.54,1.54
129.85,0.55,-0.95,0.54,-0.96,0.96,0.99,1.18,1.51,1.50,1.49
131.15,0.55,-0.91,0.55,-0.92,0.92,0.95,1.16,1.46,1.46,1.46
132.46,0.55,-0.88,0.55,-0.88,0.88,0.91,1.14,1.43,1.43,1.43
133.79,0.56,-0.84,0.55,-0.84,0.84,0.87,1.11,1.40,1.40,1.40
135.12,0.56,-0.81,0.56,-0.81,0.81,0.83,1.09,1.37,1.37,1.37
136.48,0.56,-0.78,0.56,-0.78,0.78,0.79,1.07,1.33,1.34,1.33
137.84,0.57,-0.75,0.56,-0.75,0.75,0.76,1.04,1.31,1.31,1.31
139.22,0.57,-0.72,0.57,-0.72,0.72,0.72,1.02,1.28,1.28,1.28
140.61,0.57,-0.69,0.57,-0.69,0.69,0.69,1.00,1.26,1.26,1.26
142.02,0.58,-0.66,0.57,-0.66,0.66,0.66,0.98,1.24,1.24,1.24
143.44,0.58,-0.64,0.58,-0.64,0.64,0.63,0.95,1.22,1.22,1.22
144.87,0.58,-0.61,0.58,-0.62,0.62,0.60,0.93,1.19,1.19,1.19
146.32,0.59,-0.59,0.58,-0.59,0.59,0.57,0.91,1.18,1.17,1.17
147.78,0.58,-0.58,0.58,-0.57,0.57,0.55,0.89,1.15,1.15,1.16
149.26,0.59,-0.55,0.58,-0.55,0.55,0.52,0.86,1.14,1.14,1.13
150.75,0.58,-0.54,0.58,-0.54,0.54,0.50,0.84,1.11,1.12,1.12
152.26,0.59,-0.52,0.59,-0.52,0.52,0.48,0.82,1.11,1.11,1.10
153.78,0.59,-0.50,0.59,-0.50,0.51,0.46,0.80,1.09,1.09,1.09
155.32,0.59,-0.49,0.59,-0.49,0.49,0.44,0.78,1.08,1.08,1.08
156.88,0.59,-0.48,0.59,-0.48,0.48,0.43,0.76,1.07,1.06,1.06
158.44,0.58,-0.48,0.58,-0.47,0.47,0.41,0.74,1.04,1.05,1.05
160.03,0.59,-0.45,0.58,-0.46,0.46,0.40,0.72,1.04,1.04,1.04
161.63,0.58,-0.45,0.58,-0.45,0.45,0.38,0.70,1.02,1.03,1.03
163.24,0.59,-0.43,0.58,-0.43,0.44,0.37,0.68,1.02,1.02,1.02
164.88,0.59,-0.42,0.59,-0.42,0.43,0.36,0.66,1.01,1.01,1.01
166.53,0.59,-0.41,0.59,-0.41,0.42,0.35,0.64,1.00,1.00,1.00
168.19,0.59,-0.40,0.58,-0.41,0.41,0.34,0.63,1.00,0.99,0.99
169.87,0.58,-0.41,0.58,-0.40,0.40,0.34,0.61,0.98,0.98,0.98
171.57,0.58,-0.39,0.57,-0.40,0.39,0.33,0.59,0.97,0.97,0.97
173.29,0.57,-0.39,0.57,-0.39,0.39,0.33,0.57,0.96,0.96,0.96
175.02,0.57,-0.39,0.56,-0.38,0.38,0.32,0.56,0.95,0.95,0.95
176.77,0.56,-0.38,0.56,-0.38,0.38,0.32,0.54,0.94,0.94,0.94
178.54,0.56,-0.37,0.55,-0.37,0.37,0.32,0.53,0.93,0.93,0.93
180.32,0.55,-0.37,0.55,-0.37,0.37,0.31,0.51,0.92,0.92,0.92
182.13,0.54,-0.36,0.54,-0.36,0.37,0.31,0.49,0.90,0.90,0.90
183.95,0.53,-0.36,0.53,-0.36,0.36,0.31,0.48,0.89,0.89,0.89
185.79,0.52,-0.36,0.52,-0.36,0.36,0.31,0.46,0.88,0.87,0.87
187.65,0.51,-0.35,0.50,-0.36,0.36,0.31,0.45,0.86,0.86,0.86
189.52,0.49,-0.36,0.49,-0.35,0.35,0.31,0.44,0.84,0.85,0.85
191.42,0.49,-0.35,0.48,-0.35,0.35,0.31,0.42,0.83,0.83,0.83
193.33,0.48,-0.35,0.47,-0.35,0.34,0.31,0.41,0.82,0.82,0.82
195.27,0.47,-0.34,0.47,-0.34,0.34,0.31,0.39,0.80,0.81,0.81
197.22,0.46,-0.33,0.46,-0.33,0.33,0.32,0.38,0.79,0.79,0.79
199.19,0.46,-0.32,0.45,-0.32,0.33,0.32,0.37,0.78,0.78,0.78
201.18,0.45,-0.31,0.44,-0.32,0.32,0.32,0.36,0.77,0.76,0.76
203.19,0.43,-0.32,0.43,-0.31,0.31,0.32,0.34,0.74,0.75,0.75
205.23,0.42,-0.31,0.42,-0.31,0.31,0.32,0.33,0.72,0.73,0.73
207.28,0.42,-0.30,0.41,-0.30,0.30,0.33,0.32,0.72,0.71,0.72
209.35,0.40,-0.30,0.40,-0.30,0.30,0.33,0.31,0.70,0.70,0.70
211.44,0.40,-0.28,0.39,-0.29,0.29,0.33,0.30,0.69,0.69,0.68
213.56,0.38,-0.29,0.38,-0.29,0.29,0.34,0.29,0.67,0.67,0.67
215.69,0.37,-0.29,0.37,-0.29,0.29,0.34,0.28,0.66,0.65,0.65
217.85,0.35,-0.30,0.35,-0.29,0.29,0.34,0.27,0.63,0.64,0.65
220.03,0.35,-0.28,0.34,-0.29,0.29,0.35,0.26,0.63,0.63,0.63
222.23,0.34,-0.28,0.34,-0.28,0.29,0.35,0.25,0.62,0.62,0.62
224.45,0.33,-0.29,0.33,-0.28,0.29,0.35,0.25,0.61,0.62,0.61
226.70,0.32,-0.29,0.32,-0.29,0.29,0.36,0.24,0.61,0.61,0.61
228.96,0.31,-0.29,0.31,-0.29,0.29,0.36,0.23,0.60,0.60,0.60
231.25,0.30,-0.30,0.30,-0.30,0.30,0.36,0.23,0.59,0.59,0.59
233.57,0.29,-0.31,0.29,-0.30,0.30,0.37,0.22,0.59,0.59,0.60
235.90,0.29,-0.30,0.29,-0.31,0.31,0.37,0.22,0.59,0.59,0.59
238.26,0.29,-0.31,0.28,-0.31,0.31,0.38,0.22,0.60,0.60,0.59
240.64,0.28,-0.32,0.28,-0.32,0.32,0.38,0.21,0.59,0.60,0.60
243.05,0.28,-0.32,0.27,-0.32,0.32,0.38,0.21,0.60,0.60,0.59
245.48,0.27,-0.33,0.27,-0.33,0.33,0.39,0.21,0.60,0.60,0.60
247.93,0.27,-0.34,0.27,-0.33,0.33,0.39,0.21,0.60,0.60,0.60
250.41,0.27,-0.34,0.27,-0.34,0.34,0.40,0.21,0.61,0.61,0.61
252.92,0.27,-0.34,0.26,-0.35,0.35,0.40,0.21,0.61,0.61,0.60
255.45,0.26,-0.35,0.26,-0.35,0.35,0.40,0.21,0.61,0.61,0.61
258.00,0.26,-0.36,0.26,-0.35,0.35,0.41,0.22,0.61,0.61,0.62
260.58,0.26,-0.35,0.25,-0.36,0.36,0.41,0.22,0.61,0.61,0.61
263.19,0.25,-0.36,0.25,-0.36,0.36,0.42,0.22,0.61,0.61,0.61
265.82,0.25,-0.37,0.25,-0.36,0.36,0.42,0.23,0.61,0.61,0.61
268.48,0.25,-0.36,0.25,-0.36,0.36,0.43,0.23,0.61,0.61,0.61
271.16,0.25,-0.36,0.24,-0.36,0.37,0.43,0.24,0.61,0.61,0.61
273.87,0.24,-0.37,0.24,-0.37,0.37,0.43,0.25,0.61,0.61,0.60
276.61,0.24,-0.37,0.24,-0.37,0.37,0.44,0.26,0.61,0.61,0.61
279.38,0.24,-0.37,0.23,-0.37,0.37,0.44,0.27,0.61,0.61,0.61
282.17,0.23,-0.38,0.23,-0.38,0.38,0.45,0.27,0.60,0.61,0.60
284.99,0.23,-0.38,0.22,-0.38,0.38,0.45,0.28,0.61,0.60,0.61
287.84,0.22,-0.39,0.22,-0.39,0.38,0.46,0.29,0.60,0.61,0.61
290.72,0.23,-0.39,0.22,-0.39,0.39,0.46,0.31,0.61,0.61,0.62
293.63,0.23,-0.39,0.23,-0.39,0.39,0.47,0.32,0.62,0.62,0.61
296.57,0.23,-0.39,0.22,-0.39,0.40,0.48,0.33,0.62,0.62,0.62
299.53,0.22,-0.40,0.22,-0.40,0.40,0.48,0.34,0.62,0.62,0.62
302.53,0.22,-0.41,0.22,-0.41,0.41,0.49,0.36,0.63,0.63,0.63
305.55,0.22,-0.42,0.22,-0.42,0.42,0.49,0.37,0.63,0.63,0.63
308.61,0.22,-0.42,0.21,-0.43,0.43,0.50,0.38,0.64,0.64,0.64
311.69,0.21,-0.44,0.21,-0.44,0.44,0.50,0.40,0.65,0.65,0.65
314.81,0.21,-0.45,0.20,-0.45,0.45,0.51,0.41,0.66,0.66,0.66
317.96,0.20,-0.47,0.20,-0.47,0.47,0.52,0.43,0.67,0.67,0.67
321.14,0.19,-0.49,0.19,-0.49,0.49,0.52,0.44,0.67,0.68,0.67
324.35,0.18,-0.51,0.18,-0.51,0.50,0.53,0.46,0.68,0.68,0.68
327.59,0.17,-0.52,0.16,-0.52,0.52,0.54,0.48,0.69,0.69,0.69
330.87,0.15,-0.54,0.15,-0.54,0.54,0.55,0.49,0.69,0.69,0.69
334.18,0.14,-0.56,0.14,-0.56,0.56,0.55,0.51,0.70,0.70,0.70
337.52,0.13,-0.57,0.12,-0.58,0.58,0.56,0.53,0.71,0.70,0.70
340.90,0.11,-0.60,0.11,-0.60,0.60,0.57,0.55,0.70,0.70,0.70
344.30,0.09,-0.62,0.09,-0.61,0.61,0.58,0.57,0.70,0.70,0.70
347.75,0.07,-0.63,0.07,-0.63,0.63,0.58,0.59,0.70,0.70,0.70
351.23,0.06,-0.64,0.05,-0.65,0.64,0.59,0.61,0.70,0.70,0.70
354.74,0.04,-0.66,0.04,-0.66,0.66,0.60,0.63,0.70,0.69,0.70
358.28,0.02,-0.67,0.02,-0.67,0.67,0.61,0.65,0.69,0.69,0.69
361.87,0.01,-0.68,0.01,-0.68,0.68,0.62,0.67,0.69,0.69,0.69
365.49,-0.00,-0.69,-0.01,-0.69,0.69,0.63,0.69,0.69,0.69,0.69
369.14,-0.01,-0.70,-0.01,-0.70,0.70,0.64,0.71,0.69,0.69,0.68
372.83,-0.02,-0.71,-0.02,-0.71,0.71,0.65,0.74,0.68,0.69,0.68
376.56,-0.02,-0.72,-0.03,-0.71,0.71,0.66,0.76,0.69,0.69,0.69
380.33,-0.03,-0.73,-0.03,-0.72,0.72,0.67,0.78,0.69,0.69,0.69
384.13,-0.03,-0.72,-0.04,-0.73,0.73,0.68,0.81,0.70,0.69,0.69
387.97,-0.04,-0.74,-0.04,-0.74,0.74,0.69,0.83,0.69,0.70,0.70
391.85,-0.04,-0.74,-0.04,-0.74,0.75,0.70,0.85,0.70,0.70,0.70
395.77,-0.04,-0.75,-0.04,-0.75,0.76,0.71,0.88,0.71,0.71,0.71
399.73,-0.04,-0.76,-0.05,-0.76,0.77,0.72,0.90,0.72,0.72,0.72
403.72,-0.05,-0.77,-0.05,-0.78,0.78,0.73,0.93,0.72,0.72,0.72
407.76,-0.06,-0.79,-0.06,-0.79,0.79,0.75,0.95,0.72,0.72,0.73
411.84,-0.07,-0.81,-0.07,-0.80,0.80,0.76,0.98,0.72,0.73,0.74
415.96,-0.06,-0.81,-0.07,-0.81,0.81,0.77,1.00,0.75,0.74,0.75
420.12,-0.07,-0.82,-0.07,-0.82,0.82,0.78,1.03,0.75,0.75,0.74
424.32,-0.07,-0.83,-0.08,-0.83,0.83,0.80,1.05,0.76,0.76,0.75
428.56,-0.08,-0.85,-0.08,-0.84,0.84,0.81,1.08,0.76,0.76,0.76
432.85,-0.08,-0.86,-0.08,-0.86,0.85,0.82,1.10,0.77,0.77,0.77
437.18,-0.08,-0.87,-0.08,-0.87,0.86,0.84,1.13,0.78,0.78,0.78
441.55,-0.08,-0.87,-0.08,-0.88,0.87,0.85,1.15,0.79,0.79,0.79
445.96,-0.08,-0.88,-0.08,-0.88,0.88,0.87,1.17,0.80,0.80,0.80
450.42,-0.08,-0.89,-0.08,-0.89,0.89,0.88,1.20,0.81,0.81,0.81
454.93,-0.08,-0.90,-0.08,-0.90,0.90,0.90,1.22,0.82,0.82,0.82
459.48,-0.08,-0.91,-0.08,-0.91,0.91,0.91,1.24,0.83,0.83,0.83
464.07,-0.08,-0.92,-0.09,-0.93,0.93,0.93,1.26,0.84,0.84,0.84
468.71,-0.09,-0.94,-0.09,-0.94,0.94,0.94,1.28,0.85,0.85,0.85
473.40,-0.09,-0.95,-0.10,-0.95,0.96,0.96,1.30,0.86,0.86,0.86
478.13,-0.10,-0.97,-0.10,-0.98,0.97,0.98,1.32,0.87,0.87,0.87
482.91,-0.11,-1.00,-0.11,-1.00,1.00,0.99,1.33,0.88,0.88,0.89
487.74,-0.12,-1.02,-0.12,-1.02,1.02,1.01,1.35,0.89,0.90,0.90
492.62,-0.12,-1.04,-0.13,-1.04,1.04,1.03,1.36,0.92,0.91,0.92
497.55,-0.13,-1.06,-0.14,-1.07,1.07,1.05,1.37,0.93,0.93,0.93
502.52,-0.15,-1.10,-0.15,-1.10,1.09,1.06,1.38,0.94,0.95,0.95
507.55,-0.16,-1.13,-0.16,-1.13,1.12,1.08,1.39,0.96,0.96,0.97
512.62,-0.17,-1.16,-0.18,-1.16,1.16,1.10,1.40,0.98,0.98,0.99
517.75,-0.19,-1.19,-0.19,-1.19,1.19,1.12,1.41,1.00,1.00,1.00
522.93,-0.21,-1.23,-0.21,-1.23,1.23,1.14,1.41,1.02,1.02,1.02
528.16,-0.24,-1.28,-0.24,-1.27,1.28,1.16,1.42,1.04,1.04,1.04
533.44,-0.27,-1.32,-0.28,-1.33,1.33,1.18,1.42,1.06,1.05,1.05
538.77,-0.32,-1.39,-0.32,-1.38,1.39,1.20,1.43,1.06,1.07,1.07
544.16,-0.36,-1.44,-0.37,-1.44,1.45,1.22,1.43,1.08,1.08,1.08
