frequency,raw,error,smoothed,error_smoothed,equalization,parametric_eq,fixed_band_eq,equalized_raw,equalized_smoothed,target
20.00,-11.23,-17.09,-11.23,-17.09,6.00,5.87,2.74,-5.23,-5.23,5.86
20.20,-11.10,-16.96,-11.11,-16.97,6.00,5.90,2.82,-5.10,-5.11,5.86
20.40,-10.98,-16.85,-10.98,-16.85,6.00,5.92,2.90,-4.98,-4.98,5.87
20.61,-10.86,-16.73,-10.85,-16.73,6.00,5.94,2.98,-4.86,-4.85,5.88
20.81,-10.72,-16.60,-10.73,-16.61,6.00,5.96,3.06,-4.72,-4.73,5.88
21.02,-10.60,-16.49,-10.60,-16.49,6.00,5.98,3.15,-4.60,-4.60,5.89
21.23,-10.47,-16.36,-10.47,-16.36,6.00,6.00,3.24,-4.47,-4.47,5.89
21.44,-10.34,-16.24,-10.35,-16.24,6.00,6.02,3.33,-4.34,-4.35,5.90
21.66,-10.22,-16.12,-10.21,-16.12,6.00,6.03,3.43,-4.22,-4.21,5.91
21.87,-10.08,-15.99,-10.08,-15.99,6.00,6.05,3.53,-4.08,-4.08,5.91
22.09,-9.94,-15.86,-9.95,-15.86,6.00,6.06,3.63,-3.94,-3.95,5.92
22.31,-9.81,-15.74,-9.81,-15.74,6.00,6.08,3.73,-3.81,-3.81,5.93
22.54,-9.69,-15.61,-9.68,-15.61,6.00,6.09,3.84,-3.69,-3.68,5.93
22.76,-9.55,-15.49,-9.55,-15.49,6.00,6.10,3.95,-3.55,-3.55,5.93
22.99,-9.42,-15.37,-9.42,-15.36,6.00,6.11,4.06,-3.42,-3.42,5.94
23.22,-9.29,-15.24,-9.29,-15.24,6.00,6.12,4.17,-3.29,-3.29,5.95
23.45,-9.15,-15.12,-9.16,-15.12,6.00,6.12,4.29,-3.15,-3.16,5.96
23.69,-9.03,-15.00,-9.02,-14.99,6.00,6.13,4.41,-3.03,-3.02,5.97
23.92,-8.88,-14.87,-8.89,-14.87,6.00,6.13,4.53,-2.88,-2.89,5.98
24.16,-8.75,-14.75,-8.75,-14.75,6.00,6.14,4.65,-2.75,-2.75,5.99
24.40,-8.62,-14.62,-8.62,-14.63,6.00,6.14,4.78,-2.62,-2.62,6.00
24.65,-8.50,-14.52,-8.49,-14.51,6.00,6.15,4.90,-2.50,-2.49,6.02
24.89,-8.36,-14.39,-8.36,-14.39,6.00,6.15,5.03,-2.36,-2.36,6.03
25.14,-8.22,-14.26,-8.23,-14.27,6.00,6.15,5.16,-2.22,-2.23,6.04
25.39,-8.09,-14.14,-8.09,-14.14,6.00,6.15,5.30,-2.09,-2.09,6.05
25.65,-7.96,-14.01,-7.96,-14.02,6.00,6.15,5.43,-1.96,-1.96,6.06
25.91,-7.83,-13.91,-7.83,-13.90,6.00,6.15,5.56,-1.83,-1.83,6.08
26.16,-7.69,-13.78,-7.69,-13.78,6.00,6.15,5.69,-1.69,-1.69,6.09
26.43,-7.56,-13.65,-7.56,-13.66,6.00,6.15,5.83,-1.56,-1.56,6.10
26.69,-7.42,-13.53,-7.43,-13.54,6.00,6.15,5.96,-1.42,-1.43,6.11
26.96,-7.30,-13.42,-7.29,-13.42,6.00,6.14,6.09,-1.30,-1.29,6.13
27.23,-7.17,-13.30,-7.16,-13.30,6.00,6.14,6.22,-1.17,-1.16,6.14
27.50,-7.03,-13.18,-7.03,-13.18,6.00,6.14,6.34,-1.03,-1.03,6.16
27.77,-6.89,-13.06,-6.89,-13.06,6.00,6.14,6.46,-0.89,-0.89,6.16
28.05,-6.76,-12.95,-6.76,-12.95,6.00,6.13,6.58,-0.76,-0.76,6.18
28.33,-6.63,-12.83,-6.63,-12.83,6.00,6.13,6.70,-0.63,-0.63,6.19
28.62,-6.51,-12.72,-6.50,-12.71,6.00,6.13,6.80,-0.51,-0.50,6.21
28.90,-6.36,-12.59,-6.37,-12.59,6.00,6.12,6.90,-0.36,-0.37,6.22
29.19,-6.24,-12.48,-6.24,-12.48,6.00,6.12,7.00,-0.24,-0.24,6.24
29.48,-6.11,-12.36,-6.11,-12.36,6.00,6.12,7.08,-0.11,-0.11,6.25
29.78,-5.99,-12.25,-5.99,-12.25,6.00,6.11,7.16,0.01,0.01,6.27
30.08,-5.86,-12.13,-5.86,-12.13,6.00,6.11,7.23,0.14,0.14,6.28
30.38,-5.73,-12.02,-5.73,-12.02,6.00,6.11,7.28,0.27,0.27,6.30
30.68,-5.60,-11.91,-5.61,-11.91,6.00,6.10,7.33,0.40,0.39,6.31
30.99,-5.49,-11.81,-5.48,-11.81,6.00,6.10,7.37,0.51,0.52,6.32
31.30,-5.37,-11.70,-5.37,-11.70,6.00,6.10,7.40,0.63,0.63,6.33
31.61,-5.24,-11.60,-5.25,-11.60,6.00,6.10,7.41,0.76,0.75,6.35
31.93,-5.13,-11.49,-5.13,-11.49,6.00,6.09,7.42,0.87,0.87,6.36
32.24,-5.00,-11.38,-5.00,-11.38,6.00,6.09,7.42,1.00,1.00,6.38
32.57,-4.89,-11.27,-4.88,-11.27,6.00,6.09,7.40,1.11,1.12,6.39
32.89,-4.76,-11.17,-4.76,-11.17,6.00,6.09,7.38,1.24,1.24,6.41
33.22,-4.64,-11.06,-4.64,-11.06,6.00,6.09,7.35,1.36,1.36,6.41
33.55,-4.52,-10.96,-4.52,-10.95,6.00,6.09,7.31,1.48,1.48,6.43
33.89,-4.40,-10.85,-4.40,-10.85,6.00,6.09,7.27,1.60,1.60,6.44
34.23,-4.29,-10.74,-4.28,-10.74,6.00,6.09,7.21,1.71,1.72,6.46
34.57,-4.16,-10.63,-4.16,-10.63,6.00,6.09,7.15,1.84,1.84,6.47
34.92,-4.05,-10.52,-4.05,-10.53,6.00,6.09,7.09,1.95,1.95,6.48
35.27,-3.93,-10.42,-3.93,-10.42,6.00,6.09,7.02,2.07,2.07,6.49
35.62,-3.82,-10.32,-3.81,-10.32,6.00,6.10,6.95,2.18,2.19,6.50
35.97,-3.70,-10.21,-3.70,-10.21,6.00,6.10,6.88,2.30,2.30,6.51
36.33,-3.58,-10.10,-3.59,-10.10,6.00,6.10,6.80,2.42,2.41,6.52
36.70,-3.48,-10.00,-3.47,-10.00,6.00,6.11,6.72,2.52,2.53,6.53
37.06,-3.35,-9.89,-3.36,-9.89,6.00,6.11,6.65,2.65,2.64,6.53
37.43,-3.24,-9.78,-3.25,-9.79,6.00,6.11,6.57,2.76,2.75,6.54
37.81,-3.13,-9.68,-3.14,-9.68,6.00,6.12,6.49,2.87,2.86,6.55
38.19,-3.04,-9.59,-3.03,-9.59,6.00,6.12,6.42,2.96,2.97,6.56
38.57,-2.92,-9.49,-2.92,-9.49,6.00,6.13,6.34,3.08,3.08,6.56
38.95,-2.81,-9.38,-2.82,-9.39,6.00,6.14,6.27,3.19,3.18,6.57
39.34,-2.71,-9.29,-2.71,-9.29,6.00,6.14,6.20,3.29,3.29,6.58
39.74,-2.61,-9.19,-2.61,-9.19,6.00,6.15,6.13,3.39,3.39,6.58
40.14,-2.51,-9.09,-2.50,-9.09,6.00,6.15,6.07,3.49,3.50,6.58
40.54,-2.41,-8.99,-2.40,-8.99,6.00,6.16,6.01,3.59,3.60,6.59
40.94,-2.29,-8.89,-2.30,-8.89,6.00,6.17,5.95,3.71,3.70,6.59
41.35,-2.20,-8.80,-2.20,-8.80,6.00,6.17,5.90,3.80,3.80,6.60
41.76,-2.10,-8.71,-2.11,-8.71,6.00,6.18,5.85,3.90,3.89,6.61
42.18,-2.01,-8.63,-2.01,-8.62,6.00,6.19,5.80,3.99,3.99,6.61
42.60,-1.91,-8.53,-1.91,-8.53,6.00,6.19,5.76,4.09,4.09,6.62
43.03,-1.81,-8.44,-1.82,-8.44,6.00,6.20,5.72,4.19,4.18,6.62
43.46,-1.72,-8.35,-1.72,-8.35,6.00,6.20,5.69,4.28,4.28,6.63
43.90,-1.63,-8.26,-1.63,-8.27,6.00,6.21,5.66,4.37,4.37,6.64
44.33,-1.53,-8.18,-1.54,-8.18,6.00,6.21,5.64,4.47,4.46,6.65
44.78,-1.45,-8.10,-1.44,-8.10,6.00,6.22,5.62,4.55,4.56,6.66
45.23,-1.36,-8.02,-1.36,-8.02,6.00,6.22,5.60,4.64,4.64,6.66
45.68,-1.27,-7.94,-1.27,-7.94,6.00,6.23,5.59,4.73,4.73,6.68
46.13,-1.18,-7.86,-1.18,-7.86,6.00,6.23,5.58,4.82,4.82,6.68
46.60,-1.10,-7.79,-1.10,-7.79,6.00,6.23,5.57,4.90,4.90,6.69
47.06,-1.01,-7.71,-1.01,-7.72,6.00,6.23,5.57,4.99,4.99,6.70
47.53,-0.93,-7.65,-0.93,-7.64,6.00,6.23,5.58,5.07,5.07,6.71
48.01,-0.86,-7.57,-0.85,-7.57,6.00,6.23,5.58,5.14,5.15,6.72
48.49,-0.78,-7.50,-0.77,-7.50,6.00,6.23,5.60,5.22,5.23,6.73
48.97,-0.68,-7.42,-0.69,-7.43,6.00,6.23,5.61,5.32,5.31,6.73
49.46,-0.61,-7.36,-0.61,-7.36,6.00,6.23,5.63,5.39,5.39,6.75
49.96,-0.55,-7.29,-0.54,-7.29,6.00,6.22,5.65,5.45,5.46,6.75
50.46,-0.48,-7.23,-0.48,-7.23,6.00,6.21,5.67,5.52,5.52,6.75
50.96,-0.41,-7.18,-0.41,-7.17,6.00,6.21,5.70,5.59,5.59,6.76
51.47,-0.35,-7.12,-0.35,-7.12,6.00,6.20,5.72,5.65,5.65,6.76
51.99,-0.30,-7.06,-0.30,-7.06,6.00,6.19,5.75,5.70,5.70,6.77
52.51,-0.24,-7.00,-0.24,-7.00,6.00,6.18,5.79,5.76,5.76,6.77
53.03,-0.18,-6.95,-0.18,-6.95,6.00,6.17,5.82,5.82,5.82,6.77
53.56,-0.12,-6.90,-0.13,-6.90,6.00,6.15,5.85,5.88,5.87,6.78
54.10,-0.07,-6.85,-0.08,-6.86,6.00,6.14,5.89,5.93,5.92,6.78
54.64,-0.03,-6.81,-0.03,-6.81,6.00,6.12,5.92,5.97,5.97,6.78
55.18,0.01,-6.76,0.01,-6.76,6.00,6.10,5.95,6.01,6.01,6.77
55.74,0.05,-6.71,0.05,-6.71,6.00,6.09,5.98,6.05,6.05,6.77
56.29,0.10,-6.67,0.10,-6.67,6.00,6.07,6.01,6.10,6.10,6.77
56.86,0.14,-6.61,0.14,-6.61,6.00,6.04,6.04,6.14,6.14,6.75
57.42,0.19,-6.57,0.19,-6.56,6.00,6.02,6.07,6.19,6.19,6.75
58.00,0.24,-6.50,0.24,-6.51,6.00,6.00,6.09,6.24,6.24,6.74
58.58,0.29,-6.45,0.28,-6.45,6.00,5.97,6.11,6.29,6.28,6.74
59.16,0.33,-6.40,0.33,-6.40,6.00,5.95,6.12,6.33,6.33,6.72
59.76,0.37,-6.35,0.37,-6.34,6.00,5.92,6.14,6.37,6.37,6.71
60.35,0.41,-6.29,0.40,-6.29,6.01,5.90,6.14,6.42,6.41,6.70
60.96,0.45,-6.24,0.44,-6.24,6.01,5.87,6.14,6.46,6.45,6.68
61.57,0.48,-6.19,0.48,-6.19,6.01,5.84,6.14,6.49,6.49,6.67
62.18,0.52,-6.14,0.52,-6.13,6.00,5.81,6.13,6.52,6.52,6.65
62.80,0.57,-6.07,0.56,-6.07,5.98,5.78,6.12,6.55,6.54,6.64
63.43,0.61,-6.01,0.61,-6.01,5.96,5.75,6.10,6.56,6.57,6.62
64.07,0.66,-5.94,0.66,-5.94,5.92,5.72,6.07,6.58,6.58,6.59
64.71,0.71,-5.87,0.70,-5.87,5.87,5.69,6.04,6.58,6.58,6.57
65.35,0.75,-5.81,0.75,-5.81,5.82,5.65,6.00,6.57,6.57,6.56
66.01,0.79,-5.75,0.79,-5.75,5.76,5.62,5.96,6.54,6.55,6.54
66.67,0.84,-5.68,0.83,-5.69,5.69,5.59,5.92,6.53,6.53,6.52
67.33,0.88,-5.62,0.87,-5.62,5.63,5.56,5.87,6.50,6.50,6.50
68.01,0.92,-5.55,0.91,-5.56,5.56,5.52,5.82,6.48,6.48,6.47
68.69,0.95,-5.50,0.95,-5.50,5.50,5.49,5.76,6.45,6.45,6.45
69.37,0.99,-5.44,0.98,-5.44,5.45,5.46,5.70,6.43,6.43,6.43
70.07,1.02,-5.39,1.01,-5.39,5.39,5.42,5.64,6.40,6.40,6.41
70.77,1.05,-5.34,1.05,-5.34,5.33,5.39,5.58,6.38,6.38,6.38
71.48,1.08,-5.28,1.08,-5.28,5.28,5.36,5.51,6.35,6.36,6.36
72.19,1.12,-5.22,1.12,-5.22,5.22,5.33,5.45,6.34,6.34,6.34
72.91,1.16,-5.17,1.15,-5.16,5.17,5.29,5.38,6.32,6.32,6.32
73.64,1.20,-5.10,1.19,-5.11,5.11,5.26,5.32,6.31,6.30,6.30
74.38,1.23,-5.06,1.22,-5.06,5.05,5.23,5.25,6.28,6.28,6.28
75.12,1.26,-5.00,1.26,-5.00,4.99,5.20,5.19,6.25,6.25,6.26
75.87,1.29,-4.95,1.29,-4.95,4.94,5.17,5.12,6.22,6.23,6.24
76.63,1.34,-4.89,1.33,-4.89,4.88,5.14,5.06,6.22,6.22,6.22
77.40,1.38,-4.83,1.38,-4.83,4.83,5.10,5.00,6.21,6.21,6.20
78.17,1.42,-4.77,1.41,-4.77,4.79,5.07,4.94,6.20,6.20,6.19
78.95,1.44,-4.73,1.43,-4.73,4.74,5.04,4.88,6.18,6.18,6.17
79.74,1.45,-4.70,1.45,-4.70,4.70,5.01,4.82,6.15,6.15,6.15
80.54,1.46,-4.67,1.45,-4.67,4.67,4.99,4.77,6.12,6.12,6.13
81.35,1.46,-4.65,1.46,-4.65,4.64,4.96,4.72,6.10,6.10,6.11
82.16,1.47,-4.62,1.46,-4.62,4.62,4.93,4.67,6.08,6.08,6.09
82.98,1.47,-4.60,1.46,-4.60,4.60,4.90,4.63,6.07,6.06,6.06
83.81,1.46,-4.59,1.46,-4.58,4.59,4.87,4.59,6.04,6.05,6.04
84.65,1.45,-4.57,1.44,-4.57,4.58,4.85,4.55,6.03,6.03,6.02
85.50,1.43,-4.57,1.42,-4.57,4.58,4.82,4.52,6.01,6.00,6.00
86.35,1.40,-4.58,1.39,-4.58,4.59,4.79,4.49,5.98,5.98,5.97
87.22,1.36,-4.59,1.36,-4.59,4.59,4.77,4.46,5.95,5.95,5.95
88.09,1.33,-4.60,1.32,-4.60,4.60,4.74,4.43,5.92,5.92,5.92
88.97,1.29,-4.62,1.29,-4.62,4.61,4.72,4.41,5.89,5.89,5.91
89.86,1.26,-4.63,1.26,-4.62,4.61,4.69,4.39,5.86,5.87,5.88
90.76,1.24,-4.62,1.24,-4.62,4.61,4.67,4.38,5.84,5.85,5.85
91.66,1.23,-4.61,1.22,-4.61,4.61,4.65,4.37,5.83,5.83,5.84
92.58,1.22,-4.60,1.21,-4.60,4.60,4.63,4.36,5.81,5.81,5.81
93.51,1.21,-4.58,1.21,-4.58,4.58,4.60,4.35,5.79,5.79,5.78
94.44,1.20,-4.57,1.20,-4.57,4.57,4.58,4.35,5.77,5.77,5.77
95.39,1.19,-4.55,1.19,-4.56,4.56,4.56,4.35,5.74,5.74,5.74
96.34,1.18,-4.54,1.17,-4.54,4.55,4.54,4.35,5.72,5.72,5.72
97.30,1.16,-4.54,1.16,-4.53,4.54,4.52,4.36,5.70,5.70,5.69
98.28,1.14,-4.53,1.13,-4.53,4.54,4.50,4.37,5.67,5.67,5.66
99.26,1.11,-4.53,1.11,-4.53,4.54,4.48,4.38,5.64,5.64,5.63
100.25,1.08,-4.54,1.08,-4.54,4.53,4.46,4.39,5.61,5.61,5.62
101.25,1.05,-4.54,1.04,-4.54,4.53,4.44,4.41,5.58,5.58,5.59
102.27,1.02,-4.54,1.02,-4.54,4.53,4.43,4.43,5.55,5.55,5.56
103.29,1.00,-4.52,0.99,-4.53,4.53,4.41,4.44,5.52,5.52,5.52
104.32,0.98,-4.51,0.97,-4.52,4.52,4.39,4.46,5.49,5.49,5.49
105.37,0.95,-4.51,0.95,-4.51,4.51,4.37,4.49,5.45,5.45,5.46
106.42,0.93,-4.49,0.92,-4.49,4.49,4.36,4.51,5.42,5.41,5.42
107.48,0.91,-4.47,0.90,-4.48,4.47,4.34,4.53,5.38,5.38,5.38
108.56,0.89,-4.46,0.89,-4.45,4.45,4.33,4.55,5.34,5.34,5.34
109.64,0.88,-4.43,0.87,-4.43,4.43,4.31,4.58,5.31,5.30,5.30
110.74,0.86,-4.41,0.86,-4.41,4.41,4.30,4.60,5.26,5.26,5.26
111.85,0.84,-4.39,0.84,-4.38,4.39,4.28,4.62,5.22,5.22,5.22
112.97,0.82,-4.36,0.81,-4.37,4.37,4.27,4.64,5.18,5.18,5.17
114.10,0.79,-4.35,0.79,-4.35,4.35,4.26,4.66,5.13,5.14,5.14
115.24,0.76,-4.33,0.76,-4.33,4.33,4.24,4.68,5.09,5.09,5.09
116.39,0.74,-4.31,0.73,-4.32,4.32,4.23,4.69,5.06,5.05,5.05
117.55,0.71,-4.30,0.70,-4.30,4.31,4.22,4.70,5.01,5.01,5.00
118.73,0.67,-4.30,0.66,-4.30,4.30,4.21,4.71,4.96,4.96,4.96
119.92,0.63,-4.29,0.63,-4.29,4.28,4.19,4.72,4.91,4.91,4.92
121.12,0.60,-4.29,0.60,-4.28,4.27,4.18,4.72,4.87,4.87,4.88
122.33,0.59,-4.26,0.58,-4.26,4.25,4.17,4.72,4.84,4.84,4.84
123.55,0.58,-4.23,0.57,-4.24,4.23,4.16,4.71,4.81,4.80,4.81
124.79,0.56,-4.22,0.56,-4.21,4.21,4.15,4.70,4.77,4.77,4.77
126.03,0.55,-4.19,0.55,-4.19,4.19,4.15,4.69,4.74,4.74,4.74
127.29,0.54,-4.17,0.53,-4.17,4.17,4.14,4.67,4.71,4.70,4.70
128.57,0.53,-4.14,0.52,-4.15,4.15,4.13,4.65,4.68,4.67,4.67
129.85,0.51,-4.13,0.51,-4.13,4.14,4.12,4.63,4.64,4.65,4.64
131.15,0.49,-4.12,0.49,-4.12,4.13,4.12,4.60,4.61,4.61,4.60
132.46,0.47,-4.11,0.46,-4.12,4.12,4.11,4.57,4.59,4.58,4.57
133.79,0.43,-4.12,0.43,-4.12,4.12,4.10,4.54,4.54,4.54,4.55
135.12,0.39,-4.13,0.39,-4.12,4.11,4.10,4.50,4.50,4.51,4.52
136.48,0.37,-4.12,0.36,-4.13,4.12,4.09,4.46,4.48,4.48,4.49
137.84,0.34,-4.12,0.34,-4.12,4.12,4.09,4.42,4.45,4.46,4.46
139.22,0.32,-4.11,0.31,-4.11,4.12,4.09,4.37,4.44,4.44,4.43
140.61,0.29,-4.11,0.28,-4.12,4.13,4.09,4.33,4.41,4.41,4.40
142.02,0.25,-4.13,0.25,-4.13,4.13,4.08,4.28,4.37,4.38,4.38
143.44,0.22,-4.14,0.21,-4.14,4.13,4.08,4.23,4.34,4.34,4.35
144.87,0.18,-4.15,0.18,-4.14,4.13,4.08,4.19,4.31,4.31,4.32
146.32,0.16,-4.13,0.15,-4.14,4.13,4.08,4.14,4.29,4.29,4.29
147.78,0.13,-4.14,0.13,-4.13,4.14,4.09,4.09,4.26,4.26,4.26
149.26,0.11,-4.13,0.10,-4.13,4.14,4.09,4.04,4.24,4.24,4.23
150.75,0.08,-4.13,0.07,-4.13,4.14,4.09,3.99,4.21,4.21,4.21
152.26,0.05,-4.14,0.05,-4.14,4.14,4.10,3.95,4.18,4.18,4.19
153.78,0.02,-4.14,0.01,-4.14,4.14,4.10,3.90,4.15,4.15,4.15
155.32,-0.01,-4.14,-0.01,-4.14,4.14,4.11,3.86,4.12,4.13,4.13
156.88,-0.03,-4.14,-0.03,-4.14,4.13,4.12,3.81,4.10,4.10,4.11
158.44,-0.04,-4.13,-0.05,-4.13,4.13,4.12,3.77,4.09,4.08,4.08
160.03,-0.07,-4.13,-0.07,-4.13,4.13,4.13,3.73,4.06,4.06,4.05
161.63,-0.09,-4.13,-0.09,-4.12,4.13,4.14,3.70,4.03,4.03,4.03
163.24,-0.11,-4.12,-0.12,-4.12,4.12,4.15,3.66,4.01,4.00,4.00
164.88,-0.14,-4.13,-0.14,-4.12,4.12,4.16,3.63,3.97,3.98,3.98
166.53,-0.16,-4.12,-0.16,-4.11,4.11,4.18,3.60,3.95,3.95,3.95
168.19,-0.17,-4.10,-0.19,-4.11,4.11,4.19,3.57,3.93,3.92,3.92
169.87,-0.21,-4.11,-0.21,-4.10,4.10,4.20,3.54,3.89,3.90,3.90
171.57,-0.23,-4.10,-0.23,-4.10,4.10,4.21,3.52,3.87,3.87,3.87
173.29,-0.25,-4.10,-0.26,-4.10,4.10,4.21,3.50,3.85,3.84,3.84
175.02,-0.29,-4.11,-0.29,-4.10,4.10,4.22,3.48,3.81,3.81,3.81
176.77,-0.32,-4.10,-0.32,-4.10,4.11,4.23,3.47,3.78,3.78,3.78
178.54,-0.35,-4.11,-0.36,-4.11,4.11,4.23,3.45,3.76,3.76,3.75
180.32,-0.39,-4.11,-0.39,-4.11,4.12,4.23,3.44,3.73,3.73,3.72
182.13,-0.42,-4.12,-0.44,-4.13,4.13,4.22,3.44,3.70,3.69,3.69
183.95,-0.49,-4.15,-0.48,-4.14,4.13,4.22,3.43,3.64,3.65,3.66
185.79,-0.52,-4.15,-0.52,-4.15,4.14,4.21,3.43,3.61,3.62,3.62
187.65,-0.54,-4.15,-0.55,-4.15,4.14,4.19,3.43,3.60,3.59,3.60
189.52,-0.57,-4.14,-0.57,-4.14,4.14,4.18,3.43,3.57,3.57,3.57
191.42,-0.59,-4.13,-0.60,-4.13,4.15,4.16,3.44,3.55,3.55,3.54
193.33,-0.62,-4.13,-0.63,-4.14,4.15,4.13,3.44,3.52,3.52,3.50
195.27,-0.66,-4.15,-0.66,-4.14,4.14,4.11,3.45,3.48,3.48,3.48
197.22,-0.69,-4.15,-0.69,-4.14,4.14,4.08,3.46,3.44,3.45,3.45
199.19,-0.71,-4.13,-0.72,-4.13,4.13,4.05,3.48,3.41,3.41,3.42
201.18,-0.73,-4.11,-0.74,-4.12,4.12,4.02,3.49,3.38,3.38,3.38
203.19,-0.75,-4.10,-0.75,-4.10,4.10,3.98,3.51,3.34,3.34,3.35
205.23,-0.76,-4.08,-0.76,-4.08,4.07,3.95,3.52,3.31,3.31,3.32
207.28,-0.76,-4.05,-0.76,-4.05,4.05,3.92,3.54,3.28,3.28,3.29
209.35,-0.75,-4.02,-0.76,-4.01,4.01,3.89,3.56,3.26,3.26,3.26
211.44,-0.74,-3.97,-0.75,-3.97,3.98,3.85,3.58,3.23,3.23,3.22
213.56,-0.74,-3.94,-0.74,-3.93,3.94,3.82,3.60,3.20,3.20,3.19
215.69,-0.74,-3.90,-0.74,-3.90,3.90,3.79,3.62,3.16,3.16,3.15
217.85,-0.74,-3.86,-0.74,-3.87,3.87,3.76,3.64,3.12,3.12,3.12
220.03,-0.74,-3.83,-0.74,-3.83,3.83,3.73,3.66,3.09,3.09,3.09
222.23,-0.74,-3.81,-0.74,-3.80,3.80,3.70,3.68,3.05,3.05,3.06
224.45,-0.74,-3.77,-0.74,-3.77,3.77,3.67,3.70,3.03,3.03,3.02
226.70,-0.74,-3.74,-0.74,-3.74,3.75,3.64,3.71,3.00,3.00,3.00
228.96,-0.74,-3.72,-0.74,-3.71,3.72,3.62,3.73,2.98,2.98,2.97
231.25,-0.74,-3.69,-0.75,-3.70,3.70,3.59,3.74,2.96,2.95,2.94
233.57,-0.75,-3.68,-0.75,-3.68,3.68,3.57,3.75,2.93,2.93,2.93
235.90,-0.76,-3.67,-0.76,-3.67,3.67,3.54,3.76,2.90,2.90,2.90
238.26,-0.76,-3.65,-0.77,-3.65,3.65,3.52,3.77,2.88,2.88,2.89
240.64,-0.76,-3.64,-0.76,-3.63,3.63,3.50,3.77,2.86,2.86,2.87
243.05,-0.75,-3.61,-0.75,-3.61,3.60,3.47,3.77,2.85,2.85,2.86
245.48,-0.73,-3.58,-0.74,-3.58,3.58,3.45,3.77,2.84,2.84,2.84
247.93,-0.71,-3.54,-0.72,-3.54,3.54,3.43,3.76,2.83,2.83,2.83
250.41,-0.69,-3.51,-0.69,-3.50,3.50,3.41,3.75,2.81,2.81,2.81
252.92,-0.66,-3.46,-0.66,-3.46,3.46,3.39,3.74,2.79,2.79,2.80
255.45,-0.62,-3.41,-0.63,-3.41,3.40,3.37,3.72,2.78,2.78,2.78
258.00,-0.58,-3.35,-0.58,-3.35,3.34,3.35,3.70,2.76,2.76,2.77
260.58,-0.52,-3.29,-0.53,-3.29,3.28,3.33,3.68,2.76,2.75,2.76
263.19,-0.47,-3.22,-0.47,-3.22,3.21,3.31,3.65,2.74,2.74,2.75
265.82,-0.40,-3.14,-0.41,-3.15,3.14,3.29,3.62,2.74,2.73,2.74
268.48,-0.34,-3.07,-0.35,-3.07,3.07,3.27,3.59,2.73,2.73,2.72
271.16,-0.29,-3.00,-0.29,-2.99,3.00,3.26,3.55,2.71,2.72,2.71
273.87,-0.22,-2.92,-0.24,-2.93,2.94,3.24,3.52,2.72,2.71,2.70
276.61,-0.19,-2.88,-0.19,-2.88,2.88,3.22,3.48,2.69,2.69,2.68
279.38,-0.16,-2.83,-0.16,-2.83,2.83,3.20,3.44,2.67,2.67,2.67
282.17,-0.13,-2.79,-0.14,-2.79,2.79,3.19,3.40,2.66,2.65,2.66
284.99,-0.11,-2.76,-0.11,-2.76,2.75,3.17,3.35,2.64,2.64,2.64
287.84,-0.09,-2.72,-0.10,-2.73,2.73,3.15,3.31,2.63,2.63,2.63
290.72,-0.08,-2.70,-0.08,-2.70,2.71,3.14,3.26,2.62,2.62,2.62
293.63,-0.07,-2.68,-0.08,-2.68,2.69,3.12,3.22,2.61,2.61,2.60
296.57,-0.07,-2.67,-0.08,-2.67,2.67,3.10,3.17,2.60,2.60,2.59
299.53,-0.08,-2.66,-0.08,-2.66,2.66,3.09,3.13,2.58,2.58,2.58
302.53,-0.08,-2.65,-0.09,-2.65,2.65,3.07,3.08,2.56,2.56,2.57
305.55,-0.09,-2.64,-0.09,-2.64,2.63,3.06,3.04,2.54,2.54,2.55
308.61,-0.09,-2.63,-0.09,-2.63,2.62,3.04,3.00,2.52,2.52,2.53
311.69,-0.09,-2.62,-0.09,-2.61,2.60,3.02,2.96,2.51,2.51,2.52
314.81,-0.08,-2.58,-0.08,-2.59,2.58,3.01,2.91,2.50,2.50,2.50
317.96,-0.07,-2.56,-0.08,-2.56,2.57,2.99,2.87,2.49,2.49,2.49
321.14,-0.07,-2.54,-0.07,-2.54,2.55,2.98,2.84,2.48,2.48,2.47
324.35,-0.07,-2.53,-0.08,-2.53,2.54,2.96,2.80,2.46,2.46,2.45
327.59,-0.09,-2.53,-0.09,-2.52,2.53,2.94,2.76,2.44,2.44,2.43
330.87,-0.10,-2.53,-0.11,-2.53,2.53,2.93,2.73,2.43,2.42,2.42
334.18,-0.12,-2.52,-0.13,-2.53,2.53,2.91,2.70,2.41,2.40,2.40
337.52,-0.16,-2.55,-0.16,-2.54,2.54,2.90,2.67,2.38,2.39,2.39
340.90,-0.18,-2.55,-0.19,-2.56,2.55,2.88,2.64,2.37,2.37,2.37
344.30,-0.21,-2.57,-0.22,-2.57,2.57,2.87,2.61,2.35,2.35,2.35
347.75,-0.25,-2.59,-0.25,-2.58,2.58,2.85,2.59,2.33,2.33,2.33
351.23,-0.28,-2.60,-0.28,-2.60,2.60,2.83,2.57,2.32,2.32,2.31
354.74,-0.31,-2.62,-0.32,-2.61,2.62,2.82,2.54,2.30,2.30,2.30
358.28,-0.34,-2.62,-0.35,-2.63,2.63,2.80,2.53,2.28,2.28,2.28
361.87,-0.37,-2.63,-0.38,-2.64,2.63,2.79,2.51,2.26,2.26,2.26
365.49,-0.40,-2.65,-0.40,-2.64,2.64,2.77,2.49,2.23,2.24,2.25
369.14,-0.41,-2.64,-0.42,-2.65,2.63,2.76,2.48,2.22,2.22,2.23
372.83,-0.42,-2.64,-0.42,-2.64,2.62,2.74,2.47,2.20,2.20,2.22
376.56,-0.42,-2.62,-0.42,-2.62,2.61,2.72,2.46,2.19,2.19,2.19
380.33,-0.42,-2.60,-0.42,-2.60,2.60,2.71,2.45,2.18,2.18,2.17
384.13,-0.41,-2.58,-0.42,-2.58,2.59,2.69,2.45,2.18,2.17,2.16
387.97,-0.42,-2.57,-0.42,-2.57,2.58,2.68,2.44,2.16,2.16,2.14
391.85,-0.43,-2.57,-0.44,-2.57,2.58,2.66,2.44,2.15,2.15,2.13
395.77,-0.46,-2.59,-0.46,-2.58,2.59,2.65,2.44,2.12,2.13,2.12
399.73,-0.48,-2.59,-0.49,-2.60,2.60,2.63,2.44,2.11,2.11,2.11
403.72,-0.52,-2.62,-0.52,-2.62,2.62,2.61,2.44,2.09,2.09,2.10
407.76,-0.55,-2.64,-0.55,-2.64,2.64,2.60,2.44,2.08,2.08,2.09
411.84,-0.58,-2.65,-0.59,-2.66,2.66,2.58,2.45,2.07,2.07,2.07
415.96,-0.62,-2.68,-0.62,-2.68,2.68,2.57,2.45,2.06,2.06,2.06
420.12,-0.65,-2.70,-0.65,-2.70,2.70,2.55,2.46,2.05,2.05,2.05
424.32,-0.68,-2.72,-0.68,-2.72,2.72,2.53,2.46,2.03,2.04,2.04
428.56,-0.70,-2.73,-0.71,-2.73,2.73,2.52,2.47,2.02,2.02,2.03
432.85,-0.72,-2.73,-0.73,-2.74,2.74,2.50,2.48,2.01,2.01,2.00
437.18,-0.75,-2.75,-0.75,-2.74,2.74,2.49,2.48,1.98,1.99,1.99
441.55,-0.76,-2.75,-0.76,-2.74,2.73,2.47,2.49,1.97,1.97,1.98
445.96,-0.76,-2.73,-0.76,-2.73,2.72,2.45,2.49,1.95,1.95,1.96
450.42,-0.75,-2.70,-0.76,-2.71,2.70,2.44,2.50,1.95,1.95,1.94
454.93,-0.75,-2.69,-0.75,-2.68,2.69,2.42,2.50,1.93,1.93,1.93
459.48,-0.74,-2.66,-0.75,-2.66,2.67,2.41,2.51,1.92,1.92,1.91
464.07,-0.74,-2.64,-0.75,-2.64,2.64,2.39,2.51,1.90,1.90,1.89
468.71,-0.74,-2.62,-0.74,-2.62,2.62,2.37,2.51,1.88,1.88,1.87
473.40,-0.74,-2.61,-0.74,-2.60,2.60,2.36,2.51,1.86,1.86,1.86
478.13,-0.74,-2.58,-0.74,-2.59,2.58,2.34,2.51,1.84,1.84,1.84
482.91,-0.74,-2.57,-0.74,-2.57,2.57,2.32,2.51,1.83,1.83,1.83
487.74,-0.74,-2.55,-0.74,-2.56,2.56,2.31,2.50,1.81,1.81,1.81
492.62,-0.74,-2.54,-0.74,-2.54,2.55,2.29,2.49,1.81,1.81,1.80
497.55,-0.74,-2.53,-0.74,-2.53,2.54,2.27,2.48,1.80,1.80,1.79
502.52,-0.74,-2.52,-0.75,-2.53,2.53,2.26,2.47,1.79,1.78,1.78
507.55,-0.75,-2.52,-0.75,-2.52,2.52,2.24,2.46,1.77,1.77,1.77
512.62,-0.76,-2.51,-0.76,-2.51,2.51,2.22,2.44,1.75,1.75,1.75
517.75,-0.76,-2.50,-0.77,-2.50,2.49,2.21,2.43,1.73,1.73,1.74
