frequency,raw,error,smoothed,error_smoothed,equalization,parametric_eq,fixed_band_eq,equalized_raw,equalized_smoothed,target
20.00,-7.94,-8.43,-7.94,-8.43,6.00,7.36,1.61,-1.94,-1.94,0.49
20.20,-7.80,-8.33,-7.80,-8.33,6.00,7.27,1.66,-1.80,-1.80,0.53
20.40,-7.65,-8.23,-7.65,-8.22,6.00,7.18,1.71,-1.65,-1.65,0.57
20.61,-7.52,-8.11,-7.52,-8.12,6.00,7.09,1.76,-1.52,-1.52,0.59
20.81,-7.37,-8.01,-7.37,-8.01,6.00,7.00,1.81,-1.37,-1.37,0.63
21.02,-7.24,-7.91,-7.24,-7.90,6.00,6.91,1.87,-1.24,-1.24,0.67
21.23,-7.11,-7.79,-7.11,-7.80,6.00,6.82,1.93,-1.11,-1.11,0.68
21.44,-6.98,-7.69,-6.98,-7.68,6.00,6.73,1.99,-0.98,-0.98,0.70
21.66,-6.86,-7.57,-6.85,-7.56,6.00,6.64,2.05,-0.86,-0.85,0.71
21.87,-6.72,-7.44,-6.73,-7.44,6.00,6.55,2.11,-0.72,-0.73,0.71
22.09,-6.61,-7.33,-6.61,-7.33,6.00,6.45,2.17,-0.61,-0.61,0.72
22.31,-6.50,-7.22,-6.50,-7.22,6.00,6.36,2.24,-0.50,-0.50,0.72
22.54,-6.40,-7.12,-6.40,-7.11,6.00,6.27,2.31,-0.40,-0.40,0.72
22.76,-6.29,-6.99,-6.29,-7.00,6.00,6.17,2.38,-0.29,-0.29,0.71
22.99,-6.18,-6.88,-6.17,-6.87,6.01,6.08,2.45,-0.17,-0.17,0.70
23.22,-6.06,-6.75,-6.05,-6.75,6.02,5.98,2.52,-0.04,-0.04,0.70
23.45,-5.93,-6.61,-5.93,-6.62,6.02,5.89,2.60,0.10,0.09,0.69
23.69,-5.81,-6.50,-5.81,-6.49,6.02,5.79,2.67,0.21,0.22,0.69
23.92,-5.67,-6.36,-5.67,-6.36,6.01,5.70,2.75,0.33,0.33,0.69
24.16,-5.53,-6.23,-5.53,-6.23,5.98,5.60,2.83,0.44,0.44,0.70
24.40,-5.38,-6.08,-5.39,-6.08,5.93,5.50,2.91,0.55,0.54,0.70
24.65,-5.25,-5.93,-5.24,-5.93,5.87,5.40,2.99,0.62,0.63,0.69
24.89,-5.09,-5.78,-5.10,-5.79,5.79,5.31,3.07,0.70,0.69,0.68
25.14,-4.97,-5.66,-4.98,-5.66,5.70,5.21,3.15,0.72,0.72,0.68
25.39,-4.87,-5.56,-4.88,-5.56,5.59,5.11,3.24,0.72,0.71,0.68
25.65,-4.79,-5.46,-4.78,-5.45,5.47,5.01,3.32,0.69,0.69,0.67
25.91,-4.69,-5.35,-4.68,-5.35,5.35,4.91,3.40,0.66,0.67,0.66
26.16,-4.56,-5.23,-4.57,-5.23,5.22,4.81,3.48,0.66,0.65,0.66
26.43,-4.45,-5.11,-4.45,-5.11,5.10,4.71,3.56,0.65,0.65,0.66
26.69,-4.32,-4.98,-4.32,-4.98,4.97,4.61,3.64,0.65,0.65,0.66
26.96,-4.20,-4.85,-4.20,-4.85,4.84,4.50,3.71,0.64,0.64,0.65
27.23,-4.07,-4.72,-4.06,-4.71,4.70,4.40,3.78,0.64,0.64,0.65
27.50,-3.93,-4.57,-3.92,-4.57,4.57,4.30,3.86,0.64,0.65,0.65
27.77,-3.78,-4.42,-3.79,-4.43,4.44,4.20,3.92,0.65,0.65,0.64
28.05,-3.66,-4.29,-3.66,-4.30,4.31,4.09,3.98,0.66,0.65,0.64
28.33,-3.56,-4.18,-3.55,-4.18,4.19,3.99,4.04,0.64,0.64,0.62
28.62,-3.45,-4.07,-3.45,-4.07,4.08,3.88,4.09,0.63,0.63,0.62
28.90,-3.35,-3.97,-3.34,-3.97,3.97,3.78,4.13,0.62,0.63,0.62
29.19,-3.24,-3.86,-3.24,-3.86,3.86,3.67,4.18,0.62,0.62,0.62
29.48,-3.14,-3.77,-3.14,-3.76,3.75,3.57,4.20,0.61,0.61,0.63
29.78,-3.04,-3.66,-3.03,-3.66,3.64,3.46,4.23,0.60,0.60,0.62
30.08,-2.93,-3.56,-2.92,-3.54,3.52,3.35,4.24,0.59,0.60,0.63
30.38,-2.80,-3.40,-2.80,-3.41,3.40,3.25,4.25,0.61,0.61,0.61
30.68,-2.67,-3.27,-2.67,-3.27,3.28,3.14,4.25,0.62,0.62,0.61
30.99,-2.54,-3.13,-2.54,-3.14,3.16,3.03,4.24,0.62,0.62,0.59
31.30,-2.43,-3.02,-2.43,-3.02,3.04,2.92,4.22,0.61,0.61,0.59
31.61,-2.33,-2.92,-2.32,-2.91,2.91,2.81,4.19,0.58,0.59,0.59
31.93,-2.22,-2.79,-2.22,-2.79,2.78,2.70,4.15,0.56,0.56,0.57
32.24,-2.10,-2.66,-2.11,-2.67,2.65,2.59,4.10,0.55,0.55,0.56
32.57,-1.99,-2.54,-1.99,-2.54,2.52,2.48,4.04,0.54,0.54,0.56
32.89,-1.87,-2.41,-1.86,-2.41,2.40,2.37,3.98,0.53,0.53,0.54
33.22,-1.74,-2.26,-1.74,-2.26,2.28,2.26,3.91,0.54,0.54,0.52
33.55,-1.61,-2.14,-1.61,-2.13,2.15,2.15,3.83,0.54,0.54,0.52
33.89,-1.49,-1.99,-1.50,-2.00,2.03,2.04,3.74,0.54,0.53,0.50
34.23,-1.40,-1.89,-1.40,-1.89,1.90,1.93,3.64,0.50,0.50,0.50
34.57,-1.32,-1.79,-1.32,-1.80,1.77,1.82,3.54,0.46,0.46,0.48
34.92,-1.24,-1.70,-1.22,-1.69,1.65,1.71,3.43,0.41,0.42,0.46
35.27,-1.11,-1.57,-1.10,-1.55,1.53,1.60,3.32,0.42,0.43,0.46
35.62,-0.96,-1.40,-0.96,-1.40,1.41,1.49,3.20,0.45,0.45,0.44
35.97,-0.81,-1.23,-0.83,-1.26,1.29,1.38,3.08,0.49,0.46,0.43
36.33,-0.73,-1.15,-0.72,-1.14,1.18,1.27,2.95,0.45,0.46,0.42
36.70,-0.65,-1.06,-0.64,-1.05,1.07,1.15,2.82,0.42,0.43,0.41
37.06,-0.57,-0.96,-0.56,-0.97,0.96,1.04,2.69,0.40,0.40,0.40
37.43,-0.48,-0.88,-0.48,-0.88,0.86,0.93,2.56,0.38,0.38,0.41
37.81,-0.39,-0.78,-0.39,-0.78,0.77,0.82,2.42,0.38,0.38,0.39
38.19,-0.30,-0.68,-0.29,-0.68,0.67,0.71,2.28,0.38,0.38,0.38
38.57,-0.20,-0.58,-0.20,-0.58,0.58,0.60,2.14,0.38,0.38,0.39
38.95,-0.10,-0.47,-0.10,-0.48,0.48,0.49,2.00,0.39,0.38,0.37
39.34,-0.01,-0.38,-0.01,-0.38,0.38,0.38,1.86,0.38,0.37,0.37
39.74,0.08,-0.27,0.08,-0.28,0.28,0.27,1.72,0.36,0.36,0.36
40.14,0.17,-0.18,0.18,-0.18,0.18,0.16,1.58,0.35,0.35,0.35
40.54,0.27,-0.08,0.28,-0.07,0.07,0.06,1.43,0.34,0.34,0.35
40.94,0.38,0.04,0.37,0.03,-0.04,-0.05,1.29,0.34,0.33,0.35
41.35,0.46,0.13,0.47,0.13,-0.14,-0.16,1.15,0.32,0.32,0.33
41.76,0.55,0.24,0.56,0.24,-0.24,-0.26,1.01,0.31,0.32,0.32
42.18,0.65,0.34,0.67,0.36,-0.34,-0.37,0.86,0.31,0.33,0.31
42.60,0.77,0.47,0.77,0.47,-0.44,-0.47,0.72,0.34,0.34,0.30
43.03,0.88,0.59,0.84,0.55,-0.53,-0.58,0.58,0.35,0.31,0.30
43.46,0.88,0.61,0.89,0.61,-0.62,-0.68,0.44,0.27,0.27,0.27
43.90,0.89,0.65,0.93,0.68,-0.70,-0.78,0.30,0.19,0.23,0.25
44.33,0.98,0.75,0.99,0.77,-0.78,-0.88,0.15,0.20,0.21,0.23
44.78,1.10,0.90,1.08,0.87,-0.86,-0.97,0.01,0.24,0.21,0.21
45.23,1.17,0.98,1.15,0.96,-0.95,-1.07,-0.13,0.22,0.20,0.19
45.68,1.20,1.03,1.22,1.04,-1.05,-1.16,-0.27,0.15,0.17,0.18
46.13,1.26,1.11,1.28,1.12,-1.15,-1.26,-0.41,0.11,0.13,0.16
46.60,1.38,1.23,1.38,1.23,-1.26,-1.35,-0.55,0.12,0.12,0.15
47.06,1.50,1.36,1.51,1.36,-1.36,-1.44,-0.69,0.14,0.15,0.15
47.53,1.62,1.48,1.63,1.49,-1.46,-1.53,-0.83,0.17,0.17,0.14
48.01,1.74,1.61,1.72,1.59,-1.55,-1.61,-0.97,0.20,0.17,0.13
48.49,1.77,1.66,1.78,1.66,-1.63,-1.69,-1.11,0.14,0.15,0.12
48.97,1.80,1.70,1.82,1.72,-1.71,-1.78,-1.25,0.10,0.11,0.10
49.46,1.85,1.76,1.85,1.76,-1.78,-1.86,-1.39,0.08,0.08,0.09
49.96,1.90,1.83,1.90,1.82,-1.83,-1.93,-1.53,0.07,0.07,0.08
50.46,1.95,1.87,1.95,1.87,-1.88,-2.01,-1.66,0.07,0.07,0.09
50.96,2.00,1.92,2.01,1.93,-1.93,-2.08,-1.80,0.08,0.08,0.08
51.47,2.05,1.98,2.05,1.98,-1.98,-2.15,-1.93,0.08,0.08,0.07
51.99,2.10,2.04,2.09,2.03,-2.03,-2.22,-2.07,0.08,0.07,0.06
52.51,2.13,2.07,2.13,2.07,-2.08,-2.28,-2.20,0.05,0.05,0.06
53.03,2.16,2.10,2.18,2.12,-2.13,-2.35,-2.33,0.03,0.05,0.06
53.56,2.23,2.18,2.23,2.17,-2.17,-2.41,-2.46,0.06,0.06,0.05
54.10,2.29,2.25,2.27,2.22,-2.22,-2.47,-2.58,0.08,0.05,0.04
54.64,2.30,2.26,2.32,2.28,-2.26,-2.52,-2.70,0.04,0.06,0.04
55.18,2.33,2.30,2.36,2.33,-2.31,-2.58,-2.82,0.02,0.05,0.03
55.74,2.42,2.40,2.38,2.35,-2.37,-2.63,-2.94,0.05,0.01,0.02
56.29,2.42,2.40,2.39,2.38,-2.43,-2.68,-3.05,-0.01,-0.04,0.02
56.86,2.36,2.37,2.44,2.44,-2.48,-2.72,-3.15,-0.11,-0.04,-0.00
57.42,2.49,2.50,2.51,2.52,-2.52,-2.77,-3.26,-0.04,-0.01,-0.01
58.00,2.66,2.69,2.59,2.61,-2.56,-2.81,-3.35,0.10,0.03,-0.03
58.58,2.64,2.68,2.65,2.69,-2.60,-2.85,-3.44,0.04,0.05,-0.04
59.16,2.63,2.69,2.65,2.71,-2.66,-2.89,-3.53,-0.02,-0.00,-0.05
59.76,2.61,2.69,2.59,2.66,-2.72,-2.92,-3.61,-0.10,-0.13,-0.08
60.35,2.58,2.68,2.58,2.68,-2.77,-2.96,-3.68,-0.19,-0.20,-0.10
60.96,2.54,2.67,2.63,2.76,-2.83,-2.99,-3.75,-0.29,-0.20,-0.13
61.57,2.72,2.89,2.70,2.87,-2.89,-3.02,-3.81,-0.16,-0.18,-0.17
62.18,2.85,3.06,2.78,2.99,-2.94,-3.05,-3.86,-0.09,-0.16,-0.21
62.80,2.81,3.06,2.83,3.08,-3.00,-3.08,-3.91,-0.19,-0.17,-0.24
63.43,2.80,3.08,2.82,3.10,-3.07,-3.10,-3.95,-0.26,-0.24,-0.28
64.07,2.80,3.12,2.80,3.12,-3.12,-3.13,-3.98,-0.32,-0.32,-0.32
64.71,2.80,3.16,2.80,3.15,-3.16,-3.15,-4.01,-0.36,-0.36,-0.35
65.35,2.80,3.19,2.80,3.19,-3.19,-3.17,-4.03,-0.39,-0.39,-0.38
66.01,2.80,3.22,2.80,3.22,-3.22,-3.20,-4.04,-0.41,-0.41,-0.42
66.67,2.80,3.26,2.81,3.26,-3.25,-3.22,-4.05,-0.45,-0.45,-0.46
67.33,2.80,3.29,2.79,3.28,-3.31,-3.23,-4.05,-0.50,-0.52,-0.49
68.01,2.80,3.33,2.78,3.30,-3.37,-3.25,-4.05,-0.57,-0.60,-0.53
68.69,2.76,3.33,2.83,3.40,-3.44,-3.27,-4.05,-0.68,-0.62,-0.57
69.37,2.87,3.48,2.90,3.51,-3.51,-3.29,-4.04,-0.65,-0.61,-0.61
70.07,3.07,3.73,2.98,3.63,-3.59,-3.30,-4.02,-0.51,-0.61,-0.65
70.77,3.02,3.71,3.04,3.72,-3.66,-3.32,-4.01,-0.64,-0.62,-0.68
71.48,3.01,3.74,3.04,3.77,-3.73,-3.34,-3.99,-0.71,-0.69,-0.73
72.19,3.01,3.78,3.01,3.78,-3.80,-3.35,-3.97,-0.78,-0.79,-0.77
72.91,3.01,3.84,3.01,3.83,-3.86,-3.37,-3.95,-0.84,-0.84,-0.83
73.64,3.01,3.88,3.01,3.88,-3.91,-3.38,-3.93,-0.89,-0.89,-0.87
74.38,3.01,3.93,3.01,3.93,-3.95,-3.40,-3.90,-0.93,-0.93,-0.91
75.12,3.01,3.97,3.01,3.97,-3.98,-3.41,-3.88,-0.97,-0.97,-0.96
75.87,3.01,4.01,3.02,4.02,-4.01,-3.43,-3.86,-1.00,-0.99,-1.00
76.63,3.02,4.06,3.04,4.07,-4.04,-3.45,-3.83,-1.02,-1.00,-1.03
77.40,3.04,4.11,3.03,4.10,-4.06,-3.46,-3.81,-1.02,-1.04,-1.07
78.17,3.03,4.14,3.00,4.10,-4.08,-3.48,-3.79,-1.05,-1.08,-1.11
78.95,2.91,4.05,2.95,4.09,-4.10,-3.49,-3.77,-1.18,-1.14,-1.14
79.74,2.90,4.07,2.91,4.08,-4.11,-3.51,-3.75,-1.21,-1.20,-1.17
80.54,2.90,4.10,2.89,4.09,-4.13,-3.53,-3.74,-1.23,-1.24,-1.20
81.35,2.90,4.13,2.90,4.13,-4.15,-3.55,-3.72,-1.24,-1.25,-1.23
82.16,2.90,4.16,2.90,4.16,-4.16,-3.56,-3.71,-1.26,-1.26,-1.26
82.98,2.90,4.18,2.91,4.19,-4.18,-3.58,-3.70,-1.27,-1.27,-1.28
83.81,2.90,4.22,2.91,4.22,-4.19,-3.60,-3.70,-1.29,-1.28,-1.32
84.65,2.90,4.26,2.89,4.24,-4.20,-3.62,-3.69,-1.30,-1.31,-1.35
85.50,2.86,4.24,2.86,4.24,-4.21,-3.64,-3.69,-1.35,-1.35,-1.37
86.35,2.80,4.21,2.81,4.22,-4.22,-3.66,-3.69,-1.41,-1.41,-1.41
87.22,2.75,4.20,2.75,4.19,-4.22,-3.68,-3.70,-1.46,-1.47,-1.44
88.09,2.70,4.18,2.72,4.19,-4.23,-3.70,-3.70,-1.52,-1.50,-1.48
88.97,2.71,4.21,2.71,4.21,-4.24,-3.73,-3.72,-1.52,-1.53,-1.50
89.86,2.71,4.25,2.71,4.24,-4.26,-3.75,-3.73,-1.55,-1.55,-1.53
90.76,2.71,4.28,2.71,4.28,-4.29,-3.77,-3.74,-1.57,-1.57,-1.57
91.66,2.71,4.31,2.71,4.31,-4.32,-3.79,-3.76,-1.60,-1.61,-1.60
92.58,2.71,4.35,2.72,4.35,-4.35,-3.82,-3.78,-1.63,-1.63,-1.63
93.51,2.72,4.38,2.73,4.39,-4.37,-3.84,-3.81,-1.65,-1.64,-1.66
94.44,2.74,4.43,2.72,4.41,-4.38,-3.87,-3.84,-1.64,-1.66,-1.68
95.39,2.70,4.42,2.69,4.40,-4.38,-3.89,-3.86,-1.67,-1.69,-1.71
96.34,2.60,4.35,2.62,4.37,-4.35,-3.92,-3.90,-1.75,-1.73,-1.75
97.30,2.54,4.32,2.54,4.32,-4.32,-3.95,-3.93,-1.77,-1.77,-1.78
98.28,2.47,4.28,2.48,4.28,-4.27,-3.97,-3.97,-1.80,-1.79,-1.80
99.26,2.40,4.23,2.41,4.24,-4.23,-4.00,-4.01,-1.82,-1.82,-1.82
100.25,2.35,4.20,2.32,4.16,-4.18,-4.03,-4.05,-1.83,-1.87,-1.85
101.25,2.21,4.09,2.22,4.10,-4.14,-4.06,-4.09,-1.93,-1.92,-1.88
102.27,2.11,4.02,2.15,4.06,-4.11,-4.09,-4.14,-1.99,-1.96,-1.91
103.29,2.11,4.07,2.11,4.06,-4.07,-4.11,-4.18,-1.96,-1.96,-1.95
104.32,2.11,4.09,2.10,4.08,-4.04,-4.14,-4.23,-1.93,-1.94,-1.97
105.37,2.07,4.09,2.06,4.07,-4.01,-4.17,-4.28,-1.94,-1.95,-2.01
106.42,1.99,4.03,1.99,4.03,-3.99,-4.20,-4.32,-2.00,-2.01,-2.04
107.48,1.88,3.96,1.89,3.97,-3.98,-4.23,-4.37,-2.10,-2.09,-2.08
108.56,1.80,3.92,1.82,3.93,-3.97,-4.26,-4.42,-2.17,-2.16,-2.12
109.64,1.76,3.92,1.77,3.92,-3.96,-4.29,-4.47,-2.20,-2.19,-2.15
110.74,1.75,3.94,1.75,3.93,-3.95,-4.32,-4.51,-2.20,-2.20,-2.18
111.85,1.74,3.95,1.75,3.96,-3.94,-4.35,-4.56,-2.20,-2.19,-2.21
112.97,1.73,3.99,1.73,3.98,-3.94,-4.38,-4.60,-2.21,-2.22,-2.26
114.10,1.71,3.99,1.69,3.97,-3.96,-4.41,-4.64,-2.24,-2.26,-2.28
115.24,1.63,3.95,1.66,3.97,-3.97,-4.44,-4.68,-2.34,-2.32,-2.31
116.39,1.62,3.96,1.63,3.97,-3.99,-4.47,-4.72,-2.37,-2.36,-2.34
117.55,1.62,3.99,1.62,3.99,-4.01,-4.50,-4.75,-2.38,-2.39,-2.37
118.73,1.63,4.03,1.63,4.02,-4.02,-4.53,-4.78,-2.39,-2.39,-2.39
119.92,1.64,4.04,1.64,4.05,-4.04,-4.56,-4.80,-2.40,-2.40,-2.40
121.12,1.65,4.08,1.65,4.07,-4.06,-4.59,-4.82,-2.41,-2.41,-2.42
122.33,1.65,4.09,1.66,4.09,-4.09,-4.62,-4.84,-2.44,-2.43,-2.44
123.55,1.66,4.11,1.67,4.12,-4.12,-4.64,-4.85,-2.45,-2.45,-2.45
124.79,1.67,4.14,1.67,4.14,-4.14,-4.67,-4.86,-2.47,-2.47,-2.47
126.03,1.68,4.17,1.68,4.16,-4.17,-4.70,-4.87,-2.48,-2.48,-2.48
127.29,1.68,4.18,1.69,4.19,-4.19,-4.73,-4.86,-2.50,-2.50,-2.50
128.57,1.69,4.22,1.69,4.21,-4.21,-4.75,-4.86,-2.51,-2.52,-2.52
129.85,1.69,4.23,1.70,4.23,-4.23,-4.78,-4.85,-2.53,-2.53,-2.53
131.15,1.70,4.25,1.70,4.25,-4.24,-4.81,-4.84,-2.54,-2.54,-2.55
132.46,1.70,4.26,1.71,4.26,-4.26,-4.83,-4.82,-2.55,-2.55,-2.56
133.79,1.71,4.27,1.71,4.28,-4.28,-4.86,-4.80,-2.56,-2.56,-2.56
135.12,1.71,4.30,1.72,4.30,-4.30,-4.88,-4.77,-2.59,-2.58,-2.59
136.48,1.72,4.31,1.72,4.32,-4.33,-4.90,-4.75,-2.60,-2.61,-2.59
137.84,1.72,4.33,1.71,4.33,-4.36,-4.93,-4.72,-2.63,-2.65,-2.61
139.22,1.72,4.36,1.74,4.37,-4.39,-4.95,-4.68,-2.67,-2.65,-2.64
140.61,1.74,4.40,1.78,4.43,-4.42,-4.97,-4.65,-2.68,-2.64,-2.66
142.02,1.86,4.52,1.82,4.48,-4.46,-4.99,-4.61,-2.59,-2.64,-2.66
143.44,1.85,4.53,1.84,4.52,-4.49,-5.01,-4.58,-2.64,-2.65,-2.67
144.87,1.82,4.52,1.85,4.54,-4.52,-5.03,-4.54,-2.70,-2.68,-2.70
146.32,1.82,4.55,1.82,4.55,-4.56,-5.04,-4.50,-2.74,-2.74,-2.73
147.78,1.82,4.58,1.82,4.58,-4.60,-5.06,-4.47,-2.77,-2.77,-2.75
149.26,1.82,4.61,1.82,4.62,-4.63,-5.08,-4.43,-2.81,-2.81,-2.79
150.75,1.82,4.67,1.82,4.66,-4.68,-5.09,-4.39,-2.86,-2.86,-2.84
152.26,1.82,4.71,1.82,4.71,-4.73,-5.11,-4.36,-2.91,-2.91,-2.89
153.78,1.82,4.77,1.82,4.77,-4.79,-5.12,-4.33,-2.96,-2.96,-2.94
155.32,1.82,4.83,1.83,4.83,-4.84,-5.13,-4.30,-3.02,-3.02,-3.00
156.88,1.82,4.88,1.83,4.89,-4.89,-5.14,-4.26,-3.06,-3.06,-3.06
158.44,1.82,4.95,1.83,4.95,-4.91,-5.15,-4.24,-3.09,-3.09,-3.13
160.03,1.80,4.99,1.79,4.98,-4.92,-5.16,-4.21,-3.11,-3.13,-3.19
161.63,1.73,4.97,1.72,4.97,-4.91,-5.17,-4.19,-3.18,-3.19,-3.24
163.24,1.61,4.91,1.61,4.90,-4.89,-5.18,-4.17,-3.27,-3.28,-3.30
164.88,1.48,4.81,1.50,4.84,-4.85,-5.18,-4.15,-3.37,-3.35,-3.33
166.53,1.39,4.76,1.42,4.79,-4.82,-5.19,-4.13,-3.43,-3.40,-3.37
168.19,1.38,4.78,1.34,4.74,-4.79,-5.19,-4.12,-3.40,-3.45,-3.40
169.87,1.29,4.72,1.29,4.71,-4.76,-5.19,-4.11,-3.47,-3.48,-3.43
171.57,1.21,4.66,1.28,4.72,-4.75,-5.19,-4.11,-3.54,-3.47,-3.44
173.29,1.30,4.76,1.29,4.74,-4.74,-5.19,-4.10,-3.44,-3.46,-3.45
175.02,1.36,4.82,1.30,4.77,-4.74,-5.19,-4.10,-3.38,-3.44,-3.46
176.77,1.30,4.77,1.33,4.79,-4.74,-5.19,-4.11,-3.44,-3.42,-3.46
178.54,1.27,4.74,1.32,4.78,-4.74,-5.19,-4.11,-3.47,-3.42,-3.47
180.32,1.33,4.79,1.29,4.75,-4.74,-5.18,-4.12,-3.41,-3.45,-3.46
182.13,1.30,4.75,1.27,4.73,-4.74,-5.17,-4.14,-3.43,-3.46,-3.45
183.95,1.19,4.65,1.24,4.69,-4.73,-5.17,-4.15,-3.53,-3.49,-3.46
185.79,1.21,4.67,1.21,4.67,-4.72,-5.16,-4.17,-3.50,-3.50,-3.46
187.65,1.22,4.70,1.23,4.70,-4.71,-5.15,-4.19,-3.49,-3.48,-3.47
189.52,1.27,4.75,1.26,4.74,-4.71,-5.14,-4.22,-3.44,-3.45,-3.48
191.42,1.28,4.77,1.25,4.74,-4.72,-5.13,-4.24,-3.44,-3.47,-3.49
193.33,1.21,4.71,1.24,4.74,-4.73,-5.12,-4.27,-3.52,-3.49,-3.50
195.27,1.20,4.72,1.22,4.74,-4.74,-5.10,-4.31,-3.54,-3.53,-3.51
197.22,1.22,4.76,1.22,4.76,-4.76,-5.09,-4.34,-3.54,-3.54,-3.53
199.19,1.24,4.80,1.23,4.78,-4.78,-5.07,-4.38,-3.53,-3.55,-3.56
201.18,1.24,4.81,1.22,4.78,-4.79,-5.06,-4.42,-3.55,-3.57,-3.57
203.19,1.17,4.75,1.21,4.79,-4.80,-5.04,-4.46,-3.63,-3.59,-3.58
205.23,1.19,4.80,1.21,4.81,-4.82,-5.02,-4.50,-3.63,-3.61,-3.61
207.28,1.26,4.87,1.22,4.84,-4.84,-5.00,-4.54,-3.57,-3.62,-3.61
209.35,1.23,4.87,1.24,4.87,-4.85,-4.98,-4.58,-3.62,-3.62,-3.64
211.44,1.21,4.87,1.23,4.88,-4.87,-4.96,-4.63,-3.65,-3.64,-3.66
213.56,1.21,4.88,1.21,4.87,-4.88,-4.94,-4.67,-3.67,-3.67,-3.66
215.69,1.20,4.88,1.21,4.88,-4.90,-4.92,-4.72,-3.69,-3.69,-3.67
217.85,1.20,4.88,1.20,4.89,-4.90,-4.89,-4.76,-3.70,-3.70,-3.68
220.03,1.20,4.90,1.20,4.89,-4.90,-4.87,-4.80,-3.70,-3.70,-3.70
222.23,1.19,4.90,1.20,4.90,-4.89,-4.84,-4.84,-3.70,-3.69,-3.71
224.45,1.19,4.89,1.21,4.91,-4.88,-4.82,-4.88,-3.68,-3.67,-3.69
226.70,1.20,4.90,1.20,4.89,-4.86,-4.79,-4.91,-3.66,-3.66,-3.69
228.96,1.20,4.89,1.15,4.84,-4.84,-4.76,-4.95,-3.63,-3.69,-3.69
231.25,1.08,4.76,1.11,4.78,-4.80,-4.73,-4.97,-3.72,-3.69,-3.68
233.57,1.02,4.69,1.09,4.75,-4.76,-4.70,-5.00,-3.74,-3.67,-3.66
235.90,1.12,4.77,1.09,4.74,-4.74,-4.67,-5.02,-3.61,-3.64,-3.65
238.26,1.14,4.77,1.09,4.72,-4.72,-4.64,-5.04,-3.57,-3.62,-3.62
240.64,1.07,4.67,1.08,4.67,-4.70,-4.61,-5.04,-3.63,-3.62,-3.60
243.05,1.00,4.57,1.05,4.62,-4.68,-4.58,-5.05,-3.68,-3.63,-3.57
245.48,1.06,4.60,1.08,4.63,-4.66,-4.55,-5.05,-3.59,-3.57,-3.54
247.93,1.15,4.67,1.15,4.67,-4.63,-4.51,-5.04,-3.47,-3.48,-3.52
250.41,1.24,4.74,1.19,4.69,-4.59,-4.48,-5.03,-3.35,-3.40,-3.50
252.92,1.15,4.62,1.15,4.61,-4.55,-4.45,-5.01,-3.39,-3.40,-3.47
255.45,1.04,4.48,1.05,4.49,-4.50,-4.41,-4.99,-3.46,-3.46,-3.44
258.00,0.91,4.34,0.95,4.38,-4.45,-4.38,-4.96,-3.53,-3.49,-3.43
260.58,0.91,4.32,0.95,4.35,-4.39,-4.34,-4.92,-3.47,-3.44,-3.41
263.19,0.96,4.35,0.93,4.32,-4.33,-4.31,-4.88,-3.36,-3.40,-3.38
265.82,0.98,4.35,0.90,4.26,-4.27,-4.27,-4.83,-3.29,-3.37,-3.37
268.48,0.78,4.13,0.87,4.21,-4.22,-4.24,-4.78,-3.43,-3.35,-3.34
271.16,0.78,4.10,0.83,4.15,-4.17,-4.20,-4.73,-3.38,-3.34,-3.32
273.87,0.87,4.17,0.80,4.10,-4.11,-4.16,-4.67,-3.23,-3.30,-3.30
276.61,0.80,4.08,0.82,4.09,-4.03,-4.13,-4.60,-3.23,-3.21,-3.27
279.38,0.75,4.00,0.77,4.02,-3.94,-4.09,-4.54,-3.18,-3.17,-3.25
282.17,0.69,3.92,0.67,3.89,-3.85,-4.05,-4.47,-3.15,-3.18,-3.23
284.99,0.56,3.76,0.56,3.75,-3.76,-4.02,-4.40,-3.20,-3.21,-3.19
287.84,0.43,3.60,0.44,3.61,-3.68,-3.98,-4.32,-3.25,-3.24,-3.17
290.72,0.34,3.47,0.36,3.49,-3.60,-3.94,-4.25,-3.25,-3.23,-3.13
293.63,0.33,3.44,0.35,3.45,-3.50,-3.90,-4.17,-3.17,-3.16,-3.10
296.57,0.37,3.44,0.37,3.44,-3.41,-3.87,-4.09,-3.04,-3.04,-3.06
299.53,0.41,3.46,0.40,3.44,-3.33,-3.83,-4.02,-2.92,-2.93,-3.05
302.53,0.37,3.39,0.34,3.36,-3.27,-3.79,-3.94,-2.89,-2.92,-3.02
305.55,0.27,3.26,0.22,3.21,-3.22,-3.75,-3.86,-2.94,-3.00,-2.98
308.61,0.03,3.00,0.13,3.09,-3.16,-3.72,-3.79,-3.13,-3.04,-2.96
311.69,0.03,2.98,0.09,3.03,-3.11,-3.68,-3.71,-3.07,-3.02,-2.95
314.81,0.18,3.09,0.10,3.01,-3.04,-3.64,-3.64,-2.86,-2.95,-2.91
317.96,0.14,3.04,0.13,3.03,-2.98,-3.60,-3.56,-2.84,-2.85,-2.90
321.14,0.08,2.97,0.12,3.01,-2.93,-3.57,-3.49,-2.84,-2.80,-2.88
324.35,0.07,2.95,0.08,2.95,-2.90,-3.53,-3.42,-2.82,-2.82,-2.87
327.59,0.07,2.93,0.03,2.89,-2.88,-3.49,-3.35,-2.81,-2.86,-2.86
330.87,0.00,2.85,-0.00,2.85,-2.89,-3.46,-3.28,-2.89,-2.89,-2.85
334.18,-0.07,2.77,0.00,2.84,-2.92,-3.42,-3.22,-2.99,-2.92,-2.84
337.52,0.07,2.91,0.05,2.88,-2.97,-3.39,-3.16,-2.89,-2.92,-2.83
340.90,0.17,2.99,0.14,2.96,-3.03,-3.35,-3.09,-2.85,-2.89,-2.81
344.30,0.25,3.06,0.28,3.09,-3.10,-3.32,-3.04,-2.84,-2.82,-2.81
347.75,0.37,3.17,0.42,3.22,-3.17,-3.28,-2.98,-2.80,-2.75,-2.80
351.23,0.58,3.37,0.53,3.32,-3.23,-3.25,-2.92,-2.65,-2.70,-2.79
354.74,0.63,3.42,0.58,3.36,-3.27,-3.21,-2.87,-2.63,-2.69,-2.79
358.28,0.51,3.29,0.55,3.33,-3.27,-3.18,-2.82,-2.76,-2.73,-2.78
361.87,0.43,3.22,0.48,3.25,-3.25,-3.15,-2.77,-2.81,-2.77,-2.78
365.49,0.41,3.19,0.41,3.19,-3.19,-3.11,-2.73,-2.78,-2.78,-2.77
369.14,0.38,3.16,0.33,3.11,-3.12,-3.08,-2.69,-2.73,-2.78,-2.77
372.83,0.25,3.03,0.24,3.02,-3.04,-3.05,-2.64,-2.78,-2.80,-2.78
376.56,0.09,2.87,0.17,2.94,-2.97,-3.02,-2.60,-2.87,-2.80,-2.78
380.33,0.11,2.87,0.10,2.86,-2.92,-2.99,-2.57,-2.80,-2.82,-2.76
384.13,0.12,2.89,0.07,2.84,-2.88,-2.96,-2.53,-2.76,-2.81,-2.77
387.97,0.03,2.80,0.09,2.85,-2.86,-2.94,-2.50,-2.83,-2.78,-2.77
391.85,0.09,2.86,0.09,2.86,-2.86,-2.91,-2.47,-2.76,-2.76,-2.77
395.77,0.13,2.90,0.11,2.88,-2.86,-2.88,-2.44,-2.73,-2.75,-2.76
399.73,0.13,2.90,0.14,2.90,-2.87,-2.86,-2.41,-2.74,-2.74,-2.76
403.72,0.13,2.91,0.13,2.90,-2.89,-2.83,-2.38,-2.76,-2.75,-2.77
407.76,0.12,2.90,0.13,2.90,-2.90,-2.81,-2.36,-2.78,-2.78,-2.77
411.84,0.12,2.89,0.12,2.90,-2.91,-2.79,-2.33,-2.78,-2.79,-2.77
415.96,0.12,2.90,0.13,2.90,-2.91,-2.77,-2.31,-2.78,-2.78,-2.78
420.12,0.12,2.90,0.14,2.91,-2.90,-2.75,-2.29,-2.78,-2.76,-2.78
424.32,0.15,2.92,0.14,2.91,-2.89,-2.73,-2.27,-2.73,-2.75,-2.77
428.56,0.14,2.91,0.12,2.89,-2.87,-2.71,-2.25,-2.73,-2.75,-2.77
432.85,0.08,2.83,0.10,2.85,-2.86,-2.70,-2.24,-2.77,-2.75,-2.75
437.18,0.08,2.81,0.10,2.83,-2.84,-2.68,-2.22,-2.76,-2.74,-2.73
441.55,0.12,2.81,0.12,2.81,-2.82,-2.67,-2.20,-2.70,-2.71,-2.69
445.96,0.17,2.83,0.14,2.80,-2.81,-2.66,-2.19,-2.63,-2.67,-2.66
450.42,0.14,2.78,0.16,2.79,-2.79,-2.64,-2.17,-2.65,-2.63,-2.63
454.93,0.17,2.75,0.19,2.77,-2.78,-2.63,-2.16,-2.61,-2.60,-2.57
459.48,0.23,2.77,0.23,2.76,-2.77,-2.62,-2.14,-2.54,-2.54,-2.53
464.07,0.29,2.77,0.29,2.76,-2.76,-2.60,-2.13,-2.47,-2.47,-2.47
468.71,0.34,2.77,0.33,2.75,-2.74,-2.59,-2.12,-2.39,-2.41,-2.42
473.40,0.35,2.73,0.37,2.74,-2.71,-2.57,-2.10,-2.35,-2.34,-2.37
478.13,0.37,2.70,0.38,2.71,-2.68,-2.56,-2.09,-2.30,-2.29,-2.32
482.91,0.41,2.70,0.37,2.65,-2.64,-2.54,-2.07,-2.23,-2.27,-2.28
