frequency,raw,error,smoothed,error_smoothed,equalization,parametric_eq,fixed_band_eq,equalized_raw,equalized_smoothed,target
20.00,13.57,5.04,13.57,5.04,-5.04,-5.12,-2.65,8.53,8.53,8.53
20.20,13.58,5.08,13.58,5.08,-5.07,-5.15,-2.72,8.51,8.51,8.50
20.40,13.59,5.11,13.59,5.11,-5.11,-5.17,-2.80,8.48,8.48,8.48
20.61,13.60,5.14,13.60,5.14,-5.14,-5.19,-2.88,8.46,8.46,8.46
20.81,13.61,5.17,13.61,5.17,-5.18,-5.22,-2.96,8.43,8.43,8.44
21.02,13.62,5.20,13.62,5.20,-5.21,-5.24,-3.04,8.41,8.41,8.42
21.23,13.63,5.23,13.63,5.24,-5.24,-5.26,-3.13,8.39,8.39,8.40
21.44,13.65,5.27,13.65,5.27,-5.27,-5.28,-3.22,8.38,8.38,8.38
21.66,13.66,5.30,13.66,5.30,-5.30,-5.30,-3.31,8.36,8.36,8.36
21.87,13.67,5.32,13.67,5.33,-5.32,-5.32,-3.40,8.35,8.35,8.35
22.09,13.68,5.35,13.68,5.35,-5.35,-5.34,-3.50,8.33,8.33,8.33
22.31,13.69,5.37,13.69,5.37,-5.37,-5.36,-3.60,8.32,8.32,8.32
22.54,13.70,5.39,13.70,5.40,-5.40,-5.38,-3.70,8.30,8.30,8.31
22.76,13.71,5.42,13.71,5.42,-5.42,-5.40,-3.80,8.29,8.29,8.29
22.99,13.72,5.44,13.72,5.44,-5.44,-5.42,-3.91,8.28,8.28,8.28
23.22,13.73,5.46,13.73,5.46,-5.46,-5.44,-4.02,8.27,8.27,8.27
23.45,13.74,5.48,13.74,5.48,-5.48,-5.45,-4.13,8.26,8.26,8.26
23.69,13.75,5.50,13.75,5.50,-5.50,-5.47,-4.24,8.25,8.26,8.25
23.92,13.77,5.52,13.77,5.52,-5.52,-5.49,-4.36,8.25,8.25,8.25
24.16,13.78,5.54,13.78,5.54,-5.53,-5.51,-4.48,8.25,8.25,8.24
24.40,13.79,5.55,13.79,5.55,-5.55,-5.52,-4.60,8.24,8.24,8.24
24.65,13.80,5.57,13.80,5.57,-5.57,-5.54,-4.72,8.23,8.23,8.23
24.89,13.81,5.58,13.81,5.58,-5.59,-5.55,-4.85,8.22,8.22,8.23
25.14,13.82,5.60,13.82,5.60,-5.60,-5.57,-4.97,8.22,8.22,8.22
25.39,13.83,5.62,13.83,5.62,-5.62,-5.58,-5.10,8.21,8.21,8.21
25.65,13.84,5.63,13.84,5.64,-5.63,-5.60,-5.22,8.21,8.21,8.21
25.91,13.85,5.65,13.85,5.65,-5.65,-5.61,-5.35,8.20,8.20,8.20
26.16,13.86,5.66,13.86,5.66,-5.66,-5.63,-5.48,8.20,8.20,8.20
26.43,13.86,5.67,13.86,5.67,-5.67,-5.64,-5.61,8.19,8.19,8.19
26.69,13.87,5.69,13.87,5.68,-5.69,-5.65,-5.73,8.18,8.18,8.18
26.96,13.88,5.70,13.88,5.70,-5.70,-5.67,-5.86,8.18,8.18,8.18
27.23,13.88,5.71,13.88,5.71,-5.71,-5.68,-5.98,8.17,8.18,8.17
27.50,13.89,5.72,13.89,5.72,-5.72,-5.69,-6.10,8.17,8.17,8.17
27.77,13.90,5.73,13.90,5.73,-5.73,-5.70,-6.22,8.17,8.16,8.17
28.05,13.90,5.74,13.90,5.74,-5.74,-5.71,-6.33,8.16,8.16,8.16
28.33,13.91,5.75,13.91,5.76,-5.76,-5.72,-6.44,8.15,8.16,8.16
28.62,13.92,5.76,13.92,5.77,-5.77,-5.73,-6.54,8.15,8.15,8.15
28.90,13.93,5.79,13.93,5.78,-5.78,-5.74,-6.64,8.15,8.15,8.14
29.19,13.93,5.79,13.93,5.79,-5.79,-5.75,-6.73,8.14,8.15,8.14
29.48,13.94,5.80,13.94,5.80,-5.80,-5.76,-6.81,8.14,8.14,8.14
29.78,13.95,5.81,13.95,5.81,-5.81,-5.77,-6.88,8.14,8.14,8.14
30.08,13.95,5.81,13.95,5.82,-5.82,-5.78,-6.95,8.13,8.13,8.14
30.38,13.95,5.82,13.95,5.82,-5.82,-5.79,-7.00,8.13,8.13,8.13
30.68,13.96,5.84,13.96,5.83,-5.83,-5.80,-7.05,8.13,8.12,8.12
30.99,13.96,5.84,13.96,5.84,-5.84,-5.80,-7.08,8.12,8.12,8.12
31.30,13.96,5.84,13.96,5.85,-5.85,-5.81,-7.11,8.11,8.12,8.12
31.61,13.97,5.86,13.97,5.85,-5.85,-5.82,-7.13,8.12,8.11,8.11
31.93,13.97,5.86,13.97,5.86,-5.86,-5.82,-7.13,8.11,8.11,8.11
32.24,13.97,5.87,13.97,5.87,-5.87,-5.83,-7.13,8.10,8.10,8.10
32.57,13.97,5.88,13.97,5.87,-5.87,-5.84,-7.12,8.10,8.10,8.09
32.89,13.97,5.88,13.97,5.88,-5.88,-5.84,-7.10,8.09,8.09,8.09
33.22,13.97,5.88,13.97,5.89,-5.89,-5.85,-7.07,8.08,8.08,8.09
33.55,13.97,5.90,13.97,5.89,-5.89,-5.85,-7.03,8.08,8.08,8.07
33.89,13.97,5.90,13.97,5.90,-5.90,-5.86,-6.99,8.07,8.07,8.07
34.23,13.97,5.90,13.97,5.90,-5.90,-5.86,-6.94,8.07,8.07,8.07
34.57,13.97,5.91,13.97,5.91,-5.91,-5.87,-6.88,8.06,8.06,8.06
34.92,13.97,5.92,13.97,5.92,-5.92,-5.87,-6.82,8.05,8.05,8.05
35.27,13.97,5.92,13.97,5.92,-5.92,-5.87,-6.76,8.05,8.05,8.05
35.62,13.97,5.93,13.97,5.93,-5.93,-5.88,-6.69,8.04,8.04,8.04
35.97,13.97,5.94,13.97,5.93,-5.93,-5.88,-6.63,8.04,8.04,8.03
36.33,13.97,5.94,13.97,5.94,-5.94,-5.88,-6.56,8.03,8.03,8.03
36.70,13.97,5.94,13.97,5.94,-5.94,-5.89,-6.48,8.03,8.03,8.03
37.06,13.97,5.95,13.97,5.95,-5.95,-5.89,-6.41,8.02,8.02,8.02
37.43,13.97,5.96,13.97,5.95,-5.95,-5.89,-6.34,8.02,8.01,8.01
37.81,13.96,5.95,13.96,5.96,-5.96,-5.89,-6.27,8.00,8.01,8.01
38.19,13.96,5.96,13.96,5.96,-5.96,-5.89,-6.20,8.00,8.00,8.00
38.57,13.95,5.96,13.95,5.96,-5.96,-5.89,-6.13,7.99,7.99,7.99
38.95,13.94,5.96,13.94,5.96,-5.96,-5.90,-6.07,7.98,7.98,7.98
39.34,13.93,5.96,13.93,5.96,-5.96,-5.90,-6.00,7.97,7.97,7.97
39.74,13.92,5.96,13.92,5.96,-5.96,-5.90,-5.94,7.96,7.96,7.96
40.14,13.91,5.96,13.91,5.96,-5.96,-5.90,-5.89,7.95,7.95,7.95
40.54,13.90,5.96,13.90,5.96,-5.95,-5.90,-5.83,7.95,7.95,7.94
40.94,13.89,5.95,13.89,5.95,-5.95,-5.90,-5.78,7.94,7.94,7.94
41.35,13.88,5.95,13.88,5.94,-5.94,-5.90,-5.74,7.94,7.93,7.93
41.76,13.86,5.93,13.86,5.93,-5.93,-5.90,-5.69,7.93,7.93,7.93
42.18,13.84,5.92,13.84,5.92,-5.93,-5.90,-5.65,7.91,7.92,7.92
42.60,13.83,5.92,13.83,5.91,-5.92,-5.90,-5.62,7.91,7.91,7.91
43.03,13.82,5.90,13.82,5.90,-5.91,-5.90,-5.59,7.91,7.91,7.92
43.46,13.81,5.90,13.81,5.90,-5.90,-5.90,-5.56,7.91,7.91,7.91
43.90,13.79,5.89,13.79,5.89,-5.89,-5.90,-5.54,7.90,7.91,7.90
44.33,13.78,5.88,13.78,5.88,-5.88,-5.90,-5.52,7.90,7.90,7.90
44.78,13.76,5.87,13.76,5.87,-5.87,-5.90,-5.50,7.89,7.89,7.89
45.23,13.74,5.86,13.74,5.86,-5.87,-5.90,-5.49,7.87,7.88,7.88
45.68,13.73,5.86,13.73,5.86,-5.86,-5.90,-5.49,7.87,7.87,7.87
46.13,13.72,5.86,13.72,5.86,-5.86,-5.90,-5.48,7.86,7.86,7.86
46.60,13.71,5.85,13.71,5.86,-5.86,-5.89,-5.49,7.85,7.85,7.86
47.06,13.71,5.86,13.70,5.86,-5.86,-5.89,-5.49,7.85,7.84,7.85
47.53,13.69,5.86,13.69,5.86,-5.86,-5.89,-5.50,7.83,7.83,7.83
48.01,13.68,5.86,13.68,5.86,-5.86,-5.89,-5.52,7.82,7.82,7.82
48.49,13.67,5.86,13.67,5.86,-5.86,-5.89,-5.53,7.81,7.81,7.81
48.97,13.66,5.86,13.66,5.86,-5.86,-5.89,-5.55,7.80,7.80,7.80
49.46,13.65,5.86,13.65,5.86,-5.86,-5.89,-5.58,7.79,7.79,7.79
49.96,13.63,5.86,13.63,5.86,-5.86,-5.89,-5.60,7.77,7.78,7.77
50.46,13.62,5.86,13.62,5.86,-5.85,-5.89,-5.63,7.77,7.77,7.76
50.96,13.60,5.85,13.60,5.85,-5.85,-5.89,-5.67,7.75,7.75,7.75
51.47,13.59,5.84,13.59,5.84,-5.84,-5.89,-5.70,7.75,7.74,7.75
51.99,13.57,5.84,13.57,5.84,-5.84,-5.89,-5.74,7.73,7.73,7.73
52.51,13.55,5.83,13.55,5.83,-5.84,-5.89,-5.78,7.71,7.72,7.72
53.03,13.54,5.83,13.54,5.83,-5.84,-5.89,-5.82,7.70,7.70,7.71
53.56,13.53,5.84,13.53,5.83,-5.84,-5.89,-5.86,7.69,7.69,7.69
54.10,13.52,5.83,13.52,5.84,-5.83,-5.89,-5.90,7.69,7.69,7.69
54.64,13.51,5.84,13.51,5.84,-5.83,-5.89,-5.94,7.68,7.67,7.67
55.18,13.49,5.83,13.49,5.84,-5.83,-5.89,-5.98,7.66,7.66,7.66
55.74,13.48,5.84,13.48,5.84,-5.83,-5.89,-6.02,7.65,7.65,7.64
56.29,13.46,5.83,13.46,5.83,-5.83,-5.89,-6.06,7.63,7.63,7.63
56.86,13.44,5.83,13.44,5.83,-5.83,-5.89,-6.10,7.61,7.61,7.61
57.42,13.42,5.82,13.42,5.82,-5.83,-5.89,-6.13,7.59,7.59,7.60
58.00,13.41,5.82,13.41,5.83,-5.83,-5.89,-6.17,7.58,7.58,7.59
58.58,13.40,5.83,13.40,5.83,-5.83,-5.89,-6.20,7.57,7.57,7.57
59.16,13.39,5.84,13.39,5.84,-5.83,-5.89,-6.23,7.56,7.55,7.55
59.76,13.37,5.83,13.37,5.84,-5.83,-5.89,-6.25,7.54,7.54,7.54
60.35,13.35,5.84,13.35,5.84,-5.84,-5.90,-6.27,7.51,7.51,7.51
60.96,13.33,5.84,13.33,5.84,-5.84,-5.90,-6.29,7.49,7.49,7.49
61.57,13.31,5.84,13.31,5.84,-5.84,-5.90,-6.30,7.47,7.47,7.47
62.18,13.29,5.84,13.29,5.84,-5.85,-5.90,-6.31,7.44,7.44,7.45
62.80,13.27,5.85,13.27,5.85,-5.85,-5.91,-6.31,7.42,7.42,7.42
63.43,13.25,5.85,13.25,5.85,-5.86,-5.91,-6.31,7.39,7.39,7.40
64.07,13.23,5.86,13.23,5.86,-5.86,-5.92,-6.30,7.37,7.37,7.37
64.71,13.22,5.88,13.22,5.87,-5.87,-5.92,-6.29,7.35,7.34,7.34
65.35,13.20,5.88,13.20,5.88,-5.89,-5.92,-6.28,7.31,7.31,7.32
66.01,13.18,5.89,13.18,5.90,-5.90,-5.93,-6.26,7.28,7.29,7.29
66.67,13.17,5.91,13.17,5.91,-5.91,-5.93,-6.24,7.26,7.26,7.26
67.33,13.16,5.93,13.16,5.93,-5.93,-5.94,-6.21,7.23,7.23,7.23
68.01,13.14,5.94,13.14,5.94,-5.94,-5.95,-6.19,7.20,7.20,7.20
68.69,13.12,5.95,13.12,5.95,-5.95,-5.95,-6.16,7.17,7.17,7.17
69.37,13.10,5.96,13.10,5.97,-5.96,-5.96,-6.12,7.14,7.14,7.14
70.07,13.08,5.98,13.08,5.98,-5.97,-5.96,-6.09,7.11,7.11,7.10
70.77,13.06,5.99,13.06,5.98,-5.98,-5.97,-6.06,7.08,7.08,7.07
71.48,13.03,5.99,13.03,5.99,-5.98,-5.98,-6.02,7.05,7.04,7.04
72.19,12.99,5.98,12.99,5.99,-5.99,-5.99,-5.99,7.00,7.01,7.01
72.91,12.96,5.99,12.96,5.99,-5.99,-6.00,-5.95,6.97,6.97,6.97
73.64,12.93,6.00,12.93,5.99,-5.99,-6.01,-5.92,6.94,6.94,6.93
74.38,12.90,5.99,12.90,6.00,-6.00,-6.02,-5.88,6.90,6.90,6.91
75.12,12.88,6.01,12.88,6.00,-6.01,-6.02,-5.85,6.87,6.86,6.87
75.87,12.85,6.01,12.85,6.02,-6.03,-6.04,-5.82,6.82,6.83,6.84
76.63,12.83,6.03,12.83,6.04,-6.04,-6.05,-5.80,6.79,6.79,6.80
77.40,12.82,6.06,12.82,6.06,-6.06,-6.06,-5.77,6.76,6.76,6.76
78.17,12.81,6.09,12.81,6.09,-6.08,-6.07,-5.75,6.73,6.72,6.72
78.95,12.79,6.11,12.79,6.11,-6.10,-6.08,-5.73,6.69,6.69,6.68
79.74,12.77,6.13,12.77,6.13,-6.12,-6.09,-5.71,6.65,6.65,6.64
80.54,12.74,6.14,12.74,6.14,-6.14,-6.11,-5.70,6.60,6.60,6.60
81.35,12.71,6.16,12.71,6.15,-6.15,-6.12,-5.69,6.56,6.56,6.55
82.16,12.67,6.16,12.67,6.17,-6.16,-6.13,-5.68,6.51,6.51,6.51
82.98,12.64,6.18,12.64,6.18,-6.18,-6.15,-5.68,6.46,6.46,6.46
83.81,12.61,6.20,12.61,6.19,-6.19,-6.16,-5.68,6.42,6.42,6.41
84.65,12.57,6.20,12.57,6.20,-6.21,-6.18,-5.69,6.36,6.36,6.37
85.50,12.54,6.22,12.54,6.22,-6.23,-6.19,-5.70,6.31,6.31,6.32
86.35,12.51,6.24,12.51,6.24,-6.25,-6.21,-5.71,6.26,6.26,6.27
87.22,12.50,6.28,12.50,6.27,-6.28,-6.22,-5.73,6.22,6.22,6.22
88.09,12.48,6.31,12.48,6.31,-6.31,-6.24,-5.75,6.17,6.18,6.17
88.97,12.47,6.35,12.47,6.35,-6.33,-6.26,-5.78,6.14,6.13,6.12
89.86,12.44,6.37,12.44,6.37,-6.36,-6.27,-5.81,6.08,6.08,6.07
90.76,12.41,6.40,12.41,6.40,-6.39,-6.29,-5.84,6.02,6.02,6.01
91.66,12.37,6.41,12.37,6.41,-6.41,-6.31,-5.88,5.96,5.96,5.96
92.58,12.34,6.43,12.34,6.43,-6.43,-6.33,-5.93,5.91,5.90,5.91
93.51,12.30,6.45,12.30,6.45,-6.45,-6.34,-5.98,5.85,5.84,5.85
94.44,12.26,6.46,12.26,6.47,-6.48,-6.36,-6.03,5.78,5.79,5.80
95.39,12.23,6.49,12.23,6.49,-6.50,-6.38,-6.08,5.73,5.73,5.74
96.34,12.20,6.52,12.20,6.52,-6.52,-6.40,-6.14,5.68,5.68,5.68
97.30,12.18,6.54,12.18,6.55,-6.55,-6.42,-6.21,5.63,5.64,5.64
98.28,12.16,6.58,12.16,6.58,-6.57,-6.44,-6.27,5.59,5.59,5.58
99.26,12.13,6.61,12.13,6.60,-6.59,-6.46,-6.34,5.54,5.54,5.52
100.25,12.09,6.62,12.09,6.62,-6.62,-6.48,-6.42,5.47,5.47,5.47
101.25,12.04,6.63,12.04,6.63,-6.64,-6.50,-6.49,5.40,5.40,5.41
102.27,11.99,6.64,12.00,6.65,-6.66,-6.52,-6.57,5.33,5.34,5.35
103.29,11.97,6.68,11.97,6.67,-6.68,-6.54,-6.65,5.29,5.29,5.29
104.32,11.94,6.70,11.94,6.70,-6.70,-6.56,-6.73,5.24,5.24,5.24
105.37,11.90,6.71,11.90,6.72,-6.72,-6.58,-6.81,5.18,5.19,5.19
106.42,11.87,6.74,11.87,6.73,-6.73,-6.60,-6.90,5.14,5.14,5.13
107.48,11.83,6.75,11.83,6.75,-6.75,-6.62,-6.98,5.08,5.08,5.08
108.56,11.79,6.77,11.79,6.77,-6.76,-6.64,-7.06,5.03,5.03,5.02
109.64,11.75,6.78,11.75,6.78,-6.77,-6.66,-7.14,4.98,4.97,4.97
110.74,11.70,6.79,11.70,6.79,-6.79,-6.68,-7.22,4.91,4.91,4.91
111.85,11.64,6.79,11.64,6.79,-6.80,-6.70,-7.29,4.84,4.85,4.85
112.97,11.59,6.79,11.60,6.80,-6.81,-6.72,-7.37,4.78,4.79,4.80
114.10,11.56,6.81,11.55,6.81,-6.82,-6.74,-7.43,4.74,4.73,4.75
115.24,11.52,6.83,11.52,6.83,-6.83,-6.76,-7.50,4.69,4.69,4.69
116.39,11.49,6.85,11.49,6.85,-6.84,-6.77,-7.55,4.65,4.65,4.64
117.55,11.46,6.87,11.45,6.87,-6.86,-6.79,-7.60,4.60,4.60,4.59
118.73,11.41,6.88,11.40,6.87,-6.87,-6.81,-7.65,4.54,4.54,4.53
119.92,11.35,6.87,11.36,6.87,-6.88,-6.82,-7.68,4.47,4.48,4.48
121.12,11.30,6.87,11.31,6.88,-6.89,-6.84,-7.71,4.41,4.42,4.43
122.33,11.28,6.90,11.27,6.89,-6.90,-6.86,-7.73,4.38,4.38,4.38
123.55,11.24,6.91,11.23,6.90,-6.90,-6.87,-7.74,4.34,4.33,4.33
124.79,11.19,6.90,11.19,6.91,-6.91,-6.88,-7.74,4.28,4.28,4.29
126.03,11.14,6.90,11.15,6.91,-6.91,-6.90,-7.74,4.23,4.24,4.24
127.29,11.11,6.92,11.11,6.92,-6.92,-6.91,-7.72,4.19,4.19,4.19
128.57,11.08,6.94,11.07,6.93,-6.92,-6.92,-7.70,4.16,4.15,4.14
129.85,11.02,6.93,11.03,6.93,-6.92,-6.93,-7.66,4.10,4.11,4.09
131.15,10.97,6.92,10.98,6.93,-6.92,-6.94,-7.62,4.05,4.06,4.05
132.46,10.93,6.92,10.92,6.92,-6.92,-6.95,-7.57,4.01,4.00,4.01
133.79,10.87,6.91,10.87,6.91,-6.92,-6.95,-7.51,3.95,3.95,3.96
135.12,10.81,6.90,10.82,6.90,-6.92,-6.96,-7.45,3.89,3.90,3.91
136.48,10.77,6.90,10.77,6.90,-6.91,-6.96,-7.38,3.86,3.86,3.87
137.84,10.73,6.91,10.73,6.91,-6.91,-6.96,-7.30,3.82,3.83,3.82
139.22,10.70,6.92,10.69,6.91,-6.90,-6.97,-7.22,3.80,3.79,3.78
140.61,10.65,6.92,10.64,6.91,-6.90,-6.97,-7.14,3.75,3.75,3.73
142.02,10.58,6.88,10.59,6.89,-6.89,-6.96,-7.05,3.69,3.70,3.70
143.44,10.54,6.88,10.53,6.88,-6.88,-6.96,-6.97,3.66,3.65,3.66
144.87,10.48,6.86,10.48,6.86,-6.87,-6.96,-6.88,3.61,3.61,3.62
146.32,10.44,6.85,10.44,6.85,-6.86,-6.95,-6.78,3.58,3.58,3.59
147.78,10.39,6.84,10.40,6.85,-6.85,-6.94,-6.69,3.54,3.55,3.55
149.26,10.36,6.85,10.36,6.84,-6.83,-6.94,-6.60,3.53,3.52,3.51
150.75,10.31,6.83,10.31,6.83,-6.82,-6.93,-6.51,3.49,3.49,3.48
152.26,10.26,6.81,10.26,6.81,-6.81,-6.91,-6.42,3.45,3.45,3.45
153.78,10.20,6.79,10.20,6.79,-6.79,-6.90,-6.33,3.41,3.41,3.41
155.32,10.15,6.76,10.15,6.77,-6.78,-6.88,-6.25,3.37,3.37,3.39
156.88,10.10,6.75,10.11,6.75,-6.76,-6.87,-6.16,3.34,3.35,3.35
158.44,10.07,6.75,10.06,6.74,-6.74,-6.85,-6.08,3.33,3.32,3.32
160.03,10.01,6.72,10.01,6.73,-6.72,-6.83,-6.00,3.29,3.29,3.29
161.63,9.96,6.71,9.96,6.71,-6.70,-6.80,-5.93,3.26,3.26,3.25
163.24,9.91,6.68,9.90,6.67,-6.68,-6.78,-5.86,3.23,3.23,3.23
164.88,9.85,6.65,9.85,6.65,-6.65,-6.75,-5.79,3.20,3.20,3.20
166.53,9.79,6.62,9.80,6.62,-6.62,-6.72,-5.72,3.17,3.18,3.17
168.19,9.75,6.60,9.74,6.59,-6.59,-6.69,-5.66,3.16,3.15,3.15
169.87,9.69,6.56,9.69,6.56,-6.56,-6.66,-5.61,3.13,3.13,3.13
171.57,9.62,6.52,9.63,6.52,-6.52,-6.63,-5.56,3.10,3.10,3.10
173.29,9.57,6.49,9.56,6.48,-6.49,-6.60,-5.51,3.08,3.07,3.08
175.02,9.48,6.43,9.49,6.44,-6.45,-6.56,-5.46,3.03,3.05,3.05
176.77,9.44,6.40,9.44,6.40,-6.41,-6.52,-5.42,3.03,3.02,3.04
178.54,9.38,6.37,9.38,6.37,-6.37,-6.48,-5.39,3.01,3.01,3.01
180.32,9.33,6.34,9.33,6.34,-6.33,-6.44,-5.36,3.00,3.00,2.99
182.13,9.28,6.31,9.27,6.30,-6.29,-6.40,-5.33,2.99,2.97,2.97
183.95,9.19,6.25,9.20,6.26,-6.25,-6.35,-5.30,2.94,2.95,2.94
185.79,9.13,6.21,9.13,6.21,-6.22,-6.31,-5.28,2.91,2.92,2.92
187.65,9.08,6.18,9.07,6.17,-6.18,-6.26,-5.27,2.90,2.89,2.90
189.52,9.02,6.14,9.02,6.14,-6.14,-6.21,-5.26,2.88,2.88,2.88
191.42,8.97,6.11,8.97,6.11,-6.11,-6.16,-5.25,2.86,2.86,2.86
193.33,8.92,6.07,8.92,6.07,-6.07,-6.11,-5.24,2.85,2.85,2.85
195.27,8.86,6.03,8.86,6.04,-6.03,-6.06,-5.24,2.83,2.83,2.83
197.22,8.81,6.00,8.81,6.00,-6.00,-6.01,-5.24,2.81,2.82,2.81
199.19,8.76,5.97,8.76,5.96,-5.96,-5.95,-5.24,2.80,2.80,2.79
201.18,8.70,5.91,8.70,5.92,-5.91,-5.90,-5.25,2.79,2.79,2.79
203.19,8.64,5.87,8.64,5.87,-5.87,-5.84,-5.26,2.77,2.77,2.77
205.23,8.58,5.81,8.58,5.82,-5.82,-5.79,-5.27,2.76,2.76,2.77
207.28,8.52,5.77,8.52,5.77,-5.77,-5.73,-5.28,2.75,2.75,2.75
209.35,8.46,5.72,8.46,5.72,-5.72,-5.67,-5.30,2.74,2.74,2.74
211.44,8.40,5.67,8.40,5.67,-5.67,-5.61,-5.31,2.73,2.73,2.73
213.56,8.33,5.61,8.33,5.61,-5.62,-5.55,-5.33,2.71,2.72,2.72
215.69,8.27,5.56,8.27,5.56,-5.56,-5.49,-5.34,2.71,2.71,2.71
217.85,8.20,5.50,8.21,5.51,-5.51,-5.42,-5.36,2.69,2.70,2.70
220.03,8.15,5.46,8.15,5.46,-5.45,-5.36,-5.37,2.70,2.69,2.69
222.23,8.09,5.41,8.08,5.40,-5.40,-5.30,-5.38,2.69,2.69,2.68
224.45,8.01,5.34,8.01,5.34,-5.34,-5.23,-5.40,2.67,2.67,2.67
226.70,7.94,5.28,7.94,5.28,-5.28,-5.17,-5.40,2.66,2.66,2.66
228.96,7.87,5.21,7.88,5.22,-5.22,-5.11,-5.41,2.65,2.66,2.66
231.25,7.82,5.17,7.81,5.16,-5.16,-5.04,-5.41,2.66,2.65,2.65
233.57,7.75,5.11,7.74,5.10,-5.10,-4.98,-5.41,2.65,2.64,2.64
235.90,7.66,5.02,7.68,5.04,-5.04,-4.91,-5.41,2.62,2.63,2.64
238.26,7.62,4.99,7.62,4.98,-4.98,-4.84,-5.40,2.64,2.64,2.63
240.64,7.57,4.94,7.56,4.93,-4.92,-4.78,-5.38,2.65,2.64,2.63
243.05,7.51,4.87,7.50,4.87,-4.86,-4.71,-5.36,2.65,2.64,2.64
245.48,7.43,4.79,7.43,4.80,-4.80,-4.65,-5.34,2.63,2.64,2.64
247.93,7.35,4.72,7.36,4.73,-4.73,-4.58,-5.31,2.62,2.63,2.63
250.41,7.31,4.68,7.30,4.66,-4.67,-4.51,-5.27,2.64,2.63,2.63
252.92,7.23,4.60,7.24,4.60,-4.60,-4.45,-5.23,2.63,2.63,2.63
255.45,7.17,4.53,7.17,4.54,-4.54,-4.38,-5.18,2.63,2.63,2.64
258.00,7.11,4.48,7.10,4.47,-4.47,-4.31,-5.13,2.64,2.63,2.63
260.58,7.03,4.39,7.04,4.41,-4.40,-4.25,-5.07,2.63,2.64,2.64
263.19,6.98,4.35,6.97,4.34,-4.34,-4.18,-5.00,2.64,2.63,2.63
265.82,6.90,4.28,6.90,4.27,-4.27,-4.11,-4.93,2.63,2.63,2.62
268.48,6.82,4.19,6.83,4.20,-4.20,-4.05,-4.86,2.62,2.62,2.63
271.16,6.76,4.14,6.75,4.13,-4.13,-3.98,-4.78,2.63,2.61,2.62
273.87,6.67,4.05,6.68,4.06,-4.07,-3.92,-4.69,2.60,2.62,2.62
276.61,6.62,4.00,6.62,4.00,-4.00,-3.85,-4.60,2.62,2.62,2.62
279.38,6.56,3.94,6.55,3.94,-3.93,-3.79,-4.51,2.63,2.62,2.62
282.17,6.49,3.87,6.49,3.87,-3.87,-3.72,-4.42,2.62,2.62,2.62
284.99,6.42,3.80,6.42,3.80,-3.80,-3.66,-4.32,2.62,2.61,2.62
287.84,6.34,3.73,6.35,3.73,-3.74,-3.59,-4.22,2.60,2.61,2.61
290.72,6.28,3.67,6.28,3.68,-3.68,-3.53,-4.12,2.60,2.61,2.61
293.63,6.23,3.63,6.22,3.62,-3.62,-3.46,-4.02,2.61,2.60,2.60
296.57,6.16,3.56,6.16,3.55,-3.55,-3.40,-3.92,2.61,2.61,2.60
299.53,6.09,3.48,6.10,3.49,-3.49,-3.33,-3.81,2.60,2.61,2.61
302.53,6.03,3.43,6.03,3.43,-3.43,-3.27,-3.71,2.60,2.61,2.60
305.55,5.98,3.38,5.97,3.37,-3.36,-3.21,-3.61,2.62,2.61,2.60
308.61,5.90,3.29,5.90,3.30,-3.30,-3.14,-3.50,2.60,2.61,2.61
311.69,5.83,3.23,5.83,3.23,-3.23,-3.08,-3.40,2.60,2.60,2.60
314.81,5.76,3.15,5.76,3.15,-3.16,-3.02,-3.30,2.60,2.60,2.61
317.96,5.70,3.09,5.70,3.09,-3.09,-2.96,-3.20,2.61,2.61,2.61
321.14,5.64,3.03,5.63,3.02,-3.02,-2.90,-3.10,2.62,2.61,2.61
324.35,5.57,2.96,5.56,2.95,-2.95,-2.83,-3.00,2.62,2.61,2.61
327.59,5.48,2.87,5.49,2.88,-2.88,-2.77,-2.90,2.60,2.61,2.61
330.87,5.42,2.80,5.42,2.80,-2.81,-2.71,-2.80,2.61,2.61,2.62
334.18,5.36,2.74,5.36,2.73,-2.74,-2.65,-2.71,2.62,2.62,2.62
337.52,5.29,2.67,5.29,2.67,-2.67,-2.59,-2.61,2.62,2.63,2.62
340.90,5.23,2.60,5.22,2.60,-2.60,-2.53,-2.52,2.63,2.63,2.63
344.30,5.15,2.52,5.15,2.52,-2.53,-2.47,-2.43,2.62,2.62,2.63
347.75,5.08,2.45,5.09,2.46,-2.46,-2.41,-2.34,2.62,2.62,2.63
351.23,5.02,2.40,5.02,2.40,-2.40,-2.35,-2.25,2.62,2.63,2.62
354.74,4.97,2.34,4.96,2.33,-2.33,-2.30,-2.17,2.64,2.63,2.63
358.28,4.90,2.27,4.90,2.27,-2.27,-2.24,-2.09,2.63,2.63,2.63
361.87,4.83,2.20,4.83,2.20,-2.20,-2.18,-2.00,2.63,2.63,2.63
365.49,4.76,2.13,4.76,2.14,-2.14,-2.12,-1.92,2.62,2.63,2.63
369.14,4.69,2.06,4.70,2.07,-2.07,-2.06,-1.84,2.62,2.62,2.63
372.83,4.64,2.02,4.63,2.01,-2.01,-2.01,-1.77,2.63,2.62,2.62
376.56,4.57,1.94,4.57,1.94,-1.94,-1.95,-1.69,2.63,2.63,2.63
380.33,4.51,1.88,4.51,1.88,-1.88,-1.89,-1.62,2.63,2.63,2.63
384.13,4.45,1.82,4.45,1.82,-1.82,-1.84,-1.54,2.63,2.63,2.63
387.97,4.39,1.76,4.39,1.76,-1.76,-1.78,-1.47,2.63,2.63,2.63
391.85,4.33,1.69,4.33,1.70,-1.70,-1.72,-1.40,2.63,2.64,2.64
395.77,4.28,1.64,4.28,1.64,-1.64,-1.67,-1.33,2.64,2.64,2.64
399.73,4.22,1.58,4.22,1.58,-1.57,-1.61,-1.26,2.65,2.64,2.64
403.72,4.16,1.52,4.16,1.52,-1.51,-1.56,-1.20,2.65,2.65,2.64
407.76,4.10,1.45,4.10,1.45,-1.45,-1.50,-1.13,2.65,2.65,2.65
411.84,4.04,1.39,4.04,1.39,-1.39,-1.45,-1.07,2.65,2.65,2.65
415.96,3.99,1.33,3.98,1.33,-1.33,-1.39,-1.01,2.66,2.65,2.66
420.12,3.92,1.26,3.93,1.27,-1.27,-1.34,-0.95,2.65,2.66,2.66
424.32,3.87,1.21,3.87,1.21,-1.21,-1.28,-0.89,2.66,2.66,2.66
428.56,3.82,1.15,3.81,1.15,-1.15,-1.23,-0.83,2.67,2.66,2.67
432.85,3.76,1.09,3.76,1.09,-1.09,-1.17,-0.77,2.67,2.67,2.67
437.18,3.69,1.02,3.70,1.03,-1.03,-1.12,-0.71,2.66,2.67,2.67
441.55,3.64,0.98,3.64,0.97,-0.97,-1.06,-0.66,2.67,2.66,2.66
445.96,3.58,0.92,3.58,0.91,-0.91,-1.01,-0.60,2.67,2.66,2.66
450.42,3.51,0.85,3.52,0.85,-0.85,-0.95,-0.55,2.66,2.67,2.66
454.93,3.45,0.79,3.45,0.79,-0.79,-0.90,-0.49,2.66,2.66,2.66
459.48,3.39,0.73,3.39,0.73,-0.72,-0.84,-0.44,2.67,2.67,2.66
464.07,3.32,0.66,3.32,0.66,-0.66,-0.79,-0.39,2.66,2.66,2.66
468.71,3.26,0.60,3.25,0.59,-0.59,-0.73,-0.34,2.67,2.66,2.66
473.40,3.18,0.52,3.19,0.52,-0.53,-0.68,-0.29,2.65,2.66,2.66
478.13,3.12,0.45,3.13,0.46,-0.46,-0.62,-0.25,2.66,2.66,2.67
482.91,3.07,0.40,3.07,0.40,-0.40,-0.57,-0.20,2.67,2.67,2.67
487.74,3.01,0.34,3.01,0.34,-0.33,-0.51,-0.15,2.68,2.67,2.67
492.62,2.94,0.27,2.94,0.27,-0.27,-0.46,-0.11,2.67,2.67,2.67
497.55,2.87,0.19,2.87,0.20,-0.20,-0.40,-0.06,2.67,2.67,2.68
502.52,2.81,0.13,2.81,0.13,-0.14,-0.35,-0.02,2.67,2.67,2.68
507.55,2.75,0.07,2.75,0.07,-0.07,-0.29,0.02,2.68,2.68,2.68
