frequency,raw,error,smoothed,error_smoothed,equalization,parametric_eq,fixed_band_eq,equalized_raw,equalized_smoothed,target
20.00,-16.22,-16.72,-16.22,-16.72,6.00,5.79,2.68,-10.22,-10.22,0.50
20.20,-16.16,-16.67,-16.16,-16.67,6.00,5.81,2.76,-10.16,-10.16,0.51
20.40,-16.10,-16.62,-16.10,-16.62,6.00,5.82,2.84,-10.10,-10.10,0.52
20.61,-16.04,-16.56,-16.04,-16.56,6.00,5.84,2.92,-10.04,-10.04,0.52
20.81,-15.98,-16.51,-15.98,-16.50,6.00,5.85,3.00,-9.98,-9.98,0.53
21.02,-15.91,-16.44,-15.92,-16.45,6.00,5.87,3.09,-9.91,-9.92,0.53
21.23,-15.85,-16.39,-15.85,-16.39,6.00,5.88,3.17,-9.85,-9.85,0.54
21.44,-15.79,-16.33,-15.79,-16.32,6.00,5.90,3.26,-9.79,-9.79,0.54
21.66,-15.72,-16.26,-15.72,-16.26,6.00,5.91,3.36,-9.72,-9.72,0.54
21.87,-15.66,-16.20,-15.66,-16.20,6.00,5.92,3.45,-9.66,-9.66,0.54
22.09,-15.60,-16.15,-15.61,-16.15,6.00,5.94,3.55,-9.60,-9.61,0.55
22.31,-15.57,-16.12,-15.57,-16.11,6.00,5.95,3.65,-9.57,-9.57,0.55
22.54,-15.53,-16.07,-15.53,-16.07,6.00,5.96,3.75,-9.53,-9.53,0.54
22.76,-15.49,-16.02,-15.49,-16.02,6.00,5.97,3.86,-9.49,-9.49,0.53
22.99,-15.45,-15.98,-15.44,-15.97,6.00,5.98,3.97,-9.45,-9.44,0.52
23.22,-15.38,-15.91,-15.38,-15.90,6.00,5.99,4.08,-9.38,-9.38,0.52
23.45,-15.31,-15.83,-15.31,-15.83,6.00,6.00,4.19,-9.31,-9.31,0.51
23.69,-15.24,-15.76,-15.24,-15.75,6.00,6.01,4.31,-9.24,-9.24,0.51
23.92,-15.17,-15.68,-15.18,-15.69,6.00,6.02,4.42,-9.17,-9.18,0.51
24.16,-15.13,-15.64,-15.13,-15.64,6.00,6.03,4.54,-9.13,-9.13,0.51
24.40,-15.09,-15.60,-15.09,-15.60,6.00,6.04,4.67,-9.09,-9.09,0.51
24.65,-15.05,-15.56,-15.05,-15.57,6.00,6.05,4.79,-9.05,-9.05,0.51
24.89,-15.02,-15.53,-15.02,-15.53,6.00,6.05,4.92,-9.02,-9.02,0.51
25.14,-14.98,-15.49,-14.99,-15.49,6.00,6.06,5.04,-8.98,-8.99,0.51
25.39,-14.96,-15.46,-14.96,-15.47,6.00,6.07,5.17,-8.96,-8.96,0.50
25.65,-14.93,-15.43,-14.93,-15.43,6.00,6.07,5.30,-8.93,-8.93,0.50
25.91,-14.90,-15.40,-14.89,-15.39,6.00,6.08,5.43,-8.90,-8.89,0.50
26.16,-14.83,-15.33,-14.83,-15.33,6.00,6.08,5.56,-8.83,-8.83,0.50
26.43,-14.74,-15.24,-14.74,-15.24,6.00,6.09,5.69,-8.74,-8.74,0.50
26.69,-14.65,-15.15,-14.65,-15.14,6.00,6.09,5.82,-8.65,-8.65,0.50
26.96,-14.55,-15.05,-14.57,-15.07,6.00,6.09,5.94,-8.55,-8.57,0.50
27.23,-14.52,-15.02,-14.52,-15.02,6.00,6.10,6.07,-8.52,-8.52,0.50
27.50,-14.50,-15.00,-14.50,-15.00,6.00,6.10,6.19,-8.50,-8.50,0.50
27.77,-14.48,-14.98,-14.48,-14.97,6.00,6.10,6.31,-8.48,-8.48,0.49
28.05,-14.44,-14.94,-14.43,-14.92,6.00,6.11,6.42,-8.44,-8.43,0.49
28.33,-14.35,-14.84,-14.35,-14.84,6.00,6.11,6.53,-8.35,-8.35,0.49
28.62,-14.26,-14.76,-14.26,-14.75,6.00,6.11,6.63,-8.26,-8.26,0.49
28.90,-14.16,-14.66,-14.18,-14.68,6.00,6.11,6.73,-8.16,-8.18,0.50
29.19,-14.12,-14.62,-14.13,-14.63,6.00,6.11,6.82,-8.12,-8.13,0.50
29.48,-14.12,-14.62,-14.12,-14.62,6.00,6.11,6.90,-8.12,-8.12,0.50
29.78,-14.11,-14.62,-14.10,-14.61,6.00,6.11,6.98,-8.11,-8.10,0.51
30.08,-14.08,-14.59,-14.07,-14.58,6.00,6.11,7.05,-8.08,-8.07,0.51
30.38,-14.01,-14.52,-14.01,-14.52,6.00,6.11,7.10,-8.01,-8.01,0.51
30.68,-13.94,-14.45,-13.94,-14.44,6.00,6.11,7.15,-7.94,-7.94,0.51
30.99,-13.86,-14.37,-13.89,-14.39,6.00,6.10,7.19,-7.86,-7.89,0.50
31.30,-13.87,-14.37,-13.88,-14.38,6.00,6.10,7.22,-7.87,-7.88,0.50
31.61,-13.88,-14.38,-13.88,-14.38,6.00,6.10,7.24,-7.88,-7.88,0.50
31.93,-13.89,-14.39,-13.87,-14.36,6.00,6.10,7.24,-7.89,-7.87,0.50
32.24,-13.81,-14.30,-13.80,-14.30,6.00,6.10,7.24,-7.81,-7.80,0.49
32.57,-13.70,-14.19,-13.71,-14.20,6.00,6.09,7.23,-7.70,-7.71,0.49
32.89,-13.59,-14.08,-13.60,-14.09,6.00,6.09,7.22,-7.59,-7.60,0.49
33.22,-13.52,-14.00,-13.53,-14.01,6.00,6.08,7.19,-7.52,-7.53,0.47
33.55,-13.47,-13.94,-13.47,-13.94,6.00,6.08,7.16,-7.47,-7.47,0.47
33.89,-13.43,-13.89,-13.42,-13.89,6.00,6.08,7.12,-7.43,-7.42,0.46
34.23,-13.36,-13.82,-13.35,-13.81,6.00,6.07,7.07,-7.36,-7.35,0.46
34.57,-13.28,-13.74,-13.28,-13.74,6.00,6.07,7.02,-7.28,-7.28,0.46
34.92,-13.20,-13.66,-13.23,-13.68,6.00,6.06,6.96,-7.20,-7.23,0.46
35.27,-13.21,-13.67,-13.23,-13.68,6.00,6.06,6.90,-7.21,-7.23,0.45
35.62,-13.24,-13.69,-13.24,-13.70,6.00,6.05,6.84,-7.24,-7.24,0.45
35.97,-13.28,-13.73,-13.23,-13.68,6.00,6.05,6.77,-7.28,-7.23,0.45
36.33,-13.16,-13.61,-13.16,-13.60,6.00,6.04,6.71,-7.16,-7.16,0.45
36.70,-13.03,-13.48,-13.05,-13.49,6.00,6.04,6.64,-7.03,-7.05,0.45
37.06,-12.92,-13.36,-12.95,-13.39,6.00,6.03,6.57,-6.92,-6.95,0.44
37.43,-12.90,-13.34,-12.89,-13.34,6.00,6.02,6.51,-6.90,-6.89,0.44
37.81,-12.88,-13.33,-12.88,-13.32,6.00,6.02,6.44,-6.88,-6.88,0.45
38.19,-12.87,-13.32,-12.89,-13.33,6.00,6.01,6.37,-6.87,-6.89,0.45
38.57,-12.88,-13.32,-12.88,-13.33,6.00,6.00,6.31,-6.88,-6.88,0.44
38.95,-12.88,-13.33,-12.85,-13.30,6.00,6.00,6.25,-6.88,-6.85,0.45
39.34,-12.79,-13.24,-12.78,-13.23,6.00,5.99,6.19,-6.79,-6.78,0.45
39.74,-12.68,-13.13,-12.69,-13.14,6.00,5.99,6.14,-6.68,-6.69,0.44
40.14,-12.59,-13.03,-12.61,-13.05,6.00,5.98,6.09,-6.59,-6.61,0.44
40.54,-12.55,-12.99,-12.55,-12.99,6.00,5.97,6.04,-6.55,-6.55,0.44
40.94,-12.51,-12.95,-12.50,-12.94,6.00,5.97,5.99,-6.51,-6.50,0.43
41.35,-12.45,-12.88,-12.45,-12.88,6.00,5.96,5.95,-6.45,-6.45,0.43
41.76,-12.38,-12.80,-12.38,-12.80,6.00,5.95,5.91,-6.38,-6.38,0.42
42.18,-12.31,-12.72,-12.29,-12.70,6.00,5.95,5.88,-6.31,-6.29,0.41
42.60,-12.21,-12.62,-12.21,-12.62,6.00,5.94,5.85,-6.21,-6.21,0.41
43.03,-12.12,-12.53,-12.18,-12.58,6.00,5.93,5.82,-6.12,-6.18,0.40
43.46,-12.18,-12.58,-12.18,-12.58,6.00,5.93,5.80,-6.18,-6.18,0.40
43.90,-12.23,-12.62,-12.17,-12.56,6.00,5.92,5.79,-6.23,-6.17,0.39
44.33,-12.15,-12.53,-12.14,-12.52,6.00,5.92,5.78,-6.15,-6.14,0.38
44.78,-12.03,-12.41,-12.07,-12.45,6.00,5.91,5.77,-6.03,-6.07,0.38
45.23,-12.00,-12.37,-12.04,-12.41,6.00,5.91,5.76,-6.00,-6.04,0.37
45.68,-12.04,-12.41,-12.02,-12.39,6.00,5.90,5.77,-6.04,-6.02,0.37
46.13,-12.03,-12.40,-11.96,-12.33,6.00,5.90,5.77,-6.03,-5.96,0.37
46.60,-11.86,-12.23,-11.88,-12.24,6.00,5.89,5.78,-5.86,-5.88,0.36
47.06,-11.73,-12.10,-11.83,-12.20,6.00,5.89,5.79,-5.73,-5.83,0.37
47.53,-11.81,-12.18,-11.81,-12.18,6.00,5.88,5.81,-5.81,-5.81,0.37
48.01,-11.88,-12.26,-11.77,-12.14,6.00,5.88,5.83,-5.88,-5.77,0.38
48.49,-11.70,-12.08,-11.70,-12.08,6.00,5.87,5.86,-5.70,-5.70,0.38
48.97,-11.53,-11.91,-11.64,-12.03,6.00,5.87,5.89,-5.53,-5.64,0.38
49.46,-11.59,-11.98,-11.60,-11.99,6.00,5.87,5.92,-5.59,-5.60,0.39
49.96,-11.67,-12.07,-11.56,-11.96,6.00,5.86,5.95,-5.67,-5.56,0.40
50.46,-11.51,-11.91,-11.50,-11.91,6.00,5.86,5.99,-5.51,-5.50,0.40
50.96,-11.33,-11.74,-11.43,-11.84,6.00,5.86,6.03,-5.33,-5.43,0.41
51.47,-11.37,-11.79,-11.37,-11.79,6.00,5.86,6.07,-5.37,-5.37,0.41
51.99,-11.43,-11.85,-11.39,-11.80,6.00,5.86,6.12,-5.43,-5.39,0.42
52.51,-11.39,-11.81,-11.39,-11.81,6.00,5.86,6.16,-5.39,-5.39,0.42
53.03,-11.34,-11.76,-11.33,-11.75,6.00,5.86,6.21,-5.34,-5.33,0.42
53.56,-11.25,-11.67,-11.27,-11.69,6.00,5.86,6.26,-5.25,-5.27,0.42
54.10,-11.19,-11.62,-11.25,-11.67,6.00,5.86,6.31,-5.19,-5.25,0.43
54.64,-11.24,-11.67,-11.20,-11.63,6.00,5.86,6.35,-5.24,-5.20,0.43
55.18,-11.21,-11.64,-11.14,-11.56,6.00,5.86,6.40,-5.21,-5.14,0.43
55.74,-11.01,-11.43,-11.08,-11.51,6.00,5.86,6.44,-5.01,-5.08,0.42
56.29,-10.96,-11.38,-11.03,-11.45,6.00,5.87,6.49,-4.96,-5.03,0.42
56.86,-11.05,-11.47,-10.94,-11.36,6.00,5.87,6.53,-5.05,-4.94,0.41
57.42,-10.92,-11.32,-10.89,-11.29,6.00,5.87,6.56,-4.92,-4.89,0.40
58.00,-10.71,-11.10,-10.83,-11.22,6.00,5.88,6.59,-4.71,-4.83,0.39
58.58,-10.78,-11.16,-10.77,-11.15,6.00,5.88,6.62,-4.78,-4.77,0.38
59.16,-10.81,-11.18,-10.76,-11.13,6.00,5.89,6.65,-4.81,-4.76,0.36
59.76,-10.74,-11.09,-10.72,-11.07,6.00,5.90,6.67,-4.74,-4.72,0.35
60.35,-10.64,-10.97,-10.64,-10.97,6.00,5.90,6.68,-4.64,-4.64,0.33
60.96,-10.52,-10.82,-10.60,-10.90,6.00,5.91,6.69,-4.52,-4.60,0.30
61.57,-10.60,-10.88,-10.59,-10.87,6.00,5.92,6.69,-4.60,-4.59,0.28
62.18,-10.64,-10.88,-10.58,-10.82,6.00,5.93,6.68,-4.64,-4.58,0.24
62.80,-10.53,-10.74,-10.52,-10.72,6.00,5.93,6.67,-4.53,-4.52,0.21
63.43,-10.41,-10.57,-10.44,-10.60,6.00,5.94,6.65,-4.41,-4.44,0.16
64.07,-10.32,-10.44,-10.39,-10.51,6.00,5.95,6.63,-4.32,-4.39,0.12
64.71,-10.42,-10.50,-10.38,-10.46,6.00,5.96,6.60,-4.42,-4.38,0.08
65.35,-10.41,-10.45,-10.36,-10.39,6.00,5.97,6.56,-4.41,-4.36,0.04
66.01,-10.29,-10.29,-10.29,-10.29,6.00,5.99,6.52,-4.29,-4.29,-0.00
66.67,-10.17,-10.13,-10.21,-10.18,6.00,6.00,6.47,-4.17,-4.21,-0.04
67.33,-10.15,-10.08,-10.18,-10.11,6.00,6.01,6.42,-4.15,-4.18,-0.07
68.01,-10.22,-10.11,-10.20,-10.09,6.00,6.02,6.36,-4.22,-4.20,-0.11
68.69,-10.22,-10.08,-10.19,-10.05,6.00,6.03,6.30,-4.22,-4.19,-0.14
69.37,-10.13,-9.96,-10.12,-9.94,6.00,6.04,6.23,-4.13,-4.12,-0.17
70.07,-9.98,-9.78,-10.01,-9.81,6.00,6.06,6.17,-3.98,-4.01,-0.20
70.77,-9.91,-9.68,-9.93,-9.70,6.00,6.07,6.10,-3.91,-3.93,-0.24
71.48,-9.89,-9.63,-9.88,-9.62,6.00,6.08,6.03,-3.89,-3.88,-0.26
72.19,-9.87,-9.58,-9.85,-9.56,6.00,6.09,5.95,-3.87,-3.85,-0.29
72.91,-9.80,-9.47,-9.82,-9.50,6.00,6.10,5.88,-3.80,-3.82,-0.33
73.64,-9.79,-9.43,-9.78,-9.42,6.00,6.12,5.81,-3.79,-3.78,-0.36
74.38,-9.75,-9.35,-9.73,-9.34,6.00,6.13,5.73,-3.75,-3.73,-0.40
75.12,-9.69,-9.26,-9.72,-9.29,6.00,6.14,5.66,-3.69,-3.72,-0.43
75.87,-9.69,-9.21,-9.72,-9.24,6.00,6.15,5.59,-3.69,-3.72,-0.48
76.63,-9.73,-9.21,-9.66,-9.15,6.00,6.16,5.52,-3.73,-3.66,-0.52
77.40,-9.62,-9.06,-9.59,-9.02,6.00,6.17,5.45,-3.62,-3.59,-0.57
78.17,-9.43,-8.83,-9.51,-8.91,6.00,6.17,5.39,-3.43,-3.51,-0.60
78.95,-9.45,-8.80,-9.48,-8.83,6.00,6.18,5.32,-3.45,-3.48,-0.65
79.74,-9.52,-8.83,-9.49,-8.80,6.00,6.19,5.26,-3.52,-3.49,-0.69
80.54,-9.53,-8.79,-9.47,-8.73,6.00,6.19,5.20,-3.53,-3.47,-0.74
81.35,-9.42,-8.64,-9.42,-8.64,6.00,6.19,5.15,-3.42,-3.42,-0.78
82.16,-9.24,-8.42,-9.34,-8.51,6.00,6.19,5.09,-3.24,-3.34,-0.82
82.98,-9.32,-8.46,-9.26,-8.40,6.00,6.19,5.04,-3.32,-3.26,-0.87
83.81,-9.21,-8.30,-9.20,-8.29,6.00,6.19,5.00,-3.21,-3.20,-0.91
84.65,-9.12,-8.18,-9.13,-8.19,6.00,6.19,4.96,-3.12,-3.13,-0.94
85.50,-9.03,-8.05,-9.06,-8.07,6.00,6.18,4.92,-3.03,-3.06,-0.98
86.35,-8.99,-7.96,-8.99,-7.97,6.00,6.17,4.88,-2.99,-2.99,-1.03
87.22,-8.98,-7.91,-8.93,-7.85,6.00,6.16,4.85,-2.98,-2.93,-1.07
88.09,-8.82,-7.70,-8.86,-7.75,6.00,6.15,4.82,-2.82,-2.86,-1.12
88.97,-8.78,-7.63,-8.80,-7.64,6.00,6.14,4.80,-2.78,-2.80,-1.15
89.86,-8.74,-7.54,-8.73,-7.53,6.00,6.12,4.78,-2.74,-2.73,-1.20
90.76,-8.70,-7.46,-8.68,-7.44,6.00,6.10,4.76,-2.70,-2.68,-1.24
91.66,-8.59,-7.31,-8.60,-7.32,6.00,6.08,4.75,-2.59,-2.60,-1.28
92.58,-8.51,-7.19,-8.52,-7.19,6.00,6.05,4.74,-2.51,-2.52,-1.32
93.51,-8.44,-7.08,-8.45,-7.08,6.00,6.02,4.73,-2.44,-2.45,-1.37
94.44,-8.39,-6.99,-8.40,-7.00,6.00,5.99,4.73,-2.39,-2.40,-1.40
95.39,-8.36,-6.92,-8.34,-6.90,6.00,5.96,4.73,-2.36,-2.34,-1.44
96.34,-8.29,-6.81,-8.28,-6.80,6.00,5.93,4.73,-2.29,-2.27,-1.48
97.30,-8.18,-6.66,-8.22,-6.69,6.01,5.89,4.74,-2.17,-2.21,-1.52
98.28,-8.14,-6.58,-8.14,-6.58,6.01,5.85,4.75,-2.13,-2.13,-1.57
99.26,-8.09,-6.49,-8.06,-6.45,6.01,5.80,4.76,-2.08,-2.04,-1.61
100.25,-7.96,-6.32,-7.97,-6.32,6.01,5.76,4.77,-1.95,-1.96,-1.64
101.25,-7.84,-6.16,-7.87,-6.18,5.99,5.71,4.79,-1.85,-1.87,-1.68
102.27,-7.79,-6.06,-7.78,-6.04,5.96,5.66,4.80,-1.83,-1.81,-1.73
103.29,-7.72,-5.94,-7.73,-5.95,5.92,5.61,4.82,-1.80,-1.81,-1.78
104.32,-7.68,-5.85,-7.69,-5.86,5.86,5.55,4.84,-1.82,-1.83,-1.83
105.37,-7.67,-5.80,-7.66,-5.78,5.78,5.50,4.87,-1.89,-1.87,-1.87
106.42,-7.61,-5.69,-7.62,-5.70,5.69,5.44,4.89,-1.92,-1.93,-1.92
107.48,-7.57,-5.60,-7.55,-5.59,5.58,5.38,4.91,-1.99,-1.97,-1.97
108.56,-7.48,-5.46,-7.48,-5.46,5.47,5.32,4.93,-2.02,-2.02,-2.02
109.64,-7.38,-5.31,-7.41,-5.35,5.34,5.25,4.95,-2.04,-2.07,-2.07
110.74,-7.35,-5.24,-7.33,-5.22,5.22,5.19,4.97,-2.13,-2.11,-2.11
111.85,-7.26,-5.12,-7.24,-5.09,5.10,5.12,4.99,-2.16,-2.14,-2.15
112.97,-7.13,-4.95,-7.15,-4.97,4.98,5.05,5.01,-2.15,-2.17,-2.18
114.10,-7.06,-4.84,-7.07,-4.85,4.87,4.98,5.02,-2.19,-2.20,-2.22
115.24,-7.00,-4.75,-7.00,-4.75,4.76,4.91,5.03,-2.24,-2.24,-2.25
116.39,-6.96,-4.67,-6.95,-4.67,4.66,4.84,5.04,-2.30,-2.29,-2.29
117.55,-6.89,-4.58,-6.90,-4.59,4.57,4.77,5.04,-2.32,-2.33,-2.31
118.73,-6.84,-4.51,-6.84,-4.51,4.49,4.70,5.04,-2.35,-2.35,-2.33
119.92,-6.78,-4.43,-6.78,-4.42,4.42,4.63,5.03,-2.36,-2.36,-2.35
121.12,-6.71,-4.34,-6.71,-4.34,4.35,4.55,5.02,-2.36,-2.36,-2.37
122.33,-6.65,-4.27,-6.65,-4.27,4.30,4.48,5.01,-2.36,-2.36,-2.38
123.55,-6.61,-4.21,-6.62,-4.22,4.24,4.41,4.99,-2.37,-2.38,-2.40
124.79,-6.60,-4.19,-6.61,-4.19,4.19,4.33,4.96,-2.41,-2.42,-2.42
126.03,-6.61,-4.18,-6.60,-4.17,4.15,4.26,4.93,-2.46,-2.45,-2.43
127.29,-6.58,-4.14,-6.57,-4.12,4.11,4.19,4.89,-2.47,-2.46,-2.45
128.57,-6.52,-4.06,-6.53,-4.07,4.07,4.11,4.85,-2.45,-2.46,-2.46
129.85,-6.47,-4.00,-6.49,-4.02,4.03,4.04,4.80,-2.45,-2.46,-2.47
131.15,-6.47,-3.99,-6.47,-3.98,3.98,3.97,4.75,-2.50,-2.50,-2.49
132.46,-6.46,-3.95,-6.45,-3.95,3.92,3.89,4.69,-2.54,-2.53,-2.51
133.79,-6.44,-3.92,-6.42,-3.89,3.87,3.82,4.62,-2.57,-2.55,-2.52
135.12,-6.34,-3.80,-6.35,-3.81,3.82,3.75,4.56,-2.52,-2.53,-2.54
136.48,-6.28,-3.73,-6.29,-3.74,3.77,3.68,4.48,-2.51,-2.52,-2.55
137.84,-6.25,-3.68,-6.25,-3.68,3.73,3.61,4.41,-2.53,-2.53,-2.57
139.22,-6.25,-3.66,-6.25,-3.66,3.68,3.54,4.33,-2.58,-2.58,-2.59
140.61,-6.25,-3.64,-6.25,-3.64,3.62,3.47,4.25,-2.63,-2.63,-2.61
142.02,-6.26,-3.63,-6.24,-3.61,3.57,3.40,4.16,-2.69,-2.67,-2.63
143.44,-6.20,-3.54,-6.21,-3.55,3.52,3.33,4.08,-2.68,-2.69,-2.66
144.87,-6.15,-3.47,-6.15,-3.47,3.47,3.27,3.99,-2.68,-2.69,-2.69
146.32,-6.10,-3.39,-6.10,-3.38,3.42,3.20,3.90,-2.69,-2.68,-2.71
147.78,-6.05,-3.30,-6.06,-3.32,3.35,3.14,3.81,-2.70,-2.71,-2.75
149.26,-6.04,-3.26,-6.04,-3.26,3.28,3.07,3.72,-2.76,-2.77,-2.78
150.75,-6.04,-3.21,-6.05,-3.21,3.19,3.01,3.63,-2.85,-2.85,-2.83
152.26,-6.04,-3.16,-6.04,-3.15,3.11,2.95,3.54,-2.94,-2.93,-2.88
153.78,-6.02,-3.08,-5.99,-3.05,3.01,2.88,3.45,-3.01,-2.98,-2.94
155.32,-5.92,-2.92,-5.94,-2.94,2.92,2.82,3.36,-3.00,-3.02,-3.00
156.88,-5.84,-2.79,-5.86,-2.80,2.82,2.76,3.27,-3.02,-3.04,-3.05
158.44,-5.82,-2.71,-5.80,-2.68,2.72,2.70,3.18,-3.10,-3.08,-3.12
160.03,-5.74,-2.57,-5.77,-2.60,2.62,2.64,3.09,-3.12,-3.15,-3.17
161.63,-5.74,-2.53,-5.74,-2.52,2.54,2.59,3.00,-3.20,-3.20,-3.21
163.24,-5.73,-2.47,-5.70,-2.45,2.46,2.53,2.92,-3.27,-3.23,-3.26
164.88,-5.65,-2.36,-5.68,-2.39,2.40,2.47,2.83,-3.25,-3.28,-3.29
166.53,-5.65,-2.33,-5.66,-2.35,2.35,2.42,2.75,-3.30,-3.31,-3.32
168.19,-5.66,-2.33,-5.65,-2.32,2.30,2.37,2.67,-3.36,-3.35,-3.34
169.87,-5.66,-2.32,-5.64,-2.29,2.26,2.31,2.59,-3.40,-3.38,-3.34
171.57,-5.59,-2.24,-5.60,-2.25,2.22,2.26,2.51,-3.37,-3.37,-3.35
173.29,-5.52,-2.17,-5.53,-2.19,2.19,2.21,2.44,-3.33,-3.34,-3.35
175.02,-5.48,-2.15,-5.46,-2.13,2.16,2.16,2.36,-3.32,-3.31,-3.34
176.77,-5.40,-2.08,-5.42,-2.10,2.12,2.11,2.29,-3.28,-3.30,-3.32
178.54,-5.38,-2.07,-5.39,-2.09,2.09,2.06,2.22,-3.29,-3.31,-3.31
180.32,-5.38,-2.10,-5.36,-2.07,2.05,2.01,2.15,-3.33,-3.31,-3.28
182.13,-5.32,-2.05,-5.31,-2.05,2.02,1.96,2.08,-3.30,-3.29,-3.27
183.95,-5.24,-2.00,-5.25,-2.00,2.00,1.91,2.02,-3.24,-3.25,-3.24
185.79,-5.16,-1.93,-5.18,-1.95,1.97,1.87,1.96,-3.19,-3.21,-3.23
187.65,-5.14,-1.91,-5.14,-1.92,1.94,1.82,1.89,-3.21,-3.21,-3.23
189.52,-5.12,-1.90,-5.12,-1.90,1.89,1.78,1.83,-3.23,-3.23,-3.22
191.42,-5.11,-1.89,-5.10,-1.88,1.84,1.73,1.77,-3.27,-3.26,-3.22
193.33,-5.05,-1.84,-5.05,-1.83,1.79,1.69,1.71,-3.26,-3.25,-3.22
195.27,-4.98,-1.76,-4.98,-1.76,1.75,1.65,1.66,-3.23,-3.23,-3.22
197.22,-4.90,-1.67,-4.91,-1.68,1.71,1.60,1.60,-3.19,-3.20,-3.23
199.19,-4.85,-1.62,-4.86,-1.63,1.67,1.56,1.55,-3.18,-3.19,-3.23
201.18,-4.84,-1.60,-4.84,-1.60,1.64,1.52,1.50,-3.20,-3.20,-3.24
203.19,-4.84,-1.59,-4.84,-1.59,1.60,1.48,1.45,-3.24,-3.23,-3.25
205.23,-4.84,-1.58,-4.85,-1.59,1.57,1.44,1.40,-3.27,-3.28,-3.26
207.28,-4.84,-1.57,-4.84,-1.57,1.54,1.40,1.35,-3.31,-3.31,-3.27
209.35,-4.84,-1.56,-4.83,-1.55,1.51,1.36,1.30,-3.34,-3.33,-3.28
211.44,-4.79,-1.49,-4.79,-1.50,1.47,1.32,1.26,-3.32,-3.32,-3.30
213.56,-4.75,-1.45,-4.74,-1.43,1.44,1.29,1.21,-3.31,-3.30,-3.31
215.69,-4.66,-1.34,-4.69,-1.36,1.40,1.25,1.17,-3.26,-3.29,-3.32
217.85,-4.65,-1.32,-4.66,-1.33,1.36,1.21,1.13,-3.29,-3.30,-3.33
220.03,-4.66,-1.31,-4.65,-1.31,1.32,1.18,1.08,-3.34,-3.34,-3.35
222.23,-4.66,-1.30,-4.65,-1.29,1.28,1.14,1.04,-3.38,-3.37,-3.36
224.45,-4.63,-1.27,-4.62,-1.25,1.24,1.10,1.00,-3.39,-3.38,-3.36
226.70,-4.57,-1.20,-4.59,-1.22,1.21,1.07,0.97,-3.36,-3.38,-3.37
228.96,-4.55,-1.17,-4.56,-1.19,1.18,1.03,0.93,-3.37,-3.38,-3.38
231.25,-4.55,-1.18,-4.53,-1.15,1.15,1.00,0.89,-3.40,-3.38,-3.37
233.57,-4.49,-1.11,-4.49,-1.11,1.10,0.96,0.85,-3.39,-3.39,-3.38
235.90,-4.42,-1.04,-4.44,-1.06,1.06,0.93,0.82,-3.36,-3.38,-3.38
238.26,-4.39,-1.02,-4.38,-1.01,1.01,0.90,0.78,-3.38,-3.37,-3.37
240.64,-4.31,-0.95,-4.33,-0.97,0.96,0.86,0.75,-3.35,-3.37,-3.36
243.05,-4.28,-0.93,-4.27,-0.92,0.92,0.83,0.71,-3.36,-3.36,-3.35
245.48,-4.23,-0.88,-4.21,-0.86,0.87,0.80,0.68,-3.36,-3.34,-3.35
247.93,-4.13,-0.79,-4.16,-0.81,0.83,0.77,0.65,-3.31,-3.33,-3.34
250.41,-4.11,-0.77,-4.12,-0.78,0.78,0.73,0.61,-3.33,-3.33,-3.34
252.92,-4.09,-0.76,-4.09,-0.75,0.75,0.70,0.58,-3.34,-3.34,-3.33
255.45,-4.08,-0.74,-4.06,-0.72,0.71,0.67,0.55,-3.37,-3.34,-3.34
258.00,-4.01,-0.67,-4.02,-0.68,0.68,0.64,0.52,-3.33,-3.34,-3.34
260.58,-3.97,-0.63,-3.99,-0.64,0.65,0.60,0.49,-3.32,-3.34,-3.35
263.19,-3.97,-0.62,-3.97,-0.62,0.62,0.57,0.46,-3.35,-3.35,-3.35
265.82,-3.97,-0.62,-3.97,-0.61,0.60,0.54,0.43,-3.37,-3.37,-3.35
268.48,-3.97,-0.61,-3.95,-0.59,0.58,0.51,0.40,-3.39,-3.36,-3.36
271.16,-3.90,-0.54,-3.92,-0.55,0.57,0.47,0.37,-3.33,-3.35,-3.36
273.87,-3.87,-0.51,-3.89,-0.52,0.55,0.44,0.34,-3.32,-3.34,-3.36
276.61,-3.88,-0.51,-3.88,-0.51,0.53,0.41,0.31,-3.36,-3.35,-3.37
279.38,-3.88,-0.51,-3.88,-0.51,0.49,0.37,0.28,-3.39,-3.39,-3.37
282.17,-3.87,-0.51,-3.87,-0.51,0.45,0.34,0.25,-3.42,-3.42,-3.36
284.99,-3.82,-0.46,-3.82,-0.46,0.41,0.31,0.22,-3.41,-3.41,-3.36
287.84,-3.76,-0.40,-3.73,-0.37,0.37,0.27,0.19,-3.39,-3.36,-3.36
290.72,-3.61,-0.26,-3.63,-0.28,0.33,0.24,0.17,-3.29,-3.31,-3.35
293.63,-3.53,-0.19,-3.56,-0.21,0.27,0.20,0.14,-3.26,-3.28,-3.34
296.57,-3.52,-0.18,-3.53,-0.19,0.22,0.16,0.11,-3.30,-3.31,-3.34
299.53,-3.52,-0.18,-3.51,-0.18,0.16,0.12,0.08,-3.36,-3.35,-3.34
302.53,-3.52,-0.19,-3.48,-0.15,0.10,0.08,0.05,-3.42,-3.38,-3.33
305.55,-3.38,-0.05,-3.41,-0.07,0.04,0.04,0.02,-3.34,-3.37,-3.33
308.61,-3.32,0.01,-3.32,0.02,-0.02,-0.00,-0.00,-3.34,-3.34,-3.34
311.69,-3.22,0.12,-3.24,0.10,-0.08,-0.05,-0.03,-3.31,-3.33,-3.34
314.81,-3.18,0.17,-3.18,0.17,-0.15,-0.10,-0.06,-3.33,-3.33,-3.35
317.96,-3.15,0.20,-3.10,0.25,-0.23,-0.15,-0.09,-3.38,-3.33,-3.35
321.14,-3.01,0.35,-3.05,0.31,-0.30,-0.20,-0.12,-3.32,-3.35,-3.36
324.35,-2.96,0.40,-2.99,0.38,-0.38,-0.26,-0.15,-3.34,-3.37,-3.37
327.59,-2.97,0.41,-2.94,0.44,-0.45,-0.32,-0.18,-3.42,-3.39,-3.38
330.87,-2.90,0.49,-2.90,0.49,-0.52,-0.39,-0.21,-3.42,-3.42,-3.39
334.18,-2.83,0.57,-2.82,0.58,-0.59,-0.46,-0.24,-3.42,-3.41,-3.40
337.52,-2.71,0.70,-2.74,0.67,-0.66,-0.54,-0.27,-3.37,-3.40,-3.41
340.90,-2.66,0.75,-2.68,0.74,-0.72,-0.62,-0.30,-3.38,-3.40,-3.41
344.30,-2.66,0.76,-2.63,0.80,-0.78,-0.71,-0.33,-3.44,-3.40,-3.42
347.75,-2.59,0.85,-2.59,0.85,-0.83,-0.80,-0.36,-3.42,-3.42,-3.45
351.23,-2.54,0.92,-2.57,0.89,-0.88,-0.89,-0.39,-3.43,-3.45,-3.46
354.74,-2.54,0.93,-2.54,0.93,-0.94,-0.99,-0.43,-3.48,-3.48,-3.47
358.28,-2.55,0.93,-2.53,0.95,-0.99,-1.07,-0.46,-3.54,-3.52,-3.48
361.87,-2.49,1.00,-2.50,1.00,-1.04,-1.14,-0.49,-3.53,-3.53,-3.49
365.49,-2.45,1.06,-2.44,1.07,-1.08,-1.19,-0.53,-3.53,-3.52,-3.51
369.14,-2.36,1.16,-2.38,1.14,-1.12,-1.23,-0.56,-3.49,-3.50,-3.52
372.83,-2.33,1.20,-2.34,1.19,-1.16,-1.24,-0.59,-3.50,-3.51,-3.53
376.56,-2.33,1.21,-2.31,1.23,-1.20,-1.23,-0.63,-3.53,-3.51,-3.54
380.33,-2.31,1.24,-2.32,1.23,-1.24,-1.21,-0.66,-3.55,-3.56,-3.56
384.13,-2.31,1.26,-2.33,1.23,-1.26,-1.17,-0.70,-3.57,-3.59,-3.57
387.97,-2.37,1.21,-2.33,1.25,-1.27,-1.14,-0.73,-3.64,-3.60,-3.58
391.85,-2.33,1.26,-2.33,1.26,-1.26,-1.10,-0.77,-3.60,-3.59,-3.59
395.77,-2.31,1.29,-2.34,1.26,-1.25,-1.06,-0.80,-3.56,-3.59,-3.60
399.73,-2.35,1.26,-2.36,1.25,-1.22,-1.03,-0.84,-3.57,-3.58,-3.61
403.72,-2.44,1.18,-2.42,1.21,-1.18,-1.01,-0.88,-3.62,-3.60,-3.62
407.76,-2.50,1.14,-2.50,1.14,-1.12,-0.99,-0.91,-3.62,-3.62,-3.64
411.84,-2.55,1.10,-2.57,1.08,-1.06,-0.97,-0.95,-3.61,-3.63,-3.65
415.96,-2.67,0.99,-2.66,1.00,-0.98,-0.96,-0.99,-3.66,-3.64,-3.66
