frequency,raw,error,smoothed,error_smoothed,equalization,parametric_eq,fixed_band_eq,equalized_raw,equalized_smoothed,target
20.00,-3.07,-6.40,-3.07,-6.40,5.96,6.18,1.77,2.89,2.89,3.33
20.20,-2.99,-6.36,-3.00,-6.36,5.99,6.17,1.82,3.00,3.00,3.37
20.40,-2.92,-6.33,-2.92,-6.32,6.01,6.15,1.87,3.09,3.10,3.41
20.61,-2.84,-6.27,-2.84,-6.28,6.03,6.13,1.92,3.18,3.19,3.43
20.81,-2.76,-6.23,-2.76,-6.23,6.03,6.11,1.98,3.27,3.27,3.47
21.02,-2.68,-6.19,-2.68,-6.18,6.02,6.08,2.04,3.34,3.34,3.51
21.23,-2.60,-6.13,-2.60,-6.13,6.01,6.05,2.10,3.41,3.41,3.53
21.44,-2.52,-6.07,-2.52,-6.07,5.99,6.02,2.16,3.47,3.47,3.55
21.66,-2.44,-6.01,-2.44,-6.01,5.96,5.99,2.22,3.52,3.52,3.57
21.87,-2.37,-5.95,-2.37,-5.95,5.92,5.95,2.28,3.55,3.56,3.58
22.09,-2.29,-5.89,-2.29,-5.88,5.87,5.91,2.35,3.58,3.58,3.60
22.31,-2.21,-5.82,-2.21,-5.81,5.81,5.87,2.42,3.60,3.60,3.60
22.54,-2.13,-5.74,-2.13,-5.74,5.75,5.82,2.49,3.61,3.62,3.60
22.76,-2.05,-5.67,-2.05,-5.66,5.68,5.78,2.56,3.62,3.62,3.61
22.99,-1.97,-5.59,-1.97,-5.59,5.60,5.73,2.63,3.63,3.63,3.61
23.22,-1.89,-5.52,-1.89,-5.52,5.53,5.67,2.71,3.63,3.63,3.62
23.45,-1.81,-5.44,-1.82,-5.45,5.46,5.62,2.78,3.64,3.64,3.63
23.69,-1.74,-5.39,-1.74,-5.38,5.39,5.57,2.86,3.64,3.65,3.64
23.92,-1.66,-5.32,-1.66,-5.32,5.32,5.51,2.94,3.66,3.66,3.66
24.16,-1.58,-5.26,-1.58,-5.26,5.25,5.45,3.02,3.67,3.67,3.68
24.40,-1.50,-5.19,-1.50,-5.19,5.18,5.39,3.10,3.68,3.68,3.69
24.65,-1.41,-5.10,-1.41,-5.11,5.11,5.33,3.19,3.70,3.70,3.69
24.89,-1.33,-5.04,-1.33,-5.04,5.04,5.27,3.27,3.71,3.71,3.71
25.14,-1.25,-4.97,-1.25,-4.97,4.97,5.20,3.35,3.72,3.72,3.72
25.39,-1.17,-4.90,-1.17,-4.90,4.90,5.14,3.44,3.73,3.73,3.73
25.65,-1.09,-4.83,-1.09,-4.83,4.83,5.07,3.52,3.74,3.74,3.74
25.91,-1.01,-4.76,-1.01,-4.76,4.76,5.00,3.61,3.75,3.75,3.75
26.16,-0.93,-4.69,-0.93,-4.69,4.69,4.93,3.69,3.76,3.76,3.76
26.43,-0.85,-4.62,-0.85,-4.62,4.62,4.86,3.77,3.77,3.77,3.77
26.69,-0.77,-4.56,-0.77,-4.55,4.56,4.79,3.85,3.78,3.78,3.79
26.96,-0.69,-4.49,-0.69,-4.49,4.49,4.72,3.93,3.79,3.79,3.80
27.23,-0.61,-4.42,-0.61,-4.42,4.42,4.65,4.01,3.81,3.81,3.81
27.50,-0.53,-4.36,-0.53,-4.35,4.35,4.57,4.09,3.82,3.82,3.82
27.77,-0.45,-4.27,-0.45,-4.28,4.28,4.50,4.16,3.83,3.83,3.82
28.05,-0.38,-4.22,-0.38,-4.22,4.22,4.43,4.23,3.83,3.84,3.84
28.33,-0.30,-4.14,-0.30,-4.15,4.15,4.35,4.29,3.85,3.85,3.84
28.62,-0.22,-4.08,-0.22,-4.08,4.08,4.28,4.35,3.86,3.86,3.86
28.90,-0.14,-4.01,-0.14,-4.01,4.01,4.20,4.41,3.87,3.87,3.87
29.19,-0.06,-3.94,-0.06,-3.95,3.95,4.13,4.46,3.89,3.88,3.88
29.48,0.02,-3.88,0.02,-3.88,3.88,4.05,4.50,3.90,3.89,3.90
29.78,0.09,-3.82,0.09,-3.82,3.81,3.98,4.54,3.90,3.90,3.91
30.08,0.17,-3.75,0.17,-3.75,3.74,3.90,4.57,3.91,3.91,3.92
30.38,0.25,-3.68,0.25,-3.68,3.68,3.83,4.59,3.93,3.93,3.93
30.68,0.33,-3.61,0.33,-3.60,3.61,3.75,4.60,3.94,3.94,3.93
30.99,0.41,-3.54,0.40,-3.54,3.55,3.68,4.61,3.95,3.95,3.94
31.30,0.48,-3.47,0.47,-3.48,3.48,3.61,4.61,3.96,3.96,3.95
31.61,0.54,-3.43,0.54,-3.42,3.42,3.53,4.61,3.96,3.96,3.97
31.93,0.61,-3.36,0.61,-3.36,3.36,3.46,4.59,3.96,3.97,3.97
32.24,0.68,-3.30,0.68,-3.30,3.30,3.38,4.57,3.98,3.98,3.98
32.57,0.76,-3.23,0.75,-3.23,3.24,3.31,4.54,3.99,3.99,3.99
32.89,0.83,-3.18,0.83,-3.18,3.18,3.24,4.50,4.01,4.00,4.01
33.22,0.89,-3.12,0.89,-3.12,3.12,3.16,4.46,4.01,4.01,4.00
33.55,0.96,-3.06,0.96,-3.06,3.06,3.09,4.41,4.02,4.02,4.02
33.89,1.03,-2.99,1.03,-3.00,3.00,3.02,4.36,4.03,4.02,4.02
34.23,1.10,-2.94,1.10,-2.94,2.94,2.95,4.30,4.03,4.03,4.04
34.57,1.16,-2.88,1.16,-2.88,2.88,2.87,4.23,4.03,4.04,4.04
34.92,1.23,-2.82,1.23,-2.82,2.81,2.80,4.16,4.04,4.04,4.05
35.27,1.30,-2.76,1.30,-2.75,2.75,2.73,4.09,4.05,4.05,4.05
35.62,1.37,-2.68,1.37,-2.69,2.69,2.66,4.01,4.06,4.06,4.05
35.97,1.44,-2.61,1.44,-2.62,2.62,2.59,3.93,4.06,4.06,4.05
36.33,1.50,-2.57,1.50,-2.56,2.56,2.52,3.85,4.06,4.06,4.07
36.70,1.57,-2.50,1.57,-2.50,2.50,2.46,3.77,4.06,4.06,4.06
37.06,1.63,-2.42,1.63,-2.43,2.43,2.39,3.69,4.06,4.06,4.05
37.43,1.69,-2.37,1.69,-2.36,2.37,2.32,3.60,4.06,4.06,4.06
37.81,1.76,-2.30,1.75,-2.30,2.30,2.26,3.52,4.06,4.05,4.06
38.19,1.82,-2.24,1.82,-2.24,2.23,2.19,3.43,4.05,4.05,4.05
38.57,1.89,-2.17,1.89,-2.17,2.16,2.13,3.34,4.05,4.05,4.06
38.95,1.96,-2.09,1.96,-2.09,2.09,2.06,3.26,4.05,4.05,4.05
39.34,2.03,-2.02,2.03,-2.02,2.02,2.00,3.17,4.05,4.05,4.05
39.74,2.10,-1.94,2.10,-1.94,1.95,1.94,3.09,4.05,4.05,4.03
40.14,2.16,-1.88,2.16,-1.88,1.88,1.87,3.01,4.04,4.04,4.04
40.54,2.22,-1.81,2.22,-1.81,1.81,1.81,2.93,4.03,4.03,4.03
40.94,2.28,-1.75,2.28,-1.75,1.75,1.75,2.85,4.03,4.03,4.03
41.35,2.34,-1.69,2.34,-1.69,1.69,1.69,2.77,4.03,4.03,4.03
41.76,2.41,-1.62,2.41,-1.62,1.63,1.64,2.69,4.03,4.03,4.03
42.18,2.47,-1.56,2.47,-1.56,1.56,1.58,2.61,4.03,4.03,4.03
42.60,2.53,-1.50,2.53,-1.50,1.50,1.52,2.54,4.03,4.03,4.03
43.03,2.58,-1.46,2.58,-1.45,1.44,1.47,2.47,4.02,4.02,4.03
43.46,2.65,-1.38,2.65,-1.38,1.37,1.41,2.40,4.02,4.02,4.03
43.90,2.71,-1.32,2.71,-1.31,1.31,1.36,2.33,4.02,4.02,4.02
44.33,2.78,-1.24,2.77,-1.25,1.24,1.31,2.26,4.02,4.02,4.02
44.78,2.84,-1.18,2.84,-1.18,1.18,1.25,2.20,4.02,4.02,4.02
45.23,2.90,-1.12,2.90,-1.11,1.12,1.20,2.13,4.02,4.02,4.02
45.68,2.97,-1.05,2.96,-1.06,1.06,1.16,2.07,4.03,4.03,4.01
46.13,3.02,-1.00,3.02,-1.00,1.01,1.11,2.01,4.03,4.03,4.02
46.60,3.07,-0.97,3.07,-0.96,0.96,1.06,1.95,4.03,4.03,4.03
47.06,3.12,-0.91,3.12,-0.92,0.91,1.01,1.90,4.03,4.03,4.03
47.53,3.16,-0.87,3.16,-0.88,0.87,0.97,1.84,4.02,4.03,4.03
48.01,3.21,-0.84,3.21,-0.83,0.82,0.93,1.79,4.03,4.03,4.05
48.49,3.25,-0.79,3.25,-0.79,0.78,0.89,1.74,4.02,4.03,4.04
48.97,3.30,-0.72,3.29,-0.73,0.73,0.85,1.69,4.03,4.03,4.02
49.46,3.33,-0.69,3.33,-0.68,0.69,0.81,1.64,4.02,4.02,4.01
49.96,3.37,-0.63,3.37,-0.64,0.65,0.77,1.59,4.01,4.01,4.00
50.46,3.40,-0.61,3.40,-0.60,0.61,0.73,1.55,4.00,4.00,4.01
50.96,3.43,-0.57,3.43,-0.57,0.57,0.70,1.51,4.00,4.00,4.00
51.47,3.46,-0.53,3.46,-0.53,0.53,0.67,1.46,3.99,3.99,3.98
51.99,3.49,-0.50,3.49,-0.50,0.50,0.64,1.42,3.99,3.99,3.99
52.51,3.51,-0.48,3.51,-0.47,0.47,0.61,1.39,3.98,3.98,3.99
53.03,3.53,-0.45,3.53,-0.45,0.44,0.58,1.35,3.97,3.97,3.98
53.56,3.55,-0.42,3.55,-0.42,0.42,0.56,1.31,3.97,3.96,3.97
54.10,3.56,-0.39,3.56,-0.39,0.39,0.53,1.28,3.95,3.95,3.95
54.64,3.57,-0.37,3.57,-0.37,0.37,0.51,1.24,3.94,3.94,3.94
55.18,3.58,-0.35,3.58,-0.35,0.35,0.49,1.21,3.93,3.93,3.93
55.74,3.58,-0.33,3.58,-0.34,0.33,0.48,1.18,3.91,3.91,3.91
56.29,3.58,-0.33,3.58,-0.32,0.32,0.46,1.15,3.90,3.90,3.91
56.86,3.57,-0.32,3.57,-0.31,0.31,0.45,1.12,3.88,3.88,3.88
57.42,3.57,-0.29,3.57,-0.30,0.30,0.44,1.10,3.87,3.87,3.86
58.00,3.56,-0.29,3.56,-0.29,0.30,0.43,1.07,3.86,3.86,3.85
58.58,3.54,-0.30,3.54,-0.30,0.30,0.43,1.05,3.84,3.84,3.84
59.16,3.52,-0.31,3.52,-0.30,0.30,0.43,1.02,3.82,3.82,3.82
59.76,3.50,-0.31,3.50,-0.31,0.30,0.43,1.00,3.80,3.80,3.81
60.35,3.47,-0.32,3.47,-0.32,0.31,0.44,0.98,3.78,3.78,3.79
60.96,3.44,-0.32,3.44,-0.32,0.31,0.45,0.96,3.75,3.76,3.76
61.57,3.41,-0.32,3.41,-0.32,0.32,0.46,0.94,3.73,3.73,3.73
62.18,3.37,-0.33,3.37,-0.33,0.34,0.47,0.92,3.71,3.70,3.70
62.80,3.32,-0.36,3.32,-0.35,0.36,0.50,0.90,3.67,3.68,3.67
63.43,3.28,-0.37,3.28,-0.37,0.38,0.52,0.89,3.66,3.65,3.65
64.07,3.23,-0.39,3.22,-0.40,0.41,0.55,0.87,3.63,3.63,3.62
64.71,3.16,-0.45,3.16,-0.44,0.44,0.58,0.86,3.60,3.60,3.60
65.35,3.09,-0.49,3.09,-0.49,0.48,0.62,0.84,3.57,3.57,3.58
66.01,3.02,-0.54,3.02,-0.54,0.53,0.66,0.83,3.55,3.55,3.56
66.67,2.94,-0.59,2.94,-0.59,0.59,0.71,0.82,3.53,3.53,3.53
67.33,2.86,-0.64,2.86,-0.64,0.65,0.77,0.81,3.51,3.51,3.50
68.01,2.77,-0.71,2.76,-0.71,0.72,0.83,0.80,3.49,3.48,3.48
68.69,2.66,-0.79,2.66,-0.79,0.79,0.90,0.79,3.45,3.45,3.45
69.37,2.55,-0.88,2.55,-0.88,0.88,0.98,0.78,3.42,3.42,3.43
70.07,2.43,-0.98,2.43,-0.97,0.97,1.06,0.77,3.40,3.40,3.40
70.77,2.31,-1.07,2.31,-1.07,1.07,1.15,0.77,3.38,3.38,3.38
71.48,2.19,-1.17,2.19,-1.17,1.18,1.25,0.76,3.36,3.36,3.36
72.19,2.06,-1.28,2.05,-1.29,1.29,1.36,0.76,3.35,3.34,3.34
72.91,1.90,-1.41,1.90,-1.41,1.42,1.47,0.75,3.32,3.32,3.31
73.64,1.74,-1.55,1.74,-1.55,1.55,1.60,0.75,3.29,3.29,3.29
74.38,1.59,-1.68,1.58,-1.69,1.69,1.73,0.75,3.28,3.27,3.27
75.12,1.42,-1.84,1.42,-1.84,1.84,1.88,0.74,3.25,3.26,3.26
75.87,1.26,-1.99,1.26,-1.99,1.99,2.03,0.74,3.24,3.24,3.25
76.63,1.09,-2.14,1.09,-2.14,2.14,2.19,0.74,3.23,3.23,3.23
77.40,0.93,-2.30,0.93,-2.29,2.30,2.35,0.74,3.23,3.23,3.22
78.17,0.77,-2.44,0.77,-2.45,2.46,2.52,0.74,3.22,3.22,3.21
78.95,0.61,-2.60,0.60,-2.60,2.61,2.69,0.74,3.22,3.21,3.21
79.74,0.44,-2.76,0.44,-2.75,2.75,2.86,0.74,3.19,3.20,3.20
80.54,0.29,-2.90,0.29,-2.90,2.89,3.03,0.74,3.18,3.18,3.19
81.35,0.15,-3.03,0.15,-3.03,3.02,3.18,0.75,3.17,3.17,3.18
82.16,0.03,-3.14,0.03,-3.14,3.13,3.33,0.75,3.16,3.16,3.17
82.98,-0.08,-3.25,-0.08,-3.23,3.23,3.45,0.75,3.15,3.15,3.16
83.81,-0.16,-3.30,-0.16,-3.31,3.31,3.54,0.76,3.14,3.14,3.14
84.65,-0.23,-3.37,-0.23,-3.37,3.36,3.61,0.76,3.13,3.13,3.14
85.50,-0.27,-3.41,-0.27,-3.40,3.40,3.65,0.77,3.13,3.13,3.13
86.35,-0.29,-3.41,-0.29,-3.41,3.41,3.65,0.78,3.12,3.12,3.12
87.22,-0.28,-3.40,-0.28,-3.40,3.40,3.62,0.78,3.12,3.12,3.12
88.09,-0.26,-3.36,-0.27,-3.37,3.37,3.56,0.79,3.11,3.11,3.10
88.97,-0.23,-3.34,-0.23,-3.33,3.32,3.47,0.80,3.09,3.09,3.11
89.86,-0.18,-3.27,-0.17,-3.26,3.26,3.36,0.81,3.08,3.08,3.09
90.76,-0.09,-3.17,-0.09,-3.18,3.17,3.22,0.82,3.08,3.08,3.07
91.66,0.01,-3.07,0.00,-3.07,3.07,3.07,0.83,3.08,3.08,3.08
92.58,0.11,-2.95,0.11,-2.95,2.96,2.91,0.84,3.07,3.07,3.06
93.51,0.23,-2.84,0.23,-2.83,2.83,2.75,0.85,3.06,3.06,3.06
94.44,0.36,-2.70,0.36,-2.70,2.69,2.58,0.86,3.05,3.05,3.06
95.39,0.50,-2.55,0.50,-2.54,2.54,2.41,0.87,3.04,3.04,3.05
96.34,0.64,-2.38,0.64,-2.38,2.38,2.25,0.88,3.02,3.02,3.02
97.30,0.80,-2.21,0.79,-2.22,2.22,2.09,0.89,3.02,3.01,3.01
98.28,0.94,-2.06,0.94,-2.06,2.06,1.94,0.91,3.00,3.00,3.00
99.26,1.09,-1.90,1.09,-1.89,1.90,1.80,0.92,2.99,2.99,2.98
100.25,1.24,-1.74,1.24,-1.73,1.75,1.67,0.93,2.99,2.99,2.97
101.25,1.39,-1.57,1.38,-1.57,1.60,1.54,0.94,2.99,2.98,2.96
102.27,1.51,-1.43,1.49,-1.44,1.45,1.42,0.96,2.96,2.94,2.94
103.29,1.58,-1.33,1.59,-1.32,1.31,1.31,0.97,2.89,2.90,2.91
104.32,1.68,-1.22,1.69,-1.20,1.18,1.21,0.98,2.86,2.87,2.90
105.37,1.81,-1.06,1.80,-1.07,1.05,1.12,1.00,2.86,2.85,2.87
106.42,1.92,-0.93,1.92,-0.93,0.93,1.03,1.01,2.84,2.84,2.85
107.48,2.02,-0.80,2.02,-0.80,0.81,0.95,1.02,2.83,2.83,2.82
108.56,2.10,-0.68,2.10,-0.69,0.70,0.87,1.03,2.80,2.80,2.78
109.64,2.16,-0.59,2.16,-0.59,0.60,0.80,1.04,2.76,2.77,2.75
110.74,2.21,-0.50,2.21,-0.50,0.51,0.74,1.06,2.72,2.73,2.71
111.85,2.25,-0.43,2.24,-0.43,0.44,0.68,1.06,2.68,2.68,2.68
112.97,2.27,-0.37,2.26,-0.37,0.37,0.63,1.07,2.64,2.63,2.63
114.10,2.27,-0.33,2.28,-0.32,0.31,0.58,1.08,2.58,2.59,2.60
115.24,2.28,-0.28,2.28,-0.27,0.26,0.53,1.09,2.54,2.55,2.56
116.39,2.29,-0.22,2.29,-0.23,0.22,0.49,1.09,2.51,2.51,2.51
117.55,2.29,-0.18,2.29,-0.18,0.19,0.45,1.10,2.48,2.48,2.47
118.73,2.28,-0.15,2.27,-0.15,0.16,0.41,1.10,2.44,2.43,2.42
119.92,2.25,-0.14,2.25,-0.13,0.13,0.38,1.10,2.38,2.39,2.39
121.12,2.23,-0.12,2.23,-0.12,0.11,0.35,1.10,2.34,2.35,2.35
122.33,2.22,-0.10,2.21,-0.10,0.10,0.32,1.10,2.31,2.31,2.31
123.55,2.20,-0.09,2.20,-0.09,0.08,0.30,1.09,2.28,2.28,2.29
124.79,2.17,-0.08,2.17,-0.08,0.08,0.28,1.09,2.24,2.25,2.25
126.03,2.14,-0.08,2.14,-0.08,0.08,0.26,1.08,2.21,2.22,2.22
127.29,2.11,-0.07,2.11,-0.07,0.08,0.24,1.07,2.19,2.19,2.18
128.57,2.08,-0.06,2.07,-0.08,0.09,0.22,1.06,2.17,2.16,2.14
129.85,2.02,-0.10,2.02,-0.09,0.11,0.21,1.05,2.13,2.13,2.12
131.15,1.95,-0.13,1.96,-0.12,0.13,0.20,1.03,2.08,2.09,2.08
132.46,1.91,-0.15,1.90,-0.16,0.15,0.18,1.02,2.06,2.05,2.06
133.79,1.85,-0.19,1.85,-0.19,0.18,0.18,1.00,2.03,2.02,2.04
135.12,1.79,-0.22,1.80,-0.21,0.20,0.17,0.98,1.99,2.00,2.01
136.48,1.76,-0.23,1.75,-0.23,0.22,0.16,0.96,1.97,1.97,1.99
137.84,1.72,-0.25,1.72,-0.24,0.23,0.16,0.94,1.95,1.95,1.97
139.22,1.70,-0.23,1.70,-0.24,0.24,0.16,0.92,1.93,1.93,1.93
140.61,1.68,-0.23,1.68,-0.23,0.24,0.16,0.89,1.92,1.92,1.91
142.02,1.66,-0.24,1.66,-0.23,0.24,0.16,0.87,1.90,1.90,1.90
143.44,1.64,-0.23,1.63,-0.24,0.25,0.17,0.84,1.88,1.88,1.87
144.87,1.60,-0.24,1.60,-0.24,0.25,0.17,0.82,1.85,1.85,1.84
146.32,1.57,-0.25,1.57,-0.25,0.25,0.18,0.79,1.82,1.82,1.82
147.78,1.54,-0.26,1.54,-0.26,0.25,0.20,0.76,1.79,1.79,1.80
149.26,1.51,-0.27,1.51,-0.26,0.26,0.21,0.73,1.76,1.76,1.77
150.75,1.48,-0.26,1.48,-0.26,0.26,0.23,0.70,1.74,1.74,1.74
152.26,1.46,-0.25,1.46,-0.25,0.26,0.24,0.67,1.72,1.71,1.71
153.78,1.43,-0.25,1.43,-0.25,0.25,0.25,0.64,1.68,1.68,1.68
155.32,1.40,-0.25,1.40,-0.25,0.25,0.26,0.61,1.65,1.65,1.65
156.88,1.37,-0.26,1.37,-0.25,0.24,0.27,0.58,1.61,1.62,1.63
158.44,1.36,-0.24,1.35,-0.24,0.24,0.26,0.55,1.60,1.59,1.59
160.03,1.32,-0.23,1.33,-0.23,0.24,0.25,0.52,1.56,1.56,1.55
161.63,1.30,-0.22,1.30,-0.22,0.23,0.24,0.49,1.53,1.53,1.52
163.24,1.27,-0.21,1.26,-0.23,0.23,0.22,0.46,1.50,1.49,1.48
164.88,1.22,-0.24,1.23,-0.23,0.22,0.20,0.43,1.44,1.45,1.46
166.53,1.20,-0.22,1.20,-0.23,0.22,0.17,0.40,1.42,1.42,1.42
168.19,1.18,-0.21,1.17,-0.22,0.21,0.15,0.37,1.39,1.38,1.39
169.87,1.15,-0.21,1.15,-0.20,0.20,0.13,0.34,1.35,1.35,1.35
171.57,1.13,-0.19,1.13,-0.19,0.19,0.11,0.32,1.31,1.32,1.32
173.29,1.11,-0.16,1.10,-0.17,0.17,0.10,0.29,1.28,1.28,1.27
175.02,1.08,-0.16,1.08,-0.15,0.16,0.08,0.26,1.24,1.24,1.23
176.77,1.04,-0.15,1.04,-0.14,0.15,0.07,0.23,1.18,1.19,1.19
178.54,1.01,-0.12,1.01,-0.13,0.13,0.06,0.20,1.14,1.14,1.13
180.32,0.97,-0.12,0.97,-0.12,0.12,0.05,0.17,1.09,1.09,1.09
182.13,0.94,-0.10,0.93,-0.11,0.11,0.04,0.14,1.05,1.04,1.04
183.95,0.88,-0.11,0.88,-0.11,0.10,0.03,0.11,0.98,0.99,0.99
185.79,0.84,-0.11,0.85,-0.10,0.09,0.02,0.08,0.93,0.93,0.94
187.65,0.82,-0.07,0.81,-0.08,0.08,0.02,0.05,0.89,0.89,0.89
189.52,0.79,-0.06,0.79,-0.06,0.06,0.01,0.03,0.85,0.85,0.85
191.42,0.77,-0.04,0.77,-0.04,0.04,0.01,-0.00,0.81,0.81,0.81
193.33,0.74,-0.02,0.74,-0.03,0.02,0.00,-0.03,0.76,0.76,0.76
195.27,0.71,-0.01,0.71,-0.01,0.00,0.00,-0.06,0.71,0.71,0.72
197.22,0.69,0.02,0.69,0.02,-0.02,-0.00,-0.08,0.67,0.67,0.67
199.19,0.67,0.05,0.67,0.05,-0.04,-0.01,-0.11,0.63,0.63,0.62
201.18,0.66,0.08,0.65,0.07,-0.06,-0.01,-0.14,0.59,0.59,0.58
203.19,0.63,0.08,0.63,0.09,-0.09,-0.01,-0.16,0.54,0.55,0.55
205.23,0.61,0.10,0.61,0.10,-0.10,-0.01,-0.19,0.50,0.51,0.51
207.28,0.59,0.11,0.59,0.12,-0.12,-0.01,-0.22,0.47,0.47,0.48
209.35,0.57,0.14,0.57,0.14,-0.14,-0.02,-0.24,0.43,0.43,0.43
211.44,0.55,0.17,0.55,0.16,-0.15,-0.02,-0.26,0.40,0.40,0.38
213.56,0.52,0.17,0.51,0.16,-0.16,-0.02,-0.29,0.36,0.36,0.35
215.69,0.48,0.15,0.48,0.16,-0.16,-0.02,-0.31,0.32,0.32,0.32
217.85,0.44,0.15,0.45,0.16,-0.16,-0.02,-0.33,0.28,0.28,0.29
220.03,0.42,0.17,0.42,0.16,-0.16,-0.02,-0.35,0.26,0.26,0.25
222.23,0.39,0.17,0.39,0.16,-0.15,-0.02,-0.37,0.23,0.23,0.22
224.45,0.36,0.15,0.35,0.15,-0.15,-0.03,-0.39,0.21,0.21,0.20
226.70,0.32,0.13,0.32,0.14,-0.15,-0.03,-0.41,0.17,0.18,0.19
228.96,0.30,0.14,0.30,0.13,-0.14,-0.03,-0.42,0.15,0.16,0.16
231.25,0.29,0.13,0.28,0.13,-0.15,-0.03,-0.44,0.14,0.14,0.15
233.57,0.28,0.14,0.28,0.14,-0.15,-0.03,-0.45,0.13,0.13,0.14
235.90,0.28,0.15,0.28,0.15,-0.15,-0.03,-0.46,0.13,0.13,0.13
238.26,0.29,0.17,0.28,0.16,-0.16,-0.03,-0.47,0.13,0.12,0.12
240.64,0.29,0.17,0.29,0.17,-0.17,-0.04,-0.48,0.12,0.12,0.12
243.05,0.30,0.17,0.30,0.18,-0.17,-0.04,-0.49,0.13,0.12,0.13
245.48,0.30,0.18,0.30,0.18,-0.17,-0.04,-0.49,0.13,0.13,0.12
247.93,0.30,0.17,0.30,0.18,-0.17,-0.04,-0.49,0.13,0.13,0.13
250.41,0.30,0.18,0.30,0.17,-0.16,-0.05,-0.49,0.14,0.14,0.12
252.92,0.30,0.15,0.30,0.16,-0.15,-0.05,-0.49,0.15,0.15,0.15
255.45,0.30,0.14,0.29,0.14,-0.14,-0.05,-0.49,0.16,0.16,0.16
258.00,0.29,0.12,0.29,0.12,-0.12,-0.06,-0.48,0.17,0.17,0.17
260.58,0.28,0.11,0.28,0.10,-0.11,-0.06,-0.48,0.17,0.17,0.17
263.19,0.28,0.09,0.28,0.09,-0.10,-0.07,-0.47,0.18,0.18,0.19
265.82,0.28,0.08,0.28,0.08,-0.09,-0.07,-0.46,0.19,0.19,0.20
268.48,0.30,0.08,0.29,0.08,-0.08,-0.08,-0.45,0.21,0.21,0.22
271.16,0.31,0.07,0.31,0.08,-0.09,-0.09,-0.44,0.22,0.23,0.24
273.87,0.34,0.09,0.34,0.09,-0.09,-0.09,-0.42,0.25,0.25,0.24
276.61,0.37,0.11,0.36,0.10,-0.10,-0.10,-0.40,0.27,0.26,0.26
279.38,0.39,0.12,0.39,0.12,-0.11,-0.11,-0.39,0.27,0.28,0.27
282.17,0.42,0.13,0.42,0.13,-0.13,-0.13,-0.37,0.29,0.29,0.29
284.99,0.45,0.15,0.45,0.15,-0.15,-0.14,-0.35,0.30,0.30,0.30
287.84,0.48,0.17,0.48,0.17,-0.17,-0.15,-0.33,0.31,0.31,0.31
290.72,0.51,0.18,0.51,0.19,-0.19,-0.17,-0.31,0.32,0.32,0.33
293.63,0.55,0.21,0.54,0.21,-0.21,-0.19,-0.29,0.34,0.33,0.33
296.57,0.58,0.23,0.58,0.23,-0.24,-0.21,-0.26,0.34,0.34,0.35
299.53,0.62,0.26,0.62,0.26,-0.26,-0.23,-0.24,0.36,0.36,0.36
302.53,0.66,0.29,0.66,0.29,-0.28,-0.26,-0.21,0.37,0.37,0.37
305.55,0.70,0.31,0.70,0.32,-0.31,-0.29,-0.19,0.39,0.39,0.39
308.61,0.74,0.35,0.74,0.34,-0.33,-0.32,-0.16,0.41,0.41,0.39
311.69,0.77,0.36,0.77,0.35,-0.35,-0.35,-0.14,0.42,0.41,0.41
314.81,0.79,0.36,0.79,0.37,-0.37,-0.38,-0.11,0.42,0.42,0.43
317.96,0.82,0.38,0.82,0.38,-0.39,-0.42,-0.08,0.43,0.43,0.44
321.14,0.85,0.40,0.85,0.40,-0.41,-0.45,-0.06,0.44,0.44,0.45
324.35,0.88,0.42,0.88,0.43,-0.43,-0.48,-0.03,0.45,0.45,0.45
327.59,0.92,0.46,0.91,0.45,-0.45,-0.50,-0.00,0.47,0.46,0.46
330.87,0.93,0.46,0.93,0.46,-0.46,-0.52,0.03,0.47,0.47,0.47
334.18,0.95,0.47,0.96,0.48,-0.48,-0.53,0.05,0.47,0.48,0.48
337.52,0.98,0.50,0.97,0.49,-0.49,-0.53,0.08,0.49,0.49,0.48
340.90,0.99,0.49,0.99,0.50,-0.49,-0.52,0.11,0.50,0.50,0.50
344.30,0.99,0.49,0.99,0.49,-0.48,-0.50,0.14,0.50,0.50,0.49
347.75,0.98,0.48,0.98,0.48,-0.48,-0.47,0.17,0.50,0.50,0.50
351.23,0.97,0.47,0.97,0.46,-0.47,-0.43,0.20,0.50,0.50,0.50
354.74,0.95,0.45,0.95,0.44,-0.45,-0.39,0.23,0.50,0.50,0.50
358.28,0.92,0.41,0.93,0.42,-0.43,-0.35,0.25,0.49,0.50,0.51
361.87,0.91,0.40,0.91,0.40,-0.41,-0.30,0.28,0.50,0.50,0.51
365.49,0.89,0.38,0.89,0.38,-0.38,-0.26,0.31,0.51,0.51,0.51
369.14,0.86,0.36,0.86,0.36,-0.34,-0.21,0.34,0.51,0.51,0.50
372.83,0.82,0.32,0.82,0.32,-0.31,-0.17,0.37,0.51,0.51,0.50
376.56,0.77,0.27,0.77,0.27,-0.27,-0.13,0.40,0.50,0.50,0.49
380.33,0.72,0.22,0.72,0.22,-0.23,-0.09,0.43,0.49,0.49,0.50
384.13,0.67,0.18,0.67,0.17,-0.18,-0.06,0.46,0.49,0.49,0.49
387.97,0.62,0.13,0.62,0.13,-0.13,-0.02,0.49,0.49,0.49,0.49
391.85,0.57,0.09,0.57,0.08,-0.08,0.01,0.52,0.49,0.49,0.48
395.77,0.52,0.03,0.52,0.03,-0.03,0.04,0.55,0.49,0.49,0.49
399.73,0.46,-0.02,0.46,-0.02,0.02,0.07,0.58,0.48,0.49,0.48
403.72,0.41,-0.07,0.40,-0.08,0.07,0.10,0.61,0.48,0.48,0.48
407.76,0.35,-0.13,0.35,-0.13,0.12,0.12,0.64,0.47,0.48,0.48
411.84,0.30,-0.19,0.30,-0.18,0.18,0.15,0.67,0.47,0.48,0.49
415.96,0.26,-0.23,0.26,-0.23,0.23,0.18,0.70,0.48,0.48,0.49
420.12,0.22,-0.27,0.21,-0.28,0.27,0.20,0.73,0.49,0.49,0.49
424.32,0.16,-0.33,0.16,-0.32,0.32,0.22,0.75,0.48,0.49,0.49
428.56,0.11,-0.37,0.11,-0.37,0.37,0.25,0.78,0.48,0.48,0.47
432.85,0.06,-0.42,0.06,-0.42,0.42,0.27,0.81,0.48,0.48,0.47
437.18,0.01,-0.47,0.01,-0.47,0.47,0.29,0.83,0.48,0.48,0.47
441.55,-0.03,-0.51,-0.03,-0.51,0.52,0.32,0.86,0.49,0.48,0.48
445.96,-0.08,-0.56,-0.08,-0.56,0.56,0.34,0.88,0.48,0.48,0.48
450.42,-0.13,-0.60,-0.13,-0.61,0.61,0.36,0.91,0.48,0.48,0.47
454.93,-0.18,-0.66,-0.18,-0.66,0.65,0.39,0.93,0.47,0.47,0.48
459.48,-0.22,-0.70,-0.22,-0.70,0.68,0.41,0.95,0.46,0.47,0.48
464.07,-0.24,-0.72,-0.24,-0.73,0.72,0.44,0.97,0.48,0.47,0.48
468.71,-0.26,-0.75,-0.26,-0.75,0.75,0.46,0.98,0.49,0.49,0.49
473.40,-0.28,-0.76,-0.28,-0.77,0.78,0.49,1.00,0.50,0.50,0.48
478.13,-0.30,-0.79,-0.30,-0.79,0.81,0.52,1.01,0.50,0.50,0.49
482.91,-0.33,-0.82,-0.33,-0.82,0.83,0.54,1.03,0.50,0.50,0.49
487.74,-0.37,-0.86,-0.37,-0.86,0.86,0.57,1.04,0.49,0.49,0.49
492.62,-0.40,-0.90,-0.40,-0.89,0.89,0.60,1.04,0.48,0.49,0.50
497.55,-0.43,-0.92,-0.43,-0.92,0.92,0.63,1.05,0.48,0.49,0.49
502.52,-0.45,-0.95,-0.45,-0.95,0.95,0.66,1.06,0.50,0.49,0.50
507.55,-0.48,-0.97,-0.48,-0.97,0.98,0.70,1.06,0.50,0.50,0.49
512.62,-0.50,-0.99,-0.51,-1.00,1.01,0.73,1.06,0.50,0.50,0.49
517.75,-0.54,-1.04,-0.54,-1.03,1.03,0.77,1.06,0.49,0.49,0.50
522.93,-0.57,-1.07,-0.57,-1.06,1.06,0.80,1.06,0.49,0.49,0.50
528.16,-0.60,-1.09,-0.60,-1.09,1.08,0.84,1.05,0.48,0.48,0.49
533.44,-0.61,-1.10,-0.62,-1.11,1.10,0.88,1.05,0.49,0.49,0.49
538.77,-0.64,-1.13,-0.64,-1.12,1.12,0.92,1.04,0.48,0.49,0.49
544.16,-0.66,-1.15,-0.66,-1.14,1.14,0.96,1.03,0.48,0.48,0.49
549.60,-0.68,-1.16,-0.69,-1.16,1.16,1.00,1.02,0.48,0.47,0.48
555.10,-0.71,-1.18,-0.71,-1.18,1.18,1.04,1.01,0.46,0.47,0.47
560.65,-0.73,-1.20,-0.73,-1.19,1.19,1.08,1.00,0.46,0.46,0.47
