frequency,raw,error,smoothed,error_smoothed,equalization,parametric_eq,fixed_band_eq,equalized_raw,equalized_smoothed,target
20.00,-3.15,-6.12,-3.15,-6.12,6.01,5.89,1.94,2.86,2.86,2.97
20.20,-3.08,-6.09,-3.09,-6.09,6.01,5.86,2.00,2.93,2.93,3.01
20.40,-3.02,-6.07,-3.02,-6.06,6.00,5.83,2.06,2.98,2.98,3.05
20.61,-2.95,-6.02,-2.95,-6.03,5.99,5.80,2.12,3.04,3.04,3.06
20.81,-2.89,-6.00,-2.89,-6.00,5.97,5.77,2.18,3.08,3.08,3.10
21.02,-2.82,-5.97,-2.83,-5.96,5.94,5.73,2.24,3.12,3.12,3.14
21.23,-2.76,-5.92,-2.76,-5.92,5.91,5.69,2.30,3.15,3.15,3.15
21.44,-2.70,-5.88,-2.70,-5.87,5.87,5.66,2.37,3.17,3.17,3.17
21.66,-2.63,-5.82,-2.63,-5.82,5.82,5.62,2.44,3.19,3.18,3.18
21.87,-2.57,-5.75,-2.57,-5.76,5.76,5.58,2.51,3.19,3.19,3.18
22.09,-2.50,-5.69,-2.50,-5.70,5.70,5.54,2.58,3.19,3.19,3.19
22.31,-2.44,-5.63,-2.44,-5.64,5.63,5.49,2.66,3.19,3.19,3.19
22.54,-2.38,-5.58,-2.38,-5.57,5.57,5.45,2.73,3.19,3.19,3.19
22.76,-2.32,-5.50,-2.32,-5.50,5.51,5.41,2.81,3.19,3.19,3.18
22.99,-2.25,-5.42,-2.26,-5.44,5.45,5.36,2.89,3.20,3.19,3.17
23.22,-2.21,-5.38,-2.21,-5.38,5.39,5.31,2.97,3.18,3.18,3.17
23.45,-2.16,-5.32,-2.16,-5.33,5.33,5.27,3.05,3.17,3.17,3.16
23.69,-2.12,-5.28,-2.12,-5.28,5.28,5.22,3.14,3.15,3.15,3.16
23.92,-2.07,-5.23,-2.07,-5.23,5.22,5.17,3.22,3.15,3.15,3.16
24.16,-2.01,-5.18,-2.01,-5.18,5.16,5.12,3.31,3.15,3.15,3.17
24.40,-1.94,-5.11,-1.94,-5.11,5.10,5.07,3.40,3.16,3.16,3.17
24.65,-1.87,-5.03,-1.87,-5.03,5.04,5.02,3.49,3.17,3.17,3.16
24.89,-1.80,-4.96,-1.80,-4.96,4.98,4.97,3.58,3.18,3.17,3.16
25.14,-1.74,-4.90,-1.74,-4.90,4.91,4.91,3.67,3.17,3.17,3.16
25.39,-1.69,-4.85,-1.69,-4.85,4.85,4.86,3.76,3.16,3.16,3.16
25.65,-1.65,-4.80,-1.65,-4.80,4.79,4.81,3.86,3.14,3.14,3.15
25.91,-1.60,-4.74,-1.60,-4.74,4.73,4.75,3.95,3.13,3.13,3.14
26.16,-1.55,-4.69,-1.55,-4.69,4.68,4.70,4.04,3.13,3.13,3.14
26.43,-1.49,-4.63,-1.49,-4.63,4.63,4.65,4.13,3.14,3.14,3.14
26.69,-1.44,-4.58,-1.44,-4.57,4.58,4.59,4.22,3.14,3.14,3.13
26.96,-1.39,-4.52,-1.40,-4.52,4.54,4.54,4.30,3.15,3.14,3.12
27.23,-1.36,-4.49,-1.36,-4.49,4.50,4.48,4.39,3.13,3.13,3.12
27.50,-1.33,-4.45,-1.34,-4.46,4.45,4.43,4.47,3.12,3.12,3.12
27.77,-1.31,-4.42,-1.31,-4.42,4.41,4.37,4.55,3.10,3.10,3.11
28.05,-1.28,-4.39,-1.27,-4.38,4.37,4.32,4.62,3.08,3.09,3.11
28.33,-1.22,-4.32,-1.23,-4.33,4.32,4.26,4.69,3.10,3.09,3.10
28.62,-1.17,-4.27,-1.17,-4.27,4.27,4.21,4.76,3.10,3.10,3.10
28.90,-1.11,-4.21,-1.11,-4.21,4.22,4.15,4.82,3.11,3.11,3.10
29.19,-1.05,-4.15,-1.06,-4.15,4.16,4.10,4.87,3.11,3.10,3.10
29.48,-1.00,-4.11,-1.00,-4.10,4.10,4.04,4.92,3.10,3.10,3.11
29.78,-0.94,-4.04,-0.95,-4.05,4.04,3.99,4.96,3.09,3.09,3.10
30.08,-0.89,-4.00,-0.89,-3.99,3.98,3.93,5.00,3.08,3.09,3.10
30.38,-0.83,-3.92,-0.83,-3.92,3.92,3.88,5.02,3.09,3.09,3.08
30.68,-0.77,-3.85,-0.77,-3.85,3.87,3.83,5.04,3.10,3.10,3.08
30.99,-0.71,-3.78,-0.72,-3.80,3.82,3.77,5.05,3.11,3.10,3.07
31.30,-0.69,-3.76,-0.69,-3.76,3.77,3.72,5.05,3.08,3.08,3.07
31.61,-0.67,-3.74,-0.67,-3.73,3.73,3.67,5.05,3.06,3.06,3.07
31.93,-0.65,-3.70,-0.65,-3.70,3.69,3.62,5.04,3.03,3.03,3.05
32.24,-0.62,-3.66,-0.62,-3.66,3.64,3.56,5.02,3.02,3.02,3.04
32.57,-0.58,-3.62,-0.58,-3.61,3.60,3.51,4.99,3.02,3.02,3.03
32.89,-0.53,-3.56,-0.54,-3.56,3.56,3.46,4.95,3.03,3.02,3.02
33.22,-0.50,-3.50,-0.50,-3.51,3.51,3.41,4.91,3.01,3.02,3.00
33.55,-0.46,-3.46,-0.46,-3.46,3.47,3.36,4.86,3.00,3.00,3.00
33.89,-0.43,-3.41,-0.43,-3.42,3.42,3.31,4.81,2.99,2.99,2.98
34.23,-0.40,-3.38,-0.40,-3.37,3.37,3.27,4.75,2.97,2.97,2.98
34.57,-0.36,-3.32,-0.37,-3.32,3.32,3.22,4.69,2.96,2.96,2.95
34.92,-0.33,-3.28,-0.33,-3.28,3.28,3.17,4.62,2.94,2.94,2.94
35.27,-0.30,-3.24,-0.30,-3.23,3.23,3.13,4.54,2.93,2.93,2.94
35.62,-0.26,-3.18,-0.27,-3.19,3.19,3.08,4.47,2.93,2.92,2.92
35.97,-0.23,-3.14,-0.23,-3.14,3.14,3.04,4.39,2.91,2.91,2.91
36.33,-0.20,-3.11,-0.20,-3.10,3.10,2.99,4.31,2.90,2.90,2.90
36.70,-0.16,-3.06,-0.16,-3.06,3.05,2.95,4.23,2.89,2.89,2.89
37.06,-0.12,-3.00,-0.13,-3.01,3.01,2.91,4.15,2.89,2.88,2.88
37.43,-0.09,-2.98,-0.09,-2.97,2.96,2.87,4.06,2.87,2.87,2.89
37.81,-0.05,-2.93,-0.05,-2.93,2.92,2.83,3.98,2.87,2.87,2.88
38.19,-0.01,-2.88,-0.01,-2.88,2.88,2.79,3.90,2.87,2.87,2.86
38.57,0.02,-2.85,0.02,-2.84,2.86,2.75,3.81,2.87,2.88,2.87
38.95,0.06,-2.80,0.05,-2.81,2.83,2.71,3.73,2.89,2.88,2.86
39.34,0.06,-2.80,0.06,-2.79,2.81,2.68,3.65,2.87,2.87,2.85
39.74,0.06,-2.78,0.06,-2.78,2.79,2.64,3.57,2.85,2.86,2.84
40.14,0.06,-2.78,0.05,-2.79,2.78,2.61,3.49,2.83,2.83,2.84
40.54,0.06,-2.78,0.06,-2.78,2.75,2.58,3.41,2.81,2.81,2.83
40.94,0.06,-2.77,0.07,-2.76,2.73,2.55,3.33,2.79,2.80,2.83
41.35,0.10,-2.72,0.10,-2.72,2.70,2.52,3.26,2.80,2.80,2.82
41.76,0.14,-2.67,0.13,-2.67,2.67,2.49,3.18,2.81,2.80,2.80
42.18,0.18,-2.62,0.18,-2.62,2.63,2.46,3.11,2.81,2.81,2.80
42.60,0.21,-2.58,0.21,-2.58,2.59,2.43,3.04,2.80,2.80,2.79
43.03,0.25,-2.53,0.24,-2.54,2.55,2.41,2.98,2.80,2.79,2.78
43.46,0.25,-2.51,0.25,-2.51,2.52,2.38,2.91,2.76,2.77,2.76
43.90,0.25,-2.48,0.25,-2.49,2.49,2.36,2.85,2.73,2.74,2.73
44.33,0.25,-2.47,0.25,-2.47,2.46,2.34,2.79,2.71,2.71,2.72
44.78,0.25,-2.45,0.25,-2.45,2.44,2.32,2.73,2.69,2.69,2.69
45.23,0.25,-2.43,0.25,-2.43,2.43,2.30,2.68,2.68,2.68,2.68
45.68,0.25,-2.41,0.25,-2.41,2.42,2.28,2.62,2.67,2.67,2.66
46.13,0.25,-2.40,0.25,-2.40,2.41,2.26,2.57,2.66,2.66,2.65
46.60,0.25,-2.39,0.25,-2.39,2.40,2.25,2.52,2.64,2.64,2.64
47.06,0.25,-2.39,0.24,-2.39,2.38,2.23,2.47,2.62,2.62,2.64
47.53,0.25,-2.38,0.25,-2.38,2.35,2.22,2.43,2.60,2.60,2.63
48.01,0.25,-2.38,0.27,-2.35,2.33,2.20,2.38,2.58,2.60,2.62
48.49,0.30,-2.31,0.30,-2.31,2.31,2.19,2.34,2.61,2.61,2.61
48.97,0.35,-2.24,0.33,-2.26,2.29,2.18,2.30,2.63,2.62,2.59
49.46,0.35,-2.23,0.35,-2.23,2.26,2.17,2.26,2.61,2.62,2.58
49.96,0.35,-2.22,0.35,-2.22,2.24,2.16,2.23,2.59,2.59,2.56
50.46,0.35,-2.23,0.35,-2.22,2.22,2.15,2.19,2.57,2.57,2.58
50.96,0.35,-2.22,0.35,-2.22,2.20,2.14,2.16,2.55,2.55,2.57
51.47,0.36,-2.20,0.36,-2.21,2.18,2.14,2.13,2.54,2.54,2.56
51.99,0.37,-2.19,0.38,-2.18,2.17,2.13,2.09,2.54,2.55,2.55
52.51,0.41,-2.15,0.41,-2.15,2.15,2.12,2.06,2.56,2.56,2.55
53.03,0.45,-2.11,0.43,-2.12,2.14,2.11,2.03,2.58,2.57,2.55
53.56,0.45,-2.10,0.45,-2.10,2.11,2.11,2.00,2.56,2.56,2.55
54.10,0.45,-2.09,0.45,-2.09,2.08,2.10,1.98,2.53,2.53,2.54
54.64,0.45,-2.09,0.45,-2.08,2.06,2.09,1.95,2.51,2.51,2.54
55.18,0.47,-2.06,0.48,-2.05,2.04,2.08,1.92,2.50,2.51,2.53
55.74,0.52,-2.00,0.51,-2.01,2.02,2.07,1.89,2.53,2.52,2.51
56.29,0.54,-1.98,0.53,-1.98,1.99,2.06,1.87,2.53,2.52,2.51
56.86,0.54,-1.95,0.54,-1.95,1.97,2.05,1.84,2.51,2.51,2.49
57.42,0.54,-1.94,0.54,-1.94,1.94,2.04,1.81,2.48,2.48,2.48
58.00,0.54,-1.93,0.53,-1.93,1.91,2.02,1.78,2.45,2.45,2.47
58.58,0.54,-1.92,0.54,-1.91,1.89,2.01,1.76,2.43,2.43,2.45
59.16,0.55,-1.89,0.56,-1.87,1.87,1.99,1.73,2.42,2.43,2.44
59.76,0.60,-1.82,0.59,-1.83,1.85,1.97,1.70,2.45,2.44,2.42
60.35,0.60,-1.80,0.59,-1.81,1.84,1.95,1.67,2.44,2.43,2.39
60.96,0.57,-1.80,0.56,-1.81,1.83,1.93,1.63,2.40,2.39,2.37
61.57,0.50,-1.83,0.51,-1.82,1.82,1.90,1.60,2.32,2.32,2.32
62.18,0.45,-1.84,0.47,-1.82,1.81,1.88,1.57,2.25,2.27,2.29
62.80,0.45,-1.80,0.44,-1.81,1.79,1.85,1.53,2.24,2.24,2.25
63.43,0.44,-1.78,0.43,-1.79,1.78,1.81,1.50,2.22,2.21,2.22
64.07,0.43,-1.75,0.41,-1.77,1.76,1.78,1.46,2.18,2.17,2.18
64.71,0.39,-1.75,0.41,-1.74,1.73,1.74,1.42,2.12,2.13,2.14
65.35,0.40,-1.72,0.41,-1.70,1.69,1.70,1.38,2.09,2.10,2.11
66.01,0.45,-1.63,0.43,-1.65,1.65,1.66,1.34,2.10,2.08,2.08
66.67,0.45,-1.59,0.45,-1.59,1.61,1.61,1.29,2.05,2.05,2.04
67.33,0.45,-1.56,0.45,-1.55,1.56,1.57,1.25,2.01,2.02,2.01
68.01,0.45,-1.52,0.45,-1.52,1.52,1.52,1.21,1.97,1.97,1.97
68.69,0.45,-1.48,0.45,-1.48,1.48,1.46,1.16,1.93,1.93,1.93
69.37,0.45,-1.44,0.45,-1.44,1.44,1.41,1.11,1.89,1.89,1.88
70.07,0.45,-1.39,0.45,-1.40,1.40,1.35,1.07,1.85,1.85,1.84
70.77,0.45,-1.36,0.45,-1.36,1.37,1.30,1.02,1.81,1.81,1.81
71.48,0.45,-1.32,0.45,-1.32,1.32,1.24,0.97,1.77,1.77,1.77
72.19,0.45,-1.28,0.44,-1.28,1.27,1.18,0.92,1.72,1.72,1.72
72.91,0.45,-1.22,0.44,-1.23,1.21,1.11,0.87,1.66,1.66,1.67
73.64,0.45,-1.18,0.45,-1.17,1.15,1.05,0.82,1.59,1.60,1.62
74.38,0.48,-1.10,0.49,-1.09,1.07,0.99,0.76,1.55,1.56,1.58
75.12,0.55,-0.99,0.54,-0.99,0.99,0.92,0.71,1.53,1.53,1.53
75.87,0.62,-0.88,0.60,-0.90,0.90,0.86,0.66,1.52,1.50,1.50
76.63,0.65,-0.81,0.65,-0.81,0.81,0.79,0.61,1.46,1.47,1.46
77.40,0.69,-0.73,0.71,-0.71,0.73,0.72,0.55,1.42,1.44,1.42
78.17,0.76,-0.63,0.76,-0.63,0.66,0.66,0.50,1.41,1.41,1.38
78.95,0.83,-0.53,0.80,-0.55,0.58,0.59,0.45,1.41,1.38,1.35
79.74,0.83,-0.50,0.83,-0.50,0.50,0.53,0.39,1.33,1.33,1.32
80.54,0.83,-0.47,0.84,-0.45,0.42,0.46,0.34,1.25,1.27,1.29
81.35,0.86,-0.41,0.86,-0.40,0.35,0.39,0.29,1.20,1.21,1.26
82.16,0.93,-0.30,0.92,-0.31,0.27,0.33,0.23,1.20,1.20,1.23
82.98,0.98,-0.23,1.01,-0.20,0.20,0.26,0.18,1.18,1.20,1.21
83.81,1.11,-0.06,1.08,-0.10,0.13,0.20,0.12,1.24,1.21,1.17
84.65,1.13,-0.01,1.12,-0.02,0.07,0.14,0.07,1.20,1.19,1.14
85.50,1.13,0.02,1.14,0.03,0.02,0.07,0.01,1.14,1.15,1.11
86.35,1.12,0.04,1.12,0.05,-0.03,0.01,-0.04,1.08,1.09,1.08
87.22,1.12,0.07,1.12,0.08,-0.08,-0.05,-0.09,1.04,1.04,1.04
88.09,1.12,0.11,1.12,0.11,-0.12,-0.11,-0.15,1.00,1.00,1.01
88.97,1.13,0.14,1.10,0.12,-0.16,-0.17,-0.21,0.97,0.94,0.98
89.86,1.11,0.16,1.11,0.17,-0.21,-0.23,-0.26,0.90,0.90,0.95
90.76,1.11,0.20,1.16,0.25,-0.27,-0.28,-0.32,0.84,0.89,0.91
91.66,1.26,0.37,1.22,0.34,-0.35,-0.34,-0.37,0.91,0.88,0.89
92.58,1.33,0.48,1.28,0.43,-0.43,-0.39,-0.43,0.90,0.86,0.85
93.51,1.31,0.49,1.35,0.52,-0.51,-0.45,-0.48,0.80,0.84,0.82
94.44,1.37,0.57,1.40,0.60,-0.59,-0.50,-0.54,0.77,0.80,0.79
95.39,1.48,0.71,1.45,0.68,-0.67,-0.55,-0.60,0.80,0.77,0.77
96.34,1.52,0.79,1.49,0.76,-0.74,-0.60,-0.65,0.78,0.75,0.73
97.30,1.49,0.79,1.51,0.81,-0.80,-0.65,-0.71,0.69,0.71,0.70
98.28,1.50,0.83,1.52,0.85,-0.84,-0.70,-0.76,0.65,0.67,0.67
99.26,1.55,0.90,1.53,0.88,-0.88,-0.75,-0.82,0.66,0.65,0.65
100.25,1.56,0.94,1.55,0.92,-0.92,-0.79,-0.88,0.64,0.63,0.62
101.25,1.54,0.94,1.54,0.95,-0.96,-0.84,-0.93,0.58,0.59,0.59
102.27,1.53,0.96,1.53,0.97,-0.99,-0.88,-0.99,0.54,0.54,0.56
103.29,1.52,1.00,1.52,1.00,-1.02,-0.93,-1.04,0.50,0.50,0.51
104.32,1.52,1.02,1.53,1.04,-1.05,-0.97,-1.10,0.47,0.49,0.50
105.37,1.56,1.10,1.54,1.09,-1.07,-1.01,-1.15,0.48,0.47,0.46
106.42,1.56,1.13,1.55,1.12,-1.09,-1.05,-1.21,0.46,0.45,0.43
107.48,1.53,1.14,1.53,1.15,-1.12,-1.09,-1.26,0.41,0.42,0.39
108.56,1.50,1.15,1.50,1.15,-1.15,-1.13,-1.31,0.35,0.36,0.35
109.64,1.48,1.17,1.46,1.15,-1.18,-1.17,-1.36,0.30,0.29,0.31
110.74,1.44,1.16,1.44,1.17,-1.21,-1.21,-1.41,0.23,0.24,0.28
111.85,1.42,1.17,1.45,1.21,-1.24,-1.24,-1.46,0.18,0.21,0.25
112.97,1.50,1.30,1.47,1.26,-1.27,-1.28,-1.51,0.23,0.20,0.20
114.10,1.52,1.33,1.51,1.33,-1.31,-1.31,-1.55,0.21,0.20,0.18
115.24,1.52,1.37,1.52,1.38,-1.35,-1.35,-1.59,0.17,0.17,0.14
116.39,1.52,1.40,1.52,1.40,-1.39,-1.38,-1.64,0.13,0.13,0.12
117.55,1.52,1.43,1.52,1.43,-1.43,-1.41,-1.67,0.09,0.09,0.09
118.73,1.53,1.47,1.53,1.46,-1.46,-1.44,-1.71,0.07,0.06,0.06
119.92,1.54,1.48,1.53,1.49,-1.49,-1.48,-1.74,0.05,0.04,0.05
121.12,1.54,1.51,1.54,1.51,-1.51,-1.51,-1.78,0.02,0.03,0.03
122.33,1.55,1.54,1.55,1.53,-1.54,-1.54,-1.81,0.01,0.01,0.01
123.55,1.56,1.55,1.56,1.56,-1.56,-1.57,-1.83,-0.00,-0.00,0.01
124.79,1.57,1.59,1.56,1.58,-1.58,-1.60,-1.86,-0.02,-0.02,-0.02
126.03,1.57,1.60,1.57,1.61,-1.61,-1.63,-1.88,-0.04,-0.04,-0.03
127.29,1.58,1.63,1.58,1.63,-1.63,-1.65,-1.90,-0.05,-0.05,-0.05
128.57,1.59,1.66,1.58,1.65,-1.65,-1.68,-1.91,-0.06,-0.07,-0.07
129.85,1.59,1.67,1.59,1.68,-1.67,-1.71,-1.93,-0.08,-0.08,-0.09
131.15,1.60,1.70,1.60,1.69,-1.69,-1.74,-1.94,-0.09,-0.10,-0.10
132.46,1.60,1.71,1.60,1.71,-1.71,-1.76,-1.95,-0.11,-0.11,-0.11
133.79,1.61,1.72,1.60,1.73,-1.73,-1.79,-1.95,-0.12,-0.13,-0.11
135.12,1.61,1.75,1.61,1.74,-1.75,-1.82,-1.96,-0.14,-0.14,-0.15
136.48,1.61,1.75,1.61,1.76,-1.77,-1.84,-1.96,-0.16,-0.15,-0.15
137.84,1.62,1.78,1.61,1.79,-1.78,-1.87,-1.96,-0.17,-0.17,-0.17
139.22,1.62,1.81,1.62,1.81,-1.80,-1.89,-1.96,-0.18,-0.18,-0.20
140.61,1.62,1.83,1.62,1.83,-1.82,-1.92,-1.96,-0.20,-0.20,-0.22
142.02,1.62,1.83,1.62,1.84,-1.84,-1.94,-1.96,-0.22,-0.22,-0.21
143.44,1.62,1.85,1.62,1.85,-1.86,-1.97,-1.96,-0.24,-0.24,-0.23
144.87,1.62,1.88,1.62,1.87,-1.88,-1.99,-1.96,-0.26,-0.26,-0.26
146.32,1.62,1.90,1.62,1.90,-1.91,-2.02,-1.95,-0.29,-0.29,-0.29
147.78,1.62,1.93,1.62,1.93,-1.94,-2.04,-1.95,-0.32,-0.32,-0.31
149.26,1.62,1.97,1.62,1.97,-1.98,-2.06,-1.95,-0.36,-0.36,-0.35
150.75,1.62,2.02,1.62,2.01,-2.03,-2.09,-1.94,-0.41,-0.41,-0.40
152.26,1.62,2.07,1.62,2.07,-2.07,-2.11,-1.94,-0.46,-0.46,-0.45
153.78,1.62,2.12,1.63,2.13,-2.12,-2.14,-1.94,-0.50,-0.50,-0.50
155.32,1.62,2.18,1.62,2.18,-2.16,-2.16,-1.94,-0.55,-0.55,-0.56
156.88,1.62,2.23,1.59,2.22,-2.20,-2.19,-1.94,-0.58,-0.61,-0.62
158.44,1.54,2.23,1.56,2.24,-2.22,-2.21,-1.94,-0.69,-0.67,-0.69
160.03,1.51,2.26,1.52,2.27,-2.24,-2.23,-1.94,-0.74,-0.72,-0.75
161.63,1.49,2.29,1.48,2.28,-2.26,-2.26,-1.94,-0.78,-0.79,-0.80
163.24,1.45,2.31,1.43,2.28,-2.29,-2.28,-1.95,-0.84,-0.86,-0.86
164.88,1.38,2.27,1.37,2.27,-2.32,-2.31,-1.95,-0.94,-0.95,-0.89
166.53,1.32,2.25,1.35,2.28,-2.35,-2.33,-1.96,-1.03,-0.99,-0.93
168.19,1.36,2.32,1.38,2.34,-2.37,-2.36,-1.97,-1.02,-0.99,-0.96
169.87,1.48,2.47,1.44,2.43,-2.40,-2.38,-1.98,-0.92,-0.96,-0.99
171.57,1.51,2.51,1.49,2.50,-2.43,-2.41,-1.99,-0.92,-0.94,-1.00
173.29,1.50,2.51,1.50,2.52,-2.46,-2.43,-2.00,-0.96,-0.96,-1.01
175.02,1.48,2.50,1.47,2.50,-2.49,-2.46,-2.02,-1.02,-1.02,-1.02
176.77,1.46,2.48,1.46,2.49,-2.52,-2.48,-2.03,-1.06,-1.06,-1.02
178.54,1.46,2.49,1.48,2.51,-2.54,-2.51,-2.05,-1.09,-1.06,-1.03
180.32,1.54,2.55,1.52,2.54,-2.56,-2.53,-2.07,-1.02,-1.04,-1.02
182.13,1.58,2.59,1.56,2.58,-2.57,-2.56,-2.09,-0.99,-1.01,-1.01
183.95,1.59,2.60,1.60,2.61,-2.59,-2.58,-2.11,-1.01,-1.00,-1.01
185.79,1.61,2.63,1.61,2.63,-2.62,-2.60,-2.14,-1.01,-1.01,-1.02
187.65,1.62,2.65,1.62,2.65,-2.65,-2.63,-2.16,-1.04,-1.03,-1.03
189.52,1.64,2.67,1.63,2.67,-2.68,-2.65,-2.19,-1.04,-1.05,-1.03
191.42,1.65,2.69,1.65,2.69,-2.70,-2.67,-2.22,-1.05,-1.05,-1.05
193.33,1.66,2.72,1.67,2.72,-2.72,-2.70,-2.25,-1.06,-1.05,-1.06
195.27,1.68,2.75,1.68,2.75,-2.73,-2.72,-2.28,-1.05,-1.05,-1.07
197.22,1.69,2.78,1.67,2.76,-2.74,-2.74,-2.31,-1.05,-1.07,-1.09
199.19,1.65,2.76,1.65,2.76,-2.75,-2.76,-2.35,-1.10,-1.10,-1.11
201.18,1.61,2.73,1.62,2.75,-2.76,-2.77,-2.38,-1.16,-1.14,-1.12
203.19,1.61,2.74,1.61,2.75,-2.77,-2.79,-2.42,-1.16,-1.16,-1.13
205.23,1.62,2.78,1.61,2.76,-2.78,-2.80,-2.45,-1.16,-1.17,-1.16
207.28,1.62,2.78,1.62,2.79,-2.79,-2.82,-2.49,-1.17,-1.17,-1.16
209.35,1.62,2.81,1.62,2.81,-2.80,-2.83,-2.52,-1.18,-1.18,-1.19
211.44,1.62,2.83,1.61,2.82,-2.81,-2.84,-2.56,-1.20,-1.20,-1.21
213.56,1.61,2.83,1.61,2.83,-2.83,-2.85,-2.59,-1.22,-1.21,-1.22
215.69,1.61,2.84,1.61,2.84,-2.84,-2.85,-2.63,-1.23,-1.23,-1.23
217.85,1.61,2.84,1.60,2.84,-2.85,-2.85,-2.66,-1.24,-1.24,-1.24
220.03,1.60,2.85,1.60,2.85,-2.85,-2.86,-2.70,-1.25,-1.25,-1.25
222.23,1.60,2.86,1.60,2.85,-2.86,-2.85,-2.73,-1.26,-1.26,-1.26
224.45,1.60,2.85,1.59,2.85,-2.86,-2.85,-2.76,-1.26,-1.26,-1.25
226.70,1.60,2.84,1.60,2.84,-2.85,-2.84,-2.79,-1.26,-1.26,-1.25
228.96,1.60,2.84,1.61,2.85,-2.84,-2.84,-2.82,-1.25,-1.24,-1.24
231.25,1.62,2.85,1.62,2.85,-2.83,-2.83,-2.84,-1.21,-1.21,-1.23
233.57,1.64,2.85,1.62,2.84,-2.81,-2.81,-2.86,-1.17,-1.19,-1.21
235.90,1.62,2.82,1.61,2.81,-2.79,-2.80,-2.88,-1.17,-1.18,-1.20
238.26,1.57,2.74,1.59,2.76,-2.77,-2.78,-2.90,-1.20,-1.18,-1.18
240.64,1.57,2.72,1.57,2.72,-2.75,-2.76,-2.91,-1.18,-1.18,-1.15
243.05,1.58,2.69,1.58,2.70,-2.73,-2.74,-2.92,-1.15,-1.15,-1.12
245.48,1.60,2.69,1.60,2.69,-2.71,-2.72,-2.92,-1.11,-1.11,-1.09
247.93,1.63,2.69,1.62,2.69,-2.69,-2.69,-2.93,-1.06,-1.07,-1.07
250.41,1.65,2.70,1.65,2.69,-2.68,-2.67,-2.92,-1.04,-1.04,-1.05
252.92,1.67,2.68,1.67,2.69,-2.68,-2.64,-2.92,-1.01,-1.01,-1.02
255.45,1.68,2.67,1.68,2.67,-2.68,-2.61,-2.91,-1.00,-1.00,-0.99
258.00,1.69,2.66,1.69,2.66,-2.67,-2.58,-2.89,-0.98,-0.98,-0.98
260.58,1.69,2.65,1.69,2.64,-2.65,-2.55,-2.88,-0.96,-0.96,-0.96
263.19,1.69,2.62,1.69,2.63,-2.62,-2.52,-2.86,-0.93,-0.92,-0.93
265.82,1.69,2.60,1.69,2.60,-2.58,-2.49,-2.83,-0.89,-0.89,-0.92
268.48,1.69,2.58,1.67,2.57,-2.53,-2.45,-2.81,-0.84,-0.86,-0.89
271.16,1.63,2.49,1.63,2.50,-2.48,-2.42,-2.78,-0.85,-0.85,-0.86
273.87,1.59,2.44,1.57,2.42,-2.43,-2.39,-2.74,-0.84,-0.85,-0.85
276.61,1.50,2.32,1.52,2.34,-2.37,-2.36,-2.71,-0.87,-0.85,-0.82
279.38,1.49,2.28,1.49,2.29,-2.32,-2.32,-2.67,-0.83,-0.83,-0.79
282.17,1.49,2.26,1.48,2.25,-2.27,-2.29,-2.63,-0.79,-0.79,-0.78
284.99,1.50,2.24,1.49,2.24,-2.24,-2.26,-2.59,-0.74,-0.74,-0.74
287.84,1.50,2.21,1.50,2.22,-2.21,-2.22,-2.55,-0.71,-0.70,-0.71
290.72,1.52,2.19,1.51,2.19,-2.19,-2.19,-2.51,-0.67,-0.67,-0.68
293.63,1.53,2.18,1.53,2.17,-2.17,-2.16,-2.47,-0.65,-0.65,-0.65
296.57,1.54,2.15,1.54,2.15,-2.16,-2.13,-2.42,-0.62,-0.62,-0.61
299.53,1.55,2.14,1.55,2.14,-2.14,-2.10,-2.38,-0.59,-0.59,-0.59
302.53,1.56,2.12,1.57,2.13,-2.11,-2.07,-2.33,-0.55,-0.54,-0.57
305.55,1.58,2.11,1.57,2.11,-2.08,-2.04,-2.29,-0.50,-0.51,-0.53
308.61,1.58,2.09,1.55,2.06,-2.05,-2.01,-2.25,-0.47,-0.49,-0.51
311.69,1.51,2.00,1.53,2.01,-2.02,-1.98,-2.20,-0.51,-0.49,-0.49
314.81,1.50,1.95,1.50,1.97,-1.99,-1.95,-2.16,-0.50,-0.49,-0.45
317.96,1.50,1.94,1.49,1.93,-1.97,-1.92,-2.12,-0.47,-0.48,-0.45
321.14,1.50,1.92,1.50,1.92,-1.94,-1.89,-2.08,-0.45,-0.45,-0.43
324.35,1.50,1.92,1.50,1.91,-1.92,-1.86,-2.04,-0.42,-0.42,-0.42
327.59,1.50,1.90,1.50,1.91,-1.89,-1.84,-2.00,-0.39,-0.38,-0.40
330.87,1.50,1.89,1.50,1.89,-1.85,-1.81,-1.96,-0.36,-0.36,-0.39
334.18,1.49,1.87,1.48,1.86,-1.82,-1.78,-1.92,-0.33,-0.34,-0.38
337.52,1.43,1.80,1.43,1.80,-1.78,-1.76,-1.88,-0.35,-0.35,-0.38
340.90,1.38,1.73,1.37,1.73,-1.74,-1.73,-1.85,-0.37,-0.37,-0.36
344.30,1.31,1.66,1.32,1.67,-1.71,-1.71,-1.82,-0.40,-0.38,-0.35
347.75,1.30,1.64,1.30,1.64,-1.68,-1.69,-1.78,-0.38,-0.38,-0.34
351.23,1.30,1.63,1.29,1.62,-1.65,-1.66,-1.75,-0.35,-0.36,-0.33
354.74,1.30,1.63,1.30,1.63,-1.63,-1.64,-1.72,-0.34,-0.33,-0.33
358.28,1.31,1.63,1.30,1.63,-1.62,-1.62,-1.70,-0.31,-0.32,-0.32
361.87,1.31,1.63,1.31,1.64,-1.61,-1.60,-1.67,-0.31,-0.30,-0.32
365.49,1.32,1.63,1.32,1.64,-1.61,-1.58,-1.65,-0.29,-0.29,-0.32
369.14,1.33,1.64,1.31,1.63,-1.61,-1.56,-1.62,-0.28,-0.30,-0.32
372.83,1.29,1.60,1.29,1.60,-1.61,-1.54,-1.60,-0.32,-0.32,-0.32
376.56,1.25,1.57,1.26,1.58,-1.60,-1.52,-1.58,-0.35,-0.34,-0.32
380.33,1.25,1.55,1.25,1.56,-1.59,-1.50,-1.56,-0.34,-0.34,-0.30
384.13,1.26,1.57,1.25,1.56,-1.57,-1.48,-1.54,-0.32,-0.32,-0.31
387.97,1.26,1.57,1.26,1.57,-1.55,-1.46,-1.52,-0.30,-0.29,-0.31
391.85,1.27,1.58,1.26,1.57,-1.53,-1.44,-1.51,-0.26,-0.27,-0.31
395.77,1.24,1.54,1.23,1.54,-1.50,-1.42,-1.49,-0.27,-0.27,-0.30
399.73,1.19,1.49,1.18,1.49,-1.48,-1.41,-1.48,-0.29,-0.30,-0.30
403.72,1.12,1.43,1.13,1.44,-1.46,-1.39,-1.46,-0.34,-0.33,-0.31
407.76,1.08,1.39,1.08,1.40,-1.43,-1.37,-1.45,-0.36,-0.35,-0.31
411.84,1.07,1.37,1.06,1.38,-1.41,-1.36,-1.44,-0.34,-0.35,-0.31
415.96,1.06,1.37,1.06,1.37,-1.39,-1.34,-1.43,-0.33,-0.33,-0.32
420.12,1.07,1.38,1.06,1.38,-1.37,-1.33,-1.42,-0.30,-0.31,-0.32
424.32,1.07,1.37,1.07,1.39,-1.36,-1.31,-1.41,-0.29,-0.28,-0.31
428.56,1.08,1.39,1.07,1.38,-1.35,-1.29,-1.40,-0.27,-0.28,-0.31
432.85,1.09,1.38,1.06,1.35,-1.35,-1.28,-1.39,-0.26,-0.28,-0.29
437.18,1.04,1.31,1.06,1.32,-1.34,-1.27,-1.38,-0.30,-0.28,-0.27
441.55,1.06,1.29,1.07,1.31,-1.33,-1.25,-1.37,-0.27,-0.26,-0.23
445.96,1.11,1.31,1.10,1.31,-1.31,-1.24,-1.36,-0.21,-0.21,-0.20
450.42,1.16,1.33,1.15,1.31,-1.30,-1.22,-1.36,-0.14,-0.15,-0.17
454.93,1.20,1.31,1.18,1.30,-1.28,-1.21,-1.35,-0.08,-0.09,-0.11
459.48,1.19,1.26,1.21,1.28,-1.26,-1.20,-1.34,-0.07,-0.05,-0.07
464.07,1.24,1.25,1.23,1.24,-1.25,-1.18,-1.33,-0.01,-0.02,-0.01
468.71,1.26,1.22,1.25,1.21,-1.23,-1.17,-1.32,0.03,0.02,0.04
473.40,1.27,1.18,1.28,1.19,-1.21,-1.16,-1.30,0.06,0.07,0.09
478.13,1.32,1.18,1.32,1.18,-1.19,-1.15,-1.29,0.13,0.13,0.14
482.91,1.36,1.18,1.36,1.18,-1.16,-1.13,-1.28,0.19,0.19,0.18
487.74,1.40,1.17,1.39,1.16,-1.14,-1.12,-1.27,0.25,0.24,0.23
492.62,1.40,1.13,1.39,1.13,-1.13,-1.11,-1.25,0.27,0.27,0.27
497.55,1.39,1.09,1.40,1.10,-1.11,-1.10,-1.24,0.28,0.29,0.30
502.52,1.40,1.07,1.40,1.08,-1.09,-1.08,-1.22,0.30,0.31,0.33
507.55,1.42,1.08,1.42,1.08,-1.08,-1.07,-1.20,0.34,0.34,0.34
512.62,1.43,1.08,1.43,1.08,-1.06,-1.06,-1.18,0.36,0.36,0.35
