frequency,raw,error,smoothed,error_smoothed,equalization,parametric_eq,fixed_band_eq,equalized_raw,equalized_smoothed,target
20.00,8.20,-0.04,8.20,-0.04,0.04,-0.74,-0.57,8.24,8.24,8.24
20.20,8.24,0.00,8.24,0.01,-0.01,-0.75,-0.59,8.24,8.24,8.24
20.40,8.28,0.05,8.28,0.05,-0.05,-0.76,-0.61,8.23,8.23,8.23
20.61,8.32,0.09,8.32,0.09,-0.09,-0.76,-0.62,8.23,8.23,8.23
20.81,8.35,0.13,8.35,0.13,-0.13,-0.77,-0.64,8.22,8.22,8.22
21.02,8.39,0.17,8.39,0.17,-0.17,-0.78,-0.66,8.22,8.22,8.22
21.23,8.42,0.21,8.42,0.21,-0.21,-0.79,-0.68,8.21,8.21,8.21
21.44,8.46,0.25,8.46,0.25,-0.25,-0.80,-0.70,8.21,8.20,8.21
21.66,8.49,0.29,8.49,0.30,-0.29,-0.80,-0.72,8.20,8.20,8.20
21.87,8.53,0.34,8.53,0.34,-0.33,-0.81,-0.74,8.20,8.19,8.19
22.09,8.56,0.38,8.56,0.38,-0.37,-0.82,-0.76,8.19,8.19,8.18
22.31,8.60,0.42,8.60,0.41,-0.41,-0.83,-0.78,8.19,8.18,8.18
22.54,8.63,0.45,8.63,0.45,-0.46,-0.84,-0.80,8.17,8.18,8.18
22.76,8.67,0.50,8.67,0.50,-0.50,-0.85,-0.82,8.17,8.17,8.17
22.99,8.71,0.54,8.71,0.54,-0.54,-0.86,-0.85,8.17,8.17,8.17
23.22,8.75,0.59,8.75,0.59,-0.59,-0.87,-0.87,8.16,8.16,8.16
23.45,8.79,0.63,8.79,0.63,-0.63,-0.88,-0.89,8.16,8.16,8.16
23.69,8.83,0.67,8.84,0.68,-0.68,-0.89,-0.92,8.15,8.16,8.16
23.92,8.88,0.73,8.88,0.72,-0.72,-0.90,-0.94,8.16,8.16,8.15
24.16,8.92,0.77,8.91,0.77,-0.76,-0.91,-0.97,8.16,8.15,8.15
24.40,8.94,0.79,8.95,0.80,-0.80,-0.92,-1.00,8.14,8.15,8.15
24.65,8.98,0.83,8.98,0.84,-0.84,-0.93,-1.02,8.14,8.14,8.15
24.89,9.01,0.88,9.01,0.87,-0.87,-0.94,-1.05,8.14,8.14,8.14
25.14,9.04,0.91,9.04,0.90,-0.90,-0.95,-1.08,8.14,8.14,8.13
25.39,9.06,0.93,9.06,0.93,-0.93,-0.96,-1.10,8.13,8.14,8.13
25.65,9.09,0.96,9.09,0.96,-0.96,-0.97,-1.13,8.13,8.13,8.13
25.91,9.11,0.98,9.11,0.98,-0.98,-0.98,-1.16,8.13,8.13,8.13
26.16,9.13,1.00,9.13,1.00,-1.01,-1.00,-1.18,8.12,8.13,8.13
26.43,9.16,1.03,9.16,1.03,-1.03,-1.01,-1.21,8.13,8.12,8.13
26.69,9.18,1.06,9.18,1.06,-1.06,-1.02,-1.24,8.12,8.12,8.12
26.96,9.21,1.09,9.21,1.09,-1.09,-1.03,-1.27,8.12,8.12,8.12
27.23,9.23,1.12,9.23,1.11,-1.12,-1.04,-1.29,8.11,8.11,8.12
27.50,9.25,1.14,9.26,1.14,-1.14,-1.06,-1.32,8.11,8.11,8.11
27.77,9.28,1.17,9.28,1.17,-1.17,-1.07,-1.35,8.11,8.11,8.11
28.05,9.31,1.21,9.31,1.20,-1.20,-1.08,-1.37,8.11,8.11,8.10
28.33,9.33,1.23,9.33,1.23,-1.23,-1.09,-1.40,8.10,8.10,8.10
28.62,9.35,1.25,9.35,1.26,-1.26,-1.11,-1.42,8.09,8.10,8.10
28.90,9.37,1.28,9.37,1.28,-1.28,-1.12,-1.44,8.09,8.09,8.09
29.19,9.40,1.32,9.39,1.31,-1.31,-1.13,-1.46,8.09,8.08,8.08
29.48,9.41,1.33,9.42,1.34,-1.34,-1.15,-1.48,8.07,8.08,8.08
29.78,9.44,1.37,9.44,1.36,-1.36,-1.16,-1.50,8.08,8.08,8.07
30.08,9.46,1.39,9.46,1.39,-1.39,-1.18,-1.52,8.07,8.07,8.07
30.38,9.48,1.41,9.48,1.41,-1.41,-1.19,-1.54,8.07,8.07,8.07
30.68,9.50,1.44,9.50,1.44,-1.43,-1.21,-1.55,8.07,8.07,8.07
30.99,9.52,1.46,9.52,1.46,-1.46,-1.22,-1.57,8.06,8.06,8.06
31.30,9.54,1.48,9.54,1.48,-1.48,-1.24,-1.58,8.06,8.06,8.06
31.61,9.56,1.49,9.56,1.50,-1.50,-1.25,-1.59,8.06,8.06,8.07
31.93,9.59,1.52,9.59,1.52,-1.52,-1.27,-1.60,8.07,8.06,8.07
32.24,9.61,1.55,9.61,1.55,-1.54,-1.28,-1.61,8.07,8.07,8.06
32.57,9.63,1.57,9.63,1.57,-1.57,-1.30,-1.62,8.06,8.07,8.06
32.89,9.65,1.59,9.65,1.59,-1.59,-1.31,-1.63,8.06,8.06,8.06
33.22,9.67,1.61,9.67,1.61,-1.61,-1.33,-1.63,8.06,8.06,8.06
33.55,9.68,1.63,9.69,1.63,-1.64,-1.35,-1.64,8.05,8.05,8.05
33.89,9.71,1.66,9.70,1.66,-1.66,-1.36,-1.64,8.05,8.04,8.05
34.23,9.72,1.68,9.72,1.68,-1.68,-1.38,-1.64,8.04,8.04,8.04
34.57,9.74,1.71,9.74,1.71,-1.71,-1.40,-1.64,8.03,8.03,8.03
34.92,9.76,1.74,9.76,1.74,-1.73,-1.42,-1.65,8.03,8.02,8.02
35.27,9.77,1.76,9.77,1.76,-1.76,-1.43,-1.65,8.01,8.01,8.01
35.62,9.79,1.80,9.79,1.79,-1.79,-1.45,-1.65,8.00,8.00,7.99
35.97,9.80,1.81,9.80,1.81,-1.82,-1.47,-1.65,7.98,7.98,7.99
36.33,9.81,1.83,9.82,1.84,-1.84,-1.49,-1.65,7.97,7.97,7.98
36.70,9.83,1.88,9.83,1.87,-1.87,-1.51,-1.65,7.96,7.95,7.95
37.06,9.84,1.90,9.84,1.90,-1.90,-1.52,-1.65,7.94,7.94,7.94
37.43,9.85,1.93,9.86,1.93,-1.93,-1.54,-1.65,7.92,7.93,7.92
37.81,9.87,1.96,9.87,1.96,-1.96,-1.56,-1.65,7.92,7.91,7.91
38.19,9.88,1.98,9.88,1.98,-1.98,-1.58,-1.66,7.90,7.90,7.90
38.57,9.89,2.00,9.89,2.01,-2.01,-1.60,-1.66,7.88,7.89,7.89
38.95,9.91,2.03,9.91,2.03,-2.03,-1.62,-1.66,7.88,7.88,7.88
39.34,9.92,2.06,9.92,2.06,-2.05,-1.64,-1.67,7.87,7.87,7.86
39.74,9.93,2.07,9.93,2.08,-2.07,-1.66,-1.67,7.86,7.86,7.86
40.14,9.94,2.10,9.94,2.09,-2.09,-1.68,-1.68,7.85,7.84,7.84
40.54,9.94,2.11,9.95,2.11,-2.11,-1.70,-1.69,7.83,7.84,7.84
40.94,9.96,2.13,9.96,2.13,-2.13,-1.73,-1.69,7.83,7.83,7.83
41.35,9.97,2.15,9.97,2.14,-2.14,-1.75,-1.70,7.83,7.82,7.82
41.76,9.97,2.15,9.98,2.16,-2.16,-1.77,-1.71,7.81,7.81,7.82
42.18,9.98,2.17,9.98,2.17,-2.17,-1.79,-1.73,7.81,7.81,7.81
42.60,9.99,2.19,9.99,2.19,-2.19,-1.81,-1.74,7.80,7.80,7.80
43.03,10.00,2.20,10.00,2.21,-2.20,-1.83,-1.75,7.80,7.80,7.80
43.46,10.01,2.22,10.01,2.22,-2.21,-1.86,-1.77,7.80,7.80,7.79
43.90,10.01,2.23,10.01,2.23,-2.22,-1.88,-1.79,7.79,7.79,7.78
44.33,10.01,2.23,10.01,2.23,-2.23,-1.90,-1.81,7.78,7.78,7.78
44.78,10.02,2.24,10.02,2.24,-2.24,-1.92,-1.83,7.78,7.77,7.78
45.23,10.02,2.25,10.02,2.25,-2.26,-1.95,-1.85,7.77,7.77,7.77
45.68,10.03,2.26,10.03,2.26,-2.27,-1.97,-1.87,7.76,7.76,7.77
46.13,10.04,2.28,10.04,2.28,-2.28,-1.99,-1.89,7.76,7.76,7.76
46.60,10.04,2.29,10.04,2.29,-2.29,-2.02,-1.92,7.75,7.75,7.75
47.06,10.05,2.31,10.05,2.30,-2.30,-2.04,-1.95,7.75,7.74,7.74
47.53,10.04,2.31,10.05,2.32,-2.32,-2.07,-1.97,7.72,7.73,7.73
48.01,10.05,2.33,10.05,2.33,-2.33,-2.09,-2.00,7.72,7.72,7.72
48.49,10.05,2.35,10.05,2.34,-2.35,-2.12,-2.03,7.70,7.70,7.70
48.97,10.05,2.36,10.05,2.36,-2.36,-2.14,-2.06,7.69,7.69,7.69
49.46,10.05,2.37,10.05,2.38,-2.38,-2.17,-2.10,7.67,7.68,7.68
49.96,10.06,2.40,10.05,2.39,-2.39,-2.19,-2.13,7.67,7.66,7.66
50.46,10.05,2.41,10.05,2.41,-2.41,-2.22,-2.16,7.64,7.64,7.64
50.96,10.05,2.43,10.05,2.43,-2.43,-2.24,-2.20,7.62,7.62,7.62
51.47,10.05,2.44,10.05,2.44,-2.45,-2.27,-2.23,7.60,7.60,7.61
51.99,10.05,2.47,10.05,2.46,-2.46,-2.29,-2.27,7.59,7.59,7.59
52.51,10.05,2.48,10.05,2.48,-2.48,-2.32,-2.31,7.57,7.57,7.57
53.03,10.05,2.49,10.05,2.50,-2.49,-2.34,-2.34,7.56,7.55,7.56
53.56,10.04,2.51,10.04,2.51,-2.51,-2.37,-2.38,7.53,7.54,7.53
54.10,10.04,2.52,10.04,2.52,-2.52,-2.40,-2.42,7.52,7.52,7.52
54.64,10.03,2.53,10.03,2.53,-2.53,-2.42,-2.45,7.50,7.50,7.50
55.18,10.03,2.55,10.03,2.54,-2.54,-2.45,-2.49,7.49,7.49,7.48
55.74,10.03,2.55,10.03,2.55,-2.55,-2.48,-2.52,7.48,7.47,7.48
56.29,10.02,2.56,10.02,2.56,-2.57,-2.50,-2.56,7.46,7.46,7.46
56.86,10.01,2.57,10.02,2.57,-2.58,-2.53,-2.59,7.43,7.44,7.44
57.42,10.01,2.59,10.01,2.59,-2.59,-2.56,-2.62,7.42,7.42,7.42
58.00,10.01,2.61,10.01,2.60,-2.60,-2.59,-2.65,7.41,7.41,7.40
58.58,10.00,2.62,10.00,2.61,-2.61,-2.61,-2.68,7.39,7.39,7.38
59.16,9.98,2.62,9.99,2.62,-2.62,-2.64,-2.71,7.36,7.36,7.36
59.76,9.98,2.64,9.98,2.64,-2.64,-2.67,-2.74,7.34,7.34,7.34
60.35,9.97,2.65,9.97,2.65,-2.65,-2.70,-2.76,7.32,7.31,7.32
60.96,9.96,2.67,9.96,2.67,-2.67,-2.72,-2.78,7.29,7.29,7.29
61.57,9.95,2.69,9.95,2.69,-2.69,-2.75,-2.80,7.26,7.26,7.26
62.18,9.94,2.70,9.94,2.71,-2.71,-2.78,-2.82,7.23,7.24,7.24
62.80,9.94,2.73,9.94,2.73,-2.73,-2.81,-2.84,7.21,7.21,7.21
63.43,9.93,2.75,9.93,2.75,-2.75,-2.83,-2.85,7.18,7.18,7.18
64.07,9.92,2.78,9.92,2.77,-2.77,-2.86,-2.86,7.15,7.15,7.15
64.71,9.91,2.79,9.91,2.79,-2.79,-2.89,-2.87,7.12,7.12,7.12
65.35,9.89,2.80,9.90,2.81,-2.81,-2.92,-2.88,7.08,7.09,7.09
66.01,9.89,2.83,9.89,2.82,-2.83,-2.94,-2.89,7.07,7.06,7.06
66.67,9.88,2.85,9.88,2.84,-2.84,-2.97,-2.89,7.04,7.03,7.03
67.33,9.86,2.86,9.87,2.86,-2.86,-3.00,-2.90,7.00,7.01,7.00
68.01,9.85,2.88,9.85,2.88,-2.88,-3.03,-2.90,6.97,6.98,6.97
68.69,9.84,2.90,9.84,2.89,-2.89,-3.05,-2.90,6.95,6.94,6.94
69.37,9.82,2.91,9.82,2.91,-2.91,-3.08,-2.90,6.91,6.91,6.91
70.07,9.80,2.92,9.81,2.93,-2.93,-3.11,-2.90,6.87,6.87,6.88
70.77,9.79,2.95,9.79,2.95,-2.95,-3.14,-2.90,6.84,6.84,6.84
71.48,9.78,2.98,9.77,2.97,-2.97,-3.16,-2.90,6.81,6.81,6.80
72.19,9.75,2.99,9.76,2.99,-2.99,-3.19,-2.90,6.76,6.77,6.76
72.91,9.74,3.01,9.74,3.01,-3.01,-3.22,-2.90,6.73,6.73,6.73
73.64,9.72,3.03,9.72,3.02,-3.03,-3.25,-2.90,6.69,6.69,6.69
74.38,9.70,3.04,9.70,3.04,-3.05,-3.27,-2.90,6.65,6.66,6.66
75.12,9.69,3.07,9.69,3.06,-3.07,-3.30,-2.90,6.62,6.62,6.63
75.87,9.67,3.08,9.67,3.08,-3.09,-3.32,-2.90,6.59,6.59,6.59
76.63,9.65,3.10,9.65,3.11,-3.10,-3.35,-2.90,6.55,6.55,6.55
77.40,9.63,3.13,9.63,3.12,-3.12,-3.38,-2.91,6.51,6.50,6.50
78.17,9.61,3.15,9.61,3.15,-3.15,-3.40,-2.91,6.47,6.46,6.46
78.95,9.58,3.16,9.59,3.17,-3.17,-3.43,-2.92,6.41,6.42,6.42
79.74,9.57,3.19,9.56,3.19,-3.19,-3.45,-2.93,6.38,6.38,6.38
80.54,9.54,3.21,9.54,3.21,-3.21,-3.48,-2.94,6.33,6.34,6.33
81.35,9.52,3.22,9.52,3.23,-3.23,-3.50,-2.96,6.29,6.29,6.30
82.16,9.50,3.25,9.50,3.25,-3.25,-3.53,-2.97,6.25,6.25,6.25
82.98,9.47,3.26,9.48,3.27,-3.27,-3.55,-2.99,6.20,6.21,6.21
83.81,9.46,3.29,9.45,3.29,-3.29,-3.58,-3.01,6.17,6.17,6.17
84.65,9.43,3.31,9.43,3.31,-3.31,-3.60,-3.03,6.12,6.12,6.12
85.50,9.40,3.33,9.41,3.33,-3.33,-3.63,-3.06,6.07,6.08,6.07
86.35,9.38,3.35,9.38,3.35,-3.35,-3.65,-3.08,6.03,6.03,6.03
87.22,9.35,3.37,9.35,3.37,-3.37,-3.67,-3.11,5.98,5.98,5.98
88.09,9.33,3.40,9.33,3.39,-3.39,-3.69,-3.14,5.94,5.94,5.93
88.97,9.30,3.41,9.30,3.41,-3.41,-3.72,-3.18,5.89,5.89,5.89
89.86,9.28,3.44,9.28,3.43,-3.43,-3.74,-3.21,5.85,5.85,5.84
90.76,9.25,3.45,9.25,3.45,-3.45,-3.76,-3.25,5.80,5.79,5.80
91.66,9.22,3.47,9.22,3.48,-3.48,-3.78,-3.29,5.74,5.75,5.75
92.58,9.19,3.50,9.19,3.50,-3.50,-3.80,-3.34,5.69,5.70,5.69
93.51,9.17,3.52,9.17,3.52,-3.52,-3.82,-3.38,5.65,5.65,5.65
94.44,9.14,3.55,9.14,3.55,-3.55,-3.84,-3.43,5.59,5.59,5.60
95.39,9.11,3.57,9.11,3.57,-3.57,-3.86,-3.48,5.54,5.54,5.54
96.34,9.08,3.59,9.08,3.60,-3.60,-3.88,-3.53,5.48,5.49,5.49
97.30,9.05,3.62,9.05,3.62,-3.62,-3.90,-3.58,5.43,5.43,5.43
98.28,9.03,3.66,9.02,3.65,-3.65,-3.92,-3.64,5.38,5.37,5.38
99.26,8.99,3.68,8.99,3.68,-3.68,-3.94,-3.70,5.31,5.32,5.31
100.25,8.96,3.71,8.96,3.71,-3.71,-3.95,-3.76,5.25,5.26,5.25
101.25,8.93,3.73,8.93,3.73,-3.73,-3.97,-3.82,5.20,5.19,5.20
102.27,8.89,3.76,8.89,3.76,-3.76,-3.99,-3.88,5.13,5.13,5.13
103.29,8.86,3.79,8.86,3.79,-3.79,-4.00,-3.94,5.07,5.07,5.08
104.32,8.83,3.82,8.83,3.82,-3.82,-4.02,-4.00,5.01,5.01,5.01
105.37,8.80,3.85,8.80,3.85,-3.84,-4.03,-4.06,4.96,4.96,4.95
106.42,8.77,3.87,8.77,3.87,-3.87,-4.05,-4.13,4.90,4.90,4.90
107.48,8.73,3.89,8.73,3.90,-3.90,-4.06,-4.19,4.84,4.84,4.84
108.56,8.70,3.93,8.70,3.92,-3.92,-4.07,-4.25,4.78,4.78,4.77
109.64,8.66,3.94,8.66,3.94,-3.94,-4.09,-4.31,4.72,4.72,4.72
110.74,8.62,3.96,8.63,3.97,-3.97,-4.10,-4.36,4.65,4.66,4.66
111.85,8.59,3.99,8.59,3.99,-3.99,-4.11,-4.42,4.60,4.60,4.60
112.97,8.56,4.02,8.56,4.02,-4.01,-4.12,-4.47,4.55,4.54,4.54
114.10,8.52,4.04,8.52,4.04,-4.04,-4.13,-4.52,4.48,4.48,4.48
115.24,8.47,4.05,8.48,4.06,-4.06,-4.14,-4.57,4.41,4.41,4.42
116.39,8.44,4.09,8.44,4.09,-4.09,-4.15,-4.61,4.35,4.35,4.35
117.55,8.40,4.12,8.40,4.12,-4.12,-4.16,-4.65,4.28,4.28,4.28
118.73,8.36,4.14,8.36,4.15,-4.15,-4.17,-4.68,4.21,4.21,4.22
119.92,8.32,4.18,8.32,4.17,-4.18,-4.17,-4.71,4.14,4.14,4.15
121.12,8.28,4.21,8.28,4.21,-4.21,-4.18,-4.73,4.07,4.07,4.07
122.33,8.24,4.24,8.25,4.24,-4.24,-4.18,-4.75,4.00,4.00,4.00
123.55,8.21,4.28,8.21,4.28,-4.28,-4.19,-4.76,3.93,3.93,3.93
124.79,8.17,4.31,8.17,4.31,-4.31,-4.19,-4.77,3.86,3.85,3.86
126.03,8.12,4.34,8.13,4.35,-4.35,-4.20,-4.77,3.77,3.78,3.78
127.29,8.08,4.37,8.08,4.38,-4.38,-4.20,-4.76,3.70,3.71,3.71
128.57,8.05,4.41,8.04,4.41,-4.40,-4.20,-4.76,3.65,3.64,3.64
129.85,8.00,4.43,8.00,4.43,-4.43,-4.21,-4.74,3.57,3.58,3.57
131.15,7.96,4.45,7.96,4.45,-4.45,-4.21,-4.72,3.51,3.51,3.51
132.46,7.92,4.47,7.92,4.46,-4.47,-4.21,-4.69,3.45,3.45,3.45
133.79,7.87,4.47,7.87,4.48,-4.48,-4.21,-4.66,3.39,3.39,3.40
135.12,7.83,4.49,7.83,4.49,-4.49,-4.21,-4.62,3.34,3.34,3.34
136.48,7.79,4.50,7.79,4.50,-4.50,-4.20,-4.59,3.29,3.29,3.30
137.84,7.75,4.51,7.75,4.50,-4.50,-4.20,-4.54,3.25,3.25,3.24
139.22,7.70,4.50,7.70,4.50,-4.50,-4.20,-4.50,3.20,3.20,3.20
140.61,7.65,4.50,7.66,4.50,-4.50,-4.19,-4.45,3.15,3.15,3.16
142.02,7.61,4.50,7.61,4.50,-4.50,-4.19,-4.40,3.11,3.11,3.11
143.44,7.57,4.50,7.57,4.50,-4.50,-4.18,-4.34,3.07,3.07,3.07
144.87,7.52,4.49,7.52,4.49,-4.49,-4.18,-4.29,3.03,3.03,3.03
146.32,7.48,4.49,7.48,4.48,-4.48,-4.17,-4.24,3.00,3.00,2.99
147.78,7.43,4.47,7.43,4.47,-4.47,-4.16,-4.18,2.96,2.96,2.96
149.26,7.39,4.47,7.39,4.46,-4.46,-4.16,-4.12,2.93,2.92,2.93
150.75,7.33,4.44,7.34,4.45,-4.45,-4.15,-4.07,2.88,2.88,2.89
152.26,7.29,4.44,7.29,4.44,-4.44,-4.14,-4.01,2.85,2.85,2.85
153.78,7.24,4.42,7.24,4.43,-4.43,-4.13,-3.96,2.81,2.81,2.82
155.32,7.20,4.42,7.20,4.41,-4.41,-4.12,-3.91,2.79,2.78,2.78
156.88,7.14,4.39,7.15,4.40,-4.40,-4.10,-3.85,2.74,2.75,2.75
158.44,7.10,4.39,7.10,4.38,-4.38,-4.09,-3.80,2.72,2.72,2.71
160.03,7.05,4.37,7.05,4.37,-4.37,-4.08,-3.75,2.68,2.68,2.68
161.63,7.00,4.35,7.00,4.35,-4.35,-4.06,-3.71,2.65,2.65,2.65
163.24,6.95,4.33,6.95,4.33,-4.33,-4.05,-3.66,2.62,2.62,2.62
164.88,6.90,4.31,6.90,4.31,-4.31,-4.03,-3.62,2.59,2.59,2.59
166.53,6.86,4.29,6.85,4.29,-4.29,-4.02,-3.58,2.57,2.57,2.57
168.19,6.80,4.26,6.81,4.26,-4.27,-4.00,-3.54,2.53,2.54,2.54
169.87,6.76,4.25,6.76,4.24,-4.24,-3.98,-3.51,2.52,2.52,2.52
171.57,6.71,4.21,6.71,4.22,-4.22,-3.97,-3.47,2.49,2.49,2.50
173.29,6.67,4.20,6.67,4.19,-4.19,-3.95,-3.44,2.48,2.48,2.47
175.02,6.61,4.16,6.62,4.17,-4.16,-3.93,-3.42,2.45,2.45,2.45
176.77,6.57,4.14,6.57,4.14,-4.14,-3.91,-3.39,2.43,2.43,2.43
178.54,6.51,4.10,6.52,4.10,-4.11,-3.89,-3.37,2.40,2.41,2.41
180.32,6.47,4.08,6.47,4.07,-4.08,-3.86,-3.35,2.40,2.39,2.39
182.13,6.41,4.04,6.41,4.04,-4.04,-3.84,-3.33,2.37,2.37,2.37
183.95,6.36,4.01,6.36,4.01,-4.01,-3.82,-3.32,2.35,2.35,2.35
185.79,6.31,3.97,6.31,3.98,-3.97,-3.80,-3.31,2.34,2.34,2.34
187.65,6.26,3.94,6.26,3.94,-3.94,-3.77,-3.30,2.32,2.32,2.32
189.52,6.20,3.90,6.20,3.90,-3.90,-3.75,-3.29,2.30,2.30,2.30
191.42,6.15,3.86,6.15,3.86,-3.86,-3.72,-3.29,2.29,2.28,2.29
193.33,6.09,3.82,6.09,3.83,-3.83,-3.69,-3.28,2.26,2.27,2.27
195.27,6.04,3.79,6.04,3.79,-3.79,-3.67,-3.28,2.25,2.25,2.25
197.22,5.99,3.76,5.99,3.75,-3.75,-3.64,-3.28,2.24,2.24,2.23
199.19,5.93,3.70,5.93,3.71,-3.71,-3.61,-3.29,2.22,2.22,2.23
201.18,5.88,3.67,5.88,3.67,-3.67,-3.58,-3.29,2.21,2.21,2.21
203.19,5.83,3.64,5.83,3.63,-3.63,-3.56,-3.30,2.20,2.19,2.19
205.23,5.77,3.59,5.77,3.60,-3.59,-3.53,-3.31,2.18,2.18,2.18
207.28,5.72,3.56,5.72,3.55,-3.56,-3.50,-3.31,2.17,2.16,2.16
209.35,5.66,3.51,5.66,3.51,-3.52,-3.46,-3.32,2.14,2.15,2.15
211.44,5.61,3.48,5.61,3.48,-3.48,-3.43,-3.33,2.13,2.13,2.13
213.56,5.56,3.44,5.56,3.44,-3.44,-3.40,-3.34,2.12,2.12,2.12
215.69,5.51,3.40,5.51,3.40,-3.40,-3.37,-3.35,2.11,2.11,2.11
217.85,5.45,3.36,5.45,3.36,-3.36,-3.34,-3.36,2.09,2.10,2.09
220.03,5.40,3.32,5.40,3.32,-3.32,-3.30,-3.37,2.08,2.08,2.08
222.23,5.35,3.28,5.35,3.28,-3.28,-3.27,-3.38,2.07,2.07,2.07
224.45,5.30,3.24,5.30,3.24,-3.24,-3.23,-3.39,2.06,2.06,2.06
226.70,5.24,3.19,5.25,3.20,-3.20,-3.20,-3.39,2.04,2.05,2.05
228.96,5.20,3.16,5.20,3.16,-3.16,-3.16,-3.39,2.04,2.03,2.04
231.25,5.15,3.12,5.15,3.13,-3.13,-3.13,-3.39,2.02,2.02,2.03
233.57,5.10,3.09,5.10,3.09,-3.09,-3.09,-3.39,2.01,2.01,2.01
235.90,5.05,3.05,5.05,3.05,-3.06,-3.05,-3.39,1.99,1.99,2.00
238.26,5.00,3.01,5.01,3.02,-3.02,-3.02,-3.38,1.98,1.98,1.99
240.64,4.96,2.99,4.96,2.99,-2.99,-2.98,-3.37,1.98,1.98,1.97
243.05,4.92,2.96,4.91,2.95,-2.95,-2.94,-3.36,1.97,1.96,1.96
245.48,4.86,2.91,4.87,2.91,-2.91,-2.90,-3.34,1.95,1.95,1.95
247.93,4.81,2.87,4.81,2.87,-2.87,-2.86,-3.32,1.94,1.94,1.94
250.41,4.77,2.84,4.76,2.83,-2.83,-2.82,-3.29,1.94,1.93,1.94
252.92,4.71,2.79,4.71,2.79,-2.79,-2.78,-3.26,1.92,1.92,1.92
255.45,4.66,2.75,4.66,2.75,-2.75,-2.74,-3.22,1.91,1.91,1.91
258.00,4.61,2.71,4.61,2.71,-2.71,-2.70,-3.19,1.90,1.90,1.90
260.58,4.56,2.67,4.56,2.67,-2.67,-2.66,-3.15,1.89,1.89,1.89
263.19,4.51,2.63,4.51,2.63,-2.63,-2.62,-3.10,1.88,1.88,1.88
265.82,4.45,2.59,4.45,2.59,-2.59,-2.58,-3.05,1.87,1.87,1.86
268.48,4.40,2.54,4.40,2.54,-2.54,-2.54,-3.00,1.86,1.86,1.86
271.16,4.34,2.50,4.34,2.50,-2.50,-2.49,-2.94,1.85,1.85,1.84
273.87,4.28,2.44,4.28,2.45,-2.45,-2.45,-2.89,1.83,1.83,1.84
276.61,4.23,2.41,4.22,2.40,-2.40,-2.41,-2.83,1.83,1.82,1.82
279.38,4.16,2.35,4.17,2.35,-2.36,-2.36,-2.76,1.80,1.81,1.82
282.17,4.11,2.31,4.11,2.31,-2.31,-2.32,-2.70,1.80,1.80,1.80
284.99,4.05,2.27,4.05,2.26,-2.27,-2.27,-2.63,1.78,1.78,1.79
287.84,3.99,2.22,3.99,2.22,-2.22,-2.23,-2.56,1.77,1.77,1.77
290.72,3.94,2.18,3.94,2.18,-2.18,-2.18,-2.49,1.76,1.76,1.76
293.63,3.88,2.13,3.88,2.13,-2.13,-2.14,-2.42,1.75,1.75,1.75
296.57,3.82,2.08,3.82,2.08,-2.08,-2.09,-2.35,1.74,1.74,1.74
299.53,3.76,2.04,3.76,2.04,-2.04,-2.05,-2.27,1.73,1.73,1.72
302.53,3.70,1.98,3.70,1.99,-1.99,-2.00,-2.20,1.71,1.72,1.72
305.55,3.65,1.95,3.64,1.93,-1.93,-1.95,-2.13,1.72,1.71,1.71
308.61,3.58,1.88,3.58,1.88,-1.88,-1.91,-2.05,1.70,1.70,1.70
311.69,3.52,1.82,3.52,1.83,-1.83,-1.86,-1.98,1.69,1.70,1.70
314.81,3.47,1.79,3.46,1.77,-1.78,-1.81,-1.91,1.69,1.69,1.68
317.96,3.40,1.72,3.40,1.72,-1.72,-1.76,-1.83,1.68,1.68,1.68
321.14,3.34,1.66,3.34,1.67,-1.67,-1.72,-1.76,1.67,1.68,1.68
324.35,3.28,1.62,3.28,1.61,-1.61,-1.67,-1.69,1.67,1.67,1.67
327.59,3.22,1.56,3.22,1.56,-1.56,-1.62,-1.62,1.66,1.66,1.66
330.87,3.15,1.50,3.16,1.50,-1.50,-1.57,-1.55,1.65,1.65,1.65
334.18,3.10,1.45,3.10,1.45,-1.45,-1.52,-1.48,1.65,1.65,1.65
337.52,3.03,1.39,3.04,1.39,-1.40,-1.47,-1.41,1.64,1.64,1.64
340.90,2.98,1.35,2.97,1.34,-1.34,-1.42,-1.34,1.64,1.63,1.63
344.30,2.91,1.28,2.91,1.29,-1.29,-1.37,-1.27,1.62,1.62,1.63
347.75,2.85,1.23,2.86,1.24,-1.24,-1.32,-1.20,1.61,1.62,1.62
351.23,2.80,1.20,2.79,1.19,-1.19,-1.27,-1.14,1.61,1.61,1.60
354.74,2.73,1.14,2.74,1.14,-1.14,-1.22,-1.07,1.59,1.60,1.59
358.28,2.67,1.08,2.68,1.09,-1.09,-1.16,-1.01,1.58,1.59,1.59
361.87,2.62,1.04,2.61,1.04,-1.04,-1.11,-0.94,1.58,1.58,1.58
365.49,2.55,0.98,2.55,0.99,-0.99,-1.06,-0.88,1.56,1.57,1.57
369.14,2.49,0.94,2.49,0.94,-0.94,-1.01,-0.82,1.55,1.55,1.55
372.83,2.43,0.89,2.43,0.89,-0.89,-0.96,-0.76,1.54,1.54,1.54
376.56,2.37,0.84,2.37,0.84,-0.84,-0.90,-0.70,1.53,1.53,1.53
380.33,2.31,0.79,2.31,0.79,-0.79,-0.85,-0.64,1.52,1.52,1.52
384.13,2.25,0.74,2.25,0.74,-0.74,-0.80,-0.58,1.51,1.51,1.51
387.97,2.19,0.69,2.19,0.69,-0.69,-0.75,-0.52,1.50,1.50,1.50
391.85,2.12,0.64,2.13,0.64,-0.64,-0.69,-0.46,1.48,1.49,1.48
395.77,2.07,0.60,2.07,0.59,-0.59,-0.64,-0.41,1.48,1.48,1.47
399.73,2.01,0.55,2.01,0.54,-0.54,-0.59,-0.35,1.47,1.47,1.46
403.72,1.94,0.48,1.94,0.49,-0.49,-0.53,-0.30,1.45,1.46,1.46
407.76,1.88,0.43,1.88,0.43,-0.44,-0.48,-0.24,1.44,1.45,1.45
411.84,1.82,0.38,1.82,0.38,-0.38,-0.42,-0.19,1.44,1.44,1.44
415.96,1.76,0.33,1.76,0.33,-0.33,-0.37,-0.14,1.43,1.43,1.43
420.12,1.69,0.28,1.69,0.28,-0.28,-0.32,-0.08,1.41,1.42,1.42
424.32,1.63,0.23,1.63,0.23,-0.23,-0.26,-0.03,1.40,1.41,1.40
428.56,1.57,0.18,1.57,0.18,-0.17,-0.21,0.02,1.40,1.40,1.39
432.85,1.51,0.13,1.50,0.12,-0.12,-0.16,0.07,1.39,1.38,1.38
437.18,1.43,0.06,1.44,0.07,-0.07,-0.10,0.12,1.36,1.37,1.37
441.55,1.37,0.01,1.37,0.02,-0.02,-0.05,0.16,1.35,1.36,1.36
445.96,1.31,-0.03,1.31,-0.04,0.04,0.01,0.21,1.35,1.34,1.34
450.42,1.24,-0.09,1.24,-0.09,0.09,0.06,0.26,1.33,1.33,1.33
454.93,1.17,-0.15,1.17,-0.14,0.14,0.11,0.30,1.31,1.32,1.32
459.48,1.10,-0.20,1.10,-0.20,0.20,0.17,0.35,1.30,1.30,1.30
464.07,1.04,-0.25,1.04,-0.25,0.25,0.22,0.39,1.29,1.28,1.29
468.71,0.97,-0.30,0.97,-0.30,0.30,0.27,0.43,1.27,1.27,1.28
473.40,0.91,-0.35,0.91,-0.35,0.35,0.32,0.47,1.26,1.26,1.26
478.13,0.84,-0.40,0.85,-0.40,0.40,0.38,0.51,1.24,1.25,1.24
482.91,0.79,-0.44,0.78,-0.45,0.45,0.43,0.55,1.24,1.24,1.23
487.74,0.72,-0.50,0.72,-0.50,0.50,0.48,0.59,1.23,1.22,1.22
492.62,0.65,-0.56,0.66,-0.56,0.56,0.53,0.62,1.21,1.21,1.21
497.55,0.59,-0.61,0.59,-0.61,0.61,0.58,0.66,1.20,1.20,1.20
502.52,0.53,-0.66,0.53,-0.66,0.66,0.63,0.69,1.19,1.18,1.19
507.55,0.46,-0.71,0.46,-0.71,0.71,0.68,0.73,1.17,1.17,1.17
512.62,0.40,-0.76,0.40,-0.76,0.76,0.73,0.76,1.16,1.16,1.16
517.75,0.34,-0.81,0.34,-0.81,0.81,0.78,0.79,1.15,1.15,1.15
522.93,0.27,-0.87,0.28,-0.86,0.86,0.82,0.82,1.13,1.14,1.14
528.16,0.22,-0.91,0.22,-0.91,0.91,0.87,0.85,1.13,1.13,1.13
533.44,0.16,-0.96,0.16,-0.96,0.96,0.92,0.88,1.12,1.12,1.12
538.77,0.10,-1.01,0.10,-1.01,1.01,0.96,0.91,1.11,1.11,1.11
544.16,0.04,-1.06,0.04,-1.06,1.06,1.00,0.94,1.10,1.10,1.10
