frequency,raw,error,smoothed,error_smoothed,equalization,parametric_eq,fixed_band_eq,equalized_raw,equalized_smoothed,target
20.00,12.86,8.16,12.86,8.16,-8.16,-8.66,-4.51,4.70,4.69,4.70
20.20,12.92,8.18,12.92,8.19,-8.19,-8.66,-4.63,4.73,4.74,4.74
20.40,12.99,8.21,12.99,8.22,-8.21,-8.67,-4.75,4.78,4.78,4.78
20.61,13.05,8.25,13.05,8.25,-8.24,-8.68,-4.88,4.81,4.81,4.80
20.81,13.12,8.28,13.12,8.28,-8.27,-8.69,-5.01,4.85,4.84,4.84
21.02,13.18,8.30,13.18,8.31,-8.31,-8.70,-5.14,4.87,4.87,4.88
21.23,13.24,8.34,13.24,8.34,-8.34,-8.71,-5.28,4.90,4.90,4.90
21.44,13.30,8.38,13.30,8.38,-8.38,-8.72,-5.42,4.92,4.92,4.92
21.66,13.36,8.42,13.36,8.43,-8.43,-8.73,-5.56,4.93,4.93,4.94
21.87,13.42,8.48,13.42,8.47,-8.47,-8.75,-5.71,4.95,4.95,4.95
22.09,13.48,8.52,13.48,8.52,-8.52,-8.76,-5.86,4.96,4.96,4.97
22.31,13.54,8.57,13.54,8.57,-8.58,-8.77,-6.02,4.97,4.96,4.97
22.54,13.60,8.62,13.60,8.62,-8.63,-8.78,-6.18,4.97,4.97,4.97
22.76,13.66,8.68,13.67,8.68,-8.68,-8.79,-6.34,4.98,4.98,4.98
22.99,13.73,8.75,13.73,8.74,-8.73,-8.81,-6.51,5.00,5.00,4.98
23.22,13.79,8.80,13.78,8.79,-8.78,-8.82,-6.69,5.01,5.01,4.99
23.45,13.83,8.83,13.83,8.83,-8.82,-8.83,-6.86,5.01,5.01,5.00
23.69,13.88,8.87,13.88,8.87,-8.86,-8.85,-7.04,5.02,5.02,5.01
23.92,13.93,8.90,13.93,8.90,-8.90,-8.86,-7.23,5.03,5.03,5.03
24.16,13.98,8.93,13.98,8.93,-8.94,-8.88,-7.42,5.04,5.03,5.05
24.40,14.03,8.97,14.03,8.97,-8.99,-8.89,-7.61,5.04,5.04,5.06
24.65,14.08,9.02,14.08,9.02,-9.03,-8.91,-7.81,5.05,5.06,5.06
24.89,14.14,9.06,14.14,9.07,-9.07,-8.92,-8.01,5.07,5.07,5.08
25.14,14.21,9.12,14.21,9.12,-9.11,-8.94,-8.21,5.10,5.10,5.09
25.39,14.27,9.17,14.27,9.17,-9.15,-8.96,-8.42,5.12,5.11,5.10
25.65,14.32,9.21,14.31,9.21,-9.19,-8.98,-8.63,5.12,5.12,5.11
25.91,14.35,9.23,14.35,9.24,-9.23,-9.00,-8.84,5.12,5.12,5.12
26.16,14.38,9.25,14.39,9.26,-9.27,-9.01,-9.05,5.11,5.12,5.13
26.43,14.43,9.29,14.43,9.29,-9.30,-9.03,-9.26,5.13,5.13,5.14
26.69,14.48,9.33,14.48,9.32,-9.33,-9.05,-9.48,5.15,5.15,5.15
26.96,14.52,9.36,14.52,9.36,-9.36,-9.08,-9.69,5.16,5.16,5.16
27.23,14.56,9.39,14.56,9.39,-9.39,-9.10,-9.90,5.17,5.17,5.17
27.50,14.60,9.41,14.60,9.41,-9.42,-9.12,-10.11,5.18,5.18,5.19
27.77,14.64,9.45,14.64,9.45,-9.45,-9.14,-10.32,5.19,5.20,5.19
28.05,14.68,9.47,14.68,9.48,-9.47,-9.16,-10.52,5.21,5.21,5.21
28.33,14.72,9.51,14.72,9.50,-9.49,-9.19,-10.71,5.23,5.23,5.21
28.62,14.75,9.52,14.75,9.52,-9.51,-9.21,-10.89,5.24,5.24,5.23
28.90,14.77,9.53,14.77,9.53,-9.52,-9.24,-11.06,5.25,5.24,5.24
29.19,14.78,9.53,14.78,9.53,-9.54,-9.26,-11.23,5.24,5.24,5.25
29.48,14.80,9.54,14.80,9.54,-9.56,-9.29,-11.38,5.24,5.24,5.27
29.78,14.83,9.56,14.83,9.56,-9.58,-9.32,-11.52,5.25,5.25,5.27
30.08,14.87,9.59,14.87,9.58,-9.60,-9.35,-11.63,5.27,5.27,5.28
30.38,14.91,9.62,14.91,9.62,-9.62,-9.38,-11.74,5.29,5.29,5.29
30.68,14.95,9.65,14.95,9.65,-9.64,-9.41,-11.81,5.31,5.31,5.30
30.99,14.99,9.68,14.99,9.68,-9.66,-9.44,-11.88,5.33,5.33,5.31
31.30,15.02,9.70,15.02,9.70,-9.68,-9.47,-11.92,5.34,5.33,5.32
31.61,15.04,9.70,15.04,9.71,-9.71,-9.50,-11.95,5.33,5.34,5.34
31.93,15.06,9.73,15.06,9.72,-9.73,-9.53,-11.95,5.33,5.33,5.33
32.24,15.08,9.74,15.08,9.74,-9.75,-9.57,-11.94,5.33,5.33,5.34
32.57,15.11,9.76,15.11,9.76,-9.77,-9.60,-11.91,5.34,5.34,5.35
32.89,15.15,9.78,15.15,9.79,-9.80,-9.63,-11.86,5.35,5.35,5.37
33.22,15.20,9.83,15.20,9.83,-9.83,-9.67,-11.79,5.37,5.37,5.37
33.55,15.25,9.86,15.25,9.86,-9.86,-9.71,-11.72,5.39,5.38,5.39
33.89,15.29,9.91,15.29,9.90,-9.90,-9.74,-11.63,5.39,5.39,5.38
34.23,15.34,9.94,15.34,9.94,-9.94,-9.78,-11.53,5.40,5.40,5.40
34.57,15.38,9.98,15.38,9.98,-9.97,-9.82,-11.42,5.41,5.41,5.40
34.92,15.42,10.01,15.42,10.01,-10.00,-9.85,-11.31,5.42,5.42,5.41
35.27,15.45,10.03,15.45,10.04,-10.03,-9.89,-11.18,5.42,5.42,5.42
35.62,15.47,10.06,15.47,10.06,-10.06,-9.93,-11.06,5.41,5.41,5.41
35.97,15.49,10.08,15.49,10.07,-10.08,-9.97,-10.93,5.41,5.41,5.41
36.33,15.52,10.09,15.52,10.10,-10.10,-10.00,-10.80,5.42,5.41,5.43
36.70,15.54,10.11,15.54,10.12,-10.12,-10.04,-10.67,5.42,5.42,5.43
37.06,15.56,10.15,15.56,10.14,-10.14,-10.08,-10.54,5.42,5.42,5.41
37.43,15.58,10.16,15.58,10.16,-10.15,-10.12,-10.42,5.43,5.43,5.42
37.81,15.59,10.17,15.59,10.17,-10.16,-10.15,-10.29,5.43,5.43,5.42
38.19,15.59,10.17,15.59,10.17,-10.17,-10.19,-10.17,5.42,5.42,5.42
38.57,15.59,10.17,15.59,10.17,-10.17,-10.22,-10.05,5.42,5.41,5.42
38.95,15.58,10.17,15.58,10.17,-10.17,-10.25,-9.94,5.40,5.41,5.41
39.34,15.57,10.16,15.57,10.17,-10.18,-10.29,-9.83,5.39,5.40,5.41
39.74,15.57,10.18,15.57,10.17,-10.18,-10.32,-9.72,5.39,5.39,5.39
40.14,15.57,10.17,15.57,10.18,-10.18,-10.35,-9.62,5.39,5.39,5.40
40.54,15.57,10.18,15.57,10.18,-10.18,-10.37,-9.53,5.39,5.39,5.39
40.94,15.57,10.18,15.57,10.18,-10.18,-10.40,-9.44,5.39,5.39,5.39
41.35,15.57,10.18,15.57,10.18,-10.18,-10.42,-9.36,5.39,5.39,5.39
41.76,15.57,10.19,15.57,10.18,-10.18,-10.44,-9.29,5.39,5.39,5.38
42.18,15.57,10.18,15.57,10.18,-10.18,-10.46,-9.22,5.39,5.39,5.39
42.60,15.57,10.18,15.57,10.18,-10.18,-10.47,-9.16,5.39,5.39,5.39
43.03,15.57,10.18,15.57,10.18,-10.19,-10.48,-9.10,5.38,5.38,5.39
43.46,15.57,10.18,15.57,10.18,-10.19,-10.49,-9.05,5.38,5.38,5.39
43.90,15.57,10.19,15.57,10.19,-10.19,-10.50,-9.01,5.38,5.38,5.38
44.33,15.57,10.19,15.57,10.19,-10.19,-10.50,-8.97,5.38,5.38,5.38
44.78,15.57,10.20,15.57,10.20,-10.19,-10.50,-8.94,5.38,5.38,5.37
45.23,15.57,10.19,15.57,10.20,-10.19,-10.49,-8.92,5.38,5.38,5.38
45.68,15.57,10.20,15.57,10.20,-10.19,-10.48,-8.90,5.38,5.38,5.37
46.13,15.57,10.20,15.57,10.19,-10.19,-10.47,-8.89,5.38,5.38,5.37
46.60,15.57,10.18,15.57,10.19,-10.19,-10.45,-8.89,5.38,5.38,5.39
47.06,15.57,10.19,15.57,10.18,-10.19,-10.43,-8.89,5.38,5.38,5.38
47.53,15.57,10.18,15.57,10.18,-10.19,-10.41,-8.89,5.38,5.38,5.39
48.01,15.57,10.17,15.57,10.18,-10.20,-10.39,-8.91,5.37,5.38,5.40
48.49,15.58,10.19,15.58,10.19,-10.20,-10.36,-8.93,5.38,5.38,5.39
48.97,15.59,10.21,15.59,10.21,-10.21,-10.32,-8.95,5.38,5.38,5.38
49.46,15.59,10.22,15.59,10.22,-10.21,-10.29,-8.98,5.38,5.38,5.37
49.96,15.59,10.24,15.59,10.23,-10.21,-10.25,-9.01,5.38,5.37,5.35
50.46,15.57,10.21,15.57,10.22,-10.21,-10.21,-9.05,5.36,5.36,5.36
50.96,15.56,10.21,15.56,10.21,-10.21,-10.17,-9.09,5.35,5.35,5.35
51.47,15.54,10.20,15.54,10.19,-10.20,-10.12,-9.14,5.34,5.34,5.34
51.99,15.52,10.18,15.52,10.19,-10.19,-10.08,-9.18,5.33,5.34,5.34
52.51,15.50,10.16,15.50,10.17,-10.17,-10.03,-9.23,5.33,5.33,5.34
53.03,15.48,10.15,15.47,10.14,-10.15,-9.98,-9.29,5.33,5.32,5.33
53.56,15.44,10.12,15.44,10.13,-10.13,-9.92,-9.34,5.31,5.31,5.32
54.10,15.40,10.10,15.41,10.10,-10.10,-9.87,-9.40,5.30,5.30,5.30
54.64,15.37,10.08,15.37,10.08,-10.08,-9.82,-9.45,5.29,5.29,5.29
55.18,15.33,10.05,15.33,10.05,-10.05,-9.76,-9.51,5.28,5.28,5.28
55.74,15.28,10.02,15.28,10.02,-10.02,-9.70,-9.56,5.26,5.26,5.26
56.29,15.23,9.97,15.23,9.98,-9.98,-9.65,-9.61,5.25,5.25,5.26
56.86,15.18,9.95,15.18,9.95,-9.95,-9.59,-9.66,5.23,5.23,5.23
57.42,15.12,9.91,15.12,9.91,-9.91,-9.53,-9.70,5.21,5.22,5.21
58.00,15.07,9.87,15.07,9.87,-9.87,-9.47,-9.74,5.20,5.20,5.20
58.58,15.01,9.82,15.01,9.82,-9.82,-9.41,-9.78,5.19,5.19,5.19
59.16,14.95,9.78,14.95,9.78,-9.78,-9.35,-9.81,5.17,5.17,5.17
59.76,14.88,9.72,14.88,9.73,-9.73,-9.29,-9.83,5.15,5.15,5.16
60.35,14.81,9.68,14.81,9.68,-9.68,-9.23,-9.84,5.13,5.13,5.13
60.96,14.74,9.63,14.73,9.63,-9.63,-9.17,-9.85,5.11,5.11,5.11
61.57,14.65,9.58,14.65,9.57,-9.57,-9.11,-9.85,5.08,5.08,5.07
62.18,14.56,9.51,14.56,9.51,-9.51,-9.05,-9.84,5.04,5.05,5.05
62.80,14.47,9.45,14.47,9.45,-9.45,-8.99,-9.82,5.02,5.02,5.02
63.43,14.39,9.39,14.38,9.39,-9.39,-8.93,-9.79,5.00,5.00,5.00
64.07,14.29,9.32,14.29,9.32,-9.31,-8.87,-9.76,4.98,4.98,4.97
64.71,14.19,9.24,14.19,9.24,-9.24,-8.81,-9.72,4.95,4.96,4.95
65.35,14.09,9.17,14.08,9.16,-9.16,-8.75,-9.66,4.93,4.93,4.92
66.01,13.97,9.07,13.97,9.07,-9.07,-8.69,-9.61,4.90,4.90,4.90
66.67,13.85,8.97,13.85,8.98,-8.98,-8.62,-9.54,4.87,4.87,4.88
67.33,13.73,8.88,13.73,8.88,-8.89,-8.56,-9.47,4.84,4.84,4.85
68.01,13.61,8.78,13.61,8.79,-8.79,-8.50,-9.39,4.82,4.82,4.83
68.69,13.49,8.69,13.49,8.69,-8.69,-8.44,-9.31,4.80,4.80,4.80
69.37,13.37,8.59,13.37,8.59,-8.59,-8.38,-9.22,4.78,4.78,4.77
70.07,13.24,8.49,13.24,8.49,-8.49,-8.31,-9.13,4.75,4.75,4.75
70.77,13.11,8.38,13.11,8.38,-8.38,-8.25,-9.04,4.73,4.73,4.73
71.48,12.98,8.27,12.98,8.28,-8.28,-8.18,-8.95,4.70,4.70,4.71
72.19,12.86,8.18,12.85,8.17,-8.17,-8.12,-8.86,4.69,4.68,4.68
72.91,12.73,8.07,12.73,8.07,-8.07,-8.05,-8.76,4.66,4.66,4.66
73.64,12.60,7.96,12.61,7.97,-7.97,-7.98,-8.67,4.63,4.64,4.64
74.38,12.49,7.87,12.49,7.87,-7.86,-7.91,-8.58,4.63,4.62,4.62
75.12,12.37,7.77,12.37,7.76,-7.76,-7.84,-8.49,4.61,4.61,4.60
75.87,12.26,7.66,12.26,7.66,-7.67,-7.77,-8.40,4.59,4.59,4.60
76.63,12.15,7.57,12.15,7.57,-7.57,-7.69,-8.31,4.58,4.58,4.58
77.40,12.05,7.48,12.05,7.48,-7.47,-7.62,-8.23,4.58,4.58,4.57
78.17,11.95,7.39,11.95,7.39,-7.38,-7.54,-8.15,4.57,4.57,4.56
78.95,11.86,7.30,11.85,7.30,-7.30,-7.47,-8.07,4.56,4.56,4.56
79.74,11.76,7.21,11.76,7.22,-7.22,-7.40,-8.00,4.54,4.54,4.55
80.54,11.68,7.14,11.68,7.14,-7.15,-7.33,-7.94,4.53,4.53,4.54
81.35,11.61,7.08,11.61,7.08,-7.08,-7.27,-7.87,4.53,4.52,4.53
82.16,11.54,7.02,11.54,7.02,-7.03,-7.21,-7.82,4.51,4.52,4.52
82.98,11.49,6.97,11.49,6.98,-6.98,-7.16,-7.76,4.51,4.51,4.52
83.81,11.44,6.94,11.44,6.94,-6.94,-7.13,-7.72,4.50,4.50,4.50
84.65,11.40,6.91,11.40,6.91,-6.91,-7.10,-7.67,4.49,4.49,4.49
85.50,11.37,6.88,11.37,6.88,-6.88,-7.08,-7.64,4.49,4.49,4.49
86.35,11.35,6.87,11.35,6.87,-6.87,-7.07,-7.61,4.48,4.48,4.48
87.22,11.33,6.86,11.33,6.86,-6.86,-7.06,-7.58,4.47,4.48,4.47
88.09,11.32,6.86,11.32,6.85,-6.85,-7.06,-7.56,4.47,4.46,4.46
88.97,11.31,6.85,11.31,6.85,-6.86,-7.06,-7.55,4.45,4.45,4.46
89.86,11.30,6.85,11.31,6.86,-6.86,-7.06,-7.54,4.44,4.44,4.45
90.76,11.31,6.88,11.31,6.87,-6.87,-7.06,-7.54,4.44,4.44,4.43
91.66,11.33,6.89,11.33,6.90,-6.89,-7.06,-7.54,4.44,4.44,4.44
92.58,11.35,6.93,11.35,6.92,-6.90,-7.07,-7.55,4.45,4.44,4.42
93.51,11.36,6.93,11.36,6.93,-6.93,-7.07,-7.56,4.43,4.43,4.43
94.44,11.37,6.95,11.37,6.95,-6.96,-7.07,-7.58,4.41,4.41,4.42
95.39,11.39,6.98,11.39,6.98,-7.00,-7.07,-7.60,4.39,4.40,4.41
96.34,11.42,7.03,11.42,7.03,-7.04,-7.07,-7.63,4.38,4.38,4.39
97.30,11.46,7.08,11.46,7.08,-7.09,-7.07,-7.66,4.37,4.38,4.38
98.28,11.51,7.14,11.51,7.14,-7.14,-7.07,-7.69,4.37,4.37,4.37
99.26,11.56,7.21,11.56,7.20,-7.20,-7.07,-7.73,4.36,4.35,4.35
100.25,11.61,7.27,11.61,7.27,-7.27,-7.07,-7.78,4.34,4.34,4.34
101.25,11.67,7.34,11.67,7.35,-7.34,-7.08,-7.83,4.33,4.33,4.33
102.27,11.73,7.42,11.73,7.42,-7.42,-7.08,-7.88,4.31,4.31,4.31
103.29,11.78,7.50,11.78,7.50,-7.49,-7.08,-7.93,4.29,4.29,4.28
104.32,11.83,7.56,11.83,7.56,-7.56,-7.09,-7.98,4.27,4.27,4.27
105.37,11.88,7.64,11.88,7.63,-7.63,-7.10,-8.04,4.25,4.25,4.24
106.42,11.92,7.69,11.92,7.70,-7.70,-7.11,-8.09,4.22,4.22,4.23
107.48,11.96,7.76,11.96,7.76,-7.77,-7.11,-8.15,4.19,4.19,4.20
108.56,11.99,7.83,11.99,7.83,-7.83,-7.13,-8.21,4.16,4.16,4.16
109.64,12.01,7.88,12.01,7.88,-7.89,-7.14,-8.26,4.12,4.13,4.13
110.74,12.03,7.94,12.03,7.94,-7.94,-7.15,-8.31,4.09,4.09,4.09
111.85,12.04,7.98,12.04,7.98,-7.98,-7.17,-8.36,4.06,4.06,4.06
112.97,12.05,8.03,12.05,8.03,-8.02,-7.19,-8.40,4.03,4.03,4.02
114.10,12.04,8.06,12.04,8.06,-8.05,-7.21,-8.44,3.99,3.99,3.98
115.24,12.01,8.07,12.01,8.08,-8.07,-7.23,-8.47,3.94,3.94,3.94
116.39,11.98,8.08,11.98,8.08,-8.08,-7.25,-8.50,3.90,3.90,3.90
117.55,11.94,8.08,11.94,8.08,-8.08,-7.27,-8.51,3.86,3.85,3.86
118.73,11.89,8.08,11.89,8.08,-8.08,-7.29,-8.52,3.81,3.81,3.81
119.92,11.83,8.05,11.84,8.06,-8.06,-7.32,-8.51,3.77,3.78,3.78
121.12,11.78,8.04,11.78,8.04,-8.03,-7.34,-8.50,3.75,3.74,3.74
122.33,11.71,8.01,11.71,8.00,-8.00,-7.37,-8.47,3.71,3.71,3.70
123.55,11.63,7.95,11.63,7.96,-7.96,-7.39,-8.44,3.67,3.68,3.68
124.79,11.55,7.91,11.55,7.90,-7.91,-7.41,-8.38,3.64,3.64,3.64
126.03,11.46,7.85,11.46,7.85,-7.85,-7.44,-8.32,3.61,3.61,3.61
127.29,11.36,7.78,11.36,7.79,-7.79,-7.46,-8.24,3.57,3.57,3.58
128.57,11.27,7.74,11.26,7.72,-7.72,-7.48,-8.16,3.55,3.54,3.53
129.85,11.16,7.65,11.16,7.66,-7.65,-7.49,-8.05,3.51,3.51,3.51
131.15,11.06,7.58,11.06,7.58,-7.58,-7.51,-7.95,3.48,3.48,3.48
132.46,10.96,7.50,10.96,7.50,-7.51,-7.51,-7.82,3.45,3.45,3.46
133.79,10.86,7.43,10.86,7.43,-7.43,-7.52,-7.69,3.43,3.43,3.44
135.12,10.76,7.36,10.76,7.35,-7.35,-7.52,-7.54,3.41,3.41,3.40
136.48,10.66,7.28,10.66,7.27,-7.27,-7.51,-7.40,3.39,3.39,3.38
137.84,10.55,7.19,10.55,7.19,-7.19,-7.50,-7.23,3.36,3.36,3.36
139.22,10.44,7.12,10.44,7.11,-7.10,-7.48,-7.07,3.34,3.34,3.33
140.61,10.33,7.02,10.33,7.02,-7.02,-7.45,-6.90,3.31,3.31,3.31
142.02,10.22,6.92,10.22,6.93,-6.93,-7.42,-6.72,3.29,3.29,3.30
143.44,10.12,6.85,10.12,6.85,-6.85,-7.37,-6.54,3.27,3.27,3.27
144.87,10.01,6.77,10.01,6.76,-6.76,-7.32,-6.36,3.25,3.24,3.24
146.32,9.89,6.67,9.90,6.68,-6.68,-7.25,-6.17,3.21,3.22,3.22
147.78,9.79,6.59,9.79,6.59,-6.60,-7.18,-5.98,3.19,3.20,3.20
149.26,9.69,6.51,9.68,6.51,-6.51,-7.09,-5.78,3.18,3.17,3.18
150.75,9.58,6.44,9.58,6.43,-6.43,-7.00,-5.59,3.15,3.14,3.14
152.26,9.46,6.35,9.46,6.35,-6.35,-6.89,-5.40,3.11,3.11,3.11
153.78,9.35,6.27,9.35,6.27,-6.27,-6.78,-5.21,3.08,3.08,3.08
155.32,9.24,6.19,9.24,6.19,-6.19,-6.65,-5.01,3.05,3.05,3.05
156.88,9.13,6.10,9.13,6.10,-6.11,-6.52,-4.82,3.02,3.02,3.03
158.44,9.01,6.01,9.01,6.02,-6.02,-6.37,-4.63,2.99,2.99,3.00
160.03,8.89,5.94,8.89,5.93,-5.93,-6.22,-4.44,2.96,2.96,2.95
161.63,8.76,5.84,8.76,5.84,-5.83,-6.05,-4.25,2.93,2.93,2.92
163.24,8.63,5.75,8.63,5.74,-5.73,-5.88,-4.06,2.90,2.90,2.88
164.88,8.49,5.63,8.49,5.63,-5.62,-5.70,-3.88,2.87,2.87,2.86
166.53,8.33,5.51,8.33,5.51,-5.50,-5.52,-3.69,2.83,2.83,2.82
168.19,8.17,5.37,8.17,5.37,-5.38,-5.33,-3.51,2.79,2.79,2.80
169.87,8.00,5.24,8.00,5.24,-5.25,-5.14,-3.33,2.75,2.75,2.76
171.57,7.82,5.10,7.82,5.10,-5.11,-4.94,-3.15,2.71,2.71,2.72
173.29,7.63,4.96,7.63,4.96,-4.96,-4.74,-2.97,2.67,2.67,2.67
175.02,7.44,4.80,7.44,4.81,-4.81,-4.54,-2.80,2.63,2.63,2.64
176.77,7.24,4.65,7.24,4.65,-4.64,-4.33,-2.63,2.60,2.59,2.59
178.54,7.02,4.49,7.02,4.48,-4.47,-4.12,-2.46,2.55,2.55,2.53
180.32,6.79,4.30,6.79,4.30,-4.30,-3.92,-2.29,2.49,2.49,2.49
182.13,6.55,4.11,6.55,4.11,-4.11,-3.71,-2.12,2.44,2.44,2.44
183.95,6.31,3.92,6.31,3.92,-3.91,-3.50,-1.95,2.40,2.39,2.39
185.79,6.06,3.71,6.06,3.71,-3.71,-3.29,-1.79,2.35,2.34,2.35
187.65,5.80,3.51,5.80,3.51,-3.51,-3.08,-1.62,2.29,2.29,2.29
189.52,5.54,3.29,5.54,3.29,-3.30,-2.87,-1.46,2.24,2.25,2.25
191.42,5.29,3.08,5.29,3.08,-3.09,-2.67,-1.30,2.20,2.20,2.21
193.33,5.03,2.87,5.03,2.87,-2.87,-2.47,-1.15,2.16,2.16,2.16
195.27,4.77,2.65,4.77,2.65,-2.65,-2.26,-0.99,2.12,2.12,2.12
197.22,4.51,2.44,4.51,2.44,-2.43,-2.07,-0.84,2.08,2.08,2.07
199.19,4.25,2.23,4.25,2.22,-2.21,-1.87,-0.68,2.04,2.03,2.02
201.18,3.98,2.00,3.98,2.00,-2.00,-1.68,-0.53,1.98,1.99,1.98
203.19,3.72,1.77,3.72,1.77,-1.78,-1.49,-0.38,1.94,1.94,1.95
205.23,3.46,1.55,3.46,1.55,-1.56,-1.30,-0.24,1.90,1.90,1.91
207.28,3.21,1.33,3.21,1.34,-1.35,-1.12,-0.09,1.86,1.86,1.88
209.35,2.97,1.14,2.97,1.14,-1.15,-0.94,0.05,1.82,1.83,1.83
211.44,2.74,0.96,2.73,0.95,-0.94,-0.76,0.19,1.80,1.79,1.78
213.56,2.50,0.75,2.50,0.75,-0.74,-0.58,0.32,1.76,1.75,1.75
215.69,2.26,0.54,2.27,0.55,-0.55,-0.41,0.46,1.71,1.72,1.72
217.85,2.04,0.36,2.04,0.36,-0.36,-0.25,0.59,1.68,1.69,1.68
220.03,1.83,0.18,1.82,0.17,-0.17,-0.08,0.72,1.66,1.65,1.65
222.23,1.61,-0.01,1.61,-0.01,0.02,0.08,0.84,1.63,1.63,1.62
224.45,1.39,-0.21,1.40,-0.20,0.20,0.23,0.96,1.59,1.60,1.60
226.70,1.19,-0.39,1.19,-0.39,0.38,0.38,1.08,1.57,1.57,1.58
228.96,1.00,-0.56,1.00,-0.56,0.56,0.53,1.19,1.56,1.56,1.56
231.25,0.82,-0.73,0.82,-0.73,0.73,0.68,1.30,1.55,1.55,1.55
233.57,0.64,-0.89,0.64,-0.89,0.89,0.82,1.40,1.53,1.54,1.53
235.90,0.48,-1.05,0.48,-1.05,1.05,0.96,1.50,1.53,1.53,1.53
238.26,0.31,-1.20,0.31,-1.20,1.21,1.09,1.59,1.52,1.52,1.51
240.64,0.16,-1.36,0.16,-1.36,1.35,1.22,1.68,1.51,1.51,1.52
243.05,0.01,-1.51,0.01,-1.50,1.50,1.35,1.76,1.51,1.51,1.52
245.48,-0.12,-1.63,-0.12,-1.64,1.64,1.48,1.84,1.52,1.52,1.51
247.93,-0.25,-1.77,-0.25,-1.77,1.77,1.60,1.91,1.52,1.52,1.52
250.41,-0.38,-1.89,-0.38,-1.90,1.90,1.71,1.98,1.52,1.52,1.51
252.92,-0.50,-2.04,-0.50,-2.03,2.03,1.83,2.04,1.53,1.53,1.54
255.45,-0.61,-2.16,-0.60,-2.15,2.15,1.94,2.09,1.54,1.54,1.55
258.00,-0.70,-2.26,-0.70,-2.26,2.26,2.04,2.14,1.56,1.56,1.56
260.58,-0.79,-2.36,-0.80,-2.36,2.37,2.15,2.19,1.58,1.57,1.57
263.19,-0.89,-2.47,-0.89,-2.47,2.47,2.25,2.23,1.58,1.58,1.58
265.82,-0.98,-2.57,-0.98,-2.57,2.57,2.34,2.26,1.59,1.59,1.59
268.48,-1.06,-2.67,-1.06,-2.66,2.66,2.44,2.29,1.60,1.60,1.61
271.16,-1.12,-2.75,-1.12,-2.75,2.75,2.53,2.32,1.63,1.62,1.63
273.87,-1.19,-2.83,-1.19,-2.83,2.84,2.62,2.35,1.65,1.64,1.64
276.61,-1.26,-2.91,-1.26,-2.91,2.92,2.70,2.37,1.66,1.66,1.65
279.38,-1.34,-3.00,-1.34,-3.00,3.00,2.78,2.38,1.66,1.66,1.66
282.17,-1.41,-3.09,-1.41,-3.08,3.08,2.86,2.40,1.67,1.67,1.68
284.99,-1.47,-3.16,-1.47,-3.16,3.16,2.94,2.41,1.69,1.68,1.69
287.84,-1.53,-3.23,-1.53,-3.23,3.23,3.01,2.42,1.70,1.70,1.70
290.72,-1.59,-3.31,-1.59,-3.30,3.31,3.08,2.43,1.72,1.72,1.72
293.63,-1.65,-3.37,-1.65,-3.38,3.38,3.15,2.44,1.73,1.73,1.72
296.57,-1.72,-3.46,-1.72,-3.45,3.46,3.21,2.45,1.74,1.74,1.74
299.53,-1.78,-3.53,-1.78,-3.53,3.53,3.27,2.46,1.75,1.75,1.75
302.53,-1.84,-3.60,-1.84,-3.60,3.61,3.33,2.46,1.77,1.77,1.76
305.55,-1.90,-3.67,-1.90,-3.67,3.68,3.39,2.47,1.78,1.78,1.77
308.61,-1.97,-3.75,-1.97,-3.75,3.75,3.44,2.48,1.78,1.78,1.78
311.69,-2.03,-3.83,-2.03,-3.83,3.82,3.50,2.49,1.79,1.79,1.80
314.81,-2.08,-3.90,-2.08,-3.89,3.88,3.54,2.50,1.80,1.81,1.82
317.96,-2.12,-3.94,-2.12,-3.95,3.94,3.59,2.51,1.82,1.82,1.82
321.14,-2.16,-3.99,-2.16,-4.00,3.99,3.64,2.52,1.83,1.83,1.83
324.35,-2.20,-4.04,-2.20,-4.04,4.04,3.68,2.53,1.84,1.84,1.84
327.59,-2.23,-4.08,-2.23,-4.08,4.07,3.72,2.55,1.84,1.85,1.85
330.87,-2.25,-4.11,-2.25,-4.10,4.10,3.75,2.57,1.85,1.86,1.86
334.18,-2.26,-4.12,-2.26,-4.13,4.13,3.79,2.58,1.87,1.87,1.86
337.52,-2.27,-4.13,-2.27,-4.14,4.15,3.82,2.60,1.88,1.87,1.86
340.90,-2.29,-4.17,-2.29,-4.16,4.16,3.85,2.63,1.87,1.88,1.88
344.30,-2.29,-4.17,-2.29,-4.18,4.17,3.88,2.65,1.88,1.88,1.88
347.75,-2.30,-4.19,-2.30,-4.18,4.17,3.91,2.68,1.87,1.88,1.89
351.23,-2.29,-4.18,-2.29,-4.18,4.17,3.93,2.71,1.88,1.88,1.89
354.74,-2.28,-4.17,-2.28,-4.17,4.17,3.95,2.74,1.89,1.89,1.89
358.28,-2.27,-4.16,-2.27,-4.16,4.17,3.97,2.78,1.90,1.90,1.89
361.87,-2.27,-4.16,-2.27,-4.16,4.17,3.99,2.81,1.90,1.90,1.89
365.49,-2.27,-4.16,-2.27,-4.16,4.16,4.01,2.85,1.89,1.90,1.89
369.14,-2.27,-4.15,-2.27,-4.15,4.16,4.02,2.89,1.89,1.89,1.88
372.83,-2.27,-4.15,-2.27,-4.15,4.16,4.04,2.93,1.89,1.89,1.88
376.56,-2.28,-4.16,-2.28,-4.16,4.16,4.05,2.98,1.88,1.88,1.88
380.33,-2.29,-4.18,-2.29,-4.17,4.16,4.06,3.03,1.87,1.88,1.89
384.13,-2.29,-4.17,-2.29,-4.17,4.16,4.07,3.08,1.87,1.87,1.88
387.97,-2.29,-4.16,-2.29,-4.16,4.15,4.07,3.13,1.86,1.87,1.87
391.85,-2.28,-4.14,-2.28,-4.15,4.15,4.08,3.18,1.87,1.86,1.86
395.77,-2.27,-4.14,-2.27,-4.13,4.13,4.08,3.23,1.86,1.86,1.87
399.73,-2.25,-4.11,-2.25,-4.11,4.11,4.09,3.29,1.86,1.87,1.86
403.72,-2.22,-4.08,-2.22,-4.09,4.09,4.09,3.35,1.87,1.87,1.86
407.76,-2.20,-4.06,-2.20,-4.06,4.06,4.09,3.40,1.86,1.87,1.86
411.84,-2.17,-4.04,-2.17,-4.04,4.03,4.08,3.46,1.86,1.86,1.87
415.96,-2.14,-4.01,-2.14,-4.01,4.00,4.08,3.52,1.86,1.86,1.87
420.12,-2.11,-3.98,-2.11,-3.98,3.97,4.08,3.58,1.86,1.86,1.87
424.32,-2.08,-3.95,-2.08,-3.94,3.94,4.07,3.64,1.86,1.86,1.87
428.56,-2.05,-3.91,-2.05,-3.91,3.91,4.06,3.70,1.86,1.87,1.86
432.85,-2.02,-3.88,-2.02,-3.88,3.89,4.06,3.76,1.87,1.87,1.86
437.18,-1.99,-3.85,-2.00,-3.85,3.86,4.05,3.81,1.87,1.87,1.86
441.55,-1.98,-3.84,-1.98,-3.84,3.84,4.04,3.87,1.86,1.86,1.86
445.96,-1.97,-3.83,-1.97,-3.83,3.83,4.02,3.92,1.86,1.86,1.86
450.42,-1.96,-3.81,-1.96,-3.82,3.81,4.01,3.97,1.85,1.86,1.85
454.93,-1.94,-3.80,-1.94,-3.80,3.80,4.00,4.02,1.86,1.86,1.86
459.48,-1.93,-3.79,-1.93,-3.79,3.79,3.98,4.06,1.86,1.86,1.86
464.07,-1.92,-3.78,-1.92,-3.78,3.79,3.97,4.10,1.87,1.87,1.86
468.71,-1.91,-3.78,-1.91,-3.77,3.77,3.95,4.13,1.86,1.87,1.87
473.40,-1.89,-3.75,-1.89,-3.76,3.76,3.94,4.16,1.87,1.87,1.86
478.13,-1.88,-3.75,-1.88,-3.75,3.74,3.92,4.19,1.86,1.87,1.87
482.91,-1.86,-3.73,-1.86,-3.73,3.72,3.90,4.21,1.86,1.87,1.87
487.74,-1.83,-3.70,-1.83,-3.71,3.70,3.88,4.22,1.87,1.87,1.87
