frequency,raw,error,smoothed,error_smoothed,equalization,parametric_eq,fixed_band_eq,equalized_raw,equalized_smoothed,target
20.00,3.27,5.27,3.27,5.27,-5.27,-5.14,-2.31,-2.00,-2.00,-2.00
20.20,3.26,5.29,3.25,5.28,-5.28,-5.14,-2.38,-2.03,-2.03,-2.03
20.40,3.25,5.30,3.24,5.29,-5.29,-5.14,-2.44,-2.05,-2.05,-2.05
20.61,3.23,5.30,3.23,5.30,-5.30,-5.14,-2.51,-2.08,-2.08,-2.07
20.81,3.22,5.31,3.22,5.31,-5.31,-5.14,-2.59,-2.10,-2.10,-2.09
21.02,3.21,5.32,3.20,5.32,-5.32,-5.14,-2.66,-2.12,-2.12,-2.11
21.23,3.20,5.33,3.20,5.33,-5.33,-5.14,-2.74,-2.14,-2.14,-2.13
21.44,3.19,5.34,3.19,5.34,-5.34,-5.14,-2.82,-2.15,-2.15,-2.15
21.66,3.18,5.35,3.18,5.35,-5.34,-5.14,-2.90,-2.17,-2.17,-2.17
21.87,3.17,5.35,3.16,5.35,-5.35,-5.14,-2.98,-2.18,-2.18,-2.18
22.09,3.16,5.36,3.15,5.35,-5.35,-5.14,-3.07,-2.20,-2.20,-2.20
22.31,3.14,5.35,3.14,5.35,-5.35,-5.14,-3.16,-2.22,-2.21,-2.21
22.54,3.13,5.35,3.13,5.35,-5.35,-5.14,-3.25,-2.23,-2.23,-2.22
22.76,3.12,5.35,3.11,5.35,-5.35,-5.14,-3.34,-2.24,-2.24,-2.23
22.99,3.11,5.35,3.11,5.35,-5.35,-5.14,-3.43,-2.25,-2.25,-2.24
23.22,3.10,5.35,3.10,5.35,-5.35,-5.14,-3.53,-2.25,-2.25,-2.25
23.45,3.09,5.35,3.08,5.35,-5.34,-5.14,-3.63,-2.26,-2.26,-2.26
23.69,3.08,5.35,3.07,5.34,-5.34,-5.14,-3.73,-2.26,-2.27,-2.27
23.92,3.06,5.33,3.06,5.34,-5.33,-5.14,-3.84,-2.28,-2.27,-2.27
24.16,3.05,5.33,3.05,5.33,-5.33,-5.14,-3.94,-2.28,-2.28,-2.28
24.40,3.04,5.32,3.03,5.32,-5.32,-5.14,-4.05,-2.28,-2.29,-2.28
24.65,3.02,5.31,3.02,5.31,-5.31,-5.14,-4.16,-2.29,-2.29,-2.29
24.89,3.01,5.30,3.00,5.30,-5.30,-5.13,-4.27,-2.29,-2.30,-2.29
25.14,2.99,5.29,2.99,5.29,-5.29,-5.13,-4.38,-2.30,-2.30,-2.30
25.39,2.98,5.28,2.98,5.28,-5.28,-5.13,-4.50,-2.31,-2.31,-2.30
25.65,2.97,5.28,2.96,5.27,-5.27,-5.13,-4.61,-2.31,-2.31,-2.31
25.91,2.95,5.26,2.95,5.26,-5.27,-5.13,-4.72,-2.32,-2.32,-2.31
26.16,2.94,5.26,2.94,5.26,-5.26,-5.13,-4.84,-2.32,-2.32,-2.32
26.43,2.93,5.25,2.92,5.25,-5.25,-5.13,-4.95,-2.33,-2.33,-2.32
26.69,2.92,5.25,2.92,5.25,-5.24,-5.12,-5.06,-2.33,-2.33,-2.33
26.96,2.91,5.24,2.91,5.24,-5.24,-5.12,-5.17,-2.33,-2.33,-2.33
27.23,2.90,5.23,2.89,5.23,-5.23,-5.12,-5.28,-2.33,-2.34,-2.33
27.50,2.88,5.22,2.88,5.22,-5.22,-5.12,-5.39,-2.34,-2.34,-2.34
27.77,2.87,5.21,2.87,5.21,-5.21,-5.12,-5.49,-2.35,-2.35,-2.34
28.05,2.86,5.21,2.85,5.20,-5.20,-5.11,-5.59,-2.35,-2.35,-2.35
28.33,2.84,5.19,2.84,5.19,-5.19,-5.11,-5.69,-2.36,-2.35,-2.35
28.62,2.83,5.18,2.82,5.18,-5.18,-5.11,-5.78,-2.35,-2.36,-2.35
28.90,2.81,5.17,2.81,5.17,-5.17,-5.11,-5.86,-2.36,-2.36,-2.36
29.19,2.80,5.16,2.80,5.16,-5.16,-5.11,-5.94,-2.36,-2.36,-2.36
29.48,2.79,5.15,2.78,5.15,-5.14,-5.10,-6.01,-2.36,-2.36,-2.36
29.78,2.77,5.13,2.77,5.13,-5.13,-5.10,-6.08,-2.37,-2.36,-2.36
30.08,2.76,5.12,2.75,5.12,-5.12,-5.10,-6.13,-2.36,-2.37,-2.36
30.38,2.74,5.10,2.74,5.10,-5.11,-5.09,-6.18,-2.37,-2.37,-2.36
30.68,2.73,5.10,2.73,5.10,-5.10,-5.09,-6.22,-2.37,-2.37,-2.37
30.99,2.72,5.09,2.72,5.09,-5.09,-5.09,-6.25,-2.37,-2.37,-2.37
31.30,2.71,5.08,2.71,5.08,-5.08,-5.09,-6.27,-2.37,-2.37,-2.37
31.61,2.70,5.07,2.69,5.07,-5.07,-5.08,-6.29,-2.37,-2.37,-2.37
31.93,2.68,5.06,2.68,5.06,-5.06,-5.08,-6.29,-2.38,-2.38,-2.38
32.24,2.67,5.05,2.66,5.05,-5.05,-5.08,-6.28,-2.38,-2.38,-2.38
32.57,2.65,5.04,2.65,5.04,-5.04,-5.07,-6.27,-2.39,-2.39,-2.39
32.89,2.64,5.03,2.63,5.02,-5.02,-5.07,-6.25,-2.39,-2.39,-2.39
33.22,2.62,5.01,2.62,5.01,-5.01,-5.07,-6.22,-2.39,-2.39,-2.39
33.55,2.60,4.99,2.60,4.99,-5.00,-5.06,-6.19,-2.40,-2.40,-2.39
33.89,2.59,4.99,2.58,4.98,-4.98,-5.06,-6.15,-2.40,-2.40,-2.40
34.23,2.57,4.97,2.56,4.97,-4.97,-5.05,-6.10,-2.40,-2.40,-2.40
34.57,2.55,4.96,2.55,4.96,-4.96,-5.05,-6.05,-2.41,-2.41,-2.41
34.92,2.53,4.94,2.53,4.94,-4.94,-5.05,-5.99,-2.42,-2.42,-2.41
35.27,2.52,4.93,2.51,4.93,-4.93,-5.04,-5.93,-2.42,-2.42,-2.41
35.62,2.51,4.92,2.50,4.92,-4.92,-5.04,-5.86,-2.42,-2.42,-2.41
35.97,2.50,4.92,2.50,4.91,-4.91,-5.03,-5.80,-2.42,-2.42,-2.42
36.33,2.49,4.91,2.49,4.91,-4.90,-5.03,-5.73,-2.42,-2.42,-2.42
36.70,2.48,4.90,2.48,4.90,-4.90,-5.03,-5.66,-2.42,-2.42,-2.42
37.06,2.47,4.89,2.47,4.89,-4.89,-5.02,-5.59,-2.42,-2.42,-2.42
37.43,2.46,4.88,2.46,4.88,-4.88,-5.02,-5.52,-2.43,-2.43,-2.42
37.81,2.45,4.88,2.45,4.88,-4.88,-5.01,-5.45,-2.43,-2.43,-2.43
38.19,2.44,4.87,2.44,4.87,-4.87,-5.01,-5.38,-2.44,-2.44,-2.43
38.57,2.43,4.87,2.42,4.87,-4.87,-5.00,-5.32,-2.44,-2.44,-2.44
38.95,2.42,4.86,2.42,4.86,-4.86,-5.00,-5.25,-2.45,-2.45,-2.44
39.34,2.41,4.86,2.41,4.86,-4.86,-4.99,-5.18,-2.45,-2.45,-2.45
39.74,2.41,4.86,2.40,4.86,-4.85,-4.99,-5.12,-2.45,-2.45,-2.45
40.14,2.40,4.85,2.39,4.85,-4.85,-4.98,-5.06,-2.45,-2.45,-2.45
40.54,2.39,4.85,2.39,4.85,-4.84,-4.98,-5.01,-2.46,-2.46,-2.46
40.94,2.38,4.84,2.37,4.84,-4.83,-4.97,-4.95,-2.46,-2.46,-2.46
41.35,2.37,4.83,2.37,4.83,-4.83,-4.97,-4.90,-2.46,-2.46,-2.46
41.76,2.36,4.82,2.36,4.82,-4.82,-4.96,-4.85,-2.46,-2.46,-2.46
42.18,2.36,4.81,2.35,4.81,-4.81,-4.95,-4.81,-2.46,-2.46,-2.45
42.60,2.35,4.80,2.35,4.80,-4.80,-4.95,-4.77,-2.46,-2.46,-2.45
43.03,2.35,4.80,2.35,4.80,-4.80,-4.94,-4.73,-2.45,-2.45,-2.45
43.46,2.35,4.80,2.34,4.80,-4.80,-4.94,-4.70,-2.45,-2.45,-2.45
43.90,2.35,4.80,2.35,4.80,-4.79,-4.93,-4.67,-2.45,-2.45,-2.45
44.33,2.35,4.79,2.35,4.79,-4.80,-4.92,-4.64,-2.45,-2.45,-2.44
44.78,2.36,4.80,2.35,4.80,-4.80,-4.92,-4.61,-2.44,-2.45,-2.44
45.23,2.36,4.80,2.36,4.80,-4.80,-4.91,-4.59,-2.45,-2.45,-2.44
45.68,2.37,4.81,2.36,4.81,-4.81,-4.91,-4.58,-2.44,-2.44,-2.44
46.13,2.37,4.81,2.37,4.81,-4.81,-4.90,-4.57,-2.45,-2.44,-2.44
46.60,2.38,4.83,2.37,4.82,-4.82,-4.89,-4.56,-2.44,-2.45,-2.45
47.06,2.38,4.83,2.37,4.83,-4.82,-4.89,-4.55,-2.45,-2.45,-2.45
47.53,2.38,4.83,2.38,4.83,-4.83,-4.88,-4.55,-2.45,-2.45,-2.45
48.01,2.38,4.83,2.38,4.83,-4.83,-4.87,-4.55,-2.46,-2.46,-2.45
48.49,2.38,4.84,2.37,4.83,-4.84,-4.86,-4.55,-2.46,-2.46,-2.46
48.97,2.38,4.84,2.38,4.84,-4.84,-4.86,-4.56,-2.46,-2.46,-2.46
49.46,2.38,4.84,2.38,4.84,-4.84,-4.85,-4.56,-2.47,-2.46,-2.46
49.96,2.39,4.85,2.38,4.84,-4.84,-4.84,-4.58,-2.46,-2.46,-2.46
50.46,2.39,4.84,2.39,4.84,-4.84,-4.84,-4.59,-2.46,-2.46,-2.45
50.96,2.40,4.85,2.39,4.85,-4.84,-4.83,-4.61,-2.45,-2.45,-2.45
51.47,2.40,4.85,2.39,4.85,-4.84,-4.82,-4.62,-2.45,-2.45,-2.45
51.99,2.40,4.85,2.39,4.84,-4.84,-4.81,-4.64,-2.45,-2.45,-2.45
52.51,2.39,4.83,2.39,4.83,-4.84,-4.81,-4.66,-2.45,-2.45,-2.44
53.03,2.39,4.83,2.38,4.83,-4.83,-4.80,-4.69,-2.45,-2.45,-2.44
53.56,2.38,4.82,2.38,4.82,-4.82,-4.79,-4.71,-2.45,-2.44,-2.44
54.10,2.38,4.82,2.37,4.81,-4.81,-4.78,-4.73,-2.44,-2.44,-2.44
54.64,2.37,4.81,2.36,4.80,-4.80,-4.78,-4.75,-2.43,-2.44,-2.44
55.18,2.35,4.78,2.35,4.79,-4.78,-4.77,-4.78,-2.44,-2.43,-2.43
55.74,2.34,4.77,2.33,4.77,-4.77,-4.76,-4.80,-2.43,-2.43,-2.43
56.29,2.32,4.75,2.32,4.74,-4.75,-4.75,-4.82,-2.43,-2.43,-2.43
56.86,2.30,4.72,2.30,4.73,-4.73,-4.74,-4.84,-2.43,-2.43,-2.42
57.42,2.29,4.71,2.28,4.71,-4.71,-4.73,-4.86,-2.42,-2.43,-2.42
58.00,2.27,4.69,2.26,4.69,-4.69,-4.73,-4.88,-2.42,-2.42,-2.42
58.58,2.25,4.67,2.25,4.67,-4.66,-4.72,-4.89,-2.42,-2.42,-2.42
59.16,2.23,4.64,2.23,4.64,-4.64,-4.71,-4.90,-2.41,-2.41,-2.41
59.76,2.21,4.62,2.20,4.62,-4.61,-4.70,-4.91,-2.41,-2.41,-2.41
60.35,2.19,4.60,2.18,4.59,-4.59,-4.69,-4.91,-2.41,-2.41,-2.41
60.96,2.16,4.56,2.16,4.56,-4.57,-4.68,-4.92,-2.41,-2.41,-2.40
61.57,2.14,4.54,2.14,4.54,-4.54,-4.67,-4.91,-2.41,-2.41,-2.40
62.18,2.12,4.52,2.12,4.52,-4.52,-4.67,-4.91,-2.41,-2.41,-2.40
62.80,2.11,4.51,2.10,4.50,-4.50,-4.66,-4.90,-2.40,-2.40,-2.40
63.43,2.09,4.49,2.08,4.49,-4.49,-4.65,-4.88,-2.40,-2.40,-2.40
64.07,2.07,4.47,2.07,4.47,-4.47,-4.64,-4.87,-2.40,-2.40,-2.40
64.71,2.06,4.46,2.05,4.46,-4.46,-4.63,-4.85,-2.40,-2.40,-2.40
65.35,2.05,4.45,2.04,4.45,-4.45,-4.62,-4.82,-2.40,-2.40,-2.40
66.01,2.04,4.44,2.03,4.44,-4.44,-4.61,-4.80,-2.40,-2.40,-2.40
66.67,2.03,4.43,2.03,4.43,-4.43,-4.60,-4.76,-2.41,-2.41,-2.40
67.33,2.03,4.43,2.02,4.43,-4.43,-4.59,-4.73,-2.41,-2.41,-2.40
68.01,2.03,4.43,2.02,4.43,-4.43,-4.58,-4.69,-2.41,-2.41,-2.40
68.69,2.03,4.43,2.03,4.43,-4.43,-4.57,-4.66,-2.41,-2.41,-2.40
69.37,2.04,4.44,2.04,4.44,-4.44,-4.56,-4.62,-2.40,-2.40,-2.40
70.07,2.05,4.45,2.04,4.45,-4.44,-4.55,-4.57,-2.39,-2.40,-2.40
70.77,2.05,4.45,2.05,4.45,-4.44,-4.54,-4.53,-2.40,-2.40,-2.40
71.48,2.05,4.45,2.05,4.45,-4.44,-4.54,-4.49,-2.40,-2.40,-2.40
72.19,2.05,4.44,2.05,4.44,-4.44,-4.53,-4.44,-2.40,-2.40,-2.39
72.91,2.05,4.44,2.05,4.44,-4.44,-4.52,-4.40,-2.40,-2.40,-2.39
73.64,2.05,4.44,2.05,4.43,-4.44,-4.51,-4.35,-2.39,-2.39,-2.39
74.38,2.05,4.43,2.05,4.43,-4.43,-4.50,-4.31,-2.39,-2.39,-2.38
75.12,2.05,4.43,2.05,4.43,-4.43,-4.49,-4.27,-2.38,-2.38,-2.38
75.87,2.05,4.43,2.05,4.42,-4.42,-4.48,-4.22,-2.38,-2.38,-2.38
76.63,2.05,4.42,2.05,4.42,-4.42,-4.47,-4.18,-2.37,-2.37,-2.37
77.40,2.05,4.42,2.05,4.42,-4.41,-4.46,-4.14,-2.37,-2.37,-2.37
78.17,2.05,4.41,2.05,4.41,-4.41,-4.45,-4.10,-2.37,-2.37,-2.36
78.95,2.05,4.41,2.05,4.41,-4.41,-4.44,-4.07,-2.36,-2.36,-2.36
79.74,2.05,4.41,2.05,4.40,-4.41,-4.43,-4.03,-2.36,-2.36,-2.36
80.54,2.05,4.40,2.04,4.40,-4.40,-4.42,-4.00,-2.36,-2.36,-2.35
81.35,2.05,4.40,2.04,4.40,-4.41,-4.41,-3.97,-2.36,-2.36,-2.35
82.16,2.05,4.40,2.05,4.40,-4.41,-4.40,-3.94,-2.36,-2.36,-2.35
82.98,2.06,4.41,2.06,4.41,-4.41,-4.39,-3.92,-2.36,-2.36,-2.35
83.81,2.07,4.42,2.06,4.41,-4.41,-4.38,-3.89,-2.35,-2.35,-2.35
84.65,2.07,4.42,2.07,4.42,-4.41,-4.37,-3.87,-2.35,-2.35,-2.35
85.50,2.07,4.41,2.07,4.41,-4.41,-4.36,-3.86,-2.34,-2.34,-2.34
86.35,2.07,4.41,2.06,4.41,-4.40,-4.35,-3.84,-2.34,-2.34,-2.34
87.22,2.06,4.40,2.05,4.39,-4.39,-4.34,-3.83,-2.34,-2.34,-2.34
88.09,2.04,4.38,2.03,4.38,-4.37,-4.33,-3.82,-2.34,-2.34,-2.34
88.97,2.01,4.35,2.01,4.35,-4.35,-4.32,-3.82,-2.35,-2.34,-2.34
89.86,1.99,4.33,1.99,4.33,-4.33,-4.31,-3.82,-2.34,-2.34,-2.34
90.76,1.97,4.31,1.96,4.30,-4.30,-4.30,-3.82,-2.34,-2.34,-2.34
91.66,1.93,4.27,1.93,4.27,-4.27,-4.29,-3.82,-2.35,-2.34,-2.34
92.58,1.90,4.24,1.90,4.24,-4.24,-4.28,-3.82,-2.34,-2.34,-2.34
93.51,1.87,4.21,1.86,4.21,-4.21,-4.27,-3.83,-2.34,-2.34,-2.34
94.44,1.84,4.18,1.84,4.18,-4.17,-4.26,-3.84,-2.34,-2.34,-2.34
95.39,1.81,4.15,1.80,4.15,-4.14,-4.25,-3.86,-2.34,-2.34,-2.34
96.34,1.78,4.12,1.77,4.11,-4.11,-4.24,-3.87,-2.34,-2.34,-2.34
97.30,1.75,4.08,1.75,4.08,-4.09,-4.23,-3.89,-2.34,-2.34,-2.33
98.28,1.73,4.06,1.73,4.06,-4.07,-4.22,-3.91,-2.34,-2.34,-2.33
99.26,1.72,4.05,1.71,4.04,-4.05,-4.21,-3.94,-2.34,-2.34,-2.33
100.25,1.71,4.04,1.70,4.04,-4.04,-4.20,-3.96,-2.34,-2.34,-2.33
101.25,1.70,4.03,1.70,4.04,-4.04,-4.19,-3.99,-2.34,-2.33,-2.33
102.27,1.71,4.04,1.70,4.04,-4.03,-4.18,-4.02,-2.33,-2.33,-2.33
103.29,1.72,4.05,1.71,4.04,-4.04,-4.17,-4.04,-2.32,-2.33,-2.33
104.32,1.72,4.04,1.72,4.04,-4.04,-4.16,-4.07,-2.32,-2.32,-2.32
105.37,1.72,4.04,1.72,4.04,-4.04,-4.15,-4.11,-2.32,-2.32,-2.32
106.42,1.73,4.05,1.72,4.04,-4.04,-4.14,-4.14,-2.32,-2.32,-2.32
107.48,1.73,4.04,1.72,4.04,-4.04,-4.13,-4.17,-2.31,-2.32,-2.31
108.56,1.73,4.04,1.73,4.04,-4.04,-4.12,-4.20,-2.31,-2.31,-2.31
109.64,1.73,4.04,1.73,4.04,-4.04,-4.11,-4.23,-2.31,-2.31,-2.31
110.74,1.73,4.04,1.73,4.04,-4.04,-4.10,-4.26,-2.31,-2.31,-2.31
111.85,1.73,4.03,1.73,4.03,-4.03,-4.09,-4.29,-2.31,-2.31,-2.30
112.97,1.73,4.03,1.73,4.03,-4.03,-4.08,-4.32,-2.31,-2.31,-2.30
114.10,1.73,4.03,1.73,4.03,-4.03,-4.07,-4.35,-2.30,-2.30,-2.30
115.24,1.73,4.03,1.73,4.03,-4.03,-4.06,-4.37,-2.30,-2.30,-2.30
116.39,1.73,4.03,1.73,4.03,-4.02,-4.05,-4.39,-2.30,-2.30,-2.30
117.55,1.73,4.02,1.73,4.02,-4.02,-4.04,-4.41,-2.30,-2.30,-2.29
118.73,1.73,4.02,1.73,4.02,-4.02,-4.03,-4.43,-2.29,-2.29,-2.29
119.92,1.73,4.02,1.73,4.02,-4.01,-4.02,-4.44,-2.29,-2.29,-2.29
121.12,1.73,4.01,1.73,4.01,-4.01,-4.01,-4.45,-2.29,-2.29,-2.28
122.33,1.73,4.01,1.73,4.01,-4.01,-4.00,-4.45,-2.28,-2.28,-2.28
123.55,1.73,4.00,1.73,4.00,-4.00,-3.99,-4.45,-2.28,-2.28,-2.27
124.79,1.73,4.00,1.73,4.00,-4.00,-3.98,-4.45,-2.27,-2.27,-2.27
126.03,1.73,4.00,1.73,3.99,-3.99,-3.97,-4.44,-2.27,-2.27,-2.27
127.29,1.73,3.99,1.73,3.99,-3.99,-3.96,-4.43,-2.26,-2.26,-2.26
128.57,1.73,3.99,1.73,3.99,-3.99,-3.95,-4.42,-2.26,-2.26,-2.26
129.85,1.73,3.98,1.73,3.98,-3.98,-3.95,-4.40,-2.26,-2.26,-2.25
131.15,1.73,3.98,1.73,3.98,-3.98,-3.94,-4.38,-2.26,-2.26,-2.25
132.46,1.73,3.98,1.73,3.98,-3.98,-3.93,-4.35,-2.25,-2.25,-2.25
133.79,1.73,3.98,1.73,3.98,-3.98,-3.92,-4.32,-2.25,-2.25,-2.25
135.12,1.73,3.98,1.73,3.98,-3.98,-3.91,-4.29,-2.25,-2.25,-2.25
136.48,1.73,3.98,1.73,3.98,-3.97,-3.90,-4.26,-2.25,-2.25,-2.25
137.84,1.73,3.97,1.73,3.97,-3.97,-3.89,-4.22,-2.25,-2.25,-2.24
139.22,1.73,3.97,1.73,3.97,-3.97,-3.88,-4.18,-2.25,-2.25,-2.24
140.61,1.73,3.97,1.73,3.97,-3.97,-3.87,-4.14,-2.24,-2.24,-2.24
142.02,1.73,3.97,1.73,3.97,-3.97,-3.86,-4.10,-2.24,-2.24,-2.24
143.44,1.73,3.97,1.73,3.97,-3.96,-3.85,-4.06,-2.24,-2.24,-2.24
144.87,1.73,3.96,1.73,3.96,-3.96,-3.85,-4.01,-2.24,-2.24,-2.23
146.32,1.73,3.96,1.73,3.96,-3.96,-3.84,-3.97,-2.23,-2.23,-2.23
147.78,1.73,3.96,1.73,3.95,-3.96,-3.83,-3.93,-2.23,-2.23,-2.23
149.26,1.73,3.95,1.73,3.95,-3.95,-3.82,-3.88,-2.23,-2.23,-2.22
150.75,1.73,3.95,1.73,3.95,-3.95,-3.81,-3.84,-2.22,-2.22,-2.22
152.26,1.73,3.95,1.73,3.94,-3.94,-3.80,-3.80,-2.22,-2.22,-2.22
153.78,1.73,3.94,1.73,3.94,-3.94,-3.79,-3.76,-2.22,-2.22,-2.21
155.32,1.73,3.94,1.73,3.94,-3.94,-3.78,-3.72,-2.21,-2.21,-2.21
156.88,1.73,3.94,1.73,3.93,-3.94,-3.77,-3.68,-2.21,-2.21,-2.21
158.44,1.73,3.93,1.73,3.93,-3.93,-3.77,-3.64,-2.21,-2.21,-2.20
160.03,1.73,3.93,1.73,3.93,-3.93,-3.76,-3.61,-2.21,-2.21,-2.20
161.63,1.73,3.93,1.73,3.93,-3.93,-3.75,-3.57,-2.20,-2.20,-2.20
163.24,1.73,3.93,1.73,3.93,-3.92,-3.74,-3.54,-2.20,-2.20,-2.20
164.88,1.73,3.93,1.73,3.93,-3.92,-3.73,-3.51,-2.20,-2.20,-2.20
166.53,1.73,3.92,1.73,3.92,-3.92,-3.72,-3.49,-2.19,-2.19,-2.19
168.19,1.73,3.92,1.73,3.92,-3.92,-3.71,-3.46,-2.19,-2.19,-2.19
169.87,1.73,3.92,1.72,3.91,-3.92,-3.70,-3.44,-2.19,-2.19,-2.19
171.57,1.73,3.91,1.72,3.91,-3.92,-3.69,-3.42,-2.19,-2.19,-2.18
173.29,1.73,3.91,1.73,3.91,-3.92,-3.69,-3.40,-2.19,-2.19,-2.18
175.02,1.74,3.92,1.74,3.92,-3.92,-3.68,-3.39,-2.18,-2.18,-2.18
176.77,1.75,3.93,1.74,3.92,-3.92,-3.67,-3.38,-2.17,-2.17,-2.18
178.54,1.75,3.92,1.74,3.92,-3.91,-3.66,-3.37,-2.17,-2.17,-2.17
180.32,1.74,3.91,1.74,3.91,-3.91,-3.65,-3.36,-2.17,-2.17,-2.17
182.13,1.73,3.90,1.72,3.90,-3.90,-3.64,-3.36,-2.17,-2.17,-2.17
183.95,1.71,3.88,1.70,3.88,-3.88,-3.63,-3.36,-2.17,-2.18,-2.17
185.79,1.68,3.86,1.68,3.86,-3.86,-3.62,-3.36,-2.18,-2.18,-2.18
187.65,1.66,3.84,1.65,3.84,-3.83,-3.61,-3.36,-2.18,-2.18,-2.18
189.52,1.63,3.81,1.62,3.81,-3.80,-3.60,-3.37,-2.18,-2.18,-2.18
191.42,1.60,3.78,1.59,3.77,-3.77,-3.59,-3.37,-2.18,-2.18,-2.18
193.33,1.56,3.73,1.56,3.74,-3.74,-3.59,-3.38,-2.18,-2.18,-2.17
195.27,1.53,3.70,1.53,3.70,-3.70,-3.58,-3.40,-2.18,-2.18,-2.17
197.22,1.50,3.67,1.49,3.67,-3.67,-3.57,-3.41,-2.17,-2.17,-2.17
199.19,1.47,3.64,1.46,3.63,-3.63,-3.56,-3.43,-2.17,-2.17,-2.17
201.18,1.44,3.60,1.44,3.61,-3.60,-3.55,-3.44,-2.17,-2.17,-2.16
203.19,1.42,3.58,1.41,3.58,-3.58,-3.54,-3.46,-2.16,-2.17,-2.16
205.23,1.40,3.56,1.39,3.55,-3.56,-3.53,-3.48,-2.17,-2.17,-2.16
207.28,1.38,3.53,1.38,3.54,-3.55,-3.52,-3.50,-2.17,-2.17,-2.15
209.35,1.38,3.53,1.38,3.53,-3.54,-3.51,-3.52,-2.16,-2.16,-2.15
211.44,1.39,3.54,1.38,3.53,-3.53,-3.50,-3.55,-2.15,-2.15,-2.15
213.56,1.39,3.53,1.39,3.53,-3.53,-3.49,-3.57,-2.14,-2.14,-2.14
215.69,1.40,3.54,1.39,3.54,-3.53,-3.48,-3.59,-2.13,-2.14,-2.14
217.85,1.40,3.54,1.39,3.54,-3.53,-3.47,-3.62,-2.14,-2.14,-2.14
220.03,1.40,3.54,1.40,3.54,-3.53,-3.46,-3.64,-2.14,-2.14,-2.14
222.23,1.40,3.53,1.40,3.53,-3.53,-3.45,-3.66,-2.14,-2.14,-2.13
224.45,1.40,3.53,1.40,3.53,-3.53,-3.44,-3.68,-2.14,-2.14,-2.13
226.70,1.40,3.53,1.39,3.53,-3.53,-3.43,-3.70,-2.13,-2.14,-2.13
228.96,1.40,3.53,1.40,3.53,-3.53,-3.42,-3.71,-2.13,-2.13,-2.13
231.25,1.40,3.52,1.40,3.52,-3.53,-3.41,-3.73,-2.13,-2.13,-2.12
233.57,1.41,3.53,1.40,3.52,-3.53,-3.40,-3.74,-2.12,-2.13,-2.12
235.90,1.41,3.52,1.41,3.53,-3.53,-3.39,-3.75,-2.12,-2.12,-2.11
238.26,1.42,3.53,1.42,3.53,-3.52,-3.38,-3.76,-2.11,-2.11,-2.11
240.64,1.43,3.53,1.42,3.52,-3.52,-3.37,-3.76,-2.09,-2.10,-2.10
243.05,1.42,3.51,1.42,3.51,-3.50,-3.36,-3.76,-2.09,-2.09,-2.09
245.48,1.41,3.50,1.41,3.49,-3.49,-3.34,-3.76,-2.08,-2.08,-2.09
247.93,1.39,3.47,1.39,3.47,-3.47,-3.33,-3.75,-2.08,-2.08,-2.08
250.41,1.37,3.44,1.36,3.44,-3.44,-3.32,-3.74,-2.07,-2.08,-2.07
252.92,1.34,3.40,1.34,3.41,-3.41,-3.31,-3.73,-2.07,-2.07,-2.06
255.45,1.32,3.38,1.31,3.37,-3.37,-3.30,-3.71,-2.06,-2.06,-2.06
258.00,1.29,3.34,1.28,3.34,-3.33,-3.29,-3.69,-2.05,-2.05,-2.05
260.58,1.25,3.30,1.25,3.30,-3.29,-3.28,-3.67,-2.05,-2.05,-2.05
263.19,1.22,3.26,1.21,3.25,-3.26,-3.26,-3.64,-2.04,-2.05,-2.04
265.82,1.17,3.21,1.18,3.22,-3.22,-3.25,-3.61,-2.05,-2.04,-2.04
268.48,1.15,3.18,1.14,3.18,-3.18,-3.24,-3.58,-2.04,-2.04,-2.03
271.16,1.13,3.16,1.11,3.15,-3.15,-3.23,-3.54,-2.02,-2.03,-2.03
273.87,1.09,3.12,1.09,3.12,-3.12,-3.22,-3.51,-2.04,-2.03,-2.03
276.61,1.07,3.09,1.07,3.09,-3.10,-3.20,-3.47,-2.03,-2.03,-2.02
279.38,1.06,3.08,1.05,3.08,-3.08,-3.19,-3.42,-2.03,-2.03,-2.02
282.17,1.05,3.07,1.05,3.07,-3.08,-3.18,-3.38,-2.03,-2.03,-2.02
284.99,1.06,3.07,1.05,3.07,-3.07,-3.17,-3.33,-2.02,-2.02,-2.01
287.84,1.07,3.08,1.06,3.07,-3.08,-3.15,-3.29,-2.01,-2.02,-2.01
290.72,1.07,3.08,1.07,3.08,-3.08,-3.14,-3.24,-2.02,-2.01,-2.01
293.63,1.08,3.09,1.08,3.09,-3.09,-3.13,-3.19,-2.01,-2.01,-2.01
296.57,1.09,3.10,1.08,3.10,-3.09,-3.11,-3.15,-2.01,-2.01,-2.01
299.53,1.10,3.11,1.09,3.10,-3.10,-3.10,-3.10,-2.00,-2.00,-2.01
302.53,1.10,3.10,1.10,3.10,-3.10,-3.09,-3.05,-2.00,-2.00,-2.00
305.55,1.10,3.10,1.09,3.09,-3.09,-3.07,-3.01,-1.99,-2.00,-2.00
308.61,1.09,3.08,1.08,3.08,-3.08,-3.06,-2.96,-1.99,-1.99,-1.99
311.69,1.07,3.06,1.07,3.06,-3.06,-3.05,-2.91,-1.99,-1.99,-1.99
314.81,1.06,3.04,1.05,3.03,-3.03,-3.03,-2.87,-1.98,-1.98,-1.98
317.96,1.03,3.01,1.03,3.01,-3.01,-3.02,-2.83,-1.98,-1.98,-1.98
321.14,1.00,2.97,1.00,2.97,-2.97,-3.00,-2.78,-1.98,-1.98,-1.97
324.35,0.97,2.94,0.96,2.93,-2.94,-2.99,-2.74,-1.97,-1.97,-1.97
327.59,0.93,2.90,0.93,2.90,-2.90,-2.97,-2.71,-1.97,-1.97,-1.97
330.87,0.90,2.86,0.90,2.86,-2.86,-2.96,-2.67,-1.96,-1.96,-1.96
334.18,0.87,2.83,0.86,2.82,-2.82,-2.94,-2.63,-1.95,-1.96,-1.96
337.52,0.83,2.78,0.83,2.78,-2.78,-2.93,-2.60,-1.96,-1.95,-1.95
340.90,0.80,2.74,0.80,2.74,-2.75,-2.91,-2.57,-1.95,-1.95,-1.94
344.30,0.77,2.71,0.77,2.71,-2.72,-2.90,-2.54,-1.95,-1.95,-1.94
347.75,0.76,2.70,0.75,2.69,-2.70,-2.88,-2.51,-1.94,-1.95,-1.94
351.23,0.74,2.68,0.74,2.68,-2.68,-2.87,-2.48,-1.95,-1.95,-1.94
354.74,0.73,2.66,0.73,2.66,-2.67,-2.85,-2.45,-1.95,-1.94,-1.93
358.28,0.73,2.66,0.73,2.66,-2.67,-2.84,-2.43,-1.94,-1.94,-1.93
361.87,0.74,2.67,0.73,2.67,-2.66,-2.82,-2.41,-1.93,-1.93,-1.93
365.49,0.75,2.68,0.74,2.68,-2.67,-2.81,-2.39,-1.92,-1.92,-1.93
369.14,0.75,2.68,0.75,2.68,-2.67,-2.79,-2.37,-1.92,-1.92,-1.93
372.83,0.75,2.68,0.75,2.68,-2.67,-2.77,-2.36,-1.92,-1.92,-1.93
376.56,0.75,2.67,0.74,2.67,-2.67,-2.76,-2.34,-1.93,-1.93,-1.92
380.33,0.75,2.67,0.74,2.67,-2.68,-2.74,-2.33,-1.93,-1.93,-1.92
384.13,0.75,2.67,0.75,2.67,-2.68,-2.73,-2.32,-1.93,-1.93,-1.92
387.97,0.76,2.68,0.76,2.68,-2.68,-2.71,-2.31,-1.93,-1.93,-1.92
391.85,0.77,2.68,0.77,2.68,-2.68,-2.69,-2.30,-1.91,-1.91,-1.91
395.77,0.78,2.69,0.77,2.68,-2.68,-2.68,-2.30,-1.90,-1.90,-1.91
399.73,0.78,2.68,0.77,2.68,-2.67,-2.66,-2.29,-1.90,-1.90,-1.90
403.72,0.77,2.67,0.77,2.67,-2.66,-2.64,-2.29,-1.90,-1.89,-1.90
407.76,0.76,2.65,0.75,2.65,-2.65,-2.63,-2.29,-1.89,-1.89,-1.89
411.84,0.74,2.63,0.74,2.63,-2.62,-2.61,-2.29,-1.89,-1.89,-1.89
415.96,0.72,2.60,0.71,2.60,-2.60,-2.59,-2.29,-1.88,-1.88,-1.88
420.12,0.69,2.57,0.69,2.57,-2.57,-2.57,-2.29,-1.88,-1.88,-1.88
424.32,0.66,2.54,0.65,2.53,-2.53,-2.56,-2.29,-1.88,-1.88,-1.88
428.56,0.62,2.49,0.62,2.49,-2.49,-2.54,-2.29,-1.88,-1.88,-1.87
432.85,0.59,2.46,0.58,2.46,-2.46,-2.52,-2.29,-1.87,-1.87,-1.87
437.18,0.55,2.42,0.55,2.42,-2.42,-2.50,-2.29,-1.87,-1.87,-1.87
441.55,0.52,2.39,0.51,2.39,-2.39,-2.49,-2.30,-1.87,-1.87,-1.87
445.96,0.49,2.36,0.48,2.35,-2.36,-2.47,-2.30,-1.87,-1.88,-1.87
450.42,0.45,2.32,0.45,2.32,-2.33,-2.45,-2.30,-1.89,-1.88,-1.87
454.93,0.43,2.30,0.43,2.30,-2.32,-2.43,-2.30,-1.89,-1.89,-1.87
459.48,0.42,2.29,0.42,2.29,-2.31,-2.42,-2.30,-1.89,-1.89,-1.87
464.07,0.43,2.30,0.42,2.30,-2.30,-2.40,-2.30,-1.87,-1.88,-1.87
468.71,0.43,2.30,0.43,2.30,-2.29,-2.38,-2.30,-1.87,-1.87,-1.87
