frequency,raw,error,smoothed,error_smoothed,equalization,parametric_eq,fixed_band_eq,equalized_raw,equalized_smoothed,target
20.00,1.65,0.91,1.64,0.91,-0.92,-1.05,-0.82,0.73,0.73,0.74
20.20,1.68,0.90,1.68,0.90,-0.91,-1.07,-0.84,0.77,0.78,0.78
20.40,1.72,0.90,1.72,0.90,-0.90,-1.08,-0.86,0.82,0.82,0.82
20.61,1.75,0.91,1.75,0.90,-0.89,-1.10,-0.89,0.85,0.86,0.84
20.81,1.79,0.91,1.79,0.91,-0.89,-1.12,-0.91,0.89,0.89,0.88
21.02,1.82,0.90,1.82,0.91,-0.90,-1.14,-0.94,0.92,0.92,0.92
21.23,1.85,0.92,1.84,0.91,-0.91,-1.16,-0.96,0.94,0.94,0.93
21.44,1.87,0.92,1.87,0.92,-0.92,-1.17,-0.99,0.95,0.95,0.95
21.66,1.89,0.93,1.89,0.94,-0.94,-1.19,-1.01,0.95,0.95,0.96
21.87,1.92,0.96,1.92,0.95,-0.96,-1.21,-1.04,0.96,0.96,0.96
22.09,1.95,0.98,1.95,0.98,-0.98,-1.23,-1.07,0.97,0.96,0.97
22.31,1.98,1.01,1.98,1.01,-1.02,-1.25,-1.10,0.96,0.96,0.97
22.54,2.02,1.05,2.01,1.05,-1.06,-1.27,-1.13,0.96,0.95,0.97
22.76,2.06,1.10,2.05,1.10,-1.11,-1.29,-1.16,0.95,0.94,0.96
22.99,2.10,1.15,2.10,1.15,-1.17,-1.31,-1.19,0.93,0.94,0.95
23.22,2.16,1.21,2.16,1.21,-1.22,-1.33,-1.22,0.93,0.93,0.95
23.45,2.22,1.28,2.22,1.28,-1.28,-1.35,-1.25,0.94,0.94,0.93
23.69,2.29,1.35,2.29,1.35,-1.33,-1.38,-1.29,0.96,0.96,0.93
23.92,2.35,1.41,2.34,1.40,-1.37,-1.40,-1.32,0.97,0.96,0.93
24.16,2.38,1.43,2.37,1.43,-1.41,-1.42,-1.36,0.96,0.96,0.94
24.40,2.39,1.44,2.39,1.45,-1.45,-1.44,-1.39,0.94,0.95,0.94
24.65,2.41,1.47,2.40,1.47,-1.48,-1.46,-1.43,0.93,0.93,0.93
24.89,2.42,1.48,2.42,1.49,-1.50,-1.49,-1.46,0.92,0.92,0.93
25.14,2.44,1.51,2.44,1.51,-1.52,-1.51,-1.50,0.91,0.92,0.93
25.39,2.47,1.54,2.47,1.54,-1.55,-1.53,-1.53,0.92,0.92,0.93
25.65,2.50,1.58,2.49,1.57,-1.58,-1.55,-1.57,0.92,0.92,0.92
25.91,2.52,1.61,2.52,1.61,-1.60,-1.58,-1.61,0.91,0.92,0.91
26.16,2.55,1.64,2.54,1.63,-1.63,-1.60,-1.64,0.92,0.91,0.91
26.43,2.57,1.66,2.57,1.66,-1.65,-1.62,-1.68,0.91,0.92,0.91
26.69,2.59,1.68,2.59,1.69,-1.67,-1.65,-1.72,0.92,0.92,0.91
26.96,2.62,1.72,2.61,1.71,-1.69,-1.67,-1.75,0.93,0.92,0.90
27.23,2.62,1.72,2.61,1.72,-1.71,-1.70,-1.79,0.91,0.91,0.90
27.50,2.61,1.71,2.61,1.71,-1.73,-1.72,-1.82,0.88,0.88,0.90
27.77,2.61,1.72,2.61,1.72,-1.76,-1.75,-1.86,0.85,0.85,0.89
28.05,2.62,1.73,2.63,1.75,-1.79,-1.77,-1.89,0.83,0.84,0.88
28.33,2.68,1.80,2.68,1.80,-1.81,-1.80,-1.92,0.87,0.87,0.87
28.62,2.74,1.86,2.74,1.86,-1.84,-1.82,-1.95,0.90,0.90,0.87
28.90,2.80,1.92,2.79,1.91,-1.86,-1.85,-1.98,0.93,0.92,0.87
29.19,2.82,1.95,2.81,1.93,-1.90,-1.87,-2.01,0.92,0.91,0.87
29.48,2.81,1.93,2.81,1.93,-1.93,-1.90,-2.04,0.87,0.87,0.88
29.78,2.80,1.93,2.81,1.93,-1.97,-1.93,-2.07,0.83,0.83,0.87
30.08,2.82,1.94,2.83,1.96,-2.01,-1.95,-2.09,0.81,0.82,0.88
30.38,2.88,2.02,2.88,2.02,-2.04,-1.98,-2.11,0.84,0.84,0.86
30.68,2.94,2.08,2.93,2.08,-2.07,-2.01,-2.13,0.87,0.87,0.86
30.99,3.00,2.15,2.98,2.13,-2.10,-2.03,-2.15,0.90,0.88,0.85
31.30,3.00,2.15,3.00,2.16,-2.13,-2.06,-2.17,0.87,0.88,0.84
31.61,3.01,2.16,3.01,2.17,-2.16,-2.09,-2.18,0.85,0.85,0.84
31.93,3.01,2.19,3.01,2.18,-2.18,-2.11,-2.19,0.83,0.82,0.82
32.24,3.01,2.20,3.01,2.19,-2.20,-2.14,-2.20,0.80,0.80,0.81
32.57,3.01,2.20,3.01,2.20,-2.22,-2.17,-2.21,0.79,0.78,0.81
32.89,3.01,2.21,3.01,2.22,-2.24,-2.19,-2.22,0.77,0.77,0.80
33.22,3.03,2.25,3.03,2.25,-2.26,-2.22,-2.23,0.77,0.78,0.78
33.55,3.06,2.28,3.06,2.29,-2.28,-2.25,-2.23,0.78,0.78,0.77
33.89,3.09,2.33,3.08,2.32,-2.31,-2.28,-2.24,0.78,0.77,0.75
34.23,3.10,2.35,3.09,2.35,-2.34,-2.30,-2.24,0.76,0.75,0.75
34.57,3.10,2.37,3.10,2.36,-2.37,-2.33,-2.24,0.72,0.72,0.73
34.92,3.10,2.38,3.10,2.38,-2.41,-2.36,-2.24,0.69,0.70,0.72
35.27,3.13,2.41,3.13,2.43,-2.43,-2.39,-2.24,0.69,0.70,0.72
35.62,3.17,2.47,3.17,2.47,-2.46,-2.42,-2.25,0.71,0.71,0.69
35.97,3.22,2.54,3.20,2.51,-2.49,-2.44,-2.25,0.73,0.71,0.68
36.33,3.21,2.53,3.20,2.53,-2.51,-2.47,-2.25,0.69,0.69,0.68
36.70,3.19,2.52,3.20,2.53,-2.54,-2.50,-2.25,0.65,0.65,0.67
37.06,3.19,2.53,3.20,2.54,-2.57,-2.52,-2.25,0.62,0.63,0.65
37.43,3.23,2.57,3.23,2.58,-2.59,-2.55,-2.25,0.64,0.64,0.66
37.81,3.28,2.63,3.27,2.62,-2.61,-2.58,-2.25,0.67,0.65,0.65
38.19,3.30,2.66,3.29,2.65,-2.63,-2.61,-2.26,0.67,0.66,0.64
38.57,3.30,2.65,3.30,2.66,-2.65,-2.63,-2.26,0.65,0.66,0.64
38.95,3.30,2.67,3.30,2.67,-2.66,-2.66,-2.27,0.64,0.64,0.63
39.34,3.30,2.67,3.30,2.67,-2.67,-2.68,-2.27,0.62,0.62,0.63
39.74,3.30,2.68,3.30,2.68,-2.68,-2.71,-2.28,0.61,0.61,0.61
40.14,3.30,2.69,3.30,2.68,-2.69,-2.74,-2.29,0.61,0.61,0.61
40.54,3.30,2.69,3.30,2.69,-2.69,-2.76,-2.30,0.60,0.60,0.61
40.94,3.30,2.69,3.30,2.70,-2.70,-2.79,-2.31,0.60,0.60,0.60
41.35,3.30,2.71,3.30,2.70,-2.70,-2.81,-2.32,0.60,0.60,0.59
41.76,3.30,2.72,3.30,2.72,-2.71,-2.83,-2.34,0.59,0.59,0.58
42.18,3.30,2.72,3.30,2.73,-2.72,-2.86,-2.36,0.58,0.58,0.57
42.60,3.30,2.74,3.30,2.73,-2.74,-2.88,-2.38,0.56,0.56,0.56
43.03,3.30,2.74,3.29,2.74,-2.76,-2.90,-2.40,0.54,0.54,0.56
43.46,3.30,2.77,3.29,2.76,-2.78,-2.92,-2.42,0.52,0.51,0.53
43.90,3.30,2.79,3.31,2.80,-2.81,-2.94,-2.44,0.49,0.50,0.51
44.33,3.33,2.84,3.33,2.84,-2.84,-2.96,-2.47,0.48,0.49,0.49
44.78,3.37,2.90,3.36,2.89,-2.88,-2.98,-2.50,0.49,0.48,0.47
45.23,3.39,2.93,3.38,2.93,-2.92,-3.00,-2.53,0.47,0.46,0.45
45.68,3.40,2.96,3.40,2.96,-2.96,-3.02,-2.56,0.44,0.44,0.44
46.13,3.41,2.99,3.42,3.00,-3.00,-3.04,-2.59,0.41,0.42,0.42
46.60,3.45,3.03,3.45,3.03,-3.03,-3.05,-2.63,0.42,0.42,0.42
47.06,3.49,3.08,3.47,3.06,-3.06,-3.07,-2.67,0.43,0.42,0.41
47.53,3.49,3.08,3.49,3.08,-3.08,-3.08,-2.71,0.41,0.41,0.40
48.01,3.49,3.09,3.49,3.10,-3.10,-3.09,-2.75,0.39,0.39,0.40
48.49,3.49,3.11,3.49,3.11,-3.11,-3.10,-2.79,0.38,0.38,0.38
48.97,3.49,3.12,3.49,3.12,-3.12,-3.11,-2.83,0.36,0.36,0.36
49.46,3.49,3.13,3.49,3.13,-3.13,-3.12,-2.88,0.36,0.36,0.36
49.96,3.49,3.15,3.49,3.14,-3.14,-3.13,-2.92,0.35,0.35,0.34
50.46,3.49,3.14,3.49,3.14,-3.14,-3.13,-2.97,0.34,0.34,0.35
50.96,3.49,3.14,3.49,3.15,-3.15,-3.14,-3.02,0.34,0.34,0.34
51.47,3.49,3.15,3.49,3.15,-3.15,-3.14,-3.07,0.34,0.34,0.34
51.99,3.49,3.16,3.49,3.16,-3.16,-3.14,-3.12,0.33,0.33,0.33
52.51,3.49,3.16,3.49,3.16,-3.16,-3.14,-3.17,0.33,0.33,0.33
53.03,3.49,3.16,3.49,3.16,-3.16,-3.15,-3.22,0.32,0.32,0.33
53.56,3.49,3.17,3.49,3.17,-3.17,-3.15,-3.27,0.32,0.32,0.32
54.10,3.49,3.18,3.49,3.17,-3.18,-3.14,-3.31,0.31,0.31,0.31
54.64,3.49,3.18,3.49,3.18,-3.19,-3.14,-3.36,0.30,0.30,0.31
55.18,3.49,3.19,3.49,3.19,-3.19,-3.14,-3.41,0.30,0.30,0.30
55.74,3.49,3.20,3.49,3.20,-3.19,-3.14,-3.46,0.30,0.30,0.29
56.29,3.49,3.20,3.49,3.21,-3.19,-3.14,-3.50,0.30,0.30,0.29
56.86,3.49,3.22,3.48,3.21,-3.19,-3.15,-3.55,0.30,0.29,0.27
57.42,3.46,3.20,3.45,3.20,-3.19,-3.15,-3.59,0.27,0.27,0.25
58.00,3.41,3.17,3.42,3.18,-3.18,-3.15,-3.62,0.22,0.24,0.24
58.58,3.40,3.17,3.40,3.17,-3.19,-3.16,-3.66,0.21,0.21,0.23
59.16,3.39,3.17,3.39,3.17,-3.19,-3.17,-3.69,0.19,0.19,0.22
59.76,3.39,3.20,3.39,3.19,-3.20,-3.18,-3.72,0.18,0.18,0.19
60.35,3.39,3.22,3.39,3.22,-3.22,-3.20,-3.75,0.16,0.16,0.17
60.96,3.39,3.24,3.39,3.25,-3.25,-3.22,-3.77,0.14,0.14,0.14
61.57,3.39,3.29,3.39,3.28,-3.28,-3.24,-3.79,0.11,0.11,0.10
62.18,3.39,3.32,3.39,3.32,-3.32,-3.26,-3.81,0.07,0.07,0.06
62.80,3.39,3.36,3.39,3.36,-3.36,-3.29,-3.82,0.03,0.03,0.03
63.43,3.39,3.40,3.39,3.40,-3.40,-3.32,-3.83,-0.01,-0.01,-0.01
64.07,3.39,3.43,3.39,3.43,-3.44,-3.35,-3.84,-0.05,-0.05,-0.05
64.71,3.39,3.47,3.39,3.47,-3.47,-3.38,-3.84,-0.08,-0.08,-0.08
65.35,3.39,3.50,3.39,3.51,-3.50,-3.42,-3.84,-0.11,-0.11,-0.11
66.01,3.39,3.54,3.39,3.54,-3.52,-3.45,-3.83,-0.13,-0.13,-0.15
66.67,3.39,3.58,3.37,3.56,-3.55,-3.49,-3.82,-0.16,-0.17,-0.19
67.33,3.36,3.58,3.35,3.57,-3.57,-3.53,-3.81,-0.21,-0.22,-0.22
68.01,3.30,3.56,3.32,3.58,-3.60,-3.56,-3.80,-0.30,-0.28,-0.26
68.69,3.30,3.60,3.30,3.60,-3.62,-3.60,-3.79,-0.33,-0.33,-0.30
69.37,3.30,3.64,3.29,3.63,-3.65,-3.63,-3.77,-0.35,-0.36,-0.34
70.07,3.30,3.68,3.30,3.68,-3.67,-3.67,-3.75,-0.37,-0.37,-0.38
70.77,3.30,3.71,3.30,3.72,-3.70,-3.70,-3.73,-0.40,-0.40,-0.42
71.48,3.30,3.76,3.29,3.75,-3.73,-3.73,-3.71,-0.43,-0.44,-0.46
72.19,3.28,3.78,3.26,3.76,-3.76,-3.76,-3.69,-0.48,-0.50,-0.50
72.91,3.21,3.76,3.23,3.78,-3.79,-3.79,-3.67,-0.59,-0.57,-0.56
73.64,3.20,3.80,3.20,3.80,-3.83,-3.82,-3.65,-0.63,-0.63,-0.60
74.38,3.20,3.84,3.19,3.84,-3.86,-3.85,-3.63,-0.66,-0.67,-0.65
75.12,3.20,3.89,3.20,3.89,-3.89,-3.87,-3.61,-0.69,-0.69,-0.69
75.87,3.20,3.93,3.20,3.93,-3.92,-3.89,-3.59,-0.72,-0.72,-0.73
76.63,3.20,3.96,3.20,3.97,-3.95,-3.91,-3.57,-0.75,-0.75,-0.77
77.40,3.20,4.00,3.19,4.00,-3.98,-3.93,-3.55,-0.78,-0.78,-0.80
78.17,3.19,4.03,3.17,4.01,-4.00,-3.95,-3.54,-0.82,-0.83,-0.84
78.95,3.13,4.00,3.14,4.01,-4.02,-3.97,-3.52,-0.89,-0.88,-0.87
79.74,3.11,4.01,3.12,4.02,-4.03,-3.98,-3.51,-0.93,-0.91,-0.90
80.54,3.11,4.04,3.11,4.04,-4.04,-4.00,-3.50,-0.93,-0.93,-0.93
81.35,3.11,4.07,3.10,4.06,-4.05,-4.01,-3.49,-0.94,-0.95,-0.96
82.16,3.09,4.08,3.07,4.06,-4.06,-4.02,-3.49,-0.97,-0.99,-0.99
82.98,3.03,4.04,3.04,4.06,-4.07,-4.03,-3.48,-1.05,-1.03,-1.02
83.81,3.01,4.06,3.02,4.07,-4.09,-4.04,-3.48,-1.08,-1.07,-1.06
84.65,3.01,4.10,3.01,4.09,-4.10,-4.05,-3.49,-1.09,-1.09,-1.09
85.50,3.01,4.12,3.00,4.12,-4.10,-4.06,-3.49,-1.10,-1.10,-1.11
86.35,2.99,4.13,2.98,4.13,-4.11,-4.06,-3.50,-1.12,-1.13,-1.15
87.22,2.94,4.12,2.95,4.13,-4.12,-4.07,-3.51,-1.18,-1.17,-1.18
88.09,2.91,4.12,2.91,4.13,-4.13,-4.07,-3.52,-1.22,-1.21,-1.22
88.97,2.90,4.14,2.87,4.12,-4.14,-4.08,-3.54,-1.24,-1.26,-1.24
89.86,2.83,4.10,2.84,4.12,-4.14,-4.08,-3.55,-1.32,-1.30,-1.28
90.76,2.82,4.13,2.83,4.14,-4.15,-4.08,-3.57,-1.34,-1.33,-1.31
91.66,2.82,4.16,2.81,4.16,-4.16,-4.08,-3.60,-1.34,-1.34,-1.34
92.58,2.82,4.19,2.81,4.18,-4.16,-4.08,-3.62,-1.35,-1.36,-1.38
93.51,2.79,4.19,2.79,4.19,-4.17,-4.08,-3.65,-1.38,-1.38,-1.40
94.44,2.75,4.18,2.76,4.19,-4.18,-4.08,-3.68,-1.43,-1.42,-1.43
95.39,2.72,4.18,2.71,4.17,-4.18,-4.08,-3.72,-1.46,-1.47,-1.46
96.34,2.68,4.18,2.67,4.16,-4.18,-4.08,-3.75,-1.51,-1.51,-1.50
97.30,2.62,4.14,2.63,4.16,-4.18,-4.08,-3.79,-1.56,-1.54,-1.53
98.28,2.61,4.16,2.61,4.16,-4.17,-4.08,-3.83,-1.56,-1.56,-1.56
99.26,2.60,4.17,2.59,4.17,-4.16,-4.07,-3.87,-1.56,-1.56,-1.57
100.25,2.58,4.18,2.56,4.17,-4.14,-4.07,-3.92,-1.57,-1.58,-1.60
101.25,2.52,4.15,2.51,4.15,-4.13,-4.07,-3.96,-1.61,-1.62,-1.63
102.27,2.44,4.10,2.44,4.11,-4.12,-4.06,-4.01,-1.68,-1.67,-1.66
103.29,2.38,4.09,2.38,4.08,-4.10,-4.06,-4.06,-1.72,-1.72,-1.71
104.32,2.33,4.06,2.33,4.07,-4.07,-4.06,-4.10,-1.75,-1.74,-1.73
105.37,2.30,4.07,2.29,4.06,-4.06,-4.05,-4.15,-1.76,-1.76,-1.77
106.42,2.26,4.06,2.24,4.04,-4.04,-4.05,-4.20,-1.79,-1.80,-1.80
107.48,2.18,4.02,2.19,4.03,-4.04,-4.05,-4.25,-1.86,-1.85,-1.84
108.56,2.13,4.01,2.14,4.02,-4.04,-4.04,-4.30,-1.91,-1.90,-1.88
109.64,2.11,4.02,2.10,4.01,-4.04,-4.04,-4.35,-1.93,-1.94,-1.92
110.74,2.09,4.03,2.09,4.03,-4.03,-4.03,-4.39,-1.95,-1.95,-1.95
111.85,2.07,4.04,2.09,4.07,-4.03,-4.03,-4.43,-1.96,-1.94,-1.98
112.97,2.07,4.09,2.05,4.06,-4.03,-4.03,-4.48,-1.96,-1.98,-2.02
114.10,2.04,4.08,2.00,4.04,-4.03,-4.02,-4.52,-1.99,-2.03,-2.04
115.24,1.89,3.97,1.93,4.01,-4.03,-4.02,-4.55,-2.14,-2.10,-2.08
116.39,1.88,3.99,1.88,3.99,-4.03,-4.02,-4.58,-2.15,-2.15,-2.11
117.55,1.87,4.00,1.86,4.00,-4.03,-4.02,-4.61,-2.16,-2.17,-2.14
118.73,1.88,4.04,1.88,4.04,-4.02,-4.02,-4.64,-2.15,-2.14,-2.16
119.92,1.88,4.05,1.88,4.05,-4.02,-4.01,-4.66,-2.15,-2.15,-2.17
121.12,1.88,4.07,1.85,4.05,-4.03,-4.01,-4.67,-2.16,-2.18,-2.20
122.33,1.82,4.03,1.83,4.04,-4.05,-4.01,-4.68,-2.23,-2.22,-2.21
123.55,1.79,4.01,1.81,4.04,-4.06,-4.01,-4.69,-2.28,-2.26,-2.22
124.79,1.82,4.06,1.80,4.05,-4.08,-4.01,-4.69,-2.26,-2.27,-2.25
126.03,1.82,4.08,1.83,4.09,-4.08,-4.01,-4.69,-2.26,-2.25,-2.26
127.29,1.84,4.11,1.83,4.11,-4.08,-4.01,-4.68,-2.24,-2.25,-2.27
128.57,1.84,4.14,1.81,4.11,-4.08,-4.02,-4.66,-2.24,-2.27,-2.30
129.85,1.76,4.07,1.79,4.10,-4.07,-4.02,-4.64,-2.32,-2.28,-2.31
131.15,1.75,4.07,1.75,4.07,-4.07,-4.02,-4.62,-2.32,-2.32,-2.33
132.46,1.74,4.07,1.70,4.04,-4.07,-4.03,-4.59,-2.33,-2.36,-2.34
133.79,1.66,4.00,1.68,4.03,-4.06,-4.03,-4.55,-2.41,-2.38,-2.34
135.12,1.65,4.02,1.67,4.03,-4.05,-4.04,-4.52,-2.40,-2.39,-2.37
136.48,1.67,4.04,1.66,4.04,-4.04,-4.04,-4.47,-2.37,-2.38,-2.37
137.84,1.69,4.08,1.66,4.06,-4.03,-4.05,-4.43,-2.34,-2.37,-2.39
139.22,1.64,4.06,1.64,4.06,-4.02,-4.06,-4.38,-2.38,-2.38,-2.42
140.61,1.59,4.03,1.61,4.04,-4.01,-4.06,-4.33,-2.43,-2.41,-2.44
142.02,1.58,4.02,1.55,4.00,-4.01,-4.07,-4.28,-2.44,-2.46,-2.44
143.44,1.52,3.98,1.51,3.98,-4.01,-4.08,-4.23,-2.50,-2.50,-2.46
144.87,1.47,3.95,1.49,3.97,-4.01,-4.09,-4.17,-2.54,-2.52,-2.49
146.32,1.48,3.99,1.48,3.99,-4.01,-4.10,-4.12,-2.53,-2.52,-2.51
147.78,1.50,4.04,1.49,4.03,-4.01,-4.11,-4.06,-2.51,-2.52,-2.54
149.26,1.49,4.06,1.48,4.06,-4.02,-4.12,-4.01,-2.53,-2.54,-2.57
150.75,1.44,4.07,1.43,4.05,-4.04,-4.13,-3.95,-2.60,-2.61,-2.63
152.26,1.37,4.04,1.36,4.04,-4.06,-4.14,-3.90,-2.69,-2.70,-2.67
153.78,1.29,4.01,1.31,4.04,-4.08,-4.15,-3.84,-2.80,-2.77,-2.73
155.32,1.28,4.07,1.30,4.08,-4.10,-4.16,-3.79,-2.82,-2.80,-2.79
156.88,1.31,4.15,1.27,4.12,-4.11,-4.17,-3.74,-2.81,-2.84,-2.84
158.44,1.27,4.18,1.23,4.15,-4.12,-4.18,-3.69,-2.85,-2.88,-2.91
160.03,1.14,4.11,1.18,4.16,-4.12,-4.19,-3.64,-2.99,-2.94,-2.98
161.63,1.11,4.13,1.11,4.15,-4.13,-4.20,-3.59,-3.02,-3.01,-3.03
163.24,1.09,4.17,1.04,4.12,-4.13,-4.21,-3.55,-3.04,-3.09,-3.09
164.88,0.98,4.09,0.98,4.11,-4.12,-4.22,-3.50,-3.14,-3.14,-3.12
166.53,0.90,4.05,0.93,4.08,-4.10,-4.23,-3.46,-3.21,-3.18,-3.16
168.19,0.89,4.07,0.89,4.08,-4.08,-4.23,-3.42,-3.20,-3.19,-3.19
169.87,0.89,4.10,0.87,4.08,-4.07,-4.24,-3.39,-3.18,-3.20,-3.21
171.57,0.87,4.10,0.84,4.07,-4.06,-4.24,-3.35,-3.19,-3.22,-3.23
173.29,0.78,4.02,0.79,4.03,-4.05,-4.24,-3.32,-3.27,-3.25,-3.24
175.02,0.74,3.98,0.77,4.01,-4.03,-4.24,-3.29,-3.30,-3.27,-3.24
176.77,0.77,4.02,0.76,4.01,-4.01,-4.23,-3.27,-3.25,-3.25,-3.25
178.54,0.79,4.04,0.77,4.02,-3.99,-4.23,-3.24,-3.20,-3.22,-3.26
180.32,0.77,4.01,0.76,4.00,-3.97,-4.22,-3.22,-3.20,-3.21,-3.24
182.13,0.71,3.94,0.73,3.97,-3.95,-4.20,-3.20,-3.24,-3.22,-3.24
183.95,0.69,3.93,0.67,3.91,-3.94,-4.19,-3.19,-3.25,-3.26,-3.24
185.79,0.65,3.89,0.63,3.88,-3.92,-4.17,-3.17,-3.28,-3.29,-3.24
187.65,0.59,3.84,0.63,3.88,-3.91,-4.15,-3.16,-3.32,-3.28,-3.26
189.52,0.63,3.89,0.63,3.90,-3.90,-4.13,-3.15,-3.27,-3.26,-3.26
191.42,0.68,3.95,0.64,3.92,-3.89,-4.10,-3.15,-3.21,-3.24,-3.27
193.33,0.64,3.92,0.63,3.91,-3.88,-4.07,-3.14,-3.24,-3.25,-3.28
195.27,0.58,3.87,0.57,3.87,-3.87,-4.04,-3.14,-3.29,-3.30,-3.30
197.22,0.50,3.81,0.52,3.84,-3.86,-4.01,-3.14,-3.36,-3.34,-3.32
199.19,0.48,3.82,0.51,3.84,-3.85,-3.97,-3.14,-3.37,-3.34,-3.34
201.18,0.53,3.88,0.48,3.84,-3.83,-3.93,-3.14,-3.30,-3.34,-3.35
203.19,0.48,3.84,0.44,3.80,-3.80,-3.88,-3.14,-3.32,-3.36,-3.36
205.23,0.34,3.73,0.38,3.76,-3.77,-3.84,-3.15,-3.43,-3.39,-3.39
207.28,0.30,3.69,0.34,3.74,-3.73,-3.79,-3.16,-3.44,-3.39,-3.39
209.35,0.34,3.76,0.31,3.72,-3.71,-3.74,-3.16,-3.37,-3.40,-3.42
211.44,0.33,3.76,0.27,3.70,-3.69,-3.69,-3.17,-3.36,-3.42,-3.44
213.56,0.17,3.61,0.21,3.65,-3.67,-3.64,-3.18,-3.50,-3.46,-3.45
215.69,0.11,3.56,0.14,3.59,-3.64,-3.58,-3.19,-3.53,-3.50,-3.45
217.85,0.13,3.59,0.11,3.58,-3.61,-3.52,-3.19,-3.48,-3.50,-3.46
220.03,0.13,3.61,0.14,3.62,-3.58,-3.47,-3.20,-3.45,-3.44,-3.48
222.23,0.15,3.63,0.13,3.61,-3.55,-3.41,-3.21,-3.40,-3.41,-3.49
224.45,0.12,3.59,0.07,3.55,-3.51,-3.35,-3.21,-3.40,-3.45,-3.47
226.70,-0.03,3.44,-0.01,3.47,-3.49,-3.29,-3.22,-3.52,-3.49,-3.47
228.96,-0.11,3.35,-0.07,3.40,-3.46,-3.23,-3.22,-3.57,-3.53,-3.47
231.25,-0.07,3.38,-0.08,3.37,-3.42,-3.17,-3.22,-3.49,-3.50,-3.45
233.57,-0.05,3.39,-0.07,3.37,-3.37,-3.11,-3.22,-3.42,-3.44,-3.44
235.90,-0.04,3.38,-0.07,3.36,-3.31,-3.05,-3.22,-3.35,-3.38,-3.43
238.26,-0.12,3.28,-0.08,3.32,-3.26,-2.99,-3.21,-3.38,-3.34,-3.40
240.64,-0.11,3.26,-0.13,3.24,-3.22,-2.93,-3.20,-3.33,-3.35,-3.38
243.05,-0.15,3.19,-0.20,3.15,-3.18,-2.87,-3.19,-3.33,-3.38,-3.34
245.48,-0.28,3.04,-0.24,3.08,-3.14,-2.81,-3.18,-3.42,-3.38,-3.32
247.93,-0.28,3.01,-0.26,3.04,-3.10,-2.75,-3.16,-3.38,-3.36,-3.29
250.41,-0.22,3.05,-0.25,3.02,-3.05,-2.69,-3.14,-3.27,-3.30,-3.28
252.92,-0.20,3.04,-0.22,3.03,-3.00,-2.63,-3.12,-3.20,-3.22,-3.24
255.45,-0.22,2.99,-0.21,3.01,-2.95,-2.58,-3.09,-3.17,-3.16,-3.22
258.00,-0.25,2.95,-0.24,2.96,-2.90,-2.52,-3.06,-3.15,-3.14,-3.20
260.58,-0.27,2.91,-0.32,2.86,-2.85,-2.47,-3.03,-3.13,-3.17,-3.19
263.19,-0.40,2.76,-0.40,2.76,-2.79,-2.41,-2.99,-3.19,-3.20,-3.16
265.82,-0.53,2.61,-0.47,2.67,-2.72,-2.36,-2.95,-3.25,-3.18,-3.14
268.48,-0.50,2.61,-0.52,2.60,-2.63,-2.31,-2.91,-3.14,-3.15,-3.12
271.16,-0.49,2.60,-0.52,2.58,-2.55,-2.26,-2.87,-3.04,-3.07,-3.09
273.87,-0.56,2.51,-0.56,2.51,-2.47,-2.20,-2.82,-3.03,-3.03,-3.07
276.61,-0.60,2.44,-0.66,2.39,-2.39,-2.16,-2.77,-3.00,-3.05,-3.05
279.38,-0.79,2.23,-0.74,2.28,-2.32,-2.11,-2.72,-3.11,-3.06,-3.02
282.17,-0.83,2.17,-0.79,2.21,-2.23,-2.06,-2.67,-3.06,-3.02,-3.00
284.99,-0.78,2.18,-0.81,2.16,-2.13,-2.01,-2.62,-2.92,-2.94,-2.97
287.84,-0.79,2.15,-0.84,2.10,-2.04,-1.97,-2.56,-2.83,-2.88,-2.94
290.72,-0.90,2.00,-0.92,1.98,-1.94,-1.92,-2.50,-2.85,-2.86,-2.90
293.63,-1.07,1.80,-1.01,1.87,-1.87,-1.88,-2.45,-2.94,-2.88,-2.87
296.57,-1.08,1.75,-1.09,1.75,-1.82,-1.83,-2.39,-2.90,-2.91,-2.84
299.53,-1.08,1.74,-1.15,1.67,-1.77,-1.79,-2.33,-2.85,-2.92,-2.82
302.53,-1.18,1.61,-1.12,1.66,-1.72,-1.75,-2.28,-2.91,-2.85,-2.79
305.55,-1.13,1.62,-1.07,1.69,-1.68,-1.71,-2.22,-2.81,-2.75,-2.75
308.61,-0.95,1.78,-1.03,1.70,-1.64,-1.67,-2.16,-2.59,-2.67,-2.74
311.69,-0.97,1.74,-1.00,1.70,-1.60,-1.63,-2.10,-2.58,-2.61,-2.72
314.81,-1.09,1.59,-1.05,1.64,-1.57,-1.59,-2.05,-2.67,-2.62,-2.68
317.96,-1.13,1.54,-1.15,1.52,-1.54,-1.55,-1.99,-2.68,-2.69,-2.67
321.14,-1.21,1.44,-1.21,1.44,-1.51,-1.51,-1.93,-2.72,-2.72,-2.65
324.35,-1.27,1.37,-1.25,1.40,-1.45,-1.47,-1.88,-2.73,-2.70,-2.64
327.59,-1.24,1.38,-1.28,1.35,-1.39,-1.43,-1.83,-2.63,-2.67,-2.63
330.87,-1.30,1.31,-1.27,1.35,-1.32,-1.40,-1.77,-2.63,-2.59,-2.62
334.18,-1.29,1.32,-1.26,1.35,-1.26,-1.36,-1.72,-2.56,-2.52,-2.61
337.52,-1.23,1.37,-1.32,1.28,-1.22,-1.32,-1.67,-2.45,-2.54,-2.60
340.90,-1.38,1.20,-1.42,1.17,-1.18,-1.28,-1.62,-2.56,-2.59,-2.58
344.30,-1.59,0.98,-1.50,1.07,-1.13,-1.24,-1.57,-2.73,-2.63,-2.57
347.75,-1.58,0.98,-1.54,1.02,-1.09,-1.20,-1.52,-2.67,-2.63,-2.57
351.23,-1.46,1.09,-1.53,1.03,-1.05,-1.17,-1.47,-2.51,-2.58,-2.56
354.74,-1.47,1.08,-1.52,1.04,-1.01,-1.13,-1.43,-2.48,-2.52,-2.56
358.28,-1.59,0.96,-1.54,1.01,-0.97,-1.09,-1.38,-2.56,-2.51,-2.55
361.87,-1.61,0.94,-1.60,0.95,-0.94,-1.04,-1.34,-2.56,-2.54,-2.55
365.49,-1.60,0.94,-1.62,0.92,-0.92,-1.00,-1.29,-2.53,-2.55,-2.54
369.14,-1.63,0.91,-1.64,0.91,-0.90,-0.96,-1.25,-2.54,-2.54,-2.54
372.83,-1.67,0.87,-1.68,0.86,-0.88,-0.91,-1.21,-2.55,-2.55,-2.54
376.56,-1.73,0.81,-1.73,0.81,-0.84,-0.86,-1.17,-2.57,-2.56,-2.54
380.33,-1.76,0.76,-1.73,0.80,-0.79,-0.82,-1.13,-2.56,-2.53,-2.52
384.13,-1.75,0.78,-1.74,0.80,-0.76,-0.77,-1.09,-2.51,-2.50,-2.54
387.97,-1.69,0.84,-1.78,0.75,-0.73,-0.72,-1.06,-2.42,-2.51,-2.54
391.85,-1.86,0.67,-1.85,0.68,-0.69,-0.66,-1.02,-2.55,-2.54,-2.54
395.77,-1.98,0.55,-1.92,0.62,-0.65,-0.61,-0.98,-2.63,-2.56,-2.53
399.73,-1.96,0.57,-1.96,0.58,-0.60,-0.56,-0.95,-2.57,-2.56,-2.53
403.72,-1.91,0.63,-1.96,0.58,-0.56,-0.52,-0.92,-2.47,-2.52,-2.54
407.76,-1.96,0.58,-1.98,0.56,-0.52,-0.47,-0.89,-2.48,-2.50,-2.54
411.84,-2.05,0.48,-2.04,0.50,-0.47,-0.44,-0.86,-2.53,-2.52,-2.53
415.96,-2.13,0.41,-2.11,0.43,-0.44,-0.40,-0.83,-2.58,-2.55,-2.54
420.12,-2.14,0.40,-2.14,0.39,-0.43,-0.38,-0.80,-2.57,-2.57,-2.54
424.32,-2.14,0.39,-2.15,0.39,-0.41,-0.37,-0.77,-2.56,-2.56,-2.53
428.56,-2.13,0.40,-2.14,0.39,-0.41,-0.36,-0.74,-2.54,-2.55,-2.53
432.85,-2.12,0.39,-2.13,0.38,-0.41,-0.37,-0.72,-2.53,-2.54,-2.51
437.18,-2.09,0.40,-2.08,0.41,-0.41,-0.38,-0.69,-2.50,-2.49,-2.49
441.55,-2.05,0.40,-2.00,0.46,-0.42,-0.39,-0.67,-2.47,-2.42,-2.46
445.96,-1.88,0.54,-1.96,0.47,-0.43,-0.41,-0.65,-2.32,-2.39,-2.43
450.42,-1.89,0.50,-1.93,0.46,-0.44,-0.44,-0.63,-2.34,-2.37,-2.40
454.93,-1.98,0.35,-1.89,0.45,-0.45,-0.46,-0.61,-2.44,-2.35,-2.34
459.48,-1.85,0.44,-1.87,0.42,-0.46,-0.49,-0.59,-2.31,-2.33,-2.30
464.07,-1.77,0.46,-1.80,0.44,-0.47,-0.51,-0.58,-2.24,-2.27,-2.24
468.71,-1.72,0.46,-1.71,0.48,-0.47,-0.54,-0.56,-2.19,-2.18,-2.19
473.40,-1.66,0.47,-1.66,0.48,-0.46,-0.56,-0.55,-2.12,-2.12,-2.14
478.13,-1.60,0.49,-1.61,0.48,-0.46,-0.58,-0.54,-2.06,-2.07,-2.09
482.91,-1.56,0.49,-1.56,0.48,-0.46,-0.60,-0.53,-2.03,-2.02,-2.05
