frequency,raw,error,smoothed,error_smoothed,equalization,parametric_eq,fixed_band_eq,equalized_raw,equalized_smoothed,target
20.00,11.50,8.98,11.50,8.98,-8.97,-8.81,-3.88,2.52,2.52,2.52
20.20,11.45,8.95,11.45,8.95,-8.95,-8.81,-3.98,2.50,2.50,2.50
20.40,11.40,8.93,11.40,8.93,-8.93,-8.81,-4.09,2.47,2.47,2.47
20.61,11.36,8.91,11.36,8.91,-8.91,-8.81,-4.20,2.45,2.45,2.45
20.81,11.32,8.89,11.31,8.89,-8.89,-8.80,-4.31,2.43,2.43,2.43
21.02,11.27,8.87,11.28,8.87,-8.87,-8.80,-4.43,2.40,2.41,2.40
21.23,11.24,8.86,11.24,8.85,-8.85,-8.80,-4.55,2.39,2.38,2.38
21.44,11.20,8.84,11.20,8.84,-8.83,-8.79,-4.67,2.36,2.36,2.36
21.66,11.16,8.82,11.16,8.82,-8.82,-8.79,-4.80,2.34,2.34,2.34
21.87,11.12,8.80,11.12,8.80,-8.81,-8.78,-4.93,2.31,2.32,2.32
22.09,11.09,8.79,11.09,8.79,-8.79,-8.78,-5.06,2.30,2.30,2.30
22.31,11.06,8.78,11.05,8.78,-8.78,-8.77,-5.20,2.28,2.28,2.28
22.54,11.02,8.77,11.02,8.77,-8.76,-8.77,-5.34,2.26,2.26,2.25
22.76,10.99,8.76,10.99,8.76,-8.75,-8.76,-5.48,2.24,2.24,2.23
22.99,10.95,8.74,10.95,8.74,-8.73,-8.75,-5.63,2.22,2.22,2.21
23.22,10.91,8.72,10.91,8.72,-8.72,-8.75,-5.78,2.19,2.19,2.19
23.45,10.88,8.70,10.88,8.70,-8.70,-8.74,-5.94,2.18,2.17,2.18
23.69,10.84,8.68,10.84,8.68,-8.68,-8.73,-6.09,2.16,2.16,2.16
23.92,10.82,8.67,10.82,8.67,-8.67,-8.72,-6.25,2.15,2.15,2.15
24.16,10.79,8.66,10.79,8.65,-8.65,-8.71,-6.42,2.14,2.13,2.13
24.40,10.76,8.64,10.76,8.64,-8.64,-8.70,-6.59,2.12,2.12,2.12
24.65,10.73,8.62,10.73,8.62,-8.63,-8.69,-6.76,2.10,2.10,2.11
24.89,10.71,8.62,10.71,8.61,-8.62,-8.68,-6.93,2.09,2.09,2.09
25.14,10.69,8.61,10.69,8.61,-8.61,-8.67,-7.11,2.08,2.08,2.08
25.39,10.68,8.61,10.68,8.61,-8.60,-8.66,-7.28,2.07,2.07,2.07
25.65,10.66,8.60,10.66,8.60,-8.60,-8.65,-7.46,2.06,2.06,2.06
25.91,10.65,8.60,10.65,8.60,-8.60,-8.64,-7.64,2.05,2.05,2.05
26.16,10.63,8.59,10.63,8.59,-8.60,-8.62,-7.83,2.03,2.04,2.04
26.43,10.62,8.60,10.62,8.59,-8.59,-8.61,-8.01,2.03,2.03,2.02
26.69,10.60,8.59,10.60,8.59,-8.59,-8.60,-8.19,2.01,2.02,2.01
26.96,10.59,8.59,10.58,8.59,-8.58,-8.58,-8.37,2.01,2.00,2.00
27.23,10.57,8.58,10.57,8.57,-8.57,-8.57,-8.54,2.00,1.99,1.99
27.50,10.54,8.56,10.55,8.56,-8.56,-8.55,-8.72,1.98,1.99,1.98
27.77,10.53,8.55,10.52,8.55,-8.55,-8.54,-8.89,1.98,1.97,1.98
28.05,10.51,8.54,10.50,8.53,-8.54,-8.52,-9.05,1.97,1.97,1.97
28.33,10.48,8.52,10.49,8.52,-8.52,-8.51,-9.21,1.96,1.96,1.96
28.62,10.47,8.51,10.46,8.51,-8.51,-8.49,-9.36,1.96,1.96,1.96
28.90,10.45,8.50,10.44,8.49,-8.49,-8.47,-9.50,1.95,1.95,1.95
29.19,10.42,8.47,10.43,8.48,-8.48,-8.46,-9.63,1.94,1.95,1.95
29.48,10.41,8.47,10.41,8.46,-8.46,-8.44,-9.75,1.94,1.94,1.94
29.78,10.39,8.45,10.39,8.45,-8.45,-8.42,-9.85,1.94,1.94,1.94
30.08,10.37,8.44,10.37,8.43,-8.43,-8.40,-9.95,1.94,1.93,1.93
30.38,10.34,8.41,10.34,8.42,-8.41,-8.38,-10.02,1.93,1.93,1.93
30.68,10.32,8.40,10.32,8.40,-8.39,-8.36,-10.08,1.93,1.92,1.92
30.99,10.29,8.38,10.29,8.37,-8.37,-8.34,-10.13,1.92,1.92,1.91
31.30,10.25,8.34,10.25,8.35,-8.34,-8.32,-10.16,1.91,1.91,1.91
31.61,10.22,8.32,10.22,8.31,-8.32,-8.30,-10.17,1.90,1.90,1.90
31.93,10.18,8.29,10.18,8.28,-8.29,-8.28,-10.17,1.89,1.89,1.89
32.24,10.14,8.25,10.14,8.25,-8.26,-8.26,-10.15,1.88,1.88,1.89
32.57,10.11,8.23,10.11,8.23,-8.23,-8.24,-10.11,1.88,1.87,1.88
32.89,10.07,8.20,10.07,8.20,-8.20,-8.21,-10.06,1.86,1.87,1.87
33.22,10.04,8.18,10.04,8.18,-8.18,-8.19,-10.00,1.86,1.86,1.86
33.55,10.00,8.15,10.00,8.15,-8.15,-8.17,-9.92,1.85,1.85,1.85
33.89,9.96,8.12,9.96,8.12,-8.11,-8.14,-9.83,1.84,1.85,1.84
34.23,9.92,8.09,9.92,8.09,-8.08,-8.12,-9.74,1.84,1.84,1.83
34.57,9.88,8.05,9.88,8.05,-8.04,-8.09,-9.63,1.84,1.83,1.83
34.92,9.83,8.01,9.83,8.01,-8.00,-8.07,-9.52,1.83,1.83,1.82
35.27,9.78,7.97,9.78,7.96,-7.96,-8.04,-9.40,1.82,1.82,1.81
35.62,9.73,7.92,9.73,7.92,-7.92,-8.02,-9.28,1.81,1.81,1.81
35.97,9.68,7.88,9.68,7.88,-7.88,-7.99,-9.15,1.80,1.80,1.80
36.33,9.64,7.84,9.63,7.84,-7.84,-7.96,-9.02,1.79,1.79,1.80
36.70,9.59,7.80,9.59,7.80,-7.81,-7.94,-8.89,1.78,1.78,1.79
37.06,9.56,7.78,9.56,7.77,-7.78,-7.91,-8.76,1.78,1.78,1.78
37.43,9.53,7.75,9.53,7.75,-7.75,-7.88,-8.63,1.78,1.78,1.78
37.81,9.50,7.73,9.50,7.73,-7.73,-7.86,-8.50,1.77,1.77,1.77
38.19,9.48,7.71,9.47,7.71,-7.70,-7.83,-8.37,1.77,1.77,1.77
38.57,9.45,7.69,9.45,7.69,-7.69,-7.80,-8.25,1.76,1.76,1.76
38.95,9.43,7.67,9.43,7.67,-7.67,-7.77,-8.12,1.76,1.76,1.76
39.34,9.41,7.66,9.41,7.65,-7.65,-7.74,-8.00,1.75,1.75,1.75
39.74,9.39,7.64,9.39,7.64,-7.64,-7.71,-7.89,1.75,1.75,1.75
40.14,9.37,7.63,9.37,7.63,-7.63,-7.68,-7.78,1.74,1.74,1.74
40.54,9.35,7.61,9.35,7.61,-7.62,-7.65,-7.67,1.73,1.74,1.74
40.94,9.34,7.61,9.34,7.60,-7.60,-7.62,-7.56,1.73,1.73,1.73
41.35,9.32,7.59,9.32,7.59,-7.59,-7.59,-7.47,1.73,1.73,1.73
41.76,9.31,7.59,9.31,7.58,-7.58,-7.55,-7.37,1.73,1.73,1.72
42.18,9.29,7.57,9.28,7.57,-7.57,-7.52,-7.28,1.72,1.72,1.72
42.60,9.26,7.55,9.26,7.55,-7.55,-7.49,-7.20,1.71,1.71,1.71
43.03,9.24,7.53,9.24,7.53,-7.53,-7.46,-7.12,1.71,1.71,1.71
43.46,9.22,7.52,9.22,7.51,-7.51,-7.43,-7.04,1.71,1.71,1.70
43.90,9.20,7.50,9.19,7.49,-7.49,-7.39,-6.97,1.71,1.70,1.70
44.33,9.16,7.46,9.16,7.46,-7.46,-7.36,-6.90,1.70,1.70,1.70
44.78,9.12,7.43,9.12,7.43,-7.43,-7.33,-6.84,1.69,1.69,1.69
45.23,9.09,7.40,9.09,7.40,-7.40,-7.29,-6.79,1.69,1.69,1.69
45.68,9.05,7.36,9.05,7.36,-7.36,-7.26,-6.74,1.69,1.69,1.69
46.13,9.02,7.33,9.01,7.32,-7.32,-7.22,-6.69,1.70,1.69,1.69
46.60,8.97,7.28,8.97,7.28,-7.28,-7.19,-6.65,1.69,1.69,1.69
47.06,8.93,7.24,8.93,7.24,-7.24,-7.15,-6.61,1.69,1.69,1.69
47.53,8.89,7.20,8.89,7.19,-7.19,-7.12,-6.58,1.69,1.69,1.69
48.01,8.84,7.15,8.84,7.15,-7.15,-7.08,-6.55,1.69,1.69,1.69
48.49,8.80,7.11,8.80,7.11,-7.11,-7.04,-6.53,1.69,1.69,1.69
48.97,8.75,7.06,8.75,7.06,-7.06,-7.01,-6.51,1.69,1.69,1.69
49.46,8.71,7.02,8.71,7.02,-7.02,-6.97,-6.49,1.69,1.69,1.69
49.96,8.66,6.97,8.66,6.97,-6.97,-6.94,-6.48,1.68,1.69,1.69
50.46,8.63,6.94,8.62,6.93,-6.93,-6.90,-6.47,1.70,1.69,1.69
50.96,8.58,6.89,8.58,6.89,-6.89,-6.86,-6.47,1.69,1.69,1.69
51.47,8.53,6.84,8.53,6.84,-6.84,-6.82,-6.46,1.69,1.69,1.69
51.99,8.49,6.80,8.48,6.79,-6.80,-6.79,-6.46,1.69,1.69,1.69
52.51,8.44,6.75,8.44,6.75,-6.75,-6.75,-6.46,1.69,1.69,1.69
53.03,8.39,6.70,8.39,6.70,-6.70,-6.71,-6.46,1.69,1.69,1.69
53.56,8.35,6.66,8.34,6.65,-6.65,-6.67,-6.47,1.70,1.69,1.69
54.10,8.30,6.61,8.29,6.60,-6.60,-6.63,-6.47,1.70,1.69,1.69
54.64,8.23,6.54,8.24,6.55,-6.54,-6.59,-6.48,1.69,1.70,1.69
55.18,8.18,6.49,8.18,6.49,-6.48,-6.56,-6.48,1.69,1.69,1.69
55.74,8.12,6.43,8.11,6.42,-6.42,-6.52,-6.48,1.70,1.69,1.69
56.29,8.05,6.36,8.05,6.36,-6.36,-6.48,-6.49,1.69,1.69,1.69
56.86,7.99,6.30,7.99,6.30,-6.30,-6.44,-6.49,1.69,1.69,1.69
57.42,7.93,6.24,7.93,6.24,-6.24,-6.40,-6.49,1.69,1.69,1.69
58.00,7.88,6.18,7.87,6.18,-6.18,-6.36,-6.49,1.70,1.70,1.70
58.58,7.82,6.12,7.82,6.12,-6.12,-6.32,-6.48,1.70,1.70,1.70
59.16,7.77,6.07,7.77,6.07,-6.07,-6.28,-6.47,1.70,1.70,1.70
59.76,7.72,6.02,7.72,6.01,-6.01,-6.24,-6.46,1.71,1.70,1.70
60.35,7.67,5.96,7.67,5.96,-5.96,-6.20,-6.44,1.71,1.71,1.71
60.96,7.62,5.91,7.62,5.91,-5.91,-6.16,-6.42,1.71,1.71,1.71
61.57,7.58,5.87,7.58,5.87,-5.87,-6.12,-6.39,1.71,1.71,1.71
62.18,7.54,5.83,7.54,5.83,-5.83,-6.08,-6.36,1.71,1.71,1.71
62.80,7.50,5.79,7.50,5.79,-5.79,-6.04,-6.33,1.71,1.71,1.71
63.43,7.47,5.75,7.47,5.75,-5.75,-6.00,-6.29,1.72,1.72,1.72
64.07,7.44,5.72,7.44,5.72,-5.72,-5.96,-6.24,1.72,1.72,1.72
64.71,7.41,5.69,7.41,5.69,-5.69,-5.92,-6.19,1.72,1.72,1.72
65.35,7.38,5.66,7.38,5.66,-5.66,-5.88,-6.14,1.72,1.72,1.72
66.01,7.35,5.63,7.35,5.63,-5.63,-5.83,-6.08,1.72,1.72,1.72
66.67,7.33,5.61,7.33,5.61,-5.61,-5.79,-6.02,1.72,1.72,1.72
67.33,7.31,5.59,7.31,5.58,-5.58,-5.75,-5.96,1.73,1.72,1.72
68.01,7.28,5.56,7.28,5.56,-5.56,-5.71,-5.89,1.72,1.72,1.72
68.69,7.26,5.54,7.26,5.54,-5.53,-5.67,-5.82,1.72,1.72,1.72
69.37,7.23,5.51,7.23,5.51,-5.51,-5.63,-5.74,1.72,1.72,1.72
70.07,7.21,5.49,7.21,5.49,-5.48,-5.59,-5.67,1.72,1.72,1.72
70.77,7.18,5.46,7.18,5.46,-5.46,-5.55,-5.59,1.72,1.72,1.72
71.48,7.16,5.44,7.16,5.44,-5.44,-5.51,-5.51,1.72,1.72,1.72
72.19,7.13,5.41,7.13,5.41,-5.41,-5.46,-5.43,1.72,1.72,1.72
72.91,7.11,5.39,7.10,5.39,-5.39,-5.42,-5.35,1.72,1.72,1.72
73.64,7.08,5.37,7.08,5.36,-5.37,-5.38,-5.27,1.71,1.71,1.71
74.38,7.05,5.34,7.06,5.34,-5.34,-5.34,-5.19,1.70,1.71,1.71
75.12,7.04,5.33,7.03,5.32,-5.33,-5.30,-5.11,1.71,1.71,1.71
75.87,7.01,5.31,7.01,5.31,-5.31,-5.26,-5.03,1.70,1.70,1.70
76.63,6.99,5.29,6.99,5.29,-5.29,-5.22,-4.96,1.70,1.70,1.70
77.40,6.96,5.27,6.96,5.27,-5.27,-5.18,-4.88,1.69,1.69,1.69
78.17,6.94,5.26,6.94,5.26,-5.26,-5.14,-4.81,1.68,1.68,1.68
78.95,6.92,5.25,6.91,5.24,-5.24,-5.10,-4.74,1.68,1.67,1.67
79.74,6.89,5.23,6.89,5.23,-5.23,-5.06,-4.67,1.66,1.66,1.66
80.54,6.86,5.21,6.86,5.21,-5.21,-5.01,-4.60,1.65,1.65,1.65
81.35,6.84,5.20,6.84,5.20,-5.20,-4.97,-4.54,1.64,1.64,1.64
82.16,6.81,5.18,6.81,5.18,-5.18,-4.93,-4.47,1.62,1.63,1.63
82.98,6.79,5.17,6.79,5.17,-5.17,-4.89,-4.42,1.62,1.62,1.62
83.81,6.76,5.15,6.76,5.15,-5.15,-4.85,-4.36,1.61,1.61,1.61
84.65,6.73,5.14,6.73,5.14,-5.13,-4.81,-4.31,1.60,1.60,1.59
85.50,6.70,5.12,6.70,5.12,-5.11,-4.77,-4.26,1.59,1.59,1.58
86.35,6.67,5.09,6.67,5.09,-5.08,-4.73,-4.21,1.58,1.58,1.58
87.22,6.63,5.06,6.63,5.06,-5.05,-4.69,-4.17,1.58,1.57,1.57
88.09,6.58,5.02,6.58,5.02,-5.02,-4.65,-4.12,1.56,1.56,1.56
88.97,6.53,4.98,6.53,4.98,-4.97,-4.61,-4.09,1.55,1.55,1.55
89.86,6.47,4.93,6.47,4.93,-4.93,-4.57,-4.05,1.54,1.54,1.54
90.76,6.42,4.88,6.42,4.88,-4.88,-4.54,-4.02,1.54,1.54,1.54
91.66,6.36,4.83,6.36,4.82,-4.83,-4.50,-3.99,1.53,1.53,1.53
92.58,6.30,4.77,6.30,4.77,-4.77,-4.46,-3.96,1.53,1.53,1.53
93.51,6.24,4.72,6.24,4.72,-4.72,-4.42,-3.94,1.52,1.52,1.52
94.44,6.19,4.67,6.19,4.67,-4.66,-4.38,-3.92,1.52,1.52,1.52
95.39,6.13,4.62,6.13,4.61,-4.61,-4.34,-3.90,1.52,1.52,1.51
96.34,6.07,4.56,6.07,4.56,-4.56,-4.30,-3.89,1.51,1.51,1.51
97.30,6.01,4.51,6.01,4.51,-4.51,-4.27,-3.87,1.50,1.50,1.50
98.28,5.96,4.46,5.96,4.46,-4.47,-4.23,-3.86,1.49,1.49,1.50
99.26,5.91,4.42,5.91,4.42,-4.43,-4.19,-3.86,1.48,1.48,1.49
100.25,5.87,4.39,5.87,4.39,-4.39,-4.15,-3.85,1.48,1.48,1.48
101.25,5.83,4.36,5.83,4.36,-4.36,-4.11,-3.84,1.47,1.47,1.47
102.27,5.79,4.33,5.79,4.33,-4.32,-4.08,-3.84,1.47,1.47,1.46
103.29,5.75,4.30,5.75,4.30,-4.29,-4.04,-3.84,1.46,1.46,1.45
104.32,5.70,4.26,5.70,4.26,-4.26,-4.00,-3.84,1.44,1.44,1.44
105.37,5.66,4.23,5.66,4.23,-4.22,-3.97,-3.84,1.43,1.43,1.43
106.42,5.61,4.19,5.61,4.19,-4.19,-3.93,-3.84,1.42,1.42,1.42
107.48,5.57,4.16,5.57,4.16,-4.16,-3.90,-3.85,1.41,1.41,1.41
108.56,5.52,4.12,5.52,4.12,-4.12,-3.86,-3.85,1.40,1.40,1.40
109.64,5.48,4.09,5.48,4.09,-4.09,-3.82,-3.85,1.39,1.39,1.39
110.74,5.44,4.06,5.44,4.06,-4.06,-3.79,-3.85,1.38,1.38,1.38
111.85,5.40,4.03,5.39,4.02,-4.03,-3.75,-3.86,1.37,1.37,1.37
112.97,5.35,3.99,5.35,3.99,-4.00,-3.72,-3.86,1.35,1.36,1.36
114.10,5.31,3.96,5.31,3.96,-3.96,-3.68,-3.86,1.34,1.35,1.35
115.24,5.28,3.94,5.27,3.93,-3.93,-3.65,-3.85,1.35,1.34,1.34
116.39,5.23,3.90,5.23,3.90,-3.89,-3.62,-3.85,1.34,1.34,1.33
117.55,5.18,3.86,5.18,3.86,-3.85,-3.58,-3.84,1.33,1.33,1.32
118.73,5.13,3.82,5.13,3.81,-3.81,-3.55,-3.84,1.32,1.32,1.31
119.92,5.07,3.76,5.07,3.76,-3.76,-3.51,-3.83,1.31,1.31,1.31
121.12,5.01,3.71,5.01,3.70,-3.70,-3.48,-3.81,1.30,1.30,1.30
122.33,4.94,3.64,4.94,3.64,-3.65,-3.45,-3.80,1.29,1.30,1.30
123.55,4.88,3.59,4.88,3.59,-3.59,-3.42,-3.78,1.29,1.29,1.29
124.79,4.82,3.53,4.82,3.53,-3.53,-3.38,-3.76,1.29,1.29,1.29
126.03,4.75,3.47,4.75,3.47,-3.47,-3.35,-3.73,1.28,1.28,1.28
127.29,4.69,3.41,4.69,3.41,-3.41,-3.32,-3.70,1.28,1.28,1.28
128.57,4.62,3.34,4.62,3.35,-3.35,-3.29,-3.67,1.27,1.27,1.28
129.85,4.57,3.30,4.56,3.29,-3.29,-3.26,-3.64,1.28,1.27,1.27
131.15,4.50,3.23,4.50,3.23,-3.23,-3.23,-3.60,1.27,1.27,1.27
132.46,4.45,3.18,4.45,3.18,-3.17,-3.20,-3.56,1.27,1.27,1.27
133.79,4.40,3.13,4.39,3.12,-3.12,-3.17,-3.52,1.28,1.27,1.27
135.12,4.34,3.07,4.34,3.07,-3.07,-3.13,-3.47,1.27,1.27,1.27
136.48,4.29,3.02,4.29,3.01,-3.02,-3.11,-3.43,1.27,1.27,1.27
137.84,4.24,2.96,4.24,2.97,-2.98,-3.08,-3.38,1.26,1.27,1.28
139.22,4.21,2.93,4.21,2.93,-2.93,-3.05,-3.33,1.27,1.27,1.28
140.61,4.18,2.90,4.18,2.89,-2.89,-3.02,-3.27,1.28,1.28,1.28
142.02,4.15,2.86,4.15,2.86,-2.85,-2.99,-3.22,1.29,1.30,1.29
143.44,4.12,2.82,4.12,2.82,-2.81,-2.96,-3.16,1.30,1.30,1.30
144.87,4.09,2.79,4.09,2.78,-2.78,-2.93,-3.11,1.31,1.31,1.30
146.32,4.05,2.74,4.05,2.74,-2.73,-2.90,-3.05,1.31,1.31,1.31
147.78,4.01,2.69,4.01,2.69,-2.69,-2.88,-3.00,1.32,1.32,1.32
149.26,3.97,2.65,3.97,2.64,-2.65,-2.85,-2.94,1.32,1.32,1.32
150.75,3.93,2.60,3.93,2.60,-2.60,-2.82,-2.88,1.33,1.33,1.33
152.26,3.89,2.55,3.89,2.55,-2.55,-2.79,-2.83,1.34,1.34,1.34
153.78,3.85,2.50,3.85,2.50,-2.50,-2.77,-2.77,1.35,1.35,1.35
155.32,3.82,2.46,3.81,2.45,-2.45,-2.74,-2.72,1.36,1.36,1.36
156.88,3.78,2.41,3.78,2.41,-2.41,-2.72,-2.66,1.37,1.37,1.37
158.44,3.74,2.36,3.75,2.36,-2.37,-2.69,-2.61,1.37,1.38,1.38
160.03,3.72,2.33,3.71,2.32,-2.32,-2.66,-2.56,1.40,1.39,1.39
161.63,3.68,2.28,3.68,2.28,-2.28,-2.64,-2.51,1.40,1.40,1.40
163.24,3.65,2.24,3.65,2.24,-2.24,-2.61,-2.46,1.41,1.41,1.41
164.88,3.63,2.21,3.62,2.20,-2.20,-2.59,-2.41,1.43,1.42,1.42
166.53,3.60,2.17,3.60,2.17,-2.17,-2.57,-2.36,1.43,1.43,1.43
168.19,3.57,2.13,3.57,2.13,-2.13,-2.54,-2.32,1.44,1.44,1.44
169.87,3.54,2.09,3.54,2.09,-2.10,-2.52,-2.27,1.44,1.45,1.45
171.57,3.52,2.07,3.52,2.06,-2.06,-2.49,-2.23,1.46,1.45,1.45
173.29,3.49,2.03,3.49,2.03,-2.03,-2.47,-2.19,1.46,1.46,1.46
175.02,3.47,2.00,3.47,2.00,-2.00,-2.45,-2.15,1.47,1.47,1.47
176.77,3.44,1.97,3.44,1.96,-1.97,-2.42,-2.11,1.47,1.47,1.47
178.54,3.41,1.93,3.41,1.93,-1.94,-2.40,-2.07,1.47,1.48,1.48
180.32,3.39,1.91,3.38,1.90,-1.91,-2.38,-2.04,1.48,1.48,1.48
182.13,3.36,1.88,3.36,1.88,-1.88,-2.36,-2.01,1.48,1.48,1.48
183.95,3.33,1.85,3.33,1.85,-1.85,-2.34,-1.97,1.48,1.48,1.48
185.79,3.31,1.83,3.30,1.82,-1.82,-2.31,-1.94,1.49,1.49,1.48
187.65,3.28,1.80,3.27,1.79,-1.79,-2.29,-1.91,1.49,1.49,1.48
189.52,3.24,1.76,3.24,1.76,-1.76,-2.27,-1.89,1.48,1.49,1.48
191.42,3.21,1.73,3.21,1.73,-1.73,-2.25,-1.86,1.48,1.48,1.48
193.33,3.18,1.70,3.17,1.69,-1.69,-2.23,-1.83,1.49,1.48,1.48
195.27,3.14,1.66,3.14,1.66,-1.66,-2.21,-1.81,1.48,1.48,1.48
197.22,3.10,1.63,3.11,1.63,-1.63,-2.19,-1.79,1.47,1.48,1.47
199.19,3.08,1.61,3.07,1.60,-1.60,-2.17,-1.77,1.48,1.47,1.47
201.18,3.05,1.59,3.05,1.58,-1.58,-2.15,-1.75,1.46,1.46,1.46
203.19,3.02,1.56,3.02,1.57,-1.57,-2.13,-1.73,1.45,1.45,1.46
205.23,3.01,1.56,3.01,1.56,-1.57,-2.11,-1.71,1.44,1.44,1.45
207.28,3.01,1.56,3.01,1.56,-1.57,-2.09,-1.70,1.43,1.43,1.45
209.35,3.02,1.58,3.02,1.58,-1.59,-2.08,-1.68,1.43,1.43,1.44
211.44,3.04,1.61,3.04,1.60,-1.61,-2.06,-1.67,1.43,1.43,1.43
213.56,3.06,1.63,3.06,1.63,-1.63,-2.04,-1.65,1.43,1.43,1.43
215.69,3.09,1.67,3.09,1.66,-1.66,-2.02,-1.64,1.43,1.43,1.42
217.85,3.11,1.69,3.11,1.69,-1.68,-2.00,-1.63,1.43,1.43,1.42
220.03,3.13,1.72,3.13,1.71,-1.70,-1.99,-1.61,1.42,1.42,1.41
222.23,3.14,1.73,3.14,1.73,-1.72,-1.97,-1.60,1.42,1.42,1.41
224.45,3.15,1.74,3.15,1.74,-1.73,-1.95,-1.59,1.42,1.42,1.41
226.70,3.15,1.74,3.15,1.74,-1.74,-1.93,-1.58,1.41,1.41,1.41
228.96,3.15,1.74,3.15,1.74,-1.74,-1.92,-1.57,1.41,1.41,1.41
231.25,3.15,1.74,3.15,1.73,-1.74,-1.90,-1.56,1.41,1.41,1.41
233.57,3.15,1.73,3.15,1.73,-1.74,-1.88,-1.55,1.41,1.41,1.42
235.90,3.15,1.73,3.15,1.73,-1.73,-1.87,-1.54,1.42,1.42,1.42
238.26,3.16,1.73,3.16,1.73,-1.73,-1.85,-1.53,1.43,1.43,1.43
240.64,3.16,1.72,3.16,1.73,-1.73,-1.84,-1.53,1.43,1.44,1.44
243.05,3.17,1.73,3.17,1.72,-1.72,-1.82,-1.52,1.45,1.44,1.44
245.48,3.17,1.72,3.17,1.72,-1.72,-1.81,-1.51,1.45,1.45,1.45
247.93,3.17,1.71,3.17,1.71,-1.71,-1.79,-1.50,1.46,1.46,1.46
250.41,3.18,1.71,3.17,1.70,-1.70,-1.78,-1.49,1.48,1.47,1.47
252.92,3.17,1.70,3.17,1.69,-1.69,-1.76,-1.48,1.48,1.48,1.47
255.45,3.16,1.68,3.16,1.68,-1.68,-1.75,-1.47,1.48,1.48,1.48
258.00,3.16,1.67,3.16,1.67,-1.67,-1.73,-1.46,1.49,1.49,1.49
260.58,3.15,1.66,3.14,1.65,-1.65,-1.72,-1.45,1.50,1.49,1.49
263.19,3.13,1.64,3.13,1.63,-1.63,-1.70,-1.44,1.50,1.50,1.49
265.82,3.11,1.61,3.11,1.62,-1.62,-1.69,-1.43,1.49,1.50,1.50
268.48,3.10,1.60,3.10,1.60,-1.60,-1.67,-1.42,1.50,1.50,1.50
271.16,3.09,1.59,3.08,1.58,-1.59,-1.66,-1.41,1.50,1.50,1.50
273.87,3.07,1.57,3.07,1.57,-1.57,-1.65,-1.40,1.49,1.50,1.50
276.61,3.07,1.56,3.07,1.56,-1.57,-1.63,-1.39,1.50,1.50,1.51
279.38,3.07,1.56,3.07,1.56,-1.57,-1.62,-1.38,1.50,1.50,1.51
282.17,3.08,1.57,3.08,1.56,-1.57,-1.61,-1.37,1.51,1.51,1.51
284.99,3.08,1.56,3.08,1.57,-1.57,-1.59,-1.36,1.51,1.51,1.52
287.84,3.10,1.58,3.10,1.58,-1.57,-1.58,-1.36,1.53,1.53,1.52
290.72,3.11,1.58,3.11,1.58,-1.57,-1.57,-1.35,1.54,1.54,1.53
293.63,3.12,1.59,3.11,1.58,-1.57,-1.56,-1.34,1.55,1.55,1.53
296.57,3.11,1.57,3.11,1.57,-1.56,-1.54,-1.33,1.55,1.55,1.54
299.53,3.09,1.55,3.09,1.55,-1.54,-1.53,-1.33,1.55,1.55,1.54
302.53,3.08,1.53,3.07,1.52,-1.52,-1.52,-1.32,1.56,1.55,1.55
305.55,3.05,1.49,3.05,1.49,-1.50,-1.51,-1.32,1.55,1.55,1.56
308.61,3.04,1.47,3.04,1.47,-1.48,-1.50,-1.31,1.56,1.56,1.57
311.69,3.03,1.45,3.03,1.45,-1.46,-1.48,-1.31,1.57,1.57,1.58
314.81,3.03,1.44,3.03,1.44,-1.44,-1.47,-1.31,1.59,1.59,1.59
317.96,3.02,1.42,3.02,1.42,-1.42,-1.46,-1.31,1.60,1.60,1.60
321.14,3.02,1.41,3.02,1.40,-1.40,-1.45,-1.31,1.61,1.61,1.61
324.35,3.01,1.39,3.01,1.39,-1.39,-1.44,-1.31,1.62,1.62,1.62
327.59,3.01,1.38,3.01,1.38,-1.38,-1.43,-1.31,1.63,1.63,1.63
330.87,3.01,1.38,3.01,1.37,-1.37,-1.42,-1.31,1.64,1.63,1.63
334.18,3.00,1.36,3.01,1.37,-1.36,-1.41,-1.31,1.63,1.64,1.64
337.52,3.01,1.37,3.00,1.36,-1.36,-1.40,-1.32,1.65,1.65,1.64
340.90,3.00,1.35,3.00,1.35,-1.35,-1.39,-1.32,1.65,1.65,1.65
344.30,2.99,1.34,2.99,1.34,-1.34,-1.37,-1.33,1.65,1.65,1.65
347.75,2.98,1.33,2.98,1.33,-1.33,-1.36,-1.34,1.65,1.65,1.65
351.23,2.98,1.33,2.98,1.33,-1.32,-1.35,-1.35,1.66,1.65,1.65
354.74,2.97,1.32,2.96,1.31,-1.31,-1.34,-1.36,1.66,1.65,1.65
358.28,2.94,1.30,2.94,1.30,-1.30,-1.33,-1.37,1.64,1.65,1.64
361.87,2.92,1.28,2.92,1.28,-1.28,-1.32,-1.38,1.64,1.64,1.64
365.49,2.91,1.27,2.90,1.26,-1.27,-1.31,-1.39,1.64,1.64,1.64
369.14,2.89,1.25,2.89,1.25,-1.25,-1.30,-1.40,1.64,1.64,1.64
372.83,2.87,1.23,2.87,1.23,-1.23,-1.29,-1.42,1.63,1.64,1.64
376.56,2.87,1.22,2.86,1.22,-1.22,-1.29,-1.43,1.65,1.64,1.65
380.33,2.85,1.20,2.85,1.20,-1.20,-1.28,-1.45,1.65,1.65,1.65
384.13,2.85,1.20,2.84,1.19,-1.19,-1.27,-1.47,1.66,1.66,1.65
387.97,2.83,1.17,2.83,1.17,-1.17,-1.26,-1.49,1.66,1.66,1.66
391.85,2.82,1.16,2.82,1.16,-1.15,-1.25,-1.50,1.66,1.67,1.66
395.77,2.81,1.14,2.81,1.14,-1.14,-1.24,-1.52,1.67,1.67,1.67
399.73,2.81,1.13,2.80,1.13,-1.12,-1.23,-1.54,1.69,1.68,1.68
403.72,2.80,1.12,2.79,1.11,-1.11,-1.22,-1.56,1.69,1.68,1.68
407.76,2.78,1.09,2.79,1.09,-1.10,-1.21,-1.58,1.68,1.69,1.69
411.84,2.78,1.08,2.78,1.08,-1.09,-1.20,-1.60,1.69,1.69,1.70
415.96,2.79,1.08,2.79,1.08,-1.09,-1.20,-1.62,1.70,1.70,1.71
420.12,2.80,1.09,2.80,1.09,-1.09,-1.19,-1.64,1.71,1.71,1.71
424.32,2.82,1.10,2.81,1.09,-1.09,-1.18,-1.66,1.73,1.72,1.72
428.56,2.83,1.10,2.83,1.10,-1.09,-1.17,-1.68,1.73,1.74,1.73
432.85,2.85,1.11,2.85,1.11,-1.10,-1.17,-1.69,1.75,1.75,1.74
437.18,2.87,1.12,2.86,1.11,-1.11,-1.16,-1.71,1.76,1.75,1.75
441.55,2.88,1.12,2.88,1.12,-1.12,-1.15,-1.73,1.76,1.76,1.76
445.96,2.88,1.11,2.89,1.12,-1.13,-1.14,-1.74,1.75,1.76,1.77
450.42,2.91,1.13,2.91,1.13,-1.13,-1.14,-1.75,1.77,1.77,1.78
454.93,2.93,1.14,2.93,1.14,-1.14,-1.13,-1.76,1.79,1.79,1.79
459.48,2.96,1.16,2.95,1.15,-1.15,-1.12,-1.77,1.81,1.80,1.80
464.07,2.97,1.16,2.97,1.16,-1.16,-1.12,-1.77,1.81,1.81,1.81
468.71,2.99,1.17,2.99,1.17,-1.16,-1.11,-1.78,1.83,1.83,1.82
473.40,3.00,1.17,3.00,1.17,-1.17,-1.10,-1.78,1.83,1.83,1.83
478.13,3.02,1.18,3.01,1.17,-1.17,-1.10,-1.78,1.85,1.84,1.84
482.91,3.02,1.16,3.02,1.16,-1.17,-1.09,-1.77,1.85,1.86,1.86
487.74,3.03,1.16,3.04,1.16,-1.16,-1.09,-1.76,1.87,1.88,1.87
492.62,3.05,1.16,3.04,1.16,-1.15,-1.08,-1.75,1.90,1.89,1.89
497.55,3.06,1.16,3.05,1.15,-1.14,-1.08,-1.73,1.91,1.91,1.90
502.52,3.05,1.13,3.06,1.13,-1.14,-1.08,-1.71,1.91,1.92,1.92
507.55,3.06,1.12,3.06,1.12,-1.13,-1.07,-1.69,1.93,1.93,1.94
512.62,3.07,1.11,3.07,1.11,-1.12,-1.07,-1.66,1.95,1.95,1.96
517.75,3.09,1.12,3.08,1.11,-1.11,-1.07,-1.64,1.98,1.97,1.97
522.93,3.09,1.10,3.10,1.11,-1.10,-1.07,-1.60,1.99,1.99,1.99
528.16,3.11,1.10,3.11,1.10,-1.09,-1.06,-1.57,2.01,2.01,2.01
533.44,3.12,1.10,3.11,1.09,-1.09,-1.06,-1.53,2.03,2.03,2.02
538.77,3.12,1.08,3.12,1.08,-1.08,-1.06,-1.49,2.03,2.04,2.04
