frequency,raw,error,smoothed,error_smoothed,equalization,parametric_eq,fixed_band_eq,equalized_raw,equalized_smoothed,target
20.00,-5.47,-6.87,-5.47,-6.88,6.00,6.04,2.10,0.53,0.53,1.41
20.20,-5.39,-6.83,-5.38,-6.83,6.00,6.05,2.16,0.61,0.62,1.45
20.40,-5.30,-6.79,-5.30,-6.78,6.00,6.06,2.22,0.70,0.70,1.49
20.61,-5.23,-6.73,-5.22,-6.73,6.00,6.07,2.29,0.77,0.78,1.50
20.81,-5.13,-6.68,-5.14,-6.68,6.00,6.07,2.36,0.87,0.86,1.55
21.02,-5.06,-6.64,-5.07,-6.64,6.00,6.07,2.43,0.94,0.93,1.58
21.23,-5.01,-6.60,-5.00,-6.60,6.00,6.07,2.50,0.99,1.00,1.59
21.44,-4.95,-6.57,-4.95,-6.56,6.00,6.07,2.58,1.05,1.05,1.61
21.66,-4.90,-6.52,-4.90,-6.52,6.00,6.06,2.65,1.10,1.10,1.62
21.87,-4.84,-6.47,-4.85,-6.47,6.00,6.05,2.73,1.16,1.15,1.62
22.09,-4.79,-6.43,-4.79,-6.42,6.00,6.04,2.81,1.21,1.21,1.63
22.31,-4.73,-6.37,-4.74,-6.37,6.00,6.03,2.90,1.27,1.27,1.63
22.54,-4.68,-6.31,-4.68,-6.31,6.01,6.01,2.98,1.33,1.33,1.63
22.76,-4.62,-6.25,-4.62,-6.25,6.01,5.99,3.07,1.39,1.39,1.62
22.99,-4.57,-6.18,-4.57,-6.18,6.01,5.96,3.16,1.45,1.44,1.61
23.22,-4.52,-6.13,-4.51,-6.12,6.01,5.94,3.25,1.49,1.49,1.61
23.45,-4.46,-6.06,-4.46,-6.06,5.99,5.91,3.35,1.54,1.53,1.60
23.69,-4.41,-6.01,-4.41,-6.01,5.96,5.88,3.44,1.56,1.56,1.60
23.92,-4.35,-5.96,-4.35,-5.95,5.93,5.85,3.54,1.57,1.58,1.60
24.16,-4.28,-5.89,-4.29,-5.89,5.88,5.81,3.64,1.60,1.60,1.61
24.40,-4.21,-5.82,-4.22,-5.82,5.82,5.77,3.74,1.61,1.61,1.61
24.65,-4.15,-5.75,-4.14,-5.75,5.75,5.73,3.85,1.61,1.61,1.60
24.89,-4.07,-5.67,-4.07,-5.67,5.68,5.69,3.95,1.60,1.60,1.60
25.14,-4.00,-5.60,-4.00,-5.60,5.60,5.65,4.05,1.60,1.60,1.60
25.39,-3.93,-5.53,-3.93,-5.53,5.53,5.60,4.16,1.59,1.60,1.60
25.65,-3.87,-5.45,-3.86,-5.45,5.46,5.56,4.27,1.60,1.60,1.59
25.91,-3.80,-5.37,-3.80,-5.38,5.40,5.51,4.37,1.61,1.60,1.58
26.16,-3.74,-5.32,-3.75,-5.33,5.35,5.46,4.48,1.60,1.60,1.58
26.43,-3.72,-5.29,-3.72,-5.29,5.29,5.40,4.58,1.58,1.58,1.58
26.69,-3.69,-5.26,-3.69,-5.26,5.24,5.35,4.68,1.56,1.56,1.57
26.96,-3.66,-5.22,-3.65,-5.22,5.19,5.30,4.78,1.53,1.54,1.56
27.23,-3.60,-5.16,-3.59,-5.16,5.14,5.24,4.88,1.54,1.54,1.56
27.50,-3.53,-5.09,-3.53,-5.09,5.08,5.18,4.98,1.56,1.55,1.56
27.77,-3.46,-5.02,-3.46,-5.02,5.03,5.12,5.07,1.56,1.57,1.55
28.05,-3.40,-4.95,-3.40,-4.95,4.97,5.07,5.16,1.58,1.57,1.55
28.33,-3.36,-4.90,-3.36,-4.90,4.92,5.01,5.24,1.56,1.56,1.54
28.62,-3.32,-4.86,-3.31,-4.85,4.86,4.95,5.31,1.54,1.55,1.54
28.90,-3.27,-4.80,-3.27,-4.81,4.80,4.88,5.38,1.53,1.53,1.54
29.19,-3.22,-4.75,-3.21,-4.75,4.74,4.82,5.45,1.53,1.53,1.54
29.48,-3.15,-4.70,-3.16,-4.70,4.68,4.76,5.50,1.53,1.53,1.55
29.78,-3.10,-4.63,-3.09,-4.64,4.62,4.70,5.55,1.52,1.53,1.54
30.08,-3.03,-4.57,-3.03,-4.57,4.56,4.63,5.59,1.53,1.53,1.54
30.38,-2.97,-4.49,-2.96,-4.49,4.50,4.57,5.62,1.53,1.54,1.52
30.68,-2.90,-4.42,-2.89,-4.41,4.44,4.51,5.64,1.54,1.54,1.52
30.99,-2.83,-4.34,-2.84,-4.35,4.38,4.44,5.65,1.55,1.54,1.51
31.30,-2.80,-4.31,-2.80,-4.31,4.32,4.38,5.65,1.53,1.53,1.51
31.61,-2.77,-4.27,-2.77,-4.27,4.27,4.31,5.64,1.50,1.50,1.51
31.93,-2.75,-4.23,-2.74,-4.23,4.21,4.25,5.62,1.47,1.48,1.49
32.24,-2.69,-4.17,-2.69,-4.18,4.15,4.18,5.59,1.46,1.46,1.48
32.57,-2.64,-4.11,-2.64,-4.11,4.09,4.12,5.56,1.46,1.45,1.47
32.89,-2.58,-4.05,-2.58,-4.04,4.03,4.06,5.51,1.44,1.45,1.46
33.22,-2.51,-3.96,-2.51,-3.96,3.96,3.99,5.46,1.44,1.45,1.44
33.55,-2.43,-3.87,-2.43,-3.87,3.88,3.93,5.39,1.45,1.45,1.44
33.89,-2.36,-3.77,-2.36,-3.78,3.81,3.86,5.32,1.45,1.45,1.42
34.23,-2.30,-3.71,-2.31,-3.72,3.73,3.80,5.25,1.44,1.43,1.42
34.57,-2.27,-3.66,-2.26,-3.66,3.66,3.74,5.16,1.39,1.39,1.40
34.92,-2.23,-3.61,-2.22,-3.61,3.59,3.67,5.08,1.36,1.37,1.38
35.27,-2.17,-3.55,-2.16,-3.53,3.52,3.61,4.98,1.35,1.36,1.38
35.62,-2.10,-3.46,-2.10,-3.46,3.46,3.55,4.89,1.37,1.36,1.36
35.97,-2.03,-3.37,-2.04,-3.39,3.41,3.49,4.79,1.38,1.37,1.35
36.33,-2.00,-3.34,-1.99,-3.33,3.36,3.43,4.69,1.36,1.36,1.35
36.70,-1.97,-3.30,-1.96,-3.29,3.31,3.37,4.58,1.34,1.35,1.33
37.06,-1.94,-3.26,-1.94,-3.27,3.26,3.31,4.48,1.32,1.32,1.32
37.43,-1.90,-3.23,-1.91,-3.23,3.21,3.25,4.37,1.31,1.31,1.33
37.81,-1.88,-3.19,-1.87,-3.19,3.17,3.19,4.26,1.30,1.30,1.32
38.19,-1.83,-3.13,-1.83,-3.14,3.13,3.13,4.15,1.30,1.30,1.30
38.57,-1.78,-3.09,-1.78,-3.08,3.08,3.07,4.05,1.31,1.31,1.31
38.95,-1.72,-3.02,-1.73,-3.03,3.03,3.01,3.94,1.31,1.30,1.30
39.34,-1.69,-2.98,-1.69,-2.98,2.98,2.95,3.83,1.29,1.29,1.29
39.74,-1.66,-2.94,-1.65,-2.93,2.93,2.89,3.73,1.27,1.28,1.28
40.14,-1.61,-2.88,-1.59,-2.87,2.88,2.84,3.62,1.27,1.28,1.28
40.54,-1.54,-2.81,-1.53,-2.80,2.82,2.78,3.52,1.29,1.29,1.27
40.94,-1.46,-2.73,-1.48,-2.75,2.76,2.73,3.42,1.31,1.28,1.27
41.35,-1.45,-2.70,-1.46,-2.71,2.70,2.67,3.32,1.26,1.25,1.26
41.76,-1.45,-2.70,-1.43,-2.68,2.65,2.62,3.22,1.19,1.21,1.24
42.18,-1.40,-2.64,-1.38,-2.62,2.59,2.56,3.12,1.19,1.21,1.24
42.60,-1.30,-2.53,-1.31,-2.54,2.54,2.51,3.03,1.24,1.23,1.23
43.03,-1.21,-2.43,-1.25,-2.46,2.49,2.46,2.94,1.29,1.25,1.22
43.46,-1.23,-2.42,-1.22,-2.42,2.45,2.40,2.85,1.23,1.23,1.20
43.90,-1.25,-2.42,-1.23,-2.41,2.42,2.35,2.76,1.17,1.19,1.17
44.33,-1.25,-2.40,-1.25,-2.40,2.39,2.30,2.68,1.15,1.15,1.16
44.78,-1.25,-2.38,-1.25,-2.38,2.38,2.25,2.59,1.13,1.13,1.13
45.23,-1.25,-2.36,-1.24,-2.36,2.37,2.20,2.51,1.13,1.13,1.12
45.68,-1.25,-2.35,-1.25,-2.35,2.36,2.15,2.43,1.12,1.12,1.10
46.13,-1.26,-2.34,-1.26,-2.35,2.35,2.10,2.35,1.09,1.08,1.09
46.60,-1.27,-2.35,-1.27,-2.35,2.32,2.05,2.28,1.06,1.05,1.08
47.06,-1.28,-2.35,-1.26,-2.33,2.29,2.00,2.21,1.01,1.03,1.08
47.53,-1.22,-2.28,-1.22,-2.29,2.25,1.95,2.13,1.04,1.04,1.07
48.01,-1.15,-2.21,-1.14,-2.20,2.21,1.91,2.07,1.07,1.07,1.06
48.49,-1.08,-2.12,-1.07,-2.12,2.16,1.86,2.00,1.09,1.10,1.05
48.97,-1.00,-2.03,-1.05,-2.08,2.11,1.81,1.93,1.11,1.06,1.03
49.46,-1.04,-2.06,-1.04,-2.06,2.05,1.77,1.87,1.01,1.01,1.02
49.96,-1.08,-2.08,-1.00,-2.02,1.99,1.72,1.81,0.92,0.99,1.01
50.46,-0.95,-1.96,-0.94,-1.96,1.94,1.67,1.75,0.99,0.99,1.02
50.96,-0.81,-1.82,-0.86,-1.87,1.88,1.63,1.69,1.08,1.02,1.01
51.47,-0.80,-1.80,-0.80,-1.80,1.83,1.58,1.63,1.03,1.03,1.00
51.99,-0.80,-1.79,-0.78,-1.78,1.77,1.54,1.57,0.98,0.99,0.99
52.51,-0.76,-1.75,-0.76,-1.75,1.72,1.50,1.52,0.96,0.96,0.99
53.03,-0.72,-1.71,-0.68,-1.67,1.66,1.45,1.46,0.95,0.99,1.00
53.56,-0.59,-1.57,-0.60,-1.58,1.61,1.41,1.41,1.02,1.01,0.99
54.10,-0.49,-1.46,-0.55,-1.53,1.56,1.37,1.36,1.07,1.00,0.98
54.64,-0.56,-1.53,-0.53,-1.50,1.51,1.32,1.31,0.95,0.98,0.98
55.18,-0.56,-1.53,-0.52,-1.49,1.46,1.28,1.26,0.90,0.94,0.97
55.74,-0.48,-1.43,-0.47,-1.43,1.41,1.24,1.21,0.93,0.94,0.95
56.29,-0.38,-1.34,-0.39,-1.33,1.36,1.19,1.16,0.97,0.97,0.95
56.86,-0.30,-1.23,-0.35,-1.29,1.31,1.15,1.12,1.01,0.95,0.93
57.42,-0.33,-1.25,-0.34,-1.26,1.25,1.11,1.07,0.92,0.91,0.92
58.00,-0.40,-1.30,-0.30,-1.21,1.19,1.07,1.03,0.79,0.89,0.91
58.58,-0.23,-1.12,-0.25,-1.14,1.12,1.03,0.98,0.89,0.87,0.89
59.16,-0.11,-0.99,-0.17,-1.05,1.05,0.99,0.94,0.94,0.88,0.88
59.76,-0.13,-0.98,-0.10,-0.96,0.98,0.94,0.89,0.85,0.88,0.86
60.35,-0.10,-0.93,-0.07,-0.91,0.91,0.90,0.85,0.82,0.84,0.83
60.96,-0.04,-0.85,-0.04,-0.84,0.84,0.86,0.81,0.80,0.80,0.81
61.57,0.02,-0.74,0.02,-0.75,0.76,0.82,0.77,0.79,0.78,0.76
62.18,0.06,-0.66,0.05,-0.68,0.69,0.78,0.72,0.75,0.74,0.73
62.80,0.06,-0.63,0.06,-0.63,0.62,0.74,0.68,0.68,0.68,0.69
63.43,0.06,-0.59,0.08,-0.58,0.56,0.70,0.64,0.62,0.63,0.66
64.07,0.07,-0.55,0.12,-0.50,0.50,0.65,0.60,0.57,0.61,0.62
64.71,0.19,-0.39,0.16,-0.43,0.44,0.61,0.56,0.64,0.60,0.58
65.35,0.21,-0.34,0.19,-0.36,0.39,0.57,0.52,0.61,0.58,0.55
66.01,0.16,-0.35,0.19,-0.32,0.35,0.53,0.47,0.52,0.54,0.52
66.67,0.16,-0.31,0.17,-0.31,0.31,0.49,0.43,0.47,0.48,0.48
67.33,0.16,-0.28,0.16,-0.28,0.26,0.44,0.39,0.43,0.42,0.45
68.01,0.16,-0.24,0.16,-0.24,0.22,0.40,0.35,0.39,0.39,0.41
68.69,0.16,-0.20,0.16,-0.21,0.19,0.36,0.31,0.35,0.35,0.37
69.37,0.16,-0.16,0.17,-0.16,0.15,0.31,0.27,0.31,0.31,0.32
70.07,0.16,-0.12,0.18,-0.11,0.11,0.27,0.23,0.27,0.29,0.28
70.77,0.20,-0.05,0.19,-0.05,0.07,0.23,0.18,0.28,0.26,0.25
71.48,0.20,-0.00,0.19,-0.01,0.04,0.18,0.14,0.24,0.23,0.21
72.19,0.17,0.01,0.18,0.02,0.01,0.14,0.10,0.19,0.19,0.16
72.91,0.13,0.03,0.15,0.04,-0.01,0.09,0.06,0.12,0.13,0.11
73.64,0.12,0.06,0.12,0.05,-0.04,0.04,0.01,0.08,0.07,0.06
74.38,0.09,0.08,0.08,0.06,-0.08,-0.00,-0.03,0.01,-0.00,0.02
75.12,0.05,0.08,0.06,0.09,-0.13,-0.05,-0.07,-0.08,-0.07,-0.03
75.87,0.05,0.11,0.07,0.13,-0.19,-0.10,-0.12,-0.14,-0.12,-0.06
76.63,0.12,0.23,0.12,0.22,-0.26,-0.15,-0.16,-0.13,-0.14,-0.10
77.40,0.20,0.34,0.19,0.33,-0.33,-0.20,-0.21,-0.13,-0.14,-0.14
78.17,0.27,0.45,0.27,0.44,-0.41,-0.25,-0.25,-0.13,-0.14,-0.18
78.95,0.31,0.52,0.32,0.53,-0.48,-0.30,-0.30,-0.17,-0.16,-0.21
79.74,0.35,0.59,0.35,0.59,-0.55,-0.35,-0.35,-0.20,-0.20,-0.23
80.54,0.36,0.63,0.36,0.63,-0.61,-0.39,-0.39,-0.25,-0.25,-0.26
81.35,0.36,0.66,0.37,0.66,-0.66,-0.44,-0.44,-0.30,-0.30,-0.30
82.16,0.36,0.69,0.37,0.69,-0.70,-0.49,-0.49,-0.34,-0.34,-0.33
82.98,0.36,0.71,0.37,0.72,-0.74,-0.53,-0.54,-0.37,-0.37,-0.35
83.81,0.36,0.76,0.36,0.75,-0.77,-0.58,-0.59,-0.41,-0.41,-0.39
84.65,0.36,0.79,0.36,0.78,-0.80,-0.62,-0.64,-0.44,-0.44,-0.42
85.50,0.35,0.80,0.37,0.82,-0.83,-0.65,-0.69,-0.47,-0.46,-0.45
86.35,0.36,0.85,0.38,0.86,-0.85,-0.68,-0.74,-0.48,-0.47,-0.48
87.22,0.38,0.90,0.37,0.88,-0.86,-0.70,-0.79,-0.48,-0.49,-0.52
88.09,0.35,0.91,0.34,0.88,-0.86,-0.72,-0.84,-0.51,-0.52,-0.55
88.97,0.26,0.84,0.28,0.86,-0.85,-0.73,-0.90,-0.58,-0.57,-0.58
89.86,0.18,0.80,0.20,0.81,-0.81,-0.72,-0.95,-0.63,-0.61,-0.61
90.76,0.11,0.76,0.11,0.76,-0.76,-0.70,-1.01,-0.64,-0.64,-0.65
91.66,0.03,0.71,0.02,0.70,-0.68,-0.67,-1.06,-0.65,-0.66,-0.67
92.58,-0.09,0.63,-0.08,0.63,-0.60,-0.62,-1.12,-0.69,-0.68,-0.71
93.51,-0.21,0.52,-0.21,0.52,-0.51,-0.55,-1.18,-0.73,-0.73,-0.74
94.44,-0.35,0.42,-0.36,0.41,-0.42,-0.47,-1.23,-0.77,-0.78,-0.77
95.39,-0.50,0.29,-0.50,0.30,-0.33,-0.37,-1.29,-0.83,-0.82,-0.79
96.34,-0.63,0.21,-0.61,0.22,-0.23,-0.27,-1.35,-0.86,-0.84,-0.83
97.30,-0.70,0.17,-0.69,0.17,-0.14,-0.16,-1.41,-0.84,-0.84,-0.86
98.28,-0.76,0.13,-0.77,0.11,-0.07,-0.07,-1.47,-0.83,-0.84,-0.89
99.26,-0.84,0.07,-0.86,0.05,-0.03,-0.01,-1.53,-0.86,-0.89,-0.91
100.25,-0.98,-0.04,-0.95,-0.02,-0.01,0.01,-1.59,-0.99,-0.97,-0.94
101.25,-1.02,-0.05,-1.00,-0.03,-0.04,-0.03,-1.65,-1.05,-1.04,-0.97
102.27,-0.99,0.01,-0.98,0.02,-0.10,-0.12,-1.72,-1.08,-1.08,-1.00
103.29,-0.90,0.15,-0.90,0.13,-0.18,-0.24,-1.78,-1.08,-1.09,-1.05
104.32,-0.79,0.28,-0.78,0.29,-0.29,-0.39,-1.84,-1.08,-1.08,-1.06
105.37,-0.66,0.45,-0.64,0.46,-0.43,-0.55,-1.90,-1.08,-1.07,-1.10
106.42,-0.50,0.64,-0.51,0.63,-0.58,-0.71,-1.95,-1.07,-1.08,-1.13
107.48,-0.38,0.80,-0.39,0.78,-0.73,-0.87,-2.01,-1.11,-1.13,-1.17
108.56,-0.30,0.92,-0.30,0.91,-0.89,-1.01,-2.07,-1.18,-1.19,-1.21
109.64,-0.25,1.01,-0.23,1.01,-1.03,-1.14,-2.13,-1.27,-1.26,-1.25
110.74,-0.16,1.12,-0.15,1.13,-1.15,-1.26,-2.18,-1.30,-1.30,-1.28
111.85,-0.08,1.23,-0.05,1.27,-1.26,-1.36,-2.23,-1.33,-1.31,-1.31
112.97,0.07,1.43,0.04,1.39,-1.36,-1.46,-2.28,-1.29,-1.32,-1.36
114.10,0.12,1.50,0.10,1.48,-1.46,-1.56,-2.33,-1.33,-1.36,-1.38
115.24,0.10,1.52,0.13,1.55,-1.55,-1.64,-2.37,-1.45,-1.42,-1.41
116.39,0.16,1.61,0.17,1.62,-1.65,-1.72,-2.41,-1.48,-1.47,-1.44
117.55,0.23,1.71,0.25,1.72,-1.74,-1.80,-2.45,-1.50,-1.49,-1.47
118.73,0.36,1.86,0.35,1.84,-1.84,-1.87,-2.49,-1.47,-1.49,-1.50
119.92,0.43,1.94,0.43,1.95,-1.94,-1.94,-2.52,-1.50,-1.50,-1.50
121.12,0.51,2.05,0.50,2.02,-2.04,-2.01,-2.55,-1.53,-1.54,-1.53
122.33,0.55,2.10,0.57,2.11,-2.14,-2.08,-2.57,-1.59,-1.57,-1.55
123.55,0.63,2.19,0.68,2.24,-2.24,-2.14,-2.59,-1.61,-1.56,-1.55
124.79,0.82,2.40,0.79,2.36,-2.34,-2.21,-2.61,-1.52,-1.55,-1.58
126.03,0.91,2.51,0.89,2.48,-2.43,-2.27,-2.62,-1.52,-1.55,-1.59
127.29,0.92,2.53,0.93,2.55,-2.52,-2.33,-2.63,-1.60,-1.59,-1.61
128.57,0.95,2.59,0.95,2.58,-2.61,-2.39,-2.64,-1.65,-1.66,-1.63
129.85,0.96,2.61,1.00,2.65,-2.69,-2.45,-2.64,-1.73,-1.69,-1.65
131.15,1.08,2.74,1.10,2.75,-2.77,-2.52,-2.63,-1.68,-1.67,-1.66
132.46,1.20,2.88,1.16,2.83,-2.83,-2.57,-2.63,-1.63,-1.67,-1.67
133.79,1.26,2.94,1.23,2.91,-2.89,-2.63,-2.62,-1.63,-1.66,-1.67
135.12,1.20,2.90,1.28,2.98,-2.95,-2.69,-2.61,-1.76,-1.67,-1.71
136.48,1.34,3.05,1.32,3.03,-3.02,-2.75,-2.59,-1.67,-1.70,-1.71
137.84,1.39,3.12,1.33,3.06,-3.08,-2.80,-2.57,-1.68,-1.75,-1.73
139.22,1.33,3.09,1.36,3.11,-3.12,-2.86,-2.56,-1.79,-1.77,-1.76
140.61,1.29,3.07,1.38,3.14,-3.16,-2.91,-2.53,-1.87,-1.79,-1.78
142.02,1.45,3.23,1.41,3.19,-3.20,-2.96,-2.51,-1.74,-1.78,-1.77
143.44,1.49,3.29,1.45,3.25,-3.22,-3.02,-2.49,-1.73,-1.77,-1.79
144.87,1.44,3.26,1.46,3.28,-3.24,-3.06,-2.46,-1.80,-1.78,-1.82
146.32,1.40,3.25,1.42,3.26,-3.26,-3.11,-2.43,-1.86,-1.84,-1.85
147.78,1.39,3.27,1.41,3.28,-3.29,-3.16,-2.41,-1.90,-1.88,-1.87
149.26,1.39,3.30,1.38,3.30,-3.33,-3.20,-2.38,-1.93,-1.94,-1.91
150.75,1.39,3.36,1.33,3.29,-3.35,-3.24,-2.35,-1.96,-2.02,-1.96
152.26,1.24,3.25,1.31,3.31,-3.35,-3.28,-2.32,-2.11,-2.05,-2.01
153.78,1.24,3.30,1.31,3.37,-3.34,-3.31,-2.30,-2.11,-2.03,-2.06
155.32,1.37,3.50,1.30,3.42,-3.32,-3.34,-2.27,-1.94,-2.02,-2.12
156.88,1.29,3.47,1.24,3.42,-3.29,-3.37,-2.24,-1.99,-2.05,-2.18
158.44,1.07,3.32,1.08,3.33,-3.26,-3.40,-2.22,-2.19,-2.18,-2.25
160.03,0.84,3.15,0.88,3.19,-3.25,-3.42,-2.20,-2.41,-2.37,-2.31
161.63,0.71,3.08,0.75,3.11,-3.26,-3.44,-2.17,-2.54,-2.51,-2.36
163.24,0.72,3.15,0.71,3.12,-3.27,-3.46,-2.15,-2.54,-2.55,-2.42
164.88,0.75,3.21,0.75,3.21,-3.28,-3.47,-2.13,-2.53,-2.53,-2.45
166.53,0.83,3.32,0.84,3.33,-3.31,-3.48,-2.11,-2.47,-2.46,-2.49
168.19,0.92,3.44,0.94,3.46,-3.35,-3.48,-2.10,-2.43,-2.41,-2.52
169.87,1.01,3.56,0.99,3.53,-3.41,-3.48,-2.08,-2.40,-2.43,-2.55
171.57,1.01,3.58,0.96,3.52,-3.48,-3.48,-2.07,-2.46,-2.52,-2.56
173.29,0.87,3.45,0.91,3.48,-3.53,-3.48,-2.05,-2.65,-2.62,-2.57
175.02,0.83,3.41,0.90,3.48,-3.56,-3.47,-2.04,-2.72,-2.65,-2.58
176.77,0.94,3.53,0.94,3.53,-3.57,-3.45,-2.03,-2.62,-2.63,-2.58
178.54,1.07,3.66,1.00,3.58,-3.57,-3.44,-2.03,-2.50,-2.57,-2.59
180.32,1.02,3.60,1.03,3.61,-3.57,-3.42,-2.02,-2.55,-2.54,-2.58
182.13,0.96,3.53,1.02,3.59,-3.57,-3.39,-2.02,-2.61,-2.56,-2.57
183.95,1.00,3.58,0.98,3.56,-3.57,-3.37,-2.01,-2.57,-2.59,-2.57
185.79,0.97,3.55,0.96,3.54,-3.56,-3.34,-2.01,-2.58,-2.60,-2.58
187.65,0.92,3.52,0.92,3.51,-3.52,-3.31,-2.01,-2.59,-2.60,-2.59
189.52,0.84,3.44,0.87,3.47,-3.46,-3.27,-2.01,-2.61,-2.59,-2.59
191.42,0.80,3.41,0.80,3.41,-3.38,-3.23,-2.02,-2.58,-2.58,-2.61
193.33,0.74,3.36,0.70,3.31,-3.28,-3.19,-2.02,-2.54,-2.59,-2.62
195.27,0.55,3.18,0.56,3.20,-3.17,-3.15,-2.03,-2.63,-2.61,-2.63
197.22,0.37,3.03,0.41,3.06,-3.04,-3.11,-2.03,-2.67,-2.64,-2.65
199.19,0.25,2.93,0.24,2.90,-2.90,-3.06,-2.04,-2.65,-2.67,-2.67
201.18,0.09,2.78,0.08,2.76,-2.76,-3.01,-2.05,-2.67,-2.68,-2.68
203.19,-0.10,2.60,-0.09,2.61,-2.62,-2.96,-2.06,-2.72,-2.71,-2.69
205.23,-0.26,2.47,-0.25,2.46,-2.50,-2.91,-2.07,-2.75,-2.75,-2.72
207.28,-0.39,2.34,-0.38,2.35,-2.39,-2.86,-2.08,-2.77,-2.77,-2.72
209.35,-0.48,2.28,-0.48,2.28,-2.30,-2.81,-2.09,-2.78,-2.78,-2.75
211.44,-0.54,2.24,-0.55,2.21,-2.24,-2.75,-2.10,-2.78,-2.80,-2.77
213.56,-0.62,2.16,-0.60,2.18,-2.20,-2.70,-2.11,-2.81,-2.79,-2.78
215.69,-0.65,2.14,-0.62,2.16,-2.16,-2.64,-2.12,-2.81,-2.79,-2.79
217.85,-0.62,2.18,-0.65,2.15,-2.14,-2.59,-2.13,-2.76,-2.79,-2.80
220.03,-0.67,2.15,-0.67,2.14,-2.12,-2.53,-2.14,-2.79,-2.79,-2.81
222.23,-0.72,2.11,-0.70,2.12,-2.10,-2.47,-2.15,-2.81,-2.79,-2.82
224.45,-0.74,2.07,-0.74,2.07,-2.06,-2.42,-2.16,-2.79,-2.80,-2.81
226.70,-0.78,2.03,-0.78,2.02,-2.01,-2.36,-2.16,-2.79,-2.79,-2.80
228.96,-0.84,1.97,-0.83,1.96,-1.94,-2.30,-2.16,-2.78,-2.78,-2.80
231.25,-0.91,1.88,-0.90,1.89,-1.87,-2.25,-2.17,-2.77,-2.77,-2.79
233.57,-0.98,1.80,-0.98,1.80,-1.79,-2.19,-2.16,-2.76,-2.77,-2.77
235.90,-1.06,1.70,-1.05,1.71,-1.71,-2.13,-2.16,-2.76,-2.76,-2.76
238.26,-1.13,1.61,-1.12,1.61,-1.63,-2.08,-2.15,-2.75,-2.75,-2.74
240.64,-1.18,1.54,-1.19,1.52,-1.56,-2.02,-2.14,-2.73,-2.75,-2.71
243.05,-1.24,1.44,-1.22,1.46,-1.49,-1.96,-2.13,-2.72,-2.71,-2.68
245.48,-1.26,1.40,-1.23,1.43,-1.43,-1.91,-2.12,-2.69,-2.66,-2.65
247.93,-1.20,1.43,-1.21,1.42,-1.39,-1.85,-2.10,-2.58,-2.60,-2.63
250.41,-1.20,1.42,-1.22,1.38,-1.35,-1.80,-2.07,-2.55,-2.58,-2.61
252.92,-1.22,1.36,-1.24,1.34,-1.33,-1.74,-2.05,-2.55,-2.58,-2.58
255.45,-1.33,1.23,-1.25,1.30,-1.33,-1.69,-2.02,-2.65,-2.58,-2.55
258.00,-1.24,1.30,-1.24,1.29,-1.33,-1.63,-1.99,-2.56,-2.57,-2.53
260.58,-1.16,1.36,-1.20,1.32,-1.34,-1.58,-1.95,-2.49,-2.54,-2.52
263.19,-1.16,1.34,-1.14,1.36,-1.35,-1.52,-1.91,-2.50,-2.49,-2.49
265.82,-1.12,1.36,-1.11,1.37,-1.37,-1.47,-1.87,-2.48,-2.47,-2.48
268.48,-1.07,1.38,-1.06,1.39,-1.38,-1.42,-1.82,-2.45,-2.45,-2.45
271.16,-1.02,1.41,-1.01,1.41,-1.40,-1.36,-1.77,-2.42,-2.41,-2.42
273.87,-0.97,1.44,-0.98,1.42,-1.41,-1.31,-1.72,-2.37,-2.39,-2.41
276.61,-0.97,1.42,-0.96,1.42,-1.40,-1.26,-1.67,-2.37,-2.37,-2.38
279.38,-0.97,1.39,-0.95,1.40,-1.39,-1.20,-1.61,-2.36,-2.34,-2.35
282.17,-0.97,1.37,-0.96,1.37,-1.37,-1.15,-1.55,-2.33,-2.33,-2.34
284.99,-0.96,1.34,-0.99,1.31,-1.33,-1.10,-1.49,-2.29,-2.32,-2.30
287.84,-1.03,1.25,-1.00,1.27,-1.27,-1.04,-1.43,-2.30,-2.28,-2.27
290.72,-1.07,1.17,-1.01,1.22,-1.20,-0.99,-1.37,-2.27,-2.21,-2.24
293.63,-0.98,1.23,-1.03,1.17,-1.13,-0.93,-1.30,-2.10,-2.16,-2.21
296.57,-1.06,1.11,-1.07,1.10,-1.05,-0.88,-1.24,-2.11,-2.13,-2.17
299.53,-1.17,0.99,-1.15,1.00,-0.99,-0.82,-1.17,-2.16,-2.14,-2.15
302.53,-1.27,0.86,-1.26,0.86,-0.94,-0.76,-1.10,-2.21,-2.20,-2.12
305.55,-1.31,0.78,-1.30,0.80,-0.90,-0.71,-1.03,-2.20,-2.20,-2.09
308.61,-1.32,0.75,-1.27,0.80,-0.86,-0.65,-0.96,-2.17,-2.13,-2.07
311.69,-1.19,0.87,-1.22,0.82,-0.83,-0.59,-0.89,-2.01,-2.04,-2.05
314.81,-1.16,0.86,-1.18,0.84,-0.80,-0.53,-0.82,-1.95,-1.98,-2.01
317.96,-1.19,0.82,-1.17,0.83,-0.77,-0.47,-0.75,-1.95,-1.94,-2.00
321.14,-1.24,0.75,-1.22,0.77,-0.73,-0.40,-0.68,-1.97,-1.95,-1.99
324.35,-1.27,0.71,-1.30,0.67,-0.67,-0.34,-0.61,-1.94,-1.98,-1.98
327.59,-1.41,0.55,-1.38,0.58,-0.58,-0.27,-0.54,-1.99,-1.97,-1.96
330.87,-1.51,0.45,-1.47,0.48,-0.46,-0.20,-0.46,-1.97,-1.93,-1.95
334.18,-1.56,0.39,-1.59,0.35,-0.32,-0.13,-0.39,-1.88,-1.91,-1.94
337.52,-1.71,0.23,-1.74,0.19,-0.17,-0.05,-0.32,-1.88,-1.92,-1.93
340.90,-1.95,-0.03,-1.92,-0.00,-0.01,0.03,-0.25,-1.95,-1.93,-1.92
344.30,-2.15,-0.24,-2.10,-0.20,0.17,0.11,-0.17,-1.98,-1.94,-1.91
347.75,-2.25,-0.35,-2.28,-0.38,0.35,0.19,-0.10,-1.90,-1.93,-1.90
351.23,-2.40,-0.50,-2.41,-0.52,0.53,0.27,-0.03,-1.86,-1.88,-1.89
354.74,-2.60,-0.70,-2.55,-0.66,0.71,0.36,0.05,-1.89,-1.84,-1.89
358.28,-2.70,-0.81,-2.74,-0.86,0.86,0.46,0.12,-1.83,-1.88,-1.88
361.87,-2.89,-1.00,-2.94,-1.06,1.00,0.55,0.19,-1.88,-1.94,-1.88
365.49,-3.18,-1.30,-3.06,-1.18,1.13,0.65,0.27,-2.04,-1.92,-1.87
369.14,-3.19,-1.31,-3.17,-1.29,1.26,0.75,0.34,-1.93,-1.91,-1.88
372.83,-3.12,-1.24,-3.26,-1.38,1.38,0.86,0.41,-1.74,-1.88,-1.88
376.56,-3.37,-1.49,-3.28,-1.41,1.49,0.97,0.48,-1.88,-1.79,-1.88
380.33,-3.43,-1.57,-3.37,-1.50,1.57,1.08,0.56,-1.86,-1.80,-1.86
384.13,-3.37,-1.50,-3.50,-1.63,1.62,1.19,0.63,-1.74,-1.88,-1.87
387.97,-3.63,-1.75,-3.61,-1.74,1.68,1.30,0.70,-1.95,-1.94,-1.87
391.85,-3.77,-1.89,-3.69,-1.82,1.74,1.41,0.78,-2.03,-1.95,-1.87
395.77,-3.76,-1.89,-3.70,-1.84,1.80,1.52,0.85,-1.95,-1.90,-1.86
399.73,-3.57,-1.70,-3.62,-1.76,1.85,1.63,0.92,-1.71,-1.77,-1.86
403.72,-3.57,-1.69,-3.62,-1.75,1.88,1.73,0.99,-1.68,-1.73,-1.87
407.76,-3.69,-1.81,-3.74,-1.87,1.89,1.83,1.06,-1.80,-1.85,-1.87
411.84,-3.94,-2.07,-3.88,-2.00,1.88,1.92,1.13,-2.05,-2.00,-1.86
415.96,-4.03,-2.15,-3.88,-2.01,1.88,2.00,1.20,-2.15,-2.00,-1.88
420.12,-3.73,-1.85,-3.79,-1.92,1.88,2.06,1.26,-1.84,-1.91,-1.88
424.32,-3.56,-1.69,-3.67,-1.80,1.89,2.12,1.33,-1.67,-1.78,-1.87
428.56,-3.66,-1.79,-3.62,-1.75,1.89,2.16,1.39,-1.77,-1.73,-1.87
432.85,-3.70,-1.85,-3.65,-1.81,1.86,2.18,1.45,-1.84,-1.80,-1.85
437.18,-3.67,-1.84,-3.68,-1.85,1.80,2.19,1.51,-1.86,-1.87,-1.83
441.55,-3.64,-1.85,-3.66,-1.87,1.75,2.19,1.57,-1.88,-1.91,-1.79
445.96,-3.59,-1.83,-3.58,-1.82,1.72,2.17,1.63,-1.86,-1.86,-1.76
450.42,-3.54,-1.81,-3.42,-1.70,1.70,2.14,1.68,-1.83,-1.72,-1.73
454.93,-3.22,-1.55,-3.28,-1.60,1.68,2.10,1.73,-1.53,-1.60,-1.67
459.48,-3.08,-1.44,-3.19,-1.56,1.66,2.05,1.77,-1.42,-1.53,-1.63
464.07,-3.22,-1.64,-3.14,-1.57,1.64,1.99,1.81,-1.58,-1.51,-1.57
468.71,-3.21,-1.68,-3.17,-1.65,1.64,1.93,1.85,-1.57,-1.53,-1.52
473.40,-3.14,-1.66,-3.16,-1.69,1.65,1.87,1.88,-1.49,-1.51,-1.47
