frequency,raw,error,smoothed,error_smoothed,equalization,parametric_eq,fixed_band_eq,equalized_raw,equalized_smoothed,target
20.00,-8.89,-7.94,-8.89,-7.94,6.00,5.19,1.81,-2.89,-2.89,-0.95
20.20,-8.80,-7.85,-8.80,-7.85,6.00,5.16,1.86,-2.80,-2.80,-0.95
20.40,-8.70,-7.75,-8.70,-7.76,6.00,5.14,1.92,-2.70,-2.70,-0.95
20.61,-8.61,-7.67,-8.61,-7.66,6.00,5.11,1.98,-2.61,-2.61,-0.94
20.81,-8.51,-7.57,-8.51,-7.57,6.00,5.09,2.04,-2.51,-2.51,-0.94
21.02,-8.42,-7.48,-8.42,-7.48,6.00,5.06,2.10,-2.42,-2.42,-0.94
21.23,-8.32,-7.38,-8.32,-7.38,6.00,5.03,2.16,-2.32,-2.32,-0.94
21.44,-8.22,-7.29,-8.22,-7.28,6.00,5.00,2.23,-2.22,-2.22,-0.93
21.66,-8.12,-7.19,-8.12,-7.18,6.00,4.97,2.30,-2.12,-2.12,-0.93
21.87,-8.02,-7.08,-8.02,-7.08,6.00,4.94,2.37,-2.02,-2.02,-0.93
22.09,-7.91,-6.97,-7.91,-6.98,6.00,4.91,2.44,-1.91,-1.91,-0.93
22.31,-7.80,-6.87,-7.80,-6.87,6.00,4.88,2.51,-1.80,-1.80,-0.93
22.54,-7.69,-6.76,-7.69,-6.76,6.00,4.85,2.58,-1.69,-1.69,-0.94
22.76,-7.58,-6.65,-7.58,-6.65,6.00,4.82,2.66,-1.57,-1.58,-0.93
22.99,-7.48,-6.55,-7.48,-6.55,6.01,4.78,2.74,-1.47,-1.46,-0.93
23.22,-7.37,-6.44,-7.37,-6.45,6.02,4.75,2.82,-1.35,-1.35,-0.93
23.45,-7.27,-6.34,-7.27,-6.34,6.02,4.72,2.90,-1.25,-1.25,-0.93
23.69,-7.17,-6.24,-7.17,-6.24,6.01,4.68,2.99,-1.16,-1.16,-0.93
23.92,-7.07,-6.15,-7.07,-6.14,5.99,4.65,3.07,-1.08,-1.08,-0.92
24.16,-6.97,-6.04,-6.97,-6.04,5.95,4.61,3.16,-1.02,-1.02,-0.93
24.40,-6.86,-5.93,-6.86,-5.94,5.89,4.57,3.25,-0.97,-0.98,-0.93
24.65,-6.76,-5.83,-6.76,-5.83,5.80,4.54,3.34,-0.96,-0.96,-0.93
24.89,-6.65,-5.71,-6.65,-5.71,5.70,4.50,3.43,-0.95,-0.95,-0.94
25.14,-6.53,-5.59,-6.52,-5.58,5.58,4.46,3.52,-0.95,-0.94,-0.94
25.39,-6.39,-5.44,-6.39,-5.44,5.45,4.42,3.61,-0.93,-0.94,-0.95
25.65,-6.26,-5.31,-6.25,-5.30,5.32,4.38,3.70,-0.94,-0.93,-0.95
25.91,-6.12,-5.16,-6.13,-5.17,5.20,4.34,3.79,-0.93,-0.93,-0.96
26.16,-6.02,-5.05,-6.03,-5.06,5.08,4.30,3.88,-0.94,-0.94,-0.96
26.43,-5.94,-4.97,-5.93,-4.96,4.98,4.26,3.97,-0.96,-0.95,-0.97
26.69,-5.85,-4.87,-5.85,-4.88,4.88,4.21,4.06,-0.97,-0.97,-0.98
26.96,-5.77,-4.79,-5.77,-4.79,4.80,4.17,4.14,-0.98,-0.98,-0.98
27.23,-5.69,-4.71,-5.69,-4.71,4.71,4.12,4.22,-0.98,-0.98,-0.98
27.50,-5.61,-4.62,-5.61,-4.63,4.62,4.08,4.30,-0.99,-0.99,-0.99
27.77,-5.53,-4.54,-5.53,-4.55,4.53,4.03,4.38,-1.00,-1.00,-0.99
28.05,-5.45,-4.47,-5.44,-4.45,4.43,3.98,4.45,-1.02,-1.01,-0.98
28.33,-5.32,-4.34,-5.32,-4.34,4.31,3.93,4.51,-1.01,-1.01,-0.98
28.62,-5.19,-4.21,-5.19,-4.21,4.19,3.89,4.58,-1.00,-1.00,-0.98
28.90,-5.05,-4.07,-5.06,-4.07,4.07,3.83,4.63,-0.98,-0.98,-0.98
29.19,-4.93,-3.95,-4.92,-3.94,3.96,3.78,4.68,-0.97,-0.97,-0.98
29.48,-4.80,-3.81,-4.79,-3.81,3.84,3.73,4.71,-0.96,-0.95,-0.99
29.78,-4.67,-3.69,-4.68,-3.69,3.74,3.68,4.75,-0.94,-0.94,-0.99
30.08,-4.57,-3.57,-4.58,-3.59,3.63,3.62,4.77,-0.95,-0.96,-1.00
30.38,-4.51,-3.51,-4.52,-3.52,3.52,3.57,4.78,-1.00,-1.00,-1.00
30.68,-4.46,-3.46,-4.46,-3.46,3.41,3.51,4.79,-1.05,-1.05,-1.00
30.99,-4.40,-3.39,-4.37,-3.36,3.30,3.46,4.78,-1.10,-1.07,-1.01
31.30,-4.24,-3.23,-4.24,-3.23,3.19,3.40,4.77,-1.05,-1.05,-1.01
31.61,-4.08,-3.06,-4.08,-3.06,3.08,3.34,4.74,-1.00,-1.00,-1.02
31.93,-3.91,-2.89,-3.93,-2.91,2.96,3.28,4.71,-0.95,-0.97,-1.03
32.24,-3.82,-2.78,-3.83,-2.79,2.83,3.22,4.66,-0.98,-1.00,-1.04
32.57,-3.76,-2.71,-3.75,-2.71,2.70,3.16,4.61,-1.06,-1.05,-1.05
32.89,-3.69,-2.64,-3.67,-2.62,2.57,3.09,4.55,-1.12,-1.10,-1.05
33.22,-3.56,-2.51,-3.55,-2.49,2.45,3.03,4.47,-1.11,-1.10,-1.05
33.55,-3.40,-2.33,-3.40,-2.34,2.34,2.96,4.40,-1.06,-1.06,-1.06
33.89,-3.24,-2.16,-3.26,-2.19,2.23,2.89,4.31,-1.01,-1.03,-1.08
34.23,-3.15,-2.07,-3.16,-2.08,2.13,2.83,4.22,-1.02,-1.03,-1.08
34.57,-3.10,-2.01,-3.09,-2.00,2.02,2.76,4.11,-1.08,-1.07,-1.09
34.92,-3.04,-1.95,-3.03,-1.94,1.92,2.69,4.01,-1.12,-1.11,-1.09
35.27,-2.95,-1.86,-2.95,-1.85,1.82,2.62,3.90,-1.13,-1.13,-1.09
35.62,-2.85,-1.75,-2.85,-1.75,1.73,2.54,3.78,-1.12,-1.12,-1.10
35.97,-2.75,-1.64,-2.75,-1.65,1.64,2.47,3.66,-1.11,-1.11,-1.11
36.33,-2.65,-1.54,-2.65,-1.54,1.55,2.39,3.53,-1.10,-1.11,-1.11
36.70,-2.56,-1.45,-2.56,-1.44,1.45,2.32,3.41,-1.11,-1.10,-1.11
37.06,-2.46,-1.34,-2.46,-1.35,1.36,2.24,3.28,-1.10,-1.10,-1.12
37.43,-2.37,-1.25,-2.37,-1.25,1.26,2.16,3.14,-1.10,-1.10,-1.12
37.81,-2.28,-1.17,-2.28,-1.17,1.17,2.08,3.01,-1.11,-1.11,-1.11
38.19,-2.20,-1.09,-2.21,-1.09,1.09,2.00,2.88,-1.11,-1.12,-1.11
38.57,-2.13,-1.01,-2.13,-1.01,1.00,1.92,2.74,-1.13,-1.13,-1.12
38.95,-2.06,-0.94,-2.05,-0.93,0.92,1.83,2.60,-1.14,-1.13,-1.12
39.34,-1.96,-0.84,-1.96,-0.83,0.83,1.75,2.46,-1.13,-1.13,-1.12
39.74,-1.86,-0.73,-1.86,-0.74,0.74,1.66,2.33,-1.12,-1.12,-1.13
40.14,-1.76,-0.63,-1.77,-0.64,0.65,1.57,2.19,-1.11,-1.12,-1.13
40.54,-1.69,-0.56,-1.69,-0.55,0.56,1.48,2.05,-1.13,-1.13,-1.13
40.94,-1.61,-0.47,-1.60,-0.46,0.46,1.39,1.91,-1.15,-1.15,-1.14
41.35,-1.52,-0.37,-1.52,-0.37,0.35,1.30,1.78,-1.17,-1.17,-1.15
41.76,-1.42,-0.25,-1.42,-0.26,0.24,1.21,1.64,-1.18,-1.18,-1.17
42.18,-1.33,-0.15,-1.33,-0.15,0.13,1.11,1.51,-1.20,-1.20,-1.18
42.60,-1.23,-0.03,-1.23,-0.03,0.03,1.01,1.37,-1.20,-1.20,-1.19
43.03,-1.13,0.08,-1.12,0.09,-0.07,0.92,1.24,-1.20,-1.19,-1.21
43.46,-1.03,0.20,-1.02,0.21,-0.16,0.82,1.10,-1.19,-1.18,-1.23
43.90,-0.93,0.32,-0.96,0.29,-0.25,0.72,0.97,-1.18,-1.21,-1.25
44.33,-0.91,0.35,-0.92,0.34,-0.34,0.62,0.83,-1.25,-1.26,-1.26
44.78,-0.91,0.37,-0.89,0.39,-0.42,0.52,0.70,-1.33,-1.31,-1.28
45.23,-0.86,0.43,-0.84,0.45,-0.51,0.41,0.57,-1.37,-1.35,-1.29
45.68,-0.75,0.56,-0.76,0.55,-0.59,0.31,0.44,-1.34,-1.34,-1.31
46.13,-0.65,0.67,-0.65,0.67,-0.66,0.20,0.31,-1.31,-1.31,-1.32
46.60,-0.55,0.77,-0.55,0.78,-0.74,0.10,0.18,-1.29,-1.29,-1.32
47.06,-0.46,0.87,-0.48,0.85,-0.82,-0.01,0.05,-1.28,-1.31,-1.33
47.53,-0.43,0.90,-0.43,0.90,-0.90,-0.12,-0.08,-1.33,-1.33,-1.33
48.01,-0.41,0.92,-0.38,0.96,-0.96,-0.23,-0.20,-1.37,-1.34,-1.33
48.49,-0.32,1.01,-0.32,1.01,-1.00,-0.34,-0.33,-1.33,-1.32,-1.33
48.97,-0.23,1.09,-0.26,1.06,-1.03,-0.45,-0.45,-1.26,-1.30,-1.32
49.46,-0.23,1.09,-0.23,1.10,-1.06,-0.56,-0.58,-1.29,-1.28,-1.32
49.96,-0.23,1.09,-0.23,1.09,-1.08,-0.67,-0.70,-1.31,-1.31,-1.32
50.46,-0.23,1.08,-0.23,1.08,-1.11,-0.79,-0.82,-1.34,-1.34,-1.31
50.96,-0.23,1.08,-0.22,1.09,-1.14,-0.90,-0.95,-1.37,-1.36,-1.31
51.47,-0.18,1.12,-0.18,1.12,-1.17,-1.01,-1.07,-1.35,-1.35,-1.30
51.99,-0.13,1.18,-0.12,1.19,-1.20,-1.12,-1.18,-1.33,-1.33,-1.31
52.51,-0.06,1.26,-0.06,1.26,-1.24,-1.24,-1.30,-1.30,-1.30,-1.32
53.03,0.00,1.33,-0.02,1.31,-1.27,-1.35,-1.42,-1.27,-1.29,-1.33
53.56,0.00,1.34,0.00,1.34,-1.31,-1.46,-1.53,-1.31,-1.31,-1.34
54.10,0.00,1.35,0.01,1.36,-1.35,-1.57,-1.64,-1.35,-1.34,-1.35
54.64,0.00,1.37,0.00,1.37,-1.37,-1.69,-1.75,-1.37,-1.37,-1.37
55.18,0.00,1.39,0.00,1.39,-1.39,-1.80,-1.85,-1.39,-1.39,-1.39
55.74,0.00,1.41,0.00,1.42,-1.40,-1.91,-1.95,-1.40,-1.40,-1.41
56.29,0.00,1.44,0.00,1.44,-1.42,-2.02,-2.05,-1.42,-1.42,-1.44
56.86,0.00,1.47,-0.01,1.46,-1.47,-2.12,-2.15,-1.47,-1.49,-1.47
57.42,0.00,1.50,-0.01,1.49,-1.54,-2.23,-2.24,-1.54,-1.55,-1.50
58.00,0.00,1.53,0.04,1.57,-1.63,-2.33,-2.32,-1.63,-1.60,-1.53
58.58,0.13,1.69,0.13,1.69,-1.74,-2.43,-2.41,-1.62,-1.62,-1.56
59.16,0.27,1.87,0.25,1.85,-1.87,-2.53,-2.48,-1.60,-1.61,-1.60
59.76,0.40,2.03,0.41,2.04,-2.00,-2.63,-2.56,-1.60,-1.59,-1.63
60.35,0.53,2.20,0.54,2.20,-2.15,-2.73,-2.63,-1.62,-1.61,-1.67
60.96,0.67,2.37,0.62,2.32,-2.29,-2.82,-2.69,-1.62,-1.67,-1.70
61.57,0.68,2.41,0.70,2.43,-2.42,-2.91,-2.74,-1.74,-1.72,-1.73
62.18,0.72,2.48,0.77,2.53,-2.54,-2.99,-2.80,-1.82,-1.77,-1.76
62.80,0.87,2.67,0.83,2.63,-2.64,-3.07,-2.84,-1.77,-1.80,-1.80
63.43,0.91,2.74,0.89,2.73,-2.72,-3.15,-2.88,-1.81,-1.82,-1.83
64.07,0.91,2.78,0.92,2.79,-2.78,-3.23,-2.92,-1.87,-1.86,-1.87
64.71,0.91,2.82,0.91,2.82,-2.83,-3.30,-2.95,-1.92,-1.92,-1.91
65.35,0.91,2.86,0.91,2.86,-2.86,-3.36,-2.98,-1.95,-1.95,-1.95
66.01,0.91,2.89,0.92,2.89,-2.88,-3.42,-3.00,-1.97,-1.96,-1.98
66.67,0.91,2.91,0.91,2.91,-2.88,-3.48,-3.02,-1.97,-1.97,-2.00
67.33,0.88,2.90,0.87,2.89,-2.87,-3.53,-3.03,-1.99,-2.00,-2.02
68.01,0.81,2.86,0.80,2.85,-2.85,-3.58,-3.04,-2.04,-2.05,-2.05
68.69,0.72,2.79,0.74,2.81,-2.83,-3.63,-3.05,-2.11,-2.09,-2.07
69.37,0.68,2.77,0.69,2.78,-2.81,-3.67,-3.05,-2.13,-2.12,-2.09
70.07,0.68,2.78,0.67,2.77,-2.79,-3.70,-3.05,-2.11,-2.12,-2.10
70.77,0.68,2.79,0.68,2.79,-2.78,-3.73,-3.05,-2.10,-2.10,-2.11
71.48,0.68,2.80,0.68,2.80,-2.79,-3.76,-3.05,-2.11,-2.11,-2.12
72.19,0.68,2.82,0.67,2.81,-2.81,-3.78,-3.04,-2.13,-2.14,-2.14
72.91,0.68,2.82,0.67,2.81,-2.85,-3.79,-3.04,-2.17,-2.18,-2.14
73.64,0.68,2.83,0.70,2.86,-2.89,-3.81,-3.03,-2.21,-2.19,-2.15
74.38,0.74,2.91,0.76,2.93,-2.94,-3.82,-3.02,-2.20,-2.18,-2.17
75.12,0.86,3.05,0.83,3.02,-2.99,-3.82,-3.02,-2.13,-2.16,-2.19
75.87,0.90,3.11,0.89,3.10,-3.04,-3.82,-3.01,-2.14,-2.15,-2.21
76.63,0.91,3.14,0.92,3.14,-3.11,-3.82,-3.01,-2.20,-2.19,-2.23
77.40,0.91,3.16,0.90,3.14,-3.17,-3.82,-3.00,-2.26,-2.28,-2.25
78.17,0.91,3.17,0.91,3.18,-3.24,-3.81,-3.00,-2.33,-2.33,-2.26
78.95,0.91,3.20,0.97,3.26,-3.30,-3.80,-2.99,-2.39,-2.33,-2.29
79.74,1.08,3.39,1.04,3.35,-3.36,-3.78,-2.99,-2.28,-2.32,-2.31
80.54,1.14,3.47,1.11,3.44,-3.42,-3.77,-2.99,-2.28,-2.31,-2.33
81.35,1.14,3.49,1.15,3.51,-3.47,-3.75,-2.99,-2.33,-2.31,-2.35
82.16,1.14,3.51,1.15,3.52,-3.50,-3.73,-3.00,-2.36,-2.36,-2.37
82.98,1.14,3.53,1.15,3.54,-3.52,-3.71,-3.00,-2.38,-2.38,-2.39
83.81,1.14,3.54,1.15,3.56,-3.53,-3.68,-3.01,-2.39,-2.38,-2.40
84.65,1.14,3.57,1.12,3.55,-3.51,-3.66,-3.02,-2.37,-2.39,-2.43
85.50,1.08,3.52,1.06,3.50,-3.49,-3.64,-3.03,-2.41,-2.43,-2.44
86.35,0.97,3.42,0.99,3.44,-3.46,-3.61,-3.05,-2.49,-2.47,-2.45
87.22,0.91,3.38,0.93,3.40,-3.44,-3.58,-3.07,-2.53,-2.51,-2.47
88.09,0.91,3.39,0.90,3.38,-3.43,-3.56,-3.09,-2.52,-2.53,-2.48
88.97,0.91,3.41,0.90,3.40,-3.42,-3.53,-3.11,-2.51,-2.52,-2.50
89.86,0.91,3.43,0.91,3.43,-3.42,-3.51,-3.13,-2.51,-2.51,-2.52
90.76,0.91,3.45,0.91,3.44,-3.43,-3.48,-3.16,-2.52,-2.52,-2.54
91.66,0.91,3.46,0.91,3.46,-3.45,-3.45,-3.19,-2.54,-2.54,-2.55
92.58,0.91,3.48,0.91,3.48,-3.47,-3.43,-3.22,-2.56,-2.56,-2.57
93.51,0.91,3.49,0.91,3.49,-3.49,-3.41,-3.26,-2.58,-2.58,-2.58
94.44,0.91,3.51,0.91,3.51,-3.52,-3.38,-3.29,-2.61,-2.61,-2.60
95.39,0.91,3.53,0.91,3.53,-3.54,-3.36,-3.33,-2.63,-2.63,-2.62
96.34,0.91,3.54,0.91,3.54,-3.56,-3.34,-3.37,-2.65,-2.65,-2.63
97.30,0.91,3.56,0.91,3.56,-3.56,-3.32,-3.42,-2.65,-2.65,-2.65
98.28,0.91,3.58,0.92,3.59,-3.56,-3.30,-3.46,-2.65,-2.64,-2.67
99.26,0.91,3.60,0.92,3.61,-3.55,-3.28,-3.51,-2.64,-2.64,-2.69
100.25,0.90,3.62,0.87,3.58,-3.54,-3.27,-3.56,-2.64,-2.67,-2.72
101.25,0.83,3.56,0.80,3.54,-3.54,-3.26,-3.60,-2.71,-2.73,-2.73
102.27,0.68,3.44,0.73,3.49,-3.54,-3.24,-3.65,-2.86,-2.81,-2.76
103.29,0.68,3.47,0.68,3.47,-3.54,-3.23,-3.70,-2.86,-2.86,-2.79
104.32,0.68,3.51,0.67,3.49,-3.54,-3.23,-3.75,-2.86,-2.88,-2.83
105.37,0.68,3.55,0.68,3.54,-3.55,-3.22,-3.80,-2.87,-2.87,-2.87
106.42,0.68,3.58,0.69,3.60,-3.56,-3.22,-3.85,-2.88,-2.87,-2.90
107.48,0.68,3.63,0.68,3.64,-3.59,-3.21,-3.90,-2.91,-2.90,-2.95
108.56,0.68,3.69,0.63,3.64,-3.61,-3.21,-3.95,-2.93,-2.98,-3.01
109.64,0.54,3.60,0.56,3.62,-3.62,-3.21,-3.99,-3.08,-3.06,-3.06
110.74,0.46,3.57,0.50,3.61,-3.63,-3.22,-4.04,-3.17,-3.13,-3.11
111.85,0.46,3.62,0.47,3.62,-3.62,-3.23,-4.08,-3.16,-3.16,-3.16
112.97,0.46,3.67,0.43,3.64,-3.62,-3.24,-4.11,-3.16,-3.19,-3.21
114.10,0.41,3.67,0.37,3.63,-3.62,-3.25,-4.15,-3.21,-3.26,-3.26
115.24,0.23,3.54,0.29,3.60,-3.63,-3.26,-4.17,-3.40,-3.34,-3.31
116.39,0.23,3.58,0.23,3.59,-3.64,-3.27,-4.20,-3.41,-3.40,-3.35
117.55,0.23,3.63,0.21,3.61,-3.64,-3.29,-4.21,-3.41,-3.43,-3.40
118.73,0.23,3.67,0.24,3.68,-3.64,-3.31,-4.23,-3.41,-3.40,-3.44
119.92,0.23,3.70,0.23,3.70,-3.65,-3.33,-4.23,-3.42,-3.42,-3.47
121.12,0.22,3.73,0.17,3.68,-3.65,-3.36,-4.23,-3.43,-3.48,-3.51
122.33,0.08,3.63,0.10,3.64,-3.65,-3.38,-4.22,-3.57,-3.55,-3.55
123.55,0.00,3.57,0.03,3.61,-3.65,-3.41,-4.21,-3.65,-3.62,-3.57
124.79,0.00,3.61,-0.00,3.60,-3.63,-3.43,-4.19,-3.63,-3.64,-3.61
126.03,0.00,3.63,0.01,3.63,-3.61,-3.46,-4.16,-3.61,-3.61,-3.63
127.29,-0.00,3.65,-0.02,3.63,-3.60,-3.49,-4.12,-3.60,-3.62,-3.65
128.57,-0.05,3.64,-0.09,3.59,-3.58,-3.52,-4.08,-3.63,-3.67,-3.69
129.85,-0.21,3.50,-0.16,3.55,-3.57,-3.55,-4.03,-3.78,-3.73,-3.71
131.15,-0.23,3.50,-0.22,3.52,-3.56,-3.58,-3.97,-3.79,-3.78,-3.73
132.46,-0.23,3.53,-0.23,3.53,-3.54,-3.60,-3.91,-3.77,-3.77,-3.76
133.79,-0.23,3.56,-0.24,3.55,-3.52,-3.63,-3.84,-3.75,-3.76,-3.79
135.12,-0.24,3.58,-0.29,3.53,-3.50,-3.65,-3.76,-3.74,-3.79,-3.82
136.48,-0.40,3.45,-0.37,3.48,-3.48,-3.66,-3.68,-3.88,-3.84,-3.85
137.84,-0.46,3.42,-0.42,3.45,-3.46,-3.68,-3.59,-3.92,-3.88,-3.88
139.22,-0.46,3.44,-0.47,3.43,-3.44,-3.69,-3.50,-3.90,-3.91,-3.90
140.61,-0.46,3.46,-0.50,3.42,-3.42,-3.69,-3.41,-3.88,-3.92,-3.92
142.02,-0.57,3.38,-0.56,3.39,-3.39,-3.69,-3.31,-3.96,-3.95,-3.95
143.44,-0.65,3.33,-0.62,3.36,-3.37,-3.67,-3.20,-4.02,-3.99,-3.98
144.87,-0.68,3.33,-0.67,3.34,-3.35,-3.66,-3.10,-4.03,-4.02,-4.01
146.32,-0.68,3.36,-0.70,3.34,-3.34,-3.62,-2.99,-4.02,-4.04,-4.04
147.78,-0.73,3.35,-0.76,3.32,-3.32,-3.59,-2.88,-4.05,-4.07,-4.08
149.26,-0.85,3.26,-0.81,3.30,-3.29,-3.54,-2.77,-4.14,-4.10,-4.11
150.75,-0.91,3.25,-0.89,3.27,-3.26,-3.49,-2.65,-4.17,-4.15,-4.16
152.26,-0.92,3.28,-0.96,3.24,-3.22,-3.42,-2.54,-4.14,-4.19,-4.20
153.78,-1.07,3.19,-1.07,3.19,-3.19,-3.36,-2.42,-4.26,-4.25,-4.26
155.32,-1.18,3.13,-1.19,3.12,-3.14,-3.27,-2.30,-4.32,-4.33,-4.31
156.88,-1.35,3.01,-1.30,3.06,-3.08,-3.18,-2.19,-4.43,-4.38,-4.36
158.44,-1.37,3.03,-1.38,3.03,-3.02,-3.08,-2.07,-4.39,-4.39,-4.40
160.03,-1.43,3.02,-1.47,2.97,-2.95,-2.98,-1.95,-4.38,-4.43,-4.45
161.63,-1.57,2.92,-1.58,2.91,-2.89,-2.86,-1.83,-4.46,-4.47,-4.49
163.24,-1.74,2.78,-1.70,2.82,-2.83,-2.74,-1.72,-4.57,-4.53,-4.52
164.88,-1.82,2.73,-1.81,2.73,-2.77,-2.61,-1.60,-4.59,-4.58,-4.55
166.53,-1.86,2.71,-1.90,2.66,-2.71,-2.48,-1.48,-4.57,-4.61,-4.57
168.19,-1.98,2.60,-1.96,2.63,-2.64,-2.34,-1.37,-4.62,-4.60,-4.58
169.87,-2.05,2.54,-2.02,2.57,-2.56,-2.20,-1.25,-4.61,-4.58,-4.59
171.57,-2.05,2.54,-2.09,2.50,-2.46,-2.05,-1.13,-4.51,-4.55,-4.59
173.29,-2.19,2.40,-2.17,2.42,-2.36,-1.91,-1.02,-4.55,-4.53,-4.59
175.02,-2.28,2.30,-2.30,2.28,-2.25,-1.75,-0.90,-4.53,-4.55,-4.58
176.77,-2.47,2.10,-2.48,2.09,-2.11,-1.60,-0.79,-4.58,-4.60,-4.57
178.54,-2.68,1.88,-2.64,1.91,-1.96,-1.44,-0.67,-4.64,-4.61,-4.56
180.32,-2.81,1.73,-2.79,1.75,-1.79,-1.27,-0.56,-4.60,-4.58,-4.54
182.13,-2.91,1.62,-2.92,1.60,-1.60,-1.11,-0.45,-4.51,-4.53,-4.53
183.95,-3.05,1.47,-3.09,1.43,-1.40,-0.94,-0.34,-4.45,-4.48,-4.52
185.79,-3.31,1.20,-3.30,1.21,-1.18,-0.77,-0.22,-4.49,-4.48,-4.51
187.65,-3.57,0.94,-3.56,0.95,-0.94,-0.60,-0.11,-4.51,-4.50,-4.51
189.52,-3.83,0.68,-3.83,0.68,-0.69,-0.43,-0.00,-4.52,-4.51,-4.51
191.42,-4.10,0.41,-4.09,0.43,-0.40,-0.26,0.11,-4.50,-4.49,-4.51
193.33,-4.36,0.17,-4.37,0.15,-0.11,-0.08,0.21,-4.47,-4.48,-4.53
195.27,-4.67,-0.14,-4.69,-0.17,0.19,0.09,0.32,-4.48,-4.50,-4.53
197.22,-5.04,-0.51,-5.02,-0.49,0.48,0.27,0.43,-4.56,-4.54,-4.53
199.19,-5.37,-0.83,-5.35,-0.81,0.76,0.45,0.53,-4.61,-4.60,-4.54
201.18,-5.63,-1.08,-5.65,-1.10,1.02,0.63,0.64,-4.61,-4.63,-4.55
203.19,-5.90,-1.34,-5.88,-1.32,1.27,0.80,0.74,-4.63,-4.60,-4.56
205.23,-6.09,-1.52,-6.07,-1.50,1.52,0.98,0.84,-4.57,-4.55,-4.57
207.28,-6.23,-1.64,-6.26,-1.67,1.74,1.15,0.94,-4.49,-4.52,-4.59
209.35,-6.46,-1.85,-6.49,-1.88,1.94,1.31,1.04,-4.52,-4.54,-4.61
211.44,-6.72,-2.10,-6.71,-2.08,2.12,1.48,1.14,-4.60,-4.58,-4.62
213.56,-6.98,-2.34,-6.94,-2.30,2.28,1.63,1.23,-4.70,-4.66,-4.64
215.69,-7.06,-2.41,-7.12,-2.47,2.41,1.78,1.32,-4.65,-4.71,-4.65
217.85,-7.27,-2.60,-7.23,-2.56,2.51,1.91,1.41,-4.76,-4.72,-4.67
220.03,-7.29,-2.62,-7.28,-2.60,2.58,2.04,1.49,-4.71,-4.71,-4.67
222.23,-7.29,-2.60,-7.32,-2.63,2.60,2.15,1.57,-4.69,-4.72,-4.69
224.45,-7.29,-2.59,-7.29,-2.59,2.58,2.26,1.65,-4.71,-4.71,-4.70
226.70,-7.29,-2.57,-7.24,-2.53,2.53,2.33,1.72,-4.76,-4.71,-4.72
228.96,-7.14,-2.42,-7.19,-2.46,2.45,2.41,1.79,-4.69,-4.73,-4.72
231.25,-7.09,-2.35,-7.09,-2.35,2.37,2.45,1.85,-4.72,-4.72,-4.74
233.57,-7.03,-2.28,-6.98,-2.23,2.27,2.49,1.91,-4.76,-4.71,-4.75
235.90,-6.85,-2.10,-6.92,-2.16,2.17,2.50,1.96,-4.68,-4.75,-4.75
238.26,-6.84,-2.07,-6.85,-2.08,2.08,2.50,2.01,-4.76,-4.77,-4.77
240.64,-6.84,-2.06,-6.77,-1.99,2.00,2.48,2.04,-4.84,-4.77,-4.77
243.05,-6.68,-1.90,-6.71,-1.93,1.93,2.46,2.08,-4.75,-4.78,-4.78
245.48,-6.61,-1.82,-6.64,-1.85,1.89,2.41,2.10,-4.72,-4.75,-4.79
247.93,-6.61,-1.82,-6.60,-1.81,1.86,2.35,2.12,-4.75,-4.74,-4.79
250.41,-6.61,-1.81,-6.60,-1.81,1.83,2.28,2.13,-4.78,-4.77,-4.80
252.92,-6.61,-1.81,-6.61,-1.81,1.81,2.20,2.14,-4.80,-4.80,-4.80
255.45,-6.61,-1.80,-6.61,-1.81,1.78,2.12,2.13,-4.83,-4.83,-4.81
258.00,-6.61,-1.80,-6.63,-1.82,1.75,2.03,2.13,-4.86,-4.88,-4.81
260.58,-6.61,-1.80,-6.60,-1.78,1.72,1.93,2.11,-4.89,-4.88,-4.81
263.19,-6.59,-1.76,-6.53,-1.71,1.69,1.83,2.09,-4.90,-4.85,-4.83
265.82,-6.40,-1.57,-6.46,-1.62,1.65,1.73,2.06,-4.75,-4.80,-4.83
268.48,-6.38,-1.54,-6.39,-1.55,1.62,1.63,2.03,-4.76,-4.78,-4.84
271.16,-6.38,-1.53,-6.36,-1.52,1.58,1.53,1.99,-4.80,-4.78,-4.85
273.87,-6.38,-1.53,-6.38,-1.52,1.54,1.43,1.95,-4.84,-4.84,-4.85
276.61,-6.38,-1.52,-6.38,-1.52,1.50,1.33,1.90,-4.88,-4.89,-4.86
279.38,-6.38,-1.51,-6.39,-1.53,1.46,1.23,1.85,-4.92,-4.93,-4.87
282.17,-6.38,-1.51,-6.36,-1.48,1.43,1.14,1.79,-4.95,-4.93,-4.87
284.99,-6.33,-1.45,-6.29,-1.41,1.39,1.04,1.73,-4.94,-4.90,-4.88
287.84,-6.16,-1.28,-6.22,-1.33,1.36,0.96,1.67,-4.80,-4.86,-4.88
290.72,-6.15,-1.27,-6.16,-1.27,1.33,0.87,1.60,-4.82,-4.83,-4.88
293.63,-6.15,-1.26,-6.13,-1.25,1.29,0.79,1.53,-4.86,-4.84,-4.89
296.57,-6.15,-1.26,-6.15,-1.26,1.28,0.71,1.46,-4.87,-4.87,-4.89
299.53,-6.15,-1.26,-6.15,-1.25,1.26,0.63,1.39,-4.89,-4.89,-4.89
302.53,-6.15,-1.25,-6.15,-1.25,1.26,0.55,1.31,-4.89,-4.89,-4.90
305.55,-6.15,-1.24,-6.15,-1.24,1.25,0.48,1.24,-4.90,-4.90,-4.91
308.61,-6.15,-1.24,-6.16,-1.25,1.23,0.41,1.16,-4.92,-4.94,-4.91
311.69,-6.15,-1.23,-6.15,-1.23,1.19,0.35,1.08,-4.96,-4.96,-4.92
314.81,-6.15,-1.22,-6.12,-1.18,1.14,0.29,1.00,-5.01,-4.98,-4.93
317.96,-6.01,-1.06,-6.02,-1.07,1.07,0.23,0.92,-4.94,-4.96,-4.95
321.14,-5.92,-0.95,-5.90,-0.94,0.97,0.17,0.84,-4.95,-4.93,-4.97
324.35,-5.75,-0.77,-5.80,-0.82,0.84,0.11,0.76,-4.91,-4.96,-4.98
327.59,-5.70,-0.71,-5.72,-0.73,0.69,0.06,0.68,-5.01,-5.03,-4.99
330.87,-5.65,-0.65,-5.58,-0.57,0.52,0.01,0.60,-5.13,-5.05,-5.00
334.18,-5.44,-0.42,-5.42,-0.40,0.35,-0.04,0.52,-5.09,-5.07,-5.02
337.52,-5.13,-0.10,-5.21,-0.18,0.17,-0.09,0.44,-4.96,-5.04,-5.03
340.90,-5.03,-0.00,-5.00,0.03,0.00,-0.13,0.36,-5.03,-5.00,-5.03
344.30,-4.84,0.20,-4.84,0.20,-0.14,-0.17,0.28,-4.98,-4.98,-5.04
347.75,-4.73,0.31,-4.72,0.32,-0.27,-0.22,0.20,-5.00,-4.99,-5.04
351.23,-4.60,0.44,-4.62,0.43,-0.37,-0.26,0.12,-4.97,-4.99,-5.04
354.74,-4.56,0.48,-4.57,0.47,-0.43,-0.30,0.04,-4.99,-5.00,-5.04
358.28,-4.56,0.49,-4.55,0.49,-0.47,-0.33,-0.04,-5.03,-5.02,-5.05
361.87,-4.56,0.48,-4.56,0.48,-0.50,-0.37,-0.12,-5.06,-5.05,-5.04
365.49,-4.56,0.48,-4.56,0.48,-0.52,-0.41,-0.20,-5.08,-5.08,-5.04
369.14,-4.56,0.48,-4.57,0.47,-0.54,-0.44,-0.28,-5.10,-5.11,-5.04
372.83,-4.56,0.48,-4.54,0.50,-0.56,-0.48,-0.36,-5.12,-5.10,-5.04
376.56,-4.51,0.52,-4.48,0.56,-0.58,-0.51,-0.44,-5.09,-5.06,-5.03
380.33,-4.36,0.67,-4.40,0.63,-0.61,-0.54,-0.52,-4.97,-5.01,-5.03
384.13,-4.33,0.70,-4.34,0.69,-0.64,-0.57,-0.60,-4.97,-4.98,-5.03
387.97,-4.33,0.71,-4.32,0.72,-0.67,-0.61,-0.67,-5.00,-4.99,-5.04
391.85,-4.33,0.71,-4.33,0.71,-0.70,-0.64,-0.75,-5.03,-5.02,-5.04
395.77,-4.33,0.71,-4.33,0.70,-0.71,-0.67,-0.83,-5.04,-5.04,-5.04
399.73,-4.33,0.70,-4.33,0.70,-0.70,-0.70,-0.91,-5.03,-5.03,-5.03
403.72,-4.33,0.70,-4.33,0.70,-0.70,-0.73,-0.98,-5.03,-5.03,-5.03
407.76,-4.33,0.70,-4.33,0.70,-0.70,-0.76,-1.06,-5.03,-5.03,-5.03
411.84,-4.33,0.70,-4.33,0.70,-0.70,-0.79,-1.14,-5.03,-5.03,-5.03
415.96,-4.33,0.70,-4.34,0.69,-0.72,-0.82,-1.21,-5.05,-5.06,-5.03
420.12,-4.33,0.70,-4.32,0.71,-0.75,-0.84,-1.29,-5.08,-5.07,-5.03
424.32,-4.31,0.72,-4.26,0.77,-0.78,-0.87,-1.36,-5.09,-5.04,-5.03
428.56,-4.16,0.87,-4.19,0.84,-0.83,-0.90,-1.43,-4.99,-5.02,-5.03
432.85,-4.10,0.93,-4.14,0.89,-0.88,-0.93,-1.50,-4.98,-5.02,-5.03
437.18,-4.10,0.93,-4.09,0.95,-0.94,-0.96,-1.58,-5.04,-5.02,-5.03
441.55,-4.10,0.95,-4.04,1.00,-1.00,-0.99,-1.65,-5.10,-5.04,-5.05
445.96,-3.94,1.11,-3.97,1.07,-1.07,-1.02,-1.71,-5.01,-5.04,-5.05
