frequency,raw,error,smoothed,error_smoothed,equalization,parametric_eq,fixed_band_eq,equalized_raw,equalized_smoothed,target
20.00,-12.75,-13.32,-12.75,-13.32,6.00,5.33,2.74,-6.75,-6.75,0.57
20.20,-12.67,-13.25,-12.67,-13.25,6.00,5.36,2.82,-6.67,-6.67,0.58
20.40,-12.59,-13.18,-12.58,-13.17,6.00,5.40,2.90,-6.59,-6.58,0.59
20.61,-12.51,-13.10,-12.50,-13.10,6.00,5.43,2.98,-6.51,-6.50,0.59
20.81,-12.42,-13.02,-12.42,-13.02,6.00,5.46,3.06,-6.42,-6.42,0.60
21.02,-12.34,-12.94,-12.34,-12.94,6.00,5.50,3.15,-6.34,-6.34,0.60
21.23,-12.27,-12.88,-12.27,-12.87,6.00,5.53,3.24,-6.27,-6.27,0.61
21.44,-12.20,-12.81,-12.19,-12.80,6.00,5.56,3.33,-6.20,-6.19,0.61
21.66,-12.12,-12.73,-12.12,-12.73,6.00,5.60,3.42,-6.12,-6.12,0.61
21.87,-12.05,-12.66,-12.05,-12.66,6.00,5.63,3.52,-6.05,-6.05,0.61
22.09,-11.98,-12.60,-11.98,-12.59,6.00,5.66,3.62,-5.98,-5.98,0.62
22.31,-11.91,-12.52,-11.90,-12.52,6.00,5.69,3.72,-5.91,-5.90,0.62
22.54,-11.83,-12.44,-11.83,-12.44,6.00,5.72,3.82,-5.83,-5.83,0.61
22.76,-11.76,-12.35,-11.75,-12.36,6.00,5.75,3.93,-5.76,-5.75,0.60
22.99,-11.68,-12.28,-11.68,-12.28,6.00,5.78,4.04,-5.68,-5.68,0.60
23.22,-11.62,-12.21,-11.62,-12.21,6.00,5.81,4.15,-5.62,-5.62,0.60
23.45,-11.56,-12.14,-11.56,-12.15,6.00,5.84,4.27,-5.56,-5.56,0.59
23.69,-11.50,-12.08,-11.50,-12.09,6.00,5.86,4.38,-5.50,-5.50,0.59
23.92,-11.44,-12.02,-11.43,-12.02,6.00,5.89,4.50,-5.44,-5.43,0.59
24.16,-11.36,-11.94,-11.35,-11.94,6.00,5.92,4.62,-5.36,-5.35,0.59
24.40,-11.26,-11.84,-11.26,-11.84,6.00,5.95,4.74,-5.26,-5.26,0.59
24.65,-11.17,-11.75,-11.16,-11.75,6.00,5.97,4.87,-5.17,-5.16,0.58
24.89,-11.07,-11.65,-11.08,-11.66,6.00,6.00,5.00,-5.07,-5.08,0.58
25.14,-11.01,-11.59,-11.01,-11.59,6.00,6.02,5.12,-5.01,-5.01,0.58
25.39,-10.96,-11.53,-10.96,-11.53,6.00,6.05,5.25,-4.96,-4.96,0.57
25.65,-10.92,-11.49,-10.92,-11.49,6.00,6.07,5.38,-4.92,-4.92,0.57
25.91,-10.88,-11.45,-10.87,-11.44,6.00,6.09,5.51,-4.88,-4.87,0.57
26.16,-10.82,-11.39,-10.82,-11.39,6.00,6.12,5.64,-4.82,-4.82,0.57
26.43,-10.77,-11.34,-10.77,-11.34,6.00,6.14,5.77,-4.77,-4.77,0.57
26.69,-10.71,-11.28,-10.71,-11.28,6.00,6.16,5.90,-4.71,-4.71,0.57
26.96,-10.66,-11.23,-10.65,-11.22,6.00,6.18,6.02,-4.66,-4.65,0.57
27.23,-10.59,-11.16,-10.59,-11.16,6.00,6.20,6.15,-4.59,-4.59,0.57
27.50,-10.52,-11.09,-10.52,-11.09,6.00,6.22,6.27,-4.52,-4.52,0.57
27.77,-10.45,-11.01,-10.45,-11.01,6.00,6.24,6.38,-4.45,-4.45,0.57
28.05,-10.37,-10.93,-10.37,-10.93,6.00,6.25,6.50,-4.37,-4.37,0.57
28.33,-10.29,-10.85,-10.29,-10.85,6.00,6.27,6.61,-4.29,-4.29,0.57
28.62,-10.20,-10.76,-10.20,-10.77,6.00,6.29,6.71,-4.20,-4.20,0.57
28.90,-10.12,-10.69,-10.12,-10.69,6.00,6.30,6.80,-4.12,-4.12,0.57
29.19,-10.04,-10.61,-10.04,-10.61,6.00,6.32,6.89,-4.04,-4.04,0.57
29.48,-9.96,-10.53,-9.96,-10.53,6.00,6.33,6.97,-3.96,-3.96,0.57
29.78,-9.88,-10.46,-9.88,-10.46,6.00,6.35,7.05,-3.88,-3.88,0.58
30.08,-9.80,-10.38,-9.80,-10.38,6.00,6.36,7.11,-3.80,-3.80,0.58
30.38,-9.74,-10.32,-9.74,-10.32,6.00,6.37,7.17,-3.74,-3.74,0.58
30.68,-9.68,-10.26,-9.68,-10.25,6.00,6.38,7.21,-3.68,-3.68,0.58
30.99,-9.62,-10.20,-9.62,-10.20,6.00,6.40,7.25,-3.62,-3.62,0.58
31.30,-9.56,-10.13,-9.56,-10.13,6.00,6.41,7.27,-3.56,-3.56,0.58
31.61,-9.50,-10.07,-9.50,-10.07,6.00,6.41,7.29,-3.50,-3.50,0.57
31.93,-9.43,-10.00,-9.43,-10.00,6.00,6.42,7.29,-3.43,-3.43,0.57
32.24,-9.37,-9.93,-9.36,-9.93,6.00,6.43,7.29,-3.37,-3.36,0.56
32.57,-9.30,-9.86,-9.29,-9.85,6.00,6.44,7.27,-3.30,-3.29,0.56
32.89,-9.23,-9.79,-9.24,-9.79,6.00,6.44,7.25,-3.23,-3.24,0.56
33.22,-9.19,-9.73,-9.20,-9.75,6.00,6.45,7.22,-3.19,-3.20,0.55
33.55,-9.17,-9.71,-9.16,-9.71,6.00,6.45,7.18,-3.17,-3.16,0.55
33.89,-9.14,-9.67,-9.13,-9.66,6.00,6.46,7.13,-3.14,-3.13,0.53
34.23,-9.07,-9.60,-9.07,-9.60,6.00,6.46,7.08,-3.07,-3.07,0.53
34.57,-8.99,-9.52,-8.99,-9.52,6.00,6.46,7.03,-2.99,-2.99,0.53
34.92,-8.91,-9.44,-8.91,-9.44,6.00,6.46,6.96,-2.91,-2.91,0.53
35.27,-8.84,-9.37,-8.84,-9.37,6.00,6.46,6.90,-2.84,-2.84,0.53
35.62,-8.78,-9.30,-8.78,-9.30,6.00,6.46,6.83,-2.78,-2.78,0.52
35.97,-8.72,-9.24,-8.72,-9.24,6.00,6.46,6.76,-2.72,-2.72,0.52
36.33,-8.66,-9.18,-8.66,-9.18,6.00,6.46,6.68,-2.66,-2.66,0.52
36.70,-8.59,-9.11,-8.59,-9.11,6.00,6.46,6.61,-2.59,-2.59,0.52
37.06,-8.52,-9.03,-8.51,-9.03,6.00,6.46,6.54,-2.52,-2.51,0.52
37.43,-8.44,-8.95,-8.43,-8.95,6.00,6.45,6.46,-2.44,-2.43,0.51
37.81,-8.36,-8.88,-8.37,-8.89,6.00,6.45,6.39,-2.36,-2.37,0.52
38.19,-8.32,-8.84,-8.34,-8.86,6.00,6.44,6.31,-2.32,-2.34,0.52
38.57,-8.33,-8.84,-8.32,-8.84,6.00,6.43,6.24,-2.33,-2.32,0.52
38.95,-8.33,-8.85,-8.30,-8.82,6.00,6.43,6.17,-2.33,-2.30,0.52
39.34,-8.26,-8.78,-8.25,-8.77,6.00,6.42,6.11,-2.26,-2.25,0.52
39.74,-8.17,-8.68,-8.18,-8.70,6.00,6.41,6.04,-2.17,-2.18,0.52
40.14,-8.10,-8.61,-8.10,-8.62,6.00,6.40,5.98,-2.10,-2.10,0.51
40.54,-8.03,-8.54,-8.03,-8.54,6.00,6.39,5.93,-2.03,-2.03,0.51
40.94,-7.97,-8.47,-7.96,-8.46,6.00,6.37,5.87,-1.97,-1.96,0.51
41.35,-7.87,-8.37,-7.86,-8.36,6.00,6.36,5.82,-1.87,-1.86,0.50
41.76,-7.76,-8.25,-7.76,-8.26,6.00,6.35,5.77,-1.76,-1.76,0.49
42.18,-7.66,-8.14,-7.65,-8.13,6.00,6.33,5.73,-1.66,-1.65,0.49
42.60,-7.57,-8.05,-7.56,-8.04,6.00,6.32,5.69,-1.57,-1.56,0.48
43.03,-7.48,-7.95,-7.52,-8.00,6.00,6.30,5.66,-1.48,-1.52,0.48
43.46,-7.51,-7.98,-7.51,-7.98,6.00,6.29,5.63,-1.51,-1.51,0.47
43.90,-7.53,-7.99,-7.49,-7.95,6.00,6.27,5.60,-1.53,-1.49,0.46
44.33,-7.47,-7.92,-7.45,-7.91,6.00,6.25,5.58,-1.47,-1.45,0.45
44.78,-7.37,-7.82,-7.40,-7.84,6.00,6.23,5.56,-1.37,-1.40,0.45
45.23,-7.33,-7.77,-7.36,-7.80,6.00,6.21,5.54,-1.33,-1.36,0.44
45.68,-7.35,-7.79,-7.33,-7.77,6.00,6.19,5.53,-1.35,-1.33,0.44
46.13,-7.32,-7.76,-7.28,-7.72,6.00,6.17,5.53,-1.32,-1.28,0.44
46.60,-7.20,-7.64,-7.21,-7.64,6.00,6.15,5.53,-1.20,-1.21,0.44
47.06,-7.09,-7.53,-7.12,-7.56,6.00,6.12,5.53,-1.09,-1.12,0.44
47.53,-7.05,-7.49,-7.05,-7.49,6.00,6.10,5.53,-1.05,-1.05,0.45
48.01,-7.02,-7.47,-6.99,-7.44,6.00,6.08,5.54,-1.02,-0.99,0.45
48.49,-6.92,-7.37,-6.92,-7.37,6.00,6.05,5.56,-0.92,-0.92,0.45
48.97,-6.83,-7.28,-6.84,-7.30,6.00,6.03,5.57,-0.83,-0.84,0.46
49.46,-6.77,-7.23,-6.77,-7.23,6.00,6.00,5.59,-0.77,-0.77,0.46
49.96,-6.72,-7.19,-6.71,-7.18,6.00,5.97,5.61,-0.72,-0.71,0.47
50.46,-6.67,-7.14,-6.67,-7.14,6.00,5.94,5.64,-0.67,-0.67,0.47
50.96,-6.62,-7.10,-6.62,-7.10,6.00,5.91,5.67,-0.62,-0.62,0.49
51.47,-6.57,-7.05,-6.56,-7.05,6.00,5.88,5.69,-0.57,-0.56,0.49
51.99,-6.51,-7.00,-6.52,-7.01,6.00,5.85,5.73,-0.51,-0.52,0.49
52.51,-6.48,-6.97,-6.48,-6.97,6.00,5.82,5.76,-0.48,-0.48,0.49
53.03,-6.46,-6.95,-6.44,-6.93,6.00,5.79,5.79,-0.46,-0.44,0.49
53.56,-6.39,-6.88,-6.39,-6.88,6.00,5.76,5.82,-0.39,-0.39,0.49
54.10,-6.32,-6.82,-6.32,-6.82,6.00,5.72,5.86,-0.32,-0.32,0.50
54.64,-6.25,-6.75,-6.25,-6.75,6.00,5.69,5.89,-0.25,-0.25,0.50
55.18,-6.19,-6.69,-6.19,-6.69,6.00,5.66,5.92,-0.19,-0.19,0.50
55.74,-6.14,-6.63,-6.12,-6.61,6.00,5.62,5.95,-0.14,-0.12,0.49
56.29,-6.06,-6.55,-6.05,-6.54,6.00,5.59,5.98,-0.06,-0.05,0.49
56.86,-5.97,-6.46,-6.02,-6.51,6.00,5.55,6.00,0.03,-0.02,0.49
57.42,-6.00,-6.47,-6.01,-6.49,6.00,5.51,6.03,0.01,-0.01,0.48
58.00,-6.07,-6.53,-5.99,-6.45,6.01,5.47,6.04,-0.06,0.02,0.46
58.58,-5.93,-6.38,-5.94,-6.39,6.01,5.44,6.06,0.08,0.07,0.45
59.16,-5.81,-6.24,-5.85,-6.28,6.02,5.40,6.07,0.21,0.17,0.44
59.76,-5.75,-6.17,-5.72,-6.14,6.01,5.36,6.07,0.26,0.29,0.42
60.35,-5.66,-6.06,-5.65,-6.05,5.99,5.32,6.07,0.34,0.35,0.40
60.96,-5.56,-5.93,-5.62,-6.00,5.97,5.28,6.06,0.41,0.35,0.37
61.57,-5.62,-5.97,-5.60,-5.95,5.93,5.24,6.04,0.31,0.32,0.35
62.18,-5.64,-5.95,-5.59,-5.90,5.87,5.19,6.02,0.23,0.28,0.31
62.80,-5.54,-5.82,-5.53,-5.81,5.80,5.15,5.99,0.26,0.26,0.28
63.43,-5.44,-5.67,-5.46,-5.70,5.70,5.11,5.96,0.27,0.24,0.23
64.07,-5.36,-5.55,-5.42,-5.61,5.61,5.07,5.92,0.25,0.19,0.20
64.71,-5.44,-5.58,-5.37,-5.52,5.52,5.02,5.87,0.08,0.15,0.15
65.35,-5.36,-5.47,-5.30,-5.41,5.43,4.98,5.81,0.07,0.12,0.11
66.01,-5.15,-5.22,-5.24,-5.31,5.34,4.93,5.75,0.19,0.10,0.07
66.67,-5.18,-5.21,-5.18,-5.21,5.26,4.89,5.69,0.08,0.08,0.03
67.33,-5.20,-5.20,-5.18,-5.18,5.19,4.84,5.62,-0.01,0.01,0.00
68.01,-5.21,-5.17,-5.21,-5.18,5.13,4.80,5.54,-0.08,-0.08,-0.04
68.69,-5.21,-5.14,-5.18,-5.11,5.08,4.75,5.46,-0.13,-0.09,-0.07
69.37,-5.14,-5.04,-5.13,-5.02,5.04,4.70,5.38,-0.10,-0.09,-0.10
70.07,-5.04,-4.91,-5.09,-4.96,5.00,4.66,5.29,-0.04,-0.09,-0.13
70.77,-5.09,-4.92,-5.09,-4.93,4.96,4.61,5.20,-0.13,-0.13,-0.16
71.48,-5.14,-4.95,-5.12,-4.93,4.92,4.56,5.10,-0.22,-0.20,-0.19
72.19,-5.16,-4.94,-5.13,-4.91,4.87,4.51,5.01,-0.29,-0.26,-0.22
72.91,-5.08,-4.82,-5.09,-4.84,4.81,4.46,4.91,-0.27,-0.29,-0.25
73.64,-5.03,-4.74,-5.04,-4.75,4.74,4.42,4.82,-0.28,-0.29,-0.29
74.38,-4.99,-4.66,-4.99,-4.66,4.67,4.37,4.72,-0.31,-0.32,-0.32
75.12,-4.95,-4.59,-4.95,-4.59,4.59,4.32,4.62,-0.36,-0.36,-0.36
75.87,-4.92,-4.51,-4.90,-4.50,4.49,4.27,4.52,-0.43,-0.41,-0.41
76.63,-4.84,-4.39,-4.83,-4.39,4.38,4.22,4.42,-0.46,-0.45,-0.44
77.40,-4.76,-4.27,-4.77,-4.28,4.27,4.17,4.33,-0.49,-0.50,-0.49
78.17,-4.69,-4.16,-4.70,-4.16,4.17,4.12,4.23,-0.52,-0.53,-0.53
78.95,-4.66,-4.08,-4.63,-4.05,4.06,4.06,4.14,-0.59,-0.56,-0.58
79.74,-4.55,-3.93,-4.57,-3.94,3.96,4.01,4.04,-0.59,-0.60,-0.62
80.54,-4.50,-3.83,-4.50,-3.83,3.85,3.96,3.95,-0.64,-0.65,-0.67
81.35,-4.47,-3.76,-4.46,-3.75,3.75,3.91,3.86,-0.72,-0.71,-0.71
82.16,-4.41,-3.66,-4.44,-3.68,3.65,3.86,3.77,-0.76,-0.79,-0.75
82.98,-4.44,-3.64,-4.38,-3.59,3.56,3.81,3.69,-0.88,-0.83,-0.79
83.81,-4.31,-3.47,-4.31,-3.47,3.47,3.75,3.61,-0.84,-0.84,-0.84
84.65,-4.21,-3.34,-4.24,-3.37,3.39,3.70,3.52,-0.82,-0.85,-0.87
85.50,-4.18,-3.27,-4.19,-3.27,3.31,3.65,3.45,-0.87,-0.87,-0.91
86.35,-4.20,-3.24,-4.18,-3.23,3.24,3.60,3.37,-0.95,-0.94,-0.96
87.22,-4.20,-3.20,-4.19,-3.19,3.18,3.54,3.30,-1.02,-1.01,-1.00
88.09,-4.20,-3.15,-4.20,-3.15,3.13,3.49,3.23,-1.06,-1.06,-1.04
88.97,-4.20,-3.12,-4.19,-3.11,3.10,3.44,3.16,-1.09,-1.09,-1.08
89.86,-4.20,-3.07,-4.21,-3.09,3.09,3.39,3.09,-1.11,-1.12,-1.13
90.76,-4.24,-3.07,-4.24,-3.07,3.09,3.33,3.03,-1.14,-1.15,-1.17
91.66,-4.31,-3.10,-4.27,-3.06,3.10,3.28,2.96,-1.21,-1.17,-1.21
92.58,-4.31,-3.06,-4.35,-3.10,3.11,3.23,2.90,-1.20,-1.24,-1.25
93.51,-4.41,-3.11,-4.43,-3.14,3.12,3.17,2.85,-1.29,-1.31,-1.29
94.44,-4.55,-3.22,-4.50,-3.17,3.13,3.12,2.79,-1.41,-1.37,-1.33
95.39,-4.58,-3.21,-4.57,-3.20,3.16,3.07,2.74,-1.41,-1.41,-1.37
96.34,-4.60,-3.19,-4.61,-3.20,3.20,3.01,2.69,-1.40,-1.41,-1.41
97.30,-4.64,-3.19,-4.64,-3.19,3.24,2.96,2.64,-1.40,-1.39,-1.45
98.28,-4.70,-3.20,-4.70,-3.21,3.28,2.91,2.59,-1.42,-1.42,-1.49
99.26,-4.78,-3.24,-4.80,-3.27,3.31,2.85,2.55,-1.47,-1.49,-1.53
100.25,-4.93,-3.36,-4.92,-3.35,3.34,2.80,2.50,-1.59,-1.58,-1.57
101.25,-5.04,-3.43,-5.02,-3.40,3.35,2.75,2.46,-1.69,-1.67,-1.61
102.27,-5.08,-3.42,-5.07,-3.41,3.35,2.69,2.42,-1.73,-1.72,-1.66
103.29,-5.06,-3.35,-5.07,-3.36,3.33,2.64,2.38,-1.73,-1.75,-1.71
104.32,-5.04,-3.28,-5.05,-3.29,3.28,2.59,2.35,-1.76,-1.76,-1.76
105.37,-5.02,-3.22,-5.01,-3.20,3.21,2.54,2.31,-1.81,-1.80,-1.80
106.42,-4.96,-3.11,-4.96,-3.12,3.11,2.48,2.27,-1.84,-1.85,-1.85
107.48,-4.90,-3.00,-4.90,-3.01,3.00,2.43,2.24,-1.89,-1.90,-1.90
108.56,-4.85,-2.90,-4.83,-2.88,2.89,2.38,2.21,-1.96,-1.94,-1.95
109.64,-4.74,-2.74,-4.75,-2.76,2.78,2.33,2.17,-1.96,-1.98,-2.00
110.74,-4.68,-2.64,-4.68,-2.64,2.67,2.27,2.14,-2.01,-2.01,-2.03
111.85,-4.61,-2.53,-4.61,-2.54,2.56,2.22,2.11,-2.05,-2.05,-2.07
112.97,-4.57,-2.46,-4.57,-2.46,2.46,2.17,2.08,-2.11,-2.11,-2.11
114.10,-4.53,-2.38,-4.52,-2.37,2.36,2.12,2.05,-2.17,-2.16,-2.15
115.24,-4.47,-2.29,-4.47,-2.29,2.27,2.07,2.01,-2.20,-2.20,-2.18
116.39,-4.41,-2.19,-4.41,-2.20,2.19,2.02,1.98,-2.22,-2.22,-2.22
117.55,-4.36,-2.12,-4.34,-2.10,2.12,1.96,1.95,-2.24,-2.23,-2.23
118.73,-4.28,-2.02,-4.30,-2.03,2.05,1.91,1.91,-2.23,-2.25,-2.26
119.92,-4.24,-1.96,-4.25,-1.97,1.99,1.86,1.88,-2.25,-2.26,-2.28
121.12,-4.24,-1.94,-4.20,-1.90,1.93,1.81,1.85,-2.31,-2.27,-2.30
122.33,-4.16,-1.85,-4.18,-1.87,1.87,1.76,1.81,-2.29,-2.31,-2.31
123.55,-4.13,-1.80,-4.16,-1.83,1.81,1.71,1.77,-2.32,-2.35,-2.33
124.79,-4.16,-1.81,-4.12,-1.78,1.75,1.66,1.74,-2.41,-2.37,-2.34
126.03,-4.10,-1.74,-4.07,-1.71,1.69,1.61,1.70,-2.41,-2.38,-2.36
127.29,-3.96,-1.58,-4.00,-1.62,1.62,1.56,1.66,-2.34,-2.38,-2.37
128.57,-3.90,-1.51,-3.91,-1.53,1.54,1.51,1.62,-2.36,-2.37,-2.39
129.85,-3.87,-1.47,-3.84,-1.44,1.45,1.46,1.58,-2.41,-2.39,-2.40
131.15,-3.79,-1.37,-3.79,-1.38,1.37,1.42,1.54,-2.42,-2.43,-2.41
132.46,-3.72,-1.28,-3.73,-1.29,1.28,1.37,1.49,-2.44,-2.45,-2.44
133.79,-3.67,-1.22,-3.65,-1.20,1.21,1.32,1.45,-2.46,-2.44,-2.45
135.12,-3.57,-1.10,-3.58,-1.11,1.14,1.27,1.40,-2.43,-2.44,-2.47
136.48,-3.51,-1.03,-3.52,-1.04,1.07,1.23,1.36,-2.44,-2.45,-2.48
137.84,-3.48,-0.98,-3.49,-0.99,1.01,1.18,1.31,-2.47,-2.48,-2.50
139.22,-3.48,-0.96,-3.47,-0.95,0.94,1.13,1.26,-2.54,-2.53,-2.52
140.61,-3.47,-0.93,-3.44,-0.91,0.87,1.09,1.21,-2.60,-2.57,-2.54
142.02,-3.39,-0.83,-3.40,-0.84,0.81,1.04,1.16,-2.58,-2.59,-2.56
143.44,-3.33,-0.74,-3.33,-0.75,0.74,0.99,1.11,-2.59,-2.59,-2.59
144.87,-3.27,-0.65,-3.26,-0.65,0.66,0.95,1.06,-2.61,-2.61,-2.61
146.32,-3.20,-0.56,-3.21,-0.57,0.58,0.90,1.01,-2.62,-2.63,-2.64
147.78,-3.17,-0.49,-3.15,-0.48,0.49,0.86,0.96,-2.68,-2.66,-2.68
149.26,-3.11,-0.40,-3.12,-0.40,0.40,0.81,0.91,-2.70,-2.71,-2.71
150.75,-3.07,-0.31,-3.08,-0.32,0.32,0.77,0.86,-2.75,-2.76,-2.76
152.26,-3.07,-0.26,-3.03,-0.22,0.23,0.73,0.81,-2.84,-2.80,-2.81
153.78,-2.99,-0.12,-3.01,-0.14,0.14,0.68,0.75,-2.84,-2.86,-2.87
155.32,-2.97,-0.04,-3.00,-0.08,0.06,0.64,0.70,-2.91,-2.95,-2.93
156.88,-3.02,-0.04,-2.98,0.01,-0.03,0.60,0.65,-3.04,-3.00,-2.98
158.44,-2.99,0.06,-2.95,0.09,-0.10,0.56,0.60,-3.09,-3.06,-3.04
160.03,-2.87,0.23,-2.91,0.18,-0.18,0.51,0.54,-3.04,-3.09,-3.09
161.63,-2.87,0.27,-2.87,0.27,-0.24,0.47,0.49,-3.11,-3.11,-3.14
163.24,-2.87,0.32,-2.86,0.32,-0.29,0.43,0.44,-3.16,-3.15,-3.19
164.88,-2.88,0.34,-2.87,0.34,-0.34,0.39,0.39,-3.21,-3.21,-3.22
166.53,-2.88,0.37,-2.88,0.36,-0.37,0.35,0.33,-3.24,-3.25,-3.24
168.19,-2.89,0.38,-2.88,0.38,-0.38,0.31,0.28,-3.27,-3.27,-3.26
169.87,-2.89,0.38,-2.89,0.38,-0.38,0.27,0.23,-3.27,-3.27,-3.27
171.57,-2.90,0.38,-2.90,0.38,-0.37,0.23,0.17,-3.27,-3.27,-3.28
173.29,-2.91,0.37,-2.90,0.37,-0.36,0.19,0.12,-3.26,-3.26,-3.28
175.02,-2.91,0.36,-2.91,0.36,-0.34,0.15,0.07,-3.25,-3.25,-3.26
176.77,-2.91,0.34,-2.93,0.32,-0.34,0.12,0.02,-3.24,-3.26,-3.25
178.54,-2.94,0.30,-2.93,0.30,-0.33,0.08,-0.04,-3.27,-3.26,-3.23
180.32,-2.95,0.26,-2.91,0.30,-0.33,0.04,-0.09,-3.27,-3.24,-3.21
182.13,-2.87,0.33,-2.87,0.32,-0.33,0.00,-0.14,-3.20,-3.20,-3.19
183.95,-2.80,0.37,-2.82,0.35,-0.34,-0.03,-0.20,-3.14,-3.16,-3.17
185.79,-2.78,0.38,-2.78,0.38,-0.36,-0.07,-0.25,-3.14,-3.14,-3.16
187.65,-2.77,0.39,-2.77,0.39,-0.38,-0.10,-0.30,-3.15,-3.15,-3.16
189.52,-2.75,0.40,-2.75,0.40,-0.41,-0.14,-0.36,-3.16,-3.17,-3.15
191.42,-2.74,0.41,-2.71,0.44,-0.44,-0.17,-0.41,-3.18,-3.15,-3.15
193.33,-2.66,0.49,-2.66,0.49,-0.48,-0.21,-0.46,-3.13,-3.14,-3.14
195.27,-2.59,0.56,-2.63,0.52,-0.51,-0.24,-0.52,-3.10,-3.14,-3.14
197.22,-2.61,0.55,-2.60,0.55,-0.55,-0.28,-0.57,-3.16,-3.15,-3.16
199.19,-2.62,0.54,-2.57,0.59,-0.59,-0.31,-0.62,-3.21,-3.17,-3.16
201.18,-2.53,0.64,-2.54,0.63,-0.64,-0.34,-0.68,-3.17,-3.18,-3.17
203.19,-2.47,0.71,-2.50,0.68,-0.68,-0.37,-0.73,-3.15,-3.18,-3.18
205.23,-2.47,0.72,-2.45,0.74,-0.72,-0.41,-0.78,-3.19,-3.17,-3.19
207.28,-2.44,0.76,-2.41,0.79,-0.76,-0.44,-0.83,-3.20,-3.18,-3.20
209.35,-2.36,0.85,-2.40,0.80,-0.80,-0.47,-0.88,-3.16,-3.21,-3.21
211.44,-2.38,0.85,-2.38,0.84,-0.84,-0.50,-0.93,-3.22,-3.22,-3.23
213.56,-2.42,0.82,-2.36,0.88,-0.88,-0.53,-0.98,-3.30,-3.24,-3.23
215.69,-2.31,0.94,-2.34,0.91,-0.93,-0.56,-1.03,-3.23,-3.26,-3.25
217.85,-2.29,0.97,-2.31,0.95,-0.97,-0.59,-1.08,-3.25,-3.28,-3.26
220.03,-2.29,0.99,-2.28,1.00,-1.00,-0.62,-1.13,-3.29,-3.28,-3.28
222.23,-2.29,1.00,-2.26,1.03,-1.03,-0.65,-1.17,-3.32,-3.29,-3.29
224.45,-2.21,1.08,-2.21,1.08,-1.06,-0.68,-1.22,-3.27,-3.28,-3.29
226.70,-2.15,1.15,-2.17,1.13,-1.09,-0.70,-1.26,-3.24,-3.26,-3.30
228.96,-2.15,1.16,-2.15,1.15,-1.12,-0.73,-1.30,-3.26,-3.27,-3.31
231.25,-2.17,1.13,-2.18,1.13,-1.14,-0.76,-1.34,-3.31,-3.32,-3.30
233.57,-2.20,1.11,-2.19,1.12,-1.16,-0.79,-1.37,-3.36,-3.35,-3.31
235.90,-2.20,1.11,-2.16,1.15,-1.19,-0.81,-1.40,-3.38,-3.34,-3.30
238.26,-2.08,1.22,-2.10,1.20,-1.21,-0.84,-1.44,-3.29,-3.31,-3.30
240.64,-2.02,1.27,-2.04,1.25,-1.23,-0.87,-1.46,-3.25,-3.27,-3.29
243.05,-2.01,1.27,-2.00,1.29,-1.26,-0.89,-1.49,-3.27,-3.25,-3.28
245.48,-1.99,1.29,-1.98,1.30,-1.29,-0.92,-1.51,-3.28,-3.27,-3.28
247.93,-1.96,1.31,-1.96,1.31,-1.32,-0.94,-1.54,-3.27,-3.28,-3.27
250.41,-1.94,1.33,-1.94,1.33,-1.33,-0.97,-1.55,-3.27,-3.27,-3.27
252.92,-1.93,1.33,-1.92,1.35,-1.34,-0.99,-1.57,-3.27,-3.26,-3.26
255.45,-1.91,1.36,-1.91,1.36,-1.34,-1.01,-1.58,-3.25,-3.25,-3.27
258.00,-1.90,1.37,-1.92,1.35,-1.33,-1.04,-1.59,-3.23,-3.25,-3.27
260.58,-1.94,1.34,-1.94,1.33,-1.32,-1.06,-1.60,-3.26,-3.26,-3.27
263.19,-1.99,1.29,-1.97,1.31,-1.31,-1.08,-1.61,-3.30,-3.28,-3.28
265.82,-2.00,1.28,-2.00,1.29,-1.30,-1.10,-1.61,-3.30,-3.30,-3.28
268.48,-2.00,1.29,-2.01,1.28,-1.30,-1.13,-1.61,-3.30,-3.31,-3.28
271.16,-2.01,1.28,-2.01,1.28,-1.30,-1.15,-1.61,-3.31,-3.31,-3.29
273.87,-2.01,1.28,-2.01,1.29,-1.30,-1.17,-1.61,-3.30,-3.30,-3.29
276.61,-2.01,1.29,-1.98,1.31,-1.30,-1.19,-1.61,-3.31,-3.29,-3.30
279.38,-1.94,1.36,-1.95,1.35,-1.32,-1.21,-1.60,-3.26,-3.26,-3.30
282.17,-1.90,1.39,-1.92,1.37,-1.34,-1.23,-1.59,-3.24,-3.26,-3.29
284.99,-1.91,1.38,-1.91,1.37,-1.38,-1.25,-1.59,-3.29,-3.29,-3.28
287.84,-1.92,1.37,-1.91,1.37,-1.42,-1.27,-1.58,-3.34,-3.33,-3.29
290.72,-1.91,1.37,-1.87,1.41,-1.46,-1.29,-1.57,-3.37,-3.33,-3.28
293.63,-1.79,1.48,-1.78,1.49,-1.50,-1.31,-1.56,-3.29,-3.29,-3.27
296.57,-1.66,1.61,-1.70,1.57,-1.54,-1.33,-1.55,-3.20,-3.24,-3.26
299.53,-1.63,1.64,-1.63,1.63,-1.58,-1.34,-1.54,-3.20,-3.21,-3.27
302.53,-1.63,1.63,-1.61,1.65,-1.61,-1.36,-1.53,-3.24,-3.22,-3.26
305.55,-1.62,1.64,-1.62,1.64,-1.64,-1.38,-1.52,-3.26,-3.26,-3.26
308.61,-1.62,1.65,-1.62,1.65,-1.66,-1.40,-1.51,-3.28,-3.28,-3.26
311.69,-1.61,1.66,-1.61,1.66,-1.68,-1.41,-1.50,-3.28,-3.29,-3.27
314.81,-1.61,1.67,-1.60,1.67,-1.68,-1.43,-1.49,-3.29,-3.29,-3.28
317.96,-1.60,1.68,-1.60,1.68,-1.68,-1.45,-1.48,-3.28,-3.28,-3.28
321.14,-1.60,1.69,-1.60,1.69,-1.69,-1.46,-1.47,-3.28,-3.28,-3.29
324.35,-1.60,1.70,-1.60,1.70,-1.69,-1.48,-1.46,-3.29,-3.29,-3.29
327.59,-1.60,1.71,-1.60,1.70,-1.70,-1.49,-1.46,-3.30,-3.30,-3.30
330.87,-1.61,1.71,-1.60,1.71,-1.71,-1.51,-1.45,-3.32,-3.32,-3.32
334.18,-1.61,1.72,-1.61,1.72,-1.72,-1.52,-1.45,-3.33,-3.33,-3.33
337.52,-1.61,1.73,-1.61,1.73,-1.73,-1.54,-1.44,-3.34,-3.34,-3.34
340.90,-1.61,1.73,-1.61,1.74,-1.74,-1.55,-1.44,-3.35,-3.35,-3.34
344.30,-1.61,1.74,-1.61,1.75,-1.75,-1.57,-1.44,-3.36,-3.36,-3.35
347.75,-1.61,1.77,-1.61,1.76,-1.76,-1.58,-1.44,-3.37,-3.37,-3.37
351.23,-1.61,1.78,-1.60,1.78,-1.77,-1.59,-1.44,-3.38,-3.37,-3.38
354.74,-1.61,1.79,-1.60,1.79,-1.78,-1.61,-1.44,-3.38,-3.38,-3.40
358.28,-1.60,1.81,-1.63,1.78,-1.79,-1.62,-1.45,-3.38,-3.41,-3.41
361.87,-1.66,1.76,-1.66,1.76,-1.79,-1.63,-1.45,-3.45,-3.45,-3.42
365.49,-1.72,1.72,-1.67,1.77,-1.79,-1.64,-1.46,-3.51,-3.46,-3.44
369.14,-1.67,1.78,-1.68,1.77,-1.78,-1.66,-1.46,-3.45,-3.46,-3.45
372.83,-1.65,1.81,-1.68,1.78,-1.76,-1.67,-1.47,-3.41,-3.44,-3.46
376.56,-1.72,1.75,-1.71,1.77,-1.73,-1.68,-1.48,-3.45,-3.44,-3.47
380.33,-1.77,1.72,-1.77,1.71,-1.69,-1.69,-1.49,-3.46,-3.46,-3.48
384.13,-1.86,1.64,-1.84,1.65,-1.64,-1.70,-1.50,-3.50,-3.48,-3.49
387.97,-1.91,1.60,-1.92,1.58,-1.58,-1.71,-1.51,-3.49,-3.50,-3.50
391.85,-2.01,1.51,-2.02,1.50,-1.50,-1.72,-1.53,-3.51,-3.52,-3.52
395.77,-2.13,1.40,-2.11,1.42,-1.42,-1.73,-1.54,-3.54,-3.53,-3.53
399.73,-2.20,1.34,-2.20,1.34,-1.33,-1.74,-1.56,-3.53,-3.52,-3.54
403.72,-2.28,1.27,-2.28,1.27,-1.25,-1.75,-1.57,-3.53,-3.53,-3.55
407.76,-2.34,1.23,-2.37,1.19,-1.19,-1.76,-1.59,-3.53,-3.57,-3.57
411.84,-2.47,1.11,-2.46,1.12,-1.16,-1.77,-1.60,-3.62,-3.62,-3.58
415.96,-2.55,1.04,-2.51,1.08,-1.14,-1.77,-1.62,-3.69,-3.65,-3.59
420.12,-2.50,1.09,-2.51,1.09,-1.14,-1.78,-1.64,-3.64,-3.65,-3.59
424.32,-2.44,1.16,-2.45,1.15,-1.17,-1.79,-1.66,-3.60,-3.61,-3.60
428.56,-2.37,1.23,-2.36,1.24,-1.21,-1.80,-1.67,-3.58,-3.57,-3.60
432.85,-2.28,1.31,-2.29,1.31,-1.28,-1.80,-1.69,-3.55,-3.56,-3.59
437.18,-2.20,1.39,-2.22,1.36,-1.35,-1.81,-1.71,-3.55,-3.58,-3.58
