frequency,raw,error,smoothed,error_smoothed,equalization,parametric_eq,fixed_band_eq,equalized_raw,equalized_smoothed,target
20.00,-8.95,-13.18,-8.95,-13.18,6.00,6.04,2.86,-2.95,-2.95,4.23
20.20,-8.87,-13.08,-8.88,-13.08,6.00,6.03,2.94,-2.87,-2.88,4.21
20.40,-8.80,-12.98,-8.80,-12.98,6.00,6.03,3.02,-2.80,-2.80,4.18
20.61,-8.72,-12.88,-8.72,-12.88,6.00,6.03,3.11,-2.72,-2.72,4.16
20.81,-8.64,-12.78,-8.64,-12.77,6.00,6.02,3.20,-2.64,-2.64,4.14
21.02,-8.56,-12.67,-8.56,-12.67,6.00,6.02,3.29,-2.56,-2.56,4.11
21.23,-8.47,-12.56,-8.48,-12.56,6.00,6.01,3.38,-2.47,-2.48,4.09
21.44,-8.39,-12.46,-8.39,-12.46,6.00,6.01,3.48,-2.39,-2.39,4.07
21.66,-8.31,-12.36,-8.31,-12.35,6.00,6.01,3.58,-2.31,-2.31,4.05
21.87,-8.22,-12.25,-8.22,-12.25,6.00,6.00,3.68,-2.22,-2.22,4.03
22.09,-8.13,-12.14,-8.13,-12.14,6.00,6.00,3.78,-2.13,-2.13,4.00
22.31,-8.04,-12.02,-8.04,-12.02,6.00,5.99,3.89,-2.04,-2.04,3.98
22.54,-7.96,-11.92,-7.95,-11.91,6.00,5.99,4.00,-1.96,-1.95,3.95
22.76,-7.86,-11.79,-7.87,-11.80,6.00,5.98,4.12,-1.86,-1.87,3.93
22.99,-7.77,-11.69,-7.78,-11.69,6.00,5.98,4.23,-1.77,-1.78,3.91
23.22,-7.69,-11.58,-7.68,-11.58,6.00,5.98,4.35,-1.69,-1.68,3.89
23.45,-7.59,-11.47,-7.60,-11.48,6.00,5.97,4.47,-1.59,-1.60,3.88
23.69,-7.50,-11.37,-7.50,-11.37,6.00,5.97,4.60,-1.50,-1.50,3.86
23.92,-7.41,-11.26,-7.41,-11.26,6.00,5.96,4.72,-1.41,-1.41,3.85
24.16,-7.31,-11.14,-7.32,-11.15,6.00,5.96,4.85,-1.31,-1.32,3.83
24.40,-7.23,-11.05,-7.22,-11.05,6.00,5.95,4.98,-1.23,-1.22,3.82
24.65,-7.13,-10.94,-7.13,-10.93,6.00,5.95,5.12,-1.13,-1.13,3.81
24.89,-7.03,-10.82,-7.03,-10.83,6.00,5.94,5.25,-1.03,-1.03,3.79
25.14,-6.93,-10.71,-6.93,-10.71,6.00,5.94,5.39,-0.93,-0.93,3.78
25.39,-6.84,-10.61,-6.84,-10.60,6.00,5.94,5.52,-0.84,-0.84,3.77
25.65,-6.74,-10.50,-6.74,-10.50,6.00,5.93,5.66,-0.74,-0.74,3.76
25.91,-6.64,-10.39,-6.65,-10.39,6.00,5.93,5.80,-0.64,-0.65,3.75
26.16,-6.55,-10.29,-6.55,-10.28,6.00,5.92,5.94,-0.55,-0.55,3.74
26.43,-6.46,-10.18,-6.46,-10.18,6.00,5.92,6.08,-0.46,-0.46,3.72
26.69,-6.36,-10.07,-6.36,-10.07,6.00,5.92,6.22,-0.36,-0.36,3.70
26.96,-6.27,-9.97,-6.27,-9.96,6.00,5.91,6.36,-0.27,-0.27,3.69
27.23,-6.17,-9.86,-6.18,-9.86,6.00,5.91,6.49,-0.17,-0.18,3.68
27.50,-6.09,-9.76,-6.09,-9.76,6.00,5.90,6.62,-0.09,-0.09,3.67
27.77,-5.99,-9.66,-5.99,-9.66,6.00,5.90,6.74,0.01,0.01,3.67
28.05,-5.89,-9.55,-5.90,-9.56,6.00,5.90,6.87,0.11,0.10,3.66
28.33,-5.80,-9.45,-5.80,-9.45,6.00,5.90,6.98,0.20,0.20,3.65
28.62,-5.70,-9.35,-5.71,-9.35,6.00,5.89,7.09,0.30,0.29,3.65
28.90,-5.61,-9.25,-5.61,-9.25,6.00,5.89,7.19,0.39,0.39,3.64
29.19,-5.52,-9.16,-5.51,-9.15,6.00,5.89,7.29,0.48,0.49,3.64
29.48,-5.41,-9.04,-5.42,-9.04,6.00,5.89,7.37,0.59,0.58,3.62
29.78,-5.32,-8.95,-5.32,-8.94,6.00,5.89,7.45,0.68,0.68,3.62
30.08,-5.22,-8.84,-5.23,-8.84,6.00,5.89,7.51,0.78,0.77,3.61
30.38,-5.14,-8.75,-5.14,-8.75,6.00,5.89,7.56,0.86,0.86,3.61
30.68,-5.05,-8.65,-5.05,-8.65,6.00,5.89,7.60,0.95,0.95,3.60
30.99,-4.95,-8.54,-4.96,-8.55,6.00,5.89,7.63,1.05,1.04,3.59
31.30,-4.88,-8.47,-4.88,-8.46,6.00,5.89,7.65,1.12,1.12,3.59
31.61,-4.79,-8.37,-4.80,-8.37,6.00,5.90,7.65,1.21,1.20,3.58
31.93,-4.72,-8.29,-4.72,-8.29,6.00,5.90,7.64,1.28,1.28,3.56
32.24,-4.64,-8.20,-4.64,-8.20,6.00,5.91,7.63,1.36,1.36,3.56
32.57,-4.55,-8.10,-4.56,-8.11,6.00,5.91,7.59,1.45,1.44,3.55
32.89,-4.48,-8.02,-4.48,-8.02,6.00,5.92,7.55,1.52,1.52,3.54
33.22,-4.39,-7.92,-4.40,-7.92,6.00,5.93,7.50,1.61,1.60,3.53
33.55,-4.32,-7.84,-4.32,-7.83,6.00,5.94,7.44,1.68,1.68,3.52
33.89,-4.24,-7.75,-4.24,-7.75,6.00,5.95,7.36,1.76,1.76,3.50
34.23,-4.17,-7.66,-4.17,-7.66,6.00,5.96,7.29,1.83,1.83,3.49
34.57,-4.09,-7.58,-4.09,-7.58,6.00,5.97,7.20,1.91,1.91,3.49
34.92,-4.02,-7.50,-4.02,-7.50,6.00,5.99,7.11,1.98,1.98,3.48
35.27,-3.95,-7.42,-3.95,-7.42,6.00,6.00,7.01,2.05,2.05,3.47
35.62,-3.88,-7.35,-3.88,-7.34,6.00,6.02,6.91,2.12,2.12,3.46
35.97,-3.81,-7.26,-3.81,-7.26,6.00,6.04,6.80,2.19,2.19,3.45
36.33,-3.73,-7.18,-3.74,-7.18,6.00,6.05,6.70,2.27,2.26,3.45
36.70,-3.67,-7.11,-3.67,-7.10,6.00,6.07,6.59,2.33,2.33,3.44
37.06,-3.60,-7.02,-3.60,-7.03,6.00,6.09,6.48,2.40,2.40,3.42
37.43,-3.53,-6.95,-3.53,-6.95,6.00,6.10,6.37,2.47,2.47,3.42
37.81,-3.46,-6.87,-3.46,-6.87,6.00,6.12,6.26,2.54,2.54,3.41
38.19,-3.39,-6.80,-3.39,-6.80,6.00,6.13,6.15,2.61,2.61,3.41
38.57,-3.33,-6.72,-3.33,-6.72,6.00,6.14,6.04,2.67,2.67,3.39
38.95,-3.26,-6.65,-3.26,-6.65,6.00,6.15,5.93,2.74,2.74,3.39
39.34,-3.20,-6.58,-3.20,-6.58,6.00,6.15,5.83,2.80,2.80,3.38
39.74,-3.14,-6.51,-3.14,-6.51,6.00,6.14,5.73,2.86,2.86,3.37
40.14,-3.07,-6.43,-3.07,-6.44,6.01,6.13,5.63,2.93,2.93,3.36
40.54,-3.01,-6.37,-3.01,-6.36,6.01,6.11,5.53,3.00,3.00,3.36
40.94,-2.94,-6.28,-2.94,-6.29,6.01,6.09,5.44,3.07,3.07,3.34
41.35,-2.88,-6.22,-2.88,-6.22,6.01,6.06,5.35,3.13,3.13,3.34
41.76,-2.82,-6.14,-2.82,-6.14,6.00,6.02,5.26,3.18,3.19,3.32
42.18,-2.75,-6.07,-2.75,-6.07,5.98,5.98,5.18,3.23,3.23,3.32
42.60,-2.69,-6.00,-2.69,-6.00,5.95,5.93,5.09,3.26,3.26,3.31
43.03,-2.63,-5.93,-2.63,-5.93,5.91,5.88,5.02,3.28,3.28,3.30
43.46,-2.57,-5.86,-2.57,-5.86,5.86,5.82,4.95,3.28,3.29,3.29
43.90,-2.50,-5.78,-2.50,-5.78,5.79,5.76,4.88,3.29,3.29,3.28
44.33,-2.43,-5.71,-2.44,-5.71,5.72,5.69,4.81,3.29,3.29,3.28
44.78,-2.37,-5.63,-2.37,-5.63,5.65,5.62,4.75,3.27,3.28,3.26
45.23,-2.30,-5.56,-2.30,-5.56,5.57,5.56,4.69,3.27,3.26,3.26
45.68,-2.24,-5.49,-2.24,-5.49,5.49,5.49,4.64,3.25,3.25,3.25
46.13,-2.17,-5.42,-2.17,-5.42,5.42,5.42,4.59,3.25,3.24,3.24
46.60,-2.11,-5.35,-2.11,-5.35,5.35,5.35,4.54,3.24,3.24,3.24
47.06,-2.04,-5.27,-2.04,-5.28,5.28,5.28,4.49,3.24,3.23,3.23
47.53,-1.98,-5.21,-1.98,-5.21,5.21,5.21,4.45,3.23,3.23,3.23
48.01,-1.92,-5.14,-1.92,-5.14,5.14,5.14,4.42,3.22,3.22,3.22
48.49,-1.86,-5.07,-1.86,-5.07,5.07,5.07,4.38,3.21,3.21,3.21
48.97,-1.79,-5.00,-1.80,-5.00,5.00,5.01,4.35,3.21,3.20,3.21
49.46,-1.73,-4.93,-1.73,-4.93,4.93,4.94,4.32,3.20,3.20,3.20
49.96,-1.67,-4.86,-1.67,-4.86,4.86,4.88,4.29,3.19,3.19,3.19
50.46,-1.60,-4.78,-1.61,-4.79,4.79,4.81,4.27,3.19,3.18,3.18
50.96,-1.54,-4.72,-1.54,-4.72,4.72,4.75,4.25,3.18,3.18,3.17
51.47,-1.48,-4.65,-1.48,-4.65,4.65,4.69,4.23,3.17,3.17,3.17
51.99,-1.42,-4.58,-1.42,-4.58,4.58,4.62,4.21,3.15,3.15,3.16
52.51,-1.36,-4.51,-1.36,-4.51,4.51,4.56,4.19,3.14,3.15,3.15
53.03,-1.30,-4.44,-1.30,-4.44,4.44,4.50,4.17,3.13,3.14,3.14
53.56,-1.23,-4.36,-1.24,-4.37,4.37,4.44,4.16,3.13,3.13,3.13
54.10,-1.17,-4.29,-1.17,-4.29,4.29,4.38,4.14,3.12,3.12,3.12
54.64,-1.12,-4.23,-1.11,-4.22,4.22,4.32,4.13,3.10,3.11,3.11
55.18,-1.05,-4.15,-1.06,-4.15,4.15,4.26,4.11,3.10,3.10,3.10
55.74,-0.99,-4.08,-1.00,-4.08,4.08,4.19,4.10,3.09,3.08,3.09
56.29,-0.94,-4.02,-0.93,-4.01,4.01,4.13,4.08,3.07,3.08,3.08
56.86,-0.87,-3.94,-0.87,-3.94,3.94,4.07,4.06,3.07,3.07,3.06
57.42,-0.81,-3.86,-0.82,-3.87,3.87,4.01,4.04,3.06,3.05,3.05
58.00,-0.76,-3.81,-0.76,-3.80,3.80,3.95,4.02,3.04,3.05,3.05
58.58,-0.70,-3.74,-0.70,-3.74,3.74,3.89,4.00,3.03,3.03,3.04
59.16,-0.64,-3.66,-0.64,-3.67,3.67,3.83,3.97,3.03,3.02,3.02
59.76,-0.59,-3.60,-0.59,-3.60,3.60,3.76,3.94,3.01,3.01,3.01
60.35,-0.53,-3.54,-0.53,-3.54,3.53,3.70,3.91,3.00,3.00,3.00
60.96,-0.48,-3.47,-0.48,-3.47,3.47,3.64,3.87,2.99,2.99,2.99
61.57,-0.43,-3.41,-0.43,-3.40,3.40,3.57,3.83,2.97,2.97,2.97
62.18,-0.37,-3.33,-0.37,-3.33,3.34,3.51,3.79,2.97,2.96,2.96
62.80,-0.32,-3.26,-0.32,-3.27,3.27,3.44,3.74,2.95,2.95,2.94
63.43,-0.27,-3.21,-0.27,-3.21,3.21,3.38,3.69,2.94,2.93,2.94
64.07,-0.23,-3.15,-0.23,-3.15,3.14,3.31,3.63,2.91,2.92,2.92
64.71,-0.18,-3.08,-0.18,-3.08,3.08,3.24,3.57,2.90,2.90,2.90
65.35,-0.13,-3.01,-0.13,-3.02,3.01,3.17,3.51,2.88,2.88,2.88
66.01,-0.09,-2.96,-0.08,-2.95,2.95,3.11,3.45,2.86,2.87,2.86
66.67,-0.03,-2.88,-0.04,-2.88,2.89,3.04,3.38,2.85,2.85,2.85
67.33,0.01,-2.82,0.01,-2.82,2.82,2.97,3.30,2.83,2.83,2.83
68.01,0.05,-2.76,0.05,-2.75,2.75,2.90,3.23,2.80,2.81,2.81
68.69,0.10,-2.69,0.10,-2.69,2.69,2.83,3.15,2.79,2.78,2.79
69.37,0.14,-2.63,0.14,-2.62,2.62,2.75,3.07,2.76,2.76,2.76
70.07,0.19,-2.55,0.19,-2.55,2.56,2.68,2.99,2.75,2.74,2.74
70.77,0.23,-2.49,0.23,-2.49,2.49,2.61,2.90,2.72,2.72,2.72
71.48,0.28,-2.42,0.27,-2.42,2.42,2.53,2.81,2.70,2.70,2.70
72.19,0.31,-2.37,0.31,-2.36,2.36,2.46,2.72,2.67,2.67,2.67
72.91,0.36,-2.29,0.36,-2.29,2.29,2.38,2.63,2.65,2.64,2.65
73.64,0.40,-2.22,0.40,-2.22,2.22,2.31,2.54,2.62,2.62,2.62
74.38,0.44,-2.15,0.44,-2.15,2.15,2.23,2.45,2.59,2.59,2.59
75.12,0.49,-2.08,0.48,-2.08,2.08,2.15,2.36,2.57,2.56,2.56
75.87,0.52,-2.01,0.52,-2.01,2.01,2.08,2.26,2.53,2.53,2.53
76.63,0.56,-1.94,0.56,-1.94,1.94,2.00,2.17,2.49,2.50,2.50
77.40,0.60,-1.87,0.60,-1.87,1.86,1.92,2.08,2.46,2.46,2.46
78.17,0.64,-1.79,0.64,-1.79,1.79,1.84,1.98,2.42,2.43,2.43
78.95,0.68,-1.71,0.68,-1.71,1.71,1.76,1.89,2.39,2.39,2.39
79.74,0.72,-1.63,0.72,-1.63,1.63,1.68,1.79,2.35,2.35,2.35
80.54,0.75,-1.56,0.75,-1.55,1.55,1.60,1.70,2.30,2.31,2.31
81.35,0.80,-1.47,0.79,-1.48,1.48,1.52,1.61,2.27,2.27,2.27
82.16,0.83,-1.40,0.83,-1.40,1.40,1.44,1.51,2.23,2.23,2.23
82.98,0.87,-1.32,0.87,-1.32,1.32,1.36,1.42,2.19,2.19,2.19
83.81,0.90,-1.25,0.90,-1.24,1.25,1.28,1.33,2.14,2.14,2.14
84.65,0.93,-1.16,0.93,-1.17,1.17,1.20,1.24,2.10,2.10,2.09
85.50,0.96,-1.09,0.96,-1.10,1.09,1.12,1.15,2.05,2.05,2.05
86.35,0.99,-1.03,0.99,-1.02,1.02,1.03,1.06,2.01,2.01,2.02
87.22,1.02,-0.95,1.02,-0.95,0.95,0.95,0.97,1.97,1.97,1.97
88.09,1.06,-0.87,1.05,-0.88,0.88,0.87,0.88,1.94,1.93,1.93
88.97,1.08,-0.81,1.08,-0.80,0.81,0.79,0.79,1.89,1.89,1.88
89.86,1.11,-0.73,1.11,-0.73,0.74,0.71,0.70,1.85,1.85,1.84
90.76,1.14,-0.67,1.13,-0.67,0.67,0.63,0.62,1.81,1.80,1.80
91.66,1.16,-0.60,1.16,-0.60,0.60,0.55,0.53,1.76,1.76,1.76
92.58,1.18,-0.54,1.18,-0.54,0.53,0.47,0.44,1.71,1.72,1.72
93.51,1.21,-0.47,1.21,-0.47,0.47,0.39,0.36,1.68,1.68,1.68
94.44,1.24,-0.40,1.23,-0.40,0.40,0.32,0.27,1.64,1.64,1.64
95.39,1.26,-0.33,1.26,-0.34,0.34,0.24,0.19,1.60,1.60,1.59
96.34,1.28,-0.28,1.28,-0.27,0.27,0.16,0.10,1.55,1.55,1.56
97.30,1.30,-0.21,1.30,-0.21,0.21,0.09,0.02,1.51,1.51,1.51
98.28,1.33,-0.14,1.32,-0.15,0.14,0.01,-0.06,1.47,1.46,1.47
99.26,1.34,-0.08,1.35,-0.08,0.08,-0.06,-0.15,1.41,1.42,1.42
100.25,1.37,-0.01,1.37,-0.01,0.01,-0.13,-0.23,1.38,1.38,1.37
101.25,1.39,0.06,1.38,0.06,-0.06,-0.21,-0.31,1.33,1.33,1.33
102.27,1.40,0.12,1.40,0.12,-0.12,-0.28,-0.39,1.28,1.28,1.28
103.29,1.42,0.19,1.42,0.19,-0.19,-0.35,-0.46,1.23,1.23,1.23
104.32,1.44,0.26,1.44,0.26,-0.25,-0.41,-0.54,1.18,1.18,1.18
105.37,1.46,0.32,1.45,0.32,-0.32,-0.48,-0.62,1.14,1.13,1.13
106.42,1.47,0.38,1.47,0.38,-0.38,-0.55,-0.69,1.08,1.08,1.09
107.48,1.48,0.44,1.48,0.45,-0.45,-0.61,-0.76,1.03,1.03,1.04
108.56,1.50,0.51,1.50,0.51,-0.51,-0.67,-0.83,0.99,0.99,0.99
109.64,1.52,0.58,1.52,0.57,-0.57,-0.74,-0.90,0.94,0.94,0.94
110.74,1.53,0.64,1.53,0.64,-0.64,-0.79,-0.97,0.89,0.89,0.89
111.85,1.55,0.70,1.55,0.70,-0.70,-0.85,-1.04,0.85,0.84,0.84
112.97,1.56,0.76,1.56,0.76,-0.76,-0.91,-1.10,0.79,0.79,0.80
114.10,1.57,0.82,1.57,0.82,-0.82,-0.96,-1.16,0.74,0.75,0.75
115.24,1.59,0.89,1.59,0.88,-0.88,-1.02,-1.22,0.70,0.70,0.70
116.39,1.60,0.94,1.60,0.94,-0.94,-1.07,-1.27,0.66,0.66,0.65
117.55,1.61,1.00,1.61,1.00,-1.00,-1.12,-1.32,0.61,0.61,0.61
118.73,1.62,1.06,1.62,1.05,-1.05,-1.16,-1.37,0.57,0.57,0.56
119.92,1.63,1.10,1.63,1.10,-1.10,-1.21,-1.41,0.53,0.52,0.53
121.12,1.63,1.15,1.63,1.15,-1.15,-1.25,-1.46,0.48,0.48,0.48
122.33,1.64,1.19,1.64,1.20,-1.20,-1.30,-1.49,0.44,0.44,0.44
123.55,1.65,1.25,1.65,1.25,-1.25,-1.34,-1.53,0.40,0.40,0.40
124.79,1.66,1.29,1.66,1.29,-1.29,-1.37,-1.56,0.37,0.36,0.36
126.03,1.66,1.34,1.66,1.34,-1.34,-1.41,-1.59,0.32,0.32,0.32
127.29,1.67,1.38,1.67,1.38,-1.38,-1.45,-1.61,0.29,0.29,0.29
128.57,1.67,1.42,1.67,1.42,-1.42,-1.48,-1.63,0.25,0.25,0.25
129.85,1.68,1.47,1.68,1.46,-1.46,-1.51,-1.65,0.22,0.21,0.21
131.15,1.68,1.50,1.68,1.50,-1.50,-1.54,-1.66,0.18,0.18,0.18
132.46,1.69,1.54,1.69,1.54,-1.54,-1.57,-1.67,0.15,0.15,0.15
133.79,1.69,1.57,1.69,1.57,-1.57,-1.59,-1.68,0.12,0.12,0.12
135.12,1.69,1.60,1.69,1.61,-1.61,-1.62,-1.68,0.08,0.08,0.08
136.48,1.69,1.63,1.69,1.63,-1.64,-1.64,-1.69,0.05,0.06,0.05
137.84,1.70,1.66,1.69,1.66,-1.67,-1.66,-1.69,0.03,0.03,0.03
139.22,1.70,1.69,1.70,1.69,-1.69,-1.68,-1.69,0.00,0.00,0.00
140.61,1.70,1.72,1.70,1.72,-1.72,-1.70,-1.68,-0.02,-0.02,-0.02
142.02,1.71,1.75,1.70,1.75,-1.75,-1.72,-1.68,-0.04,-0.04,-0.04
143.44,1.71,1.77,1.71,1.77,-1.77,-1.73,-1.67,-0.06,-0.06,-0.06
144.87,1.71,1.79,1.71,1.79,-1.80,-1.74,-1.66,-0.09,-0.09,-0.09
146.32,1.72,1.82,1.72,1.82,-1.82,-1.75,-1.65,-0.10,-0.10,-0.10
147.78,1.72,1.84,1.72,1.84,-1.84,-1.77,-1.64,-0.12,-0.12,-0.12
149.26,1.73,1.87,1.72,1.86,-1.86,-1.77,-1.63,-0.13,-0.14,-0.14
150.75,1.72,1.88,1.72,1.88,-1.88,-1.78,-1.62,-0.16,-0.16,-0.16
152.26,1.73,1.90,1.73,1.90,-1.90,-1.79,-1.61,-0.17,-0.17,-0.17
153.78,1.73,1.92,1.73,1.91,-1.91,-1.79,-1.60,-0.18,-0.19,-0.19
155.32,1.73,1.93,1.73,1.93,-1.92,-1.80,-1.59,-0.20,-0.20,-0.20
156.88,1.72,1.93,1.72,1.93,-1.94,-1.80,-1.59,-0.22,-0.21,-0.21
158.44,1.72,1.94,1.72,1.94,-1.95,-1.80,-1.58,-0.23,-0.23,-0.22
160.03,1.72,1.95,1.71,1.95,-1.95,-1.80,-1.57,-0.24,-0.24,-0.24
161.63,1.71,1.95,1.71,1.96,-1.96,-1.80,-1.56,-0.25,-0.25,-0.25
163.24,1.71,1.96,1.71,1.97,-1.96,-1.80,-1.56,-0.26,-0.26,-0.26
164.88,1.71,1.97,1.71,1.97,-1.97,-1.79,-1.55,-0.26,-0.26,-0.27
166.53,1.70,1.97,1.70,1.97,-1.97,-1.79,-1.55,-0.27,-0.27,-0.28
168.19,1.69,1.97,1.69,1.97,-1.97,-1.78,-1.54,-0.28,-0.28,-0.28
169.87,1.67,1.96,1.67,1.97,-1.97,-1.78,-1.54,-0.30,-0.30,-0.29
171.57,1.66,1.97,1.66,1.96,-1.96,-1.77,-1.54,-0.31,-0.31,-0.31
173.29,1.64,1.96,1.64,1.96,-1.96,-1.76,-1.54,-0.32,-0.32,-0.32
175.02,1.63,1.95,1.63,1.95,-1.95,-1.75,-1.54,-0.33,-0.33,-0.32
176.77,1.61,1.95,1.61,1.95,-1.95,-1.74,-1.55,-0.34,-0.34,-0.34
178.54,1.60,1.94,1.60,1.95,-1.94,-1.73,-1.55,-0.35,-0.35,-0.35
180.32,1.58,1.94,1.58,1.94,-1.94,-1.72,-1.56,-0.36,-0.36,-0.36
182.13,1.56,1.93,1.56,1.93,-1.93,-1.71,-1.56,-0.37,-0.38,-0.38
183.95,1.53,1.92,1.54,1.93,-1.93,-1.70,-1.57,-0.40,-0.39,-0.39
185.79,1.52,1.92,1.52,1.92,-1.92,-1.69,-1.58,-0.40,-0.40,-0.40
187.65,1.50,1.92,1.49,1.91,-1.91,-1.68,-1.59,-0.41,-0.42,-0.42
189.52,1.47,1.90,1.47,1.90,-1.90,-1.66,-1.60,-0.43,-0.43,-0.43
191.42,1.45,1.89,1.45,1.89,-1.89,-1.65,-1.62,-0.44,-0.44,-0.44
193.33,1.43,1.88,1.42,1.88,-1.88,-1.63,-1.63,-0.45,-0.46,-0.46
195.27,1.40,1.87,1.40,1.87,-1.87,-1.62,-1.65,-0.47,-0.47,-0.47
197.22,1.37,1.86,1.37,1.86,-1.86,-1.60,-1.66,-0.49,-0.49,-0.49
199.19,1.35,1.85,1.35,1.85,-1.85,-1.59,-1.68,-0.50,-0.50,-0.50
201.18,1.33,1.85,1.32,1.84,-1.84,-1.57,-1.70,-0.51,-0.52,-0.52
203.19,1.29,1.82,1.30,1.83,-1.83,-1.56,-1.71,-0.54,-0.53,-0.53
205.23,1.27,1.82,1.27,1.82,-1.82,-1.54,-1.73,-0.55,-0.55,-0.55
207.28,1.25,1.81,1.24,1.81,-1.81,-1.52,-1.75,-0.56,-0.57,-0.56
209.35,1.22,1.80,1.22,1.80,-1.80,-1.51,-1.77,-0.58,-0.58,-0.58
211.44,1.20,1.80,1.20,1.79,-1.79,-1.49,-1.79,-0.59,-0.59,-0.60
213.56,1.17,1.78,1.17,1.78,-1.78,-1.47,-1.81,-0.61,-0.61,-0.61
215.69,1.14,1.77,1.14,1.77,-1.77,-1.45,-1.83,-0.63,-0.63,-0.63
217.85,1.11,1.74,1.11,1.75,-1.75,-1.44,-1.85,-0.64,-0.64,-0.64
220.03,1.09,1.74,1.09,1.74,-1.74,-1.42,-1.86,-0.65,-0.65,-0.65
222.23,1.06,1.72,1.06,1.72,-1.72,-1.40,-1.88,-0.66,-0.66,-0.66
224.45,1.03,1.70,1.03,1.70,-1.70,-1.38,-1.89,-0.67,-0.67,-0.67
226.70,1.00,1.68,1.00,1.68,-1.67,-1.36,-1.91,-0.68,-0.68,-0.68
228.96,0.97,1.65,0.97,1.65,-1.65,-1.35,-1.92,-0.68,-0.68,-0.68
231.25,0.94,1.63,0.94,1.63,-1.62,-1.33,-1.93,-0.69,-0.69,-0.69
233.57,0.91,1.60,0.91,1.60,-1.60,-1.31,-1.94,-0.69,-0.69,-0.69
235.90,0.88,1.57,0.88,1.57,-1.57,-1.29,-1.94,-0.69,-0.69,-0.69
238.26,0.86,1.55,0.86,1.55,-1.55,-1.27,-1.95,-0.69,-0.69,-0.69
240.64,0.83,1.51,0.83,1.52,-1.52,-1.25,-1.95,-0.70,-0.69,-0.69
243.05,0.82,1.51,0.81,1.50,-1.50,-1.23,-1.95,-0.68,-0.69,-0.69
245.48,0.79,1.47,0.79,1.48,-1.48,-1.22,-1.95,-0.69,-0.69,-0.69
247.93,0.78,1.46,0.78,1.46,-1.46,-1.20,-1.94,-0.68,-0.68,-0.68
250.41,0.77,1.44,0.76,1.44,-1.44,-1.18,-1.93,-0.67,-0.68,-0.68
252.92,0.75,1.43,0.75,1.43,-1.42,-1.16,-1.92,-0.68,-0.68,-0.68
255.45,0.73,1.40,0.73,1.40,-1.41,-1.14,-1.90,-0.68,-0.68,-0.68
258.00,0.71,1.38,0.71,1.39,-1.39,-1.12,-1.89,-0.68,-0.68,-0.67
260.58,0.70,1.37,0.70,1.37,-1.37,-1.11,-1.87,-0.67,-0.68,-0.67
263.19,0.68,1.36,0.68,1.35,-1.35,-1.09,-1.84,-0.67,-0.67,-0.68
265.82,0.66,1.33,0.66,1.34,-1.33,-1.07,-1.82,-0.68,-0.67,-0.67
268.48,0.64,1.32,0.64,1.32,-1.31,-1.05,-1.79,-0.68,-0.68,-0.68
271.16,0.62,1.30,0.62,1.29,-1.29,-1.03,-1.76,-0.68,-0.68,-0.68
273.87,0.59,1.27,0.59,1.27,-1.27,-1.01,-1.73,-0.68,-0.68,-0.68
276.61,0.57,1.25,0.57,1.25,-1.25,-1.00,-1.69,-0.68,-0.68,-0.68
279.38,0.55,1.23,0.55,1.23,-1.23,-0.98,-1.66,-0.68,-0.68,-0.68
282.17,0.53,1.21,0.52,1.21,-1.21,-0.96,-1.62,-0.68,-0.68,-0.68
284.99,0.50,1.18,0.50,1.18,-1.19,-0.94,-1.58,-0.69,-0.68,-0.68
287.84,0.48,1.16,0.48,1.16,-1.16,-0.93,-1.54,-0.69,-0.68,-0.68
290.72,0.47,1.14,0.46,1.14,-1.14,-0.91,-1.50,-0.67,-0.68,-0.67
293.63,0.45,1.13,0.45,1.12,-1.12,-0.89,-1.46,-0.67,-0.67,-0.68
296.57,0.43,1.10,0.43,1.10,-1.10,-0.87,-1.41,-0.67,-0.67,-0.67
299.53,0.41,1.08,0.41,1.08,-1.08,-0.86,-1.37,-0.67,-0.67,-0.67
302.53,0.39,1.05,0.39,1.05,-1.05,-0.84,-1.32,-0.67,-0.67,-0.66
305.55,0.37,1.03,0.37,1.03,-1.03,-0.82,-1.28,-0.66,-0.66,-0.66
308.61,0.36,1.01,0.36,1.01,-1.00,-0.81,-1.24,-0.65,-0.65,-0.65
311.69,0.34,0.98,0.34,0.98,-0.98,-0.79,-1.19,-0.64,-0.64,-0.64
314.81,0.32,0.95,0.32,0.95,-0.95,-0.77,-1.15,-0.63,-0.63,-0.63
317.96,0.29,0.91,0.29,0.92,-0.92,-0.76,-1.10,-0.63,-0.63,-0.63
321.14,0.28,0.90,0.27,0.89,-0.89,-0.74,-1.06,-0.61,-0.62,-0.62
324.35,0.25,0.86,0.25,0.86,-0.86,-0.72,-1.01,-0.61,-0.61,-0.61
327.59,0.23,0.83,0.23,0.83,-0.83,-0.71,-0.97,-0.60,-0.61,-0.60
330.87,0.20,0.80,0.20,0.80,-0.80,-0.69,-0.93,-0.60,-0.60,-0.60
334.18,0.18,0.77,0.18,0.77,-0.77,-0.67,-0.88,-0.59,-0.59,-0.60
337.52,0.15,0.75,0.15,0.74,-0.74,-0.66,-0.84,-0.59,-0.59,-0.60
340.90,0.12,0.71,0.12,0.71,-0.71,-0.64,-0.80,-0.59,-0.59,-0.59
344.30,0.09,0.68,0.09,0.68,-0.68,-0.63,-0.76,-0.59,-0.59,-0.59
347.75,0.05,0.64,0.05,0.64,-0.65,-0.61,-0.72,-0.60,-0.59,-0.59
351.23,0.03,0.62,0.02,0.62,-0.62,-0.59,-0.67,-0.59,-0.60,-0.59
354.74,-0.01,0.58,-0.01,0.59,-0.59,-0.58,-0.63,-0.60,-0.60,-0.59
358.28,-0.04,0.56,-0.04,0.56,-0.56,-0.56,-0.59,-0.60,-0.60,-0.61
361.87,-0.07,0.54,-0.07,0.53,-0.53,-0.55,-0.56,-0.60,-0.61,-0.61
365.49,-0.10,0.51,-0.10,0.51,-0.51,-0.53,-0.52,-0.61,-0.61,-0.61
369.14,-0.13,0.48,-0.13,0.48,-0.48,-0.51,-0.48,-0.61,-0.61,-0.61
372.83,-0.16,0.45,-0.16,0.45,-0.45,-0.50,-0.44,-0.61,-0.61,-0.61
376.56,-0.18,0.42,-0.18,0.42,-0.42,-0.48,-0.40,-0.60,-0.61,-0.60
380.33,-0.21,0.39,-0.21,0.39,-0.39,-0.46,-0.37,-0.61,-0.60,-0.60
384.13,-0.23,0.37,-0.23,0.37,-0.37,-0.45,-0.33,-0.60,-0.60,-0.60
387.97,-0.26,0.33,-0.26,0.34,-0.34,-0.43,-0.30,-0.60,-0.60,-0.60
391.85,-0.28,0.31,-0.28,0.31,-0.31,-0.42,-0.26,-0.59,-0.59,-0.60
395.77,-0.31,0.28,-0.31,0.28,-0.28,-0.40,-0.23,-0.59,-0.59,-0.59
399.73,-0.32,0.26,-0.33,0.25,-0.25,-0.38,-0.19,-0.57,-0.58,-0.58
403.72,-0.35,0.23,-0.35,0.22,-0.23,-0.37,-0.16,-0.58,-0.58,-0.58
407.76,-0.37,0.20,-0.37,0.20,-0.20,-0.35,-0.13,-0.57,-0.57,-0.57
411.84,-0.39,0.17,-0.39,0.17,-0.17,-0.33,-0.10,-0.57,-0.56,-0.56
415.96,-0.40,0.15,-0.41,0.15,-0.15,-0.31,-0.07,-0.55,-0.56,-0.55
420.12,-0.42,0.13,-0.42,0.13,-0.13,-0.30,-0.04,-0.55,-0.55,-0.55
424.32,-0.43,0.11,-0.43,0.11,-0.11,-0.28,-0.01,-0.54,-0.54,-0.54
428.56,-0.44,0.09,-0.44,0.09,-0.09,-0.26,0.02,-0.53,-0.54,-0.53
432.85,-0.45,0.07,-0.45,0.08,-0.08,-0.24,0.05,-0.53,-0.53,-0.52
437.18,-0.45,0.06,-0.45,0.06,-0.07,-0.22,0.08,-0.52,-0.52,-0.51
441.55,-0.44,0.06,-0.45,0.06,-0.06,-0.20,0.11,-0.50,-0.51,-0.51
445.96,-0.45,0.04,-0.44,0.05,-0.05,-0.18,0.13,-0.50,-0.50,-0.50
450.42,-0.43,0.06,-0.44,0.05,-0.05,-0.16,0.15,-0.48,-0.49,-0.49
454.93,-0.43,0.05,-0.43,0.05,-0.05,-0.14,0.18,-0.48,-0.48,-0.48
459.48,-0.41,0.06,-0.41,0.05,-0.06,-0.12,0.20,-0.47,-0.47,-0.47
464.07,-0.40,0.06,-0.40,0.06,-0.06,-0.10,0.22,-0.46,-0.46,-0.46
468.71,-0.38,0.07,-0.38,0.07,-0.07,-0.08,0.24,-0.45,-0.45,-0.45
473.40,-0.36,0.08,-0.36,0.07,-0.08,-0.05,0.26,-0.44,-0.44,-0.44
478.13,-0.34,0.09,-0.34,0.08,-0.08,-0.03,0.28,-0.43,-0.43,-0.43
482.91,-0.33,0.08,-0.32,0.09,-0.09,-0.01,0.29,-0.42,-0.42,-0.41
487.74,-0.30,0.10,-0.30,0.10,-0.10,0.02,0.31,-0.40,-0.40,-0.40
492.62,-0.28,0.10,-0.28,0.10,-0.10,0.05,0.32,-0.38,-0.39,-0.38
