frequency,raw,error,smoothed,error_smoothed,equalization,parametric_eq,fixed_band_eq,equalized_raw,equalized_smoothed,target
20.00,3.12,1.49,3.12,1.49,-1.49,-1.77,-1.40,1.63,1.63,1.63
20.20,3.15,1.55,3.16,1.55,-1.55,-1.80,-1.43,1.60,1.61,1.60
20.40,3.19,1.61,3.19,1.61,-1.61,-1.83,-1.47,1.59,1.58,1.58
20.61,3.22,1.66,3.22,1.66,-1.67,-1.86,-1.51,1.56,1.56,1.56
20.81,3.26,1.72,3.26,1.72,-1.72,-1.89,-1.55,1.54,1.54,1.54
21.02,3.29,1.77,3.30,1.77,-1.78,-1.92,-1.60,1.51,1.52,1.52
21.23,3.33,1.83,3.33,1.83,-1.83,-1.96,-1.64,1.50,1.50,1.50
21.44,3.37,1.89,3.37,1.89,-1.89,-1.99,-1.69,1.49,1.48,1.48
21.66,3.40,1.94,3.41,1.94,-1.94,-2.02,-1.73,1.46,1.47,1.46
21.87,3.44,1.99,3.44,2.00,-1.99,-2.05,-1.78,1.45,1.45,1.45
22.09,3.48,2.05,3.48,2.05,-2.04,-2.09,-1.83,1.44,1.44,1.43
22.31,3.51,2.09,3.52,2.09,-2.09,-2.12,-1.88,1.42,1.42,1.42
22.54,3.55,2.14,3.55,2.14,-2.14,-2.16,-1.93,1.41,1.41,1.41
22.76,3.58,2.18,3.59,2.18,-2.19,-2.19,-1.98,1.40,1.40,1.40
22.99,3.62,2.23,3.62,2.23,-2.23,-2.22,-2.04,1.39,1.39,1.39
23.22,3.66,2.28,3.66,2.28,-2.28,-2.26,-2.09,1.38,1.38,1.38
23.45,3.69,2.32,3.70,2.32,-2.32,-2.30,-2.15,1.37,1.37,1.37
23.69,3.73,2.37,3.73,2.37,-2.37,-2.33,-2.21,1.37,1.37,1.36
23.92,3.77,2.41,3.77,2.41,-2.41,-2.37,-2.27,1.36,1.36,1.36
24.16,3.80,2.45,3.81,2.45,-2.45,-2.40,-2.33,1.35,1.35,1.35
24.40,3.84,2.49,3.84,2.49,-2.50,-2.44,-2.39,1.35,1.35,1.35
24.65,3.88,2.54,3.88,2.53,-2.54,-2.48,-2.45,1.34,1.34,1.34
24.89,3.91,2.57,3.92,2.58,-2.58,-2.51,-2.51,1.33,1.34,1.34
25.14,3.95,2.62,3.95,2.62,-2.62,-2.55,-2.57,1.33,1.33,1.33
25.39,3.99,2.67,3.99,2.66,-2.66,-2.59,-2.64,1.33,1.33,1.32
25.65,4.02,2.70,4.03,2.71,-2.70,-2.63,-2.70,1.32,1.32,1.32
25.91,4.06,2.75,4.06,2.75,-2.74,-2.66,-2.77,1.32,1.32,1.31
26.16,4.09,2.78,4.10,2.78,-2.78,-2.70,-2.83,1.31,1.31,1.31
26.43,4.13,2.82,4.13,2.82,-2.82,-2.74,-2.89,1.31,1.31,1.31
26.69,4.16,2.86,4.16,2.86,-2.86,-2.78,-2.96,1.30,1.30,1.30
26.96,4.19,2.89,4.20,2.90,-2.90,-2.82,-3.02,1.29,1.30,1.30
27.23,4.23,2.94,4.23,2.94,-2.94,-2.86,-3.08,1.29,1.29,1.29
27.50,4.27,2.98,4.27,2.98,-2.98,-2.89,-3.14,1.30,1.29,1.29
27.77,4.30,3.01,4.31,3.02,-3.02,-2.93,-3.20,1.29,1.29,1.29
28.05,4.34,3.06,4.34,3.05,-3.05,-2.97,-3.25,1.29,1.29,1.28
28.33,4.37,3.09,4.37,3.09,-3.09,-3.01,-3.31,1.28,1.28,1.28
28.62,4.40,3.12,4.41,3.13,-3.13,-3.05,-3.36,1.27,1.28,1.28
28.90,4.44,3.17,4.44,3.16,-3.16,-3.09,-3.41,1.28,1.27,1.27
29.19,4.47,3.20,4.47,3.20,-3.20,-3.13,-3.46,1.27,1.27,1.27
29.48,4.50,3.23,4.51,3.24,-3.24,-3.17,-3.50,1.27,1.27,1.27
29.78,4.54,3.27,4.54,3.27,-3.27,-3.20,-3.54,1.27,1.27,1.27
30.08,4.57,3.30,4.57,3.30,-3.31,-3.24,-3.58,1.27,1.27,1.27
30.38,4.60,3.34,4.61,3.34,-3.34,-3.28,-3.62,1.26,1.27,1.26
30.68,4.64,3.38,4.64,3.38,-3.37,-3.32,-3.65,1.27,1.27,1.26
30.99,4.67,3.41,4.67,3.41,-3.41,-3.36,-3.67,1.26,1.27,1.26
31.30,4.70,3.44,4.70,3.44,-3.44,-3.40,-3.70,1.26,1.26,1.26
31.61,4.73,3.48,4.73,3.47,-3.48,-3.43,-3.72,1.26,1.25,1.25
31.93,4.75,3.50,4.76,3.50,-3.51,-3.47,-3.73,1.24,1.25,1.25
32.24,4.78,3.53,4.79,3.54,-3.54,-3.51,-3.74,1.24,1.24,1.25
32.57,4.82,3.58,4.82,3.57,-3.58,-3.54,-3.75,1.25,1.24,1.24
32.89,4.85,3.61,4.85,3.61,-3.61,-3.58,-3.76,1.25,1.24,1.24
33.22,4.88,3.64,4.88,3.64,-3.64,-3.62,-3.76,1.24,1.24,1.24
33.55,4.90,3.67,4.91,3.67,-3.67,-3.65,-3.76,1.23,1.24,1.23
33.89,4.93,3.70,4.93,3.70,-3.70,-3.69,-3.76,1.23,1.23,1.23
34.23,4.96,3.73,4.96,3.73,-3.73,-3.72,-3.75,1.23,1.23,1.23
34.57,4.98,3.76,4.98,3.76,-3.76,-3.75,-3.75,1.22,1.22,1.22
34.92,5.00,3.78,5.01,3.78,-3.79,-3.79,-3.74,1.22,1.22,1.22
35.27,5.03,3.81,5.03,3.81,-3.81,-3.82,-3.73,1.22,1.22,1.22
35.62,5.05,3.84,5.06,3.84,-3.84,-3.85,-3.72,1.21,1.22,1.21
35.97,5.08,3.87,5.08,3.87,-3.86,-3.89,-3.71,1.22,1.22,1.21
36.33,5.10,3.89,5.10,3.89,-3.89,-3.92,-3.70,1.21,1.21,1.21
36.70,5.12,3.91,5.12,3.91,-3.91,-3.95,-3.69,1.21,1.21,1.21
37.06,5.14,3.93,5.15,3.94,-3.94,-3.98,-3.68,1.20,1.21,1.21
37.43,5.17,3.97,5.17,3.96,-3.97,-4.01,-3.67,1.21,1.20,1.20
37.81,5.19,3.99,5.19,3.99,-3.99,-4.04,-3.66,1.20,1.20,1.20
38.19,5.21,4.01,5.22,4.02,-4.02,-4.07,-3.65,1.19,1.20,1.20
38.57,5.24,4.05,5.24,4.05,-4.05,-4.10,-3.64,1.19,1.19,1.19
38.95,5.27,4.08,5.27,4.08,-4.08,-4.12,-3.64,1.19,1.19,1.19
39.34,5.29,4.11,5.29,4.11,-4.11,-4.15,-3.63,1.19,1.19,1.18
39.74,5.31,4.13,5.32,4.14,-4.14,-4.18,-3.63,1.18,1.18,1.18
40.14,5.34,4.17,5.34,4.17,-4.16,-4.20,-3.63,1.18,1.18,1.17
40.54,5.36,4.19,5.36,4.19,-4.19,-4.23,-3.64,1.17,1.17,1.17
40.94,5.38,4.21,5.38,4.21,-4.21,-4.25,-3.64,1.17,1.17,1.17
41.35,5.40,4.23,5.41,4.23,-4.24,-4.28,-3.65,1.17,1.17,1.17
41.76,5.43,4.26,5.43,4.26,-4.26,-4.30,-3.66,1.18,1.17,1.17
42.18,5.45,4.28,5.45,4.28,-4.28,-4.32,-3.67,1.18,1.18,1.17
42.60,5.47,4.30,5.47,4.30,-4.29,-4.35,-3.69,1.18,1.18,1.17
43.03,5.49,4.31,5.49,4.31,-4.31,-4.37,-3.71,1.18,1.18,1.18
43.46,5.50,4.32,5.51,4.32,-4.33,-4.39,-3.73,1.18,1.18,1.18
43.90,5.52,4.34,5.52,4.34,-4.34,-4.41,-3.75,1.18,1.18,1.18
44.33,5.53,4.35,5.54,4.35,-4.36,-4.43,-3.78,1.18,1.18,1.18
44.78,5.55,4.37,5.55,4.37,-4.37,-4.45,-3.81,1.18,1.18,1.18
45.23,5.57,4.39,5.57,4.39,-4.39,-4.47,-3.84,1.18,1.18,1.18
45.68,5.59,4.41,5.60,4.41,-4.41,-4.49,-3.88,1.18,1.18,1.18
46.13,5.62,4.44,5.62,4.44,-4.44,-4.51,-3.92,1.19,1.18,1.18
46.60,5.64,4.46,5.64,4.46,-4.46,-4.52,-3.96,1.18,1.18,1.18
47.06,5.66,4.48,5.66,4.49,-4.48,-4.54,-4.00,1.18,1.18,1.18
47.53,5.68,4.51,5.68,4.51,-4.51,-4.56,-4.05,1.18,1.18,1.17
48.01,5.70,4.53,5.70,4.53,-4.53,-4.57,-4.10,1.17,1.17,1.17
48.49,5.72,4.55,5.72,4.55,-4.55,-4.59,-4.15,1.17,1.17,1.17
48.97,5.74,4.57,5.74,4.57,-4.57,-4.61,-4.21,1.17,1.17,1.17
49.46,5.76,4.59,5.77,4.59,-4.60,-4.62,-4.26,1.17,1.17,1.17
49.96,5.79,4.62,5.79,4.62,-4.62,-4.64,-4.32,1.17,1.17,1.17
50.46,5.81,4.64,5.82,4.64,-4.64,-4.65,-4.38,1.17,1.17,1.17
50.96,5.84,4.67,5.84,4.67,-4.66,-4.66,-4.44,1.18,1.18,1.17
51.47,5.86,4.68,5.86,4.68,-4.68,-4.68,-4.51,1.18,1.18,1.18
51.99,5.88,4.70,5.88,4.70,-4.70,-4.69,-4.57,1.18,1.18,1.18
52.51,5.90,4.72,5.90,4.72,-4.72,-4.70,-4.64,1.18,1.18,1.18
53.03,5.92,4.74,5.92,4.74,-4.74,-4.72,-4.70,1.19,1.19,1.18
53.56,5.94,4.76,5.94,4.76,-4.75,-4.73,-4.77,1.19,1.19,1.18
54.10,5.95,4.76,5.95,4.77,-4.76,-4.74,-4.83,1.19,1.19,1.19
54.64,5.96,4.77,5.96,4.77,-4.77,-4.75,-4.89,1.19,1.19,1.19
55.18,5.97,4.78,5.97,4.78,-4.78,-4.76,-4.96,1.19,1.19,1.19
55.74,5.98,4.79,5.99,4.79,-4.79,-4.78,-5.02,1.19,1.19,1.19
56.29,6.00,4.80,6.00,4.80,-4.80,-4.79,-5.08,1.20,1.20,1.20
56.86,6.01,4.81,6.01,4.81,-4.81,-4.80,-5.13,1.20,1.20,1.20
57.42,6.02,4.82,6.02,4.82,-4.82,-4.81,-5.18,1.21,1.21,1.20
58.00,6.03,4.82,6.03,4.82,-4.82,-4.82,-5.23,1.21,1.21,1.21
58.58,6.04,4.83,6.04,4.83,-4.83,-4.83,-5.28,1.21,1.21,1.21
59.16,6.04,4.83,6.05,4.83,-4.84,-4.84,-5.32,1.21,1.21,1.21
59.76,6.06,4.84,6.06,4.84,-4.84,-4.85,-5.36,1.22,1.22,1.22
60.35,6.07,4.85,6.07,4.85,-4.85,-4.86,-5.39,1.22,1.22,1.22
60.96,6.08,4.86,6.08,4.86,-4.86,-4.87,-5.41,1.22,1.22,1.22
61.57,6.09,4.87,6.09,4.87,-4.87,-4.88,-5.44,1.23,1.23,1.22
62.18,6.10,4.88,6.10,4.88,-4.88,-4.89,-5.45,1.22,1.22,1.22
62.80,6.11,4.89,6.11,4.89,-4.89,-4.90,-5.46,1.22,1.22,1.22
63.43,6.12,4.90,6.12,4.90,-4.90,-4.91,-5.46,1.22,1.22,1.22
64.07,6.13,4.91,6.14,4.91,-4.92,-4.92,-5.46,1.22,1.22,1.22
64.71,6.15,4.93,6.15,4.93,-4.93,-4.93,-5.46,1.22,1.22,1.22
65.35,6.17,4.95,6.17,4.95,-4.95,-4.93,-5.44,1.22,1.22,1.22
66.01,6.19,4.97,6.20,4.97,-4.97,-4.94,-5.43,1.22,1.22,1.22
66.67,6.22,5.00,6.22,5.00,-5.00,-4.95,-5.41,1.23,1.22,1.22
67.33,6.24,5.02,6.24,5.02,-5.02,-4.96,-5.38,1.22,1.22,1.22
68.01,6.26,5.04,6.27,5.05,-5.04,-4.97,-5.35,1.22,1.22,1.22
68.69,6.29,5.07,6.29,5.07,-5.07,-4.98,-5.32,1.23,1.22,1.22
69.37,6.31,5.09,6.31,5.09,-5.09,-4.98,-5.28,1.22,1.22,1.22
70.07,6.33,5.11,6.33,5.11,-5.11,-4.99,-5.24,1.22,1.22,1.22
70.77,6.35,5.13,6.35,5.12,-5.13,-5.00,-5.20,1.22,1.22,1.22
71.48,6.36,5.13,6.37,5.14,-5.14,-5.01,-5.16,1.22,1.22,1.23
72.19,6.38,5.15,6.39,5.15,-5.16,-5.01,-5.12,1.23,1.23,1.23
72.91,6.40,5.17,6.40,5.17,-5.16,-5.02,-5.08,1.24,1.24,1.23
73.64,6.41,5.18,6.41,5.18,-5.17,-5.03,-5.03,1.25,1.25,1.23
74.38,6.41,5.17,6.41,5.18,-5.17,-5.03,-4.99,1.25,1.25,1.24
75.12,6.41,5.17,6.41,5.17,-5.16,-5.04,-4.95,1.25,1.25,1.24
75.87,6.40,5.15,6.40,5.16,-5.16,-5.05,-4.91,1.25,1.25,1.25
76.63,6.39,5.14,6.40,5.14,-5.15,-5.05,-4.87,1.24,1.25,1.25
77.40,6.39,5.14,6.39,5.13,-5.14,-5.06,-4.83,1.25,1.25,1.25
78.17,6.38,5.12,6.39,5.13,-5.13,-5.07,-4.79,1.25,1.25,1.26
78.95,6.38,5.12,6.38,5.12,-5.12,-5.07,-4.75,1.26,1.26,1.26
79.74,6.38,5.12,6.38,5.12,-5.12,-5.08,-4.72,1.26,1.26,1.26
80.54,6.38,5.11,6.38,5.11,-5.11,-5.08,-4.69,1.27,1.27,1.27
81.35,6.38,5.11,6.38,5.11,-5.11,-5.09,-4.67,1.27,1.27,1.27
82.16,6.38,5.11,6.38,5.11,-5.11,-5.09,-4.64,1.27,1.27,1.27
82.98,6.38,5.11,6.38,5.11,-5.11,-5.10,-4.62,1.28,1.28,1.27
83.81,6.38,5.11,6.38,5.11,-5.11,-5.10,-4.60,1.28,1.28,1.27
84.65,6.38,5.10,6.38,5.10,-5.10,-5.11,-4.59,1.28,1.28,1.28
85.50,6.38,5.10,6.38,5.10,-5.10,-5.11,-4.58,1.28,1.28,1.28
86.35,6.38,5.10,6.38,5.10,-5.10,-5.12,-4.57,1.28,1.28,1.28
87.22,6.38,5.10,6.38,5.10,-5.10,-5.12,-4.56,1.28,1.28,1.28
88.09,6.38,5.10,6.38,5.10,-5.10,-5.13,-4.56,1.28,1.28,1.28
88.97,6.38,5.10,6.38,5.10,-5.10,-5.13,-4.56,1.28,1.28,1.28
89.86,6.38,5.10,6.38,5.10,-5.10,-5.13,-4.57,1.28,1.28,1.28
90.76,6.38,5.10,6.38,5.10,-5.10,-5.14,-4.58,1.28,1.28,1.28
91.66,6.38,5.10,6.38,5.10,-5.10,-5.14,-4.59,1.28,1.28,1.28
92.58,6.38,5.10,6.38,5.10,-5.10,-5.14,-4.61,1.28,1.28,1.28
93.51,6.38,5.10,6.38,5.10,-5.10,-5.14,-4.63,1.28,1.28,1.28
94.44,6.38,5.10,6.38,5.10,-5.10,-5.15,-4.65,1.28,1.28,1.28
95.39,6.38,5.10,6.38,5.10,-5.10,-5.15,-4.67,1.28,1.28,1.28
96.34,6.38,5.10,6.38,5.10,-5.10,-5.15,-4.70,1.29,1.29,1.28
97.30,6.38,5.09,6.38,5.09,-5.10,-5.15,-4.74,1.29,1.29,1.29
98.28,6.38,5.09,6.38,5.09,-5.09,-5.15,-4.77,1.29,1.29,1.29
99.26,6.38,5.09,6.38,5.09,-5.09,-5.15,-4.81,1.29,1.29,1.29
100.25,6.38,5.09,6.38,5.09,-5.09,-5.15,-4.85,1.29,1.29,1.29
101.25,6.38,5.09,6.38,5.09,-5.09,-5.15,-4.89,1.29,1.29,1.29
102.27,6.38,5.09,6.38,5.09,-5.09,-5.15,-4.93,1.29,1.29,1.29
103.29,6.38,5.09,6.38,5.09,-5.09,-5.15,-4.97,1.30,1.30,1.29
104.32,6.38,5.08,6.38,5.09,-5.08,-5.15,-5.02,1.30,1.30,1.30
105.37,6.38,5.08,6.38,5.08,-5.08,-5.15,-5.07,1.30,1.30,1.30
106.42,6.38,5.08,6.38,5.08,-5.08,-5.15,-5.11,1.30,1.30,1.30
107.48,6.38,5.07,6.38,5.07,-5.08,-5.15,-5.16,1.31,1.31,1.31
108.56,6.38,5.07,6.38,5.07,-5.07,-5.15,-5.21,1.31,1.31,1.31
109.64,6.38,5.07,6.38,5.07,-5.07,-5.15,-5.25,1.31,1.31,1.31
110.74,6.38,5.07,6.38,5.07,-5.07,-5.14,-5.30,1.31,1.31,1.31
111.85,6.38,5.07,6.38,5.07,-5.07,-5.14,-5.34,1.32,1.32,1.31
112.97,6.38,5.06,6.38,5.06,-5.06,-5.14,-5.38,1.32,1.32,1.32
114.10,6.38,5.06,6.38,5.06,-5.06,-5.14,-5.42,1.32,1.32,1.32
115.24,6.38,5.06,6.38,5.06,-5.06,-5.13,-5.46,1.32,1.32,1.32
116.39,6.38,5.06,6.38,5.06,-5.06,-5.13,-5.49,1.32,1.32,1.32
117.55,6.38,5.05,6.38,5.05,-5.06,-5.12,-5.52,1.33,1.33,1.33
118.73,6.38,5.05,6.38,5.05,-5.05,-5.12,-5.54,1.33,1.33,1.33
119.92,6.38,5.05,6.38,5.05,-5.05,-5.11,-5.56,1.33,1.33,1.33
121.12,6.38,5.05,6.38,5.05,-5.05,-5.11,-5.57,1.34,1.34,1.33
122.33,6.38,5.04,6.38,5.04,-5.04,-5.10,-5.58,1.34,1.34,1.34
123.55,6.38,5.04,6.38,5.04,-5.04,-5.10,-5.59,1.34,1.34,1.34
124.79,6.38,5.03,6.38,5.03,-5.03,-5.09,-5.58,1.35,1.35,1.35
126.03,6.38,5.03,6.38,5.03,-5.03,-5.09,-5.58,1.35,1.35,1.35
127.29,6.38,5.02,6.38,5.02,-5.03,-5.08,-5.56,1.36,1.36,1.36
128.57,6.38,5.02,6.38,5.02,-5.02,-5.07,-5.54,1.36,1.36,1.36
129.85,6.38,5.02,6.38,5.02,-5.02,-5.06,-5.52,1.37,1.37,1.36
131.15,6.38,5.02,6.38,5.02,-5.02,-5.06,-5.49,1.37,1.37,1.36
132.46,6.38,5.01,6.38,5.01,-5.01,-5.05,-5.46,1.37,1.37,1.37
133.79,6.38,5.01,6.38,5.01,-5.01,-5.04,-5.42,1.37,1.37,1.37
135.12,6.38,5.01,6.38,5.01,-5.02,-5.03,-5.37,1.37,1.37,1.37
136.48,6.38,5.01,6.39,5.01,-5.02,-5.02,-5.33,1.36,1.37,1.37
137.84,6.39,5.02,6.39,5.02,-5.02,-5.01,-5.28,1.37,1.37,1.37
139.22,6.39,5.02,6.40,5.02,-5.02,-5.00,-5.23,1.37,1.37,1.37
140.61,6.40,5.03,6.40,5.03,-5.02,-4.99,-5.17,1.38,1.38,1.37
142.02,6.40,5.02,6.40,5.03,-5.02,-4.98,-5.11,1.38,1.38,1.38
143.44,6.40,5.02,6.40,5.02,-5.02,-4.97,-5.05,1.39,1.39,1.38
144.87,6.39,5.01,6.39,5.01,-5.01,-4.96,-4.99,1.39,1.39,1.38
146.32,6.38,4.99,6.38,4.99,-4.99,-4.95,-4.93,1.39,1.39,1.39
147.78,6.36,4.97,6.36,4.97,-4.97,-4.93,-4.87,1.39,1.39,1.39
149.26,6.34,4.95,6.34,4.94,-4.94,-4.92,-4.81,1.40,1.40,1.39
150.75,6.31,4.91,6.31,4.92,-4.91,-4.91,-4.75,1.40,1.40,1.40
152.26,6.28,4.88,6.28,4.88,-4.88,-4.90,-4.69,1.40,1.41,1.40
153.78,6.25,4.85,6.25,4.84,-4.84,-4.88,-4.64,1.41,1.40,1.40
155.32,6.21,4.80,6.21,4.81,-4.81,-4.87,-4.58,1.41,1.41,1.41
156.88,6.17,4.76,6.18,4.77,-4.77,-4.85,-4.52,1.40,1.41,1.41
158.44,6.15,4.74,6.15,4.73,-4.74,-4.84,-4.47,1.42,1.41,1.41
160.03,6.11,4.70,6.12,4.71,-4.70,-4.82,-4.42,1.41,1.41,1.41
161.63,6.09,4.68,6.09,4.68,-4.68,-4.81,-4.37,1.42,1.42,1.41
163.24,6.07,4.65,6.07,4.65,-4.66,-4.79,-4.33,1.42,1.41,1.42
164.88,6.05,4.63,6.05,4.63,-4.64,-4.78,-4.28,1.41,1.41,1.42
166.53,6.04,4.62,6.05,4.62,-4.63,-4.76,-4.24,1.41,1.42,1.42
168.19,6.04,4.62,6.04,4.62,-4.62,-4.74,-4.21,1.42,1.42,1.42
169.87,6.05,4.62,6.05,4.62,-4.62,-4.73,-4.17,1.43,1.43,1.43
171.57,6.05,4.62,6.06,4.62,-4.62,-4.71,-4.14,1.43,1.43,1.43
173.29,6.06,4.63,6.06,4.63,-4.62,-4.69,-4.11,1.44,1.44,1.43
175.02,6.06,4.63,6.07,4.63,-4.63,-4.67,-4.09,1.43,1.43,1.43
176.77,6.07,4.63,6.07,4.63,-4.63,-4.65,-4.06,1.44,1.44,1.44
178.54,6.07,4.63,6.08,4.64,-4.64,-4.63,-4.04,1.44,1.44,1.44
180.32,6.08,4.64,6.08,4.64,-4.64,-4.61,-4.03,1.45,1.44,1.44
182.13,6.08,4.64,6.08,4.64,-4.63,-4.60,-4.02,1.45,1.45,1.44
183.95,6.07,4.63,6.08,4.63,-4.63,-4.58,-4.01,1.45,1.45,1.44
185.79,6.06,4.62,6.06,4.62,-4.62,-4.55,-4.00,1.45,1.44,1.44
187.65,6.04,4.60,6.04,4.60,-4.60,-4.53,-3.99,1.44,1.44,1.44
189.52,6.02,4.58,6.02,4.58,-4.58,-4.51,-3.99,1.44,1.44,1.44
191.42,6.00,4.56,6.00,4.56,-4.56,-4.49,-3.99,1.44,1.44,1.44
193.33,5.97,4.53,5.97,4.53,-4.53,-4.47,-4.00,1.44,1.44,1.44
195.27,5.94,4.50,5.94,4.50,-4.50,-4.45,-4.00,1.45,1.45,1.44
197.22,5.91,4.47,5.91,4.47,-4.46,-4.42,-4.01,1.45,1.45,1.44
199.19,5.87,4.43,5.88,4.43,-4.43,-4.40,-4.02,1.44,1.45,1.44
201.18,5.84,4.39,5.84,4.39,-4.39,-4.38,-4.04,1.45,1.45,1.45
203.19,5.81,4.36,5.81,4.36,-4.36,-4.35,-4.05,1.45,1.45,1.45
205.23,5.78,4.32,5.79,4.33,-4.34,-4.33,-4.07,1.45,1.45,1.46
207.28,5.76,4.30,5.76,4.30,-4.31,-4.31,-4.09,1.45,1.45,1.46
209.35,5.75,4.29,5.75,4.29,-4.30,-4.28,-4.10,1.46,1.46,1.46
211.44,5.74,4.27,5.75,4.28,-4.28,-4.26,-4.12,1.46,1.46,1.47
213.56,5.74,4.27,5.74,4.27,-4.27,-4.23,-4.14,1.47,1.47,1.47
215.69,5.73,4.26,5.73,4.26,-4.26,-4.21,-4.16,1.48,1.48,1.47
217.85,5.72,4.25,5.73,4.25,-4.24,-4.18,-4.18,1.48,1.48,1.47
220.03,5.71,4.23,5.71,4.23,-4.22,-4.15,-4.20,1.49,1.49,1.48
222.23,5.69,4.21,5.69,4.21,-4.20,-4.13,-4.22,1.49,1.49,1.48
224.45,5.66,4.18,5.66,4.18,-4.17,-4.10,-4.23,1.49,1.49,1.48
226.70,5.62,4.14,5.62,4.14,-4.14,-4.07,-4.25,1.48,1.48,1.48
228.96,5.58,4.09,5.59,4.10,-4.11,-4.05,-4.26,1.48,1.48,1.49
231.25,5.56,4.07,5.56,4.07,-4.07,-4.02,-4.27,1.49,1.48,1.49
233.57,5.53,4.04,5.53,4.03,-4.04,-3.99,-4.28,1.49,1.49,1.49
235.90,5.49,3.99,5.50,4.00,-4.00,-3.96,-4.28,1.49,1.49,1.50
238.26,5.47,3.97,5.47,3.97,-3.97,-3.93,-4.29,1.50,1.50,1.50
240.64,5.45,3.94,5.45,3.94,-3.94,-3.91,-4.28,1.51,1.51,1.51
243.05,5.44,3.92,5.44,3.92,-3.91,-3.88,-4.28,1.53,1.52,1.52
245.48,5.41,3.88,5.41,3.88,-3.88,-3.85,-4.27,1.53,1.53,1.53
247.93,5.38,3.85,5.39,3.85,-3.85,-3.82,-4.25,1.53,1.54,1.53
250.41,5.36,3.82,5.36,3.82,-3.82,-3.79,-4.23,1.54,1.54,1.54
252.92,5.34,3.79,5.34,3.79,-3.79,-3.76,-4.21,1.55,1.55,1.55
255.45,5.32,3.76,5.32,3.76,-3.77,-3.73,-4.18,1.56,1.56,1.56
258.00,5.30,3.74,5.30,3.73,-3.74,-3.70,-4.15,1.57,1.56,1.56
260.58,5.27,3.70,5.27,3.71,-3.70,-3.66,-4.12,1.57,1.57,1.57
263.19,5.24,3.67,5.24,3.67,-3.67,-3.63,-4.08,1.57,1.57,1.57
265.82,5.21,3.64,5.22,3.64,-3.63,-3.60,-4.03,1.58,1.58,1.57
268.48,5.18,3.60,5.18,3.60,-3.60,-3.57,-3.99,1.59,1.58,1.58
271.16,5.15,3.57,5.14,3.56,-3.56,-3.54,-3.94,1.60,1.59,1.58
273.87,5.09,3.51,5.10,3.52,-3.52,-3.51,-3.88,1.58,1.59,1.58
276.61,5.06,3.47,5.06,3.47,-3.48,-3.47,-3.83,1.59,1.59,1.59
279.38,5.02,3.43,5.02,3.43,-3.44,-3.44,-3.77,1.59,1.59,1.59
282.17,4.99,3.39,4.99,3.39,-3.40,-3.41,-3.71,1.59,1.59,1.60
284.99,4.96,3.36,4.96,3.36,-3.37,-3.37,-3.65,1.60,1.59,1.60
287.84,4.92,3.32,4.93,3.33,-3.33,-3.34,-3.59,1.59,1.60,1.60
290.72,4.90,3.30,4.90,3.30,-3.30,-3.31,-3.52,1.60,1.60,1.60
293.63,4.88,3.28,4.88,3.28,-3.27,-3.27,-3.46,1.61,1.61,1.60
296.57,4.86,3.26,4.86,3.26,-3.24,-3.24,-3.39,1.62,1.62,1.60
299.53,4.83,3.22,4.83,3.23,-3.22,-3.21,-3.33,1.62,1.62,1.61
302.53,4.80,3.19,4.80,3.19,-3.19,-3.17,-3.26,1.62,1.62,1.61
305.55,4.77,3.16,4.77,3.15,-3.16,-3.14,-3.20,1.62,1.61,1.61
308.61,4.73,3.11,4.74,3.12,-3.13,-3.10,-3.13,1.60,1.61,1.62
311.69,4.70,3.08,4.71,3.09,-3.10,-3.07,-3.07,1.60,1.61,1.62
314.81,4.69,3.06,4.69,3.06,-3.07,-3.03,-3.01,1.62,1.62,1.63
317.96,4.67,3.04,4.68,3.04,-3.04,-3.00,-2.95,1.63,1.64,1.63
321.14,4.66,3.02,4.66,3.02,-3.00,-2.96,-2.89,1.66,1.65,1.64
324.35,4.62,2.98,4.62,2.98,-2.96,-2.93,-2.83,1.66,1.66,1.64
327.59,4.58,2.94,4.58,2.94,-2.92,-2.89,-2.77,1.66,1.66,1.64
330.87,4.53,2.88,4.53,2.88,-2.87,-2.86,-2.71,1.66,1.66,1.65
334.18,4.47,2.81,4.47,2.82,-2.82,-2.82,-2.66,1.66,1.66,1.66
337.52,4.41,2.75,4.42,2.75,-2.76,-2.78,-2.61,1.65,1.66,1.66
340.90,4.36,2.69,4.36,2.69,-2.70,-2.75,-2.56,1.66,1.66,1.67
344.30,4.31,2.64,4.31,2.64,-2.65,-2.71,-2.51,1.66,1.66,1.67
347.75,4.27,2.60,4.27,2.60,-2.61,-2.67,-2.46,1.67,1.66,1.67
351.23,4.23,2.56,4.24,2.56,-2.57,-2.64,-2.42,1.66,1.67,1.67
354.74,4.21,2.53,4.21,2.53,-2.54,-2.60,-2.37,1.68,1.67,1.68
358.28,4.18,2.50,4.19,2.51,-2.51,-2.56,-2.33,1.67,1.68,1.68
361.87,4.17,2.49,4.17,2.49,-2.48,-2.53,-2.29,1.69,1.69,1.68
365.49,4.15,2.47,4.15,2.47,-2.46,-2.49,-2.26,1.69,1.69,1.68
369.14,4.12,2.44,4.13,2.44,-2.44,-2.45,-2.22,1.69,1.69,1.68
372.83,4.10,2.42,4.10,2.41,-2.41,-2.41,-2.19,1.69,1.69,1.68
376.56,4.06,2.37,4.07,2.38,-2.39,-2.38,-2.15,1.68,1.68,1.69
380.33,4.04,2.35,4.05,2.35,-2.36,-2.34,-2.12,1.68,1.69,1.69
384.13,4.02,2.33,4.02,2.33,-2.33,-2.30,-2.09,1.69,1.69,1.69
387.97,4.00,2.31,4.00,2.31,-2.30,-2.26,-2.07,1.71,1.70,1.69
391.85,3.97,2.27,3.97,2.27,-2.26,-2.23,-2.04,1.71,1.71,1.70
395.77,3.94,2.24,3.94,2.24,-2.23,-2.19,-2.02,1.71,1.71,1.70
399.73,3.90,2.19,3.91,2.20,-2.20,-2.15,-1.99,1.70,1.71,1.71
403.72,3.87,2.16,3.88,2.16,-2.17,-2.11,-1.97,1.70,1.71,1.71
407.76,3.85,2.13,3.85,2.13,-2.14,-2.07,-1.95,1.71,1.71,1.72
411.84,3.83,2.11,3.83,2.11,-2.11,-2.04,-1.93,1.72,1.72,1.72
415.96,3.82,2.09,3.82,2.09,-2.09,-2.00,-1.91,1.73,1.73,1.73
420.12,3.79,2.06,3.80,2.07,-2.07,-1.96,-1.89,1.73,1.73,1.73
424.32,3.78,2.05,3.78,2.05,-2.05,-1.92,-1.87,1.73,1.73,1.73
428.56,3.77,2.03,3.77,2.03,-2.03,-1.88,-1.85,1.74,1.73,1.74
432.85,3.75,2.01,3.75,2.01,-2.02,-1.84,-1.83,1.74,1.74,1.74
437.18,3.73,1.99,3.74,2.00,-2.00,-1.81,-1.82,1.74,1.74,1.74
441.55,3.72,1.98,3.72,1.98,-1.97,-1.77,-1.80,1.75,1.75,1.74
445.96,3.70,1.96,3.70,1.96,-1.94,-1.73,-1.78,1.76,1.75,1.74
450.42,3.66,1.92,3.66,1.92,-1.91,-1.69,-1.76,1.76,1.75,1.74
454.93,3.61,1.87,3.62,1.87,-1.87,-1.65,-1.74,1.75,1.75,1.74
459.48,3.56,1.82,3.57,1.82,-1.82,-1.61,-1.72,1.74,1.74,1.74
464.07,3.51,1.77,3.51,1.77,-1.77,-1.57,-1.70,1.74,1.74,1.74
468.71,3.46,1.72,3.46,1.72,-1.72,-1.53,-1.68,1.74,1.74,1.74
473.40,3.40,1.66,3.41,1.66,-1.67,-1.49,-1.66,1.73,1.74,1.74
478.13,3.36,1.61,3.36,1.62,-1.62,-1.45,-1.64,1.74,1.74,1.75
482.91,3.32,1.57,3.32,1.57,-1.58,-1.42,-1.61,1.74,1.75,1.75
487.74,3.29,1.54,3.29,1.54,-1.54,-1.38,-1.59,1.76,1.75,1.75
492.62,3.25,1.50,3.25,1.50,-1.50,-1.34,-1.56,1.76,1.76,1.75
497.55,3.21,1.45,3.22,1.46,-1.46,-1.30,-1.53,1.76,1.76,1.76
502.52,3.18,1.42,3.18,1.42,-1.42,-1.26,-1.50,1.77,1.76,1.76
507.55,3.14,1.38,3.14,1.38,-1.38,-1.22,-1.46,1.77,1.77,1.76
512.62,3.10,1.34,3.10,1.34,-1.33,-1.18,-1.43,1.77,1.77,1.76
517.75,3.06,1.29,3.06,1.29,-1.29,-1.14,-1.39,1.77,1.77,1.77
522.93,3.01,1.24,3.01,1.24,-1.24,-1.10,-1.36,1.77,1.77,1.77
528.16,2.96,1.19,2.97,1.19,-1.20,-1.06,-1.32,1.77,1.77,1.77
533.44,2.92,1.15,2.92,1.14,-1.15,-1.02,-1.28,1.78,1.77,1.77
538.77,2.87,1.09,2.87,1.09,-1.09,-0.98,-1.23,1.78,1.78,1.78
544.16,2.82,1.04,2.83,1.04,-1.04,-0.94,-1.19,1.78,1.78,1.78
