frequency,raw
20.00,18.27
20.20,18.24
20.40,18.21
20.61,18.18
20.81,18.14
21.02,18.11
21.23,18.07
21.44,18.04
21.66,18.00
21.87,17.96
22.09,17.92
22.31,17.88
22.54,17.83
22.76,17.78
22.99,17.73
23.22,17.69
23.45,17.65
23.69,17.61
23.92,17.55
24.16,17.49
24.40,17.44
24.65,17.39
24.89,17.34
25.14,17.28
25.39,17.22
25.65,17.16
25.91,17.11
26.16,17.06
26.43,16.99
26.69,16.93
26.96,16.86
27.23,16.80
27.50,16.75
27.77,16.69
28.05,16.63
28.33,16.55
28.62,16.49
28.90,16.44
29.19,16.39
29.48,16.32
29.78,16.25
30.08,16.19
30.38,16.14
30.68,16.07
30.99,16.00
31.30,15.94
31.61,15.88
31.93,15.81
32.24,15.74
32.57,15.67
32.89,15.59
33.22,15.52
33.55,15.47
33.89,15.40
34.23,15.33
34.57,15.27
34.92,15.20
35.27,15.13
35.62,15.07
35.97,15.01
36.33,14.94
36.70,14.87
37.06,14.80
37.43,14.75
37.81,14.68
38.19,14.61
38.57,14.55
38.95,14.47
39.34,14.41
39.74,14.34
40.14,14.27
40.54,14.19
40.94,14.12
41.35,14.06
41.76,13.99
42.18,13.92
42.60,13.84
43.03,13.76
43.46,13.68
43.90,13.59
44.33,13.51
44.78,13.44
45.23,13.37
45.68,13.28
46.13,13.21
46.60,13.14
47.06,13.07
47.53,12.98
48.01,12.90
48.49,12.83
48.97,12.75
49.46,12.67
49.96,12.58
50.46,12.50
50.96,12.42
51.47,12.33
51.99,12.24
52.51,12.16
53.03,12.07
53.56,11.98
54.10,11.89
54.64,11.80
55.18,11.71
55.74,11.63
56.29,11.55
56.86,11.47
57.42,11.39
58.00,11.29
58.58,11.20
59.16,11.13
59.76,11.04
60.35,10.97
60.96,10.89
61.57,10.82
62.18,10.73
62.80,10.65
63.43,10.57
64.07,10.48
64.71,10.39
65.35,10.31
66.01,10.22
66.67,10.13
67.33,10.03
68.01,9.94
68.69,9.84
69.37,9.75
70.07,9.67
70.77,9.58
71.48,9.47
72.19,9.38
72.91,9.30
73.64,9.21
74.38,9.11
75.12,9.03
75.87,8.93
76.63,8.83
77.40,8.74
78.17,8.64
78.95,8.55
79.74,8.45
80.54,8.35
81.35,8.27
82.16,8.16
82.98,8.07
83.81,7.99
84.65,7.89
85.50,7.81
86.35,7.72
87.22,7.62
88.09,7.52
88.97,7.42
89.86,7.32
90.76,7.21
91.66,7.11
92.58,7.01
93.51,6.92
94.44,6.82
95.39,6.72
96.34,6.61
97.30,6.49
98.28,6.39
99.26,6.30
100.25,6.20
101.25,6.10
102.27,6.01
103.29,5.93
104.32,5.83
105.37,5.74
106.42,5.65
107.48,5.55
108.56,5.47
109.64,5.39
110.74,5.30
111.85,5.22
112.97,5.14
114.10,5.07
115.24,5.00
116.39,4.92
117.55,4.84
118.73,4.77
119.92,4.70
121.12,4.64
122.33,4.56
123.55,4.50
124.79,4.42
126.03,4.36
127.29,4.30
128.57,4.24
129.85,4.18
131.15,4.11
132.46,4.04
133.79,3.99
135.12,3.93
136.48,3.87
137.84,3.81
139.22,3.75
140.61,3.69
142.02,3.62
143.44,3.56
144.87,3.51
146.32,3.46
147.78,3.42
149.26,3.37
150.75,3.32
152.26,3.27
153.78,3.22
155.32,3.16
156.88,3.13
158.44,3.08
160.03,3.04
161.63,3.00
163.24,2.96
164.88,2.94
166.53,2.93
168.19,2.90
169.87,2.86
171.57,2.82
173.29,2.79
175.02,2.75
176.77,2.71
178.54,2.69
180.32,2.67
182.13,2.65
183.95,2.63
185.79,2.61
187.65,2.58
189.52,2.56
191.42,2.52
193.33,2.49
195.27,2.46
197.22,2.43
199.19,2.40
201.18,2.37
203.19,2.35
205.23,2.32
207.28,2.30
209.35,2.27
211.44,2.23
213.56,2.20
215.69,2.17
217.85,2.13
220.03,2.09
222.23,2.05
224.45,2.02
226.70,2.01
228.96,1.98
231.25,1.97
233.57,1.94
235.90,1.89
238.26,1.85
240.64,1.80
243.05,1.75
245.48,1.70
247.93,1.67
250.41,1.63
252.92,1.60
255.45,1.56
258.00,1.53
260.58,1.48
263.19,1.44
265.82,1.39
268.48,1.33
271.16,1.30
273.87,1.26
276.61,1.22
279.38,1.18
282.17,1.14
284.99,1.11
287.84,1.07
290.72,1.03
293.63,0.99
296.57,0.95
299.53,0.90
302.53,0.85
305.55,0.81
308.61,0.76
311.69,0.72
314.81,0.66
317.96,0.61
321.14,0.55
324.35,0.52
327.59,0.49
330.87,0.44
334.18,0.40
337.52,0.37
340.90,0.33
344.30,0.28
347.75,0.25
351.23,0.22
354.74,0.18
358.28,0.16
361.87,0.13
365.49,0.10
369.14,0.06
372.83,0.01
376.56,-0.04
380.33,-0.08
384.13,-0.12
387.97,-0.16
391.85,-0.21
395.77,-0.25
399.73,-0.30
403.72,-0.35
407.76,-0.41
411.84,-0.46
415.96,-0.51
420.12,-0.54
424.32,-0.58
428.56,-0.62
432.85,-0.65
437.18,-0.68
441.55,-0.72
445.96,-0.76
450.42,-0.80
454.93,-0.84
459.48,-0.87
464.07,-0.90
468.71,-0.92
473.40,-0.94
478.13,-0.97
482.91,-0.99
487.74,-1.01
492.62,-1.03
497.55,-1.07
502.52,-1.09
507.55,-1.11
512.62,-1.13
517.75,-1.16
522.93,-1.18
528.16,-1.21
533.44,-1.24
538.77,-1.28
544.16,-1.31
549.60,-1.33
555.10,-1.34
560.65,-1.37
566.25,-1.39
571.92,-1.42
577.64,-1.45
583.41,-1.47
589.25,-1.49
595.14,-1.52
601.09,-1.55
607.10,-1.57
613.17,-1.62
619.30,-1.65
625.50,-1.68
631.75,-1.70
638.07,-1.73
644.45,-1.75
650.89,-1.76
657.40,-1.77
663.98,-1.79
670.62,-1.80
677.32,-1.81
684.10,-1.82
690.94,-1.84
697.85,-1.87
704.83,-1.91
711.87,-1.94
718.99,-1.97
726.18,-2.00
733.44,-2.03
740.78,-2.05
748.19,-2.07
755.67,-2.08
763.23,-2.11
770.86,-2.13
778.57,-2.16
786.35,-2.17
794.22,-2.18
802.16,-2.20
810.18,-2.22
818.28,-2.25
826.46,-2.27
834.73,-2.31
843.08,-2.33
851.51,-2.34
860.02,-2.36
868.62,-2.37
877.31,-2.38
886.08,-2.38
894.94,-2.36
903.89,-2.34
912.93,-2.32
922.06,-2.28
931.28,-2.24
940.59,-2.21
950.00,-2.17
959.50,-2.14
969.09,-2.10
978.78,-2.05
988.57,-1.99
998.46,-1.94
1008.44,-1.89
1018.53,-1.84
1028.71,-1.80
1039.00,-1.74
1049.39,-1.70
1059.88,-1.65
1070.48,-1.61
1081.19,-1.57
1092.00,-1.52
1102.92,-1.47
1113.95,-1.40
1125.09,-1.33
1136.34,-1.26
1147.70,-1.19
1159.18,-1.12
1170.77,-1.06
1182.48,-1.00
1194.30,-0.95
1206.25,-0.90
1218.31,-0.83
1230.49,-0.76
1242.80,-0.69
1255.22,-0.62
1267.78,-0.56
1280.45,-0.49
1293.26,-0.42
1306.19,-0.36
1319.25,-0.29
1332.45,-0.23
1345.77,-0.16
1359.23,-0.10
1372.82,-0.04
1386.55,0.03
1400.41,0.10
1414.42,0.16
1428.56,0.20
1442.85,0.24
1457.28,0.28
1471.85,0.31
1486.57,0.35
1501.43,0.40
1516.45,0.45
1531.61,0.51
1546.93,0.57
1562.40,0.63
1578.02,0.71
1593.80,0.78
1609.74,0.85
1625.84,0.92
1642.10,1.01
1658.52,1.08
1675.10,1.16
1691.85,1.23
1708.77,1.31
1725.86,1.41
1743.12,1.50
1760.55,1.60
1778.15,1.71
1795.94,1.80
1813.90,1.91
1832.03,2.02
1850.36,2.14
1868.86,2.27
1887.55,2.39
1906.42,2.50
1925.49,2.63
1944.74,2.76
1964.19,2.89
1983.83,3.01
2003.67,3.13
2023.71,3.27
2043.94,3.39
2064.38,3.52
2085.03,3.66
2105.88,3.79
2126.94,3.92
2148.20,4.04
2169.69,4.16
2191.38,4.29
2213.30,4.42
2235.43,4.53
2257.78,4.64
2280.36,4.75
2303.17,4.85
2326.20,4.94
2349.46,5.01
2372.95,5.07
2396.68,5.13
2420.65,5.16
2444.86,5.18
2469.31,5.20
2494.00,5.19
2518.94,5.17
2544.13,5.15
2569.57,5.10
2595.27,5.03
2621.22,4.97
2647.43,4.90
2673.90,4.82
2700.64,4.74
2727.65,4.65
2754.93,4.56
2782.48,4.47
2810.30,4.38
2838.40,4.31
2866.79,4.22
2895.46,4.12
2924.41,4.04
2953.65,3.96
2983.19,3.88
3013.02,3.80
3043.15,3.72
3073.58,3.65
3104.32,3.58
3135.36,3.51
3166.72,3.44
3198.38,3.39
3230.37,3.33
3262.67,3.29
3295.30,3.23
3328.25,3.17
3361.53,3.11
3395.15,3.05
3429.10,2.95
3463.39,2.87
3498.03,2.78
3533.01,2.68
3568.34,2.55
3604.02,2.41
3640.06,2.28
3676.46,2.12
3713.22,1.94
3750.36,1.77
3787.86,1.59
3825.74,1.40
3864.00,1.21
3902.64,1.02
3941.66,0.83
3981.08,0.63
4020.89,0.43
4061.10,0.23
4101.71,0.04
4142.73,-0.14
4184.15,-0.34
4226.00,-0.53
4268.26,-0.71
4310.94,-0.86
4354.05,-1.03
4397.59,-1.19
4441.56,-1.34
4485.98,-1.48
4530.84,-1.60
4576.15,-1.73
4621.91,-1.86
4668.13,-1.98
4714.81,-2.11
4761.96,-2.22
4809.58,-2.33
4857.67,-2.46
4906.25,-2.57
4955.31,-2.69
5004.87,-2.84
5054.91,-2.98
5105.46,-3.13
5156.52,-3.28
5208.08,-3.44
5260.16,-3.59
5312.77,-3.74
5365.89,-3.90
5419.55,-4.04
5473.75,-4.19
5528.49,-4.32
5583.77,-4.45
5639.61,-4.55
5696.00,-4.66
5752.96,-4.75
5810.49,-4.82
5868.60,-4.86
5927.28,-4.89
5986.56,-4.89
6046.42,-4.87
6106.89,-4.85
6167.96,-4.81
6229.64,-4.77
6291.93,-4.72
6354.85,-4.64
6418.40,-4.54
6482.58,-4.44
6547.41,-4.35
6612.88,-4.23
6679.01,-4.11
6745.80,-3.96
6813.26,-3.81
6881.39,-3.61
6950.21,-3.37
7019.71,-3.09
7089.91,-2.77
7160.81,-2.40
7232.41,-1.98
7304.74,-1.52
7377.79,-1.02
7451.56,-0.47
7526.08,0.11
7601.34,0.69
7677.35,1.27
7754.13,1.83
7831.67,2.34
7909.98,2.80
7989.08,3.18
8068.98,3.46
8149.67,3.64
8231.16,3.72
8313.47,3.69
8396.61,3.58
8480.57,3.37
8565.38,3.10
8651.03,2.75
8737.54,2.32
8824.92,1.87
8913.17,1.38
9002.30,0.87
9092.32,0.35
9183.25,-0.17
9275.08,-0.66
9367.83,-1.16
9461.51,-1.69
9556.12,-2.22
9651.68,-2.76
9748.20,-3.29
9845.68,-3.82
9944.14,-4.35
10043.58,-4.87
10144.02,-5.38
10245.46,-5.87
10347.91,-6.34
10451.39,-6.79
10555.91,-7.20
10661.46,-7.57
10768.08,-7.90
10875.76,-8.21
10984.52,-8.50
11094.36,-8.74
11205.31,-8.95
11317.36,-9.11
11430.53,-9.26
11544.84,-9.39
11660.29,-9.51
11776.89,-9.63
11894.66,-9.71
12013.60,-9.78
12133.74,-9.82
12255.08,-9.85
12377.63,-9.85
12501.41,-9.83
12626.42,-9.82
12752.68,-9.80
12880.21,-9.80
13009.01,-9.82
13139.10,-9.88
13270.49,-10.00
13403.20,-10.17
13537.23,-10.41
13672.60,-10.73
13809.33,-11.11
13947.42,-11.59
14086.90,-12.11
14227.77,-12.68
14370.04,-13.28
14513.74,-13.91
14658.88,-14.55
14805.47,-15.19
14953.52,-15.82
15103.06,-16.42
15254.09,-16.98
15406.63,-17.51
15560.70,-17.97
15716.30,-18.39
15873.47,-18.76
16032.20,-19.11
16192.52,-19.40
16354.45,-19.66
16517.99,-19.88
16683.17,-20.05
16850.01,-20.16
17018.51,-20.20
17188.69,-20.18
17360.58,-20.08
17534.18,-19.93
17709.53,-19.75
17886.62,-19.55
18065.49,-19.42
18246.14,-19.28
18428.60,-19.12
18612.89,-18.93
18799.02,-18.72
18987.01,-18.49
19176.88,-18.25
19368.65,-17.98
19562.33,-17.69
19757.96,-17.38
19955.54,-17.05
