frequency,raw,error,smoothed,error_smoothed,equalization,parametric_eq,fixed_band_eq,equalized_raw,equalized_smoothed,target
20.00,-8.02,-9.12,-8.02,-9.12,6.00,6.07,2.04,-2.02,-2.02,1.10
20.20,-7.89,-9.00,-7.89,-9.00,6.00,6.08,2.11,-1.89,-1.89,1.11
20.40,-7.76,-8.88,-7.76,-8.87,6.00,6.09,2.17,-1.76,-1.76,1.12
20.61,-7.63,-8.75,-7.63,-8.75,6.00,6.10,2.23,-1.63,-1.63,1.12
20.81,-7.51,-8.64,-7.51,-8.63,6.00,6.10,2.30,-1.51,-1.51,1.13
21.02,-7.38,-8.51,-7.38,-8.52,6.00,6.10,2.37,-1.38,-1.38,1.13
21.23,-7.27,-8.41,-7.27,-8.40,6.00,6.09,2.44,-1.27,-1.27,1.14
21.44,-7.15,-8.29,-7.15,-8.29,6.00,6.09,2.51,-1.15,-1.15,1.14
21.66,-7.04,-8.18,-7.04,-8.18,6.00,6.08,2.59,-1.04,-1.04,1.14
21.87,-6.93,-8.07,-6.92,-8.06,6.00,6.06,2.67,-0.93,-0.92,1.14
22.09,-6.80,-7.95,-6.80,-7.94,6.00,6.05,2.75,-0.80,-0.80,1.15
22.31,-6.66,-7.80,-6.66,-7.80,6.00,6.03,2.83,-0.66,-0.66,1.15
22.54,-6.52,-7.66,-6.52,-7.66,6.00,6.00,2.91,-0.52,-0.52,1.14
22.76,-6.38,-7.51,-6.38,-7.51,6.00,5.98,3.00,-0.38,-0.38,1.13
22.99,-6.24,-7.37,-6.25,-7.37,6.00,5.95,3.08,-0.24,-0.25,1.13
23.22,-6.13,-7.26,-6.13,-7.25,6.00,5.92,3.17,-0.13,-0.13,1.13
23.45,-6.02,-7.13,-6.02,-7.14,6.00,5.89,3.27,-0.02,-0.02,1.12
23.69,-5.91,-7.03,-5.91,-7.03,6.00,5.85,3.36,0.09,0.09,1.12
23.92,-5.80,-6.91,-5.79,-6.91,6.00,5.81,3.46,0.20,0.21,1.11
24.16,-5.67,-6.78,-5.67,-6.78,6.00,5.77,3.55,0.33,0.33,1.11
24.40,-5.54,-6.65,-5.54,-6.65,6.01,5.73,3.65,0.47,0.47,1.11
24.65,-5.41,-6.52,-5.41,-6.52,6.02,5.68,3.75,0.60,0.61,1.11
24.89,-5.29,-6.40,-5.29,-6.40,6.02,5.64,3.85,0.73,0.73,1.11
25.14,-5.18,-6.29,-5.18,-6.29,6.02,5.59,3.96,0.84,0.84,1.11
25.39,-5.09,-6.19,-5.09,-6.19,6.00,5.54,4.06,0.91,0.91,1.10
25.65,-5.00,-6.10,-5.00,-6.10,5.97,5.48,4.16,0.97,0.97,1.10
25.91,-4.91,-6.01,-4.91,-6.01,5.92,5.43,4.27,1.01,1.02,1.10
26.16,-4.81,-5.91,-4.80,-5.90,5.86,5.37,4.37,1.05,1.06,1.10
26.43,-4.69,-5.79,-4.69,-5.79,5.79,5.32,4.47,1.10,1.10,1.10
26.69,-4.57,-5.67,-4.57,-5.67,5.70,5.26,4.57,1.13,1.13,1.10
26.96,-4.46,-5.56,-4.47,-5.56,5.61,5.20,4.67,1.15,1.14,1.10
27.23,-4.37,-5.47,-4.37,-5.47,5.50,5.14,4.77,1.13,1.13,1.10
27.50,-4.29,-5.39,-4.29,-5.39,5.39,5.08,4.86,1.10,1.10,1.10
27.77,-4.21,-5.31,-4.21,-5.31,5.28,5.01,4.95,1.07,1.07,1.10
28.05,-4.13,-5.22,-4.12,-5.21,5.18,4.95,5.04,1.06,1.07,1.10
28.33,-4.01,-5.10,-4.01,-5.10,5.09,4.89,5.12,1.08,1.09,1.09
28.62,-3.88,-4.98,-3.88,-4.98,5.00,4.83,5.20,1.12,1.12,1.09
28.90,-3.76,-4.86,-3.77,-4.87,4.91,4.76,5.27,1.15,1.14,1.10
29.19,-3.67,-4.77,-3.67,-4.78,4.80,4.70,5.33,1.13,1.13,1.10
29.48,-3.60,-4.70,-3.60,-4.71,4.69,4.63,5.38,1.09,1.09,1.10
29.78,-3.52,-4.63,-3.52,-4.63,4.57,4.57,5.43,1.05,1.05,1.11
30.08,-3.43,-4.54,-3.41,-4.52,4.45,4.50,5.47,1.02,1.04,1.11
30.38,-3.26,-4.37,-3.26,-4.37,4.33,4.44,5.50,1.07,1.08,1.11
30.68,-3.09,-4.20,-3.10,-4.20,4.23,4.37,5.53,1.13,1.13,1.11
30.99,-2.93,-4.04,-2.96,-4.06,4.13,4.31,5.54,1.19,1.17,1.11
31.30,-2.87,-3.98,-2.87,-3.97,4.04,4.24,5.54,1.17,1.17,1.10
31.61,-2.82,-3.92,-2.81,-3.91,3.96,4.18,5.54,1.14,1.16,1.10
31.93,-2.77,-3.87,-2.78,-3.88,3.90,4.11,5.52,1.13,1.12,1.10
32.24,-2.75,-3.84,-2.76,-3.85,3.84,4.05,5.50,1.09,1.08,1.09
32.57,-2.74,-3.83,-2.74,-3.83,3.78,3.98,5.46,1.04,1.04,1.09
32.89,-2.73,-3.82,-2.71,-3.79,3.72,3.92,5.42,0.99,1.01,1.09
33.22,-2.64,-3.72,-2.63,-3.71,3.65,3.86,5.37,1.01,1.02,1.08
33.55,-2.51,-3.58,-2.52,-3.59,3.57,3.79,5.32,1.06,1.06,1.07
33.89,-2.38,-3.44,-2.39,-3.46,3.48,3.73,5.25,1.10,1.09,1.06
34.23,-2.29,-3.35,-2.29,-3.35,3.39,3.67,5.18,1.10,1.11,1.06
34.57,-2.21,-3.27,-2.21,-3.27,3.31,3.61,5.10,1.10,1.10,1.06
34.92,-2.14,-3.20,-2.15,-3.20,3.23,3.55,5.02,1.09,1.08,1.06
35.27,-2.09,-3.15,-2.09,-3.15,3.15,3.49,4.93,1.06,1.06,1.06
35.62,-2.05,-3.10,-2.04,-3.10,3.09,3.43,4.84,1.04,1.04,1.05
35.97,-2.00,-3.05,-2.00,-3.05,3.03,3.37,4.75,1.03,1.03,1.05
36.33,-1.95,-3.00,-1.95,-3.00,2.97,3.31,4.65,1.02,1.02,1.05
36.70,-1.90,-2.95,-1.90,-2.94,2.92,3.25,4.55,1.02,1.02,1.05
37.06,-1.84,-2.88,-1.83,-2.87,2.87,3.20,4.45,1.03,1.04,1.04
37.43,-1.75,-2.79,-1.75,-2.79,2.83,3.14,4.35,1.08,1.08,1.04
37.81,-1.67,-2.72,-1.68,-2.73,2.79,3.09,4.25,1.12,1.11,1.05
38.19,-1.63,-2.68,-1.65,-2.70,2.74,3.03,4.15,1.11,1.09,1.05
38.57,-1.65,-2.69,-1.65,-2.70,2.69,2.98,4.04,1.04,1.04,1.04
38.95,-1.67,-2.72,-1.64,-2.69,2.63,2.92,3.94,0.96,0.99,1.05
39.34,-1.60,-2.65,-1.61,-2.66,2.56,2.87,3.84,0.96,0.95,1.05
39.74,-1.53,-2.58,-1.53,-2.58,2.51,2.82,3.74,0.97,0.97,1.05
40.14,-1.43,-2.47,-1.40,-2.44,2.45,2.77,3.64,1.02,1.05,1.04
40.54,-1.28,-2.32,-1.27,-2.31,2.40,2.72,3.54,1.12,1.13,1.04
40.94,-1.13,-2.17,-1.20,-2.24,2.35,2.67,3.45,1.22,1.14,1.04
41.35,-1.19,-2.22,-1.20,-2.23,2.29,2.62,3.35,1.10,1.09,1.03
41.76,-1.28,-2.30,-1.24,-2.26,2.24,2.57,3.26,0.96,1.00,1.02
42.18,-1.29,-2.30,-1.26,-2.28,2.19,2.52,3.17,0.90,0.93,1.01
42.60,-1.21,-2.22,-1.22,-2.23,2.15,2.48,3.08,0.94,0.93,1.01
43.03,-1.13,-2.14,-1.14,-2.15,2.12,2.43,2.99,0.99,0.98,1.01
43.46,-1.07,-2.07,-1.07,-2.07,2.09,2.38,2.91,1.02,1.03,1.00
43.90,-1.01,-2.00,-1.01,-2.00,2.06,2.34,2.83,1.05,1.05,0.99
44.33,-0.98,-1.96,-0.97,-1.96,2.02,2.30,2.75,1.04,1.04,0.98
44.78,-0.95,-1.93,-0.96,-1.94,1.96,2.25,2.67,1.01,1.00,0.98
45.23,-0.96,-1.93,-0.98,-1.95,1.91,2.21,2.59,0.95,0.94,0.97
45.68,-0.99,-1.96,-0.98,-1.94,1.87,2.17,2.52,0.88,0.90,0.97
46.13,-0.97,-1.94,-0.93,-1.89,1.84,2.13,2.45,0.87,0.91,0.97
46.60,-0.84,-1.81,-0.85,-1.81,1.81,2.09,2.38,0.97,0.96,0.97
47.06,-0.72,-1.69,-0.77,-1.74,1.78,2.05,2.31,1.06,1.01,0.97
47.53,-0.73,-1.70,-0.72,-1.70,1.75,2.01,2.24,1.02,1.03,0.97
48.01,-0.74,-1.72,-0.72,-1.70,1.73,1.97,2.18,0.99,1.01,0.98
48.49,-0.74,-1.72,-0.74,-1.72,1.73,1.93,2.12,0.99,0.99,0.98
48.97,-0.74,-1.72,-0.74,-1.72,1.73,1.89,2.06,0.99,0.99,0.98
49.46,-0.74,-1.73,-0.74,-1.73,1.74,1.86,2.00,1.00,1.00,0.99
49.96,-0.74,-1.74,-0.77,-1.76,1.76,1.82,1.94,1.02,0.99,1.00
50.46,-0.79,-1.79,-0.79,-1.80,1.76,1.79,1.89,0.97,0.97,1.00
50.96,-0.84,-1.85,-0.79,-1.80,1.75,1.75,1.84,0.91,0.97,1.01
51.47,-0.75,-1.77,-0.75,-1.77,1.73,1.72,1.78,0.98,0.98,1.02
51.99,-0.65,-1.67,-0.70,-1.72,1.70,1.68,1.73,1.05,1.00,1.02
52.51,-0.65,-1.67,-0.65,-1.66,1.67,1.65,1.69,1.02,1.02,1.02
53.03,-0.64,-1.66,-0.59,-1.61,1.64,1.62,1.64,1.00,1.04,1.02
53.56,-0.54,-1.56,-0.55,-1.57,1.60,1.59,1.60,1.06,1.06,1.02
54.10,-0.46,-1.49,-0.51,-1.54,1.58,1.55,1.55,1.12,1.07,1.03
54.64,-0.51,-1.54,-0.50,-1.53,1.56,1.52,1.51,1.05,1.06,1.03
55.18,-0.55,-1.58,-0.53,-1.55,1.55,1.49,1.47,1.00,1.02,1.03
55.74,-0.55,-1.57,-0.55,-1.58,1.55,1.46,1.43,1.00,1.00,1.02
56.29,-0.55,-1.57,-0.55,-1.57,1.55,1.43,1.39,1.00,1.00,1.02
56.86,-0.55,-1.57,-0.55,-1.56,1.55,1.40,1.35,1.00,1.00,1.02
57.42,-0.55,-1.55,-0.55,-1.55,1.55,1.38,1.32,1.00,1.00,1.00
58.00,-0.55,-1.54,-0.55,-1.54,1.55,1.35,1.28,1.00,1.00,0.99
58.58,-0.55,-1.53,-0.55,-1.53,1.54,1.32,1.25,0.99,0.99,0.98
59.16,-0.55,-1.52,-0.55,-1.52,1.52,1.29,1.22,0.97,0.97,0.97
59.76,-0.55,-1.50,-0.55,-1.50,1.50,1.27,1.19,0.95,0.95,0.95
60.35,-0.55,-1.48,-0.55,-1.48,1.48,1.24,1.16,0.93,0.93,0.93
60.96,-0.55,-1.45,-0.55,-1.46,1.45,1.22,1.13,0.90,0.90,0.90
61.57,-0.55,-1.43,-0.55,-1.43,1.42,1.19,1.10,0.87,0.87,0.88
62.18,-0.55,-1.39,-0.55,-1.39,1.39,1.17,1.07,0.84,0.84,0.84
62.80,-0.55,-1.36,-0.55,-1.36,1.36,1.14,1.04,0.81,0.81,0.81
63.43,-0.55,-1.31,-0.55,-1.31,1.32,1.12,1.02,0.77,0.77,0.76
64.07,-0.55,-1.27,-0.55,-1.27,1.27,1.10,0.99,0.72,0.72,0.72
64.71,-0.55,-1.23,-0.55,-1.23,1.22,1.07,0.97,0.67,0.67,0.68
65.35,-0.55,-1.19,-0.55,-1.19,1.18,1.05,0.95,0.63,0.62,0.64
66.01,-0.55,-1.15,-0.55,-1.15,1.13,1.03,0.92,0.58,0.58,0.60
66.67,-0.55,-1.11,-0.53,-1.09,1.10,1.01,0.90,0.55,0.56,0.56
67.33,-0.52,-1.05,-0.51,-1.04,1.07,0.99,0.88,0.55,0.56,0.53
68.01,-0.47,-0.96,-0.51,-1.00,1.04,0.97,0.86,0.57,0.54,0.49
68.69,-0.53,-0.99,-0.53,-0.99,1.02,0.95,0.84,0.49,0.49,0.46
69.37,-0.59,-1.02,-0.58,-1.01,1.01,0.93,0.82,0.42,0.42,0.43
70.07,-0.65,-1.05,-0.63,-1.03,0.99,0.91,0.80,0.34,0.36,0.40
70.77,-0.65,-1.01,-0.65,-1.02,0.98,0.89,0.79,0.33,0.33,0.36
71.48,-0.65,-0.99,-0.66,-0.99,0.98,0.87,0.77,0.33,0.32,0.34
72.19,-0.65,-0.96,-0.65,-0.95,0.97,0.85,0.75,0.32,0.32,0.31
72.91,-0.65,-0.92,-0.64,-0.92,0.94,0.83,0.74,0.29,0.30,0.27
73.64,-0.65,-0.89,-0.68,-0.92,0.91,0.81,0.72,0.26,0.24,0.24
74.38,-0.70,-0.90,-0.71,-0.92,0.89,0.79,0.71,0.19,0.18,0.20
75.12,-0.78,-0.95,-0.73,-0.89,0.87,0.78,0.69,0.09,0.15,0.17
75.87,-0.73,-0.85,-0.72,-0.84,0.86,0.76,0.68,0.13,0.14,0.12
76.63,-0.68,-0.76,-0.72,-0.80,0.85,0.74,0.66,0.17,0.13,0.08
77.40,-0.73,-0.77,-0.75,-0.79,0.84,0.73,0.65,0.11,0.08,0.04
78.17,-0.86,-0.86,-0.85,-0.84,0.82,0.71,0.64,-0.04,-0.02,-0.00
78.95,-0.94,-0.89,-0.93,-0.88,0.81,0.69,0.63,-0.13,-0.12,-0.05
79.74,-1.00,-0.91,-0.96,-0.86,0.81,0.68,0.62,-0.19,-0.15,-0.09
80.54,-0.93,-0.79,-0.93,-0.79,0.81,0.66,0.60,-0.12,-0.12,-0.14
81.35,-0.88,-0.70,-0.93,-0.75,0.81,0.65,0.59,-0.07,-0.12,-0.18
82.16,-0.95,-0.73,-0.98,-0.76,0.81,0.63,0.58,-0.14,-0.17,-0.22
82.98,-1.13,-0.87,-1.08,-0.82,0.82,0.62,0.57,-0.31,-0.26,-0.26
83.81,-1.18,-0.87,-1.16,-0.86,0.82,0.60,0.56,-0.36,-0.34,-0.31
84.65,-1.20,-0.86,-1.19,-0.85,0.83,0.59,0.55,-0.37,-0.36,-0.34
85.50,-1.18,-0.80,-1.20,-0.82,0.84,0.57,0.55,-0.34,-0.36,-0.38
86.35,-1.22,-0.79,-1.28,-0.85,0.86,0.56,0.54,-0.36,-0.42,-0.43
87.22,-1.38,-0.91,-1.35,-0.88,0.87,0.55,0.53,-0.51,-0.49,-0.47
88.09,-1.48,-0.96,-1.39,-0.87,0.86,0.53,0.52,-0.62,-0.52,-0.52
88.97,-1.35,-0.80,-1.40,-0.85,0.84,0.52,0.51,-0.51,-0.56,-0.55
89.86,-1.34,-0.74,-1.41,-0.81,0.82,0.51,0.51,-0.52,-0.59,-0.60
90.76,-1.47,-0.83,-1.43,-0.79,0.79,0.49,0.50,-0.68,-0.65,-0.64
91.66,-1.51,-0.83,-1.47,-0.79,0.75,0.48,0.49,-0.76,-0.72,-0.68
92.58,-1.46,-0.74,-1.45,-0.73,0.70,0.47,0.49,-0.76,-0.76,-0.72
93.51,-1.38,-0.62,-1.41,-0.65,0.66,0.46,0.48,-0.72,-0.75,-0.76
94.44,-1.36,-0.56,-1.38,-0.58,0.62,0.44,0.48,-0.74,-0.76,-0.80
95.39,-1.41,-0.57,-1.38,-0.54,0.59,0.43,0.47,-0.82,-0.79,-0.84
96.34,-1.42,-0.54,-1.41,-0.53,0.56,0.42,0.47,-0.86,-0.85,-0.88
97.30,-1.44,-0.52,-1.47,-0.55,0.54,0.41,0.46,-0.90,-0.93,-0.92
98.28,-1.52,-0.55,-1.52,-0.56,0.54,0.40,0.46,-0.98,-0.99,-0.97
99.26,-1.62,-0.62,-1.58,-0.57,0.55,0.39,0.45,-1.07,-1.03,-1.00
100.25,-1.61,-0.57,-1.62,-0.58,0.57,0.37,0.45,-1.04,-1.05,-1.04
101.25,-1.64,-0.56,-1.66,-0.58,0.60,0.36,0.45,-1.04,-1.06,-1.08
102.27,-1.72,-0.59,-1.73,-0.59,0.64,0.35,0.44,-1.08,-1.09,-1.13
103.29,-1.84,-0.66,-1.83,-0.65,0.68,0.34,0.44,-1.16,-1.16,-1.18
104.32,-1.95,-0.72,-1.94,-0.72,0.72,0.33,0.43,-1.23,-1.23,-1.23
105.37,-2.05,-0.78,-2.04,-0.77,0.76,0.32,0.43,-1.29,-1.29,-1.27
106.42,-2.12,-0.80,-2.13,-0.81,0.79,0.31,0.43,-1.33,-1.34,-1.32
107.48,-2.21,-0.84,-2.21,-0.84,0.81,0.30,0.43,-1.40,-1.40,-1.37
108.56,-2.28,-0.86,-2.27,-0.85,0.82,0.29,0.42,-1.46,-1.45,-1.42
109.64,-2.32,-0.85,-2.32,-0.86,0.82,0.28,0.42,-1.50,-1.50,-1.47
110.74,-2.34,-0.83,-2.34,-0.84,0.82,0.27,0.42,-1.52,-1.52,-1.51
111.85,-2.36,-0.81,-2.35,-0.81,0.83,0.26,0.41,-1.53,-1.53,-1.54
112.97,-2.36,-0.78,-2.35,-0.77,0.83,0.25,0.41,-1.53,-1.52,-1.58
114.10,-2.37,-0.75,-2.38,-0.76,0.84,0.24,0.41,-1.53,-1.54,-1.62
115.24,-2.41,-0.76,-2.46,-0.81,0.84,0.23,0.41,-1.57,-1.62,-1.65
116.39,-2.58,-0.89,-2.57,-0.88,0.85,0.22,0.40,-1.73,-1.72,-1.69
117.55,-2.69,-0.98,-2.63,-0.92,0.85,0.21,0.40,-1.84,-1.78,-1.71
118.73,-2.65,-0.92,-2.64,-0.91,0.85,0.20,0.40,-1.80,-1.79,-1.73
119.92,-2.56,-0.81,-2.60,-0.85,0.84,0.19,0.39,-1.72,-1.75,-1.75
121.12,-2.54,-0.77,-2.55,-0.78,0.82,0.18,0.39,-1.72,-1.73,-1.77
122.33,-2.53,-0.75,-2.53,-0.74,0.77,0.18,0.38,-1.76,-1.76,-1.78
123.55,-2.52,-0.72,-2.51,-0.71,0.70,0.17,0.38,-1.82,-1.81,-1.80
124.79,-2.47,-0.66,-2.47,-0.65,0.62,0.16,0.37,-1.85,-1.85,-1.82
126.03,-2.41,-0.58,-2.40,-0.57,0.54,0.15,0.37,-1.87,-1.86,-1.83
127.29,-2.30,-0.46,-2.31,-0.46,0.47,0.14,0.37,-1.83,-1.84,-1.84
128.57,-2.22,-0.36,-2.22,-0.36,0.40,0.13,0.36,-1.82,-1.82,-1.86
129.85,-2.15,-0.28,-2.15,-0.28,0.32,0.12,0.35,-1.83,-1.83,-1.87
131.15,-2.10,-0.21,-2.12,-0.23,0.25,0.11,0.35,-1.85,-1.87,-1.89
132.46,-2.10,-0.19,-2.09,-0.19,0.18,0.11,0.34,-1.92,-1.92,-1.91
133.79,-2.09,-0.17,-2.07,-0.15,0.11,0.10,0.34,-1.98,-1.96,-1.92
135.12,-2.02,-0.08,-2.02,-0.08,0.06,0.09,0.33,-1.96,-1.96,-1.94
136.48,-1.96,-0.01,-1.96,-0.01,0.02,0.08,0.33,-1.94,-1.94,-1.95
137.84,-1.90,0.07,-1.91,0.06,-0.03,0.07,0.32,-1.93,-1.94,-1.97
139.22,-1.89,0.10,-1.89,0.10,-0.08,0.06,0.31,-1.97,-1.97,-1.99
140.61,-1.89,0.12,-1.88,0.13,-0.13,0.05,0.31,-2.02,-2.01,-2.01
142.02,-1.89,0.14,-1.89,0.14,-0.18,0.05,0.30,-2.07,-2.07,-2.03
143.44,-1.88,0.18,-1.88,0.17,-0.21,0.04,0.29,-2.09,-2.10,-2.06
144.87,-1.88,0.20,-1.83,0.25,-0.24,0.03,0.29,-2.12,-2.08,-2.08
146.32,-1.79,0.32,-1.81,0.31,-0.26,0.02,0.28,-2.05,-2.07,-2.11
147.78,-1.75,0.40,-1.82,0.32,-0.28,0.01,0.27,-2.03,-2.10,-2.15
149.26,-1.90,0.28,-1.87,0.31,-0.30,0.01,0.27,-2.20,-2.17,-2.18
150.75,-1.98,0.25,-1.93,0.30,-0.33,-0.00,0.26,-2.31,-2.26,-2.23
152.26,-1.98,0.30,-1.99,0.29,-0.35,-0.01,0.25,-2.33,-2.34,-2.28
153.78,-1.98,0.36,-2.04,0.30,-0.36,-0.02,0.25,-2.34,-2.39,-2.34
155.32,-2.11,0.29,-2.06,0.34,-0.34,-0.03,0.24,-2.45,-2.40,-2.40
156.88,-2.14,0.31,-2.09,0.37,-0.31,-0.04,0.23,-2.45,-2.40,-2.45
158.44,-2.07,0.44,-2.15,0.36,-0.27,-0.04,0.23,-2.34,-2.42,-2.51
160.03,-2.23,0.34,-2.26,0.30,-0.22,-0.05,0.22,-2.45,-2.48,-2.57
161.63,-2.47,0.14,-2.43,0.19,-0.15,-0.06,0.21,-2.62,-2.58,-2.61
163.24,-2.63,0.03,-2.60,0.05,-0.09,-0.07,0.21,-2.72,-2.69,-2.66
164.88,-2.71,-0.02,-2.73,-0.04,-0.03,-0.08,0.20,-2.74,-2.76,-2.69
166.53,-2.79,-0.07,-2.81,-0.09,0.02,-0.09,0.20,-2.77,-2.78,-2.72
168.19,-2.87,-0.14,-2.85,-0.12,0.06,-0.10,0.19,-2.81,-2.79,-2.73
169.87,-2.87,-0.13,-2.86,-0.12,0.08,-0.10,0.19,-2.79,-2.78,-2.74
171.57,-2.81,-0.06,-2.80,-0.05,0.07,-0.11,0.18,-2.74,-2.73,-2.75
173.29,-2.74,0.01,-2.73,0.01,0.04,-0.12,0.18,-2.70,-2.69,-2.75
175.02,-2.63,0.10,-2.70,0.03,-0.00,-0.13,0.17,-2.63,-2.71,-2.73
176.77,-2.71,0.01,-2.69,0.03,-0.05,-0.14,0.17,-2.76,-2.73,-2.72
178.54,-2.72,-0.01,-2.65,0.05,-0.08,-0.15,0.16,-2.80,-2.73,-2.71
180.32,-2.58,0.10,-2.61,0.08,-0.09,-0.16,0.16,-2.67,-2.69,-2.68
182.13,-2.50,0.17,-2.52,0.15,-0.08,-0.16,0.15,-2.58,-2.60,-2.67
183.95,-2.49,0.15,-2.49,0.16,-0.07,-0.17,0.15,-2.56,-2.56,-2.64
185.79,-2.48,0.15,-2.53,0.10,-0.07,-0.18,0.15,-2.55,-2.60,-2.63
187.65,-2.64,-0.01,-2.59,0.04,-0.07,-0.19,0.14,-2.71,-2.66,-2.63
189.52,-2.63,-0.01,-2.64,-0.02,-0.09,-0.20,0.14,-2.72,-2.72,-2.62
191.42,-2.63,-0.01,-2.63,-0.01,-0.10,-0.21,0.13,-2.73,-2.73,-2.62
193.33,-2.58,0.03,-2.53,0.09,-0.11,-0.22,0.13,-2.69,-2.64,-2.61
195.27,-2.41,0.21,-2.44,0.18,-0.13,-0.23,0.13,-2.54,-2.57,-2.62
197.22,-2.33,0.30,-2.40,0.23,-0.16,-0.24,0.12,-2.49,-2.55,-2.63
199.19,-2.42,0.21,-2.40,0.23,-0.18,-0.25,0.12,-2.60,-2.58,-2.63
201.18,-2.47,0.17,-2.42,0.22,-0.20,-0.26,0.12,-2.67,-2.63,-2.64
203.19,-2.44,0.21,-2.44,0.21,-0.22,-0.27,0.11,-2.66,-2.66,-2.65
205.23,-2.40,0.26,-2.44,0.21,-0.22,-0.28,0.11,-2.62,-2.66,-2.66
207.28,-2.47,0.20,-2.47,0.20,-0.21,-0.29,0.10,-2.68,-2.68,-2.67
209.35,-2.54,0.14,-2.52,0.16,-0.19,-0.30,0.10,-2.73,-2.71,-2.68
211.44,-2.56,0.14,-2.55,0.15,-0.18,-0.31,0.09,-2.74,-2.73,-2.70
213.56,-2.54,0.17,-2.53,0.17,-0.17,-0.32,0.09,-2.71,-2.71,-2.71
215.69,-2.51,0.21,-2.53,0.19,-0.16,-0.33,0.09,-2.67,-2.69,-2.72
217.85,-2.53,0.20,-2.56,0.18,-0.15,-0.34,0.08,-2.68,-2.71,-2.73
220.03,-2.62,0.13,-2.59,0.16,-0.13,-0.35,0.07,-2.75,-2.72,-2.75
222.23,-2.66,0.10,-2.64,0.12,-0.11,-0.36,0.07,-2.77,-2.75,-2.76
224.45,-2.64,0.12,-2.68,0.08,-0.09,-0.37,0.06,-2.73,-2.78,-2.76
226.70,-2.72,0.05,-2.72,0.05,-0.07,-0.38,0.05,-2.79,-2.79,-2.77
228.96,-2.77,0.01,-2.74,0.04,-0.05,-0.39,0.05,-2.82,-2.78,-2.78
231.25,-2.75,0.02,-2.76,0.02,-0.03,-0.40,0.04,-2.78,-2.79,-2.77
233.57,-2.73,0.05,-2.76,0.02,-0.03,-0.41,0.03,-2.76,-2.79,-2.78
235.90,-2.77,0.01,-2.75,0.02,-0.03,-0.43,0.02,-2.80,-2.78,-2.78
238.26,-2.77,0.00,-2.75,0.02,-0.03,-0.44,0.01,-2.80,-2.78,-2.77
240.64,-2.71,0.05,-2.73,0.03,-0.03,-0.45,-0.00,-2.74,-2.76,-2.76
243.05,-2.69,0.06,-2.69,0.07,-0.04,-0.46,-0.01,-2.73,-2.72,-2.75
245.48,-2.67,0.08,-2.66,0.08,-0.05,-0.47,-0.03,-2.72,-2.71,-2.75
247.93,-2.64,0.10,-2.67,0.07,-0.06,-0.49,-0.04,-2.70,-2.73,-2.74
250.41,-2.70,0.04,-2.69,0.05,-0.07,-0.50,-0.05,-2.77,-2.76,-2.74
252.92,-2.71,0.02,-2.70,0.04,-0.09,-0.51,-0.07,-2.80,-2.79,-2.73
255.45,-2.69,0.05,-2.68,0.06,-0.10,-0.53,-0.09,-2.79,-2.78,-2.74
258.00,-2.63,0.11,-2.63,0.11,-0.10,-0.54,-0.10,-2.73,-2.73,-2.74
260.58,-2.58,0.16,-2.60,0.14,-0.10,-0.55,-0.12,-2.68,-2.70,-2.74
263.19,-2.59,0.16,-2.60,0.15,-0.08,-0.57,-0.14,-2.67,-2.68,-2.75
265.82,-2.65,0.10,-2.63,0.12,-0.07,-0.58,-0.16,-2.72,-2.70,-2.75
268.48,-2.68,0.08,-2.69,0.07,-0.06,-0.59,-0.18,-2.74,-2.75,-2.76
271.16,-2.74,0.02,-2.74,0.01,-0.05,-0.61,-0.20,-2.79,-2.79,-2.76
273.87,-2.79,-0.03,-2.78,-0.01,-0.04,-0.62,-0.23,-2.83,-2.82,-2.76
276.61,-2.79,-0.02,-2.78,-0.02,-0.04,-0.64,-0.25,-2.83,-2.82,-2.77
279.38,-2.75,0.02,-2.76,0.01,-0.05,-0.65,-0.27,-2.80,-2.80,-2.77
282.17,-2.70,0.06,-2.70,0.06,-0.07,-0.67,-0.30,-2.77,-2.77,-2.76
284.99,-2.65,0.11,-2.64,0.12,-0.10,-0.68,-0.32,-2.74,-2.73,-2.76
287.84,-2.57,0.19,-2.59,0.16,-0.13,-0.70,-0.35,-2.70,-2.72,-2.76
290.72,-2.55,0.20,-2.56,0.19,-0.16,-0.71,-0.38,-2.71,-2.71,-2.75
293.63,-2.56,0.18,-2.54,0.20,-0.18,-0.73,-0.41,-2.74,-2.72,-2.74
296.57,-2.54,0.20,-2.54,0.20,-0.20,-0.75,-0.44,-2.74,-2.74,-2.74
299.53,-2.53,0.21,-2.53,0.20,-0.21,-0.76,-0.47,-2.74,-2.74,-2.74
302.53,-2.52,0.21,-2.52,0.21,-0.22,-0.78,-0.50,-2.74,-2.74,-2.73
305.55,-2.51,0.22,-2.52,0.21,-0.24,-0.80,-0.53,-2.75,-2.75,-2.73
308.61,-2.50,0.23,-2.50,0.24,-0.25,-0.81,-0.56,-2.75,-2.75,-2.73
311.69,-2.49,0.25,-2.45,0.28,-0.28,-0.83,-0.59,-2.77,-2.74,-2.74
314.81,-2.39,0.36,-2.41,0.33,-0.32,-0.85,-0.63,-2.71,-2.74,-2.75
317.96,-2.35,0.40,-2.39,0.37,-0.38,-0.87,-0.66,-2.73,-2.76,-2.75
321.14,-2.38,0.38,-2.36,0.40,-0.42,-0.89,-0.70,-2.80,-2.79,-2.76
324.35,-2.37,0.39,-2.33,0.44,-0.46,-0.91,-0.73,-2.83,-2.79,-2.76
327.59,-2.26,0.52,-2.25,0.52,-0.50,-0.92,-0.77,-2.76,-2.75,-2.78
330.87,-2.15,0.64,-2.19,0.60,-0.53,-0.94,-0.81,-2.68,-2.72,-2.79
334.18,-2.14,0.66,-2.17,0.63,-0.56,-0.96,-0.84,-2.70,-2.73,-2.80
337.52,-2.23,0.58,-2.21,0.59,-0.60,-0.98,-0.88,-2.83,-2.81,-2.81
340.90,-2.27,0.54,-2.25,0.57,-0.63,-1.00,-0.92,-2.90,-2.89,-2.81
344.30,-2.25,0.57,-2.23,0.60,-0.68,-1.03,-0.96,-2.93,-2.90,-2.82
347.75,-2.15,0.69,-2.15,0.69,-0.72,-1.05,-1.00,-2.87,-2.86,-2.84
351.23,-2.04,0.82,-2.08,0.77,-0.76,-1.07,-1.05,-2.80,-2.84,-2.86
354.74,-2.01,0.86,-2.03,0.84,-0.81,-1.09,-1.09,-2.82,-2.83,-2.87
358.28,-2.05,0.83,-1.99,0.89,-0.86,-1.11,-1.13,-2.91,-2.85,-2.88
361.87,-1.95,0.94,-1.96,0.94,-0.92,-1.13,-1.18,-2.87,-2.88,-2.89
365.49,-1.90,1.01,-1.93,0.98,-0.97,-1.16,-1.22,-2.87,-2.90,-2.91
369.14,-1.89,1.03,-1.91,1.01,-1.01,-1.18,-1.27,-2.90,-2.92,-2.92
372.83,-1.93,1.00,-1.90,1.03,-1.05,-1.20,-1.32,-2.98,-2.95,-2.93
376.56,-1.90,1.04,-1.87,1.08,-1.09,-1.23,-1.36,-2.99,-2.95,-2.94
380.33,-1.79,1.16,-1.82,1.13,-1.14,-1.25,-1.41,-2.93,-2.96,-2.95
384.13,-1.76,1.21,-1.80,1.17,-1.19,-1.28,-1.46,-2.95,-2.99,-2.97
387.97,-1.78,1.20,-1.76,1.21,-1.24,-1.30,-1.51,-3.02,-3.01,-2.98
391.85,-1.78,1.21,-1.71,1.28,-1.29,-1.33,-1.56,-3.07,-3.00,-2.99
395.77,-1.60,1.40,-1.63,1.36,-1.34,-1.35,-1.61,-2.94,-2.98,-3.00
399.73,-1.52,1.49,-1.56,1.45,-1.39,-1.38,-1.66,-2.91,-2.96,-3.01
403.72,-1.55,1.47,-1.54,1.48,-1.44,-1.41,-1.71,-2.99,-2.97,-3.02
407.76,-1.57,1.47,-1.57,1.47,-1.47,-1.43,-1.77,-3.04,-3.04,-3.04
411.84,-1.60,1.45,-1.58,1.47,-1.50,-1.46,-1.82,-3.10,-3.09,-3.05
415.96,-1.57,1.49,-1.56,1.50,-1.53,-1.49,-1.87,-3.10,-3.08,-3.06
420.12,-1.50,1.56,-1.52,1.55,-1.55,-1.52,-1.92,-3.05,-3.07,-3.06
424.32,-1.47,1.60,-1.48,1.59,-1.57,-1.54,-1.97,-3.04,-3.05,-3.07
428.56,-1.46,1.61,-1.47,1.60,-1.59,-1.57,-2.02,-3.05,-3.06,-3.07
432.85,-1.46,1.60,-1.45,1.61,-1.63,-1.60,-2.07,-3.09,-3.08,-3.06
437.18,-1.44,1.61,-1.41,1.65,-1.67,-1.63,-2.12,-3.11,-3.07,-3.05
441.55,-1.32,1.71,-1.34,1.70,-1.70,-1.66,-2.17,-3.02,-3.04,-3.03
445.96,-1.24,1.78,-1.26,1.75,-1.74,-1.69,-2.22,-2.98,-3.00,-3.02
450.42,-1.19,1.80,-1.18,1.80,-1.78,-1.72,-2.26,-2.97,-2.97,-2.99
454.93,-1.13,1.82,-1.11,1.84,-1.83,-1.76,-2.31,-2.96,-2.94,-2.95
459.48,-1.02,1.89,-1.03,1.88,-1.89,-1.79,-2.35,-2.91,-2.92,-2.91
464.07,-0.92,1.96,-0.94,1.93,-1.95,-1.82,-2.39,-2.87,-2.89,-2.88
