frequency,raw,error,smoothed,error_smoothed,equalization,parametric_eq,fixed_band_eq,equalized_raw,equalized_smoothed,target
20.00,1.75,4.59,1.75,4.59,-4.58,-4.77,-2.59,-2.83,-2.83,-2.84
20.20,1.76,4.59,1.76,4.59,-4.59,-4.78,-2.66,-2.83,-2.83,-2.83
20.40,1.78,4.60,1.77,4.60,-4.60,-4.80,-2.74,-2.82,-2.82,-2.82
20.61,1.79,4.61,1.79,4.61,-4.61,-4.81,-2.82,-2.82,-2.82,-2.82
20.81,1.81,4.62,1.81,4.62,-4.63,-4.82,-2.90,-2.82,-2.82,-2.81
21.02,1.82,4.63,1.83,4.64,-4.65,-4.84,-2.98,-2.83,-2.82,-2.81
21.23,1.86,4.66,1.86,4.67,-4.68,-4.85,-3.06,-2.82,-2.81,-2.80
21.44,1.91,4.71,1.90,4.71,-4.71,-4.87,-3.15,-2.80,-2.80,-2.80
21.66,1.95,4.75,1.95,4.75,-4.75,-4.88,-3.24,-2.80,-2.80,-2.80
21.87,1.99,4.79,1.99,4.79,-4.79,-4.90,-3.33,-2.80,-2.80,-2.80
22.09,2.03,4.82,2.03,4.83,-4.84,-4.92,-3.43,-2.81,-2.80,-2.79
22.31,2.08,4.87,2.08,4.87,-4.88,-4.93,-3.52,-2.80,-2.81,-2.79
22.54,2.12,4.92,2.13,4.93,-4.93,-4.95,-3.62,-2.81,-2.80,-2.80
22.76,2.17,4.98,2.17,4.98,-4.96,-4.97,-3.73,-2.79,-2.79,-2.81
22.99,2.22,5.03,2.21,5.02,-4.99,-4.99,-3.83,-2.77,-2.79,-2.81
23.22,2.22,5.03,2.23,5.04,-5.02,-5.01,-3.94,-2.80,-2.79,-2.81
23.45,2.23,5.05,2.23,5.05,-5.04,-5.03,-4.05,-2.81,-2.81,-2.82
23.69,2.23,5.05,2.23,5.05,-5.07,-5.05,-4.16,-2.84,-2.84,-2.82
23.92,2.24,5.06,2.25,5.07,-5.09,-5.07,-4.27,-2.85,-2.84,-2.82
24.16,2.27,5.09,2.27,5.09,-5.11,-5.09,-4.39,-2.84,-2.84,-2.82
24.40,2.31,5.13,2.31,5.13,-5.14,-5.11,-4.51,-2.82,-2.83,-2.82
24.65,2.34,5.16,2.35,5.17,-5.16,-5.13,-4.63,-2.82,-2.82,-2.82
24.89,2.38,5.20,2.38,5.20,-5.20,-5.15,-4.75,-2.81,-2.81,-2.82
25.14,2.42,5.24,2.41,5.24,-5.23,-5.17,-4.87,-2.81,-2.82,-2.82
25.39,2.44,5.27,2.44,5.27,-5.27,-5.20,-4.99,-2.83,-2.82,-2.83
25.65,2.47,5.30,2.47,5.30,-5.30,-5.22,-5.12,-2.83,-2.83,-2.83
25.91,2.50,5.33,2.50,5.33,-5.33,-5.24,-5.24,-2.83,-2.83,-2.83
26.16,2.53,5.36,2.53,5.36,-5.36,-5.26,-5.37,-2.83,-2.83,-2.83
26.43,2.56,5.39,2.56,5.39,-5.39,-5.29,-5.49,-2.83,-2.83,-2.83
26.69,2.59,5.42,2.59,5.42,-5.42,-5.31,-5.62,-2.83,-2.83,-2.83
26.96,2.62,5.45,2.62,5.45,-5.45,-5.33,-5.74,-2.83,-2.83,-2.83
27.23,2.64,5.47,2.64,5.48,-5.48,-5.35,-5.86,-2.84,-2.83,-2.83
27.50,2.67,5.50,2.67,5.50,-5.51,-5.38,-5.97,-2.84,-2.83,-2.83
27.77,2.70,5.53,2.70,5.53,-5.53,-5.40,-6.09,-2.83,-2.84,-2.83
28.05,2.73,5.56,2.73,5.56,-5.56,-5.42,-6.20,-2.83,-2.83,-2.83
28.33,2.75,5.58,2.76,5.59,-5.58,-5.44,-6.30,-2.83,-2.83,-2.83
28.62,2.78,5.61,2.78,5.61,-5.60,-5.47,-6.40,-2.82,-2.82,-2.83
28.90,2.81,5.63,2.80,5.63,-5.62,-5.49,-6.49,-2.81,-2.82,-2.82
29.19,2.82,5.64,2.82,5.64,-5.63,-5.51,-6.58,-2.81,-2.81,-2.82
29.48,2.83,5.65,2.83,5.65,-5.65,-5.53,-6.66,-2.82,-2.81,-2.82
29.78,2.84,5.65,2.84,5.65,-5.66,-5.56,-6.73,-2.82,-2.82,-2.81
30.08,2.85,5.66,2.85,5.66,-5.68,-5.58,-6.79,-2.83,-2.82,-2.81
30.38,2.87,5.68,2.87,5.68,-5.69,-5.60,-6.84,-2.82,-2.82,-2.81
30.68,2.89,5.70,2.89,5.70,-5.71,-5.62,-6.89,-2.82,-2.82,-2.81
30.99,2.92,5.73,2.92,5.73,-5.74,-5.64,-6.92,-2.82,-2.82,-2.81
31.30,2.95,5.76,2.95,5.76,-5.76,-5.66,-6.95,-2.81,-2.81,-2.81
31.61,2.98,5.79,2.98,5.79,-5.78,-5.69,-6.96,-2.80,-2.80,-2.81
31.93,3.01,5.82,3.01,5.82,-5.80,-5.71,-6.97,-2.79,-2.80,-2.81
32.24,3.02,5.84,3.02,5.84,-5.82,-5.73,-6.97,-2.80,-2.80,-2.82
32.57,3.02,5.84,3.02,5.84,-5.83,-5.75,-6.96,-2.81,-2.81,-2.82
32.89,3.02,5.84,3.02,5.85,-5.85,-5.77,-6.94,-2.82,-2.82,-2.82
33.22,3.02,5.85,3.02,5.85,-5.86,-5.79,-6.91,-2.84,-2.84,-2.83
33.55,3.02,5.85,3.02,5.85,-5.87,-5.80,-6.88,-2.85,-2.85,-2.83
33.89,3.02,5.86,3.03,5.87,-5.88,-5.82,-6.84,-2.86,-2.86,-2.84
34.23,3.04,5.88,3.05,5.89,-5.90,-5.84,-6.79,-2.86,-2.85,-2.84
34.57,3.08,5.92,3.08,5.92,-5.91,-5.86,-6.74,-2.83,-2.84,-2.84
34.92,3.11,5.95,3.10,5.95,-5.93,-5.88,-6.68,-2.82,-2.82,-2.84
35.27,3.12,5.96,3.12,5.96,-5.94,-5.90,-6.62,-2.82,-2.82,-2.84
35.62,3.12,5.96,3.12,5.96,-5.95,-5.91,-6.56,-2.83,-2.83,-2.84
35.97,3.12,5.96,3.12,5.96,-5.96,-5.93,-6.49,-2.84,-2.84,-2.84
36.33,3.12,5.96,3.12,5.96,-5.97,-5.95,-6.43,-2.85,-2.86,-2.84
36.70,3.12,5.96,3.12,5.96,-5.99,-5.96,-6.36,-2.87,-2.86,-2.84
37.06,3.13,5.97,3.14,5.98,-6.00,-5.98,-6.29,-2.86,-2.86,-2.84
37.43,3.16,6.00,3.16,6.00,-6.01,-5.99,-6.23,-2.84,-2.84,-2.84
37.81,3.20,6.03,3.19,6.03,-6.02,-6.01,-6.16,-2.82,-2.82,-2.83
38.19,3.22,6.05,3.21,6.05,-6.03,-6.02,-6.10,-2.81,-2.81,-2.83
38.57,3.22,6.05,3.22,6.05,-6.03,-6.03,-6.03,-2.81,-2.81,-2.83
38.95,3.22,6.04,3.22,6.05,-6.04,-6.05,-5.97,-2.82,-2.82,-2.82
39.34,3.22,6.04,3.22,6.04,-6.04,-6.06,-5.91,-2.82,-2.82,-2.82
39.74,3.22,6.04,3.22,6.04,-6.05,-6.07,-5.86,-2.83,-2.83,-2.82
40.14,3.22,6.04,3.22,6.04,-6.05,-6.08,-5.81,-2.83,-2.84,-2.82
40.54,3.22,6.04,3.22,6.04,-6.06,-6.09,-5.76,-2.84,-2.84,-2.82
40.94,3.22,6.04,3.23,6.06,-6.08,-6.10,-5.71,-2.85,-2.84,-2.82
41.35,3.26,6.08,3.26,6.09,-6.09,-6.11,-5.67,-2.83,-2.83,-2.82
41.76,3.30,6.13,3.29,6.12,-6.11,-6.12,-5.63,-2.81,-2.81,-2.83
42.18,3.32,6.15,3.32,6.15,-6.12,-6.13,-5.59,-2.80,-2.81,-2.83
42.60,3.32,6.15,3.32,6.15,-6.14,-6.14,-5.56,-2.82,-2.82,-2.83
43.03,3.32,6.15,3.32,6.15,-6.15,-6.15,-5.54,-2.83,-2.83,-2.83
43.46,3.32,6.15,3.32,6.16,-6.17,-6.15,-5.51,-2.85,-2.85,-2.83
43.90,3.32,6.16,3.32,6.16,-6.17,-6.16,-5.49,-2.85,-2.85,-2.84
44.33,3.32,6.16,3.32,6.16,-6.17,-6.16,-5.48,-2.85,-2.85,-2.84
44.78,3.32,6.16,3.32,6.16,-6.16,-6.17,-5.47,-2.84,-2.84,-2.84
45.23,3.32,6.16,3.32,6.17,-6.15,-6.17,-5.46,-2.83,-2.82,-2.84
45.68,3.32,6.16,3.32,6.16,-6.13,-6.18,-5.46,-2.81,-2.82,-2.84
46.13,3.31,6.14,3.30,6.13,-6.12,-6.18,-5.46,-2.81,-2.82,-2.83
46.60,3.26,6.09,3.26,6.09,-6.10,-6.18,-5.47,-2.83,-2.83,-2.83
47.06,3.22,6.04,3.24,6.06,-6.07,-6.19,-5.48,-2.85,-2.84,-2.82
47.53,3.22,6.03,3.22,6.03,-6.05,-6.19,-5.49,-2.83,-2.83,-2.81
48.01,3.22,6.02,3.22,6.02,-6.03,-6.19,-5.51,-2.81,-2.81,-2.80
48.49,3.22,6.01,3.22,6.01,-6.01,-6.19,-5.53,-2.79,-2.79,-2.79
48.97,3.22,6.00,3.22,6.00,-5.99,-6.19,-5.56,-2.77,-2.77,-2.78
49.46,3.22,5.99,3.22,5.99,-5.98,-6.19,-5.58,-2.76,-2.76,-2.77
49.96,3.22,5.97,3.22,5.97,-5.97,-6.19,-5.61,-2.75,-2.75,-2.75
50.46,3.22,5.96,3.22,5.96,-5.97,-6.19,-5.65,-2.75,-2.75,-2.74
50.96,3.22,5.94,3.22,5.94,-5.95,-6.18,-5.68,-2.73,-2.73,-2.72
51.47,3.22,5.93,3.22,5.93,-5.94,-6.18,-5.72,-2.71,-2.71,-2.71
51.99,3.22,5.92,3.23,5.93,-5.91,-6.18,-5.76,-2.69,-2.69,-2.70
52.51,3.22,5.91,3.22,5.91,-5.89,-6.17,-5.80,-2.67,-2.67,-2.69
53.03,3.22,5.90,3.20,5.88,-5.86,-6.17,-5.84,-2.64,-2.66,-2.68
53.56,3.16,5.83,3.17,5.84,-5.83,-6.16,-5.88,-2.67,-2.67,-2.67
54.10,3.12,5.77,3.14,5.79,-5.81,-6.16,-5.93,-2.69,-2.67,-2.65
54.64,3.12,5.76,3.12,5.76,-5.79,-6.15,-5.97,-2.67,-2.67,-2.64
55.18,3.12,5.75,3.12,5.75,-5.77,-6.14,-6.01,-2.65,-2.65,-2.63
55.74,3.12,5.75,3.12,5.75,-5.75,-6.13,-6.05,-2.63,-2.63,-2.63
56.29,3.12,5.74,3.12,5.74,-5.74,-6.13,-6.09,-2.62,-2.62,-2.62
56.86,3.12,5.73,3.12,5.74,-5.73,-6.12,-6.12,-2.61,-2.61,-2.61
57.42,3.12,5.73,3.12,5.73,-5.72,-6.11,-6.16,-2.60,-2.60,-2.61
58.00,3.12,5.73,3.12,5.73,-5.71,-6.10,-6.19,-2.59,-2.59,-2.61
58.58,3.11,5.72,3.11,5.72,-5.70,-6.09,-6.22,-2.59,-2.59,-2.61
59.16,3.09,5.70,3.08,5.69,-5.68,-6.08,-6.24,-2.59,-2.61,-2.61
59.76,3.03,5.64,3.04,5.66,-5.67,-6.06,-6.26,-2.64,-2.63,-2.61
60.35,3.01,5.63,3.02,5.64,-5.67,-6.05,-6.27,-2.66,-2.65,-2.62
60.96,3.02,5.65,3.01,5.64,-5.67,-6.04,-6.28,-2.65,-2.66,-2.63
61.57,3.02,5.66,3.02,5.66,-5.68,-6.03,-6.28,-2.66,-2.66,-2.64
62.18,3.02,5.68,3.02,5.68,-5.68,-6.01,-6.28,-2.66,-2.66,-2.66
62.80,3.02,5.70,3.02,5.71,-5.69,-6.00,-6.27,-2.67,-2.67,-2.68
63.43,3.02,5.73,3.02,5.73,-5.70,-5.98,-6.25,-2.68,-2.68,-2.71
64.07,3.02,5.75,3.01,5.75,-5.71,-5.97,-6.24,-2.69,-2.70,-2.73
64.71,2.98,5.74,2.97,5.73,-5.73,-5.95,-6.21,-2.75,-2.75,-2.76
65.35,2.94,5.72,2.94,5.72,-5.74,-5.94,-6.18,-2.80,-2.80,-2.78
66.01,2.88,5.68,2.91,5.71,-5.75,-5.92,-6.15,-2.86,-2.84,-2.80
66.67,2.91,5.73,2.90,5.72,-5.75,-5.90,-6.11,-2.84,-2.85,-2.82
67.33,2.92,5.75,2.91,5.75,-5.75,-5.88,-6.06,-2.83,-2.84,-2.83
68.01,2.92,5.77,2.93,5.77,-5.75,-5.87,-6.02,-2.83,-2.83,-2.85
68.69,2.92,5.78,2.92,5.78,-5.75,-5.85,-5.97,-2.83,-2.83,-2.86
69.37,2.90,5.77,2.90,5.77,-5.74,-5.83,-5.91,-2.84,-2.84,-2.87
70.07,2.86,5.74,2.86,5.74,-5.73,-5.81,-5.86,-2.87,-2.87,-2.88
70.77,2.81,5.70,2.81,5.70,-5.71,-5.79,-5.80,-2.90,-2.90,-2.89
71.48,2.76,5.65,2.76,5.66,-5.68,-5.77,-5.74,-2.92,-2.92,-2.89
72.19,2.72,5.62,2.74,5.64,-5.65,-5.75,-5.68,-2.93,-2.91,-2.90
72.91,2.72,5.63,2.73,5.64,-5.61,-5.73,-5.62,-2.89,-2.89,-2.91
73.64,2.72,5.64,2.69,5.61,-5.59,-5.71,-5.56,-2.87,-2.90,-2.92
74.38,2.66,5.59,2.64,5.57,-5.58,-5.69,-5.50,-2.92,-2.94,-2.93
75.12,2.55,5.49,2.59,5.53,-5.57,-5.67,-5.44,-3.02,-2.98,-2.94
75.87,2.55,5.51,2.57,5.52,-5.57,-5.64,-5.38,-3.02,-3.01,-2.96
76.63,2.59,5.56,2.58,5.55,-5.58,-5.62,-5.32,-2.99,-3.00,-2.97
77.40,2.62,5.61,2.62,5.61,-5.58,-5.60,-5.27,-2.96,-2.96,-2.99
78.17,2.62,5.62,2.61,5.61,-5.58,-5.58,-5.22,-2.96,-2.97,-3.00
78.95,2.61,5.63,2.58,5.60,-5.57,-5.55,-5.17,-2.96,-2.99,-3.02
79.74,2.49,5.52,2.55,5.59,-5.56,-5.53,-5.12,-3.07,-3.00,-3.03
80.54,2.52,5.57,2.52,5.57,-5.54,-5.51,-5.07,-3.02,-3.02,-3.05
81.35,2.52,5.58,2.46,5.52,-5.52,-5.48,-5.03,-3.00,-3.06,-3.06
82.16,2.39,5.46,2.40,5.47,-5.49,-5.46,-4.99,-3.10,-3.10,-3.07
82.98,2.28,5.36,2.31,5.39,-5.46,-5.44,-4.96,-3.18,-3.15,-3.08
83.81,2.26,5.35,2.27,5.36,-5.43,-5.41,-4.92,-3.17,-3.16,-3.09
84.65,2.29,5.38,2.30,5.40,-5.39,-5.39,-4.89,-3.10,-3.09,-3.09
85.50,2.35,5.45,2.33,5.43,-5.35,-5.36,-4.87,-3.00,-3.02,-3.10
86.35,2.33,5.44,2.28,5.39,-5.30,-5.34,-4.85,-2.97,-3.02,-3.11
87.22,2.18,5.30,2.20,5.32,-5.27,-5.32,-4.83,-3.09,-3.07,-3.12
88.09,2.03,5.16,2.07,5.20,-5.24,-5.29,-4.81,-3.21,-3.17,-3.13
88.97,2.02,5.15,1.99,5.12,-5.22,-5.27,-4.80,-3.20,-3.23,-3.13
89.86,1.93,5.07,1.97,5.11,-5.19,-5.24,-4.80,-3.26,-3.22,-3.14
90.76,1.99,5.14,1.99,5.13,-5.16,-5.22,-4.79,-3.17,-3.17,-3.15
91.66,2.02,5.17,2.00,5.15,-5.13,-5.20,-4.79,-3.11,-3.13,-3.15
92.58,2.02,5.17,2.01,5.17,-5.11,-5.17,-4.79,-3.09,-3.10,-3.15
93.51,1.98,5.14,1.98,5.14,-5.08,-5.15,-4.80,-3.10,-3.10,-3.16
94.44,1.93,5.09,1.93,5.09,-5.05,-5.13,-4.81,-3.12,-3.12,-3.16
95.39,1.87,5.03,1.88,5.04,-5.02,-5.10,-4.82,-3.14,-3.14,-3.16
96.34,1.81,4.97,1.81,4.97,-4.98,-5.08,-4.84,-3.17,-3.17,-3.16
97.30,1.76,4.92,1.72,4.89,-4.94,-5.06,-4.86,-3.18,-3.22,-3.16
98.28,1.63,4.80,1.66,4.83,-4.91,-5.04,-4.88,-3.28,-3.25,-3.17
99.26,1.60,4.77,1.65,4.82,-4.88,-5.02,-4.91,-3.28,-3.23,-3.17
100.25,1.69,4.86,1.68,4.85,-4.85,-5.00,-4.93,-3.16,-3.17,-3.17
101.25,1.74,4.91,1.72,4.89,-4.82,-4.98,-4.96,-3.08,-3.10,-3.17
102.27,1.73,4.91,1.69,4.88,-4.79,-4.96,-4.99,-3.06,-3.09,-3.18
103.29,1.60,4.79,1.62,4.81,-4.75,-4.94,-5.03,-3.15,-3.14,-3.19
104.32,1.50,4.70,1.54,4.74,-4.73,-4.93,-5.06,-3.23,-3.19,-3.20
105.37,1.48,4.68,1.47,4.68,-4.71,-4.92,-5.09,-3.23,-3.23,-3.20
106.42,1.45,4.66,1.41,4.62,-4.69,-4.90,-5.13,-3.24,-3.28,-3.21
107.48,1.38,4.60,1.37,4.59,-4.67,-4.89,-5.16,-3.29,-3.31,-3.22
108.56,1.30,4.53,1.38,4.62,-4.66,-4.88,-5.20,-3.36,-3.27,-3.23
109.64,1.43,4.67,1.45,4.69,-4.65,-4.88,-5.23,-3.22,-3.20,-3.24
110.74,1.62,4.86,1.53,4.77,-4.67,-4.88,-5.26,-3.05,-3.14,-3.24
111.85,1.58,4.82,1.57,4.81,-4.71,-4.88,-5.29,-3.13,-3.15,-3.24
112.97,1.50,4.74,1.51,4.75,-4.77,-4.88,-5.32,-3.27,-3.26,-3.24
114.10,1.46,4.70,1.47,4.71,-4.83,-4.89,-5.35,-3.37,-3.36,-3.24
115.24,1.48,4.71,1.55,4.78,-4.89,-4.90,-5.37,-3.41,-3.34,-3.23
116.39,1.71,4.94,1.72,4.94,-4.95,-4.92,-5.39,-3.24,-3.23,-3.23
117.55,1.94,5.15,1.86,5.07,-5.01,-4.94,-5.41,-3.07,-3.15,-3.21
118.73,2.01,5.21,1.97,5.17,-5.08,-4.97,-5.42,-3.07,-3.11,-3.20
119.92,1.92,5.10,2.02,5.20,-5.15,-5.00,-5.42,-3.23,-3.14,-3.18
121.12,2.07,5.23,2.05,5.21,-5.24,-5.04,-5.42,-3.17,-3.19,-3.16
122.33,2.13,5.27,2.11,5.25,-5.31,-5.09,-5.42,-3.18,-3.20,-3.14
123.55,2.19,5.31,2.21,5.33,-5.36,-5.14,-5.41,-3.17,-3.16,-3.12
124.79,2.27,5.37,2.29,5.39,-5.39,-5.20,-5.39,-3.12,-3.11,-3.10
126.03,2.38,5.46,2.38,5.46,-5.42,-5.25,-5.37,-3.04,-3.05,-3.08
127.29,2.46,5.52,2.43,5.49,-5.45,-5.31,-5.34,-2.99,-3.02,-3.06
128.57,2.45,5.49,2.45,5.49,-5.47,-5.36,-5.31,-3.01,-3.02,-3.04
129.85,2.41,5.43,2.43,5.45,-5.47,-5.40,-5.27,-3.06,-3.04,-3.02
131.15,2.41,5.41,2.42,5.42,-5.46,-5.42,-5.22,-3.05,-3.04,-3.00
132.46,2.42,5.41,2.42,5.40,-5.42,-5.42,-5.17,-3.00,-3.00,-2.99
133.79,2.42,5.39,2.42,5.39,-5.37,-5.39,-5.12,-2.95,-2.95,-2.97
135.12,2.38,5.34,2.37,5.33,-5.30,-5.35,-5.06,-2.92,-2.92,-2.96
136.48,2.33,5.27,2.30,5.24,-5.22,-5.28,-4.99,-2.89,-2.92,-2.94
137.84,2.17,5.10,2.23,5.16,-5.14,-5.18,-4.93,-2.97,-2.91,-2.93
139.22,2.13,5.05,2.13,5.05,-5.06,-5.08,-4.86,-2.93,-2.93,-2.92
140.61,2.10,5.01,2.02,4.93,-4.97,-4.96,-4.78,-2.87,-2.96,-2.91
142.02,1.86,4.76,1.94,4.84,-4.88,-4.85,-4.71,-3.02,-2.94,-2.90
143.44,1.84,4.74,1.87,4.77,-4.79,-4.73,-4.63,-2.94,-2.92,-2.90
144.87,1.84,4.74,1.80,4.70,-4.69,-4.61,-4.55,-2.85,-2.89,-2.90
146.32,1.77,4.67,1.74,4.64,-4.61,-4.50,-4.47,-2.84,-2.87,-2.90
147.78,1.61,4.52,1.63,4.54,-4.52,-4.39,-4.39,-2.91,-2.89,-2.91
149.26,1.48,4.40,1.50,4.43,-4.43,-4.29,-4.31,-2.95,-2.92,-2.92
150.75,1.40,4.34,1.37,4.32,-4.32,-4.19,-4.23,-2.92,-2.95,-2.94
152.26,1.25,4.22,1.25,4.23,-4.21,-4.10,-4.15,-2.96,-2.95,-2.97
153.78,1.11,4.11,1.13,4.13,-4.10,-4.02,-4.06,-2.99,-2.97,-3.00
155.32,0.99,4.03,0.98,4.02,-4.00,-3.94,-3.99,-3.00,-3.01,-3.04
156.88,0.83,3.90,0.78,3.86,-3.90,-3.87,-3.91,-3.07,-3.12,-3.07
158.44,0.63,3.74,0.61,3.72,-3.81,-3.80,-3.83,-3.18,-3.20,-3.11
160.03,0.37,3.51,0.52,3.66,-3.73,-3.74,-3.75,-3.35,-3.20,-3.14
161.63,0.53,3.69,0.48,3.65,-3.64,-3.68,-3.68,-3.11,-3.16,-3.16
163.24,0.53,3.72,0.44,3.63,-3.55,-3.62,-3.61,-3.02,-3.11,-3.19
164.88,0.34,3.54,0.35,3.55,-3.47,-3.56,-3.54,-3.13,-3.12,-3.20
166.53,0.15,3.36,0.19,3.40,-3.38,-3.51,-3.47,-3.23,-3.20,-3.21
168.19,0.02,3.23,0.05,3.26,-3.29,-3.46,-3.40,-3.27,-3.24,-3.21
169.87,0.00,3.20,-0.03,3.17,-3.19,-3.41,-3.34,-3.19,-3.22,-3.20
171.57,-0.09,3.10,-0.11,3.08,-3.07,-3.37,-3.28,-3.16,-3.18,-3.19
173.29,-0.19,2.98,-0.18,2.99,-2.95,-3.32,-3.22,-3.14,-3.14,-3.17
175.02,-0.29,2.85,-0.26,2.88,-2.86,-3.28,-3.16,-3.15,-3.12,-3.14
176.77,-0.32,2.79,-0.35,2.77,-2.79,-3.24,-3.11,-3.11,-3.13,-3.11
178.54,-0.37,2.71,-0.39,2.68,-2.75,-3.19,-3.06,-3.11,-3.14,-3.08
180.32,-0.45,2.59,-0.39,2.65,-2.72,-3.15,-3.01,-3.17,-3.11,-3.04
182.13,-0.33,2.68,-0.31,2.70,-2.72,-3.12,-2.96,-3.05,-3.03,-3.01
183.95,-0.20,2.77,-0.22,2.76,-2.74,-3.08,-2.91,-2.94,-2.96,-2.97
185.79,-0.05,2.90,-0.13,2.82,-2.79,-3.04,-2.87,-2.84,-2.92,-2.95
187.65,-0.13,2.80,-0.06,2.87,-2.86,-3.00,-2.83,-2.99,-2.92,-2.93
189.52,-0.01,2.90,0.01,2.93,-2.95,-2.97,-2.79,-2.96,-2.94,-2.91
191.42,0.14,3.04,0.11,3.00,-3.04,-2.93,-2.76,-2.90,-2.93,-2.90
193.33,0.23,3.11,0.24,3.13,-3.12,-2.89,-2.72,-2.89,-2.88,-2.88
195.27,0.34,3.21,0.33,3.20,-3.18,-2.86,-2.69,-2.84,-2.86,-2.87
197.22,0.40,3.27,0.39,3.26,-3.23,-2.82,-2.66,-2.83,-2.84,-2.87
199.19,0.41,3.27,0.45,3.31,-3.26,-2.79,-2.63,-2.85,-2.81,-2.86
201.18,0.48,3.34,0.46,3.33,-3.28,-2.76,-2.60,-2.80,-2.82,-2.86
203.19,0.49,3.35,0.44,3.30,-3.29,-2.72,-2.57,-2.80,-2.85,-2.86
205.23,0.37,3.23,0.40,3.26,-3.28,-2.69,-2.55,-2.91,-2.88,-2.86
207.28,0.32,3.18,0.34,3.20,-3.27,-2.66,-2.53,-2.94,-2.92,-2.86
209.35,0.32,3.18,0.32,3.18,-3.24,-2.62,-2.50,-2.92,-2.93,-2.86
211.44,0.32,3.19,0.35,3.22,-3.21,-2.59,-2.48,-2.89,-2.86,-2.87
213.56,0.36,3.23,0.32,3.20,-3.18,-2.56,-2.46,-2.82,-2.85,-2.87
215.69,0.34,3.22,0.27,3.15,-3.13,-2.52,-2.44,-2.79,-2.86,-2.88
217.85,0.11,2.99,0.22,3.11,-3.08,-2.49,-2.42,-2.97,-2.86,-2.88
220.03,0.16,3.05,0.15,3.04,-3.01,-2.46,-2.41,-2.85,-2.86,-2.89
222.23,0.12,3.01,0.05,2.94,-2.93,-2.43,-2.39,-2.81,-2.87,-2.89
224.45,-0.05,2.84,-0.04,2.85,-2.82,-2.39,-2.37,-2.87,-2.87,-2.89
226.70,-0.23,2.66,-0.18,2.71,-2.71,-2.36,-2.35,-2.94,-2.89,-2.89
228.96,-0.31,2.58,-0.30,2.59,-2.61,-2.33,-2.33,-2.92,-2.91,-2.89
231.25,-0.36,2.52,-0.40,2.49,-2.51,-2.30,-2.32,-2.87,-2.91,-2.88
233.57,-0.48,2.40,-0.49,2.39,-2.42,-2.26,-2.30,-2.90,-2.92,-2.88
235.90,-0.60,2.27,-0.57,2.30,-2.34,-2.23,-2.28,-2.94,-2.91,-2.87
238.26,-0.64,2.22,-0.61,2.25,-2.27,-2.20,-2.26,-2.91,-2.88,-2.86
240.64,-0.59,2.25,-0.61,2.23,-2.21,-2.17,-2.24,-2.80,-2.82,-2.84
243.05,-0.61,2.22,-0.62,2.21,-2.16,-2.13,-2.21,-2.76,-2.78,-2.83
245.48,-0.65,2.17,-0.68,2.14,-2.11,-2.10,-2.19,-2.76,-2.79,-2.82
247.93,-0.79,2.02,-0.76,2.05,-2.06,-2.07,-2.17,-2.85,-2.83,-2.81
250.41,-0.87,1.93,-0.83,1.97,-2.01,-2.03,-2.14,-2.88,-2.83,-2.80
252.92,-0.84,1.95,-0.87,1.93,-1.95,-2.00,-2.11,-2.79,-2.81,-2.79
255.45,-0.88,1.91,-0.89,1.90,-1.88,-1.96,-2.09,-2.76,-2.77,-2.79
258.00,-0.93,1.86,-0.93,1.86,-1.82,-1.93,-2.06,-2.75,-2.74,-2.79
260.58,-1.01,1.78,-1.01,1.78,-1.76,-1.89,-2.03,-2.77,-2.77,-2.79
263.19,-1.09,1.70,-1.11,1.68,-1.70,-1.86,-1.99,-2.79,-2.82,-2.79
265.82,-1.21,1.58,-1.20,1.59,-1.64,-1.82,-1.96,-2.85,-2.84,-2.79
268.48,-1.29,1.50,-1.22,1.57,-1.58,-1.79,-1.93,-2.87,-2.79,-2.79
271.16,-1.22,1.57,-1.24,1.55,-1.52,-1.75,-1.89,-2.74,-2.76,-2.79
273.87,-1.18,1.61,-1.29,1.50,-1.47,-1.72,-1.86,-2.65,-2.76,-2.79
276.61,-1.42,1.37,-1.35,1.44,-1.43,-1.68,-1.82,-2.85,-2.78,-2.79
279.38,-1.46,1.33,-1.42,1.36,-1.41,-1.64,-1.79,-2.86,-2.83,-2.79
282.17,-1.44,1.34,-1.47,1.31,-1.39,-1.61,-1.75,-2.83,-2.86,-2.78
284.99,-1.42,1.35,-1.42,1.35,-1.38,-1.57,-1.71,-2.80,-2.80,-2.77
287.84,-1.42,1.35,-1.38,1.38,-1.36,-1.53,-1.67,-2.78,-2.74,-2.77
290.72,-1.34,1.42,-1.38,1.38,-1.35,-1.49,-1.63,-2.69,-2.73,-2.76
293.63,-1.37,1.38,-1.39,1.36,-1.33,-1.45,-1.59,-2.70,-2.72,-2.75
296.57,-1.47,1.27,-1.41,1.34,-1.31,-1.41,-1.55,-2.78,-2.71,-2.74
299.53,-1.43,1.31,-1.44,1.30,-1.28,-1.38,-1.52,-2.71,-2.72,-2.74
302.53,-1.44,1.29,-1.48,1.25,-1.25,-1.34,-1.48,-2.68,-2.73,-2.73
305.55,-1.53,1.20,-1.53,1.20,-1.20,-1.30,-1.44,-2.73,-2.74,-2.73
308.61,-1.64,1.09,-1.60,1.13,-1.16,-1.26,-1.40,-2.80,-2.76,-2.73
311.69,-1.65,1.08,-1.64,1.09,-1.13,-1.22,-1.36,-2.78,-2.77,-2.73
314.81,-1.63,1.11,-1.67,1.07,-1.10,-1.17,-1.32,-2.73,-2.77,-2.74
317.96,-1.69,1.05,-1.69,1.06,-1.07,-1.13,-1.28,-2.75,-2.75,-2.74
321.14,-1.73,1.02,-1.69,1.06,-1.03,-1.09,-1.25,-2.76,-2.72,-2.75
324.35,-1.71,1.04,-1.71,1.04,-1.00,-1.05,-1.21,-2.71,-2.71,-2.75
327.59,-1.69,1.07,-1.76,1.00,-0.97,-1.01,-1.17,-2.66,-2.73,-2.76
330.87,-1.85,0.92,-1.82,0.95,-0.94,-0.97,-1.14,-2.79,-2.76,-2.77
334.18,-1.94,0.84,-1.89,0.89,-0.91,-0.93,-1.10,-2.85,-2.80,-2.78
337.52,-1.92,0.87,-1.96,0.82,-0.87,-0.89,-1.07,-2.79,-2.83,-2.79
340.90,-1.99,0.80,-1.98,0.81,-0.82,-0.85,-1.03,-2.81,-2.80,-2.79
344.30,-2.03,0.77,-2.00,0.81,-0.77,-0.81,-1.00,-2.80,-2.77,-2.80
347.75,-2.02,0.80,-2.05,0.76,-0.74,-0.78,-0.97,-2.76,-2.79,-2.82
351.23,-2.09,0.74,-2.11,0.72,-0.71,-0.74,-0.93,-2.80,-2.83,-2.83
354.74,-2.21,0.63,-2.18,0.66,-0.69,-0.70,-0.90,-2.90,-2.87,-2.84
358.28,-2.25,0.60,-2.23,0.63,-0.68,-0.67,-0.87,-2.93,-2.90,-2.85
361.87,-2.23,0.63,-2.23,0.63,-0.65,-0.63,-0.84,-2.88,-2.89,-2.86
365.49,-2.20,0.68,-2.22,0.66,-0.63,-0.60,-0.81,-2.83,-2.85,-2.88
369.14,-2.23,0.66,-2.24,0.66,-0.60,-0.57,-0.78,-2.83,-2.84,-2.89
372.83,-2.28,0.62,-2.28,0.62,-0.58,-0.54,-0.75,-2.86,-2.86,-2.90
376.56,-2.36,0.55,-2.35,0.56,-0.56,-0.51,-0.72,-2.92,-2.91,-2.91
380.33,-2.40,0.52,-2.41,0.51,-0.54,-0.49,-0.70,-2.94,-2.95,-2.92
384.13,-2.46,0.47,-2.45,0.48,-0.52,-0.46,-0.67,-2.98,-2.97,-2.93
387.97,-2.48,0.46,-2.47,0.47,-0.50,-0.44,-0.64,-2.98,-2.97,-2.94
391.85,-2.47,0.48,-2.47,0.48,-0.47,-0.42,-0.62,-2.94,-2.94,-2.95
395.77,-2.47,0.49,-2.48,0.48,-0.46,-0.40,-0.59,-2.93,-2.93,-2.96
399.73,-2.48,0.49,-2.50,0.47,-0.45,-0.39,-0.57,-2.93,-2.95,-2.97
403.72,-2.55,0.43,-2.54,0.45,-0.45,-0.38,-0.54,-3.00,-2.98,-2.98
407.76,-2.58,0.42,-2.57,0.43,-0.45,-0.37,-0.52,-3.03,-3.02,-3.00
411.84,-2.58,0.43,-2.58,0.43,-0.45,-0.36,-0.50,-3.03,-3.03,-3.01
415.96,-2.58,0.44,-2.58,0.44,-0.45,-0.35,-0.48,-3.03,-3.03,-3.02
420.12,-2.58,0.44,-2.58,0.45,-0.44,-0.35,-0.46,-3.02,-3.02,-3.02
424.32,-2.58,0.45,-2.57,0.45,-0.44,-0.35,-0.44,-3.02,-3.01,-3.03
428.56,-2.57,0.46,-2.57,0.46,-0.44,-0.35,-0.42,-3.01,-3.01,-3.03
432.85,-2.56,0.46,-2.57,0.45,-0.44,-0.36,-0.40,-3.00,-3.01,-3.02
437.18,-2.57,0.44,-2.57,0.44,-0.44,-0.37,-0.39,-3.01,-3.01,-3.01
441.55,-2.58,0.41,-2.57,0.43,-0.44,-0.38,-0.38,-3.02,-3.01,-2.99
445.96,-2.55,0.42,-2.55,0.42,-0.45,-0.39,-0.36,-3.00,-2.99,-2.97
450.42,-2.50,0.44,-2.50,0.44,-0.46,-0.40,-0.35,-2.96,-2.96,-2.94
454.93,-2.44,0.46,-2.44,0.46,-0.47,-0.42,-0.34,-2.91,-2.91,-2.90
