frequency,raw,error,smoothed,error_smoothed,equalization,parametric_eq,fixed_band_eq,equalized_raw,equalized_smoothed,target
20.00,-6.21,-9.96,-6.21,-9.96,6.00,6.50,1.57,-0.21,-0.21,3.76
20.20,-6.02,-9.75,-6.02,-9.76,6.00,6.43,1.61,-0.02,-0.02,3.74
20.40,-5.85,-9.55,-5.84,-9.55,6.00,6.36,1.66,0.15,0.16,3.70
20.61,-5.66,-9.35,-5.66,-9.34,6.00,6.29,1.71,0.34,0.34,3.69
20.81,-5.47,-9.13,-5.47,-9.13,6.00,6.23,1.77,0.53,0.53,3.66
21.02,-5.29,-8.92,-5.28,-8.92,6.00,6.16,1.82,0.71,0.72,3.63
21.23,-5.10,-8.71,-5.10,-8.72,6.00,6.09,1.88,0.90,0.90,3.61
21.44,-4.93,-8.52,-4.93,-8.52,6.00,6.02,1.93,1.07,1.07,3.59
21.66,-4.76,-8.33,-4.76,-8.33,6.00,5.95,1.99,1.24,1.24,3.57
21.87,-4.60,-8.15,-4.60,-8.15,6.00,5.88,2.05,1.40,1.40,3.55
22.09,-4.44,-7.97,-4.44,-7.97,6.00,5.81,2.12,1.56,1.56,3.53
22.31,-4.29,-7.80,-4.29,-7.79,6.00,5.73,2.18,1.71,1.71,3.51
22.54,-4.14,-7.62,-4.13,-7.62,6.00,5.66,2.25,1.86,1.87,3.48
22.76,-3.98,-7.44,-3.98,-7.44,6.00,5.59,2.31,2.02,2.02,3.46
22.99,-3.83,-7.27,-3.82,-7.27,6.00,5.51,2.38,2.17,2.18,3.44
23.22,-3.67,-7.09,-3.66,-7.09,6.01,5.44,2.45,2.34,2.34,3.42
23.45,-3.50,-6.91,-3.50,-6.91,6.02,5.36,2.52,2.53,2.52,3.41
23.69,-3.34,-6.73,-3.33,-6.73,6.03,5.29,2.60,2.69,2.70,3.39
23.92,-3.17,-6.54,-3.17,-6.55,6.03,5.21,2.67,2.86,2.86,3.38
24.16,-3.01,-6.36,-3.01,-6.37,6.00,5.13,2.75,3.00,3.00,3.36
24.40,-2.86,-6.20,-2.85,-6.20,5.96,5.05,2.83,3.11,3.11,3.35
24.65,-2.70,-6.04,-2.70,-6.03,5.90,4.98,2.90,3.20,3.20,3.34
24.89,-2.55,-5.86,-2.55,-5.87,5.81,4.90,2.98,3.27,3.27,3.32
25.14,-2.40,-5.70,-2.39,-5.70,5.70,4.82,3.06,3.31,3.31,3.31
25.39,-2.25,-5.54,-2.25,-5.54,5.57,4.74,3.14,3.33,3.32,3.29
25.65,-2.11,-5.39,-2.11,-5.39,5.42,4.66,3.22,3.31,3.32,3.28
25.91,-1.97,-5.24,-1.97,-5.24,5.26,4.58,3.30,3.29,3.30,3.27
26.16,-1.83,-5.09,-1.83,-5.09,5.10,4.49,3.38,3.27,3.27,3.26
26.43,-1.69,-4.93,-1.69,-4.93,4.93,4.41,3.45,3.24,3.24,3.24
26.69,-1.55,-4.78,-1.55,-4.78,4.78,4.33,3.53,3.23,3.23,3.23
26.96,-1.41,-4.63,-1.41,-4.63,4.63,4.24,3.60,3.22,3.22,3.22
27.23,-1.27,-4.48,-1.27,-4.48,4.48,4.16,3.67,3.21,3.21,3.21
27.50,-1.14,-4.34,-1.13,-4.34,4.34,4.08,3.74,3.20,3.20,3.20
27.77,-1.00,-4.19,-1.00,-4.19,4.20,3.99,3.80,3.20,3.20,3.20
28.05,-0.87,-4.05,-0.87,-4.05,4.06,3.90,3.87,3.19,3.19,3.19
28.33,-0.74,-3.91,-0.74,-3.92,3.92,3.82,3.92,3.19,3.18,3.18
28.62,-0.62,-3.79,-0.62,-3.79,3.79,3.73,3.97,3.17,3.17,3.18
28.90,-0.50,-3.66,-0.50,-3.66,3.66,3.64,4.01,3.17,3.17,3.16
29.19,-0.38,-3.54,-0.38,-3.54,3.54,3.55,4.06,3.16,3.16,3.16
29.48,-0.26,-3.41,-0.26,-3.41,3.41,3.46,4.08,3.15,3.15,3.15
29.78,-0.14,-3.29,-0.14,-3.29,3.29,3.38,4.11,3.15,3.15,3.15
30.08,-0.02,-3.16,-0.02,-3.16,3.16,3.29,4.13,3.14,3.14,3.14
30.38,0.09,-3.05,0.10,-3.04,3.04,3.20,4.14,3.13,3.13,3.14
30.68,0.21,-2.92,0.21,-2.92,2.92,3.10,4.14,3.13,3.13,3.13
30.99,0.33,-2.79,0.33,-2.79,2.79,3.01,4.13,3.13,3.12,3.12
31.30,0.44,-2.67,0.44,-2.67,2.67,2.92,4.11,3.11,3.11,3.11
31.61,0.55,-2.55,0.55,-2.55,2.55,2.83,4.09,3.10,3.10,3.10
31.93,0.66,-2.43,0.66,-2.43,2.43,2.74,4.05,3.09,3.09,3.09
32.24,0.77,-2.32,0.77,-2.31,2.31,2.64,4.02,3.08,3.08,3.09
32.57,0.89,-2.19,0.89,-2.19,2.19,2.55,3.96,3.08,3.07,3.08
32.89,0.99,-2.07,1.00,-2.07,2.07,2.45,3.91,3.06,3.07,3.07
33.22,1.11,-1.94,1.11,-1.95,1.95,2.36,3.84,3.06,3.06,3.05
33.55,1.21,-1.83,1.21,-1.83,1.83,2.27,3.77,3.05,3.04,3.04
33.89,1.31,-1.72,1.32,-1.71,1.72,2.17,3.69,3.03,3.03,3.03
34.23,1.42,-1.60,1.42,-1.60,1.60,2.07,3.60,3.03,3.02,3.02
34.57,1.52,-1.49,1.52,-1.49,1.49,1.98,3.51,3.02,3.01,3.02
34.92,1.62,-1.38,1.62,-1.39,1.39,1.88,3.41,3.01,3.01,3.01
35.27,1.71,-1.28,1.72,-1.28,1.28,1.79,3.31,2.99,3.00,2.99
35.62,1.81,-1.18,1.81,-1.18,1.18,1.69,3.20,2.99,2.99,2.99
35.97,1.90,-1.08,1.90,-1.08,1.08,1.59,3.09,2.98,2.98,2.98
36.33,1.99,-0.98,1.99,-0.98,0.98,1.49,2.98,2.97,2.97,2.98
36.70,2.07,-0.89,2.08,-0.88,0.88,1.40,2.86,2.95,2.96,2.96
37.06,2.17,-0.78,2.17,-0.79,0.79,1.30,2.74,2.96,2.95,2.95
37.43,2.25,-0.69,2.25,-0.69,0.69,1.20,2.62,2.95,2.95,2.95
37.81,2.33,-0.60,2.34,-0.60,0.60,1.11,2.49,2.94,2.94,2.94
38.19,2.42,-0.51,2.42,-0.52,0.51,1.01,2.37,2.94,2.93,2.93
38.57,2.49,-0.43,2.50,-0.43,0.43,0.91,2.24,2.92,2.92,2.92
38.95,2.57,-0.34,2.57,-0.34,0.34,0.81,2.11,2.91,2.91,2.92
39.34,2.65,-0.25,2.65,-0.26,0.25,0.72,1.99,2.91,2.90,2.90
39.74,2.72,-0.18,2.73,-0.17,0.17,0.62,1.86,2.89,2.90,2.90
40.14,2.80,-0.09,2.80,-0.09,0.09,0.52,1.73,2.89,2.89,2.89
40.54,2.87,-0.01,2.87,-0.01,0.01,0.43,1.60,2.88,2.88,2.88
40.94,2.94,0.07,2.94,0.07,-0.07,0.33,1.47,2.87,2.87,2.87
41.35,3.01,0.15,3.01,0.15,-0.15,0.23,1.34,2.86,2.86,2.87
41.76,3.08,0.23,3.08,0.23,-0.23,0.14,1.21,2.85,2.86,2.85
42.18,3.15,0.31,3.15,0.30,-0.31,0.04,1.08,2.85,2.84,2.85
42.60,3.21,0.38,3.21,0.38,-0.38,-0.05,0.96,2.83,2.83,2.83
43.03,3.27,0.44,3.28,0.45,-0.45,-0.14,0.83,2.82,2.82,2.83
43.46,3.34,0.53,3.34,0.53,-0.53,-0.23,0.70,2.82,2.82,2.81
43.90,3.41,0.60,3.41,0.60,-0.60,-0.33,0.57,2.81,2.81,2.81
44.33,3.47,0.67,3.47,0.67,-0.67,-0.42,0.45,2.81,2.80,2.80
44.78,3.52,0.73,3.53,0.73,-0.73,-0.50,0.32,2.79,2.79,2.79
45.23,3.58,0.80,3.58,0.80,-0.80,-0.59,0.19,2.78,2.78,2.78
45.68,3.63,0.85,3.63,0.86,-0.86,-0.68,0.07,2.77,2.77,2.78
46.13,3.69,0.92,3.69,0.92,-0.92,-0.77,-0.06,2.77,2.77,2.77
46.60,3.74,0.98,3.74,0.98,-0.98,-0.85,-0.18,2.76,2.77,2.77
47.06,3.79,1.03,3.79,1.03,-1.03,-0.93,-0.31,2.76,2.76,2.76
47.53,3.84,1.09,3.84,1.09,-1.08,-1.01,-0.43,2.76,2.76,2.75
48.01,3.88,1.14,3.88,1.14,-1.13,-1.09,-0.56,2.75,2.75,2.75
48.49,3.92,1.18,3.92,1.18,-1.18,-1.17,-0.68,2.74,2.74,2.74
48.97,3.95,1.22,3.96,1.22,-1.23,-1.25,-0.80,2.73,2.73,2.73
49.46,3.99,1.27,3.99,1.27,-1.27,-1.32,-0.92,2.72,2.72,2.72
49.96,4.02,1.30,4.02,1.31,-1.31,-1.39,-1.04,2.71,2.72,2.72
50.46,4.06,1.35,4.06,1.35,-1.35,-1.46,-1.16,2.72,2.71,2.71
50.96,4.08,1.38,4.08,1.38,-1.38,-1.53,-1.28,2.70,2.70,2.70
51.47,4.11,1.42,4.11,1.42,-1.42,-1.59,-1.40,2.69,2.69,2.69
51.99,4.13,1.45,4.14,1.45,-1.45,-1.66,-1.51,2.68,2.68,2.68
52.51,4.16,1.49,4.16,1.48,-1.49,-1.72,-1.63,2.68,2.67,2.67
53.03,4.18,1.52,4.18,1.52,-1.52,-1.77,-1.74,2.66,2.67,2.67
53.56,4.20,1.55,4.21,1.55,-1.55,-1.83,-1.85,2.65,2.66,2.66
54.10,4.23,1.59,4.23,1.58,-1.58,-1.88,-1.96,2.65,2.65,2.65
54.64,4.24,1.61,4.25,1.61,-1.61,-1.93,-2.06,2.63,2.64,2.64
55.18,4.26,1.64,4.26,1.64,-1.64,-1.98,-2.16,2.62,2.62,2.62
55.74,4.28,1.67,4.28,1.66,-1.67,-2.02,-2.26,2.61,2.61,2.61
56.29,4.29,1.69,4.30,1.70,-1.69,-2.06,-2.35,2.60,2.60,2.60
56.86,4.31,1.72,4.31,1.72,-1.72,-2.10,-2.44,2.59,2.59,2.59
57.42,4.33,1.75,4.33,1.75,-1.75,-2.14,-2.52,2.59,2.58,2.58
58.00,4.34,1.77,4.34,1.77,-1.77,-2.17,-2.60,2.57,2.57,2.58
58.58,4.35,1.79,4.36,1.79,-1.79,-2.20,-2.67,2.56,2.56,2.56
59.16,4.37,1.82,4.37,1.81,-1.82,-2.23,-2.74,2.56,2.55,2.55
59.76,4.37,1.84,4.38,1.84,-1.84,-2.25,-2.80,2.53,2.54,2.54
60.35,4.38,1.85,4.38,1.86,-1.86,-2.27,-2.86,2.52,2.52,2.53
60.96,4.39,1.88,4.39,1.88,-1.88,-2.29,-2.90,2.51,2.51,2.52
61.57,4.40,1.90,4.40,1.90,-1.90,-2.31,-2.95,2.50,2.50,2.50
62.18,4.41,1.93,4.41,1.92,-1.92,-2.32,-2.98,2.49,2.49,2.49
62.80,4.41,1.94,4.41,1.94,-1.94,-2.34,-3.01,2.48,2.48,2.47
63.43,4.41,1.95,4.41,1.95,-1.95,-2.34,-3.03,2.46,2.46,2.46
64.07,4.41,1.97,4.41,1.97,-1.97,-2.35,-3.05,2.44,2.44,2.45
64.71,4.41,1.98,4.41,1.98,-1.99,-2.36,-3.06,2.43,2.43,2.43
65.35,4.41,2.00,4.41,2.00,-2.00,-2.36,-3.06,2.41,2.41,2.41
66.01,4.40,2.01,4.41,2.01,-2.02,-2.36,-3.06,2.39,2.39,2.39
66.67,4.40,2.03,4.40,2.03,-2.03,-2.36,-3.05,2.37,2.37,2.37
67.33,4.40,2.05,4.40,2.05,-2.04,-2.35,-3.04,2.36,2.36,2.35
68.01,4.39,2.06,4.39,2.06,-2.06,-2.35,-3.02,2.34,2.34,2.33
68.69,4.38,2.07,4.38,2.07,-2.07,-2.34,-2.99,2.31,2.31,2.31
69.37,4.37,2.08,4.37,2.08,-2.08,-2.33,-2.97,2.29,2.29,2.29
70.07,4.36,2.09,4.36,2.09,-2.09,-2.32,-2.94,2.27,2.27,2.27
70.77,4.35,2.11,4.35,2.11,-2.11,-2.31,-2.90,2.24,2.24,2.25
71.48,4.34,2.12,4.34,2.12,-2.12,-2.30,-2.86,2.22,2.22,2.22
72.19,4.33,2.13,4.33,2.13,-2.13,-2.29,-2.83,2.20,2.20,2.20
72.91,4.32,2.15,4.32,2.14,-2.14,-2.27,-2.78,2.18,2.18,2.18
73.64,4.30,2.16,4.30,2.16,-2.16,-2.26,-2.74,2.15,2.15,2.14
74.38,4.28,2.17,4.29,2.17,-2.17,-2.24,-2.70,2.12,2.12,2.12
75.12,4.27,2.18,4.27,2.18,-2.18,-2.22,-2.65,2.09,2.09,2.09
75.87,4.25,2.20,4.25,2.19,-2.19,-2.21,-2.60,2.06,2.06,2.06
76.63,4.22,2.19,4.23,2.20,-2.20,-2.19,-2.56,2.02,2.02,2.03
77.40,4.20,2.21,4.20,2.21,-2.22,-2.17,-2.51,1.99,1.99,1.99
78.17,4.18,2.23,4.18,2.23,-2.23,-2.15,-2.47,1.95,1.95,1.95
78.95,4.16,2.25,4.16,2.24,-2.24,-2.13,-2.42,1.92,1.91,1.91
79.74,4.13,2.26,4.13,2.26,-2.26,-2.11,-2.37,1.87,1.88,1.88
80.54,4.10,2.27,4.11,2.27,-2.27,-2.09,-2.33,1.83,1.84,1.84
81.35,4.08,2.29,4.08,2.28,-2.28,-2.07,-2.29,1.80,1.80,1.80
82.16,4.05,2.30,4.05,2.30,-2.29,-2.05,-2.24,1.76,1.76,1.76
82.98,4.02,2.31,4.02,2.31,-2.30,-2.03,-2.20,1.72,1.72,1.71
83.81,3.98,2.31,3.98,2.31,-2.31,-2.01,-2.16,1.67,1.67,1.67
84.65,3.93,2.31,3.94,2.32,-2.32,-1.99,-2.13,1.62,1.63,1.62
85.50,3.90,2.33,3.90,2.32,-2.32,-1.97,-2.09,1.58,1.58,1.58
86.35,3.86,2.32,3.86,2.32,-2.32,-1.95,-2.05,1.54,1.54,1.54
87.22,3.81,2.31,3.82,2.32,-2.32,-1.94,-2.02,1.49,1.50,1.50
88.09,3.78,2.33,3.78,2.32,-2.32,-1.92,-1.99,1.46,1.46,1.46
88.97,3.73,2.32,3.73,2.32,-2.32,-1.90,-1.96,1.41,1.41,1.41
89.86,3.68,2.32,3.69,2.32,-2.32,-1.88,-1.93,1.37,1.37,1.37
90.76,3.64,2.31,3.64,2.31,-2.31,-1.86,-1.90,1.33,1.33,1.33
91.66,3.59,2.31,3.59,2.30,-2.30,-1.84,-1.87,1.29,1.29,1.29
92.58,3.54,2.29,3.54,2.30,-2.30,-1.83,-1.85,1.25,1.25,1.25
93.51,3.49,2.29,3.49,2.29,-2.29,-1.81,-1.83,1.21,1.21,1.20
94.44,3.44,2.28,3.44,2.28,-2.28,-1.79,-1.81,1.17,1.17,1.17
95.39,3.39,2.27,3.39,2.27,-2.27,-1.77,-1.79,1.13,1.12,1.12
96.34,3.33,2.25,3.33,2.25,-2.25,-1.76,-1.77,1.08,1.08,1.08
97.30,3.27,2.24,3.28,2.24,-2.24,-1.74,-1.75,1.03,1.04,1.04
98.28,3.22,2.22,3.22,2.22,-2.23,-1.73,-1.74,1.00,0.99,1.00
99.26,3.16,2.21,3.16,2.21,-2.21,-1.71,-1.72,0.95,0.95,0.95
100.25,3.10,2.20,3.10,2.20,-2.20,-1.69,-1.71,0.90,0.90,0.90
101.25,3.03,2.18,3.04,2.18,-2.18,-1.68,-1.70,0.85,0.86,0.85
102.27,2.97,2.17,2.97,2.16,-2.16,-1.66,-1.69,0.81,0.81,0.81
103.29,2.90,2.15,2.90,2.15,-2.14,-1.65,-1.68,0.76,0.76,0.76
104.32,2.83,2.12,2.83,2.12,-2.12,-1.63,-1.67,0.71,0.71,0.71
105.37,2.76,2.10,2.76,2.10,-2.10,-1.62,-1.66,0.66,0.66,0.66
106.42,2.68,2.07,2.69,2.07,-2.08,-1.60,-1.65,0.61,0.61,0.61
107.48,2.61,2.05,2.61,2.05,-2.05,-1.59,-1.64,0.56,0.56,0.56
108.56,2.54,2.03,2.54,2.03,-2.03,-1.57,-1.63,0.52,0.52,0.52
109.64,2.47,2.00,2.47,2.00,-2.00,-1.56,-1.63,0.47,0.47,0.47
110.74,2.39,1.97,2.39,1.97,-1.97,-1.55,-1.62,0.42,0.42,0.42
111.85,2.31,1.94,2.31,1.94,-1.94,-1.53,-1.61,0.37,0.37,0.37
112.97,2.23,1.91,2.23,1.91,-1.91,-1.52,-1.60,0.32,0.32,0.32
114.10,2.15,1.88,2.15,1.88,-1.88,-1.50,-1.59,0.27,0.28,0.28
115.24,2.07,1.84,2.07,1.84,-1.84,-1.49,-1.58,0.23,0.23,0.23
116.39,1.99,1.81,1.99,1.81,-1.81,-1.47,-1.57,0.19,0.18,0.18
117.55,1.90,1.77,1.91,1.77,-1.77,-1.45,-1.56,0.13,0.14,0.14
118.73,1.82,1.73,1.82,1.73,-1.73,-1.44,-1.55,0.10,0.09,0.09
119.92,1.73,1.68,1.74,1.69,-1.68,-1.42,-1.53,0.05,0.05,0.05
121.12,1.65,1.65,1.65,1.64,-1.64,-1.41,-1.52,0.01,0.01,0.01
122.33,1.56,1.59,1.56,1.59,-1.59,-1.39,-1.50,-0.03,-0.03,-0.03
123.55,1.47,1.55,1.48,1.55,-1.55,-1.37,-1.48,-0.08,-0.07,-0.07
124.79,1.39,1.50,1.39,1.50,-1.50,-1.36,-1.46,-0.11,-0.11,-0.11
126.03,1.30,1.45,1.30,1.45,-1.45,-1.34,-1.44,-0.15,-0.15,-0.15
127.29,1.21,1.40,1.22,1.40,-1.40,-1.32,-1.42,-0.19,-0.19,-0.19
128.57,1.13,1.35,1.13,1.36,-1.35,-1.30,-1.40,-0.22,-0.22,-0.22
129.85,1.05,1.31,1.05,1.31,-1.30,-1.28,-1.37,-0.25,-0.26,-0.26
131.15,0.96,1.26,0.96,1.26,-1.25,-1.26,-1.34,-0.29,-0.29,-0.29
132.46,0.87,1.20,0.88,1.20,-1.20,-1.24,-1.32,-0.33,-0.33,-0.33
133.79,0.79,1.15,0.79,1.15,-1.15,-1.22,-1.29,-0.36,-0.36,-0.36
135.12,0.70,1.09,0.70,1.09,-1.09,-1.20,-1.25,-0.39,-0.39,-0.39
136.48,0.62,1.04,0.62,1.04,-1.04,-1.18,-1.22,-0.42,-0.42,-0.42
137.84,0.54,0.98,0.54,0.98,-0.99,-1.15,-1.19,-0.44,-0.44,-0.44
139.22,0.46,0.93,0.46,0.93,-0.93,-1.13,-1.15,-0.47,-0.47,-0.47
140.61,0.39,0.89,0.39,0.88,-0.88,-1.11,-1.12,-0.49,-0.49,-0.50
142.02,0.31,0.83,0.31,0.83,-0.83,-1.08,-1.08,-0.52,-0.51,-0.51
143.44,0.24,0.77,0.24,0.78,-0.78,-1.06,-1.04,-0.53,-0.54,-0.53
144.87,0.16,0.72,0.17,0.72,-0.73,-1.03,-1.00,-0.56,-0.56,-0.56
146.32,0.10,0.68,0.10,0.67,-0.67,-1.01,-0.97,-0.57,-0.58,-0.58
147.78,0.02,0.61,0.03,0.62,-0.62,-0.98,-0.93,-0.60,-0.60,-0.59
149.26,-0.04,0.58,-0.04,0.57,-0.57,-0.95,-0.89,-0.61,-0.61,-0.62
150.75,-0.11,0.52,-0.11,0.52,-0.52,-0.92,-0.85,-0.63,-0.63,-0.63
152.26,-0.18,0.47,-0.17,0.47,-0.47,-0.90,-0.81,-0.65,-0.64,-0.65
153.78,-0.24,0.42,-0.24,0.42,-0.42,-0.87,-0.77,-0.66,-0.66,-0.66
155.32,-0.31,0.36,-0.31,0.37,-0.37,-0.84,-0.73,-0.68,-0.67,-0.67
156.88,-0.37,0.32,-0.37,0.32,-0.32,-0.81,-0.68,-0.68,-0.68,-0.68
158.44,-0.43,0.27,-0.43,0.27,-0.27,-0.78,-0.64,-0.69,-0.70,-0.70
160.03,-0.49,0.22,-0.49,0.22,-0.22,-0.74,-0.60,-0.70,-0.71,-0.71
161.63,-0.56,0.16,-0.55,0.17,-0.17,-0.71,-0.56,-0.73,-0.72,-0.72
163.24,-0.61,0.12,-0.61,0.12,-0.12,-0.68,-0.52,-0.73,-0.73,-0.73
164.88,-0.66,0.08,-0.66,0.08,-0.08,-0.65,-0.48,-0.73,-0.74,-0.74
166.53,-0.72,0.03,-0.72,0.03,-0.03,-0.61,-0.44,-0.75,-0.75,-0.75
168.19,-0.77,-0.01,-0.77,-0.01,0.01,-0.58,-0.40,-0.76,-0.76,-0.76
169.87,-0.82,-0.05,-0.82,-0.05,0.05,-0.54,-0.36,-0.77,-0.77,-0.77
171.57,-0.86,-0.07,-0.86,-0.08,0.08,-0.51,-0.32,-0.78,-0.78,-0.78
173.29,-0.91,-0.12,-0.90,-0.11,0.11,-0.47,-0.28,-0.79,-0.79,-0.79
175.02,-0.94,-0.14,-0.94,-0.14,0.14,-0.44,-0.24,-0.80,-0.80,-0.80
176.77,-0.98,-0.16,-0.98,-0.17,0.16,-0.40,-0.20,-0.81,-0.81,-0.81
178.54,-1.01,-0.19,-1.00,-0.18,0.18,-0.37,-0.16,-0.83,-0.82,-0.82
180.32,-1.03,-0.19,-1.03,-0.20,0.20,-0.33,-0.12,-0.83,-0.84,-0.83
182.13,-1.06,-0.21,-1.06,-0.21,0.21,-0.29,-0.08,-0.85,-0.85,-0.85
183.95,-1.09,-0.22,-1.08,-0.22,0.22,-0.26,-0.05,-0.87,-0.86,-0.86
185.79,-1.10,-0.22,-1.10,-0.23,0.23,-0.22,-0.01,-0.87,-0.88,-0.88
187.65,-1.12,-0.23,-1.12,-0.23,0.23,-0.18,0.03,-0.88,-0.89,-0.89
189.52,-1.15,-0.24,-1.14,-0.24,0.24,-0.15,0.07,-0.91,-0.90,-0.90
191.42,-1.16,-0.24,-1.16,-0.24,0.24,-0.11,0.11,-0.91,-0.92,-0.92
193.33,-1.18,-0.25,-1.18,-0.25,0.25,-0.07,0.15,-0.93,-0.93,-0.93
195.27,-1.20,-0.26,-1.20,-0.26,0.26,-0.03,0.18,-0.94,-0.94,-0.94
197.22,-1.23,-0.27,-1.22,-0.26,0.26,0.00,0.22,-0.97,-0.96,-0.96
199.19,-1.24,-0.26,-1.24,-0.27,0.27,0.04,0.26,-0.97,-0.97,-0.97
201.18,-1.26,-0.26,-1.26,-0.27,0.27,0.08,0.30,-0.98,-0.99,-0.99
203.19,-1.29,-0.28,-1.28,-0.28,0.28,0.11,0.33,-1.01,-1.01,-1.00
205.23,-1.31,-0.28,-1.31,-0.29,0.28,0.15,0.37,-1.03,-1.03,-1.02
207.28,-1.33,-0.29,-1.33,-0.29,0.29,0.19,0.40,-1.04,-1.04,-1.03
209.35,-1.35,-0.29,-1.34,-0.29,0.29,0.22,0.44,-1.06,-1.06,-1.05
211.44,-1.36,-0.28,-1.36,-0.29,0.29,0.26,0.47,-1.07,-1.07,-1.07
213.56,-1.38,-0.30,-1.38,-0.29,0.30,0.29,0.51,-1.08,-1.08,-1.08
215.69,-1.40,-0.30,-1.40,-0.30,0.30,0.33,0.54,-1.10,-1.10,-1.10
217.85,-1.42,-0.31,-1.42,-0.30,0.30,0.36,0.58,-1.12,-1.11,-1.11
220.03,-1.43,-0.30,-1.43,-0.31,0.31,0.40,0.61,-1.12,-1.12,-1.13
222.23,-1.45,-0.31,-1.45,-0.31,0.31,0.43,0.64,-1.14,-1.13,-1.13
224.45,-1.46,-0.32,-1.46,-0.32,0.32,0.47,0.67,-1.14,-1.14,-1.14
226.70,-1.48,-0.33,-1.48,-0.33,0.33,0.50,0.70,-1.15,-1.15,-1.15
228.96,-1.49,-0.33,-1.49,-0.33,0.34,0.53,0.73,-1.15,-1.15,-1.16
231.25,-1.51,-0.34,-1.51,-0.35,0.35,0.56,0.76,-1.16,-1.16,-1.16
233.57,-1.52,-0.36,-1.52,-0.36,0.36,0.59,0.78,-1.16,-1.16,-1.16
235.90,-1.54,-0.37,-1.53,-0.37,0.37,0.63,0.81,-1.17,-1.17,-1.17
238.26,-1.54,-0.38,-1.54,-0.38,0.38,0.66,0.83,-1.16,-1.16,-1.16
240.64,-1.55,-0.39,-1.55,-0.39,0.39,0.68,0.85,-1.16,-1.16,-1.16
243.05,-1.55,-0.38,-1.55,-0.39,0.39,0.71,0.87,-1.15,-1.16,-1.16
245.48,-1.57,-0.41,-1.56,-0.40,0.40,0.74,0.89,-1.17,-1.16,-1.16
247.93,-1.57,-0.41,-1.57,-0.41,0.41,0.77,0.91,-1.16,-1.16,-1.15
250.41,-1.57,-0.42,-1.57,-0.42,0.41,0.80,0.92,-1.15,-1.16,-1.15
252.92,-1.57,-0.41,-1.57,-0.42,0.42,0.82,0.94,-1.15,-1.15,-1.15
255.45,-1.58,-0.43,-1.57,-0.42,0.43,0.85,0.95,-1.15,-1.15,-1.15
258.00,-1.58,-0.43,-1.58,-0.43,0.43,0.87,0.96,-1.15,-1.15,-1.14
260.58,-1.58,-0.43,-1.58,-0.44,0.44,0.89,0.97,-1.14,-1.15,-1.15
263.19,-1.60,-0.45,-1.59,-0.44,0.44,0.92,0.98,-1.15,-1.15,-1.15
265.82,-1.60,-0.45,-1.60,-0.45,0.45,0.94,0.99,-1.14,-1.15,-1.15
268.48,-1.62,-0.47,-1.62,-0.46,0.46,0.96,1.00,-1.15,-1.15,-1.15
271.16,-1.63,-0.47,-1.63,-0.48,0.48,0.98,1.00,-1.15,-1.15,-1.15
273.87,-1.65,-0.49,-1.65,-0.49,0.49,1.00,1.01,-1.16,-1.15,-1.16
276.61,-1.67,-0.52,-1.66,-0.51,0.51,1.02,1.01,-1.16,-1.15,-1.15
279.38,-1.68,-0.52,-1.68,-0.53,0.53,1.04,1.02,-1.15,-1.15,-1.15
282.17,-1.71,-0.55,-1.71,-0.55,0.55,1.06,1.02,-1.15,-1.15,-1.16
284.99,-1.74,-0.59,-1.74,-0.58,0.58,1.07,1.02,-1.16,-1.16,-1.15
287.84,-1.77,-0.61,-1.76,-0.61,0.61,1.09,1.02,-1.16,-1.15,-1.15
290.72,-1.79,-0.64,-1.79,-0.64,0.64,1.10,1.02,-1.15,-1.15,-1.15
293.63,-1.82,-0.67,-1.82,-0.67,0.68,1.12,1.03,-1.14,-1.14,-1.15
296.57,-1.86,-0.72,-1.86,-0.71,0.72,1.13,1.03,-1.14,-1.14,-1.14
299.53,-1.90,-0.75,-1.90,-0.75,0.76,1.14,1.03,-1.14,-1.14,-1.14
302.53,-1.94,-0.80,-1.94,-0.80,0.80,1.15,1.03,-1.14,-1.14,-1.14
305.55,-1.98,-0.85,-1.98,-0.85,0.85,1.17,1.03,-1.13,-1.13,-1.13
308.61,-2.02,-0.90,-2.02,-0.89,0.90,1.18,1.03,-1.12,-1.12,-1.12
311.69,-2.06,-0.94,-2.06,-0.94,0.95,1.18,1.04,-1.11,-1.11,-1.11
314.81,-2.10,-0.99,-2.10,-0.99,1.00,1.19,1.04,-1.10,-1.10,-1.11
317.96,-2.15,-1.05,-2.15,-1.05,1.05,1.20,1.04,-1.10,-1.10,-1.10
321.14,-2.19,-1.10,-2.19,-1.10,1.09,1.21,1.05,-1.10,-1.10,-1.09
324.35,-2.23,-1.14,-2.23,-1.14,1.13,1.22,1.05,-1.09,-1.09,-1.08
327.59,-2.26,-1.18,-2.26,-1.19,1.18,1.22,1.06,-1.08,-1.09,-1.07
330.87,-2.30,-1.22,-2.29,-1.22,1.22,1.23,1.06,-1.08,-1.08,-1.08
334.18,-2.33,-1.26,-2.32,-1.25,1.26,1.23,1.07,-1.07,-1.07,-1.07
337.52,-2.35,-1.28,-2.35,-1.29,1.29,1.24,1.08,-1.05,-1.06,-1.07
340.90,-2.39,-1.33,-2.39,-1.32,1.33,1.24,1.09,-1.05,-1.05,-1.06
344.30,-2.43,-1.36,-2.43,-1.36,1.37,1.24,1.10,-1.05,-1.05,-1.06
347.75,-2.48,-1.41,-2.48,-1.41,1.42,1.24,1.11,-1.06,-1.06,-1.06
351.23,-2.52,-1.45,-2.52,-1.46,1.46,1.25,1.12,-1.06,-1.07,-1.07
354.74,-2.58,-1.51,-2.57,-1.50,1.50,1.25,1.13,-1.08,-1.08,-1.07
358.28,-2.62,-1.54,-2.61,-1.54,1.54,1.25,1.14,-1.08,-1.08,-1.08
361.87,-2.65,-1.57,-2.65,-1.57,1.57,1.25,1.16,-1.08,-1.08,-1.08
365.49,-2.68,-1.60,-2.68,-1.60,1.60,1.25,1.17,-1.08,-1.08,-1.08
369.14,-2.71,-1.63,-2.70,-1.62,1.62,1.25,1.19,-1.09,-1.08,-1.08
372.83,-2.72,-1.63,-2.72,-1.64,1.63,1.25,1.21,-1.09,-1.09,-1.08
376.56,-2.72,-1.64,-2.72,-1.64,1.64,1.24,1.22,-1.08,-1.08,-1.07
380.33,-2.72,-1.64,-2.71,-1.64,1.63,1.24,1.24,-1.08,-1.08,-1.08
384.13,-2.70,-1.62,-2.70,-1.63,1.63,1.24,1.26,-1.07,-1.08,-1.08
387.97,-2.69,-1.62,-2.68,-1.61,1.61,1.24,1.28,-1.07,-1.07,-1.07
391.85,-2.66,-1.59,-2.66,-1.59,1.59,1.23,1.30,-1.06,-1.06,-1.07
395.77,-2.63,-1.57,-2.63,-1.57,1.57,1.23,1.32,-1.06,-1.05,-1.06
399.73,-2.59,-1.54,-2.59,-1.54,1.54,1.23,1.35,-1.04,-1.05,-1.05
403.72,-2.56,-1.51,-2.56,-1.51,1.51,1.22,1.37,-1.04,-1.05,-1.05
407.76,-2.53,-1.49,-2.52,-1.48,1.48,1.22,1.39,-1.05,-1.04,-1.04
411.84,-2.49,-1.45,-2.48,-1.45,1.44,1.21,1.41,-1.05,-1.04,-1.03
415.96,-2.43,-1.40,-2.43,-1.41,1.40,1.21,1.43,-1.03,-1.03,-1.02
420.12,-2.38,-1.35,-2.38,-1.35,1.35,1.20,1.46,-1.03,-1.03,-1.02
424.32,-2.32,-1.30,-2.32,-1.30,1.30,1.20,1.48,-1.02,-1.02,-1.02
428.56,-2.26,-1.25,-2.26,-1.25,1.24,1.19,1.50,-1.01,-1.02,-1.01
432.85,-2.20,-1.20,-2.19,-1.20,1.19,1.19,1.52,-1.01,-1.01,-1.00
437.18,-2.13,-1.14,-2.12,-1.13,1.14,1.18,1.54,-0.99,-0.99,-0.99
441.55,-2.05,-1.07,-2.05,-1.07,1.09,1.18,1.56,-0.96,-0.96,-0.98
445.96,-1.99,-1.02,-2.00,-1.03,1.05,1.17,1.58,-0.94,-0.95,-0.97
450.42,-1.96,-1.00,-1.96,-1.00,1.01,1.17,1.60,-0.94,-0.94,-0.96
454.93,-1.94,-0.99,-1.93,-0.98,0.99,1.16,1.62,-0.95,-0.95,-0.95
459.48,-1.91,-0.97,-1.91,-0.97,0.96,1.15,1.63,-0.94,-0.95,-0.94
464.07,-1.89,-0.96,-1.89,-0.96,0.95,1.15,1.64,-0.94,-0.94,-0.93
468.71,-1.87,-0.95,-1.87,-0.94,0.94,1.14,1.65,-0.93,-0.93,-0.92
473.40,-1.85,-0.94,-1.85,-0.94,0.93,1.14,1.66,-0.92,-0.92,-0.91
478.13,-1.83,-0.93,-1.83,-0.93,0.93,1.13,1.67,-0.90,-0.90,-0.90
482.91,-1.81,-0.92,-1.81,-0.92,0.92,1.13,1.67,-0.89,-0.89,-0.88
487.74,-1.79,-0.91,-1.79,-0.91,0.92,1.12,1.68,-0.87,-0.87,-0.87
492.62,-1.77,-0.91,-1.77,-0.91,0.92,1.12,1.68,-0.85,-0.85,-0.85
497.55,-1.75,-0.90,-1.75,-0.91,0.92,1.11,1.67,-0.83,-0.84,-0.84
