frequency,raw,error,smoothed,error_smoothed,equalization,parametric_eq,fixed_band_eq,equalized_raw,equalized_smoothed,target
20.00,-22.47,-22.13,-22.47,-22.14,6.00,5.16,2.63,-16.47,-16.47,-0.33
20.20,-22.33,-22.00,-22.33,-22.00,6.00,5.19,2.70,-16.33,-16.33,-0.32
20.40,-22.19,-21.87,-22.19,-21.87,6.00,5.23,2.78,-16.19,-16.19,-0.31
20.61,-22.05,-21.74,-22.05,-21.74,6.00,5.27,2.86,-16.05,-16.05,-0.31
20.81,-21.91,-21.60,-21.91,-21.60,6.00,5.30,2.95,-15.91,-15.91,-0.30
21.02,-21.77,-21.46,-21.77,-21.47,6.00,5.34,3.03,-15.77,-15.77,-0.30
21.23,-21.64,-21.34,-21.64,-21.34,6.00,5.38,3.12,-15.64,-15.64,-0.29
21.44,-21.52,-21.22,-21.51,-21.22,6.00,5.41,3.21,-15.52,-15.51,-0.29
21.66,-21.39,-21.09,-21.39,-21.10,6.00,5.45,3.31,-15.39,-15.39,-0.30
21.87,-21.25,-20.96,-21.26,-20.96,6.00,5.48,3.40,-15.25,-15.26,-0.30
22.09,-21.12,-20.83,-21.11,-20.82,6.00,5.52,3.50,-15.12,-15.11,-0.29
22.31,-20.94,-20.66,-20.94,-20.65,6.00,5.55,3.61,-14.94,-14.94,-0.29
22.54,-20.77,-20.47,-20.76,-20.47,6.00,5.59,3.71,-14.77,-14.76,-0.30
22.76,-20.60,-20.29,-20.59,-20.29,6.00,5.62,3.82,-14.60,-14.59,-0.31
22.99,-20.43,-20.12,-20.45,-20.15,6.00,5.65,3.93,-14.43,-14.45,-0.31
23.22,-20.36,-20.05,-20.36,-20.05,6.00,5.68,4.04,-14.36,-14.36,-0.31
23.45,-20.31,-19.99,-20.30,-19.99,6.00,5.72,4.16,-14.31,-14.30,-0.32
23.69,-20.25,-19.93,-20.25,-19.93,6.00,5.75,4.27,-14.25,-14.25,-0.32
23.92,-20.19,-19.87,-20.17,-19.85,6.00,5.78,4.39,-14.19,-14.17,-0.32
24.16,-20.07,-19.75,-20.06,-19.74,6.00,5.81,4.52,-14.07,-14.06,-0.32
24.40,-19.91,-19.60,-19.92,-19.61,6.00,5.84,4.64,-13.91,-13.92,-0.32
24.65,-19.78,-19.46,-19.77,-19.46,6.00,5.87,4.77,-13.78,-13.77,-0.32
24.89,-19.62,-19.30,-19.63,-19.31,6.00,5.90,4.90,-13.62,-13.63,-0.32
25.14,-19.50,-19.17,-19.49,-19.17,6.00,5.93,5.03,-13.50,-13.49,-0.32
25.39,-19.36,-19.03,-19.37,-19.04,6.00,5.96,5.16,-13.36,-13.37,-0.33
25.65,-19.25,-18.92,-19.25,-18.91,6.00,5.98,5.29,-13.25,-13.25,-0.33
25.91,-19.13,-18.80,-19.12,-18.79,6.00,6.01,5.42,-13.13,-13.12,-0.33
26.16,-19.00,-18.66,-19.00,-18.67,6.00,6.04,5.56,-13.00,-13.00,-0.33
26.43,-18.88,-18.55,-18.88,-18.54,6.00,6.07,5.69,-12.88,-12.88,-0.33
26.69,-18.75,-18.41,-18.75,-18.42,6.00,6.09,5.82,-12.75,-12.75,-0.33
26.96,-18.63,-18.29,-18.63,-18.29,6.00,6.12,5.95,-12.63,-12.63,-0.33
27.23,-18.50,-18.16,-18.49,-18.16,6.00,6.14,6.08,-12.50,-12.49,-0.34
27.50,-18.36,-18.02,-18.36,-18.02,6.00,6.16,6.21,-12.36,-12.36,-0.34
27.77,-18.22,-17.88,-18.22,-17.88,6.00,6.19,6.33,-12.22,-12.22,-0.34
28.05,-18.08,-17.74,-18.08,-17.74,6.00,6.21,6.45,-12.08,-12.08,-0.34
28.33,-17.95,-17.61,-17.94,-17.61,6.00,6.23,6.56,-11.95,-11.94,-0.34
28.62,-17.81,-17.47,-17.81,-17.47,6.00,6.25,6.67,-11.81,-11.81,-0.34
28.90,-17.68,-17.35,-17.67,-17.34,6.00,6.27,6.77,-11.68,-11.67,-0.33
29.19,-17.54,-17.21,-17.54,-17.21,6.00,6.29,6.87,-11.54,-11.54,-0.33
29.48,-17.41,-17.07,-17.41,-17.08,6.00,6.31,6.96,-11.41,-11.41,-0.33
29.78,-17.28,-16.96,-17.28,-16.95,6.00,6.33,7.04,-11.28,-11.28,-0.32
30.08,-17.15,-16.83,-17.15,-16.82,6.00,6.35,7.11,-11.15,-11.15,-0.32
30.38,-17.02,-16.69,-17.02,-16.69,6.00,6.37,7.17,-11.02,-11.02,-0.33
30.68,-16.89,-16.56,-16.89,-16.56,6.00,6.39,7.22,-10.89,-10.89,-0.33
30.99,-16.76,-16.43,-16.76,-16.43,6.00,6.40,7.26,-10.76,-10.76,-0.33
31.30,-16.63,-16.30,-16.63,-16.31,6.00,6.42,7.29,-10.63,-10.63,-0.33
31.61,-16.50,-16.17,-16.50,-16.17,6.00,6.43,7.31,-10.50,-10.50,-0.33
31.93,-16.37,-16.04,-16.35,-16.02,6.00,6.45,7.33,-10.37,-10.35,-0.33
32.24,-16.17,-15.83,-16.16,-15.82,6.00,6.46,7.33,-10.17,-10.16,-0.34
32.57,-15.97,-15.63,-15.96,-15.62,6.00,6.47,7.32,-9.97,-9.96,-0.34
32.89,-15.76,-15.41,-15.79,-15.45,6.00,6.48,7.30,-9.76,-9.79,-0.35
33.22,-15.69,-15.33,-15.70,-15.34,6.00,6.50,7.28,-9.69,-9.70,-0.36
33.55,-15.68,-15.32,-15.66,-15.30,6.00,6.51,7.24,-9.68,-9.66,-0.36
33.89,-15.68,-15.31,-15.67,-15.30,6.00,6.52,7.20,-9.68,-9.67,-0.37
34.23,-15.68,-15.31,-15.69,-15.32,6.00,6.53,7.16,-9.68,-9.69,-0.37
34.57,-15.67,-15.29,-15.68,-15.31,6.00,6.53,7.10,-9.67,-9.68,-0.37
34.92,-15.67,-15.29,-15.61,-15.24,6.00,6.54,7.05,-9.67,-9.61,-0.38
35.27,-15.47,-15.09,-15.45,-15.07,6.00,6.55,6.99,-9.47,-9.45,-0.38
35.62,-15.22,-14.84,-15.23,-14.85,6.00,6.55,6.92,-9.22,-9.23,-0.38
35.97,-14.96,-14.57,-15.00,-14.62,6.00,6.56,6.86,-8.96,-9.00,-0.38
36.33,-14.83,-14.44,-14.82,-14.44,6.00,6.56,6.79,-8.83,-8.82,-0.38
36.70,-14.70,-14.31,-14.69,-14.30,6.00,6.57,6.72,-8.70,-8.69,-0.39
37.06,-14.58,-14.19,-14.58,-14.19,6.00,6.57,6.65,-8.58,-8.58,-0.39
37.43,-14.46,-14.06,-14.46,-14.07,6.00,6.57,6.58,-8.46,-8.46,-0.39
37.81,-14.33,-13.94,-14.32,-13.93,6.00,6.58,6.51,-8.33,-8.32,-0.38
38.19,-14.16,-13.77,-14.12,-13.74,6.00,6.58,6.45,-8.16,-8.12,-0.39
38.57,-13.93,-13.54,-13.92,-13.54,6.00,6.58,6.38,-7.93,-7.92,-0.39
38.95,-13.71,-13.33,-13.77,-13.39,6.00,6.58,6.32,-7.71,-7.77,-0.38
39.34,-13.69,-13.30,-13.69,-13.31,6.00,6.58,6.26,-7.69,-7.69,-0.38
39.74,-13.71,-13.32,-13.68,-13.29,6.00,6.57,6.21,-7.71,-7.68,-0.39
40.14,-13.70,-13.31,-13.69,-13.30,6.00,6.57,6.15,-7.70,-7.69,-0.39
40.54,-13.64,-13.24,-13.65,-13.26,6.00,6.57,6.10,-7.64,-7.65,-0.39
40.94,-13.59,-13.19,-13.56,-13.16,6.00,6.56,6.06,-7.59,-7.56,-0.40
41.35,-13.42,-13.02,-13.41,-13.00,6.00,6.56,6.01,-7.42,-7.41,-0.40
41.76,-13.23,-12.81,-13.24,-12.83,6.00,6.55,5.98,-7.23,-7.24,-0.42
42.18,-13.06,-12.64,-13.08,-12.66,6.00,6.55,5.94,-7.06,-7.08,-0.42
42.60,-12.94,-12.51,-12.93,-12.51,6.00,6.54,5.91,-6.94,-6.93,-0.42
43.03,-12.80,-12.37,-12.73,-12.30,6.00,6.53,5.89,-6.80,-6.73,-0.43
43.46,-12.54,-12.10,-12.52,-12.08,6.00,6.53,5.87,-6.54,-6.52,-0.43
43.90,-12.27,-11.82,-12.39,-11.95,6.00,6.52,5.85,-6.27,-6.39,-0.45
44.33,-12.34,-11.89,-12.38,-11.93,6.00,6.51,5.84,-6.34,-6.38,-0.45
44.78,-12.51,-12.05,-12.43,-11.97,6.00,6.50,5.83,-6.51,-6.43,-0.46
45.23,-12.50,-12.04,-12.44,-11.98,6.00,6.49,5.83,-6.50,-6.44,-0.46
45.68,-12.31,-11.84,-12.33,-11.87,6.00,6.48,5.83,-6.31,-6.33,-0.47
46.13,-12.13,-11.66,-12.16,-11.70,6.00,6.47,5.83,-6.13,-6.16,-0.46
46.60,-12.01,-11.54,-12.01,-11.54,6.00,6.45,5.84,-6.01,-6.01,-0.47
47.06,-11.90,-11.43,-11.88,-11.42,6.00,6.44,5.86,-5.90,-5.88,-0.46
47.53,-11.78,-11.32,-11.78,-11.32,6.00,6.43,5.87,-5.78,-5.78,-0.46
48.01,-11.67,-11.21,-11.69,-11.24,6.00,6.41,5.90,-5.67,-5.69,-0.46
48.49,-11.60,-11.15,-11.60,-11.15,6.00,6.40,5.92,-5.60,-5.60,-0.45
48.97,-11.52,-11.07,-11.45,-11.00,6.00,6.38,5.95,-5.52,-5.45,-0.45
49.46,-11.32,-10.87,-11.30,-10.86,6.00,6.37,5.98,-5.32,-5.30,-0.45
49.96,-11.10,-10.66,-11.22,-10.79,6.00,6.35,6.02,-5.10,-5.22,-0.43
50.46,-11.16,-10.73,-11.17,-10.75,6.00,6.34,6.06,-5.16,-5.17,-0.43
50.96,-11.25,-10.83,-11.07,-10.65,6.00,6.32,6.10,-5.25,-5.07,-0.42
51.47,-10.98,-10.56,-10.96,-10.54,6.00,6.30,6.14,-4.98,-4.96,-0.42
51.99,-10.67,-10.25,-10.90,-10.48,6.00,6.28,6.19,-4.67,-4.90,-0.42
52.51,-10.89,-10.47,-10.88,-10.47,6.00,6.27,6.23,-4.89,-4.88,-0.41
53.03,-11.10,-10.68,-10.91,-10.50,6.00,6.25,6.28,-5.10,-4.91,-0.41
53.56,-10.85,-10.43,-10.86,-10.45,6.00,6.23,6.32,-4.85,-4.86,-0.41
54.10,-10.61,-10.21,-10.63,-10.22,6.00,6.21,6.37,-4.61,-4.63,-0.40
54.64,-10.38,-9.98,-10.41,-10.01,6.00,6.19,6.42,-4.38,-4.41,-0.40
55.18,-10.26,-9.85,-10.33,-9.93,6.00,6.17,6.46,-4.26,-4.33,-0.40
55.74,-10.36,-9.94,-10.30,-9.89,6.00,6.15,6.51,-4.36,-4.30,-0.41
56.29,-10.32,-9.90,-10.26,-9.85,6.00,6.13,6.55,-4.32,-4.26,-0.42
56.86,-10.15,-9.73,-10.18,-9.76,6.00,6.11,6.58,-4.15,-4.18,-0.42
57.42,-10.03,-9.60,-10.05,-9.62,6.00,6.09,6.62,-4.03,-4.05,-0.43
58.00,-9.93,-9.49,-9.91,-9.47,6.00,6.07,6.65,-3.93,-3.91,-0.44
58.58,-9.78,-9.32,-9.75,-9.30,6.00,6.05,6.67,-3.78,-3.75,-0.45
59.16,-9.62,-9.15,-9.58,-9.11,6.00,6.03,6.69,-3.62,-3.58,-0.47
59.76,-9.42,-8.94,-9.54,-9.05,6.00,6.01,6.70,-3.42,-3.54,-0.48
60.35,-9.49,-8.98,-9.56,-9.05,6.00,5.99,6.71,-3.49,-3.56,-0.50
60.96,-9.75,-9.22,-9.55,-9.02,6.00,5.98,6.71,-3.75,-3.55,-0.53
61.57,-9.50,-8.94,-9.51,-8.95,6.00,5.96,6.70,-3.50,-3.51,-0.55
62.18,-9.26,-8.67,-9.36,-8.77,6.00,5.94,6.69,-3.26,-3.36,-0.59
62.80,-9.18,-8.55,-9.13,-8.50,6.00,5.92,6.67,-3.18,-3.13,-0.63
63.43,-9.01,-8.33,-8.97,-8.30,6.00,5.90,6.64,-3.01,-2.97,-0.67
64.07,-8.83,-8.12,-8.86,-8.15,6.00,5.88,6.60,-2.83,-2.86,-0.71
64.71,-8.80,-8.04,-8.88,-8.13,6.00,5.87,6.56,-2.80,-2.88,-0.76
65.35,-8.93,-8.13,-8.96,-8.17,6.00,5.85,6.51,-2.93,-2.96,-0.79
66.01,-9.18,-8.34,-8.99,-8.15,6.00,5.83,6.45,-3.18,-2.99,-0.83
66.67,-8.87,-8.00,-8.85,-7.98,6.00,5.82,6.39,-2.87,-2.85,-0.87
67.33,-8.60,-7.69,-8.68,-7.77,6.00,5.80,6.32,-2.60,-2.68,-0.90
68.01,-8.39,-7.45,-8.53,-7.59,6.00,5.79,6.25,-2.39,-2.53,-0.94
68.69,-8.58,-7.60,-8.41,-7.43,6.00,5.78,6.17,-2.58,-2.41,-0.97
69.37,-8.42,-7.42,-8.34,-7.33,6.00,5.76,6.09,-2.42,-2.34,-1.00
70.07,-8.06,-7.02,-8.30,-7.26,6.00,5.75,6.00,-2.06,-2.30,-1.04
70.77,-8.30,-7.23,-8.21,-7.14,6.00,5.74,5.91,-2.30,-2.21,-1.07
71.48,-8.27,-7.18,-8.20,-7.11,6.00,5.73,5.82,-2.27,-2.20,-1.09
72.19,-8.14,-7.01,-8.20,-7.08,6.00,5.72,5.73,-2.14,-2.20,-1.12
72.91,-8.13,-6.97,-8.07,-6.91,6.00,5.71,5.63,-2.13,-2.07,-1.16
73.64,-7.96,-6.76,-7.95,-6.76,6.00,5.70,5.54,-1.95,-1.95,-1.19
74.38,-7.86,-6.63,-7.96,-6.74,6.01,5.70,5.44,-1.85,-1.96,-1.23
75.12,-7.90,-6.63,-7.92,-6.65,6.02,5.69,5.35,-1.88,-1.90,-1.27
75.87,-8.07,-6.76,-7.82,-6.51,6.03,5.68,5.25,-2.05,-1.79,-1.31
76.63,-7.60,-6.25,-7.76,-6.41,6.02,5.67,5.16,-1.58,-1.74,-1.35
77.40,-7.49,-6.09,-7.61,-6.22,6.00,5.66,5.06,-1.49,-1.61,-1.40
78.17,-7.70,-6.26,-7.45,-6.02,5.96,5.65,4.97,-1.74,-1.49,-1.44
78.95,-7.32,-5.83,-7.46,-5.98,5.90,5.64,4.88,-1.42,-1.56,-1.48
79.74,-7.36,-5.83,-7.44,-5.92,5.83,5.63,4.80,-1.53,-1.61,-1.52
80.54,-7.46,-5.88,-7.28,-5.70,5.74,5.61,4.71,-1.71,-1.53,-1.57
81.35,-7.28,-5.66,-7.23,-5.62,5.64,5.59,4.63,-1.63,-1.59,-1.61
82.16,-6.89,-5.23,-7.15,-5.50,5.54,5.57,4.55,-1.35,-1.61,-1.66
82.98,-7.23,-5.53,-7.08,-5.39,5.44,5.54,4.47,-1.79,-1.65,-1.70
83.81,-7.12,-5.38,-7.05,-5.32,5.33,5.51,4.39,-1.79,-1.73,-1.74
84.65,-7.00,-5.22,-7.02,-5.25,5.22,5.48,4.32,-1.78,-1.80,-1.77
85.50,-6.88,-5.06,-6.94,-5.12,5.12,5.44,4.25,-1.76,-1.82,-1.82
86.35,-6.89,-5.03,-6.92,-5.06,5.03,5.39,4.19,-1.86,-1.89,-1.86
87.22,-7.00,-5.09,-6.89,-4.99,4.94,5.34,4.12,-2.05,-1.95,-1.90
88.09,-6.82,-4.87,-6.79,-4.85,4.85,5.29,4.06,-1.97,-1.94,-1.95
88.97,-6.67,-4.68,-6.72,-4.73,4.76,5.23,4.01,-1.91,-1.96,-1.98
89.86,-6.57,-4.54,-6.69,-4.65,4.67,5.16,3.95,-1.89,-2.01,-2.03
90.76,-6.82,-4.74,-6.69,-4.62,4.60,5.10,3.90,-2.22,-2.09,-2.08
91.66,-6.75,-4.63,-6.69,-4.57,4.55,5.03,3.85,-2.19,-2.13,-2.11
92.58,-6.59,-4.44,-6.68,-4.53,4.53,4.95,3.81,-2.06,-2.16,-2.15
93.51,-6.64,-4.44,-6.66,-4.46,4.54,4.88,3.76,-2.10,-2.12,-2.20
94.44,-6.77,-4.53,-6.72,-4.48,4.58,4.80,3.72,-2.18,-2.13,-2.23
95.39,-6.83,-4.55,-6.83,-4.56,4.63,4.72,3.69,-2.20,-2.20,-2.27
96.34,-6.94,-4.63,-6.98,-4.67,4.67,4.64,3.65,-2.26,-2.31,-2.31
97.30,-7.11,-4.76,-7.10,-4.75,4.70,4.56,3.62,-2.41,-2.41,-2.35
98.28,-7.28,-4.88,-7.22,-4.83,4.70,4.47,3.59,-2.58,-2.53,-2.40
99.26,-7.24,-4.80,-7.28,-4.85,4.68,4.39,3.56,-2.56,-2.61,-2.44
100.25,-7.25,-4.77,-7.19,-4.72,4.64,4.31,3.54,-2.61,-2.56,-2.48
101.25,-7.12,-4.60,-7.07,-4.56,4.58,4.23,3.52,-2.53,-2.49,-2.52
102.27,-6.85,-4.28,-7.00,-4.44,4.52,4.15,3.49,-2.32,-2.48,-2.56
103.29,-6.99,-4.37,-6.91,-4.30,4.46,4.07,3.47,-2.52,-2.44,-2.61
104.32,-6.98,-4.31,-6.90,-4.24,4.40,3.99,3.46,-2.58,-2.51,-2.66
105.37,-6.85,-4.14,-7.01,-4.30,4.31,3.92,3.44,-2.53,-2.69,-2.70
106.42,-7.10,-4.34,-7.08,-4.33,4.23,3.84,3.42,-2.87,-2.85,-2.75
107.48,-7.24,-4.44,-7.13,-4.33,4.16,3.77,3.41,-3.08,-2.97,-2.80
108.56,-7.12,-4.27,-7.09,-4.24,4.09,3.69,3.39,-3.03,-3.00,-2.85
109.64,-6.88,-3.98,-6.92,-4.03,4.01,3.62,3.38,-2.86,-2.91,-2.90
110.74,-6.72,-3.78,-6.73,-3.80,3.93,3.55,3.36,-2.79,-2.80,-2.94
111.85,-6.65,-3.67,-6.64,-3.66,3.83,3.48,3.35,-2.82,-2.82,-2.98
112.97,-6.61,-3.59,-6.67,-3.65,3.71,3.41,3.33,-2.90,-2.96,-3.02
114.10,-6.72,-3.66,-6.69,-3.64,3.59,3.34,3.31,-3.12,-3.10,-3.06
115.24,-6.76,-3.67,-6.65,-3.57,3.49,3.27,3.30,-3.27,-3.17,-3.08
116.39,-6.54,-3.42,-6.57,-3.45,3.39,3.20,3.28,-3.15,-3.18,-3.12
117.55,-6.37,-3.23,-6.46,-3.32,3.31,3.13,3.26,-3.06,-3.15,-3.14
118.73,-6.37,-3.20,-6.33,-3.17,3.21,3.07,3.24,-3.15,-3.12,-3.17
119.92,-6.33,-3.14,-6.26,-3.08,3.10,3.00,3.21,-3.23,-3.16,-3.18
121.12,-6.10,-2.90,-6.17,-2.97,2.95,2.94,3.19,-3.14,-3.22,-3.20
122.33,-6.08,-2.86,-6.05,-2.83,2.81,2.87,3.16,-3.27,-3.24,-3.22
123.55,-5.95,-2.71,-5.95,-2.72,2.68,2.81,3.13,-3.26,-3.27,-3.23
124.79,-5.83,-2.58,-5.87,-2.62,2.58,2.74,3.10,-3.25,-3.29,-3.25
126.03,-5.80,-2.53,-5.71,-2.45,2.48,2.68,3.06,-3.31,-3.23,-3.26
127.29,-5.57,-2.29,-5.55,-2.27,2.39,2.62,3.02,-3.18,-3.16,-3.28
128.57,-5.41,-2.12,-5.52,-2.23,2.30,2.55,2.98,-3.11,-3.22,-3.29
129.85,-5.46,-2.15,-5.54,-2.24,2.23,2.49,2.94,-3.23,-3.32,-3.31
131.15,-5.79,-2.47,-5.60,-2.28,2.18,2.43,2.89,-3.61,-3.42,-3.32
132.46,-5.57,-2.23,-5.53,-2.20,2.14,2.37,2.85,-3.42,-3.39,-3.34
133.79,-5.39,-2.03,-5.42,-2.07,2.11,2.31,2.80,-3.28,-3.31,-3.35
135.12,-5.18,-1.80,-5.35,-1.98,2.07,2.24,2.75,-3.11,-3.28,-3.37
136.48,-5.46,-2.07,-5.40,-2.02,2.02,2.18,2.69,-3.44,-3.38,-3.38
137.84,-5.59,-2.18,-5.44,-2.04,1.96,2.12,2.64,-3.62,-3.48,-3.41
139.22,-5.39,-1.96,-5.43,-2.01,1.91,2.06,2.58,-3.48,-3.52,-3.42
140.61,-5.25,-1.80,-5.30,-1.85,1.85,2.00,2.52,-3.40,-3.45,-3.44
142.02,-5.18,-1.71,-5.15,-1.69,1.78,1.94,2.46,-3.40,-3.37,-3.46
143.44,-5.12,-1.63,-5.11,-1.62,1.69,1.88,2.40,-3.42,-3.41,-3.49
144.87,-5.06,-1.54,-5.16,-1.64,1.59,1.82,2.34,-3.47,-3.57,-3.52
146.32,-5.19,-1.64,-5.16,-1.62,1.49,1.76,2.28,-3.70,-3.68,-3.54
147.78,-5.26,-1.68,-5.07,-1.49,1.41,1.70,2.22,-3.84,-3.66,-3.58
149.26,-4.88,-1.26,-4.94,-1.32,1.37,1.64,2.15,-3.51,-3.57,-3.62
150.75,-4.69,-1.03,-4.83,-1.16,1.34,1.58,2.09,-3.35,-3.49,-3.66
152.26,-4.86,-1.14,-4.86,-1.14,1.32,1.52,2.03,-3.54,-3.54,-3.72
153.78,-5.09,-1.32,-5.04,-1.27,1.29,1.46,1.97,-3.80,-3.75,-3.77
155.32,-5.26,-1.42,-5.23,-1.40,1.27,1.40,1.90,-3.99,-3.97,-3.83
156.88,-5.29,-1.40,-5.29,-1.40,1.25,1.34,1.84,-4.04,-4.04,-3.89
158.44,-5.32,-1.37,-5.26,-1.31,1.24,1.28,1.78,-4.07,-4.01,-3.95
160.03,-5.14,-1.14,-5.23,-1.24,1.24,1.22,1.72,-3.90,-3.99,-4.00
161.63,-5.21,-1.17,-5.23,-1.19,1.23,1.17,1.66,-3.98,-4.00,-4.04
163.24,-5.31,-1.22,-5.22,-1.14,1.21,1.11,1.60,-4.10,-4.01,-4.09
164.88,-5.25,-1.13,-5.24,-1.12,1.18,1.05,1.54,-4.07,-4.06,-4.12
166.53,-5.19,-1.04,-5.25,-1.10,1.15,1.00,1.48,-4.04,-4.10,-4.15
168.19,-5.25,-1.08,-5.28,-1.11,1.12,0.95,1.42,-4.12,-4.16,-4.17
169.87,-5.40,-1.22,-5.33,-1.15,1.09,0.89,1.37,-4.31,-4.24,-4.18
171.57,-5.35,-1.16,-5.35,-1.17,1.04,0.84,1.31,-4.31,-4.31,-4.18
173.29,-5.26,-1.08,-5.27,-1.09,0.99,0.79,1.26,-4.26,-4.27,-4.18
175.02,-5.16,-0.99,-5.12,-0.95,0.95,0.74,1.20,-4.21,-4.17,-4.17
176.77,-4.94,-0.78,-4.98,-0.83,0.90,0.70,1.15,-4.03,-4.08,-4.15
178.54,-4.86,-0.72,-4.87,-0.73,0.85,0.65,1.09,-4.01,-4.02,-4.14
180.32,-4.82,-0.70,-4.80,-0.68,0.78,0.61,1.04,-4.03,-4.01,-4.11
182.13,-4.80,-0.70,-4.84,-0.74,0.72,0.57,0.99,-4.08,-4.12,-4.10
183.95,-4.83,-0.75,-4.86,-0.78,0.67,0.53,0.94,-4.16,-4.19,-4.07
185.79,-4.94,-0.87,-4.80,-0.73,0.64,0.49,0.89,-4.30,-4.16,-4.07
187.65,-4.69,-0.63,-4.68,-0.62,0.62,0.46,0.84,-4.07,-4.06,-4.06
189.52,-4.45,-0.39,-4.57,-0.51,0.59,0.42,0.79,-3.86,-3.98,-4.05
191.42,-4.49,-0.43,-4.52,-0.47,0.55,0.39,0.75,-3.94,-3.97,-4.06
193.33,-4.61,-0.56,-4.56,-0.50,0.49,0.36,0.70,-4.12,-4.06,-4.05
195.27,-4.64,-0.59,-4.57,-0.51,0.43,0.33,0.66,-4.20,-4.13,-4.05
197.22,-4.48,-0.42,-4.50,-0.45,0.39,0.31,0.61,-4.09,-4.11,-4.06
199.19,-4.37,-0.31,-4.41,-0.35,0.37,0.29,0.57,-4.00,-4.05,-4.06
201.18,-4.37,-0.30,-4.35,-0.28,0.36,0.26,0.52,-4.01,-3.99,-4.07
203.19,-4.36,-0.27,-4.34,-0.26,0.34,0.25,0.48,-4.01,-4.00,-4.08
205.23,-4.36,-0.27,-4.38,-0.29,0.31,0.23,0.44,-4.05,-4.07,-4.09
207.28,-4.40,-0.30,-4.42,-0.32,0.27,0.21,0.40,-4.13,-4.15,-4.10
209.35,-4.49,-0.38,-4.42,-0.31,0.22,0.20,0.36,-4.27,-4.20,-4.11
211.44,-4.40,-0.27,-4.41,-0.28,0.19,0.18,0.32,-4.21,-4.22,-4.13
213.56,-4.29,-0.15,-4.33,-0.19,0.15,0.17,0.28,-4.13,-4.17,-4.14
215.69,-4.27,-0.11,-4.20,-0.04,0.12,0.16,0.24,-4.15,-4.08,-4.16
217.85,-4.10,0.07,-4.14,0.03,0.07,0.15,0.21,-4.03,-4.07,-4.16
220.03,-4.06,0.13,-4.15,0.03,0.01,0.14,0.17,-4.05,-4.14,-4.18
222.23,-4.23,-0.04,-4.16,0.02,-0.04,0.13,0.14,-4.27,-4.20,-4.19
224.45,-4.27,-0.07,-4.19,0.01,-0.07,0.13,0.11,-4.34,-4.26,-4.20
226.70,-4.11,0.10,-4.17,0.04,-0.09,0.12,0.07,-4.19,-4.25,-4.20
228.96,-4.08,0.13,-4.10,0.11,-0.09,0.11,0.04,-4.17,-4.19,-4.21
231.25,-4.07,0.14,-4.05,0.16,-0.10,0.11,0.01,-4.16,-4.14,-4.21
233.57,-4.06,0.16,-4.05,0.16,-0.12,0.10,-0.01,-4.18,-4.17,-4.21
235.90,-4.05,0.16,-4.09,0.11,-0.15,0.10,-0.04,-4.20,-4.25,-4.21
238.26,-4.11,0.10,-4.10,0.10,-0.18,0.09,-0.06,-4.29,-4.29,-4.20
240.64,-4.15,0.04,-4.04,0.16,-0.21,0.09,-0.09,-4.35,-4.24,-4.19
243.05,-3.92,0.27,-3.95,0.24,-0.22,0.08,-0.11,-4.14,-4.17,-4.19
245.48,-3.77,0.41,-3.87,0.31,-0.24,0.08,-0.13,-4.01,-4.11,-4.18
247.93,-3.88,0.30,-3.84,0.33,-0.26,0.07,-0.15,-4.14,-4.10,-4.18
250.41,-3.92,0.25,-3.89,0.28,-0.29,0.07,-0.17,-4.21,-4.18,-4.17
252.92,-3.92,0.25,-3.92,0.24,-0.32,0.06,-0.18,-4.23,-4.24,-4.16
255.45,-3.90,0.27,-3.89,0.28,-0.33,0.05,-0.20,-4.22,-4.21,-4.17
258.00,-3.87,0.31,-3.85,0.32,-0.32,0.05,-0.21,-4.18,-4.17,-4.17
260.58,-3.80,0.38,-3.86,0.32,-0.30,0.04,-0.22,-4.09,-4.15,-4.18
263.19,-3.88,0.30,-3.88,0.31,-0.27,0.04,-0.23,-4.15,-4.14,-4.18
265.82,-3.98,0.21,-3.90,0.29,-0.24,0.03,-0.24,-4.22,-4.14,-4.19
268.48,-3.93,0.26,-3.98,0.21,-0.21,0.02,-0.25,-4.13,-4.19,-4.19
271.16,-3.99,0.21,-4.06,0.13,-0.16,0.01,-0.26,-4.15,-4.22,-4.19
273.87,-4.23,-0.03,-4.12,0.07,-0.09,0.01,-0.26,-4.32,-4.22,-4.20
276.61,-4.21,-0.01,-4.19,0.01,-0.02,-0.00,-0.27,-4.23,-4.22,-4.20
279.38,-4.18,0.03,-4.24,-0.04,0.04,-0.01,-0.27,-4.13,-4.19,-4.20
282.17,-4.27,-0.07,-4.27,-0.08,0.11,-0.02,-0.28,-4.16,-4.16,-4.20
284.99,-4.37,-0.18,-4.35,-0.16,0.17,-0.03,-0.28,-4.20,-4.18,-4.19
287.84,-4.46,-0.27,-4.44,-0.26,0.23,-0.04,-0.28,-4.23,-4.22,-4.19
290.72,-4.48,-0.29,-4.48,-0.29,0.28,-0.05,-0.28,-4.20,-4.19,-4.18
293.63,-4.52,-0.34,-4.50,-0.32,0.33,-0.06,-0.28,-4.19,-4.17,-4.18
296.57,-4.48,-0.31,-4.53,-0.36,0.37,-0.07,-0.28,-4.11,-4.16,-4.17
299.53,-4.60,-0.43,-4.57,-0.41,0.40,-0.08,-0.28,-4.20,-4.17,-4.17
302.53,-4.63,-0.46,-4.60,-0.44,0.42,-0.09,-0.28,-4.20,-4.18,-4.16
305.55,-4.62,-0.45,-4.63,-0.46,0.44,-0.10,-0.28,-4.18,-4.19,-4.17
308.61,-4.61,-0.44,-4.61,-0.45,0.45,-0.11,-0.28,-4.16,-4.17,-4.17
311.69,-4.61,-0.44,-4.60,-0.43,0.46,-0.12,-0.27,-4.14,-4.14,-4.17
314.81,-4.60,-0.42,-4.59,-0.42,0.47,-0.13,-0.27,-4.13,-4.13,-4.18
317.96,-4.60,-0.41,-4.60,-0.41,0.45,-0.15,-0.27,-4.15,-4.15,-4.18
321.14,-4.60,-0.40,-4.63,-0.44,0.41,-0.16,-0.27,-4.18,-4.22,-4.20
324.35,-4.65,-0.45,-4.64,-0.44,0.36,-0.17,-0.27,-4.28,-4.27,-4.20
327.59,-4.66,-0.45,-4.59,-0.38,0.30,-0.18,-0.26,-4.36,-4.29,-4.21
330.87,-4.47,-0.25,-4.51,-0.28,0.23,-0.20,-0.26,-4.24,-4.28,-4.22
334.18,-4.36,-0.12,-4.36,-0.13,0.15,-0.21,-0.26,-4.20,-4.21,-4.23
337.52,-4.26,-0.01,-4.24,0.00,0.08,-0.22,-0.26,-4.18,-4.16,-4.24
340.90,-4.13,0.12,-4.18,0.06,0.00,-0.23,-0.26,-4.12,-4.18,-4.25
344.30,-4.17,0.09,-4.15,0.11,-0.07,-0.25,-0.25,-4.24,-4.22,-4.26
347.75,-4.17,0.11,-4.13,0.15,-0.14,-0.26,-0.25,-4.31,-4.27,-4.28
351.23,-4.10,0.19,-4.14,0.15,-0.19,-0.27,-0.25,-4.29,-4.33,-4.29
354.74,-4.11,0.19,-4.13,0.18,-0.23,-0.29,-0.25,-4.33,-4.35,-4.30
358.28,-4.14,0.17,-4.08,0.23,-0.25,-0.30,-0.25,-4.38,-4.33,-4.31
361.87,-4.05,0.28,-4.03,0.30,-0.27,-0.31,-0.25,-4.32,-4.30,-4.32
365.49,-3.92,0.43,-4.00,0.34,-0.31,-0.33,-0.25,-4.23,-4.31,-4.34
369.14,-3.98,0.38,-3.99,0.36,-0.35,-0.34,-0.25,-4.33,-4.34,-4.35
372.83,-4.08,0.29,-4.01,0.36,-0.39,-0.35,-0.25,-4.47,-4.40,-4.37
376.56,-4.02,0.36,-4.02,0.35,-0.42,-0.37,-0.25,-4.44,-4.44,-4.38
380.33,-3.96,0.43,-3.96,0.43,-0.44,-0.38,-0.25,-4.40,-4.40,-4.39
384.13,-3.91,0.49,-3.89,0.51,-0.45,-0.39,-0.25,-4.36,-4.34,-4.40
387.97,-3.83,0.58,-3.88,0.53,-0.46,-0.41,-0.25,-4.29,-4.35,-4.41
391.85,-3.92,0.50,-3.92,0.50,-0.48,-0.42,-0.25,-4.39,-4.40,-4.42
395.77,-4.02,0.41,-3.99,0.44,-0.48,-0.43,-0.25,-4.50,-4.47,-4.43
399.73,-4.04,0.40,-4.02,0.42,-0.48,-0.44,-0.26,-4.52,-4.50,-4.44
403.72,-4.03,0.43,-4.00,0.45,-0.46,-0.46,-0.26,-4.49,-4.46,-4.45
407.76,-3.95,0.53,-4.00,0.48,-0.43,-0.47,-0.26,-4.38,-4.42,-4.47
