frequency,raw,error,smoothed,error_smoothed,equalization,parametric_eq,fixed_band_eq,equalized_raw,equalized_smoothed,target
20.00,-19.65,-16.66,-19.66,-16.67,6.00,4.56,2.74,-13.65,-13.66,-2.99
20.20,-19.57,-16.58,-19.55,-16.57,6.00,4.62,2.82,-13.57,-13.55,-2.98
20.40,-19.44,-16.46,-19.43,-16.45,6.00,4.67,2.90,-13.44,-13.43,-2.98
20.61,-19.29,-16.31,-19.29,-16.31,6.00,4.72,2.98,-13.29,-13.29,-2.98
20.81,-19.12,-16.14,-19.12,-16.14,6.00,4.78,3.07,-13.12,-13.12,-2.98
21.02,-18.96,-15.98,-18.96,-15.98,6.00,4.83,3.16,-12.96,-12.96,-2.98
21.23,-18.79,-15.81,-18.79,-15.81,6.00,4.88,3.25,-12.79,-12.79,-2.98
21.44,-18.63,-15.66,-18.63,-15.66,6.00,4.93,3.35,-12.63,-12.63,-2.98
21.66,-18.48,-15.50,-18.48,-15.50,6.00,4.98,3.44,-12.48,-12.48,-2.97
21.87,-18.32,-15.35,-18.32,-15.35,6.00,5.03,3.54,-12.32,-12.32,-2.97
22.09,-18.16,-15.19,-18.16,-15.19,6.00,5.07,3.65,-12.16,-12.16,-2.97
22.31,-18.00,-15.03,-18.01,-15.04,6.00,5.12,3.75,-12.00,-12.01,-2.97
22.54,-17.86,-14.89,-17.85,-14.88,6.00,5.16,3.86,-11.86,-11.85,-2.97
22.76,-17.69,-14.73,-17.69,-14.73,6.00,5.21,3.97,-11.69,-11.69,-2.97
22.99,-17.54,-14.57,-17.54,-14.57,6.00,5.25,4.08,-11.54,-11.54,-2.97
23.22,-17.39,-14.42,-17.39,-14.42,6.00,5.28,4.20,-11.39,-11.39,-2.97
23.45,-17.23,-14.27,-17.24,-14.27,6.00,5.32,4.32,-11.23,-11.24,-2.96
23.69,-17.10,-14.14,-17.09,-14.13,6.00,5.36,4.44,-11.10,-11.09,-2.96
23.92,-16.92,-13.96,-16.93,-13.97,6.00,5.39,4.56,-10.92,-10.93,-2.96
24.16,-16.76,-13.80,-16.76,-13.80,6.00,5.42,4.69,-10.76,-10.76,-2.96
24.40,-16.58,-13.62,-16.59,-13.63,6.00,5.44,4.81,-10.58,-10.59,-2.96
24.65,-16.42,-13.46,-16.41,-13.45,6.00,5.47,4.94,-10.42,-10.41,-2.96
24.89,-16.22,-13.27,-16.23,-13.27,6.00,5.49,5.07,-10.22,-10.23,-2.96
25.14,-16.05,-13.10,-16.06,-13.10,6.00,5.51,5.21,-10.05,-10.06,-2.95
25.39,-15.88,-12.93,-15.88,-12.93,6.00,5.53,5.34,-9.88,-9.88,-2.95
25.65,-15.72,-12.76,-15.71,-12.76,6.00,5.54,5.48,-9.72,-9.71,-2.95
25.91,-15.54,-12.59,-15.55,-12.60,6.00,5.55,5.61,-9.54,-9.55,-2.95
26.16,-15.38,-12.43,-15.39,-12.44,6.00,5.56,5.75,-9.38,-9.39,-2.95
26.43,-15.25,-12.30,-15.24,-12.29,6.00,5.57,5.88,-9.25,-9.24,-2.95
26.69,-15.10,-12.15,-15.10,-12.16,6.00,5.57,6.01,-9.10,-9.10,-2.95
26.96,-14.97,-12.02,-14.96,-12.02,6.00,5.57,6.14,-8.97,-8.96,-2.94
27.23,-14.83,-11.88,-14.82,-11.88,6.00,5.57,6.27,-8.83,-8.82,-2.94
27.50,-14.68,-11.73,-14.69,-11.74,6.00,5.57,6.40,-8.68,-8.69,-2.94
27.77,-14.56,-11.62,-14.55,-11.61,6.00,5.57,6.52,-8.56,-8.55,-2.94
28.05,-14.40,-11.47,-14.42,-11.48,6.00,5.57,6.64,-8.40,-8.42,-2.94
28.33,-14.29,-11.36,-14.29,-11.35,6.00,5.57,6.75,-8.29,-8.29,-2.94
28.62,-14.15,-11.21,-14.16,-11.22,6.00,5.57,6.85,-8.15,-8.16,-2.94
28.90,-14.03,-11.10,-14.02,-11.09,6.00,5.57,6.95,-8.03,-8.02,-2.93
29.19,-13.89,-10.95,-13.88,-10.95,6.00,5.57,7.04,-7.89,-7.88,-2.93
29.48,-13.73,-10.80,-13.75,-10.82,6.00,5.58,7.12,-7.73,-7.75,-2.93
29.78,-13.62,-10.69,-13.60,-10.67,6.00,5.59,7.19,-7.62,-7.60,-2.93
30.08,-13.47,-10.54,-13.47,-10.54,6.00,5.60,7.26,-7.47,-7.47,-2.93
30.38,-13.32,-10.39,-13.33,-10.40,6.00,5.62,7.31,-7.32,-7.33,-2.93
30.68,-13.20,-10.27,-13.19,-10.26,6.00,5.64,7.35,-7.20,-7.19,-2.93
30.99,-13.06,-10.13,-13.06,-10.14,6.00,5.66,7.37,-7.06,-7.06,-2.93
31.30,-12.94,-10.01,-12.93,-10.01,6.00,5.68,7.39,-6.94,-6.93,-2.92
31.61,-12.80,-9.87,-12.80,-9.87,6.00,5.71,7.39,-6.80,-6.80,-2.92
31.93,-12.67,-9.75,-12.67,-9.75,6.00,5.74,7.39,-6.67,-6.67,-2.92
32.24,-12.53,-9.61,-12.54,-9.62,6.00,5.77,7.37,-6.53,-6.54,-2.92
32.57,-12.43,-9.51,-12.42,-9.50,6.00,5.80,7.34,-6.43,-6.42,-2.92
32.89,-12.30,-9.39,-12.30,-9.38,6.00,5.82,7.30,-6.30,-6.30,-2.92
33.22,-12.16,-9.25,-12.18,-9.26,6.00,5.85,7.25,-6.16,-6.18,-2.92
33.55,-12.05,-9.14,-12.06,-9.14,6.00,5.88,7.19,-6.05,-6.06,-2.91
33.89,-11.95,-9.03,-11.94,-9.03,6.00,5.90,7.12,-5.95,-5.94,-2.91
34.23,-11.84,-8.92,-11.84,-8.92,6.00,5.92,7.05,-5.84,-5.84,-2.91
34.57,-11.73,-8.82,-11.73,-8.82,6.00,5.94,6.96,-5.73,-5.73,-2.91
34.92,-11.62,-8.71,-11.62,-8.71,6.00,5.96,6.88,-5.62,-5.62,-2.91
35.27,-11.51,-8.60,-11.51,-8.60,6.00,5.97,6.78,-5.51,-5.51,-2.91
35.62,-11.40,-8.49,-11.40,-8.49,6.00,5.99,6.69,-5.40,-5.40,-2.91
35.97,-11.28,-8.38,-11.29,-8.38,6.00,6.00,6.59,-5.28,-5.29,-2.90
36.33,-11.18,-8.28,-11.18,-8.28,6.00,6.00,6.48,-5.18,-5.18,-2.90
36.70,-11.08,-8.17,-11.07,-8.17,6.00,6.01,6.38,-5.08,-5.07,-2.90
37.06,-10.96,-8.06,-10.96,-8.06,6.00,6.01,6.28,-4.96,-4.96,-2.90
37.43,-10.83,-7.94,-10.84,-7.94,6.00,6.01,6.17,-4.83,-4.84,-2.90
37.81,-10.73,-7.83,-10.73,-7.83,6.00,6.01,6.06,-4.73,-4.73,-2.90
38.19,-10.62,-7.72,-10.62,-7.72,6.00,6.01,5.96,-4.62,-4.62,-2.90
38.57,-10.53,-7.63,-10.52,-7.62,6.00,6.00,5.85,-4.53,-4.52,-2.89
38.95,-10.41,-7.52,-10.41,-7.52,6.00,6.00,5.75,-4.41,-4.41,-2.89
39.34,-10.30,-7.41,-10.31,-7.42,6.00,5.99,5.65,-4.30,-4.31,-2.89
39.74,-10.21,-7.32,-10.20,-7.31,6.00,5.98,5.55,-4.21,-4.20,-2.89
40.14,-10.10,-7.21,-10.10,-7.21,6.00,5.98,5.45,-4.10,-4.10,-2.89
40.54,-10.00,-7.11,-9.99,-7.11,6.00,5.97,5.36,-4.00,-3.99,-2.89
40.94,-9.89,-7.01,-9.89,-7.01,6.00,5.96,5.27,-3.89,-3.89,-2.89
41.35,-9.79,-6.90,-9.79,-6.91,6.00,5.95,5.18,-3.79,-3.79,-2.89
41.76,-9.70,-6.82,-9.70,-6.81,6.00,5.94,5.09,-3.70,-3.70,-2.88
42.18,-9.59,-6.71,-9.60,-6.72,6.00,5.93,5.01,-3.59,-3.60,-2.88
42.60,-9.50,-6.62,-9.50,-6.62,6.00,5.92,4.93,-3.50,-3.50,-2.88
43.03,-9.40,-6.52,-9.40,-6.52,6.01,5.91,4.86,-3.39,-3.39,-2.88
43.46,-9.30,-6.42,-9.30,-6.42,6.01,5.89,4.79,-3.28,-3.29,-2.88
43.90,-9.23,-6.35,-9.21,-6.34,6.02,5.88,4.72,-3.21,-3.20,-2.88
44.33,-9.11,-6.24,-9.13,-6.25,6.01,5.86,4.65,-3.10,-3.12,-2.88
44.78,-9.06,-6.18,-9.04,-6.17,6.00,5.84,4.59,-3.06,-3.05,-2.87
45.23,-8.95,-6.07,-8.95,-6.08,5.97,5.82,4.54,-2.97,-2.98,-2.87
45.68,-8.87,-5.99,-8.87,-5.99,5.94,5.80,4.48,-2.93,-2.93,-2.87
46.13,-8.77,-5.90,-8.78,-5.91,5.89,5.77,4.43,-2.88,-2.88,-2.87
46.60,-8.70,-5.83,-8.69,-5.83,5.83,5.74,4.38,-2.86,-2.86,-2.87
47.06,-8.62,-5.75,-8.62,-5.75,5.77,5.70,4.34,-2.85,-2.85,-2.87
47.53,-8.55,-5.68,-8.55,-5.68,5.70,5.66,4.30,-2.85,-2.85,-2.87
48.01,-8.49,-5.62,-8.48,-5.61,5.62,5.61,4.26,-2.86,-2.85,-2.86
48.49,-8.41,-5.54,-8.41,-5.55,5.55,5.56,4.22,-2.86,-2.86,-2.86
48.97,-8.34,-5.47,-8.34,-5.48,5.48,5.50,4.19,-2.86,-2.86,-2.86
49.46,-8.28,-5.41,-8.27,-5.41,5.42,5.44,4.16,-2.86,-2.85,-2.86
49.96,-8.21,-5.35,-8.21,-5.35,5.35,5.37,4.14,-2.85,-2.85,-2.86
50.46,-8.15,-5.29,-8.15,-5.29,5.29,5.29,4.11,-2.85,-2.86,-2.86
50.96,-8.09,-5.23,-8.09,-5.23,5.23,5.21,4.09,-2.86,-2.86,-2.86
51.47,-8.03,-5.17,-8.02,-5.17,5.16,5.13,4.07,-2.86,-2.86,-2.85
51.99,-7.96,-5.10,-7.96,-5.10,5.09,5.04,4.05,-2.86,-2.86,-2.85
52.51,-7.88,-5.02,-7.88,-5.03,5.02,4.95,4.03,-2.85,-2.85,-2.85
53.03,-7.81,-4.95,-7.80,-4.95,4.95,4.85,4.01,-2.86,-2.85,-2.85
53.56,-7.71,-4.86,-7.72,-4.87,4.87,4.75,4.00,-2.84,-2.85,-2.85
54.10,-7.65,-4.80,-7.63,-4.79,4.78,4.66,3.98,-2.86,-2.85,-2.85
54.64,-7.54,-4.69,-7.55,-4.70,4.70,4.56,3.97,-2.84,-2.85,-2.85
55.18,-7.46,-4.62,-7.46,-4.61,4.61,4.45,3.95,-2.86,-2.85,-2.85
55.74,-7.36,-4.51,-7.36,-4.52,4.52,4.35,3.94,-2.84,-2.84,-2.84
56.29,-7.26,-4.42,-7.27,-4.42,4.42,4.25,3.92,-2.84,-2.84,-2.84
56.86,-7.17,-4.33,-7.17,-4.33,4.33,4.15,3.91,-2.83,-2.84,-2.84
57.42,-7.07,-4.23,-7.07,-4.23,4.24,4.06,3.89,-2.84,-2.83,-2.84
58.00,-6.98,-4.14,-6.98,-4.14,4.14,3.96,3.87,-2.83,-2.83,-2.84
58.58,-6.89,-4.05,-6.89,-4.05,4.05,3.86,3.85,-2.84,-2.84,-2.84
59.16,-6.79,-3.96,-6.79,-3.95,3.95,3.77,3.83,-2.84,-2.84,-2.84
59.76,-6.70,-3.86,-6.69,-3.86,3.86,3.67,3.80,-2.84,-2.84,-2.83
60.35,-6.58,-3.75,-6.59,-3.76,3.76,3.58,3.78,-2.83,-2.84,-2.83
60.96,-6.50,-3.66,-6.49,-3.66,3.66,3.49,3.75,-2.84,-2.83,-2.83
61.57,-6.39,-3.56,-6.38,-3.55,3.55,3.41,3.71,-2.83,-2.83,-2.83
62.18,-6.27,-3.45,-6.28,-3.45,3.45,3.32,3.68,-2.83,-2.83,-2.83
62.80,-6.16,-3.34,-6.17,-3.34,3.34,3.24,3.64,-2.82,-2.83,-2.83
63.43,-6.06,-3.24,-6.06,-3.24,3.24,3.16,3.60,-2.83,-2.83,-2.83
64.07,-5.96,-3.13,-5.95,-3.13,3.13,3.08,3.56,-2.83,-2.83,-2.82
64.71,-5.85,-3.02,-5.85,-3.02,3.02,3.00,3.51,-2.83,-2.83,-2.82
65.35,-5.73,-2.91,-5.74,-2.91,2.91,2.92,3.46,-2.82,-2.82,-2.82
66.01,-5.63,-2.81,-5.62,-2.80,2.80,2.85,3.41,-2.82,-2.82,-2.82
66.67,-5.52,-2.70,-5.52,-2.70,2.70,2.78,3.35,-2.81,-2.82,-2.82
67.33,-5.40,-2.59,-5.41,-2.60,2.60,2.71,3.30,-2.81,-2.81,-2.82
68.01,-5.33,-2.51,-5.31,-2.50,2.50,2.64,3.24,-2.82,-2.81,-2.82
68.69,-5.22,-2.40,-5.22,-2.41,2.41,2.57,3.18,-2.81,-2.82,-2.81
69.37,-5.13,-2.32,-5.13,-2.32,2.32,2.50,3.11,-2.82,-2.82,-2.81
70.07,-5.05,-2.23,-5.05,-2.23,2.23,2.44,3.05,-2.81,-2.81,-2.81
70.77,-4.97,-2.15,-4.96,-2.15,2.15,2.38,2.98,-2.81,-2.81,-2.81
71.48,-4.89,-2.08,-4.89,-2.08,2.08,2.31,2.91,-2.81,-2.81,-2.81
72.19,-4.81,-2.00,-4.81,-2.00,2.01,2.25,2.85,-2.79,-2.80,-2.81
72.91,-4.76,-1.95,-4.75,-1.94,1.95,2.19,2.78,-2.81,-2.80,-2.81
73.64,-4.69,-1.88,-4.69,-1.89,1.89,2.13,2.71,-2.80,-2.81,-2.81
74.38,-4.65,-1.84,-4.64,-1.84,1.83,2.08,2.64,-2.81,-2.81,-2.80
75.12,-4.59,-1.78,-4.58,-1.78,1.78,2.02,2.57,-2.81,-2.80,-2.80
75.87,-4.54,-1.73,-4.53,-1.73,1.73,1.97,2.50,-2.80,-2.80,-2.80
76.63,-4.48,-1.68,-4.48,-1.68,1.69,1.91,2.43,-2.79,-2.79,-2.80
77.40,-4.45,-1.65,-4.44,-1.64,1.64,1.86,2.36,-2.80,-2.80,-2.80
78.17,-4.40,-1.60,-4.40,-1.60,1.60,1.81,2.29,-2.79,-2.80,-2.80
78.95,-4.37,-1.57,-4.36,-1.57,1.56,1.76,2.22,-2.80,-2.80,-2.80
79.74,-4.32,-1.52,-4.32,-1.52,1.52,1.71,2.15,-2.80,-2.80,-2.79
80.54,-4.28,-1.48,-4.28,-1.48,1.48,1.66,2.08,-2.80,-2.80,-2.79
81.35,-4.23,-1.43,-4.23,-1.44,1.44,1.61,2.02,-2.79,-2.79,-2.79
82.16,-4.20,-1.41,-4.19,-1.40,1.40,1.57,1.95,-2.80,-2.79,-2.79
82.98,-4.14,-1.35,-4.14,-1.35,1.35,1.52,1.89,-2.78,-2.79,-2.79
83.81,-4.11,-1.32,-4.10,-1.32,1.31,1.48,1.82,-2.79,-2.79,-2.79
84.65,-4.06,-1.27,-4.06,-1.27,1.27,1.43,1.76,-2.78,-2.79,-2.79
85.50,-4.03,-1.24,-4.02,-1.23,1.23,1.39,1.70,-2.79,-2.78,-2.78
86.35,-3.97,-1.18,-3.97,-1.19,1.19,1.35,1.64,-2.77,-2.78,-2.78
87.22,-3.94,-1.15,-3.94,-1.16,1.16,1.30,1.58,-2.78,-2.78,-2.78
88.09,-3.91,-1.13,-3.90,-1.12,1.12,1.26,1.52,-2.78,-2.78,-2.78
88.97,-3.88,-1.10,-3.87,-1.09,1.09,1.22,1.46,-2.79,-2.78,-2.78
89.86,-3.83,-1.05,-3.84,-1.06,1.06,1.18,1.40,-2.77,-2.78,-2.78
90.76,-3.82,-1.04,-3.80,-1.03,1.03,1.14,1.35,-2.79,-2.77,-2.78
91.66,-3.78,-1.00,-3.78,-1.00,1.00,1.11,1.29,-2.77,-2.78,-2.77
92.58,-3.75,-0.97,-3.75,-0.98,0.98,1.07,1.24,-2.77,-2.77,-2.77
93.51,-3.74,-0.96,-3.72,-0.95,0.95,1.03,1.19,-2.78,-2.77,-2.77
94.44,-3.69,-0.91,-3.70,-0.93,0.93,1.00,1.14,-2.76,-2.77,-2.77
95.39,-3.69,-0.92,-3.67,-0.90,0.90,0.96,1.09,-2.78,-2.77,-2.77
96.34,-3.64,-0.87,-3.65,-0.88,0.88,0.92,1.04,-2.75,-2.76,-2.77
97.30,-3.64,-0.87,-3.63,-0.86,0.86,0.89,0.99,-2.78,-2.77,-2.77
98.28,-3.60,-0.83,-3.60,-0.84,0.84,0.86,0.94,-2.76,-2.76,-2.77
99.26,-3.60,-0.83,-3.58,-0.82,0.82,0.82,0.90,-2.78,-2.77,-2.76
100.25,-3.55,-0.78,-3.56,-0.79,0.80,0.79,0.85,-2.75,-2.76,-2.76
101.25,-3.55,-0.78,-3.54,-0.78,0.77,0.76,0.81,-2.77,-2.76,-2.76
102.27,-3.51,-0.75,-3.51,-0.75,0.75,0.73,0.76,-2.75,-2.76,-2.76
103.29,-3.50,-0.74,-3.49,-0.73,0.73,0.70,0.72,-2.76,-2.76,-2.76
104.32,-3.46,-0.70,-3.46,-0.71,0.71,0.67,0.68,-2.75,-2.76,-2.76
105.37,-3.46,-0.70,-3.44,-0.69,0.68,0.64,0.64,-2.77,-2.76,-2.76
106.42,-3.41,-0.65,-3.41,-0.66,0.66,0.61,0.60,-2.75,-2.76,-2.75
107.48,-3.40,-0.64,-3.39,-0.64,0.64,0.58,0.56,-2.76,-2.75,-2.75
108.56,-3.36,-0.60,-3.36,-0.61,0.61,0.55,0.52,-2.74,-2.75,-2.75
109.64,-3.34,-0.59,-3.34,-0.59,0.59,0.52,0.48,-2.75,-2.75,-2.75
110.74,-3.32,-0.57,-3.31,-0.56,0.57,0.49,0.45,-2.75,-2.75,-2.75
111.85,-3.30,-0.55,-3.29,-0.55,0.55,0.47,0.41,-2.75,-2.75,-2.75
112.97,-3.27,-0.52,-3.27,-0.52,0.52,0.44,0.38,-2.74,-2.74,-2.75
114.10,-3.26,-0.51,-3.25,-0.50,0.50,0.42,0.35,-2.75,-2.75,-2.74
115.24,-3.22,-0.47,-3.23,-0.48,0.48,0.39,0.31,-2.73,-2.74,-2.74
116.39,-3.22,-0.47,-3.20,-0.46,0.46,0.37,0.28,-2.76,-2.74,-2.74
117.55,-3.18,-0.43,-3.18,-0.44,0.44,0.34,0.25,-2.74,-2.74,-2.74
118.73,-3.16,-0.42,-3.15,-0.42,0.41,0.32,0.22,-2.74,-2.74,-2.74
119.92,-3.13,-0.39,-3.13,-0.39,0.39,0.29,0.20,-2.74,-2.74,-2.74
121.12,-3.10,-0.36,-3.10,-0.36,0.36,0.27,0.17,-2.73,-2.73,-2.74
122.33,-3.08,-0.34,-3.07,-0.34,0.34,0.25,0.15,-2.74,-2.73,-2.73
123.55,-3.04,-0.30,-3.04,-0.31,0.31,0.22,0.12,-2.72,-2.73,-2.73
124.79,-3.03,-0.29,-3.02,-0.29,0.28,0.20,0.10,-2.74,-2.73,-2.73
126.03,-2.99,-0.25,-2.99,-0.26,0.26,0.18,0.08,-2.73,-2.73,-2.73
127.29,-2.97,-0.24,-2.96,-0.23,0.23,0.16,0.06,-2.73,-2.73,-2.73
128.57,-2.94,-0.21,-2.93,-0.21,0.21,0.14,0.04,-2.73,-2.73,-2.73
129.85,-2.90,-0.17,-2.91,-0.18,0.18,0.12,0.02,-2.71,-2.73,-2.73
131.15,-2.90,-0.17,-2.88,-0.16,0.16,0.10,0.00,-2.74,-2.72,-2.73
132.46,-2.85,-0.12,-2.86,-0.13,0.14,0.08,-0.02,-2.71,-2.72,-2.72
133.79,-2.85,-0.12,-2.83,-0.11,0.12,0.06,-0.03,-2.73,-2.72,-2.72
135.12,-2.81,-0.08,-2.82,-0.10,0.10,0.04,-0.05,-2.71,-2.72,-2.72
136.48,-2.81,-0.09,-2.80,-0.09,0.08,0.02,-0.06,-2.72,-2.72,-2.72
137.84,-2.81,-0.09,-2.78,-0.07,0.07,-0.00,-0.07,-2.74,-2.72,-2.72
139.22,-2.76,-0.04,-2.78,-0.06,0.05,-0.02,-0.09,-2.70,-2.73,-2.72
140.61,-2.76,-0.04,-2.76,-0.04,0.04,-0.04,-0.10,-2.72,-2.72,-2.72
142.02,-2.76,-0.04,-2.73,-0.02,0.02,-0.05,-0.11,-2.73,-2.71,-2.71
143.44,-2.71,0.01,-2.73,-0.01,0.01,-0.07,-0.12,-2.70,-2.72,-2.71
144.87,-2.71,0.01,-2.71,0.01,-0.00,-0.09,-0.13,-2.71,-2.71,-2.71
146.32,-2.71,0.00,-2.69,0.02,-0.02,-0.11,-0.14,-2.72,-2.70,-2.71
147.78,-2.67,0.04,-2.68,0.03,-0.03,-0.12,-0.15,-2.69,-2.71,-2.71
149.26,-2.67,0.04,-2.67,0.04,-0.04,-0.14,-0.16,-2.71,-2.71,-2.71
150.75,-2.67,0.04,-2.66,0.05,-0.05,-0.16,-0.17,-2.72,-2.71,-2.71
152.26,-2.66,0.05,-2.65,0.06,-0.06,-0.17,-0.18,-2.72,-2.71,-2.70
153.78,-2.62,0.09,-2.63,0.07,-0.08,-0.19,-0.19,-2.69,-2.71,-2.70
155.32,-2.62,0.09,-2.61,0.09,-0.09,-0.20,-0.20,-2.70,-2.70,-2.70
156.88,-2.62,0.09,-2.59,0.11,-0.10,-0.22,-0.21,-2.72,-2.69,-2.70
158.44,-2.57,0.13,-2.58,0.12,-0.11,-0.23,-0.22,-2.68,-2.70,-2.70
160.03,-2.57,0.13,-2.57,0.13,-0.13,-0.25,-0.23,-2.69,-2.69,-2.70
161.63,-2.57,0.13,-2.55,0.14,-0.14,-0.26,-0.24,-2.70,-2.69,-2.70
163.24,-2.55,0.15,-2.55,0.15,-0.15,-0.27,-0.26,-2.70,-2.70,-2.69
164.88,-2.53,0.17,-2.53,0.16,-0.17,-0.29,-0.27,-2.69,-2.70,-2.69
166.53,-2.53,0.17,-2.51,0.18,-0.18,-0.30,-0.28,-2.71,-2.69,-2.69
168.19,-2.49,0.21,-2.50,0.19,-0.20,-0.32,-0.29,-2.68,-2.69,-2.69
169.87,-2.48,0.21,-2.48,0.21,-0.21,-0.33,-0.30,-2.69,-2.69,-2.69
171.57,-2.48,0.21,-2.46,0.23,-0.23,-0.34,-0.31,-2.70,-2.68,-2.69
173.29,-2.43,0.26,-2.44,0.24,-0.24,-0.35,-0.32,-2.67,-2.68,-2.69
175.02,-2.43,0.26,-2.42,0.27,-0.26,-0.37,-0.34,-2.69,-2.68,-2.69
176.77,-2.41,0.28,-2.41,0.28,-0.28,-0.38,-0.35,-2.68,-2.68,-2.68
178.54,-2.39,0.30,-2.39,0.29,-0.30,-0.39,-0.36,-2.68,-2.69,-2.68
180.32,-2.39,0.30,-2.37,0.31,-0.32,-0.40,-0.37,-2.70,-2.69,-2.68
182.13,-2.34,0.34,-2.35,0.33,-0.34,-0.42,-0.39,-2.67,-2.68,-2.68
183.95,-2.34,0.34,-2.32,0.35,-0.35,-0.43,-0.40,-2.69,-2.68,-2.68
185.79,-2.29,0.39,-2.30,0.38,-0.38,-0.44,-0.42,-2.66,-2.67,-2.68
187.65,-2.29,0.39,-2.28,0.40,-0.40,-0.45,-0.43,-2.68,-2.67,-2.68
189.52,-2.25,0.43,-2.25,0.42,-0.42,-0.46,-0.45,-2.66,-2.67,-2.67
191.42,-2.25,0.43,-2.24,0.44,-0.44,-0.47,-0.46,-2.68,-2.67,-2.67
193.33,-2.22,0.46,-2.22,0.45,-0.45,-0.48,-0.48,-2.67,-2.67,-2.67
195.27,-2.20,0.47,-2.20,0.47,-0.47,-0.49,-0.49,-2.67,-2.67,-2.67
197.22,-2.20,0.47,-2.18,0.49,-0.49,-0.50,-0.51,-2.68,-2.67,-2.67
199.19,-2.15,0.52,-2.16,0.51,-0.51,-0.51,-0.53,-2.65,-2.67,-2.67
201.18,-2.15,0.52,-2.14,0.53,-0.52,-0.52,-0.54,-2.67,-2.66,-2.67
203.19,-2.13,0.54,-2.12,0.54,-0.54,-0.53,-0.56,-2.66,-2.66,-2.66
205.23,-2.11,0.56,-2.11,0.55,-0.55,-0.54,-0.58,-2.66,-2.67,-2.66
207.28,-2.11,0.56,-2.09,0.57,-0.57,-0.55,-0.59,-2.68,-2.66,-2.66
209.35,-2.07,0.60,-2.08,0.58,-0.59,-0.56,-0.61,-2.65,-2.66,-2.66
211.44,-2.06,0.60,-2.06,0.60,-0.60,-0.57,-0.63,-2.66,-2.66,-2.66
213.56,-2.06,0.60,-2.04,0.62,-0.62,-0.58,-0.64,-2.67,-2.66,-2.66
215.69,-2.01,0.65,-2.02,0.64,-0.64,-0.59,-0.66,-2.64,-2.66,-2.66
217.85,-2.01,0.65,-2.00,0.65,-0.66,-0.60,-0.67,-2.66,-2.66,-2.65
220.03,-1.98,0.68,-1.98,0.68,-0.67,-0.61,-0.69,-2.65,-2.65,-2.65
222.23,-1.97,0.69,-1.96,0.69,-0.69,-0.62,-0.70,-2.66,-2.65,-2.65
224.45,-1.94,0.72,-1.94,0.71,-0.71,-0.63,-0.72,-2.65,-2.65,-2.65
226.70,-1.92,0.73,-1.92,0.73,-0.73,-0.64,-0.73,-2.65,-2.65,-2.65
228.96,-1.92,0.73,-1.90,0.75,-0.75,-0.65,-0.75,-2.66,-2.65,-2.65
231.25,-1.87,0.78,-1.88,0.76,-0.77,-0.65,-0.76,-2.63,-2.65,-2.65
233.57,-1.87,0.78,-1.87,0.78,-0.78,-0.66,-0.77,-2.65,-2.65,-2.65
235.90,-1.87,0.78,-1.85,0.80,-0.80,-0.67,-0.78,-2.66,-2.64,-2.64
238.26,-1.83,0.82,-1.84,0.80,-0.81,-0.68,-0.79,-2.63,-2.65,-2.64
240.64,-1.83,0.82,-1.83,0.81,-0.81,-0.69,-0.80,-2.64,-2.64,-2.64
243.05,-1.83,0.81,-1.82,0.82,-0.81,-0.70,-0.81,-2.64,-2.63,-2.64
245.48,-1.83,0.81,-1.83,0.81,-0.81,-0.70,-0.81,-2.63,-2.64,-2.64
247.93,-1.83,0.81,-1.83,0.80,-0.80,-0.71,-0.82,-2.62,-2.63,-2.64
250.41,-1.87,0.77,-1.85,0.78,-0.78,-0.72,-0.82,-2.65,-2.63,-2.64
252.92,-1.87,0.77,-1.88,0.76,-0.76,-0.73,-0.83,-2.62,-2.63,-2.63
255.45,-1.91,0.73,-1.90,0.73,-0.73,-0.74,-0.83,-2.63,-2.63,-2.63
258.00,-1.94,0.70,-1.93,0.70,-0.70,-0.74,-0.83,-2.63,-2.63,-2.63
260.58,-1.97,0.66,-1.97,0.66,-0.66,-0.75,-0.83,-2.62,-2.63,-2.63
263.19,-2.00,0.63,-2.01,0.62,-0.62,-0.76,-0.83,-2.62,-2.63,-2.63
265.82,-2.06,0.57,-2.05,0.58,-0.58,-0.77,-0.83,-2.64,-2.63,-2.63
268.48,-2.09,0.54,-2.09,0.54,-0.54,-0.78,-0.83,-2.63,-2.63,-2.63
271.16,-2.12,0.51,-2.11,0.51,-0.51,-0.78,-0.82,-2.63,-2.63,-2.62
273.87,-2.15,0.48,-2.14,0.48,-0.48,-0.79,-0.82,-2.63,-2.62,-2.62
276.61,-2.15,0.48,-2.17,0.45,-0.46,-0.80,-0.81,-2.61,-2.63,-2.62
279.38,-2.20,0.43,-2.18,0.44,-0.45,-0.80,-0.81,-2.65,-2.63,-2.62
282.17,-2.20,0.42,-2.18,0.44,-0.45,-0.81,-0.80,-2.64,-2.63,-2.62
284.99,-2.15,0.47,-2.17,0.45,-0.45,-0.82,-0.80,-2.60,-2.62,-2.62
287.84,-2.15,0.47,-2.14,0.47,-0.47,-0.83,-0.79,-2.61,-2.61,-2.62
290.72,-2.13,0.49,-2.12,0.50,-0.49,-0.83,-0.78,-2.62,-2.61,-2.62
293.63,-2.10,0.52,-2.10,0.51,-0.52,-0.84,-0.78,-2.61,-2.62,-2.61
296.57,-2.07,0.55,-2.06,0.55,-0.55,-0.85,-0.77,-2.62,-2.61,-2.61
299.53,-2.04,0.58,-2.03,0.59,-0.59,-0.85,-0.76,-2.62,-2.61,-2.61
302.53,-1.98,0.63,-1.99,0.62,-0.62,-0.86,-0.75,-2.60,-2.61,-2.61
305.55,-1.95,0.66,-1.95,0.66,-0.66,-0.87,-0.75,-2.60,-2.61,-2.61
308.61,-1.92,0.69,-1.91,0.70,-0.70,-0.87,-0.74,-2.61,-2.60,-2.61
311.69,-1.87,0.74,-1.87,0.74,-0.73,-0.88,-0.73,-2.60,-2.60,-2.61
314.81,-1.83,0.78,-1.83,0.77,-0.77,-0.89,-0.73,-2.59,-2.60,-2.60
317.96,-1.80,0.81,-1.79,0.81,-0.80,-0.89,-0.72,-2.60,-2.60,-2.60
321.14,-1.77,0.84,-1.77,0.83,-0.83,-0.90,-0.71,-2.60,-2.60,-2.60
324.35,-1.74,0.86,-1.74,0.86,-0.87,-0.90,-0.71,-2.60,-2.60,-2.60
327.59,-1.71,0.89,-1.70,0.90,-0.90,-0.91,-0.70,-2.61,-2.60,-2.60
330.87,-1.66,0.94,-1.66,0.94,-0.94,-0.92,-0.70,-2.60,-2.60,-2.60
334.18,-1.62,0.98,-1.61,0.98,-0.98,-0.92,-0.69,-2.60,-2.59,-2.60
337.52,-1.57,1.03,-1.57,1.03,-1.03,-0.93,-0.69,-2.59,-2.59,-2.59
340.90,-1.52,1.08,-1.52,1.07,-1.08,-0.93,-0.68,-2.59,-2.60,-2.59
344.30,-1.48,1.12,-1.47,1.13,-1.14,-0.94,-0.68,-2.61,-2.60,-2.59
347.75,-1.41,1.18,-1.41,1.18,-1.20,-0.94,-0.68,-2.60,-2.60,-2.59
351.23,-1.34,1.25,-1.34,1.25,-1.26,-0.94,-0.68,-2.59,-2.60,-2.59
354.74,-1.27,1.32,-1.26,1.32,-1.32,-0.95,-0.67,-2.59,-2.59,-2.59
358.28,-1.20,1.39,-1.20,1.39,-1.38,-0.95,-0.67,-2.58,-2.58,-2.59
361.87,-1.15,1.44,-1.14,1.44,-1.44,-0.95,-0.67,-2.58,-2.58,-2.58
365.49,-1.10,1.49,-1.09,1.49,-1.48,-0.96,-0.67,-2.58,-2.58,-2.58
369.14,-1.06,1.53,-1.06,1.53,-1.52,-0.96,-0.67,-2.58,-2.58,-2.58
372.83,-1.03,1.56,-1.03,1.55,-1.55,-0.96,-0.67,-2.57,-2.58,-2.58
376.56,-1.03,1.55,-1.02,1.56,-1.56,-0.96,-0.68,-2.58,-2.58,-2.58
380.33,-1.03,1.55,-1.02,1.56,-1.55,-0.96,-0.68,-2.58,-2.57,-2.58
384.13,-1.03,1.55,-1.03,1.54,-1.53,-0.96,-0.68,-2.56,-2.57,-2.58
387.97,-1.06,1.52,-1.05,1.52,-1.50,-0.96,-0.68,-2.56,-2.56,-2.58
391.85,-1.10,1.48,-1.10,1.48,-1.46,-0.96,-0.69,-2.56,-2.56,-2.57
395.77,-1.16,1.42,-1.16,1.41,-1.41,-0.95,-0.69,-2.57,-2.57,-2.57
399.73,-1.23,1.35,-1.22,1.35,-1.36,-0.95,-0.70,-2.58,-2.58,-2.57
403.72,-1.29,1.28,-1.28,1.29,-1.30,-0.94,-0.70,-2.59,-2.59,-2.57
407.76,-1.34,1.23,-1.33,1.24,-1.26,-0.94,-0.71,-2.59,-2.59,-2.57
411.84,-1.37,1.20,-1.37,1.19,-1.21,-0.93,-0.71,-2.58,-2.59,-2.57
415.96,-1.41,1.16,-1.41,1.16,-1.17,-0.92,-0.72,-2.58,-2.58,-2.57
