frequency,raw,error,smoothed,error_smoothed,equalization,parametric_eq,fixed_band_eq,equalized_raw,equalized_smoothed,target
20.00,5.66,-0.62,5.66,-0.61,0.61,0.59,-0.33,6.27,6.28,6.28
20.20,5.70,-0.57,5.69,-0.58,0.58,0.56,-0.34,6.28,6.27,6.27
20.40,5.72,-0.54,5.73,-0.54,0.54,0.53,-0.35,6.26,6.27,6.27
20.61,5.76,-0.50,5.76,-0.50,0.50,0.50,-0.36,6.26,6.26,6.26
20.81,5.79,-0.46,5.79,-0.47,0.47,0.47,-0.37,6.26,6.25,6.26
21.02,5.81,-0.44,5.82,-0.43,0.43,0.44,-0.37,6.24,6.24,6.26
21.23,5.85,-0.38,5.85,-0.39,0.39,0.41,-0.38,6.24,6.23,6.23
21.44,5.87,-0.34,5.87,-0.35,0.34,0.38,-0.39,6.22,6.21,6.21
21.66,5.89,-0.30,5.89,-0.30,0.30,0.35,-0.40,6.19,6.20,6.19
21.87,5.91,-0.25,5.91,-0.25,0.26,0.32,-0.41,6.17,6.17,6.16
22.09,5.94,-0.20,5.93,-0.21,0.21,0.29,-0.42,6.15,6.14,6.14
22.31,5.95,-0.17,5.95,-0.17,0.16,0.26,-0.43,6.12,6.12,6.12
22.54,5.96,-0.13,5.97,-0.12,0.12,0.22,-0.44,6.08,6.09,6.09
22.76,5.99,-0.07,5.98,-0.08,0.08,0.19,-0.45,6.07,6.06,6.06
22.99,6.00,-0.03,6.00,-0.03,0.03,0.16,-0.46,6.03,6.03,6.03
23.22,6.01,0.01,6.02,0.01,-0.00,0.12,-0.47,6.01,6.01,6.00
23.45,6.03,0.05,6.03,0.05,-0.04,0.09,-0.48,5.99,5.98,5.98
23.69,6.04,0.08,6.04,0.08,-0.08,0.05,-0.49,5.96,5.96,5.96
23.92,6.05,0.11,6.05,0.11,-0.11,0.02,-0.50,5.94,5.94,5.94
24.16,6.07,0.14,6.06,0.14,-0.14,-0.02,-0.51,5.93,5.92,5.93
24.40,6.07,0.16,6.07,0.17,-0.17,-0.05,-0.52,5.90,5.90,5.91
24.65,6.08,0.19,6.09,0.20,-0.20,-0.09,-0.53,5.88,5.88,5.89
24.89,6.10,0.23,6.10,0.23,-0.23,-0.13,-0.55,5.87,5.87,5.87
25.14,6.11,0.26,6.11,0.26,-0.26,-0.16,-0.56,5.85,5.85,5.85
25.39,6.12,0.29,6.12,0.29,-0.29,-0.20,-0.57,5.83,5.83,5.83
25.65,6.13,0.32,6.13,0.32,-0.32,-0.24,-0.59,5.81,5.81,5.82
25.91,6.14,0.36,6.14,0.35,-0.35,-0.28,-0.60,5.79,5.79,5.79
26.16,6.15,0.38,6.15,0.38,-0.38,-0.32,-0.62,5.77,5.77,5.77
26.43,6.16,0.41,6.16,0.41,-0.40,-0.36,-0.63,5.76,5.76,5.75
26.69,6.17,0.43,6.17,0.43,-0.43,-0.40,-0.65,5.74,5.74,5.74
26.96,6.18,0.46,6.18,0.46,-0.46,-0.44,-0.66,5.72,5.72,5.72
27.23,6.19,0.48,6.19,0.48,-0.49,-0.48,-0.68,5.70,5.70,5.71
27.50,6.20,0.51,6.20,0.51,-0.52,-0.52,-0.70,5.69,5.69,5.69
27.77,6.21,0.54,6.21,0.54,-0.54,-0.56,-0.71,5.67,5.67,5.67
28.05,6.23,0.57,6.23,0.58,-0.57,-0.60,-0.73,5.66,5.66,5.66
28.33,6.24,0.61,6.24,0.61,-0.60,-0.64,-0.75,5.64,5.64,5.63
28.62,6.26,0.64,6.26,0.64,-0.63,-0.69,-0.77,5.63,5.62,5.62
28.90,6.27,0.66,6.27,0.66,-0.66,-0.73,-0.79,5.61,5.61,5.62
29.19,6.28,0.69,6.29,0.69,-0.69,-0.77,-0.81,5.59,5.60,5.59
29.48,6.31,0.72,6.31,0.72,-0.72,-0.82,-0.83,5.59,5.58,5.59
29.78,6.33,0.76,6.33,0.75,-0.76,-0.86,-0.86,5.57,5.57,5.57
30.08,6.35,0.79,6.35,0.79,-0.79,-0.91,-0.88,5.56,5.56,5.56
30.38,6.36,0.82,6.37,0.83,-0.82,-0.95,-0.90,5.54,5.54,5.54
30.68,6.38,0.86,6.38,0.86,-0.86,-1.00,-0.93,5.52,5.52,5.52
30.99,6.41,0.91,6.40,0.90,-0.90,-1.04,-0.95,5.51,5.50,5.50
31.30,6.42,0.93,6.43,0.94,-0.94,-1.09,-0.98,5.48,5.48,5.49
31.61,6.45,0.98,6.45,0.98,-0.98,-1.14,-1.01,5.47,5.46,5.47
31.93,6.47,1.03,6.47,1.02,-1.03,-1.18,-1.04,5.44,5.44,5.44
32.24,6.49,1.07,6.49,1.07,-1.07,-1.23,-1.07,5.42,5.43,5.42
32.57,6.52,1.12,6.52,1.12,-1.11,-1.28,-1.10,5.41,5.41,5.40
32.89,6.54,1.15,6.54,1.16,-1.16,-1.33,-1.13,5.38,5.39,5.39
33.22,6.57,1.21,6.57,1.21,-1.20,-1.38,-1.16,5.37,5.36,5.36
33.55,6.59,1.25,6.59,1.25,-1.25,-1.42,-1.20,5.34,5.34,5.34
33.89,6.61,1.30,6.62,1.30,-1.30,-1.47,-1.23,5.31,5.31,5.31
34.23,6.64,1.34,6.64,1.35,-1.35,-1.52,-1.27,5.29,5.29,5.30
34.57,6.68,1.41,6.68,1.41,-1.40,-1.57,-1.31,5.28,5.27,5.27
34.92,6.71,1.46,6.71,1.46,-1.45,-1.62,-1.34,5.26,5.25,5.25
35.27,6.74,1.51,6.74,1.51,-1.51,-1.68,-1.38,5.23,5.23,5.23
35.62,6.77,1.56,6.77,1.57,-1.57,-1.73,-1.42,5.20,5.21,5.21
35.97,6.81,1.63,6.81,1.62,-1.63,-1.78,-1.47,5.19,5.18,5.18
36.33,6.85,1.68,6.85,1.68,-1.69,-1.83,-1.51,5.17,5.16,5.17
36.70,6.88,1.74,6.89,1.75,-1.75,-1.88,-1.56,5.14,5.14,5.14
37.06,6.93,1.82,6.93,1.81,-1.81,-1.94,-1.60,5.12,5.12,5.11
37.43,6.97,1.87,6.97,1.87,-1.87,-1.99,-1.65,5.10,5.10,5.10
37.81,7.01,1.93,7.01,1.94,-1.94,-2.04,-1.70,5.08,5.08,5.08
38.19,7.06,2.01,7.06,2.00,-2.00,-2.10,-1.75,5.06,5.05,5.05
38.57,7.10,2.06,7.10,2.06,-2.07,-2.15,-1.80,5.03,5.03,5.04
38.95,7.15,2.13,7.15,2.14,-2.14,-2.20,-1.86,5.01,5.01,5.02
39.34,7.20,2.21,7.20,2.21,-2.21,-2.26,-1.91,4.99,4.99,4.99
39.74,7.25,2.29,7.25,2.28,-2.28,-2.31,-1.97,4.97,4.97,4.96
40.14,7.30,2.35,7.30,2.36,-2.35,-2.37,-2.03,4.95,4.95,4.95
40.54,7.35,2.43,7.35,2.43,-2.43,-2.42,-2.09,4.92,4.93,4.92
40.94,7.41,2.50,7.41,2.50,-2.50,-2.48,-2.15,4.91,4.91,4.91
41.35,7.46,2.57,7.46,2.57,-2.57,-2.53,-2.22,4.89,4.89,4.89
41.76,7.52,2.65,7.52,2.65,-2.65,-2.59,-2.28,4.87,4.87,4.87
42.18,7.58,2.72,7.58,2.72,-2.72,-2.65,-2.35,4.86,4.86,4.86
42.60,7.63,2.80,7.63,2.79,-2.80,-2.70,-2.42,4.83,4.84,4.83
43.03,7.69,2.86,7.69,2.87,-2.87,-2.76,-2.49,4.82,4.82,4.83
43.46,7.74,2.94,7.75,2.95,-2.95,-2.81,-2.57,4.79,4.80,4.80
43.90,7.81,3.04,7.80,3.03,-3.03,-2.87,-2.64,4.78,4.77,4.77
44.33,7.86,3.12,7.86,3.11,-3.11,-2.93,-2.72,4.75,4.75,4.74
44.78,7.91,3.18,7.91,3.19,-3.18,-2.98,-2.80,4.73,4.73,4.73
45.23,7.97,3.27,7.97,3.26,-3.26,-3.04,-2.88,4.71,4.71,4.70
45.68,8.02,3.33,8.02,3.34,-3.33,-3.10,-2.97,4.69,4.69,4.69
46.13,8.08,3.42,8.08,3.41,-3.41,-3.16,-3.05,4.68,4.67,4.66
46.60,8.13,3.47,8.13,3.48,-3.47,-3.21,-3.14,4.66,4.66,4.66
47.06,8.18,3.54,8.18,3.54,-3.54,-3.27,-3.23,4.64,4.64,4.64
47.53,8.23,3.61,8.23,3.60,-3.61,-3.33,-3.32,4.62,4.62,4.62
48.01,8.28,3.67,8.28,3.67,-3.68,-3.39,-3.41,4.60,4.60,4.61
48.49,8.32,3.74,8.32,3.74,-3.75,-3.44,-3.51,4.57,4.58,4.58
48.97,8.37,3.82,8.37,3.81,-3.82,-3.50,-3.61,4.56,4.55,4.55
49.46,8.41,3.88,8.41,3.89,-3.88,-3.56,-3.70,4.53,4.53,4.53
49.96,8.45,3.95,8.45,3.95,-3.94,-3.62,-3.80,4.51,4.51,4.50
50.46,8.49,4.01,8.49,4.01,-4.00,-3.67,-3.90,4.49,4.48,4.48
50.96,8.52,4.06,8.53,4.07,-4.06,-3.73,-4.00,4.46,4.46,4.46
51.47,8.56,4.13,8.56,4.12,-4.12,-3.79,-4.10,4.44,4.44,4.43
51.99,8.59,4.18,8.59,4.17,-4.17,-3.84,-4.20,4.42,4.42,4.42
52.51,8.61,4.20,8.61,4.21,-4.22,-3.90,-4.30,4.39,4.40,4.41
53.03,8.64,4.25,8.64,4.26,-4.26,-3.96,-4.40,4.38,4.38,4.39
53.56,8.67,4.31,8.67,4.31,-4.31,-4.01,-4.50,4.36,4.36,4.36
54.10,8.70,4.36,8.69,4.36,-4.35,-4.07,-4.60,4.35,4.34,4.34
54.64,8.71,4.39,8.72,4.40,-4.40,-4.13,-4.70,4.31,4.32,4.32
55.18,8.73,4.44,8.73,4.44,-4.44,-4.18,-4.79,4.29,4.29,4.30
55.74,8.75,4.48,8.75,4.47,-4.48,-4.24,-4.88,4.27,4.27,4.27
56.29,8.76,4.51,8.76,4.51,-4.51,-4.29,-4.97,4.25,4.25,4.25
56.86,8.78,4.55,8.78,4.55,-4.55,-4.35,-5.06,4.23,4.23,4.23
57.42,8.80,4.59,8.80,4.58,-4.58,-4.40,-5.14,4.22,4.22,4.21
58.00,8.81,4.61,8.81,4.61,-4.61,-4.45,-5.22,4.20,4.20,4.20
58.58,8.82,4.64,8.82,4.64,-4.64,-4.51,-5.29,4.18,4.19,4.18
59.16,8.83,4.66,8.83,4.66,-4.66,-4.56,-5.35,4.17,4.16,4.17
59.76,8.83,4.68,8.83,4.69,-4.69,-4.61,-5.41,4.14,4.14,4.15
60.35,8.84,4.72,8.84,4.71,-4.72,-4.67,-5.47,4.12,4.12,4.12
60.96,8.84,4.73,8.84,4.74,-4.75,-4.72,-5.52,4.09,4.09,4.11
61.57,8.85,4.78,8.85,4.78,-4.78,-4.77,-5.56,4.07,4.08,4.07
62.18,8.86,4.81,8.86,4.81,-4.80,-4.82,-5.60,4.06,4.06,4.05
62.80,8.87,4.84,8.87,4.84,-4.83,-4.87,-5.62,4.04,4.03,4.03
63.43,8.87,4.87,8.87,4.87,-4.86,-4.92,-5.65,4.01,4.01,4.00
64.07,8.87,4.88,8.87,4.89,-4.88,-4.97,-5.66,3.99,3.99,3.99
64.71,8.88,4.91,8.88,4.91,-4.91,-5.02,-5.67,3.97,3.97,3.97
65.35,8.88,4.93,8.88,4.93,-4.93,-5.06,-5.67,3.95,3.94,3.95
66.01,8.88,4.95,8.89,4.95,-4.96,-5.11,-5.67,3.92,3.93,3.93
66.67,8.89,4.98,8.89,4.98,-4.98,-5.16,-5.66,3.91,3.91,3.91
67.33,8.91,5.02,8.90,5.01,-5.01,-5.20,-5.65,3.90,3.90,3.89
68.01,8.91,5.04,8.91,5.04,-5.03,-5.25,-5.63,3.88,3.88,3.87
68.69,8.92,5.07,8.92,5.07,-5.06,-5.29,-5.61,3.86,3.86,3.85
69.37,8.92,5.09,8.92,5.09,-5.09,-5.33,-5.58,3.83,3.83,3.83
70.07,8.93,5.12,8.93,5.12,-5.12,-5.37,-5.56,3.81,3.81,3.81
70.77,8.94,5.14,8.94,5.15,-5.15,-5.42,-5.53,3.79,3.79,3.80
71.48,8.96,5.19,8.96,5.18,-5.18,-5.46,-5.49,3.78,3.77,3.78
72.19,8.96,5.21,8.97,5.22,-5.22,-5.50,-5.46,3.74,3.75,3.75
72.91,8.98,5.26,8.97,5.25,-5.25,-5.53,-5.43,3.73,3.72,3.72
73.64,8.98,5.29,8.98,5.29,-5.28,-5.57,-5.39,3.70,3.70,3.69
74.38,8.99,5.31,9.00,5.32,-5.32,-5.61,-5.36,3.67,3.68,3.68
75.12,9.01,5.36,9.01,5.35,-5.35,-5.64,-5.32,3.66,3.65,3.65
75.87,9.02,5.39,9.02,5.39,-5.39,-5.68,-5.29,3.63,3.63,3.63
76.63,9.02,5.41,9.02,5.42,-5.42,-5.71,-5.26,3.60,3.60,3.61
77.40,9.03,5.45,9.03,5.45,-5.45,-5.75,-5.23,3.58,3.58,3.58
78.17,9.04,5.50,9.04,5.49,-5.49,-5.78,-5.20,3.55,3.55,3.54
78.95,9.05,5.53,9.05,5.52,-5.52,-5.81,-5.17,3.53,3.53,3.53
79.74,9.06,5.55,9.06,5.56,-5.56,-5.84,-5.15,3.50,3.50,3.51
80.54,9.06,5.58,9.06,5.59,-5.59,-5.87,-5.13,3.47,3.47,3.48
81.35,9.07,5.62,9.07,5.62,-5.62,-5.89,-5.11,3.45,3.45,3.45
82.16,9.08,5.66,9.08,5.66,-5.66,-5.92,-5.09,3.42,3.42,3.42
82.98,9.08,5.69,9.08,5.69,-5.69,-5.95,-5.08,3.39,3.39,3.39
83.81,9.08,5.73,9.08,5.73,-5.72,-5.97,-5.08,3.36,3.36,3.35
84.65,9.08,5.76,9.08,5.76,-5.76,-5.99,-5.07,3.33,3.33,3.32
85.50,9.08,5.78,9.08,5.79,-5.79,-6.01,-5.07,3.29,3.29,3.30
86.35,9.08,5.82,9.08,5.82,-5.82,-6.04,-5.07,3.27,3.26,3.27
87.22,9.07,5.84,9.08,5.85,-5.84,-6.06,-5.08,3.23,3.23,3.23
88.09,9.08,5.88,9.07,5.87,-5.87,-6.07,-5.09,3.21,3.20,3.20
88.97,9.07,5.90,9.07,5.90,-5.90,-6.09,-5.11,3.17,3.17,3.17
89.86,9.06,5.91,9.07,5.92,-5.92,-6.11,-5.12,3.14,3.14,3.15
90.76,9.06,5.96,9.06,5.95,-5.95,-6.12,-5.15,3.11,3.11,3.10
91.66,9.05,5.97,9.05,5.98,-5.98,-6.14,-5.17,3.08,3.08,3.08
92.58,9.04,6.01,9.04,6.00,-6.00,-6.15,-5.20,3.04,3.04,3.03
93.51,9.03,6.02,9.03,6.02,-6.02,-6.16,-5.24,3.01,3.01,3.01
94.44,9.02,6.04,9.02,6.05,-6.05,-6.17,-5.28,2.97,2.97,2.98
95.39,9.01,6.07,9.01,6.07,-6.07,-6.19,-5.32,2.94,2.94,2.94
96.34,8.99,6.10,8.99,6.09,-6.09,-6.19,-5.36,2.90,2.90,2.89
97.30,8.97,6.11,8.97,6.12,-6.12,-6.20,-5.41,2.86,2.86,2.86
98.28,8.96,6.14,8.96,6.14,-6.14,-6.21,-5.46,2.82,2.82,2.82
99.26,8.94,6.16,8.94,6.16,-6.16,-6.22,-5.51,2.78,2.78,2.78
100.25,8.92,6.18,8.92,6.17,-6.18,-6.22,-5.57,2.74,2.74,2.74
101.25,8.89,6.19,8.89,6.19,-6.19,-6.23,-5.63,2.70,2.70,2.70
102.27,8.87,6.20,8.87,6.21,-6.21,-6.23,-5.69,2.66,2.66,2.67
103.29,8.84,6.23,8.84,6.23,-6.22,-6.23,-5.75,2.62,2.62,2.61
104.32,8.82,6.24,8.82,6.24,-6.24,-6.23,-5.81,2.58,2.58,2.58
105.37,8.79,6.26,8.79,6.25,-6.25,-6.23,-5.88,2.54,2.54,2.53
106.42,8.75,6.26,8.75,6.26,-6.26,-6.23,-5.94,2.49,2.49,2.49
107.48,8.72,6.27,8.72,6.27,-6.28,-6.23,-6.01,2.44,2.44,2.45
108.56,8.69,6.29,8.69,6.29,-6.29,-6.23,-6.07,2.40,2.40,2.40
109.64,8.66,6.30,8.66,6.30,-6.30,-6.23,-6.14,2.36,2.36,2.36
110.74,8.63,6.32,8.63,6.32,-6.32,-6.22,-6.20,2.31,2.31,2.31
111.85,8.59,6.32,8.59,6.33,-6.33,-6.22,-6.26,2.26,2.26,2.27
112.97,8.56,6.36,8.55,6.34,-6.34,-6.21,-6.32,2.22,2.21,2.21
114.10,8.51,6.34,8.52,6.35,-6.35,-6.21,-6.38,2.16,2.17,2.17
115.24,8.48,6.36,8.48,6.36,-6.36,-6.20,-6.43,2.12,2.12,2.12
116.39,8.45,6.38,8.44,6.37,-6.37,-6.19,-6.48,2.08,2.07,2.07
117.55,8.40,6.37,8.40,6.38,-6.37,-6.18,-6.52,2.03,2.03,2.03
118.73,8.36,6.38,8.36,6.38,-6.38,-6.18,-6.56,1.98,1.98,1.98
119.92,8.32,6.38,8.32,6.38,-6.38,-6.17,-6.59,1.94,1.94,1.94
121.12,8.28,6.38,8.28,6.38,-6.38,-6.16,-6.62,1.90,1.90,1.90
122.33,8.24,6.39,8.24,6.38,-6.38,-6.15,-6.63,1.86,1.86,1.85
123.55,8.20,6.38,8.20,6.38,-6.38,-6.14,-6.65,1.82,1.82,1.82
124.79,8.16,6.38,8.16,6.38,-6.38,-6.13,-6.66,1.78,1.78,1.78
126.03,8.12,6.38,8.12,6.38,-6.38,-6.11,-6.66,1.74,1.73,1.74
127.29,8.07,6.38,8.08,6.38,-6.38,-6.10,-6.65,1.69,1.69,1.70
128.57,8.03,6.38,8.03,6.38,-6.38,-6.09,-6.64,1.65,1.65,1.65
129.85,8.00,6.39,7.99,6.38,-6.38,-6.08,-6.62,1.62,1.62,1.61
131.15,7.95,6.37,7.96,6.38,-6.37,-6.07,-6.60,1.58,1.58,1.58
132.46,7.92,6.38,7.92,6.37,-6.37,-6.05,-6.57,1.55,1.55,1.54
133.79,7.87,6.36,7.87,6.36,-6.36,-6.04,-6.53,1.51,1.51,1.51
135.12,7.83,6.36,7.83,6.35,-6.35,-6.03,-6.49,1.48,1.48,1.47
136.48,7.79,6.34,7.79,6.34,-6.34,-6.01,-6.45,1.45,1.45,1.45
137.84,7.75,6.33,7.75,6.33,-6.33,-6.00,-6.40,1.42,1.42,1.42
139.22,7.71,6.32,7.71,6.32,-6.32,-5.99,-6.35,1.40,1.40,1.39
140.61,7.67,6.31,7.67,6.30,-6.30,-5.97,-6.29,1.37,1.37,1.36
142.02,7.64,6.28,7.63,6.28,-6.28,-5.96,-6.24,1.36,1.35,1.36
143.44,7.59,6.26,7.59,6.26,-6.26,-5.95,-6.18,1.33,1.33,1.33
144.87,7.55,6.24,7.56,6.24,-6.24,-5.93,-6.12,1.31,1.31,1.31
146.32,7.52,6.23,7.52,6.22,-6.22,-5.92,-6.06,1.30,1.29,1.30
147.78,7.48,6.20,7.48,6.20,-6.20,-5.91,-6.00,1.28,1.28,1.28
149.26,7.44,6.18,7.44,6.18,-6.18,-5.89,-5.95,1.26,1.26,1.26
150.75,7.40,6.17,7.40,6.16,-6.16,-5.88,-5.89,1.24,1.24,1.23
152.26,7.36,6.15,7.36,6.14,-6.14,-5.87,-5.83,1.22,1.22,1.22
153.78,7.32,6.12,7.32,6.12,-6.12,-5.86,-5.78,1.20,1.20,1.20
155.32,7.28,6.10,7.28,6.10,-6.10,-5.85,-5.73,1.18,1.18,1.18
156.88,7.24,6.07,7.24,6.08,-6.08,-5.84,-5.68,1.16,1.16,1.17
158.44,7.20,6.06,7.20,6.06,-6.06,-5.83,-5.63,1.14,1.14,1.14
160.03,7.16,6.04,7.16,6.04,-6.04,-5.82,-5.59,1.12,1.12,1.12
161.63,7.12,6.03,7.12,6.03,-6.02,-5.81,-5.55,1.10,1.10,1.09
163.24,7.08,6.01,7.08,6.01,-6.00,-5.80,-5.51,1.08,1.08,1.07
164.88,7.05,5.99,7.05,5.99,-5.99,-5.79,-5.47,1.07,1.06,1.06
166.53,7.01,5.97,7.01,5.97,-5.97,-5.78,-5.44,1.04,1.04,1.04
168.19,6.97,5.96,6.97,5.95,-5.95,-5.77,-5.42,1.02,1.02,1.01
169.87,6.92,5.92,6.93,5.93,-5.93,-5.77,-5.39,0.99,0.99,1.00
171.57,6.89,5.92,6.88,5.91,-5.92,-5.76,-5.38,0.97,0.97,0.97
173.29,6.84,5.89,6.85,5.90,-5.90,-5.76,-5.36,0.94,0.94,0.95
175.02,6.81,5.89,6.81,5.89,-5.89,-5.75,-5.35,0.92,0.92,0.92
176.77,6.77,5.88,6.77,5.88,-5.88,-5.75,-5.34,0.89,0.89,0.89
178.54,6.73,5.88,6.73,5.87,-5.87,-5.74,-5.34,0.86,0.86,0.85
180.32,6.69,5.86,6.69,5.86,-5.86,-5.74,-5.34,0.83,0.83,0.83
182.13,6.64,5.84,6.64,5.85,-5.85,-5.74,-5.35,0.79,0.79,0.80
183.95,6.60,5.84,6.61,5.84,-5.84,-5.73,-5.36,0.76,0.76,0.76
185.79,6.57,5.84,6.57,5.83,-5.83,-5.73,-5.37,0.74,0.73,0.73
187.65,6.53,5.83,6.53,5.83,-5.82,-5.73,-5.39,0.71,0.71,0.70
189.52,6.48,5.80,6.48,5.81,-5.81,-5.73,-5.41,0.67,0.68,0.68
191.42,6.44,5.80,6.44,5.80,-5.80,-5.73,-5.43,0.64,0.65,0.64
193.33,6.40,5.78,6.40,5.78,-5.78,-5.73,-5.46,0.62,0.62,0.62
195.27,6.36,5.77,6.36,5.77,-5.77,-5.72,-5.49,0.59,0.59,0.59
197.22,6.31,5.74,6.31,5.75,-5.75,-5.72,-5.53,0.56,0.56,0.57
199.19,6.27,5.74,6.27,5.73,-5.73,-5.72,-5.57,0.54,0.54,0.53
201.18,6.23,5.71,6.23,5.72,-5.71,-5.72,-5.61,0.52,0.51,0.52
203.19,6.19,5.69,6.19,5.70,-5.70,-5.72,-5.65,0.49,0.49,0.50
205.23,6.14,5.67,6.15,5.67,-5.68,-5.71,-5.69,0.46,0.47,0.47
207.28,6.11,5.64,6.11,5.65,-5.66,-5.71,-5.73,0.45,0.45,0.47
209.35,6.07,5.63,6.07,5.64,-5.63,-5.71,-5.78,0.44,0.44,0.44
211.44,6.04,5.63,6.04,5.62,-5.61,-5.70,-5.83,0.43,0.42,0.41
213.56,5.99,5.59,6.00,5.60,-5.59,-5.69,-5.87,0.40,0.40,0.40
215.69,5.96,5.56,5.96,5.57,-5.57,-5.68,-5.92,0.39,0.39,0.40
217.85,5.92,5.54,5.92,5.54,-5.54,-5.67,-5.97,0.38,0.38,0.38
220.03,5.89,5.52,5.89,5.52,-5.52,-5.66,-6.01,0.37,0.37,0.37
222.23,5.87,5.50,5.87,5.49,-5.49,-5.65,-6.05,0.38,0.37,0.37
224.45,5.84,5.46,5.84,5.47,-5.46,-5.63,-6.09,0.38,0.38,0.38
226.70,5.81,5.43,5.81,5.43,-5.43,-5.61,-6.12,0.38,0.38,0.38
228.96,5.79,5.41,5.79,5.40,-5.40,-5.59,-6.16,0.39,0.38,0.38
231.25,5.76,5.36,5.76,5.37,-5.37,-5.56,-6.18,0.39,0.39,0.40
233.57,5.73,5.33,5.73,5.33,-5.33,-5.54,-6.20,0.40,0.40,0.40
235.90,5.71,5.30,5.71,5.29,-5.29,-5.51,-6.22,0.42,0.41,0.42
238.26,5.68,5.26,5.68,5.26,-5.25,-5.47,-6.23,0.43,0.43,0.42
240.64,5.65,5.21,5.65,5.21,-5.21,-5.44,-6.23,0.44,0.45,0.44
243.05,5.63,5.17,5.62,5.16,-5.16,-5.40,-6.23,0.47,0.46,0.46
245.48,5.59,5.11,5.59,5.11,-5.11,-5.35,-6.21,0.48,0.48,0.48
247.93,5.56,5.05,5.56,5.06,-5.07,-5.31,-6.19,0.50,0.50,0.51
250.41,5.54,5.03,5.54,5.01,-5.02,-5.26,-6.16,0.52,0.52,0.51
252.92,5.51,4.96,5.51,4.97,-4.97,-5.21,-6.13,0.54,0.54,0.55
255.45,5.49,4.92,5.49,4.93,-4.93,-5.15,-6.08,0.56,0.56,0.57
258.00,5.47,4.88,5.48,4.88,-4.89,-5.10,-6.03,0.58,0.59,0.59
260.58,5.47,4.86,5.46,4.85,-4.85,-5.04,-5.97,0.62,0.61,0.61
263.19,5.45,4.81,5.45,4.82,-4.81,-4.97,-5.90,0.64,0.64,0.64
265.82,5.44,4.79,5.44,4.78,-4.78,-4.91,-5.82,0.66,0.67,0.66
268.48,5.43,4.74,5.43,4.75,-4.74,-4.84,-5.74,0.69,0.69,0.69
271.16,5.43,4.71,5.42,4.71,-4.71,-4.77,-5.65,0.72,0.71,0.72
273.87,5.41,4.68,5.41,4.67,-4.67,-4.70,-5.56,0.74,0.74,0.73
276.61,5.39,4.63,5.40,4.64,-4.64,-4.62,-5.46,0.76,0.76,0.76
279.38,5.38,4.60,5.38,4.60,-4.60,-4.55,-5.36,0.78,0.78,0.78
282.17,5.37,4.57,5.37,4.56,-4.56,-4.47,-5.25,0.81,0.80,0.80
284.99,5.35,4.52,5.35,4.53,-4.53,-4.39,-5.14,0.83,0.83,0.83
287.84,5.34,4.48,5.34,4.49,-4.49,-4.32,-5.03,0.85,0.85,0.86
290.72,5.34,4.46,5.34,4.45,-4.46,-4.24,-4.91,0.88,0.88,0.88
293.63,5.33,4.42,5.33,4.42,-4.43,-4.16,-4.79,0.90,0.91,0.91
296.57,5.33,4.39,5.33,4.40,-4.39,-4.08,-4.68,0.94,0.94,0.94
299.53,5.33,4.36,5.33,4.36,-4.36,-4.00,-4.56,0.97,0.97,0.97
302.53,5.33,4.35,5.33,4.34,-4.33,-3.91,-4.44,1.00,1.00,0.98
305.55,5.32,4.29,5.33,4.30,-4.30,-3.83,-4.32,1.03,1.03,1.03
308.61,5.33,4.27,5.33,4.26,-4.26,-3.75,-4.20,1.07,1.06,1.06
311.69,5.32,4.22,5.32,4.22,-4.23,-3.67,-4.08,1.09,1.10,1.10
314.81,5.32,4.18,5.32,4.19,-4.19,-3.59,-3.96,1.13,1.13,1.14
317.96,5.31,4.15,5.31,4.15,-4.15,-3.51,-3.84,1.16,1.16,1.16
321.14,5.31,4.12,5.31,4.12,-4.12,-3.43,-3.73,1.19,1.19,1.19
324.35,5.30,4.08,5.30,4.08,-4.08,-3.35,-3.61,1.22,1.22,1.22
327.59,5.29,4.04,5.29,4.04,-4.04,-3.28,-3.50,1.25,1.25,1.25
330.87,5.28,4.01,5.28,4.01,-4.01,-3.20,-3.39,1.27,1.27,1.27
334.18,5.26,3.97,5.27,3.97,-3.98,-3.12,-3.28,1.28,1.29,1.29
337.52,5.26,3.95,5.25,3.94,-3.95,-3.05,-3.17,1.31,1.30,1.31
340.90,5.24,3.90,5.24,3.90,-3.92,-2.97,-3.07,1.33,1.32,1.34
344.30,5.22,3.86,5.22,3.87,-3.87,-2.90,-2.96,1.35,1.35,1.36
347.75,5.20,3.82,5.21,3.83,-3.82,-2.82,-2.86,1.38,1.39,1.38
351.23,5.18,3.79,5.18,3.78,-3.76,-2.75,-2.76,1.43,1.42,1.39
354.74,5.14,3.73,5.12,3.71,-3.68,-2.68,-2.67,1.46,1.44,1.41
358.28,5.04,3.61,5.05,3.61,-3.59,-2.61,-2.57,1.45,1.45,1.43
361.87,4.94,3.49,4.95,3.49,-3.50,-2.54,-2.48,1.44,1.45,1.45
365.49,4.84,3.37,4.84,3.37,-3.39,-2.47,-2.39,1.45,1.45,1.47
369.14,4.74,3.26,4.74,3.26,-3.28,-2.40,-2.30,1.46,1.47,1.48
372.83,4.65,3.15,4.65,3.15,-3.16,-2.34,-2.21,1.49,1.49,1.50
376.56,4.56,3.05,4.56,3.05,-3.04,-2.27,-2.13,1.52,1.51,1.51
380.33,4.46,2.93,4.46,2.93,-2.93,-2.20,-2.04,1.53,1.53,1.54
384.13,4.37,2.82,4.37,2.82,-2.82,-2.14,-1.96,1.55,1.55,1.55
387.97,4.27,2.70,4.28,2.70,-2.71,-2.07,-1.88,1.56,1.57,1.57
391.85,4.19,2.61,4.19,2.60,-2.60,-2.01,-1.80,1.59,1.59,1.58
395.77,4.10,2.49,4.10,2.49,-2.49,-1.94,-1.73,1.61,1.61,1.61
399.73,4.02,2.39,4.02,2.39,-2.38,-1.88,-1.65,1.64,1.63,1.63
403.72,3.93,2.28,3.93,2.28,-2.28,-1.82,-1.58,1.65,1.65,1.65
407.76,3.84,2.17,3.84,2.17,-2.17,-1.75,-1.51,1.67,1.67,1.67
411.84,3.75,2.05,3.76,2.06,-2.07,-1.69,-1.44,1.68,1.69,1.70
415.96,3.68,1.96,3.68,1.96,-1.96,-1.63,-1.37,1.72,1.71,1.72
420.12,3.60,1.86,3.60,1.86,-1.86,-1.57,-1.30,1.74,1.74,1.74
424.32,3.51,1.76,3.51,1.76,-1.75,-1.50,-1.24,1.76,1.76,1.76
428.56,3.43,1.66,3.43,1.66,-1.65,-1.44,-1.17,1.78,1.78,1.77
432.85,3.35,1.56,3.35,1.56,-1.55,-1.38,-1.11,1.80,1.80,1.79
437.18,3.28,1.46,3.27,1.45,-1.45,-1.31,-1.05,1.83,1.82,1.82
441.55,3.20,1.35,3.20,1.35,-1.36,-1.25,-0.99,1.84,1.83,1.85
445.96,3.11,1.24,3.13,1.25,-1.27,-1.18,-0.93,1.84,1.86,1.87
450.42,3.07,1.18,3.07,1.17,-1.18,-1.11,-0.87,1.89,1.89,1.89
454.93,3.02,1.09,3.02,1.09,-1.09,-1.05,-0.81,1.93,1.93,1.93
459.48,2.97,1.02,2.97,1.01,-1.00,-0.98,-0.76,1.97,1.96,1.95
464.07,2.90,0.92,2.90,0.92,-0.91,-0.90,-0.70,1.99,1.99,1.98
468.71,2.83,0.82,2.83,0.82,-0.82,-0.83,-0.65,2.01,2.02,2.01
473.40,2.76,0.72,2.76,0.72,-0.72,-0.75,-0.60,2.04,2.04,2.04
478.13,2.68,0.61,2.68,0.61,-0.61,-0.67,-0.55,2.07,2.06,2.07
482.91,2.59,0.50,2.59,0.50,-0.50,-0.59,-0.50,2.09,2.09,2.09
487.74,2.50,0.38,2.50,0.39,-0.38,-0.50,-0.45,2.12,2.12,2.12
492.62,2.41,0.26,2.41,0.26,-0.26,-0.41,-0.40,2.15,2.15,2.15
497.55,2.31,0.13,2.31,0.13,-0.13,-0.31,-0.35,2.18,2.18,2.18
502.52,2.19,-0.02,2.20,-0.01,0.01,-0.21,-0.31,2.20,2.20,2.21
507.55,2.08,-0.15,2.08,-0.15,0.15,-0.10,-0.26,2.23,2.23,2.23
512.62,1.96,-0.29,1.96,-0.29,0.29,0.02,-0.22,2.25,2.25,2.25
517.75,1.84,-0.43,1.84,-0.44,0.44,0.15,-0.18,2.28,2.28,2.28
522.93,1.71,-0.59,1.71,-0.59,0.59,0.28,-0.13,2.30,2.30,2.31
528.16,1.58,-0.74,1.58,-0.74,0.74,0.43,-0.09,2.33,2.33,2.32
533.44,1.46,-0.88,1.45,-0.89,0.90,0.58,-0.05,2.36,2.35,2.34
538.77,1.32,-1.05,1.32,-1.05,1.05,0.74,-0.01,2.37,2.38,2.37
544.16,1.20,-1.20,1.20,-1.20,1.21,0.90,0.03,2.41,2.40,2.40
549.60,1.07,-1.36,1.07,-1.36,1.35,1.07,0.07,2.42,2.43,2.43
