frequency,raw,error,smoothed,error_smoothed,equalization,parametric_eq,fixed_band_eq,equalized_raw,equalized_smoothed,target
20.00,2.24,0.23,2.25,0.23,-0.18,-0.72,-0.70,2.06,2.07,2.01
20.20,2.28,0.23,2.28,0.22,-0.20,-0.74,-0.72,2.08,2.07,2.05
20.40,2.32,0.23,2.31,0.22,-0.23,-0.75,-0.74,2.09,2.08,2.09
20.61,2.36,0.25,2.36,0.23,-0.27,-0.77,-0.76,2.10,2.09,2.11
20.81,2.40,0.25,2.40,0.25,-0.30,-0.79,-0.79,2.10,2.10,2.15
21.02,2.45,0.26,2.46,0.28,-0.34,-0.80,-0.81,2.12,2.13,2.19
21.23,2.54,0.34,2.54,0.33,-0.37,-0.82,-0.83,2.17,2.16,2.20
21.44,2.63,0.41,2.63,0.41,-0.42,-0.84,-0.86,2.22,2.21,2.22
21.66,2.72,0.49,2.73,0.50,-0.47,-0.86,-0.88,2.25,2.26,2.23
21.87,2.81,0.58,2.80,0.57,-0.52,-0.88,-0.91,2.29,2.29,2.23
22.09,2.87,0.63,2.86,0.62,-0.57,-0.90,-0.94,2.30,2.29,2.24
22.31,2.88,0.64,2.89,0.65,-0.62,-0.92,-0.97,2.26,2.27,2.24
22.54,2.90,0.66,2.89,0.66,-0.67,-0.94,-1.00,2.23,2.22,2.24
22.76,2.91,0.68,2.91,0.68,-0.73,-0.96,-1.02,2.18,2.18,2.23
22.99,2.93,0.71,2.95,0.73,-0.79,-0.98,-1.06,2.14,2.16,2.22
23.22,3.03,0.81,3.03,0.81,-0.86,-1.01,-1.09,2.17,2.17,2.22
23.45,3.14,0.93,3.14,0.92,-0.93,-1.03,-1.12,2.21,2.21,2.21
23.69,3.24,1.03,3.25,1.04,-1.00,-1.05,-1.15,2.24,2.25,2.21
23.92,3.35,1.14,3.33,1.12,-1.07,-1.08,-1.18,2.28,2.26,2.21
24.16,3.39,1.17,3.39,1.17,-1.13,-1.10,-1.22,2.26,2.26,2.22
24.40,3.41,1.19,3.42,1.20,-1.19,-1.13,-1.25,2.23,2.23,2.22
24.65,3.43,1.22,3.43,1.22,-1.23,-1.15,-1.29,2.21,2.21,2.21
24.89,3.45,1.24,3.45,1.24,-1.26,-1.18,-1.32,2.20,2.19,2.21
25.14,3.47,1.26,3.48,1.27,-1.28,-1.21,-1.36,2.19,2.19,2.21
25.39,3.50,1.30,3.50,1.30,-1.31,-1.24,-1.39,2.19,2.19,2.21
25.65,3.53,1.33,3.52,1.33,-1.35,-1.26,-1.43,2.18,2.18,2.20
25.91,3.55,1.37,3.56,1.37,-1.39,-1.29,-1.47,2.16,2.17,2.19
26.16,3.60,1.42,3.60,1.42,-1.44,-1.32,-1.50,2.16,2.17,2.18
26.43,3.66,1.48,3.67,1.48,-1.48,-1.35,-1.54,2.18,2.18,2.18
26.69,3.73,1.55,3.73,1.55,-1.52,-1.38,-1.58,2.21,2.21,2.18
26.96,3.79,1.62,3.78,1.60,-1.56,-1.42,-1.62,2.23,2.22,2.17
27.23,3.80,1.63,3.80,1.62,-1.59,-1.45,-1.65,2.21,2.20,2.17
27.50,3.79,1.62,3.79,1.62,-1.63,-1.48,-1.69,2.17,2.17,2.17
27.77,3.78,1.62,3.79,1.62,-1.65,-1.51,-1.72,2.13,2.13,2.16
28.05,3.79,1.63,3.80,1.64,-1.67,-1.55,-1.76,2.12,2.12,2.16
28.33,3.83,1.68,3.83,1.68,-1.69,-1.58,-1.79,2.14,2.14,2.15
28.62,3.87,1.72,3.87,1.72,-1.71,-1.62,-1.83,2.16,2.16,2.15
28.90,3.91,1.76,3.90,1.76,-1.73,-1.65,-1.86,2.18,2.17,2.15
29.19,3.93,1.78,3.93,1.78,-1.76,-1.69,-1.89,2.17,2.17,2.15
29.48,3.94,1.79,3.94,1.79,-1.80,-1.73,-1.92,2.14,2.15,2.16
29.78,3.96,1.82,3.96,1.81,-1.84,-1.76,-1.95,2.13,2.12,2.14
30.08,3.98,1.83,3.99,1.84,-1.88,-1.80,-1.97,2.11,2.11,2.15
30.38,4.03,1.90,4.04,1.90,-1.92,-1.84,-2.00,2.12,2.12,2.13
30.68,4.09,1.96,4.09,1.96,-1.95,-1.88,-2.02,2.14,2.13,2.13
30.99,4.14,2.02,4.13,2.00,-1.98,-1.91,-2.04,2.16,2.14,2.12
31.30,4.15,2.03,4.16,2.04,-2.01,-1.95,-2.06,2.14,2.15,2.12
31.61,4.17,2.05,4.18,2.07,-2.03,-1.99,-2.08,2.14,2.15,2.12
31.93,4.19,2.09,4.18,2.08,-2.05,-2.03,-2.10,2.14,2.13,2.10
32.24,4.17,2.09,4.16,2.07,-2.06,-2.07,-2.12,2.11,2.10,2.08
32.57,4.13,2.05,4.13,2.05,-2.08,-2.11,-2.13,2.05,2.05,2.08
32.89,4.10,2.03,4.12,2.05,-2.10,-2.15,-2.14,2.00,2.02,2.07
33.22,4.13,2.08,4.14,2.09,-2.13,-2.19,-2.16,2.00,2.01,2.05
33.55,4.20,2.15,4.19,2.15,-2.17,-2.23,-2.17,2.03,2.03,2.05
33.89,4.27,2.24,4.26,2.23,-2.21,-2.26,-2.17,2.06,2.05,2.03
34.23,4.31,2.29,4.31,2.29,-2.27,-2.30,-2.18,2.04,2.04,2.03
34.57,4.35,2.35,4.35,2.34,-2.33,-2.34,-2.19,2.02,2.02,2.00
34.92,4.38,2.39,4.38,2.39,-2.39,-2.38,-2.20,1.99,2.00,1.99
35.27,4.42,2.43,4.42,2.44,-2.44,-2.41,-2.20,1.98,1.98,1.99
35.62,4.45,2.48,4.45,2.48,-2.48,-2.45,-2.21,1.97,1.98,1.97
35.97,4.49,2.53,4.48,2.52,-2.51,-2.48,-2.22,1.98,1.97,1.96
36.33,4.49,2.54,4.49,2.54,-2.53,-2.52,-2.22,1.96,1.96,1.95
36.70,4.49,2.55,4.49,2.55,-2.55,-2.55,-2.23,1.94,1.95,1.94
37.06,4.49,2.56,4.49,2.55,-2.56,-2.58,-2.23,1.93,1.93,1.93
37.43,4.49,2.55,4.49,2.56,-2.56,-2.61,-2.24,1.93,1.93,1.94
37.81,4.49,2.57,4.49,2.57,-2.57,-2.64,-2.25,1.93,1.93,1.92
38.19,4.49,2.58,4.49,2.57,-2.57,-2.67,-2.26,1.92,1.92,1.91
38.57,4.49,2.57,4.49,2.58,-2.58,-2.70,-2.27,1.91,1.91,1.92
38.95,4.49,2.59,4.49,2.59,-2.60,-2.73,-2.28,1.89,1.89,1.91
39.34,4.51,2.61,4.51,2.61,-2.63,-2.75,-2.29,1.88,1.88,1.90
39.74,4.53,2.64,4.53,2.64,-2.66,-2.78,-2.30,1.87,1.87,1.89
40.14,4.57,2.68,4.58,2.69,-2.70,-2.80,-2.32,1.87,1.88,1.89
40.54,4.63,2.75,4.63,2.74,-2.73,-2.82,-2.33,1.90,1.89,1.88
40.94,4.68,2.80,4.67,2.79,-2.77,-2.84,-2.35,1.91,1.90,1.88
41.35,4.69,2.82,4.69,2.82,-2.80,-2.86,-2.37,1.89,1.89,1.87
41.76,4.69,2.84,4.70,2.84,-2.83,-2.88,-2.39,1.87,1.87,1.85
42.18,4.69,2.84,4.69,2.85,-2.85,-2.90,-2.41,1.84,1.84,1.85
42.60,4.69,2.86,4.69,2.85,-2.87,-2.91,-2.43,1.82,1.82,1.83
43.03,4.69,2.86,4.69,2.87,-2.88,-2.93,-2.46,1.81,1.81,1.83
43.46,4.69,2.89,4.69,2.88,-2.89,-2.94,-2.48,1.80,1.80,1.81
43.90,4.69,2.91,4.69,2.91,-2.91,-2.96,-2.51,1.78,1.78,1.78
44.33,4.69,2.92,4.69,2.93,-2.93,-2.97,-2.54,1.76,1.76,1.77
44.78,4.69,2.95,4.69,2.95,-2.95,-2.98,-2.58,1.75,1.75,1.74
45.23,4.69,2.96,4.69,2.96,-2.96,-3.00,-2.61,1.73,1.73,1.73
45.68,4.69,2.98,4.69,2.98,-2.96,-3.01,-2.65,1.73,1.73,1.71
46.13,4.69,3.00,4.69,3.00,-2.97,-3.02,-2.69,1.72,1.72,1.70
46.60,4.69,3.00,4.69,3.00,-2.98,-3.03,-2.73,1.71,1.71,1.69
47.06,4.69,3.01,4.67,2.98,-3.00,-3.04,-2.77,1.69,1.67,1.68
47.53,4.65,2.97,4.65,2.97,-3.02,-3.06,-2.81,1.63,1.63,1.68
48.01,4.61,2.94,4.66,2.99,-3.04,-3.07,-2.86,1.57,1.62,1.67
48.49,4.70,3.05,4.70,3.04,-3.06,-3.08,-2.90,1.64,1.64,1.66
48.97,4.79,3.15,4.75,3.11,-3.08,-3.09,-2.95,1.71,1.67,1.64
49.46,4.79,3.16,4.80,3.17,-3.11,-3.10,-3.00,1.68,1.68,1.63
49.96,4.79,3.18,4.80,3.17,-3.15,-3.12,-3.05,1.64,1.65,1.61
50.46,4.79,3.16,4.79,3.17,-3.19,-3.13,-3.10,1.60,1.60,1.63
50.96,4.79,3.17,4.80,3.19,-3.22,-3.14,-3.16,1.57,1.58,1.62
51.47,4.83,3.22,4.83,3.22,-3.25,-3.16,-3.21,1.58,1.58,1.61
51.99,4.87,3.27,4.88,3.27,-3.27,-3.17,-3.26,1.60,1.61,1.60
52.51,4.92,3.32,4.92,3.32,-3.28,-3.19,-3.32,1.64,1.64,1.60
53.03,4.96,3.36,4.93,3.33,-3.30,-3.20,-3.37,1.66,1.64,1.60
53.56,4.92,3.33,4.93,3.33,-3.31,-3.22,-3.43,1.61,1.61,1.59
54.10,4.89,3.31,4.91,3.32,-3.32,-3.24,-3.48,1.57,1.58,1.58
54.64,4.89,3.31,4.89,3.31,-3.33,-3.25,-3.54,1.56,1.56,1.58
55.18,4.89,3.32,4.89,3.31,-3.33,-3.27,-3.59,1.56,1.56,1.57
55.74,4.89,3.33,4.89,3.32,-3.33,-3.29,-3.64,1.56,1.56,1.56
56.29,4.89,3.33,4.89,3.34,-3.33,-3.31,-3.69,1.56,1.56,1.56
56.86,4.89,3.35,4.89,3.35,-3.34,-3.33,-3.74,1.55,1.55,1.54
57.42,4.89,3.36,4.89,3.36,-3.35,-3.36,-3.79,1.54,1.54,1.53
58.00,4.89,3.37,4.89,3.37,-3.37,-3.38,-3.83,1.52,1.52,1.52
58.58,4.89,3.39,4.89,3.39,-3.39,-3.40,-3.87,1.50,1.50,1.50
59.16,4.89,3.40,4.89,3.40,-3.41,-3.43,-3.91,1.48,1.48,1.49
59.76,4.89,3.42,4.89,3.42,-3.43,-3.45,-3.94,1.46,1.46,1.47
60.35,4.89,3.45,4.89,3.45,-3.45,-3.48,-3.98,1.44,1.44,1.44
60.96,4.89,3.47,4.89,3.48,-3.48,-3.50,-4.01,1.41,1.41,1.42
61.57,4.89,3.52,4.89,3.51,-3.52,-3.53,-4.03,1.38,1.38,1.37
62.18,4.89,3.55,4.89,3.55,-3.55,-3.56,-4.05,1.34,1.34,1.34
62.80,4.89,3.59,4.89,3.59,-3.59,-3.59,-4.07,1.31,1.31,1.30
63.43,4.89,3.63,4.89,3.63,-3.62,-3.62,-4.09,1.27,1.27,1.27
64.07,4.89,3.66,4.89,3.66,-3.66,-3.65,-4.10,1.23,1.23,1.23
64.71,4.89,3.70,4.89,3.70,-3.70,-3.68,-4.11,1.20,1.20,1.19
65.35,4.89,3.73,4.89,3.73,-3.73,-3.71,-4.11,1.16,1.16,1.16
66.01,4.89,3.77,4.89,3.77,-3.77,-3.74,-4.12,1.12,1.12,1.12
66.67,4.89,3.81,4.89,3.80,-3.80,-3.77,-4.11,1.09,1.09,1.09
67.33,4.89,3.84,4.89,3.84,-3.84,-3.80,-4.11,1.05,1.05,1.06
68.01,4.89,3.88,4.89,3.88,-3.88,-3.83,-4.11,1.01,1.01,1.02
68.69,4.89,3.92,4.89,3.92,-3.92,-3.87,-4.10,0.98,0.98,0.97
69.37,4.89,3.96,4.89,3.96,-3.95,-3.90,-4.09,0.94,0.94,0.93
70.07,4.89,4.00,4.89,4.00,-3.99,-3.93,-4.08,0.90,0.90,0.89
70.77,4.89,4.03,4.89,4.03,-4.04,-3.97,-4.07,0.85,0.85,0.86
71.48,4.89,4.07,4.89,4.08,-4.09,-4.00,-4.06,0.80,0.80,0.82
72.19,4.89,4.12,4.89,4.12,-4.14,-4.03,-4.04,0.75,0.75,0.77
72.91,4.89,4.17,4.89,4.17,-4.19,-4.07,-4.03,0.70,0.70,0.72
73.64,4.89,4.22,4.89,4.21,-4.23,-4.10,-4.02,0.66,0.66,0.67
74.38,4.89,4.26,4.91,4.28,-4.26,-4.14,-4.01,0.63,0.65,0.63
75.12,4.90,4.32,4.92,4.34,-4.28,-4.17,-4.00,0.63,0.65,0.58
75.87,4.96,4.41,4.90,4.36,-4.29,-4.20,-3.99,0.67,0.61,0.55
76.63,4.84,4.33,4.82,4.32,-4.30,-4.24,-3.98,0.54,0.53,0.51
77.40,4.71,4.24,4.74,4.27,-4.30,-4.27,-3.97,0.41,0.43,0.47
78.17,4.62,4.19,4.67,4.23,-4.31,-4.30,-3.97,0.31,0.36,0.43
78.95,4.69,4.29,4.66,4.26,-4.31,-4.33,-3.96,0.38,0.34,0.40
79.74,4.69,4.32,4.68,4.31,-4.32,-4.36,-3.96,0.37,0.36,0.37
80.54,4.69,4.35,4.70,4.35,-4.32,-4.40,-3.97,0.37,0.37,0.34
81.35,4.69,4.38,4.70,4.39,-4.34,-4.43,-3.97,0.35,0.36,0.31
82.16,4.69,4.41,4.69,4.40,-4.37,-4.46,-3.98,0.32,0.32,0.28
82.98,4.69,4.43,4.65,4.40,-4.40,-4.49,-3.99,0.29,0.25,0.26
83.81,4.58,4.36,4.61,4.39,-4.42,-4.51,-4.00,0.16,0.20,0.22
84.65,4.58,4.40,4.60,4.41,-4.43,-4.54,-4.01,0.15,0.17,0.18
85.50,4.61,4.45,4.62,4.46,-4.45,-4.57,-4.03,0.16,0.17,0.16
86.35,4.66,4.53,4.62,4.50,-4.48,-4.59,-4.05,0.18,0.14,0.13
87.22,4.65,4.56,4.60,4.51,-4.52,-4.62,-4.08,0.13,0.09,0.09
88.09,4.50,4.44,4.60,4.54,-4.56,-4.64,-4.11,-0.06,0.04,0.06
88.97,4.62,4.59,4.61,4.58,-4.61,-4.67,-4.14,0.01,-0.00,0.03
89.86,4.68,4.68,4.64,4.65,-4.66,-4.69,-4.17,0.02,-0.01,-0.00
90.76,4.69,4.73,4.70,4.74,-4.71,-4.71,-4.21,-0.01,-0.01,-0.04
91.66,4.70,4.77,4.70,4.77,-4.75,-4.73,-4.25,-0.05,-0.05,-0.07
92.58,4.70,4.80,4.70,4.80,-4.79,-4.75,-4.29,-0.09,-0.09,-0.10
93.51,4.70,4.83,4.70,4.83,-4.83,-4.77,-4.34,-0.12,-0.12,-0.13
94.44,4.70,4.86,4.70,4.86,-4.85,-4.79,-4.39,-0.15,-0.15,-0.16
95.39,4.70,4.89,4.70,4.89,-4.88,-4.80,-4.44,-0.18,-0.18,-0.19
96.34,4.69,4.91,4.69,4.91,-4.90,-4.82,-4.49,-0.21,-0.21,-0.22
97.30,4.67,4.92,4.65,4.91,-4.93,-4.83,-4.55,-0.26,-0.27,-0.25
98.28,4.63,4.91,4.64,4.92,-4.96,-4.84,-4.61,-0.33,-0.32,-0.28
99.26,4.62,4.92,4.66,4.96,-5.00,-4.86,-4.67,-0.38,-0.34,-0.30
100.25,4.72,5.05,4.69,5.02,-5.03,-4.87,-4.74,-0.31,-0.34,-0.33
101.25,4.73,5.09,4.72,5.08,-5.05,-4.88,-4.80,-0.32,-0.33,-0.36
102.27,4.72,5.11,4.73,5.13,-5.07,-4.88,-4.87,-0.35,-0.34,-0.39
103.29,4.70,5.14,4.71,5.14,-5.09,-4.89,-4.94,-0.39,-0.38,-0.44
104.32,4.68,5.14,4.65,5.11,-5.11,-4.90,-5.01,-0.43,-0.46,-0.46
105.37,4.60,5.10,4.58,5.08,-5.12,-4.91,-5.08,-0.51,-0.53,-0.50
106.42,4.48,5.01,4.55,5.07,-5.11,-4.91,-5.15,-0.63,-0.56,-0.52
107.48,4.51,5.08,4.51,5.08,-5.09,-4.91,-5.22,-0.58,-0.58,-0.56
108.56,4.55,5.15,4.48,5.09,-5.07,-4.92,-5.28,-0.52,-0.59,-0.60
109.64,4.43,5.07,4.46,5.10,-5.06,-4.92,-5.35,-0.63,-0.60,-0.64
110.74,4.35,5.02,4.37,5.04,-5.04,-4.92,-5.42,-0.69,-0.67,-0.67
111.85,4.31,5.01,4.26,4.96,-5.01,-4.93,-5.48,-0.70,-0.75,-0.70
112.97,4.15,4.90,4.23,4.97,-4.97,-4.93,-5.54,-0.82,-0.74,-0.75
114.10,4.16,4.93,4.19,4.97,-4.93,-4.93,-5.60,-0.76,-0.73,-0.77
115.24,4.23,5.04,4.12,4.92,-4.88,-4.93,-5.65,-0.65,-0.76,-0.81
116.39,4.02,4.86,4.02,4.85,-4.84,-4.93,-5.70,-0.82,-0.82,-0.83
117.55,3.83,4.69,3.88,4.74,-4.79,-4.93,-5.74,-0.96,-0.91,-0.86
118.73,3.76,4.65,3.80,4.68,-4.75,-4.93,-5.78,-0.99,-0.95,-0.89
119.92,3.80,4.70,3.80,4.71,-4.70,-4.93,-5.82,-0.90,-0.90,-0.90
121.12,3.87,4.79,3.81,4.73,-4.66,-4.93,-5.84,-0.79,-0.85,-0.92
122.33,3.77,4.71,3.74,4.68,-4.63,-4.93,-5.86,-0.86,-0.88,-0.94
123.55,3.63,4.58,3.67,4.62,-4.63,-4.93,-5.88,-0.99,-0.96,-0.95
124.79,3.55,4.52,3.61,4.57,-4.64,-4.93,-5.89,-1.09,-1.04,-0.97
126.03,3.65,4.64,3.60,4.59,-4.67,-4.94,-5.89,-1.02,-1.07,-0.99
127.29,3.66,4.66,3.64,4.64,-4.70,-4.94,-5.88,-1.04,-1.06,-1.00
128.57,3.67,4.70,3.72,4.74,-4.72,-4.94,-5.87,-1.05,-1.00,-1.02
129.85,3.76,4.80,3.79,4.83,-4.75,-4.94,-5.85,-0.99,-0.96,-1.04
131.15,3.92,4.97,3.84,4.89,-4.79,-4.95,-5.82,-0.87,-0.95,-1.05
132.46,3.83,4.89,3.82,4.88,-4.84,-4.95,-5.79,-1.01,-1.02,-1.06
133.79,3.75,4.82,3.77,4.84,-4.88,-4.96,-5.76,-1.13,-1.11,-1.07
135.12,3.67,4.77,3.75,4.83,-4.92,-4.97,-5.71,-1.24,-1.17,-1.10
136.48,3.82,4.92,3.79,4.90,-4.95,-4.97,-5.67,-1.13,-1.15,-1.10
137.84,3.90,5.02,3.86,4.99,-4.98,-4.98,-5.62,-1.08,-1.12,-1.12
139.22,3.91,5.06,3.91,5.06,-5.02,-4.99,-5.57,-1.10,-1.10,-1.15
140.61,3.91,5.08,3.91,5.06,-5.05,-5.00,-5.51,-1.14,-1.15,-1.17
142.02,3.91,5.08,3.94,5.12,-5.10,-5.02,-5.45,-1.19,-1.15,-1.17
143.44,3.95,5.13,3.99,5.18,-5.15,-5.03,-5.39,-1.20,-1.15,-1.18
144.87,4.10,5.31,3.99,5.20,-5.20,-5.05,-5.33,-1.10,-1.20,-1.21
146.32,3.99,5.23,3.99,5.22,-5.24,-5.07,-5.27,-1.25,-1.26,-1.24
147.78,3.88,5.14,3.99,5.25,-5.29,-5.09,-5.20,-1.41,-1.31,-1.26
149.26,4.02,5.32,4.00,5.30,-5.36,-5.11,-5.14,-1.33,-1.36,-1.30
150.75,4.11,5.46,4.06,5.41,-5.43,-5.13,-5.08,-1.32,-1.36,-1.35
152.26,4.11,5.51,4.12,5.52,-5.50,-5.15,-5.02,-1.39,-1.38,-1.40
153.78,4.11,5.56,4.12,5.57,-5.57,-5.18,-4.96,-1.46,-1.45,-1.45
155.32,4.11,5.63,4.11,5.62,-5.63,-5.21,-4.90,-1.52,-1.52,-1.52
156.88,4.11,5.68,4.13,5.71,-5.68,-5.23,-4.85,-1.57,-1.55,-1.57
158.44,4.11,5.75,4.11,5.75,-5.71,-5.26,-4.79,-1.60,-1.60,-1.64
160.03,4.11,5.81,4.04,5.74,-5.69,-5.30,-4.74,-1.58,-1.65,-1.70
161.63,3.90,5.65,3.95,5.71,-5.65,-5.33,-4.69,-1.75,-1.70,-1.75
163.24,3.81,5.62,3.85,5.65,-5.59,-5.36,-4.64,-1.78,-1.74,-1.81
164.88,3.76,5.60,3.71,5.56,-5.54,-5.40,-4.60,-1.78,-1.83,-1.84
166.53,3.62,5.50,3.60,5.48,-5.51,-5.44,-4.56,-1.89,-1.91,-1.88
168.19,3.43,5.34,3.45,5.36,-5.49,-5.48,-4.52,-2.06,-2.04,-1.91
169.87,3.38,5.32,3.37,5.31,-5.48,-5.51,-4.49,-2.10,-2.11,-1.94
171.57,3.33,5.29,3.45,5.40,-5.47,-5.55,-4.46,-2.14,-2.02,-1.96
173.29,3.61,5.57,3.60,5.56,-5.48,-5.59,-4.43,-1.87,-1.88,-1.96
175.02,3.83,5.80,3.70,5.67,-5.51,-5.63,-4.41,-1.68,-1.81,-1.97
176.77,3.71,5.69,3.69,5.67,-5.55,-5.67,-4.39,-1.84,-1.86,-1.98
178.54,3.54,5.52,3.61,5.58,-5.60,-5.71,-4.37,-2.06,-1.99,-1.98
180.32,3.50,5.47,3.57,5.54,-5.65,-5.75,-4.36,-2.14,-2.08,-1.97
182.13,3.65,5.61,3.63,5.59,-5.68,-5.79,-4.35,-2.03,-2.05,-1.96
183.95,3.78,5.75,3.73,5.69,-5.71,-5.82,-4.34,-1.93,-1.98,-1.97
185.79,3.79,5.76,3.80,5.77,-5.73,-5.86,-4.34,-1.94,-1.93,-1.97
187.65,3.81,5.79,3.82,5.80,-5.76,-5.89,-4.34,-1.95,-1.95,-1.98
189.52,3.82,5.81,3.82,5.81,-5.80,-5.92,-4.34,-1.97,-1.98,-1.99
191.42,3.83,5.83,3.84,5.84,-5.82,-5.94,-4.34,-1.99,-1.98,-2.00
193.33,3.85,5.86,3.86,5.87,-5.83,-5.97,-4.35,-1.98,-1.97,-2.01
195.27,3.87,5.89,3.85,5.88,-5.84,-5.98,-4.36,-1.96,-1.99,-2.02
197.22,3.83,5.87,3.79,5.83,-5.84,-6.00,-4.37,-2.01,-2.05,-2.04
199.19,3.70,5.76,3.73,5.79,-5.84,-6.00,-4.39,-2.14,-2.11,-2.06
201.18,3.65,5.73,3.70,5.78,-5.86,-6.00,-4.41,-2.21,-2.15,-2.07
203.19,3.74,5.83,3.73,5.82,-5.87,-6.00,-4.43,-2.13,-2.14,-2.08
205.23,3.81,5.93,3.78,5.88,-5.88,-5.99,-4.45,-2.07,-2.10,-2.11
207.28,3.81,5.93,3.82,5.94,-5.88,-5.97,-4.47,-2.07,-2.07,-2.11
209.35,3.80,5.94,3.81,5.95,-5.89,-5.94,-4.49,-2.09,-2.08,-2.14
211.44,3.79,5.95,3.78,5.93,-5.89,-5.91,-4.51,-2.10,-2.12,-2.16
213.56,3.72,5.89,3.72,5.89,-5.89,-5.87,-4.53,-2.17,-2.17,-2.17
215.69,3.66,5.84,3.66,5.84,-5.87,-5.82,-4.55,-2.21,-2.21,-2.18
217.85,3.59,5.78,3.62,5.81,-5.84,-5.77,-4.57,-2.25,-2.23,-2.19
220.03,3.59,5.80,3.59,5.79,-5.81,-5.70,-4.59,-2.21,-2.22,-2.20
222.23,3.58,5.79,3.55,5.76,-5.76,-5.63,-4.61,-2.18,-2.21,-2.21
224.45,3.51,5.71,3.53,5.73,-5.72,-5.56,-4.62,-2.21,-2.19,-2.20
226.70,3.46,5.66,3.49,5.69,-5.68,-5.47,-4.63,-2.22,-2.19,-2.20
228.96,3.48,5.67,3.43,5.62,-5.63,-5.38,-4.63,-2.14,-2.20,-2.19
231.25,3.37,5.55,3.39,5.58,-5.57,-5.28,-4.64,-2.19,-2.17,-2.18
233.57,3.30,5.47,3.33,5.49,-5.49,-5.17,-4.63,-2.19,-2.16,-2.17
235.90,3.30,5.45,3.24,5.39,-5.40,-5.06,-4.62,-2.10,-2.16,-2.15
238.26,3.13,5.26,3.18,5.31,-5.30,-4.95,-4.61,-2.17,-2.12,-2.13
240.64,3.09,5.19,3.09,5.19,-5.18,-4.83,-4.59,-2.09,-2.09,-2.10
243.05,3.01,5.08,2.98,5.05,-5.05,-4.70,-4.56,-2.04,-2.06,-2.07
245.48,2.86,4.90,2.87,4.91,-4.90,-4.57,-4.53,-2.04,-2.03,-2.04
247.93,2.73,4.75,2.73,4.75,-4.74,-4.44,-4.49,-2.01,-2.02,-2.02
250.41,2.55,4.55,2.58,4.57,-4.57,-4.30,-4.44,-2.02,-2.00,-2.00
252.92,2.44,4.41,2.42,4.39,-4.39,-4.16,-4.38,-1.95,-1.97,-1.97
255.45,2.26,4.20,2.25,4.20,-4.21,-4.02,-4.32,-1.95,-1.95,-1.94
258.00,2.07,4.00,2.09,4.02,-4.02,-3.88,-4.25,-1.95,-1.92,-1.93
260.58,1.92,3.83,1.92,3.83,-3.83,-3.73,-4.17,-1.90,-1.91,-1.91
263.19,1.77,3.66,1.75,3.64,-3.64,-3.58,-4.09,-1.87,-1.88,-1.88
265.82,1.58,3.45,1.58,3.45,-3.46,-3.43,-3.99,-1.88,-1.88,-1.87
268.48,1.41,3.25,1.41,3.25,-3.28,-3.28,-3.90,-1.87,-1.87,-1.84
271.16,1.24,3.06,1.27,3.09,-3.11,-3.13,-3.79,-1.87,-1.84,-1.82
273.87,1.14,2.94,1.12,2.92,-2.94,-2.97,-3.68,-1.80,-1.81,-1.80
276.61,1.02,2.79,0.98,2.76,-2.75,-2.82,-3.57,-1.73,-1.77,-1.77
279.38,0.79,2.54,0.87,2.62,-2.55,-2.66,-3.45,-1.76,-1.69,-1.75
282.17,0.72,2.45,0.69,2.41,-2.35,-2.51,-3.33,-1.63,-1.66,-1.73
284.99,0.57,2.26,0.48,2.17,-2.14,-2.35,-3.20,-1.57,-1.66,-1.69
287.84,0.20,1.86,0.30,1.96,-1.93,-2.19,-3.07,-1.73,-1.63,-1.66
290.72,0.06,1.69,0.08,1.71,-1.72,-2.03,-2.94,-1.66,-1.64,-1.63
293.63,-0.04,1.56,-0.12,1.47,-1.53,-1.87,-2.80,-1.57,-1.65,-1.60
296.57,-0.29,1.27,-0.28,1.29,-1.36,-1.71,-2.66,-1.65,-1.64,-1.56
299.53,-0.44,1.10,-0.36,1.18,-1.23,-1.55,-2.52,-1.66,-1.59,-1.54
302.53,-0.45,1.07,-0.43,1.08,-1.13,-1.38,-2.38,-1.58,-1.56,-1.52
305.55,-0.33,1.15,-0.47,1.02,-1.06,-1.22,-2.24,-1.39,-1.53,-1.48
308.61,-0.55,0.91,-0.47,0.99,-1.01,-1.05,-2.09,-1.56,-1.47,-1.46
311.69,-0.53,0.91,-0.46,0.97,-0.96,-0.88,-1.94,-1.48,-1.42,-1.44
314.81,-0.41,1.00,-0.47,0.94,-0.90,-0.71,-1.80,-1.30,-1.37,-1.40
317.96,-0.46,0.94,-0.49,0.90,-0.81,-0.54,-1.65,-1.27,-1.31,-1.40
321.14,-0.61,0.77,-0.60,0.77,-0.71,-0.37,-1.50,-1.31,-1.31,-1.38
324.35,-0.82,0.55,-0.77,0.60,-0.57,-0.19,-1.35,-1.39,-1.34,-1.37
327.59,-0.95,0.40,-0.98,0.38,-0.41,-0.02,-1.21,-1.35,-1.38,-1.35
330.87,-1.14,0.20,-1.18,0.17,-0.20,0.16,-1.06,-1.34,-1.38,-1.34
334.18,-1.44,-0.10,-1.37,-0.04,0.02,0.35,-0.91,-1.42,-1.35,-1.33
337.52,-1.57,-0.24,-1.58,-0.26,0.27,0.53,-0.76,-1.30,-1.32,-1.33
340.90,-1.78,-0.47,-1.81,-0.50,0.52,0.72,-0.61,-1.26,-1.28,-1.31
344.30,-2.05,-0.75,-2.06,-0.76,0.79,0.91,-0.46,-1.26,-1.27,-1.30
347.75,-2.36,-1.07,-2.36,-1.07,1.07,1.10,-0.31,-1.29,-1.29,-1.29
351.23,-2.67,-1.39,-2.63,-1.35,1.35,1.30,-0.17,-1.32,-1.29,-1.28
354.74,-2.89,-1.61,-2.88,-1.60,1.62,1.50,-0.02,-1.27,-1.26,-1.28
358.28,-3.09,-1.82,-3.12,-1.85,1.87,1.70,0.13,-1.22,-1.25,-1.27
361.87,-3.38,-2.10,-3.40,-2.13,2.10,1.90,0.28,-1.28,-1.30,-1.28
365.49,-3.66,-2.39,-3.67,-2.40,2.30,2.10,0.43,-1.36,-1.37,-1.27
369.14,-3.94,-2.67,-3.85,-2.58,2.48,2.31,0.58,-1.46,-1.37,-1.27
372.83,-3.96,-2.69,-3.93,-2.67,2.64,2.51,0.73,-1.32,-1.29,-1.27
376.56,-3.91,-2.64,-3.98,-2.72,2.77,2.71,0.88,-1.14,-1.21,-1.27
380.33,-4.02,-2.77,-4.07,-2.81,2.89,2.91,1.03,-1.13,-1.18,-1.25
384.13,-4.25,-2.99,-4.22,-2.96,2.99,3.11,1.17,-1.26,-1.23,-1.26
387.97,-4.43,-3.17,-4.38,-3.12,3.09,3.30,1.32,-1.34,-1.29,-1.26
391.85,-4.49,-3.23,-4.50,-3.24,3.20,3.48,1.47,-1.29,-1.30,-1.26
395.77,-4.56,-3.31,-4.58,-3.32,3.33,3.66,1.62,-1.23,-1.25,-1.25
399.73,-4.68,-3.42,-4.68,-3.42,3.48,3.83,1.76,-1.20,-1.20,-1.25
403.72,-4.82,-3.55,-4.83,-3.57,3.63,3.98,1.91,-1.19,-1.19,-1.26
407.76,-5.02,-3.75,-5.01,-3.75,3.78,4.13,2.05,-1.24,-1.23,-1.27
411.84,-5.19,-3.93,-5.21,-3.95,3.92,4.25,2.20,-1.27,-1.29,-1.26
415.96,-5.41,-4.14,-5.38,-4.12,4.06,4.36,2.34,-1.35,-1.32,-1.27
420.12,-5.52,-4.25,-5.50,-4.23,4.21,4.45,2.48,-1.31,-1.29,-1.27
424.32,-5.56,-4.30,-5.58,-4.31,4.34,4.52,2.61,-1.22,-1.24,-1.26
428.56,-5.62,-4.36,-5.65,-4.39,4.44,4.57,2.75,-1.18,-1.21,-1.26
432.85,-5.71,-4.47,-5.72,-4.48,4.49,4.60,2.88,-1.21,-1.22,-1.24
437.18,-5.80,-4.58,-5.75,-4.53,4.50,4.61,3.00,-1.30,-1.25,-1.22
441.55,-5.73,-4.55,-5.75,-4.56,4.45,4.60,3.13,-1.28,-1.30,-1.18
445.96,-5.62,-4.47,-5.66,-4.51,4.38,4.57,3.24,-1.24,-1.28,-1.15
450.42,-5.55,-4.43,-5.45,-4.34,4.28,4.53,3.35,-1.27,-1.17,-1.12
454.93,-5.21,-4.15,-5.20,-4.13,4.16,4.46,3.46,-1.05,-1.03,-1.06
459.48,-4.86,-3.84,-4.96,-3.95,4.03,4.39,3.56,-0.83,-0.94,-1.02
464.07,-4.74,-3.78,-4.75,-3.78,3.89,4.30,3.65,-0.85,-0.86,-0.96
468.71,-4.70,-3.79,-4.62,-3.71,3.76,4.20,3.74,-0.94,-0.86,-0.91
473.40,-4.49,-3.63,-4.54,-3.68,3.65,4.09,3.81,-0.84,-0.89,-0.86
478.13,-4.43,-3.62,-4.41,-3.60,3.59,3.97,3.88,-0.83,-0.82,-0.81
482.91,-4.34,-3.57,-4.29,-3.52,3.57,3.85,3.94,-0.77,-0.72,-0.77
487.74,-4.16,-3.44,-4.25,-3.52,3.57,3.73,3.99,-0.59,-0.68,-0.72
492.62,-4.22,-3.53,-4.19,-3.50,3.55,3.60,4.03,-0.67,-0.64,-0.68
497.55,-4.23,-3.57,-4.20,-3.54,3.53,3.48,4.06,-0.70,-0.67,-0.65
