frequency,raw
20.00,-5.61
20.20,-5.54
20.40,-5.49
20.61,-5.42
20.81,-5.37
21.02,-5.30
21.23,-5.23
21.44,-5.14
21.66,-5.06
21.87,-4.97
22.09,-4.89
22.31,-4.82
22.54,-4.74
22.76,-4.66
22.99,-4.59
23.22,-4.51
23.45,-4.44
23.69,-4.36
23.92,-4.29
24.16,-4.22
24.40,-4.14
24.65,-4.06
24.89,-3.97
25.14,-3.89
25.39,-3.79
25.65,-3.69
25.91,-3.59
26.16,-3.53
26.43,-3.49
26.69,-3.44
26.96,-3.39
27.23,-3.30
27.50,-3.20
27.77,-3.11
28.05,-3.01
28.33,-2.92
28.62,-2.83
28.90,-2.74
29.19,-2.66
29.48,-2.58
29.78,-2.50
30.08,-2.42
30.38,-2.36
30.68,-2.29
30.99,-2.22
31.30,-2.15
31.61,-2.09
31.93,-2.03
32.24,-1.96
32.57,-1.89
32.89,-1.81
33.22,-1.73
33.55,-1.62
33.89,-1.53
34.23,-1.43
34.57,-1.35
34.92,-1.27
35.27,-1.19
35.62,-1.13
35.97,-1.07
36.33,-1.00
36.70,-0.93
37.06,-0.86
37.43,-0.80
37.81,-0.73
38.19,-0.68
38.57,-0.62
38.95,-0.57
39.34,-0.47
39.74,-0.37
40.14,-0.28
40.54,-0.18
40.94,-0.07
41.35,-0.05
41.76,-0.05
42.18,-0.02
42.60,0.06
43.03,0.13
43.46,0.24
43.90,0.34
44.33,0.42
44.78,0.50
45.23,0.54
45.68,0.55
46.13,0.57
46.60,0.65
47.06,0.71
47.53,0.72
48.01,0.72
48.49,0.82
48.97,0.91
49.46,1.01
49.96,1.09
50.46,1.09
50.96,1.07
51.47,1.12
51.99,1.17
52.51,1.19
53.03,1.22
53.56,1.32
54.10,1.41
54.64,1.40
55.18,1.39
55.74,1.37
56.29,1.43
56.86,1.56
57.42,1.57
58.00,1.55
58.58,1.65
59.16,1.74
59.76,1.78
60.35,1.80
60.96,1.80
61.57,1.87
62.18,1.95
62.80,2.03
63.43,2.08
64.07,2.11
64.71,2.13
65.35,2.20
66.01,2.28
66.67,2.37
67.33,2.41
68.01,2.43
68.69,2.43
69.37,2.48
70.07,2.58
70.77,2.58
71.48,2.64
72.19,2.70
72.91,2.72
73.64,2.72
74.38,2.73
75.12,2.73
75.87,2.74
76.63,2.84
77.40,2.90
78.17,2.92
78.95,2.93
79.74,2.95
80.54,2.95
81.35,2.97
82.16,3.01
82.98,3.14
83.81,3.20
84.65,3.22
85.50,3.23
86.35,3.24
87.22,3.25
88.09,3.26
88.97,3.27
89.86,3.27
90.76,3.36
91.66,3.39
92.58,3.40
93.51,3.41
94.44,3.41
95.39,3.40
96.34,3.41
97.30,3.41
98.28,3.40
99.26,3.39
100.25,3.37
101.25,3.35
102.27,3.35
103.29,3.35
104.32,3.34
105.37,3.33
106.42,3.30
107.48,3.23
108.56,3.15
109.64,3.08
110.74,3.05
111.85,3.04
112.97,3.04
114.10,3.02
115.24,3.00
116.39,2.88
117.55,2.81
118.73,2.80
119.92,2.72
121.12,2.67
122.33,2.60
123.55,2.56
124.79,2.48
126.03,2.34
127.29,2.32
128.57,2.30
129.85,2.29
131.15,2.22
132.46,2.18
133.79,2.16
135.12,2.08
136.48,2.02
137.84,1.94
139.22,1.92
140.61,1.92
142.02,1.91
143.44,1.84
144.87,1.81
146.32,1.82
147.78,1.89
149.26,1.97
150.75,2.06
152.26,2.18
153.78,2.29
155.32,2.38
156.88,2.51
158.44,2.57
160.03,2.60
161.63,2.54
163.24,2.42
164.88,2.25
166.53,2.07
168.19,1.87
169.87,1.65
171.57,1.58
173.29,1.56
175.02,1.54
176.77,1.64
178.54,1.47
180.32,1.40
182.13,1.40
183.95,1.45
185.79,1.31
187.65,1.07
189.52,0.98
191.42,1.05
193.33,1.12
195.27,0.95
197.22,0.86
199.19,0.88
201.18,0.72
203.19,0.48
205.23,0.37
207.28,0.30
209.35,0.35
211.44,0.40
213.56,0.34
215.69,0.28
217.85,0.23
220.03,0.22
222.23,0.23
224.45,0.23
226.70,0.15
228.96,0.10
231.25,0.21
233.57,0.30
235.90,0.40
238.26,0.46
240.64,0.47
243.05,0.49
245.48,0.51
247.93,0.43
250.41,0.41
252.92,0.43
255.45,0.35
258.00,0.24
260.58,0.18
263.19,0.05
265.82,-0.05
268.48,-0.18
271.16,-0.24
273.87,-0.26
276.61,-0.37
279.38,-0.53
282.17,-0.65
284.99,-0.77
287.84,-0.91
290.72,-1.10
293.63,-1.24
296.57,-1.34
299.53,-1.47
302.53,-1.60
305.55,-1.69
308.61,-1.81
311.69,-1.94
314.81,-2.02
317.96,-2.07
321.14,-2.10
324.35,-2.17
327.59,-2.22
330.87,-2.30
334.18,-2.36
337.52,-2.40
340.90,-2.50
344.30,-2.48
347.75,-2.44
351.23,-2.46
354.74,-2.49
358.28,-2.47
361.87,-2.52
365.49,-2.55
369.14,-2.52
372.83,-2.48
376.56,-2.54
380.33,-2.56
384.13,-2.54
387.97,-2.59
391.85,-2.60
395.77,-2.61
399.73,-2.65
403.72,-2.76
407.76,-2.84
411.84,-2.86
415.96,-2.92
420.12,-2.94
424.32,-2.92
428.56,-2.97
432.85,-2.94
437.18,-2.87
441.55,-2.87
445.96,-2.85
450.42,-2.83
454.93,-2.69
459.48,-2.64
464.07,-2.64
468.71,-2.52
473.40,-2.46
478.13,-2.53
482.91,-2.44
487.74,-2.37
492.62,-2.34
497.55,-2.33
502.52,-2.32
507.55,-2.30
512.62,-2.27
517.75,-2.35
522.93,-2.37
528.16,-2.30
533.44,-2.25
538.77,-2.23
544.16,-2.21
549.60,-2.19
555.10,-2.18
560.65,-2.19
566.25,-2.19
571.92,-2.07
577.64,-1.97
583.41,-1.91
589.25,-1.98
595.14,-1.99
601.09,-1.97
607.10,-1.94
613.17,-1.81
619.30,-1.76
625.50,-1.78
631.75,-1.78
638.07,-1.78
644.45,-1.80
650.89,-1.79
657.40,-1.68
663.98,-1.66
670.62,-1.63
677.32,-1.52
684.10,-1.41
690.94,-1.37
697.85,-1.26
704.83,-1.23
711.87,-1.22
718.99,-1.22
726.18,-1.16
733.44,-1.09
740.78,-1.01
748.19,-0.94
755.67,-0.87
763.23,-0.86
770.86,-0.81
778.57,-0.75
786.35,-0.73
794.22,-0.70
802.16,-0.62
810.18,-0.55
818.28,-0.55
826.46,-0.59
834.73,-0.53
843.08,-0.52
851.51,-0.54
860.02,-0.48
868.62,-0.48
877.31,-0.42
886.08,-0.42
894.94,-0.42
903.89,-0.36
912.93,-0.31
922.06,-0.28
931.28,-0.29
940.59,-0.21
950.00,-0.18
959.50,-0.20
969.09,-0.19
978.78,-0.02
988.57,0.06
998.46,0.08
1008.44,0.10
1018.53,0.13
1028.71,0.16
1039.00,0.30
1049.39,0.37
1059.88,0.42
1070.48,0.46
1081.19,0.47
1092.00,0.44
1102.92,0.48
1113.95,0.54
1125.09,0.54
1136.34,0.54
1147.70,0.50
1159.18,0.50
1170.77,0.44
1182.48,0.41
1194.30,0.38
1206.25,0.41
1218.31,0.41
1230.49,0.40
1242.80,0.40
1255.22,0.39
1267.78,0.37
1280.45,0.33
1293.26,0.32
1306.19,0.34
1319.25,0.35
1332.45,0.34
1345.77,0.34
1359.23,0.31
1372.82,0.25
1386.55,0.25
1400.41,0.23
1414.42,0.16
1428.56,0.09
1442.85,0.05
1457.28,-0.04
1471.85,-0.10
1486.57,-0.13
1501.43,-0.21
1516.45,-0.27
1531.61,-0.29
1546.93,-0.31
1562.40,-0.14
1578.02,0.07
1593.80,0.37
1609.74,0.95
1625.84,1.37
1642.10,1.73
1658.52,2.13
1675.10,2.41
1691.85,2.55
1708.77,2.64
1725.86,2.72
1743.12,2.75
1760.55,2.80
1778.15,2.86
1795.94,2.91
1813.90,2.96
1832.03,2.98
1850.36,3.07
1868.86,3.12
1887.55,3.22
1906.42,3.29
1925.49,3.34
1944.74,3.40
1964.19,3.51
1983.83,3.57
2003.67,3.66
2023.71,3.66
2043.94,3.71
2064.38,3.69
2085.03,3.70
2105.88,3.78
2126.94,3.91
2148.20,3.99
2169.69,4.03
2191.38,4.06
2213.30,4.13
2235.43,4.27
2257.78,4.38
2280.36,4.47
2303.17,4.59
2326.20,4.74
2349.46,4.92
2372.95,5.10
2396.68,5.27
2420.65,5.42
2444.86,5.48
2469.31,5.57
2494.00,5.71
2518.94,5.89
2544.13,6.06
2569.57,6.33
2595.27,6.64
2621.22,6.92
2647.43,7.13
2673.90,7.26
2700.64,7.36
2727.65,7.47
2754.93,7.51
2782.48,7.56
2810.30,7.58
2838.40,7.64
2866.79,7.66
2895.46,7.70
2924.41,7.68
2953.65,7.66
2983.19,7.70
3013.02,7.70
3043.15,7.81
3073.58,7.83
3104.32,7.77
3135.36,7.72
3166.72,7.75
3198.38,7.80
3230.37,7.82
3262.67,7.71
3295.30,7.60
3328.25,7.54
3361.53,7.50
3395.15,7.42
3429.10,7.34
3463.39,7.28
3498.03,7.24
3533.01,7.22
3568.34,7.15
3604.02,6.97
3640.06,6.91
3676.46,6.91
3713.22,6.82
3750.36,6.66
3787.86,6.54
3825.74,6.51
3864.00,6.73
3902.64,6.95
3941.66,7.06
3981.08,7.01
4020.89,7.09
4061.10,7.30
4101.71,7.29
4142.73,7.21
4184.15,7.24
4226.00,7.20
4268.26,7.00
4310.94,6.88
4354.05,6.80
4397.59,6.86
4441.56,7.09
4485.98,7.23
4530.84,7.41
4576.15,7.47
4621.91,7.43
4668.13,7.19
4714.81,7.07
4761.96,7.04
4809.58,6.90
4857.67,6.81
4906.25,6.80
4955.31,6.75
5004.87,6.63
5054.91,6.56
5105.46,6.52
5156.52,6.24
5208.08,6.05
5260.16,6.08
5312.77,6.11
5365.89,6.18
5419.55,6.15
5473.75,6.00
5528.49,5.85
5583.77,5.57
5639.61,5.23
5696.00,4.91
5752.96,4.43
5810.49,4.34
5868.60,4.35
5927.28,3.91
5986.56,3.54
6046.42,3.20
6106.89,3.09
6167.96,2.62
6229.64,2.02
6291.93,1.59
6354.85,1.52
6418.40,1.52
6482.58,1.20
6547.41,0.85
6612.88,0.49
6679.01,-0.03
6745.80,-0.13
6813.26,-0.11
6881.39,-0.16
6950.21,-0.33
7019.71,-0.63
7089.91,-0.97
7160.81,-1.00
7232.41,-1.08
7304.74,-1.20
7377.79,-1.17
7451.56,-0.81
7526.08,-0.14
7601.34,0.27
7677.35,0.49
7754.13,0.68
7831.67,0.81
7909.98,1.15
7989.08,1.89
8068.98,2.73
8149.67,3.43
8231.16,4.11
8313.47,4.75
8396.61,4.75
8480.57,4.68
8565.38,3.55
8651.03,2.19
8737.54,0.16
8824.92,0.19
8913.17,-0.05
9002.30,-1.22
9092.32,-2.18
9183.25,-2.73
9275.08,-2.68
9367.83,-3.10
9461.51,-3.30
9556.12,-2.72
9651.68,-2.02
9748.20,-2.17
9845.68,-2.96
9944.14,-3.18
10043.58,-3.02
10144.02,-2.96
10245.46,-2.87
10347.91,-2.86
10451.39,-3.32
10555.91,-3.43
10661.46,-3.39
10768.08,-4.18
10875.76,-4.60
10984.52,-4.74
11094.36,-5.01
11205.31,-5.34
11317.36,-6.11
11430.53,-6.62
11544.84,-8.76
11660.29,-10.56
11776.89,-12.61
11894.66,-13.92
12013.60,-13.21
12133.74,-12.42
12255.08,-12.53
12377.63,-13.39
12501.41,-13.54
12626.42,-12.13
12752.68,-9.97
12880.21,-8.84
13009.01,-8.36
13139.10,-8.32
13270.49,-8.38
13403.20,-8.40
13537.23,-9.18
13672.60,-9.04
13809.33,-8.92
13947.42,-8.03
14086.90,-7.92
14227.77,-7.78
14370.04,-8.87
14513.74,-10.76
14658.88,-12.69
14805.47,-14.56
14953.52,-16.72
15103.06,-17.71
15254.09,-16.84
15406.63,-12.18
15560.70,-11.34
15716.30,-11.28
15873.47,-10.72
16032.20,-10.54
16192.52,-10.34
16354.45,-10.29
16517.99,-9.39
16683.17,-8.72
16850.01,-8.59
17018.51,-8.39
17188.69,-8.23
17360.58,-8.39
17534.18,-8.31
17709.53,-8.19
17886.62,-8.32
18065.49,-8.61
18246.14,-9.49
18428.60,-11.24
18612.89,-12.62
18799.02,-13.71
18987.01,-13.50
19176.88,-14.35
19368.65,-15.44
19562.33,-15.87
19757.96,-17.54
19955.54,-18.55
