frequency,raw
20.00,4.52
20.20,4.53
20.40,4.53
20.61,4.53
20.81,4.53
21.02,4.53
21.23,4.53
21.44,4.53
21.66,4.52
21.87,4.51
22.09,4.51
22.31,4.50
22.54,4.48
22.76,4.47
22.99,4.45
23.22,4.44
23.45,4.43
23.69,4.42
23.92,4.40
24.16,4.38
24.40,4.36
24.65,4.34
24.89,4.32
25.14,4.31
25.39,4.29
25.65,4.27
25.91,4.26
26.16,4.23
26.43,4.21
26.69,4.19
26.96,4.16
27.23,4.15
27.50,4.12
27.77,4.10
28.05,4.09
28.33,4.06
28.62,4.04
28.90,4.03
29.19,4.00
29.48,3.98
29.78,3.95
30.08,3.93
30.38,3.92
30.68,3.90
30.99,3.88
31.30,3.85
31.61,3.83
31.93,3.81
32.24,3.78
32.57,3.76
32.89,3.74
33.22,3.71
33.55,3.69
33.89,3.66
34.23,3.64
34.57,3.63
34.92,3.60
35.27,3.58
35.62,3.57
35.97,3.54
36.33,3.51
36.70,3.48
37.06,3.45
37.43,3.43
37.81,3.40
38.19,3.37
38.57,3.35
38.95,3.32
39.34,3.30
39.74,3.27
40.14,3.25
40.54,3.22
40.94,3.19
41.35,3.17
41.76,3.14
42.18,3.12
42.60,3.08
43.03,3.04
43.46,3.00
43.90,2.97
44.33,2.94
44.78,2.91
45.23,2.89
45.68,2.86
46.13,2.83
46.60,2.80
47.06,2.77
47.53,2.74
48.01,2.70
48.49,2.66
48.97,2.62
49.46,2.59
49.96,2.56
50.46,2.53
50.96,2.50
51.47,2.46
51.99,2.43
52.51,2.39
53.03,2.35
53.56,2.31
54.10,2.27
54.64,2.24
55.18,2.21
55.74,2.18
56.29,2.13
56.86,2.08
57.42,2.04
58.00,1.99
58.58,1.95
59.16,1.91
59.76,1.86
60.35,1.83
60.96,1.79
61.57,1.76
62.18,1.72
62.80,1.68
63.43,1.64
64.07,1.61
64.71,1.57
65.35,1.53
66.01,1.49
66.67,1.44
67.33,1.40
68.01,1.36
68.69,1.33
69.37,1.30
70.07,1.28
70.77,1.24
71.48,1.20
72.19,1.16
72.91,1.12
73.64,1.08
74.38,1.03
75.12,1.01
75.87,0.97
76.63,0.93
77.40,0.89
78.17,0.84
78.95,0.81
79.74,0.80
80.54,0.77
81.35,0.75
82.16,0.73
82.98,0.71
83.81,0.69
84.65,0.67
85.50,0.66
86.35,0.66
87.22,0.66
88.09,0.67
88.97,0.68
89.86,0.68
90.76,0.68
91.66,0.68
92.58,0.68
93.51,0.68
94.44,0.68
95.39,0.68
96.34,0.68
97.30,0.67
98.28,0.68
99.26,0.69
100.25,0.69
101.25,0.69
102.27,0.68
103.29,0.67
104.32,0.64
105.37,0.61
106.42,0.58
107.48,0.54
108.56,0.50
109.64,0.46
110.74,0.43
111.85,0.39
112.97,0.35
114.10,0.34
115.24,0.33
116.39,0.32
117.55,0.30
118.73,0.30
119.92,0.29
121.12,0.27
122.33,0.25
123.55,0.22
124.79,0.18
126.03,0.13
127.29,0.10
128.57,0.07
129.85,0.03
131.15,-0.00
132.46,-0.02
133.79,-0.04
135.12,-0.05
136.48,-0.06
137.84,-0.09
139.22,-0.10
140.61,-0.12
142.02,-0.17
143.44,-0.19
144.87,-0.23
146.32,-0.27
147.78,-0.30
149.26,-0.33
150.75,-0.37
152.26,-0.39
153.78,-0.41
155.32,-0.42
156.88,-0.42
158.44,-0.42
160.03,-0.43
161.63,-0.44
163.24,-0.46
164.88,-0.50
166.53,-0.52
168.19,-0.55
169.87,-0.61
171.57,-0.64
173.29,-0.67
175.02,-0.71
176.77,-0.75
178.54,-0.77
180.32,-0.78
182.13,-0.80
183.95,-0.80
185.79,-0.79
187.65,-0.79
189.52,-0.77
191.42,-0.76
193.33,-0.75
195.27,-0.75
197.22,-0.76
199.19,-0.77
201.18,-0.80
203.19,-0.83
205.23,-0.87
207.28,-0.90
209.35,-0.93
211.44,-0.98
213.56,-1.01
215.69,-1.05
217.85,-1.08
220.03,-1.11
222.23,-1.13
224.45,-1.15
226.70,-1.16
228.96,-1.17
231.25,-1.16
233.57,-1.16
235.90,-1.16
238.26,-1.16
240.64,-1.17
243.05,-1.18
245.48,-1.19
247.93,-1.19
250.41,-1.20
252.92,-1.21
255.45,-1.22
258.00,-1.22
260.58,-1.23
263.19,-1.23
265.82,-1.23
268.48,-1.24
271.16,-1.24
273.87,-1.24
276.61,-1.24
279.38,-1.23
282.17,-1.24
284.99,-1.24
287.84,-1.25
290.72,-1.27
293.63,-1.29
296.57,-1.32
299.53,-1.36
302.53,-1.39
305.55,-1.43
308.61,-1.47
311.69,-1.51
314.81,-1.54
317.96,-1.57
321.14,-1.60
324.35,-1.63
327.59,-1.64
330.87,-1.66
334.18,-1.66
337.52,-1.66
340.90,-1.66
344.30,-1.66
347.75,-1.66
351.23,-1.66
354.74,-1.67
358.28,-1.67
361.87,-1.67
365.49,-1.67
369.14,-1.67
372.83,-1.67
376.56,-1.68
380.33,-1.68
384.13,-1.68
387.97,-1.68
391.85,-1.69
395.77,-1.69
399.73,-1.70
403.72,-1.70
407.76,-1.71
411.84,-1.71
415.96,-1.72
420.12,-1.72
424.32,-1.72
428.56,-1.73
432.85,-1.73
437.18,-1.73
441.55,-1.73
445.96,-1.73
450.42,-1.73
454.93,-1.73
459.48,-1.73
464.07,-1.73
468.71,-1.73
473.40,-1.73
478.13,-1.74
482.91,-1.74
487.74,-1.74
492.62,-1.74
497.55,-1.75
502.52,-1.74
507.55,-1.73
512.62,-1.72
517.75,-1.73
522.93,-1.74
528.16,-1.75
533.44,-1.77
538.77,-1.81
544.16,-1.83
549.60,-1.86
555.10,-1.90
560.65,-1.93
566.25,-1.97
571.92,-2.01
577.64,-2.04
583.41,-2.06
589.25,-2.09
595.14,-2.12
601.09,-2.13
607.10,-2.13
613.17,-2.14
619.30,-2.13
625.50,-2.12
631.75,-2.12
638.07,-2.13
644.45,-2.13
650.89,-2.13
657.40,-2.13
663.98,-2.14
670.62,-2.14
677.32,-2.14
684.10,-2.14
690.94,-2.14
697.85,-2.14
704.83,-2.15
711.87,-2.15
718.99,-2.15
726.18,-2.15
733.44,-2.15
740.78,-2.15
748.19,-2.15
755.67,-2.15
763.23,-2.16
770.86,-2.16
778.57,-2.16
786.35,-2.16
794.22,-2.15
802.16,-2.15
810.18,-2.15
818.28,-2.15
826.46,-2.14
834.73,-2.14
843.08,-2.13
851.51,-2.12
860.02,-2.11
868.62,-2.09
877.31,-2.07
886.08,-2.05
894.94,-2.03
903.89,-2.02
912.93,-2.01
922.06,-2.00
931.28,-1.99
940.59,-1.99
950.00,-1.98
959.50,-1.99
969.09,-1.98
978.78,-1.97
988.57,-1.96
998.46,-1.93
1008.44,-1.90
1018.53,-1.86
1028.71,-1.81
1039.00,-1.76
1049.39,-1.70
1059.88,-1.64
1070.48,-1.59
1081.19,-1.53
1092.00,-1.48
1102.92,-1.42
1113.95,-1.36
1125.09,-1.30
1136.34,-1.23
1147.70,-1.18
1159.18,-1.13
1170.77,-1.08
1182.48,-1.03
1194.30,-0.99
1206.25,-0.95
1218.31,-0.90
1230.49,-0.83
1242.80,-0.77
1255.22,-0.71
1267.78,-0.67
1280.45,-0.64
1293.26,-0.61
1306.19,-0.60
1319.25,-0.57
1332.45,-0.55
1345.77,-0.53
1359.23,-0.50
1372.82,-0.50
1386.55,-0.49
1400.41,-0.50
1414.42,-0.51
1428.56,-0.52
1442.85,-0.54
1457.28,-0.57
1471.85,-0.60
1486.57,-0.62
1501.43,-0.64
1516.45,-0.67
1531.61,-0.71
1546.93,-0.76
1562.40,-0.81
1578.02,-0.84
1593.80,-0.89
1609.74,-0.94
1625.84,-0.99
1642.10,-1.03
1658.52,-1.08
1675.10,-1.14
1691.85,-1.21
1708.77,-1.27
1725.86,-1.31
1743.12,-1.36
1760.55,-1.43
1778.15,-1.48
1795.94,-1.55
1813.90,-1.63
1832.03,-1.70
1850.36,-1.77
1868.86,-1.85
1887.55,-1.93
1906.42,-2.01
1925.49,-2.09
1944.74,-2.18
1964.19,-2.25
1983.83,-2.32
2003.67,-2.39
2023.71,-2.45
2043.94,-2.51
2064.38,-2.54
2085.03,-2.56
2105.88,-2.56
2126.94,-2.54
2148.20,-2.51
2169.69,-2.47
2191.38,-2.41
2213.30,-2.33
2235.43,-2.24
2257.78,-2.15
2280.36,-2.03
2303.17,-1.91
2326.20,-1.79
2349.46,-1.65
2372.95,-1.51
2396.68,-1.35
2420.65,-1.21
2444.86,-1.05
2469.31,-0.90
2494.00,-0.76
2518.94,-0.61
2544.13,-0.47
2569.57,-0.33
2595.27,-0.20
2621.22,-0.08
2647.43,0.06
2673.90,0.18
2700.64,0.29
2727.65,0.39
2754.93,0.49
2782.48,0.60
2810.30,0.70
2838.40,0.81
2866.79,0.92
2895.46,1.03
2924.41,1.14
2953.65,1.25
2983.19,1.36
3013.02,1.45
3043.15,1.53
3073.58,1.62
3104.32,1.71
3135.36,1.78
3166.72,1.85
3198.38,1.93
3230.37,1.99
3262.67,2.06
3295.30,2.11
3328.25,2.14
3361.53,2.18
3395.15,2.23
3429.10,2.27
3463.39,2.32
3498.03,2.34
3533.01,2.37
3568.34,2.39
3604.02,2.40
3640.06,2.41
3676.46,2.43
3713.22,2.44
3750.36,2.48
3787.86,2.50
3825.74,2.53
3864.00,2.57
3902.64,2.62
3941.66,2.68
3981.08,2.75
4020.89,2.83
4061.10,2.91
4101.71,2.99
4142.73,3.09
4184.15,3.19
4226.00,3.29
4268.26,3.38
4310.94,3.47
4354.05,3.56
4397.59,3.62
4441.56,3.69
4485.98,3.76
4530.84,3.83
4576.15,3.89
4621.91,3.92
4668.13,3.96
4714.81,3.99
4761.96,4.02
4809.58,4.03
4857.67,4.02
4906.25,3.99
4955.31,3.95
5004.87,3.89
5054.91,3.82
5105.46,3.73
5156.52,3.62
5208.08,3.48
5260.16,3.33
5312.77,3.13
5365.89,2.91
5419.55,2.68
5473.75,2.45
5528.49,2.21
5583.77,1.95
5639.61,1.70
5696.00,1.45
5752.96,1.21
5810.49,1.00
5868.60,0.80
5927.28,0.61
5986.56,0.45
6046.42,0.33
6106.89,0.24
6167.96,0.17
6229.64,0.10
6291.93,0.05
6354.85,0.01
6418.40,0.02
6482.58,0.03
6547.41,0.05
6612.88,0.09
6679.01,0.11
6745.80,0.15
6813.26,0.19
6881.39,0.25
6950.21,0.32
7019.71,0.41
7089.91,0.52
7160.81,0.66
7232.41,0.82
7304.74,1.01
7377.79,1.21
7451.56,1.41
7526.08,1.62
7601.34,1.83
7677.35,2.04
7754.13,2.23
7831.67,2.39
7909.98,2.51
7989.08,2.56
8068.98,2.54
8149.67,2.48
8231.16,2.36
8313.47,2.18
8396.61,1.98
8480.57,1.72
8565.38,1.44
8651.03,1.14
8737.54,0.82
8824.92,0.53
8913.17,0.22
9002.30,-0.08
9092.32,-0.37
9183.25,-0.65
9275.08,-0.89
9367.83,-1.12
9461.51,-1.37
9556.12,-1.62
9651.68,-1.88
9748.20,-2.14
9845.68,-2.44
9944.14,-2.72
10043.58,-3.02
10144.02,-3.34
10245.46,-3.65
10347.91,-3.99
10451.39,-4.34
10555.91,-4.69
10661.46,-5.07
10768.08,-5.44
10875.76,-5.84
10984.52,-6.26
11094.36,-6.67
11205.31,-7.08
11317.36,-7.47
11430.53,-7.83
11544.84,-8.19
11660.29,-8.53
11776.89,-8.86
11894.66,-9.14
12013.60,-9.39
12133.74,-9.60
12255.08,-9.79
12377.63,-9.94
12501.41,-10.05
12626.42,-10.16
12752.68,-10.24
12880.21,-10.32
13009.01,-10.39
13139.10,-10.51
13270.49,-10.66
13403.20,-10.84
13537.23,-11.04
13672.60,-11.27
13809.33,-11.53
13947.42,-11.82
14086.90,-12.10
14227.77,-12.40
14370.04,-12.70
14513.74,-13.00
14658.88,-13.29
14805.47,-13.56
14953.52,-13.81
15103.06,-14.06
15254.09,-14.31
15406.63,-14.60
15560.70,-14.91
15716.30,-15.28
15873.47,-15.73
16032.20,-16.30
16192.52,-16.98
16354.45,-17.77
16517.99,-18.65
16683.17,-19.63
16850.01,-20.65
17018.51,-21.70
17188.69,-22.73
17360.58,-23.74
17534.18,-24.74
17709.53,-25.70
17886.62,-26.61
18065.49,-27.51
18246.14,-28.30
18428.60,-29.02
18612.89,-29.67
18799.02,-30.27
18987.01,-30.81
19176.88,-31.30
19368.65,-31.73
19562.33,-32.10
19757.96,-32.41
19955.54,-32.67
