frequency,raw,error,smoothed,error_smoothed,equalization,parametric_eq,fixed_band_eq,equalized_raw,equalized_smoothed,target
20.00,-4.25,-9.07,-4.25,-9.08,6.00,5.17,1.76,1.75,1.75,4.82
20.20,-4.09,-8.95,-4.09,-8.95,6.00,5.32,1.81,1.91,1.91,4.86
20.40,-3.93,-8.83,-3.93,-8.82,6.00,5.46,1.86,2.07,2.07,4.90
20.61,-3.77,-8.69,-3.77,-8.70,6.00,5.60,1.92,2.23,2.23,4.92
20.81,-3.61,-8.57,-3.61,-8.57,6.00,5.74,1.98,2.39,2.39,4.96
21.02,-3.45,-8.45,-3.46,-8.45,6.00,5.87,2.04,2.55,2.54,5.00
21.23,-3.32,-8.33,-3.32,-8.34,6.00,5.99,2.10,2.68,2.68,5.01
21.44,-3.20,-8.23,-3.19,-8.22,6.00,6.11,2.16,2.80,2.81,5.03
21.66,-3.07,-8.11,-3.07,-8.11,6.00,6.21,2.23,2.93,2.93,5.04
21.87,-2.94,-7.98,-2.94,-7.99,6.00,6.30,2.29,3.06,3.06,5.04
22.09,-2.82,-7.87,-2.82,-7.86,6.00,6.38,2.36,3.18,3.18,5.05
22.31,-2.69,-7.74,-2.69,-7.74,6.00,6.44,2.43,3.31,3.31,5.05
22.54,-2.56,-7.61,-2.57,-7.61,6.00,6.49,2.50,3.44,3.43,5.05
22.76,-2.43,-7.47,-2.44,-7.48,6.00,6.52,2.58,3.57,3.56,5.04
22.99,-2.31,-7.34,-2.29,-7.32,6.00,6.53,2.65,3.69,3.71,5.03
23.22,-2.13,-7.16,-2.13,-7.16,6.00,6.53,2.73,3.87,3.87,5.03
23.45,-1.95,-6.97,-1.96,-6.98,6.01,6.50,2.81,4.06,4.05,5.02
23.69,-1.78,-6.80,-1.77,-6.79,6.02,6.46,2.89,4.24,4.24,5.02
23.92,-1.60,-6.62,-1.60,-6.62,6.02,6.40,2.97,4.43,4.42,5.02
24.16,-1.44,-6.47,-1.45,-6.47,6.02,6.33,3.05,4.58,4.58,5.03
24.40,-1.30,-6.32,-1.29,-6.32,6.01,6.24,3.13,4.71,4.71,5.03
24.65,-1.16,-6.18,-1.15,-6.17,5.97,6.14,3.22,4.81,4.82,5.02
24.89,-1.01,-6.02,-1.01,-6.03,5.92,6.02,3.31,4.91,4.91,5.02
25.14,-0.88,-5.89,-0.88,-5.89,5.85,5.89,3.39,4.97,4.97,5.01
25.39,-0.75,-5.76,-0.75,-5.76,5.76,5.76,3.48,5.01,5.01,5.01
25.65,-0.63,-5.63,-0.63,-5.63,5.65,5.61,3.56,5.02,5.02,5.00
25.91,-0.51,-5.51,-0.51,-5.50,5.53,5.46,3.65,5.02,5.02,4.99
26.16,-0.38,-5.37,-0.38,-5.38,5.40,5.31,3.73,5.02,5.02,4.99
26.43,-0.25,-5.24,-0.25,-5.25,5.26,5.15,3.82,5.01,5.00,4.99
26.69,-0.13,-5.12,-0.13,-5.12,5.12,4.99,3.90,4.99,4.99,4.99
26.96,-0.00,-4.98,-0.00,-4.99,4.98,4.83,3.98,4.98,4.98,4.98
27.23,0.13,-4.85,0.13,-4.85,4.84,4.66,4.06,4.97,4.97,4.98
27.50,0.27,-4.71,0.27,-4.71,4.70,4.50,4.13,4.97,4.97,4.98
27.77,0.40,-4.57,0.40,-4.57,4.56,4.34,4.20,4.96,4.96,4.97
28.05,0.54,-4.43,0.54,-4.43,4.42,4.18,4.27,4.96,4.96,4.97
28.33,0.67,-4.29,0.68,-4.28,4.30,4.02,4.33,4.97,4.97,4.96
28.62,0.81,-4.15,0.81,-4.15,4.18,3.86,4.39,4.98,4.99,4.96
28.90,0.94,-4.02,0.93,-4.02,4.06,3.71,4.44,5.00,4.99,4.96
29.19,1.04,-3.91,1.03,-3.92,3.95,3.56,4.48,4.99,4.98,4.95
29.48,1.12,-3.84,1.12,-3.84,3.83,3.41,4.51,4.95,4.95,4.96
29.78,1.20,-3.75,1.20,-3.75,3.71,3.27,4.54,4.91,4.92,4.95
30.08,1.30,-3.66,1.31,-3.64,3.59,3.13,4.56,4.89,4.90,4.96
30.38,1.45,-3.49,1.45,-3.50,3.46,2.99,4.57,4.91,4.91,4.94
30.68,1.61,-3.33,1.60,-3.34,3.33,2.86,4.58,4.94,4.93,4.94
30.99,1.76,-3.17,1.75,-3.18,3.20,2.73,4.57,4.96,4.95,4.93
31.30,1.89,-3.04,1.89,-3.03,3.07,2.61,4.55,4.95,4.96,4.93
31.61,2.02,-2.91,2.02,-2.89,2.93,2.48,4.53,4.95,4.96,4.93
31.93,2.15,-2.76,2.14,-2.77,2.80,2.36,4.49,4.95,4.94,4.90
32.24,2.24,-2.65,2.23,-2.67,2.67,2.25,4.45,4.91,4.90,4.89
32.57,2.31,-2.58,2.31,-2.57,2.54,2.14,4.39,4.85,4.85,4.89
32.89,2.39,-2.49,2.40,-2.47,2.42,2.03,4.33,4.81,4.82,4.88
33.22,2.52,-2.34,2.53,-2.33,2.31,1.92,4.26,4.83,4.84,4.86
33.55,2.68,-2.18,2.68,-2.17,2.20,1.82,4.18,4.88,4.88,4.86
33.89,2.85,-1.99,2.82,-2.02,2.09,1.72,4.10,4.94,4.91,4.84
34.23,2.92,-1.91,2.91,-1.92,1.97,1.62,4.01,4.89,4.87,4.83
34.57,2.96,-1.85,2.96,-1.86,1.84,1.53,3.91,4.80,4.80,4.81
34.92,2.99,-1.81,3.02,-1.78,1.71,1.44,3.80,4.70,4.74,4.80
35.27,3.13,-1.67,3.14,-1.65,1.59,1.35,3.69,4.72,4.73,4.80
35.62,3.30,-1.48,3.29,-1.49,1.46,1.26,3.58,4.76,4.75,4.78
35.97,3.47,-1.29,3.45,-1.32,1.34,1.18,3.46,4.81,4.79,4.76
36.33,3.57,-1.19,3.57,-1.18,1.22,1.09,3.34,4.79,4.80,4.76
36.70,3.67,-1.08,3.68,-1.07,1.11,1.01,3.22,4.78,4.78,4.75
37.06,3.76,-0.98,3.76,-0.98,1.00,0.94,3.09,4.76,4.77,4.74
37.43,3.85,-0.89,3.85,-0.88,0.91,0.86,2.96,4.76,4.76,4.74
37.81,3.93,-0.80,3.92,-0.81,0.83,0.78,2.83,4.76,4.75,4.73
38.19,3.98,-0.74,3.97,-0.76,0.76,0.71,2.70,4.74,4.72,4.72
38.57,4.00,-0.73,4.00,-0.72,0.69,0.64,2.56,4.69,4.69,4.73
38.95,4.03,-0.68,4.06,-0.66,0.61,0.57,2.43,4.64,4.67,4.71
39.34,4.14,-0.57,4.15,-0.56,0.53,0.50,2.29,4.68,4.68,4.71
39.74,4.27,-0.43,4.25,-0.45,0.45,0.43,2.16,4.72,4.70,4.70
40.14,4.37,-0.33,4.36,-0.34,0.36,0.37,2.02,4.73,4.71,4.69
40.54,4.44,-0.25,4.44,-0.25,0.26,0.30,1.89,4.70,4.70,4.69
40.94,4.50,-0.19,4.52,-0.17,0.16,0.24,1.75,4.66,4.68,4.69
41.35,4.60,-0.07,4.61,-0.07,0.06,0.17,1.62,4.66,4.67,4.67
41.76,4.71,0.05,4.70,0.04,-0.03,0.11,1.49,4.68,4.67,4.66
42.18,4.79,0.13,4.78,0.13,-0.11,0.05,1.35,4.68,4.67,4.66
42.60,4.84,0.20,4.84,0.20,-0.19,-0.01,1.22,4.65,4.65,4.64
43.03,4.89,0.25,4.90,0.26,-0.26,-0.07,1.09,4.63,4.63,4.64
43.46,4.95,0.34,4.95,0.33,-0.33,-0.13,0.96,4.62,4.61,4.61
43.90,5.00,0.41,5.00,0.40,-0.40,-0.19,0.82,4.60,4.59,4.59
44.33,5.04,0.47,5.04,0.47,-0.47,-0.25,0.69,4.57,4.57,4.57
44.78,5.07,0.52,5.07,0.52,-0.53,-0.31,0.56,4.54,4.55,4.55
45.23,5.11,0.57,5.11,0.58,-0.59,-0.36,0.43,4.52,4.52,4.53
45.68,5.16,0.64,5.16,0.64,-0.65,-0.42,0.30,4.51,4.51,4.52
46.13,5.21,0.71,5.22,0.72,-0.70,-0.48,0.18,4.51,4.52,4.50
46.60,5.29,0.79,5.28,0.79,-0.77,-0.53,0.05,4.52,4.52,4.50
47.06,5.35,0.86,5.33,0.84,-0.84,-0.59,-0.08,4.51,4.49,4.49
47.53,5.37,0.88,5.37,0.88,-0.91,-0.64,-0.21,4.46,4.46,4.49
48.01,5.39,0.91,5.42,0.94,-0.98,-0.70,-0.33,4.41,4.44,4.48
48.49,5.49,1.03,5.49,1.02,-1.05,-0.76,-0.46,4.44,4.44,4.46
48.97,5.58,1.13,5.57,1.12,-1.11,-0.81,-0.58,4.48,4.46,4.45
49.46,5.64,1.20,5.64,1.21,-1.16,-0.87,-0.70,4.48,4.49,4.44
49.96,5.69,1.27,5.68,1.25,-1.20,-0.92,-0.83,4.49,4.48,4.42
50.46,5.69,1.26,5.69,1.26,-1.24,-0.98,-0.95,4.45,4.45,4.43
50.96,5.69,1.26,5.69,1.27,-1.28,-1.03,-1.07,4.41,4.41,4.43
51.47,5.70,1.28,5.70,1.28,-1.31,-1.09,-1.19,4.39,4.39,4.42
51.99,5.72,1.31,5.72,1.31,-1.34,-1.14,-1.30,4.38,4.38,4.41
52.51,5.76,1.35,5.76,1.34,-1.36,-1.20,-1.42,4.40,4.39,4.41
53.03,5.79,1.38,5.80,1.39,-1.39,-1.25,-1.53,4.40,4.41,4.41
53.56,5.85,1.45,5.84,1.44,-1.42,-1.31,-1.65,4.42,4.42,4.40
54.10,5.89,1.50,5.87,1.48,-1.46,-1.36,-1.76,4.43,4.41,4.39
54.64,5.89,1.50,5.90,1.51,-1.50,-1.42,-1.86,4.39,4.40,4.39
55.18,5.91,1.53,5.92,1.54,-1.55,-1.48,-1.97,4.36,4.38,4.38
55.74,5.96,1.59,5.95,1.57,-1.59,-1.53,-2.07,4.37,4.36,4.37
56.29,5.99,1.62,5.98,1.61,-1.63,-1.59,-2.17,4.36,4.35,4.37
56.86,5.99,1.64,6.01,1.66,-1.66,-1.64,-2.26,4.33,4.35,4.35
57.42,6.03,1.69,6.04,1.70,-1.69,-1.70,-2.35,4.34,4.34,4.34
58.00,6.09,1.77,6.07,1.74,-1.73,-1.75,-2.44,4.36,4.34,4.32
58.58,6.09,1.78,6.09,1.78,-1.75,-1.81,-2.52,4.34,4.34,4.31
59.16,6.09,1.79,6.10,1.80,-1.78,-1.87,-2.60,4.31,4.31,4.30
59.76,6.09,1.81,6.09,1.81,-1.81,-1.92,-2.67,4.28,4.28,4.27
60.35,6.09,1.84,6.09,1.84,-1.85,-1.98,-2.74,4.24,4.24,4.25
60.96,6.09,1.86,6.08,1.86,-1.90,-2.03,-2.80,4.19,4.19,4.23
61.57,6.09,1.91,6.09,1.91,-1.95,-2.08,-2.86,4.14,4.15,4.18
62.18,6.11,1.96,6.12,1.98,-2.01,-2.14,-2.91,4.10,4.12,4.15
62.80,6.18,2.07,6.18,2.07,-2.07,-2.19,-2.96,4.11,4.11,4.11
63.43,6.24,2.17,6.24,2.17,-2.14,-2.24,-3.00,4.10,4.10,4.07
64.07,6.30,2.26,6.28,2.25,-2.21,-2.30,-3.03,4.09,4.08,4.04
64.71,6.30,2.30,6.30,2.30,-2.27,-2.35,-3.07,4.03,4.03,4.00
65.35,6.30,2.33,6.31,2.34,-2.33,-2.40,-3.09,3.97,3.98,3.97
66.01,6.30,2.37,6.30,2.37,-2.38,-2.45,-3.11,3.92,3.92,3.93
66.67,6.30,2.41,6.30,2.40,-2.42,-2.50,-3.13,3.88,3.88,3.89
67.33,6.30,2.44,6.30,2.44,-2.45,-2.55,-3.15,3.85,3.85,3.86
68.01,6.30,2.48,6.30,2.48,-2.48,-2.59,-3.16,3.82,3.82,3.82
68.69,6.30,2.52,6.30,2.52,-2.51,-2.64,-3.16,3.79,3.79,3.78
69.37,6.30,2.56,6.30,2.56,-2.55,-2.68,-3.17,3.75,3.75,3.74
70.07,6.30,2.60,6.30,2.59,-2.60,-2.72,-3.17,3.70,3.70,3.70
70.77,6.30,2.63,6.29,2.63,-2.65,-2.77,-3.16,3.65,3.64,3.67
71.48,6.30,2.68,6.31,2.69,-2.71,-2.81,-3.16,3.59,3.60,3.62
72.19,6.32,2.74,6.34,2.76,-2.77,-2.85,-3.16,3.55,3.57,3.58
72.91,6.39,2.86,6.37,2.84,-2.83,-2.88,-3.15,3.56,3.54,3.53
73.64,6.40,2.92,6.39,2.91,-2.89,-2.92,-3.15,3.51,3.51,3.48
74.38,6.40,2.96,6.41,2.97,-2.95,-2.96,-3.14,3.45,3.46,3.44
75.12,6.40,3.01,6.40,3.01,-3.00,-2.99,-3.13,3.40,3.40,3.39
75.87,6.40,3.05,6.40,3.05,-3.05,-3.02,-3.12,3.35,3.35,3.35
76.63,6.40,3.08,6.40,3.09,-3.09,-3.05,-3.12,3.31,3.31,3.32
77.40,6.40,3.12,6.40,3.12,-3.13,-3.08,-3.11,3.27,3.27,3.28
78.17,6.40,3.16,6.40,3.16,-3.16,-3.11,-3.11,3.24,3.24,3.24
78.95,6.40,3.19,6.40,3.19,-3.19,-3.14,-3.10,3.21,3.21,3.21
79.74,6.40,3.22,6.40,3.22,-3.22,-3.17,-3.10,3.18,3.18,3.18
80.54,6.40,3.25,6.40,3.25,-3.25,-3.20,-3.10,3.15,3.15,3.15
81.35,6.40,3.28,6.40,3.28,-3.28,-3.22,-3.10,3.12,3.12,3.12
82.16,6.40,3.31,6.40,3.31,-3.31,-3.25,-3.11,3.09,3.09,3.09
82.98,6.40,3.33,6.40,3.34,-3.34,-3.27,-3.11,3.06,3.06,3.07
83.81,6.40,3.37,6.40,3.37,-3.37,-3.30,-3.12,3.03,3.03,3.03
84.65,6.40,3.41,6.40,3.40,-3.40,-3.32,-3.13,3.00,3.00,2.99
85.50,6.40,3.43,6.40,3.43,-3.44,-3.35,-3.14,2.96,2.96,2.97
86.35,6.40,3.46,6.40,3.47,-3.47,-3.37,-3.15,2.93,2.93,2.94
87.22,6.40,3.50,6.40,3.50,-3.50,-3.39,-3.17,2.90,2.90,2.90
88.09,6.40,3.53,6.40,3.53,-3.54,-3.42,-3.19,2.86,2.86,2.87
88.97,6.40,3.56,6.40,3.56,-3.56,-3.44,-3.21,2.84,2.84,2.84
89.86,6.40,3.59,6.40,3.60,-3.59,-3.46,-3.23,2.81,2.82,2.81
90.76,6.40,3.63,6.40,3.63,-3.61,-3.49,-3.26,2.79,2.79,2.77
91.66,6.40,3.66,6.38,3.64,-3.63,-3.51,-3.28,2.77,2.76,2.74
92.58,6.35,3.64,6.35,3.64,-3.64,-3.54,-3.32,2.71,2.71,2.71
93.51,6.31,3.63,6.32,3.64,-3.66,-3.56,-3.35,2.65,2.66,2.68
94.44,6.30,3.65,6.30,3.65,-3.68,-3.59,-3.38,2.62,2.63,2.65
95.39,6.30,3.68,6.30,3.68,-3.69,-3.61,-3.42,2.61,2.61,2.62
96.34,6.30,3.72,6.30,3.71,-3.70,-3.64,-3.46,2.60,2.59,2.58
97.30,6.29,3.73,6.29,3.73,-3.72,-3.67,-3.50,2.57,2.57,2.56
98.28,6.28,3.75,6.28,3.75,-3.74,-3.69,-3.55,2.54,2.54,2.53
99.26,6.27,3.76,6.27,3.76,-3.76,-3.72,-3.59,2.51,2.51,2.51
100.25,6.25,3.77,6.25,3.77,-3.78,-3.75,-3.64,2.47,2.47,2.48
101.25,6.23,3.78,6.23,3.79,-3.79,-3.78,-3.69,2.44,2.44,2.45
102.27,6.22,3.80,6.22,3.80,-3.81,-3.81,-3.74,2.41,2.41,2.42
103.29,6.21,3.84,6.21,3.83,-3.82,-3.83,-3.80,2.39,2.39,2.37
104.32,6.19,3.84,6.19,3.84,-3.83,-3.86,-3.85,2.36,2.36,2.35
105.37,6.17,3.86,6.17,3.85,-3.84,-3.90,-3.90,2.33,2.33,2.31
106.42,6.14,3.86,6.14,3.86,-3.86,-3.93,-3.96,2.28,2.29,2.28
107.48,6.12,3.88,6.12,3.87,-3.87,-3.96,-4.01,2.24,2.24,2.24
108.56,6.09,3.89,6.09,3.88,-3.90,-3.99,-4.07,2.19,2.19,2.20
109.64,6.07,3.90,6.07,3.90,-3.92,-4.02,-4.12,2.15,2.15,2.17
110.74,6.05,3.91,6.07,3.94,-3.95,-4.06,-4.18,2.10,2.12,2.14
111.85,6.09,3.98,6.09,3.99,-3.98,-4.09,-4.23,2.11,2.10,2.11
112.97,6.13,4.07,6.11,4.04,-4.02,-4.12,-4.28,2.11,2.09,2.06
114.10,6.12,4.08,6.12,4.09,-4.07,-4.16,-4.33,2.05,2.05,2.04
115.24,6.12,4.12,6.12,4.11,-4.12,-4.19,-4.38,2.00,2.00,2.00
116.39,6.12,4.15,6.12,4.15,-4.17,-4.23,-4.43,1.95,1.95,1.97
117.55,6.13,4.18,6.15,4.21,-4.22,-4.26,-4.48,1.91,1.93,1.95
118.73,6.20,4.28,6.19,4.26,-4.26,-4.30,-4.52,1.94,1.93,1.92
119.92,6.24,4.33,6.22,4.32,-4.30,-4.34,-4.56,1.94,1.92,1.91
121.12,6.24,4.35,6.25,4.36,-4.34,-4.37,-4.60,1.90,1.91,1.89
122.33,6.25,4.38,6.25,4.38,-4.37,-4.41,-4.63,1.88,1.88,1.87
123.55,6.26,4.40,6.26,4.40,-4.41,-4.45,-4.66,1.85,1.85,1.86
124.79,6.27,4.43,6.27,4.43,-4.43,-4.49,-4.69,1.84,1.83,1.84
126.03,6.27,4.45,6.27,4.45,-4.45,-4.52,-4.71,1.82,1.82,1.82
127.29,6.28,4.47,6.28,4.48,-4.47,-4.56,-4.74,1.81,1.81,1.81
128.57,6.29,4.51,6.29,4.50,-4.49,-4.60,-4.76,1.80,1.80,1.78
129.85,6.29,4.52,6.29,4.52,-4.52,-4.64,-4.77,1.77,1.77,1.77
131.15,6.30,4.54,6.29,4.53,-4.56,-4.68,-4.78,1.74,1.73,1.76
132.46,6.30,4.55,6.31,4.56,-4.60,-4.72,-4.80,1.70,1.71,1.74
133.79,6.33,4.59,6.35,4.62,-4.65,-4.76,-4.80,1.68,1.70,1.74
135.12,6.42,4.71,6.41,4.69,-4.69,-4.80,-4.81,1.73,1.72,1.71
136.48,6.48,4.77,6.47,4.77,-4.74,-4.84,-4.81,1.74,1.74,1.71
137.84,6.52,4.83,6.51,4.83,-4.78,-4.88,-4.82,1.74,1.74,1.69
139.22,6.52,4.86,6.52,4.86,-4.82,-4.93,-4.82,1.70,1.71,1.66
140.61,6.52,4.88,6.52,4.87,-4.86,-4.97,-4.82,1.66,1.67,1.64
142.02,6.52,4.88,6.51,4.88,-4.90,-5.01,-4.82,1.62,1.62,1.64
143.44,6.52,4.89,6.52,4.90,-4.94,-5.05,-4.82,1.58,1.58,1.62
144.87,6.52,4.92,6.54,4.94,-4.98,-5.09,-4.82,1.54,1.56,1.60
146.32,6.59,5.02,6.58,5.00,-5.02,-5.14,-4.82,1.57,1.55,1.57
147.78,6.62,5.08,6.63,5.09,-5.08,-5.18,-4.83,1.54,1.55,1.54
149.26,6.68,5.17,6.68,5.17,-5.15,-5.22,-4.83,1.53,1.53,1.51
150.75,6.72,5.27,6.70,5.24,-5.23,-5.26,-4.83,1.49,1.48,1.45
152.26,6.72,5.31,6.72,5.31,-5.31,-5.31,-4.84,1.41,1.41,1.41
153.78,6.72,5.36,6.74,5.39,-5.41,-5.35,-4.85,1.31,1.33,1.36
155.32,6.77,5.48,6.76,5.47,-5.51,-5.39,-4.86,1.26,1.26,1.29
156.88,6.82,5.58,6.81,5.58,-5.61,-5.43,-4.88,1.21,1.21,1.24
158.44,6.85,5.68,6.87,5.69,-5.70,-5.48,-4.89,1.15,1.17,1.17
160.03,6.92,5.81,6.90,5.79,-5.78,-5.52,-4.91,1.14,1.12,1.11
161.63,6.92,5.86,6.92,5.87,-5.84,-5.56,-4.93,1.08,1.08,1.06
163.24,6.92,5.92,6.94,5.93,-5.88,-5.61,-4.96,1.04,1.06,1.00
164.88,6.92,5.95,6.92,5.96,-5.91,-5.65,-4.99,1.01,1.01,0.97
166.53,6.91,5.98,6.87,5.95,-5.91,-5.69,-5.02,1.00,0.96,0.93
168.19,6.79,5.89,6.79,5.90,-5.90,-5.74,-5.06,0.89,0.89,0.90
169.87,6.70,5.83,6.71,5.84,-5.88,-5.78,-5.10,0.82,0.84,0.87
171.57,6.64,5.79,6.66,5.81,-5.85,-5.82,-5.14,0.78,0.81,0.85
173.29,6.67,5.82,6.66,5.81,-5.84,-5.87,-5.19,0.83,0.82,0.84
175.02,6.68,5.84,6.67,5.83,-5.83,-5.91,-5.24,0.85,0.84,0.84
176.77,6.68,5.85,6.67,5.84,-5.85,-5.95,-5.29,0.83,0.83,0.83
178.54,6.68,5.85,6.68,5.85,-5.87,-5.99,-5.35,0.81,0.81,0.83
180.32,6.69,5.85,6.73,5.89,-5.91,-6.04,-5.41,0.78,0.82,0.84
182.13,6.80,5.95,6.80,5.95,-5.95,-6.08,-5.48,0.85,0.85,0.85
183.95,6.90,6.06,6.86,6.02,-5.99,-6.12,-5.55,0.91,0.87,0.84
185.79,6.91,6.07,6.92,6.08,-6.04,-6.17,-5.63,0.87,0.88,0.84
187.65,6.92,6.09,6.93,6.10,-6.08,-6.21,-5.70,0.84,0.84,0.83
189.52,6.94,6.12,6.93,6.11,-6.13,-6.25,-5.79,0.81,0.80,0.82
191.42,6.95,6.14,6.97,6.16,-6.18,-6.29,-5.87,0.77,0.79,0.81
193.33,7.01,6.21,7.01,6.21,-6.23,-6.33,-5.96,0.78,0.79,0.80
195.27,7.07,6.28,7.05,6.27,-6.27,-6.38,-6.05,0.80,0.79,0.79
197.22,7.10,6.33,7.09,6.33,-6.31,-6.42,-6.15,0.79,0.78,0.77
199.19,7.11,6.37,7.12,6.37,-6.36,-6.46,-6.25,0.75,0.76,0.74
201.18,7.15,6.42,7.15,6.42,-6.42,-6.50,-6.35,0.73,0.74,0.73
203.19,7.20,6.48,7.19,6.47,-6.47,-6.54,-6.45,0.73,0.71,0.72
205.23,7.22,6.53,7.22,6.52,-6.53,-6.58,-6.56,0.69,0.69,0.69
207.28,7.25,6.56,7.26,6.57,-6.59,-6.63,-6.66,0.66,0.67,0.69
209.35,7.30,6.63,7.30,6.63,-6.65,-6.67,-6.77,0.65,0.65,0.66
211.44,7.37,6.72,7.37,6.72,-6.71,-6.71,-6.88,0.66,0.66,0.65
213.56,7.42,6.78,7.43,6.80,-6.78,-6.75,-6.99,0.64,0.65,0.64
215.69,7.51,6.88,7.47,6.84,-6.85,-6.79,-7.10,0.66,0.62,0.63
217.85,7.51,6.89,7.51,6.89,-6.91,-6.83,-7.21,0.60,0.60,0.62
220.03,7.51,6.91,7.57,6.96,-6.96,-6.87,-7.31,0.55,0.61,0.60
222.23,7.64,7.04,7.62,7.02,-7.00,-6.91,-7.42,0.64,0.62,0.60
224.45,7.72,7.11,7.68,7.08,-7.04,-6.95,-7.52,0.68,0.64,0.61
226.70,7.70,7.09,7.71,7.10,-7.08,-6.98,-7.62,0.62,0.64,0.61
228.96,7.71,7.09,7.71,7.09,-7.10,-7.02,-7.71,0.61,0.61,0.62
231.25,7.71,7.08,7.72,7.10,-7.13,-7.06,-7.80,0.58,0.59,0.63
233.57,7.77,7.13,7.77,7.13,-7.15,-7.10,-7.88,0.62,0.62,0.64
235.90,7.84,7.18,7.84,7.18,-7.18,-7.14,-7.96,0.66,0.67,0.66
238.26,7.92,7.24,7.91,7.23,-7.21,-7.18,-8.03,0.71,0.70,0.68
240.64,7.97,7.26,7.94,7.23,-7.24,-7.21,-8.09,0.73,0.69,0.71
243.05,7.97,7.23,8.00,7.26,-7.28,-7.25,-8.15,0.69,0.72,0.74
245.48,8.02,7.25,8.08,7.32,-7.32,-7.29,-8.19,0.70,0.76,0.76
247.93,8.24,7.45,8.15,7.37,-7.36,-7.32,-8.23,0.88,0.79,0.79
250.41,8.24,7.43,8.24,7.43,-7.40,-7.36,-8.26,0.84,0.84,0.81
252.92,8.25,7.41,8.30,7.47,-7.44,-7.39,-8.28,0.81,0.87,0.84
255.45,8.36,7.49,8.32,7.46,-7.48,-7.43,-8.29,0.88,0.84,0.87
258.00,8.39,7.51,8.38,7.50,-7.52,-7.46,-8.30,0.87,0.87,0.88
260.58,8.40,7.50,8.46,7.56,-7.56,-7.50,-8.29,0.84,0.90,0.90
263.19,8.55,7.63,8.51,7.59,-7.60,-7.53,-8.28,0.95,0.91,0.92
265.82,8.60,7.66,8.57,7.63,-7.64,-7.57,-8.26,0.96,0.93,0.94
268.48,8.59,7.62,8.64,7.67,-7.67,-7.60,-8.24,0.92,0.96,0.97
271.16,8.70,7.71,8.70,7.71,-7.71,-7.63,-8.20,0.99,0.99,0.99
273.87,8.79,7.78,8.78,7.77,-7.75,-7.67,-8.17,1.04,1.04,1.01
276.61,8.87,7.83,8.85,7.82,-7.78,-7.70,-8.13,1.09,1.07,1.04
279.38,8.90,7.84,8.89,7.83,-7.82,-7.73,-8.08,1.08,1.07,1.06
282.17,8.89,7.81,8.91,7.82,-7.86,-7.76,-8.04,1.03,1.05,1.08
284.99,8.95,7.83,8.95,7.83,-7.89,-7.80,-7.99,1.06,1.06,1.12
287.84,9.00,7.86,9.04,7.90,-7.91,-7.83,-7.94,1.09,1.13,1.14
290.72,9.17,7.99,9.14,7.96,-7.94,-7.86,-7.89,1.23,1.21,1.18
293.63,9.26,8.05,9.22,8.01,-7.96,-7.89,-7.84,1.30,1.26,1.21
296.57,9.24,7.99,9.25,8.01,-7.98,-7.92,-7.78,1.26,1.28,1.25
299.53,9.25,7.99,9.26,7.99,-8.00,-7.95,-7.74,1.25,1.26,1.26
302.53,9.26,7.97,9.28,7.98,-8.02,-7.98,-7.69,1.24,1.26,1.29
305.55,9.36,8.03,9.34,8.02,-8.04,-8.01,-7.64,1.32,1.30,1.33
308.61,9.38,8.03,9.40,8.05,-8.06,-8.04,-7.60,1.32,1.35,1.35
311.69,9.48,8.11,9.46,8.08,-8.08,-8.07,-7.56,1.40,1.38,1.37
314.81,9.50,8.10,9.49,8.10,-8.10,-8.10,-7.53,1.40,1.39,1.40
317.96,9.52,8.11,9.54,8.13,-8.13,-8.12,-7.49,1.39,1.42,1.41
321.14,9.58,8.15,9.58,8.16,-8.15,-8.15,-7.47,1.42,1.43,1.43
324.35,9.65,8.21,9.64,8.20,-8.18,-8.18,-7.44,1.47,1.46,1.44
327.59,9.69,8.23,9.67,8.22,-8.21,-8.21,-7.42,1.48,1.46,1.46
330.87,9.70,8.23,9.70,8.23,-8.24,-8.24,-7.41,1.46,1.46,1.46
334.18,9.69,8.22,9.72,8.24,-8.26,-8.26,-7.40,1.43,1.46,1.47
337.52,9.76,8.28,9.76,8.27,-8.28,-8.29,-7.39,1.48,1.48,1.48
340.90,9.82,8.32,9.82,8.32,-8.31,-8.32,-7.40,1.51,1.51,1.50
344.30,9.88,8.37,9.86,8.35,-8.34,-8.35,-7.40,1.54,1.52,1.51
347.75,9.89,8.37,9.89,8.37,-8.38,-8.38,-7.41,1.51,1.51,1.52
351.23,9.89,8.36,9.90,8.38,-8.42,-8.41,-7.43,1.47,1.49,1.53
354.74,9.94,8.41,9.94,8.42,-8.44,-8.44,-7.45,1.50,1.50,1.53
358.28,10.00,8.47,10.02,8.49,-8.46,-8.47,-7.48,1.54,1.56,1.53
361.87,10.10,8.57,10.08,8.55,-8.48,-8.50,-7.52,1.62,1.61,1.53
365.49,10.15,8.61,10.10,8.56,-8.50,-8.53,-7.56,1.65,1.60,1.54
369.14,10.05,8.51,10.07,8.53,-8.52,-8.57,-7.60,1.53,1.55,1.54
372.83,10.01,8.47,10.03,8.48,-8.55,-8.60,-7.65,1.46,1.48,1.54
376.56,10.01,8.47,10.04,8.50,-8.57,-8.64,-7.71,1.44,1.47,1.54
380.33,10.12,8.56,10.11,8.56,-8.60,-8.68,-7.77,1.52,1.51,1.56
384.13,10.23,8.68,10.20,8.65,-8.63,-8.72,-7.84,1.60,1.57,1.55
387.97,10.26,8.71,10.28,8.73,-8.67,-8.76,-7.91,1.59,1.61,1.55
391.85,10.33,8.78,10.32,8.77,-8.73,-8.80,-7.98,1.60,1.59,1.55
395.77,10.36,8.81,10.35,8.80,-8.80,-8.85,-8.06,1.56,1.55,1.55
399.73,10.37,8.82,10.40,8.86,-8.87,-8.90,-8.15,1.50,1.53,1.55
403.72,10.48,8.94,10.46,8.91,-8.95,-8.96,-8.23,1.53,1.51,1.54
407.76,10.55,9.01,10.54,8.99,-9.02,-9.02,-8.32,1.53,1.52,1.54
411.84,10.62,9.07,10.64,9.10,-9.11,-9.08,-8.42,1.51,1.54,1.55
415.96,10.75,9.21,10.75,9.20,-9.20,-9.15,-8.51,1.55,1.54,1.54
420.12,10.87,9.33,10.85,9.31,-9.30,-9.22,-8.61,1.57,1.55,1.54
424.32,10.95,9.40,10.95,9.40,-9.40,-9.30,-8.71,1.55,1.55,1.55
428.56,11.03,9.48,11.05,9.50,-9.49,-9.38,-8.81,1.54,1.56,1.55
432.85,11.15,9.58,11.17,9.60,-9.57,-9.47,-8.90,1.58,1.59,1.57
437.18,11.31,9.72,11.27,9.68,-9.65,-9.56,-9.00,1.66,1.62,1.59
441.55,11.36,9.73,11.34,9.72,-9.72,-9.65,-9.09,1.64,1.63,1.63
445.96,11.39,9.73,11.41,9.75,-9.78,-9.74,-9.18,1.61,1.63,1.66
450.42,11.44,9.75,11.48,9.79,-9.82,-9.82,-9.27,1.62,1.66,1.69
454.93,11.61,9.86,11.58,9.84,-9.86,-9.90,-9.34,1.75,1.72,1.75
459.48,11.70,9.91,11.68,9.89,-9.88,-9.97,-9.41,1.82,1.81,1.79
464.07,11.74,9.89,11.76,9.92,-9.89,-10.02,-9.47,1.85,1.88,1.85
468.71,11.82,9.92,11.79,9.90,-9.88,-10.05,-9.52,1.94,1.91,1.90
473.40,11.81,9.86,11.82,9.87,-9.87,-10.06,-9.56,1.94,1.95,1.94
478.13,11.81,9.82,11.82,9.83,-9.84,-10.04,-9.59,1.97,1.99,1.99
482.91,11.84,9.81,11.81,9.78,-9.79,-9.99,-9.60,2.05,2.02,2.03
487.74,11.78,9.70,11.81,9.73,-9.73,-9.91,-9.59,2.05,2.08,2.08
492.62,11.80,9.68,11.78,9.66,-9.66,-9.80,-9.58,2.14,2.12,2.12
497.55,11.75,9.60,11.74,9.58,-9.59,-9.67,-9.54,2.16,2.15,2.15
502.52,11.67,9.49,11.68,9.51,-9.51,-9.52,-9.49,2.16,2.17,2.18
507.55,11.60,9.41,11.61,9.41,-9.42,-9.36,-9.42,2.18,2.19,2.19
512.62,11.54,9.34,11.53,9.32,-9.33,-9.18,-9.33,2.21,2.20,2.20
517.75,11.44,9.23,11.43,9.23,-9.22,-9.00,-9.23,2.22,2.21,2.21
522.93,11.31,9.11,11.32,9.12,-9.10,-8.81,-9.11,2.21,2.21,2.20
528.16,11.16,8.99,11.16,8.98,-8.98,-8.62,-8.98,2.18,2.19,2.17
533.44,11.00,8.85,10.99,8.84,-8.84,-8.43,-8.84,2.16,2.15,2.15
538.77,10.78,8.67,10.80,8.68,-8.68,-8.24,-8.68,2.10,2.11,2.11
