frequency,raw,error,smoothed,error_smoothed,equalization,parametric_eq,fixed_band_eq,equalized_raw,equalized_smoothed,target
20.00,17.58,10.26,17.58,10.27,-10.26,-10.08,-4.26,7.32,7.32,7.32
20.20,17.55,10.25,17.55,10.24,-10.24,-10.06,-4.37,7.31,7.31,7.31
20.40,17.51,10.21,17.51,10.21,-10.21,-10.04,-4.49,7.30,7.30,7.31
20.61,17.48,10.19,17.48,10.18,-10.19,-10.01,-4.61,7.30,7.29,7.30
20.81,17.44,10.16,17.44,10.16,-10.16,-9.99,-4.74,7.28,7.28,7.28
21.02,17.41,10.14,17.41,10.14,-10.14,-9.96,-4.86,7.27,7.28,7.27
21.23,17.39,10.12,17.39,10.11,-10.11,-9.94,-5.00,7.28,7.27,7.27
21.44,17.37,10.09,17.37,10.09,-10.09,-9.91,-5.13,7.28,7.27,7.28
21.66,17.34,10.07,17.34,10.07,-10.07,-9.89,-5.27,7.27,7.27,7.27
21.87,17.32,10.05,17.32,10.05,-10.06,-9.86,-5.41,7.26,7.26,7.27
22.09,17.30,10.04,17.30,10.04,-10.04,-9.83,-5.56,7.26,7.26,7.26
22.31,17.28,10.02,17.28,10.02,-10.02,-9.81,-5.71,7.26,7.26,7.26
22.54,17.26,10.01,17.26,10.00,-9.99,-9.78,-5.87,7.27,7.27,7.25
22.76,17.23,9.97,17.24,9.98,-9.96,-9.75,-6.02,7.27,7.27,7.26
22.99,17.21,9.95,17.20,9.95,-9.93,-9.73,-6.19,7.28,7.27,7.26
23.22,17.16,9.91,17.16,9.91,-9.90,-9.70,-6.35,7.27,7.26,7.25
23.45,17.11,9.86,17.11,9.86,-9.86,-9.67,-6.52,7.25,7.25,7.25
23.69,17.06,9.81,17.06,9.81,-9.83,-9.64,-6.70,7.23,7.23,7.25
23.92,17.02,9.77,17.03,9.77,-9.80,-9.61,-6.88,7.22,7.22,7.25
24.16,17.00,9.74,17.00,9.75,-9.78,-9.59,-7.06,7.23,7.23,7.26
24.40,17.00,9.73,17.00,9.74,-9.75,-9.56,-7.25,7.25,7.25,7.27
24.65,17.00,9.73,17.00,9.74,-9.73,-9.53,-7.44,7.27,7.28,7.27
24.89,17.00,9.74,16.99,9.73,-9.70,-9.50,-7.63,7.30,7.29,7.26
25.14,16.97,9.72,16.97,9.71,-9.68,-9.47,-7.83,7.29,7.29,7.25
25.39,16.92,9.67,16.92,9.67,-9.65,-9.44,-8.03,7.27,7.27,7.25
25.65,16.87,9.62,16.87,9.62,-9.62,-9.41,-8.23,7.25,7.25,7.25
25.91,16.82,9.57,16.82,9.57,-9.59,-9.38,-8.43,7.23,7.23,7.25
26.16,16.78,9.53,16.79,9.54,-9.56,-9.35,-8.64,7.22,7.23,7.25
26.43,16.76,9.52,16.76,9.51,-9.53,-9.33,-8.84,7.24,7.23,7.24
26.69,16.73,9.49,16.73,9.49,-9.50,-9.30,-9.05,7.23,7.23,7.24
26.96,16.70,9.47,16.71,9.48,-9.47,-9.27,-9.25,7.23,7.23,7.23
27.23,16.68,9.46,16.68,9.46,-9.45,-9.24,-9.46,7.23,7.23,7.22
27.50,16.65,9.44,16.65,9.43,-9.43,-9.21,-9.66,7.22,7.22,7.22
27.77,16.62,9.41,16.62,9.41,-9.41,-9.18,-9.86,7.21,7.21,7.21
28.05,16.59,9.38,16.59,9.38,-9.39,-9.15,-10.05,7.20,7.21,7.21
28.33,16.57,9.36,16.57,9.36,-9.36,-9.12,-10.23,7.21,7.21,7.21
28.62,16.54,9.34,16.54,9.34,-9.32,-9.09,-10.41,7.22,7.22,7.20
28.90,16.51,9.30,16.51,9.30,-9.28,-9.06,-10.57,7.23,7.23,7.21
29.19,16.46,9.25,16.46,9.25,-9.23,-9.03,-10.73,7.23,7.22,7.21
29.48,16.40,9.18,16.40,9.19,-9.19,-9.00,-10.87,7.21,7.21,7.22
29.78,16.34,9.13,16.34,9.13,-9.15,-8.97,-10.99,7.19,7.20,7.22
30.08,16.29,9.07,16.30,9.08,-9.10,-8.95,-11.10,7.19,7.19,7.22
30.38,16.26,9.05,16.26,9.05,-9.06,-8.92,-11.20,7.20,7.20,7.21
30.68,16.23,9.02,16.23,9.02,-9.01,-8.89,-11.27,7.22,7.22,7.21
30.99,16.20,9.00,16.20,8.99,-8.97,-8.86,-11.33,7.23,7.23,7.20
31.30,16.15,8.95,16.15,8.95,-8.93,-8.83,-11.36,7.22,7.22,7.20
31.61,16.09,8.90,16.09,8.90,-8.89,-8.80,-11.38,7.20,7.20,7.19
31.93,16.03,8.85,16.04,8.85,-8.86,-8.77,-11.37,7.17,7.18,7.18
32.24,15.99,8.81,15.99,8.81,-8.83,-8.74,-11.35,7.16,7.16,7.18
32.57,15.95,8.78,15.95,8.78,-8.81,-8.71,-11.31,7.15,7.14,7.17
32.89,15.91,8.75,15.92,8.76,-8.78,-8.69,-11.25,7.13,7.14,7.16
33.22,15.90,8.75,15.91,8.75,-8.76,-8.66,-11.18,7.14,7.15,7.15
33.55,15.90,8.75,15.90,8.75,-8.74,-8.63,-11.09,7.16,7.16,7.15
33.89,15.90,8.75,15.89,8.74,-8.71,-8.60,-10.99,7.19,7.18,7.15
34.23,15.85,8.72,15.85,8.71,-8.68,-8.57,-10.88,7.17,7.17,7.14
34.57,15.79,8.66,15.79,8.66,-8.64,-8.55,-10.76,7.15,7.15,7.13
34.92,15.72,8.60,15.73,8.60,-8.60,-8.52,-10.63,7.12,7.12,7.12
35.27,15.66,8.53,15.66,8.54,-8.56,-8.49,-10.50,7.10,7.10,7.13
35.62,15.60,8.50,15.60,8.49,-8.51,-8.46,-10.36,7.09,7.09,7.10
35.97,15.54,8.45,15.55,8.45,-8.47,-8.43,-10.22,7.07,7.08,7.09
36.33,15.50,8.42,15.50,8.42,-8.42,-8.41,-10.07,7.08,7.08,7.08
36.70,15.46,8.40,15.46,8.39,-8.39,-8.38,-9.93,7.07,7.07,7.06
37.06,15.42,8.37,15.42,8.37,-8.36,-8.35,-9.78,7.06,7.05,7.05
37.43,15.37,8.33,15.37,8.34,-8.34,-8.33,-9.64,7.03,7.03,7.04
37.81,15.32,8.31,15.32,8.31,-8.32,-8.30,-9.50,7.00,7.00,7.01
38.19,15.28,8.29,15.29,8.30,-8.30,-8.27,-9.36,6.98,6.98,6.99
38.57,15.25,8.29,15.25,8.29,-8.29,-8.24,-9.22,6.96,6.96,6.96
38.95,15.22,8.28,15.21,8.27,-8.27,-8.22,-9.09,6.95,6.94,6.94
39.34,15.17,8.26,15.17,8.26,-8.26,-8.19,-8.97,6.91,6.91,6.91
39.74,15.12,8.23,15.13,8.24,-8.24,-8.17,-8.84,6.88,6.89,6.89
40.14,15.08,8.22,15.08,8.22,-8.22,-8.14,-8.72,6.87,6.87,6.86
40.54,15.04,8.20,15.04,8.20,-8.19,-8.11,-8.61,6.85,6.85,6.84
40.94,15.00,8.19,14.99,8.17,-8.16,-8.09,-8.50,6.84,6.83,6.81
41.35,14.93,8.13,14.93,8.13,-8.12,-8.06,-8.40,6.81,6.80,6.80
41.76,14.85,8.08,14.86,8.08,-8.09,-8.04,-8.30,6.76,6.77,6.77
42.18,14.79,8.03,14.79,8.04,-8.06,-8.01,-8.21,6.73,6.73,6.76
42.60,14.74,8.01,14.74,8.01,-8.02,-7.98,-8.12,6.72,6.71,6.73
43.03,14.69,7.99,14.69,7.98,-7.99,-7.96,-8.04,6.70,6.70,6.70
43.46,14.64,7.95,14.64,7.96,-7.95,-7.93,-7.97,6.69,6.69,6.69
43.90,14.60,7.94,14.60,7.94,-7.92,-7.91,-7.90,6.68,6.68,6.66
44.33,14.54,7.91,14.54,7.91,-7.89,-7.88,-7.84,6.65,6.65,6.63
44.78,14.48,7.88,14.48,7.87,-7.86,-7.86,-7.78,6.62,6.61,6.60
45.23,14.41,7.82,14.41,7.83,-7.85,-7.84,-7.73,6.56,6.56,6.59
45.68,14.34,7.79,14.35,7.80,-7.83,-7.81,-7.68,6.51,6.51,6.55
46.13,14.29,7.78,14.31,7.79,-7.82,-7.79,-7.64,6.47,6.49,6.51
46.60,14.29,7.81,14.29,7.80,-7.81,-7.76,-7.60,6.48,6.47,6.48
47.06,14.28,7.83,14.27,7.82,-7.80,-7.74,-7.57,6.48,6.47,6.45
47.53,14.23,7.81,14.24,7.82,-7.79,-7.71,-7.55,6.44,6.44,6.42
48.01,14.18,7.82,14.18,7.81,-7.78,-7.69,-7.52,6.40,6.40,6.36
48.49,14.11,7.78,14.11,7.78,-7.76,-7.67,-7.51,6.35,6.34,6.33
48.97,14.03,7.74,14.04,7.75,-7.74,-7.64,-7.50,6.29,6.29,6.29
49.46,13.96,7.71,13.96,7.71,-7.72,-7.62,-7.49,6.24,6.24,6.25
49.96,13.89,7.69,13.89,7.68,-7.69,-7.60,-7.49,6.20,6.20,6.20
50.46,13.82,7.64,13.82,7.65,-7.66,-7.57,-7.49,6.16,6.16,6.18
50.96,13.76,7.62,13.77,7.63,-7.64,-7.55,-7.49,6.12,6.13,6.15
51.47,13.73,7.62,13.73,7.62,-7.62,-7.53,-7.50,6.11,6.11,6.11
51.99,13.69,7.62,13.68,7.61,-7.60,-7.50,-7.51,6.09,6.08,6.07
52.51,13.63,7.59,13.64,7.60,-7.59,-7.48,-7.52,6.04,6.04,6.04
53.03,13.58,7.58,13.58,7.58,-7.58,-7.46,-7.53,6.00,6.00,6.00
53.56,13.52,7.56,13.52,7.57,-7.57,-7.44,-7.55,5.95,5.96,5.96
54.10,13.47,7.56,13.47,7.55,-7.55,-7.41,-7.56,5.92,5.91,5.91
54.64,13.41,7.53,13.41,7.54,-7.54,-7.39,-7.58,5.87,5.87,5.88
55.18,13.35,7.52,13.36,7.52,-7.52,-7.37,-7.60,5.83,5.84,5.83
55.74,13.30,7.51,13.30,7.49,-7.49,-7.35,-7.61,5.81,5.80,5.79
56.29,13.24,7.47,13.23,7.47,-7.47,-7.32,-7.63,5.77,5.76,5.77
56.86,13.15,7.41,13.17,7.44,-7.44,-7.30,-7.64,5.71,5.73,5.74
57.42,13.10,7.42,13.11,7.41,-7.41,-7.28,-7.65,5.69,5.70,5.68
58.00,13.06,7.40,13.04,7.37,-7.37,-7.26,-7.66,5.69,5.67,5.66
58.58,12.97,7.33,12.98,7.34,-7.34,-7.24,-7.66,5.63,5.64,5.64
59.16,12.90,7.29,12.92,7.31,-7.30,-7.22,-7.66,5.60,5.61,5.61
59.76,12.86,7.28,12.84,7.26,-7.27,-7.19,-7.66,5.59,5.57,5.58
60.35,12.78,7.25,12.77,7.23,-7.25,-7.17,-7.65,5.53,5.53,5.53
60.96,12.68,7.18,12.71,7.21,-7.22,-7.15,-7.64,5.46,5.49,5.50
61.57,12.64,7.20,12.64,7.19,-7.19,-7.13,-7.62,5.45,5.44,5.44
62.18,12.59,7.20,12.57,7.18,-7.17,-7.11,-7.60,5.42,5.40,5.39
62.80,12.50,7.16,12.52,7.18,-7.16,-7.09,-7.57,5.34,5.35,5.34
63.43,12.44,7.15,12.45,7.15,-7.16,-7.07,-7.54,5.28,5.29,5.29
64.07,12.40,7.15,12.38,7.13,-7.15,-7.05,-7.50,5.25,5.22,5.25
64.71,12.31,7.10,12.33,7.12,-7.15,-7.03,-7.45,5.16,5.18,5.21
65.35,12.27,7.11,12.29,7.13,-7.14,-7.00,-7.40,5.14,5.16,5.16
66.01,12.28,7.16,12.27,7.15,-7.12,-6.98,-7.35,5.16,5.15,5.12
66.67,12.25,7.17,12.23,7.16,-7.11,-6.96,-7.29,5.15,5.13,5.08
67.33,12.17,7.14,12.16,7.12,-7.09,-6.94,-7.23,5.08,5.07,5.03
68.01,12.04,7.06,12.05,7.06,-7.08,-6.92,-7.16,4.97,4.98,4.98
68.69,11.94,7.00,11.96,7.02,-7.06,-6.90,-7.10,4.88,4.90,4.94
69.37,11.89,6.99,11.90,7.00,-7.04,-6.88,-7.02,4.85,4.86,4.90
70.07,11.87,7.02,11.86,7.01,-7.02,-6.86,-6.95,4.85,4.84,4.85
70.77,11.83,7.03,11.81,7.01,-7.00,-6.84,-6.88,4.83,4.81,4.80
71.48,11.75,6.99,11.76,7.00,-6.98,-6.82,-6.80,4.77,4.78,4.76
72.19,11.67,6.96,11.69,6.98,-6.97,-6.80,-6.72,4.70,4.72,4.71
72.91,11.65,6.99,11.61,6.95,-6.95,-6.78,-6.65,4.70,4.66,4.66
73.64,11.53,6.92,11.55,6.94,-6.94,-6.76,-6.57,4.59,4.62,4.61
74.38,11.47,6.90,11.49,6.91,-6.92,-6.74,-6.50,4.55,4.57,4.57
75.12,11.45,6.92,11.41,6.88,-6.89,-6.72,-6.42,4.56,4.52,4.53
75.87,11.34,6.84,11.36,6.86,-6.87,-6.70,-6.35,4.47,4.49,4.50
76.63,11.29,6.84,11.30,6.85,-6.84,-6.68,-6.28,4.45,4.47,4.45
77.40,11.25,6.83,11.23,6.81,-6.81,-6.66,-6.21,4.44,4.42,4.42
78.17,11.19,6.81,11.18,6.80,-6.79,-6.64,-6.15,4.41,4.39,4.38
78.95,11.08,6.73,11.12,6.76,-6.76,-6.62,-6.08,4.32,4.36,4.36
79.74,11.07,6.75,11.04,6.72,-6.74,-6.60,-6.02,4.33,4.31,4.32
80.54,10.98,6.69,10.97,6.68,-6.71,-6.58,-5.97,4.27,4.26,4.29
81.35,10.90,6.65,10.94,6.68,-6.68,-6.56,-5.92,4.22,4.26,4.25
82.16,10.87,6.65,10.87,6.66,-6.65,-6.54,-5.87,4.22,4.23,4.22
82.98,10.87,6.69,10.82,6.64,-6.61,-6.52,-5.82,4.26,4.20,4.18
83.81,10.71,6.57,10.74,6.60,-6.58,-6.50,-5.78,4.13,4.16,4.14
84.65,10.65,6.55,10.65,6.55,-6.55,-6.48,-5.74,4.10,4.09,4.10
85.50,10.56,6.50,10.56,6.50,-6.52,-6.46,-5.71,4.04,4.03,4.06
86.35,10.48,6.46,10.50,6.48,-6.49,-6.44,-5.68,3.99,4.01,4.02
87.22,10.45,6.47,10.43,6.45,-6.46,-6.42,-5.65,3.99,3.97,3.98
88.09,10.39,6.45,10.37,6.43,-6.43,-6.40,-5.63,3.96,3.94,3.94
88.97,10.27,6.38,10.32,6.42,-6.41,-6.37,-5.62,3.86,3.91,3.90
89.86,10.27,6.42,10.25,6.39,-6.38,-6.35,-5.60,3.89,3.86,3.85
90.76,10.19,6.38,10.17,6.36,-6.36,-6.33,-5.59,3.83,3.81,3.81
91.66,10.08,6.32,10.10,6.34,-6.34,-6.31,-5.59,3.74,3.76,3.76
92.58,10.01,6.30,10.02,6.31,-6.32,-6.29,-5.59,3.69,3.70,3.71
93.51,9.96,6.29,9.96,6.29,-6.30,-6.27,-5.59,3.66,3.66,3.67
94.44,9.90,6.28,9.89,6.27,-6.27,-6.25,-5.60,3.63,3.62,3.62
95.39,9.82,6.26,9.82,6.25,-6.25,-6.23,-5.61,3.58,3.57,3.57
96.34,9.72,6.21,9.74,6.23,-6.22,-6.21,-5.62,3.50,3.52,3.51
97.30,9.65,6.20,9.64,6.19,-6.19,-6.19,-5.64,3.46,3.45,3.45
98.28,9.57,6.18,9.56,6.17,-6.16,-6.17,-5.66,3.41,3.40,3.40
99.26,9.45,6.12,9.47,6.14,-6.13,-6.15,-5.68,3.32,3.34,3.33
100.25,9.39,6.12,9.37,6.10,-6.10,-6.12,-5.71,3.29,3.27,3.27
101.25,9.28,6.06,9.28,6.06,-6.07,-6.10,-5.74,3.21,3.21,3.22
102.27,9.18,6.01,9.20,6.04,-6.04,-6.08,-5.77,3.14,3.16,3.17
103.29,9.13,6.02,9.11,6.00,-6.01,-6.06,-5.80,3.12,3.10,3.11
104.32,9.05,5.99,9.04,5.98,-5.98,-6.04,-5.84,3.07,3.06,3.06
105.37,8.93,5.94,8.96,5.96,-5.95,-6.02,-5.87,2.98,3.01,2.99
106.42,8.89,5.95,8.86,5.92,-5.92,-5.99,-5.91,2.97,2.94,2.94
107.48,8.78,5.90,8.78,5.90,-5.89,-5.97,-5.95,2.89,2.88,2.88
108.56,8.67,5.84,8.70,5.88,-5.87,-5.95,-5.98,2.80,2.84,2.83
109.64,8.63,5.86,8.60,5.83,-5.84,-5.93,-6.02,2.79,2.76,2.77
110.74,8.53,5.82,8.52,5.80,-5.81,-5.90,-6.05,2.72,2.71,2.71
111.85,8.41,5.74,8.46,5.79,-5.79,-5.88,-6.09,2.63,2.67,2.67
112.97,8.39,5.77,8.37,5.76,-5.76,-5.86,-6.12,2.63,2.61,2.62
114.10,8.34,5.77,8.30,5.74,-5.74,-5.84,-6.15,2.60,2.56,2.57
115.24,8.20,5.69,8.24,5.73,-5.72,-5.81,-6.17,2.48,2.52,2.51
116.39,8.17,5.71,8.16,5.70,-5.70,-5.79,-6.19,2.47,2.45,2.46
117.55,8.11,5.69,8.09,5.68,-5.69,-5.77,-6.21,2.42,2.40,2.42
118.73,8.01,5.64,8.04,5.67,-5.67,-5.74,-6.22,2.34,2.38,2.37
119.92,8.00,5.67,7.98,5.65,-5.65,-5.72,-6.23,2.35,2.33,2.33
121.12,7.93,5.63,7.92,5.63,-5.62,-5.69,-6.23,2.31,2.30,2.30
122.33,7.85,5.59,7.87,5.61,-5.59,-5.67,-6.23,2.26,2.28,2.26
123.55,7.81,5.59,7.80,5.57,-5.56,-5.65,-6.22,2.25,2.23,2.23
124.79,7.73,5.54,7.73,5.54,-5.53,-5.62,-6.21,2.20,2.19,2.19
126.03,7.64,5.49,7.65,5.50,-5.50,-5.60,-6.18,2.14,2.15,2.15
127.29,7.57,5.46,7.57,5.46,-5.47,-5.57,-6.16,2.10,2.10,2.11
128.57,7.50,5.43,7.50,5.43,-5.44,-5.55,-6.12,2.06,2.06,2.07
129.85,7.45,5.41,7.44,5.40,-5.41,-5.52,-6.09,2.04,2.03,2.04
131.15,7.38,5.38,7.38,5.38,-5.39,-5.49,-6.04,2.00,2.00,2.00
132.46,7.32,5.36,7.32,5.36,-5.36,-5.47,-5.99,1.96,1.96,1.96
133.79,7.27,5.36,7.26,5.34,-5.34,-5.44,-5.94,1.93,1.92,1.92
135.12,7.20,5.32,7.20,5.32,-5.32,-5.42,-5.88,1.88,1.88,1.88
136.48,7.14,5.30,7.14,5.30,-5.30,-5.39,-5.81,1.84,1.84,1.84
137.84,7.08,5.27,7.08,5.28,-5.28,-5.36,-5.75,1.80,1.80,1.81
139.22,7.01,5.26,7.02,5.26,-5.25,-5.34,-5.68,1.76,1.77,1.75
140.61,6.96,5.23,6.96,5.23,-5.22,-5.31,-5.60,1.74,1.74,1.73
142.02,6.89,5.20,6.88,5.19,-5.19,-5.28,-5.53,1.70,1.69,1.69
143.44,6.80,5.16,6.81,5.16,-5.16,-5.25,-5.45,1.65,1.65,1.65
144.87,6.71,5.10,6.73,5.12,-5.12,-5.23,-5.37,1.59,1.61,1.61
146.32,6.67,5.10,6.65,5.07,-5.09,-5.20,-5.30,1.58,1.56,1.57
147.78,6.58,5.05,6.58,5.05,-5.06,-5.17,-5.22,1.52,1.53,1.53
149.26,6.50,5.00,6.52,5.03,-5.02,-5.14,-5.14,1.48,1.50,1.50
150.75,6.47,5.02,6.44,4.99,-4.99,-5.11,-5.06,1.48,1.45,1.45
152.26,6.38,4.96,6.38,4.96,-4.96,-5.08,-4.98,1.42,1.42,1.42
153.78,6.28,4.90,6.32,4.94,-4.93,-5.05,-4.91,1.35,1.39,1.38
155.32,6.27,4.92,6.25,4.90,-4.89,-5.02,-4.83,1.38,1.36,1.35
156.88,6.19,4.88,6.18,4.87,-4.86,-4.99,-4.76,1.33,1.32,1.31
158.44,6.09,4.83,6.10,4.83,-4.83,-4.96,-4.69,1.26,1.27,1.26
160.03,5.99,4.77,6.01,4.79,-4.80,-4.93,-4.62,1.19,1.21,1.22
161.63,5.93,4.75,5.93,4.75,-4.77,-4.90,-4.55,1.16,1.16,1.18
163.24,5.88,4.75,5.87,4.74,-4.75,-4.87,-4.49,1.13,1.12,1.13
164.88,5.80,4.71,5.81,4.72,-4.73,-4.84,-4.43,1.08,1.09,1.09
166.53,5.76,4.72,5.76,4.71,-4.70,-4.81,-4.37,1.06,1.05,1.04
168.19,5.69,4.69,5.69,4.70,-4.68,-4.77,-4.31,1.01,1.01,1.00
169.87,5.64,4.69,5.63,4.67,-4.66,-4.74,-4.26,0.98,0.97,0.95
171.57,5.54,4.63,5.55,4.63,-4.63,-4.71,-4.21,0.91,0.92,0.91
173.29,5.46,4.59,5.47,4.60,-4.60,-4.68,-4.16,0.86,0.87,0.87
175.02,5.39,4.56,5.39,4.56,-4.57,-4.64,-4.12,0.82,0.82,0.83
176.77,5.33,4.55,5.32,4.53,-4.54,-4.61,-4.08,0.79,0.78,0.78
178.54,5.24,4.49,5.25,4.51,-4.51,-4.57,-4.04,0.73,0.74,0.75
180.32,5.18,4.48,5.18,4.48,-4.49,-4.54,-4.01,0.69,0.70,0.70
182.13,5.13,4.47,5.13,4.46,-4.46,-4.51,-3.98,0.67,0.66,0.66
183.95,5.07,4.44,5.08,4.45,-4.45,-4.47,-3.95,0.63,0.63,0.63
185.79,5.03,4.44,5.02,4.43,-4.43,-4.44,-3.92,0.60,0.59,0.59
187.65,4.97,4.41,4.97,4.41,-4.42,-4.40,-3.90,0.55,0.55,0.56
189.52,4.91,4.39,4.92,4.40,-4.40,-4.36,-3.88,0.51,0.52,0.52
191.42,4.88,4.38,4.87,4.38,-4.39,-4.33,-3.86,0.50,0.49,0.50
193.33,4.83,4.37,4.83,4.37,-4.36,-4.29,-3.85,0.47,0.47,0.46
195.27,4.77,4.35,4.78,4.35,-4.34,-4.25,-3.83,0.43,0.44,0.42
197.22,4.73,4.34,4.72,4.33,-4.31,-4.22,-3.82,0.42,0.40,0.39
199.19,4.64,4.28,4.64,4.29,-4.28,-4.18,-3.82,0.36,0.36,0.36
201.18,4.56,4.24,4.57,4.24,-4.25,-4.14,-3.81,0.31,0.32,0.32
203.19,4.49,4.19,4.49,4.19,-4.21,-4.10,-3.81,0.28,0.28,0.30
205.23,4.43,4.16,4.43,4.16,-4.17,-4.06,-3.80,0.26,0.26,0.27
207.28,4.37,4.12,4.37,4.13,-4.12,-4.03,-3.80,0.25,0.25,0.25
209.35,4.30,4.10,4.30,4.09,-4.06,-3.99,-3.80,0.24,0.24,0.20
211.44,4.23,4.05,4.21,4.04,-4.01,-3.95,-3.80,0.22,0.20,0.18
213.56,4.11,3.96,4.11,3.96,-3.96,-3.91,-3.80,0.15,0.15,0.15
215.69,4.00,3.88,4.01,3.89,-3.91,-3.87,-3.80,0.09,0.10,0.12
217.85,3.93,3.83,3.94,3.84,-3.87,-3.83,-3.80,0.06,0.07,0.10
220.03,3.88,3.82,3.88,3.81,-3.83,-3.79,-3.81,0.05,0.04,0.06
222.23,3.84,3.80,3.82,3.78,-3.80,-3.74,-3.81,0.04,0.02,0.04
224.45,3.76,3.74,3.78,3.77,-3.77,-3.70,-3.80,-0.01,0.01,0.02
226.70,3.73,3.73,3.74,3.75,-3.74,-3.66,-3.80,-0.01,0.01,-0.00
228.96,3.73,3.74,3.70,3.72,-3.70,-3.62,-3.80,0.03,0.00,-0.01
231.25,3.66,3.69,3.67,3.70,-3.65,-3.58,-3.79,0.01,0.01,-0.03
233.57,3.59,3.63,3.60,3.65,-3.60,-3.53,-3.78,-0.01,-0.01,-0.04
235.90,3.52,3.58,3.50,3.56,-3.55,-3.49,-3.77,-0.03,-0.05,-0.06
238.26,3.40,3.47,3.41,3.47,-3.49,-3.45,-3.75,-0.09,-0.09,-0.07
240.64,3.31,3.37,3.32,3.39,-3.44,-3.40,-3.74,-0.13,-0.11,-0.06
243.05,3.27,3.34,3.27,3.34,-3.38,-3.36,-3.72,-0.11,-0.11,-0.07
245.48,3.24,3.31,3.26,3.33,-3.33,-3.31,-3.69,-0.09,-0.07,-0.07
247.93,3.25,3.33,3.24,3.31,-3.29,-3.27,-3.66,-0.04,-0.05,-0.07
250.41,3.24,3.30,3.20,3.27,-3.26,-3.22,-3.63,-0.02,-0.05,-0.06
252.92,3.13,3.19,3.17,3.23,-3.23,-3.18,-3.59,-0.10,-0.06,-0.06
255.45,3.11,3.19,3.12,3.20,-3.20,-3.13,-3.55,-0.09,-0.08,-0.08
258.00,3.11,3.19,3.09,3.17,-3.17,-3.09,-3.51,-0.06,-0.08,-0.08
260.58,3.06,3.15,3.06,3.15,-3.13,-3.04,-3.46,-0.07,-0.07,-0.09
263.19,3.01,3.11,3.01,3.10,-3.09,-2.99,-3.41,-0.08,-0.08,-0.10
265.82,2.93,3.03,2.94,3.05,-3.04,-2.95,-3.36,-0.11,-0.10,-0.10
268.48,2.87,2.99,2.87,2.99,-3.00,-2.90,-3.30,-0.13,-0.12,-0.12
271.16,2.82,2.95,2.81,2.93,-2.95,-2.85,-3.24,-0.12,-0.14,-0.13
273.87,2.73,2.87,2.74,2.89,-2.89,-2.80,-3.17,-0.16,-0.14,-0.14
276.61,2.68,2.83,2.67,2.83,-2.83,-2.76,-3.11,-0.14,-0.15,-0.15
279.38,2.61,2.78,2.61,2.77,-2.76,-2.71,-3.04,-0.15,-0.15,-0.17
282.17,2.54,2.70,2.54,2.71,-2.70,-2.66,-2.97,-0.16,-0.15,-0.16
284.99,2.49,2.66,2.47,2.63,-2.63,-2.61,-2.89,-0.14,-0.16,-0.17
287.84,2.37,2.53,2.39,2.56,-2.57,-2.56,-2.82,-0.20,-0.18,-0.16
290.72,2.32,2.50,2.32,2.49,-2.50,-2.51,-2.74,-0.18,-0.18,-0.18
293.63,2.25,2.43,2.26,2.43,-2.44,-2.46,-2.67,-0.19,-0.18,-0.18
296.57,2.21,2.38,2.21,2.38,-2.38,-2.41,-2.59,-0.17,-0.17,-0.17
299.53,2.17,2.34,2.16,2.33,-2.33,-2.36,-2.51,-0.16,-0.17,-0.17
302.53,2.09,2.26,2.10,2.27,-2.28,-2.31,-2.43,-0.19,-0.18,-0.17
305.55,2.05,2.22,2.05,2.22,-2.24,-2.26,-2.36,-0.19,-0.19,-0.17
308.61,2.00,2.17,2.02,2.19,-2.19,-2.21,-2.28,-0.19,-0.18,-0.17
311.69,1.99,2.16,1.99,2.16,-2.15,-2.15,-2.20,-0.16,-0.16,-0.17
314.81,1.97,2.14,1.94,2.11,-2.10,-2.10,-2.12,-0.13,-0.16,-0.17
317.96,1.87,2.05,1.89,2.07,-2.05,-2.05,-2.04,-0.18,-0.16,-0.18
321.14,1.81,1.99,1.83,2.01,-2.00,-2.00,-1.97,-0.19,-0.17,-0.18
324.35,1.79,1.97,1.75,1.93,-1.94,-1.95,-1.89,-0.15,-0.19,-0.18
327.59,1.68,1.86,1.70,1.88,-1.88,-1.89,-1.81,-0.20,-0.18,-0.17
330.87,1.61,1.79,1.64,1.82,-1.82,-1.84,-1.74,-0.20,-0.18,-0.18
334.18,1.59,1.78,1.56,1.74,-1.75,-1.79,-1.67,-0.16,-0.19,-0.19
337.52,1.51,1.69,1.51,1.69,-1.69,-1.73,-1.59,-0.18,-0.18,-0.18
340.90,1.42,1.59,1.44,1.62,-1.62,-1.68,-1.52,-0.20,-0.18,-0.17
344.30,1.39,1.56,1.38,1.55,-1.56,-1.63,-1.45,-0.17,-0.18,-0.17
347.75,1.33,1.50,1.33,1.50,-1.49,-1.57,-1.38,-0.16,-0.16,-0.17
351.23,1.28,1.45,1.28,1.44,-1.43,-1.52,-1.31,-0.15,-0.15,-0.17
354.74,1.22,1.37,1.22,1.38,-1.37,-1.46,-1.24,-0.15,-0.15,-0.15
358.28,1.15,1.30,1.15,1.30,-1.31,-1.41,-1.17,-0.16,-0.16,-0.15
361.87,1.10,1.25,1.09,1.24,-1.25,-1.36,-1.10,-0.15,-0.16,-0.15
365.49,1.02,1.16,1.04,1.18,-1.20,-1.30,-1.04,-0.18,-0.16,-0.14
369.14,1.01,1.14,1.01,1.14,-1.15,-1.25,-0.97,-0.14,-0.14,-0.13
372.83,0.98,1.10,0.97,1.10,-1.09,-1.19,-0.91,-0.11,-0.12,-0.12
376.56,0.94,1.07,0.93,1.06,-1.04,-1.14,-0.85,-0.10,-0.10,-0.13
380.33,0.87,0.99,0.88,1.01,-0.99,-1.08,-0.78,-0.12,-0.10,-0.12
384.13,0.83,0.96,0.83,0.95,-0.94,-1.03,-0.72,-0.11,-0.11,-0.12
387.97,0.77,0.89,0.77,0.89,-0.89,-0.97,-0.66,-0.12,-0.12,-0.12
391.85,0.70,0.82,0.70,0.83,-0.84,-0.92,-0.60,-0.14,-0.14,-0.12
395.77,0.65,0.78,0.63,0.76,-0.79,-0.86,-0.54,-0.14,-0.16,-0.13
399.73,0.56,0.70,0.59,0.72,-0.74,-0.80,-0.48,-0.18,-0.15,-0.14
403.72,0.54,0.67,0.55,0.69,-0.68,-0.75,-0.43,-0.14,-0.13,-0.13
407.76,0.55,0.69,0.50,0.64,-0.63,-0.69,-0.37,-0.08,-0.13,-0.14
411.84,0.44,0.59,0.45,0.60,-0.58,-0.64,-0.31,-0.14,-0.13,-0.15
415.96,0.35,0.50,0.38,0.54,-0.52,-0.58,-0.26,-0.17,-0.14,-0.15
420.12,0.32,0.49,0.30,0.46,-0.47,-0.53,-0.20,-0.15,-0.17,-0.17
424.32,0.26,0.42,0.24,0.39,-0.42,-0.47,-0.15,-0.16,-0.18,-0.16
428.56,0.18,0.32,0.21,0.35,-0.36,-0.42,-0.10,-0.18,-0.16,-0.14
432.85,0.16,0.28,0.19,0.31,-0.31,-0.36,-0.05,-0.15,-0.12,-0.12
437.18,0.21,0.31,0.17,0.26,-0.25,-0.31,0.00,-0.04,-0.09,-0.10
441.55,0.17,0.24,0.15,0.22,-0.20,-0.25,0.05,-0.03,-0.05,-0.07
445.96,0.08,0.11,0.13,0.16,-0.15,-0.20,0.10,-0.07,-0.02,-0.03
450.42,0.12,0.10,0.12,0.10,-0.11,-0.14,0.15,0.01,0.01,0.02
454.93,0.15,0.08,0.13,0.06,-0.07,-0.09,0.19,0.08,0.06,0.07
459.48,0.15,0.03,0.14,0.02,-0.03,-0.03,0.24,0.12,0.12,0.12
464.07,0.13,-0.06,0.15,-0.03,0.02,0.02,0.28,0.15,0.17,0.19
468.71,0.17,-0.08,0.18,-0.06,0.06,0.08,0.32,0.23,0.24,0.25
473.40,0.22,-0.08,0.20,-0.10,0.10,0.13,0.36,0.32,0.30,0.30
478.13,0.25,-0.10,0.23,-0.12,0.14,0.18,0.40,0.39,0.37,0.36
482.91,0.21,-0.19,0.25,-0.16,0.18,0.24,0.44,0.39,0.43,0.40
487.74,0.25,-0.20,0.23,-0.22,0.23,0.29,0.48,0.48,0.46,0.45
492.62,0.23,-0.26,0.20,-0.29,0.27,0.34,0.51,0.50,0.47,0.49
497.55,0.14,-0.38,0.18,-0.34,0.32,0.40,0.55,0.46,0.51,0.52
