frequency,raw,error,smoothed,error_smoothed,equalization,parametric_eq,fixed_band_eq,equalized_raw,equalized_smoothed,target
20.00,12.97,5.74,12.97,5.74,-5.74,-5.65,-2.88,7.23,7.22,7.23
20.20,12.99,5.76,12.99,5.77,-5.77,-5.68,-2.96,7.22,7.22,7.23
20.40,13.02,5.80,13.02,5.80,-5.80,-5.71,-3.04,7.22,7.22,7.21
20.61,13.04,5.82,13.04,5.83,-5.82,-5.73,-3.13,7.21,7.21,7.21
20.81,13.06,5.85,13.06,5.86,-5.85,-5.76,-3.22,7.21,7.21,7.20
21.02,13.09,5.88,13.08,5.88,-5.88,-5.79,-3.31,7.21,7.20,7.20
21.23,13.10,5.90,13.10,5.91,-5.91,-5.81,-3.40,7.19,7.20,7.19
21.44,13.12,5.93,13.12,5.93,-5.93,-5.84,-3.49,7.19,7.19,7.19
21.66,13.14,5.95,13.14,5.95,-5.96,-5.87,-3.59,7.18,7.18,7.18
21.87,13.16,5.98,13.16,5.98,-5.98,-5.89,-3.69,7.18,7.18,7.18
22.09,13.19,6.02,13.18,6.01,-6.01,-5.92,-3.79,7.18,7.18,7.17
22.31,13.21,6.04,13.21,6.04,-6.03,-5.94,-3.89,7.18,7.18,7.17
22.54,13.23,6.06,13.23,6.06,-6.06,-5.96,-4.00,7.17,7.17,7.17
22.76,13.25,6.09,13.24,6.08,-6.08,-5.99,-4.11,7.17,7.16,7.16
22.99,13.26,6.10,13.26,6.10,-6.11,-6.01,-4.23,7.15,7.15,7.16
23.22,13.28,6.13,13.28,6.13,-6.13,-6.04,-4.34,7.15,7.15,7.15
23.45,13.30,6.15,13.30,6.15,-6.15,-6.06,-4.46,7.15,7.15,7.15
23.69,13.32,6.17,13.32,6.17,-6.17,-6.08,-4.58,7.14,7.15,7.15
23.92,13.34,6.20,13.34,6.20,-6.19,-6.10,-4.70,7.14,7.14,7.14
24.16,13.36,6.22,13.36,6.22,-6.22,-6.13,-4.83,7.14,7.14,7.14
24.40,13.37,6.23,13.37,6.24,-6.24,-6.15,-4.95,7.13,7.14,7.14
24.65,13.39,6.25,13.39,6.25,-6.25,-6.17,-5.08,7.13,7.13,7.14
24.89,13.40,6.27,13.40,6.27,-6.27,-6.19,-5.21,7.13,7.13,7.12
25.14,13.42,6.29,13.42,6.29,-6.29,-6.21,-5.34,7.13,7.13,7.12
25.39,13.43,6.31,13.43,6.31,-6.31,-6.23,-5.48,7.12,7.12,7.12
25.65,13.45,6.33,13.45,6.32,-6.32,-6.25,-5.61,7.12,7.12,7.12
25.91,13.46,6.34,13.46,6.34,-6.34,-6.27,-5.75,7.12,7.12,7.12
26.16,13.48,6.36,13.48,6.36,-6.36,-6.29,-5.88,7.12,7.12,7.12
26.43,13.49,6.37,13.49,6.37,-6.37,-6.31,-6.01,7.11,7.12,7.12
26.69,13.51,6.40,13.51,6.39,-6.39,-6.33,-6.15,7.12,7.12,7.11
26.96,13.52,6.41,13.52,6.41,-6.41,-6.35,-6.28,7.11,7.11,7.11
27.23,13.53,6.42,13.53,6.42,-6.42,-6.37,-6.41,7.11,7.11,7.11
27.50,13.54,6.43,13.54,6.43,-6.44,-6.39,-6.53,7.10,7.10,7.11
27.77,13.55,6.44,13.55,6.45,-6.45,-6.40,-6.65,7.10,7.10,7.10
28.05,13.57,6.47,13.56,6.47,-6.47,-6.42,-6.77,7.10,7.10,7.09
28.33,13.57,6.48,13.57,6.48,-6.48,-6.44,-6.89,7.09,7.09,7.09
28.62,13.59,6.50,13.58,6.50,-6.50,-6.45,-6.99,7.09,7.09,7.09
28.90,13.59,6.51,13.59,6.51,-6.51,-6.47,-7.10,7.08,7.08,7.08
29.19,13.61,6.53,13.60,6.53,-6.53,-6.49,-7.19,7.08,7.08,7.08
29.48,13.61,6.53,13.61,6.54,-6.54,-6.50,-7.28,7.07,7.07,7.08
29.78,13.63,6.56,13.62,6.56,-6.55,-6.52,-7.36,7.07,7.07,7.06
30.08,13.63,6.56,13.63,6.57,-6.56,-6.53,-7.43,7.06,7.07,7.06
30.38,13.64,6.58,13.64,6.58,-6.57,-6.55,-7.49,7.06,7.06,7.06
30.68,13.64,6.58,13.64,6.58,-6.58,-6.56,-7.54,7.06,7.06,7.06
30.99,13.65,6.59,13.65,6.59,-6.59,-6.57,-7.58,7.06,7.06,7.06
31.30,13.65,6.59,13.65,6.59,-6.59,-6.59,-7.61,7.06,7.06,7.06
31.61,13.66,6.59,13.66,6.60,-6.60,-6.60,-7.63,7.06,7.06,7.06
31.93,13.66,6.60,13.66,6.60,-6.60,-6.61,-7.64,7.06,7.06,7.06
32.24,13.67,6.61,13.66,6.60,-6.60,-6.62,-7.64,7.06,7.06,7.06
32.57,13.67,6.61,13.67,6.61,-6.61,-6.64,-7.63,7.06,7.06,7.06
32.89,13.67,6.61,13.67,6.62,-6.61,-6.65,-7.62,7.05,7.06,7.06
33.22,13.68,6.62,13.67,6.62,-6.62,-6.66,-7.59,7.06,7.05,7.05
33.55,13.67,6.62,13.67,6.62,-6.62,-6.67,-7.56,7.04,7.05,7.05
33.89,13.68,6.63,13.67,6.63,-6.63,-6.68,-7.52,7.05,7.04,7.05
34.23,13.67,6.63,13.67,6.63,-6.64,-6.69,-7.47,7.03,7.04,7.04
34.57,13.68,6.65,13.67,6.64,-6.64,-6.70,-7.42,7.03,7.03,7.03
34.92,13.67,6.65,13.67,6.65,-6.65,-6.71,-7.36,7.02,7.02,7.02
35.27,13.67,6.66,13.67,6.66,-6.66,-6.72,-7.30,7.01,7.01,7.01
35.62,13.67,6.67,13.66,6.67,-6.67,-6.73,-7.24,7.00,7.00,6.99
35.97,13.66,6.67,13.66,6.67,-6.68,-6.73,-7.18,6.98,6.98,6.99
36.33,13.66,6.68,13.66,6.68,-6.69,-6.74,-7.11,6.97,6.97,6.98
36.70,13.65,6.69,13.65,6.69,-6.70,-6.75,-7.04,6.95,6.95,6.95
37.06,13.65,6.71,13.65,6.71,-6.70,-6.75,-6.97,6.94,6.94,6.94
37.43,13.64,6.71,13.64,6.72,-6.71,-6.76,-6.91,6.92,6.93,6.93
37.81,13.64,6.73,13.63,6.72,-6.72,-6.76,-6.84,6.92,6.91,6.91
38.19,13.63,6.73,13.63,6.73,-6.73,-6.77,-6.77,6.90,6.90,6.90
38.57,13.62,6.72,13.62,6.73,-6.73,-6.77,-6.71,6.88,6.89,6.89
38.95,13.62,6.74,13.61,6.74,-6.74,-6.78,-6.65,6.88,6.88,6.88
39.34,13.61,6.74,13.61,6.74,-6.74,-6.78,-6.59,6.87,6.87,6.86
39.74,13.60,6.74,13.60,6.74,-6.74,-6.78,-6.54,6.86,6.86,6.86
40.14,13.59,6.74,13.58,6.74,-6.74,-6.79,-6.48,6.85,6.85,6.84
40.54,13.57,6.73,13.57,6.74,-6.74,-6.79,-6.43,6.83,6.84,6.84
40.94,13.57,6.73,13.57,6.73,-6.73,-6.79,-6.39,6.84,6.83,6.83
41.35,13.56,6.73,13.56,6.73,-6.73,-6.79,-6.35,6.83,6.83,6.83
41.76,13.55,6.73,13.54,6.72,-6.72,-6.79,-6.31,6.83,6.82,6.82
42.18,13.53,6.71,13.53,6.71,-6.72,-6.79,-6.28,6.81,6.81,6.82
42.60,13.51,6.70,13.51,6.70,-6.71,-6.79,-6.25,6.80,6.81,6.81
43.03,13.51,6.70,13.50,6.70,-6.70,-6.79,-6.23,6.81,6.80,6.80
43.46,13.49,6.69,13.49,6.69,-6.69,-6.79,-6.21,6.80,6.80,6.80
43.90,13.48,6.69,13.48,6.68,-6.68,-6.78,-6.19,6.80,6.80,6.79
44.33,13.46,6.67,13.46,6.67,-6.67,-6.78,-6.18,6.79,6.79,6.79
44.78,13.44,6.65,13.44,6.66,-6.66,-6.77,-6.18,6.78,6.78,6.78
45.23,13.43,6.65,13.42,6.64,-6.65,-6.77,-6.18,6.78,6.78,6.78
45.68,13.41,6.63,13.41,6.63,-6.64,-6.76,-6.18,6.77,6.77,6.78
46.13,13.40,6.63,13.40,6.63,-6.63,-6.76,-6.19,6.77,6.77,6.77
46.60,13.38,6.62,13.38,6.62,-6.62,-6.75,-6.20,6.76,6.76,6.76
47.06,13.37,6.62,13.37,6.61,-6.61,-6.74,-6.22,6.76,6.75,6.75
47.53,13.35,6.61,13.35,6.60,-6.61,-6.74,-6.24,6.74,6.74,6.74
48.01,13.33,6.60,13.33,6.60,-6.60,-6.73,-6.26,6.73,6.73,6.73
48.49,13.31,6.60,13.31,6.59,-6.60,-6.72,-6.29,6.71,6.72,6.71
48.97,13.30,6.60,13.29,6.59,-6.59,-6.71,-6.33,6.71,6.70,6.70
49.46,13.28,6.59,13.28,6.59,-6.59,-6.70,-6.36,6.69,6.69,6.69
49.96,13.26,6.59,13.26,6.59,-6.59,-6.69,-6.40,6.67,6.67,6.67
50.46,13.24,6.58,13.24,6.58,-6.59,-6.68,-6.45,6.65,6.65,6.66
50.96,13.22,6.58,13.22,6.58,-6.59,-6.67,-6.49,6.63,6.63,6.63
51.47,13.21,6.59,13.21,6.59,-6.58,-6.66,-6.54,6.62,6.62,6.62
51.99,13.19,6.59,13.19,6.59,-6.58,-6.65,-6.59,6.60,6.61,6.60
52.51,13.18,6.59,13.17,6.59,-6.58,-6.64,-6.64,6.59,6.59,6.59
53.03,13.15,6.58,13.15,6.58,-6.58,-6.63,-6.70,6.56,6.57,6.57
53.56,13.13,6.58,13.13,6.58,-6.58,-6.62,-6.75,6.55,6.55,6.55
54.10,13.12,6.59,13.11,6.58,-6.58,-6.61,-6.80,6.54,6.53,6.53
54.64,13.09,6.57,13.09,6.58,-6.57,-6.61,-6.86,6.51,6.52,6.52
55.18,13.08,6.58,13.08,6.57,-6.57,-6.60,-6.91,6.51,6.50,6.50
55.74,13.06,6.56,13.06,6.56,-6.57,-6.59,-6.96,6.49,6.49,6.49
56.29,13.04,6.56,13.04,6.56,-6.57,-6.59,-7.01,6.47,6.47,6.48
56.86,13.02,6.56,13.02,6.56,-6.56,-6.58,-7.06,6.45,6.46,6.46
57.42,13.01,6.57,13.01,6.57,-6.56,-6.58,-7.10,6.44,6.44,6.44
58.00,12.99,6.57,12.99,6.57,-6.56,-6.58,-7.14,6.42,6.43,6.42
58.58,12.98,6.58,12.97,6.57,-6.57,-6.58,-7.17,6.41,6.41,6.40
59.16,12.95,6.57,12.95,6.57,-6.57,-6.58,-7.20,6.38,6.38,6.38
59.76,12.93,6.57,12.93,6.57,-6.57,-6.58,-7.23,6.36,6.36,6.36
60.35,12.91,6.57,12.91,6.57,-6.58,-6.58,-7.25,6.33,6.33,6.34
60.96,12.90,6.59,12.89,6.58,-6.58,-6.58,-7.26,6.32,6.31,6.31
61.57,12.87,6.58,12.87,6.59,-6.59,-6.59,-7.26,6.28,6.28,6.28
62.18,12.85,6.59,12.85,6.59,-6.59,-6.59,-7.26,6.25,6.26,6.26
62.80,12.83,6.60,12.83,6.60,-6.60,-6.59,-7.25,6.23,6.23,6.23
63.43,12.81,6.61,12.81,6.61,-6.61,-6.60,-7.24,6.20,6.20,6.20
64.07,12.79,6.62,12.79,6.62,-6.62,-6.60,-7.22,6.17,6.17,6.17
64.71,12.77,6.63,12.76,6.63,-6.62,-6.61,-7.19,6.14,6.14,6.14
65.35,12.74,6.63,12.74,6.63,-6.63,-6.61,-7.15,6.11,6.11,6.11
66.01,12.72,6.63,12.72,6.64,-6.63,-6.62,-7.11,6.08,6.08,6.08
66.67,12.70,6.64,12.69,6.64,-6.64,-6.62,-7.06,6.06,6.05,6.05
67.33,12.67,6.64,12.67,6.64,-6.64,-6.63,-7.01,6.02,6.02,6.02
68.01,12.64,6.64,12.64,6.65,-6.65,-6.63,-6.96,5.99,5.99,5.99
68.69,12.62,6.65,12.61,6.65,-6.65,-6.63,-6.89,5.96,5.96,5.96
69.37,12.59,6.66,12.59,6.66,-6.66,-6.63,-6.83,5.93,5.93,5.93
70.07,12.56,6.66,12.56,6.66,-6.66,-6.64,-6.76,5.89,5.90,5.90
70.77,12.53,6.66,12.53,6.67,-6.67,-6.64,-6.69,5.86,5.86,5.86
71.48,12.50,6.68,12.50,6.67,-6.67,-6.64,-6.62,5.83,5.82,5.82
72.19,12.46,6.67,12.46,6.68,-6.67,-6.64,-6.55,5.78,5.79,5.78
72.91,12.43,6.68,12.42,6.68,-6.68,-6.64,-6.48,5.75,5.75,5.75
73.64,12.39,6.68,12.39,6.67,-6.68,-6.63,-6.40,5.71,5.71,5.71
74.38,12.35,6.67,12.35,6.67,-6.68,-6.63,-6.33,5.67,5.68,5.68
75.12,12.32,6.67,12.31,6.67,-6.67,-6.63,-6.26,5.64,5.64,5.64
75.87,12.28,6.67,12.27,6.67,-6.67,-6.62,-6.19,5.61,5.60,5.60
76.63,12.23,6.67,12.23,6.67,-6.67,-6.62,-6.12,5.56,5.56,5.56
77.40,12.19,6.67,12.19,6.66,-6.66,-6.61,-6.05,5.52,5.52,5.52
78.17,12.14,6.66,12.14,6.66,-6.66,-6.60,-5.99,5.48,5.48,5.48
78.95,12.09,6.65,12.09,6.65,-6.65,-6.60,-5.93,5.44,5.44,5.43
79.74,12.04,6.65,12.04,6.65,-6.64,-6.59,-5.87,5.39,5.39,5.39
80.54,11.98,6.63,11.98,6.63,-6.63,-6.58,-5.82,5.34,5.35,5.35
81.35,11.94,6.63,11.93,6.62,-6.62,-6.57,-5.76,5.32,5.31,5.31
82.16,11.87,6.60,11.87,6.61,-6.61,-6.56,-5.72,5.26,5.26,5.26
82.98,11.81,6.59,11.81,6.59,-6.60,-6.54,-5.67,5.21,5.22,5.22
83.81,11.76,6.58,11.75,6.58,-6.58,-6.53,-5.63,5.18,5.17,5.18
84.65,11.70,6.57,11.70,6.57,-6.56,-6.52,-5.59,5.13,5.13,5.13
85.50,11.63,6.55,11.63,6.55,-6.54,-6.50,-5.56,5.08,5.09,5.08
86.35,11.57,6.53,11.56,6.53,-6.52,-6.49,-5.53,5.04,5.04,5.04
87.22,11.49,6.50,11.49,6.50,-6.50,-6.47,-5.51,4.99,4.99,4.99
88.09,11.42,6.48,11.42,6.48,-6.48,-6.45,-5.49,4.94,4.94,4.94
88.97,11.35,6.45,11.35,6.45,-6.46,-6.44,-5.47,4.89,4.89,4.90
89.86,11.28,6.44,11.28,6.43,-6.43,-6.42,-5.46,4.85,4.84,4.84
90.76,11.20,6.40,11.20,6.41,-6.41,-6.40,-5.45,4.79,4.80,4.80
91.66,11.13,6.38,11.13,6.38,-6.38,-6.38,-5.45,4.75,4.75,4.75
92.58,11.05,6.36,11.05,6.35,-6.35,-6.36,-5.45,4.70,4.69,4.69
93.51,10.97,6.32,10.97,6.33,-6.32,-6.33,-5.45,4.64,4.64,4.65
94.44,10.89,6.30,10.89,6.30,-6.30,-6.31,-5.46,4.59,4.59,4.59
95.39,10.81,6.27,10.80,6.27,-6.27,-6.29,-5.47,4.54,4.53,4.53
96.34,10.72,6.24,10.72,6.24,-6.24,-6.26,-5.48,4.48,4.48,4.48
97.30,10.63,6.21,10.63,6.21,-6.21,-6.24,-5.50,4.41,4.42,4.42
98.28,10.55,6.18,10.54,6.18,-6.18,-6.21,-5.52,4.36,4.36,4.37
99.26,10.46,6.16,10.46,6.16,-6.16,-6.18,-5.55,4.30,4.30,4.30
100.25,10.37,6.13,10.37,6.13,-6.13,-6.15,-5.57,4.24,4.24,4.24
101.25,10.28,6.09,10.27,6.09,-6.10,-6.12,-5.60,4.18,4.18,4.18
102.27,10.18,6.06,10.18,6.06,-6.06,-6.09,-5.63,4.11,4.12,4.12
103.29,10.09,6.03,10.09,6.03,-6.03,-6.06,-5.67,4.06,4.06,4.06
104.32,10.00,6.01,9.99,6.00,-6.00,-6.03,-5.70,4.00,4.00,3.99
105.37,9.90,5.97,9.90,5.96,-5.96,-6.00,-5.74,3.94,3.94,3.93
106.42,9.80,5.92,9.80,5.93,-5.92,-5.96,-5.77,3.87,3.87,3.87
107.48,9.70,5.88,9.70,5.88,-5.89,-5.93,-5.81,3.81,3.81,3.82
108.56,9.60,5.85,9.60,5.84,-5.85,-5.89,-5.84,3.75,3.75,3.75
109.64,9.50,5.81,9.50,5.81,-5.81,-5.85,-5.88,3.69,3.69,3.69
110.74,9.40,5.76,9.40,5.77,-5.77,-5.82,-5.91,3.63,3.63,3.63
111.85,9.31,5.74,9.30,5.73,-5.73,-5.78,-5.94,3.58,3.57,3.57
112.97,9.20,5.69,9.20,5.69,-5.69,-5.74,-5.96,3.51,3.51,3.51
114.10,9.10,5.66,9.10,5.65,-5.65,-5.70,-5.99,3.45,3.44,3.44
115.24,8.99,5.60,8.99,5.61,-5.61,-5.65,-6.00,3.37,3.38,3.39
116.39,8.89,5.58,8.89,5.57,-5.58,-5.61,-6.02,3.31,3.31,3.31
117.55,8.79,5.54,8.78,5.54,-5.54,-5.57,-6.03,3.25,3.25,3.25
118.73,8.68,5.50,8.68,5.50,-5.50,-5.52,-6.03,3.18,3.18,3.18
119.92,8.57,5.46,8.57,5.46,-5.46,-5.48,-6.03,3.10,3.11,3.11
121.12,8.46,5.43,8.46,5.42,-5.43,-5.43,-6.02,3.03,3.03,3.03
122.33,8.35,5.39,8.35,5.39,-5.39,-5.38,-6.00,2.95,2.96,2.96
123.55,8.24,5.35,8.24,5.36,-5.36,-5.33,-5.98,2.88,2.88,2.88
124.79,8.14,5.33,8.13,5.32,-5.32,-5.28,-5.95,2.81,2.81,2.81
126.03,8.02,5.29,8.02,5.29,-5.29,-5.23,-5.91,2.73,2.74,2.73
127.29,7.91,5.25,7.91,5.25,-5.24,-5.18,-5.86,2.66,2.66,2.66
128.57,7.80,5.21,7.79,5.21,-5.20,-5.12,-5.81,2.60,2.59,2.59
129.85,7.68,5.16,7.68,5.16,-5.16,-5.07,-5.74,2.52,2.52,2.52
131.15,7.57,5.11,7.57,5.11,-5.11,-5.01,-5.68,2.46,2.46,2.46
132.46,7.45,5.05,7.45,5.05,-5.05,-4.95,-5.60,2.40,2.40,2.40
133.79,7.34,4.99,7.34,4.99,-4.99,-4.90,-5.52,2.35,2.34,2.34
135.12,7.22,4.93,7.22,4.93,-4.93,-4.84,-5.43,2.29,2.29,2.29
136.48,7.11,4.87,7.11,4.87,-4.87,-4.77,-5.34,2.24,2.24,2.24
137.84,6.99,4.80,6.99,4.80,-4.80,-4.71,-5.24,2.19,2.19,2.19
139.22,6.87,4.73,6.87,4.73,-4.73,-4.65,-5.14,2.14,2.14,2.14
140.61,6.75,4.65,6.75,4.65,-4.65,-4.58,-5.03,2.09,2.10,2.10
142.02,6.64,4.58,6.63,4.58,-4.58,-4.52,-4.92,2.06,2.06,2.06
143.44,6.52,4.50,6.51,4.50,-4.50,-4.45,-4.81,2.02,2.02,2.01
144.87,6.39,4.41,6.39,4.42,-4.42,-4.38,-4.70,1.97,1.98,1.97
146.32,6.27,4.33,6.27,4.33,-4.33,-4.30,-4.58,1.93,1.94,1.93
147.78,6.15,4.24,6.15,4.24,-4.25,-4.23,-4.46,1.90,1.90,1.90
149.26,6.03,4.16,6.03,4.16,-4.16,-4.16,-4.34,1.86,1.86,1.87
150.75,5.90,4.07,5.90,4.07,-4.08,-4.08,-4.22,1.82,1.83,1.83
152.26,5.79,4.00,5.78,3.99,-3.99,-4.00,-4.10,1.80,1.79,1.79
153.78,5.66,3.90,5.66,3.90,-3.90,-3.92,-3.98,1.76,1.76,1.76
155.32,5.54,3.82,5.54,3.81,-3.81,-3.84,-3.86,1.72,1.72,1.72
156.88,5.41,3.72,5.41,3.73,-3.72,-3.75,-3.74,1.68,1.69,1.69
158.44,5.29,3.63,5.29,3.63,-3.63,-3.66,-3.62,1.65,1.65,1.65
160.03,5.17,3.55,5.16,3.54,-3.54,-3.57,-3.51,1.63,1.62,1.62
161.63,5.03,3.44,5.04,3.45,-3.44,-3.48,-3.39,1.58,1.59,1.59
163.24,4.91,3.35,4.91,3.35,-3.35,-3.39,-3.27,1.56,1.56,1.56
164.88,4.79,3.26,4.78,3.25,-3.25,-3.29,-3.16,1.54,1.53,1.53
166.53,4.66,3.15,4.66,3.15,-3.15,-3.19,-3.05,1.51,1.51,1.51
168.19,4.53,3.05,4.53,3.05,-3.05,-3.09,-2.94,1.48,1.48,1.48
169.87,4.41,2.95,4.41,2.95,-2.95,-2.98,-2.83,1.46,1.45,1.45
171.57,4.28,2.84,4.28,2.85,-2.85,-2.88,-2.72,1.43,1.43,1.44
173.29,4.17,2.76,4.16,2.75,-2.75,-2.77,-2.62,1.42,1.41,1.41
175.02,4.04,2.65,4.04,2.65,-2.65,-2.66,-2.51,1.39,1.39,1.39
176.77,3.92,2.55,3.92,2.55,-2.55,-2.55,-2.41,1.37,1.37,1.37
178.54,3.80,2.45,3.80,2.45,-2.45,-2.44,-2.31,1.35,1.35,1.35
180.32,3.69,2.35,3.68,2.35,-2.35,-2.33,-2.22,1.34,1.33,1.33
182.13,3.56,2.25,3.56,2.25,-2.25,-2.23,-2.12,1.31,1.31,1.31
183.95,3.45,2.16,3.45,2.15,-2.15,-2.13,-2.02,1.29,1.29,1.29
185.79,3.34,2.06,3.33,2.06,-2.06,-2.03,-1.93,1.28,1.27,1.28
187.65,3.23,1.97,3.23,1.97,-1.97,-1.93,-1.84,1.26,1.26,1.26
189.52,3.12,1.88,3.12,1.88,-1.88,-1.85,-1.75,1.24,1.24,1.24
191.42,3.02,1.79,3.02,1.79,-1.80,-1.77,-1.66,1.22,1.22,1.23
193.33,2.93,1.72,2.92,1.71,-1.71,-1.69,-1.58,1.21,1.21,1.21
195.27,2.83,1.63,2.83,1.64,-1.64,-1.62,-1.49,1.19,1.20,1.19
197.22,2.75,1.57,2.74,1.56,-1.56,-1.56,-1.41,1.18,1.18,1.18
199.19,2.66,1.49,2.66,1.49,-1.49,-1.50,-1.33,1.16,1.16,1.17
201.18,2.57,1.42,2.57,1.42,-1.42,-1.44,-1.25,1.14,1.15,1.15
203.19,2.50,1.36,2.50,1.36,-1.36,-1.39,-1.17,1.14,1.14,1.14
205.23,2.42,1.30,2.42,1.30,-1.29,-1.33,-1.09,1.12,1.12,1.12
207.28,2.35,1.24,2.34,1.23,-1.23,-1.28,-1.02,1.12,1.11,1.11
209.35,2.26,1.16,2.26,1.17,-1.17,-1.22,-0.94,1.09,1.09,1.09
211.44,2.19,1.11,2.19,1.11,-1.11,-1.17,-0.87,1.08,1.08,1.08
213.56,2.12,1.05,2.11,1.05,-1.05,-1.11,-0.80,1.07,1.06,1.07
215.69,2.04,0.98,2.04,0.99,-0.99,-1.06,-0.73,1.05,1.05,1.05
217.85,1.97,0.93,1.97,0.93,-0.93,-1.00,-0.67,1.04,1.04,1.04
220.03,1.90,0.87,1.90,0.87,-0.87,-0.94,-0.60,1.03,1.03,1.03
222.23,1.83,0.81,1.82,0.81,-0.81,-0.88,-0.54,1.02,1.02,1.02
224.45,1.75,0.74,1.75,0.75,-0.75,-0.82,-0.48,1.00,1.01,1.01
226.70,1.68,0.68,1.68,0.69,-0.69,-0.75,-0.42,0.99,0.99,1.00
228.96,1.62,0.63,1.61,0.63,-0.63,-0.69,-0.36,0.99,0.98,0.99
231.25,1.55,0.57,1.55,0.58,-0.58,-0.62,-0.31,0.97,0.97,0.98
233.57,1.48,0.52,1.48,0.52,-0.52,-0.56,-0.25,0.96,0.96,0.96
235.90,1.42,0.47,1.41,0.47,-0.47,-0.49,-0.20,0.95,0.94,0.95
238.26,1.35,0.41,1.35,0.42,-0.42,-0.43,-0.16,0.93,0.93,0.94
240.64,1.29,0.37,1.29,0.37,-0.36,-0.36,-0.11,0.92,0.92,0.92
243.05,1.23,0.32,1.23,0.32,-0.31,-0.30,-0.06,0.92,0.91,0.91
245.48,1.17,0.27,1.16,0.26,-0.26,-0.23,-0.02,0.91,0.91,0.90
247.93,1.10,0.20,1.10,0.21,-0.21,-0.17,0.02,0.89,0.90,0.89
250.41,1.04,0.15,1.04,0.15,-0.15,-0.10,0.06,0.88,0.88,0.89
252.92,0.98,0.11,0.97,0.10,-0.10,-0.04,0.09,0.88,0.87,0.87
255.45,0.91,0.04,0.91,0.05,-0.05,0.02,0.13,0.86,0.86,0.86
258.00,0.85,-0.01,0.85,-0.00,-0.00,0.08,0.16,0.85,0.85,0.86
260.58,0.80,-0.04,0.79,-0.05,0.05,0.14,0.19,0.85,0.84,0.84
263.19,0.74,-0.10,0.74,-0.10,0.10,0.20,0.22,0.83,0.83,0.83
265.82,0.68,-0.14,0.68,-0.14,0.14,0.26,0.24,0.82,0.82,0.82
268.48,0.62,-0.19,0.62,-0.19,0.19,0.32,0.27,0.81,0.81,0.81
271.16,0.57,-0.23,0.56,-0.23,0.24,0.37,0.29,0.80,0.80,0.80
273.87,0.51,-0.28,0.51,-0.28,0.28,0.42,0.31,0.79,0.79,0.79
276.61,0.46,-0.32,0.45,-0.32,0.32,0.47,0.33,0.78,0.78,0.78
279.38,0.40,-0.37,0.40,-0.37,0.36,0.52,0.35,0.76,0.76,0.77
282.17,0.35,-0.41,0.35,-0.41,0.40,0.57,0.37,0.75,0.75,0.76
284.99,0.30,-0.45,0.30,-0.45,0.44,0.62,0.38,0.74,0.74,0.74
287.84,0.25,-0.48,0.25,-0.48,0.48,0.66,0.40,0.73,0.73,0.73
290.72,0.21,-0.51,0.20,-0.51,0.52,0.70,0.42,0.72,0.72,0.71
293.63,0.16,-0.55,0.16,-0.55,0.55,0.74,0.43,0.71,0.71,0.71
296.57,0.11,-0.59,0.11,-0.59,0.59,0.78,0.44,0.70,0.70,0.70
299.53,0.06,-0.62,0.06,-0.63,0.63,0.82,0.46,0.69,0.69,0.68
302.53,0.01,-0.67,0.01,-0.67,0.66,0.85,0.47,0.67,0.67,0.68
305.55,-0.03,-0.70,-0.04,-0.70,0.70,0.89,0.49,0.67,0.67,0.67
308.61,-0.08,-0.74,-0.08,-0.74,0.74,0.92,0.50,0.66,0.66,0.66
311.69,-0.12,-0.78,-0.12,-0.78,0.78,0.94,0.51,0.65,0.65,0.66
314.81,-0.16,-0.81,-0.16,-0.81,0.81,0.97,0.53,0.65,0.65,0.65
317.96,-0.20,-0.85,-0.20,-0.85,0.85,1.00,0.54,0.65,0.65,0.64
321.14,-0.24,-0.88,-0.25,-0.88,0.88,1.02,0.55,0.64,0.64,0.64
324.35,-0.29,-0.92,-0.29,-0.92,0.92,1.04,0.57,0.63,0.63,0.63
327.59,-0.33,-0.96,-0.33,-0.95,0.95,1.06,0.58,0.62,0.62,0.62
330.87,-0.37,-0.98,-0.37,-0.99,0.99,1.08,0.60,0.61,0.61,0.61
334.18,-0.40,-1.01,-0.41,-1.02,1.02,1.10,0.61,0.62,0.61,0.61
337.52,-0.45,-1.06,-0.45,-1.05,1.05,1.11,0.63,0.60,0.60,0.61
340.90,-0.48,-1.08,-0.49,-1.08,1.08,1.12,0.65,0.60,0.60,0.60
344.30,-0.52,-1.12,-0.52,-1.11,1.11,1.14,0.66,0.59,0.59,0.59
347.75,-0.56,-1.14,-0.56,-1.14,1.14,1.15,0.68,0.58,0.58,0.58
351.23,-0.59,-1.16,-0.60,-1.17,1.17,1.16,0.70,0.58,0.57,0.57
354.74,-0.63,-1.19,-0.63,-1.19,1.19,1.17,0.72,0.56,0.56,0.56
358.28,-0.67,-1.23,-0.67,-1.22,1.22,1.17,0.74,0.55,0.55,0.56
361.87,-0.70,-1.25,-0.70,-1.25,1.24,1.18,0.76,0.54,0.54,0.54
365.49,-0.73,-1.26,-0.74,-1.27,1.27,1.18,0.78,0.53,0.53,0.53
369.14,-0.77,-1.29,-0.77,-1.29,1.29,1.19,0.80,0.52,0.52,0.52
372.83,-0.79,-1.30,-0.80,-1.31,1.31,1.19,0.82,0.52,0.51,0.51
376.56,-0.83,-1.33,-0.83,-1.33,1.33,1.19,0.84,0.49,0.50,0.50
380.33,-0.86,-1.35,-0.86,-1.34,1.34,1.20,0.87,0.48,0.49,0.49
384.13,-0.88,-1.36,-0.89,-1.36,1.36,1.20,0.89,0.48,0.48,0.47
387.97,-0.91,-1.38,-0.91,-1.38,1.38,1.20,0.92,0.47,0.47,0.46
391.85,-0.94,-1.39,-0.94,-1.39,1.40,1.20,0.94,0.45,0.45,0.45
395.77,-0.97,-1.41,-0.97,-1.41,1.41,1.20,0.97,0.44,0.44,0.44
399.73,-0.99,-1.42,-0.99,-1.43,1.42,1.20,0.99,0.43,0.43,0.43
403.72,-1.01,-1.44,-1.01,-1.44,1.44,1.20,1.02,0.42,0.42,0.43
407.76,-1.03,-1.45,-1.03,-1.45,1.45,1.20,1.05,0.42,0.42,0.42
411.84,-1.05,-1.46,-1.05,-1.46,1.46,1.19,1.07,0.41,0.41,0.41
415.96,-1.06,-1.46,-1.07,-1.46,1.47,1.19,1.10,0.40,0.40,0.40
420.12,-1.09,-1.48,-1.09,-1.47,1.47,1.19,1.13,0.38,0.39,0.38
424.32,-1.10,-1.48,-1.10,-1.48,1.48,1.19,1.15,0.38,0.37,0.37
428.56,-1.12,-1.48,-1.12,-1.48,1.48,1.19,1.18,0.36,0.36,0.36
432.85,-1.13,-1.48,-1.13,-1.49,1.48,1.19,1.21,0.35,0.35,0.35
437.18,-1.15,-1.49,-1.15,-1.49,1.48,1.18,1.23,0.33,0.34,0.34
441.55,-1.15,-1.48,-1.16,-1.48,1.48,1.18,1.26,0.33,0.33,0.33
445.96,-1.16,-1.47,-1.17,-1.48,1.48,1.18,1.28,0.32,0.31,0.31
450.42,-1.18,-1.48,-1.17,-1.47,1.48,1.18,1.31,0.29,0.30,0.30
454.93,-1.18,-1.47,-1.19,-1.47,1.47,1.18,1.33,0.29,0.28,0.29
459.48,-1.19,-1.46,-1.19,-1.46,1.46,1.18,1.35,0.27,0.27,0.27
464.07,-1.20,-1.46,-1.20,-1.46,1.45,1.18,1.37,0.25,0.26,0.26
468.71,-1.20,-1.45,-1.20,-1.45,1.45,1.18,1.40,0.24,0.24,0.25
473.40,-1.20,-1.44,-1.21,-1.44,1.44,1.18,1.41,0.23,0.23,0.24
478.13,-1.21,-1.43,-1.20,-1.42,1.43,1.18,1.43,0.21,0.22,0.21
482.91,-1.20,-1.41,-1.21,-1.41,1.41,1.18,1.45,0.21,0.21,0.20
487.74,-1.20,-1.40,-1.21,-1.40,1.40,1.18,1.46,0.20,0.19,0.19
492.62,-1.21,-1.40,-1.20,-1.39,1.39,1.18,1.48,0.18,0.18,0.18
497.55,-1.20,-1.38,-1.21,-1.38,1.37,1.18,1.49,0.17,0.17,0.17
502.52,-1.20,-1.36,-1.20,-1.36,1.36,1.18,1.50,0.16,0.16,0.16
507.55,-1.20,-1.34,-1.20,-1.35,1.35,1.18,1.51,0.14,0.15,0.14
512.62,-1.20,-1.33,-1.20,-1.33,1.33,1.18,1.52,0.13,0.13,0.13
