frequency,raw,error,smoothed,error_smoothed,equalization,parametric_eq,fixed_band_eq,equalized_raw,equalized_smoothed,target
20.00,-16.98,-17.00,-16.98,-17.00,6.00,5.85,2.55,-10.98,-10.98,0.02
20.20,-16.85,-16.96,-16.85,-16.96,6.00,5.85,2.62,-10.85,-10.85,0.11
20.40,-16.71,-16.91,-16.72,-16.91,6.00,5.86,2.69,-10.71,-10.72,0.20
20.61,-16.59,-16.85,-16.59,-16.86,6.00,5.86,2.77,-10.59,-10.59,0.26
20.81,-16.45,-16.81,-16.45,-16.81,6.00,5.86,2.85,-10.45,-10.45,0.36
21.02,-16.32,-16.76,-16.32,-16.75,6.00,5.86,2.93,-10.32,-10.32,0.44
21.23,-16.18,-16.68,-16.19,-16.69,6.00,5.86,3.01,-10.18,-10.19,0.50
21.44,-16.05,-16.61,-16.06,-16.62,6.00,5.87,3.10,-10.05,-10.06,0.56
21.66,-15.93,-16.55,-15.92,-16.54,6.00,5.87,3.19,-9.93,-9.92,0.62
21.87,-15.79,-16.47,-15.79,-16.47,6.00,5.87,3.28,-9.79,-9.79,0.68
22.09,-15.65,-16.38,-15.66,-16.38,6.00,5.87,3.37,-9.65,-9.66,0.72
22.31,-15.52,-16.30,-15.52,-16.30,6.00,5.87,3.47,-9.52,-9.52,0.77
22.54,-15.39,-16.21,-15.39,-16.21,6.00,5.88,3.56,-9.39,-9.39,0.82
22.76,-15.25,-16.12,-15.26,-16.12,6.00,5.88,3.67,-9.25,-9.26,0.86
22.99,-15.12,-16.03,-15.12,-16.03,6.00,5.88,3.77,-9.12,-9.12,0.90
23.22,-14.99,-15.94,-14.99,-15.94,6.00,5.88,3.87,-8.99,-8.99,0.94
23.45,-14.85,-15.85,-14.86,-15.85,6.00,5.88,3.98,-8.85,-8.86,0.99
23.69,-14.73,-15.76,-14.73,-15.76,6.00,5.89,4.09,-8.73,-8.73,1.03
23.92,-14.59,-15.66,-14.59,-15.67,6.00,5.89,4.20,-8.59,-8.59,1.07
24.16,-14.46,-15.58,-14.46,-15.58,6.00,5.89,4.32,-8.46,-8.46,1.12
24.40,-14.33,-15.49,-14.33,-15.49,6.00,5.89,4.43,-8.33,-8.33,1.16
24.65,-14.21,-15.39,-14.20,-15.40,6.00,5.90,4.55,-8.21,-8.20,1.19
24.89,-14.07,-15.30,-14.07,-15.30,6.00,5.90,4.67,-8.07,-8.07,1.23
25.14,-13.94,-15.21,-13.94,-15.21,6.00,5.90,4.79,-7.94,-7.94,1.27
25.39,-13.81,-15.12,-13.81,-15.12,6.00,5.90,4.92,-7.81,-7.81,1.31
25.65,-13.69,-15.03,-13.68,-15.03,6.00,5.91,5.04,-7.69,-7.68,1.35
25.91,-13.56,-14.93,-13.56,-14.93,6.00,5.91,5.16,-7.56,-7.56,1.37
26.16,-13.42,-14.84,-13.43,-14.84,6.00,5.91,5.29,-7.42,-7.43,1.42
26.43,-13.30,-14.74,-13.29,-14.74,6.00,5.91,5.41,-7.30,-7.29,1.44
26.69,-13.16,-14.65,-13.17,-14.65,6.00,5.92,5.53,-7.16,-7.17,1.48
26.96,-13.04,-14.56,-13.04,-14.56,6.00,5.92,5.65,-7.04,-7.04,1.52
27.23,-12.92,-14.47,-12.91,-14.47,6.00,5.92,5.77,-6.92,-6.91,1.55
27.50,-12.79,-14.38,-12.79,-14.38,6.00,5.93,5.89,-6.79,-6.79,1.59
27.77,-12.66,-14.28,-12.67,-14.29,6.00,5.93,6.00,-6.66,-6.67,1.62
28.05,-12.54,-14.20,-12.54,-14.20,6.00,5.93,6.11,-6.54,-6.54,1.66
28.33,-12.42,-14.10,-12.42,-14.11,6.00,5.93,6.22,-6.42,-6.42,1.68
28.62,-12.30,-14.01,-12.30,-14.01,6.00,5.94,6.32,-6.30,-6.30,1.72
28.90,-12.17,-13.93,-12.18,-13.93,6.00,5.94,6.41,-6.17,-6.18,1.76
29.19,-12.05,-13.84,-12.05,-13.84,6.00,5.94,6.50,-6.05,-6.05,1.78
29.48,-11.93,-13.77,-11.93,-13.76,6.00,5.95,6.58,-5.93,-5.93,1.83
29.78,-11.82,-13.67,-11.81,-13.67,6.00,5.95,6.66,-5.82,-5.81,1.85
30.08,-11.70,-13.59,-11.70,-13.59,6.00,5.95,6.72,-5.70,-5.70,1.89
30.38,-11.60,-13.52,-11.59,-13.51,6.00,5.96,6.78,-5.60,-5.59,1.92
30.68,-11.49,-13.45,-11.49,-13.44,6.00,5.96,6.83,-5.49,-5.49,1.96
30.99,-11.39,-13.36,-11.39,-13.37,6.00,5.96,6.87,-5.39,-5.39,1.98
31.30,-11.29,-13.30,-11.28,-13.30,6.00,5.97,6.90,-5.29,-5.28,2.02
31.61,-11.18,-13.23,-11.18,-13.22,6.00,5.97,6.92,-5.18,-5.18,2.04
31.93,-11.08,-13.15,-11.08,-13.15,6.00,5.97,6.94,-5.08,-5.08,2.07
32.24,-10.98,-13.08,-10.98,-13.08,6.00,5.98,6.94,-4.98,-4.98,2.09
32.57,-10.89,-13.01,-10.88,-13.01,6.00,5.98,6.94,-4.89,-4.88,2.12
32.89,-10.78,-12.94,-10.79,-12.94,6.00,5.98,6.93,-4.78,-4.79,2.16
33.22,-10.69,-12.87,-10.69,-12.87,6.00,5.99,6.91,-4.69,-4.69,2.18
33.55,-10.59,-12.79,-10.60,-12.79,6.00,5.99,6.88,-4.59,-4.60,2.19
33.89,-10.50,-12.72,-10.50,-12.72,6.00,5.99,6.85,-4.50,-4.50,2.21
34.23,-10.42,-12.66,-10.41,-12.65,6.00,6.00,6.81,-4.42,-4.41,2.24
34.57,-10.32,-12.58,-10.33,-12.58,6.00,6.00,6.77,-4.32,-4.33,2.26
34.92,-10.24,-12.50,-10.23,-12.51,6.00,6.00,6.72,-4.24,-4.23,2.27
35.27,-10.15,-12.44,-10.15,-12.43,6.00,6.01,6.67,-4.15,-4.15,2.29
35.62,-10.06,-12.36,-10.06,-12.36,6.00,6.01,6.62,-4.06,-4.06,2.30
35.97,-9.97,-12.28,-9.97,-12.29,6.00,6.02,6.56,-3.97,-3.97,2.31
36.33,-9.88,-12.21,-9.88,-12.20,6.00,6.02,6.51,-3.88,-3.88,2.33
36.70,-9.79,-12.12,-9.79,-12.13,6.00,6.02,6.45,-3.79,-3.79,2.34
37.06,-9.70,-12.05,-9.70,-12.05,6.00,6.03,6.39,-3.70,-3.70,2.34
37.43,-9.61,-11.97,-9.62,-11.97,6.00,6.03,6.33,-3.61,-3.62,2.36
37.81,-9.53,-11.90,-9.53,-11.90,6.00,6.03,6.27,-3.53,-3.53,2.37
38.19,-9.46,-11.83,-9.45,-11.83,6.00,6.04,6.22,-3.46,-3.45,2.37
38.57,-9.37,-11.76,-9.37,-11.75,6.00,6.04,6.17,-3.37,-3.37,2.38
38.95,-9.29,-11.67,-9.29,-11.67,6.00,6.05,6.11,-3.29,-3.29,2.38
39.34,-9.20,-11.58,-9.21,-11.59,6.00,6.05,6.06,-3.20,-3.21,2.37
39.74,-9.13,-11.51,-9.12,-11.50,6.00,6.05,6.02,-3.13,-3.12,2.38
40.14,-9.04,-11.41,-9.04,-11.42,6.00,6.06,5.97,-3.04,-3.04,2.38
40.54,-8.96,-11.33,-8.96,-11.33,6.00,6.06,5.94,-2.96,-2.96,2.37
40.94,-8.87,-11.25,-8.87,-11.25,6.00,6.07,5.90,-2.87,-2.87,2.38
41.35,-8.79,-11.17,-8.79,-11.17,6.00,6.07,5.87,-2.79,-2.79,2.38
41.76,-8.71,-11.10,-8.72,-11.10,6.00,6.07,5.84,-2.71,-2.72,2.38
42.18,-8.64,-11.03,-8.64,-11.03,6.00,6.08,5.81,-2.64,-2.64,2.39
42.60,-8.56,-10.95,-8.56,-10.95,6.00,6.08,5.79,-2.56,-2.56,2.38
43.03,-8.48,-10.87,-8.49,-10.88,6.00,6.08,5.78,-2.48,-2.49,2.39
43.46,-8.41,-10.80,-8.41,-10.79,6.00,6.09,5.76,-2.41,-2.41,2.39
43.90,-8.34,-10.71,-8.33,-10.71,6.00,6.09,5.76,-2.34,-2.33,2.37
44.33,-8.25,-10.62,-8.26,-10.62,6.00,6.10,5.75,-2.25,-2.26,2.37
44.78,-8.18,-10.54,-8.17,-10.53,6.00,6.10,5.75,-2.18,-2.17,2.36
45.23,-8.10,-10.45,-8.10,-10.45,6.00,6.10,5.76,-2.10,-2.10,2.35
45.68,-8.02,-10.36,-8.02,-10.37,6.00,6.11,5.77,-2.02,-2.02,2.35
46.13,-7.94,-10.29,-7.94,-10.29,6.00,6.11,5.78,-1.94,-1.94,2.34
46.60,-7.87,-10.21,-7.87,-10.21,6.00,6.11,5.80,-1.87,-1.87,2.35
47.06,-7.79,-10.15,-7.80,-10.14,6.00,6.12,5.82,-1.79,-1.80,2.35
47.53,-7.72,-10.07,-7.72,-10.08,6.00,6.12,5.85,-1.72,-1.72,2.34
48.01,-7.65,-10.01,-7.65,-10.00,6.00,6.12,5.88,-1.65,-1.65,2.36
48.49,-7.58,-9.93,-7.58,-9.92,6.00,6.13,5.91,-1.58,-1.58,2.34
48.97,-7.50,-9.84,-7.51,-9.84,6.00,6.13,5.95,-1.50,-1.51,2.33
49.46,-7.43,-9.76,-7.44,-9.76,6.00,6.13,5.99,-1.43,-1.44,2.33
49.96,-7.38,-9.69,-7.37,-9.70,6.00,6.14,6.03,-1.38,-1.37,2.32
50.46,-7.31,-9.65,-7.30,-9.64,6.00,6.14,6.08,-1.31,-1.30,2.34
50.96,-7.23,-9.58,-7.23,-9.57,6.00,6.14,6.13,-1.23,-1.23,2.34
51.47,-7.15,-9.49,-7.15,-9.50,6.00,6.14,6.18,-1.15,-1.15,2.33
51.99,-7.08,-9.42,-7.08,-9.43,6.00,6.15,6.23,-1.08,-1.08,2.35
52.51,-7.02,-9.37,-7.01,-9.37,6.00,6.15,6.28,-1.02,-1.01,2.36
53.03,-6.95,-9.32,-6.95,-9.31,6.00,6.15,6.34,-0.95,-0.95,2.37
53.56,-6.88,-9.25,-6.89,-9.25,6.00,6.15,6.39,-0.88,-0.89,2.37
54.10,-6.82,-9.18,-6.82,-9.19,6.00,6.15,6.45,-0.82,-0.82,2.37
54.64,-6.75,-9.12,-6.74,-9.12,6.00,6.16,6.50,-0.75,-0.74,2.38
55.18,-6.67,-9.05,-6.67,-9.05,6.00,6.16,6.56,-0.67,-0.67,2.38
55.74,-6.61,-8.98,-6.60,-8.98,6.00,6.16,6.61,-0.61,-0.60,2.38
56.29,-6.53,-8.91,-6.53,-8.91,6.00,6.16,6.66,-0.53,-0.53,2.37
56.86,-6.47,-8.84,-6.47,-8.83,6.00,6.16,6.71,-0.47,-0.47,2.37
57.42,-6.39,-8.75,-6.39,-8.76,6.00,6.16,6.75,-0.39,-0.39,2.36
58.00,-6.32,-8.68,-6.32,-8.68,6.00,6.16,6.79,-0.32,-0.32,2.36
58.58,-6.24,-8.60,-6.25,-8.60,6.00,6.16,6.82,-0.24,-0.25,2.35
59.16,-6.17,-8.53,-6.18,-8.53,6.00,6.16,6.85,-0.17,-0.18,2.35
59.76,-6.11,-8.45,-6.10,-8.45,6.00,6.16,6.87,-0.11,-0.10,2.35
60.35,-6.03,-8.37,-6.03,-8.37,6.00,6.16,6.89,-0.03,-0.03,2.33
60.96,-5.96,-8.28,-5.96,-8.28,6.00,6.16,6.90,0.04,0.04,2.32
61.57,-5.90,-8.19,-5.89,-8.19,6.00,6.16,6.91,0.10,0.11,2.29
62.18,-5.82,-8.09,-5.83,-8.10,6.00,6.15,6.90,0.18,0.17,2.27
62.80,-5.77,-8.04,-5.77,-8.02,6.00,6.15,6.89,0.23,0.23,2.26
63.43,-5.71,-7.95,-5.71,-7.95,6.00,6.15,6.87,0.29,0.29,2.23
64.07,-5.65,-7.87,-5.65,-7.88,6.00,6.15,6.85,0.35,0.35,2.23
64.71,-5.59,-7.81,-5.59,-7.81,6.00,6.14,6.82,0.41,0.41,2.22
65.35,-5.53,-7.75,-5.54,-7.75,6.00,6.14,6.78,0.47,0.46,2.21
66.01,-5.48,-7.69,-5.48,-7.69,6.00,6.14,6.74,0.52,0.52,2.20
66.67,-5.43,-7.63,-5.44,-7.63,6.00,6.13,6.69,0.57,0.56,2.19
67.33,-5.38,-7.58,-5.39,-7.58,6.00,6.13,6.63,0.62,0.61,2.19
68.01,-5.34,-7.54,-5.34,-7.53,6.00,6.12,6.57,0.66,0.66,2.19
68.69,-5.28,-7.48,-5.28,-7.48,6.00,6.11,6.51,0.72,0.72,2.19
69.37,-5.22,-7.42,-5.23,-7.43,6.00,6.11,6.44,0.78,0.77,2.19
70.07,-5.18,-7.38,-5.18,-7.38,6.00,6.10,6.37,0.82,0.82,2.19
70.77,-5.13,-7.33,-5.14,-7.33,6.00,6.09,6.30,0.87,0.86,2.20
71.48,-5.09,-7.29,-5.09,-7.29,6.00,6.08,6.22,0.91,0.91,2.20
72.19,-5.04,-7.24,-5.04,-7.24,6.00,6.08,6.15,0.96,0.96,2.19
72.91,-4.99,-7.18,-4.99,-7.18,6.00,6.07,6.07,1.01,1.01,2.19
73.64,-4.93,-7.11,-4.94,-7.12,6.00,6.06,5.99,1.07,1.06,2.17
74.38,-4.88,-7.06,-4.88,-7.06,6.00,6.05,5.91,1.12,1.12,2.18
75.12,-4.81,-6.99,-4.82,-7.00,6.00,6.03,5.83,1.19,1.18,2.17
75.87,-4.77,-6.95,-4.77,-6.95,6.00,6.02,5.76,1.23,1.23,2.18
76.63,-4.72,-6.89,-4.72,-6.90,6.00,6.01,5.68,1.28,1.28,2.17
77.40,-4.67,-6.85,-4.67,-6.84,6.00,6.00,5.61,1.33,1.33,2.17
78.17,-4.62,-6.79,-4.62,-6.79,6.00,5.98,5.54,1.38,1.38,2.16
78.95,-4.55,-6.73,-4.56,-6.74,6.00,5.97,5.47,1.45,1.44,2.18
79.74,-4.50,-6.69,-4.50,-6.69,6.00,5.95,5.40,1.50,1.50,2.19
80.54,-4.44,-6.64,-4.45,-6.64,6.00,5.93,5.34,1.56,1.55,2.20
81.35,-4.39,-6.60,-4.40,-6.61,6.00,5.92,5.28,1.61,1.60,2.21
82.16,-4.35,-6.57,-4.35,-6.57,6.00,5.90,5.22,1.65,1.65,2.22
82.98,-4.29,-6.54,-4.29,-6.53,6.00,5.88,5.16,1.71,1.71,2.25
83.81,-4.22,-6.48,-4.23,-6.48,6.00,5.86,5.11,1.78,1.77,2.25
84.65,-4.16,-6.43,-4.17,-6.44,6.00,5.84,5.06,1.84,1.83,2.26
85.50,-4.11,-6.41,-4.11,-6.40,6.00,5.82,5.02,1.89,1.89,2.30
86.35,-4.05,-6.37,-4.06,-6.37,6.00,5.79,4.98,1.95,1.94,2.32
87.22,-4.00,-6.34,-4.00,-6.33,6.00,5.77,4.94,2.00,2.00,2.33
88.09,-3.94,-6.28,-3.95,-6.29,6.01,5.74,4.91,2.06,2.06,2.34
88.97,-3.89,-6.26,-3.89,-6.25,6.01,5.72,4.88,2.11,2.11,2.36
89.86,-3.84,-6.21,-3.84,-6.21,6.01,5.69,4.86,2.17,2.17,2.37
90.76,-3.78,-6.15,-3.79,-6.16,6.01,5.66,4.84,2.22,2.22,2.36
91.66,-3.73,-6.11,-3.73,-6.10,6.00,5.63,4.82,2.27,2.27,2.38
92.58,-3.67,-6.04,-3.67,-6.04,5.98,5.60,4.80,2.31,2.31,2.36
93.51,-3.61,-5.98,-3.62,-5.99,5.96,5.57,4.79,2.34,2.34,2.37
94.44,-3.57,-5.93,-3.58,-5.93,5.92,5.54,4.78,2.35,2.35,2.36
95.39,-3.53,-5.88,-3.54,-5.88,5.87,5.50,4.78,2.34,2.34,2.34
96.34,-3.50,-5.82,-3.50,-5.81,5.81,5.47,4.78,2.31,2.31,2.31
97.30,-3.45,-5.74,-3.45,-5.74,5.74,5.43,4.78,2.29,2.29,2.29
98.28,-3.40,-5.66,-3.41,-5.67,5.67,5.40,4.78,2.26,2.26,2.26
99.26,-3.35,-5.59,-3.36,-5.59,5.59,5.36,4.79,2.23,2.23,2.23
100.25,-3.31,-5.51,-3.31,-5.50,5.51,5.32,4.80,2.19,2.20,2.19
101.25,-3.26,-5.42,-3.26,-5.42,5.43,5.28,4.81,2.17,2.17,2.16
102.27,-3.21,-5.34,-3.23,-5.35,5.36,5.23,4.82,2.14,2.13,2.13
103.29,-3.19,-5.27,-3.19,-5.27,5.28,5.19,4.84,2.09,2.09,2.08
104.32,-3.16,-5.22,-3.16,-5.21,5.21,5.15,4.86,2.04,2.05,2.05
105.37,-3.12,-5.14,-3.13,-5.14,5.14,5.10,4.87,2.01,2.01,2.01
106.42,-3.09,-5.08,-3.10,-5.08,5.07,5.05,4.89,1.98,1.97,1.98
107.48,-3.06,-5.01,-3.06,-5.00,5.00,5.01,4.91,1.94,1.94,1.95
108.56,-3.02,-4.93,-3.03,-4.93,4.93,4.96,4.93,1.91,1.91,1.91
109.64,-2.98,-4.85,-2.99,-4.86,4.86,4.91,4.95,1.88,1.87,1.87
110.74,-2.95,-4.80,-2.95,-4.79,4.79,4.86,4.96,1.84,1.84,1.84
111.85,-2.91,-4.74,-2.91,-4.72,4.73,4.81,4.98,1.81,1.81,1.82
112.97,-2.86,-4.64,-2.87,-4.65,4.66,4.75,4.99,1.79,1.79,1.78
114.10,-2.82,-4.58,-2.82,-4.58,4.59,4.70,5.01,1.76,1.76,1.76
115.24,-2.77,-4.51,-2.79,-4.52,4.52,4.65,5.01,1.74,1.73,1.73
116.39,-2.75,-4.47,-2.75,-4.46,4.44,4.59,5.02,1.69,1.70,1.71
117.55,-2.70,-4.39,-2.70,-4.39,4.37,4.53,5.02,1.67,1.67,1.69
118.73,-2.63,-4.31,-2.63,-4.31,4.30,4.48,5.02,1.66,1.66,1.67
119.92,-2.56,-4.23,-2.57,-4.22,4.23,4.42,5.02,1.67,1.67,1.66
121.12,-2.49,-4.14,-2.51,-4.15,4.17,4.36,5.01,1.68,1.67,1.65
122.33,-2.46,-4.10,-2.46,-4.10,4.11,4.30,4.99,1.65,1.66,1.63
123.55,-2.42,-4.05,-2.42,-4.05,4.06,4.25,4.98,1.64,1.64,1.63
124.79,-2.39,-4.01,-2.40,-4.01,4.01,4.19,4.95,1.62,1.62,1.61
126.03,-2.37,-3.97,-2.38,-3.98,3.97,4.13,4.93,1.60,1.59,1.60
127.29,-2.36,-3.96,-2.36,-3.95,3.94,4.07,4.89,1.57,1.58,1.60
128.57,-2.34,-3.92,-2.34,-3.91,3.90,4.01,4.85,1.56,1.57,1.57
129.85,-2.30,-3.86,-2.31,-3.87,3.87,3.95,4.81,1.57,1.56,1.56
131.15,-2.27,-3.82,-2.28,-3.83,3.84,3.89,4.76,1.56,1.55,1.55
132.46,-2.26,-3.80,-2.26,-3.79,3.80,3.82,4.71,1.54,1.54,1.54
133.79,-2.23,-3.77,-2.24,-3.76,3.76,3.76,4.65,1.53,1.53,1.53
135.12,-2.21,-3.72,-2.21,-3.73,3.73,3.70,4.59,1.51,1.51,1.50
136.48,-2.19,-3.70,-2.19,-3.69,3.68,3.64,4.53,1.49,1.49,1.50
137.84,-2.15,-3.64,-2.17,-3.64,3.64,3.58,4.46,1.48,1.47,1.48
139.22,-2.14,-3.60,-2.14,-3.60,3.59,3.52,4.39,1.45,1.45,1.45
140.61,-2.11,-3.55,-2.10,-3.54,3.54,3.46,4.32,1.42,1.43,1.44
142.02,-2.05,-3.48,-2.07,-3.49,3.48,3.41,4.24,1.43,1.42,1.43
143.44,-2.02,-3.43,-2.02,-3.42,3.43,3.35,4.16,1.40,1.41,1.41
144.87,-1.97,-3.36,-1.98,-3.36,3.37,3.29,4.09,1.39,1.39,1.38
146.32,-1.93,-3.29,-1.94,-3.30,3.31,3.23,4.01,1.37,1.37,1.36
147.78,-1.90,-3.25,-1.90,-3.24,3.24,3.17,3.93,1.34,1.35,1.35
149.26,-1.86,-3.19,-1.87,-3.18,3.18,3.12,3.85,1.32,1.32,1.32
150.75,-1.83,-3.11,-1.84,-3.13,3.13,3.06,3.77,1.29,1.29,1.28
152.26,-1.81,-3.07,-1.81,-3.07,3.07,3.01,3.69,1.25,1.26,1.26
153.78,-1.78,-3.02,-1.78,-3.01,3.01,2.95,3.61,1.23,1.23,1.23
155.32,-1.75,-2.95,-1.76,-2.96,2.96,2.90,3.53,1.20,1.20,1.20
156.88,-1.72,-2.90,-1.73,-2.90,2.90,2.84,3.45,1.18,1.17,1.18
158.44,-1.71,-2.86,-1.71,-2.85,2.86,2.79,3.37,1.14,1.15,1.14
160.03,-1.69,-2.80,-1.70,-2.80,2.81,2.74,3.30,1.12,1.11,1.10
161.63,-1.68,-2.76,-1.69,-2.76,2.77,2.69,3.22,1.08,1.08,1.07
163.24,-1.67,-2.72,-1.67,-2.72,2.72,2.64,3.15,1.05,1.05,1.04
164.88,-1.66,-2.69,-1.67,-2.69,2.68,2.59,3.08,1.02,1.01,1.02
166.53,-1.65,-2.65,-1.65,-2.64,2.64,2.55,3.01,0.98,0.98,0.99
168.19,-1.64,-2.60,-1.64,-2.60,2.59,2.50,2.94,0.94,0.95,0.95
169.87,-1.60,-2.54,-1.61,-2.55,2.54,2.45,2.88,0.93,0.92,0.94
171.57,-1.58,-2.49,-1.58,-2.49,2.48,2.41,2.81,0.90,0.90,0.91
173.29,-1.55,-2.44,-1.55,-2.43,2.43,2.36,2.75,0.88,0.88,0.88
175.02,-1.50,-2.37,-1.51,-2.37,2.37,2.32,2.69,0.87,0.86,0.86
176.77,-1.47,-2.30,-1.48,-2.31,2.32,2.28,2.63,0.84,0.84,0.83
178.54,-1.45,-2.26,-1.45,-2.26,2.26,2.24,2.58,0.81,0.81,0.80
180.32,-1.42,-2.21,-1.42,-2.21,2.21,2.20,2.52,0.79,0.79,0.79
182.13,-1.39,-2.18,-1.39,-2.17,2.17,2.16,2.47,0.77,0.77,0.78
183.95,-1.36,-2.12,-1.37,-2.13,2.13,2.12,2.42,0.77,0.76,0.76
185.79,-1.34,-2.09,-1.35,-2.09,2.10,2.09,2.37,0.76,0.76,0.74
187.65,-1.33,-2.07,-1.34,-2.07,2.08,2.05,2.32,0.75,0.74,0.73
189.52,-1.33,-2.05,-1.34,-2.05,2.06,2.02,2.28,0.73,0.73,0.72
191.42,-1.34,-2.05,-1.34,-2.05,2.05,1.98,2.23,0.71,0.71,0.71
193.33,-1.35,-2.05,-1.35,-2.05,2.04,1.95,2.19,0.69,0.69,0.69
195.27,-1.36,-2.05,-1.37,-2.04,2.04,1.92,2.15,0.67,0.67,0.68
197.22,-1.37,-2.04,-1.37,-2.04,2.03,1.89,2.11,0.65,0.66,0.67
199.19,-1.37,-2.01,-1.37,-2.02,2.01,1.86,2.08,0.64,0.64,0.64
201.18,-1.36,-2.00,-1.37,-2.00,1.99,1.83,2.04,0.63,0.63,0.64
203.19,-1.35,-1.98,-1.35,-1.97,1.97,1.80,2.01,0.61,0.62,0.63
205.23,-1.32,-1.93,-1.33,-1.94,1.94,1.77,1.98,0.61,0.61,0.61
207.28,-1.30,-1.91,-1.30,-1.90,1.90,1.75,1.94,0.59,0.60,0.61
209.35,-1.26,-1.85,-1.27,-1.85,1.86,1.72,1.92,0.59,0.59,0.59
211.44,-1.23,-1.80,-1.24,-1.81,1.81,1.70,1.89,0.58,0.58,0.57
213.56,-1.20,-1.77,-1.20,-1.77,1.77,1.67,1.86,0.57,0.57,0.57
215.69,-1.16,-1.74,-1.17,-1.73,1.73,1.65,1.83,0.56,0.56,0.57
217.85,-1.12,-1.69,-1.13,-1.69,1.69,1.63,1.81,0.56,0.56,0.56
220.03,-1.10,-1.65,-1.10,-1.65,1.66,1.61,1.79,0.55,0.56,0.54
222.23,-1.07,-1.61,-1.07,-1.62,1.63,1.59,1.76,0.55,0.56,0.54
224.45,-1.05,-1.60,-1.05,-1.59,1.61,1.57,1.74,0.55,0.55,0.55
226.70,-1.03,-1.58,-1.04,-1.58,1.59,1.55,1.72,0.56,0.55,0.54
228.96,-1.03,-1.57,-1.03,-1.58,1.58,1.54,1.70,0.54,0.54,0.54
231.25,-1.03,-1.57,-1.03,-1.57,1.56,1.52,1.68,0.53,0.53,0.54
233.57,-1.03,-1.57,-1.03,-1.56,1.55,1.50,1.66,0.52,0.52,0.53
235.90,-1.02,-1.55,-1.03,-1.55,1.54,1.49,1.65,0.52,0.51,0.53
238.26,-1.01,-1.52,-1.01,-1.53,1.52,1.48,1.63,0.51,0.51,0.51
240.64,-0.99,-1.51,-1.00,-1.51,1.50,1.46,1.61,0.51,0.50,0.51
243.05,-0.97,-1.48,-0.97,-1.48,1.48,1.45,1.60,0.50,0.50,0.51
245.48,-0.94,-1.46,-0.94,-1.45,1.45,1.44,1.58,0.50,0.50,0.51
247.93,-0.90,-1.41,-0.91,-1.41,1.42,1.43,1.57,0.51,0.51,0.51
250.41,-0.87,-1.38,-0.87,-1.38,1.39,1.42,1.55,0.51,0.52,0.50
252.92,-0.83,-1.35,-0.84,-1.35,1.36,1.41,1.54,0.52,0.52,0.52
255.45,-0.80,-1.34,-0.80,-1.33,1.33,1.40,1.52,0.53,0.53,0.53
258.00,-0.77,-1.31,-0.77,-1.31,1.31,1.39,1.51,0.54,0.54,0.54
260.58,-0.74,-1.29,-0.75,-1.30,1.29,1.38,1.50,0.55,0.55,0.54
263.19,-0.72,-1.29,-0.72,-1.28,1.29,1.38,1.49,0.56,0.57,0.57
265.82,-0.69,-1.27,-0.70,-1.28,1.28,1.37,1.48,0.59,0.58,0.58
268.48,-0.68,-1.28,-0.69,-1.28,1.29,1.37,1.46,0.60,0.60,0.59
271.16,-0.68,-1.29,-0.68,-1.29,1.30,1.36,1.45,0.61,0.62,0.61
273.87,-0.68,-1.31,-0.69,-1.31,1.32,1.36,1.44,0.63,0.63,0.62
276.61,-0.69,-1.34,-0.70,-1.33,1.34,1.36,1.43,0.64,0.64,0.64
279.38,-0.71,-1.36,-0.71,-1.36,1.36,1.35,1.42,0.64,0.65,0.65
282.17,-0.72,-1.38,-0.73,-1.39,1.38,1.35,1.42,0.65,0.65,0.65
284.99,-0.73,-1.42,-0.73,-1.41,1.40,1.35,1.41,0.66,0.66,0.68
287.84,-0.73,-1.42,-0.73,-1.42,1.41,1.35,1.40,0.68,0.68,0.69
290.72,-0.72,-1.43,-0.72,-1.43,1.42,1.35,1.39,0.70,0.70,0.70
293.63,-0.70,-1.43,-0.71,-1.43,1.43,1.35,1.39,0.72,0.72,0.72
296.57,-0.68,-1.43,-0.68,-1.42,1.43,1.35,1.38,0.74,0.74,0.75
299.53,-0.65,-1.41,-0.66,-1.42,1.42,1.36,1.38,0.77,0.76,0.76
302.53,-0.63,-1.41,-0.63,-1.41,1.42,1.36,1.38,0.78,0.78,0.77
305.55,-0.60,-1.42,-0.60,-1.40,1.41,1.36,1.37,0.80,0.81,0.81
308.61,-0.56,-1.39,-0.57,-1.40,1.40,1.36,1.37,0.84,0.83,0.83
311.69,-0.52,-1.38,-0.53,-1.39,1.39,1.37,1.37,0.87,0.86,0.86
314.81,-0.50,-1.40,-0.50,-1.39,1.39,1.37,1.37,0.88,0.89,0.89
317.96,-0.47,-1.39,-0.47,-1.39,1.38,1.38,1.37,0.91,0.91,0.91
321.14,-0.44,-1.39,-0.44,-1.38,1.38,1.39,1.38,0.93,0.93,0.94
324.35,-0.41,-1.37,-0.41,-1.38,1.38,1.39,1.38,0.96,0.96,0.96
327.59,-0.38,-1.37,-0.39,-1.38,1.38,1.40,1.38,1.00,0.99,0.99
330.87,-0.37,-1.39,-0.37,-1.38,1.39,1.41,1.39,1.02,1.02,1.02
334.18,-0.36,-1.40,-0.36,-1.40,1.41,1.42,1.39,1.05,1.05,1.03
337.52,-0.35,-1.42,-0.36,-1.42,1.43,1.43,1.40,1.08,1.07,1.06
340.90,-0.36,-1.45,-0.36,-1.45,1.46,1.43,1.41,1.09,1.09,1.09
344.30,-0.37,-1.49,-0.37,-1.49,1.48,1.44,1.42,1.11,1.11,1.12
347.75,-0.38,-1.52,-0.38,-1.52,1.51,1.46,1.43,1.13,1.13,1.14
351.23,-0.38,-1.55,-0.39,-1.55,1.54,1.47,1.44,1.16,1.16,1.17
354.74,-0.38,-1.58,-0.39,-1.58,1.57,1.48,1.45,1.19,1.19,1.19
358.28,-0.38,-1.60,-0.38,-1.60,1.60,1.49,1.47,1.21,1.21,1.21
361.87,-0.38,-1.63,-0.38,-1.62,1.62,1.50,1.48,1.24,1.24,1.24
365.49,-0.38,-1.64,-0.38,-1.64,1.65,1.52,1.50,1.26,1.26,1.26
369.14,-0.38,-1.66,-0.38,-1.66,1.67,1.53,1.51,1.28,1.28,1.28
372.83,-0.38,-1.68,-0.38,-1.68,1.69,1.54,1.53,1.30,1.30,1.30
376.56,-0.38,-1.70,-0.38,-1.71,1.70,1.56,1.55,1.32,1.32,1.32
380.33,-0.38,-1.73,-0.38,-1.72,1.72,1.57,1.57,1.34,1.34,1.35
384.13,-0.38,-1.74,-0.38,-1.74,1.74,1.59,1.59,1.35,1.35,1.35
387.97,-0.38,-1.75,-0.38,-1.75,1.75,1.60,1.61,1.37,1.37,1.36
391.85,-0.38,-1.76,-0.38,-1.76,1.76,1.62,1.63,1.38,1.38,1.37
395.77,-0.38,-1.78,-0.38,-1.77,1.78,1.64,1.66,1.39,1.39,1.39
399.73,-0.38,-1.79,-0.38,-1.78,1.79,1.65,1.68,1.40,1.40,1.40
403.72,-0.38,-1.79,-0.38,-1.80,1.80,1.67,1.70,1.41,1.41,1.41
407.76,-0.38,-1.80,-0.38,-1.81,1.81,1.69,1.73,1.42,1.42,1.42
411.84,-0.38,-1.82,-0.38,-1.82,1.81,1.71,1.75,1.43,1.43,1.44
415.96,-0.38,-1.82,-0.38,-1.82,1.82,1.72,1.78,1.43,1.43,1.44
420.12,-0.38,-1.82,-0.38,-1.82,1.82,1.74,1.80,1.44,1.44,1.44
424.32,-0.38,-1.82,-0.38,-1.82,1.82,1.76,1.83,1.44,1.44,1.44
428.56,-0.38,-1.82,-0.38,-1.82,1.82,1.78,1.85,1.44,1.44,1.44
432.85,-0.38,-1.82,-0.38,-1.82,1.82,1.80,1.88,1.44,1.44,1.43
437.18,-0.38,-1.82,-0.38,-1.82,1.82,1.82,1.90,1.43,1.43,1.43
441.55,-0.38,-1.82,-0.38,-1.82,1.82,1.84,1.93,1.43,1.43,1.43
445.96,-0.38,-1.82,-0.38,-1.81,1.81,1.86,1.95,1.43,1.43,1.43
450.42,-0.38,-1.81,-0.38,-1.81,1.81,1.88,1.97,1.43,1.43,1.42
454.93,-0.38,-1.81,-0.38,-1.81,1.81,1.90,2.00,1.43,1.43,1.42
459.48,-0.38,-1.81,-0.39,-1.81,1.81,1.92,2.02,1.42,1.42,1.42
464.07,-0.38,-1.81,-0.38,-1.81,1.80,1.94,2.03,1.42,1.42,1.42
468.71,-0.38,-1.81,-0.38,-1.81,1.80,1.96,2.05,1.41,1.42,1.43
473.40,-0.37,-1.79,-0.38,-1.80,1.79,1.99,2.07,1.42,1.42,1.42
