frequency,raw,error,smoothed,error_smoothed,equalization,parametric_eq,fixed_band_eq,equalized_raw,equalized_smoothed,target
20.00,-16.98,-17.01,-16.98,-17.01,6.00,5.79,2.64,-10.98,-10.98,0.03
20.20,-16.85,-16.97,-16.85,-16.97,6.00,5.81,2.72,-10.85,-10.85,0.12
20.40,-16.71,-16.92,-16.72,-16.92,6.00,5.83,2.79,-10.71,-10.72,0.21
20.61,-16.59,-16.86,-16.59,-16.87,6.00,5.85,2.87,-10.59,-10.59,0.28
20.81,-16.45,-16.82,-16.45,-16.82,6.00,5.87,2.95,-10.45,-10.45,0.37
21.02,-16.32,-16.77,-16.32,-16.76,6.00,5.88,3.04,-10.32,-10.32,0.45
21.23,-16.18,-16.69,-16.19,-16.70,6.00,5.90,3.12,-10.18,-10.19,0.51
21.44,-16.05,-16.62,-16.06,-16.63,6.00,5.92,3.21,-10.05,-10.06,0.57
21.66,-15.93,-16.56,-15.92,-16.55,6.00,5.93,3.30,-9.93,-9.92,0.63
21.87,-15.79,-16.48,-15.79,-16.48,6.00,5.94,3.40,-9.79,-9.79,0.69
22.09,-15.65,-16.39,-15.66,-16.39,6.00,5.96,3.49,-9.65,-9.66,0.74
22.31,-15.52,-16.31,-15.52,-16.31,6.00,5.97,3.59,-9.52,-9.52,0.79
22.54,-15.39,-16.22,-15.39,-16.22,6.00,5.98,3.69,-9.39,-9.39,0.83
22.76,-15.25,-16.13,-15.26,-16.13,6.00,6.00,3.79,-9.25,-9.26,0.87
22.99,-15.12,-16.04,-15.12,-16.04,6.00,6.01,3.90,-9.12,-9.12,0.91
23.22,-14.99,-15.95,-14.99,-15.95,6.00,6.02,4.01,-8.99,-8.99,0.95
23.45,-14.85,-15.86,-14.86,-15.86,6.00,6.03,4.12,-8.85,-8.86,1.00
23.69,-14.73,-15.77,-14.73,-15.77,6.00,6.04,4.23,-8.73,-8.73,1.04
23.92,-14.59,-15.68,-14.59,-15.68,6.00,6.05,4.35,-8.59,-8.59,1.08
24.16,-14.46,-15.60,-14.46,-15.59,6.00,6.06,4.46,-8.46,-8.46,1.13
24.40,-14.33,-15.50,-14.33,-15.50,6.00,6.06,4.58,-8.33,-8.33,1.17
24.65,-14.21,-15.41,-14.20,-15.41,6.00,6.07,4.71,-8.21,-8.20,1.20
24.89,-14.07,-15.31,-14.07,-15.31,6.00,6.08,4.83,-8.07,-8.07,1.24
25.14,-13.94,-15.22,-13.94,-15.22,6.00,6.08,4.95,-7.94,-7.94,1.28
25.39,-13.81,-15.13,-13.81,-15.13,6.00,6.09,5.08,-7.81,-7.81,1.32
25.65,-13.69,-15.04,-13.68,-15.04,6.00,6.10,5.20,-7.69,-7.68,1.36
25.91,-13.56,-14.94,-13.56,-14.95,6.00,6.10,5.33,-7.56,-7.56,1.39
26.16,-13.42,-14.85,-13.43,-14.85,6.00,6.10,5.46,-7.42,-7.43,1.43
26.43,-13.30,-14.75,-13.29,-14.75,6.00,6.11,5.58,-7.30,-7.29,1.46
26.69,-13.16,-14.66,-13.17,-14.66,6.00,6.11,5.71,-7.16,-7.17,1.50
26.96,-13.04,-14.57,-13.04,-14.57,6.00,6.11,5.83,-7.04,-7.04,1.54
27.23,-12.92,-14.48,-12.91,-14.48,6.00,6.11,5.96,-6.92,-6.91,1.56
27.50,-12.79,-14.39,-12.79,-14.39,6.00,6.12,6.08,-6.79,-6.79,1.60
27.77,-12.66,-14.30,-12.67,-14.30,6.00,6.12,6.19,-6.66,-6.67,1.63
28.05,-12.54,-14.22,-12.54,-14.21,6.00,6.12,6.30,-6.54,-6.54,1.67
28.33,-12.42,-14.12,-12.42,-14.12,6.00,6.12,6.41,-6.42,-6.42,1.69
28.62,-12.30,-14.03,-12.30,-14.03,6.00,6.12,6.51,-6.30,-6.30,1.73
28.90,-12.17,-13.94,-12.18,-13.94,6.00,6.12,6.61,-6.17,-6.18,1.77
29.19,-12.05,-13.85,-12.05,-13.86,6.00,6.11,6.70,-6.05,-6.05,1.80
29.48,-11.93,-13.78,-11.93,-13.77,6.00,6.11,6.78,-5.93,-5.93,1.85
29.78,-11.82,-13.68,-11.81,-13.69,6.00,6.11,6.86,-5.82,-5.81,1.87
30.08,-11.70,-13.60,-11.70,-13.61,6.00,6.11,6.92,-5.70,-5.70,1.91
30.38,-11.60,-13.53,-11.59,-13.53,6.00,6.10,6.98,-5.60,-5.59,1.94
30.68,-11.49,-13.47,-11.49,-13.46,6.00,6.10,7.03,-5.49,-5.49,1.97
30.99,-11.39,-13.38,-11.39,-13.39,6.00,6.10,7.07,-5.39,-5.39,1.99
31.30,-11.29,-13.32,-11.28,-13.32,6.00,6.09,7.10,-5.29,-5.28,2.03
31.61,-11.18,-13.25,-11.18,-13.24,6.00,6.09,7.12,-5.18,-5.18,2.06
31.93,-11.08,-13.17,-11.08,-13.17,6.00,6.08,7.13,-5.08,-5.08,2.09
32.24,-10.98,-13.09,-10.98,-13.09,6.00,6.08,7.13,-4.98,-4.98,2.11
32.57,-10.89,-13.02,-10.88,-13.02,6.00,6.07,7.13,-4.89,-4.88,2.14
32.89,-10.78,-12.96,-10.79,-12.96,6.00,6.07,7.11,-4.78,-4.79,2.18
33.22,-10.69,-12.89,-10.69,-12.88,6.00,6.06,7.09,-4.69,-4.69,2.19
33.55,-10.59,-12.81,-10.60,-12.81,6.00,6.06,7.06,-4.59,-4.60,2.21
33.89,-10.50,-12.74,-10.50,-12.74,6.00,6.05,7.02,-4.50,-4.50,2.23
34.23,-10.42,-12.67,-10.41,-12.67,6.00,6.04,6.98,-4.42,-4.41,2.26
34.57,-10.32,-12.60,-10.33,-12.60,6.00,6.04,6.93,-4.32,-4.33,2.28
34.92,-10.24,-12.52,-10.23,-12.53,6.00,6.03,6.88,-4.24,-4.23,2.29
35.27,-10.15,-12.46,-10.15,-12.45,6.00,6.02,6.82,-4.15,-4.15,2.31
35.62,-10.06,-12.38,-10.06,-12.38,6.00,6.02,6.76,-4.06,-4.06,2.32
35.97,-9.97,-12.30,-9.97,-12.30,6.00,6.01,6.70,-3.97,-3.97,2.33
36.33,-9.88,-12.23,-9.88,-12.22,6.00,6.00,6.64,-3.88,-3.88,2.35
36.70,-9.79,-12.14,-9.79,-12.15,6.00,6.00,6.57,-3.79,-3.79,2.35
37.06,-9.70,-12.07,-9.70,-12.07,6.00,5.99,6.51,-3.70,-3.70,2.36
37.43,-9.61,-11.99,-9.62,-11.99,6.00,5.98,6.44,-3.61,-3.62,2.38
37.81,-9.53,-11.92,-9.53,-11.92,6.00,5.97,6.38,-3.53,-3.53,2.39
38.19,-9.46,-11.85,-9.45,-11.85,6.00,5.97,6.32,-3.46,-3.45,2.39
38.57,-9.37,-11.78,-9.37,-11.77,6.00,5.96,6.26,-3.37,-3.37,2.40
38.95,-9.29,-11.69,-9.29,-11.69,6.00,5.95,6.20,-3.29,-3.29,2.40
39.34,-9.20,-11.60,-9.21,-11.61,6.00,5.94,6.14,-3.20,-3.21,2.40
39.74,-9.13,-11.53,-9.12,-11.52,6.00,5.94,6.09,-3.13,-3.12,2.40
40.14,-9.04,-11.44,-9.04,-11.44,6.00,5.93,6.04,-3.04,-3.04,2.40
40.54,-8.96,-11.35,-8.96,-11.36,6.00,5.92,5.99,-2.96,-2.96,2.40
40.94,-8.87,-11.28,-8.87,-11.27,6.00,5.92,5.95,-2.87,-2.87,2.40
41.35,-8.79,-11.19,-8.79,-11.20,6.00,5.91,5.91,-2.79,-2.79,2.40
41.76,-8.71,-11.12,-8.72,-11.12,6.00,5.90,5.88,-2.71,-2.72,2.41
42.18,-8.64,-11.06,-8.64,-11.05,6.00,5.90,5.84,-2.64,-2.64,2.41
42.60,-8.56,-10.97,-8.56,-10.98,6.00,5.89,5.82,-2.56,-2.56,2.41
43.03,-8.48,-10.90,-8.49,-10.90,6.00,5.89,5.79,-2.48,-2.49,2.41
43.46,-8.41,-10.82,-8.41,-10.82,6.00,5.88,5.77,-2.41,-2.41,2.41
43.90,-8.34,-10.73,-8.33,-10.73,6.00,5.88,5.76,-2.34,-2.33,2.39
44.33,-8.25,-10.64,-8.26,-10.65,6.00,5.87,5.75,-2.25,-2.26,2.39
44.78,-8.18,-10.56,-8.17,-10.56,6.00,5.87,5.74,-2.18,-2.17,2.38
45.23,-8.10,-10.48,-8.10,-10.47,6.00,5.87,5.74,-2.10,-2.10,2.38
45.68,-8.02,-10.39,-8.02,-10.39,6.00,5.86,5.74,-2.02,-2.02,2.37
46.13,-7.94,-10.31,-7.94,-10.31,6.00,5.86,5.75,-1.94,-1.94,2.37
46.60,-7.87,-10.24,-7.87,-10.24,6.00,5.86,5.76,-1.87,-1.87,2.37
47.06,-7.79,-10.17,-7.80,-10.17,6.00,5.85,5.78,-1.79,-1.80,2.38
47.53,-7.72,-10.10,-7.72,-10.10,6.00,5.85,5.80,-1.72,-1.72,2.37
48.01,-7.65,-10.04,-7.65,-10.03,6.00,5.85,5.82,-1.65,-1.65,2.38
48.49,-7.58,-9.95,-7.58,-9.95,6.00,5.85,5.84,-1.58,-1.58,2.37
48.97,-7.50,-9.87,-7.51,-9.87,6.00,5.85,5.87,-1.50,-1.51,2.36
49.46,-7.43,-9.79,-7.44,-9.79,6.00,5.85,5.91,-1.43,-1.44,2.35
49.96,-7.38,-9.72,-7.37,-9.73,6.00,5.85,5.94,-1.38,-1.37,2.35
50.46,-7.31,-9.67,-7.30,-9.67,6.00,5.85,5.98,-1.31,-1.30,2.37
50.96,-7.23,-9.61,-7.23,-9.60,6.00,5.85,6.02,-1.23,-1.23,2.37
51.47,-7.15,-9.52,-7.15,-9.53,6.00,5.86,6.07,-1.15,-1.15,2.36
51.99,-7.08,-9.45,-7.08,-9.46,6.00,5.86,6.11,-1.08,-1.08,2.37
52.51,-7.02,-9.40,-7.01,-9.40,6.00,5.86,6.16,-1.02,-1.01,2.39
53.03,-6.95,-9.35,-6.95,-9.34,6.00,5.87,6.21,-0.95,-0.95,2.40
53.56,-6.88,-9.28,-6.89,-9.28,6.00,5.87,6.26,-0.88,-0.89,2.40
54.10,-6.82,-9.21,-6.82,-9.22,6.00,5.88,6.30,-0.82,-0.82,2.40
54.64,-6.75,-9.15,-6.74,-9.15,6.00,5.88,6.35,-0.75,-0.74,2.41
55.18,-6.67,-9.08,-6.67,-9.08,6.00,5.89,6.40,-0.67,-0.67,2.41
55.74,-6.61,-9.01,-6.60,-9.01,6.00,5.90,6.44,-0.61,-0.60,2.41
56.29,-6.53,-8.94,-6.53,-8.94,6.00,5.90,6.49,-0.53,-0.53,2.41
56.86,-6.47,-8.87,-6.47,-8.87,6.00,5.91,6.53,-0.47,-0.47,2.40
57.42,-6.39,-8.79,-6.39,-8.79,6.00,5.92,6.56,-0.39,-0.39,2.39
58.00,-6.32,-8.71,-6.32,-8.71,6.00,5.93,6.60,-0.32,-0.32,2.39
58.58,-6.24,-8.63,-6.25,-8.63,6.00,5.94,6.63,-0.24,-0.25,2.39
59.16,-6.17,-8.56,-6.18,-8.56,6.00,5.95,6.65,-0.17,-0.18,2.38
59.76,-6.11,-8.48,-6.10,-8.48,6.00,5.96,6.67,-0.11,-0.10,2.38
60.35,-6.03,-8.40,-6.03,-8.40,6.00,5.97,6.68,-0.03,-0.03,2.37
60.96,-5.96,-8.32,-5.96,-8.31,6.00,5.98,6.69,0.04,0.04,2.35
61.57,-5.90,-8.22,-5.89,-8.22,6.00,5.99,6.69,0.10,0.11,2.33
62.18,-5.82,-8.13,-5.83,-8.14,6.00,6.00,6.68,0.18,0.17,2.30
62.80,-5.77,-8.07,-5.77,-8.06,6.00,6.01,6.67,0.23,0.23,2.29
63.43,-5.71,-7.98,-5.71,-7.98,6.00,6.02,6.65,0.29,0.29,2.27
64.07,-5.65,-7.91,-5.65,-7.91,6.00,6.04,6.62,0.35,0.35,2.26
64.71,-5.59,-7.85,-5.59,-7.84,6.00,6.05,6.59,0.41,0.41,2.25
65.35,-5.53,-7.78,-5.54,-7.78,6.00,6.06,6.55,0.47,0.46,2.25
66.01,-5.48,-7.72,-5.48,-7.72,6.00,6.07,6.51,0.52,0.52,2.24
66.67,-5.43,-7.66,-5.44,-7.67,6.00,6.08,6.46,0.57,0.56,2.23
67.33,-5.38,-7.61,-5.39,-7.62,6.00,6.09,6.41,0.62,0.61,2.23
68.01,-5.34,-7.57,-5.34,-7.56,6.00,6.10,6.35,0.66,0.66,2.23
68.69,-5.28,-7.51,-5.28,-7.51,6.00,6.12,6.28,0.72,0.72,2.23
69.37,-5.22,-7.45,-5.23,-7.46,6.00,6.13,6.22,0.78,0.77,2.23
70.07,-5.18,-7.41,-5.18,-7.41,6.00,6.13,6.15,0.82,0.82,2.22
70.77,-5.13,-7.37,-5.14,-7.37,6.00,6.14,6.08,0.87,0.86,2.23
71.48,-5.09,-7.32,-5.09,-7.32,6.00,6.15,6.00,0.91,0.91,2.23
72.19,-5.04,-7.27,-5.04,-7.27,6.00,6.16,5.93,0.96,0.96,2.23
72.91,-4.99,-7.22,-4.99,-7.21,6.00,6.16,5.85,1.01,1.01,2.22
73.64,-4.93,-7.14,-4.94,-7.15,6.00,6.17,5.78,1.07,1.06,2.21
74.38,-4.88,-7.10,-4.88,-7.09,6.00,6.17,5.70,1.12,1.12,2.21
75.12,-4.81,-7.02,-4.82,-7.03,6.00,6.18,5.62,1.19,1.18,2.21
75.87,-4.77,-6.98,-4.77,-6.98,6.00,6.18,5.55,1.23,1.23,2.21
76.63,-4.72,-6.93,-4.72,-6.93,6.00,6.18,5.48,1.28,1.28,2.20
77.40,-4.67,-6.88,-4.67,-6.88,6.00,6.17,5.41,1.33,1.33,2.20
78.17,-4.62,-6.82,-4.62,-6.82,6.00,6.17,5.34,1.38,1.38,2.20
78.95,-4.55,-6.76,-4.56,-6.77,6.00,6.17,5.27,1.45,1.44,2.21
79.74,-4.50,-6.72,-4.50,-6.72,6.00,6.16,5.21,1.50,1.50,2.22
80.54,-4.44,-6.67,-4.45,-6.67,6.00,6.15,5.14,1.56,1.55,2.23
81.35,-4.39,-6.63,-4.40,-6.64,6.00,6.14,5.09,1.61,1.60,2.24
82.16,-4.35,-6.60,-4.35,-6.60,6.00,6.12,5.03,1.65,1.65,2.24
82.98,-4.29,-6.57,-4.29,-6.55,6.00,6.11,4.98,1.71,1.71,2.27
83.81,-4.22,-6.51,-4.23,-6.51,6.00,6.09,4.93,1.78,1.77,2.28
84.65,-4.16,-6.45,-4.17,-6.47,6.00,6.07,4.88,1.84,1.83,2.29
85.50,-4.11,-6.44,-4.11,-6.43,6.00,6.05,4.84,1.89,1.89,2.32
86.35,-4.05,-6.40,-4.06,-6.39,6.00,6.03,4.80,1.95,1.94,2.34
87.22,-4.00,-6.36,-4.00,-6.36,6.00,6.00,4.77,2.00,2.00,2.36
88.09,-3.94,-6.31,-3.95,-6.32,6.00,5.97,4.74,2.06,2.06,2.36
88.97,-3.89,-6.28,-3.89,-6.27,6.01,5.94,4.71,2.11,2.11,2.39
89.86,-3.84,-6.23,-3.84,-6.23,6.01,5.91,4.68,2.17,2.17,2.39
90.76,-3.78,-6.17,-3.79,-6.18,6.01,5.87,4.66,2.23,2.22,2.38
91.66,-3.73,-6.13,-3.73,-6.12,6.00,5.83,4.64,2.27,2.27,2.40
92.58,-3.67,-6.06,-3.67,-6.06,5.99,5.79,4.63,2.32,2.32,2.38
93.51,-3.61,-6.00,-3.62,-6.00,5.97,5.75,4.62,2.35,2.35,2.38
94.44,-3.57,-5.95,-3.58,-5.95,5.93,5.71,4.61,2.36,2.36,2.38
95.39,-3.53,-5.89,-3.54,-5.89,5.89,5.66,4.61,2.35,2.35,2.36
96.34,-3.50,-5.83,-3.50,-5.83,5.83,5.61,4.61,2.32,2.33,2.33
97.30,-3.45,-5.76,-3.45,-5.76,5.76,5.56,4.61,2.30,2.30,2.30
98.28,-3.40,-5.68,-3.41,-5.68,5.68,5.51,4.61,2.28,2.28,2.27
99.26,-3.35,-5.60,-3.36,-5.60,5.60,5.46,4.62,2.25,2.24,2.24
100.25,-3.31,-5.52,-3.31,-5.51,5.52,5.41,4.63,2.21,2.21,2.20
101.25,-3.26,-5.43,-3.26,-5.43,5.44,5.35,4.64,2.18,2.18,2.17
102.27,-3.21,-5.35,-3.23,-5.36,5.36,5.29,4.66,2.15,2.14,2.14
103.29,-3.19,-5.28,-3.19,-5.28,5.29,5.23,4.67,2.09,2.10,2.09
104.32,-3.16,-5.22,-3.16,-5.21,5.22,5.18,4.69,2.05,2.06,2.06
105.37,-3.12,-5.14,-3.13,-5.15,5.14,5.11,4.71,2.02,2.01,2.02
106.42,-3.09,-5.08,-3.10,-5.08,5.07,5.05,4.72,1.98,1.98,1.99
107.48,-3.06,-5.01,-3.06,-5.01,5.01,4.99,4.74,1.94,1.95,1.95
108.56,-3.02,-4.93,-3.03,-4.93,4.93,4.93,4.76,1.91,1.91,1.91
109.64,-2.98,-4.86,-2.99,-4.87,4.86,4.87,4.78,1.88,1.87,1.87
110.74,-2.95,-4.80,-2.95,-4.79,4.79,4.80,4.80,1.84,1.84,1.84
111.85,-2.91,-4.74,-2.91,-4.72,4.73,4.74,4.81,1.81,1.81,1.82
112.97,-2.86,-4.64,-2.87,-4.65,4.65,4.67,4.83,1.79,1.79,1.77
114.10,-2.82,-4.58,-2.82,-4.58,4.58,4.61,4.84,1.76,1.76,1.76
115.24,-2.77,-4.50,-2.79,-4.51,4.51,4.54,4.85,1.74,1.73,1.73
116.39,-2.75,-4.46,-2.75,-4.45,4.44,4.48,4.85,1.68,1.69,1.71
117.55,-2.70,-4.39,-2.70,-4.38,4.36,4.41,4.86,1.66,1.67,1.68
118.73,-2.63,-4.30,-2.63,-4.30,4.29,4.35,4.85,1.66,1.66,1.66
119.92,-2.56,-4.22,-2.57,-4.22,4.23,4.28,4.85,1.66,1.66,1.66
121.12,-2.49,-4.14,-2.51,-4.15,4.16,4.22,4.84,1.67,1.66,1.64
122.33,-2.46,-4.09,-2.46,-4.09,4.11,4.16,4.83,1.64,1.65,1.62
123.55,-2.42,-4.04,-2.42,-4.04,4.05,4.09,4.81,1.63,1.63,1.62
124.79,-2.39,-4.00,-2.40,-4.00,4.00,4.03,4.79,1.61,1.61,1.60
126.03,-2.37,-3.96,-2.38,-3.97,3.96,3.97,4.76,1.59,1.58,1.59
127.29,-2.36,-3.95,-2.36,-3.94,3.92,3.91,4.73,1.56,1.56,1.58
128.57,-2.34,-3.90,-2.34,-3.90,3.89,3.84,4.69,1.55,1.55,1.56
129.85,-2.30,-3.85,-2.31,-3.86,3.86,3.78,4.65,1.55,1.55,1.55
131.15,-2.27,-3.81,-2.28,-3.82,3.82,3.72,4.60,1.55,1.54,1.53
132.46,-2.26,-3.78,-2.26,-3.78,3.79,3.66,4.55,1.52,1.53,1.52
133.79,-2.23,-3.75,-2.24,-3.75,3.75,3.61,4.49,1.51,1.51,1.52
135.12,-2.21,-3.70,-2.21,-3.71,3.71,3.55,4.44,1.49,1.49,1.49
136.48,-2.19,-3.68,-2.19,-3.67,3.67,3.49,4.37,1.47,1.48,1.49
137.84,-2.15,-3.62,-2.17,-3.63,3.62,3.44,4.31,1.47,1.45,1.47
139.22,-2.14,-3.58,-2.14,-3.58,3.57,3.38,4.24,1.43,1.44,1.44
140.61,-2.11,-3.53,-2.10,-3.53,3.52,3.33,4.17,1.41,1.42,1.42
142.02,-2.05,-3.46,-2.07,-3.47,3.47,3.27,4.10,1.41,1.40,1.41
143.44,-2.02,-3.41,-2.02,-3.40,3.41,3.22,4.02,1.38,1.39,1.39
144.87,-1.97,-3.34,-1.98,-3.34,3.35,3.17,3.94,1.37,1.37,1.36
146.32,-1.93,-3.27,-1.94,-3.28,3.29,3.12,3.87,1.35,1.35,1.34
147.78,-1.90,-3.23,-1.90,-3.22,3.22,3.07,3.79,1.32,1.33,1.33
149.26,-1.86,-3.17,-1.87,-3.16,3.16,3.02,3.71,1.30,1.30,1.30
150.75,-1.83,-3.09,-1.84,-3.11,3.10,2.97,3.63,1.27,1.27,1.26
152.26,-1.81,-3.05,-1.81,-3.05,3.05,2.92,3.56,1.23,1.24,1.23
153.78,-1.78,-3.00,-1.78,-2.99,2.99,2.88,3.48,1.21,1.21,1.21
155.32,-1.75,-2.93,-1.76,-2.94,2.94,2.83,3.40,1.18,1.18,1.18
156.88,-1.72,-2.88,-1.73,-2.88,2.88,2.79,3.32,1.16,1.15,1.16
158.44,-1.71,-2.84,-1.71,-2.83,2.83,2.74,3.25,1.12,1.12,1.12
160.03,-1.69,-2.78,-1.70,-2.78,2.79,2.70,3.17,1.09,1.09,1.08
161.63,-1.68,-2.74,-1.69,-2.74,2.74,2.66,3.10,1.06,1.06,1.05
163.24,-1.67,-2.70,-1.67,-2.70,2.70,2.62,3.03,1.03,1.03,1.02
164.88,-1.66,-2.67,-1.67,-2.66,2.66,2.58,2.96,0.99,0.99,1.00
166.53,-1.65,-2.63,-1.65,-2.62,2.61,2.54,2.89,0.96,0.96,0.97
168.19,-1.64,-2.58,-1.64,-2.58,2.57,2.50,2.83,0.92,0.93,0.93
169.87,-1.60,-2.52,-1.61,-2.53,2.52,2.47,2.76,0.91,0.90,0.91
171.57,-1.58,-2.47,-1.58,-2.47,2.46,2.43,2.70,0.88,0.88,0.89
173.29,-1.55,-2.41,-1.55,-2.41,2.41,2.40,2.64,0.85,0.86,0.86
175.02,-1.50,-2.35,-1.51,-2.35,2.35,2.36,2.58,0.85,0.84,0.84
176.77,-1.47,-2.28,-1.48,-2.29,2.29,2.33,2.52,0.82,0.82,0.81
178.54,-1.45,-2.24,-1.45,-2.24,2.24,2.30,2.46,0.79,0.79,0.78
180.32,-1.42,-2.19,-1.42,-2.19,2.19,2.26,2.41,0.77,0.77,0.77
182.13,-1.39,-2.16,-1.39,-2.15,2.15,2.23,2.36,0.75,0.75,0.76
183.95,-1.36,-2.10,-1.37,-2.11,2.11,2.20,2.31,0.74,0.74,0.74
185.79,-1.34,-2.07,-1.35,-2.07,2.08,2.17,2.26,0.74,0.74,0.72
187.65,-1.33,-2.05,-1.34,-2.05,2.06,2.15,2.21,0.73,0.72,0.71
189.52,-1.33,-2.03,-1.34,-2.03,2.04,2.12,2.17,0.71,0.71,0.70
191.42,-1.34,-2.03,-1.34,-2.03,2.03,2.09,2.12,0.69,0.69,0.69
193.33,-1.35,-2.03,-1.35,-2.03,2.02,2.07,2.08,0.67,0.67,0.67
195.27,-1.36,-2.03,-1.37,-2.03,2.02,2.04,2.04,0.65,0.65,0.66
197.22,-1.37,-2.02,-1.37,-2.02,2.01,2.02,2.00,0.63,0.64,0.65
199.19,-1.37,-1.99,-1.37,-2.00,2.00,1.99,1.97,0.62,0.62,0.62
201.18,-1.36,-1.98,-1.37,-1.98,1.98,1.97,1.93,0.61,0.61,0.62
203.19,-1.35,-1.96,-1.35,-1.96,1.95,1.95,1.90,0.59,0.60,0.61
205.23,-1.32,-1.91,-1.33,-1.93,1.92,1.93,1.86,0.59,0.59,0.59
207.28,-1.30,-1.89,-1.30,-1.88,1.88,1.91,1.83,0.58,0.58,0.59
209.35,-1.26,-1.83,-1.27,-1.84,1.84,1.89,1.80,0.58,0.57,0.57
211.44,-1.23,-1.79,-1.24,-1.80,1.80,1.87,1.78,0.56,0.56,0.55
213.56,-1.20,-1.76,-1.20,-1.75,1.75,1.85,1.75,0.55,0.55,0.55
215.69,-1.16,-1.72,-1.17,-1.71,1.71,1.83,1.72,0.55,0.55,0.55
217.85,-1.12,-1.67,-1.13,-1.67,1.67,1.81,1.70,0.55,0.54,0.55
220.03,-1.10,-1.63,-1.10,-1.63,1.64,1.79,1.67,0.54,0.54,0.53
222.23,-1.07,-1.60,-1.07,-1.60,1.61,1.78,1.65,0.54,0.54,0.52
224.45,-1.05,-1.59,-1.05,-1.58,1.59,1.76,1.63,0.54,0.54,0.53
226.70,-1.03,-1.56,-1.04,-1.57,1.57,1.75,1.61,0.54,0.54,0.53
228.96,-1.03,-1.55,-1.03,-1.56,1.56,1.73,1.59,0.53,0.53,0.52
231.25,-1.03,-1.56,-1.03,-1.55,1.55,1.72,1.57,0.52,0.52,0.52
233.57,-1.03,-1.55,-1.03,-1.55,1.54,1.71,1.55,0.50,0.51,0.52
235.90,-1.02,-1.54,-1.03,-1.54,1.53,1.70,1.54,0.50,0.50,0.51
238.26,-1.01,-1.51,-1.01,-1.52,1.51,1.68,1.52,0.49,0.50,0.50
240.64,-0.99,-1.50,-1.00,-1.49,1.49,1.67,1.50,0.49,0.49,0.50
243.05,-0.97,-1.47,-0.97,-1.47,1.46,1.66,1.49,0.49,0.49,0.50
245.48,-0.94,-1.44,-0.94,-1.44,1.43,1.65,1.47,0.49,0.49,0.50
247.93,-0.90,-1.40,-0.91,-1.40,1.40,1.64,1.46,0.50,0.50,0.49
250.41,-0.87,-1.36,-0.87,-1.37,1.38,1.63,1.45,0.50,0.50,0.49
252.92,-0.83,-1.34,-0.84,-1.34,1.35,1.62,1.43,0.51,0.51,0.51
255.45,-0.80,-1.33,-0.80,-1.32,1.32,1.62,1.42,0.52,0.52,0.52
258.00,-0.77,-1.30,-0.77,-1.30,1.30,1.61,1.41,0.52,0.53,0.53
260.58,-0.74,-1.28,-0.75,-1.29,1.28,1.60,1.40,0.54,0.54,0.53
263.19,-0.72,-1.28,-0.72,-1.27,1.27,1.60,1.39,0.55,0.56,0.56
265.82,-0.69,-1.26,-0.70,-1.27,1.27,1.59,1.38,0.58,0.57,0.57
268.48,-0.68,-1.27,-0.69,-1.27,1.28,1.58,1.37,0.59,0.59,0.58
271.16,-0.68,-1.28,-0.68,-1.28,1.29,1.58,1.36,0.60,0.61,0.60
273.87,-0.68,-1.30,-0.69,-1.30,1.31,1.57,1.35,0.62,0.62,0.61
276.61,-0.69,-1.33,-0.70,-1.32,1.33,1.57,1.35,0.63,0.63,0.63
279.38,-0.71,-1.35,-0.71,-1.35,1.35,1.57,1.34,0.63,0.64,0.64
282.17,-0.72,-1.37,-0.73,-1.38,1.37,1.56,1.34,0.65,0.64,0.65
284.99,-0.73,-1.41,-0.73,-1.40,1.39,1.56,1.33,0.66,0.66,0.67
287.84,-0.73,-1.41,-0.73,-1.41,1.40,1.56,1.33,0.67,0.67,0.68
290.72,-0.72,-1.42,-0.72,-1.42,1.41,1.56,1.32,0.69,0.69,0.70
293.63,-0.70,-1.42,-0.71,-1.42,1.42,1.56,1.32,0.71,0.71,0.71
296.57,-0.68,-1.43,-0.68,-1.42,1.42,1.55,1.32,0.73,0.73,0.74
299.53,-0.65,-1.40,-0.66,-1.41,1.41,1.55,1.32,0.76,0.75,0.75
302.53,-0.63,-1.40,-0.63,-1.41,1.41,1.55,1.32,0.77,0.78,0.77
305.55,-0.60,-1.41,-0.60,-1.40,1.40,1.55,1.32,0.80,0.80,0.80
308.61,-0.56,-1.39,-0.57,-1.39,1.39,1.56,1.32,0.83,0.83,0.82
311.69,-0.52,-1.38,-0.53,-1.39,1.39,1.56,1.32,0.86,0.85,0.85
314.81,-0.50,-1.39,-0.50,-1.38,1.38,1.56,1.32,0.88,0.88,0.89
317.96,-0.47,-1.38,-0.47,-1.38,1.37,1.56,1.33,0.90,0.90,0.91
321.14,-0.44,-1.38,-0.44,-1.38,1.37,1.56,1.33,0.93,0.93,0.93
324.35,-0.41,-1.37,-0.41,-1.37,1.37,1.56,1.34,0.96,0.96,0.95
327.59,-0.38,-1.37,-0.39,-1.37,1.38,1.57,1.35,0.99,0.99,0.98
330.87,-0.37,-1.38,-0.37,-1.38,1.39,1.57,1.36,1.01,1.02,1.01
334.18,-0.36,-1.39,-0.36,-1.39,1.40,1.57,1.37,1.04,1.04,1.03
337.52,-0.35,-1.41,-0.36,-1.42,1.43,1.58,1.38,1.07,1.07,1.06
340.90,-0.36,-1.45,-0.36,-1.45,1.45,1.58,1.39,1.09,1.09,1.09
344.30,-0.37,-1.49,-0.37,-1.48,1.48,1.59,1.40,1.10,1.11,1.11
347.75,-0.38,-1.52,-0.38,-1.52,1.51,1.59,1.41,1.13,1.13,1.13
351.23,-0.38,-1.55,-0.39,-1.55,1.54,1.60,1.43,1.16,1.15,1.16
354.74,-0.38,-1.57,-0.39,-1.57,1.57,1.60,1.45,1.18,1.18,1.19
358.28,-0.38,-1.59,-0.38,-1.60,1.60,1.61,1.46,1.21,1.21,1.21
361.87,-0.38,-1.62,-0.38,-1.62,1.62,1.61,1.48,1.24,1.24,1.24
365.49,-0.38,-1.64,-0.38,-1.64,1.64,1.62,1.50,1.26,1.26,1.26
369.14,-0.38,-1.66,-0.38,-1.66,1.66,1.63,1.52,1.28,1.28,1.28
372.83,-0.38,-1.68,-0.38,-1.68,1.68,1.63,1.54,1.30,1.30,1.29
376.56,-0.38,-1.70,-0.38,-1.70,1.70,1.64,1.56,1.32,1.32,1.31
380.33,-0.38,-1.73,-0.38,-1.72,1.72,1.65,1.58,1.33,1.33,1.34
384.13,-0.38,-1.74,-0.38,-1.74,1.73,1.66,1.61,1.35,1.35,1.35
387.97,-0.38,-1.75,-0.38,-1.75,1.75,1.66,1.63,1.36,1.36,1.36
391.85,-0.38,-1.76,-0.38,-1.76,1.76,1.67,1.66,1.38,1.38,1.37
395.77,-0.38,-1.77,-0.38,-1.77,1.77,1.68,1.68,1.39,1.39,1.39
399.73,-0.38,-1.78,-0.38,-1.78,1.79,1.69,1.71,1.40,1.40,1.40
403.72,-0.38,-1.79,-0.38,-1.80,1.80,1.70,1.74,1.41,1.41,1.41
407.76,-0.38,-1.80,-0.38,-1.81,1.80,1.71,1.77,1.42,1.42,1.42
411.84,-0.38,-1.82,-0.38,-1.82,1.81,1.72,1.79,1.43,1.43,1.44
415.96,-0.38,-1.82,-0.38,-1.82,1.82,1.73,1.82,1.43,1.43,1.44
420.12,-0.38,-1.82,-0.38,-1.82,1.82,1.74,1.85,1.44,1.44,1.44
424.32,-0.38,-1.82,-0.38,-1.82,1.82,1.75,1.88,1.44,1.44,1.44
428.56,-0.38,-1.82,-0.38,-1.82,1.82,1.76,1.91,1.44,1.44,1.43
432.85,-0.38,-1.82,-0.38,-1.82,1.82,1.77,1.93,1.44,1.44,1.43
437.18,-0.38,-1.82,-0.38,-1.82,1.82,1.78,1.96,1.43,1.43,1.43
441.55,-0.38,-1.82,-0.38,-1.82,1.82,1.79,1.99,1.43,1.43,1.43
445.96,-0.38,-1.82,-0.38,-1.81,1.81,1.80,2.01,1.43,1.43,1.43
450.42,-0.38,-1.81,-0.38,-1.81,1.81,1.82,2.04,1.43,1.43,1.42
454.93,-0.38,-1.81,-0.38,-1.81,1.81,1.83,2.06,1.43,1.43,1.42
459.48,-0.38,-1.81,-0.39,-1.81,1.81,1.84,2.08,1.42,1.42,1.42
464.07,-0.38,-1.81,-0.38,-1.81,1.80,1.85,2.11,1.42,1.42,1.42
468.71,-0.38,-1.82,-0.38,-1.81,1.80,1.86,2.13,1.41,1.42,1.43
473.40,-0.37,-1.79,-0.38,-1.80,1.79,1.88,2.14,1.42,1.42,1.42
