frequency,raw,error,smoothed,error_smoothed,equalization,parametric_eq,fixed_band_eq,equalized_raw,equalized_smoothed,target
20.00,17.09,10.83,17.09,10.83,-10.83,-10.60,-5.50,6.25,6.25,6.26
20.20,17.11,10.87,17.11,10.87,-10.87,-10.66,-5.64,6.24,6.24,6.24
20.40,17.14,10.91,17.13,10.90,-10.90,-10.71,-5.78,6.23,6.23,6.23
20.61,17.16,10.93,17.16,10.94,-10.94,-10.77,-5.93,6.22,6.22,6.23
20.81,17.19,10.98,17.19,10.98,-10.97,-10.82,-6.08,6.21,6.21,6.21
21.02,17.21,11.01,17.21,11.01,-11.01,-10.87,-6.23,6.20,6.20,6.20
21.23,17.24,11.05,17.23,11.04,-11.04,-10.93,-6.39,6.20,6.20,6.19
21.44,17.26,11.06,17.26,11.07,-11.07,-10.98,-6.55,6.19,6.19,6.20
21.66,17.28,11.09,17.28,11.10,-11.10,-11.02,-6.72,6.18,6.18,6.19
21.87,17.31,11.13,17.30,11.13,-11.13,-11.07,-6.90,6.18,6.17,6.18
22.09,17.33,11.16,17.33,11.16,-11.16,-11.12,-7.07,6.17,6.17,6.16
22.31,17.35,11.18,17.35,11.19,-11.19,-11.16,-7.25,6.16,6.16,6.16
22.54,17.38,11.22,17.37,11.21,-11.22,-11.21,-7.44,6.16,6.16,6.15
22.76,17.40,11.23,17.40,11.24,-11.25,-11.25,-7.63,6.15,6.15,6.16
22.99,17.43,11.27,17.43,11.27,-11.28,-11.29,-7.83,6.15,6.15,6.15
23.22,17.45,11.31,17.45,11.30,-11.30,-11.33,-8.03,6.15,6.15,6.14
23.45,17.48,11.34,17.48,11.33,-11.33,-11.37,-8.23,6.15,6.15,6.14
23.69,17.50,11.36,17.50,11.36,-11.35,-11.40,-8.45,6.15,6.15,6.14
23.92,17.52,11.38,17.52,11.38,-11.38,-11.44,-8.66,6.14,6.14,6.14
24.16,17.54,11.40,17.54,11.40,-11.40,-11.47,-8.88,6.14,6.14,6.14
24.40,17.57,11.42,17.56,11.42,-11.43,-11.51,-9.11,6.14,6.14,6.15
24.65,17.59,11.44,17.59,11.44,-11.45,-11.54,-9.34,6.14,6.14,6.15
24.89,17.61,11.47,17.61,11.47,-11.48,-11.57,-9.57,6.13,6.13,6.14
25.14,17.63,11.50,17.63,11.50,-11.50,-11.60,-9.81,6.13,6.13,6.13
25.39,17.66,11.53,17.65,11.53,-11.53,-11.63,-10.06,6.13,6.13,6.13
25.65,17.68,11.56,17.68,11.56,-11.55,-11.65,-10.30,6.13,6.13,6.12
25.91,17.70,11.58,17.70,11.58,-11.58,-11.68,-10.55,6.12,6.12,6.11
26.16,17.72,11.59,17.72,11.60,-11.60,-11.70,-10.80,6.11,6.11,6.12
26.43,17.74,11.62,17.74,11.62,-11.63,-11.73,-11.06,6.11,6.11,6.11
26.69,17.76,11.65,17.76,11.65,-11.65,-11.75,-11.31,6.11,6.11,6.11
26.96,17.78,11.67,17.78,11.67,-11.67,-11.77,-11.57,6.11,6.11,6.11
27.23,17.80,11.70,17.80,11.69,-11.69,-11.79,-11.82,6.11,6.11,6.10
27.50,17.82,11.72,17.81,11.71,-11.71,-11.81,-12.08,6.11,6.10,6.10
27.77,17.83,11.72,17.83,11.73,-11.73,-11.83,-12.32,6.10,6.10,6.11
28.05,17.85,11.74,17.85,11.74,-11.75,-11.84,-12.57,6.10,6.10,6.11
28.33,17.87,11.76,17.87,11.76,-11.76,-11.86,-12.80,6.10,6.10,6.10
28.62,17.89,11.78,17.89,11.78,-11.78,-11.87,-13.03,6.11,6.11,6.10
28.90,17.90,11.79,17.90,11.79,-11.79,-11.89,-13.25,6.11,6.11,6.11
29.19,17.92,11.81,17.92,11.81,-11.80,-11.90,-13.45,6.11,6.11,6.11
29.48,17.93,11.82,17.93,11.82,-11.82,-11.92,-13.64,6.11,6.11,6.11
29.78,17.95,11.84,17.95,11.83,-11.83,-11.93,-13.81,6.12,6.12,6.11
30.08,17.96,11.83,17.96,11.84,-11.84,-11.94,-13.96,6.12,6.12,6.13
30.38,17.97,11.85,17.97,11.85,-11.85,-11.95,-14.09,6.11,6.12,6.11
30.68,17.98,11.87,17.98,11.86,-11.87,-11.96,-14.20,6.11,6.11,6.11
30.99,17.99,11.88,17.99,11.88,-11.88,-11.97,-14.28,6.11,6.11,6.11
31.30,18.00,11.89,18.00,11.89,-11.89,-11.98,-14.34,6.10,6.11,6.11
31.61,18.01,11.90,18.01,11.91,-11.91,-11.99,-14.38,6.10,6.10,6.11
31.93,18.03,11.93,18.02,11.92,-11.92,-12.00,-14.40,6.11,6.10,6.09
32.24,18.03,11.94,18.03,11.94,-11.94,-12.01,-14.39,6.09,6.09,6.09
32.57,18.04,11.96,18.04,11.96,-11.95,-12.02,-14.36,6.09,6.09,6.08
32.89,18.05,11.97,18.04,11.96,-11.97,-12.02,-14.32,6.08,6.08,6.08
33.22,18.05,11.97,18.05,11.98,-11.98,-12.03,-14.25,6.07,6.07,6.08
33.55,18.06,11.98,18.06,11.99,-11.99,-12.04,-14.17,6.07,6.07,6.07
33.89,18.07,12.01,18.06,12.00,-12.00,-12.05,-14.08,6.07,6.06,6.06
34.23,18.07,12.02,18.07,12.02,-12.01,-12.06,-13.98,6.06,6.06,6.05
34.57,18.07,12.02,18.07,12.02,-12.02,-12.06,-13.87,6.04,6.04,6.05
34.92,18.07,12.04,18.07,12.03,-12.04,-12.07,-13.75,6.03,6.03,6.03
35.27,18.07,12.03,18.07,12.04,-12.05,-12.08,-13.63,6.02,6.02,6.04
35.62,18.08,12.07,18.07,12.06,-12.06,-12.08,-13.50,6.02,6.01,6.01
35.97,18.08,12.07,18.08,12.07,-12.07,-12.09,-13.38,6.00,6.00,6.00
36.33,18.08,12.09,18.08,12.09,-12.09,-12.10,-13.25,5.99,5.99,5.99
36.70,18.08,12.10,18.08,12.10,-12.10,-12.11,-13.13,5.98,5.97,5.98
37.06,18.08,12.12,18.08,12.12,-12.12,-12.11,-13.01,5.96,5.96,5.96
37.43,18.08,12.13,18.08,12.13,-12.14,-12.12,-12.89,5.94,5.95,5.95
37.81,18.09,12.15,18.08,12.15,-12.15,-12.13,-12.77,5.93,5.93,5.93
38.19,18.09,12.18,18.08,12.17,-12.17,-12.14,-12.66,5.92,5.91,5.91
38.57,18.08,12.18,18.08,12.19,-12.19,-12.15,-12.56,5.89,5.90,5.90
38.95,18.08,12.21,18.08,12.21,-12.21,-12.16,-12.46,5.87,5.87,5.87
39.34,18.08,12.23,18.07,12.22,-12.22,-12.17,-12.37,5.85,5.85,5.85
39.74,18.07,12.24,18.07,12.24,-12.24,-12.18,-12.29,5.83,5.83,5.83
40.14,18.07,12.26,18.06,12.26,-12.26,-12.19,-12.21,5.81,5.81,5.81
40.54,18.06,12.27,18.06,12.27,-12.27,-12.20,-12.14,5.79,5.79,5.79
40.94,18.06,12.29,18.06,12.29,-12.29,-12.21,-12.08,5.77,5.77,5.77
41.35,18.06,12.31,18.05,12.30,-12.30,-12.22,-12.02,5.76,5.75,5.75
41.76,18.05,12.31,18.05,12.31,-12.31,-12.23,-11.97,5.73,5.73,5.73
42.18,18.04,12.32,18.04,12.32,-12.33,-12.25,-11.94,5.71,5.71,5.72
42.60,18.03,12.34,18.03,12.33,-12.34,-12.26,-11.90,5.69,5.69,5.69
43.03,18.02,12.35,18.02,12.35,-12.35,-12.27,-11.88,5.67,5.67,5.67
43.46,18.01,12.36,18.01,12.36,-12.36,-12.29,-11.87,5.65,5.65,5.65
43.90,18.00,12.38,18.00,12.37,-12.37,-12.30,-11.86,5.63,5.63,5.62
44.33,17.99,12.38,17.99,12.38,-12.38,-12.32,-11.86,5.60,5.61,5.60
44.78,17.98,12.40,17.97,12.39,-12.40,-12.33,-11.87,5.58,5.58,5.58
45.23,17.96,12.40,17.96,12.41,-12.41,-12.35,-11.89,5.55,5.55,5.56
45.68,17.94,12.42,17.94,12.42,-12.42,-12.37,-11.92,5.52,5.52,5.52
46.13,17.93,12.45,17.92,12.44,-12.44,-12.39,-11.95,5.49,5.49,5.48
46.60,17.91,12.45,17.91,12.46,-12.45,-12.40,-11.99,5.45,5.46,5.45
47.06,17.90,12.47,17.89,12.47,-12.47,-12.42,-12.04,5.43,5.42,5.42
47.53,17.88,12.48,17.88,12.49,-12.49,-12.44,-12.10,5.39,5.39,5.39
48.01,17.86,12.51,17.86,12.51,-12.51,-12.46,-12.17,5.35,5.35,5.35
48.49,17.85,12.53,17.84,12.53,-12.53,-12.48,-12.24,5.32,5.31,5.32
48.97,17.83,12.55,17.83,12.56,-12.55,-12.51,-12.32,5.27,5.28,5.27
49.46,17.82,12.57,17.82,12.58,-12.57,-12.53,-12.41,5.24,5.24,5.24
49.96,17.80,12.61,17.80,12.60,-12.59,-12.55,-12.50,5.20,5.21,5.19
50.46,17.79,12.62,17.78,12.62,-12.61,-12.57,-12.60,5.17,5.17,5.17
50.96,17.77,12.63,17.77,12.63,-12.63,-12.60,-12.71,5.13,5.14,5.14
51.47,17.76,12.65,17.76,12.65,-12.66,-12.62,-12.82,5.10,5.10,5.11
51.99,17.75,12.68,17.75,12.67,-12.68,-12.65,-12.93,5.07,5.07,5.07
52.51,17.74,12.70,17.74,12.70,-12.70,-12.67,-13.05,5.03,5.04,5.04
53.03,17.74,12.72,17.73,12.73,-12.73,-12.70,-13.18,5.01,5.00,5.01
53.56,17.73,12.76,17.73,12.76,-12.76,-12.72,-13.30,4.97,4.97,4.97
54.10,17.73,12.79,17.73,12.79,-12.79,-12.75,-13.43,4.94,4.94,4.94
54.64,17.72,12.82,17.72,12.83,-12.82,-12.78,-13.56,4.89,4.90,4.90
55.18,17.72,12.86,17.71,12.86,-12.86,-12.80,-13.68,4.86,4.86,4.85
55.74,17.71,12.89,17.71,12.89,-12.89,-12.83,-13.81,4.82,4.82,4.82
56.29,17.71,12.91,17.71,12.91,-12.91,-12.86,-13.93,4.80,4.80,4.80
56.86,17.71,12.94,17.71,12.94,-12.94,-12.89,-14.05,4.77,4.77,4.77
57.42,17.71,12.97,17.70,12.97,-12.96,-12.92,-14.16,4.75,4.75,4.73
58.00,17.70,12.99,17.70,12.98,-12.98,-12.94,-14.26,4.72,4.72,4.70
58.58,17.68,12.98,17.68,12.99,-12.99,-12.97,-14.35,4.68,4.69,4.69
59.16,17.67,13.00,17.66,13.00,-13.01,-13.00,-14.43,4.65,4.65,4.66
59.76,17.65,13.01,17.65,13.02,-13.04,-13.03,-14.50,4.61,4.62,4.63
60.35,17.64,13.05,17.64,13.05,-13.06,-13.06,-14.55,4.58,4.58,4.59
60.96,17.63,13.08,17.62,13.08,-13.08,-13.09,-14.59,4.55,4.55,4.55
61.57,17.61,13.11,17.61,13.11,-13.10,-13.12,-14.61,4.51,4.51,4.50
62.18,17.59,13.13,17.58,13.13,-13.12,-13.14,-14.62,4.47,4.46,4.45
62.80,17.56,13.15,17.56,13.15,-13.14,-13.17,-14.61,4.42,4.42,4.41
63.43,17.53,13.16,17.53,13.17,-13.16,-13.20,-14.57,4.37,4.38,4.36
64.07,17.51,13.18,17.50,13.17,-13.17,-13.23,-14.53,4.34,4.33,4.33
64.71,17.47,13.18,17.47,13.18,-13.18,-13.25,-14.46,4.29,4.29,4.29
65.35,17.43,13.17,17.43,13.18,-13.18,-13.28,-14.38,4.24,4.25,4.25
66.01,17.40,13.18,17.40,13.18,-13.19,-13.31,-14.29,4.21,4.21,4.22
66.67,17.37,13.18,17.37,13.19,-13.20,-13.33,-14.18,4.17,4.17,4.19
67.33,17.35,13.21,17.35,13.21,-13.20,-13.35,-14.06,4.14,4.14,4.14
68.01,17.32,13.22,17.32,13.22,-13.21,-13.38,-13.94,4.11,4.10,4.10
68.69,17.29,13.23,17.29,13.23,-13.22,-13.40,-13.80,4.07,4.06,4.06
69.37,17.25,13.22,17.25,13.23,-13.23,-13.42,-13.66,4.02,4.02,4.02
70.07,17.23,13.24,17.22,13.24,-13.24,-13.44,-13.51,3.98,3.98,3.99
70.77,17.20,13.25,17.20,13.25,-13.26,-13.46,-13.36,3.94,3.94,3.95
71.48,17.17,13.27,17.17,13.26,-13.27,-13.47,-13.21,3.90,3.90,3.90
72.19,17.14,13.28,17.13,13.28,-13.28,-13.49,-13.05,3.86,3.86,3.86
72.91,17.10,13.28,17.10,13.29,-13.28,-13.50,-12.90,3.81,3.82,3.82
73.64,17.07,13.29,17.07,13.29,-13.29,-13.52,-12.75,3.78,3.78,3.77
74.38,17.04,13.30,17.04,13.30,-13.29,-13.53,-12.60,3.74,3.74,3.73
75.12,17.01,13.30,17.01,13.30,-13.30,-13.53,-12.45,3.71,3.71,3.71
75.87,16.98,13.30,16.97,13.30,-13.30,-13.54,-12.31,3.68,3.68,3.68
76.63,16.94,13.29,16.94,13.29,-13.30,-13.54,-12.17,3.64,3.64,3.65
77.40,16.90,13.28,16.90,13.29,-13.30,-13.54,-12.03,3.60,3.61,3.61
78.17,16.87,13.29,16.87,13.29,-13.29,-13.54,-11.91,3.58,3.58,3.58
78.95,16.85,13.29,16.84,13.29,-13.29,-13.54,-11.79,3.56,3.56,3.56
79.74,16.82,13.28,16.82,13.29,-13.28,-13.53,-11.67,3.54,3.54,3.53
80.54,16.78,13.28,16.78,13.28,-13.27,-13.53,-11.56,3.51,3.51,3.50
81.35,16.74,13.26,16.74,13.26,-13.26,-13.51,-11.46,3.48,3.48,3.47
82.16,16.69,13.24,16.69,13.25,-13.25,-13.50,-11.37,3.44,3.44,3.45
82.98,16.64,13.23,16.64,13.23,-13.23,-13.48,-11.28,3.41,3.41,3.41
83.81,16.59,13.22,16.59,13.21,-13.21,-13.46,-11.20,3.37,3.37,3.37
84.65,16.53,13.18,16.53,13.19,-13.19,-13.44,-11.13,3.33,3.34,3.34
85.50,16.48,13.17,16.48,13.17,-13.17,-13.42,-11.06,3.31,3.30,3.30
86.35,16.42,13.14,16.42,13.15,-13.15,-13.39,-11.01,3.27,3.27,3.27
87.22,16.36,13.12,16.36,13.12,-13.12,-13.35,-10.96,3.24,3.24,3.24
88.09,16.30,13.10,16.29,13.09,-13.09,-13.32,-10.91,3.21,3.21,3.20
88.97,16.23,13.06,16.23,13.06,-13.05,-13.28,-10.88,3.17,3.17,3.17
89.86,16.15,13.02,16.15,13.02,-13.02,-13.24,-10.85,3.13,3.13,3.13
90.76,16.08,12.99,16.07,12.98,-12.98,-13.20,-10.83,3.09,3.09,3.09
91.66,16.00,12.94,16.00,12.94,-12.95,-13.15,-10.82,3.05,3.05,3.06
92.58,15.92,12.89,15.92,12.90,-12.91,-13.10,-10.82,3.01,3.02,3.02
93.51,15.85,12.86,15.85,12.86,-12.87,-13.05,-10.82,2.98,2.98,2.99
94.44,15.78,12.82,15.77,12.82,-12.83,-12.99,-10.83,2.95,2.95,2.95
95.39,15.70,12.79,15.70,12.79,-12.78,-12.93,-10.85,2.92,2.91,2.91
96.34,15.61,12.75,15.61,12.74,-12.73,-12.87,-10.87,2.87,2.87,2.86
97.30,15.52,12.69,15.52,12.70,-12.69,-12.81,-10.90,2.83,2.84,2.83
98.28,15.43,12.64,15.43,12.65,-12.63,-12.74,-10.94,2.79,2.79,2.79
99.26,15.34,12.60,15.33,12.58,-12.58,-12.67,-10.98,2.76,2.75,2.74
100.25,15.23,12.52,15.22,12.51,-12.53,-12.60,-11.03,2.70,2.69,2.70
101.25,15.12,12.43,15.13,12.45,-12.48,-12.52,-11.08,2.64,2.65,2.69
102.27,15.04,12.39,15.05,12.40,-12.42,-12.44,-11.14,2.62,2.63,2.65
103.29,14.99,12.38,14.98,12.36,-12.36,-12.36,-11.20,2.63,2.62,2.61
104.32,14.92,12.32,14.90,12.32,-12.30,-12.28,-11.27,2.62,2.60,2.59
105.37,14.80,12.24,14.81,12.25,-12.23,-12.20,-11.34,2.56,2.58,2.55
106.42,14.70,12.17,14.70,12.17,-12.16,-12.11,-11.41,2.54,2.54,2.53
107.48,14.59,12.10,14.58,12.09,-12.08,-12.02,-11.48,2.51,2.50,2.49
108.56,14.46,12.00,14.46,12.00,-11.99,-11.93,-11.56,2.47,2.47,2.46
109.64,14.33,11.90,14.33,11.90,-11.90,-11.84,-11.63,2.43,2.43,2.42
110.74,14.20,11.80,14.19,11.80,-11.80,-11.75,-11.70,2.39,2.39,2.40
111.85,14.06,11.70,14.06,11.70,-11.71,-11.65,-11.77,2.35,2.35,2.36
112.97,13.92,11.60,13.92,11.59,-11.62,-11.56,-11.83,2.30,2.30,2.32
114.10,13.79,11.49,13.79,11.50,-11.53,-11.46,-11.89,2.26,2.26,2.30
115.24,13.67,11.42,13.68,11.43,-11.44,-11.36,-11.95,2.23,2.25,2.25
116.39,13.59,11.38,13.58,11.37,-11.35,-11.26,-11.99,2.24,2.23,2.20
117.55,13.48,11.30,13.46,11.29,-11.25,-11.16,-12.03,2.22,2.21,2.18
118.73,13.33,11.19,13.32,11.18,-11.16,-11.06,-12.05,2.17,2.16,2.13
119.92,13.16,11.05,13.16,11.05,-11.07,-10.96,-12.06,2.09,2.10,2.11
121.12,13.00,10.91,13.03,10.95,-10.97,-10.85,-12.06,2.03,2.06,2.08
122.33,12.92,10.87,12.91,10.85,-10.87,-10.75,-12.05,2.05,2.04,2.05
123.55,12.81,10.79,12.78,10.76,-10.77,-10.64,-12.02,2.04,2.01,2.02
124.79,12.65,10.65,12.66,10.67,-10.67,-10.54,-11.98,1.98,1.99,2.00
126.03,12.50,10.54,12.53,10.57,-10.56,-10.43,-11.93,1.93,1.96,1.95
127.29,12.41,10.48,12.40,10.47,-10.47,-10.33,-11.86,1.94,1.93,1.92
128.57,12.29,10.40,12.26,10.37,-10.36,-10.22,-11.77,1.92,1.90,1.89
129.85,12.12,10.26,12.12,10.27,-10.26,-10.12,-11.67,1.86,1.86,1.85
131.15,11.94,10.12,11.97,10.16,-10.15,-10.01,-11.56,1.78,1.82,1.81
132.46,11.84,10.06,11.81,10.04,-10.05,-9.90,-11.43,1.79,1.77,1.78
133.79,11.69,9.95,11.67,9.93,-9.94,-9.80,-11.30,1.75,1.73,1.74
135.12,11.50,9.80,11.53,9.82,-9.83,-9.69,-11.15,1.66,1.70,1.70
136.48,11.40,9.71,11.38,9.71,-9.72,-9.59,-11.00,1.68,1.66,1.68
137.84,11.25,9.60,11.27,9.62,-9.61,-9.48,-10.83,1.64,1.65,1.65
139.22,11.15,9.54,11.13,9.52,-9.50,-9.37,-10.66,1.65,1.63,1.61
140.61,11.01,9.43,10.98,9.40,-9.39,-9.27,-10.49,1.62,1.60,1.58
142.02,10.79,9.24,10.83,9.28,-9.27,-9.16,-10.31,1.51,1.55,1.55
143.44,10.69,9.17,10.68,9.15,-9.16,-9.06,-10.13,1.53,1.51,1.52
144.87,10.53,9.02,10.53,9.03,-9.05,-8.95,-9.95,1.48,1.48,1.51
146.32,10.42,8.94,10.41,8.93,-8.94,-8.85,-9.76,1.48,1.47,1.48
147.78,10.26,8.80,10.27,8.81,-8.82,-8.75,-9.58,1.44,1.45,1.46
149.26,10.15,8.72,10.14,8.71,-8.70,-8.64,-9.39,1.44,1.44,1.43
150.75,10.00,8.60,10.00,8.59,-8.59,-8.54,-9.21,1.41,1.41,1.40
152.26,9.88,8.49,9.87,8.48,-8.47,-8.44,-9.03,1.41,1.40,1.38
153.78,9.70,8.34,9.71,8.35,-8.35,-8.34,-8.85,1.35,1.37,1.36
155.32,9.58,8.24,9.57,8.23,-8.22,-8.24,-8.68,1.35,1.34,1.33
156.88,9.40,8.09,9.40,8.09,-8.10,-8.14,-8.51,1.30,1.30,1.31
158.44,9.26,7.98,9.24,7.96,-7.98,-8.04,-8.34,1.28,1.26,1.28
160.03,9.07,7.81,9.10,7.84,-7.86,-7.94,-8.18,1.21,1.24,1.25
161.63,8.96,7.74,8.96,7.74,-7.74,-7.84,-8.02,1.21,1.21,1.22
163.24,8.85,7.67,8.82,7.63,-7.63,-7.75,-7.86,1.22,1.19,1.18
164.88,8.67,7.52,8.69,7.54,-7.52,-7.65,-7.71,1.15,1.17,1.15
166.53,8.54,7.42,8.55,7.43,-7.41,-7.56,-7.56,1.12,1.13,1.12
168.19,8.43,7.33,8.40,7.31,-7.31,-7.46,-7.42,1.12,1.09,1.09
169.87,8.26,7.20,8.27,7.21,-7.21,-7.37,-7.29,1.05,1.06,1.06
171.57,8.13,7.10,8.14,7.11,-7.11,-7.28,-7.15,1.02,1.03,1.03
173.29,8.02,7.02,8.00,7.01,-7.02,-7.18,-7.03,1.00,0.98,0.99
175.02,7.87,6.91,7.88,6.92,-6.92,-7.09,-6.91,0.95,0.95,0.96
176.77,7.75,6.82,7.76,6.83,-6.83,-7.01,-6.79,0.92,0.92,0.92
178.54,7.65,6.75,7.64,6.75,-6.75,-6.92,-6.68,0.90,0.90,0.90
180.32,7.54,6.68,7.54,6.68,-6.67,-6.83,-6.57,0.87,0.87,0.86
182.13,7.44,6.61,7.42,6.60,-6.59,-6.75,-6.47,0.85,0.84,0.82
183.95,7.30,6.50,7.31,6.52,-6.52,-6.66,-6.37,0.78,0.79,0.79
185.79,7.19,6.44,7.19,6.44,-6.45,-6.58,-6.27,0.74,0.74,0.75
187.65,7.09,6.37,7.09,6.37,-6.39,-6.50,-6.18,0.70,0.71,0.72
189.52,7.01,6.33,7.00,6.32,-6.33,-6.42,-6.10,0.68,0.68,0.68
191.42,6.93,6.28,6.92,6.27,-6.27,-6.34,-6.02,0.65,0.65,0.65
193.33,6.84,6.21,6.84,6.23,-6.22,-6.27,-5.94,0.61,0.62,0.62
195.27,6.77,6.18,6.77,6.18,-6.18,-6.19,-5.87,0.59,0.59,0.59
197.22,6.70,6.15,6.70,6.14,-6.13,-6.12,-5.80,0.56,0.56,0.55
199.19,6.63,6.10,6.62,6.10,-6.09,-6.05,-5.73,0.54,0.53,0.53
201.18,6.55,6.05,6.55,6.05,-6.04,-5.98,-5.67,0.50,0.50,0.50
203.19,6.47,5.99,6.47,5.99,-6.00,-5.92,-5.61,0.47,0.47,0.48
205.23,6.40,5.94,6.40,5.94,-5.95,-5.86,-5.56,0.45,0.45,0.45
207.28,6.33,5.89,6.33,5.89,-5.90,-5.80,-5.50,0.43,0.43,0.44
209.35,6.26,5.85,6.26,5.85,-5.84,-5.75,-5.45,0.41,0.41,0.41
211.44,6.18,5.80,6.18,5.80,-5.79,-5.70,-5.40,0.39,0.39,0.38
213.56,6.11,5.74,6.10,5.73,-5.74,-5.65,-5.35,0.37,0.36,0.37
215.69,6.02,5.67,6.02,5.67,-5.68,-5.61,-5.31,0.34,0.34,0.35
217.85,5.93,5.60,5.94,5.62,-5.62,-5.57,-5.26,0.31,0.32,0.32
220.03,5.87,5.57,5.86,5.56,-5.56,-5.53,-5.22,0.31,0.31,0.30
222.23,5.79,5.51,5.78,5.50,-5.49,-5.49,-5.18,0.30,0.29,0.28
224.45,5.70,5.44,5.69,5.43,-5.42,-5.45,-5.13,0.27,0.27,0.26
226.70,5.60,5.35,5.60,5.35,-5.36,-5.41,-5.09,0.24,0.24,0.25
228.96,5.50,5.26,5.51,5.28,-5.29,-5.35,-5.05,0.21,0.23,0.24
231.25,5.44,5.22,5.43,5.21,-5.22,-5.29,-5.01,0.22,0.21,0.22
233.57,5.36,5.15,5.34,5.14,-5.14,-5.22,-4.96,0.22,0.20,0.21
235.90,5.24,5.05,5.26,5.07,-5.06,-5.14,-4.92,0.17,0.20,0.19
238.26,5.18,5.00,5.17,4.98,-4.98,-5.05,-4.87,0.20,0.19,0.18
240.64,5.09,4.90,5.09,4.91,-4.90,-4.95,-4.82,0.19,0.19,0.19
243.05,5.02,4.83,5.00,4.83,-4.81,-4.85,-4.77,0.20,0.19,0.18
245.48,4.91,4.74,4.90,4.73,-4.73,-4.74,-4.72,0.18,0.17,0.17
247.93,4.78,4.62,4.80,4.64,-4.64,-4.64,-4.67,0.14,0.16,0.16
250.41,4.72,4.55,4.70,4.54,-4.55,-4.54,-4.61,0.17,0.15,0.17
252.92,4.62,4.44,4.62,4.45,-4.46,-4.44,-4.56,0.16,0.16,0.17
255.45,4.54,4.37,4.54,4.37,-4.37,-4.34,-4.50,0.17,0.17,0.17
258.00,4.46,4.29,4.45,4.29,-4.28,-4.25,-4.43,0.17,0.17,0.17
260.58,4.37,4.20,4.37,4.21,-4.20,-4.16,-4.37,0.17,0.17,0.16
263.19,4.29,4.12,4.28,4.12,-4.12,-4.07,-4.30,0.17,0.16,0.17
265.82,4.20,4.04,4.20,4.04,-4.04,-3.99,-4.23,0.16,0.16,0.16
268.48,4.12,3.95,4.12,3.96,-3.97,-3.91,-4.16,0.15,0.16,0.17
271.16,4.06,3.90,4.05,3.88,-3.89,-3.84,-4.09,0.17,0.16,0.16
273.87,3.97,3.80,3.98,3.82,-3.82,-3.76,-4.02,0.15,0.16,0.16
276.61,3.91,3.75,3.91,3.75,-3.74,-3.69,-3.95,0.16,0.16,0.16
279.38,3.84,3.69,3.84,3.68,-3.67,-3.62,-3.87,0.17,0.17,0.14
282.17,3.77,3.61,3.77,3.61,-3.60,-3.55,-3.79,0.17,0.17,0.16
284.99,3.70,3.53,3.69,3.53,-3.53,-3.48,-3.72,0.17,0.16,0.17
287.84,3.61,3.44,3.62,3.45,-3.46,-3.42,-3.64,0.15,0.16,0.17
290.72,3.55,3.39,3.55,3.39,-3.39,-3.36,-3.56,0.16,0.16,0.16
293.63,3.50,3.33,3.49,3.32,-3.32,-3.30,-3.49,0.18,0.17,0.16
296.57,3.43,3.25,3.43,3.26,-3.25,-3.23,-3.41,0.18,0.18,0.18
299.53,3.37,3.19,3.37,3.19,-3.18,-3.18,-3.33,0.18,0.19,0.18
302.53,3.31,3.13,3.31,3.12,-3.12,-3.12,-3.25,0.19,0.19,0.18
305.55,3.25,3.06,3.24,3.05,-3.06,-3.06,-3.18,0.19,0.19,0.19
308.61,3.18,2.98,3.18,2.98,-2.99,-3.00,-3.10,0.18,0.19,0.20
311.69,3.12,2.92,3.13,2.92,-2.93,-2.95,-3.03,0.19,0.20,0.20
314.81,3.08,2.87,3.08,2.87,-2.87,-2.90,-2.96,0.21,0.21,0.21
317.96,3.04,2.82,3.03,2.82,-2.81,-2.84,-2.88,0.23,0.22,0.22
321.14,2.98,2.75,2.98,2.76,-2.75,-2.79,-2.81,0.23,0.23,0.22
324.35,2.92,2.70,2.92,2.69,-2.69,-2.74,-2.74,0.23,0.23,0.22
327.59,2.87,2.62,2.87,2.63,-2.63,-2.69,-2.68,0.23,0.23,0.25
330.87,2.82,2.57,2.82,2.57,-2.58,-2.64,-2.61,0.24,0.24,0.25
334.18,2.77,2.52,2.77,2.52,-2.52,-2.59,-2.54,0.24,0.25,0.24
337.52,2.73,2.47,2.73,2.47,-2.47,-2.54,-2.48,0.26,0.26,0.26
340.90,2.69,2.42,2.68,2.42,-2.41,-2.49,-2.42,0.27,0.27,0.27
344.30,2.64,2.36,2.64,2.36,-2.36,-2.44,-2.36,0.28,0.28,0.28
347.75,2.60,2.31,2.59,2.31,-2.31,-2.40,-2.30,0.29,0.29,0.28
351.23,2.55,2.26,2.55,2.26,-2.26,-2.35,-2.24,0.29,0.29,0.29
354.74,2.51,2.20,2.51,2.21,-2.21,-2.31,-2.18,0.30,0.30,0.31
358.28,2.47,2.16,2.46,2.15,-2.16,-2.26,-2.13,0.31,0.31,0.31
361.87,2.42,2.11,2.42,2.11,-2.11,-2.22,-2.08,0.31,0.31,0.31
365.49,2.38,2.05,2.38,2.06,-2.06,-2.17,-2.02,0.32,0.32,0.32
369.14,2.35,2.01,2.34,2.01,-2.02,-2.13,-1.97,0.33,0.33,0.33
372.83,2.31,1.97,2.31,1.97,-1.97,-2.09,-1.93,0.34,0.34,0.34
376.56,2.27,1.93,2.27,1.93,-1.92,-2.05,-1.88,0.35,0.35,0.34
380.33,2.23,1.88,2.23,1.88,-1.87,-2.00,-1.83,0.36,0.36,0.35
384.13,2.19,1.83,2.18,1.83,-1.82,-1.96,-1.79,0.37,0.37,0.36
387.97,2.14,1.77,2.14,1.77,-1.76,-1.92,-1.74,0.37,0.37,0.37
391.85,2.09,1.70,2.09,1.71,-1.71,-1.88,-1.70,0.38,0.38,0.38
395.77,2.04,1.65,2.04,1.65,-1.66,-1.84,-1.66,0.38,0.38,0.38
399.73,2.00,1.61,2.00,1.60,-1.61,-1.80,-1.62,0.39,0.39,0.39
403.72,1.96,1.55,1.96,1.56,-1.56,-1.77,-1.58,0.40,0.40,0.41
407.76,1.94,1.52,1.94,1.52,-1.52,-1.73,-1.54,0.42,0.42,0.42
411.84,1.92,1.49,1.91,1.48,-1.48,-1.69,-1.51,0.44,0.43,0.43
415.96,1.89,1.45,1.89,1.45,-1.45,-1.65,-1.47,0.44,0.44,0.44
420.12,1.86,1.42,1.86,1.42,-1.42,-1.61,-1.43,0.44,0.44,0.44
424.32,1.84,1.39,1.84,1.39,-1.40,-1.58,-1.40,0.44,0.44,0.45
428.56,1.84,1.37,1.84,1.37,-1.38,-1.54,-1.37,0.45,0.45,0.47
432.85,1.84,1.35,1.83,1.36,-1.37,-1.50,-1.33,0.47,0.46,0.48
437.18,1.83,1.35,1.83,1.35,-1.35,-1.47,-1.30,0.47,0.48,0.47
