frequency,raw,error,smoothed,error_smoothed,equalization,parametric_eq,fixed_band_eq,equalized_raw,equalized_smoothed,target
20.00,-2.65,-3.42,-2.65,-3.42,3.42,3.26,1.26,0.77,0.77,0.77
20.20,-2.61,-3.42,-2.61,-3.42,3.42,3.25,1.29,0.81,0.81,0.81
20.40,-2.56,-3.41,-2.56,-3.41,3.41,3.24,1.33,0.85,0.85,0.85
20.61,-2.52,-3.39,-2.52,-3.40,3.40,3.23,1.37,0.88,0.88,0.87
20.81,-2.47,-3.38,-2.47,-3.38,3.38,3.22,1.41,0.91,0.91,0.91
21.02,-2.43,-3.38,-2.43,-3.37,3.37,3.21,1.45,0.94,0.94,0.95
21.23,-2.38,-3.35,-2.38,-3.35,3.35,3.20,1.49,0.97,0.97,0.97
21.44,-2.34,-3.33,-2.34,-3.33,3.33,3.19,1.54,0.99,0.99,0.99
21.66,-2.29,-3.30,-2.29,-3.30,3.30,3.18,1.58,1.01,1.01,1.01
21.87,-2.25,-3.27,-2.25,-3.27,3.27,3.17,1.63,1.02,1.02,1.02
22.09,-2.20,-3.24,-2.20,-3.24,3.24,3.16,1.68,1.04,1.04,1.04
22.31,-2.16,-3.21,-2.16,-3.21,3.20,3.15,1.73,1.04,1.04,1.05
22.54,-2.12,-3.17,-2.12,-3.17,3.17,3.14,1.78,1.05,1.05,1.05
22.76,-2.08,-3.14,-2.08,-3.13,3.13,3.13,1.83,1.06,1.05,1.06
22.99,-2.04,-3.10,-2.04,-3.10,3.10,3.11,1.88,1.06,1.06,1.06
23.22,-2.00,-3.07,-2.00,-3.07,3.07,3.10,1.94,1.07,1.07,1.07
23.45,-1.96,-3.04,-1.96,-3.03,3.04,3.09,1.99,1.08,1.08,1.08
23.69,-1.92,-3.01,-1.92,-3.01,3.01,3.08,2.05,1.09,1.09,1.09
23.92,-1.88,-2.99,-1.88,-2.99,2.99,3.06,2.11,1.11,1.10,1.11
24.16,-1.85,-2.97,-1.85,-2.97,2.96,3.05,2.17,1.11,1.12,1.13
24.40,-1.81,-2.94,-1.81,-2.94,2.94,3.04,2.22,1.13,1.13,1.13
24.65,-1.77,-2.90,-1.77,-2.92,2.91,3.02,2.28,1.14,1.14,1.13
24.89,-1.74,-2.89,-1.74,-2.89,2.89,3.01,2.34,1.15,1.15,1.15
25.14,-1.70,-2.86,-1.70,-2.86,2.86,3.00,2.41,1.16,1.16,1.16
25.39,-1.66,-2.83,-1.66,-2.84,2.84,2.98,2.47,1.18,1.17,1.17
25.65,-1.63,-2.81,-1.63,-2.81,2.81,2.97,2.53,1.18,1.18,1.18
25.91,-1.59,-2.78,-1.59,-2.78,2.79,2.95,2.59,1.20,1.20,1.19
26.16,-1.56,-2.76,-1.56,-2.76,2.77,2.94,2.65,1.21,1.20,1.20
26.43,-1.53,-2.74,-1.53,-2.74,2.74,2.92,2.71,1.21,1.22,1.21
26.69,-1.50,-2.73,-1.50,-2.73,2.73,2.91,2.77,1.23,1.23,1.23
26.96,-1.47,-2.71,-1.47,-2.71,2.71,2.89,2.83,1.24,1.24,1.24
27.23,-1.44,-2.69,-1.44,-2.69,2.69,2.88,2.88,1.25,1.25,1.25
27.50,-1.41,-2.68,-1.41,-2.67,2.67,2.86,2.94,1.26,1.26,1.27
27.77,-1.38,-2.65,-1.38,-2.66,2.65,2.85,2.99,1.27,1.27,1.27
28.05,-1.36,-2.65,-1.36,-2.64,2.64,2.83,3.04,1.28,1.28,1.29
28.33,-1.33,-2.62,-1.33,-2.62,2.62,2.81,3.09,1.29,1.29,1.29
28.62,-1.30,-2.60,-1.30,-2.61,2.61,2.80,3.13,1.31,1.31,1.30
28.90,-1.28,-2.59,-1.28,-2.59,2.60,2.78,3.17,1.32,1.32,1.31
29.19,-1.26,-2.58,-1.26,-2.59,2.59,2.76,3.20,1.33,1.33,1.32
29.48,-1.24,-2.58,-1.24,-2.58,2.58,2.74,3.24,1.34,1.34,1.34
29.78,-1.22,-2.57,-1.22,-2.57,2.57,2.73,3.26,1.35,1.35,1.35
30.08,-1.20,-2.56,-1.20,-2.56,2.56,2.71,3.29,1.36,1.36,1.36
30.38,-1.18,-2.55,-1.18,-2.55,2.55,2.69,3.30,1.37,1.37,1.37
30.68,-1.17,-2.55,-1.17,-2.54,2.55,2.67,3.32,1.38,1.38,1.38
30.99,-1.15,-2.54,-1.15,-2.54,2.54,2.65,3.32,1.39,1.39,1.39
31.30,-1.14,-2.54,-1.14,-2.54,2.54,2.64,3.33,1.40,1.40,1.40
31.61,-1.13,-2.54,-1.13,-2.54,2.54,2.62,3.32,1.41,1.41,1.41
31.93,-1.12,-2.53,-1.12,-2.54,2.54,2.60,3.32,1.42,1.41,1.41
32.24,-1.12,-2.54,-1.12,-2.54,2.54,2.58,3.30,1.42,1.42,1.42
32.57,-1.11,-2.54,-1.11,-2.54,2.55,2.56,3.29,1.44,1.44,1.43
32.89,-1.11,-2.56,-1.11,-2.55,2.56,2.54,3.26,1.45,1.45,1.45
33.22,-1.11,-2.56,-1.11,-2.56,2.57,2.52,3.24,1.46,1.46,1.45
33.55,-1.12,-2.59,-1.12,-2.58,2.58,2.50,3.21,1.46,1.46,1.47
33.89,-1.13,-2.59,-1.13,-2.60,2.60,2.48,3.17,1.47,1.47,1.46
34.23,-1.14,-2.62,-1.14,-2.62,2.61,2.46,3.13,1.47,1.47,1.48
34.57,-1.15,-2.63,-1.15,-2.63,2.63,2.44,3.09,1.48,1.48,1.48
34.92,-1.16,-2.65,-1.16,-2.65,2.65,2.42,3.04,1.49,1.49,1.49
35.27,-1.17,-2.67,-1.17,-2.66,2.66,2.40,3.00,1.50,1.49,1.50
35.62,-1.18,-2.67,-1.18,-2.68,2.68,2.38,2.95,1.50,1.50,1.49
35.97,-1.19,-2.68,-1.19,-2.69,2.69,2.36,2.90,1.50,1.50,1.49
36.33,-1.19,-2.70,-1.19,-2.70,2.70,2.34,2.84,1.51,1.50,1.51
36.70,-1.20,-2.71,-1.20,-2.70,2.70,2.32,2.79,1.50,1.50,1.51
37.06,-1.20,-2.70,-1.20,-2.70,2.70,2.30,2.73,1.50,1.50,1.50
37.43,-1.19,-2.69,-1.19,-2.69,2.69,2.28,2.68,1.50,1.50,1.50
37.81,-1.18,-2.68,-1.18,-2.68,2.68,2.26,2.62,1.50,1.50,1.50
38.19,-1.16,-2.66,-1.16,-2.66,2.66,2.24,2.57,1.50,1.50,1.50
38.57,-1.14,-2.65,-1.14,-2.64,2.64,2.22,2.51,1.50,1.50,1.51
38.95,-1.12,-2.61,-1.12,-2.61,2.61,2.20,2.45,1.49,1.49,1.49
39.34,-1.09,-2.58,-1.09,-2.58,2.57,2.18,2.40,1.48,1.49,1.49
39.74,-1.05,-2.53,-1.05,-2.53,2.53,2.15,2.34,1.48,1.48,1.48
40.14,-1.01,-2.49,-1.01,-2.49,2.49,2.13,2.29,1.48,1.48,1.48
40.54,-0.97,-2.44,-0.97,-2.44,2.44,2.11,2.24,1.47,1.48,1.47
40.94,-0.92,-2.40,-0.92,-2.39,2.39,2.09,2.19,1.47,1.47,1.48
41.35,-0.86,-2.33,-0.87,-2.34,2.34,2.07,2.14,1.48,1.47,1.47
41.76,-0.81,-2.28,-0.81,-2.28,2.28,2.05,2.09,1.47,1.47,1.47
42.18,-0.75,-2.22,-0.75,-2.22,2.22,2.03,2.04,1.47,1.47,1.48
42.60,-0.68,-2.15,-0.68,-2.16,2.16,2.00,1.99,1.48,1.47,1.47
43.03,-0.62,-2.10,-0.62,-2.09,2.09,1.98,1.95,1.47,1.47,1.48
43.46,-0.55,-2.02,-0.55,-2.02,2.02,1.96,1.90,1.47,1.47,1.47
43.90,-0.48,-1.95,-0.48,-1.95,1.94,1.94,1.86,1.46,1.46,1.47
44.33,-0.40,-1.86,-0.40,-1.87,1.86,1.92,1.82,1.46,1.46,1.46
44.78,-0.33,-1.79,-0.33,-1.79,1.79,1.89,1.78,1.46,1.46,1.46
45.23,-0.25,-1.71,-0.25,-1.71,1.71,1.87,1.74,1.46,1.46,1.46
45.68,-0.17,-1.63,-0.17,-1.63,1.64,1.85,1.71,1.47,1.47,1.46
46.13,-0.09,-1.55,-0.09,-1.56,1.57,1.83,1.67,1.48,1.47,1.46
46.60,-0.03,-1.51,-0.02,-1.49,1.50,1.81,1.64,1.47,1.48,1.48
47.06,0.04,-1.43,0.04,-1.44,1.44,1.79,1.61,1.48,1.48,1.47
47.53,0.09,-1.38,0.09,-1.39,1.38,1.76,1.58,1.47,1.47,1.47
48.01,0.14,-1.35,0.14,-1.34,1.33,1.74,1.55,1.47,1.47,1.49
48.49,0.18,-1.30,0.18,-1.29,1.29,1.72,1.52,1.47,1.47,1.48
48.97,0.23,-1.23,0.22,-1.24,1.25,1.70,1.50,1.48,1.47,1.47
49.46,0.25,-1.21,0.25,-1.20,1.21,1.68,1.47,1.46,1.47,1.46
49.96,0.27,-1.17,0.27,-1.18,1.19,1.65,1.45,1.46,1.46,1.44
50.46,0.28,-1.17,0.28,-1.16,1.17,1.63,1.42,1.45,1.45,1.45
50.96,0.29,-1.15,0.29,-1.15,1.15,1.61,1.40,1.44,1.44,1.45
51.47,0.29,-1.14,0.29,-1.15,1.15,1.59,1.38,1.44,1.43,1.43
51.99,0.28,-1.15,0.28,-1.15,1.15,1.57,1.36,1.43,1.43,1.43
52.51,0.27,-1.16,0.27,-1.15,1.15,1.54,1.34,1.42,1.42,1.43
53.03,0.26,-1.16,0.26,-1.16,1.16,1.52,1.32,1.42,1.42,1.42
53.56,0.24,-1.17,0.24,-1.17,1.17,1.50,1.31,1.41,1.41,1.41
54.10,0.22,-1.17,0.22,-1.18,1.18,1.48,1.29,1.40,1.40,1.39
54.64,0.19,-1.19,0.19,-1.19,1.19,1.46,1.27,1.38,1.38,1.38
55.18,0.16,-1.21,0.16,-1.21,1.21,1.44,1.26,1.37,1.37,1.37
55.74,0.13,-1.22,0.13,-1.22,1.22,1.41,1.24,1.35,1.35,1.35
56.29,0.11,-1.24,0.11,-1.24,1.23,1.39,1.22,1.34,1.34,1.35
56.86,0.08,-1.25,0.08,-1.24,1.24,1.37,1.21,1.32,1.32,1.33
57.42,0.06,-1.25,0.06,-1.25,1.25,1.35,1.19,1.31,1.31,1.31
58.00,0.04,-1.25,0.04,-1.25,1.26,1.33,1.18,1.30,1.30,1.29
58.58,0.02,-1.26,0.02,-1.26,1.26,1.31,1.16,1.28,1.29,1.28
59.16,0.01,-1.26,0.01,-1.26,1.26,1.29,1.15,1.27,1.27,1.27
59.76,-0.01,-1.26,-0.01,-1.26,1.26,1.26,1.13,1.25,1.25,1.25
60.35,-0.03,-1.26,-0.03,-1.26,1.25,1.24,1.12,1.22,1.22,1.23
60.96,-0.04,-1.24,-0.04,-1.24,1.24,1.22,1.10,1.20,1.20,1.20
61.57,-0.05,-1.22,-0.05,-1.22,1.22,1.20,1.09,1.17,1.17,1.17
62.18,-0.05,-1.19,-0.05,-1.20,1.20,1.18,1.07,1.15,1.15,1.14
62.80,-0.06,-1.18,-0.06,-1.17,1.18,1.16,1.05,1.12,1.12,1.12
63.43,-0.06,-1.15,-0.06,-1.15,1.15,1.14,1.04,1.09,1.09,1.09
64.07,-0.06,-1.12,-0.06,-1.13,1.12,1.12,1.02,1.07,1.07,1.06
64.71,-0.05,-1.10,-0.05,-1.10,1.10,1.10,1.00,1.05,1.04,1.05
65.35,-0.05,-1.07,-0.05,-1.07,1.07,1.07,0.98,1.02,1.02,1.02
66.01,-0.04,-1.04,-0.04,-1.04,1.04,1.05,0.96,1.00,1.00,1.00
66.67,-0.04,-1.01,-0.04,-1.01,1.01,1.03,0.94,0.97,0.97,0.97
67.33,-0.04,-0.98,-0.04,-0.98,0.99,1.01,0.92,0.95,0.95,0.94
68.01,-0.04,-0.96,-0.04,-0.96,0.96,0.99,0.90,0.92,0.92,0.92
68.69,-0.04,-0.93,-0.04,-0.93,0.94,0.97,0.89,0.90,0.90,0.89
69.37,-0.04,-0.91,-0.04,-0.91,0.91,0.95,0.86,0.87,0.87,0.87
70.07,-0.04,-0.89,-0.04,-0.89,0.89,0.93,0.84,0.85,0.85,0.85
70.77,-0.04,-0.87,-0.04,-0.87,0.86,0.91,0.82,0.82,0.82,0.83
71.48,-0.04,-0.84,-0.04,-0.84,0.84,0.89,0.80,0.80,0.80,0.80
72.19,-0.04,-0.82,-0.04,-0.82,0.82,0.87,0.78,0.78,0.78,0.78
72.91,-0.04,-0.79,-0.04,-0.79,0.80,0.85,0.76,0.76,0.76,0.76
73.64,-0.04,-0.77,-0.04,-0.77,0.78,0.83,0.74,0.74,0.74,0.73
74.38,-0.04,-0.75,-0.04,-0.75,0.76,0.81,0.72,0.72,0.72,0.71
75.12,-0.04,-0.74,-0.04,-0.74,0.74,0.79,0.70,0.70,0.70,0.70
75.87,-0.04,-0.73,-0.04,-0.73,0.73,0.77,0.68,0.69,0.69,0.69
76.63,-0.04,-0.72,-0.04,-0.72,0.72,0.75,0.66,0.68,0.68,0.68
77.40,-0.04,-0.71,-0.04,-0.70,0.71,0.73,0.64,0.67,0.67,0.67
78.17,-0.04,-0.69,-0.04,-0.69,0.70,0.71,0.62,0.66,0.66,0.65
78.95,-0.04,-0.69,-0.04,-0.69,0.69,0.69,0.60,0.65,0.65,0.65
79.74,-0.04,-0.68,-0.04,-0.68,0.68,0.67,0.58,0.64,0.64,0.64
80.54,-0.04,-0.67,-0.04,-0.67,0.67,0.65,0.56,0.63,0.63,0.63
81.35,-0.04,-0.66,-0.04,-0.66,0.66,0.63,0.54,0.62,0.62,0.62
82.16,-0.04,-0.65,-0.04,-0.65,0.65,0.61,0.53,0.61,0.61,0.61
82.98,-0.04,-0.65,-0.04,-0.64,0.64,0.59,0.51,0.60,0.60,0.61
83.81,-0.04,-0.62,-0.04,-0.63,0.63,0.57,0.49,0.59,0.59,0.58
84.65,-0.04,-0.62,-0.04,-0.62,0.62,0.55,0.47,0.58,0.58,0.58
85.50,-0.04,-0.62,-0.04,-0.61,0.61,0.53,0.46,0.57,0.57,0.58
86.35,-0.04,-0.60,-0.04,-0.61,0.61,0.51,0.44,0.57,0.57,0.56
87.22,-0.04,-0.60,-0.04,-0.60,0.60,0.49,0.42,0.56,0.56,0.56
88.09,-0.04,-0.58,-0.04,-0.59,0.59,0.47,0.41,0.55,0.55,0.54
88.97,-0.04,-0.59,-0.04,-0.58,0.58,0.45,0.39,0.54,0.54,0.55
89.86,-0.04,-0.57,-0.04,-0.57,0.57,0.43,0.38,0.53,0.53,0.53
90.76,-0.04,-0.56,-0.04,-0.56,0.57,0.41,0.36,0.53,0.53,0.52
91.66,-0.04,-0.56,-0.04,-0.55,0.56,0.39,0.35,0.52,0.52,0.52
92.58,-0.04,-0.54,-0.04,-0.55,0.55,0.37,0.33,0.51,0.51,0.50
93.51,-0.04,-0.55,-0.04,-0.55,0.54,0.35,0.32,0.50,0.50,0.51
94.44,-0.04,-0.54,-0.04,-0.54,0.53,0.33,0.30,0.49,0.49,0.50
95.39,-0.04,-0.53,-0.04,-0.53,0.52,0.31,0.29,0.48,0.48,0.49
96.34,-0.04,-0.50,-0.04,-0.51,0.51,0.29,0.28,0.47,0.47,0.46
97.30,-0.04,-0.49,-0.04,-0.49,0.50,0.27,0.26,0.46,0.46,0.45
98.28,-0.04,-0.49,-0.04,-0.48,0.49,0.25,0.25,0.45,0.45,0.45
99.26,-0.04,-0.47,-0.04,-0.47,0.47,0.23,0.24,0.43,0.43,0.43
100.25,-0.04,-0.46,-0.04,-0.46,0.45,0.21,0.22,0.41,0.41,0.42
101.25,-0.04,-0.44,-0.04,-0.44,0.44,0.19,0.21,0.40,0.40,0.40
102.27,-0.04,-0.42,-0.04,-0.42,0.42,0.17,0.20,0.38,0.38,0.38
103.29,-0.04,-0.39,-0.04,-0.40,0.40,0.15,0.18,0.36,0.36,0.35
104.32,-0.04,-0.38,-0.04,-0.38,0.38,0.13,0.17,0.34,0.34,0.34
105.37,-0.04,-0.35,-0.04,-0.35,0.35,0.11,0.16,0.31,0.31,0.31
106.42,-0.04,-0.33,-0.04,-0.33,0.33,0.09,0.15,0.29,0.29,0.29
107.48,-0.04,-0.30,-0.04,-0.30,0.30,0.07,0.13,0.26,0.26,0.26
108.56,-0.04,-0.26,-0.04,-0.27,0.27,0.05,0.12,0.23,0.23,0.22
109.64,-0.04,-0.23,-0.04,-0.23,0.23,0.03,0.11,0.19,0.19,0.19
110.74,-0.04,-0.19,-0.04,-0.20,0.20,0.01,0.09,0.16,0.16,0.16
111.85,-0.04,-0.17,-0.04,-0.16,0.16,-0.02,0.08,0.12,0.12,0.13
112.97,-0.04,-0.12,-0.04,-0.12,0.12,-0.04,0.06,0.08,0.08,0.08
114.10,-0.04,-0.08,-0.04,-0.08,0.08,-0.06,0.05,0.04,0.04,0.04
115.24,-0.04,-0.04,-0.04,-0.04,0.04,-0.08,0.03,-0.00,-0.00,0.00
116.39,-0.04,0.01,-0.04,0.00,-0.01,-0.10,0.01,-0.05,-0.05,-0.05
117.55,-0.04,0.05,-0.04,0.05,-0.05,-0.13,-0.00,-0.09,-0.09,-0.09
118.73,-0.04,0.09,-0.04,0.09,-0.09,-0.15,-0.02,-0.13,-0.13,-0.13
119.92,-0.04,0.13,-0.04,0.13,-0.13,-0.17,-0.04,-0.16,-0.16,-0.17
121.12,-0.04,0.17,-0.04,0.17,-0.16,-0.19,-0.06,-0.20,-0.20,-0.21
122.33,-0.04,0.20,-0.04,0.20,-0.20,-0.22,-0.08,-0.24,-0.24,-0.24
123.55,-0.04,0.23,-0.04,0.23,-0.24,-0.24,-0.10,-0.28,-0.28,-0.27
124.79,-0.04,0.26,-0.04,0.26,-0.27,-0.26,-0.12,-0.31,-0.31,-0.30
126.03,-0.04,0.30,-0.04,0.30,-0.30,-0.29,-0.14,-0.34,-0.34,-0.34
127.29,-0.04,0.33,-0.04,0.34,-0.34,-0.31,-0.16,-0.38,-0.38,-0.37
128.57,-0.04,0.38,-0.04,0.37,-0.37,-0.34,-0.18,-0.41,-0.41,-0.42
129.85,-0.04,0.40,-0.04,0.40,-0.40,-0.36,-0.21,-0.44,-0.44,-0.44
131.15,-0.04,0.43,-0.04,0.43,-0.43,-0.39,-0.23,-0.47,-0.47,-0.47
132.46,-0.04,0.46,-0.04,0.46,-0.46,-0.41,-0.26,-0.50,-0.50,-0.50
133.79,-0.04,0.48,-0.04,0.48,-0.48,-0.44,-0.28,-0.52,-0.52,-0.52
135.12,-0.04,0.51,-0.04,0.50,-0.51,-0.47,-0.31,-0.55,-0.55,-0.55
136.48,-0.04,0.53,-0.04,0.53,-0.53,-0.49,-0.34,-0.57,-0.57,-0.57
137.84,-0.04,0.55,-0.04,0.56,-0.56,-0.52,-0.37,-0.60,-0.60,-0.59
139.22,-0.04,0.59,-0.04,0.58,-0.58,-0.55,-0.40,-0.62,-0.62,-0.63
140.61,-0.04,0.61,-0.04,0.61,-0.60,-0.58,-0.43,-0.64,-0.64,-0.65
142.02,-0.04,0.62,-0.04,0.63,-0.63,-0.60,-0.46,-0.67,-0.67,-0.66
143.44,-0.04,0.65,-0.04,0.65,-0.65,-0.63,-0.50,-0.69,-0.69,-0.69
144.87,-0.04,0.67,-0.04,0.67,-0.67,-0.66,-0.53,-0.71,-0.71,-0.71
146.32,-0.04,0.70,-0.04,0.70,-0.70,-0.69,-0.56,-0.74,-0.74,-0.74
147.78,-0.04,0.72,-0.04,0.72,-0.72,-0.72,-0.60,-0.76,-0.76,-0.76
149.26,-0.04,0.74,-0.04,0.75,-0.75,-0.75,-0.64,-0.79,-0.79,-0.78
150.75,-0.04,0.78,-0.04,0.78,-0.78,-0.78,-0.67,-0.82,-0.82,-0.82
152.26,-0.04,0.81,-0.04,0.81,-0.80,-0.81,-0.71,-0.84,-0.84,-0.85
153.78,-0.04,0.84,-0.04,0.84,-0.83,-0.85,-0.75,-0.87,-0.87,-0.88
155.32,-0.04,0.87,-0.04,0.86,-0.87,-0.88,-0.79,-0.91,-0.91,-0.91
156.88,-0.04,0.89,-0.04,0.89,-0.90,-0.91,-0.83,-0.94,-0.94,-0.93
158.44,-0.04,0.92,-0.04,0.93,-0.93,-0.95,-0.87,-0.97,-0.97,-0.96
160.03,-0.04,0.96,-0.04,0.96,-0.96,-0.98,-0.91,-1.00,-1.00,-1.00
161.63,-0.04,1.00,-0.04,1.00,-0.99,-1.02,-0.96,-1.03,-1.03,-1.04
163.24,-0.04,1.04,-0.04,1.03,-1.03,-1.05,-1.00,-1.07,-1.07,-1.08
164.88,-0.04,1.06,-0.04,1.06,-1.06,-1.09,-1.05,-1.10,-1.10,-1.10
166.53,-0.04,1.09,-0.04,1.09,-1.09,-1.12,-1.10,-1.13,-1.13,-1.13
168.19,-0.04,1.12,-0.04,1.12,-1.13,-1.16,-1.14,-1.17,-1.17,-1.16
169.87,-0.04,1.16,-0.04,1.16,-1.17,-1.20,-1.19,-1.20,-1.20,-1.20
171.57,-0.04,1.20,-0.04,1.20,-1.20,-1.24,-1.24,-1.24,-1.24,-1.24
173.29,-0.04,1.25,-0.04,1.24,-1.25,-1.28,-1.29,-1.29,-1.29,-1.29
175.02,-0.04,1.28,-0.04,1.29,-1.29,-1.32,-1.35,-1.33,-1.33,-1.32
176.77,-0.04,1.33,-0.04,1.33,-1.33,-1.36,-1.40,-1.37,-1.37,-1.37
178.54,-0.04,1.38,-0.04,1.38,-1.38,-1.40,-1.45,-1.42,-1.42,-1.42
180.32,-0.04,1.43,-0.04,1.43,-1.42,-1.44,-1.51,-1.46,-1.46,-1.47
182.13,-0.04,1.47,-0.04,1.48,-1.47,-1.48,-1.56,-1.51,-1.51,-1.51
183.95,-0.05,1.52,-0.05,1.52,-1.51,-1.53,-1.62,-1.56,-1.56,-1.57
185.79,-0.05,1.56,-0.05,1.56,-1.56,-1.57,-1.68,-1.61,-1.61,-1.61
187.65,-0.06,1.61,-0.06,1.61,-1.61,-1.61,-1.74,-1.66,-1.66,-1.67
189.52,-0.06,1.65,-0.06,1.65,-1.65,-1.66,-1.80,-1.71,-1.71,-1.71
191.42,-0.05,1.70,-0.05,1.70,-1.71,-1.70,-1.86,-1.76,-1.76,-1.75
193.33,-0.04,1.75,-0.04,1.75,-1.76,-1.75,-1.92,-1.80,-1.80,-1.79
195.27,-0.02,1.82,-0.02,1.82,-1.82,-1.79,-1.99,-1.84,-1.84,-1.83
197.22,0.00,1.89,0.00,1.89,-1.89,-1.84,-2.05,-1.89,-1.89,-1.89
199.19,0.03,1.97,0.03,1.96,-1.96,-1.89,-2.11,-1.93,-1.93,-1.94
201.18,0.06,2.04,0.06,2.03,-2.03,-1.94,-2.18,-1.97,-1.97,-1.98
203.19,0.09,2.10,0.09,2.10,-2.11,-1.98,-2.24,-2.02,-2.01,-2.01
205.23,0.13,2.18,0.13,2.17,-2.18,-2.03,-2.31,-2.05,-2.05,-2.05
207.28,0.17,2.25,0.17,2.25,-2.26,-2.08,-2.37,-2.09,-2.09,-2.08
209.35,0.20,2.33,0.20,2.33,-2.33,-2.13,-2.44,-2.13,-2.13,-2.13
211.44,0.23,2.41,0.23,2.40,-2.39,-2.18,-2.50,-2.16,-2.16,-2.18
213.56,0.26,2.46,0.26,2.46,-2.45,-2.23,-2.56,-2.19,-2.19,-2.20
215.69,0.28,2.51,0.28,2.52,-2.50,-2.27,-2.62,-2.22,-2.23,-2.23
217.85,0.29,2.56,0.29,2.56,-2.55,-2.32,-2.68,-2.26,-2.26,-2.27
220.03,0.29,2.60,0.29,2.60,-2.59,-2.37,-2.74,-2.30,-2.30,-2.31
222.23,0.29,2.63,0.29,2.62,-2.62,-2.42,-2.80,-2.33,-2.33,-2.34
224.45,0.29,2.64,0.29,2.64,-2.65,-2.46,-2.85,-2.36,-2.36,-2.35
226.70,0.29,2.66,0.29,2.67,-2.68,-2.51,-2.90,-2.39,-2.39,-2.37
228.96,0.31,2.71,0.31,2.70,-2.71,-2.56,-2.95,-2.40,-2.41,-2.40
231.25,0.33,2.73,0.33,2.74,-2.75,-2.60,-3.00,-2.42,-2.41,-2.40
233.57,0.36,2.78,0.36,2.78,-2.78,-2.65,-3.04,-2.42,-2.42,-2.42
235.90,0.40,2.82,0.39,2.82,-2.82,-2.69,-3.07,-2.42,-2.42,-2.42
238.26,0.42,2.86,0.43,2.86,-2.86,-2.73,-3.11,-2.44,-2.43,-2.44
240.64,0.46,2.90,0.46,2.89,-2.90,-2.77,-3.14,-2.43,-2.44,-2.44
243.05,0.49,2.92,0.49,2.93,-2.93,-2.81,-3.16,-2.44,-2.44,-2.43
245.48,0.52,2.96,0.52,2.96,-2.96,-2.85,-3.18,-2.44,-2.44,-2.44
247.93,0.56,2.99,0.56,2.99,-2.98,-2.88,-3.20,-2.42,-2.43,-2.43
250.41,0.58,3.02,0.58,3.01,-3.00,-2.92,-3.21,-2.42,-2.42,-2.44
252.92,0.61,3.02,0.61,3.02,-3.01,-2.95,-3.21,-2.40,-2.41,-2.41
255.45,0.62,3.02,0.62,3.02,-3.02,-2.98,-3.21,-2.40,-2.40,-2.40
258.00,0.63,3.02,0.63,3.02,-3.01,-3.01,-3.21,-2.38,-2.39,-2.39
260.58,0.63,3.01,0.63,3.01,-3.01,-3.03,-3.20,-2.38,-2.38,-2.38
263.19,0.62,2.99,0.62,2.99,-2.99,-3.06,-3.19,-2.37,-2.37,-2.37
265.82,0.62,2.98,0.62,2.97,-2.98,-3.08,-3.17,-2.36,-2.36,-2.36
268.48,0.61,2.95,0.61,2.95,-2.96,-3.09,-3.15,-2.35,-2.35,-2.34
271.16,0.61,2.93,0.61,2.93,-2.94,-3.11,-3.12,-2.33,-2.33,-2.32
273.87,0.61,2.92,0.61,2.92,-2.92,-3.12,-3.09,-2.31,-2.31,-2.31
276.61,0.61,2.91,0.61,2.91,-2.91,-3.13,-3.06,-2.30,-2.30,-2.30
279.38,0.61,2.90,0.61,2.90,-2.89,-3.14,-3.03,-2.28,-2.28,-2.29
282.17,0.61,2.88,0.61,2.88,-2.88,-3.14,-2.99,-2.27,-2.27,-2.27
284.99,0.61,2.86,0.61,2.87,-2.87,-3.14,-2.95,-2.26,-2.26,-2.25
287.84,0.61,2.86,0.61,2.85,-2.85,-3.14,-2.91,-2.24,-2.24,-2.25
290.72,0.61,2.84,0.61,2.84,-2.84,-3.13,-2.87,-2.23,-2.23,-2.23
293.63,0.61,2.83,0.61,2.83,-2.83,-3.13,-2.83,-2.22,-2.22,-2.22
296.57,0.61,2.81,0.61,2.82,-2.82,-3.12,-2.79,-2.21,-2.21,-2.20
299.53,0.61,2.81,0.61,2.81,-2.81,-3.10,-2.74,-2.20,-2.20,-2.20
302.53,0.61,2.80,0.61,2.80,-2.79,-3.09,-2.70,-2.18,-2.18,-2.19
305.55,0.61,2.78,0.61,2.79,-2.78,-3.07,-2.66,-2.17,-2.17,-2.17
308.61,0.61,2.77,0.61,2.77,-2.77,-3.05,-2.61,-2.16,-2.16,-2.16
311.69,0.61,2.76,0.61,2.75,-2.76,-3.02,-2.57,-2.15,-2.15,-2.15
314.81,0.61,2.74,0.61,2.74,-2.74,-3.00,-2.53,-2.13,-2.13,-2.13
317.96,0.61,2.73,0.61,2.73,-2.73,-2.97,-2.48,-2.12,-2.12,-2.12
321.14,0.61,2.72,0.61,2.72,-2.72,-2.94,-2.44,-2.11,-2.11,-2.11
324.35,0.61,2.71,0.61,2.71,-2.71,-2.91,-2.40,-2.10,-2.10,-2.10
327.59,0.61,2.70,0.61,2.70,-2.70,-2.88,-2.37,-2.09,-2.09,-2.09
330.87,0.61,2.70,0.61,2.70,-2.70,-2.84,-2.33,-2.09,-2.09,-2.09
334.18,0.61,2.69,0.61,2.69,-2.69,-2.81,-2.29,-2.08,-2.08,-2.08
337.52,0.61,2.69,0.61,2.68,-2.68,-2.77,-2.26,-2.07,-2.07,-2.08
340.90,0.61,2.67,0.61,2.68,-2.68,-2.73,-2.23,-2.07,-2.07,-2.06
344.30,0.61,2.67,0.61,2.67,-2.67,-2.70,-2.19,-2.06,-2.06,-2.06
347.75,0.61,2.66,0.61,2.67,-2.67,-2.66,-2.16,-2.06,-2.06,-2.05
351.23,0.61,2.67,0.61,2.67,-2.66,-2.62,-2.14,-2.05,-2.05,-2.05
354.74,0.61,2.67,0.61,2.66,-2.66,-2.57,-2.11,-2.05,-2.05,-2.06
358.28,0.61,2.66,0.61,2.66,-2.66,-2.53,-2.09,-2.05,-2.05,-2.05
361.87,0.61,2.66,0.61,2.66,-2.66,-2.49,-2.06,-2.05,-2.05,-2.05
365.49,0.61,2.66,0.61,2.66,-2.66,-2.45,-2.04,-2.05,-2.05,-2.05
369.14,0.61,2.67,0.61,2.67,-2.67,-2.41,-2.02,-2.06,-2.06,-2.06
372.83,0.61,2.67,0.61,2.67,-2.67,-2.36,-2.00,-2.06,-2.06,-2.06
376.56,0.61,2.67,0.61,2.67,-2.68,-2.32,-1.99,-2.07,-2.06,-2.06
380.33,0.62,2.67,0.62,2.68,-2.68,-2.28,-1.97,-2.06,-2.06,-2.05
384.13,0.63,2.69,0.63,2.69,-2.69,-2.24,-1.96,-2.06,-2.06,-2.06
387.97,0.63,2.70,0.63,2.70,-2.70,-2.19,-1.95,-2.07,-2.06,-2.07
391.85,0.63,2.71,0.63,2.70,-2.70,-2.15,-1.94,-2.07,-2.07,-2.08
395.77,0.62,2.69,0.62,2.70,-2.69,-2.11,-1.93,-2.07,-2.07,-2.07
399.73,0.61,2.69,0.61,2.69,-2.68,-2.07,-1.92,-2.07,-2.07,-2.08
403.72,0.60,2.68,0.60,2.67,-2.67,-2.03,-1.91,-2.07,-2.07,-2.08
407.76,0.57,2.65,0.58,2.65,-2.65,-1.99,-1.91,-2.08,-2.07,-2.08
411.84,0.55,2.62,0.55,2.62,-2.62,-1.95,-1.90,-2.07,-2.07,-2.07
415.96,0.51,2.58,0.51,2.58,-2.58,-1.91,-1.90,-2.07,-2.07,-2.07
420.12,0.46,2.53,0.46,2.54,-2.54,-1.88,-1.90,-2.08,-2.07,-2.07
424.32,0.41,2.48,0.41,2.48,-2.48,-1.84,-1.89,-2.07,-2.07,-2.07
428.56,0.35,2.43,0.34,2.42,-2.42,-1.80,-1.89,-2.07,-2.07,-2.08
432.85,0.27,2.35,0.27,2.36,-2.35,-1.77,-1.89,-2.08,-2.07,-2.08
437.18,0.19,2.27,0.19,2.27,-2.27,-1.73,-1.89,-2.08,-2.07,-2.08
441.55,0.11,2.18,0.10,2.18,-2.18,-1.70,-1.89,-2.07,-2.08,-2.07
445.96,0.01,2.08,0.01,2.08,-2.08,-1.67,-1.89,-2.07,-2.08,-2.07
450.42,-0.11,1.97,-0.10,1.97,-1.98,-1.63,-1.89,-2.09,-2.08,-2.08
454.93,-0.21,1.87,-0.21,1.87,-1.87,-1.60,-1.88,-2.08,-2.09,-2.07
459.48,-0.32,1.76,-0.32,1.76,-1.76,-1.57,-1.88,-2.08,-2.08,-2.08
464.07,-0.42,1.66,-0.42,1.65,-1.64,-1.54,-1.88,-2.06,-2.07,-2.08
468.71,-0.53,1.54,-0.54,1.53,-1.52,-1.51,-1.88,-2.05,-2.06,-2.07
473.40,-0.67,1.41,-0.66,1.41,-1.40,-1.49,-1.87,-2.07,-2.06,-2.08
478.13,-0.80,1.27,-0.79,1.28,-1.27,-1.46,-1.87,-2.07,-2.07,-2.07
482.91,-0.91,1.16,-0.91,1.15,-1.15,-1.43,-1.86,-2.06,-2.06,-2.07
487.74,-1.03,1.04,-1.03,1.03,-1.03,-1.41,-1.86,-2.06,-2.06,-2.07
