frequency,raw,error,smoothed,error_smoothed,equalization,parametric_eq,fixed_band_eq,equalized_raw,equalized_smoothed,target
20.00,-9.16,-13.88,-9.16,-13.89,6.00,5.77,2.86,-3.16,-3.16,4.73
20.20,-9.02,-13.75,-9.02,-13.75,6.00,5.81,2.94,-3.02,-3.02,4.74
20.40,-8.89,-13.63,-8.88,-13.62,6.00,5.84,3.03,-2.89,-2.88,4.74
20.61,-8.75,-13.50,-8.74,-13.49,6.00,5.88,3.11,-2.75,-2.74,4.74
20.81,-8.61,-13.36,-8.61,-13.36,6.00,5.91,3.20,-2.61,-2.61,4.75
21.02,-8.48,-13.23,-8.49,-13.25,6.00,5.94,3.29,-2.48,-2.49,4.75
21.23,-8.39,-13.15,-8.38,-13.15,6.00,5.97,3.39,-2.39,-2.38,4.76
21.44,-8.29,-13.05,-8.29,-13.05,6.00,5.99,3.48,-2.29,-2.29,4.76
21.66,-8.20,-12.96,-8.20,-12.96,6.00,6.02,3.58,-2.20,-2.20,4.76
21.87,-8.10,-12.86,-8.10,-12.87,6.00,6.04,3.69,-2.10,-2.10,4.76
22.09,-8.00,-12.77,-8.00,-12.77,6.00,6.07,3.79,-2.00,-2.00,4.77
22.31,-7.90,-12.67,-7.90,-12.66,6.00,6.08,3.90,-1.90,-1.90,4.77
22.54,-7.79,-12.55,-7.80,-12.56,6.00,6.10,4.01,-1.79,-1.80,4.76
22.76,-7.68,-12.43,-7.68,-12.44,6.00,6.12,4.12,-1.68,-1.68,4.75
22.99,-7.57,-12.32,-7.55,-12.30,6.00,6.13,4.24,-1.57,-1.55,4.75
23.22,-7.40,-12.15,-7.40,-12.15,6.00,6.14,4.36,-1.40,-1.40,4.75
23.45,-7.22,-11.96,-7.22,-11.97,6.00,6.15,4.48,-1.22,-1.22,4.74
23.69,-7.05,-11.79,-7.04,-11.78,6.00,6.16,4.61,-1.05,-1.04,4.74
23.92,-6.87,-11.61,-6.89,-11.63,6.00,6.17,4.73,-0.87,-0.89,4.74
24.16,-6.78,-11.52,-6.79,-11.53,6.00,6.17,4.86,-0.78,-0.79,4.74
24.40,-6.74,-11.48,-6.73,-11.47,6.00,6.17,4.99,-0.74,-0.73,4.74
24.65,-6.69,-11.43,-6.69,-11.43,6.00,6.17,5.13,-0.69,-0.69,4.74
24.89,-6.65,-11.39,-6.64,-11.37,6.00,6.17,5.26,-0.65,-0.64,4.74
25.14,-6.56,-11.30,-6.55,-11.29,6.00,6.17,5.40,-0.56,-0.55,4.74
25.39,-6.45,-11.17,-6.45,-11.18,6.00,6.17,5.54,-0.45,-0.45,4.73
25.65,-6.33,-11.06,-6.33,-11.06,6.00,6.16,5.67,-0.33,-0.33,4.73
25.91,-6.21,-10.94,-6.22,-10.94,6.00,6.16,5.81,-0.21,-0.22,4.73
26.16,-6.12,-10.84,-6.12,-10.85,6.00,6.15,5.95,-0.12,-0.12,4.73
26.43,-6.05,-10.78,-6.04,-10.77,6.00,6.15,6.09,-0.05,-0.04,4.73
26.69,-5.97,-10.69,-5.97,-10.70,6.00,6.14,6.23,0.03,0.03,4.72
26.96,-5.89,-10.61,-5.89,-10.61,6.00,6.14,6.36,0.11,0.11,4.72
27.23,-5.79,-10.51,-5.78,-10.51,6.00,6.13,6.49,0.21,0.22,4.72
27.50,-5.67,-10.39,-5.67,-10.39,6.00,6.13,6.62,0.33,0.33,4.72
27.77,-5.56,-10.28,-5.56,-10.28,6.00,6.12,6.75,0.44,0.44,4.72
28.05,-5.45,-10.17,-5.46,-10.18,6.00,6.12,6.87,0.55,0.54,4.72
28.33,-5.37,-10.09,-5.37,-10.09,6.00,6.12,6.98,0.63,0.63,4.72
28.62,-5.28,-10.00,-5.28,-10.00,6.00,6.12,7.09,0.72,0.72,4.72
28.90,-5.19,-9.92,-5.18,-9.91,6.00,6.12,7.19,0.81,0.82,4.73
29.19,-5.08,-9.81,-5.08,-9.80,6.00,6.13,7.28,0.92,0.92,4.73
29.48,-4.96,-9.68,-4.96,-9.69,6.00,6.13,7.36,1.04,1.04,4.73
29.78,-4.84,-9.58,-4.84,-9.57,6.00,6.14,7.43,1.16,1.16,4.74
30.08,-4.73,-9.47,-4.74,-9.48,6.00,6.15,7.49,1.27,1.26,4.73
30.38,-4.67,-9.40,-4.67,-9.40,6.00,6.16,7.53,1.33,1.33,4.73
30.68,-4.60,-9.33,-4.60,-9.33,6.00,6.17,7.57,1.40,1.40,4.73
30.99,-4.53,-9.26,-4.52,-9.25,6.00,6.18,7.59,1.47,1.48,4.73
31.30,-4.41,-9.14,-4.41,-9.14,6.00,6.19,7.60,1.59,1.59,4.73
31.61,-4.28,-9.01,-4.29,-9.01,6.00,6.20,7.60,1.72,1.71,4.73
31.93,-4.16,-8.89,-4.17,-8.89,6.00,6.21,7.58,1.84,1.83,4.73
32.24,-4.06,-8.77,-4.07,-8.79,6.00,6.22,7.56,1.94,1.93,4.72
32.57,-3.97,-8.68,-3.97,-8.69,6.00,6.23,7.52,2.03,2.03,4.71
32.89,-3.88,-8.59,-3.86,-8.57,6.00,6.24,7.47,2.12,2.14,4.71
33.22,-3.73,-8.43,-3.71,-8.42,6.00,6.25,7.41,2.27,2.29,4.70
33.55,-3.55,-8.25,-3.55,-8.25,6.00,6.26,7.34,2.45,2.45,4.70
33.89,-3.38,-8.07,-3.40,-8.09,6.00,6.27,7.27,2.62,2.60,4.69
34.23,-3.29,-7.98,-3.31,-7.99,6.00,6.27,7.18,2.71,2.69,4.69
34.57,-3.26,-7.94,-3.25,-7.93,6.00,6.27,7.09,2.74,2.75,4.68
34.92,-3.22,-7.90,-3.20,-7.88,6.00,6.27,6.99,2.78,2.80,4.68
35.27,-3.13,-7.81,-3.13,-7.81,6.00,6.27,6.89,2.87,2.87,4.68
35.62,-3.02,-7.70,-3.03,-7.71,6.00,6.26,6.78,2.98,2.97,4.68
35.97,-2.92,-7.60,-2.92,-7.60,6.00,6.26,6.67,3.08,3.08,4.68
36.33,-2.83,-7.50,-2.83,-7.50,6.00,6.25,6.56,3.17,3.17,4.67
36.70,-2.74,-7.41,-2.74,-7.41,6.00,6.23,6.45,3.26,3.26,4.67
37.06,-2.66,-7.33,-2.66,-7.33,6.00,6.22,6.33,3.34,3.34,4.67
37.43,-2.58,-7.25,-2.58,-7.25,6.00,6.20,6.22,3.42,3.42,4.67
37.81,-2.51,-7.18,-2.50,-7.18,6.00,6.18,6.11,3.49,3.50,4.68
38.19,-2.42,-7.09,-2.41,-7.08,6.00,6.16,5.99,3.58,3.59,4.67
38.57,-2.32,-6.99,-2.32,-6.99,6.00,6.13,5.88,3.68,3.68,4.67
38.95,-2.21,-6.89,-2.23,-6.90,6.00,6.11,5.77,3.79,3.77,4.68
39.34,-2.15,-6.82,-2.16,-6.83,6.00,6.08,5.66,3.85,3.84,4.67
39.74,-2.10,-6.77,-2.09,-6.76,6.00,6.04,5.56,3.90,3.91,4.67
40.14,-2.01,-6.68,-1.99,-6.66,6.01,6.01,5.45,4.00,4.02,4.67
40.54,-1.87,-6.53,-1.87,-6.53,6.01,5.97,5.35,4.14,4.14,4.66
40.94,-1.72,-6.38,-1.74,-6.40,6.02,5.93,5.25,4.30,4.27,4.66
41.35,-1.63,-6.29,-1.63,-6.29,6.01,5.89,5.16,4.38,4.38,4.66
41.76,-1.55,-6.19,-1.54,-6.19,6.00,5.85,5.07,4.45,4.46,4.64
42.18,-1.46,-6.10,-1.45,-6.09,5.97,5.81,4.98,4.52,4.53,4.64
42.60,-1.35,-5.98,-1.35,-5.99,5.94,5.76,4.89,4.59,4.59,4.64
43.03,-1.25,-5.88,-1.26,-5.90,5.89,5.71,4.81,4.64,4.63,4.63
43.46,-1.19,-5.82,-1.19,-5.82,5.83,5.66,4.74,4.64,4.64,4.63
43.90,-1.14,-5.75,-1.13,-5.74,5.74,5.61,4.66,4.60,4.61,4.61
44.33,-1.06,-5.67,-1.06,-5.67,5.65,5.56,4.59,4.59,4.59,4.61
44.78,-0.97,-5.57,-0.97,-5.57,5.54,5.50,4.52,4.57,4.58,4.60
45.23,-0.86,-5.46,-0.86,-5.45,5.44,5.45,4.46,4.58,4.59,4.60
45.68,-0.74,-5.33,-0.74,-5.34,5.36,5.39,4.40,4.62,4.61,4.59
46.13,-0.63,-5.23,-0.63,-5.22,5.28,5.34,4.34,4.65,4.65,4.60
46.60,-0.55,-5.14,-0.55,-5.14,5.21,5.28,4.29,4.66,4.66,4.59
47.06,-0.48,-5.07,-0.51,-5.10,5.14,5.22,4.24,4.66,4.63,4.60
47.53,-0.49,-5.09,-0.49,-5.09,5.07,5.16,4.19,4.58,4.58,4.60
48.01,-0.49,-5.09,-0.46,-5.06,5.00,5.10,4.15,4.51,4.54,4.60
48.49,-0.39,-5.00,-0.40,-5.00,4.93,5.03,4.11,4.54,4.53,4.61
48.97,-0.29,-4.90,-0.28,-4.89,4.86,4.97,4.07,4.57,4.58,4.61
49.46,-0.15,-4.76,-0.15,-4.76,4.78,4.91,4.04,4.63,4.64,4.61
49.96,-0.01,-4.63,-0.04,-4.66,4.70,4.84,4.00,4.69,4.67,4.62
50.46,0.05,-4.58,0.05,-4.58,4.62,4.78,3.97,4.67,4.67,4.63
50.96,0.11,-4.53,0.12,-4.52,4.53,4.71,3.94,4.64,4.65,4.64
51.47,0.17,-4.47,0.17,-4.47,4.45,4.64,3.92,4.62,4.62,4.64
51.99,0.23,-4.41,0.23,-4.41,4.39,4.58,3.89,4.62,4.62,4.64
52.51,0.30,-4.34,0.30,-4.34,4.35,4.51,3.87,4.65,4.65,4.64
53.03,0.36,-4.28,0.37,-4.27,4.31,4.44,3.85,4.67,4.68,4.64
53.56,0.43,-4.21,0.43,-4.22,4.27,4.37,3.83,4.70,4.69,4.65
54.10,0.48,-4.18,0.44,-4.21,4.22,4.30,3.81,4.70,4.66,4.66
54.64,0.43,-4.22,0.45,-4.21,4.16,4.23,3.79,4.59,4.61,4.66
55.18,0.43,-4.22,0.47,-4.18,4.10,4.17,3.77,4.54,4.58,4.66
55.74,0.55,-4.09,0.55,-4.10,4.05,4.10,3.75,4.60,4.60,4.64
56.29,0.67,-3.97,0.67,-3.97,4.00,4.03,3.73,4.67,4.67,4.64
56.86,0.80,-3.84,0.76,-3.88,3.95,3.95,3.71,4.75,4.71,4.64
57.42,0.82,-3.81,0.81,-3.82,3.88,3.88,3.69,4.70,4.69,4.63
58.00,0.80,-3.82,0.84,-3.78,3.79,3.81,3.66,4.60,4.63,4.62
58.58,0.86,-3.74,0.84,-3.76,3.71,3.74,3.64,4.57,4.55,4.60
59.16,0.90,-3.69,0.87,-3.72,3.63,3.67,3.61,4.54,4.50,4.59
59.76,0.91,-3.67,0.97,-3.60,3.56,3.60,3.59,4.48,4.54,4.58
60.35,1.05,-3.50,1.09,-3.46,3.50,3.53,3.56,4.55,4.59,4.55
60.96,1.29,-3.24,1.19,-3.34,3.42,3.46,3.53,4.71,4.61,4.53
61.57,1.25,-3.25,1.23,-3.27,3.33,3.39,3.50,4.58,4.55,4.50
62.18,1.19,-3.28,1.20,-3.27,3.23,3.31,3.46,4.43,4.44,4.47
62.80,1.13,-3.30,1.23,-3.20,3.14,3.24,3.42,4.27,4.37,4.43
63.43,1.29,-3.09,1.30,-3.09,3.05,3.17,3.38,4.35,4.35,4.39
64.07,1.51,-2.84,1.36,-2.98,2.98,3.10,3.34,4.49,4.34,4.35
64.71,1.37,-2.93,1.43,-2.87,2.91,3.03,3.29,4.28,4.34,4.30
65.35,1.38,-2.88,1.45,-2.81,2.85,2.96,3.24,4.23,4.30,4.26
66.01,1.52,-2.71,1.46,-2.76,2.78,2.88,3.19,4.30,4.24,4.23
66.67,1.52,-2.67,1.51,-2.68,2.71,2.81,3.14,4.23,4.22,4.19
67.33,1.51,-2.65,1.51,-2.64,2.65,2.74,3.09,4.16,4.16,4.16
68.01,1.48,-2.64,1.49,-2.63,2.58,2.67,3.03,4.06,4.07,4.12
68.69,1.49,-2.60,1.50,-2.59,2.51,2.60,2.97,4.01,4.01,4.09
69.37,1.54,-2.51,1.56,-2.50,2.45,2.53,2.91,4.00,4.01,4.05
70.07,1.63,-2.39,1.65,-2.38,2.40,2.46,2.85,4.03,4.04,4.02
70.77,1.76,-2.23,1.72,-2.27,2.34,2.39,2.79,4.10,4.06,3.99
71.48,1.77,-2.20,1.76,-2.20,2.28,2.32,2.73,4.06,4.05,3.97
72.19,1.74,-2.19,1.75,-2.18,2.22,2.25,2.66,3.96,3.97,3.93
72.91,1.72,-2.18,1.71,-2.19,2.14,2.19,2.60,3.86,3.85,3.90
73.64,1.69,-2.17,1.70,-2.17,2.08,2.12,2.53,3.77,3.77,3.86
74.38,1.71,-2.12,1.75,-2.08,2.01,2.05,2.47,3.72,3.76,3.83
75.12,1.81,-1.98,1.83,-1.96,1.95,1.99,2.40,3.76,3.78,3.79
75.87,1.97,-1.78,1.91,-1.84,1.89,1.92,2.34,3.86,3.80,3.75
76.63,1.95,-1.76,1.95,-1.76,1.83,1.86,2.27,3.78,3.77,3.71
77.40,1.92,-1.74,1.95,-1.72,1.76,1.79,2.21,3.68,3.71,3.66
78.17,1.92,-1.70,1.92,-1.70,1.70,1.73,2.15,3.62,3.62,3.62
78.95,1.92,-1.65,1.92,-1.66,1.65,1.67,2.08,3.57,3.57,3.57
79.74,1.92,-1.61,1.92,-1.62,1.60,1.61,2.02,3.52,3.52,3.53
80.54,1.91,-1.57,1.89,-1.60,1.56,1.55,1.96,3.47,3.45,3.48
81.35,1.88,-1.56,1.89,-1.55,1.51,1.49,1.89,3.39,3.41,3.44
82.16,1.87,-1.53,1.92,-1.48,1.46,1.43,1.83,3.33,3.38,3.40
82.98,2.01,-1.35,1.97,-1.40,1.40,1.38,1.77,3.41,3.37,3.36
83.81,2.02,-1.30,2.01,-1.31,1.34,1.32,1.72,3.36,3.35,3.32
84.65,2.02,-1.27,2.03,-1.25,1.28,1.27,1.66,3.30,3.32,3.29
85.50,2.02,-1.22,2.02,-1.22,1.23,1.22,1.60,3.25,3.25,3.24
86.35,2.02,-1.18,2.02,-1.18,1.17,1.17,1.54,3.19,3.19,3.20
87.22,2.02,-1.13,2.02,-1.13,1.13,1.12,1.49,3.15,3.15,3.15
88.09,2.02,-1.09,2.02,-1.09,1.08,1.08,1.43,3.10,3.10,3.11
88.97,2.02,-1.05,2.02,-1.05,1.04,1.03,1.38,3.06,3.06,3.07
89.86,2.02,-1.01,2.02,-1.01,1.00,0.99,1.33,3.02,3.02,3.03
90.76,2.02,-0.96,2.02,-0.96,0.96,0.95,1.28,2.98,2.99,2.98
91.66,2.03,-0.91,2.03,-0.92,0.92,0.91,1.23,2.95,2.95,2.95
92.58,2.03,-0.88,2.03,-0.87,0.88,0.87,1.18,2.91,2.91,2.91
93.51,2.03,-0.83,2.03,-0.83,0.83,0.84,1.13,2.86,2.86,2.86
94.44,2.03,-0.79,2.03,-0.80,0.78,0.81,1.08,2.81,2.81,2.82
95.39,2.02,-0.76,2.02,-0.76,0.74,0.77,1.04,2.76,2.77,2.79
96.34,2.02,-0.73,2.02,-0.73,0.71,0.75,0.99,2.73,2.73,2.75
97.30,2.02,-0.69,2.02,-0.68,0.69,0.72,0.95,2.71,2.71,2.71
98.28,2.01,-0.65,2.04,-0.63,0.68,0.69,0.90,2.69,2.72,2.66
99.26,2.03,-0.59,2.01,-0.61,0.68,0.67,0.86,2.71,2.69,2.62
100.25,1.99,-0.59,1.93,-0.65,0.68,0.65,0.82,2.67,2.61,2.58
101.25,1.81,-0.73,1.84,-0.71,0.68,0.63,0.78,2.49,2.52,2.54
102.27,1.69,-0.80,1.74,-0.75,0.69,0.61,0.74,2.38,2.43,2.49
103.29,1.71,-0.73,1.69,-0.75,0.69,0.59,0.70,2.40,2.38,2.44
104.32,1.71,-0.68,1.69,-0.71,0.69,0.57,0.66,2.40,2.38,2.40
105.37,1.69,-0.66,1.69,-0.66,0.68,0.56,0.63,2.37,2.37,2.36
106.42,1.66,-0.65,1.67,-0.64,0.66,0.55,0.59,2.32,2.33,2.31
107.48,1.64,-0.62,1.64,-0.62,0.62,0.54,0.56,2.26,2.26,2.26
108.56,1.61,-0.60,1.61,-0.60,0.58,0.53,0.52,2.19,2.19,2.21
109.64,1.59,-0.57,1.59,-0.57,0.55,0.52,0.49,2.14,2.13,2.16
110.74,1.57,-0.55,1.58,-0.53,0.53,0.51,0.46,2.10,2.11,2.12
111.85,1.57,-0.51,1.59,-0.49,0.53,0.51,0.44,2.10,2.12,2.08
112.97,1.61,-0.43,1.58,-0.47,0.53,0.50,0.41,2.14,2.11,2.04
114.10,1.54,-0.46,1.52,-0.48,0.53,0.50,0.38,2.08,2.06,2.00
115.24,1.42,-0.55,1.43,-0.54,0.54,0.49,0.36,1.96,1.97,1.97
116.39,1.33,-0.61,1.34,-0.60,0.55,0.49,0.34,1.88,1.89,1.94
117.55,1.28,-0.64,1.30,-0.61,0.54,0.49,0.32,1.82,1.85,1.92
118.73,1.32,-0.57,1.31,-0.58,0.53,0.49,0.30,1.85,1.84,1.89
119.92,1.35,-0.52,1.34,-0.54,0.52,0.49,0.28,1.87,1.86,1.87
121.12,1.36,-0.50,1.36,-0.50,0.50,0.49,0.27,1.86,1.86,1.86
122.33,1.37,-0.47,1.37,-0.47,0.48,0.49,0.26,1.85,1.86,1.84
123.55,1.38,-0.45,1.41,-0.42,0.47,0.49,0.25,1.85,1.88,1.83
124.79,1.42,-0.39,1.42,-0.39,0.46,0.50,0.24,1.88,1.88,1.81
126.03,1.45,-0.35,1.37,-0.43,0.46,0.50,0.23,1.91,1.83,1.80
127.29,1.26,-0.52,1.29,-0.49,0.48,0.50,0.23,1.74,1.77,1.78
128.57,1.15,-0.62,1.22,-0.55,0.50,0.50,0.22,1.65,1.72,1.77
129.85,1.19,-0.56,1.17,-0.58,0.53,0.51,0.22,1.72,1.70,1.75
131.15,1.21,-0.53,1.18,-0.56,0.56,0.51,0.23,1.77,1.74,1.74
132.46,1.17,-0.55,1.17,-0.55,0.58,0.52,0.23,1.75,1.76,1.72
133.79,1.13,-0.57,1.13,-0.57,0.59,0.52,0.23,1.72,1.72,1.71
135.12,1.08,-0.60,1.08,-0.61,0.59,0.53,0.24,1.67,1.67,1.68
136.48,1.04,-0.63,1.05,-0.62,0.59,0.53,0.25,1.63,1.64,1.67
137.84,1.03,-0.62,1.03,-0.62,0.59,0.54,0.26,1.62,1.62,1.65
139.22,1.03,-0.60,1.04,-0.59,0.60,0.54,0.27,1.63,1.64,1.63
140.61,1.04,-0.57,1.06,-0.56,0.61,0.55,0.28,1.65,1.67,1.61
142.02,1.08,-0.52,1.03,-0.56,0.62,0.55,0.30,1.70,1.65,1.60
143.44,0.98,-0.59,0.97,-0.60,0.62,0.56,0.31,1.60,1.59,1.57
144.87,0.85,-0.69,0.90,-0.64,0.62,0.56,0.33,1.47,1.52,1.54
146.32,0.84,-0.67,0.84,-0.67,0.62,0.57,0.35,1.46,1.45,1.51
147.78,0.83,-0.65,0.83,-0.65,0.62,0.58,0.36,1.45,1.45,1.48
149.26,0.83,-0.61,0.83,-0.61,0.62,0.58,0.38,1.45,1.45,1.44
150.75,0.83,-0.57,0.81,-0.58,0.61,0.59,0.41,1.44,1.42,1.40
152.26,0.77,-0.57,0.77,-0.57,0.59,0.60,0.43,1.36,1.36,1.34
153.78,0.72,-0.57,0.72,-0.57,0.56,0.60,0.45,1.28,1.28,1.29
155.32,0.66,-0.57,0.67,-0.56,0.52,0.61,0.47,1.19,1.20,1.23
156.88,0.64,-0.53,0.65,-0.52,0.50,0.62,0.50,1.14,1.15,1.17
158.44,0.64,-0.47,0.64,-0.48,0.48,0.62,0.52,1.12,1.12,1.11
160.03,0.64,-0.42,0.63,-0.43,0.47,0.63,0.55,1.11,1.10,1.06
161.63,0.60,-0.42,0.60,-0.42,0.45,0.64,0.57,1.05,1.05,1.02
163.24,0.55,-0.42,0.54,-0.43,0.44,0.64,0.60,0.99,0.98,0.97
164.88,0.47,-0.47,0.48,-0.45,0.43,0.65,0.63,0.90,0.92,0.94
166.53,0.43,-0.48,0.44,-0.47,0.44,0.66,0.66,0.87,0.88,0.91
168.19,0.42,-0.47,0.42,-0.48,0.45,0.67,0.69,0.87,0.87,0.89
169.87,0.41,-0.47,0.41,-0.47,0.48,0.68,0.72,0.89,0.89,0.88
171.57,0.40,-0.47,0.40,-0.48,0.51,0.68,0.75,0.91,0.91,0.88
173.29,0.38,-0.50,0.37,-0.51,0.55,0.69,0.78,0.93,0.91,0.88
175.02,0.31,-0.58,0.32,-0.57,0.59,0.70,0.81,0.90,0.91,0.89
176.77,0.26,-0.64,0.26,-0.65,0.64,0.71,0.84,0.91,0.90,0.91
178.54,0.20,-0.72,0.22,-0.70,0.70,0.72,0.87,0.90,0.92,0.92
180.32,0.19,-0.75,0.19,-0.75,0.74,0.73,0.91,0.93,0.93,0.94
182.13,0.18,-0.78,0.14,-0.82,0.79,0.74,0.94,0.97,0.93,0.96
183.95,0.09,-0.89,0.10,-0.88,0.83,0.75,0.97,0.92,0.93,0.99
185.79,0.05,-0.94,0.10,-0.89,0.87,0.76,1.01,0.92,0.97,0.99
187.65,0.12,-0.88,0.12,-0.87,0.90,0.78,1.04,1.02,1.02,1.00
189.52,0.19,-0.81,0.13,-0.87,0.93,0.79,1.08,1.12,1.06,1.01
191.42,0.12,-0.88,0.09,-0.91,0.96,0.80,1.12,1.08,1.05,1.00
193.33,-0.03,-1.04,0.03,-0.98,0.98,0.82,1.15,0.95,1.01,1.01
195.27,-0.04,-1.05,-0.03,-1.04,1.00,0.83,1.19,0.96,0.97,1.01
197.22,-0.02,-1.02,-0.05,-1.06,1.02,0.84,1.23,1.00,0.96,1.00
199.19,-0.07,-1.07,-0.06,-1.06,1.04,0.86,1.26,0.97,0.98,1.00
201.18,-0.09,-1.08,-0.10,-1.09,1.08,0.88,1.30,0.99,0.98,0.99
203.19,-0.14,-1.12,-0.12,-1.09,1.12,0.90,1.34,0.98,1.00,0.98
205.23,-0.15,-1.12,-0.12,-1.09,1.15,0.91,1.38,1.00,1.03,0.97
207.28,-0.10,-1.06,-0.17,-1.13,1.17,0.93,1.41,1.07,1.00,0.96
209.35,-0.23,-1.18,-0.25,-1.20,1.19,0.95,1.45,0.96,0.94,0.95
211.44,-0.41,-1.34,-0.34,-1.27,1.22,0.98,1.49,0.81,0.87,0.93
213.56,-0.43,-1.35,-0.42,-1.34,1.24,1.00,1.52,0.81,0.83,0.92
215.69,-0.39,-1.29,-0.41,-1.32,1.28,1.03,1.56,0.89,0.86,0.90
217.85,-0.39,-1.28,-0.36,-1.25,1.31,1.05,1.59,0.92,0.95,0.89
220.03,-0.34,-1.22,-0.37,-1.24,1.34,1.08,1.63,1.00,0.97,0.88
222.23,-0.37,-1.24,-0.45,-1.31,1.36,1.11,1.66,0.99,0.91,0.87
224.45,-0.59,-1.45,-0.53,-1.39,1.37,1.14,1.69,0.78,0.84,0.86
226.70,-0.66,-1.51,-0.60,-1.46,1.39,1.17,1.72,0.73,0.78,0.85
228.96,-0.59,-1.44,-0.62,-1.48,1.42,1.21,1.75,0.83,0.79,0.85
231.25,-0.59,-1.44,-0.60,-1.45,1.46,1.25,1.77,0.87,0.85,0.85
233.57,-0.60,-1.44,-0.61,-1.45,1.51,1.29,1.80,0.91,0.90,0.85
235.90,-0.66,-1.51,-0.64,-1.49,1.55,1.33,1.82,0.89,0.91,0.85
238.26,-0.68,-1.53,-0.68,-1.54,1.58,1.37,1.84,0.90,0.90,0.85
240.64,-0.72,-1.59,-0.75,-1.62,1.60,1.42,1.86,0.88,0.85,0.87
243.05,-0.81,-1.68,-0.80,-1.68,1.62,1.46,1.87,0.81,0.81,0.87
245.48,-0.88,-1.76,-0.83,-1.71,1.63,1.52,1.89,0.75,0.80,0.88
247.93,-0.81,-1.69,-0.82,-1.70,1.65,1.57,1.90,0.84,0.83,0.88
250.41,-0.76,-1.65,-0.77,-1.66,1.67,1.62,1.90,0.91,0.90,0.89
252.92,-0.74,-1.63,-0.74,-1.63,1.69,1.68,1.91,0.95,0.95,0.89
255.45,-0.75,-1.64,-0.76,-1.64,1.72,1.74,1.91,0.97,0.96,0.89
258.00,-0.80,-1.68,-0.79,-1.67,1.74,1.80,1.91,0.94,0.95,0.88
260.58,-0.86,-1.74,-0.87,-1.75,1.77,1.86,1.91,0.91,0.90,0.88
263.19,-0.93,-1.81,-0.97,-1.85,1.79,1.92,1.90,0.87,0.83,0.88
265.82,-1.10,-1.97,-1.04,-1.91,1.83,1.97,1.89,0.73,0.79,0.87
268.48,-1.09,-1.96,-1.07,-1.94,1.87,2.03,1.88,0.78,0.80,0.87
271.16,-1.04,-1.91,-1.06,-1.93,1.92,2.09,1.87,0.88,0.85,0.87
273.87,-1.02,-1.88,-1.05,-1.91,1.97,2.14,1.86,0.95,0.92,0.86
276.61,-1.09,-1.95,-1.07,-1.93,2.01,2.18,1.85,0.92,0.94,0.86
279.38,-1.14,-2.00,-1.13,-1.99,2.05,2.23,1.83,0.91,0.92,0.86
282.17,-1.20,-2.06,-1.23,-2.09,2.09,2.26,1.81,0.89,0.86,0.86
284.99,-1.33,-2.20,-1.33,-2.20,2.14,2.29,1.79,0.81,0.80,0.87
287.84,-1.44,-2.31,-1.40,-2.27,2.20,2.31,1.77,0.76,0.80,0.87
290.72,-1.44,-2.31,-1.40,-2.28,2.27,2.32,1.75,0.83,0.87,0.87
293.63,-1.34,-2.22,-1.39,-2.27,2.32,2.32,1.73,0.99,0.93,0.88
296.57,-1.36,-2.25,-1.41,-2.30,2.36,2.31,1.71,1.01,0.96,0.89
299.53,-1.50,-2.39,-1.46,-2.35,2.38,2.30,1.69,0.88,0.92,0.89
302.53,-1.56,-2.45,-1.54,-2.43,2.38,2.27,1.67,0.82,0.84,0.89
305.55,-1.54,-2.43,-1.55,-2.45,2.36,2.25,1.65,0.82,0.81,0.89
308.61,-1.52,-2.41,-1.48,-2.37,2.33,2.21,1.63,0.81,0.85,0.89
311.69,-1.37,-2.26,-1.38,-2.27,2.27,2.17,1.61,0.91,0.89,0.89
314.81,-1.25,-2.13,-1.31,-2.19,2.20,2.13,1.59,0.95,0.89,0.88
317.96,-1.25,-2.12,-1.22,-2.09,2.10,2.09,1.57,0.85,0.88,0.87
321.14,-1.19,-2.05,-1.14,-2.01,1.99,2.04,1.55,0.80,0.84,0.86
324.35,-1.00,-1.86,-1.05,-1.90,1.87,1.99,1.53,0.88,0.83,0.86
327.59,-0.93,-1.78,-0.92,-1.76,1.78,1.95,1.52,0.85,0.87,0.85
330.87,-0.83,-1.67,-0.82,-1.65,1.71,1.90,1.50,0.88,0.90,0.84
334.18,-0.74,-1.57,-0.78,-1.61,1.66,1.86,1.49,0.92,0.89,0.83
337.52,-0.77,-1.58,-0.76,-1.58,1.63,1.81,1.47,0.86,0.87,0.81
340.90,-0.81,-1.62,-0.79,-1.60,1.62,1.77,1.46,0.81,0.83,0.81
344.30,-0.82,-1.62,-0.84,-1.64,1.62,1.73,1.45,0.80,0.78,0.80
347.75,-0.88,-1.66,-0.87,-1.66,1.63,1.69,1.44,0.75,0.76,0.78
351.23,-0.91,-1.68,-0.90,-1.67,1.64,1.66,1.43,0.73,0.74,0.77
354.74,-0.92,-1.68,-0.93,-1.69,1.64,1.63,1.42,0.72,0.71,0.76
358.28,-0.92,-1.67,-0.92,-1.66,1.63,1.59,1.41,0.71,0.71,0.75
361.87,-0.91,-1.65,-0.89,-1.62,1.61,1.57,1.40,0.70,0.72,0.74
365.49,-0.83,-1.54,-0.85,-1.57,1.57,1.54,1.40,0.75,0.73,0.71
369.14,-0.80,-1.50,-0.81,-1.51,1.54,1.52,1.39,0.74,0.73,0.70
372.83,-0.79,-1.48,-0.78,-1.47,1.50,1.49,1.39,0.71,0.72,0.69
376.56,-0.78,-1.46,-0.78,-1.46,1.47,1.47,1.39,0.69,0.69,0.68
380.33,-0.76,-1.43,-0.77,-1.44,1.44,1.46,1.39,0.68,0.67,0.67
384.13,-0.77,-1.43,-0.76,-1.42,1.41,1.44,1.39,0.64,0.65,0.66
387.97,-0.76,-1.41,-0.76,-1.41,1.40,1.43,1.39,0.64,0.64,0.65
391.85,-0.76,-1.40,-0.76,-1.40,1.40,1.41,1.39,0.64,0.64,0.64
395.77,-0.76,-1.39,-0.75,-1.38,1.40,1.40,1.39,0.64,0.64,0.63
399.73,-0.76,-1.38,-0.76,-1.38,1.40,1.39,1.40,0.64,0.64,0.62
403.72,-0.77,-1.38,-0.79,-1.39,1.40,1.38,1.40,0.63,0.61,0.61
407.76,-0.83,-1.41,-0.82,-1.41,1.40,1.37,1.40,0.57,0.58,0.59
411.84,-0.87,-1.44,-0.86,-1.43,1.41,1.37,1.41,0.54,0.55,0.57
415.96,-0.87,-1.43,-0.87,-1.44,1.41,1.36,1.42,0.54,0.54,0.56
420.12,-0.87,-1.43,-0.87,-1.43,1.42,1.36,1.42,0.55,0.55,0.56
424.32,-0.86,-1.41,-0.86,-1.41,1.43,1.35,1.43,0.57,0.57,0.55
428.56,-0.85,-1.40,-0.86,-1.41,1.43,1.35,1.43,0.58,0.58,0.55
432.85,-0.85,-1.41,-0.87,-1.43,1.44,1.35,1.44,0.59,0.57,0.56
437.18,-0.89,-1.46,-0.87,-1.44,1.44,1.34,1.45,0.55,0.57,0.57
441.55,-0.88,-1.47,-0.86,-1.45,1.45,1.34,1.46,0.57,0.58,0.59
445.96,-0.83,-1.44,-0.85,-1.46,1.45,1.34,1.46,0.62,0.60,0.61
450.42,-0.81,-1.45,-0.82,-1.46,1.46,1.34,1.47,0.65,0.63,0.64
454.93,-0.81,-1.49,-0.79,-1.47,1.46,1.34,1.47,0.65,0.67,0.68
459.48,-0.76,-1.48,-0.75,-1.47,1.46,1.34,1.48,0.70,0.71,0.72
464.07,-0.70,-1.45,-0.71,-1.46,1.46,1.34,1.48,0.76,0.76,0.75
468.71,-0.65,-1.44,-0.66,-1.45,1.47,1.34,1.49,0.82,0.80,0.79
473.40,-0.64,-1.47,-0.63,-1.46,1.47,1.34,1.49,0.84,0.84,0.83
478.13,-0.62,-1.49,-0.60,-1.47,1.48,1.34,1.49,0.87,0.88,0.87
482.91,-0.58,-1.48,-0.59,-1.49,1.49,1.35,1.49,0.92,0.91,0.90
487.74,-0.56,-1.49,-0.58,-1.50,1.50,1.35,1.49,0.95,0.93,0.93
492.62,-0.59,-1.54,-0.57,-1.52,1.51,1.35,1.49,0.92,0.94,0.95
497.55,-0.58,-1.55,-0.57,-1.54,1.52,1.35,1.49,0.94,0.95,0.97
502.52,-0.55,-1.53,-0.56,-1.53,1.51,1.35,1.49,0.96,0.96,0.98
507.55,-0.53,-1.51,-0.53,-1.51,1.50,1.35,1.48,0.97,0.97,0.98
512.62,-0.52,-1.48,-0.52,-1.48,1.48,1.35,1.48,0.96,0.97,0.97
517.75,-0.51,-1.45,-0.51,-1.46,1.46,1.35,1.47,0.95,0.95,0.95
522.93,-0.51,-1.43,-0.51,-1.43,1.43,1.35,1.46,0.92,0.92,0.92
528.16,-0.52,-1.40,-0.52,-1.40,1.40,1.35,1.45,0.88,0.88,0.88
