frequency,raw,error,smoothed,error_smoothed,equalization,parametric_eq,fixed_band_eq,equalized_raw,equalized_smoothed,target
20.00,-20.30,-17.85,-20.30,-17.85,6.00,6.55,2.69,-14.30,-14.30,-2.45
20.20,-20.18,-17.73,-20.18,-17.74,6.00,6.55,2.77,-14.18,-14.18,-2.45
20.40,-20.06,-17.62,-20.07,-17.63,6.00,6.54,2.84,-14.06,-14.07,-2.44
20.61,-19.95,-17.52,-19.95,-17.52,6.00,6.54,2.92,-13.95,-13.95,-2.43
20.81,-19.83,-17.40,-19.83,-17.40,6.00,6.54,3.01,-13.83,-13.83,-2.43
21.02,-19.71,-17.29,-19.71,-17.29,6.00,6.53,3.09,-13.71,-13.71,-2.42
21.23,-19.59,-17.17,-19.59,-17.17,6.00,6.53,3.18,-13.59,-13.59,-2.42
21.44,-19.47,-17.06,-19.47,-17.06,6.00,6.53,3.27,-13.47,-13.47,-2.41
21.66,-19.35,-16.95,-19.35,-16.95,6.00,6.52,3.37,-13.35,-13.35,-2.40
21.87,-19.23,-16.83,-19.23,-16.83,6.00,6.52,3.46,-13.23,-13.23,-2.40
22.09,-19.11,-16.72,-19.11,-16.72,6.00,6.51,3.56,-13.11,-13.11,-2.39
22.31,-18.99,-16.61,-18.99,-16.60,6.00,6.51,3.66,-12.99,-12.99,-2.38
22.54,-18.87,-16.49,-18.87,-16.49,6.00,6.50,3.77,-12.87,-12.87,-2.38
22.76,-18.75,-16.38,-18.75,-16.38,6.00,6.50,3.87,-12.75,-12.75,-2.37
22.99,-18.63,-16.27,-18.63,-16.26,6.00,6.49,3.98,-12.63,-12.63,-2.36
23.22,-18.50,-16.15,-18.50,-16.15,6.00,6.49,4.10,-12.50,-12.50,-2.35
23.45,-18.38,-16.04,-18.38,-16.03,6.00,6.48,4.21,-12.38,-12.38,-2.34
23.69,-18.25,-15.92,-18.26,-15.92,6.00,6.48,4.33,-12.25,-12.26,-2.34
23.92,-18.13,-15.80,-18.13,-15.80,6.00,6.47,4.44,-12.13,-12.13,-2.33
24.16,-18.01,-15.69,-18.01,-15.69,6.00,6.47,4.57,-12.01,-12.01,-2.32
24.40,-17.88,-15.57,-17.88,-15.58,6.00,6.46,4.69,-11.88,-11.88,-2.31
24.65,-17.76,-15.47,-17.76,-15.47,6.00,6.46,4.82,-11.76,-11.76,-2.29
24.89,-17.63,-15.35,-17.63,-15.35,6.00,6.45,4.94,-11.63,-11.63,-2.28
25.14,-17.51,-15.24,-17.51,-15.24,6.00,6.45,5.07,-11.51,-11.51,-2.27
25.39,-17.39,-15.13,-17.39,-15.13,6.00,6.44,5.20,-11.39,-11.39,-2.26
25.65,-17.27,-15.02,-17.27,-15.02,6.00,6.44,5.33,-11.27,-11.27,-2.25
25.91,-17.14,-14.91,-17.15,-14.91,6.00,6.43,5.46,-11.14,-11.15,-2.23
26.16,-17.02,-14.80,-17.02,-14.80,6.00,6.42,5.60,-11.02,-11.02,-2.22
26.43,-16.90,-14.69,-16.90,-14.69,6.00,6.42,5.73,-10.90,-10.90,-2.21
26.69,-16.77,-14.57,-16.78,-14.57,6.00,6.41,5.86,-10.77,-10.78,-2.20
26.96,-16.65,-14.47,-16.65,-14.46,6.00,6.40,5.98,-10.65,-10.65,-2.18
27.23,-16.52,-14.35,-16.52,-14.35,6.00,6.40,6.11,-10.52,-10.52,-2.17
27.50,-16.40,-14.25,-16.40,-14.24,6.00,6.39,6.23,-10.40,-10.40,-2.16
27.77,-16.27,-14.12,-16.27,-14.13,6.00,6.38,6.35,-10.27,-10.27,-2.15
28.05,-16.15,-14.02,-16.15,-14.02,6.00,6.38,6.47,-10.15,-10.15,-2.13
28.33,-16.03,-13.91,-16.03,-13.91,6.00,6.37,6.58,-10.03,-10.03,-2.12
28.62,-15.90,-13.80,-15.91,-13.80,6.00,6.36,6.69,-9.90,-9.91,-2.10
28.90,-15.78,-13.69,-15.78,-13.69,6.00,6.35,6.78,-9.78,-9.78,-2.09
29.19,-15.66,-13.59,-15.66,-13.59,6.00,6.35,6.88,-9.66,-9.66,-2.07
29.48,-15.54,-13.48,-15.54,-13.48,6.00,6.34,6.96,-9.54,-9.54,-2.06
29.78,-15.42,-13.38,-15.42,-13.38,6.00,6.33,7.04,-9.42,-9.42,-2.04
30.08,-15.30,-13.27,-15.31,-13.27,6.00,6.32,7.10,-9.30,-9.31,-2.03
30.38,-15.19,-13.18,-15.19,-13.17,6.00,6.31,7.16,-9.19,-9.19,-2.02
30.68,-15.08,-13.07,-15.08,-13.07,6.00,6.30,7.20,-9.08,-9.08,-2.01
30.99,-14.96,-12.97,-14.97,-12.98,6.00,6.30,7.24,-8.96,-8.97,-1.99
31.30,-14.86,-12.88,-14.86,-12.88,6.00,6.29,7.26,-8.86,-8.86,-1.98
31.61,-14.75,-12.79,-14.75,-12.79,6.00,6.28,7.28,-8.75,-8.75,-1.96
31.93,-14.65,-12.70,-14.65,-12.70,6.00,6.27,7.28,-8.65,-8.65,-1.95
32.24,-14.54,-12.61,-14.54,-12.60,6.00,6.26,7.28,-8.54,-8.54,-1.93
32.57,-14.43,-12.51,-14.43,-12.51,6.00,6.25,7.26,-8.43,-8.43,-1.93
32.89,-14.32,-12.41,-14.32,-12.41,6.00,6.24,7.24,-8.32,-8.32,-1.91
33.22,-14.22,-12.32,-14.22,-12.32,6.00,6.23,7.21,-8.22,-8.22,-1.90
33.55,-14.11,-12.23,-14.11,-12.23,6.00,6.22,7.17,-8.11,-8.11,-1.88
33.89,-14.00,-12.13,-14.00,-12.13,6.00,6.21,7.12,-8.00,-8.00,-1.87
34.23,-13.88,-12.03,-13.88,-12.02,6.00,6.20,7.06,-7.88,-7.88,-1.86
34.57,-13.76,-11.91,-13.77,-11.92,6.00,6.19,7.00,-7.76,-7.77,-1.85
34.92,-13.65,-11.81,-13.65,-11.81,6.00,6.18,6.94,-7.65,-7.65,-1.84
35.27,-13.53,-11.71,-13.53,-11.71,6.00,6.17,6.87,-7.53,-7.53,-1.82
35.62,-13.41,-11.60,-13.42,-11.60,6.00,6.15,6.79,-7.41,-7.42,-1.81
35.97,-13.30,-11.49,-13.30,-11.50,6.00,6.14,6.72,-7.30,-7.30,-1.81
36.33,-13.19,-11.39,-13.19,-11.39,6.00,6.13,6.64,-7.19,-7.19,-1.80
36.70,-13.07,-11.28,-13.07,-11.28,6.00,6.12,6.56,-7.07,-7.07,-1.79
37.06,-12.96,-11.18,-12.96,-11.18,6.00,6.11,6.48,-6.96,-6.96,-1.78
37.43,-12.84,-11.06,-12.84,-11.07,6.00,6.10,6.40,-6.84,-6.84,-1.78
37.81,-12.73,-10.96,-12.73,-10.96,6.00,6.08,6.32,-6.73,-6.73,-1.77
38.19,-12.61,-10.85,-12.61,-10.85,6.00,6.07,6.24,-6.61,-6.61,-1.76
38.57,-12.49,-10.74,-12.49,-10.74,6.00,6.06,6.17,-6.49,-6.49,-1.75
38.95,-12.37,-10.62,-12.37,-10.63,6.00,6.05,6.09,-6.37,-6.37,-1.75
39.34,-12.26,-10.52,-12.26,-10.52,6.00,6.04,6.02,-6.26,-6.26,-1.74
39.74,-12.14,-10.41,-12.14,-10.40,6.00,6.02,5.95,-6.14,-6.14,-1.73
40.14,-12.02,-10.28,-12.03,-10.29,6.00,6.01,5.89,-6.02,-6.03,-1.74
40.54,-11.91,-10.18,-11.91,-10.18,6.00,6.00,5.83,-5.91,-5.91,-1.73
40.94,-11.80,-10.08,-11.80,-10.07,6.00,5.99,5.77,-5.80,-5.80,-1.73
41.35,-11.69,-9.97,-11.69,-9.97,6.00,5.97,5.71,-5.69,-5.69,-1.72
41.76,-11.58,-9.87,-11.58,-9.87,6.00,5.96,5.66,-5.58,-5.58,-1.71
42.18,-11.47,-9.76,-11.47,-9.76,6.00,5.95,5.61,-5.47,-5.47,-1.71
42.60,-11.36,-9.66,-11.36,-9.66,6.00,5.94,5.57,-5.36,-5.36,-1.70
43.03,-11.25,-9.56,-11.25,-9.56,6.00,5.93,5.53,-5.25,-5.25,-1.70
43.46,-11.14,-9.45,-11.14,-9.45,6.00,5.92,5.49,-5.14,-5.14,-1.69
43.90,-11.04,-9.36,-11.04,-9.35,6.00,5.91,5.46,-5.04,-5.04,-1.69
44.33,-10.92,-9.25,-10.93,-9.25,6.00,5.90,5.43,-4.92,-4.93,-1.67
44.78,-10.81,-9.15,-10.81,-9.14,6.00,5.89,5.41,-4.81,-4.81,-1.67
45.23,-10.69,-9.03,-10.69,-9.03,6.00,5.89,5.39,-4.69,-4.69,-1.66
45.68,-10.57,-8.93,-10.57,-8.92,6.00,5.88,5.38,-4.57,-4.57,-1.65
46.13,-10.45,-8.81,-10.45,-8.81,6.00,5.87,5.36,-4.45,-4.45,-1.64
46.60,-10.33,-8.70,-10.33,-8.70,6.00,5.87,5.36,-4.33,-4.33,-1.63
47.06,-10.21,-8.59,-10.22,-8.59,6.00,5.87,5.35,-4.21,-4.22,-1.62
47.53,-10.10,-8.49,-10.10,-8.48,6.00,5.87,5.36,-4.10,-4.10,-1.61
48.01,-9.98,-8.37,-9.98,-8.37,6.00,5.87,5.36,-3.98,-3.98,-1.61
48.49,-9.85,-8.26,-9.86,-8.26,6.00,5.87,5.37,-3.85,-3.86,-1.60
48.97,-9.73,-8.14,-9.73,-8.14,6.00,5.88,5.38,-3.73,-3.73,-1.59
49.46,-9.60,-8.02,-9.60,-8.02,6.00,5.89,5.39,-3.60,-3.60,-1.58
49.96,-9.48,-7.91,-9.48,-7.91,6.00,5.90,5.41,-3.48,-3.48,-1.58
50.46,-9.36,-7.79,-9.36,-7.79,6.00,5.91,5.43,-3.36,-3.36,-1.58
50.96,-9.24,-7.68,-9.24,-7.67,6.00,5.92,5.45,-3.24,-3.24,-1.56
51.47,-9.12,-7.56,-9.12,-7.56,6.00,5.94,5.47,-3.12,-3.12,-1.56
51.99,-9.00,-7.44,-9.01,-7.45,6.00,5.95,5.50,-3.00,-3.01,-1.56
52.51,-8.89,-7.33,-8.89,-7.33,6.00,5.97,5.52,-2.89,-2.89,-1.56
53.03,-8.77,-7.21,-8.77,-7.21,6.00,5.98,5.55,-2.77,-2.77,-1.56
53.56,-8.64,-7.09,-8.65,-7.10,6.00,5.98,5.57,-2.64,-2.65,-1.55
54.10,-8.52,-6.97,-8.52,-6.97,6.00,5.98,5.60,-2.52,-2.52,-1.55
54.64,-8.40,-6.85,-8.40,-6.85,6.00,5.98,5.62,-2.40,-2.40,-1.55
55.18,-8.28,-6.72,-8.28,-6.73,6.01,5.96,5.64,-2.27,-2.28,-1.56
55.74,-8.17,-6.61,-8.17,-6.61,6.02,5.93,5.67,-2.15,-2.15,-1.56
56.29,-8.05,-6.49,-8.05,-6.49,6.02,5.88,5.68,-2.03,-2.03,-1.56
56.86,-7.94,-6.37,-7.94,-6.37,6.02,5.83,5.70,-1.92,-1.92,-1.57
57.42,-7.82,-6.24,-7.82,-6.25,6.00,5.76,5.71,-1.82,-1.82,-1.58
58.00,-7.71,-6.12,-7.71,-6.13,5.97,5.68,5.71,-1.74,-1.74,-1.59
58.58,-7.60,-6.01,-7.60,-6.01,5.92,5.59,5.72,-1.68,-1.68,-1.59
59.16,-7.49,-5.89,-7.49,-5.89,5.85,5.50,5.71,-1.64,-1.64,-1.61
59.76,-7.38,-5.76,-7.38,-5.76,5.76,5.40,5.70,-1.62,-1.62,-1.62
60.35,-7.27,-5.64,-7.27,-5.64,5.66,5.29,5.68,-1.62,-1.62,-1.63
60.96,-7.16,-5.51,-7.16,-5.51,5.53,5.19,5.66,-1.63,-1.62,-1.65
61.57,-7.04,-5.38,-7.05,-5.38,5.40,5.09,5.63,-1.64,-1.64,-1.66
62.18,-6.93,-5.25,-6.93,-5.26,5.26,4.98,5.59,-1.67,-1.67,-1.68
62.80,-6.82,-5.13,-6.82,-5.12,5.12,4.88,5.54,-1.70,-1.70,-1.69
63.43,-6.71,-5.00,-6.71,-4.99,4.99,4.78,5.49,-1.72,-1.72,-1.71
64.07,-6.59,-4.85,-6.60,-4.86,4.86,4.68,5.43,-1.73,-1.74,-1.74
64.71,-6.48,-4.73,-6.48,-4.73,4.73,4.58,5.36,-1.76,-1.76,-1.76
65.35,-6.37,-4.60,-6.37,-4.59,4.59,4.48,5.28,-1.78,-1.77,-1.77
66.01,-6.25,-4.46,-6.25,-4.46,4.46,4.39,5.20,-1.79,-1.79,-1.79
66.67,-6.13,-4.32,-6.14,-4.32,4.32,4.30,5.11,-1.81,-1.81,-1.81
67.33,-6.02,-4.19,-6.02,-4.19,4.19,4.20,5.01,-1.83,-1.83,-1.83
68.01,-5.92,-4.06,-5.91,-4.05,4.06,4.11,4.91,-1.87,-1.86,-1.86
68.69,-5.80,-3.92,-5.80,-3.92,3.92,4.02,4.81,-1.88,-1.88,-1.88
69.37,-5.69,-3.79,-5.70,-3.79,3.79,3.93,4.69,-1.90,-1.90,-1.90
70.07,-5.59,-3.67,-5.59,-3.66,3.66,3.84,4.58,-1.93,-1.93,-1.93
70.77,-5.48,-3.53,-5.48,-3.54,3.53,3.75,4.46,-1.95,-1.95,-1.95
71.48,-5.38,-3.41,-5.38,-3.41,3.41,3.67,4.34,-1.98,-1.97,-1.97
72.19,-5.27,-3.28,-5.27,-3.28,3.28,3.58,4.21,-1.99,-1.99,-1.99
72.91,-5.16,-3.15,-5.17,-3.16,3.16,3.49,4.08,-2.00,-2.01,-2.01
73.64,-5.07,-3.04,-5.07,-3.04,3.04,3.40,3.95,-2.03,-2.03,-2.03
74.38,-4.97,-2.92,-4.97,-2.92,2.92,3.31,3.82,-2.05,-2.05,-2.05
75.12,-4.87,-2.80,-4.88,-2.80,2.81,3.22,3.68,-2.06,-2.07,-2.07
75.87,-4.78,-2.69,-4.78,-2.69,2.69,3.13,3.55,-2.09,-2.09,-2.09
76.63,-4.69,-2.59,-4.69,-2.58,2.58,3.04,3.42,-2.11,-2.11,-2.11
77.40,-4.60,-2.48,-4.60,-2.48,2.47,2.95,3.28,-2.13,-2.13,-2.12
78.17,-4.50,-2.36,-4.50,-2.36,2.36,2.85,3.15,-2.14,-2.14,-2.14
78.95,-4.41,-2.25,-4.41,-2.25,2.25,2.76,3.01,-2.16,-2.16,-2.16
79.74,-4.31,-2.13,-4.31,-2.13,2.14,2.67,2.88,-2.18,-2.18,-2.18
80.54,-4.22,-2.02,-4.22,-2.02,2.02,2.57,2.74,-2.20,-2.20,-2.20
81.35,-4.13,-1.91,-4.13,-1.91,1.91,2.48,2.61,-2.22,-2.22,-2.22
82.16,-4.04,-1.80,-4.04,-1.80,1.80,2.38,2.48,-2.25,-2.24,-2.24
82.98,-3.94,-1.68,-3.94,-1.68,1.68,2.29,2.35,-2.26,-2.26,-2.26
83.81,-3.85,-1.57,-3.85,-1.57,1.57,2.19,2.22,-2.28,-2.28,-2.28
84.65,-3.76,-1.46,-3.76,-1.46,1.46,2.09,2.09,-2.30,-2.30,-2.30
85.50,-3.68,-1.35,-3.68,-1.35,1.35,1.99,1.96,-2.33,-2.32,-2.33
86.35,-3.59,-1.24,-3.59,-1.24,1.24,1.89,1.83,-2.35,-2.35,-2.35
87.22,-3.50,-1.13,-3.51,-1.14,1.14,1.79,1.70,-2.36,-2.37,-2.37
88.09,-3.43,-1.03,-3.43,-1.03,1.03,1.69,1.58,-2.40,-2.40,-2.40
88.97,-3.35,-0.94,-3.35,-0.93,0.93,1.59,1.46,-2.42,-2.42,-2.41
89.86,-3.27,-0.83,-3.27,-0.83,0.83,1.49,1.33,-2.44,-2.44,-2.44
90.76,-3.19,-0.73,-3.19,-0.73,0.73,1.39,1.21,-2.46,-2.46,-2.46
91.66,-3.10,-0.62,-3.11,-0.63,0.63,1.29,1.09,-2.47,-2.48,-2.48
92.58,-3.03,-0.53,-3.03,-0.53,0.53,1.19,0.97,-2.50,-2.50,-2.50
93.51,-2.96,-0.43,-2.96,-0.43,0.44,1.09,0.85,-2.53,-2.52,-2.53
94.44,-2.89,-0.34,-2.89,-0.34,0.34,0.98,0.74,-2.55,-2.56,-2.55
95.39,-2.82,-0.25,-2.82,-0.25,0.24,0.88,0.62,-2.58,-2.58,-2.57
96.34,-2.75,-0.16,-2.75,-0.15,0.14,0.78,0.50,-2.61,-2.61,-2.59
97.30,-2.67,-0.05,-2.67,-0.05,0.05,0.68,0.39,-2.62,-2.62,-2.62
98.28,-2.59,0.05,-2.60,0.05,-0.05,0.57,0.28,-2.64,-2.64,-2.65
99.26,-2.52,0.15,-2.52,0.15,-0.13,0.47,0.17,-2.66,-2.66,-2.67
100.25,-2.46,0.23,-2.46,0.24,-0.22,0.37,0.06,-2.68,-2.68,-2.69
101.25,-2.40,0.32,-2.40,0.32,-0.31,0.27,-0.05,-2.71,-2.71,-2.72
102.27,-2.35,0.40,-2.36,0.39,-0.39,0.17,-0.16,-2.74,-2.75,-2.75
103.29,-2.32,0.47,-2.32,0.46,-0.47,0.07,-0.27,-2.80,-2.79,-2.79
104.32,-2.28,0.53,-2.27,0.54,-0.56,-0.03,-0.37,-2.84,-2.83,-2.82
105.37,-2.22,0.62,-2.22,0.63,-0.64,-0.13,-0.47,-2.86,-2.86,-2.84
106.42,-2.15,0.73,-2.16,0.72,-0.73,-0.23,-0.57,-2.88,-2.89,-2.88
107.48,-2.10,0.82,-2.10,0.82,-0.82,-0.33,-0.67,-2.92,-2.92,-2.92
108.56,-2.05,0.91,-2.05,0.91,-0.90,-0.42,-0.77,-2.96,-2.95,-2.96
109.64,-2.00,1.00,-2.00,1.00,-0.99,-0.52,-0.86,-2.99,-2.99,-3.00
110.74,-1.95,1.08,-1.95,1.08,-1.08,-0.61,-0.95,-3.03,-3.03,-3.04
111.85,-1.91,1.16,-1.92,1.16,-1.16,-0.71,-1.04,-3.07,-3.07,-3.07
112.97,-1.88,1.24,-1.89,1.23,-1.23,-0.80,-1.12,-3.11,-3.12,-3.12
114.10,-1.87,1.29,-1.86,1.30,-1.30,-0.89,-1.21,-3.17,-3.16,-3.16
115.24,-1.84,1.36,-1.85,1.36,-1.36,-0.98,-1.28,-3.20,-3.21,-3.21
116.39,-1.83,1.41,-1.83,1.42,-1.42,-1.06,-1.36,-3.25,-3.25,-3.24
117.55,-1.81,1.48,-1.81,1.48,-1.47,-1.15,-1.43,-3.28,-3.28,-3.29
118.73,-1.80,1.52,-1.80,1.52,-1.52,-1.23,-1.50,-3.32,-3.32,-3.33
119.92,-1.80,1.57,-1.80,1.57,-1.56,-1.31,-1.56,-3.36,-3.36,-3.37
121.12,-1.81,1.60,-1.81,1.60,-1.60,-1.39,-1.62,-3.41,-3.41,-3.41
122.33,-1.82,1.62,-1.82,1.63,-1.63,-1.47,-1.67,-3.45,-3.45,-3.44
123.55,-1.82,1.66,-1.82,1.66,-1.66,-1.55,-1.72,-3.49,-3.49,-3.48
124.79,-1.82,1.69,-1.82,1.69,-1.70,-1.62,-1.77,-3.52,-3.52,-3.51
126.03,-1.82,1.73,-1.82,1.73,-1.73,-1.69,-1.81,-3.55,-3.55,-3.55
127.29,-1.82,1.76,-1.82,1.76,-1.76,-1.76,-1.85,-3.58,-3.58,-3.58
128.57,-1.82,1.79,-1.82,1.79,-1.79,-1.83,-1.88,-3.61,-3.61,-3.61
129.85,-1.82,1.83,-1.82,1.83,-1.82,-1.89,-1.91,-3.64,-3.64,-3.65
131.15,-1.82,1.86,-1.82,1.86,-1.85,-1.95,-1.93,-3.68,-3.68,-3.68
132.46,-1.82,1.89,-1.82,1.89,-1.89,-2.01,-1.95,-3.71,-3.71,-3.71
133.79,-1.82,1.91,-1.82,1.91,-1.92,-2.07,-1.97,-3.74,-3.74,-3.73
135.12,-1.82,1.94,-1.82,1.94,-1.94,-2.13,-1.98,-3.77,-3.77,-3.76
136.48,-1.82,1.97,-1.82,1.97,-1.97,-2.18,-2.00,-3.79,-3.79,-3.79
137.84,-1.82,2.00,-1.82,2.00,-2.00,-2.23,-2.00,-3.82,-3.82,-3.82
139.22,-1.82,2.03,-1.82,2.03,-2.03,-2.28,-2.01,-3.85,-3.85,-3.85
140.61,-1.82,2.06,-1.82,2.06,-2.05,-2.32,-2.01,-3.88,-3.88,-3.88
142.02,-1.82,2.08,-1.82,2.08,-2.08,-2.37,-2.02,-3.90,-3.90,-3.90
143.44,-1.82,2.11,-1.82,2.11,-2.11,-2.40,-2.02,-3.93,-3.93,-3.93
144.87,-1.82,2.13,-1.82,2.13,-2.14,-2.44,-2.02,-3.96,-3.96,-3.95
146.32,-1.82,2.17,-1.82,2.17,-2.16,-2.48,-2.01,-3.99,-3.99,-3.99
147.78,-1.82,2.19,-1.82,2.19,-2.19,-2.51,-2.01,-4.01,-4.01,-4.02
149.26,-1.82,2.22,-1.82,2.22,-2.22,-2.54,-2.01,-4.04,-4.04,-4.04
150.75,-1.82,2.24,-1.82,2.24,-2.24,-2.57,-2.00,-4.07,-4.07,-4.07
152.26,-1.82,2.27,-1.82,2.27,-2.27,-2.60,-2.00,-4.09,-4.09,-4.09
153.78,-1.82,2.30,-1.82,2.30,-2.30,-2.62,-2.00,-4.12,-4.12,-4.12
155.32,-1.82,2.33,-1.82,2.32,-2.33,-2.65,-1.99,-4.15,-4.15,-4.15
156.88,-1.82,2.35,-1.82,2.35,-2.36,-2.67,-1.99,-4.18,-4.18,-4.17
158.44,-1.81,2.38,-1.81,2.38,-2.39,-2.68,-1.99,-4.20,-4.20,-4.19
160.03,-1.80,2.42,-1.81,2.41,-2.41,-2.70,-1.99,-4.21,-4.22,-4.22
161.63,-1.80,2.44,-1.80,2.44,-2.44,-2.71,-1.99,-4.24,-4.24,-4.24
163.24,-1.81,2.46,-1.81,2.46,-2.46,-2.73,-1.99,-4.27,-4.27,-4.27
164.88,-1.82,2.47,-1.82,2.47,-2.47,-2.74,-1.99,-4.29,-4.29,-4.29
166.53,-1.84,2.48,-1.84,2.48,-2.48,-2.75,-1.99,-4.32,-4.32,-4.32
168.19,-1.85,2.50,-1.86,2.49,-2.49,-2.75,-2.00,-4.34,-4.35,-4.35
169.87,-1.89,2.49,-1.88,2.50,-2.49,-2.76,-2.01,-4.38,-4.37,-4.38
171.57,-1.91,2.50,-1.92,2.49,-2.49,-2.76,-2.01,-4.40,-4.41,-4.41
173.29,-1.95,2.48,-1.95,2.48,-2.49,-2.77,-2.02,-4.44,-4.44,-4.43
175.02,-1.99,2.47,-1.99,2.48,-2.49,-2.77,-2.03,-4.48,-4.47,-4.46
176.77,-2.02,2.48,-2.02,2.48,-2.49,-2.77,-2.05,-4.51,-4.50,-4.50
178.54,-2.04,2.48,-2.04,2.48,-2.48,-2.77,-2.06,-4.53,-4.53,-4.52
180.32,-2.06,2.50,-2.07,2.49,-2.48,-2.76,-2.08,-4.55,-4.55,-4.56
182.13,-2.09,2.49,-2.09,2.49,-2.48,-2.76,-2.10,-4.58,-4.58,-4.58
183.95,-2.13,2.49,-2.13,2.49,-2.49,-2.75,-2.11,-4.62,-4.61,-4.62
185.79,-2.16,2.49,-2.16,2.49,-2.49,-2.75,-2.14,-4.65,-4.65,-4.65
187.65,-2.19,2.48,-2.19,2.49,-2.49,-2.74,-2.16,-4.68,-4.68,-4.68
189.52,-2.22,2.49,-2.22,2.49,-2.49,-2.73,-2.18,-4.71,-4.71,-4.71
191.42,-2.24,2.50,-2.25,2.49,-2.49,-2.73,-2.21,-4.73,-4.74,-4.74
193.33,-2.27,2.50,-2.27,2.50,-2.50,-2.72,-2.23,-4.77,-4.77,-4.77
195.27,-2.30,2.49,-2.30,2.50,-2.50,-2.71,-2.26,-4.80,-4.80,-4.80
197.22,-2.33,2.50,-2.33,2.50,-2.51,-2.70,-2.29,-4.84,-4.83,-4.83
199.19,-2.35,2.51,-2.35,2.51,-2.51,-2.69,-2.32,-4.86,-4.86,-4.86
201.18,-2.37,2.53,-2.38,2.52,-2.51,-2.68,-2.35,-4.89,-4.89,-4.90
203.19,-2.40,2.53,-2.40,2.53,-2.52,-2.66,-2.39,-4.92,-4.92,-4.93
205.23,-2.43,2.53,-2.43,2.53,-2.52,-2.65,-2.42,-4.95,-4.95,-4.96
207.28,-2.46,2.53,-2.47,2.52,-2.52,-2.64,-2.45,-4.99,-4.99,-4.99
209.35,-2.50,2.52,-2.50,2.52,-2.53,-2.63,-2.49,-5.03,-5.03,-5.02
211.44,-2.53,2.53,-2.53,2.52,-2.54,-2.61,-2.52,-5.07,-5.07,-5.06
213.56,-2.56,2.53,-2.56,2.53,-2.55,-2.60,-2.55,-5.11,-5.11,-5.09
215.69,-2.58,2.54,-2.58,2.55,-2.55,-2.59,-2.59,-5.13,-5.13,-5.13
217.85,-2.60,2.56,-2.60,2.56,-2.56,-2.57,-2.62,-5.16,-5.15,-5.16
220.03,-2.61,2.58,-2.62,2.57,-2.56,-2.56,-2.65,-5.17,-5.18,-5.19
222.23,-2.64,2.58,-2.65,2.58,-2.56,-2.55,-2.68,-5.20,-5.21,-5.22
224.45,-2.69,2.57,-2.69,2.57,-2.55,-2.53,-2.71,-5.25,-5.24,-5.26
226.70,-2.73,2.55,-2.74,2.55,-2.54,-2.52,-2.74,-5.27,-5.28,-5.28
228.96,-2.79,2.52,-2.79,2.53,-2.53,-2.51,-2.77,-5.32,-5.31,-5.31
231.25,-2.83,2.51,-2.83,2.50,-2.51,-2.50,-2.79,-5.34,-5.35,-5.34
233.57,-2.87,2.48,-2.88,2.48,-2.50,-2.48,-2.81,-5.37,-5.37,-5.35
235.90,-2.92,2.46,-2.91,2.46,-2.48,-2.47,-2.83,-5.40,-5.39,-5.38
238.26,-2.94,2.45,-2.94,2.45,-2.46,-2.46,-2.85,-5.40,-5.40,-5.40
240.64,-2.97,2.44,-2.97,2.45,-2.44,-2.45,-2.86,-5.41,-5.41,-5.41
243.05,-2.99,2.44,-2.99,2.43,-2.42,-2.44,-2.88,-5.41,-5.41,-5.43
245.48,-3.02,2.42,-3.03,2.41,-2.40,-2.43,-2.88,-5.42,-5.43,-5.44
247.93,-3.08,2.38,-3.07,2.38,-2.37,-2.42,-2.89,-5.45,-5.45,-5.46
250.41,-3.12,2.35,-3.13,2.35,-2.35,-2.41,-2.89,-5.47,-5.47,-5.47
252.92,-3.18,2.31,-3.18,2.31,-2.32,-2.40,-2.89,-5.50,-5.50,-5.49
255.45,-3.22,2.28,-3.22,2.28,-2.29,-2.39,-2.88,-5.51,-5.51,-5.50
258.00,-3.26,2.26,-3.26,2.25,-2.26,-2.38,-2.87,-5.52,-5.52,-5.52
260.58,-3.29,2.23,-3.29,2.23,-2.24,-2.37,-2.86,-5.53,-5.53,-5.52
263.19,-3.32,2.21,-3.32,2.21,-2.21,-2.36,-2.85,-5.54,-5.54,-5.54
265.82,-3.35,2.20,-3.35,2.20,-2.20,-2.36,-2.83,-5.55,-5.54,-5.55
268.48,-3.37,2.19,-3.38,2.19,-2.18,-2.35,-2.81,-5.55,-5.56,-5.56
271.16,-3.40,2.18,-3.40,2.17,-2.17,-2.35,-2.79,-5.57,-5.57,-5.58
273.87,-3.43,2.16,-3.43,2.16,-2.17,-2.35,-2.76,-5.60,-5.59,-5.59
276.61,-3.45,2.15,-3.45,2.15,-2.17,-2.34,-2.73,-5.62,-5.62,-5.61
279.38,-3.46,2.16,-3.46,2.15,-2.17,-2.34,-2.71,-5.63,-5.63,-5.62
282.17,-3.47,2.16,-3.47,2.17,-2.17,-2.34,-2.67,-5.64,-5.64,-5.63
284.99,-3.46,2.18,-3.46,2.18,-2.18,-2.34,-2.64,-5.64,-5.64,-5.65
287.84,-3.45,2.21,-3.46,2.20,-2.19,-2.34,-2.61,-5.64,-5.65,-5.66
290.72,-3.45,2.22,-3.45,2.22,-2.20,-2.34,-2.58,-5.65,-5.66,-5.67
293.63,-3.46,2.22,-3.46,2.23,-2.22,-2.35,-2.54,-5.68,-5.67,-5.68
296.57,-3.46,2.24,-3.47,2.23,-2.23,-2.35,-2.51,-5.69,-5.70,-5.70
299.53,-3.47,2.24,-3.47,2.24,-2.25,-2.36,-2.47,-5.72,-5.72,-5.71
302.53,-3.46,2.26,-3.46,2.26,-2.27,-2.37,-2.43,-5.73,-5.74,-5.72
305.55,-3.45,2.29,-3.45,2.29,-2.30,-2.38,-2.40,-5.75,-5.75,-5.74
308.61,-3.43,2.33,-3.43,2.33,-2.33,-2.39,-2.36,-5.76,-5.76,-5.76
311.69,-3.40,2.37,-3.41,2.37,-2.37,-2.40,-2.33,-5.77,-5.77,-5.77
314.81,-3.38,2.41,-3.38,2.41,-2.41,-2.42,-2.29,-5.79,-5.79,-5.79
317.96,-3.35,2.45,-3.35,2.45,-2.46,-2.43,-2.26,-5.81,-5.81,-5.80
321.14,-3.32,2.50,-3.32,2.51,-2.51,-2.45,-2.23,-5.83,-5.82,-5.83
324.35,-3.28,2.56,-3.28,2.56,-2.56,-2.47,-2.20,-5.84,-5.84,-5.84
327.59,-3.24,2.62,-3.25,2.61,-2.61,-2.50,-2.16,-5.85,-5.86,-5.86
330.87,-3.22,2.65,-3.22,2.66,-2.66,-2.52,-2.13,-5.88,-5.87,-5.87
334.18,-3.19,2.70,-3.19,2.70,-2.70,-2.55,-2.11,-5.90,-5.89,-5.89
337.52,-3.15,2.75,-3.16,2.75,-2.75,-2.58,-2.08,-5.90,-5.91,-5.90
340.90,-3.14,2.78,-3.13,2.79,-2.79,-2.61,-2.05,-5.93,-5.92,-5.93
344.30,-3.11,2.83,-3.12,2.83,-2.82,-2.64,-2.03,-5.93,-5.93,-5.94
347.75,-3.10,2.86,-3.10,2.85,-2.85,-2.68,-2.00,-5.95,-5.95,-5.96
351.23,-3.10,2.88,-3.10,2.88,-2.87,-2.71,-1.98,-5.97,-5.97,-5.98
354.74,-3.10,2.89,-3.10,2.89,-2.89,-2.75,-1.96,-5.99,-5.99,-5.99
358.28,-3.11,2.90,-3.11,2.90,-2.91,-2.79,-1.94,-6.02,-6.02,-6.01
361.87,-3.12,2.91,-3.12,2.91,-2.92,-2.83,-1.92,-6.04,-6.04,-6.03
365.49,-3.12,2.92,-3.12,2.93,-2.93,-2.87,-1.90,-6.05,-6.05,-6.05
369.14,-3.12,2.95,-3.12,2.94,-2.95,-2.91,-1.89,-6.07,-6.07,-6.07
372.83,-3.12,2.96,-3.12,2.96,-2.96,-2.95,-1.87,-6.08,-6.08,-6.08
376.56,-3.12,2.98,-3.12,2.98,-2.98,-2.99,-1.86,-6.10,-6.10,-6.10
380.33,-3.12,3.00,-3.12,3.00,-3.00,-3.02,-1.85,-6.12,-6.12,-6.12
384.13,-3.12,3.01,-3.12,3.02,-3.02,-3.05,-1.84,-6.14,-6.14,-6.13
387.97,-3.11,3.04,-3.11,3.04,-3.04,-3.07,-1.83,-6.15,-6.15,-6.15
391.85,-3.10,3.06,-3.11,3.06,-3.06,-3.09,-1.82,-6.16,-6.16,-6.16
395.77,-3.10,3.07,-3.10,3.08,-3.07,-3.11,-1.82,-6.17,-6.17,-6.17
399.73,-3.10,3.08,-3.10,3.09,-3.08,-3.11,-1.81,-6.19,-6.18,-6.19
403.72,-3.10,3.09,-3.11,3.09,-3.09,-3.11,-1.81,-6.20,-6.20,-6.20
407.76,-3.11,3.10,-3.11,3.10,-3.10,-3.10,-1.81,-6.21,-6.21,-6.21
