frequency,raw,error,smoothed,error_smoothed,equalization,parametric_eq,fixed_band_eq,equalized_raw,equalized_smoothed,target
20.00,10.12,1.02,10.12,1.02,-1.01,-2.37,-1.47,9.11,9.11,9.11
20.20,10.17,1.10,10.17,1.09,-1.09,-2.38,-1.52,9.08,9.08,9.08
20.40,10.22,1.17,10.22,1.16,-1.17,-2.39,-1.56,9.06,9.06,9.06
20.61,10.27,1.24,10.27,1.24,-1.24,-2.41,-1.60,9.03,9.03,9.04
20.81,10.32,1.31,10.32,1.31,-1.31,-2.42,-1.65,9.01,9.01,9.02
21.02,10.37,1.38,10.38,1.38,-1.38,-2.44,-1.69,8.99,8.99,9.00
21.23,10.43,1.46,10.43,1.46,-1.45,-2.45,-1.74,8.98,8.98,8.98
21.44,10.48,1.53,10.48,1.53,-1.52,-2.46,-1.79,8.96,8.96,8.95
21.66,10.53,1.60,10.53,1.60,-1.59,-2.48,-1.84,8.94,8.94,8.93
21.87,10.58,1.66,10.58,1.66,-1.66,-2.49,-1.89,8.92,8.92,8.92
22.09,10.63,1.73,10.63,1.73,-1.73,-2.51,-1.95,8.91,8.90,8.90
22.31,10.68,1.79,10.68,1.79,-1.79,-2.52,-2.00,8.89,8.89,8.89
22.54,10.73,1.85,10.74,1.86,-1.86,-2.54,-2.06,8.87,8.88,8.88
22.76,10.79,1.92,10.79,1.92,-1.92,-2.56,-2.12,8.87,8.87,8.87
22.99,10.84,1.98,10.84,1.98,-1.98,-2.57,-2.17,8.86,8.86,8.86
23.22,10.89,2.04,10.89,2.05,-2.04,-2.59,-2.24,8.85,8.85,8.85
23.45,10.94,2.10,10.94,2.10,-2.10,-2.60,-2.30,8.84,8.84,8.84
23.69,10.99,2.16,10.99,2.16,-2.16,-2.62,-2.36,8.83,8.83,8.83
23.92,11.04,2.22,11.04,2.22,-2.22,-2.64,-2.42,8.82,8.82,8.83
24.16,11.09,2.28,11.10,2.28,-2.28,-2.66,-2.49,8.81,8.82,8.82
24.40,11.15,2.34,11.15,2.34,-2.34,-2.67,-2.56,8.82,8.81,8.82
24.65,11.20,2.40,11.20,2.40,-2.40,-2.69,-2.62,8.81,8.81,8.80
24.89,11.25,2.45,11.26,2.46,-2.45,-2.71,-2.69,8.80,8.80,8.80
25.14,11.30,2.51,11.30,2.51,-2.51,-2.73,-2.76,8.80,8.80,8.79
25.39,11.35,2.57,11.35,2.57,-2.56,-2.75,-2.83,8.79,8.79,8.78
25.65,11.39,2.61,11.40,2.62,-2.62,-2.77,-2.90,8.77,8.78,8.78
25.91,11.44,2.67,11.44,2.67,-2.67,-2.78,-2.97,8.77,8.77,8.77
26.16,11.49,2.73,11.49,2.72,-2.73,-2.80,-3.04,8.77,8.76,8.77
26.43,11.54,2.78,11.54,2.78,-2.78,-2.82,-3.11,8.76,8.76,8.77
26.69,11.59,2.84,11.59,2.83,-2.84,-2.84,-3.18,8.76,8.76,8.76
26.96,11.64,2.89,11.64,2.89,-2.89,-2.86,-3.25,8.75,8.75,8.76
27.23,11.69,2.95,11.69,2.95,-2.94,-2.89,-3.32,8.75,8.75,8.74
27.50,11.74,3.00,11.74,3.00,-3.00,-2.91,-3.39,8.75,8.75,8.74
27.77,11.78,3.04,11.79,3.05,-3.05,-2.93,-3.45,8.74,8.74,8.74
28.05,11.83,3.10,11.83,3.10,-3.10,-2.95,-3.52,8.73,8.73,8.73
28.33,11.87,3.15,11.88,3.15,-3.15,-2.97,-3.58,8.72,8.72,8.73
28.62,11.92,3.20,11.92,3.20,-3.20,-2.99,-3.64,8.72,8.72,8.73
28.90,11.96,3.25,11.97,3.25,-3.25,-3.02,-3.69,8.71,8.72,8.71
29.19,12.01,3.30,12.01,3.30,-3.30,-3.04,-3.75,8.72,8.71,8.71
29.48,12.05,3.34,12.06,3.35,-3.34,-3.06,-3.80,8.71,8.71,8.71
29.78,12.10,3.39,12.10,3.39,-3.39,-3.09,-3.85,8.71,8.71,8.71
30.08,12.14,3.43,12.14,3.44,-3.43,-3.11,-3.89,8.71,8.71,8.71
30.38,12.17,3.48,12.18,3.48,-3.47,-3.14,-3.93,8.70,8.70,8.70
30.68,12.21,3.52,12.21,3.52,-3.52,-3.16,-3.97,8.70,8.69,8.69
30.99,12.24,3.55,12.24,3.55,-3.56,-3.18,-4.00,8.69,8.69,8.69
31.30,12.28,3.59,12.28,3.59,-3.60,-3.21,-4.03,8.68,8.68,8.69
31.61,12.31,3.64,12.32,3.63,-3.64,-3.24,-4.05,8.67,8.68,8.68
31.93,12.35,3.68,12.35,3.68,-3.68,-3.26,-4.07,8.67,8.67,8.68
32.24,12.39,3.72,12.39,3.72,-3.72,-3.29,-4.09,8.67,8.67,8.67
32.57,12.42,3.76,12.43,3.76,-3.76,-3.31,-4.10,8.66,8.67,8.66
32.89,12.46,3.81,12.46,3.80,-3.80,-3.34,-4.11,8.66,8.66,8.66
33.22,12.49,3.84,12.49,3.84,-3.84,-3.37,-4.12,8.65,8.65,8.65
33.55,12.52,3.88,12.52,3.88,-3.88,-3.40,-4.12,8.65,8.65,8.64
33.89,12.55,3.91,12.55,3.92,-3.91,-3.42,-4.12,8.64,8.64,8.64
34.23,12.58,3.95,12.58,3.95,-3.95,-3.45,-4.12,8.63,8.63,8.64
34.57,12.61,3.99,12.61,3.98,-3.99,-3.48,-4.11,8.63,8.62,8.62
34.92,12.63,4.01,12.64,4.02,-4.02,-3.51,-4.11,8.61,8.62,8.62
35.27,12.66,4.05,12.67,4.05,-4.06,-3.54,-4.10,8.61,8.61,8.62
35.62,12.70,4.10,12.70,4.09,-4.09,-3.57,-4.09,8.61,8.61,8.60
35.97,12.73,4.13,12.73,4.13,-4.13,-3.60,-4.08,8.60,8.60,8.60
36.33,12.76,4.17,12.76,4.17,-4.17,-3.63,-4.07,8.60,8.60,8.60
36.70,12.79,4.20,12.79,4.20,-4.20,-3.66,-4.06,8.59,8.59,8.59
37.06,12.82,4.24,12.82,4.24,-4.24,-3.69,-4.06,8.59,8.59,8.59
37.43,12.85,4.28,12.85,4.27,-4.27,-3.72,-4.05,8.58,8.58,8.57
37.81,12.87,4.30,12.88,4.31,-4.31,-3.76,-4.04,8.56,8.57,8.57
38.19,12.90,4.34,12.90,4.34,-4.35,-3.79,-4.03,8.56,8.56,8.56
38.57,12.93,4.38,12.93,4.38,-4.38,-3.82,-4.03,8.55,8.55,8.55
38.95,12.96,4.42,12.96,4.42,-4.42,-3.85,-4.02,8.55,8.54,8.54
39.34,12.98,4.45,12.99,4.46,-4.45,-3.89,-4.02,8.53,8.53,8.53
39.74,13.01,4.49,13.01,4.49,-4.49,-3.92,-4.02,8.52,8.52,8.52
40.14,13.04,4.53,13.04,4.53,-4.52,-3.95,-4.02,8.52,8.52,8.51
40.54,13.06,4.56,13.06,4.56,-4.56,-3.99,-4.03,8.51,8.51,8.50
40.94,13.08,4.59,13.08,4.59,-4.59,-4.02,-4.04,8.49,8.50,8.50
41.35,13.10,4.61,13.11,4.61,-4.62,-4.06,-4.05,8.48,8.49,8.49
41.76,13.13,4.65,13.13,4.65,-4.65,-4.09,-4.06,8.49,8.48,8.49
42.18,13.15,4.67,13.15,4.67,-4.67,-4.13,-4.07,8.48,8.48,8.48
42.60,13.17,4.70,13.17,4.70,-4.69,-4.16,-4.09,8.48,8.48,8.47
43.03,13.19,4.72,13.19,4.72,-4.71,-4.20,-4.11,8.48,8.48,8.48
43.46,13.20,4.74,13.20,4.74,-4.74,-4.24,-4.14,8.47,8.47,8.47
43.90,13.21,4.75,13.21,4.75,-4.76,-4.27,-4.16,8.46,8.46,8.46
44.33,13.22,4.77,13.22,4.77,-4.77,-4.31,-4.19,8.45,8.45,8.45
44.78,13.23,4.79,13.24,4.79,-4.79,-4.35,-4.23,8.44,8.44,8.44
45.23,13.25,4.82,13.25,4.81,-4.81,-4.39,-4.26,8.44,8.43,8.44
45.68,13.26,4.84,13.26,4.84,-4.83,-4.43,-4.30,8.43,8.43,8.43
46.13,13.27,4.85,13.28,4.86,-4.86,-4.46,-4.35,8.42,8.42,8.42
46.60,13.29,4.88,13.29,4.88,-4.88,-4.50,-4.39,8.41,8.41,8.41
47.06,13.30,4.90,13.30,4.91,-4.90,-4.54,-4.44,8.40,8.40,8.40
47.53,13.31,4.93,13.31,4.93,-4.93,-4.58,-4.49,8.38,8.38,8.38
48.01,13.32,4.95,13.32,4.95,-4.95,-4.62,-4.55,8.37,8.37,8.37
48.49,13.33,4.97,13.34,4.98,-4.98,-4.66,-4.60,8.35,8.35,8.36
48.97,13.35,5.01,13.35,5.01,-5.01,-4.70,-4.66,8.35,8.35,8.35
49.46,13.37,5.04,13.37,5.04,-5.04,-4.74,-4.72,8.34,8.34,8.34
49.96,13.39,5.07,13.39,5.07,-5.06,-4.78,-4.79,8.33,8.33,8.33
50.46,13.40,5.09,13.41,5.09,-5.09,-4.83,-4.85,8.31,8.32,8.31
50.96,13.42,5.12,13.42,5.12,-5.12,-4.87,-4.92,8.31,8.31,8.30
51.47,13.43,5.14,13.44,5.14,-5.14,-4.91,-4.99,8.29,8.29,8.30
51.99,13.45,5.17,13.45,5.17,-5.17,-4.95,-5.06,8.28,8.28,8.28
52.51,13.46,5.19,13.46,5.19,-5.19,-4.99,-5.13,8.27,8.27,8.27
53.03,13.47,5.22,13.48,5.22,-5.22,-5.04,-5.21,8.25,8.26,8.26
53.56,13.49,5.25,13.49,5.25,-5.25,-5.08,-5.28,8.25,8.24,8.24
54.10,13.50,5.27,13.51,5.28,-5.28,-5.12,-5.35,8.23,8.23,8.23
54.64,13.52,5.30,13.52,5.31,-5.31,-5.16,-5.42,8.22,8.22,8.22
55.18,13.54,5.34,13.54,5.34,-5.34,-5.21,-5.50,8.21,8.20,8.20
55.74,13.55,5.37,13.56,5.37,-5.37,-5.25,-5.57,8.18,8.19,8.19
56.29,13.57,5.40,13.57,5.40,-5.40,-5.30,-5.64,8.17,8.17,8.18
56.86,13.59,5.43,13.59,5.43,-5.43,-5.34,-5.70,8.16,8.16,8.16
57.42,13.61,5.47,13.61,5.47,-5.47,-5.38,-5.77,8.15,8.15,8.14
58.00,13.62,5.49,13.63,5.50,-5.50,-5.43,-5.83,8.13,8.13,8.13
58.58,13.64,5.53,13.64,5.53,-5.53,-5.47,-5.89,8.11,8.11,8.11
59.16,13.65,5.56,13.66,5.56,-5.56,-5.52,-5.94,8.09,8.09,8.09
59.76,13.67,5.59,13.67,5.59,-5.59,-5.56,-5.99,8.08,8.08,8.08
60.35,13.67,5.61,13.68,5.62,-5.62,-5.61,-6.04,8.06,8.06,8.06
60.96,13.68,5.65,13.68,5.64,-5.64,-5.65,-6.08,8.04,8.04,8.04
61.57,13.68,5.67,13.68,5.67,-5.67,-5.70,-6.12,8.02,8.02,8.01
62.18,13.68,5.69,13.68,5.70,-5.69,-5.74,-6.15,7.99,7.99,7.99
62.80,13.68,5.72,13.68,5.71,-5.71,-5.79,-6.18,7.97,7.97,7.96
63.43,13.67,5.73,13.67,5.73,-5.74,-5.83,-6.20,7.94,7.94,7.94
64.07,13.66,5.75,13.67,5.75,-5.76,-5.88,-6.22,7.91,7.91,7.91
64.71,13.66,5.78,13.66,5.78,-5.78,-5.92,-6.23,7.88,7.88,7.89
65.35,13.66,5.80,13.66,5.80,-5.81,-5.97,-6.24,7.86,7.86,7.86
66.01,13.66,5.83,13.66,5.83,-5.83,-6.02,-6.25,7.83,7.83,7.83
66.67,13.66,5.86,13.66,5.86,-5.86,-6.06,-6.25,7.80,7.80,7.80
67.33,13.66,5.89,13.66,5.89,-5.89,-6.11,-6.25,7.77,7.77,7.77
68.01,13.66,5.92,13.66,5.92,-5.92,-6.15,-6.24,7.74,7.74,7.74
68.69,13.66,5.95,13.66,5.95,-5.95,-6.20,-6.24,7.71,7.71,7.71
69.37,13.66,5.98,13.66,5.99,-5.98,-6.25,-6.23,7.68,7.68,7.68
70.07,13.66,6.02,13.66,6.02,-6.02,-6.29,-6.22,7.65,7.65,7.65
70.77,13.66,6.05,13.66,6.05,-6.05,-6.34,-6.21,7.62,7.62,7.61
71.48,13.66,6.08,13.66,6.08,-6.08,-6.38,-6.19,7.58,7.58,7.59
72.19,13.66,6.11,13.66,6.11,-6.11,-6.43,-6.18,7.55,7.55,7.55
72.91,13.66,6.15,13.66,6.15,-6.15,-6.48,-6.17,7.52,7.52,7.52
73.64,13.66,6.18,13.66,6.18,-6.18,-6.52,-6.16,7.48,7.48,7.48
74.38,13.66,6.21,13.66,6.21,-6.21,-6.57,-6.15,7.45,7.45,7.45
75.12,13.66,6.25,13.66,6.25,-6.25,-6.61,-6.14,7.42,7.42,7.41
75.87,13.66,6.28,13.66,6.28,-6.28,-6.66,-6.13,7.38,7.38,7.38
76.63,13.66,6.32,13.66,6.32,-6.32,-6.70,-6.13,7.34,7.34,7.34
77.40,13.66,6.36,13.66,6.36,-6.36,-6.75,-6.12,7.31,7.31,7.30
78.17,13.66,6.39,13.66,6.40,-6.39,-6.79,-6.12,7.27,7.27,7.27
78.95,13.66,6.43,13.66,6.43,-6.43,-6.84,-6.13,7.23,7.23,7.23
79.74,13.66,6.48,13.66,6.47,-6.47,-6.88,-6.14,7.19,7.19,7.19
80.54,13.66,6.51,13.66,6.52,-6.52,-6.93,-6.15,7.15,7.15,7.15
81.35,13.66,6.56,13.66,6.56,-6.56,-6.97,-6.16,7.10,7.10,7.11
82.16,13.66,6.60,13.66,6.60,-6.60,-7.02,-6.18,7.06,7.06,7.06
82.98,13.66,6.65,13.66,6.65,-6.65,-7.06,-6.20,7.02,7.02,7.01
83.81,13.66,6.70,13.66,6.69,-6.69,-7.10,-6.23,6.97,6.97,6.97
84.65,13.66,6.73,13.66,6.74,-6.74,-7.15,-6.26,6.93,6.93,6.93
85.50,13.66,6.78,13.66,6.78,-6.78,-7.19,-6.29,6.88,6.88,6.88
86.35,13.66,6.83,13.66,6.83,-6.83,-7.23,-6.33,6.83,6.83,6.83
87.22,13.66,6.88,13.66,6.88,-6.88,-7.28,-6.38,6.78,6.78,6.78
88.09,13.66,6.93,13.66,6.93,-6.93,-7.32,-6.43,6.73,6.73,6.73
88.97,13.66,6.98,13.66,6.98,-6.98,-7.36,-6.48,6.68,6.68,6.68
89.86,13.66,7.03,13.66,7.03,-7.03,-7.41,-6.54,6.63,6.63,6.63
90.76,13.66,7.09,13.66,7.09,-7.09,-7.45,-6.61,6.58,6.58,6.58
91.66,13.66,7.14,13.66,7.14,-7.14,-7.49,-6.67,6.52,6.52,6.52
92.58,13.66,7.19,13.66,7.19,-7.19,-7.53,-6.75,6.47,6.47,6.47
93.51,13.66,7.25,13.66,7.25,-7.25,-7.57,-6.82,6.42,6.42,6.42
94.44,13.66,7.30,13.66,7.30,-7.30,-7.61,-6.91,6.37,6.37,6.36
95.39,13.66,7.35,13.66,7.35,-7.35,-7.65,-6.99,6.31,6.31,6.31
96.34,13.66,7.41,13.66,7.41,-7.40,-7.70,-7.08,6.26,6.26,6.25
97.30,13.66,7.45,13.66,7.46,-7.46,-7.74,-7.18,6.20,6.20,6.21
98.28,13.66,7.51,13.66,7.51,-7.51,-7.78,-7.28,6.15,6.15,6.15
99.26,13.66,7.56,13.66,7.56,-7.57,-7.82,-7.38,6.10,6.10,6.10
100.25,13.66,7.62,13.66,7.62,-7.62,-7.85,-7.49,6.04,6.04,6.04
101.25,13.66,7.68,13.66,7.68,-7.68,-7.89,-7.59,5.99,5.99,5.99
102.27,13.66,7.73,13.66,7.73,-7.73,-7.93,-7.71,5.93,5.93,5.93
103.29,13.66,7.79,13.66,7.79,-7.78,-7.97,-7.82,5.88,5.88,5.87
104.32,13.66,7.84,13.66,7.84,-7.84,-8.01,-7.94,5.83,5.83,5.83
105.37,13.66,7.89,13.66,7.89,-7.89,-8.05,-8.05,5.77,5.77,5.77
106.42,13.66,7.95,13.66,7.94,-7.95,-8.08,-8.17,5.72,5.72,5.72
107.48,13.66,7.99,13.66,8.00,-8.00,-8.12,-8.29,5.66,5.66,5.67
108.56,13.66,8.05,13.66,8.05,-8.05,-8.16,-8.41,5.61,5.61,5.61
109.64,13.66,8.11,13.66,8.11,-8.11,-8.19,-8.52,5.56,5.56,5.56
110.74,13.66,8.16,13.66,8.16,-8.16,-8.23,-8.64,5.50,5.50,5.50
111.85,13.66,8.22,13.66,8.21,-8.21,-8.27,-8.75,5.45,5.45,5.44
112.97,13.66,8.26,13.66,8.27,-8.27,-8.30,-8.86,5.40,5.40,5.40
114.10,13.66,8.32,13.66,8.32,-8.32,-8.34,-8.96,5.34,5.34,5.34
115.24,13.66,8.37,13.66,8.37,-8.38,-8.37,-9.06,5.29,5.29,5.29
116.39,13.66,8.43,13.66,8.42,-8.43,-8.41,-9.15,5.23,5.23,5.23
117.55,13.66,8.47,13.66,8.48,-8.49,-8.44,-9.23,5.18,5.18,5.19
118.73,13.66,8.53,13.67,8.54,-8.54,-8.47,-9.31,5.12,5.13,5.14
119.92,13.68,8.60,13.68,8.59,-8.59,-8.51,-9.38,5.09,5.09,5.08
121.12,13.68,8.65,13.68,8.65,-8.64,-8.54,-9.44,5.05,5.04,5.03
122.33,13.67,8.68,13.68,8.69,-8.68,-8.57,-9.49,4.99,5.00,4.99
123.55,13.66,8.73,13.66,8.72,-8.72,-8.60,-9.53,4.94,4.94,4.94
124.79,13.64,8.75,13.64,8.75,-8.75,-8.63,-9.55,4.89,4.89,4.90
126.03,13.62,8.78,13.63,8.78,-8.78,-8.66,-9.58,4.85,4.85,4.85
127.29,13.60,8.80,13.60,8.80,-8.80,-8.69,-9.58,4.81,4.80,4.81
128.57,13.57,8.82,13.57,8.81,-8.81,-8.72,-9.58,4.76,4.76,4.76
129.85,13.53,8.83,13.54,8.83,-8.82,-8.75,-9.57,4.71,4.71,4.71
131.15,13.49,8.83,13.50,8.84,-8.84,-8.78,-9.55,4.66,4.66,4.66
132.46,13.47,8.85,13.46,8.85,-8.85,-8.81,-9.52,4.63,4.62,4.62
133.79,13.43,8.86,13.43,8.86,-8.86,-8.84,-9.49,4.57,4.57,4.58
135.12,13.39,8.86,13.40,8.87,-8.87,-8.86,-9.44,4.52,4.53,4.53
136.48,13.37,8.89,13.37,8.89,-8.89,-8.89,-9.39,4.48,4.48,4.48
137.84,13.34,8.90,13.35,8.91,-8.91,-8.92,-9.33,4.43,4.44,4.44
139.22,13.33,8.94,13.33,8.93,-8.94,-8.94,-9.28,4.40,4.39,4.40
140.61,13.31,8.96,13.32,8.96,-8.97,-8.97,-9.21,4.35,4.35,4.35
142.02,13.31,8.99,13.31,9.00,-9.00,-8.99,-9.14,4.31,4.31,4.32
143.44,13.31,9.03,13.32,9.03,-9.04,-9.01,-9.08,4.28,4.28,4.28
144.87,13.32,9.08,13.32,9.08,-9.08,-9.04,-9.01,4.25,4.25,4.24
146.32,13.33,9.12,13.33,9.12,-9.12,-9.06,-8.94,4.22,4.21,4.21
147.78,13.33,9.16,13.33,9.16,-9.15,-9.08,-8.87,4.18,4.18,4.17
149.26,13.33,9.20,13.33,9.20,-9.19,-9.10,-8.80,4.14,4.14,4.13
150.75,13.33,9.23,13.33,9.23,-9.23,-9.12,-8.73,4.10,4.10,4.11
152.26,13.33,9.26,13.33,9.26,-9.27,-9.14,-8.67,4.07,4.07,4.07
153.78,13.33,9.30,13.33,9.29,-9.30,-9.16,-8.61,4.03,4.03,4.03
155.32,13.33,9.32,13.34,9.33,-9.34,-9.18,-8.55,4.00,4.00,4.01
156.88,13.34,9.37,13.34,9.36,-9.37,-9.20,-8.50,3.97,3.97,3.98
158.44,13.34,9.40,13.35,9.40,-9.41,-9.21,-8.45,3.94,3.94,3.94
160.03,13.35,9.44,13.35,9.44,-9.44,-9.23,-8.40,3.92,3.92,3.91
161.63,13.35,9.47,13.35,9.47,-9.46,-9.24,-8.37,3.89,3.89,3.88
163.24,13.35,9.49,13.35,9.49,-9.49,-9.26,-8.33,3.87,3.86,3.86
164.88,13.33,9.50,13.34,9.51,-9.50,-9.27,-8.30,3.83,3.83,3.83
166.53,13.31,9.51,13.32,9.52,-9.51,-9.29,-8.28,3.80,3.80,3.80
168.19,13.30,9.53,13.30,9.52,-9.52,-9.30,-8.26,3.78,3.78,3.77
169.87,13.26,9.51,13.27,9.52,-9.52,-9.31,-8.24,3.75,3.75,3.75
171.57,13.24,9.52,13.24,9.51,-9.51,-9.32,-8.24,3.73,3.73,3.73
173.29,13.20,9.50,13.20,9.50,-9.50,-9.33,-8.24,3.70,3.70,3.70
175.02,13.16,9.49,13.17,9.49,-9.49,-9.34,-8.24,3.67,3.68,3.68
176.77,13.13,9.47,13.13,9.47,-9.48,-9.35,-8.25,3.65,3.65,3.66
178.54,13.10,9.47,13.10,9.47,-9.47,-9.36,-8.27,3.64,3.64,3.64
180.32,13.07,9.46,13.07,9.46,-9.46,-9.36,-8.29,3.61,3.62,3.61
182.13,13.05,9.46,13.05,9.46,-9.45,-9.37,-8.32,3.60,3.59,3.59
183.95,13.01,9.44,13.02,9.45,-9.46,-9.38,-8.36,3.56,3.56,3.57
185.79,13.00,9.46,13.00,9.46,-9.47,-9.38,-8.40,3.54,3.53,3.55
187.65,12.99,9.47,12.99,9.47,-9.48,-9.38,-8.44,3.51,3.51,3.53
189.52,12.99,9.49,13.00,9.49,-9.50,-9.39,-8.50,3.49,3.49,3.51
191.42,13.00,9.52,13.01,9.52,-9.52,-9.39,-8.55,3.48,3.48,3.49
193.33,13.02,9.56,13.02,9.55,-9.54,-9.39,-8.62,3.48,3.47,3.47
195.27,13.03,9.58,13.03,9.58,-9.56,-9.39,-8.69,3.47,3.46,3.45
197.22,13.02,9.59,13.03,9.59,-9.58,-9.39,-8.76,3.45,3.45,3.43
199.19,13.01,9.60,13.01,9.60,-9.58,-9.39,-8.84,3.43,3.43,3.41
201.18,12.99,9.58,13.00,9.59,-9.58,-9.39,-8.92,3.41,3.41,3.41
203.19,12.97,9.58,12.97,9.58,-9.57,-9.39,-9.01,3.40,3.40,3.39
205.23,12.94,9.56,12.94,9.56,-9.56,-9.38,-9.10,3.39,3.38,3.39
207.28,12.90,9.53,12.91,9.54,-9.54,-9.38,-9.19,3.37,3.37,3.37
209.35,12.87,9.52,12.87,9.51,-9.51,-9.38,-9.29,3.36,3.36,3.36
211.44,12.83,9.48,12.84,9.49,-9.49,-9.37,-9.39,3.35,3.35,3.35
213.56,12.80,9.46,12.80,9.46,-9.47,-9.37,-9.49,3.34,3.33,3.34
215.69,12.76,9.44,12.76,9.44,-9.45,-9.36,-9.58,3.32,3.32,3.33
217.85,12.73,9.42,12.74,9.42,-9.43,-9.35,-9.68,3.30,3.31,3.31
220.03,12.72,9.41,12.72,9.41,-9.42,-9.34,-9.78,3.30,3.30,3.31
222.23,12.71,9.41,12.71,9.41,-9.41,-9.33,-9.87,3.30,3.30,3.30
224.45,12.69,9.41,12.70,9.41,-9.41,-9.33,-9.97,3.29,3.29,3.29
226.70,12.68,9.41,12.68,9.40,-9.40,-9.31,-10.05,3.28,3.28,3.28
228.96,12.66,9.39,12.67,9.40,-9.40,-9.30,-10.13,3.27,3.27,3.28
231.25,12.65,9.39,12.66,9.39,-9.39,-9.29,-10.21,3.27,3.27,3.27
233.57,12.64,9.39,12.64,9.38,-9.38,-9.28,-10.28,3.27,3.26,3.26
235.90,12.62,9.37,12.62,9.37,-9.36,-9.27,-10.33,3.26,3.26,3.26
238.26,12.59,9.35,12.59,9.35,-9.34,-9.25,-10.38,3.26,3.26,3.25
240.64,12.56,9.32,12.57,9.32,-9.31,-9.24,-10.42,3.25,3.25,3.25
243.05,12.53,9.29,12.53,9.29,-9.29,-9.22,-10.45,3.25,3.24,3.25
245.48,12.50,9.25,12.50,9.25,-9.26,-9.21,-10.46,3.24,3.24,3.25
247.93,12.46,9.22,12.47,9.22,-9.23,-9.19,-10.47,3.23,3.24,3.24
250.41,12.44,9.20,12.44,9.20,-9.20,-9.17,-10.45,3.24,3.24,3.24
252.92,12.41,9.17,12.42,9.17,-9.17,-9.16,-10.43,3.24,3.25,3.25
255.45,12.39,9.14,12.39,9.14,-9.14,-9.14,-10.39,3.25,3.25,3.25
258.00,12.36,9.12,12.36,9.12,-9.12,-9.12,-10.34,3.25,3.25,3.24
260.58,12.33,9.09,12.33,9.09,-9.09,-9.10,-10.28,3.24,3.24,3.25
263.19,12.30,9.06,12.30,9.06,-9.07,-9.08,-10.21,3.23,3.23,3.24
265.82,12.26,9.03,12.28,9.04,-9.05,-9.05,-10.13,3.22,3.23,3.23
268.48,12.25,9.02,12.25,9.02,-9.02,-9.03,-10.04,3.23,3.23,3.24
271.16,12.24,9.01,12.23,9.00,-9.00,-9.01,-9.93,3.25,3.24,3.23
273.87,12.20,8.98,12.21,8.98,-8.97,-8.98,-9.83,3.24,3.24,3.22
276.61,12.17,8.94,12.17,8.95,-8.94,-8.96,-9.71,3.24,3.24,3.23
279.38,12.13,8.91,12.14,8.91,-8.90,-8.93,-9.59,3.23,3.24,3.22
282.17,12.09,8.86,12.09,8.87,-8.86,-8.91,-9.47,3.23,3.23,3.23
284.99,12.05,8.83,12.04,8.82,-8.82,-8.88,-9.34,3.23,3.22,3.22
287.84,11.98,8.76,11.99,8.77,-8.79,-8.85,-9.21,3.20,3.21,3.22
290.72,11.94,8.73,11.95,8.73,-8.75,-8.82,-9.08,3.20,3.20,3.21
293.63,11.91,8.70,11.91,8.70,-8.71,-8.79,-8.95,3.20,3.20,3.21
296.57,11.88,8.68,11.88,8.67,-8.67,-8.76,-8.81,3.21,3.21,3.21
299.53,11.85,8.64,11.85,8.65,-8.64,-8.73,-8.68,3.22,3.22,3.21
302.53,11.82,8.62,11.82,8.61,-8.60,-8.70,-8.55,3.22,3.22,3.21
305.55,11.78,8.58,11.78,8.57,-8.56,-8.66,-8.43,3.22,3.22,3.20
308.61,11.73,8.52,11.73,8.53,-8.52,-8.63,-8.30,3.21,3.21,3.21
311.69,11.68,8.48,11.69,8.48,-8.48,-8.59,-8.18,3.20,3.20,3.21
314.81,11.64,8.43,11.64,8.43,-8.44,-8.55,-8.06,3.20,3.20,3.21
317.96,11.60,8.39,11.60,8.39,-8.39,-8.52,-7.95,3.21,3.21,3.21
321.14,11.56,8.35,11.56,8.35,-8.35,-8.48,-7.84,3.21,3.21,3.22
324.35,11.51,8.30,11.52,8.30,-8.30,-8.44,-7.74,3.21,3.21,3.21
327.59,11.47,8.26,11.47,8.26,-8.26,-8.39,-7.64,3.22,3.22,3.21
330.87,11.43,8.22,11.43,8.22,-8.21,-8.35,-7.54,3.22,3.22,3.22
334.18,11.39,8.17,11.39,8.17,-8.16,-8.31,-7.45,3.23,3.23,3.23
337.52,11.34,8.12,11.34,8.12,-8.12,-8.26,-7.37,3.23,3.23,3.22
340.90,11.29,8.06,11.29,8.07,-8.07,-8.22,-7.29,3.22,3.22,3.23
344.30,11.24,8.02,11.24,8.01,-8.02,-8.17,-7.21,3.22,3.22,3.23
347.75,11.19,7.97,11.19,7.97,-7.98,-8.12,-7.14,3.22,3.22,3.23
351.23,11.14,7.92,11.15,7.92,-7.93,-8.07,-7.08,3.22,3.22,3.22
354.74,11.11,7.88,11.11,7.88,-7.88,-8.02,-7.02,3.24,3.23,3.23
358.28,11.07,7.84,11.07,7.84,-7.83,-7.97,-6.97,3.25,3.24,3.23
361.87,11.01,7.79,11.01,7.78,-7.78,-7.91,-6.92,3.24,3.24,3.23
365.49,10.94,7.72,10.95,7.73,-7.72,-7.86,-6.88,3.22,3.23,3.22
369.14,10.88,7.66,10.89,7.66,-7.67,-7.80,-6.84,3.22,3.22,3.22
372.83,10.83,7.61,10.83,7.60,-7.61,-7.74,-6.80,3.22,3.22,3.22
376.56,10.76,7.53,10.77,7.54,-7.55,-7.68,-6.78,3.21,3.22,3.23
380.33,10.71,7.49,10.71,7.48,-7.49,-7.62,-6.75,3.23,3.22,3.23
384.13,10.65,7.43,10.65,7.43,-7.42,-7.56,-6.73,3.23,3.23,3.23
387.97,10.59,7.37,10.59,7.37,-7.36,-7.49,-6.72,3.23,3.23,3.22
391.85,10.53,7.30,10.53,7.30,-7.30,-7.43,-6.71,3.24,3.23,3.23
395.77,10.46,7.23,10.46,7.23,-7.23,-7.36,-6.70,3.23,3.23,3.23
399.73,10.39,7.15,10.40,7.16,-7.16,-7.29,-6.69,3.23,3.23,3.24
403.72,10.32,7.08,10.33,7.09,-7.09,-7.22,-6.69,3.23,3.24,3.24
407.76,10.27,7.03,10.27,7.02,-7.02,-7.15,-6.69,3.25,3.25,3.25
411.84,10.20,6.96,10.20,6.95,-6.95,-7.08,-6.70,3.25,3.25,3.25
415.96,10.13,6.88,10.13,6.88,-6.88,-7.00,-6.70,3.25,3.25,3.26
420.12,10.05,6.80,10.06,6.80,-6.81,-6.93,-6.71,3.24,3.25,3.25
424.32,9.98,6.73,9.99,6.74,-6.74,-6.85,-6.72,3.24,3.25,3.25
428.56,9.93,6.67,9.93,6.67,-6.67,-6.77,-6.73,3.26,3.26,3.26
432.85,9.87,6.61,9.86,6.60,-6.60,-6.69,-6.73,3.27,3.26,3.26
437.18,9.78,6.52,9.79,6.53,-6.53,-6.61,-6.74,3.25,3.26,3.26
441.55,9.71,6.45,9.72,6.46,-6.46,-6.53,-6.75,3.25,3.26,3.26
445.96,9.65,6.40,9.64,6.38,-6.39,-6.44,-6.75,3.26,3.25,3.26
450.42,9.56,6.31,9.57,6.32,-6.32,-6.36,-6.75,3.25,3.26,3.26
454.93,9.50,6.25,9.50,6.24,-6.24,-6.27,-6.75,3.26,3.26,3.26
459.48,9.42,6.17,9.42,6.17,-6.16,-6.18,-6.74,3.26,3.26,3.26
464.07,9.34,6.09,9.34,6.09,-6.09,-6.09,-6.73,3.26,3.26,3.25
468.71,9.26,6.01,9.26,6.01,-6.01,-6.00,-6.71,3.26,3.25,3.25
473.40,9.17,5.92,9.18,5.92,-5.93,-5.91,-6.68,3.25,3.25,3.25
478.13,9.10,5.84,9.10,5.84,-5.85,-5.82,-6.65,3.26,3.25,3.26
482.91,9.02,5.76,9.02,5.76,-5.76,-5.72,-6.61,3.26,3.25,3.26
487.74,8.93,5.67,8.94,5.68,-5.68,-5.63,-6.56,3.25,3.26,3.26
492.62,8.86,5.60,8.86,5.60,-5.60,-5.53,-6.51,3.27,3.26,3.26
