frequency,raw,error,smoothed,error_smoothed,equalization,parametric_eq,fixed_band_eq,equalized_raw,equalized_smoothed,target
20.00,-0.53,2.14,-0.53,2.13,-2.13,-2.14,-1.61,-2.66,-2.66,-2.67
20.20,-0.47,2.19,-0.47,2.19,-2.19,-2.17,-1.65,-2.66,-2.66,-2.66
20.40,-0.41,2.24,-0.41,2.24,-2.25,-2.21,-1.70,-2.66,-2.65,-2.65
20.61,-0.35,2.29,-0.35,2.29,-2.30,-2.25,-1.75,-2.65,-2.65,-2.65
20.81,-0.29,2.35,-0.29,2.35,-2.35,-2.29,-1.79,-2.64,-2.64,-2.64
21.02,-0.23,2.41,-0.24,2.40,-2.40,-2.33,-1.84,-2.63,-2.63,-2.64
21.23,-0.19,2.44,-0.19,2.44,-2.44,-2.37,-1.90,-2.63,-2.63,-2.63
21.44,-0.14,2.49,-0.14,2.49,-2.48,-2.41,-1.95,-2.62,-2.62,-2.63
21.66,-0.10,2.52,-0.10,2.52,-2.52,-2.45,-2.00,-2.62,-2.62,-2.63
21.87,-0.06,2.57,-0.06,2.56,-2.55,-2.49,-2.06,-2.61,-2.61,-2.63
22.09,-0.03,2.59,-0.03,2.59,-2.58,-2.53,-2.12,-2.61,-2.61,-2.62
22.31,-0.01,2.61,-0.01,2.61,-2.61,-2.57,-2.18,-2.62,-2.62,-2.62
22.54,-0.00,2.63,0.00,2.63,-2.63,-2.61,-2.24,-2.63,-2.63,-2.63
22.76,0.02,2.66,0.02,2.65,-2.66,-2.65,-2.30,-2.64,-2.64,-2.64
22.99,0.04,2.68,0.04,2.68,-2.68,-2.69,-2.36,-2.64,-2.64,-2.64
23.22,0.07,2.71,0.07,2.71,-2.71,-2.73,-2.43,-2.64,-2.64,-2.64
23.45,0.10,2.75,0.10,2.74,-2.74,-2.77,-2.49,-2.64,-2.65,-2.65
23.69,0.13,2.77,0.13,2.77,-2.78,-2.81,-2.56,-2.65,-2.65,-2.65
23.92,0.16,2.81,0.17,2.81,-2.83,-2.86,-2.63,-2.67,-2.66,-2.65
24.16,0.21,2.86,0.21,2.86,-2.87,-2.90,-2.70,-2.66,-2.66,-2.65
24.40,0.27,2.92,0.27,2.92,-2.92,-2.94,-2.77,-2.65,-2.65,-2.65
24.65,0.33,2.97,0.33,2.98,-2.96,-2.98,-2.84,-2.63,-2.63,-2.65
24.89,0.39,3.04,0.38,3.03,-3.00,-3.02,-2.92,-2.61,-2.62,-2.65
25.14,0.42,3.07,0.42,3.07,-3.04,-3.06,-2.99,-2.62,-2.62,-2.65
25.39,0.43,3.09,0.43,3.09,-3.08,-3.10,-3.07,-2.65,-2.65,-2.66
25.65,0.45,3.11,0.44,3.10,-3.12,-3.14,-3.14,-2.67,-2.67,-2.66
25.91,0.46,3.12,0.47,3.12,-3.15,-3.18,-3.21,-2.70,-2.69,-2.66
26.16,0.50,3.16,0.51,3.16,-3.19,-3.22,-3.29,-2.69,-2.68,-2.66
26.43,0.56,3.21,0.56,3.21,-3.22,-3.26,-3.36,-2.66,-2.66,-2.66
26.69,0.61,3.27,0.61,3.27,-3.24,-3.30,-3.44,-2.63,-2.63,-2.66
26.96,0.66,3.31,0.65,3.31,-3.27,-3.34,-3.51,-2.61,-2.62,-2.66
27.23,0.67,3.33,0.67,3.33,-3.30,-3.37,-3.58,-2.63,-2.63,-2.66
27.50,0.68,3.34,0.68,3.33,-3.33,-3.41,-3.65,-2.65,-2.66,-2.66
27.77,0.68,3.34,0.68,3.34,-3.36,-3.45,-3.72,-2.68,-2.68,-2.66
28.05,0.69,3.35,0.70,3.36,-3.39,-3.48,-3.78,-2.70,-2.69,-2.66
28.33,0.75,3.41,0.74,3.40,-3.42,-3.52,-3.85,-2.67,-2.68,-2.66
28.62,0.80,3.45,0.80,3.45,-3.45,-3.55,-3.91,-2.66,-2.65,-2.66
28.90,0.86,3.51,0.85,3.50,-3.49,-3.59,-3.96,-2.63,-2.64,-2.65
29.19,0.90,3.55,0.90,3.54,-3.53,-3.62,-4.02,-2.63,-2.63,-2.65
29.48,0.93,3.58,0.94,3.58,-3.56,-3.65,-4.07,-2.63,-2.63,-2.65
29.78,0.97,3.61,0.97,3.61,-3.60,-3.68,-4.11,-2.63,-2.63,-2.64
30.08,1.00,3.63,1.00,3.63,-3.63,-3.72,-4.15,-2.63,-2.64,-2.64
30.38,1.02,3.66,1.02,3.66,-3.66,-3.75,-4.19,-2.65,-2.64,-2.64
30.68,1.05,3.69,1.05,3.69,-3.70,-3.77,-4.22,-2.65,-2.65,-2.64
30.99,1.08,3.72,1.08,3.72,-3.73,-3.80,-4.25,-2.65,-2.65,-2.64
31.30,1.12,3.75,1.12,3.75,-3.76,-3.83,-4.27,-2.64,-2.64,-2.64
31.61,1.16,3.80,1.16,3.80,-3.80,-3.86,-4.29,-2.64,-2.64,-2.64
31.93,1.20,3.83,1.20,3.84,-3.83,-3.89,-4.30,-2.63,-2.63,-2.64
32.24,1.23,3.88,1.23,3.87,-3.85,-3.91,-4.31,-2.62,-2.62,-2.65
32.57,1.25,3.90,1.25,3.90,-3.88,-3.94,-4.31,-2.63,-2.63,-2.65
32.89,1.27,3.92,1.27,3.92,-3.90,-3.96,-4.31,-2.63,-2.64,-2.65
33.22,1.28,3.94,1.27,3.93,-3.93,-3.98,-4.31,-2.65,-2.66,-2.66
33.55,1.28,3.94,1.28,3.94,-3.96,-4.01,-4.30,-2.68,-2.68,-2.66
33.89,1.28,3.95,1.29,3.96,-3.99,-4.03,-4.29,-2.71,-2.70,-2.67
34.23,1.33,4.00,1.33,4.00,-4.02,-4.05,-4.27,-2.69,-2.69,-2.67
34.57,1.39,4.06,1.39,4.06,-4.05,-4.07,-4.26,-2.66,-2.66,-2.67
34.92,1.46,4.12,1.44,4.11,-4.08,-4.09,-4.24,-2.62,-2.63,-2.67
35.27,1.48,4.15,1.47,4.14,-4.10,-4.11,-4.22,-2.62,-2.62,-2.67
35.62,1.48,4.15,1.48,4.15,-4.12,-4.13,-4.19,-2.64,-2.64,-2.67
35.97,1.48,4.15,1.48,4.15,-4.15,-4.15,-4.17,-2.67,-2.67,-2.67
36.33,1.48,4.15,1.47,4.14,-4.17,-4.17,-4.14,-2.69,-2.70,-2.67
36.70,1.48,4.15,1.48,4.15,-4.19,-4.19,-4.12,-2.71,-2.71,-2.67
37.06,1.49,4.16,1.51,4.18,-4.21,-4.21,-4.10,-2.72,-2.70,-2.67
37.43,1.57,4.24,1.57,4.23,-4.23,-4.23,-4.07,-2.66,-2.67,-2.67
37.81,1.64,4.30,1.63,4.29,-4.25,-4.25,-4.05,-2.61,-2.63,-2.66
38.19,1.68,4.34,1.67,4.33,-4.28,-4.26,-4.02,-2.60,-2.60,-2.66
38.57,1.68,4.34,1.68,4.34,-4.30,-4.28,-4.00,-2.62,-2.62,-2.66
38.95,1.68,4.33,1.68,4.33,-4.33,-4.30,-3.98,-2.65,-2.65,-2.65
39.34,1.68,4.33,1.67,4.32,-4.36,-4.32,-3.97,-2.68,-2.68,-2.65
39.74,1.68,4.33,1.69,4.33,-4.38,-4.33,-3.95,-2.70,-2.70,-2.65
40.14,1.71,4.36,1.73,4.37,-4.41,-4.35,-3.93,-2.70,-2.68,-2.65
40.54,1.79,4.43,1.79,4.43,-4.43,-4.37,-3.92,-2.65,-2.65,-2.65
40.94,1.87,4.52,1.84,4.49,-4.46,-4.39,-3.91,-2.59,-2.62,-2.65
41.35,1.88,4.53,1.88,4.53,-4.49,-4.41,-3.91,-2.61,-2.61,-2.65
41.76,1.88,4.54,1.89,4.54,-4.51,-4.42,-3.90,-2.63,-2.63,-2.66
42.18,1.88,4.54,1.88,4.54,-4.53,-4.44,-3.90,-2.65,-2.65,-2.66
42.60,1.88,4.54,1.88,4.54,-4.54,-4.46,-3.90,-2.66,-2.66,-2.66
43.03,1.88,4.54,1.88,4.54,-4.54,-4.48,-3.91,-2.66,-2.66,-2.66
43.46,1.88,4.54,1.88,4.54,-4.54,-4.50,-3.91,-2.66,-2.66,-2.66
43.90,1.88,4.55,1.87,4.54,-4.55,-4.52,-3.92,-2.67,-2.68,-2.67
44.33,1.88,4.55,1.87,4.54,-4.57,-4.54,-3.94,-2.69,-2.70,-2.67
44.78,1.88,4.55,1.89,4.56,-4.60,-4.55,-3.95,-2.72,-2.70,-2.67
45.23,1.93,4.59,1.95,4.61,-4.63,-4.57,-3.97,-2.70,-2.68,-2.67
45.68,2.02,4.68,2.01,4.67,-4.65,-4.59,-3.99,-2.64,-2.65,-2.67
46.13,2.08,4.74,2.06,4.72,-4.68,-4.61,-4.02,-2.60,-2.62,-2.66
46.60,2.08,4.74,2.09,4.74,-4.70,-4.63,-4.05,-2.62,-2.62,-2.66
47.06,2.08,4.73,2.09,4.73,-4.72,-4.65,-4.08,-2.64,-2.63,-2.65
47.53,2.08,4.72,2.08,4.72,-4.72,-4.67,-4.11,-2.64,-2.64,-2.64
48.01,2.08,4.71,2.08,4.71,-4.71,-4.69,-4.15,-2.63,-2.63,-2.63
48.49,2.08,4.70,2.08,4.70,-4.70,-4.71,-4.18,-2.62,-2.62,-2.62
48.97,2.08,4.69,2.08,4.68,-4.68,-4.73,-4.22,-2.60,-2.60,-2.61
49.46,2.08,4.68,2.08,4.67,-4.67,-4.75,-4.27,-2.59,-2.59,-2.60
49.96,2.08,4.66,2.07,4.65,-4.67,-4.77,-4.31,-2.59,-2.59,-2.58
50.46,2.08,4.65,2.08,4.64,-4.66,-4.79,-4.36,-2.58,-2.59,-2.57
50.96,2.08,4.63,2.10,4.65,-4.66,-4.80,-4.41,-2.58,-2.56,-2.55
51.47,2.13,4.67,2.13,4.67,-4.66,-4.82,-4.46,-2.53,-2.53,-2.54
51.99,2.18,4.71,2.16,4.69,-4.67,-4.84,-4.51,-2.49,-2.51,-2.53
52.51,2.18,4.70,2.18,4.70,-4.67,-4.86,-4.56,-2.49,-2.49,-2.52
53.03,2.18,4.69,2.18,4.69,-4.68,-4.87,-4.61,-2.50,-2.50,-2.51
53.56,2.18,4.68,2.18,4.67,-4.69,-4.89,-4.66,-2.51,-2.51,-2.50
54.10,2.19,4.67,2.20,4.68,-4.70,-4.90,-4.71,-2.52,-2.50,-2.48
54.64,2.24,4.71,2.24,4.70,-4.71,-4.91,-4.76,-2.47,-2.48,-2.47
55.18,2.28,4.74,2.26,4.72,-4.72,-4.92,-4.81,-2.44,-2.45,-2.46
55.74,2.28,4.74,2.28,4.73,-4.72,-4.93,-4.86,-2.44,-2.44,-2.46
56.29,2.28,4.73,2.28,4.73,-4.72,-4.94,-4.90,-2.44,-2.43,-2.45
56.86,2.28,4.72,2.28,4.72,-4.71,-4.95,-4.95,-2.43,-2.42,-2.44
57.42,2.28,4.72,2.28,4.71,-4.70,-4.96,-4.99,-2.42,-2.42,-2.44
58.00,2.27,4.71,2.25,4.69,-4.68,-4.96,-5.02,-2.41,-2.43,-2.44
58.58,2.22,4.66,2.22,4.66,-4.66,-4.97,-5.05,-2.44,-2.44,-2.44
59.16,2.18,4.62,2.19,4.63,-4.65,-4.97,-5.08,-2.47,-2.45,-2.44
59.76,2.18,4.62,2.18,4.62,-4.64,-4.97,-5.11,-2.46,-2.46,-2.44
60.35,2.18,4.63,2.18,4.62,-4.64,-4.97,-5.12,-2.46,-2.46,-2.45
60.96,2.18,4.64,2.18,4.63,-4.64,-4.96,-5.14,-2.46,-2.46,-2.46
61.57,2.18,4.65,2.18,4.65,-4.65,-4.96,-5.15,-2.47,-2.47,-2.47
62.18,2.18,4.67,2.18,4.67,-4.66,-4.95,-5.15,-2.48,-2.48,-2.49
62.80,2.18,4.69,2.18,4.69,-4.68,-4.95,-5.14,-2.50,-2.50,-2.51
63.43,2.18,4.72,2.17,4.71,-4.70,-4.94,-5.14,-2.52,-2.52,-2.54
64.07,2.16,4.72,2.15,4.71,-4.71,-4.93,-5.12,-2.55,-2.56,-2.56
64.71,2.11,4.70,2.12,4.70,-4.71,-4.91,-5.10,-2.60,-2.59,-2.59
65.35,2.08,4.69,2.09,4.70,-4.71,-4.90,-5.08,-2.63,-2.62,-2.61
66.01,2.08,4.71,2.07,4.70,-4.69,-4.88,-5.05,-2.61,-2.62,-2.63
66.67,2.05,4.70,2.05,4.69,-4.66,-4.87,-5.02,-2.61,-2.61,-2.65
67.33,2.00,4.66,2.00,4.66,-4.61,-4.85,-4.98,-2.62,-2.61,-2.66
68.01,1.94,4.62,1.93,4.60,-4.57,-4.83,-4.94,-2.63,-2.64,-2.68
68.69,1.84,4.53,1.84,4.52,-4.52,-4.81,-4.89,-2.68,-2.69,-2.69
69.37,1.75,4.44,1.76,4.45,-4.49,-4.79,-4.84,-2.74,-2.73,-2.70
70.07,1.68,4.39,1.70,4.40,-4.46,-4.77,-4.79,-2.78,-2.76,-2.71
70.77,1.68,4.40,1.67,4.38,-4.44,-4.75,-4.74,-2.76,-2.77,-2.72
71.48,1.68,4.40,1.68,4.40,-4.42,-4.74,-4.68,-2.74,-2.74,-2.72
72.19,1.69,4.42,1.71,4.43,-4.42,-4.72,-4.63,-2.73,-2.71,-2.73
72.91,1.74,4.48,1.74,4.47,-4.42,-4.70,-4.57,-2.68,-2.69,-2.74
73.64,1.77,4.52,1.75,4.50,-4.45,-4.68,-4.51,-2.68,-2.69,-2.75
74.38,1.75,4.51,1.74,4.49,-4.48,-4.67,-4.45,-2.73,-2.74,-2.76
75.12,1.70,4.47,1.71,4.48,-4.51,-4.66,-4.40,-2.81,-2.80,-2.77
75.87,1.68,4.47,1.70,4.49,-4.54,-4.65,-4.34,-2.86,-2.83,-2.79
76.63,1.74,4.54,1.75,4.54,-4.57,-4.65,-4.28,-2.83,-2.82,-2.80
77.40,1.82,4.64,1.81,4.62,-4.61,-4.65,-4.23,-2.79,-2.80,-2.82
78.17,1.88,4.71,1.86,4.69,-4.66,-4.66,-4.18,-2.78,-2.80,-2.83
78.95,1.88,4.73,1.88,4.72,-4.71,-4.67,-4.12,-2.83,-2.84,-2.85
79.74,1.88,4.74,1.88,4.74,-4.78,-4.69,-4.07,-2.90,-2.90,-2.86
80.54,1.89,4.77,1.92,4.79,-4.83,-4.72,-4.03,-2.94,-2.92,-2.88
81.35,1.96,4.85,1.98,4.87,-4.87,-4.76,-3.98,-2.91,-2.89,-2.89
82.16,2.08,4.98,2.04,4.93,-4.90,-4.80,-3.94,-2.82,-2.86,-2.90
82.98,2.08,4.99,2.06,4.96,-4.90,-4.84,-3.90,-2.83,-2.85,-2.91
83.81,2.00,4.92,2.03,4.95,-4.90,-4.87,-3.86,-2.90,-2.87,-2.92
84.65,1.97,4.89,1.97,4.89,-4.89,-4.88,-3.82,-2.92,-2.92,-2.92
85.50,1.92,4.85,1.90,4.83,-4.86,-4.86,-3.79,-2.94,-2.96,-2.93
86.35,1.84,4.78,1.84,4.78,-4.82,-4.81,-3.76,-2.98,-2.97,-2.94
87.22,1.77,4.72,1.78,4.73,-4.76,-4.71,-3.73,-2.99,-2.98,-2.95
88.09,1.72,4.68,1.72,4.68,-4.70,-4.57,-3.71,-2.98,-2.97,-2.96
88.97,1.67,4.63,1.66,4.62,-4.62,-4.39,-3.68,-2.95,-2.96,-2.96
89.86,1.58,4.55,1.57,4.54,-4.53,-4.18,-3.66,-2.95,-2.95,-2.97
90.76,1.46,4.44,1.46,4.43,-4.41,-3.95,-3.65,-2.95,-2.96,-2.98
91.66,1.30,4.27,1.31,4.29,-4.27,-3.70,-3.63,-2.97,-2.95,-2.98
92.58,1.14,4.12,1.15,4.13,-4.09,-3.45,-3.62,-2.95,-2.94,-2.98
93.51,0.96,3.95,0.93,3.91,-3.87,-3.19,-3.62,-2.91,-2.94,-2.99
94.44,0.69,3.67,0.68,3.67,-3.63,-2.92,-3.61,-2.94,-2.95,-2.99
95.39,0.37,3.36,0.40,3.38,-3.37,-2.66,-3.61,-3.00,-2.97,-2.99
96.34,0.10,3.09,0.08,3.07,-3.09,-2.40,-3.61,-2.99,-3.01,-2.99
97.30,-0.21,2.77,-0.22,2.77,-2.80,-2.16,-3.61,-3.01,-3.01,-2.99
98.28,-0.52,2.48,-0.48,2.51,-2.51,-1.93,-3.61,-3.03,-2.99,-3.00
99.26,-0.72,2.28,-0.74,2.25,-2.23,-1.75,-3.62,-2.96,-2.98,-3.00
100.25,-0.95,2.04,-0.98,2.01,-1.99,-1.61,-3.63,-2.94,-2.97,-3.00
101.25,-1.22,1.77,-1.20,1.80,-1.79,-1.54,-3.64,-3.01,-2.99,-3.00
102.27,-1.41,1.60,-1.40,1.61,-1.65,-1.53,-3.65,-3.06,-3.05,-3.01
103.29,-1.51,1.51,-1.52,1.49,-1.57,-1.58,-3.66,-3.08,-3.10,-3.02
104.32,-1.57,1.46,-1.56,1.46,-1.56,-1.69,-3.68,-3.13,-3.11,-3.03
105.37,-1.52,1.51,-1.51,1.52,-1.60,-1.82,-3.69,-3.12,-3.11,-3.03
106.42,-1.38,1.66,-1.38,1.66,-1.70,-1.98,-3.71,-3.08,-3.08,-3.04
107.48,-1.19,1.86,-1.18,1.87,-1.84,-2.15,-3.73,-3.03,-3.02,-3.05
108.56,-0.95,2.11,-0.98,2.08,-2.02,-2.32,-3.74,-2.97,-3.00,-3.06
109.64,-0.77,2.30,-0.78,2.28,-2.21,-2.49,-3.76,-2.98,-3.00,-3.07
110.74,-0.63,2.44,-0.60,2.46,-2.41,-2.64,-3.78,-3.05,-3.02,-3.07
111.85,-0.43,2.64,-0.44,2.63,-2.61,-2.79,-3.80,-3.04,-3.05,-3.07
112.97,-0.26,2.80,-0.27,2.79,-2.80,-2.93,-3.81,-3.06,-3.07,-3.07
114.10,-0.11,2.95,-0.11,2.96,-2.97,-3.06,-3.83,-3.08,-3.08,-3.07
115.24,0.05,3.10,0.05,3.11,-3.13,-3.19,-3.84,-3.08,-3.08,-3.06
116.39,0.22,3.28,0.23,3.28,-3.29,-3.32,-3.85,-3.07,-3.06,-3.06
117.55,0.40,3.44,0.40,3.44,-3.44,-3.44,-3.87,-3.04,-3.04,-3.04
118.73,0.57,3.60,0.56,3.59,-3.57,-3.56,-3.87,-3.01,-3.01,-3.03
119.92,0.70,3.71,0.70,3.71,-3.70,-3.67,-3.88,-3.00,-3.00,-3.01
121.12,0.84,3.82,0.83,3.82,-3.81,-3.79,-3.89,-2.97,-2.98,-2.99
122.33,0.94,3.91,0.95,3.92,-3.91,-3.90,-3.89,-2.97,-2.95,-2.97
123.55,1.06,4.01,1.05,3.99,-3.98,-4.00,-3.89,-2.92,-2.94,-2.95
124.79,1.14,4.07,1.12,4.04,-4.04,-4.10,-3.89,-2.90,-2.92,-2.93
126.03,1.15,4.06,1.18,4.09,-4.08,-4.18,-3.88,-2.93,-2.90,-2.91
127.29,1.22,4.11,1.22,4.10,-4.10,-4.24,-3.87,-2.88,-2.88,-2.89
128.57,1.27,4.14,1.25,4.12,-4.12,-4.29,-3.86,-2.85,-2.87,-2.87
129.85,1.27,4.12,1.28,4.12,-4.12,-4.32,-3.85,-2.85,-2.84,-2.85
131.15,1.28,4.11,1.28,4.11,-4.11,-4.33,-3.83,-2.83,-2.83,-2.83
132.46,1.28,4.10,1.28,4.09,-4.10,-4.32,-3.82,-2.82,-2.82,-2.82
133.79,1.29,4.09,1.29,4.09,-4.08,-4.31,-3.80,-2.79,-2.80,-2.80
135.12,1.29,4.08,1.29,4.08,-4.07,-4.28,-3.77,-2.78,-2.78,-2.79
136.48,1.30,4.07,1.30,4.06,-4.06,-4.25,-3.75,-2.76,-2.77,-2.77
137.84,1.30,4.06,1.29,4.05,-4.06,-4.22,-3.73,-2.76,-2.77,-2.76
139.22,1.30,4.05,1.31,4.05,-4.07,-4.20,-3.70,-2.77,-2.76,-2.75
140.61,1.31,4.05,1.33,4.06,-4.09,-4.17,-3.67,-2.78,-2.76,-2.74
142.02,1.39,4.12,1.37,4.09,-4.11,-4.15,-3.65,-2.72,-2.74,-2.73
143.44,1.40,4.13,1.41,4.14,-4.13,-4.13,-3.62,-2.73,-2.72,-2.73
144.87,1.46,4.19,1.46,4.18,-4.16,-4.12,-3.59,-2.70,-2.71,-2.73
146.32,1.49,4.22,1.48,4.21,-4.20,-4.12,-3.57,-2.71,-2.72,-2.73
147.78,1.50,4.24,1.50,4.23,-4.24,-4.12,-3.54,-2.74,-2.74,-2.74
149.26,1.50,4.25,1.50,4.25,-4.27,-4.12,-3.51,-2.77,-2.77,-2.75
150.75,1.50,4.27,1.51,4.27,-4.29,-4.13,-3.49,-2.79,-2.78,-2.77
152.26,1.50,4.30,1.50,4.29,-4.29,-4.14,-3.46,-2.79,-2.79,-2.80
153.78,1.49,4.32,1.48,4.31,-4.28,-4.15,-3.44,-2.79,-2.80,-2.83
155.32,1.43,4.30,1.44,4.30,-4.24,-4.17,-3.42,-2.81,-2.80,-2.87
156.88,1.36,4.26,1.35,4.25,-4.19,-4.18,-3.40,-2.83,-2.83,-2.90
158.44,1.26,4.20,1.24,4.17,-4.13,-4.20,-3.38,-2.87,-2.89,-2.94
160.03,1.10,4.07,1.11,4.08,-4.08,-4.23,-3.36,-2.98,-2.97,-2.97
161.63,0.99,3.98,0.99,3.99,-4.04,-4.25,-3.35,-3.05,-3.05,-2.99
163.24,0.92,3.94,0.91,3.92,-4.03,-4.27,-3.34,-3.11,-3.11,-3.02
164.88,0.89,3.92,0.90,3.93,-4.03,-4.29,-3.33,-3.14,-3.13,-3.03
166.53,0.94,3.98,0.97,4.00,-4.06,-4.32,-3.32,-3.12,-3.09,-3.04
168.19,1.07,4.11,1.07,4.10,-4.10,-4.34,-3.31,-3.03,-3.03,-3.04
169.87,1.23,4.26,1.19,4.21,-4.16,-4.36,-3.31,-2.93,-2.97,-3.03
171.57,1.26,4.28,1.28,4.29,-4.21,-4.39,-3.31,-2.96,-2.94,-3.02
173.29,1.33,4.33,1.33,4.32,-4.26,-4.41,-3.31,-2.93,-2.93,-3.00
175.02,1.36,4.33,1.35,4.32,-4.29,-4.43,-3.31,-2.93,-2.94,-2.97
176.77,1.36,4.30,1.36,4.30,-4.30,-4.45,-3.32,-2.94,-2.93,-2.94
178.54,1.36,4.27,1.36,4.27,-4.28,-4.46,-3.33,-2.92,-2.92,-2.91
180.32,1.36,4.23,1.37,4.24,-4.25,-4.48,-3.34,-2.89,-2.88,-2.87
182.13,1.37,4.21,1.37,4.20,-4.21,-4.49,-3.36,-2.84,-2.84,-2.84
183.95,1.38,4.18,1.36,4.16,-4.16,-4.50,-3.37,-2.78,-2.81,-2.80
185.79,1.33,4.11,1.34,4.11,-4.12,-4.51,-3.39,-2.79,-2.78,-2.78
187.65,1.30,4.06,1.32,4.08,-4.08,-4.52,-3.41,-2.78,-2.76,-2.76
189.52,1.32,4.06,1.31,4.04,-4.04,-4.52,-3.44,-2.72,-2.74,-2.74
191.42,1.31,4.04,1.29,4.02,-4.01,-4.52,-3.46,-2.70,-2.72,-2.73
193.33,1.27,3.98,1.28,3.99,-3.99,-4.52,-3.49,-2.72,-2.71,-2.71
195.27,1.26,3.96,1.27,3.97,-3.98,-4.51,-3.52,-2.72,-2.71,-2.70
197.22,1.27,3.97,1.27,3.96,-3.97,-4.51,-3.55,-2.70,-2.71,-2.70
199.19,1.29,3.98,1.28,3.96,-3.98,-4.49,-3.59,-2.69,-2.70,-2.69
201.18,1.29,3.98,1.29,3.98,-3.99,-4.48,-3.62,-2.70,-2.70,-2.69
203.19,1.30,3.99,1.32,4.00,-4.01,-4.46,-3.66,-2.71,-2.69,-2.69
205.23,1.36,4.05,1.35,4.04,-4.02,-4.44,-3.69,-2.66,-2.67,-2.69
207.28,1.40,4.09,1.39,4.07,-4.04,-4.42,-3.73,-2.65,-2.66,-2.69
209.35,1.40,4.09,1.40,4.09,-4.07,-4.39,-3.77,-2.67,-2.67,-2.69
211.44,1.40,4.10,1.39,4.09,-4.09,-4.36,-3.81,-2.69,-2.70,-2.70
213.56,1.39,4.09,1.39,4.09,-4.12,-4.33,-3.84,-2.73,-2.72,-2.70
215.69,1.39,4.10,1.41,4.11,-4.14,-4.30,-3.88,-2.75,-2.73,-2.71
217.85,1.45,4.16,1.44,4.14,-4.16,-4.26,-3.92,-2.71,-2.72,-2.71
220.03,1.47,4.19,1.46,4.18,-4.17,-4.22,-3.95,-2.70,-2.70,-2.72
222.23,1.48,4.20,1.48,4.20,-4.17,-4.18,-3.99,-2.69,-2.69,-2.72
224.45,1.48,4.20,1.49,4.21,-4.18,-4.13,-4.02,-2.70,-2.69,-2.72
226.70,1.48,4.20,1.48,4.19,-4.18,-4.09,-4.05,-2.70,-2.70,-2.72
228.96,1.48,4.20,1.46,4.17,-4.17,-4.04,-4.08,-2.69,-2.71,-2.72
231.25,1.41,4.12,1.44,4.15,-4.16,-3.99,-4.10,-2.75,-2.72,-2.71
233.57,1.43,4.14,1.42,4.12,-4.14,-3.94,-4.12,-2.71,-2.72,-2.71
235.90,1.41,4.11,1.42,4.11,-4.12,-3.89,-4.14,-2.71,-2.70,-2.70
238.26,1.43,4.12,1.43,4.12,-4.10,-3.84,-4.15,-2.67,-2.66,-2.69
240.64,1.45,4.12,1.42,4.09,-4.08,-3.78,-4.16,-2.63,-2.66,-2.67
243.05,1.41,4.07,1.41,4.07,-4.07,-3.73,-4.16,-2.66,-2.66,-2.66
245.48,1.38,4.03,1.40,4.04,-4.07,-3.67,-4.16,-2.69,-2.67,-2.65
247.93,1.40,4.04,1.40,4.03,-4.07,-3.61,-4.15,-2.67,-2.67,-2.64
250.41,1.42,4.05,1.42,4.04,-4.07,-3.56,-4.14,-2.65,-2.65,-2.63
252.92,1.44,4.06,1.43,4.05,-4.07,-3.50,-4.12,-2.63,-2.63,-2.62
255.45,1.45,4.07,1.46,4.07,-4.06,-3.44,-4.10,-2.61,-2.60,-2.62
258.00,1.46,4.08,1.48,4.09,-4.05,-3.39,-4.08,-2.59,-2.58,-2.62
260.58,1.49,4.11,1.45,4.07,-4.03,-3.33,-4.04,-2.55,-2.58,-2.62
263.19,1.42,4.04,1.40,4.01,-4.00,-3.27,-4.01,-2.58,-2.60,-2.62
265.82,1.27,3.89,1.32,3.94,-3.94,-3.22,-3.97,-2.68,-2.62,-2.62
268.48,1.25,3.87,1.25,3.87,-3.87,-3.16,-3.92,-2.62,-2.62,-2.62
271.16,1.20,3.82,1.18,3.80,-3.79,-3.11,-3.87,-2.59,-2.61,-2.62
273.87,1.12,3.74,1.08,3.70,-3.69,-3.05,-3.82,-2.57,-2.61,-2.62
276.61,0.94,3.56,0.96,3.57,-3.58,-3.00,-3.77,-2.64,-2.63,-2.62
279.38,0.79,3.41,0.84,3.45,-3.46,-2.95,-3.71,-2.67,-2.63,-2.62
282.17,0.75,3.36,0.73,3.34,-3.33,-2.89,-3.65,-2.59,-2.60,-2.61
284.99,0.66,3.26,0.64,3.24,-3.20,-2.84,-3.58,-2.54,-2.57,-2.60
287.84,0.53,3.13,0.51,3.11,-3.08,-2.79,-3.52,-2.55,-2.56,-2.60
290.72,0.35,2.94,0.36,2.95,-2.96,-2.74,-3.45,-2.61,-2.59,-2.59
293.63,0.21,2.79,0.22,2.80,-2.85,-2.69,-3.38,-2.64,-2.62,-2.58
296.57,0.12,2.69,0.12,2.69,-2.75,-2.64,-3.32,-2.63,-2.63,-2.57
299.53,0.05,2.62,0.05,2.61,-2.65,-2.60,-3.25,-2.60,-2.60,-2.57
302.53,-0.00,2.56,0.01,2.56,-2.56,-2.55,-3.18,-2.56,-2.56,-2.56
305.55,-0.04,2.52,-0.04,2.51,-2.48,-2.50,-3.11,-2.52,-2.52,-2.56
308.61,-0.09,2.47,-0.12,2.44,-2.40,-2.46,-3.04,-2.49,-2.51,-2.56
311.69,-0.21,2.35,-0.21,2.35,-2.32,-2.42,-2.97,-2.53,-2.53,-2.56
314.81,-0.34,2.23,-0.31,2.25,-2.23,-2.37,-2.90,-2.57,-2.55,-2.57
317.96,-0.42,2.15,-0.42,2.15,-2.14,-2.33,-2.83,-2.56,-2.56,-2.57
321.14,-0.50,2.08,-0.52,2.05,-2.05,-2.29,-2.77,-2.55,-2.58,-2.58
324.35,-0.63,1.95,-0.63,1.95,-1.96,-2.25,-2.70,-2.60,-2.59,-2.58
327.59,-0.74,1.85,-0.73,1.85,-1.89,-2.22,-2.64,-2.63,-2.62,-2.59
330.87,-0.81,1.79,-0.81,1.79,-1.82,-2.18,-2.58,-2.63,-2.63,-2.60
334.18,-0.87,1.74,-0.86,1.75,-1.77,-2.14,-2.51,-2.64,-2.62,-2.61
337.52,-0.87,1.75,-0.89,1.72,-1.72,-2.11,-2.46,-2.59,-2.61,-2.62
340.90,-0.93,1.69,-0.93,1.69,-1.67,-2.08,-2.40,-2.60,-2.60,-2.62
344.30,-0.97,1.66,-0.97,1.66,-1.63,-2.04,-2.34,-2.60,-2.60,-2.63
347.75,-1.02,1.63,-1.02,1.62,-1.59,-2.01,-2.28,-2.61,-2.61,-2.65
351.23,-1.08,1.58,-1.09,1.57,-1.54,-1.98,-2.23,-2.62,-2.63,-2.66
354.74,-1.16,1.51,-1.16,1.50,-1.50,-1.95,-2.18,-2.66,-2.66,-2.67
358.28,-1.24,1.44,-1.23,1.44,-1.46,-1.92,-2.13,-2.70,-2.69,-2.68
361.87,-1.29,1.40,-1.30,1.39,-1.43,-1.90,-2.08,-2.72,-2.72,-2.69
365.49,-1.33,1.38,-1.32,1.38,-1.41,-1.87,-2.03,-2.74,-2.73,-2.71
369.14,-1.34,1.38,-1.33,1.39,-1.40,-1.84,-1.99,-2.74,-2.73,-2.72
372.83,-1.30,1.43,-1.33,1.40,-1.41,-1.82,-1.94,-2.71,-2.74,-2.73
376.56,-1.31,1.43,-1.31,1.43,-1.43,-1.80,-1.90,-2.75,-2.74,-2.74
380.33,-1.31,1.44,-1.28,1.47,-1.46,-1.77,-1.86,-2.78,-2.74,-2.75
384.13,-1.22,1.54,-1.24,1.51,-1.50,-1.75,-1.82,-2.72,-2.74,-2.76
387.97,-1.20,1.57,-1.21,1.55,-1.53,-1.73,-1.78,-2.73,-2.74,-2.77
391.85,-1.20,1.58,-1.19,1.58,-1.56,-1.71,-1.75,-2.76,-2.75,-2.78
395.77,-1.20,1.59,-1.20,1.59,-1.58,-1.69,-1.71,-2.78,-2.78,-2.79
399.73,-1.20,1.60,-1.20,1.60,-1.61,-1.68,-1.68,-2.81,-2.81,-2.80
403.72,-1.20,1.61,-1.20,1.61,-1.63,-1.66,-1.65,-2.83,-2.83,-2.81
407.76,-1.20,1.63,-1.20,1.62,-1.64,-1.64,-1.62,-2.84,-2.84,-2.83
411.84,-1.20,1.64,-1.20,1.63,-1.65,-1.63,-1.59,-2.85,-2.85,-2.84
415.96,-1.21,1.64,-1.20,1.64,-1.64,-1.61,-1.56,-2.85,-2.84,-2.85
420.12,-1.20,1.65,-1.20,1.65,-1.62,-1.60,-1.54,-2.82,-2.82,-2.85
424.32,-1.20,1.66,-1.21,1.65,-1.59,-1.59,-1.51,-2.79,-2.80,-2.86
428.56,-1.23,1.63,-1.25,1.61,-1.56,-1.57,-1.49,-2.79,-2.80,-2.86
432.85,-1.31,1.54,-1.32,1.53,-1.52,-1.56,-1.47,-2.83,-2.84,-2.85
437.18,-1.42,1.42,-1.40,1.43,-1.47,-1.55,-1.45,-2.89,-2.87,-2.84
441.55,-1.47,1.35,-1.46,1.36,-1.42,-1.54,-1.43,-2.89,-2.87,-2.82
445.96,-1.47,1.33,-1.46,1.33,-1.37,-1.53,-1.41,-2.84,-2.83,-2.80
450.42,-1.42,1.35,-1.43,1.33,-1.32,-1.52,-1.39,-2.74,-2.76,-2.77
454.93,-1.40,1.33,-1.41,1.32,-1.29,-1.52,-1.38,-2.69,-2.70,-2.73
