frequency,raw,error,smoothed,error_smoothed,equalization,parametric_eq,fixed_band_eq,equalized_raw,equalized_smoothed,target
20.00,4.70,5.62,4.70,5.62,-5.58,-5.26,-2.96,-0.88,-0.88,-0.92
20.20,4.74,5.65,4.74,5.64,-5.64,-5.31,-3.05,-0.90,-0.90,-0.91
20.40,4.78,5.68,4.78,5.68,-5.69,-5.36,-3.14,-0.91,-0.91,-0.90
20.61,4.82,5.71,4.82,5.71,-5.73,-5.41,-3.23,-0.92,-0.92,-0.90
20.81,4.86,5.75,4.86,5.75,-5.78,-5.46,-3.32,-0.92,-0.92,-0.89
21.02,4.90,5.79,4.90,5.79,-5.82,-5.51,-3.41,-0.92,-0.91,-0.89
21.23,4.96,5.84,4.95,5.83,-5.85,-5.56,-3.51,-0.89,-0.90,-0.88
21.44,5.01,5.89,5.01,5.89,-5.89,-5.61,-3.61,-0.88,-0.88,-0.88
21.66,5.06,5.93,5.06,5.94,-5.92,-5.66,-3.71,-0.86,-0.86,-0.88
21.87,5.11,5.99,5.10,5.98,-5.95,-5.71,-3.82,-0.84,-0.84,-0.88
22.09,5.14,6.01,5.13,6.00,-5.97,-5.75,-3.93,-0.83,-0.84,-0.87
22.31,5.13,6.00,5.13,6.00,-5.99,-5.80,-4.04,-0.86,-0.85,-0.87
22.54,5.12,6.00,5.12,6.00,-6.01,-5.85,-4.16,-0.89,-0.89,-0.88
22.76,5.12,6.01,5.11,5.99,-6.03,-5.89,-4.27,-0.91,-0.91,-0.89
22.99,5.11,6.00,5.13,6.01,-6.05,-5.94,-4.40,-0.94,-0.92,-0.89
23.22,5.16,6.05,5.16,6.05,-6.07,-5.99,-4.52,-0.92,-0.92,-0.89
23.45,5.21,6.11,5.20,6.10,-6.10,-6.03,-4.65,-0.89,-0.90,-0.90
23.69,5.26,6.15,5.26,6.16,-6.13,-6.07,-4.77,-0.88,-0.87,-0.90
23.92,5.31,6.21,5.30,6.20,-6.17,-6.12,-4.91,-0.86,-0.87,-0.90
24.16,5.34,6.24,5.33,6.23,-6.20,-6.16,-5.04,-0.87,-0.87,-0.90
24.40,5.35,6.25,5.35,6.25,-6.24,-6.20,-5.18,-0.89,-0.89,-0.90
24.65,5.37,6.27,5.36,6.26,-6.28,-6.24,-5.32,-0.91,-0.92,-0.90
24.89,5.38,6.28,5.39,6.28,-6.32,-6.28,-5.46,-0.94,-0.93,-0.90
25.14,5.42,6.32,5.42,6.32,-6.35,-6.32,-5.60,-0.93,-0.93,-0.90
25.39,5.47,6.38,5.47,6.38,-6.38,-6.36,-5.74,-0.91,-0.91,-0.91
25.65,5.53,6.44,5.53,6.44,-6.41,-6.39,-5.89,-0.88,-0.88,-0.91
25.91,5.58,6.48,5.57,6.48,-6.44,-6.43,-6.04,-0.86,-0.87,-0.91
26.16,5.60,6.51,5.59,6.50,-6.46,-6.47,-6.18,-0.86,-0.87,-0.91
26.43,5.59,6.50,5.59,6.50,-6.49,-6.50,-6.33,-0.90,-0.90,-0.91
26.69,5.59,6.50,5.58,6.49,-6.51,-6.53,-6.47,-0.93,-0.93,-0.91
26.96,5.58,6.49,5.59,6.50,-6.54,-6.57,-6.62,-0.96,-0.95,-0.91
27.23,5.62,6.53,5.62,6.53,-6.56,-6.60,-6.76,-0.94,-0.94,-0.91
27.50,5.67,6.58,5.67,6.57,-6.58,-6.63,-6.90,-0.91,-0.92,-0.91
27.77,5.72,6.63,5.72,6.62,-6.61,-6.66,-7.03,-0.89,-0.89,-0.91
28.05,5.76,6.67,5.75,6.66,-6.64,-6.69,-7.16,-0.88,-0.89,-0.91
28.33,5.78,6.69,5.78,6.69,-6.67,-6.71,-7.29,-0.89,-0.89,-0.91
28.62,5.80,6.71,5.80,6.70,-6.70,-6.74,-7.41,-0.90,-0.90,-0.91
28.90,5.82,6.72,5.82,6.72,-6.72,-6.77,-7.52,-0.90,-0.90,-0.90
29.19,5.84,6.74,5.84,6.74,-6.74,-6.79,-7.63,-0.90,-0.90,-0.90
29.48,5.86,6.76,5.86,6.75,-6.75,-6.81,-7.73,-0.89,-0.89,-0.90
29.78,5.88,6.77,5.88,6.77,-6.76,-6.83,-7.81,-0.88,-0.88,-0.89
30.08,5.90,6.79,5.90,6.78,-6.78,-6.86,-7.89,-0.88,-0.88,-0.89
30.38,5.91,6.80,5.90,6.79,-6.80,-6.87,-7.96,-0.89,-0.89,-0.89
30.68,5.92,6.81,5.92,6.80,-6.82,-6.89,-8.02,-0.91,-0.91,-0.89
30.99,5.93,6.82,5.94,6.83,-6.85,-6.91,-8.06,-0.93,-0.91,-0.89
31.30,5.98,6.87,5.98,6.87,-6.88,-6.93,-8.10,-0.90,-0.90,-0.89
31.61,6.03,6.92,6.03,6.92,-6.91,-6.94,-8.12,-0.88,-0.88,-0.89
31.93,6.09,6.97,6.07,6.96,-6.94,-6.96,-8.13,-0.85,-0.86,-0.89
32.24,6.10,7.00,6.10,6.99,-6.96,-6.97,-8.13,-0.86,-0.86,-0.90
32.57,6.10,7.00,6.10,7.00,-6.98,-6.98,-8.12,-0.88,-0.88,-0.90
32.89,6.10,7.00,6.10,7.00,-7.00,-6.99,-8.10,-0.90,-0.90,-0.90
33.22,6.10,7.01,6.10,7.00,-7.01,-7.01,-8.08,-0.92,-0.92,-0.91
33.55,6.10,7.01,6.10,7.01,-7.03,-7.01,-8.04,-0.93,-0.93,-0.91
33.89,6.10,7.02,6.10,7.02,-7.04,-7.02,-7.99,-0.94,-0.94,-0.92
34.23,6.12,7.04,6.13,7.04,-7.05,-7.03,-7.94,-0.93,-0.93,-0.92
34.57,6.16,7.08,6.15,7.07,-7.07,-7.04,-7.88,-0.91,-0.91,-0.92
34.92,6.19,7.11,6.18,7.10,-7.08,-7.04,-7.82,-0.89,-0.90,-0.92
35.27,6.20,7.12,6.20,7.11,-7.09,-7.05,-7.75,-0.90,-0.90,-0.92
35.62,6.20,7.12,6.20,7.12,-7.10,-7.05,-7.68,-0.90,-0.90,-0.92
35.97,6.20,7.12,6.20,7.12,-7.11,-7.05,-7.60,-0.91,-0.91,-0.92
36.33,6.20,7.12,6.20,7.11,-7.11,-7.06,-7.53,-0.92,-0.92,-0.92
36.70,6.20,7.12,6.20,7.12,-7.12,-7.06,-7.45,-0.92,-0.93,-0.92
37.06,6.20,7.12,6.20,7.12,-7.14,-7.06,-7.37,-0.94,-0.93,-0.92
37.43,6.22,7.14,6.21,7.13,-7.15,-7.06,-7.29,-0.94,-0.94,-0.92
37.81,6.24,7.15,6.24,7.15,-7.18,-7.06,-7.22,-0.94,-0.94,-0.91
38.19,6.28,7.19,6.29,7.20,-7.20,-7.06,-7.14,-0.93,-0.92,-0.91
38.57,6.34,7.25,6.34,7.24,-7.23,-7.06,-7.07,-0.89,-0.89,-0.91
38.95,6.40,7.30,6.38,7.28,-7.26,-7.05,-7.00,-0.86,-0.87,-0.90
39.34,6.41,7.31,6.41,7.31,-7.28,-7.05,-6.93,-0.87,-0.87,-0.90
39.74,6.41,7.31,6.41,7.31,-7.30,-7.05,-6.87,-0.89,-0.89,-0.90
40.14,6.41,7.31,6.41,7.31,-7.32,-7.04,-6.81,-0.91,-0.91,-0.90
40.54,6.41,7.31,6.41,7.30,-7.32,-7.04,-6.75,-0.91,-0.91,-0.90
40.94,6.41,7.31,6.41,7.31,-7.31,-7.03,-6.70,-0.91,-0.90,-0.90
41.35,6.41,7.31,6.41,7.31,-7.30,-7.03,-6.65,-0.89,-0.89,-0.90
41.76,6.41,7.32,6.40,7.31,-7.29,-7.02,-6.60,-0.88,-0.88,-0.91
42.18,6.39,7.30,6.38,7.29,-7.27,-7.02,-6.56,-0.89,-0.89,-0.91
42.60,6.35,7.26,6.35,7.26,-7.26,-7.01,-6.53,-0.91,-0.91,-0.91
43.03,6.31,7.22,6.32,7.23,-7.25,-7.00,-6.50,-0.94,-0.93,-0.91
43.46,6.31,7.22,6.31,7.22,-7.24,-7.00,-6.47,-0.93,-0.93,-0.91
43.90,6.31,7.23,6.30,7.22,-7.23,-6.99,-6.45,-0.92,-0.92,-0.92
44.33,6.31,7.23,6.31,7.23,-7.22,-6.98,-6.43,-0.91,-0.91,-0.92
44.78,6.31,7.23,6.31,7.23,-7.22,-6.97,-6.42,-0.91,-0.91,-0.92
45.23,6.31,7.23,6.31,7.23,-7.22,-6.97,-6.41,-0.91,-0.91,-0.92
45.68,6.31,7.23,6.31,7.22,-7.22,-6.96,-6.41,-0.91,-0.91,-0.92
46.13,6.31,7.22,6.31,7.22,-7.22,-6.95,-6.41,-0.91,-0.91,-0.91
46.60,6.31,7.22,6.31,7.21,-7.22,-6.94,-6.42,-0.91,-0.91,-0.91
47.06,6.31,7.21,6.31,7.21,-7.21,-6.93,-6.43,-0.90,-0.90,-0.90
47.53,6.31,7.20,6.31,7.20,-7.20,-6.93,-6.45,-0.89,-0.89,-0.89
48.01,6.31,7.19,6.31,7.19,-7.19,-6.92,-6.47,-0.88,-0.88,-0.88
48.49,6.31,7.18,6.31,7.18,-7.17,-6.91,-6.49,-0.86,-0.86,-0.87
48.97,6.31,7.17,6.30,7.16,-7.15,-6.90,-6.52,-0.84,-0.84,-0.86
49.46,6.29,7.14,6.29,7.13,-7.12,-6.89,-6.55,-0.83,-0.83,-0.85
49.96,6.26,7.09,6.26,7.09,-7.08,-6.89,-6.59,-0.82,-0.82,-0.83
50.46,6.23,7.05,6.23,7.04,-7.05,-6.88,-6.63,-0.82,-0.82,-0.82
50.96,6.20,7.00,6.20,7.00,-7.01,-6.87,-6.67,-0.81,-0.81,-0.80
51.47,6.17,6.96,6.16,6.95,-6.97,-6.86,-6.71,-0.80,-0.81,-0.79
51.99,6.13,6.91,6.14,6.91,-6.93,-6.86,-6.76,-0.80,-0.79,-0.78
52.51,6.11,6.88,6.11,6.88,-6.88,-6.85,-6.81,-0.78,-0.77,-0.77
53.03,6.10,6.86,6.10,6.86,-6.84,-6.84,-6.85,-0.74,-0.74,-0.76
53.56,6.08,6.83,6.08,6.82,-6.79,-6.84,-6.90,-0.72,-0.72,-0.75
54.10,6.05,6.78,6.03,6.76,-6.74,-6.83,-6.95,-0.70,-0.72,-0.73
54.64,5.96,6.68,5.97,6.69,-6.69,-6.82,-7.00,-0.73,-0.72,-0.72
55.18,5.89,6.60,5.91,6.62,-6.63,-6.82,-7.05,-0.75,-0.72,-0.71
55.74,5.88,6.59,5.86,6.57,-6.57,-6.81,-7.10,-0.69,-0.71,-0.71
56.29,5.83,6.53,5.82,6.52,-6.51,-6.81,-7.15,-0.68,-0.69,-0.70
56.86,5.77,6.46,5.77,6.46,-6.45,-6.80,-7.19,-0.68,-0.68,-0.69
57.42,5.70,6.39,5.70,6.39,-6.39,-6.80,-7.23,-0.69,-0.69,-0.69
58.00,5.63,6.32,5.65,6.33,-6.33,-6.79,-7.27,-0.70,-0.69,-0.69
58.58,5.61,6.30,5.60,6.29,-6.28,-6.79,-7.30,-0.68,-0.68,-0.69
59.16,5.58,6.27,5.56,6.25,-6.25,-6.78,-7.33,-0.67,-0.68,-0.69
59.76,5.52,6.21,5.53,6.22,-6.22,-6.78,-7.35,-0.70,-0.69,-0.69
60.35,5.50,6.20,5.50,6.20,-6.21,-6.77,-7.37,-0.71,-0.71,-0.70
60.96,5.50,6.21,5.49,6.19,-6.23,-6.77,-7.38,-0.73,-0.74,-0.71
61.57,5.50,6.22,5.50,6.22,-6.25,-6.77,-7.38,-0.75,-0.75,-0.72
62.18,5.52,6.26,5.53,6.27,-6.29,-6.76,-7.38,-0.77,-0.76,-0.74
62.80,5.58,6.34,5.58,6.34,-6.34,-6.76,-7.37,-0.76,-0.76,-0.76
63.43,5.64,6.43,5.64,6.42,-6.39,-6.76,-7.35,-0.75,-0.76,-0.79
64.07,5.70,6.51,5.68,6.49,-6.45,-6.75,-7.33,-0.75,-0.77,-0.81
64.71,5.70,6.54,5.69,6.53,-6.51,-6.75,-7.30,-0.82,-0.82,-0.84
65.35,5.70,6.56,5.70,6.56,-6.57,-6.75,-7.27,-0.87,-0.87,-0.86
66.01,5.70,6.58,5.72,6.60,-6.62,-6.75,-7.23,-0.92,-0.89,-0.88
66.67,5.77,6.67,5.76,6.65,-6.66,-6.74,-7.18,-0.89,-0.90,-0.90
67.33,5.80,6.71,5.79,6.70,-6.68,-6.74,-7.13,-0.88,-0.90,-0.91
68.01,5.80,6.73,5.80,6.73,-6.70,-6.74,-7.07,-0.91,-0.90,-0.93
68.69,5.80,6.74,5.80,6.74,-6.72,-6.74,-7.01,-0.92,-0.92,-0.94
69.37,5.80,6.75,5.80,6.75,-6.74,-6.74,-6.95,-0.95,-0.95,-0.95
70.07,5.80,6.76,5.80,6.75,-6.76,-6.73,-6.88,-0.97,-0.97,-0.96
70.77,5.80,6.77,5.79,6.76,-6.78,-6.73,-6.82,-0.99,-0.99,-0.97
71.48,5.80,6.77,5.81,6.78,-6.80,-6.73,-6.75,-1.00,-1.00,-0.97
72.19,5.82,6.80,5.84,6.81,-6.82,-6.73,-6.68,-1.00,-0.99,-0.98
72.91,5.89,6.88,5.87,6.85,-6.85,-6.73,-6.61,-0.96,-0.98,-0.99
73.64,5.90,6.90,5.89,6.89,-6.87,-6.72,-6.53,-0.97,-0.98,-1.00
74.38,5.90,6.91,5.90,6.91,-6.90,-6.72,-6.46,-1.00,-0.99,-1.01
75.12,5.90,6.92,5.90,6.92,-6.92,-6.72,-6.39,-1.02,-1.02,-1.02
75.87,5.90,6.94,5.90,6.93,-6.94,-6.72,-6.33,-1.04,-1.04,-1.04
76.63,5.90,6.95,5.90,6.95,-6.95,-6.71,-6.26,-1.05,-1.05,-1.05
77.40,5.90,6.97,5.90,6.97,-6.95,-6.71,-6.20,-1.05,-1.05,-1.07
78.17,5.90,6.98,5.89,6.97,-6.95,-6.71,-6.13,-1.05,-1.06,-1.08
78.95,5.88,6.98,5.86,6.96,-6.95,-6.70,-6.07,-1.07,-1.09,-1.10
79.74,5.82,6.93,5.83,6.94,-6.95,-6.70,-6.02,-1.14,-1.12,-1.11
80.54,5.80,6.93,5.81,6.93,-6.96,-6.69,-5.97,-1.16,-1.15,-1.13
81.35,5.80,6.94,5.79,6.93,-6.96,-6.69,-5.92,-1.16,-1.16,-1.14
82.16,5.80,6.95,5.80,6.95,-6.96,-6.68,-5.87,-1.16,-1.16,-1.15
82.98,5.80,6.96,5.80,6.96,-6.95,-6.68,-5.83,-1.15,-1.15,-1.16
83.81,5.80,6.97,5.80,6.97,-6.94,-6.67,-5.79,-1.14,-1.14,-1.17
84.65,5.80,6.97,5.79,6.96,-6.93,-6.66,-5.76,-1.13,-1.14,-1.17
85.50,5.76,6.94,5.75,6.93,-6.91,-6.66,-5.73,-1.15,-1.16,-1.18
86.35,5.69,6.88,5.70,6.88,-6.88,-6.65,-5.70,-1.19,-1.18,-1.19
87.22,5.64,6.84,5.65,6.85,-6.85,-6.64,-5.68,-1.21,-1.20,-1.20
88.09,5.60,6.81,5.60,6.81,-6.82,-6.63,-5.66,-1.22,-1.21,-1.21
88.97,5.59,6.80,5.56,6.77,-6.79,-6.62,-5.65,-1.20,-1.23,-1.21
89.86,5.51,6.73,5.53,6.75,-6.77,-6.61,-5.64,-1.26,-1.24,-1.22
90.76,5.50,6.73,5.51,6.73,-6.75,-6.60,-5.64,-1.25,-1.25,-1.23
91.66,5.51,6.74,5.50,6.73,-6.75,-6.59,-5.64,-1.24,-1.25,-1.23
92.58,5.51,6.74,5.51,6.74,-6.74,-6.57,-5.64,-1.23,-1.24,-1.23
93.51,5.51,6.75,5.51,6.75,-6.73,-6.56,-5.65,-1.23,-1.22,-1.24
94.44,5.51,6.75,5.51,6.75,-6.72,-6.54,-5.66,-1.21,-1.21,-1.24
95.39,5.51,6.75,5.50,6.73,-6.70,-6.53,-5.68,-1.19,-1.20,-1.24
96.34,5.47,6.71,5.47,6.70,-6.67,-6.51,-5.70,-1.20,-1.20,-1.24
97.30,5.40,6.64,5.41,6.65,-6.64,-6.49,-5.72,-1.24,-1.23,-1.24
98.28,5.36,6.61,5.34,6.59,-6.61,-6.47,-5.75,-1.25,-1.26,-1.25
99.26,5.27,6.52,5.29,6.53,-6.57,-6.45,-5.78,-1.31,-1.29,-1.25
100.25,5.25,6.50,5.25,6.50,-6.54,-6.43,-5.81,-1.29,-1.29,-1.25
101.25,5.23,6.48,5.23,6.48,-6.50,-6.41,-5.84,-1.28,-1.28,-1.25
102.27,5.22,6.48,5.22,6.48,-6.47,-6.39,-5.88,-1.25,-1.24,-1.26
103.29,5.21,6.48,5.21,6.48,-6.43,-6.36,-5.92,-1.22,-1.22,-1.27
104.32,5.19,6.47,5.17,6.45,-6.40,-6.34,-5.96,-1.21,-1.23,-1.28
105.37,5.12,6.40,5.10,6.38,-6.36,-6.31,-6.00,-1.24,-1.26,-1.28
106.42,4.99,6.28,5.01,6.30,-6.32,-6.29,-6.04,-1.33,-1.31,-1.29
107.48,4.92,6.22,4.93,6.23,-6.27,-6.26,-6.08,-1.36,-1.34,-1.30
108.56,4.89,6.20,4.89,6.20,-6.22,-6.23,-6.12,-1.33,-1.33,-1.31
109.64,4.87,6.19,4.86,6.17,-6.16,-6.20,-6.16,-1.29,-1.30,-1.32
110.74,4.83,6.15,4.82,6.13,-6.10,-6.17,-6.20,-1.27,-1.29,-1.32
111.85,4.75,6.07,4.75,6.07,-6.05,-6.14,-6.24,-1.30,-1.30,-1.32
112.97,4.68,6.00,4.69,6.00,-6.00,-6.10,-6.28,-1.32,-1.31,-1.32
114.10,4.62,5.94,4.63,5.95,-5.96,-6.07,-6.31,-1.34,-1.33,-1.32
115.24,4.61,5.92,4.58,5.89,-5.92,-6.03,-6.33,-1.31,-1.34,-1.31
116.39,4.54,5.85,4.54,5.84,-5.88,-6.00,-6.36,-1.34,-1.34,-1.31
117.55,4.50,5.79,4.52,5.81,-5.83,-5.96,-6.38,-1.34,-1.31,-1.29
118.73,4.52,5.80,4.52,5.80,-5.79,-5.92,-6.39,-1.27,-1.27,-1.28
119.92,4.55,5.81,4.54,5.80,-5.76,-5.88,-6.40,-1.21,-1.22,-1.26
121.12,4.55,5.79,4.53,5.76,-5.72,-5.84,-6.40,-1.17,-1.19,-1.24
122.33,4.48,5.70,4.47,5.69,-5.68,-5.80,-6.39,-1.20,-1.21,-1.22
123.55,4.39,5.59,4.41,5.60,-5.63,-5.76,-6.38,-1.25,-1.23,-1.20
124.79,4.35,5.53,4.37,5.55,-5.58,-5.72,-6.36,-1.23,-1.21,-1.18
126.03,4.37,5.53,4.37,5.53,-5.52,-5.68,-6.33,-1.15,-1.15,-1.16
127.29,4.39,5.53,4.36,5.49,-5.46,-5.63,-6.30,-1.07,-1.10,-1.14
128.57,4.34,5.46,4.31,5.42,-5.41,-5.59,-6.25,-1.07,-1.10,-1.12
129.85,4.20,5.30,4.24,5.34,-5.36,-5.54,-6.21,-1.17,-1.12,-1.10
131.15,4.18,5.26,4.19,5.27,-5.32,-5.49,-6.15,-1.14,-1.13,-1.08
132.46,4.19,5.26,4.18,5.24,-5.27,-5.45,-6.09,-1.08,-1.09,-1.07
133.79,4.20,5.25,4.21,5.26,-5.22,-5.40,-6.02,-1.03,-1.02,-1.05
135.12,4.21,5.25,4.20,5.23,-5.18,-5.35,-5.95,-0.97,-0.98,-1.04
136.48,4.19,5.21,4.15,5.17,-5.14,-5.30,-5.87,-0.95,-0.99,-1.02
137.84,4.06,5.07,4.09,5.10,-5.11,-5.25,-5.79,-1.05,-1.02,-1.01
139.22,4.02,5.02,4.03,5.03,-5.07,-5.20,-5.71,-1.06,-1.04,-1.00
140.61,4.01,5.00,4.01,4.99,-5.03,-5.15,-5.62,-1.02,-1.02,-0.99
142.02,4.02,5.00,4.03,5.01,-4.99,-5.10,-5.53,-0.97,-0.96,-0.98
143.44,4.03,5.01,4.01,4.99,-4.94,-5.04,-5.43,-0.91,-0.93,-0.98
144.87,4.00,4.98,3.96,4.93,-4.91,-4.99,-5.34,-0.91,-0.95,-0.98
146.32,3.86,4.84,3.89,4.87,-4.88,-4.94,-5.24,-1.02,-0.99,-0.98
147.78,3.80,4.79,3.83,4.82,-4.85,-4.89,-5.14,-1.05,-1.02,-0.99
149.26,3.81,4.81,3.80,4.80,-4.83,-4.83,-5.04,-1.02,-1.04,-1.00
150.75,3.81,4.83,3.79,4.80,-4.81,-4.78,-4.94,-1.01,-1.03,-1.02
152.26,3.75,4.80,3.75,4.80,-4.80,-4.72,-4.85,-1.05,-1.04,-1.05
153.78,3.70,4.78,3.70,4.78,-4.78,-4.67,-4.75,-1.08,-1.08,-1.08
155.32,3.64,4.76,3.66,4.77,-4.77,-4.61,-4.65,-1.13,-1.11,-1.12
156.88,3.63,4.78,3.61,4.76,-4.75,-4.56,-4.56,-1.12,-1.14,-1.15
158.44,3.57,4.76,3.55,4.73,-4.72,-4.50,-4.47,-1.15,-1.17,-1.19
160.03,3.45,4.67,3.47,4.69,-4.67,-4.45,-4.38,-1.22,-1.19,-1.22
161.63,3.38,4.62,3.38,4.62,-4.60,-4.39,-4.29,-1.22,-1.22,-1.24
163.24,3.29,4.56,3.28,4.54,-4.52,-4.34,-4.20,-1.23,-1.24,-1.27
164.88,3.17,4.45,3.17,4.45,-4.43,-4.28,-4.12,-1.26,-1.26,-1.28
166.53,3.06,4.35,3.06,4.34,-4.34,-4.22,-4.04,-1.29,-1.29,-1.29
168.19,2.95,4.24,2.94,4.23,-4.26,-4.17,-3.96,-1.31,-1.32,-1.29
169.87,2.84,4.12,2.85,4.13,-4.17,-4.11,-3.88,-1.34,-1.32,-1.28
171.57,2.79,4.06,2.79,4.06,-4.10,-4.06,-3.81,-1.31,-1.30,-1.27
173.29,2.77,4.02,2.77,4.01,-4.03,-4.00,-3.74,-1.26,-1.26,-1.25
175.02,2.77,3.99,2.77,3.99,-3.97,-3.94,-3.67,-1.20,-1.20,-1.22
176.77,2.76,3.95,2.76,3.95,-3.92,-3.89,-3.60,-1.16,-1.16,-1.19
178.54,2.76,3.92,2.72,3.88,-3.87,-3.83,-3.54,-1.11,-1.15,-1.16
180.32,2.67,3.79,2.69,3.81,-3.83,-3.78,-3.48,-1.16,-1.13,-1.12
182.13,2.65,3.74,2.69,3.77,-3.78,-3.72,-3.42,-1.13,-1.09,-1.09
183.95,2.71,3.76,2.69,3.74,-3.73,-3.66,-3.37,-1.02,-1.04,-1.05
185.79,2.71,3.74,2.67,3.70,-3.68,-3.61,-3.31,-0.97,-1.00,-1.03
187.65,2.63,3.64,2.63,3.63,-3.63,-3.55,-3.26,-1.00,-1.00,-1.01
189.52,2.54,3.53,2.58,3.56,-3.58,-3.50,-3.22,-1.05,-1.01,-0.99
191.42,2.53,3.51,2.54,3.51,-3.54,-3.44,-3.17,-1.01,-1.00,-0.98
193.33,2.56,3.52,2.53,3.49,-3.50,-3.39,-3.13,-0.94,-0.97,-0.96
195.27,2.51,3.46,2.51,3.46,-3.45,-3.33,-3.09,-0.94,-0.94,-0.95
197.22,2.46,3.41,2.47,3.41,-3.39,-3.28,-3.05,-0.94,-0.92,-0.95
199.19,2.41,3.35,2.42,3.36,-3.34,-3.22,-3.01,-0.93,-0.92,-0.94
201.18,2.38,3.32,2.36,3.30,-3.28,-3.17,-2.98,-0.90,-0.92,-0.94
203.19,2.30,3.24,2.30,3.23,-3.22,-3.11,-2.95,-0.92,-0.92,-0.94
205.23,2.22,3.16,2.23,3.16,-3.16,-3.06,-2.91,-0.94,-0.94,-0.94
207.28,2.15,3.09,2.14,3.08,-3.10,-3.00,-2.88,-0.96,-0.96,-0.94
209.35,2.08,3.02,2.07,3.01,-3.05,-2.95,-2.85,-0.97,-0.97,-0.94
211.44,1.99,2.94,2.02,2.97,-2.99,-2.90,-2.82,-1.00,-0.97,-0.95
213.56,2.00,2.95,1.99,2.94,-2.94,-2.84,-2.80,-0.94,-0.95,-0.95
215.69,1.97,2.93,1.95,2.90,-2.88,-2.79,-2.77,-0.91,-0.93,-0.96
217.85,1.90,2.86,1.90,2.86,-2.83,-2.74,-2.74,-0.93,-0.93,-0.96
220.03,1.82,2.79,1.83,2.79,-2.77,-2.68,-2.71,-0.96,-0.95,-0.97
222.23,1.75,2.72,1.75,2.72,-2.72,-2.63,-2.68,-0.97,-0.97,-0.97
224.45,1.69,2.66,1.68,2.65,-2.66,-2.58,-2.65,-0.98,-0.98,-0.97
226.70,1.62,2.59,1.62,2.59,-2.60,-2.52,-2.62,-0.98,-0.98,-0.97
228.96,1.57,2.54,1.57,2.53,-2.54,-2.47,-2.59,-0.97,-0.97,-0.97
231.25,1.51,2.47,1.51,2.47,-2.48,-2.42,-2.56,-0.97,-0.97,-0.96
233.57,1.47,2.43,1.47,2.42,-2.42,-2.37,-2.53,-0.95,-0.95,-0.96
235.90,1.41,2.36,1.42,2.37,-2.36,-2.31,-2.49,-0.95,-0.94,-0.95
238.26,1.39,2.33,1.37,2.31,-2.30,-2.26,-2.45,-0.91,-0.92,-0.94
240.64,1.32,2.24,1.32,2.24,-2.24,-2.21,-2.41,-0.92,-0.92,-0.92
243.05,1.27,2.18,1.27,2.18,-2.18,-2.16,-2.37,-0.91,-0.91,-0.91
245.48,1.21,2.11,1.22,2.11,-2.12,-2.10,-2.33,-0.91,-0.90,-0.90
247.93,1.18,2.07,1.17,2.06,-2.06,-2.05,-2.28,-0.88,-0.89,-0.89
250.41,1.13,2.01,1.13,2.01,-2.01,-2.00,-2.23,-0.88,-0.88,-0.88
252.92,1.08,1.95,1.07,1.94,-1.96,-1.95,-2.18,-0.88,-0.88,-0.87
255.45,1.03,1.90,1.02,1.89,-1.91,-1.90,-2.12,-0.88,-0.88,-0.87
258.00,0.96,1.83,0.99,1.85,-1.86,-1.84,-2.06,-0.90,-0.87,-0.87
260.58,0.97,1.84,0.95,1.82,-1.81,-1.79,-2.00,-0.85,-0.86,-0.87
263.19,0.93,1.80,0.91,1.78,-1.77,-1.74,-1.94,-0.84,-0.85,-0.87
265.82,0.86,1.73,0.86,1.73,-1.71,-1.68,-1.87,-0.85,-0.85,-0.87
268.48,0.78,1.65,0.79,1.66,-1.65,-1.63,-1.80,-0.87,-0.86,-0.87
271.16,0.72,1.59,0.72,1.58,-1.59,-1.58,-1.73,-0.87,-0.87,-0.87
273.87,0.65,1.52,0.65,1.52,-1.51,-1.52,-1.65,-0.86,-0.86,-0.87
276.61,0.58,1.45,0.57,1.44,-1.43,-1.47,-1.58,-0.85,-0.86,-0.87
279.38,0.49,1.36,0.49,1.35,-1.34,-1.41,-1.50,-0.85,-0.85,-0.87
282.17,0.38,1.24,0.39,1.25,-1.25,-1.36,-1.42,-0.87,-0.86,-0.86
284.99,0.32,1.17,0.31,1.16,-1.17,-1.30,-1.34,-0.85,-0.87,-0.85
287.84,0.22,1.07,0.23,1.07,-1.10,-1.25,-1.25,-0.88,-0.87,-0.85
290.72,0.17,1.01,0.16,1.00,-1.02,-1.19,-1.17,-0.85,-0.86,-0.84
293.63,0.10,0.93,0.11,0.93,-0.95,-1.13,-1.08,-0.85,-0.84,-0.83
296.57,0.06,0.88,0.06,0.88,-0.87,-1.07,-0.99,-0.82,-0.81,-0.82
299.53,0.02,0.84,0.02,0.83,-0.81,-1.01,-0.90,-0.79,-0.79,-0.82
302.53,-0.04,0.77,-0.05,0.76,-0.74,-0.95,-0.81,-0.78,-0.78,-0.81
305.55,-0.11,0.70,-0.13,0.67,-0.67,-0.89,-0.72,-0.78,-0.80,-0.81
308.61,-0.25,0.56,-0.23,0.58,-0.59,-0.83,-0.63,-0.84,-0.82,-0.81
311.69,-0.32,0.49,-0.31,0.50,-0.51,-0.76,-0.54,-0.83,-0.82,-0.81
314.81,-0.37,0.45,-0.38,0.43,-0.43,-0.70,-0.44,-0.81,-0.82,-0.82
317.96,-0.43,0.39,-0.45,0.37,-0.36,-0.63,-0.35,-0.79,-0.81,-0.82
321.14,-0.55,0.28,-0.55,0.28,-0.28,-0.56,-0.25,-0.83,-0.83,-0.83
324.35,-0.66,0.17,-0.65,0.18,-0.20,-0.49,-0.15,-0.86,-0.85,-0.83
327.59,-0.74,0.10,-0.73,0.11,-0.12,-0.42,-0.06,-0.86,-0.85,-0.84
330.87,-0.79,0.06,-0.79,0.06,-0.04,-0.34,0.04,-0.83,-0.83,-0.85
334.18,-0.83,0.03,-0.87,-0.01,0.04,-0.27,0.14,-0.79,-0.82,-0.86
337.52,-0.97,-0.10,-0.97,-0.11,0.13,-0.19,0.24,-0.84,-0.84,-0.87
340.90,-1.12,-0.25,-1.10,-0.23,0.22,-0.11,0.34,-0.90,-0.88,-0.87
344.30,-1.22,-0.34,-1.22,-0.34,0.31,-0.02,0.44,-0.91,-0.91,-0.88
347.75,-1.32,-0.42,-1.31,-0.42,0.40,0.06,0.54,-0.92,-0.91,-0.90
351.23,-1.39,-0.48,-1.40,-0.50,0.50,0.15,0.64,-0.89,-0.90,-0.91
354.74,-1.49,-0.57,-1.50,-0.59,0.61,0.25,0.74,-0.89,-0.90,-0.92
358.28,-1.63,-0.70,-1.61,-0.69,0.71,0.34,0.84,-0.92,-0.91,-0.93
361.87,-1.74,-0.80,-1.75,-0.81,0.81,0.45,0.95,-0.93,-0.94,-0.94
365.49,-1.86,-0.90,-1.87,-0.92,0.91,0.55,1.05,-0.95,-0.96,-0.96
369.14,-2.01,-1.04,-1.99,-1.02,1.02,0.66,1.16,-1.00,-0.97,-0.97
372.83,-2.10,-1.12,-2.11,-1.13,1.13,0.77,1.26,-0.98,-0.99,-0.98
376.56,-2.22,-1.23,-2.23,-1.24,1.24,0.89,1.37,-0.98,-0.99,-0.99
380.33,-2.35,-1.35,-2.34,-1.34,1.35,1.01,1.47,-1.00,-0.99,-1.00
384.13,-2.45,-1.44,-2.46,-1.45,1.46,1.14,1.58,-1.00,-1.00,-1.01
387.97,-2.57,-1.55,-2.58,-1.56,1.56,1.27,1.69,-1.01,-1.02,-1.02
391.85,-2.72,-1.69,-2.70,-1.67,1.67,1.41,1.79,-1.05,-1.03,-1.03
395.77,-2.82,-1.78,-2.83,-1.80,1.78,1.55,1.90,-1.04,-1.05,-1.04
399.73,-2.95,-1.90,-2.96,-1.91,1.90,1.70,2.01,-1.05,-1.05,-1.05
403.72,-3.09,-2.03,-3.07,-2.01,2.03,1.85,2.11,-1.06,-1.05,-1.06
407.76,-3.20,-2.12,-3.20,-2.13,2.15,2.01,2.22,-1.05,-1.05,-1.08
411.84,-3.33,-2.24,-3.35,-2.27,2.28,2.17,2.32,-1.05,-1.07,-1.09
415.96,-3.50,-2.40,-3.51,-2.42,2.41,2.33,2.43,-1.09,-1.10,-1.10
420.12,-3.70,-2.60,-3.67,-2.57,2.55,2.50,2.53,-1.15,-1.11,-1.10
424.32,-3.81,-2.70,-3.81,-2.70,2.69,2.67,2.63,-1.12,-1.11,-1.11
428.56,-3.91,-2.80,-3.93,-2.82,2.84,2.84,2.73,-1.08,-1.09,-1.11
432.85,-4.03,-2.93,-4.05,-2.95,2.97,3.01,2.82,-1.06,-1.08,-1.10
437.18,-4.19,-3.10,-4.19,-3.10,3.09,3.18,2.92,-1.10,-1.09,-1.09
441.55,-4.31,-3.24,-4.31,-3.24,3.20,3.34,3.00,-1.11,-1.10,-1.07
445.96,-4.41,-3.36,-4.38,-3.34,3.30,3.49,3.09,-1.11,-1.08,-1.05
450.42,-4.42,-3.40,-4.43,-3.41,3.40,3.64,3.17,-1.03,-1.03,-1.02
454.93,-4.42,-3.44,-4.46,-3.48,3.49,3.77,3.24,-0.94,-0.98,-0.98
459.48,-4.51,-3.57,-4.48,-3.54,3.57,3.88,3.31,-0.94,-0.91,-0.94
464.07,-4.53,-3.62,-4.52,-3.61,3.65,3.98,3.38,-0.88,-0.87,-0.91
