frequency,raw
20.00,0.50
20.20,0.56
20.40,0.64
20.61,0.71
20.81,0.78
21.02,0.85
21.23,0.92
21.44,0.98
21.66,1.06
21.87,1.13
22.09,1.20
22.31,1.27
22.54,1.33
22.76,1.41
22.99,1.47
23.22,1.55
23.45,1.61
23.69,1.67
23.92,1.75
24.16,1.81
24.40,1.86
24.65,1.92
24.89,2.00
25.14,2.06
25.39,2.12
25.65,2.18
25.91,2.24
26.16,2.30
26.43,2.36
26.69,2.43
26.96,2.49
27.23,2.55
27.50,2.60
27.77,2.66
28.05,2.73
28.33,2.78
28.62,2.84
28.90,2.90
29.19,2.96
29.48,3.01
29.78,3.08
30.08,3.13
30.38,3.18
30.68,3.24
30.99,3.29
31.30,3.34
31.61,3.38
31.93,3.44
32.24,3.49
32.57,3.54
32.89,3.59
33.22,3.64
33.55,3.68
33.89,3.74
34.23,3.80
34.57,3.85
34.92,3.90
35.27,3.96
35.62,4.02
35.97,4.06
36.33,4.12
36.70,4.18
37.06,4.24
37.43,4.29
37.81,4.35
38.19,4.40
38.57,4.45
38.95,4.50
39.34,4.55
39.74,4.60
40.14,4.65
40.54,4.68
40.94,4.73
41.35,4.77
41.76,4.81
42.18,4.85
42.60,4.89
43.03,4.93
43.46,4.97
43.90,5.01
44.33,5.03
44.78,5.07
45.23,5.10
45.68,5.13
46.13,5.17
46.60,5.20
47.06,5.24
47.53,5.28
48.01,5.31
48.49,5.35
48.97,5.39
49.46,5.42
49.96,5.47
50.46,5.49
50.96,5.54
51.47,5.57
51.99,5.61
52.51,5.65
53.03,5.67
53.56,5.71
54.10,5.75
54.64,5.77
55.18,5.80
55.74,5.82
56.29,5.85
56.86,5.88
57.42,5.91
58.00,5.94
58.58,5.97
59.16,5.99
59.76,6.02
60.35,6.04
60.96,6.08
61.57,6.10
62.18,6.13
62.80,6.16
63.43,6.19
64.07,6.22
64.71,6.25
65.35,6.26
66.01,6.29
66.67,6.32
67.33,6.33
68.01,6.35
68.69,6.38
69.37,6.40
70.07,6.42
70.77,6.44
71.48,6.48
72.19,6.49
72.91,6.51
73.64,6.53
74.38,6.54
75.12,6.56
75.87,6.58
76.63,6.60
77.40,6.62
78.17,6.64
78.95,6.65
79.74,6.67
80.54,6.68
81.35,6.70
82.16,6.71
82.98,6.72
83.81,6.74
84.65,6.75
85.50,6.76
86.35,6.78
87.22,6.78
88.09,6.80
88.97,6.80
89.86,6.82
90.76,6.83
91.66,6.84
92.58,6.85
93.51,6.86
94.44,6.87
95.39,6.88
96.34,6.90
97.30,6.91
98.28,6.93
99.26,6.94
100.25,6.96
101.25,6.97
102.27,6.99
103.29,7.00
104.32,7.02
105.37,7.03
106.42,7.04
107.48,7.05
108.56,7.07
109.64,7.08
110.74,7.09
111.85,7.12
112.97,7.13
114.10,7.15
115.24,7.15
116.39,7.18
117.55,7.20
118.73,7.22
119.92,7.25
121.12,7.28
122.33,7.31
123.55,7.34
124.79,7.37
126.03,7.40
127.29,7.43
128.57,7.46
129.85,7.49
131.15,7.51
132.46,7.52
133.79,7.54
135.12,7.56
136.48,7.57
137.84,7.59
139.22,7.59
140.61,7.59
142.02,7.61
143.44,7.61
144.87,7.62
146.32,7.63
147.78,7.62
149.26,7.63
150.75,7.63
152.26,7.64
153.78,7.64
155.32,7.65
156.88,7.65
158.44,7.66
160.03,7.67
161.63,7.67
163.24,7.68
164.88,7.68
166.53,7.68
168.19,7.68
169.87,7.68
171.57,7.68
173.29,7.69
175.02,7.69
176.77,7.68
178.54,7.68
180.32,7.68
182.13,7.68
183.95,7.68
185.79,7.68
187.65,7.68
189.52,7.67
191.42,7.67
193.33,7.67
195.27,7.66
197.22,7.67
199.19,7.65
201.18,7.65
203.19,7.65
205.23,7.64
207.28,7.64
209.35,7.63
211.44,7.63
213.56,7.63
215.69,7.62
217.85,7.61
220.03,7.61
222.23,7.60
224.45,7.59
226.70,7.58
228.96,7.57
231.25,7.57
233.57,7.57
235.90,7.56
238.26,7.56
240.64,7.56
243.05,7.56
245.48,7.55
247.93,7.54
250.41,7.55
252.92,7.55
255.45,7.55
258.00,7.55
260.58,7.57
263.19,7.57
265.82,7.59
268.48,7.59
271.16,7.61
273.87,7.61
276.61,7.63
279.38,7.63
282.17,7.66
284.99,7.67
287.84,7.68
290.72,7.70
293.63,7.71
296.57,7.72
299.53,7.73
302.53,7.73
305.55,7.74
308.61,7.73
311.69,7.74
314.81,7.75
317.96,7.74
321.14,7.74
324.35,7.74
327.59,7.73
330.87,7.74
334.18,7.73
337.52,7.72
340.90,7.73
344.30,7.71
347.75,7.71
351.23,7.71
354.74,7.70
358.28,7.68
361.87,7.68
365.49,7.67
369.14,7.66
372.83,7.66
376.56,7.64
380.33,7.63
384.13,7.61
387.97,7.59
391.85,7.57
395.77,7.55
399.73,7.53
403.72,7.50
407.76,7.47
411.84,7.45
415.96,7.42
420.12,7.39
424.32,7.36
428.56,7.33
432.85,7.30
437.18,7.26
441.55,7.24
445.96,7.21
450.42,7.17
454.93,7.13
459.48,7.09
464.07,7.05
468.71,7.01
473.40,6.97
478.13,6.93
482.91,6.89
487.74,6.84
492.62,6.78
497.55,6.73
502.52,6.67
507.55,6.62
512.62,6.56
517.75,6.50
522.93,6.43
528.16,6.38
533.44,6.31
538.77,6.24
544.16,6.17
549.60,6.09
555.10,6.03
560.65,5.96
566.25,5.88
571.92,5.81
577.64,5.74
583.41,5.66
589.25,5.61
595.14,5.54
601.09,5.49
607.10,5.44
613.17,5.37
619.30,5.28
625.50,5.12
631.75,4.94
638.07,4.69
644.45,4.43
650.89,4.16
657.40,3.89
663.98,3.66
670.62,3.47
677.32,3.33
684.10,3.28
690.94,3.27
697.85,3.30
704.83,3.36
711.87,3.40
718.99,3.43
726.18,3.42
733.44,3.37
740.78,3.27
748.19,3.08
755.67,2.82
763.23,2.53
770.86,2.21
778.57,1.90
786.35,1.61
794.22,1.36
802.16,1.20
810.18,1.08
818.28,1.02
826.46,1.03
834.73,1.06
843.08,1.08
851.51,1.09
860.02,1.09
868.62,1.07
877.31,1.03
886.08,0.98
894.94,0.92
903.89,0.86
912.93,0.78
922.06,0.71
931.28,0.62
940.59,0.52
950.00,0.43
959.50,0.32
969.09,0.21
978.78,0.09
988.57,-0.03
998.46,-0.14
1008.44,-0.26
1018.53,-0.37
1028.71,-0.48
1039.00,-0.60
1049.39,-0.71
1059.88,-0.80
1070.48,-0.90
1081.19,-0.97
1092.00,-1.04
1102.92,-1.10
1113.95,-1.13
1125.09,-1.16
1136.34,-1.16
1147.70,-1.14
1159.18,-1.11
1170.77,-1.05
1182.48,-0.96
1194.30,-0.86
1206.25,-0.72
1218.31,-0.56
1230.49,-0.37
1242.80,-0.14
1255.22,0.11
1267.78,0.38
1280.45,0.68
1293.26,1.01
1306.19,1.34
1319.25,1.70
1332.45,2.07
1345.77,2.45
1359.23,2.84
1372.82,3.23
1386.55,3.62
1400.41,4.01
1414.42,4.38
1428.56,4.74
1442.85,5.08
1457.28,5.42
1471.85,5.71
1486.57,5.98
1501.43,6.24
1516.45,6.45
1531.61,6.65
1546.93,6.83
1562.40,6.97
1578.02,7.08
1593.80,7.16
1609.74,7.22
1625.84,7.27
1642.10,7.28
1658.52,7.28
1675.10,7.24
1691.85,7.21
1708.77,7.16
1725.86,7.09
1743.12,7.02
1760.55,6.93
1778.15,6.84
1795.94,6.74
1813.90,6.65
1832.03,6.53
1850.36,6.43
1868.86,6.33
1887.55,6.22
1906.42,6.12
1925.49,6.02
1944.74,5.91
1964.19,5.81
1983.83,5.72
2003.67,5.63
2023.71,5.54
2043.94,5.45
2064.38,5.36
2085.03,5.28
2105.88,5.21
2126.94,5.14
2148.20,5.07
2169.69,5.00
2191.38,4.94
2213.30,4.89
2235.43,4.85
2257.78,4.82
2280.36,4.78
2303.17,4.76
2326.20,4.73
2349.46,4.71
2372.95,4.70
2396.68,4.70
2420.65,4.69
2444.86,4.71
2469.31,4.71
2494.00,4.74
2518.94,4.75
2544.13,4.79
2569.57,4.83
2595.27,4.84
2621.22,4.89
2647.43,4.94
2673.90,5.00
2700.64,5.06
2727.65,5.12
2754.93,5.19
2782.48,5.27
2810.30,5.33
2838.40,5.42
2866.79,5.51
2895.46,5.60
2924.41,5.70
2953.65,5.79
2983.19,5.90
3013.02,5.99
3043.15,6.10
3073.58,6.21
3104.32,6.32
3135.36,6.41
3166.72,6.51
3198.38,6.61
3230.37,6.70
3262.67,6.79
3295.30,6.87
3328.25,6.96
3361.53,7.02
3395.15,7.09
3429.10,7.15
3463.39,7.20
3498.03,7.23
3533.01,7.27
3568.34,7.30
3604.02,7.30
3640.06,7.31
3676.46,7.31
3713.22,7.30
3750.36,7.30
3787.86,7.29
3825.74,7.28
3864.00,7.26
3902.64,7.25
3941.66,7.24
3981.08,7.22
4020.89,7.20
4061.10,7.19
4101.71,7.18
4142.73,7.19
4184.15,7.20
4226.00,7.20
4268.26,7.23
4310.94,7.27
4354.05,7.32
4397.59,7.38
4441.56,7.45
4485.98,7.54
4530.84,7.63
4576.15,7.74
4621.91,7.87
4668.13,8.01
4714.81,8.16
4761.96,8.31
4809.58,8.47
4857.67,8.64
4906.25,8.82
4955.31,9.00
5004.87,9.18
5054.91,9.35
5105.46,9.53
5156.52,9.70
5208.08,9.83
5260.16,9.96
5312.77,10.05
5365.89,10.11
5419.55,10.15
5473.75,10.12
5528.49,10.07
5583.77,9.98
5639.61,9.80
5696.00,9.61
5752.96,9.40
5810.49,9.18
5868.60,9.01
5927.28,8.83
5986.56,8.69
6046.42,8.58
6106.89,8.47
6167.96,8.34
6229.64,8.17
6291.93,7.95
6354.85,7.72
6418.40,7.46
6482.58,7.18
6547.41,6.89
6612.88,6.64
6679.01,6.44
6745.80,6.27
6813.26,6.12
6881.39,5.98
6950.21,5.88
7019.71,5.75
7089.91,5.61
7160.81,5.45
7232.41,5.27
7304.74,5.13
7377.79,4.96
7451.56,4.77
7526.08,4.60
7601.34,4.42
7677.35,4.22
7754.13,4.04
7831.67,3.85
7909.98,3.68
7989.08,3.52
8068.98,3.40
8149.67,3.30
8231.16,3.24
8313.47,3.20
8396.61,3.18
8480.57,3.16
8565.38,3.12
8651.03,3.04
8737.54,2.91
8824.92,2.62
8913.17,2.24
9002.30,1.74
9092.32,1.06
9183.25,0.32
9275.08,-0.42
9367.83,-1.16
9461.51,-1.80
9556.12,-2.36
9651.68,-2.80
9748.20,-3.17
9845.68,-3.50
9944.14,-3.80
10043.58,-4.19
10144.02,-4.63
10245.46,-5.14
10347.91,-5.78
10451.39,-6.46
10555.91,-7.18
10661.46,-7.87
10768.08,-8.51
10875.76,-9.11
10984.52,-9.65
11094.36,-10.13
11205.31,-10.56
11317.36,-10.95
11430.53,-11.25
11544.84,-11.51
11660.29,-11.70
11776.89,-11.77
11894.66,-11.76
12013.60,-11.67
12133.74,-11.47
12255.08,-11.19
12377.63,-10.84
12501.41,-10.41
12626.42,-9.90
12752.68,-9.37
12880.21,-8.78
13009.01,-8.17
13139.10,-7.54
13270.49,-6.89
13403.20,-6.29
13537.23,-5.76
13672.60,-5.31
13809.33,-5.10
13947.42,-5.09
14086.90,-5.26
14227.77,-5.76
14370.04,-6.49
14513.74,-7.41
14658.88,-8.53
14805.47,-9.75
14953.52,-11.01
15103.06,-12.29
15254.09,-13.51
15406.63,-14.66
15560.70,-15.77
15716.30,-16.76
15873.47,-17.68
16032.20,-18.53
16192.52,-19.24
16354.45,-19.84
16517.99,-20.33
16683.17,-20.60
16850.01,-20.65
17018.51,-20.54
17188.69,-20.22
17360.58,-19.81
17534.18,-19.40
17709.53,-19.05
17886.62,-18.81
18065.49,-18.58
18246.14,-18.46
18428.60,-18.53
18612.89,-18.66
18799.02,-18.85
18987.01,-19.11
19176.88,-19.41
19368.65,-19.77
19562.33,-20.23
19757.96,-20.93
19955.54,-21.80
