frequency,raw
20.00,-10.53
20.20,-10.42
20.40,-10.32
20.61,-10.21
20.81,-10.11
21.02,-10.00
21.23,-9.89
21.44,-9.77
21.66,-9.65
21.87,-9.53
22.09,-9.40
22.31,-9.27
22.54,-9.13
22.76,-8.99
22.99,-8.86
23.22,-8.74
23.45,-8.64
23.69,-8.53
23.92,-8.42
24.16,-8.31
24.40,-8.19
24.65,-8.06
24.89,-7.93
25.14,-7.84
25.39,-7.76
25.65,-7.67
25.91,-7.60
26.16,-7.49
26.43,-7.37
26.69,-7.25
26.96,-7.12
27.23,-7.03
27.50,-6.94
27.77,-6.85
28.05,-6.76
28.33,-6.64
28.62,-6.53
28.90,-6.41
29.19,-6.29
29.48,-6.17
29.78,-6.04
30.08,-5.93
30.38,-5.84
30.68,-5.76
30.99,-5.67
31.30,-5.55
31.61,-5.43
31.93,-5.31
32.24,-5.19
32.57,-5.09
32.89,-4.97
33.22,-4.88
33.55,-4.77
33.89,-4.68
34.23,-4.56
34.57,-4.44
34.92,-4.33
35.27,-4.21
35.62,-4.10
35.97,-4.00
36.33,-3.90
36.70,-3.80
37.06,-3.71
37.43,-3.66
37.81,-3.61
38.19,-3.54
38.57,-3.42
38.95,-3.31
39.34,-3.21
39.74,-3.11
40.14,-3.01
40.54,-2.91
40.94,-2.80
41.35,-2.71
41.76,-2.62
42.18,-2.53
42.60,-2.41
43.03,-2.32
43.46,-2.24
43.90,-2.18
44.33,-2.10
44.78,-2.01
45.23,-1.91
45.68,-1.79
46.13,-1.69
46.60,-1.61
47.06,-1.55
47.53,-1.48
48.01,-1.42
48.49,-1.36
48.97,-1.29
49.46,-1.23
49.96,-1.19
50.46,-1.12
50.96,-1.05
51.47,-0.96
51.99,-0.86
52.51,-0.83
53.03,-0.81
53.56,-0.75
54.10,-0.68
54.64,-0.58
55.18,-0.52
55.74,-0.53
56.29,-0.50
56.86,-0.45
57.42,-0.35
58.00,-0.24
58.58,-0.24
59.16,-0.21
59.76,-0.08
60.35,-0.02
60.96,-0.01
61.57,0.06
62.18,0.12
62.80,0.14
63.43,0.17
64.07,0.21
64.71,0.30
65.35,0.40
66.01,0.48
66.67,0.50
67.33,0.52
68.01,0.57
68.69,0.55
69.37,0.54
70.07,0.57
70.77,0.57
71.48,0.58
72.19,0.58
72.91,0.56
73.64,0.49
74.38,0.49
75.12,0.54
75.87,0.55
76.63,0.68
77.40,0.74
78.17,0.71
78.95,0.72
79.74,0.74
80.54,0.76
81.35,0.81
82.16,0.89
82.98,0.98
83.81,0.93
84.65,0.99
85.50,1.07
86.35,1.13
87.22,1.13
88.09,1.10
88.97,1.20
89.86,1.25
90.76,1.27
91.66,1.28
92.58,1.29
93.51,1.26
94.44,1.19
95.39,1.15
96.34,1.19
97.30,1.19
98.28,1.19
99.26,1.18
100.25,1.13
101.25,1.11
102.27,1.22
103.29,1.32
104.32,1.37
105.37,1.28
106.42,1.28
107.48,1.38
108.56,1.49
109.64,1.51
110.74,1.41
111.85,1.46
112.97,1.53
114.10,1.65
115.24,1.66
116.39,1.62
117.55,1.60
118.73,1.59
119.92,1.58
121.12,1.58
122.33,1.56
123.55,1.62
124.79,1.71
126.03,1.67
127.29,1.62
128.57,1.58
129.85,1.52
131.15,1.54
132.46,1.56
133.79,1.56
135.12,1.54
136.48,1.54
137.84,1.53
139.22,1.52
140.61,1.52
142.02,1.51
143.44,1.51
144.87,1.51
146.32,1.51
147.78,1.52
149.26,1.53
150.75,1.55
152.26,1.46
153.78,1.43
155.32,1.52
156.88,1.64
158.44,1.62
160.03,1.46
161.63,1.42
163.24,1.41
164.88,1.37
166.53,1.34
168.19,1.39
169.87,1.41
171.57,1.47
173.29,1.47
175.02,1.44
176.77,1.41
178.54,1.37
180.32,1.34
182.13,1.32
183.95,1.30
185.79,1.28
187.65,1.27
189.52,1.27
191.42,1.27
193.33,1.28
195.27,1.28
197.22,1.25
199.19,1.14
201.18,1.09
203.19,1.21
205.23,1.31
207.28,1.21
209.35,1.13
211.44,1.12
213.56,1.13
215.69,1.13
217.85,1.13
220.03,1.13
222.23,1.14
224.45,1.14
226.70,1.14
228.96,1.14
231.25,1.09
233.57,1.04
235.90,0.96
238.26,0.96
240.64,0.96
243.05,1.02
245.48,1.08
247.93,0.96
250.41,0.91
252.92,0.92
255.45,0.92
258.00,0.93
260.58,0.94
263.19,0.92
265.82,0.77
268.48,0.78
271.16,0.83
273.87,0.84
276.61,0.84
279.38,0.83
282.17,0.84
284.99,0.83
287.84,0.84
290.72,0.84
293.63,0.85
296.57,0.85
299.53,0.86
302.53,0.87
305.55,0.82
308.61,0.69
311.69,0.74
314.81,0.79
317.96,0.79
321.14,0.70
324.35,0.72
327.59,0.85
330.87,1.10
334.18,1.24
337.52,1.18
340.90,1.17
344.30,1.17
347.75,1.12
351.23,1.11
354.74,1.13
358.28,1.15
361.87,1.17
365.49,1.18
369.14,1.13
372.83,1.09
376.56,1.12
380.33,1.17
384.13,1.23
387.97,1.16
391.85,1.10
395.77,1.01
399.73,1.04
403.72,1.03
407.76,0.98
411.84,0.97
415.96,0.98
420.12,0.99
424.32,1.03
428.56,1.02
432.85,0.94
437.18,0.93
441.55,0.90
445.96,0.88
450.42,0.82
454.93,0.82
459.48,0.84
464.07,0.88
468.71,0.89
473.40,0.91
478.13,0.94
482.91,0.95
487.74,0.97
492.62,1.00
497.55,0.93
502.52,0.90
507.55,0.92
512.62,0.92
517.75,0.88
522.93,0.80
528.16,0.74
533.44,0.77
538.77,0.77
544.16,0.72
549.60,0.73
555.10,0.74
560.65,0.76
566.25,0.75
571.92,0.72
577.64,0.64
583.41,0.58
589.25,0.59
595.14,0.62
601.09,0.56
607.10,0.54
613.17,0.52
619.30,0.52
625.50,0.53
631.75,0.47
638.07,0.42
644.45,0.36
650.89,0.34
657.40,0.36
663.98,0.37
670.62,0.39
677.32,0.40
684.10,0.35
690.94,0.35
697.85,0.30
704.83,0.28
711.87,0.29
718.99,0.27
726.18,0.22
733.44,0.21
740.78,0.22
748.19,0.23
755.67,0.24
763.23,0.34
770.86,0.38
778.57,0.38
786.35,0.38
794.22,0.39
802.16,0.40
810.18,0.41
818.28,0.41
826.46,0.41
834.73,0.40
843.08,0.39
851.51,0.36
860.02,0.36
868.62,0.35
877.31,0.23
886.08,0.09
894.94,0.06
903.89,0.06
912.93,0.04
922.06,0.03
931.28,0.00
940.59,0.04
950.00,0.00
959.50,-0.01
969.09,0.01
978.78,0.03
988.57,0.06
998.46,0.08
1008.44,0.12
1018.53,0.16
1028.71,0.11
1039.00,0.12
1049.39,0.17
1059.88,0.22
1070.48,0.20
1081.19,0.20
1092.00,0.24
1102.92,0.28
1113.95,0.24
1125.09,0.23
1136.34,0.19
1147.70,0.11
1159.18,0.13
1170.77,0.10
1182.48,0.02
1194.30,-0.02
1206.25,0.01
1218.31,0.01
1230.49,0.00
1242.80,0.04
1255.22,0.08
1267.78,0.07
1280.45,0.14
1293.26,0.21
1306.19,0.24
1319.25,0.31
1332.45,0.33
1345.77,0.39
1359.23,0.50
1372.82,0.55
1386.55,0.60
1400.41,0.70
1414.42,0.78
1428.56,0.90
1442.85,0.95
1457.28,1.00
1471.85,1.11
1486.57,1.27
1501.43,1.36
1516.45,1.43
1531.61,1.51
1546.93,1.59
1562.40,1.81
1578.02,1.92
1593.80,1.98
1609.74,2.04
1625.84,2.10
1642.10,2.23
1658.52,2.32
1675.10,2.38
1691.85,2.46
1708.77,2.55
1725.86,2.63
1743.12,2.73
1760.55,2.83
1778.15,2.88
1795.94,2.97
1813.90,3.11
1832.03,3.28
1850.36,3.50
1868.86,3.67
1887.55,3.81
1906.42,3.93
1925.49,4.04
1944.74,4.10
1964.19,4.22
1983.83,4.32
2003.67,4.36
2023.71,4.42
2043.94,4.53
2064.38,4.57
2085.03,4.60
2105.88,4.68
2126.94,4.68
2148.20,4.67
2169.69,4.71
2191.38,4.77
2213.30,4.78
2235.43,4.76
2257.78,4.76
2280.36,4.80
2303.17,4.78
2326.20,4.78
2349.46,4.86
2372.95,4.92
2396.68,4.88
2420.65,4.92
2444.86,5.00
2469.31,5.10
2494.00,5.20
2518.94,5.44
2544.13,5.58
2569.57,5.66
2595.27,5.73
2621.22,5.74
2647.43,5.78
2673.90,5.82
2700.64,5.89
2727.65,6.07
2754.93,6.19
2782.48,6.19
2810.30,6.10
2838.40,5.93
2866.79,5.73
2895.46,5.58
2924.41,5.30
2953.65,5.14
2983.19,5.01
3013.02,4.91
3043.15,4.96
3073.58,5.06
3104.32,5.20
3135.36,5.42
3166.72,5.62
3198.38,5.86
3230.37,6.42
3262.67,6.86
3295.30,7.30
3328.25,7.74
3361.53,8.34
3395.15,9.01
3429.10,9.62
3463.39,10.22
3498.03,10.69
3533.01,11.02
3568.34,11.42
3604.02,11.62
3640.06,11.71
3676.46,11.77
3713.22,11.69
3750.36,11.48
3787.86,11.21
3825.74,10.74
3864.00,10.49
3902.64,10.29
3941.66,9.85
3981.08,9.37
4020.89,8.99
4061.10,8.63
4101.71,8.17
4142.73,7.70
4184.15,7.32
4226.00,6.90
4268.26,6.41
4310.94,6.08
4354.05,5.74
4397.59,5.29
4441.56,5.01
4485.98,4.64
4530.84,4.48
4576.15,4.44
4621.91,4.41
4668.13,4.31
4714.81,4.25
4761.96,4.23
4809.58,4.13
4857.67,4.01
4906.25,3.85
4955.31,3.68
5004.87,3.46
5054.91,3.35
5105.46,3.26
5156.52,3.12
5208.08,2.99
5260.16,2.94
5312.77,2.86
5365.89,2.79
5419.55,2.70
5473.75,2.57
5528.49,2.31
5583.77,2.07
5639.61,1.75
5696.00,1.29
5752.96,0.93
5810.49,0.62
5868.60,0.60
5927.28,0.73
5986.56,0.54
6046.42,0.40
6106.89,0.09
6167.96,-0.31
6229.64,-0.49
6291.93,-0.81
6354.85,-1.37
6418.40,-1.67
6482.58,-1.63
6547.41,-1.56
6612.88,-1.55
6679.01,-1.39
6745.80,-1.22
6813.26,-1.07
6881.39,-0.89
6950.21,-0.53
7019.71,0.03
7089.91,0.24
7160.81,0.37
7232.41,0.19
7304.74,0.08
7377.79,0.15
7451.56,0.26
7526.08,0.42
7601.34,0.65
7677.35,0.99
7754.13,1.21
7831.67,1.18
7909.98,1.12
7989.08,1.24
8068.98,2.51
8149.67,2.94
8231.16,2.56
8313.47,2.82
8396.61,2.91
8480.57,3.47
8565.38,3.75
8651.03,2.72
8737.54,0.77
8824.92,0.12
8913.17,-0.62
9002.30,-1.52
9092.32,-1.85
9183.25,-2.19
9275.08,-2.52
9367.83,-3.14
9461.51,-3.80
9556.12,-4.24
9651.68,-4.64
9748.20,-4.70
9845.68,-4.23
9944.14,-3.49
10043.58,-2.34
10144.02,-1.26
10245.46,-0.24
10347.91,1.01
10451.39,1.68
10555.91,1.93
10661.46,1.93
10768.08,1.63
10875.76,1.51
10984.52,1.23
11094.36,0.61
11205.31,0.04
11317.36,-0.86
11430.53,-1.49
11544.84,-2.32
11660.29,-3.25
11776.89,-4.27
11894.66,-5.37
12013.60,-6.14
12133.74,-6.67
12255.08,-7.42
12377.63,-8.44
12501.41,-9.02
12626.42,-9.75
12752.68,-10.26
12880.21,-10.93
13009.01,-12.32
13139.10,-10.73
13270.49,-9.01
13403.20,-8.01
13537.23,-8.83
13672.60,-9.35
13809.33,-10.53
13947.42,-13.24
14086.90,-13.59
14227.77,-13.19
14370.04,-12.76
14513.74,-12.31
14658.88,-12.27
14805.47,-12.27
14953.52,-12.02
15103.06,-11.32
15254.09,-10.64
15406.63,-10.44
15560.70,-10.37
15716.30,-10.28
15873.47,-10.40
16032.20,-10.47
16192.52,-10.96
16354.45,-11.31
16517.99,-11.75
16683.17,-11.67
16850.01,-11.38
17018.51,-10.44
17188.69,-11.20
17360.58,-12.56
17534.18,-13.87
17709.53,-15.24
17886.62,-16.28
18065.49,-16.77
18246.14,-17.08
18428.60,-17.88
18612.89,-18.50
18799.02,-19.29
18987.01,-20.21
19176.88,-21.14
19368.65,-22.09
19562.33,-22.82
19757.96,-22.68
19955.54,-22.56
