frequency,raw,error,smoothed,error_smoothed,equalization,parametric_eq,fixed_band_eq,equalized_raw,equalized_smoothed,target
20.00,13.40,5.10,13.40,5.10,-5.11,-4.52,-2.97,8.29,8.29,8.29
20.20,13.45,5.11,13.45,5.11,-5.11,-4.58,-3.05,8.34,8.33,8.33
20.40,13.49,5.12,13.49,5.12,-5.12,-4.63,-3.14,8.37,8.37,8.37
20.61,13.54,5.14,13.54,5.14,-5.13,-4.69,-3.23,8.41,8.41,8.39
20.81,13.59,5.16,13.59,5.15,-5.15,-4.75,-3.32,8.44,8.44,8.43
21.02,13.63,5.16,13.63,5.17,-5.16,-4.80,-3.41,8.46,8.47,8.47
21.23,13.68,5.19,13.68,5.18,-5.19,-4.86,-3.51,8.49,8.49,8.49
21.44,13.72,5.21,13.72,5.21,-5.21,-4.91,-3.61,8.51,8.51,8.51
21.66,13.77,5.24,13.77,5.24,-5.24,-4.97,-3.71,8.53,8.53,8.53
21.87,13.81,5.27,13.81,5.27,-5.27,-5.02,-3.81,8.54,8.55,8.54
22.09,13.86,5.30,13.86,5.30,-5.30,-5.08,-3.92,8.56,8.56,8.56
22.31,13.91,5.34,13.91,5.34,-5.34,-5.13,-4.03,8.57,8.56,8.57
22.54,13.95,5.38,13.95,5.38,-5.38,-5.19,-4.15,8.57,8.57,8.57
22.76,14.00,5.42,14.00,5.42,-5.42,-5.24,-4.26,8.58,8.58,8.58
22.99,14.05,5.47,14.05,5.46,-5.46,-5.30,-4.38,8.59,8.59,8.58
23.22,14.09,5.50,14.09,5.50,-5.49,-5.35,-4.50,8.59,8.60,8.59
23.45,14.14,5.54,14.14,5.54,-5.53,-5.40,-4.63,8.61,8.61,8.60
23.69,14.18,5.57,14.18,5.57,-5.57,-5.46,-4.76,8.61,8.62,8.61
23.92,14.23,5.60,14.23,5.60,-5.60,-5.51,-4.89,8.63,8.63,8.63
24.16,14.27,5.62,14.27,5.63,-5.63,-5.56,-5.02,8.64,8.64,8.65
24.40,14.31,5.65,14.31,5.66,-5.66,-5.62,-5.15,8.65,8.65,8.66
24.65,14.36,5.70,14.36,5.69,-5.69,-5.67,-5.29,8.67,8.66,8.66
24.89,14.40,5.72,14.40,5.72,-5.72,-5.72,-5.43,8.68,8.68,8.68
25.14,14.44,5.75,14.44,5.75,-5.75,-5.77,-5.57,8.69,8.69,8.69
25.39,14.48,5.78,14.48,5.78,-5.79,-5.82,-5.71,8.69,8.69,8.70
25.65,14.52,5.81,14.52,5.82,-5.82,-5.87,-5.86,8.70,8.71,8.71
25.91,14.57,5.85,14.57,5.85,-5.85,-5.91,-6.00,8.72,8.72,8.72
26.16,14.61,5.88,14.61,5.88,-5.87,-5.96,-6.14,8.73,8.73,8.73
26.43,14.64,5.90,14.64,5.91,-5.90,-6.01,-6.29,8.74,8.74,8.73
26.69,14.68,5.93,14.68,5.93,-5.93,-6.05,-6.43,8.75,8.75,8.75
26.96,14.72,5.96,14.72,5.95,-5.96,-6.10,-6.57,8.76,8.76,8.76
27.23,14.76,5.99,14.76,5.98,-5.99,-6.14,-6.71,8.77,8.77,8.77
27.50,14.80,6.01,14.80,6.01,-6.01,-6.18,-6.84,8.78,8.79,8.79
27.77,14.84,6.05,14.84,6.04,-6.04,-6.22,-6.97,8.80,8.80,8.79
28.05,14.88,6.07,14.88,6.07,-6.07,-6.26,-7.10,8.81,8.81,8.81
28.33,14.91,6.10,14.91,6.10,-6.10,-6.30,-7.22,8.81,8.82,8.81
28.62,14.95,6.12,14.95,6.12,-6.12,-6.34,-7.33,8.83,8.83,8.83
28.90,14.99,6.15,14.98,6.15,-6.15,-6.37,-7.43,8.84,8.84,8.84
29.19,15.02,6.17,15.02,6.17,-6.17,-6.41,-7.53,8.85,8.85,8.85
29.48,15.05,6.18,15.05,6.19,-6.19,-6.44,-7.62,8.86,8.86,8.87
29.78,15.09,6.21,15.09,6.21,-6.21,-6.47,-7.69,8.88,8.88,8.87
30.08,15.12,6.23,15.12,6.23,-6.23,-6.50,-7.76,8.89,8.89,8.88
30.38,15.14,6.25,15.14,6.25,-6.24,-6.53,-7.82,8.90,8.90,8.89
30.68,15.16,6.26,15.16,6.26,-6.26,-6.56,-7.86,8.90,8.90,8.90
30.99,15.18,6.27,15.18,6.27,-6.28,-6.59,-7.89,8.90,8.90,8.91
31.30,15.21,6.29,15.21,6.29,-6.30,-6.61,-7.91,8.91,8.91,8.92
31.61,15.25,6.31,15.24,6.31,-6.32,-6.63,-7.91,8.93,8.93,8.94
31.93,15.28,6.34,15.28,6.34,-6.34,-6.65,-7.90,8.94,8.94,8.94
32.24,15.31,6.36,15.31,6.36,-6.36,-6.67,-7.88,8.95,8.95,8.95
32.57,15.34,6.38,15.34,6.38,-6.38,-6.69,-7.85,8.96,8.96,8.95
32.89,15.36,6.39,15.36,6.40,-6.39,-6.71,-7.81,8.97,8.97,8.97
33.22,15.39,6.42,15.39,6.41,-6.41,-6.72,-7.76,8.98,8.98,8.97
33.55,15.41,6.42,15.41,6.42,-6.43,-6.73,-7.70,8.98,8.98,8.99
33.89,15.43,6.44,15.43,6.44,-6.44,-6.74,-7.63,8.99,8.99,8.99
34.23,15.45,6.44,15.45,6.45,-6.45,-6.75,-7.55,9.00,9.00,9.01
34.57,15.47,6.46,15.47,6.46,-6.46,-6.76,-7.47,9.01,9.01,9.00
34.92,15.49,6.48,15.49,6.47,-6.47,-6.76,-7.38,9.02,9.01,9.01
35.27,15.50,6.48,15.50,6.49,-6.48,-6.76,-7.28,9.02,9.02,9.02
35.62,15.51,6.49,15.51,6.49,-6.49,-6.77,-7.19,9.02,9.02,9.02
35.97,15.53,6.51,15.52,6.50,-6.50,-6.76,-7.09,9.03,9.02,9.02
36.33,15.53,6.49,15.53,6.51,-6.51,-6.76,-6.98,9.02,9.03,9.03
36.70,15.54,6.51,15.54,6.51,-6.51,-6.76,-6.88,9.03,9.03,9.03
37.06,15.54,6.52,15.54,6.51,-6.52,-6.75,-6.78,9.02,9.03,9.02
37.43,15.55,6.52,15.55,6.53,-6.52,-6.75,-6.67,9.03,9.03,9.03
37.81,15.56,6.53,15.56,6.53,-6.53,-6.74,-6.57,9.03,9.03,9.02
38.19,15.56,6.54,15.56,6.53,-6.53,-6.73,-6.46,9.02,9.02,9.02
38.57,15.56,6.53,15.56,6.54,-6.54,-6.71,-6.36,9.02,9.02,9.03
38.95,15.56,6.54,15.56,6.54,-6.55,-6.70,-6.26,9.01,9.01,9.02
39.34,15.57,6.56,15.57,6.55,-6.56,-6.68,-6.17,9.01,9.01,9.01
39.74,15.57,6.57,15.57,6.57,-6.57,-6.67,-6.07,9.00,9.01,9.00
40.14,15.58,6.57,15.58,6.58,-6.57,-6.65,-5.98,9.01,9.01,9.01
40.54,15.58,6.59,15.58,6.58,-6.57,-6.63,-5.90,9.01,9.01,8.99
40.94,15.58,6.58,15.58,6.58,-6.57,-6.61,-5.81,9.01,9.00,9.00
41.35,15.57,6.57,15.57,6.57,-6.57,-6.59,-5.73,9.00,9.00,9.00
41.76,15.56,6.57,15.56,6.57,-6.57,-6.56,-5.65,8.99,9.00,8.99
42.18,15.56,6.56,15.55,6.56,-6.56,-6.54,-5.58,9.00,8.99,9.00
42.60,15.55,6.55,15.55,6.55,-6.56,-6.51,-5.51,8.99,8.99,9.00
43.03,15.54,6.54,15.54,6.55,-6.55,-6.49,-5.45,8.99,8.99,9.00
43.46,15.54,6.54,15.54,6.54,-6.55,-6.46,-5.39,8.99,8.99,9.00
43.90,15.54,6.55,15.54,6.54,-6.54,-6.43,-5.33,9.00,8.99,8.99
44.33,15.53,6.54,15.53,6.54,-6.53,-6.40,-5.28,8.99,9.00,8.99
44.78,15.52,6.54,15.52,6.53,-6.53,-6.38,-5.23,8.99,8.99,8.98
45.23,15.50,6.51,15.50,6.52,-6.51,-6.35,-5.18,8.99,8.99,8.99
45.68,15.48,6.50,15.48,6.50,-6.50,-6.32,-5.14,8.98,8.98,8.98
46.13,15.46,6.47,15.46,6.47,-6.47,-6.29,-5.10,8.98,8.99,8.99
46.60,15.45,6.45,15.45,6.45,-6.45,-6.26,-5.07,9.00,9.00,9.00
47.06,15.43,6.43,15.43,6.43,-6.42,-6.22,-5.04,9.01,9.00,8.99
47.53,15.40,6.40,15.40,6.40,-6.40,-6.19,-5.02,9.00,9.01,9.00
48.01,15.37,6.36,15.37,6.36,-6.37,-6.16,-4.99,9.00,9.00,9.01
48.49,15.34,6.33,15.34,6.33,-6.34,-6.13,-4.98,9.00,9.00,9.01
48.97,15.30,6.31,15.30,6.31,-6.31,-6.10,-4.96,8.98,8.99,8.99
49.46,15.27,6.29,15.27,6.29,-6.29,-6.07,-4.95,8.98,8.98,8.98
49.96,15.23,6.26,15.23,6.26,-6.26,-6.04,-4.94,8.97,8.97,8.96
50.46,15.21,6.23,15.21,6.24,-6.24,-6.02,-4.93,8.97,8.97,8.98
50.96,15.18,6.21,15.18,6.22,-6.21,-5.99,-4.93,8.96,8.96,8.97
51.47,15.15,6.20,15.15,6.19,-6.19,-5.96,-4.93,8.96,8.96,8.95
51.99,15.12,6.17,15.12,6.17,-6.16,-5.93,-4.93,8.96,8.96,8.95
52.51,15.08,6.13,15.08,6.13,-6.13,-5.90,-4.93,8.95,8.95,8.95
53.03,15.04,6.09,15.03,6.09,-6.09,-5.88,-4.94,8.95,8.94,8.94
53.56,14.98,6.04,14.98,6.05,-6.05,-5.85,-4.94,8.93,8.93,8.93
54.10,14.92,6.00,14.93,6.01,-6.01,-5.82,-4.95,8.91,8.92,8.92
54.64,14.87,5.96,14.87,5.96,-5.96,-5.79,-4.95,8.91,8.90,8.91
55.18,14.81,5.91,14.81,5.91,-5.91,-5.76,-4.96,8.90,8.89,8.89
55.74,14.74,5.87,14.74,5.86,-5.86,-5.73,-4.97,8.88,8.88,8.87
56.29,14.67,5.80,14.67,5.80,-5.80,-5.70,-4.98,8.86,8.87,8.87
56.86,14.60,5.75,14.60,5.75,-5.75,-5.66,-4.98,8.85,8.85,8.85
57.42,14.52,5.69,14.52,5.69,-5.68,-5.61,-4.99,8.83,8.84,8.83
58.00,14.44,5.62,14.44,5.62,-5.62,-5.57,-4.99,8.82,8.82,8.82
58.58,14.35,5.55,14.35,5.55,-5.55,-5.51,-5.00,8.80,8.80,8.80
59.16,14.27,5.48,14.27,5.48,-5.48,-5.46,-5.00,8.79,8.79,8.79
59.76,14.18,5.40,14.18,5.40,-5.41,-5.39,-5.00,8.77,8.77,8.78
60.35,14.08,5.33,14.08,5.33,-5.33,-5.32,-5.00,8.75,8.75,8.75
60.96,13.98,5.25,13.98,5.25,-5.25,-5.25,-4.99,8.73,8.73,8.73
61.57,13.86,5.17,13.86,5.17,-5.16,-5.17,-4.98,8.70,8.70,8.69
62.18,13.75,5.08,13.75,5.08,-5.08,-5.09,-4.97,8.67,8.67,8.67
62.80,13.63,4.99,13.63,4.99,-4.98,-5.00,-4.96,8.64,8.64,8.64
63.43,13.50,4.88,13.50,4.89,-4.89,-4.90,-4.94,8.61,8.62,8.62
64.07,13.38,4.79,13.38,4.79,-4.78,-4.81,-4.92,8.60,8.59,8.59
64.71,13.25,4.68,13.25,4.68,-4.68,-4.71,-4.90,8.57,8.57,8.57
65.35,13.11,4.56,13.11,4.56,-4.56,-4.61,-4.88,8.54,8.55,8.54
66.01,12.97,4.44,12.97,4.45,-4.45,-4.50,-4.85,8.52,8.52,8.52
66.67,12.83,4.33,12.83,4.33,-4.33,-4.40,-4.83,8.50,8.50,8.50
67.33,12.69,4.22,12.69,4.22,-4.21,-4.28,-4.80,8.47,8.47,8.47
68.01,12.54,4.09,12.54,4.10,-4.09,-4.17,-4.76,8.45,8.45,8.45
68.69,12.40,3.98,12.40,3.98,-3.98,-4.06,-4.73,8.42,8.42,8.42
69.37,12.25,3.85,12.25,3.86,-3.86,-3.94,-4.70,8.39,8.39,8.39
70.07,12.12,3.75,12.12,3.75,-3.75,-3.82,-4.66,8.37,8.37,8.37
70.77,11.99,3.64,11.99,3.64,-3.65,-3.71,-4.63,8.34,8.34,8.35
71.48,11.87,3.54,11.87,3.54,-3.54,-3.61,-4.59,8.33,8.32,8.33
72.19,11.75,3.45,11.75,3.45,-3.45,-3.51,-4.56,8.30,8.30,8.30
72.91,11.65,3.37,11.65,3.37,-3.37,-3.44,-4.52,8.28,8.28,8.28
73.64,11.55,3.29,11.55,3.29,-3.29,-3.38,-4.49,8.26,8.26,8.25
74.38,11.46,3.22,11.46,3.22,-3.22,-3.34,-4.45,8.24,8.24,8.24
75.12,11.39,3.17,11.38,3.16,-3.16,-3.32,-4.42,8.23,8.22,8.22
75.87,11.32,3.10,11.32,3.11,-3.11,-3.32,-4.39,8.20,8.21,8.22
76.63,11.27,3.07,11.27,3.07,-3.08,-3.33,-4.36,8.19,8.20,8.20
77.40,11.24,3.05,11.24,3.05,-3.05,-3.35,-4.33,8.19,8.19,8.19
78.17,11.22,3.05,11.22,3.04,-3.04,-3.37,-4.31,8.18,8.18,8.17
78.95,11.20,3.03,11.21,3.03,-3.03,-3.40,-4.28,8.16,8.17,8.17
79.74,11.21,3.04,11.21,3.04,-3.05,-3.43,-4.26,8.16,8.16,8.16
80.54,11.22,3.06,11.22,3.06,-3.07,-3.45,-4.24,8.15,8.15,8.15
81.35,11.24,3.10,11.24,3.10,-3.11,-3.47,-4.23,8.13,8.14,8.14
82.16,11.28,3.15,11.28,3.15,-3.15,-3.49,-4.21,8.13,8.13,8.13
82.98,11.33,3.20,11.33,3.20,-3.20,-3.50,-4.20,8.13,8.12,8.13
83.81,11.38,3.27,11.38,3.27,-3.26,-3.51,-4.20,8.12,8.12,8.11
84.65,11.44,3.33,11.43,3.33,-3.32,-3.52,-4.19,8.12,8.11,8.11
85.50,11.49,3.39,11.49,3.39,-3.39,-3.52,-4.19,8.10,8.10,8.10
86.35,11.54,3.45,11.54,3.45,-3.45,-3.53,-4.19,8.09,8.09,8.09
87.22,11.60,3.52,11.60,3.52,-3.52,-3.53,-4.20,8.08,8.08,8.08
88.09,11.66,3.59,11.65,3.58,-3.58,-3.53,-4.21,8.08,8.07,8.07
88.97,11.71,3.64,11.71,3.64,-3.64,-3.53,-4.22,8.07,8.07,8.07
89.86,11.75,3.69,11.75,3.70,-3.70,-3.53,-4.23,8.05,8.06,8.06
90.76,11.80,3.76,11.80,3.75,-3.75,-3.53,-4.25,8.05,8.05,8.04
91.66,11.84,3.79,11.84,3.80,-3.79,-3.53,-4.27,8.04,8.04,8.04
92.58,11.87,3.84,11.87,3.84,-3.83,-3.53,-4.30,8.03,8.04,8.03
93.51,11.90,3.87,11.90,3.86,-3.87,-3.53,-4.32,8.03,8.03,8.03
94.44,11.91,3.89,11.91,3.89,-3.89,-3.54,-4.35,8.02,8.02,8.02
95.39,11.92,3.90,11.92,3.91,-3.91,-3.54,-4.39,8.01,8.01,8.01
96.34,11.92,3.93,11.91,3.92,-3.91,-3.54,-4.42,8.00,8.00,7.99
97.30,11.90,3.92,11.90,3.92,-3.91,-3.54,-4.46,7.98,7.99,7.98
98.28,11.88,3.91,11.88,3.91,-3.91,-3.55,-4.50,7.97,7.97,7.97
99.26,11.85,3.90,11.85,3.90,-3.90,-3.56,-4.54,7.95,7.95,7.95
100.25,11.82,3.88,11.81,3.87,-3.88,-3.56,-4.59,7.94,7.93,7.94
101.25,11.78,3.86,11.78,3.86,-3.87,-3.57,-4.63,7.91,7.91,7.92
102.27,11.73,3.83,11.74,3.84,-3.84,-3.58,-4.68,7.88,7.90,7.90
103.29,11.71,3.84,11.70,3.82,-3.82,-3.60,-4.73,7.89,7.88,7.87
104.32,11.67,3.80,11.66,3.80,-3.80,-3.61,-4.78,7.87,7.86,7.86
105.37,11.61,3.77,11.62,3.78,-3.77,-3.62,-4.83,7.84,7.84,7.84
106.42,11.56,3.74,11.56,3.75,-3.74,-3.64,-4.88,7.82,7.82,7.82
107.48,11.50,3.71,11.50,3.71,-3.71,-3.66,-4.93,7.79,7.79,7.79
108.56,11.44,3.69,11.44,3.68,-3.68,-3.68,-4.98,7.76,7.76,7.75
109.64,11.36,3.64,11.36,3.65,-3.64,-3.70,-5.03,7.72,7.72,7.72
110.74,11.30,3.62,11.29,3.61,-3.61,-3.73,-5.08,7.69,7.68,7.68
111.85,11.22,3.57,11.22,3.58,-3.59,-3.75,-5.12,7.63,7.64,7.65
112.97,11.16,3.56,11.16,3.56,-3.57,-3.78,-5.16,7.59,7.59,7.60
114.10,11.12,3.56,11.11,3.55,-3.56,-3.81,-5.20,7.56,7.55,7.56
115.24,11.07,3.54,11.08,3.55,-3.56,-3.85,-5.24,7.51,7.52,7.52
116.39,11.05,3.57,11.04,3.56,-3.56,-3.88,-5.27,7.49,7.48,7.48
117.55,11.02,3.58,11.02,3.58,-3.58,-3.92,-5.30,7.44,7.44,7.44
118.73,11.00,3.61,11.00,3.61,-3.60,-3.96,-5.32,7.40,7.40,7.39
119.92,11.00,3.64,11.00,3.64,-3.63,-4.00,-5.34,7.37,7.36,7.35
121.12,11.00,3.68,11.00,3.68,-3.67,-4.04,-5.35,7.32,7.32,7.32
122.33,11.01,3.73,11.01,3.72,-3.73,-4.09,-5.35,7.28,7.28,7.28
123.55,11.03,3.77,11.04,3.78,-3.79,-4.14,-5.35,7.24,7.24,7.26
124.79,11.08,3.86,11.08,3.86,-3.87,-4.19,-5.35,7.21,7.20,7.22
126.03,11.14,3.95,11.13,3.95,-3.97,-4.24,-5.33,7.17,7.16,7.18
127.29,11.20,4.05,11.20,4.06,-4.07,-4.30,-5.31,7.13,7.13,7.15
128.57,11.28,4.17,11.30,4.19,-4.18,-4.36,-5.29,7.09,7.11,7.11
129.85,11.41,4.33,11.40,4.32,-4.31,-4.42,-5.26,7.10,7.09,7.08
131.15,11.52,4.47,11.50,4.44,-4.43,-4.49,-5.22,7.09,7.06,7.05
132.46,11.58,4.55,11.60,4.58,-4.56,-4.55,-5.18,7.02,7.04,7.03
133.79,11.69,4.68,11.70,4.69,-4.69,-4.62,-5.13,7.00,7.01,7.01
135.12,11.82,4.85,11.79,4.82,-4.82,-4.69,-5.08,7.00,6.98,6.97
136.48,11.88,4.93,11.89,4.94,-4.94,-4.76,-5.02,6.94,6.95,6.95
137.84,11.99,5.06,11.98,5.05,-5.06,-4.84,-4.96,6.93,6.92,6.93
139.22,12.06,5.17,12.07,5.17,-5.18,-4.92,-4.90,6.88,6.89,6.89
140.61,12.16,5.29,12.17,5.29,-5.29,-5.00,-4.84,6.87,6.88,6.87
142.02,12.29,5.42,12.27,5.41,-5.40,-5.08,-4.77,6.88,6.86,6.87
143.44,12.35,5.51,12.36,5.52,-5.51,-5.16,-4.70,6.84,6.84,6.84
144.87,12.44,5.63,12.44,5.63,-5.62,-5.25,-4.62,6.82,6.82,6.81
146.32,12.50,5.72,12.50,5.72,-5.72,-5.33,-4.55,6.78,6.79,6.78
147.78,12.58,5.81,12.57,5.81,-5.81,-5.42,-4.48,6.77,6.76,6.77
149.26,12.63,5.89,12.63,5.89,-5.90,-5.51,-4.40,6.73,6.73,6.74
150.75,12.69,5.98,12.69,5.98,-5.99,-5.59,-4.33,6.70,6.70,6.71
152.26,12.73,6.06,12.74,6.06,-6.06,-5.68,-4.26,6.66,6.67,6.67
153.78,12.79,6.14,12.79,6.14,-6.14,-5.77,-4.19,6.65,6.65,6.65
155.32,12.83,6.21,12.83,6.21,-6.20,-5.85,-4.11,6.63,6.63,6.62
156.88,12.86,6.27,12.85,6.26,-6.26,-5.94,-4.04,6.60,6.60,6.59
158.44,12.86,6.30,12.86,6.30,-6.30,-6.02,-3.98,6.56,6.56,6.56
160.03,12.85,6.33,12.86,6.34,-6.34,-6.10,-3.91,6.51,6.52,6.52
161.63,12.85,6.36,12.85,6.36,-6.36,-6.17,-3.85,6.49,6.49,6.49
163.24,12.84,6.39,12.83,6.38,-6.38,-6.25,-3.78,6.46,6.46,6.45
164.88,12.81,6.38,12.81,6.39,-6.38,-6.31,-3.72,6.43,6.43,6.43
166.53,12.77,6.38,12.77,6.38,-6.38,-6.37,-3.67,6.39,6.39,6.39
168.19,12.73,6.37,12.73,6.37,-6.37,-6.43,-3.61,6.36,6.36,6.36
169.87,12.68,6.36,12.68,6.36,-6.36,-6.47,-3.56,6.32,6.32,6.32
171.57,12.62,6.33,12.62,6.34,-6.34,-6.51,-3.51,6.28,6.28,6.28
173.29,12.57,6.33,12.56,6.32,-6.32,-6.55,-3.46,6.25,6.24,6.24
175.02,12.49,6.29,12.49,6.30,-6.30,-6.57,-3.42,6.19,6.19,6.20
176.77,12.42,6.26,12.43,6.27,-6.28,-6.58,-3.37,6.14,6.15,6.15
178.54,12.36,6.26,12.36,6.25,-6.25,-6.58,-3.34,6.11,6.10,6.10
180.32,12.29,6.24,12.28,6.23,-6.23,-6.57,-3.30,6.06,6.05,6.05
182.13,12.21,6.20,12.20,6.20,-6.20,-6.55,-3.26,6.01,6.00,6.01
183.95,12.10,6.14,12.12,6.16,-6.16,-6.52,-3.23,5.94,5.96,5.96
185.79,12.04,6.13,12.04,6.13,-6.12,-6.47,-3.20,5.91,5.91,5.91
187.65,11.96,6.10,11.95,6.09,-6.08,-6.42,-3.18,5.88,5.87,5.86
189.52,11.86,6.04,11.86,6.04,-6.04,-6.35,-3.15,5.82,5.82,5.82
191.42,11.75,5.98,11.75,5.98,-5.98,-6.27,-3.13,5.77,5.77,5.77
193.33,11.64,5.91,11.64,5.91,-5.93,-6.19,-3.11,5.71,5.72,5.73
195.27,11.53,5.84,11.54,5.85,-5.86,-6.09,-3.09,5.67,5.68,5.69
197.22,11.43,5.79,11.43,5.79,-5.79,-5.98,-3.08,5.64,5.64,5.64
199.19,11.32,5.73,11.31,5.72,-5.71,-5.86,-3.06,5.61,5.61,5.59
201.18,11.18,5.63,11.18,5.63,-5.62,-5.73,-3.05,5.56,5.56,5.55
203.19,11.04,5.52,11.04,5.53,-5.52,-5.60,-3.04,5.52,5.52,5.52
205.23,10.89,5.41,10.89,5.41,-5.42,-5.46,-3.03,5.47,5.47,5.48
207.28,10.74,5.29,10.74,5.30,-5.31,-5.31,-3.02,5.43,5.43,5.45
209.35,10.59,5.19,10.59,5.19,-5.19,-5.16,-3.01,5.40,5.40,5.40
211.44,10.43,5.08,10.43,5.07,-5.07,-5.00,-3.00,5.36,5.36,5.35
213.56,10.27,4.95,10.26,4.94,-4.94,-4.84,-2.99,5.33,5.32,5.32
215.69,10.09,4.80,10.09,4.80,-4.81,-4.67,-2.98,5.28,5.28,5.29
217.85,9.90,4.65,9.92,4.67,-4.67,-4.50,-2.97,5.23,5.25,5.25
220.03,9.77,4.55,9.76,4.54,-4.53,-4.33,-2.96,5.24,5.23,5.22
222.23,9.60,4.41,9.59,4.40,-4.38,-4.16,-2.94,5.22,5.21,5.19
224.45,9.40,4.23,9.40,4.23,-4.22,-3.98,-2.93,5.18,5.18,5.17
226.70,9.21,4.06,9.21,4.06,-4.06,-3.81,-2.91,5.15,5.14,5.15
228.96,9.00,3.87,9.02,3.89,-3.90,-3.63,-2.89,5.10,5.12,5.13
231.25,8.86,3.74,8.84,3.72,-3.73,-3.46,-2.87,5.13,5.11,5.12
233.57,8.67,3.56,8.66,3.56,-3.56,-3.28,-2.84,5.11,5.10,5.11
235.90,8.46,3.36,8.48,3.39,-3.38,-3.10,-2.81,5.08,5.10,5.10
238.26,8.31,3.23,8.29,3.20,-3.20,-2.93,-2.78,5.11,5.10,5.08
240.64,8.10,3.01,8.11,3.02,-3.01,-2.75,-2.74,5.09,5.10,5.09
243.05,7.93,2.84,7.92,2.83,-2.82,-2.58,-2.70,5.11,5.10,5.09
245.48,7.72,2.63,7.72,2.63,-2.63,-2.40,-2.65,5.09,5.09,5.09
247.93,7.50,2.41,7.52,2.43,-2.44,-2.23,-2.60,5.06,5.08,5.09
250.41,7.34,2.25,7.32,2.22,-2.24,-2.06,-2.54,5.10,5.08,5.09
252.92,7.13,2.02,7.14,2.03,-2.04,-1.89,-2.48,5.08,5.10,5.11
255.45,6.97,1.84,6.97,1.85,-1.85,-1.72,-2.42,5.12,5.12,5.13
258.00,6.81,1.67,6.79,1.66,-1.65,-1.55,-2.34,5.16,5.14,5.13
260.58,6.61,1.47,6.61,1.47,-1.46,-1.38,-2.27,5.15,5.16,5.14
263.19,6.43,1.27,6.42,1.27,-1.26,-1.22,-2.19,5.17,5.16,5.16
265.82,6.22,1.06,6.24,1.07,-1.07,-1.05,-2.10,5.15,5.17,5.16
268.48,6.06,0.87,6.06,0.87,-0.88,-0.88,-2.01,5.18,5.18,5.19
271.16,5.90,0.69,5.87,0.67,-0.69,-0.72,-1.92,5.21,5.18,5.21
273.87,5.68,0.47,5.70,0.48,-0.50,-0.55,-1.82,5.18,5.20,5.21
276.61,5.52,0.29,5.53,0.30,-0.31,-0.39,-1.72,5.21,5.22,5.23
279.38,5.37,0.13,5.37,0.13,-0.11,-0.22,-1.61,5.26,5.25,5.24
282.17,5.21,-0.04,5.20,-0.05,0.08,-0.06,-1.50,5.29,5.28,5.25
284.99,5.04,-0.23,5.02,-0.25,0.27,0.11,-1.39,5.30,5.28,5.27
287.84,4.80,-0.48,4.82,-0.46,0.45,0.28,-1.27,5.25,5.27,5.28
290.72,4.63,-0.67,4.63,-0.66,0.64,0.45,-1.16,5.27,5.27,5.29
293.63,4.45,-0.85,4.45,-0.85,0.83,0.62,-1.03,5.28,5.28,5.30
296.57,4.29,-1.03,4.29,-1.03,1.03,0.79,-0.91,5.31,5.32,5.32
299.53,4.13,-1.20,4.13,-1.20,1.21,0.96,-0.79,5.34,5.34,5.33
302.53,3.96,-1.38,3.95,-1.38,1.40,1.14,-0.66,5.36,5.35,5.33
305.55,3.78,-1.57,3.77,-1.58,1.58,1.31,-0.53,5.36,5.35,5.35
308.61,3.58,-1.78,3.59,-1.77,1.76,1.49,-0.40,5.34,5.35,5.36
311.69,3.41,-1.97,3.42,-1.95,1.94,1.68,-0.27,5.35,5.36,5.38
314.81,3.28,-2.12,3.27,-2.12,2.12,1.87,-0.14,5.40,5.39,5.40
317.96,3.13,-2.27,3.12,-2.29,2.30,2.06,-0.00,5.43,5.42,5.40
321.14,2.95,-2.46,2.95,-2.47,2.48,2.25,0.13,5.43,5.43,5.41
324.35,2.77,-2.65,2.77,-2.65,2.66,2.45,0.27,5.43,5.42,5.42
327.59,2.57,-2.86,2.59,-2.84,2.84,2.66,0.41,5.40,5.43,5.43
330.87,2.43,-3.01,2.42,-3.02,3.01,2.87,0.55,5.44,5.43,5.44
334.18,2.26,-3.19,2.25,-3.19,3.19,3.08,0.69,5.45,5.44,5.45
337.52,2.07,-3.38,2.08,-3.37,3.37,3.29,0.83,5.44,5.46,5.44
340.90,1.92,-3.54,1.91,-3.55,3.55,3.51,0.97,5.47,5.46,5.46
344.30,1.74,-3.72,1.74,-3.72,3.72,3.72,1.11,5.46,5.46,5.46
347.75,1.58,-3.89,1.58,-3.89,3.89,3.94,1.26,5.47,5.47,5.47
351.23,1.40,-4.07,1.41,-4.06,4.06,4.15,1.40,5.46,5.47,5.47
354.74,1.26,-4.21,1.25,-4.22,4.22,4.36,1.55,5.48,5.48,5.47
358.28,1.09,-4.39,1.09,-4.38,4.39,4.55,1.70,5.48,5.48,5.48
361.87,0.94,-4.54,0.94,-4.54,4.54,4.74,1.84,5.48,5.48,5.48
365.49,0.78,-4.70,0.78,-4.69,4.69,4.90,1.99,5.47,5.47,5.47
369.14,0.63,-4.83,0.63,-4.83,4.83,5.05,2.15,5.46,5.47,5.46
372.83,0.50,-4.96,0.49,-4.97,4.97,5.18,2.30,5.47,5.46,5.46
376.56,0.36,-5.10,0.37,-5.09,5.09,5.28,2.45,5.45,5.46,5.46
380.33,0.26,-5.21,0.26,-5.20,5.20,5.36,2.60,5.46,5.46,5.47
384.13,0.17,-5.29,0.16,-5.30,5.30,5.41,2.76,5.47,5.46,5.46
387.97,0.08,-5.38,0.08,-5.38,5.38,5.44,2.92,5.46,5.46,5.46
391.85,-0.00,-5.45,-0.00,-5.45,5.45,5.45,3.07,5.45,5.45,5.45
395.77,-0.07,-5.53,-0.06,-5.51,5.51,5.44,3.23,5.44,5.45,5.46
399.73,-0.10,-5.55,-0.10,-5.55,5.55,5.42,3.39,5.45,5.45,5.45
403.72,-0.12,-5.57,-0.13,-5.58,5.58,5.38,3.55,5.46,5.45,5.45
407.76,-0.14,-5.59,-0.14,-5.59,5.59,5.33,3.70,5.45,5.45,5.44
411.84,-0.14,-5.60,-0.14,-5.59,5.58,5.28,3.86,5.44,5.44,5.45
415.96,-0.12,-5.57,-0.12,-5.58,5.56,5.22,4.02,5.44,5.44,5.45
420.12,-0.09,-5.54,-0.09,-5.54,5.53,5.17,4.17,5.43,5.44,5.45
424.32,-0.03,-5.48,-0.03,-5.48,5.48,5.11,4.33,5.45,5.44,5.45
428.56,0.03,-5.41,0.03,-5.41,5.41,5.06,4.48,5.44,5.45,5.44
432.85,0.11,-5.33,0.11,-5.34,5.34,5.01,4.63,5.45,5.45,5.44
437.18,0.19,-5.25,0.19,-5.26,5.26,4.96,4.78,5.45,5.45,5.44
441.55,0.27,-5.18,0.27,-5.17,5.18,4.92,4.92,5.45,5.45,5.45
445.96,0.36,-5.09,0.36,-5.09,5.09,4.89,5.06,5.45,5.45,5.45
450.42,0.45,-4.99,0.44,-5.00,5.00,4.85,5.19,5.45,5.45,5.44
454.93,0.52,-4.93,0.53,-4.91,4.92,4.83,5.32,5.44,5.45,5.45
459.48,0.62,-4.83,0.61,-4.84,4.84,4.81,5.45,5.46,5.45,5.45
464.07,0.70,-4.75,0.69,-4.76,4.76,4.79,5.56,5.46,5.45,5.45
468.71,0.76,-4.70,0.77,-4.68,4.68,4.78,5.67,5.44,5.45,5.46
473.40,0.84,-4.61,0.83,-4.62,4.62,4.77,5.78,5.46,5.45,5.45
478.13,0.90,-4.56,0.90,-4.55,4.55,4.76,5.87,5.45,5.45,5.46
482.91,0.96,-4.50,0.96,-4.49,4.50,4.76,5.95,5.46,5.46,5.46
487.74,1.02,-4.44,1.01,-4.44,4.45,4.76,6.03,5.47,5.47,5.46
492.62,1.06,-4.41,1.06,-4.40,4.41,4.77,6.10,5.47,5.47,5.47
497.55,1.09,-4.37,1.09,-4.37,4.37,4.78,6.15,5.46,5.46,5.46
502.52,1.11,-4.36,1.11,-4.35,4.34,4.79,6.20,5.45,5.45,5.47
507.55,1.14,-4.32,1.14,-4.32,4.31,4.80,6.24,5.45,5.45,5.46
