frequency,raw,error,smoothed,error_smoothed,equalization,parametric_eq,fixed_band_eq,equalized_raw,equalized_smoothed,target
20.00,-10.14,-11.69,-10.15,-11.69,6.00,5.07,2.74,-4.14,-4.15,1.55
20.20,-10.03,-11.58,-10.03,-11.58,6.00,5.14,2.82,-4.03,-4.03,1.55
20.40,-9.91,-11.47,-9.92,-11.48,6.00,5.21,2.90,-3.91,-3.92,1.56
20.61,-9.81,-11.37,-9.80,-11.37,6.00,5.28,2.98,-3.81,-3.80,1.57
20.81,-9.68,-11.25,-9.69,-11.26,6.00,5.34,3.06,-3.68,-3.69,1.57
21.02,-9.57,-11.15,-9.57,-11.15,6.00,5.41,3.15,-3.57,-3.57,1.58
21.23,-9.45,-11.03,-9.46,-11.04,6.00,5.48,3.24,-3.45,-3.46,1.58
21.44,-9.34,-10.93,-9.34,-10.93,6.00,5.54,3.33,-3.34,-3.34,1.59
21.66,-9.23,-10.82,-9.23,-10.82,6.00,5.60,3.42,-3.23,-3.23,1.60
21.87,-9.11,-10.71,-9.11,-10.71,6.00,5.66,3.52,-3.11,-3.11,1.60
22.09,-8.99,-10.60,-8.99,-10.60,6.00,5.72,3.62,-2.99,-2.99,1.61
22.31,-8.87,-10.49,-8.88,-10.49,6.00,5.78,3.72,-2.87,-2.88,1.62
22.54,-8.77,-10.38,-8.76,-10.38,6.00,5.83,3.82,-2.77,-2.76,1.62
22.76,-8.64,-10.27,-8.65,-10.28,6.00,5.89,3.93,-2.64,-2.65,1.63
22.99,-8.53,-10.17,-8.53,-10.17,6.00,5.94,4.04,-2.53,-2.53,1.64
23.22,-8.41,-10.06,-8.41,-10.06,6.00,5.99,4.15,-2.41,-2.41,1.65
23.45,-8.29,-9.95,-8.30,-9.95,6.00,6.03,4.26,-2.29,-2.30,1.66
23.69,-8.18,-9.84,-8.18,-9.85,6.00,6.07,4.38,-2.18,-2.18,1.67
23.92,-8.06,-9.74,-8.06,-9.74,6.00,6.12,4.50,-2.06,-2.06,1.68
24.16,-7.94,-9.63,-7.94,-9.63,6.00,6.15,4.62,-1.94,-1.94,1.69
24.40,-7.82,-9.52,-7.82,-9.53,6.00,6.19,4.74,-1.82,-1.82,1.70
24.65,-7.71,-9.42,-7.70,-9.42,6.00,6.22,4.87,-1.71,-1.70,1.72
24.89,-7.58,-9.31,-7.58,-9.31,6.00,6.25,4.99,-1.58,-1.58,1.73
25.14,-7.46,-9.20,-7.46,-9.20,6.00,6.28,5.12,-1.46,-1.46,1.74
25.39,-7.34,-9.09,-7.34,-9.09,6.00,6.30,5.25,-1.34,-1.34,1.75
25.65,-7.23,-8.98,-7.22,-8.99,6.00,6.32,5.37,-1.23,-1.22,1.76
25.91,-7.11,-8.88,-7.11,-8.88,6.00,6.34,5.50,-1.11,-1.11,1.78
26.16,-6.99,-8.78,-6.99,-8.78,6.00,6.35,5.63,-0.99,-0.99,1.79
26.43,-6.88,-8.67,-6.88,-8.67,6.00,6.36,5.76,-0.88,-0.88,1.80
26.69,-6.75,-8.56,-6.76,-8.57,6.00,6.37,5.88,-0.75,-0.76,1.81
26.96,-6.65,-8.47,-6.64,-8.47,6.00,6.38,6.01,-0.65,-0.64,1.83
27.23,-6.53,-8.36,-6.53,-8.37,6.00,6.38,6.13,-0.53,-0.53,1.84
27.50,-6.41,-8.26,-6.41,-8.27,6.00,6.38,6.24,-0.41,-0.41,1.86
27.77,-6.29,-8.16,-6.29,-8.16,6.00,6.38,6.36,-0.29,-0.29,1.87
28.05,-6.17,-8.06,-6.17,-8.06,6.00,6.37,6.46,-0.17,-0.17,1.89
28.33,-6.05,-7.95,-6.06,-7.96,6.00,6.36,6.57,-0.05,-0.06,1.90
28.62,-5.95,-7.86,-5.94,-7.86,6.00,6.35,6.66,0.05,0.06,1.92
28.90,-5.82,-7.75,-5.82,-7.75,6.00,6.34,6.75,0.18,0.18,1.93
29.19,-5.70,-7.65,-5.71,-7.66,6.00,6.33,6.83,0.30,0.29,1.95
29.48,-5.59,-7.55,-5.59,-7.55,6.00,6.31,6.89,0.41,0.41,1.96
29.78,-5.48,-7.45,-5.47,-7.45,6.00,6.29,6.95,0.52,0.53,1.98
30.08,-5.36,-7.34,-5.36,-7.35,6.00,6.27,7.00,0.64,0.64,1.99
30.38,-5.26,-7.26,-5.25,-7.26,6.00,6.25,7.04,0.74,0.75,2.01
30.68,-5.15,-7.17,-5.15,-7.17,6.00,6.23,7.07,0.85,0.85,2.02
30.99,-5.05,-7.08,-5.05,-7.09,6.00,6.20,7.08,0.95,0.95,2.04
31.30,-4.95,-6.99,-4.95,-7.00,6.00,6.18,7.08,1.05,1.05,2.05
31.61,-4.84,-6.91,-4.84,-6.91,6.00,6.15,7.08,1.16,1.16,2.07
31.93,-4.74,-6.81,-4.74,-6.82,6.00,6.12,7.05,1.26,1.26,2.08
32.24,-4.63,-6.73,-4.63,-6.73,6.00,6.09,7.02,1.37,1.37,2.10
32.57,-4.54,-6.64,-4.53,-6.64,6.00,6.05,6.98,1.46,1.47,2.11
32.89,-4.42,-6.55,-4.43,-6.55,6.00,6.01,6.92,1.58,1.58,2.13
33.22,-4.32,-6.46,-4.32,-6.46,6.01,5.97,6.86,1.69,1.69,2.14
33.55,-4.22,-6.38,-4.22,-6.38,6.02,5.93,6.79,1.79,1.80,2.16
33.89,-4.11,-6.28,-4.12,-6.29,6.02,5.88,6.71,1.90,1.90,2.17
34.23,-4.02,-6.20,-4.01,-6.20,6.01,5.83,6.62,1.99,1.99,2.19
34.57,-3.91,-6.11,-3.91,-6.11,5.98,5.78,6.52,2.07,2.07,2.20
34.92,-3.81,-6.01,-3.81,-6.02,5.95,5.72,6.42,2.14,2.14,2.21
35.27,-3.71,-5.93,-3.71,-5.93,5.90,5.66,6.31,2.19,2.19,2.23
35.62,-3.61,-5.84,-3.60,-5.84,5.84,5.60,6.20,2.23,2.23,2.24
35.97,-3.50,-5.75,-3.50,-5.75,5.76,5.53,6.09,2.26,2.26,2.25
36.33,-3.39,-5.65,-3.40,-5.66,5.67,5.46,5.97,2.28,2.27,2.26
36.70,-3.30,-5.56,-3.29,-5.56,5.58,5.39,5.85,2.28,2.28,2.27
37.06,-3.18,-5.46,-3.19,-5.46,5.47,5.32,5.73,2.29,2.29,2.28
37.43,-3.08,-5.37,-3.08,-5.37,5.37,5.24,5.61,2.29,2.29,2.29
37.81,-2.97,-5.27,-2.98,-5.28,5.28,5.16,5.49,2.30,2.30,2.30
38.19,-2.88,-5.18,-2.87,-5.18,5.18,5.08,5.37,2.30,2.31,2.31
38.57,-2.76,-5.08,-2.76,-5.08,5.08,5.00,5.24,2.32,2.32,2.32
38.95,-2.65,-4.98,-2.66,-4.99,4.98,4.92,5.12,2.33,2.33,2.33
39.34,-2.55,-4.89,-2.55,-4.89,4.89,4.84,5.00,2.34,2.34,2.34
39.74,-2.45,-4.79,-2.45,-4.79,4.79,4.76,4.89,2.35,2.35,2.35
40.14,-2.35,-4.69,-2.34,-4.70,4.70,4.68,4.77,2.35,2.35,2.35
40.54,-2.25,-4.60,-2.24,-4.60,4.60,4.60,4.66,2.36,2.36,2.36
40.94,-2.13,-4.50,-2.14,-4.51,4.51,4.52,4.55,2.38,2.37,2.37
41.35,-2.04,-4.42,-2.04,-4.42,4.42,4.44,4.44,2.37,2.38,2.38
41.76,-1.94,-4.33,-1.94,-4.33,4.33,4.36,4.33,2.38,2.38,2.39
42.18,-1.84,-4.24,-1.84,-4.24,4.23,4.29,4.23,2.39,2.39,2.40
42.60,-1.73,-4.14,-1.74,-4.15,4.15,4.21,4.13,2.41,2.41,2.41
43.03,-1.63,-4.05,-1.64,-4.05,4.06,4.14,4.03,2.42,2.42,2.42
43.46,-1.54,-3.97,-1.54,-3.97,3.97,4.06,3.93,2.43,2.43,2.43
43.90,-1.45,-3.88,-1.45,-3.89,3.89,3.99,3.84,2.44,2.44,2.44
44.33,-1.35,-3.81,-1.36,-3.81,3.81,3.92,3.75,2.45,2.45,2.46
44.78,-1.27,-3.73,-1.26,-3.73,3.73,3.85,3.66,2.46,2.47,2.47
45.23,-1.18,-3.65,-1.17,-3.66,3.66,3.78,3.58,2.48,2.48,2.48
45.68,-1.09,-3.58,-1.09,-3.58,3.59,3.72,3.50,2.50,2.50,2.50
46.13,-1.00,-3.51,-1.00,-3.51,3.52,3.65,3.42,2.52,2.52,2.51
46.60,-0.93,-3.45,-0.93,-3.45,3.46,3.59,3.34,2.53,2.53,2.53
47.06,-0.85,-3.39,-0.86,-3.40,3.40,3.52,3.27,2.54,2.54,2.54
47.53,-0.79,-3.35,-0.79,-3.35,3.34,3.46,3.20,2.55,2.55,2.56
48.01,-0.72,-3.29,-0.72,-3.29,3.29,3.40,3.13,2.56,2.56,2.57
48.49,-0.65,-3.24,-0.65,-3.24,3.23,3.34,3.06,2.58,2.58,2.59
48.97,-0.57,-3.17,-0.58,-3.18,3.18,3.28,3.00,2.61,2.60,2.60
49.46,-0.51,-3.13,-0.51,-3.13,3.13,3.22,2.94,2.61,2.61,2.62
49.96,-0.46,-3.08,-0.45,-3.08,3.08,3.17,2.88,2.62,2.63,2.63
50.46,-0.39,-3.02,-0.39,-3.03,3.03,3.11,2.82,2.65,2.64,2.64
50.96,-0.32,-2.98,-0.33,-2.98,2.99,3.05,2.77,2.66,2.66,2.66
51.47,-0.27,-2.94,-0.27,-2.94,2.95,3.00,2.72,2.67,2.67,2.67
51.99,-0.23,-2.90,-0.23,-2.91,2.91,2.95,2.66,2.68,2.68,2.68
52.51,-0.19,-2.87,-0.18,-2.87,2.87,2.90,2.62,2.69,2.69,2.69
53.03,-0.14,-2.84,-0.14,-2.84,2.84,2.85,2.57,2.69,2.70,2.70
53.56,-0.09,-2.81,-0.09,-2.81,2.80,2.79,2.52,2.71,2.71,2.72
54.10,-0.04,-2.77,-0.05,-2.77,2.77,2.75,2.48,2.72,2.72,2.73
54.64,0.01,-2.73,0.00,-2.73,2.73,2.70,2.44,2.74,2.73,2.74
55.18,0.05,-2.69,0.05,-2.69,2.70,2.65,2.40,2.74,2.75,2.74
55.74,0.09,-2.65,0.09,-2.66,2.66,2.60,2.36,2.75,2.75,2.75
56.29,0.14,-2.62,0.13,-2.62,2.62,2.55,2.32,2.76,2.76,2.76
56.86,0.18,-2.58,0.18,-2.58,2.59,2.51,2.29,2.76,2.76,2.76
57.42,0.22,-2.55,0.22,-2.55,2.55,2.46,2.25,2.77,2.77,2.77
58.00,0.26,-2.51,0.26,-2.52,2.51,2.42,2.22,2.77,2.77,2.77
58.58,0.30,-2.48,0.30,-2.48,2.48,2.37,2.18,2.77,2.77,2.78
59.16,0.34,-2.44,0.33,-2.44,2.44,2.33,2.15,2.78,2.77,2.78
59.76,0.38,-2.40,0.38,-2.40,2.40,2.29,2.12,2.78,2.78,2.78
60.35,0.42,-2.36,0.42,-2.36,2.36,2.24,2.09,2.78,2.78,2.78
60.96,0.47,-2.31,0.46,-2.32,2.32,2.20,2.06,2.79,2.78,2.78
61.57,0.50,-2.28,0.50,-2.28,2.28,2.16,2.03,2.78,2.78,2.78
62.18,0.54,-2.24,0.54,-2.24,2.24,2.12,2.00,2.78,2.78,2.78
62.80,0.58,-2.20,0.57,-2.20,2.20,2.07,1.98,2.77,2.77,2.78
63.43,0.62,-2.16,0.62,-2.16,2.15,2.03,1.95,2.77,2.77,2.78
64.07,0.67,-2.10,0.66,-2.11,2.11,1.99,1.93,2.77,2.77,2.77
64.71,0.72,-2.05,0.71,-2.06,2.06,1.95,1.90,2.78,2.77,2.77
65.35,0.76,-2.01,0.76,-2.01,2.01,1.91,1.88,2.77,2.77,2.77
66.01,0.81,-1.96,0.80,-1.97,1.97,1.87,1.85,2.77,2.77,2.77
66.67,0.85,-1.92,0.85,-1.92,1.92,1.83,1.83,2.76,2.76,2.77
67.33,0.89,-1.88,0.89,-1.88,1.87,1.80,1.81,2.76,2.76,2.77
68.01,0.94,-1.82,0.93,-1.83,1.83,1.76,1.78,2.77,2.76,2.76
68.69,0.98,-1.78,0.98,-1.78,1.79,1.72,1.76,2.77,2.77,2.76
69.37,1.02,-1.74,1.01,-1.74,1.75,1.69,1.74,2.77,2.76,2.76
70.07,1.05,-1.71,1.04,-1.71,1.71,1.65,1.72,2.76,2.76,2.76
70.77,1.08,-1.68,1.08,-1.68,1.68,1.62,1.70,2.75,2.75,2.76
71.48,1.11,-1.65,1.11,-1.65,1.64,1.59,1.69,2.75,2.75,2.76
72.19,1.15,-1.61,1.14,-1.62,1.61,1.56,1.67,2.76,2.76,2.76
72.91,1.19,-1.58,1.18,-1.58,1.58,1.53,1.65,2.77,2.77,2.77
73.64,1.22,-1.55,1.22,-1.55,1.55,1.51,1.64,2.77,2.77,2.77
74.38,1.26,-1.52,1.25,-1.52,1.52,1.49,1.62,2.78,2.78,2.78
75.12,1.29,-1.49,1.29,-1.50,1.49,1.47,1.61,2.78,2.78,2.78
75.87,1.32,-1.47,1.32,-1.47,1.47,1.45,1.60,2.78,2.79,2.79
76.63,1.36,-1.44,1.35,-1.44,1.44,1.44,1.58,2.80,2.79,2.80
77.40,1.39,-1.42,1.39,-1.42,1.42,1.43,1.57,2.80,2.81,2.81
78.17,1.43,-1.39,1.42,-1.39,1.40,1.42,1.56,2.83,2.82,2.82
78.95,1.46,-1.37,1.45,-1.38,1.38,1.42,1.55,2.84,2.83,2.83
79.74,1.48,-1.36,1.48,-1.36,1.37,1.41,1.54,2.84,2.84,2.84
80.54,1.50,-1.35,1.49,-1.35,1.35,1.41,1.54,2.85,2.85,2.85
81.35,1.52,-1.34,1.51,-1.35,1.34,1.41,1.53,2.85,2.85,2.86
82.16,1.53,-1.34,1.53,-1.34,1.33,1.42,1.53,2.85,2.86,2.87
82.98,1.56,-1.32,1.55,-1.32,1.32,1.42,1.52,2.87,2.87,2.88
83.81,1.58,-1.31,1.57,-1.31,1.31,1.43,1.52,2.89,2.89,2.89
84.65,1.60,-1.30,1.59,-1.30,1.31,1.43,1.52,2.90,2.90,2.90
85.50,1.61,-1.30,1.61,-1.30,1.31,1.44,1.52,2.91,2.91,2.91
86.35,1.62,-1.30,1.62,-1.30,1.31,1.45,1.52,2.92,2.93,2.92
87.22,1.63,-1.30,1.62,-1.31,1.31,1.45,1.52,2.94,2.94,2.93
88.09,1.63,-1.31,1.62,-1.32,1.32,1.46,1.52,2.95,2.95,2.94
88.97,1.62,-1.34,1.62,-1.34,1.34,1.47,1.53,2.95,2.95,2.96
89.86,1.61,-1.36,1.61,-1.36,1.35,1.48,1.53,2.96,2.96,2.97
90.76,1.61,-1.37,1.60,-1.38,1.37,1.49,1.54,2.97,2.97,2.98
91.66,1.61,-1.39,1.60,-1.39,1.39,1.50,1.54,2.99,2.99,3.00
92.58,1.61,-1.40,1.61,-1.40,1.40,1.51,1.55,3.01,3.01,3.01
93.51,1.61,-1.41,1.61,-1.42,1.42,1.52,1.56,3.02,3.02,3.02
94.44,1.61,-1.43,1.61,-1.43,1.43,1.52,1.57,3.04,3.04,3.04
95.39,1.61,-1.44,1.61,-1.45,1.45,1.53,1.58,3.05,3.05,3.05
96.34,1.61,-1.46,1.60,-1.46,1.46,1.54,1.59,3.06,3.06,3.07
97.30,1.61,-1.47,1.61,-1.47,1.47,1.55,1.60,3.07,3.07,3.08
98.28,1.61,-1.48,1.61,-1.48,1.48,1.56,1.62,3.08,3.09,3.09
99.26,1.62,-1.48,1.61,-1.49,1.49,1.57,1.63,3.10,3.10,3.10
100.25,1.62,-1.50,1.62,-1.50,1.49,1.58,1.64,3.11,3.11,3.12
101.25,1.63,-1.50,1.62,-1.50,1.50,1.59,1.66,3.13,3.13,3.13
102.27,1.63,-1.51,1.62,-1.51,1.51,1.60,1.68,3.14,3.14,3.14
103.29,1.62,-1.52,1.62,-1.52,1.53,1.60,1.69,3.14,3.15,3.14
104.32,1.62,-1.53,1.61,-1.54,1.54,1.61,1.71,3.16,3.15,3.15
105.37,1.60,-1.56,1.59,-1.56,1.57,1.62,1.73,3.16,3.16,3.16
106.42,1.57,-1.59,1.57,-1.59,1.59,1.63,1.74,3.16,3.16,3.16
107.48,1.55,-1.61,1.54,-1.62,1.62,1.64,1.76,3.17,3.16,3.16
108.56,1.51,-1.65,1.51,-1.65,1.66,1.65,1.78,3.16,3.16,3.16
109.64,1.47,-1.69,1.47,-1.69,1.69,1.66,1.79,3.16,3.16,3.16
110.74,1.44,-1.72,1.43,-1.73,1.72,1.67,1.81,3.16,3.16,3.16
111.85,1.40,-1.76,1.39,-1.76,1.76,1.68,1.83,3.15,3.15,3.16
112.97,1.36,-1.79,1.36,-1.79,1.79,1.69,1.84,3.14,3.14,3.15
114.10,1.33,-1.82,1.33,-1.82,1.81,1.70,1.86,3.14,3.14,3.15
115.24,1.31,-1.83,1.31,-1.83,1.83,1.71,1.88,3.14,3.14,3.14
116.39,1.30,-1.84,1.29,-1.85,1.85,1.72,1.89,3.14,3.14,3.14
117.55,1.28,-1.85,1.27,-1.86,1.86,1.74,1.90,3.13,3.13,3.13
118.73,1.26,-1.87,1.26,-1.86,1.86,1.75,1.92,3.11,3.12,3.13
119.92,1.26,-1.86,1.26,-1.86,1.86,1.76,1.93,3.11,3.12,3.12
121.12,1.27,-1.85,1.26,-1.86,1.86,1.77,1.94,3.12,3.12,3.12
122.33,1.28,-1.84,1.27,-1.85,1.85,1.78,1.95,3.13,3.12,3.12
123.55,1.28,-1.84,1.28,-1.84,1.84,1.80,1.96,3.12,3.12,3.12
124.79,1.28,-1.84,1.28,-1.84,1.84,1.81,1.96,3.11,3.12,3.12
126.03,1.29,-1.83,1.28,-1.83,1.83,1.82,1.97,3.11,3.11,3.12
127.29,1.30,-1.82,1.29,-1.83,1.82,1.83,1.97,3.12,3.12,3.12
128.57,1.30,-1.82,1.30,-1.82,1.82,1.85,1.98,3.12,3.12,3.12
129.85,1.31,-1.81,1.30,-1.82,1.82,1.86,1.98,3.13,3.13,3.12
131.15,1.30,-1.82,1.30,-1.82,1.83,1.88,1.98,3.13,3.13,3.12
132.46,1.29,-1.83,1.28,-1.84,1.84,1.89,1.98,3.13,3.13,3.12
133.79,1.27,-1.86,1.27,-1.86,1.86,1.91,1.98,3.12,3.13,3.13
135.12,1.25,-1.88,1.25,-1.88,1.88,1.92,1.98,3.13,3.13,3.13
136.48,1.23,-1.90,1.22,-1.91,1.91,1.94,1.98,3.13,3.13,3.13
137.84,1.19,-1.94,1.19,-1.93,1.94,1.95,1.97,3.12,3.13,3.13
139.22,1.17,-1.96,1.16,-1.97,1.97,1.97,1.97,3.14,3.13,3.13
140.61,1.14,-1.99,1.13,-2.00,2.01,1.98,1.97,3.14,3.14,3.13
142.02,1.09,-2.05,1.09,-2.04,2.04,2.00,1.97,3.13,3.14,3.14
143.44,1.07,-2.07,1.06,-2.08,2.07,2.02,1.96,3.14,3.13,3.14
144.87,1.03,-2.11,1.03,-2.11,2.10,2.03,1.96,3.12,3.13,3.14
146.32,1.01,-2.12,1.00,-2.13,2.12,2.05,1.96,3.13,3.13,3.13
147.78,0.98,-2.15,0.98,-2.15,2.14,2.07,1.95,3.12,3.12,3.13
149.26,0.97,-2.16,0.97,-2.16,2.16,2.09,1.95,3.12,3.12,3.13
150.75,0.96,-2.17,0.96,-2.17,2.17,2.10,1.95,3.12,3.12,3.13
152.26,0.96,-2.17,0.95,-2.17,2.18,2.12,1.95,3.13,3.13,3.13
153.78,0.95,-2.17,0.94,-2.18,2.18,2.14,1.95,3.13,3.13,3.12
155.32,0.94,-2.18,0.94,-2.18,2.19,2.16,1.95,3.13,3.13,3.12
156.88,0.92,-2.20,0.92,-2.20,2.21,2.18,1.96,3.12,3.12,3.12
158.44,0.91,-2.21,0.90,-2.22,2.22,2.20,1.96,3.12,3.12,3.12
160.03,0.87,-2.24,0.87,-2.24,2.24,2.23,1.96,3.10,3.11,3.11
161.63,0.85,-2.26,0.85,-2.26,2.26,2.25,1.97,3.10,3.10,3.11
163.24,0.83,-2.27,0.82,-2.28,2.28,2.27,1.98,3.10,3.10,3.10
164.88,0.79,-2.31,0.79,-2.30,2.30,2.29,1.99,3.09,3.10,3.10
166.53,0.77,-2.32,0.76,-2.32,2.33,2.32,2.00,3.10,3.10,3.09
168.19,0.74,-2.34,0.73,-2.35,2.36,2.34,2.01,3.10,3.09,3.08
169.87,0.69,-2.38,0.69,-2.38,2.39,2.37,2.02,3.07,3.07,3.07
171.57,0.64,-2.42,0.64,-2.42,2.41,2.39,2.03,3.05,3.05,3.06
173.29,0.60,-2.45,0.59,-2.45,2.44,2.42,2.05,3.03,3.03,3.05
175.02,0.56,-2.48,0.56,-2.48,2.46,2.45,2.07,3.02,3.02,3.04
176.77,0.53,-2.49,0.53,-2.49,2.49,2.48,2.09,3.01,3.01,3.02
178.54,0.51,-2.50,0.50,-2.50,2.51,2.50,2.11,3.02,3.01,3.01
180.32,0.47,-2.52,0.47,-2.52,2.54,2.53,2.13,3.00,3.01,2.99
182.13,0.44,-2.54,0.43,-2.55,2.57,2.56,2.15,3.00,2.99,2.98
183.95,0.37,-2.59,0.37,-2.58,2.59,2.59,2.18,2.96,2.97,2.96
185.79,0.33,-2.61,0.32,-2.62,2.62,2.62,2.21,2.95,2.94,2.94
187.65,0.27,-2.66,0.26,-2.66,2.65,2.65,2.24,2.92,2.92,2.93
189.52,0.22,-2.69,0.22,-2.69,2.68,2.68,2.27,2.90,2.90,2.91
191.42,0.17,-2.72,0.17,-2.72,2.71,2.71,2.30,2.87,2.88,2.89
193.33,0.14,-2.73,0.13,-2.74,2.73,2.73,2.33,2.86,2.86,2.87
195.27,0.11,-2.75,0.11,-2.75,2.74,2.76,2.36,2.85,2.85,2.86
197.22,0.09,-2.75,0.08,-2.76,2.76,2.78,2.40,2.84,2.84,2.84
199.19,0.06,-2.76,0.06,-2.76,2.77,2.79,2.43,2.82,2.82,2.82
201.18,0.03,-2.76,0.03,-2.76,2.78,2.80,2.47,2.80,2.81,2.79
203.19,-0.00,-2.77,-0.01,-2.78,2.79,2.81,2.51,2.78,2.78,2.77
205.23,-0.04,-2.79,-0.05,-2.80,2.80,2.82,2.55,2.75,2.75,2.75
207.28,-0.09,-2.82,-0.09,-2.82,2.81,2.82,2.58,2.72,2.72,2.73
209.35,-0.12,-2.83,-0.12,-2.83,2.82,2.82,2.62,2.70,2.70,2.71
211.44,-0.15,-2.83,-0.16,-2.84,2.83,2.82,2.66,2.68,2.67,2.68
213.56,-0.18,-2.84,-0.18,-2.84,2.84,2.81,2.70,2.66,2.66,2.66
215.69,-0.21,-2.84,-0.22,-2.84,2.85,2.81,2.74,2.63,2.63,2.63
217.85,-0.24,-2.84,-0.24,-2.85,2.85,2.80,2.77,2.61,2.61,2.60
220.03,-0.27,-2.85,-0.27,-2.85,2.86,2.79,2.81,2.58,2.58,2.58
222.23,-0.29,-2.85,-0.30,-2.85,2.86,2.79,2.84,2.56,2.56,2.56
224.45,-0.32,-2.85,-0.32,-2.86,2.85,2.78,2.88,2.53,2.53,2.53
226.70,-0.34,-2.85,-0.35,-2.85,2.85,2.77,2.91,2.50,2.50,2.51
228.96,-0.36,-2.85,-0.36,-2.85,2.84,2.76,2.93,2.47,2.48,2.49
231.25,-0.36,-2.83,-0.37,-2.84,2.83,2.76,2.96,2.46,2.46,2.47
233.57,-0.36,-2.82,-0.36,-2.82,2.82,2.75,2.98,2.45,2.45,2.46
235.90,-0.35,-2.79,-0.35,-2.80,2.80,2.75,3.01,2.45,2.45,2.44
238.26,-0.34,-2.77,-0.35,-2.78,2.79,2.74,3.02,2.44,2.44,2.43
240.64,-0.34,-2.76,-0.34,-2.76,2.77,2.74,3.04,2.42,2.43,2.42
243.05,-0.34,-2.75,-0.34,-2.75,2.75,2.73,3.05,2.41,2.41,2.41
245.48,-0.34,-2.74,-0.34,-2.74,2.74,2.73,3.06,2.40,2.40,2.40
247.93,-0.34,-2.73,-0.34,-2.73,2.73,2.73,3.06,2.39,2.39,2.39
250.41,-0.34,-2.72,-0.34,-2.72,2.72,2.72,3.06,2.38,2.38,2.38
252.92,-0.34,-2.71,-0.34,-2.71,2.71,2.72,3.06,2.37,2.37,2.37
255.45,-0.34,-2.70,-0.34,-2.70,2.71,2.72,3.05,2.36,2.36,2.36
258.00,-0.34,-2.69,-0.34,-2.70,2.70,2.71,3.04,2.35,2.35,2.35
260.58,-0.34,-2.69,-0.34,-2.69,2.69,2.71,3.02,2.34,2.34,2.35
263.19,-0.34,-2.68,-0.34,-2.68,2.68,2.71,3.01,2.34,2.34,2.34
265.82,-0.34,-2.67,-0.34,-2.67,2.67,2.70,2.99,2.33,2.33,2.33
268.48,-0.34,-2.66,-0.34,-2.66,2.66,2.70,2.96,2.32,2.32,2.32
271.16,-0.34,-2.65,-0.34,-2.65,2.65,2.69,2.93,2.31,2.31,2.31
273.87,-0.34,-2.64,-0.34,-2.64,2.64,2.69,2.91,2.30,2.30,2.30
276.61,-0.34,-2.63,-0.34,-2.63,2.63,2.69,2.87,2.29,2.29,2.29
279.38,-0.34,-2.62,-0.34,-2.62,2.62,2.68,2.84,2.28,2.28,2.28
282.17,-0.34,-2.61,-0.34,-2.61,2.61,2.68,2.80,2.27,2.27,2.27
284.99,-0.34,-2.60,-0.34,-2.60,2.60,2.67,2.77,2.26,2.26,2.26
287.84,-0.34,-2.59,-0.34,-2.59,2.60,2.66,2.73,2.25,2.25,2.25
290.72,-0.34,-2.58,-0.34,-2.58,2.59,2.66,2.69,2.25,2.25,2.24
293.63,-0.34,-2.57,-0.35,-2.58,2.58,2.65,2.65,2.24,2.23,2.23
296.57,-0.35,-2.57,-0.35,-2.57,2.58,2.65,2.61,2.22,2.22,2.22
299.53,-0.36,-2.57,-0.36,-2.57,2.57,2.64,2.57,2.20,2.21,2.21
302.53,-0.36,-2.56,-0.37,-2.56,2.56,2.63,2.53,2.19,2.19,2.20
305.55,-0.36,-2.54,-0.36,-2.54,2.54,2.62,2.49,2.17,2.18,2.18
308.61,-0.35,-2.52,-0.35,-2.52,2.52,2.61,2.45,2.16,2.16,2.17
311.69,-0.33,-2.49,-0.34,-2.49,2.49,2.60,2.41,2.16,2.15,2.16
314.81,-0.32,-2.46,-0.32,-2.46,2.46,2.60,2.37,2.13,2.14,2.14
317.96,-0.29,-2.42,-0.30,-2.42,2.42,2.59,2.33,2.12,2.12,2.13
321.14,-0.26,-2.37,-0.27,-2.38,2.38,2.58,2.30,2.11,2.11,2.11
324.35,-0.23,-2.33,-0.23,-2.33,2.33,2.57,2.26,2.09,2.10,2.10
327.59,-0.19,-2.27,-0.20,-2.28,2.28,2.55,2.23,2.09,2.08,2.08
330.87,-0.16,-2.23,-0.16,-2.23,2.23,2.54,2.19,2.07,2.07,2.07
334.18,-0.13,-2.18,-0.13,-2.18,2.18,2.53,2.16,2.05,2.05,2.05
337.52,-0.09,-2.13,-0.10,-2.13,2.13,2.52,2.13,2.04,2.04,2.04
340.90,-0.06,-2.08,-0.07,-2.09,2.09,2.51,2.10,2.02,2.02,2.02
344.30,-0.03,-2.04,-0.04,-2.04,2.05,2.49,2.07,2.01,2.01,2.01
347.75,-0.02,-2.01,-0.02,-2.01,2.01,2.48,2.05,1.99,1.99,1.99
351.23,-0.00,-1.97,-0.00,-1.98,1.98,2.47,2.02,1.98,1.98,1.97
354.74,0.01,-1.95,0.00,-1.95,1.96,2.45,2.00,1.97,1.96,1.96
358.28,0.01,-1.93,0.00,-1.94,1.94,2.44,1.98,1.95,1.94,1.94
361.87,-0.00,-1.92,-0.00,-1.93,1.93,2.42,1.96,1.92,1.92,1.92
365.49,-0.01,-1.92,-0.01,-1.92,1.91,2.41,1.94,1.90,1.90,1.91
369.14,-0.01,-1.90,-0.02,-1.91,1.90,2.39,1.92,1.88,1.88,1.89
372.83,-0.01,-1.89,-0.02,-1.89,1.88,2.38,1.91,1.87,1.87,1.88
376.56,-0.01,-1.87,-0.01,-1.87,1.87,2.36,1.90,1.85,1.85,1.86
380.33,-0.01,-1.85,-0.01,-1.85,1.85,2.34,1.88,1.83,1.84,1.84
384.13,-0.00,-1.83,-0.01,-1.83,1.83,2.33,1.87,1.83,1.82,1.83
387.97,-0.00,-1.81,-0.00,-1.81,1.81,2.31,1.86,1.81,1.81,1.81
391.85,0.01,-1.79,0.00,-1.80,1.80,2.29,1.86,1.81,1.80,1.80
395.77,0.01,-1.78,0.00,-1.78,1.79,2.27,1.85,1.80,1.79,1.79
399.73,-0.00,-1.78,-0.00,-1.78,1.79,2.26,1.84,1.78,1.78,1.78
403.72,-0.01,-1.78,-0.02,-1.78,1.79,2.24,1.84,1.77,1.77,1.77
407.76,-0.03,-1.79,-0.04,-1.79,1.79,2.22,1.84,1.76,1.76,1.76
411.84,-0.06,-1.80,-0.06,-1.80,1.81,2.20,1.83,1.74,1.75,1.74
415.96,-0.09,-1.82,-0.09,-1.82,1.83,2.18,1.83,1.73,1.73,1.73
420.12,-0.12,-1.84,-0.13,-1.85,1.85,2.16,1.83,1.72,1.72,1.72
424.32,-0.16,-1.87,-0.16,-1.87,1.87,2.14,1.83,1.70,1.71,1.71
428.56,-0.19,-1.89,-0.20,-1.89,1.89,2.12,1.83,1.70,1.69,1.70
432.85,-0.23,-1.91,-0.23,-1.92,1.91,2.10,1.83,1.68,1.68,1.68
437.18,-0.26,-1.93,-0.26,-1.93,1.93,2.08,1.83,1.67,1.67,1.67
441.55,-0.29,-1.95,-0.29,-1.95,1.95,2.06,1.83,1.65,1.65,1.66
445.96,-0.31,-1.95,-0.32,-1.96,1.95,2.04,1.83,1.64,1.64,1.64
450.42,-0.34,-1.96,-0.34,-1.96,1.96,2.02,1.83,1.61,1.62,1.62
454.93,-0.35,-1.96,-0.36,-1.96,1.95,2.00,1.83,1.60,1.60,1.61
459.48,-0.36,-1.95,-0.36,-1.95,1.94,1.98,1.83,1.58,1.58,1.59
464.07,-0.36,-1.93,-0.36,-1.93,1.93,1.95,1.83,1.56,1.57,1.57
468.71,-0.35,-1.90,-0.36,-1.91,1.91,1.93,1.82,1.56,1.55,1.55
473.40,-0.34,-1.88,-0.35,-1.88,1.89,1.91,1.82,1.55,1.54,1.54
478.13,-0.34,-1.86,-0.34,-1.86,1.87,1.89,1.82,1.53,1.53,1.52
482.91,-0.34,-1.85,-0.34,-1.85,1.86,1.87,1.81,1.51,1.51,1.51
487.74,-0.34,-1.83,-0.34,-1.84,1.84,1.84,1.81,1.49,1.49,1.49
492.62,-0.34,-1.82,-0.34,-1.82,1.82,1.82,1.80,1.48,1.48,1.48
497.55,-0.34,-1.81,-0.34,-1.81,1.81,1.80,1.79,1.47,1.47,1.47
502.52,-0.34,-1.80,-0.34,-1.80,1.80,1.78,1.78,1.46,1.46,1.46
507.55,-0.34,-1.79,-0.34,-1.79,1.79,1.76,1.77,1.44,1.44,1.45
512.62,-0.34,-1.77,-0.34,-1.78,1.77,1.73,1.76,1.43,1.43,1.43
517.75,-0.34,-1.76,-0.34,-1.76,1.76,1.71,1.74,1.41,1.41,1.42
522.93,-0.34,-1.74,-0.34,-1.74,1.74,1.69,1.73,1.40,1.40,1.40
528.16,-0.34,-1.72,-0.34,-1.72,1.72,1.67,1.71,1.38,1.38,1.38
533.44,-0.34,-1.70,-0.34,-1.70,1.70,1.64,1.70,1.36,1.36,1.36
