frequency,raw,error,smoothed,error_smoothed,equalization,parametric_eq,fixed_band_eq,equalized_raw,equalized_smoothed,target
20.00,9.99,2.72,9.99,2.73,-2.72,-2.50,-1.39,7.27,7.27,7.26
20.20,10.04,2.77,10.04,2.77,-2.77,-2.51,-1.43,7.27,7.27,7.26
20.40,10.09,2.81,10.08,2.81,-2.81,-2.53,-1.47,7.28,7.27,7.27
20.61,10.13,2.84,10.13,2.85,-2.85,-2.54,-1.51,7.28,7.28,7.28
20.81,10.17,2.89,10.17,2.88,-2.89,-2.55,-1.55,7.28,7.28,7.28
21.02,10.21,2.92,10.21,2.92,-2.92,-2.57,-1.60,7.29,7.29,7.29
21.23,10.25,2.96,10.25,2.95,-2.95,-2.58,-1.64,7.30,7.30,7.29
21.44,10.28,2.98,10.28,2.97,-2.97,-2.60,-1.69,7.31,7.30,7.30
21.66,10.30,2.99,10.30,3.00,-3.00,-2.61,-1.73,7.30,7.31,7.31
21.87,10.33,3.02,10.33,3.01,-3.02,-2.63,-1.78,7.31,7.31,7.31
22.09,10.35,3.03,10.35,3.03,-3.03,-2.64,-1.83,7.32,7.32,7.32
22.31,10.37,3.04,10.37,3.05,-3.04,-2.66,-1.89,7.33,7.33,7.33
22.54,10.39,3.06,10.39,3.05,-3.04,-2.67,-1.94,7.35,7.35,7.33
22.76,10.40,3.06,10.39,3.05,-3.04,-2.69,-1.99,7.36,7.35,7.34
22.99,10.39,3.04,10.39,3.04,-3.04,-2.70,-2.05,7.35,7.35,7.35
23.22,10.39,3.03,10.39,3.03,-3.03,-2.72,-2.10,7.36,7.35,7.36
23.45,10.38,3.01,10.38,3.01,-3.03,-2.73,-2.16,7.35,7.35,7.37
23.69,10.39,3.01,10.39,3.01,-3.02,-2.75,-2.22,7.36,7.36,7.38
23.92,10.40,3.01,10.40,3.01,-3.02,-2.77,-2.28,7.38,7.38,7.39
24.16,10.42,3.02,10.42,3.02,-3.02,-2.79,-2.34,7.40,7.40,7.40
24.40,10.43,3.02,10.43,3.02,-3.01,-2.80,-2.40,7.41,7.42,7.41
24.65,10.45,3.02,10.44,3.02,-3.01,-2.82,-2.47,7.44,7.43,7.43
24.89,10.45,3.01,10.45,3.02,-3.01,-2.84,-2.53,7.44,7.44,7.44
25.14,10.46,3.01,10.46,3.01,-3.00,-2.86,-2.60,7.45,7.45,7.45
25.39,10.46,3.00,10.45,3.00,-3.00,-2.88,-2.66,7.46,7.45,7.45
25.65,10.45,2.98,10.46,2.99,-2.99,-2.89,-2.73,7.46,7.46,7.46
25.91,10.46,2.98,10.46,2.98,-2.99,-2.91,-2.80,7.47,7.47,7.48
26.16,10.47,2.98,10.47,2.97,-2.98,-2.93,-2.86,7.49,7.48,7.49
26.43,10.48,2.98,10.48,2.98,-2.98,-2.95,-2.93,7.50,7.50,7.50
26.69,10.49,2.98,10.49,2.98,-2.98,-2.97,-2.99,7.51,7.51,7.51
26.96,10.51,2.98,10.51,2.98,-2.98,-2.99,-3.06,7.53,7.53,7.53
27.23,10.52,2.98,10.52,2.98,-2.98,-3.01,-3.12,7.54,7.55,7.54
27.50,10.54,2.98,10.54,2.98,-2.98,-3.04,-3.19,7.56,7.56,7.56
27.77,10.55,2.98,10.55,2.98,-2.98,-3.06,-3.25,7.57,7.57,7.57
28.05,10.57,2.98,10.56,2.98,-2.98,-3.08,-3.31,7.59,7.58,7.59
28.33,10.58,2.98,10.58,2.98,-2.99,-3.10,-3.37,7.59,7.59,7.60
28.62,10.59,2.97,10.60,2.98,-3.00,-3.12,-3.43,7.59,7.60,7.61
28.90,10.62,3.00,10.62,2.99,-3.00,-3.15,-3.48,7.61,7.61,7.62
29.19,10.65,3.01,10.65,3.01,-3.01,-3.17,-3.54,7.64,7.64,7.64
29.48,10.68,3.03,10.68,3.03,-3.02,-3.19,-3.59,7.66,7.66,7.65
29.78,10.71,3.04,10.70,3.04,-3.02,-3.22,-3.64,7.69,7.68,7.67
30.08,10.72,3.04,10.72,3.04,-3.02,-3.24,-3.68,7.70,7.70,7.68
30.38,10.72,3.02,10.72,3.02,-3.01,-3.26,-3.72,7.71,7.71,7.70
30.68,10.72,3.01,10.71,3.00,-3.00,-3.29,-3.76,7.72,7.71,7.71
30.99,10.70,2.97,10.70,2.98,-2.99,-3.31,-3.79,7.71,7.72,7.72
31.30,10.70,2.96,10.70,2.96,-2.97,-3.34,-3.82,7.73,7.73,7.73
31.61,10.70,2.95,10.70,2.95,-2.96,-3.36,-3.85,7.74,7.74,7.75
31.93,10.71,2.95,10.71,2.94,-2.95,-3.39,-3.87,7.76,7.76,7.76
32.24,10.72,2.94,10.72,2.94,-2.94,-3.42,-3.90,7.78,7.78,7.78
32.57,10.73,2.94,10.73,2.94,-2.94,-3.44,-3.91,7.79,7.79,7.79
32.89,10.75,2.94,10.75,2.94,-2.95,-3.47,-3.93,7.80,7.80,7.81
33.22,10.77,2.95,10.77,2.96,-2.96,-3.50,-3.94,7.81,7.82,7.81
33.55,10.81,2.98,10.80,2.97,-2.97,-3.52,-3.95,7.84,7.83,7.83
33.89,10.84,3.00,10.84,2.99,-2.99,-3.55,-3.96,7.84,7.84,7.84
34.23,10.87,3.01,10.87,3.02,-3.02,-3.58,-3.96,7.85,7.85,7.86
34.57,10.92,3.05,10.92,3.05,-3.05,-3.61,-3.97,7.86,7.86,7.87
34.92,10.97,3.09,10.97,3.09,-3.09,-3.64,-3.97,7.87,7.87,7.87
35.27,11.03,3.14,11.03,3.14,-3.14,-3.67,-3.97,7.89,7.89,7.89
35.62,11.09,3.19,11.09,3.19,-3.19,-3.70,-3.97,7.90,7.90,7.90
35.97,11.15,3.24,11.15,3.24,-3.24,-3.73,-3.98,7.91,7.91,7.91
36.33,11.22,3.30,11.22,3.30,-3.30,-3.76,-3.98,7.92,7.92,7.92
36.70,11.29,3.37,11.28,3.36,-3.36,-3.79,-3.98,7.93,7.93,7.92
37.06,11.35,3.42,11.35,3.42,-3.42,-3.82,-3.98,7.93,7.93,7.93
37.43,11.42,3.48,11.42,3.48,-3.48,-3.85,-3.98,7.94,7.94,7.94
37.81,11.49,3.54,11.49,3.55,-3.55,-3.89,-3.98,7.94,7.94,7.94
38.19,11.57,3.62,11.57,3.62,-3.62,-3.92,-3.99,7.95,7.95,7.95
38.57,11.65,3.69,11.65,3.69,-3.69,-3.95,-3.99,7.95,7.95,7.96
38.95,11.73,3.76,11.73,3.77,-3.77,-3.98,-4.00,7.96,7.96,7.97
39.34,11.82,3.85,11.82,3.85,-3.85,-4.02,-4.01,7.97,7.97,7.97
39.74,11.91,3.93,11.91,3.93,-3.93,-4.05,-4.02,7.98,7.98,7.98
40.14,12.00,4.02,11.99,4.02,-4.01,-4.09,-4.04,7.98,7.98,7.98
40.54,12.08,4.10,12.08,4.10,-4.10,-4.12,-4.06,7.98,7.98,7.98
40.94,12.16,4.17,12.16,4.18,-4.18,-4.16,-4.07,7.98,7.99,7.99
41.35,12.25,4.25,12.24,4.25,-4.25,-4.19,-4.10,8.00,7.99,7.99
41.76,12.32,4.32,12.32,4.32,-4.32,-4.23,-4.12,8.00,8.00,8.00
42.18,12.39,4.38,12.39,4.38,-4.38,-4.26,-4.15,8.01,8.01,8.01
42.60,12.45,4.44,12.45,4.44,-4.43,-4.30,-4.18,8.02,8.02,8.01
43.03,12.51,4.49,12.51,4.49,-4.48,-4.34,-4.22,8.03,8.03,8.02
43.46,12.55,4.53,12.55,4.52,-4.51,-4.37,-4.25,8.04,8.03,8.02
43.90,12.58,4.55,12.58,4.55,-4.54,-4.41,-4.29,8.04,8.04,8.03
44.33,12.60,4.56,12.60,4.56,-4.56,-4.45,-4.34,8.03,8.04,8.04
44.78,12.62,4.57,12.62,4.58,-4.58,-4.49,-4.38,8.04,8.04,8.05
45.23,12.65,4.60,12.65,4.59,-4.60,-4.52,-4.43,8.05,8.05,8.05
45.68,12.67,4.60,12.67,4.60,-4.61,-4.56,-4.49,8.06,8.06,8.07
46.13,12.69,4.62,12.69,4.62,-4.62,-4.60,-4.54,8.07,8.07,8.07
46.60,12.71,4.62,12.71,4.63,-4.63,-4.64,-4.60,8.08,8.08,8.08
47.06,12.74,4.65,12.73,4.64,-4.64,-4.68,-4.67,8.10,8.10,8.09
47.53,12.76,4.66,12.75,4.65,-4.65,-4.72,-4.73,8.11,8.10,8.10
48.01,12.77,4.66,12.77,4.66,-4.66,-4.76,-4.80,8.11,8.11,8.11
48.49,12.79,4.67,12.79,4.67,-4.68,-4.80,-4.87,8.11,8.11,8.12
48.97,12.81,4.69,12.81,4.68,-4.69,-4.84,-4.95,8.12,8.12,8.12
49.46,12.84,4.70,12.84,4.71,-4.71,-4.89,-5.02,8.13,8.13,8.13
49.96,12.87,4.73,12.87,4.73,-4.74,-4.93,-5.10,8.13,8.13,8.14
50.46,12.91,4.77,12.90,4.76,-4.76,-4.97,-5.18,8.15,8.14,8.14
50.96,12.94,4.79,12.94,4.79,-4.79,-5.01,-5.26,8.15,8.15,8.15
51.47,12.98,4.83,12.98,4.83,-4.82,-5.05,-5.35,8.15,8.15,8.15
51.99,13.02,4.86,13.02,4.86,-4.86,-5.10,-5.43,8.16,8.16,8.15
52.51,13.06,4.90,13.06,4.90,-4.90,-5.14,-5.52,8.16,8.16,8.15
53.03,13.10,4.94,13.10,4.94,-4.94,-5.18,-5.61,8.16,8.16,8.15
53.56,13.15,4.98,13.14,4.98,-4.98,-5.22,-5.69,8.16,8.16,8.17
54.10,13.19,5.02,13.19,5.03,-5.04,-5.27,-5.78,8.15,8.16,8.16
54.64,13.25,5.08,13.25,5.09,-5.09,-5.31,-5.86,8.16,8.16,8.16
55.18,13.31,5.15,13.31,5.15,-5.16,-5.36,-5.95,8.15,8.15,8.15
55.74,13.38,5.23,13.38,5.22,-5.23,-5.40,-6.03,8.15,8.15,8.15
56.29,13.45,5.30,13.45,5.30,-5.31,-5.44,-6.11,8.14,8.14,8.15
56.86,13.53,5.39,13.53,5.39,-5.39,-5.49,-6.19,8.14,8.14,8.14
57.42,13.61,5.47,13.61,5.48,-5.48,-5.53,-6.26,8.13,8.14,8.14
58.00,13.70,5.57,13.70,5.57,-5.56,-5.58,-6.33,8.14,8.14,8.12
58.58,13.78,5.66,13.78,5.66,-5.65,-5.62,-6.40,8.13,8.13,8.12
59.16,13.85,5.74,13.85,5.74,-5.73,-5.67,-6.46,8.12,8.12,8.11
59.76,13.91,5.81,13.91,5.81,-5.81,-5.71,-6.51,8.10,8.10,8.09
60.35,13.97,5.89,13.97,5.89,-5.89,-5.76,-6.56,8.08,8.08,8.08
60.96,14.03,5.96,14.03,5.96,-5.97,-5.80,-6.61,8.06,8.06,8.07
61.57,14.09,6.04,14.09,6.04,-6.04,-5.85,-6.65,8.05,8.05,8.05
62.18,14.15,6.11,14.15,6.11,-6.11,-5.90,-6.68,8.03,8.03,8.03
62.80,14.20,6.18,14.20,6.18,-6.19,-5.94,-6.71,8.01,8.02,8.02
63.43,14.26,6.26,14.26,6.26,-6.26,-5.99,-6.73,8.00,8.00,8.00
64.07,14.31,6.33,14.31,6.33,-6.33,-6.03,-6.74,7.98,7.98,7.98
64.71,14.36,6.40,14.36,6.40,-6.39,-6.08,-6.75,7.96,7.96,7.96
65.35,14.40,6.46,14.40,6.46,-6.46,-6.12,-6.75,7.94,7.94,7.94
66.01,14.44,6.52,14.44,6.52,-6.52,-6.17,-6.75,7.92,7.92,7.92
66.67,14.48,6.58,14.48,6.58,-6.58,-6.21,-6.74,7.90,7.90,7.90
67.33,14.51,6.63,14.51,6.63,-6.63,-6.26,-6.73,7.88,7.88,7.88
68.01,14.54,6.69,14.53,6.68,-6.68,-6.30,-6.71,7.86,7.86,7.85
68.69,14.55,6.72,14.55,6.72,-6.72,-6.35,-6.69,7.83,7.83,7.83
69.37,14.57,6.76,14.57,6.76,-6.76,-6.40,-6.67,7.81,7.81,7.81
70.07,14.59,6.80,14.59,6.80,-6.79,-6.44,-6.64,7.79,7.79,7.79
70.77,14.60,6.83,14.60,6.83,-6.82,-6.49,-6.62,7.78,7.77,7.77
71.48,14.60,6.85,14.60,6.86,-6.85,-6.53,-6.59,7.75,7.75,7.74
72.19,14.60,6.88,14.60,6.88,-6.87,-6.57,-6.56,7.73,7.73,7.72
72.91,14.60,6.89,14.60,6.89,-6.90,-6.62,-6.53,7.70,7.70,7.71
73.64,14.60,6.92,14.60,6.91,-6.92,-6.66,-6.50,7.68,7.68,7.68
74.38,14.60,6.93,14.60,6.94,-6.95,-6.71,-6.48,7.65,7.65,7.67
75.12,14.61,6.97,14.61,6.97,-6.98,-6.75,-6.45,7.63,7.63,7.64
75.87,14.63,7.00,14.63,7.01,-7.01,-6.79,-6.43,7.62,7.62,7.62
76.63,14.66,7.05,14.66,7.05,-7.05,-6.84,-6.40,7.61,7.61,7.61
77.40,14.69,7.10,14.69,7.10,-7.10,-6.88,-6.38,7.59,7.59,7.59
78.17,14.72,7.15,14.72,7.15,-7.14,-6.92,-6.37,7.58,7.58,7.57
78.95,14.75,7.19,14.75,7.19,-7.19,-6.96,-6.35,7.56,7.56,7.55
79.74,14.78,7.24,14.78,7.24,-7.24,-7.00,-6.34,7.53,7.53,7.53
80.54,14.81,7.29,14.81,7.29,-7.30,-7.04,-6.34,7.51,7.51,7.52
81.35,14.84,7.34,14.84,7.34,-7.35,-7.09,-6.33,7.49,7.49,7.49
82.16,14.87,7.39,14.87,7.39,-7.40,-7.13,-6.33,7.47,7.47,7.47
82.98,14.90,7.45,14.90,7.45,-7.45,-7.17,-6.34,7.45,7.45,7.45
83.81,14.93,7.50,14.93,7.50,-7.50,-7.20,-6.35,7.43,7.43,7.43
84.65,14.96,7.55,14.96,7.55,-7.54,-7.24,-6.36,7.42,7.42,7.41
85.50,14.97,7.58,14.97,7.58,-7.57,-7.28,-6.38,7.40,7.40,7.39
86.35,14.97,7.61,14.97,7.60,-7.59,-7.32,-6.40,7.38,7.38,7.36
87.22,14.95,7.61,14.95,7.61,-7.60,-7.35,-6.43,7.35,7.35,7.34
88.09,14.93,7.61,14.93,7.61,-7.61,-7.39,-6.46,7.32,7.32,7.32
88.97,14.90,7.60,14.90,7.60,-7.61,-7.43,-6.50,7.29,7.29,7.30
89.86,14.87,7.59,14.87,7.59,-7.60,-7.46,-6.54,7.27,7.27,7.28
90.76,14.84,7.59,14.84,7.58,-7.59,-7.50,-6.59,7.25,7.25,7.25
91.66,14.81,7.57,14.81,7.58,-7.58,-7.53,-6.64,7.23,7.23,7.24
92.58,14.78,7.57,14.78,7.57,-7.57,-7.56,-6.70,7.21,7.21,7.21
93.51,14.75,7.57,14.75,7.56,-7.56,-7.59,-6.76,7.19,7.19,7.18
94.44,14.72,7.55,14.72,7.56,-7.55,-7.62,-6.83,7.17,7.17,7.17
95.39,14.69,7.55,14.69,7.55,-7.54,-7.65,-6.90,7.15,7.14,7.14
96.34,14.66,7.54,14.66,7.54,-7.54,-7.68,-6.98,7.12,7.12,7.12
97.30,14.63,7.53,14.63,7.54,-7.54,-7.71,-7.06,7.09,7.09,7.09
98.28,14.61,7.54,14.61,7.54,-7.54,-7.74,-7.14,7.07,7.07,7.07
99.26,14.59,7.55,14.59,7.55,-7.55,-7.77,-7.23,7.04,7.04,7.04
100.25,14.58,7.56,14.58,7.56,-7.57,-7.79,-7.32,7.01,7.01,7.02
101.25,14.58,7.59,14.58,7.58,-7.60,-7.82,-7.41,6.98,6.98,6.99
102.27,14.58,7.61,14.58,7.62,-7.63,-7.84,-7.51,6.95,6.95,6.96
103.29,14.60,7.67,14.60,7.67,-7.67,-7.86,-7.61,6.93,6.93,6.93
104.32,14.61,7.71,14.61,7.71,-7.70,-7.88,-7.71,6.90,6.91,6.90
105.37,14.63,7.76,14.62,7.76,-7.74,-7.90,-7.81,6.89,6.88,6.87
106.42,14.62,7.79,14.62,7.79,-7.78,-7.92,-7.91,6.84,6.84,6.83
107.48,14.62,7.83,14.62,7.82,-7.81,-7.94,-8.01,6.81,6.80,6.79
108.56,14.60,7.84,14.60,7.84,-7.84,-7.96,-8.11,6.76,6.76,6.75
109.64,14.58,7.86,14.58,7.86,-7.87,-7.97,-8.21,6.71,6.71,6.72
110.74,14.56,7.88,14.56,7.88,-7.89,-7.99,-8.31,6.67,6.67,6.68
111.85,14.54,7.90,14.54,7.90,-7.91,-8.00,-8.40,6.63,6.63,6.64
112.97,14.53,7.94,14.52,7.93,-7.93,-8.01,-8.49,6.60,6.60,6.59
114.10,14.50,7.94,14.50,7.95,-7.94,-8.02,-8.58,6.56,6.56,6.56
115.24,14.47,7.96,14.47,7.96,-7.95,-8.03,-8.65,6.52,6.52,6.51
116.39,14.43,7.96,14.43,7.96,-7.95,-8.04,-8.73,6.48,6.47,6.47
117.55,14.38,7.95,14.38,7.95,-7.96,-8.04,-8.79,6.42,6.42,6.42
118.73,14.33,7.94,14.33,7.95,-7.95,-8.05,-8.84,6.38,6.38,6.39
119.92,14.29,7.95,14.29,7.94,-7.95,-8.05,-8.88,6.34,6.34,6.34
121.12,14.25,7.94,14.25,7.94,-7.94,-8.05,-8.92,6.31,6.31,6.31
122.33,14.21,7.94,14.21,7.94,-7.93,-8.05,-8.94,6.28,6.27,6.27
123.55,14.16,7.92,14.16,7.92,-7.92,-8.05,-8.96,6.23,6.23,6.24
124.79,14.11,7.91,14.11,7.91,-7.92,-8.05,-8.95,6.19,6.19,6.20
126.03,14.06,7.89,14.07,7.90,-7.91,-8.04,-8.94,6.15,6.16,6.17
127.29,14.03,7.90,14.03,7.90,-7.90,-8.04,-8.92,6.13,6.13,6.13
128.57,14.00,7.90,13.99,7.89,-7.89,-8.03,-8.89,6.11,6.10,6.10
129.85,13.95,7.88,13.95,7.88,-7.87,-8.02,-8.83,6.08,6.08,6.07
131.15,13.90,7.86,13.90,7.86,-7.86,-8.01,-8.78,6.04,6.04,6.03
132.46,13.85,7.85,13.85,7.84,-7.84,-7.99,-8.71,6.01,6.01,6.00
133.79,13.79,7.81,13.79,7.81,-7.82,-7.98,-8.64,5.97,5.97,5.98
135.12,13.74,7.79,13.74,7.79,-7.79,-7.96,-8.55,5.94,5.94,5.95
136.48,13.69,7.77,13.69,7.76,-7.77,-7.95,-8.46,5.92,5.92,5.92
137.84,13.63,7.74,13.63,7.74,-7.74,-7.93,-8.36,5.89,5.90,5.89
139.22,13.58,7.72,13.58,7.71,-7.71,-7.91,-8.26,5.87,5.87,5.86
140.61,13.52,7.69,13.51,7.68,-7.68,-7.88,-8.15,5.84,5.84,5.83
142.02,13.45,7.63,13.45,7.64,-7.64,-7.86,-8.03,5.80,5.81,5.81
143.44,13.39,7.60,13.39,7.61,-7.61,-7.83,-7.92,5.77,5.78,5.79
144.87,13.34,7.58,13.33,7.58,-7.58,-7.80,-7.80,5.75,5.75,5.76
146.32,13.28,7.55,13.28,7.55,-7.55,-7.77,-7.68,5.73,5.72,5.72
147.78,13.22,7.52,13.22,7.53,-7.52,-7.74,-7.56,5.70,5.70,5.70
149.26,13.17,7.50,13.17,7.50,-7.49,-7.71,-7.44,5.68,5.68,5.67
150.75,13.12,7.47,13.11,7.47,-7.46,-7.67,-7.32,5.65,5.65,5.65
152.26,13.06,7.43,13.06,7.44,-7.44,-7.63,-7.21,5.62,5.62,5.62
153.78,13.00,7.41,13.00,7.41,-7.41,-7.59,-7.09,5.59,5.59,5.59
155.32,12.94,7.37,12.94,7.37,-7.38,-7.55,-6.98,5.56,5.56,5.57
156.88,12.89,7.34,12.89,7.35,-7.35,-7.51,-6.87,5.54,5.54,5.54
158.44,12.84,7.32,12.84,7.32,-7.32,-7.47,-6.76,5.52,5.52,5.52
160.03,12.79,7.30,12.78,7.29,-7.29,-7.42,-6.65,5.50,5.50,5.49
161.63,12.72,7.25,12.72,7.25,-7.26,-7.37,-6.55,5.46,5.47,5.47
163.24,12.66,7.22,12.66,7.22,-7.22,-7.33,-6.46,5.44,5.44,5.44
164.88,12.60,7.18,12.60,7.18,-7.19,-7.27,-6.37,5.41,5.41,5.42
166.53,12.54,7.15,12.54,7.15,-7.14,-7.22,-6.28,5.39,5.39,5.39
168.19,12.48,7.12,12.47,7.11,-7.10,-7.17,-6.19,5.38,5.37,5.36
169.87,12.40,7.06,12.40,7.06,-7.05,-7.11,-6.11,5.34,5.34,5.33
171.57,12.32,7.01,12.31,7.01,-7.01,-7.05,-6.04,5.31,5.31,5.31
173.29,12.22,6.94,12.23,6.95,-6.95,-7.00,-5.96,5.26,5.27,5.28
175.02,12.14,6.89,12.14,6.89,-6.90,-6.94,-5.90,5.24,5.24,5.25
176.77,12.06,6.84,12.06,6.84,-6.84,-6.88,-5.84,5.22,5.21,5.22
178.54,11.98,6.79,11.98,6.79,-6.78,-6.81,-5.78,5.19,5.19,5.19
180.32,11.89,6.73,11.89,6.73,-6.73,-6.75,-5.72,5.16,5.16,5.16
182.13,11.80,6.67,11.80,6.67,-6.67,-6.68,-5.68,5.13,5.13,5.13
183.95,11.70,6.60,11.70,6.61,-6.61,-6.61,-5.63,5.09,5.10,5.10
185.79,11.61,6.55,11.61,6.54,-6.54,-6.55,-5.59,5.06,5.07,5.06
187.65,11.52,6.48,11.51,6.48,-6.48,-6.48,-5.55,5.04,5.03,5.04
189.52,11.42,6.41,11.42,6.41,-6.41,-6.40,-5.52,5.00,5.00,5.01
191.42,11.32,6.35,11.32,6.35,-6.35,-6.33,-5.49,4.97,4.98,4.97
193.33,11.23,6.29,11.23,6.28,-6.28,-6.26,-5.47,4.95,4.95,4.94
195.27,11.14,6.22,11.13,6.22,-6.22,-6.18,-5.44,4.92,4.91,4.92
197.22,11.04,6.15,11.04,6.15,-6.16,-6.10,-5.43,4.88,4.88,4.89
199.19,10.94,6.08,10.94,6.09,-6.09,-6.03,-5.41,4.84,4.85,4.86
201.18,10.85,6.03,10.85,6.03,-6.03,-5.95,-5.40,4.81,4.82,4.81
203.19,10.77,5.98,10.76,5.98,-5.98,-5.87,-5.39,4.79,4.78,4.78
205.23,10.67,5.91,10.68,5.92,-5.92,-5.79,-5.38,4.75,4.76,4.75
207.28,10.59,5.86,10.59,5.87,-5.86,-5.70,-5.37,4.73,4.73,4.72
209.35,10.51,5.81,10.50,5.81,-5.81,-5.62,-5.36,4.70,4.69,4.69
211.44,10.41,5.75,10.41,5.75,-5.75,-5.54,-5.36,4.65,4.66,4.66
213.56,10.32,5.69,10.32,5.70,-5.70,-5.45,-5.35,4.62,4.62,4.63
215.69,10.23,5.64,10.23,5.64,-5.65,-5.36,-5.35,4.58,4.58,4.59
217.85,10.15,5.60,10.14,5.59,-5.60,-5.27,-5.34,4.55,4.55,4.55
220.03,10.06,5.54,10.06,5.54,-5.54,-5.18,-5.33,4.52,4.52,4.52
222.23,9.97,5.47,9.98,5.49,-5.48,-5.09,-5.32,4.48,4.49,4.49
224.45,9.90,5.44,9.89,5.43,-5.42,-5.00,-5.31,4.47,4.46,4.46
226.70,9.80,5.37,9.80,5.37,-5.36,-4.91,-5.29,4.44,4.44,4.43
228.96,9.69,5.29,9.70,5.29,-5.29,-4.82,-5.28,4.40,4.41,4.40
231.25,9.59,5.21,9.59,5.21,-5.21,-4.72,-5.25,4.38,4.38,4.38
233.57,9.48,5.12,9.48,5.12,-5.12,-4.63,-5.22,4.36,4.36,4.36
235.90,9.37,5.04,9.36,5.03,-5.02,-4.53,-5.19,4.34,4.34,4.33
238.26,9.24,4.92,9.24,4.92,-4.92,-4.43,-5.15,4.32,4.32,4.32
240.64,9.11,4.81,9.11,4.81,-4.81,-4.33,-5.11,4.30,4.31,4.30
243.05,8.99,4.70,8.98,4.69,-4.69,-4.23,-5.06,4.30,4.29,4.29
245.48,8.84,4.57,8.84,4.57,-4.57,-4.13,-5.00,4.27,4.27,4.27
247.93,8.69,4.43,8.69,4.44,-4.44,-4.03,-4.93,4.24,4.25,4.26
250.41,8.55,4.31,8.55,4.31,-4.31,-3.93,-4.86,4.23,4.24,4.24
252.92,8.41,4.18,8.41,4.18,-4.18,-3.82,-4.78,4.23,4.23,4.23
255.45,8.27,4.06,8.26,4.05,-4.04,-3.72,-4.69,4.22,4.22,4.21
258.00,8.11,3.91,8.11,3.91,-3.91,-3.61,-4.59,4.20,4.20,4.20
260.58,7.96,3.77,7.96,3.77,-3.77,-3.50,-4.49,4.19,4.18,4.19
263.19,7.80,3.62,7.80,3.63,-3.64,-3.40,-4.38,4.16,4.17,4.18
265.82,7.66,3.50,7.66,3.49,-3.50,-3.29,-4.26,4.16,4.16,4.16
268.48,7.51,3.36,7.51,3.36,-3.36,-3.18,-4.14,4.15,4.15,4.15
271.16,7.36,3.22,7.36,3.22,-3.22,-3.06,-4.01,4.14,4.14,4.14
273.87,7.21,3.09,7.21,3.09,-3.08,-2.95,-3.88,4.13,4.13,4.12
276.61,7.06,2.95,7.05,2.95,-2.95,-2.84,-3.74,4.11,4.11,4.11
279.38,6.90,2.80,6.90,2.80,-2.81,-2.72,-3.59,4.09,4.09,4.09
282.17,6.74,2.66,6.74,2.66,-2.67,-2.61,-3.44,4.07,4.07,4.08
284.99,6.59,2.52,6.59,2.52,-2.53,-2.49,-3.29,4.06,4.07,4.07
287.84,6.45,2.39,6.44,2.39,-2.38,-2.37,-3.13,4.07,4.06,4.06
290.72,6.29,2.25,6.29,2.24,-2.23,-2.25,-2.97,4.06,4.05,4.04
293.63,6.12,2.09,6.12,2.09,-2.08,-2.13,-2.80,4.04,4.04,4.03
296.57,5.95,1.93,5.95,1.93,-1.93,-2.01,-2.64,4.02,4.02,4.02
299.53,5.77,1.76,5.77,1.77,-1.77,-1.88,-2.47,4.00,4.00,4.00
302.53,5.60,1.61,5.60,1.61,-1.61,-1.76,-2.30,3.99,3.98,3.99
305.55,5.42,1.45,5.42,1.44,-1.45,-1.63,-2.13,3.97,3.97,3.97
308.61,5.24,1.28,5.24,1.29,-1.28,-1.50,-1.95,3.95,3.96,3.96
311.69,5.07,1.12,5.07,1.13,-1.12,-1.38,-1.78,3.95,3.95,3.94
314.81,4.89,0.97,4.88,0.96,-0.95,-1.25,-1.60,3.93,3.93,3.92
317.96,4.70,0.79,4.70,0.79,-0.79,-1.11,-1.43,3.91,3.91,3.91
321.14,4.50,0.61,4.51,0.62,-0.62,-0.98,-1.25,3.88,3.89,3.89
324.35,4.32,0.44,4.32,0.45,-0.45,-0.85,-1.07,3.87,3.87,3.88
327.59,4.15,0.29,4.14,0.28,-0.28,-0.71,-0.90,3.87,3.86,3.85
330.87,3.96,0.12,3.96,0.12,-0.11,-0.57,-0.72,3.85,3.85,3.84
334.18,3.78,-0.04,3.78,-0.05,0.05,-0.43,-0.54,3.83,3.83,3.82
337.52,3.59,-0.22,3.59,-0.22,0.21,-0.29,-0.36,3.80,3.80,3.81
340.90,3.41,-0.38,3.41,-0.38,0.37,-0.15,-0.18,3.78,3.78,3.79
344.30,3.24,-0.54,3.24,-0.53,0.52,-0.01,0.00,3.76,3.76,3.78
347.75,3.08,-0.68,3.08,-0.68,0.67,0.13,0.18,3.75,3.75,3.75
351.23,2.92,-0.81,2.92,-0.81,0.81,0.28,0.36,3.73,3.74,3.73
354.74,2.78,-0.94,2.77,-0.94,0.95,0.43,0.54,3.73,3.72,3.72
358.28,2.63,-1.07,2.63,-1.07,1.08,0.58,0.73,3.71,3.71,3.70
361.87,2.48,-1.20,2.48,-1.20,1.20,0.72,0.91,3.68,3.69,3.68
365.49,2.34,-1.33,2.34,-1.33,1.32,0.88,1.09,3.66,3.66,3.67
369.14,2.21,-1.44,2.21,-1.44,1.43,1.03,1.27,3.64,3.64,3.65
372.83,2.08,-1.56,2.08,-1.55,1.54,1.18,1.46,3.62,3.62,3.64
376.56,1.97,-1.65,1.97,-1.65,1.64,1.33,1.64,3.61,3.61,3.61
380.33,1.86,-1.73,1.86,-1.74,1.74,1.49,1.83,3.60,3.60,3.59
384.13,1.75,-1.83,1.75,-1.83,1.84,1.64,2.01,3.59,3.59,3.58
387.97,1.64,-1.92,1.64,-1.93,1.93,1.80,2.20,3.57,3.57,3.56
391.85,1.52,-2.03,1.52,-2.03,2.03,1.96,2.38,3.55,3.55,3.55
395.77,1.41,-2.13,1.41,-2.13,2.13,2.11,2.57,3.54,3.54,3.54
399.73,1.30,-2.23,1.30,-2.23,2.23,2.27,2.75,3.53,3.53,3.53
403.72,1.19,-2.33,1.18,-2.33,2.34,2.43,2.93,3.53,3.52,3.52
407.76,1.06,-2.45,1.06,-2.45,2.45,2.58,3.12,3.51,3.51,3.51
411.84,0.92,-2.57,0.92,-2.57,2.57,2.74,3.30,3.49,3.49,3.49
415.96,0.78,-2.70,0.78,-2.70,2.69,2.90,3.48,3.47,3.47,3.48
420.12,0.64,-2.83,0.64,-2.82,2.82,3.05,3.66,3.46,3.46,3.46
424.32,0.50,-2.96,0.50,-2.95,2.96,3.20,3.83,3.45,3.46,3.45
428.56,0.36,-3.08,0.35,-3.09,3.10,3.36,4.01,3.45,3.44,3.44
432.85,0.19,-3.23,0.19,-3.24,3.24,3.50,4.18,3.43,3.43,3.42
437.18,0.02,-3.39,0.03,-3.39,3.39,3.65,4.34,3.41,3.42,3.41
441.55,-0.14,-3.54,-0.15,-3.54,3.54,3.80,4.50,3.40,3.40,3.40
445.96,-0.31,-3.69,-0.31,-3.69,3.70,3.94,4.66,3.38,3.38,3.38
450.42,-0.49,-3.85,-0.49,-3.85,3.85,4.07,4.81,3.36,3.36,3.36
454.93,-0.66,-4.01,-0.67,-4.01,4.01,4.21,4.95,3.35,3.34,3.35
459.48,-0.85,-4.18,-0.84,-4.17,4.17,4.34,5.08,3.31,3.32,3.33
464.07,-1.01,-4.32,-1.01,-4.32,4.32,4.46,5.21,3.31,3.31,3.31
468.71,-1.17,-4.46,-1.17,-4.46,4.47,4.58,5.32,3.30,3.30,3.29
473.40,-1.33,-4.61,-1.34,-4.61,4.62,4.69,5.43,3.29,3.28,3.28
478.13,-1.50,-4.76,-1.50,-4.76,4.76,4.79,5.52,3.26,3.26,3.26
482.91,-1.66,-4.91,-1.65,-4.90,4.90,4.89,5.61,3.23,3.24,3.25
487.74,-1.79,-5.02,-1.80,-5.03,5.03,4.98,5.68,3.23,3.23,3.23
492.62,-1.93,-5.15,-1.93,-5.14,5.15,5.07,5.74,3.21,3.22,3.22
497.55,-2.05,-5.26,-2.05,-5.26,5.26,5.14,5.78,3.20,3.20,3.21
502.52,-2.16,-5.36,-2.17,-5.36,5.35,5.21,5.82,3.19,3.19,3.19
507.55,-2.27,-5.46,-2.27,-5.45,5.44,5.27,5.84,3.17,3.17,3.18
