frequency,raw,error,smoothed,error_smoothed,equalization,parametric_eq,fixed_band_eq,equalized_raw,equalized_smoothed,target
20.00,-7.34,-9.49,-7.36,-9.50,6.00,5.57,2.73,-1.34,-1.36,2.15
20.20,-7.34,-9.49,-7.32,-9.47,6.00,5.60,2.81,-1.34,-1.32,2.15
20.40,-7.28,-9.43,-7.28,-9.43,6.00,5.63,2.89,-1.28,-1.28,2.15
20.61,-7.21,-9.36,-7.22,-9.37,6.00,5.66,2.98,-1.21,-1.22,2.15
20.81,-7.15,-9.30,-7.15,-9.31,6.00,5.68,3.06,-1.15,-1.15,2.15
21.02,-7.09,-9.25,-7.09,-9.24,6.00,5.71,3.15,-1.09,-1.09,2.15
21.23,-7.01,-9.17,-7.01,-9.17,6.00,5.74,3.24,-1.01,-1.01,2.15
21.44,-6.94,-9.10,-6.94,-9.10,6.00,5.76,3.33,-0.94,-0.94,2.16
21.66,-6.87,-9.03,-6.88,-9.03,6.00,5.79,3.43,-0.87,-0.88,2.16
21.87,-6.82,-8.98,-6.81,-8.97,6.00,5.81,3.53,-0.82,-0.81,2.16
22.09,-6.75,-8.91,-6.75,-8.91,6.00,5.84,3.63,-0.75,-0.75,2.16
22.31,-6.69,-8.85,-6.70,-8.86,6.00,5.86,3.73,-0.69,-0.70,2.16
22.54,-6.63,-8.79,-6.63,-8.79,6.00,5.89,3.84,-0.63,-0.63,2.16
22.76,-6.57,-8.73,-6.57,-8.73,6.00,5.91,3.95,-0.57,-0.57,2.16
22.99,-6.49,-8.66,-6.50,-8.67,6.00,5.93,4.06,-0.49,-0.50,2.16
23.22,-6.44,-8.61,-6.44,-8.60,6.00,5.95,4.17,-0.44,-0.44,2.16
23.45,-6.37,-8.54,-6.37,-8.54,6.00,5.97,4.29,-0.37,-0.37,2.17
23.69,-6.30,-8.47,-6.31,-8.47,6.00,5.99,4.41,-0.30,-0.31,2.17
23.92,-6.24,-8.41,-6.24,-8.41,6.00,6.01,4.53,-0.24,-0.24,2.17
24.16,-6.17,-8.34,-6.17,-8.34,6.00,6.03,4.66,-0.17,-0.17,2.17
24.40,-6.11,-8.28,-6.11,-8.28,6.00,6.05,4.78,-0.11,-0.11,2.17
24.65,-6.04,-8.21,-6.05,-8.22,6.00,6.06,4.91,-0.04,-0.05,2.17
24.89,-5.99,-8.16,-5.99,-8.16,6.00,6.08,5.04,0.01,0.01,2.17
25.14,-5.92,-8.09,-5.92,-8.09,6.00,6.09,5.17,0.08,0.08,2.17
25.39,-5.85,-8.02,-5.85,-8.02,6.00,6.11,5.31,0.15,0.15,2.17
25.65,-5.77,-7.95,-5.78,-7.95,6.00,6.12,5.44,0.23,0.22,2.17
25.91,-5.72,-7.90,-5.72,-7.89,6.00,6.13,5.57,0.28,0.28,2.17
26.16,-5.65,-7.83,-5.65,-7.83,6.00,6.14,5.71,0.35,0.35,2.18
26.43,-5.59,-7.77,-5.59,-7.77,6.00,6.15,5.84,0.41,0.41,2.18
26.69,-5.52,-7.70,-5.52,-7.70,6.00,6.16,5.97,0.48,0.48,2.18
26.96,-5.45,-7.63,-5.46,-7.64,6.00,6.17,6.11,0.55,0.54,2.18
27.23,-5.40,-7.58,-5.40,-7.57,6.00,6.18,6.23,0.60,0.60,2.18
27.50,-5.33,-7.51,-5.33,-7.51,6.00,6.19,6.36,0.67,0.67,2.18
27.77,-5.26,-7.44,-5.27,-7.44,6.00,6.19,6.48,0.74,0.73,2.18
28.05,-5.20,-7.38,-5.20,-7.38,6.00,6.20,6.60,0.80,0.80,2.18
28.33,-5.13,-7.31,-5.14,-7.32,6.00,6.20,6.71,0.87,0.86,2.18
28.62,-5.08,-7.26,-5.08,-7.26,6.00,6.21,6.82,0.92,0.92,2.18
28.90,-5.01,-7.19,-5.02,-7.20,6.00,6.21,6.92,0.99,0.98,2.18
29.19,-4.96,-7.14,-4.96,-7.14,6.00,6.21,7.01,1.04,1.04,2.18
29.48,-4.90,-7.08,-4.90,-7.08,6.00,6.21,7.09,1.10,1.10,2.18
29.78,-4.83,-7.02,-4.84,-7.02,6.00,6.21,7.16,1.17,1.16,2.18
30.08,-4.78,-6.97,-4.79,-6.97,6.00,6.21,7.22,1.22,1.21,2.18
30.38,-4.74,-6.93,-4.74,-6.92,6.00,6.21,7.28,1.26,1.26,2.18
30.68,-4.69,-6.88,-4.69,-6.87,6.00,6.20,7.32,1.31,1.31,2.18
30.99,-4.63,-6.82,-4.63,-6.82,6.00,6.20,7.35,1.37,1.37,2.18
31.30,-4.57,-6.76,-4.57,-6.76,6.00,6.19,7.37,1.43,1.43,2.18
31.61,-4.51,-6.70,-4.51,-6.70,6.00,6.19,7.37,1.49,1.49,2.18
31.93,-4.45,-6.64,-4.45,-6.64,6.00,6.18,7.37,1.55,1.55,2.18
32.24,-4.39,-6.58,-4.40,-6.58,6.00,6.17,7.35,1.61,1.60,2.18
32.57,-4.35,-6.54,-4.35,-6.54,6.00,6.16,7.33,1.65,1.65,2.18
32.89,-4.31,-6.50,-4.31,-6.49,6.00,6.15,7.29,1.69,1.69,2.18
33.22,-4.26,-6.45,-4.26,-6.44,6.00,6.14,7.24,1.74,1.74,2.18
33.55,-4.20,-6.39,-4.20,-6.39,6.00,6.13,7.19,1.80,1.80,2.18
33.89,-4.14,-6.33,-4.15,-6.33,6.00,6.12,7.12,1.86,1.86,2.18
34.23,-4.09,-6.28,-4.10,-6.28,6.01,6.10,7.05,1.91,1.91,2.18
34.57,-4.05,-6.24,-4.05,-6.23,6.01,6.09,6.98,1.96,1.96,2.18
34.92,-4.00,-6.19,-4.00,-6.18,6.01,6.07,6.89,2.01,2.01,2.18
35.27,-3.94,-6.13,-3.94,-6.13,6.00,6.05,6.81,2.06,2.06,2.18
35.62,-3.88,-6.06,-3.89,-6.07,5.99,6.03,6.72,2.11,2.11,2.18
35.97,-3.83,-6.01,-3.84,-6.02,5.97,6.02,6.62,2.14,2.14,2.18
36.33,-3.79,-5.97,-3.79,-5.97,5.95,5.99,6.52,2.15,2.16,2.18
36.70,-3.74,-5.92,-3.74,-5.92,5.91,5.97,6.43,2.17,2.17,2.18
37.06,-3.69,-5.87,-3.69,-5.87,5.87,5.95,6.33,2.18,2.18,2.18
37.43,-3.63,-5.81,-3.63,-5.81,5.82,5.93,6.23,2.19,2.19,2.18
37.81,-3.57,-5.75,-3.58,-5.76,5.77,5.90,6.13,2.19,2.19,2.18
38.19,-3.53,-5.71,-3.53,-5.70,5.71,5.88,6.03,2.18,2.18,2.17
38.57,-3.48,-5.66,-3.48,-5.65,5.65,5.85,5.93,2.17,2.17,2.17
38.95,-3.43,-5.60,-3.43,-5.60,5.60,5.83,5.84,2.17,2.17,2.17
39.34,-3.38,-5.55,-3.38,-5.55,5.55,5.80,5.75,2.17,2.17,2.17
39.74,-3.33,-5.50,-3.34,-5.50,5.50,5.77,5.66,2.17,2.17,2.17
40.14,-3.29,-5.46,-3.29,-5.46,5.46,5.74,5.57,2.16,2.17,2.17
40.54,-3.25,-5.42,-3.25,-5.41,5.41,5.71,5.48,2.16,2.17,2.16
40.94,-3.20,-5.36,-3.21,-5.37,5.37,5.68,5.40,2.17,2.16,2.16
41.35,-3.17,-5.33,-3.17,-5.33,5.34,5.65,5.32,2.16,2.16,2.16
41.76,-3.14,-5.30,-3.14,-5.30,5.30,5.61,5.25,2.16,2.16,2.16
42.18,-3.12,-5.28,-3.11,-5.27,5.27,5.58,5.18,2.15,2.16,2.16
42.60,-3.08,-5.23,-3.09,-5.25,5.24,5.54,5.11,2.16,2.15,2.15
43.03,-3.07,-5.22,-3.08,-5.23,5.22,5.51,5.04,2.15,2.15,2.15
43.46,-3.07,-5.22,-3.06,-5.21,5.20,5.47,4.98,2.13,2.14,2.15
43.90,-3.04,-5.19,-3.05,-5.19,5.19,5.43,4.93,2.15,2.14,2.14
44.33,-3.03,-5.17,-3.04,-5.18,5.18,5.39,4.87,2.15,2.15,2.14
44.78,-3.03,-5.17,-3.03,-5.17,5.18,5.35,4.83,2.15,2.15,2.14
45.23,-3.03,-5.17,-3.03,-5.17,5.18,5.31,4.78,2.14,2.14,2.13
45.68,-3.04,-5.17,-3.04,-5.17,5.18,5.27,4.74,2.14,2.13,2.13
46.13,-3.05,-5.18,-3.06,-5.18,5.18,5.23,4.70,2.13,2.12,2.13
46.60,-3.07,-5.19,-3.07,-5.19,5.18,5.19,4.67,2.11,2.11,2.12
47.06,-3.07,-5.19,-3.07,-5.19,5.18,5.15,4.64,2.11,2.11,2.12
47.53,-3.07,-5.18,-3.07,-5.18,5.17,5.10,4.61,2.10,2.10,2.11
48.01,-3.06,-5.17,-3.06,-5.17,5.16,5.06,4.58,2.10,2.10,2.11
48.49,-3.03,-5.13,-3.04,-5.15,5.14,5.01,4.56,2.11,2.10,2.10
48.97,-3.03,-5.13,-3.02,-5.12,5.12,4.97,4.54,2.09,2.10,2.10
49.46,-2.99,-5.08,-2.99,-5.08,5.09,4.92,4.53,2.09,2.09,2.09
49.96,-2.96,-5.05,-2.96,-5.05,5.04,4.87,4.51,2.08,2.08,2.08
50.46,-2.92,-5.00,-2.92,-5.00,5.00,4.83,4.50,2.07,2.07,2.08
50.96,-2.88,-4.95,-2.88,-4.95,4.95,4.78,4.50,2.06,2.06,2.07
51.47,-2.83,-4.90,-2.83,-4.90,4.89,4.73,4.49,2.06,2.06,2.06
51.99,-2.78,-4.84,-2.77,-4.83,4.83,4.68,4.48,2.05,2.05,2.06
52.51,-2.70,-4.75,-2.72,-4.77,4.77,4.63,4.48,2.06,2.05,2.05
53.03,-2.66,-4.70,-2.66,-4.70,4.71,4.58,4.48,2.04,2.05,2.04
53.56,-2.61,-4.65,-2.61,-4.64,4.65,4.53,4.47,2.04,2.04,2.03
54.10,-2.56,-4.59,-2.57,-4.60,4.60,4.47,4.47,2.04,2.03,2.03
54.64,-2.53,-4.55,-2.53,-4.55,4.55,4.42,4.47,2.02,2.02,2.02
55.18,-2.50,-4.51,-2.50,-4.51,4.51,4.37,4.47,2.01,2.02,2.01
55.74,-2.47,-4.47,-2.48,-4.48,4.49,4.32,4.46,2.01,2.00,2.00
56.29,-2.47,-4.46,-2.47,-4.46,4.47,4.26,4.46,1.99,1.99,1.99
56.86,-2.47,-4.45,-2.47,-4.45,4.45,4.21,4.45,1.98,1.98,1.98
57.42,-2.47,-4.44,-2.47,-4.44,4.44,4.15,4.44,1.97,1.98,1.97
58.00,-2.47,-4.43,-2.47,-4.43,4.44,4.10,4.43,1.97,1.97,1.96
58.58,-2.47,-4.42,-2.49,-4.44,4.43,4.04,4.42,1.96,1.95,1.95
59.16,-2.51,-4.45,-2.50,-4.43,4.43,3.99,4.40,1.91,1.93,1.93
59.76,-2.51,-4.43,-2.50,-4.42,4.41,3.93,4.38,1.90,1.91,1.92
60.35,-2.47,-4.38,-2.49,-4.40,4.39,3.87,4.36,1.92,1.90,1.91
60.96,-2.47,-4.37,-2.47,-4.36,4.35,3.82,4.33,1.88,1.88,1.90
61.57,-2.43,-4.31,-2.43,-4.32,4.31,3.76,4.30,1.87,1.87,1.88
62.18,-2.40,-4.27,-2.39,-4.26,4.25,3.70,4.26,1.84,1.86,1.87
62.80,-2.32,-4.18,-2.33,-4.18,4.18,3.64,4.22,1.85,1.85,1.85
63.43,-2.25,-4.09,-2.26,-4.10,4.10,3.59,4.18,1.85,1.84,1.84
64.07,-2.19,-4.02,-2.19,-4.01,4.02,3.53,4.13,1.82,1.83,1.82
64.71,-2.11,-3.92,-2.12,-3.92,3.93,3.47,4.07,1.82,1.82,1.81
65.35,-2.05,-3.84,-2.05,-3.84,3.85,3.41,4.02,1.80,1.80,1.79
66.01,-1.98,-3.76,-1.98,-3.76,3.77,3.35,3.95,1.78,1.78,1.77
66.67,-1.92,-3.68,-1.93,-3.68,3.69,3.29,3.89,1.76,1.76,1.76
67.33,-1.87,-3.61,-1.87,-3.61,3.61,3.23,3.82,1.74,1.74,1.74
68.01,-1.81,-3.53,-1.81,-3.53,3.53,3.18,3.74,1.72,1.72,1.72
68.69,-1.75,-3.45,-1.76,-3.45,3.45,3.12,3.67,1.70,1.69,1.70
69.37,-1.69,-3.37,-1.69,-3.37,3.37,3.06,3.59,1.67,1.67,1.68
70.07,-1.63,-3.29,-1.63,-3.29,3.28,3.00,3.51,1.65,1.65,1.66
70.77,-1.55,-3.19,-1.56,-3.19,3.19,2.94,3.42,1.64,1.63,1.64
71.48,-1.49,-3.11,-1.48,-3.10,3.09,2.88,3.33,1.60,1.61,1.62
72.19,-1.39,-2.99,-1.40,-3.00,2.99,2.82,3.25,1.60,1.59,1.59
72.91,-1.33,-2.90,-1.33,-2.90,2.89,2.76,3.16,1.56,1.57,1.57
73.64,-1.24,-2.79,-1.24,-2.79,2.79,2.70,3.07,1.55,1.55,1.55
74.38,-1.17,-2.70,-1.17,-2.69,2.70,2.64,2.98,1.52,1.53,1.52
75.12,-1.09,-2.59,-1.09,-2.59,2.60,2.58,2.88,1.51,1.51,1.50
75.87,-1.03,-2.51,-1.03,-2.50,2.52,2.52,2.79,1.49,1.49,1.47
76.63,-0.97,-2.42,-0.98,-2.43,2.44,2.46,2.70,1.47,1.46,1.45
77.40,-0.94,-2.36,-0.94,-2.36,2.37,2.40,2.61,1.42,1.43,1.42
78.17,-0.91,-2.31,-0.90,-2.30,2.30,2.34,2.51,1.39,1.39,1.39
78.95,-0.86,-2.23,-0.87,-2.24,2.23,2.28,2.42,1.37,1.36,1.37
79.74,-0.83,-2.17,-0.84,-2.17,2.17,2.22,2.33,1.34,1.33,1.34
80.54,-0.80,-2.11,-0.80,-2.11,2.11,2.16,2.24,1.30,1.31,1.31
81.35,-0.77,-2.05,-0.77,-2.05,2.04,2.11,2.15,1.27,1.27,1.28
82.16,-0.72,-1.97,-0.73,-1.98,1.97,2.05,2.06,1.25,1.24,1.25
82.98,-0.69,-1.91,-0.68,-1.91,1.90,1.99,1.97,1.21,1.22,1.22
83.81,-0.63,-1.82,-0.64,-1.83,1.83,1.93,1.89,1.19,1.19,1.19
84.65,-0.59,-1.75,-0.59,-1.75,1.75,1.87,1.80,1.16,1.16,1.16
85.50,-0.54,-1.67,-0.54,-1.67,1.67,1.81,1.71,1.13,1.13,1.13
86.35,-0.49,-1.59,-0.50,-1.59,1.59,1.76,1.63,1.10,1.09,1.09
87.22,-0.45,-1.51,-0.45,-1.51,1.51,1.70,1.55,1.06,1.06,1.06
88.09,-0.40,-1.43,-0.40,-1.43,1.43,1.64,1.46,1.03,1.03,1.03
88.97,-0.36,-1.36,-0.36,-1.36,1.36,1.58,1.38,1.00,1.00,0.99
89.86,-0.32,-1.28,-0.33,-1.28,1.28,1.53,1.30,0.96,0.96,0.96
90.76,-0.29,-1.22,-0.29,-1.21,1.21,1.47,1.22,0.92,0.92,0.92
91.66,-0.26,-1.15,-0.25,-1.14,1.14,1.42,1.14,0.88,0.89,0.89
92.58,-0.21,-1.07,-0.22,-1.07,1.08,1.36,1.07,0.86,0.85,0.85
93.51,-0.18,-1.00,-0.19,-1.00,1.01,1.30,0.99,0.83,0.82,0.82
94.44,-0.17,-0.95,-0.16,-0.94,0.95,1.25,0.92,0.77,0.78,0.78
95.39,-0.13,-0.88,-0.14,-0.89,0.88,1.20,0.84,0.75,0.74,0.74
96.34,-0.13,-0.84,-0.12,-0.83,0.82,1.14,0.77,0.69,0.70,0.71
97.30,-0.08,-0.75,-0.09,-0.76,0.76,1.09,0.70,0.68,0.67,0.67
98.28,-0.08,-0.72,-0.08,-0.71,0.71,1.03,0.62,0.62,0.63,0.63
99.26,-0.04,-0.64,-0.05,-0.64,0.65,0.98,0.55,0.61,0.60,0.60
100.25,-0.04,-0.60,-0.03,-0.59,0.59,0.93,0.48,0.55,0.56,0.56
101.25,-0.00,-0.52,-0.01,-0.53,0.53,0.88,0.42,0.53,0.52,0.52
102.27,-0.00,-0.48,0.01,-0.48,0.48,0.82,0.35,0.47,0.48,0.48
103.29,0.03,-0.42,0.03,-0.42,0.42,0.77,0.28,0.45,0.45,0.44
104.32,0.05,-0.36,0.04,-0.37,0.37,0.72,0.22,0.41,0.41,0.41
105.37,0.05,-0.32,0.06,-0.31,0.31,0.67,0.16,0.36,0.37,0.37
106.42,0.08,-0.25,0.07,-0.26,0.26,0.62,0.09,0.34,0.33,0.33
107.48,0.09,-0.20,0.08,-0.21,0.21,0.57,0.03,0.30,0.29,0.29
108.56,0.09,-0.17,0.10,-0.15,0.16,0.52,-0.03,0.25,0.26,0.25
109.64,0.12,-0.10,0.11,-0.10,0.11,0.47,-0.08,0.22,0.22,0.22
110.74,0.13,-0.05,0.12,-0.06,0.06,0.42,-0.14,0.18,0.18,0.18
111.85,0.13,-0.01,0.13,-0.01,0.00,0.38,-0.19,0.13,0.13,0.14
112.97,0.13,0.02,0.14,0.04,-0.04,0.33,-0.25,0.08,0.09,0.10
114.10,0.16,0.09,0.15,0.09,-0.09,0.28,-0.30,0.07,0.06,0.07
115.24,0.18,0.15,0.17,0.14,-0.13,0.24,-0.35,0.04,0.04,0.03
116.39,0.18,0.18,0.18,0.19,-0.17,0.19,-0.39,0.01,0.01,-0.01
117.55,0.18,0.22,0.18,0.22,-0.21,0.15,-0.44,-0.03,-0.02,-0.04
118.73,0.18,0.26,0.17,0.25,-0.24,0.10,-0.48,-0.06,-0.07,-0.08
119.92,0.16,0.27,0.15,0.27,-0.27,0.06,-0.52,-0.11,-0.11,-0.11
121.12,0.13,0.28,0.14,0.29,-0.30,0.01,-0.56,-0.17,-0.16,-0.15
122.33,0.13,0.31,0.12,0.31,-0.33,-0.03,-0.59,-0.20,-0.21,-0.18
123.55,0.13,0.35,0.13,0.35,-0.36,-0.07,-0.62,-0.24,-0.24,-0.22
124.79,0.13,0.38,0.14,0.40,-0.40,-0.11,-0.65,-0.27,-0.26,-0.25
126.03,0.18,0.46,0.16,0.44,-0.44,-0.15,-0.68,-0.27,-0.29,-0.29
127.29,0.18,0.50,0.18,0.50,-0.49,-0.19,-0.71,-0.31,-0.31,-0.32
128.57,0.18,0.53,0.20,0.55,-0.54,-0.23,-0.73,-0.36,-0.34,-0.35
129.85,0.22,0.60,0.20,0.59,-0.59,-0.27,-0.75,-0.37,-0.39,-0.39
131.15,0.22,0.63,0.22,0.63,-0.63,-0.31,-0.77,-0.42,-0.42,-0.42
132.46,0.22,0.67,0.23,0.68,-0.68,-0.35,-0.79,-0.46,-0.45,-0.45
133.79,0.26,0.74,0.24,0.72,-0.73,-0.39,-0.80,-0.47,-0.48,-0.48
135.12,0.26,0.77,0.26,0.76,-0.77,-0.42,-0.82,-0.51,-0.51,-0.51
136.48,0.26,0.80,0.27,0.81,-0.81,-0.46,-0.83,-0.55,-0.54,-0.54
137.84,0.29,0.85,0.28,0.85,-0.85,-0.50,-0.84,-0.56,-0.57,-0.57
139.22,0.31,0.90,0.30,0.89,-0.89,-0.53,-0.85,-0.58,-0.59,-0.60
140.61,0.31,0.93,0.31,0.93,-0.92,-0.57,-0.85,-0.62,-0.61,-0.62
142.02,0.31,0.96,0.31,0.96,-0.96,-0.60,-0.86,-0.65,-0.65,-0.65
143.44,0.31,0.98,0.31,0.98,-0.99,-0.63,-0.87,-0.68,-0.68,-0.68
144.87,0.31,1.01,0.31,1.01,-1.02,-0.67,-0.87,-0.71,-0.71,-0.70
146.32,0.32,1.05,0.32,1.05,-1.05,-0.70,-0.88,-0.73,-0.73,-0.73
147.78,0.33,1.08,0.32,1.08,-1.08,-0.73,-0.88,-0.75,-0.75,-0.75
149.26,0.33,1.10,0.33,1.11,-1.10,-0.76,-0.88,-0.77,-0.77,-0.78
150.75,0.33,1.13,0.33,1.13,-1.13,-0.79,-0.89,-0.80,-0.80,-0.80
152.26,0.33,1.15,0.33,1.15,-1.15,-0.82,-0.89,-0.82,-0.82,-0.82
153.78,0.33,1.17,0.33,1.17,-1.17,-0.85,-0.89,-0.85,-0.85,-0.85
155.32,0.33,1.20,0.32,1.19,-1.19,-0.88,-0.89,-0.86,-0.87,-0.87
156.88,0.31,1.20,0.31,1.20,-1.21,-0.91,-0.90,-0.90,-0.89,-0.89
158.44,0.31,1.22,0.31,1.22,-1.22,-0.93,-0.90,-0.92,-0.91,-0.91
160.03,0.31,1.24,0.31,1.24,-1.23,-0.96,-0.91,-0.93,-0.93,-0.93
161.63,0.31,1.26,0.30,1.25,-1.24,-0.99,-0.91,-0.93,-0.94,-0.95
163.24,0.29,1.26,0.29,1.25,-1.24,-1.01,-0.92,-0.96,-0.96,-0.97
164.88,0.26,1.24,0.26,1.25,-1.24,-1.04,-0.92,-0.99,-0.98,-0.99
166.53,0.25,1.25,0.24,1.25,-1.25,-1.06,-0.93,-1.00,-1.00,-1.00
168.19,0.22,1.24,0.22,1.25,-1.25,-1.08,-0.94,-1.03,-1.02,-1.02
169.87,0.22,1.26,0.20,1.24,-1.25,-1.11,-0.94,-1.03,-1.05,-1.04
171.57,0.18,1.23,0.19,1.24,-1.26,-1.13,-0.95,-1.08,-1.07,-1.05
173.29,0.18,1.25,0.18,1.25,-1.27,-1.15,-0.96,-1.09,-1.08,-1.07
175.02,0.19,1.27,0.19,1.28,-1.28,-1.17,-0.97,-1.10,-1.09,-1.09
176.77,0.22,1.32,0.21,1.31,-1.30,-1.19,-0.98,-1.08,-1.09,-1.10
178.54,0.22,1.33,0.22,1.33,-1.32,-1.21,-0.99,-1.10,-1.10,-1.11
180.32,0.22,1.35,0.22,1.35,-1.34,-1.23,-1.01,-1.12,-1.12,-1.13
182.13,0.22,1.36,0.22,1.36,-1.36,-1.25,-1.02,-1.14,-1.14,-1.14
183.95,0.22,1.37,0.22,1.37,-1.38,-1.27,-1.04,-1.16,-1.16,-1.15
185.79,0.22,1.38,0.22,1.38,-1.39,-1.29,-1.05,-1.17,-1.17,-1.17
187.65,0.22,1.40,0.22,1.40,-1.40,-1.30,-1.07,-1.18,-1.18,-1.18
189.52,0.22,1.41,0.22,1.41,-1.41,-1.32,-1.08,-1.19,-1.19,-1.19
191.42,0.22,1.42,0.22,1.42,-1.41,-1.34,-1.10,-1.20,-1.19,-1.20
193.33,0.22,1.43,0.22,1.43,-1.42,-1.35,-1.12,-1.20,-1.21,-1.21
195.27,0.22,1.44,0.20,1.43,-1.43,-1.37,-1.14,-1.21,-1.22,-1.22
197.22,0.18,1.41,0.19,1.42,-1.43,-1.38,-1.16,-1.25,-1.24,-1.23
199.19,0.18,1.42,0.18,1.42,-1.43,-1.39,-1.18,-1.25,-1.25,-1.24
201.18,0.18,1.43,0.18,1.43,-1.43,-1.41,-1.20,-1.25,-1.25,-1.25
203.19,0.18,1.44,0.18,1.44,-1.43,-1.42,-1.22,-1.25,-1.25,-1.26
205.23,0.18,1.45,0.16,1.43,-1.43,-1.43,-1.24,-1.25,-1.26,-1.27
207.28,0.13,1.40,0.14,1.42,-1.42,-1.44,-1.26,-1.29,-1.28,-1.28
209.35,0.13,1.41,0.13,1.42,-1.42,-1.45,-1.29,-1.29,-1.29,-1.28
211.44,0.13,1.42,0.12,1.41,-1.42,-1.46,-1.31,-1.29,-1.30,-1.29
213.56,0.13,1.43,0.11,1.41,-1.41,-1.47,-1.33,-1.29,-1.30,-1.30
215.69,0.09,1.39,0.10,1.41,-1.41,-1.48,-1.35,-1.32,-1.31,-1.31
217.85,0.09,1.40,0.09,1.41,-1.41,-1.49,-1.37,-1.32,-1.31,-1.31
220.03,0.09,1.41,0.08,1.40,-1.40,-1.50,-1.39,-1.31,-1.32,-1.32
222.23,0.09,1.41,0.07,1.40,-1.40,-1.51,-1.41,-1.31,-1.32,-1.33
224.45,0.05,1.38,0.07,1.40,-1.39,-1.51,-1.43,-1.34,-1.33,-1.33
226.70,0.05,1.38,0.05,1.38,-1.38,-1.52,-1.45,-1.34,-1.34,-1.34
228.96,0.05,1.39,0.03,1.37,-1.37,-1.53,-1.46,-1.33,-1.35,-1.34
231.25,-0.00,1.34,0.02,1.36,-1.36,-1.53,-1.48,-1.37,-1.35,-1.35
233.57,-0.00,1.35,-0.00,1.35,-1.35,-1.54,-1.49,-1.35,-1.35,-1.35
235.90,-0.00,1.35,-0.02,1.34,-1.33,-1.54,-1.50,-1.34,-1.35,-1.36
238.26,-0.04,1.32,-0.03,1.33,-1.32,-1.55,-1.51,-1.36,-1.35,-1.36
240.64,-0.06,1.30,-0.06,1.30,-1.30,-1.55,-1.52,-1.36,-1.36,-1.36
243.05,-0.08,1.29,-0.09,1.28,-1.28,-1.55,-1.53,-1.37,-1.37,-1.37
245.48,-0.11,1.26,-0.11,1.26,-1.27,-1.56,-1.53,-1.38,-1.38,-1.37
247.93,-0.13,1.24,-0.13,1.25,-1.25,-1.56,-1.54,-1.39,-1.38,-1.38
250.41,-0.13,1.25,-0.14,1.24,-1.24,-1.56,-1.54,-1.37,-1.38,-1.38
252.92,-0.15,1.23,-0.15,1.23,-1.23,-1.56,-1.54,-1.38,-1.39,-1.38
255.45,-0.17,1.21,-0.16,1.22,-1.22,-1.56,-1.53,-1.40,-1.39,-1.39
258.00,-0.17,1.22,-0.17,1.22,-1.22,-1.56,-1.53,-1.39,-1.39,-1.39
260.58,-0.17,1.22,-0.18,1.22,-1.21,-1.56,-1.52,-1.39,-1.39,-1.39
263.19,-0.17,1.22,-0.18,1.22,-1.21,-1.56,-1.51,-1.38,-1.39,-1.39
265.82,-0.19,1.20,-0.19,1.21,-1.20,-1.56,-1.50,-1.40,-1.39,-1.40
268.48,-0.19,1.21,-0.20,1.20,-1.20,-1.56,-1.49,-1.39,-1.40,-1.40
271.16,-0.21,1.19,-0.21,1.19,-1.20,-1.56,-1.48,-1.41,-1.41,-1.40
273.87,-0.21,1.19,-0.21,1.19,-1.20,-1.56,-1.46,-1.41,-1.41,-1.40
276.61,-0.21,1.19,-0.21,1.19,-1.19,-1.56,-1.45,-1.41,-1.41,-1.40
279.38,-0.21,1.19,-0.21,1.19,-1.19,-1.56,-1.43,-1.41,-1.41,-1.41
282.17,-0.21,1.20,-0.21,1.20,-1.19,-1.55,-1.41,-1.41,-1.41,-1.41
284.99,-0.21,1.20,-0.21,1.20,-1.20,-1.55,-1.39,-1.41,-1.41,-1.41
287.84,-0.21,1.20,-0.21,1.20,-1.20,-1.55,-1.37,-1.41,-1.41,-1.41
290.72,-0.21,1.20,-0.21,1.20,-1.20,-1.55,-1.35,-1.41,-1.41,-1.41
293.63,-0.21,1.20,-0.21,1.20,-1.20,-1.54,-1.33,-1.42,-1.42,-1.41
296.57,-0.21,1.20,-0.21,1.20,-1.20,-1.54,-1.31,-1.42,-1.42,-1.41
299.53,-0.21,1.20,-0.21,1.20,-1.20,-1.53,-1.29,-1.41,-1.41,-1.42
302.53,-0.21,1.20,-0.21,1.20,-1.20,-1.53,-1.26,-1.41,-1.41,-1.42
305.55,-0.21,1.20,-0.22,1.20,-1.19,-1.52,-1.24,-1.40,-1.41,-1.42
308.61,-0.23,1.19,-0.23,1.19,-1.18,-1.52,-1.22,-1.42,-1.42,-1.42
311.69,-0.25,1.17,-0.25,1.17,-1.18,-1.51,-1.20,-1.43,-1.42,-1.42
314.81,-0.26,1.16,-0.26,1.16,-1.17,-1.51,-1.18,-1.43,-1.43,-1.42
317.96,-0.26,1.16,-0.26,1.16,-1.17,-1.50,-1.16,-1.43,-1.43,-1.42
321.14,-0.26,1.16,-0.26,1.16,-1.16,-1.49,-1.14,-1.42,-1.42,-1.42
324.35,-0.26,1.16,-0.26,1.16,-1.16,-1.49,-1.12,-1.42,-1.42,-1.42
327.59,-0.26,1.16,-0.26,1.16,-1.15,-1.48,-1.10,-1.42,-1.41,-1.42
330.87,-0.26,1.16,-0.26,1.16,-1.15,-1.47,-1.08,-1.41,-1.41,-1.42
334.18,-0.26,1.16,-0.27,1.15,-1.15,-1.47,-1.06,-1.41,-1.41,-1.42
337.52,-0.27,1.15,-0.28,1.14,-1.14,-1.46,-1.05,-1.42,-1.42,-1.42
340.90,-0.30,1.12,-0.29,1.13,-1.14,-1.45,-1.03,-1.44,-1.43,-1.42
344.30,-0.30,1.12,-0.30,1.12,-1.13,-1.44,-1.01,-1.43,-1.43,-1.42
347.75,-0.30,1.12,-0.30,1.12,-1.12,-1.44,-1.00,-1.42,-1.42,-1.42
351.23,-0.30,1.12,-0.30,1.12,-1.11,-1.43,-0.99,-1.42,-1.41,-1.42
354.74,-0.30,1.12,-0.31,1.11,-1.11,-1.42,-0.97,-1.41,-1.42,-1.42
358.28,-0.32,1.10,-0.32,1.10,-1.10,-1.41,-0.96,-1.42,-1.42,-1.42
361.87,-0.34,1.08,-0.33,1.09,-1.09,-1.40,-0.95,-1.43,-1.43,-1.42
365.49,-0.34,1.08,-0.34,1.08,-1.08,-1.39,-0.94,-1.43,-1.43,-1.42
369.14,-0.34,1.08,-0.34,1.08,-1.07,-1.39,-0.93,-1.42,-1.42,-1.42
372.83,-0.34,1.08,-0.35,1.07,-1.06,-1.38,-0.92,-1.40,-1.41,-1.42
376.56,-0.36,1.06,-0.37,1.05,-1.05,-1.37,-0.91,-1.41,-1.42,-1.42
380.33,-0.39,1.03,-0.38,1.04,-1.04,-1.36,-0.90,-1.43,-1.42,-1.42
384.13,-0.39,1.03,-0.39,1.02,-1.03,-1.35,-0.89,-1.42,-1.42,-1.42
387.97,-0.39,1.03,-0.41,1.01,-1.01,-1.34,-0.89,-1.41,-1.42,-1.42
391.85,-0.43,0.98,-0.42,1.00,-1.00,-1.33,-0.88,-1.43,-1.42,-1.42
395.77,-0.43,0.98,-0.43,0.99,-0.99,-1.32,-0.88,-1.42,-1.41,-1.42
399.73,-0.43,0.98,-0.44,0.98,-0.98,-1.31,-0.87,-1.41,-1.41,-1.42
403.72,-0.43,0.98,-0.45,0.97,-0.97,-1.30,-0.87,-1.40,-1.41,-1.42
407.76,-0.47,0.94,-0.46,0.96,-0.96,-1.29,-0.86,-1.43,-1.42,-1.41
411.84,-0.47,0.94,-0.47,0.94,-0.95,-1.28,-0.86,-1.42,-1.42,-1.41
415.96,-0.47,0.94,-0.47,0.94,-0.94,-1.27,-0.86,-1.41,-1.42,-1.41
420.12,-0.47,0.94,-0.47,0.94,-0.93,-1.26,-0.86,-1.40,-1.40,-1.41
424.32,-0.47,0.94,-0.48,0.93,-0.92,-1.25,-0.85,-1.40,-1.40,-1.41
428.56,-0.49,0.92,-0.49,0.92,-0.91,-1.24,-0.85,-1.41,-1.40,-1.41
432.85,-0.50,0.91,-0.50,0.91,-0.91,-1.23,-0.85,-1.41,-1.41,-1.41
437.18,-0.52,0.89,-0.52,0.89,-0.90,-1.22,-0.85,-1.42,-1.42,-1.41
441.55,-0.52,0.89,-0.52,0.89,-0.89,-1.21,-0.85,-1.42,-1.42,-1.41
445.96,-0.52,0.88,-0.52,0.88,-0.89,-1.20,-0.85,-1.41,-1.41,-1.41
450.42,-0.52,0.88,-0.52,0.88,-0.88,-1.19,-0.85,-1.40,-1.40,-1.41
454.93,-0.52,0.88,-0.52,0.88,-0.88,-1.18,-0.85,-1.40,-1.40,-1.41
459.48,-0.52,0.88,-0.52,0.88,-0.88,-1.17,-0.85,-1.40,-1.40,-1.40
464.07,-0.52,0.88,-0.52,0.88,-0.88,-1.16,-0.85,-1.40,-1.40,-1.40
468.71,-0.52,0.88,-0.52,0.88,-0.88,-1.15,-0.85,-1.40,-1.40,-1.40
473.40,-0.52,0.88,-0.52,0.88,-0.88,-1.14,-0.85,-1.40,-1.40,-1.40
478.13,-0.52,0.88,-0.52,0.88,-0.88,-1.13,-0.85,-1.40,-1.40,-1.40
482.91,-0.52,0.88,-0.52,0.88,-0.87,-1.12,-0.85,-1.40,-1.39,-1.40
