frequency,raw,error,smoothed,error_smoothed,equalization,parametric_eq,fixed_band_eq,equalized_raw,equalized_smoothed,target
20.00,-1.41,-3.16,-1.41,-3.16,3.15,2.47,0.77,1.75,1.75,1.76
20.20,-1.36,-3.10,-1.36,-3.11,3.11,2.46,0.80,1.76,1.75,1.74
20.40,-1.33,-3.07,-1.32,-3.07,3.07,2.44,0.82,1.74,1.75,1.74
20.61,-1.28,-3.01,-1.28,-3.02,3.02,2.43,0.85,1.75,1.74,1.73
20.81,-1.24,-2.97,-1.24,-2.98,2.98,2.42,0.87,1.74,1.74,1.73
21.02,-1.20,-2.93,-1.20,-2.92,2.92,2.41,0.90,1.73,1.73,1.73
21.23,-1.16,-2.87,-1.16,-2.87,2.87,2.39,0.93,1.71,1.71,1.71
21.44,-1.12,-2.81,-1.12,-2.82,2.81,2.38,0.96,1.70,1.69,1.69
21.66,-1.09,-2.76,-1.08,-2.75,2.75,2.37,0.99,1.66,1.67,1.67
21.87,-1.05,-2.69,-1.04,-2.69,2.69,2.35,1.02,1.64,1.65,1.64
22.09,-1.00,-2.62,-1.00,-2.63,2.62,2.34,1.05,1.62,1.62,1.62
22.31,-0.96,-2.56,-0.96,-2.56,2.55,2.33,1.08,1.60,1.60,1.60
22.54,-0.92,-2.49,-0.91,-2.49,2.48,2.31,1.12,1.56,1.57,1.57
22.76,-0.87,-2.41,-0.87,-2.42,2.41,2.30,1.15,1.55,1.54,1.54
22.99,-0.83,-2.34,-0.83,-2.34,2.35,2.28,1.18,1.52,1.52,1.51
23.22,-0.80,-2.28,-0.79,-2.28,2.28,2.26,1.22,1.48,1.49,1.48
23.45,-0.75,-2.21,-0.76,-2.22,2.22,2.25,1.26,1.48,1.47,1.46
23.69,-0.73,-2.17,-0.72,-2.16,2.17,2.23,1.29,1.44,1.45,1.44
23.92,-0.69,-2.11,-0.69,-2.11,2.12,2.22,1.33,1.43,1.43,1.42
24.16,-0.66,-2.07,-0.67,-2.07,2.07,2.20,1.37,1.41,1.40,1.41
24.40,-0.65,-2.04,-0.64,-2.03,2.02,2.18,1.41,1.38,1.38,1.39
24.65,-0.62,-1.99,-0.62,-1.99,1.98,2.16,1.44,1.36,1.36,1.37
24.89,-0.60,-1.95,-0.60,-1.94,1.94,2.15,1.48,1.34,1.34,1.35
25.14,-0.57,-1.90,-0.57,-1.90,1.90,2.13,1.52,1.33,1.33,1.33
25.39,-0.55,-1.86,-0.55,-1.86,1.86,2.11,1.56,1.31,1.31,1.31
25.65,-0.53,-1.83,-0.53,-1.82,1.82,2.09,1.60,1.29,1.29,1.30
25.91,-0.52,-1.79,-0.51,-1.79,1.79,2.07,1.64,1.27,1.27,1.27
26.16,-0.50,-1.75,-0.50,-1.75,1.75,2.05,1.68,1.26,1.26,1.26
26.43,-0.48,-1.71,-0.48,-1.72,1.72,2.03,1.71,1.24,1.24,1.24
26.69,-0.47,-1.69,-0.47,-1.69,1.69,2.01,1.75,1.22,1.22,1.22
26.96,-0.46,-1.66,-0.46,-1.66,1.66,1.99,1.79,1.20,1.20,1.20
27.23,-0.45,-1.64,-0.45,-1.64,1.63,1.97,1.82,1.18,1.18,1.19
27.50,-0.44,-1.61,-0.44,-1.61,1.61,1.95,1.85,1.17,1.17,1.17
27.77,-0.43,-1.58,-0.43,-1.58,1.58,1.93,1.88,1.15,1.15,1.15
28.05,-0.42,-1.56,-0.42,-1.55,1.56,1.91,1.91,1.14,1.14,1.14
28.33,-0.41,-1.52,-0.41,-1.52,1.53,1.89,1.94,1.13,1.13,1.11
28.62,-0.40,-1.50,-0.40,-1.50,1.51,1.86,1.97,1.11,1.11,1.10
28.90,-0.40,-1.50,-0.40,-1.49,1.49,1.84,1.99,1.09,1.09,1.10
29.19,-0.40,-1.48,-0.39,-1.48,1.47,1.82,2.01,1.07,1.08,1.08
29.48,-0.39,-1.46,-0.39,-1.46,1.45,1.79,2.02,1.07,1.07,1.08
29.78,-0.38,-1.43,-0.38,-1.44,1.44,1.77,2.03,1.06,1.05,1.06
30.08,-0.38,-1.42,-0.38,-1.42,1.42,1.74,2.04,1.04,1.04,1.04
30.38,-0.38,-1.40,-0.37,-1.40,1.40,1.72,2.05,1.02,1.02,1.02
30.68,-0.37,-1.37,-0.37,-1.37,1.37,1.69,2.05,1.00,1.00,1.00
30.99,-0.36,-1.34,-0.36,-1.35,1.35,1.67,2.05,0.99,0.99,0.98
31.30,-0.36,-1.33,-0.35,-1.32,1.32,1.64,2.04,0.96,0.97,0.97
31.61,-0.34,-1.30,-0.34,-1.30,1.29,1.62,2.03,0.95,0.95,0.96
31.93,-0.34,-1.27,-0.34,-1.27,1.27,1.59,2.02,0.93,0.93,0.93
32.24,-0.33,-1.23,-0.33,-1.24,1.24,1.56,2.00,0.91,0.91,0.91
32.57,-0.32,-1.20,-0.32,-1.21,1.21,1.53,1.98,0.89,0.89,0.88
32.89,-0.32,-1.19,-0.31,-1.18,1.18,1.51,1.95,0.87,0.87,0.87
33.22,-0.31,-1.15,-0.31,-1.16,1.16,1.48,1.93,0.85,0.85,0.84
33.55,-0.31,-1.14,-0.31,-1.13,1.13,1.45,1.90,0.82,0.82,0.83
33.89,-0.31,-1.11,-0.31,-1.11,1.11,1.42,1.86,0.80,0.80,0.80
34.23,-0.31,-1.10,-0.31,-1.09,1.09,1.39,1.82,0.78,0.78,0.79
34.57,-0.31,-1.06,-0.31,-1.07,1.07,1.36,1.78,0.76,0.76,0.75
34.92,-0.31,-1.04,-0.31,-1.05,1.05,1.33,1.74,0.74,0.74,0.73
35.27,-0.32,-1.04,-0.32,-1.03,1.04,1.30,1.70,0.72,0.72,0.72
35.62,-0.33,-1.03,-0.33,-1.02,1.03,1.27,1.65,0.70,0.70,0.70
35.97,-0.35,-1.02,-0.34,-1.02,1.01,1.24,1.60,0.67,0.67,0.67
36.33,-0.35,-1.00,-0.36,-1.01,1.01,1.20,1.55,0.66,0.65,0.65
36.70,-0.38,-1.01,-0.37,-1.00,1.00,1.17,1.50,0.62,0.63,0.63
37.06,-0.38,-0.98,-0.38,-0.99,0.99,1.14,1.45,0.61,0.61,0.60
37.43,-0.40,-0.99,-0.40,-0.98,0.98,1.11,1.40,0.58,0.59,0.59
37.81,-0.41,-0.97,-0.41,-0.97,0.97,1.07,1.34,0.57,0.57,0.57
38.19,-0.42,-0.96,-0.42,-0.97,0.96,1.04,1.29,0.55,0.54,0.54
38.57,-0.43,-0.96,-0.43,-0.96,0.95,1.00,1.24,0.52,0.52,0.53
38.95,-0.44,-0.95,-0.44,-0.94,0.94,0.97,1.18,0.50,0.50,0.51
39.34,-0.45,-0.93,-0.45,-0.93,0.93,0.93,1.13,0.48,0.48,0.48
39.74,-0.46,-0.91,-0.46,-0.91,0.91,0.90,1.07,0.46,0.46,0.45
40.14,-0.46,-0.90,-0.46,-0.90,0.90,0.86,1.02,0.44,0.44,0.44
40.54,-0.47,-0.88,-0.47,-0.88,0.89,0.82,0.96,0.42,0.42,0.41
40.94,-0.47,-0.87,-0.47,-0.87,0.87,0.78,0.91,0.40,0.40,0.40
41.35,-0.48,-0.86,-0.48,-0.86,0.86,0.75,0.85,0.38,0.38,0.38
41.76,-0.48,-0.84,-0.48,-0.84,0.84,0.71,0.80,0.36,0.36,0.36
42.18,-0.48,-0.83,-0.48,-0.83,0.83,0.67,0.75,0.35,0.35,0.35
42.60,-0.48,-0.80,-0.48,-0.81,0.81,0.63,0.69,0.33,0.33,0.33
43.03,-0.48,-0.80,-0.48,-0.79,0.79,0.59,0.64,0.31,0.31,0.32
43.46,-0.48,-0.78,-0.47,-0.77,0.76,0.55,0.59,0.28,0.29,0.30
43.90,-0.47,-0.73,-0.47,-0.74,0.74,0.51,0.54,0.27,0.27,0.26
44.33,-0.46,-0.70,-0.46,-0.70,0.71,0.47,0.48,0.25,0.25,0.24
44.78,-0.46,-0.68,-0.45,-0.67,0.68,0.43,0.43,0.22,0.22,0.22
45.23,-0.44,-0.64,-0.44,-0.64,0.65,0.39,0.38,0.21,0.20,0.20
45.68,-0.44,-0.62,-0.43,-0.61,0.61,0.34,0.33,0.18,0.18,0.18
46.13,-0.41,-0.57,-0.42,-0.58,0.58,0.30,0.28,0.17,0.17,0.16
46.60,-0.40,-0.55,-0.40,-0.55,0.55,0.26,0.23,0.15,0.15,0.15
47.06,-0.38,-0.51,-0.37,-0.51,0.51,0.21,0.19,0.13,0.13,0.14
47.53,-0.35,-0.47,-0.35,-0.47,0.47,0.17,0.14,0.12,0.11,0.12
48.01,-0.33,-0.43,-0.33,-0.43,0.42,0.13,0.09,0.09,0.09,0.10
48.49,-0.30,-0.37,-0.30,-0.37,0.37,0.08,0.04,0.07,0.07,0.08
48.97,-0.27,-0.32,-0.27,-0.32,0.32,0.04,-0.01,0.05,0.05,0.05
49.46,-0.24,-0.26,-0.24,-0.26,0.26,-0.01,-0.05,0.03,0.02,0.02
49.96,-0.21,-0.20,-0.20,-0.20,0.21,-0.06,-0.10,-0.00,0.00,-0.01
50.46,-0.17,-0.15,-0.17,-0.15,0.15,-0.10,-0.15,-0.02,-0.02,-0.02
50.96,-0.13,-0.09,-0.13,-0.09,0.09,-0.15,-0.19,-0.04,-0.04,-0.04
51.47,-0.10,-0.03,-0.10,-0.03,0.03,-0.20,-0.24,-0.07,-0.06,-0.07
51.99,-0.06,0.03,-0.06,0.02,-0.03,-0.25,-0.28,-0.09,-0.08,-0.09
52.51,-0.02,0.08,-0.02,0.08,-0.09,-0.29,-0.33,-0.10,-0.11,-0.10
53.03,0.02,0.14,0.02,0.14,-0.14,-0.34,-0.37,-0.12,-0.12,-0.12
53.56,0.06,0.21,0.06,0.20,-0.21,-0.39,-0.42,-0.14,-0.14,-0.14
54.10,0.11,0.28,0.10,0.27,-0.27,-0.44,-0.46,-0.16,-0.16,-0.16
54.64,0.14,0.33,0.15,0.33,-0.33,-0.49,-0.51,-0.19,-0.18,-0.18
55.18,0.18,0.39,0.18,0.39,-0.39,-0.54,-0.55,-0.21,-0.21,-0.21
55.74,0.23,0.46,0.22,0.45,-0.45,-0.59,-0.59,-0.22,-0.23,-0.23
56.29,0.26,0.51,0.27,0.52,-0.51,-0.65,-0.64,-0.25,-0.25,-0.25
56.86,0.31,0.58,0.31,0.58,-0.57,-0.70,-0.68,-0.26,-0.26,-0.27
57.42,0.35,0.64,0.35,0.64,-0.63,-0.75,-0.73,-0.28,-0.28,-0.29
58.00,0.39,0.69,0.39,0.70,-0.69,-0.80,-0.77,-0.30,-0.30,-0.30
58.58,0.43,0.75,0.43,0.75,-0.75,-0.85,-0.81,-0.32,-0.32,-0.32
59.16,0.48,0.81,0.48,0.81,-0.81,-0.91,-0.85,-0.33,-0.34,-0.33
59.76,0.52,0.87,0.52,0.87,-0.88,-0.96,-0.90,-0.36,-0.36,-0.35
60.35,0.56,0.94,0.56,0.94,-0.94,-1.02,-0.94,-0.38,-0.38,-0.38
60.96,0.60,0.99,0.60,1.00,-1.01,-1.07,-0.98,-0.40,-0.40,-0.39
61.57,0.65,1.08,0.65,1.07,-1.07,-1.12,-1.02,-0.42,-0.42,-0.43
62.18,0.69,1.14,0.69,1.14,-1.13,-1.18,-1.07,-0.44,-0.44,-0.45
62.80,0.73,1.20,0.73,1.20,-1.20,-1.24,-1.11,-0.47,-0.47,-0.47
63.43,0.77,1.27,0.77,1.26,-1.26,-1.29,-1.15,-0.49,-0.49,-0.49
64.07,0.81,1.32,0.81,1.32,-1.32,-1.35,-1.19,-0.51,-0.51,-0.51
64.71,0.85,1.38,0.85,1.38,-1.38,-1.40,-1.24,-0.53,-0.53,-0.53
65.35,0.89,1.44,0.89,1.43,-1.44,-1.46,-1.28,-0.55,-0.55,-0.55
66.01,0.92,1.49,0.93,1.49,-1.50,-1.52,-1.32,-0.58,-0.57,-0.56
66.67,0.97,1.56,0.97,1.55,-1.55,-1.58,-1.36,-0.58,-0.59,-0.58
67.33,1.01,1.62,1.01,1.61,-1.61,-1.63,-1.41,-0.60,-0.60,-0.60
68.01,1.04,1.67,1.05,1.67,-1.66,-1.69,-1.45,-0.62,-0.62,-0.62
68.69,1.08,1.73,1.08,1.72,-1.72,-1.75,-1.50,-0.64,-0.64,-0.64
69.37,1.11,1.78,1.11,1.78,-1.78,-1.81,-1.54,-0.66,-0.66,-0.67
70.07,1.14,1.83,1.15,1.83,-1.83,-1.87,-1.59,-0.69,-0.68,-0.69
70.77,1.18,1.88,1.18,1.88,-1.89,-1.93,-1.63,-0.70,-0.71,-0.70
71.48,1.21,1.93,1.21,1.94,-1.94,-1.99,-1.68,-0.73,-0.73,-0.72
72.19,1.24,1.99,1.25,2.00,-2.00,-2.05,-1.73,-0.76,-0.75,-0.75
72.91,1.28,2.06,1.28,2.05,-2.05,-2.11,-1.78,-0.77,-0.78,-0.78
73.64,1.31,2.12,1.31,2.11,-2.11,-2.17,-1.83,-0.80,-0.80,-0.81
74.38,1.34,2.16,1.35,2.17,-2.17,-2.23,-1.88,-0.83,-0.82,-0.82
75.12,1.38,2.23,1.38,2.23,-2.22,-2.29,-1.94,-0.84,-0.85,-0.85
75.87,1.41,2.29,1.41,2.28,-2.28,-2.35,-1.99,-0.87,-0.87,-0.87
76.63,1.44,2.33,1.44,2.34,-2.34,-2.41,-2.05,-0.90,-0.89,-0.89
77.40,1.47,2.39,1.47,2.39,-2.39,-2.47,-2.11,-0.92,-0.92,-0.92
78.17,1.50,2.46,1.50,2.45,-2.45,-2.53,-2.17,-0.95,-0.95,-0.96
78.95,1.53,2.51,1.53,2.51,-2.51,-2.59,-2.23,-0.98,-0.98,-0.98
79.74,1.56,2.56,1.56,2.56,-2.57,-2.66,-2.29,-1.00,-1.00,-1.00
80.54,1.59,2.62,1.59,2.62,-2.62,-2.72,-2.36,-1.03,-1.03,-1.03
81.35,1.63,2.69,1.63,2.68,-2.68,-2.78,-2.42,-1.05,-1.06,-1.06
82.16,1.66,2.75,1.66,2.75,-2.74,-2.84,-2.49,-1.08,-1.08,-1.09
82.98,1.69,2.80,1.69,2.81,-2.80,-2.90,-2.56,-1.11,-1.11,-1.11
83.81,1.72,2.87,1.72,2.87,-2.86,-2.97,-2.64,-1.14,-1.15,-1.15
84.65,1.74,2.93,1.75,2.93,-2.92,-3.03,-2.71,-1.18,-1.18,-1.18
85.50,1.77,2.98,1.77,2.98,-2.98,-3.09,-2.79,-1.21,-1.21,-1.21
86.35,1.80,3.04,1.80,3.04,-3.04,-3.16,-2.87,-1.24,-1.24,-1.24
87.22,1.82,3.10,1.83,3.10,-3.10,-3.22,-2.95,-1.28,-1.27,-1.28
88.09,1.85,3.16,1.85,3.16,-3.16,-3.28,-3.04,-1.31,-1.31,-1.31
88.97,1.88,3.22,1.88,3.22,-3.22,-3.34,-3.12,-1.33,-1.34,-1.34
89.86,1.90,3.26,1.90,3.27,-3.27,-3.41,-3.21,-1.37,-1.37,-1.36
90.76,1.93,3.34,1.93,3.33,-3.33,-3.47,-3.30,-1.40,-1.40,-1.41
91.66,1.95,3.39,1.95,3.39,-3.39,-3.53,-3.40,-1.44,-1.44,-1.43
92.58,1.98,3.46,1.98,3.45,-3.45,-3.59,-3.49,-1.47,-1.47,-1.48
93.51,2.00,3.50,2.01,3.51,-3.51,-3.66,-3.59,-1.51,-1.51,-1.50
94.44,2.04,3.58,2.03,3.57,-3.58,-3.72,-3.69,-1.53,-1.54,-1.54
95.39,2.06,3.64,2.06,3.64,-3.64,-3.78,-3.80,-1.58,-1.58,-1.57
96.34,2.08,3.70,2.09,3.71,-3.70,-3.84,-3.90,-1.62,-1.62,-1.62
97.30,2.11,3.77,2.11,3.77,-3.77,-3.91,-4.01,-1.66,-1.66,-1.66
98.28,2.14,3.84,2.14,3.84,-3.83,-3.97,-4.12,-1.69,-1.70,-1.70
99.26,2.16,3.90,2.16,3.90,-3.90,-4.03,-4.23,-1.74,-1.74,-1.74
100.25,2.19,3.97,2.19,3.96,-3.97,-4.09,-4.34,-1.78,-1.78,-1.78
101.25,2.21,4.03,2.21,4.03,-4.04,-4.15,-4.45,-1.82,-1.82,-1.82
102.27,2.24,4.10,2.24,4.10,-4.10,-4.22,-4.56,-1.86,-1.86,-1.86
103.29,2.27,4.19,2.27,4.17,-4.17,-4.28,-4.68,-1.90,-1.90,-1.92
104.32,2.29,4.24,2.30,4.25,-4.24,-4.34,-4.79,-1.95,-1.94,-1.94
105.37,2.32,4.32,2.32,4.31,-4.31,-4.40,-4.91,-1.99,-1.99,-1.99
106.42,2.34,4.38,2.34,4.37,-4.38,-4.46,-5.02,-2.04,-2.04,-2.03
107.48,2.36,4.43,2.37,4.45,-4.45,-4.52,-5.13,-2.09,-2.08,-2.07
108.56,2.39,4.52,2.39,4.52,-4.52,-4.58,-5.24,-2.13,-2.13,-2.13
109.64,2.42,4.59,2.42,4.59,-4.59,-4.64,-5.35,-2.17,-2.17,-2.17
110.74,2.44,4.66,2.44,4.66,-4.66,-4.70,-5.45,-2.22,-2.22,-2.22
111.85,2.46,4.72,2.46,4.73,-4.73,-4.76,-5.55,-2.27,-2.27,-2.26
112.97,2.49,4.82,2.49,4.80,-4.81,-4.81,-5.65,-2.31,-2.32,-2.33
114.10,2.50,4.87,2.51,4.88,-4.88,-4.87,-5.75,-2.37,-2.37,-2.37
115.24,2.53,4.95,2.53,4.95,-4.94,-4.93,-5.83,-2.41,-2.41,-2.42
116.39,2.55,5.01,2.55,5.01,-5.01,-4.99,-5.91,-2.46,-2.46,-2.46
117.55,2.57,5.08,2.57,5.08,-5.08,-5.04,-5.99,-2.51,-2.51,-2.51
118.73,2.58,5.14,2.59,5.14,-5.14,-5.10,-6.06,-2.56,-2.55,-2.56
119.92,2.60,5.20,2.60,5.20,-5.20,-5.15,-6.12,-2.60,-2.60,-2.60
121.12,2.62,5.26,2.62,5.26,-5.26,-5.21,-6.17,-2.64,-2.64,-2.64
122.33,2.63,5.32,2.64,5.32,-5.32,-5.26,-6.22,-2.69,-2.68,-2.69
123.55,2.65,5.38,2.65,5.38,-5.38,-5.31,-6.25,-2.73,-2.73,-2.72
124.79,2.67,5.43,2.67,5.43,-5.44,-5.37,-6.28,-2.77,-2.77,-2.76
126.03,2.68,5.49,2.68,5.49,-5.49,-5.42,-6.30,-2.81,-2.81,-2.80
127.29,2.70,5.55,2.70,5.55,-5.55,-5.47,-6.31,-2.85,-2.85,-2.85
128.57,2.71,5.60,2.71,5.61,-5.60,-5.52,-6.32,-2.89,-2.89,-2.89
129.85,2.73,5.67,2.73,5.66,-5.66,-5.57,-6.31,-2.93,-2.93,-2.94
131.15,2.74,5.71,2.74,5.71,-5.71,-5.62,-6.30,-2.97,-2.97,-2.97
132.46,2.75,5.75,2.75,5.76,-5.76,-5.66,-6.28,-3.00,-3.00,-3.00
133.79,2.76,5.80,2.76,5.80,-5.80,-5.71,-6.25,-3.04,-3.04,-3.03
135.12,2.77,5.85,2.77,5.84,-5.84,-5.76,-6.22,-3.07,-3.07,-3.08
136.48,2.78,5.88,2.78,5.88,-5.88,-5.80,-6.18,-3.10,-3.10,-3.10
137.84,2.79,5.92,2.79,5.92,-5.92,-5.85,-6.13,-3.13,-3.13,-3.13
139.22,2.80,5.96,2.80,5.96,-5.95,-5.89,-6.08,-3.15,-3.15,-3.16
140.61,2.81,6.00,2.81,5.99,-5.99,-5.93,-6.03,-3.18,-3.18,-3.19
142.02,2.82,6.02,2.82,6.02,-6.02,-5.97,-5.97,-3.20,-3.20,-3.19
143.44,2.82,6.04,2.83,6.05,-6.05,-6.01,-5.92,-3.22,-3.22,-3.22
144.87,2.83,6.07,2.83,6.07,-6.07,-6.05,-5.86,-3.24,-3.24,-3.24
146.32,2.84,6.10,2.84,6.09,-6.10,-6.09,-5.80,-3.26,-3.26,-3.26
147.78,2.84,6.11,2.84,6.12,-6.12,-6.12,-5.73,-3.28,-3.28,-3.27
149.26,2.85,6.14,2.85,6.14,-6.14,-6.16,-5.67,-3.29,-3.30,-3.29
150.75,2.84,6.16,2.85,6.16,-6.16,-6.19,-5.61,-3.32,-3.32,-3.32
152.26,2.85,6.19,2.85,6.19,-6.18,-6.22,-5.55,-3.33,-3.33,-3.34
153.78,2.85,6.20,2.85,6.21,-6.20,-6.25,-5.49,-3.35,-3.35,-3.35
155.32,2.85,6.23,2.85,6.22,-6.22,-6.28,-5.44,-3.37,-3.37,-3.37
156.88,2.85,6.24,2.85,6.24,-6.24,-6.31,-5.38,-3.39,-3.39,-3.39
158.44,2.84,6.25,2.84,6.25,-6.26,-6.33,-5.33,-3.42,-3.41,-3.41
160.03,2.84,6.27,2.84,6.27,-6.27,-6.36,-5.28,-3.43,-3.44,-3.43
161.63,2.83,6.29,2.83,6.29,-6.29,-6.38,-5.23,-3.46,-3.46,-3.46
163.24,2.83,6.31,2.83,6.31,-6.31,-6.40,-5.19,-3.47,-3.47,-3.48
164.88,2.83,6.32,2.83,6.32,-6.32,-6.42,-5.15,-3.49,-3.49,-3.49
166.53,2.82,6.33,2.82,6.34,-6.33,-6.44,-5.11,-3.51,-3.51,-3.51
168.19,2.81,6.35,2.81,6.35,-6.35,-6.45,-5.08,-3.54,-3.54,-3.54
169.87,2.80,6.36,2.80,6.36,-6.36,-6.46,-5.05,-3.56,-3.56,-3.56
171.57,2.79,6.38,2.79,6.37,-6.38,-6.48,-5.03,-3.59,-3.58,-3.59
173.29,2.78,6.38,2.78,6.39,-6.39,-6.48,-5.01,-3.61,-3.61,-3.60
175.02,2.77,6.40,2.77,6.40,-6.41,-6.49,-4.99,-3.63,-3.64,-3.63
176.77,2.75,6.42,2.76,6.42,-6.42,-6.50,-4.97,-3.67,-3.66,-3.66
178.54,2.74,6.44,2.74,6.43,-6.43,-6.50,-4.96,-3.69,-3.69,-3.70
180.32,2.72,6.45,2.72,6.45,-6.45,-6.50,-4.96,-3.72,-3.72,-3.73
182.13,2.70,6.45,2.70,6.46,-6.46,-6.50,-4.96,-3.75,-3.76,-3.75
183.95,2.67,6.47,2.68,6.46,-6.46,-6.50,-4.96,-3.79,-3.79,-3.79
185.79,2.65,6.47,2.65,6.47,-6.47,-6.49,-4.96,-3.82,-3.82,-3.82
187.65,2.62,6.47,2.62,6.47,-6.47,-6.48,-4.97,-3.85,-3.85,-3.85
189.52,2.58,6.46,2.59,6.47,-6.46,-6.47,-4.98,-3.88,-3.88,-3.87
191.42,2.56,6.47,2.56,6.46,-6.46,-6.46,-5.00,-3.90,-3.90,-3.91
193.33,2.52,6.45,2.52,6.45,-6.45,-6.44,-5.02,-3.93,-3.93,-3.93
195.27,2.48,6.44,2.48,6.44,-6.44,-6.42,-5.04,-3.96,-3.96,-3.96
197.22,2.43,6.41,2.44,6.43,-6.43,-6.40,-5.07,-3.99,-3.99,-3.98
199.19,2.40,6.42,2.40,6.41,-6.41,-6.38,-5.09,-4.01,-4.01,-4.02
201.18,2.36,6.40,2.36,6.40,-6.40,-6.35,-5.12,-4.04,-4.04,-4.03
203.19,2.32,6.38,2.33,6.38,-6.39,-6.32,-5.15,-4.06,-4.06,-4.05
205.23,2.29,6.38,2.29,6.36,-6.37,-6.29,-5.19,-4.08,-4.08,-4.08
207.28,2.26,6.34,2.26,6.36,-6.36,-6.25,-5.22,-4.10,-4.10,-4.08
209.35,2.23,6.34,2.23,6.35,-6.35,-6.22,-5.25,-4.12,-4.11,-4.11
211.44,2.21,6.35,2.20,6.34,-6.34,-6.17,-5.29,-4.12,-4.13,-4.14
213.56,2.17,6.32,2.18,6.32,-6.32,-6.13,-5.32,-4.15,-4.14,-4.15
215.69,2.14,6.29,2.14,6.30,-6.30,-6.08,-5.35,-4.16,-4.16,-4.15
217.85,2.11,6.28,2.11,6.27,-6.28,-6.03,-5.38,-4.16,-4.17,-4.17
220.03,2.07,6.25,2.08,6.25,-6.24,-5.98,-5.41,-4.17,-4.17,-4.17
222.23,2.04,6.22,2.04,6.21,-6.20,-5.92,-5.44,-4.16,-4.17,-4.18
224.45,1.99,6.16,1.99,6.16,-6.16,-5.86,-5.46,-4.16,-4.17,-4.17
226.70,1.93,6.10,1.94,6.10,-6.10,-5.79,-5.48,-4.17,-4.16,-4.17
228.96,1.88,6.04,1.88,6.04,-6.04,-5.72,-5.49,-4.16,-4.16,-4.16
231.25,1.82,5.97,1.82,5.97,-5.98,-5.65,-5.50,-4.15,-4.16,-4.15
233.57,1.75,5.90,1.75,5.90,-5.90,-5.57,-5.50,-4.15,-4.15,-4.14
235.90,1.68,5.81,1.69,5.82,-5.82,-5.49,-5.49,-4.14,-4.13,-4.13
238.26,1.62,5.75,1.62,5.74,-5.73,-5.41,-5.48,-4.11,-4.12,-4.13
240.64,1.54,5.64,1.54,5.65,-5.64,-5.32,-5.45,-4.10,-4.10,-4.10
243.05,1.46,5.55,1.46,5.54,-5.54,-5.23,-5.42,-4.08,-4.08,-4.09
245.48,1.37,5.43,1.37,5.44,-5.44,-5.14,-5.38,-4.07,-4.06,-4.06
247.93,1.28,5.32,1.28,5.33,-5.33,-5.04,-5.33,-4.04,-4.04,-4.04
250.41,1.19,5.22,1.19,5.21,-5.21,-4.93,-5.27,-4.02,-4.02,-4.03
252.92,1.09,5.09,1.09,5.09,-5.09,-4.83,-5.20,-4.00,-4.00,-4.00
255.45,0.98,4.95,0.99,4.96,-4.97,-4.71,-5.12,-3.99,-3.98,-3.97
258.00,0.88,4.84,0.88,4.83,-4.84,-4.60,-5.03,-3.96,-3.96,-3.96
260.58,0.78,4.71,0.78,4.71,-4.71,-4.48,-4.93,-3.93,-3.93,-3.93
263.19,0.67,4.58,0.67,4.58,-4.57,-4.35,-4.82,-3.90,-3.90,-3.90
265.82,0.56,4.45,0.56,4.44,-4.44,-4.22,-4.71,-3.88,-3.88,-3.89
268.48,0.44,4.29,0.44,4.30,-4.29,-4.09,-4.58,-3.85,-3.85,-3.85
271.16,0.32,4.15,0.32,4.14,-4.15,-3.95,-4.45,-3.83,-3.83,-3.82
273.87,0.18,3.99,0.19,3.99,-4.00,-3.81,-4.31,-3.82,-3.81,-3.81
276.61,0.05,3.83,0.05,3.84,-3.84,-3.66,-4.16,-3.79,-3.79,-3.78
279.38,-0.08,3.69,-0.08,3.68,-3.67,-3.51,-4.00,-3.75,-3.76,-3.76
282.17,-0.23,3.51,-0.23,3.51,-3.50,-3.35,-3.84,-3.73,-3.73,-3.74
284.99,-0.38,3.33,-0.38,3.33,-3.33,-3.18,-3.68,-3.71,-3.71,-3.71
287.84,-0.54,3.14,-0.54,3.15,-3.15,-3.02,-3.51,-3.69,-3.68,-3.68
290.72,-0.70,2.96,-0.70,2.96,-2.96,-2.84,-3.34,-3.66,-3.66,-3.66
293.63,-0.87,2.76,-0.87,2.76,-2.76,-2.66,-3.16,-3.63,-3.63,-3.63
296.57,-1.05,2.55,-1.05,2.56,-2.56,-2.48,-2.98,-3.60,-3.60,-3.60
299.53,-1.23,2.34,-1.23,2.35,-2.34,-2.29,-2.80,-3.57,-3.57,-3.57
302.53,-1.42,2.14,-1.42,2.13,-2.12,-2.10,-2.62,-3.54,-3.54,-3.56
305.55,-1.62,1.89,-1.62,1.90,-1.89,-1.90,-2.43,-3.51,-3.51,-3.51
308.61,-1.82,1.66,-1.82,1.66,-1.66,-1.69,-2.24,-3.47,-3.47,-3.48
311.69,-2.03,1.41,-2.03,1.41,-1.41,-1.48,-2.05,-3.44,-3.44,-3.44
314.81,-2.24,1.15,-2.24,1.16,-1.16,-1.26,-1.86,-3.40,-3.41,-3.39
317.96,-2.47,0.91,-2.46,0.91,-0.91,-1.04,-1.67,-3.38,-3.37,-3.38
321.14,-2.69,0.66,-2.69,0.65,-0.65,-0.81,-1.48,-3.34,-3.34,-3.35
324.35,-2.93,0.39,-2.93,0.39,-0.39,-0.58,-1.29,-3.32,-3.32,-3.32
327.59,-3.17,0.12,-3.17,0.12,-0.12,-0.34,-1.10,-3.29,-3.29,-3.29
330.87,-3.41,-0.15,-3.41,-0.14,0.14,-0.10,-0.91,-3.27,-3.27,-3.26
334.18,-3.66,-0.41,-3.66,-0.41,0.40,0.15,-0.71,-3.26,-3.25,-3.24
337.52,-3.90,-0.67,-3.90,-0.68,0.67,0.41,-0.52,-3.23,-3.24,-3.23
340.90,-4.16,-0.96,-4.16,-0.96,0.94,0.67,-0.33,-3.22,-3.22,-3.20
344.30,-4.41,-1.23,-4.41,-1.23,1.22,0.93,-0.13,-3.19,-3.19,-3.18
347.75,-4.67,-1.51,-4.66,-1.50,1.52,1.20,0.06,-3.15,-3.14,-3.16
351.23,-4.92,-1.78,-4.92,-1.78,1.82,1.48,0.26,-3.09,-3.10,-3.14
354.74,-5.20,-2.08,-5.22,-2.10,2.15,1.76,0.45,-3.05,-3.08,-3.12
358.28,-5.56,-2.46,-5.55,-2.45,2.48,2.04,0.65,-3.08,-3.07,-3.10
361.87,-5.91,-2.82,-5.90,-2.82,2.81,2.33,0.84,-3.09,-3.09,-3.08
365.49,-6.25,-3.18,-6.25,-3.18,3.16,2.62,1.04,-3.09,-3.09,-3.07
369.14,-6.58,-3.52,-6.58,-3.52,3.50,2.91,1.23,-3.08,-3.08,-3.06
372.83,-6.89,-3.85,-6.89,-3.85,3.83,3.20,1.43,-3.06,-3.05,-3.04
376.56,-7.18,-4.15,-7.18,-4.16,4.15,3.49,1.63,-3.03,-3.03,-3.03
380.33,-7.46,-4.46,-7.45,-4.45,4.45,3.77,1.82,-3.01,-3.00,-3.00
384.13,-7.71,-4.73,-7.71,-4.73,4.73,4.06,2.02,-2.98,-2.98,-2.98
387.97,-7.95,-4.99,-7.95,-4.99,4.99,4.34,2.22,-2.96,-2.96,-2.96
391.85,-8.17,-5.22,-8.16,-5.22,5.23,4.61,2.41,-2.94,-2.93,-2.95
395.77,-8.35,-5.43,-8.35,-5.42,5.43,4.87,2.61,-2.91,-2.92,-2.92
399.73,-8.51,-5.61,-8.51,-5.61,5.61,5.12,2.81,-2.90,-2.90,-2.90
403.72,-8.66,-5.77,-8.66,-5.77,5.75,5.35,3.00,-2.91,-2.90,-2.88
407.76,-8.78,-5.91,-8.77,-5.91,5.86,5.57,3.20,-2.92,-2.91,-2.86
411.84,-8.87,-6.03,-8.87,-6.03,5.94,5.77,3.39,-2.93,-2.93,-2.84
415.96,-8.93,-6.11,-8.93,-6.12,5.99,5.95,3.58,-2.94,-2.94,-2.82
420.12,-8.98,-6.18,-8.98,-6.18,6.02,6.10,3.77,-2.96,-2.96,-2.80
424.32,-9.00,-6.22,-9.00,-6.22,6.03,6.23,3.96,-2.97,-2.97,-2.78
428.56,-9.00,-6.24,-9.00,-6.24,6.04,6.32,4.14,-2.96,-2.97,-2.76
432.85,-8.99,-6.25,-8.98,-6.25,6.03,6.39,4.32,-2.95,-2.95,-2.74
437.18,-8.95,-6.24,-8.96,-6.25,6.03,6.44,4.50,-2.92,-2.93,-2.71
441.55,-8.90,-6.22,-8.91,-6.22,6.02,6.45,4.66,-2.88,-2.89,-2.68
445.96,-8.85,-6.19,-8.83,-6.17,6.00,6.44,4.83,-2.85,-2.83,-2.66
450.42,-8.72,-6.08,-8.72,-6.09,5.97,6.40,4.98,-2.75,-2.76,-2.64
454.93,-8.59,-5.99,-8.59,-5.99,5.92,6.33,5.13,-2.67,-2.68,-2.60
459.48,-8.45,-5.87,-8.45,-5.87,5.85,6.25,5.27,-2.60,-2.60,-2.58
464.07,-8.31,-5.76,-8.31,-5.76,5.76,6.14,5.39,-2.55,-2.55,-2.55
468.71,-8.17,-5.65,-8.17,-5.64,5.66,6.02,5.51,-2.51,-2.51,-2.52
473.40,-8.02,-5.53,-8.02,-5.53,5.54,5.89,5.61,-2.48,-2.48,-2.49
