frequency,raw,error,smoothed,error_smoothed,equalization,parametric_eq,fixed_band_eq,equalized_raw,equalized_smoothed,target
20.00,4.03,-3.43,4.03,-3.42,3.43,3.41,0.51,7.45,7.46,7.45
20.20,4.08,-3.36,4.07,-3.36,3.36,3.34,0.53,7.43,7.43,7.43
20.40,4.12,-3.28,4.12,-3.29,3.28,3.26,0.55,7.40,7.40,7.40
20.61,4.17,-3.22,4.17,-3.22,3.21,3.18,0.56,7.38,7.38,7.38
20.81,4.22,-3.14,4.22,-3.14,3.14,3.10,0.58,7.36,7.36,7.36
21.02,4.27,-3.06,4.27,-3.06,3.07,3.01,0.60,7.34,7.34,7.33
21.23,4.33,-2.98,4.32,-2.99,3.00,2.93,0.62,7.32,7.32,7.31
21.44,4.37,-2.92,4.37,-2.92,2.92,2.85,0.64,7.29,7.29,7.29
21.66,4.42,-2.85,4.42,-2.85,2.85,2.76,0.66,7.27,7.27,7.27
21.87,4.47,-2.78,4.47,-2.78,2.77,2.68,0.68,7.24,7.25,7.25
22.09,4.53,-2.70,4.52,-2.71,2.70,2.60,0.70,7.23,7.23,7.23
22.31,4.58,-2.63,4.58,-2.63,2.63,2.52,0.72,7.21,7.21,7.21
22.54,4.63,-2.55,4.63,-2.55,2.56,2.44,0.74,7.18,7.19,7.18
22.76,4.69,-2.47,4.68,-2.48,2.48,2.36,0.76,7.17,7.16,7.16
22.99,4.73,-2.41,4.73,-2.41,2.41,2.28,0.79,7.14,7.14,7.14
23.22,4.78,-2.34,4.78,-2.34,2.34,2.21,0.81,7.12,7.12,7.12
23.45,4.84,-2.27,4.83,-2.27,2.27,2.13,0.84,7.11,7.10,7.11
23.69,4.89,-2.20,4.89,-2.20,2.20,2.06,0.86,7.09,7.09,7.09
23.92,4.94,-2.14,4.94,-2.13,2.13,1.99,0.89,7.07,7.08,7.08
24.16,5.00,-2.06,4.99,-2.07,2.07,1.92,0.91,7.07,7.06,7.06
24.40,5.04,-2.01,5.04,-2.00,2.00,1.86,0.94,7.04,7.04,7.05
24.65,5.10,-1.94,5.10,-1.94,1.93,1.79,0.96,7.03,7.03,7.04
24.89,5.15,-1.87,5.15,-1.87,1.87,1.73,0.99,7.02,7.02,7.02
25.14,5.21,-1.80,5.21,-1.80,1.80,1.67,1.02,7.01,7.01,7.01
25.39,5.26,-1.74,5.26,-1.74,1.74,1.61,1.04,7.00,7.00,7.00
25.65,5.31,-1.68,5.31,-1.68,1.67,1.55,1.07,6.98,6.98,6.98
25.91,5.36,-1.62,5.36,-1.62,1.61,1.50,1.09,6.97,6.97,6.97
26.16,5.41,-1.55,5.41,-1.55,1.55,1.44,1.12,6.96,6.96,6.96
26.43,5.46,-1.49,5.46,-1.49,1.49,1.39,1.15,6.95,6.95,6.94
26.69,5.51,-1.42,5.51,-1.43,1.43,1.34,1.17,6.94,6.94,6.93
26.96,5.55,-1.37,5.55,-1.37,1.37,1.29,1.19,6.92,6.92,6.92
27.23,5.60,-1.31,5.60,-1.32,1.32,1.24,1.22,6.91,6.91,6.91
27.50,5.64,-1.26,5.64,-1.26,1.26,1.20,1.24,6.90,6.90,6.90
27.77,5.69,-1.21,5.69,-1.21,1.21,1.15,1.26,6.90,6.89,6.90
28.05,5.73,-1.16,5.73,-1.16,1.16,1.11,1.28,6.89,6.89,6.89
28.33,5.77,-1.11,5.77,-1.11,1.11,1.06,1.30,6.88,6.88,6.88
28.62,5.82,-1.06,5.81,-1.06,1.06,1.02,1.32,6.88,6.88,6.88
28.90,5.85,-1.02,5.85,-1.02,1.02,0.98,1.33,6.87,6.87,6.87
29.19,5.89,-0.98,5.89,-0.97,0.97,0.95,1.34,6.86,6.86,6.87
29.48,5.93,-0.93,5.93,-0.93,0.93,0.91,1.35,6.86,6.85,6.85
29.78,5.97,-0.89,5.97,-0.88,0.88,0.87,1.36,6.85,6.85,6.85
30.08,6.01,-0.84,6.01,-0.84,0.84,0.84,1.37,6.85,6.84,6.84
30.38,6.04,-0.80,6.04,-0.80,0.80,0.80,1.37,6.83,6.84,6.84
30.68,6.08,-0.75,6.08,-0.76,0.76,0.77,1.37,6.83,6.83,6.83
30.99,6.11,-0.71,6.11,-0.72,0.72,0.74,1.37,6.83,6.83,6.82
31.30,6.14,-0.68,6.14,-0.67,0.68,0.71,1.37,6.82,6.82,6.82
31.61,6.17,-0.64,6.17,-0.64,0.65,0.68,1.36,6.81,6.81,6.81
31.93,6.19,-0.61,6.19,-0.61,0.61,0.65,1.35,6.80,6.80,6.80
32.24,6.21,-0.59,6.21,-0.58,0.58,0.62,1.34,6.79,6.79,6.79
32.57,6.23,-0.55,6.23,-0.55,0.55,0.59,1.33,6.78,6.78,6.78
32.89,6.25,-0.52,6.25,-0.52,0.52,0.56,1.31,6.77,6.77,6.77
33.22,6.28,-0.48,6.27,-0.49,0.49,0.53,1.29,6.77,6.76,6.76
33.55,6.29,-0.46,6.29,-0.46,0.46,0.51,1.27,6.75,6.75,6.75
33.89,6.31,-0.43,6.31,-0.43,0.43,0.48,1.25,6.74,6.74,6.74
34.23,6.33,-0.40,6.33,-0.40,0.40,0.46,1.22,6.73,6.73,6.72
34.57,6.35,-0.37,6.35,-0.37,0.37,0.43,1.19,6.72,6.72,6.72
34.92,6.37,-0.34,6.37,-0.34,0.34,0.41,1.16,6.71,6.71,6.71
35.27,6.39,-0.31,6.39,-0.32,0.32,0.39,1.13,6.70,6.70,6.70
35.62,6.41,-0.29,6.41,-0.29,0.29,0.36,1.10,6.70,6.70,6.70
35.97,6.42,-0.27,6.42,-0.27,0.27,0.34,1.07,6.69,6.69,6.69
36.33,6.44,-0.24,6.43,-0.25,0.25,0.32,1.03,6.68,6.68,6.68
36.70,6.44,-0.23,6.44,-0.23,0.22,0.30,1.00,6.66,6.67,6.67
37.06,6.46,-0.20,6.46,-0.21,0.20,0.28,0.96,6.66,6.66,6.66
37.43,6.47,-0.19,6.47,-0.18,0.18,0.26,0.92,6.65,6.65,6.66
37.81,6.48,-0.17,6.48,-0.16,0.17,0.24,0.89,6.64,6.65,6.64
38.19,6.50,-0.14,6.49,-0.15,0.15,0.22,0.85,6.65,6.64,6.64
38.57,6.50,-0.13,6.50,-0.13,0.13,0.20,0.81,6.63,6.63,6.63
38.95,6.51,-0.12,6.51,-0.11,0.11,0.18,0.77,6.62,6.62,6.62
39.34,6.52,-0.09,6.52,-0.10,0.10,0.16,0.73,6.61,6.61,6.61
39.74,6.53,-0.08,6.53,-0.08,0.08,0.14,0.69,6.61,6.61,6.61
40.14,6.54,-0.06,6.54,-0.06,0.06,0.12,0.66,6.60,6.60,6.60
40.54,6.54,-0.05,6.54,-0.05,0.04,0.10,0.62,6.58,6.59,6.59
40.94,6.56,-0.02,6.55,-0.03,0.03,0.09,0.58,6.58,6.58,6.58
41.35,6.56,-0.02,6.56,-0.01,0.01,0.07,0.54,6.57,6.57,6.58
41.76,6.58,0.02,6.58,0.01,-0.01,0.05,0.50,6.57,6.57,6.56
42.18,6.59,0.03,6.58,0.03,-0.03,0.03,0.46,6.56,6.56,6.56
42.60,6.59,0.04,6.59,0.05,-0.05,0.02,0.42,6.54,6.55,6.54
43.03,6.60,0.06,6.60,0.06,-0.06,0.00,0.39,6.53,6.54,6.54
43.46,6.61,0.08,6.61,0.08,-0.08,-0.02,0.35,6.53,6.53,6.53
43.90,6.62,0.10,6.62,0.10,-0.10,-0.03,0.31,6.52,6.52,6.52
44.33,6.63,0.11,6.63,0.12,-0.12,-0.05,0.27,6.51,6.51,6.52
44.78,6.64,0.14,6.64,0.13,-0.13,-0.06,0.24,6.51,6.51,6.50
45.23,6.65,0.15,6.65,0.15,-0.15,-0.08,0.20,6.50,6.50,6.50
45.68,6.66,0.17,6.66,0.17,-0.17,-0.10,0.16,6.49,6.49,6.49
46.13,6.67,0.18,6.67,0.18,-0.18,-0.11,0.13,6.48,6.48,6.49
46.60,6.68,0.20,6.68,0.20,-0.20,-0.13,0.09,6.48,6.48,6.48
47.06,6.69,0.21,6.69,0.21,-0.22,-0.14,0.05,6.47,6.47,6.47
47.53,6.70,0.23,6.70,0.23,-0.23,-0.16,0.02,6.47,6.47,6.47
48.01,6.71,0.25,6.71,0.25,-0.25,-0.17,-0.02,6.46,6.46,6.46
48.49,6.72,0.26,6.71,0.26,-0.26,-0.19,-0.05,6.46,6.45,6.45
48.97,6.72,0.27,6.72,0.27,-0.28,-0.20,-0.09,6.44,6.45,6.45
49.46,6.73,0.29,6.73,0.29,-0.29,-0.22,-0.12,6.44,6.44,6.44
49.96,6.74,0.31,6.74,0.31,-0.31,-0.23,-0.15,6.43,6.43,6.43
50.46,6.75,0.32,6.75,0.32,-0.32,-0.25,-0.19,6.43,6.43,6.43
50.96,6.76,0.34,6.76,0.34,-0.34,-0.26,-0.22,6.42,6.42,6.42
51.47,6.76,0.35,6.76,0.35,-0.35,-0.27,-0.25,6.41,6.41,6.41
51.99,6.77,0.37,6.76,0.36,-0.36,-0.29,-0.29,6.40,6.40,6.40
52.51,6.77,0.38,6.77,0.38,-0.38,-0.30,-0.32,6.39,6.39,6.39
53.03,6.77,0.39,6.77,0.39,-0.39,-0.32,-0.35,6.38,6.38,6.38
53.56,6.78,0.40,6.78,0.40,-0.40,-0.33,-0.38,6.37,6.37,6.37
54.10,6.79,0.42,6.78,0.42,-0.42,-0.34,-0.41,6.37,6.36,6.36
54.64,6.78,0.42,6.78,0.43,-0.43,-0.36,-0.44,6.35,6.36,6.35
55.18,6.78,0.43,6.78,0.44,-0.44,-0.37,-0.47,6.34,6.34,6.34
55.74,6.79,0.46,6.78,0.45,-0.45,-0.39,-0.50,6.34,6.33,6.33
56.29,6.78,0.46,6.79,0.46,-0.46,-0.40,-0.52,6.32,6.32,6.32
56.86,6.79,0.48,6.79,0.48,-0.47,-0.41,-0.55,6.32,6.31,6.31
57.42,6.79,0.49,6.78,0.48,-0.48,-0.43,-0.57,6.31,6.30,6.30
58.00,6.78,0.48,6.78,0.49,-0.49,-0.44,-0.60,6.29,6.29,6.30
58.58,6.78,0.50,6.78,0.50,-0.50,-0.46,-0.62,6.28,6.28,6.28
59.16,6.78,0.51,6.77,0.50,-0.50,-0.47,-0.64,6.27,6.27,6.27
59.76,6.77,0.51,6.77,0.51,-0.51,-0.48,-0.66,6.26,6.26,6.26
60.35,6.76,0.51,6.76,0.51,-0.51,-0.50,-0.68,6.24,6.25,6.25
60.96,6.75,0.51,6.75,0.51,-0.52,-0.51,-0.70,6.23,6.23,6.24
61.57,6.75,0.53,6.74,0.52,-0.52,-0.53,-0.71,6.23,6.22,6.22
62.18,6.74,0.53,6.74,0.53,-0.53,-0.54,-0.73,6.21,6.21,6.21
62.80,6.73,0.54,6.73,0.53,-0.53,-0.55,-0.74,6.20,6.20,6.19
63.43,6.72,0.53,6.71,0.53,-0.53,-0.57,-0.75,6.18,6.18,6.18
64.07,6.70,0.53,6.70,0.54,-0.54,-0.58,-0.76,6.16,6.16,6.17
64.71,6.69,0.54,6.69,0.54,-0.54,-0.59,-0.77,6.15,6.15,6.15
65.35,6.68,0.55,6.67,0.54,-0.55,-0.61,-0.78,6.13,6.13,6.13
66.01,6.66,0.54,6.66,0.55,-0.55,-0.62,-0.79,6.11,6.11,6.11
66.67,6.65,0.55,6.65,0.55,-0.55,-0.63,-0.79,6.10,6.10,6.09
67.33,6.64,0.56,6.63,0.56,-0.56,-0.65,-0.80,6.08,6.08,6.07
68.01,6.62,0.56,6.62,0.56,-0.56,-0.66,-0.80,6.06,6.06,6.05
68.69,6.60,0.56,6.60,0.57,-0.57,-0.67,-0.80,6.03,6.03,6.03
69.37,6.58,0.57,6.58,0.57,-0.57,-0.69,-0.80,6.01,6.01,6.01
70.07,6.57,0.58,6.56,0.57,-0.57,-0.70,-0.81,5.99,5.99,5.99
70.77,6.55,0.58,6.55,0.58,-0.58,-0.71,-0.81,5.97,5.97,5.97
71.48,6.53,0.58,6.53,0.58,-0.58,-0.73,-0.81,5.95,5.95,5.95
72.19,6.51,0.59,6.51,0.59,-0.59,-0.74,-0.81,5.92,5.92,5.92
72.91,6.49,0.59,6.49,0.59,-0.59,-0.75,-0.81,5.89,5.89,5.90
73.64,6.47,0.61,6.47,0.60,-0.60,-0.77,-0.81,5.87,5.87,5.86
74.38,6.44,0.60,6.44,0.61,-0.61,-0.78,-0.80,5.83,5.84,5.84
75.12,6.43,0.62,6.42,0.61,-0.61,-0.79,-0.80,5.81,5.81,5.81
75.87,6.40,0.62,6.40,0.62,-0.62,-0.81,-0.80,5.78,5.78,5.77
76.63,6.38,0.63,6.38,0.63,-0.63,-0.82,-0.80,5.75,5.74,5.75
77.40,6.35,0.64,6.35,0.64,-0.64,-0.83,-0.80,5.70,5.71,5.71
78.17,6.33,0.66,6.33,0.66,-0.66,-0.85,-0.80,5.67,5.67,5.67
78.95,6.31,0.68,6.30,0.67,-0.67,-0.86,-0.80,5.64,5.63,5.63
79.74,6.28,0.69,6.28,0.69,-0.69,-0.87,-0.80,5.59,5.59,5.59
80.54,6.26,0.71,6.26,0.71,-0.71,-0.89,-0.80,5.55,5.55,5.55
81.35,6.24,0.73,6.23,0.72,-0.72,-0.90,-0.80,5.52,5.51,5.51
82.16,6.21,0.74,6.21,0.74,-0.74,-0.91,-0.81,5.47,5.47,5.47
82.98,6.19,0.76,6.19,0.76,-0.76,-0.92,-0.81,5.43,5.43,5.43
83.81,6.16,0.77,6.16,0.78,-0.77,-0.94,-0.81,5.39,5.38,5.39
84.65,6.13,0.79,6.13,0.79,-0.79,-0.95,-0.81,5.34,5.34,5.33
85.50,6.10,0.81,6.10,0.80,-0.80,-0.96,-0.82,5.29,5.29,5.29
86.35,6.07,0.81,6.07,0.82,-0.82,-0.97,-0.82,5.25,5.25,5.26
87.22,6.04,0.83,6.04,0.83,-0.83,-0.98,-0.83,5.21,5.21,5.21
88.09,6.02,0.85,6.01,0.85,-0.85,-1.00,-0.83,5.17,5.17,5.17
88.97,5.99,0.87,5.98,0.86,-0.86,-1.01,-0.84,5.13,5.13,5.12
89.86,5.95,0.87,5.95,0.87,-0.87,-1.02,-0.85,5.08,5.08,5.08
90.76,5.92,0.88,5.92,0.88,-0.88,-1.03,-0.86,5.04,5.04,5.04
91.66,5.89,0.89,5.89,0.89,-0.90,-1.04,-0.87,4.99,4.99,4.99
92.58,5.86,0.90,5.86,0.90,-0.91,-1.05,-0.87,4.95,4.95,4.96
93.51,5.83,0.92,5.83,0.92,-0.92,-1.07,-0.88,4.91,4.91,4.91
94.44,5.81,0.94,5.80,0.93,-0.93,-1.08,-0.90,4.88,4.87,4.87
95.39,5.77,0.94,5.77,0.95,-0.94,-1.09,-0.91,4.83,4.83,4.82
96.34,5.74,0.95,5.74,0.96,-0.96,-1.10,-0.92,4.78,4.78,4.79
97.30,5.71,0.97,5.71,0.97,-0.97,-1.11,-0.93,4.74,4.74,4.74
98.28,5.68,0.98,5.68,0.98,-0.98,-1.12,-0.94,4.70,4.69,4.70
99.26,5.65,1.00,5.64,1.00,-1.00,-1.13,-0.96,4.65,4.65,4.65
100.25,5.61,1.01,5.61,1.01,-1.01,-1.14,-0.97,4.60,4.60,4.60
101.25,5.58,1.03,5.58,1.03,-1.03,-1.15,-0.99,4.55,4.55,4.55
102.27,5.55,1.05,5.54,1.04,-1.04,-1.16,-1.00,4.51,4.50,4.50
103.29,5.51,1.06,5.51,1.06,-1.06,-1.17,-1.02,4.45,4.45,4.45
104.32,5.48,1.07,5.48,1.07,-1.07,-1.18,-1.03,4.40,4.40,4.40
105.37,5.45,1.09,5.44,1.09,-1.09,-1.19,-1.05,4.36,4.35,4.35
106.42,5.41,1.10,5.41,1.11,-1.11,-1.20,-1.06,4.30,4.31,4.30
107.48,5.38,1.12,5.38,1.12,-1.12,-1.20,-1.08,4.26,4.26,4.26
108.56,5.35,1.14,5.34,1.14,-1.14,-1.21,-1.09,4.21,4.21,4.21
109.64,5.31,1.15,5.31,1.15,-1.15,-1.22,-1.11,4.15,4.16,4.16
110.74,5.28,1.17,5.28,1.17,-1.17,-1.23,-1.12,4.11,4.11,4.11
111.85,5.24,1.18,5.24,1.18,-1.18,-1.24,-1.13,4.05,4.06,4.06
112.97,5.21,1.20,5.21,1.20,-1.20,-1.24,-1.15,4.01,4.01,4.01
114.10,5.17,1.21,5.17,1.21,-1.21,-1.25,-1.16,3.96,3.96,3.96
115.24,5.14,1.23,5.14,1.23,-1.22,-1.26,-1.17,3.91,3.91,3.91
116.39,5.11,1.24,5.10,1.24,-1.24,-1.26,-1.19,3.87,3.87,3.87
117.55,5.07,1.25,5.07,1.25,-1.25,-1.27,-1.20,3.82,3.82,3.82
118.73,5.03,1.26,5.03,1.26,-1.26,-1.28,-1.21,3.77,3.77,3.77
119.92,5.00,1.27,5.00,1.27,-1.27,-1.28,-1.21,3.73,3.73,3.73
121.12,4.96,1.27,4.96,1.27,-1.27,-1.29,-1.22,3.69,3.69,3.69
122.33,4.93,1.28,4.93,1.28,-1.28,-1.29,-1.23,3.65,3.65,3.65
123.55,4.89,1.28,4.89,1.28,-1.28,-1.30,-1.23,3.60,3.61,3.60
124.79,4.86,1.29,4.86,1.29,-1.29,-1.30,-1.24,3.57,3.57,3.57
126.03,4.82,1.29,4.82,1.29,-1.29,-1.31,-1.24,3.52,3.52,3.52
127.29,4.79,1.30,4.79,1.30,-1.30,-1.31,-1.24,3.49,3.49,3.49
128.57,4.75,1.29,4.75,1.30,-1.30,-1.31,-1.25,3.44,3.45,3.46
129.85,4.73,1.32,4.72,1.31,-1.31,-1.32,-1.25,3.42,3.41,3.41
131.15,4.69,1.31,4.69,1.31,-1.31,-1.32,-1.24,3.38,3.38,3.38
132.46,4.66,1.31,4.66,1.31,-1.31,-1.32,-1.24,3.35,3.35,3.35
133.79,4.63,1.31,4.62,1.31,-1.31,-1.32,-1.24,3.32,3.32,3.31
135.12,4.59,1.31,4.59,1.31,-1.31,-1.33,-1.24,3.28,3.28,3.28
136.48,4.56,1.31,4.56,1.30,-1.30,-1.33,-1.23,3.25,3.25,3.25
137.84,4.52,1.29,4.52,1.30,-1.30,-1.33,-1.23,3.22,3.22,3.23
139.22,4.50,1.30,4.50,1.29,-1.29,-1.33,-1.22,3.20,3.20,3.20
140.61,4.47,1.30,4.47,1.29,-1.29,-1.33,-1.21,3.18,3.18,3.17
142.02,4.44,1.28,4.44,1.29,-1.28,-1.33,-1.21,3.16,3.16,3.15
143.44,4.41,1.27,4.41,1.28,-1.28,-1.33,-1.20,3.13,3.13,3.14
144.87,4.38,1.27,4.38,1.27,-1.27,-1.33,-1.19,3.11,3.11,3.11
146.32,4.36,1.27,4.36,1.26,-1.26,-1.33,-1.19,3.09,3.09,3.09
147.78,4.33,1.25,4.33,1.26,-1.26,-1.33,-1.18,3.07,3.07,3.08
149.26,4.31,1.26,4.30,1.25,-1.25,-1.33,-1.18,3.06,3.05,3.05
150.75,4.27,1.23,4.27,1.24,-1.24,-1.32,-1.17,3.03,3.04,3.04
152.26,4.25,1.23,4.25,1.23,-1.23,-1.32,-1.16,3.02,3.02,3.02
153.78,4.23,1.22,4.22,1.22,-1.22,-1.32,-1.16,3.01,3.01,3.01
155.32,4.20,1.20,4.20,1.21,-1.21,-1.32,-1.15,2.99,2.99,2.99
156.88,4.18,1.20,4.18,1.20,-1.20,-1.31,-1.15,2.98,2.98,2.98
158.44,4.15,1.18,4.15,1.18,-1.19,-1.31,-1.15,2.96,2.97,2.97
160.03,4.14,1.18,4.13,1.17,-1.18,-1.31,-1.14,2.96,2.96,2.96
161.63,4.11,1.16,4.11,1.16,-1.17,-1.30,-1.14,2.94,2.95,2.95
163.24,4.09,1.15,4.09,1.16,-1.16,-1.30,-1.14,2.93,2.94,2.94
164.88,4.08,1.15,4.07,1.15,-1.15,-1.29,-1.14,2.93,2.93,2.93
166.53,4.06,1.14,4.06,1.14,-1.14,-1.29,-1.14,2.92,2.92,2.92
168.19,4.04,1.13,4.04,1.13,-1.13,-1.28,-1.14,2.91,2.91,2.91
169.87,4.02,1.12,4.02,1.12,-1.12,-1.28,-1.14,2.90,2.90,2.90
171.57,4.00,1.11,4.00,1.11,-1.11,-1.27,-1.15,2.89,2.89,2.88
173.29,3.98,1.10,3.98,1.11,-1.11,-1.26,-1.15,2.87,2.88,2.88
175.02,3.97,1.10,3.96,1.10,-1.10,-1.26,-1.15,2.87,2.87,2.87
176.77,3.95,1.09,3.95,1.09,-1.09,-1.25,-1.16,2.86,2.86,2.85
178.54,3.93,1.08,3.93,1.09,-1.09,-1.24,-1.17,2.84,2.85,2.85
180.32,3.92,1.09,3.91,1.08,-1.08,-1.23,-1.18,2.84,2.83,2.83
182.13,3.90,1.08,3.89,1.08,-1.08,-1.23,-1.18,2.82,2.82,2.82
183.95,3.87,1.06,3.88,1.07,-1.07,-1.22,-1.19,2.80,2.80,2.80
185.79,3.86,1.07,3.86,1.07,-1.07,-1.21,-1.21,2.79,2.79,2.79
187.65,3.85,1.07,3.84,1.06,-1.06,-1.20,-1.22,2.79,2.78,2.78
189.52,3.82,1.05,3.83,1.06,-1.06,-1.19,-1.23,2.76,2.77,2.76
191.42,3.81,1.06,3.81,1.06,-1.05,-1.18,-1.24,2.76,2.75,2.75
193.33,3.79,1.05,3.79,1.05,-1.05,-1.17,-1.26,2.74,2.74,2.74
195.27,3.77,1.04,3.77,1.04,-1.04,-1.17,-1.27,2.73,2.72,2.73
197.22,3.74,1.03,3.75,1.04,-1.04,-1.16,-1.29,2.70,2.71,2.71
199.19,3.73,1.03,3.73,1.03,-1.03,-1.15,-1.30,2.69,2.69,2.70
201.18,3.72,1.04,3.71,1.03,-1.03,-1.14,-1.32,2.69,2.68,2.67
203.19,3.69,1.02,3.69,1.03,-1.03,-1.13,-1.33,2.66,2.66,2.66
205.23,3.67,1.02,3.67,1.02,-1.03,-1.12,-1.35,2.64,2.64,2.64
207.28,3.66,1.02,3.66,1.03,-1.03,-1.11,-1.37,2.63,2.63,2.64
209.35,3.65,1.03,3.65,1.03,-1.03,-1.10,-1.38,2.62,2.62,2.62
211.44,3.64,1.04,3.64,1.04,-1.03,-1.09,-1.40,2.61,2.60,2.60
213.56,3.62,1.03,3.62,1.03,-1.03,-1.08,-1.41,2.59,2.59,2.59
215.69,3.61,1.04,3.61,1.03,-1.04,-1.07,-1.43,2.57,2.57,2.57
217.85,3.59,1.03,3.59,1.03,-1.04,-1.06,-1.44,2.55,2.56,2.56
220.03,3.59,1.04,3.59,1.04,-1.04,-1.05,-1.45,2.55,2.55,2.54
222.23,3.58,1.04,3.58,1.04,-1.04,-1.04,-1.46,2.54,2.54,2.54
224.45,3.57,1.04,3.57,1.04,-1.04,-1.03,-1.47,2.53,2.53,2.53
226.70,3.56,1.04,3.56,1.04,-1.04,-1.02,-1.48,2.52,2.53,2.52
228.96,3.56,1.04,3.55,1.03,-1.03,-1.01,-1.49,2.53,2.52,2.52
231.25,3.54,1.03,3.54,1.03,-1.03,-1.00,-1.49,2.51,2.51,2.51
233.57,3.53,1.01,3.53,1.02,-1.02,-0.99,-1.49,2.51,2.51,2.51
235.90,3.53,1.02,3.52,1.01,-1.01,-0.98,-1.49,2.51,2.51,2.51
238.26,3.52,1.01,3.52,1.01,-1.01,-0.97,-1.49,2.51,2.51,2.51
240.64,3.51,0.99,3.51,1.00,-1.00,-0.97,-1.48,2.51,2.51,2.52
243.05,3.52,1.01,3.51,0.99,-0.99,-0.96,-1.47,2.52,2.51,2.51
245.48,3.50,0.98,3.50,0.99,-0.99,-0.96,-1.46,2.51,2.52,2.52
247.93,3.50,0.98,3.50,0.98,-0.98,-0.95,-1.45,2.51,2.52,2.52
250.41,3.51,0.98,3.50,0.98,-0.98,-0.95,-1.43,2.53,2.52,2.53
252.92,3.51,0.99,3.50,0.98,-0.98,-0.95,-1.41,2.53,2.52,2.52
255.45,3.50,0.97,3.51,0.98,-0.98,-0.95,-1.38,2.52,2.53,2.53
258.00,3.51,0.98,3.51,0.98,-0.98,-0.95,-1.35,2.53,2.53,2.53
260.58,3.52,0.99,3.51,0.98,-0.98,-0.96,-1.32,2.54,2.53,2.53
263.19,3.52,0.99,3.52,0.99,-0.99,-0.97,-1.29,2.53,2.53,2.52
265.82,3.52,0.99,3.52,0.99,-0.99,-0.97,-1.25,2.52,2.53,2.53
268.48,3.53,1.00,3.53,1.00,-1.00,-0.99,-1.21,2.53,2.52,2.53
271.16,3.54,1.01,3.54,1.01,-1.01,-1.00,-1.17,2.52,2.52,2.52
273.87,3.55,1.03,3.55,1.03,-1.03,-1.02,-1.13,2.52,2.52,2.52
276.61,3.56,1.03,3.56,1.04,-1.04,-1.03,-1.08,2.51,2.52,2.53
279.38,3.59,1.06,3.58,1.06,-1.06,-1.05,-1.03,2.53,2.52,2.52
282.17,3.60,1.08,3.60,1.08,-1.08,-1.07,-0.98,2.52,2.52,2.52
284.99,3.62,1.09,3.62,1.10,-1.10,-1.09,-0.92,2.52,2.52,2.53
287.84,3.64,1.11,3.64,1.11,-1.12,-1.11,-0.87,2.52,2.52,2.53
290.72,3.66,1.13,3.66,1.13,-1.13,-1.12,-0.81,2.53,2.53,2.53
293.63,3.67,1.14,3.67,1.14,-1.13,-1.12,-0.75,2.54,2.54,2.53
296.57,3.67,1.13,3.67,1.13,-1.12,-1.12,-0.69,2.54,2.55,2.54
299.53,3.66,1.12,3.66,1.12,-1.11,-1.10,-0.63,2.55,2.55,2.54
302.53,3.63,1.09,3.63,1.09,-1.07,-1.07,-0.57,2.55,2.56,2.54
305.55,3.59,1.04,3.59,1.04,-1.03,-1.04,-0.51,2.56,2.56,2.55
308.61,3.54,0.98,3.54,0.98,-0.97,-0.99,-0.45,2.57,2.57,2.56
311.69,3.48,0.91,3.48,0.91,-0.91,-0.93,-0.38,2.57,2.57,2.57
314.81,3.41,0.83,3.41,0.83,-0.83,-0.86,-0.32,2.58,2.58,2.57
317.96,3.33,0.75,3.33,0.75,-0.76,-0.80,-0.25,2.57,2.58,2.58
321.14,3.27,0.68,3.26,0.67,-0.68,-0.72,-0.19,2.59,2.58,2.59
324.35,3.19,0.59,3.19,0.59,-0.60,-0.65,-0.12,2.58,2.59,2.60
327.59,3.13,0.52,3.13,0.52,-0.54,-0.58,-0.05,2.59,2.59,2.61
330.87,3.08,0.47,3.07,0.46,-0.47,-0.51,0.02,2.60,2.60,2.61
334.18,3.02,0.40,3.03,0.41,-0.42,-0.44,0.08,2.60,2.61,2.61
337.52,2.99,0.38,2.98,0.37,-0.37,-0.37,0.15,2.62,2.61,2.61
340.90,2.94,0.32,2.94,0.32,-0.33,-0.31,0.22,2.61,2.61,2.62
344.30,2.90,0.28,2.90,0.28,-0.28,-0.24,0.29,2.61,2.62,2.62
347.75,2.86,0.24,2.86,0.24,-0.24,-0.18,0.36,2.62,2.62,2.62
351.23,2.83,0.21,2.82,0.21,-0.19,-0.12,0.43,2.64,2.63,2.62
354.74,2.78,0.16,2.77,0.16,-0.14,-0.06,0.50,2.64,2.63,2.62
358.28,2.70,0.09,2.70,0.09,-0.08,-0.00,0.57,2.62,2.62,2.61
361.87,2.62,0.01,2.62,0.02,-0.01,0.05,0.64,2.60,2.61,2.60
365.49,2.54,-0.06,2.54,-0.06,0.06,0.11,0.71,2.59,2.59,2.60
369.14,2.47,-0.13,2.47,-0.14,0.13,0.17,0.78,2.60,2.59,2.60
372.83,2.39,-0.21,2.39,-0.21,0.20,0.23,0.86,2.59,2.60,2.60
376.56,2.33,-0.28,2.32,-0.28,0.28,0.29,0.93,2.61,2.60,2.61
380.33,2.25,-0.36,2.25,-0.36,0.35,0.35,1.00,2.60,2.61,2.61
384.13,2.19,-0.42,2.19,-0.43,0.43,0.41,1.07,2.62,2.61,2.61
387.97,2.12,-0.50,2.12,-0.50,0.50,0.47,1.15,2.62,2.61,2.62
391.85,2.05,-0.57,2.05,-0.57,0.57,0.53,1.22,2.62,2.62,2.62
395.77,1.99,-0.64,1.99,-0.64,0.64,0.59,1.29,2.63,2.63,2.63
399.73,1.93,-0.71,1.93,-0.70,0.71,0.66,1.36,2.63,2.63,2.64
403.72,1.87,-0.77,1.86,-0.77,0.77,0.72,1.44,2.64,2.64,2.63
407.76,1.80,-0.85,1.80,-0.84,0.84,0.79,1.51,2.64,2.64,2.64
411.84,1.74,-0.91,1.74,-0.91,0.91,0.86,1.58,2.64,2.65,2.65
415.96,1.69,-0.97,1.68,-0.97,0.97,0.93,1.65,2.66,2.66,2.66
420.12,1.63,-1.03,1.63,-1.03,1.04,1.00,1.73,2.67,2.67,2.66
424.32,1.58,-1.09,1.57,-1.10,1.10,1.07,1.80,2.68,2.68,2.67
428.56,1.52,-1.16,1.52,-1.16,1.17,1.14,1.87,2.69,2.69,2.68
432.85,1.46,-1.23,1.46,-1.23,1.23,1.21,1.93,2.69,2.70,2.69
437.18,1.41,-1.29,1.40,-1.29,1.29,1.28,2.00,2.70,2.70,2.70
441.55,1.36,-1.35,1.35,-1.36,1.35,1.35,2.07,2.71,2.70,2.71
445.96,1.29,-1.43,1.30,-1.42,1.41,1.41,2.13,2.70,2.71,2.72
450.42,1.26,-1.47,1.26,-1.47,1.46,1.48,2.19,2.72,2.72,2.73
454.93,1.22,-1.52,1.22,-1.52,1.52,1.54,2.25,2.73,2.73,2.74
459.48,1.19,-1.56,1.19,-1.56,1.57,1.60,2.31,2.75,2.75,2.75
464.07,1.15,-1.61,1.15,-1.61,1.62,1.66,2.36,2.76,2.76,2.76
468.71,1.11,-1.66,1.11,-1.66,1.66,1.71,2.41,2.77,2.77,2.77
473.40,1.07,-1.71,1.07,-1.71,1.71,1.76,2.46,2.78,2.78,2.78
478.13,1.03,-1.76,1.02,-1.76,1.76,1.81,2.51,2.79,2.79,2.79
482.91,0.98,-1.83,0.98,-1.82,1.81,1.85,2.55,2.79,2.80,2.81
487.74,0.94,-1.88,0.94,-1.87,1.87,1.90,2.59,2.81,2.81,2.82
492.62,0.91,-1.93,0.90,-1.93,1.93,1.94,2.62,2.84,2.83,2.83
497.55,0.87,-1.98,0.86,-1.98,1.99,1.99,2.66,2.86,2.85,2.84
502.52,0.82,-2.05,0.82,-2.05,2.05,2.03,2.68,2.87,2.87,2.86
507.55,0.77,-2.12,0.77,-2.11,2.11,2.08,2.71,2.88,2.88,2.88
512.62,0.72,-2.19,0.72,-2.18,2.18,2.13,2.73,2.90,2.90,2.90
517.75,0.67,-2.25,0.67,-2.25,2.25,2.18,2.75,2.92,2.92,2.91
522.93,0.61,-2.32,0.61,-2.32,2.33,2.23,2.76,2.94,2.94,2.93
528.16,0.55,-2.40,0.55,-2.40,2.40,2.29,2.78,2.95,2.95,2.95
533.44,0.49,-2.47,0.48,-2.48,2.48,2.35,2.79,2.97,2.96,2.96
538.77,0.42,-2.56,0.42,-2.56,2.55,2.41,2.79,2.97,2.98,2.98
544.16,0.36,-2.63,0.36,-2.63,2.63,2.48,2.80,2.99,2.99,2.99
549.60,0.30,-2.70,0.30,-2.71,2.70,2.55,2.80,3.00,3.00,3.00
555.10,0.24,-2.77,0.24,-2.77,2.77,2.63,2.80,3.01,3.01,3.01
560.65,0.18,-2.84,0.18,-2.84,2.84,2.71,2.80,3.02,3.03,3.02
