frequency,raw,error,smoothed,error_smoothed,equalization,parametric_eq,fixed_band_eq,equalized_raw,equalized_smoothed,target
20.00,-0.63,-3.99,-0.64,-3.99,3.95,3.74,1.39,3.32,3.32,3.36
20.20,-0.59,-3.94,-0.58,-3.93,3.92,3.73,1.44,3.33,3.34,3.35
20.40,-0.54,-3.89,-0.54,-3.88,3.89,3.72,1.48,3.35,3.35,3.35
20.61,-0.50,-3.84,-0.50,-3.83,3.86,3.71,1.52,3.35,3.36,3.34
20.81,-0.46,-3.79,-0.46,-3.78,3.82,3.70,1.57,3.36,3.37,3.33
21.02,-0.42,-3.74,-0.43,-3.75,3.79,3.69,1.62,3.37,3.36,3.32
21.23,-0.42,-3.74,-0.42,-3.74,3.77,3.68,1.67,3.34,3.35,3.31
21.44,-0.42,-3.75,-0.42,-3.74,3.74,3.67,1.72,3.32,3.32,3.32
21.66,-0.42,-3.73,-0.42,-3.74,3.72,3.66,1.77,3.30,3.29,3.31
21.87,-0.42,-3.73,-0.42,-3.73,3.70,3.64,1.83,3.28,3.28,3.31
22.09,-0.40,-3.70,-0.40,-3.70,3.67,3.63,1.88,3.27,3.28,3.30
22.31,-0.36,-3.66,-0.36,-3.66,3.64,3.62,1.94,3.28,3.28,3.30
22.54,-0.31,-3.60,-0.31,-3.61,3.62,3.61,2.00,3.30,3.30,3.29
22.76,-0.27,-3.57,-0.27,-3.56,3.59,3.59,2.06,3.32,3.32,3.30
22.99,-0.22,-3.52,-0.23,-3.53,3.56,3.58,2.12,3.34,3.32,3.30
23.22,-0.22,-3.51,-0.22,-3.51,3.54,3.57,2.18,3.32,3.32,3.29
23.45,-0.22,-3.51,-0.22,-3.51,3.52,3.55,2.24,3.30,3.30,3.29
23.69,-0.22,-3.51,-0.22,-3.51,3.51,3.54,2.31,3.29,3.28,3.29
23.92,-0.22,-3.51,-0.22,-3.51,3.50,3.52,2.38,3.28,3.28,3.29
24.16,-0.21,-3.51,-0.20,-3.50,3.49,3.51,2.44,3.28,3.28,3.30
24.40,-0.18,-3.49,-0.19,-3.49,3.48,3.49,2.51,3.30,3.29,3.31
24.65,-0.16,-3.47,-0.16,-3.47,3.46,3.48,2.58,3.30,3.30,3.31
24.89,-0.14,-3.45,-0.14,-3.44,3.44,3.46,2.65,3.30,3.30,3.31
25.14,-0.11,-3.41,-0.11,-3.41,3.42,3.44,2.72,3.31,3.30,3.30
25.39,-0.09,-3.38,-0.09,-3.38,3.39,3.43,2.79,3.30,3.30,3.29
25.65,-0.06,-3.35,-0.06,-3.35,3.35,3.41,2.86,3.29,3.29,3.29
25.91,-0.03,-3.32,-0.03,-3.32,3.32,3.39,2.93,3.29,3.29,3.29
26.16,-0.00,-3.29,-0.00,-3.29,3.29,3.37,3.00,3.29,3.28,3.29
26.43,0.02,-3.26,0.03,-3.26,3.26,3.35,3.07,3.28,3.28,3.28
26.69,0.05,-3.23,0.05,-3.23,3.23,3.34,3.14,3.28,3.28,3.28
26.96,0.08,-3.19,0.07,-3.20,3.21,3.32,3.21,3.29,3.28,3.27
27.23,0.08,-3.18,0.08,-3.18,3.20,3.30,3.27,3.28,3.28,3.26
27.50,0.08,-3.18,0.08,-3.17,3.19,3.28,3.34,3.27,3.27,3.26
27.77,0.08,-3.18,0.08,-3.18,3.19,3.26,3.40,3.26,3.26,3.26
28.05,0.08,-3.18,0.08,-3.18,3.18,3.23,3.45,3.26,3.26,3.25
28.33,0.07,-3.18,0.07,-3.18,3.17,3.21,3.51,3.24,3.24,3.25
28.62,0.07,-3.17,0.06,-3.19,3.16,3.19,3.56,3.23,3.22,3.24
28.90,0.06,-3.19,0.07,-3.18,3.14,3.17,3.60,3.20,3.21,3.25
29.19,0.10,-3.15,0.11,-3.14,3.12,3.15,3.64,3.21,3.22,3.25
29.48,0.17,-3.09,0.17,-3.09,3.09,3.12,3.68,3.26,3.25,3.26
29.78,0.23,-3.03,0.23,-3.03,3.06,3.10,3.71,3.29,3.28,3.26
30.08,0.28,-2.99,0.27,-2.99,3.03,3.08,3.73,3.31,3.29,3.26
30.38,0.28,-2.97,0.28,-2.97,3.00,3.05,3.75,3.28,3.28,3.25
30.68,0.28,-2.97,0.28,-2.97,2.97,3.03,3.76,3.25,3.26,3.25
30.99,0.28,-2.96,0.28,-2.96,2.95,3.00,3.76,3.23,3.23,3.24
31.30,0.29,-2.95,0.29,-2.95,2.93,2.98,3.76,3.22,3.22,3.24
31.61,0.30,-2.94,0.30,-2.93,2.91,2.95,3.76,3.21,3.21,3.24
31.93,0.32,-2.90,0.32,-2.91,2.90,2.93,3.74,3.22,3.22,3.22
32.24,0.33,-2.89,0.33,-2.88,2.89,2.90,3.72,3.22,3.22,3.22
32.57,0.35,-2.86,0.35,-2.86,2.88,2.87,3.70,3.23,3.23,3.21
32.89,0.37,-2.83,0.36,-2.84,2.86,2.85,3.66,3.23,3.23,3.20
33.22,0.37,-2.83,0.36,-2.83,2.85,2.82,3.63,3.22,3.21,3.19
33.55,0.36,-2.83,0.35,-2.84,2.83,2.79,3.58,3.19,3.18,3.19
33.89,0.34,-2.85,0.35,-2.83,2.80,2.76,3.54,3.14,3.16,3.19
34.23,0.37,-2.81,0.37,-2.80,2.77,2.73,3.48,3.14,3.14,3.18
34.57,0.42,-2.75,0.41,-2.76,2.73,2.71,3.43,3.15,3.14,3.17
34.92,0.47,-2.69,0.47,-2.70,2.69,2.68,3.37,3.16,3.16,3.16
35.27,0.52,-2.65,0.52,-2.63,2.65,2.65,3.30,3.17,3.17,3.17
35.62,0.57,-2.58,0.57,-2.57,2.61,2.61,3.24,3.18,3.18,3.14
35.97,0.62,-2.51,0.60,-2.53,2.57,2.58,3.17,3.19,3.17,3.13
36.33,0.61,-2.51,0.61,-2.51,2.54,2.55,3.10,3.14,3.14,3.12
36.70,0.59,-2.52,0.60,-2.51,2.51,2.52,3.03,3.10,3.11,3.10
37.06,0.58,-2.51,0.58,-2.51,2.49,2.49,2.95,3.07,3.08,3.09
37.43,0.58,-2.50,0.58,-2.50,2.48,2.46,2.88,3.06,3.06,3.08
37.81,0.58,-2.47,0.58,-2.48,2.47,2.42,2.81,3.04,3.04,3.05
38.19,0.58,-2.45,0.58,-2.45,2.45,2.39,2.73,3.03,3.03,3.03
38.57,0.58,-2.43,0.58,-2.43,2.42,2.36,2.65,3.00,3.00,3.00
38.95,0.58,-2.40,0.58,-2.40,2.39,2.32,2.58,2.97,2.97,2.98
39.34,0.59,-2.37,0.59,-2.36,2.36,2.29,2.50,2.95,2.95,2.95
39.74,0.61,-2.32,0.61,-2.32,2.32,2.25,2.43,2.93,2.93,2.93
40.14,0.63,-2.28,0.63,-2.27,2.28,2.22,2.36,2.91,2.92,2.91
40.54,0.65,-2.23,0.65,-2.23,2.25,2.18,2.28,2.90,2.90,2.88
40.94,0.68,-2.18,0.66,-2.19,2.21,2.15,2.21,2.89,2.87,2.85
41.35,0.67,-2.17,0.67,-2.17,2.16,2.11,2.14,2.83,2.83,2.84
41.76,0.66,-2.15,0.67,-2.15,2.12,2.07,2.07,2.78,2.79,2.81
42.18,0.68,-2.12,0.69,-2.10,2.08,2.04,2.01,2.76,2.78,2.80
42.60,0.73,-2.04,0.73,-2.04,2.05,2.00,1.94,2.78,2.78,2.77
43.03,0.78,-1.97,0.76,-1.99,2.01,1.96,1.87,2.79,2.77,2.74
43.46,0.78,-1.95,0.78,-1.94,1.97,1.92,1.81,2.75,2.75,2.73
43.90,0.78,-1.92,0.78,-1.92,1.92,1.88,1.75,2.70,2.70,2.70
44.33,0.78,-1.89,0.77,-1.90,1.87,1.84,1.69,2.65,2.64,2.67
44.78,0.78,-1.87,0.79,-1.86,1.82,1.80,1.63,2.60,2.61,2.65
45.23,0.82,-1.81,0.83,-1.79,1.77,1.76,1.57,2.59,2.61,2.63
45.68,0.89,-1.70,0.88,-1.71,1.73,1.72,1.51,2.62,2.61,2.59
46.13,0.93,-1.62,0.91,-1.65,1.69,1.68,1.46,2.62,2.59,2.55
46.60,0.90,-1.62,0.91,-1.62,1.64,1.64,1.40,2.54,2.55,2.52
47.06,0.88,-1.61,0.89,-1.60,1.60,1.60,1.35,2.48,2.49,2.49
47.53,0.88,-1.58,0.88,-1.58,1.56,1.56,1.30,2.44,2.43,2.46
48.01,0.88,-1.52,0.88,-1.54,1.52,1.52,1.25,2.40,2.40,2.40
48.49,0.88,-1.49,0.88,-1.49,1.49,1.47,1.20,2.37,2.37,2.37
48.97,0.88,-1.45,0.88,-1.45,1.46,1.43,1.15,2.34,2.34,2.33
49.46,0.88,-1.41,0.88,-1.41,1.42,1.39,1.11,2.30,2.30,2.29
49.96,0.88,-1.36,0.88,-1.37,1.38,1.34,1.06,2.26,2.26,2.24
50.46,0.88,-1.34,0.88,-1.34,1.34,1.30,1.02,2.22,2.21,2.22
50.96,0.88,-1.31,0.88,-1.30,1.29,1.26,0.97,2.17,2.17,2.19
51.47,0.90,-1.25,0.90,-1.25,1.23,1.21,0.93,2.13,2.13,2.15
51.99,0.93,-1.18,0.92,-1.19,1.17,1.17,0.89,2.10,2.10,2.11
52.51,0.96,-1.12,0.96,-1.12,1.11,1.12,0.85,2.07,2.06,2.08
53.03,0.99,-1.05,1.00,-1.04,1.04,1.08,0.81,2.03,2.04,2.04
53.56,1.04,-0.96,1.04,-0.96,0.97,1.03,0.77,2.01,2.01,2.00
54.10,1.08,-0.87,1.07,-0.89,0.91,0.98,0.73,1.99,1.98,1.95
54.64,1.08,-0.84,1.08,-0.83,0.85,0.94,0.69,1.93,1.94,1.92
55.18,1.08,-0.79,1.08,-0.79,0.81,0.89,0.65,1.88,1.89,1.87
55.74,1.08,-0.76,1.08,-0.76,0.76,0.84,0.62,1.84,1.84,1.84
56.29,1.08,-0.73,1.08,-0.73,0.73,0.80,0.58,1.81,1.81,1.81
56.86,1.08,-0.70,1.08,-0.69,0.69,0.75,0.54,1.77,1.77,1.78
57.42,1.08,-0.64,1.08,-0.66,0.65,0.70,0.51,1.73,1.72,1.72
58.00,1.08,-0.62,1.07,-0.63,0.60,0.65,0.47,1.68,1.67,1.70
58.58,1.08,-0.60,1.09,-0.58,0.56,0.60,0.44,1.64,1.65,1.68
59.16,1.11,-0.54,1.14,-0.51,0.51,0.55,0.40,1.62,1.65,1.65
59.76,1.22,-0.40,1.18,-0.44,0.45,0.51,0.36,1.67,1.64,1.62
60.35,1.23,-0.34,1.21,-0.37,0.40,0.46,0.33,1.63,1.61,1.57
60.96,1.18,-0.36,1.21,-0.33,0.35,0.41,0.29,1.53,1.55,1.54
61.57,1.18,-0.31,1.18,-0.30,0.29,0.36,0.26,1.47,1.48,1.49
62.18,1.18,-0.25,1.17,-0.26,0.24,0.31,0.22,1.42,1.42,1.43
62.80,1.18,-0.20,1.18,-0.20,0.20,0.26,0.18,1.38,1.38,1.38
63.43,1.18,-0.15,1.18,-0.15,0.15,0.21,0.15,1.33,1.33,1.33
64.07,1.18,-0.11,1.18,-0.11,0.11,0.16,0.11,1.29,1.29,1.29
64.71,1.18,-0.07,1.18,-0.07,0.07,0.11,0.07,1.25,1.25,1.25
65.35,1.18,-0.02,1.18,-0.03,0.04,0.05,0.04,1.22,1.22,1.20
66.01,1.18,0.01,1.18,0.02,0.00,0.00,-0.00,1.18,1.18,1.16
66.67,1.18,0.05,1.18,0.07,-0.04,-0.05,-0.04,1.14,1.14,1.13
67.33,1.18,0.11,1.17,0.10,-0.10,-0.10,-0.08,1.08,1.07,1.07
68.01,1.18,0.15,1.15,0.12,-0.16,-0.15,-0.12,1.01,0.98,1.03
68.69,1.12,0.14,1.15,0.17,-0.24,-0.20,-0.16,0.88,0.91,0.98
69.37,1.17,0.23,1.20,0.27,-0.32,-0.26,-0.20,0.85,0.88,0.94
70.07,1.30,0.41,1.29,0.40,-0.40,-0.31,-0.24,0.90,0.89,0.89
70.77,1.43,0.58,1.39,0.54,-0.48,-0.36,-0.28,0.95,0.91,0.85
71.48,1.44,0.64,1.43,0.63,-0.56,-0.41,-0.32,0.88,0.87,0.80
72.19,1.41,0.65,1.42,0.67,-0.64,-0.46,-0.36,0.77,0.79,0.75
72.91,1.39,0.69,1.40,0.70,-0.70,-0.52,-0.41,0.69,0.70,0.70
73.64,1.39,0.74,1.39,0.73,-0.76,-0.57,-0.45,0.63,0.63,0.65
74.38,1.39,0.78,1.39,0.77,-0.80,-0.62,-0.49,0.59,0.59,0.61
75.12,1.39,0.82,1.39,0.81,-0.83,-0.68,-0.54,0.56,0.56,0.57
75.87,1.39,0.85,1.39,0.85,-0.86,-0.73,-0.58,0.53,0.53,0.54
76.63,1.39,0.90,1.39,0.89,-0.89,-0.78,-0.63,0.50,0.50,0.49
77.40,1.39,0.93,1.39,0.93,-0.92,-0.84,-0.68,0.46,0.46,0.46
78.17,1.39,0.97,1.39,0.96,-0.96,-0.89,-0.72,0.43,0.43,0.42
78.95,1.39,0.99,1.39,1.00,-0.99,-0.94,-0.77,0.40,0.40,0.40
79.74,1.39,1.03,1.39,1.03,-1.02,-1.00,-0.82,0.37,0.37,0.36
80.54,1.39,1.06,1.39,1.06,-1.06,-1.05,-0.87,0.33,0.33,0.33
81.35,1.39,1.10,1.39,1.09,-1.10,-1.10,-0.92,0.29,0.29,0.29
82.16,1.39,1.12,1.38,1.12,-1.15,-1.16,-0.98,0.24,0.23,0.27
82.98,1.39,1.17,1.39,1.17,-1.21,-1.21,-1.03,0.18,0.18,0.22
83.81,1.39,1.21,1.43,1.25,-1.26,-1.26,-1.08,0.13,0.16,0.18
84.65,1.49,1.35,1.48,1.34,-1.32,-1.32,-1.14,0.17,0.16,0.14
85.50,1.55,1.45,1.52,1.42,-1.37,-1.37,-1.19,0.17,0.14,0.10
86.35,1.54,1.48,1.53,1.47,-1.43,-1.42,-1.25,0.11,0.10,0.06
87.22,1.49,1.47,1.51,1.49,-1.48,-1.48,-1.31,0.01,0.03,0.02
88.09,1.49,1.51,1.49,1.51,-1.53,-1.53,-1.37,-0.04,-0.04,-0.02
88.97,1.49,1.55,1.48,1.55,-1.57,-1.58,-1.43,-0.09,-0.09,-0.06
89.86,1.49,1.60,1.49,1.60,-1.61,-1.64,-1.49,-0.12,-0.12,-0.11
90.76,1.49,1.64,1.49,1.64,-1.63,-1.69,-1.55,-0.14,-0.14,-0.15
91.66,1.49,1.69,1.49,1.69,-1.67,-1.74,-1.61,-0.18,-0.17,-0.20
92.58,1.49,1.74,1.49,1.74,-1.71,-1.80,-1.68,-0.22,-0.22,-0.25
93.51,1.49,1.78,1.47,1.76,-1.76,-1.85,-1.74,-0.27,-0.30,-0.29
94.44,1.45,1.79,1.43,1.77,-1.82,-1.90,-1.81,-0.37,-0.39,-0.34
95.39,1.39,1.78,1.44,1.83,-1.89,-1.96,-1.88,-0.50,-0.45,-0.39
96.34,1.45,1.90,1.47,1.92,-1.95,-2.01,-1.94,-0.50,-0.48,-0.45
97.30,1.58,2.09,1.53,2.03,-2.02,-2.06,-2.01,-0.44,-0.49,-0.51
98.28,1.57,2.13,1.57,2.14,-2.08,-2.11,-2.08,-0.52,-0.51,-0.56
99.26,1.56,2.19,1.57,2.20,-2.15,-2.17,-2.15,-0.59,-0.58,-0.63
100.25,1.54,2.23,1.54,2.22,-2.21,-2.22,-2.22,-0.68,-0.68,-0.69
101.25,1.52,2.25,1.52,2.26,-2.27,-2.27,-2.30,-0.75,-0.75,-0.74
102.27,1.51,2.30,1.51,2.30,-2.32,-2.32,-2.37,-0.81,-0.81,-0.79
103.29,1.50,2.35,1.50,2.34,-2.36,-2.37,-2.44,-0.86,-0.86,-0.85
104.32,1.48,2.38,1.48,2.38,-2.38,-2.42,-2.51,-0.91,-0.91,-0.90
105.37,1.46,2.43,1.46,2.42,-2.41,-2.47,-2.58,-0.95,-0.95,-0.97
106.42,1.43,2.44,1.43,2.45,-2.44,-2.53,-2.65,-1.01,-1.01,-1.01
107.48,1.41,2.49,1.41,2.48,-2.47,-2.58,-2.73,-1.06,-1.06,-1.08
108.56,1.38,2.51,1.38,2.51,-2.51,-2.63,-2.80,-1.13,-1.13,-1.13
109.64,1.36,2.55,1.36,2.55,-2.56,-2.68,-2.86,-1.20,-1.20,-1.19
110.74,1.34,2.58,1.32,2.56,-2.61,-2.73,-2.93,-1.27,-1.29,-1.25
111.85,1.32,2.61,1.33,2.62,-2.67,-2.78,-3.00,-1.35,-1.34,-1.29
112.97,1.32,2.66,1.38,2.72,-2.73,-2.83,-3.06,-1.41,-1.35,-1.34
114.10,1.48,2.86,1.43,2.82,-2.79,-2.88,-3.12,-1.31,-1.36,-1.39
115.24,1.49,2.94,1.46,2.90,-2.85,-2.92,-3.18,-1.37,-1.40,-1.45
116.39,1.44,2.94,1.46,2.96,-2.91,-2.97,-3.24,-1.48,-1.45,-1.50
117.55,1.41,2.95,1.43,2.97,-2.97,-3.02,-3.29,-1.56,-1.54,-1.54
118.73,1.42,3.01,1.41,3.00,-3.02,-3.07,-3.34,-1.60,-1.61,-1.59
119.92,1.43,3.06,1.42,3.05,-3.07,-3.12,-3.39,-1.64,-1.64,-1.63
121.12,1.43,3.09,1.43,3.10,-3.10,-3.16,-3.44,-1.68,-1.67,-1.66
122.33,1.44,3.14,1.44,3.14,-3.14,-3.21,-3.48,-1.70,-1.70,-1.70
123.55,1.45,3.18,1.45,3.18,-3.18,-3.26,-3.52,-1.73,-1.73,-1.73
124.79,1.46,3.23,1.46,3.23,-3.22,-3.30,-3.55,-1.76,-1.77,-1.77
126.03,1.46,3.27,1.46,3.27,-3.27,-3.35,-3.58,-1.81,-1.81,-1.81
127.29,1.47,3.32,1.47,3.32,-3.32,-3.40,-3.61,-1.85,-1.85,-1.85
128.57,1.48,3.37,1.48,3.36,-3.36,-3.44,-3.63,-1.88,-1.88,-1.89
129.85,1.48,3.40,1.48,3.40,-3.40,-3.49,-3.65,-1.92,-1.92,-1.92
131.15,1.49,3.45,1.49,3.45,-3.45,-3.53,-3.67,-1.96,-1.96,-1.96
132.46,1.49,3.49,1.49,3.49,-3.49,-3.57,-3.68,-2.00,-2.00,-2.00
133.79,1.50,3.54,1.50,3.54,-3.54,-3.62,-3.69,-2.04,-2.04,-2.04
135.12,1.50,3.58,1.50,3.58,-3.58,-3.66,-3.70,-2.08,-2.08,-2.08
136.48,1.50,3.62,1.50,3.62,-3.62,-3.70,-3.71,-2.12,-2.12,-2.12
137.84,1.51,3.66,1.51,3.66,-3.66,-3.75,-3.71,-2.15,-2.16,-2.15
139.22,1.51,3.72,1.51,3.70,-3.70,-3.79,-3.72,-2.19,-2.19,-2.21
140.61,1.51,3.74,1.51,3.75,-3.74,-3.83,-3.72,-2.23,-2.23,-2.23
142.02,1.51,3.78,1.51,3.78,-3.78,-3.87,-3.72,-2.27,-2.27,-2.27
143.44,1.51,3.82,1.51,3.82,-3.82,-3.91,-3.72,-2.31,-2.31,-2.31
144.87,1.51,3.85,1.51,3.86,-3.86,-3.95,-3.72,-2.35,-2.35,-2.34
146.32,1.51,3.89,1.51,3.89,-3.90,-3.99,-3.72,-2.39,-2.39,-2.39
147.78,1.51,3.93,1.51,3.93,-3.93,-4.03,-3.72,-2.43,-2.43,-2.42
149.26,1.51,3.97,1.51,3.97,-3.97,-4.07,-3.72,-2.46,-2.46,-2.46
150.75,1.51,4.02,1.51,4.01,-4.01,-4.11,-3.72,-2.50,-2.50,-2.51
152.26,1.51,4.05,1.51,4.05,-4.05,-4.14,-3.72,-2.54,-2.54,-2.54
153.78,1.51,4.09,1.51,4.09,-4.09,-4.18,-3.73,-2.58,-2.58,-2.58
155.32,1.51,4.12,1.51,4.12,-4.13,-4.22,-3.73,-2.62,-2.62,-2.61
156.88,1.51,4.16,1.51,4.16,-4.17,-4.25,-3.74,-2.66,-2.66,-2.65
158.44,1.51,4.20,1.51,4.20,-4.21,-4.29,-3.75,-2.70,-2.70,-2.70
160.03,1.51,4.25,1.51,4.25,-4.25,-4.32,-3.76,-2.74,-2.74,-2.74
161.63,1.51,4.29,1.51,4.29,-4.28,-4.36,-3.78,-2.78,-2.78,-2.78
163.24,1.51,4.34,1.51,4.33,-4.33,-4.39,-3.79,-2.82,-2.82,-2.83
164.88,1.50,4.37,1.50,4.37,-4.37,-4.43,-3.81,-2.87,-2.87,-2.87
166.53,1.50,4.42,1.50,4.41,-4.42,-4.46,-3.83,-2.92,-2.92,-2.92
168.19,1.49,4.45,1.49,4.45,-4.47,-4.49,-3.86,-2.98,-2.98,-2.96
169.87,1.49,4.49,1.48,4.49,-4.51,-4.52,-3.89,-3.02,-3.03,-3.00
171.57,1.48,4.53,1.50,4.54,-4.54,-4.55,-3.92,-3.07,-3.05,-3.05
173.29,1.50,4.59,1.52,4.61,-4.57,-4.58,-3.95,-3.07,-3.05,-3.09
175.02,1.56,4.69,1.51,4.65,-4.60,-4.61,-3.99,-3.04,-3.09,-3.13
176.77,1.50,4.68,1.48,4.65,-4.62,-4.64,-4.02,-3.13,-3.14,-3.18
178.54,1.39,4.60,1.43,4.64,-4.65,-4.67,-4.07,-3.26,-3.22,-3.21
180.32,1.37,4.62,1.37,4.63,-4.67,-4.70,-4.11,-3.30,-3.30,-3.25
182.13,1.37,4.67,1.36,4.66,-4.70,-4.73,-4.16,-3.33,-3.34,-3.30
183.95,1.38,4.71,1.38,4.71,-4.73,-4.75,-4.21,-3.35,-3.35,-3.33
185.79,1.40,4.77,1.40,4.76,-4.76,-4.78,-4.27,-3.36,-3.36,-3.37
187.65,1.41,4.81,1.41,4.81,-4.80,-4.80,-4.33,-3.39,-3.39,-3.40
189.52,1.43,4.87,1.43,4.86,-4.85,-4.83,-4.39,-3.42,-3.42,-3.44
191.42,1.44,4.90,1.44,4.90,-4.90,-4.85,-4.45,-3.46,-3.46,-3.46
193.33,1.45,4.95,1.45,4.95,-4.96,-4.88,-4.52,-3.51,-3.50,-3.50
195.27,1.47,5.00,1.47,5.00,-5.01,-4.90,-4.58,-3.54,-3.54,-3.54
197.22,1.48,5.05,1.48,5.05,-5.06,-4.92,-4.66,-3.58,-3.58,-3.57
199.19,1.49,5.09,1.49,5.09,-5.10,-4.94,-4.73,-3.61,-3.61,-3.60
201.18,1.50,5.14,1.50,5.13,-5.13,-4.96,-4.80,-3.63,-3.63,-3.64
203.19,1.50,5.16,1.51,5.17,-5.15,-4.98,-4.88,-3.65,-3.64,-3.66
205.23,1.51,5.20,1.52,5.21,-5.16,-5.00,-4.96,-3.66,-3.65,-3.69
207.28,1.51,5.22,1.49,5.21,-5.17,-5.02,-5.04,-3.67,-3.69,-3.71
209.35,1.47,5.23,1.44,5.19,-5.19,-5.04,-5.12,-3.72,-3.75,-3.76
211.44,1.34,5.12,1.39,5.17,-5.20,-5.06,-5.19,-3.86,-3.81,-3.78
213.56,1.34,5.15,1.36,5.16,-5.22,-5.08,-5.27,-3.88,-3.86,-3.81
215.69,1.38,5.21,1.36,5.19,-5.24,-5.09,-5.35,-3.86,-3.88,-3.84
217.85,1.39,5.25,1.38,5.24,-5.26,-5.11,-5.43,-3.87,-3.88,-3.86
220.03,1.39,5.29,1.40,5.29,-5.28,-5.12,-5.51,-3.89,-3.88,-3.90
222.23,1.39,5.31,1.43,5.35,-5.29,-5.14,-5.58,-3.91,-3.87,-3.92
224.45,1.46,5.40,1.42,5.37,-5.31,-5.15,-5.65,-3.85,-3.89,-3.94
226.70,1.45,5.41,1.40,5.36,-5.33,-5.16,-5.72,-3.88,-3.93,-3.96
228.96,1.29,5.26,1.35,5.33,-5.34,-5.17,-5.78,-4.05,-3.98,-3.97
231.25,1.30,5.29,1.31,5.30,-5.34,-5.19,-5.84,-4.04,-4.03,-3.99
233.57,1.31,5.31,1.29,5.30,-5.34,-5.20,-5.89,-4.03,-4.05,-4.00
235.90,1.32,5.34,1.32,5.34,-5.34,-5.21,-5.94,-4.02,-4.02,-4.02
238.26,1.33,5.36,1.33,5.36,-5.35,-5.22,-5.98,-4.02,-4.02,-4.03
240.64,1.35,5.37,1.34,5.37,-5.36,-5.22,-6.02,-4.01,-4.02,-4.02
243.05,1.36,5.39,1.36,5.39,-5.39,-5.23,-6.05,-4.03,-4.03,-4.03
245.48,1.38,5.41,1.38,5.41,-5.42,-5.24,-6.07,-4.04,-4.04,-4.03
247.93,1.41,5.44,1.40,5.43,-5.46,-5.25,-6.08,-4.05,-4.05,-4.03
250.41,1.43,5.45,1.42,5.45,-5.48,-5.25,-6.09,-4.05,-4.05,-4.02
252.92,1.45,5.47,1.46,5.49,-5.48,-5.26,-6.09,-4.03,-4.02,-4.02
255.45,1.47,5.50,1.49,5.52,-5.47,-5.26,-6.08,-4.01,-3.98,-4.04
258.00,1.53,5.57,1.50,5.54,-5.46,-5.27,-6.07,-3.93,-3.96,-4.04
260.58,1.47,5.52,1.45,5.50,-5.44,-5.27,-6.04,-3.97,-4.00,-4.05
263.19,1.37,5.42,1.36,5.41,-5.42,-5.27,-6.02,-4.05,-4.06,-4.05
265.82,1.22,5.28,1.27,5.33,-5.39,-5.27,-5.98,-4.18,-4.12,-4.06
268.48,1.22,5.30,1.23,5.31,-5.37,-5.27,-5.94,-4.15,-4.14,-4.08
271.16,1.26,5.35,1.23,5.32,-5.36,-5.27,-5.89,-4.10,-4.13,-4.09
273.87,1.26,5.36,1.26,5.36,-5.35,-5.27,-5.84,-4.09,-4.10,-4.10
276.61,1.26,5.37,1.26,5.37,-5.36,-5.27,-5.79,-4.10,-4.10,-4.11
279.38,1.26,5.39,1.26,5.38,-5.38,-5.27,-5.73,-4.12,-4.13,-4.13
282.17,1.26,5.38,1.27,5.40,-5.40,-5.27,-5.66,-4.14,-4.13,-4.12
284.99,1.30,5.43,1.32,5.45,-5.41,-5.27,-5.60,-4.11,-4.09,-4.13
287.84,1.36,5.48,1.33,5.46,-5.41,-5.26,-5.53,-4.06,-4.08,-4.12
290.72,1.37,5.50,1.32,5.45,-5.41,-5.26,-5.46,-4.04,-4.10,-4.13
293.63,1.22,5.36,1.27,5.40,-5.41,-5.25,-5.40,-4.19,-4.14,-4.14
296.57,1.21,5.34,1.22,5.36,-5.41,-5.25,-5.33,-4.20,-4.18,-4.13
299.53,1.22,5.35,1.21,5.34,-5.40,-5.24,-5.26,-4.18,-4.19,-4.13
302.53,1.24,5.37,1.24,5.36,-5.38,-5.23,-5.19,-4.14,-4.15,-4.13
305.55,1.25,5.38,1.25,5.38,-5.36,-5.23,-5.12,-4.11,-4.11,-4.13
308.61,1.26,5.39,1.26,5.39,-5.34,-5.22,-5.05,-4.08,-4.08,-4.13
311.69,1.25,5.38,1.23,5.36,-5.32,-5.21,-4.99,-4.07,-4.09,-4.13
314.81,1.19,5.32,1.19,5.32,-5.30,-5.20,-4.92,-4.11,-4.11,-4.13
317.96,1.12,5.25,1.13,5.27,-5.28,-5.19,-4.86,-4.16,-4.15,-4.14
321.14,1.08,5.22,1.09,5.23,-5.26,-5.18,-4.80,-4.18,-4.17,-4.14
324.35,1.07,5.21,1.07,5.20,-5.25,-5.17,-4.75,-4.18,-4.18,-4.14
327.59,1.07,5.20,1.06,5.20,-5.23,-5.16,-4.69,-4.16,-4.17,-4.13
330.87,1.06,5.20,1.06,5.20,-5.22,-5.14,-4.64,-4.16,-4.16,-4.14
334.18,1.06,5.21,1.08,5.22,-5.20,-5.13,-4.60,-4.14,-4.13,-4.15
337.52,1.09,5.23,1.09,5.23,-5.18,-5.12,-4.55,-4.09,-4.10,-4.14
340.90,1.11,5.24,1.09,5.22,-5.16,-5.10,-4.51,-4.05,-4.07,-4.13
344.30,1.05,5.17,1.05,5.18,-5.14,-5.09,-4.47,-4.09,-4.09,-4.13
347.75,0.98,5.11,0.96,5.09,-5.10,-5.07,-4.44,-4.13,-4.14,-4.13
351.23,0.87,5.00,0.89,5.01,-5.06,-5.06,-4.41,-4.19,-4.17,-4.13
354.74,0.82,4.93,0.87,4.99,-5.02,-5.04,-4.38,-4.20,-4.15,-4.11
358.28,0.89,5.00,0.86,4.97,-4.98,-5.02,-4.35,-4.09,-4.11,-4.11
361.87,0.91,5.01,0.86,4.96,-4.94,-5.00,-4.33,-4.04,-4.09,-4.11
365.49,0.81,4.91,0.84,4.93,-4.93,-4.99,-4.32,-4.12,-4.09,-4.10
369.14,0.78,4.87,0.80,4.89,-4.92,-4.97,-4.30,-4.14,-4.12,-4.09
372.83,0.79,4.87,0.78,4.87,-4.91,-4.95,-4.29,-4.12,-4.13,-4.08
376.56,0.80,4.89,0.81,4.89,-4.89,-4.93,-4.28,-4.09,-4.08,-4.09
380.33,0.82,4.90,0.82,4.91,-4.87,-4.91,-4.28,-4.05,-4.04,-4.08
384.13,0.84,4.92,0.82,4.90,-4.84,-4.89,-4.27,-4.00,-4.02,-4.08
387.97,0.78,4.85,0.77,4.85,-4.82,-4.87,-4.27,-4.04,-4.04,-4.08
391.85,0.71,4.79,0.70,4.78,-4.80,-4.84,-4.28,-4.09,-4.10,-4.08
395.77,0.61,4.70,0.63,4.72,-4.77,-4.82,-4.28,-4.17,-4.14,-4.09
399.73,0.59,4.69,0.61,4.70,-4.75,-4.80,-4.29,-4.16,-4.14,-4.10
403.72,0.62,4.71,0.62,4.71,-4.72,-4.77,-4.30,-4.10,-4.11,-4.09
407.76,0.65,4.75,0.62,4.72,-4.70,-4.75,-4.31,-4.05,-4.08,-4.10
411.84,0.61,4.72,0.59,4.70,-4.68,-4.73,-4.33,-4.07,-4.09,-4.11
415.96,0.53,4.64,0.56,4.67,-4.67,-4.70,-4.34,-4.14,-4.11,-4.11
420.12,0.51,4.63,0.53,4.65,-4.64,-4.68,-4.36,-4.14,-4.12,-4.12
424.32,0.53,4.64,0.52,4.63,-4.62,-4.65,-4.38,-4.09,-4.10,-4.12
428.56,0.52,4.62,0.50,4.60,-4.58,-4.63,-4.39,-4.06,-4.08,-4.10
432.85,0.47,4.55,0.46,4.54,-4.54,-4.60,-4.41,-4.07,-4.07,-4.08
437.18,0.41,4.47,0.43,4.49,-4.50,-4.57,-4.43,-4.09,-4.06,-4.06
441.55,0.41,4.44,0.42,4.44,-4.46,-4.55,-4.44,-4.05,-4.04,-4.03
445.96,0.45,4.44,0.42,4.41,-4.43,-4.52,-4.46,-3.98,-4.01,-3.99
450.42,0.43,4.37,0.44,4.38,-4.40,-4.49,-4.47,-3.97,-3.96,-3.94
454.93,0.46,4.35,0.47,4.36,-4.38,-4.46,-4.49,-3.92,-3.90,-3.89
459.48,0.52,4.36,0.52,4.35,-4.36,-4.43,-4.50,-3.84,-3.84,-3.84
464.07,0.58,4.35,0.57,4.35,-4.34,-4.40,-4.50,-3.76,-3.76,-3.77
468.71,0.63,4.34,0.62,4.33,-4.32,-4.37,-4.51,-3.69,-3.70,-3.71
473.40,0.64,4.30,0.65,4.31,-4.29,-4.35,-4.51,-3.65,-3.64,-3.66
478.13,0.66,4.26,0.67,4.27,-4.26,-4.32,-4.51,-3.60,-3.59,-3.60
482.91,0.70,4.25,0.68,4.23,-4.22,-4.29,-4.50,-3.52,-3.54,-3.55
487.74,0.67,4.17,0.68,4.18,-4.18,-4.25,-4.49,-3.51,-3.50,-3.50
492.62,0.67,4.13,0.66,4.13,-4.14,-4.22,-4.48,-3.47,-3.48,-3.47
497.55,0.63,4.07,0.64,4.07,-4.09,-4.19,-4.46,-3.46,-3.45,-3.44
502.52,0.62,4.03,0.64,4.04,-4.05,-4.16,-4.44,-3.43,-3.42,-3.41
507.55,0.64,4.02,0.62,4.00,-4.02,-4.13,-4.41,-3.38,-3.39,-3.38
