frequency,raw,error,smoothed,error_smoothed,equalization,parametric_eq,fixed_band_eq,equalized_raw,equalized_smoothed,target
20.00,-46.00,-37.59,-46.00,-37.59,6.00,6.05,2.77,-40.00,-40.00,-8.41
20.20,-45.86,-37.54,-45.86,-37.54,6.00,6.05,2.85,-39.86,-39.86,-8.32
20.40,-45.71,-37.48,-45.71,-37.48,6.00,6.05,2.93,-39.71,-39.71,-8.23
20.61,-45.57,-37.41,-45.57,-37.42,6.00,6.05,3.01,-39.57,-39.57,-8.16
20.81,-45.42,-37.35,-45.42,-37.35,6.00,6.05,3.10,-39.42,-39.42,-8.07
21.02,-45.28,-37.29,-45.28,-37.28,6.00,6.05,3.18,-39.28,-39.28,-7.99
21.23,-45.13,-37.20,-45.13,-37.20,6.00,6.05,3.27,-39.13,-39.13,-7.93
21.44,-44.98,-37.11,-44.98,-37.12,6.00,6.05,3.37,-38.98,-38.98,-7.87
21.66,-44.83,-37.03,-44.83,-37.02,6.00,6.05,3.46,-38.83,-38.83,-7.80
21.87,-44.68,-36.93,-44.68,-36.92,6.00,6.05,3.56,-38.68,-38.68,-7.75
22.09,-44.52,-36.82,-44.52,-36.82,6.00,6.05,3.66,-38.52,-38.52,-7.70
22.31,-44.37,-36.72,-44.37,-36.72,6.00,6.05,3.76,-38.37,-38.37,-7.65
22.54,-44.22,-36.62,-44.22,-36.61,6.00,6.05,3.87,-38.22,-38.22,-7.61
22.76,-44.06,-36.50,-44.07,-36.50,6.00,6.06,3.98,-38.06,-38.07,-7.57
22.99,-43.91,-36.39,-43.91,-36.38,6.00,6.06,4.09,-37.91,-37.91,-7.53
23.22,-43.75,-36.27,-43.75,-36.27,6.00,6.06,4.20,-37.75,-37.75,-7.49
23.45,-43.58,-36.14,-43.59,-36.15,6.00,6.06,4.32,-37.58,-37.59,-7.44
23.69,-43.42,-36.03,-43.42,-36.03,6.00,6.06,4.44,-37.42,-37.42,-7.40
23.92,-43.26,-35.90,-43.26,-35.91,6.00,6.06,4.56,-37.26,-37.26,-7.36
24.16,-43.10,-35.79,-43.10,-35.79,6.00,6.06,4.68,-37.10,-37.10,-7.31
24.40,-42.94,-35.67,-42.94,-35.67,6.00,6.06,4.81,-36.94,-36.94,-7.27
24.65,-42.77,-35.53,-42.77,-35.54,6.00,6.06,4.94,-36.77,-36.77,-7.24
24.89,-42.61,-35.41,-42.61,-35.41,6.00,6.06,5.07,-36.61,-36.61,-7.20
25.14,-42.44,-35.28,-42.44,-35.28,6.00,6.06,5.20,-36.44,-36.44,-7.16
25.39,-42.28,-35.16,-42.28,-35.16,6.00,6.06,5.33,-36.28,-36.28,-7.12
25.65,-42.11,-35.03,-42.11,-35.03,6.00,6.06,5.46,-36.11,-36.11,-7.08
25.91,-41.94,-34.89,-41.94,-34.89,6.00,6.06,5.60,-35.94,-35.94,-7.05
26.16,-41.77,-34.76,-41.77,-34.76,6.00,6.06,5.73,-35.77,-35.77,-7.01
26.43,-41.60,-34.62,-41.60,-34.62,6.00,6.06,5.86,-35.60,-35.60,-6.98
26.69,-41.43,-34.49,-41.43,-34.49,6.00,6.06,5.99,-35.43,-35.43,-6.94
26.96,-41.26,-34.36,-41.26,-34.35,6.00,6.06,6.12,-35.26,-35.26,-6.90
27.23,-41.08,-34.21,-41.09,-34.21,6.00,6.06,6.25,-35.08,-35.09,-6.87
27.50,-40.91,-34.08,-40.91,-34.07,6.00,6.06,6.38,-34.91,-34.91,-6.84
27.77,-40.73,-33.92,-40.73,-33.93,6.00,6.06,6.50,-34.73,-34.73,-6.81
28.05,-40.56,-33.79,-40.56,-33.79,6.00,6.06,6.62,-34.56,-34.56,-6.77
28.33,-40.38,-33.63,-40.38,-33.64,6.00,6.06,6.73,-34.38,-34.38,-6.75
28.62,-40.20,-33.50,-40.20,-33.49,6.00,6.06,6.84,-34.20,-34.20,-6.71
28.90,-40.02,-33.35,-40.02,-33.35,6.00,6.06,6.94,-34.02,-34.02,-6.67
29.19,-39.84,-33.20,-39.84,-33.21,6.00,6.06,7.04,-33.84,-33.84,-6.64
29.48,-39.66,-33.07,-39.66,-33.06,6.00,6.06,7.12,-33.66,-33.66,-6.59
29.78,-39.48,-32.91,-39.48,-32.91,6.00,6.06,7.20,-33.48,-33.48,-6.57
30.08,-39.29,-32.76,-39.29,-32.76,6.00,6.06,7.27,-33.29,-33.29,-6.53
30.38,-39.10,-32.60,-39.10,-32.60,6.00,6.06,7.33,-33.10,-33.10,-6.50
30.68,-38.90,-32.44,-38.91,-32.44,6.00,6.06,7.38,-32.90,-32.91,-6.47
30.99,-38.71,-32.27,-38.71,-32.27,6.00,6.06,7.41,-32.71,-32.71,-6.45
31.30,-38.51,-32.11,-38.52,-32.11,6.00,6.06,7.44,-32.51,-32.52,-6.41
31.61,-38.32,-31.94,-38.32,-31.94,6.00,6.06,7.46,-32.32,-32.32,-6.38
31.93,-38.13,-31.78,-38.13,-31.78,6.00,6.06,7.47,-32.13,-32.13,-6.35
32.24,-37.93,-31.60,-37.93,-31.61,6.00,6.06,7.47,-31.93,-31.93,-6.33
32.57,-37.74,-31.44,-37.74,-31.44,6.00,6.06,7.45,-31.74,-31.74,-6.30
32.89,-37.54,-31.28,-37.54,-31.27,6.00,6.06,7.43,-31.54,-31.54,-6.26
33.22,-37.35,-31.11,-37.35,-31.10,6.00,6.06,7.40,-31.35,-31.35,-6.25
33.55,-37.16,-30.93,-37.16,-30.93,6.00,6.06,7.37,-31.16,-31.16,-6.23
33.89,-36.96,-30.75,-36.96,-30.76,6.00,6.06,7.32,-30.96,-30.96,-6.21
34.23,-36.77,-30.59,-36.77,-30.59,6.00,6.06,7.27,-30.77,-30.77,-6.18
34.57,-36.58,-30.42,-36.58,-30.42,6.00,6.06,7.21,-30.58,-30.58,-6.16
34.92,-36.39,-30.24,-36.39,-30.24,6.00,6.06,7.15,-30.39,-30.39,-6.15
35.27,-36.19,-30.07,-36.20,-30.06,6.00,6.06,7.08,-30.19,-30.20,-6.13
35.62,-36.00,-29.88,-36.00,-29.88,6.00,6.06,7.02,-30.00,-30.00,-6.12
35.97,-35.80,-29.69,-35.80,-29.70,6.00,6.06,6.94,-29.80,-29.80,-6.11
36.33,-35.61,-29.52,-35.61,-29.52,6.00,6.06,6.87,-29.61,-29.61,-6.09
36.70,-35.43,-29.35,-35.43,-29.34,6.00,6.06,6.80,-29.43,-29.43,-6.08
37.06,-35.24,-29.16,-35.24,-29.17,6.00,6.06,6.72,-29.24,-29.24,-6.08
37.43,-35.05,-28.99,-35.05,-28.99,6.00,6.06,6.65,-29.05,-29.05,-6.06
37.81,-34.86,-28.81,-34.86,-28.81,6.00,6.06,6.57,-28.86,-28.86,-6.05
38.19,-34.67,-28.63,-34.67,-28.63,6.00,6.06,6.50,-28.67,-28.67,-6.04
38.57,-34.49,-28.45,-34.49,-28.45,6.00,6.06,6.43,-28.49,-28.49,-6.04
38.95,-34.30,-28.26,-34.30,-28.26,6.00,6.06,6.36,-28.30,-28.30,-6.04
39.34,-34.12,-28.08,-34.12,-28.08,6.00,6.06,6.29,-28.12,-28.12,-6.04
39.74,-33.93,-27.90,-33.93,-27.89,6.00,6.06,6.23,-27.93,-27.93,-6.04
40.14,-33.75,-27.71,-33.75,-27.71,6.00,6.06,6.17,-27.75,-27.75,-6.04
40.54,-33.57,-27.53,-33.57,-27.53,6.00,6.06,6.11,-27.57,-27.57,-6.04
40.94,-33.40,-27.36,-33.40,-27.36,6.00,6.06,6.05,-27.40,-27.40,-6.04
41.35,-33.22,-27.18,-33.23,-27.19,6.00,6.06,6.00,-27.22,-27.23,-6.04
41.76,-33.06,-27.03,-33.06,-27.02,6.00,6.06,5.96,-27.06,-27.06,-6.03
42.18,-32.89,-26.86,-32.89,-26.86,6.00,6.06,5.91,-26.89,-26.89,-6.03
42.60,-32.72,-26.69,-32.72,-26.69,6.00,6.06,5.88,-26.72,-26.72,-6.03
43.03,-32.55,-26.53,-32.55,-26.53,6.00,6.05,5.84,-26.55,-26.55,-6.03
43.46,-32.39,-26.36,-32.39,-26.36,6.00,6.05,5.81,-26.39,-26.39,-6.03
43.90,-32.23,-26.19,-32.23,-26.19,6.00,6.05,5.79,-26.23,-26.23,-6.04
44.33,-32.07,-26.02,-32.07,-26.03,6.00,6.05,5.76,-26.07,-26.07,-6.05
44.78,-31.92,-25.87,-31.92,-25.86,6.00,6.05,5.75,-25.92,-25.92,-6.05
45.23,-31.76,-25.70,-31.76,-25.70,6.00,6.05,5.73,-25.76,-25.76,-6.06
45.68,-31.61,-25.55,-31.61,-25.55,6.00,6.05,5.73,-25.61,-25.61,-6.06
46.13,-31.46,-25.39,-31.46,-25.39,6.00,6.05,5.72,-25.46,-25.46,-6.07
46.60,-31.31,-25.25,-31.31,-25.24,6.00,6.05,5.72,-25.31,-25.31,-6.07
47.06,-31.16,-25.10,-31.17,-25.10,6.00,6.05,5.73,-25.16,-25.17,-6.06
47.53,-31.02,-24.95,-31.02,-24.96,6.00,6.05,5.73,-25.02,-25.02,-6.07
48.01,-30.88,-24.83,-30.88,-24.81,6.00,6.05,5.75,-24.88,-24.88,-6.05
48.49,-30.73,-24.66,-30.73,-24.66,6.00,6.05,5.76,-24.73,-24.73,-6.07
48.97,-30.58,-24.50,-30.58,-24.50,6.00,6.05,5.78,-24.58,-24.58,-6.08
49.46,-30.43,-24.35,-30.43,-24.34,6.00,6.05,5.80,-24.43,-24.43,-6.09
49.96,-30.27,-24.18,-30.27,-24.19,6.00,6.05,5.83,-24.27,-24.27,-6.09
50.46,-30.11,-24.04,-30.11,-24.04,6.00,6.05,5.86,-24.11,-24.11,-6.07
50.96,-29.95,-23.88,-29.95,-23.88,6.00,6.04,5.89,-23.95,-23.95,-6.07
51.47,-29.79,-23.72,-29.79,-23.72,6.00,6.04,5.92,-23.79,-23.79,-6.08
51.99,-29.62,-23.56,-29.62,-23.56,6.00,6.04,5.96,-23.62,-23.62,-6.06
52.51,-29.44,-23.39,-29.44,-23.39,6.00,6.04,5.99,-23.44,-23.44,-6.05
53.03,-29.26,-23.22,-29.26,-23.22,6.00,6.04,6.03,-23.26,-23.26,-6.04
53.56,-29.08,-23.04,-29.08,-23.04,6.00,6.04,6.07,-23.08,-23.08,-6.04
54.10,-28.90,-22.86,-28.90,-22.86,6.00,6.04,6.11,-22.90,-22.90,-6.04
54.64,-28.71,-22.68,-28.71,-22.68,6.00,6.04,6.15,-22.71,-22.71,-6.03
55.18,-28.52,-22.49,-28.52,-22.49,6.00,6.04,6.19,-22.52,-22.52,-6.03
55.74,-28.33,-22.30,-28.33,-22.30,6.00,6.04,6.23,-22.33,-22.33,-6.03
56.29,-28.13,-22.10,-28.13,-22.10,6.00,6.04,6.26,-22.13,-22.13,-6.03
56.86,-27.93,-21.90,-27.93,-21.89,6.00,6.04,6.30,-21.93,-21.93,-6.04
57.42,-27.73,-21.68,-27.73,-21.68,6.00,6.04,6.33,-21.73,-21.73,-6.05
58.00,-27.52,-21.47,-27.52,-21.47,6.00,6.03,6.36,-21.52,-21.52,-6.05
58.58,-27.31,-21.26,-27.31,-21.26,6.00,6.03,6.39,-21.31,-21.31,-6.05
59.16,-27.10,-21.04,-27.10,-21.05,6.00,6.03,6.41,-21.10,-21.10,-6.06
59.76,-26.89,-20.83,-26.89,-20.83,6.00,6.03,6.43,-20.89,-20.89,-6.06
60.35,-26.69,-20.62,-26.69,-20.62,6.00,6.03,6.44,-20.69,-20.69,-6.07
60.96,-26.49,-20.40,-26.49,-20.40,6.00,6.03,6.45,-20.49,-20.49,-6.09
61.57,-26.29,-20.18,-26.29,-20.18,6.00,6.03,6.46,-20.29,-20.29,-6.11
62.18,-26.09,-19.95,-26.09,-19.96,6.00,6.03,6.46,-20.09,-20.09,-6.14
62.80,-25.88,-19.74,-25.89,-19.73,6.00,6.03,6.45,-19.88,-19.89,-6.14
63.43,-25.69,-19.52,-25.69,-19.52,6.00,6.03,6.44,-19.69,-19.69,-6.17
64.07,-25.49,-19.31,-25.49,-19.32,6.00,6.02,6.43,-19.49,-19.49,-6.18
64.71,-25.30,-19.12,-25.31,-19.12,6.00,6.02,6.40,-19.30,-19.31,-6.19
65.35,-25.12,-18.93,-25.12,-18.92,6.00,6.02,6.38,-19.12,-19.12,-6.19
66.01,-24.93,-18.73,-24.93,-18.73,6.00,6.02,6.35,-18.93,-18.93,-6.20
66.67,-24.74,-18.53,-24.75,-18.54,6.00,6.02,6.31,-18.74,-18.75,-6.21
67.33,-24.56,-18.35,-24.56,-18.35,6.00,6.02,6.28,-18.56,-18.56,-6.21
68.01,-24.39,-18.18,-24.39,-18.18,6.00,6.02,6.24,-18.39,-18.39,-6.21
68.69,-24.21,-18.00,-24.21,-18.00,6.00,6.02,6.19,-18.21,-18.21,-6.21
69.37,-24.04,-17.83,-24.04,-17.83,6.00,6.01,6.14,-18.04,-18.04,-6.21
70.07,-23.86,-17.65,-23.86,-17.65,6.00,6.01,6.09,-17.86,-17.86,-6.21
70.77,-23.69,-17.48,-23.69,-17.48,6.00,6.01,6.04,-17.69,-17.69,-6.21
71.48,-23.51,-17.30,-23.51,-17.30,6.00,6.01,5.99,-17.51,-17.51,-6.21
72.19,-23.34,-17.13,-23.34,-17.13,6.00,6.01,5.94,-17.34,-17.34,-6.21
72.91,-23.18,-16.96,-23.18,-16.96,6.00,6.01,5.89,-17.18,-17.18,-6.22
73.64,-23.02,-16.79,-23.02,-16.79,6.00,6.01,5.84,-17.02,-17.02,-6.23
74.38,-22.86,-16.63,-22.87,-16.64,6.00,6.00,5.78,-16.86,-16.87,-6.23
75.12,-22.72,-16.49,-22.72,-16.48,6.00,6.00,5.73,-16.72,-16.72,-6.23
75.87,-22.57,-16.34,-22.57,-16.34,6.00,6.00,5.68,-16.57,-16.57,-6.23
76.63,-22.42,-16.18,-22.42,-16.18,6.00,6.00,5.64,-16.42,-16.42,-6.24
77.40,-22.27,-16.04,-22.27,-16.03,6.00,6.00,5.59,-16.27,-16.27,-6.24
78.17,-22.13,-15.89,-22.13,-15.89,6.00,6.00,5.55,-16.13,-16.13,-6.24
78.95,-21.99,-15.76,-21.99,-15.76,6.00,6.00,5.51,-15.99,-15.99,-6.23
79.74,-21.86,-15.64,-21.86,-15.64,6.00,5.99,5.47,-15.86,-15.86,-6.22
80.54,-21.73,-15.52,-21.73,-15.52,6.00,5.99,5.44,-15.73,-15.73,-6.21
81.35,-21.60,-15.40,-21.60,-15.40,6.00,5.99,5.40,-15.60,-15.60,-6.20
82.16,-21.47,-15.28,-21.47,-15.28,6.00,5.99,5.38,-15.47,-15.47,-6.19
82.98,-21.34,-15.18,-21.35,-15.17,6.00,5.99,5.35,-15.34,-15.35,-6.17
83.81,-21.23,-15.07,-21.23,-15.07,6.00,5.99,5.33,-15.23,-15.23,-6.16
84.65,-21.11,-14.96,-21.11,-14.97,6.00,5.98,5.31,-15.11,-15.11,-6.15
85.50,-20.99,-14.88,-21.00,-14.87,6.00,5.98,5.30,-14.99,-15.00,-6.12
86.35,-20.88,-14.78,-20.89,-14.79,6.00,5.98,5.29,-14.88,-14.89,-6.10
87.22,-20.79,-14.71,-20.79,-14.70,6.00,5.98,5.29,-14.79,-14.79,-6.08
88.09,-20.69,-14.61,-20.69,-14.62,6.00,5.98,5.28,-14.69,-14.69,-6.08
88.97,-20.59,-14.54,-20.60,-14.53,6.00,5.97,5.29,-14.59,-14.60,-6.05
89.86,-20.50,-14.45,-20.50,-14.44,6.00,5.97,5.29,-14.50,-14.50,-6.05
90.76,-20.40,-14.35,-20.40,-14.36,6.00,5.97,5.30,-14.40,-14.40,-6.06
91.66,-20.31,-14.27,-20.32,-14.27,6.00,5.97,5.32,-14.31,-14.32,-6.04
92.58,-20.24,-14.18,-20.24,-14.19,6.00,5.97,5.33,-14.24,-14.24,-6.06
93.51,-20.17,-14.12,-20.17,-14.11,6.00,5.96,5.36,-14.17,-14.17,-6.06
94.44,-20.10,-14.04,-20.10,-14.03,6.00,5.96,5.38,-14.10,-14.10,-6.06
95.39,-20.03,-13.95,-20.03,-13.95,6.00,5.96,5.41,-14.03,-14.03,-6.08
96.34,-19.95,-13.84,-19.95,-13.85,6.00,5.96,5.44,-13.95,-13.95,-6.11
97.30,-19.88,-13.74,-19.88,-13.74,6.00,5.96,5.48,-13.88,-13.88,-6.14
98.28,-19.80,-13.63,-19.81,-13.64,6.00,5.95,5.52,-13.80,-13.81,-6.17
99.26,-19.74,-13.55,-19.74,-13.54,6.00,5.95,5.56,-13.74,-13.74,-6.20
100.25,-19.68,-13.45,-19.67,-13.44,6.00,5.95,5.60,-13.68,-13.67,-6.23
101.25,-19.61,-13.34,-19.61,-13.34,6.00,5.95,5.65,-13.61,-13.61,-6.27
102.27,-19.55,-13.25,-19.56,-13.25,6.00,5.95,5.70,-13.55,-13.56,-6.30
103.29,-19.52,-13.17,-19.52,-13.17,6.00,5.94,5.75,-13.52,-13.52,-6.35
104.32,-19.48,-13.10,-19.47,-13.09,6.00,5.94,5.80,-13.48,-13.47,-6.38
105.37,-19.42,-13.00,-19.43,-13.01,6.00,5.94,5.85,-13.42,-13.43,-6.42
106.42,-19.37,-12.92,-19.37,-12.92,6.00,5.94,5.91,-13.37,-13.37,-6.45
107.48,-19.32,-12.83,-19.32,-12.83,6.00,5.94,5.96,-13.32,-13.32,-6.49
108.56,-19.27,-12.74,-19.27,-12.74,6.00,5.93,6.02,-13.27,-13.27,-6.53
109.64,-19.21,-12.64,-19.21,-12.65,6.00,5.93,6.07,-13.21,-13.21,-6.57
110.74,-19.15,-12.55,-19.15,-12.56,6.00,5.93,6.12,-13.15,-13.15,-6.60
111.85,-19.10,-12.48,-19.10,-12.47,6.00,5.93,6.18,-13.10,-13.10,-6.62
112.97,-19.05,-12.39,-19.05,-12.40,6.00,5.92,6.23,-13.05,-13.05,-6.67
114.10,-19.01,-12.33,-19.01,-12.33,6.00,5.92,6.27,-13.01,-13.01,-6.68
115.24,-18.97,-12.26,-18.98,-12.26,6.00,5.92,6.32,-12.97,-12.98,-6.71
116.39,-18.94,-12.21,-18.94,-12.21,6.00,5.92,6.36,-12.94,-12.94,-6.73
117.55,-18.90,-12.14,-18.90,-12.14,6.00,5.91,6.39,-12.90,-12.90,-6.76
118.73,-18.85,-12.08,-18.85,-12.08,6.00,5.91,6.43,-12.85,-12.85,-6.78
119.92,-18.79,-12.01,-18.80,-12.01,6.00,5.91,6.45,-12.79,-12.80,-6.78
121.12,-18.75,-11.95,-18.76,-11.96,6.00,5.91,6.48,-12.75,-12.76,-6.80
122.33,-18.72,-11.91,-18.72,-11.91,6.00,5.91,6.49,-12.72,-12.72,-6.82
123.55,-18.68,-11.86,-18.68,-11.85,6.00,5.90,6.50,-12.68,-12.68,-6.82
124.79,-18.63,-11.79,-18.63,-11.79,6.00,5.90,6.51,-12.63,-12.63,-6.84
126.03,-18.57,-11.72,-18.58,-11.74,6.00,5.90,6.51,-12.57,-12.58,-6.85
127.29,-18.54,-11.69,-18.54,-11.68,6.00,5.90,6.50,-12.54,-12.54,-6.86
128.57,-18.50,-11.62,-18.49,-11.62,6.00,5.89,6.49,-12.50,-12.49,-6.88
129.85,-18.45,-11.56,-18.45,-11.56,6.00,5.89,6.48,-12.45,-12.45,-6.89
131.15,-18.39,-11.48,-18.40,-11.49,6.00,5.89,6.45,-12.39,-12.40,-6.91
132.46,-18.35,-11.43,-18.35,-11.43,6.00,5.89,6.43,-12.35,-12.35,-6.92
133.79,-18.31,-11.39,-18.31,-11.38,6.00,5.88,6.40,-12.31,-12.31,-6.92
135.12,-18.26,-11.31,-18.27,-11.32,6.00,5.88,6.36,-12.26,-12.27,-6.95
136.48,-18.23,-11.28,-18.23,-11.27,6.00,5.88,6.32,-12.23,-12.23,-6.95
137.84,-18.19,-11.22,-18.20,-11.22,6.00,5.88,6.28,-12.19,-12.20,-6.97
139.22,-18.17,-11.17,-18.16,-11.17,6.00,5.88,6.23,-12.17,-12.16,-7.00
140.61,-18.13,-11.11,-18.12,-11.10,6.00,5.87,6.19,-12.13,-12.12,-7.02
142.02,-18.06,-11.03,-18.07,-11.04,6.00,5.87,6.14,-12.06,-12.07,-7.03
143.44,-18.02,-10.97,-18.02,-10.97,6.00,5.87,6.09,-12.02,-12.02,-7.05
144.87,-17.98,-10.90,-17.98,-10.90,6.00,5.87,6.04,-11.98,-11.98,-7.08
146.32,-17.94,-10.84,-17.94,-10.85,6.00,5.87,5.99,-11.94,-11.94,-7.10
147.78,-17.91,-10.80,-17.91,-10.80,6.00,5.86,5.94,-11.91,-11.91,-7.11
149.26,-17.89,-10.76,-17.89,-10.74,6.00,5.86,5.89,-11.89,-11.89,-7.14
150.75,-17.86,-10.68,-17.86,-10.69,6.00,5.86,5.84,-11.86,-11.86,-7.18
152.26,-17.84,-10.64,-17.84,-10.63,6.00,5.86,5.79,-11.84,-11.84,-7.20
153.78,-17.81,-10.58,-17.82,-10.58,6.00,5.86,5.75,-11.81,-11.82,-7.23
155.32,-17.80,-10.54,-17.80,-10.55,6.00,5.85,5.70,-11.80,-11.80,-7.26
156.88,-17.79,-10.51,-17.79,-10.50,6.00,5.85,5.66,-11.79,-11.79,-7.28
158.44,-17.78,-10.47,-17.78,-10.46,6.00,5.85,5.63,-11.78,-11.78,-7.32
160.03,-17.76,-10.40,-17.77,-10.41,6.00,5.85,5.59,-11.76,-11.77,-7.36
161.63,-17.75,-10.36,-17.75,-10.36,6.00,5.85,5.56,-11.75,-11.75,-7.39
163.24,-17.74,-10.32,-17.74,-10.32,6.00,5.85,5.53,-11.74,-11.74,-7.42
164.88,-17.71,-10.27,-17.72,-10.27,6.00,5.85,5.51,-11.71,-11.72,-7.44
166.53,-17.69,-10.22,-17.69,-10.22,6.00,5.84,5.48,-11.69,-11.69,-7.47
168.19,-17.66,-10.16,-17.66,-10.16,6.00,5.84,5.47,-11.66,-11.66,-7.51
169.87,-17.62,-10.10,-17.63,-10.10,6.00,5.84,5.45,-11.62,-11.63,-7.52
171.57,-17.59,-10.04,-17.59,-10.04,6.00,5.84,5.44,-11.59,-11.59,-7.55
173.29,-17.55,-9.97,-17.55,-9.97,6.00,5.84,5.44,-11.55,-11.55,-7.58
175.02,-17.51,-9.92,-17.52,-9.91,6.00,5.84,5.44,-11.51,-11.52,-7.60
176.77,-17.49,-9.86,-17.49,-9.86,6.00,5.84,5.44,-11.49,-11.49,-7.63
178.54,-17.48,-9.82,-17.48,-9.83,6.00,5.84,5.45,-11.48,-11.48,-7.66
180.32,-17.47,-9.80,-17.47,-9.80,6.00,5.84,5.46,-11.47,-11.47,-7.67
182.13,-17.46,-9.78,-17.46,-9.78,6.00,5.84,5.47,-11.46,-11.46,-7.68
183.95,-17.45,-9.75,-17.45,-9.76,6.00,5.84,5.49,-11.45,-11.45,-7.70
185.79,-17.45,-9.74,-17.45,-9.73,6.00,5.84,5.52,-11.45,-11.45,-7.72
187.65,-17.43,-9.70,-17.44,-9.71,6.00,5.84,5.54,-11.43,-11.44,-7.73
189.52,-17.42,-9.68,-17.42,-9.68,6.00,5.84,5.57,-11.42,-11.42,-7.74
191.42,-17.40,-9.65,-17.40,-9.64,6.00,5.84,5.61,-11.40,-11.40,-7.75
193.33,-17.37,-9.61,-17.37,-9.61,6.00,5.84,5.65,-11.37,-11.37,-7.77
195.27,-17.33,-9.55,-17.34,-9.56,6.00,5.84,5.69,-11.33,-11.34,-7.78
197.22,-17.30,-9.51,-17.30,-9.51,6.00,5.84,5.73,-11.30,-11.30,-7.79
199.19,-17.27,-9.45,-17.27,-9.47,6.00,5.84,5.78,-11.27,-11.27,-7.82
201.18,-17.25,-9.43,-17.25,-9.43,6.00,5.84,5.83,-11.25,-11.25,-7.82
203.19,-17.23,-9.40,-17.23,-9.39,6.00,5.84,5.88,-11.23,-11.23,-7.83
205.23,-17.20,-9.35,-17.20,-9.36,6.00,5.85,5.94,-11.20,-11.20,-7.85
207.28,-17.16,-9.31,-17.17,-9.31,6.00,5.85,5.99,-11.16,-11.17,-7.85
209.35,-17.13,-9.26,-17.13,-9.26,6.00,5.85,6.05,-11.13,-11.13,-7.87
211.44,-17.09,-9.20,-17.09,-9.21,6.00,5.85,6.11,-11.09,-11.09,-7.89
213.56,-17.06,-9.17,-17.06,-9.18,6.00,5.85,6.17,-11.06,-11.06,-7.89
215.69,-17.03,-9.15,-17.03,-9.14,6.00,5.86,6.23,-11.03,-11.03,-7.89
217.85,-17.01,-9.12,-17.01,-9.11,6.00,5.86,6.29,-11.01,-11.01,-7.89
220.03,-16.99,-9.08,-16.99,-9.09,6.00,5.86,6.34,-10.99,-10.99,-7.91
222.23,-16.97,-9.05,-16.97,-9.06,6.00,5.86,6.40,-10.97,-10.97,-7.92
224.45,-16.95,-9.05,-16.95,-9.03,6.00,5.87,6.45,-10.95,-10.95,-7.91
226.70,-16.91,-9.00,-16.91,-9.00,6.00,5.87,6.50,-10.91,-10.91,-7.91
228.96,-16.87,-8.95,-16.88,-8.96,6.00,5.87,6.55,-10.87,-10.88,-7.92
231.25,-16.84,-8.93,-16.83,-8.91,6.00,5.88,6.59,-10.84,-10.83,-7.92
233.57,-16.79,-8.87,-16.79,-8.87,6.00,5.88,6.63,-10.79,-10.79,-7.92
235.90,-16.74,-8.81,-16.75,-8.82,6.00,5.89,6.67,-10.74,-10.75,-7.93
238.26,-16.72,-8.78,-16.72,-8.78,6.00,5.89,6.70,-10.72,-10.72,-7.94
240.64,-16.69,-8.75,-16.69,-8.75,6.00,5.90,6.72,-10.69,-10.69,-7.94
243.05,-16.67,-8.73,-16.67,-8.73,6.00,5.90,6.74,-10.67,-10.67,-7.94
245.48,-16.65,-8.71,-16.65,-8.71,6.00,5.91,6.75,-10.65,-10.65,-7.94
247.93,-16.62,-8.68,-16.62,-8.68,6.00,5.91,6.75,-10.62,-10.62,-7.94
250.41,-16.59,-8.64,-16.59,-8.65,6.00,5.92,6.75,-10.59,-10.59,-7.95
252.92,-16.54,-8.61,-16.55,-8.62,6.00,5.92,6.74,-10.54,-10.55,-7.93
255.45,-16.51,-8.59,-16.51,-8.58,6.00,5.93,6.72,-10.51,-10.51,-7.92
258.00,-16.47,-8.56,-16.47,-8.55,6.00,5.93,6.69,-10.47,-10.47,-7.91
260.58,-16.42,-8.52,-16.42,-8.52,6.00,5.94,6.66,-10.42,-10.42,-7.91
263.19,-16.38,-8.50,-16.38,-8.50,6.00,5.95,6.63,-10.38,-10.38,-7.88
265.82,-16.35,-8.48,-16.36,-8.48,6.00,5.95,6.58,-10.35,-10.36,-7.87
268.48,-16.33,-8.47,-16.33,-8.48,6.00,5.96,6.54,-10.33,-10.33,-7.86
271.16,-16.32,-8.48,-16.31,-8.47,6.00,5.97,6.48,-10.32,-10.31,-7.84
273.87,-16.27,-8.45,-16.28,-8.45,6.00,5.97,6.43,-10.27,-10.28,-7.82
276.61,-16.24,-8.43,-16.24,-8.43,6.00,5.98,6.37,-10.24,-10.24,-7.81
279.38,-16.20,-8.40,-16.20,-8.40,6.00,5.99,6.30,-10.20,-10.20,-7.80
282.17,-16.16,-8.37,-16.16,-8.37,6.00,5.99,6.23,-10.16,-10.16,-7.79
284.99,-16.12,-8.35,-16.11,-8.34,6.00,6.00,6.17,-10.12,-10.11,-7.77
287.84,-16.06,-8.30,-16.07,-8.31,6.00,6.01,6.10,-10.06,-10.07,-7.76
290.72,-16.01,-8.27,-16.02,-8.28,6.00,6.01,6.02,-10.01,-10.02,-7.74
293.63,-15.98,-8.26,-15.98,-8.26,6.00,6.02,5.95,-9.98,-9.98,-7.73
296.57,-15.94,-8.24,-15.94,-8.24,6.00,6.02,5.88,-9.94,-9.94,-7.70
299.53,-15.90,-8.21,-15.90,-8.21,6.00,6.03,5.81,-9.90,-9.90,-7.69
302.53,-15.83,-8.16,-15.83,-8.17,6.00,6.04,5.74,-9.83,-9.83,-7.67
305.55,-15.76,-8.13,-15.76,-8.12,6.00,6.04,5.67,-9.76,-9.76,-7.63
308.61,-15.68,-8.06,-15.68,-8.07,6.00,6.05,5.61,-9.68,-9.68,-7.62
311.69,-15.60,-8.01,-15.61,-8.02,6.00,6.05,5.54,-9.60,-9.61,-7.59
314.81,-15.53,-7.98,-15.53,-7.97,6.00,6.06,5.48,-9.53,-9.53,-7.55
317.96,-15.44,-7.91,-15.44,-7.91,6.00,6.06,5.42,-9.44,-9.44,-7.53
321.14,-15.35,-7.85,-15.35,-7.84,6.00,6.06,5.37,-9.35,-9.35,-7.50
324.35,-15.25,-7.77,-15.25,-7.77,6.00,6.07,5.31,-9.25,-9.25,-7.49
327.59,-15.14,-7.68,-15.15,-7.70,6.00,6.07,5.26,-9.14,-9.15,-7.46
330.87,-15.06,-7.63,-15.05,-7.62,6.00,6.07,5.22,-9.06,-9.05,-7.43
334.18,-14.95,-7.54,-14.95,-7.54,6.00,6.07,5.17,-8.95,-8.95,-7.41
337.52,-14.84,-7.46,-14.85,-7.47,6.00,6.07,5.14,-8.84,-8.85,-7.38
340.90,-14.75,-7.40,-14.75,-7.39,6.00,6.07,5.10,-8.75,-8.75,-7.35
344.30,-14.64,-7.32,-14.64,-7.31,6.00,6.06,5.07,-8.64,-8.64,-7.33
347.75,-14.53,-7.23,-14.53,-7.23,6.00,6.06,5.04,-8.53,-8.53,-7.31
