frequency,raw,error,smoothed,error_smoothed,equalization,parametric_eq,fixed_band_eq,equalized_raw,equalized_smoothed,target
20.00,2.84,-2.64,2.84,-2.64,2.64,2.43,0.76,5.48,5.48,5.48
20.20,2.86,-2.60,2.86,-2.61,2.61,2.42,0.79,5.47,5.47,5.46
20.40,2.88,-2.57,2.88,-2.58,2.58,2.41,0.81,5.46,5.45,5.45
20.61,2.90,-2.55,2.90,-2.54,2.55,2.39,0.84,5.44,5.44,5.45
20.81,2.92,-2.51,2.92,-2.51,2.51,2.38,0.87,5.43,5.43,5.43
21.02,2.94,-2.48,2.94,-2.48,2.49,2.37,0.90,5.42,5.42,5.42
21.23,2.96,-2.45,2.96,-2.46,2.46,2.36,0.93,5.42,5.42,5.41
21.44,2.98,-2.44,2.98,-2.43,2.43,2.34,0.96,5.41,5.41,5.42
21.66,3.01,-2.40,3.01,-2.40,2.40,2.33,0.99,5.41,5.41,5.41
21.87,3.03,-2.37,3.03,-2.37,2.37,2.32,1.02,5.40,5.40,5.40
22.09,3.05,-2.34,3.05,-2.34,2.34,2.30,1.05,5.39,5.39,5.39
22.31,3.07,-2.32,3.07,-2.32,2.32,2.29,1.09,5.38,5.39,5.39
22.54,3.09,-2.29,3.09,-2.29,2.29,2.27,1.12,5.38,5.38,5.38
22.76,3.12,-2.27,3.12,-2.26,2.26,2.26,1.16,5.38,5.38,5.39
22.99,3.14,-2.24,3.14,-2.24,2.24,2.24,1.20,5.38,5.38,5.38
23.22,3.16,-2.21,3.16,-2.21,2.21,2.23,1.23,5.37,5.38,5.37
23.45,3.18,-2.19,3.18,-2.19,2.19,2.21,1.27,5.37,5.37,5.36
23.69,3.20,-2.17,3.20,-2.17,2.17,2.20,1.31,5.37,5.37,5.36
23.92,3.21,-2.15,3.21,-2.15,2.15,2.18,1.35,5.36,5.36,5.36
24.16,3.23,-2.13,3.23,-2.13,2.13,2.16,1.39,5.36,5.36,5.36
24.40,3.26,-2.11,3.26,-2.11,2.11,2.15,1.44,5.37,5.36,5.37
24.65,3.28,-2.09,3.28,-2.09,2.08,2.13,1.48,5.36,5.36,5.37
24.89,3.30,-2.06,3.30,-2.06,2.06,2.11,1.52,5.36,5.36,5.36
25.14,3.32,-2.03,3.32,-2.03,2.04,2.10,1.56,5.36,5.36,5.35
25.39,3.34,-2.01,3.34,-2.01,2.01,2.08,1.60,5.35,5.35,5.35
25.65,3.36,-1.98,3.36,-1.98,1.99,2.06,1.65,5.35,5.35,5.34
25.91,3.38,-1.96,3.38,-1.96,1.96,2.04,1.69,5.34,5.34,5.34
26.16,3.40,-1.95,3.40,-1.94,1.94,2.02,1.73,5.34,5.34,5.35
26.43,3.42,-1.92,3.42,-1.92,1.91,2.00,1.77,5.33,5.33,5.34
26.69,3.44,-1.90,3.44,-1.90,1.89,1.99,1.81,5.33,5.33,5.33
26.96,3.46,-1.87,3.46,-1.87,1.87,1.97,1.85,5.33,5.33,5.33
27.23,3.48,-1.84,3.48,-1.85,1.85,1.95,1.89,5.33,5.33,5.32
27.50,3.50,-1.82,3.50,-1.83,1.83,1.93,1.93,5.33,5.33,5.32
27.77,3.51,-1.82,3.51,-1.81,1.81,1.91,1.97,5.32,5.33,5.33
28.05,3.53,-1.80,3.53,-1.80,1.80,1.89,2.00,5.33,5.33,5.33
28.33,3.55,-1.78,3.55,-1.78,1.78,1.87,2.03,5.33,5.33,5.33
28.62,3.57,-1.76,3.57,-1.76,1.76,1.85,2.06,5.33,5.33,5.33
28.90,3.58,-1.76,3.58,-1.75,1.75,1.83,2.09,5.33,5.33,5.34
29.19,3.60,-1.73,3.60,-1.73,1.73,1.81,2.11,5.33,5.33,5.33
29.48,3.62,-1.71,3.62,-1.72,1.72,1.78,2.13,5.34,5.34,5.33
29.78,3.64,-1.69,3.64,-1.70,1.71,1.76,2.15,5.34,5.34,5.33
30.08,3.65,-1.70,3.65,-1.69,1.69,1.74,2.16,5.34,5.34,5.35
30.38,3.66,-1.68,3.66,-1.68,1.68,1.72,2.17,5.34,5.34,5.34
30.68,3.67,-1.67,3.67,-1.67,1.67,1.70,2.18,5.34,5.34,5.34
30.99,3.68,-1.65,3.68,-1.66,1.65,1.68,2.18,5.33,5.33,5.33
31.30,3.69,-1.64,3.69,-1.64,1.64,1.65,2.18,5.33,5.33,5.33
31.61,3.70,-1.63,3.70,-1.63,1.62,1.63,2.17,5.32,5.32,5.33
31.93,3.72,-1.60,3.71,-1.61,1.60,1.61,2.16,5.32,5.32,5.32
32.24,3.73,-1.59,3.73,-1.58,1.59,1.58,2.15,5.32,5.32,5.32
32.57,3.74,-1.56,3.74,-1.56,1.57,1.56,2.13,5.31,5.31,5.30
32.89,3.76,-1.54,3.76,-1.55,1.55,1.54,2.11,5.31,5.31,5.30
33.22,3.77,-1.53,3.77,-1.53,1.53,1.51,2.09,5.30,5.30,5.30
33.55,3.78,-1.52,3.78,-1.51,1.51,1.49,2.06,5.29,5.29,5.30
33.89,3.79,-1.49,3.79,-1.50,1.49,1.47,2.03,5.28,5.28,5.28
34.23,3.80,-1.47,3.80,-1.47,1.47,1.44,2.00,5.27,5.27,5.27
34.57,3.81,-1.46,3.81,-1.46,1.45,1.42,1.96,5.26,5.27,5.27
34.92,3.83,-1.43,3.83,-1.43,1.43,1.39,1.92,5.26,5.26,5.26
35.27,3.84,-1.42,3.84,-1.41,1.41,1.37,1.88,5.25,5.25,5.26
35.62,3.85,-1.38,3.85,-1.39,1.39,1.34,1.84,5.24,5.24,5.23
35.97,3.86,-1.37,3.86,-1.37,1.37,1.32,1.80,5.23,5.23,5.23
36.33,3.87,-1.34,3.87,-1.34,1.34,1.29,1.75,5.21,5.21,5.21
36.70,3.88,-1.32,3.88,-1.32,1.32,1.27,1.70,5.20,5.20,5.20
37.06,3.89,-1.30,3.89,-1.30,1.30,1.24,1.65,5.19,5.19,5.19
37.43,3.90,-1.27,3.90,-1.27,1.27,1.22,1.60,5.17,5.17,5.17
37.81,3.91,-1.25,3.91,-1.25,1.24,1.19,1.55,5.15,5.15,5.16
38.19,3.92,-1.21,3.92,-1.22,1.22,1.16,1.50,5.14,5.14,5.13
38.57,3.93,-1.19,3.93,-1.19,1.19,1.14,1.45,5.12,5.12,5.12
38.95,3.94,-1.16,3.94,-1.16,1.16,1.11,1.40,5.10,5.10,5.09
39.34,3.95,-1.12,3.95,-1.13,1.12,1.08,1.35,5.07,5.07,5.07
39.74,3.96,-1.10,3.96,-1.09,1.09,1.06,1.30,5.05,5.05,5.06
40.14,3.97,-1.06,3.97,-1.06,1.06,1.03,1.25,5.03,5.03,5.03
40.54,3.99,-1.03,3.99,-1.03,1.03,1.00,1.19,5.02,5.01,5.02
40.94,4.00,-0.99,4.00,-0.99,1.00,0.98,1.14,5.00,5.00,4.99
41.35,4.01,-0.96,4.01,-0.97,0.97,0.95,1.09,4.98,4.98,4.97
41.76,4.02,-0.94,4.02,-0.94,0.94,0.92,1.04,4.95,4.95,4.96
42.18,4.03,-0.91,4.03,-0.91,0.91,0.89,0.99,4.93,4.94,4.94
42.60,4.04,-0.88,4.04,-0.88,0.88,0.87,0.95,4.92,4.92,4.92
43.03,4.05,-0.84,4.05,-0.85,0.85,0.84,0.90,4.90,4.90,4.89
43.46,4.05,-0.82,4.05,-0.82,0.82,0.81,0.85,4.87,4.87,4.87
43.90,4.06,-0.79,4.06,-0.79,0.79,0.78,0.80,4.85,4.85,4.85
44.33,4.06,-0.77,4.06,-0.77,0.77,0.75,0.76,4.83,4.83,4.83
44.78,4.06,-0.74,4.06,-0.74,0.74,0.72,0.71,4.80,4.80,4.80
45.23,4.06,-0.72,4.06,-0.72,0.71,0.69,0.66,4.77,4.77,4.78
45.68,4.06,-0.69,4.06,-0.69,0.69,0.66,0.62,4.75,4.74,4.74
46.13,4.06,-0.65,4.06,-0.65,0.66,0.63,0.58,4.72,4.72,4.71
46.60,4.05,-0.63,4.05,-0.63,0.63,0.60,0.53,4.68,4.68,4.68
47.06,4.05,-0.60,4.05,-0.60,0.60,0.57,0.49,4.65,4.64,4.65
47.53,4.04,-0.58,4.04,-0.57,0.56,0.54,0.45,4.60,4.61,4.62
48.01,4.04,-0.53,4.04,-0.54,0.53,0.51,0.40,4.57,4.57,4.57
48.49,4.04,-0.50,4.04,-0.50,0.50,0.48,0.36,4.54,4.53,4.54
48.97,4.04,-0.46,4.04,-0.46,0.46,0.45,0.32,4.50,4.50,4.50
49.46,4.04,-0.43,4.04,-0.42,0.43,0.42,0.28,4.46,4.46,4.47
49.96,4.04,-0.38,4.04,-0.39,0.39,0.39,0.24,4.43,4.43,4.42
50.46,4.04,-0.35,4.04,-0.35,0.36,0.36,0.21,4.39,4.39,4.39
50.96,4.04,-0.32,4.04,-0.32,0.32,0.33,0.17,4.36,4.36,4.36
51.47,4.04,-0.29,4.04,-0.29,0.29,0.30,0.13,4.33,4.33,4.33
51.99,4.04,-0.26,4.04,-0.26,0.26,0.26,0.09,4.30,4.30,4.30
52.51,4.04,-0.22,4.04,-0.23,0.22,0.23,0.06,4.26,4.26,4.26
53.03,4.04,-0.20,4.04,-0.19,0.19,0.20,0.02,4.23,4.23,4.24
53.56,4.04,-0.15,4.04,-0.16,0.15,0.17,-0.02,4.19,4.19,4.19
54.10,4.04,-0.12,4.04,-0.12,0.12,0.13,-0.05,4.16,4.16,4.16
54.64,4.04,-0.08,4.04,-0.08,0.08,0.10,-0.09,4.12,4.12,4.12
55.18,4.04,-0.04,4.04,-0.04,0.05,0.07,-0.12,4.09,4.09,4.08
55.74,4.04,-0.00,4.04,-0.01,0.01,0.04,-0.15,4.05,4.05,4.04
56.29,4.04,0.02,4.04,0.02,-0.02,0.00,-0.19,4.02,4.02,4.02
56.86,4.04,0.04,4.04,0.05,-0.05,-0.03,-0.22,3.99,3.99,4.00
57.42,4.04,0.08,4.04,0.08,-0.07,-0.07,-0.25,3.97,3.97,3.96
58.00,4.04,0.11,4.04,0.10,-0.10,-0.10,-0.28,3.94,3.94,3.93
58.58,4.04,0.12,4.04,0.13,-0.13,-0.13,-0.31,3.91,3.91,3.92
59.16,4.04,0.15,4.04,0.15,-0.16,-0.17,-0.34,3.88,3.88,3.89
59.76,4.04,0.18,4.04,0.18,-0.19,-0.20,-0.37,3.85,3.85,3.86
60.35,4.04,0.22,4.04,0.22,-0.23,-0.24,-0.39,3.81,3.81,3.82
60.96,4.04,0.27,4.04,0.27,-0.27,-0.27,-0.42,3.77,3.77,3.77
61.57,4.04,0.32,4.04,0.32,-0.31,-0.31,-0.45,3.73,3.73,3.72
62.18,4.04,0.36,4.04,0.36,-0.36,-0.35,-0.47,3.68,3.68,3.68
62.80,4.04,0.41,4.04,0.41,-0.40,-0.38,-0.50,3.64,3.64,3.63
63.43,4.04,0.45,4.04,0.45,-0.44,-0.42,-0.52,3.60,3.60,3.59
64.07,4.04,0.49,4.04,0.49,-0.48,-0.45,-0.55,3.55,3.55,3.55
64.71,4.04,0.52,4.04,0.53,-0.52,-0.49,-0.57,3.51,3.51,3.52
65.35,4.04,0.56,4.04,0.56,-0.56,-0.53,-0.59,3.48,3.48,3.48
66.01,4.04,0.60,4.04,0.60,-0.60,-0.56,-0.62,3.44,3.44,3.44
66.67,4.04,0.63,4.04,0.64,-0.64,-0.60,-0.64,3.40,3.40,3.41
67.33,4.04,0.68,4.04,0.68,-0.68,-0.64,-0.66,3.36,3.36,3.36
68.01,4.04,0.72,4.04,0.72,-0.71,-0.68,-0.68,3.33,3.33,3.32
68.69,4.04,0.76,4.04,0.76,-0.75,-0.71,-0.70,3.29,3.29,3.28
69.37,4.04,0.79,4.04,0.79,-0.79,-0.75,-0.72,3.25,3.25,3.25
70.07,4.04,0.83,4.04,0.83,-0.83,-0.79,-0.75,3.21,3.21,3.21
70.77,4.04,0.87,4.04,0.87,-0.88,-0.83,-0.77,3.16,3.16,3.17
71.48,4.04,0.91,4.04,0.91,-0.92,-0.86,-0.79,3.12,3.12,3.13
72.19,4.04,0.96,4.04,0.96,-0.96,-0.90,-0.81,3.08,3.08,3.08
72.91,4.04,1.00,4.04,1.00,-1.00,-0.94,-0.83,3.04,3.04,3.04
73.64,4.04,1.04,4.04,1.04,-1.04,-0.98,-0.85,3.00,3.00,3.00
74.38,4.04,1.08,4.04,1.08,-1.07,-1.02,-0.88,2.97,2.97,2.96
75.12,4.04,1.11,4.04,1.11,-1.11,-1.05,-0.90,2.93,2.93,2.93
75.87,4.04,1.14,4.04,1.14,-1.14,-1.09,-0.92,2.90,2.90,2.90
76.63,4.04,1.17,4.04,1.17,-1.17,-1.13,-0.95,2.87,2.87,2.87
77.40,4.04,1.20,4.04,1.20,-1.20,-1.17,-0.97,2.84,2.84,2.84
78.17,4.04,1.23,4.04,1.23,-1.23,-1.20,-1.00,2.81,2.81,2.80
78.95,4.04,1.26,4.04,1.26,-1.26,-1.24,-1.02,2.78,2.78,2.78
79.74,4.04,1.28,4.04,1.29,-1.29,-1.28,-1.05,2.75,2.75,2.76
80.54,4.04,1.32,4.04,1.31,-1.32,-1.31,-1.07,2.72,2.72,2.72
81.35,4.04,1.34,4.04,1.34,-1.35,-1.35,-1.10,2.69,2.69,2.70
82.16,4.04,1.37,4.04,1.37,-1.38,-1.39,-1.13,2.66,2.66,2.67
82.98,4.04,1.41,4.04,1.41,-1.41,-1.42,-1.16,2.63,2.63,2.63
83.81,4.04,1.44,4.04,1.44,-1.44,-1.46,-1.19,2.60,2.60,2.59
84.65,4.04,1.47,4.04,1.48,-1.47,-1.50,-1.22,2.57,2.57,2.57
85.50,4.04,1.51,4.04,1.51,-1.51,-1.53,-1.26,2.53,2.53,2.53
86.35,4.04,1.54,4.04,1.54,-1.54,-1.57,-1.29,2.50,2.50,2.50
87.22,4.04,1.57,4.04,1.58,-1.58,-1.60,-1.33,2.46,2.46,2.47
88.09,4.04,1.62,4.04,1.61,-1.61,-1.64,-1.36,2.42,2.42,2.42
88.97,4.04,1.65,4.04,1.65,-1.65,-1.67,-1.40,2.39,2.39,2.39
89.86,4.04,1.69,4.04,1.69,-1.68,-1.70,-1.44,2.35,2.35,2.35
90.76,4.04,1.72,4.04,1.72,-1.72,-1.73,-1.47,2.32,2.32,2.32
91.66,4.04,1.76,4.04,1.76,-1.76,-1.77,-1.51,2.28,2.28,2.28
92.58,4.04,1.79,4.04,1.79,-1.79,-1.80,-1.56,2.25,2.25,2.25
93.51,4.04,1.83,4.04,1.83,-1.83,-1.83,-1.60,2.21,2.21,2.21
94.44,4.04,1.86,4.04,1.87,-1.87,-1.86,-1.64,2.17,2.17,2.18
95.39,4.04,1.91,4.04,1.91,-1.91,-1.89,-1.69,2.13,2.13,2.13
96.34,4.04,1.95,4.04,1.95,-1.95,-1.92,-1.73,2.09,2.09,2.08
97.30,4.04,1.99,4.04,1.99,-1.99,-1.95,-1.78,2.05,2.05,2.05
98.28,4.04,2.03,4.04,2.04,-2.04,-1.98,-1.82,2.00,2.00,2.01
99.26,4.05,2.08,4.05,2.08,-2.08,-2.01,-1.87,1.97,1.97,1.96
100.25,4.05,2.12,4.05,2.12,-2.12,-2.04,-1.92,1.93,1.94,1.93
101.25,4.06,2.15,4.06,2.16,-2.15,-2.06,-1.97,1.91,1.90,1.91
102.27,4.06,2.19,4.06,2.19,-2.18,-2.09,-2.02,1.88,1.87,1.87
103.29,4.05,2.22,4.06,2.21,-2.21,-2.12,-2.07,1.84,1.85,1.83
104.32,4.05,2.23,4.04,2.23,-2.23,-2.14,-2.11,1.82,1.81,1.82
105.37,4.03,2.25,4.03,2.25,-2.24,-2.17,-2.16,1.79,1.78,1.78
106.42,4.00,2.25,4.01,2.26,-2.25,-2.19,-2.21,1.75,1.75,1.75
107.48,3.98,2.27,3.97,2.26,-2.25,-2.22,-2.26,1.72,1.72,1.71
108.56,3.94,2.25,3.94,2.26,-2.25,-2.24,-2.31,1.69,1.69,1.68
109.64,3.90,2.25,3.90,2.25,-2.25,-2.27,-2.36,1.65,1.65,1.65
110.74,3.87,2.25,3.87,2.25,-2.25,-2.29,-2.41,1.62,1.62,1.62
111.85,3.83,2.25,3.83,2.24,-2.25,-2.32,-2.45,1.58,1.58,1.58
112.97,3.79,2.24,3.79,2.24,-2.25,-2.34,-2.50,1.54,1.54,1.55
114.10,3.76,2.24,3.76,2.25,-2.26,-2.36,-2.54,1.50,1.50,1.52
115.24,3.74,2.27,3.74,2.27,-2.27,-2.39,-2.58,1.47,1.47,1.47
116.39,3.73,2.30,3.72,2.29,-2.29,-2.41,-2.62,1.44,1.44,1.43
117.55,3.71,2.31,3.71,2.31,-2.31,-2.43,-2.66,1.40,1.40,1.40
118.73,3.69,2.33,3.70,2.33,-2.34,-2.45,-2.69,1.35,1.36,1.36
119.92,3.69,2.36,3.69,2.36,-2.36,-2.48,-2.72,1.33,1.33,1.33
121.12,3.70,2.39,3.70,2.40,-2.40,-2.50,-2.75,1.30,1.30,1.31
122.33,3.71,2.44,3.71,2.43,-2.43,-2.52,-2.78,1.28,1.28,1.27
123.55,3.71,2.47,3.71,2.46,-2.46,-2.54,-2.81,1.25,1.25,1.24
124.79,3.71,2.49,3.71,2.50,-2.49,-2.56,-2.83,1.22,1.22,1.22
126.03,3.71,2.53,3.71,2.53,-2.53,-2.59,-2.85,1.18,1.18,1.18
127.29,3.71,2.56,3.71,2.56,-2.57,-2.61,-2.87,1.14,1.14,1.15
128.57,3.71,2.59,3.71,2.60,-2.60,-2.63,-2.88,1.11,1.11,1.12
129.85,3.71,2.63,3.71,2.63,-2.64,-2.65,-2.89,1.07,1.07,1.08
131.15,3.71,2.67,3.71,2.67,-2.67,-2.68,-2.90,1.04,1.04,1.04
132.46,3.71,2.71,3.71,2.71,-2.71,-2.70,-2.91,1.00,1.00,1.00
133.79,3.71,2.75,3.71,2.75,-2.74,-2.72,-2.92,0.97,0.97,0.96
135.12,3.71,2.78,3.71,2.78,-2.78,-2.75,-2.92,0.93,0.93,0.92
136.48,3.71,2.80,3.71,2.81,-2.81,-2.77,-2.92,0.90,0.90,0.91
137.84,3.71,2.84,3.71,2.84,-2.84,-2.79,-2.92,0.87,0.87,0.87
139.22,3.71,2.88,3.71,2.87,-2.87,-2.82,-2.92,0.83,0.83,0.83
140.61,3.71,2.90,3.71,2.91,-2.90,-2.84,-2.92,0.81,0.81,0.81
142.02,3.71,2.94,3.71,2.94,-2.93,-2.86,-2.92,0.78,0.78,0.77
143.44,3.71,2.97,3.71,2.96,-2.96,-2.89,-2.92,0.75,0.75,0.74
144.87,3.71,2.98,3.71,2.99,-2.99,-2.91,-2.91,0.72,0.72,0.73
146.32,3.71,3.01,3.71,3.01,-3.01,-2.94,-2.91,0.70,0.70,0.70
147.78,3.71,3.03,3.71,3.03,-3.03,-2.96,-2.91,0.68,0.68,0.68
149.26,3.71,3.06,3.71,3.06,-3.06,-2.99,-2.91,0.65,0.65,0.65
150.75,3.71,3.08,3.71,3.08,-3.08,-3.01,-2.91,0.63,0.63,0.62
152.26,3.71,3.10,3.71,3.10,-3.10,-3.04,-2.91,0.61,0.61,0.61
153.78,3.71,3.13,3.71,3.13,-3.13,-3.06,-2.91,0.58,0.58,0.58
155.32,3.71,3.15,3.71,3.15,-3.15,-3.09,-2.91,0.55,0.55,0.56
156.88,3.71,3.18,3.71,3.18,-3.19,-3.12,-2.91,0.52,0.52,0.53
158.44,3.71,3.21,3.71,3.21,-3.22,-3.14,-2.92,0.49,0.49,0.50
160.03,3.72,3.24,3.72,3.25,-3.25,-3.17,-2.92,0.47,0.47,0.48
161.63,3.73,3.28,3.73,3.29,-3.29,-3.20,-2.93,0.44,0.44,0.45
163.24,3.74,3.33,3.74,3.33,-3.32,-3.22,-2.94,0.42,0.42,0.41
164.88,3.74,3.36,3.74,3.36,-3.35,-3.25,-2.96,0.39,0.39,0.38
166.53,3.73,3.38,3.73,3.39,-3.38,-3.28,-2.97,0.35,0.36,0.35
168.19,3.72,3.40,3.71,3.40,-3.39,-3.30,-2.99,0.32,0.32,0.32
169.87,3.69,3.41,3.69,3.41,-3.41,-3.33,-3.01,0.28,0.29,0.28
171.57,3.67,3.42,3.67,3.42,-3.42,-3.36,-3.03,0.25,0.25,0.25
173.29,3.64,3.42,3.63,3.42,-3.42,-3.39,-3.05,0.22,0.22,0.22
175.02,3.60,3.42,3.60,3.42,-3.42,-3.41,-3.08,0.18,0.18,0.18
176.77,3.56,3.41,3.57,3.42,-3.42,-3.44,-3.11,0.14,0.15,0.15
178.54,3.54,3.42,3.53,3.42,-3.42,-3.47,-3.14,0.12,0.12,0.12
180.32,3.50,3.42,3.50,3.42,-3.42,-3.49,-3.17,0.08,0.08,0.08
182.13,3.47,3.42,3.47,3.42,-3.42,-3.52,-3.21,0.05,0.05,0.05
183.95,3.43,3.41,3.43,3.42,-3.42,-3.55,-3.25,0.01,0.01,0.02
185.79,3.41,3.43,3.41,3.43,-3.44,-3.58,-3.29,-0.03,-0.03,-0.02
187.65,3.39,3.44,3.39,3.44,-3.45,-3.60,-3.33,-0.06,-0.07,-0.06
189.52,3.37,3.46,3.37,3.47,-3.48,-3.63,-3.38,-0.11,-0.10,-0.09
191.42,3.37,3.49,3.37,3.49,-3.50,-3.65,-3.42,-0.13,-0.13,-0.12
193.33,3.37,3.52,3.37,3.53,-3.53,-3.68,-3.47,-0.16,-0.16,-0.15
195.27,3.38,3.57,3.38,3.57,-3.56,-3.71,-3.53,-0.18,-0.18,-0.19
197.22,3.38,3.61,3.38,3.60,-3.58,-3.73,-3.58,-0.21,-0.21,-0.23
199.19,3.38,3.62,3.38,3.63,-3.61,-3.76,-3.63,-0.23,-0.24,-0.24
201.18,3.37,3.65,3.37,3.65,-3.64,-3.78,-3.69,-0.27,-0.27,-0.28
203.19,3.37,3.67,3.37,3.67,-3.67,-3.80,-3.75,-0.30,-0.30,-0.30
205.23,3.37,3.69,3.37,3.69,-3.70,-3.83,-3.80,-0.33,-0.33,-0.32
207.28,3.38,3.72,3.38,3.72,-3.74,-3.85,-3.86,-0.36,-0.35,-0.34
209.35,3.40,3.77,3.40,3.76,-3.77,-3.87,-3.92,-0.37,-0.38,-0.37
211.44,3.42,3.81,3.42,3.81,-3.82,-3.89,-3.98,-0.40,-0.40,-0.39
213.56,3.45,3.86,3.45,3.87,-3.86,-3.91,-4.04,-0.41,-0.41,-0.41
215.69,3.49,3.92,3.49,3.92,-3.92,-3.94,-4.10,-0.43,-0.43,-0.43
217.85,3.53,3.98,3.52,3.97,-3.97,-3.96,-4.15,-0.44,-0.45,-0.45
220.03,3.55,4.02,3.55,4.03,-4.03,-3.97,-4.21,-0.48,-0.48,-0.47
222.23,3.58,4.08,3.58,4.08,-4.08,-3.99,-4.26,-0.50,-0.50,-0.50
224.45,3.62,4.14,3.62,4.13,-4.14,-4.01,-4.31,-0.52,-0.52,-0.52
226.70,3.66,4.19,3.66,4.19,-4.18,-4.03,-4.36,-0.52,-0.53,-0.53
228.96,3.69,4.23,3.69,4.23,-4.23,-4.04,-4.41,-0.54,-0.54,-0.54
231.25,3.71,4.27,3.71,4.27,-4.26,-4.06,-4.45,-0.55,-0.55,-0.56
233.57,3.73,4.30,3.73,4.30,-4.29,-4.07,-4.49,-0.56,-0.57,-0.57
235.90,3.74,4.33,3.74,4.32,-4.32,-4.08,-4.52,-0.58,-0.58,-0.59
238.26,3.74,4.34,3.74,4.33,-4.33,-4.10,-4.55,-0.59,-0.59,-0.60
240.64,3.75,4.33,3.74,4.34,-4.34,-4.11,-4.57,-0.59,-0.60,-0.58
243.05,3.74,4.33,3.74,4.34,-4.34,-4.12,-4.59,-0.61,-0.60,-0.59
245.48,3.74,4.35,3.74,4.34,-4.34,-4.13,-4.60,-0.60,-0.60,-0.61
247.93,3.73,4.35,3.73,4.34,-4.33,-4.14,-4.61,-0.60,-0.61,-0.62
250.41,3.71,4.32,3.71,4.32,-4.32,-4.14,-4.61,-0.61,-0.61,-0.61
252.92,3.69,4.29,3.69,4.30,-4.30,-4.15,-4.61,-0.61,-0.61,-0.60
255.45,3.67,4.28,3.67,4.28,-4.28,-4.15,-4.60,-0.61,-0.61,-0.61
258.00,3.65,4.26,3.65,4.26,-4.25,-4.16,-4.58,-0.60,-0.61,-0.61
260.58,3.62,4.23,3.62,4.23,-4.22,-4.16,-4.56,-0.60,-0.61,-0.61
263.19,3.58,4.19,3.58,4.19,-4.19,-4.16,-4.53,-0.61,-0.61,-0.61
265.82,3.54,4.15,3.54,4.16,-4.16,-4.16,-4.50,-0.62,-0.61,-0.62
268.48,3.51,4.12,3.51,4.12,-4.12,-4.16,-4.47,-0.61,-0.61,-0.61
271.16,3.48,4.10,3.47,4.09,-4.09,-4.16,-4.43,-0.61,-0.62,-0.62
273.87,3.44,4.05,3.44,4.06,-4.06,-4.15,-4.38,-0.62,-0.62,-0.61
276.61,3.41,4.03,3.41,4.03,-4.03,-4.15,-4.33,-0.63,-0.62,-0.62
279.38,3.39,4.02,3.39,4.01,-4.01,-4.14,-4.28,-0.63,-0.63,-0.63
282.17,3.38,4.00,3.38,3.99,-4.00,-4.14,-4.23,-0.62,-0.63,-0.62
284.99,3.37,3.98,3.37,3.99,-3.99,-4.13,-4.17,-0.63,-0.62,-0.61
287.84,3.37,3.97,3.37,3.98,-3.99,-4.12,-4.12,-0.62,-0.62,-0.61
290.72,3.38,4.00,3.38,3.99,-3.99,-4.11,-4.06,-0.61,-0.62,-0.62
293.63,3.39,4.00,3.39,4.00,-4.00,-4.10,-4.00,-0.61,-0.61,-0.61
296.57,3.40,4.00,3.40,4.01,-4.00,-4.08,-3.94,-0.60,-0.60,-0.60
299.53,3.41,4.01,3.41,4.01,-4.00,-4.07,-3.88,-0.59,-0.59,-0.60
302.53,3.41,4.00,3.41,4.00,-3.99,-4.05,-3.82,-0.58,-0.58,-0.59
305.55,3.40,3.99,3.40,3.99,-3.98,-4.04,-3.76,-0.58,-0.58,-0.59
308.61,3.39,3.97,3.39,3.97,-3.97,-4.02,-3.70,-0.58,-0.58,-0.58
311.69,3.36,3.93,3.37,3.94,-3.94,-4.00,-3.64,-0.58,-0.57,-0.57
314.81,3.35,3.92,3.35,3.91,-3.91,-3.98,-3.59,-0.56,-0.57,-0.57
317.96,3.32,3.88,3.32,3.88,-3.88,-3.96,-3.53,-0.56,-0.56,-0.56
321.14,3.29,3.84,3.29,3.84,-3.84,-3.94,-3.48,-0.55,-0.55,-0.55
324.35,3.25,3.81,3.25,3.80,-3.80,-3.91,-3.43,-0.55,-0.55,-0.56
327.59,3.21,3.74,3.22,3.76,-3.76,-3.89,-3.38,-0.55,-0.54,-0.53
330.87,3.19,3.72,3.18,3.71,-3.72,-3.87,-3.33,-0.53,-0.53,-0.53
334.18,3.15,3.68,3.15,3.68,-3.68,-3.84,-3.28,-0.53,-0.52,-0.53
337.52,3.12,3.64,3.12,3.64,-3.64,-3.81,-3.24,-0.52,-0.52,-0.52
340.90,3.10,3.61,3.09,3.60,-3.61,-3.79,-3.20,-0.51,-0.51,-0.51
344.30,3.07,3.57,3.07,3.57,-3.58,-3.76,-3.16,-0.51,-0.51,-0.50
347.75,3.06,3.55,3.06,3.55,-3.56,-3.73,-3.12,-0.50,-0.51,-0.49
351.23,3.05,3.53,3.05,3.53,-3.55,-3.70,-3.09,-0.50,-0.50,-0.48
354.74,3.06,3.53,3.06,3.53,-3.54,-3.67,-3.06,-0.48,-0.48,-0.47
358.28,3.07,3.54,3.07,3.54,-3.53,-3.63,-3.03,-0.46,-0.46,-0.47
361.87,3.08,3.55,3.08,3.54,-3.53,-3.60,-3.00,-0.45,-0.45,-0.47
365.49,3.08,3.53,3.08,3.53,-3.52,-3.57,-2.98,-0.44,-0.44,-0.45
369.14,3.07,3.51,3.07,3.52,-3.51,-3.53,-2.95,-0.44,-0.44,-0.44
372.83,3.06,3.49,3.05,3.49,-3.49,-3.50,-2.93,-0.43,-0.44,-0.43
376.56,3.03,3.47,3.04,3.47,-3.47,-3.47,-2.92,-0.44,-0.43,-0.44
380.33,3.01,3.44,3.01,3.44,-3.44,-3.43,-2.90,-0.43,-0.42,-0.43
384.13,2.99,3.41,2.98,3.40,-3.40,-3.39,-2.89,-0.41,-0.42,-0.42
387.97,2.95,3.36,2.95,3.36,-3.36,-3.36,-2.88,-0.41,-0.40,-0.41
391.85,2.92,3.31,2.92,3.32,-3.32,-3.32,-2.87,-0.40,-0.40,-0.39
395.77,2.89,3.28,2.88,3.27,-3.28,-3.28,-2.86,-0.39,-0.39,-0.39
399.73,2.85,3.23,2.85,3.23,-3.24,-3.24,-2.85,-0.39,-0.39,-0.38
403.72,2.82,3.18,2.82,3.19,-3.20,-3.21,-2.85,-0.38,-0.38,-0.37
407.76,2.80,3.16,2.80,3.15,-3.17,-3.17,-2.84,-0.37,-0.37,-0.36
411.84,2.78,3.13,2.78,3.13,-3.13,-3.13,-2.84,-0.36,-0.35,-0.35
415.96,2.77,3.11,2.77,3.11,-3.11,-3.09,-2.84,-0.34,-0.34,-0.34
420.12,2.75,3.09,2.75,3.09,-3.08,-3.05,-2.84,-0.33,-0.33,-0.34
424.32,2.73,3.06,2.73,3.06,-3.05,-3.01,-2.84,-0.33,-0.32,-0.33
428.56,2.72,3.03,2.72,3.03,-3.03,-2.97,-2.84,-0.31,-0.31,-0.31
432.85,2.70,2.99,2.70,3.00,-3.00,-2.93,-2.84,-0.30,-0.30,-0.29
437.18,2.67,2.97,2.68,2.97,-2.97,-2.89,-2.84,-0.30,-0.29,-0.30
441.55,2.65,2.94,2.65,2.94,-2.93,-2.85,-2.84,-0.28,-0.28,-0.29
445.96,2.62,2.90,2.62,2.90,-2.89,-2.81,-2.84,-0.27,-0.28,-0.28
450.42,2.58,2.85,2.58,2.86,-2.86,-2.76,-2.84,-0.28,-0.27,-0.28
454.93,2.55,2.82,2.55,2.81,-2.82,-2.72,-2.84,-0.27,-0.27,-0.27
459.48,2.51,2.77,2.52,2.77,-2.78,-2.68,-2.84,-0.27,-0.26,-0.26
464.07,2.49,2.73,2.49,2.74,-2.74,-2.64,-2.83,-0.25,-0.25,-0.24
468.71,2.48,2.72,2.47,2.71,-2.71,-2.60,-2.82,-0.23,-0.24,-0.24
473.40,2.45,2.68,2.45,2.68,-2.68,-2.56,-2.81,-0.23,-0.23,-0.23
478.13,2.43,2.65,2.43,2.65,-2.65,-2.51,-2.80,-0.22,-0.22,-0.22
482.91,2.41,2.62,2.41,2.62,-2.62,-2.47,-2.79,-0.21,-0.21,-0.21
487.74,2.39,2.59,2.39,2.59,-2.59,-2.43,-2.77,-0.20,-0.20,-0.20
492.62,2.37,2.56,2.37,2.56,-2.56,-2.39,-2.75,-0.19,-0.19,-0.19
497.55,2.35,2.53,2.35,2.53,-2.52,-2.35,-2.73,-0.17,-0.17,-0.18
502.52,2.33,2.50,2.33,2.49,-2.48,-2.31,-2.71,-0.15,-0.16,-0.17
507.55,2.30,2.45,2.30,2.45,-2.44,-2.26,-2.68,-0.15,-0.15,-0.15
512.62,2.26,2.40,2.26,2.40,-2.40,-2.22,-2.65,-0.14,-0.14,-0.14
517.75,2.23,2.35,2.23,2.35,-2.36,-2.18,-2.62,-0.13,-0.13,-0.12
522.93,2.20,2.31,2.20,2.31,-2.32,-2.14,-2.58,-0.12,-0.12,-0.11
528.16,2.17,2.27,2.17,2.28,-2.28,-2.10,-2.54,-0.11,-0.11,-0.10
