frequency,raw,error,smoothed,error_smoothed,equalization,parametric_eq,fixed_band_eq,equalized_raw,equalized_smoothed,target
20.00,-1.81,-6.20,-1.80,-6.20,6.06,5.76,2.52,4.25,4.26,4.40
20.20,-1.77,-6.15,-1.77,-6.15,6.02,5.75,2.59,4.26,4.26,4.38
20.40,-1.73,-6.11,-1.73,-6.11,5.99,5.74,2.67,4.26,4.26,4.38
20.61,-1.69,-6.06,-1.69,-6.06,5.96,5.73,2.74,4.27,4.27,4.37
20.81,-1.65,-6.01,-1.65,-6.01,5.93,5.72,2.82,4.29,4.29,4.36
21.02,-1.61,-5.96,-1.60,-5.96,5.91,5.71,2.90,4.30,4.30,4.35
21.23,-1.56,-5.91,-1.56,-5.91,5.89,5.70,2.99,4.33,4.33,4.35
21.44,-1.51,-5.88,-1.51,-5.87,5.87,5.69,3.07,4.35,4.36,4.36
21.66,-1.48,-5.83,-1.47,-5.82,5.85,5.68,3.16,4.37,4.38,4.35
21.87,-1.43,-5.78,-1.44,-5.79,5.83,5.66,3.25,4.41,4.39,4.35
22.09,-1.43,-5.77,-1.43,-5.77,5.82,5.65,3.35,4.40,4.39,4.34
22.31,-1.46,-5.80,-1.45,-5.79,5.82,5.64,3.44,4.37,4.37,4.34
22.54,-1.49,-5.82,-1.50,-5.84,5.83,5.63,3.54,4.33,4.33,4.33
22.76,-1.54,-5.87,-1.54,-5.87,5.83,5.62,3.64,4.29,4.29,4.34
22.99,-1.58,-5.91,-1.55,-5.89,5.83,5.60,3.75,4.25,4.28,4.34
23.22,-1.54,-5.86,-1.54,-5.87,5.83,5.59,3.85,4.29,4.29,4.33
23.45,-1.50,-5.82,-1.50,-5.83,5.82,5.58,3.96,4.33,4.32,4.33
23.69,-1.46,-5.78,-1.45,-5.78,5.81,5.57,4.07,4.35,4.36,4.33
23.92,-1.42,-5.74,-1.42,-5.75,5.79,5.55,4.18,4.38,4.37,4.32
24.16,-1.41,-5.74,-1.41,-5.74,5.77,5.54,4.30,4.36,4.36,4.33
24.40,-1.41,-5.75,-1.40,-5.74,5.75,5.53,4.42,4.34,4.34,4.34
24.65,-1.41,-5.75,-1.41,-5.75,5.73,5.51,4.54,4.32,4.32,4.34
24.89,-1.41,-5.75,-1.40,-5.74,5.71,5.50,4.66,4.31,4.31,4.34
25.14,-1.39,-5.72,-1.39,-5.72,5.70,5.49,4.78,4.32,4.31,4.33
25.39,-1.36,-5.69,-1.36,-5.69,5.69,5.47,4.90,4.32,4.33,4.33
25.65,-1.34,-5.66,-1.33,-5.66,5.67,5.46,5.02,4.34,4.34,4.33
25.91,-1.31,-5.63,-1.31,-5.64,5.66,5.44,5.15,4.35,4.35,4.33
26.16,-1.30,-5.62,-1.30,-5.62,5.64,5.43,5.27,4.34,4.34,4.33
26.43,-1.30,-5.61,-1.30,-5.62,5.62,5.42,5.39,4.32,4.32,4.31
26.69,-1.31,-5.62,-1.30,-5.61,5.60,5.40,5.51,4.29,4.30,4.31
26.96,-1.31,-5.61,-1.30,-5.60,5.58,5.39,5.63,4.27,4.28,4.30
27.23,-1.29,-5.58,-1.28,-5.58,5.56,5.37,5.75,4.28,4.28,4.29
27.50,-1.26,-5.55,-1.26,-5.54,5.54,5.36,5.87,4.29,4.29,4.29
27.77,-1.23,-5.51,-1.23,-5.52,5.53,5.34,5.97,4.30,4.30,4.29
28.05,-1.21,-5.49,-1.21,-5.50,5.51,5.33,6.08,4.31,4.30,4.29
28.33,-1.21,-5.49,-1.20,-5.49,5.51,5.31,6.18,4.30,4.30,4.29
28.62,-1.21,-5.48,-1.20,-5.48,5.50,5.29,6.28,4.29,4.30,4.27
28.90,-1.21,-5.49,-1.21,-5.49,5.49,5.28,6.36,4.29,4.29,4.28
29.19,-1.21,-5.49,-1.21,-5.49,5.48,5.26,6.45,4.28,4.28,4.28
29.48,-1.21,-5.49,-1.21,-5.50,5.47,5.25,6.52,4.26,4.26,4.29
29.78,-1.21,-5.49,-1.20,-5.49,5.45,5.23,6.59,4.24,4.25,4.29
30.08,-1.19,-5.48,-1.18,-5.47,5.42,5.21,6.64,4.24,4.25,4.29
30.38,-1.13,-5.41,-1.12,-5.41,5.40,5.20,6.68,4.27,4.28,4.28
30.68,-1.07,-5.35,-1.07,-5.34,5.38,5.18,6.72,4.31,4.31,4.28
30.99,-1.01,-5.28,-1.03,-5.30,5.36,5.16,6.74,4.35,4.33,4.27
31.30,-1.04,-5.30,-1.03,-5.30,5.35,5.15,6.75,4.31,4.31,4.27
31.61,-1.07,-5.33,-1.06,-5.32,5.34,5.13,6.76,4.27,4.28,4.26
31.93,-1.10,-5.35,-1.09,-5.35,5.33,5.11,6.75,4.23,4.24,4.25
32.24,-1.11,-5.36,-1.11,-5.36,5.33,5.09,6.73,4.22,4.22,4.25
32.57,-1.12,-5.35,-1.12,-5.36,5.32,5.08,6.70,4.21,4.20,4.24
32.89,-1.13,-5.35,-1.11,-5.34,5.32,5.06,6.67,4.19,4.20,4.22
33.22,-1.10,-5.32,-1.09,-5.31,5.30,5.04,6.62,4.21,4.21,4.22
33.55,-1.06,-5.27,-1.06,-5.28,5.28,5.02,6.56,4.23,4.23,4.22
33.89,-1.02,-5.23,-1.02,-5.24,5.26,5.00,6.50,4.24,4.24,4.22
34.23,-1.01,-5.21,-1.01,-5.21,5.24,4.98,6.43,4.23,4.23,4.20
34.57,-1.01,-5.21,-1.00,-5.20,5.21,4.96,6.35,4.21,4.21,4.20
34.92,-1.01,-5.19,-1.00,-5.20,5.20,4.95,6.27,4.19,4.19,4.19
35.27,-1.01,-5.20,-1.01,-5.19,5.18,4.93,6.18,4.18,4.18,4.19
35.62,-1.01,-5.18,-1.01,-5.18,5.18,4.91,6.09,4.17,4.17,4.17
35.97,-1.01,-5.16,-1.01,-5.16,5.17,4.89,6.00,4.17,4.17,4.16
36.33,-1.01,-5.15,-1.01,-5.15,5.16,4.87,5.90,4.16,4.16,4.14
36.70,-1.01,-5.13,-1.01,-5.14,5.14,4.85,5.80,4.14,4.14,4.13
37.06,-1.01,-5.12,-1.01,-5.12,5.11,4.83,5.70,4.10,4.10,4.11
37.43,-1.01,-5.11,-1.01,-5.11,5.07,4.80,5.60,4.06,4.06,4.10
37.81,-1.01,-5.08,-1.00,-5.07,5.03,4.78,5.50,4.02,4.03,4.08
38.19,-0.97,-5.02,-0.95,-5.00,4.98,4.76,5.40,4.02,4.04,4.05
38.57,-0.89,-4.91,-0.89,-4.91,4.94,4.74,5.30,4.05,4.05,4.03
38.95,-0.81,-4.81,-0.84,-4.84,4.90,4.72,5.20,4.09,4.06,4.00
39.34,-0.84,-4.81,-0.84,-4.81,4.86,4.70,5.11,4.03,4.02,3.98
39.74,-0.88,-4.83,-0.86,-4.82,4.83,4.68,5.01,3.95,3.97,3.95
40.14,-0.91,-4.83,-0.90,-4.82,4.80,4.65,4.92,3.90,3.90,3.93
40.54,-0.91,-4.81,-0.91,-4.81,4.78,4.63,4.83,3.87,3.87,3.90
40.94,-0.91,-4.78,-0.91,-4.79,4.77,4.61,4.74,3.86,3.86,3.88
41.35,-0.91,-4.76,-0.91,-4.76,4.76,4.58,4.66,3.86,3.86,3.86
41.76,-0.91,-4.74,-0.91,-4.74,4.75,4.56,4.58,3.85,3.85,3.83
42.18,-0.91,-4.72,-0.90,-4.72,4.74,4.53,4.50,3.83,3.83,3.82
42.60,-0.91,-4.69,-0.90,-4.69,4.71,4.51,4.42,3.81,3.81,3.79
43.03,-0.91,-4.67,-0.92,-4.68,4.68,4.49,4.35,3.77,3.76,3.76
43.46,-0.93,-4.67,-0.93,-4.67,4.65,4.46,4.28,3.72,3.72,3.75
43.90,-0.95,-4.66,-0.92,-4.64,4.61,4.43,4.22,3.66,3.68,3.72
44.33,-0.90,-4.59,-0.89,-4.59,4.56,4.41,4.15,3.66,3.67,3.69
44.78,-0.84,-4.50,-0.85,-4.52,4.52,4.38,4.09,3.68,3.67,3.66
45.23,-0.80,-4.44,-0.81,-4.45,4.47,4.36,4.04,3.68,3.66,3.64
45.68,-0.80,-4.40,-0.79,-4.40,4.43,4.33,3.98,3.63,3.63,3.61
46.13,-0.80,-4.36,-0.79,-4.36,4.38,4.30,3.93,3.58,3.59,3.57
46.60,-0.80,-4.33,-0.80,-4.33,4.33,4.27,3.89,3.54,3.54,3.54
47.06,-0.80,-4.30,-0.80,-4.30,4.29,4.24,3.84,3.49,3.49,3.51
47.53,-0.80,-4.27,-0.80,-4.26,4.25,4.21,3.80,3.46,3.46,3.48
48.01,-0.80,-4.21,-0.80,-4.22,4.22,4.18,3.76,3.43,3.43,3.42
48.49,-0.80,-4.18,-0.80,-4.18,4.19,4.15,3.72,3.39,3.39,3.39
48.97,-0.80,-4.14,-0.80,-4.14,4.15,4.12,3.69,3.35,3.35,3.35
49.46,-0.80,-4.10,-0.80,-4.10,4.10,4.09,3.66,3.30,3.30,3.30
49.96,-0.80,-4.05,-0.80,-4.07,4.04,4.06,3.63,3.25,3.24,3.25
50.46,-0.80,-4.03,-0.80,-4.03,3.99,4.03,3.60,3.19,3.19,3.23
50.96,-0.80,-3.99,-0.76,-3.95,3.93,3.99,3.58,3.14,3.18,3.20
51.47,-0.71,-3.87,-0.70,-3.87,3.88,3.96,3.56,3.18,3.18,3.16
51.99,-0.62,-3.74,-0.67,-3.79,3.83,3.93,3.54,3.21,3.16,3.12
52.51,-0.66,-3.74,-0.65,-3.74,3.78,3.89,3.52,3.12,3.13,3.09
53.03,-0.70,-3.75,-0.67,-3.72,3.73,3.85,3.50,3.03,3.06,3.05
53.56,-0.70,-3.70,-0.70,-3.71,3.68,3.82,3.48,2.99,2.99,3.01
54.10,-0.70,-3.66,-0.70,-3.66,3.64,3.78,3.46,2.95,2.94,2.96
54.64,-0.70,-3.62,-0.70,-3.62,3.61,3.74,3.45,2.91,2.91,2.93
55.18,-0.70,-3.57,-0.70,-3.58,3.58,3.70,3.43,2.88,2.88,2.88
55.74,-0.70,-3.54,-0.70,-3.54,3.55,3.66,3.41,2.85,2.85,2.84
56.29,-0.70,-3.51,-0.70,-3.51,3.51,3.62,3.40,2.82,2.82,2.82
56.86,-0.70,-3.48,-0.70,-3.47,3.48,3.58,3.38,2.78,2.78,2.79
57.42,-0.70,-3.42,-0.70,-3.44,3.44,3.54,3.36,2.75,2.75,2.73
58.00,-0.70,-3.40,-0.70,-3.41,3.41,3.49,3.34,2.72,2.72,2.71
58.58,-0.70,-3.38,-0.70,-3.38,3.38,3.45,3.32,2.69,2.69,2.69
59.16,-0.70,-3.35,-0.70,-3.35,3.35,3.40,3.30,2.65,2.65,2.66
59.76,-0.70,-3.32,-0.70,-3.32,3.31,3.36,3.28,2.61,2.61,2.63
60.35,-0.70,-3.27,-0.70,-3.28,3.27,3.31,3.25,2.57,2.57,2.58
60.96,-0.70,-3.24,-0.70,-3.23,3.23,3.26,3.22,2.53,2.53,2.54
61.57,-0.70,-3.19,-0.70,-3.18,3.19,3.21,3.19,2.49,2.49,2.49
62.18,-0.70,-3.13,-0.69,-3.13,3.15,3.16,3.16,2.45,2.46,2.44
62.80,-0.70,-3.08,-0.69,-3.07,3.10,3.11,3.13,2.41,2.41,2.38
63.43,-0.70,-3.03,-0.71,-3.04,3.05,3.06,3.09,2.35,2.34,2.34
64.07,-0.71,-3.00,-0.73,-3.02,2.99,3.01,3.05,2.29,2.26,2.29
64.71,-0.77,-3.02,-0.73,-2.98,2.94,2.96,3.01,2.17,2.21,2.25
65.35,-0.72,-2.93,-0.69,-2.90,2.88,2.90,2.97,2.15,2.18,2.21
66.01,-0.60,-2.76,-0.65,-2.81,2.82,2.85,2.92,2.22,2.17,2.17
66.67,-0.60,-2.73,-0.60,-2.72,2.76,2.80,2.88,2.16,2.16,2.13
67.33,-0.60,-2.67,-0.58,-2.66,2.70,2.75,2.83,2.10,2.11,2.07
68.01,-0.60,-2.63,-0.60,-2.63,2.64,2.69,2.77,2.04,2.04,2.03
68.69,-0.60,-2.58,-0.60,-2.58,2.58,2.64,2.72,1.98,1.98,1.99
69.37,-0.60,-2.54,-0.60,-2.54,2.53,2.59,2.67,1.93,1.93,1.95
70.07,-0.60,-2.49,-0.60,-2.49,2.48,2.53,2.61,1.89,1.89,1.89
70.77,-0.60,-2.45,-0.60,-2.45,2.44,2.48,2.55,1.84,1.84,1.85
71.48,-0.60,-2.40,-0.60,-2.40,2.40,2.43,2.50,1.80,1.80,1.81
72.19,-0.60,-2.36,-0.60,-2.35,2.35,2.38,2.44,1.76,1.76,1.76
72.91,-0.60,-2.30,-0.60,-2.30,2.31,2.33,2.38,1.71,1.71,1.70
73.64,-0.60,-2.25,-0.60,-2.25,2.26,2.28,2.32,1.67,1.67,1.66
74.38,-0.60,-2.21,-0.60,-2.21,2.22,2.23,2.26,1.62,1.62,1.62
75.12,-0.60,-2.18,-0.60,-2.18,2.18,2.19,2.20,1.58,1.58,1.58
75.87,-0.60,-2.15,-0.60,-2.14,2.14,2.14,2.14,1.54,1.54,1.55
76.63,-0.60,-2.10,-0.60,-2.10,2.10,2.10,2.08,1.51,1.51,1.50
77.40,-0.60,-2.07,-0.60,-2.06,2.07,2.05,2.02,1.48,1.48,1.47
78.17,-0.60,-2.02,-0.60,-2.03,2.04,2.01,1.96,1.45,1.45,1.43
78.95,-0.60,-2.00,-0.60,-2.00,2.00,1.96,1.91,1.41,1.41,1.41
79.74,-0.60,-1.97,-0.60,-1.97,1.96,1.92,1.85,1.36,1.36,1.37
80.54,-0.60,-1.93,-0.60,-1.94,1.91,1.88,1.79,1.31,1.31,1.34
81.35,-0.60,-1.90,-0.59,-1.90,1.86,1.84,1.74,1.26,1.27,1.30
82.16,-0.58,-1.85,-0.55,-1.82,1.81,1.80,1.68,1.23,1.26,1.28
82.98,-0.50,-1.73,-0.50,-1.73,1.75,1.76,1.63,1.26,1.26,1.23
83.81,-0.43,-1.62,-0.47,-1.66,1.70,1.72,1.57,1.28,1.24,1.19
84.65,-0.47,-1.62,-0.46,-1.61,1.65,1.68,1.52,1.19,1.19,1.16
85.50,-0.50,-1.61,-0.48,-1.60,1.60,1.64,1.47,1.11,1.13,1.12
86.35,-0.50,-1.57,-0.50,-1.58,1.56,1.60,1.42,1.06,1.06,1.08
87.22,-0.50,-1.53,-0.50,-1.54,1.52,1.55,1.37,1.02,1.02,1.04
88.09,-0.50,-1.49,-0.50,-1.49,1.48,1.51,1.32,0.99,0.99,1.00
88.97,-0.50,-1.45,-0.50,-1.45,1.45,1.47,1.27,0.95,0.95,0.96
89.86,-0.50,-1.41,-0.50,-1.41,1.41,1.43,1.23,0.92,0.92,0.92
90.76,-0.50,-1.37,-0.50,-1.37,1.37,1.39,1.18,0.87,0.87,0.87
91.66,-0.50,-1.32,-0.50,-1.32,1.32,1.34,1.14,0.83,0.83,0.82
92.58,-0.50,-1.27,-0.50,-1.28,1.27,1.30,1.09,0.78,0.78,0.78
93.51,-0.50,-1.23,-0.50,-1.23,1.23,1.25,1.05,0.73,0.73,0.73
94.44,-0.50,-1.19,-0.49,-1.18,1.18,1.21,1.01,0.68,0.68,0.69
95.39,-0.50,-1.13,-0.50,-1.13,1.13,1.16,0.97,0.63,0.63,0.64
96.34,-0.50,-1.08,-0.50,-1.08,1.08,1.12,0.93,0.59,0.58,0.58
97.30,-0.51,-1.03,-0.50,-1.03,1.03,1.07,0.89,0.53,0.53,0.53
98.28,-0.52,-0.99,-0.51,-0.98,0.99,1.03,0.85,0.47,0.47,0.47
99.26,-0.53,-0.93,-0.53,-0.94,0.94,0.98,0.81,0.42,0.41,0.41
100.25,-0.55,-0.90,-0.55,-0.90,0.90,0.94,0.77,0.35,0.35,0.35
101.25,-0.57,-0.87,-0.56,-0.86,0.86,0.89,0.74,0.29,0.30,0.30
102.27,-0.58,-0.82,-0.58,-0.82,0.82,0.84,0.70,0.24,0.24,0.25
103.29,-0.59,-0.78,-0.59,-0.78,0.78,0.80,0.66,0.20,0.19,0.19
104.32,-0.61,-0.75,-0.61,-0.75,0.75,0.75,0.63,0.14,0.14,0.15
105.37,-0.63,-0.70,-0.63,-0.71,0.72,0.70,0.59,0.09,0.09,0.08
106.42,-0.66,-0.69,-0.65,-0.68,0.68,0.66,0.56,0.03,0.03,0.03
107.48,-0.68,-0.64,-0.68,-0.65,0.65,0.61,0.53,-0.02,-0.03,-0.03
108.56,-0.71,-0.63,-0.70,-0.62,0.62,0.57,0.50,-0.09,-0.08,-0.08
109.64,-0.73,-0.59,-0.73,-0.59,0.59,0.52,0.46,-0.14,-0.14,-0.14
110.74,-0.75,-0.55,-0.74,-0.56,0.55,0.48,0.43,-0.19,-0.19,-0.19
111.85,-0.76,-0.52,-0.76,-0.52,0.52,0.43,0.40,-0.24,-0.24,-0.24
112.97,-0.77,-0.48,-0.77,-0.48,0.48,0.39,0.37,-0.29,-0.29,-0.28
114.10,-0.78,-0.45,-0.77,-0.44,0.43,0.35,0.34,-0.34,-0.34,-0.33
115.24,-0.78,-0.38,-0.78,-0.39,0.39,0.31,0.31,-0.39,-0.39,-0.39
116.39,-0.78,-0.34,-0.78,-0.34,0.34,0.26,0.28,-0.43,-0.44,-0.44
117.55,-0.78,-0.29,-0.77,-0.29,0.29,0.22,0.25,-0.48,-0.48,-0.48
118.73,-0.77,-0.24,-0.77,-0.24,0.25,0.18,0.22,-0.52,-0.52,-0.53
119.92,-0.76,-0.19,-0.76,-0.20,0.20,0.14,0.19,-0.55,-0.56,-0.57
121.12,-0.76,-0.16,-0.75,-0.15,0.16,0.11,0.16,-0.60,-0.60,-0.59
122.33,-0.75,-0.11,-0.74,-0.11,0.11,0.07,0.13,-0.63,-0.63,-0.63
123.55,-0.74,-0.07,-0.74,-0.07,0.07,0.03,0.10,-0.67,-0.67,-0.67
124.79,-0.73,-0.03,-0.73,-0.03,0.03,-0.01,0.07,-0.70,-0.70,-0.70
126.03,-0.73,0.01,-0.72,0.02,-0.02,-0.04,0.04,-0.74,-0.74,-0.74
127.29,-0.72,0.06,-0.72,0.06,-0.06,-0.08,0.02,-0.77,-0.77,-0.78
128.57,-0.71,0.11,-0.71,0.10,-0.10,-0.12,-0.01,-0.81,-0.81,-0.82
129.85,-0.71,0.14,-0.70,0.15,-0.15,-0.15,-0.04,-0.85,-0.85,-0.85
131.15,-0.70,0.19,-0.70,0.19,-0.19,-0.19,-0.07,-0.88,-0.89,-0.88
132.46,-0.70,0.23,-0.69,0.23,-0.23,-0.22,-0.10,-0.93,-0.92,-0.92
133.79,-0.69,0.28,-0.69,0.28,-0.27,-0.26,-0.13,-0.96,-0.96,-0.97
135.12,-0.69,0.32,-0.69,0.32,-0.32,-0.29,-0.16,-1.00,-1.00,-1.00
136.48,-0.69,0.35,-0.68,0.36,-0.36,-0.33,-0.19,-1.04,-1.04,-1.04
137.84,-0.68,0.40,-0.68,0.40,-0.40,-0.36,-0.22,-1.07,-1.08,-1.07
139.22,-0.68,0.45,-0.68,0.44,-0.44,-0.40,-0.25,-1.11,-1.11,-1.13
140.61,-0.68,0.47,-0.67,0.48,-0.48,-0.44,-0.28,-1.15,-1.15,-1.15
142.02,-0.68,0.52,-0.68,0.52,-0.52,-0.47,-0.31,-1.19,-1.19,-1.19
143.44,-0.68,0.56,-0.68,0.55,-0.55,-0.51,-0.34,-1.23,-1.23,-1.23
144.87,-0.68,0.59,-0.68,0.59,-0.59,-0.55,-0.37,-1.27,-1.27,-1.26
146.32,-0.68,0.63,-0.68,0.63,-0.63,-0.59,-0.40,-1.31,-1.31,-1.30
147.78,-0.68,0.67,-0.68,0.67,-0.67,-0.63,-0.43,-1.34,-1.34,-1.34
149.26,-0.68,0.70,-0.68,0.71,-0.70,-0.68,-0.46,-1.38,-1.38,-1.38
150.75,-0.68,0.75,-0.68,0.75,-0.74,-0.72,-0.50,-1.42,-1.42,-1.43
152.26,-0.68,0.78,-0.68,0.78,-0.78,-0.76,-0.53,-1.45,-1.45,-1.45
153.78,-0.68,0.82,-0.68,0.82,-0.82,-0.81,-0.56,-1.49,-1.49,-1.50
155.32,-0.68,0.85,-0.68,0.85,-0.86,-0.85,-0.60,-1.53,-1.53,-1.52
156.88,-0.68,0.89,-0.68,0.89,-0.90,-0.90,-0.63,-1.57,-1.57,-1.57
158.44,-0.68,0.93,-0.68,0.93,-0.94,-0.95,-0.67,-1.61,-1.61,-1.61
160.03,-0.68,0.98,-0.67,0.98,-0.98,-0.99,-0.71,-1.65,-1.65,-1.65
161.63,-0.68,1.02,-0.68,1.02,-1.02,-1.04,-0.74,-1.69,-1.69,-1.69
163.24,-0.68,1.07,-0.68,1.06,-1.06,-1.09,-0.78,-1.74,-1.74,-1.74
164.88,-0.69,1.10,-0.68,1.10,-1.10,-1.13,-0.82,-1.79,-1.78,-1.78
166.53,-0.69,1.15,-0.69,1.14,-1.14,-1.18,-0.86,-1.83,-1.83,-1.83
168.19,-0.70,1.18,-0.69,1.18,-1.18,-1.23,-0.90,-1.88,-1.87,-1.87
169.87,-0.70,1.22,-0.70,1.22,-1.22,-1.27,-0.94,-1.91,-1.92,-1.92
171.57,-0.71,1.26,-0.71,1.26,-1.26,-1.32,-0.98,-1.96,-1.96,-1.97
173.29,-0.72,1.29,-0.71,1.29,-1.29,-1.36,-1.03,-2.01,-2.01,-2.00
175.02,-0.72,1.33,-0.72,1.33,-1.33,-1.40,-1.07,-2.05,-2.05,-2.05
176.77,-0.72,1.38,-0.72,1.37,-1.37,-1.45,-1.12,-2.09,-2.09,-2.09
178.54,-0.72,1.41,-0.72,1.41,-1.41,-1.49,-1.16,-2.13,-2.13,-2.13
180.32,-0.72,1.45,-0.72,1.45,-1.46,-1.53,-1.21,-2.17,-2.17,-2.17
182.13,-0.72,1.50,-0.71,1.50,-1.50,-1.57,-1.26,-2.22,-2.21,-2.21
183.95,-0.71,1.54,-0.70,1.54,-1.54,-1.60,-1.31,-2.25,-2.25,-2.24
185.79,-0.69,1.60,-0.69,1.60,-1.59,-1.64,-1.36,-2.27,-2.28,-2.29
187.65,-0.68,1.64,-0.67,1.65,-1.64,-1.68,-1.41,-2.32,-2.31,-2.32
189.52,-0.66,1.70,-0.66,1.69,-1.70,-1.71,-1.46,-2.35,-2.35,-2.36
191.42,-0.65,1.73,-0.65,1.74,-1.75,-1.75,-1.51,-2.40,-2.40,-2.38
193.33,-0.64,1.78,-0.64,1.78,-1.81,-1.78,-1.56,-2.45,-2.45,-2.41
195.27,-0.62,1.84,-0.61,1.84,-1.86,-1.81,-1.62,-2.47,-2.47,-2.45
197.22,-0.60,1.90,-0.57,1.92,-1.89,-1.84,-1.67,-2.49,-2.46,-2.49
199.19,-0.53,1.99,-0.54,1.98,-1.93,-1.87,-1.72,-2.45,-2.47,-2.52
201.18,-0.51,2.05,-0.55,2.00,-1.95,-1.90,-1.78,-2.46,-2.50,-2.55
203.19,-0.62,1.97,-0.59,1.99,-1.97,-1.93,-1.83,-2.59,-2.57,-2.58
205.23,-0.68,1.93,-0.65,1.96,-1.99,-1.96,-1.89,-2.66,-2.64,-2.61
207.28,-0.68,1.96,-0.68,1.95,-2.00,-1.98,-1.94,-2.68,-2.68,-2.63
209.35,-0.68,2.00,-0.68,1.99,-2.01,-2.01,-2.00,-2.69,-2.70,-2.68
211.44,-0.69,2.01,-0.68,2.02,-2.02,-2.03,-2.05,-2.71,-2.70,-2.70
213.56,-0.69,2.05,-0.69,2.04,-2.04,-2.06,-2.10,-2.72,-2.72,-2.73
215.69,-0.69,2.07,-0.69,2.07,-2.06,-2.08,-2.16,-2.75,-2.75,-2.76
217.85,-0.70,2.08,-0.69,2.10,-2.09,-2.10,-2.21,-2.78,-2.78,-2.78
220.03,-0.70,2.13,-0.70,2.12,-2.12,-2.12,-2.26,-2.81,-2.81,-2.82
222.23,-0.70,2.15,-0.70,2.14,-2.14,-2.14,-2.30,-2.84,-2.84,-2.84
224.45,-0.71,2.16,-0.70,2.17,-2.17,-2.16,-2.35,-2.87,-2.87,-2.87
226.70,-0.70,2.19,-0.70,2.19,-2.19,-2.18,-2.39,-2.88,-2.89,-2.89
228.96,-0.70,2.20,-0.69,2.21,-2.21,-2.20,-2.44,-2.91,-2.90,-2.90
231.25,-0.69,2.23,-0.69,2.23,-2.24,-2.21,-2.47,-2.92,-2.92,-2.92
233.57,-0.68,2.25,-0.68,2.26,-2.26,-2.23,-2.51,-2.94,-2.94,-2.93
235.90,-0.67,2.28,-0.66,2.28,-2.29,-2.24,-2.54,-2.95,-2.95,-2.95
238.26,-0.65,2.31,-0.65,2.30,-2.30,-2.26,-2.57,-2.95,-2.95,-2.96
240.64,-0.64,2.31,-0.64,2.32,-2.31,-2.27,-2.60,-2.95,-2.95,-2.95
243.05,-0.63,2.33,-0.62,2.34,-2.32,-2.29,-2.62,-2.94,-2.93,-2.95
245.48,-0.61,2.35,-0.59,2.36,-2.32,-2.30,-2.64,-2.93,-2.91,-2.95
247.93,-0.58,2.39,-0.61,2.34,-2.32,-2.31,-2.65,-2.90,-2.93,-2.96
250.41,-0.62,2.33,-0.64,2.31,-2.32,-2.33,-2.66,-2.94,-2.96,-2.95
252.92,-0.74,2.21,-0.67,2.29,-2.33,-2.34,-2.67,-3.06,-2.99,-2.95
255.45,-0.67,2.30,-0.67,2.28,-2.34,-2.35,-2.67,-3.00,-3.01,-2.96
258.00,-0.63,2.35,-0.65,2.32,-2.35,-2.36,-2.67,-2.97,-3.00,-2.97
260.58,-0.62,2.36,-0.62,2.36,-2.36,-2.37,-2.66,-2.97,-2.98,-2.98
263.19,-0.61,2.38,-0.60,2.38,-2.37,-2.37,-2.66,-2.97,-2.97,-2.98
265.82,-0.62,2.38,-0.58,2.42,-2.37,-2.38,-2.64,-2.99,-2.95,-2.99
268.48,-0.54,2.47,-0.58,2.42,-2.38,-2.39,-2.63,-2.91,-2.96,-3.01
271.16,-0.59,2.44,-0.62,2.40,-2.38,-2.39,-2.61,-2.96,-3.00,-3.02
273.87,-0.72,2.31,-0.67,2.37,-2.37,-2.40,-2.59,-3.09,-3.04,-3.03
276.61,-0.73,2.32,-0.72,2.32,-2.36,-2.40,-2.57,-3.09,-3.08,-3.04
279.38,-0.73,2.33,-0.74,2.31,-2.35,-2.41,-2.54,-3.08,-3.09,-3.06
282.17,-0.73,2.33,-0.72,2.33,-2.34,-2.41,-2.51,-3.07,-3.07,-3.05
284.99,-0.72,2.34,-0.72,2.34,-2.34,-2.41,-2.49,-3.06,-3.06,-3.06
287.84,-0.71,2.35,-0.71,2.35,-2.35,-2.41,-2.46,-3.05,-3.05,-3.05
290.72,-0.70,2.37,-0.70,2.37,-2.36,-2.41,-2.42,-3.05,-3.06,-3.07
293.63,-0.69,2.39,-0.68,2.38,-2.37,-2.41,-2.39,-3.06,-3.06,-3.07
296.57,-0.68,2.39,-0.67,2.40,-2.39,-2.41,-2.36,-3.07,-3.06,-3.07
299.53,-0.66,2.41,-0.66,2.41,-2.41,-2.41,-2.33,-3.07,-3.07,-3.06
302.53,-0.65,2.42,-0.65,2.42,-2.43,-2.41,-2.29,-3.07,-3.07,-3.06
305.55,-0.64,2.43,-0.64,2.43,-2.44,-2.40,-2.26,-3.08,-3.08,-3.07
308.61,-0.63,2.44,-0.63,2.44,-2.45,-2.40,-2.23,-3.08,-3.08,-3.06
311.69,-0.63,2.44,-0.60,2.46,-2.46,-2.39,-2.20,-3.08,-3.06,-3.07
314.81,-0.59,2.48,-0.58,2.49,-2.45,-2.39,-2.16,-3.04,-3.03,-3.07
317.96,-0.55,2.53,-0.59,2.48,-2.44,-2.38,-2.13,-2.99,-3.03,-3.07
321.14,-0.63,2.45,-0.62,2.45,-2.43,-2.37,-2.10,-3.06,-3.05,-3.08
324.35,-0.71,2.37,-0.67,2.40,-2.41,-2.36,-2.07,-3.12,-3.09,-3.08
327.59,-0.72,2.36,-0.72,2.36,-2.40,-2.35,-2.05,-3.11,-3.11,-3.07
330.87,-0.72,2.36,-0.73,2.35,-2.38,-2.34,-2.02,-3.10,-3.11,-3.07
334.18,-0.73,2.36,-0.72,2.36,-2.37,-2.33,-1.99,-3.09,-3.09,-3.09
337.52,-0.73,2.35,-0.72,2.35,-2.36,-2.32,-1.97,-3.08,-3.08,-3.08
340.90,-0.73,2.35,-0.73,2.34,-2.35,-2.31,-1.95,-3.08,-3.08,-3.07
344.30,-0.73,2.34,-0.72,2.35,-2.35,-2.29,-1.93,-3.08,-3.07,-3.06
347.75,-0.73,2.34,-0.70,2.36,-2.35,-2.28,-1.90,-3.07,-3.05,-3.07
351.23,-0.69,2.38,-0.70,2.36,-2.33,-2.27,-1.89,-3.02,-3.03,-3.07
354.74,-0.70,2.36,-0.73,2.33,-2.31,-2.25,-1.87,-3.00,-3.03,-3.05
358.28,-0.79,2.27,-0.76,2.30,-2.27,-2.24,-1.85,-3.06,-3.03,-3.05
361.87,-0.82,2.23,-0.80,2.25,-2.24,-2.22,-1.84,-3.06,-3.04,-3.05
365.49,-0.81,2.23,-0.84,2.20,-2.21,-2.21,-1.83,-3.01,-3.05,-3.04
369.14,-0.87,2.16,-0.87,2.16,-2.18,-2.19,-1.82,-3.05,-3.05,-3.03
372.83,-0.94,2.09,-0.90,2.13,-2.16,-2.18,-1.81,-3.09,-3.06,-3.02
376.56,-0.92,2.12,-0.91,2.11,-2.15,-2.16,-1.80,-3.06,-3.06,-3.03
380.33,-0.89,2.14,-0.90,2.13,-2.15,-2.15,-1.79,-3.03,-3.04,-3.02
384.13,-0.87,2.16,-0.88,2.15,-2.15,-2.13,-1.79,-3.01,-3.02,-3.03
387.97,-0.87,2.15,-0.85,2.17,-2.15,-2.12,-1.78,-3.01,-3.00,-3.02
391.85,-0.86,2.16,-0.84,2.19,-2.15,-2.10,-1.78,-3.00,-2.98,-3.02
395.77,-0.82,2.22,-0.85,2.18,-2.14,-2.08,-1.78,-2.96,-2.99,-3.03
399.73,-0.88,2.17,-0.88,2.15,-2.14,-2.07,-1.78,-3.02,-3.02,-3.04
403.72,-0.95,2.09,-0.92,2.12,-2.14,-2.05,-1.78,-3.08,-3.06,-3.03
407.76,-0.97,2.08,-0.96,2.08,-2.13,-2.03,-1.78,-3.09,-3.09,-3.05
411.84,-0.97,2.09,-0.98,2.08,-2.11,-2.02,-1.78,-3.08,-3.09,-3.06
415.96,-0.98,2.08,-0.97,2.09,-2.09,-2.00,-1.78,-3.07,-3.06,-3.06
420.12,-0.97,2.10,-0.96,2.11,-2.08,-1.98,-1.78,-3.04,-3.03,-3.07
424.32,-0.95,2.11,-0.96,2.10,-2.07,-1.97,-1.79,-3.01,-3.02,-3.06
428.56,-0.95,2.10,-0.97,2.07,-2.06,-1.95,-1.79,-3.00,-3.03,-3.04
432.85,-1.02,2.01,-0.99,2.03,-2.05,-1.93,-1.79,-3.06,-3.04,-3.02
437.18,-1.02,1.99,-1.00,2.00,-2.04,-1.92,-1.80,-3.05,-3.04,-3.00
441.55,-0.98,2.00,-0.98,1.99,-2.02,-1.90,-1.80,-2.99,-3.00,-2.97
445.96,-0.94,2.00,-0.93,2.00,-1.99,-1.88,-1.80,-2.92,-2.92,-2.93
450.42,-0.89,2.00,-0.89,2.00,-1.96,-1.86,-1.80,-2.84,-2.85,-2.89
454.93,-0.87,1.97,-0.87,1.97,-1.93,-1.85,-1.81,-2.80,-2.80,-2.84
459.48,-0.86,1.93,-0.87,1.91,-1.91,-1.83,-1.81,-2.76,-2.77,-2.79
464.07,-0.88,1.84,-0.86,1.86,-1.89,-1.81,-1.81,-2.76,-2.75,-2.72
468.71,-0.85,1.81,-0.84,1.83,-1.87,-1.80,-1.81,-2.71,-2.70,-2.66
