frequency,raw,error,smoothed,error_smoothed,equalization,parametric_eq,fixed_band_eq,equalized_raw,equalized_smoothed,target
20.00,-1.76,-4.81,-1.76,-4.80,4.80,4.51,0.97,3.04,3.04,3.05
20.20,-1.68,-4.71,-1.68,-4.71,4.71,4.46,1.00,3.03,3.03,3.03
20.40,-1.60,-4.61,-1.60,-4.62,4.62,4.41,1.03,3.02,3.02,3.02
20.61,-1.53,-4.55,-1.52,-4.53,4.53,4.36,1.07,3.00,3.01,3.02
20.81,-1.45,-4.44,-1.45,-4.45,4.45,4.30,1.11,3.00,3.00,3.00
21.02,-1.37,-4.35,-1.37,-4.36,4.36,4.25,1.14,2.99,2.99,2.99
21.23,-1.30,-4.27,-1.30,-4.28,4.28,4.20,1.18,2.98,2.98,2.97
21.44,-1.22,-4.20,-1.22,-4.20,4.20,4.14,1.22,2.98,2.97,2.98
21.66,-1.15,-4.12,-1.15,-4.12,4.11,4.09,1.26,2.96,2.97,2.97
21.87,-1.07,-4.03,-1.07,-4.04,4.04,4.03,1.31,2.97,2.97,2.96
22.09,-1.00,-3.95,-1.00,-3.95,3.96,3.97,1.35,2.96,2.96,2.95
22.31,-0.92,-3.87,-0.93,-3.88,3.88,3.91,1.39,2.96,2.95,2.95
22.54,-0.86,-3.80,-0.86,-3.80,3.80,3.85,1.44,2.94,2.95,2.94
22.76,-0.79,-3.74,-0.78,-3.73,3.73,3.79,1.49,2.94,2.94,2.95
22.99,-0.71,-3.65,-0.71,-3.65,3.65,3.73,1.54,2.94,2.94,2.94
23.22,-0.64,-3.57,-0.64,-3.57,3.58,3.67,1.59,2.94,2.94,2.93
23.45,-0.57,-3.50,-0.57,-3.50,3.50,3.60,1.64,2.93,2.93,2.93
23.69,-0.50,-3.43,-0.50,-3.43,3.43,3.54,1.69,2.93,2.93,2.93
23.92,-0.43,-3.36,-0.43,-3.35,3.36,3.47,1.74,2.93,2.93,2.93
24.16,-0.35,-3.28,-0.35,-3.28,3.28,3.41,1.79,2.93,2.93,2.93
24.40,-0.28,-3.22,-0.28,-3.21,3.21,3.34,1.85,2.93,2.93,2.94
24.65,-0.21,-3.15,-0.21,-3.14,3.14,3.28,1.90,2.93,2.93,2.94
24.89,-0.14,-3.06,-0.14,-3.07,3.07,3.21,1.96,2.93,2.93,2.93
25.14,-0.08,-2.99,-0.08,-2.99,3.00,3.14,2.01,2.92,2.92,2.92
25.39,-0.01,-2.92,-0.01,-2.92,2.93,3.07,2.07,2.92,2.91,2.91
25.65,0.05,-2.85,0.05,-2.85,2.86,3.01,2.12,2.91,2.91,2.90
25.91,0.12,-2.78,0.12,-2.79,2.79,2.94,2.18,2.90,2.91,2.90
26.16,0.19,-2.72,0.19,-2.72,2.72,2.87,2.23,2.91,2.90,2.91
26.43,0.25,-2.65,0.25,-2.65,2.65,2.80,2.29,2.90,2.90,2.90
26.69,0.32,-2.58,0.32,-2.58,2.58,2.73,2.34,2.90,2.90,2.90
26.96,0.39,-2.51,0.39,-2.51,2.51,2.66,2.39,2.90,2.89,2.90
27.23,0.46,-2.43,0.46,-2.44,2.44,2.59,2.44,2.90,2.89,2.89
27.50,0.52,-2.37,0.53,-2.37,2.37,2.51,2.48,2.89,2.89,2.89
27.77,0.59,-2.30,0.59,-2.30,2.30,2.44,2.52,2.89,2.89,2.90
28.05,0.67,-2.22,0.66,-2.23,2.23,2.37,2.56,2.90,2.89,2.89
28.33,0.73,-2.16,0.73,-2.16,2.16,2.30,2.60,2.89,2.89,2.89
28.62,0.80,-2.09,0.80,-2.10,2.09,2.23,2.63,2.89,2.89,2.89
28.90,0.86,-2.04,0.87,-2.03,2.03,2.15,2.66,2.89,2.90,2.90
29.19,0.94,-1.96,0.94,-1.96,1.96,2.08,2.68,2.90,2.90,2.90
29.48,1.01,-1.89,1.01,-1.89,1.90,2.01,2.70,2.91,2.91,2.90
29.78,1.07,-1.83,1.07,-1.83,1.83,1.93,2.72,2.90,2.91,2.90
30.08,1.14,-1.77,1.13,-1.77,1.77,1.86,2.72,2.91,2.90,2.91
30.38,1.19,-1.71,1.20,-1.71,1.70,1.79,2.72,2.89,2.90,2.90
30.68,1.26,-1.64,1.26,-1.64,1.64,1.71,2.72,2.90,2.90,2.90
30.99,1.33,-1.57,1.33,-1.57,1.57,1.64,2.71,2.90,2.90,2.90
31.30,1.40,-1.50,1.39,-1.50,1.50,1.57,2.69,2.90,2.90,2.90
31.61,1.45,-1.44,1.45,-1.44,1.44,1.49,2.66,2.89,2.89,2.90
31.93,1.51,-1.37,1.52,-1.37,1.37,1.42,2.63,2.88,2.88,2.88
32.24,1.58,-1.30,1.58,-1.30,1.30,1.34,2.59,2.88,2.88,2.88
32.57,1.65,-1.22,1.65,-1.22,1.23,1.27,2.55,2.88,2.88,2.87
32.89,1.71,-1.16,1.71,-1.16,1.16,1.20,2.50,2.87,2.87,2.87
33.22,1.77,-1.09,1.77,-1.10,1.10,1.12,2.44,2.87,2.86,2.86
33.55,1.82,-1.04,1.82,-1.03,1.03,1.05,2.38,2.85,2.85,2.86
33.89,1.88,-0.97,1.88,-0.97,0.96,0.97,2.31,2.84,2.85,2.85
34.23,1.94,-0.90,1.94,-0.90,0.90,0.90,2.24,2.84,2.84,2.84
34.57,2.00,-0.83,2.00,-0.83,0.83,0.82,2.16,2.84,2.84,2.83
34.92,2.06,-0.76,2.06,-0.77,0.77,0.75,2.08,2.83,2.83,2.82
35.27,2.11,-0.72,2.11,-0.70,0.70,0.67,2.00,2.81,2.82,2.83
35.62,2.16,-0.63,2.17,-0.64,0.64,0.60,1.91,2.80,2.80,2.79
35.97,2.22,-0.57,2.22,-0.57,0.57,0.52,1.81,2.79,2.79,2.79
36.33,2.27,-0.51,2.27,-0.50,0.51,0.45,1.72,2.78,2.78,2.78
36.70,2.32,-0.44,2.33,-0.44,0.44,0.38,1.62,2.76,2.77,2.76
37.06,2.38,-0.37,2.38,-0.37,0.38,0.30,1.52,2.76,2.75,2.75
37.43,2.43,-0.31,2.43,-0.31,0.31,0.23,1.41,2.74,2.74,2.74
37.81,2.48,-0.24,2.48,-0.24,0.24,0.15,1.31,2.72,2.72,2.72
38.19,2.53,-0.17,2.53,-0.17,0.17,0.08,1.20,2.70,2.70,2.70
38.57,2.58,-0.10,2.58,-0.10,0.09,0.00,1.09,2.67,2.68,2.68
38.95,2.64,-0.02,2.64,-0.02,0.02,-0.07,0.98,2.66,2.66,2.66
39.34,2.69,0.06,2.69,0.06,-0.05,-0.14,0.87,2.64,2.64,2.64
39.74,2.75,0.13,2.75,0.14,-0.13,-0.22,0.76,2.62,2.63,2.62
40.14,2.81,0.21,2.81,0.21,-0.20,-0.29,0.65,2.61,2.61,2.60
40.54,2.86,0.28,2.86,0.28,-0.27,-0.36,0.54,2.59,2.58,2.58
40.94,2.90,0.35,2.90,0.35,-0.35,-0.44,0.42,2.55,2.55,2.55
41.35,2.95,0.41,2.95,0.41,-0.42,-0.51,0.31,2.53,2.53,2.54
41.76,3.01,0.49,3.01,0.49,-0.50,-0.58,0.20,2.51,2.51,2.52
42.18,3.07,0.56,3.07,0.57,-0.57,-0.66,0.08,2.50,2.50,2.51
42.60,3.13,0.65,3.13,0.65,-0.64,-0.73,-0.03,2.49,2.49,2.48
43.03,3.19,0.74,3.19,0.73,-0.72,-0.80,-0.15,2.48,2.47,2.45
43.46,3.23,0.79,3.23,0.80,-0.79,-0.88,-0.26,2.44,2.44,2.44
43.90,3.27,0.86,3.27,0.86,-0.86,-0.95,-0.38,2.41,2.41,2.41
44.33,3.31,0.92,3.32,0.93,-0.93,-1.02,-0.49,2.38,2.39,2.39
44.78,3.37,1.00,3.37,1.00,-1.00,-1.09,-0.61,2.37,2.36,2.37
45.23,3.42,1.07,3.42,1.07,-1.07,-1.17,-0.73,2.35,2.34,2.35
45.68,3.46,1.15,3.46,1.15,-1.15,-1.24,-0.84,2.31,2.31,2.31
46.13,3.50,1.23,3.50,1.23,-1.23,-1.31,-0.96,2.28,2.28,2.27
46.60,3.54,1.30,3.54,1.30,-1.31,-1.38,-1.08,2.23,2.24,2.24
47.06,3.59,1.38,3.59,1.38,-1.39,-1.46,-1.19,2.20,2.20,2.21
47.53,3.64,1.46,3.65,1.47,-1.48,-1.53,-1.31,2.17,2.17,2.18
48.01,3.71,1.58,3.71,1.57,-1.56,-1.60,-1.43,2.15,2.14,2.13
48.49,3.76,1.66,3.76,1.66,-1.65,-1.67,-1.55,2.11,2.11,2.10
48.97,3.81,1.75,3.81,1.75,-1.73,-1.74,-1.66,2.08,2.08,2.06
49.46,3.85,1.82,3.85,1.82,-1.82,-1.81,-1.78,2.03,2.03,2.03
49.96,3.89,1.91,3.89,1.90,-1.91,-1.88,-1.90,1.98,1.98,1.98
50.46,3.94,1.98,3.94,1.99,-2.00,-1.95,-2.02,1.94,1.95,1.96
50.96,4.00,2.07,4.00,2.08,-2.08,-2.02,-2.13,1.92,1.92,1.93
51.47,4.06,2.17,4.06,2.17,-2.17,-2.10,-2.25,1.89,1.89,1.89
51.99,4.12,2.26,4.12,2.26,-2.25,-2.17,-2.36,1.87,1.87,1.86
52.51,4.17,2.34,4.17,2.34,-2.34,-2.24,-2.48,1.83,1.84,1.83
53.03,4.22,2.42,4.22,2.42,-2.42,-2.31,-2.59,1.80,1.80,1.80
53.56,4.26,2.50,4.26,2.50,-2.50,-2.38,-2.70,1.76,1.76,1.76
54.10,4.30,2.58,4.30,2.57,-2.57,-2.45,-2.81,1.73,1.72,1.72
54.64,4.33,2.64,4.33,2.65,-2.65,-2.52,-2.92,1.68,1.68,1.69
55.18,4.36,2.72,4.37,2.72,-2.72,-2.58,-3.03,1.64,1.65,1.64
55.74,4.40,2.80,4.40,2.78,-2.78,-2.65,-3.13,1.62,1.61,1.61
56.29,4.43,2.84,4.43,2.85,-2.85,-2.72,-3.23,1.58,1.58,1.59
56.86,4.46,2.90,4.47,2.91,-2.91,-2.79,-3.33,1.55,1.55,1.56
57.42,4.50,2.98,4.50,2.97,-2.97,-2.86,-3.43,1.53,1.53,1.52
58.00,4.54,3.05,4.54,3.04,-3.03,-2.93,-3.52,1.51,1.51,1.49
58.58,4.57,3.09,4.57,3.10,-3.09,-3.00,-3.61,1.48,1.48,1.48
59.16,4.61,3.16,4.61,3.15,-3.15,-3.07,-3.69,1.46,1.45,1.45
59.76,4.63,3.21,4.63,3.21,-3.22,-3.13,-3.77,1.41,1.42,1.42
60.35,4.66,3.28,4.66,3.28,-3.28,-3.20,-3.84,1.38,1.37,1.38
60.96,4.68,3.34,4.68,3.35,-3.36,-3.27,-3.91,1.32,1.33,1.34
61.57,4.71,3.42,4.71,3.42,-3.43,-3.34,-3.98,1.28,1.28,1.29
62.18,4.74,3.50,4.75,3.50,-3.51,-3.40,-4.04,1.23,1.23,1.24
62.80,4.79,3.59,4.79,3.59,-3.59,-3.47,-4.10,1.20,1.20,1.20
63.43,4.83,3.68,4.83,3.68,-3.67,-3.54,-4.15,1.16,1.16,1.15
64.07,4.88,3.76,4.88,3.76,-3.75,-3.61,-4.19,1.13,1.13,1.12
64.71,4.92,3.84,4.92,3.84,-3.83,-3.67,-4.24,1.09,1.09,1.08
65.35,4.96,3.92,4.96,3.91,-3.90,-3.74,-4.27,1.06,1.06,1.04
66.01,4.98,3.98,4.98,3.97,-3.97,-3.80,-4.31,1.01,1.01,1.00
66.67,5.00,4.03,5.00,4.03,-4.04,-3.87,-4.34,0.97,0.97,0.98
67.33,5.02,4.10,5.02,4.09,-4.10,-3.94,-4.37,0.92,0.92,0.93
68.01,5.04,4.16,5.04,4.16,-4.17,-4.00,-4.39,0.87,0.88,0.89
68.69,5.07,4.23,5.07,4.23,-4.23,-4.07,-4.41,0.84,0.84,0.84
69.37,5.11,4.30,5.11,4.30,-4.30,-4.13,-4.43,0.81,0.81,0.81
70.07,5.15,4.37,5.15,4.37,-4.38,-4.20,-4.45,0.77,0.77,0.78
70.77,5.19,4.46,5.19,4.45,-4.45,-4.26,-4.46,0.74,0.73,0.74
71.48,5.22,4.53,5.22,4.53,-4.53,-4.33,-4.48,0.69,0.69,0.69
72.19,5.26,4.62,5.26,4.61,-4.60,-4.39,-4.49,0.66,0.65,0.64
72.91,5.28,4.67,5.28,4.68,-4.68,-4.46,-4.51,0.61,0.61,0.61
73.64,5.31,4.75,5.31,4.75,-4.74,-4.52,-4.52,0.57,0.57,0.56
74.38,5.34,4.82,5.34,4.81,-4.80,-4.58,-4.54,0.54,0.53,0.52
75.12,5.36,4.87,5.36,4.87,-4.86,-4.65,-4.55,0.50,0.50,0.49
75.87,5.38,4.92,5.38,4.92,-4.92,-4.71,-4.57,0.46,0.46,0.46
76.63,5.40,4.97,5.40,4.97,-4.97,-4.77,-4.59,0.43,0.43,0.43
77.40,5.42,5.02,5.42,5.02,-5.02,-4.84,-4.61,0.40,0.40,0.40
78.17,5.44,5.07,5.44,5.07,-5.07,-4.90,-4.63,0.37,0.37,0.37
78.95,5.47,5.12,5.47,5.12,-5.12,-4.96,-4.65,0.35,0.35,0.35
79.74,5.49,5.17,5.49,5.18,-5.17,-5.02,-4.68,0.32,0.32,0.32
80.54,5.52,5.23,5.52,5.23,-5.22,-5.09,-4.71,0.30,0.30,0.29
81.35,5.54,5.28,5.54,5.27,-5.28,-5.15,-4.74,0.27,0.26,0.26
82.16,5.55,5.32,5.55,5.32,-5.33,-5.21,-4.78,0.22,0.22,0.24
82.98,5.57,5.37,5.57,5.38,-5.39,-5.27,-4.81,0.19,0.19,0.20
83.81,5.60,5.44,5.60,5.44,-5.44,-5.33,-4.86,0.16,0.16,0.16
84.65,5.63,5.50,5.63,5.50,-5.50,-5.39,-4.90,0.13,0.13,0.13
85.50,5.66,5.57,5.66,5.57,-5.56,-5.45,-4.95,0.10,0.10,0.09
86.35,5.69,5.63,5.69,5.63,-5.62,-5.51,-5.00,0.07,0.07,0.06
87.22,5.71,5.68,5.71,5.68,-5.68,-5.57,-5.06,0.03,0.03,0.03
88.09,5.73,5.74,5.73,5.74,-5.74,-5.63,-5.12,-0.01,-0.01,-0.01
88.97,5.75,5.79,5.75,5.80,-5.80,-5.69,-5.18,-0.05,-0.05,-0.04
89.86,5.77,5.86,5.77,5.85,-5.85,-5.75,-5.25,-0.08,-0.08,-0.09
90.76,5.79,5.91,5.79,5.91,-5.91,-5.81,-5.32,-0.12,-0.12,-0.12
91.66,5.82,5.97,5.82,5.97,-5.97,-5.87,-5.40,-0.15,-0.15,-0.15
92.58,5.84,6.03,5.84,6.03,-6.03,-5.93,-5.47,-0.19,-0.19,-0.19
93.51,5.86,6.08,5.86,6.08,-6.09,-5.99,-5.56,-0.23,-0.23,-0.22
94.44,5.88,6.14,5.88,6.15,-6.15,-6.04,-5.64,-0.27,-0.27,-0.26
95.39,5.91,6.21,5.91,6.21,-6.22,-6.10,-5.73,-0.31,-0.31,-0.30
96.34,5.93,6.28,5.93,6.28,-6.29,-6.16,-5.83,-0.35,-0.35,-0.35
97.30,5.96,6.35,5.97,6.35,-6.35,-6.21,-5.92,-0.39,-0.39,-0.39
98.28,6.00,6.42,6.00,6.43,-6.42,-6.27,-6.02,-0.42,-0.43,-0.42
99.26,6.03,6.50,6.03,6.49,-6.49,-6.33,-6.13,-0.46,-0.46,-0.47
100.25,6.05,6.56,6.06,6.56,-6.55,-6.38,-6.23,-0.50,-0.50,-0.51
101.25,6.08,6.61,6.08,6.61,-6.61,-6.44,-6.34,-0.53,-0.53,-0.53
102.27,6.10,6.66,6.10,6.66,-6.66,-6.49,-6.45,-0.56,-0.56,-0.56
103.29,6.12,6.72,6.12,6.71,-6.71,-6.55,-6.56,-0.59,-0.59,-0.60
104.32,6.13,6.75,6.13,6.76,-6.75,-6.60,-6.68,-0.62,-0.62,-0.62
105.37,6.14,6.80,6.14,6.80,-6.79,-6.66,-6.79,-0.65,-0.65,-0.66
106.42,6.14,6.83,6.14,6.83,-6.82,-6.71,-6.90,-0.68,-0.68,-0.68
107.48,6.14,6.86,6.14,6.86,-6.86,-6.76,-7.02,-0.71,-0.72,-0.72
108.56,6.13,6.88,6.13,6.88,-6.88,-6.82,-7.13,-0.75,-0.75,-0.75
109.64,6.12,6.91,6.12,6.91,-6.91,-6.87,-7.24,-0.79,-0.79,-0.79
110.74,6.12,6.94,6.12,6.94,-6.94,-6.92,-7.35,-0.82,-0.82,-0.81
111.85,6.12,6.97,6.12,6.97,-6.98,-6.97,-7.46,-0.86,-0.86,-0.85
112.97,6.12,7.01,6.12,7.01,-7.01,-7.02,-7.57,-0.89,-0.89,-0.89
114.10,6.12,7.04,6.12,7.04,-7.05,-7.08,-7.67,-0.93,-0.93,-0.92
115.24,6.12,7.08,6.12,7.08,-7.08,-7.13,-7.76,-0.96,-0.96,-0.96
116.39,6.12,7.13,6.12,7.12,-7.12,-7.18,-7.85,-1.00,-1.00,-1.01
117.55,6.12,7.15,6.12,7.16,-7.15,-7.23,-7.94,-1.03,-1.03,-1.03
118.73,6.12,7.20,6.12,7.19,-7.18,-7.27,-8.01,-1.06,-1.06,-1.08
119.92,6.12,7.22,6.12,7.22,-7.21,-7.32,-8.08,-1.09,-1.09,-1.10
121.12,6.11,7.24,6.11,7.24,-7.24,-7.37,-8.15,-1.13,-1.13,-1.13
122.33,6.10,7.26,6.10,7.26,-7.27,-7.42,-8.20,-1.17,-1.16,-1.16
123.55,6.10,7.29,6.10,7.29,-7.30,-7.47,-8.25,-1.20,-1.20,-1.19
124.79,6.10,7.32,6.10,7.32,-7.33,-7.51,-8.29,-1.23,-1.23,-1.22
126.03,6.11,7.37,6.11,7.36,-7.37,-7.56,-8.31,-1.26,-1.26,-1.26
127.29,6.12,7.41,6.12,7.41,-7.42,-7.61,-8.34,-1.30,-1.29,-1.29
128.57,6.14,7.46,6.14,7.46,-7.47,-7.65,-8.35,-1.33,-1.33,-1.32
129.85,6.16,7.52,6.16,7.52,-7.53,-7.70,-8.35,-1.37,-1.36,-1.36
131.15,6.19,7.59,6.19,7.59,-7.59,-7.74,-8.35,-1.40,-1.40,-1.40
132.46,6.22,7.66,6.22,7.66,-7.65,-7.79,-8.34,-1.43,-1.43,-1.44
133.79,6.25,7.72,6.25,7.72,-7.72,-7.83,-8.32,-1.47,-1.47,-1.47
135.12,6.28,7.79,6.28,7.78,-7.78,-7.87,-8.30,-1.50,-1.50,-1.51
136.48,6.31,7.84,6.31,7.85,-7.85,-7.91,-8.27,-1.54,-1.54,-1.53
137.84,6.34,7.90,6.34,7.91,-7.91,-7.96,-8.24,-1.57,-1.57,-1.56
139.22,6.37,7.98,6.37,7.97,-7.97,-8.00,-8.20,-1.60,-1.60,-1.61
140.61,6.40,8.03,6.40,8.03,-8.03,-8.04,-8.16,-1.63,-1.63,-1.63
142.02,6.42,8.08,6.42,8.09,-8.08,-8.08,-8.12,-1.66,-1.65,-1.66
143.44,6.44,8.13,6.44,8.13,-8.12,-8.12,-8.07,-1.68,-1.68,-1.69
144.87,6.46,8.17,6.46,8.17,-8.16,-8.16,-8.03,-1.70,-1.70,-1.70
146.32,6.46,8.20,6.47,8.20,-8.19,-8.20,-7.99,-1.73,-1.73,-1.73
147.78,6.47,8.23,6.47,8.22,-8.22,-8.23,-7.94,-1.75,-1.75,-1.75
149.26,6.46,8.24,6.46,8.24,-8.24,-8.27,-7.90,-1.78,-1.78,-1.78
150.75,6.45,8.26,6.46,8.26,-8.26,-8.31,-7.86,-1.81,-1.81,-1.81
152.26,6.45,8.28,6.45,8.28,-8.28,-8.34,-7.82,-1.83,-1.83,-1.83
153.78,6.44,8.29,6.44,8.30,-8.30,-8.38,-7.78,-1.86,-1.86,-1.85
155.32,6.44,8.32,6.44,8.32,-8.32,-8.41,-7.75,-1.88,-1.88,-1.88
156.88,6.44,8.34,6.44,8.34,-8.35,-8.45,-7.72,-1.91,-1.91,-1.90
158.44,6.44,8.38,6.44,8.37,-8.37,-8.48,-7.70,-1.93,-1.93,-1.93
160.03,6.44,8.40,6.44,8.40,-8.40,-8.52,-7.67,-1.96,-1.96,-1.96
161.63,6.44,8.43,6.44,8.43,-8.43,-8.55,-7.66,-1.99,-1.99,-1.99
163.24,6.44,8.47,6.44,8.47,-8.46,-8.58,-7.64,-2.02,-2.02,-2.03
164.88,6.44,8.50,6.44,8.50,-8.50,-8.61,-7.64,-2.06,-2.06,-2.06
166.53,6.44,8.53,6.44,8.53,-8.53,-8.64,-7.63,-2.09,-2.09,-2.09
168.19,6.44,8.56,6.44,8.56,-8.56,-8.67,-7.64,-2.12,-2.12,-2.12
169.87,6.44,8.60,6.44,8.59,-8.59,-8.70,-7.64,-2.15,-2.15,-2.15
171.57,6.44,8.62,6.44,8.62,-8.63,-8.73,-7.66,-2.19,-2.19,-2.18
173.29,6.44,8.66,6.44,8.66,-8.66,-8.76,-7.68,-2.22,-2.22,-2.22
175.02,6.44,8.69,6.44,8.69,-8.69,-8.78,-7.70,-2.25,-2.25,-2.25
176.77,6.44,8.73,6.44,8.73,-8.72,-8.81,-7.73,-2.28,-2.28,-2.29
178.54,6.44,8.75,6.44,8.76,-8.76,-8.84,-7.77,-2.32,-2.32,-2.31
180.32,6.44,8.80,6.44,8.79,-8.79,-8.86,-7.81,-2.35,-2.35,-2.35
182.13,6.44,8.83,6.44,8.83,-8.83,-8.89,-7.86,-2.39,-2.39,-2.39
183.95,6.44,8.86,6.44,8.86,-8.86,-8.91,-7.91,-2.42,-2.42,-2.42
185.79,6.44,8.90,6.44,8.90,-8.90,-8.93,-7.97,-2.46,-2.46,-2.46
187.65,6.44,8.93,6.44,8.93,-8.93,-8.95,-8.03,-2.49,-2.49,-2.49
189.52,6.44,8.97,6.44,8.97,-8.97,-8.97,-8.10,-2.53,-2.53,-2.53
191.42,6.44,9.00,6.44,9.00,-9.00,-9.00,-8.18,-2.56,-2.56,-2.56
193.33,6.44,9.03,6.44,9.03,-9.03,-9.02,-8.26,-2.59,-2.59,-2.59
195.27,6.44,9.07,6.44,9.06,-9.07,-9.03,-8.34,-2.62,-2.62,-2.63
197.22,6.44,9.10,6.44,9.10,-9.09,-9.05,-8.43,-2.65,-2.65,-2.66
199.19,6.44,9.12,6.44,9.13,-9.12,-9.07,-8.53,-2.68,-2.68,-2.68
201.18,6.44,9.16,6.44,9.15,-9.15,-9.09,-8.63,-2.71,-2.71,-2.72
203.19,6.44,9.17,6.44,9.17,-9.17,-9.10,-8.73,-2.73,-2.73,-2.73
205.23,6.44,9.20,6.44,9.20,-9.20,-9.12,-8.83,-2.76,-2.76,-2.76
207.28,6.44,9.21,6.44,9.22,-9.22,-9.13,-8.94,-2.78,-2.78,-2.77
209.35,6.44,9.25,6.44,9.24,-9.24,-9.15,-9.05,-2.80,-2.80,-2.81
211.44,6.44,9.27,6.44,9.27,-9.27,-9.16,-9.16,-2.82,-2.82,-2.83
213.56,6.44,9.28,6.44,9.29,-9.29,-9.17,-9.28,-2.85,-2.85,-2.84
215.69,6.44,9.31,6.44,9.31,-9.31,-9.18,-9.39,-2.87,-2.87,-2.87
217.85,6.44,9.33,6.44,9.33,-9.33,-9.19,-9.50,-2.89,-2.89,-2.89
220.03,6.44,9.35,6.44,9.35,-9.35,-9.20,-9.62,-2.91,-2.91,-2.91
222.23,6.44,9.37,6.44,9.37,-9.37,-9.21,-9.73,-2.93,-2.93,-2.93
224.45,6.44,9.39,6.44,9.39,-9.39,-9.22,-9.83,-2.95,-2.95,-2.95
226.70,6.44,9.40,6.44,9.40,-9.40,-9.23,-9.93,-2.96,-2.96,-2.96
228.96,6.44,9.41,6.44,9.42,-9.42,-9.23,-10.03,-2.98,-2.98,-2.97
231.25,6.44,9.43,6.44,9.43,-9.43,-9.24,-10.12,-2.99,-2.99,-2.99
233.57,6.44,9.44,6.44,9.45,-9.45,-9.25,-10.20,-3.01,-3.01,-3.00
235.90,6.44,9.46,6.44,9.46,-9.46,-9.25,-10.27,-3.02,-3.02,-3.02
238.26,6.44,9.47,6.44,9.47,-9.48,-9.25,-10.34,-3.04,-3.03,-3.03
240.64,6.45,9.47,6.45,9.48,-9.49,-9.25,-10.39,-3.04,-3.04,-3.02
243.05,6.46,9.49,6.46,9.50,-9.50,-9.26,-10.43,-3.04,-3.04,-3.03
245.48,6.47,9.52,6.47,9.51,-9.50,-9.26,-10.46,-3.03,-3.03,-3.05
247.93,6.47,9.52,6.47,9.52,-9.50,-9.26,-10.47,-3.03,-3.03,-3.05
250.41,6.46,9.50,6.46,9.51,-9.50,-9.26,-10.48,-3.04,-3.03,-3.04
252.92,6.45,9.49,6.45,9.49,-9.49,-9.25,-10.47,-3.04,-3.04,-3.04
255.45,6.43,9.48,6.43,9.47,-9.47,-9.25,-10.45,-3.04,-3.04,-3.05
258.00,6.40,9.44,6.41,9.45,-9.45,-9.25,-10.41,-3.05,-3.05,-3.04
260.58,6.38,9.43,6.38,9.42,-9.43,-9.24,-10.37,-3.04,-3.05,-3.05
263.19,6.35,9.40,6.35,9.40,-9.40,-9.24,-10.31,-3.05,-3.05,-3.04
265.82,6.32,9.37,6.32,9.37,-9.37,-9.23,-10.24,-3.05,-3.05,-3.05
268.48,6.29,9.34,6.29,9.34,-9.34,-9.23,-10.17,-3.05,-3.05,-3.05
271.16,6.26,9.31,6.26,9.31,-9.31,-9.22,-10.08,-3.05,-3.05,-3.05
273.87,6.23,9.28,6.23,9.28,-9.29,-9.21,-9.99,-3.05,-3.05,-3.05
276.61,6.20,9.25,6.20,9.26,-9.26,-9.20,-9.89,-3.06,-3.06,-3.05
279.38,6.18,9.25,6.18,9.24,-9.24,-9.19,-9.78,-3.06,-3.06,-3.07
282.17,6.16,9.21,6.16,9.21,-9.22,-9.18,-9.68,-3.05,-3.06,-3.05
284.99,6.14,9.19,6.14,9.19,-9.20,-9.17,-9.56,-3.05,-3.05,-3.05
287.84,6.13,9.17,6.13,9.17,-9.18,-9.16,-9.45,-3.05,-3.05,-3.04
290.72,6.11,9.17,6.11,9.16,-9.16,-9.14,-9.34,-3.05,-3.05,-3.05
293.63,6.10,9.15,6.10,9.14,-9.14,-9.13,-9.22,-3.04,-3.04,-3.05
296.57,6.08,9.11,6.08,9.12,-9.12,-9.11,-9.11,-3.04,-3.04,-3.03
299.53,6.07,9.11,6.07,9.10,-9.10,-9.10,-8.99,-3.03,-3.03,-3.04
302.53,6.05,9.08,6.05,9.08,-9.07,-9.08,-8.88,-3.02,-3.02,-3.03
305.55,6.03,9.05,6.03,9.05,-9.05,-9.06,-8.77,-3.01,-3.02,-3.02
308.61,6.00,9.02,6.00,9.02,-9.01,-9.05,-8.67,-3.01,-3.01,-3.02
311.69,5.97,8.98,5.97,8.98,-8.98,-9.03,-8.57,-3.01,-3.01,-3.01
314.81,5.94,8.94,5.94,8.94,-8.94,-9.01,-8.47,-3.00,-3.00,-3.00
317.96,5.91,8.91,5.91,8.91,-8.91,-8.99,-8.37,-3.00,-3.00,-3.00
321.14,5.88,8.87,5.88,8.87,-8.87,-8.96,-8.28,-2.99,-2.99,-2.99
324.35,5.85,8.84,5.85,8.83,-8.84,-8.94,-8.20,-2.99,-2.99,-2.99
327.59,5.83,8.79,5.83,8.81,-8.82,-8.92,-8.12,-2.99,-2.98,-2.96
330.87,5.82,8.79,5.82,8.79,-8.79,-8.89,-8.04,-2.97,-2.98,-2.97
334.18,5.81,8.78,5.81,8.77,-8.77,-8.87,-7.97,-2.96,-2.96,-2.97
337.52,5.80,8.75,5.80,8.76,-8.76,-8.84,-7.91,-2.96,-2.95,-2.95
340.90,5.80,8.74,5.80,8.74,-8.74,-8.82,-7.85,-2.94,-2.94,-2.94
344.30,5.79,8.73,5.79,8.73,-8.72,-8.79,-7.80,-2.93,-2.93,-2.94
347.75,5.78,8.71,5.78,8.71,-8.70,-8.76,-7.75,-2.92,-2.92,-2.93
351.23,5.77,8.69,5.77,8.68,-8.68,-8.73,-7.71,-2.91,-2.91,-2.92
354.74,5.75,8.65,5.75,8.66,-8.65,-8.70,-7.68,-2.90,-2.90,-2.90
358.28,5.72,8.62,5.72,8.63,-8.62,-8.67,-7.65,-2.90,-2.90,-2.90
361.87,5.69,8.60,5.69,8.59,-8.59,-8.64,-7.62,-2.90,-2.90,-2.90
365.49,5.66,8.55,5.66,8.55,-8.55,-8.61,-7.60,-2.89,-2.89,-2.89
369.14,5.63,8.51,5.63,8.51,-8.52,-8.58,-7.59,-2.89,-2.89,-2.88
372.83,5.60,8.47,5.60,8.48,-8.48,-8.54,-7.58,-2.88,-2.88,-2.87
376.56,5.58,8.45,5.58,8.44,-8.45,-8.51,-7.58,-2.87,-2.87,-2.87
380.33,5.55,8.41,5.55,8.42,-8.41,-8.47,-7.58,-2.86,-2.86,-2.86
384.13,5.53,8.38,5.53,8.39,-8.38,-8.44,-7.59,-2.85,-2.85,-2.85
387.97,5.51,8.36,5.51,8.35,-8.35,-8.40,-7.60,-2.84,-2.84,-2.85
391.85,5.49,8.32,5.49,8.32,-8.32,-8.36,-7.62,-2.83,-2.83,-2.83
395.77,5.46,8.29,5.46,8.29,-8.29,-8.32,-7.64,-2.83,-2.82,-2.83
399.73,5.44,8.26,5.44,8.26,-8.26,-8.28,-7.67,-2.82,-2.82,-2.82
403.72,5.42,8.22,5.42,8.22,-8.23,-8.24,-7.70,-2.81,-2.81,-2.80
407.76,5.40,8.19,5.40,8.19,-8.20,-8.20,-7.73,-2.80,-2.80,-2.79
411.84,5.38,8.16,5.38,8.16,-8.17,-8.16,-7.76,-2.79,-2.78,-2.78
415.96,5.36,8.13,5.36,8.14,-8.14,-8.12,-7.80,-2.78,-2.78,-2.77
420.12,5.34,8.12,5.34,8.11,-8.10,-8.08,-7.84,-2.76,-2.77,-2.77
424.32,5.31,8.08,5.31,8.07,-8.07,-8.03,-7.88,-2.76,-2.76,-2.77
428.56,5.29,8.04,5.29,8.04,-8.04,-7.99,-7.92,-2.74,-2.75,-2.75
432.85,5.26,7.99,5.26,8.00,-8.00,-7.95,-7.96,-2.74,-2.74,-2.73
437.18,5.23,7.97,5.23,7.96,-7.96,-7.90,-8.00,-2.72,-2.73,-2.74
441.55,5.19,7.92,5.19,7.92,-7.91,-7.85,-8.04,-2.72,-2.72,-2.73
445.96,5.15,7.87,5.15,7.87,-7.87,-7.81,-8.08,-2.72,-2.72,-2.72
450.42,5.11,7.82,5.11,7.82,-7.83,-7.76,-8.12,-2.72,-2.72,-2.71
454.93,5.08,7.78,5.08,7.78,-7.79,-7.71,-8.15,-2.71,-2.71,-2.70
459.48,5.05,7.74,5.05,7.74,-7.75,-7.66,-8.17,-2.70,-2.70,-2.69
464.07,5.03,7.70,5.03,7.71,-7.71,-7.61,-8.20,-2.68,-2.68,-2.67
468.71,5.01,7.68,5.01,7.68,-7.67,-7.56,-8.21,-2.66,-2.67,-2.67
473.40,4.98,7.64,4.98,7.64,-7.63,-7.51,-8.22,-2.65,-2.65,-2.66
478.13,4.95,7.60,4.95,7.60,-7.59,-7.46,-8.22,-2.64,-2.64,-2.65
482.91,4.91,7.56,4.91,7.55,-7.55,-7.40,-8.22,-2.64,-2.64,-2.64
487.74,4.86,7.50,4.87,7.50,-7.50,-7.35,-8.20,-2.64,-2.64,-2.63
492.62,4.82,7.45,4.82,7.45,-7.45,-7.30,-8.18,-2.63,-2.63,-2.63
497.55,4.78,7.40,4.78,7.40,-7.40,-7.24,-8.15,-2.62,-2.62,-2.62
502.52,4.74,7.35,4.74,7.34,-7.34,-7.18,-8.11,-2.60,-2.60,-2.61
