frequency,raw,error,smoothed,error_smoothed,equalization,parametric_eq,fixed_band_eq,equalized_raw,equalized_smoothed,target
20.00,-11.94,-9.58,-11.94,-9.57,6.00,6.93,2.21,-5.94,-5.94,-2.36
20.20,-11.85,-9.49,-11.85,-9.49,6.00,6.88,2.28,-5.85,-5.85,-2.36
20.40,-11.77,-9.41,-11.76,-9.40,6.00,6.83,2.34,-5.77,-5.76,-2.36
20.61,-11.66,-9.30,-11.66,-9.30,6.00,6.78,2.41,-5.66,-5.66,-2.36
20.81,-11.55,-9.19,-11.54,-9.18,6.00,6.73,2.48,-5.55,-5.54,-2.36
21.02,-11.42,-9.06,-11.42,-9.06,6.00,6.68,2.56,-5.42,-5.42,-2.36
21.23,-11.29,-8.93,-11.30,-8.93,6.00,6.63,2.63,-5.29,-5.30,-2.36
21.44,-11.18,-8.82,-11.17,-8.81,6.00,6.58,2.71,-5.18,-5.17,-2.36
21.66,-11.05,-8.69,-11.05,-8.69,6.00,6.53,2.79,-5.05,-5.05,-2.36
21.87,-10.92,-8.55,-10.92,-8.56,6.00,6.48,2.88,-4.92,-4.92,-2.36
22.09,-10.81,-8.45,-10.81,-8.44,6.00,6.43,2.96,-4.81,-4.81,-2.36
22.31,-10.69,-8.32,-10.68,-8.32,6.00,6.39,3.05,-4.69,-4.68,-2.36
22.54,-10.57,-8.21,-10.56,-8.20,6.00,6.34,3.14,-4.57,-4.56,-2.36
22.76,-10.43,-8.07,-10.44,-8.08,6.00,6.29,3.23,-4.43,-4.44,-2.36
22.99,-10.32,-7.96,-10.31,-7.95,6.00,6.24,3.33,-4.32,-4.31,-2.36
23.22,-10.19,-7.83,-10.19,-7.82,6.00,6.19,3.43,-4.19,-4.19,-2.36
23.45,-10.06,-7.70,-10.07,-7.71,6.00,6.15,3.52,-4.06,-4.07,-2.36
23.69,-9.95,-7.59,-9.94,-7.58,6.00,6.11,3.63,-3.95,-3.94,-2.36
23.92,-9.83,-7.47,-9.83,-7.46,6.00,6.06,3.73,-3.83,-3.83,-2.36
24.16,-9.71,-7.35,-9.70,-7.34,6.00,6.02,3.83,-3.71,-3.70,-2.36
24.40,-9.58,-7.21,-9.58,-7.22,6.00,5.99,3.94,-3.58,-3.58,-2.36
24.65,-9.45,-7.09,-9.45,-7.09,6.00,5.95,4.05,-3.45,-3.45,-2.36
24.89,-9.34,-6.97,-9.33,-6.97,6.00,5.92,4.15,-3.34,-3.33,-2.36
25.14,-9.21,-6.85,-9.21,-6.85,6.00,5.89,4.26,-3.21,-3.21,-2.36
25.39,-9.10,-6.73,-9.09,-6.73,6.01,5.86,4.37,-3.09,-3.08,-2.36
25.65,-8.97,-6.61,-8.96,-6.60,6.02,5.84,4.48,-2.95,-2.95,-2.36
25.91,-8.83,-6.47,-8.84,-6.48,6.02,5.82,4.60,-2.81,-2.82,-2.36
26.16,-8.72,-6.35,-8.71,-6.35,6.02,5.80,4.70,-2.70,-2.69,-2.36
26.43,-8.59,-6.23,-8.59,-6.23,6.00,5.78,4.81,-2.59,-2.59,-2.36
26.69,-8.47,-6.11,-8.47,-6.11,5.96,5.76,4.92,-2.50,-2.51,-2.36
26.96,-8.35,-5.99,-8.35,-5.99,5.91,5.72,5.02,-2.44,-2.44,-2.36
27.23,-8.24,-5.88,-8.23,-5.87,5.84,5.67,5.12,-2.40,-2.39,-2.36
27.50,-8.11,-5.75,-8.11,-5.75,5.75,5.62,5.22,-2.36,-2.36,-2.36
27.77,-7.98,-5.62,-7.99,-5.62,5.64,5.53,5.31,-2.33,-2.34,-2.36
28.05,-7.87,-5.51,-7.86,-5.50,5.52,5.45,5.40,-2.34,-2.33,-2.36
28.33,-7.74,-5.38,-7.74,-5.38,5.40,5.33,5.48,-2.34,-2.34,-2.36
28.62,-7.61,-5.25,-7.62,-5.26,5.27,5.22,5.56,-2.34,-2.35,-2.36
28.90,-7.50,-5.14,-7.49,-5.13,5.14,5.09,5.62,-2.36,-2.36,-2.36
29.19,-7.38,-5.02,-7.37,-5.01,5.01,4.97,5.68,-2.36,-2.36,-2.36
29.48,-7.26,-4.90,-7.26,-4.90,4.89,4.84,5.73,-2.37,-2.37,-2.36
29.78,-7.13,-4.77,-7.14,-4.77,4.77,4.71,5.77,-2.36,-2.37,-2.36
30.08,-7.02,-4.66,-7.01,-4.65,4.65,4.59,5.79,-2.37,-2.36,-2.36
30.38,-6.88,-4.52,-6.88,-4.52,4.53,4.46,5.81,-2.35,-2.35,-2.36
30.68,-6.75,-4.39,-6.76,-4.40,4.40,4.35,5.81,-2.34,-2.36,-2.36
30.99,-6.64,-4.28,-6.64,-4.28,4.28,4.23,5.80,-2.36,-2.36,-2.36
31.30,-6.54,-4.18,-6.52,-4.16,4.16,4.12,5.77,-2.38,-2.36,-2.36
31.61,-6.40,-4.04,-6.40,-4.04,4.04,4.01,5.74,-2.36,-2.36,-2.36
31.93,-6.27,-3.91,-6.28,-3.92,3.92,3.90,5.69,-2.35,-2.36,-2.36
32.24,-6.16,-3.80,-6.16,-3.80,3.80,3.80,5.63,-2.36,-2.36,-2.36
32.57,-6.05,-3.69,-6.04,-3.68,3.68,3.69,5.56,-2.37,-2.36,-2.36
32.89,-5.92,-3.56,-5.92,-3.56,3.56,3.59,5.48,-2.36,-2.36,-2.36
33.22,-5.79,-3.43,-5.80,-3.44,3.44,3.49,5.38,-2.35,-2.36,-2.36
33.55,-5.68,-3.32,-5.68,-3.31,3.32,3.38,5.28,-2.36,-2.36,-2.36
33.89,-5.57,-3.21,-5.56,-3.20,3.20,3.28,5.16,-2.37,-2.36,-2.36
34.23,-5.44,-3.08,-5.44,-3.08,3.08,3.18,5.04,-2.36,-2.36,-2.36
34.57,-5.33,-2.97,-5.32,-2.96,2.96,3.08,4.91,-2.36,-2.36,-2.36
34.92,-5.20,-2.84,-5.20,-2.84,2.84,2.98,4.77,-2.35,-2.36,-2.36
35.27,-5.09,-2.73,-5.09,-2.73,2.73,2.88,4.62,-2.36,-2.36,-2.36
35.62,-4.98,-2.62,-4.97,-2.61,2.61,2.78,4.47,-2.37,-2.36,-2.36
35.97,-4.86,-2.50,-4.86,-2.50,2.49,2.68,4.31,-2.36,-2.36,-2.36
36.33,-4.74,-2.38,-4.73,-2.37,2.38,2.58,4.15,-2.36,-2.36,-2.36
36.70,-4.61,-2.25,-4.61,-2.25,2.26,2.48,3.98,-2.35,-2.35,-2.36
37.06,-4.50,-2.14,-4.50,-2.14,2.14,2.38,3.82,-2.36,-2.36,-2.36
37.43,-4.39,-2.03,-4.39,-2.03,2.02,2.28,3.65,-2.37,-2.37,-2.36
37.81,-4.28,-1.92,-4.27,-1.91,1.90,2.17,3.47,-2.37,-2.37,-2.36
38.19,-4.16,-1.80,-4.15,-1.79,1.79,2.07,3.30,-2.37,-2.36,-2.36
38.57,-4.02,-1.66,-4.03,-1.67,1.67,1.97,3.12,-2.35,-2.36,-2.36
38.95,-3.91,-1.55,-3.91,-1.55,1.56,1.86,2.95,-2.35,-2.35,-2.36
39.34,-3.80,-1.44,-3.79,-1.43,1.44,1.76,2.77,-2.36,-2.35,-2.36
39.74,-3.69,-1.33,-3.69,-1.33,1.32,1.65,2.59,-2.37,-2.37,-2.36
40.14,-3.58,-1.22,-3.58,-1.22,1.20,1.55,2.42,-2.37,-2.38,-2.36
40.54,-3.48,-1.12,-3.46,-1.10,1.09,1.44,2.24,-2.39,-2.37,-2.36
40.94,-3.32,-0.96,-3.33,-0.97,0.97,1.34,2.06,-2.34,-2.36,-2.36
41.35,-3.21,-0.85,-3.21,-0.85,0.86,1.23,1.88,-2.35,-2.35,-2.36
41.76,-3.10,-0.74,-3.09,-0.73,0.75,1.12,1.71,-2.35,-2.35,-2.36
42.18,-2.99,-0.63,-2.99,-0.63,0.63,1.01,1.53,-2.35,-2.36,-2.36
42.60,-2.89,-0.53,-2.88,-0.52,0.52,0.90,1.36,-2.36,-2.36,-2.36
43.03,-2.78,-0.42,-2.78,-0.42,0.41,0.79,1.18,-2.36,-2.36,-2.36
43.46,-2.67,-0.31,-2.67,-0.31,0.30,0.69,1.01,-2.36,-2.36,-2.36
43.90,-2.56,-0.20,-2.56,-0.20,0.19,0.57,0.83,-2.36,-2.36,-2.36
44.33,-2.45,-0.09,-2.45,-0.09,0.08,0.46,0.66,-2.36,-2.37,-2.36
44.78,-2.34,0.02,-2.34,0.02,-0.03,0.35,0.49,-2.37,-2.37,-2.36
45.23,-2.23,0.13,-2.22,0.14,-0.15,0.24,0.31,-2.38,-2.37,-2.36
45.68,-2.10,0.26,-2.10,0.26,-0.26,0.13,0.14,-2.36,-2.36,-2.36
46.13,-1.97,0.39,-1.97,0.39,-0.38,0.02,-0.03,-2.34,-2.35,-2.36
46.60,-1.86,0.50,-1.86,0.50,-0.49,-0.09,-0.20,-2.35,-2.35,-2.36
47.06,-1.76,0.60,-1.76,0.60,-0.60,-0.21,-0.37,-2.35,-2.36,-2.36
47.53,-1.67,0.69,-1.66,0.70,-0.70,-0.32,-0.54,-2.37,-2.36,-2.36
48.01,-1.56,0.80,-1.56,0.80,-0.81,-0.43,-0.71,-2.37,-2.37,-2.36
48.49,-1.45,0.91,-1.46,0.91,-0.91,-0.55,-0.88,-2.36,-2.37,-2.36
48.97,-1.36,1.00,-1.35,1.01,-1.01,-0.66,-1.05,-2.37,-2.36,-2.36
49.46,-1.25,1.11,-1.25,1.11,-1.11,-0.77,-1.21,-2.36,-2.36,-2.36
49.96,-1.15,1.21,-1.15,1.21,-1.21,-0.89,-1.38,-2.36,-2.36,-2.36
50.46,-1.06,1.30,-1.05,1.31,-1.31,-1.00,-1.54,-2.37,-2.36,-2.36
50.96,-0.95,1.41,-0.95,1.41,-1.41,-1.11,-1.71,-2.36,-2.36,-2.36
51.47,-0.84,1.52,-0.85,1.51,-1.51,-1.22,-1.87,-2.35,-2.36,-2.36
51.99,-0.76,1.60,-0.75,1.61,-1.61,-1.34,-2.03,-2.36,-2.36,-2.36
52.51,-0.67,1.69,-0.66,1.70,-1.70,-1.45,-2.19,-2.37,-2.36,-2.36
53.03,-0.56,1.80,-0.57,1.79,-1.80,-1.56,-2.34,-2.35,-2.37,-2.36
53.56,-0.48,1.88,-0.47,1.89,-1.89,-1.67,-2.49,-2.37,-2.36,-2.36
54.10,-0.39,1.97,-0.38,1.98,-1.98,-1.78,-2.64,-2.37,-2.36,-2.36
54.64,-0.28,2.08,-0.29,2.07,-2.07,-1.89,-2.79,-2.35,-2.36,-2.36
55.18,-0.22,2.14,-0.20,2.16,-2.15,-1.99,-2.93,-2.37,-2.36,-2.36
55.74,-0.11,2.25,-0.12,2.24,-2.24,-2.10,-3.07,-2.35,-2.36,-2.36
56.29,-0.05,2.31,-0.04,2.32,-2.32,-2.20,-3.20,-2.37,-2.36,-2.36
56.86,0.04,2.40,0.04,2.40,-2.40,-2.31,-3.33,-2.36,-2.36,-2.36
57.42,0.11,2.47,0.11,2.47,-2.48,-2.41,-3.46,-2.37,-2.37,-2.36
58.00,0.19,2.55,0.20,2.56,-2.56,-2.51,-3.57,-2.36,-2.36,-2.36
58.58,0.27,2.63,0.27,2.63,-2.63,-2.61,-3.68,-2.36,-2.36,-2.36
59.16,0.35,2.71,0.34,2.70,-2.70,-2.71,-3.79,-2.35,-2.36,-2.36
59.76,0.40,2.76,0.41,2.77,-2.78,-2.81,-3.88,-2.38,-2.36,-2.36
60.35,0.48,2.84,0.49,2.85,-2.85,-2.90,-3.97,-2.37,-2.36,-2.36
60.96,0.56,2.92,0.56,2.92,-2.92,-2.99,-4.05,-2.36,-2.36,-2.36
61.57,0.63,2.99,0.63,2.99,-2.99,-3.08,-4.12,-2.35,-2.36,-2.36
62.18,0.69,3.05,0.69,3.05,-3.05,-3.17,-4.19,-2.36,-2.36,-2.36
62.80,0.75,3.11,0.75,3.11,-3.12,-3.25,-4.25,-2.36,-2.36,-2.36
63.43,0.81,3.17,0.82,3.18,-3.18,-3.34,-4.29,-2.37,-2.36,-2.36
64.07,0.88,3.24,0.88,3.24,-3.24,-3.42,-4.33,-2.36,-2.36,-2.36
64.71,0.94,3.30,0.94,3.30,-3.31,-3.50,-4.37,-2.36,-2.36,-2.36
65.35,1.00,3.36,1.00,3.36,-3.37,-3.57,-4.39,-2.36,-2.37,-2.36
66.01,1.06,3.42,1.06,3.42,-3.43,-3.64,-4.41,-2.37,-2.37,-2.36
66.67,1.12,3.48,1.13,3.49,-3.49,-3.71,-4.43,-2.37,-2.36,-2.36
67.33,1.19,3.55,1.19,3.55,-3.55,-3.78,-4.43,-2.35,-2.36,-2.36
68.01,1.25,3.61,1.25,3.61,-3.60,-3.85,-4.43,-2.35,-2.35,-2.36
68.69,1.30,3.66,1.30,3.66,-3.66,-3.91,-4.43,-2.36,-2.36,-2.36
69.37,1.34,3.70,1.35,3.71,-3.71,-3.96,-4.42,-2.37,-2.36,-2.36
70.07,1.39,3.75,1.39,3.75,-3.76,-4.02,-4.40,-2.37,-2.37,-2.36
70.77,1.44,3.80,1.44,3.80,-3.80,-4.07,-4.39,-2.36,-2.36,-2.36
71.48,1.48,3.84,1.49,3.85,-3.85,-4.12,-4.37,-2.37,-2.36,-2.36
72.19,1.53,3.89,1.53,3.89,-3.89,-4.17,-4.35,-2.35,-2.36,-2.36
72.91,1.56,3.92,1.57,3.93,-3.92,-4.21,-4.32,-2.36,-2.36,-2.36
73.64,1.60,3.96,1.60,3.96,-3.96,-4.26,-4.30,-2.36,-2.36,-2.36
74.38,1.64,4.00,1.63,3.99,-3.99,-4.29,-4.27,-2.35,-2.36,-2.36
75.12,1.65,4.01,1.66,4.02,-4.03,-4.33,-4.25,-2.37,-2.36,-2.36
75.87,1.69,4.05,1.69,4.05,-4.05,-4.36,-4.22,-2.36,-2.37,-2.36
76.63,1.71,4.07,1.72,4.08,-4.08,-4.40,-4.20,-2.37,-2.36,-2.36
77.40,1.74,4.10,1.75,4.11,-4.11,-4.42,-4.18,-2.36,-2.36,-2.36
78.17,1.78,4.14,1.77,4.13,-4.13,-4.45,-4.15,-2.35,-2.36,-2.36
78.95,1.79,4.15,1.80,4.16,-4.15,-4.47,-4.13,-2.36,-2.35,-2.36
79.74,1.82,4.18,1.82,4.18,-4.18,-4.50,-4.11,-2.35,-2.36,-2.36
80.54,1.83,4.19,1.83,4.19,-4.20,-4.52,-4.10,-2.37,-2.37,-2.36
81.35,1.85,4.21,1.86,4.22,-4.22,-4.54,-4.08,-2.37,-2.36,-2.36
82.16,1.88,4.24,1.88,4.24,-4.25,-4.55,-4.07,-2.36,-2.37,-2.36
82.98,1.92,4.28,1.91,4.27,-4.27,-4.57,-4.06,-2.35,-2.36,-2.36
83.81,1.92,4.28,1.94,4.30,-4.30,-4.58,-4.05,-2.37,-2.36,-2.36
84.65,1.97,4.33,1.96,4.32,-4.33,-4.59,-4.05,-2.35,-2.36,-2.36
85.50,1.99,4.35,1.99,4.35,-4.35,-4.60,-4.05,-2.36,-2.36,-2.36
86.35,2.02,4.38,2.03,4.39,-4.39,-4.61,-4.05,-2.36,-2.36,-2.36
87.22,2.06,4.42,2.05,4.41,-4.42,-4.61,-4.05,-2.36,-2.36,-2.36
88.09,2.08,4.44,2.09,4.45,-4.45,-4.62,-4.06,-2.37,-2.36,-2.36
88.97,2.11,4.47,2.12,4.48,-4.48,-4.63,-4.07,-2.37,-2.36,-2.36
89.86,2.16,4.52,2.15,4.52,-4.52,-4.63,-4.09,-2.35,-2.36,-2.36
90.76,2.20,4.56,2.19,4.55,-4.55,-4.63,-4.11,-2.35,-2.36,-2.36
91.66,2.20,4.56,2.22,4.58,-4.58,-4.64,-4.13,-2.38,-2.36,-2.36
92.58,2.25,4.61,2.25,4.61,-4.61,-4.64,-4.15,-2.36,-2.36,-2.36
93.51,2.29,4.65,2.28,4.64,-4.64,-4.64,-4.18,-2.35,-2.36,-2.36
94.44,2.30,4.66,2.31,4.67,-4.67,-4.64,-4.21,-2.37,-2.36,-2.36
95.39,2.34,4.70,2.33,4.70,-4.69,-4.64,-4.24,-2.35,-2.36,-2.36
96.34,2.34,4.70,2.36,4.72,-4.72,-4.64,-4.28,-2.38,-2.36,-2.36
97.30,2.39,4.75,2.38,4.74,-4.74,-4.63,-4.32,-2.35,-2.36,-2.36
98.28,2.39,4.75,2.40,4.76,-4.76,-4.63,-4.36,-2.37,-2.36,-2.36
99.26,2.42,4.78,2.42,4.78,-4.78,-4.63,-4.40,-2.36,-2.36,-2.36
100.25,2.44,4.80,2.43,4.80,-4.80,-4.63,-4.45,-2.36,-2.36,-2.36
101.25,2.44,4.80,2.45,4.82,-4.81,-4.63,-4.49,-2.37,-2.36,-2.36
102.27,2.47,4.83,2.47,4.83,-4.82,-4.62,-4.54,-2.35,-2.36,-2.36
103.29,2.48,4.84,2.48,4.84,-4.83,-4.62,-4.59,-2.35,-2.36,-2.36
104.32,2.48,4.84,2.48,4.84,-4.84,-4.61,-4.64,-2.36,-2.36,-2.36
105.37,2.48,4.84,2.48,4.85,-4.85,-4.61,-4.70,-2.37,-2.37,-2.36
106.42,2.48,4.84,2.49,4.85,-4.86,-4.61,-4.75,-2.38,-2.37,-2.36
107.48,2.51,4.87,2.50,4.86,-4.87,-4.60,-4.80,-2.36,-2.37,-2.36
108.56,2.51,4.87,2.52,4.88,-4.88,-4.60,-4.85,-2.36,-2.36,-2.36
109.64,2.53,4.89,2.53,4.89,-4.88,-4.59,-4.90,-2.35,-2.35,-2.36
110.74,2.53,4.89,2.53,4.89,-4.88,-4.59,-4.95,-2.35,-2.35,-2.36
111.85,2.53,4.89,2.53,4.89,-4.88,-4.58,-5.00,-2.35,-2.35,-2.36
112.97,2.51,4.87,2.52,4.88,-4.88,-4.58,-5.04,-2.36,-2.36,-2.36
114.10,2.51,4.87,2.50,4.86,-4.87,-4.57,-5.08,-2.36,-2.37,-2.36
115.24,2.48,4.84,2.49,4.85,-4.86,-4.57,-5.12,-2.38,-2.37,-2.36
116.39,2.48,4.84,2.48,4.84,-4.85,-4.56,-5.15,-2.37,-2.37,-2.36
117.55,2.48,4.84,2.48,4.84,-4.85,-4.55,-5.18,-2.36,-2.36,-2.36
118.73,2.48,4.84,2.48,4.84,-4.84,-4.55,-5.21,-2.36,-2.35,-2.36
119.92,2.48,4.84,2.47,4.84,-4.83,-4.54,-5.22,-2.35,-2.36,-2.36
121.12,2.46,4.82,2.46,4.82,-4.82,-4.53,-5.24,-2.36,-2.36,-2.36
122.33,2.44,4.80,2.45,4.81,-4.81,-4.52,-5.24,-2.37,-2.36,-2.36
123.55,2.44,4.80,2.44,4.80,-4.80,-4.52,-5.25,-2.36,-2.36,-2.36
124.79,2.44,4.80,2.43,4.79,-4.79,-4.51,-5.24,-2.35,-2.36,-2.36
126.03,2.40,4.76,2.42,4.78,-4.77,-4.50,-5.23,-2.37,-2.36,-2.36
127.29,2.39,4.75,2.40,4.76,-4.76,-4.49,-5.22,-2.37,-2.36,-2.36
128.57,2.39,4.75,2.38,4.74,-4.74,-4.48,-5.20,-2.35,-2.37,-2.36
129.85,2.35,4.71,2.36,4.72,-4.73,-4.47,-5.16,-2.37,-2.36,-2.36
131.15,2.34,4.70,2.34,4.70,-4.71,-4.46,-5.13,-2.36,-2.36,-2.36
132.46,2.33,4.69,2.33,4.69,-4.69,-4.45,-5.09,-2.36,-2.36,-2.36
133.79,2.30,4.66,2.31,4.67,-4.67,-4.44,-5.05,-2.36,-2.36,-2.36
135.12,2.30,4.66,2.29,4.65,-4.65,-4.43,-5.00,-2.34,-2.36,-2.36
136.48,2.25,4.61,2.26,4.62,-4.63,-4.42,-4.95,-2.37,-2.36,-2.36
137.84,2.25,4.61,2.24,4.60,-4.60,-4.40,-4.89,-2.35,-2.36,-2.36
139.22,2.20,4.56,2.21,4.57,-4.58,-4.39,-4.83,-2.38,-2.37,-2.36
140.61,2.20,4.56,2.20,4.56,-4.56,-4.38,-4.76,-2.35,-2.36,-2.36
142.02,2.16,4.52,2.17,4.53,-4.53,-4.36,-4.70,-2.37,-2.36,-2.36
143.44,2.16,4.52,2.15,4.51,-4.51,-4.35,-4.63,-2.34,-2.36,-2.36
144.87,2.11,4.47,2.12,4.48,-4.48,-4.33,-4.56,-2.37,-2.36,-2.36
146.32,2.09,4.45,2.09,4.45,-4.45,-4.32,-4.49,-2.36,-2.36,-2.36
147.78,2.06,4.42,2.06,4.42,-4.42,-4.30,-4.42,-2.36,-2.36,-2.36
149.26,2.03,4.39,2.03,4.39,-4.39,-4.28,-4.35,-2.36,-2.36,-2.36
150.75,2.00,4.36,2.00,4.36,-4.36,-4.27,-4.27,-2.36,-2.36,-2.36
152.26,1.97,4.33,1.97,4.33,-4.34,-4.25,-4.20,-2.36,-2.36,-2.36
153.78,1.94,4.30,1.94,4.30,-4.31,-4.23,-4.13,-2.36,-2.36,-2.36
155.32,1.92,4.28,1.92,4.28,-4.28,-4.21,-4.06,-2.36,-2.36,-2.36
156.88,1.88,4.24,1.89,4.25,-4.25,-4.19,-3.99,-2.37,-2.36,-2.36
158.44,1.87,4.23,1.86,4.22,-4.22,-4.17,-3.93,-2.35,-2.36,-2.36
160.03,1.83,4.19,1.84,4.20,-4.20,-4.15,-3.86,-2.37,-2.36,-2.36
161.63,1.81,4.17,1.81,4.17,-4.17,-4.13,-3.80,-2.36,-2.36,-2.36
163.24,1.79,4.15,1.79,4.15,-4.15,-4.11,-3.74,-2.35,-2.36,-2.36
164.88,1.75,4.11,1.76,4.12,-4.12,-4.09,-3.68,-2.37,-2.36,-2.36
166.53,1.74,4.10,1.73,4.09,-4.10,-4.06,-3.62,-2.36,-2.37,-2.36
168.19,1.70,4.06,1.71,4.07,-4.08,-4.04,-3.57,-2.37,-2.37,-2.36
169.87,1.69,4.05,1.69,4.05,-4.05,-4.01,-3.51,-2.36,-2.36,-2.36
171.57,1.67,4.03,1.67,4.03,-4.03,-3.99,-3.46,-2.36,-2.36,-2.36
173.29,1.65,4.01,1.65,4.02,-4.01,-3.97,-3.42,-2.36,-2.35,-2.36
175.02,1.63,3.99,1.63,3.99,-3.98,-3.94,-3.37,-2.35,-2.36,-2.36
176.77,1.60,3.96,1.60,3.96,-3.96,-3.91,-3.33,-2.36,-2.36,-2.36
178.54,1.56,3.92,1.57,3.93,-3.93,-3.89,-3.29,-2.37,-2.36,-2.36
180.32,1.55,3.91,1.54,3.90,-3.91,-3.86,-3.25,-2.36,-2.36,-2.36
182.13,1.51,3.87,1.52,3.88,-3.88,-3.83,-3.22,-2.37,-2.36,-2.36
183.95,1.49,3.85,1.49,3.85,-3.85,-3.80,-3.19,-2.36,-2.36,-2.36
185.79,1.46,3.82,1.46,3.82,-3.82,-3.78,-3.16,-2.36,-2.36,-2.36
187.65,1.43,3.79,1.43,3.80,-3.80,-3.75,-3.13,-2.36,-2.36,-2.36
189.52,1.41,3.77,1.41,3.77,-3.77,-3.72,-3.10,-2.36,-2.36,-2.36
191.42,1.37,3.73,1.38,3.74,-3.74,-3.69,-3.08,-2.37,-2.36,-2.36
193.33,1.36,3.72,1.35,3.72,-3.72,-3.66,-3.06,-2.35,-2.36,-2.36
195.27,1.32,3.68,1.33,3.69,-3.69,-3.63,-3.04,-2.37,-2.36,-2.36
197.22,1.30,3.66,1.30,3.66,-3.66,-3.60,-3.03,-2.36,-2.36,-2.36
199.19,1.27,3.63,1.27,3.63,-3.63,-3.57,-3.01,-2.36,-2.36,-2.36
201.18,1.24,3.60,1.24,3.61,-3.60,-3.54,-3.00,-2.36,-2.36,-2.36
203.19,1.21,3.57,1.21,3.57,-3.57,-3.51,-2.99,-2.36,-2.36,-2.36
205.23,1.18,3.54,1.18,3.54,-3.54,-3.48,-2.98,-2.36,-2.36,-2.36
207.28,1.14,3.50,1.15,3.51,-3.51,-3.44,-2.97,-2.36,-2.36,-2.36
209.35,1.11,3.47,1.11,3.47,-3.47,-3.41,-2.96,-2.36,-2.36,-2.36
211.44,1.06,3.42,1.07,3.43,-3.43,-3.38,-2.96,-2.36,-2.36,-2.36
213.56,1.02,3.38,1.02,3.38,-3.38,-3.35,-2.95,-2.36,-2.36,-2.36
215.69,0.97,3.33,0.97,3.33,-3.33,-3.32,-2.95,-2.36,-2.36,-2.36
217.85,0.92,3.28,0.92,3.29,-3.28,-3.28,-2.94,-2.36,-2.36,-2.36
220.03,0.87,3.23,0.87,3.23,-3.23,-3.25,-2.94,-2.36,-2.36,-2.36
222.23,0.81,3.17,0.81,3.17,-3.17,-3.22,-2.93,-2.36,-2.36,-2.36
224.45,0.74,3.10,0.75,3.11,-3.12,-3.19,-2.93,-2.37,-2.37,-2.36
226.70,0.69,3.05,0.69,3.05,-3.06,-3.15,-2.92,-2.37,-2.37,-2.36
228.96,0.64,3.00,0.64,3.00,-3.00,-3.12,-2.92,-2.36,-2.36,-2.36
231.25,0.59,2.95,0.59,2.95,-2.94,-3.09,-2.91,-2.35,-2.35,-2.36
233.57,0.53,2.89,0.53,2.89,-2.88,-3.06,-2.90,-2.35,-2.35,-2.36
235.90,0.46,2.82,0.47,2.83,-2.83,-3.02,-2.89,-2.36,-2.36,-2.36
238.26,0.40,2.76,0.41,2.77,-2.77,-2.99,-2.88,-2.37,-2.36,-2.36
240.64,0.35,2.71,0.35,2.71,-2.72,-2.96,-2.87,-2.36,-2.37,-2.36
243.05,0.30,2.66,0.30,2.66,-2.66,-2.92,-2.85,-2.36,-2.37,-2.36
245.48,0.24,2.60,0.25,2.61,-2.62,-2.89,-2.84,-2.37,-2.36,-2.36
247.93,0.21,2.57,0.21,2.57,-2.57,-2.86,-2.82,-2.36,-2.36,-2.36
250.41,0.16,2.52,0.17,2.53,-2.53,-2.83,-2.80,-2.37,-2.36,-2.36
252.92,0.13,2.49,0.13,2.49,-2.49,-2.79,-2.78,-2.36,-2.36,-2.36
255.45,0.10,2.46,0.10,2.46,-2.45,-2.76,-2.75,-2.35,-2.36,-2.36
258.00,0.06,2.42,0.06,2.42,-2.42,-2.73,-2.73,-2.36,-2.36,-2.36
260.58,0.02,2.38,0.03,2.39,-2.39,-2.70,-2.70,-2.37,-2.36,-2.36
263.19,0.00,2.36,0.00,2.36,-2.36,-2.67,-2.67,-2.36,-2.36,-2.36
265.82,-0.03,2.33,-0.03,2.34,-2.34,-2.64,-2.64,-2.37,-2.36,-2.36
268.48,-0.04,2.32,-0.05,2.32,-2.32,-2.60,-2.60,-2.35,-2.36,-2.36
271.16,-0.08,2.28,-0.07,2.29,-2.30,-2.57,-2.57,-2.37,-2.36,-2.36
273.87,-0.08,2.28,-0.09,2.27,-2.28,-2.54,-2.53,-2.35,-2.36,-2.36
276.61,-0.11,2.25,-0.10,2.26,-2.26,-2.51,-2.49,-2.37,-2.36,-2.36
279.38,-0.12,2.24,-0.12,2.25,-2.24,-2.48,-2.45,-2.36,-2.36,-2.36
282.17,-0.12,2.24,-0.13,2.23,-2.23,-2.45,-2.41,-2.34,-2.36,-2.36
284.99,-0.17,2.19,-0.15,2.21,-2.21,-2.42,-2.37,-2.38,-2.36,-2.36
287.84,-0.17,2.19,-0.17,2.19,-2.19,-2.39,-2.33,-2.36,-2.36,-2.36
290.72,-0.19,2.17,-0.20,2.16,-2.17,-2.36,-2.29,-2.36,-2.36,-2.36
293.63,-0.22,2.14,-0.21,2.15,-2.14,-2.33,-2.25,-2.36,-2.36,-2.36
296.57,-0.25,2.11,-0.24,2.12,-2.12,-2.30,-2.21,-2.37,-2.36,-2.36
299.53,-0.26,2.10,-0.27,2.09,-2.09,-2.28,-2.16,-2.35,-2.36,-2.36
302.53,-0.31,2.05,-0.30,2.06,-2.06,-2.25,-2.12,-2.37,-2.36,-2.36
305.55,-0.33,2.03,-0.33,2.03,-2.03,-2.22,-2.08,-2.36,-2.36,-2.36
308.61,-0.36,2.00,-0.37,1.99,-2.00,-2.19,-2.04,-2.35,-2.36,-2.36
311.69,-0.41,1.95,-0.40,1.96,-1.96,-2.16,-2.00,-2.37,-2.36,-2.36
314.81,-0.44,1.92,-0.44,1.92,-1.92,-2.14,-1.96,-2.36,-2.36,-2.36
317.96,-0.47,1.89,-0.48,1.88,-1.88,-2.11,-1.92,-2.35,-2.36,-2.36
321.14,-0.53,1.83,-0.52,1.85,-1.84,-2.08,-1.88,-2.37,-2.36,-2.36
324.35,-0.56,1.80,-0.56,1.80,-1.81,-2.06,-1.84,-2.36,-2.36,-2.36
327.59,-0.59,1.77,-0.60,1.76,-1.77,-2.03,-1.81,-2.36,-2.37,-2.36
330.87,-0.64,1.72,-0.63,1.74,-1.74,-2.01,-1.77,-2.38,-2.36,-2.36
334.18,-0.65,1.71,-0.65,1.71,-1.71,-1.98,-1.74,-2.36,-2.36,-2.36
337.52,-0.68,1.68,-0.68,1.68,-1.68,-1.96,-1.70,-2.36,-2.36,-2.36
340.90,-0.70,1.66,-0.70,1.66,-1.66,-1.93,-1.67,-2.36,-2.36,-2.36
344.30,-0.73,1.63,-0.72,1.64,-1.64,-1.91,-1.64,-2.37,-2.36,-2.36
347.75,-0.73,1.63,-0.73,1.63,-1.63,-1.88,-1.61,-2.35,-2.36,-2.36
351.23,-0.74,1.62,-0.75,1.61,-1.61,-1.86,-1.58,-2.35,-2.36,-2.36
354.74,-0.78,1.58,-0.76,1.60,-1.60,-1.84,-1.55,-2.38,-2.36,-2.36
358.28,-0.78,1.58,-0.77,1.59,-1.59,-1.82,-1.52,-2.37,-2.36,-2.36
361.87,-0.78,1.58,-0.78,1.58,-1.58,-1.79,-1.50,-2.36,-2.36,-2.36
365.49,-0.78,1.58,-0.79,1.58,-1.57,-1.77,-1.47,-2.35,-2.36,-2.36
369.14,-0.80,1.56,-0.80,1.56,-1.56,-1.75,-1.45,-2.36,-2.36,-2.36
372.83,-0.82,1.54,-0.81,1.55,-1.56,-1.73,-1.42,-2.37,-2.37,-2.36
376.56,-0.82,1.54,-0.82,1.54,-1.55,-1.71,-1.40,-2.37,-2.37,-2.36
380.33,-0.82,1.54,-0.81,1.55,-1.54,-1.69,-1.38,-2.36,-2.36,-2.36
384.13,-0.82,1.54,-0.82,1.54,-1.53,-1.67,-1.36,-2.35,-2.35,-2.36
387.97,-0.82,1.54,-0.83,1.53,-1.52,-1.65,-1.34,-2.34,-2.36,-2.36
391.85,-0.87,1.49,-0.85,1.51,-1.51,-1.63,-1.33,-2.38,-2.36,-2.36
395.77,-0.87,1.49,-0.86,1.50,-1.50,-1.61,-1.31,-2.37,-2.36,-2.36
399.73,-0.87,1.49,-0.87,1.49,-1.49,-1.59,-1.29,-2.36,-2.36,-2.36
403.72,-0.87,1.49,-0.88,1.48,-1.48,-1.57,-1.28,-2.34,-2.36,-2.36
407.76,-0.92,1.44,-0.90,1.46,-1.46,-1.56,-1.27,-2.38,-2.36,-2.36
411.84,-0.92,1.44,-0.91,1.45,-1.45,-1.54,-1.25,-2.37,-2.36,-2.36
415.96,-0.92,1.44,-0.93,1.43,-1.44,-1.52,-1.24,-2.36,-2.37,-2.36
420.12,-0.93,1.43,-0.93,1.43,-1.43,-1.51,-1.23,-2.35,-2.36,-2.36
424.32,-0.96,1.40,-0.95,1.41,-1.42,-1.49,-1.22,-2.37,-2.36,-2.36
428.56,-0.96,1.40,-0.95,1.41,-1.40,-1.48,-1.21,-2.36,-2.36,-2.36
432.85,-0.96,1.40,-0.96,1.40,-1.39,-1.46,-1.20,-2.35,-2.36,-2.36
437.18,-0.96,1.40,-0.97,1.39,-1.38,-1.45,-1.20,-2.34,-2.36,-2.36
441.55,-1.01,1.35,-0.99,1.37,-1.37,-1.43,-1.19,-2.38,-2.36,-2.36
445.96,-1.01,1.35,-1.00,1.36,-1.36,-1.42,-1.18,-2.37,-2.37,-2.36
