frequency,raw,error,smoothed,error_smoothed,equalization,parametric_eq,fixed_band_eq,equalized_raw,equalized_smoothed,target
20.00,-12.30,-12.06,-12.22,-11.98,6.00,5.93,2.72,-6.30,-6.22,-0.24
20.20,-12.91,-12.67,-12.96,-12.73,6.00,5.94,2.80,-6.91,-6.96,-0.24
20.40,-13.54,-13.30,-13.62,-13.39,6.00,5.95,2.88,-7.54,-7.62,-0.24
20.61,-14.13,-13.90,-14.20,-13.97,6.00,5.95,2.96,-8.13,-8.20,-0.23
20.81,-14.77,-14.54,-14.77,-14.54,6.00,5.96,3.04,-8.77,-8.77,-0.23
21.02,-15.31,-15.08,-15.15,-14.93,6.00,5.97,3.13,-9.31,-9.15,-0.23
21.23,-15.30,-15.07,-15.33,-15.11,6.00,5.97,3.22,-9.30,-9.33,-0.23
21.44,-15.28,-15.06,-15.34,-15.12,6.00,5.98,3.31,-9.28,-9.34,-0.22
21.66,-15.27,-15.05,-15.28,-15.06,6.00,5.99,3.40,-9.27,-9.28,-0.22
21.87,-15.26,-15.04,-15.24,-15.03,6.00,5.99,3.50,-9.26,-9.24,-0.22
22.09,-15.18,-14.96,-15.16,-14.94,6.00,6.00,3.60,-9.18,-9.16,-0.22
22.31,-15.02,-14.81,-15.03,-14.82,6.00,6.01,3.70,-9.02,-9.03,-0.21
22.54,-14.87,-14.65,-15.05,-14.84,6.00,6.01,3.80,-8.87,-9.05,-0.22
22.76,-14.71,-14.50,-14.81,-14.60,6.00,6.02,3.91,-8.71,-8.81,-0.21
22.99,-14.55,-14.34,-14.03,-13.82,6.00,6.02,4.02,-8.55,-8.03,-0.21
23.22,-12.57,-12.36,-12.63,-12.42,6.00,6.02,4.13,-6.57,-6.63,-0.21
23.45,-10.48,-10.27,-10.42,-10.21,6.00,6.03,4.25,-4.48,-4.42,-0.21
23.69,-8.44,-8.23,-8.19,-7.98,6.00,6.03,4.36,-2.44,-2.19,-0.21
23.92,-6.35,-6.15,-7.04,-6.84,6.00,6.04,4.48,-0.35,-1.04,-0.20
24.16,-6.89,-6.68,-7.12,-6.91,6.00,6.04,4.60,-0.89,-1.12,-0.21
24.40,-8.68,-8.47,-8.45,-8.24,6.00,6.04,4.73,-2.68,-2.45,-0.21
24.65,-10.41,-10.20,-10.44,-10.22,6.00,6.05,4.85,-4.41,-4.44,-0.21
24.89,-12.21,-11.99,-11.95,-11.73,6.00,6.05,4.98,-6.21,-5.95,-0.22
25.14,-12.95,-12.73,-12.78,-12.56,6.00,6.05,5.10,-6.95,-6.78,-0.22
25.39,-12.94,-12.71,-13.08,-12.85,6.00,6.05,5.23,-6.94,-7.08,-0.23
25.65,-12.93,-12.70,-13.00,-12.77,6.00,6.06,5.36,-6.93,-7.00,-0.23
25.91,-12.91,-12.67,-12.90,-12.66,6.00,6.06,5.49,-6.91,-6.90,-0.24
26.16,-12.85,-12.60,-12.84,-12.59,6.00,6.06,5.62,-6.85,-6.84,-0.25
26.43,-12.75,-12.50,-12.76,-12.51,6.00,6.06,5.75,-6.75,-6.76,-0.26
26.69,-12.65,-12.39,-12.66,-12.41,6.00,6.06,5.87,-6.65,-6.66,-0.26
26.96,-12.56,-12.30,-12.54,-12.28,6.00,6.06,6.00,-6.56,-6.54,-0.26
27.23,-12.39,-12.13,-12.38,-12.12,6.00,6.06,6.12,-6.39,-6.38,-0.26
27.50,-12.20,-11.93,-12.20,-11.93,6.00,6.06,6.24,-6.20,-6.20,-0.27
27.77,-12.02,-11.75,-12.02,-11.76,6.00,6.06,6.36,-6.02,-6.02,-0.27
28.05,-11.87,-11.61,-11.91,-11.64,6.00,6.06,6.47,-5.87,-5.91,-0.26
28.33,-11.86,-11.60,-11.87,-11.61,6.00,6.06,6.58,-5.86,-5.87,-0.26
28.62,-11.86,-11.60,-11.86,-11.60,6.00,6.06,6.68,-5.86,-5.86,-0.26
28.90,-11.85,-11.59,-11.81,-11.54,6.00,6.06,6.77,-5.85,-5.81,-0.26
29.19,-11.68,-11.42,-11.66,-11.40,6.00,6.06,6.86,-5.68,-5.66,-0.26
29.48,-11.42,-11.15,-11.43,-11.16,6.00,6.06,6.94,-5.42,-5.43,-0.26
29.78,-11.16,-10.90,-11.17,-10.90,6.00,6.05,7.01,-5.16,-5.17,-0.27
30.08,-10.93,-10.66,-10.96,-10.69,6.00,6.05,7.07,-4.93,-4.96,-0.28
30.38,-10.80,-10.52,-10.80,-10.52,6.00,6.05,7.12,-4.80,-4.80,-0.28
30.68,-10.68,-10.40,-10.67,-10.39,6.00,6.05,7.17,-4.68,-4.67,-0.28
30.99,-10.56,-10.27,-10.56,-10.28,6.00,6.04,7.20,-4.56,-4.56,-0.29
31.30,-10.46,-10.17,-10.46,-10.17,6.00,6.04,7.22,-4.46,-4.46,-0.29
31.61,-10.37,-10.07,-10.37,-10.07,6.00,6.04,7.23,-4.37,-4.37,-0.30
31.93,-10.28,-9.98,-10.28,-9.98,6.00,6.03,7.23,-4.28,-4.28,-0.30
32.24,-10.20,-9.88,-10.21,-9.90,6.00,6.03,7.23,-4.20,-4.21,-0.31
32.57,-10.13,-9.80,-10.14,-9.81,6.00,6.02,7.21,-4.13,-4.14,-0.33
32.89,-10.05,-9.72,-10.03,-9.70,6.00,6.02,7.18,-4.05,-4.03,-0.33
33.22,-9.88,-9.55,-9.86,-9.52,6.00,6.02,7.15,-3.88,-3.86,-0.33
33.55,-9.65,-9.31,-9.65,-9.31,6.00,6.01,7.10,-3.65,-3.65,-0.34
33.89,-9.42,-9.07,-9.45,-9.10,6.00,6.01,7.05,-3.42,-3.45,-0.35
34.23,-9.29,-8.94,-9.31,-8.95,6.00,6.00,7.00,-3.29,-3.31,-0.35
34.57,-9.21,-8.84,-9.21,-8.84,6.00,5.99,6.93,-3.21,-3.21,-0.37
34.92,-9.14,-8.77,-9.12,-8.75,6.00,5.99,6.87,-3.14,-3.12,-0.37
35.27,-9.00,-8.63,-8.99,-8.62,6.00,5.98,6.80,-3.00,-2.99,-0.37
35.62,-8.84,-8.47,-8.84,-8.47,6.00,5.98,6.72,-2.84,-2.84,-0.37
35.97,-8.68,-8.30,-8.70,-8.32,6.00,5.97,6.64,-2.68,-2.70,-0.38
36.33,-8.59,-8.20,-8.59,-8.20,6.00,5.96,6.56,-2.59,-2.59,-0.39
36.70,-8.50,-8.11,-8.49,-8.10,6.00,5.95,6.48,-2.50,-2.49,-0.39
37.06,-8.41,-8.02,-8.40,-8.01,6.00,5.95,6.40,-2.41,-2.40,-0.39
37.43,-8.31,-7.92,-8.31,-7.92,6.00,5.94,6.32,-2.31,-2.31,-0.39
37.81,-8.21,-7.82,-8.22,-7.83,6.00,5.93,6.24,-2.21,-2.22,-0.39
38.19,-8.13,-7.74,-8.13,-7.74,6.00,5.92,6.16,-2.13,-2.13,-0.39
38.57,-8.06,-7.67,-8.05,-7.66,6.00,5.92,6.08,-2.06,-2.05,-0.39
38.95,-7.99,-7.60,-8.01,-7.61,6.00,5.91,6.00,-1.99,-2.01,-0.39
39.34,-7.97,-7.57,-7.98,-7.58,6.00,5.90,5.93,-1.97,-1.98,-0.40
39.74,-7.96,-7.56,-7.95,-7.55,6.00,5.89,5.86,-1.96,-1.95,-0.40
40.14,-7.92,-7.52,-7.91,-7.51,6.00,5.88,5.79,-1.92,-1.91,-0.40
40.54,-7.84,-7.43,-7.85,-7.44,6.00,5.87,5.72,-1.84,-1.85,-0.41
40.94,-7.76,-7.35,-7.76,-7.35,6.00,5.86,5.66,-1.76,-1.76,-0.41
41.35,-7.67,-7.25,-7.67,-7.24,6.00,5.85,5.60,-1.67,-1.67,-0.42
41.76,-7.57,-7.13,-7.57,-7.14,6.00,5.84,5.54,-1.57,-1.57,-0.44
42.18,-7.48,-7.03,-7.47,-7.02,6.00,5.83,5.49,-1.48,-1.47,-0.45
42.60,-7.38,-6.91,-7.38,-6.91,6.00,5.82,5.44,-1.38,-1.38,-0.47
43.03,-7.29,-6.81,-7.32,-6.84,6.00,5.81,5.39,-1.29,-1.32,-0.48
43.46,-7.29,-6.79,-7.29,-6.79,6.00,5.79,5.35,-1.29,-1.29,-0.50
43.90,-7.29,-6.77,-7.26,-6.74,6.00,5.78,5.31,-1.29,-1.26,-0.52
44.33,-7.22,-6.69,-7.22,-6.68,6.01,5.77,5.28,-1.21,-1.21,-0.53
44.78,-7.12,-6.57,-7.13,-6.58,6.01,5.76,5.25,-1.11,-1.11,-0.55
45.23,-7.02,-6.46,-7.02,-6.46,6.01,5.75,5.22,-1.01,-1.01,-0.56
45.68,-6.91,-6.33,-6.91,-6.34,6.00,5.73,5.20,-0.91,-0.91,-0.58
46.13,-6.81,-6.22,-6.81,-6.22,5.99,5.72,5.18,-0.82,-0.82,-0.58
46.60,-6.70,-6.11,-6.70,-6.11,5.97,5.71,5.16,-0.73,-0.73,-0.59
47.06,-6.60,-6.00,-6.59,-5.99,5.94,5.69,5.15,-0.66,-0.64,-0.60
47.53,-6.49,-5.89,-6.48,-5.89,5.90,5.68,5.14,-0.59,-0.58,-0.60
48.01,-6.38,-5.78,-6.42,-5.82,5.85,5.67,5.14,-0.53,-0.57,-0.60
48.49,-6.38,-5.79,-6.38,-5.78,5.79,5.65,5.14,-0.59,-0.59,-0.59
48.97,-6.38,-5.79,-6.34,-5.74,5.72,5.64,5.14,-0.66,-0.62,-0.59
49.46,-6.27,-5.68,-6.27,-5.69,5.65,5.62,5.15,-0.62,-0.62,-0.59
49.96,-6.16,-5.57,-6.16,-5.58,5.59,5.61,5.15,-0.57,-0.57,-0.59
50.46,-6.07,-5.50,-6.06,-5.49,5.54,5.59,5.16,-0.53,-0.52,-0.57
50.96,-5.98,-5.41,-6.02,-5.45,5.50,5.58,5.18,-0.48,-0.52,-0.57
51.47,-6.01,-5.44,-6.01,-5.44,5.46,5.56,5.19,-0.55,-0.55,-0.57
51.99,-6.05,-5.47,-6.00,-5.43,5.42,5.55,5.21,-0.63,-0.59,-0.58
52.51,-5.99,-5.40,-5.99,-5.41,5.37,5.53,5.23,-0.62,-0.62,-0.59
53.03,-5.93,-5.33,-5.97,-5.37,5.33,5.52,5.25,-0.60,-0.64,-0.60
53.56,-5.93,-5.32,-5.92,-5.32,5.29,5.50,5.27,-0.64,-0.63,-0.61
54.10,-5.91,-5.29,-5.86,-5.25,5.24,5.48,5.29,-0.67,-0.62,-0.62
54.64,-5.78,-5.15,-5.80,-5.16,5.18,5.47,5.31,-0.60,-0.61,-0.64
55.18,-5.70,-5.04,-5.73,-5.08,5.11,5.45,5.33,-0.59,-0.62,-0.66
55.74,-5.70,-5.02,-5.70,-5.02,5.03,5.43,5.35,-0.67,-0.67,-0.68
56.29,-5.70,-4.99,-5.70,-5.00,4.95,5.41,5.37,-0.75,-0.75,-0.71
56.86,-5.70,-4.97,-5.66,-4.93,4.88,5.40,5.39,-0.82,-0.78,-0.73
57.42,-5.60,-4.84,-5.59,-4.82,4.82,5.38,5.41,-0.78,-0.77,-0.76
58.00,-5.47,-4.68,-5.51,-4.71,4.77,5.36,5.42,-0.70,-0.74,-0.79
58.58,-5.47,-4.64,-5.48,-4.66,4.73,5.34,5.43,-0.74,-0.75,-0.83
59.16,-5.51,-4.65,-5.53,-4.67,4.71,5.32,5.44,-0.80,-0.82,-0.86
59.76,-5.64,-4.75,-5.61,-4.72,4.69,5.31,5.45,-0.95,-0.92,-0.89
60.35,-5.69,-4.76,-5.67,-4.74,4.69,5.29,5.45,-1.00,-0.98,-0.93
60.96,-5.70,-4.74,-5.69,-4.74,4.71,5.27,5.45,-0.99,-0.99,-0.96
61.57,-5.70,-4.71,-5.72,-4.73,4.73,5.25,5.44,-0.97,-0.98,-0.99
62.18,-5.74,-4.72,-5.78,-4.75,4.77,5.23,5.43,-0.97,-1.00,-1.02
62.80,-5.89,-4.83,-5.86,-4.80,4.81,5.21,5.42,-1.08,-1.04,-1.06
63.43,-5.97,-4.88,-5.96,-4.86,4.86,5.19,5.40,-1.11,-1.09,-1.09
64.07,-6.03,-4.90,-6.05,-4.92,4.92,5.17,5.38,-1.11,-1.13,-1.13
64.71,-6.15,-4.98,-6.14,-4.97,5.00,5.15,5.36,-1.15,-1.15,-1.17
65.35,-6.26,-5.05,-6.26,-5.05,5.08,5.13,5.33,-1.18,-1.18,-1.21
66.01,-6.38,-5.14,-6.39,-5.16,5.17,5.11,5.29,-1.21,-1.23,-1.24
66.67,-6.53,-5.26,-6.52,-5.25,5.25,5.09,5.26,-1.28,-1.27,-1.26
67.33,-6.64,-5.36,-6.63,-5.34,5.32,5.07,5.22,-1.32,-1.31,-1.28
68.01,-6.71,-5.40,-6.73,-5.42,5.38,5.05,5.17,-1.33,-1.35,-1.31
68.69,-6.80,-5.46,-6.79,-5.46,5.43,5.03,5.13,-1.37,-1.36,-1.34
69.37,-6.84,-5.49,-6.83,-5.48,5.47,5.01,5.08,-1.37,-1.36,-1.35
70.07,-6.84,-5.48,-6.85,-5.49,5.49,4.99,5.04,-1.35,-1.36,-1.36
70.77,-6.84,-5.47,-6.84,-5.47,5.49,4.97,4.99,-1.35,-1.35,-1.37
71.48,-6.84,-5.46,-6.84,-5.46,5.48,4.95,4.94,-1.36,-1.36,-1.38
72.19,-6.84,-5.44,-6.85,-5.45,5.45,4.93,4.88,-1.39,-1.39,-1.40
72.91,-6.84,-5.44,-6.85,-5.44,5.42,4.90,4.83,-1.42,-1.43,-1.40
73.64,-6.84,-5.42,-6.82,-5.40,5.37,4.88,4.78,-1.47,-1.45,-1.42
74.38,-6.78,-5.35,-6.76,-5.33,5.32,4.86,4.73,-1.46,-1.44,-1.43
75.12,-6.66,-5.21,-6.69,-5.24,5.26,4.84,4.68,-1.40,-1.43,-1.45
75.87,-6.62,-5.15,-6.64,-5.16,5.20,4.82,4.63,-1.42,-1.44,-1.47
76.63,-6.61,-5.12,-6.61,-5.12,5.12,4.80,4.59,-1.49,-1.49,-1.49
77.40,-6.59,-5.08,-6.56,-5.05,5.04,4.78,4.54,-1.55,-1.53,-1.51
78.17,-6.52,-4.99,-6.51,-4.98,4.95,4.75,4.50,-1.57,-1.56,-1.53
78.95,-6.39,-4.83,-6.44,-4.88,4.87,4.73,4.46,-1.52,-1.57,-1.56
79.74,-6.38,-4.80,-6.36,-4.78,4.79,4.71,4.42,-1.59,-1.57,-1.58
80.54,-6.30,-4.70,-6.28,-4.68,4.71,4.69,4.38,-1.59,-1.57,-1.60
81.35,-6.21,-4.59,-6.22,-4.61,4.63,4.67,4.35,-1.58,-1.60,-1.62
82.16,-6.15,-4.51,-6.18,-4.54,4.54,4.65,4.32,-1.61,-1.64,-1.64
82.98,-6.15,-4.49,-6.15,-4.49,4.46,4.63,4.29,-1.69,-1.68,-1.66
83.81,-6.15,-4.48,-6.09,-4.42,4.39,4.61,4.26,-1.76,-1.70,-1.67
84.65,-6.01,-4.31,-6.03,-4.34,4.33,4.58,4.24,-1.68,-1.70,-1.70
85.50,-5.93,-4.22,-5.96,-4.26,4.28,4.56,4.22,-1.65,-1.68,-1.71
86.35,-5.93,-4.21,-5.92,-4.20,4.23,4.54,4.20,-1.70,-1.69,-1.72
87.22,-5.93,-4.19,-5.92,-4.19,4.19,4.52,4.19,-1.74,-1.73,-1.74
88.09,-5.93,-4.18,-5.93,-4.18,4.16,4.50,4.18,-1.77,-1.77,-1.75
88.97,-5.93,-4.16,-5.93,-4.16,4.14,4.48,4.18,-1.79,-1.79,-1.77
89.86,-5.93,-4.14,-5.92,-4.13,4.14,4.46,4.17,-1.79,-1.78,-1.79
90.76,-5.93,-4.12,-5.92,-4.12,4.15,4.44,4.17,-1.78,-1.77,-1.81
91.66,-5.93,-4.10,-5.96,-4.13,4.17,4.42,4.17,-1.76,-1.79,-1.83
92.58,-6.01,-4.17,-6.02,-4.18,4.19,4.40,4.18,-1.82,-1.83,-1.84
93.51,-6.11,-4.25,-6.09,-4.23,4.20,4.38,4.19,-1.91,-1.88,-1.86
94.44,-6.15,-4.27,-6.14,-4.26,4.22,4.36,4.20,-1.93,-1.92,-1.88
95.39,-6.15,-4.25,-6.16,-4.26,4.22,4.34,4.22,-1.93,-1.94,-1.90
96.34,-6.15,-4.24,-6.15,-4.24,4.22,4.32,4.23,-1.93,-1.93,-1.91
97.30,-6.15,-4.22,-6.15,-4.22,4.21,4.31,4.25,-1.94,-1.94,-1.93
98.28,-6.15,-4.20,-6.15,-4.20,4.20,4.29,4.27,-1.95,-1.95,-1.95
99.26,-6.15,-4.18,-6.15,-4.18,4.19,4.27,4.30,-1.96,-1.96,-1.97
100.25,-6.15,-4.15,-6.14,-4.15,4.18,4.25,4.32,-1.97,-1.96,-2.00
101.25,-6.15,-4.13,-6.16,-4.14,4.17,4.24,4.35,-1.98,-1.98,-2.02
102.27,-6.18,-4.13,-6.21,-4.17,4.18,4.22,4.38,-2.00,-2.04,-2.05
103.29,-6.30,-4.22,-6.29,-4.21,4.19,4.21,4.41,-2.11,-2.09,-2.08
104.32,-6.38,-4.26,-6.34,-4.23,4.21,4.19,4.44,-2.17,-2.13,-2.12
105.37,-6.38,-4.22,-6.38,-4.23,4.22,4.18,4.48,-2.16,-2.16,-2.16
106.42,-6.38,-4.19,-6.43,-4.23,4.23,4.16,4.51,-2.15,-2.20,-2.19
107.48,-6.48,-4.24,-6.49,-4.24,4.23,4.15,4.54,-2.25,-2.25,-2.24
108.56,-6.60,-4.30,-6.56,-4.26,4.23,4.13,4.57,-2.37,-2.33,-2.30
109.64,-6.61,-4.26,-6.61,-4.26,4.23,4.12,4.60,-2.38,-2.38,-2.35
110.74,-6.61,-4.21,-6.60,-4.20,4.23,4.11,4.63,-2.38,-2.37,-2.40
111.85,-6.61,-4.16,-6.63,-4.17,4.22,4.09,4.66,-2.39,-2.40,-2.45
112.97,-6.63,-4.12,-6.69,-4.19,4.22,4.08,4.69,-2.41,-2.48,-2.51
114.10,-6.84,-4.28,-6.77,-4.21,4.20,4.07,4.71,-2.64,-2.57,-2.56
115.24,-6.84,-4.23,-6.83,-4.22,4.18,4.05,4.73,-2.66,-2.65,-2.61
116.39,-6.84,-4.19,-6.86,-4.21,4.16,4.04,4.74,-2.68,-2.70,-2.65
117.55,-6.84,-4.14,-6.84,-4.14,4.14,4.02,4.76,-2.70,-2.70,-2.70
118.73,-6.84,-4.10,-6.84,-4.10,4.10,4.01,4.76,-2.74,-2.74,-2.74
119.92,-6.84,-4.06,-6.84,-4.06,4.07,3.99,4.77,-2.77,-2.77,-2.78
121.12,-6.84,-4.03,-6.84,-4.03,4.03,3.97,4.76,-2.81,-2.81,-2.81
122.33,-6.84,-3.99,-6.84,-3.99,4.00,3.96,4.76,-2.84,-2.84,-2.85
123.55,-6.84,-3.97,-6.83,-3.95,3.99,3.94,4.74,-2.85,-2.85,-2.87
124.79,-6.84,-3.93,-6.83,-3.93,3.98,3.92,4.72,-2.86,-2.85,-2.91
126.03,-6.84,-3.90,-6.86,-3.93,3.98,3.91,4.70,-2.86,-2.88,-2.94
127.29,-6.91,-3.95,-6.93,-3.97,3.97,3.89,4.67,-2.94,-2.96,-2.96
128.57,-7.02,-4.03,-7.01,-4.02,3.95,3.88,4.63,-3.07,-3.06,-2.99
129.85,-7.07,-4.05,-7.04,-4.02,3.93,3.86,4.59,-3.14,-3.11,-3.02
131.15,-7.02,-3.98,-7.00,-3.95,3.89,3.85,4.55,-3.13,-3.11,-3.04
132.46,-6.89,-3.82,-6.92,-3.85,3.85,3.83,4.50,-3.04,-3.08,-3.07
133.79,-6.84,-3.74,-6.86,-3.76,3.80,3.82,4.44,-3.04,-3.06,-3.11
135.12,-6.84,-3.71,-6.83,-3.70,3.75,3.81,4.38,-3.09,-3.08,-3.13
136.48,-6.84,-3.68,-6.84,-3.68,3.70,3.80,4.32,-3.14,-3.13,-3.16
137.84,-6.84,-3.65,-6.83,-3.65,3.67,3.79,4.25,-3.17,-3.16,-3.19
139.22,-6.84,-3.63,-6.84,-3.63,3.66,3.78,4.18,-3.18,-3.17,-3.21
140.61,-6.84,-3.60,-6.88,-3.64,3.67,3.77,4.10,-3.17,-3.21,-3.24
142.02,-6.95,-3.68,-6.94,-3.68,3.68,3.76,4.03,-3.27,-3.27,-3.27
143.44,-7.04,-3.75,-7.01,-3.72,3.69,3.75,3.95,-3.35,-3.32,-3.29
144.87,-7.07,-3.75,-7.07,-3.74,3.69,3.74,3.87,-3.38,-3.37,-3.32
146.32,-7.07,-3.71,-7.08,-3.72,3.69,3.73,3.79,-3.38,-3.39,-3.36
147.78,-7.07,-3.68,-7.07,-3.68,3.67,3.73,3.70,-3.40,-3.40,-3.39
149.26,-7.07,-3.64,-7.07,-3.64,3.64,3.72,3.62,-3.43,-3.43,-3.43
150.75,-7.07,-3.60,-7.07,-3.60,3.59,3.71,3.54,-3.48,-3.48,-3.47
152.26,-7.07,-3.55,-7.07,-3.55,3.53,3.71,3.45,-3.54,-3.54,-3.52
153.78,-7.07,-3.50,-7.07,-3.50,3.48,3.70,3.37,-3.59,-3.59,-3.57
155.32,-7.07,-3.44,-7.06,-3.44,3.45,3.69,3.29,-3.62,-3.62,-3.63
156.88,-7.07,-3.39,-7.06,-3.39,3.44,3.69,3.21,-3.63,-3.62,-3.68
158.44,-7.07,-3.35,-7.08,-3.36,3.44,3.68,3.12,-3.63,-3.64,-3.72
160.03,-7.13,-3.37,-7.15,-3.39,3.46,3.67,3.04,-3.67,-3.69,-3.76
161.63,-7.26,-3.46,-7.27,-3.47,3.49,3.67,2.97,-3.77,-3.79,-3.80
163.24,-7.43,-3.60,-7.40,-3.57,3.52,3.66,2.89,-3.91,-3.88,-3.83
164.88,-7.52,-3.66,-7.49,-3.63,3.55,3.65,2.81,-3.97,-3.94,-3.86
166.53,-7.52,-3.64,-7.53,-3.65,3.59,3.65,2.74,-3.93,-3.94,-3.88
168.19,-7.52,-3.62,-7.53,-3.63,3.62,3.64,2.67,-3.90,-3.91,-3.90
169.87,-7.52,-3.61,-7.52,-3.61,3.63,3.63,2.60,-3.89,-3.89,-3.91
171.57,-7.52,-3.61,-7.52,-3.61,3.64,3.62,2.53,-3.88,-3.88,-3.91
173.29,-7.52,-3.62,-7.52,-3.62,3.64,3.61,2.46,-3.88,-3.88,-3.90
175.02,-7.52,-3.62,-7.52,-3.62,3.64,3.60,2.40,-3.88,-3.88,-3.90
176.77,-7.52,-3.63,-7.52,-3.63,3.65,3.58,2.33,-3.87,-3.87,-3.89
178.54,-7.52,-3.65,-7.52,-3.65,3.66,3.57,2.27,-3.86,-3.86,-3.87
180.32,-7.52,-3.66,-7.52,-3.66,3.67,3.55,2.21,-3.85,-3.85,-3.86
182.13,-7.52,-3.68,-7.52,-3.68,3.68,3.54,2.15,-3.84,-3.84,-3.84
183.95,-7.52,-3.68,-7.54,-3.70,3.67,3.52,2.10,-3.85,-3.87,-3.84
185.79,-7.52,-3.69,-7.52,-3.69,3.65,3.50,2.04,-3.87,-3.87,-3.83
187.65,-7.52,-3.70,-7.46,-3.63,3.61,3.48,1.99,-3.91,-3.84,-3.82
189.52,-7.34,-3.51,-7.39,-3.57,3.57,3.45,1.94,-3.77,-3.83,-3.83
191.42,-7.29,-3.46,-7.32,-3.49,3.50,3.42,1.89,-3.79,-3.82,-3.83
193.33,-7.29,-3.45,-7.24,-3.40,3.42,3.39,1.84,-3.87,-3.82,-3.84
195.27,-7.19,-3.35,-7.20,-3.36,3.33,3.36,1.79,-3.86,-3.86,-3.84
197.22,-7.09,-3.25,-7.12,-3.27,3.24,3.33,1.75,-3.85,-3.88,-3.84
199.19,-7.06,-3.21,-7.02,-3.16,3.15,3.29,1.70,-3.91,-3.87,-3.85
201.18,-6.93,-3.07,-6.94,-3.07,3.08,3.25,1.66,-3.85,-3.85,-3.86
203.19,-6.84,-2.97,-6.87,-3.00,3.03,3.20,1.62,-3.81,-3.84,-3.87
205.23,-6.84,-2.96,-6.82,-2.93,3.00,3.15,1.58,-3.84,-3.82,-3.88
207.28,-6.84,-2.94,-6.83,-2.92,2.99,3.10,1.54,-3.85,-3.84,-3.90
209.35,-6.84,-2.92,-6.88,-2.96,3.00,3.05,1.50,-3.84,-3.88,-3.92
211.44,-6.96,-3.03,-6.95,-3.02,3.03,2.99,1.46,-3.93,-3.92,-3.93
213.56,-7.06,-3.11,-7.02,-3.08,3.07,2.92,1.42,-3.99,-3.96,-3.95
215.69,-7.07,-3.11,-7.07,-3.11,3.09,2.85,1.38,-3.98,-3.98,-3.96
217.85,-7.07,-3.09,-7.09,-3.11,3.09,2.78,1.34,-3.98,-4.00,-3.98
220.03,-7.07,-3.09,-7.08,-3.10,3.05,2.71,1.31,-4.02,-4.03,-3.98
222.23,-7.07,-3.07,-7.05,-3.05,2.97,2.62,1.27,-4.10,-4.09,-4.00
224.45,-6.96,-2.95,-6.95,-2.94,2.84,2.54,1.23,-4.12,-4.11,-4.01
226.70,-6.78,-2.75,-6.75,-2.72,2.67,2.45,1.19,-4.11,-4.07,-4.03
228.96,-6.49,-2.46,-6.51,-2.48,2.49,2.35,1.15,-4.00,-4.03,-4.03
231.25,-6.23,-2.18,-6.28,-2.23,2.29,2.25,1.11,-3.94,-3.99,-4.05
233.57,-6.12,-2.06,-6.07,-2.01,2.09,2.15,1.07,-4.03,-3.97,-4.06
235.90,-5.90,-1.84,-5.92,-1.85,1.91,2.03,1.03,-3.99,-4.01,-4.06
238.26,-5.75,-1.67,-5.78,-1.71,1.74,1.92,0.99,-4.01,-4.04,-4.08
240.64,-5.70,-1.62,-5.65,-1.56,1.60,1.80,0.95,-4.10,-4.05,-4.08
243.05,-5.54,-1.45,-5.58,-1.49,1.48,1.68,0.90,-4.06,-4.10,-4.09
245.48,-5.47,-1.38,-5.49,-1.40,1.37,1.55,0.86,-4.10,-4.12,-4.09
247.93,-5.47,-1.37,-5.41,-1.31,1.28,1.41,0.81,-4.19,-4.13,-4.10
250.41,-5.28,-1.18,-5.31,-1.20,1.19,1.27,0.76,-4.09,-4.12,-4.10
252.92,-5.20,-1.09,-5.19,-1.09,1.09,1.13,0.71,-4.11,-4.10,-4.11
255.45,-5.04,-0.93,-5.07,-0.96,0.99,0.98,0.66,-4.05,-4.08,-4.11
258.00,-5.01,-0.89,-4.99,-0.87,0.88,0.83,0.61,-4.13,-4.11,-4.12
260.58,-4.87,-0.75,-4.87,-0.75,0.75,0.67,0.55,-4.12,-4.12,-4.12
263.19,-4.78,-0.65,-4.76,-0.63,0.60,0.51,0.50,-4.18,-4.16,-4.13
265.82,-4.58,-0.44,-4.63,-0.49,0.44,0.35,0.44,-4.14,-4.19,-4.14
268.48,-4.50,-0.36,-4.47,-0.32,0.27,0.18,0.38,-4.23,-4.20,-4.14
271.16,-4.28,-0.12,-4.25,-0.10,0.09,0.01,0.32,-4.19,-4.16,-4.16
273.87,-4.02,0.14,-4.04,0.12,-0.09,-0.17,0.26,-4.11,-4.13,-4.16
276.61,-3.76,0.40,-3.81,0.36,-0.29,-0.35,0.19,-4.05,-4.09,-4.16
279.38,-3.66,0.51,-3.64,0.54,-0.49,-0.53,0.13,-4.15,-4.13,-4.17
282.17,-3.48,0.70,-3.50,0.68,-0.70,-0.71,0.06,-4.18,-4.20,-4.18
284.99,-3.37,0.81,-3.35,0.83,-0.90,-0.90,-0.01,-4.27,-4.24,-4.18
287.84,-3.16,1.02,-3.13,1.05,-1.09,-1.08,-0.08,-4.25,-4.22,-4.18
290.72,-2.90,1.29,-2.91,1.28,-1.27,-1.27,-0.15,-4.17,-4.18,-4.19
293.63,-2.64,1.55,-2.68,1.51,-1.45,-1.46,-0.22,-4.09,-4.13,-4.19
296.57,-2.52,1.67,-2.51,1.69,-1.63,-1.65,-0.29,-4.16,-4.14,-4.19
299.53,-2.34,1.85,-2.37,1.82,-1.83,-1.84,-0.37,-4.17,-4.20,-4.19
302.53,-2.28,1.93,-2.22,1.98,-2.03,-2.03,-0.45,-4.31,-4.25,-4.21
305.55,-2.05,2.16,-2.03,2.17,-2.22,-2.22,-0.52,-4.27,-4.26,-4.21
308.61,-1.79,2.42,-1.84,2.38,-2.41,-2.40,-0.60,-4.20,-4.25,-4.21
311.69,-1.62,2.60,-1.61,2.61,-2.59,-2.59,-0.68,-4.21,-4.20,-4.22
314.81,-1.45,2.78,-1.43,2.80,-2.77,-2.76,-0.76,-4.21,-4.19,-4.23
317.96,-1.23,3.02,-1.26,2.99,-2.94,-2.94,-0.84,-4.17,-4.21,-4.25
321.14,-1.14,3.13,-1.11,3.15,-3.12,-3.11,-0.93,-4.26,-4.24,-4.27
324.35,-0.96,3.32,-0.98,3.30,-3.30,-3.27,-1.01,-4.26,-4.29,-4.28
327.59,-0.88,3.41,-0.87,3.42,-3.47,-3.43,-1.10,-4.35,-4.34,-4.29
330.87,-0.73,3.57,-0.72,3.59,-3.64,-3.58,-1.18,-4.37,-4.35,-4.30
334.18,-0.58,3.73,-0.57,3.75,-3.79,-3.72,-1.27,-4.37,-4.35,-4.31
337.52,-0.35,3.98,-0.38,3.95,-3.93,-3.85,-1.36,-4.28,-4.31,-4.33
340.90,-0.24,4.09,-0.21,4.12,-4.07,-3.98,-1.45,-4.31,-4.28,-4.33
344.30,-0.05,4.29,-0.09,4.25,-4.20,-4.09,-1.54,-4.25,-4.29,-4.34
347.75,-0.00,4.34,-0.02,4.32,-4.31,-4.19,-1.64,-4.31,-4.33,-4.34
351.23,0.00,4.34,0.05,4.40,-4.40,-4.28,-1.73,-4.40,-4.35,-4.34
354.74,0.10,4.44,0.11,4.45,-4.47,-4.36,-1.83,-4.37,-4.36,-4.34
358.28,0.21,4.55,0.18,4.52,-4.52,-4.43,-1.93,-4.31,-4.34,-4.34
361.87,0.23,4.56,0.23,4.57,-4.54,-4.49,-2.03,-4.31,-4.32,-4.33
365.49,0.23,4.57,0.24,4.58,-4.56,-4.54,-2.13,-4.33,-4.32,-4.34
369.14,0.23,4.57,0.23,4.57,-4.57,-4.58,-2.23,-4.34,-4.34,-4.34
372.83,0.23,4.57,0.23,4.56,-4.58,-4.60,-2.33,-4.35,-4.35,-4.34
376.56,0.23,4.56,0.23,4.56,-4.59,-4.62,-2.44,-4.36,-4.36,-4.33
380.33,0.23,4.56,0.23,4.56,-4.59,-4.63,-2.54,-4.36,-4.36,-4.33
384.13,0.23,4.56,0.23,4.56,-4.57,-4.63,-2.65,-4.34,-4.34,-4.33
387.97,0.23,4.56,0.24,4.57,-4.55,-4.63,-2.76,-4.32,-4.32,-4.33
391.85,0.23,4.56,0.24,4.57,-4.53,-4.61,-2.87,-4.30,-4.29,-4.33
395.77,0.23,4.56,0.21,4.54,-4.51,-4.59,-2.98,-4.28,-4.30,-4.33
399.73,0.17,4.49,0.14,4.47,-4.47,-4.57,-3.09,-4.30,-4.32,-4.32
403.72,0.04,4.36,0.07,4.40,-4.42,-4.54,-3.20,-4.38,-4.35,-4.32
407.76,0.00,4.33,0.03,4.36,-4.36,-4.51,-3.31,-4.36,-4.33,-4.33
411.84,0.00,4.33,-0.01,4.31,-4.30,-4.47,-3.42,-4.30,-4.31,-4.33
415.96,0.00,4.33,-0.07,4.26,-4.24,-4.43,-3.53,-4.24,-4.31,-4.33
420.12,-0.18,4.15,-0.14,4.19,-4.19,-4.39,-3.64,-4.37,-4.33,-4.33
424.32,-0.23,4.10,-0.20,4.12,-4.15,-4.35,-3.75,-4.38,-4.36,-4.33
428.56,-0.23,4.10,-0.24,4.08,-4.13,-4.31,-3.86,-4.36,-4.37,-4.33
432.85,-0.23,4.10,-0.23,4.09,-4.11,-4.27,-3.96,-4.34,-4.34,-4.33
