frequency,raw,error,smoothed,error_smoothed,equalization,parametric_eq,fixed_band_eq,equalized_raw,equalized_smoothed,target
20.00,-3.06,-5.35,-3.06,-5.35,5.35,4.90,1.54,2.29,2.29,2.29
20.20,-3.01,-5.29,-3.01,-5.30,5.30,4.92,1.59,2.29,2.28,2.28
20.40,-2.97,-5.25,-2.96,-5.24,5.24,4.94,1.64,2.27,2.28,2.28
20.61,-2.91,-5.18,-2.91,-5.19,5.19,4.95,1.69,2.28,2.27,2.27
20.81,-2.86,-5.13,-2.86,-5.14,5.14,4.95,1.74,2.27,2.27,2.27
21.02,-2.82,-5.09,-2.82,-5.08,5.08,4.96,1.79,2.26,2.27,2.27
21.23,-2.77,-5.02,-2.78,-5.03,5.03,4.95,1.85,2.26,2.25,2.25
21.44,-2.74,-4.97,-2.74,-4.97,4.97,4.94,1.90,2.23,2.23,2.23
21.66,-2.71,-4.92,-2.71,-4.91,4.92,4.93,1.96,2.21,2.21,2.21
21.87,-2.68,-4.86,-2.68,-4.86,4.86,4.91,2.02,2.18,2.18,2.18
22.09,-2.64,-4.80,-2.65,-4.81,4.81,4.89,2.08,2.17,2.16,2.16
22.31,-2.62,-4.76,-2.62,-4.75,4.75,4.86,2.14,2.13,2.13,2.14
22.54,-2.59,-4.70,-2.59,-4.70,4.69,4.83,2.21,2.10,2.10,2.11
22.76,-2.56,-4.64,-2.57,-4.64,4.64,4.79,2.27,2.08,2.07,2.08
22.99,-2.54,-4.59,-2.54,-4.58,4.59,4.75,2.34,2.05,2.05,2.05
23.22,-2.51,-4.53,-2.51,-4.53,4.54,4.71,2.41,2.03,2.03,2.02
23.45,-2.48,-4.48,-2.48,-4.48,4.49,4.66,2.48,2.01,2.00,2.00
23.69,-2.46,-4.44,-2.46,-4.43,4.44,4.61,2.55,1.98,1.98,1.98
23.92,-2.43,-4.39,-2.43,-4.39,4.40,4.56,2.63,1.97,1.96,1.96
24.16,-2.41,-4.36,-2.41,-4.35,4.35,4.50,2.70,1.94,1.94,1.95
24.40,-2.39,-4.32,-2.39,-4.32,4.31,4.44,2.78,1.92,1.92,1.93
24.65,-2.37,-4.28,-2.37,-4.27,4.27,4.37,2.85,1.90,1.90,1.91
24.89,-2.34,-4.22,-2.34,-4.22,4.22,4.31,2.93,1.88,1.88,1.88
25.14,-2.31,-4.17,-2.31,-4.18,4.18,4.24,3.01,1.87,1.87,1.86
25.39,-2.28,-4.12,-2.28,-4.13,4.13,4.17,3.08,1.85,1.85,1.84
25.65,-2.25,-4.08,-2.25,-4.08,4.08,4.10,3.16,1.83,1.83,1.83
25.91,-2.22,-4.02,-2.22,-4.03,4.03,4.02,3.24,1.80,1.81,1.80
26.16,-2.18,-3.97,-2.18,-3.97,3.97,3.95,3.32,1.79,1.79,1.79
26.43,-2.14,-3.91,-2.14,-3.92,3.91,3.87,3.39,1.77,1.77,1.77
26.69,-2.10,-3.86,-2.10,-3.86,3.86,3.80,3.46,1.76,1.76,1.76
26.96,-2.06,-3.80,-2.06,-3.80,3.80,3.72,3.54,1.73,1.74,1.74
27.23,-2.01,-3.74,-2.02,-3.74,3.74,3.64,3.61,1.72,1.72,1.73
27.50,-1.97,-3.68,-1.97,-3.68,3.68,3.56,3.67,1.70,1.71,1.71
27.77,-1.93,-3.62,-1.93,-3.62,3.62,3.48,3.74,1.69,1.69,1.69
28.05,-1.88,-3.56,-1.89,-3.55,3.57,3.40,3.80,1.69,1.68,1.68
28.33,-1.85,-3.50,-1.85,-3.50,3.52,3.33,3.86,1.67,1.67,1.65
28.62,-1.82,-3.46,-1.82,-3.46,3.47,3.25,3.91,1.65,1.65,1.64
28.90,-1.80,-3.44,-1.80,-3.43,3.43,3.17,3.95,1.63,1.63,1.63
29.19,-1.78,-3.39,-1.78,-3.40,3.39,3.09,3.99,1.61,1.62,1.61
29.48,-1.75,-3.36,-1.75,-3.36,3.36,3.01,4.03,1.61,1.60,1.61
29.78,-1.73,-3.32,-1.73,-3.33,3.32,2.94,4.06,1.59,1.59,1.59
30.08,-1.71,-3.29,-1.71,-3.29,3.28,2.86,4.08,1.57,1.57,1.58
30.38,-1.69,-3.25,-1.69,-3.24,3.24,2.78,4.09,1.55,1.55,1.56
30.68,-1.65,-3.19,-1.65,-3.19,3.19,2.71,4.10,1.54,1.54,1.54
30.99,-1.61,-3.13,-1.61,-3.14,3.13,2.63,4.10,1.52,1.52,1.52
31.30,-1.57,-3.08,-1.57,-3.07,3.08,2.56,4.09,1.50,1.51,1.51
31.61,-1.52,-3.02,-1.53,-3.01,3.01,2.49,4.07,1.49,1.49,1.50
31.93,-1.48,-2.95,-1.48,-2.95,2.95,2.42,4.04,1.47,1.47,1.46
32.24,-1.44,-2.88,-1.44,-2.88,2.88,2.34,4.01,1.44,1.45,1.44
32.57,-1.39,-2.81,-1.39,-2.81,2.82,2.27,3.97,1.43,1.43,1.42
32.89,-1.34,-2.75,-1.34,-2.75,2.75,2.20,3.93,1.41,1.40,1.41
33.22,-1.29,-2.67,-1.29,-2.68,2.68,2.14,3.87,1.39,1.38,1.38
33.55,-1.25,-2.62,-1.24,-2.61,2.60,2.07,3.81,1.35,1.36,1.37
33.89,-1.19,-2.53,-1.19,-2.53,2.53,2.00,3.74,1.34,1.34,1.33
34.23,-1.14,-2.46,-1.14,-2.46,2.46,1.94,3.67,1.31,1.32,1.32
34.57,-1.08,-2.37,-1.08,-2.37,2.38,1.87,3.59,1.30,1.30,1.29
34.92,-1.02,-2.29,-1.02,-2.30,2.30,1.81,3.51,1.28,1.28,1.27
35.27,-0.96,-2.22,-0.96,-2.22,2.21,1.74,3.43,1.25,1.25,1.26
35.62,-0.90,-2.14,-0.90,-2.13,2.13,1.68,3.34,1.23,1.23,1.24
35.97,-0.84,-2.04,-0.84,-2.05,2.04,1.62,3.24,1.20,1.21,1.20
36.33,-0.76,-1.95,-0.77,-1.95,1.95,1.56,3.14,1.19,1.19,1.19
36.70,-0.70,-1.87,-0.70,-1.86,1.86,1.50,3.05,1.16,1.17,1.17
37.06,-0.63,-1.77,-0.63,-1.77,1.77,1.44,2.94,1.14,1.15,1.14
37.43,-0.56,-1.68,-0.56,-1.68,1.68,1.38,2.84,1.12,1.12,1.12
37.81,-0.49,-1.59,-0.49,-1.59,1.59,1.33,2.74,1.10,1.10,1.10
38.19,-0.42,-1.50,-0.42,-1.51,1.50,1.27,2.63,1.08,1.08,1.08
38.57,-0.36,-1.43,-0.36,-1.42,1.42,1.22,2.53,1.06,1.06,1.07
38.95,-0.29,-1.33,-0.29,-1.33,1.33,1.16,2.42,1.04,1.04,1.04
39.34,-0.23,-1.25,-0.23,-1.25,1.25,1.11,2.31,1.02,1.02,1.02
39.74,-0.17,-1.16,-0.17,-1.16,1.17,1.05,2.21,1.00,1.00,0.99
40.14,-0.11,-1.09,-0.11,-1.09,1.09,1.00,2.10,0.98,0.98,0.97
40.54,-0.06,-1.01,-0.06,-1.01,1.02,0.95,1.99,0.96,0.96,0.95
40.94,-0.01,-0.95,-0.01,-0.94,0.95,0.90,1.89,0.93,0.94,0.94
41.35,0.04,-0.87,0.04,-0.88,0.88,0.85,1.78,0.92,0.92,0.91
41.76,0.09,-0.81,0.09,-0.81,0.81,0.80,1.68,0.90,0.90,0.90
42.18,0.14,-0.75,0.14,-0.75,0.75,0.75,1.57,0.89,0.88,0.89
42.60,0.18,-0.68,0.18,-0.69,0.68,0.70,1.47,0.86,0.86,0.86
43.03,0.23,-0.63,0.23,-0.63,0.62,0.65,1.37,0.84,0.84,0.86
43.46,0.27,-0.56,0.27,-0.55,0.55,0.60,1.27,0.82,0.82,0.83
43.90,0.32,-0.48,0.32,-0.49,0.48,0.56,1.16,0.80,0.80,0.80
44.33,0.37,-0.40,0.36,-0.41,0.42,0.51,1.06,0.79,0.78,0.77
44.78,0.40,-0.36,0.40,-0.35,0.36,0.46,0.97,0.75,0.76,0.76
45.23,0.45,-0.29,0.45,-0.29,0.29,0.42,0.87,0.74,0.74,0.73
45.68,0.48,-0.24,0.48,-0.23,0.24,0.37,0.77,0.71,0.72,0.72
46.13,0.53,-0.16,0.52,-0.17,0.18,0.33,0.67,0.71,0.70,0.69
46.60,0.56,-0.13,0.56,-0.12,0.12,0.28,0.58,0.68,0.69,0.69
47.06,0.60,-0.07,0.60,-0.07,0.07,0.24,0.48,0.67,0.67,0.67
47.53,0.63,-0.03,0.63,-0.03,0.02,0.19,0.39,0.65,0.65,0.66
48.01,0.67,0.03,0.67,0.03,-0.04,0.15,0.30,0.63,0.63,0.64
48.49,0.70,0.09,0.70,0.09,-0.09,0.11,0.20,0.61,0.61,0.61
48.97,0.73,0.14,0.73,0.14,-0.14,0.06,0.11,0.58,0.59,0.59
49.46,0.76,0.20,0.76,0.20,-0.20,0.02,0.02,0.56,0.56,0.56
49.96,0.79,0.26,0.79,0.25,-0.25,-0.02,-0.07,0.54,0.54,0.53
50.46,0.82,0.31,0.82,0.31,-0.30,-0.07,-0.15,0.52,0.52,0.51
50.96,0.85,0.35,0.85,0.36,-0.35,-0.11,-0.24,0.50,0.50,0.50
51.47,0.88,0.41,0.88,0.41,-0.40,-0.15,-0.33,0.48,0.48,0.47
51.99,0.90,0.45,0.90,0.45,-0.45,-0.19,-0.41,0.45,0.45,0.45
52.51,0.93,0.49,0.93,0.49,-0.49,-0.23,-0.49,0.43,0.43,0.44
53.03,0.95,0.53,0.95,0.53,-0.54,-0.27,-0.58,0.41,0.41,0.42
53.56,0.98,0.59,0.98,0.58,-0.59,-0.32,-0.66,0.39,0.39,0.39
54.10,1.01,0.64,1.01,0.63,-0.63,-0.36,-0.73,0.38,0.37,0.37
54.64,1.03,0.68,1.03,0.68,-0.68,-0.40,-0.81,0.35,0.35,0.35
55.18,1.06,0.73,1.06,0.72,-0.72,-0.44,-0.89,0.33,0.33,0.33
55.74,1.08,0.77,1.08,0.77,-0.77,-0.48,-0.96,0.31,0.31,0.31
56.29,1.10,0.81,1.10,0.81,-0.81,-0.52,-1.03,0.29,0.29,0.29
56.86,1.13,0.86,1.13,0.86,-0.86,-0.56,-1.10,0.27,0.27,0.27
57.42,1.15,0.90,1.15,0.90,-0.90,-0.60,-1.16,0.25,0.25,0.25
58.00,1.17,0.94,1.17,0.94,-0.93,-0.64,-1.22,0.24,0.24,0.23
58.58,1.19,0.97,1.19,0.97,-0.97,-0.68,-1.28,0.22,0.22,0.22
59.16,1.22,1.01,1.21,1.01,-1.01,-0.72,-1.34,0.21,0.20,0.21
59.76,1.23,1.04,1.23,1.05,-1.05,-0.77,-1.39,0.18,0.18,0.18
60.35,1.25,1.09,1.25,1.08,-1.09,-0.81,-1.44,0.16,0.16,0.16
60.96,1.26,1.11,1.26,1.12,-1.13,-0.85,-1.49,0.13,0.13,0.15
61.57,1.28,1.17,1.28,1.17,-1.17,-0.89,-1.53,0.11,0.11,0.11
62.18,1.30,1.21,1.30,1.21,-1.21,-0.93,-1.57,0.09,0.09,0.08
62.80,1.32,1.25,1.31,1.25,-1.24,-0.97,-1.61,0.08,0.07,0.07
63.43,1.33,1.29,1.33,1.28,-1.28,-1.01,-1.64,0.05,0.05,0.04
64.07,1.33,1.30,1.34,1.31,-1.31,-1.05,-1.67,0.02,0.03,0.03
64.71,1.35,1.34,1.35,1.34,-1.34,-1.09,-1.70,0.01,0.00,0.01
65.35,1.36,1.37,1.36,1.37,-1.37,-1.13,-1.73,-0.01,-0.01,-0.01
66.01,1.37,1.40,1.37,1.40,-1.40,-1.17,-1.75,-0.03,-0.03,-0.03
66.67,1.38,1.43,1.38,1.43,-1.43,-1.21,-1.77,-0.05,-0.05,-0.05
67.33,1.39,1.46,1.39,1.45,-1.45,-1.25,-1.79,-0.06,-0.07,-0.07
68.01,1.39,1.48,1.39,1.48,-1.48,-1.29,-1.80,-0.09,-0.08,-0.09
68.69,1.40,1.51,1.40,1.50,-1.50,-1.33,-1.81,-0.10,-0.11,-0.11
69.37,1.40,1.53,1.40,1.53,-1.53,-1.37,-1.82,-0.13,-0.13,-0.13
70.07,1.40,1.55,1.40,1.55,-1.55,-1.41,-1.83,-0.15,-0.15,-0.15
70.77,1.41,1.57,1.41,1.57,-1.58,-1.45,-1.84,-0.17,-0.17,-0.16
71.48,1.41,1.60,1.41,1.60,-1.60,-1.50,-1.85,-0.19,-0.19,-0.19
72.19,1.41,1.62,1.41,1.62,-1.62,-1.54,-1.86,-0.21,-0.21,-0.21
72.91,1.41,1.65,1.41,1.65,-1.65,-1.58,-1.86,-0.24,-0.24,-0.24
73.64,1.41,1.68,1.41,1.67,-1.67,-1.62,-1.87,-0.26,-0.26,-0.27
74.38,1.40,1.68,1.41,1.69,-1.69,-1.66,-1.87,-0.29,-0.29,-0.28
75.12,1.41,1.72,1.40,1.71,-1.71,-1.70,-1.88,-0.31,-0.31,-0.31
75.87,1.40,1.74,1.40,1.73,-1.74,-1.74,-1.88,-0.34,-0.34,-0.34
76.63,1.40,1.75,1.40,1.76,-1.76,-1.78,-1.89,-0.36,-0.36,-0.35
77.40,1.39,1.77,1.39,1.78,-1.78,-1.82,-1.89,-0.39,-0.39,-0.38
78.17,1.39,1.81,1.39,1.80,-1.80,-1.86,-1.90,-0.41,-0.41,-0.42
78.95,1.39,1.83,1.38,1.82,-1.82,-1.90,-1.91,-0.43,-0.44,-0.44
79.74,1.38,1.84,1.38,1.84,-1.84,-1.94,-1.92,-0.46,-0.46,-0.46
80.54,1.37,1.86,1.37,1.86,-1.86,-1.98,-1.93,-0.50,-0.49,-0.49
81.35,1.37,1.89,1.37,1.88,-1.89,-2.02,-1.94,-0.52,-0.52,-0.52
82.16,1.36,1.91,1.36,1.91,-1.91,-2.05,-1.95,-0.55,-0.55,-0.55
82.98,1.35,1.92,1.35,1.93,-1.93,-2.09,-1.97,-0.58,-0.58,-0.57
83.81,1.34,1.95,1.34,1.95,-1.95,-2.13,-1.98,-0.61,-0.61,-0.62
84.65,1.32,1.97,1.32,1.97,-1.97,-2.17,-2.00,-0.65,-0.64,-0.65
85.50,1.31,1.98,1.31,1.99,-1.99,-2.21,-2.02,-0.68,-0.68,-0.67
86.35,1.30,2.00,1.30,2.00,-2.01,-2.24,-2.04,-0.71,-0.71,-0.71
87.22,1.29,2.03,1.29,2.03,-2.03,-2.28,-2.06,-0.74,-0.74,-0.74
88.09,1.28,2.05,1.28,2.05,-2.05,-2.32,-2.08,-0.77,-0.77,-0.77
88.97,1.27,2.07,1.27,2.07,-2.07,-2.35,-2.11,-0.80,-0.80,-0.80
89.86,1.26,2.08,1.26,2.09,-2.09,-2.39,-2.14,-0.83,-0.83,-0.83
90.76,1.24,2.11,1.24,2.11,-2.11,-2.42,-2.16,-0.87,-0.87,-0.87
91.66,1.23,2.13,1.23,2.13,-2.13,-2.46,-2.19,-0.90,-0.90,-0.90
92.58,1.22,2.16,1.22,2.15,-2.15,-2.49,-2.23,-0.93,-0.94,-0.95
93.51,1.20,2.16,1.21,2.17,-2.18,-2.52,-2.26,-0.98,-0.97,-0.96
94.44,1.20,2.20,1.19,2.20,-2.20,-2.55,-2.30,-1.00,-1.00,-1.00
95.39,1.18,2.22,1.18,2.22,-2.22,-2.59,-2.33,-1.04,-1.04,-1.04
96.34,1.17,2.26,1.17,2.25,-2.25,-2.62,-2.37,-1.08,-1.08,-1.09
97.30,1.15,2.27,1.15,2.28,-2.27,-2.65,-2.41,-1.12,-1.12,-1.12
98.28,1.14,2.30,1.14,2.30,-2.30,-2.67,-2.45,-1.16,-1.16,-1.16
99.26,1.12,2.32,1.12,2.32,-2.33,-2.70,-2.49,-1.21,-1.20,-1.20
100.25,1.11,2.35,1.11,2.35,-2.35,-2.73,-2.54,-1.24,-1.24,-1.24
101.25,1.10,2.38,1.10,2.38,-2.38,-2.75,-2.58,-1.28,-1.28,-1.28
102.27,1.08,2.40,1.08,2.41,-2.41,-2.78,-2.62,-1.33,-1.32,-1.32
103.29,1.07,2.45,1.07,2.44,-2.43,-2.80,-2.67,-1.36,-1.36,-1.38
104.32,1.05,2.46,1.05,2.46,-2.46,-2.83,-2.71,-1.41,-1.41,-1.41
105.37,1.04,2.50,1.03,2.49,-2.49,-2.85,-2.76,-1.45,-1.45,-1.46
106.42,1.01,2.51,1.01,2.51,-2.52,-2.87,-2.80,-1.51,-1.50,-1.50
107.48,1.00,2.54,1.00,2.54,-2.54,-2.89,-2.85,-1.55,-1.55,-1.54
108.56,0.98,2.58,0.98,2.57,-2.57,-2.91,-2.89,-1.59,-1.59,-1.60
109.64,0.97,2.60,0.97,2.60,-2.60,-2.92,-2.93,-1.63,-1.64,-1.64
110.74,0.95,2.63,0.95,2.63,-2.63,-2.94,-2.97,-1.68,-1.68,-1.68
111.85,0.93,2.65,0.93,2.66,-2.66,-2.95,-3.01,-1.73,-1.73,-1.72
112.97,0.91,2.70,0.91,2.69,-2.69,-2.97,-3.05,-1.78,-1.78,-1.79
114.10,0.89,2.72,0.89,2.72,-2.72,-2.98,-3.09,-1.83,-1.83,-1.83
115.24,0.87,2.75,0.87,2.75,-2.75,-2.99,-3.12,-1.88,-1.88,-1.88
116.39,0.85,2.78,0.85,2.78,-2.78,-3.00,-3.15,-1.93,-1.93,-1.93
117.55,0.83,2.80,0.83,2.80,-2.80,-3.00,-3.18,-1.97,-1.97,-1.97
118.73,0.80,2.82,0.80,2.82,-2.82,-3.01,-3.20,-2.02,-2.02,-2.02
119.92,0.78,2.84,0.78,2.84,-2.84,-3.01,-3.22,-2.06,-2.06,-2.06
121.12,0.75,2.85,0.75,2.86,-2.85,-3.02,-3.23,-2.10,-2.10,-2.11
122.33,0.72,2.87,0.72,2.87,-2.87,-3.02,-3.25,-2.15,-2.15,-2.15
123.55,0.69,2.88,0.69,2.88,-2.88,-3.02,-3.25,-2.19,-2.19,-2.19
124.79,0.66,2.88,0.66,2.89,-2.89,-3.02,-3.26,-2.23,-2.23,-2.22
126.03,0.63,2.90,0.63,2.90,-2.90,-3.02,-3.26,-2.27,-2.28,-2.27
127.29,0.60,2.91,0.60,2.91,-2.92,-3.01,-3.25,-2.32,-2.32,-2.31
128.57,0.57,2.93,0.57,2.93,-2.93,-3.01,-3.24,-2.36,-2.36,-2.36
129.85,0.55,2.95,0.55,2.94,-2.94,-3.00,-3.23,-2.39,-2.39,-2.40
131.15,0.52,2.95,0.52,2.95,-2.95,-2.99,-3.21,-2.43,-2.43,-2.43
132.46,0.50,2.96,0.50,2.97,-2.96,-2.99,-3.19,-2.46,-2.47,-2.47
133.79,0.47,2.97,0.47,2.97,-2.97,-2.98,-3.17,-2.50,-2.50,-2.50
135.12,0.45,2.99,0.45,2.98,-2.98,-2.96,-3.14,-2.53,-2.54,-2.54
136.48,0.42,2.98,0.42,2.99,-2.99,-2.95,-3.11,-2.57,-2.57,-2.56
137.84,0.40,2.99,0.40,2.99,-2.99,-2.94,-3.07,-2.59,-2.59,-2.59
139.22,0.38,3.00,0.38,2.99,-2.99,-2.92,-3.04,-2.61,-2.62,-2.62
140.61,0.35,3.00,0.35,3.00,-2.99,-2.91,-3.00,-2.64,-2.64,-2.65
142.02,0.33,2.99,0.33,2.99,-2.99,-2.89,-2.96,-2.66,-2.66,-2.66
143.44,0.30,2.98,0.30,2.98,-2.98,-2.87,-2.92,-2.68,-2.68,-2.69
144.87,0.27,2.97,0.27,2.97,-2.97,-2.85,-2.88,-2.70,-2.70,-2.70
146.32,0.25,2.97,0.24,2.96,-2.96,-2.83,-2.84,-2.71,-2.72,-2.72
147.78,0.21,2.94,0.21,2.95,-2.95,-2.81,-2.79,-2.74,-2.74,-2.74
149.26,0.18,2.93,0.18,2.94,-2.94,-2.79,-2.75,-2.76,-2.76,-2.75
150.75,0.14,2.93,0.14,2.92,-2.92,-2.76,-2.70,-2.78,-2.78,-2.79
152.26,0.11,2.91,0.11,2.91,-2.91,-2.74,-2.66,-2.80,-2.80,-2.80
153.78,0.08,2.89,0.08,2.90,-2.89,-2.71,-2.62,-2.81,-2.81,-2.81
155.32,0.05,2.89,0.05,2.88,-2.88,-2.69,-2.57,-2.83,-2.83,-2.84
156.88,0.01,2.86,0.01,2.86,-2.86,-2.66,-2.53,-2.85,-2.85,-2.85
158.44,-0.03,2.84,-0.03,2.85,-2.85,-2.64,-2.49,-2.88,-2.88,-2.87
160.03,-0.06,2.83,-0.07,2.83,-2.84,-2.61,-2.45,-2.90,-2.90,-2.89
161.63,-0.10,2.82,-0.10,2.82,-2.82,-2.58,-2.41,-2.92,-2.92,-2.92
163.24,-0.13,2.81,-0.13,2.81,-2.81,-2.55,-2.37,-2.94,-2.94,-2.95
164.88,-0.15,2.80,-0.16,2.80,-2.80,-2.52,-2.34,-2.95,-2.96,-2.96
166.53,-0.19,2.78,-0.19,2.79,-2.79,-2.49,-2.30,-2.98,-2.98,-2.97
168.19,-0.22,2.78,-0.22,2.78,-2.78,-2.46,-2.27,-3.00,-3.00,-3.00
169.87,-0.25,2.77,-0.25,2.77,-2.77,-2.43,-2.24,-3.02,-3.02,-3.02
171.57,-0.28,2.77,-0.28,2.76,-2.76,-2.40,-2.21,-3.04,-3.05,-3.05
173.29,-0.32,2.74,-0.32,2.75,-2.75,-2.37,-2.18,-3.08,-3.07,-3.07
175.02,-0.35,2.74,-0.35,2.74,-2.75,-2.34,-2.15,-3.10,-3.10,-3.09
176.77,-0.39,2.74,-0.39,2.74,-2.74,-2.30,-2.13,-3.13,-3.13,-3.13
178.54,-0.42,2.74,-0.42,2.73,-2.73,-2.27,-2.10,-3.15,-3.16,-3.16
180.32,-0.46,2.73,-0.46,2.73,-2.72,-2.24,-2.08,-3.18,-3.19,-3.19
182.13,-0.51,2.70,-0.51,2.71,-2.71,-2.21,-2.06,-3.22,-3.22,-3.21
183.95,-0.55,2.71,-0.55,2.70,-2.70,-2.18,-2.05,-3.25,-3.25,-3.26
185.79,-0.59,2.69,-0.60,2.69,-2.69,-2.14,-2.03,-3.28,-3.28,-3.28
187.65,-0.64,2.67,-0.64,2.68,-2.67,-2.11,-2.01,-3.31,-3.31,-3.32
189.52,-0.69,2.65,-0.69,2.65,-2.65,-2.08,-2.00,-3.34,-3.34,-3.34
191.42,-0.73,2.64,-0.74,2.63,-2.63,-2.04,-1.99,-3.36,-3.37,-3.37
193.33,-0.79,2.60,-0.79,2.60,-2.61,-2.01,-1.98,-3.40,-3.40,-3.39
195.27,-0.84,2.58,-0.85,2.58,-2.58,-1.98,-1.97,-3.42,-3.42,-3.42
197.22,-0.91,2.53,-0.90,2.55,-2.55,-1.94,-1.96,-3.46,-3.45,-3.45
199.19,-0.96,2.53,-0.96,2.51,-2.51,-1.91,-1.95,-3.47,-3.47,-3.49
201.18,-1.02,2.48,-1.03,2.47,-2.47,-1.88,-1.95,-3.49,-3.50,-3.50
203.19,-1.10,2.42,-1.10,2.43,-2.42,-1.84,-1.94,-3.53,-3.52,-3.52
205.23,-1.17,2.38,-1.17,2.37,-2.37,-1.81,-1.94,-3.54,-3.54,-3.55
207.28,-1.24,2.31,-1.24,2.31,-2.32,-1.78,-1.93,-3.56,-3.56,-3.55
209.35,-1.32,2.25,-1.32,2.26,-2.26,-1.74,-1.93,-3.58,-3.57,-3.58
211.44,-1.39,2.21,-1.40,2.20,-2.19,-1.71,-1.93,-3.58,-3.59,-3.60
213.56,-1.48,2.13,-1.48,2.13,-2.12,-1.68,-1.92,-3.60,-3.60,-3.61
215.69,-1.57,2.04,-1.57,2.05,-2.05,-1.65,-1.92,-3.62,-3.62,-3.61
217.85,-1.66,1.97,-1.66,1.97,-1.97,-1.61,-1.92,-3.63,-3.63,-3.63
220.03,-1.73,1.91,-1.73,1.90,-1.90,-1.58,-1.91,-3.63,-3.64,-3.64
222.23,-1.80,1.84,-1.81,1.83,-1.83,-1.55,-1.91,-3.64,-3.64,-3.64
224.45,-1.87,1.76,-1.87,1.77,-1.77,-1.52,-1.90,-3.64,-3.64,-3.63
226.70,-1.92,1.71,-1.92,1.71,-1.72,-1.48,-1.90,-3.64,-3.64,-3.63
228.96,-1.95,1.67,-1.95,1.67,-1.68,-1.45,-1.89,-3.64,-3.64,-3.63
231.25,-1.97,1.64,-1.97,1.64,-1.66,-1.42,-1.88,-3.63,-3.63,-3.61
233.57,-1.98,1.63,-1.98,1.63,-1.64,-1.39,-1.87,-3.62,-3.62,-3.61
235.90,-1.97,1.62,-1.97,1.63,-1.63,-1.35,-1.86,-3.60,-3.60,-3.59
238.26,-1.95,1.64,-1.95,1.63,-1.63,-1.32,-1.84,-3.58,-3.58,-3.59
240.64,-1.93,1.63,-1.93,1.64,-1.63,-1.29,-1.82,-3.56,-3.56,-3.57
243.05,-1.90,1.65,-1.91,1.64,-1.63,-1.26,-1.80,-3.53,-3.54,-3.55
245.48,-1.89,1.63,-1.89,1.64,-1.63,-1.22,-1.78,-3.52,-3.52,-3.53
247.93,-1.88,1.62,-1.87,1.63,-1.63,-1.19,-1.76,-3.51,-3.50,-3.50
250.41,-1.86,1.63,-1.87,1.62,-1.61,-1.16,-1.73,-3.47,-3.48,-3.50
252.92,-1.86,1.60,-1.87,1.60,-1.59,-1.12,-1.70,-3.45,-3.46,-3.46
255.45,-1.88,1.55,-1.87,1.57,-1.56,-1.09,-1.67,-3.44,-3.44,-3.43
258.00,-1.89,1.53,-1.89,1.52,-1.53,-1.06,-1.63,-3.42,-3.42,-3.42
260.58,-1.90,1.49,-1.91,1.49,-1.49,-1.02,-1.59,-3.39,-3.39,-3.39
263.19,-1.93,1.44,-1.93,1.44,-1.44,-0.99,-1.55,-3.37,-3.37,-3.37
265.82,-1.95,1.40,-1.95,1.39,-1.39,-0.96,-1.51,-3.34,-3.34,-3.35
268.48,-1.98,1.33,-1.98,1.34,-1.34,-0.92,-1.47,-3.32,-3.32,-3.31
271.16,-2.01,1.28,-2.01,1.28,-1.28,-0.89,-1.42,-3.29,-3.30,-3.29
273.87,-2.05,1.22,-2.05,1.22,-1.23,-0.85,-1.37,-3.28,-3.27,-3.27
276.61,-2.08,1.16,-2.08,1.17,-1.17,-0.81,-1.32,-3.25,-3.25,-3.24
279.38,-2.11,1.12,-2.11,1.11,-1.11,-0.77,-1.27,-3.22,-3.22,-3.23
282.17,-2.15,1.05,-2.15,1.05,-1.05,-0.74,-1.21,-3.20,-3.20,-3.20
284.99,-2.19,0.98,-2.19,0.98,-0.98,-0.70,-1.15,-3.17,-3.17,-3.17
287.84,-2.23,0.92,-2.23,0.92,-0.92,-0.66,-1.10,-3.15,-3.15,-3.15
290.72,-2.27,0.85,-2.27,0.85,-0.85,-0.61,-1.04,-3.12,-3.12,-3.12
293.63,-2.31,0.78,-2.31,0.78,-0.78,-0.57,-0.98,-3.09,-3.09,-3.09
296.57,-2.36,0.70,-2.36,0.71,-0.70,-0.52,-0.91,-3.07,-3.06,-3.06
299.53,-2.41,0.63,-2.41,0.63,-0.62,-0.47,-0.85,-3.04,-3.04,-3.04
302.53,-2.46,0.56,-2.46,0.55,-0.54,-0.42,-0.79,-3.00,-3.00,-3.02
305.55,-2.52,0.45,-2.52,0.46,-0.45,-0.37,-0.72,-2.98,-2.97,-2.97
308.61,-2.57,0.37,-2.58,0.36,-0.36,-0.31,-0.66,-2.94,-2.94,-2.94
311.69,-2.64,0.26,-2.64,0.26,-0.27,-0.26,-0.59,-2.91,-2.91,-2.91
314.81,-2.70,0.16,-2.70,0.17,-0.17,-0.19,-0.53,-2.87,-2.87,-2.86
317.96,-2.77,0.07,-2.77,0.07,-0.07,-0.13,-0.46,-2.84,-2.84,-2.84
321.14,-2.84,-0.03,-2.84,-0.03,0.04,-0.05,-0.39,-2.80,-2.80,-2.81
324.35,-2.92,-0.14,-2.92,-0.14,0.15,0.02,-0.32,-2.77,-2.77,-2.78
327.59,-3.01,-0.26,-3.01,-0.26,0.26,0.10,-0.26,-2.75,-2.75,-2.75
330.87,-3.10,-0.38,-3.10,-0.37,0.38,0.19,-0.19,-2.72,-2.72,-2.73
334.18,-3.19,-0.48,-3.19,-0.49,0.49,0.28,-0.12,-2.70,-2.70,-2.71
337.52,-3.28,-0.59,-3.28,-0.60,0.60,0.37,-0.05,-2.68,-2.68,-2.69
340.90,-3.37,-0.71,-3.37,-0.71,0.71,0.47,0.02,-2.66,-2.66,-2.66
344.30,-3.45,-0.81,-3.45,-0.81,0.80,0.56,0.09,-2.65,-2.65,-2.64
347.75,-3.52,-0.90,-3.52,-0.90,0.89,0.66,0.16,-2.64,-2.63,-2.62
351.23,-3.56,-0.96,-3.57,-0.96,0.95,0.75,0.23,-2.61,-2.62,-2.60
354.74,-3.60,-1.02,-3.59,-1.01,0.99,0.84,0.30,-2.61,-2.60,-2.59
358.28,-3.60,-1.03,-3.60,-1.03,1.02,0.92,0.37,-2.58,-2.58,-2.57
361.87,-3.58,-1.03,-3.59,-1.04,1.02,0.98,0.44,-2.56,-2.56,-2.55
365.49,-3.55,-1.02,-3.55,-1.02,1.01,1.03,0.51,-2.54,-2.54,-2.53
369.14,-3.50,-0.98,-3.50,-0.98,0.98,1.05,0.58,-2.52,-2.52,-2.52
372.83,-3.43,-0.93,-3.44,-0.93,0.94,1.06,0.65,-2.49,-2.50,-2.50
376.56,-3.36,-0.87,-3.36,-0.88,0.89,1.05,0.72,-2.47,-2.48,-2.49
380.33,-3.30,-0.84,-3.29,-0.83,0.84,1.03,0.79,-2.46,-2.46,-2.46
384.13,-3.22,-0.78,-3.23,-0.78,0.79,0.99,0.86,-2.44,-2.44,-2.44
387.97,-3.16,-0.74,-3.16,-0.74,0.74,0.94,0.94,-2.42,-2.42,-2.42
391.85,-3.10,-0.69,-3.10,-0.69,0.70,0.89,1.01,-2.40,-2.40,-2.42
395.77,-3.05,-0.66,-3.05,-0.66,0.67,0.84,1.08,-2.38,-2.38,-2.39
399.73,-3.00,-0.63,-3.00,-0.63,0.64,0.79,1.15,-2.36,-2.36,-2.37
403.72,-2.96,-0.61,-2.97,-0.62,0.62,0.74,1.22,-2.34,-2.34,-2.35
407.76,-2.94,-0.61,-2.94,-0.61,0.61,0.70,1.29,-2.33,-2.32,-2.33
411.84,-2.92,-0.62,-2.92,-0.61,0.61,0.66,1.36,-2.31,-2.31,-2.30
415.96,-2.89,-0.61,-2.90,-0.62,0.61,0.62,1.43,-2.28,-2.29,-2.28
420.12,-2.88,-0.62,-2.88,-0.62,0.62,0.60,1.49,-2.26,-2.26,-2.26
424.32,-2.87,-0.63,-2.87,-0.63,0.63,0.57,1.56,-2.24,-2.24,-2.24
428.56,-2.86,-0.64,-2.86,-0.64,0.64,0.55,1.63,-2.22,-2.22,-2.22
432.85,-2.86,-0.66,-2.86,-0.66,0.66,0.54,1.69,-2.20,-2.20,-2.20
437.18,-2.86,-0.69,-2.86,-0.68,0.68,0.53,1.75,-2.18,-2.17,-2.17
441.55,-2.85,-0.71,-2.86,-0.71,0.71,0.53,1.81,-2.14,-2.15,-2.14
445.96,-2.86,-0.74,-2.86,-0.74,0.74,0.53,1.86,-2.12,-2.12,-2.12
450.42,-2.86,-0.76,-2.86,-0.77,0.77,0.53,1.92,-2.09,-2.09,-2.10
454.93,-2.88,-0.82,-2.88,-0.80,0.81,0.54,1.97,-2.07,-2.07,-2.06
459.48,-2.88,-0.84,-2.89,-0.84,0.84,0.55,2.02,-2.04,-2.04,-2.04
464.07,-2.90,-0.89,-2.90,-0.89,0.88,0.56,2.06,-2.02,-2.02,-2.02
468.71,-2.91,-0.93,-2.91,-0.92,0.92,0.58,2.10,-1.99,-1.99,-1.99
473.40,-2.92,-0.97,-2.92,-0.97,0.96,0.60,2.13,-1.96,-1.96,-1.96
