frequency,raw,error,smoothed,error_smoothed,equalization,parametric_eq,fixed_band_eq,equalized_raw,equalized_smoothed,target
20.00,-3.06,-5.34,-3.06,-5.34,5.34,5.53,1.46,2.28,2.28,2.28
20.20,-3.01,-5.28,-3.01,-5.29,5.29,5.48,1.51,2.28,2.27,2.27
20.40,-2.97,-5.24,-2.96,-5.23,5.23,5.43,1.55,2.26,2.27,2.27
20.61,-2.91,-5.17,-2.91,-5.18,5.18,5.37,1.60,2.27,2.26,2.26
20.81,-2.86,-5.12,-2.86,-5.13,5.12,5.32,1.65,2.26,2.26,2.26
21.02,-2.82,-5.08,-2.82,-5.07,5.07,5.26,1.70,2.25,2.25,2.26
21.23,-2.77,-5.01,-2.78,-5.02,5.02,5.20,1.75,2.24,2.24,2.24
21.44,-2.74,-4.96,-2.74,-4.96,4.96,5.15,1.80,2.22,2.22,2.22
21.66,-2.71,-4.91,-2.71,-4.90,4.91,5.09,1.86,2.19,2.20,2.20
21.87,-2.68,-4.85,-2.68,-4.85,4.85,5.03,1.92,2.17,2.17,2.17
22.09,-2.64,-4.79,-2.65,-4.80,4.80,4.97,1.97,2.15,2.15,2.15
22.31,-2.62,-4.75,-2.62,-4.74,4.74,4.92,2.03,2.12,2.12,2.13
22.54,-2.59,-4.69,-2.59,-4.69,4.68,4.86,2.09,2.09,2.09,2.10
22.76,-2.56,-4.63,-2.57,-4.63,4.63,4.80,2.16,2.07,2.06,2.07
22.99,-2.54,-4.58,-2.54,-4.57,4.58,4.74,2.22,2.03,2.04,2.04
23.22,-2.51,-4.52,-2.51,-4.52,4.52,4.68,2.29,2.01,2.01,2.01
23.45,-2.48,-4.47,-2.48,-4.47,4.48,4.62,2.35,2.00,1.99,1.99
23.69,-2.46,-4.43,-2.46,-4.42,4.43,4.56,2.42,1.97,1.97,1.97
23.92,-2.43,-4.38,-2.43,-4.38,4.38,4.50,2.49,1.95,1.95,1.94
24.16,-2.41,-4.34,-2.41,-4.34,4.34,4.44,2.56,1.93,1.93,1.93
24.40,-2.39,-4.30,-2.39,-4.30,4.30,4.38,2.63,1.91,1.91,1.91
24.65,-2.37,-4.26,-2.37,-4.26,4.25,4.32,2.71,1.88,1.89,1.89
24.89,-2.34,-4.21,-2.34,-4.21,4.21,4.25,2.78,1.87,1.87,1.87
25.14,-2.31,-4.16,-2.31,-4.16,4.16,4.19,2.85,1.85,1.85,1.85
25.39,-2.28,-4.11,-2.28,-4.11,4.12,4.13,2.93,1.84,1.83,1.83
25.65,-2.25,-4.07,-2.25,-4.07,4.07,4.07,3.00,1.81,1.81,1.82
25.91,-2.22,-4.01,-2.22,-4.01,4.01,4.00,3.07,1.79,1.79,1.79
26.16,-2.18,-3.96,-2.18,-3.96,3.96,3.94,3.15,1.78,1.78,1.78
26.43,-2.14,-3.90,-2.14,-3.90,3.90,3.88,3.22,1.76,1.76,1.76
26.69,-2.10,-3.85,-2.10,-3.85,3.84,3.81,3.29,1.74,1.74,1.75
26.96,-2.06,-3.79,-2.06,-3.79,3.78,3.75,3.36,1.72,1.72,1.73
27.23,-2.01,-3.73,-2.02,-3.73,3.72,3.68,3.42,1.71,1.71,1.72
27.50,-1.97,-3.67,-1.97,-3.67,3.66,3.62,3.49,1.69,1.69,1.69
27.77,-1.93,-3.60,-1.93,-3.60,3.61,3.55,3.55,1.67,1.68,1.67
28.05,-1.88,-3.54,-1.89,-3.54,3.55,3.49,3.61,1.67,1.67,1.66
28.33,-1.85,-3.48,-1.85,-3.49,3.50,3.42,3.66,1.65,1.65,1.63
28.62,-1.82,-3.44,-1.82,-3.45,3.46,3.36,3.71,1.64,1.64,1.62
28.90,-1.80,-3.42,-1.80,-3.41,3.42,3.29,3.75,1.62,1.62,1.62
29.19,-1.78,-3.38,-1.78,-3.38,3.38,3.23,3.79,1.60,1.60,1.60
29.48,-1.75,-3.35,-1.75,-3.35,3.34,3.16,3.83,1.59,1.59,1.60
29.78,-1.73,-3.31,-1.73,-3.31,3.31,3.09,3.85,1.57,1.57,1.58
30.08,-1.71,-3.28,-1.71,-3.28,3.27,3.03,3.87,1.56,1.56,1.57
30.38,-1.69,-3.24,-1.69,-3.23,3.22,2.96,3.89,1.53,1.54,1.54
30.68,-1.65,-3.17,-1.65,-3.18,3.17,2.89,3.89,1.52,1.52,1.52
30.99,-1.61,-3.11,-1.61,-3.12,3.12,2.83,3.89,1.51,1.51,1.50
31.30,-1.57,-3.06,-1.57,-3.06,3.06,2.76,3.88,1.49,1.49,1.49
31.61,-1.52,-3.00,-1.53,-3.00,3.00,2.69,3.87,1.48,1.47,1.48
31.93,-1.48,-2.93,-1.48,-2.93,2.93,2.63,3.84,1.45,1.45,1.45
32.24,-1.44,-2.87,-1.44,-2.87,2.87,2.56,3.81,1.43,1.43,1.43
32.57,-1.39,-2.80,-1.39,-2.80,2.80,2.49,3.77,1.41,1.41,1.40
32.89,-1.34,-2.73,-1.34,-2.73,2.73,2.42,3.73,1.39,1.39,1.39
33.22,-1.29,-2.65,-1.29,-2.66,2.66,2.36,3.68,1.37,1.37,1.36
33.55,-1.25,-2.60,-1.24,-2.59,2.59,2.29,3.62,1.34,1.34,1.35
33.89,-1.19,-2.51,-1.19,-2.52,2.51,2.22,3.56,1.32,1.32,1.32
34.23,-1.14,-2.45,-1.14,-2.44,2.44,2.15,3.49,1.30,1.30,1.31
34.57,-1.08,-2.35,-1.08,-2.36,2.36,2.09,3.41,1.28,1.28,1.27
34.92,-1.02,-2.27,-1.02,-2.28,2.28,2.02,3.34,1.26,1.26,1.25
35.27,-0.96,-2.20,-0.96,-2.20,2.20,1.95,3.25,1.23,1.23,1.24
35.62,-0.90,-2.12,-0.90,-2.11,2.11,1.89,3.17,1.21,1.21,1.22
35.97,-0.84,-2.02,-0.84,-2.03,2.02,1.82,3.08,1.18,1.19,1.18
36.33,-0.76,-1.93,-0.77,-1.94,1.93,1.75,2.99,1.17,1.17,1.17
36.70,-0.70,-1.85,-0.70,-1.84,1.84,1.68,2.89,1.14,1.15,1.15
37.06,-0.63,-1.75,-0.63,-1.75,1.76,1.62,2.80,1.13,1.13,1.12
37.43,-0.56,-1.66,-0.56,-1.66,1.66,1.55,2.70,1.10,1.10,1.10
37.81,-0.49,-1.57,-0.49,-1.57,1.57,1.49,2.60,1.08,1.08,1.08
38.19,-0.42,-1.48,-0.42,-1.49,1.48,1.42,2.50,1.06,1.06,1.06
38.57,-0.36,-1.41,-0.36,-1.40,1.40,1.35,2.40,1.04,1.04,1.05
38.95,-0.29,-1.31,-0.29,-1.31,1.31,1.29,2.29,1.02,1.02,1.02
39.34,-0.23,-1.23,-0.23,-1.23,1.23,1.22,2.19,1.00,1.00,1.00
39.74,-0.17,-1.14,-0.17,-1.14,1.15,1.16,2.09,0.98,0.98,0.97
40.14,-0.11,-1.06,-0.11,-1.06,1.07,1.09,1.99,0.96,0.95,0.95
40.54,-0.06,-0.99,-0.06,-0.99,0.99,1.03,1.89,0.93,0.93,0.93
40.94,-0.01,-0.93,-0.01,-0.92,0.92,0.96,1.79,0.91,0.91,0.91
41.35,0.04,-0.85,0.04,-0.85,0.86,0.90,1.69,0.89,0.90,0.89
41.76,0.09,-0.79,0.09,-0.79,0.79,0.84,1.59,0.88,0.88,0.88
42.18,0.14,-0.72,0.14,-0.72,0.72,0.78,1.49,0.86,0.86,0.86
42.60,0.18,-0.66,0.18,-0.66,0.66,0.71,1.39,0.84,0.84,0.84
43.03,0.23,-0.60,0.23,-0.60,0.59,0.65,1.29,0.82,0.82,0.83
43.46,0.27,-0.54,0.27,-0.53,0.53,0.59,1.19,0.79,0.80,0.81
43.90,0.32,-0.46,0.32,-0.46,0.46,0.53,1.10,0.78,0.78,0.77
44.33,0.37,-0.38,0.36,-0.39,0.39,0.47,1.00,0.76,0.76,0.75
44.78,0.40,-0.34,0.40,-0.33,0.33,0.41,0.91,0.73,0.74,0.73
45.23,0.45,-0.26,0.45,-0.26,0.27,0.35,0.81,0.72,0.71,0.71
45.68,0.48,-0.21,0.48,-0.21,0.21,0.29,0.72,0.69,0.69,0.69
46.13,0.53,-0.14,0.52,-0.15,0.15,0.23,0.63,0.68,0.68,0.67
46.60,0.56,-0.10,0.56,-0.10,0.10,0.18,0.54,0.66,0.66,0.66
47.06,0.60,-0.05,0.60,-0.05,0.04,0.12,0.44,0.64,0.64,0.65
47.53,0.63,0.00,0.63,0.00,-0.01,0.06,0.36,0.62,0.62,0.63
48.01,0.67,0.06,0.67,0.06,-0.06,0.01,0.27,0.61,0.60,0.61
48.49,0.70,0.11,0.70,0.11,-0.12,-0.05,0.18,0.58,0.58,0.59
48.97,0.73,0.17,0.73,0.17,-0.17,-0.10,0.09,0.56,0.56,0.56
49.46,0.76,0.23,0.76,0.23,-0.23,-0.16,0.01,0.53,0.53,0.53
49.96,0.79,0.29,0.79,0.28,-0.28,-0.21,-0.08,0.51,0.51,0.50
50.46,0.82,0.33,0.82,0.34,-0.33,-0.26,-0.16,0.49,0.49,0.49
50.96,0.85,0.38,0.85,0.39,-0.38,-0.31,-0.25,0.47,0.47,0.47
51.47,0.88,0.44,0.88,0.43,-0.43,-0.36,-0.33,0.45,0.45,0.44
51.99,0.90,0.48,0.90,0.48,-0.48,-0.41,-0.41,0.42,0.42,0.42
52.51,0.93,0.52,0.93,0.52,-0.52,-0.46,-0.49,0.40,0.40,0.41
53.03,0.95,0.56,0.95,0.56,-0.57,-0.51,-0.57,0.38,0.38,0.39
53.56,0.98,0.62,0.98,0.61,-0.62,-0.55,-0.64,0.36,0.36,0.36
54.10,1.01,0.67,1.01,0.66,-0.66,-0.60,-0.72,0.35,0.34,0.34
54.64,1.03,0.71,1.03,0.71,-0.71,-0.65,-0.79,0.32,0.32,0.32
55.18,1.06,0.76,1.06,0.76,-0.76,-0.69,-0.86,0.30,0.30,0.30
55.74,1.08,0.80,1.08,0.80,-0.80,-0.73,-0.93,0.28,0.28,0.28
56.29,1.10,0.84,1.10,0.85,-0.84,-0.78,-1.00,0.25,0.26,0.26
56.86,1.13,0.89,1.13,0.89,-0.89,-0.82,-1.06,0.24,0.24,0.24
57.42,1.15,0.94,1.15,0.93,-0.93,-0.86,-1.13,0.22,0.22,0.21
58.00,1.17,0.97,1.17,0.97,-0.97,-0.90,-1.19,0.20,0.21,0.20
58.58,1.19,1.00,1.19,1.00,-1.00,-0.94,-1.24,0.18,0.19,0.19
59.16,1.22,1.04,1.21,1.04,-1.04,-0.98,-1.30,0.18,0.17,0.17
59.76,1.23,1.08,1.23,1.08,-1.08,-1.02,-1.35,0.15,0.15,0.15
60.35,1.25,1.12,1.25,1.12,-1.12,-1.06,-1.39,0.13,0.12,0.13
60.96,1.26,1.15,1.26,1.16,-1.16,-1.09,-1.44,0.10,0.10,0.11
61.57,1.28,1.20,1.28,1.20,-1.20,-1.13,-1.48,0.08,0.08,0.08
62.18,1.30,1.25,1.30,1.24,-1.24,-1.17,-1.52,0.06,0.06,0.05
62.80,1.32,1.28,1.31,1.28,-1.28,-1.20,-1.55,0.04,0.04,0.04
63.43,1.33,1.32,1.33,1.32,-1.31,-1.24,-1.59,0.02,0.02,0.01
64.07,1.33,1.34,1.34,1.34,-1.34,-1.27,-1.62,-0.02,-0.01,-0.01
64.71,1.35,1.37,1.35,1.37,-1.38,-1.30,-1.64,-0.03,-0.03,-0.03
65.35,1.36,1.40,1.36,1.40,-1.41,-1.33,-1.66,-0.05,-0.05,-0.04
66.01,1.37,1.43,1.37,1.43,-1.43,-1.37,-1.69,-0.06,-0.06,-0.06
66.67,1.38,1.46,1.38,1.46,-1.46,-1.40,-1.70,-0.08,-0.08,-0.08
67.33,1.39,1.49,1.39,1.49,-1.49,-1.43,-1.72,-0.10,-0.10,-0.10
68.01,1.39,1.51,1.39,1.51,-1.51,-1.46,-1.73,-0.12,-0.12,-0.12
68.69,1.40,1.54,1.40,1.54,-1.54,-1.49,-1.74,-0.14,-0.14,-0.14
69.37,1.40,1.56,1.40,1.56,-1.56,-1.52,-1.75,-0.16,-0.16,-0.16
70.07,1.40,1.58,1.40,1.58,-1.59,-1.54,-1.76,-0.19,-0.18,-0.18
70.77,1.41,1.61,1.41,1.61,-1.61,-1.57,-1.77,-0.20,-0.20,-0.20
71.48,1.41,1.63,1.41,1.63,-1.63,-1.60,-1.77,-0.22,-0.22,-0.22
72.19,1.41,1.65,1.41,1.66,-1.66,-1.63,-1.78,-0.25,-0.25,-0.24
72.91,1.41,1.69,1.41,1.68,-1.68,-1.66,-1.78,-0.27,-0.27,-0.28
73.64,1.41,1.71,1.41,1.71,-1.70,-1.68,-1.79,-0.29,-0.29,-0.30
74.38,1.40,1.72,1.41,1.73,-1.72,-1.71,-1.79,-0.33,-0.32,-0.32
75.12,1.41,1.75,1.40,1.75,-1.75,-1.74,-1.80,-0.34,-0.34,-0.34
75.87,1.40,1.77,1.40,1.76,-1.77,-1.76,-1.80,-0.37,-0.37,-0.37
76.63,1.40,1.78,1.40,1.79,-1.79,-1.79,-1.80,-0.39,-0.39,-0.39
77.40,1.39,1.80,1.39,1.81,-1.81,-1.81,-1.81,-0.42,-0.42,-0.41
78.17,1.39,1.84,1.39,1.83,-1.83,-1.84,-1.81,-0.44,-0.44,-0.45
78.95,1.39,1.86,1.38,1.85,-1.85,-1.86,-1.82,-0.46,-0.47,-0.47
79.74,1.38,1.87,1.38,1.87,-1.87,-1.89,-1.83,-0.49,-0.49,-0.49
80.54,1.37,1.89,1.37,1.89,-1.89,-1.92,-1.83,-0.53,-0.52,-0.52
81.35,1.37,1.92,1.37,1.91,-1.91,-1.94,-1.84,-0.55,-0.55,-0.55
82.16,1.36,1.94,1.36,1.94,-1.93,-1.97,-1.85,-0.58,-0.57,-0.58
82.98,1.35,1.95,1.35,1.96,-1.95,-1.99,-1.86,-0.60,-0.60,-0.60
83.81,1.34,1.98,1.34,1.97,-1.97,-2.02,-1.88,-0.63,-0.64,-0.64
84.65,1.32,1.99,1.32,1.99,-1.99,-2.04,-1.89,-0.67,-0.67,-0.67
85.50,1.31,2.01,1.31,2.01,-2.01,-2.06,-1.91,-0.70,-0.70,-0.70
86.35,1.30,2.03,1.30,2.03,-2.03,-2.09,-1.92,-0.73,-0.73,-0.73
87.22,1.29,2.05,1.29,2.05,-2.05,-2.11,-1.94,-0.76,-0.76,-0.76
88.09,1.28,2.08,1.28,2.07,-2.07,-2.14,-1.96,-0.79,-0.79,-0.80
88.97,1.27,2.09,1.27,2.09,-2.09,-2.16,-1.98,-0.82,-0.82,-0.82
89.86,1.26,2.11,1.26,2.11,-2.11,-2.19,-2.01,-0.85,-0.85,-0.85
90.76,1.24,2.13,1.24,2.13,-2.13,-2.21,-2.03,-0.89,-0.89,-0.89
91.66,1.23,2.15,1.23,2.15,-2.15,-2.24,-2.06,-0.92,-0.92,-0.92
92.58,1.22,2.18,1.22,2.17,-2.17,-2.26,-2.09,-0.95,-0.96,-0.96
93.51,1.20,2.18,1.21,2.19,-2.19,-2.28,-2.12,-0.99,-0.99,-0.98
94.44,1.20,2.22,1.19,2.21,-2.22,-2.31,-2.15,-1.02,-1.02,-1.02
95.39,1.18,2.23,1.18,2.24,-2.24,-2.33,-2.18,-1.06,-1.06,-1.05
96.34,1.17,2.27,1.17,2.27,-2.26,-2.36,-2.22,-1.09,-1.09,-1.10
97.30,1.15,2.29,1.15,2.29,-2.29,-2.38,-2.25,-1.14,-1.14,-1.14
98.28,1.14,2.32,1.14,2.31,-2.31,-2.40,-2.29,-1.17,-1.18,-1.18
99.26,1.12,2.33,1.12,2.34,-2.34,-2.43,-2.33,-1.22,-1.22,-1.21
100.25,1.11,2.36,1.11,2.36,-2.36,-2.45,-2.36,-1.26,-1.26,-1.25
101.25,1.10,2.39,1.10,2.39,-2.39,-2.47,-2.40,-1.29,-1.29,-1.29
102.27,1.08,2.41,1.08,2.42,-2.42,-2.49,-2.44,-1.34,-1.33,-1.33
103.29,1.07,2.46,1.07,2.45,-2.44,-2.52,-2.48,-1.37,-1.37,-1.39
104.32,1.05,2.46,1.05,2.47,-2.47,-2.54,-2.52,-1.42,-1.42,-1.42
105.37,1.04,2.50,1.03,2.49,-2.49,-2.56,-2.56,-1.45,-1.46,-1.46
106.42,1.01,2.51,1.01,2.52,-2.52,-2.58,-2.60,-1.51,-1.51,-1.50
107.48,1.00,2.54,1.00,2.54,-2.55,-2.60,-2.65,-1.55,-1.55,-1.54
108.56,0.98,2.58,0.98,2.57,-2.58,-2.62,-2.68,-1.60,-1.59,-1.60
109.64,0.97,2.61,0.97,2.60,-2.60,-2.64,-2.72,-1.63,-1.64,-1.64
110.74,0.95,2.63,0.95,2.63,-2.63,-2.66,-2.76,-1.68,-1.68,-1.68
111.85,0.93,2.65,0.93,2.66,-2.66,-2.68,-2.80,-1.73,-1.73,-1.72
112.97,0.91,2.70,0.91,2.69,-2.69,-2.70,-2.83,-1.78,-1.78,-1.79
114.10,0.89,2.72,0.89,2.72,-2.72,-2.72,-2.86,-1.83,-1.83,-1.83
115.24,0.87,2.74,0.87,2.75,-2.75,-2.73,-2.89,-1.88,-1.88,-1.88
116.39,0.85,2.77,0.85,2.77,-2.77,-2.75,-2.92,-1.92,-1.92,-1.92
117.55,0.83,2.80,0.83,2.79,-2.79,-2.77,-2.95,-1.96,-1.97,-1.97
118.73,0.80,2.81,0.80,2.81,-2.81,-2.78,-2.97,-2.01,-2.01,-2.02
119.92,0.78,2.83,0.78,2.83,-2.83,-2.80,-2.99,-2.05,-2.05,-2.05
121.12,0.75,2.85,0.75,2.85,-2.84,-2.81,-3.00,-2.09,-2.09,-2.10
122.33,0.72,2.86,0.72,2.86,-2.86,-2.83,-3.01,-2.14,-2.14,-2.14
123.55,0.69,2.87,0.69,2.87,-2.87,-2.84,-3.02,-2.18,-2.18,-2.18
124.79,0.66,2.87,0.66,2.88,-2.88,-2.85,-3.03,-2.22,-2.22,-2.21
126.03,0.63,2.89,0.63,2.88,-2.89,-2.86,-3.03,-2.26,-2.26,-2.26
127.29,0.60,2.90,0.60,2.90,-2.90,-2.87,-3.03,-2.30,-2.30,-2.30
128.57,0.57,2.91,0.57,2.92,-2.91,-2.88,-3.02,-2.35,-2.34,-2.34
129.85,0.55,2.94,0.55,2.93,-2.93,-2.89,-3.01,-2.38,-2.38,-2.39
131.15,0.52,2.94,0.52,2.94,-2.94,-2.90,-3.00,-2.42,-2.42,-2.42
132.46,0.50,2.95,0.50,2.95,-2.95,-2.90,-2.98,-2.45,-2.45,-2.45
133.79,0.47,2.95,0.47,2.96,-2.96,-2.91,-2.96,-2.49,-2.49,-2.48
135.12,0.45,2.97,0.45,2.96,-2.97,-2.91,-2.94,-2.52,-2.52,-2.52
136.48,0.42,2.96,0.42,2.97,-2.97,-2.92,-2.92,-2.55,-2.55,-2.54
137.84,0.40,2.97,0.40,2.98,-2.97,-2.92,-2.89,-2.57,-2.57,-2.57
139.22,0.38,2.98,0.38,2.98,-2.97,-2.92,-2.86,-2.60,-2.60,-2.60
140.61,0.35,2.98,0.35,2.98,-2.97,-2.92,-2.83,-2.62,-2.62,-2.63
142.02,0.33,2.97,0.33,2.97,-2.97,-2.92,-2.80,-2.64,-2.64,-2.64
143.44,0.30,2.97,0.30,2.96,-2.96,-2.92,-2.76,-2.66,-2.66,-2.67
144.87,0.27,2.95,0.27,2.95,-2.95,-2.92,-2.73,-2.68,-2.68,-2.68
146.32,0.25,2.95,0.24,2.94,-2.94,-2.92,-2.70,-2.69,-2.70,-2.70
147.78,0.21,2.92,0.21,2.93,-2.93,-2.91,-2.66,-2.72,-2.72,-2.72
149.26,0.18,2.91,0.18,2.91,-2.92,-2.91,-2.63,-2.74,-2.74,-2.73
150.75,0.14,2.90,0.14,2.90,-2.90,-2.90,-2.59,-2.76,-2.76,-2.77
152.26,0.11,2.89,0.11,2.89,-2.89,-2.90,-2.56,-2.78,-2.78,-2.78
153.78,0.08,2.87,0.08,2.88,-2.87,-2.89,-2.52,-2.79,-2.79,-2.79
155.32,0.05,2.87,0.05,2.86,-2.86,-2.88,-2.49,-2.81,-2.81,-2.82
156.88,0.01,2.84,0.01,2.84,-2.84,-2.87,-2.45,-2.83,-2.83,-2.83
158.44,-0.03,2.82,-0.03,2.82,-2.83,-2.86,-2.42,-2.86,-2.86,-2.85
160.03,-0.06,2.81,-0.07,2.81,-2.81,-2.85,-2.39,-2.88,-2.88,-2.87
161.63,-0.10,2.80,-0.10,2.80,-2.80,-2.83,-2.36,-2.90,-2.90,-2.90
163.24,-0.13,2.79,-0.13,2.79,-2.79,-2.82,-2.33,-2.92,-2.92,-2.92
164.88,-0.15,2.78,-0.16,2.78,-2.78,-2.80,-2.31,-2.93,-2.94,-2.93
166.53,-0.19,2.76,-0.19,2.77,-2.77,-2.79,-2.28,-2.96,-2.96,-2.95
168.19,-0.22,2.76,-0.22,2.76,-2.76,-2.77,-2.26,-2.98,-2.98,-2.98
169.87,-0.25,2.75,-0.25,2.75,-2.75,-2.75,-2.24,-3.00,-3.00,-3.00
171.57,-0.28,2.75,-0.28,2.74,-2.74,-2.73,-2.22,-3.02,-3.02,-3.03
173.29,-0.32,2.72,-0.32,2.73,-2.73,-2.71,-2.20,-3.05,-3.05,-3.04
175.02,-0.35,2.72,-0.35,2.72,-2.73,-2.69,-2.18,-3.08,-3.08,-3.07
176.77,-0.39,2.72,-0.39,2.72,-2.72,-2.67,-2.16,-3.11,-3.11,-3.11
178.54,-0.42,2.72,-0.42,2.71,-2.71,-2.65,-2.15,-3.13,-3.13,-3.14
180.32,-0.46,2.71,-0.46,2.70,-2.70,-2.62,-2.14,-3.16,-3.17,-3.17
182.13,-0.51,2.68,-0.51,2.69,-2.69,-2.60,-2.13,-3.20,-3.20,-3.19
183.95,-0.55,2.69,-0.55,2.68,-2.68,-2.57,-2.12,-3.23,-3.23,-3.24
185.79,-0.59,2.67,-0.60,2.67,-2.67,-2.55,-2.11,-3.26,-3.26,-3.26
187.65,-0.64,2.65,-0.64,2.65,-2.65,-2.52,-2.11,-3.29,-3.29,-3.29
189.52,-0.69,2.63,-0.69,2.63,-2.63,-2.49,-2.10,-3.32,-3.32,-3.32
191.42,-0.73,2.62,-0.74,2.61,-2.61,-2.46,-2.10,-3.34,-3.35,-3.35
193.33,-0.79,2.58,-0.79,2.58,-2.59,-2.44,-2.10,-3.38,-3.38,-3.37
195.27,-0.84,2.56,-0.85,2.56,-2.56,-2.41,-2.10,-3.40,-3.41,-3.40
197.22,-0.91,2.52,-0.90,2.53,-2.53,-2.37,-2.10,-3.44,-3.43,-3.43
199.19,-0.96,2.51,-0.96,2.49,-2.49,-2.34,-2.11,-3.45,-3.45,-3.47
201.18,-1.02,2.46,-1.03,2.45,-2.45,-2.31,-2.11,-3.47,-3.48,-3.48
203.19,-1.10,2.40,-1.10,2.41,-2.41,-2.28,-2.11,-3.51,-3.50,-3.50
205.23,-1.17,2.36,-1.17,2.35,-2.35,-2.24,-2.12,-3.53,-3.52,-3.53
207.28,-1.24,2.29,-1.24,2.30,-2.30,-2.21,-2.12,-3.54,-3.54,-3.53
209.35,-1.32,2.24,-1.32,2.25,-2.24,-2.18,-2.13,-3.56,-3.55,-3.56
211.44,-1.39,2.20,-1.40,2.18,-2.17,-2.14,-2.14,-3.56,-3.57,-3.59
213.56,-1.48,2.12,-1.48,2.11,-2.10,-2.10,-2.14,-3.58,-3.59,-3.60
215.69,-1.57,2.02,-1.57,2.03,-2.03,-2.07,-2.15,-3.60,-3.60,-3.60
217.85,-1.66,1.95,-1.66,1.96,-1.96,-2.03,-2.15,-3.62,-3.61,-3.61
220.03,-1.73,1.89,-1.73,1.89,-1.89,-1.99,-2.16,-3.62,-3.62,-3.62
222.23,-1.80,1.83,-1.81,1.82,-1.82,-1.95,-2.16,-3.62,-3.62,-3.63
224.45,-1.87,1.75,-1.87,1.75,-1.76,-1.92,-2.16,-3.63,-3.63,-3.62
226.70,-1.92,1.69,-1.92,1.70,-1.71,-1.88,-2.16,-3.63,-3.63,-3.61
228.96,-1.95,1.66,-1.95,1.65,-1.67,-1.84,-2.16,-3.62,-3.62,-3.61
231.25,-1.97,1.63,-1.97,1.63,-1.64,-1.79,-2.16,-3.61,-3.61,-3.60
233.57,-1.98,1.61,-1.98,1.62,-1.63,-1.75,-2.15,-3.61,-3.60,-3.59
235.90,-1.97,1.61,-1.97,1.61,-1.62,-1.71,-2.14,-3.59,-3.59,-3.58
238.26,-1.95,1.63,-1.95,1.62,-1.62,-1.67,-2.13,-3.57,-3.57,-3.58
240.64,-1.93,1.62,-1.93,1.63,-1.62,-1.63,-2.12,-3.55,-3.55,-3.55
243.05,-1.90,1.64,-1.91,1.63,-1.62,-1.58,-2.10,-3.52,-3.53,-3.54
245.48,-1.89,1.62,-1.89,1.62,-1.62,-1.54,-2.08,-3.51,-3.51,-3.51
247.93,-1.88,1.61,-1.87,1.62,-1.61,-1.49,-2.06,-3.49,-3.49,-3.49
250.41,-1.86,1.62,-1.87,1.61,-1.60,-1.45,-2.03,-3.46,-3.47,-3.48
252.92,-1.86,1.59,-1.87,1.58,-1.58,-1.40,-2.00,-3.44,-3.45,-3.45
255.45,-1.88,1.54,-1.87,1.56,-1.55,-1.36,-1.97,-3.43,-3.42,-3.42
258.00,-1.89,1.52,-1.89,1.51,-1.52,-1.31,-1.93,-3.41,-3.41,-3.41
260.58,-1.90,1.48,-1.91,1.48,-1.48,-1.26,-1.89,-3.38,-3.38,-3.38
263.19,-1.93,1.43,-1.93,1.43,-1.43,-1.22,-1.85,-3.36,-3.36,-3.36
265.82,-1.95,1.39,-1.95,1.38,-1.38,-1.17,-1.81,-3.33,-3.33,-3.34
268.48,-1.98,1.32,-1.98,1.33,-1.33,-1.12,-1.76,-3.31,-3.31,-3.30
271.16,-2.01,1.27,-2.01,1.27,-1.27,-1.07,-1.71,-3.28,-3.29,-3.28
273.87,-2.05,1.21,-2.05,1.21,-1.22,-1.02,-1.65,-3.27,-3.26,-3.26
276.61,-2.08,1.15,-2.08,1.16,-1.16,-0.97,-1.60,-3.24,-3.24,-3.24
279.38,-2.11,1.11,-2.11,1.10,-1.10,-0.92,-1.54,-3.21,-3.21,-3.22
282.17,-2.15,1.04,-2.15,1.04,-1.04,-0.87,-1.48,-3.19,-3.19,-3.19
284.99,-2.19,0.97,-2.19,0.98,-0.97,-0.82,-1.41,-3.17,-3.17,-3.16
287.84,-2.23,0.91,-2.23,0.91,-0.91,-0.76,-1.35,-3.14,-3.14,-3.14
290.72,-2.27,0.84,-2.27,0.84,-0.84,-0.71,-1.28,-3.11,-3.11,-3.11
293.63,-2.31,0.77,-2.31,0.77,-0.77,-0.66,-1.22,-3.08,-3.09,-3.08
296.57,-2.36,0.70,-2.36,0.70,-0.70,-0.61,-1.15,-3.06,-3.06,-3.06
299.53,-2.41,0.62,-2.41,0.62,-0.62,-0.55,-1.08,-3.03,-3.03,-3.03
302.53,-2.46,0.55,-2.46,0.54,-0.53,-0.50,-1.01,-3.00,-3.00,-3.01
305.55,-2.52,0.44,-2.52,0.45,-0.45,-0.45,-0.93,-2.97,-2.97,-2.96
308.61,-2.57,0.37,-2.58,0.36,-0.36,-0.39,-0.86,-2.93,-2.93,-2.94
311.69,-2.64,0.26,-2.64,0.26,-0.26,-0.34,-0.79,-2.90,-2.90,-2.90
314.81,-2.70,0.15,-2.70,0.16,-0.16,-0.29,-0.71,-2.86,-2.87,-2.85
317.96,-2.77,0.06,-2.77,0.06,-0.06,-0.24,-0.64,-2.83,-2.83,-2.83
321.14,-2.84,-0.04,-2.84,-0.04,0.05,-0.19,-0.56,-2.79,-2.80,-2.81
324.35,-2.92,-0.14,-2.92,-0.15,0.16,-0.14,-0.49,-2.77,-2.77,-2.78
327.59,-3.01,-0.26,-3.01,-0.26,0.27,-0.09,-0.41,-2.74,-2.74,-2.75
330.87,-3.10,-0.38,-3.10,-0.38,0.38,-0.05,-0.34,-2.72,-2.72,-2.72
334.18,-3.19,-0.49,-3.19,-0.49,0.50,-0.00,-0.26,-2.69,-2.70,-2.70
337.52,-3.28,-0.60,-3.28,-0.60,0.61,0.04,-0.19,-2.67,-2.67,-2.68
340.90,-3.37,-0.72,-3.37,-0.71,0.71,0.09,-0.11,-2.66,-2.66,-2.66
344.30,-3.45,-0.81,-3.45,-0.81,0.81,0.13,-0.03,-2.64,-2.64,-2.64
347.75,-3.52,-0.90,-3.52,-0.90,0.89,0.17,0.04,-2.63,-2.63,-2.62
351.23,-3.56,-0.96,-3.57,-0.97,0.95,0.21,0.12,-2.61,-2.61,-2.60
354.74,-3.60,-1.02,-3.59,-1.01,1.00,0.25,0.20,-2.60,-2.60,-2.58
358.28,-3.60,-1.04,-3.60,-1.04,1.02,0.28,0.27,-2.58,-2.58,-2.56
361.87,-3.58,-1.04,-3.59,-1.04,1.02,0.32,0.35,-2.56,-2.56,-2.54
365.49,-3.55,-1.03,-3.55,-1.02,1.01,0.36,0.43,-2.54,-2.54,-2.53
369.14,-3.50,-0.98,-3.50,-0.98,0.98,0.39,0.51,-2.52,-2.52,-2.52
372.83,-3.43,-0.93,-3.44,-0.93,0.94,0.43,0.58,-2.49,-2.50,-2.50
376.56,-3.36,-0.87,-3.36,-0.88,0.89,0.46,0.66,-2.47,-2.47,-2.49
380.33,-3.30,-0.84,-3.29,-0.83,0.84,0.50,0.74,-2.46,-2.46,-2.46
384.13,-3.22,-0.78,-3.23,-0.78,0.79,0.53,0.82,-2.43,-2.44,-2.44
387.97,-3.16,-0.74,-3.16,-0.74,0.74,0.57,0.90,-2.42,-2.42,-2.42
391.85,-3.10,-0.69,-3.10,-0.69,0.70,0.60,0.97,-2.40,-2.40,-2.41
395.77,-3.05,-0.67,-3.05,-0.66,0.67,0.64,1.05,-2.38,-2.38,-2.38
399.73,-3.00,-0.64,-3.00,-0.63,0.64,0.67,1.13,-2.36,-2.36,-2.37
403.72,-2.96,-0.62,-2.97,-0.62,0.63,0.71,1.20,-2.33,-2.34,-2.35
407.76,-2.94,-0.61,-2.94,-0.61,0.62,0.75,1.28,-2.33,-2.32,-2.33
411.84,-2.92,-0.62,-2.92,-0.61,0.61,0.78,1.35,-2.31,-2.30,-2.30
415.96,-2.89,-0.61,-2.90,-0.62,0.61,0.82,1.43,-2.28,-2.28,-2.28
420.12,-2.88,-0.62,-2.88,-0.62,0.62,0.85,1.50,-2.26,-2.26,-2.26
424.32,-2.87,-0.63,-2.87,-0.63,0.63,0.89,1.57,-2.24,-2.24,-2.24
428.56,-2.86,-0.64,-2.86,-0.64,0.64,0.93,1.64,-2.22,-2.22,-2.22
432.85,-2.86,-0.66,-2.86,-0.66,0.66,0.97,1.71,-2.20,-2.20,-2.20
437.18,-2.86,-0.69,-2.86,-0.69,0.68,1.01,1.78,-2.18,-2.17,-2.17
441.55,-2.85,-0.71,-2.86,-0.71,0.71,1.04,1.84,-2.14,-2.15,-2.14
445.96,-2.86,-0.74,-2.86,-0.74,0.74,1.08,1.90,-2.12,-2.12,-2.12
450.42,-2.86,-0.76,-2.86,-0.77,0.77,1.12,1.96,-2.09,-2.09,-2.10
454.93,-2.88,-0.82,-2.88,-0.80,0.81,1.16,2.01,-2.07,-2.07,-2.06
459.48,-2.88,-0.84,-2.89,-0.84,0.84,1.20,2.06,-2.04,-2.04,-2.04
464.07,-2.90,-0.89,-2.90,-0.89,0.88,1.24,2.11,-2.02,-2.02,-2.02
468.71,-2.91,-0.93,-2.91,-0.92,0.92,1.28,2.15,-1.99,-1.99,-1.99
473.40,-2.92,-0.96,-2.92,-0.97,0.96,1.32,2.19,-1.96,-1.96,-1.96
