frequency,raw,error,smoothed,error_smoothed,equalization,parametric_eq,fixed_band_eq,equalized_raw,equalized_smoothed,target
20.00,14.84,5.30,14.84,5.30,-5.30,-5.07,-2.41,9.54,9.54,9.54
20.20,14.82,5.29,14.81,5.28,-5.28,-5.07,-2.48,9.54,9.54,9.53
20.40,14.78,5.25,14.78,5.25,-5.25,-5.08,-2.55,9.53,9.53,9.53
20.61,14.76,5.24,14.76,5.23,-5.23,-5.08,-2.63,9.53,9.53,9.52
20.81,14.74,5.22,14.74,5.21,-5.22,-5.08,-2.70,9.52,9.52,9.52
21.02,14.71,5.19,14.72,5.20,-5.20,-5.08,-2.78,9.50,9.51,9.52
21.23,14.70,5.20,14.69,5.19,-5.20,-5.09,-2.86,9.50,9.50,9.50
21.44,14.67,5.19,14.67,5.19,-5.19,-5.09,-2.94,9.48,9.48,9.48
21.66,14.65,5.19,14.65,5.19,-5.19,-5.09,-3.02,9.46,9.46,9.46
21.87,14.62,5.19,14.62,5.19,-5.19,-5.09,-3.11,9.43,9.43,9.43
22.09,14.61,5.20,14.61,5.20,-5.20,-5.10,-3.20,9.41,9.41,9.41
22.31,14.59,5.20,14.59,5.20,-5.21,-5.10,-3.29,9.38,9.38,9.39
22.54,14.57,5.21,14.57,5.21,-5.22,-5.10,-3.38,9.35,9.36,9.36
22.76,14.56,5.23,14.55,5.23,-5.23,-5.11,-3.48,9.33,9.33,9.33
22.99,14.54,5.24,14.54,5.24,-5.24,-5.11,-3.57,9.30,9.30,9.30
23.22,14.52,5.25,14.52,5.25,-5.25,-5.11,-3.68,9.27,9.27,9.27
23.45,14.51,5.26,14.51,5.26,-5.26,-5.11,-3.78,9.25,9.25,9.25
23.69,14.50,5.27,14.50,5.27,-5.27,-5.12,-3.88,9.23,9.23,9.23
23.92,14.49,5.28,14.49,5.28,-5.27,-5.12,-3.99,9.21,9.21,9.20
24.16,14.47,5.27,14.47,5.28,-5.28,-5.12,-4.10,9.19,9.19,9.19
24.40,14.45,5.28,14.45,5.28,-5.29,-5.13,-4.21,9.16,9.17,9.17
24.65,14.44,5.29,14.44,5.29,-5.29,-5.13,-4.32,9.15,9.15,9.15
24.89,14.43,5.30,14.43,5.30,-5.29,-5.13,-4.44,9.13,9.13,9.13
25.14,14.42,5.31,14.42,5.30,-5.30,-5.14,-4.55,9.12,9.11,9.11
25.39,14.40,5.31,14.40,5.31,-5.31,-5.14,-4.67,9.09,9.09,9.09
25.65,14.39,5.31,14.39,5.31,-5.32,-5.14,-4.78,9.07,9.07,9.08
25.91,14.38,5.33,14.38,5.32,-5.32,-5.15,-4.90,9.06,9.05,9.05
26.16,14.37,5.33,14.37,5.33,-5.33,-5.15,-5.02,9.04,9.04,9.04
26.43,14.36,5.34,14.36,5.34,-5.34,-5.15,-5.13,9.02,9.02,9.02
26.69,14.36,5.35,14.36,5.35,-5.35,-5.16,-5.25,9.01,9.01,9.01
26.96,14.35,5.36,14.35,5.36,-5.36,-5.16,-5.36,8.99,8.99,8.99
27.23,14.34,5.36,14.34,5.36,-5.37,-5.17,-5.48,8.97,8.97,8.98
27.50,14.32,5.36,14.33,5.37,-5.37,-5.17,-5.59,8.94,8.95,8.96
27.77,14.32,5.38,14.32,5.38,-5.38,-5.17,-5.69,8.94,8.93,8.93
28.05,14.31,5.39,14.31,5.39,-5.39,-5.18,-5.79,8.92,8.92,8.92
28.33,14.30,5.41,14.30,5.40,-5.39,-5.18,-5.89,8.91,8.91,8.89
28.62,14.29,5.41,14.29,5.40,-5.40,-5.19,-5.99,8.89,8.89,8.88
28.90,14.28,5.40,14.28,5.41,-5.40,-5.19,-6.07,8.88,8.88,8.88
29.19,14.27,5.41,14.27,5.40,-5.41,-5.19,-6.16,8.86,8.86,8.86
29.48,14.26,5.40,14.26,5.41,-5.41,-5.20,-6.23,8.85,8.85,8.86
29.78,14.25,5.41,14.25,5.41,-5.42,-5.20,-6.30,8.83,8.83,8.84
30.08,14.25,5.42,14.24,5.42,-5.42,-5.21,-6.36,8.83,8.82,8.83
30.38,14.23,5.42,14.23,5.43,-5.43,-5.21,-6.41,8.80,8.81,8.81
30.68,14.22,5.44,14.22,5.44,-5.43,-5.22,-6.45,8.79,8.79,8.78
30.99,14.22,5.46,14.21,5.44,-5.44,-5.22,-6.49,8.78,8.77,8.76
31.30,14.19,5.44,14.20,5.45,-5.44,-5.22,-6.51,8.75,8.75,8.75
31.61,14.18,5.44,14.18,5.44,-5.45,-5.23,-6.53,8.73,8.73,8.74
31.93,14.16,5.45,14.15,5.44,-5.45,-5.23,-6.53,8.71,8.71,8.71
32.24,14.13,5.44,14.14,5.45,-5.45,-5.24,-6.53,8.68,8.69,8.69
32.57,14.12,5.45,14.12,5.45,-5.45,-5.24,-6.52,8.67,8.67,8.66
32.89,14.10,5.45,14.10,5.45,-5.45,-5.25,-6.51,8.65,8.65,8.65
33.22,14.08,5.46,14.08,5.45,-5.45,-5.25,-6.48,8.63,8.63,8.62
33.55,14.06,5.45,14.06,5.45,-5.46,-5.26,-6.45,8.60,8.60,8.61
33.89,14.04,5.46,14.04,5.46,-5.46,-5.26,-6.41,8.58,8.58,8.58
34.23,14.02,5.45,14.02,5.46,-5.46,-5.27,-6.37,8.56,8.56,8.57
34.57,14.01,5.48,14.01,5.47,-5.47,-5.27,-6.32,8.54,8.54,8.53
34.92,13.99,5.48,13.99,5.47,-5.47,-5.28,-6.27,8.52,8.52,8.51
35.27,13.97,5.47,13.97,5.48,-5.47,-5.28,-6.21,8.50,8.50,8.50
35.62,13.95,5.47,13.95,5.48,-5.48,-5.29,-6.15,8.47,8.47,8.48
35.97,13.93,5.48,13.93,5.47,-5.48,-5.30,-6.09,8.45,8.45,8.44
36.33,13.91,5.48,13.91,5.48,-5.48,-5.30,-6.03,8.43,8.43,8.43
36.70,13.88,5.47,13.89,5.48,-5.48,-5.31,-5.96,8.40,8.41,8.41
37.06,13.87,5.49,13.86,5.48,-5.48,-5.31,-5.90,8.39,8.38,8.38
37.43,13.85,5.48,13.85,5.48,-5.48,-5.32,-5.83,8.37,8.37,8.36
37.81,13.82,5.48,13.83,5.49,-5.48,-5.32,-5.76,8.34,8.35,8.34
38.19,13.81,5.49,13.80,5.48,-5.48,-5.33,-5.70,8.33,8.32,8.32
38.57,13.78,5.47,13.78,5.48,-5.48,-5.33,-5.64,8.30,8.30,8.31
38.95,13.76,5.48,13.76,5.48,-5.48,-5.34,-5.58,8.28,8.28,8.28
39.34,13.74,5.48,13.74,5.48,-5.48,-5.35,-5.52,8.25,8.25,8.26
39.74,13.72,5.49,13.72,5.49,-5.48,-5.35,-5.46,8.23,8.23,8.23
40.14,13.70,5.49,13.70,5.49,-5.48,-5.36,-5.41,8.21,8.22,8.21
40.54,13.68,5.49,13.68,5.49,-5.48,-5.36,-5.36,8.20,8.19,8.19
40.94,13.66,5.48,13.66,5.48,-5.48,-5.37,-5.31,8.18,8.18,8.18
41.35,13.63,5.48,13.64,5.48,-5.48,-5.38,-5.26,8.15,8.16,8.15
41.76,13.62,5.48,13.61,5.48,-5.48,-5.38,-5.22,8.14,8.14,8.14
42.18,13.59,5.47,13.59,5.47,-5.47,-5.39,-5.18,8.12,8.12,8.12
42.60,13.57,5.47,13.57,5.46,-5.47,-5.39,-5.15,8.10,8.10,8.10
43.03,13.55,5.45,13.55,5.46,-5.47,-5.40,-5.12,8.08,8.08,8.09
43.46,13.53,5.46,13.53,5.47,-5.47,-5.41,-5.09,8.06,8.06,8.07
43.90,13.51,5.47,13.51,5.47,-5.47,-5.41,-5.07,8.04,8.04,8.04
44.33,13.49,5.48,13.49,5.47,-5.47,-5.42,-5.05,8.02,8.02,8.01
44.78,13.46,5.46,13.46,5.47,-5.47,-5.43,-5.03,7.99,7.99,7.99
45.23,13.44,5.47,13.44,5.47,-5.47,-5.43,-5.02,7.97,7.97,7.97
45.68,13.42,5.47,13.42,5.47,-5.46,-5.44,-5.01,7.95,7.95,7.95
46.13,13.40,5.47,13.40,5.47,-5.46,-5.44,-5.01,7.94,7.94,7.93
46.60,13.38,5.46,13.38,5.46,-5.46,-5.45,-5.01,7.92,7.92,7.92
47.06,13.36,5.45,13.36,5.45,-5.45,-5.46,-5.01,7.91,7.90,7.91
47.53,13.33,5.44,13.33,5.44,-5.45,-5.46,-5.02,7.88,7.89,7.89
48.01,13.31,5.44,13.31,5.44,-5.45,-5.47,-5.03,7.86,7.86,7.87
48.49,13.29,5.44,13.29,5.44,-5.44,-5.48,-5.04,7.84,7.84,7.85
48.97,13.26,5.44,13.26,5.44,-5.44,-5.48,-5.06,7.82,7.82,7.82
49.46,13.24,5.45,13.24,5.45,-5.44,-5.49,-5.08,7.80,7.79,7.79
49.96,13.21,5.45,13.21,5.45,-5.44,-5.49,-5.10,7.77,7.77,7.76
50.46,13.20,5.45,13.19,5.45,-5.44,-5.50,-5.12,7.76,7.75,7.75
50.96,13.17,5.44,13.17,5.45,-5.44,-5.51,-5.15,7.73,7.73,7.73
51.47,13.15,5.45,13.15,5.44,-5.44,-5.51,-5.18,7.71,7.71,7.70
51.99,13.12,5.44,13.12,5.44,-5.44,-5.52,-5.21,7.68,7.68,7.68
52.51,13.10,5.43,13.10,5.43,-5.44,-5.52,-5.24,7.66,7.66,7.67
53.03,13.08,5.43,13.08,5.43,-5.43,-5.53,-5.27,7.64,7.64,7.65
53.56,13.06,5.44,13.06,5.43,-5.43,-5.54,-5.31,7.63,7.63,7.62
54.10,13.04,5.44,13.04,5.43,-5.43,-5.54,-5.34,7.61,7.60,7.60
54.64,13.01,5.43,13.01,5.43,-5.43,-5.55,-5.38,7.58,7.58,7.58
55.18,12.99,5.43,12.99,5.43,-5.43,-5.55,-5.41,7.56,7.56,7.56
55.74,12.97,5.43,12.96,5.42,-5.43,-5.56,-5.45,7.54,7.54,7.54
56.29,12.94,5.42,12.94,5.42,-5.42,-5.56,-5.48,7.51,7.52,7.52
56.86,12.92,5.42,12.92,5.42,-5.42,-5.57,-5.51,7.50,7.50,7.50
57.42,12.90,5.42,12.90,5.42,-5.41,-5.57,-5.54,7.48,7.48,7.47
58.00,12.88,5.42,12.88,5.41,-5.41,-5.58,-5.57,7.47,7.47,7.46
58.58,12.85,5.40,12.85,5.40,-5.40,-5.58,-5.60,7.44,7.45,7.45
59.16,12.83,5.39,12.83,5.40,-5.40,-5.59,-5.62,7.43,7.43,7.44
59.76,12.80,5.39,12.80,5.39,-5.40,-5.59,-5.64,7.40,7.41,7.41
60.35,12.79,5.40,12.78,5.39,-5.40,-5.60,-5.65,7.39,7.39,7.39
60.96,12.76,5.39,12.76,5.40,-5.40,-5.60,-5.67,7.36,7.36,7.37
61.57,12.74,5.40,12.74,5.40,-5.40,-5.61,-5.67,7.34,7.34,7.34
62.18,12.72,5.41,12.72,5.40,-5.40,-5.61,-5.68,7.32,7.32,7.31
62.80,12.70,5.40,12.70,5.40,-5.40,-5.61,-5.68,7.30,7.30,7.30
63.43,12.67,5.40,12.67,5.40,-5.40,-5.62,-5.68,7.27,7.28,7.27
64.07,12.65,5.40,12.65,5.40,-5.39,-5.62,-5.67,7.25,7.25,7.25
64.71,12.63,5.39,12.62,5.39,-5.39,-5.63,-5.66,7.24,7.23,7.23
65.35,12.60,5.38,12.60,5.38,-5.39,-5.63,-5.64,7.21,7.21,7.22
66.01,12.58,5.38,12.58,5.38,-5.39,-5.63,-5.62,7.19,7.19,7.20
66.67,12.56,5.38,12.56,5.38,-5.38,-5.64,-5.60,7.18,7.18,7.18
67.33,12.55,5.39,12.54,5.38,-5.38,-5.64,-5.58,7.17,7.16,7.16
68.01,12.52,5.38,12.52,5.38,-5.38,-5.64,-5.55,7.14,7.14,7.14
68.69,12.50,5.38,12.50,5.38,-5.38,-5.64,-5.52,7.12,7.12,7.12
69.37,12.48,5.38,12.48,5.38,-5.38,-5.65,-5.49,7.10,7.10,7.10
70.07,12.46,5.38,12.46,5.38,-5.38,-5.65,-5.46,7.08,7.08,7.08
70.77,12.44,5.38,12.44,5.38,-5.38,-5.65,-5.42,7.06,7.06,7.06
71.48,12.42,5.38,12.42,5.38,-5.39,-5.65,-5.39,7.03,7.04,7.04
72.19,12.40,5.38,12.40,5.39,-5.39,-5.65,-5.36,7.01,7.01,7.02
72.91,12.39,5.41,12.38,5.39,-5.39,-5.65,-5.32,7.00,6.99,6.98
73.64,12.36,5.40,12.36,5.40,-5.40,-5.66,-5.29,6.96,6.97,6.96
74.38,12.34,5.40,12.34,5.41,-5.40,-5.66,-5.26,6.94,6.94,6.94
75.12,12.33,5.41,12.32,5.41,-5.41,-5.66,-5.22,6.92,6.92,6.92
75.87,12.31,5.42,12.31,5.41,-5.41,-5.66,-5.19,6.90,6.89,6.89
76.63,12.28,5.40,12.28,5.41,-5.41,-5.66,-5.16,6.86,6.87,6.87
77.40,12.26,5.41,12.26,5.42,-5.42,-5.66,-5.14,6.84,6.84,6.85
78.17,12.24,5.43,12.24,5.42,-5.42,-5.66,-5.11,6.81,6.82,6.81
78.95,12.23,5.44,12.22,5.43,-5.43,-5.66,-5.09,6.80,6.79,6.79
79.74,12.21,5.44,12.21,5.44,-5.44,-5.66,-5.07,6.77,6.77,6.77
80.54,12.18,5.44,12.19,5.44,-5.45,-5.66,-5.06,6.73,6.74,6.74
81.35,12.17,5.46,12.17,5.45,-5.45,-5.66,-5.04,6.71,6.71,6.71
82.16,12.15,5.47,12.15,5.46,-5.46,-5.66,-5.04,6.68,6.68,6.68
82.98,12.13,5.47,12.13,5.48,-5.47,-5.67,-5.03,6.65,6.65,6.66
83.81,12.11,5.49,12.11,5.48,-5.48,-5.67,-5.03,6.62,6.62,6.62
84.65,12.08,5.49,12.09,5.50,-5.49,-5.67,-5.03,6.58,6.59,6.59
85.50,12.07,5.51,12.06,5.51,-5.50,-5.67,-5.03,6.56,6.56,6.56
86.35,12.05,5.52,12.05,5.52,-5.52,-5.67,-5.04,6.53,6.53,6.53
87.22,12.02,5.52,12.03,5.53,-5.53,-5.67,-5.05,6.49,6.50,6.50
88.09,12.01,5.55,12.00,5.54,-5.54,-5.67,-5.07,6.47,6.47,6.46
88.97,11.98,5.54,11.98,5.54,-5.55,-5.67,-5.09,6.43,6.44,6.44
89.86,11.96,5.55,11.96,5.55,-5.56,-5.67,-5.11,6.40,6.40,6.41
90.76,11.94,5.57,11.94,5.57,-5.57,-5.67,-5.14,6.37,6.37,6.37
91.66,11.92,5.58,11.92,5.58,-5.58,-5.67,-5.17,6.34,6.34,6.34
92.58,11.90,5.60,11.90,5.59,-5.59,-5.68,-5.20,6.31,6.31,6.30
93.51,11.88,5.60,11.88,5.60,-5.61,-5.68,-5.24,6.27,6.27,6.28
94.44,11.86,5.62,11.86,5.62,-5.62,-5.68,-5.28,6.24,6.24,6.24
95.39,11.84,5.63,11.84,5.63,-5.64,-5.68,-5.32,6.20,6.20,6.21
96.34,11.82,5.66,11.82,5.66,-5.66,-5.69,-5.37,6.16,6.16,6.16
97.30,11.80,5.68,11.80,5.68,-5.67,-5.69,-5.42,6.13,6.13,6.12
98.28,11.78,5.69,11.78,5.70,-5.69,-5.69,-5.48,6.09,6.09,6.08
99.26,11.76,5.71,11.76,5.71,-5.71,-5.70,-5.53,6.05,6.05,6.05
100.25,11.74,5.73,11.74,5.73,-5.73,-5.70,-5.59,6.01,6.01,6.01
101.25,11.72,5.75,11.72,5.75,-5.75,-5.71,-5.66,5.97,5.97,5.97
102.27,11.70,5.77,11.70,5.77,-5.77,-5.71,-5.72,5.93,5.93,5.93
103.29,11.68,5.81,11.68,5.80,-5.79,-5.72,-5.78,5.89,5.89,5.87
104.32,11.66,5.81,11.66,5.82,-5.81,-5.73,-5.85,5.84,5.84,5.85
105.37,11.64,5.84,11.64,5.84,-5.84,-5.73,-5.92,5.80,5.80,5.80
106.42,11.61,5.85,11.62,5.86,-5.86,-5.74,-5.99,5.75,5.76,5.76
107.48,11.60,5.88,11.60,5.88,-5.88,-5.75,-6.06,5.71,5.71,5.72
108.56,11.58,5.92,11.58,5.91,-5.91,-5.76,-6.12,5.67,5.67,5.66
109.64,11.56,5.93,11.56,5.94,-5.94,-5.77,-6.19,5.62,5.62,5.62
110.74,11.54,5.96,11.54,5.97,-5.97,-5.78,-6.26,5.57,5.58,5.58
111.85,11.53,5.99,11.52,6.00,-6.00,-5.79,-6.32,5.53,5.53,5.54
112.97,11.51,6.04,11.51,6.03,-6.03,-5.81,-6.38,5.48,5.48,5.47
114.10,11.49,6.06,11.49,6.06,-6.06,-5.82,-6.44,5.43,5.43,5.43
115.24,11.48,6.09,11.48,6.09,-6.09,-5.84,-6.50,5.39,5.39,5.39
116.39,11.46,6.12,11.46,6.12,-6.12,-5.85,-6.55,5.34,5.34,5.34
117.55,11.44,6.15,11.44,6.15,-6.15,-5.87,-6.59,5.29,5.29,5.29
118.73,11.42,6.17,11.42,6.17,-6.17,-5.88,-6.64,5.25,5.25,5.25
119.92,11.41,6.20,11.40,6.20,-6.20,-5.90,-6.67,5.21,5.21,5.21
121.12,11.39,6.23,11.39,6.23,-6.22,-5.92,-6.70,5.16,5.16,5.16
122.33,11.37,6.25,11.37,6.25,-6.25,-5.94,-6.73,5.12,5.12,5.12
123.55,11.36,6.28,11.36,6.27,-6.28,-5.96,-6.75,5.08,5.08,5.08
124.79,11.34,6.29,11.34,6.30,-6.30,-5.98,-6.76,5.04,5.04,5.05
126.03,11.33,6.32,11.33,6.32,-6.33,-6.00,-6.76,5.00,5.00,5.00
127.29,11.31,6.35,11.31,6.35,-6.35,-6.02,-6.76,4.96,4.96,4.96
128.57,11.30,6.38,11.30,6.38,-6.38,-6.04,-6.76,4.92,4.92,4.92
129.85,11.29,6.41,11.28,6.41,-6.40,-6.07,-6.74,4.89,4.88,4.87
131.15,11.27,6.43,11.27,6.43,-6.43,-6.09,-6.72,4.84,4.85,4.84
132.46,11.26,6.45,11.26,6.45,-6.45,-6.12,-6.70,4.81,4.81,4.81
133.79,11.25,6.47,11.25,6.47,-6.47,-6.14,-6.67,4.78,4.78,4.78
135.12,11.23,6.49,11.23,6.49,-6.49,-6.17,-6.63,4.74,4.74,4.74
136.48,11.22,6.50,11.22,6.50,-6.50,-6.19,-6.60,4.72,4.71,4.72
137.84,11.20,6.51,11.20,6.52,-6.52,-6.22,-6.55,4.68,4.69,4.69
139.22,11.19,6.53,11.19,6.53,-6.53,-6.25,-6.51,4.66,4.66,4.66
140.61,11.18,6.55,11.18,6.54,-6.54,-6.27,-6.46,4.64,4.64,4.63
142.02,11.16,6.54,11.16,6.55,-6.54,-6.30,-6.41,4.61,4.62,4.62
143.44,11.15,6.55,11.15,6.55,-6.55,-6.33,-6.36,4.60,4.60,4.59
144.87,11.13,6.55,11.13,6.55,-6.56,-6.36,-6.31,4.57,4.58,4.58
146.32,11.12,6.56,11.12,6.56,-6.56,-6.39,-6.26,4.56,4.56,4.56
147.78,11.11,6.56,11.11,6.56,-6.56,-6.41,-6.21,4.54,4.54,4.54
149.26,11.10,6.57,11.09,6.57,-6.57,-6.44,-6.16,4.53,4.52,4.53
150.75,11.07,6.57,11.08,6.57,-6.57,-6.47,-6.10,4.50,4.50,4.49
152.26,11.06,6.58,11.06,6.58,-6.58,-6.49,-6.06,4.48,4.48,4.48
153.78,11.05,6.58,11.05,6.58,-6.59,-6.52,-6.01,4.46,4.46,4.47
155.32,11.04,6.59,11.04,6.59,-6.59,-6.55,-5.97,4.44,4.44,4.44
156.88,11.03,6.60,11.03,6.60,-6.60,-6.57,-5.93,4.43,4.43,4.43
158.44,11.02,6.61,11.02,6.61,-6.61,-6.60,-5.89,4.41,4.41,4.41
160.03,11.01,6.62,11.01,6.62,-6.62,-6.62,-5.85,4.39,4.39,4.39
161.63,10.99,6.63,10.99,6.63,-6.63,-6.64,-5.82,4.36,4.37,4.36
163.24,10.98,6.64,10.98,6.64,-6.63,-6.67,-5.79,4.34,4.35,4.34
164.88,10.97,6.64,10.97,6.64,-6.64,-6.69,-5.77,4.33,4.33,4.33
166.53,10.95,6.64,10.95,6.64,-6.64,-6.71,-5.75,4.31,4.31,4.31
168.19,10.93,6.65,10.93,6.65,-6.65,-6.72,-5.73,4.28,4.28,4.28
169.87,10.91,6.65,10.91,6.65,-6.65,-6.74,-5.72,4.26,4.26,4.26
171.57,10.89,6.66,10.89,6.65,-6.65,-6.75,-5.71,4.24,4.23,4.23
173.29,10.86,6.64,10.86,6.65,-6.65,-6.77,-5.70,4.21,4.21,4.22
175.02,10.84,6.65,10.84,6.65,-6.66,-6.78,-5.71,4.18,4.18,4.19
176.77,10.82,6.67,10.82,6.66,-6.66,-6.79,-5.71,4.16,4.15,4.15
178.54,10.79,6.67,10.79,6.67,-6.67,-6.79,-5.72,4.12,4.13,4.12
180.32,10.77,6.68,10.76,6.67,-6.67,-6.80,-5.73,4.10,4.09,4.09
182.13,10.74,6.67,10.74,6.68,-6.68,-6.80,-5.75,4.06,4.06,4.07
183.95,10.71,6.69,10.72,6.69,-6.69,-6.81,-5.77,4.02,4.03,4.02
185.79,10.70,6.70,10.69,6.69,-6.69,-6.80,-5.80,4.01,4.00,4.00
187.65,10.67,6.70,10.67,6.70,-6.70,-6.80,-5.83,3.97,3.97,3.97
189.52,10.64,6.70,10.65,6.71,-6.71,-6.80,-5.86,3.93,3.94,3.94
191.42,10.63,6.72,10.63,6.71,-6.72,-6.79,-5.90,3.91,3.91,3.91
193.33,10.61,6.72,10.61,6.72,-6.73,-6.78,-5.94,3.88,3.88,3.89
195.27,10.59,6.73,10.59,6.73,-6.73,-6.77,-5.99,3.86,3.86,3.86
197.22,10.57,6.73,10.57,6.74,-6.74,-6.75,-6.03,3.83,3.83,3.83
199.19,10.55,6.76,10.55,6.75,-6.74,-6.74,-6.08,3.81,3.81,3.79
201.18,10.53,6.75,10.52,6.75,-6.74,-6.72,-6.14,3.79,3.78,3.78
203.19,10.49,6.73,10.50,6.74,-6.74,-6.70,-6.19,3.75,3.76,3.76
205.23,10.47,6.74,10.47,6.72,-6.73,-6.67,-6.25,3.74,3.74,3.73
207.28,10.44,6.71,10.44,6.72,-6.72,-6.65,-6.31,3.72,3.72,3.73
209.35,10.41,6.71,10.41,6.71,-6.71,-6.62,-6.37,3.70,3.70,3.70
211.44,10.38,6.71,10.38,6.70,-6.69,-6.59,-6.44,3.69,3.69,3.67
213.56,10.35,6.68,10.35,6.68,-6.67,-6.56,-6.50,3.67,3.67,3.66
215.69,10.31,6.64,10.31,6.65,-6.65,-6.52,-6.56,3.66,3.66,3.67
217.85,10.27,6.62,10.27,6.62,-6.63,-6.49,-6.62,3.64,3.64,3.65
220.03,10.24,6.60,10.24,6.60,-6.60,-6.45,-6.68,3.64,3.64,3.64
222.23,10.21,6.58,10.21,6.57,-6.57,-6.41,-6.73,3.64,3.64,3.63
224.45,10.18,6.53,10.18,6.54,-6.53,-6.37,-6.79,3.65,3.65,3.64
226.70,10.14,6.49,10.14,6.50,-6.49,-6.33,-6.83,3.64,3.65,3.65
228.96,10.11,6.46,10.11,6.45,-6.46,-6.29,-6.88,3.65,3.65,3.65
231.25,10.07,6.41,10.07,6.41,-6.42,-6.24,-6.92,3.65,3.65,3.66
233.57,10.04,6.37,10.04,6.37,-6.38,-6.20,-6.95,3.66,3.66,3.67
235.90,10.01,6.33,10.01,6.33,-6.33,-6.15,-6.97,3.67,3.68,3.68
238.26,9.99,6.30,9.99,6.30,-6.29,-6.10,-6.99,3.70,3.70,3.68
240.64,9.96,6.25,9.96,6.26,-6.25,-6.05,-7.00,3.71,3.71,3.71
243.05,9.94,6.22,9.93,6.21,-6.21,-6.00,-7.01,3.73,3.73,3.72
245.48,9.90,6.15,9.90,6.16,-6.16,-5.95,-7.00,3.74,3.74,3.75
247.93,9.88,6.11,9.88,6.12,-6.12,-5.90,-6.98,3.76,3.77,3.77
250.41,9.86,6.08,9.86,6.07,-6.07,-5.85,-6.96,3.79,3.78,3.78
252.92,9.84,6.03,9.83,6.02,-6.02,-5.80,-6.92,3.81,3.81,3.81
255.45,9.80,5.96,9.81,5.98,-5.98,-5.75,-6.88,3.82,3.83,3.84
258.00,9.79,5.94,9.79,5.93,-5.93,-5.70,-6.83,3.86,3.86,3.85
260.58,9.77,5.89,9.76,5.89,-5.88,-5.65,-6.76,3.89,3.88,3.88
263.19,9.74,5.83,9.74,5.84,-5.84,-5.59,-6.69,3.90,3.91,3.90
265.82,9.72,5.80,9.72,5.79,-5.79,-5.54,-6.61,3.93,3.93,3.92
268.48,9.69,5.73,9.69,5.74,-5.74,-5.49,-6.53,3.95,3.95,3.96
271.16,9.67,5.69,9.67,5.69,-5.69,-5.44,-6.43,3.98,3.98,3.98
273.87,9.64,5.64,9.64,5.64,-5.64,-5.39,-6.34,4.00,4.00,4.00
276.61,9.62,5.59,9.62,5.59,-5.59,-5.34,-6.23,4.03,4.03,4.03
279.38,9.59,5.55,9.59,5.54,-5.54,-5.29,-6.12,4.05,4.05,4.04
282.17,9.56,5.49,9.56,5.49,-5.49,-5.24,-6.01,4.07,4.07,4.07
284.99,9.53,5.43,9.53,5.43,-5.44,-5.20,-5.89,4.09,4.09,4.10
287.84,9.50,5.38,9.50,5.38,-5.38,-5.15,-5.77,4.12,4.12,4.12
290.72,9.48,5.33,9.48,5.33,-5.33,-5.10,-5.64,4.15,4.15,4.15
293.63,9.45,5.27,9.45,5.27,-5.27,-5.06,-5.52,4.18,4.18,4.18
296.57,9.42,5.21,9.42,5.22,-5.21,-5.01,-5.39,4.20,4.21,4.20
299.53,9.39,5.16,9.39,5.16,-5.15,-4.97,-5.27,4.24,4.23,4.23
302.53,9.35,5.10,9.35,5.10,-5.09,-4.92,-5.14,4.26,4.26,4.25
305.55,9.32,5.02,9.32,5.03,-5.02,-4.88,-5.01,4.29,4.29,4.30
308.61,9.29,4.96,9.29,4.96,-4.96,-4.84,-4.89,4.33,4.33,4.32
311.69,9.25,4.89,9.25,4.88,-4.89,-4.80,-4.76,4.36,4.36,4.36
314.81,9.22,4.81,9.21,4.81,-4.82,-4.75,-4.64,4.40,4.40,4.41
317.96,9.17,4.74,9.18,4.74,-4.75,-4.71,-4.52,4.42,4.43,4.43
321.14,9.14,4.68,9.14,4.68,-4.68,-4.67,-4.40,4.46,4.46,4.46
324.35,9.10,4.62,9.10,4.61,-4.61,-4.64,-4.28,4.48,4.48,4.48
327.59,9.06,4.55,9.06,4.55,-4.55,-4.60,-4.17,4.51,4.51,4.51
330.87,9.02,4.48,9.02,4.48,-4.48,-4.56,-4.05,4.54,4.54,4.54
334.18,8.98,4.42,8.98,4.42,-4.42,-4.52,-3.94,4.56,4.56,4.56
337.52,8.94,4.36,8.94,4.36,-4.36,-4.48,-3.83,4.58,4.58,4.58
340.90,8.90,4.29,8.90,4.29,-4.29,-4.44,-3.73,4.61,4.60,4.60
344.30,8.85,4.23,8.85,4.23,-4.23,-4.40,-3.62,4.62,4.62,4.62
347.75,8.80,4.16,8.80,4.16,-4.16,-4.36,-3.52,4.64,4.64,4.64
351.23,8.76,4.10,8.76,4.10,-4.09,-4.32,-3.42,4.66,4.66,4.66
354.74,8.71,4.03,8.71,4.03,-4.03,-4.28,-3.33,4.68,4.68,4.68
358.28,8.66,3.96,8.66,3.96,-3.96,-4.24,-3.23,4.70,4.70,4.70
361.87,8.61,3.89,8.61,3.89,-3.89,-4.19,-3.14,4.72,4.71,4.72
365.49,8.55,3.81,8.55,3.82,-3.82,-4.15,-3.06,4.73,4.73,4.74
369.14,8.50,3.76,8.50,3.76,-3.76,-4.10,-2.97,4.74,4.74,4.74
372.83,8.45,3.69,8.45,3.69,-3.69,-4.05,-2.89,4.76,4.76,4.76
376.56,8.41,3.64,8.40,3.63,-3.62,-4.00,-2.81,4.79,4.78,4.77
380.33,8.35,3.55,8.36,3.56,-3.56,-3.94,-2.73,4.79,4.80,4.80
384.13,8.31,3.49,8.31,3.49,-3.49,-3.88,-2.65,4.82,4.82,4.82
387.97,8.26,3.42,8.26,3.42,-3.42,-3.82,-2.58,4.84,4.83,4.84
391.85,8.21,3.36,8.21,3.36,-3.36,-3.76,-2.50,4.85,4.86,4.85
395.77,8.17,3.29,8.17,3.29,-3.29,-3.69,-2.43,4.88,4.88,4.88
399.73,8.13,3.23,8.12,3.23,-3.23,-3.62,-2.36,4.90,4.90,4.90
403.72,8.08,3.16,8.08,3.17,-3.17,-3.54,-2.30,4.91,4.92,4.91
407.76,8.04,3.11,8.04,3.10,-3.11,-3.46,-2.23,4.93,4.93,4.93
411.84,8.00,3.04,8.00,3.04,-3.05,-3.38,-2.17,4.95,4.95,4.96
415.96,7.97,2.99,7.97,2.99,-2.99,-3.29,-2.10,4.98,4.98,4.98
420.12,7.94,2.94,7.94,2.93,-2.94,-3.20,-2.04,5.00,5.00,5.00
424.32,7.90,2.88,7.90,2.88,-2.88,-3.10,-1.98,5.02,5.02,5.02
428.56,7.87,2.83,7.87,2.83,-2.83,-3.00,-1.92,5.04,5.04,5.04
432.85,7.83,2.77,7.83,2.77,-2.77,-2.89,-1.86,5.06,5.06,5.06
437.18,7.80,2.71,7.80,2.71,-2.71,-2.78,-1.80,5.09,5.09,5.09
441.55,7.76,2.64,7.76,2.64,-2.64,-2.66,-1.74,5.12,5.12,5.12
445.96,7.71,2.57,7.70,2.57,-2.56,-2.54,-1.68,5.15,5.15,5.14
450.42,7.64,2.48,7.64,2.48,-2.47,-2.42,-1.62,5.17,5.17,5.16
454.93,7.57,2.37,7.57,2.38,-2.37,-2.29,-1.57,5.19,5.20,5.20
459.48,7.50,2.28,7.49,2.28,-2.28,-2.16,-1.51,5.22,5.22,5.22
464.07,7.41,2.16,7.41,2.17,-2.17,-2.02,-1.45,5.24,5.24,5.25
468.71,7.33,2.05,7.33,2.06,-2.06,-1.88,-1.39,5.26,5.27,5.27
473.40,7.25,1.94,7.25,1.94,-1.95,-1.74,-1.32,5.29,5.29,5.30
478.13,7.17,1.84,7.17,1.84,-1.84,-1.60,-1.26,5.32,5.32,5.33
482.91,7.09,1.74,7.09,1.73,-1.73,-1.45,-1.20,5.36,5.36,5.35
487.74,7.01,1.63,7.01,1.63,-1.62,-1.30,-1.13,5.39,5.39,5.38
492.62,6.93,1.52,6.93,1.51,-1.51,-1.15,-1.07,5.42,5.42,5.41
497.55,6.84,1.40,6.84,1.40,-1.39,-0.99,-1.00,5.45,5.44,5.44
502.52,6.74,1.27,6.74,1.28,-1.28,-0.84,-0.93,5.46,5.47,5.47
