frequency,raw,error,smoothed,error_smoothed,equalization,parametric_eq,fixed_band_eq,equalized_raw,equalized_smoothed,target
20.00,3.12,2.82,3.12,2.83,-2.83,-3.12,-0.83,0.29,0.29,0.29
20.20,3.17,2.87,3.16,2.86,-2.87,-3.10,-0.85,0.30,0.30,0.29
20.40,3.21,2.90,3.21,2.90,-2.90,-3.09,-0.88,0.31,0.31,0.30
20.61,3.25,2.93,3.24,2.93,-2.93,-3.07,-0.90,0.31,0.31,0.31
20.81,3.28,2.96,3.28,2.96,-2.96,-3.05,-0.93,0.32,0.32,0.31
21.02,3.32,2.99,3.31,2.99,-2.99,-3.03,-0.96,0.33,0.33,0.32
21.23,3.35,3.02,3.35,3.02,-3.02,-3.01,-0.98,0.33,0.33,0.32
21.44,3.38,3.04,3.37,3.04,-3.04,-2.99,-1.01,0.34,0.34,0.33
21.66,3.40,3.05,3.40,3.06,-3.06,-2.97,-1.04,0.34,0.34,0.34
21.87,3.43,3.08,3.42,3.08,-3.08,-2.95,-1.07,0.35,0.34,0.34
22.09,3.45,3.09,3.45,3.09,-3.10,-2.93,-1.10,0.35,0.35,0.35
22.31,3.47,3.10,3.47,3.11,-3.12,-2.91,-1.14,0.35,0.35,0.36
22.54,3.50,3.13,3.49,3.13,-3.13,-2.89,-1.17,0.36,0.36,0.36
22.76,3.52,3.14,3.52,3.14,-3.15,-2.87,-1.20,0.37,0.37,0.37
22.99,3.54,3.15,3.54,3.16,-3.16,-2.85,-1.24,0.38,0.38,0.38
23.22,3.56,3.17,3.56,3.17,-3.17,-2.83,-1.27,0.39,0.39,0.39
23.45,3.58,3.18,3.58,3.17,-3.17,-2.81,-1.31,0.41,0.41,0.40
23.69,3.59,3.18,3.58,3.17,-3.16,-2.79,-1.35,0.43,0.42,0.41
23.92,3.58,3.16,3.58,3.16,-3.15,-2.77,-1.38,0.43,0.43,0.42
24.16,3.56,3.13,3.56,3.13,-3.13,-2.75,-1.42,0.43,0.43,0.43
24.40,3.54,3.10,3.54,3.10,-3.10,-2.72,-1.46,0.44,0.44,0.44
24.65,3.52,3.06,3.52,3.06,-3.07,-2.70,-1.50,0.45,0.45,0.46
24.89,3.50,3.03,3.49,3.03,-3.03,-2.68,-1.54,0.47,0.46,0.47
25.14,3.47,2.99,3.47,2.99,-2.99,-2.66,-1.58,0.48,0.48,0.48
25.39,3.44,2.95,3.44,2.95,-2.95,-2.64,-1.62,0.48,0.48,0.49
25.65,3.41,2.91,3.41,2.91,-2.91,-2.62,-1.66,0.49,0.49,0.50
25.91,3.38,2.86,3.38,2.87,-2.87,-2.60,-1.70,0.50,0.51,0.52
26.16,3.36,2.83,3.36,2.83,-2.83,-2.58,-1.73,0.52,0.52,0.53
26.43,3.34,2.80,3.33,2.80,-2.79,-2.56,-1.77,0.54,0.54,0.53
26.69,3.31,2.76,3.31,2.76,-2.75,-2.53,-1.81,0.55,0.56,0.54
26.96,3.28,2.71,3.28,2.72,-2.71,-2.51,-1.85,0.57,0.57,0.56
27.23,3.25,2.67,3.24,2.67,-2.67,-2.49,-1.89,0.58,0.57,0.57
27.50,3.21,2.61,3.21,2.62,-2.63,-2.47,-1.92,0.58,0.58,0.59
27.77,3.18,2.57,3.18,2.58,-2.59,-2.45,-1.96,0.59,0.59,0.60
28.05,3.16,2.54,3.16,2.54,-2.55,-2.43,-1.99,0.61,0.61,0.62
28.33,3.14,2.51,3.13,2.50,-2.50,-2.41,-2.02,0.63,0.63,0.63
28.62,3.11,2.46,3.11,2.46,-2.46,-2.38,-2.05,0.65,0.65,0.65
28.90,3.08,2.42,3.08,2.42,-2.42,-2.36,-2.07,0.66,0.67,0.66
29.19,3.06,2.38,3.05,2.37,-2.37,-2.34,-2.10,0.69,0.68,0.68
29.48,3.01,2.32,3.01,2.32,-2.31,-2.32,-2.12,0.70,0.70,0.69
29.78,2.96,2.25,2.96,2.25,-2.24,-2.30,-2.14,0.71,0.71,0.70
30.08,2.90,2.18,2.89,2.18,-2.17,-2.28,-2.15,0.73,0.72,0.71
30.38,2.83,2.09,2.83,2.10,-2.09,-2.25,-2.17,0.73,0.73,0.73
30.68,2.76,2.01,2.76,2.01,-2.01,-2.23,-2.18,0.74,0.74,0.74
30.99,2.69,1.93,2.68,1.93,-1.93,-2.21,-2.19,0.75,0.75,0.76
31.30,2.62,1.85,2.62,1.84,-1.85,-2.19,-2.19,0.76,0.76,0.77
31.61,2.55,1.76,2.55,1.77,-1.77,-2.16,-2.19,0.77,0.78,0.79
31.93,2.50,1.70,2.50,1.70,-1.70,-2.14,-2.19,0.80,0.80,0.80
32.24,2.45,1.63,2.44,1.63,-1.63,-2.12,-2.18,0.82,0.82,0.82
32.57,2.40,1.57,2.40,1.57,-1.56,-2.09,-2.18,0.83,0.83,0.82
32.89,2.35,1.50,2.35,1.51,-1.51,-2.07,-2.17,0.84,0.84,0.84
33.22,2.31,1.45,2.30,1.45,-1.45,-2.05,-2.15,0.85,0.85,0.85
33.55,2.27,1.40,2.27,1.40,-1.41,-2.02,-2.14,0.86,0.86,0.87
33.89,2.25,1.37,2.25,1.36,-1.37,-2.00,-2.12,0.88,0.88,0.88
34.23,2.23,1.33,2.23,1.34,-1.34,-1.97,-2.10,0.89,0.89,0.90
34.57,2.23,1.32,2.22,1.32,-1.32,-1.95,-2.07,0.91,0.91,0.90
34.92,2.22,1.30,2.22,1.30,-1.30,-1.92,-2.05,0.91,0.91,0.91
35.27,2.22,1.29,2.22,1.29,-1.29,-1.89,-2.02,0.92,0.92,0.93
35.62,2.22,1.28,2.22,1.28,-1.29,-1.86,-2.00,0.92,0.93,0.94
35.97,2.24,1.29,2.24,1.29,-1.29,-1.83,-1.97,0.94,0.94,0.95
36.33,2.26,1.30,2.25,1.30,-1.29,-1.80,-1.94,0.96,0.96,0.95
36.70,2.27,1.30,2.26,1.30,-1.29,-1.77,-1.91,0.97,0.97,0.96
37.06,2.27,1.30,2.27,1.30,-1.29,-1.73,-1.88,0.97,0.98,0.97
37.43,2.27,1.29,2.27,1.29,-1.29,-1.70,-1.85,0.98,0.98,0.98
37.81,2.27,1.28,2.26,1.28,-1.28,-1.66,-1.82,0.99,0.99,0.98
38.19,2.26,1.26,2.25,1.26,-1.26,-1.62,-1.79,0.99,0.99,0.99
38.57,2.24,1.24,2.24,1.24,-1.24,-1.58,-1.76,1.00,1.00,1.00
38.95,2.22,1.21,2.22,1.21,-1.21,-1.54,-1.73,1.01,1.01,1.01
39.34,2.19,1.17,2.19,1.17,-1.17,-1.49,-1.70,1.01,1.01,1.01
39.74,2.15,1.13,2.15,1.13,-1.12,-1.44,-1.67,1.02,1.02,1.02
40.14,2.10,1.08,2.10,1.08,-1.07,-1.39,-1.64,1.03,1.03,1.02
40.54,2.04,1.01,2.04,1.01,-1.01,-1.33,-1.61,1.03,1.03,1.02
40.94,1.97,0.94,1.97,0.94,-0.93,-1.27,-1.58,1.03,1.03,1.03
41.35,1.89,0.85,1.89,0.85,-0.85,-1.20,-1.55,1.03,1.03,1.04
41.76,1.81,0.76,1.80,0.76,-0.77,-1.13,-1.53,1.04,1.04,1.04
42.18,1.72,0.67,1.72,0.67,-0.67,-1.05,-1.50,1.05,1.05,1.05
42.60,1.63,0.57,1.62,0.57,-0.57,-0.97,-1.48,1.06,1.06,1.06
43.03,1.53,0.47,1.53,0.47,-0.46,-0.87,-1.45,1.06,1.06,1.06
43.46,1.43,0.36,1.42,0.36,-0.35,-0.77,-1.43,1.07,1.07,1.07
43.90,1.32,0.25,1.32,0.24,-0.24,-0.66,-1.41,1.07,1.07,1.07
44.33,1.21,0.12,1.21,0.12,-0.13,-0.55,-1.39,1.08,1.08,1.09
44.78,1.10,0.00,1.10,0.01,-0.01,-0.42,-1.37,1.09,1.09,1.09
45.23,0.99,-0.11,0.99,-0.11,0.11,-0.28,-1.35,1.10,1.10,1.10
45.68,0.89,-0.23,0.88,-0.23,0.23,-0.13,-1.33,1.12,1.11,1.11
46.13,0.77,-0.35,0.77,-0.35,0.36,0.02,-1.31,1.12,1.12,1.12
46.60,0.66,-0.47,0.65,-0.47,0.48,0.19,-1.30,1.14,1.13,1.13
47.06,0.54,-0.60,0.53,-0.60,0.61,0.36,-1.28,1.14,1.14,1.13
47.53,0.42,-0.73,0.42,-0.73,0.73,0.54,-1.27,1.15,1.15,1.15
48.01,0.30,-0.86,0.30,-0.86,0.86,0.72,-1.26,1.16,1.16,1.15
48.49,0.19,-0.98,0.18,-0.98,0.98,0.89,-1.25,1.17,1.17,1.17
48.97,0.08,-1.09,0.07,-1.10,1.10,1.06,-1.24,1.17,1.17,1.17
49.46,-0.03,-1.22,-0.03,-1.21,1.21,1.20,-1.23,1.18,1.18,1.18
49.96,-0.12,-1.31,-0.12,-1.31,1.31,1.32,-1.22,1.19,1.19,1.18
50.46,-0.20,-1.39,-0.21,-1.40,1.40,1.41,-1.21,1.19,1.19,1.19
50.96,-0.27,-1.47,-0.27,-1.47,1.47,1.46,-1.21,1.20,1.20,1.20
51.47,-0.32,-1.52,-0.32,-1.52,1.52,1.46,-1.20,1.20,1.20,1.20
51.99,-0.35,-1.56,-0.36,-1.56,1.56,1.42,-1.20,1.20,1.20,1.20
52.51,-0.36,-1.57,-0.36,-1.57,1.56,1.33,-1.19,1.20,1.20,1.20
53.03,-0.34,-1.55,-0.34,-1.55,1.54,1.21,-1.19,1.20,1.20,1.20
53.56,-0.29,-1.51,-0.29,-1.50,1.49,1.05,-1.19,1.20,1.20,1.22
54.10,-0.20,-1.42,-0.21,-1.42,1.41,0.87,-1.19,1.20,1.20,1.22
54.64,-0.09,-1.31,-0.09,-1.30,1.29,0.68,-1.20,1.20,1.20,1.22
55.18,0.06,-1.15,0.05,-1.16,1.15,0.47,-1.20,1.21,1.20,1.20
55.74,0.21,-0.99,0.22,-0.98,0.98,0.26,-1.20,1.19,1.20,1.20
56.29,0.42,-0.79,0.42,-0.78,0.78,0.06,-1.21,1.19,1.20,1.20
56.86,0.64,-0.55,0.64,-0.55,0.55,-0.14,-1.22,1.20,1.19,1.19
57.42,0.88,-0.31,0.88,-0.31,0.31,-0.34,-1.22,1.19,1.19,1.19
58.00,1.13,-0.05,1.13,-0.05,0.05,-0.52,-1.23,1.18,1.18,1.18
58.58,1.39,0.21,1.38,0.21,-0.22,-0.70,-1.24,1.17,1.17,1.17
59.16,1.65,0.49,1.65,0.49,-0.49,-0.86,-1.26,1.15,1.16,1.16
59.76,1.92,0.78,1.92,0.77,-0.78,-1.02,-1.27,1.15,1.15,1.15
60.35,2.20,1.06,2.19,1.06,-1.06,-1.17,-1.29,1.14,1.13,1.13
60.96,2.45,1.34,2.46,1.34,-1.34,-1.30,-1.30,1.12,1.12,1.12
61.57,2.71,1.61,2.72,1.61,-1.60,-1.43,-1.32,1.11,1.11,1.10
62.18,2.97,1.88,2.96,1.87,-1.86,-1.56,-1.34,1.10,1.10,1.09
62.80,3.20,2.13,3.19,2.12,-2.11,-1.67,-1.36,1.09,1.08,1.07
63.43,3.40,2.34,3.40,2.35,-2.34,-1.78,-1.38,1.06,1.06,1.06
64.07,3.59,2.56,3.59,2.55,-2.55,-1.89,-1.41,1.03,1.03,1.03
64.71,3.76,2.74,3.76,2.75,-2.75,-1.99,-1.44,1.01,1.01,1.01
65.35,3.93,2.93,3.92,2.93,-2.93,-2.08,-1.46,1.00,0.99,0.99
66.01,4.08,3.10,4.07,3.10,-3.10,-2.18,-1.49,0.98,0.98,0.97
66.67,4.21,3.25,4.21,3.25,-3.25,-2.26,-1.52,0.96,0.96,0.96
67.33,4.33,3.39,4.32,3.39,-3.39,-2.35,-1.56,0.93,0.93,0.94
68.01,4.43,3.52,4.43,3.52,-3.52,-2.43,-1.59,0.90,0.91,0.91
68.69,4.53,3.64,4.53,3.64,-3.64,-2.51,-1.63,0.88,0.88,0.89
69.37,4.62,3.75,4.62,3.75,-3.75,-2.59,-1.67,0.86,0.86,0.86
70.07,4.70,3.85,4.70,3.86,-3.86,-2.66,-1.71,0.84,0.84,0.84
70.77,4.78,3.96,4.77,3.95,-3.95,-2.74,-1.75,0.83,0.82,0.82
71.48,4.84,4.04,4.83,4.04,-4.04,-2.81,-1.79,0.80,0.80,0.80
72.19,4.89,4.11,4.89,4.11,-4.11,-2.88,-1.84,0.77,0.77,0.77
72.91,4.94,4.18,4.94,4.18,-4.19,-2.95,-1.88,0.75,0.75,0.76
73.64,4.99,4.25,4.99,4.25,-4.25,-3.02,-1.93,0.73,0.73,0.73
74.38,5.04,4.32,5.03,4.31,-4.32,-3.09,-1.98,0.72,0.71,0.72
75.12,5.07,4.37,5.07,4.37,-4.37,-3.16,-2.04,0.69,0.70,0.69
75.87,5.10,4.42,5.10,4.43,-4.42,-3.23,-2.09,0.67,0.68,0.68
76.63,5.14,4.48,5.13,4.47,-4.47,-3.29,-2.15,0.67,0.66,0.66
77.40,5.16,4.51,5.15,4.51,-4.51,-3.36,-2.21,0.64,0.64,0.64
78.17,5.17,4.54,5.17,4.55,-4.55,-3.43,-2.27,0.61,0.62,0.62
78.95,5.19,4.58,5.19,4.58,-4.58,-3.49,-2.33,0.60,0.60,0.60
79.74,5.20,4.61,5.20,4.61,-4.61,-3.56,-2.40,0.58,0.59,0.58
80.54,5.21,4.64,5.20,4.64,-4.63,-3.62,-2.46,0.57,0.57,0.56
81.35,5.20,4.65,5.20,4.65,-4.65,-3.69,-2.53,0.54,0.54,0.54
82.16,5.19,4.66,5.19,4.66,-4.67,-3.75,-2.61,0.52,0.52,0.52
82.98,5.17,4.67,5.17,4.67,-4.67,-3.82,-2.68,0.49,0.50,0.50
83.81,5.16,4.68,5.15,4.68,-4.68,-3.88,-2.76,0.48,0.48,0.48
84.65,5.14,4.68,5.13,4.67,-4.67,-3.94,-2.83,0.46,0.46,0.46
85.50,5.10,4.66,5.10,4.67,-4.66,-4.01,-2.92,0.43,0.44,0.43
86.35,5.06,4.65,5.06,4.65,-4.65,-4.07,-3.00,0.41,0.41,0.41
87.22,5.02,4.63,5.01,4.63,-4.62,-4.13,-3.09,0.39,0.39,0.38
88.09,4.97,4.61,4.96,4.60,-4.60,-4.20,-3.17,0.37,0.37,0.36
88.97,4.91,4.56,4.91,4.57,-4.57,-4.26,-3.26,0.34,0.34,0.34
89.86,4.85,4.53,4.85,4.53,-4.53,-4.32,-3.36,0.32,0.32,0.32
90.76,4.79,4.49,4.79,4.49,-4.50,-4.38,-3.45,0.29,0.29,0.29
91.66,4.74,4.46,4.73,4.46,-4.46,-4.44,-3.55,0.27,0.27,0.27
92.58,4.68,4.43,4.68,4.43,-4.43,-4.50,-3.65,0.24,0.25,0.25
93.51,4.64,4.42,4.63,4.41,-4.41,-4.56,-3.75,0.23,0.22,0.22
94.44,4.59,4.38,4.59,4.39,-4.39,-4.62,-3.86,0.19,0.19,0.20
95.39,4.56,4.38,4.56,4.38,-4.38,-4.67,-3.97,0.17,0.17,0.18
96.34,4.53,4.37,4.53,4.38,-4.38,-4.73,-4.08,0.14,0.15,0.16
97.30,4.52,4.39,4.52,4.39,-4.39,-4.78,-4.19,0.13,0.13,0.13
98.28,4.51,4.41,4.50,4.40,-4.40,-4.83,-4.30,0.11,0.10,0.10
99.26,4.50,4.43,4.49,4.42,-4.42,-4.89,-4.41,0.08,0.08,0.07
100.25,4.49,4.43,4.49,4.44,-4.44,-4.94,-4.53,0.04,0.04,0.05
101.25,4.49,4.46,4.49,4.47,-4.47,-4.98,-4.64,0.01,0.02,0.02
102.27,4.50,4.50,4.50,4.50,-4.51,-5.03,-4.76,-0.01,-0.01,-0.01
103.29,4.51,4.55,4.51,4.55,-4.54,-5.07,-4.88,-0.04,-0.04,-0.05
104.32,4.52,4.59,4.51,4.59,-4.58,-5.11,-4.99,-0.06,-0.07,-0.08
105.37,4.52,4.62,4.52,4.63,-4.62,-5.15,-5.11,-0.10,-0.10,-0.10
106.42,4.52,4.66,4.52,4.66,-4.66,-5.19,-5.22,-0.15,-0.15,-0.14
107.48,4.52,4.70,4.52,4.70,-4.71,-5.23,-5.33,-0.19,-0.19,-0.18
108.56,4.52,4.74,4.52,4.74,-4.75,-5.26,-5.44,-0.23,-0.23,-0.22
109.64,4.53,4.79,4.53,4.79,-4.79,-5.29,-5.55,-0.27,-0.27,-0.26
110.74,4.54,4.84,4.53,4.83,-4.83,-5.31,-5.65,-0.30,-0.30,-0.30
111.85,4.54,4.88,4.54,4.88,-4.87,-5.33,-5.75,-0.34,-0.34,-0.34
112.97,4.54,4.92,4.53,4.92,-4.91,-5.35,-5.84,-0.38,-0.38,-0.39
114.10,4.53,4.95,4.52,4.95,-4.95,-5.37,-5.93,-0.42,-0.43,-0.43
115.24,4.51,4.98,4.51,4.98,-4.98,-5.38,-6.01,-0.48,-0.48,-0.48
116.39,4.49,5.00,4.49,5.01,-5.01,-5.39,-6.08,-0.52,-0.52,-0.51
117.55,4.48,5.04,4.47,5.03,-5.03,-5.39,-6.14,-0.56,-0.56,-0.56
118.73,4.46,5.05,4.45,5.06,-5.05,-5.40,-6.19,-0.60,-0.60,-0.60
119.92,4.43,5.07,4.43,5.07,-5.07,-5.39,-6.23,-0.64,-0.64,-0.65
121.12,4.40,5.08,4.39,5.08,-5.07,-5.39,-6.26,-0.68,-0.68,-0.68
122.33,4.36,5.07,4.36,5.08,-5.08,-5.38,-6.28,-0.72,-0.72,-0.72
123.55,4.32,5.07,4.32,5.08,-5.08,-5.36,-6.28,-0.76,-0.76,-0.75
124.79,4.29,5.08,4.28,5.07,-5.07,-5.34,-6.28,-0.78,-0.79,-0.79
126.03,4.24,5.06,4.24,5.06,-5.06,-5.32,-6.26,-0.82,-0.82,-0.82
127.29,4.19,5.05,4.19,5.05,-5.04,-5.30,-6.23,-0.86,-0.86,-0.86
128.57,4.13,5.02,4.13,5.02,-5.02,-5.27,-6.19,-0.90,-0.89,-0.89
129.85,4.08,5.00,4.07,5.00,-5.00,-5.23,-6.14,-0.92,-0.93,-0.93
131.15,4.02,4.98,4.02,4.98,-4.98,-5.19,-6.07,-0.96,-0.96,-0.96
132.46,3.96,4.95,3.96,4.95,-4.95,-5.15,-5.99,-0.99,-0.99,-0.99
133.79,3.90,4.91,3.90,4.92,-4.92,-5.11,-5.91,-1.03,-1.02,-1.01
135.12,3.84,4.88,3.84,4.89,-4.89,-5.06,-5.81,-1.05,-1.05,-1.05
136.48,3.79,4.86,3.78,4.86,-4.86,-5.01,-5.71,-1.07,-1.07,-1.08
137.84,3.72,4.82,3.72,4.83,-4.82,-4.95,-5.60,-1.10,-1.10,-1.11
139.22,3.66,4.79,3.65,4.79,-4.78,-4.89,-5.48,-1.12,-1.13,-1.14
140.61,3.58,4.74,3.58,4.74,-4.74,-4.83,-5.36,-1.16,-1.16,-1.17
142.02,3.50,4.68,3.50,4.69,-4.69,-4.76,-5.23,-1.20,-1.19,-1.18
143.44,3.43,4.64,3.42,4.64,-4.65,-4.70,-5.09,-1.22,-1.22,-1.21
144.87,3.35,4.59,3.35,4.59,-4.59,-4.62,-4.95,-1.25,-1.25,-1.24
146.32,3.27,4.54,3.27,4.54,-4.54,-4.55,-4.81,-1.27,-1.27,-1.28
147.78,3.19,4.49,3.18,4.49,-4.48,-4.47,-4.66,-1.29,-1.30,-1.30
149.26,3.10,4.42,3.09,4.42,-4.42,-4.40,-4.52,-1.32,-1.33,-1.33
150.75,3.00,4.35,3.00,4.35,-4.36,-4.32,-4.37,-1.36,-1.35,-1.35
152.26,2.91,4.28,2.90,4.29,-4.29,-4.23,-4.22,-1.38,-1.38,-1.38
153.78,2.81,4.22,2.81,4.22,-4.21,-4.15,-4.07,-1.41,-1.40,-1.41
155.32,2.71,4.14,2.70,4.14,-4.13,-4.06,-3.92,-1.43,-1.43,-1.43
156.88,2.60,4.05,2.59,4.05,-4.05,-3.97,-3.77,-1.45,-1.46,-1.46
158.44,2.48,3.96,2.48,3.96,-3.96,-3.88,-3.62,-1.49,-1.48,-1.48
160.03,2.37,3.88,2.37,3.88,-3.88,-3.79,-3.47,-1.51,-1.51,-1.51
161.63,2.26,3.79,2.25,3.78,-3.79,-3.70,-3.32,-1.53,-1.54,-1.53
163.24,2.14,3.70,2.14,3.69,-3.70,-3.60,-3.18,-1.56,-1.56,-1.56
164.88,2.02,3.60,2.02,3.61,-3.61,-3.51,-3.03,-1.60,-1.59,-1.58
166.53,1.91,3.52,1.91,3.52,-3.52,-3.41,-2.89,-1.62,-1.61,-1.61
168.19,1.81,3.45,1.80,3.44,-3.44,-3.32,-2.74,-1.63,-1.64,-1.64
169.87,1.69,3.35,1.69,3.35,-3.35,-3.22,-2.60,-1.66,-1.66,-1.67
171.57,1.57,3.26,1.57,3.27,-3.26,-3.12,-2.46,-1.70,-1.69,-1.70
173.29,1.46,3.18,1.45,3.17,-3.18,-3.02,-2.32,-1.72,-1.72,-1.72
175.02,1.34,3.09,1.33,3.08,-3.09,-2.92,-2.18,-1.75,-1.75,-1.75
176.77,1.21,2.99,1.21,3.00,-3.00,-2.82,-2.05,-1.79,-1.78,-1.79
178.54,1.10,2.91,1.09,2.91,-2.91,-2.72,-1.91,-1.81,-1.81,-1.81
180.32,0.98,2.82,0.97,2.81,-2.81,-2.62,-1.78,-1.84,-1.84,-1.85
182.13,0.85,2.72,0.85,2.72,-2.72,-2.51,-1.65,-1.87,-1.87,-1.87
183.95,0.72,2.62,0.72,2.62,-2.62,-2.41,-1.52,-1.91,-1.90,-1.90
185.79,0.59,2.52,0.59,2.52,-2.52,-2.31,-1.39,-1.94,-1.94,-1.94
187.65,0.46,2.42,0.46,2.42,-2.42,-2.21,-1.27,-1.96,-1.96,-1.96
189.52,0.33,2.32,0.32,2.32,-2.32,-2.10,-1.14,-1.99,-1.99,-1.99
191.42,0.19,2.21,0.19,2.21,-2.21,-2.00,-1.02,-2.02,-2.02,-2.03
193.33,0.05,2.11,0.05,2.10,-2.10,-1.90,-0.89,-2.06,-2.05,-2.06
195.27,-0.09,1.99,-0.09,1.99,-1.99,-1.80,-0.77,-2.09,-2.08,-2.08
197.22,-0.23,1.88,-0.23,1.88,-1.88,-1.69,-0.65,-2.12,-2.12,-2.11
199.19,-0.37,1.77,-0.38,1.77,-1.77,-1.59,-0.53,-2.15,-2.15,-2.14
201.18,-0.52,1.66,-0.52,1.66,-1.66,-1.49,-0.42,-2.19,-2.19,-2.18
203.19,-0.67,1.54,-0.67,1.55,-1.55,-1.38,-0.30,-2.22,-2.22,-2.21
205.23,-0.80,1.44,-0.80,1.44,-1.44,-1.28,-0.19,-2.24,-2.24,-2.24
207.28,-0.94,1.33,-0.94,1.33,-1.32,-1.18,-0.08,-2.27,-2.27,-2.27
209.35,-1.08,1.22,-1.09,1.21,-1.21,-1.07,0.03,-2.29,-2.30,-2.30
211.44,-1.25,1.09,-1.25,1.09,-1.09,-0.97,0.14,-2.34,-2.34,-2.34
213.56,-1.41,0.96,-1.41,0.96,-0.97,-0.87,0.25,-2.38,-2.38,-2.37
215.69,-1.56,0.84,-1.57,0.84,-0.85,-0.76,0.35,-2.41,-2.42,-2.41
217.85,-1.72,0.72,-1.72,0.72,-0.72,-0.66,0.45,-2.45,-2.44,-2.45
220.03,-1.87,0.60,-1.88,0.60,-0.60,-0.56,0.55,-2.47,-2.47,-2.47
222.23,-2.03,0.47,-2.03,0.47,-0.47,-0.46,0.65,-2.50,-2.50,-2.50
224.45,-2.19,0.34,-2.20,0.34,-0.33,-0.35,0.74,-2.53,-2.53,-2.54
226.70,-2.36,0.20,-2.36,0.20,-0.20,-0.25,0.84,-2.56,-2.56,-2.57
228.96,-2.53,0.06,-2.53,0.06,-0.06,-0.15,0.92,-2.60,-2.59,-2.59
231.25,-2.69,-0.08,-2.69,-0.08,0.07,-0.04,1.01,-2.62,-2.62,-2.62
233.57,-2.85,-0.22,-2.85,-0.22,0.22,0.06,1.09,-2.64,-2.64,-2.63
235.90,-3.01,-0.35,-3.01,-0.36,0.36,0.16,1.17,-2.66,-2.66,-2.66
238.26,-3.17,-0.50,-3.17,-0.50,0.50,0.27,1.25,-2.67,-2.67,-2.68
240.64,-3.33,-0.64,-3.33,-0.64,0.64,0.37,1.32,-2.69,-2.69,-2.69
243.05,-3.49,-0.79,-3.49,-0.78,0.79,0.48,1.39,-2.71,-2.71,-2.71
245.48,-3.64,-0.92,-3.65,-0.93,0.93,0.58,1.46,-2.72,-2.73,-2.72
247.93,-3.81,-1.08,-3.81,-1.07,1.06,0.68,1.52,-2.75,-2.74,-2.74
250.41,-3.96,-1.21,-3.96,-1.21,1.20,0.79,1.58,-2.76,-2.76,-2.75
252.92,-4.10,-1.34,-4.11,-1.34,1.34,0.89,1.63,-2.77,-2.77,-2.77
255.45,-4.24,-1.46,-4.24,-1.46,1.47,1.00,1.68,-2.77,-2.77,-2.78
258.00,-4.38,-1.59,-4.39,-1.59,1.60,1.10,1.73,-2.78,-2.78,-2.80
260.58,-4.52,-1.72,-4.53,-1.72,1.73,1.21,1.78,-2.80,-2.80,-2.80
263.19,-4.67,-1.86,-4.67,-1.86,1.85,1.31,1.82,-2.82,-2.82,-2.81
265.82,-4.80,-1.98,-4.80,-1.98,1.97,1.42,1.86,-2.83,-2.83,-2.83
268.48,-4.93,-2.09,-4.93,-2.09,2.08,1.52,1.89,-2.85,-2.85,-2.84
271.16,-5.04,-2.19,-5.05,-2.20,2.20,1.63,1.93,-2.85,-2.86,-2.85
273.87,-5.17,-2.31,-5.17,-2.30,2.30,1.74,1.96,-2.87,-2.87,-2.87
276.61,-5.28,-2.40,-5.28,-2.40,2.40,1.84,1.99,-2.88,-2.88,-2.88
279.38,-5.39,-2.50,-5.39,-2.50,2.50,1.95,2.02,-2.89,-2.89,-2.89
282.17,-5.49,-2.59,-5.50,-2.59,2.59,2.06,2.05,-2.90,-2.91,-2.91
284.99,-5.60,-2.68,-5.60,-2.68,2.68,2.17,2.07,-2.92,-2.92,-2.92
287.84,-5.70,-2.77,-5.70,-2.77,2.77,2.28,2.10,-2.94,-2.94,-2.93
290.72,-5.79,-2.85,-5.79,-2.85,2.85,2.38,2.12,-2.94,-2.95,-2.95
293.63,-5.88,-2.93,-5.89,-2.93,2.93,2.49,2.15,-2.95,-2.96,-2.96
296.57,-5.97,-3.00,-5.98,-3.01,3.01,2.60,2.17,-2.96,-2.97,-2.97
299.53,-6.07,-3.09,-6.07,-3.09,3.09,2.71,2.20,-2.99,-2.98,-2.98
302.53,-6.16,-3.17,-6.16,-3.16,3.16,2.82,2.22,-3.00,-3.00,-3.00
305.55,-6.25,-3.24,-6.25,-3.24,3.24,2.93,2.25,-3.02,-3.02,-3.02
308.61,-6.34,-3.31,-6.34,-3.31,3.31,3.05,2.27,-3.03,-3.03,-3.03
311.69,-6.43,-3.39,-6.43,-3.39,3.39,3.16,2.30,-3.05,-3.04,-3.04
314.81,-6.52,-3.46,-6.52,-3.46,3.47,3.27,2.33,-3.06,-3.06,-3.06
317.96,-6.61,-3.54,-6.62,-3.54,3.54,3.38,2.36,-3.07,-3.07,-3.08
321.14,-6.71,-3.62,-6.71,-3.62,3.62,3.49,2.39,-3.09,-3.09,-3.10
324.35,-6.81,-3.70,-6.81,-3.70,3.70,3.60,2.43,-3.11,-3.11,-3.11
327.59,-6.91,-3.78,-6.92,-3.79,3.78,3.72,2.46,-3.13,-3.13,-3.13
330.87,-7.02,-3.88,-7.02,-3.87,3.87,3.83,2.50,-3.16,-3.15,-3.14
334.18,-7.11,-3.95,-7.12,-3.95,3.95,3.94,2.54,-3.16,-3.16,-3.16
337.52,-7.21,-4.04,-7.22,-4.04,4.04,4.05,2.58,-3.17,-3.18,-3.18
340.90,-7.32,-4.13,-7.32,-4.13,4.13,4.16,2.63,-3.19,-3.19,-3.20
344.30,-7.43,-4.23,-7.43,-4.22,4.22,4.27,2.67,-3.21,-3.21,-3.21
347.75,-7.54,-4.31,-7.54,-4.31,4.32,4.38,2.72,-3.23,-3.23,-3.23
351.23,-7.65,-4.40,-7.65,-4.41,4.41,4.49,2.77,-3.24,-3.25,-3.25
354.74,-7.76,-4.50,-7.77,-4.50,4.50,4.60,2.83,-3.26,-3.27,-3.26
358.28,-7.88,-4.60,-7.88,-4.60,4.59,4.70,2.88,-3.29,-3.29,-3.28
361.87,-7.99,-4.69,-7.99,-4.69,4.68,4.81,2.94,-3.31,-3.31,-3.30
365.49,-8.09,-4.78,-8.09,-4.77,4.77,4.91,3.00,-3.32,-3.32,-3.32
369.14,-8.18,-4.85,-8.19,-4.86,4.85,5.01,3.06,-3.33,-3.33,-3.34
372.83,-8.28,-4.94,-8.28,-4.93,4.94,5.11,3.13,-3.35,-3.35,-3.35
376.56,-8.38,-5.02,-8.38,-5.01,5.02,5.21,3.20,-3.37,-3.36,-3.37
380.33,-8.47,-5.08,-8.48,-5.09,5.09,5.30,3.27,-3.38,-3.38,-3.39
384.13,-8.56,-5.16,-8.57,-5.16,5.17,5.39,3.34,-3.40,-3.40,-3.40
387.97,-8.65,-5.23,-8.65,-5.23,5.23,5.47,3.41,-3.42,-3.42,-3.42
391.85,-8.73,-5.30,-8.73,-5.30,5.30,5.55,3.48,-3.43,-3.43,-3.43
395.77,-8.80,-5.36,-8.81,-5.36,5.36,5.62,3.56,-3.45,-3.45,-3.44
399.73,-8.87,-5.42,-8.87,-5.42,5.41,5.69,3.64,-3.46,-3.46,-3.45
403.72,-8.92,-5.46,-8.93,-5.46,5.46,5.76,3.71,-3.47,-3.47,-3.46
407.76,-8.97,-5.50,-8.98,-5.50,5.50,5.81,3.79,-3.48,-3.48,-3.47
411.84,-9.02,-5.53,-9.02,-5.53,5.53,5.86,3.87,-3.50,-3.49,-3.50
415.96,-9.05,-5.55,-9.06,-5.55,5.55,5.90,3.95,-3.50,-3.50,-3.51
420.12,-9.08,-5.57,-9.08,-5.57,5.57,5.93,4.03,-3.52,-3.52,-3.52
424.32,-9.10,-5.58,-9.11,-5.58,5.57,5.95,4.10,-3.53,-3.53,-3.53
428.56,-9.12,-5.59,-9.12,-5.58,5.58,5.97,4.18,-3.55,-3.55,-3.54
432.85,-9.13,-5.58,-9.13,-5.58,5.57,5.97,4.25,-3.56,-3.56,-3.56
437.18,-9.13,-5.56,-9.14,-5.57,5.57,5.96,4.32,-3.57,-3.57,-3.57
441.55,-9.13,-5.55,-9.13,-5.55,5.55,5.94,4.38,-3.58,-3.58,-3.58
445.96,-9.13,-5.53,-9.13,-5.53,5.54,5.91,4.44,-3.60,-3.60,-3.60
450.42,-9.13,-5.51,-9.13,-5.52,5.52,5.87,4.50,-3.61,-3.61,-3.62
454.93,-9.13,-5.50,-9.13,-5.50,5.50,5.81,4.55,-3.63,-3.63,-3.63
459.48,-9.13,-5.48,-9.13,-5.48,5.49,5.75,4.59,-3.65,-3.65,-3.65
464.07,-9.13,-5.46,-9.13,-5.46,5.47,5.67,4.63,-3.67,-3.67,-3.67
468.71,-9.13,-5.44,-9.13,-5.44,5.45,5.58,4.65,-3.68,-3.68,-3.69
473.40,-9.13,-5.43,-9.13,-5.43,5.43,5.47,4.67,-3.70,-3.70,-3.70
478.13,-9.12,-5.40,-9.13,-5.40,5.41,5.36,4.68,-3.72,-3.72,-3.72
482.91,-9.11,-5.38,-9.11,-5.38,5.38,5.23,4.68,-3.73,-3.73,-3.73
487.74,-9.09,-5.34,-9.09,-5.34,5.35,5.09,4.67,-3.75,-3.75,-3.75
492.62,-9.06,-5.30,-9.07,-5.30,5.30,4.94,4.65,-3.76,-3.76,-3.76
