frequency,raw,error,smoothed,error_smoothed,equalization,parametric_eq,fixed_band_eq,equalized_raw,equalized_smoothed,target
20.00,3.86,-3.30,3.86,-3.30,3.30,2.97,0.86,7.15,7.16,7.16
20.20,3.86,-3.27,3.86,-3.28,3.28,2.95,0.88,7.13,7.13,7.13
20.40,3.86,-3.25,3.86,-3.25,3.25,2.93,0.91,7.11,7.11,7.11
20.61,3.86,-3.23,3.86,-3.23,3.23,2.90,0.94,7.08,7.09,7.09
20.81,3.87,-3.20,3.87,-3.20,3.20,2.88,0.97,7.07,7.06,7.07
21.02,3.88,-3.17,3.88,-3.17,3.17,2.85,1.00,7.05,7.05,7.05
21.23,3.89,-3.14,3.89,-3.14,3.14,2.83,1.03,7.02,7.03,7.03
21.44,3.91,-3.10,3.90,-3.10,3.10,2.81,1.06,7.01,7.01,7.01
21.66,3.92,-3.07,3.92,-3.07,3.07,2.78,1.09,6.98,6.99,6.99
21.87,3.95,-3.03,3.94,-3.03,3.03,2.76,1.13,6.98,6.97,6.97
22.09,3.97,-2.99,3.97,-2.99,2.99,2.73,1.16,6.96,6.96,6.95
22.31,4.00,-2.95,4.00,-2.95,2.94,2.70,1.20,6.94,6.94,6.94
22.54,4.03,-2.91,4.03,-2.90,2.90,2.68,1.23,6.92,6.93,6.93
22.76,4.07,-2.86,4.07,-2.86,2.85,2.65,1.27,6.91,6.91,6.92
22.99,4.11,-2.81,4.11,-2.80,2.80,2.63,1.31,6.90,6.91,6.91
23.22,4.16,-2.74,4.16,-2.74,2.74,2.60,1.35,6.90,6.90,6.90
23.45,4.21,-2.68,4.20,-2.69,2.69,2.58,1.39,6.90,6.90,6.89
23.69,4.25,-2.63,4.25,-2.63,2.64,2.55,1.43,6.89,6.89,6.88
23.92,4.30,-2.58,4.29,-2.59,2.60,2.52,1.47,6.89,6.89,6.88
24.16,4.33,-2.54,4.33,-2.54,2.55,2.50,1.51,6.88,6.88,6.87
24.40,4.36,-2.51,4.36,-2.51,2.51,2.47,1.55,6.87,6.87,6.87
24.65,4.39,-2.47,4.38,-2.48,2.47,2.44,1.60,6.86,6.86,6.86
24.89,4.41,-2.45,4.41,-2.44,2.44,2.42,1.64,6.84,6.85,6.86
25.14,4.44,-2.41,4.44,-2.41,2.40,2.39,1.68,6.84,6.84,6.85
25.39,4.47,-2.37,4.47,-2.37,2.36,2.36,1.73,6.83,6.83,6.84
25.65,4.51,-2.33,4.51,-2.32,2.32,2.33,1.77,6.82,6.83,6.83
25.91,4.55,-2.28,4.55,-2.28,2.28,2.31,1.81,6.82,6.82,6.82
26.16,4.60,-2.23,4.59,-2.23,2.23,2.28,1.86,6.83,6.83,6.82
26.43,4.63,-2.20,4.63,-2.19,2.19,2.25,1.90,6.82,6.83,6.82
26.69,4.67,-2.14,4.67,-2.15,2.16,2.23,1.94,6.82,6.82,6.81
26.96,4.70,-2.11,4.69,-2.11,2.12,2.20,1.98,6.82,6.82,6.81
27.23,4.72,-2.08,4.71,-2.09,2.09,2.17,2.02,6.81,6.81,6.80
27.50,4.73,-2.07,4.73,-2.07,2.07,2.14,2.06,6.79,6.80,6.80
27.77,4.75,-2.05,4.75,-2.04,2.04,2.12,2.10,6.78,6.79,6.80
28.05,4.77,-2.02,4.77,-2.02,2.01,2.09,2.13,6.78,6.78,6.79
28.33,4.80,-1.99,4.79,-1.99,1.98,2.06,2.16,6.78,6.78,6.78
28.62,4.82,-1.97,4.82,-1.96,1.96,2.03,2.19,6.77,6.78,6.78
28.90,4.85,-1.92,4.85,-1.93,1.93,2.00,2.22,6.78,6.78,6.77
29.19,4.88,-1.89,4.88,-1.89,1.90,1.98,2.24,6.78,6.78,6.77
29.48,4.91,-1.86,4.90,-1.86,1.87,1.95,2.27,6.78,6.78,6.77
29.78,4.93,-1.84,4.93,-1.84,1.84,1.92,2.28,6.77,6.77,6.77
30.08,4.95,-1.82,4.95,-1.81,1.81,1.89,2.30,6.76,6.76,6.77
30.38,4.97,-1.79,4.97,-1.79,1.78,1.87,2.31,6.75,6.75,6.75
30.68,5.00,-1.76,5.00,-1.76,1.75,1.84,2.32,6.75,6.75,6.75
30.99,5.03,-1.72,5.03,-1.72,1.72,1.81,2.32,6.74,6.74,6.75
31.30,5.06,-1.69,5.06,-1.69,1.69,1.78,2.32,6.74,6.74,6.75
31.61,5.09,-1.65,5.09,-1.65,1.66,1.76,2.32,6.74,6.74,6.74
31.93,5.12,-1.62,5.11,-1.62,1.63,1.73,2.31,6.75,6.74,6.73
32.24,5.14,-1.59,5.13,-1.59,1.60,1.70,2.30,6.74,6.74,6.73
32.57,5.15,-1.57,5.15,-1.58,1.58,1.67,2.29,6.73,6.73,6.72
32.89,5.16,-1.56,5.16,-1.56,1.56,1.65,2.27,6.72,6.72,6.72
33.22,5.17,-1.55,5.17,-1.54,1.54,1.62,2.25,6.71,6.71,6.72
33.55,5.18,-1.53,5.18,-1.53,1.53,1.59,2.22,6.70,6.70,6.70
33.89,5.19,-1.51,5.19,-1.51,1.51,1.56,2.20,6.70,6.70,6.70
34.23,5.20,-1.50,5.20,-1.49,1.49,1.54,2.17,6.69,6.69,6.70
34.57,5.22,-1.47,5.22,-1.47,1.47,1.51,2.14,6.68,6.68,6.68
34.92,5.24,-1.45,5.24,-1.44,1.44,1.48,2.10,6.67,6.68,6.68
35.27,5.27,-1.41,5.27,-1.41,1.41,1.46,2.06,6.67,6.67,6.68
35.62,5.30,-1.37,5.30,-1.37,1.37,1.43,2.03,6.67,6.67,6.67
35.97,5.33,-1.34,5.33,-1.34,1.34,1.40,1.99,6.67,6.67,6.66
36.33,5.36,-1.30,5.36,-1.30,1.30,1.37,1.94,6.66,6.66,6.66
36.70,5.39,-1.27,5.39,-1.27,1.27,1.35,1.90,6.65,6.65,6.66
37.06,5.42,-1.23,5.42,-1.23,1.23,1.32,1.86,6.65,6.65,6.65
37.43,5.45,-1.19,5.44,-1.20,1.20,1.29,1.82,6.64,6.64,6.64
37.81,5.47,-1.17,5.47,-1.17,1.17,1.27,1.77,6.63,6.63,6.63
38.19,5.49,-1.14,5.49,-1.14,1.14,1.24,1.73,6.63,6.63,6.63
38.57,5.51,-1.11,5.50,-1.11,1.12,1.22,1.68,6.62,6.62,6.62
38.95,5.52,-1.09,5.52,-1.09,1.10,1.19,1.64,6.62,6.62,6.61
39.34,5.52,-1.08,5.52,-1.08,1.09,1.16,1.59,6.60,6.60,6.60
39.74,5.52,-1.07,5.51,-1.07,1.08,1.14,1.55,6.59,6.59,6.59
40.14,5.51,-1.07,5.51,-1.07,1.07,1.11,1.50,6.58,6.58,6.58
40.54,5.50,-1.07,5.50,-1.07,1.07,1.08,1.46,6.56,6.57,6.57
40.94,5.50,-1.07,5.50,-1.07,1.06,1.06,1.42,6.56,6.56,6.57
41.35,5.50,-1.06,5.50,-1.06,1.07,1.03,1.37,6.56,6.56,6.56
41.76,5.50,-1.06,5.49,-1.06,1.07,1.01,1.33,6.57,6.56,6.55
42.18,5.49,-1.06,5.49,-1.06,1.07,0.98,1.29,6.56,6.56,6.55
42.60,5.48,-1.07,5.48,-1.07,1.07,0.95,1.25,6.55,6.55,6.54
43.03,5.47,-1.08,5.47,-1.07,1.07,0.93,1.21,6.53,6.54,6.55
43.46,5.47,-1.07,5.47,-1.07,1.06,0.90,1.17,6.53,6.53,6.54
43.90,5.48,-1.05,5.48,-1.06,1.05,0.88,1.13,6.53,6.52,6.53
44.33,5.49,-1.04,5.49,-1.04,1.03,0.85,1.10,6.52,6.52,6.52
44.78,5.51,-1.01,5.51,-1.01,1.01,0.83,1.06,6.52,6.52,6.52
45.23,5.53,-0.98,5.53,-0.98,0.98,0.80,1.03,6.51,6.51,6.51
45.68,5.55,-0.95,5.55,-0.95,0.95,0.77,0.99,6.50,6.50,6.50
46.13,5.58,-0.91,5.58,-0.92,0.91,0.75,0.96,6.49,6.49,6.49
46.60,5.61,-0.88,5.61,-0.88,0.87,0.72,0.92,6.48,6.48,6.48
47.06,5.64,-0.84,5.64,-0.83,0.83,0.70,0.89,6.47,6.47,6.47
47.53,5.67,-0.79,5.67,-0.79,0.79,0.67,0.86,6.46,6.46,6.45
48.01,5.70,-0.75,5.70,-0.75,0.75,0.65,0.83,6.44,6.44,6.44
48.49,5.73,-0.71,5.73,-0.71,0.71,0.62,0.80,6.43,6.43,6.43
48.97,5.76,-0.67,5.76,-0.67,0.67,0.60,0.77,6.42,6.42,6.42
49.46,5.79,-0.63,5.79,-0.63,0.63,0.57,0.74,6.42,6.42,6.41
49.96,5.81,-0.59,5.81,-0.59,0.60,0.55,0.71,6.41,6.41,6.40
50.46,5.83,-0.56,5.83,-0.56,0.57,0.52,0.69,6.40,6.40,6.39
50.96,5.84,-0.54,5.83,-0.55,0.55,0.50,0.66,6.39,6.39,6.38
51.47,5.84,-0.54,5.84,-0.53,0.54,0.47,0.63,6.37,6.37,6.37
51.99,5.84,-0.52,5.84,-0.52,0.52,0.45,0.61,6.36,6.36,6.36
52.51,5.84,-0.51,5.83,-0.52,0.51,0.42,0.58,6.35,6.35,6.35
53.03,5.83,-0.51,5.83,-0.51,0.51,0.40,0.56,6.33,6.33,6.33
53.56,5.82,-0.50,5.82,-0.50,0.50,0.37,0.53,6.31,6.32,6.32
54.10,5.82,-0.50,5.82,-0.49,0.49,0.35,0.51,6.31,6.31,6.31
54.64,5.82,-0.48,5.82,-0.48,0.48,0.32,0.49,6.30,6.29,6.30
55.18,5.82,-0.47,5.82,-0.47,0.47,0.30,0.46,6.28,6.28,6.28
55.74,5.82,-0.45,5.82,-0.45,0.45,0.27,0.44,6.27,6.27,6.27
56.29,5.82,-0.44,5.82,-0.44,0.44,0.25,0.41,6.26,6.26,6.26
56.86,5.82,-0.42,5.82,-0.42,0.43,0.22,0.39,6.24,6.24,6.24
57.42,5.82,-0.41,5.82,-0.41,0.41,0.20,0.37,6.23,6.23,6.22
58.00,5.82,-0.40,5.82,-0.39,0.39,0.17,0.34,6.21,6.21,6.21
58.58,5.82,-0.38,5.82,-0.38,0.38,0.15,0.32,6.19,6.19,6.19
59.16,5.82,-0.36,5.82,-0.36,0.36,0.12,0.30,6.18,6.18,6.17
59.76,5.82,-0.35,5.82,-0.34,0.34,0.09,0.27,6.16,6.16,6.16
60.35,5.82,-0.32,5.82,-0.32,0.32,0.07,0.25,6.14,6.14,6.14
60.96,5.82,-0.30,5.82,-0.30,0.30,0.04,0.22,6.12,6.12,6.12
61.57,5.82,-0.28,5.82,-0.28,0.28,0.02,0.20,6.10,6.10,6.10
62.18,5.82,-0.26,5.82,-0.26,0.26,-0.01,0.17,6.07,6.07,6.07
62.80,5.82,-0.23,5.82,-0.23,0.23,-0.03,0.15,6.05,6.05,6.05
63.43,5.82,-0.21,5.82,-0.21,0.21,-0.06,0.12,6.02,6.02,6.02
64.07,5.82,-0.18,5.82,-0.18,0.18,-0.09,0.10,6.00,6.00,6.00
64.71,5.82,-0.15,5.82,-0.15,0.15,-0.11,0.07,5.97,5.97,5.97
65.35,5.82,-0.13,5.82,-0.13,0.13,-0.14,0.04,5.94,5.94,5.94
66.01,5.82,-0.10,5.82,-0.10,0.10,-0.16,0.01,5.92,5.92,5.92
66.67,5.82,-0.07,5.82,-0.07,0.07,-0.19,-0.01,5.89,5.89,5.89
67.33,5.82,-0.04,5.82,-0.04,0.04,-0.22,-0.04,5.86,5.86,5.86
68.01,5.82,-0.01,5.82,-0.01,0.01,-0.24,-0.07,5.83,5.83,5.83
68.69,5.82,0.02,5.82,0.02,-0.02,-0.27,-0.10,5.80,5.80,5.80
69.37,5.82,0.05,5.82,0.05,-0.05,-0.30,-0.13,5.76,5.76,5.76
70.07,5.82,0.09,5.82,0.09,-0.09,-0.32,-0.16,5.73,5.73,5.73
70.77,5.82,0.12,5.82,0.12,-0.12,-0.35,-0.20,5.70,5.70,5.70
71.48,5.82,0.15,5.82,0.15,-0.15,-0.38,-0.23,5.67,5.67,5.67
72.19,5.82,0.18,5.82,0.18,-0.18,-0.41,-0.26,5.63,5.63,5.64
72.91,5.82,0.22,5.82,0.22,-0.22,-0.43,-0.29,5.60,5.60,5.60
73.64,5.82,0.25,5.82,0.25,-0.25,-0.46,-0.33,5.57,5.57,5.56
74.38,5.82,0.28,5.82,0.29,-0.28,-0.49,-0.36,5.53,5.53,5.53
75.12,5.82,0.32,5.82,0.32,-0.32,-0.52,-0.39,5.50,5.50,5.50
75.87,5.82,0.35,5.82,0.35,-0.36,-0.55,-0.43,5.46,5.46,5.47
76.63,5.82,0.39,5.82,0.39,-0.39,-0.57,-0.47,5.42,5.42,5.42
77.40,5.82,0.43,5.82,0.43,-0.43,-0.60,-0.50,5.39,5.39,5.38
78.17,5.82,0.47,5.82,0.47,-0.47,-0.63,-0.54,5.35,5.35,5.35
78.95,5.82,0.51,5.82,0.51,-0.51,-0.66,-0.58,5.31,5.31,5.31
79.74,5.82,0.55,5.82,0.55,-0.55,-0.69,-0.62,5.26,5.26,5.26
80.54,5.82,0.59,5.82,0.59,-0.60,-0.72,-0.65,5.22,5.22,5.23
81.35,5.82,0.63,5.82,0.64,-0.65,-0.75,-0.69,5.17,5.18,5.18
82.16,5.83,0.69,5.83,0.69,-0.69,-0.78,-0.73,5.13,5.13,5.14
82.98,5.84,0.75,5.83,0.74,-0.74,-0.81,-0.78,5.10,5.09,5.09
83.81,5.84,0.80,5.84,0.79,-0.79,-0.84,-0.82,5.05,5.05,5.04
84.65,5.84,0.83,5.84,0.84,-0.83,-0.87,-0.86,5.01,5.00,5.00
85.50,5.83,0.87,5.83,0.88,-0.87,-0.90,-0.90,4.95,4.95,4.95
86.35,5.82,0.91,5.82,0.91,-0.91,-0.93,-0.95,4.91,4.91,4.90
87.22,5.80,0.95,5.80,0.95,-0.94,-0.97,-0.99,4.85,4.85,4.85
88.09,5.78,0.98,5.78,0.98,-0.97,-1.00,-1.04,4.80,4.80,4.80
88.97,5.75,1.00,5.75,1.00,-1.00,-1.03,-1.09,4.75,4.75,4.75
89.86,5.72,1.02,5.72,1.02,-1.02,-1.06,-1.13,4.69,4.69,4.70
90.76,5.69,1.05,5.69,1.05,-1.05,-1.09,-1.18,4.64,4.64,4.64
91.66,5.66,1.07,5.66,1.07,-1.07,-1.13,-1.23,4.59,4.59,4.59
92.58,5.63,1.09,5.63,1.09,-1.09,-1.16,-1.28,4.53,4.53,4.53
93.51,5.60,1.12,5.60,1.12,-1.12,-1.19,-1.33,4.48,4.48,4.48
94.44,5.57,1.14,5.57,1.14,-1.14,-1.23,-1.39,4.43,4.43,4.42
95.39,5.54,1.17,5.54,1.17,-1.17,-1.26,-1.44,4.37,4.37,4.37
96.34,5.52,1.21,5.51,1.20,-1.20,-1.30,-1.49,4.31,4.31,4.31
97.30,5.50,1.23,5.50,1.23,-1.24,-1.33,-1.54,4.26,4.26,4.26
98.28,5.48,1.27,5.48,1.27,-1.28,-1.36,-1.60,4.19,4.20,4.21
99.26,5.48,1.33,5.47,1.32,-1.33,-1.40,-1.65,4.15,4.14,4.15
100.25,5.47,1.37,5.47,1.38,-1.38,-1.43,-1.71,4.08,4.09,4.09
101.25,5.48,1.44,5.48,1.44,-1.44,-1.47,-1.76,4.04,4.04,4.04
102.27,5.49,1.51,5.48,1.50,-1.50,-1.50,-1.82,3.99,3.98,3.98
103.29,5.49,1.57,5.49,1.57,-1.56,-1.54,-1.87,3.93,3.93,3.92
104.32,5.50,1.62,5.49,1.63,-1.62,-1.58,-1.93,3.88,3.88,3.87
105.37,5.50,1.68,5.50,1.68,-1.68,-1.61,-1.98,3.82,3.81,3.81
106.42,5.50,1.74,5.50,1.74,-1.74,-1.65,-2.04,3.75,3.76,3.76
107.48,5.50,1.79,5.50,1.79,-1.80,-1.69,-2.09,3.69,3.70,3.71
108.56,5.51,1.86,5.50,1.85,-1.86,-1.72,-2.14,3.65,3.64,3.65
109.64,5.51,1.91,5.51,1.92,-1.92,-1.76,-2.19,3.59,3.59,3.59
110.74,5.52,1.98,5.52,1.98,-1.97,-1.80,-2.24,3.54,3.54,3.54
111.85,5.52,2.04,5.51,2.03,-2.03,-1.83,-2.29,3.49,3.49,3.48
112.97,5.51,2.08,5.51,2.08,-2.07,-1.87,-2.34,3.43,3.44,3.43
114.10,5.50,2.12,5.49,2.12,-2.12,-1.91,-2.38,3.38,3.38,3.38
115.24,5.48,2.16,5.48,2.15,-2.15,-1.94,-2.42,3.32,3.32,3.32
116.39,5.45,2.18,5.45,2.19,-2.19,-1.98,-2.46,3.26,3.27,3.26
117.55,5.43,2.21,5.42,2.21,-2.21,-2.02,-2.50,3.21,3.21,3.22
118.73,5.40,2.23,5.40,2.24,-2.24,-2.06,-2.54,3.16,3.16,3.16
119.92,5.37,2.26,5.37,2.26,-2.26,-2.09,-2.57,3.11,3.11,3.11
121.12,5.34,2.28,5.34,2.28,-2.28,-2.13,-2.59,3.06,3.06,3.05
122.33,5.31,2.30,5.31,2.30,-2.30,-2.17,-2.62,3.01,3.01,3.01
123.55,5.28,2.32,5.28,2.32,-2.31,-2.21,-2.64,2.96,2.96,2.96
124.79,5.25,2.33,5.25,2.33,-2.33,-2.24,-2.66,2.91,2.91,2.91
126.03,5.22,2.35,5.22,2.35,-2.35,-2.28,-2.67,2.86,2.86,2.86
127.29,5.20,2.37,5.19,2.37,-2.38,-2.32,-2.68,2.82,2.81,2.82
128.57,5.18,2.41,5.17,2.40,-2.41,-2.35,-2.69,2.76,2.76,2.77
129.85,5.16,2.43,5.16,2.44,-2.45,-2.39,-2.69,2.71,2.71,2.72
131.15,5.16,2.48,5.16,2.48,-2.49,-2.43,-2.69,2.66,2.66,2.67
132.46,5.16,2.52,5.16,2.53,-2.54,-2.46,-2.69,2.62,2.62,2.63
133.79,5.18,2.59,5.17,2.58,-2.59,-2.50,-2.69,2.59,2.59,2.59
135.12,5.18,2.64,5.18,2.64,-2.63,-2.53,-2.68,2.55,2.55,2.54
136.48,5.19,2.69,5.18,2.69,-2.68,-2.56,-2.67,2.51,2.51,2.49
137.84,5.18,2.73,5.17,2.73,-2.71,-2.60,-2.66,2.46,2.46,2.45
139.22,5.16,2.75,5.16,2.75,-2.75,-2.63,-2.64,2.41,2.41,2.41
140.61,5.14,2.78,5.14,2.77,-2.77,-2.66,-2.63,2.37,2.37,2.36
142.02,5.12,2.79,5.11,2.79,-2.79,-2.70,-2.61,2.33,2.32,2.33
143.44,5.09,2.80,5.09,2.80,-2.80,-2.73,-2.59,2.28,2.29,2.29
144.87,5.06,2.81,5.06,2.81,-2.81,-2.76,-2.58,2.25,2.25,2.25
146.32,5.03,2.81,5.03,2.82,-2.82,-2.79,-2.56,2.21,2.21,2.22
147.78,5.00,2.82,5.00,2.82,-2.82,-2.82,-2.54,2.18,2.18,2.18
149.26,4.97,2.83,4.97,2.82,-2.82,-2.85,-2.52,2.14,2.14,2.14
150.75,4.94,2.83,4.94,2.83,-2.83,-2.87,-2.50,2.11,2.11,2.11
152.26,4.91,2.83,4.91,2.83,-2.83,-2.90,-2.48,2.08,2.08,2.07
153.78,4.88,2.84,4.88,2.84,-2.84,-2.92,-2.46,2.04,2.04,2.04
155.32,4.86,2.84,4.85,2.84,-2.85,-2.95,-2.45,2.01,2.00,2.01
156.88,4.84,2.86,4.84,2.86,-2.87,-2.97,-2.43,1.97,1.97,1.98
158.44,4.83,2.88,4.83,2.88,-2.90,-2.99,-2.41,1.93,1.93,1.95
160.03,4.83,2.91,4.83,2.91,-2.92,-3.01,-2.40,1.90,1.90,1.91
161.63,4.84,2.95,4.84,2.95,-2.96,-3.03,-2.39,1.88,1.88,1.88
163.24,4.85,2.99,4.85,2.99,-2.99,-3.05,-2.38,1.86,1.86,1.86
164.88,4.87,3.04,4.86,3.03,-3.02,-3.07,-2.37,1.85,1.84,1.83
166.53,4.87,3.06,4.86,3.06,-3.05,-3.08,-2.36,1.82,1.82,1.80
168.19,4.86,3.08,4.86,3.08,-3.07,-3.10,-2.35,1.79,1.79,1.77
169.87,4.84,3.08,4.84,3.09,-3.08,-3.11,-2.35,1.76,1.76,1.76
171.57,4.82,3.09,4.82,3.09,-3.09,-3.12,-2.34,1.73,1.73,1.73
173.29,4.80,3.09,4.79,3.09,-3.09,-3.13,-2.34,1.71,1.70,1.70
175.02,4.77,3.09,4.77,3.09,-3.09,-3.14,-2.34,1.68,1.68,1.68
176.77,4.74,3.07,4.74,3.08,-3.08,-3.14,-2.35,1.66,1.66,1.66
178.54,4.71,3.07,4.71,3.07,-3.08,-3.15,-2.35,1.63,1.63,1.64
180.32,4.68,3.06,4.68,3.06,-3.07,-3.15,-2.36,1.61,1.61,1.62
182.13,4.66,3.06,4.65,3.06,-3.06,-3.15,-2.36,1.59,1.59,1.59
183.95,4.63,3.05,4.63,3.06,-3.06,-3.15,-2.37,1.57,1.57,1.57
185.79,4.61,3.06,4.60,3.05,-3.05,-3.15,-2.39,1.56,1.56,1.55
187.65,4.58,3.05,4.58,3.05,-3.04,-3.15,-2.40,1.54,1.54,1.53
189.52,4.55,3.04,4.55,3.04,-3.03,-3.14,-2.41,1.51,1.51,1.51
191.42,4.52,3.02,4.52,3.02,-3.02,-3.14,-2.43,1.49,1.49,1.49
193.33,4.49,3.01,4.49,3.01,-3.02,-3.13,-2.45,1.47,1.47,1.47
195.27,4.46,3.00,4.46,3.00,-3.01,-3.12,-2.47,1.45,1.45,1.46
197.22,4.43,2.99,4.43,2.99,-3.00,-3.11,-2.49,1.43,1.43,1.44
199.19,4.41,2.99,4.41,2.98,-2.99,-3.10,-2.51,1.42,1.42,1.42
201.18,4.39,2.97,4.39,2.97,-2.98,-3.09,-2.54,1.41,1.41,1.42
203.19,4.37,2.97,4.37,2.97,-2.96,-3.07,-2.56,1.40,1.40,1.40
205.23,4.35,2.95,4.35,2.96,-2.95,-3.05,-2.58,1.40,1.40,1.39
207.28,4.33,2.95,4.32,2.94,-2.93,-3.04,-2.61,1.39,1.39,1.38
209.35,4.29,2.92,4.29,2.92,-2.91,-3.02,-2.64,1.37,1.38,1.37
211.44,4.26,2.90,4.26,2.90,-2.89,-3.00,-2.66,1.36,1.36,1.36
213.56,4.22,2.87,4.22,2.87,-2.87,-2.97,-2.69,1.35,1.35,1.35
215.69,4.18,2.84,4.18,2.84,-2.84,-2.95,-2.71,1.33,1.33,1.34
217.85,4.14,2.81,4.14,2.81,-2.82,-2.93,-2.74,1.32,1.32,1.32
220.03,4.11,2.79,4.11,2.79,-2.80,-2.90,-2.76,1.31,1.31,1.32
222.23,4.08,2.77,4.07,2.77,-2.78,-2.88,-2.78,1.30,1.30,1.31
224.45,4.05,2.75,4.05,2.75,-2.76,-2.85,-2.80,1.29,1.29,1.30
226.70,4.03,2.74,4.03,2.74,-2.74,-2.82,-2.82,1.28,1.29,1.29
228.96,4.02,2.73,4.01,2.73,-2.72,-2.79,-2.84,1.29,1.29,1.29
231.25,4.00,2.72,3.99,2.72,-2.70,-2.76,-2.85,1.29,1.29,1.28
233.57,3.97,2.70,3.97,2.69,-2.68,-2.73,-2.86,1.29,1.29,1.27
235.90,3.93,2.66,3.93,2.66,-2.65,-2.70,-2.87,1.28,1.28,1.27
238.26,3.89,2.63,3.89,2.62,-2.62,-2.66,-2.88,1.26,1.26,1.26
240.64,3.85,2.59,3.85,2.58,-2.59,-2.63,-2.88,1.26,1.25,1.26
243.05,3.81,2.54,3.81,2.55,-2.56,-2.59,-2.88,1.25,1.25,1.26
245.48,3.78,2.51,3.78,2.51,-2.53,-2.56,-2.88,1.25,1.25,1.26
247.93,3.75,2.49,3.75,2.49,-2.50,-2.52,-2.87,1.24,1.25,1.26
250.41,3.74,2.48,3.73,2.47,-2.47,-2.49,-2.86,1.26,1.26,1.26
252.92,3.72,2.45,3.72,2.46,-2.44,-2.45,-2.84,1.27,1.27,1.26
255.45,3.70,2.43,3.69,2.43,-2.41,-2.41,-2.82,1.28,1.28,1.27
258.00,3.66,2.40,3.66,2.39,-2.38,-2.38,-2.80,1.27,1.27,1.26
260.58,3.62,2.35,3.62,2.36,-2.35,-2.34,-2.77,1.27,1.27,1.26
263.19,3.57,2.31,3.57,2.31,-2.31,-2.30,-2.74,1.25,1.25,1.26
265.82,3.53,2.28,3.52,2.27,-2.28,-2.26,-2.70,1.25,1.25,1.25
268.48,3.48,2.22,3.48,2.23,-2.24,-2.22,-2.67,1.24,1.24,1.26
271.16,3.45,2.20,3.45,2.20,-2.21,-2.18,-2.63,1.24,1.24,1.25
273.87,3.42,2.17,3.41,2.17,-2.17,-2.14,-2.58,1.24,1.24,1.24
276.61,3.39,2.14,3.39,2.14,-2.14,-2.10,-2.54,1.25,1.25,1.25
279.38,3.36,2.11,3.36,2.11,-2.11,-2.06,-2.49,1.25,1.25,1.24
282.17,3.33,2.08,3.33,2.08,-2.07,-2.02,-2.44,1.26,1.26,1.25
284.99,3.30,2.05,3.29,2.05,-2.04,-1.98,-2.39,1.26,1.26,1.25
287.84,3.25,2.01,3.25,2.01,-2.00,-1.94,-2.33,1.25,1.25,1.24
290.72,3.20,1.96,3.20,1.96,-1.96,-1.90,-2.28,1.24,1.24,1.24
293.63,3.15,1.91,3.15,1.92,-1.93,-1.87,-2.22,1.22,1.22,1.23
296.57,3.11,1.88,3.11,1.88,-1.89,-1.83,-2.17,1.22,1.22,1.23
299.53,3.08,1.84,3.08,1.84,-1.86,-1.79,-2.11,1.22,1.22,1.23
302.53,3.05,1.82,3.05,1.82,-1.82,-1.75,-2.05,1.22,1.23,1.23
305.55,3.03,1.80,3.03,1.80,-1.79,-1.71,-1.99,1.24,1.24,1.23
308.61,3.01,1.77,3.00,1.77,-1.76,-1.67,-1.94,1.25,1.25,1.23
311.69,2.97,1.74,2.97,1.74,-1.72,-1.63,-1.88,1.24,1.25,1.23
314.81,2.94,1.70,2.93,1.69,-1.69,-1.59,-1.82,1.25,1.24,1.24
317.96,2.89,1.65,2.89,1.65,-1.66,-1.55,-1.76,1.23,1.23,1.24
321.14,2.85,1.60,2.85,1.61,-1.62,-1.51,-1.71,1.22,1.23,1.24
324.35,2.82,1.58,2.82,1.58,-1.59,-1.47,-1.65,1.23,1.23,1.24
327.59,2.79,1.55,2.79,1.55,-1.55,-1.43,-1.60,1.23,1.23,1.24
330.87,2.77,1.52,2.76,1.52,-1.52,-1.39,-1.54,1.25,1.25,1.24
334.18,2.74,1.48,2.74,1.49,-1.49,-1.36,-1.49,1.25,1.26,1.25
337.52,2.72,1.47,2.71,1.46,-1.45,-1.32,-1.43,1.27,1.26,1.25
340.90,2.68,1.42,2.68,1.42,-1.41,-1.28,-1.38,1.27,1.27,1.26
344.30,2.64,1.38,2.64,1.38,-1.37,-1.24,-1.33,1.27,1.27,1.26
347.75,2.59,1.33,2.59,1.33,-1.33,-1.20,-1.28,1.26,1.26,1.25
351.23,2.54,1.29,2.54,1.28,-1.29,-1.17,-1.23,1.25,1.25,1.25
354.74,2.49,1.23,2.49,1.24,-1.25,-1.13,-1.18,1.24,1.24,1.26
358.28,2.46,1.20,2.46,1.20,-1.21,-1.09,-1.14,1.24,1.24,1.26
361.87,2.43,1.17,2.42,1.17,-1.18,-1.06,-1.09,1.25,1.25,1.26
365.49,2.40,1.14,2.40,1.14,-1.14,-1.02,-1.04,1.26,1.26,1.25
369.14,2.37,1.11,2.37,1.12,-1.11,-0.99,-1.00,1.26,1.26,1.25
372.83,2.34,1.09,2.34,1.08,-1.07,-0.95,-0.95,1.26,1.26,1.25
376.56,2.31,1.05,2.30,1.04,-1.04,-0.91,-0.91,1.27,1.26,1.26
380.33,2.26,1.00,2.26,1.00,-1.00,-0.88,-0.87,1.25,1.26,1.26
384.13,2.22,0.96,2.22,0.96,-0.97,-0.84,-0.83,1.25,1.25,1.26
387.97,2.19,0.93,2.18,0.92,-0.93,-0.81,-0.79,1.26,1.25,1.26
391.85,2.15,0.88,2.15,0.89,-0.89,-0.78,-0.75,1.25,1.26,1.26
395.77,2.12,0.85,2.12,0.85,-0.85,-0.74,-0.71,1.26,1.26,1.26
399.73,2.09,0.81,2.08,0.81,-0.81,-0.71,-0.67,1.28,1.27,1.27
403.72,2.05,0.78,2.05,0.78,-0.77,-0.67,-0.63,1.28,1.28,1.27
407.76,2.02,0.74,2.01,0.73,-0.73,-0.64,-0.60,1.29,1.28,1.28
411.84,1.97,0.69,1.97,0.68,-0.68,-0.61,-0.56,1.28,1.28,1.28
415.96,1.92,0.63,1.92,0.64,-0.64,-0.58,-0.52,1.28,1.28,1.29
420.12,1.88,0.59,1.88,0.59,-0.59,-0.54,-0.49,1.28,1.28,1.29
424.32,1.84,0.55,1.84,0.55,-0.55,-0.51,-0.45,1.29,1.29,1.29
428.56,1.80,0.50,1.80,0.50,-0.51,-0.48,-0.42,1.29,1.29,1.29
432.85,1.76,0.46,1.76,0.46,-0.47,-0.45,-0.39,1.29,1.29,1.29
437.18,1.72,0.42,1.72,0.43,-0.43,-0.41,-0.36,1.29,1.29,1.29
441.55,1.69,0.39,1.68,0.39,-0.39,-0.38,-0.32,1.30,1.30,1.29
445.96,1.65,0.36,1.65,0.36,-0.35,-0.35,-0.29,1.30,1.30,1.29
450.42,1.61,0.32,1.61,0.32,-0.31,-0.32,-0.26,1.30,1.30,1.29
454.93,1.57,0.28,1.56,0.27,-0.27,-0.29,-0.23,1.29,1.29,1.29
459.48,1.52,0.23,1.52,0.23,-0.24,-0.26,-0.20,1.28,1.28,1.29
464.07,1.48,0.19,1.48,0.19,-0.20,-0.23,-0.17,1.27,1.28,1.29
468.71,1.45,0.16,1.45,0.16,-0.17,-0.20,-0.14,1.28,1.28,1.29
473.40,1.43,0.14,1.42,0.13,-0.13,-0.17,-0.11,1.29,1.29,1.29
478.13,1.40,0.10,1.40,0.11,-0.10,-0.14,-0.09,1.30,1.30,1.30
482.91,1.38,0.08,1.37,0.08,-0.06,-0.11,-0.06,1.31,1.31,1.30
487.74,1.34,0.04,1.34,0.04,-0.03,-0.08,-0.03,1.31,1.31,1.30
492.62,1.30,0.00,1.30,-0.00,0.01,-0.05,-0.00,1.30,1.31,1.30
497.55,1.26,-0.05,1.26,-0.05,0.04,-0.02,0.02,1.30,1.30,1.31
502.52,1.22,-0.09,1.22,-0.09,0.08,0.01,0.05,1.30,1.29,1.30
507.55,1.18,-0.13,1.18,-0.13,0.11,0.03,0.07,1.29,1.29,1.30
512.62,1.15,-0.16,1.15,-0.16,0.15,0.06,0.10,1.29,1.30,1.30
517.75,1.13,-0.19,1.13,-0.18,0.18,0.09,0.12,1.30,1.30,1.31
522.93,1.11,-0.21,1.11,-0.21,0.21,0.12,0.15,1.32,1.31,1.31
528.16,1.09,-0.23,1.09,-0.23,0.24,0.15,0.17,1.33,1.33,1.31
533.44,1.06,-0.26,1.06,-0.26,0.27,0.17,0.20,1.33,1.33,1.31
538.77,1.03,-0.30,1.02,-0.30,0.31,0.20,0.22,1.33,1.33,1.32
544.16,0.98,-0.34,0.98,-0.34,0.34,0.23,0.25,1.32,1.32,1.32
549.60,0.94,-0.38,0.94,-0.38,0.38,0.25,0.27,1.32,1.32,1.32
555.10,0.90,-0.42,0.90,-0.43,0.42,0.28,0.30,1.32,1.32,1.32
560.65,0.86,-0.46,0.86,-0.47,0.46,0.31,0.32,1.32,1.32,1.32
