frequency,raw,error,smoothed,error_smoothed,equalization,parametric_eq,fixed_band_eq,equalized_raw,equalized_smoothed,target
20.00,-3.90,-5.01,-3.89,-5.00,5.12,4.93,1.50,1.22,1.23,1.11
20.20,-3.89,-5.01,-3.89,-5.02,5.05,4.89,1.55,1.17,1.16,1.12
20.40,-3.87,-5.00,-3.89,-5.02,4.99,4.85,1.59,1.12,1.10,1.13
20.61,-3.86,-4.99,-3.87,-5.00,4.93,4.81,1.64,1.07,1.06,1.13
20.81,-3.85,-4.99,-3.85,-4.99,4.87,4.77,1.69,1.03,1.03,1.14
21.02,-3.82,-4.96,-3.79,-4.94,4.82,4.73,1.74,1.00,1.03,1.14
21.23,-3.70,-4.85,-3.70,-4.85,4.76,4.69,1.79,1.07,1.06,1.15
21.44,-3.57,-4.72,-3.57,-4.72,4.71,4.65,1.84,1.14,1.14,1.15
21.66,-3.45,-4.60,-3.43,-4.59,4.64,4.60,1.90,1.19,1.20,1.15
21.87,-3.32,-4.47,-3.33,-4.49,4.57,4.56,1.96,1.25,1.24,1.15
22.09,-3.26,-4.42,-3.28,-4.44,4.52,4.52,2.01,1.26,1.24,1.16
22.31,-3.29,-4.45,-3.28,-4.43,4.48,4.48,2.07,1.20,1.21,1.16
22.54,-3.32,-4.47,-3.32,-4.47,4.47,4.44,2.13,1.15,1.15,1.15
22.76,-3.36,-4.50,-3.36,-4.50,4.46,4.40,2.20,1.10,1.10,1.14
22.99,-3.39,-4.53,-3.37,-4.51,4.46,4.36,2.26,1.08,1.09,1.14
23.22,-3.36,-4.50,-3.36,-4.49,4.46,4.32,2.33,1.10,1.10,1.14
23.45,-3.32,-4.44,-3.33,-4.46,4.44,4.28,2.39,1.12,1.11,1.13
23.69,-3.28,-4.41,-3.29,-4.41,4.40,4.24,2.46,1.13,1.12,1.13
23.92,-3.25,-4.37,-3.24,-4.36,4.35,4.20,2.53,1.10,1.11,1.13
24.16,-3.18,-4.30,-3.17,-4.29,4.28,4.15,2.60,1.10,1.11,1.13
24.40,-3.08,-4.20,-3.08,-4.21,4.20,4.11,2.68,1.12,1.11,1.12
24.65,-2.99,-4.11,-2.99,-4.11,4.12,4.07,2.75,1.13,1.13,1.12
24.89,-2.90,-4.02,-2.90,-4.02,4.04,4.03,2.82,1.14,1.14,1.12
25.14,-2.83,-3.95,-2.84,-3.96,3.97,3.99,2.90,1.14,1.14,1.12
25.39,-2.79,-3.90,-2.78,-3.90,3.92,3.95,2.97,1.13,1.14,1.11
25.65,-2.75,-3.86,-2.74,-3.85,3.89,3.91,3.05,1.14,1.15,1.11
25.91,-2.70,-3.81,-2.71,-3.82,3.87,3.87,3.12,1.17,1.16,1.11
26.16,-2.70,-3.81,-2.70,-3.81,3.85,3.83,3.20,1.15,1.15,1.11
26.43,-2.72,-3.83,-2.73,-3.84,3.82,3.79,3.27,1.10,1.09,1.11
26.69,-2.75,-3.86,-2.75,-3.86,3.79,3.75,3.34,1.04,1.04,1.11
26.96,-2.77,-3.88,-2.73,-3.84,3.74,3.71,3.41,0.97,1.01,1.11
27.23,-2.66,-3.77,-2.66,-3.76,3.70,3.67,3.48,1.04,1.04,1.11
27.50,-2.53,-3.63,-2.53,-3.64,3.65,3.63,3.55,1.12,1.12,1.11
27.77,-2.40,-3.50,-2.40,-3.51,3.60,3.59,3.61,1.20,1.19,1.11
28.05,-2.30,-3.40,-2.33,-3.43,3.53,3.55,3.68,1.23,1.21,1.10
28.33,-2.31,-3.41,-2.31,-3.41,3.46,3.51,3.73,1.15,1.15,1.10
28.62,-2.31,-3.41,-2.31,-3.42,3.38,3.47,3.79,1.07,1.07,1.10
28.90,-2.32,-3.43,-2.29,-3.40,3.30,3.43,3.84,0.99,1.01,1.11
29.19,-2.23,-3.34,-2.21,-3.32,3.23,3.39,3.89,1.00,1.02,1.11
29.48,-2.09,-3.20,-2.09,-3.20,3.17,3.35,3.93,1.08,1.08,1.11
29.78,-1.95,-3.07,-1.96,-3.08,3.11,3.31,3.96,1.16,1.15,1.12
30.08,-1.85,-2.97,-1.87,-2.99,3.05,3.27,3.99,1.20,1.18,1.12
30.38,-1.84,-2.95,-1.82,-2.94,3.01,3.23,4.02,1.18,1.19,1.12
30.68,-1.83,-2.94,-1.82,-2.93,2.99,3.19,4.03,1.17,1.18,1.11
30.99,-1.82,-2.93,-1.84,-2.95,2.99,3.16,4.04,1.18,1.15,1.11
31.30,-1.89,-3.00,-1.89,-3.00,3.01,3.12,4.05,1.12,1.12,1.11
31.61,-1.96,-3.07,-1.95,-3.06,3.04,3.08,4.05,1.08,1.08,1.11
31.93,-2.02,-3.13,-2.00,-3.10,3.05,3.04,4.04,1.03,1.05,1.11
32.24,-2.01,-3.10,-2.01,-3.11,3.04,3.01,4.03,1.03,1.03,1.10
32.57,-1.97,-3.06,-1.98,-3.08,3.01,2.97,4.01,1.04,1.03,1.10
32.89,-1.93,-3.02,-1.92,-3.01,2.96,2.94,3.98,1.04,1.05,1.09
33.22,-1.84,-2.92,-1.82,-2.91,2.90,2.90,3.95,1.06,1.08,1.08
33.55,-1.72,-2.80,-1.72,-2.80,2.83,2.86,3.91,1.12,1.11,1.08
33.89,-1.61,-2.68,-1.63,-2.70,2.77,2.83,3.87,1.16,1.14,1.07
34.23,-1.57,-2.63,-1.58,-2.64,2.71,2.79,3.83,1.14,1.13,1.07
34.57,-1.57,-2.63,-1.56,-2.62,2.66,2.76,3.78,1.09,1.10,1.06
34.92,-1.57,-2.63,-1.56,-2.62,2.62,2.72,3.72,1.06,1.06,1.06
35.27,-1.56,-2.62,-1.57,-2.63,2.59,2.69,3.67,1.04,1.03,1.06
35.62,-1.56,-2.62,-1.56,-2.62,2.57,2.66,3.61,1.01,1.01,1.06
35.97,-1.56,-2.61,-1.54,-2.59,2.55,2.62,3.54,0.99,1.01,1.06
36.33,-1.50,-2.55,-1.49,-2.54,2.53,2.59,3.48,1.03,1.04,1.05
36.70,-1.43,-2.48,-1.43,-2.48,2.51,2.56,3.42,1.08,1.08,1.05
37.06,-1.37,-2.42,-1.39,-2.44,2.49,2.53,3.35,1.12,1.10,1.05
37.43,-1.38,-2.42,-1.37,-2.42,2.47,2.49,3.28,1.09,1.10,1.05
37.81,-1.38,-2.43,-1.38,-2.42,2.45,2.46,3.22,1.07,1.07,1.05
38.19,-1.39,-2.44,-1.40,-2.45,2.41,2.43,3.15,1.03,1.02,1.05
38.57,-1.40,-2.44,-1.40,-2.45,2.38,2.40,3.08,0.98,0.98,1.05
38.95,-1.40,-2.45,-1.37,-2.42,2.35,2.37,3.01,0.96,0.98,1.05
39.34,-1.31,-2.36,-1.30,-2.35,2.33,2.34,2.95,1.02,1.03,1.05
39.74,-1.21,-2.26,-1.23,-2.27,2.31,2.31,2.88,1.10,1.09,1.05
40.14,-1.15,-2.19,-1.16,-2.21,2.29,2.28,2.82,1.14,1.13,1.04
40.54,-1.16,-2.20,-1.15,-2.19,2.27,2.25,2.75,1.11,1.12,1.04
40.94,-1.17,-2.20,-1.18,-2.22,2.24,2.23,2.69,1.07,1.06,1.04
41.35,-1.22,-2.25,-1.23,-2.26,2.21,2.20,2.63,0.99,0.98,1.03
41.76,-1.27,-2.29,-1.25,-2.27,2.18,2.17,2.57,0.91,0.93,1.02
42.18,-1.24,-2.25,-1.21,-2.22,2.15,2.14,2.51,0.92,0.94,1.01
42.60,-1.13,-2.14,-1.13,-2.14,2.13,2.12,2.46,1.00,0.99,1.01
43.03,-1.02,-2.02,-1.05,-2.05,2.09,2.09,2.40,1.08,1.04,1.01
43.46,-1.00,-2.00,-0.99,-1.99,2.05,2.06,2.35,1.06,1.06,1.00
43.90,-0.98,-1.96,-0.98,-1.97,2.01,2.04,2.30,1.03,1.03,0.99
44.33,-0.98,-1.96,-0.99,-1.97,1.97,2.01,2.25,0.99,0.98,0.98
44.78,-1.00,-1.97,-0.99,-1.96,1.94,1.99,2.20,0.94,0.95,0.98
45.23,-0.99,-1.96,-0.98,-1.95,1.92,1.96,2.16,0.93,0.95,0.97
45.68,-0.95,-1.91,-0.95,-1.92,1.91,1.94,2.11,0.97,0.96,0.96
46.13,-0.92,-1.89,-0.93,-1.90,1.91,1.92,2.07,0.99,0.98,0.97
46.60,-0.92,-1.88,-0.92,-1.88,1.90,1.89,2.03,0.98,0.98,0.96
47.06,-0.92,-1.88,-0.92,-1.88,1.88,1.87,1.99,0.96,0.96,0.97
47.53,-0.91,-1.88,-0.91,-1.88,1.86,1.85,1.95,0.96,0.95,0.97
48.01,-0.90,-1.87,-0.89,-1.86,1.85,1.82,1.92,0.95,0.96,0.97
48.49,-0.86,-1.83,-0.86,-1.83,1.83,1.80,1.88,0.98,0.98,0.98
48.97,-0.82,-1.80,-0.84,-1.82,1.82,1.78,1.85,1.00,0.98,0.98
49.46,-0.82,-1.80,-0.82,-1.80,1.81,1.76,1.82,0.99,0.99,0.98
49.96,-0.82,-1.81,-0.80,-1.79,1.79,1.74,1.79,0.98,0.99,0.99
50.46,-0.79,-1.78,-0.78,-1.78,1.78,1.71,1.76,1.00,1.00,1.00
50.96,-0.75,-1.76,-0.77,-1.77,1.78,1.69,1.74,1.03,1.02,1.01
51.47,-0.76,-1.77,-0.76,-1.77,1.79,1.67,1.71,1.03,1.03,1.01
51.99,-0.77,-1.78,-0.76,-1.77,1.79,1.65,1.69,1.02,1.03,1.01
52.51,-0.77,-1.78,-0.77,-1.78,1.79,1.63,1.66,1.02,1.02,1.01
53.03,-0.77,-1.78,-0.78,-1.80,1.78,1.61,1.64,1.01,0.99,1.01
53.56,-0.79,-1.80,-0.78,-1.80,1.76,1.59,1.61,0.97,0.98,1.01
54.10,-0.79,-1.81,-0.76,-1.78,1.74,1.57,1.59,0.96,0.98,1.02
54.64,-0.71,-1.73,-0.72,-1.74,1.72,1.55,1.57,1.01,1.01,1.02
55.18,-0.65,-1.67,-0.66,-1.68,1.70,1.53,1.55,1.05,1.04,1.02
55.74,-0.62,-1.63,-0.62,-1.64,1.68,1.51,1.53,1.06,1.05,1.01
56.29,-0.61,-1.62,-0.61,-1.62,1.65,1.49,1.51,1.04,1.04,1.01
56.86,-0.62,-1.63,-0.61,-1.62,1.62,1.47,1.49,1.00,1.01,1.01
57.42,-0.62,-1.61,-0.62,-1.61,1.60,1.45,1.47,0.98,0.98,1.00
58.00,-0.62,-1.60,-0.62,-1.60,1.59,1.43,1.44,0.97,0.97,0.98
58.58,-0.62,-1.59,-0.62,-1.59,1.58,1.41,1.42,0.96,0.96,0.97
59.16,-0.62,-1.57,-0.61,-1.57,1.57,1.39,1.40,0.96,0.96,0.96
59.76,-0.60,-1.54,-0.60,-1.54,1.56,1.37,1.38,0.96,0.96,0.94
60.35,-0.60,-1.52,-0.61,-1.53,1.54,1.35,1.35,0.94,0.93,0.92
60.96,-0.62,-1.51,-0.63,-1.52,1.51,1.33,1.33,0.89,0.88,0.89
61.57,-0.66,-1.53,-0.64,-1.51,1.48,1.31,1.31,0.82,0.83,0.87
62.18,-0.66,-1.49,-0.63,-1.47,1.44,1.29,1.28,0.78,0.80,0.83
62.80,-0.59,-1.38,-0.61,-1.40,1.39,1.26,1.25,0.81,0.79,0.80
63.43,-0.57,-1.32,-0.58,-1.33,1.35,1.24,1.23,0.78,0.77,0.75
64.07,-0.57,-1.28,-0.56,-1.27,1.30,1.22,1.20,0.73,0.74,0.71
64.71,-0.57,-1.23,-0.57,-1.23,1.25,1.20,1.17,0.68,0.68,0.67
65.35,-0.57,-1.20,-0.57,-1.20,1.20,1.18,1.14,0.63,0.63,0.63
66.01,-0.57,-1.16,-0.57,-1.16,1.16,1.15,1.11,0.59,0.59,0.59
66.67,-0.57,-1.12,-0.57,-1.12,1.12,1.13,1.08,0.55,0.55,0.55
67.33,-0.57,-1.09,-0.57,-1.08,1.09,1.11,1.05,0.52,0.52,0.52
68.01,-0.57,-1.05,-0.57,-1.05,1.05,1.08,1.01,0.48,0.48,0.48
68.69,-0.57,-1.02,-0.58,-1.03,1.02,1.06,0.98,0.45,0.44,0.45
69.37,-0.58,-1.00,-0.58,-1.00,0.98,1.04,0.95,0.40,0.40,0.42
70.07,-0.60,-0.98,-0.57,-0.96,0.95,1.01,0.91,0.35,0.38,0.39
70.77,-0.54,-0.89,-0.55,-0.90,0.92,0.98,0.88,0.38,0.37,0.35
71.48,-0.52,-0.85,-0.54,-0.87,0.89,0.96,0.84,0.37,0.35,0.33
72.19,-0.54,-0.84,-0.55,-0.84,0.86,0.93,0.80,0.32,0.31,0.30
72.91,-0.60,-0.86,-0.57,-0.83,0.82,0.91,0.77,0.22,0.25,0.26
73.64,-0.58,-0.81,-0.58,-0.81,0.79,0.88,0.73,0.21,0.21,0.23
74.38,-0.57,-0.76,-0.58,-0.77,0.76,0.85,0.69,0.19,0.18,0.19
75.12,-0.57,-0.73,-0.56,-0.72,0.73,0.82,0.66,0.16,0.16,0.16
75.87,-0.57,-0.68,-0.56,-0.68,0.70,0.79,0.62,0.13,0.13,0.11
76.63,-0.57,-0.64,-0.57,-0.65,0.66,0.76,0.58,0.09,0.09,0.08
77.40,-0.59,-0.62,-0.60,-0.63,0.63,0.73,0.54,0.04,0.03,0.03
78.17,-0.63,-0.62,-0.62,-0.61,0.59,0.70,0.51,-0.04,-0.03,-0.01
78.95,-0.65,-0.59,-0.63,-0.58,0.56,0.67,0.47,-0.09,-0.07,-0.06
79.74,-0.63,-0.53,-0.63,-0.53,0.53,0.64,0.43,-0.10,-0.10,-0.10
80.54,-0.62,-0.47,-0.62,-0.48,0.50,0.61,0.39,-0.12,-0.12,-0.15
81.35,-0.63,-0.44,-0.65,-0.46,0.47,0.57,0.35,-0.16,-0.18,-0.19
82.16,-0.67,-0.44,-0.67,-0.44,0.43,0.54,0.32,-0.23,-0.24,-0.23
82.98,-0.73,-0.46,-0.68,-0.41,0.40,0.51,0.28,-0.33,-0.28,-0.27
83.81,-0.66,-0.35,-0.68,-0.37,0.37,0.47,0.24,-0.29,-0.31,-0.31
84.65,-0.65,-0.31,-0.68,-0.33,0.34,0.44,0.20,-0.31,-0.34,-0.34
85.50,-0.69,-0.30,-0.68,-0.29,0.31,0.40,0.16,-0.38,-0.37,-0.39
86.35,-0.72,-0.29,-0.71,-0.28,0.27,0.36,0.13,-0.45,-0.43,-0.43
87.22,-0.72,-0.25,-0.72,-0.25,0.24,0.33,0.09,-0.48,-0.48,-0.47
88.09,-0.72,-0.20,-0.72,-0.21,0.20,0.29,0.05,-0.52,-0.52,-0.52
88.97,-0.72,-0.17,-0.71,-0.16,0.16,0.25,0.01,-0.55,-0.55,-0.55
89.86,-0.71,-0.11,-0.71,-0.11,0.12,0.22,-0.02,-0.58,-0.59,-0.60
90.76,-0.71,-0.07,-0.72,-0.08,0.08,0.18,-0.06,-0.62,-0.64,-0.64
91.66,-0.73,-0.05,-0.73,-0.05,0.04,0.14,-0.10,-0.69,-0.69,-0.68
92.58,-0.74,-0.03,-0.72,-0.00,-0.01,0.10,-0.14,-0.75,-0.73,-0.71
93.51,-0.70,0.06,-0.70,0.06,-0.06,0.06,-0.17,-0.76,-0.76,-0.76
94.44,-0.66,0.14,-0.68,0.12,-0.11,0.02,-0.21,-0.77,-0.79,-0.80
95.39,-0.67,0.16,-0.67,0.16,-0.17,-0.02,-0.25,-0.83,-0.84,-0.83
96.34,-0.68,0.19,-0.67,0.20,-0.22,-0.06,-0.29,-0.90,-0.89,-0.87
97.30,-0.67,0.24,-0.64,0.27,-0.27,-0.10,-0.32,-0.94,-0.92,-0.91
98.28,-0.60,0.36,-0.62,0.34,-0.32,-0.14,-0.36,-0.92,-0.94,-0.96
99.26,-0.58,0.41,-0.60,0.39,-0.37,-0.18,-0.40,-0.95,-0.97,-0.99
100.25,-0.61,0.42,-0.60,0.43,-0.41,-0.22,-0.44,-1.02,-1.01,-1.03
101.25,-0.63,0.44,-0.62,0.45,-0.45,-0.26,-0.47,-1.08,-1.08,-1.07
102.27,-0.64,0.48,-0.64,0.48,-0.50,-0.30,-0.51,-1.13,-1.14,-1.12
103.29,-0.65,0.52,-0.66,0.51,-0.53,-0.35,-0.55,-1.18,-1.19,-1.17
104.32,-0.67,0.55,-0.66,0.55,-0.56,-0.39,-0.58,-1.23,-1.22,-1.21
105.37,-0.68,0.57,-0.66,0.60,-0.58,-0.43,-0.62,-1.26,-1.24,-1.25
106.42,-0.65,0.65,-0.67,0.63,-0.61,-0.47,-0.65,-1.25,-1.28,-1.30
107.48,-0.69,0.66,-0.70,0.65,-0.63,-0.51,-0.69,-1.32,-1.33,-1.35
108.56,-0.76,0.64,-0.74,0.66,-0.65,-0.55,-0.72,-1.41,-1.39,-1.40
109.64,-0.79,0.66,-0.79,0.66,-0.67,-0.59,-0.76,-1.46,-1.46,-1.45
110.74,-0.81,0.68,-0.81,0.67,-0.69,-0.63,-0.79,-1.50,-1.50,-1.48
111.85,-0.83,0.69,-0.83,0.70,-0.71,-0.67,-0.82,-1.54,-1.53,-1.52
112.97,-0.84,0.72,-0.84,0.72,-0.73,-0.71,-0.85,-1.56,-1.56,-1.56
114.10,-0.84,0.76,-0.84,0.75,-0.75,-0.75,-0.88,-1.58,-1.59,-1.60
115.24,-0.85,0.78,-0.85,0.78,-0.77,-0.79,-0.91,-1.62,-1.62,-1.62
116.39,-0.85,0.81,-0.85,0.81,-0.80,-0.83,-0.94,-1.65,-1.65,-1.66
117.55,-0.84,0.84,-0.84,0.84,-0.84,-0.87,-0.97,-1.68,-1.68,-1.68
118.73,-0.84,0.87,-0.84,0.86,-0.88,-0.91,-1.00,-1.72,-1.72,-1.70
119.92,-0.83,0.89,-0.83,0.89,-0.91,-0.94,-1.02,-1.74,-1.74,-1.72
121.12,-0.82,0.92,-0.79,0.95,-0.95,-0.98,-1.04,-1.77,-1.74,-1.74
122.33,-0.74,1.01,-0.76,1.00,-0.98,-1.02,-1.07,-1.72,-1.74,-1.75
123.55,-0.71,1.06,-0.73,1.03,-1.01,-1.05,-1.09,-1.72,-1.74,-1.77
124.79,-0.74,1.04,-0.72,1.06,-1.04,-1.09,-1.11,-1.78,-1.76,-1.78
126.03,-0.74,1.06,-0.73,1.06,-1.06,-1.12,-1.13,-1.80,-1.80,-1.80
127.29,-0.73,1.08,-0.73,1.08,-1.09,-1.16,-1.14,-1.81,-1.82,-1.81
128.57,-0.73,1.09,-0.73,1.09,-1.11,-1.19,-1.16,-1.83,-1.83,-1.82
129.85,-0.72,1.12,-0.72,1.12,-1.12,-1.23,-1.17,-1.84,-1.84,-1.84
131.15,-0.72,1.13,-0.72,1.13,-1.14,-1.26,-1.19,-1.86,-1.85,-1.85
132.46,-0.71,1.16,-0.71,1.16,-1.15,-1.29,-1.20,-1.86,-1.86,-1.87
133.79,-0.71,1.17,-0.71,1.18,-1.17,-1.32,-1.21,-1.88,-1.88,-1.88
135.12,-0.70,1.20,-0.70,1.20,-1.19,-1.35,-1.22,-1.89,-1.89,-1.90
136.48,-0.70,1.21,-0.70,1.22,-1.21,-1.38,-1.23,-1.91,-1.91,-1.91
137.84,-0.70,1.23,-0.70,1.23,-1.23,-1.41,-1.24,-1.93,-1.93,-1.93
139.22,-0.70,1.25,-0.70,1.25,-1.25,-1.44,-1.24,-1.95,-1.95,-1.95
140.61,-0.70,1.27,-0.69,1.27,-1.28,-1.47,-1.25,-1.97,-1.97,-1.97
142.02,-0.69,1.30,-0.69,1.30,-1.30,-1.49,-1.26,-1.98,-1.99,-1.99
143.44,-0.69,1.33,-0.69,1.32,-1.32,-1.52,-1.27,-2.01,-2.01,-2.02
144.87,-0.69,1.35,-0.69,1.35,-1.35,-1.54,-1.27,-2.03,-2.04,-2.04
146.32,-0.70,1.37,-0.69,1.38,-1.38,-1.57,-1.28,-2.07,-2.07,-2.07
147.78,-0.70,1.41,-0.70,1.40,-1.41,-1.59,-1.29,-2.11,-2.11,-2.10
149.26,-0.70,1.44,-0.70,1.44,-1.45,-1.62,-1.29,-2.15,-2.15,-2.14
150.75,-0.70,1.49,-0.70,1.49,-1.50,-1.64,-1.30,-2.20,-2.20,-2.18
152.26,-0.70,1.54,-0.70,1.54,-1.55,-1.66,-1.31,-2.25,-2.25,-2.24
153.78,-0.70,1.59,-0.69,1.60,-1.60,-1.68,-1.32,-2.30,-2.30,-2.29
155.32,-0.69,1.67,-0.69,1.66,-1.66,-1.70,-1.32,-2.35,-2.35,-2.36
156.88,-0.69,1.72,-0.69,1.72,-1.71,-1.72,-1.33,-2.40,-2.40,-2.41
158.44,-0.69,1.78,-0.70,1.77,-1.75,-1.74,-1.34,-2.44,-2.45,-2.47
160.03,-0.72,1.80,-0.71,1.80,-1.79,-1.76,-1.35,-2.51,-2.51,-2.52
161.63,-0.75,1.81,-0.73,1.84,-1.83,-1.77,-1.37,-2.58,-2.56,-2.56
163.24,-0.74,1.87,-0.75,1.85,-1.85,-1.79,-1.38,-2.59,-2.61,-2.61
164.88,-0.77,1.87,-0.77,1.87,-1.87,-1.81,-1.39,-2.64,-2.64,-2.64
166.53,-0.80,1.87,-0.80,1.87,-1.89,-1.82,-1.41,-2.68,-2.68,-2.67
168.19,-0.81,1.88,-0.80,1.89,-1.89,-1.83,-1.42,-2.70,-2.70,-2.69
169.87,-0.82,1.88,-0.79,1.91,-1.90,-1.85,-1.44,-2.72,-2.69,-2.70
171.57,-0.75,1.96,-0.79,1.91,-1.91,-1.86,-1.46,-2.65,-2.70,-2.71
173.29,-0.79,1.91,-0.79,1.91,-1.91,-1.87,-1.48,-2.70,-2.70,-2.70
175.02,-0.83,1.86,-0.78,1.91,-1.91,-1.89,-1.50,-2.74,-2.69,-2.69
176.77,-0.76,1.92,-0.78,1.90,-1.91,-1.90,-1.52,-2.66,-2.68,-2.68
178.54,-0.74,1.92,-0.75,1.91,-1.90,-1.91,-1.54,-2.64,-2.65,-2.66
180.32,-0.74,1.90,-0.73,1.91,-1.90,-1.92,-1.57,-2.64,-2.63,-2.64
182.13,-0.73,1.89,-0.73,1.89,-1.89,-1.93,-1.59,-2.62,-2.62,-2.62
183.95,-0.72,1.88,-0.72,1.88,-1.89,-1.94,-1.62,-2.61,-2.61,-2.60
185.79,-0.71,1.88,-0.70,1.88,-1.89,-1.95,-1.64,-2.60,-2.60,-2.59
187.65,-0.69,1.90,-0.69,1.89,-1.89,-1.96,-1.67,-2.58,-2.59,-2.58
189.52,-0.68,1.90,-0.68,1.90,-1.90,-1.97,-1.70,-2.58,-2.58,-2.58
191.42,-0.67,1.91,-0.66,1.91,-1.91,-1.97,-1.73,-2.58,-2.58,-2.58
193.33,-0.65,1.92,-0.65,1.92,-1.93,-1.98,-1.76,-2.57,-2.58,-2.57
195.27,-0.64,1.94,-0.64,1.94,-1.94,-1.99,-1.80,-2.58,-2.58,-2.57
197.22,-0.62,1.97,-0.62,1.96,-1.96,-1.99,-1.83,-2.58,-2.58,-2.59
199.19,-0.61,1.98,-0.61,1.98,-1.98,-2.00,-1.86,-2.58,-2.58,-2.59
201.18,-0.60,2.00,-0.60,2.00,-1.99,-2.01,-1.90,-2.59,-2.59,-2.60
203.19,-0.60,2.01,-0.60,2.01,-2.01,-2.01,-1.93,-2.60,-2.60,-2.61
205.23,-0.60,2.02,-0.60,2.02,-2.02,-2.02,-1.97,-2.62,-2.62,-2.62
207.28,-0.60,2.03,-0.60,2.03,-2.03,-2.02,-2.01,-2.63,-2.63,-2.63
209.35,-0.60,2.04,-0.60,2.04,-2.04,-2.03,-2.04,-2.64,-2.64,-2.64
211.44,-0.60,2.06,-0.60,2.05,-2.05,-2.03,-2.08,-2.65,-2.66,-2.66
213.56,-0.61,2.06,-0.60,2.06,-2.06,-2.04,-2.12,-2.67,-2.67,-2.67
215.69,-0.61,2.08,-0.61,2.07,-2.07,-2.04,-2.15,-2.68,-2.68,-2.68
217.85,-0.61,2.08,-0.61,2.08,-2.08,-2.05,-2.19,-2.69,-2.69,-2.69
220.03,-0.62,2.09,-0.61,2.09,-2.09,-2.05,-2.22,-2.71,-2.71,-2.71
222.23,-0.62,2.10,-0.62,2.10,-2.10,-2.06,-2.26,-2.72,-2.72,-2.72
224.45,-0.62,2.11,-0.62,2.11,-2.11,-2.06,-2.29,-2.73,-2.73,-2.73
226.70,-0.62,2.11,-0.62,2.12,-2.12,-2.06,-2.33,-2.74,-2.73,-2.73
228.96,-0.61,2.13,-0.61,2.12,-2.13,-2.07,-2.36,-2.74,-2.74,-2.74
231.25,-0.61,2.13,-0.61,2.13,-2.14,-2.07,-2.39,-2.75,-2.74,-2.74
233.57,-0.60,2.14,-0.60,2.14,-2.15,-2.08,-2.41,-2.75,-2.75,-2.74
235.90,-0.58,2.16,-0.58,2.16,-2.16,-2.08,-2.44,-2.73,-2.74,-2.74
238.26,-0.57,2.17,-0.56,2.17,-2.16,-2.09,-2.46,-2.73,-2.72,-2.73
240.64,-0.54,2.18,-0.54,2.18,-2.17,-2.09,-2.49,-2.71,-2.71,-2.72
243.05,-0.52,2.20,-0.54,2.18,-2.17,-2.09,-2.51,-2.69,-2.71,-2.72
245.48,-0.55,2.16,-0.53,2.18,-2.18,-2.10,-2.52,-2.73,-2.72,-2.71
247.93,-0.54,2.17,-0.53,2.17,-2.20,-2.10,-2.54,-2.73,-2.73,-2.71
250.41,-0.52,2.18,-0.53,2.17,-2.21,-2.11,-2.55,-2.73,-2.74,-2.70
252.92,-0.51,2.19,-0.50,2.20,-2.22,-2.11,-2.56,-2.73,-2.72,-2.70
255.45,-0.48,2.22,-0.47,2.23,-2.22,-2.12,-2.57,-2.70,-2.69,-2.70
258.00,-0.44,2.27,-0.46,2.24,-2.22,-2.12,-2.58,-2.65,-2.68,-2.71
260.58,-0.47,2.24,-0.46,2.25,-2.20,-2.12,-2.58,-2.67,-2.66,-2.71
263.19,-0.51,2.21,-0.49,2.22,-2.19,-2.13,-2.58,-2.69,-2.68,-2.71
265.82,-0.51,2.21,-0.55,2.17,-2.16,-2.13,-2.58,-2.67,-2.71,-2.72
268.48,-0.63,2.09,-0.60,2.12,-2.13,-2.14,-2.58,-2.76,-2.74,-2.72
271.16,-0.67,2.06,-0.66,2.07,-2.10,-2.15,-2.58,-2.77,-2.76,-2.73
273.87,-0.69,2.04,-0.70,2.03,-2.07,-2.15,-2.57,-2.76,-2.77,-2.73
276.61,-0.71,2.03,-0.70,2.03,-2.05,-2.16,-2.57,-2.76,-2.75,-2.73
279.38,-0.70,2.04,-0.70,2.03,-2.04,-2.16,-2.56,-2.74,-2.74,-2.74
282.17,-0.69,2.04,-0.69,2.04,-2.04,-2.17,-2.55,-2.73,-2.73,-2.73
284.99,-0.68,2.05,-0.69,2.04,-2.04,-2.18,-2.54,-2.72,-2.73,-2.72
287.84,-0.68,2.05,-0.67,2.05,-2.05,-2.18,-2.54,-2.73,-2.72,-2.73
290.72,-0.67,2.05,-0.65,2.07,-2.05,-2.19,-2.53,-2.72,-2.70,-2.72
293.63,-0.62,2.09,-0.63,2.09,-2.06,-2.20,-2.52,-2.68,-2.69,-2.71
296.57,-0.59,2.12,-0.62,2.08,-2.06,-2.20,-2.51,-2.65,-2.69,-2.71
299.53,-0.66,2.05,-0.64,2.07,-2.06,-2.21,-2.50,-2.72,-2.70,-2.71
302.53,-0.67,2.03,-0.66,2.04,-2.07,-2.22,-2.49,-2.74,-2.73,-2.70
305.55,-0.66,2.04,-0.65,2.05,-2.08,-2.23,-2.49,-2.74,-2.73,-2.70
308.61,-0.64,2.07,-0.62,2.08,-2.09,-2.24,-2.48,-2.73,-2.71,-2.71
311.69,-0.57,2.14,-0.61,2.10,-2.11,-2.24,-2.47,-2.68,-2.72,-2.71
314.81,-0.60,2.12,-0.60,2.12,-2.13,-2.25,-2.47,-2.73,-2.72,-2.72
317.96,-0.61,2.11,-0.57,2.15,-2.15,-2.26,-2.47,-2.76,-2.72,-2.72
321.14,-0.55,2.19,-0.55,2.18,-2.17,-2.27,-2.47,-2.72,-2.71,-2.73
324.35,-0.49,2.25,-0.52,2.21,-2.18,-2.28,-2.47,-2.67,-2.71,-2.74
327.59,-0.52,2.23,-0.53,2.22,-2.20,-2.29,-2.47,-2.72,-2.72,-2.75
330.87,-0.58,2.18,-0.55,2.21,-2.20,-2.30,-2.47,-2.78,-2.76,-2.76
334.18,-0.59,2.18,-0.59,2.18,-2.21,-2.31,-2.48,-2.80,-2.80,-2.77
337.52,-0.59,2.19,-0.59,2.19,-2.21,-2.32,-2.49,-2.80,-2.80,-2.78
340.90,-0.59,2.20,-0.57,2.21,-2.21,-2.33,-2.49,-2.80,-2.79,-2.78
344.30,-0.55,2.25,-0.58,2.22,-2.22,-2.35,-2.51,-2.76,-2.79,-2.80
347.75,-0.58,2.24,-0.58,2.23,-2.22,-2.36,-2.52,-2.80,-2.81,-2.82
351.23,-0.62,2.21,-0.59,2.24,-2.23,-2.37,-2.53,-2.85,-2.83,-2.83
354.74,-0.60,2.24,-0.60,2.24,-2.25,-2.38,-2.55,-2.85,-2.85,-2.84
358.28,-0.59,2.26,-0.59,2.26,-2.27,-2.39,-2.57,-2.86,-2.86,-2.85
361.87,-0.58,2.28,-0.58,2.29,-2.28,-2.41,-2.59,-2.86,-2.86,-2.86
365.49,-0.57,2.32,-0.57,2.31,-2.30,-2.42,-2.61,-2.87,-2.87,-2.88
369.14,-0.57,2.33,-0.56,2.33,-2.32,-2.43,-2.64,-2.89,-2.89,-2.90
372.83,-0.56,2.35,-0.56,2.35,-2.35,-2.45,-2.66,-2.91,-2.91,-2.91
376.56,-0.55,2.37,-0.55,2.37,-2.38,-2.46,-2.69,-2.93,-2.93,-2.92
380.33,-0.54,2.39,-0.53,2.40,-2.42,-2.47,-2.72,-2.96,-2.95,-2.93
384.13,-0.49,2.45,-0.50,2.44,-2.45,-2.49,-2.75,-2.94,-2.95,-2.94
387.97,-0.47,2.48,-0.47,2.48,-2.48,-2.50,-2.79,-2.95,-2.95,-2.95
391.85,-0.44,2.52,-0.43,2.53,-2.51,-2.52,-2.82,-2.95,-2.95,-2.96
395.77,-0.42,2.55,-0.41,2.56,-2.54,-2.53,-2.86,-2.96,-2.95,-2.97
399.73,-0.39,2.60,-0.41,2.58,-2.56,-2.55,-2.90,-2.95,-2.97,-2.98
403.72,-0.42,2.58,-0.43,2.57,-2.57,-2.56,-2.94,-2.98,-2.99,-2.99
407.76,-0.47,2.55,-0.44,2.57,-2.57,-2.58,-2.98,-3.04,-3.01,-3.02
411.84,-0.47,2.56,-0.46,2.56,-2.56,-2.59,-3.02,-3.03,-3.03,-3.03
415.96,-0.46,2.58,-0.48,2.55,-2.55,-2.61,-3.06,-3.01,-3.04,-3.04
420.12,-0.50,2.54,-0.50,2.55,-2.54,-2.63,-3.10,-3.04,-3.04,-3.04
424.32,-0.53,2.52,-0.51,2.53,-2.54,-2.64,-3.14,-3.06,-3.05,-3.05
428.56,-0.52,2.53,-0.52,2.53,-2.53,-2.66,-3.18,-3.05,-3.06,-3.05
432.85,-0.51,2.53,-0.51,2.53,-2.54,-2.68,-3.22,-3.05,-3.05,-3.04
437.18,-0.48,2.55,-0.49,2.54,-2.56,-2.69,-3.26,-3.03,-3.05,-3.03
441.55,-0.46,2.55,-0.45,2.56,-2.58,-2.71,-3.30,-3.03,-3.03,-3.01
445.96,-0.42,2.57,-0.40,2.59,-2.60,-2.73,-3.34,-3.02,-3.00,-2.99
450.42,-0.31,2.65,-0.32,2.63,-2.63,-2.74,-3.38,-2.94,-2.96,-2.96
454.93,-0.24,2.68,-0.24,2.68,-2.66,-2.76,-3.41,-2.90,-2.91,-2.92
459.48,-0.18,2.71,-0.18,2.71,-2.70,-2.78,-3.44,-2.87,-2.87,-2.88
