frequency,raw,error,smoothed,error_smoothed,equalization,parametric_eq,fixed_band_eq,equalized_raw,equalized_smoothed,target
20.00,-10.51,-12.25,-10.51,-12.25,6.00,6.62,2.87,-4.51,-4.51,1.74
20.20,-10.41,-12.19,-10.41,-12.19,6.00,6.61,2.95,-4.41,-4.41,1.78
20.40,-10.31,-12.13,-10.31,-12.13,6.00,6.60,3.03,-4.31,-4.31,1.82
20.61,-10.22,-12.06,-10.22,-12.07,6.00,6.59,3.12,-4.22,-4.22,1.84
20.81,-10.12,-12.00,-10.12,-12.00,6.00,6.58,3.21,-4.12,-4.12,1.88
21.02,-10.02,-11.94,-10.02,-11.94,6.00,6.57,3.30,-4.02,-4.02,1.92
21.23,-9.92,-11.86,-9.92,-11.87,6.00,6.56,3.39,-3.92,-3.92,1.94
21.44,-9.83,-11.79,-9.83,-11.79,6.00,6.54,3.49,-3.83,-3.83,1.96
21.66,-9.73,-11.71,-9.73,-11.71,6.00,6.53,3.59,-3.73,-3.73,1.98
21.87,-9.64,-11.63,-9.64,-11.63,6.00,6.52,3.69,-3.64,-3.64,1.99
22.09,-9.54,-11.55,-9.54,-11.55,6.00,6.51,3.80,-3.54,-3.54,2.01
22.31,-9.44,-11.46,-9.44,-11.46,6.00,6.50,3.90,-3.44,-3.44,2.02
22.54,-9.34,-11.36,-9.34,-11.36,6.00,6.49,4.01,-3.34,-3.34,2.02
22.76,-9.24,-11.27,-9.24,-11.27,6.00,6.48,4.13,-3.24,-3.24,2.03
22.99,-9.14,-11.17,-9.14,-11.17,6.00,6.46,4.24,-3.14,-3.14,2.03
23.22,-9.05,-11.09,-9.05,-11.08,6.00,6.45,4.36,-3.05,-3.05,2.04
23.45,-8.95,-11.00,-8.95,-11.00,6.00,6.44,4.49,-2.95,-2.95,2.05
23.69,-8.85,-10.91,-8.85,-10.91,6.00,6.42,4.61,-2.85,-2.85,2.06
23.92,-8.75,-10.83,-8.75,-10.83,6.00,6.41,4.74,-2.75,-2.75,2.08
24.16,-8.65,-10.75,-8.65,-10.74,6.00,6.40,4.87,-2.65,-2.65,2.10
24.40,-8.56,-10.66,-8.56,-10.66,6.00,6.38,5.00,-2.56,-2.56,2.11
24.65,-8.46,-10.57,-8.46,-10.57,6.00,6.37,5.13,-2.46,-2.46,2.11
24.89,-8.36,-10.48,-8.36,-10.48,6.00,6.35,5.27,-2.36,-2.36,2.13
25.14,-8.26,-10.39,-8.26,-10.39,6.00,6.34,5.41,-2.26,-2.26,2.13
25.39,-8.16,-10.30,-8.16,-10.31,6.00,6.33,5.54,-2.16,-2.16,2.14
25.65,-8.07,-10.22,-8.06,-10.22,6.00,6.31,5.68,-2.07,-2.06,2.15
25.91,-7.97,-10.13,-7.97,-10.13,6.00,6.29,5.82,-1.97,-1.97,2.16
26.16,-7.87,-10.04,-7.87,-10.05,6.00,6.28,5.96,-1.87,-1.87,2.17
26.43,-7.78,-9.96,-7.78,-9.96,6.00,6.26,6.10,-1.78,-1.78,2.18
26.69,-7.68,-9.88,-7.68,-9.88,6.00,6.25,6.24,-1.68,-1.68,2.20
26.96,-7.59,-9.80,-7.59,-9.80,6.00,6.23,6.38,-1.59,-1.59,2.21
27.23,-7.49,-9.71,-7.49,-9.71,6.00,6.21,6.51,-1.49,-1.49,2.22
27.50,-7.39,-9.63,-7.39,-9.63,6.00,6.19,6.64,-1.39,-1.39,2.24
27.77,-7.30,-9.54,-7.29,-9.54,6.00,6.18,6.77,-1.30,-1.29,2.24
28.05,-7.20,-9.46,-7.20,-9.45,6.00,6.16,6.89,-1.20,-1.20,2.26
28.33,-7.11,-9.36,-7.11,-9.37,6.00,6.14,7.00,-1.11,-1.11,2.26
28.62,-7.02,-9.29,-7.02,-9.29,6.00,6.12,7.11,-1.02,-1.02,2.27
28.90,-6.92,-9.20,-6.92,-9.20,6.00,6.10,7.21,-0.92,-0.92,2.28
29.19,-6.83,-9.12,-6.83,-9.12,6.00,6.08,7.31,-0.83,-0.83,2.29
29.48,-6.73,-9.04,-6.73,-9.04,6.00,6.06,7.39,-0.73,-0.73,2.31
29.78,-6.64,-8.96,-6.64,-8.96,6.00,6.04,7.46,-0.64,-0.64,2.32
30.08,-6.55,-8.88,-6.56,-8.89,6.00,6.02,7.52,-0.55,-0.56,2.33
30.38,-6.48,-8.82,-6.48,-8.82,6.00,6.00,7.57,-0.48,-0.48,2.34
30.68,-6.41,-8.76,-6.41,-8.75,6.00,5.98,7.61,-0.41,-0.41,2.35
30.99,-6.33,-8.69,-6.33,-8.69,6.00,5.96,7.64,-0.33,-0.33,2.35
31.30,-6.26,-8.62,-6.26,-8.62,6.00,5.94,7.65,-0.26,-0.26,2.36
31.61,-6.18,-8.56,-6.18,-8.55,6.00,5.91,7.65,-0.18,-0.18,2.38
31.93,-6.10,-8.48,-6.10,-8.48,6.00,5.89,7.63,-0.10,-0.10,2.38
32.24,-6.02,-8.41,-6.02,-8.41,6.00,5.87,7.61,-0.02,-0.02,2.39
32.57,-5.94,-8.34,-5.94,-8.34,6.00,5.84,7.57,0.06,0.06,2.40
32.89,-5.87,-8.28,-5.86,-8.28,6.00,5.82,7.52,0.13,0.14,2.42
33.22,-5.79,-8.20,-5.79,-8.21,6.00,5.79,7.46,0.21,0.21,2.41
33.55,-5.71,-8.14,-5.71,-8.14,6.00,5.77,7.39,0.29,0.29,2.43
33.89,-5.64,-8.07,-5.63,-8.07,6.00,5.74,7.31,0.36,0.37,2.43
34.23,-5.56,-8.01,-5.56,-8.00,6.00,5.72,7.23,0.44,0.44,2.45
34.57,-5.48,-7.93,-5.48,-7.93,6.00,5.69,7.13,0.52,0.52,2.45
34.92,-5.41,-7.86,-5.41,-7.86,6.00,5.66,7.03,0.59,0.59,2.45
35.27,-5.33,-7.79,-5.33,-7.79,6.00,5.63,6.92,0.67,0.67,2.46
35.62,-5.25,-7.71,-5.25,-7.71,6.00,5.60,6.81,0.75,0.75,2.46
35.97,-5.17,-7.63,-5.17,-7.63,6.00,5.58,6.70,0.83,0.83,2.46
36.33,-5.08,-7.55,-5.08,-7.55,6.00,5.55,6.58,0.92,0.92,2.48
36.70,-5.00,-7.47,-5.00,-7.47,6.00,5.52,6.46,1.00,1.00,2.47
37.06,-4.92,-7.38,-4.91,-7.38,6.00,5.49,6.34,1.08,1.09,2.46
37.43,-4.83,-7.30,-4.83,-7.29,6.00,5.46,6.22,1.17,1.17,2.47
37.81,-4.74,-7.20,-4.74,-7.21,6.00,5.42,6.10,1.26,1.26,2.46
38.19,-4.66,-7.12,-4.66,-7.12,6.00,5.39,5.98,1.34,1.34,2.46
38.57,-4.57,-7.04,-4.57,-7.03,6.00,5.36,5.86,1.43,1.43,2.47
38.95,-4.48,-6.93,-4.48,-6.94,6.00,5.33,5.74,1.52,1.52,2.46
39.34,-4.39,-6.84,-4.39,-6.84,6.00,5.29,5.62,1.61,1.61,2.45
39.74,-4.30,-6.74,-4.30,-6.74,6.00,5.26,5.51,1.70,1.70,2.44
40.14,-4.21,-6.66,-4.21,-6.65,6.00,5.22,5.40,1.79,1.79,2.45
40.54,-4.12,-6.55,-4.12,-6.55,6.01,5.19,5.29,1.89,1.89,2.43
40.94,-4.02,-6.46,-4.02,-6.46,6.01,5.15,5.18,2.00,1.99,2.44
41.35,-3.93,-6.36,-3.93,-6.36,6.02,5.11,5.08,2.09,2.09,2.43
41.76,-3.83,-6.26,-3.83,-6.27,6.01,5.08,4.98,2.19,2.18,2.43
42.18,-3.74,-6.17,-3.74,-6.17,6.00,5.04,4.88,2.26,2.26,2.44
42.60,-3.65,-6.08,-3.64,-6.08,5.97,5.00,4.79,2.32,2.33,2.43
43.03,-3.55,-5.99,-3.56,-5.99,5.93,4.96,4.70,2.38,2.37,2.44
43.46,-3.47,-5.90,-3.47,-5.90,5.87,4.92,4.61,2.41,2.41,2.43
43.90,-3.38,-5.81,-3.38,-5.81,5.81,4.88,4.53,2.43,2.43,2.43
44.33,-3.29,-5.71,-3.29,-5.71,5.72,4.83,4.45,2.44,2.43,2.42
44.78,-3.20,-5.62,-3.20,-5.62,5.64,4.79,4.37,2.44,2.44,2.42
45.23,-3.10,-5.52,-3.10,-5.52,5.54,4.75,4.30,2.44,2.44,2.42
45.68,-3.01,-5.43,-3.01,-5.43,5.45,4.70,4.23,2.44,2.43,2.42
46.13,-2.92,-5.34,-2.92,-5.35,5.35,4.66,4.16,2.43,2.43,2.42
46.60,-2.84,-5.27,-2.84,-5.26,5.27,4.61,4.10,2.43,2.43,2.43
47.06,-2.75,-5.18,-2.75,-5.18,5.18,4.57,4.03,2.43,2.43,2.43
47.53,-2.66,-5.09,-2.66,-5.10,5.09,4.52,3.98,2.43,2.43,2.43
48.01,-2.57,-5.02,-2.57,-5.01,5.00,4.47,3.92,2.43,2.43,2.45
48.49,-2.48,-4.92,-2.48,-4.92,4.91,4.42,3.87,2.43,2.43,2.44
48.97,-2.39,-4.81,-2.39,-4.81,4.81,4.37,3.82,2.42,2.42,2.42
49.46,-2.30,-4.71,-2.30,-4.71,4.71,4.32,3.78,2.42,2.42,2.41
49.96,-2.20,-4.60,-2.20,-4.61,4.62,4.27,3.73,2.42,2.41,2.40
50.46,-2.11,-4.52,-2.11,-4.51,4.52,4.22,3.69,2.41,2.41,2.41
50.96,-2.03,-4.43,-2.02,-4.42,4.42,4.17,3.65,2.40,2.40,2.40
51.47,-1.94,-4.32,-1.94,-4.33,4.33,4.11,3.61,2.39,2.39,2.38
51.99,-1.85,-4.23,-1.85,-4.24,4.23,4.06,3.57,2.38,2.38,2.38
52.51,-1.77,-4.15,-1.77,-4.15,4.14,4.00,3.54,2.37,2.38,2.38
53.03,-1.68,-4.05,-1.68,-4.05,4.05,3.95,3.51,2.37,2.37,2.37
53.56,-1.59,-3.95,-1.59,-3.96,3.95,3.89,3.47,2.36,2.36,2.36
54.10,-1.51,-3.85,-1.51,-3.85,3.86,3.83,3.44,2.35,2.35,2.34
54.64,-1.42,-3.75,-1.42,-3.76,3.76,3.77,3.41,2.34,2.34,2.33
55.18,-1.34,-3.66,-1.34,-3.66,3.66,3.71,3.38,2.32,2.32,2.32
55.74,-1.26,-3.56,-1.26,-3.57,3.57,3.65,3.35,2.31,2.31,2.30
56.29,-1.18,-3.48,-1.18,-3.48,3.48,3.59,3.32,2.30,2.30,2.30
56.86,-1.11,-3.39,-1.11,-3.39,3.39,3.53,3.29,2.28,2.28,2.28
57.42,-1.04,-3.30,-1.04,-3.30,3.30,3.47,3.25,2.26,2.26,2.26
58.00,-0.97,-3.21,-0.97,-3.21,3.22,3.40,3.22,2.25,2.25,2.24
58.58,-0.90,-3.13,-0.90,-3.13,3.13,3.34,3.19,2.23,2.23,2.23
59.16,-0.83,-3.05,-0.83,-3.05,3.05,3.27,3.15,2.22,2.21,2.22
59.76,-0.77,-2.97,-0.76,-2.97,2.96,3.20,3.11,2.19,2.20,2.20
60.35,-0.70,-2.88,-0.70,-2.88,2.87,3.14,3.07,2.17,2.17,2.18
60.96,-0.63,-2.79,-0.64,-2.79,2.78,3.07,3.03,2.15,2.15,2.16
61.57,-0.57,-2.69,-0.57,-2.69,2.69,3.00,2.99,2.12,2.13,2.12
62.18,-0.51,-2.60,-0.50,-2.60,2.60,2.93,2.94,2.09,2.10,2.09
62.80,-0.43,-2.50,-0.44,-2.50,2.51,2.86,2.89,2.08,2.07,2.07
63.43,-0.37,-2.41,-0.37,-2.41,2.42,2.78,2.84,2.05,2.05,2.04
64.07,-0.31,-2.32,-0.30,-2.32,2.32,2.71,2.79,2.01,2.02,2.02
64.71,-0.24,-2.24,-0.24,-2.24,2.23,2.64,2.73,1.99,1.99,2.00
65.35,-0.17,-2.14,-0.17,-2.14,2.13,2.56,2.68,1.97,1.96,1.97
66.01,-0.10,-2.05,-0.10,-2.04,2.04,2.49,2.62,1.94,1.94,1.95
66.67,-0.02,-1.94,-0.02,-1.94,1.94,2.41,2.55,1.92,1.92,1.92
67.33,0.05,-1.84,0.05,-1.85,1.85,2.33,2.49,1.90,1.90,1.89
68.01,0.12,-1.75,0.12,-1.75,1.75,2.26,2.42,1.87,1.87,1.87
68.69,0.19,-1.65,0.19,-1.65,1.66,2.18,2.36,1.85,1.85,1.84
69.37,0.26,-1.56,0.26,-1.56,1.56,2.10,2.29,1.82,1.82,1.82
70.07,0.33,-1.47,0.33,-1.47,1.46,2.02,2.22,1.79,1.79,1.80
70.77,0.40,-1.38,0.40,-1.38,1.37,1.94,2.14,1.77,1.77,1.78
71.48,0.47,-1.28,0.47,-1.28,1.28,1.86,2.07,1.75,1.75,1.75
72.19,0.54,-1.19,0.54,-1.19,1.19,1.78,1.99,1.73,1.73,1.73
72.91,0.61,-1.09,0.61,-1.10,1.10,1.70,1.92,1.71,1.71,1.71
73.64,0.67,-1.01,0.67,-1.01,1.02,1.62,1.84,1.69,1.69,1.68
74.38,0.73,-0.94,0.73,-0.94,0.94,1.53,1.77,1.67,1.67,1.67
75.12,0.78,-0.87,0.78,-0.87,0.87,1.45,1.69,1.65,1.65,1.65
75.87,0.84,-0.80,0.84,-0.80,0.79,1.37,1.61,1.64,1.64,1.64
76.63,0.90,-0.73,0.90,-0.73,0.73,1.28,1.53,1.63,1.63,1.63
77.40,0.96,-0.66,0.96,-0.66,0.67,1.20,1.45,1.63,1.63,1.62
78.17,1.01,-0.59,1.01,-0.60,0.60,1.12,1.38,1.62,1.62,1.60
78.95,1.06,-0.54,1.06,-0.54,0.54,1.03,1.30,1.60,1.60,1.60
79.74,1.10,-0.49,1.10,-0.49,0.48,0.95,1.22,1.58,1.59,1.59
80.54,1.15,-0.43,1.15,-0.43,0.42,0.86,1.14,1.57,1.57,1.58
81.35,1.21,-0.36,1.21,-0.37,0.36,0.78,1.06,1.57,1.57,1.57
82.16,1.27,-0.29,1.27,-0.30,0.30,0.69,0.98,1.57,1.57,1.56
82.98,1.33,-0.23,1.33,-0.23,0.23,0.61,0.91,1.56,1.56,1.56
83.81,1.38,-0.16,1.38,-0.17,0.17,0.53,0.83,1.55,1.55,1.54
84.65,1.43,-0.11,1.43,-0.11,0.11,0.44,0.75,1.54,1.54,1.54
85.50,1.48,-0.06,1.48,-0.05,0.05,0.36,0.67,1.53,1.54,1.54
86.35,1.54,0.02,1.53,0.01,-0.01,0.28,0.60,1.53,1.53,1.52
87.22,1.58,0.06,1.58,0.06,-0.06,0.19,0.52,1.52,1.52,1.52
88.09,1.62,0.12,1.62,0.11,-0.12,0.11,0.45,1.50,1.50,1.51
88.97,1.67,0.16,1.67,0.17,-0.18,0.03,0.37,1.49,1.49,1.51
89.86,1.72,0.22,1.72,0.23,-0.23,-0.05,0.29,1.49,1.49,1.50
90.76,1.78,0.30,1.78,0.29,-0.29,-0.13,0.22,1.49,1.49,1.48
91.66,1.83,0.35,1.83,0.35,-0.34,-0.21,0.14,1.49,1.49,1.49
92.58,1.88,0.41,1.88,0.40,-0.40,-0.29,0.07,1.48,1.48,1.47
93.51,1.92,0.45,1.92,0.45,-0.45,-0.37,-0.01,1.47,1.47,1.47
94.44,1.95,0.48,1.96,0.50,-0.50,-0.45,-0.08,1.46,1.46,1.47
95.39,2.00,0.54,2.00,0.54,-0.54,-0.52,-0.16,1.46,1.46,1.46
96.34,2.03,0.60,2.03,0.59,-0.58,-0.60,-0.23,1.45,1.45,1.43
97.30,2.05,0.63,2.05,0.63,-0.62,-0.67,-0.30,1.43,1.43,1.42
98.28,2.07,0.65,2.07,0.66,-0.66,-0.75,-0.38,1.41,1.41,1.42
99.26,2.09,0.69,2.09,0.69,-0.70,-0.82,-0.45,1.39,1.39,1.40
100.25,2.12,0.73,2.12,0.74,-0.74,-0.89,-0.52,1.38,1.38,1.39
101.25,2.16,0.79,2.16,0.79,-0.78,-0.96,-0.59,1.38,1.37,1.37
102.27,2.19,0.84,2.19,0.83,-0.83,-1.03,-0.67,1.36,1.36,1.35
103.29,2.21,0.88,2.21,0.88,-0.88,-1.09,-0.74,1.33,1.33,1.33
104.32,2.23,0.91,2.24,0.93,-0.93,-1.16,-0.81,1.30,1.31,1.32
105.37,2.27,0.98,2.27,0.98,-0.99,-1.22,-0.87,1.28,1.28,1.29
106.42,2.31,1.04,2.31,1.04,-1.05,-1.29,-0.94,1.26,1.26,1.27
107.48,2.34,1.10,2.34,1.10,-1.11,-1.35,-1.01,1.23,1.24,1.24
108.56,2.38,1.18,2.38,1.17,-1.16,-1.41,-1.07,1.22,1.21,1.20
109.64,2.40,1.22,2.40,1.23,-1.22,-1.46,-1.14,1.18,1.18,1.18
110.74,2.42,1.28,2.42,1.28,-1.27,-1.52,-1.20,1.15,1.15,1.14
111.85,2.42,1.31,2.42,1.32,-1.31,-1.58,-1.26,1.11,1.11,1.11
112.97,2.42,1.36,2.42,1.35,-1.35,-1.63,-1.32,1.07,1.07,1.06
114.10,2.40,1.38,2.40,1.37,-1.37,-1.68,-1.37,1.03,1.03,1.03
115.24,2.37,1.38,2.38,1.39,-1.39,-1.73,-1.43,0.98,0.99,0.99
116.39,2.35,1.41,2.35,1.40,-1.40,-1.78,-1.48,0.95,0.95,0.94
117.55,2.32,1.42,2.31,1.41,-1.40,-1.82,-1.53,0.92,0.91,0.90
118.73,2.26,1.40,2.27,1.41,-1.41,-1.87,-1.57,0.86,0.86,0.86
119.92,2.22,1.40,2.23,1.40,-1.41,-1.91,-1.61,0.81,0.82,0.82
121.12,2.19,1.40,2.19,1.41,-1.41,-1.95,-1.65,0.78,0.78,0.79
122.33,2.17,1.42,2.17,1.41,-1.42,-1.99,-1.69,0.75,0.75,0.75
123.55,2.15,1.43,2.15,1.43,-1.43,-2.03,-1.72,0.72,0.71,0.73
124.79,2.13,1.44,2.13,1.44,-1.46,-2.06,-1.75,0.67,0.68,0.69
126.03,2.12,1.46,2.13,1.47,-1.48,-2.10,-1.78,0.64,0.64,0.66
127.29,2.13,1.51,2.13,1.51,-1.51,-2.13,-1.80,0.62,0.62,0.62
128.57,2.14,1.56,2.14,1.55,-1.55,-2.16,-1.83,0.60,0.59,0.58
129.85,2.15,1.59,2.15,1.59,-1.58,-2.19,-1.84,0.57,0.57,0.56
131.15,2.15,1.63,2.15,1.62,-1.61,-2.22,-1.86,0.54,0.54,0.52
132.46,2.15,1.65,2.15,1.65,-1.64,-2.24,-1.87,0.51,0.51,0.50
133.79,2.15,1.67,2.15,1.67,-1.67,-2.27,-1.88,0.48,0.48,0.48
135.12,2.15,1.70,2.15,1.70,-1.70,-2.29,-1.89,0.45,0.45,0.45
136.48,2.15,1.72,2.15,1.72,-1.72,-2.31,-1.90,0.43,0.43,0.43
137.84,2.15,1.74,2.15,1.75,-1.75,-2.33,-1.90,0.40,0.40,0.41
139.22,2.15,1.78,2.15,1.77,-1.77,-2.35,-1.90,0.38,0.38,0.37
140.61,2.15,1.80,2.15,1.79,-1.79,-2.37,-1.90,0.36,0.36,0.35
142.02,2.15,1.81,2.15,1.81,-1.81,-2.39,-1.90,0.34,0.34,0.34
143.44,2.15,1.83,2.15,1.83,-1.84,-2.40,-1.90,0.31,0.31,0.32
144.87,2.15,1.86,2.15,1.86,-1.86,-2.41,-1.90,0.29,0.29,0.29
146.32,2.15,1.89,2.15,1.88,-1.88,-2.42,-1.90,0.27,0.27,0.26
147.78,2.15,1.90,2.15,1.91,-1.91,-2.44,-1.89,0.24,0.24,0.25
149.26,2.15,1.93,2.15,1.93,-1.93,-2.44,-1.89,0.22,0.22,0.22
150.75,2.15,1.96,2.15,1.96,-1.96,-2.45,-1.89,0.19,0.19,0.19
152.26,2.15,2.00,2.15,1.99,-1.99,-2.46,-1.88,0.16,0.16,0.15
153.78,2.15,2.02,2.15,2.02,-2.02,-2.47,-1.88,0.13,0.13,0.13
155.32,2.15,2.05,2.15,2.05,-2.05,-2.47,-1.88,0.10,0.10,0.10
156.88,2.15,2.08,2.15,2.08,-2.08,-2.48,-1.88,0.07,0.07,0.07
158.44,2.15,2.11,2.15,2.11,-2.11,-2.48,-1.88,0.04,0.04,0.04
160.03,2.15,2.15,2.15,2.15,-2.15,-2.48,-1.88,0.00,0.00,0.00
161.63,2.15,2.18,2.15,2.18,-2.19,-2.48,-1.88,-0.03,-0.03,-0.03
163.24,2.15,2.22,2.15,2.22,-2.22,-2.48,-1.88,-0.07,-0.07,-0.07
164.88,2.16,2.25,2.16,2.26,-2.26,-2.48,-1.89,-0.10,-0.10,-0.09
166.53,2.17,2.30,2.17,2.30,-2.29,-2.48,-1.89,-0.12,-0.12,-0.13
168.19,2.17,2.33,2.17,2.33,-2.33,-2.48,-1.90,-0.15,-0.15,-0.16
169.87,2.17,2.37,2.17,2.36,-2.36,-2.48,-1.91,-0.19,-0.19,-0.20
171.57,2.15,2.38,2.16,2.39,-2.38,-2.48,-1.92,-0.23,-0.23,-0.23
173.29,2.14,2.42,2.14,2.41,-2.41,-2.48,-1.93,-0.27,-0.28,-0.28
175.02,2.11,2.43,2.11,2.43,-2.44,-2.48,-1.95,-0.33,-0.33,-0.32
176.77,2.08,2.44,2.09,2.45,-2.46,-2.47,-1.96,-0.38,-0.38,-0.36
178.54,2.06,2.48,2.06,2.48,-2.48,-2.47,-1.98,-0.42,-0.42,-0.42
180.32,2.04,2.51,2.04,2.51,-2.50,-2.47,-1.99,-0.46,-0.46,-0.47
182.13,2.02,2.53,2.01,2.53,-2.52,-2.46,-2.01,-0.50,-0.51,-0.51
183.95,1.98,2.54,1.98,2.54,-2.54,-2.46,-2.03,-0.55,-0.55,-0.56
185.79,1.94,2.55,1.95,2.56,-2.55,-2.46,-2.06,-0.61,-0.60,-0.61
187.65,1.91,2.57,1.90,2.56,-2.56,-2.46,-2.08,-0.65,-0.66,-0.66
189.52,1.86,2.57,1.86,2.57,-2.57,-2.45,-2.11,-0.71,-0.71,-0.70
191.42,1.82,2.57,1.82,2.57,-2.58,-2.45,-2.13,-0.76,-0.76,-0.75
193.33,1.78,2.57,1.78,2.57,-2.59,-2.45,-2.16,-0.81,-0.80,-0.79
195.27,1.75,2.58,1.75,2.59,-2.60,-2.45,-2.19,-0.84,-0.85,-0.83
197.22,1.72,2.60,1.72,2.60,-2.60,-2.45,-2.22,-0.88,-0.88,-0.88
199.19,1.68,2.62,1.68,2.62,-2.60,-2.45,-2.25,-0.92,-0.92,-0.93
201.18,1.65,2.63,1.65,2.62,-2.60,-2.45,-2.29,-0.95,-0.96,-0.98
203.19,1.60,2.61,1.60,2.61,-2.60,-2.45,-2.32,-1.00,-1.00,-1.01
205.23,1.55,2.60,1.55,2.59,-2.59,-2.45,-2.35,-1.04,-1.04,-1.05
207.28,1.49,2.57,1.49,2.58,-2.58,-2.45,-2.39,-1.09,-1.09,-1.08
209.35,1.44,2.57,1.44,2.56,-2.57,-2.45,-2.42,-1.13,-1.13,-1.13
211.44,1.38,2.55,1.38,2.55,-2.56,-2.45,-2.45,-1.18,-1.18,-1.17
213.56,1.34,2.54,1.34,2.54,-2.56,-2.46,-2.49,-1.22,-1.22,-1.20
215.69,1.30,2.53,1.30,2.54,-2.55,-2.46,-2.52,-1.25,-1.25,-1.23
217.85,1.27,2.54,1.27,2.55,-2.55,-2.46,-2.55,-1.28,-1.27,-1.27
220.03,1.25,2.56,1.25,2.56,-2.54,-2.46,-2.58,-1.29,-1.29,-1.31
222.23,1.23,2.57,1.22,2.56,-2.54,-2.45,-2.61,-1.31,-1.31,-1.34
224.45,1.19,2.54,1.19,2.54,-2.53,-2.45,-2.64,-1.34,-1.34,-1.35
226.70,1.14,2.51,1.15,2.52,-2.52,-2.44,-2.66,-1.38,-1.37,-1.37
228.96,1.10,2.50,1.10,2.50,-2.50,-2.44,-2.68,-1.40,-1.40,-1.40
231.25,1.07,2.47,1.07,2.47,-2.49,-2.43,-2.70,-1.42,-1.42,-1.40
233.57,1.04,2.46,1.04,2.46,-2.47,-2.41,-2.72,-1.43,-1.43,-1.42
235.90,1.01,2.44,1.01,2.44,-2.45,-2.40,-2.73,-1.44,-1.44,-1.43
238.26,0.99,2.43,0.99,2.43,-2.43,-2.38,-2.74,-1.43,-1.44,-1.44
240.64,0.96,2.40,0.97,2.41,-2.40,-2.35,-2.75,-1.44,-1.43,-1.44
243.05,0.95,2.39,0.94,2.38,-2.38,-2.33,-2.75,-1.43,-1.43,-1.43
245.48,0.92,2.36,0.92,2.36,-2.35,-2.30,-2.75,-1.43,-1.43,-1.44
247.93,0.88,2.32,0.89,2.33,-2.32,-2.26,-2.74,-1.43,-1.43,-1.44
250.41,0.86,2.30,0.85,2.28,-2.28,-2.23,-2.73,-1.42,-1.43,-1.44
252.92,0.81,2.23,0.82,2.24,-2.25,-2.19,-2.72,-1.44,-1.43,-1.42
255.45,0.79,2.19,0.79,2.20,-2.21,-2.15,-2.70,-1.42,-1.42,-1.40
258.00,0.77,2.16,0.77,2.16,-2.17,-2.11,-2.68,-1.40,-1.41,-1.39
260.58,0.74,2.13,0.75,2.13,-2.13,-2.06,-2.65,-1.39,-1.39,-1.39
263.19,0.73,2.10,0.73,2.10,-2.09,-2.02,-2.62,-1.36,-1.37,-1.37
265.82,0.70,2.07,0.70,2.06,-2.05,-1.97,-2.59,-1.35,-1.35,-1.37
268.48,0.67,2.01,0.67,2.01,-2.00,-1.93,-2.55,-1.33,-1.33,-1.34
271.16,0.63,1.96,0.62,1.95,-1.95,-1.88,-2.51,-1.32,-1.33,-1.32
273.87,0.57,1.89,0.58,1.89,-1.89,-1.84,-2.46,-1.32,-1.32,-1.32
276.61,0.53,1.83,0.53,1.84,-1.84,-1.79,-2.42,-1.31,-1.31,-1.30
279.38,0.49,1.79,0.49,1.78,-1.78,-1.75,-2.37,-1.29,-1.29,-1.30
282.17,0.44,1.72,0.44,1.72,-1.72,-1.71,-2.31,-1.28,-1.28,-1.28
284.99,0.40,1.66,0.40,1.66,-1.67,-1.66,-2.26,-1.27,-1.27,-1.26
287.84,0.35,1.61,0.36,1.61,-1.63,-1.62,-2.20,-1.27,-1.27,-1.25
290.72,0.33,1.57,0.33,1.57,-1.58,-1.58,-2.14,-1.25,-1.25,-1.24
293.63,0.31,1.54,0.31,1.54,-1.54,-1.54,-2.09,-1.23,-1.23,-1.23
296.57,0.30,1.51,0.29,1.51,-1.50,-1.50,-2.03,-1.20,-1.21,-1.21
299.53,0.27,1.48,0.27,1.48,-1.46,-1.47,-1.96,-1.19,-1.19,-1.21
302.53,0.24,1.44,0.24,1.44,-1.42,-1.43,-1.90,-1.18,-1.18,-1.20
305.55,0.21,1.39,0.21,1.39,-1.39,-1.39,-1.84,-1.18,-1.18,-1.18
308.61,0.17,1.34,0.17,1.34,-1.35,-1.36,-1.78,-1.18,-1.18,-1.17
311.69,0.14,1.30,0.14,1.30,-1.31,-1.32,-1.71,-1.17,-1.17,-1.16
314.81,0.12,1.26,0.12,1.26,-1.27,-1.29,-1.65,-1.15,-1.15,-1.14
317.96,0.10,1.23,0.10,1.23,-1.23,-1.26,-1.59,-1.13,-1.13,-1.13
321.14,0.08,1.20,0.08,1.20,-1.20,-1.23,-1.53,-1.12,-1.12,-1.12
324.35,0.05,1.16,0.05,1.17,-1.16,-1.19,-1.46,-1.11,-1.11,-1.11
327.59,0.02,1.13,0.03,1.13,-1.12,-1.16,-1.40,-1.10,-1.10,-1.11
330.87,0.00,1.10,-0.01,1.09,-1.09,-1.13,-1.34,-1.08,-1.09,-1.10
334.18,-0.04,1.05,-0.04,1.05,-1.04,-1.10,-1.28,-1.08,-1.08,-1.09
337.52,-0.08,1.01,-0.08,1.01,-1.00,-1.08,-1.22,-1.08,-1.08,-1.09
340.90,-0.12,0.95,-0.12,0.96,-0.96,-1.05,-1.16,-1.08,-1.08,-1.07
344.30,-0.16,0.91,-0.16,0.91,-0.92,-1.02,-1.10,-1.08,-1.08,-1.07
347.75,-0.20,0.87,-0.20,0.87,-0.88,-0.99,-1.04,-1.08,-1.08,-1.07
351.23,-0.24,0.83,-0.23,0.83,-0.84,-0.96,-0.98,-1.08,-1.07,-1.07
354.74,-0.26,0.81,-0.26,0.80,-0.80,-0.94,-0.93,-1.06,-1.07,-1.07
358.28,-0.29,0.77,-0.29,0.77,-0.77,-0.91,-0.87,-1.06,-1.06,-1.06
361.87,-0.32,0.74,-0.32,0.74,-0.74,-0.88,-0.82,-1.06,-1.06,-1.06
365.49,-0.35,0.71,-0.35,0.72,-0.71,-0.86,-0.76,-1.06,-1.06,-1.06
369.14,-0.38,0.69,-0.38,0.69,-0.68,-0.83,-0.71,-1.06,-1.06,-1.07
372.83,-0.41,0.67,-0.41,0.66,-0.66,-0.81,-0.65,-1.07,-1.07,-1.07
376.56,-0.44,0.64,-0.43,0.64,-0.65,-0.78,-0.60,-1.09,-1.08,-1.08
380.33,-0.45,0.62,-0.45,0.62,-0.64,-0.76,-0.55,-1.09,-1.09,-1.07
384.13,-0.46,0.62,-0.46,0.62,-0.63,-0.73,-0.50,-1.09,-1.09,-1.08
387.97,-0.46,0.62,-0.46,0.62,-0.63,-0.71,-0.45,-1.09,-1.09,-1.08
391.85,-0.45,0.64,-0.45,0.64,-0.64,-0.68,-0.40,-1.09,-1.09,-1.09
395.77,-0.44,0.64,-0.44,0.65,-0.64,-0.66,-0.35,-1.08,-1.08,-1.08
399.73,-0.43,0.66,-0.43,0.66,-0.64,-0.63,-0.30,-1.07,-1.07,-1.09
403.72,-0.44,0.65,-0.44,0.65,-0.64,-0.61,-0.26,-1.08,-1.07,-1.09
407.76,-0.45,0.64,-0.45,0.64,-0.63,-0.58,-0.21,-1.08,-1.08,-1.09
411.84,-0.48,0.60,-0.47,0.61,-0.61,-0.56,-0.17,-1.09,-1.08,-1.08
415.96,-0.50,0.59,-0.50,0.58,-0.59,-0.53,-0.12,-1.09,-1.09,-1.09
420.12,-0.53,0.56,-0.53,0.55,-0.56,-0.51,-0.08,-1.09,-1.09,-1.09
424.32,-0.57,0.52,-0.57,0.52,-0.53,-0.49,-0.04,-1.10,-1.10,-1.09
428.56,-0.60,0.50,-0.60,0.50,-0.50,-0.46,-0.00,-1.10,-1.10,-1.10
432.85,-0.63,0.47,-0.63,0.47,-0.47,-0.44,0.04,-1.10,-1.10,-1.10
437.18,-0.66,0.44,-0.65,0.44,-0.44,-0.41,0.07,-1.10,-1.10,-1.10
441.55,-0.68,0.41,-0.68,0.41,-0.41,-0.39,0.11,-1.09,-1.09,-1.09
445.96,-0.70,0.39,-0.71,0.39,-0.39,-0.36,0.14,-1.09,-1.09,-1.09
450.42,-0.74,0.36,-0.73,0.36,-0.36,-0.34,0.17,-1.10,-1.09,-1.10
454.93,-0.76,0.33,-0.76,0.33,-0.33,-0.31,0.20,-1.09,-1.10,-1.09
459.48,-0.79,0.30,-0.79,0.31,-0.31,-0.29,0.23,-1.10,-1.09,-1.09
464.07,-0.81,0.28,-0.81,0.28,-0.28,-0.27,0.25,-1.09,-1.09,-1.09
468.71,-0.83,0.25,-0.84,0.25,-0.25,-0.24,0.27,-1.08,-1.09,-1.08
473.40,-0.87,0.22,-0.86,0.22,-0.22,-0.22,0.29,-1.09,-1.08,-1.09
478.13,-0.89,0.19,-0.89,0.20,-0.19,-0.20,0.31,-1.08,-1.08,-1.08
482.91,-0.92,0.16,-0.92,0.16,-0.16,-0.17,0.32,-1.08,-1.08,-1.08
487.74,-0.95,0.13,-0.95,0.13,-0.13,-0.15,0.34,-1.08,-1.08,-1.08
492.62,-0.98,0.10,-0.98,0.10,-0.10,-0.13,0.35,-1.08,-1.08,-1.07
