frequency,raw,error,smoothed,error_smoothed,equalization,parametric_eq,fixed_band_eq,equalized_raw,equalized_smoothed,target
20.00,1.09,0.78,1.08,0.77,-0.76,-2.48,-1.22,0.33,0.32,0.31
20.20,1.10,0.79,1.11,0.81,-0.81,-2.49,-1.26,0.29,0.31,0.31
20.40,1.15,0.84,1.16,0.85,-0.86,-2.50,-1.29,0.29,0.30,0.31
20.61,1.22,0.91,1.21,0.90,-0.91,-2.50,-1.33,0.30,0.29,0.31
20.81,1.27,0.96,1.27,0.97,-0.97,-2.51,-1.37,0.30,0.30,0.31
21.02,1.34,1.03,1.34,1.03,-1.03,-2.52,-1.41,0.31,0.31,0.31
21.23,1.40,1.09,1.40,1.09,-1.09,-2.53,-1.45,0.31,0.31,0.31
21.44,1.46,1.15,1.46,1.15,-1.15,-2.54,-1.49,0.31,0.31,0.31
21.66,1.52,1.21,1.52,1.21,-1.21,-2.54,-1.53,0.30,0.30,0.31
21.87,1.58,1.27,1.58,1.27,-1.28,-2.55,-1.57,0.30,0.30,0.31
22.09,1.65,1.34,1.65,1.34,-1.34,-2.56,-1.62,0.30,0.30,0.31
22.31,1.72,1.41,1.72,1.41,-1.41,-2.57,-1.66,0.31,0.31,0.31
22.54,1.79,1.48,1.79,1.48,-1.48,-2.58,-1.71,0.31,0.31,0.31
22.76,1.86,1.55,1.85,1.55,-1.55,-2.59,-1.76,0.31,0.30,0.31
22.99,1.92,1.61,1.92,1.61,-1.62,-2.60,-1.81,0.30,0.30,0.31
23.22,1.99,1.68,1.99,1.69,-1.69,-2.61,-1.86,0.30,0.31,0.31
23.45,2.07,1.76,2.06,1.75,-1.76,-2.61,-1.91,0.31,0.31,0.31
23.69,2.14,1.83,2.13,1.82,-1.82,-2.62,-1.97,0.31,0.31,0.31
23.92,2.19,1.88,2.20,1.89,-1.89,-2.64,-2.02,0.30,0.31,0.31
24.16,2.26,1.95,2.26,1.95,-1.95,-2.65,-2.07,0.31,0.31,0.31
24.40,2.32,2.01,2.32,2.01,-2.01,-2.66,-2.13,0.31,0.31,0.31
24.65,2.38,2.07,2.38,2.07,-2.07,-2.67,-2.19,0.31,0.31,0.31
24.89,2.44,2.13,2.43,2.12,-2.12,-2.68,-2.24,0.32,0.31,0.31
25.14,2.48,2.17,2.48,2.17,-2.18,-2.69,-2.30,0.30,0.30,0.31
25.39,2.52,2.21,2.53,2.22,-2.23,-2.70,-2.36,0.29,0.30,0.31
25.65,2.59,2.28,2.58,2.28,-2.28,-2.71,-2.42,0.31,0.30,0.31
25.91,2.64,2.33,2.64,2.33,-2.33,-2.73,-2.48,0.31,0.31,0.31
26.16,2.70,2.39,2.69,2.38,-2.38,-2.74,-2.54,0.32,0.31,0.31
26.43,2.73,2.42,2.73,2.43,-2.42,-2.75,-2.60,0.31,0.31,0.31
26.69,2.78,2.47,2.77,2.47,-2.46,-2.77,-2.65,0.31,0.31,0.31
26.96,2.81,2.50,2.81,2.50,-2.51,-2.78,-2.71,0.30,0.30,0.31
27.23,2.86,2.55,2.85,2.55,-2.55,-2.80,-2.77,0.31,0.31,0.31
27.50,2.89,2.58,2.89,2.58,-2.59,-2.81,-2.83,0.30,0.30,0.31
27.77,2.94,2.63,2.93,2.63,-2.63,-2.83,-2.88,0.31,0.31,0.31
28.05,2.97,2.66,2.97,2.66,-2.67,-2.84,-2.93,0.30,0.30,0.31
28.33,3.02,2.71,3.01,2.71,-2.71,-2.86,-2.98,0.31,0.31,0.31
28.62,3.05,2.74,3.05,2.75,-2.75,-2.88,-3.03,0.30,0.31,0.31
28.90,3.11,2.80,3.10,2.79,-2.79,-2.89,-3.08,0.31,0.31,0.31
29.19,3.14,2.83,3.14,2.83,-2.84,-2.91,-3.13,0.30,0.30,0.31
29.48,3.19,2.88,3.19,2.88,-2.88,-2.93,-3.17,0.30,0.30,0.31
29.78,3.24,2.93,3.23,2.93,-2.93,-2.95,-3.21,0.31,0.30,0.31
30.08,3.29,2.98,3.29,2.98,-2.98,-2.97,-3.24,0.31,0.31,0.31
30.38,3.34,3.03,3.34,3.03,-3.03,-2.99,-3.27,0.31,0.31,0.31
30.68,3.39,3.08,3.38,3.08,-3.08,-3.01,-3.30,0.31,0.31,0.31
30.99,3.43,3.12,3.43,3.12,-3.13,-3.03,-3.33,0.30,0.30,0.31
31.30,3.48,3.17,3.48,3.17,-3.17,-3.06,-3.35,0.30,0.31,0.31
31.61,3.53,3.22,3.52,3.22,-3.22,-3.08,-3.37,0.31,0.31,0.31
31.93,3.58,3.27,3.57,3.27,-3.26,-3.11,-3.38,0.31,0.31,0.31
32.24,3.61,3.30,3.61,3.31,-3.30,-3.13,-3.40,0.30,0.31,0.31
32.57,3.66,3.35,3.65,3.34,-3.34,-3.16,-3.41,0.31,0.31,0.31
32.89,3.69,3.38,3.69,3.38,-3.38,-3.18,-3.41,0.31,0.31,0.31
33.22,3.72,3.41,3.72,3.42,-3.41,-3.21,-3.41,0.31,0.31,0.31
33.55,3.76,3.45,3.75,3.44,-3.44,-3.24,-3.42,0.32,0.31,0.31
33.89,3.78,3.47,3.78,3.47,-3.47,-3.27,-3.41,0.31,0.31,0.31
34.23,3.80,3.49,3.80,3.50,-3.50,-3.30,-3.41,0.30,0.30,0.31
34.57,3.84,3.53,3.83,3.52,-3.53,-3.33,-3.40,0.31,0.30,0.31
34.92,3.85,3.54,3.86,3.55,-3.55,-3.36,-3.40,0.29,0.30,0.31
35.27,3.89,3.58,3.89,3.58,-3.58,-3.40,-3.39,0.30,0.30,0.31
35.62,3.93,3.62,3.92,3.61,-3.62,-3.43,-3.38,0.31,0.31,0.31
35.97,3.96,3.65,3.96,3.65,-3.65,-3.47,-3.37,0.31,0.31,0.31
36.33,3.99,3.68,3.99,3.68,-3.68,-3.50,-3.36,0.31,0.31,0.31
36.70,4.02,3.71,4.02,3.71,-3.72,-3.54,-3.35,0.30,0.30,0.31
37.06,4.06,3.75,4.06,3.75,-3.75,-3.57,-3.34,0.31,0.31,0.31
37.43,4.10,3.79,4.09,3.79,-3.78,-3.61,-3.33,0.31,0.31,0.31
37.81,4.13,3.82,4.13,3.82,-3.82,-3.64,-3.32,0.31,0.31,0.31
38.19,4.16,3.85,4.16,3.85,-3.85,-3.68,-3.31,0.31,0.31,0.31
38.57,4.19,3.88,4.19,3.88,-3.88,-3.71,-3.30,0.31,0.31,0.31
38.95,4.22,3.91,4.22,3.91,-3.91,-3.74,-3.30,0.31,0.31,0.31
39.34,4.25,3.94,4.25,3.94,-3.94,-3.77,-3.29,0.31,0.31,0.31
39.74,4.28,3.97,4.27,3.97,-3.97,-3.80,-3.29,0.31,0.31,0.31
40.14,4.31,4.00,4.30,3.99,-4.00,-3.83,-3.29,0.31,0.31,0.31
40.54,4.32,4.01,4.33,4.02,-4.02,-3.86,-3.29,0.29,0.30,0.31
40.94,4.36,4.05,4.35,4.04,-4.05,-3.88,-3.29,0.31,0.30,0.31
41.35,4.38,4.07,4.38,4.07,-4.07,-3.90,-3.30,0.30,0.31,0.31
41.76,4.41,4.10,4.41,4.10,-4.10,-3.92,-3.30,0.31,0.31,0.31
42.18,4.44,4.13,4.43,4.12,-4.12,-3.94,-3.31,0.32,0.31,0.31
42.60,4.45,4.14,4.45,4.15,-4.14,-3.95,-3.33,0.30,0.31,0.31
43.03,4.47,4.16,4.47,4.16,-4.16,-3.96,-3.34,0.30,0.30,0.31
43.46,4.49,4.18,4.48,4.17,-4.18,-3.97,-3.36,0.31,0.30,0.31
43.90,4.49,4.18,4.50,4.19,-4.20,-3.98,-3.38,0.29,0.30,0.31
44.33,4.52,4.21,4.52,4.21,-4.21,-3.99,-3.40,0.31,0.31,0.31
44.78,4.54,4.23,4.53,4.22,-4.22,-3.99,-3.42,0.32,0.31,0.31
45.23,4.54,4.23,4.54,4.23,-4.23,-4.00,-3.45,0.31,0.31,0.31
45.68,4.54,4.23,4.54,4.23,-4.23,-4.00,-3.48,0.30,0.31,0.31
46.13,4.54,4.23,4.54,4.23,-4.24,-4.00,-3.51,0.30,0.30,0.31
46.60,4.54,4.23,4.54,4.23,-4.24,-4.00,-3.55,0.30,0.30,0.31
47.06,4.54,4.23,4.54,4.23,-4.23,-4.01,-3.58,0.31,0.31,0.31
47.53,4.54,4.23,4.54,4.23,-4.22,-4.01,-3.62,0.31,0.32,0.31
48.01,4.54,4.23,4.53,4.23,-4.22,-4.01,-3.67,0.32,0.31,0.31
48.49,4.53,4.22,4.52,4.21,-4.21,-4.01,-3.71,0.32,0.31,0.31
48.97,4.49,4.18,4.50,4.19,-4.20,-4.02,-3.76,0.28,0.30,0.31
49.46,4.49,4.18,4.49,4.18,-4.19,-4.02,-3.80,0.29,0.29,0.31
49.96,4.49,4.18,4.48,4.18,-4.18,-4.03,-3.85,0.30,0.30,0.31
50.46,4.49,4.18,4.49,4.18,-4.17,-4.03,-3.91,0.31,0.31,0.31
50.96,4.49,4.18,4.48,4.17,-4.16,-4.04,-3.96,0.32,0.32,0.31
51.47,4.47,4.16,4.47,4.16,-4.16,-4.05,-4.01,0.31,0.31,0.31
51.99,4.45,4.14,4.45,4.15,-4.15,-4.06,-4.07,0.30,0.30,0.31
52.51,4.45,4.14,4.45,4.14,-4.15,-4.07,-4.12,0.30,0.30,0.31
53.03,4.45,4.14,4.44,4.14,-4.14,-4.08,-4.18,0.30,0.30,0.31
53.56,4.45,4.14,4.45,4.14,-4.14,-4.09,-4.23,0.30,0.30,0.31
54.10,4.45,4.14,4.45,4.14,-4.14,-4.10,-4.29,0.31,0.31,0.31
54.64,4.45,4.14,4.45,4.14,-4.14,-4.12,-4.35,0.31,0.31,0.31
55.18,4.45,4.14,4.45,4.14,-4.14,-4.13,-4.40,0.31,0.31,0.31
55.74,4.45,4.14,4.45,4.14,-4.14,-4.15,-4.45,0.31,0.31,0.31
56.29,4.45,4.14,4.45,4.14,-4.14,-4.16,-4.50,0.31,0.31,0.31
56.86,4.45,4.14,4.44,4.13,-4.13,-4.18,-4.55,0.32,0.31,0.31
57.42,4.43,4.12,4.43,4.12,-4.12,-4.20,-4.60,0.31,0.31,0.31
58.00,4.41,4.10,4.41,4.11,-4.11,-4.21,-4.65,0.30,0.31,0.31
58.58,4.41,4.10,4.39,4.09,-4.09,-4.23,-4.69,0.32,0.30,0.31
59.16,4.38,4.07,4.38,4.08,-4.08,-4.25,-4.73,0.30,0.31,0.31
59.76,4.36,4.05,4.36,4.06,-4.06,-4.27,-4.76,0.30,0.30,0.31
60.35,4.36,4.05,4.34,4.04,-4.04,-4.29,-4.79,0.32,0.30,0.31
60.96,4.32,4.01,4.33,4.02,-4.02,-4.31,-4.82,0.29,0.31,0.31
61.57,4.32,4.01,4.32,4.01,-4.01,-4.34,-4.84,0.31,0.31,0.31
62.18,4.32,4.01,4.30,4.00,-3.99,-4.36,-4.86,0.32,0.31,0.31
62.80,4.29,3.98,4.29,3.99,-3.98,-4.38,-4.88,0.30,0.31,0.31
63.43,4.28,3.97,4.28,3.98,-3.98,-4.40,-4.89,0.30,0.31,0.31
64.07,4.28,3.97,4.27,3.96,-3.97,-4.43,-4.89,0.30,0.30,0.31
64.71,4.28,3.97,4.28,3.97,-3.97,-4.45,-4.89,0.30,0.30,0.31
65.35,4.28,3.97,4.29,3.98,-3.98,-4.48,-4.89,0.30,0.31,0.31
66.01,4.32,4.01,4.30,4.00,-3.99,-4.50,-4.89,0.32,0.31,0.31
66.67,4.32,4.01,4.32,4.02,-4.01,-4.53,-4.88,0.30,0.31,0.31
67.33,4.35,4.04,4.35,4.04,-4.04,-4.55,-4.87,0.31,0.31,0.31
68.01,4.38,4.07,4.38,4.07,-4.08,-4.58,-4.85,0.30,0.30,0.31
68.69,4.43,4.12,4.42,4.12,-4.12,-4.60,-4.83,0.31,0.30,0.31
69.37,4.47,4.16,4.47,4.16,-4.17,-4.63,-4.82,0.30,0.30,0.31
70.07,4.52,4.21,4.52,4.21,-4.22,-4.66,-4.79,0.29,0.30,0.31
70.77,4.58,4.27,4.58,4.28,-4.28,-4.68,-4.77,0.30,0.30,0.31
71.48,4.66,4.35,4.65,4.34,-4.34,-4.71,-4.75,0.31,0.31,0.31
72.19,4.72,4.41,4.72,4.41,-4.41,-4.74,-4.73,0.31,0.31,0.31
72.91,4.78,4.47,4.78,4.47,-4.47,-4.76,-4.70,0.31,0.31,0.31
73.64,4.84,4.53,4.84,4.53,-4.52,-4.79,-4.68,0.31,0.31,0.31
74.38,4.90,4.59,4.89,4.58,-4.58,-4.82,-4.66,0.32,0.32,0.31
75.12,4.94,4.63,4.94,4.63,-4.62,-4.85,-4.63,0.32,0.32,0.31
75.87,4.97,4.66,4.97,4.66,-4.66,-4.87,-4.61,0.31,0.31,0.31
76.63,5.01,4.70,5.00,4.69,-4.69,-4.90,-4.59,0.31,0.31,0.31
77.40,5.02,4.71,5.03,4.72,-4.72,-4.93,-4.58,0.29,0.30,0.31
78.17,5.06,4.75,5.05,4.74,-4.75,-4.96,-4.56,0.31,0.30,0.31
78.95,5.08,4.77,5.07,4.77,-4.78,-4.98,-4.55,0.30,0.30,0.31
79.74,5.10,4.79,5.11,4.80,-4.80,-5.01,-4.53,0.29,0.30,0.31
80.54,5.14,4.83,5.13,4.83,-4.83,-5.04,-4.53,0.31,0.30,0.31
81.35,5.17,4.86,5.16,4.86,-4.86,-5.07,-4.52,0.31,0.30,0.31
82.16,5.19,4.88,5.20,4.89,-4.89,-5.09,-4.52,0.30,0.31,0.31
82.98,5.23,4.92,5.22,4.92,-4.92,-5.12,-4.52,0.31,0.31,0.31
83.81,5.26,4.95,5.25,4.94,-4.94,-5.15,-4.52,0.31,0.31,0.31
84.65,5.27,4.96,5.27,4.97,-4.96,-5.18,-4.53,0.30,0.31,0.31
85.50,5.29,4.98,5.29,4.99,-4.98,-5.20,-4.54,0.30,0.31,0.31
86.35,5.32,5.01,5.31,5.00,-4.99,-5.23,-4.55,0.32,0.31,0.31
87.22,5.32,5.01,5.32,5.01,-5.00,-5.25,-4.57,0.31,0.31,0.31
88.09,5.32,5.01,5.32,5.01,-5.01,-5.28,-4.59,0.31,0.31,0.31
88.97,5.32,5.01,5.32,5.01,-5.01,-5.31,-4.61,0.31,0.31,0.31
89.86,5.32,5.01,5.32,5.01,-5.01,-5.33,-4.64,0.31,0.31,0.31
90.76,5.32,5.01,5.31,5.01,-5.01,-5.36,-4.67,0.30,0.30,0.31
91.66,5.32,5.01,5.32,5.01,-5.02,-5.38,-4.70,0.30,0.30,0.31
92.58,5.32,5.01,5.33,5.02,-5.02,-5.41,-4.74,0.29,0.30,0.31
93.51,5.35,5.04,5.34,5.03,-5.03,-5.43,-4.78,0.31,0.30,0.31
94.44,5.36,5.05,5.35,5.05,-5.05,-5.45,-4.83,0.30,0.30,0.31
95.39,5.37,5.06,5.38,5.07,-5.07,-5.48,-4.87,0.29,0.30,0.31
96.34,5.40,5.09,5.40,5.09,-5.10,-5.50,-4.92,0.30,0.30,0.31
97.30,5.45,5.14,5.44,5.13,-5.13,-5.52,-4.98,0.32,0.31,0.31
98.28,5.47,5.16,5.47,5.17,-5.16,-5.54,-5.03,0.31,0.31,0.31
99.26,5.51,5.20,5.51,5.20,-5.19,-5.56,-5.09,0.31,0.31,0.31
100.25,5.54,5.23,5.53,5.23,-5.23,-5.58,-5.15,0.31,0.31,0.31
101.25,5.57,5.26,5.57,5.26,-5.26,-5.60,-5.21,0.30,0.30,0.31
102.27,5.60,5.29,5.60,5.29,-5.30,-5.62,-5.28,0.30,0.30,0.31
103.29,5.64,5.33,5.64,5.33,-5.33,-5.64,-5.34,0.31,0.31,0.31
104.32,5.68,5.37,5.67,5.37,-5.36,-5.66,-5.41,0.31,0.31,0.31
105.37,5.71,5.40,5.71,5.40,-5.40,-5.67,-5.48,0.31,0.31,0.31
106.42,5.74,5.43,5.74,5.43,-5.43,-5.69,-5.55,0.31,0.31,0.31
107.48,5.77,5.46,5.76,5.46,-5.46,-5.70,-5.61,0.31,0.30,0.31
108.56,5.79,5.48,5.79,5.49,-5.49,-5.72,-5.68,0.30,0.30,0.31
109.64,5.83,5.52,5.82,5.52,-5.52,-5.73,-5.75,0.31,0.30,0.31
110.74,5.86,5.55,5.86,5.55,-5.55,-5.74,-5.81,0.31,0.30,0.31
111.85,5.89,5.58,5.89,5.58,-5.58,-5.76,-5.87,0.31,0.31,0.31
112.97,5.92,5.61,5.92,5.61,-5.61,-5.77,-5.93,0.31,0.31,0.31
114.10,5.95,5.64,5.95,5.64,-5.64,-5.78,-5.99,0.31,0.31,0.31
115.24,5.97,5.66,5.97,5.67,-5.66,-5.78,-6.04,0.30,0.31,0.31
116.39,6.01,5.70,6.00,5.69,-5.69,-5.79,-6.09,0.32,0.31,0.31
117.55,6.02,5.71,6.02,5.71,-5.72,-5.80,-6.13,0.30,0.30,0.31
118.73,6.05,5.74,6.05,5.74,-5.74,-5.81,-6.17,0.31,0.30,0.31
119.92,6.06,5.75,6.06,5.76,-5.76,-5.81,-6.20,0.30,0.30,0.31
121.12,6.10,5.79,6.09,5.78,-5.78,-5.81,-6.23,0.32,0.31,0.31
122.33,6.10,5.79,6.11,5.80,-5.80,-5.82,-6.25,0.30,0.31,0.31
123.55,6.14,5.83,6.13,5.82,-5.81,-5.82,-6.27,0.32,0.31,0.31
124.79,6.14,5.83,6.13,5.83,-5.83,-5.82,-6.27,0.31,0.30,0.31
126.03,6.14,5.83,6.14,5.83,-5.84,-5.82,-6.27,0.30,0.30,0.31
127.29,6.14,5.83,6.14,5.84,-5.85,-5.81,-6.27,0.29,0.30,0.31
128.57,6.16,5.85,6.16,5.85,-5.85,-5.81,-6.26,0.31,0.31,0.31
129.85,6.18,5.87,6.17,5.86,-5.85,-5.81,-6.23,0.32,0.32,0.31
131.15,6.18,5.87,6.17,5.86,-5.85,-5.80,-6.21,0.32,0.32,0.31
132.46,6.16,5.85,6.16,5.85,-5.85,-5.79,-6.18,0.31,0.31,0.31
133.79,6.14,5.83,6.14,5.84,-5.85,-5.79,-6.14,0.29,0.30,0.31
135.12,6.14,5.83,6.14,5.83,-5.84,-5.78,-6.10,0.29,0.29,0.31
136.48,6.14,5.83,6.14,5.83,-5.83,-5.77,-6.06,0.30,0.30,0.31
137.84,6.14,5.83,6.13,5.83,-5.82,-5.76,-6.01,0.31,0.31,0.31
139.22,6.14,5.83,6.12,5.82,-5.81,-5.74,-5.96,0.32,0.31,0.31
140.61,6.10,5.79,6.11,5.81,-5.80,-5.73,-5.90,0.29,0.31,0.31
142.02,6.10,5.79,6.10,5.79,-5.79,-5.72,-5.84,0.31,0.31,0.31
143.44,6.10,5.79,6.08,5.77,-5.78,-5.70,-5.78,0.32,0.30,0.31
144.87,6.05,5.74,6.06,5.76,-5.76,-5.68,-5.72,0.29,0.30,0.31
146.32,6.05,5.74,6.05,5.74,-5.74,-5.67,-5.66,0.31,0.31,0.31
147.78,6.03,5.72,6.02,5.71,-5.72,-5.65,-5.60,0.31,0.30,0.31
149.26,6.01,5.70,6.00,5.70,-5.69,-5.63,-5.54,0.31,0.31,0.31
150.75,5.97,5.66,5.98,5.67,-5.67,-5.61,-5.48,0.30,0.31,0.31
152.26,5.96,5.65,5.95,5.64,-5.64,-5.59,-5.42,0.32,0.31,0.31
153.78,5.92,5.61,5.91,5.61,-5.61,-5.57,-5.36,0.31,0.31,0.31
155.32,5.88,5.57,5.88,5.58,-5.58,-5.54,-5.30,0.30,0.31,0.31
156.88,5.85,5.54,5.85,5.54,-5.54,-5.52,-5.25,0.30,0.30,0.31
158.44,5.82,5.51,5.81,5.51,-5.51,-5.49,-5.20,0.31,0.30,0.31
160.03,5.79,5.48,5.78,5.48,-5.48,-5.47,-5.15,0.31,0.31,0.31
161.63,5.75,5.44,5.75,5.45,-5.45,-5.44,-5.10,0.30,0.31,0.31
163.24,5.73,5.42,5.73,5.42,-5.42,-5.42,-5.06,0.30,0.31,0.31
164.88,5.71,5.40,5.70,5.40,-5.40,-5.39,-5.02,0.31,0.30,0.31
166.53,5.69,5.38,5.68,5.38,-5.38,-5.37,-4.98,0.30,0.30,0.31
168.19,5.66,5.35,5.67,5.36,-5.37,-5.34,-4.95,0.29,0.30,0.31
169.87,5.66,5.35,5.66,5.35,-5.35,-5.31,-4.92,0.30,0.30,0.31
171.57,5.66,5.35,5.66,5.35,-5.34,-5.28,-4.89,0.31,0.31,0.31
173.29,5.66,5.35,5.65,5.35,-5.34,-5.26,-4.87,0.32,0.32,0.31
175.02,5.65,5.34,5.64,5.33,-5.33,-5.23,-4.85,0.32,0.31,0.31
176.77,5.62,5.31,5.63,5.32,-5.33,-5.20,-4.84,0.29,0.30,0.31
178.54,5.62,5.31,5.62,5.31,-5.32,-5.17,-4.83,0.30,0.30,0.31
180.32,5.62,5.31,5.61,5.31,-5.32,-5.14,-4.82,0.30,0.30,0.31
182.13,5.62,5.31,5.62,5.31,-5.31,-5.12,-4.81,0.31,0.31,0.31
183.95,5.62,5.31,5.61,5.31,-5.30,-5.09,-4.81,0.31,0.31,0.31
185.79,5.62,5.31,5.60,5.30,-5.29,-5.06,-4.82,0.32,0.31,0.31
187.65,5.58,5.27,5.59,5.29,-5.28,-5.04,-4.82,0.29,0.31,0.31
189.52,5.58,5.27,5.58,5.27,-5.27,-5.01,-4.83,0.31,0.31,0.31
191.42,5.58,5.27,5.56,5.25,-5.25,-4.98,-4.84,0.32,0.31,0.31
193.33,5.53,5.22,5.54,5.24,-5.24,-4.96,-4.86,0.29,0.31,0.31
195.27,5.53,5.22,5.52,5.21,-5.21,-4.93,-4.88,0.31,0.31,0.31
197.22,5.49,5.18,5.49,5.19,-5.19,-4.91,-4.90,0.29,0.30,0.31
199.19,5.49,5.18,5.48,5.17,-5.17,-4.88,-4.92,0.32,0.31,0.31
201.18,5.45,5.14,5.45,5.15,-5.15,-4.86,-4.95,0.30,0.31,0.31
203.19,5.44,5.13,5.43,5.12,-5.12,-4.84,-4.98,0.31,0.31,0.31
205.23,5.40,5.09,5.40,5.10,-5.10,-4.82,-5.01,0.30,0.30,0.31
207.28,5.38,5.07,5.38,5.07,-5.07,-4.80,-5.04,0.30,0.30,0.31
209.35,5.36,5.05,5.35,5.05,-5.05,-4.78,-5.07,0.31,0.30,0.31
211.44,5.33,5.02,5.33,5.03,-5.03,-4.76,-5.11,0.30,0.31,0.31
213.56,5.32,5.01,5.31,5.00,-5.00,-4.74,-5.14,0.32,0.31,0.31
215.69,5.28,4.97,5.28,4.98,-4.98,-4.73,-5.17,0.30,0.31,0.31
217.85,5.27,4.96,5.26,4.95,-4.95,-4.71,-5.20,0.31,0.31,0.31
220.03,5.23,4.92,5.23,4.93,-4.93,-4.70,-5.24,0.30,0.31,0.31
222.23,5.22,4.91,5.21,4.91,-4.90,-4.68,-5.27,0.31,0.31,0.31
224.45,5.19,4.88,5.19,4.88,-4.88,-4.67,-5.29,0.31,0.31,0.31
226.70,5.16,4.85,5.16,4.86,-4.85,-4.66,-5.32,0.31,0.31,0.31
228.96,5.14,4.83,5.13,4.82,-4.82,-4.65,-5.34,0.31,0.30,0.31
231.25,5.10,4.79,5.10,4.80,-4.80,-4.64,-5.36,0.30,0.31,0.31
233.57,5.07,4.76,5.07,4.77,-4.77,-4.63,-5.37,0.30,0.31,0.31
235.90,5.06,4.75,5.04,4.73,-4.74,-4.62,-5.38,0.32,0.30,0.31
238.26,5.01,4.70,5.01,4.71,-4.71,-4.61,-5.39,0.30,0.31,0.31
240.64,4.98,4.67,4.99,4.68,-4.68,-4.61,-5.38,0.30,0.31,0.31
243.05,4.97,4.66,4.95,4.65,-4.65,-4.60,-5.38,0.32,0.30,0.31
245.48,4.93,4.62,4.93,4.62,-4.62,-4.59,-5.36,0.31,0.31,0.31
247.93,4.89,4.58,4.90,4.59,-4.59,-4.58,-5.35,0.30,0.31,0.31
250.41,4.88,4.57,4.87,4.56,-4.56,-4.58,-5.32,0.32,0.31,0.31
252.92,4.84,4.53,4.83,4.53,-4.53,-4.57,-5.29,0.31,0.31,0.31
255.45,4.80,4.49,4.80,4.50,-4.50,-4.56,-5.25,0.30,0.31,0.31
258.00,4.77,4.46,4.77,4.46,-4.47,-4.55,-5.21,0.30,0.30,0.31
260.58,4.74,4.43,4.74,4.43,-4.43,-4.54,-5.15,0.30,0.30,0.31
263.19,4.71,4.40,4.71,4.40,-4.40,-4.52,-5.10,0.31,0.31,0.31
265.82,4.68,4.37,4.68,4.37,-4.37,-4.51,-5.04,0.31,0.31,0.31
268.48,4.65,4.34,4.65,4.34,-4.34,-4.49,-4.97,0.31,0.31,0.31
271.16,4.62,4.31,4.61,4.31,-4.30,-4.47,-4.90,0.31,0.31,0.31
273.87,4.58,4.27,4.58,4.27,-4.27,-4.45,-4.82,0.31,0.31,0.31
276.61,4.54,4.23,4.54,4.23,-4.24,-4.42,-4.74,0.30,0.30,0.31
279.38,4.51,4.20,4.51,4.20,-4.20,-4.40,-4.66,0.30,0.30,0.31
282.17,4.48,4.17,4.48,4.17,-4.17,-4.36,-4.57,0.31,0.31,0.31
284.99,4.45,4.14,4.44,4.14,-4.13,-4.33,-4.48,0.31,0.31,0.31
287.84,4.41,4.10,4.41,4.10,-4.10,-4.29,-4.39,0.31,0.31,0.31
290.72,4.37,4.06,4.37,4.06,-4.07,-4.25,-4.30,0.30,0.30,0.31
293.63,4.34,4.03,4.34,4.03,-4.04,-4.20,-4.20,0.30,0.30,0.31
296.57,4.31,4.00,4.31,4.00,-4.00,-4.15,-4.11,0.30,0.30,0.31
299.53,4.28,3.97,4.28,3.97,-3.97,-4.10,-4.01,0.31,0.31,0.31
302.53,4.25,3.94,4.25,3.94,-3.94,-4.05,-3.91,0.31,0.31,0.31
305.55,4.22,3.91,4.22,3.91,-3.91,-3.99,-3.82,0.31,0.31,0.31
308.61,4.19,3.88,4.18,3.88,-3.87,-3.93,-3.72,0.31,0.31,0.31
311.69,4.15,3.84,4.15,3.84,-3.84,-3.86,-3.62,0.31,0.31,0.31
314.81,4.11,3.80,4.11,3.80,-3.80,-3.80,-3.53,0.30,0.31,0.31
317.96,4.07,3.76,4.07,3.76,-3.77,-3.73,-3.44,0.30,0.30,0.31
321.14,4.04,3.73,4.03,3.73,-3.73,-3.66,-3.34,0.31,0.31,0.31
324.35,4.00,3.69,3.99,3.69,-3.69,-3.58,-3.25,0.31,0.31,0.31
327.59,3.96,3.65,3.95,3.65,-3.65,-3.51,-3.16,0.31,0.30,0.31
330.87,3.91,3.60,3.91,3.61,-3.61,-3.44,-3.07,0.30,0.30,0.31
334.18,3.88,3.57,3.87,3.57,-3.57,-3.36,-2.99,0.31,0.31,0.31
337.52,3.84,3.53,3.84,3.53,-3.53,-3.29,-2.90,0.31,0.31,0.31
340.90,3.80,3.49,3.79,3.49,-3.48,-3.21,-2.82,0.31,0.31,0.31
344.30,3.75,3.44,3.75,3.44,-3.44,-3.14,-2.74,0.31,0.31,0.31
347.75,3.70,3.39,3.70,3.39,-3.39,-3.06,-2.66,0.30,0.31,0.31
351.23,3.65,3.34,3.65,3.34,-3.35,-2.99,-2.58,0.30,0.30,0.31
354.74,3.61,3.30,3.60,3.30,-3.30,-2.91,-2.51,0.31,0.30,0.31
358.28,3.56,3.25,3.56,3.25,-3.25,-2.84,-2.43,0.31,0.31,0.31
361.87,3.51,3.20,3.51,3.20,-3.20,-2.76,-2.36,0.31,0.31,0.31
365.49,3.46,3.15,3.46,3.15,-3.15,-2.69,-2.29,0.31,0.31,0.31
369.14,3.41,3.10,3.41,3.10,-3.10,-2.62,-2.22,0.31,0.31,0.31
372.83,3.36,3.05,3.36,3.05,-3.05,-2.55,-2.16,0.31,0.31,0.31
376.56,3.31,3.00,3.30,3.00,-2.99,-2.48,-2.09,0.31,0.31,0.31
380.33,3.25,2.94,3.25,2.94,-2.94,-2.41,-2.03,0.31,0.30,0.31
384.13,3.19,2.88,3.19,2.88,-2.89,-2.35,-1.97,0.30,0.30,0.31
387.97,3.13,2.82,3.13,2.83,-2.83,-2.28,-1.91,0.29,0.30,0.31
391.85,3.09,2.78,3.08,2.78,-2.78,-2.21,-1.85,0.31,0.31,0.31
395.77,3.04,2.73,3.04,2.73,-2.73,-2.15,-1.80,0.31,0.31,0.31
399.73,2.99,2.68,2.98,2.68,-2.67,-2.09,-1.74,0.31,0.31,0.31
403.72,2.93,2.62,2.93,2.62,-2.62,-2.03,-1.69,0.30,0.30,0.31
407.76,2.87,2.56,2.87,2.57,-2.57,-1.97,-1.64,0.29,0.30,0.31
411.84,2.83,2.52,2.82,2.52,-2.52,-1.91,-1.59,0.30,0.30,0.31
415.96,2.78,2.47,2.78,2.47,-2.47,-1.85,-1.54,0.31,0.31,0.31
420.12,2.74,2.43,2.73,2.43,-2.42,-1.79,-1.49,0.32,0.31,0.31
424.32,2.68,2.37,2.68,2.37,-2.36,-1.74,-1.45,0.31,0.31,0.31
428.56,2.62,2.31,2.62,2.31,-2.31,-1.68,-1.40,0.31,0.31,0.31
432.85,2.56,2.25,2.56,2.25,-2.25,-1.63,-1.36,0.30,0.30,0.31
437.18,2.50,2.19,2.50,2.19,-2.19,-1.58,-1.32,0.30,0.30,0.31
441.55,2.44,2.13,2.44,2.13,-2.13,-1.52,-1.28,0.30,0.30,0.31
445.96,2.38,2.07,2.37,2.07,-2.07,-1.47,-1.24,0.31,0.30,0.31
450.42,2.31,2.00,2.31,2.01,-2.01,-1.42,-1.20,0.30,0.31,0.31
454.93,2.26,1.95,2.25,1.95,-1.94,-1.37,-1.16,0.32,0.31,0.31
459.48,2.19,1.88,2.18,1.88,-1.88,-1.32,-1.12,0.31,0.31,0.31
464.07,2.12,1.81,2.11,1.81,-1.81,-1.28,-1.09,0.31,0.31,0.31
468.71,2.04,1.73,2.04,1.74,-1.74,-1.23,-1.05,0.30,0.30,0.31
473.40,1.98,1.67,1.98,1.67,-1.67,-1.18,-1.02,0.30,0.30,0.31
478.13,1.92,1.61,1.91,1.60,-1.60,-1.13,-0.99,0.31,0.31,0.31
482.91,1.84,1.53,1.84,1.54,-1.53,-1.09,-0.96,0.31,0.31,0.31
487.74,1.77,1.46,1.77,1.46,-1.46,-1.04,-0.93,0.31,0.31,0.31
492.62,1.70,1.39,1.69,1.39,-1.39,-1.00,-0.90,0.31,0.30,0.31
497.55,1.62,1.31,1.62,1.31,-1.32,-0.95,-0.87,0.30,0.31,0.31
502.52,1.55,1.24,1.55,1.24,-1.24,-0.90,-0.84,0.30,0.30,0.31
507.55,1.48,1.17,1.47,1.17,-1.17,-0.86,-0.81,0.31,0.30,0.31
512.62,1.40,1.09,1.40,1.10,-1.09,-0.81,-0.78,0.30,0.31,0.31
517.75,1.33,1.02,1.33,1.02,-1.02,-0.77,-0.76,0.31,0.31,0.31
522.93,1.26,0.95,1.25,0.95,-0.94,-0.72,-0.73,0.31,0.31,0.31
528.16,1.17,0.86,1.17,0.87,-0.86,-0.68,-0.71,0.30,0.31,0.31
533.44,1.11,0.80,1.09,0.79,-0.78,-0.63,-0.68,0.32,0.31,0.31
538.77,1.00,0.69,1.01,0.70,-0.70,-0.59,-0.66,0.29,0.31,0.31
544.16,0.94,0.63,0.93,0.62,-0.62,-0.54,-0.64,0.31,0.31,0.31
