frequency,raw,error,smoothed,error_smoothed,equalization,parametric_eq,fixed_band_eq,equalized_raw,equalized_smoothed,target
20.00,10.57,3.56,10.57,3.56,-3.56,-3.53,-1.50,7.01,7.01,7.01
20.20,10.55,3.57,10.55,3.57,-3.57,-3.52,-1.54,6.99,6.99,6.98
20.40,10.54,3.58,10.54,3.57,-3.57,-3.51,-1.59,6.97,6.96,6.96
20.61,10.52,3.58,10.52,3.58,-3.58,-3.50,-1.64,6.94,6.94,6.94
20.81,10.50,3.58,10.50,3.58,-3.58,-3.50,-1.69,6.92,6.92,6.92
21.02,10.48,3.58,10.48,3.58,-3.58,-3.49,-1.74,6.90,6.90,6.90
21.23,10.46,3.58,10.46,3.58,-3.58,-3.48,-1.79,6.88,6.88,6.88
21.44,10.44,3.58,10.44,3.58,-3.58,-3.47,-1.84,6.86,6.86,6.86
21.66,10.42,3.58,10.42,3.58,-3.58,-3.46,-1.90,6.84,6.84,6.84
21.87,10.40,3.57,10.40,3.58,-3.57,-3.45,-1.96,6.83,6.83,6.83
22.09,10.38,3.57,10.38,3.57,-3.56,-3.45,-2.02,6.82,6.82,6.81
22.31,10.36,3.56,10.36,3.56,-3.55,-3.44,-2.08,6.81,6.81,6.80
22.54,10.33,3.54,10.33,3.54,-3.54,-3.43,-2.14,6.79,6.79,6.79
22.76,10.30,3.52,10.30,3.52,-3.52,-3.42,-2.20,6.78,6.78,6.78
22.99,10.27,3.50,10.27,3.50,-3.50,-3.41,-2.27,6.77,6.77,6.77
23.22,10.24,3.48,10.24,3.49,-3.49,-3.40,-2.33,6.75,6.76,6.76
23.45,10.22,3.47,10.22,3.47,-3.47,-3.39,-2.40,6.75,6.75,6.75
23.69,10.20,3.46,10.20,3.46,-3.46,-3.38,-2.47,6.74,6.73,6.74
23.92,10.18,3.45,10.18,3.45,-3.46,-3.37,-2.54,6.72,6.72,6.74
24.16,10.17,3.45,10.18,3.45,-3.46,-3.36,-2.61,6.71,6.72,6.72
24.40,10.18,3.46,10.18,3.45,-3.46,-3.35,-2.68,6.72,6.71,6.72
24.65,10.18,3.47,10.18,3.47,-3.47,-3.34,-2.76,6.71,6.71,6.71
24.89,10.19,3.48,10.19,3.48,-3.48,-3.33,-2.83,6.71,6.71,6.71
25.14,10.19,3.49,10.19,3.49,-3.48,-3.32,-2.91,6.71,6.71,6.70
25.39,10.19,3.50,10.19,3.49,-3.48,-3.31,-2.98,6.71,6.71,6.69
25.65,10.17,3.48,10.17,3.49,-3.47,-3.30,-3.06,6.70,6.70,6.69
25.91,10.15,3.47,10.15,3.47,-3.46,-3.29,-3.14,6.69,6.69,6.68
26.16,10.12,3.44,10.12,3.44,-3.44,-3.27,-3.21,6.68,6.68,6.68
26.43,10.09,3.41,10.09,3.42,-3.42,-3.26,-3.29,6.67,6.67,6.68
26.69,10.06,3.39,10.06,3.39,-3.40,-3.25,-3.36,6.67,6.67,6.67
26.96,10.03,3.37,10.03,3.37,-3.37,-3.24,-3.43,6.66,6.66,6.67
27.23,10.00,3.35,10.00,3.34,-3.34,-3.23,-3.50,6.66,6.66,6.65
27.50,9.97,3.32,9.97,3.32,-3.32,-3.22,-3.57,6.65,6.65,6.65
27.77,9.94,3.29,9.94,3.29,-3.29,-3.20,-3.63,6.65,6.64,6.65
28.05,9.91,3.27,9.91,3.27,-3.28,-3.19,-3.70,6.63,6.64,6.64
28.33,9.89,3.25,9.89,3.25,-3.26,-3.18,-3.76,6.63,6.63,6.64
28.62,9.88,3.24,9.88,3.25,-3.25,-3.17,-3.81,6.63,6.63,6.64
28.90,9.87,3.24,9.87,3.24,-3.24,-3.15,-3.86,6.63,6.63,6.63
29.19,9.86,3.24,9.86,3.24,-3.24,-3.14,-3.91,6.63,6.63,6.63
29.48,9.85,3.23,9.85,3.23,-3.23,-3.13,-3.95,6.62,6.62,6.62
29.78,9.85,3.23,9.85,3.23,-3.23,-3.11,-3.99,6.63,6.62,6.62
30.08,9.84,3.22,9.84,3.22,-3.22,-3.10,-4.02,6.62,6.62,6.62
30.38,9.83,3.22,9.83,3.22,-3.21,-3.08,-4.04,6.62,6.62,6.61
30.68,9.81,3.20,9.81,3.20,-3.19,-3.07,-4.06,6.62,6.62,6.61
30.99,9.78,3.18,9.79,3.18,-3.18,-3.06,-4.07,6.60,6.61,6.61
31.30,9.76,3.16,9.76,3.16,-3.16,-3.04,-4.08,6.60,6.60,6.60
31.61,9.73,3.14,9.73,3.13,-3.14,-3.03,-4.08,6.59,6.59,6.59
31.93,9.70,3.11,9.70,3.11,-3.12,-3.01,-4.07,6.58,6.58,6.59
32.24,9.67,3.08,9.67,3.09,-3.10,-3.00,-4.06,6.58,6.58,6.59
32.57,9.65,3.08,9.65,3.07,-3.07,-2.98,-4.04,6.58,6.58,6.58
32.89,9.63,3.06,9.63,3.05,-3.05,-2.97,-4.01,6.58,6.58,6.57
33.22,9.60,3.03,9.60,3.03,-3.03,-2.95,-3.98,6.57,6.57,6.57
33.55,9.57,3.01,9.57,3.01,-3.01,-2.94,-3.95,6.56,6.57,6.56
33.89,9.54,2.98,9.54,2.98,-2.98,-2.92,-3.91,6.56,6.56,6.56
34.23,9.51,2.96,9.51,2.96,-2.96,-2.91,-3.86,6.55,6.55,6.55
34.57,9.48,2.94,9.48,2.94,-2.94,-2.89,-3.81,6.54,6.54,6.54
34.92,9.45,2.91,9.45,2.91,-2.92,-2.88,-3.76,6.53,6.53,6.54
35.27,9.42,2.89,9.42,2.89,-2.90,-2.86,-3.70,6.52,6.53,6.53
35.62,9.40,2.88,9.40,2.88,-2.88,-2.84,-3.65,6.52,6.52,6.52
35.97,9.38,2.86,9.38,2.86,-2.86,-2.83,-3.59,6.52,6.52,6.52
36.33,9.36,2.85,9.36,2.85,-2.84,-2.81,-3.52,6.52,6.52,6.51
36.70,9.34,2.83,9.34,2.83,-2.82,-2.79,-3.46,6.52,6.51,6.51
37.06,9.31,2.80,9.31,2.81,-2.80,-2.78,-3.40,6.51,6.51,6.51
37.43,9.28,2.79,9.28,2.78,-2.78,-2.76,-3.33,6.50,6.50,6.49
37.81,9.25,2.76,9.25,2.76,-2.75,-2.74,-3.26,6.50,6.49,6.49
38.19,9.21,2.73,9.21,2.73,-2.73,-2.73,-3.20,6.48,6.48,6.49
38.57,9.17,2.70,9.17,2.70,-2.71,-2.71,-3.13,6.46,6.47,6.47
38.95,9.14,2.67,9.14,2.67,-2.69,-2.69,-3.07,6.45,6.45,6.47
39.34,9.11,2.66,9.11,2.66,-2.67,-2.67,-3.00,6.44,6.44,6.45
39.74,9.09,2.64,9.09,2.65,-2.65,-2.66,-2.94,6.44,6.44,6.45
40.14,9.07,2.64,9.07,2.64,-2.64,-2.64,-2.87,6.43,6.44,6.43
40.54,9.06,2.63,9.06,2.63,-2.62,-2.62,-2.81,6.44,6.44,6.43
40.94,9.03,2.61,9.03,2.61,-2.60,-2.60,-2.75,6.43,6.43,6.42
41.35,9.00,2.58,9.00,2.58,-2.57,-2.58,-2.69,6.43,6.43,6.42
41.76,8.96,2.55,8.96,2.55,-2.54,-2.56,-2.64,6.42,6.42,6.41
42.18,8.92,2.52,8.92,2.52,-2.51,-2.55,-2.58,6.41,6.41,6.40
42.60,8.88,2.48,8.88,2.48,-2.48,-2.53,-2.53,6.40,6.39,6.40
43.03,8.83,2.43,8.84,2.44,-2.45,-2.51,-2.47,6.38,6.38,6.40
43.46,8.80,2.41,8.80,2.41,-2.42,-2.49,-2.42,6.38,6.38,6.39
43.90,8.77,2.38,8.77,2.38,-2.40,-2.47,-2.37,6.37,6.38,6.39
44.33,8.75,2.37,8.75,2.37,-2.37,-2.45,-2.33,6.38,6.38,6.38
44.78,8.73,2.36,8.73,2.36,-2.34,-2.43,-2.28,6.39,6.38,6.37
45.23,8.70,2.34,8.70,2.33,-2.32,-2.41,-2.24,6.38,6.38,6.36
45.68,8.66,2.30,8.66,2.31,-2.29,-2.40,-2.20,6.37,6.37,6.36
46.13,8.62,2.27,8.62,2.27,-2.27,-2.38,-2.16,6.35,6.35,6.35
46.60,8.57,2.23,8.57,2.23,-2.24,-2.36,-2.12,6.33,6.33,6.34
47.06,8.52,2.19,8.52,2.20,-2.21,-2.34,-2.08,6.31,6.32,6.33
47.53,8.48,2.17,8.48,2.17,-2.18,-2.32,-2.05,6.30,6.30,6.31
48.01,8.45,2.15,8.45,2.15,-2.15,-2.30,-2.01,6.30,6.30,6.30
48.49,8.42,2.13,8.42,2.13,-2.13,-2.28,-1.98,6.29,6.29,6.29
48.97,8.38,2.10,8.38,2.11,-2.10,-2.26,-1.95,6.28,6.28,6.28
49.46,8.35,2.08,8.35,2.08,-2.08,-2.24,-1.92,6.27,6.27,6.27
49.96,8.32,2.06,8.32,2.06,-2.06,-2.22,-1.90,6.26,6.26,6.26
50.46,8.28,2.04,8.28,2.04,-2.03,-2.20,-1.87,6.25,6.25,6.25
50.96,8.24,2.01,8.24,2.01,-2.00,-2.18,-1.85,6.24,6.24,6.23
51.47,8.20,1.97,8.20,1.97,-1.97,-2.16,-1.82,6.23,6.23,6.23
51.99,8.16,1.94,8.16,1.94,-1.94,-2.14,-1.80,6.22,6.22,6.22
52.51,8.12,1.92,8.12,1.91,-1.92,-2.12,-1.78,6.21,6.20,6.20
53.03,8.07,1.88,8.07,1.88,-1.89,-2.10,-1.76,6.19,6.19,6.19
53.56,8.03,1.86,8.03,1.85,-1.86,-2.08,-1.74,6.17,6.18,6.18
54.10,7.99,1.82,7.99,1.82,-1.83,-2.06,-1.72,6.16,6.16,6.17
54.64,7.95,1.80,7.95,1.80,-1.80,-2.04,-1.71,6.15,6.15,6.15
55.18,7.91,1.77,7.91,1.77,-1.77,-2.02,-1.69,6.14,6.14,6.14
55.74,7.87,1.75,7.87,1.74,-1.74,-2.00,-1.67,6.13,6.13,6.12
56.29,7.82,1.71,7.82,1.71,-1.71,-1.98,-1.66,6.11,6.12,6.11
56.86,7.78,1.68,7.78,1.68,-1.68,-1.96,-1.64,6.10,6.10,6.10
57.42,7.73,1.65,7.73,1.65,-1.65,-1.94,-1.63,6.08,6.08,6.08
58.00,7.68,1.61,7.68,1.62,-1.63,-1.92,-1.61,6.05,6.06,6.07
58.58,7.64,1.59,7.64,1.59,-1.60,-1.90,-1.60,6.04,6.04,6.05
59.16,7.61,1.58,7.61,1.57,-1.57,-1.88,-1.58,6.04,6.03,6.03
59.76,7.57,1.55,7.57,1.56,-1.55,-1.86,-1.57,6.02,6.02,6.02
60.35,7.53,1.53,7.53,1.53,-1.52,-1.84,-1.55,6.01,6.01,6.00
60.96,7.48,1.51,7.48,1.50,-1.50,-1.82,-1.54,5.98,5.98,5.98
61.57,7.43,1.48,7.43,1.47,-1.48,-1.80,-1.52,5.95,5.95,5.95
62.18,7.37,1.44,7.38,1.45,-1.46,-1.78,-1.51,5.91,5.92,5.93
62.80,7.33,1.43,7.33,1.43,-1.44,-1.76,-1.49,5.89,5.90,5.90
63.43,7.30,1.42,7.30,1.42,-1.42,-1.74,-1.48,5.89,5.88,5.88
64.07,7.26,1.41,7.26,1.40,-1.39,-1.72,-1.46,5.87,5.87,5.85
64.71,7.21,1.38,7.21,1.38,-1.37,-1.70,-1.45,5.84,5.84,5.83
65.35,7.15,1.35,7.15,1.35,-1.35,-1.68,-1.43,5.80,5.80,5.80
66.01,7.09,1.32,7.09,1.32,-1.33,-1.66,-1.41,5.76,5.76,5.77
66.67,7.03,1.29,7.03,1.29,-1.30,-1.64,-1.40,5.73,5.73,5.74
67.33,6.98,1.27,6.98,1.27,-1.28,-1.62,-1.38,5.70,5.70,5.71
68.01,6.94,1.26,6.94,1.26,-1.26,-1.60,-1.36,5.68,5.68,5.68
68.69,6.90,1.25,6.90,1.25,-1.24,-1.58,-1.35,5.66,5.66,5.65
69.37,6.85,1.23,6.85,1.23,-1.22,-1.56,-1.33,5.63,5.63,5.62
70.07,6.79,1.21,6.79,1.20,-1.20,-1.55,-1.31,5.59,5.59,5.59
70.77,6.73,1.18,6.73,1.18,-1.19,-1.53,-1.30,5.54,5.55,5.55
71.48,6.68,1.15,6.68,1.16,-1.17,-1.51,-1.28,5.51,5.51,5.53
72.19,6.64,1.15,6.64,1.15,-1.15,-1.49,-1.26,5.49,5.49,5.49
72.91,6.60,1.15,6.60,1.14,-1.14,-1.47,-1.25,5.46,5.46,5.46
73.64,6.55,1.13,6.55,1.13,-1.12,-1.45,-1.23,5.43,5.43,5.42
74.38,6.50,1.11,6.50,1.11,-1.11,-1.43,-1.22,5.39,5.39,5.39
75.12,6.44,1.09,6.44,1.09,-1.09,-1.41,-1.20,5.35,5.35,5.35
75.87,6.39,1.07,6.39,1.07,-1.08,-1.40,-1.19,5.31,5.31,5.32
76.63,6.34,1.06,6.34,1.06,-1.07,-1.38,-1.18,5.27,5.27,5.28
77.40,6.29,1.05,6.30,1.05,-1.05,-1.36,-1.16,5.24,5.24,5.24
78.17,6.25,1.04,6.25,1.04,-1.04,-1.34,-1.15,5.21,5.21,5.21
78.95,6.20,1.04,6.19,1.03,-1.02,-1.32,-1.14,5.18,5.17,5.16
79.74,6.13,1.01,6.14,1.01,-1.01,-1.31,-1.13,5.12,5.12,5.12
80.54,6.08,1.00,6.08,1.00,-1.00,-1.29,-1.12,5.08,5.07,5.08
81.35,6.02,0.98,6.02,0.99,-0.99,-1.27,-1.11,5.03,5.03,5.04
82.16,5.97,0.98,5.97,0.98,-0.98,-1.25,-1.10,4.99,4.99,4.99
82.98,5.93,0.99,5.92,0.98,-0.97,-1.24,-1.09,4.96,4.95,4.94
83.81,5.87,0.97,5.87,0.97,-0.96,-1.22,-1.08,4.91,4.91,4.90
84.65,5.82,0.96,5.82,0.96,-0.96,-1.20,-1.08,4.86,4.86,4.86
85.50,5.75,0.94,5.76,0.95,-0.96,-1.19,-1.07,4.80,4.80,4.81
86.35,5.70,0.94,5.70,0.94,-0.95,-1.17,-1.07,4.75,4.75,4.76
87.22,5.65,0.94,5.65,0.95,-0.95,-1.16,-1.06,4.70,4.70,4.71
88.09,5.61,0.96,5.61,0.95,-0.95,-1.14,-1.06,4.66,4.66,4.66
88.97,5.56,0.96,5.56,0.96,-0.95,-1.13,-1.06,4.61,4.61,4.60
89.86,5.51,0.96,5.51,0.96,-0.95,-1.11,-1.06,4.56,4.56,4.55
90.76,5.45,0.95,5.45,0.96,-0.96,-1.10,-1.06,4.49,4.49,4.50
91.66,5.40,0.96,5.40,0.96,-0.97,-1.08,-1.06,4.43,4.43,4.44
92.58,5.35,0.96,5.35,0.96,-0.97,-1.07,-1.06,4.38,4.38,4.39
93.51,5.31,0.98,5.31,0.98,-0.97,-1.05,-1.06,4.34,4.34,4.33
94.44,5.27,0.99,5.27,0.99,-0.98,-1.04,-1.06,4.29,4.29,4.28
95.39,5.22,1.00,5.22,0.99,-0.98,-1.03,-1.06,4.24,4.23,4.22
96.34,5.16,0.99,5.16,0.99,-0.99,-1.01,-1.07,4.17,4.17,4.17
97.30,5.10,0.98,5.10,0.99,-1.00,-1.00,-1.07,4.10,4.11,4.12
98.28,5.05,0.99,5.05,0.99,-1.00,-0.99,-1.08,4.05,4.05,4.06
99.26,5.01,1.00,5.01,1.00,-1.01,-0.98,-1.08,4.00,4.00,4.01
100.25,4.97,1.02,4.97,1.02,-1.02,-0.96,-1.09,3.96,3.95,3.95
101.25,4.92,1.03,4.92,1.03,-1.02,-0.95,-1.09,3.90,3.90,3.89
102.27,4.87,1.04,4.87,1.03,-1.03,-0.94,-1.10,3.84,3.84,3.83
103.29,4.81,1.03,4.81,1.03,-1.03,-0.93,-1.11,3.78,3.78,3.78
104.32,4.76,1.03,4.76,1.04,-1.04,-0.92,-1.11,3.72,3.72,3.73
105.37,4.71,1.04,4.71,1.04,-1.04,-0.91,-1.12,3.67,3.67,3.67
106.42,4.66,1.05,4.66,1.04,-1.04,-0.91,-1.12,3.62,3.62,3.61
107.48,4.61,1.05,4.61,1.05,-1.04,-0.90,-1.13,3.57,3.56,3.56
108.56,4.55,1.04,4.55,1.04,-1.04,-0.89,-1.14,3.51,3.51,3.51
109.64,4.49,1.04,4.49,1.04,-1.04,-0.89,-1.14,3.45,3.45,3.45
110.74,4.43,1.04,4.43,1.04,-1.04,-0.88,-1.15,3.39,3.39,3.39
111.85,4.38,1.05,4.38,1.04,-1.04,-0.88,-1.15,3.34,3.34,3.33
112.97,4.32,1.03,4.32,1.04,-1.04,-0.87,-1.16,3.28,3.29,3.29
114.10,4.27,1.04,4.27,1.04,-1.03,-0.87,-1.16,3.24,3.23,3.23
115.24,4.21,1.04,4.21,1.03,-1.03,-0.87,-1.16,3.18,3.18,3.17
116.39,4.15,1.03,4.15,1.03,-1.03,-0.87,-1.16,3.12,3.12,3.12
117.55,4.09,1.02,4.09,1.02,-1.03,-0.87,-1.16,3.06,3.07,3.07
118.73,4.04,1.02,4.04,1.02,-1.03,-0.87,-1.16,3.02,3.01,3.02
119.92,3.98,1.02,3.98,1.02,-1.02,-0.87,-1.16,2.96,2.96,2.96
121.12,3.93,1.02,3.93,1.02,-1.02,-0.88,-1.15,2.91,2.91,2.91
122.33,3.89,1.02,3.89,1.02,-1.02,-0.88,-1.15,2.87,2.86,2.87
123.55,3.84,1.03,3.84,1.03,-1.02,-0.89,-1.14,2.82,2.82,2.81
124.79,3.79,1.02,3.79,1.02,-1.02,-0.89,-1.13,2.77,2.77,2.77
126.03,3.74,1.02,3.74,1.02,-1.02,-0.90,-1.12,2.72,2.72,2.72
127.29,3.69,1.01,3.69,1.02,-1.02,-0.91,-1.11,2.67,2.67,2.68
128.57,3.64,1.01,3.64,1.01,-1.01,-0.92,-1.09,2.63,2.63,2.63
129.85,3.59,1.01,3.59,1.01,-1.01,-0.93,-1.08,2.58,2.58,2.58
131.15,3.53,1.00,3.53,1.00,-1.00,-0.94,-1.06,2.53,2.53,2.53
132.46,3.48,0.99,3.48,0.99,-0.99,-0.95,-1.04,2.49,2.48,2.49
133.79,3.42,0.98,3.42,0.98,-0.99,-0.96,-1.02,2.44,2.44,2.44
135.12,3.37,0.97,3.37,0.97,-0.98,-0.97,-1.00,2.40,2.40,2.40
136.48,3.32,0.97,3.32,0.97,-0.96,-0.98,-0.98,2.36,2.35,2.35
137.84,3.26,0.96,3.26,0.96,-0.95,-0.98,-0.95,2.31,2.31,2.30
139.22,3.20,0.94,3.20,0.94,-0.94,-0.99,-0.93,2.26,2.26,2.26
140.61,3.14,0.92,3.14,0.92,-0.93,-0.99,-0.90,2.21,2.22,2.22
142.02,3.09,0.91,3.09,0.91,-0.91,-0.98,-0.88,2.18,2.18,2.18
143.44,3.04,0.90,3.04,0.89,-0.89,-0.97,-0.85,2.15,2.14,2.14
144.87,2.98,0.88,2.98,0.88,-0.88,-0.96,-0.82,2.10,2.11,2.10
146.32,2.93,0.86,2.93,0.86,-0.86,-0.94,-0.79,2.07,2.07,2.07
147.78,2.87,0.84,2.87,0.84,-0.84,-0.92,-0.76,2.03,2.03,2.03
149.26,2.82,0.83,2.82,0.82,-0.82,-0.89,-0.73,2.00,1.99,1.99
150.75,2.76,0.79,2.77,0.80,-0.81,-0.86,-0.70,1.95,1.96,1.97
152.26,2.72,0.79,2.72,0.79,-0.79,-0.83,-0.67,1.93,1.93,1.93
153.78,2.67,0.78,2.67,0.77,-0.77,-0.79,-0.64,1.90,1.90,1.89
155.32,2.62,0.75,2.62,0.76,-0.75,-0.76,-0.61,1.87,1.87,1.87
156.88,2.57,0.74,2.57,0.73,-0.73,-0.72,-0.58,1.84,1.83,1.83
158.44,2.51,0.71,2.51,0.71,-0.72,-0.68,-0.55,1.79,1.80,1.80
160.03,2.46,0.69,2.46,0.69,-0.70,-0.64,-0.52,1.76,1.77,1.77
161.63,2.42,0.68,2.42,0.68,-0.68,-0.60,-0.49,1.74,1.74,1.74
163.24,2.37,0.65,2.37,0.66,-0.66,-0.56,-0.46,1.71,1.71,1.72
164.88,2.32,0.63,2.32,0.64,-0.63,-0.52,-0.43,1.69,1.69,1.69
166.53,2.27,0.61,2.27,0.61,-0.61,-0.48,-0.40,1.66,1.66,1.66
168.19,2.22,0.59,2.22,0.59,-0.58,-0.44,-0.37,1.64,1.64,1.63
169.87,2.16,0.55,2.16,0.55,-0.55,-0.40,-0.34,1.61,1.61,1.61
171.57,2.10,0.52,2.10,0.52,-0.52,-0.37,-0.31,1.58,1.58,1.59
173.29,2.04,0.48,2.04,0.48,-0.49,-0.33,-0.28,1.55,1.56,1.56
175.02,1.99,0.46,1.99,0.45,-0.45,-0.30,-0.25,1.54,1.54,1.53
176.77,1.93,0.41,1.93,0.41,-0.41,-0.27,-0.22,1.52,1.52,1.52
178.54,1.87,0.38,1.87,0.38,-0.38,-0.23,-0.19,1.49,1.49,1.50
180.32,1.81,0.34,1.81,0.34,-0.34,-0.20,-0.16,1.47,1.47,1.47
182.13,1.75,0.30,1.75,0.30,-0.30,-0.17,-0.14,1.45,1.45,1.45
183.95,1.69,0.26,1.69,0.26,-0.26,-0.14,-0.11,1.43,1.43,1.43
185.79,1.63,0.22,1.63,0.22,-0.22,-0.12,-0.08,1.41,1.41,1.41
187.65,1.57,0.18,1.57,0.18,-0.18,-0.09,-0.05,1.39,1.39,1.39
189.52,1.51,0.14,1.51,0.14,-0.14,-0.06,-0.02,1.37,1.36,1.37
191.42,1.44,0.09,1.45,0.10,-0.11,-0.03,0.01,1.33,1.34,1.35
193.33,1.39,0.06,1.39,0.06,-0.07,-0.01,0.03,1.32,1.32,1.33
195.27,1.35,0.04,1.35,0.04,-0.04,0.02,0.06,1.31,1.31,1.31
197.22,1.31,0.02,1.31,0.02,-0.01,0.04,0.09,1.30,1.30,1.29
199.19,1.27,-0.01,1.27,-0.01,0.02,0.07,0.12,1.29,1.29,1.28
201.18,1.23,-0.04,1.23,-0.04,0.05,0.09,0.14,1.28,1.27,1.27
203.19,1.18,-0.07,1.18,-0.07,0.08,0.11,0.17,1.26,1.26,1.25
205.23,1.14,-0.11,1.14,-0.10,0.10,0.14,0.20,1.25,1.25,1.25
207.28,1.10,-0.13,1.10,-0.13,0.13,0.16,0.22,1.23,1.24,1.24
209.35,1.07,-0.15,1.06,-0.16,0.16,0.18,0.25,1.23,1.22,1.22
211.44,1.02,-0.20,1.02,-0.19,0.19,0.20,0.27,1.21,1.21,1.22
213.56,0.98,-0.22,0.99,-0.22,0.21,0.23,0.30,1.19,1.20,1.20
215.69,0.95,-0.24,0.95,-0.24,0.23,0.25,0.33,1.18,1.18,1.19
217.85,0.93,-0.25,0.93,-0.25,0.25,0.27,0.35,1.18,1.18,1.18
220.03,0.90,-0.28,0.90,-0.27,0.27,0.29,0.38,1.18,1.18,1.18
222.23,0.88,-0.28,0.88,-0.29,0.30,0.31,0.40,1.18,1.17,1.17
224.45,0.84,-0.31,0.84,-0.31,0.32,0.33,0.43,1.16,1.17,1.15
226.70,0.81,-0.33,0.81,-0.34,0.35,0.35,0.45,1.16,1.16,1.14
228.96,0.76,-0.38,0.76,-0.38,0.38,0.38,0.47,1.14,1.14,1.14
231.25,0.72,-0.41,0.72,-0.41,0.41,0.40,0.50,1.13,1.13,1.13
233.57,0.68,-0.44,0.68,-0.45,0.43,0.42,0.52,1.12,1.12,1.12
235.90,0.65,-0.47,0.65,-0.47,0.46,0.44,0.54,1.11,1.11,1.12
238.26,0.62,-0.49,0.62,-0.49,0.49,0.46,0.56,1.11,1.11,1.12
240.64,0.60,-0.52,0.60,-0.51,0.51,0.48,0.58,1.11,1.12,1.12
243.05,0.59,-0.53,0.59,-0.53,0.54,0.50,0.60,1.13,1.12,1.12
245.48,0.57,-0.55,0.57,-0.55,0.56,0.53,0.62,1.13,1.13,1.12
247.93,0.54,-0.57,0.54,-0.57,0.59,0.55,0.64,1.13,1.13,1.11
250.41,0.51,-0.60,0.51,-0.61,0.62,0.57,0.66,1.13,1.13,1.12
252.92,0.47,-0.65,0.47,-0.65,0.65,0.59,0.68,1.12,1.12,1.12
255.45,0.43,-0.69,0.43,-0.68,0.68,0.61,0.70,1.11,1.11,1.12
258.00,0.40,-0.71,0.40,-0.72,0.71,0.63,0.72,1.11,1.11,1.11
260.58,0.37,-0.75,0.37,-0.75,0.73,0.66,0.73,1.10,1.10,1.12
263.19,0.34,-0.77,0.34,-0.77,0.76,0.68,0.75,1.10,1.10,1.11
265.82,0.32,-0.79,0.32,-0.79,0.78,0.70,0.77,1.10,1.11,1.11
268.48,0.31,-0.80,0.31,-0.80,0.81,0.72,0.78,1.12,1.11,1.11
271.16,0.29,-0.81,0.29,-0.82,0.83,0.74,0.80,1.12,1.12,1.11
273.87,0.26,-0.84,0.26,-0.84,0.86,0.77,0.82,1.12,1.12,1.10
276.61,0.22,-0.88,0.22,-0.88,0.89,0.79,0.83,1.11,1.11,1.10
279.38,0.18,-0.92,0.18,-0.92,0.92,0.81,0.85,1.10,1.10,1.10
282.17,0.14,-0.96,0.14,-0.96,0.96,0.84,0.87,1.10,1.10,1.11
284.99,0.10,-1.00,0.10,-1.00,1.00,0.86,0.88,1.10,1.09,1.10
287.84,0.06,-1.04,0.06,-1.04,1.03,0.88,0.90,1.09,1.09,1.10
290.72,0.02,-1.07,0.02,-1.07,1.06,0.91,0.92,1.08,1.08,1.09
293.63,-0.01,-1.10,-0.01,-1.10,1.09,0.93,0.93,1.08,1.08,1.09
296.57,-0.04,-1.12,-0.03,-1.12,1.11,0.96,0.95,1.08,1.08,1.08
299.53,-0.05,-1.14,-0.05,-1.14,1.14,0.98,0.97,1.09,1.09,1.09
302.53,-0.07,-1.16,-0.07,-1.16,1.16,1.00,0.99,1.09,1.09,1.09
305.55,-0.09,-1.17,-0.09,-1.18,1.19,1.03,1.01,1.10,1.10,1.08
308.61,-0.12,-1.21,-0.12,-1.21,1.22,1.05,1.03,1.10,1.10,1.09
311.69,-0.15,-1.24,-0.15,-1.24,1.25,1.08,1.05,1.10,1.10,1.09
314.81,-0.19,-1.28,-0.19,-1.28,1.28,1.11,1.07,1.09,1.09,1.09
317.96,-0.23,-1.32,-0.23,-1.32,1.31,1.13,1.09,1.08,1.09,1.09
321.14,-0.26,-1.36,-0.26,-1.36,1.35,1.16,1.11,1.09,1.09,1.10
324.35,-0.29,-1.38,-0.29,-1.39,1.38,1.18,1.14,1.09,1.09,1.10
327.59,-0.32,-1.41,-0.32,-1.41,1.41,1.21,1.16,1.09,1.09,1.09
330.87,-0.34,-1.44,-0.34,-1.44,1.44,1.24,1.19,1.10,1.10,1.10
334.18,-0.36,-1.47,-0.36,-1.46,1.46,1.26,1.22,1.10,1.10,1.11
337.52,-0.38,-1.48,-0.38,-1.49,1.49,1.29,1.25,1.11,1.11,1.11
340.90,-0.40,-1.51,-0.40,-1.51,1.52,1.32,1.27,1.12,1.11,1.11
344.30,-0.43,-1.54,-0.43,-1.54,1.55,1.34,1.30,1.12,1.12,1.11
347.75,-0.46,-1.57,-0.46,-1.57,1.58,1.37,1.34,1.12,1.12,1.11
351.23,-0.49,-1.60,-0.49,-1.60,1.61,1.40,1.37,1.12,1.12,1.11
354.74,-0.53,-1.64,-0.53,-1.64,1.64,1.43,1.40,1.11,1.11,1.12
358.28,-0.57,-1.68,-0.57,-1.68,1.67,1.46,1.44,1.10,1.10,1.11
361.87,-0.60,-1.71,-0.60,-1.71,1.70,1.48,1.47,1.10,1.10,1.11
365.49,-0.63,-1.74,-0.63,-1.74,1.73,1.51,1.51,1.10,1.10,1.11
369.14,-0.65,-1.76,-0.65,-1.76,1.76,1.54,1.55,1.11,1.11,1.11
372.83,-0.67,-1.78,-0.67,-1.78,1.78,1.57,1.59,1.11,1.11,1.11
376.56,-0.69,-1.80,-0.69,-1.80,1.81,1.60,1.63,1.12,1.12,1.12
380.33,-0.72,-1.83,-0.72,-1.83,1.83,1.63,1.67,1.11,1.12,1.11
384.13,-0.74,-1.85,-0.74,-1.86,1.86,1.66,1.71,1.12,1.12,1.11
387.97,-0.77,-1.88,-0.77,-1.88,1.89,1.69,1.75,1.12,1.12,1.11
391.85,-0.80,-1.92,-0.80,-1.92,1.92,1.72,1.80,1.12,1.12,1.12
395.77,-0.83,-1.95,-0.83,-1.95,1.95,1.75,1.84,1.12,1.12,1.12
399.73,-0.86,-1.99,-0.86,-1.98,1.98,1.78,1.89,1.12,1.12,1.13
403.72,-0.89,-2.02,-0.89,-2.02,2.02,1.80,1.93,1.13,1.12,1.13
407.76,-0.92,-2.05,-0.92,-2.05,2.05,1.83,1.98,1.13,1.13,1.14
411.84,-0.95,-2.08,-0.95,-2.08,2.08,1.86,2.03,1.13,1.13,1.13
415.96,-0.97,-2.11,-0.97,-2.11,2.11,1.89,2.07,1.14,1.14,1.14
420.12,-0.99,-2.13,-0.99,-2.13,2.14,1.92,2.12,1.15,1.15,1.14
424.32,-1.01,-2.15,-1.02,-2.16,2.17,1.95,2.17,1.16,1.15,1.14
428.56,-1.05,-2.20,-1.05,-2.19,2.20,1.98,2.21,1.15,1.15,1.15
432.85,-1.08,-2.23,-1.08,-2.22,2.23,2.01,2.26,1.15,1.15,1.15
437.18,-1.10,-2.25,-1.10,-2.25,2.25,2.04,2.30,1.15,1.15,1.15
441.55,-1.13,-2.28,-1.13,-2.28,2.27,2.07,2.34,1.15,1.15,1.15
445.96,-1.15,-2.30,-1.15,-2.30,2.29,2.10,2.38,1.14,1.14,1.15
450.42,-1.17,-2.32,-1.17,-2.31,2.31,2.13,2.42,1.14,1.14,1.15
454.93,-1.18,-2.33,-1.18,-2.32,2.31,2.15,2.46,1.13,1.14,1.15
459.48,-1.18,-2.32,-1.18,-2.33,2.32,2.18,2.50,1.14,1.14,1.15
464.07,-1.18,-2.32,-1.18,-2.32,2.32,2.21,2.53,1.14,1.14,1.14
468.71,-1.17,-2.31,-1.17,-2.31,2.31,2.24,2.56,1.14,1.15,1.14
473.40,-1.16,-2.30,-1.16,-2.31,2.31,2.26,2.59,1.15,1.15,1.14
478.13,-1.15,-2.30,-1.15,-2.30,2.31,2.29,2.62,1.17,1.16,1.15
482.91,-1.16,-2.31,-1.16,-2.31,2.32,2.32,2.64,1.16,1.16,1.15
487.74,-1.17,-2.32,-1.17,-2.32,2.33,2.34,2.66,1.16,1.16,1.15
492.62,-1.19,-2.34,-1.19,-2.35,2.35,2.37,2.67,1.16,1.16,1.15
497.55,-1.22,-2.38,-1.21,-2.37,2.37,2.39,2.69,1.15,1.16,1.16
502.52,-1.24,-2.40,-1.24,-2.40,2.40,2.41,2.70,1.16,1.16,1.16
507.55,-1.27,-2.43,-1.27,-2.43,2.43,2.44,2.70,1.16,1.16,1.16
512.62,-1.30,-2.46,-1.30,-2.46,2.46,2.46,2.71,1.16,1.16,1.16
517.75,-1.33,-2.50,-1.33,-2.50,2.50,2.48,2.70,1.17,1.17,1.17
522.93,-1.36,-2.53,-1.36,-2.53,2.53,2.50,2.70,1.17,1.17,1.17
528.16,-1.39,-2.56,-1.39,-2.56,2.56,2.52,2.69,1.17,1.17,1.17
533.44,-1.42,-2.59,-1.42,-2.59,2.59,2.54,2.69,1.17,1.17,1.17
538.77,-1.45,-2.63,-1.45,-2.62,2.62,2.56,2.67,1.17,1.17,1.18
