frequency,raw,error,smoothed,error_smoothed,equalization,parametric_eq,fixed_band_eq,equalized_raw,equalized_smoothed,target
20.00,3.78,-0.62,3.78,-0.62,0.62,0.58,0.14,4.40,4.40,4.41
20.20,3.80,-0.60,3.80,-0.61,0.61,0.57,0.14,4.41,4.41,4.40
20.40,3.82,-0.59,3.82,-0.60,0.60,0.57,0.15,4.42,4.42,4.41
20.61,3.83,-0.59,3.83,-0.59,0.59,0.56,0.15,4.42,4.42,4.42
20.81,3.85,-0.57,3.85,-0.58,0.58,0.56,0.15,4.43,4.43,4.42
21.02,3.87,-0.56,3.87,-0.56,0.56,0.55,0.16,4.43,4.43,4.43
21.23,3.89,-0.54,3.89,-0.55,0.55,0.55,0.16,4.44,4.44,4.43
21.44,3.91,-0.53,3.91,-0.53,0.53,0.55,0.17,4.45,4.45,4.44
21.66,3.93,-0.52,3.93,-0.52,0.52,0.54,0.18,4.45,4.45,4.45
21.87,3.95,-0.50,3.95,-0.51,0.50,0.54,0.18,4.45,4.45,4.45
22.09,3.97,-0.49,3.97,-0.49,0.49,0.53,0.19,4.46,4.46,4.46
22.31,3.99,-0.48,3.99,-0.47,0.47,0.53,0.19,4.46,4.46,4.47
22.54,4.02,-0.45,4.02,-0.45,0.45,0.52,0.20,4.47,4.47,4.47
22.76,4.05,-0.43,4.05,-0.43,0.43,0.52,0.20,4.48,4.48,4.48
22.99,4.08,-0.41,4.08,-0.41,0.41,0.51,0.21,4.49,4.50,4.49
23.22,4.11,-0.39,4.11,-0.39,0.40,0.51,0.22,4.51,4.51,4.50
23.45,4.13,-0.38,4.13,-0.38,0.39,0.50,0.22,4.52,4.52,4.51
23.69,4.14,-0.38,4.14,-0.38,0.38,0.50,0.23,4.52,4.52,4.52
23.92,4.15,-0.38,4.15,-0.38,0.38,0.49,0.24,4.53,4.53,4.53
24.16,4.16,-0.38,4.16,-0.38,0.38,0.49,0.24,4.54,4.54,4.54
24.40,4.17,-0.38,4.17,-0.38,0.38,0.48,0.25,4.55,4.55,4.55
24.65,4.19,-0.38,4.18,-0.38,0.38,0.48,0.26,4.57,4.56,4.57
24.89,4.19,-0.38,4.20,-0.38,0.38,0.48,0.27,4.57,4.57,4.58
25.14,4.21,-0.37,4.21,-0.37,0.37,0.47,0.27,4.58,4.58,4.59
25.39,4.23,-0.36,4.23,-0.37,0.36,0.47,0.28,4.59,4.59,4.59
25.65,4.25,-0.35,4.25,-0.35,0.35,0.46,0.29,4.60,4.60,4.60
25.91,4.28,-0.34,4.28,-0.34,0.33,0.46,0.30,4.61,4.62,4.62
26.16,4.32,-0.31,4.32,-0.31,0.31,0.46,0.31,4.64,4.63,4.63
26.43,4.35,-0.29,4.35,-0.29,0.30,0.45,0.31,4.65,4.65,4.64
26.69,4.38,-0.27,4.38,-0.27,0.28,0.45,0.32,4.66,4.66,4.65
26.96,4.41,-0.26,4.41,-0.26,0.26,0.45,0.33,4.67,4.67,4.67
27.23,4.44,-0.24,4.44,-0.24,0.24,0.44,0.34,4.68,4.68,4.68
27.50,4.46,-0.24,4.46,-0.23,0.23,0.44,0.35,4.69,4.70,4.70
27.77,4.48,-0.23,4.48,-0.23,0.23,0.44,0.35,4.71,4.71,4.71
28.05,4.50,-0.23,4.50,-0.22,0.23,0.44,0.36,4.73,4.73,4.73
28.33,4.51,-0.23,4.51,-0.23,0.23,0.43,0.37,4.74,4.74,4.74
28.62,4.52,-0.23,4.52,-0.24,0.24,0.43,0.38,4.76,4.76,4.75
28.90,4.51,-0.25,4.52,-0.25,0.26,0.43,0.38,4.77,4.77,4.76
29.19,4.51,-0.27,4.51,-0.27,0.27,0.43,0.39,4.78,4.78,4.78
29.48,4.50,-0.29,4.50,-0.29,0.29,0.43,0.40,4.79,4.79,4.79
29.78,4.49,-0.32,4.49,-0.31,0.31,0.43,0.40,4.80,4.80,4.81
30.08,4.49,-0.33,4.49,-0.33,0.33,0.43,0.41,4.82,4.82,4.82
30.38,4.49,-0.35,4.49,-0.35,0.34,0.43,0.42,4.83,4.83,4.84
30.68,4.49,-0.36,4.49,-0.36,0.36,0.43,0.42,4.85,4.85,4.85
30.99,4.49,-0.37,4.49,-0.37,0.37,0.43,0.43,4.86,4.86,4.87
31.30,4.49,-0.38,4.49,-0.38,0.39,0.43,0.43,4.88,4.88,4.87
31.61,4.49,-0.40,4.49,-0.40,0.40,0.43,0.44,4.89,4.89,4.89
31.93,4.49,-0.41,4.49,-0.41,0.41,0.43,0.45,4.90,4.90,4.90
32.24,4.49,-0.43,4.49,-0.43,0.43,0.43,0.45,4.92,4.92,4.92
32.57,4.49,-0.44,4.49,-0.44,0.44,0.44,0.46,4.93,4.93,4.93
32.89,4.49,-0.46,4.49,-0.45,0.45,0.44,0.46,4.94,4.94,4.95
33.22,4.49,-0.46,4.49,-0.47,0.47,0.44,0.46,4.96,4.96,4.95
33.55,4.49,-0.48,4.49,-0.48,0.48,0.45,0.47,4.97,4.97,4.97
33.89,4.49,-0.49,4.49,-0.49,0.49,0.45,0.47,4.98,4.98,4.98
34.23,4.49,-0.51,4.49,-0.50,0.51,0.45,0.48,5.00,5.00,5.00
34.57,4.49,-0.52,4.49,-0.52,0.52,0.46,0.48,5.01,5.01,5.01
34.92,4.49,-0.52,4.49,-0.53,0.53,0.47,0.49,5.02,5.02,5.01
35.27,4.49,-0.54,4.49,-0.54,0.54,0.47,0.49,5.03,5.03,5.03
35.62,4.49,-0.55,4.49,-0.55,0.55,0.48,0.50,5.04,5.04,5.04
35.97,4.49,-0.56,4.49,-0.56,0.55,0.49,0.50,5.04,5.04,5.05
36.33,4.49,-0.56,4.49,-0.56,0.56,0.50,0.51,5.05,5.05,5.06
36.70,4.50,-0.56,4.50,-0.57,0.56,0.50,0.51,5.06,5.06,5.06
37.06,4.50,-0.57,4.50,-0.57,0.57,0.51,0.52,5.07,5.07,5.07
37.43,4.51,-0.57,4.51,-0.57,0.57,0.52,0.52,5.08,5.08,5.08
37.81,4.51,-0.57,4.51,-0.57,0.58,0.53,0.53,5.09,5.09,5.09
38.19,4.51,-0.58,4.51,-0.58,0.59,0.55,0.54,5.10,5.10,5.09
38.57,4.50,-0.60,4.50,-0.60,0.60,0.56,0.55,5.10,5.10,5.10
38.95,4.49,-0.62,4.49,-0.62,0.62,0.57,0.55,5.11,5.11,5.11
39.34,4.47,-0.64,4.47,-0.64,0.64,0.59,0.56,5.11,5.11,5.11
39.74,4.44,-0.68,4.45,-0.67,0.67,0.60,0.57,5.11,5.12,5.12
40.14,4.42,-0.69,4.42,-0.70,0.70,0.62,0.58,5.12,5.12,5.12
40.54,4.39,-0.73,4.39,-0.73,0.74,0.63,0.59,5.13,5.13,5.12
40.94,4.36,-0.77,4.36,-0.77,0.77,0.65,0.60,5.13,5.13,5.13
41.35,4.33,-0.80,4.33,-0.81,0.81,0.66,0.61,5.14,5.14,5.13
41.76,4.29,-0.85,4.29,-0.85,0.84,0.68,0.63,5.14,5.14,5.14
42.18,4.26,-0.89,4.26,-0.88,0.88,0.70,0.64,5.14,5.14,5.15
42.60,4.24,-0.91,4.23,-0.92,0.91,0.72,0.65,5.15,5.15,5.15
43.03,4.21,-0.95,4.21,-0.95,0.94,0.74,0.67,5.15,5.15,5.16
43.46,4.19,-0.97,4.19,-0.97,0.96,0.76,0.68,5.15,5.16,5.16
43.90,4.18,-0.99,4.18,-0.99,0.98,0.78,0.70,5.16,5.16,5.17
44.33,4.18,-1.00,4.18,-1.00,1.00,0.80,0.72,5.18,5.18,5.18
44.78,4.17,-1.02,4.17,-1.01,1.02,0.83,0.73,5.19,5.19,5.19
45.23,4.17,-1.02,4.17,-1.03,1.03,0.85,0.75,5.20,5.20,5.19
45.68,4.16,-1.05,4.16,-1.04,1.05,0.87,0.77,5.21,5.21,5.21
46.13,4.15,-1.06,4.15,-1.06,1.07,0.89,0.79,5.22,5.22,5.21
46.60,4.13,-1.09,4.13,-1.09,1.10,0.92,0.81,5.23,5.23,5.23
47.06,4.11,-1.12,4.11,-1.12,1.13,0.94,0.83,5.24,5.23,5.23
47.53,4.08,-1.16,4.08,-1.16,1.16,0.96,0.85,5.24,5.24,5.24
48.01,4.05,-1.19,4.05,-1.20,1.19,0.99,0.87,5.25,5.25,5.25
48.49,4.02,-1.24,4.02,-1.24,1.23,1.01,0.89,5.25,5.25,5.26
48.97,3.99,-1.27,3.99,-1.27,1.27,1.03,0.91,5.27,5.27,5.26
49.46,3.96,-1.31,3.96,-1.31,1.32,1.05,0.93,5.28,5.28,5.27
49.96,3.93,-1.35,3.93,-1.35,1.36,1.07,0.96,5.29,5.28,5.28
50.46,3.89,-1.39,3.89,-1.39,1.39,1.09,0.98,5.29,5.29,5.28
50.96,3.86,-1.43,3.86,-1.43,1.43,1.11,1.00,5.29,5.29,5.29
51.47,3.83,-1.46,3.83,-1.46,1.46,1.13,1.02,5.29,5.29,5.29
51.99,3.81,-1.48,3.81,-1.48,1.48,1.14,1.04,5.29,5.29,5.29
52.51,3.80,-1.49,3.80,-1.49,1.49,1.16,1.06,5.29,5.29,5.29
53.03,3.80,-1.49,3.80,-1.49,1.49,1.17,1.07,5.29,5.29,5.30
53.56,3.82,-1.48,3.82,-1.48,1.47,1.18,1.09,5.30,5.30,5.31
54.10,3.85,-1.45,3.85,-1.46,1.45,1.19,1.11,5.30,5.30,5.31
54.64,3.89,-1.41,3.89,-1.41,1.42,1.19,1.12,5.31,5.31,5.31
55.18,3.93,-1.36,3.94,-1.36,1.37,1.20,1.13,5.30,5.31,5.29
55.74,3.99,-1.30,3.98,-1.31,1.31,1.19,1.14,5.30,5.30,5.29
56.29,4.04,-1.25,4.04,-1.25,1.25,1.19,1.14,5.29,5.29,5.29
56.86,4.10,-1.18,4.11,-1.18,1.17,1.18,1.15,5.27,5.28,5.28
57.42,4.18,-1.10,4.18,-1.10,1.09,1.17,1.15,5.27,5.26,5.28
58.00,4.26,-1.00,4.26,-1.00,0.99,1.15,1.14,5.25,5.26,5.27
58.58,4.36,-0.90,4.36,-0.90,0.89,1.13,1.14,5.25,5.25,5.26
59.16,4.46,-0.79,4.46,-0.79,0.79,1.11,1.13,5.25,5.25,5.25
59.76,4.56,-0.67,4.56,-0.68,0.68,1.08,1.11,5.24,5.24,5.24
60.35,4.65,-0.57,4.66,-0.56,0.57,1.04,1.09,5.22,5.23,5.22
60.96,4.75,-0.46,4.75,-0.46,0.47,1.00,1.07,5.22,5.21,5.21
61.57,4.83,-0.36,4.83,-0.36,0.37,0.96,1.04,5.20,5.20,5.19
62.18,4.90,-0.27,4.90,-0.27,0.28,0.91,1.01,5.18,5.18,5.18
62.80,4.96,-0.20,4.96,-0.19,0.20,0.85,0.97,5.16,5.16,5.16
63.43,5.02,-0.12,5.02,-0.12,0.12,0.79,0.93,5.14,5.14,5.14
64.07,5.07,-0.05,5.07,-0.05,0.06,0.73,0.88,5.13,5.12,5.12
64.71,5.10,0.00,5.10,0.00,0.00,0.66,0.83,5.10,5.10,5.10
65.35,5.12,0.04,5.13,0.05,-0.05,0.58,0.77,5.07,5.08,5.08
66.01,5.15,0.09,5.15,0.08,-0.09,0.50,0.71,5.06,5.06,5.06
66.67,5.16,0.12,5.16,0.12,-0.12,0.42,0.64,5.04,5.04,5.04
67.33,5.17,0.15,5.17,0.15,-0.15,0.33,0.57,5.02,5.02,5.02
68.01,5.17,0.18,5.17,0.18,-0.17,0.23,0.49,5.00,5.00,4.99
68.69,5.17,0.20,5.17,0.20,-0.19,0.14,0.41,4.98,4.98,4.97
69.37,5.16,0.21,5.16,0.21,-0.21,0.03,0.33,4.96,4.96,4.95
70.07,5.15,0.22,5.15,0.22,-0.22,-0.07,0.25,4.93,4.93,4.93
70.77,5.13,0.22,5.13,0.23,-0.23,-0.18,0.16,4.90,4.90,4.91
71.48,5.12,0.24,5.12,0.24,-0.24,-0.29,0.06,4.88,4.88,4.88
72.19,5.11,0.25,5.11,0.25,-0.25,-0.40,-0.03,4.86,4.86,4.86
72.91,5.11,0.26,5.11,0.27,-0.27,-0.52,-0.13,4.84,4.84,4.85
73.64,5.11,0.29,5.11,0.29,-0.28,-0.64,-0.24,4.83,4.83,4.82
74.38,5.12,0.31,5.12,0.31,-0.31,-0.76,-0.34,4.81,4.81,4.81
75.12,5.13,0.35,5.13,0.34,-0.34,-0.88,-0.45,4.79,4.78,4.78
75.87,5.14,0.38,5.14,0.38,-0.38,-1.01,-0.56,4.76,4.76,4.76
76.63,5.17,0.42,5.17,0.43,-0.43,-1.13,-0.67,4.74,4.74,4.75
77.40,5.22,0.49,5.22,0.49,-0.49,-1.26,-0.78,4.73,4.73,4.73
78.17,5.28,0.57,5.28,0.57,-0.57,-1.38,-0.90,4.71,4.71,4.71
78.95,5.35,0.66,5.35,0.66,-0.66,-1.51,-1.02,4.70,4.69,4.69
79.74,5.43,0.76,5.43,0.75,-0.76,-1.64,-1.14,4.67,4.67,4.68
80.54,5.52,0.87,5.52,0.87,-0.87,-1.77,-1.26,4.65,4.65,4.66
81.35,5.63,1.00,5.63,1.00,-1.01,-1.89,-1.38,4.62,4.63,4.64
82.16,5.76,1.15,5.76,1.14,-1.15,-2.02,-1.51,4.61,4.61,4.61
82.98,5.90,1.31,5.90,1.30,-1.31,-2.15,-1.63,4.59,4.59,4.59
83.81,6.04,1.47,6.04,1.47,-1.47,-2.27,-1.76,4.57,4.57,4.57
84.65,6.20,1.65,6.20,1.65,-1.65,-2.40,-1.89,4.55,4.55,4.55
85.50,6.36,1.83,6.36,1.84,-1.83,-2.52,-2.02,4.53,4.53,4.53
86.35,6.53,2.03,6.53,2.02,-2.01,-2.65,-2.16,4.52,4.51,4.50
87.22,6.69,2.21,6.69,2.21,-2.20,-2.77,-2.29,4.49,4.49,4.48
88.09,6.84,2.38,6.85,2.39,-2.39,-2.89,-2.43,4.45,4.46,4.46
88.97,7.01,2.57,7.01,2.57,-2.58,-3.01,-2.57,4.43,4.43,4.44
89.86,7.18,2.76,7.18,2.76,-2.76,-3.13,-2.71,4.42,4.41,4.42
90.76,7.34,2.95,7.35,2.95,-2.95,-3.25,-2.85,4.39,4.40,4.39
91.66,7.51,3.14,7.51,3.14,-3.14,-3.36,-3.00,4.37,4.38,4.38
92.58,7.68,3.33,7.67,3.32,-3.32,-3.48,-3.14,4.36,4.35,4.35
93.51,7.83,3.51,7.83,3.50,-3.51,-3.59,-3.29,4.32,4.32,4.32
94.44,7.98,3.67,7.99,3.69,-3.69,-3.70,-3.44,4.29,4.30,4.31
95.39,8.14,3.86,8.15,3.86,-3.86,-3.81,-3.59,4.28,4.28,4.28
96.34,8.31,4.05,8.30,4.04,-4.03,-3.92,-3.74,4.28,4.27,4.26
97.30,8.44,4.21,8.44,4.21,-4.20,-4.02,-3.90,4.24,4.24,4.23
98.28,8.57,4.36,8.57,4.36,-4.36,-4.12,-4.05,4.21,4.21,4.21
99.26,8.69,4.51,8.69,4.51,-4.52,-4.23,-4.21,4.17,4.18,4.18
100.25,8.82,4.66,8.82,4.66,-4.67,-4.32,-4.37,4.15,4.15,4.16
101.25,8.94,4.81,8.94,4.81,-4.81,-4.42,-4.52,4.13,4.13,4.13
102.27,9.06,4.96,9.06,4.95,-4.95,-4.52,-4.68,4.11,4.11,4.11
103.29,9.16,5.09,9.16,5.09,-5.08,-4.61,-4.84,4.08,4.08,4.07
104.32,9.25,5.21,9.25,5.21,-5.21,-4.70,-5.00,4.04,4.04,4.04
105.37,9.33,5.32,9.33,5.33,-5.32,-4.79,-5.15,4.01,4.01,4.01
106.42,9.41,5.44,9.41,5.44,-5.43,-4.87,-5.31,3.98,3.97,3.97
107.48,9.47,5.54,9.47,5.53,-5.53,-4.96,-5.46,3.94,3.93,3.93
108.56,9.52,5.63,9.52,5.63,-5.63,-5.04,-5.61,3.89,3.90,3.90
109.64,9.56,5.70,9.57,5.71,-5.71,-5.12,-5.76,3.85,3.86,3.86
110.74,9.61,5.79,9.61,5.79,-5.79,-5.20,-5.90,3.82,3.82,3.82
111.85,9.64,5.86,9.64,5.86,-5.86,-5.27,-6.04,3.78,3.78,3.78
112.97,9.66,5.93,9.66,5.93,-5.92,-5.35,-6.17,3.74,3.74,3.73
114.10,9.68,5.98,9.68,5.98,-5.98,-5.42,-6.30,3.70,3.69,3.70
115.24,9.68,6.03,9.69,6.03,-6.04,-5.49,-6.41,3.64,3.65,3.65
116.39,9.69,6.08,9.69,6.08,-6.09,-5.55,-6.53,3.61,3.61,3.61
117.55,9.70,6.14,9.70,6.13,-6.13,-5.62,-6.63,3.57,3.57,3.57
118.73,9.70,6.17,9.70,6.18,-6.17,-5.68,-6.73,3.53,3.53,3.53
119.92,9.70,6.22,9.70,6.21,-6.21,-5.74,-6.81,3.49,3.49,3.48
121.12,9.69,6.24,9.69,6.25,-6.25,-5.79,-6.88,3.44,3.45,3.45
122.33,9.69,6.28,9.69,6.28,-6.29,-5.85,-6.94,3.41,3.40,3.41
123.55,9.68,6.30,9.69,6.31,-6.32,-5.90,-7.00,3.36,3.36,3.38
124.79,9.69,6.35,9.69,6.35,-6.36,-5.95,-7.04,3.33,3.33,3.34
126.03,9.70,6.39,9.70,6.39,-6.39,-6.00,-7.07,3.31,3.30,3.31
127.29,9.70,6.43,9.70,6.43,-6.42,-6.04,-7.08,3.28,3.28,3.27
128.57,9.70,6.46,9.70,6.46,-6.45,-6.09,-7.09,3.25,3.25,3.24
129.85,9.69,6.48,9.69,6.49,-6.48,-6.13,-7.09,3.22,3.22,3.21
131.15,9.68,6.51,9.68,6.50,-6.50,-6.17,-7.08,3.18,3.18,3.18
132.46,9.66,6.52,9.66,6.51,-6.51,-6.20,-7.05,3.15,3.14,3.14
133.79,9.63,6.51,9.64,6.52,-6.53,-6.24,-7.02,3.11,3.11,3.12
135.12,9.61,6.52,9.61,6.52,-6.53,-6.27,-6.97,3.08,3.08,3.09
136.48,9.59,6.53,9.59,6.53,-6.53,-6.30,-6.93,3.06,3.06,3.06
137.84,9.57,6.54,9.57,6.54,-6.53,-6.33,-6.87,3.04,3.04,3.03
139.22,9.54,6.54,9.54,6.54,-6.53,-6.35,-6.81,3.01,3.01,3.00
140.61,9.50,6.53,9.50,6.53,-6.52,-6.37,-6.74,2.98,2.98,2.97
142.02,9.46,6.51,9.46,6.51,-6.50,-6.40,-6.67,2.96,2.95,2.95
143.44,9.41,6.48,9.41,6.49,-6.49,-6.41,-6.60,2.92,2.93,2.93
144.87,9.37,6.47,9.37,6.47,-6.47,-6.43,-6.52,2.90,2.90,2.90
146.32,9.32,6.46,9.32,6.45,-6.45,-6.44,-6.45,2.87,2.87,2.86
147.78,9.27,6.43,9.27,6.44,-6.44,-6.46,-6.37,2.83,2.84,2.84
149.26,9.23,6.42,9.23,6.42,-6.43,-6.47,-6.29,2.80,2.80,2.81
150.75,9.19,6.40,9.19,6.41,-6.42,-6.48,-6.21,2.77,2.77,2.79
152.26,9.16,6.40,9.17,6.41,-6.42,-6.48,-6.13,2.75,2.75,2.76
153.78,9.15,6.42,9.15,6.41,-6.41,-6.49,-6.05,2.74,2.73,2.73
155.32,9.13,6.42,9.13,6.42,-6.41,-6.49,-5.98,2.72,2.72,2.71
156.88,9.11,6.43,9.11,6.43,-6.41,-6.49,-5.91,2.70,2.70,2.68
158.44,9.08,6.42,9.08,6.42,-6.41,-6.49,-5.84,2.67,2.67,2.66
160.03,9.04,6.41,9.05,6.41,-6.41,-6.49,-5.77,2.63,2.64,2.63
161.63,9.01,6.40,9.01,6.40,-6.41,-6.48,-5.70,2.60,2.60,2.61
163.24,8.98,6.40,8.98,6.40,-6.41,-6.48,-5.64,2.57,2.57,2.58
164.88,8.95,6.39,8.95,6.40,-6.41,-6.47,-5.58,2.54,2.55,2.56
166.53,8.93,6.40,8.93,6.40,-6.40,-6.46,-5.53,2.53,2.53,2.53
168.19,8.91,6.41,8.91,6.41,-6.40,-6.45,-5.48,2.51,2.51,2.50
169.87,8.88,6.41,8.88,6.41,-6.40,-6.43,-5.43,2.48,2.48,2.47
171.57,8.85,6.40,8.85,6.40,-6.39,-6.42,-5.38,2.46,2.46,2.45
173.29,8.80,6.38,8.81,6.39,-6.38,-6.40,-5.34,2.42,2.42,2.42
175.02,8.76,6.37,8.76,6.37,-6.37,-6.38,-5.31,2.39,2.39,2.39
176.77,8.71,6.35,8.71,6.35,-6.35,-6.37,-5.28,2.36,2.36,2.36
178.54,8.66,6.33,8.66,6.33,-6.33,-6.34,-5.25,2.33,2.33,2.33
180.32,8.60,6.31,8.60,6.31,-6.31,-6.32,-5.22,2.29,2.29,2.30
182.13,8.55,6.28,8.55,6.28,-6.29,-6.30,-5.21,2.26,2.26,2.27
183.95,8.50,6.26,8.50,6.26,-6.27,-6.28,-5.19,2.23,2.23,2.24
185.79,8.45,6.25,8.45,6.24,-6.25,-6.25,-5.18,2.20,2.20,2.20
187.65,8.40,6.22,8.40,6.22,-6.22,-6.22,-5.17,2.18,2.18,2.18
189.52,8.34,6.20,8.35,6.20,-6.20,-6.19,-5.17,2.14,2.15,2.15
191.42,8.30,6.19,8.30,6.18,-6.17,-6.17,-5.16,2.13,2.12,2.11
193.33,8.24,6.16,8.24,6.15,-6.14,-6.13,-5.17,2.10,2.09,2.08
195.27,8.17,6.11,8.17,6.11,-6.11,-6.10,-5.17,2.06,2.06,2.06
197.22,8.09,6.06,8.10,6.07,-6.08,-6.07,-5.18,2.01,2.02,2.03
199.19,8.03,6.03,8.03,6.04,-6.05,-6.04,-5.19,1.98,1.99,2.00
201.18,7.97,6.02,7.97,6.01,-6.01,-6.00,-5.21,1.96,1.96,1.96
203.19,7.90,5.98,7.90,5.98,-5.97,-5.97,-5.23,1.93,1.93,1.92
205.23,7.83,5.94,7.83,5.94,-5.93,-5.93,-5.25,1.90,1.90,1.89
207.28,7.76,5.90,7.76,5.90,-5.89,-5.90,-5.27,1.87,1.87,1.86
209.35,7.69,5.86,7.69,5.85,-5.86,-5.86,-5.29,1.84,1.83,1.84
211.44,7.61,5.81,7.61,5.81,-5.82,-5.82,-5.31,1.79,1.80,1.80
213.56,7.53,5.76,7.54,5.77,-5.77,-5.78,-5.33,1.76,1.76,1.77
215.69,7.46,5.73,7.46,5.73,-5.73,-5.74,-5.36,1.73,1.73,1.73
217.85,7.39,5.70,7.39,5.69,-5.69,-5.70,-5.38,1.70,1.69,1.69
220.03,7.31,5.65,7.31,5.65,-5.65,-5.66,-5.41,1.66,1.66,1.66
222.23,7.23,5.60,7.24,5.61,-5.61,-5.62,-5.43,1.62,1.63,1.63
224.45,7.16,5.56,7.16,5.56,-5.56,-5.57,-5.45,1.60,1.60,1.60
226.70,7.09,5.52,7.09,5.52,-5.51,-5.53,-5.47,1.58,1.57,1.57
228.96,7.01,5.47,7.01,5.47,-5.46,-5.49,-5.48,1.55,1.55,1.54
231.25,6.93,5.41,6.93,5.41,-5.41,-5.44,-5.49,1.52,1.52,1.52
233.57,6.85,5.35,6.85,5.36,-5.36,-5.40,-5.50,1.50,1.50,1.50
235.90,6.77,5.30,6.77,5.30,-5.30,-5.35,-5.51,1.47,1.48,1.47
238.26,6.70,5.24,6.69,5.24,-5.24,-5.31,-5.51,1.46,1.46,1.46
240.64,6.61,5.17,6.61,5.17,-5.17,-5.26,-5.51,1.44,1.44,1.44
243.05,6.53,5.10,6.54,5.11,-5.11,-5.22,-5.50,1.42,1.43,1.43
245.48,6.46,5.05,6.46,5.05,-5.04,-5.17,-5.49,1.42,1.41,1.41
247.93,6.38,4.99,6.38,4.98,-4.98,-5.13,-5.47,1.40,1.40,1.40
250.41,6.29,4.91,6.29,4.91,-4.91,-5.08,-5.44,1.38,1.38,1.38
252.92,6.20,4.84,6.21,4.84,-4.84,-5.03,-5.41,1.36,1.36,1.37
255.45,6.12,4.77,6.12,4.77,-4.77,-4.98,-5.38,1.35,1.35,1.35
258.00,6.05,4.71,6.05,4.71,-4.71,-4.94,-5.34,1.35,1.34,1.34
260.58,5.97,4.64,5.97,4.64,-4.64,-4.89,-5.29,1.33,1.33,1.33
263.19,5.88,4.56,5.88,4.57,-4.57,-4.84,-5.24,1.31,1.31,1.32
265.82,5.80,4.50,5.81,4.50,-4.51,-4.79,-5.18,1.30,1.30,1.30
268.48,5.73,4.44,5.73,4.44,-4.44,-4.74,-5.13,1.29,1.29,1.29
271.16,5.66,4.38,5.66,4.38,-4.38,-4.70,-5.06,1.28,1.28,1.28
273.87,5.58,4.32,5.58,4.32,-4.31,-4.65,-4.99,1.27,1.27,1.26
276.61,5.50,4.25,5.50,4.25,-4.25,-4.60,-4.92,1.25,1.25,1.25
279.38,5.42,4.19,5.42,4.19,-4.19,-4.55,-4.85,1.23,1.23,1.24
282.17,5.35,4.13,5.35,4.13,-4.13,-4.50,-4.77,1.22,1.22,1.22
284.99,5.28,4.07,5.28,4.07,-4.07,-4.45,-4.69,1.21,1.21,1.21
287.84,5.21,4.01,5.21,4.02,-4.02,-4.41,-4.61,1.20,1.20,1.20
290.72,5.15,3.97,5.15,3.96,-3.96,-4.36,-4.53,1.19,1.19,1.18
293.63,5.08,3.91,5.08,3.91,-3.90,-4.31,-4.45,1.18,1.18,1.17
296.57,5.01,3.85,5.01,3.85,-3.85,-4.26,-4.36,1.16,1.16,1.16
299.53,4.94,3.80,4.94,3.80,-3.80,-4.21,-4.28,1.14,1.14,1.14
302.53,4.88,3.75,4.88,3.75,-3.76,-4.16,-4.20,1.12,1.12,1.13
305.55,4.82,3.71,4.82,3.71,-3.71,-4.12,-4.12,1.11,1.11,1.11
308.61,4.77,3.67,4.77,3.67,-3.67,-4.07,-4.03,1.10,1.10,1.10
311.69,4.72,3.64,4.72,3.64,-3.64,-4.02,-3.95,1.09,1.08,1.09
314.81,4.67,3.61,4.67,3.60,-3.60,-3.97,-3.87,1.07,1.07,1.06
317.96,4.62,3.57,4.62,3.57,-3.57,-3.92,-3.80,1.05,1.05,1.05
321.14,4.57,3.54,4.57,3.54,-3.55,-3.88,-3.72,1.02,1.03,1.03
324.35,4.53,3.51,4.53,3.52,-3.52,-3.83,-3.65,1.01,1.01,1.02
327.59,4.49,3.50,4.49,3.50,-3.50,-3.78,-3.57,1.00,1.00,0.99
330.87,4.46,3.48,4.46,3.48,-3.47,-3.74,-3.50,0.99,0.99,0.98
334.18,4.42,3.46,4.42,3.45,-3.44,-3.69,-3.43,0.98,0.97,0.96
337.52,4.37,3.42,4.37,3.42,-3.42,-3.64,-3.37,0.95,0.95,0.95
340.90,4.32,3.39,4.32,3.39,-3.40,-3.60,-3.30,0.92,0.92,0.93
344.30,4.27,3.35,4.28,3.36,-3.37,-3.55,-3.24,0.90,0.90,0.92
347.75,4.23,3.34,4.23,3.34,-3.34,-3.50,-3.18,0.89,0.89,0.89
351.23,4.20,3.33,4.19,3.32,-3.31,-3.46,-3.12,0.89,0.88,0.87
354.74,4.15,3.29,4.15,3.29,-3.28,-3.41,-3.07,0.87,0.87,0.86
358.28,4.10,3.26,4.10,3.26,-3.25,-3.37,-3.02,0.85,0.85,0.84
361.87,4.04,3.22,4.04,3.22,-3.22,-3.32,-2.97,0.83,0.83,0.82
365.49,3.98,3.17,3.98,3.18,-3.18,-3.28,-2.92,0.80,0.80,0.81
369.14,3.92,3.13,3.92,3.13,-3.14,-3.23,-2.87,0.78,0.78,0.79
372.83,3.86,3.09,3.86,3.09,-3.10,-3.19,-2.83,0.76,0.76,0.78
376.56,3.81,3.06,3.81,3.06,-3.06,-3.14,-2.79,0.75,0.75,0.75
380.33,3.76,3.03,3.76,3.02,-3.01,-3.10,-2.75,0.75,0.74,0.73
384.13,3.70,2.98,3.70,2.98,-2.96,-3.06,-2.71,0.74,0.73,0.72
387.97,3.62,2.92,3.63,2.92,-2.91,-3.01,-2.68,0.71,0.71,0.70
391.85,3.55,2.86,3.55,2.86,-2.86,-2.97,-2.64,0.69,0.69,0.69
395.77,3.48,2.80,3.48,2.80,-2.81,-2.93,-2.61,0.68,0.68,0.68
399.73,3.41,2.74,3.41,2.74,-2.74,-2.89,-2.58,0.67,0.67,0.67
403.72,3.34,2.68,3.34,2.68,-2.68,-2.85,-2.55,0.66,0.66,0.66
407.76,3.26,2.61,3.26,2.62,-2.62,-2.80,-2.53,0.64,0.64,0.65
411.84,3.18,2.55,3.19,2.56,-2.55,-2.76,-2.50,0.63,0.63,0.63
415.96,3.11,2.50,3.11,2.49,-2.49,-2.72,-2.48,0.62,0.62,0.62
420.12,3.03,2.43,3.03,2.43,-2.43,-2.68,-2.46,0.60,0.60,0.60
424.32,2.95,2.36,2.95,2.36,-2.36,-2.64,-2.44,0.59,0.59,0.59
428.56,2.88,2.30,2.88,2.30,-2.30,-2.60,-2.42,0.58,0.58,0.58
432.85,2.81,2.25,2.81,2.24,-2.24,-2.56,-2.40,0.57,0.57,0.56
437.18,2.74,2.19,2.74,2.19,-2.19,-2.52,-2.38,0.55,0.55,0.55
441.55,2.67,2.13,2.67,2.13,-2.13,-2.48,-2.36,0.54,0.54,0.54
445.96,2.60,2.08,2.60,2.08,-2.08,-2.45,-2.34,0.52,0.52,0.52
450.42,2.53,2.03,2.53,2.03,-2.03,-2.41,-2.33,0.50,0.50,0.50
454.93,2.46,1.97,2.46,1.97,-1.98,-2.37,-2.31,0.48,0.48,0.49
459.48,2.39,1.92,2.40,1.93,-1.93,-2.33,-2.29,0.46,0.46,0.47
464.07,2.33,1.88,2.33,1.88,-1.89,-2.30,-2.28,0.45,0.45,0.45
468.71,2.28,1.85,2.27,1.84,-1.84,-2.26,-2.26,0.44,0.44,0.43
473.40,2.21,1.79,2.21,1.80,-1.79,-2.23,-2.24,0.42,0.42,0.42
478.13,2.15,1.75,2.15,1.75,-1.74,-2.19,-2.22,0.41,0.41,0.40
482.91,2.08,1.69,2.08,1.70,-1.69,-2.16,-2.20,0.39,0.39,0.39
487.74,2.02,1.65,2.02,1.65,-1.65,-2.12,-2.18,0.38,0.38,0.37
492.62,1.96,1.61,1.96,1.60,-1.60,-2.09,-2.16,0.36,0.36,0.36
497.55,1.89,1.55,1.89,1.55,-1.55,-2.05,-2.14,0.34,0.34,0.35
502.52,1.83,1.50,1.83,1.50,-1.51,-2.02,-2.12,0.32,0.33,0.34
507.55,1.78,1.46,1.78,1.46,-1.47,-1.99,-2.10,0.31,0.32,0.32
512.62,1.74,1.44,1.74,1.43,-1.43,-1.95,-2.08,0.31,0.30,0.30
517.75,1.70,1.41,1.70,1.41,-1.41,-1.92,-2.05,0.29,0.29,0.29
522.93,1.66,1.39,1.66,1.39,-1.39,-1.89,-2.03,0.27,0.27,0.27
528.16,1.63,1.38,1.63,1.38,-1.38,-1.86,-2.00,0.25,0.25,0.25
533.44,1.60,1.37,1.61,1.37,-1.37,-1.83,-1.98,0.23,0.23,0.23
538.77,1.59,1.38,1.59,1.37,-1.37,-1.80,-1.95,0.22,0.21,0.21
544.16,1.57,1.38,1.57,1.38,-1.38,-1.77,-1.93,0.19,0.19,0.19
549.60,1.56,1.40,1.56,1.39,-1.40,-1.74,-1.90,0.16,0.16,0.16
555.10,1.55,1.41,1.55,1.41,-1.42,-1.72,-1.87,0.13,0.13,0.14
560.65,1.55,1.44,1.55,1.44,-1.44,-1.69,-1.84,0.11,0.11,0.11
