frequency,raw,error,smoothed,error_smoothed,equalization,parametric_eq,fixed_band_eq,equalized_raw,equalized_smoothed,target
20.00,-6.07,-6.75,-6.07,-6.75,6.00,5.81,2.58,-0.07,-0.07,0.68
20.20,-6.04,-6.73,-6.04,-6.73,6.00,5.84,2.65,-0.04,-0.04,0.69
20.40,-6.00,-6.70,-6.01,-6.70,6.00,5.87,2.73,-0.00,-0.01,0.70
20.61,-5.97,-6.67,-5.97,-6.68,6.00,5.90,2.81,0.03,0.03,0.70
20.81,-5.94,-6.65,-5.94,-6.65,6.00,5.92,2.88,0.06,0.06,0.71
21.02,-5.90,-6.61,-5.90,-6.61,6.00,5.95,2.97,0.10,0.10,0.71
21.23,-5.85,-6.57,-5.85,-6.57,6.00,5.97,3.05,0.15,0.15,0.72
21.44,-5.80,-6.52,-5.80,-6.51,6.00,5.98,3.14,0.20,0.20,0.72
21.66,-5.74,-6.46,-5.74,-6.46,6.00,6.00,3.22,0.26,0.26,0.72
21.87,-5.69,-6.41,-5.70,-6.42,6.00,6.01,3.32,0.31,0.30,0.72
22.09,-5.67,-6.40,-5.68,-6.41,6.00,6.02,3.41,0.33,0.32,0.73
22.31,-5.69,-6.42,-5.69,-6.41,6.00,6.03,3.51,0.31,0.31,0.73
22.54,-5.71,-6.43,-5.72,-6.43,6.00,6.04,3.60,0.29,0.28,0.72
22.76,-5.73,-6.44,-5.74,-6.45,6.00,6.05,3.70,0.27,0.26,0.71
22.99,-5.75,-6.46,-5.73,-6.44,6.00,6.05,3.81,0.25,0.27,0.71
23.22,-5.69,-6.40,-5.69,-6.40,6.00,6.05,3.91,0.31,0.31,0.71
23.45,-5.62,-6.32,-5.62,-6.32,6.00,6.05,4.02,0.38,0.38,0.70
23.69,-5.55,-6.25,-5.55,-6.24,6.00,6.05,4.13,0.45,0.45,0.70
23.92,-5.48,-6.18,-5.50,-6.19,6.00,6.04,4.25,0.52,0.50,0.70
24.16,-5.47,-6.17,-5.48,-6.18,6.00,6.04,4.36,0.53,0.52,0.70
24.40,-5.50,-6.20,-5.50,-6.19,6.00,6.03,4.48,0.50,0.51,0.69
24.65,-5.52,-6.22,-5.53,-6.22,6.00,6.02,4.59,0.48,0.48,0.69
24.89,-5.54,-6.23,-5.53,-6.22,6.00,6.01,4.71,0.46,0.47,0.69
25.14,-5.51,-6.20,-5.50,-6.19,6.00,6.00,4.83,0.49,0.50,0.69
25.39,-5.43,-6.11,-5.44,-6.12,5.99,5.99,4.96,0.56,0.56,0.68
25.65,-5.36,-6.04,-5.36,-6.04,6.00,5.97,5.08,0.63,0.64,0.68
25.91,-5.29,-5.97,-5.31,-5.99,6.00,5.96,5.20,0.71,0.69,0.68
26.16,-5.28,-5.96,-5.29,-5.97,6.00,5.94,5.32,0.72,0.71,0.68
26.43,-5.30,-5.98,-5.30,-5.99,6.00,5.93,5.45,0.69,0.69,0.68
26.69,-5.33,-6.01,-5.33,-6.01,5.98,5.91,5.57,0.65,0.65,0.68
26.96,-5.36,-6.04,-5.34,-6.02,5.97,5.89,5.68,0.61,0.63,0.68
27.23,-5.31,-5.99,-5.31,-5.99,5.95,5.87,5.80,0.63,0.63,0.68
27.50,-5.26,-5.94,-5.26,-5.94,5.92,5.86,5.92,0.66,0.66,0.68
27.77,-5.20,-5.88,-5.21,-5.88,5.90,5.84,6.03,0.70,0.70,0.68
28.05,-5.16,-5.84,-5.17,-5.85,5.89,5.82,6.13,0.72,0.71,0.68
28.33,-5.16,-5.84,-5.16,-5.83,5.87,5.80,6.23,0.71,0.71,0.68
28.62,-5.16,-5.84,-5.16,-5.84,5.86,5.78,6.33,0.70,0.70,0.67
28.90,-5.16,-5.85,-5.16,-5.84,5.85,5.76,6.42,0.69,0.69,0.68
29.19,-5.17,-5.85,-5.17,-5.85,5.85,5.74,6.50,0.68,0.68,0.68
29.48,-5.17,-5.85,-5.18,-5.87,5.84,5.72,6.58,0.67,0.66,0.68
29.78,-5.18,-5.87,-5.18,-5.87,5.82,5.71,6.65,0.64,0.64,0.69
30.08,-5.17,-5.86,-5.15,-5.84,5.80,5.69,6.71,0.63,0.65,0.69
30.38,-5.10,-5.79,-5.10,-5.79,5.77,5.67,6.76,0.67,0.67,0.69
30.68,-5.03,-5.72,-5.03,-5.72,5.74,5.65,6.80,0.71,0.71,0.69
30.99,-4.96,-5.65,-4.98,-5.67,5.71,5.64,6.83,0.75,0.73,0.69
31.30,-4.96,-5.65,-4.96,-5.64,5.68,5.62,6.85,0.72,0.72,0.69
31.61,-4.96,-5.65,-4.95,-5.64,5.65,5.60,6.87,0.69,0.70,0.68
31.93,-4.96,-5.64,-4.96,-5.64,5.64,5.59,6.87,0.67,0.67,0.68
32.24,-4.96,-5.63,-4.96,-5.64,5.62,5.57,6.87,0.66,0.66,0.67
32.57,-4.96,-5.63,-4.96,-5.63,5.62,5.56,6.85,0.66,0.66,0.67
32.89,-4.96,-5.63,-4.96,-5.63,5.62,5.55,6.83,0.66,0.66,0.67
33.22,-4.96,-5.62,-4.96,-5.62,5.62,5.53,6.80,0.66,0.66,0.66
33.55,-4.96,-5.62,-4.96,-5.61,5.62,5.52,6.76,0.66,0.66,0.66
33.89,-4.96,-5.61,-4.96,-5.61,5.61,5.51,6.72,0.65,0.65,0.64
34.23,-4.96,-5.60,-4.96,-5.61,5.60,5.50,6.67,0.64,0.64,0.64
34.57,-4.96,-5.60,-4.96,-5.60,5.59,5.49,6.62,0.63,0.63,0.64
34.92,-4.96,-5.60,-4.95,-5.59,5.57,5.48,6.56,0.61,0.62,0.64
35.27,-4.93,-5.57,-4.93,-5.57,5.56,5.47,6.50,0.62,0.63,0.64
35.62,-4.90,-5.54,-4.90,-5.53,5.54,5.47,6.43,0.64,0.64,0.63
35.97,-4.86,-5.49,-4.87,-5.51,5.52,5.46,6.37,0.66,0.65,0.63
36.33,-4.86,-5.49,-4.86,-5.49,5.51,5.45,6.30,0.65,0.65,0.63
36.70,-4.86,-5.49,-4.86,-5.48,5.50,5.45,6.23,0.63,0.64,0.63
37.06,-4.86,-5.49,-4.86,-5.49,5.49,5.44,6.16,0.63,0.63,0.63
37.43,-4.86,-5.49,-4.86,-5.49,5.48,5.44,6.09,0.62,0.62,0.62
37.81,-4.86,-5.49,-4.86,-5.49,5.48,5.44,6.02,0.62,0.62,0.63
38.19,-4.86,-5.49,-4.86,-5.49,5.49,5.44,5.95,0.63,0.63,0.63
38.57,-4.86,-5.49,-4.86,-5.49,5.49,5.43,5.89,0.63,0.63,0.63
38.95,-4.86,-5.49,-4.86,-5.49,5.49,5.43,5.83,0.63,0.63,0.63
39.34,-4.86,-5.49,-4.86,-5.49,5.49,5.43,5.77,0.63,0.63,0.63
39.74,-4.86,-5.49,-4.86,-5.49,5.49,5.43,5.71,0.63,0.63,0.63
40.14,-4.86,-5.48,-4.86,-5.48,5.48,5.44,5.65,0.62,0.62,0.62
40.54,-4.86,-5.48,-4.86,-5.48,5.48,5.44,5.60,0.62,0.62,0.62
40.94,-4.86,-5.48,-4.86,-5.48,5.48,5.44,5.55,0.61,0.61,0.62
41.35,-4.86,-5.47,-4.86,-5.47,5.47,5.44,5.51,0.61,0.61,0.61
41.76,-4.86,-5.46,-4.86,-5.46,5.47,5.45,5.46,0.60,0.60,0.60
42.18,-4.86,-5.46,-4.86,-5.46,5.46,5.45,5.43,0.60,0.60,0.60
42.60,-4.86,-5.45,-4.86,-5.45,5.45,5.45,5.39,0.59,0.59,0.59
43.03,-4.86,-5.45,-4.86,-5.45,5.45,5.46,5.36,0.58,0.58,0.59
43.46,-4.86,-5.44,-4.86,-5.44,5.44,5.46,5.34,0.58,0.58,0.58
43.90,-4.86,-5.43,-4.86,-5.43,5.43,5.47,5.32,0.57,0.57,0.57
44.33,-4.86,-5.42,-4.86,-5.43,5.43,5.47,5.30,0.57,0.57,0.56
44.78,-4.86,-5.42,-4.86,-5.42,5.42,5.48,5.28,0.56,0.56,0.56
45.23,-4.86,-5.41,-4.86,-5.42,5.41,5.48,5.27,0.55,0.55,0.55
45.68,-4.86,-5.41,-4.86,-5.41,5.41,5.49,5.27,0.55,0.55,0.55
46.13,-4.86,-5.41,-4.86,-5.41,5.40,5.49,5.27,0.54,0.54,0.55
46.60,-4.86,-5.41,-4.86,-5.41,5.40,5.50,5.27,0.54,0.54,0.55
47.06,-4.86,-5.41,-4.85,-5.41,5.41,5.51,5.28,0.55,0.56,0.55
47.53,-4.85,-5.41,-4.85,-5.40,5.42,5.51,5.29,0.57,0.57,0.55
48.01,-4.84,-5.40,-4.86,-5.42,5.44,5.52,5.30,0.60,0.58,0.56
48.49,-4.88,-5.44,-4.88,-5.44,5.46,5.52,5.32,0.57,0.58,0.56
48.97,-4.92,-5.49,-4.91,-5.48,5.48,5.52,5.34,0.55,0.56,0.57
49.46,-4.94,-5.51,-4.94,-5.51,5.50,5.53,5.36,0.56,0.55,0.57
49.96,-4.96,-5.54,-4.96,-5.54,5.52,5.53,5.39,0.56,0.56,0.58
50.46,-4.96,-5.54,-4.96,-5.55,5.54,5.54,5.41,0.57,0.57,0.58
50.96,-4.96,-5.56,-4.96,-5.56,5.55,5.54,5.44,0.59,0.59,0.60
51.47,-4.96,-5.56,-4.96,-5.56,5.56,5.54,5.48,0.60,0.60,0.60
51.99,-4.96,-5.56,-4.96,-5.56,5.57,5.54,5.51,0.60,0.60,0.60
52.51,-4.96,-5.56,-4.96,-5.56,5.57,5.54,5.55,0.61,0.61,0.60
53.03,-4.96,-5.56,-4.96,-5.56,5.57,5.54,5.58,0.61,0.61,0.60
53.56,-4.96,-5.56,-4.96,-5.57,5.57,5.54,5.62,0.61,0.61,0.60
54.10,-4.96,-5.57,-4.96,-5.57,5.57,5.54,5.66,0.61,0.61,0.61
54.64,-4.96,-5.57,-4.96,-5.57,5.57,5.53,5.69,0.61,0.61,0.61
55.18,-4.96,-5.57,-4.96,-5.57,5.57,5.53,5.73,0.61,0.61,0.61
55.74,-4.96,-5.56,-4.96,-5.57,5.57,5.53,5.76,0.60,0.60,0.60
56.29,-4.96,-5.56,-4.96,-5.56,5.56,5.52,5.79,0.60,0.60,0.60
56.86,-4.96,-5.56,-4.96,-5.55,5.56,5.51,5.82,0.59,0.59,0.60
57.42,-4.96,-5.55,-4.96,-5.55,5.55,5.50,5.84,0.59,0.59,0.59
58.00,-4.96,-5.53,-4.96,-5.54,5.54,5.49,5.86,0.58,0.58,0.57
58.58,-4.96,-5.52,-4.96,-5.52,5.52,5.48,5.88,0.56,0.56,0.56
59.16,-4.96,-5.51,-4.96,-5.51,5.51,5.47,5.89,0.55,0.55,0.55
59.76,-4.96,-5.49,-4.96,-5.49,5.49,5.46,5.90,0.53,0.53,0.53
60.35,-4.96,-5.47,-4.96,-5.47,5.47,5.44,5.90,0.51,0.51,0.51
60.96,-4.96,-5.45,-4.96,-5.45,5.45,5.43,5.89,0.48,0.48,0.48
61.57,-4.96,-5.42,-4.96,-5.42,5.41,5.41,5.88,0.45,0.45,0.46
62.18,-4.96,-5.39,-4.96,-5.39,5.38,5.39,5.86,0.41,0.41,0.42
62.80,-4.96,-5.35,-4.96,-5.35,5.33,5.37,5.84,0.37,0.37,0.39
63.43,-4.96,-5.30,-4.96,-5.31,5.29,5.35,5.81,0.33,0.33,0.34
64.07,-4.96,-5.27,-4.96,-5.26,5.26,5.33,5.77,0.30,0.30,0.30
64.71,-4.95,-5.21,-4.95,-5.21,5.23,5.30,5.73,0.28,0.28,0.26
65.35,-4.95,-5.17,-4.95,-5.17,5.21,5.28,5.68,0.26,0.26,0.22
66.01,-4.96,-5.14,-4.98,-5.16,5.20,5.25,5.63,0.24,0.22,0.18
66.67,-5.03,-5.17,-5.03,-5.17,5.19,5.22,5.57,0.16,0.17,0.14
67.33,-5.09,-5.20,-5.09,-5.20,5.19,5.19,5.50,0.10,0.10,0.11
68.01,-5.15,-5.22,-5.15,-5.22,5.18,5.16,5.43,0.03,0.04,0.07
68.69,-5.18,-5.22,-5.17,-5.22,5.17,5.13,5.36,-0.01,0.00,0.04
69.37,-5.18,-5.19,-5.18,-5.19,5.16,5.10,5.28,-0.02,-0.02,0.01
70.07,-5.16,-5.14,-5.17,-5.15,5.14,5.06,5.20,-0.02,-0.04,-0.02
70.77,-5.16,-5.11,-5.16,-5.11,5.11,5.03,5.11,-0.05,-0.05,-0.05
71.48,-5.16,-5.08,-5.14,-5.06,5.09,4.99,5.03,-0.07,-0.05,-0.08
72.19,-5.14,-5.03,-5.14,-5.03,5.07,4.95,4.94,-0.08,-0.08,-0.11
72.91,-5.12,-4.98,-5.16,-5.02,5.05,4.91,4.85,-0.07,-0.11,-0.15
73.64,-5.21,-5.03,-5.19,-5.01,5.03,4.87,4.76,-0.18,-0.15,-0.18
74.38,-5.26,-5.05,-5.25,-5.04,5.03,4.83,4.67,-0.24,-0.23,-0.22
75.12,-5.28,-5.03,-5.32,-5.06,5.02,4.79,4.58,-0.26,-0.29,-0.25
75.87,-5.38,-5.08,-5.34,-5.05,5.02,4.74,4.49,-0.36,-0.32,-0.30
76.63,-5.36,-5.03,-5.35,-5.02,5.02,4.70,4.40,-0.34,-0.34,-0.34
77.40,-5.34,-4.96,-5.38,-5.00,5.01,4.65,4.31,-0.33,-0.37,-0.38
78.17,-5.38,-4.96,-5.39,-4.97,4.99,4.61,4.22,-0.39,-0.41,-0.42
78.95,-5.46,-4.99,-5.43,-4.96,4.96,4.56,4.13,-0.50,-0.47,-0.47
79.74,-5.46,-4.95,-5.46,-4.95,4.93,4.51,4.05,-0.53,-0.53,-0.51
80.54,-5.46,-4.90,-5.47,-4.91,4.90,4.46,3.96,-0.57,-0.57,-0.56
81.35,-5.46,-4.86,-5.46,-4.86,4.86,4.41,3.88,-0.60,-0.60,-0.60
82.16,-5.46,-4.82,-5.46,-4.81,4.83,4.36,3.80,-0.64,-0.63,-0.64
82.98,-5.46,-4.78,-5.46,-4.77,4.79,4.31,3.73,-0.67,-0.67,-0.68
83.81,-5.44,-4.72,-5.46,-4.74,4.75,4.26,3.65,-0.69,-0.72,-0.73
84.65,-5.48,-4.72,-5.46,-4.70,4.71,4.20,3.58,-0.77,-0.76,-0.76
85.50,-5.47,-4.67,-5.46,-4.66,4.67,4.15,3.51,-0.81,-0.80,-0.80
86.35,-5.44,-4.60,-5.46,-4.61,4.62,4.09,3.44,-0.82,-0.84,-0.85
87.22,-5.45,-4.56,-5.46,-4.57,4.57,4.04,3.38,-0.88,-0.88,-0.89
88.09,-5.46,-4.53,-5.46,-4.53,4.52,3.98,3.31,-0.94,-0.94,-0.94
88.97,-5.46,-4.49,-5.45,-4.47,4.45,3.93,3.25,-1.01,-0.99,-0.97
89.86,-5.40,-4.39,-5.41,-4.39,4.37,3.87,3.20,-1.03,-1.03,-1.02
90.76,-5.34,-4.28,-5.34,-4.28,4.28,3.81,3.14,-1.06,-1.07,-1.06
91.66,-5.27,-4.17,-5.28,-4.18,4.16,3.75,3.09,-1.11,-1.11,-1.10
92.58,-5.20,-4.07,-5.22,-4.07,4.04,3.69,3.04,-1.16,-1.17,-1.14
93.51,-5.15,-3.97,-5.12,-3.94,3.92,3.63,2.99,-1.23,-1.20,-1.18
94.44,-5.03,-3.81,-5.01,-3.79,3.81,3.56,2.94,-1.23,-1.21,-1.22
95.39,-4.87,-3.61,-4.90,-3.64,3.69,3.50,2.90,-1.18,-1.20,-1.26
96.34,-4.79,-3.49,-4.80,-3.50,3.58,3.43,2.86,-1.21,-1.22,-1.30
97.30,-4.76,-3.43,-4.77,-3.44,3.47,3.37,2.82,-1.30,-1.31,-1.34
98.28,-4.77,-3.39,-4.79,-3.40,3.36,3.30,2.78,-1.41,-1.43,-1.38
99.26,-4.80,-3.38,-4.75,-3.33,3.26,3.23,2.75,-1.54,-1.49,-1.42
100.25,-4.70,-3.24,-4.67,-3.21,3.17,3.15,2.71,-1.53,-1.50,-1.46
101.25,-4.51,-3.01,-4.58,-3.07,3.09,3.07,2.68,-1.42,-1.49,-1.50
102.27,-4.49,-2.94,-4.49,-2.94,3.00,2.99,2.65,-1.49,-1.49,-1.55
103.29,-4.47,-2.87,-4.47,-2.87,2.91,2.91,2.62,-1.56,-1.56,-1.60
104.32,-4.46,-2.81,-4.46,-2.82,2.80,2.82,2.60,-1.66,-1.67,-1.65
105.37,-4.45,-2.76,-4.42,-2.73,2.68,2.72,2.57,-1.77,-1.74,-1.69
106.42,-4.36,-2.62,-4.37,-2.63,2.57,2.62,2.54,-1.79,-1.79,-1.74
107.48,-4.27,-2.48,-4.29,-2.50,2.47,2.52,2.52,-1.80,-1.82,-1.79
108.56,-4.21,-2.37,-4.19,-2.35,2.37,2.40,2.50,-1.84,-1.82,-1.84
109.64,-4.11,-2.23,-4.11,-2.22,2.27,2.29,2.48,-1.84,-1.84,-1.89
110.74,-4.02,-2.10,-4.05,-2.12,2.17,2.17,2.45,-1.85,-1.87,-1.92
111.85,-4.01,-2.05,-4.02,-2.06,2.08,2.06,2.43,-1.93,-1.94,-1.96
112.97,-4.03,-2.03,-4.02,-2.01,2.00,1.95,2.41,-2.03,-2.01,-2.00
114.10,-4.03,-1.99,-4.01,-1.97,1.94,1.86,2.39,-2.09,-2.07,-2.04
115.24,-3.97,-1.90,-3.99,-1.91,1.89,1.78,2.37,-2.09,-2.10,-2.07
116.39,-3.95,-1.84,-3.95,-1.85,1.84,1.73,2.35,-2.11,-2.11,-2.11
117.55,-3.93,-1.81,-3.93,-1.80,1.81,1.70,2.33,-2.12,-2.12,-2.13
118.73,-3.92,-1.77,-3.92,-1.77,1.78,1.69,2.31,-2.14,-2.14,-2.15
119.92,-3.91,-1.74,-3.91,-1.74,1.76,1.70,2.28,-2.15,-2.15,-2.17
121.12,-3.91,-1.73,-3.91,-1.73,1.75,1.71,2.26,-2.16,-2.16,-2.19
122.33,-3.93,-1.73,-3.93,-1.73,1.76,1.74,2.24,-2.18,-2.18,-2.20
123.55,-3.97,-1.75,-3.98,-1.76,1.76,1.76,2.21,-2.21,-2.22,-2.22
124.79,-4.02,-1.79,-4.03,-1.79,1.77,1.78,2.19,-2.25,-2.25,-2.23
126.03,-4.08,-1.83,-4.06,-1.81,1.78,1.80,2.16,-2.30,-2.28,-2.25
127.29,-4.07,-1.81,-4.07,-1.81,1.78,1.82,2.14,-2.29,-2.30,-2.26
128.57,-4.06,-1.78,-4.07,-1.79,1.78,1.83,2.11,-2.29,-2.30,-2.28
129.85,-4.06,-1.77,-4.06,-1.77,1.77,1.83,2.08,-2.29,-2.29,-2.29
131.15,-4.05,-1.75,-4.05,-1.75,1.75,1.83,2.05,-2.30,-2.30,-2.30
132.46,-4.05,-1.73,-4.04,-1.72,1.74,1.82,2.02,-2.31,-2.31,-2.33
133.79,-4.04,-1.70,-4.04,-1.70,1.73,1.82,1.99,-2.32,-2.32,-2.34
135.12,-4.04,-1.68,-4.06,-1.70,1.72,1.81,1.96,-2.32,-2.34,-2.36
136.48,-4.09,-1.72,-4.09,-1.71,1.72,1.79,1.93,-2.38,-2.37,-2.37
137.84,-4.13,-1.74,-4.11,-1.72,1.72,1.77,1.89,-2.41,-2.39,-2.39
139.22,-4.13,-1.72,-4.14,-1.73,1.73,1.76,1.86,-2.41,-2.41,-2.41
140.61,-4.13,-1.70,-4.16,-1.73,1.73,1.74,1.83,-2.40,-2.43,-2.43
142.02,-4.20,-1.75,-4.19,-1.73,1.73,1.72,1.80,-2.47,-2.45,-2.45
143.44,-4.22,-1.75,-4.21,-1.74,1.73,1.69,1.76,-2.49,-2.49,-2.48
144.87,-4.23,-1.73,-4.23,-1.73,1.72,1.67,1.73,-2.52,-2.52,-2.50
146.32,-4.23,-1.70,-4.23,-1.70,1.69,1.65,1.69,-2.54,-2.54,-2.53
147.78,-4.23,-1.66,-4.23,-1.67,1.66,1.62,1.66,-2.57,-2.57,-2.57
149.26,-4.23,-1.63,-4.23,-1.63,1.63,1.60,1.63,-2.60,-2.60,-2.60
150.75,-4.23,-1.58,-4.23,-1.58,1.58,1.57,1.60,-2.65,-2.65,-2.65
152.26,-4.23,-1.53,-4.23,-1.53,1.53,1.55,1.56,-2.71,-2.71,-2.70
153.78,-4.23,-1.48,-4.23,-1.47,1.47,1.52,1.53,-2.76,-2.76,-2.76
155.32,-4.23,-1.41,-4.23,-1.42,1.42,1.50,1.50,-2.82,-2.82,-2.82
156.88,-4.23,-1.36,-4.23,-1.36,1.37,1.47,1.47,-2.87,-2.87,-2.87
158.44,-4.23,-1.30,-4.23,-1.30,1.32,1.44,1.44,-2.91,-2.91,-2.93
160.03,-4.23,-1.25,-4.23,-1.24,1.27,1.42,1.41,-2.96,-2.96,-2.98
161.63,-4.23,-1.21,-4.25,-1.22,1.23,1.39,1.38,-3.00,-3.02,-3.03
163.24,-4.26,-1.19,-4.27,-1.20,1.18,1.37,1.35,-3.08,-3.09,-3.08
164.88,-4.32,-1.22,-4.28,-1.17,1.14,1.34,1.33,-3.18,-3.14,-3.11
166.53,-4.26,-1.13,-4.26,-1.12,1.10,1.32,1.30,-3.16,-3.16,-3.13
168.19,-4.20,-1.05,-4.21,-1.06,1.06,1.29,1.27,-3.14,-3.15,-3.15
169.87,-4.15,-0.99,-4.18,-1.01,1.03,1.27,1.25,-3.13,-3.15,-3.16
171.57,-4.16,-0.99,-4.15,-0.98,1.00,1.25,1.22,-3.17,-3.15,-3.17
173.29,-4.15,-0.99,-4.12,-0.96,0.97,1.22,1.20,-3.18,-3.15,-3.17
175.02,-4.07,-0.92,-4.10,-0.94,0.96,1.20,1.18,-3.11,-3.14,-3.15
176.77,-4.07,-0.93,-4.07,-0.93,0.95,1.17,1.16,-3.12,-3.12,-3.14
178.54,-4.07,-0.95,-4.06,-0.94,0.95,1.15,1.14,-3.12,-3.11,-3.12
180.32,-4.07,-0.97,-4.07,-0.97,0.96,1.13,1.12,-3.11,-3.11,-3.10
182.13,-4.07,-0.99,-4.07,-0.99,0.97,1.11,1.10,-3.10,-3.10,-3.08
183.95,-4.06,-1.00,-4.06,-1.00,0.98,1.08,1.08,-3.08,-3.08,-3.06
185.79,-4.04,-0.99,-4.05,-0.99,0.98,1.06,1.06,-3.06,-3.06,-3.05
187.65,-4.03,-0.99,-4.03,-0.98,0.98,1.04,1.05,-3.05,-3.05,-3.05
189.52,-4.01,-0.97,-4.01,-0.97,0.98,1.02,1.03,-3.03,-3.04,-3.04
191.42,-4.00,-0.96,-4.00,-0.97,0.97,1.00,1.02,-3.03,-3.03,-3.04
193.33,-3.99,-0.96,-3.99,-0.95,0.95,0.98,1.00,-3.04,-3.04,-3.03
195.27,-3.97,-0.94,-3.97,-0.94,0.93,0.96,0.99,-3.04,-3.04,-3.04
197.22,-3.96,-0.92,-3.96,-0.92,0.92,0.94,0.98,-3.04,-3.04,-3.05
199.19,-3.95,-0.90,-3.95,-0.90,0.90,0.92,0.96,-3.05,-3.05,-3.05
201.18,-3.94,-0.88,-3.94,-0.88,0.89,0.90,0.95,-3.06,-3.05,-3.06
203.19,-3.93,-0.86,-3.93,-0.87,0.87,0.89,0.94,-3.06,-3.06,-3.07
205.23,-3.93,-0.85,-3.93,-0.85,0.86,0.87,0.93,-3.07,-3.07,-3.08
207.28,-3.93,-0.84,-3.93,-0.84,0.84,0.85,0.92,-3.09,-3.09,-3.09
209.35,-3.93,-0.83,-3.93,-0.84,0.83,0.83,0.91,-3.10,-3.10,-3.10
211.44,-3.94,-0.83,-3.94,-0.82,0.82,0.82,0.90,-3.12,-3.11,-3.12
213.56,-3.94,-0.82,-3.94,-0.82,0.81,0.80,0.89,-3.13,-3.13,-3.12
215.69,-3.94,-0.80,-3.95,-0.81,0.80,0.79,0.88,-3.14,-3.14,-3.14
217.85,-3.95,-0.80,-3.95,-0.80,0.80,0.77,0.87,-3.16,-3.15,-3.15
220.03,-3.95,-0.78,-3.95,-0.79,0.79,0.76,0.86,-3.16,-3.16,-3.17
222.23,-3.95,-0.78,-3.95,-0.78,0.78,0.74,0.85,-3.17,-3.17,-3.18
224.45,-3.95,-0.77,-3.95,-0.77,0.77,0.73,0.84,-3.18,-3.18,-3.18
226.70,-3.95,-0.76,-3.95,-0.76,0.76,0.72,0.84,-3.19,-3.19,-3.19
228.96,-3.95,-0.76,-3.95,-0.75,0.75,0.70,0.83,-3.20,-3.20,-3.20
231.25,-3.94,-0.75,-3.94,-0.75,0.75,0.69,0.82,-3.20,-3.20,-3.19
233.57,-3.93,-0.73,-3.93,-0.73,0.74,0.68,0.81,-3.19,-3.19,-3.20
235.90,-3.92,-0.73,-3.92,-0.72,0.73,0.67,0.80,-3.19,-3.19,-3.19
238.26,-3.90,-0.71,-3.91,-0.72,0.72,0.66,0.79,-3.18,-3.19,-3.19
240.64,-3.89,-0.72,-3.89,-0.71,0.71,0.65,0.78,-3.18,-3.18,-3.18
243.05,-3.88,-0.71,-3.88,-0.71,0.70,0.64,0.76,-3.18,-3.18,-3.17
245.48,-3.86,-0.69,-3.86,-0.69,0.69,0.63,0.75,-3.18,-3.17,-3.17
247.93,-3.83,-0.67,-3.83,-0.67,0.67,0.63,0.74,-3.16,-3.16,-3.16
250.41,-3.81,-0.66,-3.81,-0.66,0.66,0.62,0.73,-3.15,-3.15,-3.16
252.92,-3.79,-0.64,-3.79,-0.64,0.64,0.61,0.71,-3.15,-3.15,-3.15
255.45,-3.78,-0.63,-3.78,-0.63,0.63,0.61,0.70,-3.15,-3.15,-3.16
258.00,-3.77,-0.61,-3.77,-0.61,0.62,0.60,0.69,-3.15,-3.15,-3.16
260.58,-3.77,-0.61,-3.77,-0.60,0.61,0.60,0.67,-3.16,-3.16,-3.16
263.19,-3.76,-0.59,-3.77,-0.60,0.60,0.59,0.65,-3.16,-3.17,-3.17
265.82,-3.77,-0.60,-3.77,-0.60,0.60,0.59,0.64,-3.17,-3.17,-3.17
268.48,-3.77,-0.60,-3.77,-0.60,0.60,0.59,0.62,-3.18,-3.17,-3.18
271.16,-3.77,-0.59,-3.78,-0.60,0.59,0.59,0.60,-3.18,-3.18,-3.18
273.87,-3.78,-0.60,-3.78,-0.60,0.59,0.59,0.59,-3.19,-3.19,-3.18
276.61,-3.78,-0.60,-3.78,-0.59,0.59,0.59,0.57,-3.19,-3.19,-3.19
279.38,-3.78,-0.59,-3.78,-0.60,0.59,0.59,0.55,-3.19,-3.19,-3.19
282.17,-3.77,-0.59,-3.78,-0.59,0.60,0.59,0.53,-3.18,-3.18,-3.18
284.99,-3.77,-0.60,-3.76,-0.58,0.60,0.59,0.51,-3.17,-3.16,-3.17
287.84,-3.76,-0.58,-3.76,-0.59,0.61,0.59,0.49,-3.15,-3.15,-3.18
290.72,-3.75,-0.58,-3.78,-0.61,0.62,0.59,0.47,-3.13,-3.16,-3.17
293.63,-3.82,-0.66,-3.80,-0.64,0.63,0.59,0.46,-3.19,-3.17,-3.16
296.57,-3.83,-0.68,-3.82,-0.66,0.64,0.60,0.44,-3.19,-3.18,-3.15
299.53,-3.81,-0.65,-3.82,-0.67,0.65,0.60,0.42,-3.17,-3.18,-3.16
302.53,-3.80,-0.65,-3.80,-0.65,0.65,0.60,0.40,-3.15,-3.15,-3.15
305.55,-3.79,-0.64,-3.79,-0.64,0.65,0.60,0.38,-3.14,-3.14,-3.15
308.61,-3.78,-0.63,-3.78,-0.63,0.64,0.60,0.36,-3.14,-3.14,-3.15
311.69,-3.78,-0.63,-3.78,-0.62,0.62,0.60,0.34,-3.16,-3.16,-3.16
314.81,-3.77,-0.60,-3.78,-0.62,0.60,0.60,0.32,-3.17,-3.18,-3.17
317.96,-3.77,-0.60,-3.77,-0.60,0.57,0.60,0.30,-3.20,-3.19,-3.17
321.14,-3.76,-0.58,-3.74,-0.56,0.55,0.59,0.28,-3.21,-3.19,-3.18
324.35,-3.69,-0.51,-3.71,-0.52,0.53,0.58,0.26,-3.16,-3.18,-3.18
327.59,-3.67,-0.48,-3.68,-0.48,0.51,0.58,0.24,-3.17,-3.17,-3.19
330.87,-3.67,-0.47,-3.67,-0.46,0.48,0.57,0.22,-3.19,-3.18,-3.21
334.18,-3.67,-0.45,-3.67,-0.46,0.47,0.55,0.20,-3.21,-3.21,-3.22
337.52,-3.68,-0.45,-3.68,-0.45,0.45,0.54,0.18,-3.23,-3.23,-3.23
340.90,-3.68,-0.45,-3.68,-0.45,0.44,0.52,0.16,-3.24,-3.24,-3.23
344.30,-3.68,-0.44,-3.68,-0.44,0.43,0.50,0.14,-3.25,-3.25,-3.24
347.75,-3.68,-0.42,-3.68,-0.42,0.42,0.47,0.13,-3.26,-3.26,-3.26
351.23,-3.68,-0.41,-3.68,-0.40,0.40,0.45,0.11,-3.28,-3.28,-3.27
354.74,-3.67,-0.39,-3.68,-0.39,0.38,0.42,0.09,-3.29,-3.30,-3.29
358.28,-3.67,-0.37,-3.67,-0.37,0.35,0.39,0.07,-3.32,-3.32,-3.30
361.87,-3.66,-0.35,-3.64,-0.33,0.32,0.36,0.05,-3.35,-3.32,-3.31
365.49,-3.59,-0.26,-3.61,-0.28,0.28,0.32,0.03,-3.31,-3.32,-3.33
369.14,-3.56,-0.22,-3.57,-0.23,0.25,0.29,0.01,-3.31,-3.32,-3.34
372.83,-3.54,-0.19,-3.54,-0.19,0.22,0.25,-0.00,-3.32,-3.32,-3.35
376.56,-3.53,-0.17,-3.53,-0.17,0.18,0.21,-0.02,-3.35,-3.35,-3.36
380.33,-3.53,-0.16,-3.53,-0.16,0.15,0.17,-0.04,-3.38,-3.38,-3.37
384.13,-3.52,-0.14,-3.52,-0.14,0.12,0.13,-0.06,-3.40,-3.41,-3.38
387.97,-3.51,-0.12,-3.50,-0.10,0.09,0.09,-0.08,-3.43,-3.41,-3.40
391.85,-3.47,-0.07,-3.46,-0.06,0.05,0.05,-0.10,-3.42,-3.41,-3.41
395.77,-3.41,0.01,-3.44,-0.02,0.02,0.01,-0.11,-3.39,-3.41,-3.42
399.73,-3.40,0.03,-3.41,0.02,-0.01,-0.04,-0.13,-3.41,-3.42,-3.43
403.72,-3.42,0.02,-3.38,0.06,-0.05,-0.08,-0.15,-3.47,-3.43,-3.44
407.76,-3.35,0.11,-3.36,0.09,-0.09,-0.12,-0.17,-3.44,-3.45,-3.46
411.84,-3.32,0.15,-3.34,0.13,-0.12,-0.16,-0.19,-3.45,-3.46,-3.47
415.96,-3.32,0.16,-3.32,0.15,-0.16,-0.20,-0.21,-3.48,-3.48,-3.48
420.12,-3.32,0.16,-3.31,0.17,-0.19,-0.25,-0.23,-3.52,-3.51,-3.48
424.32,-3.30,0.19,-3.28,0.21,-0.22,-0.29,-0.25,-3.53,-3.50,-3.49
428.56,-3.21,0.28,-3.23,0.26,-0.25,-0.33,-0.27,-3.46,-3.48,-3.49
432.85,-3.17,0.31,-3.18,0.30,-0.28,-0.37,-0.29,-3.45,-3.46,-3.48
437.18,-3.15,0.32,-3.15,0.32,-0.30,-0.41,-0.31,-3.45,-3.44,-3.47
441.55,-3.13,0.32,-3.12,0.34,-0.32,-0.45,-0.33,-3.45,-3.44,-3.45
445.96,-3.08,0.35,-3.09,0.35,-0.35,-0.49,-0.35,-3.43,-3.44,-3.43
450.42,-3.03,0.37,-3.04,0.36,-0.39,-0.52,-0.37,-3.42,-3.43,-3.40
454.93,-2.99,0.37,-2.97,0.39,-0.42,-0.56,-0.39,-3.42,-3.40,-3.36
459.48,-2.90,0.42,-2.90,0.43,-0.47,-0.60,-0.41,-3.37,-3.36,-3.33
464.07,-2.77,0.52,-2.79,0.50,-0.52,-0.64,-0.44,-3.29,-3.31,-3.30
468.71,-2.70,0.55,-2.68,0.58,-0.57,-0.67,-0.46,-3.27,-3.24,-3.26
