frequency,raw,error,smoothed,error_smoothed,equalization,parametric_eq,fixed_band_eq,equalized_raw,equalized_smoothed,target
20.00,6.38,3.83,6.37,3.82,-3.84,-3.63,-1.33,2.54,2.53,2.55
20.20,6.38,3.83,6.38,3.83,-3.84,-3.62,-1.37,2.54,2.54,2.55
20.40,6.38,3.83,6.39,3.83,-3.83,-3.62,-1.41,2.55,2.55,2.55
20.61,6.38,3.82,6.38,3.83,-3.82,-3.61,-1.45,2.56,2.57,2.56
20.81,6.38,3.82,6.38,3.82,-3.80,-3.60,-1.49,2.58,2.58,2.56
21.02,6.38,3.82,6.37,3.80,-3.78,-3.60,-1.54,2.60,2.59,2.56
21.23,6.33,3.77,6.33,3.77,-3.75,-3.59,-1.58,2.58,2.58,2.56
21.44,6.28,3.71,6.28,3.72,-3.71,-3.58,-1.63,2.57,2.57,2.57
21.66,6.23,3.66,6.23,3.66,-3.67,-3.57,-1.68,2.57,2.56,2.57
21.87,6.18,3.61,6.18,3.61,-3.61,-3.56,-1.73,2.57,2.57,2.57
22.09,6.13,3.56,6.13,3.56,-3.56,-3.55,-1.78,2.57,2.57,2.57
22.31,6.08,3.50,6.08,3.51,-3.50,-3.54,-1.83,2.58,2.58,2.58
22.54,6.03,3.46,6.03,3.45,-3.46,-3.52,-1.89,2.57,2.57,2.57
22.76,5.98,3.40,5.98,3.40,-3.42,-3.51,-1.94,2.56,2.55,2.58
22.99,5.93,3.35,5.94,3.37,-3.40,-3.50,-2.00,2.53,2.55,2.58
23.22,5.93,3.35,5.93,3.35,-3.37,-3.48,-2.06,2.56,2.55,2.58
23.45,5.93,3.35,5.93,3.35,-3.35,-3.47,-2.12,2.58,2.58,2.58
23.69,5.93,3.35,5.93,3.35,-3.33,-3.45,-2.18,2.60,2.60,2.58
23.92,5.93,3.34,5.92,3.34,-3.31,-3.43,-2.24,2.62,2.61,2.59
24.16,5.90,3.32,5.90,3.32,-3.29,-3.42,-2.30,2.61,2.61,2.58
24.40,5.85,3.27,5.85,3.27,-3.26,-3.40,-2.36,2.59,2.59,2.57
24.65,5.80,3.23,5.80,3.23,-3.24,-3.38,-2.43,2.56,2.56,2.57
24.89,5.75,3.19,5.76,3.19,-3.21,-3.36,-2.49,2.54,2.54,2.56
25.14,5.73,3.17,5.73,3.17,-3.19,-3.34,-2.56,2.54,2.54,2.56
25.39,5.72,3.17,5.72,3.16,-3.18,-3.32,-2.62,2.54,2.54,2.55
25.65,5.71,3.16,5.71,3.16,-3.17,-3.30,-2.69,2.54,2.54,2.55
25.91,5.70,3.16,5.70,3.16,-3.17,-3.28,-2.76,2.53,2.54,2.54
26.16,5.70,3.16,5.70,3.16,-3.17,-3.26,-2.82,2.53,2.53,2.54
26.43,5.70,3.17,5.70,3.17,-3.16,-3.24,-2.89,2.54,2.55,2.53
26.69,5.70,3.17,5.70,3.17,-3.14,-3.22,-2.95,2.56,2.56,2.53
26.96,5.70,3.17,5.69,3.16,-3.12,-3.20,-3.01,2.58,2.57,2.53
27.23,5.65,3.12,5.65,3.12,-3.09,-3.18,-3.07,2.56,2.55,2.53
27.50,5.58,3.06,5.58,3.06,-3.07,-3.15,-3.13,2.51,2.52,2.52
27.77,5.52,3.00,5.52,3.00,-3.04,-3.13,-3.19,2.48,2.48,2.52
28.05,5.47,2.94,5.48,2.96,-3.00,-3.11,-3.24,2.47,2.48,2.53
28.33,5.47,2.94,5.47,2.95,-2.97,-3.08,-3.30,2.50,2.50,2.53
28.62,5.47,2.95,5.47,2.94,-2.93,-3.06,-3.34,2.54,2.54,2.52
28.90,5.47,2.95,5.46,2.94,-2.90,-3.03,-3.39,2.57,2.56,2.52
29.19,5.43,2.91,5.42,2.90,-2.87,-3.01,-3.43,2.56,2.56,2.52
29.48,5.37,2.85,5.37,2.85,-2.85,-2.98,-3.46,2.52,2.52,2.52
29.78,5.31,2.79,5.31,2.79,-2.82,-2.96,-3.49,2.49,2.49,2.52
30.08,5.26,2.75,5.27,2.76,-2.79,-2.93,-3.52,2.47,2.48,2.51
30.38,5.25,2.74,5.26,2.75,-2.76,-2.91,-3.54,2.49,2.50,2.51
30.68,5.25,2.74,5.25,2.74,-2.72,-2.88,-3.56,2.53,2.53,2.51
30.99,5.24,2.74,5.22,2.72,-2.68,-2.86,-3.57,2.56,2.54,2.50
31.30,5.17,2.68,5.17,2.68,-2.65,-2.83,-3.57,2.52,2.52,2.50
31.61,5.10,2.62,5.10,2.61,-2.62,-2.80,-3.57,2.48,2.48,2.48
31.93,5.03,2.55,5.04,2.56,-2.60,-2.78,-3.56,2.43,2.45,2.48
32.24,5.01,2.54,5.01,2.54,-2.58,-2.75,-3.55,2.43,2.44,2.47
32.57,5.01,2.55,5.00,2.54,-2.56,-2.72,-3.53,2.45,2.45,2.46
32.89,5.01,2.55,5.01,2.55,-2.55,-2.70,-3.51,2.46,2.46,2.46
33.22,5.01,2.55,5.01,2.56,-2.55,-2.67,-3.48,2.46,2.46,2.46
33.55,5.01,2.56,5.01,2.56,-2.56,-2.64,-3.45,2.45,2.45,2.45
33.89,5.01,2.58,5.01,2.57,-2.57,-2.62,-3.41,2.44,2.44,2.43
34.23,5.01,2.58,5.01,2.58,-2.59,-2.59,-3.37,2.42,2.42,2.43
34.57,5.01,2.59,5.01,2.59,-2.60,-2.56,-3.32,2.41,2.41,2.42
34.92,5.01,2.59,5.01,2.59,-2.60,-2.54,-3.28,2.41,2.41,2.42
35.27,5.01,2.59,5.02,2.60,-2.59,-2.51,-3.23,2.42,2.43,2.42
35.62,5.01,2.60,5.01,2.60,-2.57,-2.48,-3.17,2.44,2.45,2.41
35.97,5.01,2.61,4.99,2.58,-2.54,-2.46,-3.12,2.47,2.45,2.40
36.33,4.94,2.54,4.93,2.53,-2.51,-2.43,-3.06,2.43,2.42,2.40
36.70,4.86,2.46,4.87,2.47,-2.48,-2.40,-3.00,2.38,2.38,2.40
37.06,4.79,2.39,4.81,2.41,-2.46,-2.38,-2.94,2.33,2.36,2.40
37.43,4.79,2.40,4.79,2.39,-2.43,-2.35,-2.88,2.36,2.35,2.39
37.81,4.79,2.39,4.78,2.39,-2.41,-2.32,-2.82,2.38,2.37,2.40
38.19,4.79,2.39,4.79,2.39,-2.40,-2.30,-2.76,2.39,2.39,2.40
38.57,4.79,2.39,4.79,2.39,-2.39,-2.27,-2.70,2.40,2.40,2.40
38.95,4.79,2.40,4.79,2.40,-2.37,-2.25,-2.64,2.42,2.42,2.39
39.34,4.78,2.39,4.79,2.40,-2.36,-2.22,-2.58,2.42,2.43,2.39
39.74,4.77,2.38,4.76,2.38,-2.34,-2.19,-2.52,2.43,2.43,2.39
40.14,4.73,2.35,4.71,2.33,-2.31,-2.17,-2.46,2.42,2.40,2.38
40.54,4.65,2.27,4.65,2.27,-2.29,-2.14,-2.40,2.36,2.36,2.38
40.94,4.57,2.19,4.59,2.22,-2.27,-2.12,-2.35,2.30,2.32,2.38
41.35,4.56,2.20,4.56,2.20,-2.25,-2.09,-2.29,2.31,2.31,2.36
41.76,4.56,2.21,4.55,2.20,-2.23,-2.07,-2.24,2.33,2.33,2.35
42.18,4.56,2.22,4.57,2.23,-2.21,-2.04,-2.19,2.35,2.36,2.34
42.60,4.56,2.24,4.56,2.24,-2.19,-2.02,-2.13,2.37,2.37,2.32
43.03,4.55,2.24,4.52,2.21,-2.18,-1.99,-2.08,2.37,2.34,2.31
43.46,4.45,2.17,4.45,2.16,-2.16,-1.97,-2.04,2.29,2.29,2.28
43.90,4.35,2.08,4.39,2.12,-2.13,-1.95,-1.99,2.22,2.25,2.27
44.33,4.33,2.08,4.34,2.09,-2.10,-1.92,-1.94,2.23,2.24,2.25
44.78,4.33,2.09,4.31,2.07,-2.06,-1.90,-1.90,2.27,2.25,2.24
45.23,4.28,2.06,4.25,2.03,-2.02,-1.87,-1.86,2.26,2.23,2.22
45.68,4.17,1.96,4.19,1.98,-1.99,-1.85,-1.81,2.18,2.20,2.21
46.13,4.10,1.90,4.13,1.92,-1.96,-1.83,-1.77,2.14,2.17,2.20
46.60,4.10,1.90,4.09,1.90,-1.92,-1.81,-1.74,2.18,2.17,2.20
47.06,4.10,1.91,4.09,1.90,-1.89,-1.78,-1.70,2.21,2.21,2.19
47.53,4.08,1.89,4.08,1.90,-1.85,-1.76,-1.66,2.23,2.24,2.18
48.01,4.06,1.87,4.03,1.85,-1.81,-1.74,-1.63,2.25,2.22,2.19
48.49,3.97,1.78,3.97,1.78,-1.78,-1.72,-1.60,2.19,2.19,2.19
48.97,3.88,1.68,3.91,1.71,-1.75,-1.69,-1.57,2.13,2.16,2.20
49.46,3.87,1.67,3.87,1.67,-1.72,-1.67,-1.54,2.15,2.15,2.20
49.96,3.87,1.67,3.87,1.66,-1.68,-1.65,-1.51,2.19,2.19,2.20
50.46,3.87,1.66,3.87,1.66,-1.64,-1.63,-1.48,2.23,2.23,2.21
50.96,3.87,1.65,3.86,1.64,-1.60,-1.61,-1.46,2.27,2.25,2.22
51.47,3.82,1.60,3.82,1.61,-1.58,-1.59,-1.43,2.24,2.24,2.22
51.99,3.77,1.56,3.77,1.56,-1.56,-1.57,-1.41,2.21,2.21,2.21
52.51,3.71,1.51,3.71,1.51,-1.54,-1.55,-1.38,2.17,2.17,2.20
53.03,3.65,1.46,3.67,1.48,-1.52,-1.53,-1.36,2.13,2.15,2.19
53.56,3.65,1.47,3.65,1.47,-1.49,-1.51,-1.34,2.16,2.16,2.18
54.10,3.65,1.48,3.65,1.49,-1.47,-1.49,-1.32,2.18,2.18,2.17
54.64,3.65,1.50,3.64,1.48,-1.44,-1.47,-1.30,2.21,2.19,2.15
55.18,3.61,1.48,3.58,1.45,-1.42,-1.45,-1.28,2.19,2.16,2.13
55.74,3.48,1.37,3.51,1.41,-1.39,-1.43,-1.26,2.09,2.13,2.11
56.29,3.42,1.34,3.45,1.37,-1.36,-1.41,-1.24,2.06,2.09,2.08
56.86,3.42,1.36,3.37,1.32,-1.34,-1.40,-1.23,2.08,2.04,2.06
57.42,3.32,1.29,3.30,1.28,-1.31,-1.38,-1.21,2.01,1.99,2.03
58.00,3.19,1.20,3.24,1.24,-1.28,-1.36,-1.19,1.91,1.95,1.99
58.58,3.19,1.23,3.19,1.23,-1.26,-1.34,-1.18,1.93,1.93,1.96
59.16,3.19,1.26,3.19,1.26,-1.24,-1.33,-1.16,1.95,1.95,1.93
59.76,3.19,1.30,3.16,1.27,-1.22,-1.31,-1.15,1.97,1.94,1.89
60.35,3.11,1.25,3.09,1.23,-1.20,-1.29,-1.13,1.91,1.89,1.86
60.96,2.97,1.15,3.03,1.20,-1.18,-1.27,-1.12,1.79,1.85,1.82
61.57,2.96,1.16,2.95,1.15,-1.16,-1.26,-1.10,1.80,1.78,1.80
62.18,2.92,1.16,2.87,1.11,-1.14,-1.24,-1.09,1.78,1.73,1.76
62.80,2.78,1.05,2.82,1.09,-1.12,-1.23,-1.07,1.66,1.70,1.73
63.43,2.74,1.05,2.76,1.07,-1.09,-1.21,-1.06,1.65,1.67,1.69
64.07,2.74,1.08,2.72,1.07,-1.06,-1.20,-1.04,1.68,1.66,1.66
64.71,2.70,1.08,2.68,1.06,-1.04,-1.18,-1.03,1.66,1.64,1.62
65.35,2.63,1.05,2.62,1.04,-1.01,-1.16,-1.01,1.62,1.62,1.58
66.01,2.51,0.96,2.56,1.01,-0.98,-1.15,-1.00,1.53,1.58,1.55
66.67,2.51,0.99,2.48,0.95,-0.95,-1.14,-0.99,1.56,1.52,1.52
67.33,2.43,0.93,2.40,0.90,-0.93,-1.12,-0.97,1.50,1.47,1.50
68.01,2.28,0.81,2.33,0.86,-0.90,-1.11,-0.96,1.38,1.43,1.47
68.69,2.28,0.83,2.28,0.82,-0.87,-1.09,-0.94,1.41,1.41,1.45
69.37,2.28,0.84,2.28,0.84,-0.83,-1.08,-0.93,1.45,1.45,1.44
70.07,2.28,0.85,2.29,0.86,-0.80,-1.07,-0.92,1.48,1.49,1.43
70.77,2.28,0.86,2.24,0.82,-0.77,-1.05,-0.90,1.51,1.47,1.42
71.48,2.17,0.77,2.17,0.76,-0.75,-1.04,-0.89,1.42,1.42,1.40
72.19,2.05,0.66,2.10,0.70,-0.73,-1.03,-0.88,1.32,1.37,1.39
72.91,2.05,0.66,2.05,0.66,-0.72,-1.01,-0.87,1.33,1.33,1.39
73.64,2.05,0.68,2.04,0.67,-0.71,-1.00,-0.86,1.34,1.33,1.37
74.38,2.05,0.70,2.05,0.69,-0.71,-0.99,-0.84,1.34,1.34,1.35
75.12,2.05,0.71,2.05,0.71,-0.72,-0.98,-0.83,1.33,1.33,1.34
75.87,2.05,0.74,2.05,0.73,-0.73,-0.97,-0.82,1.32,1.32,1.31
76.63,2.05,0.75,2.05,0.75,-0.74,-0.95,-0.81,1.31,1.31,1.30
77.40,2.05,0.77,2.07,0.79,-0.74,-0.94,-0.80,1.31,1.32,1.28
78.17,2.05,0.79,2.05,0.79,-0.74,-0.93,-0.79,1.31,1.31,1.26
78.95,2.05,0.82,1.99,0.76,-0.73,-0.92,-0.78,1.32,1.26,1.23
79.74,1.88,0.67,1.92,0.71,-0.72,-0.91,-0.77,1.16,1.20,1.21
80.54,1.82,0.63,1.85,0.66,-0.70,-0.90,-0.77,1.12,1.15,1.19
81.35,1.82,0.65,1.81,0.64,-0.69,-0.89,-0.76,1.13,1.11,1.17
82.16,1.82,0.67,1.81,0.67,-0.69,-0.88,-0.75,1.13,1.13,1.15
82.98,1.82,0.69,1.82,0.69,-0.68,-0.87,-0.75,1.14,1.14,1.13
83.81,1.82,0.71,1.82,0.71,-0.69,-0.86,-0.74,1.13,1.13,1.11
84.65,1.82,0.73,1.82,0.73,-0.71,-0.85,-0.73,1.11,1.11,1.09
85.50,1.82,0.74,1.82,0.74,-0.73,-0.84,-0.73,1.09,1.09,1.08
86.35,1.82,0.76,1.82,0.76,-0.76,-0.83,-0.73,1.06,1.06,1.06
87.22,1.82,0.77,1.82,0.77,-0.78,-0.82,-0.72,1.04,1.04,1.05
88.09,1.82,0.79,1.82,0.79,-0.80,-0.81,-0.72,1.02,1.02,1.03
88.97,1.82,0.80,1.82,0.80,-0.82,-0.80,-0.72,1.00,1.00,1.02
89.86,1.82,0.83,1.82,0.82,-0.82,-0.79,-0.71,1.00,1.00,0.99
90.76,1.82,0.84,1.83,0.85,-0.82,-0.78,-0.71,1.00,1.01,0.98
91.66,1.82,0.86,1.82,0.86,-0.82,-0.78,-0.71,1.00,1.01,0.96
92.58,1.82,0.88,1.78,0.84,-0.81,-0.77,-0.71,1.01,0.97,0.94
93.51,1.72,0.79,1.72,0.79,-0.80,-0.76,-0.71,0.92,0.92,0.93
94.44,1.62,0.71,1.65,0.74,-0.79,-0.75,-0.71,0.83,0.87,0.91
95.39,1.60,0.71,1.60,0.71,-0.76,-0.74,-0.71,0.84,0.84,0.89
96.34,1.60,0.73,1.60,0.72,-0.74,-0.74,-0.71,0.86,0.86,0.87
97.30,1.60,0.75,1.61,0.76,-0.71,-0.73,-0.71,0.89,0.90,0.85
98.28,1.60,0.76,1.57,0.74,-0.69,-0.72,-0.71,0.91,0.88,0.84
99.26,1.54,0.72,1.50,0.69,-0.68,-0.71,-0.72,0.86,0.82,0.82
100.25,1.37,0.58,1.43,0.64,-0.66,-0.71,-0.72,0.71,0.77,0.79
101.25,1.37,0.60,1.38,0.61,-0.64,-0.70,-0.72,0.73,0.73,0.77
102.27,1.37,0.63,1.36,0.62,-0.63,-0.69,-0.72,0.74,0.74,0.74
103.29,1.37,0.66,1.35,0.64,-0.61,-0.69,-0.73,0.76,0.74,0.71
104.32,1.32,0.65,1.29,0.62,-0.60,-0.68,-0.73,0.72,0.69,0.67
105.37,1.20,0.57,1.22,0.59,-0.61,-0.67,-0.73,0.59,0.61,0.63
106.42,1.14,0.55,1.16,0.57,-0.62,-0.67,-0.74,0.52,0.54,0.59
107.48,1.14,0.60,1.13,0.59,-0.63,-0.66,-0.74,0.51,0.50,0.54
108.56,1.14,0.66,1.15,0.66,-0.64,-0.66,-0.74,0.50,0.51,0.48
109.64,1.14,0.71,1.13,0.69,-0.65,-0.65,-0.75,0.49,0.48,0.43
110.74,1.13,0.74,1.07,0.68,-0.66,-0.64,-0.75,0.47,0.41,0.39
111.85,0.94,0.60,1.00,0.66,-0.66,-0.64,-0.75,0.28,0.34,0.34
112.97,0.91,0.63,0.94,0.66,-0.66,-0.63,-0.76,0.25,0.28,0.28
114.10,0.91,0.68,0.88,0.65,-0.66,-0.63,-0.76,0.25,0.23,0.23
115.24,0.88,0.70,0.84,0.66,-0.65,-0.62,-0.76,0.23,0.19,0.18
116.39,0.75,0.62,0.77,0.64,-0.65,-0.62,-0.76,0.10,0.13,0.13
117.55,0.68,0.60,0.71,0.62,-0.65,-0.61,-0.76,0.03,0.05,0.08
118.73,0.68,0.63,0.67,0.62,-0.67,-0.61,-0.76,0.01,-0.00,0.05
119.92,0.68,0.67,0.67,0.66,-0.69,-0.60,-0.76,-0.01,-0.01,0.01
121.12,0.68,0.71,0.68,0.71,-0.70,-0.60,-0.76,-0.02,-0.02,-0.03
122.33,0.68,0.74,0.69,0.75,-0.70,-0.60,-0.76,-0.02,-0.01,-0.06
123.55,0.68,0.77,0.68,0.77,-0.71,-0.59,-0.76,-0.03,-0.03,-0.09
124.79,0.68,0.80,0.63,0.75,-0.72,-0.59,-0.76,-0.04,-0.09,-0.12
126.03,0.53,0.68,0.56,0.71,-0.73,-0.58,-0.75,-0.20,-0.17,-0.15
127.29,0.48,0.65,0.50,0.67,-0.72,-0.58,-0.75,-0.24,-0.23,-0.17
128.57,0.46,0.67,0.45,0.66,-0.71,-0.58,-0.75,-0.25,-0.25,-0.21
129.85,0.46,0.69,0.47,0.70,-0.69,-0.57,-0.74,-0.23,-0.22,-0.23
131.15,0.46,0.71,0.46,0.72,-0.66,-0.57,-0.74,-0.20,-0.20,-0.25
132.46,0.46,0.75,0.41,0.69,-0.65,-0.56,-0.73,-0.19,-0.24,-0.29
133.79,0.32,0.64,0.34,0.65,-0.65,-0.56,-0.72,-0.33,-0.31,-0.32
135.12,0.23,0.57,0.27,0.61,-0.65,-0.56,-0.71,-0.42,-0.39,-0.34
136.48,0.23,0.60,0.22,0.59,-0.66,-0.55,-0.71,-0.43,-0.43,-0.37
137.84,0.23,0.63,0.22,0.62,-0.65,-0.55,-0.70,-0.42,-0.43,-0.40
139.22,0.23,0.65,0.23,0.66,-0.64,-0.55,-0.69,-0.41,-0.41,-0.42
140.61,0.23,0.68,0.25,0.70,-0.64,-0.55,-0.68,-0.41,-0.39,-0.45
142.02,0.23,0.71,0.22,0.70,-0.64,-0.54,-0.67,-0.41,-0.42,-0.48
143.44,0.22,0.73,0.16,0.67,-0.65,-0.54,-0.66,-0.43,-0.48,-0.51
144.87,0.04,0.57,0.09,0.63,-0.65,-0.54,-0.65,-0.61,-0.56,-0.53
146.32,0.01,0.58,0.02,0.59,-0.65,-0.54,-0.64,-0.64,-0.63,-0.57
147.78,0.00,0.61,-0.01,0.59,-0.65,-0.53,-0.63,-0.65,-0.66,-0.61
149.26,0.00,0.64,0.01,0.65,-0.64,-0.53,-0.62,-0.64,-0.63,-0.64
150.75,-0.00,0.69,-0.00,0.68,-0.65,-0.53,-0.61,-0.65,-0.65,-0.69
152.26,-0.01,0.72,-0.06,0.68,-0.66,-0.53,-0.60,-0.67,-0.72,-0.73
153.78,-0.15,0.64,-0.13,0.66,-0.67,-0.53,-0.59,-0.82,-0.80,-0.79
155.32,-0.22,0.62,-0.19,0.65,-0.67,-0.52,-0.58,-0.89,-0.86,-0.84
156.88,-0.23,0.66,-0.23,0.66,-0.66,-0.52,-0.57,-0.89,-0.88,-0.89
158.44,-0.23,0.70,-0.25,0.69,-0.63,-0.52,-0.56,-0.86,-0.87,-0.93
160.03,-0.29,0.68,-0.32,0.66,-0.58,-0.52,-0.55,-0.87,-0.90,-0.97
161.63,-0.43,0.59,-0.44,0.57,-0.54,-0.52,-0.54,-0.97,-0.98,-1.02
163.24,-0.60,0.45,-0.57,0.48,-0.50,-0.52,-0.53,-1.10,-1.07,-1.05
164.88,-0.68,0.40,-0.66,0.42,-0.48,-0.52,-0.52,-1.16,-1.13,-1.08
166.53,-0.68,0.41,-0.69,0.40,-0.46,-0.51,-0.51,-1.14,-1.15,-1.09
168.19,-0.68,0.43,-0.70,0.41,-0.46,-0.51,-0.51,-1.14,-1.16,-1.11
169.87,-0.68,0.44,-0.68,0.44,-0.47,-0.51,-0.50,-1.15,-1.15,-1.12
171.57,-0.68,0.44,-0.63,0.49,-0.50,-0.51,-0.49,-1.18,-1.13,-1.12
173.29,-0.54,0.58,-0.56,0.56,-0.53,-0.51,-0.48,-1.07,-1.09,-1.12
175.02,-0.46,0.65,-0.49,0.62,-0.57,-0.51,-0.48,-1.03,-1.06,-1.11
176.77,-0.46,0.64,-0.45,0.65,-0.59,-0.51,-0.47,-1.05,-1.04,-1.10
178.54,-0.46,0.62,-0.45,0.63,-0.61,-0.51,-0.46,-1.07,-1.06,-1.08
180.32,-0.46,0.61,-0.46,0.61,-0.62,-0.51,-0.46,-1.08,-1.08,-1.07
182.13,-0.46,0.59,-0.46,0.60,-0.62,-0.51,-0.45,-1.08,-1.08,-1.05
183.95,-0.46,0.59,-0.46,0.59,-0.61,-0.51,-0.44,-1.07,-1.07,-1.05
185.79,-0.46,0.58,-0.46,0.58,-0.60,-0.51,-0.44,-1.06,-1.06,-1.04
187.65,-0.46,0.58,-0.46,0.58,-0.57,-0.51,-0.43,-1.03,-1.03,-1.04
189.52,-0.46,0.58,-0.45,0.59,-0.55,-0.51,-0.43,-1.01,-1.00,-1.04
191.42,-0.46,0.58,-0.46,0.59,-0.54,-0.51,-0.43,-1.00,-0.99,-1.04
193.33,-0.46,0.59,-0.51,0.54,-0.53,-0.51,-0.42,-0.99,-1.04,-1.05
195.27,-0.56,0.50,-0.56,0.49,-0.54,-0.51,-0.42,-1.09,-1.10,-1.05
197.22,-0.66,0.40,-0.58,0.48,-0.54,-0.52,-0.41,-1.20,-1.12,-1.06
199.19,-0.55,0.52,-0.56,0.51,-0.55,-0.52,-0.41,-1.10,-1.11,-1.07
201.18,-0.46,0.62,-0.50,0.57,-0.57,-0.52,-0.41,-1.03,-1.08,-1.08
203.19,-0.46,0.63,-0.45,0.63,-0.60,-0.52,-0.41,-1.06,-1.05,-1.09
205.23,-0.46,0.64,-0.45,0.65,-0.63,-0.52,-0.40,-1.09,-1.08,-1.10
207.28,-0.46,0.66,-0.46,0.66,-0.66,-0.52,-0.40,-1.12,-1.12,-1.12
209.35,-0.46,0.68,-0.46,0.67,-0.68,-0.52,-0.40,-1.14,-1.14,-1.14
211.44,-0.46,0.69,-0.44,0.71,-0.68,-0.53,-0.40,-1.14,-1.12,-1.15
213.56,-0.46,0.70,-0.47,0.69,-0.66,-0.53,-0.40,-1.12,-1.13,-1.16
215.69,-0.46,0.71,-0.53,0.65,-0.63,-0.53,-0.40,-1.09,-1.16,-1.17
217.85,-0.66,0.53,-0.59,0.60,-0.58,-0.53,-0.40,-1.24,-1.17,-1.19
220.03,-0.68,0.52,-0.66,0.54,-0.54,-0.54,-0.40,-1.22,-1.20,-1.20
222.23,-0.68,0.54,-0.74,0.47,-0.49,-0.54,-0.40,-1.17,-1.23,-1.22
224.45,-0.79,0.43,-0.79,0.43,-0.45,-0.54,-0.40,-1.24,-1.24,-1.22
226.70,-0.90,0.34,-0.86,0.38,-0.41,-0.54,-0.41,-1.31,-1.27,-1.24
228.96,-0.91,0.34,-0.91,0.34,-0.39,-0.55,-0.41,-1.30,-1.30,-1.25
231.25,-0.91,0.35,-0.92,0.34,-0.37,-0.55,-0.41,-1.28,-1.29,-1.26
233.57,-0.91,0.36,-0.91,0.36,-0.35,-0.55,-0.41,-1.26,-1.26,-1.27
235.90,-0.91,0.36,-0.89,0.38,-0.33,-0.56,-0.42,-1.24,-1.22,-1.27
238.26,-0.91,0.38,-0.91,0.38,-0.31,-0.56,-0.42,-1.22,-1.22,-1.29
240.64,-0.91,0.39,-0.97,0.33,-0.29,-0.56,-0.42,-1.20,-1.25,-1.30
243.05,-1.07,0.23,-1.04,0.26,-0.26,-0.57,-0.43,-1.33,-1.30,-1.30
245.48,-1.14,0.17,-1.11,0.20,-0.24,-0.57,-0.43,-1.38,-1.35,-1.31
247.93,-1.14,0.17,-1.15,0.16,-0.21,-0.58,-0.44,-1.35,-1.37,-1.31
250.41,-1.14,0.18,-1.15,0.17,-0.19,-0.58,-0.45,-1.33,-1.34,-1.32
252.92,-1.14,0.18,-1.14,0.18,-0.18,-0.59,-0.45,-1.32,-1.32,-1.32
255.45,-1.14,0.19,-1.14,0.18,-0.17,-0.59,-0.46,-1.31,-1.31,-1.33
258.00,-1.14,0.19,-1.14,0.19,-0.18,-0.60,-0.47,-1.32,-1.32,-1.33
260.58,-1.14,0.19,-1.14,0.20,-0.18,-0.60,-0.48,-1.32,-1.32,-1.33
263.19,-1.14,0.21,-1.14,0.20,-0.19,-0.61,-0.49,-1.33,-1.33,-1.35
265.82,-1.14,0.21,-1.14,0.21,-0.20,-0.61,-0.49,-1.34,-1.34,-1.35
268.48,-1.14,0.21,-1.14,0.22,-0.20,-0.62,-0.50,-1.34,-1.34,-1.35
271.16,-1.14,0.23,-1.14,0.22,-0.22,-0.63,-0.52,-1.36,-1.36,-1.37
273.87,-1.14,0.23,-1.16,0.22,-0.25,-0.63,-0.53,-1.39,-1.40,-1.37
276.61,-1.14,0.24,-1.14,0.24,-0.28,-0.64,-0.54,-1.42,-1.41,-1.38
279.38,-1.14,0.25,-1.08,0.30,-0.32,-0.65,-0.55,-1.46,-1.40,-1.39
282.17,-0.97,0.42,-1.01,0.38,-0.37,-0.66,-0.56,-1.34,-1.38,-1.39
284.99,-0.91,0.48,-0.95,0.45,-0.44,-0.66,-0.58,-1.35,-1.39,-1.39
287.84,-0.91,0.49,-0.87,0.53,-0.52,-0.67,-0.59,-1.43,-1.39,-1.40
290.72,-0.84,0.56,-0.83,0.57,-0.61,-0.68,-0.60,-1.45,-1.43,-1.40
293.63,-0.70,0.70,-0.74,0.66,-0.69,-0.69,-0.62,-1.39,-1.43,-1.40
296.57,-0.68,0.72,-0.63,0.78,-0.76,-0.70,-0.63,-1.44,-1.39,-1.40
299.53,-0.51,0.90,-0.54,0.87,-0.82,-0.70,-0.65,-1.33,-1.36,-1.41
302.53,-0.46,0.96,-0.48,0.93,-0.89,-0.71,-0.67,-1.35,-1.37,-1.42
305.55,-0.46,0.96,-0.45,0.97,-0.95,-0.72,-0.68,-1.41,-1.40,-1.42
308.61,-0.46,0.96,-0.47,0.96,-1.00,-0.73,-0.70,-1.46,-1.47,-1.42
311.69,-0.46,0.98,-0.46,0.97,-1.04,-0.74,-0.72,-1.50,-1.50,-1.44
314.81,-0.46,0.99,-0.39,1.06,-1.07,-0.75,-0.74,-1.53,-1.46,-1.45
317.96,-0.31,1.15,-0.34,1.12,-1.08,-0.77,-0.76,-1.39,-1.42,-1.46
321.14,-0.24,1.24,-0.33,1.15,-1.09,-0.78,-0.78,-1.33,-1.41,-1.48
324.35,-0.41,1.08,-0.36,1.13,-1.09,-0.79,-0.80,-1.50,-1.45,-1.49
327.59,-0.46,1.04,-0.43,1.08,-1.10,-0.80,-0.83,-1.56,-1.53,-1.50
330.87,-0.46,1.06,-0.47,1.04,-1.11,-0.81,-0.85,-1.57,-1.58,-1.52
334.18,-0.46,1.07,-0.46,1.06,-1.12,-0.83,-0.87,-1.58,-1.58,-1.53
337.52,-0.46,1.08,-0.46,1.08,-1.11,-0.84,-0.90,-1.57,-1.57,-1.54
340.90,-0.46,1.08,-0.46,1.08,-1.09,-0.85,-0.92,-1.55,-1.55,-1.54
344.30,-0.46,1.09,-0.45,1.10,-1.06,-0.87,-0.95,-1.52,-1.51,-1.55
347.75,-0.46,1.09,-0.44,1.11,-1.02,-0.88,-0.97,-1.48,-1.46,-1.55
351.23,-0.46,1.09,-0.49,1.06,-0.96,-0.89,-1.00,-1.42,-1.46,-1.55
354.74,-0.56,1.00,-0.60,0.95,-0.89,-0.91,-1.03,-1.45,-1.49,-1.56
358.28,-0.78,0.78,-0.74,0.81,-0.82,-0.93,-1.06,-1.60,-1.56,-1.56
361.87,-0.89,0.66,-0.86,0.69,-0.76,-0.94,-1.09,-1.65,-1.62,-1.55
365.49,-0.91,0.64,-0.92,0.63,-0.72,-0.96,-1.12,-1.63,-1.64,-1.55
369.14,-0.91,0.64,-0.94,0.61,-0.71,-0.97,-1.15,-1.62,-1.65,-1.55
372.83,-0.91,0.64,-0.90,0.65,-0.72,-0.99,-1.18,-1.63,-1.62,-1.55
376.56,-0.86,0.68,-0.79,0.75,-0.77,-1.01,-1.22,-1.62,-1.56,-1.54
380.33,-0.62,0.92,-0.66,0.89,-0.84,-1.03,-1.25,-1.46,-1.50,-1.54
384.13,-0.48,1.06,-0.54,1.00,-0.94,-1.05,-1.29,-1.42,-1.48,-1.54
387.97,-0.46,1.09,-0.45,1.10,-1.05,-1.07,-1.32,-1.51,-1.49,-1.55
391.85,-0.45,1.10,-0.39,1.15,-1.16,-1.09,-1.36,-1.61,-1.55,-1.55
395.77,-0.29,1.26,-0.33,1.22,-1.26,-1.11,-1.39,-1.55,-1.58,-1.55
399.73,-0.23,1.31,-0.22,1.32,-1.34,-1.13,-1.43,-1.57,-1.56,-1.54
403.72,-0.14,1.40,-0.12,1.42,-1.40,-1.15,-1.46,-1.54,-1.52,-1.54
407.76,-0.03,1.51,-0.06,1.48,-1.45,-1.17,-1.50,-1.48,-1.51,-1.54
411.84,-0.00,1.54,-0.01,1.53,-1.50,-1.19,-1.54,-1.50,-1.50,-1.54
415.96,0.00,1.54,0.01,1.55,-1.53,-1.21,-1.57,-1.53,-1.52,-1.54
420.12,0.00,1.54,0.00,1.54,-1.54,-1.24,-1.61,-1.54,-1.54,-1.54
424.32,0.00,1.54,0.00,1.54,-1.55,-1.26,-1.65,-1.55,-1.55,-1.54
428.56,0.00,1.54,-0.00,1.54,-1.54,-1.29,-1.68,-1.54,-1.54,-1.54
432.85,0.00,1.54,-0.00,1.54,-1.54,-1.31,-1.72,-1.54,-1.54,-1.54
437.18,0.00,1.54,-0.00,1.55,-1.56,-1.34,-1.75,-1.56,-1.56,-1.54
441.55,0.00,1.55,-0.02,1.53,-1.58,-1.36,-1.78,-1.58,-1.60,-1.55
445.96,0.00,1.55,0.00,1.56,-1.61,-1.39,-1.81,-1.61,-1.61,-1.55
450.42,0.00,1.55,0.06,1.62,-1.64,-1.41,-1.85,-1.64,-1.58,-1.55
454.93,0.18,1.73,0.14,1.69,-1.67,-1.44,-1.87,-1.49,-1.54,-1.55
459.48,0.23,1.80,0.20,1.76,-1.70,-1.47,-1.90,-1.47,-1.50,-1.57
464.07,0.23,1.79,0.24,1.80,-1.73,-1.50,-1.93,-1.50,-1.49,-1.56
468.71,0.23,1.79,0.23,1.79,-1.77,-1.52,-1.95,-1.54,-1.53,-1.56
473.40,0.23,1.79,0.23,1.78,-1.80,-1.55,-1.97,-1.57,-1.58,-1.56
478.13,0.23,1.79,0.22,1.77,-1.83,-1.58,-1.99,-1.60,-1.62,-1.56
482.91,0.23,1.78,0.25,1.80,-1.87,-1.61,-2.01,-1.64,-1.62,-1.55
487.74,0.28,1.83,0.31,1.86,-1.89,-1.64,-2.02,-1.61,-1.58,-1.55
492.62,0.42,1.96,0.38,1.92,-1.92,-1.67,-2.03,-1.50,-1.53,-1.54
