frequency,raw,error,smoothed,error_smoothed,equalization,parametric_eq,fixed_band_eq,equalized_raw,equalized_smoothed,target
20.00,-16.04,-6.39,-16.04,-6.39,6.03,3.25,1.04,-10.01,-10.01,-9.65
20.20,-15.87,-6.31,-15.87,-6.31,6.03,3.23,1.08,-9.85,-9.84,-9.56
20.40,-15.69,-6.22,-15.70,-6.22,6.01,3.20,1.11,-9.68,-9.69,-9.47
20.61,-15.53,-6.12,-15.52,-6.13,5.98,3.17,1.15,-9.55,-9.55,-9.40
20.81,-15.35,-6.04,-15.35,-6.03,5.93,3.15,1.18,-9.42,-9.41,-9.31
21.02,-15.17,-5.94,-15.18,-5.93,5.88,3.12,1.22,-9.29,-9.30,-9.23
21.23,-15.00,-5.83,-15.00,-5.83,5.81,3.09,1.25,-9.19,-9.19,-9.17
21.44,-14.83,-5.72,-14.83,-5.72,5.73,3.07,1.29,-9.10,-9.10,-9.11
21.66,-14.67,-5.62,-14.66,-5.61,5.63,3.04,1.33,-9.04,-9.03,-9.05
21.87,-14.49,-5.50,-14.49,-5.50,5.51,3.01,1.37,-8.98,-8.98,-8.99
22.09,-14.32,-5.38,-14.32,-5.38,5.39,2.98,1.42,-8.94,-8.94,-8.95
22.31,-14.15,-5.26,-14.15,-5.26,5.26,2.95,1.46,-8.89,-8.89,-8.90
22.54,-13.99,-5.14,-13.98,-5.13,5.13,2.93,1.50,-8.85,-8.85,-8.85
22.76,-13.81,-5.01,-13.81,-5.01,5.01,2.90,1.55,-8.81,-8.81,-8.81
22.99,-13.64,-4.88,-13.64,-4.88,4.88,2.87,1.60,-8.76,-8.76,-8.77
23.22,-13.47,-4.75,-13.48,-4.75,4.76,2.84,1.64,-8.72,-8.72,-8.73
23.45,-13.31,-4.63,-13.31,-4.63,4.63,2.81,1.69,-8.68,-8.68,-8.68
23.69,-13.15,-4.51,-13.14,-4.50,4.51,2.78,1.74,-8.64,-8.64,-8.64
23.92,-12.97,-4.37,-12.98,-4.38,4.38,2.75,1.79,-8.59,-8.60,-8.60
24.16,-12.81,-4.26,-12.81,-4.26,4.26,2.72,1.85,-8.55,-8.55,-8.55
24.40,-12.65,-4.14,-12.65,-4.14,4.14,2.69,1.90,-8.52,-8.51,-8.51
24.65,-12.50,-4.01,-12.49,-4.02,4.01,2.66,1.95,-8.48,-8.48,-8.48
24.89,-12.33,-3.89,-12.33,-3.89,3.89,2.63,2.00,-8.44,-8.44,-8.44
25.14,-12.17,-3.77,-12.17,-3.77,3.77,2.60,2.06,-8.40,-8.40,-8.40
25.39,-12.01,-3.65,-12.02,-3.65,3.65,2.57,2.11,-8.36,-8.37,-8.36
25.65,-11.86,-3.54,-11.86,-3.53,3.53,2.54,2.16,-8.34,-8.33,-8.32
25.91,-11.71,-3.41,-11.70,-3.41,3.41,2.50,2.22,-8.30,-8.29,-8.29
26.16,-11.54,-3.29,-11.55,-3.29,3.29,2.47,2.27,-8.25,-8.26,-8.25
26.43,-11.40,-3.17,-11.39,-3.17,3.18,2.44,2.32,-8.22,-8.22,-8.23
26.69,-11.24,-3.06,-11.24,-3.06,3.06,2.41,2.37,-8.18,-8.18,-8.19
26.96,-11.10,-2.95,-11.10,-2.95,2.95,2.38,2.42,-8.15,-8.15,-8.15
27.23,-10.96,-2.84,-10.95,-2.84,2.84,2.34,2.47,-8.12,-8.12,-8.12
27.50,-10.81,-2.74,-10.81,-2.73,2.73,2.31,2.51,-8.09,-8.09,-8.08
27.77,-10.67,-2.62,-10.67,-2.62,2.62,2.28,2.56,-8.05,-8.05,-8.05
28.05,-10.52,-2.51,-10.53,-2.51,2.51,2.24,2.60,-8.01,-8.02,-8.01
28.33,-10.39,-2.40,-10.39,-2.40,2.41,2.21,2.64,-7.98,-7.98,-7.99
28.62,-10.26,-2.30,-10.26,-2.30,2.31,2.18,2.67,-7.95,-7.95,-7.95
28.90,-10.12,-2.21,-10.12,-2.21,2.20,2.14,2.70,-7.92,-7.92,-7.91
29.19,-9.99,-2.11,-9.99,-2.11,2.11,2.11,2.73,-7.88,-7.88,-7.88
29.48,-9.86,-2.03,-9.86,-2.02,2.02,2.07,2.75,-7.85,-7.84,-7.84
29.78,-9.73,-1.92,-9.74,-1.92,1.93,2.04,2.77,-7.80,-7.81,-7.82
30.08,-9.62,-1.84,-9.62,-1.84,1.85,2.00,2.78,-7.77,-7.77,-7.78
30.38,-9.52,-1.76,-9.51,-1.76,1.77,1.96,2.80,-7.75,-7.74,-7.75
30.68,-9.41,-1.70,-9.41,-1.69,1.69,1.93,2.80,-7.72,-7.72,-7.71
30.99,-9.30,-1.61,-9.31,-1.62,1.62,1.89,2.80,-7.69,-7.69,-7.69
31.30,-9.21,-1.56,-9.21,-1.55,1.55,1.85,2.79,-7.66,-7.66,-7.65
31.61,-9.11,-1.49,-9.11,-1.48,1.49,1.81,2.78,-7.63,-7.62,-7.63
31.93,-9.02,-1.42,-9.02,-1.42,1.43,1.77,2.76,-7.59,-7.60,-7.60
32.24,-8.93,-1.35,-8.93,-1.36,1.37,1.74,2.74,-7.57,-7.57,-7.58
32.57,-8.85,-1.30,-8.85,-1.31,1.31,1.70,2.71,-7.55,-7.55,-7.55
32.89,-8.77,-1.26,-8.77,-1.25,1.25,1.65,2.68,-7.52,-7.53,-7.51
33.22,-8.69,-1.20,-8.69,-1.20,1.19,1.61,2.65,-7.50,-7.50,-7.49
33.55,-8.61,-1.14,-8.61,-1.14,1.14,1.57,2.61,-7.48,-7.47,-7.47
33.89,-8.53,-1.08,-8.53,-1.08,1.08,1.53,2.56,-7.45,-7.45,-7.46
34.23,-8.45,-1.03,-8.46,-1.03,1.03,1.48,2.51,-7.42,-7.43,-7.43
34.57,-8.39,-0.98,-8.39,-0.98,0.98,1.44,2.46,-7.42,-7.41,-7.41
34.92,-8.32,-0.92,-8.32,-0.93,0.93,1.39,2.40,-7.40,-7.40,-7.40
35.27,-8.25,-0.88,-8.26,-0.88,0.87,1.35,2.34,-7.38,-7.38,-7.38
35.62,-8.19,-0.83,-8.19,-0.83,0.83,1.30,2.28,-7.37,-7.37,-7.37
35.97,-8.13,-0.77,-8.13,-0.78,0.78,1.25,2.22,-7.35,-7.35,-7.36
36.33,-8.08,-0.74,-8.08,-0.73,0.74,1.20,2.15,-7.35,-7.34,-7.34
36.70,-8.02,-0.69,-8.03,-0.69,0.69,1.15,2.08,-7.33,-7.33,-7.33
37.06,-7.97,-0.65,-7.97,-0.65,0.65,1.10,2.01,-7.32,-7.32,-7.33
37.43,-7.92,-0.61,-7.92,-0.61,0.61,1.04,1.94,-7.31,-7.31,-7.31
37.81,-7.87,-0.57,-7.87,-0.57,0.57,0.98,1.87,-7.31,-7.31,-7.30
38.19,-7.82,-0.53,-7.82,-0.53,0.52,0.93,1.80,-7.30,-7.30,-7.30
38.57,-7.77,-0.49,-7.77,-0.48,0.48,0.87,1.72,-7.30,-7.30,-7.29
38.95,-7.72,-0.43,-7.72,-0.43,0.43,0.80,1.65,-7.29,-7.29,-7.29
39.34,-7.67,-0.38,-7.68,-0.39,0.39,0.74,1.58,-7.29,-7.29,-7.29
39.74,-7.63,-0.35,-7.63,-0.34,0.34,0.67,1.50,-7.29,-7.29,-7.29
40.14,-7.58,-0.29,-7.59,-0.29,0.30,0.61,1.43,-7.29,-7.29,-7.29
40.54,-7.54,-0.25,-7.54,-0.25,0.25,0.54,1.36,-7.29,-7.29,-7.30
40.94,-7.50,-0.21,-7.50,-0.21,0.21,0.47,1.28,-7.29,-7.29,-7.29
41.35,-7.46,-0.17,-7.46,-0.17,0.18,0.39,1.21,-7.29,-7.29,-7.29
41.76,-7.42,-0.14,-7.42,-0.14,0.14,0.32,1.14,-7.28,-7.29,-7.29
42.18,-7.38,-0.10,-7.39,-0.10,0.10,0.24,1.07,-7.28,-7.29,-7.28
42.60,-7.35,-0.07,-7.35,-0.07,0.06,0.16,0.99,-7.29,-7.29,-7.29
43.03,-7.31,-0.03,-7.31,-0.03,0.02,0.08,0.92,-7.29,-7.29,-7.28
43.46,-7.27,0.01,-7.28,0.01,-0.01,0.01,0.85,-7.29,-7.29,-7.28
43.90,-7.24,0.06,-7.24,0.05,-0.06,-0.07,0.78,-7.30,-7.30,-7.30
44.33,-7.20,0.10,-7.21,0.10,-0.10,-0.15,0.72,-7.30,-7.30,-7.30
44.78,-7.17,0.14,-7.17,0.14,-0.14,-0.22,0.65,-7.31,-7.31,-7.31
45.23,-7.13,0.18,-7.13,0.18,-0.18,-0.29,0.58,-7.31,-7.31,-7.32
45.68,-7.09,0.23,-7.09,0.23,-0.22,-0.36,0.51,-7.31,-7.31,-7.32
46.13,-7.05,0.27,-7.06,0.27,-0.26,-0.42,0.45,-7.31,-7.32,-7.33
46.60,-7.02,0.30,-7.02,0.30,-0.30,-0.48,0.38,-7.32,-7.32,-7.32
47.06,-6.99,0.33,-6.99,0.33,-0.34,-0.53,0.31,-7.33,-7.33,-7.32
47.53,-6.95,0.37,-6.95,0.36,-0.37,-0.57,0.25,-7.33,-7.33,-7.32
48.01,-6.91,0.40,-6.92,0.40,-0.41,-0.60,0.19,-7.33,-7.33,-7.31
48.49,-6.88,0.44,-6.88,0.45,-0.45,-0.63,0.12,-7.33,-7.33,-7.33
48.97,-6.84,0.49,-6.85,0.49,-0.48,-0.65,0.06,-7.33,-7.33,-7.34
49.46,-6.82,0.52,-6.82,0.52,-0.51,-0.66,-0.00,-7.34,-7.34,-7.34
49.96,-6.79,0.56,-6.79,0.55,-0.54,-0.66,-0.06,-7.34,-7.34,-7.35
50.46,-6.76,0.57,-6.76,0.57,-0.57,-0.66,-0.12,-7.34,-7.34,-7.33
50.96,-6.73,0.59,-6.74,0.60,-0.59,-0.65,-0.18,-7.33,-7.33,-7.33
51.47,-6.71,0.62,-6.71,0.61,-0.61,-0.64,-0.24,-7.33,-7.33,-7.34
51.99,-6.69,0.63,-6.69,0.63,-0.63,-0.63,-0.30,-7.32,-7.32,-7.32
52.51,-6.67,0.64,-6.67,0.64,-0.64,-0.61,-0.36,-7.32,-7.32,-7.31
53.03,-6.65,0.65,-6.65,0.65,-0.66,-0.60,-0.41,-7.31,-7.31,-7.30
53.56,-6.63,0.67,-6.64,0.67,-0.67,-0.58,-0.47,-7.30,-7.30,-7.30
54.10,-6.62,0.68,-6.62,0.68,-0.68,-0.56,-0.52,-7.30,-7.30,-7.30
54.64,-6.60,0.69,-6.61,0.69,-0.69,-0.55,-0.58,-7.29,-7.29,-7.29
55.18,-6.59,0.70,-6.59,0.70,-0.70,-0.53,-0.63,-7.29,-7.29,-7.29
55.74,-6.58,0.71,-6.59,0.71,-0.71,-0.52,-0.68,-7.29,-7.29,-7.29
56.29,-6.58,0.71,-6.58,0.72,-0.72,-0.51,-0.72,-7.30,-7.30,-7.30
56.86,-6.57,0.72,-6.58,0.73,-0.73,-0.50,-0.77,-7.30,-7.30,-7.30
57.42,-6.57,0.74,-6.57,0.74,-0.73,-0.49,-0.82,-7.31,-7.30,-7.31
58.00,-6.56,0.75,-6.57,0.75,-0.74,-0.49,-0.86,-7.30,-7.31,-7.31
58.58,-6.56,0.75,-6.56,0.75,-0.75,-0.48,-0.90,-7.31,-7.31,-7.32
59.16,-6.56,0.76,-6.56,0.76,-0.75,-0.48,-0.94,-7.32,-7.32,-7.32
59.76,-6.56,0.76,-6.57,0.76,-0.76,-0.48,-0.98,-7.33,-7.33,-7.32
60.35,-6.57,0.76,-6.57,0.76,-0.77,-0.49,-1.01,-7.35,-7.35,-7.34
60.96,-6.58,0.77,-6.58,0.78,-0.79,-0.49,-1.05,-7.37,-7.36,-7.35
61.57,-6.58,0.79,-6.58,0.79,-0.80,-0.50,-1.08,-7.38,-7.38,-7.38
62.18,-6.58,0.82,-6.58,0.81,-0.81,-0.51,-1.11,-7.40,-7.40,-7.40
62.80,-6.58,0.82,-6.58,0.83,-0.83,-0.53,-1.14,-7.41,-7.41,-7.41
63.43,-6.58,0.85,-6.58,0.85,-0.84,-0.54,-1.16,-7.42,-7.42,-7.43
64.07,-6.58,0.86,-6.59,0.86,-0.85,-0.56,-1.18,-7.43,-7.43,-7.44
64.71,-6.59,0.86,-6.59,0.86,-0.86,-0.57,-1.21,-7.45,-7.45,-7.45
65.35,-6.59,0.86,-6.60,0.86,-0.86,-0.59,-1.22,-7.45,-7.46,-7.46
66.01,-6.60,0.86,-6.60,0.86,-0.86,-0.61,-1.24,-7.47,-7.47,-7.47
66.67,-6.61,0.86,-6.61,0.86,-0.86,-0.63,-1.26,-7.48,-7.47,-7.48
67.33,-6.61,0.86,-6.61,0.86,-0.87,-0.66,-1.27,-7.48,-7.48,-7.47
68.01,-6.61,0.86,-6.61,0.86,-0.87,-0.68,-1.29,-7.48,-7.48,-7.48
68.69,-6.60,0.87,-6.61,0.87,-0.87,-0.71,-1.30,-7.48,-7.48,-7.48
69.37,-6.59,0.88,-6.59,0.88,-0.88,-0.74,-1.31,-7.47,-7.48,-7.48
70.07,-6.58,0.89,-6.58,0.89,-0.89,-0.77,-1.32,-7.48,-7.47,-7.48
70.77,-6.56,0.91,-6.57,0.91,-0.91,-0.80,-1.32,-7.47,-7.48,-7.47
71.48,-6.55,0.92,-6.55,0.92,-0.93,-0.83,-1.33,-7.48,-7.48,-7.47
72.19,-6.53,0.94,-6.53,0.95,-0.95,-0.86,-1.34,-7.48,-7.48,-7.48
72.91,-6.51,0.97,-6.51,0.97,-0.97,-0.89,-1.35,-7.49,-7.49,-7.48
73.64,-6.48,1.01,-6.49,1.00,-1.00,-0.93,-1.35,-7.48,-7.49,-7.50
74.38,-6.46,1.03,-6.46,1.03,-1.03,-0.96,-1.36,-7.49,-7.49,-7.49
75.12,-6.44,1.05,-6.44,1.06,-1.05,-1.00,-1.37,-7.50,-7.49,-7.50
75.87,-6.41,1.08,-6.42,1.08,-1.08,-1.04,-1.37,-7.49,-7.50,-7.49
76.63,-6.39,1.11,-6.39,1.10,-1.10,-1.07,-1.38,-7.50,-7.50,-7.50
77.40,-6.37,1.12,-6.37,1.13,-1.12,-1.11,-1.39,-7.50,-7.49,-7.50
78.17,-6.35,1.15,-6.36,1.14,-1.14,-1.15,-1.40,-7.49,-7.50,-7.50
78.95,-6.33,1.16,-6.34,1.16,-1.16,-1.19,-1.40,-7.49,-7.49,-7.49
79.74,-6.32,1.16,-6.32,1.17,-1.17,-1.23,-1.41,-7.50,-7.49,-7.48
80.54,-6.29,1.18,-6.29,1.18,-1.18,-1.28,-1.42,-7.48,-7.48,-7.47
81.35,-6.26,1.20,-6.27,1.19,-1.19,-1.32,-1.43,-7.46,-7.46,-7.46
82.16,-6.24,1.21,-6.24,1.21,-1.20,-1.36,-1.44,-7.45,-7.44,-7.45
82.98,-6.21,1.21,-6.22,1.22,-1.21,-1.41,-1.46,-7.42,-7.43,-7.42
83.81,-6.19,1.22,-6.20,1.22,-1.22,-1.45,-1.47,-7.41,-7.41,-7.42
84.65,-6.17,1.23,-6.17,1.22,-1.22,-1.50,-1.48,-7.40,-7.40,-7.41
85.50,-6.15,1.22,-6.15,1.23,-1.23,-1.54,-1.50,-7.38,-7.38,-7.37
86.35,-6.12,1.23,-6.12,1.23,-1.24,-1.59,-1.52,-7.36,-7.36,-7.35
87.22,-6.09,1.24,-6.10,1.24,-1.24,-1.64,-1.53,-7.34,-7.34,-7.34
88.09,-6.07,1.26,-6.07,1.25,-1.25,-1.69,-1.55,-7.33,-7.32,-7.33
88.97,-6.04,1.26,-6.05,1.27,-1.26,-1.73,-1.57,-7.31,-7.31,-7.31
89.86,-6.02,1.28,-6.03,1.28,-1.28,-1.78,-1.59,-7.30,-7.30,-7.30
90.76,-6.00,1.30,-6.00,1.30,-1.30,-1.83,-1.62,-7.30,-7.30,-7.31
91.66,-5.98,1.31,-5.98,1.32,-1.32,-1.88,-1.64,-7.30,-7.30,-7.29
92.58,-5.95,1.35,-5.95,1.35,-1.35,-1.93,-1.67,-7.30,-7.30,-7.31
93.51,-5.92,1.38,-5.93,1.38,-1.38,-1.98,-1.69,-7.30,-7.31,-7.30
94.44,-5.90,1.41,-5.90,1.42,-1.42,-2.03,-1.72,-7.32,-7.32,-7.31
95.39,-5.87,1.45,-5.87,1.46,-1.46,-2.08,-1.75,-7.33,-7.33,-7.33
96.34,-5.84,1.51,-5.85,1.51,-1.51,-2.14,-1.78,-7.35,-7.36,-7.36
97.30,-5.82,1.56,-5.82,1.56,-1.56,-2.19,-1.81,-7.38,-7.38,-7.38
98.28,-5.80,1.61,-5.80,1.61,-1.62,-2.24,-1.84,-7.42,-7.42,-7.41
99.26,-5.77,1.66,-5.77,1.67,-1.68,-2.29,-1.87,-7.45,-7.45,-7.44
100.25,-5.73,1.74,-5.74,1.74,-1.74,-2.34,-1.90,-7.47,-7.48,-7.48
101.25,-5.70,1.81,-5.71,1.80,-1.80,-2.39,-1.94,-7.50,-7.51,-7.51
102.27,-5.68,1.86,-5.68,1.87,-1.86,-2.44,-1.97,-7.54,-7.54,-7.54
103.29,-5.66,1.93,-5.66,1.92,-1.92,-2.50,-2.01,-7.58,-7.58,-7.59
104.32,-5.64,1.98,-5.64,1.98,-1.97,-2.55,-2.04,-7.62,-7.61,-7.62
105.37,-5.62,2.03,-5.63,2.03,-2.02,-2.60,-2.08,-7.64,-7.65,-7.66
106.42,-5.61,2.07,-5.62,2.07,-2.07,-2.65,-2.12,-7.68,-7.68,-7.69
107.48,-5.61,2.11,-5.61,2.11,-2.11,-2.70,-2.15,-7.72,-7.72,-7.72
108.56,-5.61,2.15,-5.61,2.15,-2.15,-2.75,-2.19,-7.76,-7.77,-7.76
109.64,-5.61,2.19,-5.61,2.18,-2.19,-2.80,-2.23,-7.81,-7.81,-7.80
110.74,-5.60,2.22,-5.60,2.23,-2.24,-2.85,-2.26,-7.84,-7.84,-7.83
111.85,-5.58,2.26,-5.58,2.27,-2.28,-2.90,-2.30,-7.87,-7.87,-7.85
112.97,-5.55,2.34,-5.55,2.33,-2.33,-2.95,-2.33,-7.89,-7.89,-7.89
114.10,-5.52,2.39,-5.53,2.39,-2.38,-3.00,-2.37,-7.91,-7.91,-7.91
115.24,-5.49,2.45,-5.50,2.44,-2.44,-3.05,-2.40,-7.93,-7.93,-7.94
116.39,-5.47,2.48,-5.47,2.49,-2.49,-3.10,-2.44,-7.96,-7.96,-7.96
117.55,-5.44,2.54,-5.44,2.54,-2.54,-3.15,-2.47,-7.99,-7.98,-7.98
118.73,-5.40,2.60,-5.40,2.59,-2.60,-3.19,-2.50,-8.00,-8.00,-8.00
119.92,-5.36,2.64,-5.37,2.64,-2.64,-3.24,-2.53,-8.01,-8.01,-8.01
121.12,-5.33,2.69,-5.34,2.68,-2.68,-3.29,-2.56,-8.01,-8.02,-8.02
122.33,-5.31,2.72,-5.31,2.72,-2.71,-3.33,-2.58,-8.03,-8.02,-8.04
123.55,-5.29,2.75,-5.29,2.75,-2.74,-3.38,-2.61,-8.03,-8.03,-8.04
124.79,-5.27,2.78,-5.28,2.77,-2.76,-3.42,-2.63,-8.03,-8.04,-8.06
126.03,-5.28,2.79,-5.28,2.78,-2.78,-3.47,-2.65,-8.06,-8.06,-8.07
127.29,-5.29,2.78,-5.29,2.79,-2.79,-3.51,-2.67,-8.08,-8.08,-8.07
128.57,-5.30,2.79,-5.30,2.79,-2.80,-3.55,-2.69,-8.11,-8.11,-8.10
129.85,-5.30,2.81,-5.30,2.81,-2.82,-3.59,-2.71,-8.12,-8.12,-8.11
131.15,-5.29,2.83,-5.29,2.83,-2.84,-3.63,-2.73,-8.13,-8.13,-8.12
132.46,-5.27,2.86,-5.27,2.86,-2.87,-3.67,-2.74,-8.14,-8.14,-8.13
133.79,-5.24,2.89,-5.25,2.90,-2.90,-3.71,-2.76,-8.14,-8.15,-8.14
135.12,-5.21,2.95,-5.22,2.94,-2.94,-3.75,-2.77,-8.15,-8.16,-8.17
136.48,-5.19,2.97,-5.19,2.98,-2.99,-3.79,-2.79,-8.18,-8.17,-8.17
137.84,-5.15,3.03,-5.16,3.03,-3.04,-3.82,-2.80,-8.19,-8.20,-8.19
139.22,-5.12,3.09,-5.12,3.09,-3.09,-3.86,-2.81,-8.21,-8.21,-8.22
140.61,-5.09,3.14,-5.09,3.14,-3.14,-3.89,-2.82,-8.24,-8.23,-8.23
142.02,-5.04,3.20,-5.05,3.20,-3.19,-3.93,-2.84,-8.24,-8.24,-8.24
143.44,-5.02,3.24,-5.02,3.25,-3.24,-3.96,-2.85,-8.27,-8.26,-8.26
144.87,-4.98,3.30,-4.99,3.30,-3.29,-3.99,-2.86,-8.27,-8.28,-8.29
146.32,-4.97,3.34,-4.97,3.33,-3.33,-4.03,-2.87,-8.31,-8.30,-8.31
147.78,-4.95,3.37,-4.95,3.37,-3.37,-4.06,-2.89,-8.32,-8.32,-8.32
149.26,-4.94,3.40,-4.95,3.41,-3.40,-4.09,-2.90,-8.35,-8.35,-8.35
150.75,-4.94,3.45,-4.95,3.43,-3.43,-4.11,-2.92,-8.37,-8.38,-8.39
152.26,-4.95,3.46,-4.95,3.46,-3.46,-4.14,-2.94,-8.41,-8.41,-8.41
153.78,-4.96,3.47,-4.96,3.48,-3.49,-4.17,-2.96,-8.45,-8.45,-8.44
155.32,-4.96,3.51,-4.96,3.50,-3.51,-4.20,-2.98,-8.48,-8.48,-8.47
156.88,-4.96,3.53,-4.96,3.53,-3.54,-4.22,-3.00,-8.50,-8.50,-8.49
158.44,-4.96,3.56,-4.96,3.57,-3.57,-4.24,-3.03,-8.53,-8.53,-8.52
160.03,-4.96,3.60,-4.96,3.60,-3.60,-4.27,-3.05,-8.56,-8.56,-8.57
161.63,-4.96,3.63,-4.96,3.63,-3.63,-4.29,-3.08,-8.59,-8.59,-8.60
163.24,-4.96,3.66,-4.96,3.66,-3.66,-4.31,-3.11,-8.62,-8.62,-8.63
164.88,-4.96,3.68,-4.96,3.69,-3.69,-4.33,-3.15,-8.65,-8.65,-8.65
166.53,-4.96,3.71,-4.96,3.72,-3.72,-4.35,-3.18,-8.68,-8.68,-8.68
168.19,-4.96,3.75,-4.96,3.74,-3.75,-4.37,-3.22,-8.71,-8.71,-8.72
169.87,-4.96,3.77,-4.96,3.77,-3.77,-4.39,-3.26,-8.74,-8.74,-8.73
171.57,-4.96,3.80,-4.96,3.80,-3.80,-4.41,-3.30,-8.76,-8.76,-8.76
173.29,-4.96,3.82,-4.96,3.82,-3.82,-4.42,-3.35,-8.79,-8.79,-8.79
175.02,-4.96,3.84,-4.96,3.85,-3.85,-4.44,-3.40,-8.81,-8.81,-8.80
176.77,-4.96,3.88,-4.96,3.88,-3.87,-4.46,-3.45,-8.84,-8.84,-8.84
178.54,-4.96,3.90,-4.96,3.90,-3.89,-4.47,-3.50,-8.86,-8.86,-8.87
180.32,-4.96,3.92,-4.96,3.92,-3.91,-4.48,-3.55,-8.88,-8.88,-8.88
182.13,-4.96,3.92,-4.96,3.93,-3.93,-4.50,-3.61,-8.90,-8.90,-8.89
183.95,-4.96,3.95,-4.96,3.94,-3.95,-4.51,-3.67,-8.91,-8.91,-8.91
185.79,-4.96,3.96,-4.96,3.96,-3.96,-4.52,-3.74,-8.92,-8.92,-8.93
187.65,-4.96,3.98,-4.96,3.98,-3.97,-4.53,-3.80,-8.93,-8.94,-8.94
189.52,-4.96,3.99,-4.97,3.99,-3.98,-4.54,-3.87,-8.94,-8.95,-8.95
191.42,-4.97,3.99,-4.97,3.99,-3.99,-4.55,-3.94,-8.96,-8.96,-8.96
193.33,-4.97,4.00,-4.98,4.00,-4.00,-4.56,-4.01,-8.97,-8.98,-8.98
195.27,-4.98,4.01,-4.98,4.01,-4.01,-4.56,-4.09,-8.99,-8.99,-8.99
197.22,-4.98,4.02,-4.98,4.02,-4.02,-4.57,-4.17,-9.01,-9.01,-9.00
199.19,-4.98,4.05,-4.98,4.04,-4.04,-4.58,-4.24,-9.03,-9.03,-9.03
201.18,-4.97,4.06,-4.97,4.06,-4.07,-4.58,-4.32,-9.04,-9.04,-9.03
203.19,-4.96,4.08,-4.96,4.09,-4.09,-4.59,-4.40,-9.06,-9.05,-9.04
205.23,-4.93,4.13,-4.94,4.12,-4.13,-4.59,-4.49,-9.06,-9.07,-9.06
207.28,-4.91,4.15,-4.91,4.16,-4.16,-4.60,-4.57,-9.08,-9.07,-9.06
209.35,-4.88,4.20,-4.88,4.20,-4.20,-4.60,-4.65,-9.08,-9.08,-9.08
211.44,-4.84,4.26,-4.85,4.25,-4.24,-4.60,-4.73,-9.08,-9.09,-9.10
213.56,-4.81,4.29,-4.81,4.29,-4.28,-4.61,-4.81,-9.09,-9.09,-9.10
215.69,-4.77,4.33,-4.78,4.32,-4.32,-4.61,-4.90,-9.09,-9.10,-9.10
217.85,-4.75,4.35,-4.75,4.36,-4.36,-4.61,-4.97,-9.11,-9.11,-9.11
220.03,-4.73,4.39,-4.73,4.39,-4.39,-4.61,-5.05,-9.13,-9.12,-9.13
222.23,-4.70,4.43,-4.70,4.42,-4.43,-4.61,-5.13,-9.13,-9.13,-9.13
224.45,-4.67,4.45,-4.67,4.46,-4.46,-4.61,-5.20,-9.13,-9.13,-9.12
226.70,-4.63,4.49,-4.64,4.49,-4.49,-4.61,-5.27,-9.12,-9.13,-9.13
228.96,-4.60,4.53,-4.61,4.52,-4.52,-4.61,-5.33,-9.13,-9.13,-9.13
231.25,-4.58,4.55,-4.58,4.56,-4.56,-4.61,-5.39,-9.14,-9.13,-9.13
233.57,-4.55,4.58,-4.55,4.59,-4.59,-4.60,-5.45,-9.14,-9.14,-9.14
235.90,-4.52,4.62,-4.53,4.62,-4.62,-4.60,-5.50,-9.14,-9.15,-9.14
238.26,-4.50,4.66,-4.50,4.66,-4.65,-4.60,-5.54,-9.16,-9.15,-9.16
240.64,-4.47,4.68,-4.47,4.68,-4.68,-4.59,-5.58,-9.16,-9.16,-9.16
243.05,-4.44,4.72,-4.45,4.71,-4.71,-4.59,-5.61,-9.16,-9.16,-9.16
245.48,-4.42,4.73,-4.42,4.74,-4.74,-4.59,-5.63,-9.17,-9.16,-9.16
247.93,-4.39,4.77,-4.39,4.77,-4.77,-4.58,-5.65,-9.16,-9.16,-9.16
250.41,-4.37,4.79,-4.37,4.79,-4.79,-4.58,-5.66,-9.17,-9.16,-9.17
252.92,-4.32,4.83,-4.33,4.82,-4.82,-4.57,-5.66,-9.14,-9.15,-9.15
255.45,-4.30,4.83,-4.30,4.84,-4.84,-4.57,-5.65,-9.14,-9.14,-9.14
258.00,-4.27,4.86,-4.27,4.86,-4.86,-4.56,-5.64,-9.13,-9.13,-9.13
260.58,-4.24,4.88,-4.25,4.87,-4.87,-4.55,-5.62,-9.12,-9.12,-9.13
263.19,-4.22,4.88,-4.22,4.89,-4.89,-4.55,-5.60,-9.11,-9.11,-9.10
265.82,-4.18,4.91,-4.19,4.90,-4.90,-4.54,-5.56,-9.09,-9.10,-9.09
268.48,-4.16,4.91,-4.16,4.92,-4.92,-4.53,-5.53,-9.08,-9.08,-9.08
271.16,-4.13,4.93,-4.13,4.93,-4.93,-4.52,-5.48,-9.06,-9.06,-9.06
273.87,-4.09,4.95,-4.10,4.94,-4.94,-4.52,-5.44,-9.04,-9.05,-9.05
276.61,-4.07,4.96,-4.07,4.96,-4.96,-4.51,-5.38,-9.03,-9.03,-9.03
279.38,-4.05,4.97,-4.05,4.97,-4.97,-4.50,-5.33,-9.03,-9.02,-9.02
282.17,-4.03,4.98,-4.03,4.98,-4.98,-4.49,-5.27,-9.02,-9.01,-9.02
284.99,-4.00,4.99,-4.00,4.99,-5.00,-4.48,-5.21,-9.00,-9.00,-8.99
287.84,-3.96,5.02,-3.97,5.01,-5.01,-4.47,-5.14,-8.97,-8.98,-8.98
290.72,-3.94,5.02,-3.94,5.02,-5.02,-4.46,-5.08,-8.96,-8.96,-8.96
293.63,-3.91,5.03,-3.92,5.03,-5.03,-4.45,-5.01,-8.94,-8.94,-8.95
296.57,-3.89,5.03,-3.89,5.03,-5.04,-4.45,-4.94,-8.93,-8.93,-8.92
299.53,-3.87,5.04,-3.87,5.04,-5.04,-4.44,-4.88,-8.92,-8.91,-8.91
302.53,-3.84,5.05,-3.85,5.04,-5.05,-4.43,-4.81,-8.89,-8.89,-8.90
305.55,-3.81,5.04,-3.81,5.05,-5.05,-4.42,-4.74,-8.87,-8.87,-8.86
308.61,-3.78,5.06,-3.78,5.06,-5.06,-4.41,-4.68,-8.84,-8.84,-8.84
311.69,-3.74,5.07,-3.75,5.06,-5.06,-4.39,-4.61,-8.80,-8.81,-8.81
314.81,-3.72,5.05,-3.72,5.06,-5.06,-4.38,-4.55,-8.78,-8.78,-8.77
317.96,-3.70,5.05,-3.70,5.06,-5.05,-4.37,-4.49,-8.75,-8.75,-8.76
321.14,-3.68,5.05,-3.68,5.05,-5.04,-4.36,-4.43,-8.72,-8.72,-8.73
324.35,-3.66,5.05,-3.67,5.03,-5.02,-4.35,-4.37,-8.69,-8.70,-8.71
327.59,-3.67,5.01,-3.67,5.01,-5.01,-4.34,-4.31,-8.68,-8.68,-8.68
330.87,-3.67,4.98,-3.67,4.99,-4.99,-4.33,-4.26,-8.66,-8.66,-8.65
334.18,-3.67,4.96,-3.67,4.96,-4.97,-4.32,-4.21,-8.64,-8.64,-8.64
337.52,-3.66,4.94,-3.66,4.94,-4.95,-4.31,-4.16,-8.61,-8.62,-8.61
340.90,-3.65,4.93,-3.65,4.93,-4.94,-4.30,-4.12,-8.59,-8.59,-8.58
344.30,-3.63,4.92,-3.63,4.92,-4.93,-4.29,-4.08,-8.56,-8.56,-8.55
347.75,-3.61,4.92,-3.61,4.92,-4.92,-4.28,-4.04,-8.54,-8.53,-8.53
351.23,-3.57,4.93,-3.58,4.93,-4.93,-4.27,-4.00,-8.50,-8.51,-8.50
354.74,-3.54,4.93,-3.54,4.93,-4.93,-4.26,-3.97,-8.48,-8.48,-8.48
358.28,-3.51,4.94,-3.51,4.94,-4.94,-4.25,-3.94,-8.46,-8.45,-8.46
361.87,-3.47,4.95,-3.48,4.95,-4.95,-4.24,-3.91,-8.43,-8.43,-8.43
365.49,-3.44,4.97,-3.44,4.97,-4.97,-4.23,-3.88,-8.41,-8.41,-8.41
369.14,-3.41,4.98,-3.41,4.98,-4.98,-4.22,-3.86,-8.39,-8.39,-8.39
372.83,-3.38,4.99,-3.38,4.99,-4.99,-4.21,-3.84,-8.37,-8.37,-8.37
376.56,-3.35,5.00,-3.36,4.99,-4.99,-4.20,-3.83,-8.35,-8.35,-8.35
380.33,-3.33,4.99,-3.34,5.00,-4.99,-4.19,-3.82,-8.33,-8.33,-8.32
384.13,-3.32,4.99,-3.32,4.99,-4.99,-4.18,-3.81,-8.32,-8.31,-8.32
387.97,-3.31,4.99,-3.31,4.99,-4.99,-4.17,-3.80,-8.30,-8.30,-8.31
391.85,-3.31,4.98,-3.31,4.98,-4.98,-4.16,-3.79,-8.29,-8.29,-8.30
395.77,-3.31,4.96,-3.32,4.97,-4.96,-4.15,-3.79,-8.28,-8.28,-8.28
399.73,-3.32,4.95,-3.32,4.95,-4.95,-4.14,-3.79,-8.27,-8.27,-8.27
403.72,-3.33,4.93,-3.33,4.92,-4.93,-4.13,-3.79,-8.27,-8.27,-8.26
407.76,-3.34,4.91,-3.34,4.90,-4.91,-4.13,-3.80,-8.26,-8.26,-8.25
411.84,-3.35,4.88,-3.35,4.89,-4.89,-4.12,-3.80,-8.25,-8.25,-8.23
415.96,-3.36,4.87,-3.37,4.87,-4.87,-4.11,-3.81,-8.23,-8.23,-8.23
420.12,-3.38,4.85,-3.38,4.85,-4.84,-4.11,-3.82,-8.23,-8.23,-8.23
424.32,-3.41,4.82,-3.41,4.82,-4.81,-4.10,-3.83,-8.22,-8.22,-8.23
