frequency,raw,error,smoothed,error_smoothed,equalization,parametric_eq,fixed_band_eq,equalized_raw,equalized_smoothed,target
20.00,3.65,0.98,3.64,0.98,-0.98,-1.11,-0.69,2.67,2.66,2.67
20.20,3.66,1.01,3.66,1.00,-1.00,-1.12,-0.70,2.65,2.65,2.65
20.40,3.67,1.03,3.67,1.03,-1.03,-1.13,-0.72,2.64,2.64,2.64
20.61,3.69,1.05,3.68,1.05,-1.05,-1.15,-0.74,2.64,2.63,2.64
20.81,3.70,1.08,3.69,1.07,-1.07,-1.16,-0.77,2.62,2.62,2.62
21.02,3.71,1.10,3.71,1.10,-1.09,-1.18,-0.79,2.61,2.61,2.61
21.23,3.72,1.12,3.72,1.12,-1.11,-1.19,-0.81,2.60,2.61,2.60
21.44,3.74,1.13,3.73,1.13,-1.13,-1.21,-0.83,2.60,2.60,2.61
21.66,3.75,1.15,3.75,1.15,-1.15,-1.22,-0.86,2.59,2.59,2.60
21.87,3.76,1.17,3.76,1.17,-1.17,-1.24,-0.88,2.58,2.59,2.59
22.09,3.78,1.20,3.77,1.19,-1.19,-1.25,-0.90,2.58,2.58,2.58
22.31,3.79,1.21,3.79,1.21,-1.21,-1.26,-0.93,2.58,2.58,2.58
22.54,3.80,1.23,3.80,1.23,-1.23,-1.28,-0.96,2.57,2.57,2.57
22.76,3.82,1.24,3.81,1.24,-1.25,-1.29,-0.98,2.57,2.57,2.57
22.99,3.83,1.26,3.83,1.26,-1.26,-1.31,-1.01,2.56,2.56,2.56
23.22,3.84,1.28,3.84,1.28,-1.28,-1.32,-1.04,2.56,2.56,2.55
23.45,3.85,1.29,3.85,1.29,-1.29,-1.33,-1.07,2.56,2.56,2.55
23.69,3.86,1.30,3.86,1.31,-1.30,-1.35,-1.10,2.55,2.56,2.55
23.92,3.88,1.32,3.87,1.32,-1.32,-1.36,-1.13,2.56,2.56,2.55
24.16,3.89,1.33,3.89,1.33,-1.33,-1.38,-1.16,2.56,2.56,2.55
24.40,3.90,1.34,3.90,1.34,-1.34,-1.39,-1.19,2.55,2.55,2.56
24.65,3.91,1.35,3.91,1.35,-1.36,-1.40,-1.22,2.55,2.55,2.56
24.89,3.92,1.37,3.92,1.37,-1.37,-1.42,-1.25,2.54,2.54,2.55
25.14,3.94,1.40,3.93,1.39,-1.39,-1.43,-1.28,2.55,2.54,2.54
25.39,3.95,1.41,3.95,1.41,-1.41,-1.45,-1.31,2.54,2.54,2.54
25.65,3.96,1.43,3.96,1.43,-1.42,-1.46,-1.35,2.53,2.54,2.53
25.91,3.98,1.45,3.97,1.44,-1.44,-1.47,-1.38,2.53,2.53,2.53
26.16,3.99,1.45,3.98,1.46,-1.46,-1.49,-1.41,2.53,2.53,2.53
26.43,4.00,1.47,4.00,1.47,-1.48,-1.50,-1.45,2.52,2.52,2.52
26.69,4.01,1.48,4.01,1.49,-1.49,-1.52,-1.48,2.52,2.52,2.52
26.96,4.03,1.50,4.02,1.51,-1.50,-1.53,-1.51,2.52,2.52,2.52
27.23,4.04,1.52,4.04,1.52,-1.52,-1.55,-1.55,2.52,2.52,2.51
27.50,4.05,1.54,4.05,1.53,-1.53,-1.56,-1.58,2.52,2.52,2.51
27.77,4.06,1.54,4.06,1.54,-1.54,-1.58,-1.61,2.51,2.51,2.52
28.05,4.07,1.55,4.07,1.55,-1.55,-1.59,-1.64,2.51,2.51,2.52
28.33,4.08,1.56,4.08,1.56,-1.56,-1.60,-1.67,2.51,2.51,2.52
28.62,4.09,1.57,4.09,1.57,-1.57,-1.62,-1.70,2.51,2.52,2.52
28.90,4.11,1.58,4.10,1.58,-1.58,-1.64,-1.73,2.53,2.52,2.52
29.19,4.12,1.59,4.11,1.59,-1.59,-1.65,-1.76,2.53,2.52,2.52
29.48,4.12,1.60,4.12,1.60,-1.59,-1.67,-1.79,2.52,2.53,2.52
29.78,4.13,1.61,4.13,1.60,-1.60,-1.68,-1.81,2.53,2.53,2.52
30.08,4.14,1.60,4.13,1.60,-1.60,-1.70,-1.84,2.53,2.53,2.54
30.38,4.14,1.61,4.14,1.61,-1.61,-1.71,-1.86,2.53,2.53,2.53
30.68,4.14,1.61,4.14,1.61,-1.61,-1.73,-1.88,2.52,2.52,2.52
30.99,4.14,1.61,4.14,1.62,-1.62,-1.75,-1.90,2.52,2.52,2.52
31.30,4.15,1.63,4.15,1.63,-1.63,-1.76,-1.92,2.52,2.51,2.52
31.61,4.16,1.64,4.16,1.64,-1.64,-1.78,-1.94,2.51,2.51,2.52
31.93,4.17,1.66,4.17,1.66,-1.66,-1.80,-1.96,2.51,2.51,2.51
32.24,4.18,1.67,4.18,1.68,-1.67,-1.82,-1.97,2.50,2.50,2.50
32.57,4.19,1.69,4.19,1.69,-1.69,-1.84,-1.99,2.50,2.50,2.49
32.89,4.21,1.72,4.20,1.71,-1.71,-1.85,-2.00,2.50,2.49,2.49
33.22,4.22,1.73,4.22,1.73,-1.73,-1.87,-2.01,2.49,2.49,2.49
33.55,4.23,1.74,4.23,1.75,-1.75,-1.89,-2.02,2.48,2.48,2.48
33.89,4.24,1.76,4.24,1.76,-1.76,-1.91,-2.03,2.47,2.47,2.47
34.23,4.25,1.79,4.25,1.78,-1.78,-1.93,-2.04,2.46,2.46,2.46
34.57,4.26,1.80,4.26,1.80,-1.80,-1.95,-2.05,2.46,2.46,2.46
34.92,4.27,1.82,4.27,1.82,-1.82,-1.97,-2.06,2.45,2.45,2.44
35.27,4.28,1.83,4.27,1.83,-1.83,-1.99,-2.07,2.44,2.44,2.45
35.62,4.28,1.86,4.28,1.85,-1.85,-2.01,-2.08,2.42,2.43,2.42
35.97,4.29,1.87,4.29,1.87,-1.87,-2.03,-2.09,2.42,2.42,2.41
36.33,4.30,1.90,4.29,1.89,-1.89,-2.05,-2.09,2.41,2.40,2.40
36.70,4.30,1.91,4.30,1.91,-1.91,-2.07,-2.10,2.38,2.39,2.39
37.06,4.31,1.93,4.31,1.93,-1.94,-2.09,-2.11,2.37,2.37,2.37
37.43,4.32,1.96,4.32,1.96,-1.96,-2.12,-2.12,2.36,2.35,2.36
37.81,4.33,1.98,4.33,1.99,-1.99,-2.14,-2.13,2.34,2.34,2.35
38.19,4.35,2.02,4.34,2.02,-2.02,-2.16,-2.14,2.33,2.33,2.32
38.57,4.36,2.05,4.36,2.05,-2.05,-2.18,-2.15,2.31,2.31,2.31
38.95,4.37,2.08,4.37,2.08,-2.08,-2.21,-2.17,2.29,2.29,2.28
39.34,4.38,2.12,4.38,2.11,-2.11,-2.23,-2.18,2.26,2.26,2.26
39.74,4.39,2.14,4.39,2.15,-2.15,-2.26,-2.19,2.24,2.24,2.24
40.14,4.41,2.19,4.40,2.18,-2.18,-2.28,-2.21,2.22,2.22,2.22
40.54,4.42,2.21,4.42,2.22,-2.22,-2.30,-2.23,2.20,2.20,2.20
40.94,4.44,2.26,4.43,2.25,-2.25,-2.33,-2.25,2.19,2.18,2.18
41.35,4.45,2.28,4.45,2.28,-2.28,-2.35,-2.27,2.16,2.16,2.16
41.76,4.46,2.31,4.46,2.31,-2.32,-2.38,-2.29,2.14,2.14,2.15
42.18,4.48,2.35,4.47,2.35,-2.35,-2.41,-2.31,2.13,2.12,2.13
42.60,4.49,2.38,4.49,2.38,-2.38,-2.43,-2.34,2.10,2.10,2.10
43.03,4.50,2.42,4.50,2.42,-2.41,-2.46,-2.37,2.08,2.08,2.08
43.46,4.51,2.45,4.51,2.45,-2.45,-2.48,-2.40,2.06,2.06,2.06
43.90,4.52,2.48,4.52,2.48,-2.48,-2.51,-2.43,2.04,2.04,2.03
44.33,4.53,2.51,4.53,2.51,-2.51,-2.54,-2.46,2.01,2.01,2.02
44.78,4.54,2.55,4.53,2.54,-2.55,-2.57,-2.49,1.99,1.99,1.99
45.23,4.54,2.57,4.54,2.58,-2.58,-2.59,-2.53,1.96,1.96,1.97
45.68,4.55,2.61,4.54,2.61,-2.61,-2.62,-2.57,1.94,1.93,1.93
46.13,4.55,2.65,4.55,2.65,-2.64,-2.65,-2.61,1.90,1.90,1.89
46.60,4.55,2.68,4.55,2.68,-2.68,-2.68,-2.65,1.87,1.87,1.87
47.06,4.55,2.71,4.54,2.71,-2.71,-2.71,-2.69,1.84,1.83,1.84
47.53,4.54,2.73,4.54,2.74,-2.74,-2.74,-2.74,1.79,1.80,1.81
48.01,4.54,2.78,4.54,2.77,-2.78,-2.77,-2.78,1.76,1.76,1.76
48.49,4.54,2.81,4.53,2.81,-2.81,-2.80,-2.83,1.73,1.72,1.73
48.97,4.53,2.84,4.53,2.84,-2.84,-2.83,-2.88,1.69,1.69,1.69
49.46,4.53,2.87,4.52,2.87,-2.87,-2.86,-2.93,1.65,1.65,1.66
49.96,4.52,2.91,4.52,2.91,-2.90,-2.89,-2.98,1.61,1.61,1.60
50.46,4.52,2.93,4.52,2.94,-2.94,-2.92,-3.03,1.58,1.58,1.58
50.96,4.52,2.97,4.52,2.97,-2.97,-2.95,-3.09,1.55,1.55,1.55
51.47,4.52,3.00,4.52,3.00,-3.00,-2.99,-3.14,1.52,1.52,1.52
51.99,4.52,3.03,4.52,3.03,-3.03,-3.02,-3.19,1.48,1.48,1.48
52.51,4.52,3.07,4.52,3.06,-3.07,-3.05,-3.25,1.45,1.45,1.45
53.03,4.52,3.09,4.52,3.10,-3.10,-3.08,-3.31,1.42,1.42,1.43
53.56,4.52,3.13,4.52,3.13,-3.14,-3.12,-3.36,1.38,1.38,1.38
54.10,4.52,3.17,4.52,3.17,-3.17,-3.15,-3.42,1.34,1.34,1.35
54.64,4.52,3.20,4.52,3.21,-3.21,-3.18,-3.47,1.31,1.31,1.31
55.18,4.52,3.25,4.52,3.25,-3.24,-3.22,-3.52,1.27,1.27,1.27
55.74,4.52,3.29,4.52,3.28,-3.28,-3.25,-3.58,1.24,1.24,1.23
56.29,4.52,3.30,4.52,3.31,-3.31,-3.29,-3.63,1.21,1.21,1.21
56.86,4.52,3.33,4.52,3.34,-3.34,-3.32,-3.68,1.18,1.18,1.18
57.42,4.52,3.37,4.52,3.37,-3.36,-3.36,-3.73,1.15,1.15,1.15
58.00,4.52,3.40,4.52,3.39,-3.39,-3.39,-3.77,1.13,1.13,1.12
58.58,4.52,3.41,4.52,3.42,-3.42,-3.43,-3.82,1.10,1.10,1.11
59.16,4.52,3.44,4.52,3.44,-3.45,-3.46,-3.86,1.07,1.07,1.08
59.76,4.52,3.47,4.52,3.47,-3.48,-3.50,-3.90,1.03,1.03,1.05
60.35,4.52,3.51,4.52,3.51,-3.52,-3.53,-3.93,1.00,1.00,1.00
60.96,4.52,3.55,4.52,3.56,-3.56,-3.57,-3.97,0.96,0.96,0.96
61.57,4.52,3.61,4.52,3.60,-3.60,-3.61,-4.00,0.91,0.91,0.91
62.18,4.52,3.65,4.52,3.65,-3.65,-3.65,-4.02,0.87,0.87,0.87
62.80,4.52,3.70,4.52,3.70,-3.69,-3.68,-4.05,0.83,0.83,0.82
63.43,4.52,3.74,4.52,3.74,-3.73,-3.72,-4.07,0.78,0.78,0.78
64.07,4.52,3.78,4.52,3.78,-3.77,-3.76,-4.08,0.74,0.74,0.74
64.71,4.52,3.81,4.52,3.81,-3.81,-3.80,-4.10,0.70,0.70,0.70
65.35,4.52,3.85,4.52,3.85,-3.85,-3.83,-4.11,0.66,0.66,0.67
66.01,4.52,3.89,4.52,3.89,-3.89,-3.87,-4.12,0.63,0.63,0.63
66.67,4.52,3.92,4.52,3.92,-3.93,-3.91,-4.12,0.59,0.59,0.60
67.33,4.52,3.97,4.52,3.96,-3.96,-3.95,-4.13,0.55,0.55,0.55
68.01,4.52,4.01,4.52,4.01,-4.00,-3.99,-4.13,0.51,0.51,0.51
68.69,4.52,4.05,4.52,4.05,-4.04,-4.03,-4.13,0.47,0.47,0.47
69.37,4.52,4.08,4.52,4.08,-4.08,-4.07,-4.13,0.43,0.43,0.44
70.07,4.52,4.11,4.52,4.12,-4.12,-4.11,-4.13,0.39,0.39,0.40
70.77,4.52,4.16,4.52,4.16,-4.16,-4.15,-4.12,0.35,0.35,0.36
71.48,4.52,4.20,4.52,4.20,-4.21,-4.19,-4.12,0.31,0.31,0.31
72.19,4.52,4.25,4.52,4.25,-4.25,-4.23,-4.12,0.27,0.27,0.27
72.91,4.52,4.28,4.52,4.29,-4.29,-4.27,-4.12,0.23,0.23,0.23
73.64,4.52,4.33,4.52,4.33,-4.32,-4.31,-4.11,0.19,0.19,0.18
74.38,4.52,4.37,4.52,4.37,-4.36,-4.35,-4.11,0.15,0.15,0.15
75.12,4.52,4.40,4.52,4.40,-4.40,-4.38,-4.11,0.12,0.12,0.12
75.87,4.52,4.43,4.52,4.43,-4.43,-4.42,-4.11,0.09,0.09,0.09
76.63,4.52,4.46,4.52,4.46,-4.46,-4.46,-4.12,0.05,0.05,0.06
77.40,4.52,4.49,4.52,4.49,-4.49,-4.50,-4.12,0.03,0.03,0.03
78.17,4.52,4.52,4.52,4.52,-4.52,-4.54,-4.13,-0.00,-0.00,-0.01
78.95,4.52,4.55,4.52,4.55,-4.55,-4.58,-4.13,-0.03,-0.03,-0.03
79.74,4.52,4.57,4.52,4.57,-4.57,-4.62,-4.14,-0.06,-0.06,-0.05
80.54,4.52,4.61,4.52,4.60,-4.60,-4.66,-4.16,-0.09,-0.09,-0.09
81.35,4.52,4.63,4.52,4.63,-4.63,-4.70,-4.17,-0.12,-0.12,-0.12
82.16,4.52,4.66,4.52,4.66,-4.66,-4.73,-4.19,-0.15,-0.15,-0.14
82.98,4.52,4.69,4.52,4.69,-4.70,-4.77,-4.21,-0.18,-0.18,-0.18
83.81,4.52,4.73,4.52,4.73,-4.73,-4.81,-4.24,-0.21,-0.21,-0.22
84.65,4.52,4.76,4.52,4.77,-4.76,-4.84,-4.27,-0.25,-0.25,-0.25
85.50,4.52,4.80,4.52,4.80,-4.80,-4.88,-4.30,-0.28,-0.28,-0.29
86.35,4.52,4.83,4.52,4.83,-4.83,-4.91,-4.33,-0.32,-0.32,-0.32
87.22,4.52,4.86,4.52,4.87,-4.87,-4.95,-4.37,-0.35,-0.35,-0.35
88.09,4.52,4.90,4.52,4.90,-4.90,-4.98,-4.41,-0.39,-0.39,-0.39
88.97,4.52,4.94,4.52,4.94,-4.94,-5.02,-4.45,-0.42,-0.42,-0.42
89.86,4.52,4.98,4.52,4.98,-4.97,-5.05,-4.50,-0.46,-0.46,-0.46
90.76,4.52,5.01,4.52,5.01,-5.01,-5.08,-4.55,-0.49,-0.49,-0.50
91.66,4.52,5.05,4.52,5.05,-5.04,-5.12,-4.60,-0.53,-0.53,-0.53
92.58,4.52,5.08,4.52,5.08,-5.08,-5.15,-4.66,-0.57,-0.57,-0.56
93.51,4.52,5.12,4.52,5.12,-5.12,-5.18,-4.72,-0.60,-0.60,-0.60
94.44,4.52,5.15,4.52,5.15,-5.16,-5.21,-4.79,-0.64,-0.64,-0.63
95.39,4.52,5.20,4.52,5.20,-5.20,-5.24,-4.85,-0.68,-0.68,-0.68
96.34,4.52,5.24,4.52,5.24,-5.24,-5.27,-4.92,-0.72,-0.72,-0.73
97.30,4.52,5.28,4.52,5.28,-5.28,-5.30,-4.99,-0.76,-0.76,-0.76
98.28,4.52,5.32,4.52,5.32,-5.32,-5.33,-5.07,-0.80,-0.80,-0.80
99.26,4.52,5.36,4.52,5.36,-5.36,-5.36,-5.15,-0.84,-0.84,-0.85
100.25,4.52,5.40,4.52,5.39,-5.39,-5.39,-5.22,-0.87,-0.87,-0.88
101.25,4.52,5.42,4.52,5.43,-5.42,-5.42,-5.31,-0.91,-0.91,-0.90
102.27,4.52,5.46,4.52,5.46,-5.46,-5.44,-5.39,-0.94,-0.94,-0.94
103.29,4.52,5.49,4.52,5.49,-5.49,-5.47,-5.47,-0.97,-0.97,-0.98
104.32,4.52,5.51,4.52,5.52,-5.52,-5.50,-5.56,-1.00,-1.00,-1.00
105.37,4.52,5.55,4.52,5.55,-5.55,-5.53,-5.64,-1.03,-1.03,-1.03
106.42,4.52,5.58,4.52,5.58,-5.58,-5.55,-5.73,-1.06,-1.06,-1.06
107.48,4.52,5.62,4.52,5.61,-5.61,-5.58,-5.82,-1.10,-1.10,-1.10
108.56,4.52,5.64,4.52,5.64,-5.64,-5.61,-5.90,-1.13,-1.13,-1.13
109.64,4.52,5.68,4.52,5.68,-5.68,-5.63,-5.99,-1.16,-1.16,-1.16
110.74,4.52,5.71,4.52,5.71,-5.71,-5.66,-6.07,-1.19,-1.19,-1.19
111.85,4.52,5.75,4.52,5.74,-5.75,-5.69,-6.15,-1.23,-1.23,-1.23
112.97,4.52,5.78,4.52,5.78,-5.78,-5.71,-6.23,-1.27,-1.27,-1.27
114.10,4.52,5.81,4.52,5.82,-5.82,-5.74,-6.30,-1.30,-1.30,-1.29
115.24,4.52,5.85,4.52,5.85,-5.86,-5.77,-6.37,-1.34,-1.34,-1.34
116.39,4.52,5.90,4.52,5.89,-5.89,-5.79,-6.43,-1.38,-1.38,-1.38
117.55,4.52,5.93,4.52,5.93,-5.93,-5.82,-6.50,-1.41,-1.41,-1.41
118.73,4.52,5.97,4.52,5.97,-5.96,-5.85,-6.55,-1.44,-1.44,-1.46
119.92,4.52,6.00,4.52,5.99,-5.99,-5.87,-6.60,-1.48,-1.48,-1.48
121.12,4.52,6.02,4.52,6.03,-6.02,-5.90,-6.64,-1.51,-1.51,-1.50
122.33,4.52,6.05,4.52,6.05,-6.05,-5.92,-6.68,-1.54,-1.54,-1.54
123.55,4.52,6.09,4.52,6.08,-6.08,-5.95,-6.71,-1.57,-1.57,-1.57
124.79,4.52,6.11,4.52,6.11,-6.12,-5.97,-6.73,-1.60,-1.60,-1.59
126.03,4.52,6.15,4.52,6.15,-6.16,-6.00,-6.75,-1.64,-1.64,-1.63
127.29,4.52,6.18,4.52,6.18,-6.19,-6.02,-6.76,-1.68,-1.68,-1.67
128.57,4.53,6.22,4.53,6.23,-6.23,-6.05,-6.76,-1.71,-1.71,-1.70
129.85,4.54,6.27,4.54,6.27,-6.27,-6.07,-6.76,-1.74,-1.74,-1.74
131.15,4.55,6.32,4.54,6.32,-6.31,-6.10,-6.75,-1.76,-1.77,-1.77
132.46,4.55,6.36,4.54,6.36,-6.34,-6.12,-6.73,-1.80,-1.80,-1.81
133.79,4.54,6.39,4.54,6.39,-6.37,-6.15,-6.71,-1.84,-1.84,-1.85
135.12,4.52,6.40,4.52,6.40,-6.40,-6.17,-6.68,-1.88,-1.88,-1.89
136.48,4.51,6.41,4.50,6.41,-6.41,-6.19,-6.65,-1.91,-1.91,-1.90
137.84,4.48,6.41,4.48,6.42,-6.42,-6.22,-6.62,-1.95,-1.94,-1.94
139.22,4.46,6.44,4.45,6.43,-6.43,-6.24,-6.58,-1.97,-1.97,-1.98
140.61,4.43,6.43,4.42,6.43,-6.43,-6.26,-6.54,-2.00,-2.01,-2.01
142.02,4.38,6.42,4.39,6.43,-6.42,-6.29,-6.50,-2.04,-2.03,-2.04
143.44,4.36,6.43,4.35,6.41,-6.41,-6.31,-6.46,-2.06,-2.06,-2.07
144.87,4.32,6.40,4.32,6.40,-6.40,-6.33,-6.41,-2.09,-2.09,-2.08
146.32,4.29,6.40,4.29,6.40,-6.40,-6.35,-6.37,-2.11,-2.11,-2.11
147.78,4.26,6.39,4.25,6.39,-6.39,-6.38,-6.32,-2.13,-2.14,-2.13
149.26,4.23,6.39,4.23,6.38,-6.39,-6.40,-6.28,-2.16,-2.16,-2.16
150.75,4.20,6.38,4.20,6.38,-6.39,-6.42,-6.24,-2.19,-2.19,-2.19
152.26,4.19,6.39,4.18,6.39,-6.40,-6.44,-6.19,-2.21,-2.22,-2.20
153.78,4.18,6.41,4.18,6.41,-6.42,-6.46,-6.16,-2.24,-2.24,-2.23
155.32,4.18,6.43,4.18,6.43,-6.44,-6.48,-6.12,-2.27,-2.27,-2.25
156.88,4.19,6.46,4.19,6.47,-6.47,-6.50,-6.08,-2.29,-2.29,-2.28
158.44,4.20,6.51,4.20,6.51,-6.51,-6.52,-6.05,-2.31,-2.31,-2.31
160.03,4.22,6.55,4.21,6.55,-6.54,-6.54,-6.02,-2.32,-2.33,-2.33
161.63,4.22,6.58,4.21,6.58,-6.57,-6.56,-6.00,-2.36,-2.36,-2.37
163.24,4.21,6.61,4.21,6.61,-6.60,-6.58,-5.98,-2.40,-2.39,-2.41
164.88,4.20,6.63,4.20,6.63,-6.63,-6.59,-5.96,-2.43,-2.43,-2.44
166.53,4.18,6.64,4.18,6.65,-6.64,-6.61,-5.95,-2.47,-2.46,-2.47
168.19,4.17,6.66,4.16,6.66,-6.65,-6.63,-5.94,-2.49,-2.49,-2.49
169.87,4.13,6.66,4.13,6.66,-6.66,-6.64,-5.93,-2.53,-2.52,-2.53
171.57,4.11,6.66,4.10,6.66,-6.66,-6.66,-5.93,-2.55,-2.56,-2.56
173.29,4.07,6.66,4.06,6.66,-6.66,-6.68,-5.94,-2.59,-2.60,-2.59
175.02,4.03,6.66,4.03,6.66,-6.66,-6.69,-5.94,-2.63,-2.63,-2.63
176.77,3.99,6.65,3.99,6.65,-6.66,-6.71,-5.96,-2.67,-2.66,-2.66
178.54,3.97,6.65,3.96,6.66,-6.66,-6.72,-5.97,-2.69,-2.70,-2.69
180.32,3.94,6.67,3.93,6.66,-6.67,-6.73,-5.99,-2.73,-2.73,-2.73
182.13,3.91,6.67,3.91,6.67,-6.68,-6.74,-6.02,-2.77,-2.77,-2.76
183.95,3.89,6.68,3.89,6.69,-6.69,-6.76,-6.05,-2.81,-2.81,-2.80
185.79,3.88,6.71,3.87,6.71,-6.72,-6.77,-6.08,-2.84,-2.84,-2.84
187.65,3.87,6.73,3.87,6.74,-6.74,-6.78,-6.12,-2.88,-2.88,-2.87
189.52,3.87,6.77,3.87,6.77,-6.77,-6.79,-6.17,-2.91,-2.90,-2.91
191.42,3.88,6.81,3.87,6.80,-6.80,-6.80,-6.21,-2.93,-2.93,-2.94
193.33,3.87,6.83,3.87,6.84,-6.83,-6.80,-6.26,-2.96,-2.96,-2.96
195.27,3.86,6.86,3.86,6.86,-6.85,-6.81,-6.32,-2.99,-2.99,-3.00
197.22,3.85,6.89,3.84,6.88,-6.87,-6.82,-6.38,-3.02,-3.02,-3.04
199.19,3.83,6.88,3.82,6.89,-6.88,-6.82,-6.44,-3.05,-3.05,-3.06
201.18,3.80,6.89,3.80,6.89,-6.88,-6.83,-6.50,-3.08,-3.08,-3.09
203.19,3.77,6.87,3.76,6.87,-6.88,-6.83,-6.57,-3.11,-3.12,-3.11
205.23,3.73,6.86,3.73,6.86,-6.87,-6.83,-6.64,-3.15,-3.14,-3.13
207.28,3.70,6.84,3.70,6.85,-6.86,-6.84,-6.71,-3.17,-3.16,-3.15
209.35,3.68,6.86,3.67,6.85,-6.85,-6.83,-6.78,-3.18,-3.18,-3.18
211.44,3.65,6.85,3.65,6.85,-6.84,-6.83,-6.86,-3.20,-3.20,-3.21
213.56,3.62,6.84,3.61,6.84,-6.83,-6.83,-6.93,-3.21,-3.22,-3.22
215.69,3.58,6.82,3.58,6.82,-6.82,-6.83,-7.01,-3.25,-3.25,-3.24
217.85,3.54,6.80,3.54,6.81,-6.81,-6.82,-7.08,-3.28,-3.27,-3.26
220.03,3.52,6.80,3.51,6.80,-6.81,-6.81,-7.15,-3.29,-3.30,-3.29
222.23,3.49,6.79,3.48,6.79,-6.80,-6.80,-7.22,-3.31,-3.31,-3.31
224.45,3.46,6.79,3.46,6.79,-6.79,-6.79,-7.29,-3.33,-3.33,-3.33
226.70,3.44,6.78,3.44,6.78,-6.78,-6.78,-7.36,-3.34,-3.34,-3.34
228.96,3.42,6.77,3.41,6.77,-6.76,-6.76,-7.42,-3.34,-3.35,-3.35
231.25,3.39,6.76,3.38,6.75,-6.74,-6.74,-7.48,-3.35,-3.36,-3.37
233.57,3.35,6.73,3.34,6.73,-6.71,-6.72,-7.53,-3.37,-3.37,-3.38
235.90,3.29,6.69,3.29,6.69,-6.68,-6.70,-7.58,-3.39,-3.39,-3.40
238.26,3.25,6.65,3.24,6.64,-6.64,-6.67,-7.62,-3.40,-3.40,-3.41
240.64,3.20,6.59,3.19,6.60,-6.60,-6.65,-7.65,-3.41,-3.41,-3.40
243.05,3.15,6.55,3.15,6.56,-6.56,-6.61,-7.68,-3.41,-3.42,-3.40
245.48,3.10,6.52,3.10,6.51,-6.52,-6.58,-7.69,-3.42,-3.42,-3.42
247.93,3.05,6.48,3.05,6.47,-6.48,-6.55,-7.71,-3.43,-3.43,-3.43
250.41,3.02,6.43,3.01,6.44,-6.44,-6.51,-7.71,-3.43,-3.43,-3.42
252.92,2.99,6.40,2.99,6.41,-6.41,-6.47,-7.70,-3.42,-3.42,-3.41
255.45,2.97,6.39,2.97,6.38,-6.38,-6.43,-7.69,-3.41,-3.41,-3.42
258.00,2.95,6.36,2.94,6.36,-6.35,-6.40,-7.67,-3.41,-3.41,-3.42
260.58,2.92,6.34,2.92,6.34,-6.33,-6.36,-7.64,-3.41,-3.41,-3.42
263.19,2.90,6.32,2.89,6.31,-6.31,-6.33,-7.61,-3.41,-3.42,-3.42
265.82,2.86,6.28,2.86,6.29,-6.29,-6.30,-7.56,-3.44,-3.43,-3.43
268.48,2.85,6.27,2.85,6.27,-6.29,-6.28,-7.52,-3.44,-3.44,-3.42
271.16,2.85,6.27,2.85,6.27,-6.28,-6.26,-7.46,-3.44,-3.43,-3.43
273.87,2.86,6.28,2.86,6.29,-6.28,-6.26,-7.40,-3.43,-3.42,-3.42
276.61,2.89,6.31,2.88,6.31,-6.30,-6.27,-7.34,-3.41,-3.42,-3.43
279.38,2.90,6.34,2.89,6.33,-6.32,-6.29,-7.28,-3.42,-3.43,-3.44
282.17,2.92,6.34,2.92,6.35,-6.35,-6.32,-7.21,-3.44,-3.43,-3.43
284.99,2.96,6.38,2.96,6.39,-6.40,-6.37,-7.14,-3.44,-3.44,-3.42
287.84,3.03,6.44,3.02,6.44,-6.45,-6.43,-7.06,-3.42,-3.43,-3.42
290.72,3.09,6.52,3.09,6.51,-6.51,-6.50,-6.99,-3.43,-3.43,-3.43
293.63,3.17,6.59,3.17,6.59,-6.59,-6.59,-6.92,-3.42,-3.42,-3.43
296.57,3.26,6.67,3.25,6.67,-6.68,-6.68,-6.84,-3.42,-3.42,-3.41
299.53,3.35,6.76,3.35,6.76,-6.77,-6.77,-6.77,-3.43,-3.42,-3.41
302.53,3.47,6.87,3.46,6.87,-6.87,-6.88,-6.70,-3.41,-3.41,-3.41
305.55,3.59,6.99,3.59,6.99,-6.98,-6.99,-6.63,-3.39,-3.39,-3.40
308.61,3.71,7.10,3.71,7.10,-7.09,-7.10,-6.56,-3.38,-3.38,-3.39
311.69,3.84,7.22,3.82,7.21,-7.20,-7.21,-6.49,-3.37,-3.38,-3.39
314.81,3.93,7.31,3.94,7.31,-7.32,-7.32,-6.43,-3.39,-3.38,-3.38
317.96,4.05,7.42,4.05,7.42,-7.43,-7.43,-6.37,-3.38,-3.38,-3.37
321.14,4.16,7.52,4.16,7.53,-7.54,-7.53,-6.32,-3.38,-3.37,-3.37
324.35,4.28,7.64,4.28,7.63,-7.64,-7.63,-6.26,-3.36,-3.36,-3.37
327.59,4.40,7.74,4.38,7.73,-7.73,-7.72,-6.22,-3.34,-3.35,-3.34
330.87,4.47,7.81,4.48,7.83,-7.82,-7.81,-6.17,-3.35,-3.34,-3.34
334.18,4.57,7.91,4.57,7.91,-7.89,-7.89,-6.13,-3.33,-3.32,-3.35
337.52,4.66,7.98,4.64,7.97,-7.96,-7.95,-6.09,-3.30,-3.32,-3.33
340.90,4.70,8.02,4.70,8.02,-8.01,-8.00,-6.06,-3.31,-3.31,-3.32
344.30,4.73,8.04,4.73,8.04,-8.04,-8.04,-6.04,-3.31,-3.31,-3.31
347.75,4.75,8.05,4.75,8.05,-8.06,-8.06,-6.01,-3.31,-3.31,-3.30
351.23,4.77,8.06,4.77,8.06,-8.07,-8.07,-5.99,-3.30,-3.30,-3.30
354.74,4.78,8.05,4.77,8.06,-8.06,-8.06,-5.98,-3.28,-3.29,-3.28
358.28,4.77,8.05,4.76,8.04,-8.04,-8.04,-5.97,-3.27,-3.28,-3.28
361.87,4.74,8.02,4.74,8.01,-8.01,-8.01,-5.97,-3.27,-3.27,-3.28
365.49,4.71,7.97,4.71,7.97,-7.96,-7.96,-5.96,-3.26,-3.26,-3.26
369.14,4.67,7.92,4.67,7.92,-7.91,-7.91,-5.97,-3.25,-3.25,-3.25
372.83,4.62,7.86,4.61,7.86,-7.85,-7.84,-5.98,-3.24,-3.25,-3.25
376.56,4.54,7.78,4.54,7.78,-7.79,-7.78,-5.99,-3.25,-3.25,-3.25
380.33,4.46,7.70,4.47,7.71,-7.72,-7.70,-6.01,-3.26,-3.25,-3.24
384.13,4.40,7.63,4.40,7.63,-7.64,-7.63,-6.03,-3.24,-3.24,-3.23
387.97,4.35,7.57,4.34,7.56,-7.56,-7.55,-6.05,-3.22,-3.23,-3.22
391.85,4.28,7.48,4.28,7.49,-7.48,-7.47,-6.08,-3.21,-3.21,-3.20
395.77,4.21,7.41,4.21,7.41,-7.41,-7.39,-6.11,-3.20,-3.19,-3.20
399.73,4.15,7.34,4.14,7.33,-7.33,-7.31,-6.14,-3.18,-3.18,-3.20
403.72,4.08,7.25,4.07,7.25,-7.25,-7.24,-6.18,-3.17,-3.18,-3.18
407.76,4.00,7.16,4.00,7.17,-7.17,-7.16,-6.22,-3.18,-3.17,-3.17
411.84,3.93,7.09,3.93,7.09,-7.09,-7.09,-6.26,-3.17,-3.17,-3.16
415.96,3.87,7.02,3.86,7.01,-7.02,-7.02,-6.30,-3.15,-3.16,-3.15
420.12,3.80,6.95,3.80,6.95,-6.95,-6.95,-6.35,-3.15,-3.15,-3.15
424.32,3.74,6.88,3.74,6.88,-6.88,-6.88,-6.39,-3.14,-3.14,-3.14
428.56,3.69,6.81,3.68,6.81,-6.81,-6.82,-6.44,-3.13,-3.13,-3.12
432.85,3.64,6.74,3.63,6.74,-6.75,-6.75,-6.49,-3.11,-3.12,-3.10
437.18,3.57,6.68,3.58,6.68,-6.69,-6.69,-6.53,-3.12,-3.11,-3.11
441.55,3.53,6.63,3.53,6.63,-6.63,-6.63,-6.57,-3.10,-3.10,-3.11
445.96,3.49,6.58,3.48,6.58,-6.57,-6.57,-6.61,-3.08,-3.09,-3.10
450.42,3.44,6.52,3.43,6.52,-6.51,-6.51,-6.65,-3.07,-3.08,-3.09
454.93,3.38,6.45,3.38,6.45,-6.45,-6.46,-6.69,-3.08,-3.07,-3.08
459.48,3.33,6.39,3.32,6.39,-6.39,-6.40,-6.72,-3.07,-3.07,-3.07
464.07,3.27,6.31,3.27,6.33,-6.34,-6.34,-6.75,-3.07,-3.06,-3.05
468.71,3.23,6.28,3.23,6.27,-6.28,-6.29,-6.77,-3.05,-3.05,-3.05
473.40,3.19,6.23,3.18,6.22,-6.22,-6.24,-6.79,-3.03,-3.04,-3.04
478.13,3.14,6.17,3.14,6.17,-6.16,-6.18,-6.80,-3.02,-3.02,-3.03
482.91,3.09,6.11,3.09,6.11,-6.10,-6.13,-6.80,-3.02,-3.02,-3.02
487.74,3.04,6.05,3.04,6.05,-6.05,-6.08,-6.80,-3.01,-3.01,-3.01
492.62,2.99,5.99,2.99,5.99,-5.99,-6.02,-6.79,-3.01,-3.01,-3.00
497.55,2.94,5.93,2.94,5.93,-5.93,-5.97,-6.77,-3.00,-3.00,-2.99
