frequency,raw,error,smoothed,error_smoothed,equalization,parametric_eq,fixed_band_eq,equalized_raw,equalized_smoothed,target
20.00,-14.50,-14.92,-14.48,-14.90,6.00,4.97,2.87,-8.50,-8.48,0.42
20.20,-14.77,-15.23,-14.79,-15.25,6.00,5.02,2.95,-8.77,-8.79,0.46
20.40,-15.05,-15.55,-15.07,-15.57,6.00,5.07,3.04,-9.05,-9.07,0.49
20.61,-15.31,-15.84,-15.34,-15.86,6.00,5.12,3.13,-9.31,-9.34,0.52
20.81,-15.59,-16.15,-15.60,-16.15,6.00,5.17,3.21,-9.59,-9.60,0.55
21.02,-15.85,-16.43,-15.80,-16.39,6.00,5.21,3.31,-9.85,-9.80,0.58
21.23,-15.95,-16.55,-15.96,-16.56,6.00,5.26,3.40,-9.95,-9.96,0.60
21.44,-16.05,-16.66,-16.07,-16.69,6.00,5.30,3.50,-10.05,-10.07,0.61
21.66,-16.15,-16.77,-16.16,-16.78,6.00,5.35,3.60,-10.15,-10.16,0.62
21.87,-16.25,-16.88,-16.24,-16.87,6.00,5.39,3.70,-10.25,-10.24,0.63
22.09,-16.29,-16.93,-16.27,-16.91,6.00,5.44,3.81,-10.29,-10.27,0.64
22.31,-16.25,-16.90,-16.26,-16.91,6.00,5.48,3.91,-10.25,-10.26,0.65
22.54,-16.21,-16.86,-16.22,-16.87,6.00,5.52,4.03,-10.21,-10.22,0.65
22.76,-16.17,-16.82,-16.17,-16.83,6.00,5.56,4.14,-10.17,-10.17,0.65
22.99,-16.13,-16.78,-16.12,-16.77,6.00,5.60,4.26,-10.13,-10.12,0.65
23.22,-16.04,-16.70,-16.04,-16.70,6.00,5.64,4.38,-10.04,-10.04,0.66
23.45,-15.95,-16.61,-15.95,-16.62,6.00,5.67,4.50,-9.95,-9.95,0.66
23.69,-15.85,-16.52,-15.85,-16.52,6.00,5.71,4.62,-9.85,-9.85,0.67
23.92,-15.76,-16.43,-15.75,-16.43,6.00,5.74,4.75,-9.76,-9.75,0.67
24.16,-15.64,-16.32,-15.64,-16.32,6.00,5.77,4.88,-9.64,-9.64,0.68
24.40,-15.52,-16.20,-15.52,-16.20,6.00,5.80,5.01,-9.52,-9.52,0.68
24.65,-15.39,-16.06,-15.40,-16.07,6.00,5.83,5.15,-9.39,-9.40,0.67
24.89,-15.26,-15.92,-15.25,-15.91,6.00,5.86,5.28,-9.26,-9.25,0.67
25.14,-15.08,-15.74,-15.07,-15.73,6.00,5.88,5.42,-9.08,-9.07,0.67
25.39,-14.85,-15.50,-14.84,-15.50,6.00,5.91,5.56,-8.85,-8.84,0.66
25.65,-14.62,-15.28,-14.61,-15.26,6.00,5.93,5.70,-8.62,-8.61,0.66
25.91,-14.38,-15.03,-14.43,-15.07,6.00,5.94,5.84,-8.38,-8.43,0.65
26.16,-14.31,-14.95,-14.33,-14.97,6.00,5.96,5.98,-8.31,-8.33,0.63
26.43,-14.33,-14.96,-14.31,-14.94,6.00,5.97,6.12,-8.33,-8.31,0.63
26.69,-14.34,-14.96,-14.34,-14.97,6.00,5.99,6.26,-8.34,-8.34,0.62
26.96,-14.36,-14.98,-14.34,-14.96,6.00,5.99,6.39,-8.36,-8.34,0.62
27.23,-14.31,-14.92,-14.31,-14.92,6.00,6.00,6.52,-8.31,-8.31,0.61
27.50,-14.24,-14.85,-14.26,-14.87,6.00,6.01,6.65,-8.24,-8.26,0.61
27.77,-14.18,-14.77,-14.18,-14.77,6.00,6.01,6.78,-8.18,-8.18,0.59
28.05,-14.09,-14.68,-14.06,-14.65,6.00,6.01,6.90,-8.09,-8.06,0.59
28.33,-13.90,-14.48,-13.90,-14.48,6.00,6.00,7.01,-7.90,-7.90,0.58
28.62,-13.71,-14.28,-13.72,-14.29,6.00,6.00,7.12,-7.71,-7.72,0.57
28.90,-13.52,-14.09,-13.53,-14.10,6.00,5.99,7.22,-7.52,-7.53,0.57
29.19,-13.37,-13.93,-13.37,-13.94,6.00,5.98,7.31,-7.37,-7.37,0.56
29.48,-13.24,-13.80,-13.23,-13.79,6.00,5.97,7.39,-7.24,-7.23,0.57
29.78,-13.11,-13.67,-13.11,-13.66,6.00,5.96,7.47,-7.11,-7.11,0.55
30.08,-12.99,-13.54,-13.00,-13.54,6.00,5.95,7.53,-6.99,-7.00,0.54
30.38,-12.89,-13.42,-12.89,-13.43,6.00,5.93,7.58,-6.89,-6.89,0.53
30.68,-12.79,-13.32,-12.79,-13.32,6.00,5.91,7.61,-6.79,-6.79,0.53
30.99,-12.69,-13.21,-12.69,-13.21,6.00,5.90,7.64,-6.69,-6.69,0.52
31.30,-12.58,-13.10,-12.58,-13.10,6.00,5.88,7.65,-6.58,-6.58,0.52
31.61,-12.46,-12.98,-12.46,-12.98,6.00,5.87,7.65,-6.46,-6.46,0.52
31.93,-12.34,-12.85,-12.34,-12.84,6.00,5.85,7.64,-6.34,-6.34,0.51
32.24,-12.20,-12.68,-12.20,-12.70,6.00,5.84,7.61,-6.20,-6.20,0.49
32.57,-12.06,-12.55,-12.06,-12.55,6.00,5.82,7.57,-6.06,-6.06,0.48
32.89,-11.92,-12.41,-11.91,-12.40,6.00,5.81,7.53,-5.92,-5.91,0.49
33.22,-11.76,-12.24,-11.76,-12.24,6.00,5.80,7.47,-5.76,-5.76,0.48
33.55,-11.61,-12.09,-11.60,-12.08,6.00,5.79,7.40,-5.61,-5.60,0.48
33.89,-11.45,-11.92,-11.47,-11.94,6.00,5.79,7.33,-5.45,-5.47,0.47
34.23,-11.35,-11.82,-11.37,-11.83,6.00,5.78,7.24,-5.35,-5.37,0.47
34.57,-11.27,-11.72,-11.27,-11.73,6.00,5.78,7.16,-5.27,-5.27,0.45
34.92,-11.19,-11.64,-11.16,-11.61,6.00,5.78,7.06,-5.19,-5.16,0.45
35.27,-10.99,-11.44,-10.97,-11.42,6.00,5.78,6.96,-4.99,-4.97,0.45
35.62,-10.75,-11.19,-10.76,-11.20,6.00,5.77,6.86,-4.75,-4.76,0.44
35.97,-10.51,-10.95,-10.55,-10.99,6.00,5.77,6.75,-4.51,-4.55,0.44
36.33,-10.40,-10.83,-10.40,-10.83,6.00,5.77,6.64,-4.40,-4.40,0.43
36.70,-10.31,-10.73,-10.29,-10.71,6.00,5.77,6.53,-4.31,-4.29,0.42
37.06,-10.20,-10.61,-10.18,-10.59,6.00,5.77,6.42,-4.20,-4.18,0.41
37.43,-10.04,-10.44,-10.04,-10.44,6.00,5.77,6.31,-4.04,-4.04,0.41
37.81,-9.88,-10.27,-9.89,-10.29,6.00,5.77,6.20,-3.88,-3.89,0.39
38.19,-9.76,-10.14,-9.77,-10.16,6.00,5.77,6.09,-3.76,-3.77,0.38
38.57,-9.67,-10.05,-9.67,-10.04,6.00,5.77,5.98,-3.67,-3.67,0.38
38.95,-9.58,-9.94,-9.55,-9.92,6.00,5.77,5.87,-3.58,-3.55,0.37
39.34,-9.41,-9.76,-9.41,-9.76,6.00,5.77,5.76,-3.41,-3.41,0.35
39.74,-9.24,-9.58,-9.25,-9.60,6.00,5.76,5.66,-3.24,-3.25,0.34
40.14,-9.09,-9.44,-9.11,-9.45,6.00,5.76,5.56,-3.09,-3.11,0.35
40.54,-9.00,-9.33,-9.00,-9.33,6.00,5.76,5.47,-3.00,-3.00,0.33
40.94,-8.90,-9.23,-8.88,-9.21,6.00,5.76,5.37,-2.90,-2.88,0.33
41.35,-8.75,-9.07,-8.74,-9.06,6.00,5.76,5.28,-2.75,-2.74,0.32
41.76,-8.58,-8.89,-8.59,-8.90,6.00,5.76,5.19,-2.58,-2.59,0.31
42.18,-8.44,-8.74,-8.45,-8.75,6.00,5.76,5.11,-2.44,-2.45,0.30
42.60,-8.32,-8.60,-8.32,-8.61,6.00,5.76,5.03,-2.32,-2.32,0.28
43.03,-8.20,-8.47,-8.17,-8.44,6.00,5.77,4.95,-2.20,-2.17,0.27
43.46,-8.00,-8.25,-8.00,-8.24,6.00,5.78,4.88,-2.00,-2.00,0.25
43.90,-7.80,-8.01,-7.83,-8.04,6.00,5.79,4.81,-1.80,-1.83,0.21
44.33,-7.67,-7.86,-7.68,-7.87,6.00,5.81,4.75,-1.67,-1.68,0.19
44.78,-7.57,-7.73,-7.56,-7.72,6.00,5.83,4.68,-1.57,-1.56,0.16
45.23,-7.45,-7.59,-7.45,-7.59,6.00,5.85,4.63,-1.45,-1.45,0.14
45.68,-7.32,-7.43,-7.32,-7.44,6.00,5.88,4.57,-1.32,-1.32,0.11
46.13,-7.18,-7.27,-7.16,-7.26,6.00,5.90,4.52,-1.18,-1.16,0.10
46.60,-7.00,-7.09,-7.00,-7.09,6.00,5.93,4.47,-1.00,-1.00,0.09
47.06,-6.84,-6.91,-6.90,-6.97,6.00,5.96,4.43,-0.84,-0.90,0.07
47.53,-6.81,-6.87,-6.81,-6.88,6.00,5.98,4.39,-0.81,-0.81,0.06
48.01,-6.79,-6.85,-6.72,-6.78,6.02,5.99,4.35,-0.77,-0.70,0.06
48.49,-6.59,-6.65,-6.59,-6.64,6.03,5.99,4.32,-0.56,-0.57,0.06
48.97,-6.39,-6.43,-6.43,-6.47,6.03,5.98,4.28,-0.36,-0.40,0.04
49.46,-6.27,-6.30,-6.27,-6.31,6.02,5.94,4.26,-0.25,-0.25,0.03
49.96,-6.16,-6.19,-6.15,-6.18,5.99,5.89,4.23,-0.17,-0.16,0.03
50.46,-6.03,-6.08,-6.03,-6.07,5.93,5.81,4.20,-0.10,-0.10,0.05
50.96,-5.89,-5.94,-5.90,-5.94,5.84,5.72,4.18,-0.05,-0.05,0.05
51.47,-5.75,-5.79,-5.75,-5.79,5.73,5.61,4.16,-0.02,-0.02,0.04
51.99,-5.60,-5.63,-5.59,-5.62,5.61,5.49,4.14,0.01,0.02,0.03
52.51,-5.42,-5.45,-5.42,-5.44,5.48,5.36,4.13,0.06,0.06,0.03
53.03,-5.23,-5.24,-5.24,-5.26,5.34,5.22,4.11,0.11,0.10,0.01
53.56,-5.11,-5.10,-5.11,-5.11,5.20,5.08,4.10,0.09,0.09,-0.01
54.10,-5.01,-4.99,-5.04,-5.01,5.06,4.94,4.08,0.05,0.02,-0.02
54.64,-5.01,-4.96,-5.00,-4.94,4.93,4.81,4.07,-0.08,-0.07,-0.05
55.18,-4.97,-4.88,-4.94,-4.86,4.81,4.68,4.05,-0.16,-0.13,-0.09
55.74,-4.85,-4.73,-4.85,-4.74,4.68,4.55,4.04,-0.17,-0.17,-0.12
56.29,-4.72,-4.58,-4.73,-4.59,4.56,4.43,4.02,-0.16,-0.17,-0.14
56.86,-4.59,-4.42,-4.59,-4.42,4.42,4.31,4.01,-0.17,-0.17,-0.17
57.42,-4.46,-4.25,-4.46,-4.25,4.27,4.20,3.99,-0.19,-0.19,-0.21
58.00,-4.33,-4.09,-4.33,-4.09,4.11,4.09,3.97,-0.22,-0.22,-0.24
58.58,-4.20,-3.92,-4.20,-3.92,3.94,3.99,3.95,-0.26,-0.26,-0.28
59.16,-4.06,-3.76,-4.06,-3.76,3.76,3.89,3.92,-0.30,-0.30,-0.30
59.76,-3.93,-3.60,-3.93,-3.60,3.58,3.79,3.90,-0.35,-0.35,-0.33
60.35,-3.80,-3.42,-3.80,-3.42,3.41,3.70,3.87,-0.39,-0.39,-0.38
60.96,-3.66,-3.25,-3.66,-3.24,3.23,3.61,3.84,-0.44,-0.44,-0.41
61.57,-3.52,-3.05,-3.52,-3.06,3.04,3.52,3.80,-0.48,-0.48,-0.47
62.18,-3.38,-2.88,-3.38,-2.87,2.87,3.44,3.77,-0.51,-0.51,-0.50
62.80,-3.23,-2.69,-3.22,-2.68,2.69,3.36,3.72,-0.53,-0.53,-0.54
63.43,-3.09,-2.51,-3.09,-2.51,2.53,3.28,3.68,-0.56,-0.56,-0.58
64.07,-2.96,-2.35,-2.99,-2.38,2.39,3.20,3.63,-0.57,-0.60,-0.61
64.71,-2.92,-2.27,-2.90,-2.25,2.26,3.12,3.58,-0.66,-0.63,-0.65
65.35,-2.85,-2.17,-2.83,-2.15,2.16,3.05,3.53,-0.69,-0.67,-0.68
66.01,-2.74,-2.03,-2.78,-2.07,2.08,2.97,3.47,-0.66,-0.70,-0.72
66.67,-2.74,-2.01,-2.74,-2.00,2.02,2.90,3.41,-0.72,-0.72,-0.73
67.33,-2.74,-1.98,-2.73,-1.97,1.98,2.83,3.35,-0.76,-0.75,-0.76
68.01,-2.74,-1.96,-2.74,-1.96,1.94,2.76,3.29,-0.80,-0.80,-0.78
68.69,-2.74,-1.94,-2.74,-1.93,1.91,2.69,3.22,-0.83,-0.83,-0.80
69.37,-2.74,-1.91,-2.74,-1.91,1.89,2.63,3.15,-0.85,-0.85,-0.83
70.07,-2.74,-1.89,-2.74,-1.90,1.88,2.56,3.08,-0.86,-0.86,-0.85
70.77,-2.74,-1.88,-2.74,-1.88,1.87,2.49,3.00,-0.87,-0.87,-0.86
71.48,-2.74,-1.87,-2.73,-1.85,1.86,2.43,2.93,-0.88,-0.86,-0.87
72.19,-2.74,-1.84,-2.74,-1.84,1.86,2.36,2.85,-0.88,-0.88,-0.90
72.91,-2.74,-1.82,-2.79,-1.87,1.87,2.30,2.78,-0.87,-0.92,-0.92
73.64,-2.88,-1.93,-2.86,-1.91,1.90,2.24,2.70,-0.98,-0.96,-0.95
74.38,-2.96,-2.00,-2.91,-1.95,1.95,2.17,2.62,-1.01,-0.96,-0.96
75.12,-2.97,-1.98,-2.99,-2.00,2.03,2.11,2.55,-0.94,-0.96,-0.99
75.87,-3.02,-2.01,-3.08,-2.07,2.14,2.05,2.47,-0.88,-0.94,-1.01
76.63,-3.25,-2.22,-3.21,-2.17,2.28,1.99,2.39,-0.97,-0.93,-1.03
77.40,-3.41,-2.36,-3.40,-2.35,2.43,1.93,2.31,-0.98,-0.98,-1.05
78.17,-3.54,-2.47,-3.60,-2.54,2.55,1.87,2.23,-0.99,-1.05,-1.07
78.95,-3.80,-2.73,-3.75,-2.68,2.63,1.81,2.16,-1.17,-1.12,-1.07
79.74,-3.86,-2.78,-3.86,-2.78,2.64,1.75,2.08,-1.22,-1.21,-1.08
80.54,-3.87,-2.78,-3.90,-2.82,2.60,1.69,2.01,-1.27,-1.30,-1.09
81.35,-3.82,-2.73,-3.81,-2.72,2.52,1.63,1.93,-1.30,-1.29,-1.09
82.16,-3.65,-2.56,-3.55,-2.46,2.41,1.57,1.86,-1.24,-1.14,-1.09
82.98,-3.22,-2.14,-3.21,-2.13,2.26,1.52,1.78,-0.96,-0.95,-1.08
83.81,-2.78,-1.70,-2.92,-1.85,2.09,1.46,1.71,-0.69,-0.83,-1.08
84.65,-2.75,-1.68,-2.77,-1.70,1.91,1.40,1.64,-0.84,-0.86,-1.07
85.50,-2.81,-1.75,-2.76,-1.70,1.74,1.34,1.57,-1.07,-1.03,-1.06
86.35,-2.80,-1.75,-2.77,-1.72,1.58,1.28,1.50,-1.21,-1.19,-1.05
87.22,-2.68,-1.64,-2.64,-1.60,1.46,1.22,1.43,-1.22,-1.18,-1.04
88.09,-2.43,-1.40,-2.43,-1.40,1.36,1.16,1.36,-1.07,-1.07,-1.03
88.97,-2.17,-1.15,-2.24,-1.22,1.26,1.10,1.29,-0.91,-0.97,-1.02
89.86,-2.07,-1.07,-2.09,-1.08,1.14,1.03,1.23,-0.93,-0.94,-1.00
90.76,-2.03,-1.02,-1.99,-0.98,1.00,0.97,1.16,-1.03,-0.99,-1.01
91.66,-1.89,-0.89,-1.89,-0.88,0.83,0.90,1.10,-1.05,-1.05,-1.00
92.58,-1.74,-0.74,-1.73,-0.74,0.68,0.84,1.03,-1.06,-1.05,-1.00
93.51,-1.55,-0.56,-1.56,-0.57,0.55,0.77,0.97,-1.00,-1.01,-0.99
94.44,-1.39,-0.40,-1.39,-0.40,0.44,0.70,0.91,-0.95,-0.95,-0.99
95.39,-1.27,-0.28,-1.26,-0.26,0.34,0.62,0.85,-0.93,-0.92,-1.00
96.34,-1.14,-0.14,-1.18,-0.18,0.24,0.54,0.79,-0.90,-0.94,-1.00
97.30,-1.14,-0.14,-1.15,-0.14,0.14,0.46,0.73,-1.00,-1.00,-1.00
98.28,-1.14,-0.13,-1.10,-0.09,0.06,0.37,0.67,-1.08,-1.04,-1.01
99.26,-1.08,-0.06,-1.05,-0.03,-0.01,0.28,0.61,-1.09,-1.06,-1.02
100.25,-0.92,0.11,-0.98,0.04,-0.08,0.19,0.56,-1.00,-1.06,-1.03
101.25,-0.91,0.13,-0.91,0.13,-0.15,0.09,0.50,-1.06,-1.05,-1.04
102.27,-0.88,0.17,-0.83,0.22,-0.22,-0.01,0.45,-1.10,-1.05,-1.05
103.29,-0.76,0.32,-0.77,0.30,-0.29,-0.12,0.39,-1.05,-1.06,-1.08
104.32,-0.68,0.42,-0.71,0.39,-0.36,-0.23,0.34,-1.04,-1.07,-1.10
105.37,-0.68,0.44,-0.67,0.45,-0.42,-0.33,0.29,-1.10,-1.10,-1.12
106.42,-0.68,0.47,-0.67,0.49,-0.48,-0.43,0.24,-1.16,-1.15,-1.15
107.48,-0.68,0.52,-0.68,0.52,-0.53,-0.53,0.19,-1.21,-1.21,-1.20
108.56,-0.68,0.57,-0.68,0.57,-0.58,-0.60,0.14,-1.26,-1.26,-1.25
109.64,-0.68,0.61,-0.68,0.61,-0.63,-0.66,0.10,-1.31,-1.31,-1.29
110.74,-0.68,0.66,-0.68,0.66,-0.68,-0.70,0.05,-1.36,-1.36,-1.34
111.85,-0.68,0.70,-0.68,0.71,-0.73,-0.71,0.01,-1.41,-1.41,-1.38
112.97,-0.68,0.77,-0.68,0.76,-0.79,-0.71,-0.03,-1.47,-1.47,-1.45
114.10,-0.68,0.81,-0.68,0.81,-0.84,-0.69,-0.07,-1.52,-1.51,-1.49
115.24,-0.68,0.87,-0.67,0.88,-0.87,-0.66,-0.11,-1.55,-1.53,-1.55
116.39,-0.68,0.91,-0.69,0.91,-0.87,-0.62,-0.15,-1.55,-1.55,-1.59
117.55,-0.70,0.94,-0.73,0.91,-0.83,-0.57,-0.18,-1.54,-1.56,-1.64
118.73,-0.86,0.82,-0.82,0.85,-0.78,-0.53,-0.22,-1.64,-1.60,-1.68
119.92,-0.92,0.79,-0.96,0.75,-0.70,-0.49,-0.25,-1.62,-1.66,-1.71
121.12,-1.15,0.59,-1.13,0.61,-0.61,-0.45,-0.28,-1.76,-1.74,-1.74
122.33,-1.29,0.48,-1.30,0.46,-0.51,-0.41,-0.30,-1.80,-1.82,-1.77
123.55,-1.47,0.31,-1.47,0.32,-0.42,-0.38,-0.33,-1.89,-1.88,-1.78
124.79,-1.59,0.22,-1.55,0.26,-0.32,-0.36,-0.35,-1.91,-1.88,-1.81
126.03,-1.60,0.24,-1.60,0.24,-0.25,-0.34,-0.37,-1.85,-1.84,-1.84
127.29,-1.60,0.25,-1.63,0.22,-0.19,-0.32,-0.39,-1.79,-1.82,-1.85
128.57,-1.65,0.23,-1.69,0.20,-0.16,-0.30,-0.41,-1.81,-1.84,-1.88
129.85,-1.80,0.11,-1.75,0.15,-0.14,-0.29,-0.43,-1.94,-1.90,-1.91
131.15,-1.82,0.11,-1.81,0.12,-0.14,-0.28,-0.44,-1.96,-1.95,-1.93
132.46,-1.82,0.13,-1.83,0.12,-0.15,-0.28,-0.46,-1.97,-1.98,-1.95
133.79,-1.82,0.14,-1.82,0.15,-0.15,-0.27,-0.47,-1.97,-1.98,-1.96
135.12,-1.82,0.18,-1.82,0.17,-0.17,-0.26,-0.48,-1.99,-1.99,-2.00
136.48,-1.82,0.19,-1.82,0.19,-0.19,-0.26,-0.48,-2.01,-2.01,-2.01
137.84,-1.82,0.22,-1.82,0.22,-0.22,-0.26,-0.49,-2.04,-2.04,-2.04
139.22,-1.82,0.26,-1.82,0.25,-0.25,-0.26,-0.50,-2.07,-2.07,-2.08
140.61,-1.82,0.28,-1.82,0.27,-0.26,-0.25,-0.50,-2.08,-2.08,-2.10
142.02,-1.82,0.28,-1.81,0.31,-0.27,-0.25,-0.51,-2.09,-2.07,-2.10
143.44,-1.82,0.31,-1.82,0.31,-0.26,-0.25,-0.51,-2.08,-2.08,-2.13
144.87,-1.82,0.34,-1.87,0.29,-0.26,-0.24,-0.51,-2.08,-2.13,-2.16
146.32,-1.97,0.23,-1.95,0.24,-0.25,-0.24,-0.51,-2.22,-2.20,-2.20
147.78,-2.05,0.17,-2.02,0.21,-0.26,-0.24,-0.51,-2.31,-2.27,-2.22
149.26,-2.05,0.21,-2.06,0.20,-0.27,-0.23,-0.51,-2.32,-2.33,-2.26
150.75,-2.05,0.26,-2.06,0.25,-0.30,-0.22,-0.51,-2.35,-2.36,-2.31
152.26,-2.05,0.32,-2.05,0.32,-0.35,-0.22,-0.51,-2.40,-2.40,-2.37
153.78,-2.05,0.38,-2.05,0.38,-0.40,-0.21,-0.51,-2.45,-2.45,-2.43
155.32,-2.05,0.44,-2.04,0.45,-0.46,-0.20,-0.51,-2.51,-2.50,-2.49
156.88,-2.05,0.50,-2.04,0.51,-0.49,-0.19,-0.51,-2.54,-2.53,-2.55
158.44,-2.05,0.56,-2.06,0.55,-0.48,-0.17,-0.51,-2.53,-2.54,-2.61
160.03,-2.11,0.56,-2.12,0.54,-0.44,-0.16,-0.51,-2.55,-2.56,-2.67
161.63,-2.25,0.46,-2.25,0.47,-0.35,-0.14,-0.51,-2.60,-2.60,-2.71
163.24,-2.44,0.32,-2.45,0.31,-0.24,-0.12,-0.51,-2.68,-2.69,-2.76
164.88,-2.67,0.12,-2.69,0.11,-0.12,-0.10,-0.51,-2.79,-2.81,-2.79
166.53,-2.93,-0.11,-2.92,-0.09,0.00,-0.08,-0.51,-2.93,-2.91,-2.82
168.19,-3.12,-0.27,-3.09,-0.24,0.12,-0.06,-0.51,-3.00,-2.97,-2.85
169.87,-3.19,-0.32,-3.18,-0.32,0.22,-0.03,-0.51,-2.97,-2.96,-2.87
171.57,-3.19,-0.31,-3.20,-0.33,0.30,-0.00,-0.52,-2.89,-2.91,-2.88
173.29,-3.19,-0.32,-3.20,-0.32,0.34,0.03,-0.52,-2.85,-2.86,-2.87
175.02,-3.19,-0.32,-3.19,-0.32,0.36,0.06,-0.52,-2.83,-2.83,-2.87
176.77,-3.19,-0.31,-3.19,-0.32,0.35,0.10,-0.52,-2.84,-2.84,-2.88
178.54,-3.19,-0.32,-3.19,-0.32,0.34,0.14,-0.53,-2.85,-2.85,-2.87
180.32,-3.19,-0.32,-3.19,-0.32,0.33,0.18,-0.53,-2.86,-2.86,-2.87
182.13,-3.19,-0.33,-3.19,-0.33,0.32,0.22,-0.54,-2.87,-2.87,-2.86
183.95,-3.19,-0.32,-3.19,-0.33,0.31,0.26,-0.54,-2.88,-2.88,-2.87
185.79,-3.19,-0.33,-3.19,-0.32,0.30,0.30,-0.55,-2.89,-2.89,-2.86
187.65,-3.19,-0.31,-3.19,-0.31,0.31,0.35,-0.55,-2.88,-2.88,-2.88
189.52,-3.19,-0.29,-3.18,-0.29,0.32,0.39,-0.56,-2.87,-2.86,-2.90
191.42,-3.19,-0.28,-3.19,-0.28,0.33,0.43,-0.57,-2.86,-2.86,-2.91
193.33,-3.19,-0.27,-3.23,-0.31,0.35,0.47,-0.57,-2.84,-2.88,-2.92
195.27,-3.29,-0.36,-3.29,-0.36,0.36,0.51,-0.58,-2.92,-2.93,-2.93
197.22,-3.39,-0.45,-3.36,-0.41,0.38,0.54,-0.59,-3.01,-2.98,-2.94
199.19,-3.42,-0.45,-3.41,-0.45,0.40,0.57,-0.60,-3.02,-3.01,-2.97
201.18,-3.42,-0.44,-3.43,-0.44,0.41,0.59,-0.61,-3.01,-3.02,-2.98
203.19,-3.42,-0.43,-3.42,-0.42,0.42,0.61,-0.62,-3.00,-3.00,-2.99
205.23,-3.42,-0.41,-3.42,-0.41,0.42,0.62,-0.63,-3.00,-3.00,-3.01
207.28,-3.42,-0.40,-3.42,-0.39,0.40,0.63,-0.64,-3.02,-3.02,-3.02
209.35,-3.42,-0.38,-3.42,-0.37,0.39,0.62,-0.65,-3.03,-3.03,-3.04
211.44,-3.42,-0.35,-3.42,-0.36,0.36,0.61,-0.66,-3.06,-3.06,-3.07
213.56,-3.42,-0.34,-3.42,-0.34,0.34,0.58,-0.67,-3.08,-3.08,-3.08
215.69,-3.42,-0.34,-3.42,-0.33,0.33,0.55,-0.68,-3.09,-3.09,-3.08
217.85,-3.42,-0.32,-3.42,-0.32,0.32,0.51,-0.69,-3.10,-3.10,-3.10
220.03,-3.42,-0.31,-3.42,-0.31,0.31,0.47,-0.70,-3.11,-3.11,-3.11
222.23,-3.42,-0.29,-3.42,-0.29,0.31,0.41,-0.71,-3.11,-3.11,-3.13
224.45,-3.42,-0.29,-3.42,-0.29,0.31,0.35,-0.72,-3.11,-3.11,-3.13
226.70,-3.42,-0.28,-3.42,-0.29,0.30,0.29,-0.73,-3.12,-3.12,-3.14
228.96,-3.42,-0.29,-3.42,-0.29,0.30,0.22,-0.75,-3.12,-3.12,-3.13
231.25,-3.42,-0.29,-3.43,-0.30,0.28,0.15,-0.76,-3.14,-3.15,-3.13
233.57,-3.42,-0.28,-3.42,-0.29,0.26,0.07,-0.77,-3.16,-3.17,-3.14
235.90,-3.42,-0.28,-3.38,-0.24,0.22,-0.01,-0.78,-3.20,-3.16,-3.14
238.26,-3.31,-0.17,-3.33,-0.19,0.18,-0.09,-0.79,-3.13,-3.15,-3.14
240.64,-3.21,-0.08,-3.24,-0.11,0.12,-0.17,-0.80,-3.09,-3.12,-3.13
243.05,-3.19,-0.07,-3.15,-0.03,0.04,-0.25,-0.81,-3.15,-3.11,-3.12
245.48,-3.03,0.07,-3.05,0.05,-0.05,-0.33,-0.82,-3.08,-3.10,-3.10
247.93,-2.96,0.13,-2.94,0.15,-0.15,-0.41,-0.83,-3.11,-3.09,-3.09
250.41,-2.78,0.30,-2.81,0.27,-0.28,-0.49,-0.84,-3.06,-3.08,-3.08
252.92,-2.69,0.37,-2.69,0.37,-0.40,-0.57,-0.85,-3.09,-3.09,-3.06
255.45,-2.54,0.49,-2.52,0.52,-0.53,-0.65,-0.86,-3.07,-3.05,-3.03
258.00,-2.37,0.65,-2.36,0.65,-0.66,-0.72,-0.87,-3.03,-3.02,-3.02
260.58,-2.14,0.87,-2.18,0.82,-0.79,-0.80,-0.88,-2.93,-2.97,-3.01
263.19,-2.05,0.93,-2.02,0.97,-0.93,-0.87,-0.89,-2.98,-2.94,-2.98
265.82,-1.85,1.12,-1.88,1.09,-1.06,-0.94,-0.90,-2.91,-2.94,-2.97
268.48,-1.77,1.18,-1.77,1.18,-1.20,-1.02,-0.91,-2.97,-2.97,-2.95
271.16,-1.64,1.29,-1.62,1.31,-1.34,-1.09,-0.92,-2.98,-2.96,-2.92
273.87,-1.51,1.40,-1.48,1.42,-1.47,-1.16,-0.93,-2.98,-2.95,-2.91
276.61,-1.26,1.62,-1.31,1.58,-1.59,-1.23,-0.94,-2.85,-2.90,-2.88
279.38,-1.16,1.70,-1.14,1.72,-1.71,-1.30,-0.95,-2.87,-2.85,-2.86
282.17,-0.97,1.87,-0.97,1.87,-1.82,-1.37,-0.95,-2.79,-2.79,-2.84
284.99,-0.86,1.95,-0.85,1.96,-1.93,-1.45,-0.96,-2.79,-2.78,-2.81
287.84,-0.69,2.09,-0.73,2.05,-2.04,-1.52,-0.98,-2.73,-2.77,-2.78
290.72,-0.68,2.08,-0.66,2.10,-2.13,-1.59,-0.99,-2.81,-2.78,-2.76
293.63,-0.57,2.17,-0.55,2.18,-2.20,-1.67,-1.00,-2.77,-2.76,-2.74
296.57,-0.47,2.23,-0.44,2.26,-2.27,-1.74,-1.01,-2.74,-2.71,-2.70
299.53,-0.29,2.39,-0.33,2.36,-2.32,-1.82,-1.02,-2.61,-2.65,-2.68
302.53,-0.23,2.45,-0.26,2.40,-2.38,-1.90,-1.03,-2.61,-2.64,-2.68
305.55,-0.23,2.41,-0.19,2.46,-2.44,-1.98,-1.05,-2.67,-2.63,-2.64
308.61,-0.17,2.46,-0.15,2.48,-2.51,-2.07,-1.06,-2.68,-2.66,-2.63
311.69,-0.02,2.58,-0.07,2.53,-2.59,-2.15,-1.08,-2.61,-2.66,-2.60
314.81,0.00,2.58,0.03,2.61,-2.66,-2.24,-1.09,-2.66,-2.64,-2.58
317.96,0.14,2.72,0.14,2.72,-2.74,-2.32,-1.11,-2.60,-2.60,-2.58
321.14,0.23,2.81,0.26,2.83,-2.81,-2.41,-1.13,-2.58,-2.55,-2.58
324.35,0.41,2.99,0.38,2.95,-2.89,-2.50,-1.15,-2.48,-2.51,-2.58
327.59,0.46,3.02,0.43,3.00,-2.97,-2.59,-1.16,-2.51,-2.54,-2.56
330.87,0.46,3.01,0.47,3.03,-3.04,-2.68,-1.18,-2.58,-2.57,-2.55
334.18,0.46,3.01,0.51,3.06,-3.10,-2.76,-1.21,-2.64,-2.59,-2.55
337.52,0.59,3.13,0.57,3.11,-3.14,-2.85,-1.23,-2.55,-2.57,-2.54
340.90,0.66,3.18,0.64,3.16,-3.16,-2.92,-1.25,-2.50,-2.52,-2.52
344.30,0.68,3.18,0.69,3.19,-3.15,-2.99,-1.28,-2.47,-2.45,-2.50
347.75,0.68,3.16,0.69,3.17,-3.12,-3.06,-1.30,-2.44,-2.42,-2.48
351.23,0.68,3.14,0.65,3.11,-3.07,-3.11,-1.33,-2.39,-2.42,-2.46
354.74,0.58,3.02,0.60,3.04,-3.01,-3.15,-1.36,-2.43,-2.41,-2.44
358.28,0.48,2.89,0.51,2.92,-2.93,-3.18,-1.38,-2.45,-2.42,-2.41
361.87,0.46,2.85,0.40,2.80,-2.84,-3.20,-1.41,-2.38,-2.44,-2.39
365.49,0.29,2.66,0.32,2.69,-2.74,-3.21,-1.45,-2.45,-2.42,-2.37
369.14,0.24,2.60,0.27,2.62,-2.65,-3.20,-1.48,-2.41,-2.38,-2.36
372.83,0.23,2.57,0.23,2.56,-2.56,-3.18,-1.51,-2.33,-2.33,-2.34
376.56,0.23,2.55,0.19,2.51,-2.48,-3.15,-1.54,-2.25,-2.29,-2.32
380.33,0.14,2.43,0.13,2.42,-2.40,-3.10,-1.58,-2.26,-2.27,-2.29
384.13,0.03,2.30,0.06,2.34,-2.34,-3.05,-1.61,-2.31,-2.28,-2.27
387.97,0.00,2.27,0.01,2.28,-2.28,-3.00,-1.65,-2.28,-2.26,-2.27
391.85,0.00,2.26,-0.01,2.25,-2.22,-2.93,-1.69,-2.22,-2.23,-2.26
395.77,0.00,2.24,-0.03,2.22,-2.19,-2.87,-1.72,-2.19,-2.22,-2.24
399.73,-0.06,2.17,-0.07,2.17,-2.19,-2.80,-1.76,-2.25,-2.26,-2.23
403.72,-0.10,2.12,-0.06,2.16,-2.23,-2.73,-1.80,-2.33,-2.29,-2.22
407.76,-0.03,2.19,-0.02,2.20,-2.30,-2.66,-1.84,-2.33,-2.32,-2.22
411.84,0.13,2.34,0.09,2.29,-2.39,-2.59,-1.88,-2.26,-2.30,-2.21
415.96,0.22,2.42,0.26,2.46,-2.49,-2.52,-1.92,-2.27,-2.23,-2.20
420.12,0.41,2.60,0.44,2.63,-2.58,-2.46,-1.96,-2.17,-2.15,-2.19
424.32,0.64,2.83,0.59,2.77,-2.67,-2.39,-2.00,-2.03,-2.08,-2.19
428.56,0.68,2.86,0.68,2.86,-2.73,-2.33,-2.03,-2.05,-2.05,-2.18
