frequency,raw,error,smoothed,error_smoothed,equalization,parametric_eq,fixed_band_eq,equalized_raw,equalized_smoothed,target
20.00,1.09,-2.64,1.09,-2.64,2.64,2.39,0.24,3.72,3.72,3.72
20.20,1.16,-2.58,1.15,-2.58,2.58,2.34,0.25,3.74,3.73,3.73
20.40,1.22,-2.53,1.22,-2.52,2.52,2.30,0.26,3.74,3.74,3.74
20.61,1.28,-2.46,1.28,-2.46,2.46,2.24,0.26,3.75,3.75,3.74
20.81,1.35,-2.41,1.35,-2.40,2.40,2.19,0.27,3.75,3.75,3.75
21.02,1.42,-2.34,1.41,-2.34,2.34,2.13,0.28,3.76,3.76,3.75
21.23,1.48,-2.29,1.48,-2.28,2.28,2.07,0.29,3.76,3.76,3.76
21.44,1.54,-2.23,1.54,-2.22,2.22,2.01,0.30,3.76,3.76,3.76
21.66,1.61,-2.16,1.60,-2.16,2.16,1.94,0.30,3.77,3.76,3.76
21.87,1.67,-2.10,1.67,-2.10,2.10,1.87,0.31,3.77,3.77,3.76
22.09,1.74,-2.04,1.73,-2.04,2.03,1.80,0.32,3.77,3.77,3.77
22.31,1.80,-1.97,1.80,-1.97,1.97,1.73,0.33,3.77,3.77,3.77
22.54,1.86,-1.91,1.86,-1.90,1.90,1.66,0.34,3.76,3.76,3.76
22.76,1.92,-1.83,1.92,-1.84,1.84,1.59,0.35,3.75,3.75,3.75
22.99,1.99,-1.77,1.98,-1.77,1.77,1.52,0.36,3.75,3.75,3.75
23.22,2.05,-1.70,2.05,-1.70,1.70,1.45,0.37,3.74,3.75,3.75
23.45,2.12,-1.62,2.12,-1.63,1.63,1.38,0.38,3.74,3.74,3.74
23.69,2.19,-1.55,2.19,-1.56,1.55,1.31,0.39,3.74,3.74,3.74
23.92,2.26,-1.48,2.26,-1.48,1.48,1.24,0.40,3.74,3.74,3.74
24.16,2.33,-1.41,2.33,-1.41,1.41,1.17,0.41,3.74,3.74,3.74
24.40,2.40,-1.34,2.40,-1.34,1.34,1.10,0.42,3.74,3.74,3.74
24.65,2.47,-1.27,2.47,-1.27,1.27,1.04,0.43,3.74,3.74,3.74
24.89,2.54,-1.20,2.54,-1.20,1.21,0.97,0.44,3.75,3.74,3.74
25.14,2.60,-1.14,2.59,-1.14,1.15,0.90,0.45,3.75,3.74,3.74
25.39,2.65,-1.08,2.64,-1.09,1.09,0.84,0.46,3.74,3.74,3.73
25.65,2.69,-1.04,2.69,-1.04,1.04,0.78,0.47,3.72,3.73,3.73
25.91,2.74,-0.99,2.74,-0.99,0.98,0.72,0.48,3.72,3.72,3.73
26.16,2.79,-0.94,2.79,-0.94,0.93,0.66,0.49,3.72,3.72,3.73
26.43,2.85,-0.88,2.84,-0.88,0.88,0.60,0.50,3.73,3.73,3.72
26.69,2.90,-0.83,2.89,-0.83,0.83,0.54,0.50,3.73,3.73,3.72
26.96,2.95,-0.78,2.95,-0.78,0.78,0.48,0.51,3.73,3.73,3.72
27.23,3.00,-0.73,3.00,-0.72,0.72,0.42,0.51,3.72,3.72,3.72
27.50,3.06,-0.67,3.05,-0.67,0.67,0.37,0.52,3.72,3.72,3.72
27.77,3.11,-0.61,3.11,-0.61,0.60,0.31,0.52,3.71,3.71,3.72
28.05,3.17,-0.55,3.17,-0.55,0.54,0.26,0.52,3.70,3.71,3.72
28.33,3.25,-0.47,3.25,-0.47,0.47,0.21,0.52,3.71,3.71,3.72
28.62,3.32,-0.39,3.32,-0.40,0.39,0.16,0.52,3.72,3.72,3.72
28.90,3.41,-0.32,3.40,-0.32,0.32,0.11,0.52,3.73,3.73,3.73
29.19,3.48,-0.25,3.48,-0.25,0.26,0.06,0.51,3.73,3.73,3.73
29.48,3.55,-0.18,3.55,-0.18,0.19,0.01,0.50,3.74,3.75,3.73
29.78,3.62,-0.12,3.61,-0.12,0.14,-0.04,0.49,3.76,3.75,3.73
30.08,3.68,-0.06,3.66,-0.07,0.09,-0.09,0.48,3.76,3.75,3.73
30.38,3.70,-0.04,3.70,-0.04,0.04,-0.13,0.47,3.74,3.74,3.73
30.68,3.72,-0.02,3.72,-0.01,-0.00,-0.18,0.45,3.71,3.72,3.73
30.99,3.75,0.02,3.75,0.02,-0.05,-0.22,0.44,3.70,3.71,3.73
31.30,3.81,0.08,3.80,0.07,-0.09,-0.27,0.42,3.71,3.71,3.73
31.61,3.87,0.14,3.86,0.13,-0.14,-0.31,0.39,3.73,3.72,3.73
31.93,3.93,0.20,3.92,0.20,-0.19,-0.36,0.37,3.73,3.73,3.73
32.24,3.98,0.26,3.98,0.26,-0.25,-0.40,0.34,3.72,3.73,3.72
32.57,4.04,0.32,4.03,0.32,-0.32,-0.44,0.31,3.72,3.71,3.71
32.89,4.09,0.37,4.09,0.38,-0.39,-0.49,0.28,3.70,3.70,3.71
33.22,4.15,0.45,4.15,0.45,-0.45,-0.53,0.25,3.69,3.70,3.70
33.55,4.22,0.52,4.21,0.52,-0.52,-0.57,0.21,3.70,3.69,3.70
33.89,4.28,0.59,4.28,0.59,-0.58,-0.61,0.17,3.69,3.69,3.69
34.23,4.34,0.65,4.34,0.65,-0.65,-0.66,0.14,3.69,3.69,3.69
34.57,4.40,0.71,4.40,0.71,-0.71,-0.70,0.09,3.69,3.69,3.68
34.92,4.46,0.77,4.45,0.77,-0.76,-0.74,0.05,3.69,3.69,3.68
35.27,4.50,0.82,4.50,0.82,-0.81,-0.78,0.01,3.68,3.68,3.68
35.62,4.54,0.86,4.54,0.86,-0.86,-0.82,-0.04,3.67,3.68,3.68
35.97,4.59,0.91,4.58,0.90,-0.91,-0.86,-0.09,3.68,3.67,3.68
36.33,4.62,0.94,4.62,0.95,-0.95,-0.90,-0.14,3.67,3.67,3.67
36.70,4.66,0.98,4.66,0.99,-0.98,-0.95,-0.19,3.67,3.67,3.67
37.06,4.70,1.03,4.69,1.02,-1.02,-0.99,-0.24,3.67,3.67,3.67
37.43,4.73,1.06,4.73,1.06,-1.06,-1.03,-0.29,3.67,3.67,3.67
37.81,4.77,1.09,4.77,1.10,-1.10,-1.07,-0.34,3.67,3.67,3.67
38.19,4.81,1.13,4.81,1.14,-1.14,-1.11,-0.40,3.67,3.67,3.67
38.57,4.86,1.19,4.85,1.18,-1.18,-1.15,-0.46,3.68,3.68,3.67
38.95,4.90,1.22,4.90,1.22,-1.22,-1.19,-0.51,3.68,3.67,3.68
39.34,4.94,1.26,4.93,1.26,-1.27,-1.24,-0.57,3.67,3.66,3.67
39.74,4.97,1.30,4.97,1.30,-1.31,-1.28,-0.63,3.65,3.65,3.67
40.14,5.01,1.34,5.02,1.35,-1.36,-1.32,-0.69,3.65,3.66,3.67
40.54,5.08,1.41,5.08,1.41,-1.40,-1.36,-0.75,3.67,3.68,3.66
40.94,5.15,1.49,5.13,1.47,-1.44,-1.41,-0.81,3.70,3.68,3.66
41.35,5.16,1.50,5.16,1.50,-1.49,-1.45,-0.87,3.67,3.67,3.66
41.76,5.17,1.52,5.17,1.53,-1.53,-1.49,-0.94,3.64,3.64,3.64
42.18,5.19,1.55,5.19,1.55,-1.57,-1.53,-1.00,3.61,3.62,3.64
42.60,5.23,1.59,5.23,1.59,-1.61,-1.58,-1.07,3.61,3.61,3.63
43.03,5.27,1.64,5.27,1.64,-1.65,-1.62,-1.13,3.62,3.62,3.63
43.46,5.32,1.69,5.32,1.69,-1.68,-1.67,-1.20,3.64,3.63,3.63
43.90,5.36,1.74,5.35,1.73,-1.71,-1.71,-1.27,3.64,3.63,3.61
44.33,5.37,1.76,5.36,1.76,-1.74,-1.76,-1.34,3.62,3.62,3.61
44.78,5.37,1.76,5.38,1.78,-1.77,-1.80,-1.40,3.60,3.60,3.60
45.23,5.39,1.79,5.39,1.79,-1.80,-1.85,-1.48,3.59,3.59,3.60
45.68,5.42,1.82,5.41,1.82,-1.82,-1.89,-1.55,3.60,3.59,3.59
46.13,5.44,1.84,5.43,1.84,-1.84,-1.94,-1.62,3.60,3.59,3.60
46.60,5.45,1.86,5.45,1.86,-1.86,-1.98,-1.69,3.59,3.59,3.59
47.06,5.47,1.87,5.47,1.88,-1.88,-2.03,-1.77,3.58,3.59,3.59
47.53,5.51,1.91,5.51,1.91,-1.92,-2.08,-1.84,3.59,3.59,3.60
48.01,5.56,1.95,5.55,1.95,-1.95,-2.12,-1.92,3.60,3.60,3.60
48.49,5.60,1.99,5.60,1.99,-2.00,-2.17,-1.99,3.60,3.60,3.61
48.97,5.65,2.04,5.64,2.04,-2.04,-2.22,-2.07,3.61,3.60,3.61
49.46,5.70,2.08,5.70,2.08,-2.09,-2.27,-2.15,3.61,3.61,3.61
49.96,5.76,2.13,5.77,2.15,-2.14,-2.32,-2.23,3.62,3.63,3.62
50.46,5.84,2.21,5.84,2.21,-2.19,-2.37,-2.30,3.65,3.65,3.63
50.96,5.92,2.28,5.89,2.25,-2.25,-2.41,-2.38,3.67,3.64,3.64
51.47,5.94,2.30,5.94,2.30,-2.30,-2.46,-2.46,3.63,3.63,3.64
51.99,5.96,2.31,5.98,2.34,-2.36,-2.51,-2.54,3.60,3.62,3.64
52.51,6.05,2.40,6.04,2.40,-2.42,-2.56,-2.62,3.63,3.63,3.64
53.03,6.14,2.49,6.12,2.48,-2.48,-2.61,-2.70,3.66,3.64,3.64
53.56,6.20,2.55,6.19,2.55,-2.53,-2.66,-2.78,3.66,3.66,3.64
54.10,6.25,2.59,6.25,2.60,-2.59,-2.71,-2.85,3.66,3.66,3.66
54.64,6.30,2.64,6.30,2.64,-2.64,-2.76,-2.93,3.66,3.66,3.66
55.18,6.35,2.69,6.35,2.70,-2.69,-2.81,-3.00,3.66,3.66,3.65
55.74,6.40,2.75,6.39,2.74,-2.73,-2.86,-3.07,3.66,3.65,3.64
56.29,6.43,2.78,6.42,2.77,-2.78,-2.91,-3.14,3.65,3.64,3.64
56.86,6.43,2.79,6.44,2.80,-2.82,-2.97,-3.21,3.60,3.62,3.64
57.42,6.47,2.84,6.47,2.84,-2.86,-3.02,-3.28,3.60,3.61,3.63
58.00,6.52,2.90,6.52,2.90,-2.90,-3.07,-3.34,3.61,3.62,3.62
58.58,6.58,2.97,6.57,2.97,-2.94,-3.12,-3.40,3.63,3.63,3.60
59.16,6.62,3.03,6.60,3.01,-2.98,-3.17,-3.46,3.63,3.62,3.59
59.76,6.62,3.04,6.61,3.04,-3.03,-3.22,-3.52,3.59,3.58,3.58
60.35,6.62,3.06,6.62,3.06,-3.08,-3.27,-3.57,3.54,3.54,3.55
60.96,6.62,3.09,6.64,3.11,-3.13,-3.32,-3.61,3.48,3.51,3.53
61.57,6.68,3.17,6.67,3.16,-3.19,-3.37,-3.66,3.49,3.48,3.50
62.18,6.72,3.25,6.70,3.23,-3.24,-3.42,-3.70,3.47,3.45,3.47
62.80,6.72,3.28,6.74,3.31,-3.30,-3.47,-3.73,3.41,3.43,3.43
63.43,6.76,3.37,6.76,3.37,-3.37,-3.51,-3.77,3.39,3.40,3.39
64.07,6.81,3.46,6.79,3.44,-3.43,-3.56,-3.80,3.38,3.36,3.35
64.71,6.81,3.50,6.81,3.50,-3.48,-3.61,-3.82,3.32,3.32,3.30
65.35,6.81,3.54,6.81,3.55,-3.53,-3.66,-3.84,3.27,3.28,3.26
66.01,6.81,3.58,6.81,3.58,-3.58,-3.71,-3.86,3.23,3.23,3.22
66.67,6.81,3.62,6.81,3.62,-3.62,-3.75,-3.88,3.19,3.19,3.19
67.33,6.81,3.65,6.81,3.65,-3.65,-3.80,-3.89,3.15,3.15,3.16
68.01,6.81,3.69,6.81,3.69,-3.69,-3.84,-3.91,3.11,3.11,3.12
68.69,6.81,3.72,6.80,3.71,-3.73,-3.89,-3.91,3.07,3.07,3.09
69.37,6.81,3.75,6.81,3.76,-3.77,-3.93,-3.92,3.03,3.04,3.05
70.07,6.82,3.79,6.84,3.81,-3.82,-3.97,-3.93,3.00,3.02,3.02
70.77,6.89,3.90,6.87,3.88,-3.87,-4.01,-3.93,3.02,3.00,2.99
71.48,6.91,3.94,6.90,3.93,-3.92,-4.06,-3.94,2.99,2.98,2.97
72.19,6.91,3.97,6.91,3.98,-3.97,-4.10,-3.94,2.93,2.94,2.93
72.91,6.91,4.01,6.90,4.00,-4.03,-4.13,-3.95,2.88,2.88,2.90
73.64,6.91,4.04,6.92,4.05,-4.07,-4.17,-3.95,2.83,2.84,2.86
74.38,6.94,4.11,6.95,4.12,-4.12,-4.21,-3.96,2.82,2.83,2.83
75.12,7.00,4.20,6.97,4.18,-4.16,-4.25,-3.96,2.84,2.82,2.79
75.87,7.00,4.25,6.97,4.23,-4.20,-4.28,-3.97,2.80,2.78,2.75
76.63,6.94,4.23,6.95,4.24,-4.23,-4.32,-3.98,2.70,2.72,2.71
77.40,6.91,4.25,6.92,4.26,-4.27,-4.35,-3.99,2.63,2.65,2.66
78.17,6.91,4.28,6.90,4.28,-4.31,-4.38,-4.00,2.59,2.59,2.62
78.95,6.91,4.33,6.90,4.33,-4.35,-4.42,-4.02,2.56,2.55,2.57
79.74,6.91,4.37,6.91,4.37,-4.38,-4.45,-4.03,2.52,2.52,2.53
80.54,6.91,4.42,6.91,4.42,-4.41,-4.48,-4.05,2.49,2.49,2.48
81.35,6.91,4.46,6.91,4.47,-4.44,-4.51,-4.07,2.46,2.47,2.44
82.16,6.91,4.50,6.90,4.50,-4.47,-4.53,-4.10,2.43,2.43,2.40
82.98,6.91,4.55,6.88,4.52,-4.51,-4.56,-4.13,2.40,2.37,2.36
83.81,6.83,4.51,6.85,4.52,-4.54,-4.59,-4.16,2.29,2.31,2.32
84.65,6.81,4.52,6.82,4.53,-4.56,-4.61,-4.19,2.24,2.25,2.29
85.50,6.81,4.56,6.80,4.56,-4.59,-4.64,-4.23,2.22,2.21,2.24
86.35,6.81,4.61,6.81,4.61,-4.61,-4.66,-4.27,2.20,2.20,2.20
87.22,6.81,4.65,6.81,4.65,-4.63,-4.69,-4.31,2.17,2.18,2.15
88.09,6.81,4.70,6.79,4.68,-4.66,-4.71,-4.35,2.15,2.13,2.11
88.97,6.77,4.69,6.77,4.70,-4.69,-4.73,-4.40,2.08,2.07,2.07
89.86,6.73,4.70,6.74,4.71,-4.73,-4.76,-4.46,2.00,2.01,2.03
90.76,6.72,4.73,6.72,4.73,-4.76,-4.78,-4.51,1.96,1.96,1.98
91.66,6.72,4.77,6.71,4.77,-4.78,-4.80,-4.57,1.93,1.93,1.94
92.58,6.72,4.81,6.72,4.81,-4.80,-4.82,-4.64,1.91,1.91,1.91
93.51,6.72,4.86,6.72,4.86,-4.83,-4.84,-4.70,1.89,1.89,1.86
94.44,6.72,4.89,6.70,4.88,-4.86,-4.87,-4.77,1.86,1.85,1.82
95.39,6.69,4.90,6.67,4.89,-4.89,-4.89,-4.84,1.80,1.79,1.79
96.34,6.63,4.88,6.64,4.89,-4.92,-4.91,-4.92,1.71,1.72,1.75
97.30,6.62,4.91,6.63,4.92,-4.95,-4.93,-5.00,1.67,1.68,1.71
98.28,6.63,4.97,6.64,4.98,-4.98,-4.95,-5.08,1.65,1.66,1.66
99.26,6.69,5.07,6.66,5.03,-5.02,-4.98,-5.16,1.67,1.64,1.62
100.25,6.67,5.08,6.66,5.08,-5.07,-5.00,-5.24,1.60,1.59,1.58
101.25,6.65,5.10,6.66,5.12,-5.12,-5.02,-5.33,1.52,1.54,1.54
102.27,6.65,5.15,6.66,5.16,-5.18,-5.05,-5.42,1.46,1.47,1.49
103.29,6.69,5.24,6.68,5.23,-5.25,-5.07,-5.51,1.44,1.43,1.44
104.32,6.72,5.32,6.71,5.32,-5.32,-5.10,-5.60,1.40,1.40,1.39
105.37,6.75,5.39,6.76,5.40,-5.39,-5.12,-5.69,1.36,1.37,1.36
106.42,6.79,5.48,6.78,5.48,-5.47,-5.15,-5.78,1.32,1.32,1.31
107.48,6.82,5.56,6.79,5.54,-5.55,-5.18,-5.87,1.27,1.25,1.26
108.56,6.80,5.59,6.80,5.60,-5.62,-5.21,-5.95,1.17,1.18,1.21
109.64,6.80,5.64,6.83,5.67,-5.70,-5.24,-6.04,1.10,1.14,1.16
110.74,6.89,5.77,6.88,5.76,-5.76,-5.27,-6.12,1.13,1.12,1.12
111.85,6.94,5.86,6.91,5.83,-5.80,-5.30,-6.20,1.13,1.11,1.08
112.97,6.93,5.89,6.91,5.87,-5.83,-5.33,-6.28,1.09,1.08,1.04
114.10,6.86,5.85,6.87,5.87,-5.85,-5.37,-6.35,1.01,1.03,1.00
115.24,6.82,5.84,6.83,5.86,-5.85,-5.40,-6.41,0.97,0.98,0.97
116.39,6.79,5.85,6.78,5.84,-5.84,-5.43,-6.47,0.95,0.94,0.94
117.55,6.74,5.82,6.72,5.80,-5.81,-5.47,-6.52,0.93,0.91,0.92
118.73,6.65,5.76,6.65,5.76,-5.77,-5.50,-6.57,0.87,0.88,0.89
119.92,6.56,5.68,6.59,5.72,-5.73,-5.54,-6.60,0.82,0.86,0.87
121.12,6.56,5.70,6.54,5.68,-5.69,-5.58,-6.63,0.86,0.85,0.86
122.33,6.52,5.68,6.49,5.65,-5.65,-5.61,-6.65,0.86,0.84,0.84
123.55,6.44,5.61,6.45,5.63,-5.61,-5.65,-6.66,0.82,0.84,0.83
124.79,6.39,5.58,6.40,5.59,-5.58,-5.69,-6.66,0.81,0.82,0.81
126.03,6.37,5.57,6.34,5.55,-5.54,-5.72,-6.65,0.83,0.80,0.79
127.29,6.30,5.52,6.29,5.51,-5.51,-5.76,-6.63,0.79,0.79,0.78
128.57,6.23,5.46,6.25,5.48,-5.48,-5.79,-6.60,0.75,0.77,0.77
129.85,6.22,5.46,6.20,5.45,-5.46,-5.82,-6.56,0.75,0.74,0.75
131.15,6.19,5.45,6.17,5.43,-5.46,-5.85,-6.52,0.73,0.71,0.74
132.46,6.15,5.43,6.17,5.45,-5.47,-5.88,-6.46,0.68,0.70,0.72
133.79,6.17,5.46,6.18,5.47,-5.49,-5.90,-6.40,0.67,0.68,0.71
135.12,6.24,5.55,6.20,5.52,-5.53,-5.93,-6.33,0.70,0.67,0.68
136.48,6.24,5.56,6.25,5.58,-5.59,-5.95,-6.25,0.65,0.66,0.67
137.84,6.29,5.63,6.30,5.65,-5.65,-5.96,-6.17,0.64,0.65,0.65
139.22,6.35,5.71,6.35,5.71,-5.71,-5.98,-6.09,0.64,0.64,0.63
140.61,6.42,5.80,6.40,5.79,-5.76,-5.99,-5.99,0.65,0.64,0.61
142.02,6.44,5.84,6.43,5.84,-5.81,-5.99,-5.90,0.62,0.62,0.60
143.44,6.44,5.87,6.45,5.88,-5.85,-5.99,-5.80,0.58,0.59,0.57
144.87,6.44,5.90,6.43,5.88,-5.88,-5.99,-5.70,0.55,0.54,0.54
146.32,6.41,5.89,6.40,5.88,-5.90,-5.98,-5.59,0.50,0.49,0.51
147.78,6.35,5.87,6.37,5.89,-5.92,-5.96,-5.49,0.43,0.46,0.48
149.26,6.34,5.89,6.35,5.91,-5.92,-5.94,-5.38,0.42,0.43,0.44
150.75,6.34,5.94,6.30,5.90,-5.91,-5.91,-5.28,0.42,0.38,0.40
152.26,6.24,5.89,6.23,5.89,-5.89,-5.88,-5.17,0.34,0.34,0.34
153.78,6.12,5.83,6.16,5.87,-5.85,-5.85,-5.07,0.26,0.31,0.29
155.32,6.07,5.84,6.06,5.83,-5.79,-5.81,-4.97,0.28,0.27,0.23
156.88,5.98,5.80,5.93,5.77,-5.71,-5.76,-4.86,0.27,0.23,0.17
158.44,5.77,5.66,5.79,5.67,-5.61,-5.71,-4.76,0.16,0.18,0.11
160.03,5.59,5.53,5.59,5.53,-5.51,-5.65,-4.66,0.08,0.08,0.06
161.63,5.42,5.40,5.40,5.38,-5.41,-5.59,-4.57,0.00,-0.01,0.02
163.24,5.23,5.26,5.25,5.27,-5.33,-5.52,-4.47,-0.11,-0.09,-0.03
164.88,5.13,5.19,5.13,5.20,-5.29,-5.45,-4.38,-0.16,-0.15,-0.06
166.53,5.09,5.18,5.08,5.17,-5.27,-5.38,-4.29,-0.18,-0.19,-0.09
168.19,5.09,5.20,5.10,5.21,-5.27,-5.31,-4.20,-0.18,-0.17,-0.11
169.87,5.15,5.26,5.16,5.28,-5.29,-5.23,-4.12,-0.14,-0.13,-0.12
171.57,5.25,5.37,5.24,5.36,-5.32,-5.15,-4.03,-0.07,-0.08,-0.13
173.29,5.32,5.44,5.31,5.43,-5.34,-5.06,-3.96,-0.03,-0.03,-0.12
175.02,5.34,5.45,5.33,5.44,-5.35,-4.98,-3.88,-0.01,-0.02,-0.11
176.77,5.30,5.39,5.29,5.38,-5.33,-4.89,-3.81,-0.03,-0.04,-0.10
178.54,5.21,5.29,5.21,5.28,-5.28,-4.80,-3.74,-0.07,-0.07,-0.08
180.32,5.10,5.15,5.12,5.18,-5.20,-4.72,-3.67,-0.10,-0.08,-0.06
182.13,5.03,5.07,5.03,5.07,-5.09,-4.63,-3.60,-0.07,-0.06,-0.04
183.95,4.97,4.98,4.94,4.96,-4.98,-4.54,-3.54,-0.01,-0.04,-0.01
185.79,4.85,4.86,4.85,4.86,-4.86,-4.45,-3.48,-0.02,-0.01,-0.01
187.65,4.73,4.73,4.74,4.74,-4.75,-4.36,-3.43,-0.02,-0.01,-0.00
189.52,4.65,4.64,4.63,4.63,-4.65,-4.27,-3.37,-0.00,-0.01,0.01
191.42,4.54,4.53,4.54,4.54,-4.55,-4.18,-3.32,-0.01,-0.01,0.00
193.33,4.46,4.45,4.47,4.46,-4.46,-4.10,-3.27,-0.01,0.01,0.01
195.27,4.40,4.39,4.38,4.38,-4.38,-4.01,-3.23,0.02,0.00,0.01
197.22,4.32,4.32,4.30,4.30,-4.30,-3.92,-3.18,0.01,-0.00,-0.00
199.19,4.20,4.20,4.22,4.22,-4.23,-3.84,-3.14,-0.03,-0.01,-0.00
201.18,4.13,4.14,4.13,4.15,-4.15,-3.76,-3.10,-0.03,-0.02,-0.01
203.19,4.07,4.09,4.06,4.08,-4.08,-3.68,-3.07,-0.01,-0.02,-0.02
205.23,3.99,4.02,3.98,4.01,-3.99,-3.60,-3.03,-0.00,-0.01,-0.03
207.28,3.88,3.92,3.88,3.92,-3.90,-3.52,-3.00,-0.02,-0.02,-0.04
209.35,3.76,3.81,3.77,3.83,-3.80,-3.44,-2.97,-0.05,-0.03,-0.05
211.44,3.66,3.73,3.65,3.72,-3.71,-3.37,-2.94,-0.06,-0.06,-0.07
213.56,3.54,3.62,3.51,3.59,-3.62,-3.29,-2.91,-0.08,-0.10,-0.08
215.69,3.38,3.47,3.39,3.49,-3.52,-3.22,-2.88,-0.15,-0.13,-0.10
217.85,3.26,3.36,3.29,3.40,-3.43,-3.15,-2.85,-0.17,-0.14,-0.11
220.03,3.24,3.36,3.22,3.34,-3.34,-3.08,-2.83,-0.10,-0.13,-0.12
222.23,3.17,3.30,3.14,3.27,-3.25,-3.01,-2.81,-0.09,-0.11,-0.13
224.45,3.04,3.17,3.04,3.18,-3.16,-2.94,-2.78,-0.13,-0.12,-0.14
226.70,2.92,3.06,2.94,3.09,-3.07,-2.88,-2.76,-0.16,-0.13,-0.15
228.96,2.85,3.00,2.85,3.00,-2.99,-2.81,-2.74,-0.14,-0.14,-0.15
231.25,2.79,2.93,2.76,2.91,-2.90,-2.75,-2.72,-0.11,-0.14,-0.15
233.57,2.66,2.81,2.65,2.80,-2.81,-2.68,-2.70,-0.16,-0.16,-0.15
235.90,2.53,2.68,2.54,2.69,-2.73,-2.62,-2.68,-0.20,-0.18,-0.15
238.26,2.44,2.58,2.47,2.61,-2.64,-2.56,-2.65,-0.21,-0.18,-0.15
240.64,2.44,2.57,2.42,2.55,-2.56,-2.50,-2.63,-0.13,-0.14,-0.13
243.05,2.40,2.52,2.38,2.50,-2.49,-2.44,-2.61,-0.09,-0.11,-0.13
245.48,2.31,2.43,2.32,2.44,-2.41,-2.38,-2.59,-0.11,-0.09,-0.12
247.93,2.24,2.35,2.23,2.35,-2.34,-2.32,-2.57,-0.11,-0.11,-0.12
250.41,2.16,2.27,2.15,2.26,-2.27,-2.25,-2.55,-0.11,-0.12,-0.11
252.92,2.06,2.16,2.07,2.18,-2.19,-2.19,-2.52,-0.14,-0.12,-0.11
255.45,2.00,2.11,2.00,2.11,-2.11,-2.13,-2.50,-0.11,-0.11,-0.11
258.00,1.94,2.05,1.92,2.04,-2.02,-2.06,-2.48,-0.08,-0.10,-0.12
260.58,1.85,1.97,1.83,1.95,-1.93,-1.99,-2.46,-0.09,-0.10,-0.12
263.19,1.72,1.84,1.73,1.85,-1.85,-1.92,-2.43,-0.13,-0.12,-0.12
265.82,1.61,1.73,1.61,1.74,-1.77,-1.85,-2.41,-0.16,-0.15,-0.13
268.48,1.53,1.66,1.52,1.65,-1.68,-1.77,-2.38,-0.15,-0.16,-0.13
271.16,1.44,1.57,1.45,1.58,-1.59,-1.69,-2.36,-0.15,-0.14,-0.13
273.87,1.39,1.52,1.38,1.52,-1.49,-1.61,-2.34,-0.10,-0.11,-0.14
276.61,1.30,1.44,1.30,1.44,-1.40,-1.52,-2.31,-0.10,-0.10,-0.14
279.38,1.22,1.36,1.20,1.34,-1.31,-1.42,-2.29,-0.10,-0.11,-0.14
282.17,1.10,1.23,1.09,1.22,-1.24,-1.33,-2.26,-0.14,-0.15,-0.14
284.99,0.97,1.10,1.00,1.13,-1.16,-1.23,-2.24,-0.20,-0.17,-0.13
287.84,0.93,1.06,0.94,1.07,-1.10,-1.14,-2.22,-0.18,-0.16,-0.13
290.72,0.94,1.06,0.91,1.03,-1.05,-1.05,-2.20,-0.11,-0.14,-0.13
293.63,0.90,1.01,0.89,1.01,-1.01,-0.98,-2.17,-0.11,-0.11,-0.12
296.57,0.87,0.98,0.88,1.00,-0.99,-0.93,-2.15,-0.12,-0.10,-0.11
299.53,0.88,0.99,0.87,0.98,-0.98,-0.89,-2.13,-0.10,-0.11,-0.11
302.53,0.89,0.99,0.88,0.99,-0.99,-0.88,-2.11,-0.10,-0.11,-0.11
305.55,0.90,1.00,0.89,1.00,-1.00,-0.90,-2.09,-0.11,-0.11,-0.11
308.61,0.91,1.02,0.90,1.01,-1.02,-0.93,-2.08,-0.12,-0.12,-0.11
311.69,0.91,1.02,0.93,1.05,-1.05,-0.99,-2.06,-0.14,-0.11,-0.11
314.81,0.99,1.11,0.97,1.09,-1.08,-1.05,-2.05,-0.09,-0.11,-0.12
317.96,1.02,1.14,1.00,1.12,-1.12,-1.12,-2.03,-0.10,-0.12,-0.13
321.14,1.02,1.15,1.03,1.16,-1.15,-1.19,-2.02,-0.14,-0.13,-0.14
324.35,1.03,1.17,1.04,1.19,-1.19,-1.26,-2.01,-0.17,-0.15,-0.14
327.59,1.10,1.25,1.08,1.23,-1.23,-1.33,-2.00,-0.14,-0.16,-0.15
330.87,1.11,1.27,1.12,1.28,-1.27,-1.40,-1.99,-0.17,-0.15,-0.16
334.18,1.17,1.34,1.16,1.33,-1.31,-1.46,-1.98,-0.15,-0.16,-0.17
337.52,1.20,1.38,1.18,1.36,-1.36,-1.52,-1.98,-0.16,-0.18,-0.19
340.90,1.20,1.38,1.21,1.40,-1.41,-1.57,-1.97,-0.22,-0.20,-0.19
344.30,1.25,1.44,1.25,1.45,-1.47,-1.62,-1.97,-0.22,-0.22,-0.20
347.75,1.30,1.52,1.30,1.51,-1.53,-1.67,-1.97,-0.24,-0.24,-0.22
351.23,1.37,1.60,1.36,1.59,-1.60,-1.72,-1.97,-0.23,-0.23,-0.23
354.74,1.43,1.67,1.43,1.68,-1.66,-1.76,-1.97,-0.24,-0.23,-0.24
358.28,1.51,1.76,1.50,1.76,-1.74,-1.81,-1.97,-0.24,-0.24,-0.25
361.87,1.57,1.83,1.55,1.81,-1.82,-1.85,-1.98,-0.26,-0.28,-0.26
365.49,1.60,1.88,1.60,1.88,-1.90,-1.90,-1.98,-0.30,-0.30,-0.29
369.14,1.62,1.91,1.66,1.96,-1.97,-1.94,-1.99,-0.35,-0.30,-0.30
372.83,1.76,2.06,1.73,2.04,-2.03,-1.99,-2.00,-0.27,-0.30,-0.31
376.56,1.82,2.13,1.80,2.11,-2.08,-2.03,-2.01,-0.27,-0.29,-0.32
380.33,1.83,2.16,1.84,2.17,-2.13,-2.07,-2.02,-0.31,-0.30,-0.33
384.13,1.84,2.18,1.83,2.17,-2.18,-2.12,-2.03,-0.34,-0.35,-0.34
387.97,1.84,2.19,1.84,2.19,-2.22,-2.16,-2.05,-0.38,-0.38,-0.35
391.85,1.85,2.21,1.87,2.23,-2.26,-2.20,-2.06,-0.41,-0.39,-0.36
395.77,1.92,2.29,1.90,2.27,-2.29,-2.24,-2.08,-0.37,-0.39,-0.37
399.73,1.94,2.32,1.93,2.31,-2.31,-2.28,-2.09,-0.37,-0.38,-0.38
403.72,1.94,2.33,1.94,2.34,-2.32,-2.31,-2.11,-0.39,-0.38,-0.39
407.76,1.94,2.35,1.94,2.35,-2.33,-2.33,-2.13,-0.40,-0.39,-0.42
411.84,1.94,2.36,1.94,2.36,-2.34,-2.35,-2.15,-0.41,-0.40,-0.43
415.96,1.93,2.36,1.92,2.35,-2.34,-2.36,-2.17,-0.42,-0.42,-0.44
420.12,1.91,2.34,1.89,2.33,-2.34,-2.37,-2.19,-0.44,-0.45,-0.44
424.32,1.85,2.29,1.87,2.31,-2.34,-2.37,-2.21,-0.49,-0.47,-0.45
428.56,1.85,2.29,1.85,2.30,-2.32,-2.36,-2.22,-0.48,-0.47,-0.45
432.85,1.87,2.30,1.86,2.30,-2.31,-2.35,-2.24,-0.45,-0.45,-0.44
437.18,1.89,2.32,1.88,2.31,-2.30,-2.34,-2.26,-0.41,-0.42,-0.43
441.55,1.92,2.33,1.90,2.32,-2.29,-2.32,-2.28,-0.37,-0.39,-0.41
445.96,1.90,2.29,1.91,2.30,-2.28,-2.30,-2.30,-0.38,-0.37,-0.39
450.42,1.93,2.29,1.91,2.27,-2.27,-2.28,-2.31,-0.34,-0.36,-0.36
454.93,1.91,2.23,1.92,2.25,-2.26,-2.26,-2.33,-0.36,-0.34,-0.32
459.48,1.95,2.23,1.96,2.24,-2.25,-2.24,-2.34,-0.31,-0.30,-0.28
464.07,2.01,2.26,1.99,2.23,-2.24,-2.22,-2.35,-0.24,-0.26,-0.25
468.71,2.03,2.24,2.02,2.24,-2.23,-2.20,-2.36,-0.21,-0.21,-0.21
473.40,2.05,2.22,2.06,2.23,-2.23,-2.19,-2.36,-0.18,-0.17,-0.17
478.13,2.09,2.22,2.09,2.23,-2.22,-2.17,-2.37,-0.13,-0.12,-0.13
482.91,2.14,2.24,2.13,2.23,-2.22,-2.16,-2.37,-0.08,-0.09,-0.10
487.74,2.17,2.24,2.14,2.22,-2.21,-2.15,-2.37,-0.05,-0.07,-0.07
492.62,2.14,2.19,2.15,2.20,-2.21,-2.14,-2.37,-0.08,-0.06,-0.05
497.55,2.14,2.17,2.15,2.19,-2.21,-2.13,-2.36,-0.07,-0.06,-0.03
502.52,2.17,2.19,2.17,2.19,-2.21,-2.12,-2.35,-0.04,-0.04,-0.02
507.55,2.19,2.21,2.18,2.21,-2.20,-2.11,-2.34,-0.01,-0.02,-0.02
512.62,2.20,2.23,2.18,2.21,-2.19,-2.11,-2.33,0.00,-0.01,-0.04
517.75,2.14,2.19,2.15,2.20,-2.19,-2.11,-2.31,-0.05,-0.04,-0.06
522.93,2.11,2.18,2.10,2.18,-2.18,-2.10,-2.29,-0.07,-0.07,-0.08
