frequency,raw,error,smoothed,error_smoothed,equalization,parametric_eq,fixed_band_eq,equalized_raw,equalized_smoothed,target
20.00,2.39,1.74,2.39,1.74,-1.74,-2.27,-2.11,0.65,0.65,0.65
20.20,2.46,1.83,2.46,1.84,-1.84,-2.32,-2.17,0.62,0.62,0.63
20.40,2.53,1.93,2.54,1.94,-1.94,-2.37,-2.24,0.59,0.60,0.60
20.61,2.61,2.03,2.62,2.04,-2.04,-2.42,-2.30,0.57,0.58,0.58
20.81,2.70,2.14,2.70,2.14,-2.14,-2.47,-2.37,0.57,0.56,0.56
21.02,2.77,2.24,2.78,2.24,-2.23,-2.53,-2.44,0.54,0.54,0.53
21.23,2.85,2.34,2.85,2.34,-2.33,-2.58,-2.51,0.52,0.52,0.51
21.44,2.92,2.43,2.92,2.43,-2.43,-2.63,-2.58,0.50,0.49,0.49
21.66,2.99,2.52,2.99,2.52,-2.52,-2.69,-2.66,0.47,0.47,0.47
21.87,3.06,2.61,3.06,2.61,-2.62,-2.75,-2.74,0.44,0.45,0.45
22.09,3.13,2.70,3.13,2.70,-2.71,-2.81,-2.82,0.43,0.42,0.43
22.31,3.20,2.79,3.20,2.80,-2.80,-2.87,-2.90,0.40,0.40,0.41
22.54,3.27,2.89,3.28,2.90,-2.90,-2.93,-2.98,0.38,0.38,0.38
22.76,3.35,2.99,3.35,2.99,-2.99,-2.99,-3.07,0.36,0.36,0.36
22.99,3.43,3.09,3.43,3.09,-3.09,-3.05,-3.16,0.35,0.34,0.34
23.22,3.50,3.18,3.51,3.18,-3.18,-3.12,-3.25,0.32,0.32,0.32
23.45,3.58,3.27,3.58,3.28,-3.28,-3.19,-3.34,0.31,0.31,0.31
23.69,3.66,3.37,3.66,3.37,-3.37,-3.25,-3.44,0.29,0.29,0.29
23.92,3.74,3.46,3.74,3.46,-3.46,-3.32,-3.53,0.28,0.28,0.28
24.16,3.81,3.55,3.81,3.55,-3.55,-3.39,-3.63,0.27,0.27,0.26
24.40,3.88,3.63,3.88,3.63,-3.64,-3.47,-3.73,0.25,0.25,0.25
24.65,3.95,3.71,3.95,3.72,-3.72,-3.54,-3.84,0.23,0.23,0.24
24.89,4.03,3.81,4.03,3.80,-3.81,-3.61,-3.94,0.22,0.22,0.22
25.14,4.10,3.89,4.10,3.89,-3.89,-3.69,-4.05,0.21,0.21,0.21
25.39,4.18,3.97,4.17,3.98,-3.97,-3.77,-4.15,0.20,0.20,0.20
25.65,4.24,4.05,4.25,4.06,-4.06,-3.85,-4.26,0.18,0.19,0.19
25.91,4.32,4.14,4.32,4.14,-4.14,-3.93,-4.37,0.18,0.18,0.18
26.16,4.39,4.22,4.39,4.23,-4.23,-4.01,-4.47,0.17,0.17,0.17
26.43,4.46,4.31,4.46,4.31,-4.31,-4.09,-4.58,0.15,0.15,0.15
26.69,4.53,4.39,4.53,4.39,-4.39,-4.17,-4.69,0.14,0.14,0.14
26.96,4.60,4.47,4.60,4.47,-4.47,-4.25,-4.79,0.13,0.13,0.13
27.23,4.67,4.55,4.67,4.55,-4.55,-4.34,-4.90,0.12,0.12,0.12
27.50,4.74,4.63,4.74,4.63,-4.63,-4.42,-5.00,0.11,0.11,0.11
27.77,4.81,4.70,4.81,4.71,-4.71,-4.51,-5.10,0.11,0.11,0.11
28.05,4.88,4.78,4.88,4.78,-4.78,-4.59,-5.20,0.10,0.10,0.10
28.33,4.94,4.85,4.95,4.86,-4.85,-4.68,-5.29,0.09,0.10,0.09
28.62,5.01,4.92,5.01,4.92,-4.92,-4.76,-5.38,0.09,0.09,0.09
28.90,5.07,4.99,5.07,4.99,-4.99,-4.85,-5.47,0.08,0.08,0.08
29.19,5.12,5.04,5.13,5.05,-5.06,-4.94,-5.55,0.07,0.08,0.08
29.48,5.19,5.12,5.19,5.12,-5.12,-5.02,-5.63,0.07,0.07,0.07
29.78,5.25,5.18,5.25,5.18,-5.19,-5.10,-5.70,0.07,0.07,0.07
30.08,5.31,5.25,5.31,5.25,-5.25,-5.18,-5.76,0.06,0.06,0.06
30.38,5.36,5.30,5.37,5.31,-5.31,-5.27,-5.82,0.05,0.06,0.06
30.68,5.42,5.37,5.42,5.37,-5.37,-5.34,-5.87,0.05,0.05,0.05
30.99,5.47,5.43,5.47,5.43,-5.43,-5.42,-5.91,0.05,0.05,0.04
31.30,5.52,5.48,5.53,5.49,-5.48,-5.50,-5.94,0.04,0.04,0.04
31.61,5.57,5.54,5.57,5.54,-5.54,-5.57,-5.97,0.04,0.03,0.03
31.93,5.61,5.59,5.61,5.59,-5.59,-5.64,-5.99,0.03,0.02,0.02
32.24,5.64,5.62,5.65,5.63,-5.64,-5.71,-6.01,0.01,0.01,0.02
32.57,5.69,5.68,5.69,5.68,-5.69,-5.77,-6.01,0.01,0.00,0.01
32.89,5.72,5.72,5.73,5.73,-5.73,-5.83,-6.01,-0.01,-0.00,0.00
33.22,5.77,5.78,5.77,5.78,-5.78,-5.89,-6.01,-0.00,-0.01,-0.01
33.55,5.80,5.82,5.80,5.82,-5.82,-5.94,-5.99,-0.02,-0.02,-0.02
33.89,5.83,5.86,5.84,5.87,-5.86,-5.99,-5.98,-0.03,-0.03,-0.03
34.23,5.86,5.90,5.87,5.90,-5.90,-6.03,-5.96,-0.04,-0.04,-0.04
34.57,5.90,5.94,5.90,5.94,-5.94,-6.07,-5.93,-0.04,-0.04,-0.04
34.92,5.93,5.98,5.93,5.98,-5.98,-6.11,-5.90,-0.05,-0.05,-0.05
35.27,5.95,6.01,5.96,6.01,-6.01,-6.14,-5.87,-0.06,-0.06,-0.06
35.62,5.98,6.04,5.98,6.05,-6.04,-6.17,-5.83,-0.06,-0.06,-0.06
35.97,6.00,6.07,6.01,6.07,-6.08,-6.20,-5.80,-0.07,-0.07,-0.07
36.33,6.03,6.10,6.03,6.10,-6.10,-6.22,-5.76,-0.07,-0.08,-0.07
36.70,6.04,6.12,6.05,6.13,-6.13,-6.24,-5.72,-0.09,-0.08,-0.08
37.06,6.07,6.16,6.07,6.16,-6.16,-6.25,-5.68,-0.08,-0.09,-0.09
37.43,6.09,6.18,6.09,6.18,-6.18,-6.26,-5.64,-0.09,-0.09,-0.09
37.81,6.10,6.20,6.11,6.21,-6.20,-6.27,-5.61,-0.10,-0.09,-0.10
38.19,6.12,6.22,6.12,6.22,-6.22,-6.28,-5.57,-0.10,-0.10,-0.10
38.57,6.13,6.24,6.13,6.24,-6.24,-6.28,-5.53,-0.11,-0.11,-0.11
38.95,6.14,6.25,6.14,6.26,-6.26,-6.28,-5.50,-0.11,-0.11,-0.11
39.34,6.15,6.27,6.15,6.27,-6.27,-6.28,-5.47,-0.12,-0.12,-0.12
39.74,6.16,6.28,6.16,6.28,-6.29,-6.27,-5.44,-0.12,-0.12,-0.12
40.14,6.17,6.30,6.17,6.30,-6.30,-6.27,-5.42,-0.13,-0.13,-0.13
40.54,6.17,6.30,6.18,6.31,-6.31,-6.26,-5.39,-0.14,-0.13,-0.13
40.94,6.18,6.32,6.18,6.32,-6.32,-6.25,-5.37,-0.14,-0.14,-0.14
41.35,6.18,6.32,6.19,6.33,-6.33,-6.25,-5.36,-0.14,-0.14,-0.14
41.76,6.19,6.34,6.19,6.34,-6.34,-6.24,-5.35,-0.14,-0.14,-0.15
42.18,6.19,6.34,6.19,6.34,-6.34,-6.23,-5.34,-0.15,-0.15,-0.15
42.60,6.18,6.34,6.19,6.35,-6.35,-6.22,-5.33,-0.16,-0.16,-0.16
43.03,6.18,6.34,6.18,6.35,-6.35,-6.21,-5.33,-0.17,-0.17,-0.16
43.46,6.18,6.35,6.18,6.35,-6.35,-6.20,-5.33,-0.17,-0.17,-0.17
43.90,6.18,6.35,6.18,6.35,-6.35,-6.19,-5.34,-0.17,-0.17,-0.17
44.33,6.18,6.35,6.18,6.36,-6.35,-6.18,-5.35,-0.17,-0.17,-0.17
44.78,6.17,6.35,6.18,6.35,-6.35,-6.17,-5.37,-0.18,-0.18,-0.18
45.23,6.17,6.35,6.17,6.35,-6.35,-6.16,-5.39,-0.18,-0.18,-0.18
45.68,6.16,6.34,6.17,6.35,-6.35,-6.15,-5.41,-0.18,-0.18,-0.18
46.13,6.16,6.34,6.16,6.34,-6.34,-6.14,-5.44,-0.18,-0.18,-0.18
46.60,6.15,6.33,6.15,6.33,-6.33,-6.13,-5.47,-0.18,-0.18,-0.18
47.06,6.14,6.32,6.15,6.33,-6.32,-6.13,-5.50,-0.18,-0.18,-0.18
47.53,6.13,6.31,6.13,6.31,-6.31,-6.12,-5.54,-0.18,-0.18,-0.18
48.01,6.12,6.30,6.12,6.30,-6.30,-6.12,-5.58,-0.18,-0.18,-0.18
48.49,6.10,6.28,6.11,6.29,-6.29,-6.11,-5.63,-0.18,-0.18,-0.18
48.97,6.09,6.27,6.09,6.27,-6.28,-6.11,-5.68,-0.18,-0.18,-0.18
49.46,6.08,6.26,6.08,6.26,-6.26,-6.11,-5.73,-0.18,-0.18,-0.18
49.96,6.06,6.24,6.07,6.25,-6.25,-6.11,-5.78,-0.19,-0.18,-0.18
50.46,6.06,6.24,6.06,6.24,-6.24,-6.11,-5.84,-0.17,-0.18,-0.18
50.96,6.04,6.22,6.05,6.22,-6.22,-6.11,-5.90,-0.18,-0.18,-0.18
51.47,6.03,6.21,6.03,6.21,-6.21,-6.11,-5.96,-0.18,-0.18,-0.18
51.99,6.01,6.19,6.02,6.20,-6.20,-6.11,-6.03,-0.18,-0.18,-0.18
52.51,6.00,6.18,6.00,6.18,-6.19,-6.11,-6.09,-0.18,-0.18,-0.18
53.03,5.99,6.17,5.99,6.17,-6.17,-6.12,-6.16,-0.18,-0.18,-0.18
53.56,5.98,6.16,5.98,6.16,-6.16,-6.12,-6.22,-0.18,-0.18,-0.18
54.10,5.97,6.15,5.97,6.15,-6.15,-6.12,-6.29,-0.18,-0.18,-0.18
54.64,5.95,6.13,5.96,6.14,-6.14,-6.13,-6.35,-0.18,-0.18,-0.18
55.18,5.94,6.12,5.94,6.12,-6.13,-6.14,-6.42,-0.18,-0.18,-0.18
55.74,5.93,6.11,5.93,6.11,-6.11,-6.14,-6.48,-0.18,-0.18,-0.18
56.29,5.92,6.10,5.92,6.10,-6.10,-6.15,-6.54,-0.18,-0.18,-0.18
56.86,5.91,6.09,5.91,6.09,-6.09,-6.16,-6.60,-0.18,-0.18,-0.18
57.42,5.90,6.08,5.90,6.08,-6.08,-6.17,-6.65,-0.18,-0.18,-0.18
58.00,5.89,6.06,5.90,6.07,-6.07,-6.18,-6.70,-0.17,-0.17,-0.17
58.58,5.88,6.05,5.89,6.06,-6.06,-6.18,-6.74,-0.17,-0.17,-0.17
59.16,5.88,6.05,5.88,6.05,-6.05,-6.19,-6.78,-0.16,-0.17,-0.17
59.76,5.86,6.03,5.87,6.04,-6.04,-6.20,-6.82,-0.17,-0.17,-0.17
60.35,5.86,6.02,5.86,6.02,-6.03,-6.21,-6.85,-0.16,-0.17,-0.16
60.96,5.85,6.01,5.86,6.02,-6.02,-6.22,-6.87,-0.17,-0.17,-0.16
61.57,5.85,6.01,5.85,6.01,-6.01,-6.23,-6.89,-0.16,-0.16,-0.16
62.18,5.85,6.01,5.85,6.01,-6.01,-6.25,-6.90,-0.15,-0.15,-0.16
62.80,5.85,6.01,5.85,6.01,-6.00,-6.26,-6.90,-0.15,-0.15,-0.16
63.43,5.85,6.00,5.85,6.00,-6.00,-6.27,-6.89,-0.15,-0.15,-0.15
64.07,5.84,5.99,5.85,6.00,-6.00,-6.28,-6.88,-0.16,-0.15,-0.15
64.71,5.85,6.00,5.85,6.00,-6.00,-6.29,-6.87,-0.15,-0.15,-0.15
65.35,5.84,5.99,5.85,6.00,-6.00,-6.30,-6.84,-0.16,-0.15,-0.15
66.01,5.85,6.00,5.86,6.00,-6.00,-6.31,-6.81,-0.15,-0.15,-0.15
66.67,5.86,6.01,5.86,6.01,-6.01,-6.32,-6.78,-0.14,-0.15,-0.15
67.33,5.86,6.01,5.86,6.01,-6.01,-6.33,-6.74,-0.15,-0.15,-0.15
68.01,5.86,6.01,5.87,6.02,-6.02,-6.34,-6.69,-0.15,-0.15,-0.15
68.69,5.87,6.02,5.87,6.02,-6.02,-6.35,-6.64,-0.15,-0.15,-0.15
69.37,5.87,6.02,5.88,6.03,-6.03,-6.36,-6.59,-0.15,-0.15,-0.15
70.07,5.88,6.03,5.88,6.03,-6.03,-6.37,-6.54,-0.15,-0.15,-0.15
70.77,5.89,6.04,5.89,6.04,-6.04,-6.37,-6.48,-0.15,-0.15,-0.15
71.48,5.89,6.04,5.90,6.05,-6.05,-6.38,-6.42,-0.15,-0.15,-0.15
72.19,5.90,6.05,5.90,6.05,-6.05,-6.39,-6.36,-0.15,-0.15,-0.15
72.91,5.91,6.06,5.91,6.06,-6.06,-6.40,-6.30,-0.15,-0.15,-0.15
73.64,5.91,6.07,5.92,6.07,-6.07,-6.40,-6.24,-0.16,-0.16,-0.16
74.38,5.92,6.08,5.93,6.08,-6.08,-6.41,-6.18,-0.16,-0.16,-0.16
75.12,5.93,6.09,5.93,6.10,-6.09,-6.41,-6.12,-0.16,-0.16,-0.16
75.87,5.94,6.11,5.94,6.11,-6.11,-6.42,-6.06,-0.16,-0.17,-0.17
76.63,5.94,6.11,5.95,6.12,-6.12,-6.42,-6.01,-0.18,-0.17,-0.17
77.40,5.95,6.13,5.95,6.13,-6.14,-6.42,-5.95,-0.18,-0.18,-0.18
78.17,5.96,6.15,5.96,6.15,-6.15,-6.43,-5.90,-0.19,-0.19,-0.19
78.95,5.97,6.17,5.97,6.17,-6.17,-6.43,-5.85,-0.20,-0.20,-0.20
79.74,5.98,6.19,5.98,6.19,-6.19,-6.43,-5.81,-0.21,-0.21,-0.21
80.54,5.98,6.20,5.99,6.21,-6.21,-6.43,-5.76,-0.22,-0.22,-0.22
81.35,5.99,6.22,6.00,6.22,-6.23,-6.43,-5.72,-0.23,-0.23,-0.23
82.16,6.00,6.24,6.00,6.24,-6.24,-6.43,-5.69,-0.24,-0.24,-0.24
82.98,6.01,6.26,6.01,6.26,-6.26,-6.43,-5.66,-0.24,-0.25,-0.25
83.81,6.01,6.27,6.01,6.27,-6.27,-6.42,-5.63,-0.26,-0.26,-0.26
84.65,6.00,6.28,6.01,6.29,-6.29,-6.42,-5.60,-0.28,-0.27,-0.28
85.50,6.01,6.30,6.01,6.30,-6.30,-6.41,-5.58,-0.29,-0.29,-0.29
86.35,6.02,6.31,6.02,6.31,-6.31,-6.41,-5.57,-0.29,-0.29,-0.29
87.22,6.01,6.31,6.02,6.32,-6.32,-6.40,-5.56,-0.31,-0.30,-0.30
88.09,6.02,6.33,6.02,6.33,-6.33,-6.39,-5.55,-0.31,-0.31,-0.31
88.97,6.01,6.33,6.02,6.34,-6.33,-6.38,-5.55,-0.32,-0.32,-0.32
89.86,6.01,6.34,6.02,6.34,-6.34,-6.37,-5.55,-0.32,-0.32,-0.33
90.76,6.01,6.34,6.01,6.34,-6.34,-6.36,-5.55,-0.33,-0.33,-0.33
91.66,6.00,6.34,6.00,6.34,-6.34,-6.35,-5.56,-0.34,-0.34,-0.34
92.58,5.99,6.33,6.00,6.34,-6.34,-6.34,-5.58,-0.35,-0.34,-0.34
93.51,5.98,6.33,5.99,6.34,-6.34,-6.33,-5.59,-0.35,-0.35,-0.35
94.44,5.98,6.33,5.98,6.33,-6.33,-6.31,-5.62,-0.35,-0.35,-0.35
95.39,5.97,6.33,5.97,6.33,-6.33,-6.29,-5.64,-0.35,-0.36,-0.36
96.34,5.95,6.31,5.96,6.32,-6.32,-6.28,-5.67,-0.37,-0.36,-0.36
97.30,5.94,6.31,5.94,6.31,-6.31,-6.26,-5.70,-0.37,-0.37,-0.37
98.28,5.93,6.30,5.93,6.30,-6.30,-6.24,-5.74,-0.37,-0.37,-0.37
99.26,5.91,6.29,5.91,6.29,-6.30,-6.22,-5.78,-0.38,-0.38,-0.38
100.25,5.89,6.28,5.89,6.28,-6.29,-6.20,-5.82,-0.39,-0.39,-0.39
101.25,5.87,6.27,5.87,6.27,-6.27,-6.18,-5.86,-0.40,-0.40,-0.40
102.27,5.85,6.26,5.85,6.26,-6.26,-6.15,-5.91,-0.41,-0.41,-0.41
103.29,5.83,6.25,5.83,6.25,-6.25,-6.13,-5.95,-0.41,-0.42,-0.42
104.32,5.80,6.23,5.81,6.24,-6.23,-6.10,-6.00,-0.43,-0.43,-0.43
105.37,5.78,6.22,5.78,6.22,-6.22,-6.08,-6.05,-0.43,-0.44,-0.44
106.42,5.74,6.19,5.75,6.20,-6.20,-6.05,-6.10,-0.46,-0.45,-0.45
107.48,5.72,6.18,5.72,6.18,-6.18,-6.02,-6.15,-0.46,-0.46,-0.46
108.56,5.69,6.16,5.69,6.16,-6.16,-5.99,-6.20,-0.47,-0.47,-0.47
109.64,5.66,6.14,5.67,6.15,-6.14,-5.96,-6.25,-0.48,-0.48,-0.48
110.74,5.63,6.12,5.63,6.12,-6.12,-5.93,-6.30,-0.49,-0.49,-0.49
111.85,5.60,6.10,5.60,6.10,-6.10,-5.90,-6.34,-0.50,-0.50,-0.50
112.97,5.56,6.07,5.56,6.07,-6.08,-5.87,-6.38,-0.51,-0.51,-0.51
114.10,5.52,6.04,5.53,6.05,-6.05,-5.83,-6.41,-0.53,-0.52,-0.52
115.24,5.49,6.02,5.49,6.02,-6.03,-5.80,-6.44,-0.53,-0.53,-0.53
116.39,5.46,6.00,5.46,6.00,-6.00,-5.76,-6.47,-0.53,-0.54,-0.54
117.55,5.42,5.97,5.42,5.97,-5.97,-5.72,-6.49,-0.54,-0.54,-0.55
118.73,5.37,5.93,5.38,5.94,-5.93,-5.68,-6.50,-0.56,-0.55,-0.56
119.92,5.34,5.90,5.34,5.90,-5.90,-5.64,-6.51,-0.56,-0.56,-0.56
121.12,5.29,5.86,5.30,5.86,-5.87,-5.60,-6.51,-0.57,-0.57,-0.57
122.33,5.25,5.82,5.25,5.83,-5.83,-5.56,-6.50,-0.57,-0.57,-0.57
123.55,5.21,5.79,5.21,5.79,-5.79,-5.52,-6.48,-0.58,-0.58,-0.58
124.79,5.16,5.74,5.17,5.75,-5.75,-5.48,-6.46,-0.59,-0.58,-0.58
126.03,5.12,5.71,5.12,5.71,-5.71,-5.43,-6.42,-0.59,-0.59,-0.59
127.29,5.08,5.67,5.08,5.67,-5.67,-5.39,-6.38,-0.59,-0.59,-0.59
128.57,5.03,5.62,5.04,5.63,-5.63,-5.35,-6.33,-0.60,-0.59,-0.59
129.85,4.99,5.59,4.99,5.59,-5.59,-5.30,-6.27,-0.59,-0.59,-0.60
131.15,4.94,5.54,4.94,5.54,-5.54,-5.25,-6.20,-0.60,-0.60,-0.60
132.46,4.89,5.49,4.89,5.50,-5.49,-5.20,-6.13,-0.60,-0.60,-0.60
133.79,4.84,5.44,4.84,5.44,-5.45,-5.16,-6.05,-0.60,-0.60,-0.60
135.12,4.79,5.39,4.79,5.39,-5.39,-5.11,-5.96,-0.60,-0.60,-0.60
136.48,4.74,5.34,4.74,5.34,-5.34,-5.06,-5.87,-0.60,-0.60,-0.60
137.84,4.69,5.28,4.69,5.29,-5.29,-5.00,-5.77,-0.59,-0.59,-0.59
139.22,4.64,5.23,4.64,5.23,-5.23,-4.95,-5.66,-0.59,-0.59,-0.59
140.61,4.58,5.17,4.59,5.17,-5.17,-4.90,-5.55,-0.59,-0.58,-0.59
142.02,4.53,5.11,4.53,5.11,-5.11,-4.85,-5.44,-0.58,-0.58,-0.58
143.44,4.47,5.04,4.47,5.05,-5.05,-4.79,-5.33,-0.58,-0.58,-0.57
144.87,4.41,4.98,4.42,4.98,-4.99,-4.74,-5.21,-0.57,-0.57,-0.57
146.32,4.36,4.92,4.36,4.92,-4.92,-4.68,-5.09,-0.56,-0.56,-0.56
147.78,4.30,4.85,4.30,4.86,-4.85,-4.63,-4.97,-0.55,-0.55,-0.55
149.26,4.24,4.79,4.24,4.79,-4.79,-4.57,-4.85,-0.54,-0.55,-0.55
150.75,4.17,4.71,4.18,4.72,-4.72,-4.51,-4.72,-0.54,-0.54,-0.54
152.26,4.11,4.64,4.12,4.65,-4.65,-4.45,-4.60,-0.53,-0.53,-0.53
153.78,4.05,4.57,4.05,4.57,-4.57,-4.40,-4.48,-0.52,-0.52,-0.52
155.32,3.99,4.50,3.99,4.50,-4.50,-4.34,-4.36,-0.51,-0.51,-0.51
156.88,3.92,4.42,3.93,4.43,-4.42,-4.28,-4.24,-0.50,-0.50,-0.50
158.44,3.85,4.34,3.86,4.35,-4.35,-4.22,-4.12,-0.49,-0.49,-0.49
160.03,3.79,4.27,3.79,4.27,-4.27,-4.15,-4.00,-0.47,-0.48,-0.48
161.63,3.71,4.18,3.72,4.19,-4.19,-4.09,-3.89,-0.47,-0.47,-0.47
163.24,3.64,4.10,3.65,4.10,-4.11,-4.03,-3.77,-0.46,-0.46,-0.46
164.88,3.57,4.02,3.57,4.02,-4.03,-3.97,-3.66,-0.45,-0.45,-0.45
166.53,3.50,3.94,3.50,3.94,-3.94,-3.90,-3.55,-0.44,-0.44,-0.44
168.19,3.43,3.86,3.43,3.86,-3.86,-3.84,-3.44,-0.43,-0.43,-0.43
169.87,3.35,3.77,3.36,3.78,-3.78,-3.78,-3.34,-0.42,-0.42,-0.42
171.57,3.28,3.70,3.28,3.69,-3.69,-3.71,-3.23,-0.41,-0.41,-0.42
173.29,3.19,3.60,3.20,3.61,-3.61,-3.64,-3.13,-0.42,-0.41,-0.41
175.02,3.12,3.52,3.12,3.52,-3.53,-3.58,-3.03,-0.40,-0.40,-0.40
176.77,3.04,3.44,3.04,3.44,-3.44,-3.51,-2.94,-0.40,-0.40,-0.40
178.54,2.96,3.35,2.96,3.36,-3.36,-3.44,-2.84,-0.39,-0.39,-0.39
180.32,2.88,3.27,2.88,3.27,-3.27,-3.38,-2.75,-0.39,-0.39,-0.39
182.13,2.79,3.18,2.80,3.19,-3.19,-3.31,-2.66,-0.39,-0.39,-0.39
183.95,2.71,3.10,2.72,3.11,-3.10,-3.24,-2.57,-0.39,-0.39,-0.39
185.79,2.63,3.02,2.63,3.02,-3.02,-3.17,-2.48,-0.39,-0.39,-0.39
187.65,2.55,2.94,2.55,2.94,-2.94,-3.10,-2.40,-0.38,-0.39,-0.39
189.52,2.45,2.84,2.46,2.85,-2.85,-3.03,-2.32,-0.40,-0.39,-0.39
191.42,2.38,2.77,2.38,2.77,-2.77,-2.95,-2.24,-0.39,-0.39,-0.39
193.33,2.29,2.68,2.29,2.68,-2.69,-2.88,-2.16,-0.39,-0.39,-0.39
195.27,2.21,2.60,2.21,2.61,-2.60,-2.81,-2.08,-0.39,-0.39,-0.39
197.22,2.12,2.52,2.13,2.52,-2.52,-2.74,-2.01,-0.40,-0.40,-0.40
199.19,2.04,2.44,2.04,2.44,-2.44,-2.66,-1.94,-0.40,-0.40,-0.40
201.18,1.95,2.36,1.95,2.36,-2.36,-2.59,-1.86,-0.41,-0.41,-0.41
203.19,1.86,2.27,1.87,2.28,-2.28,-2.51,-1.79,-0.42,-0.41,-0.41
205.23,1.78,2.20,1.78,2.20,-2.20,-2.44,-1.73,-0.42,-0.42,-0.42
207.28,1.70,2.12,1.70,2.12,-2.12,-2.36,-1.66,-0.42,-0.42,-0.42
209.35,1.61,2.04,1.62,2.05,-2.04,-2.29,-1.59,-0.43,-0.43,-0.43
211.44,1.53,1.97,1.53,1.97,-1.96,-2.21,-1.53,-0.43,-0.43,-0.44
213.56,1.44,1.88,1.44,1.88,-1.88,-2.13,-1.46,-0.44,-0.44,-0.44
215.69,1.35,1.80,1.35,1.80,-1.80,-2.05,-1.40,-0.45,-0.45,-0.45
217.85,1.26,1.71,1.27,1.72,-1.72,-1.97,-1.34,-0.46,-0.46,-0.45
220.03,1.18,1.64,1.18,1.64,-1.64,-1.89,-1.28,-0.46,-0.46,-0.46
222.23,1.10,1.56,1.10,1.56,-1.56,-1.81,-1.22,-0.46,-0.46,-0.46
224.45,1.02,1.48,1.02,1.48,-1.48,-1.73,-1.16,-0.45,-0.46,-0.46
226.70,0.93,1.39,0.94,1.40,-1.39,-1.65,-1.10,-0.46,-0.46,-0.46
228.96,0.85,1.31,0.85,1.31,-1.31,-1.56,-1.04,-0.45,-0.46,-0.46
231.25,0.76,1.22,0.76,1.22,-1.22,-1.48,-0.98,-0.46,-0.46,-0.46
233.57,0.68,1.13,0.68,1.14,-1.14,-1.40,-0.92,-0.45,-0.45,-0.45
235.90,0.59,1.04,0.60,1.04,-1.05,-1.31,-0.87,-0.45,-0.45,-0.45
238.26,0.52,0.96,0.52,0.96,-0.96,-1.22,-0.81,-0.44,-0.44,-0.44
240.64,0.43,0.86,0.44,0.87,-0.87,-1.14,-0.75,-0.44,-0.43,-0.43
243.05,0.36,0.79,0.36,0.79,-0.79,-1.05,-0.69,-0.42,-0.43,-0.43
245.48,0.28,0.70,0.28,0.70,-0.70,-0.96,-0.63,-0.42,-0.42,-0.42
247.93,0.20,0.61,0.21,0.62,-0.62,-0.87,-0.58,-0.41,-0.41,-0.41
250.41,0.13,0.53,0.13,0.53,-0.53,-0.78,-0.52,-0.40,-0.40,-0.40
252.92,0.05,0.45,0.05,0.45,-0.45,-0.69,-0.46,-0.40,-0.40,-0.40
255.45,-0.03,0.36,-0.02,0.37,-0.37,-0.60,-0.40,-0.39,-0.39,-0.39
258.00,-0.10,0.28,-0.10,0.29,-0.29,-0.51,-0.34,-0.38,-0.38,-0.38
260.58,-0.17,0.21,-0.17,0.21,-0.21,-0.41,-0.28,-0.37,-0.38,-0.38
263.19,-0.26,0.12,-0.25,0.13,-0.13,-0.32,-0.22,-0.38,-0.37,-0.38
265.82,-0.33,0.04,-0.33,0.04,-0.04,-0.22,-0.15,-0.37,-0.37,-0.37
268.48,-0.41,-0.04,-0.41,-0.04,0.04,-0.13,-0.09,-0.37,-0.37,-0.37
271.16,-0.49,-0.12,-0.49,-0.12,0.12,-0.03,-0.03,-0.37,-0.37,-0.37
273.87,-0.57,-0.20,-0.56,-0.20,0.20,0.07,0.03,-0.37,-0.37,-0.37
276.61,-0.65,-0.29,-0.64,-0.28,0.28,0.17,0.10,-0.36,-0.36,-0.36
279.38,-0.72,-0.36,-0.72,-0.36,0.36,0.27,0.16,-0.35,-0.36,-0.36
282.17,-0.81,-0.45,-0.80,-0.45,0.45,0.37,0.23,-0.36,-0.36,-0.36
284.99,-0.89,-0.54,-0.88,-0.53,0.53,0.47,0.30,-0.36,-0.35,-0.35
287.84,-0.97,-0.62,-0.96,-0.62,0.61,0.57,0.37,-0.35,-0.35,-0.35
290.72,-1.04,-0.70,-1.04,-0.70,0.70,0.68,0.43,-0.34,-0.34,-0.34
293.63,-1.12,-0.78,-1.12,-0.78,0.78,0.78,0.50,-0.33,-0.34,-0.34
296.57,-1.20,-0.87,-1.20,-0.86,0.87,0.89,0.57,-0.33,-0.33,-0.33
299.53,-1.28,-0.95,-1.28,-0.95,0.95,0.99,0.65,-0.32,-0.33,-0.33
302.53,-1.36,-1.04,-1.36,-1.04,1.04,1.10,0.72,-0.32,-0.32,-0.32
305.55,-1.44,-1.13,-1.43,-1.12,1.12,1.21,0.79,-0.31,-0.31,-0.31
308.61,-1.51,-1.21,-1.51,-1.21,1.21,1.32,0.87,-0.30,-0.30,-0.30
311.69,-1.59,-1.30,-1.59,-1.30,1.29,1.43,0.94,-0.29,-0.29,-0.29
314.81,-1.66,-1.38,-1.66,-1.38,1.38,1.54,1.02,-0.28,-0.28,-0.28
317.96,-1.74,-1.47,-1.73,-1.46,1.46,1.65,1.10,-0.28,-0.27,-0.27
321.14,-1.80,-1.54,-1.80,-1.54,1.53,1.76,1.18,-0.26,-0.26,-0.26
324.35,-1.87,-1.62,-1.87,-1.62,1.61,1.87,1.26,-0.25,-0.25,-0.25
327.59,-1.94,-1.70,-1.94,-1.69,1.69,1.98,1.34,-0.25,-0.24,-0.24
330.87,-2.01,-1.77,-2.01,-1.77,1.77,2.10,1.43,-0.24,-0.24,-0.24
334.18,-2.09,-1.86,-2.08,-1.85,1.85,2.21,1.51,-0.24,-0.23,-0.23
337.52,-2.16,-1.93,-2.16,-1.94,1.94,2.32,1.60,-0.22,-0.23,-0.23
340.90,-2.26,-2.04,-2.25,-2.03,2.03,2.43,1.69,-0.23,-0.22,-0.22
344.30,-2.35,-2.13,-2.35,-2.13,2.14,2.55,1.78,-0.21,-0.22,-0.22
347.75,-2.47,-2.25,-2.46,-2.24,2.25,2.66,1.87,-0.21,-0.21,-0.22
351.23,-2.58,-2.36,-2.58,-2.36,2.38,2.77,1.96,-0.20,-0.20,-0.22
354.74,-2.71,-2.49,-2.72,-2.50,2.52,2.88,2.06,-0.19,-0.21,-0.22
358.28,-2.89,-2.66,-2.88,-2.65,2.66,2.99,2.15,-0.23,-0.22,-0.23
361.87,-3.05,-2.82,-3.04,-2.81,2.81,3.10,2.25,-0.24,-0.23,-0.23
365.49,-3.21,-2.98,-3.21,-2.98,2.96,3.21,2.35,-0.25,-0.25,-0.23
369.14,-3.36,-3.13,-3.35,-3.12,3.11,3.32,2.45,-0.25,-0.25,-0.23
372.83,-3.50,-3.27,-3.49,-3.27,3.25,3.42,2.55,-0.24,-0.24,-0.23
376.56,-3.62,-3.40,-3.62,-3.40,3.39,3.52,2.66,-0.22,-0.23,-0.22
380.33,-3.75,-3.53,-3.74,-3.52,3.52,3.62,2.76,-0.22,-0.22,-0.22
384.13,-3.86,-3.64,-3.86,-3.65,3.65,3.72,2.87,-0.21,-0.21,-0.22
387.97,-3.99,-3.78,-3.98,-3.77,3.77,3.82,2.98,-0.22,-0.21,-0.21
391.85,-4.09,-3.88,-4.09,-3.88,3.89,3.91,3.09,-0.20,-0.20,-0.21
395.77,-4.20,-4.00,-4.20,-4.00,4.00,4.00,3.20,-0.20,-0.20,-0.20
399.73,-4.30,-4.11,-4.30,-4.10,4.11,4.08,3.31,-0.19,-0.19,-0.19
403.72,-4.40,-4.21,-4.40,-4.21,4.21,4.17,3.42,-0.19,-0.19,-0.19
407.76,-4.49,-4.31,-4.49,-4.31,4.31,4.24,3.53,-0.18,-0.18,-0.18
411.84,-4.58,-4.41,-4.57,-4.40,4.39,4.32,3.65,-0.18,-0.17,-0.17
415.96,-4.64,-4.48,-4.64,-4.48,4.48,4.38,3.76,-0.16,-0.17,-0.16
420.12,-4.71,-4.55,-4.71,-4.55,4.55,4.45,3.87,-0.16,-0.16,-0.16
424.32,-4.77,-4.62,-4.76,-4.61,4.61,4.51,3.98,-0.15,-0.15,-0.15
428.56,-4.81,-4.67,-4.81,-4.67,4.67,4.56,4.08,-0.14,-0.14,-0.14
432.85,-4.85,-4.72,-4.85,-4.72,4.71,4.61,4.19,-0.13,-0.13,-0.13
437.18,-4.88,-4.76,-4.87,-4.75,4.75,4.65,4.29,-0.13,-0.12,-0.12
441.55,-4.89,-4.78,-4.89,-4.78,4.78,4.68,4.39,-0.11,-0.11,-0.11
445.96,-4.91,-4.81,-4.90,-4.80,4.80,4.71,4.48,-0.10,-0.10,-0.10
450.42,-4.91,-4.82,-4.91,-4.82,4.82,4.74,4.58,-0.09,-0.09,-0.09
454.93,-4.91,-4.83,-4.91,-4.83,4.83,4.76,4.66,-0.07,-0.08,-0.08
459.48,-4.91,-4.84,-4.90,-4.83,4.84,4.77,4.74,-0.07,-0.07,-0.07
464.07,-4.90,-4.84,-4.90,-4.84,4.84,4.77,4.82,-0.06,-0.06,-0.06
468.71,-4.89,-4.84,-4.89,-4.84,4.84,4.77,4.88,-0.05,-0.05,-0.05
473.40,-4.88,-4.84,-4.87,-4.83,4.83,4.77,4.94,-0.04,-0.04,-0.04
