frequency,raw
20.00,-5.33
20.20,-5.17
20.40,-5.03
20.61,-4.87
20.81,-4.72
21.02,-4.56
21.23,-4.40
21.44,-4.24
21.66,-4.09
21.87,-3.93
22.09,-3.77
22.31,-3.61
22.54,-3.45
22.76,-3.28
22.99,-3.12
23.22,-2.95
23.45,-2.79
23.69,-2.63
23.92,-2.46
24.16,-2.30
24.40,-2.13
24.65,-1.97
24.89,-1.80
25.14,-1.63
25.39,-1.47
25.65,-1.29
25.91,-1.13
26.16,-0.96
26.43,-0.79
26.69,-0.63
26.96,-0.46
27.23,-0.30
27.50,-0.13
27.77,0.03
28.05,0.20
28.33,0.35
28.62,0.50
28.90,0.66
29.19,0.81
29.48,0.97
29.78,1.12
30.08,1.27
30.38,1.41
30.68,1.55
30.99,1.69
31.30,1.83
31.61,1.97
31.93,2.11
32.24,2.25
32.57,2.38
32.89,2.53
33.22,2.66
33.55,2.80
33.89,2.94
34.23,3.06
34.57,3.19
34.92,3.32
35.27,3.44
35.62,3.57
35.97,3.69
36.33,3.80
36.70,3.93
37.06,4.04
37.43,4.16
37.81,4.28
38.19,4.39
38.57,4.50
38.95,4.62
39.34,4.72
39.74,4.83
40.14,4.95
40.54,5.05
40.94,5.15
41.35,5.24
41.76,5.34
42.18,5.43
42.60,5.54
43.03,5.64
43.46,5.72
43.90,5.81
44.33,5.89
44.78,5.96
45.23,6.04
45.68,6.12
46.13,6.19
46.60,6.25
47.06,6.32
47.53,6.37
48.01,6.43
48.49,6.48
48.97,6.53
49.46,6.57
49.96,6.62
50.46,6.64
50.96,6.68
51.47,6.70
51.99,6.73
52.51,6.74
53.03,6.75
53.56,6.76
54.10,6.77
54.64,6.76
55.18,6.77
55.74,6.77
56.29,6.77
56.86,6.75
57.42,6.73
58.00,6.71
58.58,6.69
59.16,6.67
59.76,6.64
60.35,6.60
60.96,6.56
61.57,6.52
62.18,6.48
62.80,6.42
63.43,6.36
64.07,6.30
64.71,6.23
65.35,6.17
66.01,6.09
66.67,6.00
67.33,5.92
68.01,5.82
68.69,5.74
69.37,5.64
70.07,5.53
70.77,5.42
71.48,5.30
72.19,5.20
72.91,5.10
73.64,5.00
74.38,4.90
75.12,4.82
75.87,4.72
76.63,4.62
77.40,4.54
78.17,4.44
78.95,4.35
79.74,4.28
80.54,4.21
81.35,4.13
82.16,4.06
82.98,4.00
83.81,3.95
84.65,3.90
85.50,3.85
86.35,3.81
87.22,3.77
88.09,3.73
88.97,3.71
89.86,3.68
90.76,3.66
91.66,3.65
92.58,3.64
93.51,3.64
94.44,3.62
95.39,3.61
96.34,3.60
97.30,3.60
98.28,3.59
99.26,3.58
100.25,3.58
101.25,3.58
102.27,3.58
103.29,3.59
104.32,3.60
105.37,3.63
106.42,3.66
107.48,3.69
108.56,3.74
109.64,3.78
110.74,3.82
111.85,3.86
112.97,3.91
114.10,3.94
115.24,3.96
116.39,3.97
117.55,3.98
118.73,4.00
119.92,3.99
121.12,3.97
122.33,3.95
123.55,3.94
124.79,3.92
126.03,3.91
127.29,3.90
128.57,3.88
129.85,3.87
131.15,3.86
132.46,3.85
133.79,3.84
135.12,3.83
136.48,3.82
137.84,3.82
139.22,3.81
140.61,3.81
142.02,3.80
143.44,3.79
144.87,3.79
146.32,3.78
147.78,3.79
149.26,3.79
150.75,3.80
152.26,3.81
153.78,3.82
155.32,3.82
156.88,3.83
158.44,3.83
160.03,3.84
161.63,3.84
163.24,3.84
164.88,3.82
166.53,3.80
168.19,3.79
169.87,3.77
171.57,3.75
173.29,3.74
175.02,3.71
176.77,3.69
178.54,3.69
180.32,3.69
182.13,3.69
183.95,3.69
185.79,3.68
187.65,3.66
189.52,3.62
191.42,3.60
193.33,3.59
195.27,3.56
197.22,3.52
199.19,3.48
201.18,3.43
203.19,3.41
205.23,3.38
207.28,3.34
209.35,3.31
211.44,3.28
213.56,3.25
215.69,3.21
217.85,3.19
220.03,3.18
222.23,3.16
224.45,3.11
226.70,3.08
228.96,3.02
231.25,2.99
233.57,2.95
235.90,2.89
238.26,2.84
240.64,2.79
243.05,2.76
245.48,2.71
247.93,2.65
250.41,2.61
252.92,2.55
255.45,2.50
258.00,2.44
260.58,2.39
263.19,2.34
265.82,2.30
268.48,2.28
271.16,2.24
273.87,2.20
276.61,2.17
279.38,2.15
282.17,2.11
284.99,2.08
287.84,2.03
290.72,2.01
293.63,1.99
296.57,1.98
299.53,1.96
302.53,1.95
305.55,1.95
308.61,1.95
311.69,1.94
314.81,1.94
317.96,1.93
321.14,1.94
324.35,1.94
327.59,1.93
330.87,1.90
334.18,1.87
337.52,1.83
340.90,1.78
344.30,1.71
347.75,1.65
351.23,1.58
354.74,1.51
358.28,1.41
361.87,1.34
365.49,1.25
369.14,1.18
372.83,1.10
376.56,1.02
380.33,0.94
384.13,0.87
387.97,0.80
391.85,0.73
395.77,0.65
399.73,0.59
403.72,0.53
407.76,0.48
411.84,0.41
415.96,0.35
420.12,0.29
424.32,0.24
428.56,0.20
432.85,0.14
437.18,0.08
441.55,0.05
445.96,-0.00
450.42,-0.09
454.93,-0.14
459.48,-0.21
464.07,-0.26
468.71,-0.31
473.40,-0.36
478.13,-0.41
482.91,-0.44
487.74,-0.46
492.62,-0.50
497.55,-0.54
502.52,-0.58
507.55,-0.60
512.62,-0.63
517.75,-0.66
522.93,-0.69
528.16,-0.72
533.44,-0.76
538.77,-0.80
544.16,-0.85
549.60,-0.89
555.10,-0.93
560.65,-0.98
566.25,-1.03
571.92,-1.09
577.64,-1.13
583.41,-1.18
589.25,-1.21
595.14,-1.25
601.09,-1.29
607.10,-1.33
613.17,-1.36
619.30,-1.40
625.50,-1.42
631.75,-1.47
638.07,-1.51
644.45,-1.55
650.89,-1.59
657.40,-1.63
663.98,-1.67
670.62,-1.69
677.32,-1.71
684.10,-1.74
690.94,-1.77
697.85,-1.79
704.83,-1.80
711.87,-1.79
718.99,-1.78
726.18,-1.76
733.44,-1.71
740.78,-1.69
748.19,-1.68
755.67,-1.67
763.23,-1.65
770.86,-1.63
778.57,-1.62
786.35,-1.62
794.22,-1.62
802.16,-1.62
810.18,-1.61
818.28,-1.60
826.46,-1.56
834.73,-1.52
843.08,-1.46
851.51,-1.40
860.02,-1.33
868.62,-1.25
877.31,-1.16
886.08,-1.07
894.94,-0.98
903.89,-0.91
912.93,-0.83
922.06,-0.77
931.28,-0.72
940.59,-0.68
950.00,-0.62
959.50,-0.58
969.09,-0.52
978.78,-0.46
988.57,-0.39
998.46,-0.31
1008.44,-0.23
1018.53,-0.16
1028.71,-0.09
1039.00,-0.03
1049.39,0.02
1059.88,0.07
1070.48,0.12
1081.19,0.15
1092.00,0.18
1102.92,0.20
1113.95,0.21
1125.09,0.21
1136.34,0.20
1147.70,0.19
1159.18,0.17
1170.77,0.16
1182.48,0.14
1194.30,0.13
1206.25,0.11
1218.31,0.09
1230.49,0.03
1242.80,0.00
1255.22,-0.04
1267.78,-0.08
1280.45,-0.12
1293.26,-0.17
1306.19,-0.22
1319.25,-0.27
1332.45,-0.33
1345.77,-0.39
1359.23,-0.46
1372.82,-0.53
1386.55,-0.61
1400.41,-0.68
1414.42,-0.77
1428.56,-0.85
1442.85,-0.95
1457.28,-1.02
1471.85,-1.10
1486.57,-1.18
1501.43,-1.26
1516.45,-1.33
1531.61,-1.41
1546.93,-1.50
1562.40,-1.58
1578.02,-1.66
1593.80,-1.74
1609.74,-1.84
1625.84,-1.91
1642.10,-1.97
1658.52,-2.06
1675.10,-2.13
1691.85,-2.18
1708.77,-2.25
1725.86,-2.31
1743.12,-2.36
1760.55,-2.43
1778.15,-2.46
1795.94,-2.48
1813.90,-2.52
1832.03,-2.54
1850.36,-2.57
1868.86,-2.60
1887.55,-2.61
1906.42,-2.62
1925.49,-2.64
1944.74,-2.67
1964.19,-2.69
1983.83,-2.71
2003.67,-2.73
2023.71,-2.76
2043.94,-2.80
2064.38,-2.83
2085.03,-2.87
2105.88,-2.90
2126.94,-2.93
2148.20,-2.97
2169.69,-3.01
2191.38,-3.05
2213.30,-3.08
2235.43,-3.10
2257.78,-3.11
2280.36,-3.11
2303.17,-3.10
2326.20,-3.07
2349.46,-3.03
2372.95,-2.98
2396.68,-2.94
2420.65,-2.89
2444.86,-2.80
2469.31,-2.72
2494.00,-2.62
2518.94,-2.52
2544.13,-2.41
2569.57,-2.29
2595.27,-2.19
2621.22,-2.10
2647.43,-2.01
2673.90,-1.92
2700.64,-1.83
2727.65,-1.75
2754.93,-1.66
2782.48,-1.59
2810.30,-1.51
2838.40,-1.44
2866.79,-1.37
2895.46,-1.29
2924.41,-1.21
2953.65,-1.10
2983.19,-0.97
3013.02,-0.83
3043.15,-0.66
3073.58,-0.47
3104.32,-0.26
3135.36,-0.04
3166.72,0.17
3198.38,0.41
3230.37,0.66
3262.67,0.89
3295.30,1.10
3328.25,1.32
3361.53,1.51
3395.15,1.67
3429.10,1.82
3463.39,1.95
3498.03,2.06
3533.01,2.15
3568.34,2.21
3604.02,2.27
3640.06,2.29
3676.46,2.31
3713.22,2.32
3750.36,2.32
3787.86,2.29
3825.74,2.26
3864.00,2.22
3902.64,2.16
3941.66,2.06
3981.08,1.95
4020.89,1.83
4061.10,1.69
4101.71,1.54
4142.73,1.39
4184.15,1.22
4226.00,1.06
4268.26,0.92
4310.94,0.79
4354.05,0.67
4397.59,0.57
4441.56,0.51
4485.98,0.46
4530.84,0.44
4576.15,0.42
4621.91,0.42
4668.13,0.43
4714.81,0.44
4761.96,0.46
4809.58,0.47
4857.67,0.48
4906.25,0.50
4955.31,0.52
5004.87,0.56
5054.91,0.59
5105.46,0.61
5156.52,0.66
5208.08,0.73
5260.16,0.79
5312.77,0.85
5365.89,0.91
5419.55,0.94
5473.75,0.93
5528.49,0.86
5583.77,0.72
5639.61,0.49
5696.00,0.19
5752.96,-0.20
5810.49,-0.69
5868.60,-1.24
5927.28,-1.87
5986.56,-2.56
6046.42,-3.28
6106.89,-4.05
6167.96,-4.82
6229.64,-5.58
6291.93,-6.35
6354.85,-7.08
6418.40,-7.77
6482.58,-8.41
6547.41,-8.98
6612.88,-9.51
6679.01,-9.98
6745.80,-10.39
6813.26,-10.74
6881.39,-11.02
6950.21,-11.26
7019.71,-11.42
7089.91,-11.55
7160.81,-11.62
7232.41,-11.64
7304.74,-11.61
7377.79,-11.55
7451.56,-11.44
7526.08,-11.28
7601.34,-11.09
7677.35,-10.87
7754.13,-10.63
7831.67,-10.38
7909.98,-10.14
7989.08,-9.93
8068.98,-9.76
8149.67,-9.63
8231.16,-9.56
8313.47,-9.59
8396.61,-9.71
8480.57,-9.91
8565.38,-10.23
8651.03,-10.64
8737.54,-11.12
8824.92,-11.65
8913.17,-12.20
9002.30,-12.77
9092.32,-13.32
9183.25,-13.81
9275.08,-14.25
9367.83,-14.59
9461.51,-14.85
9556.12,-15.00
9651.68,-15.05
9748.20,-15.02
9845.68,-14.95
9944.14,-14.84
10043.58,-14.75
10144.02,-14.70
10245.46,-14.70
10347.91,-14.80
10451.39,-15.00
10555.91,-15.30
10661.46,-15.67
10768.08,-16.11
10875.76,-16.60
10984.52,-17.13
11094.36,-17.65
11205.31,-18.16
11317.36,-18.59
11430.53,-18.97
11544.84,-19.24
11660.29,-19.41
11776.89,-19.48
11894.66,-19.44
12013.60,-19.33
12133.74,-19.16
12255.08,-18.98
12377.63,-18.78
12501.41,-18.61
12626.42,-18.46
12752.68,-18.37
12880.21,-18.33
13009.01,-18.32
13139.10,-18.33
13270.49,-18.34
13403.20,-18.35
13537.23,-18.34
13672.60,-18.32
13809.33,-18.28
13947.42,-18.21
14086.90,-18.11
14227.77,-17.98
14370.04,-17.77
14513.74,-17.52
14658.88,-17.22
14805.47,-16.89
14953.52,-16.54
15103.06,-16.16
15254.09,-15.79
15406.63,-15.44
15560.70,-15.13
15716.30,-14.90
15873.47,-14.71
16032.20,-14.59
16192.52,-14.55
16354.45,-14.60
16517.99,-14.70
16683.17,-14.88
16850.01,-15.18
17018.51,-15.56
17188.69,-16.03
17360.58,-16.59
17534.18,-17.20
17709.53,-17.91
17886.62,-18.67
18065.49,-19.38
18246.14,-20.06
18428.60,-20.76
18612.89,-21.48
18799.02,-22.21
18987.01,-22.98
19176.88,-23.76
19368.65,-24.57
19562.33,-25.40
19757.96,-26.25
19955.54,-27.13
