frequency,raw,error,smoothed,error_smoothed,equalization,parametric_eq,fixed_band_eq,equalized_raw,equalized_smoothed,target
20.00,-0.00,-2.22,-0.00,-2.21,2.21,0.61,0.22,2.21,2.21,2.21
20.20,0.05,-2.17,0.04,-2.17,2.17,0.60,0.23,2.22,2.22,2.21
20.40,0.09,-2.13,0.09,-2.13,2.13,0.59,0.23,2.22,2.22,2.22
20.61,0.14,-2.09,0.14,-2.08,2.08,0.58,0.24,2.22,2.22,2.22
20.81,0.19,-2.04,0.18,-2.04,2.04,0.57,0.25,2.23,2.22,2.22
21.02,0.23,-2.00,0.23,-2.00,2.00,0.56,0.26,2.22,2.23,2.22
21.23,0.28,-1.95,0.28,-1.95,1.95,0.55,0.27,2.23,2.23,2.22
21.44,0.33,-1.91,0.33,-1.91,1.91,0.54,0.28,2.23,2.23,2.23
21.66,0.38,-1.86,0.37,-1.86,1.86,0.52,0.29,2.24,2.24,2.23
21.87,0.42,-1.82,0.42,-1.82,1.81,0.51,0.30,2.23,2.24,2.23
22.09,0.47,-1.77,0.47,-1.77,1.77,0.50,0.31,2.24,2.23,2.24
22.31,0.52,-1.73,0.52,-1.72,1.72,0.49,0.32,2.24,2.24,2.24
22.54,0.57,-1.67,0.57,-1.67,1.67,0.48,0.33,2.24,2.24,2.24
22.76,0.63,-1.62,0.62,-1.62,1.62,0.46,0.34,2.25,2.24,2.24
22.99,0.68,-1.57,0.68,-1.57,1.57,0.45,0.35,2.24,2.24,2.24
23.22,0.73,-1.52,0.73,-1.51,1.51,0.44,0.36,2.24,2.25,2.24
23.45,0.79,-1.46,0.78,-1.46,1.46,0.43,0.37,2.25,2.25,2.24
23.69,0.84,-1.41,0.84,-1.41,1.41,0.41,0.38,2.24,2.25,2.24
23.92,0.89,-1.37,0.89,-1.36,1.35,0.40,0.39,2.24,2.24,2.25
24.16,0.94,-1.31,0.94,-1.31,1.30,0.39,0.41,2.24,2.24,2.24
24.40,0.99,-1.26,0.99,-1.26,1.26,0.38,0.42,2.25,2.25,2.24
24.65,1.03,-1.22,1.03,-1.21,1.22,0.36,0.43,2.25,2.25,2.24
24.89,1.08,-1.16,1.07,-1.16,1.18,0.35,0.44,2.26,2.26,2.23
25.14,1.11,-1.13,1.10,-1.13,1.15,0.34,0.45,2.26,2.25,2.23
25.39,1.12,-1.11,1.12,-1.11,1.12,0.32,0.47,2.24,2.24,2.22
25.65,1.13,-1.10,1.13,-1.10,1.08,0.31,0.48,2.21,2.21,2.22
25.91,1.14,-1.08,1.15,-1.07,1.05,0.30,0.49,2.18,2.19,2.22
26.16,1.18,-1.04,1.18,-1.03,1.00,0.28,0.50,2.18,2.19,2.21
26.43,1.24,-0.97,1.23,-0.97,0.96,0.27,0.51,2.19,2.19,2.21
26.69,1.30,-0.91,1.30,-0.91,0.90,0.25,0.52,2.20,2.20,2.20
26.96,1.36,-0.85,1.36,-0.85,0.85,0.24,0.53,2.20,2.20,2.20
27.23,1.42,-0.79,1.42,-0.78,0.79,0.22,0.54,2.21,2.21,2.20
27.50,1.48,-0.72,1.48,-0.72,0.74,0.21,0.55,2.22,2.22,2.19
27.77,1.53,-0.67,1.53,-0.67,0.70,0.20,0.56,2.23,2.23,2.20
28.05,1.58,-0.63,1.57,-0.64,0.67,0.18,0.57,2.24,2.23,2.20
28.33,1.58,-0.63,1.58,-0.62,0.63,0.17,0.57,2.21,2.21,2.20
28.62,1.59,-0.62,1.58,-0.62,0.60,0.15,0.58,2.18,2.18,2.20
28.90,1.59,-0.62,1.60,-0.61,0.56,0.14,0.58,2.15,2.16,2.20
29.19,1.63,-0.58,1.64,-0.57,0.53,0.12,0.59,2.16,2.17,2.20
29.48,1.70,-0.51,1.70,-0.51,0.51,0.11,0.59,2.20,2.20,2.20
29.78,1.77,-0.44,1.76,-0.44,0.48,0.09,0.59,2.24,2.24,2.20
30.08,1.82,-0.38,1.80,-0.40,0.44,0.07,0.58,2.26,2.24,2.20
30.38,1.82,-0.38,1.82,-0.38,0.39,0.06,0.58,2.21,2.21,2.19
30.68,1.82,-0.38,1.82,-0.37,0.35,0.04,0.58,2.17,2.17,2.19
30.99,1.82,-0.37,1.84,-0.35,0.31,0.03,0.57,2.12,2.14,2.19
31.30,1.89,-0.30,1.89,-0.29,0.27,0.01,0.56,2.16,2.16,2.18
31.61,1.96,-0.22,1.95,-0.22,0.24,-0.01,0.55,2.19,2.19,2.17
31.93,2.03,-0.15,2.01,-0.16,0.20,-0.02,0.54,2.23,2.21,2.17
32.24,2.05,-0.12,2.04,-0.12,0.15,-0.04,0.53,2.20,2.19,2.16
32.57,2.05,-0.11,2.05,-0.11,0.10,-0.06,0.52,2.15,2.15,2.16
32.89,2.05,-0.11,2.06,-0.09,0.06,-0.07,0.50,2.10,2.12,2.15
33.22,2.10,-0.06,2.11,-0.04,0.01,-0.09,0.48,2.11,2.12,2.15
33.55,2.18,0.03,2.17,0.03,-0.02,-0.11,0.46,2.15,2.15,2.14
33.89,2.25,0.11,2.24,0.10,-0.06,-0.12,0.44,2.18,2.17,2.13
34.23,2.28,0.14,2.27,0.14,-0.11,-0.14,0.42,2.17,2.16,2.13
34.57,2.28,0.15,2.28,0.15,-0.16,-0.16,0.40,2.12,2.12,2.12
34.92,2.28,0.15,2.30,0.17,-0.21,-0.18,0.38,2.07,2.09,2.12
35.27,2.34,0.21,2.35,0.22,-0.25,-0.20,0.35,2.08,2.09,2.12
35.62,2.42,0.29,2.41,0.29,-0.29,-0.21,0.32,2.13,2.12,2.12
35.97,2.49,0.37,2.47,0.35,-0.31,-0.23,0.30,2.17,2.16,2.11
36.33,2.50,0.38,2.50,0.39,-0.34,-0.25,0.27,2.16,2.16,2.11
36.70,2.51,0.39,2.51,0.40,-0.36,-0.27,0.24,2.14,2.15,2.11
37.06,2.51,0.39,2.50,0.39,-0.40,-0.29,0.21,2.11,2.11,2.11
37.43,2.51,0.39,2.50,0.38,-0.43,-0.31,0.18,2.08,2.08,2.12
37.81,2.51,0.38,2.52,0.40,-0.45,-0.33,0.15,2.06,2.06,2.12
38.19,2.55,0.42,2.57,0.44,-0.48,-0.35,0.12,2.07,2.09,2.12
38.57,2.64,0.51,2.63,0.51,-0.50,-0.37,0.08,2.13,2.13,2.12
38.95,2.72,0.59,2.69,0.57,-0.53,-0.39,0.05,2.19,2.16,2.12
39.34,2.73,0.60,2.73,0.60,-0.55,-0.41,0.02,2.17,2.18,2.12
39.74,2.73,0.60,2.73,0.61,-0.57,-0.43,-0.02,2.15,2.16,2.12
40.14,2.73,0.60,2.73,0.60,-0.59,-0.45,-0.05,2.14,2.14,2.12
40.54,2.73,0.60,2.73,0.60,-0.61,-0.47,-0.08,2.12,2.12,2.12
40.94,2.73,0.60,2.72,0.60,-0.63,-0.50,-0.12,2.10,2.10,2.12
41.35,2.73,0.61,2.72,0.60,-0.65,-0.52,-0.15,2.08,2.07,2.11
41.76,2.73,0.62,2.74,0.63,-0.68,-0.54,-0.19,2.04,2.05,2.10
42.18,2.77,0.67,2.79,0.70,-0.72,-0.57,-0.23,2.04,2.07,2.09
42.60,2.87,0.78,2.86,0.78,-0.77,-0.59,-0.26,2.10,2.10,2.08
43.03,2.96,0.88,2.93,0.86,-0.81,-0.61,-0.30,2.15,2.12,2.07
43.46,2.96,0.90,2.96,0.90,-0.85,-0.64,-0.34,2.11,2.12,2.05
43.90,2.96,0.91,2.97,0.92,-0.88,-0.66,-0.37,2.07,2.08,2.05
44.33,2.96,0.92,2.96,0.92,-0.92,-0.69,-0.41,2.04,2.04,2.03
44.78,2.96,0.93,2.95,0.93,-0.95,-0.71,-0.45,2.01,2.00,2.02
45.23,2.96,0.94,2.95,0.93,-0.98,-0.74,-0.49,1.98,1.97,2.02
45.68,2.96,0.95,2.96,0.96,-1.01,-0.76,-0.52,1.95,1.95,2.00
46.13,2.99,0.98,3.02,1.01,-1.04,-0.79,-0.56,1.95,1.98,2.00
46.60,3.10,1.09,3.09,1.09,-1.08,-0.82,-0.60,2.02,2.01,2.00
47.06,3.19,1.18,3.16,1.15,-1.11,-0.84,-0.64,2.08,2.05,2.00
47.53,3.19,1.18,3.19,1.19,-1.14,-0.87,-0.68,2.05,2.06,2.00
48.01,3.19,1.17,3.20,1.18,-1.16,-0.90,-0.72,2.03,2.04,2.01
48.49,3.19,1.16,3.19,1.16,-1.17,-0.92,-0.76,2.02,2.02,2.02
48.97,3.19,1.15,3.19,1.15,-1.17,-0.95,-0.80,2.02,2.02,2.04
49.46,3.19,1.14,3.19,1.14,-1.15,-0.98,-0.84,2.04,2.04,2.04
49.96,3.19,1.13,3.19,1.13,-1.13,-1.01,-0.88,2.06,2.06,2.05
50.46,3.19,1.11,3.19,1.12,-1.11,-1.03,-0.92,2.08,2.08,2.07
50.96,3.19,1.10,3.19,1.10,-1.10,-1.06,-0.96,2.09,2.09,2.08
51.47,3.19,1.09,3.19,1.09,-1.10,-1.09,-0.99,2.09,2.09,2.09
51.99,3.19,1.09,3.18,1.08,-1.12,-1.11,-1.03,2.07,2.06,2.09
52.51,3.19,1.09,3.19,1.09,-1.14,-1.14,-1.07,2.05,2.05,2.09
53.03,3.20,1.10,3.24,1.14,-1.17,-1.16,-1.11,2.02,2.07,2.09
53.56,3.32,1.22,3.31,1.22,-1.21,-1.18,-1.15,2.11,2.10,2.09
54.10,3.42,1.32,3.38,1.29,-1.25,-1.20,-1.18,2.17,2.13,2.09
54.64,3.42,1.33,3.42,1.34,-1.29,-1.23,-1.22,2.13,2.14,2.08
55.18,3.42,1.34,3.43,1.35,-1.33,-1.24,-1.25,2.09,2.10,2.07
55.74,3.42,1.35,3.42,1.36,-1.36,-1.26,-1.29,2.06,2.06,2.07
56.29,3.42,1.37,3.42,1.37,-1.38,-1.28,-1.32,2.04,2.04,2.04
56.86,3.42,1.38,3.42,1.39,-1.40,-1.30,-1.35,2.02,2.02,2.04
57.42,3.42,1.40,3.42,1.40,-1.41,-1.31,-1.38,2.00,2.00,2.01
58.00,3.42,1.42,3.42,1.42,-1.43,-1.32,-1.41,1.99,1.99,1.99
58.58,3.42,1.44,3.42,1.44,-1.44,-1.33,-1.43,1.98,1.98,1.97
59.16,3.42,1.46,3.42,1.46,-1.46,-1.34,-1.46,1.96,1.96,1.95
59.76,3.42,1.48,3.42,1.48,-1.48,-1.35,-1.48,1.94,1.94,1.94
60.35,3.42,1.50,3.42,1.50,-1.50,-1.36,-1.50,1.92,1.92,1.91
60.96,3.42,1.52,3.42,1.52,-1.52,-1.36,-1.52,1.90,1.90,1.90
61.57,3.42,1.53,3.42,1.54,-1.54,-1.37,-1.53,1.88,1.88,1.89
62.18,3.42,1.55,3.42,1.55,-1.56,-1.37,-1.54,1.86,1.86,1.86
62.80,3.42,1.57,3.42,1.57,-1.58,-1.37,-1.55,1.84,1.84,1.84
63.43,3.42,1.59,3.42,1.59,-1.60,-1.38,-1.56,1.82,1.82,1.82
64.07,3.42,1.61,3.42,1.61,-1.61,-1.38,-1.57,1.80,1.80,1.81
64.71,3.42,1.63,3.42,1.63,-1.63,-1.38,-1.57,1.79,1.79,1.79
65.35,3.42,1.65,3.42,1.65,-1.65,-1.38,-1.57,1.77,1.77,1.76
66.01,3.42,1.66,3.42,1.66,-1.66,-1.38,-1.57,1.76,1.76,1.75
66.67,3.42,1.67,3.42,1.67,-1.67,-1.38,-1.57,1.75,1.75,1.74
67.33,3.42,1.67,3.42,1.68,-1.68,-1.38,-1.57,1.74,1.74,1.74
68.01,3.42,1.68,3.42,1.68,-1.68,-1.38,-1.56,1.74,1.74,1.73
68.69,3.42,1.68,3.42,1.68,-1.68,-1.38,-1.55,1.74,1.74,1.73
69.37,3.42,1.67,3.42,1.67,-1.67,-1.38,-1.55,1.75,1.75,1.75
70.07,3.42,1.66,3.42,1.66,-1.66,-1.38,-1.54,1.75,1.75,1.75
70.77,3.42,1.65,3.42,1.65,-1.65,-1.38,-1.53,1.76,1.76,1.76
71.48,3.42,1.64,3.42,1.64,-1.64,-1.39,-1.51,1.78,1.78,1.77
72.19,3.42,1.63,3.42,1.63,-1.63,-1.39,-1.50,1.79,1.79,1.78
72.91,3.42,1.61,3.42,1.62,-1.62,-1.39,-1.49,1.80,1.80,1.80
73.64,3.42,1.60,3.42,1.60,-1.61,-1.39,-1.48,1.81,1.81,1.81
74.38,3.42,1.59,3.42,1.59,-1.60,-1.40,-1.46,1.82,1.82,1.82
75.12,3.42,1.58,3.42,1.59,-1.59,-1.40,-1.45,1.83,1.83,1.83
75.87,3.42,1.58,3.42,1.58,-1.58,-1.41,-1.44,1.84,1.84,1.84
76.63,3.42,1.57,3.42,1.57,-1.57,-1.41,-1.42,1.85,1.85,1.84
77.40,3.42,1.56,3.42,1.56,-1.56,-1.42,-1.41,1.85,1.85,1.85
78.17,3.42,1.55,3.42,1.56,-1.56,-1.42,-1.40,1.86,1.86,1.86
78.95,3.42,1.55,3.42,1.55,-1.55,-1.43,-1.38,1.87,1.87,1.87
79.74,3.42,1.54,3.42,1.54,-1.54,-1.43,-1.37,1.88,1.88,1.88
80.54,3.42,1.53,3.42,1.53,-1.53,-1.44,-1.36,1.88,1.88,1.88
81.35,3.42,1.52,3.42,1.52,-1.52,-1.45,-1.35,1.89,1.89,1.89
82.16,3.42,1.51,3.42,1.51,-1.51,-1.46,-1.34,1.91,1.91,1.90
82.98,3.42,1.50,3.42,1.50,-1.49,-1.46,-1.33,1.92,1.92,1.92
83.81,3.42,1.48,3.42,1.49,-1.47,-1.47,-1.32,1.94,1.94,1.93
84.65,3.42,1.47,3.42,1.47,-1.45,-1.48,-1.32,1.96,1.96,1.94
85.50,3.42,1.45,3.42,1.45,-1.44,-1.49,-1.31,1.98,1.98,1.96
86.35,3.42,1.43,3.42,1.43,-1.44,-1.50,-1.30,1.98,1.98,1.98
87.22,3.42,1.41,3.40,1.40,-1.44,-1.51,-1.30,1.98,1.96,2.00
88.09,3.42,1.39,3.42,1.39,-1.44,-1.52,-1.30,1.97,1.98,2.02
88.97,3.42,1.37,3.47,1.43,-1.45,-1.53,-1.29,1.97,2.02,2.04
89.86,3.57,1.51,3.54,1.48,-1.46,-1.54,-1.29,2.11,2.08,2.05
90.76,3.63,1.55,3.60,1.53,-1.47,-1.55,-1.29,2.15,2.13,2.07
91.66,3.64,1.54,3.64,1.55,-1.50,-1.56,-1.29,2.14,2.15,2.10
92.58,3.64,1.52,3.63,1.52,-1.53,-1.57,-1.29,2.11,2.11,2.11
93.51,3.64,1.50,3.63,1.50,-1.55,-1.59,-1.30,2.08,2.08,2.13
94.44,3.65,1.49,3.68,1.53,-1.58,-1.60,-1.30,2.07,2.11,2.15
95.39,3.74,1.56,3.75,1.58,-1.59,-1.61,-1.30,2.15,2.16,2.17
96.34,3.87,1.67,3.82,1.63,-1.60,-1.62,-1.31,2.27,2.22,2.19
97.30,3.87,1.65,3.87,1.65,-1.60,-1.63,-1.32,2.26,2.27,2.22
98.28,3.87,1.63,3.88,1.65,-1.61,-1.65,-1.32,2.26,2.27,2.23
99.26,3.87,1.61,3.87,1.62,-1.61,-1.66,-1.33,2.25,2.25,2.25
100.25,3.87,1.60,3.87,1.60,-1.61,-1.67,-1.34,2.26,2.26,2.26
101.25,3.87,1.58,3.87,1.58,-1.60,-1.68,-1.35,2.27,2.27,2.28
102.27,3.87,1.57,3.87,1.57,-1.58,-1.69,-1.36,2.28,2.28,2.29
103.29,3.87,1.56,3.87,1.56,-1.57,-1.71,-1.37,2.30,2.30,2.30
104.32,3.87,1.56,3.87,1.56,-1.56,-1.72,-1.38,2.30,2.30,2.30
105.37,3.87,1.56,3.87,1.56,-1.57,-1.73,-1.39,2.30,2.30,2.30
106.42,3.87,1.56,3.87,1.57,-1.58,-1.74,-1.40,2.29,2.29,2.30
107.48,3.87,1.57,3.87,1.58,-1.59,-1.76,-1.41,2.28,2.28,2.29
108.56,3.87,1.59,3.87,1.59,-1.60,-1.77,-1.43,2.27,2.27,2.27
109.64,3.87,1.60,3.87,1.60,-1.59,-1.78,-1.44,2.28,2.28,2.26
110.74,3.87,1.61,3.89,1.63,-1.58,-1.79,-1.45,2.29,2.31,2.25
111.85,3.87,1.62,3.85,1.61,-1.56,-1.81,-1.46,2.31,2.29,2.24
112.97,3.85,1.62,3.78,1.56,-1.54,-1.82,-1.47,2.31,2.24,2.23
114.10,3.64,1.42,3.71,1.49,-1.52,-1.83,-1.48,2.12,2.19,2.21
115.24,3.64,1.43,3.65,1.44,-1.49,-1.84,-1.49,2.14,2.15,2.20
116.39,3.64,1.44,3.62,1.42,-1.47,-1.85,-1.50,2.17,2.15,2.19
117.55,3.64,1.45,3.64,1.45,-1.44,-1.87,-1.51,2.19,2.19,2.18
118.73,3.64,1.45,3.64,1.45,-1.43,-1.88,-1.52,2.21,2.21,2.18
119.92,3.64,1.45,3.64,1.45,-1.43,-1.89,-1.53,2.21,2.21,2.18
121.12,3.64,1.45,3.64,1.45,-1.44,-1.90,-1.53,2.20,2.20,2.18
122.33,3.64,1.45,3.62,1.44,-1.47,-1.91,-1.54,2.17,2.15,2.18
123.55,3.64,1.44,3.64,1.45,-1.50,-1.92,-1.54,2.14,2.14,2.19
124.79,3.64,1.44,3.69,1.49,-1.53,-1.93,-1.54,2.11,2.16,2.19
126.03,3.80,1.59,3.76,1.56,-1.56,-1.94,-1.55,2.24,2.21,2.20
127.29,3.85,1.63,3.83,1.62,-1.58,-1.95,-1.55,2.26,2.25,2.21
128.57,3.87,1.65,3.87,1.65,-1.61,-1.96,-1.55,2.26,2.27,2.21
129.85,3.87,1.64,3.87,1.65,-1.62,-1.97,-1.55,2.25,2.25,2.22
131.15,3.87,1.63,3.87,1.64,-1.63,-1.98,-1.55,2.24,2.24,2.23
132.46,3.87,1.63,3.88,1.64,-1.63,-1.99,-1.54,2.24,2.25,2.23
133.79,3.87,1.63,3.85,1.61,-1.62,-2.00,-1.54,2.24,2.23,2.23
135.12,3.86,1.61,3.83,1.59,-1.61,-2.01,-1.54,2.24,2.22,2.24
136.48,3.76,1.51,3.82,1.58,-1.60,-2.01,-1.53,2.16,2.22,2.24
137.84,3.85,1.60,3.83,1.58,-1.60,-2.02,-1.53,2.25,2.23,2.24
139.22,3.87,1.61,3.85,1.60,-1.60,-2.03,-1.52,2.27,2.25,2.25
140.61,3.87,1.61,3.88,1.62,-1.60,-2.04,-1.52,2.27,2.28,2.25
142.02,3.87,1.61,3.87,1.61,-1.60,-2.05,-1.51,2.27,2.27,2.25
143.44,3.87,1.61,3.87,1.61,-1.61,-2.05,-1.51,2.26,2.26,2.25
144.87,3.87,1.61,3.87,1.62,-1.62,-2.06,-1.50,2.25,2.25,2.25
146.32,3.87,1.62,3.87,1.62,-1.63,-2.06,-1.49,2.24,2.24,2.24
147.78,3.87,1.63,3.87,1.63,-1.64,-2.07,-1.49,2.23,2.23,2.23
149.26,3.87,1.64,3.87,1.64,-1.65,-2.08,-1.48,2.22,2.22,2.22
150.75,3.87,1.66,3.87,1.66,-1.67,-2.08,-1.48,2.20,2.20,2.20
152.26,3.87,1.68,3.87,1.68,-1.69,-2.09,-1.47,2.18,2.18,2.18
153.78,3.87,1.71,3.87,1.71,-1.72,-2.09,-1.47,2.15,2.15,2.15
155.32,3.87,1.74,3.87,1.74,-1.76,-2.10,-1.47,2.11,2.11,2.12
156.88,3.87,1.77,3.87,1.77,-1.79,-2.10,-1.46,2.08,2.08,2.10
158.44,3.87,1.79,3.87,1.79,-1.82,-2.11,-1.46,2.05,2.05,2.07
160.03,3.87,1.81,3.87,1.81,-1.82,-2.11,-1.46,2.05,2.05,2.05
161.63,3.87,1.83,3.89,1.85,-1.80,-2.11,-1.46,2.07,2.09,2.03
163.24,3.87,1.84,3.87,1.85,-1.76,-2.12,-1.46,2.11,2.12,2.02
164.88,3.87,1.85,3.80,1.78,-1.70,-2.12,-1.47,2.17,2.10,2.01
166.53,3.66,1.64,3.67,1.65,-1.63,-2.12,-1.47,2.03,2.04,2.01
168.19,3.49,1.47,3.53,1.51,-1.55,-2.12,-1.48,1.93,1.98,2.01
169.87,3.42,1.39,3.43,1.40,-1.49,-2.13,-1.48,1.93,1.94,2.02
171.57,3.42,1.37,3.40,1.36,-1.43,-2.13,-1.49,1.99,1.98,2.04
173.29,3.42,1.35,3.39,1.33,-1.38,-2.13,-1.50,2.04,2.01,2.06
175.02,3.42,1.33,3.42,1.33,-1.35,-2.13,-1.50,2.07,2.07,2.08
176.77,3.42,1.30,3.48,1.36,-1.35,-2.13,-1.51,2.07,2.13,2.11
178.54,3.59,1.44,3.55,1.40,-1.36,-2.13,-1.53,2.23,2.19,2.14
180.32,3.64,1.46,3.61,1.44,-1.39,-2.13,-1.54,2.25,2.22,2.18
182.13,3.64,1.43,3.64,1.43,-1.43,-2.13,-1.55,2.21,2.21,2.20
183.95,3.64,1.41,3.64,1.42,-1.46,-2.13,-1.57,2.18,2.19,2.22
185.79,3.64,1.39,3.70,1.45,-1.49,-2.13,-1.58,2.15,2.21,2.24
187.65,3.81,1.54,3.77,1.51,-1.52,-2.13,-1.60,2.29,2.26,2.26
189.52,3.87,1.59,3.84,1.56,-1.53,-2.13,-1.62,2.33,2.30,2.27
191.42,3.87,1.58,3.88,1.60,-1.55,-2.13,-1.64,2.32,2.33,2.28
193.33,3.87,1.58,3.87,1.58,-1.56,-2.13,-1.66,2.30,2.31,2.28
195.27,3.87,1.57,3.87,1.57,-1.57,-2.13,-1.68,2.29,2.29,2.29
197.22,3.87,1.56,3.87,1.57,-1.57,-2.13,-1.70,2.29,2.29,2.30
199.19,3.87,1.56,3.87,1.56,-1.57,-2.12,-1.72,2.30,2.30,2.30
201.18,3.87,1.56,3.87,1.56,-1.56,-2.12,-1.75,2.31,2.31,2.30
203.19,3.87,1.56,3.87,1.56,-1.56,-2.12,-1.77,2.31,2.31,2.30
205.23,3.87,1.56,3.87,1.57,-1.57,-2.12,-1.80,2.30,2.30,2.30
207.28,3.87,1.57,3.85,1.56,-1.60,-2.11,-1.82,2.27,2.26,2.29
209.35,3.87,1.58,3.87,1.58,-1.63,-2.11,-1.84,2.24,2.24,2.28
211.44,3.87,1.58,3.92,1.64,-1.67,-2.11,-1.87,2.20,2.25,2.28
213.56,4.03,1.75,4.00,1.72,-1.71,-2.10,-1.89,2.32,2.29,2.27
215.69,4.10,1.82,4.07,1.79,-1.75,-2.10,-1.92,2.35,2.32,2.27
217.85,4.10,1.83,4.11,1.84,-1.79,-2.09,-1.94,2.31,2.32,2.26
220.03,4.10,1.83,4.10,1.84,-1.82,-2.09,-1.97,2.28,2.28,2.26
222.23,4.10,1.84,4.10,1.84,-1.85,-2.09,-1.99,2.25,2.25,2.25
224.45,4.10,1.84,4.10,1.84,-1.86,-2.08,-2.01,2.24,2.24,2.25
226.70,4.10,1.85,4.10,1.85,-1.86,-2.08,-2.03,2.23,2.23,2.24
228.96,4.10,1.85,4.10,1.86,-1.86,-2.07,-2.05,2.23,2.23,2.24
231.25,4.10,1.86,4.10,1.86,-1.86,-2.07,-2.07,2.24,2.24,2.23
233.57,4.10,1.86,4.10,1.86,-1.86,-2.06,-2.09,2.24,2.24,2.23
235.90,4.10,1.86,4.10,1.87,-1.87,-2.05,-2.10,2.23,2.23,2.23
238.26,4.10,1.87,4.10,1.87,-1.87,-2.05,-2.11,2.23,2.23,2.22
240.64,4.10,1.87,4.10,1.87,-1.87,-2.04,-2.12,2.23,2.23,2.22
243.05,4.10,1.87,4.10,1.87,-1.87,-2.04,-2.13,2.23,2.23,2.22
245.48,4.10,1.87,4.10,1.87,-1.87,-2.03,-2.14,2.23,2.23,2.22
247.93,4.10,1.87,4.10,1.87,-1.87,-2.02,-2.14,2.23,2.23,2.22
250.41,4.10,1.87,4.10,1.87,-1.87,-2.02,-2.15,2.22,2.22,2.22
252.92,4.10,1.87,4.10,1.87,-1.87,-2.01,-2.15,2.22,2.22,2.22
255.45,4.10,1.87,4.10,1.87,-1.87,-2.00,-2.14,2.22,2.22,2.22
258.00,4.10,1.87,4.10,1.87,-1.87,-1.99,-2.14,2.22,2.22,2.22
260.58,4.10,1.87,4.10,1.88,-1.88,-1.99,-2.13,2.22,2.22,2.22
263.19,4.10,1.88,4.10,1.88,-1.88,-1.98,-2.12,2.22,2.22,2.21
265.82,4.10,1.88,4.10,1.88,-1.88,-1.97,-2.11,2.22,2.22,2.21
268.48,4.10,1.88,4.10,1.89,-1.89,-1.96,-2.10,2.21,2.21,2.21
271.16,4.10,1.89,4.10,1.89,-1.89,-1.95,-2.08,2.21,2.21,2.20
273.87,4.10,1.89,4.10,1.89,-1.89,-1.94,-2.07,2.20,2.20,2.20
276.61,4.10,1.89,4.10,1.90,-1.90,-1.94,-2.05,2.20,2.20,2.20
279.38,4.10,1.90,4.10,1.90,-1.90,-1.93,-2.03,2.20,2.20,2.19
282.17,4.10,1.90,4.10,1.90,-1.90,-1.92,-2.01,2.20,2.20,2.19
284.99,4.10,1.90,4.10,1.90,-1.90,-1.91,-1.99,2.20,2.20,2.19
287.84,4.10,1.90,4.10,1.90,-1.90,-1.90,-1.97,2.20,2.20,2.19
290.72,4.10,1.90,4.10,1.90,-1.90,-1.89,-1.95,2.19,2.19,2.19
293.63,4.10,1.90,4.10,1.90,-1.90,-1.88,-1.93,2.19,2.19,2.19
296.57,4.10,1.90,4.10,1.90,-1.90,-1.87,-1.91,2.19,2.19,2.19
299.53,4.10,1.90,4.10,1.91,-1.90,-1.86,-1.89,2.19,2.19,2.19
302.53,4.10,1.91,4.10,1.91,-1.91,-1.85,-1.87,2.19,2.19,2.18
305.55,4.10,1.91,4.10,1.91,-1.92,-1.84,-1.85,2.18,2.18,2.18
308.61,4.10,1.91,4.10,1.92,-1.93,-1.83,-1.83,2.17,2.17,2.18
311.69,4.10,1.92,4.10,1.92,-1.94,-1.82,-1.81,2.16,2.16,2.17
314.81,4.10,1.93,4.10,1.93,-1.95,-1.81,-1.79,2.15,2.15,2.16
317.96,4.10,1.94,4.10,1.95,-1.94,-1.79,-1.77,2.16,2.16,2.15
321.14,4.10,1.96,4.11,1.97,-1.93,-1.78,-1.75,2.17,2.18,2.13
324.35,4.10,1.97,4.09,1.96,-1.91,-1.77,-1.74,2.19,2.18,2.12
327.59,4.07,1.95,4.03,1.91,-1.89,-1.76,-1.72,2.18,2.14,2.11
330.87,3.92,1.81,3.95,1.85,-1.86,-1.75,-1.71,2.05,2.09,2.10
334.18,3.87,1.77,3.89,1.79,-1.84,-1.74,-1.69,2.03,2.05,2.09
337.52,3.87,1.78,3.86,1.77,-1.82,-1.73,-1.68,2.05,2.04,2.08
340.90,3.87,1.78,3.86,1.78,-1.80,-1.71,-1.67,2.07,2.07,2.08
344.30,3.87,1.79,3.87,1.79,-1.78,-1.70,-1.66,2.09,2.09,2.07
347.75,3.87,1.79,3.87,1.79,-1.78,-1.69,-1.65,2.09,2.09,2.07
351.23,3.87,1.79,3.87,1.79,-1.78,-1.68,-1.65,2.09,2.09,2.07
354.74,3.87,1.79,3.87,1.79,-1.78,-1.66,-1.64,2.08,2.08,2.07
358.28,3.87,1.79,3.87,1.79,-1.79,-1.65,-1.64,2.08,2.08,2.07
361.87,3.87,1.78,3.87,1.79,-1.79,-1.64,-1.64,2.08,2.08,2.08
365.49,3.87,1.78,3.87,1.78,-1.79,-1.62,-1.63,2.08,2.08,2.08
369.14,3.87,1.78,3.87,1.78,-1.78,-1.61,-1.63,2.09,2.09,2.08
372.83,3.87,1.78,3.87,1.78,-1.78,-1.60,-1.64,2.09,2.09,2.08
376.56,3.87,1.77,3.87,1.78,-1.78,-1.58,-1.64,2.09,2.09,2.09
380.33,3.87,1.77,3.87,1.77,-1.78,-1.57,-1.64,2.09,2.09,2.09
384.13,3.87,1.77,3.87,1.77,-1.77,-1.56,-1.65,2.09,2.09,2.09
387.97,3.87,1.77,3.87,1.77,-1.77,-1.54,-1.65,2.10,2.10,2.09
391.85,3.87,1.77,3.87,1.77,-1.77,-1.53,-1.66,2.10,2.10,2.09
395.77,3.87,1.77,3.87,1.77,-1.77,-1.51,-1.67,2.10,2.10,2.09
399.73,3.87,1.76,3.87,1.77,-1.77,-1.50,-1.67,2.10,2.10,2.10
403.72,3.87,1.76,3.87,1.76,-1.77,-1.49,-1.68,2.09,2.09,2.10
407.76,3.87,1.76,3.87,1.76,-1.78,-1.47,-1.69,2.09,2.09,2.10
411.84,3.87,1.76,3.87,1.76,-1.78,-1.46,-1.70,2.09,2.09,2.10
415.96,3.87,1.76,3.87,1.76,-1.77,-1.44,-1.71,2.10,2.10,2.10
420.12,3.87,1.76,3.88,1.77,-1.75,-1.43,-1.72,2.12,2.13,2.10
424.32,3.87,1.76,3.87,1.77,-1.72,-1.41,-1.73,2.15,2.16,2.10
428.56,3.87,1.76,3.83,1.73,-1.69,-1.40,-1.74,2.18,2.14,2.10
432.85,3.78,1.67,3.77,1.66,-1.66,-1.38,-1.74,2.12,2.11,2.10
437.18,3.66,1.55,3.70,1.59,-1.62,-1.36,-1.75,2.03,2.07,2.10
441.55,3.64,1.54,3.64,1.54,-1.59,-1.35,-1.76,2.04,2.05,2.09
445.96,3.64,1.54,3.63,1.53,-1.57,-1.33,-1.76,2.07,2.06,2.09
450.42,3.64,1.54,3.64,1.54,-1.56,-1.32,-1.77,2.08,2.08,2.09
454.93,3.64,1.54,3.64,1.55,-1.55,-1.30,-1.77,2.09,2.09,2.09
459.48,3.64,1.55,3.64,1.55,-1.54,-1.28,-1.77,2.10,2.10,2.08
464.07,3.64,1.54,3.64,1.55,-1.53,-1.27,-1.77,2.11,2.11,2.09
468.71,3.64,1.54,3.65,1.56,-1.51,-1.25,-1.76,2.12,2.14,2.09
473.40,3.64,1.54,3.63,1.54,-1.49,-1.24,-1.76,2.15,2.15,2.09
478.13,3.64,1.54,3.58,1.48,-1.45,-1.22,-1.75,2.18,2.13,2.09
482.91,3.47,1.36,3.51,1.41,-1.42,-1.20,-1.74,2.05,2.09,2.10
487.74,3.42,1.31,3.44,1.34,-1.39,-1.18,-1.72,2.03,2.06,2.10
492.62,3.42,1.30,3.40,1.29,-1.36,-1.17,-1.70,2.06,2.05,2.11
497.55,3.42,1.30,3.41,1.29,-1.33,-1.15,-1.68,2.08,2.08,2.11
502.52,3.42,1.29,3.42,1.29,-1.31,-1.13,-1.66,2.11,2.11,2.12
507.55,3.42,1.28,3.42,1.29,-1.28,-1.12,-1.63,2.13,2.14,2.13
512.62,3.42,1.28,3.43,1.29,-1.25,-1.10,-1.60,2.17,2.18,2.13
517.75,3.42,1.27,3.41,1.26,-1.20,-1.08,-1.57,2.21,2.20,2.14
522.93,3.36,1.21,3.33,1.19,-1.13,-1.06,-1.53,2.22,2.20,2.14
528.16,3.22,1.07,3.23,1.08,-1.04,-1.04,-1.49,2.18,2.19,2.14
533.44,3.07,0.92,3.09,0.94,-0.93,-1.02,-1.45,2.14,2.16,2.14
538.77,2.98,0.83,2.95,0.81,-0.80,-1.01,-1.40,2.18,2.15,2.14
544.16,2.80,0.65,2.82,0.67,-0.68,-0.99,-1.35,2.11,2.13,2.14
549.60,2.72,0.58,2.69,0.55,-0.58,-0.97,-1.30,2.14,2.10,2.13
