frequency,raw,error,smoothed,error_smoothed,equalization,parametric_eq,fixed_band_eq,equalized_raw,equalized_smoothed,target
20.00,0.46,-4.35,0.45,-4.36,4.36,4.19,1.40,4.83,4.82,4.81
20.20,0.48,-4.33,0.49,-4.32,4.32,4.17,1.44,4.80,4.81,4.81
20.40,0.52,-4.29,0.53,-4.28,4.27,4.15,1.48,4.79,4.80,4.81
20.61,0.58,-4.23,0.58,-4.23,4.22,4.13,1.52,4.80,4.80,4.81
20.81,0.63,-4.18,0.63,-4.18,4.18,4.11,1.57,4.81,4.80,4.81
21.02,0.67,-4.14,0.68,-4.13,4.13,4.08,1.61,4.80,4.81,4.81
21.23,0.72,-4.08,0.72,-4.09,4.09,4.06,1.66,4.81,4.81,4.81
21.44,0.77,-4.03,0.76,-4.04,4.04,4.03,1.71,4.81,4.81,4.81
21.66,0.80,-4.00,0.81,-4.00,4.00,4.00,1.76,4.80,4.81,4.81
21.87,0.85,-3.95,0.85,-3.95,3.95,3.98,1.81,4.80,4.80,4.81
22.09,0.90,-3.90,0.89,-3.91,3.91,3.95,1.86,4.81,4.80,4.80
22.31,0.93,-3.87,0.94,-3.87,3.87,3.92,1.91,4.80,4.81,4.80
22.54,0.98,-3.82,0.98,-3.82,3.83,3.89,1.97,4.81,4.81,4.80
22.76,1.02,-3.78,1.02,-3.78,3.79,3.86,2.02,4.81,4.80,4.80
22.99,1.06,-3.74,1.06,-3.74,3.74,3.82,2.08,4.81,4.80,4.80
23.22,1.09,-3.71,1.10,-3.71,3.70,3.79,2.14,4.79,4.80,4.80
23.45,1.14,-3.66,1.14,-3.67,3.66,3.76,2.20,4.80,4.79,4.80
23.69,1.17,-3.63,1.18,-3.62,3.61,3.72,2.26,4.79,4.79,4.80
23.92,1.23,-3.57,1.23,-3.57,3.57,3.69,2.32,4.80,4.80,4.80
24.16,1.28,-3.52,1.28,-3.52,3.53,3.65,2.38,4.81,4.80,4.80
24.40,1.32,-3.48,1.32,-3.47,3.48,3.62,2.44,4.80,4.81,4.80
24.65,1.36,-3.44,1.37,-3.43,3.44,3.58,2.51,4.80,4.80,4.80
24.89,1.41,-3.39,1.40,-3.39,3.39,3.54,2.57,4.81,4.80,4.80
25.14,1.44,-3.36,1.44,-3.35,3.35,3.50,2.63,4.80,4.80,4.80
25.39,1.47,-3.32,1.48,-3.32,3.32,3.47,2.70,4.79,4.80,4.80
25.65,1.52,-3.27,1.51,-3.28,3.28,3.43,2.76,4.80,4.79,4.80
25.91,1.55,-3.24,1.55,-3.24,3.24,3.39,2.83,4.79,4.79,4.79
26.16,1.58,-3.21,1.58,-3.21,3.21,3.35,2.89,4.79,4.79,4.79
26.43,1.61,-3.18,1.62,-3.18,3.17,3.32,2.95,4.78,4.79,4.79
26.69,1.65,-3.14,1.65,-3.14,3.14,3.28,3.02,4.79,4.79,4.79
26.96,1.69,-3.10,1.69,-3.10,3.10,3.24,3.08,4.80,4.79,4.79
27.23,1.72,-3.07,1.72,-3.07,3.07,3.20,3.13,4.79,4.79,4.79
27.50,1.75,-3.04,1.75,-3.04,3.04,3.16,3.19,4.79,4.79,4.79
27.77,1.78,-3.01,1.78,-3.00,3.01,3.12,3.24,4.79,4.79,4.79
28.05,1.81,-2.97,1.81,-2.98,2.98,3.08,3.30,4.79,4.79,4.79
28.33,1.84,-2.94,1.84,-2.94,2.94,3.04,3.34,4.79,4.79,4.78
28.62,1.86,-2.92,1.87,-2.92,2.91,3.01,3.39,4.78,4.78,4.78
28.90,1.90,-2.88,1.89,-2.89,2.89,2.97,3.43,4.79,4.78,4.78
29.19,1.91,-2.87,1.92,-2.86,2.86,2.93,3.46,4.77,4.78,4.78
29.48,1.95,-2.83,1.95,-2.83,2.83,2.89,3.49,4.78,4.78,4.78
29.78,1.99,-2.79,1.98,-2.80,2.80,2.85,3.52,4.79,4.78,4.78
30.08,1.99,-2.78,2.01,-2.77,2.77,2.82,3.54,4.77,4.78,4.78
30.38,2.04,-2.73,2.03,-2.75,2.74,2.78,3.55,4.79,4.77,4.77
30.68,2.04,-2.73,2.05,-2.72,2.71,2.74,3.56,4.76,4.76,4.77
30.99,2.08,-2.69,2.08,-2.69,2.68,2.70,3.57,4.76,4.77,4.77
31.30,2.12,-2.65,2.11,-2.65,2.65,2.67,3.57,4.77,4.77,4.77
31.61,2.15,-2.62,2.15,-2.62,2.62,2.63,3.56,4.77,4.77,4.77
31.93,2.18,-2.58,2.18,-2.58,2.59,2.60,3.54,4.77,4.77,4.76
32.24,2.21,-2.55,2.21,-2.55,2.55,2.56,3.53,4.77,4.77,4.76
32.57,2.24,-2.52,2.24,-2.52,2.52,2.52,3.50,4.76,4.76,4.76
32.89,2.27,-2.49,2.27,-2.49,2.49,2.49,3.47,4.76,4.76,4.76
33.22,2.30,-2.45,2.30,-2.45,2.45,2.45,3.44,4.76,4.76,4.76
33.55,2.33,-2.42,2.33,-2.42,2.42,2.42,3.40,4.75,4.75,4.75
33.89,2.36,-2.39,2.36,-2.39,2.39,2.39,3.36,4.75,4.75,4.75
34.23,2.39,-2.36,2.40,-2.35,2.35,2.35,3.31,4.74,4.74,4.75
34.57,2.43,-2.31,2.43,-2.31,2.31,2.32,3.26,4.74,4.74,4.75
34.92,2.47,-2.27,2.47,-2.28,2.28,2.29,3.21,4.75,4.74,4.74
35.27,2.50,-2.24,2.50,-2.24,2.24,2.26,3.15,4.74,4.74,4.74
35.62,2.53,-2.20,2.54,-2.20,2.21,2.22,3.09,4.74,4.74,4.74
35.97,2.56,-2.17,2.56,-2.17,2.17,2.19,3.03,4.74,4.74,4.73
36.33,2.60,-2.13,2.59,-2.14,2.14,2.16,2.97,4.75,4.73,4.73
36.70,2.60,-2.12,2.61,-2.12,2.11,2.13,2.90,4.72,4.72,4.73
37.06,2.63,-2.09,2.63,-2.09,2.09,2.10,2.84,4.72,4.72,4.72
37.43,2.64,-2.08,2.65,-2.07,2.06,2.07,2.77,4.70,4.71,4.72
37.81,2.69,-2.02,2.68,-2.04,2.04,2.04,2.70,4.73,4.72,4.71
38.19,2.69,-2.02,2.70,-2.01,2.01,2.01,2.64,4.70,4.71,4.71
38.57,2.73,-1.97,2.72,-1.98,1.99,1.98,2.57,4.72,4.71,4.71
38.95,2.73,-1.97,2.74,-1.96,1.96,1.96,2.50,4.69,4.70,4.70
39.34,2.76,-1.94,2.76,-1.94,1.94,1.93,2.44,4.70,4.69,4.70
39.74,2.77,-1.92,2.77,-1.92,1.91,1.90,2.37,4.68,4.68,4.69
40.14,2.80,-1.89,2.80,-1.88,1.88,1.87,2.30,4.69,4.69,4.69
40.54,2.82,-1.86,2.83,-1.86,1.86,1.85,2.24,4.68,4.68,4.68
40.94,2.86,-1.82,2.85,-1.83,1.83,1.82,2.18,4.69,4.68,4.68
41.35,2.86,-1.81,2.87,-1.80,1.81,1.80,2.12,4.67,4.68,4.67
41.76,2.88,-1.78,2.88,-1.78,1.78,1.77,2.06,4.66,4.66,4.66
42.18,2.90,-1.76,2.90,-1.76,1.76,1.74,2.00,4.66,4.66,4.66
42.60,2.90,-1.75,2.92,-1.73,1.74,1.72,1.94,4.64,4.66,4.65
43.03,2.95,-1.69,2.94,-1.71,1.72,1.69,1.88,4.67,4.66,4.65
43.46,2.95,-1.69,2.95,-1.69,1.70,1.67,1.83,4.65,4.65,4.64
43.90,2.95,-1.68,2.96,-1.68,1.68,1.64,1.77,4.63,4.63,4.63
44.33,2.95,-1.67,2.96,-1.66,1.65,1.62,1.72,4.60,4.61,4.62
44.78,2.99,-1.63,2.98,-1.63,1.62,1.60,1.67,4.61,4.60,4.62
45.23,3.01,-1.60,3.01,-1.60,1.58,1.57,1.62,4.59,4.60,4.61
45.68,3.05,-1.55,3.05,-1.55,1.54,1.55,1.57,4.60,4.60,4.60
46.13,3.09,-1.50,3.09,-1.50,1.50,1.52,1.52,4.59,4.60,4.59
46.60,3.14,-1.44,3.14,-1.45,1.46,1.50,1.48,4.60,4.59,4.58
47.06,3.17,-1.40,3.17,-1.40,1.41,1.47,1.43,4.58,4.58,4.57
47.53,3.20,-1.36,3.20,-1.36,1.37,1.45,1.39,4.57,4.57,4.57
48.01,3.23,-1.32,3.23,-1.32,1.32,1.43,1.35,4.55,4.55,4.56
48.49,3.25,-1.29,3.25,-1.29,1.28,1.40,1.31,4.54,4.54,4.55
48.97,3.29,-1.24,3.28,-1.25,1.25,1.38,1.27,4.54,4.53,4.53
49.46,3.29,-1.23,3.31,-1.22,1.22,1.35,1.23,4.51,4.53,4.52
49.96,3.34,-1.17,3.33,-1.18,1.19,1.32,1.19,4.54,4.52,4.51
50.46,3.34,-1.16,3.34,-1.16,1.17,1.30,1.15,4.51,4.51,4.50
50.96,3.34,-1.15,3.34,-1.14,1.14,1.27,1.12,4.49,4.49,4.49
51.47,3.34,-1.13,3.34,-1.13,1.12,1.25,1.08,4.46,4.46,4.48
51.99,3.34,-1.12,3.35,-1.11,1.10,1.22,1.05,4.44,4.45,4.46
52.51,3.37,-1.08,3.36,-1.08,1.08,1.19,1.02,4.46,4.45,4.45
53.03,3.38,-1.05,3.38,-1.06,1.06,1.16,0.98,4.45,4.44,4.43
53.56,3.38,-1.04,3.38,-1.04,1.04,1.14,0.95,4.43,4.43,4.42
54.10,3.38,-1.02,3.38,-1.02,1.02,1.11,0.92,4.40,4.40,4.41
54.64,3.38,-1.01,3.39,-1.00,1.00,1.08,0.89,4.38,4.39,4.39
55.18,3.40,-0.97,3.40,-0.97,0.97,1.05,0.86,4.37,4.37,4.37
55.74,3.42,-0.94,3.41,-0.95,0.94,1.01,0.83,4.36,4.35,4.36
56.29,3.42,-0.92,3.42,-0.91,0.91,0.98,0.80,4.33,4.34,4.34
56.86,3.42,-0.90,3.44,-0.88,0.88,0.95,0.76,4.30,4.32,4.32
57.42,3.47,-0.83,3.46,-0.85,0.85,0.92,0.73,4.32,4.30,4.30
58.00,3.47,-0.81,3.48,-0.81,0.81,0.88,0.70,4.28,4.29,4.28
58.58,3.50,-0.76,3.50,-0.77,0.77,0.85,0.67,4.28,4.27,4.26
59.16,3.51,-0.73,3.51,-0.74,0.74,0.81,0.64,4.25,4.25,4.24
59.76,3.51,-0.71,3.53,-0.70,0.70,0.77,0.61,4.21,4.23,4.22
60.35,3.55,-0.65,3.54,-0.66,0.66,0.73,0.58,4.22,4.20,4.20
60.96,3.55,-0.63,3.55,-0.63,0.63,0.70,0.54,4.18,4.17,4.18
61.57,3.55,-0.61,3.56,-0.60,0.59,0.66,0.51,4.15,4.16,4.16
62.18,3.56,-0.57,3.57,-0.56,0.56,0.62,0.48,4.12,4.13,4.13
62.80,3.60,-0.51,3.59,-0.52,0.53,0.57,0.44,4.13,4.12,4.11
63.43,3.60,-0.48,3.60,-0.48,0.49,0.53,0.41,4.09,4.09,4.08
64.07,3.60,-0.46,3.60,-0.46,0.46,0.49,0.37,4.06,4.06,4.06
64.71,3.60,-0.43,3.60,-0.43,0.42,0.45,0.34,4.02,4.02,4.03
65.35,3.60,-0.40,3.61,-0.39,0.38,0.40,0.30,3.98,3.99,4.00
66.01,3.64,-0.34,3.63,-0.35,0.34,0.36,0.26,3.98,3.97,3.98
66.67,3.64,-0.31,3.65,-0.29,0.30,0.31,0.23,3.94,3.95,3.95
67.33,3.68,-0.24,3.67,-0.25,0.26,0.26,0.19,3.94,3.93,3.92
68.01,3.68,-0.21,3.68,-0.21,0.21,0.21,0.15,3.89,3.89,3.89
68.69,3.68,-0.17,3.69,-0.16,0.16,0.17,0.11,3.84,3.85,3.86
69.37,3.71,-0.11,3.71,-0.12,0.11,0.12,0.07,3.82,3.82,3.82
70.07,3.73,-0.06,3.73,-0.06,0.06,0.07,0.02,3.79,3.79,3.79
70.77,3.75,-0.01,3.75,-0.01,0.01,0.02,-0.02,3.76,3.76,3.76
71.48,3.77,0.05,3.77,0.05,-0.04,-0.03,-0.06,3.73,3.72,3.72
72.19,3.77,0.09,3.79,0.10,-0.09,-0.09,-0.11,3.68,3.69,3.69
72.91,3.81,0.16,3.80,0.15,-0.14,-0.14,-0.15,3.67,3.66,3.65
73.64,3.81,0.20,3.81,0.20,-0.19,-0.19,-0.20,3.62,3.62,3.61
74.38,3.81,0.24,3.82,0.24,-0.24,-0.24,-0.24,3.57,3.58,3.57
75.12,3.81,0.28,3.81,0.28,-0.28,-0.29,-0.29,3.53,3.53,3.54
75.87,3.81,0.32,3.81,0.32,-0.32,-0.35,-0.33,3.49,3.49,3.50
76.63,3.81,0.36,3.81,0.36,-0.36,-0.40,-0.38,3.45,3.45,3.46
77.40,3.81,0.40,3.81,0.40,-0.39,-0.46,-0.43,3.42,3.42,3.41
78.17,3.81,0.44,3.81,0.44,-0.43,-0.51,-0.48,3.38,3.38,3.37
78.95,3.81,0.48,3.80,0.47,-0.47,-0.56,-0.53,3.34,3.33,3.33
79.74,3.79,0.51,3.79,0.51,-0.51,-0.62,-0.58,3.28,3.28,3.28
80.54,3.77,0.53,3.78,0.54,-0.56,-0.67,-0.63,3.21,3.22,3.24
81.35,3.78,0.59,3.78,0.59,-0.61,-0.73,-0.68,3.17,3.17,3.19
82.16,3.81,0.66,3.80,0.65,-0.66,-0.78,-0.74,3.15,3.13,3.15
82.98,3.81,0.71,3.82,0.72,-0.72,-0.83,-0.79,3.09,3.10,3.10
83.81,3.84,0.79,3.84,0.79,-0.78,-0.89,-0.84,3.06,3.06,3.05
84.65,3.86,0.86,3.85,0.85,-0.84,-0.94,-0.90,3.02,3.02,3.00
85.50,3.86,0.91,3.86,0.91,-0.90,-1.00,-0.96,2.96,2.97,2.95
86.35,3.86,0.96,3.86,0.96,-0.96,-1.05,-1.01,2.91,2.91,2.90
87.22,3.86,1.01,3.86,1.01,-1.01,-1.10,-1.07,2.85,2.85,2.85
88.09,3.86,1.06,3.86,1.06,-1.07,-1.16,-1.13,2.79,2.79,2.80
88.97,3.86,1.11,3.86,1.11,-1.12,-1.21,-1.19,2.74,2.74,2.75
89.86,3.86,1.17,3.87,1.17,-1.18,-1.26,-1.25,2.69,2.69,2.70
90.76,3.87,1.23,3.87,1.23,-1.23,-1.32,-1.31,2.64,2.64,2.64
91.66,3.88,1.29,3.88,1.29,-1.28,-1.37,-1.37,2.60,2.59,2.59
92.58,3.88,1.35,3.88,1.34,-1.34,-1.42,-1.44,2.54,2.54,2.53
93.51,3.86,1.38,3.87,1.39,-1.39,-1.47,-1.50,2.48,2.48,2.48
94.44,3.86,1.44,3.87,1.44,-1.43,-1.52,-1.56,2.43,2.43,2.42
95.39,3.86,1.49,3.86,1.49,-1.48,-1.57,-1.63,2.38,2.37,2.37
96.34,3.86,1.55,3.84,1.53,-1.53,-1.63,-1.70,2.33,2.31,2.31
97.30,3.81,1.56,3.83,1.57,-1.58,-1.68,-1.76,2.23,2.25,2.25
98.28,3.81,1.61,3.81,1.62,-1.63,-1.73,-1.83,2.18,2.18,2.20
99.26,3.81,1.67,3.81,1.67,-1.68,-1.78,-1.90,2.13,2.13,2.14
100.25,3.83,1.75,3.82,1.74,-1.74,-1.82,-1.97,2.09,2.08,2.08
101.25,3.83,1.81,3.83,1.80,-1.80,-1.87,-2.04,2.03,2.03,2.03
102.27,3.83,1.86,3.83,1.86,-1.86,-1.92,-2.10,1.97,1.98,1.97
103.29,3.83,1.92,3.83,1.92,-1.92,-1.97,-2.17,1.91,1.91,1.91
104.32,3.83,1.98,3.83,1.98,-1.98,-2.02,-2.24,1.85,1.85,1.85
105.37,3.83,2.04,3.83,2.04,-2.04,-2.06,-2.31,1.79,1.79,1.79
106.42,3.83,2.09,3.83,2.09,-2.10,-2.11,-2.38,1.74,1.74,1.74
107.48,3.83,2.15,3.83,2.15,-2.15,-2.15,-2.44,1.68,1.68,1.68
108.56,3.83,2.21,3.83,2.21,-2.21,-2.20,-2.51,1.62,1.62,1.62
109.64,3.83,2.27,3.83,2.27,-2.27,-2.24,-2.57,1.56,1.56,1.56
110.74,3.83,2.32,3.83,2.32,-2.33,-2.29,-2.64,1.51,1.51,1.51
111.85,3.83,2.38,3.83,2.38,-2.38,-2.33,-2.70,1.45,1.45,1.45
112.97,3.83,2.44,3.83,2.44,-2.44,-2.38,-2.76,1.39,1.39,1.39
114.10,3.83,2.50,3.83,2.50,-2.49,-2.42,-2.81,1.34,1.34,1.34
115.24,3.83,2.55,3.83,2.55,-2.55,-2.46,-2.87,1.28,1.28,1.28
116.39,3.83,2.61,3.83,2.61,-2.60,-2.50,-2.92,1.23,1.23,1.22
117.55,3.83,2.66,3.82,2.66,-2.66,-2.54,-2.97,1.17,1.17,1.17
118.73,3.81,2.70,3.82,2.70,-2.71,-2.58,-3.01,1.10,1.11,1.11
119.92,3.81,2.75,3.81,2.75,-2.76,-2.62,-3.06,1.05,1.05,1.06
121.12,3.81,2.81,3.81,2.81,-2.81,-2.66,-3.09,1.00,1.01,1.00
122.33,3.81,2.86,3.81,2.86,-2.85,-2.70,-3.13,0.96,0.96,0.95
123.55,3.81,2.91,3.80,2.91,-2.89,-2.74,-3.16,0.92,0.91,0.90
124.79,3.78,2.94,3.79,2.94,-2.93,-2.78,-3.19,0.85,0.85,0.85
126.03,3.77,2.98,3.77,2.97,-2.97,-2.81,-3.21,0.80,0.79,0.79
127.29,3.74,3.00,3.75,3.00,-3.01,-2.85,-3.23,0.73,0.73,0.74
128.57,3.73,3.04,3.74,3.04,-3.05,-2.89,-3.25,0.68,0.68,0.69
129.85,3.73,3.09,3.73,3.09,-3.10,-2.92,-3.26,0.64,0.63,0.64
131.15,3.73,3.14,3.73,3.14,-3.14,-2.96,-3.27,0.59,0.59,0.59
132.46,3.73,3.19,3.73,3.19,-3.19,-2.99,-3.27,0.54,0.54,0.55
133.79,3.73,3.23,3.73,3.23,-3.23,-3.02,-3.28,0.50,0.50,0.50
135.12,3.73,3.28,3.73,3.28,-3.28,-3.06,-3.28,0.45,0.45,0.45
136.48,3.73,3.33,3.74,3.33,-3.32,-3.09,-3.28,0.41,0.41,0.41
137.84,3.73,3.37,3.73,3.37,-3.36,-3.12,-3.27,0.37,0.37,0.36
139.22,3.73,3.42,3.72,3.40,-3.39,-3.15,-3.27,0.34,0.33,0.32
140.61,3.68,3.41,3.70,3.42,-3.42,-3.18,-3.26,0.26,0.28,0.27
142.02,3.68,3.45,3.67,3.44,-3.45,-3.21,-3.25,0.24,0.23,0.23
143.44,3.64,3.45,3.65,3.46,-3.47,-3.24,-3.24,0.17,0.18,0.19
144.87,3.64,3.49,3.63,3.49,-3.49,-3.27,-3.23,0.15,0.15,0.15
146.32,3.60,3.49,3.61,3.50,-3.51,-3.30,-3.22,0.10,0.10,0.11
147.78,3.60,3.53,3.59,3.52,-3.53,-3.33,-3.21,0.08,0.06,0.07
149.26,3.56,3.53,3.57,3.54,-3.55,-3.35,-3.20,0.01,0.02,0.03
150.75,3.55,3.56,3.56,3.57,-3.57,-3.38,-3.19,-0.02,-0.01,-0.01
152.26,3.55,3.60,3.55,3.59,-3.59,-3.41,-3.18,-0.04,-0.05,-0.05
153.78,3.55,3.63,3.54,3.62,-3.62,-3.43,-3.17,-0.06,-0.08,-0.08
155.32,3.51,3.63,3.53,3.64,-3.64,-3.46,-3.16,-0.13,-0.11,-0.12
156.88,3.51,3.66,3.51,3.66,-3.66,-3.48,-3.16,-0.15,-0.15,-0.15
158.44,3.51,3.69,3.49,3.68,-3.68,-3.50,-3.15,-0.17,-0.19,-0.18
160.03,3.47,3.69,3.49,3.70,-3.70,-3.53,-3.15,-0.23,-0.22,-0.22
161.63,3.47,3.72,3.47,3.72,-3.72,-3.55,-3.15,-0.25,-0.25,-0.25
163.24,3.47,3.75,3.46,3.73,-3.74,-3.57,-3.15,-0.27,-0.28,-0.28
164.88,3.44,3.75,3.45,3.76,-3.75,-3.59,-3.15,-0.31,-0.30,-0.31
166.53,3.42,3.76,3.43,3.76,-3.76,-3.61,-3.16,-0.34,-0.34,-0.34
168.19,3.42,3.79,3.41,3.78,-3.78,-3.63,-3.17,-0.35,-0.37,-0.37
169.87,3.38,3.77,3.39,3.78,-3.79,-3.65,-3.18,-0.40,-0.39,-0.39
171.57,3.38,3.80,3.37,3.79,-3.79,-3.67,-3.19,-0.41,-0.42,-0.42
173.29,3.34,3.79,3.35,3.80,-3.80,-3.69,-3.21,-0.46,-0.45,-0.45
175.02,3.34,3.81,3.34,3.81,-3.80,-3.70,-3.22,-0.46,-0.47,-0.47
176.77,3.31,3.81,3.31,3.80,-3.81,-3.72,-3.25,-0.50,-0.50,-0.50
178.54,3.29,3.81,3.29,3.81,-3.81,-3.74,-3.27,-0.52,-0.53,-0.52
180.32,3.25,3.79,3.27,3.81,-3.82,-3.75,-3.29,-0.56,-0.55,-0.54
182.13,3.25,3.82,3.25,3.82,-3.82,-3.76,-3.32,-0.57,-0.57,-0.57
183.95,3.25,3.84,3.24,3.82,-3.82,-3.78,-3.35,-0.57,-0.58,-0.59
185.79,3.21,3.82,3.22,3.83,-3.82,-3.79,-3.39,-0.61,-0.60,-0.61
187.65,3.20,3.83,3.20,3.83,-3.82,-3.80,-3.42,-0.62,-0.62,-0.63
189.52,3.16,3.81,3.17,3.82,-3.82,-3.82,-3.46,-0.66,-0.65,-0.65
191.42,3.16,3.83,3.15,3.82,-3.82,-3.83,-3.50,-0.66,-0.66,-0.67
193.33,3.12,3.81,3.13,3.82,-3.82,-3.84,-3.54,-0.70,-0.69,-0.69
195.27,3.12,3.83,3.11,3.81,-3.82,-3.85,-3.58,-0.70,-0.71,-0.70
197.22,3.08,3.80,3.09,3.81,-3.82,-3.86,-3.63,-0.74,-0.73,-0.72
199.19,3.08,3.82,3.08,3.82,-3.83,-3.87,-3.68,-0.75,-0.74,-0.74
201.18,3.08,3.84,3.08,3.83,-3.84,-3.87,-3.73,-0.76,-0.76,-0.75
203.19,3.08,3.85,3.08,3.85,-3.85,-3.88,-3.78,-0.77,-0.77,-0.77
205.23,3.08,3.87,3.08,3.86,-3.87,-3.89,-3.83,-0.78,-0.79,-0.79
207.28,3.08,3.88,3.08,3.88,-3.88,-3.89,-3.88,-0.80,-0.80,-0.80
209.35,3.08,3.90,3.09,3.90,-3.90,-3.90,-3.93,-0.82,-0.81,-0.81
211.44,3.10,3.93,3.09,3.92,-3.92,-3.90,-3.98,-0.82,-0.82,-0.83
213.56,3.10,3.94,3.09,3.93,-3.94,-3.91,-4.03,-0.83,-0.84,-0.84
215.69,3.08,3.94,3.09,3.94,-3.95,-3.91,-4.08,-0.87,-0.86,-0.85
217.85,3.08,3.95,3.09,3.96,-3.96,-3.91,-4.13,-0.88,-0.87,-0.87
220.03,3.10,3.98,3.09,3.97,-3.97,-3.92,-4.18,-0.87,-0.87,-0.88
222.23,3.10,3.99,3.10,3.99,-3.97,-3.92,-4.23,-0.87,-0.87,-0.89
224.45,3.08,3.98,3.08,3.99,-3.98,-3.92,-4.27,-0.89,-0.89,-0.90
226.70,3.07,3.98,3.06,3.97,-3.98,-3.92,-4.31,-0.91,-0.92,-0.91
228.96,3.03,3.95,3.04,3.97,-3.98,-3.92,-4.35,-0.95,-0.94,-0.92
231.25,3.03,3.96,3.03,3.96,-3.98,-3.92,-4.38,-0.95,-0.95,-0.93
233.57,3.03,3.97,3.03,3.97,-3.98,-3.91,-4.41,-0.95,-0.95,-0.94
235.90,3.03,3.98,3.03,3.98,-3.97,-3.91,-4.44,-0.94,-0.94,-0.95
238.26,3.03,3.99,3.02,3.98,-3.97,-3.91,-4.46,-0.94,-0.95,-0.96
240.64,2.99,3.96,3.00,3.97,-3.96,-3.91,-4.47,-0.97,-0.96,-0.97
243.05,2.99,3.97,2.98,3.96,-3.96,-3.90,-4.48,-0.97,-0.97,-0.98
245.48,2.95,3.94,2.96,3.94,-3.95,-3.90,-4.49,-1.00,-0.99,-0.98
247.93,2.95,3.94,2.94,3.93,-3.94,-3.89,-4.49,-0.99,-1.00,-0.99
250.41,2.90,3.90,2.92,3.91,-3.92,-3.88,-4.48,-1.02,-1.01,-1.00
252.92,2.90,3.91,2.90,3.91,-3.91,-3.88,-4.46,-1.00,-1.01,-1.01
255.45,2.88,3.90,2.88,3.89,-3.89,-3.87,-4.44,-1.01,-1.01,-1.01
258.00,2.86,3.88,2.86,3.88,-3.87,-3.86,-4.42,-1.01,-1.02,-1.02
260.58,2.82,3.85,2.83,3.86,-3.86,-3.85,-4.39,-1.04,-1.03,-1.03
263.19,2.81,3.84,2.80,3.84,-3.84,-3.84,-4.35,-1.03,-1.03,-1.03
265.82,2.77,3.81,2.78,3.81,-3.82,-3.83,-4.31,-1.04,-1.04,-1.04
268.48,2.75,3.80,2.75,3.80,-3.79,-3.82,-4.26,-1.04,-1.04,-1.04
271.16,2.72,3.77,2.72,3.77,-3.77,-3.81,-4.21,-1.04,-1.05,-1.05
273.87,2.69,3.75,2.69,3.74,-3.74,-3.79,-4.15,-1.05,-1.05,-1.06
276.61,2.64,3.70,2.65,3.71,-3.71,-3.78,-4.09,-1.07,-1.07,-1.06
279.38,2.61,3.68,2.61,3.68,-3.68,-3.77,-4.03,-1.07,-1.07,-1.07
282.17,2.58,3.65,2.58,3.65,-3.66,-3.75,-3.96,-1.07,-1.07,-1.07
284.99,2.56,3.64,2.56,3.63,-3.63,-3.74,-3.89,-1.07,-1.07,-1.07
287.84,2.52,3.60,2.52,3.60,-3.60,-3.72,-3.82,-1.08,-1.07,-1.08
290.72,2.49,3.57,2.49,3.57,-3.57,-3.70,-3.75,-1.08,-1.08,-1.08
293.63,2.45,3.54,2.45,3.54,-3.54,-3.69,-3.67,-1.09,-1.09,-1.09
296.57,2.41,3.50,2.42,3.51,-3.51,-3.67,-3.60,-1.10,-1.10,-1.09
299.53,2.38,3.48,2.38,3.48,-3.48,-3.65,-3.52,-1.10,-1.10,-1.09
302.53,2.35,3.45,2.35,3.45,-3.45,-3.63,-3.45,-1.10,-1.10,-1.10
305.55,2.32,3.42,2.32,3.42,-3.41,-3.61,-3.37,-1.09,-1.10,-1.10
308.61,2.27,3.38,2.28,3.38,-3.38,-3.59,-3.29,-1.11,-1.10,-1.10
311.69,2.24,3.35,2.24,3.35,-3.34,-3.57,-3.22,-1.10,-1.11,-1.11
314.81,2.19,3.30,2.20,3.31,-3.31,-3.55,-3.14,-1.12,-1.11,-1.11
317.96,2.16,3.28,2.16,3.27,-3.27,-3.53,-3.07,-1.11,-1.11,-1.11
321.14,2.11,3.23,2.11,3.23,-3.23,-3.50,-3.00,-1.12,-1.12,-1.12
324.35,2.08,3.20,2.07,3.19,-3.19,-3.48,-2.92,-1.11,-1.12,-1.12
327.59,2.02,3.14,2.03,3.15,-3.16,-3.46,-2.85,-1.13,-1.13,-1.12
330.87,1.99,3.12,1.99,3.11,-3.12,-3.43,-2.79,-1.13,-1.13,-1.12
334.18,1.95,3.08,1.95,3.08,-3.08,-3.40,-2.72,-1.13,-1.13,-1.13
337.52,1.91,3.04,1.92,3.05,-3.04,-3.38,-2.65,-1.13,-1.13,-1.13
340.90,1.88,3.01,1.88,3.01,-3.01,-3.35,-2.59,-1.12,-1.13,-1.13
344.30,1.84,2.98,1.84,2.97,-2.97,-3.33,-2.53,-1.13,-1.13,-1.13
347.75,1.80,2.94,1.80,2.93,-2.93,-3.30,-2.47,-1.13,-1.13,-1.14
351.23,1.75,2.89,1.75,2.89,-2.89,-3.27,-2.41,-1.14,-1.14,-1.14
354.74,1.71,2.85,1.71,2.85,-2.85,-3.24,-2.35,-1.14,-1.14,-1.14
358.28,1.67,2.81,1.67,2.81,-2.82,-3.21,-2.29,-1.14,-1.14,-1.14
361.87,1.64,2.78,1.64,2.78,-2.78,-3.18,-2.24,-1.14,-1.14,-1.14
365.49,1.59,2.74,1.60,2.74,-2.74,-3.15,-2.19,-1.15,-1.15,-1.15
369.14,1.56,2.71,1.56,2.70,-2.71,-3.12,-2.14,-1.15,-1.15,-1.15
372.83,1.52,2.67,1.52,2.67,-2.68,-3.09,-2.09,-1.16,-1.15,-1.15
376.56,1.49,2.64,1.50,2.64,-2.65,-3.05,-2.05,-1.16,-1.15,-1.15
380.33,1.47,2.62,1.47,2.62,-2.62,-3.02,-2.00,-1.15,-1.15,-1.15
384.13,1.44,2.59,1.44,2.59,-2.59,-2.99,-1.96,-1.15,-1.15,-1.15
387.97,1.41,2.57,1.42,2.57,-2.57,-2.95,-1.92,-1.15,-1.15,-1.15
391.85,1.39,2.55,1.38,2.54,-2.54,-2.92,-1.88,-1.15,-1.15,-1.16
395.77,1.35,2.51,1.35,2.51,-2.51,-2.88,-1.84,-1.16,-1.16,-1.16
399.73,1.32,2.48,1.32,2.48,-2.48,-2.85,-1.80,-1.16,-1.16,-1.16
403.72,1.29,2.45,1.29,2.45,-2.45,-2.81,-1.77,-1.16,-1.16,-1.16
407.76,1.26,2.42,1.26,2.42,-2.41,-2.78,-1.74,-1.15,-1.15,-1.16
411.84,1.22,2.38,1.22,2.38,-2.38,-2.74,-1.70,-1.15,-1.16,-1.16
415.96,1.18,2.34,1.18,2.34,-2.33,-2.70,-1.67,-1.15,-1.16,-1.16
420.12,1.12,2.28,1.13,2.29,-2.29,-2.66,-1.65,-1.17,-1.16,-1.16
424.32,1.09,2.26,1.08,2.25,-2.25,-2.62,-1.62,-1.16,-1.16,-1.16
428.56,1.03,2.20,1.03,2.20,-2.20,-2.59,-1.59,-1.17,-1.17,-1.16
432.85,0.99,2.16,0.99,2.16,-2.16,-2.55,-1.57,-1.17,-1.17,-1.17
437.18,0.94,2.11,0.95,2.11,-2.12,-2.51,-1.54,-1.18,-1.17,-1.17
441.55,0.91,2.08,0.91,2.07,-2.08,-2.47,-1.52,-1.17,-1.17,-1.17
445.96,0.87,2.04,0.87,2.04,-2.04,-2.43,-1.50,-1.17,-1.17,-1.17
450.42,0.83,2.00,0.84,2.00,-2.00,-2.38,-1.47,-1.17,-1.17,-1.17
454.93,0.80,1.97,0.80,1.97,-1.97,-2.34,-1.45,-1.16,-1.17,-1.17
459.48,0.76,1.93,0.76,1.93,-1.93,-2.30,-1.44,-1.17,-1.17,-1.17
464.07,0.72,1.89,0.73,1.90,-1.89,-2.26,-1.42,-1.17,-1.17,-1.17
468.71,0.69,1.86,0.69,1.86,-1.86,-2.22,-1.40,-1.17,-1.17,-1.17
473.40,0.65,1.82,0.65,1.82,-1.82,-2.17,-1.38,-1.17,-1.17,-1.17
478.13,0.61,1.78,0.62,1.79,-1.79,-2.13,-1.37,-1.18,-1.17,-1.17
482.91,0.58,1.75,0.58,1.75,-1.75,-2.09,-1.35,-1.17,-1.17,-1.17
487.74,0.54,1.71,0.54,1.71,-1.71,-2.04,-1.34,-1.17,-1.18,-1.17
492.62,0.49,1.67,0.50,1.68,-1.68,-2.00,-1.33,-1.19,-1.17,-1.17
497.55,0.47,1.65,0.46,1.64,-1.64,-1.96,-1.31,-1.17,-1.17,-1.17
502.52,0.43,1.61,0.43,1.60,-1.60,-1.91,-1.30,-1.17,-1.17,-1.17
507.55,0.38,1.56,0.39,1.56,-1.56,-1.87,-1.29,-1.18,-1.17,-1.18
512.62,0.35,1.53,0.35,1.52,-1.52,-1.82,-1.28,-1.17,-1.17,-1.18
517.75,0.30,1.48,0.31,1.48,-1.48,-1.78,-1.27,-1.18,-1.17,-1.18
522.93,0.27,1.45,0.26,1.44,-1.44,-1.73,-1.26,-1.17,-1.18,-1.18
