frequency,raw,error,smoothed,error_smoothed,equalization,parametric_eq,fixed_band_eq,equalized_raw,equalized_smoothed,target
20.00,1.66,-1.87,1.66,-1.87,1.87,1.14,0.37,3.53,3.53,3.53
20.20,1.76,-1.83,1.76,-1.83,1.83,1.12,0.38,3.59,3.59,3.59
20.40,1.85,-1.79,1.85,-1.79,1.79,1.10,0.39,3.64,3.64,3.64
20.61,1.95,-1.75,1.95,-1.75,1.75,1.08,0.40,3.70,3.70,3.70
20.81,2.04,-1.71,2.04,-1.71,1.71,1.07,0.41,3.75,3.75,3.75
21.02,2.14,-1.67,2.14,-1.67,1.66,1.05,0.42,3.80,3.80,3.81
21.23,2.23,-1.63,2.23,-1.62,1.62,1.04,0.43,3.85,3.85,3.86
21.44,2.33,-1.58,2.33,-1.58,1.58,1.03,0.44,3.91,3.91,3.91
21.66,2.42,-1.54,2.42,-1.53,1.53,1.01,0.46,3.95,3.96,3.96
21.87,2.52,-1.49,2.52,-1.49,1.49,1.00,0.47,4.01,4.01,4.01
22.09,2.61,-1.45,2.61,-1.45,1.45,0.99,0.48,4.06,4.06,4.06
22.31,2.70,-1.40,2.70,-1.40,1.40,0.98,0.50,4.10,4.10,4.11
22.54,2.79,-1.36,2.79,-1.36,1.36,0.97,0.51,4.15,4.15,4.14
22.76,2.88,-1.31,2.88,-1.31,1.31,0.96,0.53,4.20,4.20,4.20
22.99,2.97,-1.26,2.97,-1.27,1.27,0.95,0.54,4.24,4.24,4.23
23.22,3.05,-1.23,3.05,-1.23,1.23,0.94,0.56,4.28,4.28,4.28
23.45,3.13,-1.19,3.13,-1.19,1.19,0.94,0.57,4.32,4.33,4.32
23.69,3.22,-1.15,3.22,-1.16,1.15,0.93,0.59,4.37,4.37,4.37
23.92,3.30,-1.11,3.30,-1.12,1.11,0.92,0.60,4.41,4.41,4.41
24.16,3.38,-1.08,3.38,-1.08,1.07,0.92,0.62,4.45,4.46,4.46
24.40,3.46,-1.04,3.47,-1.04,1.03,0.92,0.64,4.50,4.50,4.50
24.65,3.55,-0.99,3.55,-1.00,1.00,0.91,0.65,4.55,4.54,4.54
24.89,3.63,-0.95,3.63,-0.95,0.96,0.91,0.67,4.59,4.59,4.58
25.14,3.70,-0.92,3.71,-0.92,0.92,0.91,0.69,4.62,4.63,4.62
25.39,3.78,-0.88,3.78,-0.88,0.88,0.90,0.71,4.67,4.66,4.66
25.65,3.85,-0.85,3.85,-0.85,0.85,0.90,0.72,4.70,4.70,4.70
25.91,3.92,-0.82,3.92,-0.82,0.82,0.90,0.74,4.73,4.74,4.74
26.16,3.99,-0.79,3.99,-0.79,0.78,0.90,0.76,4.77,4.77,4.78
26.43,4.06,-0.75,4.06,-0.75,0.75,0.90,0.78,4.81,4.81,4.81
26.69,4.12,-0.73,4.12,-0.72,0.72,0.90,0.80,4.84,4.85,4.85
26.96,4.19,-0.70,4.19,-0.69,0.70,0.91,0.81,4.89,4.89,4.89
27.23,4.25,-0.67,4.25,-0.67,0.67,0.91,0.83,4.92,4.92,4.92
27.50,4.31,-0.65,4.31,-0.65,0.65,0.91,0.85,4.96,4.96,4.96
27.77,4.36,-0.63,4.36,-0.63,0.63,0.91,0.87,4.99,4.99,5.00
28.05,4.42,-0.60,4.42,-0.61,0.61,0.92,0.88,5.03,5.03,5.02
28.33,4.47,-0.59,4.47,-0.59,0.59,0.92,0.90,5.06,5.06,5.06
28.62,4.52,-0.58,4.52,-0.58,0.58,0.92,0.92,5.10,5.10,5.10
28.90,4.57,-0.57,4.57,-0.57,0.57,0.93,0.93,5.14,5.14,5.14
29.19,4.62,-0.55,4.62,-0.56,0.56,0.93,0.95,5.18,5.17,5.17
29.48,4.66,-0.55,4.66,-0.55,0.55,0.94,0.96,5.21,5.21,5.21
29.78,4.70,-0.55,4.70,-0.54,0.55,0.95,0.98,5.25,5.25,5.25
30.08,4.74,-0.54,4.73,-0.55,0.55,0.95,0.99,5.29,5.28,5.28
30.38,4.76,-0.56,4.76,-0.55,0.55,0.96,1.01,5.31,5.32,5.32
30.68,4.78,-0.57,4.79,-0.56,0.56,0.97,1.02,5.34,5.35,5.35
30.99,4.81,-0.57,4.80,-0.58,0.58,0.97,1.03,5.38,5.38,5.38
31.30,4.82,-0.59,4.82,-0.59,0.59,0.98,1.04,5.41,5.41,5.41
31.61,4.83,-0.61,4.83,-0.61,0.61,0.99,1.05,5.44,5.44,5.44
31.93,4.84,-0.63,4.84,-0.63,0.63,1.00,1.06,5.47,5.47,5.47
32.24,4.84,-0.66,4.84,-0.66,0.66,1.01,1.07,5.50,5.50,5.50
32.57,4.84,-0.69,4.84,-0.69,0.69,1.02,1.08,5.53,5.53,5.53
32.89,4.84,-0.72,4.84,-0.72,0.72,1.03,1.09,5.56,5.55,5.56
33.22,4.83,-0.74,4.83,-0.75,0.75,1.04,1.10,5.58,5.58,5.57
33.55,4.82,-0.78,4.82,-0.78,0.78,1.05,1.10,5.60,5.60,5.60
33.89,4.81,-0.81,4.81,-0.81,0.81,1.06,1.11,5.62,5.62,5.62
34.23,4.80,-0.84,4.80,-0.84,0.84,1.07,1.12,5.64,5.64,5.64
34.57,4.79,-0.88,4.79,-0.88,0.88,1.09,1.12,5.67,5.66,5.67
34.92,4.77,-0.92,4.77,-0.91,0.91,1.10,1.13,5.68,5.68,5.69
35.27,4.76,-0.94,4.76,-0.95,0.95,1.11,1.14,5.71,5.70,5.70
35.62,4.74,-0.98,4.74,-0.98,0.98,1.12,1.14,5.72,5.72,5.72
35.97,4.72,-1.02,4.72,-1.02,1.02,1.14,1.15,5.74,5.74,5.74
36.33,4.69,-1.06,4.69,-1.06,1.07,1.15,1.16,5.76,5.76,5.75
36.70,4.66,-1.11,4.66,-1.11,1.11,1.16,1.16,5.77,5.77,5.77
37.06,4.62,-1.16,4.62,-1.16,1.16,1.18,1.17,5.77,5.78,5.78
37.43,4.59,-1.20,4.59,-1.20,1.20,1.19,1.18,5.79,5.79,5.79
37.81,4.56,-1.25,4.56,-1.25,1.25,1.21,1.19,5.81,5.80,5.81
38.19,4.52,-1.30,4.52,-1.30,1.30,1.22,1.20,5.82,5.82,5.82
38.57,4.48,-1.34,4.48,-1.34,1.34,1.24,1.21,5.82,5.82,5.82
38.95,4.44,-1.39,4.44,-1.39,1.39,1.25,1.22,5.83,5.83,5.83
39.34,4.41,-1.43,4.41,-1.43,1.43,1.27,1.23,5.84,5.84,5.84
39.74,4.37,-1.47,4.37,-1.47,1.47,1.29,1.24,5.84,5.84,5.84
40.14,4.33,-1.51,4.33,-1.51,1.51,1.30,1.26,5.84,5.85,5.84
40.54,4.30,-1.55,4.30,-1.55,1.55,1.32,1.27,5.85,5.85,5.85
40.94,4.26,-1.59,4.26,-1.59,1.59,1.34,1.29,5.85,5.85,5.85
41.35,4.23,-1.62,4.23,-1.62,1.62,1.35,1.30,5.85,5.85,5.85
41.76,4.20,-1.66,4.20,-1.66,1.66,1.37,1.32,5.86,5.85,5.86
42.18,4.17,-1.68,4.17,-1.69,1.69,1.39,1.34,5.86,5.86,5.85
42.60,4.14,-1.72,4.14,-1.72,1.72,1.41,1.36,5.86,5.86,5.86
43.03,4.11,-1.74,4.11,-1.74,1.74,1.42,1.38,5.85,5.86,5.85
43.46,4.09,-1.77,4.09,-1.77,1.77,1.44,1.40,5.86,5.86,5.86
43.90,4.07,-1.79,4.07,-1.79,1.79,1.46,1.42,5.86,5.86,5.86
44.33,4.05,-1.81,4.05,-1.81,1.81,1.48,1.45,5.86,5.86,5.86
44.78,4.03,-1.83,4.03,-1.83,1.83,1.50,1.47,5.86,5.86,5.86
45.23,4.01,-1.85,4.01,-1.84,1.84,1.52,1.50,5.85,5.86,5.86
45.68,4.00,-1.86,4.00,-1.86,1.86,1.53,1.52,5.86,5.86,5.86
46.13,3.98,-1.87,3.98,-1.87,1.87,1.55,1.55,5.85,5.86,5.85
46.60,3.97,-1.88,3.97,-1.88,1.89,1.57,1.58,5.86,5.85,5.85
47.06,3.95,-1.90,3.95,-1.90,1.90,1.59,1.61,5.85,5.85,5.85
47.53,3.93,-1.91,3.93,-1.92,1.91,1.61,1.64,5.84,5.84,5.84
48.01,3.91,-1.94,3.91,-1.93,1.93,1.63,1.68,5.84,5.84,5.85
48.49,3.90,-1.94,3.90,-1.94,1.94,1.65,1.71,5.84,5.84,5.84
48.97,3.88,-1.95,3.88,-1.95,1.95,1.67,1.74,5.83,5.84,5.83
49.46,3.87,-1.97,3.87,-1.96,1.97,1.69,1.78,5.84,5.84,5.84
49.96,3.85,-1.98,3.85,-1.98,1.99,1.70,1.81,5.84,5.83,5.83
50.46,3.83,-2.00,3.83,-2.00,2.00,1.72,1.85,5.83,5.83,5.83
50.96,3.81,-2.01,3.81,-2.02,2.01,1.74,1.89,5.82,5.82,5.82
51.47,3.79,-2.03,3.79,-2.03,2.03,1.76,1.92,5.82,5.82,5.82
51.99,3.77,-2.05,3.77,-2.05,2.04,1.78,1.96,5.81,5.81,5.82
52.51,3.75,-2.06,3.75,-2.06,2.05,1.80,2.00,5.80,5.81,5.81
53.03,3.74,-2.07,3.74,-2.06,2.06,1.81,2.03,5.80,5.80,5.81
53.56,3.73,-2.07,3.73,-2.07,2.07,1.83,2.07,5.80,5.80,5.80
54.10,3.72,-2.07,3.72,-2.07,2.08,1.85,2.10,5.80,5.79,5.79
54.64,3.70,-2.08,3.70,-2.08,2.08,1.86,2.14,5.78,5.78,5.78
55.18,3.68,-2.09,3.68,-2.08,2.08,1.88,2.17,5.76,5.77,5.77
55.74,3.67,-2.09,3.67,-2.09,2.08,1.90,2.20,5.75,5.75,5.76
56.29,3.66,-2.08,3.66,-2.08,2.08,1.91,2.23,5.74,5.74,5.74
56.86,3.65,-2.07,3.65,-2.07,2.07,1.93,2.26,5.72,5.72,5.72
57.42,3.64,-2.06,3.64,-2.06,2.07,1.94,2.29,5.70,5.70,5.70
58.00,3.63,-2.05,3.63,-2.05,2.06,1.96,2.31,5.69,5.68,5.68
58.58,3.61,-2.05,3.61,-2.04,2.05,1.97,2.33,5.66,5.66,5.66
59.16,3.60,-2.03,3.60,-2.04,2.04,1.98,2.35,5.64,5.64,5.63
59.76,3.58,-2.03,3.58,-2.03,2.03,2.00,2.36,5.61,5.61,5.61
60.35,3.56,-2.02,3.56,-2.02,2.02,2.01,2.38,5.58,5.58,5.58
60.96,3.54,-2.01,3.54,-2.01,2.00,2.02,2.39,5.54,5.55,5.55
61.57,3.53,-2.00,3.53,-2.00,1.99,2.03,2.39,5.52,5.52,5.53
62.18,3.51,-1.98,3.51,-1.98,1.98,2.04,2.39,5.49,5.49,5.49
62.80,3.50,-1.97,3.50,-1.96,1.96,2.05,2.39,5.46,5.47,5.47
63.43,3.49,-1.95,3.49,-1.95,1.95,2.06,2.39,5.44,5.44,5.44
64.07,3.48,-1.93,3.48,-1.93,1.94,2.07,2.38,5.42,5.42,5.41
64.71,3.46,-1.92,3.46,-1.93,1.93,2.07,2.37,5.39,5.40,5.38
65.35,3.44,-1.93,3.44,-1.93,1.93,2.08,2.36,5.37,5.37,5.37
66.01,3.42,-1.93,3.42,-1.93,1.93,2.09,2.34,5.35,5.35,5.35
66.67,3.39,-1.94,3.39,-1.94,1.93,2.09,2.32,5.32,5.33,5.33
67.33,3.37,-1.94,3.37,-1.94,1.94,2.09,2.30,5.31,5.31,5.31
68.01,3.35,-1.95,3.35,-1.95,1.95,2.10,2.27,5.30,5.30,5.30
68.69,3.33,-1.96,3.33,-1.96,1.96,2.10,2.25,5.29,5.29,5.29
69.37,3.31,-1.97,3.31,-1.97,1.97,2.10,2.22,5.28,5.28,5.28
70.07,3.29,-1.98,3.29,-1.98,1.98,2.10,2.18,5.27,5.26,5.27
70.77,3.27,-1.98,3.27,-1.98,1.98,2.10,2.15,5.25,5.25,5.25
71.48,3.26,-1.99,3.26,-1.99,1.98,2.10,2.12,5.24,5.24,5.25
72.19,3.25,-1.99,3.25,-1.98,1.98,2.09,2.08,5.23,5.23,5.24
72.91,3.25,-1.97,3.25,-1.98,1.97,2.09,2.04,5.22,5.22,5.22
73.64,3.24,-1.97,3.24,-1.97,1.96,2.08,2.01,5.20,5.21,5.21
74.38,3.24,-1.95,3.24,-1.96,1.95,2.08,1.97,5.19,5.19,5.19
75.12,3.23,-1.95,3.23,-1.94,1.94,2.07,1.93,5.17,5.17,5.18
75.87,3.23,-1.93,3.23,-1.93,1.93,2.06,1.89,5.16,5.16,5.16
76.63,3.23,-1.91,3.23,-1.91,1.92,2.05,1.85,5.15,5.15,5.14
77.40,3.22,-1.89,3.21,-1.90,1.91,2.04,1.81,5.13,5.13,5.11
78.17,3.19,-1.91,3.20,-1.90,1.91,2.03,1.77,5.10,5.10,5.10
78.95,3.17,-1.91,3.17,-1.90,1.91,2.02,1.74,5.08,5.08,5.08
79.74,3.15,-1.91,3.15,-1.91,1.91,2.00,1.70,5.06,5.05,5.06
80.54,3.12,-1.92,3.12,-1.92,1.91,1.99,1.66,5.03,5.03,5.04
81.35,3.09,-1.93,3.09,-1.92,1.92,1.97,1.63,5.01,5.02,5.02
82.16,3.07,-1.93,3.07,-1.93,1.93,1.96,1.59,5.00,5.00,5.00
82.98,3.04,-1.93,3.04,-1.94,1.94,1.94,1.56,4.98,4.98,4.97
83.81,3.01,-1.95,3.01,-1.95,1.95,1.92,1.52,4.96,4.96,4.96
84.65,2.98,-1.97,2.98,-1.97,1.96,1.90,1.49,4.94,4.95,4.95
85.50,2.96,-1.98,2.96,-1.98,1.97,1.88,1.46,4.93,4.93,4.94
86.35,2.94,-1.98,2.94,-1.98,1.98,1.86,1.43,4.92,4.92,4.92
87.22,2.92,-1.99,2.92,-1.98,1.98,1.84,1.40,4.90,4.91,4.91
88.09,2.91,-1.98,2.91,-1.98,1.98,1.82,1.37,4.89,4.89,4.89
88.97,2.90,-1.98,2.90,-1.98,1.97,1.79,1.35,4.87,4.87,4.88
89.86,2.89,-1.97,2.90,-1.97,1.96,1.77,1.32,4.85,4.86,4.86
90.76,2.90,-1.94,2.90,-1.95,1.94,1.75,1.29,4.84,4.84,4.84
91.66,2.91,-1.92,2.91,-1.92,1.92,1.72,1.27,4.83,4.83,4.83
92.58,2.92,-1.89,2.92,-1.89,1.90,1.69,1.25,4.82,4.82,4.81
93.51,2.92,-1.86,2.92,-1.87,1.87,1.67,1.23,4.79,4.79,4.78
94.44,2.92,-1.85,2.92,-1.84,1.85,1.64,1.20,4.77,4.77,4.77
95.39,2.92,-1.82,2.92,-1.82,1.82,1.61,1.18,4.74,4.74,4.74
96.34,2.92,-1.79,2.92,-1.79,1.79,1.58,1.17,4.71,4.71,4.71
97.30,2.92,-1.75,2.92,-1.76,1.75,1.55,1.15,4.67,4.67,4.67
98.28,2.92,-1.72,2.92,-1.72,1.72,1.52,1.13,4.64,4.64,4.64
99.26,2.92,-1.68,2.92,-1.68,1.69,1.49,1.11,4.61,4.61,4.60
100.25,2.92,-1.65,2.92,-1.65,1.65,1.45,1.10,4.57,4.57,4.57
101.25,2.92,-1.61,2.92,-1.61,1.61,1.42,1.08,4.53,4.53,4.53
102.27,2.92,-1.57,2.92,-1.57,1.57,1.39,1.07,4.49,4.49,4.49
103.29,2.92,-1.53,2.92,-1.53,1.52,1.35,1.06,4.44,4.44,4.45
104.32,2.92,-1.48,2.92,-1.48,1.48,1.32,1.04,4.40,4.40,4.40
105.37,2.92,-1.44,2.92,-1.44,1.44,1.29,1.03,4.36,4.36,4.36
106.42,2.92,-1.39,2.92,-1.39,1.39,1.25,1.02,4.31,4.31,4.31
107.48,2.92,-1.35,2.92,-1.35,1.35,1.22,1.00,4.27,4.27,4.27
108.56,2.92,-1.30,2.92,-1.30,1.30,1.18,0.99,4.22,4.22,4.22
109.64,2.92,-1.26,2.92,-1.26,1.26,1.14,0.98,4.18,4.18,4.18
110.74,2.92,-1.21,2.92,-1.22,1.22,1.11,0.97,4.14,4.14,4.13
111.85,2.92,-1.17,2.92,-1.18,1.18,1.07,0.95,4.10,4.10,4.09
112.97,2.91,-1.14,2.91,-1.14,1.14,1.03,0.94,4.05,4.05,4.05
114.10,2.91,-1.11,2.91,-1.11,1.10,0.99,0.93,4.01,4.01,4.02
115.24,2.91,-1.07,2.91,-1.07,1.06,0.95,0.91,3.97,3.97,3.98
116.39,2.91,-1.03,2.91,-1.03,1.03,0.92,0.90,3.94,3.94,3.94
117.55,2.92,-0.99,2.92,-0.99,0.99,0.88,0.88,3.91,3.91,3.91
118.73,2.93,-0.94,2.93,-0.95,0.95,0.84,0.87,3.88,3.88,3.87
119.92,2.94,-0.91,2.94,-0.91,0.91,0.80,0.85,3.85,3.85,3.85
121.12,2.95,-0.87,2.95,-0.87,0.88,0.76,0.83,3.83,3.83,3.82
122.33,2.96,-0.84,2.96,-0.84,0.84,0.72,0.82,3.80,3.80,3.80
123.55,2.97,-0.81,2.97,-0.80,0.80,0.68,0.80,3.77,3.78,3.78
124.79,2.99,-0.76,2.99,-0.76,0.76,0.64,0.78,3.75,3.76,3.75
126.03,3.02,-0.72,3.01,-0.72,0.72,0.59,0.76,3.74,3.74,3.74
127.29,3.03,-0.68,3.03,-0.68,0.68,0.55,0.73,3.71,3.72,3.71
128.57,3.05,-0.65,3.06,-0.64,0.64,0.51,0.71,3.69,3.70,3.70
129.85,3.08,-0.60,3.08,-0.60,0.60,0.47,0.69,3.68,3.68,3.68
131.15,3.11,-0.55,3.11,-0.56,0.55,0.43,0.66,3.66,3.66,3.66
132.46,3.13,-0.51,3.14,-0.51,0.51,0.38,0.63,3.64,3.65,3.64
133.79,3.16,-0.46,3.16,-0.46,0.47,0.34,0.61,3.63,3.63,3.62
135.12,3.19,-0.41,3.18,-0.42,0.42,0.30,0.58,3.61,3.60,3.60
136.48,3.20,-0.38,3.21,-0.37,0.37,0.25,0.55,3.57,3.57,3.58
137.84,3.23,-0.33,3.23,-0.33,0.32,0.21,0.52,3.55,3.54,3.56
139.22,3.25,-0.28,3.26,-0.27,0.26,0.17,0.49,3.51,3.52,3.53
140.61,3.29,-0.22,3.29,-0.21,0.21,0.12,0.46,3.50,3.50,3.51
142.02,3.34,-0.14,3.33,-0.15,0.16,0.08,0.42,3.50,3.48,3.48
143.44,3.36,-0.10,3.37,-0.09,0.10,0.03,0.39,3.46,3.47,3.46
144.87,3.40,-0.03,3.40,-0.03,0.04,-0.01,0.36,3.44,3.44,3.43
146.32,3.43,0.02,3.43,0.02,-0.02,-0.06,0.32,3.41,3.41,3.41
147.78,3.46,0.07,3.46,0.07,-0.07,-0.10,0.29,3.39,3.38,3.39
149.26,3.48,0.11,3.49,0.12,-0.13,-0.15,0.25,3.35,3.36,3.37
150.75,3.52,0.18,3.52,0.18,-0.18,-0.19,0.22,3.34,3.34,3.34
152.26,3.56,0.24,3.55,0.24,-0.24,-0.24,0.18,3.32,3.32,3.32
153.78,3.59,0.30,3.59,0.30,-0.29,-0.28,0.14,3.30,3.30,3.29
155.32,3.62,0.34,3.62,0.35,-0.35,-0.33,0.10,3.27,3.28,3.28
156.88,3.66,0.40,3.65,0.40,-0.40,-0.38,0.07,3.26,3.25,3.26
158.44,3.68,0.45,3.69,0.45,-0.45,-0.42,0.03,3.23,3.24,3.23
160.03,3.73,0.52,3.72,0.51,-0.51,-0.47,-0.01,3.22,3.22,3.21
161.63,3.76,0.56,3.76,0.56,-0.56,-0.51,-0.05,3.20,3.20,3.20
163.24,3.79,0.61,3.79,0.61,-0.61,-0.56,-0.09,3.18,3.18,3.18
164.88,3.83,0.67,3.83,0.66,-0.67,-0.60,-0.13,3.16,3.16,3.16
166.53,3.86,0.71,3.86,0.71,-0.72,-0.65,-0.17,3.14,3.14,3.15
168.19,3.90,0.77,3.90,0.77,-0.77,-0.70,-0.21,3.13,3.13,3.13
169.87,3.95,0.83,3.95,0.83,-0.82,-0.74,-0.25,3.13,3.12,3.12
171.57,3.99,0.88,3.99,0.88,-0.87,-0.79,-0.29,3.12,3.12,3.11
173.29,4.02,0.92,4.03,0.93,-0.92,-0.83,-0.33,3.10,3.11,3.10
175.02,4.06,0.97,4.06,0.97,-0.96,-0.87,-0.38,3.10,3.10,3.09
176.77,4.09,1.01,4.09,1.00,-1.00,-0.92,-0.42,3.09,3.08,3.08
178.54,4.11,1.03,4.11,1.03,-1.04,-0.96,-0.46,3.07,3.07,3.08
180.32,4.14,1.06,4.14,1.07,-1.08,-1.00,-0.50,3.06,3.07,3.08
182.13,4.17,1.10,4.18,1.10,-1.11,-1.05,-0.55,3.06,3.07,3.07
183.95,4.22,1.15,4.21,1.14,-1.14,-1.09,-0.59,3.08,3.07,3.07
185.79,4.25,1.18,4.25,1.18,-1.17,-1.13,-0.64,3.08,3.07,3.07
187.65,4.27,1.20,4.28,1.20,-1.20,-1.17,-0.68,3.07,3.07,3.07
189.52,4.30,1.23,4.30,1.23,-1.22,-1.21,-0.72,3.08,3.07,3.07
191.42,4.31,1.24,4.32,1.25,-1.24,-1.24,-0.77,3.07,3.07,3.07
193.33,4.33,1.27,4.33,1.26,-1.26,-1.28,-0.81,3.07,3.07,3.06
195.27,4.34,1.28,4.33,1.27,-1.27,-1.31,-0.86,3.07,3.07,3.06
197.22,4.33,1.27,4.34,1.27,-1.27,-1.35,-0.91,3.06,3.06,3.06
199.19,4.33,1.27,4.33,1.27,-1.27,-1.38,-0.95,3.06,3.06,3.06
201.18,4.32,1.27,4.32,1.27,-1.27,-1.41,-1.00,3.05,3.05,3.05
203.19,4.31,1.26,4.31,1.26,-1.27,-1.44,-1.04,3.04,3.05,3.05
205.23,4.30,1.26,4.30,1.26,-1.26,-1.47,-1.09,3.04,3.04,3.04
207.28,4.29,1.26,4.29,1.26,-1.25,-1.50,-1.13,3.04,3.04,3.03
209.35,4.28,1.25,4.28,1.25,-1.25,-1.52,-1.17,3.03,3.03,3.03
211.44,4.27,1.25,4.27,1.25,-1.25,-1.55,-1.22,3.02,3.02,3.02
213.56,4.26,1.25,4.26,1.24,-1.25,-1.57,-1.26,3.01,3.01,3.01
215.69,4.26,1.24,4.26,1.25,-1.26,-1.59,-1.30,3.00,3.00,3.02
217.85,4.27,1.26,4.27,1.26,-1.27,-1.60,-1.34,3.00,3.00,3.01
220.03,4.28,1.28,4.28,1.28,-1.29,-1.62,-1.38,2.99,2.99,3.00
222.23,4.30,1.31,4.30,1.31,-1.31,-1.63,-1.42,2.99,2.99,2.99
224.45,4.32,1.34,4.32,1.33,-1.33,-1.64,-1.45,2.99,2.99,2.98
226.70,4.34,1.36,4.34,1.36,-1.35,-1.65,-1.49,2.99,2.99,2.98
228.96,4.35,1.38,4.35,1.38,-1.37,-1.66,-1.52,2.98,2.98,2.97
231.25,4.36,1.40,4.36,1.39,-1.39,-1.67,-1.55,2.97,2.97,2.96
233.57,4.35,1.40,4.36,1.40,-1.40,-1.67,-1.57,2.95,2.95,2.95
235.90,4.35,1.41,4.35,1.41,-1.41,-1.67,-1.60,2.94,2.94,2.94
238.26,4.34,1.41,4.34,1.41,-1.41,-1.67,-1.62,2.93,2.93,2.93
240.64,4.32,1.40,4.33,1.41,-1.40,-1.67,-1.64,2.92,2.92,2.92
243.05,4.31,1.40,4.30,1.40,-1.39,-1.67,-1.66,2.92,2.91,2.91
245.48,4.28,1.39,4.28,1.38,-1.38,-1.66,-1.67,2.90,2.89,2.89
247.93,4.24,1.35,4.25,1.36,-1.37,-1.66,-1.68,2.87,2.88,2.89
250.41,4.22,1.35,4.22,1.34,-1.35,-1.65,-1.68,2.87,2.87,2.87
252.92,4.19,1.32,4.19,1.33,-1.33,-1.64,-1.69,2.86,2.86,2.87
255.45,4.17,1.32,4.17,1.31,-1.31,-1.63,-1.69,2.86,2.86,2.85
258.00,4.14,1.29,4.14,1.30,-1.29,-1.62,-1.69,2.85,2.85,2.85
260.58,4.11,1.28,4.11,1.27,-1.27,-1.60,-1.68,2.84,2.84,2.83
263.19,4.08,1.25,4.08,1.25,-1.25,-1.59,-1.67,2.83,2.83,2.83
265.82,4.04,1.21,4.05,1.23,-1.22,-1.57,-1.66,2.82,2.82,2.83
268.48,4.02,1.21,4.02,1.20,-1.20,-1.55,-1.64,2.82,2.82,2.81
271.16,4.00,1.19,3.99,1.19,-1.19,-1.54,-1.63,2.81,2.81,2.81
273.87,3.96,1.16,3.97,1.17,-1.17,-1.52,-1.61,2.79,2.80,2.80
276.61,3.94,1.16,3.94,1.15,-1.16,-1.50,-1.59,2.78,2.78,2.78
279.38,3.92,1.14,3.92,1.14,-1.16,-1.48,-1.57,2.76,2.76,2.78
282.17,3.91,1.14,3.91,1.15,-1.16,-1.46,-1.54,2.75,2.75,2.77
284.99,3.91,1.16,3.91,1.16,-1.16,-1.43,-1.51,2.75,2.75,2.75
287.84,3.91,1.17,3.91,1.17,-1.17,-1.41,-1.49,2.74,2.74,2.74
290.72,3.91,1.18,3.91,1.18,-1.17,-1.39,-1.46,2.74,2.74,2.73
293.63,3.90,1.18,3.90,1.18,-1.18,-1.37,-1.43,2.72,2.72,2.72
296.57,3.88,1.18,3.89,1.18,-1.18,-1.34,-1.40,2.70,2.71,2.70
299.53,3.87,1.18,3.87,1.18,-1.17,-1.32,-1.37,2.70,2.69,2.69
302.53,3.85,1.17,3.85,1.17,-1.17,-1.30,-1.34,2.68,2.68,2.68
305.55,3.82,1.15,3.82,1.16,-1.15,-1.28,-1.31,2.67,2.67,2.67
308.61,3.79,1.14,3.79,1.14,-1.14,-1.25,-1.27,2.65,2.65,2.65
311.69,3.76,1.12,3.76,1.12,-1.12,-1.23,-1.24,2.64,2.64,2.64
314.81,3.73,1.10,3.73,1.10,-1.10,-1.21,-1.21,2.63,2.63,2.63
317.96,3.70,1.08,3.70,1.08,-1.08,-1.19,-1.18,2.62,2.63,2.62
321.14,3.67,1.05,3.67,1.05,-1.05,-1.17,-1.15,2.62,2.61,2.62
324.35,3.64,1.04,3.64,1.03,-1.03,-1.14,-1.12,2.61,2.61,2.60
327.59,3.60,1.00,3.61,1.01,-1.01,-1.12,-1.09,2.59,2.60,2.60
330.87,3.59,1.00,3.59,0.99,-1.00,-1.10,-1.06,2.59,2.59,2.59
334.18,3.57,0.98,3.57,0.98,-0.98,-1.08,-1.03,2.59,2.58,2.59
337.52,3.55,0.96,3.55,0.97,-0.98,-1.06,-1.00,2.57,2.58,2.59
340.90,3.54,0.96,3.55,0.97,-0.98,-1.05,-0.98,2.56,2.57,2.58
344.30,3.55,0.97,3.55,0.97,-0.98,-1.03,-0.95,2.57,2.57,2.58
347.75,3.56,0.99,3.56,0.99,-0.98,-1.01,-0.92,2.58,2.58,2.57
351.23,3.57,1.00,3.57,0.99,-0.99,-0.99,-0.90,2.58,2.58,2.57
354.74,3.57,1.00,3.57,1.00,-0.99,-0.98,-0.87,2.58,2.58,2.57
358.28,3.57,1.00,3.57,1.00,-1.00,-0.97,-0.85,2.57,2.57,2.57
361.87,3.57,1.00,3.57,1.00,-1.00,-0.95,-0.83,2.57,2.57,2.57
365.49,3.57,1.00,3.57,1.00,-1.00,-0.94,-0.80,2.57,2.57,2.57
369.14,3.57,1.00,3.57,1.00,-1.00,-0.93,-0.78,2.57,2.57,2.57
372.83,3.57,0.99,3.57,1.00,-1.00,-0.92,-0.76,2.57,2.57,2.58
376.56,3.57,1.00,3.57,1.00,-1.00,-0.91,-0.74,2.57,2.57,2.57
380.33,3.57,1.01,3.57,1.00,-1.00,-0.91,-0.72,2.57,2.57,2.56
384.13,3.57,1.01,3.57,1.01,-1.00,-0.90,-0.70,2.57,2.57,2.56
387.97,3.57,1.01,3.57,1.01,-1.01,-0.90,-0.68,2.56,2.56,2.56
391.85,3.57,1.01,3.57,1.01,-1.01,-0.90,-0.67,2.56,2.56,2.56
395.77,3.57,1.01,3.57,1.01,-1.02,-0.90,-0.65,2.55,2.55,2.56
399.73,3.57,1.02,3.57,1.02,-1.03,-0.91,-0.63,2.54,2.55,2.55
403.72,3.58,1.03,3.58,1.03,-1.03,-0.91,-0.62,2.55,2.55,2.55
407.76,3.59,1.05,3.59,1.05,-1.04,-0.92,-0.60,2.55,2.54,2.54
411.84,3.59,1.05,3.59,1.05,-1.05,-0.93,-0.59,2.54,2.54,2.54
415.96,3.58,1.05,3.58,1.06,-1.05,-0.94,-0.57,2.53,2.53,2.53
420.12,3.57,1.05,3.57,1.05,-1.05,-0.96,-0.56,2.52,2.52,2.52
424.32,3.55,1.05,3.55,1.05,-1.05,-0.97,-0.54,2.50,2.50,2.50
428.56,3.53,1.04,3.53,1.04,-1.04,-0.99,-0.53,2.49,2.49,2.49
432.85,3.50,1.03,3.50,1.03,-1.03,-1.00,-0.52,2.47,2.47,2.47
437.18,3.47,1.02,3.47,1.02,-1.02,-1.02,-0.50,2.45,2.45,2.45
441.55,3.44,1.01,3.44,1.00,-1.01,-1.03,-0.49,2.43,2.43,2.43
445.96,3.41,0.99,3.41,0.99,-0.99,-1.04,-0.48,2.42,2.42,2.42
450.42,3.38,0.98,3.38,0.98,-0.97,-1.04,-0.47,2.41,2.41,2.40
454.93,3.35,0.97,3.35,0.96,-0.96,-1.03,-0.45,2.39,2.39,2.38
459.48,3.31,0.94,3.31,0.94,-0.94,-1.02,-0.44,2.37,2.37,2.37
464.07,3.28,0.93,3.27,0.92,-0.92,-1.00,-0.43,2.36,2.35,2.35
468.71,3.23,0.89,3.23,0.89,-0.90,-0.97,-0.42,2.33,2.33,2.34
473.40,3.19,0.87,3.20,0.87,-0.89,-0.94,-0.40,2.30,2.31,2.32
478.13,3.17,0.86,3.17,0.86,-0.87,-0.90,-0.39,2.30,2.30,2.31
482.91,3.15,0.85,3.15,0.85,-0.84,-0.85,-0.38,2.31,2.30,2.30
487.74,3.12,0.83,3.12,0.83,-0.82,-0.80,-0.37,2.30,2.30,2.29
492.62,3.08,0.80,3.08,0.80,-0.79,-0.74,-0.35,2.29,2.29,2.28
497.55,3.03,0.76,3.03,0.76,-0.76,-0.69,-0.34,2.27,2.27,2.27
502.52,2.99,0.73,2.99,0.73,-0.72,-0.64,-0.32,2.27,2.26,2.26
507.55,2.94,0.68,2.94,0.68,-0.68,-0.58,-0.31,2.26,2.26,2.26
512.62,2.89,0.64,2.89,0.64,-0.64,-0.53,-0.30,2.25,2.25,2.25
517.75,2.83,0.58,2.83,0.58,-0.59,-0.48,-0.28,2.24,2.24,2.25
522.93,2.77,0.53,2.77,0.53,-0.53,-0.43,-0.27,2.24,2.24,2.24
528.16,2.71,0.47,2.71,0.47,-0.48,-0.38,-0.25,2.23,2.23,2.24
533.44,2.66,0.42,2.66,0.42,-0.43,-0.33,-0.24,2.23,2.23,2.24
538.77,2.61,0.37,2.61,0.37,-0.37,-0.29,-0.22,2.24,2.24,2.24
544.16,2.56,0.32,2.56,0.32,-0.32,-0.24,-0.20,2.24,2.24,2.24
549.60,2.50,0.26,2.50,0.26,-0.26,-0.20,-0.19,2.24,2.24,2.24
555.10,2.43,0.19,2.44,0.20,-0.20,-0.15,-0.17,2.23,2.24,2.24
560.65,2.37,0.13,2.37,0.14,-0.14,-0.11,-0.15,2.23,2.24,2.24
566.25,2.32,0.08,2.31,0.07,-0.07,-0.07,-0.14,2.25,2.24,2.24
