frequency,raw,error,smoothed,error_smoothed,equalization,parametric_eq,fixed_band_eq,equalized_raw,equalized_smoothed,target
20.00,9.32,0.75,9.32,0.76,-0.76,-1.12,-1.09,8.56,8.56,8.57
20.20,9.36,0.81,9.36,0.81,-0.81,-1.16,-1.12,8.55,8.55,8.55
20.40,9.41,0.87,9.40,0.87,-0.87,-1.20,-1.15,8.54,8.54,8.53
20.61,9.45,0.91,9.45,0.92,-0.92,-1.23,-1.18,8.53,8.53,8.53
20.81,9.49,0.98,9.49,0.98,-0.97,-1.27,-1.22,8.52,8.52,8.51
21.02,9.53,1.03,9.53,1.03,-1.02,-1.30,-1.25,8.51,8.51,8.50
21.23,9.58,1.09,9.57,1.08,-1.07,-1.34,-1.28,8.50,8.50,8.49
21.44,9.62,1.12,9.62,1.12,-1.13,-1.38,-1.32,8.49,8.49,8.50
21.66,9.66,1.17,9.66,1.17,-1.18,-1.41,-1.35,8.48,8.49,8.49
21.87,9.71,1.23,9.70,1.22,-1.22,-1.45,-1.39,8.48,8.48,8.48
22.09,9.75,1.28,9.75,1.28,-1.27,-1.49,-1.43,8.47,8.47,8.47
22.31,9.79,1.32,9.79,1.32,-1.32,-1.53,-1.47,8.47,8.47,8.47
22.54,9.84,1.38,9.84,1.37,-1.37,-1.56,-1.51,8.47,8.46,8.46
22.76,9.88,1.41,9.88,1.42,-1.42,-1.60,-1.55,8.46,8.46,8.47
22.99,9.93,1.47,9.93,1.47,-1.47,-1.64,-1.59,8.46,8.46,8.46
23.22,9.97,1.52,9.97,1.52,-1.51,-1.68,-1.64,8.45,8.45,8.45
23.45,10.01,1.56,10.01,1.56,-1.56,-1.72,-1.68,8.45,8.45,8.45
23.69,10.05,1.60,10.05,1.61,-1.60,-1.76,-1.73,8.44,8.45,8.45
23.92,10.10,1.65,10.09,1.65,-1.65,-1.80,-1.77,8.45,8.45,8.44
24.16,10.14,1.69,10.14,1.69,-1.69,-1.84,-1.82,8.45,8.45,8.44
24.40,10.18,1.73,10.18,1.73,-1.74,-1.88,-1.87,8.44,8.44,8.45
24.65,10.23,1.78,10.22,1.78,-1.78,-1.92,-1.92,8.44,8.44,8.45
24.89,10.27,1.83,10.27,1.83,-1.83,-1.96,-1.97,8.44,8.44,8.44
25.14,10.31,1.88,10.31,1.88,-1.88,-2.00,-2.02,8.43,8.44,8.43
25.39,10.36,1.93,10.35,1.93,-1.92,-2.04,-2.07,8.44,8.43,8.43
25.65,10.40,1.98,10.40,1.98,-1.97,-2.08,-2.12,8.43,8.43,8.42
25.91,10.44,2.02,10.44,2.02,-2.02,-2.12,-2.17,8.42,8.42,8.42
26.16,10.49,2.06,10.49,2.07,-2.07,-2.16,-2.22,8.42,8.42,8.43
26.43,10.53,2.11,10.53,2.11,-2.12,-2.20,-2.27,8.41,8.41,8.41
26.69,10.58,2.16,10.57,2.16,-2.16,-2.24,-2.33,8.41,8.41,8.41
26.96,10.62,2.21,10.62,2.21,-2.21,-2.28,-2.38,8.41,8.41,8.41
27.23,10.66,2.26,10.66,2.26,-2.25,-2.33,-2.43,8.40,8.41,8.40
27.50,10.71,2.31,10.70,2.30,-2.30,-2.37,-2.48,8.41,8.41,8.40
27.77,10.75,2.34,10.75,2.34,-2.34,-2.41,-2.53,8.41,8.41,8.41
28.05,10.79,2.38,10.79,2.38,-2.38,-2.45,-2.58,8.40,8.40,8.41
28.33,10.83,2.42,10.83,2.42,-2.43,-2.49,-2.63,8.40,8.40,8.41
28.62,10.87,2.46,10.87,2.46,-2.47,-2.54,-2.68,8.40,8.41,8.40
28.90,10.92,2.51,10.92,2.51,-2.51,-2.58,-2.72,8.41,8.41,8.41
29.19,10.96,2.55,10.96,2.55,-2.55,-2.62,-2.77,8.41,8.41,8.41
29.48,11.00,2.59,11.00,2.59,-2.59,-2.66,-2.81,8.41,8.41,8.41
29.78,11.04,2.63,11.04,2.62,-2.63,-2.71,-2.85,8.41,8.41,8.41
30.08,11.08,2.65,11.08,2.66,-2.67,-2.75,-2.89,8.41,8.41,8.42
30.38,11.12,2.70,11.12,2.71,-2.71,-2.79,-2.93,8.41,8.41,8.41
30.68,11.17,2.76,11.16,2.75,-2.75,-2.84,-2.96,8.42,8.41,8.41
30.99,11.21,2.80,11.21,2.80,-2.79,-2.88,-3.00,8.42,8.41,8.41
31.30,11.24,2.83,11.24,2.84,-2.83,-2.92,-3.03,8.41,8.41,8.41
31.61,11.28,2.87,11.28,2.87,-2.88,-2.96,-3.06,8.40,8.40,8.40
31.93,11.31,2.92,11.31,2.92,-2.92,-3.01,-3.08,8.39,8.39,8.39
32.24,11.35,2.96,11.35,2.96,-2.96,-3.05,-3.11,8.39,8.39,8.39
32.57,11.39,3.01,11.39,3.01,-3.01,-3.09,-3.13,8.38,8.38,8.38
32.89,11.43,3.05,11.43,3.05,-3.05,-3.14,-3.16,8.38,8.37,8.37
33.22,11.47,3.10,11.47,3.10,-3.10,-3.18,-3.18,8.37,8.37,8.37
33.55,11.51,3.14,11.51,3.15,-3.15,-3.22,-3.20,8.36,8.37,8.37
33.89,11.56,3.20,11.55,3.20,-3.20,-3.27,-3.22,8.36,8.36,8.36
34.23,11.60,3.25,11.59,3.25,-3.24,-3.31,-3.23,8.35,8.35,8.34
34.57,11.63,3.29,11.63,3.29,-3.29,-3.35,-3.25,8.34,8.34,8.34
34.92,11.67,3.34,11.67,3.34,-3.34,-3.40,-3.27,8.33,8.33,8.33
35.27,11.71,3.37,11.71,3.39,-3.39,-3.44,-3.28,8.32,8.32,8.33
35.62,11.75,3.45,11.75,3.44,-3.44,-3.49,-3.30,8.31,8.31,8.30
35.97,11.79,3.49,11.78,3.49,-3.49,-3.53,-3.32,8.30,8.30,8.30
36.33,11.82,3.54,11.82,3.54,-3.53,-3.57,-3.33,8.29,8.29,8.28
36.70,11.85,3.58,11.85,3.58,-3.58,-3.61,-3.35,8.27,8.27,8.27
37.06,11.89,3.63,11.88,3.63,-3.63,-3.66,-3.37,8.26,8.26,8.25
37.43,11.92,3.68,11.91,3.67,-3.67,-3.70,-3.39,8.24,8.24,8.24
37.81,11.94,3.71,11.94,3.72,-3.72,-3.74,-3.41,8.22,8.22,8.23
38.19,11.97,3.77,11.97,3.76,-3.77,-3.79,-3.43,8.20,8.20,8.20
38.57,12.00,3.81,12.00,3.81,-3.82,-3.83,-3.45,8.18,8.18,8.19
38.95,12.03,3.87,12.03,3.87,-3.87,-3.87,-3.48,8.16,8.16,8.16
39.34,12.06,3.92,12.06,3.92,-3.92,-3.92,-3.51,8.14,8.14,8.14
39.74,12.09,3.97,12.09,3.97,-3.97,-3.96,-3.54,8.12,8.12,8.12
40.14,12.12,4.02,12.12,4.02,-4.02,-4.00,-3.57,8.10,8.10,8.10
40.54,12.15,4.07,12.15,4.07,-4.07,-4.04,-3.60,8.08,8.08,8.08
40.94,12.18,4.12,12.18,4.12,-4.11,-4.09,-3.64,8.06,8.06,8.06
41.35,12.20,4.16,12.20,4.16,-4.16,-4.13,-3.68,8.04,8.04,8.04
41.76,12.23,4.21,12.23,4.20,-4.21,-4.17,-3.72,8.02,8.02,8.02
42.18,12.25,4.24,12.25,4.25,-4.25,-4.21,-3.77,7.99,8.00,8.01
42.60,12.28,4.30,12.28,4.30,-4.30,-4.26,-3.81,7.98,7.98,7.98
43.03,12.31,4.36,12.30,4.35,-4.34,-4.30,-3.86,7.96,7.96,7.95
43.46,12.33,4.39,12.33,4.40,-4.39,-4.34,-3.92,7.94,7.94,7.94
43.90,12.35,4.44,12.35,4.44,-4.44,-4.38,-3.97,7.91,7.91,7.91
44.33,12.37,4.48,12.37,4.48,-4.49,-4.42,-4.03,7.88,7.89,7.89
44.78,12.40,4.54,12.40,4.53,-4.53,-4.46,-4.09,7.86,7.86,7.86
45.23,12.42,4.57,12.42,4.58,-4.58,-4.50,-4.16,7.84,7.83,7.84
45.68,12.44,4.63,12.44,4.64,-4.63,-4.55,-4.23,7.81,7.81,7.81
46.13,12.46,4.69,12.46,4.69,-4.68,-4.59,-4.30,7.78,7.77,7.77
46.60,12.48,4.74,12.48,4.74,-4.74,-4.63,-4.37,7.74,7.74,7.74
47.06,12.49,4.78,12.49,4.79,-4.79,-4.67,-4.45,7.70,7.70,7.71
47.53,12.51,4.83,12.51,4.84,-4.85,-4.71,-4.53,7.66,7.66,7.68
48.01,12.53,4.90,12.53,4.89,-4.90,-4.75,-4.61,7.63,7.63,7.63
48.49,12.55,4.95,12.55,4.95,-4.95,-4.79,-4.70,7.60,7.60,7.60
48.97,12.57,5.01,12.57,5.01,-5.00,-4.83,-4.79,7.57,7.57,7.56
49.46,12.58,5.05,12.58,5.06,-5.05,-4.87,-4.87,7.53,7.53,7.52
49.96,12.59,5.12,12.59,5.10,-5.10,-4.91,-4.97,7.49,7.49,7.47
50.46,12.59,5.14,12.59,5.14,-5.15,-4.94,-5.06,7.44,7.45,7.45
50.96,12.60,5.18,12.60,5.18,-5.19,-4.98,-5.15,7.41,7.41,7.42
51.47,12.61,5.22,12.61,5.23,-5.23,-5.02,-5.25,7.38,7.38,7.38
51.99,12.63,5.28,12.63,5.27,-5.28,-5.06,-5.35,7.35,7.35,7.35
52.51,12.64,5.32,12.64,5.32,-5.32,-5.10,-5.44,7.32,7.32,7.32
53.03,12.65,5.36,12.65,5.36,-5.36,-5.14,-5.54,7.28,7.28,7.29
53.56,12.66,5.41,12.66,5.40,-5.41,-5.18,-5.64,7.25,7.25,7.25
54.10,12.66,5.45,12.66,5.45,-5.45,-5.21,-5.74,7.21,7.21,7.21
54.64,12.67,5.49,12.67,5.50,-5.49,-5.25,-5.83,7.18,7.17,7.18
55.18,12.67,5.54,12.67,5.54,-5.53,-5.29,-5.92,7.14,7.14,7.13
55.74,12.67,5.58,12.67,5.57,-5.56,-5.32,-6.01,7.11,7.11,7.09
56.29,12.67,5.59,12.67,5.60,-5.59,-5.36,-6.10,7.08,7.08,7.08
56.86,12.66,5.61,12.66,5.62,-5.61,-5.40,-6.19,7.05,7.05,7.05
57.42,12.65,5.64,12.65,5.64,-5.64,-5.43,-6.27,7.01,7.01,7.01
58.00,12.64,5.66,12.64,5.66,-5.66,-5.47,-6.34,6.98,6.98,6.98
58.58,12.64,5.67,12.64,5.68,-5.68,-5.51,-6.41,6.96,6.96,6.97
59.16,12.64,5.70,12.64,5.70,-5.71,-5.54,-6.48,6.93,6.93,6.94
59.76,12.64,5.73,12.64,5.73,-5.74,-5.58,-6.53,6.90,6.90,6.91
60.35,12.64,5.77,12.64,5.77,-5.78,-5.61,-6.59,6.86,6.86,6.87
60.96,12.64,5.81,12.64,5.82,-5.82,-5.65,-6.63,6.82,6.82,6.82
61.57,12.64,5.87,12.64,5.86,-5.86,-5.68,-6.67,6.78,6.78,6.77
62.18,12.64,5.91,12.64,5.91,-5.91,-5.71,-6.70,6.73,6.73,6.73
62.80,12.64,5.96,12.64,5.96,-5.95,-5.75,-6.72,6.69,6.69,6.68
63.43,12.64,6.00,12.64,6.00,-5.99,-5.78,-6.74,6.65,6.65,6.64
64.07,12.64,6.04,12.64,6.04,-6.03,-5.82,-6.75,6.60,6.60,6.60
64.71,12.64,6.07,12.64,6.08,-6.07,-5.85,-6.75,6.56,6.56,6.56
65.35,12.64,6.11,12.64,6.11,-6.11,-5.88,-6.75,6.53,6.53,6.53
66.01,12.64,6.15,12.64,6.15,-6.15,-5.92,-6.74,6.49,6.49,6.49
66.67,12.64,6.18,12.64,6.19,-6.19,-5.95,-6.72,6.45,6.45,6.46
67.33,12.64,6.23,12.64,6.23,-6.23,-5.98,-6.70,6.41,6.41,6.41
68.01,12.64,6.27,12.64,6.27,-6.27,-6.01,-6.67,6.37,6.37,6.37
68.69,12.64,6.31,12.64,6.31,-6.31,-6.04,-6.64,6.33,6.33,6.33
69.37,12.64,6.34,12.64,6.35,-6.35,-6.08,-6.60,6.29,6.29,6.30
70.07,12.65,6.38,12.65,6.39,-6.40,-6.11,-6.56,6.25,6.25,6.26
70.77,12.66,6.44,12.66,6.44,-6.44,-6.14,-6.52,6.22,6.21,6.22
71.48,12.66,6.48,12.66,6.49,-6.49,-6.17,-6.48,6.17,6.18,6.18
72.19,12.67,6.54,12.67,6.53,-6.53,-6.20,-6.44,6.14,6.14,6.13
72.91,12.67,6.57,12.67,6.58,-6.57,-6.23,-6.39,6.10,6.10,6.09
73.64,12.66,6.61,12.66,6.61,-6.60,-6.26,-6.35,6.06,6.06,6.05
74.38,12.65,6.64,12.65,6.64,-6.63,-6.29,-6.30,6.02,6.02,6.01
75.12,12.64,6.66,12.64,6.66,-6.66,-6.32,-6.26,5.98,5.98,5.98
75.87,12.62,6.67,12.62,6.67,-6.67,-6.35,-6.22,5.95,5.95,5.95
76.63,12.61,6.69,12.61,6.69,-6.68,-6.38,-6.18,5.92,5.92,5.92
77.40,12.59,6.70,12.58,6.69,-6.69,-6.40,-6.14,5.90,5.89,5.89
78.17,12.56,6.70,12.56,6.70,-6.70,-6.43,-6.10,5.86,5.86,5.86
78.95,12.53,6.69,12.53,6.70,-6.70,-6.46,-6.07,5.83,5.83,5.84
79.74,12.51,6.70,12.51,6.70,-6.70,-6.49,-6.04,5.81,5.81,5.81
80.54,12.48,6.70,12.48,6.70,-6.70,-6.51,-6.01,5.78,5.78,5.78
81.35,12.46,6.70,12.46,6.70,-6.70,-6.54,-5.99,5.76,5.75,5.75
82.16,12.43,6.70,12.43,6.70,-6.70,-6.57,-5.97,5.73,5.73,5.73
82.98,12.40,6.71,12.40,6.71,-6.71,-6.59,-5.96,5.69,5.69,5.69
83.81,12.38,6.72,12.37,6.72,-6.71,-6.62,-5.94,5.66,5.66,5.65
84.65,12.35,6.72,12.35,6.73,-6.73,-6.65,-5.94,5.62,5.62,5.63
85.50,12.33,6.74,12.33,6.74,-6.75,-6.67,-5.93,5.58,5.59,5.59
86.35,12.32,6.76,12.32,6.76,-6.77,-6.70,-5.93,5.55,5.55,5.56
87.22,12.31,6.78,12.31,6.78,-6.80,-6.72,-5.94,5.51,5.51,5.53
88.09,12.31,6.82,12.31,6.82,-6.83,-6.74,-5.95,5.48,5.48,5.49
88.97,12.32,6.86,12.32,6.86,-6.86,-6.77,-5.97,5.46,5.46,5.46
89.86,12.32,6.90,12.32,6.90,-6.89,-6.79,-5.98,5.43,5.43,5.42
90.76,12.32,6.93,12.32,6.93,-6.92,-6.81,-6.01,5.40,5.40,5.38
91.66,12.31,6.96,12.31,6.96,-6.95,-6.84,-6.04,5.36,5.36,5.35
92.58,12.30,6.98,12.29,6.97,-6.97,-6.86,-6.07,5.33,5.32,5.32
93.51,12.27,6.98,12.27,6.99,-6.99,-6.88,-6.11,5.28,5.28,5.28
94.44,12.25,7.00,12.25,7.00,-7.01,-6.90,-6.15,5.24,5.24,5.25
95.39,12.22,7.01,12.22,7.01,-7.02,-6.92,-6.19,5.20,5.20,5.21
96.34,12.19,7.03,12.19,7.03,-7.03,-6.94,-6.24,5.16,5.16,5.16
97.30,12.17,7.04,12.17,7.04,-7.04,-6.96,-6.29,5.13,5.13,5.13
98.28,12.14,7.05,12.14,7.05,-7.04,-6.98,-6.35,5.10,5.10,5.09
99.26,12.10,7.05,12.10,7.05,-7.04,-7.00,-6.41,5.06,5.06,5.05
100.25,12.06,7.05,12.06,7.04,-7.04,-7.02,-6.47,5.02,5.02,5.01
101.25,12.02,7.02,12.02,7.03,-7.03,-7.04,-6.54,4.98,4.98,4.99
102.27,11.97,7.01,11.98,7.02,-7.03,-7.05,-6.61,4.94,4.95,4.96
103.29,11.95,7.03,11.94,7.01,-7.03,-7.07,-6.68,4.92,4.92,4.92
104.32,11.92,7.01,11.91,7.01,-7.02,-7.09,-6.75,4.89,4.89,4.91
105.37,11.88,7.01,11.89,7.02,-7.02,-7.10,-6.82,4.86,4.87,4.87
106.42,11.86,7.02,11.86,7.02,-7.02,-7.12,-6.89,4.84,4.84,4.84
107.48,11.84,7.03,11.83,7.02,-7.01,-7.13,-6.97,4.83,4.82,4.81
108.56,11.80,7.02,11.80,7.02,-7.00,-7.14,-7.04,4.80,4.80,4.78
109.64,11.76,7.01,11.75,7.01,-6.99,-7.16,-7.12,4.76,4.76,4.74
110.74,11.70,6.98,11.70,6.99,-6.99,-7.17,-7.19,4.71,4.72,4.72
111.85,11.65,6.97,11.65,6.97,-6.98,-7.18,-7.26,4.67,4.67,4.68
112.97,11.60,6.95,11.60,6.95,-6.97,-7.19,-7.32,4.63,4.63,4.65
114.10,11.56,6.94,11.56,6.95,-6.96,-7.20,-7.38,4.60,4.60,4.62
115.24,11.53,6.95,11.53,6.95,-6.96,-7.21,-7.44,4.57,4.57,4.58
116.39,11.50,6.97,11.50,6.96,-6.95,-7.22,-7.50,4.55,4.55,4.53
117.55,11.47,6.96,11.46,6.96,-6.95,-7.23,-7.54,4.52,4.52,4.51
118.73,11.43,6.96,11.42,6.95,-6.94,-7.24,-7.59,4.49,4.48,4.46
119.92,11.37,6.93,11.38,6.93,-6.93,-7.24,-7.62,4.43,4.44,4.44
121.12,11.33,6.91,11.34,6.92,-6.92,-7.25,-7.65,4.40,4.41,4.42
122.33,11.30,6.91,11.30,6.91,-6.91,-7.26,-7.67,4.39,4.39,4.39
123.55,11.27,6.91,11.26,6.90,-6.90,-7.26,-7.68,4.37,4.36,4.35
124.79,11.21,6.88,11.21,6.88,-6.88,-7.26,-7.69,4.32,4.32,4.33
126.03,11.15,6.86,11.16,6.87,-6.87,-7.27,-7.69,4.28,4.29,4.29
127.29,11.12,6.86,11.12,6.85,-6.86,-7.27,-7.67,4.26,4.26,4.26
128.57,11.09,6.86,11.08,6.85,-6.85,-7.27,-7.66,4.24,4.23,4.23
129.85,11.03,6.83,11.03,6.84,-6.83,-7.27,-7.63,4.20,4.20,4.19
131.15,10.98,6.82,10.98,6.83,-6.82,-7.27,-7.60,4.16,4.17,4.16
132.46,10.94,6.82,10.93,6.81,-6.81,-7.27,-7.56,4.13,4.12,4.12
133.79,10.88,6.80,10.88,6.79,-6.79,-7.27,-7.51,4.08,4.08,4.08
135.12,10.82,6.77,10.82,6.77,-6.78,-7.27,-7.46,4.04,4.04,4.05
136.48,10.78,6.75,10.78,6.75,-6.77,-7.26,-7.40,4.01,4.01,4.03
137.84,10.73,6.73,10.74,6.75,-6.75,-7.26,-7.34,3.98,3.99,4.00
139.22,10.71,6.75,10.70,6.74,-6.73,-7.25,-7.28,3.98,3.97,3.95
140.61,10.66,6.73,10.65,6.73,-6.71,-7.25,-7.21,3.95,3.95,3.93
142.02,10.59,6.69,10.60,6.70,-6.69,-7.24,-7.14,3.90,3.91,3.90
143.44,10.54,6.67,10.53,6.66,-6.66,-7.23,-7.06,3.87,3.87,3.87
144.87,10.47,6.61,10.48,6.62,-6.64,-7.22,-6.99,3.83,3.84,3.86
146.32,10.43,6.60,10.43,6.60,-6.61,-7.21,-6.92,3.82,3.82,3.83
147.78,10.39,6.58,10.39,6.58,-6.58,-7.20,-6.84,3.81,3.80,3.81
149.26,10.35,6.57,10.34,6.56,-6.55,-7.19,-6.77,3.80,3.79,3.78
150.75,10.28,6.52,10.28,6.53,-6.51,-7.18,-6.70,3.77,3.77,3.75
152.26,10.23,6.49,10.23,6.49,-6.48,-7.17,-6.63,3.75,3.74,3.74
153.78,10.16,6.45,10.16,6.45,-6.45,-7.15,-6.56,3.71,3.71,3.71
155.32,10.11,6.42,10.10,6.42,-6.42,-7.14,-6.49,3.69,3.68,3.69
156.88,10.04,6.38,10.04,6.38,-6.40,-7.12,-6.43,3.64,3.65,3.66
158.44,10.00,6.37,10.00,6.36,-6.37,-7.10,-6.37,3.62,3.62,3.63
160.03,9.95,6.34,9.95,6.35,-6.36,-7.09,-6.31,3.59,3.60,3.61
161.63,9.92,6.34,9.92,6.34,-6.34,-7.07,-6.26,3.58,3.57,3.58
163.24,9.89,6.35,9.88,6.34,-6.33,-7.05,-6.21,3.55,3.54,3.54
164.88,9.83,6.32,9.84,6.33,-6.33,-7.03,-6.16,3.50,3.51,3.51
166.53,9.80,6.32,9.80,6.33,-6.32,-7.01,-6.12,3.48,3.48,3.48
168.19,9.77,6.32,9.76,6.32,-6.31,-6.99,-6.08,3.46,3.45,3.45
169.87,9.73,6.32,9.73,6.31,-6.30,-6.97,-6.05,3.43,3.42,3.41
171.57,9.68,6.29,9.68,6.30,-6.29,-6.94,-6.02,3.39,3.39,3.38
173.29,9.64,6.29,9.63,6.28,-6.28,-6.92,-5.99,3.36,3.35,3.35
175.02,9.58,6.27,9.58,6.27,-6.27,-6.89,-5.97,3.31,3.31,3.31
176.77,9.54,6.26,9.54,6.26,-6.27,-6.87,-5.96,3.27,3.28,3.28
178.54,9.51,6.25,9.51,6.26,-6.26,-6.84,-5.95,3.25,3.25,3.25
180.32,9.49,6.28,9.48,6.27,-6.27,-6.81,-5.94,3.22,3.22,3.21
182.13,9.46,6.28,9.46,6.28,-6.28,-6.78,-5.94,3.18,3.18,3.18
183.95,9.43,6.28,9.44,6.29,-6.30,-6.75,-5.94,3.13,3.14,3.15
185.79,9.43,6.32,9.43,6.32,-6.33,-6.72,-5.95,3.10,3.10,3.10
187.65,9.43,6.35,9.43,6.36,-6.37,-6.69,-5.96,3.06,3.06,3.07
189.52,9.45,6.41,9.45,6.41,-6.42,-6.66,-5.97,3.03,3.02,3.03
191.42,9.47,6.46,9.47,6.47,-6.48,-6.63,-5.99,2.99,2.99,3.00
193.33,9.51,6.53,9.51,6.54,-6.54,-6.60,-6.01,2.97,2.97,2.98
195.27,9.55,6.61,9.55,6.61,-6.60,-6.56,-6.04,2.95,2.94,2.94
197.22,9.59,6.69,9.58,6.68,-6.66,-6.53,-6.07,2.93,2.92,2.90
199.19,9.61,6.73,9.61,6.73,-6.72,-6.49,-6.10,2.89,2.89,2.88
201.18,9.63,6.78,9.63,6.78,-6.76,-6.45,-6.14,2.86,2.86,2.85
203.19,9.63,6.80,9.63,6.80,-6.80,-6.42,-6.17,2.83,2.83,2.83
205.23,9.63,6.82,9.63,6.82,-6.83,-6.38,-6.21,2.80,2.80,2.80
207.28,9.62,6.83,9.62,6.84,-6.84,-6.34,-6.25,2.78,2.78,2.79
209.35,9.61,6.85,9.61,6.85,-6.85,-6.30,-6.30,2.76,2.76,2.75
211.44,9.60,6.87,9.59,6.86,-6.84,-6.26,-6.34,2.76,2.75,2.73
213.56,9.56,6.84,9.55,6.84,-6.83,-6.22,-6.39,2.73,2.72,2.72
215.69,9.51,6.82,9.51,6.82,-6.82,-6.18,-6.43,2.69,2.69,2.69
217.85,9.45,6.78,9.46,6.79,-6.80,-6.13,-6.47,2.65,2.66,2.67
220.03,9.42,6.77,9.41,6.77,-6.78,-6.09,-6.51,2.64,2.64,2.65
222.23,9.38,6.75,9.37,6.75,-6.75,-6.05,-6.55,2.62,2.62,2.63
224.45,9.33,6.72,9.33,6.72,-6.73,-6.00,-6.59,2.60,2.60,2.60
226.70,9.29,6.69,9.29,6.69,-6.70,-5.95,-6.62,2.59,2.59,2.59
228.96,9.24,6.66,9.25,6.67,-6.67,-5.91,-6.65,2.57,2.58,2.58
231.25,9.22,6.66,9.21,6.64,-6.64,-5.86,-6.67,2.58,2.57,2.56
233.57,9.17,6.62,9.16,6.61,-6.60,-5.81,-6.70,2.57,2.56,2.55
235.90,9.09,6.56,9.10,6.57,-6.55,-5.76,-6.71,2.53,2.55,2.53
238.26,9.04,6.52,9.04,6.51,-6.50,-5.72,-6.71,2.54,2.54,2.52
240.64,8.97,6.43,8.97,6.45,-6.44,-5.67,-6.71,2.53,2.53,2.53
243.05,8.91,6.38,8.90,6.38,-6.38,-5.61,-6.70,2.53,2.52,2.53
245.48,8.82,6.31,8.82,6.30,-6.31,-5.56,-6.69,2.51,2.51,2.51
247.93,8.72,6.22,8.74,6.23,-6.23,-5.51,-6.66,2.49,2.50,2.50
250.41,8.67,6.16,8.65,6.15,-6.16,-5.46,-6.63,2.51,2.50,2.51
252.92,8.58,6.06,8.58,6.07,-6.08,-5.40,-6.59,2.50,2.50,2.51
255.45,8.51,6.00,8.51,6.00,-6.00,-5.35,-6.53,2.50,2.51,2.51
258.00,8.45,5.94,8.44,5.93,-5.93,-5.30,-6.48,2.52,2.51,2.51
260.58,8.36,5.86,8.36,5.86,-5.85,-5.24,-6.41,2.51,2.51,2.50
263.19,8.28,5.77,8.28,5.77,-5.77,-5.18,-6.34,2.51,2.50,2.51
265.82,8.19,5.69,8.19,5.69,-5.69,-5.13,-6.25,2.49,2.50,2.50
268.48,8.11,5.61,8.11,5.61,-5.62,-5.07,-6.16,2.49,2.49,2.50
271.16,8.05,5.55,8.04,5.54,-5.54,-5.01,-6.07,2.50,2.49,2.50
273.87,7.96,5.46,7.96,5.47,-5.47,-4.95,-5.97,2.49,2.49,2.50
276.61,7.89,5.39,7.89,5.40,-5.39,-4.89,-5.86,2.49,2.50,2.50
279.38,7.82,5.34,7.82,5.33,-5.32,-4.83,-5.75,2.50,2.50,2.48
282.17,7.75,5.25,7.75,5.25,-5.25,-4.77,-5.64,2.50,2.50,2.50
284.99,7.68,5.18,7.67,5.18,-5.18,-4.71,-5.52,2.50,2.50,2.50
287.84,7.59,5.08,7.60,5.10,-5.10,-4.65,-5.40,2.49,2.50,2.51
290.72,7.53,5.04,7.52,5.02,-5.02,-4.59,-5.27,2.51,2.50,2.49
293.63,7.45,4.95,7.45,4.94,-4.94,-4.53,-5.15,2.50,2.50,2.50
296.57,7.37,4.86,7.37,4.87,-4.86,-4.46,-5.02,2.51,2.51,2.51
299.53,7.29,4.78,7.29,4.78,-4.78,-4.40,-4.89,2.51,2.51,2.51
302.53,7.22,4.70,7.22,4.70,-4.70,-4.34,-4.77,2.52,2.51,2.52
305.55,7.14,4.62,7.14,4.62,-4.62,-4.27,-4.64,2.52,2.52,2.52
308.61,7.06,4.53,7.06,4.53,-4.53,-4.21,-4.51,2.53,2.53,2.53
311.69,6.98,4.44,6.98,4.45,-4.45,-4.14,-4.39,2.53,2.54,2.53
314.81,6.91,4.37,6.90,4.36,-4.36,-4.07,-4.26,2.55,2.54,2.54
317.96,6.83,4.28,6.83,4.28,-4.27,-4.01,-4.14,2.55,2.55,2.55
321.14,6.74,4.18,6.74,4.19,-4.19,-3.94,-4.02,2.55,2.55,2.55
324.35,6.66,4.11,6.66,4.09,-4.10,-3.87,-3.90,2.56,2.56,2.55
327.59,6.57,3.99,6.58,4.01,-4.01,-3.80,-3.78,2.56,2.56,2.58
330.87,6.50,3.92,6.50,3.92,-3.92,-3.73,-3.66,2.57,2.57,2.58
334.18,6.43,3.86,6.42,3.84,-3.84,-3.66,-3.54,2.59,2.58,2.57
337.52,6.34,3.75,6.34,3.75,-3.75,-3.59,-3.43,2.59,2.59,2.59
340.90,6.26,3.66,6.26,3.66,-3.67,-3.52,-3.32,2.59,2.59,2.60
344.30,6.18,3.57,6.18,3.58,-3.58,-3.45,-3.21,2.60,2.60,2.61
347.75,6.12,3.51,6.11,3.50,-3.50,-3.38,-3.11,2.62,2.62,2.61
351.23,6.04,3.42,6.04,3.41,-3.41,-3.31,-3.00,2.63,2.63,2.62
354.74,5.96,3.32,5.96,3.33,-3.32,-3.24,-2.90,2.64,2.64,2.64
358.28,5.87,3.23,5.87,3.23,-3.23,-3.16,-2.80,2.64,2.64,2.64
361.87,5.79,3.15,5.79,3.14,-3.15,-3.09,-2.70,2.64,2.64,2.63
365.49,5.70,3.05,5.71,3.06,-3.06,-3.02,-2.61,2.64,2.65,2.65
369.14,5.63,2.97,5.62,2.97,-2.97,-2.94,-2.51,2.66,2.65,2.66
372.83,5.55,2.88,5.54,2.88,-2.88,-2.87,-2.42,2.67,2.66,2.67
376.56,5.46,2.79,5.47,2.80,-2.80,-2.79,-2.33,2.66,2.67,2.67
380.33,5.39,2.71,5.39,2.71,-2.71,-2.72,-2.25,2.68,2.68,2.68
384.13,5.32,2.63,5.31,2.63,-2.63,-2.64,-2.16,2.69,2.69,2.68
387.97,5.24,2.55,5.24,2.54,-2.54,-2.57,-2.08,2.69,2.69,2.69
391.85,5.16,2.45,5.16,2.46,-2.46,-2.49,-2.00,2.70,2.70,2.71
395.77,5.09,2.38,5.09,2.38,-2.38,-2.42,-1.92,2.71,2.71,2.71
399.73,5.02,2.30,5.02,2.29,-2.29,-2.34,-1.84,2.73,2.72,2.72
403.72,4.95,2.21,4.94,2.21,-2.21,-2.26,-1.76,2.74,2.73,2.74
407.76,4.86,2.11,4.87,2.12,-2.12,-2.18,-1.69,2.74,2.74,2.75
411.84,4.79,2.03,4.79,2.04,-2.04,-2.11,-1.61,2.75,2.75,2.75
415.96,4.72,1.96,4.71,1.95,-1.95,-2.03,-1.54,2.76,2.76,2.76
420.12,4.64,1.88,4.64,1.87,-1.87,-1.95,-1.47,2.77,2.77,2.76
424.32,4.56,1.79,4.56,1.79,-1.79,-1.87,-1.40,2.77,2.78,2.77
428.56,4.49,1.70,4.49,1.70,-1.70,-1.79,-1.33,2.78,2.78,2.79
432.85,4.42,1.61,4.42,1.62,-1.62,-1.71,-1.27,2.80,2.80,2.81
437.18,4.34,1.54,4.34,1.54,-1.54,-1.63,-1.20,2.80,2.81,2.80
441.55,4.27,1.46,4.26,1.46,-1.45,-1.55,-1.14,2.82,2.81,2.81
445.96,4.19,1.37,4.18,1.37,-1.37,-1.47,-1.07,2.82,2.82,2.82
450.42,4.10,1.27,4.11,1.28,-1.28,-1.39,-1.01,2.81,2.82,2.82
454.93,4.03,1.20,4.03,1.20,-1.20,-1.31,-0.95,2.83,2.83,2.83
459.48,3.97,1.13,3.96,1.12,-1.12,-1.23,-0.89,2.85,2.84,2.84
464.07,3.89,1.03,3.89,1.04,-1.04,-1.15,-0.83,2.85,2.85,2.86
468.71,3.83,0.97,3.82,0.96,-0.96,-1.07,-0.77,2.87,2.86,2.86
473.40,3.75,0.88,3.75,0.88,-0.88,-0.99,-0.71,2.87,2.87,2.87
478.13,3.68,0.80,3.68,0.81,-0.80,-0.91,-0.66,2.88,2.88,2.88
482.91,3.62,0.73,3.61,0.72,-0.72,-0.83,-0.60,2.90,2.89,2.89
487.74,3.54,0.64,3.54,0.64,-0.64,-0.75,-0.55,2.89,2.89,2.90
492.62,3.46,0.55,3.47,0.56,-0.56,-0.66,-0.49,2.90,2.90,2.91
497.55,3.40,0.48,3.40,0.48,-0.48,-0.58,-0.43,2.92,2.92,2.92
502.52,3.34,0.41,3.34,0.41,-0.40,-0.50,-0.38,2.94,2.94,2.93
507.55,3.28,0.33,3.27,0.33,-0.32,-0.42,-0.33,2.96,2.95,2.95
512.62,3.20,0.24,3.20,0.24,-0.24,-0.34,-0.27,2.96,2.96,2.96
