frequency,raw,error,smoothed,error_smoothed,equalization,parametric_eq,fixed_band_eq,equalized_raw,equalized_smoothed,target
20.00,-6.78,-4.12,-6.77,-4.11,4.25,3.32,0.75,-2.54,-2.52,-2.66
20.20,-6.71,-4.04,-6.72,-4.05,4.09,3.28,0.77,-2.62,-2.63,-2.67
20.40,-6.65,-3.96,-6.66,-3.98,3.95,3.25,0.80,-2.71,-2.72,-2.69
20.61,-6.59,-3.89,-6.59,-3.89,3.81,3.21,0.82,-2.78,-2.78,-2.70
20.81,-6.51,-3.79,-6.52,-3.80,3.68,3.18,0.85,-2.83,-2.84,-2.72
21.02,-6.43,-3.70,-6.41,-3.68,3.56,3.14,0.87,-2.88,-2.85,-2.73
21.23,-6.27,-3.53,-6.27,-3.53,3.45,3.11,0.90,-2.83,-2.83,-2.74
21.44,-6.10,-3.35,-6.11,-3.36,3.34,3.07,0.93,-2.76,-2.76,-2.75
21.66,-5.95,-3.18,-5.93,-3.17,3.22,3.04,0.96,-2.72,-2.71,-2.77
21.87,-5.78,-3.01,-5.80,-3.02,3.12,3.00,0.99,-2.66,-2.68,-2.77
22.09,-5.69,-2.91,-5.73,-2.94,3.04,2.96,1.02,-2.66,-2.69,-2.78
22.31,-5.72,-2.93,-5.71,-2.92,2.98,2.93,1.05,-2.75,-2.73,-2.79
22.54,-5.75,-2.95,-5.75,-2.95,2.94,2.89,1.08,-2.82,-2.81,-2.80
22.76,-5.77,-2.96,-5.78,-2.97,2.91,2.85,1.12,-2.86,-2.87,-2.81
22.99,-5.80,-2.99,-5.78,-2.97,2.90,2.81,1.15,-2.90,-2.88,-2.81
23.22,-5.75,-2.93,-5.76,-2.94,2.90,2.78,1.18,-2.86,-2.86,-2.82
23.45,-5.70,-2.88,-5.71,-2.89,2.89,2.74,1.22,-2.81,-2.82,-2.82
23.69,-5.65,-2.83,-5.66,-2.84,2.88,2.70,1.26,-2.77,-2.77,-2.82
23.92,-5.61,-2.79,-5.61,-2.79,2.86,2.66,1.29,-2.76,-2.75,-2.82
24.16,-5.57,-2.75,-5.57,-2.75,2.81,2.62,1.33,-2.77,-2.77,-2.82
24.40,-5.53,-2.71,-5.55,-2.73,2.72,2.58,1.37,-2.81,-2.83,-2.82
24.65,-5.50,-2.68,-5.52,-2.70,2.60,2.54,1.40,-2.91,-2.92,-2.82
24.89,-5.46,-2.64,-5.42,-2.61,2.45,2.50,1.44,-3.01,-2.98,-2.82
25.14,-5.28,-2.46,-5.25,-2.43,2.28,2.46,1.48,-3.00,-2.97,-2.82
25.39,-4.98,-2.16,-4.99,-2.16,2.11,2.41,1.52,-2.87,-2.87,-2.82
25.65,-4.71,-1.88,-4.69,-1.86,1.95,2.37,1.56,-2.75,-2.74,-2.83
25.91,-4.43,-1.60,-4.48,-1.64,1.82,2.33,1.60,-2.61,-2.66,-2.83
26.16,-4.36,-1.52,-4.39,-1.55,1.73,2.29,1.63,-2.63,-2.66,-2.84
26.43,-4.43,-1.59,-4.41,-1.57,1.69,2.25,1.67,-2.74,-2.72,-2.84
26.69,-4.52,-1.67,-4.50,-1.65,1.71,2.20,1.71,-2.82,-2.80,-2.85
26.96,-4.60,-1.74,-4.61,-1.75,1.76,2.16,1.74,-2.85,-2.85,-2.86
27.23,-4.70,-1.84,-4.71,-1.85,1.81,2.12,1.78,-2.90,-2.91,-2.86
27.50,-4.81,-1.94,-4.84,-1.97,1.83,2.07,1.81,-2.98,-3.00,-2.87
27.77,-4.91,-2.03,-4.91,-2.03,1.83,2.03,1.84,-3.09,-3.08,-2.88
28.05,-4.95,-2.06,-4.88,-1.99,1.79,1.99,1.87,-3.16,-3.08,-2.89
28.33,-4.71,-1.82,-4.71,-1.82,1.75,1.94,1.90,-2.96,-2.96,-2.89
28.62,-4.48,-1.59,-4.47,-1.58,1.70,1.90,1.92,-2.78,-2.77,-2.89
28.90,-4.22,-1.32,-4.30,-1.41,1.66,1.85,1.94,-2.57,-2.64,-2.90
29.19,-4.25,-1.36,-4.29,-1.39,1.62,1.81,1.96,-2.63,-2.67,-2.89
29.48,-4.42,-1.53,-4.40,-1.51,1.59,1.77,1.98,-2.82,-2.81,-2.89
29.78,-4.57,-1.68,-4.55,-1.66,1.58,1.72,1.99,-2.99,-2.97,-2.89
30.08,-4.67,-1.78,-4.62,-1.74,1.58,1.68,2.00,-3.09,-3.04,-2.89
30.38,-4.59,-1.71,-4.61,-1.72,1.59,1.63,2.01,-3.01,-3.02,-2.89
30.68,-4.51,-1.62,-4.53,-1.64,1.58,1.59,2.01,-2.93,-2.95,-2.89
30.99,-4.43,-1.55,-4.43,-1.54,1.54,1.54,2.01,-2.90,-2.89,-2.89
31.30,-4.33,-1.44,-4.32,-1.44,1.46,1.49,2.00,-2.86,-2.86,-2.89
31.61,-4.21,-1.32,-4.22,-1.33,1.35,1.45,1.99,-2.86,-2.86,-2.89
31.93,-4.11,-1.22,-4.11,-1.22,1.23,1.40,1.98,-2.87,-2.87,-2.89
32.24,-4.01,-1.11,-4.01,-1.12,1.13,1.36,1.96,-2.89,-2.89,-2.90
32.57,-3.93,-1.03,-3.93,-1.03,1.04,1.31,1.94,-2.90,-2.89,-2.90
32.89,-3.86,-0.96,-3.87,-0.97,0.98,1.27,1.92,-2.88,-2.88,-2.90
33.22,-3.81,-0.91,-3.81,-0.91,0.95,1.22,1.89,-2.87,-2.86,-2.90
33.55,-3.77,-0.87,-3.77,-0.87,0.92,1.18,1.86,-2.85,-2.84,-2.90
33.89,-3.74,-0.83,-3.76,-0.85,0.90,1.13,1.82,-2.84,-2.86,-2.91
34.23,-3.78,-0.87,-3.80,-0.89,0.87,1.09,1.79,-2.91,-2.93,-2.91
34.57,-3.84,-0.93,-3.85,-0.94,0.85,1.04,1.75,-2.99,-3.00,-2.91
34.92,-3.91,-1.00,-3.87,-0.96,0.84,1.00,1.71,-3.07,-3.03,-2.91
35.27,-3.82,-0.91,-3.77,-0.86,0.84,0.95,1.66,-2.98,-2.94,-2.91
35.62,-3.64,-0.74,-3.65,-0.74,0.82,0.91,1.62,-2.82,-2.83,-2.91
35.97,-3.49,-0.57,-3.58,-0.66,0.79,0.86,1.57,-2.70,-2.79,-2.92
36.33,-3.61,-0.69,-3.63,-0.71,0.75,0.82,1.52,-2.86,-2.88,-2.92
36.70,-3.74,-0.82,-3.71,-0.79,0.71,0.77,1.47,-3.03,-3.00,-2.92
37.06,-3.82,-0.90,-3.73,-0.80,0.69,0.73,1.42,-3.13,-3.04,-2.92
37.43,-3.62,-0.69,-3.62,-0.69,0.68,0.69,1.36,-2.94,-2.94,-2.93
37.81,-3.42,-0.49,-3.49,-0.56,0.67,0.64,1.31,-2.75,-2.82,-2.93
38.19,-3.40,-0.46,-3.47,-0.53,0.65,0.60,1.26,-2.76,-2.83,-2.94
38.57,-3.55,-0.60,-3.55,-0.60,0.60,0.56,1.20,-2.96,-2.95,-2.95
38.95,-3.71,-0.75,-3.60,-0.65,0.52,0.52,1.14,-3.20,-3.09,-2.96
39.34,-3.55,-0.59,-3.54,-0.58,0.42,0.47,1.09,-3.13,-3.12,-2.96
39.74,-3.34,-0.38,-3.39,-0.42,0.33,0.43,1.03,-3.01,-3.05,-2.97
40.14,-3.19,-0.21,-3.20,-0.22,0.27,0.39,0.98,-2.92,-2.94,-2.98
40.54,-3.10,-0.11,-3.10,-0.11,0.22,0.35,0.92,-2.89,-2.88,-2.99
40.94,-3.03,-0.04,-3.04,-0.05,0.18,0.31,0.87,-2.86,-2.86,-2.99
41.35,-3.02,-0.03,-3.01,-0.02,0.14,0.27,0.81,-2.88,-2.87,-2.99
41.76,-3.02,-0.03,-3.04,-0.05,0.12,0.23,0.76,-2.90,-2.91,-2.99
42.18,-3.09,-0.11,-3.15,-0.16,0.11,0.19,0.70,-2.99,-3.04,-2.99
42.60,-3.26,-0.27,-3.25,-0.26,0.11,0.16,0.65,-3.15,-3.15,-2.99
43.03,-3.39,-0.40,-3.27,-0.28,0.12,0.12,0.59,-3.27,-3.15,-2.99
43.46,-3.18,-0.19,-3.19,-0.20,0.14,0.08,0.54,-3.05,-3.05,-2.99
43.90,-2.98,0.00,-3.04,-0.06,0.15,0.04,0.49,-2.83,-2.90,-2.98
44.33,-2.92,0.06,-2.92,0.06,0.13,0.01,0.43,-2.79,-2.79,-2.98
44.78,-2.92,0.06,-2.94,0.04,0.08,-0.03,0.38,-2.84,-2.86,-2.98
45.23,-3.00,-0.02,-3.06,-0.08,0.01,-0.06,0.33,-3.00,-3.05,-2.98
45.68,-3.16,-0.18,-3.12,-0.14,-0.06,-0.09,0.28,-3.22,-3.18,-2.98
46.13,-3.18,-0.20,-3.04,-0.06,-0.10,-0.13,0.22,-3.28,-3.14,-2.98
46.60,-2.85,0.13,-2.87,0.11,-0.11,-0.16,0.17,-2.95,-2.98,-2.98
47.06,-2.55,0.43,-2.69,0.29,-0.11,-0.19,0.12,-2.66,-2.79,-2.98
47.53,-2.64,0.34,-2.62,0.37,-0.13,-0.22,0.07,-2.78,-2.75,-2.98
48.01,-2.72,0.27,-2.75,0.23,-0.18,-0.25,0.02,-2.90,-2.93,-2.99
48.49,-2.90,0.09,-2.92,0.08,-0.22,-0.28,-0.03,-3.12,-3.14,-2.99
48.97,-3.07,-0.07,-2.94,0.06,-0.24,-0.31,-0.08,-3.31,-3.18,-3.00
49.46,-2.87,0.13,-2.87,0.13,-0.23,-0.34,-0.13,-3.10,-3.10,-3.00
49.96,-2.65,0.35,-2.73,0.27,-0.21,-0.37,-0.17,-2.86,-2.94,-3.00
50.46,-2.62,0.38,-2.62,0.38,-0.22,-0.39,-0.22,-2.85,-2.84,-3.00
50.96,-2.62,0.37,-2.67,0.33,-0.26,-0.42,-0.27,-2.88,-2.92,-2.99
51.47,-2.74,0.25,-2.75,0.24,-0.30,-0.44,-0.31,-3.05,-3.06,-2.99
51.99,-2.87,0.12,-2.76,0.24,-0.34,-0.47,-0.36,-3.21,-3.09,-2.99
52.51,-2.70,0.30,-2.70,0.30,-0.35,-0.49,-0.40,-3.04,-3.05,-3.00
53.03,-2.52,0.48,-2.59,0.41,-0.34,-0.51,-0.45,-2.86,-2.92,-3.00
53.56,-2.52,0.48,-2.53,0.47,-0.33,-0.53,-0.49,-2.85,-2.86,-3.00
54.10,-2.55,0.45,-2.61,0.39,-0.34,-0.55,-0.53,-2.90,-2.95,-3.00
54.64,-2.72,0.28,-2.68,0.32,-0.39,-0.57,-0.58,-3.11,-3.07,-3.00
55.18,-2.76,0.24,-2.66,0.34,-0.46,-0.59,-0.62,-3.23,-3.13,-3.00
55.74,-2.54,0.46,-2.61,0.39,-0.53,-0.61,-0.66,-3.07,-3.14,-3.00
56.29,-2.42,0.58,-2.49,0.51,-0.59,-0.63,-0.69,-3.01,-3.08,-3.00
56.86,-2.42,0.58,-2.32,0.68,-0.63,-0.65,-0.73,-3.05,-2.95,-3.00
57.42,-2.24,0.76,-2.20,0.80,-0.66,-0.66,-0.76,-2.90,-2.86,-3.00
58.00,-2.00,1.00,-2.11,0.88,-0.69,-0.68,-0.80,-2.70,-2.81,-3.00
58.58,-2.12,0.88,-2.14,0.86,-0.72,-0.69,-0.83,-2.85,-2.87,-3.00
59.16,-2.28,0.72,-2.30,0.70,-0.74,-0.71,-0.86,-3.01,-3.04,-3.00
59.76,-2.53,0.47,-2.43,0.57,-0.74,-0.72,-0.89,-3.27,-3.17,-3.00
60.35,-2.49,0.51,-2.42,0.57,-0.73,-0.74,-0.91,-3.22,-3.16,-3.00
60.96,-2.25,0.74,-2.35,0.65,-0.71,-0.75,-0.94,-2.95,-3.06,-2.99
61.57,-2.22,0.77,-2.24,0.75,-0.69,-0.76,-0.96,-2.91,-2.93,-2.99
62.18,-2.22,0.77,-2.20,0.79,-0.68,-0.77,-0.98,-2.90,-2.88,-2.99
62.80,-2.22,0.78,-2.20,0.79,-0.69,-0.78,-1.00,-2.92,-2.90,-3.00
63.43,-2.22,0.78,-2.24,0.76,-0.72,-0.79,-1.02,-2.95,-2.97,-3.00
64.07,-2.24,0.77,-2.32,0.69,-0.75,-0.80,-1.04,-3.00,-3.08,-3.01
64.71,-2.43,0.58,-2.34,0.67,-0.78,-0.81,-1.05,-3.21,-3.12,-3.01
65.35,-2.38,0.64,-2.31,0.71,-0.80,-0.82,-1.06,-3.18,-3.10,-3.02
66.01,-2.12,0.89,-2.23,0.79,-0.81,-0.83,-1.07,-2.94,-3.04,-3.02
66.67,-2.12,0.91,-2.13,0.90,-0.83,-0.84,-1.08,-2.96,-2.97,-3.03
67.33,-2.12,0.91,-2.10,0.93,-0.85,-0.85,-1.09,-2.97,-2.95,-3.03
68.01,-2.12,0.92,-2.12,0.92,-0.86,-0.85,-1.10,-2.99,-2.99,-3.04
68.69,-2.12,0.92,-2.11,0.94,-0.88,-0.86,-1.10,-3.00,-2.98,-3.04
69.37,-2.12,0.93,-2.15,0.90,-0.89,-0.87,-1.11,-3.01,-3.03,-3.05
70.07,-2.14,0.91,-2.22,0.83,-0.89,-0.88,-1.11,-3.04,-3.11,-3.05
70.77,-2.34,0.72,-2.25,0.81,-0.90,-0.88,-1.11,-3.24,-3.15,-3.06
71.48,-2.27,0.79,-2.23,0.83,-0.91,-0.89,-1.11,-3.18,-3.14,-3.06
72.19,-2.10,0.97,-2.16,0.91,-0.93,-0.90,-1.11,-3.03,-3.09,-3.07
72.91,-2.03,1.04,-2.06,1.01,-0.96,-0.90,-1.11,-3.00,-3.02,-3.07
73.64,-2.02,1.05,-2.01,1.06,-1.00,-0.91,-1.12,-3.02,-3.01,-3.07
74.38,-2.02,1.05,-2.02,1.05,-1.02,-0.91,-1.12,-3.05,-3.04,-3.07
75.12,-2.02,1.05,-2.02,1.05,-1.04,-0.92,-1.12,-3.06,-3.06,-3.07
75.87,-2.02,1.06,-2.02,1.06,-1.04,-0.93,-1.12,-3.06,-3.06,-3.08
76.63,-2.02,1.06,-2.01,1.07,-1.03,-0.93,-1.12,-3.05,-3.04,-3.08
77.40,-2.02,1.06,-2.05,1.03,-1.01,-0.94,-1.12,-3.04,-3.06,-3.08
78.17,-2.05,1.03,-2.11,0.97,-1.00,-0.95,-1.12,-3.06,-3.11,-3.08
78.95,-2.21,0.87,-2.14,0.94,-1.01,-0.95,-1.12,-3.22,-3.15,-3.08
79.74,-2.15,0.93,-2.12,0.96,-1.04,-0.96,-1.12,-3.19,-3.16,-3.08
80.54,-2.02,1.06,-2.05,1.03,-1.07,-0.97,-1.13,-3.09,-3.12,-3.08
81.35,-1.92,1.16,-1.97,1.11,-1.11,-0.98,-1.13,-3.04,-3.08,-3.08
82.16,-1.92,1.16,-1.91,1.17,-1.15,-0.98,-1.13,-3.08,-3.07,-3.08
82.98,-1.92,1.17,-1.85,1.23,-1.19,-0.99,-1.14,-3.11,-3.04,-3.09
83.81,-1.78,1.31,-1.81,1.28,-1.21,-1.00,-1.14,-2.99,-3.02,-3.09
84.65,-1.75,1.34,-1.82,1.27,-1.20,-1.01,-1.15,-2.95,-3.02,-3.09
85.50,-1.88,1.22,-1.87,1.22,-1.17,-1.02,-1.16,-3.05,-3.04,-3.10
86.35,-2.02,1.08,-1.95,1.15,-1.13,-1.03,-1.17,-3.15,-3.08,-3.10
87.22,-2.02,1.09,-2.04,1.07,-1.09,-1.04,-1.18,-3.12,-3.14,-3.11
88.09,-2.03,1.08,-2.13,0.98,-1.07,-1.05,-1.19,-3.11,-3.20,-3.11
88.97,-2.22,0.90,-2.16,0.96,-1.06,-1.06,-1.20,-3.28,-3.22,-3.12
89.86,-2.23,0.90,-2.14,0.99,-1.06,-1.07,-1.21,-3.30,-3.20,-3.13
90.76,-1.99,1.13,-2.06,1.07,-1.09,-1.08,-1.22,-3.08,-3.15,-3.13
91.66,-1.91,1.23,-1.95,1.19,-1.12,-1.09,-1.23,-3.04,-3.08,-3.14
92.58,-1.91,1.24,-1.89,1.25,-1.17,-1.10,-1.25,-3.08,-3.06,-3.15
93.51,-1.91,1.25,-1.91,1.25,-1.22,-1.11,-1.26,-3.13,-3.12,-3.16
94.44,-1.91,1.26,-1.91,1.26,-1.26,-1.12,-1.28,-3.17,-3.17,-3.17
95.39,-1.91,1.27,-1.91,1.27,-1.28,-1.13,-1.30,-3.20,-3.20,-3.18
96.34,-1.91,1.28,-1.92,1.28,-1.29,-1.15,-1.32,-3.20,-3.21,-3.19
97.30,-1.92,1.29,-1.92,1.28,-1.28,-1.16,-1.34,-3.20,-3.20,-3.21
98.28,-1.93,1.29,-1.93,1.29,-1.26,-1.17,-1.36,-3.20,-3.19,-3.22
99.26,-1.94,1.30,-1.94,1.30,-1.26,-1.18,-1.38,-3.21,-3.20,-3.24
100.25,-1.96,1.30,-2.00,1.26,-1.27,-1.20,-1.40,-3.24,-3.27,-3.26
101.25,-2.03,1.25,-2.05,1.23,-1.29,-1.21,-1.42,-3.32,-3.34,-3.28
102.27,-2.15,1.15,-2.06,1.24,-1.30,-1.22,-1.44,-3.45,-3.36,-3.30
103.29,-2.01,1.31,-2.03,1.29,-1.32,-1.24,-1.46,-3.33,-3.35,-3.32
104.32,-1.92,1.42,-1.98,1.36,-1.34,-1.25,-1.48,-3.26,-3.32,-3.34
105.37,-1.94,1.43,-1.94,1.43,-1.36,-1.27,-1.51,-3.31,-3.30,-3.37
106.42,-1.97,1.42,-1.96,1.43,-1.40,-1.28,-1.53,-3.37,-3.36,-3.39
107.48,-1.99,1.42,-2.00,1.41,-1.43,-1.29,-1.55,-3.42,-3.43,-3.41
108.56,-2.02,1.41,-2.03,1.40,-1.45,-1.31,-1.57,-3.47,-3.48,-3.43
109.64,-2.04,1.41,-2.01,1.43,-1.45,-1.32,-1.60,-3.50,-3.47,-3.45
110.74,-2.01,1.45,-1.99,1.48,-1.44,-1.34,-1.62,-3.46,-3.43,-3.46
111.85,-1.92,1.56,-2.00,1.48,-1.42,-1.35,-1.64,-3.34,-3.42,-3.48
112.97,-2.03,1.46,-2.05,1.44,-1.39,-1.37,-1.66,-3.42,-3.44,-3.49
114.10,-2.19,1.31,-2.13,1.38,-1.36,-1.38,-1.68,-3.56,-3.49,-3.50
115.24,-2.19,1.32,-2.19,1.32,-1.34,-1.40,-1.69,-3.54,-3.53,-3.51
116.39,-2.19,1.33,-2.22,1.30,-1.33,-1.41,-1.71,-3.52,-3.55,-3.52
117.55,-2.20,1.32,-2.25,1.27,-1.32,-1.43,-1.73,-3.53,-3.58,-3.52
118.73,-2.30,1.23,-2.26,1.27,-1.33,-1.44,-1.74,-3.63,-3.58,-3.53
119.92,-2.29,1.24,-2.22,1.31,-1.34,-1.45,-1.75,-3.64,-3.57,-3.53
121.12,-2.07,1.46,-2.15,1.38,-1.37,-1.47,-1.77,-3.45,-3.53,-3.54
122.33,-2.06,1.48,-2.07,1.46,-1.41,-1.48,-1.78,-3.47,-3.48,-3.54
123.55,-2.05,1.48,-2.04,1.50,-1.44,-1.50,-1.78,-3.49,-3.48,-3.53
124.79,-2.05,1.48,-2.05,1.48,-1.47,-1.51,-1.79,-3.52,-3.52,-3.53
126.03,-2.04,1.50,-2.04,1.49,-1.49,-1.52,-1.80,-3.53,-3.53,-3.54
127.29,-2.03,1.50,-2.04,1.49,-1.50,-1.54,-1.80,-3.54,-3.54,-3.53
128.57,-2.03,1.50,-2.03,1.50,-1.52,-1.55,-1.80,-3.55,-3.55,-3.53
129.85,-2.02,1.51,-2.02,1.50,-1.52,-1.56,-1.80,-3.55,-3.55,-3.53
131.15,-2.01,1.52,-2.02,1.51,-1.53,-1.58,-1.80,-3.54,-3.55,-3.53
132.46,-2.01,1.52,-2.02,1.51,-1.53,-1.59,-1.79,-3.54,-3.55,-3.53
133.79,-2.01,1.53,-1.99,1.54,-1.53,-1.60,-1.79,-3.54,-3.52,-3.54
135.12,-1.99,1.55,-1.96,1.58,-1.52,-1.61,-1.78,-3.52,-3.49,-3.54
136.48,-1.90,1.64,-1.97,1.57,-1.53,-1.62,-1.78,-3.43,-3.50,-3.54
137.84,-1.99,1.56,-2.02,1.52,-1.53,-1.64,-1.77,-3.52,-3.55,-3.55
139.22,-2.13,1.42,-2.06,1.49,-1.53,-1.65,-1.76,-3.66,-3.60,-3.55
140.61,-2.12,1.44,-2.09,1.48,-1.54,-1.66,-1.75,-3.66,-3.62,-3.56
142.02,-1.99,1.58,-2.05,1.52,-1.54,-1.67,-1.74,-3.54,-3.60,-3.57
143.44,-1.99,1.59,-2.00,1.58,-1.55,-1.68,-1.73,-3.55,-3.55,-3.58
144.87,-1.99,1.59,-1.98,1.60,-1.57,-1.69,-1.72,-3.56,-3.55,-3.58
146.32,-1.99,1.60,-1.99,1.60,-1.59,-1.70,-1.71,-3.58,-3.58,-3.59
147.78,-1.99,1.62,-1.99,1.61,-1.61,-1.71,-1.70,-3.60,-3.60,-3.61
149.26,-1.99,1.63,-1.99,1.63,-1.63,-1.72,-1.69,-3.62,-3.62,-3.62
150.75,-1.99,1.64,-1.99,1.64,-1.64,-1.73,-1.68,-3.63,-3.63,-3.63
152.26,-1.99,1.65,-1.99,1.64,-1.64,-1.73,-1.67,-3.64,-3.64,-3.64
153.78,-1.99,1.65,-1.99,1.65,-1.65,-1.74,-1.66,-3.64,-3.64,-3.64
155.32,-1.99,1.66,-1.99,1.66,-1.66,-1.75,-1.65,-3.65,-3.65,-3.65
156.88,-1.99,1.67,-1.99,1.66,-1.67,-1.76,-1.64,-3.66,-3.66,-3.66
158.44,-1.99,1.67,-1.99,1.67,-1.68,-1.77,-1.63,-3.67,-3.67,-3.66
160.03,-1.99,1.68,-2.00,1.67,-1.68,-1.77,-1.63,-3.68,-3.68,-3.67
161.63,-1.99,1.69,-1.99,1.68,-1.69,-1.78,-1.62,-3.68,-3.68,-3.68
163.24,-1.99,1.70,-1.97,1.72,-1.69,-1.79,-1.61,-3.68,-3.66,-3.69
164.88,-1.97,1.73,-1.98,1.72,-1.69,-1.80,-1.61,-3.66,-3.66,-3.70
166.53,-1.95,1.76,-2.02,1.69,-1.69,-1.80,-1.61,-3.64,-3.70,-3.71
168.19,-2.09,1.63,-2.05,1.67,-1.69,-1.81,-1.61,-3.78,-3.74,-3.72
169.87,-2.11,1.62,-2.07,1.65,-1.69,-1.82,-1.60,-3.81,-3.77,-3.73
171.57,-2.04,1.70,-2.08,1.67,-1.69,-1.82,-1.61,-3.74,-3.77,-3.74
173.29,-2.03,1.72,-2.04,1.71,-1.70,-1.83,-1.61,-3.73,-3.74,-3.75
175.02,-2.03,1.73,-2.03,1.73,-1.70,-1.83,-1.61,-3.73,-3.73,-3.76
176.77,-2.04,1.72,-2.04,1.72,-1.71,-1.84,-1.61,-3.75,-3.75,-3.76
178.54,-2.04,1.73,-2.04,1.73,-1.72,-1.84,-1.62,-3.77,-3.76,-3.77
180.32,-2.03,1.74,-2.04,1.73,-1.74,-1.85,-1.63,-3.77,-3.77,-3.77
182.13,-2.03,1.74,-2.03,1.74,-1.75,-1.86,-1.63,-3.78,-3.78,-3.77
183.95,-2.02,1.75,-2.02,1.75,-1.76,-1.86,-1.64,-3.78,-3.78,-3.77
185.79,-2.01,1.77,-2.01,1.76,-1.77,-1.87,-1.65,-3.78,-3.78,-3.78
187.65,-1.99,1.78,-2.00,1.77,-1.77,-1.87,-1.66,-3.77,-3.77,-3.77
189.52,-1.98,1.79,-1.98,1.79,-1.78,-1.88,-1.68,-3.76,-3.76,-3.77
191.42,-1.97,1.80,-1.97,1.80,-1.78,-1.88,-1.69,-3.76,-3.75,-3.77
193.33,-1.95,1.82,-1.95,1.81,-1.79,-1.89,-1.71,-3.75,-3.75,-3.77
195.27,-1.93,1.83,-1.95,1.82,-1.81,-1.89,-1.72,-3.75,-3.76,-3.76
197.22,-1.94,1.82,-1.95,1.81,-1.83,-1.90,-1.74,-3.78,-3.79,-3.76
199.19,-1.96,1.80,-1.95,1.80,-1.86,-1.90,-1.76,-3.82,-3.81,-3.76
201.18,-1.95,1.81,-1.93,1.83,-1.88,-1.91,-1.77,-3.83,-3.80,-3.76
203.19,-1.86,1.90,-1.86,1.90,-1.89,-1.91,-1.79,-3.75,-3.75,-3.76
205.23,-1.78,1.98,-1.80,1.96,-1.90,-1.92,-1.81,-3.69,-3.70,-3.76
207.28,-1.76,2.00,-1.79,1.97,-1.91,-1.92,-1.83,-3.67,-3.70,-3.76
209.35,-1.82,1.95,-1.82,1.95,-1.91,-1.93,-1.86,-3.74,-3.73,-3.77
211.44,-1.89,1.88,-1.87,1.90,-1.91,-1.93,-1.88,-3.81,-3.78,-3.77
213.56,-1.90,1.87,-1.91,1.87,-1.91,-1.94,-1.90,-3.81,-3.81,-3.77
215.69,-1.91,1.87,-1.92,1.86,-1.89,-1.95,-1.92,-3.81,-3.81,-3.78
217.85,-1.91,1.87,-1.91,1.87,-1.88,-1.95,-1.94,-3.79,-3.79,-3.78
220.03,-1.91,1.88,-1.92,1.87,-1.87,-1.96,-1.96,-3.78,-3.78,-3.79
222.23,-1.92,1.87,-1.92,1.87,-1.86,-1.96,-1.98,-3.78,-3.78,-3.79
224.45,-1.92,1.87,-1.92,1.87,-1.86,-1.97,-2.01,-3.78,-3.78,-3.79
226.70,-1.91,1.88,-1.92,1.87,-1.86,-1.98,-2.03,-3.78,-3.78,-3.79
228.96,-1.91,1.88,-1.91,1.88,-1.87,-1.98,-2.05,-3.78,-3.78,-3.79
231.25,-1.90,1.88,-1.91,1.87,-1.88,-1.99,-2.06,-3.78,-3.79,-3.78
233.57,-1.90,1.88,-1.91,1.87,-1.89,-2.00,-2.08,-3.79,-3.80,-3.78
235.90,-1.90,1.87,-1.89,1.88,-1.91,-2.00,-2.10,-3.81,-3.80,-3.77
238.26,-1.86,1.91,-1.85,1.92,-1.93,-2.01,-2.12,-3.79,-3.78,-3.77
240.64,-1.77,1.98,-1.80,1.95,-1.95,-2.02,-2.13,-3.72,-3.75,-3.75
243.05,-1.74,2.00,-1.75,1.99,-1.97,-2.02,-2.15,-3.72,-3.72,-3.74
245.48,-1.72,2.01,-1.71,2.01,-2.00,-2.03,-2.16,-3.72,-3.71,-3.73
247.93,-1.69,2.03,-1.70,2.02,-2.02,-2.04,-2.17,-3.71,-3.71,-3.72
250.41,-1.67,2.04,-1.67,2.03,-2.03,-2.05,-2.18,-3.71,-3.71,-3.71
252.92,-1.65,2.05,-1.65,2.04,-2.05,-2.06,-2.19,-3.70,-3.70,-3.70
255.45,-1.64,2.05,-1.64,2.05,-2.05,-2.06,-2.19,-3.70,-3.70,-3.69
258.00,-1.63,2.06,-1.63,2.05,-2.06,-2.07,-2.20,-3.69,-3.69,-3.69
260.58,-1.63,2.06,-1.63,2.06,-2.06,-2.08,-2.20,-3.69,-3.69,-3.69
263.19,-1.62,2.07,-1.63,2.06,-2.06,-2.09,-2.21,-3.68,-3.69,-3.69
265.82,-1.63,2.07,-1.63,2.07,-2.06,-2.10,-2.21,-3.69,-3.69,-3.70
268.48,-1.63,2.07,-1.63,2.07,-2.07,-2.11,-2.21,-3.70,-3.70,-3.70
271.16,-1.63,2.08,-1.64,2.07,-2.08,-2.12,-2.21,-3.71,-3.72,-3.71
273.87,-1.64,2.08,-1.64,2.07,-2.09,-2.13,-2.21,-3.74,-3.74,-3.72
276.61,-1.64,2.08,-1.63,2.10,-2.11,-2.14,-2.21,-3.76,-3.74,-3.72
279.38,-1.59,2.13,-1.60,2.13,-2.13,-2.15,-2.21,-3.73,-3.73,-3.72
282.17,-1.54,2.19,-1.56,2.17,-2.16,-2.16,-2.21,-3.70,-3.72,-3.73
284.99,-1.53,2.20,-1.53,2.20,-2.18,-2.17,-2.20,-3.71,-3.71,-3.73
287.84,-1.52,2.21,-1.52,2.21,-2.20,-2.18,-2.20,-3.72,-3.72,-3.73
290.72,-1.51,2.23,-1.51,2.22,-2.22,-2.19,-2.20,-3.73,-3.74,-3.74
293.63,-1.50,2.24,-1.50,2.24,-2.24,-2.20,-2.20,-3.74,-3.74,-3.74
296.57,-1.49,2.25,-1.49,2.25,-2.25,-2.22,-2.20,-3.74,-3.74,-3.74
299.53,-1.47,2.26,-1.48,2.26,-2.26,-2.23,-2.20,-3.73,-3.73,-3.73
302.53,-1.46,2.27,-1.46,2.27,-2.27,-2.24,-2.20,-3.73,-3.73,-3.73
305.55,-1.45,2.29,-1.45,2.28,-2.28,-2.25,-2.20,-3.73,-3.73,-3.74
308.61,-1.44,2.30,-1.45,2.29,-2.29,-2.27,-2.21,-3.74,-3.74,-3.74
311.69,-1.44,2.30,-1.45,2.30,-2.31,-2.28,-2.21,-3.76,-3.76,-3.74
314.81,-1.43,2.32,-1.44,2.31,-2.33,-2.29,-2.21,-3.77,-3.77,-3.75
317.96,-1.43,2.32,-1.41,2.34,-2.35,-2.30,-2.22,-3.79,-3.76,-3.75
321.14,-1.36,2.39,-1.38,2.38,-2.38,-2.32,-2.23,-3.74,-3.75,-3.75
324.35,-1.33,2.43,-1.35,2.41,-2.39,-2.33,-2.24,-3.73,-3.74,-3.76
327.59,-1.33,2.44,-1.33,2.44,-2.41,-2.34,-2.25,-3.74,-3.74,-3.77
330.87,-1.33,2.44,-1.33,2.44,-2.42,-2.36,-2.26,-3.76,-3.76,-3.77
334.18,-1.33,2.44,-1.34,2.43,-2.43,-2.37,-2.28,-3.77,-3.77,-3.77
337.52,-1.34,2.43,-1.34,2.43,-2.44,-2.39,-2.29,-3.78,-3.78,-3.77
340.90,-1.34,2.44,-1.34,2.43,-2.44,-2.40,-2.31,-3.78,-3.78,-3.78
344.30,-1.34,2.44,-1.35,2.43,-2.44,-2.42,-2.33,-3.78,-3.78,-3.78
347.75,-1.34,2.44,-1.34,2.44,-2.44,-2.43,-2.35,-3.79,-3.79,-3.78
351.23,-1.34,2.45,-1.35,2.44,-2.46,-2.45,-2.37,-3.80,-3.80,-3.79
354.74,-1.33,2.46,-1.33,2.46,-2.47,-2.46,-2.40,-3.81,-3.81,-3.79
358.28,-1.32,2.47,-1.30,2.49,-2.50,-2.48,-2.43,-3.82,-3.80,-3.79
361.87,-1.25,2.54,-1.27,2.52,-2.52,-2.49,-2.46,-3.77,-3.78,-3.79
365.49,-1.22,2.57,-1.23,2.56,-2.54,-2.51,-2.49,-3.76,-3.77,-3.79
369.14,-1.21,2.58,-1.21,2.58,-2.56,-2.52,-2.52,-3.77,-3.76,-3.79
372.83,-1.20,2.59,-1.20,2.59,-2.57,-2.54,-2.55,-3.78,-3.78,-3.79
376.56,-1.19,2.60,-1.20,2.59,-2.59,-2.55,-2.59,-3.79,-3.79,-3.79
380.33,-1.19,2.61,-1.19,2.61,-2.61,-2.57,-2.63,-3.81,-3.80,-3.80
384.13,-1.18,2.62,-1.19,2.61,-2.64,-2.58,-2.67,-3.82,-3.83,-3.80
387.97,-1.17,2.64,-1.18,2.63,-2.66,-2.60,-2.71,-3.83,-3.84,-3.81
391.85,-1.17,2.65,-1.15,2.67,-2.68,-2.62,-2.75,-3.86,-3.83,-3.82
395.77,-1.10,2.73,-1.12,2.71,-2.71,-2.63,-2.79,-3.81,-3.82,-3.83
399.73,-1.07,2.77,-1.09,2.75,-2.73,-2.65,-2.84,-3.81,-3.82,-3.84
403.72,-1.07,2.78,-1.07,2.78,-2.76,-2.67,-2.88,-3.83,-3.83,-3.85
407.76,-1.08,2.79,-1.08,2.79,-2.78,-2.68,-2.93,-3.86,-3.86,-3.87
411.84,-1.08,2.80,-1.08,2.80,-2.80,-2.70,-2.97,-3.88,-3.88,-3.88
415.96,-1.08,2.81,-1.09,2.81,-2.81,-2.71,-3.02,-3.89,-3.89,-3.89
420.12,-1.08,2.82,-1.08,2.82,-2.81,-2.73,-3.07,-3.90,-3.89,-3.90
424.32,-1.07,2.83,-1.08,2.83,-2.82,-2.75,-3.11,-3.89,-3.90,-3.90
428.56,-1.06,2.84,-1.07,2.83,-2.83,-2.76,-3.16,-3.89,-3.90,-3.90
