frequency,raw
20.00,0.74
20.20,0.82
20.40,0.88
20.61,0.96
20.81,1.02
21.02,1.10
21.23,1.23
21.44,1.37
21.66,1.51
21.87,1.65
22.09,1.77
22.31,1.86
22.54,1.97
22.76,2.07
22.99,2.17
23.22,2.23
23.45,2.29
23.69,2.35
23.92,2.40
24.16,2.52
24.40,2.67
24.65,2.82
24.89,2.99
25.14,3.03
25.39,2.99
25.65,2.96
25.91,2.91
26.16,3.02
26.43,3.21
26.69,3.39
26.96,3.59
27.23,3.62
27.50,3.63
27.77,3.64
28.05,3.63
28.33,3.56
28.62,3.50
28.90,3.43
29.19,3.47
29.48,3.55
29.78,3.64
30.08,3.70
30.38,3.66
30.68,3.63
30.99,3.59
31.30,3.60
31.61,3.60
31.93,3.60
32.24,3.74
32.57,3.90
32.89,4.08
33.22,4.04
33.55,3.91
33.89,3.77
34.23,3.74
34.57,3.74
34.92,3.74
35.27,3.80
35.62,3.87
35.97,3.94
36.33,3.85
36.70,3.74
37.06,3.64
37.43,3.56
37.81,3.48
38.19,3.51
38.57,3.68
38.95,3.85
39.34,3.72
39.74,3.56
40.14,3.44
40.54,3.40
40.94,3.37
41.35,3.42
41.76,3.48
42.18,3.41
42.60,3.20
43.03,2.99
43.46,3.00
43.90,3.00
44.33,2.96
44.78,2.90
45.23,2.85
45.68,2.80
46.13,2.76
46.60,2.75
47.06,2.70
47.53,2.58
48.01,2.44
48.49,2.32
48.97,2.20
49.46,2.03
49.96,1.84
50.46,1.93
50.96,2.03
51.47,2.01
51.99,1.97
52.51,1.54
53.03,1.13
53.56,1.38
54.10,1.53
54.64,1.24
55.18,1.02
55.74,0.96
56.29,0.90
56.86,0.80
57.42,0.72
58.00,0.63
58.58,0.66
59.16,0.63
59.76,0.46
60.35,0.39
60.96,0.41
61.57,0.04
62.18,-0.17
62.80,0.02
63.43,0.14
64.07,0.19
64.71,-0.13
65.35,-0.26
66.01,-0.26
66.67,-0.12
67.33,-0.20
68.01,-0.49
68.69,-0.57
69.37,-0.44
70.07,-0.19
70.77,-0.60
71.48,-0.62
72.19,-0.61
72.91,-0.99
73.64,-0.69
74.38,-0.63
75.12,-0.88
75.87,-0.93
76.63,-0.93
77.40,-0.96
78.17,-0.99
78.95,-0.98
79.74,-0.96
80.54,-0.82
81.35,-0.73
82.16,-0.82
82.98,-1.01
83.81,-1.00
84.65,-0.99
85.50,-0.98
86.35,-0.97
87.22,-0.96
88.09,-0.95
88.97,-0.94
89.86,-0.94
90.76,-0.92
91.66,-0.91
92.58,-0.91
93.51,-0.90
94.44,-0.90
95.39,-0.90
96.34,-0.90
97.30,-0.90
98.28,-0.91
99.26,-0.92
100.25,-0.93
101.25,-0.88
102.27,-0.75
103.29,-0.93
104.32,-1.06
105.37,-1.08
106.42,-1.14
107.48,-1.34
108.56,-1.42
109.64,-1.29
110.74,-1.18
111.85,-1.18
112.97,-1.35
114.10,-1.58
115.24,-1.46
116.39,-1.42
117.55,-1.50
118.73,-1.77
119.92,-1.71
121.12,-1.77
122.33,-1.84
123.55,-1.91
124.79,-1.94
126.03,-2.04
127.29,-2.09
128.57,-2.17
129.85,-2.27
131.15,-2.31
132.46,-2.37
133.79,-2.40
135.12,-2.44
136.48,-2.50
137.84,-2.55
139.22,-2.60
140.61,-2.52
142.02,-2.37
143.44,-2.78
144.87,-3.08
146.32,-2.94
147.78,-2.83
149.26,-2.81
150.75,-2.79
152.26,-2.77
153.78,-2.88
155.32,-2.86
156.88,-2.44
158.44,-2.22
160.03,-2.29
161.63,-2.34
163.24,-2.43
164.88,-2.57
166.53,-2.26
168.19,-2.21
169.87,-2.09
171.57,-1.78
173.29,-2.01
175.02,-2.29
176.77,-2.02
178.54,-2.00
180.32,-2.03
182.13,-2.05
183.95,-2.07
185.79,-2.09
187.65,-2.09
189.52,-2.10
191.42,-1.93
193.33,-1.92
195.27,-2.28
197.22,-2.35
199.19,-2.22
201.18,-2.34
203.19,-2.50
205.23,-2.56
207.28,-2.61
209.35,-2.67
211.44,-2.71
213.56,-2.76
215.69,-2.81
217.85,-2.81
220.03,-2.87
222.23,-2.90
224.45,-2.90
226.70,-2.90
228.96,-2.89
231.25,-3.06
233.57,-3.12
235.90,-2.92
238.26,-2.58
240.64,-2.45
243.05,-2.70
245.48,-2.84
247.93,-2.61
250.41,-2.55
252.92,-2.52
255.45,-2.52
258.00,-2.51
260.58,-2.51
263.19,-2.63
265.82,-2.64
268.48,-2.79
271.16,-2.77
273.87,-2.66
276.61,-2.94
279.38,-3.07
282.17,-3.18
284.99,-3.32
287.84,-3.43
290.72,-3.47
293.63,-3.45
296.57,-3.29
299.53,-3.32
302.53,-3.46
305.55,-3.44
308.61,-3.41
311.69,-3.32
314.81,-3.23
317.96,-3.19
321.14,-3.11
324.35,-3.09
327.59,-3.08
330.87,-3.07
334.18,-3.06
337.52,-2.92
340.90,-2.93
344.30,-3.12
347.75,-3.20
351.23,-3.27
354.74,-3.38
358.28,-3.47
361.87,-3.47
365.49,-3.45
369.14,-3.53
372.83,-3.63
376.56,-3.54
380.33,-3.62
384.13,-3.80
387.97,-3.75
391.85,-3.61
395.77,-3.52
399.73,-3.41
403.72,-3.19
407.76,-3.10
411.84,-3.11
415.96,-3.07
420.12,-3.09
424.32,-3.29
428.56,-3.34
432.85,-3.25
437.18,-3.19
441.55,-3.29
445.96,-3.21
450.42,-3.17
454.93,-3.02
459.48,-2.84
464.07,-2.70
468.71,-2.56
473.40,-2.41
478.13,-2.34
482.91,-2.28
487.74,-2.30
492.62,-2.33
497.55,-2.39
502.52,-2.46
507.55,-2.49
512.62,-2.50
517.75,-2.53
522.93,-2.51
528.16,-2.41
533.44,-2.28
538.77,-2.10
544.16,-1.90
549.60,-1.75
555.10,-1.74
560.65,-1.74
566.25,-1.88
571.92,-2.01
577.64,-2.08
583.41,-2.16
589.25,-2.17
595.14,-2.11
601.09,-2.06
607.10,-1.91
613.17,-1.69
619.30,-1.48
625.50,-1.44
631.75,-1.48
638.07,-1.58
644.45,-1.67
650.89,-1.87
657.40,-1.95
663.98,-1.87
670.62,-1.74
677.32,-1.60
684.10,-1.38
690.94,-1.15
697.85,-1.07
704.83,-1.08
711.87,-1.11
718.99,-1.44
726.18,-1.66
733.44,-1.49
740.78,-1.33
748.19,-1.21
755.67,-1.00
763.23,-0.76
770.86,-0.69
778.57,-0.81
786.35,-0.76
794.22,-0.88
802.16,-0.96
810.18,-0.87
818.28,-0.71
826.46,-0.61
834.73,-0.48
843.08,-0.38
851.51,-0.45
860.02,-0.57
868.62,-0.68
877.31,-0.75
886.08,-0.65
894.94,-0.52
903.89,-0.38
912.93,-0.24
922.06,-0.15
931.28,-0.27
940.59,-0.48
950.00,-0.49
959.50,-0.35
969.09,-0.30
978.78,-0.05
988.57,0.02
998.46,0.07
1008.44,-0.05
1018.53,-0.19
1028.71,-0.05
1039.00,0.03
1049.39,0.06
1059.88,0.21
1070.48,0.37
1081.19,0.29
1092.00,0.15
1102.92,-0.05
1113.95,-0.10
1125.09,0.13
1136.34,0.31
1147.70,0.11
1159.18,-0.01
1170.77,0.01
1182.48,0.29
1194.30,0.61
1206.25,0.89
1218.31,1.19
1230.49,1.34
1242.80,1.14
1255.22,1.29
1267.78,1.52
1280.45,1.66
1293.26,1.67
1306.19,1.59
1319.25,1.54
1332.45,1.53
1345.77,1.59
1359.23,1.51
1372.82,1.55
1386.55,1.48
1400.41,1.48
1414.42,1.72
1428.56,1.90
1442.85,1.93
1457.28,1.90
1471.85,1.92
1486.57,2.11
1501.43,2.33
1516.45,2.46
1531.61,2.46
1546.93,2.54
1562.40,2.74
1578.02,2.94
1593.80,2.99
1609.74,2.93
1625.84,3.04
1642.10,3.30
1658.52,3.50
1675.10,3.53
1691.85,3.54
1708.77,3.82
1725.86,4.07
1743.12,4.23
1760.55,4.31
1778.15,4.60
1795.94,4.76
1813.90,4.96
1832.03,5.03
1850.36,5.21
1868.86,5.47
1887.55,5.75
1906.42,5.95
1925.49,6.24
1944.74,6.46
1964.19,6.63
1983.83,6.70
2003.67,6.81
2023.71,7.02
2043.94,7.18
2064.38,7.46
2085.03,7.77
2105.88,8.04
2126.94,8.19
2148.20,8.27
2169.69,8.51
2191.38,8.69
2213.30,8.79
2235.43,9.10
2257.78,9.33
2280.36,9.45
2303.17,9.63
2326.20,9.92
2349.46,10.09
2372.95,10.18
2396.68,10.36
2420.65,10.42
2444.86,10.48
2469.31,10.59
2494.00,10.61
2518.94,10.51
2544.13,10.54
2569.57,10.50
2595.27,10.47
2621.22,10.41
2647.43,10.34
2673.90,10.34
2700.64,10.22
2727.65,10.17
2754.93,10.04
2782.48,9.95
2810.30,9.87
2838.40,9.70
2866.79,9.67
2895.46,9.46
2924.41,9.25
2953.65,8.94
2983.19,8.66
3013.02,8.65
3043.15,8.73
3073.58,8.83
3104.32,8.64
3135.36,8.34
3166.72,8.08
3198.38,8.34
3230.37,8.15
3262.67,7.77
3295.30,7.47
3328.25,7.32
3361.53,7.30
3395.15,7.39
3429.10,7.22
3463.39,7.08
3498.03,6.87
3533.01,6.89
3568.34,7.18
3604.02,7.24
3640.06,6.97
3676.46,6.65
3713.22,6.48
3750.36,6.34
3787.86,6.13
3825.74,5.82
3864.00,5.63
3902.64,5.52
3941.66,5.15
3981.08,4.61
4020.89,4.43
4061.10,4.32
4101.71,4.25
4142.73,4.09
4184.15,3.71
4226.00,3.20
4268.26,2.62
4310.94,2.14
4354.05,1.82
4397.59,1.11
4441.56,0.89
4485.98,0.32
4530.84,-0.03
4576.15,-0.24
4621.91,-0.45
4668.13,-0.55
4714.81,-0.51
4761.96,-0.57
4809.58,-0.52
4857.67,-0.36
4906.25,-0.34
4955.31,-0.53
5004.87,-0.66
5054.91,-0.49
5105.46,-0.27
5156.52,-0.02
5208.08,0.23
5260.16,0.48
5312.77,0.71
5365.89,0.97
5419.55,1.13
5473.75,1.20
5528.49,1.29
5583.77,1.30
5639.61,1.27
5696.00,1.19
5752.96,0.97
5810.49,0.70
5868.60,0.43
5927.28,0.11
5986.56,-0.11
6046.42,-0.33
6106.89,-0.26
6167.96,-0.36
6229.64,-0.40
6291.93,-0.22
6354.85,-0.22
6418.40,-0.20
6482.58,-0.17
6547.41,-0.19
6612.88,-0.06
6679.01,-0.01
6745.80,0.10
6813.26,0.17
6881.39,0.38
6950.21,0.43
7019.71,0.60
7089.91,0.76
7160.81,0.92
7232.41,1.10
7304.74,1.21
7377.79,1.24
7451.56,1.31
7526.08,1.35
7601.34,1.35
7677.35,1.65
7754.13,1.78
7831.67,2.05
7909.98,2.35
7989.08,2.28
8068.98,2.04
8149.67,1.81
8231.16,1.75
8313.47,2.03
8396.61,1.95
8480.57,2.37
8565.38,1.70
8651.03,1.29
8737.54,0.72
8824.92,-0.29
8913.17,-1.25
9002.30,-1.34
9092.32,-1.24
9183.25,-1.48
9275.08,-2.07
9367.83,-2.54
9461.51,-2.64
9556.12,-2.84
9651.68,-3.21
9748.20,-3.36
9845.68,-3.94
9944.14,-4.33
10043.58,-4.59
10144.02,-4.33
10245.46,-3.62
10347.91,-2.63
10451.39,-2.13
10555.91,-1.78
10661.46,-1.16
10768.08,-0.52
10875.76,0.27
10984.52,0.60
11094.36,0.45
11205.31,0.22
11317.36,0.03
11430.53,-0.46
11544.84,-1.23
11660.29,-1.96
11776.89,-3.46
11894.66,-4.08
12013.60,-5.17
12133.74,-6.57
12255.08,-7.49
12377.63,-8.56
12501.41,-9.37
12626.42,-10.63
12752.68,-12.08
12880.21,-13.35
13009.01,-14.07
13139.10,-14.07
13270.49,-14.29
13403.20,-13.98
13537.23,-14.19
13672.60,-14.02
13809.33,-13.85
13947.42,-13.43
14086.90,-13.07
14227.77,-12.88
14370.04,-12.51
14513.74,-12.00
14658.88,-11.54
14805.47,-12.18
14953.52,-12.53
15103.06,-13.20
15254.09,-14.44
15406.63,-15.50
15560.70,-16.75
15716.30,-17.94
15873.47,-19.06
16032.20,-19.46
16192.52,-19.24
16354.45,-19.01
16517.99,-19.99
16683.17,-21.23
16850.01,-22.94
17018.51,-24.74
17188.69,-27.20
17360.58,-29.62
17534.18,-31.67
17709.53,-33.43
17886.62,-34.82
18065.49,-35.30
18246.14,-35.24
18428.60,-35.55
18612.89,-36.12
18799.02,-35.76
18987.01,-35.76
19176.88,-36.45
19368.65,-38.62
19562.33,-40.05
19757.96,-41.47
19955.54,-42.96
