frequency,raw,error,smoothed,error_smoothed,equalization,parametric_eq,fixed_band_eq,equalized_raw,equalized_smoothed,target
20.00,-16.98,-15.89,-16.98,-15.89,6.00,5.76,2.62,-10.98,-10.98,-1.10
20.20,-16.85,-15.82,-16.85,-15.81,6.00,5.76,2.69,-10.85,-10.85,-1.04
20.40,-16.71,-15.73,-16.72,-15.74,6.00,5.77,2.77,-10.71,-10.72,-0.99
20.61,-16.59,-15.66,-16.59,-15.66,6.00,5.77,2.85,-10.59,-10.59,-0.93
20.81,-16.45,-15.58,-16.45,-15.58,6.00,5.77,2.92,-10.45,-10.45,-0.88
21.02,-16.32,-15.51,-16.32,-15.50,6.00,5.78,3.01,-10.32,-10.32,-0.82
21.23,-16.18,-15.42,-16.19,-15.42,6.00,5.78,3.09,-10.18,-10.19,-0.77
21.44,-16.05,-15.34,-16.06,-15.34,6.00,5.78,3.18,-10.05,-10.06,-0.72
21.66,-15.93,-15.26,-15.92,-15.26,6.00,5.79,3.27,-9.93,-9.92,-0.67
21.87,-15.79,-15.18,-15.79,-15.18,6.00,5.79,3.37,-9.79,-9.79,-0.62
22.09,-15.65,-15.09,-15.66,-15.09,6.00,5.79,3.46,-9.65,-9.66,-0.57
22.31,-15.52,-15.01,-15.52,-15.00,6.00,5.80,3.56,-9.52,-9.52,-0.52
22.54,-15.39,-14.91,-15.39,-14.91,6.00,5.80,3.66,-9.39,-9.39,-0.48
22.76,-15.25,-14.83,-15.26,-14.83,6.00,5.81,3.76,-9.25,-9.26,-0.43
22.99,-15.12,-14.74,-15.12,-14.74,6.00,5.81,3.87,-9.12,-9.12,-0.39
23.22,-14.99,-14.66,-14.99,-14.65,6.00,5.81,3.98,-8.99,-8.99,-0.34
23.45,-14.85,-14.56,-14.86,-14.56,6.00,5.82,4.09,-8.85,-8.86,-0.30
23.69,-14.73,-14.48,-14.73,-14.48,6.00,5.82,4.20,-8.73,-8.73,-0.25
23.92,-14.59,-14.39,-14.59,-14.39,6.00,5.83,4.31,-8.59,-8.59,-0.21
24.16,-14.46,-14.31,-14.46,-14.31,6.00,5.83,4.43,-8.46,-8.46,-0.16
24.40,-14.33,-14.22,-14.33,-14.22,6.00,5.83,4.55,-8.33,-8.33,-0.12
24.65,-14.21,-14.13,-14.20,-14.13,6.00,5.84,4.67,-8.21,-8.20,-0.08
24.89,-14.07,-14.04,-14.07,-14.04,6.00,5.84,4.80,-8.07,-8.07,-0.04
25.14,-13.94,-13.95,-13.94,-13.95,6.00,5.85,4.92,-7.94,-7.94,0.00
25.39,-13.81,-13.86,-13.81,-13.86,6.00,5.85,5.05,-7.81,-7.81,0.04
25.65,-13.69,-13.77,-13.68,-13.77,6.00,5.85,5.17,-7.69,-7.68,0.08
25.91,-13.56,-13.68,-13.56,-13.68,6.00,5.86,5.30,-7.56,-7.56,0.12
26.16,-13.42,-13.59,-13.43,-13.59,6.00,5.86,5.42,-7.42,-7.43,0.16
26.43,-13.30,-13.49,-13.29,-13.49,6.00,5.87,5.55,-7.30,-7.29,0.19
26.69,-13.16,-13.40,-13.17,-13.40,6.00,5.87,5.68,-7.16,-7.17,0.23
26.96,-13.04,-13.31,-13.04,-13.31,6.00,5.88,5.80,-7.04,-7.04,0.27
27.23,-12.92,-13.22,-12.91,-13.22,6.00,5.88,5.92,-6.92,-6.91,0.30
27.50,-12.79,-13.13,-12.79,-13.13,6.00,5.89,6.04,-6.79,-6.79,0.34
27.77,-12.66,-13.05,-12.67,-13.05,6.00,5.89,6.16,-6.66,-6.67,0.38
28.05,-12.54,-12.96,-12.54,-12.96,6.00,5.90,6.27,-6.54,-6.54,0.41
28.33,-12.42,-12.88,-12.42,-12.88,6.00,5.90,6.38,-6.42,-6.42,0.45
28.62,-12.30,-12.79,-12.30,-12.79,6.00,5.91,6.48,-6.30,-6.30,0.49
28.90,-12.17,-12.71,-12.18,-12.71,6.00,5.91,6.58,-6.17,-6.18,0.53
29.19,-12.05,-12.62,-12.05,-12.62,6.00,5.92,6.67,-6.05,-6.05,0.56
29.48,-11.93,-12.54,-11.93,-12.54,6.00,5.92,6.75,-5.93,-5.93,0.60
29.78,-11.82,-12.46,-11.81,-12.46,6.00,5.93,6.83,-5.82,-5.81,0.64
30.08,-11.70,-12.37,-11.70,-12.38,6.00,5.93,6.90,-5.70,-5.70,0.67
30.38,-11.60,-12.31,-11.59,-12.31,6.00,5.94,6.96,-5.60,-5.59,0.71
30.68,-11.49,-12.24,-11.49,-12.24,6.00,5.94,7.00,-5.49,-5.49,0.74
30.99,-11.39,-12.17,-11.39,-12.17,6.00,5.95,7.05,-5.39,-5.39,0.78
31.30,-11.29,-12.10,-11.28,-12.10,6.00,5.95,7.07,-5.29,-5.28,0.81
31.61,-11.18,-12.03,-11.18,-12.03,6.00,5.96,7.10,-5.18,-5.18,0.84
31.93,-11.08,-11.95,-11.08,-11.96,6.00,5.96,7.11,-5.08,-5.08,0.87
32.24,-10.98,-11.89,-10.98,-11.89,6.00,5.97,7.11,-4.98,-4.98,0.90
32.57,-10.89,-11.82,-10.88,-11.82,6.00,5.97,7.11,-4.89,-4.88,0.93
32.89,-10.78,-11.75,-10.79,-11.75,6.00,5.98,7.09,-4.78,-4.79,0.96
33.22,-10.69,-11.68,-10.69,-11.68,6.00,5.98,7.07,-4.69,-4.69,0.98
33.55,-10.59,-11.61,-10.60,-11.61,6.00,5.99,7.04,-4.59,-4.60,1.01
33.89,-10.50,-11.54,-10.50,-11.54,6.00,5.99,7.01,-4.50,-4.50,1.03
34.23,-10.42,-11.47,-10.41,-11.47,6.00,6.00,6.97,-4.42,-4.41,1.05
34.57,-10.32,-11.41,-10.33,-11.41,6.00,6.01,6.92,-4.32,-4.33,1.08
34.92,-10.24,-11.34,-10.23,-11.34,6.00,6.01,6.87,-4.24,-4.23,1.10
35.27,-10.15,-11.27,-10.15,-11.27,6.00,6.02,6.81,-4.15,-4.15,1.12
35.62,-10.06,-11.20,-10.06,-11.20,6.00,6.02,6.75,-4.06,-4.06,1.14
35.97,-9.97,-11.14,-9.97,-11.13,6.00,6.03,6.69,-3.97,-3.97,1.16
36.33,-9.88,-11.06,-9.88,-11.06,6.00,6.03,6.63,-3.88,-3.88,1.17
36.70,-9.79,-10.98,-9.79,-10.98,6.00,6.04,6.57,-3.79,-3.79,1.19
37.06,-9.70,-10.92,-9.70,-10.91,6.00,6.04,6.51,-3.70,-3.70,1.21
37.43,-9.61,-10.84,-9.62,-10.84,6.00,6.05,6.45,-3.61,-3.62,1.22
37.81,-9.53,-10.78,-9.53,-10.78,6.00,6.06,6.38,-3.53,-3.53,1.24
38.19,-9.46,-10.71,-9.45,-10.71,6.00,6.06,6.32,-3.46,-3.45,1.25
38.57,-9.37,-10.64,-9.37,-10.64,6.00,6.07,6.26,-3.37,-3.37,1.26
38.95,-9.29,-10.57,-9.29,-10.57,6.00,6.07,6.21,-3.29,-3.29,1.27
39.34,-9.20,-10.49,-9.21,-10.49,6.00,6.08,6.15,-3.20,-3.21,1.28
39.74,-9.13,-10.42,-9.12,-10.41,6.00,6.08,6.10,-3.13,-3.12,1.29
40.14,-9.04,-10.33,-9.04,-10.34,6.00,6.09,6.05,-3.04,-3.04,1.29
40.54,-8.96,-10.26,-8.96,-10.26,6.00,6.09,6.01,-2.96,-2.96,1.30
40.94,-8.87,-10.19,-8.87,-10.18,6.00,6.10,5.97,-2.87,-2.87,1.31
41.35,-8.79,-10.11,-8.79,-10.11,6.00,6.10,5.93,-2.79,-2.79,1.31
41.76,-8.71,-10.04,-8.72,-10.04,6.00,6.11,5.90,-2.71,-2.72,1.32
42.18,-8.64,-9.97,-8.64,-9.97,6.00,6.11,5.87,-2.64,-2.64,1.32
42.60,-8.56,-9.90,-8.56,-9.90,6.00,6.12,5.84,-2.56,-2.56,1.33
43.03,-8.48,-9.82,-8.49,-9.82,6.00,6.12,5.82,-2.48,-2.49,1.33
43.46,-8.41,-9.76,-8.41,-9.75,6.00,6.13,5.81,-2.41,-2.41,1.34
43.90,-8.34,-9.68,-8.33,-9.68,6.00,6.13,5.79,-2.34,-2.33,1.34
44.33,-8.25,-9.61,-8.26,-9.61,6.00,6.14,5.79,-2.25,-2.26,1.35
44.78,-8.18,-9.53,-8.17,-9.53,6.00,6.14,5.78,-2.18,-2.17,1.35
45.23,-8.10,-9.46,-8.10,-9.46,6.00,6.14,5.78,-2.10,-2.10,1.36
45.68,-8.02,-9.38,-8.02,-9.38,6.00,6.15,5.79,-2.02,-2.02,1.36
46.13,-7.94,-9.31,-7.94,-9.31,6.00,6.15,5.80,-1.94,-1.94,1.36
46.60,-7.87,-9.24,-7.87,-9.24,6.00,6.16,5.81,-1.87,-1.87,1.37
47.06,-7.79,-9.17,-7.80,-9.17,6.00,6.16,5.83,-1.79,-1.80,1.37
47.53,-7.72,-9.10,-7.72,-9.10,6.00,6.16,5.85,-1.72,-1.72,1.37
48.01,-7.65,-9.04,-7.65,-9.03,6.00,6.17,5.88,-1.65,-1.65,1.38
48.49,-7.58,-8.97,-7.58,-8.96,6.00,6.17,5.90,-1.58,-1.58,1.38
48.97,-7.50,-8.89,-7.51,-8.90,6.00,6.17,5.94,-1.50,-1.51,1.38
49.46,-7.43,-8.83,-7.44,-8.83,6.00,6.17,5.97,-1.43,-1.44,1.39
49.96,-7.38,-8.77,-7.37,-8.77,6.00,6.18,6.01,-1.38,-1.37,1.39
50.46,-7.31,-8.71,-7.30,-8.71,6.00,6.18,6.05,-1.31,-1.30,1.40
50.96,-7.23,-8.64,-7.23,-8.64,6.00,6.18,6.10,-1.23,-1.23,1.40
51.47,-7.15,-8.57,-7.15,-8.57,6.00,6.18,6.14,-1.15,-1.15,1.41
51.99,-7.08,-8.49,-7.08,-8.50,6.00,6.18,6.19,-1.08,-1.08,1.41
52.51,-7.02,-8.43,-7.01,-8.43,6.00,6.18,6.24,-1.02,-1.01,1.41
53.03,-6.95,-8.38,-6.95,-8.37,6.00,6.18,6.29,-0.95,-0.95,1.42
53.56,-6.88,-8.31,-6.89,-8.31,6.00,6.18,6.34,-0.88,-0.89,1.42
54.10,-6.82,-8.24,-6.82,-8.24,6.00,6.18,6.40,-0.82,-0.82,1.42
54.64,-6.75,-8.17,-6.74,-8.17,6.00,6.18,6.45,-0.75,-0.74,1.42
55.18,-6.67,-8.10,-6.67,-8.10,6.00,6.18,6.50,-0.67,-0.67,1.42
55.74,-6.61,-8.03,-6.60,-8.03,6.00,6.18,6.54,-0.61,-0.60,1.42
56.29,-6.53,-7.95,-6.53,-7.95,6.00,6.18,6.59,-0.53,-0.53,1.41
56.86,-6.47,-7.88,-6.47,-7.88,6.00,6.18,6.63,-0.47,-0.47,1.41
57.42,-6.39,-7.80,-6.39,-7.80,6.00,6.17,6.67,-0.39,-0.39,1.40
58.00,-6.32,-7.72,-6.32,-7.72,6.00,6.17,6.71,-0.32,-0.32,1.39
58.58,-6.24,-7.63,-6.25,-7.63,6.00,6.17,6.74,-0.24,-0.25,1.38
59.16,-6.17,-7.55,-6.18,-7.55,6.00,6.16,6.77,-0.17,-0.18,1.37
59.76,-6.11,-7.47,-6.10,-7.46,6.00,6.16,6.79,-0.11,-0.10,1.36
60.35,-6.03,-7.38,-6.03,-7.38,6.00,6.15,6.80,-0.03,-0.03,1.34
60.96,-5.96,-7.30,-5.96,-7.30,6.00,6.15,6.81,0.04,0.04,1.33
61.57,-5.90,-7.22,-5.89,-7.21,6.00,6.14,6.81,0.10,0.11,1.32
62.18,-5.82,-7.13,-5.83,-7.14,6.00,6.13,6.81,0.18,0.17,1.30
62.80,-5.77,-7.07,-5.77,-7.06,6.00,6.13,6.80,0.23,0.23,1.29
63.43,-5.71,-7.00,-5.71,-6.99,6.00,6.12,6.78,0.29,0.29,1.28
64.07,-5.65,-6.92,-5.65,-6.93,6.00,6.11,6.76,0.35,0.35,1.27
64.71,-5.59,-6.86,-5.59,-6.86,6.00,6.10,6.73,0.41,0.41,1.26
65.35,-5.53,-6.80,-5.54,-6.80,6.00,6.09,6.69,0.47,0.46,1.26
66.01,-5.48,-6.75,-5.48,-6.75,6.00,6.08,6.65,0.52,0.52,1.26
66.67,-5.43,-6.70,-5.44,-6.70,6.00,6.07,6.60,0.57,0.56,1.26
67.33,-5.38,-6.65,-5.39,-6.66,6.00,6.06,6.54,0.62,0.61,1.26
68.01,-5.34,-6.62,-5.34,-6.61,6.00,6.05,6.49,0.66,0.66,1.27
68.69,-5.28,-6.57,-5.28,-6.57,6.00,6.04,6.42,0.72,0.72,1.28
69.37,-5.22,-6.52,-5.23,-6.53,6.00,6.02,6.36,0.78,0.77,1.29
70.07,-5.18,-6.49,-5.18,-6.49,6.00,6.01,6.29,0.82,0.82,1.30
70.77,-5.13,-6.45,-5.14,-6.45,6.00,5.99,6.22,0.87,0.86,1.31
71.48,-5.09,-6.43,-5.09,-6.42,6.00,5.98,6.14,0.91,0.91,1.33
72.19,-5.04,-6.39,-5.04,-6.39,6.00,5.96,6.07,0.96,0.96,1.34
72.91,-4.99,-6.35,-4.99,-6.35,6.00,5.95,5.99,1.01,1.01,1.35
73.64,-4.93,-6.30,-4.94,-6.30,6.00,5.93,5.92,1.07,1.07,1.36
74.38,-4.88,-6.26,-4.88,-6.25,6.00,5.91,5.84,1.12,1.13,1.37
75.12,-4.81,-6.20,-4.82,-6.21,6.01,5.89,5.77,1.19,1.18,1.38
75.87,-4.77,-6.17,-4.77,-6.17,6.01,5.87,5.69,1.23,1.24,1.39
76.63,-4.72,-6.13,-4.72,-6.12,6.00,5.85,5.62,1.28,1.28,1.40
77.40,-4.67,-6.08,-4.67,-6.08,6.00,5.83,5.55,1.32,1.32,1.40
78.17,-4.62,-6.04,-4.62,-6.03,5.98,5.81,5.48,1.36,1.36,1.41
78.95,-4.55,-5.98,-4.56,-5.98,5.96,5.78,5.41,1.41,1.40,1.42
79.74,-4.50,-5.94,-4.50,-5.94,5.93,5.76,5.35,1.43,1.43,1.43
80.54,-4.44,-5.89,-4.45,-5.89,5.90,5.74,5.29,1.45,1.45,1.44
81.35,-4.39,-5.85,-4.40,-5.85,5.86,5.71,5.23,1.46,1.46,1.45
82.16,-4.35,-5.82,-4.35,-5.81,5.82,5.68,5.17,1.46,1.47,1.46
82.98,-4.29,-5.77,-4.29,-5.77,5.77,5.66,5.12,1.48,1.48,1.47
83.81,-4.22,-5.72,-4.23,-5.72,5.73,5.63,5.07,1.50,1.50,1.49
84.65,-4.16,-5.68,-4.17,-5.68,5.69,5.60,5.02,1.52,1.52,1.51
85.50,-4.11,-5.65,-4.11,-5.65,5.65,5.57,4.98,1.53,1.54,1.53
86.35,-4.05,-5.61,-4.06,-5.61,5.61,5.55,4.94,1.56,1.56,1.55
87.22,-4.00,-5.58,-4.00,-5.58,5.58,5.52,4.91,1.57,1.57,1.57
88.09,-3.94,-5.54,-3.95,-5.54,5.54,5.49,4.88,1.60,1.59,1.59
88.97,-3.89,-5.51,-3.89,-5.51,5.51,5.45,4.85,1.61,1.61,1.61
89.86,-3.84,-5.48,-3.84,-5.48,5.47,5.42,4.83,1.63,1.63,1.63
90.76,-3.78,-5.44,-3.79,-5.44,5.44,5.39,4.81,1.65,1.65,1.65
91.66,-3.73,-5.41,-3.73,-5.40,5.40,5.36,4.79,1.67,1.67,1.67
92.58,-3.67,-5.37,-3.67,-5.36,5.37,5.33,4.78,1.70,1.70,1.69
93.51,-3.61,-5.32,-3.62,-5.33,5.34,5.29,4.77,1.72,1.72,1.70
94.44,-3.57,-5.30,-3.58,-5.30,5.30,5.26,4.76,1.73,1.73,1.72
95.39,-3.53,-5.27,-3.54,-5.27,5.27,5.22,4.76,1.73,1.73,1.73
96.34,-3.50,-5.25,-3.50,-5.24,5.23,5.19,4.76,1.73,1.73,1.74
97.30,-3.45,-5.20,-3.45,-5.20,5.19,5.15,4.76,1.74,1.74,1.74
98.28,-3.40,-5.16,-3.41,-5.16,5.15,5.12,4.77,1.75,1.74,1.75
99.26,-3.35,-5.11,-3.36,-5.11,5.11,5.08,4.78,1.76,1.75,1.75
100.25,-3.31,-5.07,-3.31,-5.06,5.07,5.05,4.79,1.76,1.76,1.75
101.25,-3.26,-5.02,-3.26,-5.02,5.03,5.01,4.80,1.76,1.76,1.75
102.27,-3.21,-4.97,-3.23,-4.98,4.99,4.97,4.82,1.77,1.76,1.75
103.29,-3.19,-4.95,-3.19,-4.94,4.94,4.94,4.83,1.75,1.75,1.75
104.32,-3.16,-4.91,-3.16,-4.91,4.91,4.90,4.85,1.74,1.75,1.74
105.37,-3.12,-4.87,-3.13,-4.87,4.87,4.86,4.87,1.74,1.74,1.74
106.42,-3.09,-4.83,-3.10,-4.83,4.83,4.83,4.89,1.73,1.73,1.73
107.48,-3.06,-4.80,-3.06,-4.79,4.79,4.79,4.91,1.73,1.73,1.73
108.56,-3.02,-4.75,-3.03,-4.75,4.75,4.75,4.93,1.73,1.72,1.72
109.64,-2.98,-4.71,-2.99,-4.71,4.71,4.71,4.95,1.72,1.72,1.72
110.74,-2.95,-4.67,-2.95,-4.67,4.67,4.68,4.98,1.71,1.72,1.71
111.85,-2.91,-4.63,-2.91,-4.63,4.63,4.64,4.99,1.71,1.72,1.71
112.97,-2.86,-4.58,-2.87,-4.58,4.59,4.60,5.01,1.72,1.72,1.71
114.10,-2.82,-4.54,-2.82,-4.54,4.54,4.57,5.03,1.72,1.72,1.71
115.24,-2.77,-4.49,-2.79,-4.50,4.50,4.53,5.04,1.72,1.71,1.71
116.39,-2.75,-4.47,-2.75,-4.46,4.45,4.49,5.05,1.69,1.70,1.71
117.55,-2.70,-4.43,-2.70,-4.42,4.40,4.46,5.06,1.69,1.70,1.72
118.73,-2.63,-4.36,-2.63,-4.36,4.35,4.42,5.07,1.72,1.72,1.72
119.92,-2.56,-4.30,-2.57,-4.30,4.31,4.38,5.07,1.74,1.74,1.73
121.12,-2.49,-4.24,-2.51,-4.25,4.27,4.35,5.07,1.78,1.77,1.74
122.33,-2.46,-4.23,-2.46,-4.22,4.24,4.31,5.06,1.77,1.78,1.76
123.55,-2.42,-4.20,-2.42,-4.20,4.21,4.28,5.05,1.79,1.79,1.77
124.79,-2.39,-4.18,-2.40,-4.19,4.19,4.25,5.03,1.79,1.79,1.78
126.03,-2.37,-4.18,-2.38,-4.18,4.18,4.21,5.02,1.80,1.80,1.80
127.29,-2.36,-4.18,-2.36,-4.18,4.17,4.18,4.99,1.80,1.81,1.81
128.57,-2.34,-4.18,-2.34,-4.17,4.16,4.14,4.97,1.81,1.82,1.83
129.85,-2.30,-4.15,-2.31,-4.16,4.15,4.11,4.93,1.85,1.84,1.84
131.15,-2.27,-4.14,-2.28,-4.14,4.15,4.08,4.90,1.87,1.86,1.86
132.46,-2.26,-4.14,-2.26,-4.13,4.14,4.05,4.86,1.87,1.88,1.87
133.79,-2.23,-4.12,-2.24,-4.12,4.13,4.02,4.81,1.89,1.89,1.88
135.12,-2.21,-4.11,-2.21,-4.11,4.11,3.99,4.77,1.90,1.90,1.89
136.48,-2.19,-4.10,-2.19,-4.09,4.09,3.96,4.72,1.90,1.90,1.90
137.84,-2.15,-4.07,-2.17,-4.08,4.07,3.93,4.66,1.92,1.90,1.91
139.22,-2.14,-4.06,-2.14,-4.05,4.05,3.90,4.61,1.90,1.91,1.91
140.61,-2.11,-4.04,-2.10,-4.03,4.02,3.87,4.55,1.90,1.91,1.92
142.02,-2.05,-3.98,-2.07,-3.99,3.99,3.84,4.50,1.93,1.92,1.92
143.44,-2.02,-3.96,-2.02,-3.95,3.95,3.81,4.44,1.93,1.93,1.93
144.87,-1.97,-3.91,-1.98,-3.91,3.92,3.79,4.38,1.94,1.94,1.93
146.32,-1.93,-3.87,-1.94,-3.88,3.88,3.76,4.32,1.95,1.94,1.93
147.78,-1.90,-3.85,-1.90,-3.84,3.85,3.73,4.26,1.94,1.95,1.94
149.26,-1.86,-3.81,-1.87,-3.81,3.81,3.71,4.20,1.95,1.94,1.94
150.75,-1.83,-3.78,-1.84,-3.78,3.78,3.68,4.13,1.95,1.94,1.94
152.26,-1.81,-3.76,-1.81,-3.75,3.75,3.66,4.08,1.94,1.94,1.94
153.78,-1.78,-3.73,-1.78,-3.73,3.73,3.64,4.02,1.94,1.95,1.94
155.32,-1.75,-3.71,-1.76,-3.71,3.71,3.61,3.96,1.95,1.95,1.95
156.88,-1.72,-3.68,-1.73,-3.68,3.69,3.59,3.90,1.96,1.96,1.95
158.44,-1.71,-3.67,-1.71,-3.67,3.67,3.57,3.85,1.96,1.96,1.95
160.03,-1.69,-3.65,-1.70,-3.65,3.66,3.55,3.80,1.97,1.96,1.95
161.63,-1.68,-3.65,-1.69,-3.64,3.65,3.53,3.75,1.96,1.96,1.96
163.24,-1.67,-3.64,-1.67,-3.64,3.64,3.51,3.70,1.96,1.97,1.96
164.88,-1.66,-3.63,-1.67,-3.64,3.63,3.49,3.65,1.96,1.96,1.96
166.53,-1.65,-3.63,-1.65,-3.62,3.62,3.47,3.61,1.96,1.96,1.97
168.19,-1.64,-3.62,-1.64,-3.61,3.60,3.45,3.57,1.96,1.97,1.97
169.87,-1.60,-3.58,-1.61,-3.59,3.58,3.43,3.53,1.98,1.97,1.97
171.57,-1.58,-3.57,-1.58,-3.57,3.56,3.41,3.49,1.98,1.98,1.98
173.29,-1.55,-3.55,-1.55,-3.54,3.54,3.40,3.46,1.99,2.00,1.99
175.02,-1.50,-3.51,-1.51,-3.51,3.52,3.38,3.43,2.01,2.00,2.00
176.77,-1.47,-3.48,-1.48,-3.49,3.49,3.36,3.40,2.02,2.01,2.00
178.54,-1.45,-3.48,-1.45,-3.47,3.47,3.35,3.37,2.02,2.02,2.02
180.32,-1.42,-3.46,-1.42,-3.45,3.45,3.33,3.34,2.03,2.03,2.03
182.13,-1.39,-3.44,-1.39,-3.44,3.44,3.31,3.32,2.04,2.04,2.04
183.95,-1.36,-3.42,-1.37,-3.42,3.43,3.30,3.30,2.06,2.06,2.05
185.79,-1.34,-3.42,-1.35,-3.42,3.43,3.28,3.29,2.08,2.08,2.07
187.65,-1.33,-3.42,-1.34,-3.42,3.43,3.27,3.27,2.10,2.10,2.08
189.52,-1.33,-3.43,-1.34,-3.43,3.44,3.26,3.26,2.11,2.10,2.09
191.42,-1.34,-3.45,-1.34,-3.45,3.45,3.24,3.25,2.11,2.11,2.10
193.33,-1.35,-3.47,-1.35,-3.47,3.47,3.23,3.24,2.11,2.11,2.11
195.27,-1.36,-3.49,-1.37,-3.49,3.48,3.22,3.24,2.12,2.12,2.12
197.22,-1.37,-3.51,-1.37,-3.51,3.50,3.20,3.24,2.12,2.12,2.13
199.19,-1.37,-3.52,-1.37,-3.52,3.50,3.19,3.23,2.13,2.13,2.14
201.18,-1.36,-3.51,-1.37,-3.51,3.50,3.18,3.23,2.14,2.14,2.14
203.19,-1.35,-3.51,-1.35,-3.50,3.50,3.16,3.23,2.14,2.14,2.15
205.23,-1.32,-3.48,-1.33,-3.48,3.48,3.15,3.24,2.16,2.15,2.15
207.28,-1.30,-3.46,-1.30,-3.46,3.46,3.14,3.24,2.15,2.16,2.15
209.35,-1.26,-3.43,-1.27,-3.43,3.43,3.13,3.25,2.17,2.16,2.16
211.44,-1.23,-3.40,-1.24,-3.40,3.40,3.12,3.25,2.17,2.16,2.16
213.56,-1.20,-3.37,-1.20,-3.37,3.37,3.10,3.26,2.16,2.17,2.16
215.69,-1.16,-3.34,-1.17,-3.34,3.34,3.09,3.27,2.17,2.17,2.17
217.85,-1.12,-3.30,-1.13,-3.30,3.31,3.08,3.27,2.18,2.17,2.17
220.03,-1.10,-3.28,-1.10,-3.28,3.28,3.07,3.28,2.17,2.18,2.17
222.23,-1.07,-3.25,-1.07,-3.25,3.26,3.06,3.29,2.18,2.18,2.17
224.45,-1.05,-3.23,-1.05,-3.23,3.24,3.05,3.30,2.18,2.18,2.17
226.70,-1.03,-3.21,-1.04,-3.21,3.22,3.04,3.30,2.19,2.19,2.17
228.96,-1.03,-3.21,-1.03,-3.21,3.21,3.03,3.31,2.18,2.18,2.17
231.25,-1.03,-3.21,-1.03,-3.20,3.20,3.01,3.31,2.17,2.17,2.17
233.57,-1.03,-3.20,-1.03,-3.20,3.19,3.00,3.31,2.16,2.16,2.16
235.90,-1.02,-3.19,-1.03,-3.19,3.18,2.99,3.31,2.15,2.15,2.16
238.26,-1.01,-3.17,-1.01,-3.17,3.16,2.98,3.31,2.15,2.15,2.15
240.64,-0.99,-3.15,-1.00,-3.15,3.14,2.97,3.31,2.14,2.14,2.15
243.05,-0.97,-3.12,-0.97,-3.12,3.11,2.96,3.30,2.14,2.14,2.14
245.48,-0.94,-3.08,-0.94,-3.08,3.08,2.94,3.29,2.13,2.13,2.13
247.93,-0.90,-3.04,-0.91,-3.04,3.04,2.93,3.28,2.14,2.13,2.13
250.41,-0.87,-3.00,-0.87,-3.00,3.00,2.92,3.27,2.13,2.13,2.12
252.92,-0.83,-2.96,-0.84,-2.96,2.96,2.91,3.26,2.13,2.12,2.12
255.45,-0.80,-2.92,-0.80,-2.92,2.92,2.90,3.24,2.12,2.12,2.11
258.00,-0.77,-2.89,-0.77,-2.89,2.89,2.88,3.22,2.11,2.11,2.11
260.58,-0.74,-2.85,-0.75,-2.85,2.85,2.87,3.20,2.11,2.11,2.10
263.19,-0.72,-2.83,-0.72,-2.82,2.83,2.86,3.17,2.10,2.11,2.10
265.82,-0.69,-2.80,-0.70,-2.80,2.81,2.84,3.15,2.11,2.11,2.10
268.48,-0.68,-2.78,-0.69,-2.78,2.79,2.83,3.12,2.11,2.10,2.09
271.16,-0.68,-2.78,-0.68,-2.77,2.78,2.82,3.09,2.10,2.10,2.09
273.87,-0.68,-2.77,-0.69,-2.77,2.78,2.80,3.06,2.10,2.09,2.08
276.61,-0.69,-2.77,-0.70,-2.78,2.78,2.79,3.02,2.09,2.08,2.07
279.38,-0.71,-2.79,-0.71,-2.78,2.78,2.77,2.99,2.07,2.07,2.07
282.17,-0.72,-2.79,-0.73,-2.79,2.78,2.76,2.96,2.06,2.05,2.06
284.99,-0.73,-2.79,-0.73,-2.79,2.78,2.74,2.92,2.04,2.04,2.05
287.84,-0.73,-2.78,-0.73,-2.78,2.77,2.73,2.88,2.03,2.03,2.04
290.72,-0.72,-2.76,-0.72,-2.76,2.75,2.71,2.85,2.03,2.03,2.03
293.63,-0.70,-2.73,-0.71,-2.73,2.73,2.69,2.81,2.02,2.02,2.02
296.57,-0.68,-2.70,-0.68,-2.70,2.70,2.68,2.77,2.01,2.02,2.01
299.53,-0.65,-2.66,-0.66,-2.66,2.66,2.66,2.74,2.01,2.00,2.00
302.53,-0.63,-2.63,-0.63,-2.63,2.62,2.64,2.70,1.99,1.99,1.99
305.55,-0.60,-2.59,-0.60,-2.58,2.58,2.62,2.67,1.98,1.98,1.98
308.61,-0.56,-2.54,-0.57,-2.54,2.54,2.61,2.63,1.98,1.97,1.97
311.69,-0.52,-2.49,-0.53,-2.49,2.50,2.59,2.60,1.97,1.97,1.96
314.81,-0.50,-2.46,-0.50,-2.46,2.46,2.57,2.57,1.95,1.96,1.95
317.96,-0.47,-2.42,-0.47,-2.42,2.42,2.55,2.54,1.94,1.94,1.94
321.14,-0.44,-2.39,-0.44,-2.38,2.38,2.53,2.51,1.94,1.94,1.94
324.35,-0.41,-2.35,-0.41,-2.35,2.35,2.51,2.48,1.94,1.94,1.93
327.59,-0.38,-2.32,-0.39,-2.32,2.33,2.49,2.45,1.94,1.94,1.93
330.87,-0.37,-2.30,-0.37,-2.30,2.31,2.47,2.43,1.93,1.94,1.92
334.18,-0.36,-2.29,-0.36,-2.29,2.29,2.45,2.40,1.93,1.93,1.92
337.52,-0.35,-2.28,-0.36,-2.28,2.29,2.44,2.38,1.93,1.93,1.92
340.90,-0.36,-2.28,-0.36,-2.28,2.28,2.42,2.36,1.92,1.92,1.91
344.30,-0.37,-2.29,-0.37,-2.29,2.28,2.40,2.34,1.91,1.91,1.91
347.75,-0.38,-2.30,-0.38,-2.29,2.29,2.38,2.32,1.90,1.91,1.91
351.23,-0.38,-2.30,-0.39,-2.30,2.29,2.37,2.31,1.91,1.91,1.91
354.74,-0.38,-2.30,-0.39,-2.30,2.30,2.35,2.30,1.91,1.91,1.91
358.28,-0.38,-2.30,-0.38,-2.30,2.30,2.33,2.28,1.91,1.91,1.91
361.87,-0.38,-2.30,-0.38,-2.30,2.30,2.32,2.27,1.92,1.92,1.91
365.49,-0.38,-2.30,-0.38,-2.30,2.30,2.31,2.27,1.92,1.92,1.91
369.14,-0.38,-2.30,-0.38,-2.30,2.30,2.29,2.26,1.92,1.92,1.91
372.83,-0.38,-2.31,-0.38,-2.30,2.30,2.28,2.25,1.92,1.92,1.92
376.56,-0.38,-2.31,-0.38,-2.30,2.30,2.27,2.25,1.92,1.92,1.92
380.33,-0.38,-2.30,-0.38,-2.30,2.30,2.26,2.25,1.92,1.92,1.91
384.13,-0.38,-2.30,-0.38,-2.30,2.30,2.25,2.25,1.92,1.92,1.91
387.97,-0.38,-2.30,-0.38,-2.30,2.30,2.25,2.25,1.92,1.92,1.91
391.85,-0.38,-2.30,-0.38,-2.30,2.30,2.24,2.25,1.91,1.91,1.91
395.77,-0.38,-2.30,-0.38,-2.30,2.30,2.23,2.26,1.91,1.91,1.91
399.73,-0.38,-2.29,-0.38,-2.29,2.29,2.23,2.26,1.91,1.91,1.90
403.72,-0.38,-2.29,-0.38,-2.29,2.29,2.23,2.27,1.90,1.90,1.90
407.76,-0.38,-2.28,-0.38,-2.28,2.28,2.22,2.27,1.90,1.90,1.89
411.84,-0.38,-2.28,-0.38,-2.28,2.27,2.22,2.28,1.89,1.89,1.89
415.96,-0.38,-2.27,-0.38,-2.27,2.27,2.22,2.29,1.88,1.88,1.88
420.12,-0.38,-2.26,-0.38,-2.26,2.26,2.22,2.30,1.87,1.87,1.87
424.32,-0.38,-2.24,-0.38,-2.24,2.24,2.22,2.31,1.86,1.86,1.85
428.56,-0.38,-2.23,-0.38,-2.23,2.23,2.21,2.32,1.84,1.84,1.84
432.85,-0.38,-2.22,-0.38,-2.21,2.21,2.21,2.33,1.83,1.83,1.83
437.18,-0.38,-2.20,-0.38,-2.20,2.20,2.21,2.34,1.81,1.81,1.81
441.55,-0.38,-2.18,-0.38,-2.18,2.18,2.21,2.35,1.80,1.80,1.79
445.96,-0.38,-2.17,-0.38,-2.16,2.17,2.21,2.36,1.78,1.78,1.78
450.42,-0.38,-2.15,-0.38,-2.15,2.15,2.21,2.36,1.77,1.77,1.76
454.93,-0.38,-2.13,-0.38,-2.13,2.13,2.21,2.37,1.75,1.75,1.74
459.48,-0.38,-2.12,-0.39,-2.12,2.12,2.21,2.38,1.73,1.73,1.73
464.07,-0.38,-2.10,-0.38,-2.10,2.10,2.21,2.38,1.71,1.71,1.71
468.71,-0.38,-2.09,-0.38,-2.08,2.08,2.21,2.38,1.69,1.70,1.70
473.40,-0.37,-2.06,-0.38,-2.06,2.06,2.21,2.39,1.68,1.68,1.68
