frequency,raw,error,smoothed,error_smoothed,equalization,parametric_eq,fixed_band_eq,equalized_raw,equalized_smoothed,target
20.00,-3.35,-4.35,-3.35,-4.36,4.36,4.14,1.22,1.00,1.00,1.00
20.20,-3.28,-4.32,-3.28,-4.33,4.33,4.15,1.26,1.04,1.04,1.04
20.40,-3.22,-4.30,-3.22,-4.29,4.29,4.16,1.30,1.07,1.08,1.08
20.61,-3.15,-4.25,-3.15,-4.26,4.26,4.17,1.34,1.11,1.11,1.10
20.81,-3.08,-4.22,-3.08,-4.23,4.22,4.17,1.38,1.14,1.14,1.14
21.02,-3.01,-4.19,-3.02,-4.19,4.19,4.17,1.43,1.17,1.17,1.18
21.23,-2.96,-4.15,-2.96,-4.15,4.15,4.16,1.47,1.18,1.19,1.19
21.44,-2.90,-4.11,-2.90,-4.11,4.10,4.15,1.52,1.20,1.21,1.21
21.66,-2.84,-4.06,-2.84,-4.06,4.06,4.14,1.57,1.22,1.22,1.22
21.87,-2.78,-4.00,-2.78,-4.01,4.01,4.12,1.61,1.23,1.23,1.22
22.09,-2.73,-3.96,-2.73,-3.96,3.96,4.10,1.66,1.23,1.23,1.23
22.31,-2.68,-3.91,-2.68,-3.91,3.91,4.07,1.72,1.23,1.23,1.23
22.54,-2.64,-3.87,-2.64,-3.86,3.86,4.05,1.77,1.22,1.22,1.23
22.76,-2.59,-3.81,-2.59,-3.81,3.81,4.01,1.82,1.22,1.22,1.22
22.99,-2.54,-3.75,-2.55,-3.76,3.76,3.98,1.88,1.22,1.21,1.21
23.22,-2.50,-3.71,-2.50,-3.70,3.71,3.94,1.94,1.21,1.21,1.21
23.45,-2.45,-3.65,-2.45,-3.65,3.66,3.90,1.99,1.21,1.21,1.20
23.69,-2.41,-3.61,-2.41,-3.61,3.61,3.86,2.05,1.20,1.20,1.20
23.92,-2.36,-3.56,-2.36,-3.56,3.57,3.81,2.11,1.20,1.20,1.20
24.16,-2.32,-3.53,-2.32,-3.52,3.52,3.76,2.18,1.20,1.20,1.21
24.40,-2.27,-3.48,-2.27,-3.48,3.47,3.71,2.24,1.20,1.20,1.21
24.65,-2.23,-3.43,-2.23,-3.43,3.42,3.66,2.30,1.19,1.19,1.20
24.89,-2.18,-3.38,-2.18,-3.38,3.37,3.60,2.37,1.19,1.19,1.19
25.14,-2.13,-3.33,-2.13,-3.33,3.32,3.55,2.43,1.19,1.19,1.19
25.39,-2.08,-3.28,-2.08,-3.27,3.27,3.49,2.50,1.19,1.19,1.19
25.65,-2.03,-3.22,-2.03,-3.21,3.23,3.44,2.56,1.19,1.20,1.18
25.91,-1.98,-3.16,-1.98,-3.16,3.18,3.38,2.63,1.20,1.20,1.17
26.16,-1.94,-3.11,-1.95,-3.12,3.14,3.32,2.69,1.20,1.19,1.17
26.43,-1.92,-3.09,-1.92,-3.09,3.09,3.26,2.75,1.17,1.17,1.17
26.69,-1.90,-3.07,-1.90,-3.07,3.05,3.20,2.82,1.15,1.15,1.17
26.96,-1.87,-3.03,-1.87,-3.03,3.01,3.14,2.88,1.14,1.14,1.16
27.23,-1.82,-2.98,-1.82,-2.98,2.97,3.08,2.94,1.14,1.14,1.16
27.50,-1.77,-2.93,-1.77,-2.93,2.93,3.02,3.00,1.15,1.16,1.16
27.77,-1.71,-2.86,-1.72,-2.87,2.88,2.96,3.05,1.17,1.17,1.15
28.05,-1.67,-2.82,-1.67,-2.82,2.84,2.89,3.11,1.17,1.17,1.15
28.33,-1.64,-2.78,-1.64,-2.78,2.79,2.83,3.16,1.15,1.15,1.14
28.62,-1.61,-2.75,-1.62,-2.75,2.75,2.78,3.21,1.13,1.13,1.14
28.90,-1.59,-2.73,-1.58,-2.72,2.70,2.72,3.25,1.11,1.12,1.13
29.19,-1.54,-2.68,-1.54,-2.67,2.66,2.66,3.29,1.11,1.12,1.13
29.48,-1.48,-2.62,-1.48,-2.62,2.61,2.60,3.32,1.13,1.13,1.14
29.78,-1.42,-2.56,-1.43,-2.56,2.57,2.54,3.35,1.15,1.15,1.13
30.08,-1.37,-2.51,-1.38,-2.51,2.53,2.48,3.38,1.16,1.15,1.14
30.38,-1.35,-2.47,-1.35,-2.47,2.49,2.43,3.40,1.13,1.14,1.12
30.68,-1.32,-2.44,-1.32,-2.44,2.44,2.37,3.41,1.12,1.12,1.12
30.99,-1.29,-2.40,-1.29,-2.40,2.40,2.32,3.42,1.11,1.11,1.11
31.30,-1.26,-2.37,-1.26,-2.37,2.36,2.27,3.42,1.10,1.10,1.11
31.61,-1.23,-2.34,-1.24,-2.33,2.33,2.21,3.42,1.09,1.09,1.11
31.93,-1.21,-2.30,-1.21,-2.30,2.29,2.16,3.41,1.08,1.08,1.08
32.24,-1.17,-2.24,-1.17,-2.25,2.25,2.11,3.39,1.08,1.07,1.07
32.57,-1.14,-2.21,-1.14,-2.21,2.21,2.06,3.37,1.06,1.07,1.07
32.89,-1.10,-2.16,-1.10,-2.16,2.16,2.01,3.34,1.06,1.06,1.06
33.22,-1.07,-2.11,-1.07,-2.12,2.12,1.96,3.31,1.04,1.04,1.04
33.55,-1.04,-2.08,-1.04,-2.07,2.07,1.92,3.28,1.03,1.03,1.04
33.89,-1.01,-2.03,-1.01,-2.03,2.03,1.87,3.24,1.01,1.02,1.02
34.23,-0.98,-2.00,-0.98,-1.98,1.99,1.82,3.19,1.00,1.01,1.01
34.57,-0.94,-1.93,-0.94,-1.94,1.95,1.78,3.14,1.01,1.01,0.99
34.92,-0.91,-1.89,-0.92,-1.90,1.92,1.74,3.09,1.01,1.00,0.98
35.27,-0.90,-1.88,-0.91,-1.88,1.89,1.69,3.03,0.98,0.98,0.98
35.62,-0.90,-1.86,-0.90,-1.86,1.85,1.65,2.98,0.95,0.95,0.96
35.97,-0.90,-1.85,-0.89,-1.84,1.82,1.61,2.92,0.92,0.93,0.94
36.33,-0.87,-1.81,-0.87,-1.81,1.79,1.57,2.85,0.92,0.92,0.94
36.70,-0.84,-1.77,-0.84,-1.77,1.76,1.53,2.79,0.92,0.92,0.93
37.06,-0.80,-1.72,-0.80,-1.73,1.73,1.49,2.72,0.93,0.93,0.92
37.43,-0.77,-1.70,-0.77,-1.69,1.70,1.46,2.66,0.93,0.93,0.92
37.81,-0.74,-1.65,-0.74,-1.65,1.67,1.42,2.59,0.93,0.93,0.91
38.19,-0.72,-1.62,-0.73,-1.63,1.64,1.38,2.52,0.92,0.91,0.90
38.57,-0.71,-1.62,-0.72,-1.62,1.61,1.35,2.46,0.89,0.89,0.91
38.95,-0.71,-1.61,-0.70,-1.60,1.58,1.31,2.39,0.87,0.88,0.89
39.34,-0.68,-1.57,-0.68,-1.57,1.56,1.28,2.32,0.87,0.88,0.89
39.74,-0.64,-1.52,-0.65,-1.53,1.54,1.25,2.25,0.89,0.89,0.88
40.14,-0.61,-1.49,-0.62,-1.50,1.52,1.22,2.19,0.91,0.90,0.87
40.54,-0.61,-1.48,-0.61,-1.48,1.50,1.18,2.12,0.89,0.89,0.87
40.94,-0.61,-1.48,-0.61,-1.47,1.48,1.15,2.06,0.87,0.87,0.87
41.35,-0.61,-1.47,-0.61,-1.47,1.46,1.12,1.99,0.85,0.84,0.85
41.76,-0.61,-1.45,-0.61,-1.45,1.43,1.09,1.93,0.82,0.82,0.84
42.18,-0.59,-1.43,-0.59,-1.43,1.40,1.07,1.87,0.81,0.81,0.84
42.60,-0.56,-1.38,-0.56,-1.39,1.36,1.04,1.81,0.80,0.80,0.82
43.03,-0.52,-1.34,-0.52,-1.33,1.32,1.01,1.75,0.80,0.80,0.82
43.46,-0.47,-1.27,-0.47,-1.27,1.28,0.98,1.69,0.81,0.80,0.79
43.90,-0.43,-1.20,-0.44,-1.21,1.24,0.96,1.64,0.80,0.79,0.77
44.33,-0.42,-1.18,-0.42,-1.17,1.20,0.93,1.58,0.77,0.77,0.75
44.78,-0.42,-1.15,-0.42,-1.15,1.16,0.91,1.53,0.74,0.74,0.73
45.23,-0.42,-1.14,-0.42,-1.14,1.14,0.88,1.47,0.71,0.72,0.71
45.68,-0.42,-1.12,-0.42,-1.12,1.12,0.86,1.42,0.70,0.70,0.70
46.13,-0.42,-1.11,-0.42,-1.11,1.11,0.83,1.37,0.69,0.69,0.68
46.60,-0.42,-1.10,-0.42,-1.10,1.10,0.81,1.32,0.68,0.68,0.68
47.06,-0.42,-1.09,-0.42,-1.09,1.09,0.79,1.28,0.67,0.67,0.67
47.53,-0.42,-1.09,-0.42,-1.09,1.08,0.77,1.23,0.66,0.66,0.67
48.01,-0.42,-1.08,-0.43,-1.08,1.06,0.74,1.18,0.64,0.64,0.66
48.49,-0.42,-1.07,-0.42,-1.07,1.04,0.72,1.14,0.62,0.62,0.64
48.97,-0.42,-1.05,-0.40,-1.03,1.02,0.70,1.10,0.60,0.62,0.63
49.46,-0.37,-0.99,-0.37,-0.99,1.00,0.68,1.05,0.62,0.62,0.62
49.96,-0.32,-0.92,-0.34,-0.95,0.97,0.66,1.01,0.65,0.63,0.60
50.46,-0.32,-0.94,-0.32,-0.93,0.95,0.64,0.97,0.63,0.63,0.61
50.96,-0.32,-0.93,-0.32,-0.92,0.93,0.62,0.94,0.61,0.62,0.61
51.47,-0.32,-0.92,-0.32,-0.92,0.92,0.60,0.90,0.60,0.60,0.60
51.99,-0.32,-0.91,-0.32,-0.92,0.91,0.58,0.86,0.59,0.59,0.59
52.51,-0.32,-0.91,-0.32,-0.91,0.91,0.57,0.82,0.58,0.58,0.59
53.03,-0.32,-0.91,-0.32,-0.91,0.90,0.55,0.79,0.58,0.58,0.59
53.56,-0.32,-0.90,-0.32,-0.91,0.90,0.53,0.76,0.58,0.58,0.58
54.10,-0.32,-0.89,-0.32,-0.90,0.90,0.51,0.72,0.58,0.58,0.57
54.64,-0.32,-0.89,-0.32,-0.89,0.89,0.49,0.69,0.57,0.57,0.57
55.18,-0.32,-0.88,-0.32,-0.88,0.88,0.48,0.66,0.56,0.56,0.56
55.74,-0.32,-0.87,-0.32,-0.88,0.88,0.46,0.63,0.55,0.55,0.55
56.29,-0.32,-0.87,-0.32,-0.87,0.87,0.44,0.60,0.54,0.54,0.55
56.86,-0.32,-0.85,-0.32,-0.85,0.86,0.43,0.57,0.53,0.53,0.53
57.42,-0.32,-0.84,-0.32,-0.84,0.84,0.41,0.54,0.52,0.52,0.52
58.00,-0.32,-0.83,-0.32,-0.83,0.83,0.40,0.51,0.51,0.51,0.50
58.58,-0.32,-0.81,-0.32,-0.81,0.81,0.38,0.49,0.49,0.49,0.49
59.16,-0.32,-0.80,-0.32,-0.80,0.79,0.36,0.46,0.47,0.47,0.48
59.76,-0.32,-0.78,-0.32,-0.78,0.77,0.35,0.44,0.45,0.45,0.45
60.35,-0.32,-0.75,-0.32,-0.75,0.75,0.33,0.41,0.42,0.42,0.43
60.96,-0.32,-0.73,-0.32,-0.72,0.72,0.32,0.39,0.40,0.40,0.41
61.57,-0.32,-0.68,-0.32,-0.69,0.69,0.30,0.36,0.36,0.36,0.36
62.18,-0.32,-0.65,-0.32,-0.65,0.65,0.29,0.34,0.33,0.33,0.33
62.80,-0.32,-0.61,-0.32,-0.61,0.62,0.28,0.32,0.29,0.29,0.29
63.43,-0.32,-0.57,-0.32,-0.57,0.58,0.26,0.30,0.26,0.26,0.25
64.07,-0.32,-0.54,-0.32,-0.54,0.54,0.25,0.28,0.22,0.22,0.22
64.71,-0.32,-0.50,-0.32,-0.50,0.51,0.23,0.26,0.18,0.18,0.18
65.35,-0.32,-0.47,-0.32,-0.47,0.47,0.22,0.24,0.15,0.15,0.15
66.01,-0.32,-0.43,-0.32,-0.43,0.43,0.20,0.22,0.11,0.11,0.11
66.67,-0.32,-0.40,-0.32,-0.40,0.40,0.19,0.20,0.07,0.07,0.07
67.33,-0.32,-0.37,-0.32,-0.36,0.36,0.18,0.18,0.04,0.04,0.04
68.01,-0.32,-0.33,-0.32,-0.32,0.32,0.16,0.16,0.00,0.00,0.00
68.69,-0.32,-0.28,-0.32,-0.28,0.29,0.15,0.15,-0.04,-0.04,-0.04
69.37,-0.32,-0.24,-0.32,-0.24,0.25,0.14,0.13,-0.08,-0.08,-0.08
70.07,-0.32,-0.20,-0.32,-0.20,0.21,0.12,0.11,-0.12,-0.12,-0.12
70.77,-0.32,-0.17,-0.32,-0.17,0.16,0.11,0.09,-0.16,-0.16,-0.15
71.48,-0.32,-0.13,-0.32,-0.13,0.12,0.10,0.08,-0.20,-0.20,-0.20
72.19,-0.32,-0.08,-0.32,-0.08,0.08,0.08,0.06,-0.25,-0.25,-0.24
72.91,-0.32,-0.03,-0.32,-0.03,0.03,0.07,0.04,-0.29,-0.29,-0.29
73.64,-0.32,0.02,-0.32,0.02,-0.01,0.06,0.03,-0.34,-0.34,-0.34
74.38,-0.32,0.06,-0.32,0.06,-0.06,0.04,0.01,-0.38,-0.38,-0.38
75.12,-0.32,0.11,-0.32,0.11,-0.11,0.03,-0.00,-0.43,-0.43,-0.43
75.87,-0.32,0.14,-0.32,0.15,-0.15,0.02,-0.02,-0.47,-0.47,-0.47
76.63,-0.32,0.18,-0.32,0.18,-0.19,0.00,-0.04,-0.51,-0.51,-0.50
77.40,-0.32,0.22,-0.32,0.22,-0.22,-0.01,-0.05,-0.54,-0.54,-0.54
78.17,-0.32,0.26,-0.32,0.26,-0.25,-0.02,-0.07,-0.57,-0.56,-0.58
78.95,-0.32,0.29,-0.32,0.29,-0.27,-0.04,-0.09,-0.59,-0.59,-0.61
79.74,-0.32,0.32,-0.34,0.30,-0.29,-0.05,-0.10,-0.61,-0.63,-0.64
80.54,-0.37,0.30,-0.38,0.29,-0.30,-0.06,-0.12,-0.67,-0.68,-0.67
81.35,-0.42,0.28,-0.40,0.30,-0.31,-0.08,-0.14,-0.73,-0.71,-0.70
82.16,-0.43,0.30,-0.42,0.31,-0.31,-0.09,-0.15,-0.75,-0.73,-0.73
82.98,-0.40,0.35,-0.44,0.32,-0.32,-0.11,-0.17,-0.72,-0.75,-0.75
83.81,-0.46,0.33,-0.46,0.33,-0.32,-0.12,-0.19,-0.79,-0.78,-0.79
84.65,-0.50,0.33,-0.49,0.33,-0.34,-0.13,-0.21,-0.84,-0.83,-0.83
85.50,-0.52,0.33,-0.52,0.34,-0.35,-0.15,-0.22,-0.88,-0.87,-0.85
86.35,-0.52,0.36,-0.53,0.36,-0.38,-0.16,-0.24,-0.90,-0.90,-0.88
87.22,-0.52,0.40,-0.52,0.39,-0.40,-0.18,-0.26,-0.92,-0.92,-0.92
88.09,-0.52,0.43,-0.52,0.43,-0.43,-0.19,-0.28,-0.95,-0.95,-0.95
88.97,-0.51,0.47,-0.52,0.47,-0.47,-0.20,-0.30,-0.98,-0.98,-0.98
89.86,-0.51,0.50,-0.51,0.50,-0.50,-0.22,-0.32,-1.02,-1.02,-1.02
90.76,-0.51,0.54,-0.51,0.54,-0.54,-0.23,-0.34,-1.05,-1.05,-1.05
91.66,-0.51,0.57,-0.51,0.57,-0.57,-0.25,-0.36,-1.09,-1.09,-1.08
92.58,-0.51,0.60,-0.51,0.60,-0.60,-0.26,-0.38,-1.11,-1.11,-1.11
93.51,-0.51,0.63,-0.51,0.63,-0.62,-0.28,-0.40,-1.13,-1.12,-1.14
94.44,-0.51,0.66,-0.53,0.64,-0.62,-0.29,-0.42,-1.14,-1.15,-1.17
95.39,-0.55,0.65,-0.56,0.64,-0.62,-0.31,-0.44,-1.18,-1.18,-1.20
96.34,-0.62,0.61,-0.60,0.63,-0.62,-0.32,-0.46,-1.24,-1.22,-1.24
97.30,-0.64,0.62,-0.66,0.61,-0.61,-0.34,-0.48,-1.26,-1.27,-1.26
98.28,-0.70,0.59,-0.70,0.59,-0.61,-0.35,-0.50,-1.31,-1.31,-1.29
99.26,-0.74,0.57,-0.73,0.58,-0.61,-0.37,-0.52,-1.35,-1.34,-1.31
100.25,-0.75,0.59,-0.76,0.58,-0.61,-0.38,-0.54,-1.36,-1.37,-1.34
101.25,-0.77,0.60,-0.77,0.60,-0.61,-0.40,-0.56,-1.38,-1.38,-1.37
102.27,-0.78,0.62,-0.78,0.62,-0.62,-0.41,-0.59,-1.40,-1.40,-1.40
103.29,-0.80,0.65,-0.80,0.64,-0.62,-0.43,-0.61,-1.43,-1.43,-1.45
104.32,-0.82,0.65,-0.82,0.66,-0.63,-0.44,-0.63,-1.45,-1.45,-1.47
105.37,-0.84,0.67,-0.85,0.66,-0.64,-0.46,-0.65,-1.48,-1.48,-1.51
106.42,-0.88,0.65,-0.90,0.64,-0.64,-0.47,-0.67,-1.52,-1.54,-1.54
107.48,-0.96,0.61,-0.96,0.62,-0.63,-0.49,-0.69,-1.59,-1.59,-1.58
108.56,-1.03,0.58,-1.00,0.62,-0.62,-0.50,-0.71,-1.66,-1.62,-1.62
109.64,-1.03,0.62,-1.04,0.61,-0.61,-0.52,-0.73,-1.65,-1.66,-1.65
110.74,-1.04,0.64,-1.08,0.61,-0.61,-0.53,-0.74,-1.65,-1.69,-1.68
111.85,-1.14,0.57,-1.12,0.60,-0.60,-0.55,-0.76,-1.74,-1.72,-1.71
112.97,-1.17,0.59,-1.16,0.59,-0.60,-0.56,-0.78,-1.77,-1.76,-1.76
114.10,-1.18,0.60,-1.19,0.60,-0.60,-0.57,-0.79,-1.79,-1.79,-1.78
115.24,-1.19,0.63,-1.20,0.61,-0.61,-0.59,-0.81,-1.80,-1.81,-1.82
116.39,-1.22,0.62,-1.23,0.61,-0.62,-0.60,-0.82,-1.84,-1.85,-1.85
117.55,-1.27,0.60,-1.26,0.62,-0.63,-0.62,-0.83,-1.90,-1.88,-1.87
118.73,-1.28,0.62,-1.26,0.63,-0.64,-0.63,-0.84,-1.92,-1.90,-1.90
119.92,-1.24,0.67,-1.26,0.65,-0.64,-0.64,-0.85,-1.89,-1.91,-1.91
121.12,-1.25,0.68,-1.27,0.66,-0.65,-0.65,-0.86,-1.90,-1.92,-1.94
122.33,-1.31,0.64,-1.29,0.65,-0.65,-0.67,-0.86,-1.96,-1.94,-1.95
123.55,-1.33,0.63,-1.32,0.65,-0.64,-0.68,-0.86,-1.97,-1.96,-1.96
124.79,-1.33,0.65,-1.34,0.64,-0.63,-0.69,-0.87,-1.96,-1.97,-1.98
126.03,-1.35,0.65,-1.36,0.63,-0.62,-0.70,-0.87,-1.97,-1.99,-2.00
127.29,-1.40,0.61,-1.41,0.61,-0.61,-0.71,-0.87,-2.01,-2.02,-2.01
128.57,-1.46,0.57,-1.45,0.58,-0.60,-0.72,-0.86,-2.06,-2.05,-2.04
129.85,-1.49,0.56,-1.48,0.57,-0.60,-0.73,-0.86,-2.09,-2.08,-2.05
131.15,-1.49,0.57,-1.49,0.57,-0.59,-0.74,-0.85,-2.08,-2.08,-2.06
132.46,-1.48,0.59,-1.48,0.59,-0.58,-0.74,-0.85,-2.07,-2.07,-2.08
133.79,-1.48,0.60,-1.49,0.60,-0.58,-0.75,-0.84,-2.06,-2.06,-2.08
135.12,-1.50,0.61,-1.51,0.59,-0.56,-0.75,-0.83,-2.07,-2.07,-2.11
136.48,-1.55,0.56,-1.55,0.57,-0.55,-0.76,-0.81,-2.10,-2.10,-2.11
137.84,-1.59,0.54,-1.59,0.55,-0.53,-0.76,-0.80,-2.13,-2.12,-2.13
139.22,-1.63,0.53,-1.64,0.52,-0.52,-0.77,-0.79,-2.15,-2.15,-2.16
140.61,-1.67,0.51,-1.68,0.49,-0.50,-0.77,-0.77,-2.17,-2.18,-2.18
142.02,-1.73,0.45,-1.72,0.47,-0.48,-0.77,-0.76,-2.21,-2.20,-2.18
143.44,-1.74,0.45,-1.74,0.46,-0.48,-0.77,-0.74,-2.22,-2.22,-2.20
144.87,-1.75,0.47,-1.75,0.47,-0.48,-0.77,-0.73,-2.23,-2.23,-2.22
146.32,-1.75,0.50,-1.75,0.49,-0.49,-0.77,-0.71,-2.25,-2.25,-2.25
147.78,-1.75,0.52,-1.76,0.52,-0.52,-0.77,-0.69,-2.27,-2.28,-2.28
149.26,-1.76,0.55,-1.76,0.56,-0.56,-0.77,-0.67,-2.32,-2.32,-2.31
150.75,-1.76,0.60,-1.76,0.60,-0.60,-0.77,-0.65,-2.37,-2.36,-2.37
152.26,-1.75,0.66,-1.76,0.66,-0.66,-0.76,-0.63,-2.41,-2.42,-2.41
153.78,-1.75,0.71,-1.75,0.71,-0.72,-0.76,-0.61,-2.47,-2.47,-2.46
155.32,-1.75,0.78,-1.75,0.77,-0.78,-0.75,-0.60,-2.53,-2.53,-2.53
156.88,-1.75,0.83,-1.75,0.83,-0.84,-0.75,-0.58,-2.59,-2.59,-2.58
158.44,-1.75,0.90,-1.75,0.90,-0.90,-0.74,-0.56,-2.65,-2.65,-2.65
160.03,-1.75,0.96,-1.75,0.96,-0.95,-0.73,-0.54,-2.70,-2.70,-2.71
161.63,-1.75,1.01,-1.76,1.00,-1.00,-0.72,-0.52,-2.75,-2.76,-2.76
163.24,-1.78,1.04,-1.79,1.02,-1.03,-0.71,-0.50,-2.81,-2.82,-2.82
164.88,-1.85,1.00,-1.82,1.03,-1.04,-0.71,-0.48,-2.89,-2.86,-2.85
166.53,-1.86,1.03,-1.86,1.04,-1.03,-0.70,-0.47,-2.89,-2.89,-2.89
168.19,-1.88,1.04,-1.90,1.02,-0.99,-0.68,-0.45,-2.87,-2.90,-2.92
169.87,-1.96,0.99,-1.96,0.99,-0.94,-0.67,-0.43,-2.90,-2.90,-2.95
171.57,-2.07,0.90,-2.06,0.90,-0.87,-0.66,-0.41,-2.94,-2.93,-2.97
173.29,-2.17,0.80,-2.19,0.79,-0.79,-0.65,-0.40,-2.96,-2.98,-2.98
175.02,-2.31,0.67,-2.30,0.69,-0.70,-0.64,-0.38,-3.02,-3.00,-2.98
176.77,-2.41,0.58,-2.40,0.59,-0.62,-0.62,-0.36,-3.03,-3.02,-2.99
178.54,-2.46,0.53,-2.48,0.50,-0.54,-0.61,-0.35,-3.00,-3.02,-2.99
180.32,-2.54,0.44,-2.52,0.46,-0.47,-0.60,-0.33,-3.02,-3.00,-2.98
182.13,-2.56,0.41,-2.56,0.42,-0.42,-0.58,-0.31,-2.99,-2.98,-2.97
183.95,-2.55,0.43,-2.59,0.39,-0.39,-0.57,-0.30,-2.95,-2.98,-2.98
185.79,-2.62,0.36,-2.60,0.38,-0.38,-0.55,-0.28,-3.01,-2.99,-2.98
187.65,-2.62,0.37,-2.62,0.38,-0.39,-0.54,-0.27,-3.01,-3.00,-2.99
189.52,-2.61,0.39,-2.62,0.38,-0.40,-0.53,-0.26,-3.02,-3.02,-3.00
191.42,-2.60,0.41,-2.60,0.41,-0.42,-0.51,-0.24,-3.02,-3.02,-3.01
193.33,-2.58,0.44,-2.58,0.44,-0.43,-0.50,-0.23,-3.02,-3.01,-3.02
195.27,-2.56,0.47,-2.56,0.47,-0.44,-0.48,-0.22,-3.01,-3.01,-3.03
197.22,-2.55,0.50,-2.56,0.49,-0.45,-0.46,-0.20,-3.00,-3.01,-3.06
199.19,-2.58,0.49,-2.58,0.49,-0.46,-0.45,-0.19,-3.04,-3.04,-3.08
201.18,-2.62,0.46,-2.63,0.46,-0.46,-0.43,-0.18,-3.08,-3.09,-3.09
203.19,-2.68,0.41,-2.68,0.43,-0.46,-0.42,-0.16,-3.14,-3.13,-3.10
205.23,-2.72,0.40,-2.71,0.41,-0.45,-0.40,-0.15,-3.17,-3.16,-3.13
207.28,-2.72,0.40,-2.73,0.41,-0.44,-0.38,-0.14,-3.16,-3.16,-3.13
209.35,-2.72,0.43,-2.72,0.43,-0.42,-0.37,-0.13,-3.15,-3.14,-3.16
211.44,-2.72,0.45,-2.72,0.44,-0.41,-0.35,-0.12,-3.14,-3.14,-3.17
213.56,-2.73,0.45,-2.75,0.43,-0.41,-0.34,-0.10,-3.14,-3.16,-3.18
215.69,-2.79,0.40,-2.79,0.41,-0.40,-0.32,-0.09,-3.20,-3.19,-3.19
217.85,-2.83,0.37,-2.82,0.39,-0.40,-0.30,-0.08,-3.23,-3.22,-3.20
220.03,-2.83,0.38,-2.84,0.38,-0.40,-0.29,-0.07,-3.23,-3.24,-3.22
222.23,-2.83,0.39,-2.84,0.38,-0.40,-0.27,-0.06,-3.23,-3.24,-3.22
224.45,-2.84,0.37,-2.84,0.38,-0.39,-0.25,-0.05,-3.23,-3.23,-3.21
226.70,-2.83,0.38,-2.84,0.37,-0.38,-0.23,-0.04,-3.21,-3.22,-3.21
228.96,-2.83,0.37,-2.83,0.37,-0.36,-0.22,-0.03,-3.19,-3.19,-3.21
231.25,-2.82,0.37,-2.81,0.38,-0.34,-0.20,-0.02,-3.16,-3.15,-3.19
233.57,-2.81,0.37,-2.82,0.36,-0.31,-0.18,-0.01,-3.13,-3.14,-3.18
235.90,-2.82,0.34,-2.87,0.30,-0.28,-0.16,0.01,-3.10,-3.15,-3.16
238.26,-2.95,0.19,-2.92,0.22,-0.24,-0.15,0.02,-3.19,-3.16,-3.14
240.64,-2.98,0.13,-2.96,0.15,-0.20,-0.13,0.03,-3.18,-3.16,-3.12
243.05,-2.95,0.13,-2.96,0.13,-0.16,-0.11,0.04,-3.11,-3.11,-3.08
245.48,-2.93,0.12,-2.94,0.12,-0.11,-0.09,0.05,-3.04,-3.05,-3.06
247.93,-2.90,0.13,-2.95,0.08,-0.07,-0.07,0.06,-2.97,-3.02,-3.03
250.41,-3.00,0.01,-2.96,0.04,-0.03,-0.05,0.07,-3.03,-3.00,-3.02
252.92,-3.00,-0.02,-2.97,0.01,-0.00,-0.03,0.08,-3.00,-2.98,-2.98
255.45,-2.96,-0.01,-3.00,-0.04,0.03,-0.01,0.09,-2.93,-2.97,-2.95
258.00,-2.98,-0.04,-3.01,-0.07,0.07,0.01,0.10,-2.92,-2.95,-2.94
260.58,-3.07,-0.15,-3.03,-0.12,0.11,0.04,0.11,-2.96,-2.92,-2.92
263.19,-3.07,-0.18,-3.05,-0.15,0.16,0.06,0.12,-2.91,-2.89,-2.90
265.82,-3.03,-0.15,-3.05,-0.18,0.21,0.08,0.14,-2.83,-2.85,-2.88
268.48,-3.04,-0.19,-3.08,-0.23,0.25,0.11,0.15,-2.79,-2.84,-2.85
271.16,-3.14,-0.31,-3.13,-0.30,0.29,0.14,0.16,-2.85,-2.84,-2.83
273.87,-3.22,-0.41,-3.17,-0.36,0.33,0.16,0.17,-2.89,-2.84,-2.81
276.61,-3.15,-0.37,-3.18,-0.39,0.36,0.19,0.18,-2.79,-2.82,-2.78
279.38,-3.14,-0.38,-3.16,-0.40,0.38,0.22,0.19,-2.76,-2.77,-2.76
282.17,-3.14,-0.40,-3.13,-0.40,0.41,0.25,0.21,-2.73,-2.72,-2.74
284.99,-3.13,-0.43,-3.14,-0.43,0.43,0.29,0.22,-2.70,-2.71,-2.70
287.84,-3.12,-0.45,-3.12,-0.44,0.45,0.32,0.23,-2.67,-2.67,-2.68
290.72,-3.11,-0.47,-3.08,-0.44,0.47,0.36,0.25,-2.64,-2.62,-2.64
293.63,-3.04,-0.43,-3.08,-0.47,0.49,0.40,0.26,-2.55,-2.59,-2.61
296.57,-3.07,-0.50,-3.10,-0.52,0.52,0.44,0.27,-2.55,-2.58,-2.57
299.53,-3.16,-0.61,-3.13,-0.57,0.56,0.49,0.29,-2.60,-2.56,-2.56
302.53,-3.16,-0.63,-3.13,-0.61,0.60,0.54,0.30,-2.56,-2.53,-2.53
305.55,-3.12,-0.63,-3.14,-0.64,0.65,0.59,0.32,-2.48,-2.49,-2.49
308.61,-3.09,-0.62,-3.15,-0.68,0.68,0.64,0.33,-2.41,-2.46,-2.47
311.69,-3.21,-0.76,-3.18,-0.73,0.72,0.69,0.35,-2.49,-2.46,-2.45
314.81,-3.23,-0.82,-3.22,-0.79,0.76,0.75,0.36,-2.47,-2.46,-2.42
317.96,-3.22,-0.81,-3.23,-0.82,0.80,0.81,0.38,-2.43,-2.43,-2.41
321.14,-3.21,-0.82,-3.21,-0.82,0.83,0.87,0.40,-2.38,-2.38,-2.39
324.35,-3.19,-0.81,-3.21,-0.83,0.87,0.92,0.41,-2.32,-2.34,-2.38
327.59,-3.24,-0.88,-3.24,-0.87,0.91,0.98,0.43,-2.33,-2.33,-2.36
330.87,-3.29,-0.94,-3.30,-0.94,0.94,1.03,0.45,-2.35,-2.36,-2.36
334.18,-3.35,-1.01,-3.35,-1.00,0.97,1.07,0.47,-2.38,-2.38,-2.35
337.52,-3.40,-1.06,-3.36,-1.03,1.00,1.11,0.49,-2.40,-2.36,-2.34
340.90,-3.35,-1.03,-3.37,-1.05,1.03,1.13,0.51,-2.32,-2.34,-2.32
344.30,-3.34,-1.03,-3.37,-1.06,1.07,1.15,0.53,-2.28,-2.31,-2.31
347.75,-3.40,-1.10,-3.38,-1.08,1.10,1.16,0.55,-2.31,-2.29,-2.30
351.23,-3.42,-1.13,-3.41,-1.11,1.12,1.16,0.57,-2.30,-2.28,-2.29
354.74,-3.42,-1.13,-3.43,-1.13,1.15,1.16,0.59,-2.27,-2.28,-2.30
358.28,-3.42,-1.14,-3.44,-1.15,1.17,1.15,0.61,-2.25,-2.27,-2.29
361.87,-3.47,-1.18,-3.48,-1.19,1.19,1.13,0.63,-2.28,-2.28,-2.29
365.49,-3.51,-1.23,-3.52,-1.24,1.21,1.12,0.66,-2.30,-2.31,-2.28
369.14,-3.57,-1.29,-3.54,-1.26,1.22,1.10,0.68,-2.35,-2.32,-2.28
372.83,-3.52,-1.24,-3.53,-1.25,1.22,1.09,0.70,-2.30,-2.30,-2.28
376.56,-3.48,-1.20,-3.50,-1.23,1.23,1.07,0.73,-2.26,-2.28,-2.28
380.33,-3.47,-1.21,-3.47,-1.20,1.22,1.06,0.75,-2.25,-2.25,-2.26
384.13,-3.47,-1.20,-3.47,-1.19,1.22,1.05,0.78,-2.25,-2.25,-2.27
387.97,-3.46,-1.19,-3.46,-1.19,1.21,1.05,0.80,-2.25,-2.25,-2.27
391.85,-3.46,-1.19,-3.46,-1.19,1.20,1.04,0.83,-2.26,-2.26,-2.27
395.77,-3.46,-1.20,-3.46,-1.19,1.19,1.04,0.85,-2.27,-2.27,-2.27
399.73,-3.46,-1.20,-3.47,-1.20,1.18,1.04,0.88,-2.28,-2.29,-2.27
403.72,-3.46,-1.19,-3.46,-1.19,1.16,1.05,0.91,-2.30,-2.29,-2.28
407.76,-3.45,-1.17,-3.44,-1.16,1.14,1.05,0.93,-2.31,-2.30,-2.28
411.84,-3.39,-1.12,-3.41,-1.13,1.12,1.06,0.96,-2.27,-2.29,-2.27
415.96,-3.37,-1.09,-3.36,-1.09,1.10,1.06,0.98,-2.28,-2.27,-2.28
420.12,-3.32,-1.04,-3.32,-1.04,1.07,1.07,1.01,-2.25,-2.25,-2.28
424.32,-3.28,-1.01,-3.29,-1.02,1.04,1.08,1.03,-2.24,-2.25,-2.27
428.56,-3.26,-0.99,-3.27,-1.00,1.01,1.09,1.05,-2.25,-2.25,-2.27
432.85,-3.25,-1.00,-3.25,-1.00,0.98,1.10,1.08,-2.27,-2.27,-2.25
437.18,-3.22,-0.99,-3.22,-0.99,0.96,1.11,1.10,-2.26,-2.26,-2.23
441.55,-3.17,-0.98,-3.16,-0.96,0.93,1.12,1.12,-2.24,-2.22,-2.19
445.96,-3.06,-0.90,-3.08,-0.91,0.91,1.13,1.14,-2.15,-2.17,-2.16
450.42,-2.99,-0.86,-3.00,-0.87,0.89,1.14,1.16,-2.10,-2.11,-2.13
454.93,-2.93,-0.86,-2.93,-0.85,0.87,1.15,1.17,-2.06,-2.06,-2.07
459.48,-2.87,-0.84,-2.87,-0.84,0.85,1.16,1.18,-2.02,-2.02,-2.03
464.07,-2.81,-0.84,-2.81,-0.84,0.83,1.17,1.20,-1.98,-1.98,-1.97
