frequency,raw,error,smoothed,error_smoothed,equalization,parametric_eq,fixed_band_eq,equalized_raw,equalized_smoothed,target
20.00,-18.44,-14.71,-18.44,-14.71,6.00,5.71,2.66,-12.44,-12.44,-3.73
20.20,-18.31,-14.64,-18.31,-14.63,6.00,5.73,2.74,-12.31,-12.31,-3.67
20.40,-18.17,-14.55,-18.17,-14.55,6.00,5.76,2.81,-12.17,-12.17,-3.62
20.61,-18.04,-14.48,-18.04,-14.48,6.00,5.78,2.89,-12.04,-12.04,-3.56
20.81,-17.91,-14.40,-17.91,-14.40,6.00,5.81,2.98,-11.91,-11.91,-3.51
21.02,-17.78,-14.33,-17.78,-14.32,6.00,5.83,3.06,-11.78,-11.78,-3.45
21.23,-17.64,-14.24,-17.64,-14.24,6.00,5.85,3.15,-11.64,-11.64,-3.40
21.44,-17.51,-14.16,-17.51,-14.16,6.00,5.87,3.23,-11.51,-11.51,-3.35
21.66,-17.37,-14.07,-17.37,-14.07,6.00,5.89,3.33,-11.37,-11.37,-3.30
21.87,-17.24,-13.98,-17.24,-13.98,6.00,5.91,3.42,-11.24,-11.24,-3.25
22.09,-17.10,-13.90,-17.10,-13.90,6.00,5.93,3.52,-11.10,-11.10,-3.20
22.31,-16.97,-13.81,-16.97,-13.81,6.00,5.95,3.62,-10.97,-10.97,-3.15
22.54,-16.83,-13.72,-16.83,-13.72,6.00,5.97,3.72,-10.83,-10.83,-3.11
22.76,-16.69,-13.63,-16.69,-13.63,6.00,5.99,3.82,-10.69,-10.69,-3.06
22.99,-16.56,-13.54,-16.56,-13.54,6.00,6.00,3.93,-10.56,-10.56,-3.02
23.22,-16.42,-13.45,-16.42,-13.44,6.00,6.02,4.04,-10.42,-10.42,-2.97
23.45,-16.28,-13.35,-16.28,-13.35,6.00,6.03,4.15,-10.28,-10.28,-2.93
23.69,-16.14,-13.26,-16.14,-13.26,6.00,6.04,4.26,-10.14,-10.14,-2.88
23.92,-16.00,-13.16,-16.00,-13.16,6.00,6.06,4.38,-10.00,-10.00,-2.84
24.16,-15.87,-13.08,-15.87,-13.07,6.00,6.07,4.50,-9.87,-9.87,-2.79
24.40,-15.73,-12.97,-15.73,-12.97,6.00,6.08,4.62,-9.73,-9.73,-2.75
24.65,-15.59,-12.88,-15.59,-12.88,6.00,6.09,4.74,-9.59,-9.59,-2.71
24.89,-15.45,-12.77,-15.45,-12.78,6.00,6.10,4.87,-9.45,-9.45,-2.67
25.14,-15.31,-12.68,-15.31,-12.67,6.00,6.10,4.99,-9.31,-9.31,-2.63
25.39,-15.17,-12.57,-15.17,-12.57,6.00,6.11,5.12,-9.17,-9.17,-2.59
25.65,-15.02,-12.47,-15.02,-12.47,6.00,6.12,5.24,-9.02,-9.02,-2.55
25.91,-14.88,-12.37,-14.88,-12.37,6.00,6.12,5.37,-8.88,-8.88,-2.51
26.16,-14.74,-12.26,-14.74,-12.26,6.00,6.13,5.50,-8.74,-8.74,-2.47
26.43,-14.60,-12.16,-14.60,-12.16,6.00,6.13,5.63,-8.60,-8.60,-2.44
26.69,-14.46,-12.06,-14.46,-12.05,6.00,6.13,5.75,-8.46,-8.46,-2.40
26.96,-14.31,-11.95,-14.32,-11.95,6.00,6.14,5.88,-8.31,-8.32,-2.36
27.23,-14.17,-11.84,-14.17,-11.84,6.00,6.14,6.00,-8.17,-8.17,-2.33
27.50,-14.03,-11.74,-14.03,-11.74,6.00,6.14,6.12,-8.03,-8.03,-2.29
27.77,-13.89,-11.63,-13.89,-11.63,6.00,6.14,6.24,-7.89,-7.89,-2.25
28.05,-13.74,-11.52,-13.74,-11.52,6.00,6.13,6.35,-7.74,-7.74,-2.22
28.33,-13.60,-11.42,-13.60,-11.42,6.00,6.13,6.46,-7.60,-7.60,-2.18
28.62,-13.46,-11.32,-13.46,-11.31,6.00,6.13,6.56,-7.46,-7.46,-2.14
28.90,-13.32,-11.22,-13.32,-11.21,6.00,6.13,6.65,-7.32,-7.32,-2.10
29.19,-13.18,-11.11,-13.18,-11.11,6.00,6.12,6.74,-7.18,-7.18,-2.07
29.48,-13.04,-11.01,-13.04,-11.01,6.00,6.11,6.82,-7.04,-7.04,-2.03
29.78,-12.90,-10.91,-12.90,-10.90,6.00,6.11,6.90,-6.90,-6.90,-1.99
30.08,-12.76,-10.80,-12.76,-10.80,6.00,6.10,6.96,-6.76,-6.76,-1.96
30.38,-12.62,-10.70,-12.62,-10.70,6.00,6.09,7.02,-6.62,-6.62,-1.92
30.68,-12.48,-10.59,-12.48,-10.59,6.00,6.08,7.06,-6.48,-6.48,-1.89
30.99,-12.35,-10.50,-12.35,-10.49,6.00,6.08,7.10,-6.35,-6.35,-1.85
31.30,-12.21,-10.39,-12.21,-10.39,6.00,6.07,7.13,-6.21,-6.21,-1.82
31.61,-12.08,-10.29,-12.08,-10.29,6.00,6.05,7.14,-6.08,-6.08,-1.79
31.93,-11.95,-10.19,-11.95,-10.19,6.00,6.04,7.15,-5.95,-5.95,-1.76
32.24,-11.82,-10.08,-11.82,-10.08,6.00,6.03,7.15,-5.82,-5.82,-1.73
32.57,-11.68,-9.98,-11.68,-9.98,6.00,6.02,7.14,-5.68,-5.68,-1.70
32.89,-11.54,-9.87,-11.54,-9.87,6.00,6.01,7.12,-5.54,-5.54,-1.67
33.22,-11.41,-9.76,-11.41,-9.76,6.00,5.99,7.09,-5.41,-5.41,-1.65
33.55,-11.27,-9.65,-11.27,-9.64,6.00,5.98,7.05,-5.27,-5.27,-1.62
33.89,-11.13,-9.53,-11.13,-9.53,6.00,5.96,7.01,-5.13,-5.13,-1.60
34.23,-11.00,-9.42,-11.00,-9.42,6.00,5.95,6.96,-5.00,-5.00,-1.58
34.57,-10.86,-9.31,-10.86,-9.30,6.00,5.93,6.91,-4.86,-4.86,-1.55
34.92,-10.72,-9.19,-10.73,-9.19,6.00,5.92,6.85,-4.72,-4.73,-1.53
35.27,-10.59,-9.08,-10.59,-9.07,6.00,5.90,6.79,-4.59,-4.59,-1.51
35.62,-10.45,-8.96,-10.45,-8.96,6.00,5.88,6.72,-4.45,-4.45,-1.49
35.97,-10.31,-8.84,-10.31,-8.84,6.00,5.86,6.66,-4.31,-4.31,-1.47
36.33,-10.18,-8.72,-10.18,-8.72,6.00,5.85,6.59,-4.18,-4.18,-1.46
36.70,-10.04,-8.60,-10.04,-8.60,6.00,5.83,6.52,-4.04,-4.04,-1.44
37.06,-9.91,-8.48,-9.91,-8.48,6.00,5.81,6.45,-3.91,-3.91,-1.42
37.43,-9.77,-8.35,-9.77,-8.36,6.00,5.79,6.38,-3.77,-3.77,-1.41
37.81,-9.63,-8.24,-9.63,-8.23,6.00,5.77,6.31,-3.63,-3.63,-1.39
38.19,-9.49,-8.11,-9.49,-8.11,6.00,5.75,6.24,-3.49,-3.49,-1.38
38.57,-9.35,-7.98,-9.35,-7.98,6.00,5.73,6.18,-3.35,-3.35,-1.37
38.95,-9.21,-7.84,-9.21,-7.84,6.00,5.71,6.12,-3.21,-3.21,-1.36
39.34,-9.06,-7.71,-9.06,-7.71,6.00,5.69,6.05,-3.06,-3.06,-1.35
39.74,-8.92,-7.58,-8.92,-7.57,6.00,5.67,6.00,-2.92,-2.92,-1.34
40.14,-8.78,-7.44,-8.78,-7.44,6.00,5.65,5.94,-2.78,-2.78,-1.34
40.54,-8.64,-7.31,-8.64,-7.31,6.00,5.63,5.89,-2.64,-2.64,-1.33
40.94,-8.50,-7.18,-8.50,-7.17,6.00,5.61,5.84,-2.50,-2.50,-1.32
41.35,-8.36,-7.04,-8.36,-7.04,6.00,5.59,5.80,-2.36,-2.36,-1.32
41.76,-8.22,-6.90,-8.22,-6.90,6.00,5.57,5.76,-2.22,-2.22,-1.31
42.18,-8.08,-6.77,-8.08,-6.77,6.01,5.55,5.72,-2.07,-2.07,-1.31
42.60,-7.95,-6.65,-7.95,-6.64,6.02,5.53,5.69,-1.93,-1.93,-1.30
43.03,-7.81,-6.51,-7.81,-6.51,6.02,5.52,5.66,-1.79,-1.79,-1.30
43.46,-7.68,-6.39,-7.68,-6.38,6.02,5.50,5.64,-1.66,-1.66,-1.29
43.90,-7.54,-6.25,-7.55,-6.25,6.00,5.48,5.62,-1.54,-1.54,-1.29
44.33,-7.42,-6.14,-7.42,-6.13,5.97,5.46,5.61,-1.45,-1.45,-1.28
44.78,-7.30,-6.02,-7.30,-6.02,5.93,5.44,5.59,-1.37,-1.37,-1.28
45.23,-7.18,-5.91,-7.18,-5.90,5.87,5.42,5.59,-1.32,-1.31,-1.27
45.68,-7.06,-5.79,-7.06,-5.79,5.79,5.41,5.59,-1.27,-1.27,-1.27
46.13,-6.95,-5.68,-6.95,-5.68,5.70,5.39,5.59,-1.25,-1.25,-1.27
46.60,-6.84,-5.58,-6.84,-5.57,5.60,5.37,5.59,-1.24,-1.24,-1.26
47.06,-6.74,-5.48,-6.74,-5.47,5.49,5.36,5.60,-1.25,-1.25,-1.26
47.53,-6.64,-5.38,-6.64,-5.38,5.38,5.34,5.62,-1.26,-1.25,-1.26
48.01,-6.54,-5.29,-6.54,-5.28,5.28,5.33,5.64,-1.26,-1.26,-1.25
48.49,-6.45,-5.20,-6.45,-5.20,5.20,5.31,5.66,-1.25,-1.25,-1.25
48.97,-6.36,-5.11,-6.36,-5.11,5.12,5.30,5.68,-1.24,-1.25,-1.25
49.46,-6.29,-5.05,-6.29,-5.04,5.05,5.29,5.71,-1.24,-1.24,-1.24
49.96,-6.22,-4.98,-6.22,-4.98,4.98,5.28,5.74,-1.24,-1.24,-1.24
50.46,-6.16,-4.93,-6.16,-4.93,4.93,5.27,5.78,-1.23,-1.23,-1.23
50.96,-6.11,-4.88,-6.11,-4.88,4.88,5.26,5.81,-1.23,-1.23,-1.23
51.47,-6.08,-4.86,-6.07,-4.85,4.84,5.25,5.85,-1.24,-1.23,-1.22
51.99,-6.04,-4.82,-6.04,-4.82,4.81,5.24,5.89,-1.23,-1.23,-1.22
52.51,-6.02,-4.80,-6.02,-4.80,4.79,5.23,5.93,-1.23,-1.22,-1.22
53.03,-6.00,-4.79,-6.00,-4.78,4.78,5.23,5.97,-1.22,-1.21,-1.21
53.56,-5.99,-4.78,-5.99,-4.78,4.78,5.22,6.02,-1.21,-1.21,-1.21
54.10,-5.99,-4.78,-6.00,-4.78,4.79,5.22,6.06,-1.20,-1.20,-1.21
54.64,-6.02,-4.81,-6.02,-4.80,4.81,5.22,6.10,-1.21,-1.20,-1.21
55.18,-6.05,-4.84,-6.05,-4.84,4.84,5.22,6.14,-1.21,-1.21,-1.21
55.74,-6.10,-4.89,-6.10,-4.88,4.88,5.22,6.18,-1.22,-1.21,-1.21
56.29,-6.15,-4.93,-6.15,-4.93,4.93,5.22,6.22,-1.22,-1.22,-1.22
56.86,-6.21,-4.99,-6.22,-4.99,4.99,5.23,6.26,-1.22,-1.23,-1.22
57.42,-6.29,-5.06,-6.29,-5.05,5.05,5.23,6.29,-1.24,-1.24,-1.23
58.00,-6.36,-5.12,-6.36,-5.11,5.11,5.24,6.31,-1.25,-1.25,-1.24
58.58,-6.43,-5.18,-6.43,-5.18,5.18,5.25,6.34,-1.25,-1.25,-1.25
59.16,-6.50,-5.24,-6.51,-5.24,5.25,5.26,6.36,-1.26,-1.26,-1.26
59.76,-6.59,-5.32,-6.59,-5.31,5.31,5.27,6.37,-1.28,-1.28,-1.27
60.35,-6.68,-5.39,-6.67,-5.38,5.38,5.28,6.38,-1.30,-1.29,-1.29
60.96,-6.75,-5.45,-6.75,-5.45,5.45,5.30,6.38,-1.30,-1.31,-1.30
61.57,-6.83,-5.52,-6.83,-5.51,5.51,5.32,6.37,-1.32,-1.32,-1.31
62.18,-6.90,-5.57,-6.90,-5.57,5.58,5.34,6.36,-1.33,-1.33,-1.33
62.80,-6.98,-5.64,-6.98,-5.64,5.64,5.36,6.35,-1.34,-1.34,-1.34
63.43,-7.05,-5.70,-7.05,-5.69,5.70,5.38,6.32,-1.35,-1.35,-1.35
64.07,-7.12,-5.76,-7.12,-5.75,5.75,5.40,6.29,-1.37,-1.36,-1.36
64.71,-7.17,-5.80,-7.18,-5.81,5.81,5.43,6.25,-1.36,-1.37,-1.37
65.35,-7.23,-5.86,-7.23,-5.86,5.85,5.46,6.21,-1.38,-1.37,-1.37
66.01,-7.28,-5.91,-7.28,-5.90,5.90,5.49,6.16,-1.38,-1.38,-1.37
66.67,-7.31,-5.94,-7.31,-5.94,5.93,5.52,6.11,-1.38,-1.38,-1.37
67.33,-7.34,-5.97,-7.34,-5.97,5.96,5.55,6.05,-1.38,-1.38,-1.37
68.01,-7.35,-5.99,-7.35,-5.99,5.98,5.58,5.98,-1.37,-1.37,-1.36
68.69,-7.36,-6.01,-7.36,-6.01,5.99,5.62,5.92,-1.37,-1.37,-1.35
69.37,-7.37,-6.03,-7.37,-6.03,6.00,5.65,5.84,-1.37,-1.37,-1.34
70.07,-7.38,-6.05,-7.38,-6.05,6.00,5.69,5.77,-1.38,-1.38,-1.33
70.77,-7.39,-6.07,-7.39,-6.07,6.01,5.73,5.69,-1.38,-1.38,-1.32
71.48,-7.39,-6.09,-7.39,-6.08,6.00,5.76,5.61,-1.39,-1.38,-1.30
72.19,-7.38,-6.09,-7.38,-6.09,6.00,5.80,5.53,-1.38,-1.38,-1.29
72.91,-7.38,-6.10,-7.38,-6.09,6.00,5.83,5.45,-1.38,-1.38,-1.28
73.64,-7.37,-6.10,-7.37,-6.10,6.00,5.87,5.37,-1.37,-1.37,-1.27
74.38,-7.36,-6.10,-7.36,-6.10,6.00,5.90,5.28,-1.36,-1.36,-1.26
75.12,-7.36,-6.11,-7.35,-6.10,6.00,5.94,5.20,-1.36,-1.35,-1.25
75.87,-7.34,-6.10,-7.34,-6.10,6.00,5.97,5.12,-1.34,-1.34,-1.24
76.63,-7.33,-6.10,-7.33,-6.09,6.00,6.00,5.04,-1.33,-1.33,-1.23
77.40,-7.31,-6.08,-7.31,-6.08,6.00,6.02,4.96,-1.31,-1.31,-1.23
78.17,-7.29,-6.07,-7.29,-6.07,6.00,6.04,4.88,-1.29,-1.29,-1.22
78.95,-7.27,-6.06,-7.27,-6.06,6.00,6.06,4.81,-1.27,-1.27,-1.21
79.74,-7.26,-6.06,-7.25,-6.05,6.00,6.07,4.73,-1.26,-1.25,-1.20
80.54,-7.23,-6.04,-7.23,-6.04,6.00,6.08,4.66,-1.23,-1.23,-1.19
81.35,-7.21,-6.03,-7.21,-6.02,6.00,6.09,4.59,-1.21,-1.21,-1.18
82.16,-7.18,-6.01,-7.18,-6.01,6.00,6.08,4.52,-1.18,-1.18,-1.17
82.98,-7.15,-5.99,-7.15,-5.99,5.99,6.08,4.46,-1.16,-1.16,-1.16
83.81,-7.13,-5.99,-7.12,-5.98,5.98,6.06,4.40,-1.15,-1.14,-1.14
84.65,-7.09,-5.97,-7.09,-5.97,5.97,6.04,4.34,-1.12,-1.12,-1.12
85.50,-7.06,-5.96,-7.06,-5.96,5.95,6.02,4.29,-1.11,-1.11,-1.10
86.35,-7.02,-5.94,-7.02,-5.94,5.94,5.99,4.23,-1.08,-1.08,-1.08
87.22,-6.98,-5.92,-6.97,-5.91,5.91,5.95,4.18,-1.07,-1.06,-1.06
88.09,-6.92,-5.88,-6.92,-5.88,5.89,5.90,4.14,-1.03,-1.04,-1.04
88.97,-6.87,-5.85,-6.87,-5.85,5.86,5.85,4.10,-1.01,-1.02,-1.02
89.86,-6.82,-5.82,-6.82,-5.81,5.82,5.79,4.06,-1.00,-1.00,-1.00
90.76,-6.76,-5.78,-6.76,-5.78,5.77,5.73,4.02,-0.99,-0.98,-0.98
91.66,-6.69,-5.73,-6.69,-5.73,5.72,5.66,3.99,-0.97,-0.97,-0.96
92.58,-6.62,-5.68,-6.62,-5.67,5.66,5.59,3.95,-0.96,-0.95,-0.94
93.51,-6.53,-5.60,-6.53,-5.60,5.59,5.51,3.93,-0.94,-0.94,-0.93
94.44,-6.43,-5.52,-6.43,-5.52,5.51,5.43,3.90,-0.92,-0.93,-0.91
95.39,-6.33,-5.43,-6.33,-5.42,5.42,5.34,3.88,-0.91,-0.91,-0.90
96.34,-6.22,-5.33,-6.22,-5.32,5.32,5.26,3.86,-0.90,-0.90,-0.89
97.30,-6.10,-5.21,-6.10,-5.21,5.21,5.17,3.84,-0.89,-0.89,-0.89
98.28,-5.99,-5.11,-5.99,-5.10,5.11,5.07,3.83,-0.88,-0.88,-0.88
99.26,-5.88,-5.00,-5.88,-4.99,5.00,4.98,3.82,-0.88,-0.87,-0.88
100.25,-5.77,-4.89,-5.77,-4.89,4.90,4.88,3.81,-0.87,-0.87,-0.88
101.25,-5.67,-4.79,-5.67,-4.79,4.81,4.79,3.80,-0.86,-0.86,-0.88
102.27,-5.58,-4.70,-5.59,-4.71,4.71,4.69,3.79,-0.87,-0.88,-0.88
103.29,-5.52,-4.64,-5.52,-4.63,4.62,4.59,3.79,-0.90,-0.89,-0.88
104.32,-5.45,-4.56,-5.44,-4.55,4.54,4.50,3.79,-0.91,-0.91,-0.89
105.37,-5.36,-4.47,-5.36,-4.47,4.45,4.40,3.79,-0.91,-0.91,-0.89
106.42,-5.27,-4.37,-5.27,-4.37,4.36,4.30,3.79,-0.91,-0.91,-0.90
107.48,-5.18,-4.28,-5.18,-4.28,4.28,4.21,3.79,-0.90,-0.90,-0.90
108.56,-5.10,-4.19,-5.10,-4.19,4.19,4.12,3.79,-0.91,-0.91,-0.91
109.64,-5.01,-4.10,-5.02,-4.10,4.10,4.03,3.79,-0.91,-0.92,-0.91
110.74,-4.95,-4.03,-4.94,-4.02,4.02,3.93,3.79,-0.93,-0.92,-0.92
111.85,-4.86,-3.94,-4.86,-3.94,3.94,3.85,3.79,-0.92,-0.92,-0.92
112.97,-4.78,-3.86,-4.78,-3.86,3.87,3.76,3.79,-0.91,-0.91,-0.92
114.10,-4.70,-3.78,-4.71,-3.78,3.79,3.67,3.79,-0.91,-0.91,-0.92
115.24,-4.64,-3.72,-4.65,-3.73,3.73,3.59,3.79,-0.91,-0.92,-0.92
116.39,-4.60,-3.68,-4.59,-3.67,3.66,3.51,3.79,-0.94,-0.93,-0.92
117.55,-4.54,-3.63,-4.53,-3.61,3.60,3.43,3.78,-0.94,-0.93,-0.91
118.73,-4.45,-3.54,-4.45,-3.54,3.54,3.35,3.78,-0.91,-0.92,-0.91
119.92,-4.37,-3.47,-4.37,-3.47,3.48,3.28,3.77,-0.89,-0.89,-0.90
121.12,-4.28,-3.39,-4.29,-3.40,3.41,3.20,3.76,-0.87,-0.88,-0.89
122.33,-4.23,-3.36,-4.23,-3.35,3.35,3.13,3.75,-0.88,-0.88,-0.87
123.55,-4.17,-3.31,-4.15,-3.29,3.28,3.07,3.73,-0.89,-0.87,-0.86
124.79,-4.08,-3.23,-4.08,-3.23,3.22,3.00,3.72,-0.86,-0.86,-0.85
126.03,-3.97,-3.14,-3.99,-3.15,3.15,2.93,3.70,-0.82,-0.84,-0.83
127.29,-3.91,-3.09,-3.90,-3.08,3.08,2.87,3.68,-0.83,-0.82,-0.82
128.57,-3.82,-3.02,-3.81,-3.00,3.01,2.81,3.65,-0.81,-0.80,-0.80
129.85,-3.72,-2.93,-3.72,-2.93,2.93,2.75,3.63,-0.79,-0.79,-0.79
131.15,-3.62,-2.85,-3.64,-2.86,2.86,2.70,3.60,-0.76,-0.78,-0.77
132.46,-3.56,-2.80,-3.55,-2.78,2.78,2.64,3.57,-0.77,-0.76,-0.76
133.79,-3.47,-2.72,-3.46,-2.71,2.71,2.59,3.54,-0.76,-0.75,-0.75
135.12,-3.36,-2.62,-3.38,-2.63,2.63,2.54,3.50,-0.73,-0.74,-0.74
136.48,-3.30,-2.57,-3.29,-2.55,2.56,2.49,3.47,-0.74,-0.73,-0.73
137.84,-3.20,-2.48,-3.21,-2.49,2.48,2.44,3.43,-0.72,-0.74,-0.72
139.22,-3.14,-2.42,-3.13,-2.41,2.40,2.40,3.39,-0.74,-0.73,-0.72
140.61,-3.06,-2.35,-3.04,-2.33,2.32,2.35,3.35,-0.74,-0.72,-0.71
142.02,-2.94,-2.23,-2.96,-2.25,2.25,2.31,3.31,-0.69,-0.71,-0.71
143.44,-2.88,-2.18,-2.88,-2.17,2.18,2.27,3.27,-0.70,-0.69,-0.70
144.87,-2.80,-2.10,-2.81,-2.10,2.12,2.24,3.23,-0.68,-0.68,-0.70
146.32,-2.76,-2.06,-2.75,-2.05,2.06,2.20,3.19,-0.70,-0.69,-0.70
147.78,-2.70,-2.01,-2.70,-2.01,2.01,2.17,3.15,-0.69,-0.70,-0.69
149.26,-2.66,-1.97,-2.66,-1.97,1.96,2.14,3.11,-0.70,-0.71,-0.69
150.75,-2.62,-1.93,-2.61,-1.92,1.91,2.11,3.07,-0.71,-0.70,-0.69
152.26,-2.57,-1.88,-2.57,-1.87,1.86,2.08,3.03,-0.71,-0.70,-0.69
153.78,-2.50,-1.81,-2.51,-1.82,1.82,2.05,2.99,-0.68,-0.69,-0.69
155.32,-2.46,-1.78,-2.46,-1.77,1.77,2.03,2.95,-0.69,-0.69,-0.68
156.88,-2.40,-1.72,-2.41,-1.72,1.72,2.01,2.92,-0.68,-0.68,-0.68
158.44,-2.37,-1.69,-2.36,-1.68,1.68,1.99,2.88,-0.69,-0.68,-0.68
160.03,-2.31,-1.63,-2.31,-1.63,1.63,1.97,2.85,-0.68,-0.68,-0.68
161.63,-2.27,-1.60,-2.27,-1.60,1.60,1.95,2.82,-0.67,-0.68,-0.67
163.24,-2.24,-1.57,-2.24,-1.56,1.57,1.94,2.79,-0.67,-0.67,-0.67
164.88,-2.21,-1.54,-2.21,-1.54,1.54,1.93,2.76,-0.67,-0.67,-0.67
166.53,-2.19,-1.53,-2.19,-1.53,1.53,1.92,2.74,-0.66,-0.67,-0.66
168.19,-2.19,-1.53,-2.18,-1.52,1.52,1.91,2.71,-0.67,-0.67,-0.66
169.87,-2.18,-1.52,-2.18,-1.52,1.52,1.91,2.69,-0.66,-0.66,-0.66
171.57,-2.18,-1.53,-2.18,-1.53,1.53,1.91,2.67,-0.65,-0.65,-0.65
173.29,-2.19,-1.55,-2.19,-1.55,1.56,1.91,2.65,-0.63,-0.64,-0.64
175.02,-2.22,-1.59,-2.22,-1.59,1.59,1.91,2.64,-0.63,-0.63,-0.63
176.77,-2.26,-1.63,-2.26,-1.63,1.63,1.92,2.62,-0.63,-0.63,-0.63
178.54,-2.31,-1.70,-2.30,-1.69,1.68,1.93,2.61,-0.63,-0.62,-0.61
180.32,-2.35,-1.75,-2.35,-1.74,1.74,1.95,2.60,-0.61,-0.61,-0.60
182.13,-2.39,-1.80,-2.40,-1.81,1.81,1.97,2.59,-0.58,-0.59,-0.59
183.95,-2.47,-1.89,-2.46,-1.88,1.88,1.99,2.58,-0.59,-0.58,-0.58
185.79,-2.52,-1.96,-2.52,-1.96,1.95,2.02,2.58,-0.57,-0.57,-0.56
187.65,-2.59,-2.04,-2.59,-2.03,2.03,2.05,2.58,-0.56,-0.56,-0.55
189.52,-2.65,-2.11,-2.65,-2.11,2.10,2.09,2.58,-0.55,-0.54,-0.54
191.42,-2.72,-2.19,-2.72,-2.19,2.19,2.13,2.58,-0.53,-0.53,-0.53
193.33,-2.79,-2.27,-2.79,-2.27,2.28,2.18,2.58,-0.51,-0.52,-0.52
195.27,-2.88,-2.37,-2.87,-2.36,2.37,2.24,2.58,-0.51,-0.51,-0.51
197.22,-2.96,-2.46,-2.96,-2.46,2.46,2.30,2.59,-0.50,-0.50,-0.50
199.19,-3.05,-2.56,-3.06,-2.56,2.56,2.37,2.59,-0.49,-0.50,-0.49
201.18,-3.16,-2.67,-3.16,-2.67,2.67,2.45,2.60,-0.49,-0.49,-0.49
203.19,-3.27,-2.79,-3.26,-2.78,2.77,2.53,2.61,-0.50,-0.49,-0.48
205.23,-3.37,-2.89,-3.37,-2.89,2.89,2.63,2.62,-0.48,-0.48,-0.48
207.28,-3.47,-2.99,-3.47,-2.99,3.00,2.73,2.63,-0.47,-0.47,-0.48
209.35,-3.58,-3.11,-3.58,-3.10,3.11,2.84,2.64,-0.47,-0.47,-0.47
211.44,-3.69,-3.22,-3.69,-3.22,3.22,2.96,2.65,-0.47,-0.47,-0.47
213.56,-3.81,-3.34,-3.81,-3.34,3.33,3.08,2.66,-0.48,-0.48,-0.47
215.69,-3.91,-3.45,-3.91,-3.44,3.43,3.21,2.67,-0.48,-0.48,-0.46
217.85,-4.01,-3.55,-4.00,-3.54,3.53,3.35,2.69,-0.48,-0.48,-0.46
220.03,-4.07,-3.61,-4.08,-3.62,3.61,3.48,2.70,-0.46,-0.46,-0.46
222.23,-4.15,-3.69,-4.15,-3.69,3.70,3.62,2.71,-0.45,-0.45,-0.46
224.45,-4.22,-3.76,-4.22,-3.76,3.77,3.75,2.72,-0.45,-0.45,-0.46
226.70,-4.29,-3.83,-4.29,-3.83,3.83,3.88,2.72,-0.46,-0.46,-0.46
228.96,-4.36,-3.90,-4.35,-3.88,3.89,3.98,2.73,-0.47,-0.46,-0.46
231.25,-4.39,-3.93,-4.40,-3.93,3.93,4.07,2.73,-0.46,-0.47,-0.46
233.57,-4.43,-3.96,-4.44,-3.97,3.97,4.14,2.74,-0.46,-0.47,-0.47
235.90,-4.47,-4.00,-4.46,-3.99,3.99,4.17,2.74,-0.48,-0.48,-0.47
238.26,-4.48,-4.00,-4.48,-4.00,3.99,4.18,2.74,-0.49,-0.49,-0.48
240.64,-4.47,-3.99,-4.48,-3.99,3.97,4.15,2.73,-0.50,-0.50,-0.48
243.05,-4.45,-3.96,-4.45,-3.95,3.94,4.09,2.72,-0.51,-0.50,-0.49
245.48,-4.41,-3.91,-4.40,-3.90,3.90,4.00,2.71,-0.51,-0.50,-0.50
247.93,-4.33,-3.83,-4.34,-3.83,3.84,3.89,2.70,-0.49,-0.50,-0.50
250.41,-4.27,-3.76,-4.26,-3.75,3.76,3.76,2.69,-0.51,-0.50,-0.51
252.92,-4.17,-3.66,-4.18,-3.66,3.67,3.61,2.67,-0.50,-0.51,-0.51
255.45,-4.08,-3.56,-4.08,-3.56,3.56,3.45,2.65,-0.52,-0.52,-0.52
258.00,-3.99,-3.47,-3.98,-3.45,3.44,3.28,2.62,-0.55,-0.54,-0.52
260.58,-3.85,-3.32,-3.85,-3.32,3.31,3.11,2.60,-0.54,-0.55,-0.53
263.19,-3.72,-3.19,-3.71,-3.17,3.16,2.95,2.57,-0.56,-0.54,-0.53
265.82,-3.53,-3.00,-3.55,-3.01,3.01,2.79,2.54,-0.52,-0.54,-0.53
268.48,-3.39,-2.85,-3.39,-2.85,2.85,2.63,2.50,-0.54,-0.54,-0.54
271.16,-3.24,-2.70,-3.22,-2.67,2.69,2.48,2.47,-0.55,-0.53,-0.54
273.87,-3.04,-2.49,-3.06,-2.50,2.52,2.34,2.43,-0.52,-0.54,-0.55
276.61,-2.89,-2.33,-2.90,-2.34,2.35,2.21,2.39,-0.54,-0.55,-0.56
279.38,-2.76,-2.20,-2.75,-2.19,2.19,2.08,2.35,-0.57,-0.57,-0.56
282.17,-2.62,-2.05,-2.62,-2.04,2.03,1.96,2.30,-0.59,-0.59,-0.57
284.99,-2.48,-1.90,-2.47,-1.89,1.87,1.85,2.26,-0.61,-0.60,-0.58
287.84,-2.31,-1.72,-2.32,-1.73,1.73,1.75,2.21,-0.58,-0.59,-0.59
290.72,-2.18,-1.58,-2.18,-1.58,1.59,1.65,2.17,-0.59,-0.59,-0.60
293.63,-2.06,-1.45,-2.06,-1.44,1.46,1.57,2.12,-0.60,-0.60,-0.61
296.57,-1.95,-1.33,-1.95,-1.33,1.34,1.48,2.07,-0.61,-0.61,-0.62
299.53,-1.86,-1.23,-1.86,-1.23,1.23,1.40,2.02,-0.63,-0.63,-0.63
302.53,-1.78,-1.14,-1.78,-1.13,1.13,1.33,1.97,-0.65,-0.65,-0.64
305.55,-1.70,-1.05,-1.70,-1.04,1.04,1.26,1.93,-0.66,-0.66,-0.65
308.61,-1.62,-0.96,-1.63,-0.96,0.96,1.20,1.88,-0.66,-0.67,-0.66
311.69,-1.56,-0.89,-1.56,-0.89,0.89,1.14,1.83,-0.67,-0.68,-0.67
314.81,-1.51,-0.83,-1.50,-0.82,0.82,1.09,1.78,-0.69,-0.68,-0.68
317.96,-1.45,-0.76,-1.45,-0.76,0.76,1.03,1.74,-0.69,-0.69,-0.69
321.14,-1.39,-0.70,-1.40,-0.70,0.70,0.99,1.69,-0.69,-0.70,-0.69
324.35,-1.35,-0.65,-1.35,-0.65,0.65,0.94,1.65,-0.70,-0.70,-0.70
327.59,-1.31,-0.61,-1.31,-0.60,0.61,0.90,1.60,-0.70,-0.70,-0.70
330.87,-1.28,-0.57,-1.28,-0.57,0.57,0.86,1.56,-0.71,-0.71,-0.71
334.18,-1.25,-0.54,-1.25,-0.54,0.53,0.82,1.51,-0.72,-0.72,-0.71
337.52,-1.22,-0.51,-1.22,-0.51,0.50,0.78,1.47,-0.72,-0.72,-0.71
340.90,-1.21,-0.49,-1.20,-0.48,0.48,0.75,1.43,-0.73,-0.72,-0.72
344.30,-1.18,-0.46,-1.18,-0.46,0.46,0.71,1.39,-0.72,-0.72,-0.72
347.75,-1.17,-0.45,-1.17,-0.44,0.45,0.68,1.35,-0.72,-0.72,-0.72
351.23,-1.15,-0.43,-1.15,-0.43,0.44,0.65,1.31,-0.71,-0.71,-0.72
354.74,-1.15,-0.43,-1.15,-0.43,0.44,0.63,1.28,-0.71,-0.72,-0.72
358.28,-1.16,-0.44,-1.16,-0.44,0.44,0.60,1.24,-0.72,-0.72,-0.72
361.87,-1.17,-0.45,-1.17,-0.45,0.44,0.57,1.21,-0.73,-0.73,-0.72
365.49,-1.18,-0.46,-1.18,-0.45,0.45,0.55,1.17,-0.73,-0.73,-0.72
369.14,-1.18,-0.46,-1.18,-0.46,0.45,0.53,1.14,-0.73,-0.73,-0.72
372.83,-1.18,-0.47,-1.18,-0.46,0.46,0.50,1.11,-0.72,-0.72,-0.71
376.56,-1.18,-0.47,-1.18,-0.46,0.46,0.48,1.08,-0.72,-0.72,-0.71
380.33,-1.18,-0.46,-1.18,-0.46,0.46,0.46,1.05,-0.72,-0.72,-0.72
384.13,-1.18,-0.46,-1.18,-0.46,0.46,0.44,1.02,-0.72,-0.72,-0.72
387.97,-1.18,-0.46,-1.18,-0.46,0.46,0.42,0.99,-0.72,-0.72,-0.72
391.85,-1.18,-0.46,-1.18,-0.46,0.46,0.40,0.96,-0.72,-0.72,-0.72
395.77,-1.18,-0.46,-1.18,-0.45,0.45,0.39,0.93,-0.73,-0.73,-0.72
399.73,-1.18,-0.45,-1.18,-0.45,0.45,0.37,0.91,-0.73,-0.73,-0.73
403.72,-1.18,-0.45,-1.18,-0.45,0.44,0.35,0.88,-0.74,-0.74,-0.73
407.76,-1.18,-0.44,-1.18,-0.44,0.43,0.34,0.86,-0.75,-0.75,-0.74
411.84,-1.17,-0.43,-1.17,-0.42,0.42,0.32,0.83,-0.75,-0.75,-0.74
415.96,-1.16,-0.41,-1.16,-0.41,0.40,0.30,0.81,-0.76,-0.76,-0.75
420.12,-1.15,-0.39,-1.15,-0.39,0.39,0.29,0.78,-0.76,-0.76,-0.76
424.32,-1.15,-0.37,-1.15,-0.37,0.38,0.28,0.76,-0.77,-0.77,-0.78
428.56,-1.16,-0.37,-1.16,-0.37,0.37,0.26,0.74,-0.79,-0.78,-0.79
