frequency,raw,error,smoothed,error_smoothed,equalization,parametric_eq,fixed_band_eq,equalized_raw,equalized_smoothed,target
20.00,-5.23,-2.82,-5.23,-2.82,2.83,2.58,1.06,-2.40,-2.40,-2.41
20.20,-5.21,-2.80,-5.21,-2.81,2.81,2.57,1.09,-2.40,-2.41,-2.41
20.40,-5.20,-2.79,-5.19,-2.79,2.78,2.57,1.12,-2.41,-2.41,-2.41
20.61,-5.17,-2.76,-5.17,-2.77,2.76,2.56,1.15,-2.41,-2.41,-2.41
20.81,-5.14,-2.73,-5.15,-2.74,2.74,2.56,1.18,-2.40,-2.41,-2.40
21.02,-5.13,-2.73,-5.12,-2.71,2.71,2.55,1.21,-2.42,-2.41,-2.40
21.23,-5.08,-2.68,-5.08,-2.68,2.68,2.55,1.25,-2.40,-2.40,-2.40
21.44,-5.05,-2.65,-5.05,-2.65,2.65,2.54,1.29,-2.40,-2.40,-2.40
21.66,-5.02,-2.62,-5.02,-2.62,2.62,2.53,1.32,-2.40,-2.40,-2.40
21.87,-4.99,-2.59,-4.99,-2.59,2.59,2.53,1.36,-2.40,-2.40,-2.40
22.09,-4.95,-2.55,-4.95,-2.55,2.55,2.52,1.40,-2.40,-2.40,-2.40
22.31,-4.91,-2.51,-4.91,-2.52,2.51,2.51,1.44,-2.39,-2.40,-2.40
22.54,-4.88,-2.48,-4.87,-2.48,2.48,2.50,1.48,-2.40,-2.40,-2.40
22.76,-4.84,-2.44,-4.84,-2.44,2.44,2.50,1.52,-2.39,-2.39,-2.39
22.99,-4.80,-2.41,-4.80,-2.41,2.41,2.49,1.56,-2.39,-2.39,-2.39
23.22,-4.77,-2.38,-4.77,-2.38,2.38,2.48,1.61,-2.39,-2.39,-2.39
23.45,-4.74,-2.35,-4.74,-2.35,2.35,2.47,1.65,-2.39,-2.39,-2.39
23.69,-4.71,-2.32,-4.71,-2.32,2.32,2.46,1.70,-2.39,-2.39,-2.39
23.92,-4.69,-2.30,-4.69,-2.30,2.30,2.46,1.75,-2.39,-2.39,-2.39
24.16,-4.67,-2.28,-4.67,-2.28,2.28,2.45,1.79,-2.39,-2.39,-2.39
24.40,-4.65,-2.26,-4.64,-2.26,2.26,2.44,1.84,-2.39,-2.38,-2.39
24.65,-4.62,-2.23,-4.63,-2.24,2.24,2.43,1.89,-2.38,-2.38,-2.39
24.89,-4.61,-2.22,-4.61,-2.23,2.23,2.42,1.94,-2.38,-2.39,-2.39
25.14,-4.61,-2.22,-4.61,-2.22,2.22,2.41,1.99,-2.39,-2.39,-2.38
25.39,-4.61,-2.22,-4.60,-2.21,2.21,2.40,2.04,-2.40,-2.39,-2.38
25.65,-4.58,-2.20,-4.58,-2.20,2.20,2.39,2.09,-2.38,-2.39,-2.38
25.91,-4.56,-2.18,-4.57,-2.19,2.19,2.38,2.14,-2.37,-2.38,-2.38
26.16,-4.56,-2.18,-4.56,-2.18,2.18,2.37,2.18,-2.37,-2.37,-2.38
26.43,-4.56,-2.18,-4.56,-2.18,2.18,2.36,2.23,-2.38,-2.38,-2.38
26.69,-4.56,-2.18,-4.56,-2.18,2.18,2.35,2.28,-2.38,-2.38,-2.38
26.96,-4.56,-2.18,-4.56,-2.18,2.18,2.33,2.33,-2.38,-2.38,-2.38
27.23,-4.56,-2.18,-4.56,-2.18,2.18,2.32,2.37,-2.38,-2.38,-2.38
27.50,-4.56,-2.18,-4.56,-2.18,2.18,2.31,2.42,-2.38,-2.38,-2.38
27.77,-4.56,-2.18,-4.56,-2.18,2.18,2.30,2.46,-2.38,-2.38,-2.38
28.05,-4.56,-2.18,-4.56,-2.18,2.17,2.29,2.50,-2.38,-2.39,-2.38
28.33,-4.56,-2.18,-4.55,-2.18,2.17,2.27,2.54,-2.39,-2.38,-2.38
28.62,-4.54,-2.16,-4.54,-2.16,2.16,2.26,2.57,-2.38,-2.37,-2.38
28.90,-4.52,-2.14,-4.53,-2.15,2.16,2.25,2.60,-2.36,-2.37,-2.37
29.19,-4.52,-2.14,-4.52,-2.14,2.16,2.23,2.63,-2.36,-2.36,-2.37
29.48,-4.52,-2.15,-4.52,-2.14,2.15,2.22,2.66,-2.37,-2.37,-2.37
29.78,-4.52,-2.15,-4.52,-2.15,2.15,2.21,2.68,-2.37,-2.37,-2.37
30.08,-4.52,-2.15,-4.52,-2.15,2.14,2.19,2.70,-2.38,-2.38,-2.37
30.38,-4.52,-2.15,-4.52,-2.15,2.14,2.18,2.71,-2.38,-2.38,-2.37
30.68,-4.52,-2.15,-4.51,-2.14,2.13,2.17,2.72,-2.39,-2.38,-2.37
30.99,-4.50,-2.13,-4.50,-2.13,2.13,2.15,2.73,-2.37,-2.37,-2.37
31.30,-4.48,-2.11,-4.49,-2.11,2.12,2.14,2.73,-2.36,-2.36,-2.37
31.61,-4.48,-2.11,-4.48,-2.11,2.11,2.12,2.73,-2.37,-2.37,-2.37
31.93,-4.48,-2.11,-4.48,-2.11,2.10,2.11,2.73,-2.38,-2.38,-2.37
32.24,-4.48,-2.11,-4.47,-2.10,2.09,2.09,2.72,-2.39,-2.38,-2.37
32.57,-4.46,-2.09,-4.46,-2.09,2.08,2.08,2.70,-2.38,-2.38,-2.37
32.89,-4.43,-2.06,-4.44,-2.07,2.07,2.06,2.69,-2.36,-2.37,-2.37
33.22,-4.43,-2.06,-4.42,-2.05,2.06,2.05,2.67,-2.37,-2.37,-2.37
33.55,-4.41,-2.04,-4.41,-2.03,2.04,2.03,2.64,-2.37,-2.36,-2.37
33.89,-4.39,-2.02,-4.40,-2.03,2.03,2.01,2.62,-2.36,-2.37,-2.37
34.23,-4.39,-2.02,-4.39,-2.01,2.01,2.00,2.59,-2.38,-2.37,-2.37
34.57,-4.39,-2.02,-4.37,-2.00,2.00,1.98,2.55,-2.39,-2.37,-2.37
34.92,-4.35,-1.98,-4.37,-1.99,1.99,1.97,2.52,-2.36,-2.38,-2.37
35.27,-4.35,-1.97,-4.35,-1.97,1.97,1.95,2.48,-2.38,-2.38,-2.37
35.62,-4.35,-1.97,-4.33,-1.95,1.96,1.93,2.45,-2.39,-2.37,-2.38
35.97,-4.30,-1.92,-4.32,-1.94,1.94,1.92,2.41,-2.35,-2.37,-2.38
36.33,-4.30,-1.92,-4.30,-1.92,1.93,1.90,2.37,-2.37,-2.37,-2.38
36.70,-4.30,-1.92,-4.28,-1.91,1.91,1.88,2.33,-2.39,-2.37,-2.38
37.06,-4.27,-1.89,-4.28,-1.90,1.90,1.86,2.28,-2.37,-2.38,-2.38
37.43,-4.26,-1.88,-4.26,-1.88,1.88,1.85,2.24,-2.38,-2.39,-2.38
37.81,-4.26,-1.88,-4.25,-1.86,1.86,1.83,2.20,-2.40,-2.39,-2.38
38.19,-4.22,-1.84,-4.22,-1.84,1.84,1.81,2.16,-2.38,-2.39,-2.38
38.57,-4.20,-1.82,-4.20,-1.82,1.82,1.79,2.11,-2.38,-2.38,-2.38
38.95,-4.17,-1.78,-4.17,-1.79,1.79,1.78,2.07,-2.38,-2.38,-2.38
39.34,-4.16,-1.77,-4.15,-1.77,1.77,1.76,2.03,-2.39,-2.38,-2.39
39.74,-4.13,-1.74,-4.13,-1.74,1.74,1.74,1.99,-2.39,-2.39,-2.39
40.14,-4.10,-1.71,-4.11,-1.72,1.72,1.72,1.95,-2.38,-2.39,-2.39
40.54,-4.09,-1.70,-4.08,-1.69,1.69,1.71,1.91,-2.40,-2.39,-2.39
40.94,-4.06,-1.67,-4.06,-1.66,1.66,1.69,1.88,-2.40,-2.39,-2.39
41.35,-4.04,-1.64,-4.04,-1.64,1.64,1.67,1.84,-2.40,-2.40,-2.40
41.76,-4.00,-1.60,-4.01,-1.61,1.61,1.65,1.81,-2.39,-2.40,-2.40
42.18,-4.00,-1.60,-3.99,-1.59,1.58,1.64,1.77,-2.41,-2.41,-2.40
42.60,-3.96,-1.56,-3.97,-1.56,1.56,1.62,1.74,-2.40,-2.41,-2.40
43.03,-3.96,-1.55,-3.94,-1.54,1.54,1.60,1.71,-2.42,-2.40,-2.41
43.46,-3.91,-1.50,-3.92,-1.51,1.52,1.58,1.68,-2.39,-2.40,-2.41
43.90,-3.91,-1.50,-3.91,-1.50,1.51,1.56,1.65,-2.40,-2.41,-2.41
44.33,-3.91,-1.49,-3.90,-1.49,1.49,1.55,1.62,-2.42,-2.41,-2.42
44.78,-3.91,-1.49,-3.91,-1.49,1.48,1.53,1.60,-2.42,-2.42,-2.42
45.23,-3.91,-1.49,-3.91,-1.49,1.48,1.51,1.57,-2.43,-2.43,-2.42
45.68,-3.91,-1.48,-3.91,-1.48,1.48,1.49,1.55,-2.43,-2.43,-2.43
46.13,-3.91,-1.48,-3.91,-1.48,1.49,1.48,1.53,-2.42,-2.42,-2.43
46.60,-3.91,-1.47,-3.92,-1.48,1.49,1.46,1.51,-2.42,-2.43,-2.44
47.06,-3.93,-1.49,-3.93,-1.49,1.50,1.44,1.49,-2.43,-2.44,-2.44
47.53,-3.96,-1.51,-3.95,-1.50,1.50,1.43,1.47,-2.46,-2.45,-2.45
48.01,-3.96,-1.51,-3.96,-1.51,1.50,1.41,1.45,-2.46,-2.46,-2.45
48.49,-3.96,-1.50,-3.96,-1.51,1.50,1.39,1.44,-2.46,-2.47,-2.46
48.97,-3.96,-1.50,-3.96,-1.50,1.49,1.38,1.42,-2.47,-2.47,-2.46
49.46,-3.96,-1.49,-3.95,-1.48,1.48,1.36,1.41,-2.48,-2.47,-2.47
49.96,-3.93,-1.46,-3.94,-1.46,1.46,1.34,1.40,-2.46,-2.47,-2.47
50.46,-3.91,-1.43,-3.92,-1.44,1.45,1.33,1.38,-2.46,-2.47,-2.48
50.96,-3.91,-1.42,-3.90,-1.41,1.42,1.31,1.37,-2.49,-2.48,-2.49
51.47,-3.88,-1.39,-3.89,-1.39,1.40,1.30,1.36,-2.48,-2.49,-2.49
51.99,-3.87,-1.37,-3.87,-1.37,1.37,1.28,1.35,-2.50,-2.50,-2.50
52.51,-3.86,-1.35,-3.85,-1.35,1.34,1.27,1.34,-2.52,-2.51,-2.51
53.03,-3.83,-1.32,-3.83,-1.32,1.31,1.25,1.33,-2.52,-2.52,-2.51
53.56,-3.80,-1.28,-3.80,-1.28,1.27,1.24,1.33,-2.53,-2.53,-2.52
54.10,-3.77,-1.24,-3.77,-1.24,1.24,1.22,1.32,-2.53,-2.53,-2.53
54.64,-3.74,-1.20,-3.74,-1.20,1.20,1.21,1.31,-2.54,-2.54,-2.54
55.18,-3.71,-1.16,-3.71,-1.16,1.17,1.19,1.30,-2.54,-2.54,-2.55
55.74,-3.70,-1.14,-3.68,-1.13,1.13,1.18,1.29,-2.56,-2.55,-2.56
56.29,-3.65,-1.08,-3.66,-1.10,1.10,1.17,1.28,-2.54,-2.56,-2.57
56.86,-3.65,-1.07,-3.65,-1.07,1.08,1.15,1.27,-2.57,-2.57,-2.58
57.42,-3.65,-1.06,-3.64,-1.06,1.06,1.14,1.26,-2.59,-2.59,-2.59
58.00,-3.65,-1.05,-3.64,-1.04,1.04,1.13,1.25,-2.61,-2.61,-2.60
58.58,-3.63,-1.02,-3.64,-1.03,1.02,1.11,1.24,-2.61,-2.61,-2.61
59.16,-3.63,-1.01,-3.63,-1.01,1.01,1.10,1.23,-2.62,-2.62,-2.62
59.76,-3.63,-0.99,-3.63,-0.99,1.00,1.09,1.21,-2.63,-2.63,-2.63
60.35,-3.63,-0.98,-3.64,-0.99,0.99,1.08,1.20,-2.64,-2.65,-2.65
60.96,-3.65,-0.99,-3.64,-0.98,0.98,1.06,1.18,-2.67,-2.67,-2.66
61.57,-3.65,-0.97,-3.65,-0.97,0.97,1.05,1.16,-2.68,-2.68,-2.67
62.18,-3.65,-0.96,-3.65,-0.96,0.96,1.04,1.14,-2.69,-2.69,-2.69
62.80,-3.65,-0.95,-3.65,-0.94,0.95,1.03,1.12,-2.70,-2.69,-2.70
63.43,-3.65,-0.93,-3.65,-0.93,0.94,1.01,1.10,-2.70,-2.71,-2.72
64.07,-3.65,-0.92,-3.66,-0.93,0.94,1.00,1.08,-2.71,-2.73,-2.73
64.71,-3.69,-0.94,-3.68,-0.93,0.93,0.99,1.05,-2.76,-2.75,-2.75
65.35,-3.70,-0.93,-3.69,-0.93,0.92,0.97,1.03,-2.78,-2.78,-2.77
66.01,-3.70,-0.92,-3.70,-0.92,0.91,0.96,1.00,-2.79,-2.80,-2.78
66.67,-3.70,-0.90,-3.70,-0.90,0.90,0.94,0.97,-2.80,-2.81,-2.80
67.33,-3.70,-0.88,-3.70,-0.88,0.88,0.93,0.94,-2.82,-2.82,-2.82
68.01,-3.70,-0.86,-3.70,-0.86,0.86,0.91,0.91,-2.84,-2.84,-2.84
68.69,-3.70,-0.84,-3.70,-0.84,0.84,0.90,0.88,-2.85,-2.85,-2.86
69.37,-3.70,-0.82,-3.70,-0.82,0.82,0.88,0.85,-2.88,-2.88,-2.88
70.07,-3.70,-0.80,-3.70,-0.80,0.80,0.86,0.81,-2.90,-2.90,-2.90
70.77,-3.70,-0.78,-3.70,-0.78,0.78,0.84,0.78,-2.92,-2.92,-2.92
71.48,-3.70,-0.76,-3.70,-0.76,0.76,0.82,0.74,-2.94,-2.94,-2.94
72.19,-3.70,-0.74,-3.70,-0.74,0.74,0.80,0.71,-2.96,-2.96,-2.96
72.91,-3.70,-0.71,-3.70,-0.71,0.71,0.78,0.67,-2.99,-2.99,-2.99
73.64,-3.70,-0.69,-3.70,-0.69,0.69,0.76,0.63,-3.01,-3.01,-3.01
74.38,-3.70,-0.67,-3.70,-0.67,0.67,0.73,0.59,-3.03,-3.03,-3.03
75.12,-3.70,-0.64,-3.70,-0.64,0.64,0.71,0.55,-3.06,-3.06,-3.06
75.87,-3.70,-0.62,-3.70,-0.62,0.62,0.68,0.51,-3.08,-3.08,-3.08
76.63,-3.70,-0.59,-3.70,-0.59,0.59,0.65,0.47,-3.11,-3.11,-3.11
77.40,-3.70,-0.56,-3.70,-0.56,0.57,0.62,0.43,-3.13,-3.13,-3.14
78.17,-3.70,-0.54,-3.70,-0.54,0.54,0.59,0.39,-3.16,-3.16,-3.16
78.95,-3.70,-0.51,-3.70,-0.51,0.51,0.56,0.35,-3.19,-3.19,-3.19
79.74,-3.70,-0.48,-3.70,-0.48,0.48,0.53,0.31,-3.22,-3.22,-3.22
80.54,-3.70,-0.45,-3.69,-0.45,0.44,0.49,0.27,-3.26,-3.25,-3.25
81.35,-3.68,-0.40,-3.69,-0.41,0.41,0.46,0.23,-3.27,-3.28,-3.28
82.16,-3.68,-0.37,-3.68,-0.37,0.37,0.42,0.19,-3.31,-3.31,-3.31
82.98,-3.67,-0.33,-3.66,-0.33,0.33,0.39,0.15,-3.34,-3.33,-3.34
83.81,-3.65,-0.28,-3.66,-0.29,0.29,0.35,0.11,-3.36,-3.36,-3.37
84.65,-3.65,-0.25,-3.65,-0.25,0.26,0.31,0.07,-3.39,-3.39,-3.40
85.50,-3.65,-0.22,-3.65,-0.22,0.22,0.27,0.03,-3.43,-3.43,-3.43
86.35,-3.65,-0.19,-3.65,-0.19,0.19,0.23,-0.01,-3.46,-3.46,-3.46
87.22,-3.65,-0.15,-3.65,-0.15,0.15,0.19,-0.06,-3.50,-3.50,-3.50
88.09,-3.65,-0.12,-3.65,-0.12,0.12,0.14,-0.10,-3.53,-3.53,-3.53
88.97,-3.65,-0.09,-3.65,-0.09,0.08,0.10,-0.14,-3.56,-3.56,-3.56
89.86,-3.65,-0.05,-3.65,-0.05,0.05,0.06,-0.18,-3.60,-3.60,-3.60
90.76,-3.65,-0.02,-3.65,-0.02,0.02,0.02,-0.22,-3.63,-3.63,-3.63
91.66,-3.65,0.02,-3.65,0.02,-0.02,-0.03,-0.27,-3.67,-3.67,-3.67
92.58,-3.65,0.05,-3.65,0.05,-0.05,-0.07,-0.31,-3.70,-3.70,-3.70
93.51,-3.65,0.09,-3.65,0.09,-0.09,-0.12,-0.35,-3.74,-3.74,-3.74
94.44,-3.65,0.13,-3.65,0.13,-0.13,-0.16,-0.39,-3.78,-3.78,-3.78
95.39,-3.65,0.16,-3.65,0.16,-0.16,-0.20,-0.43,-3.81,-3.81,-3.81
96.34,-3.65,0.20,-3.65,0.20,-0.20,-0.25,-0.48,-3.85,-3.85,-3.85
97.30,-3.65,0.24,-3.65,0.24,-0.24,-0.29,-0.52,-3.89,-3.89,-3.89
98.28,-3.65,0.27,-3.65,0.27,-0.27,-0.33,-0.56,-3.92,-3.92,-3.92
99.26,-3.65,0.31,-3.65,0.31,-0.31,-0.38,-0.60,-3.96,-3.96,-3.96
100.25,-3.65,0.35,-3.65,0.35,-0.35,-0.42,-0.64,-4.00,-4.00,-4.00
101.25,-3.65,0.39,-3.65,0.39,-0.39,-0.46,-0.69,-4.04,-4.04,-4.04
102.27,-3.65,0.42,-3.65,0.42,-0.42,-0.50,-0.73,-4.07,-4.07,-4.07
103.29,-3.65,0.46,-3.65,0.46,-0.46,-0.54,-0.77,-4.11,-4.11,-4.11
104.32,-3.65,0.50,-3.65,0.50,-0.50,-0.58,-0.81,-4.15,-4.15,-4.15
105.37,-3.65,0.54,-3.65,0.54,-0.54,-0.62,-0.85,-4.19,-4.19,-4.19
106.42,-3.65,0.58,-3.65,0.58,-0.58,-0.66,-0.89,-4.23,-4.23,-4.23
107.48,-3.65,0.62,-3.65,0.62,-0.62,-0.70,-0.93,-4.26,-4.26,-4.26
108.56,-3.65,0.65,-3.65,0.65,-0.65,-0.74,-0.97,-4.30,-4.30,-4.30
109.64,-3.65,0.69,-3.65,0.69,-0.69,-0.78,-1.01,-4.34,-4.34,-4.34
110.74,-3.65,0.73,-3.65,0.73,-0.73,-0.81,-1.04,-4.38,-4.38,-4.38
111.85,-3.65,0.77,-3.65,0.77,-0.76,-0.85,-1.08,-4.41,-4.41,-4.42
112.97,-3.65,0.80,-3.65,0.80,-0.80,-0.89,-1.11,-4.45,-4.45,-4.45
114.10,-3.65,0.84,-3.65,0.84,-0.84,-0.92,-1.14,-4.49,-4.49,-4.49
115.24,-3.65,0.88,-3.65,0.87,-0.88,-0.95,-1.18,-4.53,-4.53,-4.53
116.39,-3.65,0.91,-3.65,0.92,-0.92,-0.99,-1.21,-4.57,-4.57,-4.56
117.55,-3.65,0.95,-3.64,0.96,-0.96,-1.02,-1.23,-4.61,-4.60,-4.60
118.73,-3.61,1.03,-3.62,1.01,-1.01,-1.05,-1.26,-4.62,-4.63,-4.64
119.92,-3.61,1.06,-3.62,1.06,-1.05,-1.08,-1.28,-4.66,-4.67,-4.67
121.12,-3.61,1.10,-3.60,1.10,-1.10,-1.11,-1.31,-4.71,-4.70,-4.71
122.33,-3.61,1.13,-3.60,1.15,-1.15,-1.14,-1.33,-4.76,-4.74,-4.74
123.55,-3.57,1.21,-3.59,1.19,-1.20,-1.17,-1.35,-4.76,-4.78,-4.78
124.79,-3.57,1.24,-3.57,1.24,-1.25,-1.20,-1.36,-4.81,-4.81,-4.81
126.03,-3.57,1.27,-3.55,1.29,-1.30,-1.23,-1.38,-4.86,-4.85,-4.84
127.29,-3.52,1.36,-3.53,1.34,-1.35,-1.25,-1.39,-4.86,-4.88,-4.88
128.57,-3.52,1.39,-3.51,1.40,-1.40,-1.28,-1.40,-4.92,-4.91,-4.91
129.85,-3.48,1.46,-3.49,1.45,-1.45,-1.30,-1.41,-4.93,-4.93,-4.94
131.15,-3.48,1.49,-3.47,1.50,-1.50,-1.33,-1.42,-4.98,-4.97,-4.97
132.46,-3.46,1.55,-3.46,1.55,-1.55,-1.35,-1.42,-5.01,-5.00,-5.00
133.79,-3.44,1.60,-3.45,1.58,-1.60,-1.37,-1.42,-5.03,-5.05,-5.04
135.12,-3.44,1.63,-3.43,1.63,-1.64,-1.40,-1.43,-5.08,-5.07,-5.07
136.48,-3.43,1.67,-3.42,1.68,-1.68,-1.42,-1.43,-5.11,-5.10,-5.09
137.84,-3.39,1.73,-3.40,1.72,-1.72,-1.44,-1.43,-5.10,-5.12,-5.12
139.22,-3.39,1.76,-3.39,1.76,-1.75,-1.46,-1.42,-5.13,-5.13,-5.15
140.61,-3.39,1.79,-3.39,1.79,-1.77,-1.48,-1.42,-5.16,-5.16,-5.18
142.02,-3.41,1.80,-3.41,1.80,-1.79,-1.50,-1.42,-5.20,-5.20,-5.21
143.44,-3.44,1.79,-3.43,1.80,-1.81,-1.52,-1.41,-5.25,-5.24,-5.23
144.87,-3.44,1.82,-3.45,1.81,-1.82,-1.53,-1.41,-5.26,-5.27,-5.26
146.32,-3.47,1.82,-3.47,1.82,-1.83,-1.55,-1.40,-5.30,-5.30,-5.28
147.78,-3.48,1.83,-3.47,1.84,-1.84,-1.57,-1.40,-5.32,-5.31,-5.31
149.26,-3.48,1.85,-3.48,1.85,-1.85,-1.58,-1.39,-5.33,-5.33,-5.33
150.75,-3.48,1.88,-3.49,1.86,-1.86,-1.60,-1.39,-5.34,-5.36,-5.36
152.26,-3.52,1.86,-3.51,1.87,-1.88,-1.61,-1.38,-5.40,-5.38,-5.38
153.78,-3.52,1.88,-3.52,1.89,-1.89,-1.63,-1.38,-5.41,-5.41,-5.40
155.32,-3.52,1.91,-3.52,1.91,-1.91,-1.64,-1.37,-5.43,-5.43,-5.42
156.88,-3.52,1.93,-3.52,1.92,-1.92,-1.65,-1.37,-5.44,-5.44,-5.45
158.44,-3.52,1.95,-3.54,1.93,-1.93,-1.66,-1.36,-5.45,-5.47,-5.47
160.03,-3.57,1.92,-3.55,1.94,-1.94,-1.68,-1.36,-5.51,-5.48,-5.49
161.63,-3.57,1.94,-3.57,1.94,-1.94,-1.69,-1.36,-5.51,-5.50,-5.51
163.24,-3.57,1.96,-3.59,1.94,-1.94,-1.70,-1.36,-5.50,-5.52,-5.52
164.88,-3.61,1.93,-3.61,1.94,-1.93,-1.71,-1.36,-5.54,-5.53,-5.54
166.53,-3.65,1.91,-3.64,1.92,-1.91,-1.72,-1.36,-5.56,-5.56,-5.56
168.19,-3.68,1.90,-3.68,1.89,-1.90,-1.73,-1.36,-5.58,-5.58,-5.58
169.87,-3.72,1.88,-3.72,1.88,-1.88,-1.73,-1.36,-5.60,-5.60,-5.60
171.57,-3.76,1.85,-3.76,1.86,-1.85,-1.74,-1.37,-5.61,-5.61,-5.61
173.29,-3.79,1.84,-3.80,1.83,-1.83,-1.75,-1.37,-5.62,-5.63,-5.63
175.02,-3.84,1.80,-3.83,1.81,-1.81,-1.76,-1.38,-5.65,-5.64,-5.64
176.77,-3.87,1.79,-3.87,1.78,-1.78,-1.76,-1.38,-5.65,-5.66,-5.66
178.54,-3.91,1.76,-3.91,1.76,-1.77,-1.77,-1.39,-5.68,-5.68,-5.67
180.32,-3.95,1.74,-3.94,1.75,-1.75,-1.77,-1.40,-5.70,-5.69,-5.69
182.13,-3.96,1.74,-3.97,1.73,-1.74,-1.78,-1.41,-5.70,-5.71,-5.70
183.95,-3.98,1.73,-3.98,1.73,-1.73,-1.78,-1.42,-5.71,-5.72,-5.71
185.79,-4.00,1.72,-3.99,1.73,-1.73,-1.79,-1.43,-5.73,-5.72,-5.72
187.65,-4.00,1.74,-4.00,1.73,-1.73,-1.79,-1.45,-5.73,-5.73,-5.74
189.52,-4.00,1.75,-4.01,1.73,-1.73,-1.79,-1.46,-5.73,-5.75,-5.75
191.42,-4.04,1.72,-4.03,1.73,-1.74,-1.80,-1.47,-5.77,-5.76,-5.76
193.33,-4.04,1.73,-4.04,1.73,-1.74,-1.80,-1.49,-5.78,-5.78,-5.77
195.27,-4.04,1.74,-4.04,1.74,-1.74,-1.80,-1.51,-5.78,-5.78,-5.78
197.22,-4.04,1.75,-4.04,1.75,-1.74,-1.80,-1.52,-5.78,-5.78,-5.79
199.19,-4.04,1.76,-4.05,1.75,-1.74,-1.80,-1.54,-5.78,-5.79,-5.80
201.18,-4.08,1.73,-4.07,1.74,-1.74,-1.80,-1.56,-5.82,-5.80,-5.81
203.19,-4.09,1.73,-4.09,1.73,-1.73,-1.80,-1.58,-5.82,-5.82,-5.82
205.23,-4.09,1.74,-4.11,1.72,-1.73,-1.80,-1.60,-5.82,-5.83,-5.83
207.28,-4.13,1.70,-4.11,1.72,-1.72,-1.80,-1.62,-5.85,-5.83,-5.83
209.35,-4.13,1.71,-4.13,1.71,-1.71,-1.80,-1.64,-5.84,-5.84,-5.84
211.44,-4.13,1.72,-4.15,1.70,-1.71,-1.80,-1.66,-5.84,-5.85,-5.85
213.56,-4.17,1.69,-4.15,1.70,-1.70,-1.80,-1.68,-5.87,-5.85,-5.86
215.69,-4.17,1.69,-4.17,1.69,-1.69,-1.80,-1.70,-5.86,-5.86,-5.86
217.85,-4.17,1.70,-4.19,1.68,-1.68,-1.80,-1.72,-5.85,-5.87,-5.87
220.03,-4.22,1.66,-4.20,1.67,-1.67,-1.79,-1.74,-5.89,-5.88,-5.88
222.23,-4.22,1.66,-4.22,1.66,-1.66,-1.79,-1.76,-5.88,-5.88,-5.88
224.45,-4.24,1.65,-4.24,1.64,-1.65,-1.79,-1.78,-5.89,-5.89,-5.89
226.70,-4.26,1.63,-4.26,1.63,-1.63,-1.78,-1.79,-5.89,-5.89,-5.89
228.96,-4.30,1.60,-4.29,1.61,-1.61,-1.78,-1.81,-5.91,-5.89,-5.90
231.25,-4.31,1.59,-4.32,1.59,-1.58,-1.78,-1.82,-5.89,-5.90,-5.90
233.57,-4.35,1.56,-4.35,1.56,-1.55,-1.77,-1.84,-5.90,-5.90,-5.91
235.90,-4.39,1.52,-4.39,1.53,-1.52,-1.77,-1.85,-5.91,-5.90,-5.91
238.26,-4.43,1.49,-4.43,1.49,-1.49,-1.76,-1.86,-5.91,-5.92,-5.92
240.64,-4.47,1.45,-4.48,1.45,-1.45,-1.76,-1.86,-5.92,-5.93,-5.92
243.05,-4.52,1.41,-4.51,1.41,-1.42,-1.75,-1.87,-5.94,-5.93,-5.93
245.48,-4.55,1.38,-4.54,1.39,-1.39,-1.75,-1.87,-5.94,-5.93,-5.93
247.93,-4.56,1.37,-4.57,1.36,-1.37,-1.74,-1.88,-5.92,-5.94,-5.93
250.41,-4.59,1.35,-4.59,1.35,-1.35,-1.73,-1.87,-5.94,-5.93,-5.94
252.92,-4.61,1.33,-4.61,1.33,-1.33,-1.73,-1.87,-5.94,-5.94,-5.94
255.45,-4.61,1.33,-4.62,1.33,-1.33,-1.72,-1.87,-5.94,-5.95,-5.94
258.00,-4.63,1.32,-4.62,1.32,-1.33,-1.72,-1.86,-5.96,-5.96,-5.95
260.58,-4.61,1.34,-4.61,1.33,-1.34,-1.71,-1.85,-5.95,-5.96,-5.95
263.19,-4.61,1.34,-4.60,1.35,-1.36,-1.70,-1.84,-5.96,-5.95,-5.95
265.82,-4.57,1.38,-4.58,1.37,-1.37,-1.70,-1.83,-5.94,-5.95,-5.95
268.48,-4.56,1.40,-4.56,1.39,-1.39,-1.69,-1.81,-5.95,-5.95,-5.96
271.16,-4.56,1.40,-4.54,1.41,-1.40,-1.68,-1.80,-5.96,-5.95,-5.96
273.87,-4.52,1.44,-4.53,1.43,-1.42,-1.67,-1.78,-5.94,-5.95,-5.96
276.61,-4.52,1.44,-4.52,1.44,-1.43,-1.67,-1.76,-5.95,-5.95,-5.96
279.38,-4.52,1.44,-4.52,1.45,-1.44,-1.66,-1.74,-5.96,-5.95,-5.96
282.17,-4.52,1.45,-4.52,1.45,-1.44,-1.65,-1.72,-5.96,-5.96,-5.96
284.99,-4.52,1.45,-4.52,1.44,-1.45,-1.64,-1.70,-5.97,-5.98,-5.97
287.84,-4.52,1.45,-4.52,1.45,-1.46,-1.63,-1.68,-5.98,-5.98,-5.97
290.72,-4.52,1.45,-4.51,1.46,-1.47,-1.63,-1.66,-5.99,-5.98,-5.97
293.63,-4.48,1.49,-4.49,1.48,-1.49,-1.62,-1.63,-5.97,-5.97,-5.97
296.57,-4.45,1.52,-4.45,1.52,-1.51,-1.61,-1.61,-5.96,-5.96,-5.97
299.53,-4.43,1.54,-4.42,1.55,-1.53,-1.60,-1.58,-5.96,-5.96,-5.97
302.53,-4.39,1.58,-4.41,1.57,-1.57,-1.59,-1.56,-5.96,-5.98,-5.97
305.55,-4.39,1.58,-4.38,1.59,-1.61,-1.59,-1.54,-6.00,-6.00,-5.97
308.61,-4.36,1.62,-4.34,1.63,-1.66,-1.58,-1.51,-6.02,-6.00,-5.97
311.69,-4.29,1.69,-4.29,1.68,-1.70,-1.57,-1.49,-5.99,-5.99,-5.98
314.81,-4.22,1.76,-4.22,1.75,-1.75,-1.56,-1.47,-5.96,-5.97,-5.98
317.96,-4.16,1.82,-4.17,1.81,-1.78,-1.55,-1.44,-5.94,-5.95,-5.98
321.14,-4.13,1.85,-4.14,1.84,-1.81,-1.54,-1.42,-5.94,-5.95,-5.98
324.35,-4.13,1.85,-4.13,1.85,-1.84,-1.54,-1.40,-5.97,-5.96,-5.98
327.59,-4.13,1.85,-4.12,1.85,-1.85,-1.53,-1.38,-5.98,-5.98,-5.98
330.87,-4.13,1.85,-4.13,1.85,-1.85,-1.52,-1.36,-5.98,-5.99,-5.98
334.18,-4.13,1.85,-4.14,1.84,-1.84,-1.51,-1.34,-5.97,-5.98,-5.98
337.52,-4.17,1.81,-4.16,1.82,-1.82,-1.50,-1.32,-5.99,-5.98,-5.98
340.90,-4.17,1.81,-4.18,1.80,-1.79,-1.50,-1.30,-5.96,-5.97,-5.98
344.30,-4.22,1.76,-4.21,1.77,-1.76,-1.49,-1.29,-5.98,-5.97,-5.98
347.75,-4.24,1.74,-4.24,1.73,-1.72,-1.48,-1.27,-5.96,-5.97,-5.98
351.23,-4.29,1.69,-4.28,1.69,-1.69,-1.47,-1.26,-5.98,-5.97,-5.98
354.74,-4.32,1.66,-4.33,1.65,-1.65,-1.47,-1.24,-5.97,-5.98,-5.98
358.28,-4.37,1.61,-4.37,1.61,-1.62,-1.46,-1.23,-5.99,-5.99,-5.98
361.87,-4.41,1.57,-4.40,1.57,-1.59,-1.45,-1.22,-6.00,-6.00,-5.98
365.49,-4.43,1.55,-4.43,1.55,-1.57,-1.44,-1.21,-6.00,-6.00,-5.98
369.14,-4.43,1.55,-4.43,1.55,-1.55,-1.44,-1.20,-5.98,-5.98,-5.98
372.83,-4.43,1.55,-4.43,1.55,-1.54,-1.43,-1.19,-5.97,-5.97,-5.98
376.56,-4.43,1.55,-4.43,1.54,-1.53,-1.42,-1.18,-5.96,-5.96,-5.98
380.33,-4.44,1.54,-4.45,1.53,-1.52,-1.42,-1.17,-5.96,-5.97,-5.98
384.13,-4.48,1.50,-4.46,1.51,-1.51,-1.41,-1.16,-5.99,-5.97,-5.97
387.97,-4.48,1.49,-4.48,1.50,-1.50,-1.41,-1.16,-5.98,-5.98,-5.97
391.85,-4.48,1.49,-4.49,1.48,-1.48,-1.40,-1.15,-5.96,-5.98,-5.97
395.77,-4.51,1.46,-4.50,1.47,-1.47,-1.40,-1.15,-5.98,-5.97,-5.97
399.73,-4.52,1.45,-4.52,1.46,-1.45,-1.39,-1.15,-5.97,-5.97,-5.97
403.72,-4.52,1.45,-4.54,1.44,-1.44,-1.39,-1.15,-5.96,-5.97,-5.97
407.76,-4.56,1.41,-4.55,1.42,-1.43,-1.38,-1.14,-5.99,-5.97,-5.97
411.84,-4.56,1.41,-4.56,1.41,-1.42,-1.38,-1.14,-5.98,-5.97,-5.97
415.96,-4.56,1.41,-4.57,1.40,-1.41,-1.37,-1.15,-5.97,-5.97,-5.97
420.12,-4.56,1.41,-4.57,1.40,-1.40,-1.37,-1.15,-5.96,-5.97,-5.97
424.32,-4.58,1.39,-4.57,1.40,-1.40,-1.37,-1.15,-5.98,-5.97,-5.97
428.56,-4.57,1.40,-4.57,1.40,-1.41,-1.37,-1.15,-5.98,-5.97,-5.97
432.85,-4.56,1.41,-4.57,1.40,-1.41,-1.36,-1.16,-5.97,-5.98,-5.97
