frequency,raw,error,smoothed,error_smoothed,equalization,parametric_eq,fixed_band_eq,equalized_raw,equalized_smoothed,target
20.00,7.10,5.42,7.10,5.42,-5.42,-6.26,-2.88,1.68,1.68,1.68
20.20,7.11,5.46,7.11,5.45,-5.45,-6.26,-2.96,1.66,1.66,1.65
20.40,7.11,5.48,7.11,5.48,-5.48,-6.27,-3.04,1.63,1.63,1.63
20.61,7.12,5.51,7.12,5.51,-5.51,-6.27,-3.13,1.61,1.61,1.61
20.81,7.13,5.54,7.13,5.54,-5.54,-6.27,-3.21,1.59,1.59,1.59
21.02,7.14,5.57,7.14,5.57,-5.57,-6.28,-3.31,1.57,1.57,1.57
21.23,7.15,5.60,7.15,5.60,-5.60,-6.28,-3.40,1.55,1.55,1.55
21.44,7.17,5.64,7.17,5.63,-5.63,-6.28,-3.50,1.54,1.53,1.53
21.66,7.18,5.67,7.18,5.67,-5.67,-6.29,-3.59,1.51,1.52,1.51
21.87,7.20,5.70,7.20,5.70,-5.70,-6.29,-3.70,1.50,1.50,1.50
22.09,7.22,5.74,7.22,5.73,-5.74,-6.30,-3.80,1.48,1.48,1.48
22.31,7.24,5.77,7.24,5.77,-5.78,-6.30,-3.91,1.46,1.47,1.47
22.54,7.27,5.81,7.27,5.81,-5.81,-6.30,-4.01,1.46,1.46,1.46
22.76,7.30,5.85,7.30,5.85,-5.85,-6.31,-4.13,1.45,1.45,1.45
22.99,7.33,5.89,7.33,5.89,-5.89,-6.31,-4.24,1.44,1.44,1.44
23.22,7.36,5.93,7.36,5.93,-5.92,-6.32,-4.36,1.44,1.44,1.43
23.45,7.38,5.96,7.38,5.96,-5.95,-6.32,-4.48,1.43,1.43,1.42
23.69,7.40,5.99,7.40,5.99,-5.98,-6.32,-4.61,1.42,1.42,1.41
23.92,7.42,6.01,7.42,6.01,-6.01,-6.33,-4.73,1.41,1.41,1.41
24.16,7.43,6.03,7.43,6.03,-6.03,-6.33,-4.86,1.40,1.40,1.40
24.40,7.45,6.05,7.45,6.05,-6.06,-6.34,-4.99,1.39,1.40,1.40
24.65,7.48,6.09,7.47,6.08,-6.08,-6.34,-5.12,1.40,1.39,1.39
24.89,7.49,6.10,7.49,6.10,-6.10,-6.35,-5.26,1.39,1.39,1.39
25.14,7.51,6.13,7.51,6.13,-6.13,-6.35,-5.39,1.38,1.38,1.38
25.39,7.53,6.16,7.53,6.15,-6.16,-6.36,-5.53,1.37,1.37,1.37
25.65,7.55,6.18,7.55,6.19,-6.19,-6.36,-5.67,1.36,1.37,1.37
25.91,7.58,6.22,7.58,6.21,-6.22,-6.37,-5.81,1.36,1.36,1.36
26.16,7.61,6.25,7.61,6.25,-6.25,-6.37,-5.94,1.36,1.36,1.36
26.43,7.64,6.28,7.64,6.28,-6.28,-6.38,-6.08,1.36,1.36,1.36
26.69,7.67,6.32,7.67,6.32,-6.32,-6.39,-6.22,1.35,1.35,1.35
26.96,7.70,6.35,7.70,6.35,-6.35,-6.39,-6.36,1.35,1.35,1.35
27.23,7.73,6.39,7.73,6.38,-6.38,-6.40,-6.49,1.35,1.35,1.34
27.50,7.75,6.41,7.75,6.41,-6.41,-6.40,-6.62,1.34,1.34,1.34
27.77,7.77,6.43,7.77,6.43,-6.43,-6.41,-6.75,1.34,1.34,1.34
28.05,7.79,6.46,7.79,6.45,-6.45,-6.42,-6.88,1.34,1.34,1.33
28.33,7.80,6.47,7.80,6.47,-6.46,-6.42,-6.99,1.34,1.34,1.33
28.62,7.81,6.48,7.81,6.48,-6.47,-6.43,-7.11,1.34,1.34,1.33
28.90,7.81,6.49,7.81,6.48,-6.48,-6.44,-7.21,1.33,1.33,1.32
29.19,7.80,6.48,7.80,6.48,-6.48,-6.44,-7.32,1.32,1.32,1.32
29.48,7.79,6.47,7.79,6.47,-6.48,-6.45,-7.41,1.31,1.31,1.32
29.78,7.78,6.46,7.78,6.46,-6.47,-6.46,-7.49,1.31,1.31,1.32
30.08,7.78,6.46,7.78,6.46,-6.47,-6.47,-7.56,1.31,1.31,1.32
30.38,7.78,6.47,7.78,6.47,-6.46,-6.48,-7.63,1.32,1.32,1.31
30.68,7.78,6.47,7.78,6.47,-6.46,-6.48,-7.68,1.32,1.32,1.31
30.99,7.78,6.47,7.78,6.47,-6.46,-6.49,-7.73,1.32,1.32,1.31
31.30,7.77,6.46,7.77,6.46,-6.46,-6.50,-7.76,1.31,1.31,1.31
31.61,7.77,6.47,7.77,6.46,-6.46,-6.51,-7.78,1.31,1.30,1.30
31.93,7.76,6.46,7.76,6.46,-6.47,-6.52,-7.79,1.29,1.30,1.30
32.24,7.77,6.47,7.77,6.47,-6.48,-6.53,-7.80,1.29,1.29,1.30
32.57,7.78,6.49,7.78,6.49,-6.49,-6.54,-7.79,1.29,1.29,1.29
32.89,7.80,6.51,7.80,6.51,-6.51,-6.55,-7.77,1.29,1.29,1.29
33.22,7.82,6.53,7.82,6.53,-6.53,-6.56,-7.74,1.29,1.29,1.29
33.55,7.84,6.56,7.84,6.56,-6.56,-6.57,-7.71,1.28,1.28,1.28
33.89,7.87,6.59,7.87,6.59,-6.59,-6.58,-7.67,1.28,1.28,1.28
34.23,7.90,6.62,7.90,6.62,-6.62,-6.59,-7.62,1.28,1.28,1.28
34.57,7.93,6.66,7.93,6.65,-6.66,-6.61,-7.57,1.27,1.27,1.27
34.92,7.96,6.69,7.96,6.69,-6.69,-6.62,-7.51,1.27,1.27,1.27
35.27,7.99,6.72,7.99,6.72,-6.72,-6.63,-7.45,1.27,1.27,1.27
35.62,8.02,6.76,8.02,6.76,-6.75,-6.64,-7.38,1.27,1.27,1.26
35.97,8.05,6.79,8.05,6.79,-6.78,-6.66,-7.31,1.27,1.26,1.26
36.33,8.07,6.81,8.07,6.81,-6.81,-6.67,-7.24,1.26,1.26,1.26
36.70,8.09,6.83,8.09,6.83,-6.83,-6.68,-7.17,1.26,1.26,1.26
37.06,8.11,6.85,8.11,6.85,-6.85,-6.70,-7.10,1.26,1.26,1.26
37.43,8.12,6.87,8.12,6.87,-6.86,-6.71,-7.03,1.26,1.26,1.25
37.81,8.13,6.88,8.13,6.88,-6.87,-6.72,-6.96,1.26,1.26,1.25
38.19,8.13,6.88,8.13,6.88,-6.88,-6.74,-6.89,1.25,1.25,1.25
38.57,8.12,6.88,8.12,6.88,-6.88,-6.75,-6.82,1.24,1.24,1.24
38.95,8.12,6.88,8.12,6.88,-6.88,-6.76,-6.76,1.24,1.23,1.24
39.34,8.11,6.88,8.11,6.88,-6.88,-6.78,-6.70,1.23,1.23,1.23
39.74,8.11,6.88,8.11,6.88,-6.89,-6.79,-6.64,1.22,1.23,1.23
40.14,8.11,6.89,8.11,6.89,-6.89,-6.80,-6.59,1.22,1.22,1.22
40.54,8.11,6.89,8.11,6.89,-6.89,-6.81,-6.54,1.22,1.22,1.22
40.94,8.11,6.89,8.11,6.89,-6.89,-6.83,-6.49,1.22,1.22,1.22
41.35,8.11,6.89,8.11,6.89,-6.89,-6.84,-6.44,1.22,1.22,1.22
41.76,8.11,6.89,8.11,6.89,-6.89,-6.84,-6.41,1.22,1.22,1.22
42.18,8.11,6.89,8.11,6.89,-6.89,-6.85,-6.37,1.22,1.22,1.22
42.60,8.11,6.89,8.11,6.89,-6.88,-6.86,-6.34,1.23,1.23,1.22
43.03,8.11,6.88,8.11,6.88,-6.88,-6.86,-6.32,1.23,1.23,1.23
43.46,8.11,6.88,8.11,6.88,-6.88,-6.87,-6.29,1.23,1.23,1.23
43.90,8.11,6.88,8.11,6.88,-6.88,-6.87,-6.28,1.23,1.23,1.23
44.33,8.11,6.88,8.11,6.88,-6.88,-6.88,-6.27,1.23,1.23,1.23
44.78,8.11,6.88,8.11,6.88,-6.88,-6.88,-6.26,1.23,1.23,1.23
45.23,8.11,6.88,8.11,6.88,-6.88,-6.88,-6.26,1.23,1.23,1.23
45.68,8.11,6.88,8.11,6.88,-6.88,-6.88,-6.26,1.23,1.23,1.23
46.13,8.11,6.88,8.11,6.88,-6.88,-6.88,-6.27,1.23,1.23,1.23
46.60,8.11,6.88,8.11,6.88,-6.88,-6.87,-6.28,1.23,1.23,1.23
47.06,8.11,6.88,8.11,6.88,-6.88,-6.87,-6.30,1.23,1.23,1.23
47.53,8.11,6.89,8.11,6.89,-6.88,-6.87,-6.32,1.23,1.23,1.22
48.01,8.11,6.89,8.11,6.89,-6.89,-6.87,-6.34,1.22,1.22,1.22
48.49,8.11,6.89,8.11,6.89,-6.89,-6.86,-6.37,1.22,1.22,1.22
48.97,8.11,6.89,8.11,6.89,-6.89,-6.86,-6.40,1.22,1.22,1.22
49.46,8.11,6.89,8.11,6.89,-6.89,-6.86,-6.44,1.22,1.22,1.22
49.96,8.11,6.89,8.11,6.89,-6.89,-6.85,-6.48,1.22,1.22,1.22
50.46,8.11,6.89,8.11,6.89,-6.89,-6.85,-6.52,1.22,1.22,1.22
50.96,8.11,6.89,8.11,6.89,-6.89,-6.85,-6.56,1.22,1.22,1.22
51.47,8.11,6.88,8.11,6.88,-6.88,-6.84,-6.61,1.23,1.23,1.23
51.99,8.11,6.88,8.11,6.88,-6.88,-6.84,-6.66,1.23,1.23,1.23
52.51,8.11,6.88,8.11,6.88,-6.88,-6.84,-6.71,1.23,1.23,1.23
53.03,8.11,6.88,8.11,6.88,-6.88,-6.84,-6.76,1.23,1.23,1.23
53.56,8.11,6.88,8.11,6.88,-6.87,-6.83,-6.82,1.24,1.24,1.23
54.10,8.11,6.87,8.11,6.87,-6.87,-6.83,-6.87,1.24,1.24,1.24
54.64,8.11,6.87,8.11,6.87,-6.87,-6.83,-6.92,1.24,1.24,1.24
55.18,8.11,6.87,8.11,6.87,-6.87,-6.82,-6.98,1.24,1.24,1.24
55.74,8.11,6.87,8.11,6.87,-6.86,-6.82,-7.03,1.25,1.25,1.24
56.29,8.11,6.86,8.11,6.86,-6.86,-6.82,-7.08,1.25,1.25,1.25
56.86,8.11,6.86,8.11,6.86,-6.86,-6.82,-7.12,1.25,1.25,1.25
57.42,8.11,6.86,8.11,6.85,-6.85,-6.81,-7.16,1.26,1.26,1.25
58.00,8.11,6.85,8.11,6.85,-6.85,-6.81,-7.20,1.26,1.26,1.26
58.58,8.11,6.85,8.11,6.85,-6.85,-6.81,-7.24,1.26,1.26,1.26
59.16,8.11,6.85,8.11,6.84,-6.85,-6.81,-7.27,1.26,1.26,1.26
59.76,8.11,6.84,8.11,6.84,-6.85,-6.80,-7.29,1.26,1.26,1.27
60.35,8.11,6.84,8.11,6.84,-6.85,-6.80,-7.31,1.26,1.26,1.27
60.96,8.12,6.85,8.12,6.85,-6.85,-6.80,-7.32,1.27,1.27,1.27
61.57,8.13,6.86,8.13,6.86,-6.85,-6.79,-7.32,1.28,1.27,1.27
62.18,8.13,6.86,8.13,6.86,-6.85,-6.79,-7.32,1.28,1.28,1.27
62.80,8.13,6.86,8.13,6.86,-6.85,-6.79,-7.31,1.28,1.28,1.27
63.43,8.12,6.85,8.12,6.85,-6.84,-6.78,-7.30,1.28,1.28,1.27
64.07,8.10,6.83,8.10,6.83,-6.83,-6.78,-7.27,1.27,1.27,1.27
64.71,8.08,6.81,8.08,6.81,-6.81,-6.77,-7.25,1.27,1.27,1.27
65.35,8.06,6.79,8.06,6.79,-6.79,-6.77,-7.21,1.27,1.27,1.27
66.01,8.03,6.76,8.03,6.76,-6.76,-6.76,-7.17,1.27,1.27,1.27
66.67,8.00,6.73,8.00,6.73,-6.73,-6.76,-7.12,1.27,1.27,1.27
67.33,7.97,6.70,7.97,6.70,-6.70,-6.75,-7.07,1.27,1.27,1.27
68.01,7.94,6.67,7.94,6.66,-6.67,-6.75,-7.01,1.27,1.27,1.27
68.69,7.90,6.63,7.90,6.63,-6.63,-6.74,-6.95,1.27,1.27,1.27
69.37,7.87,6.60,7.87,6.60,-6.60,-6.73,-6.89,1.27,1.27,1.27
70.07,7.85,6.58,7.85,6.57,-6.57,-6.73,-6.82,1.28,1.27,1.27
70.77,7.82,6.55,7.82,6.55,-6.55,-6.72,-6.75,1.27,1.28,1.27
71.48,7.80,6.52,7.80,6.52,-6.52,-6.71,-6.68,1.28,1.28,1.28
72.19,7.78,6.50,7.78,6.50,-6.51,-6.70,-6.61,1.27,1.27,1.28
72.91,7.77,6.49,7.77,6.49,-6.49,-6.69,-6.54,1.28,1.28,1.28
73.64,7.76,6.48,7.76,6.48,-6.48,-6.68,-6.47,1.28,1.28,1.28
74.38,7.76,6.47,7.76,6.47,-6.48,-6.67,-6.39,1.28,1.29,1.29
75.12,7.77,6.48,7.77,6.47,-6.47,-6.66,-6.32,1.30,1.30,1.29
75.87,7.78,6.48,7.78,6.48,-6.47,-6.65,-6.25,1.31,1.30,1.30
76.63,7.78,6.48,7.78,6.48,-6.47,-6.64,-6.18,1.31,1.31,1.30
77.40,7.78,6.48,7.78,6.48,-6.47,-6.63,-6.12,1.31,1.31,1.30
78.17,7.78,6.47,7.78,6.47,-6.47,-6.62,-6.05,1.31,1.31,1.31
78.95,7.78,6.47,7.78,6.47,-6.47,-6.61,-5.99,1.31,1.31,1.31
79.74,7.78,6.47,7.78,6.46,-6.47,-6.60,-5.93,1.31,1.31,1.31
80.54,7.78,6.46,7.78,6.46,-6.47,-6.58,-5.88,1.31,1.31,1.32
81.35,7.79,6.47,7.79,6.47,-6.47,-6.57,-5.83,1.32,1.31,1.32
82.16,7.79,6.47,7.79,6.47,-6.47,-6.55,-5.78,1.32,1.32,1.32
82.98,7.80,6.48,7.80,6.48,-6.48,-6.54,-5.73,1.32,1.33,1.32
83.81,7.81,6.49,7.80,6.48,-6.47,-6.53,-5.69,1.34,1.33,1.32
84.65,7.80,6.47,7.80,6.48,-6.47,-6.51,-5.66,1.33,1.34,1.33
85.50,7.80,6.47,7.80,6.46,-6.46,-6.50,-5.62,1.34,1.34,1.33
86.35,7.78,6.45,7.78,6.45,-6.45,-6.48,-5.60,1.33,1.33,1.33
87.22,7.76,6.43,7.76,6.43,-6.43,-6.46,-5.57,1.33,1.33,1.33
88.09,7.74,6.41,7.74,6.41,-6.41,-6.45,-5.55,1.33,1.33,1.33
88.97,7.71,6.38,7.71,6.38,-6.38,-6.43,-5.54,1.33,1.33,1.33
89.86,7.68,6.35,7.68,6.35,-6.35,-6.41,-5.52,1.33,1.33,1.33
90.76,7.65,6.32,7.65,6.32,-6.32,-6.39,-5.52,1.33,1.33,1.33
91.66,7.62,6.29,7.62,6.29,-6.29,-6.38,-5.51,1.33,1.33,1.33
92.58,7.59,6.26,7.59,6.26,-6.26,-6.36,-5.51,1.33,1.33,1.33
93.51,7.56,6.23,7.56,6.23,-6.22,-6.34,-5.52,1.34,1.33,1.33
94.44,7.53,6.20,7.53,6.20,-6.20,-6.32,-5.52,1.33,1.33,1.33
95.39,7.50,6.17,7.50,6.17,-6.17,-6.30,-5.53,1.33,1.33,1.33
96.34,7.48,6.15,7.48,6.14,-6.15,-6.28,-5.55,1.33,1.33,1.33
97.30,7.46,6.12,7.46,6.12,-6.14,-6.26,-5.57,1.32,1.33,1.34
98.28,7.45,6.11,7.45,6.11,-6.13,-6.24,-5.59,1.32,1.33,1.34
99.26,7.45,6.11,7.45,6.11,-6.12,-6.22,-5.62,1.33,1.33,1.34
100.25,7.46,6.12,7.46,6.11,-6.12,-6.20,-5.64,1.34,1.34,1.34
101.25,7.46,6.12,7.46,6.12,-6.12,-6.18,-5.67,1.34,1.35,1.34
102.27,7.47,6.13,7.47,6.13,-6.11,-6.16,-5.71,1.36,1.36,1.34
103.29,7.47,6.13,7.46,6.12,-6.11,-6.14,-5.74,1.36,1.36,1.34
104.32,7.45,6.10,7.45,6.11,-6.09,-6.12,-5.78,1.36,1.36,1.35
105.37,7.43,6.08,7.43,6.08,-6.08,-6.10,-5.81,1.35,1.36,1.35
106.42,7.41,6.06,7.41,6.05,-6.05,-6.08,-5.85,1.36,1.35,1.35
107.48,7.38,6.02,7.38,6.02,-6.02,-6.06,-5.89,1.36,1.36,1.36
108.56,7.35,5.99,7.35,5.99,-5.99,-6.03,-5.93,1.36,1.36,1.36
109.64,7.32,5.96,7.32,5.96,-5.96,-6.01,-5.97,1.36,1.36,1.36
110.74,7.29,5.93,7.29,5.93,-5.93,-5.99,-6.00,1.36,1.36,1.36
111.85,7.26,5.90,7.26,5.90,-5.90,-5.97,-6.04,1.36,1.36,1.36
112.97,7.24,5.87,7.24,5.87,-5.87,-5.95,-6.07,1.37,1.37,1.37
114.10,7.22,5.85,7.22,5.85,-5.85,-5.93,-6.10,1.37,1.37,1.37
115.24,7.20,5.83,7.20,5.82,-5.82,-5.90,-6.13,1.38,1.38,1.37
116.39,7.17,5.80,7.17,5.79,-5.79,-5.88,-6.15,1.38,1.38,1.37
117.55,7.14,5.76,7.14,5.76,-5.76,-5.86,-6.17,1.38,1.38,1.38
118.73,7.11,5.73,7.11,5.73,-5.74,-5.84,-6.18,1.37,1.38,1.38
119.92,7.09,5.71,7.09,5.70,-5.71,-5.82,-6.19,1.38,1.38,1.38
121.12,7.06,5.68,7.06,5.68,-5.68,-5.79,-6.20,1.38,1.38,1.38
122.33,7.04,5.65,7.04,5.65,-5.65,-5.77,-6.19,1.39,1.39,1.39
123.55,7.02,5.63,7.02,5.62,-5.62,-5.75,-6.19,1.40,1.40,1.39
124.79,6.99,5.59,6.99,5.59,-5.59,-5.72,-6.17,1.40,1.40,1.40
126.03,6.96,5.56,6.96,5.56,-5.55,-5.70,-6.16,1.41,1.41,1.40
127.29,6.93,5.52,6.93,5.52,-5.52,-5.68,-6.13,1.41,1.41,1.41
128.57,6.90,5.49,6.90,5.49,-5.49,-5.65,-6.10,1.41,1.41,1.41
129.85,6.87,5.46,6.87,5.46,-5.46,-5.63,-6.06,1.41,1.41,1.41
131.15,6.85,5.44,6.85,5.43,-5.43,-5.61,-6.02,1.42,1.41,1.41
132.46,6.83,5.41,6.83,5.41,-5.41,-5.58,-5.97,1.42,1.41,1.42
133.79,6.81,5.39,6.81,5.39,-5.40,-5.56,-5.92,1.41,1.41,1.42
135.12,6.80,5.38,6.80,5.38,-5.39,-5.53,-5.86,1.41,1.41,1.42
136.48,6.80,5.38,6.80,5.38,-5.39,-5.51,-5.80,1.41,1.41,1.42
137.84,6.80,5.38,6.80,5.38,-5.39,-5.48,-5.73,1.41,1.42,1.42
139.22,6.81,5.39,6.81,5.39,-5.38,-5.46,-5.67,1.43,1.43,1.42
140.61,6.82,5.40,6.82,5.39,-5.38,-5.43,-5.59,1.44,1.44,1.42
142.02,6.82,5.39,6.82,5.39,-5.38,-5.41,-5.52,1.44,1.44,1.43
143.44,6.81,5.38,6.81,5.38,-5.37,-5.38,-5.45,1.44,1.44,1.43
144.87,6.79,5.36,6.79,5.36,-5.35,-5.35,-5.37,1.44,1.44,1.43
146.32,6.77,5.33,6.77,5.33,-5.33,-5.32,-5.29,1.44,1.44,1.44
147.78,6.75,5.31,6.75,5.31,-5.31,-5.30,-5.22,1.44,1.44,1.44
149.26,6.72,5.28,6.72,5.27,-5.28,-5.27,-5.14,1.44,1.44,1.44
150.75,6.69,5.24,6.69,5.24,-5.25,-5.24,-5.06,1.44,1.44,1.45
152.26,6.66,5.21,6.66,5.21,-5.22,-5.21,-4.99,1.44,1.44,1.45
153.78,6.63,5.18,6.63,5.18,-5.18,-5.18,-4.92,1.45,1.45,1.45
155.32,6.61,5.15,6.61,5.15,-5.15,-5.15,-4.84,1.46,1.46,1.46
156.88,6.59,5.13,6.59,5.13,-5.12,-5.12,-4.77,1.47,1.46,1.46
158.44,6.56,5.10,6.56,5.10,-5.09,-5.09,-4.70,1.47,1.47,1.46
160.03,6.53,5.07,6.53,5.07,-5.06,-5.05,-4.64,1.47,1.47,1.46
161.63,6.50,5.04,6.50,5.04,-5.03,-5.02,-4.57,1.47,1.47,1.46
163.24,6.47,5.00,6.47,5.00,-5.01,-4.99,-4.51,1.46,1.46,1.47
164.88,6.44,4.97,6.44,4.97,-4.98,-4.95,-4.45,1.46,1.46,1.47
166.53,6.41,4.94,6.41,4.94,-4.95,-4.92,-4.39,1.46,1.46,1.47
168.19,6.39,4.92,6.39,4.92,-4.93,-4.88,-4.34,1.46,1.47,1.47
169.87,6.38,4.90,6.38,4.90,-4.90,-4.84,-4.29,1.48,1.48,1.48
171.57,6.36,4.88,6.36,4.88,-4.87,-4.81,-4.24,1.49,1.49,1.48
173.29,6.33,4.85,6.33,4.85,-4.83,-4.77,-4.20,1.50,1.50,1.48
175.02,6.29,4.81,6.29,4.81,-4.79,-4.73,-4.16,1.50,1.50,1.48
176.77,6.25,4.76,6.25,4.76,-4.75,-4.69,-4.12,1.50,1.49,1.49
178.54,6.20,4.71,6.20,4.71,-4.71,-4.65,-4.09,1.49,1.49,1.49
180.32,6.15,4.66,6.15,4.66,-4.67,-4.61,-4.05,1.48,1.49,1.49
182.13,6.11,4.62,6.11,4.61,-4.62,-4.57,-4.02,1.49,1.48,1.49
183.95,6.06,4.57,6.07,4.57,-4.58,-4.53,-4.00,1.48,1.48,1.49
185.79,6.03,4.54,6.03,4.54,-4.55,-4.49,-3.98,1.48,1.48,1.49
187.65,6.00,4.51,6.00,4.51,-4.51,-4.45,-3.95,1.49,1.49,1.49
189.52,5.97,4.48,5.97,4.48,-4.48,-4.41,-3.94,1.49,1.49,1.49
191.42,5.95,4.46,5.95,4.46,-4.45,-4.36,-3.92,1.50,1.50,1.49
193.33,5.92,4.43,5.92,4.43,-4.42,-4.32,-3.91,1.50,1.50,1.49
195.27,5.89,4.40,5.89,4.40,-4.39,-4.28,-3.90,1.50,1.50,1.49
197.22,5.85,4.36,5.85,4.36,-4.36,-4.23,-3.90,1.49,1.49,1.49
199.19,5.81,4.32,5.81,4.32,-4.32,-4.19,-3.89,1.49,1.49,1.49
201.18,5.78,4.28,5.78,4.28,-4.29,-4.14,-3.89,1.49,1.49,1.50
203.19,5.75,4.25,5.75,4.24,-4.25,-4.09,-3.89,1.50,1.50,1.50
205.23,5.72,4.21,5.72,4.21,-4.21,-4.05,-3.89,1.51,1.51,1.51
207.28,5.68,4.17,5.68,4.17,-4.17,-4.00,-3.89,1.51,1.51,1.51
209.35,5.65,4.14,5.65,4.13,-4.13,-3.95,-3.89,1.52,1.51,1.51
211.44,5.61,4.09,5.61,4.09,-4.09,-3.91,-3.89,1.52,1.52,1.52
213.56,5.57,4.05,5.57,4.05,-4.05,-3.86,-3.90,1.52,1.52,1.52
215.69,5.53,4.01,5.53,4.01,-4.00,-3.81,-3.90,1.53,1.53,1.52
217.85,5.48,3.96,5.48,3.96,-3.95,-3.76,-3.91,1.53,1.53,1.52
220.03,5.43,3.90,5.43,3.90,-3.89,-3.72,-3.91,1.54,1.53,1.53
222.23,5.37,3.84,5.37,3.84,-3.84,-3.67,-3.91,1.53,1.53,1.53
224.45,5.31,3.78,5.31,3.78,-3.79,-3.62,-3.91,1.52,1.52,1.53
226.70,5.26,3.73,5.26,3.72,-3.74,-3.57,-3.91,1.52,1.52,1.53
228.96,5.21,3.67,5.21,3.68,-3.68,-3.52,-3.91,1.53,1.53,1.54
231.25,5.17,3.63,5.17,3.63,-3.63,-3.47,-3.91,1.54,1.54,1.54
233.57,5.14,3.60,5.13,3.59,-3.58,-3.43,-3.90,1.56,1.55,1.54
235.90,5.09,3.54,5.09,3.54,-3.53,-3.38,-3.89,1.56,1.56,1.55
238.26,5.04,3.49,5.04,3.49,-3.48,-3.33,-3.88,1.56,1.56,1.55
240.64,4.99,3.43,4.99,3.43,-3.43,-3.28,-3.87,1.56,1.56,1.56
243.05,4.94,3.37,4.94,3.37,-3.38,-3.23,-3.85,1.56,1.56,1.57
245.48,4.90,3.32,4.90,3.33,-3.33,-3.18,-3.82,1.57,1.57,1.58
247.93,4.87,3.29,4.87,3.28,-3.28,-3.13,-3.80,1.59,1.59,1.58
250.41,4.83,3.24,4.83,3.23,-3.22,-3.09,-3.77,1.61,1.60,1.59
252.92,4.78,3.18,4.78,3.18,-3.17,-3.04,-3.73,1.61,1.61,1.60
255.45,4.73,3.12,4.73,3.12,-3.12,-2.99,-3.70,1.61,1.60,1.61
258.00,4.67,3.06,4.68,3.06,-3.07,-2.94,-3.65,1.60,1.61,1.61
260.58,4.63,3.01,4.63,3.01,-3.02,-2.89,-3.61,1.61,1.61,1.62
263.19,4.59,2.97,4.59,2.96,-2.96,-2.85,-3.56,1.63,1.62,1.62
265.82,4.54,2.92,4.54,2.92,-2.91,-2.80,-3.51,1.63,1.63,1.62
268.48,4.49,2.86,4.49,2.86,-2.85,-2.75,-3.45,1.64,1.64,1.63
271.16,4.43,2.80,4.43,2.80,-2.79,-2.70,-3.39,1.64,1.64,1.63
273.87,4.36,2.73,4.37,2.73,-2.73,-2.66,-3.33,1.63,1.64,1.63
276.61,4.31,2.67,4.31,2.67,-2.67,-2.61,-3.26,1.64,1.64,1.64
279.38,4.25,2.61,4.25,2.60,-2.61,-2.56,-3.20,1.64,1.64,1.64
282.17,4.19,2.54,4.19,2.54,-2.55,-2.52,-3.13,1.64,1.65,1.65
284.99,4.13,2.48,4.13,2.48,-2.48,-2.47,-3.06,1.65,1.65,1.65
287.84,4.08,2.43,4.08,2.42,-2.43,-2.43,-2.99,1.65,1.65,1.65
290.72,4.02,2.37,4.02,2.37,-2.37,-2.38,-2.91,1.65,1.65,1.65
293.63,3.96,2.31,3.96,2.31,-2.31,-2.34,-2.84,1.65,1.65,1.65
296.57,3.91,2.26,3.91,2.25,-2.26,-2.29,-2.76,1.65,1.65,1.65
299.53,3.86,2.20,3.86,2.20,-2.20,-2.25,-2.69,1.66,1.66,1.66
302.53,3.81,2.15,3.81,2.15,-2.15,-2.20,-2.61,1.66,1.66,1.66
305.55,3.76,2.10,3.76,2.09,-2.09,-2.16,-2.53,1.67,1.67,1.66
308.61,3.71,2.04,3.71,2.04,-2.04,-2.11,-2.46,1.67,1.67,1.67
311.69,3.65,1.98,3.65,1.98,-1.98,-2.07,-2.38,1.67,1.68,1.67
314.81,3.60,1.92,3.60,1.92,-1.92,-2.03,-2.31,1.68,1.68,1.68
317.96,3.54,1.86,3.54,1.86,-1.86,-1.98,-2.23,1.68,1.68,1.68
321.14,3.48,1.79,3.48,1.80,-1.80,-1.94,-2.16,1.68,1.69,1.69
324.35,3.43,1.74,3.43,1.74,-1.73,-1.90,-2.08,1.70,1.69,1.69
327.59,3.37,1.68,3.37,1.67,-1.67,-1.86,-2.01,1.70,1.70,1.69
330.87,3.31,1.61,3.31,1.61,-1.61,-1.82,-1.94,1.70,1.70,1.70
334.18,3.25,1.54,3.25,1.54,-1.55,-1.77,-1.87,1.70,1.70,1.71
337.52,3.20,1.49,3.20,1.49,-1.49,-1.73,-1.80,1.71,1.71,1.71
340.90,3.15,1.43,3.15,1.43,-1.43,-1.69,-1.73,1.72,1.72,1.72
344.30,3.10,1.38,3.10,1.38,-1.37,-1.65,-1.66,1.73,1.73,1.72
347.75,3.04,1.32,3.04,1.31,-1.31,-1.61,-1.60,1.73,1.73,1.72
351.23,2.97,1.25,2.97,1.25,-1.25,-1.57,-1.53,1.72,1.72,1.72
354.74,2.91,1.18,2.91,1.18,-1.19,-1.53,-1.47,1.72,1.72,1.73
358.28,2.86,1.13,2.86,1.13,-1.14,-1.49,-1.41,1.72,1.72,1.73
361.87,2.82,1.09,2.82,1.09,-1.09,-1.45,-1.34,1.73,1.73,1.73
365.49,2.78,1.05,2.78,1.05,-1.04,-1.41,-1.28,1.74,1.73,1.73
369.14,2.74,1.01,2.74,1.01,-1.00,-1.37,-1.22,1.74,1.73,1.73
372.83,2.70,0.97,2.70,0.97,-0.97,-1.33,-1.16,1.73,1.73,1.73
376.56,2.67,0.93,2.67,0.93,-0.94,-1.30,-1.11,1.73,1.73,1.74
380.33,2.65,0.91,2.65,0.91,-0.91,-1.26,-1.05,1.74,1.74,1.74
384.13,2.63,0.89,2.63,0.89,-0.88,-1.22,-0.99,1.75,1.75,1.74
387.97,2.61,0.87,2.61,0.87,-0.86,-1.18,-0.94,1.75,1.75,1.74
391.85,2.60,0.85,2.60,0.85,-0.84,-1.14,-0.89,1.76,1.75,1.75
395.77,2.58,0.83,2.58,0.83,-0.83,-1.11,-0.83,1.75,1.75,1.75
399.73,2.57,0.81,2.57,0.81,-0.83,-1.07,-0.78,1.74,1.75,1.76
403.72,2.57,0.81,2.57,0.81,-0.82,-1.03,-0.73,1.75,1.75,1.76
407.76,2.58,0.81,2.58,0.81,-0.82,-0.99,-0.68,1.76,1.76,1.77
411.84,2.60,0.83,2.60,0.82,-0.82,-0.96,-0.63,1.78,1.78,1.77
415.96,2.61,0.83,2.61,0.83,-0.82,-0.92,-0.58,1.79,1.79,1.78
420.12,2.62,0.84,2.62,0.83,-0.82,-0.88,-0.54,1.80,1.79,1.78
424.32,2.61,0.83,2.61,0.83,-0.82,-0.84,-0.49,1.79,1.79,1.78
428.56,2.60,0.81,2.60,0.81,-0.81,-0.81,-0.45,1.79,1.79,1.79
432.85,2.59,0.80,2.59,0.80,-0.80,-0.77,-0.40,1.79,1.79,1.79
437.18,2.57,0.78,2.57,0.78,-0.79,-0.73,-0.36,1.78,1.79,1.79
441.55,2.55,0.76,2.55,0.76,-0.76,-0.69,-0.32,1.79,1.79,1.79
445.96,2.53,0.74,2.53,0.74,-0.74,-0.66,-0.27,1.79,1.79,1.79
450.42,2.51,0.72,2.51,0.71,-0.71,-0.62,-0.23,1.80,1.80,1.79
454.93,2.47,0.68,2.47,0.68,-0.67,-0.58,-0.19,1.80,1.80,1.79
459.48,2.43,0.64,2.43,0.64,-0.64,-0.54,-0.16,1.79,1.79,1.79
464.07,2.38,0.59,2.38,0.59,-0.59,-0.51,-0.12,1.79,1.79,1.79
468.71,2.34,0.55,2.34,0.55,-0.55,-0.47,-0.08,1.79,1.79,1.79
473.40,2.29,0.50,2.29,0.50,-0.50,-0.43,-0.05,1.79,1.79,1.79
478.13,2.25,0.45,2.25,0.45,-0.45,-0.39,-0.01,1.80,1.80,1.80
482.91,2.20,0.40,2.20,0.40,-0.40,-0.35,0.02,1.80,1.80,1.80
487.74,2.15,0.35,2.15,0.35,-0.35,-0.32,0.05,1.80,1.80,1.80
492.62,2.10,0.30,2.10,0.29,-0.30,-0.28,0.08,1.80,1.80,1.80
497.55,2.05,0.24,2.05,0.24,-0.25,-0.24,0.11,1.80,1.80,1.81
502.52,2.00,0.19,2.01,0.20,-0.20,-0.20,0.14,1.80,1.80,1.81
507.55,1.97,0.16,1.97,0.15,-0.16,-0.16,0.17,1.81,1.81,1.81
512.62,1.93,0.12,1.93,0.12,-0.11,-0.12,0.20,1.82,1.82,1.81
517.75,1.89,0.07,1.89,0.07,-0.06,-0.08,0.22,1.83,1.83,1.82
522.93,1.84,0.02,1.84,0.02,-0.01,-0.03,0.25,1.83,1.83,1.82
528.16,1.78,-0.04,1.78,-0.04,0.04,0.01,0.27,1.82,1.82,1.82
533.44,1.73,-0.09,1.73,-0.09,0.08,0.05,0.29,1.81,1.81,1.82
538.77,1.68,-0.15,1.68,-0.15,0.14,0.09,0.32,1.82,1.82,1.83
544.16,1.64,-0.19,1.64,-0.19,0.19,0.14,0.34,1.83,1.83,1.83
549.60,1.60,-0.23,1.60,-0.24,0.24,0.18,0.36,1.84,1.84,1.83
