frequency,raw,error,smoothed,error_smoothed,equalization,parametric_eq,fixed_band_eq,equalized_raw,equalized_smoothed,target
20.00,-16.22,-12.90,-16.22,-12.90,6.00,5.28,2.68,-10.22,-10.22,-3.32
20.20,-16.16,-12.85,-16.16,-12.85,6.00,5.31,2.75,-10.16,-10.16,-3.31
20.40,-16.10,-12.80,-16.10,-12.80,6.00,5.34,2.83,-10.10,-10.10,-3.30
20.61,-16.04,-12.74,-16.04,-12.74,6.00,5.37,2.91,-10.04,-10.04,-3.30
20.81,-15.98,-12.69,-15.98,-12.68,6.00,5.39,2.99,-9.98,-9.98,-3.29
21.02,-15.91,-12.62,-15.92,-12.63,6.00,5.42,3.08,-9.91,-9.92,-3.29
21.23,-15.85,-12.57,-15.85,-12.57,6.00,5.45,3.16,-9.85,-9.85,-3.28
21.44,-15.79,-12.51,-15.79,-12.50,6.00,5.47,3.25,-9.79,-9.79,-3.28
21.66,-15.72,-12.44,-15.72,-12.44,6.00,5.50,3.34,-9.72,-9.72,-3.28
21.87,-15.66,-12.38,-15.66,-12.38,6.00,5.53,3.44,-9.66,-9.66,-3.28
22.09,-15.60,-12.33,-15.61,-12.33,6.00,5.55,3.54,-9.60,-9.61,-3.27
22.31,-15.57,-12.30,-15.57,-12.29,6.00,5.58,3.63,-9.57,-9.57,-3.27
22.54,-15.53,-12.25,-15.53,-12.25,6.00,5.60,3.74,-9.53,-9.53,-3.28
22.76,-15.49,-12.20,-15.49,-12.21,6.00,5.63,3.84,-9.49,-9.49,-3.29
22.99,-15.45,-12.16,-15.44,-12.15,6.00,5.65,3.95,-9.45,-9.44,-3.29
23.22,-15.38,-12.09,-15.38,-12.09,6.00,5.67,4.06,-9.38,-9.38,-3.29
23.45,-15.31,-12.01,-15.31,-12.01,6.00,5.70,4.17,-9.31,-9.31,-3.30
23.69,-15.24,-11.94,-15.24,-11.94,6.00,5.72,4.28,-9.24,-9.24,-3.30
23.92,-15.17,-11.87,-15.18,-11.88,6.00,5.74,4.40,-9.17,-9.18,-3.30
24.16,-15.13,-11.83,-15.13,-11.83,6.00,5.76,4.52,-9.13,-9.13,-3.30
24.40,-15.09,-11.79,-15.09,-11.79,6.00,5.78,4.64,-9.09,-9.09,-3.30
24.65,-15.05,-11.75,-15.05,-11.75,6.00,5.81,4.76,-9.05,-9.05,-3.30
24.89,-15.02,-11.72,-15.02,-11.71,6.00,5.83,4.88,-9.02,-9.02,-3.30
25.14,-14.98,-11.68,-14.99,-11.68,6.00,5.85,5.01,-8.98,-8.99,-3.30
25.39,-14.96,-11.65,-14.96,-11.65,6.00,5.87,5.14,-8.96,-8.96,-3.31
25.65,-14.93,-11.62,-14.93,-11.62,6.00,5.89,5.26,-8.93,-8.93,-3.31
25.91,-14.90,-11.59,-14.89,-11.58,6.00,5.90,5.39,-8.90,-8.89,-3.31
26.16,-14.83,-11.52,-14.83,-11.52,6.00,5.92,5.51,-8.83,-8.83,-3.31
26.43,-14.74,-11.43,-14.74,-11.43,6.00,5.94,5.64,-8.74,-8.74,-3.31
26.69,-14.65,-11.34,-14.65,-11.33,6.00,5.96,5.77,-8.65,-8.65,-3.31
26.96,-14.55,-11.24,-14.57,-11.26,6.00,5.97,5.89,-8.55,-8.57,-3.31
27.23,-14.52,-11.21,-14.52,-11.21,6.00,5.99,6.01,-8.52,-8.52,-3.31
27.50,-14.50,-11.19,-14.50,-11.19,6.00,6.01,6.13,-8.50,-8.50,-3.31
27.77,-14.48,-11.17,-14.48,-11.16,6.00,6.02,6.24,-8.48,-8.48,-3.31
28.05,-14.44,-11.13,-14.43,-11.11,6.00,6.04,6.35,-8.44,-8.43,-3.31
28.33,-14.35,-11.04,-14.35,-11.04,6.00,6.05,6.46,-8.35,-8.35,-3.31
28.62,-14.26,-10.95,-14.26,-10.95,6.00,6.06,6.56,-8.26,-8.26,-3.31
28.90,-14.16,-10.86,-14.18,-10.87,6.00,6.08,6.65,-8.16,-8.18,-3.30
29.19,-14.12,-10.82,-14.13,-10.83,6.00,6.09,6.74,-8.12,-8.13,-3.30
29.48,-14.12,-10.82,-14.12,-10.82,6.00,6.10,6.82,-8.12,-8.12,-3.30
29.78,-14.11,-10.82,-14.10,-10.81,6.00,6.12,6.89,-8.11,-8.10,-3.29
30.08,-14.08,-10.79,-14.07,-10.78,6.00,6.13,6.96,-8.08,-8.07,-3.29
30.38,-14.01,-10.72,-14.01,-10.72,6.00,6.14,7.01,-8.01,-8.01,-3.29
30.68,-13.94,-10.65,-13.94,-10.65,6.00,6.15,7.06,-7.94,-7.94,-3.29
30.99,-13.86,-10.57,-13.89,-10.59,6.00,6.16,7.09,-7.86,-7.89,-3.29
31.30,-13.87,-10.58,-13.88,-10.58,6.00,6.17,7.12,-7.87,-7.88,-3.29
31.61,-13.88,-10.59,-13.88,-10.59,6.00,6.18,7.14,-7.88,-7.88,-3.29
31.93,-13.89,-10.60,-13.87,-10.57,6.00,6.18,7.14,-7.89,-7.87,-3.29
32.24,-13.81,-10.51,-13.80,-10.50,6.00,6.19,7.14,-7.81,-7.80,-3.30
32.57,-13.70,-10.40,-13.71,-10.40,6.00,6.20,7.13,-7.70,-7.71,-3.30
32.89,-13.59,-10.29,-13.60,-10.30,6.00,6.21,7.11,-7.59,-7.60,-3.30
33.22,-13.52,-10.21,-13.53,-10.22,6.00,6.21,7.09,-7.52,-7.53,-3.31
33.55,-13.47,-10.16,-13.47,-10.16,6.00,6.22,7.06,-7.47,-7.47,-3.31
33.89,-13.43,-10.11,-13.42,-10.10,6.00,6.22,7.02,-7.43,-7.42,-3.32
34.23,-13.36,-10.04,-13.35,-10.03,6.00,6.23,6.97,-7.36,-7.35,-3.32
34.57,-13.28,-9.96,-13.28,-9.95,6.00,6.23,6.92,-7.28,-7.28,-3.32
34.92,-13.20,-9.88,-13.23,-9.90,6.00,6.24,6.87,-7.20,-7.23,-3.32
35.27,-13.21,-9.89,-13.23,-9.90,6.00,6.24,6.81,-7.21,-7.23,-3.32
35.62,-13.24,-9.92,-13.24,-9.92,6.00,6.24,6.75,-7.24,-7.24,-3.32
35.97,-13.28,-9.96,-13.23,-9.91,6.00,6.25,6.69,-7.28,-7.23,-3.32
36.33,-13.16,-9.84,-13.16,-9.83,6.00,6.25,6.62,-7.16,-7.16,-3.32
36.70,-13.03,-9.71,-13.05,-9.72,6.00,6.25,6.56,-7.03,-7.05,-3.32
37.06,-12.92,-9.60,-12.95,-9.62,6.00,6.25,6.49,-6.92,-6.95,-3.32
37.43,-12.90,-9.58,-12.89,-9.57,6.00,6.25,6.43,-6.90,-6.89,-3.32
37.81,-12.88,-9.57,-12.88,-9.56,6.00,6.25,6.36,-6.88,-6.88,-3.31
38.19,-12.87,-9.56,-12.89,-9.57,6.00,6.25,6.30,-6.87,-6.89,-3.31
38.57,-12.88,-9.57,-12.88,-9.57,6.00,6.25,6.24,-6.88,-6.88,-3.31
38.95,-12.88,-9.58,-12.85,-9.55,6.00,6.25,6.18,-6.88,-6.85,-3.30
39.34,-12.79,-9.49,-12.78,-9.48,6.00,6.25,6.13,-6.79,-6.78,-3.30
39.74,-12.68,-9.38,-12.69,-9.39,6.00,6.24,6.07,-6.68,-6.69,-3.30
40.14,-12.59,-9.29,-12.61,-9.31,6.00,6.24,6.02,-6.59,-6.61,-3.30
40.54,-12.55,-9.25,-12.55,-9.25,6.00,6.24,5.98,-6.55,-6.55,-3.30
40.94,-12.51,-9.21,-12.50,-9.20,6.00,6.23,5.93,-6.51,-6.50,-3.30
41.35,-12.45,-9.15,-12.45,-9.15,6.00,6.23,5.89,-6.45,-6.45,-3.30
41.76,-12.38,-9.07,-12.38,-9.07,6.00,6.22,5.86,-6.38,-6.38,-3.31
42.18,-12.31,-9.00,-12.29,-8.98,6.00,6.22,5.83,-6.31,-6.29,-3.31
42.60,-12.21,-8.90,-12.21,-8.90,6.00,6.21,5.80,-6.21,-6.21,-3.31
43.03,-12.12,-8.81,-12.18,-8.87,6.00,6.21,5.78,-6.12,-6.18,-3.31
43.46,-12.18,-8.87,-12.18,-8.86,6.00,6.20,5.76,-6.18,-6.18,-3.31
43.90,-12.23,-8.91,-12.17,-8.85,6.00,6.20,5.74,-6.23,-6.17,-3.32
44.33,-12.15,-8.83,-12.14,-8.81,6.00,6.19,5.73,-6.15,-6.14,-3.32
44.78,-12.03,-8.71,-12.07,-8.75,6.00,6.18,5.73,-6.03,-6.07,-3.32
45.23,-12.00,-8.68,-12.04,-8.72,6.00,6.17,5.72,-6.00,-6.04,-3.32
45.68,-12.04,-8.72,-12.02,-8.70,6.00,6.17,5.73,-6.04,-6.02,-3.32
46.13,-12.03,-8.72,-11.96,-8.64,6.00,6.16,5.73,-6.03,-5.96,-3.31
46.60,-11.86,-8.55,-11.88,-8.57,6.00,6.15,5.75,-5.86,-5.88,-3.31
47.06,-11.73,-8.43,-11.83,-8.53,6.00,6.14,5.76,-5.73,-5.83,-3.30
47.53,-11.81,-8.52,-11.81,-8.51,6.00,6.13,5.78,-5.81,-5.81,-3.29
48.01,-11.88,-8.60,-11.77,-8.49,6.00,6.12,5.80,-5.88,-5.77,-3.28
48.49,-11.70,-8.43,-11.70,-8.43,6.00,6.11,5.83,-5.70,-5.70,-3.27
48.97,-11.53,-8.27,-11.64,-8.38,6.00,6.10,5.86,-5.53,-5.64,-3.26
49.46,-11.59,-8.34,-11.60,-8.35,6.00,6.09,5.89,-5.59,-5.60,-3.25
49.96,-11.67,-8.44,-11.56,-8.32,6.00,6.08,5.93,-5.67,-5.56,-3.23
50.46,-11.51,-8.29,-11.50,-8.28,6.00,6.07,5.97,-5.51,-5.50,-3.22
50.96,-11.33,-8.13,-11.43,-8.22,6.00,6.06,6.01,-5.33,-5.43,-3.20
51.47,-11.37,-8.18,-11.37,-8.18,6.00,6.05,6.05,-5.37,-5.37,-3.19
51.99,-11.43,-8.25,-11.39,-8.20,6.00,6.04,6.10,-5.43,-5.39,-3.18
52.51,-11.39,-8.22,-11.39,-8.22,6.00,6.03,6.14,-5.39,-5.39,-3.17
53.03,-11.34,-8.18,-11.33,-8.17,6.00,6.02,6.19,-5.34,-5.33,-3.16
53.56,-11.25,-8.10,-11.27,-8.12,6.00,6.00,6.24,-5.25,-5.27,-3.15
54.10,-11.19,-8.06,-11.25,-8.11,6.00,5.99,6.29,-5.19,-5.25,-3.13
54.64,-11.24,-8.12,-11.20,-8.08,6.00,5.98,6.33,-5.24,-5.20,-3.12
55.18,-11.21,-8.10,-11.14,-8.02,6.00,5.97,6.38,-5.21,-5.14,-3.11
55.74,-11.01,-7.90,-11.08,-7.98,6.00,5.96,6.42,-5.01,-5.08,-3.11
56.29,-10.96,-7.86,-11.03,-7.93,6.00,5.95,6.46,-4.96,-5.03,-3.10
56.86,-11.05,-7.96,-10.94,-7.85,6.00,5.94,6.50,-5.05,-4.94,-3.09
57.42,-10.92,-7.83,-10.89,-7.79,6.00,5.93,6.54,-4.92,-4.89,-3.09
58.00,-10.71,-7.62,-10.83,-7.73,6.00,5.92,6.57,-4.71,-4.83,-3.09
58.58,-10.78,-7.69,-10.77,-7.68,6.00,5.92,6.59,-4.78,-4.77,-3.09
59.16,-10.81,-7.72,-10.76,-7.67,6.00,5.91,6.62,-4.81,-4.76,-3.09
59.76,-10.74,-7.65,-10.72,-7.63,6.00,5.90,6.63,-4.74,-4.72,-3.09
60.35,-10.64,-7.54,-10.64,-7.54,6.00,5.89,6.64,-4.64,-4.64,-3.10
60.96,-10.52,-7.41,-10.60,-7.49,6.00,5.89,6.64,-4.52,-4.60,-3.11
61.57,-10.60,-7.48,-10.59,-7.47,6.00,5.88,6.64,-4.60,-4.59,-3.12
62.18,-10.64,-7.50,-10.58,-7.44,6.00,5.88,6.63,-4.64,-4.58,-3.14
62.80,-10.53,-7.37,-10.52,-7.35,6.00,5.88,6.61,-4.53,-4.52,-3.16
63.43,-10.41,-7.22,-10.44,-7.25,6.00,5.88,6.58,-4.41,-4.44,-3.19
64.07,-10.32,-7.11,-10.39,-7.17,6.00,5.87,6.55,-4.32,-4.39,-3.21
64.71,-10.42,-7.18,-10.38,-7.14,6.00,5.88,6.51,-4.42,-4.38,-3.24
65.35,-10.41,-7.15,-10.36,-7.09,6.00,5.88,6.47,-4.41,-4.36,-3.26
66.01,-10.29,-7.01,-10.29,-7.01,6.00,5.88,6.41,-4.29,-4.29,-3.28
66.67,-10.17,-6.87,-10.21,-6.91,6.00,5.89,6.36,-4.17,-4.21,-3.30
67.33,-10.15,-6.84,-10.18,-6.87,6.00,5.89,6.29,-4.15,-4.18,-3.31
68.01,-10.22,-6.89,-10.20,-6.87,6.00,5.90,6.23,-4.22,-4.20,-3.33
68.69,-10.22,-6.88,-10.19,-6.84,6.00,5.91,6.15,-4.22,-4.19,-3.34
69.37,-10.13,-6.78,-10.12,-6.76,6.00,5.92,6.08,-4.13,-4.12,-3.35
70.07,-9.98,-6.62,-10.01,-6.65,6.00,5.94,6.00,-3.98,-4.01,-3.36
70.77,-9.91,-6.54,-9.93,-6.56,6.00,5.95,5.91,-3.91,-3.93,-3.37
71.48,-9.89,-6.52,-9.88,-6.50,6.00,5.96,5.83,-3.89,-3.88,-3.37
72.19,-9.87,-6.49,-9.85,-6.47,6.00,5.98,5.74,-3.87,-3.85,-3.38
72.91,-9.80,-6.41,-9.82,-6.43,6.00,5.99,5.65,-3.80,-3.82,-3.39
73.64,-9.79,-6.39,-9.78,-6.38,6.00,6.00,5.57,-3.79,-3.78,-3.40
74.38,-9.75,-6.34,-9.73,-6.32,6.00,6.01,5.48,-3.75,-3.73,-3.41
75.12,-9.69,-6.27,-9.72,-6.30,6.00,6.02,5.39,-3.69,-3.72,-3.42
75.87,-9.69,-6.25,-9.72,-6.28,6.01,6.02,5.30,-3.69,-3.71,-3.44
76.63,-9.73,-6.28,-9.66,-6.21,6.01,6.02,5.21,-3.72,-3.65,-3.45
77.40,-9.62,-6.15,-9.59,-6.12,6.01,6.02,5.13,-3.61,-3.58,-3.47
78.17,-9.43,-5.95,-9.51,-6.03,6.00,6.01,5.05,-3.43,-3.51,-3.48
78.95,-9.45,-5.95,-9.48,-5.98,5.98,5.99,4.96,-3.47,-3.50,-3.50
79.74,-9.52,-6.01,-9.49,-5.98,5.95,5.96,4.88,-3.57,-3.55,-3.51
80.54,-9.53,-6.00,-9.47,-5.94,5.91,5.93,4.81,-3.62,-3.57,-3.53
81.35,-9.42,-5.88,-9.42,-5.88,5.85,5.89,4.73,-3.57,-3.56,-3.54
82.16,-9.24,-5.69,-9.34,-5.78,5.79,5.84,4.66,-3.45,-3.55,-3.55
82.98,-9.32,-5.76,-9.26,-5.70,5.72,5.79,4.59,-3.60,-3.54,-3.56
83.81,-9.21,-5.64,-9.20,-5.63,5.64,5.72,4.53,-3.57,-3.56,-3.57
84.65,-9.12,-5.55,-9.13,-5.56,5.56,5.66,4.46,-3.56,-3.57,-3.57
85.50,-9.03,-5.45,-9.06,-5.47,5.48,5.58,4.40,-3.55,-3.58,-3.58
86.35,-8.99,-5.40,-8.99,-5.40,5.40,5.51,4.35,-3.59,-3.59,-3.59
87.22,-8.98,-5.38,-8.93,-5.32,5.33,5.43,4.29,-3.65,-3.60,-3.60
88.09,-8.82,-5.21,-8.86,-5.25,5.25,5.35,4.24,-3.57,-3.61,-3.61
88.97,-8.78,-5.17,-8.80,-5.18,5.18,5.27,4.19,-3.60,-3.62,-3.61
89.86,-8.74,-5.12,-8.73,-5.11,5.10,5.18,4.15,-3.64,-3.63,-3.62
90.76,-8.70,-5.07,-8.68,-5.05,5.03,5.10,4.11,-3.67,-3.65,-3.63
91.66,-8.59,-4.96,-8.60,-4.97,4.96,5.02,4.07,-3.63,-3.64,-3.63
92.58,-8.51,-4.88,-8.52,-4.88,4.90,4.94,4.04,-3.62,-3.62,-3.63
93.51,-8.44,-4.80,-8.45,-4.81,4.83,4.86,4.00,-3.61,-3.62,-3.64
94.44,-8.39,-4.75,-8.40,-4.76,4.76,4.78,3.97,-3.63,-3.64,-3.64
95.39,-8.36,-4.72,-8.34,-4.70,4.70,4.71,3.95,-3.66,-3.65,-3.64
96.34,-8.29,-4.65,-8.28,-4.63,4.62,4.63,3.93,-3.67,-3.65,-3.64
97.30,-8.18,-4.54,-8.22,-4.57,4.55,4.56,3.90,-3.63,-3.67,-3.64
98.28,-8.14,-4.49,-8.14,-4.49,4.47,4.49,3.89,-3.67,-3.67,-3.65
99.26,-8.09,-4.44,-8.06,-4.40,4.39,4.42,3.87,-3.70,-3.67,-3.65
100.25,-7.96,-4.31,-7.97,-4.31,4.31,4.35,3.86,-3.65,-3.66,-3.65
101.25,-7.84,-4.19,-7.87,-4.21,4.23,4.29,3.85,-3.61,-3.64,-3.65
102.27,-7.79,-4.13,-7.78,-4.11,4.16,4.22,3.84,-3.63,-3.62,-3.66
103.29,-7.72,-4.05,-7.73,-4.06,4.09,4.16,3.83,-3.63,-3.64,-3.67
104.32,-7.68,-4.00,-7.69,-4.01,4.02,4.10,3.82,-3.66,-3.67,-3.68
105.37,-7.67,-3.99,-7.66,-3.97,3.96,4.04,3.81,-3.71,-3.70,-3.68
106.42,-7.61,-3.92,-7.62,-3.93,3.89,3.98,3.81,-3.72,-3.73,-3.69
107.48,-7.57,-3.87,-7.55,-3.85,3.83,3.92,3.80,-3.74,-3.73,-3.70
108.56,-7.48,-3.77,-7.48,-3.77,3.76,3.87,3.80,-3.72,-3.72,-3.71
109.64,-7.38,-3.66,-7.41,-3.69,3.68,3.81,3.80,-3.70,-3.73,-3.72
110.74,-7.35,-3.63,-7.33,-3.60,3.60,3.76,3.79,-3.75,-3.73,-3.72
111.85,-7.26,-3.54,-7.24,-3.52,3.52,3.70,3.79,-3.74,-3.72,-3.72
112.97,-7.13,-3.41,-7.15,-3.43,3.44,3.65,3.78,-3.69,-3.71,-3.72
114.10,-7.06,-3.34,-7.07,-3.35,3.37,3.60,3.78,-3.69,-3.70,-3.72
115.24,-7.00,-3.29,-7.00,-3.28,3.30,3.55,3.77,-3.70,-3.70,-3.71
116.39,-6.96,-3.25,-6.95,-3.24,3.24,3.50,3.76,-3.72,-3.71,-3.71
117.55,-6.89,-3.20,-6.90,-3.20,3.19,3.45,3.75,-3.71,-3.71,-3.69
118.73,-6.84,-3.16,-6.84,-3.16,3.14,3.40,3.73,-3.70,-3.70,-3.68
119.92,-6.78,-3.12,-6.78,-3.11,3.11,3.35,3.72,-3.68,-3.67,-3.66
121.12,-6.71,-3.07,-6.71,-3.07,3.08,3.31,3.70,-3.63,-3.63,-3.64
122.33,-6.65,-3.03,-6.65,-3.03,3.06,3.26,3.68,-3.59,-3.60,-3.62
123.55,-6.61,-3.01,-6.62,-3.02,3.04,3.21,3.65,-3.57,-3.58,-3.60
124.79,-6.60,-3.02,-6.61,-3.03,3.02,3.17,3.63,-3.58,-3.58,-3.58
126.03,-6.61,-3.05,-6.60,-3.03,3.02,3.12,3.60,-3.60,-3.58,-3.56
127.29,-6.58,-3.04,-6.57,-3.02,3.01,3.08,3.56,-3.57,-3.56,-3.54
128.57,-6.52,-3.00,-6.53,-3.01,3.01,3.04,3.53,-3.52,-3.52,-3.52
129.85,-6.47,-2.97,-6.49,-2.99,3.00,2.99,3.49,-3.48,-3.49,-3.50
131.15,-6.47,-2.99,-6.47,-2.99,2.98,2.95,3.45,-3.49,-3.49,-3.48
132.46,-6.46,-2.99,-6.45,-2.98,2.96,2.91,3.40,-3.50,-3.50,-3.47
133.79,-6.44,-2.99,-6.42,-2.96,2.94,2.86,3.35,-3.50,-3.48,-3.45
135.12,-6.34,-2.90,-6.35,-2.91,2.92,2.82,3.30,-3.42,-3.43,-3.44
136.48,-6.28,-2.86,-6.29,-2.87,2.90,2.78,3.25,-3.38,-3.39,-3.42
137.84,-6.25,-2.84,-6.25,-2.84,2.89,2.74,3.20,-3.36,-3.37,-3.41
139.22,-6.25,-2.85,-6.25,-2.85,2.87,2.70,3.14,-3.39,-3.39,-3.40
140.61,-6.25,-2.86,-6.25,-2.86,2.84,2.66,3.09,-3.41,-3.41,-3.39
142.02,-6.26,-2.88,-6.24,-2.85,2.81,2.62,3.03,-3.45,-3.43,-3.38
143.44,-6.20,-2.82,-6.21,-2.83,2.79,2.58,2.97,-3.41,-3.41,-3.38
144.87,-6.15,-2.77,-6.15,-2.77,2.77,2.54,2.91,-3.38,-3.38,-3.38
146.32,-6.10,-2.72,-6.10,-2.71,2.75,2.50,2.85,-3.36,-3.35,-3.38
147.78,-6.05,-2.66,-6.06,-2.67,2.71,2.46,2.79,-3.34,-3.35,-3.39
149.26,-6.04,-2.64,-6.04,-2.64,2.66,2.42,2.72,-3.38,-3.39,-3.40
150.75,-6.04,-2.62,-6.05,-2.62,2.60,2.38,2.66,-3.44,-3.45,-3.42
152.26,-6.04,-2.59,-6.04,-2.58,2.54,2.35,2.60,-3.51,-3.50,-3.45
153.78,-6.02,-2.54,-5.99,-2.51,2.47,2.31,2.54,-3.55,-3.53,-3.48
155.32,-5.92,-2.40,-5.94,-2.42,2.39,2.27,2.48,-3.53,-3.54,-3.52
156.88,-5.84,-2.29,-5.86,-2.30,2.32,2.23,2.42,-3.52,-3.54,-3.55
158.44,-5.82,-2.23,-5.80,-2.21,2.24,2.20,2.36,-3.58,-3.56,-3.59
160.03,-5.74,-2.12,-5.77,-2.15,2.17,2.16,2.30,-3.57,-3.60,-3.62
161.63,-5.74,-2.10,-5.74,-2.09,2.10,2.12,2.25,-3.64,-3.63,-3.64
163.24,-5.73,-2.06,-5.70,-2.03,2.05,2.09,2.19,-3.68,-3.65,-3.67
164.88,-5.65,-1.97,-5.68,-1.99,2.01,2.05,2.14,-3.64,-3.67,-3.68
166.53,-5.65,-1.96,-5.66,-1.97,1.97,2.02,2.08,-3.68,-3.69,-3.69
168.19,-5.66,-1.97,-5.65,-1.96,1.95,1.98,2.03,-3.72,-3.71,-3.69
169.87,-5.66,-1.98,-5.64,-1.95,1.92,1.95,1.98,-3.74,-3.72,-3.68
171.57,-5.59,-1.92,-5.60,-1.93,1.90,1.91,1.93,-3.69,-3.70,-3.67
173.29,-5.52,-1.87,-5.53,-1.88,1.89,1.88,1.88,-3.63,-3.65,-3.65
175.02,-5.48,-1.86,-5.46,-1.84,1.87,1.84,1.83,-3.61,-3.59,-3.62
176.77,-5.40,-1.81,-5.42,-1.83,1.85,1.81,1.79,-3.55,-3.57,-3.59
178.54,-5.38,-1.82,-5.39,-1.83,1.83,1.78,1.74,-3.55,-3.56,-3.56
180.32,-5.38,-1.86,-5.36,-1.83,1.81,1.74,1.70,-3.57,-3.55,-3.52
182.13,-5.32,-1.83,-5.31,-1.82,1.80,1.71,1.66,-3.52,-3.51,-3.49
183.95,-5.24,-1.79,-5.25,-1.79,1.79,1.68,1.62,-3.46,-3.46,-3.45
185.79,-5.16,-1.73,-5.18,-1.75,1.77,1.65,1.58,-3.39,-3.41,-3.43
187.65,-5.14,-1.73,-5.14,-1.73,1.75,1.61,1.54,-3.39,-3.39,-3.41
189.52,-5.12,-1.73,-5.12,-1.73,1.72,1.58,1.51,-3.40,-3.40,-3.39
191.42,-5.11,-1.73,-5.10,-1.72,1.68,1.55,1.47,-3.43,-3.42,-3.38
193.33,-5.05,-1.69,-5.05,-1.68,1.65,1.52,1.44,-3.41,-3.40,-3.36
195.27,-4.98,-1.63,-4.98,-1.62,1.61,1.49,1.40,-3.37,-3.37,-3.35
197.22,-4.90,-1.55,-4.91,-1.56,1.58,1.46,1.37,-3.32,-3.32,-3.35
199.19,-4.85,-1.51,-4.86,-1.52,1.56,1.43,1.34,-3.29,-3.30,-3.34
201.18,-4.84,-1.50,-4.84,-1.50,1.54,1.40,1.31,-3.30,-3.30,-3.34
203.19,-4.84,-1.50,-4.84,-1.50,1.51,1.36,1.28,-3.33,-3.33,-3.34
205.23,-4.84,-1.50,-4.85,-1.50,1.49,1.33,1.25,-3.36,-3.36,-3.34
207.28,-4.84,-1.50,-4.84,-1.50,1.46,1.31,1.22,-3.38,-3.38,-3.34
209.35,-4.84,-1.50,-4.83,-1.49,1.44,1.28,1.20,-3.40,-3.39,-3.34
211.44,-4.79,-1.44,-4.79,-1.44,1.42,1.25,1.17,-3.37,-3.37,-3.35
213.56,-4.75,-1.40,-4.74,-1.38,1.39,1.22,1.14,-3.36,-3.34,-3.35
215.69,-4.66,-1.30,-4.69,-1.32,1.36,1.19,1.12,-3.30,-3.33,-3.36
217.85,-4.65,-1.29,-4.66,-1.30,1.33,1.16,1.09,-3.32,-3.33,-3.36
220.03,-4.66,-1.29,-4.65,-1.28,1.29,1.13,1.07,-3.37,-3.36,-3.37
222.23,-4.66,-1.29,-4.65,-1.28,1.26,1.10,1.05,-3.40,-3.38,-3.37
224.45,-4.63,-1.26,-4.62,-1.25,1.24,1.07,1.02,-3.39,-3.38,-3.37
226.70,-4.57,-1.20,-4.59,-1.22,1.21,1.05,1.00,-3.36,-3.38,-3.37
228.96,-4.55,-1.18,-4.56,-1.19,1.19,1.02,0.98,-3.36,-3.37,-3.37
231.25,-4.55,-1.19,-4.53,-1.16,1.16,0.99,0.95,-3.39,-3.37,-3.36
233.57,-4.49,-1.13,-4.49,-1.13,1.12,0.96,0.93,-3.37,-3.37,-3.36
235.90,-4.42,-1.07,-4.44,-1.08,1.08,0.94,0.91,-3.34,-3.36,-3.35
238.26,-4.39,-1.05,-4.38,-1.04,1.04,0.91,0.88,-3.35,-3.34,-3.34
240.64,-4.31,-0.99,-4.33,-1.00,1.00,0.88,0.86,-3.31,-3.33,-3.32
243.05,-4.28,-0.97,-4.27,-0.96,0.96,0.85,0.84,-3.32,-3.32,-3.31
245.48,-4.23,-0.93,-4.21,-0.91,0.92,0.83,0.81,-3.32,-3.29,-3.30
247.93,-4.13,-0.84,-4.16,-0.87,0.88,0.80,0.79,-3.26,-3.28,-3.29
250.41,-4.11,-0.83,-4.12,-0.84,0.84,0.78,0.76,-3.27,-3.28,-3.28
252.92,-4.09,-0.82,-4.09,-0.81,0.81,0.75,0.74,-3.28,-3.28,-3.27
255.45,-4.08,-0.81,-4.06,-0.79,0.78,0.72,0.71,-3.30,-3.28,-3.27
258.00,-4.01,-0.74,-4.02,-0.75,0.75,0.70,0.69,-3.26,-3.27,-3.27
260.58,-3.97,-0.70,-3.99,-0.71,0.72,0.67,0.66,-3.25,-3.26,-3.27
263.19,-3.97,-0.70,-3.97,-0.70,0.70,0.65,0.64,-3.27,-3.27,-3.27
265.82,-3.97,-0.70,-3.97,-0.69,0.68,0.62,0.61,-3.29,-3.28,-3.27
268.48,-3.97,-0.70,-3.95,-0.67,0.67,0.59,0.58,-3.30,-3.28,-3.27
271.16,-3.90,-0.63,-3.92,-0.64,0.66,0.57,0.56,-3.24,-3.26,-3.27
273.87,-3.87,-0.60,-3.89,-0.62,0.64,0.54,0.53,-3.23,-3.25,-3.27
276.61,-3.88,-0.61,-3.88,-0.60,0.62,0.52,0.50,-3.26,-3.26,-3.27
279.38,-3.88,-0.61,-3.88,-0.61,0.59,0.49,0.47,-3.29,-3.29,-3.27
282.17,-3.87,-0.61,-3.87,-0.61,0.55,0.47,0.44,-3.32,-3.32,-3.26
284.99,-3.82,-0.57,-3.82,-0.56,0.51,0.44,0.42,-3.31,-3.31,-3.25
287.84,-3.76,-0.51,-3.73,-0.48,0.48,0.42,0.39,-3.29,-3.25,-3.25
290.72,-3.61,-0.37,-3.63,-0.39,0.43,0.39,0.36,-3.18,-3.20,-3.24
293.63,-3.53,-0.30,-3.56,-0.32,0.39,0.37,0.33,-3.15,-3.17,-3.23
296.57,-3.52,-0.30,-3.53,-0.30,0.33,0.34,0.30,-3.19,-3.19,-3.22
299.53,-3.52,-0.30,-3.51,-0.29,0.27,0.32,0.27,-3.25,-3.24,-3.22
302.53,-3.52,-0.31,-3.48,-0.27,0.22,0.29,0.24,-3.31,-3.26,-3.21
305.55,-3.38,-0.17,-3.41,-0.19,0.16,0.27,0.21,-3.22,-3.25,-3.21
308.61,-3.32,-0.11,-3.32,-0.10,0.10,0.24,0.18,-3.22,-3.22,-3.21
311.69,-3.22,-0.01,-3.24,-0.03,0.04,0.22,0.15,-3.18,-3.20,-3.21
314.81,-3.18,0.04,-3.18,0.04,-0.02,0.19,0.12,-3.21,-3.21,-3.22
317.96,-3.15,0.07,-3.10,0.12,-0.10,0.17,0.09,-3.25,-3.20,-3.22
321.14,-3.01,0.22,-3.05,0.18,-0.17,0.14,0.05,-3.19,-3.22,-3.23
324.35,-2.96,0.27,-2.99,0.25,-0.25,0.12,0.02,-3.21,-3.24,-3.23
327.59,-2.97,0.27,-2.94,0.30,-0.32,0.09,-0.01,-3.29,-3.26,-3.24
330.87,-2.90,0.35,-2.90,0.36,-0.39,0.07,-0.04,-3.29,-3.28,-3.25
334.18,-2.83,0.43,-2.82,0.45,-0.46,0.04,-0.07,-3.29,-3.27,-3.26
337.52,-2.71,0.56,-2.74,0.53,-0.52,0.02,-0.10,-3.23,-3.26,-3.27
340.90,-2.66,0.61,-2.68,0.60,-0.58,-0.01,-0.13,-3.24,-3.26,-3.27
344.30,-2.66,0.62,-2.63,0.66,-0.63,-0.03,-0.17,-3.30,-3.26,-3.28
347.75,-2.59,0.71,-2.59,0.71,-0.69,-0.06,-0.20,-3.28,-3.28,-3.30
351.23,-2.54,0.77,-2.57,0.74,-0.74,-0.09,-0.23,-3.28,-3.31,-3.31
354.74,-2.54,0.78,-2.54,0.78,-0.79,-0.11,-0.26,-3.33,-3.33,-3.32
358.28,-2.55,0.78,-2.53,0.80,-0.84,-0.14,-0.30,-3.39,-3.37,-3.33
361.87,-2.49,0.85,-2.50,0.85,-0.89,-0.16,-0.33,-3.38,-3.38,-3.34
365.49,-2.45,0.91,-2.44,0.92,-0.93,-0.19,-0.36,-3.38,-3.37,-3.36
369.14,-2.36,1.01,-2.38,0.99,-0.97,-0.22,-0.40,-3.34,-3.35,-3.37
372.83,-2.33,1.05,-2.34,1.04,-1.01,-0.24,-0.43,-3.35,-3.35,-3.38
376.56,-2.33,1.06,-2.31,1.08,-1.05,-0.27,-0.47,-3.38,-3.36,-3.39
380.33,-2.31,1.09,-2.32,1.08,-1.08,-0.30,-0.50,-3.39,-3.40,-3.40
384.13,-2.31,1.10,-2.33,1.08,-1.11,-0.33,-0.54,-3.42,-3.44,-3.41
387.97,-2.37,1.05,-2.33,1.09,-1.11,-0.35,-0.57,-3.49,-3.45,-3.42
391.85,-2.33,1.10,-2.33,1.10,-1.11,-0.38,-0.60,-3.44,-3.44,-3.43
395.77,-2.31,1.13,-2.34,1.10,-1.09,-0.41,-0.64,-3.40,-3.43,-3.44
399.73,-2.35,1.10,-2.36,1.09,-1.06,-0.44,-0.68,-3.41,-3.43,-3.45
403.72,-2.44,1.02,-2.42,1.05,-1.02,-0.47,-0.71,-3.46,-3.44,-3.46
407.76,-2.50,0.98,-2.50,0.98,-0.96,-0.50,-0.75,-3.47,-3.46,-3.48
411.84,-2.55,0.94,-2.57,0.92,-0.90,-0.53,-0.78,-3.45,-3.47,-3.49
415.96,-2.67,0.83,-2.66,0.84,-0.82,-0.56,-0.82,-3.50,-3.48,-3.50
420.12,-2.74,0.76,-2.75,0.76,-0.76,-0.59,-0.85,-3.50,-3.51,-3.50
