frequency,raw,error,smoothed,error_smoothed,equalization,parametric_eq,fixed_band_eq,equalized_raw,equalized_smoothed,target
20.00,-0.27,1.26,-0.28,1.26,-1.24,-1.51,-1.44,-1.51,-1.52,-1.53
20.20,-0.20,1.33,-0.20,1.33,-1.33,-1.54,-1.48,-1.53,-1.53,-1.53
20.40,-0.14,1.39,-0.13,1.40,-1.42,-1.56,-1.52,-1.56,-1.55,-1.53
20.61,-0.05,1.48,-0.05,1.48,-1.50,-1.59,-1.56,-1.55,-1.55,-1.53
20.81,0.05,1.58,0.04,1.57,-1.58,-1.62,-1.60,-1.53,-1.54,-1.53
21.02,0.13,1.66,0.13,1.66,-1.65,-1.64,-1.65,-1.52,-1.52,-1.53
21.23,0.21,1.73,0.20,1.73,-1.72,-1.67,-1.70,-1.51,-1.52,-1.53
21.44,0.26,1.78,0.27,1.79,-1.79,-1.70,-1.74,-1.53,-1.52,-1.52
21.66,0.33,1.85,0.33,1.85,-1.85,-1.72,-1.79,-1.52,-1.52,-1.52
21.87,0.39,1.91,0.39,1.91,-1.91,-1.75,-1.84,-1.52,-1.52,-1.52
22.09,0.45,1.97,0.44,1.96,-1.96,-1.78,-1.89,-1.51,-1.52,-1.52
22.31,0.48,2.00,0.49,2.01,-2.00,-1.81,-1.95,-1.52,-1.51,-1.52
22.54,0.54,2.05,0.53,2.05,-2.04,-1.84,-2.00,-1.51,-1.51,-1.52
22.76,0.57,2.08,0.57,2.09,-2.08,-1.87,-2.06,-1.52,-1.52,-1.52
22.99,0.61,2.12,0.61,2.12,-2.13,-1.90,-2.11,-1.52,-1.52,-1.52
23.22,0.65,2.16,0.65,2.16,-2.17,-1.93,-2.17,-1.52,-1.52,-1.51
23.45,0.69,2.20,0.69,2.21,-2.21,-1.96,-2.23,-1.52,-1.52,-1.51
23.69,0.75,2.26,0.75,2.26,-2.26,-1.99,-2.29,-1.51,-1.51,-1.51
23.92,0.81,2.32,0.81,2.31,-2.32,-2.02,-2.36,-1.51,-1.51,-1.51
24.16,0.87,2.38,0.87,2.37,-2.38,-2.05,-2.42,-1.51,-1.51,-1.51
24.40,0.93,2.44,0.93,2.44,-2.44,-2.08,-2.48,-1.51,-1.51,-1.51
24.65,1.00,2.50,1.00,2.51,-2.51,-2.11,-2.55,-1.52,-1.51,-1.51
24.89,1.08,2.58,1.08,2.58,-2.59,-2.14,-2.61,-1.51,-1.51,-1.50
25.14,1.16,2.66,1.16,2.66,-2.66,-2.18,-2.68,-1.50,-1.50,-1.50
25.39,1.24,2.74,1.24,2.74,-2.74,-2.21,-2.75,-1.50,-1.50,-1.50
25.65,1.31,2.81,1.31,2.81,-2.81,-2.24,-2.82,-1.50,-1.50,-1.50
25.91,1.39,2.88,1.39,2.89,-2.88,-2.28,-2.88,-1.50,-1.50,-1.50
26.16,1.46,2.96,1.46,2.95,-2.95,-2.31,-2.95,-1.49,-1.49,-1.50
26.43,1.52,3.01,1.52,3.01,-3.01,-2.35,-3.02,-1.49,-1.49,-1.50
26.69,1.57,3.06,1.56,3.06,-3.06,-2.38,-3.09,-1.49,-1.50,-1.49
26.96,1.61,3.10,1.61,3.10,-3.10,-2.42,-3.15,-1.50,-1.49,-1.49
27.23,1.64,3.13,1.65,3.14,-3.14,-2.45,-3.22,-1.50,-1.49,-1.49
27.50,1.69,3.18,1.67,3.16,-3.16,-2.49,-3.28,-1.47,-1.48,-1.49
27.77,1.69,3.18,1.69,3.18,-3.17,-2.52,-3.34,-1.48,-1.47,-1.49
28.05,1.69,3.18,1.69,3.18,-3.16,-2.56,-3.41,-1.48,-1.47,-1.49
28.33,1.69,3.17,1.67,3.16,-3.15,-2.60,-3.46,-1.47,-1.48,-1.49
28.62,1.64,3.12,1.66,3.14,-3.14,-2.63,-3.52,-1.50,-1.48,-1.48
28.90,1.64,3.12,1.64,3.12,-3.12,-2.67,-3.58,-1.48,-1.48,-1.48
29.19,1.64,3.12,1.62,3.10,-3.10,-2.71,-3.63,-1.46,-1.48,-1.48
29.48,1.60,3.08,1.60,3.09,-3.09,-2.75,-3.68,-1.49,-1.48,-1.48
29.78,1.59,3.07,1.60,3.07,-3.09,-2.78,-3.72,-1.50,-1.49,-1.48
30.08,1.60,3.08,1.60,3.08,-3.09,-2.82,-3.76,-1.50,-1.49,-1.48
30.38,1.64,3.11,1.63,3.11,-3.12,-2.86,-3.80,-1.48,-1.49,-1.48
30.68,1.67,3.14,1.67,3.15,-3.15,-2.90,-3.84,-1.49,-1.48,-1.48
30.99,1.73,3.20,1.73,3.20,-3.21,-2.94,-3.87,-1.48,-1.48,-1.47
31.30,1.80,3.27,1.80,3.27,-3.27,-2.98,-3.89,-1.48,-1.48,-1.47
31.61,1.88,3.35,1.88,3.35,-3.35,-3.02,-3.92,-1.48,-1.47,-1.47
31.93,1.99,3.46,1.97,3.44,-3.45,-3.06,-3.94,-1.46,-1.47,-1.47
32.24,2.07,3.54,2.07,3.54,-3.55,-3.10,-3.95,-1.48,-1.48,-1.47
32.57,2.18,3.64,2.18,3.65,-3.65,-3.14,-3.97,-1.48,-1.47,-1.47
32.89,2.29,3.75,2.29,3.76,-3.76,-3.18,-3.98,-1.47,-1.47,-1.47
33.22,2.42,3.88,2.41,3.88,-3.87,-3.22,-3.98,-1.45,-1.46,-1.46
33.55,2.53,3.99,2.52,3.99,-3.97,-3.26,-3.99,-1.45,-1.45,-1.46
33.89,2.63,4.09,2.62,4.09,-4.07,-3.31,-3.99,-1.44,-1.45,-1.46
34.23,2.70,4.16,2.71,4.17,-4.16,-3.35,-3.99,-1.46,-1.46,-1.46
34.57,2.79,4.25,2.78,4.24,-4.24,-3.39,-3.98,-1.45,-1.46,-1.46
34.92,2.85,4.30,2.85,4.31,-4.31,-3.43,-3.98,-1.46,-1.46,-1.46
35.27,2.92,4.37,2.91,4.37,-4.37,-3.47,-3.97,-1.45,-1.45,-1.46
35.62,2.97,4.42,2.96,4.42,-4.41,-3.51,-3.97,-1.45,-1.45,-1.45
35.97,2.99,4.44,3.00,4.45,-4.45,-3.56,-3.96,-1.46,-1.45,-1.45
36.33,3.03,4.48,3.02,4.47,-4.47,-3.60,-3.95,-1.44,-1.45,-1.45
36.70,3.04,4.49,3.03,4.48,-4.49,-3.64,-3.94,-1.45,-1.45,-1.45
37.06,3.04,4.49,3.04,4.49,-4.49,-3.68,-3.94,-1.45,-1.44,-1.45
37.43,3.04,4.49,3.04,4.49,-4.48,-3.73,-3.93,-1.45,-1.45,-1.45
37.81,3.04,4.48,3.03,4.47,-4.47,-3.77,-3.93,-1.43,-1.44,-1.45
38.19,3.00,4.44,3.01,4.45,-4.45,-3.81,-3.92,-1.45,-1.44,-1.44
38.57,2.99,4.43,2.98,4.43,-4.42,-3.85,-3.92,-1.44,-1.44,-1.44
38.95,2.95,4.39,2.95,4.39,-4.39,-3.89,-3.92,-1.45,-1.44,-1.44
39.34,2.93,4.37,2.93,4.37,-4.36,-3.94,-3.92,-1.44,-1.44,-1.44
39.74,2.90,4.34,2.89,4.33,-4.34,-3.98,-3.92,-1.44,-1.44,-1.44
40.14,2.87,4.31,2.87,4.31,-4.31,-4.02,-3.93,-1.44,-1.44,-1.44
40.54,2.85,4.28,2.85,4.29,-4.29,-4.06,-3.93,-1.44,-1.44,-1.44
40.94,2.85,4.28,2.84,4.28,-4.28,-4.10,-3.94,-1.43,-1.44,-1.44
41.35,2.85,4.28,2.84,4.28,-4.28,-4.14,-3.95,-1.43,-1.44,-1.43
41.76,2.85,4.28,2.86,4.29,-4.30,-4.18,-3.97,-1.45,-1.44,-1.43
42.18,2.88,4.31,2.88,4.31,-4.32,-4.22,-3.99,-1.44,-1.44,-1.43
42.60,2.92,4.35,2.92,4.35,-4.36,-4.26,-4.01,-1.44,-1.45,-1.43
43.03,2.97,4.40,2.97,4.40,-4.41,-4.29,-4.03,-1.44,-1.44,-1.43
43.46,3.03,4.45,3.03,4.46,-4.47,-4.33,-4.06,-1.44,-1.44,-1.43
43.90,3.11,4.53,3.10,4.53,-4.53,-4.37,-4.09,-1.42,-1.43,-1.43
44.33,3.18,4.60,3.17,4.60,-4.60,-4.40,-4.12,-1.42,-1.42,-1.42
44.78,3.24,4.66,3.24,4.66,-4.65,-4.43,-4.16,-1.42,-1.42,-1.42
45.23,3.29,4.71,3.29,4.71,-4.70,-4.46,-4.20,-1.42,-1.41,-1.42
45.68,3.33,4.75,3.33,4.75,-4.74,-4.49,-4.24,-1.41,-1.41,-1.42
46.13,3.36,4.78,3.35,4.77,-4.76,-4.52,-4.28,-1.40,-1.40,-1.42
46.60,3.36,4.78,3.35,4.77,-4.75,-4.54,-4.33,-1.40,-1.40,-1.42
47.06,3.33,4.74,3.33,4.75,-4.73,-4.56,-4.38,-1.40,-1.40,-1.42
47.53,3.29,4.70,3.29,4.70,-4.69,-4.58,-4.44,-1.41,-1.40,-1.41
48.01,3.24,4.65,3.23,4.65,-4.64,-4.59,-4.50,-1.40,-1.41,-1.41
48.49,3.17,4.58,3.17,4.58,-4.58,-4.60,-4.56,-1.41,-1.41,-1.41
48.97,3.09,4.50,3.09,4.50,-4.51,-4.60,-4.62,-1.42,-1.42,-1.41
49.46,3.01,4.42,3.01,4.42,-4.44,-4.59,-4.68,-1.43,-1.43,-1.41
49.96,2.94,4.35,2.94,4.35,-4.36,-4.58,-4.75,-1.42,-1.42,-1.41
50.46,2.88,4.28,2.88,4.28,-4.29,-4.56,-4.82,-1.41,-1.41,-1.41
50.96,2.82,4.22,2.82,4.22,-4.22,-4.53,-4.89,-1.40,-1.41,-1.40
51.47,2.76,4.16,2.76,4.16,-4.15,-4.49,-4.96,-1.40,-1.40,-1.40
51.99,2.69,4.09,2.70,4.10,-4.09,-4.43,-5.03,-1.40,-1.39,-1.40
52.51,2.64,4.04,2.63,4.03,-4.02,-4.37,-5.10,-1.38,-1.39,-1.40
53.03,2.58,3.98,2.57,3.97,-3.96,-4.29,-5.18,-1.38,-1.39,-1.40
53.56,2.51,3.91,2.51,3.91,-3.90,-4.21,-5.25,-1.40,-1.39,-1.40
54.10,2.46,3.85,2.45,3.85,-3.85,-4.13,-5.32,-1.40,-1.40,-1.40
54.64,2.41,3.80,2.41,3.81,-3.82,-4.05,-5.40,-1.41,-1.40,-1.40
55.18,2.39,3.78,2.39,3.78,-3.80,-3.99,-5.47,-1.41,-1.41,-1.39
55.74,2.39,3.78,2.38,3.78,-3.79,-3.97,-5.54,-1.41,-1.41,-1.39
56.29,2.40,3.79,2.40,3.79,-3.81,-3.98,-5.60,-1.41,-1.41,-1.39
56.86,2.45,3.84,2.45,3.84,-3.85,-4.04,-5.67,-1.40,-1.40,-1.39
57.42,2.51,3.90,2.51,3.90,-3.90,-4.13,-5.73,-1.39,-1.39,-1.39
58.00,2.60,3.98,2.59,3.98,-3.97,-4.26,-5.78,-1.38,-1.38,-1.39
58.58,2.68,4.06,2.68,4.07,-4.06,-4.40,-5.83,-1.38,-1.38,-1.39
59.16,2.79,4.17,2.79,4.17,-4.16,-4.55,-5.88,-1.37,-1.38,-1.38
59.76,2.90,4.28,2.89,4.28,-4.27,-4.71,-5.93,-1.38,-1.38,-1.38
60.35,3.01,4.39,3.01,4.39,-4.39,-4.85,-5.96,-1.39,-1.38,-1.38
60.96,3.14,4.52,3.13,4.51,-4.52,-4.99,-5.99,-1.38,-1.39,-1.38
61.57,3.27,4.65,3.27,4.65,-4.65,-5.11,-6.02,-1.39,-1.39,-1.38
62.18,3.41,4.79,3.41,4.79,-4.79,-5.23,-6.04,-1.38,-1.38,-1.38
62.80,3.57,4.94,3.56,4.94,-4.93,-5.33,-6.05,-1.37,-1.37,-1.38
63.43,3.71,5.08,3.71,5.08,-5.08,-5.43,-6.06,-1.37,-1.37,-1.37
64.07,3.85,5.22,3.85,5.23,-5.22,-5.52,-6.06,-1.37,-1.37,-1.37
64.71,4.00,5.37,3.99,5.37,-5.36,-5.59,-6.06,-1.37,-1.37,-1.37
65.35,4.14,5.51,4.13,5.50,-5.50,-5.66,-6.05,-1.36,-1.37,-1.37
66.01,4.27,5.64,4.27,5.64,-5.64,-5.73,-6.03,-1.37,-1.37,-1.37
66.67,4.40,5.77,4.40,5.77,-5.77,-5.79,-6.01,-1.37,-1.36,-1.37
67.33,4.53,5.89,4.52,5.89,-5.89,-5.84,-5.99,-1.36,-1.36,-1.37
68.01,4.65,6.01,4.64,6.01,-6.01,-5.89,-5.96,-1.36,-1.36,-1.36
68.69,4.75,6.11,4.75,6.12,-6.12,-5.94,-5.93,-1.37,-1.36,-1.36
69.37,4.86,6.22,4.86,6.22,-6.22,-5.98,-5.89,-1.37,-1.37,-1.36
70.07,4.97,6.33,4.96,6.33,-6.33,-6.02,-5.85,-1.36,-1.36,-1.36
70.77,5.06,6.42,5.06,6.42,-6.42,-6.05,-5.81,-1.36,-1.36,-1.36
71.48,5.17,6.53,5.16,6.51,-6.51,-6.09,-5.77,-1.35,-1.36,-1.36
72.19,5.23,6.58,5.24,6.60,-6.60,-6.12,-5.73,-1.37,-1.36,-1.36
72.91,5.33,6.68,5.33,6.68,-6.68,-6.14,-5.69,-1.35,-1.36,-1.36
73.64,5.40,6.75,5.40,6.76,-6.76,-6.17,-5.64,-1.36,-1.36,-1.35
74.38,5.49,6.84,5.48,6.83,-6.83,-6.19,-5.60,-1.34,-1.35,-1.35
75.12,5.54,6.89,5.54,6.89,-6.89,-6.21,-5.56,-1.35,-1.35,-1.35
75.87,5.60,6.95,5.60,6.95,-6.95,-6.23,-5.52,-1.35,-1.35,-1.35
76.63,5.65,7.00,5.65,6.99,-6.99,-6.25,-5.48,-1.35,-1.35,-1.35
77.40,5.68,7.02,5.69,7.04,-7.04,-6.26,-5.45,-1.36,-1.35,-1.35
78.17,5.74,7.08,5.72,7.06,-7.07,-6.27,-5.41,-1.33,-1.35,-1.35
78.95,5.74,7.08,5.75,7.09,-7.10,-6.28,-5.38,-1.36,-1.35,-1.34
79.74,5.76,7.10,5.77,7.11,-7.11,-6.29,-5.35,-1.36,-1.35,-1.34
80.54,5.79,7.13,5.78,7.12,-7.12,-6.30,-5.33,-1.33,-1.34,-1.34
81.35,5.79,7.13,5.78,7.13,-7.12,-6.30,-5.31,-1.33,-1.33,-1.34
82.16,5.78,7.12,5.77,7.11,-7.10,-6.31,-5.29,-1.33,-1.33,-1.34
82.98,5.74,7.08,5.75,7.09,-7.07,-6.31,-5.27,-1.34,-1.33,-1.34
83.81,5.72,7.05,5.71,7.05,-7.03,-6.31,-5.26,-1.31,-1.32,-1.34
84.65,5.67,7.00,5.66,7.00,-6.98,-6.31,-5.26,-1.31,-1.32,-1.33
85.50,5.61,6.94,5.60,6.94,-6.92,-6.30,-5.25,-1.31,-1.32,-1.33
86.35,5.53,6.86,5.54,6.87,-6.86,-6.30,-5.25,-1.34,-1.33,-1.33
87.22,5.47,6.80,5.47,6.80,-6.81,-6.29,-5.26,-1.34,-1.35,-1.33
88.09,5.42,6.75,5.41,6.74,-6.77,-6.28,-5.27,-1.35,-1.36,-1.33
88.97,5.37,6.70,5.38,6.71,-6.74,-6.27,-5.28,-1.38,-1.36,-1.33
89.86,5.37,6.69,5.38,6.70,-6.73,-6.26,-5.29,-1.37,-1.36,-1.33
90.76,5.41,6.73,5.39,6.72,-6.73,-6.25,-5.32,-1.33,-1.34,-1.33
91.66,5.42,6.74,5.43,6.75,-6.75,-6.24,-5.34,-1.33,-1.32,-1.32
92.58,5.46,6.78,5.46,6.78,-6.77,-6.22,-5.37,-1.31,-1.31,-1.32
93.51,5.50,6.82,5.49,6.81,-6.79,-6.20,-5.40,-1.29,-1.30,-1.32
94.44,5.51,6.83,5.51,6.83,-6.81,-6.18,-5.44,-1.30,-1.30,-1.32
95.39,5.51,6.83,5.52,6.83,-6.82,-6.16,-5.48,-1.31,-1.30,-1.32
96.34,5.51,6.82,5.51,6.82,-6.82,-6.14,-5.52,-1.31,-1.31,-1.32
97.30,5.51,6.82,5.49,6.81,-6.81,-6.12,-5.57,-1.30,-1.31,-1.32
98.28,5.46,6.77,5.47,6.79,-6.79,-6.09,-5.62,-1.34,-1.32,-1.31
99.26,5.46,6.77,5.45,6.76,-6.77,-6.07,-5.67,-1.32,-1.32,-1.31
100.25,5.42,6.73,5.43,6.74,-6.75,-6.04,-5.72,-1.33,-1.32,-1.31
101.25,5.42,6.73,5.41,6.72,-6.72,-6.01,-5.78,-1.30,-1.31,-1.31
102.27,5.38,6.69,5.38,6.69,-6.68,-5.98,-5.84,-1.31,-1.30,-1.31
103.29,5.35,6.65,5.35,6.66,-6.65,-5.95,-5.90,-1.30,-1.30,-1.31
104.32,5.32,6.62,5.31,6.61,-6.61,-5.92,-5.96,-1.29,-1.30,-1.31
105.37,5.26,6.56,5.26,6.57,-6.57,-5.88,-6.02,-1.31,-1.30,-1.30
106.42,5.21,6.51,5.22,6.52,-6.52,-5.85,-6.09,-1.31,-1.31,-1.30
107.48,5.18,6.48,5.17,6.47,-6.47,-5.81,-6.15,-1.30,-1.31,-1.30
108.56,5.12,6.42,5.12,6.42,-6.42,-5.78,-6.21,-1.31,-1.30,-1.30
109.64,5.07,6.37,5.07,6.37,-6.37,-5.74,-6.26,-1.30,-1.30,-1.30
110.74,5.02,6.32,5.02,6.32,-6.32,-5.70,-6.32,-1.30,-1.30,-1.30
111.85,4.97,6.26,4.97,6.26,-6.26,-5.66,-6.37,-1.29,-1.29,-1.30
112.97,4.92,6.21,4.91,6.21,-6.20,-5.61,-6.42,-1.29,-1.29,-1.29
114.10,4.85,6.14,4.85,6.15,-6.15,-5.57,-6.46,-1.30,-1.29,-1.29
115.24,4.79,6.08,4.79,6.08,-6.08,-5.53,-6.50,-1.30,-1.29,-1.29
116.39,4.74,6.03,4.73,6.02,-6.02,-5.48,-6.53,-1.28,-1.29,-1.29
117.55,4.66,5.95,4.67,5.95,-5.95,-5.44,-6.56,-1.29,-1.29,-1.29
118.73,4.60,5.89,4.60,5.88,-5.88,-5.39,-6.57,-1.29,-1.29,-1.29
119.92,4.53,5.81,4.52,5.81,-5.81,-5.34,-6.58,-1.29,-1.29,-1.29
121.12,4.45,5.73,4.45,5.74,-5.74,-5.29,-6.58,-1.29,-1.29,-1.29
122.33,4.38,5.66,4.38,5.66,-5.67,-5.24,-6.57,-1.29,-1.29,-1.28
123.55,4.32,5.60,4.31,5.59,-5.59,-5.19,-6.55,-1.27,-1.28,-1.28
124.79,4.23,5.51,4.23,5.51,-5.51,-5.14,-6.52,-1.28,-1.28,-1.28
126.03,4.16,5.44,4.15,5.43,-5.43,-5.09,-6.48,-1.27,-1.28,-1.28
127.29,4.06,5.34,4.07,5.34,-5.35,-5.04,-6.42,-1.29,-1.28,-1.28
128.57,4.00,5.27,3.99,5.26,-5.27,-4.98,-6.36,-1.27,-1.28,-1.28
129.85,3.89,5.16,3.90,5.18,-5.18,-4.93,-6.29,-1.29,-1.28,-1.28
131.15,3.83,5.10,3.81,5.09,-5.09,-4.87,-6.21,-1.26,-1.28,-1.27
132.46,3.72,4.99,3.73,5.00,-5.00,-4.82,-6.12,-1.28,-1.27,-1.27
133.79,3.63,4.90,3.63,4.90,-4.90,-4.76,-6.03,-1.27,-1.27,-1.27
135.12,3.55,4.82,3.53,4.80,-4.79,-4.70,-5.92,-1.25,-1.27,-1.27
136.48,3.41,4.68,3.42,4.69,-4.68,-4.64,-5.81,-1.28,-1.26,-1.27
137.84,3.31,4.57,3.31,4.58,-4.57,-4.58,-5.69,-1.26,-1.26,-1.27
139.22,3.20,4.46,3.19,4.45,-4.45,-4.52,-5.56,-1.25,-1.26,-1.27
140.61,3.06,4.32,3.06,4.33,-4.32,-4.46,-5.43,-1.26,-1.25,-1.26
142.02,2.94,4.20,2.93,4.20,-4.19,-4.40,-5.30,-1.25,-1.26,-1.26
143.44,2.80,4.06,2.80,4.06,-4.07,-4.34,-5.16,-1.27,-1.27,-1.26
144.87,2.68,3.94,2.68,3.94,-3.95,-4.28,-5.02,-1.27,-1.27,-1.26
146.32,2.56,3.82,2.56,3.82,-3.84,-4.21,-4.87,-1.28,-1.27,-1.26
147.78,2.47,3.73,2.47,3.72,-3.73,-4.15,-4.73,-1.27,-1.27,-1.26
149.26,2.38,3.63,2.38,3.63,-3.64,-4.08,-4.58,-1.26,-1.26,-1.26
150.75,2.30,3.55,2.30,3.55,-3.56,-4.02,-4.43,-1.26,-1.26,-1.25
152.26,2.22,3.47,2.22,3.48,-3.48,-3.95,-4.28,-1.26,-1.25,-1.25
153.78,2.16,3.41,2.16,3.41,-3.40,-3.89,-4.13,-1.25,-1.25,-1.25
155.32,2.09,3.34,2.09,3.34,-3.33,-3.82,-3.97,-1.24,-1.24,-1.25
156.88,2.03,3.28,2.02,3.27,-3.26,-3.75,-3.82,-1.23,-1.24,-1.25
158.44,1.94,3.19,1.95,3.20,-3.19,-3.68,-3.67,-1.25,-1.24,-1.25
160.03,1.88,3.12,1.87,3.12,-3.12,-3.61,-3.52,-1.24,-1.25,-1.25
161.63,1.80,3.04,1.79,3.04,-3.04,-3.54,-3.38,-1.25,-1.25,-1.25
163.24,1.72,2.96,1.73,2.97,-2.97,-3.47,-3.23,-1.25,-1.24,-1.24
164.88,1.65,2.89,1.65,2.89,-2.89,-3.40,-3.08,-1.24,-1.24,-1.24
166.53,1.59,2.83,1.57,2.81,-2.81,-3.33,-2.94,-1.22,-1.23,-1.24
168.19,1.48,2.72,1.49,2.73,-2.73,-3.26,-2.79,-1.25,-1.24,-1.24
169.87,1.41,2.65,1.40,2.64,-2.65,-3.18,-2.65,-1.24,-1.25,-1.24
171.57,1.31,2.54,1.32,2.55,-2.57,-3.11,-2.51,-1.26,-1.25,-1.24
173.29,1.25,2.48,1.25,2.48,-2.49,-3.04,-2.37,-1.24,-1.24,-1.24
175.02,1.18,2.41,1.17,2.40,-2.40,-2.96,-2.24,-1.23,-1.23,-1.23
176.77,1.10,2.33,1.10,2.33,-2.32,-2.89,-2.10,-1.23,-1.22,-1.23
178.54,1.02,2.25,1.02,2.25,-2.24,-2.81,-1.97,-1.22,-1.22,-1.23
180.32,0.95,2.18,0.94,2.17,-2.16,-2.73,-1.83,-1.21,-1.22,-1.23
182.13,0.85,2.08,0.85,2.08,-2.08,-2.65,-1.70,-1.23,-1.23,-1.23
183.95,0.78,2.00,0.77,2.00,-2.00,-2.58,-1.57,-1.23,-1.23,-1.23
185.79,0.69,1.91,0.69,1.92,-1.93,-2.50,-1.44,-1.24,-1.24,-1.23
187.65,0.63,1.85,0.63,1.85,-1.87,-2.42,-1.32,-1.24,-1.24,-1.22
189.52,0.57,1.79,0.56,1.79,-1.81,-2.33,-1.19,-1.24,-1.24,-1.22
191.42,0.52,1.74,0.52,1.74,-1.75,-2.25,-1.07,-1.23,-1.23,-1.22
193.33,0.47,1.69,0.48,1.70,-1.70,-2.17,-0.95,-1.23,-1.22,-1.22
195.27,0.45,1.67,0.44,1.66,-1.65,-2.09,-0.83,-1.20,-1.21,-1.22
197.22,0.41,1.63,0.40,1.62,-1.60,-2.00,-0.71,-1.19,-1.20,-1.22
199.19,0.35,1.56,0.35,1.57,-1.55,-1.92,-0.59,-1.20,-1.20,-1.22
201.18,0.29,1.50,0.29,1.50,-1.50,-1.83,-0.47,-1.21,-1.21,-1.21
203.19,0.22,1.43,0.22,1.44,-1.44,-1.74,-0.36,-1.22,-1.21,-1.21
205.23,0.17,1.38,0.16,1.37,-1.38,-1.65,-0.24,-1.21,-1.21,-1.21
207.28,0.10,1.31,0.10,1.31,-1.31,-1.56,-0.13,-1.21,-1.21,-1.21
209.35,0.03,1.24,0.03,1.24,-1.25,-1.47,-0.02,-1.22,-1.21,-1.21
211.44,-0.03,1.18,-0.03,1.18,-1.18,-1.38,0.08,-1.21,-1.21,-1.21
213.56,-0.09,1.11,-0.09,1.11,-1.12,-1.29,0.19,-1.21,-1.21,-1.21
215.69,-0.15,1.05,-0.15,1.05,-1.05,-1.19,0.29,-1.21,-1.21,-1.21
217.85,-0.21,0.99,-0.21,0.99,-0.99,-1.10,0.39,-1.20,-1.21,-1.20
220.03,-0.27,0.93,-0.27,0.93,-0.93,-1.00,0.49,-1.20,-1.20,-1.20
222.23,-0.34,0.86,-0.34,0.87,-0.87,-0.90,0.59,-1.21,-1.20,-1.20
224.45,-0.39,0.81,-0.40,0.80,-0.80,-0.80,0.68,-1.19,-1.20,-1.20
226.70,-0.46,0.74,-0.46,0.73,-0.74,-0.70,0.77,-1.20,-1.20,-1.20
228.96,-0.53,0.66,-0.53,0.67,-0.66,-0.60,0.86,-1.20,-1.19,-1.20
231.25,-0.61,0.58,-0.61,0.59,-0.59,-0.50,0.94,-1.20,-1.20,-1.20
233.57,-0.68,0.51,-0.69,0.50,-0.50,-0.39,1.02,-1.19,-1.19,-1.19
235.90,-0.78,0.41,-0.78,0.42,-0.41,-0.28,1.10,-1.20,-1.19,-1.19
238.26,-0.87,0.32,-0.87,0.32,-0.32,-0.18,1.17,-1.19,-1.19,-1.19
240.64,-0.97,0.22,-0.98,0.21,-0.21,-0.07,1.24,-1.18,-1.18,-1.19
243.05,-1.08,0.11,-1.09,0.10,-0.09,0.05,1.31,-1.17,-1.18,-1.19
245.48,-1.22,-0.04,-1.21,-0.02,0.03,0.16,1.37,-1.19,-1.18,-1.19
247.93,-1.34,-0.16,-1.35,-0.16,0.16,0.28,1.43,-1.18,-1.18,-1.19
250.41,-1.48,-0.30,-1.49,-0.31,0.30,0.39,1.49,-1.19,-1.19,-1.18
252.92,-1.64,-0.46,-1.63,-0.45,0.44,0.51,1.54,-1.21,-1.20,-1.18
255.45,-1.78,-0.60,-1.78,-0.60,0.58,0.64,1.58,-1.20,-1.20,-1.18
258.00,-1.92,-0.74,-1.92,-0.74,0.73,0.76,1.63,-1.19,-1.20,-1.18
260.58,-2.06,-0.88,-2.06,-0.89,0.89,0.88,1.67,-1.18,-1.18,-1.18
263.19,-2.22,-1.04,-2.21,-1.04,1.05,1.01,1.70,-1.17,-1.16,-1.18
265.82,-2.37,-1.20,-2.38,-1.21,1.23,1.14,1.74,-1.14,-1.15,-1.18
268.48,-2.56,-1.39,-2.57,-1.40,1.43,1.27,1.77,-1.13,-1.15,-1.17
271.16,-2.79,-1.62,-2.78,-1.61,1.63,1.40,1.80,-1.16,-1.15,-1.17
273.87,-3.01,-1.84,-3.01,-1.84,1.85,1.54,1.82,-1.16,-1.16,-1.17
276.61,-3.23,-2.06,-3.24,-2.07,2.07,1.67,1.85,-1.16,-1.17,-1.17
279.38,-3.47,-2.30,-3.47,-2.30,2.30,1.81,1.87,-1.18,-1.17,-1.17
282.17,-3.69,-2.52,-3.69,-2.52,2.51,1.95,1.89,-1.18,-1.18,-1.17
284.99,-3.88,-2.72,-3.88,-2.72,2.70,2.09,1.91,-1.18,-1.18,-1.17
287.84,-4.05,-2.89,-4.05,-2.89,2.87,2.24,1.92,-1.19,-1.19,-1.17
290.72,-4.19,-3.03,-4.19,-3.03,3.00,2.38,1.94,-1.20,-1.19,-1.16
293.63,-4.30,-3.14,-4.30,-3.14,3.10,2.53,1.96,-1.21,-1.21,-1.16
296.57,-4.37,-3.21,-4.37,-3.21,3.16,2.67,1.97,-1.21,-1.21,-1.16
299.53,-4.42,-3.26,-4.40,-3.24,3.21,2.82,1.99,-1.21,-1.19,-1.16
302.53,-4.38,-3.22,-4.40,-3.24,3.25,2.97,2.00,-1.14,-1.15,-1.16
305.55,-4.38,-3.23,-4.39,-3.24,3.27,3.12,2.02,-1.11,-1.12,-1.16
308.61,-4.40,-3.25,-4.40,-3.25,3.30,3.26,2.04,-1.10,-1.10,-1.16
311.69,-4.45,-3.30,-4.45,-3.30,3.34,3.41,2.06,-1.11,-1.12,-1.15
314.81,-4.51,-3.36,-4.52,-3.36,3.39,3.56,2.07,-1.13,-1.13,-1.15
317.96,-4.61,-3.46,-4.60,-3.45,3.45,3.70,2.09,-1.16,-1.15,-1.15
321.14,-4.67,-3.52,-4.69,-3.54,3.53,3.84,2.12,-1.14,-1.16,-1.15
324.35,-4.78,-3.63,-4.78,-3.63,3.62,3.98,2.14,-1.17,-1.16,-1.15
327.59,-4.87,-3.73,-4.87,-3.72,3.71,4.12,2.16,-1.16,-1.15,-1.15
330.87,-4.95,-3.81,-4.96,-3.81,3.81,4.25,2.19,-1.14,-1.15,-1.15
334.18,-5.04,-3.90,-5.04,-3.90,3.90,4.38,2.22,-1.14,-1.14,-1.14
337.52,-5.12,-3.98,-5.13,-3.99,3.99,4.50,2.24,-1.13,-1.14,-1.14
340.90,-5.23,-4.09,-5.22,-4.08,4.07,4.62,2.28,-1.16,-1.15,-1.14
344.30,-5.30,-4.16,-5.31,-4.16,4.15,4.73,2.31,-1.15,-1.15,-1.14
347.75,-5.38,-4.24,-5.38,-4.24,4.22,4.83,2.34,-1.16,-1.15,-1.14
351.23,-5.44,-4.30,-5.44,-4.31,4.30,4.92,2.38,-1.14,-1.15,-1.14
354.74,-5.50,-4.37,-5.50,-4.37,4.37,5.01,2.42,-1.13,-1.13,-1.14
358.28,-5.57,-4.44,-5.56,-4.43,4.44,5.09,2.46,-1.13,-1.12,-1.13
361.87,-5.62,-4.49,-5.63,-4.50,4.52,5.15,2.50,-1.10,-1.12,-1.13
365.49,-5.71,-4.58,-5.71,-4.58,4.60,5.21,2.55,-1.11,-1.11,-1.13
369.14,-5.80,-4.67,-5.80,-4.67,4.68,5.25,2.59,-1.12,-1.12,-1.13
372.83,-5.88,-4.75,-5.89,-4.76,4.76,5.29,2.64,-1.12,-1.13,-1.13
376.56,-5.99,-4.86,-5.98,-4.85,4.85,5.31,2.69,-1.15,-1.13,-1.13
380.33,-6.06,-4.94,-6.06,-4.94,4.93,5.32,2.75,-1.14,-1.14,-1.13
384.13,-6.13,-5.01,-6.14,-5.01,5.00,5.32,2.80,-1.13,-1.14,-1.13
387.97,-6.20,-5.08,-6.20,-5.07,5.06,5.31,2.86,-1.14,-1.14,-1.12
391.85,-6.24,-5.12,-6.24,-5.12,5.11,5.29,2.91,-1.13,-1.13,-1.12
395.77,-6.29,-5.17,-6.28,-5.16,5.15,5.26,2.97,-1.14,-1.13,-1.12
399.73,-6.29,-5.17,-6.31,-5.19,5.19,5.22,3.03,-1.10,-1.12,-1.12
403.72,-6.34,-5.22,-6.33,-5.21,5.22,5.17,3.09,-1.12,-1.11,-1.12
407.76,-6.34,-5.23,-6.35,-5.23,5.25,5.11,3.15,-1.10,-1.10,-1.12
411.84,-6.38,-5.27,-6.38,-5.26,5.27,5.04,3.21,-1.11,-1.10,-1.12
415.96,-6.38,-5.27,-6.39,-5.28,5.30,4.96,3.28,-1.08,-1.09,-1.11
420.12,-6.43,-5.32,-6.42,-5.31,5.32,4.88,3.34,-1.11,-1.10,-1.11
424.32,-6.43,-5.32,-6.45,-5.34,5.34,4.79,3.40,-1.09,-1.11,-1.11
428.56,-6.48,-5.37,-6.47,-5.36,5.35,4.70,3.46,-1.13,-1.11,-1.11
432.85,-6.47,-5.36,-6.47,-5.36,5.35,4.60,3.51,-1.12,-1.11,-1.11
437.18,-6.43,-5.33,-6.46,-5.35,5.34,4.50,3.57,-1.09,-1.12,-1.11
441.55,-6.43,-5.33,-6.42,-5.31,5.30,4.40,3.62,-1.13,-1.11,-1.11
445.96,-6.36,-5.26,-6.36,-5.26,5.24,4.29,3.67,-1.12,-1.12,-1.10
450.42,-6.28,-5.18,-6.28,-5.18,5.16,4.19,3.72,-1.13,-1.13,-1.10
454.93,-6.17,-5.07,-6.16,-5.06,5.05,4.08,3.77,-1.13,-1.12,-1.10
459.48,-6.02,-4.92,-6.02,-4.92,4.91,3.97,3.81,-1.11,-1.11,-1.10
