frequency,raw,error,smoothed,error_smoothed,equalization,parametric_eq,fixed_band_eq,equalized_raw,equalized_smoothed,target
20.00,-17.27,-17.92,-17.27,-17.92,6.00,7.01,3.02,-11.27,-11.27,0.65
20.20,-17.10,-17.81,-17.10,-17.80,6.00,6.99,3.11,-11.10,-11.10,0.71
20.40,-16.92,-17.68,-16.92,-17.69,6.00,6.98,3.19,-10.92,-10.92,0.76
20.61,-16.75,-17.57,-16.75,-17.57,6.00,6.96,3.29,-10.75,-10.75,0.82
20.81,-16.58,-17.45,-16.58,-17.45,6.00,6.95,3.38,-10.58,-10.58,0.87
21.02,-16.40,-17.33,-16.40,-17.33,6.00,6.93,3.48,-10.40,-10.40,0.93
21.23,-16.23,-17.21,-16.23,-17.21,6.00,6.92,3.57,-10.23,-10.23,0.98
21.44,-16.05,-17.08,-16.05,-17.08,6.00,6.90,3.68,-10.05,-10.05,1.03
21.66,-15.87,-16.95,-15.87,-16.95,6.00,6.88,3.78,-9.87,-9.87,1.08
21.87,-15.69,-16.82,-15.69,-16.82,6.00,6.87,3.89,-9.69,-9.69,1.13
22.09,-15.51,-16.69,-15.51,-16.69,6.00,6.85,4.00,-9.51,-9.51,1.18
22.31,-15.34,-16.56,-15.33,-16.56,6.00,6.83,4.11,-9.34,-9.33,1.23
22.54,-15.16,-16.43,-15.16,-16.43,6.00,6.82,4.23,-9.16,-9.16,1.27
22.76,-14.98,-16.29,-14.98,-16.30,6.00,6.80,4.35,-8.98,-8.98,1.32
22.99,-14.80,-16.16,-14.80,-16.16,6.00,6.78,4.47,-8.80,-8.80,1.36
23.22,-14.62,-16.03,-14.62,-16.02,6.00,6.76,4.59,-8.62,-8.62,1.41
23.45,-14.44,-15.88,-14.44,-15.89,6.00,6.74,4.72,-8.44,-8.44,1.45
23.69,-14.26,-15.76,-14.26,-15.75,6.00,6.73,4.85,-8.26,-8.26,1.49
23.92,-14.08,-15.61,-14.08,-15.61,6.00,6.71,4.99,-8.08,-8.08,1.53
24.16,-13.89,-15.47,-13.89,-15.47,6.00,6.69,5.12,-7.89,-7.89,1.58
24.40,-13.71,-15.33,-13.71,-15.33,6.00,6.67,5.26,-7.71,-7.71,1.62
24.65,-13.52,-15.18,-13.52,-15.18,6.00,6.65,5.40,-7.52,-7.52,1.66
24.89,-13.34,-15.04,-13.34,-15.04,6.00,6.63,5.54,-7.34,-7.34,1.70
25.14,-13.15,-14.89,-13.15,-14.89,6.00,6.61,5.69,-7.15,-7.15,1.74
25.39,-12.97,-14.75,-12.97,-14.75,6.00,6.59,5.83,-6.97,-6.97,1.78
25.65,-12.78,-14.60,-12.78,-14.60,6.00,6.57,5.98,-6.78,-6.78,1.82
25.91,-12.60,-14.46,-12.60,-14.46,6.00,6.54,6.13,-6.60,-6.60,1.86
26.16,-12.41,-14.31,-12.41,-14.31,6.00,6.52,6.28,-6.41,-6.41,1.90
26.43,-12.23,-14.16,-12.23,-14.16,6.00,6.50,6.42,-6.23,-6.23,1.93
26.69,-12.04,-14.01,-12.04,-14.01,6.00,6.48,6.57,-6.04,-6.04,1.97
26.96,-11.86,-13.87,-11.86,-13.86,6.00,6.46,6.71,-5.86,-5.86,2.01
27.23,-11.67,-13.71,-11.67,-13.71,6.00,6.43,6.85,-5.67,-5.67,2.03
27.50,-11.49,-13.56,-11.49,-13.56,6.00,6.41,6.99,-5.49,-5.49,2.07
27.77,-11.30,-13.41,-11.30,-13.41,6.00,6.39,7.12,-5.30,-5.30,2.11
28.05,-11.12,-13.26,-11.12,-13.26,6.00,6.36,7.25,-5.12,-5.12,2.14
28.33,-10.93,-13.11,-10.93,-13.11,6.00,6.34,7.37,-4.93,-4.93,2.18
28.62,-10.74,-12.96,-10.74,-12.96,6.00,6.32,7.48,-4.74,-4.74,2.22
28.90,-10.55,-12.81,-10.55,-12.81,6.00,6.29,7.58,-4.55,-4.55,2.26
29.19,-10.37,-12.66,-10.37,-12.66,6.00,6.27,7.68,-4.37,-4.37,2.29
29.48,-10.18,-12.51,-10.18,-12.51,6.00,6.24,7.76,-4.18,-4.18,2.33
29.78,-10.00,-12.37,-10.00,-12.36,6.00,6.22,7.83,-4.00,-4.00,2.37
30.08,-9.82,-12.22,-9.82,-12.22,6.00,6.20,7.89,-3.82,-3.82,2.39
30.38,-9.64,-12.08,-9.64,-12.07,6.00,6.17,7.94,-3.64,-3.64,2.43
30.68,-9.46,-11.92,-9.47,-11.93,6.00,6.15,7.97,-3.46,-3.47,2.46
30.99,-9.29,-11.79,-9.29,-11.79,6.00,6.12,7.99,-3.29,-3.29,2.50
31.30,-9.11,-11.64,-9.11,-11.64,6.00,6.10,7.98,-3.11,-3.11,2.53
31.61,-8.92,-11.48,-8.93,-11.48,6.00,6.08,7.97,-2.92,-2.93,2.56
31.93,-8.74,-11.33,-8.74,-11.33,6.00,6.05,7.94,-2.74,-2.74,2.59
32.24,-8.57,-11.18,-8.57,-11.18,6.00,6.03,7.90,-2.57,-2.57,2.62
32.57,-8.39,-11.03,-8.39,-11.04,6.00,6.01,7.84,-2.39,-2.39,2.64
32.89,-8.22,-10.89,-8.22,-10.89,6.00,5.99,7.78,-2.22,-2.22,2.67
33.22,-8.04,-10.73,-8.04,-10.73,6.00,5.97,7.69,-2.04,-2.04,2.69
33.55,-7.86,-10.58,-7.86,-10.57,6.00,5.95,7.60,-1.86,-1.86,2.72
33.89,-7.68,-10.42,-7.68,-10.42,6.00,5.93,7.50,-1.68,-1.68,2.74
34.23,-7.50,-10.25,-7.50,-10.26,6.00,5.91,7.38,-1.50,-1.50,2.75
34.57,-7.32,-10.10,-7.32,-10.10,6.00,5.89,7.26,-1.32,-1.32,2.78
34.92,-7.14,-9.94,-7.14,-9.94,6.00,5.88,7.13,-1.14,-1.14,2.80
35.27,-6.96,-9.78,-6.96,-9.78,6.00,5.87,6.99,-0.96,-0.96,2.82
35.62,-6.78,-9.62,-6.78,-9.62,6.00,5.86,6.85,-0.78,-0.78,2.84
35.97,-6.60,-9.45,-6.60,-9.45,6.00,5.85,6.71,-0.60,-0.60,2.85
36.33,-6.43,-9.29,-6.43,-9.29,6.00,5.85,6.56,-0.43,-0.43,2.86
36.70,-6.25,-9.13,-6.25,-9.13,6.00,5.85,6.41,-0.25,-0.25,2.88
37.06,-6.08,-8.97,-6.08,-8.97,6.00,5.85,6.25,-0.08,-0.08,2.90
37.43,-5.90,-8.80,-5.89,-8.80,6.00,5.85,6.10,0.10,0.11,2.90
37.81,-5.71,-8.63,-5.71,-8.63,6.00,5.86,5.94,0.29,0.29,2.92
38.19,-5.53,-8.46,-5.53,-8.46,6.00,5.88,5.79,0.47,0.47,2.93
38.57,-5.36,-8.29,-5.36,-8.30,6.00,5.89,5.64,0.64,0.64,2.94
38.95,-5.19,-8.13,-5.18,-8.13,6.00,5.91,5.48,0.81,0.82,2.94
39.34,-5.01,-7.96,-5.00,-7.95,6.00,5.93,5.33,0.99,1.00,2.95
39.74,-4.82,-7.78,-4.82,-7.78,6.00,5.95,5.18,1.18,1.18,2.96
40.14,-4.64,-7.59,-4.64,-7.60,6.00,5.96,5.03,1.36,1.36,2.95
40.54,-4.47,-7.43,-4.47,-7.42,6.00,5.98,4.89,1.53,1.53,2.96
40.94,-4.29,-7.25,-4.29,-7.25,6.00,5.98,4.74,1.71,1.71,2.96
41.35,-4.11,-7.07,-4.11,-7.07,6.01,5.97,4.60,1.90,1.90,2.96
41.76,-3.93,-6.89,-3.93,-6.89,6.02,5.95,4.46,2.10,2.10,2.97
42.18,-3.75,-6.71,-3.75,-6.72,6.03,5.91,4.32,2.28,2.28,2.96
42.60,-3.58,-6.55,-3.58,-6.54,6.03,5.86,4.19,2.45,2.45,2.97
43.03,-3.41,-6.37,-3.41,-6.37,6.01,5.78,4.06,2.60,2.60,2.96
43.46,-3.24,-6.21,-3.24,-6.21,5.97,5.69,3.93,2.73,2.73,2.97
43.90,-3.07,-6.04,-3.07,-6.03,5.90,5.58,3.81,2.83,2.83,2.96
44.33,-2.90,-5.87,-2.90,-5.87,5.81,5.46,3.69,2.91,2.91,2.97
44.78,-2.73,-5.69,-2.73,-5.70,5.69,5.33,3.57,2.96,2.96,2.96
45.23,-2.57,-5.54,-2.57,-5.53,5.55,5.19,3.45,2.98,2.99,2.97
45.68,-2.40,-5.36,-2.40,-5.36,5.39,5.05,3.34,2.99,2.99,2.96
46.13,-2.23,-5.18,-2.23,-5.19,5.22,4.91,3.22,2.99,2.99,2.96
46.60,-2.06,-5.02,-2.06,-5.02,5.04,4.77,3.12,2.98,2.97,2.96
47.06,-1.90,-4.85,-1.90,-4.85,4.85,4.63,3.01,2.95,2.96,2.95
47.53,-1.73,-4.68,-1.73,-4.68,4.68,4.49,2.91,2.95,2.95,2.95
48.01,-1.56,-4.51,-1.56,-4.51,4.50,4.35,2.80,2.94,2.94,2.95
48.49,-1.39,-4.34,-1.39,-4.33,4.33,4.22,2.71,2.94,2.94,2.94
48.97,-1.22,-4.16,-1.22,-4.16,4.16,4.09,2.61,2.95,2.95,2.94
49.46,-1.05,-3.99,-1.05,-3.99,3.99,3.97,2.51,2.95,2.95,2.94
49.96,-0.88,-3.81,-0.89,-3.82,3.83,3.85,2.42,2.95,2.94,2.93
50.46,-0.73,-3.67,-0.73,-3.66,3.66,3.73,2.33,2.93,2.93,2.93
50.96,-0.57,-3.50,-0.57,-3.50,3.49,3.61,2.24,2.92,2.92,2.93
51.47,-0.41,-3.34,-0.41,-3.33,3.33,3.50,2.16,2.92,2.92,2.93
51.99,-0.24,-3.16,-0.24,-3.16,3.16,3.38,2.07,2.92,2.92,2.92
52.51,-0.08,-2.99,-0.08,-3.00,3.00,3.27,1.99,2.92,2.92,2.91
53.03,0.08,-2.83,0.08,-2.83,2.83,3.16,1.91,2.91,2.91,2.91
53.56,0.23,-2.67,0.23,-2.67,2.66,3.05,1.83,2.90,2.90,2.90
54.10,0.39,-2.50,0.39,-2.50,2.50,2.94,1.75,2.89,2.89,2.89
54.64,0.55,-2.33,0.55,-2.33,2.33,2.83,1.68,2.88,2.88,2.88
55.18,0.71,-2.16,0.71,-2.16,2.17,2.72,1.60,2.88,2.87,2.87
55.74,0.85,-2.01,0.85,-2.00,2.00,2.61,1.53,2.85,2.86,2.86
56.29,1.00,-1.84,1.00,-1.84,1.84,2.51,1.46,2.84,2.84,2.84
56.86,1.14,-1.69,1.14,-1.68,1.68,2.40,1.38,2.82,2.82,2.83
57.42,1.29,-1.51,1.29,-1.51,1.52,2.29,1.31,2.81,2.80,2.80
58.00,1.43,-1.35,1.43,-1.35,1.36,2.18,1.25,2.79,2.78,2.78
58.58,1.56,-1.20,1.56,-1.20,1.20,2.07,1.18,2.76,2.76,2.76
59.16,1.69,-1.04,1.69,-1.04,1.04,1.96,1.11,2.73,2.73,2.73
59.76,1.82,-0.89,1.82,-0.89,0.89,1.85,1.04,2.71,2.70,2.71
60.35,1.94,-0.74,1.94,-0.74,0.74,1.74,0.98,2.68,2.68,2.68
60.96,2.06,-0.59,2.06,-0.59,0.59,1.63,0.91,2.65,2.65,2.65
61.57,2.18,-0.45,2.18,-0.44,0.45,1.52,0.85,2.63,2.63,2.63
62.18,2.29,-0.30,2.29,-0.31,0.31,1.41,0.79,2.60,2.60,2.59
62.80,2.39,-0.17,2.39,-0.17,0.18,1.30,0.72,2.57,2.57,2.57
63.43,2.49,-0.05,2.49,-0.05,0.05,1.19,0.66,2.54,2.54,2.54
64.07,2.58,0.07,2.59,0.07,-0.07,1.07,0.60,2.51,2.51,2.51
64.71,2.68,0.20,2.68,0.19,-0.19,0.96,0.54,2.49,2.49,2.48
65.35,2.77,0.31,2.77,0.30,-0.30,0.84,0.47,2.47,2.47,2.47
66.01,2.85,0.40,2.85,0.41,-0.40,0.73,0.41,2.45,2.45,2.45
66.67,2.93,0.50,2.93,0.50,-0.50,0.62,0.35,2.43,2.43,2.43
67.33,3.01,0.60,3.01,0.60,-0.60,0.50,0.29,2.41,2.41,2.41
68.01,3.08,0.68,3.08,0.69,-0.69,0.38,0.23,2.39,2.40,2.40
68.69,3.16,0.77,3.16,0.77,-0.77,0.27,0.17,2.39,2.39,2.39
69.37,3.23,0.85,3.23,0.85,-0.85,0.15,0.11,2.38,2.38,2.38
70.07,3.30,0.94,3.30,0.93,-0.93,0.04,0.05,2.37,2.37,2.36
70.77,3.36,1.01,3.36,1.01,-1.00,-0.08,-0.01,2.36,2.36,2.35
71.48,3.42,1.07,3.42,1.07,-1.08,-0.19,-0.08,2.34,2.35,2.35
72.19,3.48,1.14,3.48,1.14,-1.15,-0.31,-0.14,2.34,2.33,2.34
72.91,3.53,1.21,3.53,1.21,-1.21,-0.43,-0.20,2.32,2.32,2.32
73.64,3.59,1.28,3.59,1.28,-1.28,-0.54,-0.26,2.31,2.31,2.31
74.38,3.64,1.35,3.64,1.35,-1.35,-0.66,-0.33,2.29,2.29,2.29
75.12,3.70,1.42,3.70,1.42,-1.42,-0.77,-0.39,2.28,2.28,2.28
75.87,3.74,1.48,3.75,1.49,-1.49,-0.88,-0.46,2.25,2.26,2.26
76.63,3.80,1.56,3.80,1.56,-1.55,-1.00,-0.52,2.25,2.24,2.24
77.40,3.85,1.63,3.85,1.63,-1.62,-1.11,-0.59,2.23,2.23,2.22
78.17,3.89,1.69,3.89,1.69,-1.69,-1.22,-0.65,2.20,2.20,2.20
78.95,3.93,1.75,3.93,1.75,-1.75,-1.33,-0.72,2.18,2.18,2.18
79.74,3.97,1.81,3.97,1.81,-1.82,-1.44,-0.79,2.15,2.15,2.16
80.54,4.02,1.88,4.02,1.88,-1.89,-1.55,-0.86,2.13,2.13,2.14
81.35,4.07,1.95,4.07,1.95,-1.95,-1.65,-0.93,2.12,2.12,2.12
82.16,4.12,2.02,4.12,2.02,-2.02,-1.76,-1.00,2.10,2.10,2.10
82.98,4.17,2.09,4.17,2.09,-2.08,-1.86,-1.07,2.09,2.09,2.08
83.81,4.22,2.15,4.22,2.15,-2.15,-1.96,-1.15,2.07,2.07,2.07
84.65,4.27,2.22,4.27,2.21,-2.21,-2.06,-1.22,2.06,2.06,2.06
85.50,4.31,2.27,4.31,2.27,-2.27,-2.16,-1.30,2.04,2.04,2.04
86.35,4.35,2.32,4.35,2.32,-2.33,-2.25,-1.38,2.02,2.02,2.03
87.22,4.39,2.37,4.39,2.38,-2.38,-2.35,-1.46,2.01,2.01,2.02
88.09,4.43,2.43,4.44,2.43,-2.43,-2.44,-1.54,2.00,2.00,2.00
88.97,4.48,2.49,4.48,2.49,-2.48,-2.52,-1.62,2.00,2.00,1.99
89.86,4.51,2.54,4.51,2.53,-2.53,-2.61,-1.70,1.99,1.98,1.97
90.76,4.53,2.57,4.53,2.57,-2.57,-2.69,-1.78,1.96,1.96,1.96
91.66,4.54,2.60,4.55,2.61,-2.61,-2.77,-1.87,1.93,1.94,1.94
92.58,4.56,2.64,4.56,2.64,-2.64,-2.85,-1.96,1.92,1.92,1.93
93.51,4.58,2.68,4.57,2.67,-2.68,-2.92,-2.04,1.90,1.90,1.90
94.44,4.58,2.70,4.59,2.71,-2.71,-2.99,-2.13,1.88,1.88,1.88
95.39,4.59,2.74,4.59,2.74,-2.73,-3.06,-2.22,1.86,1.86,1.86
96.34,4.60,2.77,4.59,2.77,-2.76,-3.13,-2.31,1.84,1.83,1.83
97.30,4.59,2.80,4.59,2.80,-2.79,-3.19,-2.41,1.80,1.80,1.79
98.28,4.58,2.82,4.58,2.82,-2.82,-3.25,-2.50,1.76,1.76,1.76
99.26,4.57,2.85,4.57,2.85,-2.85,-3.31,-2.59,1.72,1.72,1.73
100.25,4.57,2.88,4.57,2.88,-2.89,-3.36,-2.69,1.68,1.68,1.69
101.25,4.57,2.92,4.57,2.92,-2.92,-3.41,-2.78,1.65,1.65,1.65
102.27,4.57,2.96,4.57,2.96,-2.96,-3.46,-2.88,1.61,1.61,1.61
103.29,4.57,3.00,4.57,3.00,-3.00,-3.51,-2.97,1.57,1.57,1.57
104.32,4.57,3.05,4.57,3.04,-3.04,-3.55,-3.06,1.53,1.53,1.52
105.37,4.57,3.08,4.57,3.09,-3.09,-3.59,-3.16,1.48,1.48,1.49
106.42,4.57,3.13,4.57,3.13,-3.13,-3.62,-3.25,1.44,1.44,1.44
107.48,4.57,3.17,4.57,3.17,-3.17,-3.66,-3.34,1.40,1.40,1.40
108.56,4.57,3.22,4.57,3.22,-3.22,-3.69,-3.43,1.35,1.35,1.35
109.64,4.57,3.26,4.57,3.26,-3.26,-3.72,-3.52,1.31,1.31,1.31
110.74,4.57,3.31,4.57,3.30,-3.30,-3.74,-3.60,1.27,1.27,1.26
111.85,4.57,3.34,4.57,3.34,-3.34,-3.76,-3.68,1.23,1.23,1.23
112.97,4.57,3.38,4.57,3.38,-3.38,-3.78,-3.75,1.19,1.19,1.19
114.10,4.57,3.42,4.57,3.42,-3.42,-3.80,-3.83,1.15,1.15,1.15
115.24,4.57,3.46,4.57,3.46,-3.46,-3.82,-3.90,1.11,1.11,1.11
116.39,4.57,3.49,4.57,3.49,-3.50,-3.83,-3.96,1.07,1.07,1.08
117.55,4.58,3.53,4.58,3.53,-3.54,-3.84,-4.02,1.05,1.04,1.05
118.73,4.58,3.57,4.58,3.57,-3.57,-3.85,-4.07,1.01,1.02,1.01
119.92,4.59,3.60,4.59,3.60,-3.60,-3.86,-4.11,0.99,0.99,0.99
121.12,4.60,3.64,4.59,3.63,-3.62,-3.86,-4.16,0.98,0.97,0.96
122.33,4.59,3.64,4.59,3.65,-3.64,-3.86,-4.19,0.95,0.95,0.95
123.55,4.58,3.66,4.58,3.66,-3.65,-3.86,-4.22,0.93,0.93,0.92
124.79,4.56,3.66,4.56,3.66,-3.66,-3.86,-4.23,0.90,0.90,0.90
126.03,4.54,3.66,4.54,3.66,-3.66,-3.86,-4.25,0.88,0.89,0.88
127.29,4.52,3.66,4.52,3.66,-3.65,-3.86,-4.25,0.87,0.87,0.86
128.57,4.49,3.64,4.49,3.64,-3.64,-3.85,-4.25,0.85,0.85,0.85
129.85,4.45,3.63,4.45,3.63,-3.63,-3.84,-4.24,0.82,0.82,0.82
131.15,4.41,3.60,4.42,3.61,-3.62,-3.83,-4.23,0.79,0.80,0.81
132.46,4.39,3.60,4.39,3.60,-3.61,-3.82,-4.21,0.78,0.78,0.79
133.79,4.36,3.59,4.36,3.59,-3.60,-3.81,-4.18,0.77,0.77,0.77
135.12,4.33,3.58,4.33,3.59,-3.59,-3.80,-4.15,0.75,0.75,0.75
136.48,4.31,3.58,4.30,3.58,-3.58,-3.79,-4.11,0.73,0.73,0.73
137.84,4.27,3.56,4.28,3.57,-3.57,-3.77,-4.07,0.70,0.71,0.71
139.22,4.25,3.57,4.25,3.57,-3.56,-3.75,-4.03,0.69,0.68,0.68
140.61,4.22,3.56,4.21,3.56,-3.56,-3.74,-3.98,0.66,0.66,0.66
142.02,4.17,3.54,4.18,3.55,-3.55,-3.72,-3.93,0.62,0.63,0.63
143.44,4.16,3.55,4.15,3.54,-3.55,-3.70,-3.87,0.61,0.61,0.61
144.87,4.12,3.53,4.13,3.54,-3.54,-3.68,-3.82,0.58,0.59,0.59
146.32,4.11,3.55,4.10,3.54,-3.53,-3.66,-3.76,0.58,0.57,0.56
147.78,4.07,3.53,4.07,3.53,-3.53,-3.63,-3.70,0.54,0.54,0.54
149.26,4.04,3.52,4.04,3.52,-3.52,-3.61,-3.64,0.52,0.52,0.52
150.75,4.01,3.52,4.01,3.51,-3.52,-3.59,-3.58,0.49,0.49,0.49
152.26,3.98,3.51,3.98,3.51,-3.52,-3.56,-3.52,0.46,0.47,0.47
153.78,3.96,3.51,3.96,3.51,-3.52,-3.54,-3.46,0.44,0.44,0.45
155.32,3.95,3.52,3.95,3.52,-3.52,-3.51,-3.40,0.43,0.43,0.43
156.88,3.93,3.52,3.93,3.52,-3.52,-3.48,-3.35,0.41,0.41,0.41
158.44,3.92,3.53,3.92,3.53,-3.53,-3.46,-3.29,0.39,0.39,0.39
160.03,3.90,3.53,3.90,3.53,-3.53,-3.43,-3.23,0.37,0.37,0.37
161.63,3.89,3.53,3.89,3.54,-3.54,-3.40,-3.18,0.36,0.36,0.36
163.24,3.88,3.54,3.87,3.54,-3.53,-3.37,-3.13,0.35,0.34,0.34
164.88,3.85,3.53,3.86,3.54,-3.53,-3.34,-3.07,0.32,0.33,0.32
166.53,3.83,3.52,3.83,3.53,-3.52,-3.31,-3.02,0.31,0.31,0.31
168.19,3.80,3.51,3.80,3.51,-3.51,-3.28,-2.98,0.30,0.29,0.29
169.87,3.76,3.49,3.76,3.49,-3.49,-3.25,-2.93,0.27,0.28,0.27
171.57,3.73,3.47,3.73,3.47,-3.47,-3.22,-2.89,0.26,0.26,0.26
173.29,3.70,3.45,3.70,3.45,-3.45,-3.19,-2.85,0.25,0.25,0.26
175.02,3.67,3.42,3.67,3.43,-3.44,-3.16,-2.81,0.24,0.24,0.25
176.77,3.65,3.42,3.65,3.41,-3.42,-3.13,-2.77,0.24,0.24,0.23
178.54,3.63,3.39,3.63,3.40,-3.40,-3.09,-2.74,0.24,0.24,0.24
180.32,3.62,3.39,3.61,3.38,-3.38,-3.06,-2.71,0.24,0.24,0.23
182.13,3.59,3.36,3.59,3.36,-3.36,-3.03,-2.68,0.23,0.23,0.23
183.95,3.56,3.34,3.57,3.34,-3.34,-3.00,-2.65,0.22,0.22,0.22
185.79,3.54,3.31,3.54,3.32,-3.32,-2.96,-2.62,0.22,0.22,0.23
187.65,3.52,3.30,3.52,3.30,-3.30,-2.93,-2.60,0.22,0.22,0.22
189.52,3.50,3.28,3.50,3.28,-3.28,-2.90,-2.58,0.22,0.22,0.22
191.42,3.48,3.26,3.48,3.26,-3.26,-2.86,-2.56,0.22,0.22,0.22
193.33,3.46,3.24,3.46,3.24,-3.23,-2.83,-2.54,0.23,0.22,0.22
195.27,3.43,3.22,3.43,3.22,-3.21,-2.79,-2.52,0.22,0.23,0.21
197.22,3.40,3.19,3.40,3.19,-3.18,-2.76,-2.51,0.22,0.22,0.21
199.19,3.36,3.15,3.36,3.15,-3.15,-2.72,-2.50,0.21,0.21,0.21
201.18,3.31,3.11,3.31,3.11,-3.11,-2.69,-2.48,0.20,0.20,0.20
203.19,3.27,3.07,3.27,3.07,-3.08,-2.65,-2.47,0.19,0.19,0.20
205.23,3.23,3.04,3.23,3.04,-3.05,-2.62,-2.47,0.18,0.18,0.19
207.28,3.19,3.01,3.19,3.01,-3.02,-2.58,-2.46,0.17,0.18,0.18
209.35,3.16,2.98,3.16,2.98,-2.98,-2.55,-2.45,0.18,0.18,0.18
211.44,3.13,2.96,3.13,2.96,-2.95,-2.51,-2.44,0.18,0.18,0.17
213.56,3.10,2.94,3.10,2.93,-2.92,-2.48,-2.44,0.18,0.17,0.16
215.69,3.06,2.90,3.05,2.89,-2.89,-2.44,-2.43,0.17,0.16,0.16
217.85,3.00,2.84,3.01,2.86,-2.85,-2.41,-2.43,0.15,0.16,0.16
220.03,2.97,2.82,2.97,2.82,-2.82,-2.37,-2.42,0.15,0.15,0.15
222.23,2.93,2.79,2.92,2.78,-2.78,-2.33,-2.41,0.15,0.15,0.14
224.45,2.87,2.74,2.87,2.74,-2.74,-2.30,-2.41,0.13,0.14,0.13
226.70,2.82,2.69,2.81,2.69,-2.70,-2.26,-2.40,0.12,0.12,0.13
228.96,2.75,2.63,2.76,2.65,-2.66,-2.22,-2.39,0.09,0.10,0.12
231.25,2.72,2.61,2.72,2.61,-2.62,-2.19,-2.38,0.10,0.10,0.11
233.57,2.69,2.59,2.68,2.58,-2.58,-2.15,-2.37,0.11,0.10,0.10
235.90,2.64,2.55,2.64,2.55,-2.54,-2.11,-2.35,0.10,0.10,0.09
238.26,2.59,2.52,2.59,2.51,-2.50,-2.08,-2.34,0.09,0.09,0.07
240.64,2.52,2.45,2.53,2.47,-2.46,-2.04,-2.32,0.06,0.07,0.07
243.05,2.47,2.42,2.47,2.42,-2.41,-2.00,-2.30,0.06,0.05,0.05
245.48,2.41,2.37,2.40,2.36,-2.37,-1.96,-2.28,0.04,0.04,0.04
247.93,2.33,2.30,2.34,2.31,-2.32,-1.92,-2.26,0.01,0.02,0.03
250.41,2.27,2.25,2.27,2.25,-2.26,-1.88,-2.23,0.01,0.01,0.02
252.92,2.21,2.20,2.21,2.21,-2.21,-1.84,-2.21,0.00,0.01,0.01
255.45,2.16,2.16,2.16,2.16,-2.15,-1.80,-2.17,0.01,0.01,-0.00
258.00,2.10,2.11,2.09,2.10,-2.09,-1.76,-2.14,0.01,0.00,-0.01
260.58,2.01,2.03,2.02,2.04,-2.03,-1.72,-2.11,-0.02,-0.01,-0.02
263.19,1.94,1.97,1.94,1.96,-1.97,-1.68,-2.07,-0.03,-0.03,-0.03
265.82,1.86,1.89,1.86,1.90,-1.90,-1.63,-2.03,-0.04,-0.04,-0.03
268.48,1.78,1.83,1.79,1.83,-1.83,-1.59,-1.99,-0.05,-0.04,-0.04
271.16,1.72,1.77,1.71,1.76,-1.76,-1.54,-1.94,-0.04,-0.06,-0.05
273.87,1.63,1.69,1.63,1.69,-1.70,-1.50,-1.89,-0.07,-0.07,-0.06
276.61,1.54,1.62,1.55,1.62,-1.63,-1.45,-1.85,-0.09,-0.08,-0.08
279.38,1.47,1.55,1.47,1.56,-1.56,-1.40,-1.80,-0.09,-0.08,-0.08
282.17,1.40,1.49,1.40,1.49,-1.49,-1.35,-1.75,-0.09,-0.09,-0.09
284.99,1.33,1.44,1.32,1.42,-1.41,-1.30,-1.69,-0.08,-0.10,-0.11
287.84,1.22,1.34,1.22,1.34,-1.34,-1.25,-1.64,-0.12,-0.11,-0.12
290.72,1.12,1.25,1.13,1.26,-1.26,-1.19,-1.59,-0.14,-0.13,-0.13
293.63,1.03,1.17,1.03,1.17,-1.18,-1.14,-1.53,-0.15,-0.15,-0.14
296.57,0.94,1.10,0.94,1.09,-1.09,-1.08,-1.47,-0.15,-0.15,-0.16
299.53,0.84,1.01,0.84,1.01,-1.00,-1.02,-1.42,-0.16,-0.16,-0.17
302.53,0.73,0.91,0.73,0.91,-0.91,-0.96,-1.36,-0.18,-0.18,-0.18
305.55,0.62,0.82,0.62,0.81,-0.82,-0.89,-1.30,-0.20,-0.20,-0.19
308.61,0.51,0.72,0.51,0.72,-0.73,-0.82,-1.24,-0.22,-0.22,-0.21
311.69,0.40,0.62,0.41,0.63,-0.63,-0.75,-1.19,-0.23,-0.22,-0.22
314.81,0.31,0.54,0.31,0.54,-0.53,-0.67,-1.13,-0.22,-0.23,-0.23
317.96,0.21,0.45,0.20,0.45,-0.43,-0.60,-1.07,-0.22,-0.23,-0.24
321.14,0.09,0.34,0.09,0.34,-0.33,-0.51,-1.01,-0.24,-0.24,-0.25
324.35,-0.04,0.22,-0.04,0.22,-0.22,-0.43,-0.95,-0.26,-0.26,-0.26
327.59,-0.17,0.09,-0.16,0.11,-0.11,-0.34,-0.90,-0.28,-0.26,-0.26
330.87,-0.27,0.00,-0.28,-0.01,0.01,-0.24,-0.84,-0.26,-0.27,-0.27
334.18,-0.39,-0.12,-0.40,-0.13,0.12,-0.14,-0.78,-0.26,-0.28,-0.27
337.52,-0.54,-0.26,-0.52,-0.25,0.25,-0.03,-0.72,-0.29,-0.28,-0.27
340.90,-0.65,-0.36,-0.65,-0.37,0.37,0.08,-0.67,-0.28,-0.28,-0.29
344.30,-0.78,-0.49,-0.78,-0.49,0.49,0.20,-0.61,-0.29,-0.29,-0.29
347.75,-0.90,-0.61,-0.90,-0.61,0.62,0.32,-0.55,-0.28,-0.28,-0.29
351.23,-1.04,-0.75,-1.04,-0.75,0.75,0.45,-0.50,-0.29,-0.29,-0.29
354.74,-1.17,-0.88,-1.17,-0.88,0.88,0.59,-0.44,-0.29,-0.29,-0.29
358.28,-1.31,-1.02,-1.30,-1.01,1.02,0.73,-0.38,-0.29,-0.29,-0.29
361.87,-1.43,-1.13,-1.44,-1.15,1.15,0.88,-0.33,-0.27,-0.29,-0.29
365.49,-1.59,-1.29,-1.58,-1.28,1.29,1.04,-0.27,-0.30,-0.29,-0.30
369.14,-1.72,-1.42,-1.72,-1.42,1.42,1.20,-0.22,-0.30,-0.29,-0.30
372.83,-1.84,-1.55,-1.85,-1.56,1.55,1.36,-0.16,-0.29,-0.30,-0.29
376.56,-1.98,-1.69,-1.97,-1.68,1.67,1.53,-0.11,-0.31,-0.30,-0.29
380.33,-2.09,-1.79,-2.08,-1.79,1.78,1.70,-0.06,-0.31,-0.30,-0.30
384.13,-2.18,-1.88,-2.18,-1.88,1.88,1.86,-0.00,-0.30,-0.30,-0.30
387.97,-2.27,-1.97,-2.27,-1.97,1.97,2.03,0.05,-0.30,-0.30,-0.30
391.85,-2.35,-2.05,-2.35,-2.04,2.04,2.18,0.10,-0.31,-0.30,-0.30
395.77,-2.42,-2.11,-2.42,-2.11,2.11,2.33,0.16,-0.31,-0.31,-0.30
399.73,-2.47,-2.15,-2.47,-2.16,2.16,2.45,0.21,-0.31,-0.31,-0.32
403.72,-2.52,-2.20,-2.52,-2.20,2.20,2.57,0.26,-0.32,-0.32,-0.32
407.76,-2.55,-2.22,-2.55,-2.23,2.23,2.66,0.31,-0.32,-0.32,-0.33
411.84,-2.58,-2.25,-2.58,-2.25,2.25,2.72,0.36,-0.33,-0.33,-0.33
415.96,-2.60,-2.26,-2.60,-2.26,2.26,2.76,0.40,-0.34,-0.34,-0.34
420.12,-2.62,-2.27,-2.62,-2.26,2.26,2.77,0.45,-0.36,-0.36,-0.35
424.32,-2.62,-2.25,-2.62,-2.25,2.25,2.75,0.50,-0.37,-0.37,-0.37
428.56,-2.61,-2.23,-2.61,-2.23,2.22,2.70,0.54,-0.38,-0.38,-0.38
432.85,-2.59,-2.20,-2.59,-2.19,2.19,2.63,0.58,-0.40,-0.39,-0.39
437.18,-2.55,-2.14,-2.56,-2.15,2.15,2.53,0.62,-0.40,-0.41,-0.41
441.55,-2.53,-2.10,-2.53,-2.10,2.10,2.41,0.66,-0.43,-0.42,-0.43
445.96,-2.49,-2.05,-2.49,-2.04,2.04,2.28,0.70,-0.45,-0.44,-0.44
450.42,-2.44,-1.98,-2.44,-1.98,1.97,2.13,0.73,-0.47,-0.47,-0.46
454.93,-2.38,-1.89,-2.38,-1.90,1.90,1.98,0.76,-0.48,-0.48,-0.48
459.48,-2.32,-1.82,-2.32,-1.82,1.81,1.82,0.79,-0.51,-0.50,-0.50
464.07,-2.24,-1.72,-2.24,-1.73,1.72,1.65,0.82,-0.52,-0.52,-0.52
468.71,-2.16,-1.63,-2.16,-1.63,1.62,1.49,0.84,-0.54,-0.53,-0.53
473.40,-2.06,-1.51,-2.06,-1.52,1.52,1.33,0.86,-0.54,-0.54,-0.55
478.13,-1.96,-1.40,-1.96,-1.41,1.41,1.18,0.88,-0.55,-0.55,-0.56
482.91,-1.86,-1.29,-1.86,-1.29,1.30,1.03,0.89,-0.56,-0.56,-0.57
487.74,-1.76,-1.18,-1.76,-1.18,1.18,0.88,0.90,-0.57,-0.57,-0.58
492.62,-1.65,-1.06,-1.65,-1.06,1.07,0.74,0.90,-0.58,-0.58,-0.59
