frequency,raw,error,smoothed,error_smoothed,equalization,parametric_eq,fixed_band_eq,equalized_raw,equalized_smoothed,target
20.00,-3.19,-3.08,-3.20,-3.08,3.04,2.90,0.94,-0.15,-0.15,-0.11
20.20,-3.14,-3.03,-3.14,-3.03,3.02,2.88,0.96,-0.12,-0.12,-0.11
20.40,-3.10,-2.99,-3.09,-2.98,2.99,2.86,0.99,-0.11,-0.10,-0.11
20.61,-3.05,-2.95,-3.05,-2.94,2.96,2.84,1.02,-0.09,-0.08,-0.10
20.81,-3.00,-2.90,-3.00,-2.90,2.94,2.82,1.06,-0.06,-0.06,-0.10
21.02,-2.96,-2.86,-2.97,-2.87,2.91,2.80,1.09,-0.05,-0.06,-0.10
21.23,-2.96,-2.86,-2.96,-2.86,2.89,2.78,1.12,-0.07,-0.07,-0.10
21.44,-2.96,-2.87,-2.96,-2.86,2.87,2.76,1.16,-0.09,-0.09,-0.09
21.66,-2.96,-2.87,-2.96,-2.87,2.85,2.74,1.19,-0.11,-0.11,-0.09
21.87,-2.96,-2.87,-2.96,-2.86,2.83,2.72,1.23,-0.13,-0.13,-0.09
22.09,-2.94,-2.85,-2.93,-2.84,2.81,2.70,1.26,-0.13,-0.13,-0.09
22.31,-2.89,-2.81,-2.89,-2.80,2.78,2.67,1.30,-0.11,-0.11,-0.08
22.54,-2.84,-2.75,-2.84,-2.75,2.76,2.65,1.34,-0.08,-0.08,-0.09
22.76,-2.79,-2.70,-2.79,-2.70,2.73,2.63,1.38,-0.06,-0.06,-0.08
22.99,-2.74,-2.66,-2.75,-2.67,2.71,2.61,1.42,-0.03,-0.05,-0.09
23.22,-2.74,-2.65,-2.74,-2.65,2.68,2.59,1.46,-0.06,-0.05,-0.09
23.45,-2.74,-2.65,-2.74,-2.65,2.66,2.57,1.51,-0.08,-0.08,-0.09
23.69,-2.74,-2.65,-2.74,-2.66,2.63,2.55,1.55,-0.11,-0.11,-0.09
23.92,-2.74,-2.66,-2.73,-2.65,2.60,2.52,1.60,-0.14,-0.13,-0.08
24.16,-2.70,-2.61,-2.70,-2.62,2.58,2.50,1.64,-0.12,-0.12,-0.09
24.40,-2.65,-2.56,-2.65,-2.56,2.55,2.48,1.69,-0.10,-0.10,-0.09
24.65,-2.59,-2.50,-2.59,-2.50,2.52,2.46,1.73,-0.07,-0.07,-0.09
24.89,-2.53,-2.43,-2.54,-2.44,2.48,2.44,1.78,-0.05,-0.06,-0.10
25.14,-2.51,-2.41,-2.51,-2.41,2.45,2.41,1.83,-0.06,-0.07,-0.10
25.39,-2.51,-2.40,-2.51,-2.40,2.41,2.39,1.88,-0.10,-0.09,-0.11
25.65,-2.51,-2.40,-2.51,-2.40,2.38,2.37,1.92,-0.13,-0.13,-0.11
25.91,-2.51,-2.39,-2.50,-2.38,2.35,2.35,1.97,-0.16,-0.15,-0.12
26.16,-2.48,-2.36,-2.48,-2.35,2.32,2.33,2.02,-0.16,-0.15,-0.12
26.43,-2.44,-2.31,-2.44,-2.31,2.29,2.30,2.06,-0.15,-0.14,-0.13
26.69,-2.39,-2.26,-2.39,-2.26,2.26,2.28,2.11,-0.13,-0.13,-0.13
26.96,-2.35,-2.22,-2.36,-2.22,2.23,2.26,2.15,-0.12,-0.12,-0.13
27.23,-2.33,-2.19,-2.33,-2.19,2.21,2.24,2.20,-0.12,-0.12,-0.14
27.50,-2.31,-2.16,-2.31,-2.16,2.18,2.21,2.24,-0.13,-0.12,-0.15
27.77,-2.29,-2.14,-2.29,-2.15,2.17,2.19,2.28,-0.12,-0.13,-0.15
28.05,-2.28,-2.14,-2.28,-2.14,2.15,2.17,2.32,-0.13,-0.13,-0.14
28.33,-2.28,-2.14,-2.28,-2.14,2.14,2.15,2.35,-0.14,-0.15,-0.14
28.62,-2.28,-2.14,-2.28,-2.14,2.12,2.12,2.38,-0.16,-0.17,-0.14
28.90,-2.28,-2.14,-2.27,-2.13,2.09,2.10,2.41,-0.19,-0.18,-0.14
29.19,-2.24,-2.10,-2.23,-2.09,2.06,2.08,2.44,-0.18,-0.17,-0.14
29.48,-2.18,-2.04,-2.18,-2.04,2.03,2.05,2.46,-0.15,-0.15,-0.14
29.78,-2.12,-1.98,-2.12,-1.97,1.99,2.03,2.49,-0.13,-0.13,-0.14
30.08,-2.07,-1.92,-2.08,-1.93,1.96,2.01,2.50,-0.11,-0.12,-0.16
30.38,-2.06,-1.90,-2.06,-1.90,1.93,1.99,2.51,-0.13,-0.13,-0.16
30.68,-2.06,-1.90,-2.05,-1.89,1.90,1.96,2.52,-0.16,-0.15,-0.16
30.99,-2.05,-1.88,-2.05,-1.89,1.89,1.94,2.53,-0.16,-0.17,-0.17
31.30,-2.05,-1.88,-2.05,-1.88,1.88,1.92,2.53,-0.17,-0.17,-0.17
31.61,-2.05,-1.87,-2.05,-1.87,1.87,1.90,2.52,-0.18,-0.17,-0.18
31.93,-2.05,-1.87,-2.05,-1.86,1.87,1.87,2.51,-0.18,-0.18,-0.18
32.24,-2.05,-1.85,-2.05,-1.86,1.85,1.85,2.50,-0.20,-0.21,-0.20
32.57,-2.05,-1.84,-2.06,-1.85,1.82,1.83,2.49,-0.23,-0.23,-0.21
32.89,-2.05,-1.84,-2.04,-1.83,1.79,1.80,2.47,-0.26,-0.25,-0.21
33.22,-2.00,-1.79,-1.99,-1.77,1.75,1.78,2.44,-0.25,-0.24,-0.21
33.55,-1.92,-1.70,-1.92,-1.70,1.71,1.76,2.42,-0.21,-0.22,-0.22
33.89,-1.85,-1.62,-1.86,-1.63,1.67,1.74,2.39,-0.18,-0.20,-0.23
34.23,-1.82,-1.58,-1.83,-1.59,1.63,1.71,2.35,-0.19,-0.20,-0.24
34.57,-1.82,-1.57,-1.81,-1.57,1.60,1.69,2.32,-0.22,-0.22,-0.25
34.92,-1.82,-1.57,-1.82,-1.57,1.57,1.67,2.28,-0.25,-0.25,-0.25
35.27,-1.82,-1.57,-1.82,-1.57,1.56,1.65,2.24,-0.26,-0.26,-0.25
35.62,-1.82,-1.57,-1.82,-1.56,1.55,1.62,2.20,-0.27,-0.27,-0.25
35.97,-1.82,-1.55,-1.82,-1.56,1.56,1.60,2.15,-0.26,-0.26,-0.27
36.33,-1.82,-1.55,-1.82,-1.55,1.56,1.58,2.11,-0.26,-0.27,-0.27
36.70,-1.82,-1.55,-1.82,-1.55,1.55,1.56,2.06,-0.27,-0.27,-0.27
37.06,-1.82,-1.55,-1.82,-1.54,1.53,1.53,2.01,-0.29,-0.28,-0.27
37.43,-1.80,-1.52,-1.81,-1.53,1.51,1.51,1.96,-0.29,-0.30,-0.28
37.81,-1.79,-1.52,-1.78,-1.51,1.48,1.49,1.91,-0.31,-0.31,-0.27
38.19,-1.75,-1.48,-1.74,-1.46,1.45,1.47,1.86,-0.30,-0.29,-0.27
38.57,-1.68,-1.40,-1.68,-1.41,1.41,1.44,1.81,-0.27,-0.27,-0.28
38.95,-1.61,-1.33,-1.63,-1.35,1.38,1.42,1.76,-0.23,-0.25,-0.28
39.34,-1.60,-1.32,-1.60,-1.32,1.35,1.40,1.71,-0.25,-0.25,-0.28
39.74,-1.60,-1.31,-1.59,-1.31,1.33,1.38,1.66,-0.27,-0.27,-0.29
40.14,-1.60,-1.31,-1.60,-1.31,1.31,1.36,1.62,-0.29,-0.29,-0.29
40.54,-1.60,-1.31,-1.60,-1.31,1.30,1.33,1.57,-0.30,-0.30,-0.29
40.94,-1.60,-1.30,-1.60,-1.30,1.29,1.31,1.52,-0.31,-0.31,-0.30
41.35,-1.60,-1.29,-1.60,-1.29,1.28,1.29,1.47,-0.32,-0.32,-0.31
41.76,-1.60,-1.28,-1.60,-1.28,1.27,1.27,1.43,-0.33,-0.33,-0.32
42.18,-1.60,-1.26,-1.60,-1.26,1.27,1.25,1.38,-0.33,-0.33,-0.34
42.60,-1.60,-1.25,-1.60,-1.25,1.26,1.22,1.34,-0.34,-0.34,-0.35
43.03,-1.60,-1.23,-1.60,-1.23,1.24,1.20,1.29,-0.36,-0.36,-0.37
43.46,-1.60,-1.21,-1.60,-1.21,1.22,1.18,1.25,-0.38,-0.38,-0.39
43.90,-1.60,-1.19,-1.60,-1.20,1.19,1.16,1.21,-0.41,-0.42,-0.41
44.33,-1.60,-1.18,-1.61,-1.19,1.15,1.14,1.17,-0.45,-0.46,-0.42
44.78,-1.60,-1.16,-1.58,-1.15,1.10,1.11,1.13,-0.50,-0.48,-0.44
45.23,-1.55,-1.10,-1.53,-1.07,1.05,1.09,1.09,-0.50,-0.47,-0.45
45.68,-1.44,-0.97,-1.46,-0.99,1.01,1.07,1.05,-0.43,-0.45,-0.47
46.13,-1.37,-0.90,-1.39,-0.92,0.96,1.05,1.01,-0.41,-0.43,-0.47
46.60,-1.37,-0.89,-1.36,-0.88,0.93,1.03,0.98,-0.44,-0.44,-0.48
47.06,-1.37,-0.88,-1.36,-0.88,0.90,1.00,0.94,-0.47,-0.47,-0.49
47.53,-1.37,-0.88,-1.37,-0.88,0.88,0.98,0.91,-0.49,-0.49,-0.49
48.01,-1.37,-0.88,-1.37,-0.88,0.87,0.96,0.88,-0.50,-0.50,-0.49
48.49,-1.37,-0.88,-1.37,-0.88,0.87,0.94,0.84,-0.50,-0.50,-0.49
48.97,-1.37,-0.89,-1.37,-0.89,0.88,0.92,0.81,-0.49,-0.49,-0.48
49.46,-1.37,-0.89,-1.37,-0.89,0.89,0.89,0.78,-0.48,-0.48,-0.48
49.96,-1.37,-0.89,-1.37,-0.90,0.90,0.87,0.75,-0.47,-0.47,-0.48
50.46,-1.37,-0.90,-1.37,-0.90,0.90,0.85,0.72,-0.47,-0.47,-0.47
50.96,-1.37,-0.91,-1.37,-0.91,0.90,0.83,0.69,-0.47,-0.47,-0.46
51.47,-1.37,-0.91,-1.37,-0.91,0.91,0.80,0.66,-0.46,-0.46,-0.46
51.99,-1.37,-0.90,-1.37,-0.90,0.91,0.78,0.64,-0.46,-0.46,-0.47
52.51,-1.37,-0.89,-1.37,-0.89,0.91,0.76,0.61,-0.46,-0.46,-0.48
53.03,-1.37,-0.88,-1.37,-0.88,0.89,0.74,0.58,-0.48,-0.48,-0.49
53.56,-1.37,-0.87,-1.37,-0.87,0.86,0.71,0.56,-0.51,-0.51,-0.50
54.10,-1.37,-0.86,-1.38,-0.87,0.82,0.69,0.53,-0.55,-0.56,-0.51
54.64,-1.37,-0.84,-1.36,-0.83,0.78,0.67,0.51,-0.59,-0.58,-0.53
55.18,-1.33,-0.78,-1.30,-0.75,0.72,0.64,0.48,-0.61,-0.57,-0.55
55.74,-1.20,-0.63,-1.23,-0.65,0.67,0.62,0.46,-0.53,-0.56,-0.57
56.29,-1.14,-0.54,-1.16,-0.56,0.61,0.60,0.44,-0.53,-0.56,-0.60
56.86,-1.14,-0.51,-1.13,-0.50,0.55,0.57,0.41,-0.59,-0.58,-0.63
57.42,-1.14,-0.48,-1.13,-0.48,0.49,0.55,0.39,-0.65,-0.64,-0.66
58.00,-1.14,-0.45,-1.14,-0.45,0.44,0.53,0.37,-0.70,-0.70,-0.69
58.58,-1.14,-0.42,-1.14,-0.42,0.40,0.50,0.35,-0.74,-0.74,-0.72
59.16,-1.14,-0.38,-1.14,-0.38,0.37,0.48,0.32,-0.77,-0.77,-0.76
59.76,-1.14,-0.35,-1.14,-0.35,0.35,0.45,0.30,-0.79,-0.79,-0.79
60.35,-1.14,-0.32,-1.14,-0.32,0.32,0.43,0.28,-0.82,-0.82,-0.82
60.96,-1.14,-0.28,-1.14,-0.28,0.29,0.40,0.26,-0.85,-0.85,-0.86
61.57,-1.14,-0.26,-1.14,-0.25,0.25,0.38,0.24,-0.89,-0.89,-0.88
62.18,-1.14,-0.22,-1.14,-0.22,0.22,0.35,0.22,-0.92,-0.92,-0.92
62.80,-1.14,-0.18,-1.14,-0.18,0.18,0.33,0.19,-0.96,-0.96,-0.96
63.43,-1.14,-0.15,-1.14,-0.15,0.14,0.30,0.17,-1.00,-1.00,-0.99
64.07,-1.14,-0.11,-1.14,-0.11,0.11,0.28,0.15,-1.03,-1.03,-1.03
64.71,-1.14,-0.07,-1.14,-0.07,0.07,0.25,0.13,-1.07,-1.07,-1.07
65.35,-1.14,-0.03,-1.14,-0.04,0.04,0.22,0.11,-1.10,-1.10,-1.11
66.01,-1.14,-0.01,-1.14,-0.01,0.01,0.20,0.09,-1.13,-1.13,-1.13
66.67,-1.14,0.02,-1.14,0.02,-0.02,0.17,0.07,-1.16,-1.16,-1.16
67.33,-1.14,0.04,-1.14,0.05,-0.04,0.14,0.04,-1.18,-1.18,-1.18
68.01,-1.14,0.07,-1.14,0.07,-0.06,0.11,0.02,-1.20,-1.20,-1.21
68.69,-1.14,0.09,-1.14,0.09,-0.07,0.08,-0.00,-1.21,-1.21,-1.23
69.37,-1.14,0.10,-1.14,0.11,-0.10,0.06,-0.02,-1.24,-1.24,-1.24
70.07,-1.14,0.12,-1.14,0.11,-0.13,0.03,-0.04,-1.27,-1.27,-1.26
70.77,-1.14,0.13,-1.15,0.12,-0.17,-0.00,-0.07,-1.31,-1.32,-1.27
71.48,-1.14,0.14,-1.12,0.16,-0.21,-0.03,-0.09,-1.35,-1.33,-1.28
72.19,-1.09,0.21,-1.05,0.24,-0.25,-0.06,-0.11,-1.34,-1.31,-1.29
72.91,-0.93,0.37,-0.98,0.32,-0.30,-0.09,-0.14,-1.23,-1.28,-1.30
73.64,-0.91,0.40,-0.92,0.39,-0.35,-0.12,-0.16,-1.26,-1.27,-1.31
74.38,-0.91,0.42,-0.90,0.43,-0.39,-0.15,-0.18,-1.30,-1.29,-1.33
75.12,-0.91,0.43,-0.91,0.44,-0.43,-0.18,-0.21,-1.34,-1.34,-1.34
75.87,-0.91,0.46,-0.91,0.46,-0.47,-0.22,-0.23,-1.38,-1.38,-1.37
76.63,-0.91,0.48,-0.91,0.48,-0.49,-0.25,-0.25,-1.40,-1.40,-1.39
77.40,-0.91,0.49,-0.91,0.50,-0.51,-0.28,-0.28,-1.42,-1.42,-1.40
78.17,-0.91,0.51,-0.91,0.52,-0.52,-0.31,-0.30,-1.43,-1.43,-1.42
78.95,-0.91,0.54,-0.91,0.54,-0.54,-0.35,-0.33,-1.45,-1.45,-1.45
79.74,-0.91,0.56,-0.91,0.56,-0.56,-0.38,-0.35,-1.47,-1.47,-1.47
80.54,-0.91,0.58,-0.91,0.58,-0.58,-0.41,-0.38,-1.49,-1.49,-1.49
81.35,-0.91,0.60,-0.91,0.60,-0.60,-0.45,-0.41,-1.51,-1.51,-1.51
82.16,-0.91,0.62,-0.91,0.62,-0.62,-0.48,-0.43,-1.53,-1.53,-1.53
82.98,-0.91,0.64,-0.91,0.64,-0.64,-0.52,-0.46,-1.55,-1.55,-1.55
83.81,-0.91,0.65,-0.91,0.66,-0.66,-0.55,-0.49,-1.57,-1.57,-1.56
84.65,-0.91,0.68,-0.91,0.67,-0.67,-0.59,-0.52,-1.58,-1.58,-1.59
85.50,-0.91,0.69,-0.91,0.69,-0.69,-0.62,-0.55,-1.60,-1.60,-1.60
86.35,-0.91,0.70,-0.91,0.70,-0.70,-0.66,-0.57,-1.61,-1.61,-1.61
87.22,-0.91,0.72,-0.91,0.71,-0.72,-0.69,-0.60,-1.63,-1.63,-1.63
88.09,-0.91,0.73,-0.91,0.73,-0.73,-0.73,-0.63,-1.64,-1.64,-1.64
88.97,-0.91,0.74,-0.91,0.75,-0.75,-0.77,-0.66,-1.66,-1.66,-1.65
89.86,-0.91,0.77,-0.91,0.77,-0.77,-0.80,-0.69,-1.68,-1.68,-1.68
90.76,-0.91,0.78,-0.91,0.78,-0.78,-0.84,-0.73,-1.69,-1.69,-1.69
91.66,-0.91,0.80,-0.91,0.80,-0.80,-0.88,-0.76,-1.71,-1.71,-1.71
92.58,-0.91,0.82,-0.91,0.82,-0.82,-0.91,-0.79,-1.73,-1.73,-1.73
93.51,-0.91,0.83,-0.91,0.83,-0.83,-0.95,-0.82,-1.74,-1.74,-1.74
94.44,-0.91,0.85,-0.91,0.85,-0.85,-0.99,-0.86,-1.76,-1.76,-1.76
95.39,-0.91,0.87,-0.91,0.87,-0.87,-1.02,-0.89,-1.78,-1.78,-1.78
96.34,-0.91,0.88,-0.91,0.88,-0.88,-1.06,-0.93,-1.79,-1.79,-1.79
97.30,-0.91,0.90,-0.91,0.90,-0.90,-1.10,-0.96,-1.81,-1.81,-1.81
98.28,-0.91,0.92,-0.91,0.92,-0.92,-1.14,-0.99,-1.83,-1.83,-1.83
99.26,-0.91,0.94,-0.91,0.94,-0.94,-1.17,-1.03,-1.85,-1.85,-1.85
100.25,-0.91,0.96,-0.91,0.96,-0.96,-1.21,-1.07,-1.87,-1.87,-1.87
101.25,-0.91,0.98,-0.91,0.98,-0.98,-1.25,-1.10,-1.89,-1.89,-1.89
102.27,-0.91,1.01,-0.91,1.01,-1.01,-1.28,-1.14,-1.92,-1.92,-1.92
103.29,-0.91,1.04,-0.91,1.04,-1.05,-1.32,-1.17,-1.96,-1.96,-1.95
104.32,-0.91,1.08,-0.91,1.08,-1.09,-1.36,-1.21,-2.00,-2.00,-1.99
105.37,-0.91,1.12,-0.91,1.11,-1.13,-1.39,-1.25,-2.04,-2.04,-2.03
106.42,-0.91,1.15,-0.91,1.16,-1.17,-1.43,-1.28,-2.08,-2.08,-2.06
107.48,-0.91,1.20,-0.91,1.21,-1.20,-1.47,-1.32,-2.11,-2.11,-2.11
108.56,-0.91,1.26,-0.89,1.27,-1.22,-1.50,-1.35,-2.13,-2.12,-2.17
109.64,-0.91,1.31,-0.92,1.30,-1.24,-1.54,-1.39,-2.15,-2.16,-2.22
110.74,-0.92,1.35,-0.98,1.29,-1.26,-1.57,-1.42,-2.18,-2.24,-2.27
111.85,-1.11,1.20,-1.06,1.26,-1.28,-1.61,-1.45,-2.39,-2.33,-2.31
112.97,-1.14,1.23,-1.12,1.25,-1.30,-1.64,-1.48,-2.44,-2.42,-2.37
114.10,-1.14,1.28,-1.16,1.26,-1.33,-1.67,-1.52,-2.47,-2.48,-2.42
115.24,-1.14,1.33,-1.14,1.33,-1.35,-1.71,-1.54,-2.49,-2.49,-2.47
116.39,-1.14,1.37,-1.14,1.37,-1.38,-1.74,-1.57,-2.52,-2.52,-2.51
117.55,-1.14,1.42,-1.14,1.42,-1.40,-1.77,-1.60,-2.54,-2.54,-2.56
118.73,-1.14,1.46,-1.13,1.47,-1.42,-1.80,-1.63,-2.56,-2.54,-2.60
119.92,-1.14,1.49,-1.14,1.49,-1.43,-1.83,-1.65,-2.57,-2.57,-2.63
121.12,-1.15,1.52,-1.20,1.47,-1.44,-1.87,-1.67,-2.59,-2.64,-2.67
122.33,-1.29,1.41,-1.27,1.43,-1.45,-1.89,-1.70,-2.74,-2.72,-2.70
123.55,-1.37,1.36,-1.34,1.40,-1.45,-1.92,-1.72,-2.82,-2.79,-2.73
124.79,-1.37,1.39,-1.38,1.38,-1.45,-1.95,-1.73,-2.82,-2.83,-2.76
126.03,-1.37,1.42,-1.38,1.41,-1.44,-1.98,-1.75,-2.81,-2.82,-2.79
127.29,-1.37,1.44,-1.37,1.45,-1.42,-2.01,-1.76,-2.79,-2.79,-2.81
128.57,-1.37,1.47,-1.36,1.48,-1.41,-2.04,-1.78,-2.78,-2.77,-2.84
129.85,-1.37,1.50,-1.39,1.48,-1.41,-2.06,-1.79,-2.78,-2.80,-2.87
131.15,-1.42,1.47,-1.45,1.44,-1.41,-2.09,-1.80,-2.83,-2.86,-2.89
132.46,-1.55,1.37,-1.53,1.40,-1.43,-2.11,-1.81,-2.98,-2.96,-2.92
133.79,-1.60,1.35,-1.59,1.36,-1.46,-2.14,-1.82,-3.06,-3.05,-2.95
135.12,-1.59,1.38,-1.58,1.40,-1.48,-2.16,-1.82,-3.07,-3.06,-2.97
136.48,-1.54,1.46,-1.51,1.49,-1.52,-2.18,-1.83,-3.06,-3.03,-3.00
137.84,-1.39,1.64,-1.43,1.60,-1.55,-2.20,-1.83,-2.94,-2.99,-3.03
139.22,-1.37,1.68,-1.38,1.68,-1.60,-2.23,-1.84,-2.97,-2.98,-3.05
140.61,-1.37,1.71,-1.36,1.73,-1.66,-2.25,-1.84,-3.03,-3.01,-3.08
142.02,-1.37,1.74,-1.37,1.74,-1.72,-2.27,-1.84,-3.09,-3.08,-3.11
143.44,-1.37,1.77,-1.37,1.76,-1.77,-2.29,-1.85,-3.14,-3.15,-3.14
144.87,-1.37,1.79,-1.38,1.79,-1.83,-2.31,-1.85,-3.20,-3.21,-3.16
146.32,-1.37,1.83,-1.35,1.85,-1.90,-2.32,-1.85,-3.27,-3.25,-3.20
147.78,-1.32,1.92,-1.29,1.94,-1.97,-2.34,-1.85,-3.29,-3.27,-3.24
149.26,-1.20,2.07,-1.24,2.04,-2.06,-2.36,-1.86,-3.26,-3.29,-3.27
150.75,-1.14,2.18,-1.16,2.16,-2.16,-2.37,-1.86,-3.30,-3.32,-3.32
152.26,-1.13,2.23,-1.07,2.29,-2.28,-2.39,-1.87,-3.41,-3.35,-3.36
153.78,-0.98,2.44,-1.00,2.41,-2.40,-2.40,-1.87,-3.38,-3.40,-3.42
155.32,-0.92,2.55,-0.95,2.52,-2.52,-2.42,-1.88,-3.44,-3.47,-3.47
156.88,-0.91,2.61,-0.91,2.61,-2.62,-2.43,-1.88,-3.53,-3.54,-3.52
158.44,-0.91,2.65,-0.87,2.70,-2.71,-2.44,-1.89,-3.62,-3.58,-3.56
160.03,-0.85,2.75,-0.82,2.79,-2.77,-2.46,-1.90,-3.62,-3.59,-3.60
161.63,-0.71,2.93,-0.80,2.85,-2.81,-2.47,-1.91,-3.52,-3.60,-3.64
163.24,-0.82,2.85,-0.80,2.87,-2.81,-2.48,-1.92,-3.63,-3.62,-3.67
164.88,-0.91,2.79,-0.87,2.83,-2.78,-2.49,-1.94,-3.69,-3.65,-3.70
166.53,-0.95,2.77,-0.98,2.75,-2.73,-2.50,-1.95,-3.68,-3.70,-3.72
168.19,-1.07,2.67,-1.08,2.66,-2.66,-2.51,-1.97,-3.73,-3.74,-3.74
169.87,-1.19,2.56,-1.20,2.55,-2.57,-2.52,-1.99,-3.76,-3.76,-3.75
171.57,-1.33,2.42,-1.28,2.47,-2.48,-2.53,-2.00,-3.81,-3.76,-3.75
173.29,-1.37,2.38,-1.38,2.36,-2.40,-2.54,-2.03,-3.77,-3.78,-3.75
175.02,-1.37,2.37,-1.44,2.30,-2.33,-2.55,-2.05,-3.70,-3.78,-3.74
176.77,-1.56,2.17,-1.45,2.28,-2.30,-2.56,-2.07,-3.86,-3.75,-3.73
178.54,-1.42,2.29,-1.45,2.26,-2.29,-2.56,-2.10,-3.71,-3.74,-3.71
180.32,-1.37,2.33,-1.42,2.28,-2.31,-2.57,-2.12,-3.68,-3.73,-3.70
182.13,-1.37,2.31,-1.32,2.36,-2.36,-2.58,-2.15,-3.73,-3.68,-3.68
183.95,-1.28,2.40,-1.28,2.40,-2.42,-2.59,-2.18,-3.70,-3.70,-3.68
185.79,-1.15,2.52,-1.19,2.48,-2.50,-2.59,-2.22,-3.65,-3.69,-3.67
187.65,-1.14,2.53,-1.08,2.59,-2.57,-2.60,-2.25,-3.71,-3.65,-3.67
189.52,-0.96,2.71,-0.99,2.68,-2.64,-2.61,-2.28,-3.60,-3.63,-3.67
191.42,-0.91,2.76,-0.93,2.74,-2.70,-2.61,-2.32,-3.61,-3.63,-3.67
193.33,-0.91,2.77,-0.90,2.79,-2.74,-2.62,-2.36,-3.65,-3.64,-3.68
195.27,-0.91,2.78,-0.91,2.78,-2.77,-2.63,-2.40,-3.68,-3.68,-3.69
197.22,-0.91,2.78,-0.91,2.78,-2.80,-2.63,-2.44,-3.71,-3.71,-3.69
199.19,-0.91,2.79,-0.91,2.79,-2.81,-2.64,-2.48,-3.72,-3.72,-3.70
201.18,-0.91,2.80,-0.91,2.80,-2.81,-2.65,-2.52,-3.72,-3.72,-3.71
203.19,-0.91,2.81,-0.91,2.81,-2.82,-2.65,-2.56,-3.73,-3.73,-3.72
205.23,-0.91,2.82,-0.91,2.82,-2.83,-2.66,-2.60,-3.74,-3.74,-3.73
207.28,-0.91,2.84,-0.91,2.84,-2.84,-2.67,-2.64,-3.75,-3.75,-3.75
209.35,-0.91,2.86,-0.91,2.86,-2.85,-2.68,-2.69,-3.76,-3.76,-3.77
211.44,-0.91,2.87,-0.91,2.87,-2.87,-2.68,-2.73,-3.78,-3.78,-3.78
213.56,-0.91,2.89,-0.91,2.89,-2.89,-2.69,-2.77,-3.80,-3.80,-3.80
215.69,-0.91,2.90,-0.91,2.90,-2.91,-2.70,-2.81,-3.82,-3.82,-3.81
217.85,-0.91,2.91,-0.91,2.91,-2.92,-2.70,-2.85,-3.83,-3.83,-3.82
220.03,-0.91,2.92,-0.91,2.92,-2.92,-2.71,-2.89,-3.83,-3.83,-3.83
222.23,-0.91,2.94,-0.89,2.95,-2.91,-2.72,-2.93,-3.82,-3.81,-3.85
224.45,-0.91,2.95,-0.91,2.95,-2.90,-2.72,-2.97,-3.81,-3.81,-3.86
226.70,-0.91,2.97,-0.96,2.91,-2.88,-2.73,-3.00,-3.79,-3.84,-3.88
228.96,-1.07,2.81,-1.03,2.85,-2.86,-2.74,-3.03,-3.93,-3.89,-3.88
231.25,-1.12,2.78,-1.10,2.79,-2.83,-2.74,-3.06,-3.95,-3.94,-3.90
233.57,-1.14,2.77,-1.15,2.76,-2.81,-2.74,-3.09,-3.95,-3.96,-3.91
235.90,-1.14,2.77,-1.14,2.77,-2.79,-2.75,-3.11,-3.93,-3.94,-3.91
238.26,-1.14,2.79,-1.14,2.78,-2.78,-2.75,-3.13,-3.92,-3.92,-3.93
240.64,-1.14,2.79,-1.14,2.79,-2.78,-2.75,-3.14,-3.92,-3.92,-3.93
243.05,-1.14,2.80,-1.14,2.80,-2.79,-2.75,-3.15,-3.93,-3.93,-3.94
245.48,-1.14,2.80,-1.14,2.80,-2.81,-2.75,-3.16,-3.95,-3.95,-3.94
247.93,-1.14,2.81,-1.14,2.81,-2.82,-2.74,-3.17,-3.96,-3.96,-3.95
250.41,-1.14,2.81,-1.14,2.81,-2.82,-2.73,-3.16,-3.96,-3.96,-3.95
252.92,-1.14,2.82,-1.13,2.83,-2.81,-2.73,-3.16,-3.95,-3.94,-3.96
255.45,-1.14,2.82,-1.14,2.82,-2.79,-2.71,-3.15,-3.93,-3.93,-3.96
258.00,-1.14,2.83,-1.19,2.78,-2.77,-2.70,-3.13,-3.91,-3.95,-3.97
260.58,-1.28,2.69,-1.26,2.72,-2.73,-2.69,-3.12,-4.01,-3.98,-3.97
263.19,-1.36,2.63,-1.32,2.66,-2.67,-2.67,-3.10,-4.03,-3.99,-3.99
265.82,-1.37,2.62,-1.39,2.60,-2.60,-2.65,-3.07,-3.97,-3.99,-3.99
268.48,-1.42,2.58,-1.44,2.56,-2.52,-2.63,-3.04,-3.94,-3.96,-4.00
271.16,-1.55,2.46,-1.52,2.48,-2.44,-2.60,-3.01,-3.99,-3.96,-4.01
273.87,-1.60,2.41,-1.63,2.38,-2.38,-2.58,-2.97,-3.98,-4.01,-4.01
276.61,-1.73,2.29,-1.73,2.29,-2.34,-2.55,-2.93,-4.07,-4.07,-4.02
279.38,-1.81,2.22,-1.80,2.23,-2.32,-2.52,-2.89,-4.13,-4.12,-4.03
282.17,-1.82,2.21,-1.80,2.23,-2.32,-2.48,-2.85,-4.14,-4.12,-4.03
284.99,-1.77,2.27,-1.74,2.30,-2.33,-2.45,-2.81,-4.10,-4.07,-4.04
287.84,-1.61,2.43,-1.66,2.38,-2.35,-2.42,-2.76,-3.96,-4.02,-4.04
290.72,-1.60,2.44,-1.61,2.44,-2.38,-2.38,-2.71,-3.98,-3.98,-4.04
293.63,-1.60,2.45,-1.59,2.46,-2.40,-2.35,-2.67,-4.00,-3.99,-4.05
296.57,-1.60,2.45,-1.58,2.47,-2.42,-2.31,-2.62,-4.02,-4.00,-4.05
299.53,-1.60,2.45,-1.61,2.45,-2.42,-2.27,-2.57,-4.02,-4.02,-4.05
302.53,-1.60,2.46,-1.66,2.39,-2.40,-2.23,-2.52,-4.00,-4.06,-4.06
305.55,-1.79,2.28,-1.74,2.33,-2.35,-2.20,-2.47,-4.14,-4.09,-4.07
308.61,-1.82,2.25,-1.79,2.29,-2.30,-2.16,-2.42,-4.12,-4.09,-4.07
311.69,-1.82,2.26,-1.84,2.24,-2.25,-2.12,-2.37,-4.07,-4.09,-4.08
314.81,-1.82,2.27,-1.88,2.22,-2.21,-2.08,-2.32,-4.03,-4.09,-4.09
317.96,-1.97,2.13,-1.95,2.16,-2.18,-2.05,-2.27,-4.15,-4.13,-4.10
321.14,-2.05,2.08,-2.02,2.11,-2.15,-2.01,-2.22,-4.20,-4.16,-4.13
324.35,-2.05,2.09,-2.05,2.09,-2.11,-1.97,-2.17,-4.16,-4.16,-4.14
327.59,-2.05,2.10,-2.05,2.10,-2.08,-1.94,-2.13,-4.13,-4.13,-4.15
330.87,-2.05,2.11,-2.09,2.08,-2.03,-1.90,-2.08,-4.08,-4.12,-4.16
334.18,-2.15,2.02,-2.14,2.03,-1.99,-1.87,-2.04,-4.14,-4.13,-4.17
337.52,-2.27,1.92,-2.23,1.95,-1.93,-1.83,-2.00,-4.20,-4.16,-4.19
340.90,-2.28,1.91,-2.34,1.85,-1.87,-1.80,-1.95,-4.15,-4.21,-4.19
344.30,-2.46,1.74,-2.42,1.78,-1.79,-1.76,-1.91,-4.25,-4.21,-4.20
347.75,-2.51,1.69,-2.48,1.72,-1.72,-1.73,-1.87,-4.23,-4.20,-4.20
351.23,-2.51,1.69,-2.56,1.64,-1.64,-1.70,-1.84,-4.15,-4.20,-4.20
354.74,-2.61,1.59,-2.62,1.58,-1.58,-1.67,-1.80,-4.19,-4.20,-4.20
358.28,-2.72,1.48,-2.69,1.52,-1.54,-1.64,-1.76,-4.26,-4.22,-4.20
361.87,-2.74,1.46,-2.74,1.46,-1.51,-1.61,-1.73,-4.25,-4.24,-4.20
365.49,-2.74,1.46,-2.75,1.45,-1.48,-1.58,-1.70,-4.22,-4.23,-4.20
369.14,-2.74,1.46,-2.74,1.45,-1.46,-1.55,-1.67,-4.20,-4.21,-4.20
372.83,-2.74,1.46,-2.74,1.46,-1.44,-1.52,-1.64,-4.18,-4.18,-4.20
376.56,-2.74,1.45,-2.73,1.47,-1.42,-1.49,-1.61,-4.16,-4.14,-4.19
380.33,-2.74,1.45,-2.74,1.45,-1.39,-1.47,-1.58,-4.13,-4.13,-4.19
384.13,-2.74,1.45,-2.79,1.40,-1.37,-1.44,-1.56,-4.11,-4.16,-4.19
387.97,-2.89,1.30,-2.86,1.33,-1.34,-1.42,-1.53,-4.23,-4.20,-4.19
391.85,-2.95,1.24,-2.93,1.27,-1.31,-1.40,-1.51,-4.26,-4.23,-4.19
395.77,-2.96,1.24,-2.97,1.22,-1.27,-1.37,-1.49,-4.23,-4.24,-4.20
399.73,-2.96,1.23,-2.97,1.22,-1.25,-1.35,-1.47,-4.21,-4.21,-4.19
403.72,-2.96,1.23,-2.96,1.23,-1.23,-1.33,-1.45,-4.19,-4.19,-4.19
407.76,-2.96,1.23,-2.96,1.23,-1.22,-1.32,-1.43,-4.18,-4.18,-4.19
411.84,-2.96,1.23,-2.96,1.23,-1.22,-1.30,-1.41,-4.18,-4.18,-4.19
415.96,-2.96,1.23,-2.96,1.23,-1.22,-1.28,-1.40,-4.18,-4.18,-4.19
420.12,-2.96,1.23,-2.96,1.23,-1.23,-1.27,-1.38,-4.19,-4.19,-4.19
424.32,-2.96,1.23,-2.96,1.23,-1.23,-1.25,-1.37,-4.19,-4.19,-4.19
428.56,-2.96,1.23,-2.96,1.23,-1.23,-1.24,-1.36,-4.19,-4.19,-4.19
432.85,-2.96,1.23,-2.96,1.23,-1.24,-1.23,-1.35,-4.20,-4.20,-4.19
