frequency,raw,error,smoothed,error_smoothed,equalization,parametric_eq,fixed_band_eq,equalized_raw,equalized_smoothed,target
20.00,5.65,1.39,5.65,1.38,-1.38,-1.97,-0.98,4.27,4.27,4.26
20.20,5.69,1.42,5.69,1.42,-1.42,-1.97,-1.01,4.27,4.27,4.27
20.40,5.73,1.45,5.73,1.45,-1.45,-1.97,-1.04,4.28,4.28,4.28
20.61,5.77,1.49,5.77,1.49,-1.49,-1.98,-1.07,4.28,4.28,4.28
20.81,5.81,1.52,5.81,1.52,-1.52,-1.98,-1.10,4.29,4.29,4.29
21.02,5.85,1.56,5.85,1.55,-1.55,-1.98,-1.13,4.30,4.30,4.29
21.23,5.88,1.58,5.88,1.58,-1.58,-1.98,-1.17,4.30,4.30,4.30
21.44,5.91,1.61,5.91,1.61,-1.61,-1.98,-1.20,4.30,4.31,4.30
21.66,5.94,1.64,5.94,1.64,-1.63,-1.98,-1.24,4.31,4.31,4.30
21.87,5.96,1.66,5.97,1.66,-1.65,-1.99,-1.27,4.31,4.31,4.30
22.09,5.99,1.68,5.99,1.68,-1.67,-1.99,-1.31,4.32,4.31,4.31
22.31,6.00,1.69,6.00,1.70,-1.70,-1.99,-1.35,4.31,4.31,4.31
22.54,6.02,1.72,6.02,1.72,-1.72,-1.99,-1.39,4.30,4.29,4.30
22.76,6.03,1.74,6.03,1.74,-1.76,-1.99,-1.43,4.27,4.27,4.29
22.99,6.05,1.76,6.06,1.77,-1.79,-1.99,-1.47,4.26,4.27,4.29
23.22,6.10,1.81,6.10,1.82,-1.83,-2.00,-1.51,4.27,4.27,4.29
23.45,6.15,1.87,6.15,1.87,-1.87,-2.00,-1.55,4.28,4.28,4.28
23.69,6.20,1.92,6.20,1.92,-1.90,-2.00,-1.60,4.30,4.30,4.28
23.92,6.24,1.96,6.24,1.96,-1.93,-2.00,-1.64,4.31,4.31,4.28
24.16,6.26,1.98,6.26,1.98,-1.95,-2.00,-1.69,4.31,4.30,4.28
24.40,6.25,1.97,6.26,1.98,-1.97,-2.01,-1.73,4.28,4.29,4.28
24.65,6.25,1.98,6.25,1.97,-1.98,-2.01,-1.78,4.27,4.27,4.28
24.89,6.24,1.97,6.24,1.97,-1.98,-2.01,-1.83,4.26,4.26,4.28
25.14,6.24,1.97,6.24,1.97,-1.98,-2.01,-1.88,4.26,4.26,4.27
25.39,6.24,1.98,6.24,1.97,-1.98,-2.02,-1.92,4.26,4.26,4.26
25.65,6.24,1.98,6.24,1.98,-1.98,-2.02,-1.97,4.26,4.26,4.26
25.91,6.24,1.98,6.25,1.98,-1.99,-2.02,-2.02,4.25,4.26,4.26
26.16,6.26,2.00,6.26,2.00,-2.01,-2.02,-2.07,4.25,4.25,4.26
26.43,6.28,2.02,6.28,2.02,-2.03,-2.02,-2.12,4.25,4.25,4.26
26.69,6.31,2.05,6.31,2.05,-2.05,-2.03,-2.16,4.26,4.26,4.26
26.96,6.34,2.08,6.34,2.08,-2.08,-2.03,-2.21,4.26,4.26,4.26
27.23,6.36,2.10,6.37,2.11,-2.10,-2.03,-2.25,4.26,4.26,4.26
27.50,6.39,2.13,6.39,2.13,-2.13,-2.03,-2.30,4.26,4.26,4.26
27.77,6.41,2.15,6.41,2.15,-2.15,-2.04,-2.34,4.27,4.27,4.26
28.05,6.43,2.18,6.43,2.17,-2.16,-2.04,-2.38,4.27,4.27,4.26
28.33,6.43,2.18,6.43,2.18,-2.17,-2.04,-2.42,4.26,4.26,4.26
28.62,6.43,2.18,6.43,2.18,-2.17,-2.04,-2.45,4.26,4.26,4.25
28.90,6.43,2.17,6.43,2.17,-2.17,-2.05,-2.49,4.26,4.26,4.26
29.19,6.43,2.17,6.43,2.17,-2.17,-2.05,-2.52,4.26,4.26,4.26
29.48,6.43,2.17,6.43,2.17,-2.17,-2.05,-2.54,4.26,4.26,4.26
29.78,6.43,2.16,6.43,2.16,-2.16,-2.05,-2.57,4.27,4.27,4.27
30.08,6.43,2.16,6.43,2.16,-2.16,-2.06,-2.59,4.27,4.27,4.27
30.38,6.43,2.16,6.43,2.16,-2.16,-2.06,-2.61,4.27,4.27,4.27
30.68,6.43,2.17,6.43,2.16,-2.17,-2.06,-2.62,4.27,4.27,4.27
30.99,6.43,2.17,6.44,2.17,-2.18,-2.07,-2.64,4.25,4.26,4.26
31.30,6.45,2.19,6.45,2.18,-2.20,-2.07,-2.64,4.25,4.25,4.26
31.61,6.47,2.21,6.47,2.21,-2.22,-2.07,-2.65,4.25,4.25,4.26
31.93,6.49,2.23,6.49,2.24,-2.25,-2.07,-2.65,4.24,4.24,4.26
32.24,6.52,2.27,6.53,2.28,-2.28,-2.08,-2.64,4.24,4.25,4.25
32.57,6.57,2.32,6.57,2.33,-2.32,-2.08,-2.64,4.25,4.26,4.25
32.89,6.62,2.38,6.61,2.37,-2.35,-2.08,-2.63,4.28,4.26,4.25
33.22,6.63,2.40,6.63,2.39,-2.37,-2.09,-2.61,4.26,4.26,4.23
33.55,6.63,2.40,6.64,2.41,-2.39,-2.09,-2.60,4.24,4.24,4.23
33.89,6.63,2.41,6.63,2.41,-2.41,-2.09,-2.58,4.22,4.22,4.22
34.23,6.63,2.41,6.63,2.41,-2.42,-2.09,-2.56,4.21,4.21,4.22
34.57,6.63,2.42,6.63,2.42,-2.42,-2.10,-2.53,4.21,4.21,4.22
34.92,6.63,2.42,6.63,2.42,-2.42,-2.10,-2.51,4.21,4.21,4.21
35.27,6.63,2.42,6.63,2.42,-2.42,-2.10,-2.48,4.21,4.21,4.21
35.62,6.63,2.42,6.63,2.42,-2.43,-2.10,-2.45,4.20,4.20,4.21
35.97,6.63,2.42,6.63,2.42,-2.43,-2.11,-2.42,4.20,4.20,4.21
36.33,6.63,2.43,6.63,2.43,-2.44,-2.11,-2.39,4.20,4.20,4.21
36.70,6.63,2.43,6.63,2.43,-2.43,-2.11,-2.36,4.20,4.20,4.20
37.06,6.63,2.43,6.63,2.43,-2.42,-2.11,-2.32,4.21,4.21,4.20
37.43,6.62,2.42,6.63,2.43,-2.40,-2.12,-2.29,4.22,4.23,4.20
37.81,6.61,2.41,6.60,2.40,-2.37,-2.12,-2.26,4.24,4.23,4.20
38.19,6.57,2.37,6.56,2.36,-2.34,-2.12,-2.22,4.23,4.22,4.20
38.57,6.50,2.30,6.51,2.30,-2.31,-2.12,-2.19,4.19,4.19,4.20
38.95,6.44,2.24,6.46,2.26,-2.29,-2.12,-2.16,4.16,4.17,4.21
39.34,6.43,2.23,6.43,2.23,-2.26,-2.13,-2.13,4.17,4.17,4.20
39.74,6.43,2.23,6.43,2.23,-2.24,-2.13,-2.10,4.19,4.18,4.20
40.14,6.43,2.24,6.43,2.24,-2.23,-2.13,-2.06,4.20,4.20,4.20
40.54,6.43,2.24,6.43,2.24,-2.23,-2.13,-2.03,4.20,4.20,4.19
40.94,6.43,2.24,6.43,2.24,-2.24,-2.13,-2.01,4.20,4.20,4.19
41.35,6.43,2.25,6.43,2.25,-2.24,-2.13,-1.98,4.19,4.19,4.18
41.76,6.43,2.26,6.43,2.26,-2.25,-2.13,-1.95,4.18,4.18,4.17
42.18,6.43,2.27,6.43,2.27,-2.27,-2.13,-1.93,4.17,4.17,4.17
42.60,6.43,2.27,6.43,2.27,-2.28,-2.13,-1.90,4.16,4.16,4.16
43.03,6.43,2.27,6.43,2.27,-2.28,-2.13,-1.88,4.15,4.15,4.16
43.46,6.43,2.28,6.43,2.28,-2.29,-2.13,-1.86,4.14,4.14,4.15
43.90,6.43,2.29,6.43,2.29,-2.30,-2.13,-1.84,4.14,4.14,4.14
44.33,6.43,2.30,6.43,2.30,-2.29,-2.13,-1.82,4.14,4.14,4.13
44.78,6.43,2.30,6.43,2.30,-2.29,-2.12,-1.80,4.14,4.14,4.13
45.23,6.41,2.29,6.41,2.28,-2.27,-2.12,-1.78,4.14,4.14,4.12
45.68,6.37,2.26,6.37,2.26,-2.24,-2.12,-1.77,4.13,4.13,4.12
46.13,6.33,2.21,6.34,2.22,-2.21,-2.11,-1.75,4.12,4.13,4.12
46.60,6.30,2.19,6.30,2.18,-2.17,-2.11,-1.74,4.13,4.13,4.11
47.06,6.26,2.14,6.25,2.13,-2.13,-2.10,-1.73,4.13,4.12,4.12
47.53,6.20,2.08,6.20,2.08,-2.09,-2.09,-1.72,4.11,4.11,4.12
48.01,6.13,2.01,6.15,2.03,-2.06,-2.09,-1.71,4.08,4.10,4.13
48.49,6.13,2.00,6.13,2.00,-2.03,-2.08,-1.71,4.10,4.10,4.13
48.97,6.14,2.01,6.13,2.00,-2.02,-2.07,-1.70,4.12,4.11,4.13
49.46,6.14,2.01,6.14,2.00,-2.01,-2.05,-1.70,4.13,4.13,4.13
49.96,6.14,2.00,6.14,2.00,-2.00,-2.04,-1.69,4.14,4.14,4.15
50.46,6.14,1.99,6.14,1.99,-1.99,-2.02,-1.69,4.15,4.15,4.15
50.96,6.14,1.98,6.16,2.00,-1.98,-2.01,-1.69,4.17,4.19,4.16
51.47,6.16,2.00,6.17,2.01,-1.96,-1.99,-1.69,4.20,4.21,4.16
51.99,6.18,2.02,6.12,1.96,-1.93,-1.97,-1.69,4.25,4.19,4.16
52.51,6.05,1.89,6.06,1.89,-1.90,-1.94,-1.70,4.15,4.16,4.16
53.03,5.93,1.77,6.00,1.83,-1.86,-1.92,-1.70,4.08,4.14,4.16
53.56,5.96,1.80,5.95,1.78,-1.81,-1.89,-1.70,4.15,4.15,4.17
54.10,5.97,1.80,5.94,1.77,-1.76,-1.86,-1.71,4.21,4.18,4.17
54.64,5.92,1.75,5.92,1.74,-1.72,-1.82,-1.71,4.21,4.20,4.17
55.18,5.85,1.68,5.85,1.68,-1.68,-1.79,-1.72,4.17,4.17,4.17
55.74,5.77,1.61,5.79,1.62,-1.66,-1.75,-1.73,4.11,4.13,4.16
56.29,5.74,1.58,5.75,1.59,-1.64,-1.70,-1.73,4.10,4.11,4.16
56.86,5.76,1.60,5.76,1.61,-1.63,-1.66,-1.74,4.14,4.14,4.16
57.42,5.77,1.62,5.77,1.62,-1.60,-1.61,-1.75,4.17,4.17,4.15
58.00,5.78,1.65,5.74,1.61,-1.57,-1.56,-1.76,4.21,4.17,4.13
58.58,5.68,1.56,5.70,1.58,-1.53,-1.50,-1.77,4.15,4.17,4.12
59.16,5.60,1.49,5.64,1.53,-1.49,-1.45,-1.78,4.11,4.15,4.11
59.76,5.58,1.49,5.54,1.45,-1.44,-1.39,-1.79,4.15,4.11,4.09
60.35,5.47,1.40,5.44,1.37,-1.38,-1.34,-1.80,4.09,4.06,4.07
60.96,5.29,1.25,5.34,1.29,-1.32,-1.28,-1.81,3.97,4.02,4.05
61.57,5.23,1.21,5.24,1.22,-1.26,-1.23,-1.82,3.97,3.97,4.02
62.18,5.18,1.20,5.17,1.18,-1.22,-1.19,-1.83,3.96,3.95,3.98
62.80,5.13,1.18,5.13,1.18,-1.18,-1.15,-1.84,3.96,3.95,3.95
63.43,5.07,1.17,5.08,1.17,-1.15,-1.12,-1.85,3.93,3.93,3.90
64.07,5.02,1.16,5.03,1.16,-1.13,-1.11,-1.87,3.89,3.90,3.87
64.71,4.98,1.16,4.96,1.14,-1.12,-1.10,-1.88,3.86,3.84,3.82
65.35,4.91,1.13,4.91,1.13,-1.13,-1.11,-1.89,3.78,3.77,3.78
66.01,4.83,1.09,4.87,1.13,-1.15,-1.13,-1.90,3.68,3.72,3.74
66.67,4.87,1.17,4.86,1.15,-1.18,-1.17,-1.92,3.69,3.67,3.70
67.33,4.89,1.22,4.87,1.20,-1.22,-1.22,-1.93,3.67,3.65,3.67
68.01,4.89,1.26,4.91,1.28,-1.28,-1.28,-1.94,3.61,3.63,3.63
68.69,4.96,1.36,4.96,1.35,-1.36,-1.36,-1.96,3.60,3.60,3.60
69.37,5.02,1.45,5.01,1.45,-1.45,-1.44,-1.97,3.58,3.57,3.57
70.07,5.08,1.54,5.09,1.55,-1.54,-1.53,-1.99,3.54,3.55,3.54
70.77,5.15,1.65,5.15,1.64,-1.63,-1.63,-2.01,3.52,3.52,3.51
71.48,5.22,1.74,5.23,1.75,-1.73,-1.73,-2.03,3.49,3.50,3.48
72.19,5.29,1.84,5.29,1.84,-1.82,-1.83,-2.04,3.47,3.47,3.45
72.91,5.36,1.95,5.34,1.92,-1.91,-1.93,-2.06,3.45,3.43,3.42
73.64,5.37,1.99,5.38,2.00,-2.00,-2.04,-2.09,3.37,3.38,3.38
74.38,5.41,2.07,5.43,2.08,-2.09,-2.14,-2.11,3.32,3.34,3.35
75.12,5.48,2.17,5.48,2.17,-2.18,-2.24,-2.13,3.30,3.30,3.31
75.87,5.55,2.29,5.54,2.27,-2.28,-2.34,-2.16,3.28,3.27,3.26
76.63,5.60,2.37,5.57,2.34,-2.37,-2.43,-2.18,3.23,3.20,3.23
77.40,5.61,2.43,5.64,2.46,-2.47,-2.52,-2.21,3.14,3.17,3.18
78.17,5.65,2.51,5.73,2.59,-2.58,-2.61,-2.24,3.07,3.15,3.14
78.95,5.90,2.81,5.80,2.70,-2.69,-2.70,-2.27,3.21,3.11,3.09
79.74,5.87,2.82,5.85,2.80,-2.80,-2.78,-2.31,3.07,3.06,3.05
80.54,5.84,2.84,5.91,2.90,-2.90,-2.86,-2.34,2.95,3.01,3.00
81.35,5.92,2.96,5.95,2.99,-2.98,-2.94,-2.38,2.94,2.97,2.96
82.16,6.07,3.15,6.02,3.09,-3.07,-3.02,-2.42,3.00,2.95,2.92
82.98,6.10,3.22,6.06,3.18,-3.15,-3.09,-2.46,2.95,2.91,2.88
83.81,6.01,3.17,6.07,3.23,-3.22,-3.16,-2.50,2.79,2.85,2.84
84.65,6.06,3.25,6.07,3.26,-3.29,-3.23,-2.55,2.77,2.77,2.81
85.50,6.11,3.34,6.09,3.32,-3.36,-3.30,-2.59,2.75,2.73,2.77
86.35,6.14,3.42,6.14,3.41,-3.43,-3.37,-2.64,2.71,2.71,2.72
87.22,6.16,3.48,6.19,3.51,-3.49,-3.43,-2.69,2.67,2.70,2.68
88.09,6.22,3.59,6.23,3.59,-3.56,-3.49,-2.75,2.66,2.67,2.64
88.97,6.30,3.70,6.24,3.64,-3.63,-3.55,-2.80,2.67,2.61,2.60
89.86,6.23,3.68,6.25,3.69,-3.70,-3.61,-2.86,2.53,2.55,2.56
90.76,6.20,3.69,6.26,3.74,-3.76,-3.67,-2.92,2.44,2.49,2.51
91.66,6.29,3.82,6.27,3.80,-3.82,-3.72,-2.98,2.47,2.45,2.48
92.58,6.34,3.90,6.32,3.88,-3.88,-3.78,-3.04,2.46,2.44,2.44
93.51,6.34,3.95,6.35,3.95,-3.93,-3.83,-3.11,2.41,2.42,2.39
94.44,6.34,3.99,6.35,3.99,-3.98,-3.88,-3.18,2.37,2.37,2.36
95.39,6.34,4.02,6.34,4.02,-4.02,-3.93,-3.25,2.32,2.32,2.32
96.34,6.34,4.06,6.34,4.06,-4.06,-3.98,-3.32,2.28,2.28,2.28
97.30,6.33,4.09,6.33,4.09,-4.09,-4.03,-3.39,2.24,2.24,2.24
98.28,6.32,4.12,6.32,4.12,-4.13,-4.08,-3.46,2.19,2.20,2.20
99.26,6.31,4.15,6.31,4.15,-4.16,-4.12,-3.54,2.16,2.15,2.16
100.25,6.29,4.17,6.29,4.17,-4.18,-4.16,-3.62,2.11,2.11,2.12
101.25,6.27,4.19,6.28,4.20,-4.21,-4.20,-3.69,2.06,2.07,2.08
102.27,6.26,4.23,6.26,4.23,-4.23,-4.24,-3.77,2.03,2.04,2.03
103.29,6.25,4.27,6.25,4.27,-4.25,-4.28,-3.85,2.00,2.01,1.99
104.32,6.23,4.29,6.22,4.28,-4.26,-4.31,-3.92,1.97,1.96,1.94
105.37,6.18,4.28,6.16,4.27,-4.27,-4.35,-4.00,1.91,1.90,1.90
106.42,6.08,4.23,6.11,4.26,-4.27,-4.38,-4.08,1.82,1.85,1.85
107.48,6.05,4.25,6.06,4.26,-4.26,-4.41,-4.15,1.79,1.80,1.80
108.56,6.04,4.29,6.01,4.26,-4.24,-4.43,-4.23,1.80,1.77,1.75
109.64,5.95,4.24,5.97,4.26,-4.23,-4.45,-4.30,1.72,1.73,1.71
110.74,5.90,4.23,5.88,4.22,-4.22,-4.47,-4.37,1.68,1.66,1.67
111.85,5.81,4.18,5.80,4.17,-4.21,-4.49,-4.44,1.60,1.59,1.63
112.97,5.72,4.13,5.77,4.18,-4.21,-4.50,-4.50,1.51,1.57,1.59
114.10,5.76,4.21,5.76,4.20,-4.21,-4.52,-4.56,1.56,1.55,1.56
115.24,5.80,4.27,5.75,4.22,-4.21,-4.52,-4.61,1.59,1.54,1.53
116.39,5.72,4.23,5.74,4.24,-4.21,-4.53,-4.66,1.51,1.52,1.49
117.55,5.68,4.21,5.70,4.23,-4.23,-4.53,-4.70,1.46,1.48,1.47
118.73,5.68,4.23,5.68,4.23,-4.25,-4.53,-4.74,1.43,1.43,1.45
119.92,5.69,4.26,5.69,4.26,-4.28,-4.52,-4.77,1.41,1.41,1.43
121.12,5.70,4.29,5.70,4.28,-4.30,-4.52,-4.80,1.40,1.40,1.42
122.33,5.71,4.31,5.71,4.31,-4.32,-4.50,-4.81,1.39,1.39,1.40
123.55,5.71,4.33,5.72,4.33,-4.32,-4.49,-4.82,1.39,1.39,1.39
124.79,5.72,4.35,5.73,4.36,-4.33,-4.47,-4.82,1.39,1.41,1.37
126.03,5.74,4.38,5.74,4.39,-4.33,-4.45,-4.82,1.41,1.41,1.36
127.29,5.74,4.40,5.70,4.36,-4.33,-4.42,-4.81,1.41,1.37,1.34
128.57,5.65,4.32,5.64,4.31,-4.33,-4.40,-4.79,1.32,1.31,1.33
129.85,5.52,4.20,5.57,4.26,-4.32,-4.36,-4.76,1.20,1.25,1.32
131.15,5.53,4.23,5.54,4.24,-4.30,-4.33,-4.73,1.23,1.25,1.30
132.46,5.57,4.29,5.57,4.28,-4.27,-4.29,-4.69,1.30,1.30,1.28
133.79,5.60,4.33,5.57,4.30,-4.24,-4.26,-4.65,1.36,1.33,1.27
135.12,5.56,4.31,5.53,4.27,-4.22,-4.21,-4.60,1.34,1.31,1.25
136.48,5.40,4.16,5.44,4.20,-4.20,-4.17,-4.54,1.20,1.24,1.24
137.84,5.35,4.13,5.34,4.12,-4.18,-4.12,-4.48,1.17,1.16,1.22
139.22,5.28,4.08,5.30,4.10,-4.15,-4.07,-4.42,1.13,1.15,1.20
140.61,5.26,4.08,5.30,4.11,-4.12,-4.02,-4.35,1.14,1.18,1.18
142.02,5.33,4.17,5.26,4.10,-4.07,-3.97,-4.28,1.26,1.19,1.16
143.44,5.21,4.07,5.21,4.07,-4.03,-3.92,-4.20,1.18,1.18,1.14
144.87,5.09,3.98,5.12,4.01,-3.99,-3.86,-4.12,1.10,1.13,1.11
146.32,5.01,3.93,5.01,3.92,-3.96,-3.80,-4.05,1.06,1.05,1.08
147.78,4.92,3.87,4.91,3.86,-3.91,-3.75,-3.97,1.01,1.00,1.05
149.26,4.81,3.80,4.82,3.81,-3.85,-3.69,-3.88,0.96,0.97,1.01
150.75,4.72,3.75,4.72,3.76,-3.76,-3.63,-3.80,0.96,0.96,0.97
152.26,4.61,3.70,4.61,3.69,-3.65,-3.57,-3.72,0.96,0.95,0.91
153.78,4.46,3.60,4.46,3.60,-3.51,-3.50,-3.64,0.95,0.95,0.86
155.32,4.26,3.46,4.25,3.45,-3.34,-3.44,-3.56,0.92,0.91,0.80
156.88,4.01,3.27,4.00,3.26,-3.16,-3.38,-3.48,0.85,0.84,0.74
158.44,3.70,3.02,3.72,3.03,-2.98,-3.32,-3.40,0.72,0.73,0.68
160.03,3.46,2.83,3.42,2.79,-2.84,-3.26,-3.32,0.63,0.59,0.63
161.63,3.15,2.56,3.16,2.58,-2.73,-3.19,-3.24,0.42,0.43,0.59
163.24,2.99,2.45,3.02,2.48,-2.68,-3.13,-3.17,0.31,0.34,0.54
164.88,2.97,2.46,3.02,2.51,-2.68,-3.07,-3.09,0.29,0.33,0.51
166.53,3.17,2.69,3.15,2.67,-2.74,-3.01,-3.02,0.43,0.41,0.48
168.19,3.35,2.89,3.33,2.87,-2.83,-2.95,-2.95,0.52,0.51,0.46
169.87,3.52,3.07,3.51,3.06,-2.94,-2.89,-2.88,0.58,0.57,0.45
171.57,3.62,3.18,3.63,3.18,-3.05,-2.83,-2.81,0.57,0.57,0.45
173.29,3.69,3.24,3.69,3.24,-3.14,-2.77,-2.75,0.55,0.54,0.45
175.02,3.71,3.25,3.70,3.24,-3.19,-2.71,-2.68,0.52,0.51,0.46
176.77,3.67,3.20,3.68,3.20,-3.19,-2.65,-2.62,0.48,0.48,0.48
178.54,3.62,3.13,3.62,3.13,-3.15,-2.59,-2.56,0.47,0.47,0.49
180.32,3.55,3.04,3.56,3.05,-3.07,-2.53,-2.51,0.48,0.49,0.52
182.13,3.49,2.96,3.50,2.96,-2.97,-2.48,-2.45,0.52,0.53,0.53
183.95,3.43,2.88,3.41,2.86,-2.86,-2.42,-2.40,0.57,0.55,0.56
185.79,3.31,2.75,3.32,2.75,-2.75,-2.37,-2.35,0.56,0.56,0.56
187.65,3.19,2.62,3.21,2.64,-2.65,-2.31,-2.30,0.55,0.56,0.57
189.52,3.11,2.54,3.10,2.52,-2.55,-2.26,-2.25,0.56,0.55,0.58
191.42,3.00,2.43,3.01,2.43,-2.46,-2.21,-2.21,0.54,0.55,0.57
193.33,2.92,2.34,2.94,2.36,-2.37,-2.16,-2.16,0.55,0.57,0.58
195.27,2.88,2.30,2.86,2.29,-2.29,-2.11,-2.12,0.59,0.57,0.58
197.22,2.81,2.24,2.80,2.23,-2.22,-2.06,-2.08,0.59,0.58,0.57
199.19,2.71,2.15,2.74,2.18,-2.16,-2.01,-2.04,0.55,0.58,0.57
201.18,2.68,2.13,2.66,2.11,-2.10,-1.97,-2.00,0.58,0.56,0.55
203.19,2.60,2.06,2.58,2.04,-2.05,-1.92,-1.97,0.55,0.54,0.54
205.23,2.49,1.96,2.52,1.98,-1.99,-1.88,-1.93,0.50,0.53,0.53
207.28,2.44,1.92,2.44,1.92,-1.93,-1.83,-1.90,0.52,0.52,0.52
209.35,2.40,1.89,2.39,1.88,-1.86,-1.79,-1.87,0.54,0.53,0.51
211.44,2.32,1.83,2.33,1.83,-1.79,-1.75,-1.84,0.53,0.54,0.50
213.56,2.26,1.77,2.23,1.75,-1.73,-1.70,-1.81,0.53,0.50,0.49
215.69,2.13,1.66,2.13,1.66,-1.68,-1.66,-1.78,0.45,0.45,0.47
217.85,2.01,1.55,2.05,1.60,-1.63,-1.62,-1.75,0.38,0.43,0.46
220.03,2.00,1.56,1.99,1.55,-1.58,-1.58,-1.72,0.42,0.41,0.44
222.23,1.99,1.56,1.96,1.52,-1.54,-1.55,-1.70,0.45,0.42,0.43
224.45,1.92,1.49,1.94,1.52,-1.50,-1.51,-1.67,0.42,0.44,0.43
226.70,1.90,1.48,1.91,1.49,-1.47,-1.47,-1.65,0.43,0.44,0.42
228.96,1.90,1.49,1.88,1.46,-1.45,-1.44,-1.62,0.46,0.43,0.41
231.25,1.83,1.42,1.85,1.44,-1.43,-1.40,-1.60,0.41,0.42,0.42
233.57,1.82,1.41,1.81,1.40,-1.40,-1.37,-1.57,0.42,0.40,0.41
235.90,1.77,1.36,1.78,1.36,-1.38,-1.34,-1.55,0.39,0.40,0.41
238.26,1.75,1.33,1.77,1.35,-1.36,-1.30,-1.52,0.40,0.41,0.42
240.64,1.77,1.34,1.76,1.33,-1.33,-1.27,-1.50,0.44,0.42,0.43
243.05,1.76,1.33,1.76,1.32,-1.31,-1.24,-1.47,0.45,0.44,0.44
245.48,1.73,1.29,1.75,1.30,-1.30,-1.21,-1.45,0.43,0.45,0.44
247.93,1.74,1.30,1.72,1.27,-1.28,-1.18,-1.42,0.46,0.44,0.45
250.41,1.68,1.23,1.70,1.25,-1.26,-1.15,-1.39,0.43,0.44,0.45
252.92,1.67,1.22,1.69,1.24,-1.23,-1.13,-1.37,0.44,0.46,0.46
255.45,1.69,1.24,1.67,1.22,-1.20,-1.10,-1.34,0.49,0.47,0.45
258.00,1.67,1.23,1.64,1.19,-1.18,-1.07,-1.31,0.49,0.46,0.45
260.58,1.57,1.13,1.59,1.15,-1.16,-1.04,-1.29,0.41,0.43,0.44
263.19,1.52,1.08,1.54,1.10,-1.13,-1.02,-1.26,0.39,0.40,0.44
265.82,1.51,1.08,1.50,1.07,-1.10,-0.99,-1.23,0.41,0.40,0.43
268.48,1.50,1.07,1.51,1.08,-1.07,-0.97,-1.20,0.43,0.44,0.43
271.16,1.50,1.08,1.50,1.08,-1.04,-0.95,-1.17,0.46,0.46,0.43
273.87,1.50,1.08,1.45,1.03,-1.01,-0.92,-1.14,0.49,0.45,0.42
276.61,1.37,0.95,1.39,0.98,-0.97,-0.90,-1.12,0.40,0.42,0.42
279.38,1.31,0.90,1.35,0.93,-0.94,-0.88,-1.09,0.37,0.41,0.41
282.17,1.31,0.89,1.30,0.88,-0.90,-0.85,-1.06,0.41,0.40,0.42
284.99,1.31,0.88,1.29,0.86,-0.86,-0.83,-1.03,0.45,0.43,0.43
287.84,1.23,0.81,1.25,0.83,-0.82,-0.81,-1.00,0.42,0.44,0.43
290.72,1.23,0.80,1.21,0.78,-0.78,-0.79,-0.97,0.45,0.43,0.43
293.63,1.16,0.72,1.18,0.74,-0.76,-0.77,-0.94,0.40,0.42,0.44
296.57,1.16,0.71,1.17,0.73,-0.74,-0.75,-0.91,0.42,0.44,0.45
299.53,1.17,0.73,1.16,0.71,-0.72,-0.73,-0.88,0.45,0.44,0.44
302.53,1.16,0.71,1.15,0.70,-0.70,-0.71,-0.85,0.46,0.45,0.45
305.55,1.11,0.66,1.13,0.68,-0.67,-0.69,-0.82,0.44,0.46,0.45
308.61,1.11,0.66,1.12,0.68,-0.65,-0.68,-0.79,0.46,0.48,0.45
311.69,1.12,0.68,1.10,0.66,-0.63,-0.66,-0.76,0.50,0.47,0.44
314.81,1.08,0.65,1.06,0.62,-0.61,-0.64,-0.73,0.48,0.45,0.43
317.96,0.97,0.54,1.00,0.57,-0.59,-0.62,-0.70,0.38,0.41,0.43
321.14,0.93,0.51,0.95,0.53,-0.57,-0.61,-0.67,0.36,0.38,0.42
324.35,0.93,0.52,0.92,0.51,-0.55,-0.59,-0.64,0.38,0.37,0.42
327.59,0.93,0.53,0.93,0.52,-0.53,-0.57,-0.61,0.40,0.39,0.40
330.87,0.93,0.54,0.94,0.54,-0.51,-0.56,-0.59,0.42,0.42,0.39
334.18,0.92,0.54,0.93,0.55,-0.50,-0.54,-0.56,0.43,0.43,0.38
337.52,0.92,0.55,0.89,0.52,-0.48,-0.53,-0.53,0.44,0.41,0.37
340.90,0.84,0.47,0.84,0.47,-0.47,-0.51,-0.50,0.37,0.36,0.37
344.30,0.75,0.40,0.78,0.43,-0.46,-0.50,-0.48,0.29,0.32,0.36
347.75,0.73,0.40,0.73,0.40,-0.44,-0.48,-0.45,0.29,0.29,0.33
351.23,0.73,0.41,0.73,0.41,-0.42,-0.47,-0.43,0.31,0.31,0.32
354.74,0.73,0.42,0.73,0.42,-0.40,-0.45,-0.40,0.33,0.33,0.31
358.28,0.74,0.44,0.72,0.42,-0.39,-0.44,-0.37,0.35,0.33,0.30
361.87,0.68,0.39,0.69,0.40,-0.38,-0.42,-0.35,0.30,0.31,0.29
365.49,0.65,0.38,0.64,0.37,-0.37,-0.41,-0.32,0.28,0.27,0.27
369.14,0.58,0.33,0.60,0.34,-0.36,-0.39,-0.30,0.22,0.23,0.26
372.83,0.57,0.33,0.58,0.34,-0.35,-0.38,-0.27,0.22,0.23,0.25
376.56,0.58,0.35,0.56,0.33,-0.34,-0.37,-0.25,0.25,0.23,0.23
380.33,0.56,0.34,0.55,0.33,-0.32,-0.35,-0.22,0.24,0.23,0.22
384.13,0.51,0.30,0.53,0.32,-0.31,-0.34,-0.20,0.21,0.22,0.21
387.97,0.50,0.30,0.49,0.29,-0.29,-0.33,-0.18,0.21,0.20,0.20
391.85,0.46,0.27,0.46,0.27,-0.27,-0.31,-0.15,0.19,0.19,0.19
395.77,0.42,0.24,0.43,0.25,-0.25,-0.30,-0.13,0.17,0.19,0.18
399.73,0.41,0.24,0.40,0.23,-0.22,-0.28,-0.11,0.19,0.18,0.17
403.72,0.36,0.20,0.36,0.21,-0.19,-0.27,-0.08,0.17,0.17,0.16
407.76,0.32,0.18,0.31,0.17,-0.16,-0.26,-0.06,0.16,0.14,0.14
411.84,0.24,0.12,0.25,0.13,-0.14,-0.24,-0.04,0.10,0.11,0.13
415.96,0.20,0.09,0.22,0.10,-0.12,-0.23,-0.02,0.08,0.09,0.11
420.12,0.21,0.10,0.20,0.09,-0.11,-0.21,0.00,0.10,0.09,0.11
424.32,0.21,0.11,0.21,0.10,-0.11,-0.20,0.02,0.10,0.09,0.10
428.56,0.22,0.12,0.22,0.11,-0.12,-0.19,0.04,0.10,0.10,0.10
432.85,0.23,0.12,0.24,0.13,-0.13,-0.17,0.06,0.10,0.11,0.11
437.18,0.26,0.14,0.26,0.14,-0.14,-0.16,0.08,0.12,0.12,0.12
441.55,0.30,0.16,0.31,0.17,-0.14,-0.14,0.10,0.16,0.16,0.14
445.96,0.34,0.18,0.35,0.19,-0.14,-0.13,0.12,0.20,0.20,0.16
450.42,0.39,0.20,0.36,0.17,-0.14,-0.11,0.14,0.25,0.22,0.19
454.93,0.36,0.13,0.36,0.13,-0.14,-0.09,0.15,0.22,0.22,0.23
459.48,0.33,0.06,0.36,0.10,-0.13,-0.08,0.17,0.20,0.23,0.27
464.07,0.38,0.08,0.38,0.08,-0.12,-0.06,0.18,0.26,0.26,0.30
468.71,0.43,0.09,0.43,0.10,-0.11,-0.04,0.20,0.32,0.33,0.34
473.40,0.50,0.12,0.48,0.11,-0.09,-0.03,0.21,0.41,0.39,0.38
478.13,0.52,0.10,0.51,0.10,-0.08,-0.01,0.22,0.44,0.43,0.42
482.91,0.51,0.07,0.53,0.08,-0.07,0.01,0.23,0.44,0.46,0.45
487.74,0.54,0.07,0.53,0.06,-0.06,0.03,0.25,0.48,0.47,0.48
492.62,0.54,0.05,0.54,0.04,-0.04,0.05,0.25,0.50,0.50,0.50
497.55,0.53,0.02,0.54,0.03,-0.02,0.07,0.26,0.51,0.52,0.51
502.52,0.53,0.01,0.51,-0.01,0.01,0.09,0.27,0.54,0.52,0.52
507.55,0.48,-0.04,0.48,-0.05,0.04,0.12,0.28,0.52,0.52,0.52
512.62,0.40,-0.11,0.43,-0.09,0.08,0.14,0.28,0.48,0.51,0.51
517.75,0.38,-0.11,0.37,-0.13,0.13,0.16,0.29,0.51,0.50,0.49
522.93,0.31,-0.16,0.30,-0.17,0.18,0.18,0.29,0.49,0.48,0.47
528.16,0.22,-0.21,0.22,-0.21,0.23,0.21,0.29,0.45,0.45,0.43
533.44,0.10,-0.28,0.11,-0.28,0.29,0.23,0.30,0.39,0.39,0.38
538.77,0.00,-0.33,-0.01,-0.34,0.34,0.26,0.30,0.34,0.33,0.33
544.16,-0.14,-0.41,-0.13,-0.40,0.39,0.28,0.30,0.25,0.26,0.27
549.60,-0.23,-0.44,-0.24,-0.45,0.44,0.31,0.30,0.21,0.19,0.21
