frequency,raw,error,smoothed,error_smoothed,equalization,parametric_eq,fixed_band_eq,equalized_raw,equalized_smoothed,target
20.00,-4.10,-6.06,-4.10,-6.06,6.00,5.53,2.13,1.90,1.90,1.96
20.20,-4.05,-6.05,-4.05,-6.05,6.01,5.52,2.19,1.96,1.95,2.00
20.40,-4.01,-6.04,-4.01,-6.03,6.00,5.50,2.25,1.99,2.00,2.03
20.61,-3.96,-6.02,-3.96,-6.02,6.00,5.48,2.32,2.04,2.04,2.06
20.81,-3.91,-6.00,-3.91,-6.00,5.98,5.46,2.39,2.08,2.07,2.09
21.02,-3.87,-5.99,-3.87,-5.98,5.97,5.44,2.46,2.10,2.10,2.12
21.23,-3.82,-5.95,-3.82,-5.95,5.95,5.42,2.53,2.13,2.13,2.13
21.44,-3.77,-5.91,-3.77,-5.92,5.92,5.40,2.60,2.15,2.15,2.14
21.66,-3.72,-5.87,-3.72,-5.88,5.89,5.38,2.68,2.16,2.16,2.15
21.87,-3.68,-5.84,-3.68,-5.84,5.85,5.36,2.76,2.17,2.17,2.16
22.09,-3.63,-5.80,-3.63,-5.80,5.80,5.34,2.84,2.17,2.17,2.17
22.31,-3.58,-5.76,-3.58,-5.76,5.75,5.32,2.92,2.17,2.17,2.18
22.54,-3.53,-5.71,-3.53,-5.71,5.70,5.30,3.00,2.17,2.18,2.18
22.76,-3.47,-5.65,-3.47,-5.66,5.65,5.28,3.09,2.18,2.18,2.18
22.99,-3.42,-5.60,-3.42,-5.60,5.60,5.26,3.18,2.18,2.18,2.18
23.22,-3.37,-5.56,-3.37,-5.55,5.55,5.24,3.27,2.18,2.19,2.19
23.45,-3.31,-5.50,-3.31,-5.50,5.51,5.22,3.37,2.20,2.20,2.19
23.69,-3.26,-5.46,-3.26,-5.46,5.48,5.20,3.46,2.21,2.22,2.20
23.92,-3.21,-5.41,-3.22,-5.42,5.45,5.18,3.56,2.24,2.23,2.20
24.16,-3.19,-5.40,-3.19,-5.40,5.42,5.15,3.66,2.23,2.23,2.21
24.40,-3.19,-5.40,-3.19,-5.39,5.40,5.13,3.76,2.21,2.21,2.21
24.65,-3.19,-5.39,-3.19,-5.40,5.38,5.11,3.86,2.19,2.18,2.20
24.89,-3.19,-5.39,-3.18,-5.38,5.35,5.09,3.96,2.16,2.16,2.20
25.14,-3.16,-5.36,-3.15,-5.35,5.31,5.07,4.07,2.15,2.16,2.20
25.39,-3.10,-5.29,-3.10,-5.29,5.27,5.04,4.17,2.17,2.17,2.19
25.65,-3.04,-5.23,-3.04,-5.22,5.22,5.02,4.27,2.18,2.18,2.19
25.91,-2.98,-5.16,-2.98,-5.16,5.17,5.00,4.38,2.19,2.19,2.18
26.16,-2.93,-5.09,-2.93,-5.10,5.12,4.98,4.48,2.19,2.19,2.16
26.43,-2.89,-5.05,-2.89,-5.05,5.07,4.95,4.59,2.18,2.18,2.16
26.69,-2.85,-5.00,-2.85,-5.00,5.02,4.93,4.69,2.17,2.17,2.15
26.96,-2.81,-4.96,-2.82,-4.97,4.98,4.91,4.79,2.17,2.16,2.15
27.23,-2.79,-4.93,-2.79,-4.93,4.94,4.88,4.89,2.15,2.15,2.14
27.50,-2.77,-4.91,-2.77,-4.91,4.90,4.86,4.99,2.13,2.13,2.14
27.77,-2.75,-4.87,-2.75,-4.88,4.86,4.84,5.08,2.11,2.11,2.12
28.05,-2.73,-4.85,-2.72,-4.83,4.81,4.81,5.17,2.08,2.09,2.12
28.33,-2.66,-4.77,-2.66,-4.77,4.75,4.79,5.25,2.09,2.09,2.11
28.62,-2.60,-4.70,-2.60,-4.70,4.69,4.77,5.33,2.09,2.09,2.10
28.90,-2.53,-4.63,-2.53,-4.63,4.63,4.74,5.40,2.10,2.09,2.10
29.19,-2.47,-4.55,-2.47,-4.56,4.56,4.72,5.47,2.09,2.09,2.08
29.48,-2.41,-4.50,-2.40,-4.49,4.50,4.69,5.53,2.09,2.10,2.09
29.78,-2.35,-4.43,-2.35,-4.43,4.45,4.67,5.58,2.10,2.10,2.08
30.08,-2.30,-4.37,-2.31,-4.39,4.41,4.64,5.63,2.11,2.10,2.07
30.38,-2.29,-4.35,-2.29,-4.35,4.38,4.62,5.66,2.09,2.09,2.06
30.68,-2.29,-4.35,-2.28,-4.34,4.36,4.59,5.69,2.07,2.07,2.06
30.99,-2.28,-4.33,-2.28,-4.33,4.33,4.57,5.71,2.05,2.05,2.05
31.30,-2.28,-4.33,-2.29,-4.33,4.31,4.54,5.72,2.03,2.02,2.05
31.61,-2.28,-4.32,-2.28,-4.32,4.28,4.52,5.72,2.00,2.00,2.04
31.93,-2.28,-4.31,-2.26,-4.29,4.25,4.49,5.71,1.97,1.98,2.03
32.24,-2.22,-4.23,-2.21,-4.23,4.21,4.47,5.69,1.99,2.00,2.01
32.57,-2.15,-4.16,-2.15,-4.16,4.17,4.44,5.66,2.02,2.03,2.01
32.89,-2.07,-4.09,-2.09,-4.10,4.14,4.42,5.63,2.07,2.05,2.02
33.22,-2.05,-4.06,-2.05,-4.06,4.11,4.39,5.59,2.06,2.05,2.01
33.55,-2.05,-4.05,-2.04,-4.05,4.08,4.37,5.54,2.03,2.04,2.00
33.89,-2.05,-4.04,-2.05,-4.04,4.05,4.34,5.48,2.00,2.00,1.99
34.23,-2.05,-4.04,-2.06,-4.04,4.02,4.31,5.42,1.97,1.97,1.99
34.57,-2.05,-4.03,-2.05,-4.04,3.99,4.29,5.35,1.94,1.94,1.98
34.92,-2.05,-4.03,-2.03,-4.01,3.96,4.26,5.28,1.91,1.93,1.98
35.27,-1.99,-3.97,-1.98,-3.95,3.93,4.23,5.20,1.94,1.95,1.97
35.62,-1.91,-3.87,-1.91,-3.88,3.89,4.21,5.12,1.98,1.98,1.96
35.97,-1.83,-3.79,-1.85,-3.81,3.85,4.18,5.04,2.02,2.00,1.96
36.33,-1.82,-3.78,-1.82,-3.77,3.81,4.15,4.95,1.99,1.99,1.96
36.70,-1.82,-3.76,-1.81,-3.76,3.78,4.13,4.86,1.96,1.97,1.94
37.06,-1.82,-3.75,-1.82,-3.76,3.75,4.10,4.77,1.93,1.93,1.93
37.43,-1.82,-3.75,-1.82,-3.75,3.73,4.07,4.68,1.91,1.91,1.93
37.81,-1.82,-3.74,-1.82,-3.74,3.72,4.05,4.59,1.90,1.90,1.92
38.19,-1.82,-3.72,-1.82,-3.73,3.72,4.02,4.50,1.90,1.90,1.90
38.57,-1.82,-3.72,-1.82,-3.72,3.71,3.99,4.41,1.89,1.89,1.90
38.95,-1.82,-3.71,-1.82,-3.71,3.71,3.96,4.32,1.89,1.89,1.89
39.34,-1.82,-3.69,-1.82,-3.70,3.69,3.94,4.24,1.87,1.87,1.87
39.74,-1.82,-3.68,-1.82,-3.69,3.68,3.91,4.15,1.86,1.86,1.86
40.14,-1.82,-3.69,-1.82,-3.68,3.67,3.88,4.07,1.85,1.85,1.87
40.54,-1.82,-3.67,-1.82,-3.68,3.66,3.85,3.98,1.84,1.84,1.85
40.94,-1.82,-3.67,-1.82,-3.67,3.66,3.82,3.90,1.84,1.84,1.85
41.35,-1.82,-3.66,-1.81,-3.65,3.68,3.79,3.82,1.86,1.87,1.84
41.76,-1.82,-3.65,-1.83,-3.66,3.71,3.77,3.75,1.88,1.88,1.83
42.18,-1.86,-3.68,-1.88,-3.69,3.74,3.74,3.67,1.88,1.86,1.82
42.60,-1.96,-3.76,-1.95,-3.76,3.78,3.71,3.60,1.82,1.82,1.80
43.03,-2.06,-3.85,-2.06,-3.85,3.82,3.68,3.53,1.76,1.75,1.79
43.46,-2.16,-3.92,-2.17,-3.93,3.86,3.65,3.47,1.70,1.70,1.76
43.90,-2.26,-3.99,-2.23,-3.97,3.91,3.62,3.40,1.66,1.68,1.73
44.33,-2.28,-3.98,-2.27,-3.97,3.97,3.59,3.34,1.69,1.70,1.70
44.78,-2.28,-3.96,-2.31,-3.98,4.03,3.56,3.28,1.75,1.73,1.68
45.23,-2.35,-4.00,-2.37,-4.02,4.10,3.53,3.23,1.75,1.73,1.65
45.68,-2.48,-4.11,-2.47,-4.10,4.15,3.50,3.17,1.67,1.69,1.63
46.13,-2.59,-4.20,-2.58,-4.20,4.21,3.46,3.12,1.61,1.62,1.61
46.60,-2.67,-4.28,-2.67,-4.27,4.25,3.43,3.07,1.58,1.57,1.61
47.06,-2.74,-4.33,-2.73,-4.32,4.28,3.40,3.03,1.54,1.55,1.59
47.53,-2.74,-4.31,-2.75,-4.33,4.29,3.37,2.98,1.55,1.54,1.57
48.01,-2.74,-4.32,-2.73,-4.31,4.27,3.34,2.94,1.53,1.53,1.58
48.49,-2.67,-4.24,-2.68,-4.24,4.21,3.30,2.90,1.54,1.53,1.57
48.97,-2.60,-4.15,-2.58,-4.14,4.12,3.27,2.87,1.52,1.54,1.55
49.46,-2.45,-4.00,-2.45,-4.00,4.00,3.24,2.83,1.55,1.55,1.55
49.96,-2.29,-3.84,-2.31,-3.86,3.86,3.20,2.80,1.57,1.55,1.55
50.46,-2.16,-3.72,-2.16,-3.71,3.72,3.17,2.77,1.56,1.56,1.56
50.96,-2.02,-3.58,-2.01,-3.56,3.57,3.13,2.74,1.55,1.57,1.56
51.47,-1.87,-3.42,-1.87,-3.42,3.44,3.10,2.71,1.57,1.58,1.55
51.99,-1.72,-3.27,-1.74,-3.29,3.33,3.06,2.68,1.61,1.59,1.55
52.51,-1.66,-3.21,-1.65,-3.19,3.24,3.02,2.65,1.58,1.58,1.55
53.03,-1.60,-3.13,-1.61,-3.14,3.16,2.98,2.63,1.56,1.56,1.53
53.56,-1.60,-3.11,-1.60,-3.11,3.11,2.95,2.61,1.51,1.51,1.51
54.10,-1.60,-3.09,-1.59,-3.08,3.07,2.91,2.58,1.47,1.47,1.49
54.64,-1.60,-3.06,-1.60,-3.06,3.04,2.87,2.56,1.44,1.44,1.46
55.18,-1.60,-3.03,-1.60,-3.03,3.02,2.83,2.54,1.42,1.42,1.43
55.74,-1.60,-3.00,-1.60,-3.00,3.00,2.78,2.51,1.40,1.40,1.40
56.29,-1.60,-2.97,-1.60,-2.97,2.98,2.74,2.49,1.38,1.38,1.37
56.86,-1.60,-2.94,-1.60,-2.94,2.95,2.70,2.47,1.35,1.35,1.34
57.42,-1.60,-2.90,-1.60,-2.91,2.90,2.65,2.45,1.30,1.29,1.30
58.00,-1.60,-2.87,-1.61,-2.88,2.84,2.61,2.42,1.24,1.23,1.27
58.58,-1.60,-2.83,-1.59,-2.82,2.78,2.56,2.40,1.18,1.19,1.23
59.16,-1.56,-2.77,-1.53,-2.73,2.71,2.51,2.37,1.15,1.19,1.21
59.76,-1.43,-2.61,-1.46,-2.63,2.65,2.46,2.34,1.22,1.19,1.18
60.35,-1.37,-2.50,-1.39,-2.53,2.58,2.41,2.32,1.21,1.19,1.13
60.96,-1.37,-2.47,-1.36,-2.45,2.52,2.36,2.29,1.15,1.15,1.10
61.57,-1.37,-2.41,-1.37,-2.42,2.44,2.31,2.26,1.07,1.07,1.04
62.18,-1.37,-2.38,-1.37,-2.38,2.36,2.25,2.22,0.99,0.99,1.01
62.80,-1.37,-2.34,-1.36,-2.33,2.28,2.19,2.19,0.91,0.92,0.97
63.43,-1.33,-2.25,-1.32,-2.25,2.20,2.13,2.15,0.87,0.87,0.92
64.07,-1.26,-2.16,-1.25,-2.15,2.11,2.07,2.11,0.85,0.86,0.90
64.71,-1.14,-2.00,-1.14,-2.00,2.01,2.00,2.08,0.87,0.87,0.86
65.35,-1.03,-1.86,-1.03,-1.86,1.90,1.94,2.03,0.87,0.86,0.83
66.01,-0.91,-1.70,-0.95,-1.75,1.78,1.87,1.99,0.87,0.82,0.79
66.67,-0.91,-1.68,-0.87,-1.64,1.66,1.79,1.95,0.75,0.78,0.77
67.33,-0.83,-1.57,-0.80,-1.55,1.54,1.72,1.90,0.71,0.74,0.74
68.01,-0.68,-1.40,-0.74,-1.46,1.44,1.64,1.85,0.76,0.71,0.72
68.69,-0.67,-1.37,-0.64,-1.34,1.35,1.56,1.81,0.68,0.72,0.70
69.37,-0.58,-1.26,-0.56,-1.24,1.27,1.48,1.76,0.69,0.71,0.68
70.07,-0.46,-1.12,-0.51,-1.17,1.18,1.39,1.71,0.72,0.67,0.66
70.77,-0.46,-1.11,-0.47,-1.12,1.10,1.30,1.66,0.64,0.63,0.65
71.48,-0.46,-1.10,-0.43,-1.06,1.03,1.21,1.60,0.57,0.61,0.64
72.19,-0.41,-1.02,-0.37,-0.98,0.97,1.12,1.55,0.56,0.60,0.61
72.91,-0.25,-0.84,-0.30,-0.89,0.91,1.04,1.50,0.66,0.61,0.59
73.64,-0.23,-0.79,-0.24,-0.81,0.84,0.95,1.44,0.61,0.60,0.56
74.38,-0.23,-0.78,-0.23,-0.77,0.78,0.86,1.39,0.55,0.55,0.55
75.12,-0.23,-0.75,-0.23,-0.75,0.71,0.78,1.33,0.48,0.48,0.52
75.87,-0.23,-0.73,-0.19,-0.69,0.64,0.70,1.28,0.42,0.45,0.50
76.63,-0.12,-0.60,-0.12,-0.60,0.59,0.63,1.22,0.47,0.46,0.48
77.40,-0.03,-0.49,-0.06,-0.52,0.54,0.57,1.17,0.51,0.48,0.46
78.17,0.00,-0.44,-0.00,-0.45,0.50,0.52,1.11,0.50,0.50,0.44
78.95,0.00,-0.45,0.01,-0.43,0.48,0.47,1.06,0.48,0.48,0.45
79.74,0.00,-0.44,0.00,-0.43,0.45,0.44,1.00,0.45,0.45,0.44
80.54,0.00,-0.43,-0.00,-0.43,0.43,0.41,0.95,0.43,0.43,0.43
81.35,0.00,-0.43,-0.00,-0.43,0.41,0.39,0.89,0.41,0.41,0.43
82.16,0.00,-0.43,-0.01,-0.44,0.39,0.37,0.84,0.39,0.38,0.43
82.98,0.00,-0.44,-0.00,-0.43,0.37,0.36,0.79,0.37,0.37,0.44
83.81,0.00,-0.43,0.05,-0.38,0.35,0.36,0.73,0.35,0.41,0.43
84.65,0.15,-0.29,0.13,-0.32,0.33,0.36,0.68,0.48,0.45,0.44
85.50,0.23,-0.23,0.20,-0.26,0.30,0.35,0.63,0.53,0.50,0.46
86.35,0.23,-0.24,0.24,-0.23,0.28,0.35,0.57,0.51,0.52,0.47
87.22,0.23,-0.25,0.24,-0.24,0.26,0.35,0.52,0.49,0.50,0.48
88.09,0.23,-0.26,0.23,-0.26,0.26,0.35,0.47,0.49,0.49,0.49
88.97,0.23,-0.27,0.23,-0.27,0.26,0.35,0.42,0.49,0.49,0.50
89.86,0.23,-0.29,0.23,-0.28,0.27,0.34,0.37,0.50,0.50,0.52
90.76,0.23,-0.28,0.23,-0.29,0.28,0.33,0.32,0.51,0.51,0.51
91.66,0.23,-0.30,0.23,-0.29,0.29,0.32,0.27,0.52,0.52,0.53
92.58,0.23,-0.29,0.23,-0.30,0.30,0.31,0.22,0.53,0.53,0.52
93.51,0.23,-0.30,0.23,-0.30,0.30,0.30,0.16,0.53,0.53,0.53
94.44,0.23,-0.31,0.23,-0.30,0.30,0.28,0.12,0.53,0.53,0.54
95.39,0.23,-0.30,0.23,-0.30,0.30,0.26,0.07,0.53,0.53,0.53
96.34,0.23,-0.29,0.23,-0.30,0.30,0.24,0.02,0.53,0.53,0.52
97.30,0.23,-0.30,0.23,-0.29,0.30,0.22,-0.03,0.53,0.53,0.53
98.28,0.23,-0.29,0.23,-0.29,0.29,0.20,-0.08,0.52,0.52,0.52
99.26,0.23,-0.28,0.23,-0.28,0.29,0.18,-0.13,0.52,0.52,0.51
100.25,0.23,-0.27,0.23,-0.27,0.28,0.15,-0.18,0.51,0.51,0.50
101.25,0.23,-0.27,0.23,-0.26,0.28,0.13,-0.22,0.51,0.51,0.50
102.27,0.23,-0.26,0.23,-0.25,0.26,0.10,-0.27,0.49,0.49,0.49
103.29,0.23,-0.23,0.23,-0.23,0.23,0.07,-0.32,0.46,0.46,0.46
104.32,0.23,-0.21,0.22,-0.22,0.19,0.04,-0.36,0.42,0.41,0.44
105.37,0.23,-0.18,0.22,-0.19,0.13,0.01,-0.41,0.36,0.36,0.41
106.42,0.23,-0.15,0.27,-0.11,0.07,-0.02,-0.45,0.30,0.34,0.38
107.48,0.33,-0.00,0.34,0.00,-0.00,-0.05,-0.50,0.33,0.33,0.34
108.56,0.45,0.16,0.41,0.12,-0.08,-0.08,-0.54,0.37,0.33,0.29
109.64,0.46,0.21,0.46,0.21,-0.16,-0.11,-0.58,0.30,0.30,0.25
110.74,0.46,0.26,0.47,0.27,-0.24,-0.15,-0.62,0.22,0.24,0.20
111.85,0.46,0.30,0.46,0.31,-0.31,-0.18,-0.66,0.15,0.15,0.16
112.97,0.46,0.36,0.46,0.36,-0.37,-0.22,-0.70,0.09,0.09,0.10
114.10,0.46,0.40,0.46,0.41,-0.42,-0.25,-0.74,0.04,0.04,0.06
115.24,0.46,0.46,0.46,0.46,-0.47,-0.29,-0.77,-0.01,-0.01,0.00
116.39,0.46,0.51,0.46,0.51,-0.51,-0.33,-0.81,-0.05,-0.05,-0.05
117.55,0.46,0.55,0.46,0.55,-0.54,-0.37,-0.84,-0.08,-0.08,-0.09
118.73,0.46,0.59,0.46,0.59,-0.58,-0.41,-0.87,-0.12,-0.12,-0.13
119.92,0.46,0.62,0.46,0.62,-0.62,-0.45,-0.90,-0.16,-0.16,-0.16
121.12,0.46,0.65,0.46,0.65,-0.65,-0.49,-0.93,-0.19,-0.19,-0.19
122.33,0.46,0.68,0.46,0.67,-0.67,-0.54,-0.96,-0.21,-0.21,-0.22
123.55,0.46,0.69,0.46,0.70,-0.70,-0.58,-0.98,-0.24,-0.24,-0.23
124.79,0.46,0.72,0.46,0.72,-0.72,-0.63,-1.00,-0.26,-0.26,-0.26
126.03,0.46,0.74,0.46,0.74,-0.74,-0.68,-1.02,-0.28,-0.28,-0.28
127.29,0.46,0.75,0.46,0.76,-0.75,-0.72,-1.04,-0.29,-0.29,-0.29
128.57,0.46,0.79,0.46,0.79,-0.77,-0.77,-1.06,-0.31,-0.31,-0.33
129.85,0.46,0.81,0.46,0.81,-0.80,-0.82,-1.08,-0.34,-0.34,-0.35
131.15,0.46,0.83,0.46,0.83,-0.83,-0.87,-1.09,-0.37,-0.37,-0.37
132.46,0.46,0.86,0.45,0.84,-0.88,-0.92,-1.10,-0.42,-0.43,-0.40
133.79,0.46,0.87,0.46,0.88,-0.93,-0.97,-1.11,-0.47,-0.46,-0.41
135.12,0.47,0.91,0.52,0.95,-0.98,-1.02,-1.12,-0.51,-0.46,-0.44
136.48,0.62,1.07,0.59,1.04,-1.04,-1.07,-1.13,-0.42,-0.45,-0.45
137.84,0.68,1.16,0.65,1.14,-1.09,-1.12,-1.14,-0.41,-0.44,-0.48
139.22,0.68,1.20,0.69,1.20,-1.14,-1.16,-1.15,-0.46,-0.45,-0.52
140.61,0.68,1.22,0.69,1.22,-1.19,-1.21,-1.15,-0.51,-0.50,-0.54
142.02,0.68,1.22,0.68,1.23,-1.23,-1.26,-1.16,-0.55,-0.55,-0.54
143.44,0.68,1.25,0.68,1.25,-1.27,-1.30,-1.16,-0.59,-0.59,-0.57
144.87,0.68,1.28,0.68,1.28,-1.29,-1.35,-1.17,-0.61,-0.61,-0.60
146.32,0.68,1.31,0.68,1.31,-1.32,-1.39,-1.17,-0.64,-0.64,-0.63
147.78,0.68,1.34,0.68,1.34,-1.36,-1.43,-1.18,-0.68,-0.68,-0.66
149.26,0.68,1.38,0.68,1.38,-1.40,-1.47,-1.18,-0.72,-0.72,-0.70
150.75,0.68,1.43,0.68,1.43,-1.45,-1.51,-1.18,-0.77,-0.77,-0.75
152.26,0.68,1.48,0.68,1.49,-1.49,-1.55,-1.19,-0.81,-0.80,-0.80
153.78,0.68,1.55,0.69,1.56,-1.52,-1.59,-1.19,-0.84,-0.83,-0.87
155.32,0.68,1.61,0.67,1.60,-1.55,-1.62,-1.20,-0.87,-0.88,-0.93
156.88,0.66,1.64,0.62,1.61,-1.58,-1.66,-1.21,-0.92,-0.96,-0.98
158.44,0.52,1.57,0.55,1.59,-1.60,-1.69,-1.21,-1.08,-1.06,-1.05
160.03,0.46,1.57,0.48,1.59,-1.63,-1.72,-1.22,-1.17,-1.14,-1.11
161.63,0.46,1.61,0.45,1.60,-1.65,-1.75,-1.23,-1.19,-1.20,-1.15
163.24,0.46,1.66,0.45,1.65,-1.66,-1.78,-1.24,-1.20,-1.20,-1.20
164.88,0.46,1.69,0.46,1.69,-1.67,-1.81,-1.25,-1.21,-1.21,-1.23
166.53,0.46,1.72,0.46,1.72,-1.69,-1.83,-1.26,-1.23,-1.23,-1.26
168.19,0.46,1.75,0.46,1.74,-1.72,-1.86,-1.27,-1.26,-1.26,-1.29
169.87,0.46,1.76,0.46,1.76,-1.75,-1.88,-1.28,-1.29,-1.29,-1.30
171.57,0.46,1.77,0.44,1.75,-1.79,-1.90,-1.29,-1.33,-1.35,-1.31
173.29,0.46,1.77,0.47,1.78,-1.83,-1.92,-1.31,-1.37,-1.36,-1.31
175.02,0.46,1.77,0.52,1.83,-1.86,-1.94,-1.33,-1.40,-1.34,-1.31
176.77,0.65,1.96,0.60,1.91,-1.89,-1.95,-1.34,-1.24,-1.29,-1.31
178.54,0.68,1.99,0.66,1.97,-1.92,-1.97,-1.36,-1.24,-1.26,-1.31
180.32,0.68,1.98,0.70,2.00,-1.95,-1.98,-1.38,-1.27,-1.25,-1.30
182.13,0.68,1.98,0.68,1.98,-1.97,-2.00,-1.40,-1.29,-1.29,-1.30
183.95,0.68,1.98,0.68,1.98,-1.99,-2.01,-1.42,-1.31,-1.31,-1.30
185.79,0.68,1.98,0.68,1.98,-2.01,-2.02,-1.44,-1.33,-1.33,-1.30
187.65,0.68,2.00,0.68,2.00,-2.01,-2.03,-1.47,-1.33,-1.33,-1.32
189.52,0.68,2.01,0.68,2.01,-2.02,-2.04,-1.49,-1.34,-1.34,-1.33
191.42,0.68,2.03,0.68,2.03,-2.02,-2.05,-1.52,-1.34,-1.34,-1.35
193.33,0.68,2.04,0.68,2.04,-2.03,-2.05,-1.54,-1.35,-1.35,-1.36
195.27,0.68,2.05,0.68,2.05,-2.05,-2.06,-1.57,-1.37,-1.37,-1.37
197.22,0.68,2.06,0.68,2.07,-2.07,-2.06,-1.60,-1.39,-1.39,-1.38
199.19,0.68,2.09,0.68,2.08,-2.08,-2.06,-1.63,-1.40,-1.40,-1.41
201.18,0.68,2.10,0.68,2.10,-2.10,-2.07,-1.66,-1.42,-1.42,-1.42
203.19,0.68,2.11,0.68,2.12,-2.12,-2.07,-1.68,-1.44,-1.44,-1.43
205.23,0.68,2.13,0.68,2.13,-2.13,-2.07,-1.71,-1.45,-1.45,-1.45
207.28,0.68,2.14,0.68,2.15,-2.15,-2.07,-1.74,-1.47,-1.47,-1.46
209.35,0.68,2.16,0.68,2.17,-2.17,-2.07,-1.77,-1.49,-1.49,-1.48
211.44,0.68,2.19,0.68,2.18,-2.18,-2.07,-1.80,-1.50,-1.50,-1.51
213.56,0.68,2.20,0.68,2.20,-2.20,-2.06,-1.83,-1.52,-1.52,-1.52
215.69,0.68,2.20,0.68,2.21,-2.21,-2.06,-1.86,-1.53,-1.53,-1.52
217.85,0.68,2.22,0.68,2.22,-2.22,-2.05,-1.89,-1.54,-1.54,-1.54
220.03,0.68,2.24,0.68,2.23,-2.23,-2.05,-1.92,-1.55,-1.55,-1.56
222.23,0.68,2.25,0.68,2.25,-2.24,-2.04,-1.94,-1.56,-1.56,-1.57
224.45,0.68,2.25,0.68,2.26,-2.25,-2.04,-1.97,-1.57,-1.57,-1.57
226.70,0.68,2.26,0.68,2.26,-2.26,-2.03,-1.99,-1.58,-1.58,-1.58
228.96,0.68,2.26,0.68,2.25,-2.26,-2.02,-2.02,-1.58,-1.58,-1.58
231.25,0.68,2.25,0.68,2.26,-2.26,-2.01,-2.04,-1.58,-1.58,-1.57
233.57,0.68,2.26,0.68,2.26,-2.26,-2.01,-2.05,-1.58,-1.58,-1.58
235.90,0.68,2.26,0.68,2.26,-2.26,-2.00,-2.07,-1.58,-1.58,-1.58
238.26,0.68,2.26,0.68,2.26,-2.26,-1.99,-2.08,-1.58,-1.58,-1.58
240.64,0.68,2.26,0.68,2.25,-2.25,-1.98,-2.09,-1.57,-1.57,-1.58
243.05,0.68,2.24,0.68,2.24,-2.24,-1.96,-2.10,-1.56,-1.56,-1.56
245.48,0.68,2.23,0.68,2.23,-2.23,-1.95,-2.11,-1.55,-1.55,-1.55
247.93,0.68,2.21,0.68,2.22,-2.22,-1.94,-2.11,-1.54,-1.54,-1.53
250.41,0.68,2.21,0.68,2.20,-2.20,-1.93,-2.11,-1.52,-1.52,-1.53
252.92,0.68,2.18,0.68,2.18,-2.19,-1.92,-2.11,-1.51,-1.51,-1.50
255.45,0.68,2.16,0.68,2.16,-2.17,-1.90,-2.10,-1.49,-1.49,-1.48
258.00,0.68,2.14,0.68,2.14,-2.16,-1.89,-2.09,-1.48,-1.48,-1.46
260.58,0.68,2.14,0.68,2.13,-2.14,-1.88,-2.08,-1.46,-1.46,-1.46
263.19,0.68,2.11,0.68,2.11,-2.12,-1.86,-2.07,-1.44,-1.44,-1.43
265.82,0.68,2.09,0.69,2.10,-2.08,-1.85,-2.05,-1.40,-1.39,-1.41
268.48,0.68,2.08,0.69,2.08,-2.03,-1.83,-2.03,-1.35,-1.35,-1.40
271.16,0.68,2.05,0.65,2.02,-1.99,-1.82,-2.01,-1.31,-1.34,-1.37
273.87,0.60,1.96,0.59,1.94,-1.93,-1.80,-1.99,-1.33,-1.35,-1.36
276.61,0.48,1.81,0.52,1.85,-1.88,-1.79,-1.96,-1.40,-1.36,-1.33
279.38,0.46,1.77,0.46,1.78,-1.82,-1.77,-1.93,-1.36,-1.36,-1.31
282.17,0.46,1.75,0.45,1.74,-1.77,-1.75,-1.91,-1.31,-1.32,-1.29
284.99,0.46,1.72,0.46,1.72,-1.72,-1.74,-1.88,-1.26,-1.26,-1.26
287.84,0.46,1.69,0.46,1.69,-1.68,-1.72,-1.85,-1.22,-1.22,-1.23
290.72,0.46,1.67,0.46,1.67,-1.66,-1.70,-1.82,-1.20,-1.20,-1.21
293.63,0.46,1.65,0.46,1.64,-1.63,-1.69,-1.78,-1.17,-1.17,-1.19
296.57,0.46,1.61,0.46,1.62,-1.61,-1.67,-1.75,-1.15,-1.15,-1.15
299.53,0.46,1.59,0.46,1.60,-1.60,-1.65,-1.72,-1.14,-1.14,-1.13
302.53,0.46,1.59,0.46,1.58,-1.57,-1.63,-1.68,-1.11,-1.11,-1.13
305.55,0.46,1.55,0.46,1.56,-1.55,-1.61,-1.65,-1.09,-1.09,-1.09
308.61,0.46,1.54,0.46,1.54,-1.54,-1.60,-1.62,-1.08,-1.08,-1.08
311.69,0.46,1.51,0.46,1.51,-1.52,-1.58,-1.59,-1.06,-1.06,-1.05
314.81,0.46,1.50,0.46,1.50,-1.51,-1.56,-1.55,-1.05,-1.05,-1.04
317.96,0.46,1.49,0.46,1.49,-1.50,-1.54,-1.52,-1.04,-1.04,-1.03
321.14,0.46,1.49,0.46,1.49,-1.49,-1.52,-1.49,-1.03,-1.03,-1.03
324.35,0.46,1.49,0.46,1.48,-1.48,-1.50,-1.46,-1.02,-1.02,-1.03
327.59,0.46,1.47,0.46,1.48,-1.47,-1.49,-1.43,-1.01,-1.01,-1.01
330.87,0.46,1.47,0.46,1.47,-1.47,-1.47,-1.40,-1.01,-1.01,-1.01
334.18,0.46,1.47,0.46,1.46,-1.46,-1.45,-1.37,-1.00,-1.00,-1.01
337.52,0.46,1.45,0.46,1.45,-1.45,-1.43,-1.35,-0.99,-0.99,-0.99
340.90,0.46,1.43,0.46,1.43,-1.43,-1.41,-1.32,-0.97,-0.97,-0.97
344.30,0.46,1.41,0.46,1.41,-1.41,-1.39,-1.29,-0.95,-0.95,-0.95
347.75,0.46,1.39,0.46,1.39,-1.39,-1.37,-1.27,-0.93,-0.93,-0.93
351.23,0.46,1.37,0.46,1.37,-1.37,-1.35,-1.25,-0.91,-0.91,-0.91
354.74,0.46,1.36,0.46,1.35,-1.35,-1.33,-1.22,-0.89,-0.89,-0.90
358.28,0.46,1.33,0.46,1.33,-1.33,-1.32,-1.20,-0.87,-0.87,-0.87
361.87,0.46,1.31,0.46,1.31,-1.31,-1.30,-1.18,-0.85,-0.85,-0.85
365.49,0.46,1.28,0.46,1.29,-1.29,-1.28,-1.16,-0.83,-0.83,-0.82
369.14,0.46,1.27,0.46,1.27,-1.27,-1.26,-1.14,-0.81,-0.81,-0.81
372.83,0.46,1.25,0.46,1.25,-1.25,-1.24,-1.13,-0.79,-0.79,-0.79
376.56,0.46,1.23,0.46,1.23,-1.23,-1.22,-1.11,-0.77,-0.77,-0.77
380.33,0.46,1.20,0.46,1.21,-1.21,-1.20,-1.09,-0.75,-0.75,-0.74
384.13,0.46,1.19,0.46,1.19,-1.20,-1.18,-1.08,-0.74,-0.74,-0.73
387.97,0.46,1.19,0.46,1.18,-1.18,-1.16,-1.06,-0.72,-0.72,-0.73
391.85,0.46,1.18,0.46,1.17,-1.17,-1.14,-1.05,-0.71,-0.71,-0.72
395.77,0.46,1.16,0.46,1.16,-1.16,-1.12,-1.04,-0.70,-0.70,-0.70
399.73,0.46,1.15,0.46,1.15,-1.15,-1.11,-1.03,-0.69,-0.69,-0.69
403.72,0.46,1.14,0.46,1.14,-1.14,-1.09,-1.02,-0.68,-0.68,-0.68
407.76,0.46,1.13,0.46,1.13,-1.13,-1.07,-1.00,-0.67,-0.67,-0.67
411.84,0.46,1.12,0.46,1.12,-1.12,-1.05,-1.00,-0.66,-0.66,-0.66
415.96,0.46,1.11,0.46,1.11,-1.12,-1.03,-0.99,-0.66,-0.66,-0.65
420.12,0.46,1.10,0.46,1.11,-1.11,-1.01,-0.98,-0.65,-0.65,-0.64
424.32,0.46,1.10,0.46,1.10,-1.11,-0.99,-0.97,-0.65,-0.65,-0.64
428.56,0.46,1.10,0.46,1.10,-1.11,-0.97,-0.96,-0.65,-0.65,-0.64
432.85,0.46,1.10,0.46,1.09,-1.10,-0.95,-0.95,-0.64,-0.64,-0.64
437.18,0.46,1.09,0.46,1.09,-1.08,-0.94,-0.95,-0.62,-0.62,-0.63
441.55,0.46,1.08,0.48,1.10,-1.05,-0.92,-0.94,-0.59,-0.57,-0.62
445.96,0.46,1.07,0.46,1.07,-1.01,-0.90,-0.93,-0.55,-0.56,-0.61
450.42,0.46,1.07,0.40,1.00,-0.97,-0.88,-0.92,-0.51,-0.57,-0.61
454.93,0.28,0.87,0.32,0.92,-0.93,-0.86,-0.92,-0.65,-0.61,-0.59
459.48,0.23,0.82,0.26,0.84,-0.89,-0.84,-0.91,-0.66,-0.63,-0.59
464.07,0.23,0.80,0.22,0.79,-0.84,-0.83,-0.90,-0.61,-0.63,-0.57
468.71,0.23,0.78,0.23,0.78,-0.80,-0.81,-0.90,-0.57,-0.58,-0.55
473.40,0.23,0.78,0.23,0.78,-0.77,-0.79,-0.89,-0.54,-0.54,-0.55
478.13,0.23,0.76,0.23,0.76,-0.74,-0.77,-0.88,-0.51,-0.51,-0.53
482.91,0.23,0.75,0.23,0.75,-0.73,-0.75,-0.87,-0.50,-0.50,-0.52
487.74,0.23,0.72,0.23,0.72,-0.71,-0.74,-0.86,-0.48,-0.48,-0.49
492.62,0.23,0.69,0.23,0.70,-0.70,-0.72,-0.85,-0.47,-0.47,-0.46
497.55,0.23,0.67,0.23,0.67,-0.68,-0.70,-0.84,-0.45,-0.45,-0.44
