frequency,raw,error,smoothed,error_smoothed,equalization,parametric_eq,fixed_band_eq,equalized_raw,equalized_smoothed,target
20.00,2.79,-3.14,2.79,-3.14,3.17,3.05,0.69,5.96,5.95,5.93
20.20,2.80,-3.13,2.81,-3.12,3.12,3.02,0.71,5.93,5.94,5.93
20.40,2.85,-3.08,2.85,-3.09,3.08,2.99,0.73,5.93,5.93,5.93
20.61,2.88,-3.05,2.89,-3.05,3.03,2.95,0.75,5.91,5.92,5.93
20.81,2.94,-2.99,2.94,-3.00,2.98,2.92,0.77,5.93,5.92,5.94
21.02,2.98,-2.95,2.99,-2.95,2.94,2.89,0.80,5.92,5.92,5.94
21.23,3.04,-2.90,3.04,-2.89,2.89,2.85,0.82,5.93,5.93,5.94
21.44,3.10,-2.84,3.10,-2.84,2.84,2.82,0.85,5.94,5.93,5.94
21.66,3.15,-2.79,3.16,-2.78,2.78,2.78,0.87,5.93,5.94,5.94
21.87,3.21,-2.73,3.22,-2.72,2.72,2.74,0.90,5.94,5.94,5.94
22.09,3.29,-2.65,3.28,-2.66,2.67,2.71,0.93,5.96,5.95,5.94
22.31,3.33,-2.61,3.34,-2.60,2.62,2.67,0.95,5.95,5.96,5.94
22.54,3.38,-2.56,3.39,-2.56,2.57,2.63,0.98,5.95,5.96,5.94
22.76,3.43,-2.51,3.42,-2.52,2.53,2.60,1.01,5.96,5.95,5.95
22.99,3.45,-2.49,3.46,-2.49,2.49,2.56,1.04,5.94,5.95,5.95
23.22,3.49,-2.45,3.49,-2.46,2.46,2.52,1.07,5.95,5.95,5.95
23.45,3.52,-2.43,3.52,-2.43,2.43,2.48,1.10,5.95,5.95,5.95
23.69,3.54,-2.41,3.55,-2.40,2.40,2.44,1.13,5.94,5.95,5.95
23.92,3.58,-2.37,3.58,-2.37,2.37,2.41,1.17,5.95,5.95,5.95
24.16,3.61,-2.34,3.62,-2.33,2.33,2.37,1.20,5.94,5.94,5.95
24.40,3.66,-2.29,3.66,-2.30,2.28,2.33,1.23,5.95,5.94,5.95
24.65,3.70,-2.25,3.71,-2.25,2.23,2.29,1.27,5.94,5.94,5.95
24.89,3.75,-2.20,3.77,-2.19,2.18,2.25,1.30,5.94,5.95,5.95
25.14,3.84,-2.11,3.83,-2.13,2.13,2.21,1.33,5.97,5.96,5.96
25.39,3.89,-2.06,3.89,-2.06,2.08,2.18,1.37,5.97,5.97,5.96
25.65,3.94,-2.01,3.95,-2.01,2.03,2.14,1.40,5.97,5.97,5.96
25.91,3.99,-1.97,3.99,-1.97,1.98,2.10,1.44,5.97,5.97,5.96
26.16,4.02,-1.94,4.03,-1.93,1.94,2.06,1.47,5.96,5.97,5.96
26.43,4.05,-1.91,4.06,-1.90,1.90,2.02,1.50,5.96,5.96,5.96
26.69,4.09,-1.87,4.08,-1.88,1.87,1.98,1.53,5.96,5.96,5.96
26.96,4.10,-1.86,4.11,-1.85,1.84,1.95,1.57,5.94,5.95,5.96
27.23,4.15,-1.81,4.15,-1.81,1.81,1.91,1.60,5.96,5.95,5.96
27.50,4.18,-1.78,4.18,-1.78,1.77,1.87,1.63,5.95,5.95,5.96
27.77,4.22,-1.74,4.23,-1.74,1.74,1.83,1.66,5.96,5.96,5.96
28.05,4.26,-1.70,4.27,-1.70,1.70,1.80,1.68,5.96,5.97,5.96
28.33,4.31,-1.65,4.31,-1.65,1.66,1.76,1.71,5.97,5.97,5.96
28.62,4.35,-1.61,4.35,-1.62,1.62,1.72,1.73,5.97,5.97,5.96
28.90,4.38,-1.58,4.38,-1.58,1.58,1.69,1.75,5.97,5.96,5.97
29.19,4.41,-1.55,4.42,-1.55,1.54,1.65,1.77,5.96,5.96,5.97
29.48,4.45,-1.51,4.46,-1.51,1.51,1.61,1.79,5.96,5.96,5.97
29.78,4.50,-1.46,4.49,-1.47,1.48,1.58,1.81,5.98,5.97,5.97
30.08,4.52,-1.44,4.53,-1.44,1.44,1.54,1.82,5.97,5.97,5.97
30.38,4.56,-1.40,4.56,-1.41,1.41,1.51,1.83,5.97,5.97,5.97
30.68,4.59,-1.37,4.59,-1.38,1.38,1.47,1.83,5.97,5.97,5.97
30.99,4.61,-1.35,4.62,-1.35,1.34,1.44,1.84,5.95,5.96,5.97
31.30,4.65,-1.32,4.65,-1.32,1.31,1.40,1.84,5.96,5.96,5.97
31.61,4.68,-1.29,4.69,-1.28,1.27,1.37,1.84,5.95,5.96,5.97
31.93,4.74,-1.23,4.73,-1.24,1.24,1.34,1.83,5.98,5.97,5.97
32.24,4.77,-1.19,4.77,-1.19,1.20,1.30,1.83,5.98,5.98,5.97
32.57,4.80,-1.17,4.81,-1.16,1.17,1.27,1.82,5.97,5.98,5.97
32.89,4.84,-1.13,4.83,-1.13,1.14,1.24,1.81,5.98,5.97,5.97
33.22,4.84,-1.12,4.86,-1.11,1.11,1.20,1.79,5.95,5.97,5.97
33.55,4.89,-1.07,4.88,-1.09,1.08,1.17,1.77,5.98,5.97,5.97
33.89,4.89,-1.07,4.90,-1.06,1.06,1.14,1.76,5.95,5.96,5.97
34.23,4.94,-1.02,4.93,-1.04,1.03,1.11,1.73,5.98,5.96,5.97
34.57,4.94,-1.02,4.95,-1.01,1.01,1.07,1.71,5.95,5.96,5.97
34.92,4.98,-0.98,4.98,-0.98,0.99,1.04,1.69,5.97,5.97,5.97
35.27,5.00,-0.96,5.00,-0.97,0.96,1.01,1.66,5.97,5.96,5.97
35.62,5.03,-0.93,5.03,-0.94,0.94,0.98,1.63,5.97,5.97,5.97
35.97,5.03,-0.93,5.05,-0.92,0.92,0.95,1.61,5.96,5.97,5.96
36.33,5.07,-0.89,5.07,-0.90,0.90,0.92,1.58,5.98,5.97,5.96
36.70,5.08,-0.88,5.07,-0.89,0.89,0.89,1.55,5.97,5.96,5.96
37.06,5.08,-0.88,5.09,-0.87,0.87,0.86,1.52,5.96,5.96,5.96
37.43,5.08,-0.88,5.10,-0.86,0.86,0.83,1.49,5.94,5.96,5.96
37.81,5.12,-0.84,5.11,-0.85,0.85,0.80,1.45,5.97,5.95,5.96
38.19,5.12,-0.84,5.12,-0.83,0.83,0.77,1.42,5.95,5.96,5.96
38.57,5.12,-0.83,5.14,-0.82,0.82,0.75,1.39,5.94,5.96,5.96
38.95,5.17,-0.78,5.15,-0.80,0.80,0.72,1.36,5.97,5.95,5.96
39.34,5.17,-0.78,5.18,-0.77,0.78,0.69,1.33,5.95,5.96,5.95
39.74,5.19,-0.76,5.20,-0.75,0.76,0.66,1.30,5.95,5.96,5.95
40.14,5.22,-0.73,5.21,-0.74,0.74,0.64,1.27,5.96,5.95,5.95
40.54,5.22,-0.73,5.23,-0.71,0.71,0.61,1.24,5.93,5.94,5.95
40.94,5.26,-0.68,5.26,-0.69,0.69,0.58,1.21,5.95,5.94,5.95
41.35,5.27,-0.67,5.28,-0.66,0.66,0.56,1.18,5.93,5.94,5.94
41.76,5.31,-0.63,5.31,-0.63,0.63,0.53,1.16,5.95,5.94,5.94
42.18,5.33,-0.61,5.33,-0.60,0.61,0.51,1.13,5.94,5.94,5.94
42.60,5.36,-0.57,5.36,-0.57,0.58,0.48,1.10,5.94,5.94,5.94
43.03,5.38,-0.55,5.38,-0.55,0.56,0.46,1.08,5.94,5.93,5.93
43.46,5.40,-0.53,5.40,-0.53,0.53,0.43,1.05,5.93,5.93,5.93
43.90,5.40,-0.52,5.42,-0.51,0.51,0.41,1.03,5.91,5.93,5.93
44.33,5.45,-0.47,5.44,-0.49,0.48,0.38,1.01,5.94,5.92,5.92
44.78,5.45,-0.47,5.46,-0.46,0.46,0.36,0.99,5.92,5.92,5.92
45.23,5.46,-0.45,5.47,-0.44,0.44,0.34,0.97,5.90,5.92,5.92
45.68,5.50,-0.41,5.49,-0.42,0.42,0.31,0.95,5.92,5.91,5.91
46.13,5.50,-0.41,5.52,-0.39,0.40,0.29,0.93,5.90,5.91,5.91
46.60,5.54,-0.36,5.53,-0.38,0.38,0.27,0.91,5.92,5.90,5.90
47.06,5.54,-0.36,5.54,-0.36,0.36,0.25,0.89,5.90,5.90,5.90
47.53,5.54,-0.35,5.56,-0.33,0.33,0.23,0.87,5.88,5.90,5.90
48.01,5.59,-0.30,5.58,-0.31,0.32,0.21,0.86,5.91,5.89,5.89
48.49,5.59,-0.29,5.59,-0.30,0.30,0.19,0.84,5.89,5.88,5.88
48.97,5.59,-0.29,5.60,-0.28,0.28,0.17,0.82,5.87,5.88,5.88
49.46,5.60,-0.27,5.61,-0.26,0.26,0.15,0.81,5.86,5.87,5.87
49.96,5.64,-0.22,5.63,-0.24,0.24,0.14,0.80,5.88,5.87,5.87
50.46,5.64,-0.22,5.64,-0.22,0.22,0.12,0.78,5.86,5.86,5.86
50.96,5.64,-0.21,5.65,-0.20,0.20,0.11,0.77,5.85,5.86,5.86
51.47,5.66,-0.19,5.66,-0.19,0.19,0.09,0.76,5.85,5.85,5.85
51.99,5.68,-0.16,5.68,-0.17,0.17,0.08,0.74,5.85,5.85,5.84
52.51,5.68,-0.15,5.68,-0.15,0.15,0.07,0.73,5.84,5.84,5.83
53.03,5.68,-0.14,5.68,-0.15,0.14,0.06,0.72,5.82,5.82,5.83
53.56,5.68,-0.13,5.69,-0.13,0.12,0.05,0.71,5.80,5.80,5.82
54.10,5.68,-0.13,5.70,-0.11,0.10,0.04,0.69,5.78,5.80,5.81
54.64,5.73,-0.07,5.72,-0.08,0.08,0.03,0.68,5.82,5.80,5.80
55.18,5.73,-0.06,5.73,-0.06,0.07,0.03,0.67,5.80,5.80,5.79
55.74,5.73,-0.05,5.74,-0.04,0.05,0.03,0.65,5.78,5.79,5.78
56.29,5.73,-0.04,5.74,-0.04,0.04,0.03,0.64,5.77,5.77,5.77
56.86,5.73,-0.03,5.73,-0.03,0.03,0.03,0.62,5.76,5.76,5.76
57.42,5.73,-0.02,5.73,-0.03,0.03,0.04,0.61,5.76,5.75,5.75
58.00,5.70,-0.04,5.71,-0.03,0.04,0.05,0.59,5.74,5.75,5.74
58.58,5.68,-0.05,5.68,-0.04,0.06,0.06,0.58,5.74,5.74,5.73
59.16,5.65,-0.06,5.64,-0.07,0.08,0.08,0.56,5.73,5.72,5.72
59.76,5.59,-0.11,5.59,-0.11,0.11,0.11,0.54,5.70,5.70,5.71
60.35,5.52,-0.17,5.53,-0.16,0.14,0.14,0.52,5.67,5.68,5.69
60.96,5.47,-0.21,5.48,-0.20,0.19,0.17,0.50,5.66,5.67,5.68
61.57,5.43,-0.23,5.42,-0.25,0.24,0.21,0.47,5.68,5.67,5.67
62.18,5.36,-0.29,5.36,-0.29,0.31,0.26,0.45,5.67,5.66,5.65
62.80,5.26,-0.37,5.28,-0.36,0.37,0.32,0.43,5.64,5.65,5.64
63.43,5.19,-0.43,5.18,-0.45,0.45,0.39,0.40,5.64,5.63,5.62
64.07,5.06,-0.54,5.07,-0.54,0.53,0.46,0.37,5.60,5.60,5.61
64.71,4.95,-0.64,4.96,-0.63,0.63,0.55,0.34,5.58,5.59,5.59
65.35,4.84,-0.73,4.84,-0.73,0.73,0.64,0.31,5.57,5.58,5.57
66.01,4.73,-0.82,4.73,-0.83,0.84,0.74,0.28,5.58,5.57,5.56
66.67,4.60,-0.94,4.60,-0.94,0.96,0.85,0.25,5.57,5.56,5.54
67.33,4.45,-1.07,4.46,-1.06,1.08,0.95,0.21,5.54,5.54,5.52
68.01,4.31,-1.19,4.31,-1.19,1.20,1.06,0.18,5.52,5.52,5.50
68.69,4.18,-1.30,4.18,-1.30,1.31,1.15,0.14,5.50,5.49,5.48
69.37,4.05,-1.41,4.06,-1.40,1.41,1.23,0.10,5.46,5.47,5.46
70.07,3.96,-1.48,3.95,-1.49,1.47,1.28,0.06,5.44,5.43,5.44
70.77,3.88,-1.54,3.88,-1.54,1.51,1.30,0.02,5.39,5.39,5.42
71.48,3.83,-1.57,3.86,-1.54,1.50,1.29,-0.02,5.33,5.35,5.40
72.19,3.89,-1.48,3.88,-1.49,1.44,1.24,-0.06,5.34,5.33,5.38
72.91,3.96,-1.39,3.97,-1.38,1.35,1.16,-0.11,5.31,5.32,5.35
73.64,4.10,-1.23,4.10,-1.23,1.22,1.04,-0.15,5.32,5.32,5.33
74.38,4.26,-1.04,4.25,-1.05,1.05,0.91,-0.20,5.32,5.31,5.31
75.12,4.42,-0.86,4.43,-0.85,0.87,0.75,-0.24,5.29,5.30,5.28
75.87,4.61,-0.64,4.61,-0.64,0.67,0.59,-0.29,5.28,5.28,5.26
76.63,4.80,-0.43,4.79,-0.44,0.46,0.42,-0.34,5.26,5.25,5.23
77.40,4.96,-0.24,4.96,-0.24,0.26,0.26,-0.39,5.22,5.22,5.21
78.17,5.11,-0.06,5.12,-0.06,0.06,0.10,-0.44,5.17,5.18,5.18
78.95,5.26,0.11,5.27,0.12,-0.13,-0.05,-0.49,5.14,5.15,5.15
79.74,5.43,0.31,5.43,0.30,-0.30,-0.19,-0.54,5.13,5.13,5.12
80.54,5.57,0.48,5.57,0.47,-0.46,-0.33,-0.59,5.11,5.11,5.09
81.35,5.68,0.62,5.68,0.62,-0.61,-0.45,-0.65,5.08,5.08,5.06
82.16,5.78,0.75,5.78,0.75,-0.74,-0.57,-0.70,5.05,5.04,5.03
82.98,5.85,0.85,5.86,0.86,-0.86,-0.68,-0.75,5.00,5.01,5.00
83.81,5.94,0.97,5.93,0.96,-0.96,-0.78,-0.81,4.98,4.97,4.97
84.65,5.99,1.05,5.99,1.05,-1.05,-0.88,-0.87,4.94,4.94,4.94
85.50,6.03,1.12,6.04,1.13,-1.13,-0.96,-0.92,4.90,4.91,4.91
86.35,6.08,1.21,6.08,1.20,-1.20,-1.05,-0.98,4.88,4.88,4.88
87.22,6.11,1.27,6.11,1.27,-1.27,-1.13,-1.04,4.84,4.84,4.84
88.09,6.15,1.34,6.14,1.33,-1.34,-1.20,-1.10,4.82,4.81,4.81
88.97,6.15,1.38,6.16,1.39,-1.40,-1.27,-1.16,4.76,4.77,4.78
89.86,6.19,1.45,6.19,1.44,-1.45,-1.34,-1.22,4.74,4.74,4.74
90.76,6.19,1.49,6.21,1.50,-1.50,-1.41,-1.28,4.69,4.71,4.71
91.66,6.24,1.57,6.23,1.56,-1.55,-1.47,-1.35,4.69,4.68,4.67
92.58,6.24,1.61,6.24,1.60,-1.60,-1.53,-1.41,4.65,4.64,4.64
93.51,6.24,1.64,6.25,1.65,-1.64,-1.58,-1.47,4.60,4.61,4.60
94.44,6.24,1.68,6.24,1.68,-1.68,-1.64,-1.54,4.56,4.56,4.56
95.39,6.24,1.72,6.24,1.72,-1.72,-1.69,-1.61,4.52,4.52,4.53
96.34,6.24,1.75,6.24,1.75,-1.76,-1.74,-1.67,4.49,4.49,4.49
97.30,6.24,1.79,6.24,1.79,-1.79,-1.79,-1.74,4.45,4.45,4.45
98.28,6.24,1.83,6.24,1.83,-1.82,-1.84,-1.81,4.42,4.42,4.42
99.26,6.24,1.86,6.24,1.86,-1.86,-1.89,-1.88,4.38,4.38,4.38
100.25,6.24,1.90,6.24,1.90,-1.90,-1.94,-1.94,4.35,4.35,4.34
101.25,6.24,1.94,6.24,1.94,-1.94,-1.98,-2.01,4.31,4.31,4.30
102.27,6.24,1.98,6.24,1.97,-1.98,-2.03,-2.08,4.26,4.26,4.27
103.29,6.24,2.02,6.25,2.02,-2.03,-2.07,-2.15,4.22,4.22,4.23
104.32,6.24,2.05,6.26,2.07,-2.08,-2.11,-2.22,4.17,4.18,4.19
105.37,6.29,2.14,6.28,2.12,-2.13,-2.16,-2.29,4.16,4.15,4.15
106.42,6.29,2.18,6.30,2.18,-2.18,-2.20,-2.35,4.11,4.11,4.11
107.48,6.32,2.25,6.32,2.25,-2.24,-2.24,-2.42,4.08,4.08,4.08
108.56,6.33,2.30,6.35,2.31,-2.30,-2.28,-2.48,4.03,4.04,4.04
109.64,6.38,2.38,6.37,2.37,-2.36,-2.32,-2.55,4.02,4.01,4.00
110.74,6.38,2.42,6.38,2.42,-2.42,-2.36,-2.61,3.97,3.96,3.96
111.85,6.38,2.46,6.40,2.47,-2.47,-2.40,-2.67,3.91,3.92,3.92
112.97,6.40,2.52,6.41,2.52,-2.52,-2.44,-2.73,3.88,3.88,3.89
114.10,6.43,2.58,6.42,2.57,-2.57,-2.47,-2.78,3.86,3.85,3.85
115.24,6.43,2.62,6.43,2.62,-2.61,-2.51,-2.83,3.82,3.82,3.81
116.39,6.43,2.66,6.44,2.66,-2.66,-2.55,-2.88,3.78,3.78,3.78
117.55,6.43,2.69,6.43,2.69,-2.70,-2.58,-2.93,3.74,3.74,3.74
118.73,6.43,2.73,6.43,2.73,-2.73,-2.62,-2.97,3.70,3.70,3.70
119.92,6.43,2.76,6.43,2.76,-2.77,-2.65,-3.01,3.67,3.67,3.67
121.12,6.43,2.80,6.44,2.80,-2.80,-2.69,-3.04,3.64,3.64,3.63
122.33,6.43,2.83,6.43,2.83,-2.82,-2.72,-3.07,3.61,3.61,3.60
123.55,6.43,2.87,6.42,2.86,-2.85,-2.75,-3.10,3.58,3.57,3.56
124.79,6.39,2.86,6.40,2.87,-2.88,-2.79,-3.12,3.52,3.53,3.53
126.03,6.38,2.89,6.39,2.89,-2.90,-2.82,-3.14,3.48,3.49,3.50
127.29,6.38,2.92,6.38,2.92,-2.93,-2.85,-3.16,3.45,3.45,3.46
128.57,6.38,2.95,6.38,2.95,-2.96,-2.88,-3.17,3.42,3.42,3.43
129.85,6.38,2.98,6.38,2.98,-2.99,-2.91,-3.17,3.40,3.40,3.40
131.15,6.38,3.02,6.38,3.02,-3.01,-2.94,-3.17,3.37,3.37,3.37
132.46,6.38,3.05,6.39,3.05,-3.04,-2.97,-3.17,3.34,3.35,3.34
133.79,6.38,3.08,6.38,3.08,-3.06,-3.00,-3.17,3.32,3.32,3.31
135.12,6.38,3.11,6.37,3.10,-3.09,-3.02,-3.16,3.29,3.28,3.28
136.48,6.35,3.11,6.36,3.11,-3.11,-3.05,-3.15,3.24,3.24,3.25
137.84,6.33,3.12,6.34,3.12,-3.14,-3.08,-3.14,3.20,3.21,3.22
139.22,6.33,3.14,6.33,3.14,-3.16,-3.10,-3.12,3.18,3.17,3.19
140.61,6.33,3.17,6.33,3.17,-3.18,-3.13,-3.11,3.16,3.15,3.16
142.02,6.33,3.20,6.34,3.20,-3.20,-3.15,-3.09,3.14,3.14,3.13
143.44,6.33,3.23,6.33,3.23,-3.21,-3.18,-3.07,3.12,3.12,3.11
144.87,6.33,3.25,6.33,3.24,-3.24,-3.20,-3.05,3.10,3.09,3.08
146.32,6.31,3.26,6.31,3.26,-3.26,-3.22,-3.02,3.05,3.05,3.06
147.78,6.29,3.26,6.30,3.27,-3.28,-3.24,-3.00,3.01,3.02,3.03
149.26,6.29,3.29,6.29,3.29,-3.30,-3.26,-2.98,3.00,2.99,3.01
150.75,6.29,3.31,6.29,3.31,-3.31,-3.28,-2.96,2.98,2.98,2.98
152.26,6.29,3.33,6.30,3.34,-3.33,-3.30,-2.94,2.96,2.97,2.96
153.78,6.29,3.36,6.29,3.35,-3.34,-3.32,-2.92,2.95,2.95,2.94
155.32,6.29,3.38,6.28,3.36,-3.36,-3.34,-2.90,2.94,2.92,2.92
156.88,6.24,3.35,6.26,3.37,-3.37,-3.35,-2.88,2.87,2.89,2.89
158.44,6.24,3.37,6.25,3.38,-3.38,-3.37,-2.86,2.86,2.87,2.87
160.03,6.24,3.39,6.24,3.38,-3.39,-3.38,-2.85,2.86,2.85,2.85
161.63,6.24,3.41,6.23,3.39,-3.39,-3.39,-2.83,2.85,2.84,2.83
163.24,6.19,3.38,6.21,3.40,-3.40,-3.41,-2.82,2.80,2.82,2.82
164.88,6.19,3.40,6.19,3.40,-3.40,-3.42,-2.81,2.79,2.79,2.80
166.53,6.19,3.41,6.18,3.40,-3.40,-3.43,-2.80,2.79,2.77,2.78
168.19,6.15,3.39,6.17,3.41,-3.40,-3.44,-2.79,2.75,2.77,2.76
169.87,6.15,3.41,6.15,3.40,-3.40,-3.45,-2.79,2.75,2.75,2.74
171.57,6.14,3.41,6.13,3.40,-3.40,-3.45,-2.78,2.74,2.73,2.73
173.29,6.10,3.39,6.12,3.40,-3.40,-3.46,-2.78,2.70,2.71,2.71
175.02,6.10,3.41,6.09,3.39,-3.40,-3.47,-2.78,2.70,2.69,2.70
176.77,6.06,3.38,6.08,3.39,-3.40,-3.47,-2.79,2.67,2.68,2.68
178.54,6.06,3.39,6.06,3.39,-3.39,-3.47,-2.79,2.67,2.67,2.67
180.32,6.06,3.41,6.04,3.39,-3.39,-3.48,-2.80,2.67,2.65,2.66
182.13,6.01,3.37,6.03,3.39,-3.39,-3.48,-2.81,2.63,2.65,2.64
183.95,6.01,3.38,6.01,3.38,-3.38,-3.48,-2.83,2.63,2.63,2.63
185.79,6.01,3.40,5.99,3.38,-3.38,-3.48,-2.84,2.63,2.61,2.62
187.65,5.96,3.36,5.98,3.38,-3.38,-3.47,-2.86,2.59,2.61,2.60
189.52,5.96,3.37,5.96,3.37,-3.37,-3.47,-2.88,2.59,2.59,2.59
191.42,5.96,3.38,5.95,3.36,-3.37,-3.47,-2.90,2.59,2.58,2.58
193.33,5.92,3.35,5.94,3.37,-3.37,-3.46,-2.92,2.56,2.58,2.57
195.27,5.92,3.36,5.92,3.36,-3.36,-3.46,-2.94,2.56,2.56,2.56
197.22,5.92,3.37,5.90,3.35,-3.35,-3.45,-2.97,2.57,2.55,2.55
199.19,5.87,3.33,5.89,3.35,-3.35,-3.44,-3.00,2.53,2.55,2.54
201.18,5.87,3.34,5.87,3.34,-3.34,-3.43,-3.03,2.53,2.53,2.53
203.19,5.87,3.35,5.86,3.33,-3.33,-3.42,-3.05,2.54,2.52,2.52
205.23,5.82,3.31,5.84,3.32,-3.32,-3.41,-3.09,2.50,2.52,2.51
207.28,5.82,3.32,5.81,3.31,-3.31,-3.40,-3.12,2.51,2.50,2.51
209.35,5.78,3.28,5.79,3.29,-3.30,-3.39,-3.15,2.48,2.50,2.50
211.44,5.78,3.29,5.78,3.29,-3.29,-3.37,-3.18,2.50,2.49,2.49
213.56,5.76,3.28,5.76,3.27,-3.27,-3.36,-3.21,2.49,2.49,2.48
215.69,5.73,3.26,5.74,3.26,-3.26,-3.34,-3.24,2.47,2.48,2.48
217.85,5.72,3.25,5.72,3.25,-3.25,-3.33,-3.27,2.48,2.47,2.47
220.03,5.68,3.22,5.69,3.23,-3.23,-3.31,-3.30,2.45,2.46,2.46
222.23,5.68,3.22,5.67,3.22,-3.22,-3.29,-3.33,2.47,2.46,2.46
224.45,5.64,3.19,5.65,3.20,-3.20,-3.27,-3.36,2.44,2.45,2.45
226.70,5.64,3.20,5.63,3.19,-3.18,-3.25,-3.38,2.46,2.45,2.45
228.96,5.60,3.16,5.61,3.17,-3.17,-3.23,-3.40,2.44,2.44,2.44
231.25,5.59,3.16,5.59,3.15,-3.15,-3.21,-3.42,2.44,2.44,2.44
233.57,5.55,3.12,5.56,3.13,-3.13,-3.19,-3.44,2.42,2.43,2.43
235.90,5.54,3.12,5.54,3.11,-3.11,-3.16,-3.45,2.43,2.43,2.43
238.26,5.51,3.09,5.52,3.09,-3.10,-3.14,-3.46,2.42,2.42,2.42
240.64,5.50,3.08,5.49,3.08,-3.08,-3.12,-3.47,2.43,2.42,2.42
243.05,5.46,3.05,5.47,3.06,-3.06,-3.09,-3.47,2.40,2.41,2.41
245.48,5.45,3.04,5.45,3.04,-3.04,-3.06,-3.47,2.41,2.41,2.41
247.93,5.44,3.04,5.43,3.02,-3.02,-3.04,-3.46,2.42,2.41,2.41
250.41,5.40,3.00,5.41,3.01,-3.01,-3.01,-3.45,2.40,2.41,2.40
252.92,5.39,2.99,5.39,2.99,-2.99,-2.98,-3.43,2.41,2.40,2.40
255.45,5.36,2.97,5.37,2.97,-2.96,-2.95,-3.42,2.40,2.40,2.40
258.00,5.34,2.95,5.34,2.94,-2.94,-2.93,-3.39,2.40,2.40,2.40
260.58,5.31,2.92,5.31,2.92,-2.92,-2.90,-3.36,2.39,2.39,2.39
263.19,5.27,2.88,5.28,2.89,-2.89,-2.87,-3.33,2.38,2.39,2.39
265.82,5.26,2.88,5.25,2.87,-2.87,-2.84,-3.29,2.39,2.38,2.39
268.48,5.22,2.84,5.23,2.84,-2.84,-2.81,-3.25,2.38,2.38,2.39
271.16,5.20,2.82,5.20,2.82,-2.82,-2.77,-3.21,2.38,2.38,2.38
273.87,5.17,2.79,5.17,2.79,-2.79,-2.74,-3.17,2.38,2.38,2.38
276.61,5.14,2.76,5.15,2.77,-2.77,-2.71,-3.12,2.38,2.38,2.38
279.38,5.12,2.75,5.12,2.74,-2.74,-2.68,-3.06,2.38,2.38,2.38
282.17,5.08,2.71,5.09,2.71,-2.71,-2.65,-3.01,2.37,2.38,2.38
284.99,5.05,2.68,5.06,2.68,-2.68,-2.61,-2.96,2.37,2.38,2.37
287.84,5.03,2.66,5.03,2.65,-2.65,-2.58,-2.90,2.38,2.37,2.37
290.72,4.99,2.62,5.00,2.62,-2.62,-2.54,-2.84,2.37,2.37,2.37
293.63,4.96,2.59,4.96,2.59,-2.59,-2.51,-2.78,2.37,2.37,2.37
296.57,4.92,2.55,4.93,2.56,-2.56,-2.48,-2.72,2.36,2.37,2.37
299.53,4.89,2.53,4.89,2.53,-2.53,-2.44,-2.66,2.36,2.37,2.37
302.53,4.86,2.50,4.86,2.50,-2.50,-2.41,-2.60,2.37,2.37,2.37
305.55,4.83,2.47,4.83,2.46,-2.47,-2.37,-2.54,2.37,2.36,2.37
308.61,4.80,2.44,4.80,2.43,-2.43,-2.34,-2.48,2.37,2.36,2.37
311.69,4.75,2.39,4.77,2.40,-2.40,-2.30,-2.42,2.35,2.37,2.36
314.81,4.74,2.38,4.74,2.37,-2.37,-2.26,-2.36,2.37,2.37,2.36
317.96,4.71,2.35,4.70,2.34,-2.34,-2.23,-2.30,2.38,2.37,2.36
321.14,4.66,2.30,4.67,2.30,-2.30,-2.19,-2.24,2.36,2.37,2.36
324.35,4.62,2.26,4.63,2.27,-2.27,-2.16,-2.18,2.35,2.36,2.36
327.59,4.59,2.23,4.59,2.23,-2.24,-2.12,-2.12,2.36,2.35,2.36
330.87,4.56,2.20,4.56,2.20,-2.20,-2.08,-2.07,2.36,2.36,2.36
334.18,4.52,2.16,4.53,2.17,-2.17,-2.05,-2.01,2.36,2.37,2.36
337.52,4.50,2.14,4.50,2.14,-2.13,-2.01,-1.96,2.37,2.37,2.36
340.90,4.47,2.11,4.46,2.10,-2.09,-1.97,-1.91,2.38,2.37,2.36
344.30,4.41,2.05,4.42,2.06,-2.06,-1.94,-1.86,2.35,2.36,2.36
347.75,4.38,2.02,4.38,2.02,-2.03,-1.90,-1.81,2.36,2.35,2.36
351.23,4.33,1.97,4.35,1.98,-1.99,-1.86,-1.76,2.34,2.36,2.36
354.74,4.32,1.96,4.32,1.95,-1.95,-1.83,-1.72,2.37,2.36,2.36
358.28,4.29,1.93,4.28,1.92,-1.92,-1.79,-1.67,2.38,2.37,2.36
361.87,4.24,1.88,4.25,1.89,-1.88,-1.75,-1.63,2.36,2.37,2.36
365.49,4.20,1.84,4.21,1.85,-1.84,-1.71,-1.59,2.36,2.36,2.36
369.14,4.17,1.81,4.17,1.81,-1.81,-1.68,-1.55,2.36,2.36,2.36
372.83,4.14,1.78,4.14,1.77,-1.77,-1.64,-1.51,2.37,2.37,2.36
376.56,4.10,1.74,4.10,1.74,-1.74,-1.60,-1.47,2.37,2.37,2.36
380.33,4.05,1.69,4.06,1.69,-1.70,-1.57,-1.43,2.36,2.36,2.36
384.13,4.02,1.66,4.02,1.66,-1.66,-1.53,-1.40,2.36,2.36,2.37
387.97,3.98,1.62,3.99,1.62,-1.62,-1.49,-1.36,2.36,2.36,2.37
391.85,3.96,1.60,3.95,1.59,-1.59,-1.45,-1.33,2.38,2.37,2.37
395.77,3.91,1.55,3.92,1.55,-1.55,-1.42,-1.30,2.36,2.37,2.37
399.73,3.88,1.52,3.88,1.51,-1.51,-1.38,-1.27,2.37,2.37,2.37
403.72,3.84,1.47,3.84,1.47,-1.47,-1.34,-1.24,2.37,2.37,2.37
407.76,3.80,1.43,3.81,1.44,-1.44,-1.30,-1.21,2.37,2.37,2.37
411.84,3.76,1.39,3.77,1.40,-1.40,-1.27,-1.18,2.37,2.37,2.37
415.96,3.73,1.36,3.73,1.35,-1.36,-1.23,-1.15,2.38,2.37,2.37
420.12,3.68,1.31,3.69,1.32,-1.32,-1.19,-1.12,2.37,2.37,2.37
424.32,3.64,1.27,3.65,1.27,-1.28,-1.16,-1.10,2.37,2.37,2.37
428.56,3.61,1.24,3.61,1.23,-1.24,-1.12,-1.07,2.38,2.37,2.37
432.85,3.56,1.19,3.57,1.20,-1.20,-1.08,-1.04,2.37,2.37,2.37
437.18,3.53,1.16,3.53,1.16,-1.16,-1.05,-1.02,2.38,2.37,2.37
441.55,3.49,1.12,3.49,1.12,-1.12,-1.01,-0.99,2.38,2.37,2.38
445.96,3.45,1.08,3.46,1.08,-1.08,-0.97,-0.97,2.38,2.38,2.38
450.42,3.41,1.04,3.41,1.04,-1.03,-0.93,-0.94,2.38,2.38,2.38
454.93,3.38,1.00,3.37,1.00,-0.99,-0.90,-0.92,2.39,2.38,2.38
459.48,3.32,0.94,3.33,0.95,-0.95,-0.86,-0.89,2.37,2.38,2.38
464.07,3.29,0.91,3.29,0.91,-0.91,-0.82,-0.87,2.38,2.38,2.38
468.71,3.24,0.86,3.25,0.87,-0.87,-0.79,-0.84,2.37,2.38,2.38
473.40,3.21,0.83,3.21,0.83,-0.83,-0.75,-0.81,2.38,2.38,2.38
478.13,3.18,0.80,3.17,0.79,-0.79,-0.71,-0.79,2.39,2.38,2.38
482.91,3.12,0.74,3.14,0.75,-0.75,-0.68,-0.76,2.37,2.38,2.38
487.74,3.10,0.72,3.10,0.71,-0.72,-0.64,-0.73,2.39,2.38,2.39
492.62,3.06,0.68,3.07,0.68,-0.68,-0.60,-0.70,2.39,2.39,2.39
497.55,3.03,0.65,3.03,0.65,-0.64,-0.56,-0.67,2.39,2.39,2.39
502.52,3.00,0.61,2.99,0.60,-0.60,-0.53,-0.64,2.40,2.39,2.39
507.55,2.94,0.55,2.96,0.57,-0.56,-0.49,-0.61,2.38,2.39,2.39
512.62,2.91,0.52,2.91,0.52,-0.53,-0.45,-0.58,2.39,2.39,2.39
517.75,2.88,0.49,2.87,0.48,-0.49,-0.41,-0.55,2.40,2.39,2.39
522.93,2.83,0.44,2.84,0.45,-0.45,-0.38,-0.52,2.39,2.39,2.39
528.16,2.80,0.41,2.80,0.41,-0.41,-0.34,-0.48,2.40,2.39,2.39
533.44,2.76,0.37,2.76,0.37,-0.36,-0.30,-0.45,2.40,2.40,2.40
538.77,2.71,0.32,2.72,0.32,-0.32,-0.26,-0.41,2.39,2.40,2.40
544.16,2.68,0.29,2.68,0.28,-0.28,-0.23,-0.38,2.41,2.40,2.40
549.60,2.62,0.22,2.63,0.23,-0.23,-0.19,-0.34,2.39,2.40,2.40
555.10,2.59,0.19,2.59,0.19,-0.19,-0.15,-0.30,2.41,2.40,2.40
560.65,2.54,0.14,2.54,0.14,-0.14,-0.11,-0.26,2.41,2.40,2.40
