frequency,raw,error,smoothed,error_smoothed,equalization,parametric_eq,fixed_band_eq,equalized_raw,equalized_smoothed,target
20.00,20.81,12.43,20.81,12.43,-12.43,-10.92,-5.30,8.38,8.37,8.38
20.20,20.79,12.43,20.79,12.42,-12.43,-10.92,-5.44,8.36,8.36,8.36
20.40,20.77,12.42,20.77,12.42,-12.42,-10.92,-5.58,8.35,8.35,8.35
20.61,20.75,12.40,20.75,12.41,-12.41,-10.92,-5.72,8.34,8.34,8.35
20.81,20.73,12.40,20.73,12.40,-12.40,-10.92,-5.86,8.33,8.33,8.33
21.02,20.71,12.39,20.71,12.39,-12.38,-10.92,-6.01,8.33,8.32,8.32
21.23,20.68,12.37,20.68,12.37,-12.37,-10.91,-6.16,8.31,8.31,8.31
21.44,20.66,12.34,20.66,12.35,-12.35,-10.91,-6.32,8.30,8.31,8.32
21.66,20.64,12.33,20.64,12.33,-12.34,-10.91,-6.48,8.30,8.30,8.31
21.87,20.62,12.32,20.61,12.32,-12.32,-10.91,-6.65,8.30,8.29,8.30
22.09,20.59,12.30,20.59,12.31,-12.30,-10.91,-6.82,8.28,8.29,8.28
22.31,20.57,12.28,20.57,12.29,-12.28,-10.91,-7.00,8.28,8.29,8.28
22.54,20.55,12.28,20.55,12.27,-12.26,-10.91,-7.18,8.29,8.28,8.27
22.76,20.52,12.24,20.52,12.24,-12.24,-10.91,-7.36,8.28,8.28,8.28
22.99,20.49,12.22,20.49,12.22,-12.21,-10.90,-7.55,8.28,8.28,8.27
23.22,20.45,12.19,20.45,12.19,-12.18,-10.90,-7.75,8.27,8.27,8.26
23.45,20.42,12.16,20.42,12.16,-12.15,-10.90,-7.94,8.26,8.26,8.26
23.69,20.38,12.12,20.38,12.12,-12.13,-10.90,-8.15,8.25,8.25,8.26
23.92,20.35,12.09,20.35,12.09,-12.10,-10.90,-8.36,8.25,8.25,8.26
24.16,20.32,12.06,20.32,12.06,-12.07,-10.90,-8.57,8.24,8.25,8.26
24.40,20.31,12.04,20.31,12.04,-12.05,-10.89,-8.79,8.26,8.26,8.27
24.65,20.29,12.02,20.29,12.03,-12.02,-10.89,-9.01,8.26,8.26,8.27
24.89,20.27,12.01,20.26,12.01,-12.00,-10.89,-9.24,8.27,8.27,8.26
25.14,20.23,11.98,20.23,11.98,-11.97,-10.89,-9.47,8.26,8.26,8.24
25.39,20.19,11.94,20.19,11.95,-11.93,-10.89,-9.71,8.25,8.25,8.24
25.65,20.14,11.91,20.14,11.90,-11.90,-10.88,-9.95,8.24,8.24,8.23
25.91,20.10,11.87,20.09,11.86,-11.87,-10.88,-10.19,8.23,8.23,8.23
26.16,20.05,11.81,20.05,11.82,-11.83,-10.88,-10.44,8.22,8.22,8.24
26.43,20.01,11.78,20.01,11.78,-11.79,-10.88,-10.69,8.22,8.22,8.23
26.69,19.98,11.75,19.98,11.75,-11.76,-10.87,-10.94,8.22,8.22,8.23
26.96,19.95,11.72,19.95,11.72,-11.72,-10.87,-11.18,8.23,8.23,8.23
27.23,19.91,11.69,19.91,11.69,-11.68,-10.87,-11.43,8.22,8.23,8.22
27.50,19.88,11.66,19.88,11.66,-11.65,-10.86,-11.68,8.23,8.23,8.21
27.77,19.84,11.62,19.84,11.62,-11.62,-10.86,-11.92,8.22,8.22,8.22
28.05,19.80,11.58,19.80,11.58,-11.58,-10.86,-12.16,8.22,8.22,8.22
28.33,19.76,11.54,19.76,11.54,-11.54,-10.85,-12.39,8.22,8.22,8.22
28.62,19.72,11.50,19.72,11.50,-11.50,-10.85,-12.61,8.22,8.22,8.22
28.90,19.69,11.46,19.69,11.46,-11.46,-10.85,-12.82,8.23,8.22,8.23
29.19,19.65,11.42,19.65,11.43,-11.42,-10.84,-13.02,8.23,8.23,8.22
29.48,19.61,11.38,19.61,11.38,-11.38,-10.84,-13.19,8.23,8.23,8.22
29.78,19.57,11.35,19.57,11.34,-11.34,-10.83,-13.36,8.23,8.23,8.22
30.08,19.53,11.29,19.53,11.30,-11.30,-10.83,-13.50,8.23,8.23,8.24
30.38,19.49,11.26,19.49,11.26,-11.26,-10.82,-13.62,8.23,8.23,8.23
30.68,19.45,11.22,19.45,11.22,-11.22,-10.82,-13.71,8.23,8.23,8.23
30.99,19.41,11.19,19.41,11.19,-11.18,-10.81,-13.79,8.23,8.23,8.22
31.30,19.37,11.15,19.37,11.15,-11.15,-10.81,-13.82,8.22,8.22,8.22
31.61,19.33,11.11,19.33,11.11,-11.11,-10.80,-13.85,8.22,8.22,8.22
31.93,19.28,11.07,19.28,11.07,-11.07,-10.80,-13.83,8.21,8.21,8.21
32.24,19.24,11.03,19.24,11.04,-11.04,-10.79,-13.81,8.20,8.20,8.20
32.57,19.20,11.01,19.20,11.00,-11.01,-10.78,-13.75,8.19,8.19,8.19
32.89,19.16,10.97,19.16,10.97,-10.97,-10.78,-13.67,8.19,8.19,8.19
33.22,19.13,10.94,19.12,10.94,-10.94,-10.77,-13.57,8.19,8.19,8.19
33.55,19.09,10.90,19.09,10.91,-10.90,-10.76,-13.46,8.19,8.18,8.18
33.89,19.04,10.87,19.04,10.87,-10.87,-10.75,-13.33,8.17,8.18,8.17
34.23,19.00,10.84,19.00,10.83,-10.83,-10.74,-13.19,8.17,8.16,8.16
34.57,18.95,10.79,18.95,10.79,-10.80,-10.74,-13.04,8.15,8.15,8.15
34.92,18.90,10.76,18.90,10.76,-10.76,-10.73,-12.88,8.13,8.14,8.14
35.27,18.86,10.71,18.86,10.72,-10.73,-10.72,-12.71,8.13,8.13,8.15
35.62,18.82,10.70,18.82,10.70,-10.70,-10.71,-12.54,8.12,8.12,8.11
35.97,18.79,10.68,18.78,10.67,-10.66,-10.70,-12.37,8.12,8.12,8.11
36.33,18.74,10.64,18.74,10.64,-10.63,-10.69,-12.20,8.11,8.11,8.10
36.70,18.69,10.61,18.69,10.61,-10.60,-10.67,-12.03,8.09,8.09,8.08
37.06,18.64,10.57,18.64,10.57,-10.57,-10.66,-11.86,8.07,8.06,8.07
37.43,18.59,10.53,18.59,10.53,-10.54,-10.65,-11.69,8.04,8.04,8.05
37.81,18.54,10.50,18.54,10.51,-10.52,-10.64,-11.53,8.02,8.03,8.04
38.19,18.51,10.49,18.51,10.49,-10.49,-10.62,-11.37,8.02,8.02,8.02
38.57,18.47,10.47,18.47,10.47,-10.46,-10.61,-11.21,8.01,8.01,8.00
38.95,18.43,10.45,18.43,10.45,-10.44,-10.59,-11.06,7.99,7.99,7.98
39.34,18.38,10.43,18.37,10.42,-10.42,-10.58,-10.92,7.96,7.96,7.95
39.74,18.32,10.38,18.32,10.39,-10.39,-10.56,-10.78,7.93,7.93,7.94
40.14,18.27,10.36,18.27,10.36,-10.37,-10.55,-10.65,7.90,7.91,7.91
40.54,18.23,10.33,18.23,10.34,-10.34,-10.53,-10.53,7.89,7.89,7.90
40.94,18.19,10.32,18.19,10.31,-10.31,-10.51,-10.41,7.88,7.88,7.87
41.35,18.14,10.28,18.14,10.28,-10.28,-10.49,-10.30,7.86,7.86,7.85
41.76,18.09,10.25,18.09,10.25,-10.25,-10.47,-10.19,7.84,7.84,7.84
42.18,18.03,10.21,18.03,10.21,-10.21,-10.45,-10.09,7.81,7.81,7.82
42.60,17.97,10.17,17.97,10.18,-10.18,-10.43,-10.00,7.79,7.79,7.79
43.03,17.92,10.15,17.92,10.15,-10.15,-10.40,-9.92,7.77,7.77,7.77
43.46,17.87,10.12,17.86,10.12,-10.12,-10.38,-9.84,7.75,7.75,7.75
43.90,17.81,10.09,17.81,10.09,-10.09,-10.35,-9.77,7.72,7.73,7.72
44.33,17.76,10.05,17.76,10.06,-10.05,-10.33,-9.71,7.70,7.70,7.70
44.78,17.71,10.03,17.70,10.02,-10.02,-10.30,-9.65,7.68,7.68,7.68
45.23,17.65,9.99,17.65,10.00,-10.00,-10.27,-9.60,7.65,7.65,7.66
45.68,17.59,9.97,17.59,9.97,-9.97,-10.24,-9.56,7.62,7.62,7.62
46.13,17.53,9.95,17.52,9.94,-9.94,-10.21,-9.52,7.59,7.58,7.58
46.60,17.46,9.91,17.46,9.91,-9.91,-10.18,-9.49,7.54,7.55,7.55
47.06,17.40,9.88,17.41,9.89,-9.89,-10.15,-9.47,7.51,7.52,7.52
47.53,17.36,9.87,17.35,9.87,-9.87,-10.11,-9.45,7.49,7.49,7.49
48.01,17.30,9.86,17.29,9.85,-9.84,-10.08,-9.44,7.46,7.45,7.44
48.49,17.23,9.82,17.23,9.82,-9.82,-10.04,-9.43,7.41,7.41,7.41
48.97,17.16,9.79,17.16,9.79,-9.80,-10.01,-9.43,7.36,7.37,7.37
49.46,17.10,9.76,17.10,9.77,-9.77,-9.97,-9.43,7.33,7.33,7.34
49.96,17.04,9.75,17.04,9.75,-9.74,-9.93,-9.44,7.30,7.30,7.29
50.46,16.99,9.72,16.98,9.72,-9.71,-9.89,-9.45,7.28,7.27,7.26
50.96,16.92,9.69,16.92,9.69,-9.68,-9.85,-9.47,7.24,7.24,7.23
51.47,16.85,9.65,16.85,9.65,-9.65,-9.80,-9.49,7.20,7.20,7.20
51.99,16.77,9.60,16.77,9.61,-9.62,-9.76,-9.52,7.15,7.16,7.17
52.51,16.71,9.58,16.71,9.58,-9.59,-9.72,-9.54,7.12,7.12,7.13
53.03,16.65,9.54,16.65,9.55,-9.56,-9.67,-9.57,7.09,7.09,7.11
53.56,16.60,9.54,16.59,9.53,-9.53,-9.63,-9.60,7.07,7.06,7.06
54.10,16.53,9.50,16.53,9.50,-9.50,-9.58,-9.64,7.03,7.03,7.03
54.64,16.46,9.47,16.46,9.48,-9.48,-9.54,-9.67,6.98,6.99,6.99
55.18,16.40,9.45,16.40,9.45,-9.45,-9.49,-9.70,6.95,6.95,6.94
55.74,16.35,9.44,16.35,9.43,-9.43,-9.45,-9.73,6.92,6.92,6.91
56.29,16.29,9.40,16.29,9.40,-9.40,-9.40,-9.76,6.89,6.89,6.89
56.86,16.23,9.37,16.23,9.37,-9.37,-9.36,-9.78,6.86,6.86,6.86
57.42,16.16,9.34,16.17,9.34,-9.34,-9.32,-9.81,6.82,6.83,6.82
58.00,16.11,9.32,16.11,9.31,-9.31,-9.28,-9.83,6.80,6.80,6.79
58.58,16.06,9.28,16.05,9.28,-9.27,-9.24,-9.84,6.78,6.78,6.78
59.16,16.00,9.24,16.00,9.24,-9.24,-9.20,-9.85,6.75,6.75,6.75
59.76,15.93,9.21,15.93,9.21,-9.22,-9.17,-9.85,6.71,6.71,6.72
60.35,15.86,9.18,15.86,9.18,-9.19,-9.13,-9.85,6.67,6.67,6.68
60.96,15.79,9.15,15.79,9.16,-9.17,-9.10,-9.83,6.62,6.63,6.64
61.57,15.73,9.14,15.73,9.14,-9.14,-9.07,-9.81,6.59,6.59,6.58
62.18,15.67,9.13,15.66,9.12,-9.11,-9.04,-9.79,6.55,6.55,6.54
62.80,15.60,9.10,15.60,9.10,-9.09,-9.01,-9.75,6.51,6.51,6.50
63.43,15.52,9.07,15.52,9.07,-9.06,-8.99,-9.71,6.46,6.46,6.45
64.07,15.45,9.03,15.45,9.03,-9.03,-8.96,-9.66,6.42,6.42,6.42
64.71,15.38,9.00,15.38,9.00,-9.00,-8.94,-9.60,6.38,6.38,6.38
65.35,15.31,8.97,15.31,8.97,-8.97,-8.92,-9.54,6.34,6.34,6.34
66.01,15.24,8.94,15.24,8.93,-8.94,-8.90,-9.46,6.30,6.30,6.30
66.67,15.17,8.89,15.17,8.90,-8.91,-8.88,-9.39,6.26,6.26,6.27
67.33,15.10,8.87,15.10,8.87,-8.87,-8.86,-9.30,6.22,6.23,6.22
68.01,15.03,8.84,15.03,8.85,-8.84,-8.84,-9.21,6.19,6.19,6.18
68.69,14.97,8.83,14.97,8.82,-8.81,-8.82,-9.12,6.15,6.15,6.14
69.37,14.90,8.79,14.90,8.79,-8.79,-8.80,-9.02,6.11,6.11,6.11
70.07,14.83,8.75,14.83,8.75,-8.76,-8.77,-8.92,6.07,6.07,6.08
70.77,14.76,8.72,14.76,8.73,-8.73,-8.75,-8.82,6.03,6.03,6.03
71.48,14.69,8.70,14.69,8.70,-8.71,-8.73,-8.71,5.98,5.99,5.99
72.19,14.63,8.68,14.63,8.68,-8.68,-8.71,-8.61,5.95,5.95,5.94
72.91,14.56,8.65,14.56,8.65,-8.65,-8.68,-8.50,5.91,5.91,5.91
73.64,14.49,8.63,14.49,8.62,-8.62,-8.66,-8.39,5.87,5.87,5.86
74.38,14.41,8.58,14.41,8.58,-8.58,-8.63,-8.29,5.83,5.83,5.82
75.12,14.34,8.54,14.34,8.55,-8.55,-8.60,-8.19,5.79,5.79,5.80
75.87,14.27,8.50,14.27,8.51,-8.51,-8.57,-8.09,5.76,5.76,5.77
76.63,14.21,8.47,14.20,8.47,-8.47,-8.54,-7.99,5.74,5.74,5.74
77.40,14.13,8.42,14.13,8.42,-8.42,-8.51,-7.89,5.71,5.71,5.70
78.17,14.05,8.37,14.05,8.38,-8.37,-8.48,-7.80,5.68,5.68,5.67
78.95,13.98,8.33,13.98,8.33,-8.32,-8.45,-7.71,5.65,5.65,5.65
79.74,13.90,8.27,13.90,8.28,-8.28,-8.41,-7.62,5.62,5.62,5.63
80.54,13.83,8.24,13.82,8.23,-8.23,-8.38,-7.54,5.60,5.60,5.59
81.35,13.75,8.18,13.75,8.18,-8.18,-8.34,-7.47,5.57,5.56,5.57
82.16,13.67,8.13,13.67,8.13,-8.14,-8.30,-7.39,5.53,5.53,5.54
82.98,13.60,8.09,13.60,8.09,-8.10,-8.26,-7.33,5.50,5.50,5.51
83.81,13.53,8.06,13.53,8.05,-8.06,-8.22,-7.26,5.47,5.47,5.47
84.65,13.46,8.02,13.46,8.02,-8.02,-8.18,-7.20,5.44,5.44,5.44
85.50,13.39,7.99,13.39,7.98,-7.98,-8.14,-7.15,5.40,5.41,5.40
86.35,13.33,7.95,13.33,7.95,-7.95,-8.10,-7.10,5.38,5.37,5.37
87.22,13.26,7.92,13.26,7.92,-7.92,-8.05,-7.06,5.34,5.34,5.34
88.09,13.20,7.90,13.20,7.89,-7.89,-8.01,-7.02,5.31,5.31,5.30
88.97,13.13,7.86,13.13,7.86,-7.86,-7.97,-6.99,5.27,5.27,5.27
89.86,13.06,7.83,13.06,7.83,-7.83,-7.92,-6.96,5.23,5.24,5.23
90.76,13.00,7.80,13.00,7.80,-7.80,-7.88,-6.94,5.20,5.20,5.20
91.66,12.94,7.77,12.93,7.77,-7.77,-7.83,-6.92,5.17,5.17,5.17
92.58,12.87,7.74,12.87,7.73,-7.73,-7.79,-6.90,5.13,5.13,5.13
93.51,12.80,7.70,12.80,7.70,-7.70,-7.74,-6.89,5.09,5.10,5.10
94.44,12.73,7.66,12.73,7.67,-7.67,-7.70,-6.89,5.06,5.06,5.07
95.39,12.66,7.64,12.66,7.64,-7.64,-7.65,-6.89,5.02,5.02,5.02
96.34,12.59,7.61,12.59,7.61,-7.61,-7.61,-6.90,4.98,4.98,4.98
97.30,12.52,7.58,12.51,7.57,-7.57,-7.57,-6.90,4.95,4.94,4.94
98.28,12.44,7.53,12.44,7.54,-7.54,-7.52,-6.92,4.90,4.90,4.91
99.26,12.36,7.50,12.37,7.50,-7.50,-7.48,-6.93,4.86,4.87,4.86
100.25,12.30,7.47,12.29,7.46,-7.46,-7.44,-6.95,4.84,4.83,4.82
101.25,12.22,7.41,12.22,7.42,-7.41,-7.39,-6.98,4.80,4.80,4.81
102.27,12.14,7.37,12.14,7.37,-7.37,-7.35,-7.00,4.77,4.77,4.77
103.29,12.06,7.32,12.06,7.32,-7.32,-7.31,-7.03,4.74,4.74,4.74
104.32,11.99,7.27,11.99,7.28,-7.28,-7.27,-7.06,4.71,4.71,4.72
105.37,11.92,7.24,11.91,7.23,-7.23,-7.23,-7.09,4.69,4.68,4.68
106.42,11.84,7.18,11.84,7.18,-7.18,-7.19,-7.13,4.66,4.65,4.66
107.48,11.76,7.14,11.76,7.14,-7.14,-7.15,-7.16,4.62,4.62,4.62
108.56,11.68,7.08,11.68,7.09,-7.09,-7.11,-7.19,4.59,4.59,4.59
109.64,11.62,7.06,11.61,7.05,-7.05,-7.07,-7.23,4.57,4.56,4.56
110.74,11.54,7.01,11.54,7.01,-7.01,-7.03,-7.26,4.53,4.53,4.53
111.85,11.46,6.96,11.46,6.96,-6.97,-6.99,-7.29,4.49,4.49,4.50
112.97,11.38,6.92,11.39,6.92,-6.93,-6.94,-7.32,4.45,4.46,4.46
114.10,11.32,6.88,11.32,6.89,-6.89,-6.90,-7.34,4.43,4.42,4.44
115.24,11.25,6.86,11.24,6.85,-6.85,-6.86,-7.36,4.40,4.39,4.39
116.39,11.17,6.82,11.17,6.82,-6.81,-6.81,-7.38,4.36,4.36,4.35
117.55,11.09,6.77,11.09,6.78,-6.77,-6.77,-7.39,4.32,4.33,4.32
118.73,11.02,6.74,11.02,6.73,-6.72,-6.72,-7.40,4.29,4.29,4.28
119.92,10.95,6.69,10.94,6.68,-6.68,-6.67,-7.40,4.27,4.26,4.26
121.12,10.86,6.63,10.86,6.63,-6.63,-6.62,-7.40,4.23,4.23,4.23
122.33,10.77,6.57,10.78,6.58,-6.58,-6.57,-7.39,4.19,4.20,4.20
123.55,10.70,6.53,10.70,6.53,-6.53,-6.52,-7.37,4.17,4.16,4.17
124.79,10.63,6.48,10.62,6.48,-6.49,-6.47,-7.34,4.14,4.14,4.15
126.03,10.55,6.44,10.55,6.44,-6.44,-6.41,-7.31,4.11,4.11,4.11
127.29,10.47,6.39,10.47,6.39,-6.39,-6.36,-7.27,4.07,4.08,4.08
128.57,10.39,6.34,10.40,6.35,-6.35,-6.30,-7.23,4.04,4.04,4.05
129.85,10.33,6.32,10.32,6.31,-6.31,-6.25,-7.17,4.02,4.01,4.01
131.15,10.25,6.28,10.24,6.27,-6.27,-6.19,-7.12,3.98,3.98,3.97
132.46,10.16,6.22,10.16,6.23,-6.22,-6.14,-7.05,3.93,3.94,3.93
133.79,10.07,6.17,10.08,6.18,-6.18,-6.08,-6.98,3.89,3.90,3.90
135.12,10.01,6.15,10.00,6.14,-6.14,-6.03,-6.90,3.87,3.86,3.86
136.48,9.94,6.09,9.93,6.09,-6.10,-5.98,-6.82,3.84,3.83,3.85
137.84,9.86,6.05,9.86,6.05,-6.06,-5.93,-6.74,3.80,3.80,3.81
139.22,9.78,6.01,9.78,6.01,-6.01,-5.88,-6.65,3.77,3.77,3.77
140.61,9.71,5.96,9.71,5.97,-5.97,-5.83,-6.56,3.74,3.74,3.75
142.02,9.65,5.94,9.64,5.93,-5.92,-5.79,-6.46,3.73,3.72,3.71
143.44,9.57,5.89,9.57,5.88,-5.87,-5.74,-6.37,3.69,3.69,3.68
144.87,9.49,5.82,9.50,5.83,-5.83,-5.70,-6.27,3.66,3.67,3.67
146.32,9.42,5.78,9.42,5.77,-5.77,-5.66,-6.17,3.64,3.64,3.64
147.78,9.35,5.72,9.34,5.72,-5.72,-5.62,-6.07,3.63,3.62,3.62
149.26,9.26,5.66,9.26,5.67,-5.67,-5.58,-5.97,3.59,3.59,3.60
150.75,9.18,5.61,9.18,5.61,-5.61,-5.54,-5.87,3.56,3.57,3.57
152.26,9.11,5.56,9.11,5.56,-5.56,-5.51,-5.78,3.55,3.55,3.55
153.78,9.04,5.51,9.03,5.51,-5.50,-5.47,-5.68,3.53,3.53,3.53
155.32,8.96,5.46,8.96,5.45,-5.45,-5.44,-5.59,3.51,3.51,3.50
156.88,8.87,5.39,8.87,5.40,-5.40,-5.41,-5.50,3.47,3.48,3.48
158.44,8.79,5.34,8.79,5.34,-5.34,-5.38,-5.41,3.45,3.45,3.44
160.03,8.71,5.29,8.71,5.29,-5.29,-5.35,-5.32,3.42,3.42,3.42
161.63,8.63,5.24,8.62,5.24,-5.24,-5.32,-5.24,3.39,3.38,3.39
163.24,8.54,5.19,8.54,5.19,-5.19,-5.29,-5.15,3.35,3.35,3.35
164.88,8.46,5.14,8.46,5.14,-5.14,-5.26,-5.08,3.32,3.32,3.32
166.53,8.39,5.10,8.39,5.10,-5.10,-5.24,-5.00,3.29,3.29,3.29
168.19,8.32,5.06,8.31,5.05,-5.05,-5.21,-4.93,3.27,3.26,3.26
169.87,8.24,5.01,8.24,5.01,-5.01,-5.18,-4.86,3.23,3.23,3.23
171.57,8.16,4.96,8.16,4.97,-4.97,-5.16,-4.80,3.19,3.19,3.20
173.29,8.09,4.93,8.08,4.92,-4.93,-5.13,-4.73,3.16,3.16,3.16
175.02,8.01,4.88,8.01,4.88,-4.89,-5.10,-4.68,3.12,3.13,3.13
176.77,7.94,4.85,7.94,4.84,-4.84,-5.08,-4.62,3.09,3.10,3.09
178.54,7.87,4.80,7.87,4.80,-4.80,-5.05,-4.57,3.07,3.06,3.07
180.32,7.79,4.76,7.79,4.76,-4.76,-5.02,-4.52,3.03,3.03,3.02
182.13,7.71,4.72,7.71,4.71,-4.71,-5.00,-4.48,3.00,2.99,2.99
183.95,7.62,4.66,7.62,4.67,-4.67,-4.97,-4.43,2.95,2.96,2.96
185.79,7.54,4.62,7.54,4.62,-4.62,-4.94,-4.40,2.92,2.92,2.92
187.65,7.46,4.57,7.45,4.57,-4.56,-4.91,-4.36,2.89,2.89,2.89
189.52,7.37,4.52,7.36,4.51,-4.51,-4.88,-4.33,2.86,2.85,2.85
191.42,7.27,4.45,7.27,4.45,-4.46,-4.84,-4.30,2.81,2.82,2.82
193.33,7.18,4.39,7.18,4.40,-4.40,-4.81,-4.27,2.78,2.78,2.79
195.27,7.10,4.35,7.09,4.34,-4.35,-4.78,-4.25,2.75,2.75,2.75
197.22,7.01,4.29,7.01,4.29,-4.29,-4.74,-4.23,2.72,2.72,2.71
199.19,6.92,4.22,6.92,4.23,-4.23,-4.70,-4.21,2.69,2.69,2.70
201.18,6.84,4.18,6.84,4.18,-4.17,-4.66,-4.19,2.67,2.67,2.66
203.19,6.76,4.11,6.76,4.12,-4.11,-4.62,-4.18,2.64,2.65,2.64
205.23,6.69,4.07,6.68,4.06,-4.06,-4.58,-4.17,2.63,2.63,2.62
207.28,6.60,4.00,6.60,4.00,-4.00,-4.54,-4.16,2.60,2.60,2.60
209.35,6.51,3.94,6.51,3.94,-3.94,-4.49,-4.15,2.57,2.57,2.57
211.44,6.43,3.88,6.43,3.88,-3.89,-4.45,-4.14,2.54,2.54,2.54
213.56,6.35,3.82,6.35,3.83,-3.84,-4.40,-4.13,2.51,2.52,2.53
215.69,6.29,3.78,6.29,3.78,-3.78,-4.35,-4.12,2.50,2.50,2.51
217.85,6.22,3.73,6.22,3.73,-3.73,-4.30,-4.11,2.48,2.49,2.48
220.03,6.16,3.70,6.16,3.69,-3.68,-4.25,-4.10,2.47,2.47,2.46
222.23,6.09,3.65,6.09,3.65,-3.64,-4.19,-4.09,2.45,2.45,2.44
224.45,6.02,3.60,6.02,3.60,-3.59,-4.14,-4.08,2.43,2.43,2.42
226.70,5.95,3.54,5.95,3.54,-3.54,-4.08,-4.07,2.40,2.41,2.41
228.96,5.89,3.49,5.89,3.49,-3.50,-4.03,-4.06,2.39,2.39,2.40
231.25,5.83,3.45,5.83,3.45,-3.45,-3.97,-4.04,2.38,2.38,2.38
233.57,5.77,3.40,5.77,3.41,-3.41,-3.91,-4.03,2.36,2.36,2.37
235.90,5.72,3.37,5.72,3.37,-3.37,-3.85,-4.01,2.35,2.35,2.35
238.26,5.67,3.33,5.67,3.33,-3.33,-3.79,-3.98,2.34,2.34,2.34
240.64,5.64,3.29,5.63,3.29,-3.30,-3.72,-3.95,2.34,2.34,2.35
243.05,5.60,3.26,5.60,3.26,-3.27,-3.66,-3.93,2.33,2.33,2.34
245.48,5.57,3.25,5.57,3.24,-3.25,-3.59,-3.89,2.32,2.32,2.32
247.93,5.54,3.23,5.54,3.22,-3.23,-3.53,-3.85,2.31,2.32,2.31
250.41,5.53,3.20,5.53,3.21,-3.21,-3.46,-3.81,2.32,2.32,2.33
252.92,5.53,3.20,5.52,3.20,-3.20,-3.40,-3.77,2.33,2.32,2.33
255.45,5.52,3.20,5.52,3.19,-3.19,-3.33,-3.72,2.33,2.33,2.32
258.00,5.51,3.18,5.51,3.19,-3.19,-3.26,-3.66,2.32,2.32,2.32
260.58,5.50,3.18,5.50,3.18,-3.18,-3.20,-3.61,2.32,2.32,2.32
263.19,5.49,3.17,5.49,3.17,-3.18,-3.13,-3.55,2.31,2.31,2.32
265.82,5.48,3.16,5.48,3.17,-3.17,-3.06,-3.48,2.31,2.31,2.31
268.48,5.48,3.16,5.48,3.16,-3.16,-2.99,-3.41,2.32,2.32,2.32
271.16,5.47,3.16,5.46,3.15,-3.14,-2.92,-3.34,2.33,2.32,2.31
273.87,5.44,3.12,5.44,3.13,-3.12,-2.85,-3.27,2.32,2.32,2.32
276.61,5.41,3.10,5.41,3.10,-3.09,-2.79,-3.19,2.31,2.31,2.31
279.38,5.37,3.07,5.37,3.06,-3.06,-2.72,-3.11,2.31,2.31,2.30
282.17,5.33,3.02,5.33,3.02,-3.02,-2.65,-3.03,2.31,2.31,2.31
284.99,5.28,2.96,5.28,2.97,-2.97,-2.58,-2.95,2.31,2.31,2.32
287.84,5.23,2.91,5.23,2.92,-2.92,-2.51,-2.86,2.31,2.31,2.32
290.72,5.18,2.87,5.18,2.86,-2.86,-2.44,-2.78,2.32,2.32,2.31
293.63,5.12,2.81,5.12,2.80,-2.80,-2.38,-2.69,2.32,2.32,2.31
296.57,5.05,2.72,5.05,2.73,-2.73,-2.31,-2.60,2.32,2.32,2.33
299.53,4.98,2.65,4.98,2.65,-2.66,-2.24,-2.51,2.32,2.32,2.32
302.53,4.91,2.58,4.91,2.58,-2.58,-2.18,-2.42,2.33,2.33,2.33
305.55,4.84,2.50,4.84,2.50,-2.51,-2.11,-2.33,2.33,2.33,2.34
308.61,4.77,2.43,4.77,2.43,-2.43,-2.04,-2.24,2.34,2.34,2.34
311.69,4.70,2.35,4.70,2.35,-2.34,-1.98,-2.15,2.35,2.35,2.35
314.81,4.62,2.26,4.62,2.26,-2.26,-1.91,-2.06,2.36,2.36,2.36
317.96,4.54,2.18,4.54,2.18,-2.18,-1.85,-1.97,2.36,2.36,2.36
321.14,4.46,2.09,4.46,2.09,-2.10,-1.78,-1.89,2.36,2.37,2.37
324.35,4.39,2.02,4.39,2.01,-2.01,-1.72,-1.80,2.38,2.37,2.37
327.59,4.31,1.92,4.31,1.93,-1.93,-1.65,-1.71,2.38,2.38,2.39
330.87,4.23,1.84,4.23,1.84,-1.84,-1.59,-1.62,2.39,2.39,2.39
334.18,4.15,1.76,4.15,1.76,-1.76,-1.53,-1.53,2.39,2.40,2.39
337.52,4.08,1.67,4.08,1.68,-1.67,-1.46,-1.45,2.40,2.40,2.40
340.90,4.01,1.60,4.00,1.59,-1.59,-1.40,-1.36,2.42,2.41,2.41
344.30,3.93,1.51,3.93,1.51,-1.52,-1.34,-1.28,2.41,2.42,2.42
347.75,3.86,1.43,3.86,1.43,-1.44,-1.28,-1.20,2.42,2.42,2.43
351.23,3.80,1.36,3.80,1.36,-1.37,-1.21,-1.11,2.43,2.43,2.43
354.74,3.74,1.29,3.74,1.29,-1.29,-1.15,-1.03,2.45,2.45,2.45
358.28,3.68,1.23,3.68,1.23,-1.22,-1.09,-0.95,2.46,2.46,2.45
361.87,3.62,1.17,3.62,1.16,-1.15,-1.03,-0.87,2.47,2.47,2.45
365.49,3.55,1.08,3.55,1.08,-1.08,-0.97,-0.79,2.47,2.47,2.47
369.14,3.48,1.00,3.48,1.01,-1.01,-0.91,-0.71,2.47,2.47,2.47
372.83,3.41,0.93,3.41,0.93,-0.94,-0.85,-0.63,2.47,2.47,2.48
376.56,3.35,0.87,3.35,0.86,-0.87,-0.79,-0.55,2.48,2.48,2.48
380.33,3.29,0.80,3.29,0.80,-0.80,-0.73,-0.48,2.49,2.49,2.49
384.13,3.23,0.73,3.23,0.73,-0.73,-0.68,-0.40,2.50,2.50,2.50
387.97,3.17,0.66,3.17,0.66,-0.66,-0.62,-0.32,2.51,2.51,2.51
391.85,3.11,0.58,3.11,0.60,-0.59,-0.56,-0.25,2.51,2.52,2.52
395.77,3.06,0.54,3.06,0.53,-0.53,-0.50,-0.18,2.53,2.53,2.52
399.73,3.01,0.48,3.00,0.47,-0.46,-0.44,-0.10,2.55,2.54,2.53
403.72,2.95,0.40,2.95,0.40,-0.40,-0.39,-0.03,2.55,2.55,2.55
407.76,2.89,0.33,2.89,0.33,-0.33,-0.33,0.04,2.56,2.56,2.56
411.84,2.83,0.26,2.83,0.26,-0.27,-0.27,0.11,2.56,2.56,2.57
415.96,2.77,0.19,2.77,0.20,-0.20,-0.21,0.18,2.57,2.57,2.58
420.12,2.72,0.14,2.72,0.14,-0.14,-0.15,0.25,2.58,2.58,2.58
424.32,2.67,0.08,2.67,0.07,-0.07,-0.10,0.32,2.60,2.59,2.58
428.56,2.61,0.00,2.61,0.01,-0.01,-0.04,0.39,2.60,2.60,2.60
432.85,2.56,-0.06,2.56,-0.05,0.06,0.02,0.45,2.61,2.61,2.62
437.18,2.50,-0.11,2.50,-0.12,0.12,0.07,0.52,2.62,2.62,2.61
441.55,2.45,-0.17,2.44,-0.18,0.18,0.13,0.58,2.63,2.63,2.62
445.96,2.38,-0.25,2.38,-0.25,0.25,0.19,0.64,2.63,2.63,2.63
450.42,2.32,-0.32,2.32,-0.31,0.31,0.25,0.70,2.63,2.64,2.64
454.93,2.27,-0.38,2.27,-0.38,0.38,0.30,0.76,2.65,2.64,2.65
459.48,2.22,-0.44,2.22,-0.44,0.44,0.36,0.82,2.66,2.66,2.66
464.07,2.17,-0.51,2.17,-0.50,0.50,0.42,0.87,2.67,2.67,2.68
468.71,2.12,-0.56,2.12,-0.56,0.56,0.48,0.93,2.68,2.68,2.68
473.40,2.07,-0.62,2.06,-0.62,0.62,0.54,0.98,2.69,2.68,2.68
478.13,2.01,-0.69,2.02,-0.68,0.67,0.59,1.03,2.68,2.69,2.69
482.91,1.97,-0.73,1.97,-0.74,0.73,0.65,1.07,2.70,2.70,2.70
