frequency,raw,error,smoothed,error_smoothed,equalization,parametric_eq,fixed_band_eq,equalized_raw,equalized_smoothed,target
20.00,12.01,-0.60,12.01,-0.60,0.60,0.49,-0.70,12.61,12.61,12.61
20.20,12.07,-0.52,12.07,-0.53,0.52,0.42,-0.72,12.60,12.60,12.59
20.40,12.14,-0.44,12.14,-0.45,0.45,0.35,-0.74,12.59,12.59,12.58
20.61,12.20,-0.38,12.20,-0.37,0.38,0.28,-0.76,12.58,12.58,12.58
20.81,12.26,-0.30,12.27,-0.30,0.30,0.21,-0.78,12.56,12.57,12.56
21.02,12.33,-0.22,12.33,-0.23,0.23,0.13,-0.80,12.56,12.56,12.55
21.23,12.39,-0.15,12.39,-0.16,0.16,0.06,-0.83,12.55,12.55,12.54
21.44,12.45,-0.10,12.45,-0.09,0.09,-0.01,-0.85,12.54,12.54,12.55
21.66,12.52,-0.02,12.52,-0.02,0.02,-0.08,-0.87,12.54,12.54,12.54
21.87,12.58,0.05,12.58,0.05,-0.05,-0.14,-0.90,12.53,12.53,12.53
22.09,12.65,0.13,12.65,0.13,-0.12,-0.21,-0.92,12.53,12.53,12.52
22.31,12.71,0.19,12.71,0.19,-0.19,-0.27,-0.95,12.52,12.52,12.52
22.54,12.77,0.26,12.77,0.26,-0.26,-0.34,-0.98,12.51,12.51,12.51
22.76,12.83,0.31,12.83,0.32,-0.33,-0.40,-1.00,12.51,12.51,12.52
22.99,12.90,0.39,12.90,0.39,-0.39,-0.45,-1.03,12.51,12.51,12.51
23.22,12.96,0.46,12.96,0.46,-0.46,-0.51,-1.06,12.50,12.50,12.50
23.45,13.02,0.52,13.02,0.52,-0.52,-0.57,-1.09,12.50,12.50,12.50
23.69,13.08,0.58,13.08,0.59,-0.58,-0.62,-1.12,12.50,12.50,12.50
23.92,13.14,0.65,13.14,0.64,-0.64,-0.67,-1.15,12.50,12.50,12.50
24.16,13.20,0.71,13.20,0.70,-0.70,-0.72,-1.18,12.50,12.50,12.50
24.40,13.26,0.76,13.26,0.76,-0.77,-0.77,-1.21,12.50,12.50,12.50
24.65,13.32,0.82,13.32,0.82,-0.83,-0.82,-1.25,12.49,12.49,12.50
24.89,13.38,0.89,13.38,0.88,-0.89,-0.87,-1.28,12.49,12.49,12.49
25.14,13.43,0.95,13.44,0.95,-0.95,-0.92,-1.31,12.48,12.49,12.48
25.39,13.50,1.02,13.50,1.02,-1.02,-0.96,-1.35,12.49,12.48,12.48
25.65,13.56,1.09,13.56,1.09,-1.08,-1.01,-1.38,12.48,12.48,12.47
25.91,13.62,1.15,13.62,1.15,-1.14,-1.05,-1.42,12.48,12.48,12.47
26.16,13.68,1.20,13.68,1.21,-1.20,-1.10,-1.45,12.48,12.47,12.48
26.43,13.73,1.26,13.73,1.26,-1.27,-1.14,-1.49,12.46,12.47,12.47
26.69,13.79,1.32,13.79,1.32,-1.33,-1.18,-1.52,12.47,12.46,12.47
26.96,13.84,1.37,13.84,1.38,-1.38,-1.22,-1.56,12.46,12.46,12.47
27.23,13.90,1.44,13.90,1.44,-1.44,-1.26,-1.60,12.46,12.46,12.46
27.50,13.95,1.50,13.95,1.50,-1.49,-1.31,-1.63,12.46,12.46,12.45
27.77,14.01,1.55,14.01,1.55,-1.55,-1.35,-1.67,12.47,12.46,12.46
28.05,14.06,1.60,14.06,1.60,-1.60,-1.39,-1.70,12.46,12.46,12.46
28.33,14.11,1.65,14.11,1.65,-1.65,-1.43,-1.74,12.46,12.46,12.46
28.62,14.16,1.70,14.16,1.70,-1.70,-1.46,-1.77,12.46,12.46,12.46
28.90,14.21,1.74,14.21,1.75,-1.75,-1.50,-1.81,12.46,12.46,12.47
29.19,14.26,1.79,14.26,1.80,-1.80,-1.54,-1.84,12.46,12.46,12.47
29.48,14.31,1.85,14.31,1.84,-1.84,-1.58,-1.87,12.47,12.47,12.46
29.78,14.36,1.90,14.36,1.89,-1.89,-1.62,-1.91,12.47,12.47,12.46
30.08,14.41,1.93,14.41,1.94,-1.93,-1.66,-1.94,12.48,12.48,12.48
30.38,14.45,1.98,14.45,1.97,-1.97,-1.70,-1.97,12.48,12.47,12.47
30.68,14.48,2.01,14.49,2.01,-2.01,-1.74,-2.00,12.47,12.47,12.47
30.99,14.52,2.05,14.52,2.05,-2.06,-1.77,-2.03,12.46,12.46,12.47
31.30,14.56,2.10,14.56,2.09,-2.10,-1.81,-2.05,12.46,12.46,12.46
31.61,14.59,2.13,14.59,2.13,-2.14,-1.85,-2.08,12.45,12.45,12.46
31.93,14.63,2.18,14.63,2.18,-2.18,-1.89,-2.11,12.45,12.45,12.45
32.24,14.67,2.22,14.67,2.22,-2.22,-1.93,-2.13,12.45,12.45,12.45
32.57,14.71,2.27,14.71,2.27,-2.27,-1.97,-2.16,12.44,12.45,12.44
32.89,14.75,2.32,14.75,2.31,-2.31,-2.01,-2.18,12.44,12.44,12.43
33.22,14.78,2.35,14.78,2.35,-2.35,-2.04,-2.21,12.43,12.43,12.43
33.55,14.81,2.38,14.81,2.39,-2.39,-2.08,-2.23,12.42,12.42,12.43
33.89,14.84,2.42,14.84,2.42,-2.42,-2.12,-2.25,12.42,12.42,12.42
34.23,14.87,2.47,14.87,2.46,-2.46,-2.16,-2.27,12.41,12.41,12.40
34.57,14.90,2.50,14.90,2.50,-2.50,-2.20,-2.30,12.40,12.40,12.40
34.92,14.92,2.53,14.92,2.53,-2.53,-2.24,-2.32,12.39,12.39,12.39
35.27,14.95,2.56,14.95,2.57,-2.57,-2.28,-2.34,12.38,12.38,12.40
35.62,14.98,2.62,14.98,2.61,-2.61,-2.32,-2.36,12.37,12.37,12.36
35.97,15.01,2.65,15.01,2.65,-2.65,-2.36,-2.39,12.36,12.36,12.36
36.33,15.03,2.69,15.03,2.69,-2.69,-2.40,-2.41,12.34,12.35,12.35
36.70,15.06,2.73,15.06,2.73,-2.73,-2.44,-2.44,12.33,12.33,12.33
37.06,15.09,2.77,15.09,2.77,-2.77,-2.48,-2.46,12.32,12.32,12.32
37.43,15.12,2.82,15.12,2.81,-2.81,-2.52,-2.49,12.31,12.30,12.30
37.81,15.14,2.85,15.14,2.86,-2.86,-2.56,-2.52,12.28,12.28,12.29
38.19,15.17,2.90,15.17,2.90,-2.91,-2.60,-2.55,12.26,12.27,12.27
38.57,15.20,2.95,15.20,2.95,-2.95,-2.64,-2.58,12.25,12.25,12.25
38.95,15.23,3.00,15.23,3.00,-3.00,-2.69,-2.61,12.23,12.23,12.23
39.34,15.25,3.05,15.26,3.05,-3.05,-2.73,-2.64,12.20,12.21,12.20
39.74,15.28,3.09,15.28,3.10,-3.09,-2.77,-2.68,12.19,12.19,12.19
40.14,15.31,3.15,15.31,3.14,-3.14,-2.81,-2.72,12.17,12.17,12.16
40.54,15.33,3.18,15.33,3.19,-3.18,-2.85,-2.75,12.15,12.15,12.15
40.94,15.35,3.23,15.35,3.23,-3.23,-2.90,-2.80,12.12,12.13,12.12
41.35,15.37,3.26,15.37,3.27,-3.27,-2.94,-2.84,12.10,12.10,12.11
41.76,15.40,3.31,15.40,3.31,-3.31,-2.98,-2.88,12.09,12.09,12.09
42.18,15.42,3.35,15.42,3.35,-3.35,-3.02,-2.93,12.07,12.07,12.07
42.60,15.44,3.39,15.44,3.39,-3.39,-3.07,-2.98,12.05,12.05,12.05
43.03,15.46,3.44,15.46,3.43,-3.43,-3.11,-3.03,12.03,12.03,12.02
43.46,15.47,3.47,15.47,3.47,-3.47,-3.16,-3.09,12.00,12.01,12.01
43.90,15.49,3.51,15.49,3.51,-3.51,-3.20,-3.14,11.98,11.98,11.98
44.33,15.50,3.54,15.50,3.54,-3.55,-3.24,-3.20,11.95,11.96,11.96
44.78,15.52,3.59,15.52,3.58,-3.59,-3.29,-3.27,11.93,11.93,11.93
45.23,15.53,3.62,15.53,3.62,-3.63,-3.33,-3.33,11.91,11.91,11.92
45.68,15.54,3.66,15.54,3.67,-3.66,-3.38,-3.40,11.88,11.88,11.88
46.13,15.55,3.71,15.55,3.71,-3.71,-3.42,-3.46,11.85,11.85,11.84
46.60,15.56,3.75,15.56,3.75,-3.75,-3.47,-3.53,11.81,11.82,11.81
47.06,15.57,3.79,15.57,3.79,-3.79,-3.51,-3.61,11.78,11.78,11.78
47.53,15.58,3.83,15.58,3.83,-3.83,-3.56,-3.68,11.75,11.74,11.75
48.01,15.58,3.88,15.58,3.88,-3.88,-3.60,-3.76,11.70,11.70,11.70
48.49,15.59,3.92,15.59,3.92,-3.93,-3.65,-3.84,11.67,11.66,11.67
48.97,15.60,3.97,15.60,3.97,-3.97,-3.69,-3.92,11.63,11.63,11.63
49.46,15.61,4.01,15.61,4.02,-4.02,-3.74,-4.00,11.59,11.59,11.60
49.96,15.63,4.08,15.63,4.07,-4.07,-3.79,-4.09,11.56,11.56,11.55
50.46,15.64,4.11,15.64,4.12,-4.12,-3.83,-4.17,11.52,11.53,11.53
50.96,15.66,4.17,15.66,4.17,-4.16,-3.88,-4.26,11.50,11.50,11.49
51.47,15.67,4.21,15.67,4.21,-4.21,-3.92,-4.35,11.46,11.46,11.46
51.99,15.69,4.26,15.69,4.26,-4.26,-3.97,-4.43,11.44,11.43,11.43
52.51,15.70,4.31,15.70,4.30,-4.30,-4.02,-4.52,11.40,11.40,11.39
53.03,15.71,4.34,15.71,4.35,-4.35,-4.06,-4.61,11.36,11.36,11.37
53.56,15.72,4.39,15.72,4.39,-4.40,-4.11,-4.70,11.32,11.32,11.33
54.10,15.73,4.44,15.73,4.44,-4.45,-4.16,-4.79,11.28,11.28,11.29
54.64,15.75,4.50,15.75,4.50,-4.50,-4.20,-4.87,11.25,11.25,11.26
55.18,15.77,4.56,15.77,4.56,-4.55,-4.25,-4.96,11.22,11.22,11.21
55.74,15.79,4.62,15.79,4.61,-4.60,-4.30,-5.04,11.19,11.19,11.17
56.29,15.81,4.66,15.81,4.66,-4.65,-4.34,-5.12,11.16,11.16,11.16
56.86,15.83,4.70,15.83,4.71,-4.70,-4.39,-5.19,11.13,11.13,11.13
57.42,15.84,4.75,15.85,4.75,-4.75,-4.44,-5.27,11.09,11.10,11.09
58.00,15.86,4.80,15.86,4.79,-4.79,-4.48,-5.34,11.07,11.07,11.06
58.58,15.88,4.83,15.88,4.83,-4.84,-4.53,-5.40,11.04,11.04,11.05
59.16,15.89,4.87,15.90,4.87,-4.88,-4.58,-5.46,11.01,11.01,11.02
59.76,15.91,4.92,15.91,4.92,-4.93,-4.62,-5.51,10.98,10.98,10.99
60.35,15.93,4.98,15.93,4.98,-4.99,-4.67,-5.56,10.95,10.94,10.95
60.96,15.94,5.03,15.94,5.04,-5.04,-4.71,-5.61,10.90,10.90,10.91
61.57,15.95,5.10,15.95,5.10,-5.09,-4.76,-5.65,10.86,10.86,10.85
62.18,15.96,5.15,15.96,5.15,-5.15,-4.81,-5.68,10.82,10.82,10.81
62.80,15.97,5.21,15.97,5.20,-5.20,-4.85,-5.70,10.77,10.77,10.77
63.43,15.97,5.25,15.97,5.25,-5.24,-4.90,-5.72,10.73,10.73,10.72
64.07,15.97,5.29,15.98,5.29,-5.29,-4.94,-5.74,10.68,10.69,10.68
64.71,15.98,5.33,15.98,5.33,-5.33,-4.99,-5.75,10.65,10.65,10.65
65.35,15.98,5.37,15.98,5.36,-5.37,-5.03,-5.75,10.61,10.61,10.61
66.01,15.97,5.40,15.97,5.40,-5.40,-5.08,-5.75,10.57,10.57,10.57
66.67,15.96,5.42,15.97,5.43,-5.43,-5.12,-5.74,10.53,10.53,10.54
67.33,15.96,5.47,15.96,5.46,-5.46,-5.17,-5.73,10.50,10.49,10.49
68.01,15.95,5.50,15.95,5.50,-5.49,-5.21,-5.72,10.46,10.46,10.45
68.69,15.94,5.53,15.94,5.52,-5.52,-5.25,-5.70,10.42,10.42,10.41
69.37,15.92,5.54,15.92,5.54,-5.54,-5.30,-5.68,10.38,10.38,10.38
70.07,15.90,5.55,15.90,5.56,-5.56,-5.34,-5.65,10.34,10.34,10.35
70.77,15.88,5.58,15.88,5.58,-5.58,-5.38,-5.63,10.30,10.30,10.30
71.48,15.86,5.60,15.86,5.60,-5.60,-5.42,-5.60,10.26,10.25,10.26
72.19,15.83,5.62,15.83,5.62,-5.62,-5.47,-5.57,10.21,10.21,10.21
72.91,15.81,5.63,15.81,5.64,-5.64,-5.51,-5.54,10.18,10.17,10.18
73.64,15.78,5.65,15.78,5.65,-5.65,-5.55,-5.51,10.13,10.14,10.13
74.38,15.76,5.67,15.76,5.67,-5.66,-5.59,-5.48,10.10,10.10,10.09
75.12,15.74,5.68,15.74,5.68,-5.67,-5.63,-5.45,10.07,10.07,10.06
75.87,15.71,5.68,15.71,5.68,-5.68,-5.67,-5.43,10.03,10.03,10.03
76.63,15.68,5.68,15.68,5.68,-5.68,-5.71,-5.40,10.00,10.00,10.00
77.40,15.66,5.69,15.66,5.69,-5.69,-5.75,-5.38,9.97,9.97,9.97
78.17,15.64,5.70,15.64,5.70,-5.70,-5.78,-5.36,9.94,9.94,9.94
78.95,15.62,5.71,15.62,5.71,-5.71,-5.82,-5.34,9.91,9.91,9.91
79.74,15.61,5.72,15.61,5.72,-5.73,-5.86,-5.32,9.88,9.88,9.89
80.54,15.60,5.75,15.60,5.74,-5.75,-5.89,-5.31,9.85,9.85,9.86
81.35,15.60,5.77,15.60,5.77,-5.78,-5.93,-5.30,9.82,9.82,9.83
82.16,15.60,5.80,15.60,5.81,-5.82,-5.97,-5.30,9.79,9.79,9.80
82.98,15.61,5.85,15.61,5.85,-5.85,-6.00,-5.29,9.76,9.76,9.77
83.81,15.63,5.90,15.62,5.89,-5.89,-6.03,-5.29,9.74,9.74,9.73
84.65,15.63,5.93,15.63,5.94,-5.92,-6.07,-5.30,9.71,9.71,9.70
85.50,15.63,5.97,15.63,5.97,-5.96,-6.10,-5.31,9.67,9.67,9.66
86.35,15.62,5.99,15.62,5.99,-5.99,-6.13,-5.32,9.63,9.64,9.63
87.22,15.61,6.01,15.61,6.01,-6.01,-6.16,-5.34,9.60,9.60,9.60
88.09,15.59,6.03,15.59,6.03,-6.03,-6.19,-5.36,9.56,9.56,9.56
88.97,15.56,6.04,15.56,6.04,-6.04,-6.22,-5.38,9.52,9.52,9.52
89.86,15.53,6.05,15.53,6.05,-6.05,-6.25,-5.41,9.48,9.49,9.48
90.76,15.51,6.06,15.50,6.06,-6.05,-6.28,-5.44,9.46,9.45,9.45
91.66,15.47,6.06,15.47,6.06,-6.06,-6.30,-5.48,9.41,9.41,9.41
92.58,15.44,6.06,15.44,6.06,-6.07,-6.33,-5.52,9.37,9.38,9.38
93.51,15.41,6.07,15.41,6.07,-6.07,-6.35,-5.56,9.34,9.34,9.34
94.44,15.39,6.08,15.39,6.08,-6.08,-6.38,-5.61,9.31,9.31,9.31
95.39,15.36,6.10,15.36,6.09,-6.09,-6.40,-5.66,9.27,9.27,9.26
96.34,15.33,6.11,15.33,6.11,-6.11,-6.42,-5.72,9.22,9.22,9.22
97.30,15.30,6.12,15.31,6.13,-6.13,-6.44,-5.78,9.17,9.18,9.18
98.28,15.29,6.15,15.29,6.15,-6.16,-6.46,-5.84,9.13,9.13,9.14
99.26,15.28,6.18,15.28,6.18,-6.19,-6.48,-5.91,9.09,9.09,9.10
100.25,15.27,6.21,15.28,6.21,-6.22,-6.50,-5.97,9.05,9.06,9.06
101.25,15.29,6.25,15.29,6.25,-6.26,-6.52,-6.04,9.03,9.03,9.04
102.27,15.30,6.30,15.30,6.29,-6.29,-6.54,-6.12,9.01,9.01,9.00
103.29,15.31,6.34,15.31,6.34,-6.33,-6.55,-6.19,8.98,8.98,8.97
104.32,15.31,6.36,15.31,6.37,-6.36,-6.57,-6.27,8.95,8.95,8.95
105.37,15.31,6.40,15.31,6.39,-6.39,-6.58,-6.34,8.93,8.92,8.91
106.42,15.29,6.41,15.29,6.41,-6.40,-6.60,-6.42,8.89,8.89,8.88
107.48,15.27,6.43,15.27,6.42,-6.42,-6.61,-6.50,8.85,8.85,8.85
108.56,15.24,6.42,15.24,6.43,-6.42,-6.62,-6.58,8.82,8.82,8.82
109.64,15.21,6.43,15.21,6.43,-6.43,-6.63,-6.65,8.79,8.79,8.78
110.74,15.18,6.43,15.18,6.43,-6.43,-6.64,-6.73,8.75,8.75,8.75
111.85,15.14,6.43,15.14,6.42,-6.43,-6.65,-6.80,8.71,8.71,8.72
112.97,15.10,6.42,15.10,6.42,-6.43,-6.66,-6.87,8.67,8.67,8.68
114.10,15.07,6.42,15.07,6.43,-6.44,-6.67,-6.93,8.63,8.63,8.65
115.24,15.04,6.44,15.05,6.44,-6.45,-6.67,-7.00,8.59,8.60,8.61
116.39,15.03,6.47,15.03,6.46,-6.46,-6.68,-7.05,8.57,8.57,8.56
117.55,15.01,6.48,15.01,6.48,-6.47,-6.68,-7.10,8.54,8.54,8.53
118.73,14.99,6.50,14.98,6.49,-6.48,-6.68,-7.15,8.51,8.50,8.49
119.92,14.95,6.49,14.96,6.49,-6.49,-6.69,-7.19,8.46,8.46,8.46
121.12,14.93,6.49,14.94,6.50,-6.50,-6.69,-7.22,8.43,8.43,8.44
122.33,14.92,6.51,14.92,6.51,-6.51,-6.69,-7.25,8.41,8.41,8.41
123.55,14.90,6.53,14.90,6.52,-6.52,-6.69,-7.26,8.38,8.38,8.37
124.79,14.87,6.52,14.87,6.53,-6.52,-6.69,-7.27,8.35,8.35,8.35
126.03,14.84,6.53,14.84,6.53,-6.53,-6.69,-7.28,8.31,8.31,8.31
127.29,14.81,6.53,14.81,6.53,-6.54,-6.69,-7.27,8.27,8.27,8.28
128.57,14.78,6.53,14.78,6.54,-6.55,-6.68,-7.26,8.24,8.24,8.25
129.85,14.75,6.54,14.75,6.55,-6.55,-6.68,-7.24,8.20,8.20,8.21
131.15,14.73,6.56,14.73,6.56,-6.56,-6.68,-7.21,8.17,8.18,8.17
132.46,14.71,6.58,14.71,6.58,-6.56,-6.67,-7.18,8.15,8.14,8.13
133.79,14.68,6.59,14.68,6.58,-6.57,-6.66,-7.14,8.11,8.11,8.09
135.12,14.63,6.57,14.64,6.57,-6.58,-6.66,-7.10,8.05,8.06,8.06
136.48,14.61,6.57,14.61,6.57,-6.58,-6.65,-7.05,8.03,8.02,8.04
137.84,14.57,6.56,14.58,6.58,-6.59,-6.64,-6.99,7.98,7.99,8.01
139.22,14.56,6.60,14.56,6.59,-6.59,-6.64,-6.93,7.97,7.97,7.96
140.61,14.54,6.60,14.53,6.60,-6.59,-6.63,-6.87,7.95,7.94,7.94
142.02,14.50,6.60,14.51,6.60,-6.59,-6.62,-6.81,7.91,7.91,7.91
143.44,14.48,6.61,14.48,6.60,-6.60,-6.61,-6.75,7.89,7.88,7.87
144.87,14.44,6.58,14.45,6.59,-6.60,-6.60,-6.68,7.85,7.85,7.86
146.32,14.43,6.60,14.43,6.59,-6.59,-6.59,-6.61,7.84,7.83,7.83
147.78,14.40,6.59,14.40,6.59,-6.59,-6.58,-6.55,7.81,7.81,7.81
149.26,14.37,6.59,14.37,6.59,-6.58,-6.57,-6.48,7.79,7.79,7.78
150.75,14.34,6.58,14.34,6.58,-6.57,-6.56,-6.42,7.77,7.76,7.76
152.26,14.30,6.56,14.30,6.57,-6.57,-6.55,-6.35,7.73,7.74,7.74
153.78,14.27,6.56,14.27,6.55,-6.56,-6.53,-6.29,7.71,7.71,7.71
155.32,14.24,6.55,14.24,6.55,-6.56,-6.52,-6.23,7.68,7.68,7.69
156.88,14.21,6.55,14.22,6.55,-6.55,-6.51,-6.18,7.66,7.66,7.67
158.44,14.20,6.57,14.19,6.55,-6.55,-6.50,-6.12,7.65,7.64,7.63
160.03,14.16,6.55,14.16,6.56,-6.55,-6.49,-6.07,7.61,7.61,7.61
161.63,14.13,6.55,14.14,6.56,-6.56,-6.47,-6.03,7.57,7.58,7.58
163.24,14.11,6.57,14.10,6.56,-6.56,-6.46,-5.98,7.55,7.54,7.54
164.88,14.07,6.56,14.08,6.57,-6.57,-6.45,-5.94,7.50,7.51,7.51
166.53,14.05,6.57,14.05,6.58,-6.58,-6.43,-5.91,7.47,7.48,7.48
168.19,14.04,6.59,14.03,6.58,-6.59,-6.42,-5.88,7.46,7.45,7.45
169.87,14.01,6.60,14.01,6.60,-6.60,-6.41,-5.85,7.42,7.42,7.41
171.57,13.99,6.60,13.99,6.61,-6.61,-6.40,-5.83,7.38,7.38,7.39
173.29,13.97,6.62,13.97,6.62,-6.62,-6.38,-5.81,7.35,7.35,7.35
175.02,13.94,6.63,13.94,6.63,-6.63,-6.37,-5.79,7.31,7.31,7.31
176.77,13.92,6.64,13.92,6.64,-6.64,-6.36,-5.78,7.28,7.28,7.28
178.54,13.90,6.64,13.90,6.66,-6.66,-6.35,-5.78,7.25,7.25,7.26
180.32,13.89,6.68,13.89,6.67,-6.66,-6.33,-5.78,7.23,7.22,7.21
182.13,13.86,6.68,13.86,6.68,-6.67,-6.32,-5.78,7.19,7.19,7.18
183.95,13.82,6.67,13.82,6.68,-6.67,-6.31,-5.79,7.15,7.16,7.15
185.79,13.78,6.67,13.78,6.67,-6.67,-6.30,-5.80,7.11,7.11,7.11
187.65,13.74,6.66,13.74,6.66,-6.66,-6.28,-5.82,7.08,7.07,7.08
189.52,13.69,6.65,13.69,6.65,-6.66,-6.27,-5.84,7.03,7.04,7.04
191.42,13.65,6.64,13.65,6.64,-6.65,-6.26,-5.86,7.00,7.00,7.01
193.33,13.61,6.63,13.61,6.64,-6.64,-6.25,-5.89,6.97,6.96,6.98
195.27,13.57,6.63,13.57,6.63,-6.64,-6.24,-5.92,6.93,6.94,6.94
197.22,13.54,6.64,13.54,6.63,-6.63,-6.23,-5.95,6.91,6.91,6.90
199.19,13.51,6.62,13.51,6.63,-6.62,-6.22,-5.99,6.89,6.89,6.89
201.18,13.47,6.62,13.47,6.62,-6.61,-6.21,-6.03,6.86,6.86,6.85
203.19,13.43,6.59,13.43,6.60,-6.59,-6.19,-6.08,6.84,6.84,6.84
205.23,13.39,6.58,13.39,6.58,-6.57,-6.18,-6.12,6.82,6.82,6.81
207.28,13.34,6.54,13.34,6.55,-6.55,-6.17,-6.17,6.79,6.80,6.80
209.35,13.29,6.53,13.29,6.52,-6.52,-6.16,-6.21,6.77,6.77,6.76
211.44,13.23,6.49,13.23,6.49,-6.49,-6.15,-6.26,6.74,6.74,6.74
213.56,13.17,6.45,13.17,6.45,-6.47,-6.14,-6.31,6.71,6.71,6.72
215.69,13.12,6.42,13.12,6.42,-6.44,-6.13,-6.36,6.69,6.68,6.70
217.85,13.07,6.39,13.08,6.40,-6.40,-6.12,-6.41,6.67,6.68,6.68
220.03,13.04,6.38,13.04,6.38,-6.37,-6.11,-6.45,6.67,6.67,6.66
222.23,13.00,6.36,12.99,6.35,-6.34,-6.10,-6.50,6.67,6.65,6.64
224.45,12.93,6.32,12.93,6.31,-6.30,-6.08,-6.54,6.63,6.63,6.62
226.70,12.85,6.25,12.86,6.26,-6.26,-6.07,-6.57,6.59,6.60,6.60
228.96,12.79,6.20,12.80,6.21,-6.22,-6.06,-6.61,6.57,6.58,6.59
231.25,12.75,6.18,12.74,6.16,-6.17,-6.05,-6.63,6.58,6.57,6.57
233.57,12.69,6.13,12.69,6.13,-6.12,-6.03,-6.65,6.57,6.56,6.56
235.90,12.62,6.08,12.63,6.08,-6.07,-6.02,-6.67,6.55,6.55,6.55
238.26,12.57,6.03,12.57,6.02,-6.02,-6.00,-6.68,6.55,6.54,6.54
240.64,12.50,5.95,12.51,5.97,-5.97,-5.99,-6.68,6.53,6.54,6.55
243.05,12.46,5.92,12.45,5.92,-5.92,-5.97,-6.67,6.54,6.54,6.54
245.48,12.40,5.88,12.39,5.87,-5.86,-5.95,-6.66,6.54,6.53,6.52
247.93,12.32,5.81,12.33,5.81,-5.81,-5.93,-6.63,6.52,6.53,6.51
250.41,12.27,5.74,12.26,5.74,-5.75,-5.91,-6.60,6.52,6.52,6.53
252.92,12.20,5.67,12.21,5.68,-5.69,-5.89,-6.56,6.51,6.52,6.53
255.45,12.15,5.63,12.15,5.62,-5.63,-5.86,-6.51,6.52,6.52,6.52
258.00,12.10,5.58,12.10,5.57,-5.57,-5.84,-6.45,6.53,6.53,6.53
260.58,12.03,5.51,12.04,5.51,-5.51,-5.81,-6.38,6.52,6.53,6.52
263.19,11.98,5.46,11.97,5.45,-5.45,-5.78,-6.31,6.53,6.52,6.52
265.82,11.90,5.38,11.91,5.39,-5.39,-5.75,-6.23,6.51,6.52,6.52
268.48,11.85,5.33,11.85,5.33,-5.33,-5.71,-6.14,6.52,6.52,6.52
271.16,11.80,5.28,11.79,5.27,-5.27,-5.68,-6.04,6.53,6.51,6.52
273.87,11.71,5.19,11.72,5.21,-5.21,-5.64,-5.94,6.50,6.51,6.52
276.61,11.66,5.15,11.66,5.15,-5.15,-5.60,-5.83,6.51,6.51,6.52
279.38,11.60,5.10,11.60,5.09,-5.09,-5.56,-5.71,6.52,6.52,6.50
282.17,11.55,5.03,11.55,5.03,-5.02,-5.51,-5.60,6.53,6.52,6.52
284.99,11.48,4.96,11.48,4.96,-4.95,-5.46,-5.48,6.53,6.52,6.52
287.84,11.40,4.87,11.41,4.88,-4.89,-5.41,-5.35,6.51,6.52,6.53
290.72,11.33,4.82,11.34,4.81,-4.82,-5.36,-5.23,6.51,6.52,6.51
293.63,11.27,4.75,11.27,4.75,-4.75,-5.30,-5.10,6.52,6.52,6.52
296.57,11.21,4.68,11.21,4.68,-4.68,-5.24,-4.97,6.53,6.52,6.54
299.53,11.14,4.61,11.14,4.61,-4.61,-5.18,-4.84,6.53,6.53,6.53
302.53,11.08,4.54,11.08,4.55,-4.55,-5.11,-4.71,6.53,6.54,6.54
305.55,11.03,4.49,11.03,4.48,-4.48,-5.04,-4.58,6.55,6.54,6.54
308.61,10.97,4.42,10.97,4.42,-4.42,-4.97,-4.45,6.55,6.55,6.55
311.69,10.91,4.35,10.92,4.36,-4.35,-4.90,-4.32,6.56,6.56,6.56
314.81,10.86,4.30,10.86,4.29,-4.29,-4.82,-4.19,6.57,6.56,6.56
317.96,10.80,4.23,10.80,4.23,-4.23,-4.74,-4.07,6.57,6.57,6.57
321.14,10.74,4.16,10.75,4.17,-4.17,-4.66,-3.94,6.57,6.57,6.58
324.35,10.69,4.11,10.69,4.11,-4.11,-4.57,-3.82,6.58,6.58,6.58
327.59,10.65,4.05,10.65,4.05,-4.05,-4.48,-3.70,6.60,6.59,6.60
330.87,10.60,4.00,10.60,4.00,-3.99,-4.39,-3.58,6.61,6.60,6.60
334.18,10.54,3.94,10.54,3.93,-3.93,-4.30,-3.46,6.61,6.61,6.60
337.52,10.48,3.86,10.48,3.87,-3.87,-4.21,-3.34,6.61,6.61,6.62
340.90,10.43,3.81,10.43,3.81,-3.81,-4.11,-3.23,6.63,6.62,6.62
344.30,10.37,3.74,10.37,3.74,-3.74,-4.01,-3.12,6.63,6.63,6.63
347.75,10.32,3.68,10.32,3.68,-3.68,-3.91,-3.01,6.64,6.64,6.64
351.23,10.26,3.61,10.26,3.61,-3.61,-3.81,-2.90,6.65,6.65,6.65
354.74,10.20,3.53,10.20,3.54,-3.54,-3.71,-2.80,6.66,6.65,6.67
358.28,10.13,3.47,10.14,3.47,-3.48,-3.61,-2.69,6.65,6.66,6.66
361.87,10.08,3.42,10.08,3.41,-3.41,-3.50,-2.59,6.67,6.67,6.66
365.49,10.02,3.34,10.02,3.34,-3.34,-3.40,-2.49,6.68,6.68,6.68
369.14,9.96,3.27,9.96,3.27,-3.27,-3.29,-2.40,6.70,6.69,6.69
372.83,9.89,3.19,9.89,3.19,-3.19,-3.18,-2.30,6.70,6.69,6.70
376.56,9.80,3.10,9.81,3.11,-3.12,-3.08,-2.21,6.69,6.70,6.70
380.33,9.74,3.04,9.74,3.04,-3.04,-2.97,-2.12,6.70,6.70,6.70
384.13,9.67,2.96,9.67,2.96,-2.95,-2.86,-2.03,6.72,6.72,6.71
387.97,9.60,2.88,9.60,2.87,-2.87,-2.76,-1.94,6.73,6.73,6.72
391.85,9.52,2.78,9.52,2.79,-2.78,-2.65,-1.86,6.74,6.73,6.74
395.77,9.43,2.69,9.44,2.70,-2.70,-2.54,-1.78,6.73,6.74,6.74
399.73,9.36,2.61,9.36,2.60,-2.61,-2.44,-1.69,6.75,6.75,6.75
403.72,9.28,2.51,9.28,2.51,-2.51,-2.34,-1.61,6.77,6.76,6.77
407.76,9.19,2.41,9.20,2.42,-2.42,-2.23,-1.53,6.77,6.78,6.78
411.84,9.11,2.33,9.11,2.32,-2.32,-2.13,-1.46,6.79,6.79,6.79
415.96,9.02,2.23,9.01,2.22,-2.22,-2.03,-1.38,6.80,6.79,6.79
420.12,8.91,2.12,8.92,2.12,-2.12,-1.93,-1.31,6.79,6.80,6.79
424.32,8.82,2.02,8.83,2.02,-2.03,-1.84,-1.23,6.79,6.80,6.80
428.56,8.75,1.93,8.74,1.92,-1.93,-1.74,-1.16,6.82,6.81,6.82
432.85,8.66,1.82,8.66,1.83,-1.83,-1.65,-1.09,6.83,6.83,6.84
437.18,8.56,1.73,8.57,1.73,-1.73,-1.56,-1.02,6.83,6.84,6.83
441.55,8.48,1.64,8.47,1.63,-1.63,-1.47,-0.94,6.85,6.84,6.84
445.96,8.38,1.53,8.38,1.54,-1.53,-1.38,-0.87,6.85,6.85,6.85
450.42,8.29,1.43,8.29,1.43,-1.43,-1.30,-0.81,6.86,6.86,6.86
454.93,8.20,1.33,8.20,1.33,-1.33,-1.21,-0.74,6.87,6.87,6.87
459.48,8.10,1.22,8.11,1.23,-1.23,-1.13,-0.67,6.87,6.88,6.88
464.07,8.02,1.13,8.01,1.12,-1.12,-1.05,-0.60,6.90,6.89,6.90
