frequency,raw,error,smoothed,error_smoothed,equalization,parametric_eq,fixed_band_eq,equalized_raw,equalized_smoothed,target
20.00,0.87,-4.46,0.86,-4.46,4.46,4.03,0.75,5.33,5.32,5.33
20.20,0.91,-4.40,0.91,-4.40,4.39,3.99,0.77,5.30,5.30,5.31
20.40,0.96,-4.32,0.96,-4.32,4.32,3.95,0.80,5.28,5.28,5.28
20.61,1.00,-4.25,1.00,-4.25,4.25,3.91,0.82,5.26,5.26,5.26
20.81,1.06,-4.18,1.06,-4.18,4.18,3.86,0.85,5.24,5.24,5.24
21.02,1.11,-4.10,1.11,-4.10,4.11,3.80,0.88,5.21,5.22,5.21
21.23,1.16,-4.03,1.16,-4.03,4.04,3.75,0.91,5.19,5.19,5.19
21.44,1.21,-3.96,1.20,-3.96,3.96,3.69,0.94,5.17,5.17,5.17
21.66,1.25,-3.89,1.26,-3.89,3.89,3.63,0.97,5.14,5.14,5.15
21.87,1.31,-3.82,1.31,-3.82,3.81,3.56,1.00,5.12,5.12,5.12
22.09,1.37,-3.74,1.36,-3.74,3.73,3.49,1.03,5.10,5.10,5.10
22.31,1.43,-3.66,1.42,-3.66,3.66,3.42,1.07,5.08,5.08,5.08
22.54,1.47,-3.58,1.48,-3.58,3.57,3.35,1.10,5.05,5.06,5.05
22.76,1.55,-3.49,1.54,-3.49,3.49,3.28,1.13,5.04,5.03,5.03
22.99,1.61,-3.41,1.60,-3.41,3.41,3.20,1.17,5.02,5.02,5.01
23.22,1.67,-3.33,1.67,-3.33,3.33,3.13,1.21,5.00,5.00,4.99
23.45,1.74,-3.25,1.73,-3.25,3.25,3.05,1.25,4.99,4.98,4.98
23.69,1.79,-3.17,1.79,-3.17,3.17,2.97,1.28,4.97,4.97,4.96
23.92,1.86,-3.10,1.86,-3.09,3.09,2.89,1.32,4.95,4.95,4.95
24.16,1.92,-3.02,1.92,-3.02,3.02,2.82,1.36,4.93,4.93,4.93
24.40,1.98,-2.94,1.98,-2.94,2.94,2.74,1.40,4.92,4.92,4.92
24.65,2.03,-2.88,2.03,-2.87,2.87,2.66,1.44,4.90,4.90,4.91
24.89,2.10,-2.79,2.10,-2.80,2.80,2.58,1.48,4.89,4.89,4.89
25.14,2.16,-2.72,2.16,-2.72,2.72,2.51,1.52,4.88,4.88,4.88
25.39,2.23,-2.64,2.22,-2.65,2.65,2.43,1.57,4.87,4.87,4.87
25.65,2.29,-2.57,2.29,-2.57,2.57,2.35,1.61,4.85,4.86,4.86
25.91,2.35,-2.49,2.35,-2.49,2.49,2.28,1.65,4.85,4.84,4.85
26.16,2.42,-2.42,2.42,-2.42,2.41,2.20,1.69,4.83,4.83,4.84
26.43,2.48,-2.33,2.48,-2.34,2.34,2.13,1.73,4.82,4.82,4.82
26.69,2.55,-2.26,2.55,-2.26,2.26,2.06,1.76,4.81,4.81,4.81
26.96,2.61,-2.18,2.61,-2.18,2.19,1.99,1.80,4.80,4.80,4.80
27.23,2.67,-2.11,2.67,-2.11,2.11,1.92,1.84,4.79,4.79,4.79
27.50,2.74,-2.04,2.74,-2.04,2.04,1.85,1.87,4.77,4.78,4.77
27.77,2.80,-1.98,2.80,-1.97,1.97,1.78,1.90,4.76,4.77,4.77
28.05,2.87,-1.90,2.86,-1.90,1.90,1.71,1.93,4.76,4.76,4.76
28.33,2.93,-1.83,2.93,-1.83,1.83,1.64,1.96,4.76,4.76,4.75
28.62,2.99,-1.76,2.99,-1.76,1.76,1.58,1.99,4.76,4.75,4.75
28.90,3.05,-1.69,3.05,-1.69,1.69,1.51,2.01,4.74,4.74,4.74
29.19,3.11,-1.63,3.11,-1.63,1.62,1.45,2.03,4.73,4.74,4.74
29.48,3.18,-1.55,3.17,-1.56,1.56,1.39,2.04,4.73,4.73,4.73
29.78,3.23,-1.49,3.23,-1.49,1.49,1.33,2.05,4.72,4.72,4.73
30.08,3.29,-1.42,3.30,-1.42,1.42,1.27,2.06,4.72,4.72,4.72
30.38,3.35,-1.36,3.36,-1.36,1.36,1.21,2.06,4.71,4.71,4.72
30.68,3.42,-1.29,3.42,-1.29,1.29,1.15,2.06,4.71,4.71,4.70
30.99,3.47,-1.22,3.47,-1.23,1.23,1.09,2.05,4.70,4.70,4.69
31.30,3.52,-1.17,3.53,-1.16,1.17,1.04,2.04,4.69,4.69,4.69
31.61,3.58,-1.11,3.57,-1.11,1.11,0.98,2.03,4.68,4.68,4.68
31.93,3.62,-1.04,3.62,-1.05,1.05,0.93,2.01,4.67,4.67,4.67
32.24,3.67,-1.00,3.67,-0.99,0.99,0.88,1.98,4.66,4.66,4.67
32.57,3.72,-0.93,3.72,-0.94,0.93,0.82,1.96,4.66,4.65,4.66
32.89,3.77,-0.88,3.77,-0.88,0.87,0.77,1.92,4.64,4.64,4.64
33.22,3.83,-0.81,3.82,-0.81,0.81,0.72,1.89,4.64,4.63,4.63
33.55,3.87,-0.76,3.87,-0.75,0.75,0.67,1.85,4.62,4.62,4.62
33.89,3.92,-0.69,3.92,-0.69,0.70,0.62,1.80,4.61,4.61,4.61
34.23,3.97,-0.63,3.97,-0.64,0.64,0.58,1.75,4.60,4.60,4.60
34.57,4.02,-0.58,4.01,-0.58,0.58,0.53,1.70,4.59,4.59,4.60
34.92,4.06,-0.52,4.06,-0.52,0.52,0.48,1.65,4.59,4.59,4.58
35.27,4.10,-0.47,4.11,-0.47,0.47,0.43,1.59,4.57,4.58,4.57
35.62,4.16,-0.42,4.15,-0.41,0.42,0.39,1.53,4.57,4.57,4.57
35.97,4.20,-0.36,4.20,-0.36,0.36,0.34,1.47,4.56,4.56,4.56
36.33,4.25,-0.31,4.24,-0.31,0.31,0.30,1.41,4.56,4.55,4.56
36.70,4.28,-0.27,4.28,-0.26,0.26,0.26,1.34,4.54,4.54,4.54
37.06,4.33,-0.21,4.32,-0.21,0.21,0.21,1.28,4.54,4.53,4.53
37.43,4.37,-0.16,4.36,-0.16,0.16,0.17,1.21,4.53,4.53,4.53
37.81,4.40,-0.12,4.40,-0.12,0.12,0.13,1.14,4.51,4.52,4.52
38.19,4.45,-0.07,4.44,-0.07,0.07,0.08,1.07,4.52,4.51,4.51
38.57,4.48,-0.03,4.48,-0.03,0.03,0.04,1.00,4.50,4.50,4.50
38.95,4.52,0.02,4.51,0.02,-0.02,0.00,0.93,4.50,4.50,4.50
39.34,4.55,0.06,4.55,0.06,-0.06,-0.04,0.85,4.49,4.49,4.49
39.74,4.59,0.10,4.58,0.10,-0.10,-0.08,0.78,4.48,4.48,4.48
40.14,4.61,0.15,4.62,0.14,-0.15,-0.12,0.71,4.47,4.47,4.47
40.54,4.65,0.18,4.65,0.18,-0.19,-0.16,0.64,4.46,4.46,4.47
40.94,4.69,0.23,4.68,0.23,-0.23,-0.20,0.56,4.46,4.45,4.45
41.35,4.72,0.27,4.72,0.27,-0.27,-0.24,0.49,4.44,4.45,4.45
41.76,4.76,0.32,4.75,0.32,-0.31,-0.28,0.41,4.44,4.44,4.44
42.18,4.79,0.35,4.79,0.36,-0.36,-0.32,0.34,4.43,4.43,4.43
42.60,4.82,0.40,4.82,0.40,-0.40,-0.36,0.27,4.42,4.42,4.42
43.03,4.85,0.43,4.85,0.44,-0.44,-0.40,0.19,4.41,4.41,4.41
43.46,4.88,0.48,4.88,0.48,-0.48,-0.44,0.12,4.40,4.40,4.40
43.90,4.91,0.52,4.91,0.52,-0.52,-0.47,0.05,4.40,4.40,4.39
44.33,4.95,0.56,4.94,0.56,-0.55,-0.51,-0.03,4.39,4.39,4.39
44.78,4.97,0.59,4.97,0.59,-0.59,-0.55,-0.10,4.37,4.38,4.37
45.23,5.00,0.63,5.00,0.63,-0.63,-0.59,-0.18,4.37,4.37,4.37
45.68,5.03,0.66,5.02,0.66,-0.66,-0.63,-0.25,4.36,4.36,4.36
46.13,5.06,0.70,5.06,0.70,-0.70,-0.67,-0.32,4.36,4.36,4.36
46.60,5.09,0.73,5.09,0.73,-0.73,-0.70,-0.40,4.35,4.35,4.35
47.06,5.12,0.77,5.11,0.77,-0.77,-0.74,-0.47,4.35,4.35,4.35
47.53,5.15,0.80,5.14,0.80,-0.80,-0.78,-0.54,4.35,4.34,4.34
48.01,5.17,0.83,5.17,0.84,-0.83,-0.82,-0.62,4.33,4.34,4.33
48.49,5.20,0.87,5.20,0.87,-0.87,-0.86,-0.69,4.33,4.33,4.33
48.97,5.23,0.90,5.22,0.90,-0.90,-0.90,-0.76,4.32,4.32,4.32
49.46,5.25,0.93,5.25,0.93,-0.94,-0.94,-0.84,4.31,4.31,4.31
49.96,5.28,0.97,5.28,0.97,-0.97,-0.97,-0.91,4.30,4.31,4.31
50.46,5.31,1.01,5.31,1.01,-1.01,-1.01,-0.98,4.30,4.30,4.30
50.96,5.34,1.04,5.33,1.04,-1.04,-1.05,-1.05,4.29,4.29,4.29
51.47,5.37,1.08,5.36,1.08,-1.08,-1.09,-1.13,4.29,4.28,4.28
51.99,5.39,1.11,5.39,1.11,-1.11,-1.13,-1.20,4.27,4.27,4.27
52.51,5.42,1.15,5.42,1.15,-1.15,-1.17,-1.27,4.26,4.26,4.27
53.03,5.45,1.19,5.45,1.19,-1.19,-1.21,-1.34,4.26,4.26,4.26
53.56,5.48,1.23,5.47,1.23,-1.23,-1.25,-1.41,4.25,4.25,4.25
54.10,5.51,1.27,5.50,1.26,-1.27,-1.29,-1.47,4.24,4.24,4.24
54.64,5.53,1.30,5.53,1.30,-1.31,-1.33,-1.54,4.22,4.23,4.23
55.18,5.57,1.35,5.56,1.35,-1.35,-1.37,-1.61,4.22,4.22,4.22
55.74,5.60,1.39,5.59,1.39,-1.39,-1.41,-1.67,4.21,4.21,4.21
56.29,5.63,1.43,5.63,1.43,-1.43,-1.45,-1.73,4.20,4.20,4.19
56.86,5.66,1.47,5.66,1.47,-1.47,-1.49,-1.79,4.19,4.19,4.18
57.42,5.69,1.51,5.69,1.51,-1.51,-1.53,-1.85,4.18,4.18,4.17
58.00,5.72,1.55,5.72,1.55,-1.55,-1.57,-1.91,4.17,4.17,4.17
58.58,5.75,1.59,5.74,1.59,-1.59,-1.61,-1.97,4.16,4.15,4.16
59.16,5.78,1.63,5.77,1.63,-1.63,-1.66,-2.02,4.15,4.14,4.14
59.76,5.80,1.67,5.80,1.67,-1.67,-1.70,-2.07,4.13,4.13,4.13
60.35,5.84,1.71,5.83,1.71,-1.71,-1.74,-2.12,4.13,4.12,4.13
60.96,5.86,1.74,5.86,1.75,-1.75,-1.78,-2.16,4.11,4.11,4.11
61.57,5.89,1.79,5.89,1.79,-1.79,-1.83,-2.21,4.10,4.10,4.10
62.18,5.92,1.84,5.91,1.83,-1.83,-1.87,-2.25,4.08,4.08,4.08
62.80,5.95,1.88,5.94,1.87,-1.87,-1.91,-2.28,4.07,4.07,4.06
63.43,5.97,1.91,5.97,1.92,-1.91,-1.96,-2.32,4.05,4.06,4.06
64.07,6.00,1.95,6.00,1.95,-1.96,-2.00,-2.35,4.04,4.04,4.04
64.71,6.03,2.00,6.02,2.00,-2.00,-2.04,-2.38,4.02,4.02,4.02
65.35,6.05,2.04,6.05,2.04,-2.05,-2.09,-2.41,4.00,4.00,4.01
66.01,6.08,2.09,6.08,2.09,-2.09,-2.13,-2.44,3.99,3.99,3.99
66.67,6.11,2.14,6.10,2.14,-2.13,-2.18,-2.47,3.97,3.97,3.97
67.33,6.14,2.19,6.13,2.18,-2.18,-2.22,-2.49,3.96,3.95,3.95
68.01,6.15,2.22,6.15,2.22,-2.22,-2.27,-2.51,3.92,3.93,3.93
68.69,6.18,2.27,6.17,2.27,-2.27,-2.31,-2.53,3.91,3.91,3.91
69.37,6.20,2.31,6.19,2.31,-2.31,-2.36,-2.55,3.89,3.88,3.89
70.07,6.22,2.35,6.22,2.35,-2.35,-2.41,-2.57,3.86,3.87,3.86
70.77,6.24,2.39,6.24,2.40,-2.40,-2.45,-2.59,3.84,3.84,3.84
71.48,6.27,2.45,6.26,2.44,-2.44,-2.50,-2.61,3.83,3.82,3.82
72.19,6.28,2.48,6.28,2.48,-2.48,-2.55,-2.62,3.79,3.80,3.80
72.91,6.30,2.52,6.30,2.53,-2.53,-2.60,-2.64,3.77,3.77,3.77
73.64,6.32,2.58,6.31,2.57,-2.57,-2.64,-2.66,3.74,3.74,3.74
74.38,6.33,2.61,6.33,2.62,-2.62,-2.69,-2.68,3.71,3.71,3.71
75.12,6.36,2.67,6.35,2.67,-2.67,-2.74,-2.70,3.69,3.68,3.68
75.87,6.37,2.72,6.37,2.71,-2.72,-2.79,-2.72,3.65,3.65,3.65
76.63,6.39,2.76,6.38,2.76,-2.77,-2.83,-2.74,3.62,3.62,3.62
77.40,6.40,2.81,6.40,2.82,-2.82,-2.88,-2.76,3.58,3.58,3.58
78.17,6.42,2.87,6.42,2.87,-2.87,-2.93,-2.79,3.54,3.55,3.55
78.95,6.44,2.93,6.43,2.92,-2.93,-2.98,-2.81,3.51,3.50,3.51
79.74,6.45,2.98,6.45,2.98,-2.98,-3.03,-2.84,3.47,3.47,3.47
80.54,6.46,3.03,6.46,3.04,-3.04,-3.08,-2.87,3.42,3.43,3.43
81.35,6.49,3.10,6.48,3.09,-3.09,-3.12,-2.90,3.39,3.39,3.39
82.16,6.50,3.15,6.50,3.15,-3.15,-3.17,-2.94,3.35,3.35,3.34
82.98,6.51,3.20,6.51,3.20,-3.20,-3.22,-2.97,3.30,3.30,3.30
83.81,6.52,3.26,6.51,3.26,-3.26,-3.27,-3.01,3.26,3.25,3.26
84.65,6.52,3.31,6.52,3.31,-3.31,-3.32,-3.05,3.20,3.21,3.21
85.50,6.54,3.37,6.53,3.36,-3.36,-3.37,-3.10,3.17,3.17,3.16
86.35,6.55,3.42,6.54,3.42,-3.41,-3.41,-3.14,3.13,3.13,3.13
87.22,6.55,3.46,6.55,3.46,-3.46,-3.46,-3.19,3.08,3.09,3.09
88.09,6.56,3.51,6.55,3.51,-3.51,-3.51,-3.24,3.04,3.04,3.04
88.97,6.56,3.56,6.56,3.56,-3.56,-3.56,-3.29,3.00,3.00,3.00
89.86,6.56,3.61,6.56,3.61,-3.61,-3.60,-3.35,2.95,2.95,2.95
90.76,6.57,3.65,6.56,3.65,-3.65,-3.65,-3.41,2.91,2.91,2.91
91.66,6.57,3.70,6.56,3.69,-3.69,-3.69,-3.47,2.87,2.87,2.87
92.58,6.57,3.74,6.56,3.74,-3.74,-3.74,-3.53,2.83,2.83,2.83
93.51,6.56,3.77,6.56,3.78,-3.78,-3.78,-3.60,2.78,2.79,2.78
94.44,6.57,3.82,6.56,3.82,-3.82,-3.83,-3.67,2.75,2.74,2.75
95.39,6.57,3.87,6.56,3.86,-3.86,-3.87,-3.74,2.71,2.70,2.70
96.34,6.56,3.90,6.56,3.90,-3.90,-3.91,-3.81,2.66,2.66,2.66
97.30,6.55,3.93,6.55,3.94,-3.94,-3.96,-3.89,2.61,2.61,2.61
98.28,6.55,3.97,6.54,3.97,-3.98,-4.00,-3.96,2.57,2.56,2.57
99.26,6.54,4.01,6.54,4.02,-4.02,-4.04,-4.04,2.52,2.52,2.52
100.25,6.54,4.06,6.53,4.06,-4.06,-4.08,-4.12,2.48,2.48,2.47
101.25,6.53,4.10,6.52,4.10,-4.10,-4.11,-4.20,2.43,2.43,2.42
102.27,6.52,4.14,6.51,4.14,-4.13,-4.15,-4.28,2.38,2.38,2.38
103.29,6.50,4.17,6.50,4.17,-4.17,-4.19,-4.36,2.32,2.33,2.33
104.32,6.49,4.21,6.48,4.21,-4.21,-4.22,-4.44,2.28,2.28,2.28
105.37,6.48,4.25,6.47,4.24,-4.24,-4.25,-4.53,2.23,2.23,2.23
106.42,6.45,4.27,6.45,4.27,-4.27,-4.28,-4.61,2.17,2.18,2.18
107.48,6.44,4.31,6.43,4.30,-4.31,-4.31,-4.68,2.13,2.13,2.13
108.56,6.42,4.34,6.41,4.33,-4.34,-4.34,-4.76,2.08,2.08,2.08
109.64,6.40,4.37,6.40,4.37,-4.37,-4.37,-4.83,2.03,2.03,2.03
110.74,6.38,4.39,6.38,4.40,-4.39,-4.39,-4.91,1.98,1.98,1.98
111.85,6.36,4.42,6.35,4.42,-4.42,-4.42,-4.97,1.93,1.93,1.93
112.97,6.34,4.45,6.33,4.45,-4.45,-4.44,-5.04,1.88,1.88,1.88
114.10,6.31,4.47,6.31,4.47,-4.48,-4.46,-5.09,1.83,1.83,1.84
115.24,6.29,4.50,6.29,4.50,-4.50,-4.47,-5.15,1.79,1.79,1.79
116.39,6.27,4.53,6.26,4.52,-4.52,-4.49,-5.19,1.74,1.74,1.74
117.55,6.24,4.54,6.24,4.55,-4.54,-4.50,-5.23,1.70,1.70,1.69
118.73,6.21,4.56,6.21,4.56,-4.56,-4.51,-5.26,1.65,1.65,1.64
119.92,6.18,4.57,6.17,4.57,-4.57,-4.52,-5.28,1.61,1.60,1.61
121.12,6.14,4.58,6.14,4.58,-4.58,-4.52,-5.30,1.56,1.56,1.56
122.33,6.11,4.58,6.11,4.58,-4.59,-4.52,-5.30,1.52,1.52,1.52
123.55,6.08,4.60,6.07,4.59,-4.59,-4.52,-5.30,1.48,1.48,1.48
124.79,6.04,4.59,6.04,4.60,-4.60,-4.52,-5.29,1.44,1.44,1.44
126.03,6.00,4.60,6.00,4.60,-4.60,-4.52,-5.27,1.40,1.40,1.40
127.29,5.96,4.59,5.96,4.59,-4.60,-4.51,-5.23,1.36,1.36,1.36
128.57,5.92,4.59,5.92,4.59,-4.59,-4.50,-5.19,1.32,1.32,1.33
129.85,5.88,4.59,5.87,4.58,-4.58,-4.48,-5.14,1.29,1.29,1.29
131.15,5.83,4.57,5.83,4.57,-4.57,-4.47,-5.08,1.26,1.26,1.25
132.46,5.78,4.56,5.77,4.56,-4.55,-4.45,-5.01,1.22,1.22,1.22
133.79,5.72,4.53,5.72,4.53,-4.53,-4.43,-4.94,1.19,1.19,1.19
135.12,5.66,4.50,5.65,4.50,-4.50,-4.40,-4.86,1.16,1.16,1.16
136.48,5.59,4.46,5.59,4.46,-4.46,-4.37,-4.77,1.13,1.13,1.13
137.84,5.52,4.41,5.52,4.42,-4.42,-4.34,-4.67,1.10,1.10,1.11
139.22,5.45,4.37,5.44,4.37,-4.37,-4.31,-4.57,1.08,1.08,1.08
140.61,5.37,4.32,5.37,4.31,-4.31,-4.27,-4.46,1.05,1.05,1.05
142.02,5.29,4.26,5.28,4.26,-4.26,-4.23,-4.35,1.03,1.03,1.03
143.44,5.20,4.19,5.20,4.19,-4.19,-4.19,-4.23,1.00,1.01,1.01
144.87,5.12,4.13,5.11,4.12,-4.13,-4.15,-4.11,0.99,0.98,0.98
146.32,5.03,4.06,5.02,4.06,-4.06,-4.10,-3.99,0.97,0.97,0.97
147.78,4.93,3.98,4.93,3.99,-3.98,-4.05,-3.87,0.94,0.95,0.95
149.26,4.85,3.92,4.84,3.91,-3.91,-3.99,-3.74,0.94,0.93,0.92
150.75,4.74,3.83,4.74,3.83,-3.83,-3.93,-3.61,0.90,0.91,0.91
152.26,4.65,3.75,4.65,3.75,-3.75,-3.87,-3.48,0.89,0.90,0.89
153.78,4.56,3.67,4.55,3.67,-3.67,-3.81,-3.35,0.88,0.88,0.88
155.32,4.47,3.60,4.46,3.59,-3.59,-3.75,-3.22,0.87,0.87,0.87
156.88,4.37,3.51,4.37,3.51,-3.52,-3.68,-3.10,0.85,0.85,0.85
158.44,4.28,3.43,4.28,3.43,-3.44,-3.61,-2.97,0.83,0.84,0.84
160.03,4.20,3.36,4.19,3.36,-3.37,-3.54,-2.84,0.83,0.83,0.83
161.63,4.12,3.29,4.12,3.30,-3.30,-3.46,-2.71,0.82,0.82,0.82
163.24,4.05,3.23,4.04,3.23,-3.23,-3.38,-2.58,0.81,0.81,0.81
164.88,3.97,3.17,3.97,3.17,-3.17,-3.30,-2.45,0.80,0.80,0.80
166.53,3.90,3.10,3.90,3.10,-3.10,-3.22,-2.33,0.79,0.79,0.79
168.19,3.83,3.04,3.82,3.04,-3.04,-3.14,-2.20,0.78,0.78,0.78
169.87,3.75,2.97,3.75,2.98,-2.98,-3.05,-2.08,0.77,0.77,0.77
171.57,3.68,2.92,3.68,2.92,-2.92,-2.96,-1.96,0.76,0.76,0.76
173.29,3.61,2.86,3.60,2.85,-2.85,-2.87,-1.83,0.75,0.75,0.75
175.02,3.53,2.78,3.53,2.79,-2.78,-2.78,-1.71,0.74,0.74,0.74
176.77,3.45,2.72,3.45,2.72,-2.72,-2.68,-1.59,0.73,0.73,0.73
178.54,3.37,2.64,3.36,2.65,-2.64,-2.59,-1.48,0.72,0.72,0.72
180.32,3.28,2.57,3.27,2.57,-2.57,-2.49,-1.36,0.71,0.71,0.71
182.13,3.19,2.49,3.18,2.49,-2.49,-2.39,-1.24,0.70,0.69,0.69
183.95,3.08,2.40,3.08,2.41,-2.41,-2.29,-1.13,0.67,0.68,0.68
185.79,2.99,2.32,2.98,2.32,-2.32,-2.18,-1.02,0.67,0.67,0.66
187.65,2.89,2.24,2.88,2.23,-2.23,-2.08,-0.90,0.66,0.65,0.65
189.52,2.77,2.13,2.77,2.13,-2.13,-1.97,-0.79,0.63,0.64,0.64
191.42,2.66,2.03,2.65,2.03,-2.03,-1.87,-0.68,0.63,0.62,0.62
193.33,2.54,1.92,2.54,1.92,-1.93,-1.76,-0.58,0.61,0.61,0.61
195.27,2.42,1.81,2.41,1.81,-1.82,-1.65,-0.47,0.60,0.60,0.60
197.22,2.29,1.71,2.29,1.71,-1.70,-1.54,-0.36,0.58,0.58,0.58
199.19,2.16,1.59,2.16,1.59,-1.59,-1.42,-0.26,0.57,0.57,0.57
201.18,2.03,1.48,2.02,1.47,-1.47,-1.31,-0.16,0.56,0.55,0.55
203.19,1.88,1.34,1.88,1.34,-1.34,-1.20,-0.05,0.53,0.54,0.54
205.23,1.74,1.22,1.74,1.22,-1.22,-1.08,0.05,0.52,0.52,0.52
207.28,1.60,1.09,1.59,1.09,-1.09,-0.97,0.14,0.50,0.50,0.51
209.35,1.45,0.96,1.45,0.96,-0.96,-0.85,0.24,0.49,0.49,0.49
211.44,1.31,0.83,1.30,0.83,-0.83,-0.73,0.34,0.48,0.48,0.47
213.56,1.16,0.69,1.15,0.69,-0.69,-0.62,0.43,0.47,0.46,0.46
215.69,1.00,0.55,1.00,0.55,-0.55,-0.50,0.52,0.44,0.45,0.44
217.85,0.84,0.40,0.84,0.41,-0.41,-0.38,0.61,0.42,0.43,0.44
220.03,0.69,0.27,0.69,0.26,-0.27,-0.26,0.69,0.42,0.42,0.42
222.23,0.54,0.12,0.53,0.12,-0.12,-0.14,0.78,0.41,0.41,0.41
224.45,0.38,-0.03,0.38,-0.03,0.02,-0.02,0.86,0.40,0.40,0.40
226.70,0.22,-0.18,0.22,-0.18,0.18,0.10,0.93,0.39,0.40,0.40
228.96,0.07,-0.32,0.06,-0.33,0.34,0.22,1.01,0.41,0.40,0.39
231.25,-0.10,-0.49,-0.10,-0.49,0.51,0.33,1.08,0.40,0.41,0.38
233.57,-0.27,-0.66,-0.28,-0.66,0.69,0.45,1.14,0.41,0.41,0.39
235.90,-0.45,-0.84,-0.46,-0.84,0.87,0.57,1.21,0.42,0.42,0.38
238.26,-0.63,-1.02,-0.64,-1.02,1.05,0.69,1.26,0.42,0.42,0.39
240.64,-0.81,-1.20,-0.82,-1.21,1.23,0.80,1.32,0.41,0.41,0.39
243.05,-0.98,-1.37,-0.99,-1.37,1.37,0.92,1.37,0.39,0.39,0.38
245.48,-1.13,-1.52,-1.13,-1.52,1.49,1.03,1.42,0.35,0.36,0.39
247.93,-1.21,-1.61,-1.22,-1.61,1.55,1.14,1.46,0.34,0.33,0.39
250.41,-1.25,-1.65,-1.24,-1.64,1.56,1.26,1.50,0.30,0.32,0.40
252.92,-1.19,-1.59,-1.20,-1.60,1.51,1.37,1.53,0.31,0.31,0.40
255.45,-1.08,-1.49,-1.08,-1.48,1.41,1.47,1.56,0.32,0.33,0.40
258.00,-0.91,-1.32,-0.91,-1.31,1.26,1.58,1.59,0.35,0.36,0.41
260.58,-0.69,-1.10,-0.70,-1.11,1.09,1.68,1.61,0.40,0.39,0.40
263.19,-0.50,-0.90,-0.50,-0.90,0.93,1.79,1.63,0.43,0.43,0.40
265.82,-0.32,-0.73,-0.33,-0.73,0.79,1.88,1.64,0.47,0.47,0.40
268.48,-0.21,-0.62,-0.23,-0.62,0.71,1.98,1.65,0.49,0.48,0.40
271.16,-0.19,-0.59,-0.20,-0.60,0.69,2.07,1.66,0.49,0.49,0.40
273.87,-0.26,-0.66,-0.26,-0.66,0.74,2.17,1.66,0.48,0.48,0.39
276.61,-0.40,-0.81,-0.42,-0.81,0.87,2.25,1.67,0.47,0.46,0.40
279.38,-0.64,-1.04,-0.64,-1.04,1.07,2.34,1.67,0.43,0.43,0.40
282.17,-0.92,-1.32,-0.92,-1.32,1.32,2.42,1.66,0.40,0.40,0.39
284.99,-1.24,-1.64,-1.23,-1.63,1.61,2.49,1.66,0.37,0.37,0.40
287.84,-1.56,-1.95,-1.55,-1.95,1.91,2.57,1.65,0.36,0.36,0.40
290.72,-1.85,-2.26,-1.86,-2.26,2.22,2.64,1.65,0.37,0.36,0.41
293.63,-2.14,-2.55,-2.14,-2.55,2.51,2.70,1.64,0.37,0.37,0.40
296.57,-2.40,-2.82,-2.40,-2.81,2.79,2.76,1.63,0.38,0.38,0.41
299.53,-2.63,-3.04,-2.64,-3.05,3.03,2.82,1.62,0.39,0.39,0.41
302.53,-2.83,-3.25,-2.84,-3.25,3.24,2.87,1.61,0.41,0.41,0.42
305.55,-3.01,-3.44,-3.01,-3.43,3.43,2.92,1.60,0.41,0.42,0.42
308.61,-3.14,-3.58,-3.15,-3.58,3.58,2.96,1.59,0.44,0.43,0.43
311.69,-3.27,-3.72,-3.27,-3.71,3.71,3.00,1.58,0.44,0.44,0.44
314.81,-3.36,-3.81,-3.37,-3.81,3.82,3.03,1.57,0.45,0.45,0.45
317.96,-3.44,-3.90,-3.44,-3.90,3.90,3.06,1.56,0.46,0.46,0.46
321.14,-3.49,-3.96,-3.50,-3.96,3.96,3.09,1.55,0.47,0.47,0.46
324.35,-3.53,-4.01,-3.53,-4.01,4.00,3.11,1.54,0.47,0.47,0.47
327.59,-3.55,-4.04,-3.55,-4.03,4.03,3.12,1.54,0.48,0.48,0.48
330.87,-3.55,-4.03,-3.56,-4.04,4.04,3.13,1.53,0.48,0.48,0.48
334.18,-3.55,-4.04,-3.55,-4.03,4.03,3.14,1.53,0.48,0.49,0.49
337.52,-3.51,-4.00,-3.52,-4.01,4.02,3.14,1.52,0.50,0.49,0.49
340.90,-3.48,-3.98,-3.49,-3.98,3.98,3.14,1.52,0.50,0.50,0.50
344.30,-3.44,-3.94,-3.44,-3.94,3.94,3.13,1.52,0.50,0.50,0.49
347.75,-3.39,-3.89,-3.39,-3.89,3.89,3.12,1.52,0.49,0.49,0.49
351.23,-3.33,-3.83,-3.34,-3.83,3.82,3.11,1.52,0.49,0.49,0.49
354.74,-3.26,-3.75,-3.27,-3.75,3.75,3.09,1.52,0.48,0.48,0.49
358.28,-3.19,-3.67,-3.19,-3.67,3.67,3.07,1.52,0.47,0.48,0.48
361.87,-3.09,-3.57,-3.10,-3.58,3.58,3.05,1.53,0.48,0.48,0.48
365.49,-3.00,-3.48,-3.01,-3.48,3.48,3.02,1.53,0.48,0.48,0.48
369.14,-2.90,-3.38,-2.90,-3.38,3.38,2.98,1.54,0.47,0.48,0.48
372.83,-2.79,-3.27,-2.79,-3.27,3.27,2.95,1.55,0.48,0.48,0.47
376.56,-2.67,-3.16,-2.68,-3.16,3.16,2.91,1.56,0.48,0.48,0.48
380.33,-2.56,-3.05,-2.56,-3.05,3.05,2.87,1.57,0.48,0.48,0.48
384.13,-2.44,-2.93,-2.45,-2.93,2.93,2.82,1.58,0.49,0.49,0.48
387.97,-2.33,-2.83,-2.33,-2.82,2.82,2.77,1.59,0.49,0.49,0.49
391.85,-2.21,-2.70,-2.21,-2.71,2.71,2.72,1.61,0.49,0.50,0.49
395.77,-2.09,-2.59,-2.10,-2.60,2.60,2.67,1.62,0.50,0.50,0.50
399.73,-1.97,-2.48,-1.98,-2.48,2.49,2.61,1.64,0.52,0.51,0.51
403.72,-1.87,-2.38,-1.87,-2.38,2.38,2.55,1.66,0.51,0.51,0.51
407.76,-1.76,-2.28,-1.77,-2.28,2.28,2.49,1.67,0.52,0.52,0.52
411.84,-1.66,-2.19,-1.66,-2.18,2.18,2.42,1.69,0.51,0.52,0.53
415.96,-1.54,-2.08,-1.55,-2.08,2.08,2.35,1.71,0.54,0.53,0.54
420.12,-1.44,-1.98,-1.45,-1.98,1.99,2.28,1.73,0.54,0.54,0.54
424.32,-1.34,-1.89,-1.35,-1.89,1.89,2.20,1.75,0.55,0.55,0.54
428.56,-1.25,-1.81,-1.25,-1.80,1.80,2.12,1.77,0.55,0.55,0.55
432.85,-1.15,-1.72,-1.16,-1.72,1.72,2.03,1.78,0.56,0.56,0.56
437.18,-1.06,-1.64,-1.06,-1.64,1.64,1.95,1.80,0.57,0.57,0.57
441.55,-0.97,-1.56,-0.97,-1.56,1.56,1.86,1.82,0.59,0.59,0.58
445.96,-0.89,-1.49,-0.90,-1.49,1.50,1.77,1.84,0.60,0.60,0.59
450.42,-0.82,-1.43,-0.83,-1.43,1.43,1.67,1.85,0.61,0.61,0.60
454.93,-0.77,-1.39,-0.77,-1.38,1.38,1.58,1.87,0.60,0.61,0.61
459.48,-0.70,-1.33,-0.71,-1.33,1.33,1.48,1.89,0.62,0.62,0.62
464.07,-0.65,-1.29,-0.66,-1.29,1.28,1.39,1.90,0.63,0.63,0.63
468.71,-0.60,-1.24,-0.60,-1.24,1.24,1.30,1.91,0.64,0.64,0.64
473.40,-0.56,-1.21,-0.56,-1.21,1.21,1.21,1.92,0.65,0.65,0.65
478.13,-0.51,-1.17,-0.52,-1.18,1.18,1.14,1.93,0.67,0.66,0.66
482.91,-0.48,-1.16,-0.48,-1.16,1.15,1.07,1.94,0.67,0.67,0.68
487.74,-0.44,-1.13,-0.44,-1.13,1.13,1.01,1.94,0.69,0.69,0.69
492.62,-0.40,-1.11,-0.41,-1.11,1.12,0.97,1.94,0.71,0.71,0.71
497.55,-0.37,-1.09,-0.38,-1.10,1.10,0.94,1.95,0.73,0.73,0.72
502.52,-0.35,-1.09,-0.35,-1.09,1.09,0.92,1.94,0.74,0.74,0.74
507.55,-0.33,-1.09,-0.33,-1.09,1.09,0.91,1.94,0.75,0.75,0.76
512.62,-0.31,-1.09,-0.31,-1.09,1.08,0.92,1.94,0.77,0.77,0.78
517.75,-0.28,-1.07,-0.29,-1.08,1.08,0.93,1.93,0.79,0.79,0.79
522.93,-0.27,-1.08,-0.27,-1.08,1.08,0.95,1.92,0.80,0.81,0.81
528.16,-0.25,-1.08,-0.25,-1.08,1.08,0.98,1.91,0.82,0.82,0.83
533.44,-0.23,-1.07,-0.24,-1.08,1.08,1.01,1.90,0.84,0.84,0.84
538.77,-0.22,-1.08,-0.22,-1.08,1.08,1.04,1.88,0.85,0.85,0.86
544.16,-0.21,-1.08,-0.21,-1.08,1.08,1.07,1.87,0.87,0.87,0.87
549.60,-0.20,-1.08,-0.21,-1.08,1.08,1.10,1.85,0.88,0.88,0.88
