frequency,raw,error,smoothed,error_smoothed,equalization,parametric_eq,fixed_band_eq,equalized_raw,equalized_smoothed,target
20.00,7.00,2.67,7.00,2.67,-2.71,-1.76,-1.10,4.29,4.29,4.33
20.20,7.00,2.67,7.01,2.67,-2.69,-1.76,-1.13,4.31,4.32,4.33
20.40,7.00,2.67,7.01,2.67,-2.67,-1.76,-1.17,4.34,4.34,4.33
20.61,7.00,2.66,7.01,2.67,-2.64,-1.76,-1.20,4.36,4.36,4.34
20.81,7.00,2.66,7.01,2.66,-2.62,-1.76,-1.24,4.38,4.38,4.34
21.02,7.00,2.66,6.99,2.65,-2.60,-1.76,-1.27,4.40,4.39,4.34
21.23,6.95,2.61,6.96,2.61,-2.58,-1.76,-1.31,4.38,4.38,4.34
21.44,6.90,2.55,6.91,2.56,-2.55,-1.76,-1.35,4.35,4.35,4.35
21.66,6.85,2.50,6.85,2.50,-2.52,-1.76,-1.39,4.34,4.33,4.35
21.87,6.80,2.45,6.81,2.45,-2.48,-1.76,-1.43,4.32,4.32,4.35
22.09,6.77,2.42,6.78,2.43,-2.45,-1.76,-1.48,4.32,4.33,4.35
22.31,6.77,2.41,6.77,2.42,-2.43,-1.76,-1.52,4.34,4.34,4.36
22.54,6.77,2.42,6.77,2.42,-2.42,-1.76,-1.57,4.36,4.35,4.35
22.76,6.77,2.41,6.77,2.42,-2.41,-1.75,-1.61,4.37,4.37,4.36
22.99,6.77,2.41,6.77,2.42,-2.41,-1.75,-1.66,4.37,4.37,4.36
23.22,6.77,2.42,6.77,2.42,-2.41,-1.75,-1.71,4.36,4.36,4.36
23.45,6.77,2.42,6.77,2.41,-2.41,-1.75,-1.76,4.36,4.36,4.36
23.69,6.77,2.42,6.77,2.41,-2.41,-1.75,-1.81,4.36,4.36,4.36
23.92,6.77,2.41,6.77,2.41,-2.41,-1.75,-1.86,4.36,4.36,4.37
24.16,6.77,2.42,6.77,2.41,-2.42,-1.75,-1.91,4.36,4.36,4.36
24.40,6.77,2.42,6.77,2.42,-2.42,-1.75,-1.96,4.35,4.35,4.36
24.65,6.77,2.42,6.77,2.42,-2.42,-1.75,-2.02,4.35,4.35,4.35
24.89,6.77,2.43,6.77,2.43,-2.43,-1.75,-2.07,4.35,4.35,4.34
25.14,6.77,2.43,6.77,2.43,-2.43,-1.75,-2.13,4.34,4.34,4.34
25.39,6.77,2.44,6.77,2.44,-2.44,-1.75,-2.18,4.34,4.34,4.33
25.65,6.77,2.44,6.77,2.44,-2.44,-1.75,-2.24,4.33,4.33,4.33
25.91,6.77,2.45,6.77,2.45,-2.45,-1.75,-2.29,4.32,4.32,4.32
26.16,6.77,2.45,6.77,2.46,-2.45,-1.75,-2.34,4.32,4.32,4.32
26.43,6.77,2.46,6.77,2.46,-2.46,-1.75,-2.40,4.31,4.31,4.31
26.69,6.77,2.46,6.77,2.46,-2.46,-1.75,-2.45,4.31,4.31,4.31
26.96,6.77,2.46,6.77,2.47,-2.47,-1.75,-2.50,4.31,4.31,4.31
27.23,6.77,2.47,6.77,2.47,-2.47,-1.75,-2.55,4.30,4.30,4.31
27.50,6.77,2.48,6.77,2.47,-2.48,-1.75,-2.60,4.29,4.29,4.30
27.77,6.77,2.48,6.77,2.47,-2.48,-1.75,-2.65,4.29,4.29,4.30
28.05,6.77,2.47,6.77,2.47,-2.48,-1.75,-2.69,4.29,4.29,4.30
28.33,6.77,2.47,6.78,2.47,-2.47,-1.75,-2.73,4.30,4.31,4.30
28.62,6.77,2.47,6.78,2.47,-2.45,-1.75,-2.77,4.32,4.33,4.30
28.90,6.77,2.47,6.76,2.46,-2.43,-1.74,-2.81,4.35,4.34,4.30
29.19,6.73,2.43,6.72,2.42,-2.40,-1.74,-2.84,4.34,4.33,4.30
29.48,6.66,2.36,6.67,2.37,-2.37,-1.74,-2.87,4.30,4.30,4.30
29.78,6.60,2.31,6.61,2.31,-2.34,-1.74,-2.90,4.27,4.27,4.30
30.08,6.55,2.27,6.57,2.27,-2.31,-1.74,-2.92,4.24,4.26,4.29
30.38,6.55,2.27,6.55,2.26,-2.29,-1.74,-2.93,4.26,4.26,4.29
30.68,6.55,2.27,6.55,2.27,-2.28,-1.74,-2.95,4.28,4.27,4.28
30.99,6.55,2.28,6.55,2.28,-2.27,-1.74,-2.95,4.28,4.28,4.27
31.30,6.55,2.28,6.55,2.28,-2.27,-1.74,-2.96,4.28,4.28,4.27
31.61,6.55,2.29,6.55,2.29,-2.28,-1.74,-2.96,4.27,4.27,4.26
31.93,6.55,2.29,6.55,2.30,-2.30,-1.74,-2.95,4.26,4.26,4.26
32.24,6.55,2.31,6.55,2.31,-2.31,-1.74,-2.94,4.24,4.24,4.25
32.57,6.55,2.32,6.55,2.31,-2.32,-1.74,-2.92,4.23,4.23,4.24
32.89,6.55,2.32,6.55,2.32,-2.33,-1.73,-2.90,4.22,4.22,4.23
33.22,6.55,2.32,6.56,2.33,-2.32,-1.73,-2.88,4.23,4.24,4.23
33.55,6.55,2.33,6.56,2.34,-2.31,-1.73,-2.85,4.25,4.25,4.22
33.89,6.55,2.34,6.54,2.33,-2.29,-1.73,-2.82,4.27,4.26,4.21
34.23,6.50,2.30,6.49,2.29,-2.26,-1.73,-2.79,4.24,4.23,4.21
34.57,6.42,2.23,6.42,2.23,-2.23,-1.73,-2.75,4.19,4.19,4.19
34.92,6.34,2.15,6.36,2.17,-2.20,-1.73,-2.71,4.14,4.16,4.19
35.27,6.32,2.13,6.33,2.14,-2.18,-1.73,-2.67,4.14,4.15,4.19
35.62,6.32,2.13,6.32,2.13,-2.16,-1.72,-2.62,4.16,4.15,4.19
35.97,6.32,2.15,6.32,2.14,-2.15,-1.72,-2.57,4.17,4.17,4.18
36.33,6.32,2.15,6.32,2.15,-2.15,-1.72,-2.53,4.17,4.17,4.17
36.70,6.32,2.15,6.32,2.15,-2.15,-1.72,-2.48,4.18,4.18,4.17
37.06,6.32,2.15,6.33,2.16,-2.14,-1.72,-2.43,4.18,4.19,4.17
37.43,6.32,2.16,6.33,2.16,-2.12,-1.72,-2.38,4.20,4.21,4.17
37.81,6.32,2.15,6.31,2.14,-2.10,-1.72,-2.32,4.22,4.21,4.17
38.19,6.28,2.11,6.26,2.09,-2.07,-1.71,-2.27,4.21,4.19,4.17
38.57,6.19,2.03,6.19,2.03,-2.04,-1.71,-2.22,4.16,4.16,4.17
38.95,6.10,1.94,6.13,1.97,-2.00,-1.71,-2.17,4.10,4.13,4.16
39.34,6.09,1.93,6.09,1.93,-1.97,-1.71,-2.12,4.12,4.12,4.16
39.74,6.09,1.94,6.08,1.93,-1.95,-1.71,-2.07,4.14,4.13,4.16
40.14,6.09,1.94,6.09,1.94,-1.94,-1.70,-2.02,4.15,4.15,4.15
40.54,6.09,1.94,6.09,1.94,-1.94,-1.70,-1.97,4.15,4.15,4.15
40.94,6.09,1.95,6.09,1.95,-1.95,-1.70,-1.92,4.14,4.14,4.15
41.35,6.09,1.96,6.09,1.96,-1.97,-1.70,-1.87,4.13,4.13,4.13
41.76,6.09,1.97,6.09,1.97,-1.97,-1.70,-1.82,4.12,4.12,4.12
42.18,6.09,1.99,6.10,2.00,-1.97,-1.69,-1.78,4.12,4.13,4.10
42.60,6.09,2.00,6.09,2.00,-1.96,-1.69,-1.73,4.14,4.14,4.09
43.03,6.08,2.01,6.05,1.98,-1.95,-1.69,-1.69,4.14,4.10,4.08
43.46,5.98,1.93,5.98,1.93,-1.94,-1.68,-1.64,4.05,4.05,4.05
43.90,5.88,1.85,5.91,1.88,-1.92,-1.68,-1.60,3.96,3.99,4.04
44.33,5.86,1.84,5.87,1.84,-1.90,-1.68,-1.56,3.96,3.96,4.02
44.78,5.86,1.86,5.86,1.85,-1.88,-1.68,-1.52,3.99,3.98,4.01
45.23,5.86,1.87,5.87,1.88,-1.85,-1.67,-1.49,4.02,4.02,3.99
45.68,5.86,1.89,5.86,1.88,-1.82,-1.67,-1.45,4.04,4.04,3.98
46.13,5.83,1.86,5.81,1.84,-1.79,-1.67,-1.41,4.04,4.01,3.97
46.60,5.73,1.77,5.74,1.78,-1.78,-1.66,-1.38,3.96,3.96,3.96
47.06,5.64,1.69,5.68,1.72,-1.76,-1.66,-1.35,3.88,3.91,3.96
47.53,5.64,1.69,5.64,1.68,-1.74,-1.65,-1.32,3.90,3.90,3.95
48.01,5.64,1.69,5.63,1.68,-1.72,-1.65,-1.29,3.93,3.92,3.95
48.49,5.64,1.69,5.64,1.69,-1.68,-1.65,-1.26,3.96,3.96,3.96
48.97,5.64,1.68,5.65,1.69,-1.65,-1.64,-1.23,3.99,4.00,3.96
49.46,5.64,1.68,5.65,1.69,-1.62,-1.64,-1.20,4.03,4.03,3.96
49.96,5.64,1.68,5.60,1.63,-1.59,-1.63,-1.17,4.06,4.01,3.96
50.46,5.53,1.56,5.53,1.56,-1.56,-1.63,-1.15,3.97,3.97,3.98
50.96,5.42,1.44,5.46,1.48,-1.53,-1.62,-1.13,3.89,3.93,3.98
51.47,5.41,1.43,5.41,1.43,-1.51,-1.62,-1.10,3.91,3.91,3.98
51.99,5.41,1.44,5.40,1.43,-1.47,-1.61,-1.08,3.94,3.93,3.97
52.51,5.41,1.45,5.41,1.45,-1.44,-1.60,-1.06,3.97,3.97,3.96
53.03,5.41,1.46,5.42,1.47,-1.42,-1.60,-1.04,3.99,4.00,3.95
53.56,5.41,1.47,5.41,1.46,-1.41,-1.59,-1.02,4.01,4.00,3.94
54.10,5.39,1.46,5.35,1.42,-1.40,-1.58,-1.00,3.99,3.95,3.93
54.64,5.26,1.35,5.28,1.37,-1.39,-1.58,-0.98,3.88,3.89,3.91
55.18,5.18,1.29,5.21,1.32,-1.37,-1.57,-0.97,3.82,3.85,3.89
55.74,5.18,1.31,5.18,1.32,-1.34,-1.56,-0.95,3.85,3.85,3.87
56.29,5.18,1.34,5.18,1.34,-1.31,-1.56,-0.94,3.88,3.87,3.84
56.86,5.18,1.36,5.14,1.33,-1.29,-1.55,-0.92,3.89,3.85,3.82
57.42,5.08,1.30,5.07,1.29,-1.28,-1.54,-0.91,3.80,3.79,3.79
58.00,4.95,1.20,5.00,1.25,-1.28,-1.53,-0.90,3.67,3.72,3.75
58.58,4.95,1.23,4.95,1.23,-1.29,-1.52,-0.88,3.67,3.66,3.72
59.16,4.95,1.27,4.94,1.25,-1.28,-1.51,-0.87,3.67,3.66,3.69
59.76,4.95,1.30,4.97,1.31,-1.28,-1.50,-0.86,3.68,3.69,3.65
60.35,4.95,1.33,4.96,1.34,-1.27,-1.49,-0.85,3.68,3.68,3.62
60.96,4.95,1.37,4.91,1.32,-1.28,-1.48,-0.84,3.68,3.63,3.58
61.57,4.82,1.26,4.83,1.28,-1.28,-1.47,-0.84,3.54,3.55,3.56
62.18,4.72,1.20,4.76,1.24,-1.29,-1.46,-0.83,3.43,3.47,3.52
62.80,4.72,1.24,4.72,1.23,-1.29,-1.44,-0.82,3.44,3.43,3.49
63.43,4.72,1.27,4.72,1.27,-1.28,-1.43,-0.81,3.44,3.44,3.45
64.07,4.72,1.31,4.72,1.30,-1.27,-1.42,-0.81,3.45,3.45,3.41
64.71,4.68,1.31,4.67,1.29,-1.26,-1.40,-0.80,3.42,3.41,3.38
65.35,4.61,1.27,4.60,1.26,-1.25,-1.39,-0.80,3.36,3.36,3.34
66.01,4.50,1.19,4.54,1.23,-1.24,-1.37,-0.80,3.27,3.31,3.31
66.67,4.50,1.22,4.50,1.21,-1.22,-1.35,-0.79,3.28,3.27,3.28
67.33,4.47,1.21,4.45,1.19,-1.20,-1.34,-0.79,3.27,3.25,3.26
68.01,4.40,1.17,4.40,1.16,-1.17,-1.32,-0.79,3.24,3.23,3.23
68.69,4.31,1.10,4.33,1.12,-1.13,-1.30,-0.79,3.18,3.20,3.21
69.37,4.27,1.07,4.29,1.10,-1.10,-1.28,-0.79,3.17,3.19,3.20
70.07,4.27,1.09,4.27,1.09,-1.07,-1.26,-0.79,3.21,3.20,3.19
70.77,4.27,1.10,4.23,1.05,-1.03,-1.23,-0.79,3.24,3.19,3.17
71.48,4.16,1.00,4.16,1.00,-0.99,-1.21,-0.79,3.17,3.17,3.16
72.19,4.04,0.89,4.09,0.94,-0.95,-1.19,-0.79,3.09,3.14,3.15
72.91,4.04,0.90,4.05,0.91,-0.92,-1.16,-0.79,3.13,3.13,3.14
73.64,4.04,0.91,4.01,0.88,-0.88,-1.13,-0.80,3.16,3.13,3.13
74.38,3.98,0.87,3.96,0.85,-0.84,-1.10,-0.80,3.14,3.12,3.11
75.12,3.86,0.76,3.89,0.80,-0.80,-1.07,-0.80,3.06,3.09,3.10
75.87,3.82,0.75,3.84,0.76,-0.77,-1.04,-0.81,3.06,3.07,3.07
76.63,3.81,0.76,3.81,0.75,-0.74,-1.00,-0.81,3.08,3.07,3.06
77.40,3.79,0.75,3.77,0.73,-0.71,-0.96,-0.82,3.08,3.06,3.04
78.17,3.72,0.70,3.70,0.69,-0.69,-0.92,-0.83,3.03,3.01,3.02
78.95,3.59,0.60,3.63,0.64,-0.67,-0.88,-0.84,2.92,2.96,2.99
79.74,3.58,0.61,3.59,0.61,-0.65,-0.84,-0.84,2.93,2.93,2.97
80.54,3.58,0.63,3.58,0.63,-0.64,-0.79,-0.85,2.94,2.94,2.95
81.35,3.58,0.65,3.58,0.65,-0.62,-0.74,-0.86,2.96,2.96,2.93
82.16,3.56,0.65,3.54,0.63,-0.60,-0.68,-0.87,2.97,2.94,2.91
82.98,3.48,0.59,3.48,0.59,-0.57,-0.63,-0.88,2.91,2.91,2.89
83.81,3.38,0.50,3.42,0.54,-0.53,-0.57,-0.90,2.85,2.89,2.88
84.65,3.36,0.51,3.35,0.49,-0.49,-0.50,-0.91,2.87,2.86,2.86
85.50,3.30,0.46,3.28,0.44,-0.44,-0.44,-0.92,2.87,2.85,2.84
86.35,3.19,0.36,3.22,0.39,-0.38,-0.37,-0.94,2.82,2.84,2.83
87.22,3.12,0.31,3.12,0.30,-0.32,-0.30,-0.95,2.81,2.80,2.82
88.09,3.06,0.26,3.03,0.22,-0.26,-0.23,-0.97,2.81,2.77,2.80
88.97,2.91,0.12,2.97,0.18,-0.19,-0.16,-0.98,2.72,2.78,2.79
89.86,2.90,0.14,2.90,0.13,-0.12,-0.08,-1.00,2.78,2.78,2.76
90.76,2.88,0.13,2.84,0.09,-0.06,-0.01,-1.02,2.83,2.78,2.75
91.66,2.74,0.01,2.77,0.04,0.00,0.05,-1.04,2.75,2.77,2.73
92.58,2.67,-0.04,2.66,-0.05,0.06,0.11,-1.05,2.73,2.72,2.72
93.51,2.57,-0.13,2.56,-0.14,0.10,0.17,-1.07,2.67,2.66,2.70
94.44,2.46,-0.22,2.49,-0.19,0.14,0.22,-1.09,2.60,2.63,2.68
95.39,2.44,-0.22,2.45,-0.22,0.18,0.25,-1.11,2.62,2.63,2.67
96.34,2.44,-0.21,2.44,-0.21,0.22,0.28,-1.14,2.66,2.66,2.65
97.30,2.44,-0.19,2.42,-0.21,0.26,0.29,-1.16,2.71,2.68,2.63
98.28,2.39,-0.22,2.37,-0.25,0.31,0.29,-1.18,2.70,2.67,2.62
99.26,2.25,-0.34,2.30,-0.30,0.34,0.28,-1.20,2.60,2.64,2.60
100.25,2.21,-0.36,2.20,-0.38,0.38,0.25,-1.23,2.59,2.58,2.57
101.25,2.14,-0.41,2.10,-0.45,0.41,0.22,-1.25,2.55,2.52,2.55
102.27,1.99,-0.53,2.04,-0.48,0.44,0.17,-1.27,2.43,2.48,2.52
103.29,1.99,-0.50,1.99,-0.50,0.45,0.12,-1.30,2.44,2.45,2.49
104.32,1.99,-0.46,1.98,-0.48,0.45,0.06,-1.32,2.45,2.43,2.46
105.37,1.99,-0.43,1.99,-0.43,0.44,0.01,-1.35,2.43,2.43,2.42
106.42,1.99,-0.39,1.99,-0.38,0.41,-0.06,-1.37,2.40,2.40,2.38
107.48,1.99,-0.34,1.99,-0.34,0.37,-0.12,-1.40,2.36,2.36,2.33
108.56,1.99,-0.28,1.99,-0.28,0.31,-0.19,-1.42,2.31,2.31,2.27
109.64,1.99,-0.23,1.99,-0.24,0.24,-0.25,-1.44,2.23,2.23,2.23
110.74,1.99,-0.18,1.97,-0.20,0.16,-0.32,-1.46,2.15,2.13,2.18
111.85,1.99,-0.14,2.01,-0.12,0.07,-0.38,-1.49,2.07,2.08,2.13
112.97,2.01,-0.06,2.07,-0.01,-0.02,-0.45,-1.51,2.00,2.05,2.07
114.10,2.22,0.20,2.16,0.14,-0.12,-0.51,-1.53,2.10,2.04,2.02
115.24,2.25,0.28,2.28,0.30,-0.24,-0.58,-1.55,2.02,2.04,1.98
116.39,2.37,0.44,2.36,0.44,-0.37,-0.64,-1.57,2.00,1.99,1.93
117.55,2.44,0.56,2.39,0.51,-0.53,-0.70,-1.58,1.92,1.86,1.88
118.73,2.45,0.61,2.50,0.65,-0.70,-0.77,-1.60,1.75,1.79,1.85
119.92,2.56,0.75,2.64,0.83,-0.90,-0.84,-1.62,1.66,1.74,1.81
121.12,2.91,1.14,2.82,1.05,-1.11,-0.91,-1.63,1.80,1.71,1.77
122.33,3.05,1.31,3.05,1.31,-1.33,-0.99,-1.64,1.72,1.72,1.74
123.55,3.23,1.52,3.29,1.58,-1.55,-1.06,-1.65,1.68,1.74,1.71
124.79,3.49,1.81,3.49,1.80,-1.76,-1.15,-1.66,1.73,1.72,1.68
126.03,3.74,2.09,3.71,2.05,-1.97,-1.24,-1.67,1.77,1.73,1.66
127.29,3.86,2.23,3.88,2.25,-2.16,-1.34,-1.68,1.70,1.71,1.63
128.57,3.99,2.39,3.97,2.37,-2.34,-1.44,-1.68,1.65,1.63,1.60
129.85,4.04,2.47,4.04,2.46,-2.50,-1.56,-1.68,1.54,1.53,1.58
131.15,4.09,2.54,4.13,2.58,-2.66,-1.68,-1.69,1.44,1.47,1.55
132.46,4.22,2.70,4.24,2.71,-2.80,-1.82,-1.69,1.42,1.43,1.52
133.79,4.41,2.92,4.38,2.89,-2.94,-1.95,-1.69,1.47,1.44,1.49
135.12,4.51,3.04,4.54,3.07,-3.06,-2.10,-1.68,1.45,1.47,1.47
136.48,4.66,3.22,4.65,3.21,-3.17,-2.25,-1.68,1.49,1.48,1.44
137.84,4.72,3.31,4.72,3.30,-3.25,-2.40,-1.68,1.47,1.47,1.41
139.22,4.72,3.33,4.74,3.35,-3.29,-2.54,-1.68,1.44,1.45,1.39
140.61,4.72,3.36,4.71,3.35,-3.28,-2.66,-1.67,1.44,1.43,1.36
142.02,4.61,3.28,4.63,3.29,-3.23,-2.77,-1.67,1.38,1.39,1.33
143.44,4.51,3.21,4.49,3.18,-3.16,-2.82,-1.66,1.36,1.33,1.31
144.87,4.31,3.03,4.32,3.04,-3.07,-2.87,-1.66,1.25,1.25,1.28
146.32,4.12,2.88,4.14,2.90,-2.97,-2.84,-1.65,1.15,1.17,1.24
147.78,3.99,2.79,3.98,2.78,-2.88,-2.81,-1.65,1.11,1.10,1.21
149.26,3.87,2.70,3.89,2.73,-2.79,-2.72,-1.64,1.08,1.10,1.17
150.75,3.81,2.69,3.83,2.70,-2.72,-2.63,-1.64,1.10,1.11,1.13
152.26,3.80,2.72,3.76,2.68,-2.65,-2.52,-1.63,1.15,1.11,1.08
153.78,3.66,2.63,3.67,2.65,-2.59,-2.40,-1.63,1.07,1.08,1.03
155.32,3.55,2.58,3.54,2.56,-2.53,-2.28,-1.63,1.02,1.01,0.98
156.88,3.36,2.44,3.37,2.44,-2.45,-2.16,-1.63,0.91,0.92,0.92
158.44,3.19,2.31,3.22,2.34,-2.34,-2.05,-1.63,0.85,0.88,0.88
160.03,3.07,2.23,3.07,2.23,-2.20,-1.95,-1.63,0.87,0.87,0.84
161.63,2.93,2.13,2.92,2.12,-2.04,-1.87,-1.63,0.89,0.88,0.80
163.24,2.74,1.97,2.73,1.96,-1.87,-1.79,-1.63,0.87,0.85,0.77
164.88,2.50,1.76,2.49,1.75,-1.71,-1.73,-1.63,0.79,0.78,0.74
166.53,2.24,1.52,2.26,1.54,-1.58,-1.67,-1.64,0.67,0.68,0.72
168.19,2.06,1.36,2.08,1.37,-1.48,-1.63,-1.64,0.58,0.60,0.70
169.87,1.99,1.30,2.00,1.30,-1.42,-1.60,-1.65,0.57,0.58,0.69
171.57,1.99,1.30,2.01,1.32,-1.41,-1.58,-1.66,0.58,0.60,0.69
173.29,2.13,1.44,2.10,1.40,-1.45,-1.57,-1.67,0.68,0.65,0.70
175.02,2.22,1.52,2.25,1.54,-1.53,-1.57,-1.68,0.69,0.71,0.70
176.77,2.41,1.70,2.42,1.71,-1.66,-1.57,-1.69,0.76,0.77,0.71
178.54,2.61,1.88,2.58,1.86,-1.80,-1.59,-1.71,0.81,0.78,0.73
180.32,2.75,2.01,2.74,2.00,-1.96,-1.61,-1.72,0.80,0.79,0.74
182.13,2.85,2.09,2.87,2.11,-2.11,-1.64,-1.74,0.75,0.76,0.76
183.95,2.99,2.23,3.00,2.23,-2.25,-1.68,-1.76,0.74,0.75,0.76
185.79,3.12,2.35,3.14,2.36,-2.38,-1.73,-1.77,0.74,0.75,0.77
187.65,3.29,2.52,3.25,2.48,-2.50,-1.78,-1.79,0.79,0.76,0.78
189.52,3.35,2.58,3.36,2.58,-2.59,-1.84,-1.82,0.76,0.77,0.77
191.42,3.41,2.64,3.45,2.68,-2.66,-1.91,-1.84,0.75,0.79,0.77
193.33,3.53,2.77,3.52,2.76,-2.71,-1.98,-1.86,0.83,0.82,0.76
195.27,3.58,2.83,3.57,2.81,-2.73,-2.06,-1.89,0.85,0.83,0.76
197.22,3.58,2.83,3.54,2.79,-2.74,-2.14,-1.91,0.84,0.80,0.76
199.19,3.45,2.71,3.47,2.73,-2.74,-2.23,-1.94,0.72,0.74,0.74
201.18,3.36,2.63,3.40,2.66,-2.73,-2.32,-1.96,0.64,0.67,0.73
203.19,3.36,2.64,3.35,2.63,-2.71,-2.41,-1.99,0.65,0.64,0.72
205.23,3.36,2.65,3.35,2.65,-2.70,-2.49,-2.02,0.66,0.65,0.71
207.28,3.36,2.67,3.36,2.67,-2.68,-2.58,-2.04,0.68,0.68,0.69
209.35,3.36,2.69,3.36,2.69,-2.67,-2.65,-2.07,0.70,0.70,0.67
211.44,3.36,2.70,3.38,2.72,-2.66,-2.71,-2.10,0.71,0.73,0.66
213.56,3.36,2.72,3.35,2.71,-2.65,-2.75,-2.12,0.71,0.70,0.65
215.69,3.36,2.73,3.29,2.66,-2.64,-2.79,-2.15,0.72,0.65,0.64
217.85,3.15,2.53,3.22,2.60,-2.62,-2.80,-2.17,0.53,0.59,0.62
220.03,3.13,2.52,3.15,2.54,-2.59,-2.80,-2.20,0.54,0.56,0.61
222.23,3.13,2.54,3.13,2.53,-2.56,-2.77,-2.22,0.57,0.57,0.59
224.45,3.13,2.55,3.13,2.54,-2.52,-2.73,-2.24,0.61,0.61,0.59
226.70,3.13,2.56,3.08,2.51,-2.49,-2.66,-2.26,0.65,0.59,0.57
228.96,2.97,2.41,3.01,2.45,-2.45,-2.59,-2.28,0.52,0.56,0.56
231.25,2.92,2.38,2.95,2.40,-2.42,-2.50,-2.29,0.51,0.54,0.54
233.57,2.90,2.37,2.90,2.36,-2.37,-2.40,-2.30,0.53,0.53,0.54
235.90,2.90,2.37,2.86,2.33,-2.31,-2.29,-2.31,0.59,0.55,0.53
238.26,2.79,2.28,2.81,2.29,-2.25,-2.19,-2.31,0.54,0.56,0.52
240.64,2.69,2.18,2.72,2.21,-2.19,-2.07,-2.32,0.51,0.54,0.51
243.05,2.67,2.17,2.62,2.11,-2.13,-1.96,-2.31,0.54,0.48,0.50
245.48,2.51,2.01,2.53,2.04,-2.09,-1.85,-2.31,0.43,0.45,0.50
247.93,2.44,1.95,2.47,1.98,-2.03,-1.74,-2.30,0.41,0.44,0.49
250.41,2.44,1.95,2.44,1.96,-1.98,-1.64,-2.29,0.46,0.46,0.49
252.92,2.44,1.96,2.44,1.96,-1.92,-1.54,-2.27,0.52,0.51,0.48
255.45,2.44,1.96,2.40,1.92,-1.87,-1.45,-2.25,0.57,0.53,0.48
258.00,2.31,1.84,2.34,1.87,-1.82,-1.36,-2.23,0.49,0.52,0.47
260.58,2.22,1.75,2.25,1.78,-1.77,-1.28,-2.20,0.45,0.47,0.47
263.19,2.20,1.75,2.14,1.68,-1.72,-1.20,-2.17,0.49,0.42,0.46
265.82,2.01,1.56,2.07,1.62,-1.65,-1.12,-2.13,0.36,0.42,0.45
268.48,1.99,1.55,2.02,1.57,-1.58,-1.05,-2.10,0.41,0.43,0.45
271.16,1.99,1.56,1.94,1.51,-1.51,-0.99,-2.06,0.49,0.44,0.43
273.87,1.91,1.48,1.91,1.48,-1.44,-0.93,-2.01,0.47,0.47,0.43
276.61,1.78,1.36,1.82,1.40,-1.37,-0.87,-1.97,0.41,0.45,0.43
279.38,1.76,1.35,1.71,1.29,-1.31,-0.82,-1.92,0.45,0.40,0.41
282.17,1.59,1.18,1.62,1.21,-1.24,-0.77,-1.87,0.35,0.38,0.41
284.99,1.53,1.13,1.57,1.16,-1.17,-0.72,-1.81,0.37,0.40,0.41
287.84,1.53,1.13,1.49,1.09,-1.09,-0.68,-1.76,0.44,0.40,0.40
290.72,1.46,1.06,1.45,1.05,-1.02,-0.64,-1.70,0.44,0.43,0.40
293.63,1.32,0.93,1.36,0.96,-0.95,-0.60,-1.65,0.37,0.41,0.40
296.57,1.30,0.91,1.25,0.86,-0.88,-0.56,-1.59,0.42,0.37,0.40
299.53,1.13,0.74,1.17,0.78,-0.81,-0.53,-1.53,0.32,0.35,0.39
302.53,1.08,0.70,1.12,0.73,-0.74,-0.50,-1.47,0.35,0.38,0.38
305.55,1.08,0.71,1.06,0.68,-0.65,-0.47,-1.41,0.43,0.40,0.38
308.61,1.02,0.65,0.99,0.62,-0.57,-0.44,-1.34,0.45,0.42,0.38
311.69,0.87,0.51,0.87,0.51,-0.49,-0.41,-1.28,0.38,0.38,0.36
314.81,0.71,0.36,0.76,0.40,-0.41,-0.39,-1.22,0.30,0.34,0.35
317.96,0.63,0.29,0.64,0.31,-0.34,-0.36,-1.16,0.29,0.30,0.34
321.14,0.61,0.30,0.55,0.23,-0.27,-0.34,-1.10,0.34,0.28,0.32
324.35,0.44,0.14,0.49,0.18,-0.19,-0.32,-1.03,0.26,0.30,0.30
327.59,0.39,0.10,0.42,0.13,-0.10,-0.30,-0.97,0.30,0.32,0.29
330.87,0.39,0.11,0.34,0.06,-0.01,-0.28,-0.91,0.38,0.33,0.28
334.18,0.29,0.02,0.30,0.03,0.05,-0.26,-0.85,0.35,0.35,0.27
337.52,0.18,-0.07,0.21,-0.05,0.09,-0.24,-0.79,0.27,0.30,0.26
340.90,0.16,-0.09,0.09,-0.16,0.09,-0.22,-0.73,0.26,0.19,0.26
344.30,-0.01,-0.25,0.03,-0.22,0.07,-0.20,-0.66,0.06,0.09,0.24
347.75,0.00,-0.24,0.06,-0.18,0.02,-0.19,-0.60,0.02,0.08,0.24
351.23,0.18,-0.06,0.20,-0.04,-0.05,-0.17,-0.54,0.14,0.15,0.24
354.74,0.45,0.21,0.41,0.17,-0.12,-0.15,-0.48,0.33,0.29,0.24
358.28,0.60,0.36,0.57,0.32,-0.19,-0.14,-0.42,0.42,0.38,0.24
361.87,0.62,0.38,0.65,0.40,-0.25,-0.12,-0.36,0.37,0.40,0.25
365.49,0.62,0.38,0.63,0.38,-0.30,-0.11,-0.31,0.33,0.33,0.25
369.14,0.60,0.36,0.56,0.31,-0.31,-0.09,-0.25,0.29,0.25,0.24
372.83,0.45,0.21,0.48,0.24,-0.28,-0.08,-0.19,0.17,0.20,0.24
376.56,0.39,0.14,0.43,0.18,-0.22,-0.06,-0.13,0.17,0.21,0.25
380.33,0.39,0.14,0.38,0.13,-0.15,-0.05,-0.07,0.24,0.23,0.25
384.13,0.39,0.14,0.34,0.08,-0.08,-0.03,-0.02,0.31,0.26,0.25
387.97,0.24,-0.01,0.27,0.02,-0.03,-0.02,0.04,0.22,0.25,0.25
391.85,0.18,-0.07,0.21,-0.04,0.01,-0.01,0.09,0.19,0.22,0.25
395.77,0.17,-0.07,0.16,-0.09,0.03,0.01,0.15,0.21,0.20,0.25
399.73,0.17,-0.08,0.17,-0.09,0.06,0.02,0.20,0.23,0.23,0.26
403.72,0.17,-0.08,0.17,-0.08,0.09,0.04,0.26,0.26,0.26,0.26
407.76,0.17,-0.08,0.19,-0.07,0.12,0.05,0.31,0.29,0.31,0.26
411.84,0.17,-0.08,0.17,-0.08,0.15,0.07,0.36,0.32,0.32,0.25
415.96,0.17,-0.08,0.11,-0.14,0.18,0.08,0.41,0.35,0.29,0.25
420.12,-0.01,-0.26,0.04,-0.22,0.21,0.10,0.46,0.20,0.24,0.25
424.32,-0.06,-0.31,-0.03,-0.28,0.24,0.11,0.51,0.18,0.21,0.25
428.56,-0.06,-0.31,-0.07,-0.32,0.27,0.13,0.56,0.21,0.20,0.25
432.85,-0.06,-0.31,-0.06,-0.31,0.29,0.15,0.60,0.23,0.23,0.25
437.18,-0.06,-0.31,-0.06,-0.30,0.31,0.16,0.65,0.25,0.25,0.25
441.55,-0.06,-0.30,-0.06,-0.30,0.31,0.18,0.69,0.26,0.26,0.24
445.96,-0.06,-0.30,-0.06,-0.30,0.31,0.20,0.73,0.25,0.25,0.24
450.42,-0.06,-0.30,-0.06,-0.29,0.30,0.21,0.77,0.25,0.25,0.24
454.93,-0.06,-0.29,-0.06,-0.29,0.29,0.23,0.80,0.24,0.24,0.24
459.48,-0.06,-0.28,-0.06,-0.29,0.29,0.25,0.84,0.23,0.23,0.23
464.07,-0.06,-0.29,-0.06,-0.29,0.29,0.27,0.87,0.23,0.23,0.24
468.71,-0.06,-0.29,-0.06,-0.29,0.29,0.29,0.89,0.23,0.23,0.24
473.40,-0.06,-0.29,-0.06,-0.29,0.29,0.31,0.92,0.24,0.24,0.24
478.13,-0.06,-0.29,-0.06,-0.29,0.29,0.33,0.94,0.24,0.24,0.24
482.91,-0.06,-0.30,-0.06,-0.30,0.29,0.35,0.96,0.24,0.24,0.24
487.74,-0.06,-0.30,-0.06,-0.30,0.29,0.37,0.98,0.23,0.23,0.24
492.62,-0.06,-0.31,-0.06,-0.31,0.29,0.39,0.99,0.24,0.24,0.25
497.55,-0.06,-0.31,-0.06,-0.31,0.31,0.41,1.00,0.25,0.25,0.25
502.52,-0.06,-0.32,-0.05,-0.32,0.33,0.43,1.00,0.27,0.28,0.26
507.55,-0.06,-0.33,-0.04,-0.31,0.36,0.45,1.00,0.30,0.32,0.27
512.62,-0.06,-0.33,-0.07,-0.35,0.40,0.47,1.00,0.34,0.32,0.27
517.75,-0.10,-0.38,-0.14,-0.42,0.43,0.49,1.00,0.34,0.30,0.28
522.93,-0.25,-0.53,-0.21,-0.49,0.47,0.51,0.99,0.22,0.26,0.28
528.16,-0.29,-0.57,-0.27,-0.55,0.51,0.53,0.98,0.22,0.24,0.28
533.44,-0.29,-0.57,-0.30,-0.58,0.53,0.55,0.97,0.24,0.23,0.28
538.77,-0.29,-0.57,-0.29,-0.57,0.55,0.56,0.95,0.26,0.26,0.28
544.16,-0.29,-0.57,-0.29,-0.56,0.55,0.58,0.93,0.27,0.27,0.28
