frequency,raw,error,smoothed,error_smoothed,equalization,parametric_eq,fixed_band_eq,equalized_raw,equalized_smoothed,target
20.00,0.72,-4.75,0.72,-4.75,4.74,4.28,0.95,5.46,5.46,5.47
20.20,0.80,-4.71,0.80,-4.71,4.71,4.23,0.98,5.51,5.51,5.51
20.40,0.87,-4.68,0.87,-4.67,4.68,4.18,1.01,5.55,5.55,5.55
20.61,0.95,-4.62,0.95,-4.63,4.64,4.13,1.05,5.59,5.59,5.57
20.81,1.02,-4.59,1.02,-4.59,4.59,4.09,1.08,5.62,5.62,5.61
21.02,1.10,-4.55,1.10,-4.54,4.54,4.04,1.11,5.65,5.64,5.65
21.23,1.17,-4.49,1.17,-4.49,4.49,3.99,1.15,5.66,5.66,5.66
21.44,1.25,-4.43,1.25,-4.43,4.43,3.94,1.19,5.68,5.68,5.68
21.66,1.32,-4.37,1.32,-4.36,4.36,3.89,1.22,5.68,5.68,5.69
21.87,1.40,-4.29,1.40,-4.29,4.29,3.83,1.26,5.69,5.69,5.69
22.09,1.48,-4.22,1.48,-4.21,4.20,3.78,1.30,5.69,5.69,5.70
22.31,1.57,-4.13,1.57,-4.13,4.12,3.73,1.34,5.69,5.69,5.70
22.54,1.66,-4.04,1.66,-4.03,4.03,3.67,1.39,5.69,5.69,5.70
22.76,1.75,-3.94,1.75,-3.94,3.95,3.62,1.43,5.70,5.70,5.69
22.99,1.84,-3.84,1.84,-3.85,3.86,3.57,1.47,5.70,5.70,5.68
23.22,1.91,-3.77,1.91,-3.76,3.78,3.51,1.52,5.69,5.69,5.68
23.45,1.98,-3.68,1.98,-3.69,3.70,3.46,1.57,5.68,5.68,5.67
23.69,2.05,-3.62,2.05,-3.62,3.62,3.40,1.61,5.67,5.67,5.67
23.92,2.12,-3.54,2.12,-3.54,3.54,3.34,1.66,5.66,5.66,5.67
24.16,2.20,-3.47,2.20,-3.47,3.46,3.28,1.71,5.66,5.66,5.67
24.40,2.28,-3.39,2.28,-3.39,3.38,3.23,1.76,5.66,5.66,5.67
24.65,2.36,-3.30,2.36,-3.31,3.30,3.17,1.81,5.66,5.66,5.66
24.89,2.44,-3.22,2.45,-3.22,3.21,3.11,1.86,5.65,5.65,5.66
25.14,2.53,-3.13,2.53,-3.13,3.12,3.05,1.91,5.65,5.65,5.66
25.39,2.63,-3.03,2.63,-3.03,3.03,2.99,1.96,5.66,5.66,5.66
25.65,2.72,-2.93,2.73,-2.93,2.94,2.93,2.01,5.66,5.67,5.65
25.91,2.82,-2.82,2.81,-2.83,2.86,2.87,2.06,5.68,5.67,5.64
26.16,2.88,-2.76,2.88,-2.76,2.78,2.80,2.11,5.66,5.66,5.64
26.43,2.94,-2.70,2.94,-2.70,2.71,2.74,2.16,5.65,5.65,5.64
26.69,2.99,-2.65,2.99,-2.64,2.63,2.68,2.20,5.63,5.62,5.64
26.96,3.04,-2.59,3.05,-2.58,2.56,2.61,2.25,5.60,5.61,5.63
27.23,3.12,-2.51,3.12,-2.51,2.49,2.55,2.29,5.61,5.61,5.63
27.50,3.20,-2.42,3.20,-2.42,2.41,2.49,2.33,5.61,5.61,5.63
27.77,3.28,-2.33,3.29,-2.33,2.33,2.42,2.37,5.62,5.62,5.62
28.05,3.37,-2.24,3.37,-2.24,2.25,2.35,2.41,5.62,5.62,5.61
28.33,3.45,-2.15,3.45,-2.15,2.16,2.29,2.44,5.62,5.62,5.60
28.62,3.53,-2.07,3.53,-2.07,2.08,2.22,2.47,5.61,5.61,5.60
28.90,3.61,-1.99,3.61,-1.99,1.99,2.15,2.49,5.60,5.60,5.60
29.19,3.69,-1.91,3.69,-1.91,1.90,2.09,2.51,5.60,5.60,5.60
29.48,3.78,-1.83,3.78,-1.83,1.82,2.02,2.53,5.60,5.60,5.61
29.78,3.86,-1.74,3.86,-1.74,1.74,1.95,2.54,5.60,5.60,5.60
30.08,3.94,-1.67,3.94,-1.66,1.66,1.88,2.54,5.60,5.60,5.61
30.38,4.01,-1.58,4.01,-1.58,1.58,1.81,2.55,5.59,5.59,5.59
30.68,4.08,-1.50,4.09,-1.50,1.50,1.74,2.54,5.58,5.59,5.58
30.99,4.16,-1.41,4.15,-1.42,1.43,1.67,2.53,5.59,5.58,5.57
31.30,4.22,-1.35,4.22,-1.35,1.35,1.60,2.51,5.57,5.57,5.57
31.61,4.28,-1.29,4.29,-1.28,1.28,1.53,2.49,5.56,5.56,5.57
31.93,4.35,-1.20,4.35,-1.21,1.20,1.45,2.46,5.55,5.55,5.55
32.24,4.41,-1.12,4.41,-1.13,1.13,1.38,2.43,5.54,5.54,5.54
32.57,4.47,-1.06,4.47,-1.05,1.05,1.31,2.39,5.52,5.53,5.54
32.89,4.54,-0.98,4.54,-0.98,0.98,1.24,2.35,5.52,5.51,5.52
33.22,4.60,-0.90,4.60,-0.90,0.90,1.16,2.29,5.50,5.50,5.50
33.55,4.67,-0.83,4.67,-0.82,0.82,1.09,2.24,5.49,5.49,5.50
33.89,4.74,-0.74,4.74,-0.74,0.74,1.02,2.18,5.48,5.48,5.48
34.23,4.81,-0.67,4.81,-0.66,0.67,0.94,2.12,5.48,5.48,5.48
34.57,4.87,-0.58,4.88,-0.58,0.59,0.87,2.05,5.46,5.47,5.45
34.92,4.94,-0.50,4.94,-0.51,0.52,0.79,1.97,5.46,5.46,5.44
35.27,4.99,-0.45,4.99,-0.45,0.45,0.72,1.90,5.44,5.44,5.44
35.62,5.03,-0.39,5.03,-0.39,0.38,0.64,1.82,5.42,5.42,5.42
35.97,5.07,-0.33,5.08,-0.33,0.32,0.57,1.74,5.39,5.40,5.41
36.33,5.13,-0.27,5.13,-0.26,0.25,0.49,1.65,5.38,5.39,5.40
36.70,5.20,-0.19,5.20,-0.19,0.19,0.42,1.56,5.39,5.39,5.39
37.06,5.27,-0.11,5.27,-0.12,0.12,0.34,1.48,5.40,5.39,5.38
37.43,5.33,-0.05,5.33,-0.05,0.06,0.27,1.38,5.39,5.39,5.39
37.81,5.38,0.01,5.39,0.01,-0.00,0.19,1.29,5.38,5.38,5.37
38.19,5.44,0.08,5.44,0.07,-0.07,0.12,1.20,5.37,5.37,5.36
38.57,5.50,0.13,5.50,0.14,-0.14,0.04,1.10,5.36,5.35,5.37
38.95,5.55,0.20,5.56,0.20,-0.22,-0.03,1.01,5.33,5.34,5.35
39.34,5.62,0.27,5.62,0.27,-0.29,-0.11,0.91,5.33,5.33,5.35
39.74,5.69,0.35,5.69,0.35,-0.37,-0.19,0.81,5.33,5.32,5.34
40.14,5.76,0.43,5.78,0.44,-0.44,-0.26,0.72,5.33,5.34,5.33
40.54,5.86,0.53,5.86,0.54,-0.50,-0.34,0.62,5.36,5.36,5.33
40.94,5.96,0.64,5.93,0.61,-0.57,-0.41,0.52,5.39,5.36,5.33
41.35,5.97,0.66,5.97,0.65,-0.64,-0.48,0.42,5.33,5.33,5.31
41.76,5.97,0.67,5.99,0.69,-0.70,-0.56,0.32,5.27,5.29,5.30
42.18,6.01,0.72,6.03,0.74,-0.76,-0.63,0.22,5.25,5.26,5.29
42.60,6.09,0.81,6.09,0.81,-0.82,-0.71,0.12,5.27,5.27,5.28
43.03,6.17,0.90,6.15,0.88,-0.88,-0.78,0.02,5.29,5.27,5.27
43.46,6.20,0.95,6.20,0.95,-0.94,-0.85,-0.08,5.26,5.26,5.25
43.90,6.23,1.01,6.24,1.01,-1.01,-0.92,-0.18,5.22,5.23,5.23
44.33,6.28,1.07,6.28,1.08,-1.09,-0.99,-0.27,5.20,5.20,5.21
44.78,6.34,1.16,6.34,1.15,-1.15,-1.07,-0.37,5.19,5.18,5.19
45.23,6.39,1.22,6.39,1.22,-1.22,-1.14,-0.47,5.17,5.17,5.17
45.68,6.44,1.29,6.44,1.29,-1.27,-1.21,-0.57,5.17,5.17,5.15
46.13,6.48,1.34,6.49,1.35,-1.32,-1.27,-0.67,5.16,5.16,5.14
46.60,6.53,1.40,6.53,1.40,-1.38,-1.34,-0.77,5.15,5.15,5.13
47.06,6.57,1.44,6.55,1.42,-1.43,-1.41,-0.87,5.14,5.12,5.13
47.53,6.57,1.45,6.57,1.45,-1.48,-1.48,-0.97,5.09,5.09,5.12
48.01,6.57,1.46,6.61,1.50,-1.53,-1.54,-1.07,5.04,5.08,5.11
48.49,6.67,1.57,6.67,1.57,-1.58,-1.61,-1.17,5.09,5.09,5.10
48.97,6.76,1.68,6.72,1.64,-1.64,-1.67,-1.27,5.12,5.08,5.08
49.46,6.77,1.70,6.77,1.70,-1.69,-1.74,-1.37,5.08,5.07,5.07
49.96,6.77,1.72,6.81,1.75,-1.75,-1.80,-1.47,5.02,5.07,5.05
50.46,6.86,1.79,6.87,1.81,-1.80,-1.86,-1.57,5.06,5.07,5.07
50.96,6.96,1.90,6.93,1.87,-1.84,-1.92,-1.67,5.12,5.08,5.06
51.47,6.97,1.92,6.97,1.92,-1.89,-1.98,-1.77,5.08,5.08,5.05
51.99,6.97,1.93,6.97,1.93,-1.93,-2.04,-1.87,5.04,5.04,5.04
52.51,6.97,1.93,6.97,1.93,-1.98,-2.10,-1.96,5.00,5.00,5.04
53.03,6.98,1.94,7.01,1.98,-2.01,-2.16,-2.06,4.97,5.00,5.04
53.56,7.08,2.05,7.07,2.04,-2.04,-2.21,-2.15,5.04,5.03,5.03
54.10,7.16,2.14,7.13,2.11,-2.07,-2.27,-2.24,5.09,5.06,5.02
54.64,7.17,2.15,7.17,2.16,-2.10,-2.32,-2.33,5.07,5.07,5.02
55.18,7.17,2.16,7.18,2.16,-2.14,-2.37,-2.42,5.03,5.04,5.01
55.74,7.17,2.17,7.17,2.16,-2.19,-2.43,-2.51,4.98,4.98,5.00
56.29,7.17,2.17,7.17,2.18,-2.23,-2.48,-2.60,4.94,4.94,5.00
56.86,7.18,2.20,7.21,2.23,-2.26,-2.53,-2.68,4.92,4.95,4.98
57.42,7.26,2.30,7.27,2.30,-2.30,-2.57,-2.76,4.96,4.97,4.97
58.00,7.37,2.42,7.33,2.38,-2.34,-2.62,-2.83,5.03,4.99,4.95
58.58,7.37,2.43,7.37,2.43,-2.39,-2.67,-2.90,4.98,4.98,4.94
59.16,7.37,2.45,7.38,2.45,-2.45,-2.71,-2.97,4.92,4.92,4.93
59.76,7.37,2.47,7.38,2.48,-2.52,-2.76,-3.04,4.85,4.86,4.90
60.35,7.41,2.53,7.42,2.54,-2.59,-2.80,-3.10,4.83,4.84,4.88
60.96,7.48,2.63,7.48,2.63,-2.65,-2.85,-3.16,4.83,4.83,4.85
61.57,7.54,2.73,7.53,2.72,-2.71,-2.89,-3.21,4.84,4.83,4.81
62.18,7.58,2.81,7.57,2.80,-2.76,-2.93,-3.26,4.82,4.81,4.77
62.80,7.58,2.84,7.59,2.85,-2.82,-2.97,-3.31,4.76,4.76,4.74
63.43,7.58,2.88,7.59,2.89,-2.88,-3.01,-3.35,4.71,4.71,4.70
64.07,7.58,2.92,7.58,2.92,-2.92,-3.05,-3.39,4.66,4.66,4.66
64.71,7.58,2.96,7.58,2.95,-2.96,-3.09,-3.42,4.62,4.62,4.63
65.35,7.58,2.98,7.58,2.99,-3.00,-3.13,-3.46,4.59,4.59,4.60
66.01,7.58,3.02,7.58,3.02,-3.03,-3.16,-3.48,4.55,4.55,4.56
66.67,7.58,3.06,7.58,3.06,-3.06,-3.20,-3.51,4.52,4.52,4.52
67.33,7.58,3.09,7.58,3.09,-3.10,-3.24,-3.53,4.49,4.49,4.49
68.01,7.58,3.13,7.58,3.13,-3.14,-3.27,-3.55,4.45,4.45,4.45
68.69,7.58,3.17,7.58,3.17,-3.18,-3.31,-3.57,4.41,4.41,4.41
69.37,7.58,3.21,7.58,3.21,-3.22,-3.34,-3.58,4.37,4.37,4.37
70.07,7.58,3.25,7.58,3.25,-3.25,-3.38,-3.59,4.33,4.33,4.33
70.77,7.58,3.29,7.58,3.29,-3.29,-3.41,-3.61,4.29,4.29,4.29
71.48,7.58,3.33,7.59,3.33,-3.32,-3.45,-3.62,4.26,4.26,4.25
72.19,7.58,3.37,7.57,3.37,-3.35,-3.48,-3.63,4.23,4.22,4.21
72.91,7.56,3.41,7.55,3.39,-3.39,-3.51,-3.64,4.18,4.16,4.15
73.64,7.51,3.40,7.52,3.41,-3.42,-3.55,-3.65,4.10,4.10,4.11
74.38,7.48,3.42,7.49,3.43,-3.44,-3.58,-3.66,4.04,4.05,4.06
75.12,7.48,3.46,7.48,3.46,-3.47,-3.62,-3.67,4.01,4.01,4.02
75.87,7.48,3.50,7.48,3.50,-3.50,-3.65,-3.68,3.98,3.98,3.98
76.63,7.48,3.54,7.48,3.54,-3.53,-3.69,-3.69,3.96,3.96,3.95
77.40,7.48,3.57,7.48,3.57,-3.55,-3.72,-3.71,3.93,3.92,3.91
78.17,7.47,3.60,7.47,3.59,-3.59,-3.76,-3.72,3.89,3.88,3.87
78.95,7.45,3.61,7.46,3.62,-3.62,-3.79,-3.74,3.83,3.84,3.84
79.74,7.46,3.65,7.46,3.65,-3.66,-3.83,-3.76,3.80,3.80,3.81
80.54,7.47,3.69,7.46,3.68,-3.70,-3.86,-3.78,3.78,3.77,3.78
81.35,7.48,3.73,7.48,3.73,-3.74,-3.90,-3.81,3.74,3.75,3.75
82.16,7.49,3.77,7.52,3.79,-3.79,-3.94,-3.83,3.70,3.73,3.72
82.98,7.57,3.87,7.54,3.85,-3.85,-3.97,-3.86,3.73,3.70,3.70
83.81,7.58,3.92,7.57,3.91,-3.91,-4.01,-3.90,3.67,3.66,3.66
84.65,7.58,3.95,7.60,3.97,-3.98,-4.05,-3.93,3.60,3.62,3.63
85.50,7.63,4.03,7.65,4.05,-4.06,-4.09,-3.97,3.58,3.59,3.60
86.35,7.72,4.15,7.70,4.14,-4.13,-4.13,-4.01,3.59,3.57,3.57
87.22,7.78,4.24,7.76,4.22,-4.21,-4.17,-4.05,3.57,3.55,3.54
88.09,7.79,4.29,7.81,4.30,-4.29,-4.21,-4.10,3.50,3.52,3.50
88.97,7.84,4.36,7.85,4.37,-4.37,-4.25,-4.15,3.47,3.48,3.48
89.86,7.89,4.45,7.90,4.45,-4.45,-4.29,-4.20,3.44,3.44,3.44
90.76,7.96,4.55,7.94,4.53,-4.54,-4.34,-4.25,3.42,3.41,3.41
91.66,7.99,4.61,7.99,4.61,-4.62,-4.38,-4.31,3.37,3.37,3.38
92.58,8.01,4.66,8.05,4.70,-4.70,-4.42,-4.37,3.31,3.35,3.35
93.51,8.11,4.79,8.10,4.78,-4.78,-4.47,-4.44,3.33,3.32,3.32
94.44,8.19,4.90,8.16,4.87,-4.87,-4.51,-4.51,3.32,3.29,3.29
95.39,8.20,4.93,8.21,4.95,-4.95,-4.56,-4.58,3.26,3.27,3.27
96.34,8.24,5.01,8.26,5.03,-5.02,-4.61,-4.65,3.22,3.24,3.23
97.30,8.30,5.10,8.30,5.09,-5.09,-4.65,-4.73,3.22,3.21,3.20
98.28,8.36,5.19,8.34,5.16,-5.15,-4.70,-4.80,3.21,3.19,3.17
99.26,8.36,5.20,8.38,5.22,-5.21,-4.75,-4.88,3.15,3.16,3.16
100.25,8.39,5.26,8.39,5.26,-5.28,-4.80,-4.97,3.12,3.12,3.13
101.25,8.42,5.32,8.41,5.31,-5.34,-4.85,-5.05,3.09,3.07,3.10
102.27,8.42,5.35,8.43,5.37,-5.39,-4.90,-5.14,3.03,3.04,3.07
103.29,8.46,5.44,8.47,5.44,-5.44,-4.95,-5.23,3.02,3.03,3.02
104.32,8.51,5.51,8.51,5.51,-5.48,-5.00,-5.31,3.03,3.03,3.01
105.37,8.55,5.58,8.53,5.56,-5.52,-5.05,-5.40,3.03,3.01,2.97
106.42,8.53,5.59,8.53,5.59,-5.57,-5.10,-5.49,2.97,2.97,2.94
107.48,8.50,5.60,8.50,5.60,-5.61,-5.16,-5.58,2.89,2.89,2.90
108.56,8.48,5.62,8.47,5.61,-5.66,-5.21,-5.67,2.82,2.81,2.86
109.64,8.46,5.64,8.49,5.66,-5.71,-5.26,-5.76,2.75,2.78,2.82
110.74,8.51,5.71,8.53,5.73,-5.75,-5.32,-5.85,2.76,2.77,2.80
111.85,8.61,5.84,8.57,5.81,-5.80,-5.37,-5.94,2.81,2.78,2.77
112.97,8.61,5.89,8.61,5.88,-5.84,-5.42,-6.02,2.77,2.77,2.72
114.10,8.61,5.91,8.62,5.92,-5.88,-5.48,-6.10,2.73,2.74,2.70
115.24,8.61,5.95,8.61,5.94,-5.93,-5.53,-6.18,2.69,2.68,2.67
116.39,8.61,5.97,8.61,5.97,-5.97,-5.59,-6.25,2.64,2.64,2.64
117.55,8.61,6.00,8.61,6.00,-6.01,-5.64,-6.32,2.60,2.60,2.61
118.73,8.62,6.04,8.61,6.02,-6.06,-5.70,-6.39,2.57,2.55,2.59
119.92,8.62,6.04,8.63,6.05,-6.10,-5.75,-6.45,2.52,2.52,2.58
121.12,8.64,6.09,8.68,6.13,-6.15,-5.81,-6.51,2.49,2.53,2.55
122.33,8.77,6.23,8.75,6.21,-6.21,-5.86,-6.56,2.56,2.55,2.54
123.55,8.85,6.32,8.82,6.29,-6.26,-5.92,-6.60,2.59,2.56,2.53
124.79,8.85,6.34,8.86,6.35,-6.31,-5.97,-6.64,2.54,2.55,2.51
126.03,8.86,6.37,8.87,6.37,-6.36,-6.03,-6.68,2.50,2.51,2.49
127.29,8.87,6.39,8.87,6.39,-6.40,-6.08,-6.71,2.48,2.47,2.48
128.57,8.87,6.41,8.88,6.42,-6.42,-6.14,-6.73,2.45,2.46,2.46
129.85,8.88,6.44,8.88,6.44,-6.43,-6.19,-6.75,2.45,2.45,2.44
131.15,8.88,6.45,8.87,6.43,-6.43,-6.25,-6.76,2.45,2.44,2.43
132.46,8.84,6.42,8.84,6.42,-6.42,-6.30,-6.77,2.42,2.42,2.42
133.79,8.80,6.38,8.82,6.41,-6.41,-6.35,-6.78,2.39,2.41,2.42
135.12,8.79,6.40,8.80,6.40,-6.40,-6.41,-6.78,2.39,2.39,2.39
136.48,8.80,6.41,8.78,6.39,-6.39,-6.46,-6.78,2.41,2.38,2.39
137.84,8.75,6.38,8.76,6.39,-6.38,-6.52,-6.77,2.37,2.37,2.37
139.22,8.72,6.38,8.73,6.39,-6.38,-6.57,-6.76,2.34,2.35,2.34
140.61,8.71,6.39,8.71,6.38,-6.38,-6.62,-6.75,2.33,2.33,2.32
142.02,8.71,6.39,8.70,6.39,-6.40,-6.67,-6.74,2.31,2.30,2.32
143.44,8.71,6.41,8.71,6.41,-6.44,-6.73,-6.73,2.28,2.28,2.30
144.87,8.71,6.43,8.73,6.45,-6.48,-6.78,-6.72,2.23,2.25,2.28
146.32,8.78,6.53,8.77,6.51,-6.53,-6.83,-6.71,2.25,2.23,2.25
147.78,8.81,6.59,8.82,6.60,-6.60,-6.88,-6.70,2.22,2.22,2.23
149.26,8.87,6.68,8.87,6.68,-6.67,-6.93,-6.69,2.20,2.20,2.19
150.75,8.91,6.78,8.90,6.76,-6.75,-6.98,-6.68,2.16,2.15,2.14
152.26,8.91,6.82,8.92,6.83,-6.83,-7.03,-6.68,2.08,2.08,2.09
153.78,8.91,6.87,8.92,6.88,-6.90,-7.08,-6.68,2.01,2.02,2.04
155.32,8.91,6.94,8.91,6.93,-6.95,-7.12,-6.68,1.96,1.96,1.97
156.88,8.91,6.99,8.91,7.00,-6.96,-7.17,-6.68,1.95,1.95,1.92
158.44,8.87,7.02,8.88,7.02,-6.95,-7.22,-6.69,1.92,1.93,1.85
160.03,8.83,7.04,8.80,7.01,-6.91,-7.27,-6.70,1.92,1.89,1.79
161.63,8.66,6.92,8.67,6.94,-6.86,-7.31,-6.71,1.80,1.82,1.74
163.24,8.51,6.83,8.50,6.82,-6.81,-7.36,-6.73,1.70,1.69,1.68
164.88,8.35,6.70,8.34,6.70,-6.78,-7.40,-6.76,1.58,1.56,1.65
166.53,8.20,6.59,8.23,6.63,-6.76,-7.45,-6.78,1.44,1.47,1.61
168.19,8.21,6.63,8.22,6.64,-6.77,-7.49,-6.82,1.44,1.45,1.58
169.87,8.28,6.73,8.30,6.75,-6.81,-7.53,-6.85,1.47,1.49,1.55
171.57,8.46,6.93,8.43,6.89,-6.88,-7.57,-6.90,1.58,1.55,1.53
173.29,8.57,7.04,8.56,7.03,-6.97,-7.61,-6.94,1.60,1.58,1.53
175.02,8.65,7.13,8.67,7.15,-7.08,-7.65,-6.99,1.57,1.59,1.52
176.77,8.74,7.23,8.74,7.23,-7.18,-7.69,-7.05,1.56,1.56,1.51
178.54,8.83,7.32,8.82,7.30,-7.27,-7.73,-7.11,1.56,1.54,1.51
180.32,8.87,7.35,8.88,7.36,-7.34,-7.77,-7.18,1.53,1.54,1.52
182.13,8.93,7.40,8.93,7.41,-7.40,-7.81,-7.25,1.53,1.53,1.53
183.95,8.98,7.46,8.96,7.44,-7.46,-7.84,-7.33,1.52,1.51,1.52
185.79,8.99,7.47,8.99,7.47,-7.51,-7.88,-7.42,1.48,1.48,1.52
187.65,9.01,7.51,9.03,7.52,-7.56,-7.91,-7.50,1.45,1.47,1.51
189.52,9.07,7.57,9.10,7.59,-7.62,-7.95,-7.60,1.45,1.48,1.50
191.42,9.20,7.71,9.17,7.68,-7.67,-7.98,-7.69,1.53,1.50,1.49
193.33,9.25,7.77,9.24,7.76,-7.72,-8.01,-7.80,1.53,1.52,1.48
195.27,9.27,7.81,9.28,7.82,-7.77,-8.04,-7.90,1.50,1.51,1.47
197.22,9.28,7.84,9.28,7.84,-7.82,-8.07,-8.02,1.46,1.46,1.44
199.19,9.29,7.87,9.29,7.86,-7.87,-8.09,-8.13,1.42,1.41,1.42
201.18,9.30,7.89,9.30,7.89,-7.92,-8.12,-8.25,1.38,1.38,1.41
203.19,9.31,7.91,9.32,7.93,-7.97,-8.14,-8.38,1.34,1.36,1.40
205.23,9.37,8.00,9.37,7.98,-8.01,-8.17,-8.50,1.36,1.36,1.37
207.28,9.41,8.04,9.42,8.06,-8.05,-8.19,-8.63,1.36,1.37,1.37
209.35,9.48,8.14,9.47,8.12,-8.09,-8.21,-8.76,1.39,1.38,1.34
211.44,9.50,8.18,9.50,8.17,-8.13,-8.23,-8.89,1.37,1.36,1.32
213.56,9.50,8.19,9.51,8.19,-8.17,-8.24,-9.03,1.33,1.33,1.31
215.69,9.50,8.20,9.49,8.19,-8.21,-8.26,-9.16,1.29,1.29,1.31
217.85,9.49,8.19,9.50,8.21,-8.23,-8.27,-9.29,1.26,1.27,1.30
220.03,9.50,8.22,9.52,8.24,-8.25,-8.28,-9.41,1.25,1.27,1.28
222.23,9.57,8.30,9.56,8.28,-8.27,-8.29,-9.54,1.31,1.29,1.27
224.45,9.60,8.32,9.58,8.30,-8.28,-8.30,-9.65,1.32,1.30,1.28
226.70,9.59,8.30,9.59,8.30,-8.30,-8.31,-9.76,1.29,1.29,1.29
228.96,9.57,8.28,9.59,8.30,-8.32,-8.31,-9.86,1.26,1.28,1.29
231.25,9.60,8.30,9.62,8.32,-8.34,-8.31,-9.95,1.27,1.29,1.30
233.57,9.69,8.37,9.67,8.35,-8.36,-8.31,-10.03,1.33,1.31,1.32
235.90,9.72,8.39,9.71,8.38,-8.38,-8.30,-10.09,1.35,1.33,1.33
238.26,9.74,8.39,9.75,8.39,-8.40,-8.30,-10.15,1.35,1.35,1.35
240.64,9.76,8.38,9.79,8.41,-8.41,-8.29,-10.18,1.35,1.38,1.38
243.05,9.86,8.45,9.84,8.43,-8.43,-8.28,-10.20,1.43,1.41,1.41
245.48,9.91,8.47,9.90,8.46,-8.44,-8.26,-10.19,1.47,1.45,1.44
247.93,9.92,8.46,9.93,8.47,-8.45,-8.24,-10.17,1.47,1.48,1.46
250.41,9.94,8.46,9.94,8.46,-8.45,-8.22,-10.12,1.49,1.49,1.48
252.92,9.95,8.44,9.95,8.44,-8.45,-8.20,-10.06,1.50,1.50,1.51
255.45,9.96,8.42,9.96,8.43,-8.44,-8.17,-9.97,1.52,1.52,1.54
258.00,9.97,8.42,9.97,8.42,-8.43,-8.14,-9.87,1.54,1.54,1.55
260.58,9.98,8.41,9.98,8.41,-8.41,-8.11,-9.75,1.57,1.57,1.57
263.19,9.98,8.39,9.98,8.39,-8.39,-8.07,-9.61,1.59,1.59,1.59
265.82,9.98,8.37,9.99,8.37,-8.36,-8.03,-9.45,1.62,1.63,1.61
268.48,9.97,8.33,9.97,8.33,-8.33,-7.98,-9.28,1.64,1.64,1.64
271.16,9.97,8.31,9.94,8.28,-8.28,-7.93,-9.09,1.69,1.65,1.66
273.87,9.87,8.19,9.91,8.23,-8.23,-7.88,-8.89,1.64,1.68,1.68
276.61,9.87,8.17,9.88,8.17,-8.17,-7.82,-8.68,1.70,1.71,1.71
279.38,9.86,8.13,9.84,8.11,-8.09,-7.76,-8.46,1.77,1.74,1.73
282.17,9.79,8.04,9.78,8.02,-8.01,-7.70,-8.23,1.78,1.77,1.75
284.99,9.69,7.90,9.70,7.92,-7.92,-7.63,-8.00,1.77,1.79,1.79
287.84,9.60,7.79,9.63,7.81,-7.83,-7.56,-7.76,1.77,1.80,1.81
290.72,9.59,7.74,9.57,7.72,-7.73,-7.48,-7.52,1.86,1.84,1.85
293.63,9.51,7.63,9.51,7.63,-7.64,-7.40,-7.27,1.87,1.87,1.88
296.57,9.45,7.54,9.43,7.52,-7.54,-7.31,-7.02,1.91,1.89,1.91
299.53,9.33,7.40,9.38,7.44,-7.45,-7.22,-6.77,1.88,1.93,1.93
302.53,9.31,7.35,9.32,7.35,-7.36,-7.13,-6.52,1.95,1.96,1.96
305.55,9.32,7.32,9.25,7.26,-7.26,-7.03,-6.27,2.06,1.99,2.00
308.61,9.13,7.12,9.18,7.16,-7.15,-6.92,-6.02,1.98,2.03,2.01
311.69,9.07,7.04,9.09,7.05,-7.03,-6.81,-5.77,2.04,2.06,2.03
314.81,9.01,6.94,8.99,6.92,-6.91,-6.70,-5.53,2.10,2.07,2.07
317.96,8.90,6.82,8.88,6.80,-6.78,-6.58,-5.28,2.12,2.10,2.08
321.14,8.71,6.62,8.73,6.63,-6.64,-6.46,-5.04,2.07,2.09,2.10
324.35,8.55,6.45,8.56,6.46,-6.49,-6.33,-4.79,2.06,2.08,2.10
327.59,8.42,6.30,8.42,6.30,-6.32,-6.20,-4.55,2.10,2.10,2.12
330.87,8.29,6.16,8.30,6.18,-6.15,-6.07,-4.31,2.14,2.15,2.13
334.18,8.18,6.04,8.16,6.02,-5.98,-5.93,-4.07,2.20,2.18,2.14
337.52,8.00,5.85,7.97,5.82,-5.81,-5.78,-3.84,2.20,2.17,2.15
340.90,7.75,5.59,7.77,5.61,-5.63,-5.64,-3.61,2.12,2.14,2.17
344.30,7.54,5.37,7.58,5.40,-5.45,-5.48,-3.37,2.09,2.13,2.17
347.75,7.43,5.25,7.41,5.23,-5.26,-5.32,-3.15,2.17,2.15,2.18
351.23,7.27,5.08,7.28,5.09,-5.07,-5.16,-2.92,2.21,2.21,2.19
354.74,7.12,4.93,7.11,4.92,-4.87,-5.00,-2.69,2.25,2.23,2.19
358.28,6.93,4.73,6.90,4.70,-4.69,-4.83,-2.47,2.24,2.21,2.20
361.87,6.65,4.45,6.69,4.49,-4.51,-4.65,-2.25,2.14,2.18,2.20
365.49,6.48,4.28,6.49,4.29,-4.33,-4.47,-2.03,2.15,2.16,2.21
369.14,6.32,4.12,6.32,4.11,-4.14,-4.29,-1.81,2.18,2.17,2.20
372.83,6.17,3.97,6.17,3.97,-3.95,-4.11,-1.59,2.22,2.22,2.20
376.56,6.00,3.80,6.00,3.79,-3.76,-3.92,-1.37,2.25,2.24,2.20
380.33,5.82,3.60,5.80,3.59,-3.57,-3.72,-1.16,2.26,2.24,2.22
384.13,5.57,3.36,5.58,3.37,-3.38,-3.53,-0.95,2.20,2.21,2.21
387.97,5.35,3.14,5.36,3.15,-3.18,-3.33,-0.74,2.17,2.18,2.21
391.85,5.14,2.93,5.14,2.93,-2.96,-3.12,-0.53,2.18,2.17,2.21
395.77,4.93,2.71,4.95,2.74,-2.73,-2.91,-0.32,2.20,2.22,2.22
399.73,4.74,2.53,4.74,2.53,-2.49,-2.70,-0.11,2.26,2.26,2.22
403.72,4.54,2.34,4.49,2.28,-2.23,-2.49,0.09,2.31,2.26,2.21
407.76,4.19,1.99,4.20,2.00,-1.96,-2.27,0.29,2.23,2.24,2.20
411.84,3.87,1.66,3.91,1.70,-1.69,-2.05,0.49,2.18,2.21,2.21
415.96,3.61,1.41,3.60,1.40,-1.43,-1.83,0.68,2.19,2.18,2.20
420.12,3.35,1.15,3.32,1.12,-1.16,-1.60,0.88,2.19,2.16,2.20
424.32,3.04,0.83,3.05,0.84,-0.89,-1.37,1.07,2.15,2.16,2.21
428.56,2.77,0.56,2.81,0.59,-0.62,-1.14,1.25,2.15,2.19,2.21
432.85,2.59,0.36,2.60,0.37,-0.37,-0.91,1.44,2.23,2.24,2.23
437.18,2.46,0.21,2.42,0.16,-0.12,-0.67,1.62,2.34,2.30,2.25
441.55,2.22,-0.07,2.21,-0.07,0.12,-0.43,1.79,2.34,2.33,2.29
445.96,1.97,-0.35,1.98,-0.34,0.36,-0.19,1.96,2.33,2.34,2.32
450.42,1.73,-0.62,1.75,-0.61,0.58,0.05,2.12,2.32,2.33,2.35
454.93,1.56,-0.85,1.57,-0.83,0.80,0.30,2.28,2.36,2.37,2.41
459.48,1.42,-1.02,1.42,-1.03,1.00,0.54,2.43,2.42,2.42,2.45
464.07,1.31,-1.19,1.28,-1.22,1.19,0.79,2.57,2.50,2.47,2.51
468.71,1.15,-1.40,1.16,-1.40,1.36,1.04,2.70,2.51,2.52,2.56
473.40,1.01,-1.59,1.06,-1.55,1.53,1.28,2.83,2.54,2.58,2.60
478.13,0.98,-1.67,0.97,-1.68,1.69,1.53,2.95,2.67,2.66,2.65
482.91,0.91,-1.78,0.88,-1.81,1.86,1.78,3.06,2.77,2.75,2.69
487.74,0.76,-1.98,0.77,-1.97,2.05,2.03,3.16,2.81,2.82,2.74
492.62,0.60,-2.18,0.60,-2.18,2.24,2.28,3.26,2.84,2.84,2.78
497.55,0.40,-2.41,0.38,-2.43,2.44,2.52,3.34,2.84,2.82,2.81
502.52,0.15,-2.69,0.16,-2.68,2.65,2.77,3.42,2.80,2.81,2.84
507.55,-0.09,-2.94,-0.06,-2.92,2.87,3.01,3.48,2.78,2.81,2.85
512.62,-0.27,-3.13,-0.28,-3.14,3.09,3.25,3.54,2.82,2.82,2.86
517.75,-0.46,-3.33,-0.46,-3.33,3.31,3.49,3.59,2.86,2.85,2.87
522.93,-0.67,-3.53,-0.65,-3.51,3.53,3.72,3.63,2.86,2.88,2.86
528.16,-0.85,-3.68,-0.88,-3.72,3.74,3.95,3.66,2.89,2.86,2.83
533.44,-1.12,-3.93,-1.12,-3.93,3.94,4.17,3.68,2.82,2.82,2.81
538.77,-1.40,-4.17,-1.36,-4.14,4.15,4.39,3.70,2.75,2.78,2.77
544.16,-1.62,-4.35,-1.62,-4.36,4.35,4.60,3.71,2.73,2.73,2.73
549.60,-1.85,-4.54,-1.88,-4.57,4.57,4.80,3.71,2.72,2.69,2.69
555.10,-2.17,-4.80,-2.14,-4.78,4.80,5.00,3.71,2.64,2.66,2.63
