frequency,raw,error,smoothed,error_smoothed,equalization,parametric_eq,fixed_band_eq,equalized_raw,equalized_smoothed,target
20.00,-14.12,-9.31,-14.12,-9.31,6.00,5.18,2.72,-8.12,-8.12,-4.81
20.20,-14.01,-9.29,-14.01,-9.29,6.00,5.18,2.80,-8.01,-8.01,-4.72
20.40,-13.90,-9.27,-13.90,-9.27,6.00,5.18,2.88,-7.90,-7.90,-4.63
20.61,-13.79,-9.23,-13.79,-9.24,6.00,5.18,2.96,-7.79,-7.79,-4.56
20.81,-13.68,-9.21,-13.68,-9.21,6.00,5.18,3.05,-7.68,-7.68,-4.47
21.02,-13.57,-9.18,-13.57,-9.17,6.00,5.18,3.14,-7.57,-7.57,-4.39
21.23,-13.46,-9.13,-13.46,-9.13,6.00,5.18,3.22,-7.46,-7.46,-4.33
21.44,-13.34,-9.08,-13.35,-9.08,6.00,5.18,3.32,-7.34,-7.35,-4.27
21.66,-13.24,-9.04,-13.24,-9.03,6.00,5.18,3.41,-7.24,-7.24,-4.20
21.87,-13.12,-8.98,-13.13,-8.98,6.00,5.18,3.51,-7.12,-7.13,-4.15
22.09,-13.01,-8.92,-13.02,-8.92,6.00,5.17,3.61,-7.01,-7.02,-4.10
22.31,-12.90,-8.86,-12.90,-8.86,6.00,5.17,3.71,-6.90,-6.90,-4.05
22.54,-12.80,-8.80,-12.80,-8.79,6.00,5.17,3.82,-6.80,-6.80,-4.00
22.76,-12.69,-8.72,-12.69,-8.73,6.00,5.17,3.92,-6.69,-6.69,-3.96
22.99,-12.59,-8.66,-12.58,-8.66,6.00,5.17,4.03,-6.59,-6.58,-3.92
23.22,-12.48,-8.59,-12.48,-8.60,6.00,5.17,4.15,-6.48,-6.48,-3.88
23.45,-12.37,-8.53,-12.37,-8.53,6.00,5.17,4.26,-6.37,-6.37,-3.83
23.69,-12.26,-8.46,-12.26,-8.46,6.00,5.17,4.38,-6.26,-6.26,-3.79
23.92,-12.14,-8.39,-12.15,-8.40,6.00,5.17,4.50,-6.14,-6.15,-3.75
24.16,-12.05,-8.34,-12.04,-8.33,6.00,5.17,4.62,-6.05,-6.04,-3.70
24.40,-11.93,-8.27,-11.94,-8.27,6.00,5.17,4.75,-5.93,-5.94,-3.66
24.65,-11.83,-8.19,-11.83,-8.20,6.00,5.17,4.88,-5.83,-5.83,-3.64
24.89,-11.72,-8.13,-11.72,-8.13,6.00,5.16,5.00,-5.72,-5.72,-3.59
25.14,-11.61,-8.06,-11.61,-8.06,6.00,5.16,5.13,-5.61,-5.61,-3.56
25.39,-11.50,-7.99,-11.51,-7.99,6.00,5.16,5.26,-5.50,-5.51,-3.52
25.65,-11.41,-7.93,-11.40,-7.92,6.00,5.16,5.40,-5.41,-5.40,-3.48
25.91,-11.30,-7.85,-11.30,-7.85,6.00,5.16,5.53,-5.30,-5.30,-3.45
26.16,-11.18,-7.78,-11.19,-7.78,6.00,5.16,5.66,-5.18,-5.19,-3.41
26.43,-11.09,-7.71,-11.09,-7.71,6.00,5.16,5.79,-5.09,-5.09,-3.38
26.69,-10.99,-7.65,-10.99,-7.64,6.00,5.15,5.92,-4.99,-4.99,-3.34
26.96,-10.89,-7.59,-10.88,-7.58,6.00,5.15,6.05,-4.89,-4.88,-3.30
27.23,-10.78,-7.51,-10.78,-7.51,6.00,5.15,6.18,-4.78,-4.78,-3.27
27.50,-10.68,-7.44,-10.68,-7.44,6.00,5.15,6.30,-4.68,-4.68,-3.23
27.77,-10.57,-7.37,-10.57,-7.37,6.00,5.15,6.42,-4.57,-4.57,-3.20
28.05,-10.48,-7.31,-10.48,-7.30,6.00,5.15,6.53,-4.48,-4.48,-3.16
28.33,-10.38,-7.23,-10.38,-7.24,6.00,5.14,6.64,-4.38,-4.38,-3.15
28.62,-10.28,-7.17,-10.28,-7.17,6.00,5.14,6.74,-4.28,-4.28,-3.11
28.90,-10.18,-7.11,-10.18,-7.11,6.00,5.14,6.84,-4.18,-4.18,-3.07
29.19,-10.09,-7.05,-10.08,-7.05,6.00,5.14,6.93,-4.09,-4.08,-3.04
29.48,-9.99,-7.00,-9.98,-6.99,6.00,5.13,7.00,-3.99,-3.98,-2.99
29.78,-9.89,-6.92,-9.89,-6.92,6.00,5.13,7.08,-3.89,-3.89,-2.97
30.08,-9.80,-6.86,-9.80,-6.87,6.00,5.13,7.13,-3.80,-3.80,-2.93
30.38,-9.72,-6.81,-9.71,-6.81,6.00,5.12,7.18,-3.72,-3.71,-2.90
30.68,-9.64,-6.77,-9.64,-6.77,6.00,5.12,7.22,-3.64,-3.64,-2.86
30.99,-9.56,-6.71,-9.56,-6.72,6.00,5.12,7.25,-3.56,-3.56,-2.85
31.30,-9.49,-6.68,-9.48,-6.67,6.00,5.11,7.26,-3.49,-3.48,-2.81
31.61,-9.41,-6.63,-9.41,-6.63,6.00,5.11,7.27,-3.41,-3.41,-2.78
31.93,-9.33,-6.58,-9.33,-6.57,6.00,5.11,7.25,-3.33,-3.33,-2.75
32.24,-9.25,-6.51,-9.25,-6.52,6.00,5.10,7.24,-3.25,-3.25,-2.73
32.57,-9.17,-6.46,-9.17,-6.47,6.00,5.10,7.20,-3.17,-3.17,-2.70
32.89,-9.10,-6.43,-9.09,-6.42,6.00,5.09,7.17,-3.10,-3.09,-2.67
33.22,-9.02,-6.37,-9.02,-6.37,6.00,5.09,7.11,-3.02,-3.02,-2.65
33.55,-8.95,-6.32,-8.94,-6.32,6.00,5.08,7.05,-2.94,-2.94,-2.63
33.89,-8.87,-6.26,-8.87,-6.26,6.01,5.08,6.98,-2.86,-2.86,-2.61
34.23,-8.80,-6.21,-8.80,-6.21,6.01,5.07,6.91,-2.78,-2.78,-2.58
34.57,-8.73,-6.16,-8.73,-6.16,6.01,5.07,6.83,-2.72,-2.72,-2.56
34.92,-8.66,-6.10,-8.66,-6.11,6.00,5.06,6.74,-2.66,-2.66,-2.56
35.27,-8.59,-6.06,-8.59,-6.05,5.98,5.05,6.64,-2.61,-2.61,-2.53
35.62,-8.52,-6.00,-8.52,-5.99,5.95,5.04,6.55,-2.56,-2.56,-2.52
35.97,-8.45,-5.93,-8.44,-5.93,5.92,5.04,6.45,-2.53,-2.52,-2.51
36.33,-8.37,-5.87,-8.37,-5.87,5.87,5.03,6.34,-2.49,-2.49,-2.50
36.70,-8.30,-5.81,-8.30,-5.81,5.82,5.02,6.24,-2.48,-2.47,-2.49
37.06,-8.23,-5.74,-8.23,-5.75,5.76,5.01,6.13,-2.46,-2.46,-2.48
37.43,-8.16,-5.69,-8.16,-5.69,5.70,5.00,6.02,-2.46,-2.46,-2.46
37.81,-8.09,-5.63,-8.08,-5.63,5.63,4.99,5.91,-2.46,-2.46,-2.46
38.19,-8.01,-5.56,-8.01,-5.56,5.56,4.98,5.81,-2.45,-2.45,-2.45
38.57,-7.94,-5.49,-7.94,-5.49,5.49,4.97,5.70,-2.45,-2.45,-2.44
38.95,-7.87,-5.42,-7.86,-5.42,5.42,4.95,5.60,-2.44,-2.44,-2.45
39.34,-7.80,-5.35,-7.80,-5.35,5.35,4.94,5.49,-2.44,-2.45,-2.45
39.74,-7.73,-5.28,-7.73,-5.28,5.28,4.92,5.39,-2.45,-2.45,-2.44
40.14,-7.66,-5.21,-7.65,-5.21,5.21,4.91,5.29,-2.45,-2.44,-2.45
40.54,-7.58,-5.13,-7.58,-5.13,5.14,4.89,5.20,-2.44,-2.44,-2.45
40.94,-7.51,-5.06,-7.51,-5.06,5.07,4.87,5.10,-2.44,-2.44,-2.44
41.35,-7.44,-4.99,-7.44,-4.99,4.99,4.85,5.01,-2.44,-2.44,-2.45
41.76,-7.37,-4.92,-7.36,-4.92,4.92,4.83,4.92,-2.45,-2.44,-2.44
42.18,-7.29,-4.85,-7.29,-4.85,4.84,4.81,4.84,-2.44,-2.44,-2.43
42.60,-7.21,-4.77,-7.21,-4.77,4.77,4.79,4.75,-2.44,-2.44,-2.44
43.03,-7.13,-4.69,-7.13,-4.69,4.69,4.76,4.68,-2.44,-2.44,-2.43
43.46,-7.06,-4.62,-7.06,-4.61,4.61,4.73,4.60,-2.44,-2.44,-2.44
43.90,-6.99,-4.53,-6.98,-4.53,4.53,4.70,4.53,-2.45,-2.45,-2.45
44.33,-6.91,-4.45,-6.91,-4.45,4.45,4.67,4.46,-2.45,-2.46,-2.46
44.78,-6.84,-4.37,-6.84,-4.37,4.38,4.63,4.39,-2.46,-2.46,-2.46
45.23,-6.77,-4.30,-6.77,-4.30,4.30,4.59,4.33,-2.47,-2.47,-2.47
45.68,-6.70,-4.22,-6.70,-4.22,4.22,4.55,4.27,-2.47,-2.47,-2.47
46.13,-6.63,-4.15,-6.63,-4.15,4.15,4.51,4.21,-2.47,-2.48,-2.48
46.60,-6.56,-4.08,-6.56,-4.08,4.08,4.46,4.16,-2.48,-2.48,-2.48
47.06,-6.49,-4.01,-6.49,-4.01,4.01,4.41,4.11,-2.48,-2.48,-2.47
47.53,-6.42,-3.94,-6.42,-3.94,3.93,4.35,4.07,-2.48,-2.48,-2.48
48.01,-6.35,-3.88,-6.35,-3.87,3.87,4.29,4.02,-2.48,-2.48,-2.47
48.49,-6.29,-3.80,-6.28,-3.80,3.80,4.23,3.98,-2.49,-2.48,-2.48
48.97,-6.22,-3.73,-6.22,-3.73,3.74,4.16,3.94,-2.48,-2.48,-2.49
49.46,-6.17,-3.67,-6.16,-3.67,3.68,4.08,3.91,-2.49,-2.49,-2.50
49.96,-6.11,-3.60,-6.11,-3.61,3.62,4.00,3.88,-2.48,-2.49,-2.50
50.46,-6.07,-3.58,-6.06,-3.57,3.58,3.91,3.85,-2.49,-2.49,-2.48
50.96,-6.02,-3.54,-6.02,-3.53,3.53,3.82,3.82,-2.48,-2.49,-2.48
51.47,-5.99,-3.50,-5.98,-3.50,3.50,3.73,3.80,-2.49,-2.48,-2.49
51.99,-5.95,-3.47,-5.95,-3.47,3.47,3.64,3.78,-2.48,-2.48,-2.48
52.51,-5.92,-3.45,-5.92,-3.45,3.44,3.54,3.76,-2.47,-2.47,-2.47
53.03,-5.89,-3.43,-5.88,-3.42,3.42,3.44,3.74,-2.47,-2.46,-2.46
53.56,-5.86,-3.40,-5.86,-3.40,3.40,3.34,3.72,-2.45,-2.46,-2.46
54.10,-5.84,-3.38,-5.83,-3.38,3.39,3.26,3.71,-2.45,-2.45,-2.46
54.64,-5.82,-3.37,-5.82,-3.37,3.37,3.17,3.70,-2.44,-2.45,-2.45
55.18,-5.81,-3.36,-5.81,-3.36,3.36,3.11,3.69,-2.44,-2.45,-2.45
55.74,-5.81,-3.36,-5.80,-3.36,3.35,3.05,3.68,-2.45,-2.45,-2.45
56.29,-5.81,-3.36,-5.80,-3.35,3.35,3.01,3.67,-2.45,-2.45,-2.45
56.86,-5.81,-3.35,-5.81,-3.35,3.35,2.99,3.66,-2.45,-2.45,-2.45
57.42,-5.82,-3.35,-5.82,-3.35,3.36,2.99,3.65,-2.46,-2.46,-2.46
58.00,-5.83,-3.36,-5.83,-3.36,3.37,3.01,3.65,-2.46,-2.46,-2.47
58.58,-5.85,-3.38,-5.85,-3.38,3.38,3.05,3.64,-2.47,-2.46,-2.47
59.16,-5.87,-3.39,-5.87,-3.40,3.39,3.10,3.64,-2.47,-2.48,-2.47
59.76,-5.90,-3.42,-5.90,-3.42,3.41,3.16,3.64,-2.49,-2.49,-2.48
60.35,-5.93,-3.44,-5.93,-3.44,3.42,3.24,3.63,-2.51,-2.50,-2.49
60.96,-5.96,-3.45,-5.95,-3.44,3.44,3.32,3.63,-2.52,-2.52,-2.51
61.57,-5.99,-3.46,-5.99,-3.46,3.46,3.41,3.63,-2.53,-2.53,-2.53
62.18,-6.02,-3.46,-6.02,-3.47,3.48,3.49,3.63,-2.54,-2.54,-2.56
62.80,-6.07,-3.50,-6.06,-3.49,3.51,3.58,3.62,-2.56,-2.56,-2.56
63.43,-6.11,-3.52,-6.11,-3.52,3.54,3.66,3.62,-2.57,-2.57,-2.59
64.07,-6.17,-3.57,-6.16,-3.57,3.58,3.74,3.62,-2.59,-2.59,-2.60
64.71,-6.22,-3.61,-6.22,-3.62,3.62,3.82,3.62,-2.60,-2.61,-2.60
65.35,-6.29,-3.68,-6.28,-3.67,3.66,3.89,3.62,-2.63,-2.62,-2.61
66.01,-6.35,-3.73,-6.34,-3.72,3.71,3.96,3.62,-2.64,-2.63,-2.62
66.67,-6.40,-3.77,-6.39,-3.77,3.76,4.02,3.62,-2.64,-2.63,-2.63
67.33,-6.44,-3.81,-6.44,-3.81,3.81,4.08,3.62,-2.63,-2.63,-2.63
68.01,-6.48,-3.85,-6.48,-3.85,3.86,4.14,3.62,-2.61,-2.62,-2.63
68.69,-6.54,-3.91,-6.53,-3.90,3.91,4.18,3.62,-2.62,-2.62,-2.63
69.37,-6.59,-3.96,-6.59,-3.96,3.96,4.23,3.62,-2.62,-2.63,-2.63
70.07,-6.65,-4.01,-6.64,-4.01,4.01,4.27,3.63,-2.63,-2.63,-2.63
70.77,-6.70,-4.07,-6.70,-4.07,4.06,4.31,3.63,-2.63,-2.63,-2.62
71.48,-6.75,-4.12,-6.75,-4.12,4.11,4.34,3.64,-2.63,-2.63,-2.63
72.19,-6.80,-4.17,-6.80,-4.17,4.16,4.37,3.65,-2.63,-2.63,-2.63
72.91,-6.85,-4.21,-6.85,-4.21,4.21,4.40,3.66,-2.64,-2.64,-2.64
73.64,-6.90,-4.25,-6.89,-4.25,4.25,4.43,3.67,-2.64,-2.64,-2.65
74.38,-6.94,-4.29,-6.94,-4.29,4.29,4.45,3.68,-2.64,-2.65,-2.64
75.12,-6.99,-4.34,-6.98,-4.33,4.33,4.47,3.70,-2.66,-2.65,-2.65
75.87,-7.02,-4.37,-7.02,-4.37,4.36,4.50,3.71,-2.65,-2.65,-2.65
76.63,-7.06,-4.40,-7.05,-4.40,4.40,4.51,3.73,-2.66,-2.65,-2.65
77.40,-7.08,-4.43,-7.08,-4.43,4.43,4.53,3.75,-2.65,-2.65,-2.65
78.17,-7.11,-4.45,-7.11,-4.45,4.46,4.55,3.78,-2.65,-2.65,-2.66
78.95,-7.14,-4.49,-7.13,-4.49,4.49,4.56,3.81,-2.65,-2.65,-2.65
79.74,-7.16,-4.52,-7.16,-4.52,4.52,4.58,3.84,-2.64,-2.64,-2.64
80.54,-7.18,-4.55,-7.17,-4.55,4.55,4.59,3.87,-2.63,-2.63,-2.63
81.35,-7.19,-4.57,-7.19,-4.57,4.58,4.61,3.90,-2.61,-2.61,-2.62
82.16,-7.20,-4.59,-7.20,-4.60,4.60,4.62,3.94,-2.59,-2.60,-2.61
82.98,-7.22,-4.64,-7.22,-4.63,4.63,4.63,3.98,-2.58,-2.58,-2.58
83.81,-7.24,-4.67,-7.23,-4.66,4.66,4.64,4.03,-2.58,-2.57,-2.57
84.65,-7.24,-4.67,-7.24,-4.69,4.68,4.65,4.07,-2.56,-2.56,-2.56
85.50,-7.24,-4.71,-7.24,-4.71,4.70,4.66,4.13,-2.53,-2.54,-2.52
86.35,-7.24,-4.73,-7.23,-4.72,4.72,4.67,4.18,-2.52,-2.51,-2.51
87.22,-7.23,-4.73,-7.23,-4.73,4.73,4.67,4.24,-2.49,-2.49,-2.49
88.09,-7.22,-4.73,-7.22,-4.74,4.75,4.68,4.30,-2.47,-2.47,-2.49
88.97,-7.22,-4.76,-7.22,-4.75,4.75,4.68,4.36,-2.46,-2.46,-2.46
89.86,-7.22,-4.76,-7.22,-4.76,4.76,4.69,4.43,-2.46,-2.46,-2.46
90.76,-7.22,-4.76,-7.22,-4.76,4.76,4.69,4.50,-2.45,-2.45,-2.46
91.66,-7.22,-4.77,-7.22,-4.76,4.76,4.69,4.57,-2.45,-2.45,-2.45
92.58,-7.22,-4.75,-7.22,-4.76,4.76,4.69,4.64,-2.45,-2.45,-2.46
93.51,-7.22,-4.76,-7.22,-4.76,4.75,4.68,4.72,-2.46,-2.46,-2.46
94.44,-7.22,-4.75,-7.22,-4.75,4.74,4.68,4.81,-2.47,-2.48,-2.47
95.39,-7.22,-4.73,-7.22,-4.73,4.72,4.67,4.89,-2.49,-2.49,-2.48
96.34,-7.22,-4.71,-7.21,-4.71,4.70,4.66,4.98,-2.52,-2.52,-2.51
97.30,-7.21,-4.67,-7.21,-4.68,4.67,4.65,5.07,-2.54,-2.54,-2.54
98.28,-7.21,-4.64,-7.20,-4.64,4.64,4.64,5.16,-2.57,-2.56,-2.56
99.26,-7.20,-4.60,-7.19,-4.60,4.60,4.63,5.25,-2.59,-2.59,-2.59
100.25,-7.19,-4.56,-7.19,-4.56,4.57,4.62,5.35,-2.62,-2.62,-2.63
101.25,-7.20,-4.53,-7.19,-4.53,4.54,4.61,5.45,-2.66,-2.66,-2.67
102.27,-7.21,-4.51,-7.20,-4.50,4.51,4.59,5.55,-2.70,-2.70,-2.70
103.29,-7.22,-4.47,-7.22,-4.48,4.48,4.58,5.65,-2.74,-2.74,-2.74
104.32,-7.24,-4.46,-7.23,-4.46,4.46,4.57,5.75,-2.78,-2.78,-2.77
105.37,-7.26,-4.44,-7.25,-4.45,4.44,4.56,5.85,-2.81,-2.81,-2.81
106.42,-7.28,-4.44,-7.28,-4.44,4.43,4.55,5.94,-2.84,-2.84,-2.84
107.48,-7.31,-4.43,-7.30,-4.42,4.43,4.54,6.04,-2.87,-2.87,-2.88
108.56,-7.34,-4.42,-7.34,-4.42,4.44,4.53,6.13,-2.90,-2.90,-2.92
109.64,-7.39,-4.43,-7.39,-4.44,4.45,4.52,6.23,-2.94,-2.94,-2.95
110.74,-7.45,-4.46,-7.44,-4.46,4.46,4.52,6.31,-2.98,-2.98,-2.98
111.85,-7.50,-4.50,-7.50,-4.49,4.48,4.52,6.40,-3.02,-3.02,-3.00
112.97,-7.56,-4.51,-7.56,-4.52,4.50,4.52,6.48,-3.05,-3.05,-3.05
114.10,-7.61,-4.54,-7.60,-4.54,4.52,4.52,6.55,-3.08,-3.08,-3.07
115.24,-7.65,-4.55,-7.64,-4.55,4.55,4.53,6.61,-3.10,-3.10,-3.09
116.39,-7.68,-4.57,-7.68,-4.57,4.57,4.54,6.67,-3.11,-3.11,-3.11
117.55,-7.72,-4.58,-7.72,-4.59,4.59,4.56,6.71,-3.12,-3.13,-3.14
118.73,-7.77,-4.61,-7.76,-4.61,4.61,4.57,6.76,-3.15,-3.15,-3.15
119.92,-7.81,-4.65,-7.81,-4.64,4.64,4.60,6.78,-3.17,-3.17,-3.16
121.12,-7.85,-4.67,-7.84,-4.67,4.67,4.62,6.80,-3.18,-3.18,-3.17
122.33,-7.88,-4.69,-7.88,-4.69,4.69,4.65,6.80,-3.18,-3.18,-3.19
123.55,-7.92,-4.72,-7.93,-4.73,4.73,4.68,6.80,-3.19,-3.20,-3.20
124.79,-7.99,-4.78,-7.98,-4.77,4.76,4.72,6.77,-3.22,-3.22,-3.21
126.03,-8.05,-4.82,-8.03,-4.81,4.80,4.75,6.75,-3.24,-3.23,-3.22
127.29,-8.08,-4.85,-8.08,-4.85,4.85,4.80,6.70,-3.23,-3.23,-3.23
128.57,-8.13,-4.87,-8.14,-4.90,4.91,4.84,6.65,-3.22,-3.24,-3.25
129.85,-8.22,-4.95,-8.22,-4.95,4.97,4.90,6.57,-3.25,-3.25,-3.26
131.15,-8.33,-5.05,-8.30,-5.03,5.03,4.95,6.50,-3.29,-3.27,-3.28
132.46,-8.39,-5.10,-8.41,-5.12,5.11,5.01,6.40,-3.28,-3.30,-3.29
133.79,-8.50,-5.21,-8.50,-5.20,5.19,5.07,6.31,-3.30,-3.31,-3.29
135.12,-8.63,-5.31,-8.60,-5.29,5.29,5.14,6.19,-3.33,-3.31,-3.32
136.48,-8.70,-5.38,-8.71,-5.39,5.41,5.21,6.08,-3.29,-3.31,-3.32
137.84,-8.84,-5.50,-8.82,-5.48,5.52,5.28,5.95,-3.31,-3.30,-3.34
139.22,-8.95,-5.58,-8.96,-5.59,5.63,5.35,5.82,-3.31,-3.32,-3.37
140.61,-9.10,-5.71,-9.11,-5.73,5.74,5.43,5.67,-3.36,-3.38,-3.39
142.02,-9.31,-5.91,-9.27,-5.87,5.83,5.51,5.53,-3.48,-3.45,-3.40
143.44,-9.42,-6.00,-9.43,-6.01,5.90,5.60,5.38,-3.52,-3.53,-3.41
144.87,-9.60,-6.16,-9.59,-6.15,5.96,5.68,5.22,-3.64,-3.63,-3.44
146.32,-9.72,-6.25,-9.73,-6.27,6.00,5.76,5.06,-3.72,-3.73,-3.47
147.78,-9.90,-6.42,-9.89,-6.41,6.02,5.85,4.90,-3.88,-3.87,-3.47
149.26,-10.05,-6.55,-10.05,-6.55,6.03,5.93,4.74,-4.02,-4.03,-3.50
150.75,-10.25,-6.70,-10.24,-6.70,6.02,6.01,4.58,-4.23,-4.22,-3.54
152.26,-10.41,-6.84,-10.41,-6.85,6.01,6.09,4.41,-4.40,-4.41,-3.57
153.78,-10.62,-7.03,-10.61,-7.02,6.00,6.17,4.25,-4.62,-4.61,-3.59
155.32,-10.79,-7.16,-10.80,-7.18,6.00,6.23,4.08,-4.79,-4.80,-3.62
156.88,-11.02,-7.37,-11.00,-7.35,6.00,6.30,3.91,-5.02,-5.00,-3.65
158.44,-11.17,-7.49,-11.19,-7.51,6.00,6.35,3.75,-5.17,-5.19,-3.68
160.03,-11.39,-7.67,-11.36,-7.64,6.00,6.40,3.58,-5.39,-5.36,-3.72
161.63,-11.52,-7.77,-11.52,-7.77,6.00,6.43,3.42,-5.52,-5.52,-3.75
163.24,-11.64,-7.86,-11.66,-7.89,6.00,6.46,3.26,-5.64,-5.66,-3.78
164.88,-11.81,-8.00,-11.78,-7.98,6.00,6.46,3.10,-5.81,-5.78,-3.80
166.53,-11.91,-8.08,-11.91,-8.07,6.00,6.46,2.94,-5.91,-5.91,-3.83
168.19,-11.99,-8.12,-12.00,-8.14,6.00,6.43,2.78,-5.99,-6.00,-3.87
169.87,-12.08,-8.19,-12.06,-8.17,6.00,6.40,2.62,-6.08,-6.06,-3.89
171.57,-12.10,-8.18,-12.09,-8.18,6.00,6.33,2.46,-6.10,-6.09,-3.91
173.29,-12.09,-8.14,-12.08,-8.14,6.00,6.26,2.31,-6.08,-6.08,-3.94
175.02,-12.03,-8.07,-12.03,-8.07,6.02,6.16,2.15,-6.00,-6.01,-3.96
176.77,-11.96,-7.96,-11.96,-7.97,6.04,6.05,2.00,-5.91,-5.92,-3.99
178.54,-11.87,-7.85,-11.87,-7.85,6.05,5.90,1.85,-5.82,-5.82,-4.02
180.32,-11.74,-7.70,-11.74,-7.70,6.04,5.76,1.70,-5.70,-5.70,-4.04
182.13,-11.59,-7.55,-11.56,-7.51,5.99,5.58,1.56,-5.59,-5.56,-4.04
183.95,-11.32,-7.25,-11.34,-7.28,5.91,5.39,1.41,-5.40,-5.43,-4.07
185.79,-11.10,-7.02,-11.10,-7.03,5.80,5.18,1.27,-5.30,-5.31,-4.08
187.65,-10.86,-6.76,-10.84,-6.75,5.64,4.97,1.12,-5.21,-5.20,-4.09
189.52,-10.58,-6.47,-10.58,-6.47,5.45,4.74,0.98,-5.13,-5.13,-4.11
191.42,-10.28,-6.16,-10.28,-6.16,5.22,4.50,0.84,-5.05,-5.05,-4.12
193.33,-9.96,-5.83,-9.96,-5.83,4.97,4.24,0.70,-4.98,-4.99,-4.13
195.27,-9.63,-5.48,-9.63,-5.48,4.71,3.99,0.56,-4.91,-4.92,-4.14
197.22,-9.29,-5.13,-9.29,-5.13,4.45,3.72,0.43,-4.84,-4.84,-4.15
199.19,-8.94,-4.75,-8.93,-4.76,4.18,3.45,0.29,-4.75,-4.75,-4.19
201.18,-8.56,-4.37,-8.55,-4.36,3.92,3.17,0.16,-4.64,-4.63,-4.19
203.19,-8.16,-3.96,-8.16,-3.96,3.63,2.89,0.03,-4.52,-4.53,-4.20
205.23,-7.75,-3.53,-7.75,-3.54,3.32,2.61,-0.10,-4.43,-4.43,-4.22
207.28,-7.34,-3.12,-7.34,-3.11,2.98,2.32,-0.23,-4.35,-4.36,-4.22
209.35,-6.93,-2.69,-6.92,-2.68,2.62,2.03,-0.35,-4.30,-4.30,-4.24
211.44,-6.50,-2.24,-6.50,-2.25,2.25,1.75,-0.48,-4.25,-4.25,-4.26
213.56,-6.07,-1.81,-6.05,-1.80,1.86,1.46,-0.60,-4.21,-4.20,-4.25
215.69,-5.64,-1.38,-5.64,-1.38,1.45,1.17,-0.72,-4.19,-4.19,-4.25
217.85,-5.21,-0.95,-5.26,-0.99,1.03,0.89,-0.83,-4.17,-4.22,-4.26
220.03,-4.92,-0.64,-4.89,-0.62,0.61,0.61,-0.95,-4.30,-4.28,-4.28
222.23,-4.56,-0.27,-4.53,-0.25,0.21,0.32,-1.06,-4.35,-4.32,-4.29
224.45,-4.14,0.14,-4.13,0.15,-0.18,0.04,-1.17,-4.31,-4.31,-4.27
226.70,-3.73,0.55,-3.73,0.55,-0.55,-0.23,-1.27,-4.28,-4.28,-4.28
228.96,-3.31,0.98,-3.35,0.93,-0.92,-0.51,-1.37,-4.22,-4.27,-4.29
231.25,-3.04,1.25,-3.00,1.29,-1.27,-0.78,-1.46,-4.30,-4.26,-4.29
233.57,-2.69,1.60,-2.67,1.62,-1.61,-1.05,-1.56,-4.30,-4.28,-4.29
235.90,-2.32,1.98,-2.35,1.94,-1.94,-1.31,-1.64,-4.25,-4.29,-4.30
238.26,-2.07,2.25,-2.05,2.26,-2.25,-1.57,-1.73,-4.32,-4.30,-4.31
240.64,-1.77,2.54,-1.78,2.53,-2.55,-1.83,-1.81,-4.31,-4.33,-4.31
243.05,-1.54,2.78,-1.52,2.80,-2.82,-2.08,-1.88,-4.36,-4.34,-4.32
245.48,-1.27,3.04,-1.25,3.07,-3.08,-2.33,-1.95,-4.34,-4.32,-4.31
247.93,-0.96,3.36,-0.99,3.33,-3.31,-2.57,-2.02,-4.27,-4.31,-4.32
250.41,-0.77,3.56,-0.75,3.57,-3.54,-2.81,-2.08,-4.30,-4.28,-4.32
252.92,-0.53,3.78,-0.54,3.77,-3.75,-3.04,-2.13,-4.27,-4.29,-4.31
255.45,-0.36,3.93,-0.36,3.94,-3.94,-3.27,-2.18,-4.30,-4.30,-4.29
258.00,-0.20,4.09,-0.18,4.10,-4.12,-3.49,-2.23,-4.32,-4.30,-4.29
260.58,-0.01,4.27,-0.01,4.26,-4.28,-3.70,-2.27,-4.29,-4.29,-4.28
263.19,0.15,4.41,0.17,4.43,-4.43,-3.91,-2.31,-4.27,-4.26,-4.25
265.82,0.34,4.59,0.32,4.57,-4.56,-4.10,-2.34,-4.22,-4.24,-4.25
268.48,0.46,4.70,0.46,4.69,-4.68,-4.30,-2.37,-4.22,-4.22,-4.23
271.16,0.57,4.79,0.59,4.81,-4.80,-4.47,-2.40,-4.23,-4.21,-4.22
273.87,0.71,4.91,0.70,4.90,-4.91,-4.65,-2.42,-4.19,-4.21,-4.20
276.61,0.81,5.00,0.81,5.00,-5.01,-4.81,-2.44,-4.19,-4.19,-4.18
279.38,0.91,5.09,0.91,5.09,-5.10,-4.96,-2.46,-4.18,-4.19,-4.18
282.17,1.00,5.17,1.01,5.17,-5.18,-5.10,-2.48,-4.18,-4.17,-4.17
284.99,1.09,5.24,1.10,5.25,-5.25,-5.23,-2.49,-4.16,-4.15,-4.14
287.84,1.20,5.34,1.19,5.33,-5.32,-5.34,-2.51,-4.12,-4.13,-4.14
290.72,1.27,5.39,1.27,5.39,-5.38,-5.45,-2.52,-4.11,-4.11,-4.12
293.63,1.33,5.44,1.34,5.44,-5.43,-5.55,-2.53,-4.10,-4.09,-4.10
296.57,1.38,5.46,1.39,5.47,-5.47,-5.63,-2.54,-4.08,-4.08,-4.07
299.53,1.43,5.50,1.43,5.50,-5.49,-5.70,-2.55,-4.06,-4.06,-4.07
302.53,1.47,5.52,1.47,5.52,-5.51,-5.76,-2.57,-4.03,-4.04,-4.05
305.55,1.50,5.52,1.50,5.52,-5.51,-5.81,-2.58,-4.01,-4.01,-4.01
308.61,1.52,5.52,1.52,5.51,-5.51,-5.85,-2.59,-3.99,-3.99,-3.99
311.69,1.53,5.50,1.53,5.50,-5.51,-5.87,-2.60,-3.97,-3.97,-3.97
314.81,1.54,5.47,1.55,5.48,-5.49,-5.89,-2.62,-3.95,-3.95,-3.93
317.96,1.55,5.46,1.56,5.47,-5.48,-5.89,-2.63,-3.92,-3.92,-3.91
321.14,1.57,5.46,1.57,5.46,-5.46,-5.89,-2.65,-3.88,-3.89,-3.88
324.35,1.58,5.45,1.58,5.44,-5.43,-5.87,-2.67,-3.85,-3.86,-3.86
327.59,1.57,5.41,1.58,5.41,-5.41,-5.85,-2.69,-3.83,-3.83,-3.84
330.87,1.56,5.37,1.57,5.38,-5.38,-5.82,-2.71,-3.81,-3.81,-3.81
334.18,1.55,5.34,1.55,5.34,-5.34,-5.78,-2.73,-3.79,-3.79,-3.79
337.52,1.53,5.30,1.54,5.30,-5.30,-5.74,-2.76,-3.76,-3.76,-3.76
340.90,1.52,5.26,1.52,5.25,-5.25,-5.69,-2.79,-3.73,-3.73,-3.73
344.30,1.49,5.20,1.49,5.20,-5.20,-5.63,-2.82,-3.70,-3.70,-3.71
347.75,1.46,5.15,1.47,5.15,-5.15,-5.57,-2.85,-3.68,-3.68,-3.69
351.23,1.43,5.09,1.43,5.09,-5.09,-5.51,-2.88,-3.66,-3.66,-3.66
354.74,1.39,5.02,1.40,5.03,-5.04,-5.44,-2.92,-3.64,-3.64,-3.63
358.28,1.36,4.97,1.37,4.97,-4.98,-5.37,-2.96,-3.62,-3.62,-3.61
361.87,1.34,4.93,1.34,4.92,-4.93,-5.30,-3.00,-3.58,-3.59,-3.58
365.49,1.31,4.88,1.31,4.88,-4.87,-5.22,-3.05,-3.56,-3.56,-3.56
369.14,1.28,4.83,1.29,4.83,-4.82,-5.14,-3.09,-3.54,-3.53,-3.54
372.83,1.25,4.78,1.25,4.77,-4.77,-5.07,-3.14,-3.52,-3.52,-3.53
376.56,1.21,4.72,1.21,4.71,-4.72,-4.99,-3.19,-3.51,-3.51,-3.51
380.33,1.17,4.65,1.18,4.66,-4.68,-4.91,-3.25,-3.51,-3.50,-3.48
384.13,1.14,4.61,1.15,4.62,-4.63,-4.83,-3.30,-3.49,-3.48,-3.47
387.97,1.13,4.59,1.13,4.59,-4.59,-4.75,-3.36,-3.46,-3.46,-3.46
391.85,1.11,4.56,1.11,4.55,-4.54,-4.67,-3.42,-3.43,-3.44,-3.45
395.77,1.07,4.51,1.08,4.51,-4.49,-4.59,-3.48,-3.42,-3.42,-3.43
399.73,1.03,4.46,1.04,4.46,-4.44,-4.51,-3.54,-3.41,-3.41,-3.42
403.72,0.99,4.41,0.99,4.40,-4.39,-4.43,-3.61,-3.40,-3.40,-3.41
407.76,0.94,4.35,0.94,4.34,-4.34,-4.35,-3.67,-3.39,-3.40,-3.40
411.84,0.88,4.27,0.89,4.28,-4.28,-4.28,-3.74,-3.40,-3.40,-3.39
415.96,0.83,4.22,0.83,4.22,-4.23,-4.20,-3.80,-3.40,-3.40,-3.39
420.12,0.77,4.16,0.78,4.17,-4.19,-4.13,-3.87,-3.41,-3.40,-3.39
424.32,0.74,4.13,0.74,4.13,-4.14,-4.06,-3.94,-3.40,-3.40,-3.39
428.56,0.71,4.10,0.71,4.10,-4.10,-3.99,-4.00,-3.39,-3.39,-3.39
432.85,0.68,4.07,0.69,4.07,-4.07,-3.92,-4.07,-3.38,-3.38,-3.39
437.18,0.65,4.04,0.65,4.04,-4.03,-3.85,-4.13,-3.38,-3.38,-3.39
