frequency,raw,error,smoothed,error_smoothed,equalization,parametric_eq,fixed_band_eq,equalized_raw,equalized_smoothed,target
20.00,14.35,9.91,14.35,9.90,-9.91,-9.94,-4.80,4.44,4.43,4.44
20.20,14.37,9.94,14.37,9.94,-9.95,-9.94,-4.93,4.42,4.42,4.43
20.40,14.39,9.98,14.39,9.98,-9.98,-9.94,-5.05,4.41,4.41,4.41
20.61,14.41,10.01,14.41,10.01,-10.01,-9.94,-5.19,4.40,4.40,4.40
20.81,14.43,10.05,14.43,10.05,-10.04,-9.94,-5.32,4.39,4.39,4.38
21.02,14.45,10.08,14.44,10.07,-10.06,-9.94,-5.46,4.39,4.38,4.37
21.23,14.45,10.09,14.45,10.09,-10.08,-9.94,-5.60,4.37,4.37,4.36
21.44,14.45,10.10,14.45,10.10,-10.10,-9.94,-5.75,4.35,4.35,4.35
21.66,14.45,10.12,14.45,10.11,-10.11,-9.94,-5.90,4.33,4.33,4.33
21.87,14.45,10.12,14.45,10.12,-10.13,-9.94,-6.05,4.32,4.32,4.33
22.09,14.45,10.13,14.45,10.13,-10.13,-9.94,-6.21,4.31,4.31,4.32
22.31,14.45,10.14,14.45,10.14,-10.14,-9.94,-6.38,4.31,4.31,4.31
22.54,14.45,10.15,14.45,10.15,-10.15,-9.94,-6.54,4.30,4.30,4.30
22.76,14.45,10.16,14.45,10.16,-10.16,-9.94,-6.72,4.29,4.29,4.29
22.99,14.45,10.16,14.45,10.16,-10.16,-9.94,-6.89,4.28,4.28,4.29
23.22,14.45,10.17,14.45,10.17,-10.17,-9.94,-7.07,4.28,4.28,4.28
23.45,14.45,10.17,14.45,10.17,-10.17,-9.94,-7.26,4.28,4.28,4.28
23.69,14.45,10.17,14.45,10.17,-10.16,-9.93,-7.45,4.29,4.29,4.28
23.92,14.45,10.17,14.44,10.16,-10.15,-9.93,-7.64,4.30,4.29,4.28
24.16,14.43,10.15,14.43,10.15,-10.14,-9.93,-7.84,4.29,4.29,4.28
24.40,14.41,10.13,14.41,10.13,-10.12,-9.93,-8.04,4.29,4.28,4.28
24.65,14.38,10.10,14.38,10.10,-10.11,-9.93,-8.25,4.27,4.27,4.28
24.89,14.36,10.08,14.36,10.08,-10.09,-9.93,-8.46,4.26,4.27,4.28
25.14,14.35,10.07,14.35,10.07,-10.08,-9.93,-8.68,4.26,4.27,4.28
25.39,14.35,10.07,14.35,10.07,-10.08,-9.93,-8.89,4.27,4.27,4.28
25.65,14.35,10.08,14.35,10.07,-10.07,-9.93,-9.11,4.27,4.27,4.27
25.91,14.35,10.08,14.35,10.08,-10.08,-9.93,-9.34,4.27,4.27,4.27
26.16,14.35,10.09,14.35,10.09,-10.08,-9.93,-9.56,4.27,4.27,4.26
26.43,14.35,10.09,14.35,10.09,-10.09,-9.93,-9.79,4.26,4.26,4.26
26.69,14.35,10.10,14.35,10.10,-10.10,-9.93,-10.02,4.25,4.25,4.25
26.96,14.35,10.11,14.35,10.10,-10.11,-9.93,-10.24,4.24,4.24,4.24
27.23,14.35,10.11,14.35,10.11,-10.12,-9.93,-10.47,4.23,4.23,4.24
27.50,14.35,10.12,14.35,10.12,-10.12,-9.92,-10.69,4.22,4.22,4.23
27.77,14.35,10.13,14.35,10.13,-10.13,-9.92,-10.91,4.22,4.22,4.22
28.05,14.35,10.14,14.35,10.13,-10.14,-9.92,-11.12,4.21,4.21,4.21
28.33,14.35,10.14,14.35,10.14,-10.13,-9.92,-11.33,4.21,4.22,4.21
28.62,14.35,10.14,14.35,10.14,-10.13,-9.92,-11.53,4.22,4.22,4.21
28.90,14.35,10.15,14.34,10.14,-10.12,-9.92,-11.71,4.23,4.22,4.20
29.19,14.33,10.12,14.33,10.12,-10.11,-9.92,-11.89,4.22,4.22,4.21
29.48,14.30,10.09,14.30,10.09,-10.09,-9.91,-12.04,4.21,4.21,4.21
29.78,14.27,10.06,14.27,10.06,-10.08,-9.91,-12.19,4.19,4.20,4.21
30.08,14.25,10.04,14.25,10.04,-10.06,-9.91,-12.31,4.19,4.19,4.21
30.38,14.25,10.04,14.25,10.04,-10.05,-9.91,-12.42,4.20,4.20,4.21
30.68,14.25,10.04,14.25,10.04,-10.04,-9.91,-12.50,4.21,4.21,4.21
30.99,14.25,10.04,14.25,10.04,-10.04,-9.90,-12.57,4.21,4.21,4.21
31.30,14.25,10.04,14.25,10.04,-10.04,-9.90,-12.61,4.21,4.21,4.21
31.61,14.25,10.04,14.25,10.04,-10.04,-9.90,-12.63,4.21,4.21,4.21
31.93,14.25,10.04,14.25,10.04,-10.04,-9.90,-12.63,4.20,4.20,4.21
32.24,14.25,10.05,14.25,10.05,-10.04,-9.89,-12.61,4.21,4.21,4.20
32.57,14.25,10.05,14.25,10.05,-10.03,-9.89,-12.56,4.21,4.22,4.20
32.89,14.25,10.05,14.24,10.04,-10.02,-9.89,-12.50,4.22,4.22,4.20
33.22,14.23,10.03,14.22,10.02,-10.01,-9.89,-12.42,4.22,4.21,4.20
33.55,14.19,9.99,14.19,10.00,-10.00,-9.88,-12.33,4.19,4.19,4.20
33.89,14.16,9.97,14.17,9.97,-9.99,-9.88,-12.22,4.17,4.18,4.19
34.23,14.15,9.96,14.15,9.96,-9.97,-9.87,-12.11,4.17,4.17,4.19
34.57,14.15,9.96,14.15,9.96,-9.97,-9.87,-11.98,4.18,4.18,4.19
34.92,14.15,9.96,14.15,9.96,-9.96,-9.87,-11.84,4.19,4.19,4.19
35.27,14.15,9.96,14.15,9.96,-9.96,-9.86,-11.70,4.19,4.19,4.19
35.62,14.15,9.96,14.15,9.96,-9.96,-9.86,-11.55,4.19,4.19,4.19
35.97,14.15,9.97,14.15,9.97,-9.96,-9.85,-11.41,4.19,4.19,4.18
36.33,14.15,9.97,14.15,9.97,-9.96,-9.85,-11.26,4.19,4.19,4.18
36.70,14.15,9.97,14.15,9.97,-9.95,-9.84,-11.11,4.20,4.20,4.18
37.06,14.14,9.96,14.13,9.95,-9.94,-9.84,-10.96,4.20,4.19,4.18
37.43,14.11,9.94,14.10,9.93,-9.93,-9.83,-10.81,4.18,4.17,4.17
37.81,14.07,9.90,14.08,9.91,-9.93,-9.83,-10.67,4.14,4.15,4.17
38.19,14.05,9.89,14.05,9.90,-9.92,-9.82,-10.53,4.13,4.13,4.16
38.57,14.05,9.90,14.05,9.89,-9.91,-9.81,-10.39,4.13,4.13,4.15
38.95,14.05,9.91,14.05,9.90,-9.91,-9.81,-10.26,4.14,4.14,4.14
39.34,14.05,9.91,14.05,9.91,-9.90,-9.80,-10.13,4.15,4.15,4.14
39.74,14.04,9.91,14.04,9.91,-9.89,-9.79,-10.01,4.15,4.15,4.13
40.14,14.03,9.91,14.02,9.90,-9.88,-9.78,-9.89,4.15,4.15,4.12
40.54,13.99,9.88,13.99,9.88,-9.86,-9.77,-9.79,4.13,4.14,4.11
40.94,13.96,9.85,13.95,9.84,-9.84,-9.77,-9.68,4.12,4.12,4.11
41.35,13.91,9.80,13.91,9.80,-9.81,-9.76,-9.58,4.10,4.10,4.11
41.76,13.87,9.76,13.87,9.76,-9.79,-9.75,-9.49,4.08,4.09,4.11
42.18,13.85,9.74,13.85,9.74,-9.77,-9.74,-9.41,4.08,4.09,4.11
42.60,13.85,9.74,13.85,9.74,-9.75,-9.73,-9.33,4.10,4.09,4.11
43.03,13.85,9.74,13.85,9.74,-9.74,-9.71,-9.26,4.11,4.10,4.11
43.46,13.85,9.74,13.85,9.73,-9.74,-9.70,-9.19,4.11,4.11,4.11
43.90,13.85,9.73,13.85,9.73,-9.73,-9.69,-9.13,4.12,4.12,4.12
44.33,13.85,9.73,13.85,9.73,-9.72,-9.68,-9.08,4.13,4.14,4.12
44.78,13.85,9.73,13.84,9.72,-9.70,-9.66,-9.04,4.15,4.14,4.12
45.23,13.83,9.71,13.82,9.70,-9.68,-9.65,-9.00,4.15,4.14,4.12
45.68,13.78,9.66,13.78,9.66,-9.65,-9.64,-8.96,4.12,4.13,4.12
46.13,13.74,9.62,13.73,9.61,-9.62,-9.62,-8.94,4.11,4.11,4.12
46.60,13.69,9.57,13.69,9.57,-9.59,-9.61,-8.92,4.10,4.10,4.12
47.06,13.65,9.53,13.67,9.55,-9.56,-9.59,-8.90,4.09,4.11,4.12
47.53,13.65,9.53,13.65,9.53,-9.53,-9.57,-8.89,4.12,4.12,4.12
48.01,13.65,9.54,13.62,9.51,-9.50,-9.55,-8.89,4.15,4.12,4.11
48.49,13.59,9.48,13.59,9.48,-9.49,-9.54,-8.89,4.10,4.10,4.11
48.97,13.53,9.43,13.55,9.45,-9.48,-9.52,-8.90,4.05,4.08,4.10
49.46,13.54,9.44,13.54,9.44,-9.46,-9.50,-8.91,4.07,4.07,4.10
49.96,13.55,9.45,13.55,9.45,-9.45,-9.48,-8.93,4.10,4.10,4.10
50.46,13.56,9.46,13.56,9.46,-9.42,-9.46,-8.95,4.14,4.14,4.10
50.96,13.57,9.46,13.55,9.44,-9.40,-9.43,-8.97,4.17,4.15,4.11
51.47,13.51,9.40,13.51,9.40,-9.37,-9.41,-9.00,4.14,4.14,4.11
51.99,13.45,9.34,13.45,9.34,-9.35,-9.39,-9.03,4.10,4.10,4.11
52.51,13.39,9.29,13.39,9.28,-9.32,-9.36,-9.07,4.07,4.06,4.10
53.03,13.33,9.23,13.35,9.25,-9.30,-9.34,-9.10,4.03,4.05,4.10
53.56,13.34,9.24,13.34,9.24,-9.27,-9.31,-9.14,4.07,4.07,4.10
54.10,13.35,9.25,13.34,9.24,-9.23,-9.29,-9.18,4.11,4.11,4.10
54.64,13.35,9.25,13.35,9.25,-9.20,-9.26,-9.22,4.14,4.14,4.10
55.18,13.33,9.23,13.32,9.22,-9.18,-9.23,-9.26,4.15,4.14,4.10
55.74,13.28,9.18,13.28,9.17,-9.16,-9.20,-9.29,4.12,4.12,4.10
56.29,13.22,9.12,13.22,9.12,-9.13,-9.18,-9.33,4.08,4.08,4.10
56.86,13.16,9.06,13.17,9.07,-9.11,-9.15,-9.36,4.05,4.06,4.10
57.42,13.14,9.04,13.14,9.04,-9.08,-9.12,-9.39,4.06,4.07,4.10
58.00,13.14,9.04,13.14,9.04,-9.05,-9.09,-9.41,4.09,4.09,4.10
58.58,13.14,9.04,13.13,9.03,-9.01,-9.06,-9.43,4.12,4.12,4.10
59.16,13.12,9.02,13.10,9.00,-8.98,-9.04,-9.44,4.14,4.13,4.10
59.76,13.06,8.96,13.07,8.97,-8.94,-9.01,-9.45,4.12,4.13,4.10
60.35,13.02,8.92,13.03,8.93,-8.90,-8.98,-9.45,4.12,4.13,4.10
60.96,13.01,8.90,12.98,8.87,-8.87,-8.95,-9.44,4.14,4.11,4.11
61.57,12.92,8.81,12.92,8.81,-8.83,-8.92,-9.43,4.09,4.09,4.11
62.18,12.85,8.74,12.87,8.76,-8.80,-8.89,-9.40,4.05,4.06,4.11
62.80,12.83,8.73,12.83,8.73,-8.78,-8.87,-9.37,4.05,4.05,4.10
63.43,12.83,8.73,12.83,8.73,-8.75,-8.84,-9.33,4.07,4.07,4.10
64.07,12.84,8.75,12.84,8.75,-8.73,-8.81,-9.28,4.11,4.11,4.09
64.71,12.85,8.76,12.85,8.76,-8.71,-8.78,-9.22,4.14,4.14,4.09
65.35,12.83,8.75,12.82,8.74,-8.69,-8.75,-9.16,4.14,4.13,4.08
66.01,12.80,8.72,12.76,8.68,-8.67,-8.72,-9.09,4.13,4.09,4.08
66.67,12.67,8.60,12.70,8.63,-8.64,-8.69,-9.01,4.03,4.06,4.07
67.33,12.62,8.55,12.65,8.58,-8.60,-8.66,-8.93,4.02,4.04,4.07
68.01,12.64,8.58,12.61,8.54,-8.56,-8.63,-8.84,4.08,4.05,4.06
68.69,12.58,8.52,12.58,8.52,-8.52,-8.60,-8.74,4.06,4.06,4.06
69.37,12.53,8.48,12.53,8.48,-8.48,-8.57,-8.65,4.05,4.05,4.05
70.07,12.47,8.42,12.48,8.43,-8.44,-8.53,-8.54,4.02,4.04,4.05
70.77,12.45,8.41,12.46,8.42,-8.42,-8.50,-8.44,4.03,4.04,4.04
71.48,12.44,8.40,12.42,8.38,-8.39,-8.47,-8.34,4.05,4.03,4.04
72.19,12.41,8.38,12.39,8.35,-8.35,-8.43,-8.23,4.06,4.03,4.03
72.91,12.30,8.27,12.37,8.34,-8.31,-8.39,-8.12,3.99,4.06,4.03
73.64,12.36,8.33,12.34,8.31,-8.27,-8.36,-8.01,4.08,4.07,4.03
74.38,12.34,8.31,12.29,8.26,-8.24,-8.32,-7.91,4.09,4.04,4.03
75.12,12.22,8.19,12.22,8.20,-8.22,-8.28,-7.80,4.00,4.01,4.03
75.87,12.10,8.08,12.14,8.12,-8.18,-8.24,-7.70,3.92,3.96,4.02
76.63,12.11,8.09,12.11,8.09,-8.14,-8.19,-7.60,3.97,3.97,4.02
77.40,12.14,8.12,12.15,8.13,-8.10,-8.15,-7.50,4.04,4.05,4.02
78.17,12.18,8.16,12.15,8.13,-8.06,-8.11,-7.40,4.12,4.09,4.02
78.95,12.16,8.14,12.09,8.07,-8.03,-8.06,-7.31,4.13,4.06,4.02
79.74,11.95,7.93,12.01,7.98,-8.00,-8.02,-7.22,3.95,4.00,4.02
80.54,11.90,7.88,11.93,7.91,-7.97,-7.97,-7.14,3.92,3.96,4.02
81.35,11.92,7.90,11.91,7.89,-7.94,-7.93,-7.06,3.97,3.96,4.02
82.16,11.94,7.92,11.93,7.91,-7.91,-7.88,-6.98,4.03,4.02,4.02
82.98,11.94,7.93,11.91,7.90,-7.86,-7.83,-6.91,4.08,4.05,4.01
83.81,11.86,7.85,11.88,7.86,-7.82,-7.78,-6.84,4.04,4.05,4.01
84.65,11.81,7.80,11.82,7.81,-7.78,-7.73,-6.77,4.02,4.03,4.01
85.50,11.77,7.77,11.75,7.75,-7.75,-7.68,-6.72,4.02,4.00,4.00
86.35,11.70,7.70,11.70,7.70,-7.71,-7.63,-6.66,3.98,3.98,4.00
87.22,11.63,7.64,11.63,7.64,-7.67,-7.58,-6.61,3.96,3.96,3.99
88.09,11.58,7.59,11.58,7.59,-7.63,-7.53,-6.57,3.95,3.95,3.99
88.97,11.54,7.56,11.55,7.57,-7.58,-7.48,-6.53,3.96,3.97,3.98
89.86,11.54,7.57,11.53,7.56,-7.54,-7.42,-6.49,4.00,3.99,3.97
90.76,11.52,7.55,11.51,7.54,-7.50,-7.37,-6.47,4.01,4.00,3.97
91.66,11.46,7.50,11.46,7.50,-7.47,-7.32,-6.44,3.99,3.99,3.96
92.58,11.39,7.44,11.38,7.43,-7.44,-7.27,-6.42,3.95,3.94,3.95
93.51,11.31,7.37,11.31,7.37,-7.41,-7.21,-6.40,3.90,3.90,3.94
94.44,11.24,7.31,11.27,7.34,-7.37,-7.16,-6.39,3.87,3.90,3.93
95.39,11.24,7.32,11.24,7.32,-7.33,-7.11,-6.38,3.91,3.91,3.92
96.34,11.26,7.35,11.21,7.30,-7.28,-7.05,-6.38,3.98,3.94,3.91
97.30,11.14,7.25,11.15,7.26,-7.22,-7.00,-6.38,3.91,3.93,3.89
98.28,11.08,7.20,11.08,7.20,-7.18,-6.95,-6.38,3.90,3.91,3.88
99.26,10.97,7.11,11.00,7.14,-7.14,-6.89,-6.39,3.83,3.87,3.86
100.25,10.97,7.13,10.91,7.07,-7.09,-6.84,-6.40,3.87,3.82,3.84
101.25,10.83,7.01,10.82,7.00,-7.05,-6.79,-6.41,3.78,3.77,3.82
102.27,10.69,6.89,10.76,6.96,-7.00,-6.74,-6.43,3.69,3.76,3.80
103.29,10.72,6.94,10.73,6.95,-6.95,-6.69,-6.45,3.77,3.78,3.78
104.32,10.76,7.00,10.71,6.95,-6.91,-6.64,-6.47,3.85,3.80,3.76
105.37,10.70,6.97,10.65,6.91,-6.87,-6.59,-6.49,3.83,3.78,3.73
106.42,10.48,6.77,10.55,6.83,-6.82,-6.54,-6.51,3.66,3.73,3.71
107.48,10.42,6.73,10.44,6.75,-6.77,-6.49,-6.54,3.65,3.67,3.69
108.56,10.40,6.73,10.36,6.69,-6.71,-6.44,-6.56,3.68,3.65,3.67
109.64,10.32,6.67,10.32,6.66,-6.65,-6.39,-6.58,3.67,3.66,3.65
110.74,10.23,6.59,10.24,6.60,-6.59,-6.34,-6.60,3.64,3.65,3.64
111.85,10.16,6.54,10.15,6.53,-6.53,-6.29,-6.62,3.63,3.62,3.62
112.97,10.06,6.45,10.07,6.46,-6.47,-6.25,-6.64,3.58,3.59,3.61
114.10,10.01,6.41,10.01,6.41,-6.43,-6.20,-6.66,3.58,3.58,3.60
115.24,9.95,6.36,9.96,6.37,-6.38,-6.16,-6.67,3.57,3.58,3.59
116.39,9.93,6.35,9.92,6.34,-6.34,-6.12,-6.68,3.59,3.58,3.58
117.55,9.88,6.30,9.87,6.29,-6.28,-6.07,-6.68,3.60,3.59,3.58
118.73,9.82,6.25,9.82,6.25,-6.23,-6.03,-6.68,3.59,3.59,3.57
119.92,9.76,6.19,9.76,6.20,-6.18,-5.99,-6.67,3.58,3.58,3.57
121.12,9.71,6.15,9.71,6.15,-6.13,-5.95,-6.66,3.58,3.58,3.56
122.33,9.65,6.09,9.65,6.09,-6.08,-5.91,-6.64,3.57,3.57,3.56
123.55,9.60,6.03,9.56,6.00,-6.02,-5.87,-6.62,3.57,3.54,3.57
124.79,9.49,5.92,9.50,5.93,-5.97,-5.83,-6.58,3.52,3.53,3.57
126.03,9.40,5.84,9.49,5.93,-5.92,-5.79,-6.55,3.48,3.57,3.56
127.29,9.53,5.96,9.46,5.89,-5.88,-5.76,-6.50,3.65,3.58,3.57
128.57,9.51,5.94,9.41,5.85,-5.84,-5.72,-6.45,3.66,3.57,3.57
129.85,9.27,5.70,9.38,5.81,-5.81,-5.69,-6.39,3.46,3.57,3.57
131.15,9.30,5.73,9.33,5.76,-5.78,-5.65,-6.33,3.52,3.55,3.57
132.46,9.38,5.81,9.31,5.74,-5.75,-5.62,-6.26,3.63,3.56,3.57
133.79,9.30,5.74,9.29,5.72,-5.70,-5.58,-6.19,3.60,3.59,3.56
135.12,9.22,5.66,9.24,5.68,-5.65,-5.55,-6.10,3.57,3.59,3.56
136.48,9.13,5.57,9.18,5.62,-5.60,-5.51,-6.02,3.53,3.58,3.56
137.84,9.18,5.63,9.10,5.54,-5.55,-5.48,-5.93,3.63,3.55,3.55
139.22,9.04,5.49,9.03,5.48,-5.49,-5.45,-5.84,3.54,3.54,3.55
140.61,8.88,5.34,8.97,5.43,-5.44,-5.41,-5.75,3.44,3.53,3.54
142.02,8.94,5.41,8.88,5.35,-5.38,-5.38,-5.65,3.55,3.50,3.53
143.44,8.87,5.35,8.84,5.32,-5.32,-5.35,-5.55,3.55,3.52,3.52
144.87,8.74,5.22,8.81,5.29,-5.27,-5.31,-5.45,3.47,3.54,3.52
146.32,8.78,5.27,8.71,5.21,-5.21,-5.28,-5.35,3.57,3.50,3.51
147.78,8.66,5.17,8.66,5.17,-5.16,-5.24,-5.24,3.50,3.50,3.49
149.26,8.54,5.06,8.61,5.14,-5.10,-5.20,-5.14,3.43,3.51,3.48
150.75,8.59,5.12,8.50,5.03,-5.05,-5.17,-5.04,3.54,3.45,3.47
152.26,8.45,4.99,8.43,4.96,-4.99,-5.13,-4.94,3.46,3.44,3.46
153.78,8.27,4.81,8.39,4.94,-4.93,-5.09,-4.84,3.34,3.47,3.46
155.32,8.37,4.92,8.32,4.87,-4.87,-5.05,-4.74,3.50,3.45,3.45
156.88,8.36,4.92,8.26,4.82,-4.82,-5.01,-4.64,3.54,3.45,3.44
158.44,8.13,4.69,8.21,4.77,-4.76,-4.97,-4.54,3.37,3.45,3.44
160.03,8.11,4.68,8.12,4.69,-4.71,-4.93,-4.44,3.39,3.41,3.43
161.63,8.09,4.67,8.06,4.64,-4.67,-4.88,-4.35,3.42,3.39,3.42
163.24,8.05,4.64,8.04,4.63,-4.62,-4.83,-4.26,3.42,3.42,3.41
164.88,7.97,4.57,7.99,4.59,-4.57,-4.79,-4.17,3.39,3.41,3.40
166.53,7.94,4.55,7.93,4.54,-4.53,-4.74,-4.09,3.41,3.40,3.39
168.19,7.86,4.48,7.87,4.49,-4.47,-4.68,-4.00,3.39,3.40,3.38
169.87,7.81,4.44,7.80,4.43,-4.41,-4.63,-3.92,3.39,3.38,3.37
171.57,7.72,4.36,7.72,4.36,-4.36,-4.58,-3.85,3.36,3.36,3.36
173.29,7.63,4.28,7.64,4.29,-4.29,-4.52,-3.77,3.34,3.35,3.35
175.02,7.56,4.22,7.56,4.22,-4.22,-4.46,-3.70,3.34,3.33,3.34
176.77,7.50,4.16,7.49,4.15,-4.16,-4.40,-3.63,3.34,3.33,3.34
178.54,7.41,4.08,7.42,4.09,-4.09,-4.34,-3.56,3.32,3.33,3.33
180.32,7.36,4.03,7.36,4.03,-4.03,-4.28,-3.49,3.33,3.33,3.33
182.13,7.31,3.98,7.30,3.97,-3.97,-4.21,-3.43,3.34,3.33,3.33
183.95,7.24,3.91,7.25,3.92,-3.92,-4.15,-3.37,3.32,3.33,3.33
185.79,7.20,3.88,7.19,3.86,-3.87,-4.08,-3.32,3.33,3.32,3.32
187.65,7.14,3.81,7.14,3.81,-3.82,-4.01,-3.26,3.32,3.32,3.33
189.52,7.09,3.76,7.09,3.77,-3.77,-3.94,-3.21,3.32,3.32,3.33
191.42,7.05,3.72,7.04,3.71,-3.71,-3.87,-3.16,3.33,3.33,3.33
193.33,7.00,3.67,7.00,3.67,-3.66,-3.79,-3.11,3.34,3.35,3.33
195.27,6.95,3.61,6.95,3.62,-3.60,-3.72,-3.07,3.35,3.35,3.34
197.22,6.91,3.57,6.89,3.55,-3.54,-3.64,-3.03,3.37,3.35,3.34
199.19,6.81,3.47,6.82,3.47,-3.47,-3.57,-2.98,3.34,3.34,3.34
201.18,6.73,3.39,6.74,3.40,-3.41,-3.49,-2.95,3.32,3.33,3.34
203.19,6.67,3.33,6.66,3.32,-3.34,-3.41,-2.91,3.33,3.32,3.34
205.23,6.60,3.26,6.60,3.26,-3.28,-3.34,-2.87,3.32,3.33,3.34
207.28,6.55,3.21,6.54,3.21,-3.21,-3.26,-2.84,3.34,3.33,3.34
209.35,6.48,3.15,6.48,3.14,-3.15,-3.18,-2.80,3.33,3.33,3.33
211.44,6.41,3.08,6.41,3.08,-3.07,-3.10,-2.77,3.34,3.34,3.33
213.56,6.34,3.01,6.34,3.02,-2.99,-3.02,-2.74,3.35,3.35,3.33
215.69,6.28,2.96,6.28,2.96,-2.92,-2.94,-2.71,3.36,3.36,3.32
217.85,6.21,2.89,6.21,2.89,-2.86,-2.86,-2.68,3.35,3.35,3.32
220.03,6.12,2.81,6.09,2.77,-2.80,-2.78,-2.64,3.32,3.28,3.31
222.23,5.99,2.68,5.96,2.65,-2.75,-2.70,-2.61,3.24,3.21,3.31
224.45,5.82,2.51,5.92,2.61,-2.70,-2.62,-2.58,3.12,3.22,3.31
226.70,5.91,2.60,5.93,2.62,-2.63,-2.54,-2.55,3.28,3.30,3.31
228.96,6.05,2.74,5.96,2.64,-2.56,-2.46,-2.52,3.49,3.39,3.31
231.25,5.94,2.62,5.93,2.61,-2.49,-2.38,-2.49,3.45,3.44,3.32
233.57,5.80,2.48,5.81,2.49,-2.41,-2.31,-2.45,3.39,3.40,3.32
235.90,5.61,2.28,5.65,2.32,-2.34,-2.23,-2.42,3.27,3.31,3.33
238.26,5.57,2.24,5.52,2.19,-2.26,-2.15,-2.38,3.31,3.27,3.33
240.64,5.42,2.07,5.44,2.09,-2.17,-2.07,-2.35,3.25,3.27,3.35
243.05,5.38,2.02,5.40,2.04,-2.09,-2.00,-2.31,3.29,3.32,3.36
245.48,5.39,2.02,5.37,2.00,-2.01,-1.92,-2.26,3.38,3.36,3.37
247.93,5.36,1.98,5.35,1.97,-1.94,-1.85,-2.22,3.42,3.41,3.38
250.41,5.32,1.93,5.32,1.92,-1.89,-1.77,-2.18,3.43,3.42,3.39
252.92,5.26,1.86,5.27,1.86,-1.85,-1.70,-2.13,3.41,3.42,3.40
255.45,5.21,1.80,5.21,1.81,-1.80,-1.63,-2.08,3.40,3.41,3.41
258.00,5.17,1.76,5.16,1.75,-1.75,-1.55,-2.03,3.42,3.41,3.41
260.58,5.10,1.69,5.10,1.69,-1.69,-1.48,-1.98,3.41,3.41,3.41
263.19,5.04,1.63,5.04,1.63,-1.63,-1.41,-1.92,3.41,3.41,3.41
265.82,4.98,1.58,4.97,1.57,-1.57,-1.34,-1.87,3.41,3.40,3.40
268.48,4.90,1.50,4.91,1.51,-1.52,-1.27,-1.81,3.38,3.39,3.40
271.16,4.84,1.45,4.83,1.44,-1.46,-1.20,-1.75,3.38,3.37,3.39
273.87,4.77,1.39,4.76,1.38,-1.40,-1.13,-1.69,3.37,3.36,3.38
276.61,4.70,1.32,4.73,1.35,-1.34,-1.07,-1.62,3.36,3.39,3.38
279.38,4.68,1.30,4.69,1.31,-1.27,-1.00,-1.56,3.41,3.41,3.38
282.17,4.67,1.30,4.60,1.23,-1.20,-0.94,-1.49,3.46,3.40,3.37
284.99,4.52,1.15,4.53,1.16,-1.13,-0.87,-1.42,3.38,3.40,3.37
287.84,4.36,0.99,4.43,1.06,-1.07,-0.81,-1.35,3.29,3.36,3.37
290.72,4.40,1.04,4.31,0.95,-1.00,-0.74,-1.29,3.40,3.31,3.36
293.63,4.23,0.87,4.27,0.91,-0.94,-0.68,-1.21,3.29,3.33,3.36
296.57,4.18,0.82,4.25,0.89,-0.88,-0.62,-1.14,3.30,3.37,3.36
299.53,4.30,0.93,4.17,0.81,-0.83,-0.55,-1.07,3.47,3.34,3.37
302.53,4.13,0.76,4.14,0.78,-0.78,-0.49,-1.00,3.35,3.37,3.37
305.55,4.01,0.65,4.12,0.75,-0.72,-0.43,-0.93,3.29,3.40,3.36
308.61,4.12,0.76,4.05,0.69,-0.67,-0.37,-0.85,3.45,3.38,3.36
311.69,4.07,0.71,4.00,0.65,-0.62,-0.31,-0.78,3.45,3.38,3.36
314.81,3.88,0.53,3.93,0.58,-0.56,-0.25,-0.71,3.31,3.37,3.35
317.96,3.80,0.45,3.82,0.47,-0.51,-0.20,-0.63,3.29,3.31,3.35
321.14,3.77,0.42,3.74,0.39,-0.45,-0.14,-0.56,3.32,3.29,3.35
324.35,3.69,0.35,3.70,0.36,-0.37,-0.08,-0.48,3.31,3.33,3.34
327.59,3.64,0.31,3.65,0.32,-0.30,-0.02,-0.41,3.34,3.35,3.33
330.87,3.62,0.29,3.60,0.27,-0.22,0.03,-0.33,3.40,3.38,3.33
334.18,3.51,0.18,3.53,0.20,-0.14,0.09,-0.26,3.37,3.39,3.33
337.52,3.45,0.12,3.40,0.07,-0.07,0.14,-0.18,3.38,3.33,3.33
340.90,3.27,-0.05,3.28,-0.04,-0.00,0.20,-0.11,3.27,3.28,3.32
344.30,3.12,-0.20,3.20,-0.12,0.07,0.25,-0.03,3.19,3.27,3.32
347.75,3.19,-0.13,3.12,-0.19,0.14,0.31,0.04,3.33,3.27,3.32
351.23,3.12,-0.19,3.09,-0.22,0.22,0.36,0.12,3.34,3.31,3.31
354.74,2.99,-0.32,3.06,-0.25,0.30,0.42,0.20,3.28,3.36,3.31
358.28,3.03,-0.28,2.99,-0.32,0.37,0.47,0.27,3.40,3.36,3.31
361.87,2.94,-0.37,2.91,-0.40,0.43,0.52,0.35,3.37,3.35,3.31
365.49,2.81,-0.50,2.83,-0.48,0.50,0.58,0.43,3.30,3.32,3.31
369.14,2.71,-0.60,2.72,-0.59,0.55,0.63,0.50,3.26,3.28,3.31
372.83,2.65,-0.66,2.64,-0.67,0.61,0.68,0.58,3.26,3.25,3.31
376.56,2.61,-0.70,2.59,-0.72,0.67,0.74,0.66,3.28,3.26,3.31
380.33,2.54,-0.76,2.57,-0.74,0.72,0.79,0.73,3.26,3.29,3.30
384.13,2.54,-0.76,2.56,-0.74,0.77,0.84,0.81,3.31,3.33,3.30
387.97,2.57,-0.72,2.52,-0.77,0.81,0.89,0.89,3.38,3.34,3.29
391.85,2.49,-0.79,2.46,-0.82,0.86,0.94,0.97,3.34,3.32,3.28
395.77,2.34,-0.93,2.38,-0.89,0.90,1.00,1.04,3.24,3.28,3.27
399.73,2.27,-0.99,2.28,-0.98,0.95,1.05,1.12,3.22,3.23,3.26
403.72,2.23,-1.02,2.21,-1.03,1.02,1.10,1.20,3.24,3.23,3.25
407.76,2.15,-1.08,2.15,-1.09,1.09,1.15,1.28,3.24,3.23,3.23
411.84,2.08,-1.14,2.06,-1.16,1.16,1.20,1.35,3.24,3.22,3.22
415.96,1.96,-1.25,1.99,-1.22,1.24,1.26,1.43,3.20,3.23,3.21
420.12,1.90,-1.30,1.91,-1.29,1.31,1.31,1.50,3.21,3.22,3.20
424.32,1.87,-1.33,1.81,-1.39,1.38,1.36,1.58,3.25,3.19,3.20
428.56,1.73,-1.47,1.74,-1.46,1.45,1.41,1.65,3.17,3.19,3.20
432.85,1.63,-1.58,1.69,-1.52,1.51,1.46,1.73,3.14,3.20,3.21
437.18,1.69,-1.54,1.64,-1.59,1.56,1.52,1.80,3.25,3.20,3.23
441.55,1.65,-1.60,1.62,-1.63,1.61,1.57,1.87,3.26,3.23,3.25
445.96,1.56,-1.72,1.62,-1.66,1.66,1.62,1.94,3.22,3.28,3.28
450.42,1.63,-1.69,1.62,-1.70,1.71,1.67,2.00,3.34,3.33,3.32
454.93,1.65,-1.71,1.64,-1.73,1.75,1.73,2.07,3.40,3.39,3.36
459.48,1.67,-1.74,1.63,-1.77,1.80,1.78,2.13,3.47,3.43,3.41
464.07,1.59,-1.86,1.61,-1.85,1.84,1.83,2.19,3.43,3.45,3.45
468.71,1.55,-1.95,1.58,-1.92,1.89,1.88,2.25,3.44,3.48,3.50
473.40,1.60,-1.95,1.58,-1.97,1.95,1.94,2.31,3.55,3.53,3.55
478.13,1.60,-2.00,1.59,-2.01,2.01,1.99,2.36,3.61,3.60,3.60
482.91,1.60,-2.04,1.59,-2.05,2.07,2.04,2.41,3.67,3.66,3.64
487.74,1.56,-2.12,1.56,-2.12,2.13,2.10,2.46,3.69,3.70,3.68
492.62,1.53,-2.18,1.52,-2.18,2.19,2.15,2.50,3.72,3.72,3.71
497.55,1.47,-2.26,1.47,-2.26,2.25,2.21,2.54,3.72,3.72,3.73
502.52,1.43,-2.32,1.43,-2.32,2.31,2.26,2.58,3.74,3.73,3.75
