frequency,raw,error,smoothed,error_smoothed,equalization,parametric_eq,fixed_band_eq,equalized_raw,equalized_smoothed,target
20.00,0.25,-4.09,0.25,-4.09,4.09,3.38,-0.57,4.33,4.33,4.34
20.20,0.34,-3.99,0.34,-4.00,4.00,3.38,-0.58,4.33,4.33,4.33
20.40,0.43,-3.90,0.43,-3.90,3.91,3.36,-0.59,4.33,4.33,4.33
20.61,0.52,-3.80,0.52,-3.80,3.81,3.35,-0.61,4.32,4.33,4.32
20.81,0.62,-3.70,0.61,-3.71,3.71,3.32,-0.62,4.33,4.32,4.32
21.02,0.71,-3.61,0.71,-3.60,3.60,3.28,-0.64,4.31,4.31,4.32
21.23,0.81,-3.49,0.80,-3.50,3.49,3.24,-0.65,4.30,4.30,4.30
21.44,0.90,-3.38,0.90,-3.38,3.38,3.19,-0.67,4.27,4.27,4.28
21.66,1.00,-3.26,1.00,-3.26,3.26,3.12,-0.68,4.25,4.25,4.26
21.87,1.10,-3.13,1.10,-3.13,3.13,3.05,-0.70,4.23,4.23,4.23
22.09,1.21,-3.00,1.21,-3.00,3.00,2.97,-0.72,4.21,4.21,4.21
22.31,1.32,-2.87,1.32,-2.87,2.87,2.88,-0.73,4.19,4.18,4.19
22.54,1.43,-2.73,1.43,-2.73,2.73,2.79,-0.75,4.15,4.16,4.16
22.76,1.54,-2.59,1.54,-2.59,2.59,2.68,-0.77,4.13,4.13,4.13
22.99,1.65,-2.45,1.65,-2.45,2.45,2.57,-0.79,4.10,4.10,4.10
23.22,1.76,-2.31,1.76,-2.31,2.31,2.45,-0.81,4.07,4.07,4.07
23.45,1.88,-2.17,1.87,-2.17,2.17,2.33,-0.82,4.05,4.05,4.05
23.69,1.99,-2.04,1.99,-2.03,2.04,2.19,-0.84,4.02,4.03,4.03
23.92,2.12,-1.89,2.11,-1.89,1.90,2.06,-0.87,4.01,4.01,4.00
24.16,2.24,-1.76,2.23,-1.76,1.76,1.91,-0.89,3.99,3.99,3.99
24.40,2.35,-1.62,2.35,-1.62,1.62,1.77,-0.91,3.97,3.97,3.97
24.65,2.47,-1.49,2.47,-1.48,1.48,1.62,-0.93,3.94,3.95,3.95
24.89,2.60,-1.33,2.59,-1.34,1.34,1.46,-0.95,3.93,3.93,3.93
25.14,2.72,-1.19,2.72,-1.19,1.19,1.30,-0.98,3.91,3.91,3.91
25.39,2.85,-1.04,2.85,-1.05,1.05,1.14,-1.00,3.90,3.90,3.89
25.65,2.97,-0.92,2.97,-0.91,0.91,0.98,-1.02,3.87,3.88,3.88
25.91,3.09,-0.76,3.09,-0.76,0.77,0.81,-1.05,3.86,3.86,3.85
26.16,3.22,-0.62,3.22,-0.62,0.62,0.65,-1.07,3.84,3.84,3.84
26.43,3.34,-0.47,3.34,-0.48,0.48,0.48,-1.10,3.83,3.82,3.82
26.69,3.47,-0.34,3.47,-0.34,0.34,0.31,-1.13,3.80,3.81,3.81
26.96,3.60,-0.19,3.59,-0.20,0.19,0.14,-1.15,3.79,3.79,3.79
27.23,3.73,-0.05,3.72,-0.05,0.05,-0.02,-1.18,3.77,3.77,3.78
27.50,3.85,0.09,3.85,0.10,-0.10,-0.19,-1.21,3.75,3.75,3.76
27.77,3.99,0.25,3.98,0.24,-0.25,-0.36,-1.24,3.74,3.74,3.74
28.05,4.12,0.39,4.12,0.40,-0.40,-0.53,-1.27,3.72,3.72,3.73
28.33,4.25,0.55,4.25,0.55,-0.55,-0.69,-1.30,3.70,3.71,3.69
28.62,4.39,0.71,4.39,0.70,-0.70,-0.86,-1.33,3.70,3.69,3.68
28.90,4.53,0.84,4.53,0.85,-0.85,-1.02,-1.36,3.68,3.68,3.68
29.19,4.67,1.01,4.67,1.00,-1.00,-1.19,-1.40,3.66,3.67,3.66
29.48,4.82,1.16,4.81,1.16,-1.16,-1.35,-1.43,3.66,3.65,3.66
29.78,4.96,1.32,4.96,1.31,-1.32,-1.51,-1.47,3.64,3.64,3.64
30.08,5.10,1.48,5.10,1.47,-1.48,-1.67,-1.50,3.62,3.62,3.63
30.38,5.24,1.64,5.25,1.65,-1.65,-1.82,-1.54,3.60,3.61,3.61
30.68,5.41,1.82,5.40,1.82,-1.81,-1.98,-1.58,3.59,3.59,3.59
30.99,5.57,2.00,5.56,1.99,-1.98,-2.13,-1.61,3.58,3.57,3.57
31.30,5.71,2.15,5.71,2.16,-2.16,-2.28,-1.65,3.55,3.56,3.55
31.61,5.87,2.32,5.87,2.33,-2.33,-2.43,-1.69,3.53,3.53,3.54
31.93,6.02,2.51,6.02,2.51,-2.51,-2.58,-1.73,3.51,3.51,3.51
32.24,6.18,2.69,6.18,2.69,-2.69,-2.72,-1.78,3.49,3.49,3.49
32.57,6.34,2.87,6.34,2.87,-2.87,-2.86,-1.82,3.47,3.47,3.47
32.89,6.50,3.04,6.50,3.04,-3.04,-3.00,-1.86,3.45,3.45,3.46
33.22,6.66,3.23,6.66,3.22,-3.22,-3.14,-1.91,3.43,3.43,3.43
33.55,6.81,3.39,6.81,3.40,-3.40,-3.28,-1.96,3.41,3.41,3.41
33.89,6.97,3.58,6.97,3.58,-3.58,-3.41,-2.01,3.39,3.39,3.38
34.23,7.12,3.74,7.12,3.76,-3.76,-3.54,-2.05,3.36,3.37,3.37
34.57,7.28,3.94,7.27,3.93,-3.93,-3.67,-2.11,3.35,3.34,3.34
34.92,7.43,4.11,7.42,4.10,-4.10,-3.79,-2.16,3.33,3.32,3.32
35.27,7.57,4.26,7.57,4.27,-4.27,-3.92,-2.21,3.30,3.30,3.31
35.62,7.72,4.43,7.71,4.43,-4.43,-4.04,-2.27,3.28,3.28,3.28
35.97,7.85,4.60,7.85,4.59,-4.59,-4.15,-2.33,3.25,3.26,3.25
36.33,7.99,4.75,7.98,4.75,-4.75,-4.27,-2.39,3.24,3.23,3.24
36.70,8.11,4.89,8.11,4.90,-4.90,-4.38,-2.45,3.21,3.21,3.22
37.06,8.24,5.05,8.24,5.04,-5.04,-4.49,-2.51,3.20,3.19,3.18
37.43,8.36,5.19,8.35,5.19,-5.18,-4.60,-2.57,3.18,3.17,3.17
37.81,8.46,5.31,8.46,5.31,-5.31,-4.71,-2.64,3.15,3.15,3.15
38.19,8.57,5.44,8.56,5.43,-5.43,-4.81,-2.71,3.14,3.13,3.13
38.57,8.65,5.53,8.65,5.54,-5.54,-4.91,-2.78,3.10,3.11,3.11
38.95,8.74,5.65,8.74,5.65,-5.65,-5.01,-2.86,3.09,3.09,3.09
39.34,8.82,5.75,8.81,5.75,-5.75,-5.10,-2.93,3.07,3.06,3.07
39.74,8.88,5.84,8.88,5.84,-5.84,-5.19,-3.01,3.04,3.04,3.04
40.14,8.94,5.91,8.94,5.92,-5.92,-5.28,-3.09,3.02,3.02,3.02
40.54,8.99,5.99,8.99,5.99,-5.99,-5.37,-3.17,3.00,3.00,3.00
40.94,9.04,6.05,9.03,6.05,-6.05,-5.45,-3.26,2.99,2.98,2.99
41.35,9.07,6.11,9.07,6.11,-6.10,-5.53,-3.35,2.97,2.97,2.96
41.76,9.10,6.15,9.10,6.15,-6.14,-5.61,-3.44,2.95,2.95,2.95
42.18,9.12,6.18,9.11,6.18,-6.18,-5.69,-3.53,2.94,2.93,2.93
42.60,9.12,6.21,9.12,6.20,-6.21,-5.76,-3.63,2.91,2.91,2.91
43.03,9.13,6.22,9.12,6.22,-6.23,-5.83,-3.73,2.90,2.89,2.91
43.46,9.12,6.24,9.12,6.24,-6.25,-5.90,-3.83,2.87,2.87,2.88
43.90,9.12,6.27,9.11,6.26,-6.26,-5.96,-3.94,2.86,2.85,2.85
44.33,9.10,6.27,9.10,6.27,-6.27,-6.03,-4.04,2.83,2.83,2.82
44.78,9.08,6.27,9.08,6.27,-6.27,-6.08,-4.16,2.81,2.81,2.81
45.23,9.06,6.27,9.05,6.27,-6.27,-6.14,-4.27,2.79,2.79,2.78
45.68,9.03,6.26,9.03,6.27,-6.26,-6.19,-4.39,2.76,2.77,2.77
46.13,9.01,6.27,9.01,6.26,-6.25,-6.24,-4.51,2.75,2.75,2.74
46.60,8.98,6.24,8.98,6.24,-6.24,-6.29,-4.63,2.74,2.74,2.74
47.06,8.95,6.23,8.94,6.23,-6.23,-6.34,-4.76,2.72,2.72,2.72
47.53,8.91,6.20,8.91,6.21,-6.21,-6.38,-4.88,2.69,2.70,2.70
48.01,8.88,6.19,8.88,6.19,-6.20,-6.42,-5.02,2.68,2.68,2.69
48.49,8.85,6.19,8.85,6.19,-6.19,-6.46,-5.15,2.66,2.66,2.66
48.97,8.82,6.18,8.82,6.18,-6.18,-6.49,-5.29,2.64,2.63,2.63
49.46,8.79,6.18,8.78,6.18,-6.17,-6.52,-5.42,2.61,2.61,2.61
49.96,8.75,6.17,8.75,6.17,-6.17,-6.55,-5.56,2.58,2.59,2.58
50.46,8.73,6.17,8.73,6.17,-6.16,-6.58,-5.71,2.56,2.56,2.56
50.96,8.71,6.16,8.70,6.16,-6.16,-6.60,-5.85,2.55,2.54,2.54
51.47,8.68,6.16,8.68,6.16,-6.16,-6.62,-5.99,2.52,2.52,2.52
51.99,8.66,6.16,8.66,6.16,-6.16,-6.64,-6.14,2.50,2.50,2.50
52.51,8.64,6.15,8.64,6.15,-6.15,-6.66,-6.28,2.48,2.48,2.49
53.03,8.62,6.15,8.62,6.15,-6.15,-6.67,-6.42,2.46,2.46,2.47
53.56,8.60,6.16,8.60,6.16,-6.16,-6.68,-6.57,2.44,2.44,2.44
54.10,8.59,6.17,8.58,6.16,-6.16,-6.69,-6.71,2.42,2.42,2.42
54.64,8.57,6.17,8.57,6.17,-6.17,-6.70,-6.85,2.40,2.40,2.40
55.18,8.56,6.18,8.56,6.18,-6.18,-6.70,-6.98,2.38,2.38,2.38
55.74,8.56,6.20,8.55,6.19,-6.19,-6.70,-7.11,2.36,2.36,2.36
56.29,8.54,6.20,8.54,6.21,-6.21,-6.70,-7.23,2.33,2.34,2.34
56.86,8.54,6.22,8.54,6.22,-6.22,-6.70,-7.35,2.32,2.32,2.32
57.42,8.54,6.24,8.53,6.23,-6.23,-6.70,-7.46,2.31,2.30,2.29
58.00,8.53,6.25,8.53,6.25,-6.25,-6.69,-7.56,2.28,2.29,2.28
58.58,8.53,6.26,8.53,6.26,-6.26,-6.68,-7.66,2.27,2.27,2.27
59.16,8.53,6.27,8.52,6.27,-6.27,-6.67,-7.74,2.25,2.25,2.26
59.76,8.52,6.28,8.52,6.29,-6.29,-6.66,-7.81,2.23,2.23,2.23
60.35,8.52,6.31,8.51,6.30,-6.31,-6.65,-7.87,2.21,2.21,2.21
60.96,8.51,6.31,8.51,6.32,-6.32,-6.63,-7.92,2.18,2.18,2.19
61.57,8.50,6.34,8.50,6.34,-6.34,-6.61,-7.95,2.16,2.16,2.16
62.18,8.50,6.36,8.49,6.36,-6.35,-6.59,-7.98,2.14,2.14,2.13
62.80,8.49,6.37,8.48,6.37,-6.37,-6.57,-7.98,2.12,2.12,2.12
63.43,8.48,6.39,8.48,6.38,-6.38,-6.55,-7.98,2.10,2.10,2.09
64.07,8.46,6.38,8.46,6.39,-6.39,-6.53,-7.96,2.07,2.08,2.07
64.71,8.46,6.40,8.45,6.39,-6.40,-6.50,-7.93,2.06,2.05,2.06
65.35,8.44,6.40,8.44,6.40,-6.40,-6.48,-7.88,2.04,2.04,2.04
66.01,8.42,6.40,8.42,6.40,-6.40,-6.45,-7.83,2.01,2.02,2.02
66.67,8.41,6.41,8.40,6.40,-6.40,-6.42,-7.76,2.00,2.00,2.00
67.33,8.39,6.41,8.38,6.40,-6.40,-6.39,-7.68,1.98,1.98,1.98
68.01,8.36,6.40,8.36,6.40,-6.40,-6.36,-7.60,1.96,1.96,1.96
68.69,8.34,6.40,8.33,6.40,-6.40,-6.33,-7.50,1.94,1.94,1.94
69.37,8.31,6.39,8.31,6.39,-6.39,-6.29,-7.40,1.92,1.92,1.92
70.07,8.29,6.39,8.29,6.39,-6.38,-6.26,-7.29,1.90,1.90,1.90
70.77,8.26,6.37,8.26,6.37,-6.38,-6.22,-7.18,1.88,1.88,1.88
71.48,8.23,6.37,8.23,6.36,-6.37,-6.19,-7.06,1.86,1.86,1.86
72.19,8.19,6.35,8.19,6.36,-6.36,-6.15,-6.94,1.83,1.83,1.84
72.91,8.16,6.35,8.15,6.35,-6.35,-6.11,-6.81,1.81,1.81,1.80
73.64,8.12,6.34,8.12,6.33,-6.33,-6.07,-6.69,1.78,1.78,1.78
74.38,8.08,6.31,8.08,6.32,-6.32,-6.03,-6.56,1.76,1.76,1.76
75.12,8.05,6.31,8.04,6.30,-6.30,-5.99,-6.43,1.75,1.74,1.74
75.87,8.00,6.29,8.00,6.28,-6.28,-5.95,-6.31,1.71,1.71,1.71
76.63,7.95,6.25,7.95,6.26,-6.26,-5.91,-6.18,1.69,1.69,1.69
77.40,7.90,6.23,7.90,6.24,-6.24,-5.87,-6.06,1.66,1.66,1.67
78.17,7.85,6.22,7.85,6.21,-6.21,-5.82,-5.93,1.64,1.64,1.63
78.95,7.80,6.19,7.79,6.18,-6.18,-5.78,-5.81,1.61,1.61,1.61
79.74,7.74,6.15,7.74,6.15,-6.15,-5.73,-5.69,1.58,1.58,1.59
80.54,7.68,6.12,7.68,6.12,-6.12,-5.69,-5.57,1.55,1.56,1.56
81.35,7.63,6.10,7.62,6.09,-6.09,-5.64,-5.46,1.54,1.53,1.53
82.16,7.56,6.06,7.56,6.06,-6.06,-5.60,-5.35,1.50,1.50,1.50
82.98,7.49,6.01,7.49,6.02,-6.02,-5.55,-5.24,1.47,1.47,1.48
83.81,7.43,5.99,7.42,5.98,-5.98,-5.50,-5.13,1.44,1.43,1.43
84.65,7.34,5.94,7.34,5.94,-5.94,-5.45,-5.03,1.40,1.40,1.40
85.50,7.27,5.89,7.27,5.90,-5.90,-5.41,-4.93,1.37,1.37,1.38
86.35,7.20,5.85,7.19,5.85,-5.85,-5.36,-4.84,1.35,1.34,1.34
87.22,7.11,5.80,7.11,5.80,-5.80,-5.31,-4.75,1.31,1.31,1.31
88.09,7.03,5.75,7.03,5.75,-5.75,-5.26,-4.66,1.28,1.28,1.27
88.97,6.94,5.69,6.94,5.69,-5.69,-5.21,-4.57,1.25,1.25,1.25
89.86,6.85,5.62,6.85,5.63,-5.63,-5.16,-4.49,1.22,1.21,1.22
90.76,6.75,5.57,6.75,5.57,-5.57,-5.11,-4.41,1.18,1.18,1.18
91.66,6.66,5.51,6.65,5.51,-5.51,-5.06,-4.34,1.15,1.15,1.15
92.58,6.56,5.45,6.56,5.45,-5.44,-5.01,-4.27,1.11,1.11,1.10
93.51,6.46,5.37,6.46,5.38,-5.38,-4.95,-4.20,1.08,1.08,1.09
94.44,6.36,5.31,6.35,5.31,-5.31,-4.90,-4.14,1.05,1.04,1.05
95.39,6.25,5.24,6.25,5.24,-5.24,-4.85,-4.07,1.00,1.00,1.01
96.34,6.14,5.18,6.14,5.17,-5.17,-4.80,-4.02,0.96,0.97,0.96
97.30,6.03,5.10,6.03,5.10,-5.10,-4.75,-3.96,0.93,0.93,0.92
98.28,5.92,5.03,5.91,5.03,-5.03,-4.69,-3.91,0.89,0.89,0.88
99.26,5.80,4.95,5.80,4.95,-4.95,-4.64,-3.86,0.85,0.85,0.85
100.25,5.68,4.87,5.68,4.87,-4.87,-4.58,-3.81,0.80,0.80,0.81
101.25,5.56,4.79,5.56,4.79,-4.80,-4.53,-3.77,0.76,0.76,0.77
102.27,5.44,4.71,5.44,4.71,-4.72,-4.48,-3.72,0.72,0.72,0.73
103.29,5.32,4.65,5.32,4.64,-4.63,-4.42,-3.68,0.68,0.68,0.67
104.32,5.19,4.55,5.19,4.56,-4.55,-4.36,-3.64,0.64,0.64,0.64
105.37,5.07,4.48,5.06,4.47,-4.47,-4.31,-3.61,0.60,0.60,0.59
106.42,4.93,4.38,4.93,4.38,-4.38,-4.25,-3.57,0.55,0.55,0.55
107.48,4.80,4.29,4.80,4.29,-4.30,-4.19,-3.54,0.50,0.50,0.51
108.56,4.67,4.21,4.67,4.21,-4.21,-4.14,-3.51,0.45,0.45,0.45
109.64,4.54,4.12,4.54,4.12,-4.13,-4.08,-3.48,0.41,0.41,0.41
110.74,4.41,4.04,4.41,4.04,-4.04,-4.02,-3.45,0.37,0.37,0.36
111.85,4.28,3.95,4.27,3.96,-3.96,-3.96,-3.42,0.32,0.32,0.32
112.97,4.14,3.88,4.14,3.87,-3.87,-3.90,-3.40,0.27,0.27,0.26
114.10,4.00,3.78,4.00,3.79,-3.79,-3.83,-3.37,0.21,0.22,0.22
115.24,3.87,3.70,3.87,3.70,-3.70,-3.77,-3.34,0.17,0.17,0.17
116.39,3.74,3.62,3.73,3.61,-3.61,-3.71,-3.32,0.13,0.12,0.12
117.55,3.60,3.52,3.60,3.52,-3.52,-3.64,-3.29,0.07,0.08,0.07
118.73,3.46,3.43,3.46,3.43,-3.43,-3.57,-3.26,0.03,0.03,0.03
119.92,3.33,3.34,3.33,3.34,-3.34,-3.51,-3.24,-0.01,-0.01,-0.01
121.12,3.20,3.25,3.19,3.25,-3.25,-3.44,-3.21,-0.05,-0.06,-0.06
122.33,3.06,3.16,3.06,3.16,-3.16,-3.37,-3.18,-0.10,-0.10,-0.10
123.55,2.93,3.07,2.93,3.07,-3.07,-3.29,-3.16,-0.14,-0.14,-0.14
124.79,2.80,2.97,2.80,2.97,-2.98,-3.22,-3.13,-0.18,-0.19,-0.18
126.03,2.67,2.89,2.67,2.89,-2.89,-3.14,-3.10,-0.23,-0.23,-0.22
127.29,2.54,2.80,2.54,2.80,-2.81,-3.06,-3.07,-0.27,-0.27,-0.26
128.57,2.42,2.73,2.42,2.73,-2.72,-2.98,-3.04,-0.31,-0.31,-0.31
129.85,2.30,2.65,2.29,2.64,-2.64,-2.90,-3.01,-0.34,-0.34,-0.35
131.15,2.18,2.56,2.18,2.56,-2.56,-2.81,-2.98,-0.38,-0.38,-0.39
132.46,2.06,2.47,2.06,2.48,-2.48,-2.72,-2.95,-0.42,-0.42,-0.42
133.79,1.95,2.40,1.94,2.39,-2.40,-2.63,-2.92,-0.45,-0.45,-0.45
135.12,1.83,2.32,1.83,2.31,-2.32,-2.54,-2.88,-0.49,-0.49,-0.49
136.48,1.72,2.23,1.72,2.24,-2.24,-2.44,-2.85,-0.52,-0.52,-0.51
137.84,1.62,2.16,1.61,2.16,-2.16,-2.35,-2.82,-0.54,-0.54,-0.54
139.22,1.52,2.09,1.52,2.09,-2.08,-2.25,-2.79,-0.57,-0.57,-0.57
140.61,1.42,2.02,1.42,2.02,-2.01,-2.15,-2.75,-0.59,-0.59,-0.60
142.02,1.33,1.94,1.32,1.94,-1.94,-2.06,-2.72,-0.61,-0.61,-0.61
143.44,1.24,1.87,1.24,1.87,-1.87,-1.96,-2.69,-0.63,-0.64,-0.64
144.87,1.15,1.80,1.15,1.81,-1.81,-1.87,-2.66,-0.66,-0.66,-0.65
146.32,1.08,1.75,1.08,1.75,-1.75,-1.78,-2.63,-0.67,-0.68,-0.67
147.78,1.01,1.69,1.01,1.70,-1.70,-1.69,-2.60,-0.69,-0.69,-0.69
149.26,0.95,1.65,0.94,1.65,-1.65,-1.62,-2.57,-0.71,-0.71,-0.70
150.75,0.88,1.62,0.88,1.61,-1.61,-1.55,-2.54,-0.73,-0.73,-0.74
152.26,0.83,1.58,0.83,1.58,-1.58,-1.49,-2.51,-0.75,-0.75,-0.75
153.78,0.79,1.55,0.78,1.55,-1.55,-1.44,-2.49,-0.76,-0.77,-0.77
155.32,0.74,1.53,0.74,1.53,-1.53,-1.40,-2.46,-0.79,-0.79,-0.79
156.88,0.71,1.51,0.71,1.51,-1.52,-1.38,-2.44,-0.81,-0.81,-0.80
158.44,0.68,1.50,0.68,1.50,-1.51,-1.37,-2.42,-0.83,-0.83,-0.82
160.03,0.66,1.50,0.66,1.50,-1.51,-1.37,-2.39,-0.85,-0.85,-0.85
161.63,0.64,1.51,0.64,1.51,-1.51,-1.39,-2.38,-0.88,-0.87,-0.88
163.24,0.64,1.53,0.64,1.53,-1.52,-1.42,-2.36,-0.89,-0.89,-0.90
164.88,0.64,1.54,0.64,1.55,-1.54,-1.45,-2.34,-0.91,-0.91,-0.91
166.53,0.64,1.56,0.64,1.57,-1.57,-1.50,-2.33,-0.93,-0.93,-0.93
168.19,0.65,1.60,0.64,1.59,-1.59,-1.55,-2.31,-0.95,-0.95,-0.95
169.87,0.65,1.62,0.65,1.63,-1.63,-1.61,-2.30,-0.98,-0.98,-0.97
171.57,0.67,1.67,0.67,1.66,-1.67,-1.67,-2.29,-1.00,-1.00,-1.00
173.29,0.69,1.70,0.68,1.70,-1.71,-1.74,-2.29,-1.02,-1.03,-1.02
175.02,0.71,1.75,0.71,1.76,-1.76,-1.81,-2.28,-1.05,-1.05,-1.04
176.77,0.73,1.81,0.73,1.81,-1.81,-1.88,-2.28,-1.08,-1.08,-1.08
178.54,0.76,1.87,0.75,1.86,-1.86,-1.94,-2.27,-1.11,-1.11,-1.12
180.32,0.78,1.92,0.78,1.92,-1.92,-2.01,-2.27,-1.14,-1.14,-1.14
182.13,0.81,1.97,0.80,1.98,-1.98,-2.08,-2.27,-1.17,-1.17,-1.17
183.95,0.83,2.04,0.83,2.03,-2.03,-2.14,-2.27,-1.21,-1.20,-1.21
185.79,0.86,2.09,0.86,2.09,-2.09,-2.20,-2.28,-1.23,-1.23,-1.23
187.65,0.89,2.15,0.88,2.15,-2.15,-2.26,-2.28,-1.26,-1.26,-1.27
189.52,0.91,2.20,0.91,2.20,-2.20,-2.31,-2.29,-1.30,-1.29,-1.29
191.42,0.94,2.26,0.94,2.26,-2.26,-2.37,-2.30,-1.32,-1.32,-1.32
193.33,0.97,2.31,0.96,2.31,-2.31,-2.42,-2.31,-1.34,-1.35,-1.34
195.27,0.99,2.36,0.99,2.36,-2.36,-2.46,-2.32,-1.38,-1.38,-1.38
197.22,1.01,2.40,1.01,2.41,-2.41,-2.51,-2.33,-1.41,-1.40,-1.40
199.19,1.04,2.48,1.04,2.46,-2.47,-2.55,-2.34,-1.43,-1.43,-1.44
201.18,1.07,2.52,1.06,2.52,-2.52,-2.59,-2.36,-1.45,-1.45,-1.45
203.19,1.09,2.56,1.09,2.56,-2.56,-2.62,-2.37,-1.48,-1.47,-1.47
205.23,1.12,2.62,1.12,2.61,-2.61,-2.66,-2.39,-1.49,-1.49,-1.50
207.28,1.15,2.65,1.14,2.65,-2.65,-2.69,-2.40,-1.51,-1.51,-1.50
209.35,1.17,2.69,1.17,2.70,-2.70,-2.71,-2.42,-1.53,-1.53,-1.53
211.44,1.19,2.74,1.19,2.73,-2.73,-2.74,-2.43,-1.55,-1.55,-1.56
213.56,1.21,2.77,1.21,2.77,-2.77,-2.76,-2.45,-1.56,-1.56,-1.57
215.69,1.23,2.79,1.23,2.80,-2.80,-2.78,-2.46,-1.58,-1.58,-1.56
217.85,1.25,2.83,1.25,2.83,-2.83,-2.79,-2.48,-1.58,-1.58,-1.58
220.03,1.27,2.86,1.27,2.86,-2.85,-2.81,-2.49,-1.58,-1.58,-1.59
222.23,1.29,2.88,1.28,2.87,-2.87,-2.82,-2.50,-1.58,-1.58,-1.60
224.45,1.30,2.88,1.29,2.88,-2.88,-2.82,-2.51,-1.58,-1.58,-1.58
226.70,1.30,2.88,1.30,2.88,-2.88,-2.83,-2.52,-1.59,-1.58,-1.58
228.96,1.31,2.88,1.30,2.88,-2.88,-2.83,-2.52,-1.58,-1.58,-1.58
231.25,1.31,2.87,1.31,2.87,-2.88,-2.82,-2.53,-1.57,-1.57,-1.56
233.57,1.31,2.87,1.31,2.87,-2.87,-2.82,-2.53,-1.56,-1.56,-1.56
235.90,1.31,2.85,1.31,2.86,-2.86,-2.81,-2.52,-1.55,-1.55,-1.55
238.26,1.32,2.86,1.31,2.85,-2.84,-2.79,-2.52,-1.53,-1.53,-1.54
240.64,1.31,2.82,1.31,2.83,-2.82,-2.78,-2.51,-1.52,-1.51,-1.52
243.05,1.31,2.81,1.30,2.80,-2.80,-2.76,-2.50,-1.49,-1.50,-1.50
245.48,1.29,2.76,1.29,2.77,-2.78,-2.74,-2.48,-1.49,-1.48,-1.48
247.93,1.29,2.74,1.29,2.75,-2.75,-2.71,-2.47,-1.46,-1.46,-1.45
250.41,1.28,2.72,1.27,2.71,-2.71,-2.68,-2.44,-1.44,-1.44,-1.45
252.92,1.27,2.68,1.27,2.68,-2.68,-2.65,-2.42,-1.41,-1.41,-1.41
255.45,1.25,2.63,1.25,2.64,-2.64,-2.62,-2.39,-1.39,-1.39,-1.39
258.00,1.24,2.61,1.23,2.60,-2.60,-2.58,-2.35,-1.36,-1.37,-1.37
260.58,1.22,2.56,1.21,2.56,-2.56,-2.54,-2.32,-1.34,-1.34,-1.34
263.19,1.19,2.51,1.19,2.51,-2.51,-2.49,-2.28,-1.33,-1.32,-1.32
265.82,1.17,2.47,1.17,2.46,-2.46,-2.45,-2.23,-1.30,-1.29,-1.30
268.48,1.15,2.41,1.14,2.41,-2.41,-2.40,-2.18,-1.27,-1.27,-1.27
271.16,1.12,2.36,1.11,2.36,-2.36,-2.35,-2.13,-1.24,-1.25,-1.24
273.87,1.08,2.30,1.08,2.30,-2.31,-2.30,-2.08,-1.23,-1.22,-1.22
276.61,1.05,2.24,1.05,2.25,-2.25,-2.24,-2.02,-1.20,-1.20,-1.20
279.38,1.02,2.20,1.01,2.19,-2.19,-2.18,-1.97,-1.17,-1.17,-1.18
282.17,0.98,2.13,0.98,2.13,-2.13,-2.13,-1.91,-1.15,-1.15,-1.15
284.99,0.94,2.06,0.94,2.06,-2.06,-2.06,-1.84,-1.12,-1.12,-1.13
287.84,0.89,1.99,0.89,1.99,-1.99,-2.00,-1.78,-1.11,-1.10,-1.10
290.72,0.86,1.93,0.85,1.92,-1.92,-1.94,-1.71,-1.07,-1.07,-1.07
293.63,0.81,1.85,0.81,1.85,-1.85,-1.87,-1.64,-1.04,-1.04,-1.04
296.57,0.76,1.77,0.76,1.78,-1.77,-1.80,-1.58,-1.02,-1.01,-1.02
299.53,0.71,1.70,0.71,1.70,-1.69,-1.73,-1.51,-0.99,-0.99,-0.99
302.53,0.66,1.63,0.65,1.62,-1.61,-1.66,-1.44,-0.96,-0.96,-0.97
305.55,0.60,1.52,0.60,1.53,-1.53,-1.58,-1.36,-0.93,-0.93,-0.92
308.61,0.56,1.45,0.55,1.45,-1.45,-1.51,-1.29,-0.89,-0.89,-0.89
311.69,0.51,1.36,0.50,1.36,-1.36,-1.43,-1.22,-0.85,-0.86,-0.86
314.81,0.46,1.27,0.46,1.28,-1.28,-1.35,-1.15,-0.82,-0.82,-0.81
317.96,0.41,1.20,0.41,1.20,-1.20,-1.27,-1.07,-0.79,-0.79,-0.79
321.14,0.37,1.13,0.36,1.12,-1.12,-1.18,-1.00,-0.75,-0.76,-0.76
324.35,0.31,1.04,0.31,1.05,-1.05,-1.10,-0.93,-0.74,-0.73,-0.73
327.59,0.27,0.97,0.27,0.97,-0.98,-1.01,-0.85,-0.71,-0.71,-0.71
330.87,0.24,0.91,0.23,0.91,-0.92,-0.92,-0.78,-0.69,-0.69,-0.68
334.18,0.20,0.86,0.20,0.86,-0.88,-0.82,-0.71,-0.68,-0.68,-0.66
337.52,0.18,0.82,0.17,0.81,-0.84,-0.73,-0.64,-0.66,-0.66,-0.64
340.90,0.15,0.76,0.15,0.76,-0.80,-0.62,-0.56,-0.65,-0.65,-0.61
344.30,0.13,0.72,0.13,0.73,-0.74,-0.52,-0.49,-0.62,-0.61,-0.59
347.75,0.11,0.68,0.13,0.70,-0.67,-0.41,-0.42,-0.57,-0.55,-0.57
351.23,0.11,0.66,0.10,0.65,-0.59,-0.30,-0.35,-0.48,-0.49,-0.56
354.74,0.06,0.59,0.01,0.55,-0.48,-0.18,-0.27,-0.42,-0.46,-0.54
358.28,-0.14,0.38,-0.13,0.39,-0.35,-0.06,-0.20,-0.49,-0.47,-0.52
361.87,-0.32,0.18,-0.31,0.19,-0.20,0.07,-0.13,-0.52,-0.51,-0.50
365.49,-0.49,-0.01,-0.49,-0.01,-0.04,0.20,-0.06,-0.53,-0.53,-0.48
369.14,-0.65,-0.18,-0.65,-0.18,0.14,0.33,0.01,-0.51,-0.51,-0.47
372.83,-0.80,-0.35,-0.81,-0.35,0.33,0.48,0.08,-0.48,-0.48,-0.45
376.56,-0.95,-0.51,-0.95,-0.51,0.51,0.62,0.15,-0.45,-0.45,-0.44
380.33,-1.10,-0.69,-1.10,-0.68,0.68,0.78,0.22,-0.42,-0.42,-0.41
384.13,-1.24,-0.85,-1.25,-0.85,0.86,0.93,0.29,-0.39,-0.39,-0.40
387.97,-1.40,-1.03,-1.40,-1.02,1.03,1.09,0.36,-0.38,-0.37,-0.38
391.85,-1.55,-1.19,-1.55,-1.19,1.20,1.26,0.43,-0.35,-0.35,-0.37
395.77,-1.71,-1.38,-1.71,-1.37,1.39,1.42,0.50,-0.33,-0.33,-0.34
399.73,-1.87,-1.55,-1.88,-1.55,1.58,1.58,0.57,-0.30,-0.30,-0.32
403.72,-2.04,-1.74,-2.05,-1.75,1.77,1.74,0.64,-0.28,-0.28,-0.30
407.76,-2.22,-1.94,-2.22,-1.94,1.96,1.89,0.71,-0.27,-0.26,-0.28
411.84,-2.39,-2.14,-2.39,-2.14,2.14,2.03,0.77,-0.25,-0.25,-0.25
415.96,-2.54,-2.31,-2.55,-2.32,2.32,2.16,0.84,-0.22,-0.23,-0.23
420.12,-2.68,-2.47,-2.69,-2.47,2.48,2.26,0.90,-0.21,-0.21,-0.21
424.32,-2.80,-2.61,-2.80,-2.61,2.61,2.35,0.97,-0.20,-0.20,-0.19
428.56,-2.88,-2.71,-2.88,-2.71,2.70,2.42,1.03,-0.19,-0.19,-0.17
432.85,-2.92,-2.77,-2.91,-2.76,2.74,2.46,1.09,-0.19,-0.18,-0.15
437.18,-2.89,-2.77,-2.90,-2.78,2.72,2.47,1.15,-0.17,-0.18,-0.12
441.55,-2.82,-2.73,-2.83,-2.73,2.65,2.46,1.20,-0.17,-0.17,-0.09
445.96,-2.71,-2.64,-2.68,-2.61,2.54,2.43,1.26,-0.17,-0.14,-0.08
450.42,-2.46,-2.41,-2.47,-2.42,2.39,2.38,1.31,-0.08,-0.09,-0.06
454.93,-2.22,-2.21,-2.23,-2.20,2.21,2.31,1.36,-0.01,-0.02,-0.02
459.48,-1.96,-1.97,-1.97,-1.98,2.02,2.23,1.41,0.06,0.05,0.00
464.07,-1.74,-1.78,-1.75,-1.78,1.84,2.13,1.45,0.09,0.09,0.03
468.71,-1.55,-1.62,-1.55,-1.61,1.67,2.04,1.50,0.12,0.12,0.06
473.40,-1.39,-1.49,-1.40,-1.49,1.54,1.93,1.53,0.15,0.14,0.09
478.13,-1.28,-1.41,-1.29,-1.41,1.44,1.83,1.57,0.16,0.16,0.12
482.91,-1.21,-1.35,-1.21,-1.36,1.38,1.73,1.60,0.16,0.17,0.14
487.74,-1.16,-1.33,-1.16,-1.34,1.34,1.63,1.63,0.18,0.18,0.17
492.62,-1.13,-1.33,-1.13,-1.33,1.32,1.54,1.66,0.19,0.19,0.20
497.55,-1.10,-1.33,-1.10,-1.33,1.31,1.45,1.68,0.21,0.21,0.23
502.52,-1.07,-1.33,-1.07,-1.33,1.30,1.37,1.70,0.23,0.23,0.26
507.55,-1.03,-1.31,-1.03,-1.31,1.29,1.29,1.71,0.26,0.26,0.28
