frequency,raw,error,smoothed,error_smoothed,equalization,parametric_eq,fixed_band_eq,equalized_raw,equalized_smoothed,target
20.00,1.64,-0.96,1.65,-0.96,0.98,0.27,-0.13,2.63,2.63,2.60
20.20,1.65,-0.96,1.65,-0.96,0.97,0.27,-0.13,2.62,2.62,2.61
20.40,1.67,-0.95,1.67,-0.95,0.95,0.26,-0.13,2.62,2.61,2.62
20.61,1.68,-0.94,1.68,-0.94,0.93,0.25,-0.14,2.61,2.61,2.62
20.81,1.70,-0.93,1.70,-0.93,0.90,0.25,-0.14,2.61,2.60,2.63
21.02,1.71,-0.92,1.73,-0.91,0.88,0.24,-0.14,2.59,2.61,2.63
21.23,1.77,-0.87,1.77,-0.87,0.85,0.24,-0.15,2.62,2.62,2.64
21.44,1.83,-0.82,1.82,-0.82,0.82,0.23,-0.15,2.64,2.64,2.64
21.66,1.87,-0.77,1.88,-0.76,0.78,0.22,-0.15,2.65,2.66,2.64
21.87,1.93,-0.72,1.92,-0.72,0.74,0.22,-0.16,2.66,2.66,2.64
22.09,1.96,-0.69,1.96,-0.69,0.70,0.21,-0.16,2.67,2.66,2.65
22.31,1.98,-0.66,1.99,-0.66,0.66,0.20,-0.16,2.65,2.65,2.65
22.54,2.00,-0.64,2.01,-0.63,0.63,0.19,-0.17,2.63,2.64,2.64
22.76,2.03,-0.59,2.03,-0.60,0.60,0.19,-0.17,2.63,2.63,2.63
22.99,2.05,-0.57,2.06,-0.57,0.57,0.18,-0.18,2.62,2.62,2.63
23.22,2.08,-0.54,2.08,-0.54,0.54,0.17,-0.18,2.62,2.62,2.63
23.45,2.11,-0.50,2.11,-0.51,0.51,0.16,-0.18,2.62,2.62,2.62
23.69,2.14,-0.47,2.14,-0.47,0.47,0.16,-0.19,2.62,2.62,2.62
23.92,2.17,-0.44,2.17,-0.44,0.44,0.15,-0.19,2.62,2.61,2.62
24.16,2.20,-0.41,2.21,-0.41,0.40,0.14,-0.20,2.61,2.61,2.62
24.40,2.25,-0.37,2.24,-0.37,0.37,0.13,-0.20,2.61,2.61,2.62
24.65,2.28,-0.33,2.28,-0.33,0.33,0.12,-0.21,2.62,2.61,2.61
24.89,2.32,-0.30,2.32,-0.30,0.30,0.12,-0.21,2.61,2.61,2.61
25.14,2.35,-0.26,2.35,-0.26,0.26,0.11,-0.22,2.61,2.61,2.61
25.39,2.39,-0.22,2.38,-0.22,0.23,0.10,-0.22,2.61,2.61,2.60
25.65,2.41,-0.19,2.42,-0.19,0.19,0.09,-0.23,2.61,2.61,2.60
25.91,2.44,-0.16,2.44,-0.16,0.16,0.08,-0.23,2.60,2.60,2.60
26.16,2.47,-0.13,2.47,-0.13,0.13,0.07,-0.24,2.60,2.60,2.60
26.43,2.49,-0.11,2.50,-0.10,0.10,0.06,-0.24,2.60,2.60,2.60
26.69,2.52,-0.07,2.52,-0.08,0.07,0.05,-0.25,2.60,2.60,2.60
26.96,2.55,-0.04,2.55,-0.05,0.05,0.04,-0.26,2.60,2.60,2.60
27.23,2.57,-0.02,2.58,-0.02,0.02,0.03,-0.26,2.59,2.59,2.60
27.50,2.60,0.01,2.61,0.01,-0.01,0.02,-0.27,2.59,2.59,2.60
27.77,2.63,0.04,2.63,0.04,-0.04,0.01,-0.27,2.59,2.59,2.60
28.05,2.66,0.07,2.66,0.07,-0.07,0.00,-0.28,2.60,2.59,2.60
28.33,2.68,0.09,2.69,0.09,-0.09,-0.01,-0.29,2.60,2.60,2.59
28.62,2.71,0.12,2.72,0.12,-0.11,-0.02,-0.29,2.61,2.61,2.59
28.90,2.74,0.14,2.74,0.14,-0.13,-0.03,-0.30,2.62,2.61,2.60
29.19,2.76,0.16,2.76,0.16,-0.15,-0.04,-0.31,2.62,2.61,2.60
29.48,2.76,0.16,2.77,0.16,-0.17,-0.05,-0.32,2.59,2.59,2.60
29.78,2.77,0.17,2.78,0.17,-0.20,-0.07,-0.32,2.58,2.58,2.61
30.08,2.79,0.19,2.80,0.19,-0.23,-0.08,-0.33,2.57,2.58,2.61
30.38,2.84,0.24,2.85,0.24,-0.25,-0.09,-0.34,2.59,2.60,2.61
30.68,2.90,0.30,2.90,0.30,-0.28,-0.10,-0.35,2.63,2.62,2.61
30.99,2.95,0.35,2.94,0.34,-0.30,-0.11,-0.35,2.65,2.64,2.60
31.30,2.95,0.35,2.96,0.35,-0.32,-0.13,-0.36,2.63,2.63,2.60
31.61,2.95,0.35,2.96,0.36,-0.35,-0.14,-0.37,2.61,2.61,2.60
31.93,2.95,0.36,2.96,0.36,-0.37,-0.15,-0.38,2.59,2.59,2.60
32.24,2.96,0.38,2.96,0.37,-0.39,-0.17,-0.39,2.57,2.57,2.59
32.57,2.97,0.39,2.97,0.39,-0.42,-0.18,-0.40,2.56,2.56,2.59
32.89,2.99,0.41,3.00,0.42,-0.44,-0.19,-0.41,2.55,2.56,2.58
33.22,3.03,0.46,3.04,0.46,-0.47,-0.21,-0.42,2.56,2.57,2.57
33.55,3.09,0.51,3.09,0.52,-0.50,-0.22,-0.43,2.58,2.58,2.57
33.89,3.13,0.58,3.13,0.56,-0.53,-0.24,-0.44,2.60,2.59,2.56
34.23,3.15,0.60,3.15,0.59,-0.56,-0.25,-0.45,2.59,2.59,2.56
34.57,3.15,0.60,3.16,0.60,-0.59,-0.27,-0.46,2.56,2.57,2.56
34.92,3.15,0.60,3.16,0.61,-0.61,-0.28,-0.47,2.54,2.55,2.55
35.27,3.16,0.61,3.17,0.62,-0.63,-0.30,-0.48,2.53,2.54,2.55
35.62,3.18,0.64,3.18,0.63,-0.65,-0.31,-0.49,2.54,2.54,2.55
35.97,3.20,0.66,3.20,0.66,-0.66,-0.33,-0.51,2.54,2.54,2.55
36.33,3.22,0.68,3.22,0.68,-0.68,-0.35,-0.52,2.54,2.54,2.54
36.70,3.24,0.70,3.24,0.70,-0.71,-0.36,-0.53,2.54,2.54,2.54
37.06,3.26,0.73,3.27,0.73,-0.73,-0.38,-0.55,2.54,2.54,2.54
37.43,3.30,0.76,3.30,0.76,-0.75,-0.40,-0.56,2.54,2.55,2.54
37.81,3.33,0.79,3.33,0.79,-0.77,-0.41,-0.57,2.56,2.55,2.54
38.19,3.35,0.81,3.35,0.81,-0.80,-0.43,-0.59,2.56,2.55,2.54
38.57,3.35,0.82,3.36,0.81,-0.82,-0.45,-0.60,2.53,2.53,2.54
38.95,3.35,0.81,3.37,0.82,-0.84,-0.47,-0.62,2.51,2.52,2.54
39.34,3.38,0.84,3.39,0.85,-0.86,-0.49,-0.64,2.53,2.53,2.54
39.74,3.42,0.89,3.42,0.88,-0.87,-0.51,-0.65,2.55,2.54,2.54
40.14,3.45,0.92,3.45,0.91,-0.89,-0.52,-0.67,2.56,2.56,2.53
40.54,3.45,0.92,3.46,0.92,-0.91,-0.54,-0.69,2.55,2.55,2.53
40.94,3.45,0.93,3.46,0.93,-0.93,-0.56,-0.71,2.53,2.53,2.53
41.35,3.45,0.93,3.45,0.93,-0.95,-0.58,-0.72,2.51,2.50,2.52
41.76,3.45,0.95,3.46,0.95,-0.97,-0.60,-0.74,2.49,2.49,2.51
42.18,3.47,0.97,3.49,0.98,-0.99,-0.62,-0.76,2.48,2.50,2.50
42.60,3.52,1.02,3.52,1.02,-1.01,-0.65,-0.78,2.51,2.51,2.50
43.03,3.56,1.07,3.55,1.05,-1.04,-0.67,-0.80,2.52,2.50,2.50
43.46,3.56,1.07,3.56,1.08,-1.08,-0.69,-0.83,2.49,2.49,2.49
43.90,3.56,1.09,3.58,1.10,-1.11,-0.71,-0.85,2.46,2.47,2.48
44.33,3.59,1.12,3.60,1.13,-1.14,-0.73,-0.87,2.46,2.46,2.47
44.78,3.64,1.18,3.63,1.17,-1.16,-0.75,-0.90,2.48,2.47,2.47
45.23,3.66,1.20,3.66,1.20,-1.18,-0.78,-0.92,2.48,2.48,2.46
45.68,3.66,1.21,3.67,1.21,-1.19,-0.80,-0.94,2.47,2.47,2.46
46.13,3.66,1.20,3.67,1.21,-1.20,-0.82,-0.97,2.47,2.47,2.46
46.60,3.66,1.21,3.66,1.21,-1.20,-0.85,-1.00,2.46,2.46,2.45
47.06,3.66,1.21,3.66,1.21,-1.20,-0.87,-1.02,2.46,2.46,2.46
47.53,3.66,1.20,3.67,1.21,-1.20,-0.90,-1.05,2.46,2.46,2.46
48.01,3.66,1.20,3.66,1.19,-1.21,-0.92,-1.08,2.45,2.44,2.46
48.49,3.66,1.20,3.66,1.19,-1.23,-0.95,-1.11,2.44,2.43,2.47
48.97,3.65,1.18,3.69,1.22,-1.25,-0.97,-1.14,2.41,2.44,2.47
49.46,3.73,1.26,3.74,1.26,-1.27,-1.00,-1.17,2.46,2.47,2.47
49.96,3.82,1.34,3.80,1.31,-1.30,-1.02,-1.20,2.53,2.50,2.49
50.46,3.84,1.36,3.85,1.36,-1.32,-1.05,-1.23,2.52,2.53,2.49
50.96,3.86,1.37,3.87,1.37,-1.34,-1.08,-1.26,2.52,2.52,2.50
51.47,3.86,1.36,3.87,1.37,-1.36,-1.10,-1.29,2.51,2.51,2.50
51.99,3.86,1.36,3.87,1.36,-1.37,-1.13,-1.32,2.50,2.50,2.50
52.51,3.86,1.36,3.86,1.36,-1.37,-1.16,-1.35,2.49,2.49,2.50
53.03,3.86,1.36,3.86,1.36,-1.37,-1.19,-1.38,2.50,2.50,2.50
53.56,3.86,1.36,3.86,1.36,-1.36,-1.22,-1.41,2.51,2.51,2.50
54.10,3.86,1.35,3.86,1.35,-1.35,-1.24,-1.44,2.51,2.51,2.51
54.64,3.86,1.35,3.86,1.35,-1.35,-1.27,-1.48,2.52,2.52,2.51
55.18,3.86,1.35,3.86,1.35,-1.35,-1.30,-1.51,2.51,2.51,2.51
55.74,3.86,1.36,3.86,1.36,-1.36,-1.33,-1.54,2.50,2.50,2.50
56.29,3.86,1.36,3.86,1.36,-1.37,-1.36,-1.57,2.49,2.49,2.50
56.86,3.86,1.37,3.87,1.38,-1.39,-1.39,-1.60,2.47,2.48,2.50
57.42,3.88,1.40,3.89,1.40,-1.41,-1.42,-1.63,2.47,2.47,2.49
58.00,3.91,1.44,3.92,1.44,-1.44,-1.46,-1.66,2.47,2.48,2.47
58.58,3.94,1.48,3.94,1.48,-1.47,-1.49,-1.68,2.48,2.48,2.46
59.16,3.97,1.53,3.96,1.51,-1.50,-1.52,-1.71,2.48,2.47,2.45
59.76,3.96,1.53,3.97,1.54,-1.53,-1.55,-1.74,2.44,2.44,2.43
60.35,3.96,1.56,3.97,1.56,-1.56,-1.58,-1.76,2.41,2.41,2.41
60.96,3.96,1.58,3.96,1.58,-1.59,-1.62,-1.79,2.38,2.38,2.38
61.57,3.96,1.61,3.96,1.61,-1.62,-1.65,-1.81,2.35,2.35,2.36
62.18,3.96,1.64,3.96,1.64,-1.65,-1.68,-1.83,2.32,2.32,2.32
62.80,3.96,1.68,3.96,1.68,-1.68,-1.72,-1.85,2.28,2.28,2.29
63.43,3.96,1.72,3.96,1.72,-1.72,-1.75,-1.87,2.24,2.24,2.24
64.07,3.96,1.76,3.96,1.76,-1.76,-1.79,-1.89,2.20,2.20,2.20
64.71,3.96,1.81,3.96,1.81,-1.80,-1.82,-1.91,2.16,2.16,2.16
65.35,3.96,1.85,3.96,1.85,-1.84,-1.85,-1.92,2.12,2.12,2.12
66.01,3.96,1.88,3.96,1.89,-1.88,-1.89,-1.94,2.08,2.08,2.08
66.67,3.96,1.92,3.96,1.92,-1.92,-1.93,-1.96,2.04,2.04,2.04
67.33,3.96,1.95,3.96,1.96,-1.96,-1.96,-1.97,2.01,2.01,2.01
68.01,3.96,1.99,3.96,1.99,-1.99,-2.00,-1.99,1.97,1.97,1.97
68.69,3.96,2.02,3.96,2.02,-2.02,-2.03,-2.00,1.94,1.94,1.94
69.37,3.96,2.06,3.96,2.06,-2.06,-2.07,-2.02,1.90,1.90,1.91
70.07,3.96,2.09,3.96,2.09,-2.09,-2.11,-2.03,1.87,1.87,1.88
70.77,3.96,2.12,3.96,2.12,-2.12,-2.14,-2.04,1.84,1.84,1.85
71.48,3.96,2.14,3.96,2.15,-2.15,-2.18,-2.06,1.82,1.82,1.82
72.19,3.96,2.18,3.97,2.18,-2.16,-2.22,-2.07,1.80,1.80,1.79
72.91,3.96,2.21,3.97,2.21,-2.18,-2.26,-2.09,1.78,1.79,1.75
73.64,3.96,2.24,3.94,2.22,-2.20,-2.29,-2.11,1.76,1.74,1.72
74.38,3.91,2.23,3.90,2.21,-2.22,-2.33,-2.12,1.70,1.68,1.69
75.12,3.82,2.18,3.86,2.21,-2.24,-2.37,-2.14,1.58,1.62,1.65
75.87,3.82,2.22,3.83,2.23,-2.27,-2.41,-2.16,1.56,1.57,1.60
76.63,3.85,2.29,3.84,2.27,-2.30,-2.45,-2.18,1.56,1.54,1.57
77.40,3.86,2.35,3.86,2.34,-2.33,-2.48,-2.20,1.53,1.53,1.52
78.17,3.86,2.38,3.87,2.39,-2.37,-2.52,-2.22,1.49,1.50,1.48
78.95,3.86,2.43,3.87,2.43,-2.42,-2.56,-2.25,1.45,1.45,1.43
79.74,3.86,2.47,3.86,2.47,-2.47,-2.60,-2.27,1.40,1.40,1.39
80.54,3.86,2.52,3.86,2.52,-2.52,-2.64,-2.30,1.35,1.35,1.34
81.35,3.86,2.56,3.86,2.56,-2.57,-2.68,-2.33,1.30,1.30,1.30
82.16,3.86,2.60,3.86,2.60,-2.61,-2.72,-2.36,1.26,1.26,1.26
82.98,3.86,2.64,3.86,2.64,-2.64,-2.76,-2.39,1.22,1.22,1.22
83.81,3.86,2.68,3.87,2.68,-2.68,-2.79,-2.43,1.18,1.19,1.18
84.65,3.86,2.72,3.87,2.73,-2.72,-2.83,-2.47,1.15,1.15,1.15
85.50,3.86,2.76,3.87,2.76,-2.75,-2.87,-2.50,1.11,1.11,1.11
86.35,3.85,2.79,3.82,2.76,-2.78,-2.91,-2.54,1.07,1.05,1.06
87.22,3.79,2.78,3.79,2.77,-2.79,-2.95,-2.59,1.00,1.00,1.02
88.09,3.71,2.74,3.79,2.82,-2.80,-2.98,-2.63,0.91,0.99,0.97
88.97,3.81,2.87,3.78,2.85,-2.80,-3.02,-2.68,1.01,0.98,0.94
89.86,3.82,2.93,3.74,2.85,-2.80,-3.06,-2.73,1.02,0.94,0.89
90.76,3.64,2.79,3.67,2.82,-2.81,-3.10,-2.78,0.83,0.86,0.85
91.66,3.53,2.72,3.58,2.77,-2.81,-3.13,-2.83,0.72,0.77,0.81
92.58,3.54,2.77,3.53,2.76,-2.83,-3.17,-2.89,0.72,0.71,0.78
93.51,3.56,2.83,3.55,2.81,-2.84,-3.21,-2.94,0.73,0.71,0.73
94.44,3.56,2.87,3.57,2.87,-2.86,-3.24,-3.00,0.71,0.71,0.69
95.39,3.56,2.91,3.57,2.91,-2.88,-3.28,-3.06,0.68,0.68,0.66
96.34,3.56,2.94,3.56,2.94,-2.92,-3.31,-3.13,0.64,0.64,0.62
97.30,3.55,2.97,3.55,2.97,-2.97,-3.35,-3.19,0.59,0.59,0.58
98.28,3.54,3.01,3.54,3.00,-3.01,-3.38,-3.26,0.53,0.53,0.54
99.26,3.53,3.04,3.55,3.05,-3.06,-3.41,-3.32,0.47,0.49,0.50
100.25,3.56,3.10,3.56,3.10,-3.11,-3.44,-3.39,0.46,0.46,0.46
101.25,3.59,3.17,3.58,3.16,-3.16,-3.48,-3.46,0.43,0.42,0.42
102.27,3.58,3.21,3.59,3.22,-3.22,-3.51,-3.53,0.36,0.37,0.37
103.29,3.59,3.27,3.59,3.26,-3.28,-3.54,-3.60,0.31,0.31,0.33
104.32,3.59,3.32,3.61,3.33,-3.35,-3.57,-3.66,0.25,0.27,0.28
105.37,3.63,3.40,3.65,3.41,-3.41,-3.60,-3.73,0.23,0.24,0.24
106.42,3.70,3.51,3.67,3.48,-3.46,-3.62,-3.80,0.24,0.21,0.19
107.48,3.68,3.54,3.68,3.54,-3.52,-3.65,-3.87,0.17,0.17,0.14
108.56,3.65,3.56,3.66,3.57,-3.56,-3.68,-3.93,0.09,0.10,0.09
109.64,3.63,3.59,3.63,3.59,-3.60,-3.70,-4.00,0.04,0.04,0.05
110.74,3.61,3.61,3.63,3.63,-3.62,-3.72,-4.06,-0.01,0.01,0.01
111.85,3.62,3.65,3.62,3.66,-3.64,-3.75,-4.12,-0.02,-0.02,-0.03
112.97,3.63,3.70,3.59,3.66,-3.66,-3.77,-4.17,-0.02,-0.06,-0.07
114.10,3.53,3.64,3.55,3.66,-3.67,-3.79,-4.22,-0.13,-0.12,-0.11
115.24,3.48,3.62,3.51,3.65,-3.67,-3.81,-4.27,-0.19,-0.16,-0.13
116.39,3.49,3.66,3.49,3.66,-3.68,-3.83,-4.31,-0.18,-0.18,-0.17
117.55,3.50,3.69,3.50,3.69,-3.67,-3.84,-4.34,-0.17,-0.18,-0.19
118.73,3.49,3.71,3.48,3.69,-3.66,-3.86,-4.38,-0.17,-0.18,-0.21
119.92,3.44,3.67,3.44,3.67,-3.65,-3.87,-4.40,-0.21,-0.21,-0.23
121.12,3.37,3.62,3.39,3.63,-3.63,-3.89,-4.42,-0.26,-0.25,-0.25
122.33,3.33,3.60,3.35,3.61,-3.61,-3.90,-4.43,-0.28,-0.26,-0.26
123.55,3.32,3.60,3.32,3.59,-3.58,-3.91,-4.44,-0.26,-0.27,-0.28
124.79,3.29,3.58,3.28,3.57,-3.55,-3.92,-4.43,-0.26,-0.27,-0.29
126.03,3.23,3.54,3.24,3.54,-3.53,-3.93,-4.42,-0.30,-0.29,-0.30
127.29,3.18,3.50,3.19,3.50,-3.52,-3.93,-4.40,-0.34,-0.34,-0.32
128.57,3.15,3.49,3.16,3.49,-3.53,-3.93,-4.38,-0.38,-0.37,-0.33
129.85,3.15,3.50,3.16,3.51,-3.56,-3.94,-4.35,-0.40,-0.39,-0.34
131.15,3.20,3.56,3.20,3.56,-3.59,-3.94,-4.32,-0.38,-0.39,-0.36
132.46,3.24,3.62,3.26,3.63,-3.63,-3.94,-4.27,-0.38,-0.37,-0.38
133.79,3.32,3.71,3.32,3.71,-3.68,-3.93,-4.23,-0.35,-0.36,-0.39
135.12,3.37,3.79,3.36,3.76,-3.72,-3.93,-4.17,-0.35,-0.37,-0.41
136.48,3.37,3.80,3.38,3.80,-3.77,-3.92,-4.12,-0.40,-0.39,-0.42
137.84,3.37,3.82,3.38,3.82,-3.81,-3.91,-4.05,-0.44,-0.43,-0.44
139.22,3.38,3.84,3.38,3.84,-3.85,-3.90,-3.98,-0.47,-0.47,-0.46
140.61,3.38,3.86,3.38,3.86,-3.88,-3.89,-3.91,-0.49,-0.49,-0.48
142.02,3.38,3.88,3.39,3.89,-3.90,-3.88,-3.84,-0.51,-0.51,-0.50
143.44,3.38,3.91,3.38,3.91,-3.91,-3.86,-3.76,-0.53,-0.53,-0.52
144.87,3.38,3.94,3.39,3.94,-3.93,-3.85,-3.68,-0.55,-0.55,-0.55
146.32,3.38,3.96,3.39,3.97,-3.96,-3.83,-3.60,-0.57,-0.57,-0.58
147.78,3.38,4.00,3.37,3.98,-3.98,-3.81,-3.52,-0.60,-0.61,-0.61
149.26,3.35,4.00,3.34,3.99,-4.01,-3.78,-3.43,-0.66,-0.67,-0.65
150.75,3.29,3.99,3.32,4.01,-4.04,-3.76,-3.35,-0.74,-0.72,-0.69
152.26,3.28,4.03,3.29,4.03,-4.06,-3.73,-3.26,-0.78,-0.77,-0.75
153.78,3.28,4.09,3.26,4.07,-4.08,-3.70,-3.18,-0.79,-0.81,-0.80
155.32,3.21,4.08,3.23,4.09,-4.08,-3.67,-3.09,-0.87,-0.85,-0.86
156.88,3.18,4.10,3.17,4.09,-4.06,-3.64,-3.01,-0.88,-0.90,-0.92
158.44,3.07,4.05,3.09,4.06,-4.03,-3.61,-2.92,-0.95,-0.94,-0.98
160.03,2.98,4.01,2.99,4.02,-3.97,-3.57,-2.84,-0.98,-0.98,-1.03
161.63,2.87,3.95,2.86,3.93,-3.89,-3.53,-2.76,-1.01,-1.03,-1.07
163.24,2.71,3.84,2.70,3.82,-3.80,-3.49,-2.68,-1.08,-1.09,-1.12
164.88,2.52,3.68,2.54,3.70,-3.70,-3.45,-2.60,-1.18,-1.16,-1.15
166.53,2.38,3.57,2.38,3.56,-3.62,-3.41,-2.52,-1.23,-1.24,-1.18
168.19,2.27,3.47,2.27,3.46,-3.55,-3.36,-2.44,-1.27,-1.28,-1.20
169.87,2.17,3.38,2.22,3.43,-3.49,-3.32,-2.37,-1.31,-1.27,-1.21
171.57,2.22,3.44,2.21,3.42,-3.44,-3.27,-2.29,-1.22,-1.24,-1.21
173.29,2.24,3.46,2.22,3.43,-3.42,-3.22,-2.22,-1.17,-1.19,-1.21
175.02,2.23,3.43,2.24,3.44,-3.40,-3.16,-2.15,-1.17,-1.16,-1.20
176.77,2.23,3.42,2.24,3.43,-3.39,-3.11,-2.08,-1.16,-1.15,-1.19
178.54,2.23,3.41,2.24,3.41,-3.39,-3.05,-2.01,-1.15,-1.15,-1.17
180.32,2.23,3.38,2.22,3.37,-3.37,-3.00,-1.95,-1.13,-1.15,-1.15
182.13,2.20,3.34,2.19,3.32,-3.34,-2.94,-1.89,-1.13,-1.15,-1.13
183.95,2.13,3.24,2.18,3.29,-3.29,-2.88,-1.82,-1.16,-1.12,-1.11
185.79,2.14,3.24,2.16,3.26,-3.24,-2.81,-1.76,-1.10,-1.08,-1.10
187.65,2.17,3.27,2.12,3.21,-3.19,-2.75,-1.70,-1.01,-1.07,-1.09
189.52,2.05,3.14,2.05,3.14,-3.13,-2.69,-1.65,-1.08,-1.08,-1.09
191.42,1.93,3.02,1.97,3.05,-3.07,-2.62,-1.59,-1.13,-1.10,-1.09
193.33,1.87,2.96,1.88,2.97,-3.00,-2.55,-1.53,-1.13,-1.12,-1.08
195.27,1.84,2.93,1.83,2.92,-2.92,-2.48,-1.48,-1.08,-1.09,-1.08
197.22,1.78,2.88,1.78,2.87,-2.84,-2.41,-1.43,-1.06,-1.06,-1.09
199.19,1.69,2.79,1.70,2.80,-2.76,-2.33,-1.38,-1.07,-1.06,-1.10
201.18,1.60,2.71,1.59,2.69,-2.69,-2.26,-1.33,-1.08,-1.10,-1.11
203.19,1.46,2.58,1.46,2.58,-2.61,-2.18,-1.28,-1.14,-1.14,-1.12
205.23,1.33,2.46,1.36,2.49,-2.53,-2.11,-1.23,-1.19,-1.16,-1.13
207.28,1.27,2.41,1.29,2.42,-2.44,-2.03,-1.18,-1.17,-1.15,-1.14
209.35,1.24,2.39,1.22,2.37,-2.35,-1.95,-1.14,-1.11,-1.13,-1.15
211.44,1.15,2.32,1.14,2.30,-2.26,-1.87,-1.09,-1.11,-1.13,-1.17
213.56,1.00,2.18,1.01,2.19,-2.18,-1.78,-1.05,-1.17,-1.16,-1.17
215.69,0.88,2.08,0.88,2.07,-2.08,-1.70,-1.00,-1.20,-1.21,-1.19
217.85,0.73,1.94,0.76,1.97,-1.98,-1.61,-0.96,-1.25,-1.22,-1.20
220.03,0.67,1.89,0.68,1.89,-1.88,-1.53,-0.92,-1.21,-1.20,-1.22
222.23,0.59,1.82,0.56,1.79,-1.77,-1.44,-0.87,-1.18,-1.21,-1.23
224.45,0.46,1.70,0.44,1.67,-1.67,-1.35,-0.83,-1.20,-1.23,-1.23
226.70,0.25,1.50,0.30,1.54,-1.56,-1.26,-0.79,-1.31,-1.26,-1.24
228.96,0.16,1.41,0.18,1.43,-1.46,-1.17,-0.75,-1.29,-1.27,-1.25
231.25,0.11,1.36,0.09,1.34,-1.36,-1.08,-0.70,-1.24,-1.27,-1.25
233.57,0.02,1.28,0.01,1.26,-1.25,-0.99,-0.66,-1.23,-1.24,-1.25
235.90,-0.11,1.14,-0.09,1.16,-1.14,-0.89,-0.62,-1.24,-1.22,-1.25
238.26,-0.20,1.05,-0.20,1.04,-1.03,-0.80,-0.57,-1.22,-1.23,-1.24
240.64,-0.31,0.92,-0.31,0.92,-0.91,-0.70,-0.53,-1.21,-1.22,-1.23
243.05,-0.44,0.79,-0.42,0.81,-0.79,-0.61,-0.48,-1.22,-1.21,-1.23
245.48,-0.54,0.69,-0.53,0.69,-0.67,-0.51,-0.44,-1.21,-1.20,-1.22
247.93,-0.65,0.57,-0.67,0.54,-0.56,-0.41,-0.39,-1.20,-1.23,-1.22
250.41,-0.80,0.42,-0.81,0.41,-0.45,-0.31,-0.35,-1.25,-1.26,-1.21
252.92,-0.98,0.23,-0.91,0.29,-0.35,-0.21,-0.30,-1.32,-1.26,-1.21
255.45,-0.99,0.23,-1.00,0.21,-0.25,-0.11,-0.25,-1.23,-1.25,-1.21
258.00,-1.04,0.18,-1.07,0.15,-0.14,-0.01,-0.20,-1.18,-1.20,-1.22
260.58,-1.15,0.07,-1.13,0.09,-0.03,0.09,-0.15,-1.17,-1.16,-1.22
263.19,-1.26,-0.03,-1.25,-0.03,0.09,0.19,-0.10,-1.17,-1.16,-1.22
265.82,-1.39,-0.16,-1.41,-0.18,0.21,0.29,-0.05,-1.18,-1.20,-1.23
268.48,-1.58,-0.34,-1.58,-0.35,0.34,0.40,0.00,-1.24,-1.24,-1.23
271.16,-1.79,-0.55,-1.77,-0.53,0.49,0.50,0.06,-1.29,-1.27,-1.24
273.87,-1.95,-0.71,-1.93,-0.68,0.66,0.60,0.11,-1.28,-1.26,-1.24
276.61,-2.07,-0.82,-2.06,-0.82,0.84,0.71,0.17,-1.23,-1.23,-1.24
279.38,-2.19,-0.94,-2.22,-0.98,1.02,0.81,0.22,-1.17,-1.21,-1.25
282.17,-2.41,-1.17,-2.42,-1.18,1.19,0.92,0.28,-1.22,-1.23,-1.24
284.99,-2.66,-1.42,-2.62,-1.38,1.36,1.02,0.34,-1.29,-1.26,-1.23
287.84,-2.83,-1.59,-2.80,-1.57,1.54,1.12,0.40,-1.29,-1.27,-1.24
290.72,-2.92,-1.69,-2.95,-1.72,1.71,1.23,0.46,-1.20,-1.24,-1.23
293.63,-3.09,-1.86,-3.08,-1.86,1.89,1.33,0.52,-1.20,-1.19,-1.22
296.57,-3.22,-2.00,-3.22,-2.01,2.05,1.44,0.59,-1.16,-1.17,-1.21
299.53,-3.40,-2.18,-3.39,-2.17,2.19,1.54,0.65,-1.20,-1.20,-1.22
302.53,-3.54,-2.33,-3.56,-2.35,2.30,1.65,0.72,-1.23,-1.26,-1.21
305.55,-3.71,-2.49,-3.70,-2.49,2.40,1.75,0.78,-1.30,-1.29,-1.21
308.61,-3.85,-2.63,-3.79,-2.57,2.50,1.85,0.85,-1.35,-1.29,-1.21
311.69,-3.79,-2.57,-3.82,-2.60,2.58,1.95,0.92,-1.20,-1.24,-1.22
314.81,-3.84,-2.61,-3.81,-2.59,2.66,2.06,0.99,-1.17,-1.15,-1.23
317.96,-3.82,-2.58,-3.85,-2.61,2.73,2.16,1.06,-1.09,-1.12,-1.23
321.14,-3.93,-2.68,-3.98,-2.74,2.78,2.26,1.13,-1.14,-1.20,-1.24
324.35,-4.15,-2.90,-4.12,-2.87,2.83,2.36,1.21,-1.32,-1.29,-1.24
327.59,-4.30,-3.04,-4.19,-2.93,2.87,2.45,1.28,-1.43,-1.33,-1.26
330.87,-4.23,-2.96,-4.26,-2.99,2.91,2.55,1.36,-1.32,-1.35,-1.27
334.18,-4.16,-2.88,-4.29,-3.01,2.96,2.64,1.44,-1.19,-1.33,-1.28
337.52,-4.44,-3.14,-4.31,-3.02,3.04,2.74,1.52,-1.39,-1.26,-1.29
340.90,-4.38,-3.08,-4.34,-3.04,3.13,2.83,1.60,-1.25,-1.21,-1.29
344.30,-4.34,-3.03,-4.40,-3.10,3.21,2.92,1.68,-1.13,-1.19,-1.31
347.75,-4.45,-3.12,-4.50,-3.18,3.29,3.01,1.77,-1.15,-1.21,-1.33
351.23,-4.75,-3.41,-4.73,-3.39,3.38,3.09,1.85,-1.36,-1.35,-1.34
354.74,-5.01,-3.66,-4.98,-3.63,3.49,3.18,1.94,-1.51,-1.49,-1.35
358.28,-5.16,-3.79,-5.09,-3.72,3.60,3.26,2.03,-1.55,-1.48,-1.36
361.87,-5.14,-3.76,-5.09,-3.71,3.70,3.34,2.12,-1.43,-1.38,-1.37
365.49,-4.96,-3.56,-5.10,-3.71,3.79,3.41,2.21,-1.17,-1.31,-1.39
369.14,-5.17,-3.76,-5.19,-3.79,3.85,3.49,2.30,-1.31,-1.34,-1.40
372.83,-5.39,-3.97,-5.33,-3.91,3.90,3.56,2.40,-1.49,-1.43,-1.42
376.56,-5.49,-4.06,-5.40,-3.97,3.92,3.63,2.50,-1.57,-1.48,-1.43
380.33,-5.38,-3.94,-5.37,-3.93,3.92,3.69,2.59,-1.45,-1.45,-1.44
384.13,-5.20,-3.75,-5.36,-3.92,3.92,3.75,2.69,-1.28,-1.45,-1.45
387.97,-5.41,-3.95,-5.37,-3.91,3.90,3.81,2.79,-1.51,-1.47,-1.46
391.85,-5.53,-4.05,-5.39,-3.92,3.88,3.86,2.89,-1.65,-1.51,-1.47
395.77,-5.34,-3.85,-5.38,-3.90,3.84,3.91,2.99,-1.49,-1.54,-1.48
399.73,-5.25,-3.75,-5.30,-3.81,3.82,3.96,3.10,-1.42,-1.48,-1.49
403.72,-5.26,-3.75,-5.23,-3.72,3.82,4.00,3.20,-1.43,-1.40,-1.50
407.76,-5.26,-3.73,-5.23,-3.71,3.84,4.04,3.30,-1.42,-1.39,-1.52
411.84,-5.26,-3.72,-5.33,-3.80,3.85,4.08,3.40,-1.40,-1.48,-1.54
415.96,-5.40,-3.85,-5.44,-3.90,3.87,4.11,3.50,-1.53,-1.58,-1.55
420.12,-5.67,-4.12,-5.50,-3.95,3.88,4.13,3.60,-1.79,-1.62,-1.55
424.32,-5.52,-3.96,-5.55,-3.99,3.88,4.16,3.70,-1.63,-1.66,-1.56
428.56,-5.39,-3.83,-5.52,-3.97,3.88,4.17,3.80,-1.50,-1.64,-1.56
432.85,-5.54,-3.99,-5.41,-3.85,3.87,4.19,3.89,-1.67,-1.54,-1.55
437.18,-5.36,-3.82,-5.33,-3.79,3.83,4.20,3.98,-1.53,-1.50,-1.54
441.55,-5.16,-3.64,-5.26,-3.74,3.77,4.20,4.07,-1.38,-1.49,-1.52
445.96,-5.19,-3.68,-5.19,-3.69,3.71,4.20,4.15,-1.47,-1.47,-1.50
450.42,-5.18,-3.70,-5.11,-3.65,3.66,4.20,4.23,-1.51,-1.45,-1.47
454.93,-5.12,-3.68,-5.04,-3.60,3.61,4.19,4.31,-1.50,-1.42,-1.43
459.48,-4.83,-3.43,-4.99,-3.59,3.58,4.18,4.37,-1.24,-1.40,-1.39
464.07,-4.94,-3.57,-4.95,-3.59,3.57,4.17,4.43,-1.37,-1.38,-1.36
468.71,-5.05,-3.72,-4.89,-3.57,3.57,4.15,4.49,-1.48,-1.32,-1.32
473.40,-4.84,-3.55,-4.85,-3.57,3.58,4.13,4.53,-1.26,-1.27,-1.28
478.13,-4.68,-3.43,-4.79,-3.54,3.59,4.10,4.57,-1.09,-1.20,-1.24
482.91,-4.78,-3.56,-4.78,-3.56,3.60,4.07,4.60,-1.17,-1.18,-1.21
487.74,-4.90,-3.71,-4.84,-3.65,3.62,4.04,4.61,-1.28,-1.22,-1.19
492.62,-4.90,-3.73,-4.85,-3.69,3.63,4.00,4.62,-1.26,-1.22,-1.17
497.55,-4.81,-3.66,-4.84,-3.69,3.65,3.96,4.62,-1.16,-1.19,-1.15
