frequency,raw,error,smoothed,error_smoothed,equalization,parametric_eq,fixed_band_eq,equalized_raw,equalized_smoothed,target
20.00,-26.10,-20.71,-26.10,-20.71,6.00,6.07,2.70,-20.10,-20.10,-5.38
20.20,-25.95,-20.65,-25.94,-20.65,6.00,6.08,2.77,-19.95,-19.94,-5.29
20.40,-25.78,-20.58,-25.79,-20.58,6.00,6.09,2.85,-19.78,-19.79,-5.20
20.61,-25.64,-20.51,-25.63,-20.51,6.00,6.10,2.93,-19.64,-19.63,-5.13
20.81,-25.47,-20.43,-25.48,-20.43,6.00,6.11,3.01,-19.47,-19.48,-5.04
21.02,-25.32,-20.35,-25.32,-20.35,6.00,6.12,3.10,-19.32,-19.32,-4.96
21.23,-25.16,-20.25,-25.16,-20.26,6.00,6.13,3.19,-19.16,-19.16,-4.90
21.44,-24.99,-20.15,-25.00,-20.16,6.00,6.13,3.28,-18.99,-19.00,-4.84
21.66,-24.84,-20.06,-24.84,-20.06,6.00,6.14,3.37,-18.84,-18.84,-4.77
21.87,-24.67,-19.95,-24.67,-19.95,6.00,6.15,3.47,-18.67,-18.67,-4.72
22.09,-24.51,-19.84,-24.52,-19.84,6.00,6.15,3.57,-18.51,-18.52,-4.67
22.31,-24.35,-19.73,-24.36,-19.73,6.00,6.15,3.67,-18.35,-18.36,-4.62
22.54,-24.21,-19.63,-24.20,-19.63,6.00,6.16,3.77,-18.21,-18.20,-4.58
22.76,-24.04,-19.51,-24.05,-19.51,6.00,6.16,3.88,-18.04,-18.05,-4.53
22.99,-23.89,-19.39,-23.88,-19.39,6.00,6.16,3.99,-17.89,-17.88,-4.50
23.22,-23.72,-19.26,-23.72,-19.27,6.00,6.16,4.10,-17.72,-17.72,-4.46
23.45,-23.56,-19.15,-23.56,-19.15,6.00,6.16,4.21,-17.56,-17.56,-4.41
23.69,-23.40,-19.03,-23.39,-19.03,6.00,6.16,4.33,-17.40,-17.39,-4.37
23.92,-23.22,-18.90,-23.23,-18.91,6.00,6.16,4.45,-17.22,-17.23,-4.33
24.16,-23.06,-18.79,-23.07,-18.78,6.00,6.16,4.57,-17.06,-17.07,-4.28
24.40,-22.90,-18.67,-22.90,-18.66,6.00,6.16,4.69,-16.90,-16.90,-4.24
24.65,-22.75,-18.54,-22.75,-18.54,6.00,6.16,4.82,-16.75,-16.75,-4.21
24.89,-22.58,-18.42,-22.58,-18.42,6.00,6.16,4.94,-16.58,-16.58,-4.17
25.14,-22.42,-18.30,-22.42,-18.29,6.00,6.16,5.07,-16.42,-16.42,-4.13
25.39,-22.25,-18.16,-22.26,-18.17,6.00,6.16,5.20,-16.25,-16.26,-4.09
25.65,-22.10,-18.05,-22.10,-18.04,6.00,6.16,5.33,-16.10,-16.10,-4.05
25.91,-21.94,-17.92,-21.94,-17.92,6.00,6.15,5.46,-15.94,-15.94,-4.02
26.16,-21.77,-17.79,-21.77,-17.79,6.00,6.15,5.59,-15.77,-15.77,-3.98
26.43,-21.61,-17.66,-21.61,-17.66,6.00,6.15,5.72,-15.61,-15.61,-3.95
26.69,-21.45,-17.53,-21.45,-17.53,6.00,6.15,5.85,-15.45,-15.45,-3.91
26.96,-21.29,-17.41,-21.28,-17.41,6.00,6.15,5.98,-15.29,-15.28,-3.87
27.23,-21.12,-17.27,-21.12,-17.28,6.00,6.14,6.10,-15.12,-15.12,-3.84
27.50,-20.96,-17.15,-20.96,-17.15,6.00,6.14,6.22,-14.96,-14.96,-3.81
27.77,-20.79,-17.02,-20.79,-17.02,6.00,6.14,6.34,-14.79,-14.79,-3.78
28.05,-20.64,-16.90,-20.64,-16.89,6.00,6.14,6.46,-14.64,-14.64,-3.74
28.33,-20.48,-16.76,-20.47,-16.76,6.00,6.14,6.57,-14.48,-14.47,-3.72
28.62,-20.32,-16.64,-20.32,-16.64,6.00,6.13,6.67,-14.32,-14.32,-3.68
28.90,-20.16,-16.52,-20.16,-16.52,6.00,6.13,6.77,-14.16,-14.16,-3.64
29.19,-20.01,-16.40,-20.00,-16.40,6.00,6.13,6.86,-14.01,-14.00,-3.61
29.48,-19.84,-16.28,-19.84,-16.28,6.00,6.13,6.94,-13.84,-13.84,-3.56
29.78,-19.69,-16.15,-19.69,-16.15,6.00,6.13,7.02,-13.69,-13.69,-3.54
30.08,-19.53,-16.03,-19.53,-16.03,6.00,6.13,7.09,-13.53,-13.53,-3.50
30.38,-19.38,-15.90,-19.38,-15.90,6.00,6.12,7.15,-13.38,-13.38,-3.47
30.68,-19.23,-15.79,-19.23,-15.79,6.00,6.12,7.19,-13.23,-13.23,-3.43
30.99,-19.08,-15.66,-19.08,-15.67,6.00,6.12,7.23,-13.08,-13.08,-3.42
31.30,-18.93,-15.55,-18.93,-15.55,6.00,6.12,7.26,-12.93,-12.93,-3.38
31.61,-18.78,-15.43,-18.78,-15.43,6.00,6.12,7.28,-12.78,-12.78,-3.35
31.93,-18.63,-15.31,-18.63,-15.31,6.00,6.12,7.29,-12.63,-12.63,-3.32
32.24,-18.48,-15.18,-18.48,-15.19,6.00,6.12,7.29,-12.48,-12.48,-3.30
32.57,-18.34,-15.06,-18.34,-15.07,6.00,6.12,7.28,-12.34,-12.34,-3.27
32.89,-18.18,-14.95,-18.19,-14.94,6.00,6.12,7.26,-12.18,-12.19,-3.23
33.22,-18.04,-14.82,-18.04,-14.82,6.00,6.12,7.24,-12.04,-12.04,-3.22
33.55,-17.88,-14.69,-17.89,-14.69,6.00,6.12,7.20,-11.88,-11.89,-3.20
33.89,-17.75,-14.57,-17.74,-14.57,6.00,6.12,7.16,-11.75,-11.74,-3.18
34.23,-17.61,-14.46,-17.60,-14.45,6.00,6.12,7.12,-11.61,-11.60,-3.15
34.57,-17.46,-14.32,-17.46,-14.33,6.00,6.12,7.07,-11.46,-11.46,-3.13
34.92,-17.32,-14.19,-17.32,-14.20,6.00,6.12,7.01,-11.32,-11.32,-3.12
35.27,-17.19,-14.09,-17.18,-14.08,6.00,6.12,6.95,-11.19,-11.18,-3.10
35.62,-17.05,-13.96,-17.05,-13.96,6.00,6.12,6.89,-11.05,-11.05,-3.09
35.97,-16.90,-13.82,-16.91,-13.83,6.00,6.12,6.82,-10.90,-10.91,-3.08
36.33,-16.77,-13.71,-16.77,-13.71,6.00,6.12,6.76,-10.77,-10.77,-3.06
36.70,-16.64,-13.58,-16.64,-13.58,6.00,6.12,6.69,-10.64,-10.64,-3.05
37.06,-16.50,-13.46,-16.50,-13.46,6.00,6.13,6.62,-10.50,-10.50,-3.05
37.43,-16.37,-13.35,-16.38,-13.34,6.00,6.13,6.55,-10.37,-10.38,-3.03
37.81,-16.25,-13.22,-16.25,-13.23,6.00,6.13,6.49,-10.25,-10.25,-3.02
38.19,-16.13,-13.11,-16.12,-13.11,6.00,6.13,6.42,-10.13,-10.12,-3.01
38.57,-16.00,-12.99,-16.00,-12.98,6.00,6.13,6.36,-10.00,-10.00,-3.01
38.95,-15.86,-12.85,-15.87,-12.86,6.00,6.13,6.30,-9.86,-9.87,-3.01
39.34,-15.74,-12.73,-15.74,-12.73,6.00,6.13,6.24,-9.74,-9.74,-3.01
39.74,-15.62,-12.61,-15.62,-12.61,6.00,6.13,6.18,-9.62,-9.62,-3.01
40.14,-15.50,-12.49,-15.50,-12.49,6.00,6.14,6.13,-9.50,-9.50,-3.01
40.54,-15.38,-12.36,-15.38,-12.37,6.00,6.14,6.08,-9.38,-9.38,-3.01
40.94,-15.27,-12.26,-15.26,-12.25,6.00,6.14,6.04,-9.27,-9.26,-3.01
41.35,-15.15,-12.14,-15.15,-12.14,6.00,6.14,6.00,-9.15,-9.15,-3.01
41.76,-15.02,-12.02,-15.03,-12.02,6.00,6.14,5.96,-9.02,-9.03,-3.00
42.18,-14.91,-11.91,-14.90,-11.90,6.00,6.14,5.92,-8.91,-8.90,-3.00
42.60,-14.77,-11.77,-14.78,-11.78,6.00,6.14,5.89,-8.77,-8.78,-3.00
43.03,-14.66,-11.66,-14.66,-11.66,6.00,6.15,5.87,-8.66,-8.66,-3.00
43.46,-14.55,-11.55,-14.54,-11.54,6.00,6.15,5.85,-8.55,-8.54,-3.00
43.90,-14.44,-11.42,-14.44,-11.42,6.00,6.15,5.83,-8.44,-8.44,-3.01
44.33,-14.33,-11.31,-14.33,-11.31,6.00,6.15,5.82,-8.33,-8.33,-3.02
44.78,-14.22,-11.19,-14.22,-11.19,6.00,6.15,5.81,-8.22,-8.22,-3.02
45.23,-14.11,-11.08,-14.11,-11.08,6.00,6.15,5.81,-8.11,-8.11,-3.03
45.68,-14.00,-10.96,-14.00,-10.96,6.00,6.15,5.81,-8.00,-8.00,-3.03
46.13,-13.90,-10.85,-13.90,-10.86,6.00,6.15,5.81,-7.90,-7.90,-3.04
46.60,-13.80,-10.76,-13.80,-10.76,6.00,6.15,5.82,-7.80,-7.80,-3.04
47.06,-13.70,-10.66,-13.69,-10.66,6.00,6.15,5.84,-7.70,-7.69,-3.03
47.53,-13.59,-10.55,-13.59,-10.55,6.00,6.16,5.85,-7.59,-7.59,-3.04
48.01,-13.48,-10.45,-13.48,-10.44,6.00,6.16,5.87,-7.48,-7.48,-3.02
48.49,-13.37,-10.33,-13.37,-10.33,6.00,6.16,5.90,-7.37,-7.37,-3.04
48.97,-13.27,-10.22,-13.26,-10.21,6.00,6.16,5.93,-7.27,-7.26,-3.05
49.46,-13.16,-10.10,-13.16,-10.10,6.00,6.16,5.96,-7.16,-7.16,-3.05
49.96,-13.06,-9.99,-13.05,-10.00,6.00,6.16,5.99,-7.06,-7.05,-3.06
50.46,-12.95,-9.91,-12.95,-9.90,6.00,6.16,6.03,-6.95,-6.95,-3.04
50.96,-12.85,-9.81,-12.85,-9.80,6.00,6.16,6.07,-6.85,-6.85,-3.04
51.47,-12.75,-9.70,-12.74,-9.71,6.00,6.15,6.11,-6.75,-6.74,-3.05
51.99,-12.64,-9.60,-12.64,-9.60,6.00,6.15,6.15,-6.64,-6.64,-3.03
52.51,-12.54,-9.51,-12.53,-9.51,6.00,6.15,6.20,-6.54,-6.53,-3.02
53.03,-12.43,-9.41,-12.43,-9.42,6.00,6.15,6.25,-6.43,-6.43,-3.01
53.56,-12.34,-9.32,-12.33,-9.32,6.00,6.15,6.29,-6.34,-6.33,-3.01
54.10,-12.24,-9.23,-12.24,-9.23,6.00,6.15,6.34,-6.24,-6.24,-3.01
54.64,-12.14,-9.13,-12.14,-9.14,6.00,6.15,6.39,-6.14,-6.14,-3.00
55.18,-12.05,-9.04,-12.04,-9.04,6.00,6.14,6.43,-6.05,-6.04,-3.00
55.74,-11.95,-8.94,-11.95,-8.94,6.00,6.14,6.47,-5.95,-5.95,-3.00
56.29,-11.85,-8.84,-11.85,-8.85,6.00,6.14,6.51,-5.85,-5.85,-3.00
56.86,-11.76,-8.75,-11.76,-8.75,6.00,6.14,6.55,-5.76,-5.76,-3.01
57.42,-11.67,-8.65,-11.67,-8.65,6.00,6.13,6.59,-5.67,-5.67,-3.02
58.00,-11.58,-8.56,-11.58,-8.56,6.00,6.13,6.62,-5.58,-5.58,-3.02
58.58,-11.49,-8.46,-11.48,-8.46,6.00,6.13,6.65,-5.49,-5.48,-3.02
59.16,-11.39,-8.36,-11.39,-8.36,6.00,6.12,6.67,-5.39,-5.39,-3.03
59.76,-11.30,-8.27,-11.30,-8.26,6.00,6.12,6.69,-5.30,-5.30,-3.03
60.35,-11.21,-8.16,-11.21,-8.17,6.00,6.12,6.70,-5.21,-5.21,-3.04
60.96,-11.13,-8.07,-11.13,-8.06,6.00,6.11,6.70,-5.13,-5.13,-3.06
61.57,-11.05,-7.96,-11.04,-7.96,6.00,6.11,6.70,-5.05,-5.04,-3.08
62.18,-10.96,-7.85,-10.96,-7.86,6.00,6.10,6.70,-4.96,-4.96,-3.11
62.80,-10.88,-7.76,-10.88,-7.75,6.00,6.10,6.68,-4.88,-4.88,-3.11
63.43,-10.80,-7.65,-10.79,-7.66,6.00,6.09,6.66,-4.80,-4.79,-3.14
64.07,-10.72,-7.57,-10.72,-7.57,6.00,6.08,6.63,-4.72,-4.72,-3.15
64.71,-10.65,-7.49,-10.65,-7.49,6.00,6.08,6.60,-4.65,-4.65,-3.16
65.35,-10.58,-7.41,-10.57,-7.41,6.00,6.07,6.56,-4.58,-4.57,-3.16
66.01,-10.51,-7.33,-10.51,-7.33,6.00,6.07,6.52,-4.51,-4.51,-3.17
66.67,-10.44,-7.26,-10.44,-7.26,6.00,6.06,6.47,-4.44,-4.44,-3.18
67.33,-10.38,-7.20,-10.37,-7.19,6.00,6.05,6.41,-4.38,-4.37,-3.18
68.01,-10.32,-7.14,-10.32,-7.14,6.00,6.04,6.35,-4.32,-4.32,-3.18
68.69,-10.28,-7.09,-10.28,-7.09,6.00,6.04,6.29,-4.28,-4.28,-3.18
69.37,-10.24,-7.05,-10.23,-7.05,6.00,6.03,6.22,-4.24,-4.23,-3.18
70.07,-10.20,-7.01,-10.19,-7.01,6.00,6.02,6.15,-4.20,-4.19,-3.18
70.77,-10.15,-6.97,-10.15,-6.97,6.00,6.02,6.08,-4.15,-4.15,-3.18
71.48,-10.11,-6.93,-10.11,-6.93,6.00,6.01,6.00,-4.11,-4.11,-3.18
72.19,-10.07,-6.88,-10.07,-6.88,6.00,6.00,5.93,-4.07,-4.07,-3.18
72.91,-10.03,-6.84,-10.03,-6.84,6.00,5.99,5.85,-4.03,-4.03,-3.19
73.64,-10.00,-6.79,-9.99,-6.80,6.00,5.99,5.78,-4.00,-3.99,-3.20
74.38,-9.96,-6.76,-9.96,-6.76,6.00,5.98,5.70,-3.96,-3.96,-3.20
75.12,-9.93,-6.72,-9.93,-6.72,6.00,5.97,5.62,-3.93,-3.93,-3.20
75.87,-9.90,-6.70,-9.89,-6.69,6.00,5.97,5.55,-3.90,-3.89,-3.20
76.63,-9.86,-6.65,-9.86,-6.66,6.00,5.96,5.48,-3.86,-3.86,-3.21
77.40,-9.84,-6.63,-9.83,-6.62,6.00,5.96,5.40,-3.84,-3.83,-3.21
78.17,-9.81,-6.59,-9.81,-6.60,6.00,5.95,5.33,-3.81,-3.81,-3.21
78.95,-9.79,-6.58,-9.79,-6.58,6.00,5.95,5.27,-3.79,-3.79,-3.20
79.74,-9.77,-6.57,-9.77,-6.57,6.00,5.95,5.20,-3.77,-3.77,-3.19
80.54,-9.75,-6.56,-9.75,-6.56,6.00,5.95,5.14,-3.75,-3.75,-3.18
81.35,-9.73,-6.55,-9.72,-6.55,6.00,5.95,5.08,-3.73,-3.72,-3.17
82.16,-9.69,-6.52,-9.69,-6.53,6.00,5.95,5.02,-3.69,-3.69,-3.16
82.98,-9.66,-6.52,-9.65,-6.51,6.00,5.95,4.97,-3.66,-3.65,-3.14
83.81,-9.62,-6.49,-9.62,-6.49,6.00,5.96,4.92,-3.62,-3.62,-3.13
84.65,-9.59,-6.46,-9.59,-6.48,6.00,5.97,4.88,-3.59,-3.59,-3.12
85.50,-9.57,-6.48,-9.56,-6.47,6.00,5.97,4.83,-3.57,-3.56,-3.09
86.35,-9.54,-6.47,-9.54,-6.46,6.00,5.99,4.79,-3.54,-3.54,-3.07
87.22,-9.51,-6.45,-9.51,-6.46,6.00,6.00,4.76,-3.51,-3.51,-3.05
88.09,-9.49,-6.44,-9.49,-6.45,6.00,6.01,4.72,-3.49,-3.49,-3.05
88.97,-9.46,-6.43,-9.45,-6.42,6.00,6.02,4.70,-3.46,-3.45,-3.02
89.86,-9.42,-6.40,-9.41,-6.39,6.00,6.03,4.67,-3.42,-3.41,-3.02
90.76,-9.36,-6.33,-9.37,-6.35,6.00,6.03,4.65,-3.35,-3.36,-3.03
91.66,-9.32,-6.30,-9.32,-6.30,6.01,6.03,4.63,-3.31,-3.31,-3.01
92.58,-9.29,-6.26,-9.28,-6.26,6.01,6.03,4.62,-3.27,-3.27,-3.03
93.51,-9.24,-6.21,-9.24,-6.21,6.01,6.01,4.61,-3.22,-3.22,-3.03
94.44,-9.20,-6.16,-9.19,-6.16,6.01,5.98,4.60,-3.19,-3.19,-3.03
95.39,-9.15,-6.09,-9.15,-6.10,5.99,5.94,4.59,-3.15,-3.15,-3.05
96.34,-9.11,-6.03,-9.11,-6.03,5.97,5.90,4.59,-3.14,-3.14,-3.08
97.30,-9.07,-5.96,-9.07,-5.96,5.93,5.84,4.59,-3.14,-3.14,-3.11
98.28,-9.03,-5.89,-9.03,-5.89,5.87,5.78,4.60,-3.15,-3.16,-3.14
99.26,-8.99,-5.82,-8.98,-5.81,5.81,5.71,4.60,-3.18,-3.17,-3.17
100.25,-8.93,-5.72,-8.92,-5.72,5.73,5.64,4.61,-3.19,-3.19,-3.20
101.25,-8.87,-5.62,-8.87,-5.63,5.65,5.56,4.62,-3.22,-3.22,-3.24
102.27,-8.82,-5.54,-8.82,-5.54,5.56,5.49,4.63,-3.25,-3.26,-3.27
103.29,-8.79,-5.46,-8.78,-5.46,5.47,5.42,4.65,-3.31,-3.31,-3.32
104.32,-8.75,-5.39,-8.74,-5.39,5.39,5.34,4.66,-3.36,-3.35,-3.35
105.37,-8.70,-5.30,-8.70,-5.31,5.30,5.27,4.68,-3.39,-3.40,-3.39
106.42,-8.65,-5.23,-8.65,-5.23,5.22,5.20,4.70,-3.43,-3.43,-3.42
107.48,-8.61,-5.15,-8.60,-5.14,5.13,5.14,4.72,-3.47,-3.47,-3.46
108.56,-8.56,-5.06,-8.55,-5.05,5.05,5.07,4.73,-3.51,-3.50,-3.50
109.64,-8.50,-4.96,-8.50,-4.96,4.96,5.00,4.75,-3.53,-3.53,-3.54
110.74,-8.44,-4.87,-8.44,-4.87,4.88,4.94,4.77,-3.56,-3.56,-3.57
111.85,-8.39,-4.80,-8.39,-4.79,4.80,4.88,4.78,-3.59,-3.59,-3.59
112.97,-8.35,-4.71,-8.34,-4.71,4.72,4.82,4.80,-3.63,-3.62,-3.64
114.10,-8.30,-4.64,-8.30,-4.64,4.65,4.76,4.81,-3.65,-3.65,-3.65
115.24,-8.26,-4.57,-8.26,-4.58,4.58,4.70,4.82,-3.67,-3.67,-3.68
116.39,-8.23,-4.53,-8.22,-4.52,4.53,4.64,4.82,-3.70,-3.70,-3.70
117.55,-8.20,-4.47,-8.20,-4.47,4.47,4.58,4.83,-3.72,-3.72,-3.73
118.73,-8.17,-4.42,-8.17,-4.42,4.42,4.52,4.83,-3.74,-3.74,-3.75
119.92,-8.14,-4.38,-8.13,-4.38,4.37,4.47,4.82,-3.76,-3.76,-3.75
121.12,-8.10,-4.33,-8.10,-4.33,4.32,4.41,4.82,-3.77,-3.78,-3.77
122.33,-8.07,-4.28,-8.07,-4.29,4.28,4.35,4.80,-3.79,-3.79,-3.79
123.55,-8.04,-4.24,-8.02,-4.23,4.23,4.29,4.79,-3.81,-3.79,-3.79
124.79,-7.98,-4.17,-7.98,-4.18,4.18,4.23,4.77,-3.79,-3.80,-3.81
126.03,-7.94,-4.11,-7.95,-4.13,4.14,4.17,4.74,-3.80,-3.81,-3.82
127.29,-7.92,-4.09,-7.91,-4.08,4.09,4.11,4.71,-3.83,-3.82,-3.83
128.57,-7.90,-4.05,-7.89,-4.04,4.04,4.06,4.68,-3.86,-3.85,-3.85
129.85,-7.86,-3.99,-7.86,-4.00,3.99,4.00,4.64,-3.87,-3.87,-3.86
131.15,-7.83,-3.95,-7.83,-3.95,3.94,3.94,4.59,-3.89,-3.89,-3.88
132.46,-7.79,-3.90,-7.78,-3.89,3.88,3.88,4.55,-3.91,-3.90,-3.89
133.79,-7.73,-3.83,-7.73,-3.83,3.82,3.82,4.50,-3.90,-3.91,-3.89
135.12,-7.67,-3.74,-7.67,-3.76,3.76,3.76,4.44,-3.91,-3.91,-3.92
136.48,-7.63,-3.70,-7.62,-3.69,3.70,3.70,4.38,-3.93,-3.92,-3.92
137.84,-7.58,-3.63,-7.58,-3.63,3.64,3.64,4.32,-3.94,-3.94,-3.94
139.22,-7.55,-3.57,-7.54,-3.57,3.58,3.58,4.26,-3.97,-3.96,-3.97
140.61,-7.51,-3.51,-7.51,-3.52,3.52,3.52,4.19,-3.98,-3.98,-3.99
142.02,-7.47,-3.46,-7.47,-3.47,3.47,3.46,4.12,-3.99,-4.00,-4.00
143.44,-7.46,-3.44,-7.45,-3.42,3.43,3.40,4.06,-4.03,-4.02,-4.02
144.87,-7.43,-3.38,-7.43,-3.39,3.39,3.34,3.99,-4.04,-4.04,-4.05
146.32,-7.42,-3.34,-7.41,-3.35,3.35,3.29,3.91,-4.07,-4.07,-4.07
147.78,-7.40,-3.32,-7.40,-3.31,3.31,3.23,3.84,-4.09,-4.09,-4.08
149.26,-7.39,-3.28,-7.38,-3.27,3.27,3.18,3.77,-4.12,-4.12,-4.11
150.75,-7.37,-3.22,-7.37,-3.23,3.23,3.13,3.70,-4.14,-4.14,-4.15
152.26,-7.36,-3.18,-7.36,-3.18,3.18,3.08,3.63,-4.17,-4.17,-4.17
153.78,-7.34,-3.14,-7.34,-3.14,3.13,3.04,3.56,-4.20,-4.20,-4.20
155.32,-7.33,-3.09,-7.32,-3.09,3.08,2.99,3.49,-4.24,-4.24,-4.23
156.88,-7.29,-3.03,-7.29,-3.04,3.03,2.95,3.42,-4.26,-4.27,-4.25
158.44,-7.27,-2.98,-7.26,-2.97,2.97,2.91,3.35,-4.30,-4.30,-4.29
160.03,-7.23,-2.90,-7.23,-2.90,2.91,2.87,3.28,-4.32,-4.32,-4.33
161.63,-7.20,-2.84,-7.20,-2.84,2.84,2.84,3.22,-4.35,-4.35,-4.36
163.24,-7.17,-2.78,-7.16,-2.78,2.78,2.81,3.16,-4.39,-4.38,-4.39
164.88,-7.13,-2.72,-7.13,-2.72,2.72,2.78,3.10,-4.41,-4.41,-4.41
166.53,-7.11,-2.67,-7.11,-2.66,2.66,2.75,3.04,-4.44,-4.44,-4.44
168.19,-7.09,-2.61,-7.08,-2.61,2.61,2.72,2.98,-4.47,-4.47,-4.48
169.87,-7.06,-2.56,-7.06,-2.56,2.57,2.69,2.92,-4.49,-4.49,-4.49
171.57,-7.04,-2.51,-7.04,-2.52,2.53,2.67,2.87,-4.51,-4.51,-4.52
173.29,-7.04,-2.49,-7.03,-2.49,2.50,2.64,2.82,-4.54,-4.54,-4.55
175.02,-7.04,-2.47,-7.04,-2.46,2.47,2.62,2.77,-4.57,-4.57,-4.57
176.77,-7.05,-2.44,-7.05,-2.45,2.45,2.60,2.72,-4.60,-4.60,-4.60
178.54,-7.06,-2.43,-7.05,-2.43,2.43,2.58,2.67,-4.63,-4.63,-4.63
180.32,-7.06,-2.41,-7.06,-2.42,2.41,2.56,2.63,-4.65,-4.65,-4.64
182.13,-7.06,-2.41,-7.06,-2.40,2.40,2.54,2.59,-4.66,-4.66,-4.65
183.95,-7.06,-2.38,-7.06,-2.39,2.38,2.51,2.55,-4.67,-4.67,-4.67
185.79,-7.06,-2.37,-7.06,-2.37,2.37,2.49,2.51,-4.68,-4.68,-4.69
187.65,-7.06,-2.36,-7.06,-2.36,2.36,2.47,2.48,-4.70,-4.70,-4.70
189.52,-7.06,-2.34,-7.06,-2.34,2.35,2.45,2.44,-4.71,-4.71,-4.71
191.42,-7.06,-2.33,-7.06,-2.33,2.33,2.43,2.41,-4.72,-4.72,-4.72
193.33,-7.06,-2.32,-7.06,-2.32,2.32,2.40,2.38,-4.74,-4.74,-4.74
195.27,-7.06,-2.31,-7.06,-2.31,2.30,2.38,2.35,-4.75,-4.75,-4.75
197.22,-7.06,-2.30,-7.06,-2.29,2.29,2.36,2.33,-4.76,-4.76,-4.76
199.19,-7.06,-2.27,-7.06,-2.28,2.28,2.34,2.30,-4.78,-4.78,-4.79
201.18,-7.06,-2.27,-7.06,-2.26,2.26,2.31,2.28,-4.79,-4.79,-4.79
203.19,-7.06,-2.26,-7.06,-2.25,2.25,2.29,2.26,-4.81,-4.81,-4.80
205.23,-7.06,-2.24,-7.06,-2.24,2.24,2.26,2.23,-4.82,-4.82,-4.82
207.28,-7.06,-2.24,-7.06,-2.23,2.23,2.24,2.21,-4.83,-4.83,-4.82
209.35,-7.06,-2.22,-7.06,-2.21,2.22,2.21,2.20,-4.84,-4.83,-4.84
211.44,-7.06,-2.20,-7.06,-2.21,2.21,2.19,2.18,-4.84,-4.84,-4.86
213.56,-7.06,-2.20,-7.06,-2.20,2.21,2.16,2.16,-4.85,-4.85,-4.86
215.69,-7.07,-2.21,-7.07,-2.21,2.21,2.14,2.14,-4.86,-4.86,-4.86
217.85,-7.08,-2.21,-7.07,-2.21,2.20,2.11,2.13,-4.87,-4.87,-4.86
220.03,-7.08,-2.20,-7.08,-2.20,2.20,2.09,2.11,-4.88,-4.88,-4.88
222.23,-7.08,-2.19,-7.08,-2.19,2.19,2.06,2.10,-4.88,-4.88,-4.89
224.45,-7.07,-2.19,-7.07,-2.18,2.18,2.03,2.08,-4.88,-4.89,-4.88
226.70,-7.06,-2.17,-7.06,-2.17,2.17,2.01,2.07,-4.89,-4.89,-4.88
228.96,-7.04,-2.15,-7.04,-2.15,2.14,1.98,2.05,-4.89,-4.89,-4.89
231.25,-7.02,-2.13,-7.01,-2.12,2.12,1.95,2.04,-4.90,-4.90,-4.89
233.57,-6.99,-2.09,-6.98,-2.09,2.09,1.93,2.02,-4.90,-4.90,-4.89
235.90,-6.95,-2.05,-6.95,-2.05,2.06,1.90,2.00,-4.89,-4.90,-4.90
238.26,-6.93,-2.01,-6.92,-2.01,2.02,1.87,1.99,-4.90,-4.90,-4.91
240.64,-6.89,-1.98,-6.89,-1.98,1.99,1.85,1.97,-4.90,-4.90,-4.91
243.05,-6.87,-1.95,-6.86,-1.95,1.95,1.82,1.95,-4.91,-4.91,-4.91
245.48,-6.84,-1.93,-6.84,-1.92,1.92,1.79,1.93,-4.92,-4.92,-4.91
247.93,-6.81,-1.89,-6.81,-1.89,1.89,1.77,1.91,-4.91,-4.92,-4.91
250.41,-6.79,-1.87,-6.78,-1.87,1.87,1.74,1.89,-4.92,-4.91,-4.92
252.92,-6.75,-1.84,-6.75,-1.84,1.85,1.72,1.86,-4.90,-4.90,-4.90
255.45,-6.72,-1.83,-6.72,-1.82,1.83,1.69,1.84,-4.88,-4.88,-4.89
258.00,-6.69,-1.80,-6.69,-1.81,1.82,1.67,1.82,-4.87,-4.87,-4.88
260.58,-6.67,-1.79,-6.67,-1.80,1.80,1.64,1.79,-4.86,-4.87,-4.88
263.19,-6.66,-1.81,-6.65,-1.79,1.79,1.62,1.76,-4.87,-4.86,-4.85
265.82,-6.63,-1.78,-6.63,-1.79,1.77,1.59,1.74,-4.85,-4.86,-4.84
268.48,-6.60,-1.77,-6.59,-1.76,1.75,1.57,1.71,-4.84,-4.84,-4.83
271.16,-6.55,-1.73,-6.54,-1.73,1.73,1.54,1.68,-4.82,-4.82,-4.81
273.87,-6.49,-1.69,-6.49,-1.70,1.70,1.52,1.65,-4.79,-4.80,-4.79
276.61,-6.45,-1.67,-6.44,-1.66,1.66,1.50,1.62,-4.78,-4.78,-4.78
279.38,-6.40,-1.62,-6.40,-1.63,1.62,1.47,1.59,-4.77,-4.77,-4.77
282.17,-6.35,-1.58,-6.35,-1.59,1.58,1.45,1.55,-4.76,-4.76,-4.76
284.99,-6.30,-1.56,-6.29,-1.54,1.54,1.43,1.52,-4.75,-4.74,-4.74
287.84,-6.22,-1.49,-6.23,-1.50,1.50,1.41,1.49,-4.71,-4.72,-4.73
290.72,-6.17,-1.45,-6.17,-1.46,1.46,1.39,1.46,-4.70,-4.70,-4.71
293.63,-6.12,-1.42,-6.12,-1.42,1.43,1.37,1.43,-4.69,-4.69,-4.70
296.57,-6.08,-1.41,-6.07,-1.40,1.40,1.35,1.39,-4.68,-4.67,-4.67
299.53,-6.03,-1.37,-6.03,-1.37,1.37,1.33,1.36,-4.65,-4.66,-4.66
302.53,-5.99,-1.34,-5.99,-1.35,1.35,1.31,1.33,-4.64,-4.64,-4.64
305.55,-5.95,-1.34,-5.94,-1.33,1.33,1.30,1.30,-4.61,-4.61,-4.60
308.61,-5.90,-1.31,-5.90,-1.31,1.31,1.28,1.27,-4.58,-4.58,-4.59
311.69,-5.85,-1.29,-5.85,-1.30,1.30,1.26,1.24,-4.55,-4.56,-4.56
314.81,-5.82,-1.30,-5.82,-1.29,1.28,1.25,1.21,-4.53,-4.53,-4.52
317.96,-5.79,-1.28,-5.78,-1.28,1.27,1.24,1.18,-4.52,-4.51,-4.50
321.14,-5.74,-1.26,-5.74,-1.26,1.25,1.22,1.15,-4.48,-4.48,-4.47
324.35,-5.69,-1.23,-5.69,-1.24,1.24,1.21,1.12,-4.44,-4.45,-4.46
327.59,-5.65,-1.22,-5.65,-1.22,1.24,1.20,1.09,-4.41,-4.41,-4.43
330.87,-5.62,-1.22,-5.62,-1.21,1.23,1.19,1.07,-4.39,-4.39,-4.40
334.18,-5.60,-1.22,-5.59,-1.22,1.22,1.19,1.04,-4.38,-4.37,-4.38
337.52,-5.57,-1.21,-5.57,-1.22,1.21,1.18,1.01,-4.35,-4.36,-4.35
340.90,-5.55,-1.22,-5.54,-1.22,1.20,1.17,0.99,-4.34,-4.34,-4.32
344.30,-5.51,-1.21,-5.51,-1.21,1.19,1.17,0.97,-4.31,-4.31,-4.30
347.75,-5.47,-1.19,-5.46,-1.19,1.18,1.17,0.94,-4.28,-4.28,-4.28
351.23,-5.42,-1.17,-5.42,-1.17,1.17,1.16,0.92,-4.24,-4.25,-4.25
354.74,-5.38,-1.16,-5.38,-1.15,1.16,1.16,0.90,-4.22,-4.22,-4.22
358.28,-5.34,-1.14,-5.33,-1.14,1.15,1.16,0.88,-4.19,-4.19,-4.20
361.87,-5.30,-1.12,-5.30,-1.12,1.14,1.16,0.86,-4.16,-4.16,-4.17
365.49,-5.27,-1.11,-5.27,-1.12,1.13,1.16,0.84,-4.14,-4.14,-4.15
369.14,-5.25,-1.11,-5.25,-1.11,1.12,1.16,0.82,-4.13,-4.13,-4.13
372.83,-5.24,-1.12,-5.23,-1.11,1.11,1.16,0.80,-4.13,-4.12,-4.11
376.56,-5.20,-1.10,-5.20,-1.11,1.10,1.15,0.78,-4.10,-4.11,-4.10
380.33,-5.18,-1.11,-5.17,-1.10,1.08,1.15,0.76,-4.09,-4.09,-4.07
384.13,-5.14,-1.08,-5.13,-1.08,1.07,1.14,0.75,-4.07,-4.06,-4.06
387.97,-5.10,-1.05,-5.10,-1.05,1.06,1.13,0.73,-4.04,-4.04,-4.05
391.85,-5.06,-1.02,-5.06,-1.02,1.04,1.12,0.71,-4.02,-4.02,-4.04
395.77,-5.03,-1.01,-5.03,-1.01,1.02,1.10,0.70,-4.00,-4.00,-4.02
399.73,-5.01,-1.00,-5.01,-0.99,1.01,1.08,0.68,-4.00,-4.00,-4.01
403.72,-4.99,-0.99,-4.99,-0.99,0.99,1.06,0.67,-4.00,-4.00,-4.00
