frequency,raw,error,smoothed,error_smoothed,equalization,parametric_eq,fixed_band_eq,equalized_raw,equalized_smoothed,target
20.00,-32.09,-36.63,-32.09,-36.63,6.00,5.58,2.67,-26.09,-26.09,4.54
20.20,-31.95,-36.49,-31.95,-36.50,6.00,5.62,2.74,-25.95,-25.95,4.54
20.40,-31.80,-36.35,-31.80,-36.35,6.00,5.65,2.82,-25.80,-25.80,4.55
20.61,-31.65,-36.21,-31.65,-36.20,6.00,5.68,2.90,-25.65,-25.65,4.56
20.81,-31.48,-36.04,-31.48,-36.05,6.00,5.71,2.98,-25.48,-25.48,4.56
21.02,-31.31,-35.88,-31.31,-35.88,6.00,5.74,3.07,-25.31,-25.31,4.57
21.23,-31.13,-35.70,-31.13,-35.70,6.00,5.77,3.15,-25.13,-25.13,4.57
21.44,-30.94,-35.52,-30.94,-35.52,6.00,5.79,3.24,-24.94,-24.94,4.58
21.66,-30.75,-35.33,-30.74,-35.33,6.00,5.82,3.34,-24.75,-24.74,4.59
21.87,-30.54,-35.13,-30.54,-35.13,6.00,5.85,3.43,-24.54,-24.54,4.59
22.09,-30.32,-34.92,-30.32,-34.92,6.00,5.87,3.53,-24.32,-24.32,4.60
22.31,-30.10,-34.71,-30.11,-34.71,6.00,5.90,3.63,-24.10,-24.11,4.61
22.54,-29.90,-34.50,-29.88,-34.50,6.00,5.92,3.73,-23.90,-23.88,4.61
22.76,-29.65,-34.27,-29.65,-34.27,6.00,5.95,3.84,-23.65,-23.65,4.62
22.99,-29.40,-34.03,-29.41,-34.03,6.00,5.97,3.94,-23.40,-23.41,4.63
23.22,-29.15,-33.79,-29.15,-33.79,6.00,5.99,4.05,-23.15,-23.15,4.64
23.45,-28.89,-33.54,-28.89,-33.54,6.00,6.01,4.17,-22.89,-22.89,4.65
23.69,-28.62,-33.27,-28.62,-33.27,6.00,6.03,4.28,-22.62,-22.62,4.66
23.92,-28.34,-33.01,-28.34,-33.00,6.00,6.05,4.40,-22.34,-22.34,4.67
24.16,-28.06,-32.74,-28.06,-32.73,6.00,6.07,4.52,-22.06,-22.06,4.68
24.40,-27.78,-32.46,-27.79,-32.47,6.00,6.08,4.64,-21.78,-21.79,4.68
24.65,-27.53,-32.23,-27.52,-32.22,6.00,6.10,4.77,-21.53,-21.52,4.70
24.89,-27.28,-31.99,-27.28,-31.99,6.00,6.11,4.89,-21.28,-21.28,4.71
25.14,-27.05,-31.77,-27.05,-31.77,6.00,6.13,5.02,-21.05,-21.05,4.72
25.39,-26.84,-31.57,-26.84,-31.57,6.00,6.14,5.15,-20.84,-20.84,4.73
25.65,-26.65,-31.40,-26.66,-31.41,6.00,6.15,5.28,-20.65,-20.66,4.74
25.91,-26.51,-31.27,-26.51,-31.26,6.00,6.17,5.41,-20.51,-20.51,4.76
26.16,-26.38,-31.15,-26.38,-31.15,6.00,6.18,5.53,-20.38,-20.38,4.77
26.43,-26.26,-31.05,-26.27,-31.05,6.00,6.19,5.66,-20.26,-20.27,4.78
26.69,-26.16,-30.95,-26.16,-30.95,6.00,6.19,5.79,-20.16,-20.16,4.79
26.96,-26.04,-30.85,-26.04,-30.85,6.00,6.20,5.92,-20.04,-20.04,4.81
27.23,-25.92,-30.74,-25.93,-30.75,6.00,6.21,6.04,-19.92,-19.93,4.82
27.50,-25.80,-30.64,-25.80,-30.64,6.00,6.21,6.16,-19.80,-19.80,4.84
27.77,-25.67,-30.52,-25.67,-30.52,6.00,6.22,6.28,-19.67,-19.67,4.85
28.05,-25.53,-30.40,-25.53,-30.40,6.00,6.22,6.40,-19.53,-19.53,4.87
28.33,-25.39,-30.27,-25.40,-30.28,6.00,6.23,6.51,-19.39,-19.40,4.88
28.62,-25.28,-30.17,-25.27,-30.16,6.00,6.23,6.61,-19.28,-19.27,4.89
28.90,-25.14,-30.05,-25.14,-30.05,6.00,6.23,6.71,-19.14,-19.14,4.90
29.19,-25.00,-29.93,-25.01,-29.93,6.00,6.23,6.80,-19.00,-19.01,4.92
29.48,-24.86,-29.79,-24.86,-29.80,6.00,6.23,6.89,-18.86,-18.86,4.93
29.78,-24.71,-29.67,-24.71,-29.66,6.00,6.23,6.96,-18.71,-18.71,4.95
30.08,-24.56,-29.52,-24.56,-29.52,6.00,6.22,7.03,-18.56,-18.56,4.96
30.38,-24.40,-29.37,-24.39,-29.37,6.00,6.22,7.09,-18.40,-18.39,4.98
30.68,-24.22,-29.21,-24.22,-29.21,6.00,6.22,7.14,-18.22,-18.22,4.99
30.99,-24.05,-29.05,-24.04,-29.05,6.00,6.21,7.18,-18.05,-18.04,5.01
31.30,-23.86,-28.87,-23.86,-28.88,6.00,6.21,7.20,-17.86,-17.86,5.02
31.61,-23.66,-28.70,-23.66,-28.70,6.00,6.20,7.22,-17.66,-17.66,5.03
31.93,-23.47,-28.51,-23.46,-28.51,6.00,6.19,7.23,-17.47,-17.46,5.04
32.24,-23.25,-28.31,-23.25,-28.31,6.00,6.19,7.24,-17.25,-17.25,5.06
32.57,-23.03,-28.10,-23.03,-28.10,6.00,6.18,7.23,-17.03,-17.03,5.07
32.89,-22.79,-27.88,-22.79,-27.88,6.00,6.17,7.21,-16.79,-16.79,5.09
33.22,-22.55,-27.65,-22.55,-27.64,6.00,6.16,7.19,-16.55,-16.55,5.10
33.55,-22.29,-27.41,-22.29,-27.41,6.00,6.15,7.15,-16.29,-16.29,5.12
33.89,-22.03,-27.16,-22.04,-27.16,6.00,6.14,7.12,-16.03,-16.04,5.12
34.23,-21.78,-26.93,-21.78,-26.92,6.00,6.13,7.07,-15.78,-15.78,5.14
34.57,-21.52,-26.67,-21.52,-26.67,6.00,6.11,7.02,-15.52,-15.52,5.15
34.92,-21.27,-26.42,-21.27,-26.43,6.00,6.10,6.97,-15.27,-15.27,5.16
35.27,-21.02,-26.19,-21.01,-26.19,6.00,6.09,6.91,-15.02,-15.01,5.18
35.62,-20.76,-25.95,-20.76,-25.95,6.00,6.08,6.85,-14.76,-14.76,5.18
35.97,-20.51,-25.70,-20.51,-25.71,6.00,6.06,6.79,-14.51,-14.51,5.19
36.33,-20.26,-25.46,-20.27,-25.47,6.00,6.05,6.72,-14.26,-14.27,5.20
36.70,-20.02,-25.23,-20.02,-25.23,6.00,6.03,6.66,-14.02,-14.02,5.21
37.06,-19.77,-24.99,-19.77,-24.99,6.00,6.02,6.59,-13.77,-13.77,5.22
37.43,-19.52,-24.74,-19.52,-24.74,6.00,6.00,6.53,-13.52,-13.52,5.22
37.81,-19.26,-24.49,-19.26,-24.49,6.00,5.99,6.47,-13.26,-13.26,5.23
38.19,-19.00,-24.24,-19.01,-24.24,6.00,5.97,6.40,-13.00,-13.01,5.24
38.57,-18.75,-24.00,-18.75,-23.99,6.00,5.96,6.34,-12.75,-12.75,5.25
38.95,-18.49,-23.74,-18.50,-23.75,6.00,5.94,6.29,-12.49,-12.50,5.25
39.34,-18.25,-23.51,-18.25,-23.51,6.00,5.93,6.23,-12.25,-12.25,5.26
39.74,-18.01,-23.28,-18.01,-23.27,6.00,5.91,6.18,-12.01,-12.01,5.27
40.14,-17.77,-23.03,-17.77,-23.03,6.00,5.89,6.13,-11.77,-11.77,5.26
40.54,-17.52,-22.78,-17.52,-22.79,6.00,5.88,6.09,-11.52,-11.52,5.27
40.94,-17.26,-22.54,-17.26,-22.54,6.00,5.86,6.04,-11.26,-11.26,5.28
41.35,-17.00,-22.28,-17.00,-22.28,6.00,5.85,6.01,-11.00,-11.00,5.28
41.76,-16.73,-22.02,-16.73,-22.02,6.00,5.83,5.97,-10.73,-10.73,5.29
42.18,-16.46,-21.76,-16.46,-21.75,6.00,5.82,5.94,-10.46,-10.46,5.29
42.60,-16.18,-21.48,-16.18,-21.48,6.00,5.80,5.92,-10.18,-10.18,5.30
43.03,-15.90,-21.21,-15.90,-21.21,6.00,5.79,5.90,-9.90,-9.90,5.31
43.46,-15.62,-20.93,-15.62,-20.94,6.00,5.77,5.88,-9.62,-9.62,5.31
43.90,-15.35,-20.66,-15.35,-20.67,6.00,5.76,5.87,-9.35,-9.35,5.32
44.33,-15.08,-20.41,-15.08,-20.41,6.00,5.75,5.86,-9.08,-9.08,5.33
44.78,-14.81,-20.15,-14.82,-20.15,6.00,5.74,5.86,-8.81,-8.82,5.34
45.23,-14.56,-19.90,-14.55,-19.90,6.00,5.72,5.86,-8.56,-8.55,5.34
45.68,-14.29,-19.65,-14.29,-19.65,6.00,5.71,5.86,-8.29,-8.29,5.36
46.13,-14.03,-19.39,-14.04,-19.40,6.00,5.70,5.87,-8.03,-8.04,5.36
46.60,-13.79,-19.16,-13.78,-19.15,6.00,5.69,5.89,-7.79,-7.78,5.38
47.06,-13.53,-18.91,-13.53,-18.92,6.00,5.68,5.91,-7.53,-7.53,5.38
47.53,-13.29,-18.69,-13.30,-18.69,6.00,5.67,5.93,-7.29,-7.30,5.39
48.01,-13.07,-18.47,-13.07,-18.47,6.00,5.67,5.96,-7.07,-7.07,5.40
48.49,-12.85,-18.27,-12.85,-18.26,6.00,5.66,5.99,-6.85,-6.85,5.41
48.97,-12.64,-18.06,-12.64,-18.06,6.00,5.65,6.02,-6.64,-6.64,5.41
49.46,-12.43,-17.86,-12.44,-17.86,6.00,5.65,6.06,-6.43,-6.44,5.43
49.96,-12.23,-17.66,-12.23,-17.66,6.00,5.65,6.10,-6.23,-6.23,5.43
50.46,-12.02,-17.46,-12.02,-17.46,6.00,5.64,6.14,-6.02,-6.02,5.43
50.96,-11.81,-17.26,-11.82,-17.26,6.00,5.64,6.19,-5.81,-5.82,5.44
51.47,-11.61,-17.06,-11.61,-17.05,6.00,5.64,6.23,-5.61,-5.61,5.45
51.99,-11.40,-16.84,-11.39,-16.84,6.00,5.64,6.28,-5.40,-5.39,5.45
52.51,-11.18,-16.62,-11.18,-16.63,6.00,5.65,6.33,-5.18,-5.18,5.45
53.03,-10.95,-16.40,-10.95,-16.41,6.00,5.65,6.38,-4.95,-4.95,5.45
53.56,-10.73,-16.19,-10.73,-16.19,6.00,5.66,6.43,-4.73,-4.73,5.46
54.10,-10.50,-15.97,-10.51,-15.97,6.00,5.66,6.48,-4.50,-4.51,5.46
54.64,-10.28,-15.75,-10.28,-15.74,6.00,5.67,6.53,-4.28,-4.28,5.46
55.18,-10.06,-15.51,-10.06,-15.51,6.00,5.68,6.58,-4.06,-4.06,5.45
55.74,-9.83,-15.28,-9.83,-15.28,6.00,5.70,6.63,-3.83,-3.83,5.45
56.29,-9.60,-15.05,-9.61,-15.05,6.00,5.71,6.67,-3.60,-3.61,5.45
56.86,-9.38,-14.82,-9.38,-14.82,6.00,5.72,6.71,-3.38,-3.38,5.44
57.42,-9.15,-14.59,-9.15,-14.59,6.00,5.74,6.75,-3.15,-3.15,5.43
58.00,-8.92,-14.35,-8.92,-14.35,6.00,5.76,6.78,-2.92,-2.92,5.42
58.58,-8.69,-14.11,-8.69,-14.11,6.00,5.78,6.81,-2.69,-2.69,5.42
59.16,-8.45,-13.86,-8.46,-13.86,6.00,5.80,6.83,-2.45,-2.46,5.41
59.76,-8.23,-13.63,-8.23,-13.63,6.00,5.82,6.85,-2.23,-2.23,5.39
60.35,-8.01,-13.39,-8.01,-13.39,6.00,5.85,6.86,-2.01,-2.01,5.38
60.96,-7.80,-13.17,-7.80,-13.17,6.00,5.87,6.86,-1.80,-1.80,5.36
61.57,-7.59,-12.94,-7.60,-12.94,6.00,5.90,6.85,-1.59,-1.60,5.35
62.18,-7.39,-12.73,-7.39,-12.73,6.00,5.93,6.84,-1.39,-1.39,5.33
62.80,-7.19,-12.51,-7.19,-12.51,6.00,5.95,6.81,-1.19,-1.19,5.32
63.43,-6.99,-12.29,-6.99,-12.29,6.00,5.98,6.79,-0.99,-0.99,5.30
64.07,-6.79,-12.07,-6.79,-12.07,6.00,6.02,6.75,-0.79,-0.79,5.27
64.71,-6.59,-11.85,-6.59,-11.85,6.00,6.05,6.70,-0.59,-0.59,5.26
65.35,-6.39,-11.63,-6.40,-11.63,6.00,6.08,6.65,-0.39,-0.40,5.24
66.01,-6.20,-11.42,-6.20,-11.42,6.00,6.11,6.59,-0.20,-0.20,5.22
66.67,-6.01,-11.22,-6.01,-11.21,6.00,6.14,6.53,-0.01,-0.01,5.20
67.33,-5.82,-11.00,-5.82,-11.00,6.00,6.17,6.46,0.18,0.18,5.18
68.01,-5.63,-10.79,-5.63,-10.79,6.00,6.20,6.38,0.37,0.37,5.15
68.69,-5.44,-10.57,-5.44,-10.57,6.00,6.23,6.30,0.56,0.56,5.13
69.37,-5.25,-10.36,-5.25,-10.36,6.00,6.26,6.21,0.75,0.75,5.11
70.07,-5.06,-10.15,-5.07,-10.15,6.00,6.28,6.12,0.94,0.93,5.09
70.77,-4.88,-9.95,-4.88,-9.94,6.00,6.31,6.03,1.12,1.12,5.07
71.48,-4.69,-9.74,-4.69,-9.73,6.00,6.33,5.93,1.31,1.31,5.04
72.19,-4.50,-9.52,-4.50,-9.52,6.00,6.35,5.83,1.50,1.50,5.02
72.91,-4.31,-9.32,-4.32,-9.32,6.00,6.36,5.73,1.69,1.68,5.00
73.64,-4.14,-9.12,-4.14,-9.12,6.00,6.37,5.63,1.86,1.86,4.98
74.38,-3.97,-8.94,-3.97,-8.93,6.00,6.38,5.53,2.03,2.03,4.96
75.12,-3.80,-8.74,-3.81,-8.75,6.00,6.38,5.43,2.20,2.19,4.94
75.87,-3.65,-8.57,-3.65,-8.57,6.00,6.37,5.33,2.35,2.35,4.92
76.63,-3.49,-8.40,-3.49,-8.39,6.00,6.37,5.23,2.51,2.51,4.90
77.40,-3.33,-8.22,-3.34,-8.23,6.00,6.35,5.14,2.67,2.66,4.89
78.17,-3.18,-8.05,-3.18,-8.05,6.00,6.33,5.04,2.82,2.82,4.87
78.95,-3.03,-7.88,-3.02,-7.87,6.00,6.31,4.94,2.97,2.98,4.85
79.74,-2.86,-7.69,-2.87,-7.70,6.00,6.28,4.85,3.14,3.13,4.83
80.54,-2.71,-7.52,-2.72,-7.53,6.00,6.25,4.76,3.29,3.28,4.81
81.35,-2.57,-7.36,-2.57,-7.36,6.00,6.21,4.67,3.43,3.43,4.79
82.16,-2.43,-7.20,-2.44,-7.20,6.00,6.17,4.59,3.57,3.56,4.77
82.98,-2.30,-7.05,-2.30,-7.05,6.00,6.12,4.50,3.70,3.70,4.75
83.81,-2.17,-6.90,-2.17,-6.89,6.01,6.07,4.42,3.84,3.84,4.72
84.65,-2.03,-6.73,-2.04,-6.74,6.02,6.01,4.34,3.99,3.98,4.70
85.50,-1.91,-6.59,-1.91,-6.59,6.03,5.96,4.27,4.11,4.11,4.68
86.35,-1.79,-6.45,-1.79,-6.44,6.02,5.90,4.20,4.23,4.23,4.65
87.22,-1.67,-6.30,-1.67,-6.30,6.00,5.84,4.13,4.33,4.33,4.63
88.09,-1.55,-6.16,-1.55,-6.16,5.97,5.77,4.06,4.41,4.42,4.60
88.97,-1.43,-6.02,-1.43,-6.02,5.91,5.71,4.00,4.48,4.48,4.59
89.86,-1.31,-5.88,-1.32,-5.88,5.84,5.65,3.94,4.53,4.52,4.56
90.76,-1.21,-5.75,-1.20,-5.75,5.75,5.59,3.88,4.53,4.54,4.54
91.66,-1.09,-5.61,-1.10,-5.61,5.64,5.52,3.83,4.55,4.54,4.52
92.58,-0.99,-5.49,-1.00,-5.49,5.52,5.45,3.78,4.53,4.52,4.49
93.51,-0.90,-5.37,-0.90,-5.37,5.39,5.38,3.73,4.49,4.49,4.47
94.44,-0.80,-5.25,-0.81,-5.25,5.26,5.30,3.69,4.46,4.45,4.45
95.39,-0.71,-5.13,-0.71,-5.13,5.13,5.22,3.64,4.42,4.42,4.42
96.34,-0.61,-5.02,-0.61,-5.02,5.01,5.12,3.60,4.40,4.40,4.40
97.30,-0.52,-4.90,-0.53,-4.90,4.90,5.02,3.57,4.38,4.37,4.37
98.28,-0.44,-4.79,-0.44,-4.79,4.79,4.91,3.53,4.35,4.35,4.35
99.26,-0.36,-4.68,-0.36,-4.68,4.68,4.79,3.50,4.32,4.32,4.32
100.25,-0.28,-4.58,-0.28,-4.58,4.58,4.66,3.47,4.30,4.30,4.30
101.25,-0.20,-4.47,-0.21,-4.47,4.48,4.54,3.44,4.27,4.27,4.27
102.27,-0.13,-4.37,-0.13,-4.37,4.37,4.41,3.41,4.24,4.24,4.24
103.29,-0.07,-4.27,-0.07,-4.27,4.27,4.28,3.39,4.20,4.21,4.20
104.32,-0.00,-4.17,-0.01,-4.18,4.17,4.16,3.36,4.17,4.17,4.17
105.37,0.06,-4.08,0.06,-4.08,4.07,4.04,3.34,4.13,4.13,4.14
106.42,0.12,-3.98,0.12,-3.98,3.98,3.92,3.32,4.09,4.10,4.10
107.48,0.19,-3.88,0.19,-3.88,3.88,3.81,3.30,4.06,4.06,4.06
108.56,0.26,-3.77,0.25,-3.77,3.78,3.70,3.28,4.03,4.03,4.02
109.64,0.32,-3.67,0.31,-3.67,3.68,3.60,3.26,3.99,3.99,3.98
110.74,0.37,-3.58,0.37,-3.58,3.58,3.50,3.24,3.94,3.94,3.94
111.85,0.42,-3.49,0.42,-3.48,3.47,3.40,3.23,3.89,3.90,3.91
112.97,0.48,-3.38,0.48,-3.38,3.37,3.31,3.21,3.85,3.85,3.86
114.10,0.55,-3.27,0.54,-3.28,3.27,3.22,3.19,3.82,3.81,3.82
115.24,0.60,-3.17,0.60,-3.17,3.17,3.13,3.17,3.77,3.77,3.77
116.39,0.66,-3.08,0.66,-3.07,3.07,3.05,3.15,3.73,3.73,3.73
117.55,0.72,-2.97,0.72,-2.97,2.98,2.96,3.13,3.69,3.69,3.68
118.73,0.78,-2.87,0.77,-2.87,2.88,2.88,3.11,3.66,3.65,3.65
119.92,0.82,-2.78,0.82,-2.79,2.79,2.81,3.08,3.61,3.61,3.60
121.12,0.86,-2.71,0.86,-2.71,2.70,2.73,3.06,3.56,3.56,3.56
122.33,0.90,-2.63,0.90,-2.63,2.62,2.66,3.03,3.52,3.52,3.53
123.55,0.95,-2.54,0.95,-2.54,2.54,2.59,3.00,3.48,3.48,3.49
124.79,1.00,-2.46,1.00,-2.46,2.46,2.52,2.97,3.45,3.45,3.46
126.03,1.05,-2.37,1.04,-2.38,2.38,2.45,2.94,3.42,3.42,3.42
127.29,1.09,-2.30,1.09,-2.30,2.30,2.38,2.91,3.39,3.39,3.39
128.57,1.13,-2.23,1.13,-2.22,2.22,2.32,2.87,3.35,3.35,3.35
129.85,1.17,-2.15,1.17,-2.15,2.15,2.25,2.83,3.32,3.32,3.32
131.15,1.21,-2.08,1.21,-2.08,2.08,2.19,2.79,3.29,3.29,3.29
132.46,1.25,-2.01,1.25,-2.01,2.01,2.13,2.75,3.26,3.26,3.25
133.79,1.28,-1.95,1.28,-1.95,1.95,2.07,2.71,3.23,3.23,3.23
135.12,1.31,-1.89,1.30,-1.89,1.89,2.01,2.67,3.20,3.20,3.20
136.48,1.33,-1.84,1.33,-1.84,1.84,1.96,2.62,3.16,3.16,3.17
137.84,1.35,-1.79,1.35,-1.79,1.79,1.90,2.58,3.13,3.13,3.14
139.22,1.37,-1.74,1.37,-1.74,1.74,1.84,2.53,3.11,3.11,3.11
140.61,1.40,-1.68,1.39,-1.69,1.70,1.79,2.48,3.09,3.09,3.08
142.02,1.41,-1.65,1.41,-1.65,1.66,1.74,2.43,3.07,3.07,3.06
143.44,1.42,-1.62,1.41,-1.62,1.63,1.68,2.38,3.04,3.04,3.03
144.87,1.41,-1.60,1.41,-1.59,1.60,1.63,2.33,3.01,3.01,3.01
146.32,1.41,-1.56,1.40,-1.57,1.57,1.58,2.28,2.98,2.98,2.97
147.78,1.40,-1.55,1.40,-1.55,1.54,1.53,2.23,2.94,2.94,2.94
149.26,1.40,-1.52,1.40,-1.52,1.51,1.48,2.18,2.91,2.91,2.92
150.75,1.40,-1.50,1.40,-1.49,1.48,1.43,2.13,2.88,2.88,2.89
152.26,1.42,-1.45,1.42,-1.45,1.44,1.38,2.08,2.86,2.86,2.87
153.78,1.44,-1.40,1.44,-1.40,1.40,1.33,2.03,2.83,2.84,2.83
155.32,1.47,-1.34,1.47,-1.35,1.35,1.28,1.98,2.82,2.82,2.81
156.88,1.50,-1.29,1.50,-1.29,1.30,1.24,1.93,2.79,2.79,2.79
158.44,1.53,-1.24,1.53,-1.24,1.24,1.19,1.88,2.76,2.76,2.77
160.03,1.56,-1.18,1.56,-1.18,1.18,1.15,1.84,2.73,2.73,2.74
161.63,1.59,-1.13,1.59,-1.12,1.11,1.10,1.79,2.70,2.71,2.71
163.24,1.63,-1.06,1.63,-1.06,1.05,1.06,1.74,2.68,2.68,2.68
164.88,1.67,-1.00,1.66,-1.00,0.99,1.02,1.70,2.66,2.66,2.66
166.53,1.70,-0.94,1.70,-0.94,0.94,0.98,1.66,2.64,2.64,2.63
168.19,1.73,-0.88,1.72,-0.88,0.89,0.95,1.61,2.62,2.61,2.61
169.87,1.74,-0.84,1.74,-0.84,0.85,0.91,1.57,2.59,2.59,2.58
171.57,1.74,-0.81,1.74,-0.81,0.82,0.88,1.53,2.56,2.56,2.55
173.29,1.74,-0.79,1.73,-0.79,0.80,0.85,1.49,2.54,2.53,2.52
175.02,1.72,-0.78,1.72,-0.78,0.79,0.82,1.45,2.50,2.50,2.50
176.77,1.69,-0.77,1.69,-0.78,0.78,0.80,1.41,2.47,2.47,2.46
178.54,1.65,-0.79,1.65,-0.79,0.78,0.78,1.38,2.43,2.43,2.43
180.32,1.61,-0.79,1.61,-0.79,0.78,0.76,1.34,2.39,2.39,2.40
182.13,1.58,-0.80,1.58,-0.80,0.79,0.74,1.30,2.37,2.36,2.38
183.95,1.55,-0.79,1.55,-0.79,0.79,0.73,1.27,2.34,2.34,2.34
185.79,1.52,-0.79,1.52,-0.79,0.80,0.72,1.24,2.32,2.32,2.31
187.65,1.49,-0.80,1.49,-0.79,0.80,0.71,1.21,2.29,2.29,2.28
189.52,1.46,-0.79,1.46,-0.79,0.80,0.70,1.17,2.25,2.25,2.25
191.42,1.43,-0.79,1.43,-0.79,0.79,0.69,1.14,2.21,2.22,2.22
193.33,1.41,-0.78,1.41,-0.78,0.77,0.69,1.11,2.18,2.18,2.19
195.27,1.40,-0.77,1.40,-0.76,0.75,0.68,1.09,2.15,2.15,2.16
197.22,1.40,-0.74,1.40,-0.74,0.72,0.68,1.06,2.12,2.12,2.13
199.19,1.40,-0.71,1.40,-0.70,0.69,0.68,1.03,2.09,2.09,2.10
201.18,1.41,-0.65,1.41,-0.66,0.66,0.68,1.01,2.07,2.07,2.06
203.19,1.42,-0.61,1.41,-0.62,0.63,0.68,0.98,2.05,2.05,2.03
205.23,1.42,-0.58,1.42,-0.59,0.60,0.67,0.96,2.02,2.02,2.00
207.28,1.41,-0.57,1.40,-0.57,0.58,0.67,0.93,1.98,1.98,1.97
209.35,1.39,-0.56,1.39,-0.55,0.56,0.67,0.91,1.94,1.94,1.94
211.44,1.36,-0.55,1.36,-0.55,0.54,0.67,0.89,1.90,1.91,1.90
213.56,1.34,-0.54,1.33,-0.54,0.54,0.67,0.87,1.87,1.87,1.88
215.69,1.31,-0.53,1.31,-0.53,0.53,0.68,0.85,1.84,1.84,1.84
217.85,1.28,-0.52,1.28,-0.53,0.53,0.68,0.83,1.80,1.80,1.80
220.03,1.25,-0.52,1.25,-0.52,0.52,0.68,0.81,1.77,1.77,1.77
222.23,1.22,-0.53,1.22,-0.52,0.52,0.68,0.79,1.73,1.73,1.74
224.45,1.19,-0.52,1.19,-0.52,0.51,0.68,0.77,1.70,1.70,1.71
226.70,1.17,-0.51,1.17,-0.51,0.51,0.68,0.76,1.68,1.68,1.68
228.96,1.15,-0.51,1.15,-0.51,0.51,0.68,0.74,1.66,1.66,1.65
231.25,1.13,-0.50,1.12,-0.51,0.51,0.68,0.72,1.64,1.64,1.63
233.57,1.10,-0.51,1.10,-0.51,0.52,0.68,0.71,1.61,1.61,1.61
235.90,1.07,-0.52,1.07,-0.52,0.52,0.68,0.70,1.59,1.59,1.58
238.26,1.04,-0.53,1.04,-0.53,0.52,0.68,0.68,1.56,1.56,1.57
240.64,1.02,-0.54,1.02,-0.54,0.52,0.68,0.67,1.54,1.54,1.55
243.05,1.00,-0.54,1.00,-0.54,0.53,0.68,0.66,1.53,1.53,1.54
245.48,0.99,-0.54,0.99,-0.54,0.54,0.68,0.65,1.53,1.52,1.52
247.93,0.97,-0.54,0.97,-0.54,0.55,0.69,0.63,1.52,1.52,1.51
250.41,0.95,-0.55,0.94,-0.55,0.56,0.69,0.62,1.51,1.51,1.49
252.92,0.91,-0.57,0.91,-0.57,0.58,0.69,0.61,1.49,1.49,1.48
255.45,0.87,-0.60,0.87,-0.60,0.60,0.69,0.61,1.47,1.47,1.46
258.00,0.82,-0.63,0.82,-0.63,0.63,0.69,0.60,1.45,1.45,1.45
260.58,0.78,-0.67,0.78,-0.67,0.66,0.70,0.59,1.43,1.43,1.45
263.19,0.74,-0.70,0.74,-0.70,0.69,0.70,0.58,1.42,1.42,1.43
265.82,0.70,-0.72,0.70,-0.72,0.72,0.70,0.57,1.42,1.42,1.42
268.48,0.66,-0.75,0.66,-0.75,0.75,0.71,0.57,1.41,1.41,1.40
271.16,0.62,-0.77,0.61,-0.78,0.78,0.71,0.56,1.40,1.39,1.39
273.87,0.57,-0.81,0.57,-0.81,0.81,0.72,0.56,1.37,1.38,1.38
276.61,0.53,-0.84,0.53,-0.84,0.84,0.72,0.55,1.36,1.36,1.36
279.38,0.49,-0.86,0.49,-0.87,0.87,0.73,0.55,1.35,1.35,1.35
282.17,0.45,-0.89,0.44,-0.89,0.90,0.73,0.55,1.34,1.34,1.34
284.99,0.40,-0.93,0.40,-0.93,0.93,0.74,0.54,1.32,1.33,1.33
287.84,0.36,-0.96,0.36,-0.95,0.96,0.75,0.54,1.31,1.31,1.31
290.72,0.32,-0.98,0.32,-0.98,0.99,0.75,0.54,1.30,1.30,1.30
293.63,0.28,-1.01,0.27,-1.01,1.01,0.76,0.54,1.29,1.29,1.29
296.57,0.23,-1.05,0.23,-1.05,1.04,0.77,0.54,1.27,1.27,1.27
299.53,0.19,-1.08,0.19,-1.07,1.07,0.78,0.53,1.26,1.26,1.26
302.53,0.15,-1.10,0.15,-1.10,1.10,0.79,0.53,1.25,1.25,1.25
305.55,0.11,-1.12,0.11,-1.12,1.13,0.80,0.54,1.24,1.24,1.23
308.61,0.07,-1.15,0.07,-1.15,1.16,0.81,0.54,1.22,1.22,1.22
311.69,0.03,-1.18,0.02,-1.18,1.18,0.82,0.54,1.21,1.20,1.20
314.81,-0.02,-1.21,-0.02,-1.21,1.20,0.83,0.54,1.18,1.18,1.18
317.96,-0.06,-1.23,-0.06,-1.23,1.22,0.84,0.54,1.16,1.16,1.17
321.14,-0.09,-1.24,-0.09,-1.25,1.24,0.85,0.54,1.15,1.14,1.15
324.35,-0.12,-1.26,-0.12,-1.26,1.25,0.87,0.55,1.13,1.13,1.14
327.59,-0.14,-1.26,-0.14,-1.26,1.26,0.88,0.55,1.12,1.12,1.11
330.87,-0.16,-1.27,-0.16,-1.27,1.27,0.89,0.56,1.11,1.11,1.10
334.18,-0.18,-1.26,-0.18,-1.27,1.27,0.91,0.56,1.09,1.09,1.08
337.52,-0.20,-1.27,-0.20,-1.27,1.27,0.92,0.56,1.07,1.07,1.07
340.90,-0.22,-1.27,-0.22,-1.27,1.27,0.93,0.57,1.05,1.05,1.05
344.30,-0.23,-1.27,-0.23,-1.27,1.26,0.95,0.58,1.03,1.03,1.04
347.75,-0.24,-1.26,-0.24,-1.26,1.25,0.96,0.58,1.00,1.01,1.02
351.23,-0.24,-1.24,-0.24,-1.24,1.23,0.97,0.59,0.99,0.99,0.99
354.74,-0.23,-1.22,-0.23,-1.21,1.21,0.99,0.60,0.98,0.98,0.98
358.28,-0.22,-1.19,-0.22,-1.19,1.19,1.00,0.60,0.97,0.97,0.96
361.87,-0.21,-1.15,-0.22,-1.16,1.17,1.01,0.61,0.96,0.95,0.94
365.49,-0.21,-1.14,-0.21,-1.14,1.15,1.02,0.62,0.93,0.93,0.93
369.14,-0.21,-1.12,-0.21,-1.12,1.13,1.03,0.63,0.91,0.91,0.91
372.83,-0.21,-1.11,-0.21,-1.11,1.11,1.04,0.64,0.89,0.89,0.90
376.56,-0.21,-1.09,-0.21,-1.09,1.09,1.05,0.65,0.87,0.87,0.88
380.33,-0.21,-1.07,-0.21,-1.07,1.07,1.06,0.66,0.86,0.86,0.86
384.13,-0.21,-1.06,-0.21,-1.05,1.06,1.06,0.67,0.84,0.84,0.85
387.97,-0.21,-1.04,-0.21,-1.04,1.04,1.07,0.68,0.83,0.83,0.82
391.85,-0.21,-1.03,-0.21,-1.03,1.03,1.07,0.69,0.82,0.82,0.81
395.77,-0.21,-1.02,-0.21,-1.02,1.02,1.08,0.70,0.80,0.80,0.80
399.73,-0.21,-1.01,-0.21,-1.01,1.00,1.08,0.71,0.79,0.79,0.79
403.72,-0.21,-0.99,-0.21,-0.99,0.99,1.07,0.73,0.78,0.78,0.78
407.76,-0.21,-0.98,-0.21,-0.98,0.98,1.07,0.74,0.77,0.77,0.77
411.84,-0.21,-0.96,-0.21,-0.97,0.97,1.07,0.75,0.75,0.75,0.75
415.96,-0.21,-0.95,-0.21,-0.95,0.96,1.06,0.76,0.74,0.74,0.74
420.12,-0.21,-0.94,-0.21,-0.94,0.94,1.05,0.77,0.73,0.73,0.73
424.32,-0.21,-0.93,-0.21,-0.93,0.93,1.04,0.78,0.72,0.72,0.72
428.56,-0.21,-0.92,-0.21,-0.92,0.92,1.03,0.79,0.70,0.70,0.71
432.85,-0.21,-0.90,-0.21,-0.90,0.90,1.02,0.80,0.69,0.69,0.69
437.18,-0.21,-0.89,-0.21,-0.89,0.89,1.00,0.81,0.68,0.68,0.68
441.55,-0.21,-0.88,-0.21,-0.87,0.87,0.99,0.82,0.66,0.66,0.67
445.96,-0.21,-0.86,-0.21,-0.86,0.86,0.97,0.83,0.64,0.64,0.65
450.42,-0.21,-0.84,-0.21,-0.84,0.84,0.95,0.84,0.63,0.63,0.63
454.93,-0.21,-0.83,-0.21,-0.82,0.82,0.93,0.85,0.61,0.61,0.61
459.48,-0.21,-0.81,-0.21,-0.81,0.81,0.91,0.86,0.59,0.59,0.59
464.07,-0.21,-0.79,-0.21,-0.79,0.79,0.89,0.86,0.58,0.58,0.57
468.71,-0.21,-0.77,-0.21,-0.77,0.78,0.86,0.87,0.57,0.57,0.55
