frequency,raw,error,smoothed,error_smoothed,equalization,parametric_eq,fixed_band_eq,equalized_raw,equalized_smoothed,target
20.00,-6.44,-13.16,-6.44,-13.17,6.00,6.28,2.95,-0.44,-0.44,6.72
20.20,-6.23,-12.99,-6.23,-12.99,6.00,6.27,3.03,-0.23,-0.23,6.76
20.40,-6.02,-12.82,-6.02,-12.82,6.00,6.27,3.12,-0.02,-0.02,6.80
20.61,-5.82,-12.65,-5.82,-12.65,6.00,6.27,3.21,0.18,0.18,6.82
20.81,-5.63,-12.49,-5.63,-12.50,6.00,6.26,3.30,0.37,0.37,6.86
21.02,-5.45,-12.35,-5.45,-12.34,6.00,6.26,3.39,0.55,0.55,6.90
21.23,-5.28,-12.20,-5.28,-12.20,6.00,6.25,3.49,0.72,0.72,6.92
21.44,-5.11,-12.05,-5.11,-12.05,6.00,6.25,3.59,0.89,0.89,6.94
21.66,-4.95,-11.91,-4.95,-11.91,6.00,6.24,3.69,1.05,1.05,6.96
21.87,-4.80,-11.77,-4.80,-11.77,6.00,6.24,3.79,1.20,1.20,6.97
22.09,-4.65,-11.64,-4.65,-11.64,6.00,6.24,3.90,1.35,1.35,6.99
22.31,-4.52,-11.52,-4.52,-11.52,6.00,6.23,4.01,1.48,1.48,7.00
22.54,-4.40,-11.40,-4.40,-11.40,6.00,6.23,4.12,1.60,1.60,7.00
22.76,-4.29,-11.30,-4.29,-11.30,6.00,6.22,4.24,1.71,1.71,7.01
22.99,-4.18,-11.19,-4.18,-11.20,6.00,6.21,4.36,1.82,1.82,7.01
23.22,-4.09,-11.11,-4.08,-11.10,6.00,6.21,4.48,1.91,1.92,7.02
23.45,-3.98,-11.01,-3.98,-11.01,6.00,6.20,4.61,2.02,2.02,7.03
23.69,-3.88,-10.92,-3.88,-10.93,6.00,6.20,4.74,2.12,2.12,7.04
23.92,-3.79,-10.85,-3.78,-10.84,6.00,6.19,4.86,2.21,2.22,7.06
24.16,-3.69,-10.77,-3.69,-10.76,6.00,6.19,5.00,2.31,2.31,7.08
24.40,-3.60,-10.68,-3.60,-10.68,6.00,6.18,5.13,2.40,2.40,7.09
24.65,-3.51,-10.60,-3.51,-10.60,6.00,6.17,5.27,2.49,2.49,7.09
24.89,-3.41,-10.51,-3.41,-10.51,6.00,6.17,5.41,2.59,2.59,7.10
25.14,-3.31,-10.42,-3.31,-10.42,6.00,6.16,5.55,2.69,2.69,7.11
25.39,-3.21,-10.33,-3.21,-10.33,6.00,6.15,5.69,2.79,2.79,7.12
25.65,-3.10,-10.23,-3.10,-10.23,6.00,6.15,5.83,2.90,2.90,7.13
25.91,-2.99,-10.13,-3.00,-10.14,6.00,6.14,5.98,3.01,3.00,7.14
26.16,-2.89,-10.04,-2.88,-10.04,6.00,6.13,6.12,3.11,3.12,7.15
26.43,-2.77,-9.93,-2.77,-9.93,6.00,6.12,6.26,3.23,3.23,7.16
26.69,-2.65,-9.83,-2.66,-9.83,6.00,6.12,6.40,3.35,3.34,7.18
26.96,-2.54,-9.73,-2.54,-9.73,6.00,6.11,6.54,3.46,3.46,7.19
27.23,-2.44,-9.64,-2.44,-9.64,6.00,6.10,6.68,3.56,3.56,7.20
27.50,-2.33,-9.55,-2.33,-9.54,6.00,6.09,6.81,3.67,3.67,7.22
27.77,-2.22,-9.44,-2.22,-9.44,6.00,6.08,6.94,3.78,3.78,7.22
28.05,-2.11,-9.35,-2.11,-9.35,6.00,6.07,7.07,3.89,3.89,7.24
28.33,-2.02,-9.25,-2.02,-9.26,6.00,6.06,7.18,3.98,3.98,7.23
28.62,-1.92,-9.17,-1.92,-9.17,6.00,6.05,7.30,4.08,4.08,7.25
28.90,-1.83,-9.09,-1.83,-9.09,6.00,6.04,7.40,4.17,4.17,7.26
29.19,-1.74,-9.01,-1.74,-9.02,6.00,6.03,7.49,4.26,4.26,7.27
29.48,-1.66,-8.95,-1.66,-8.94,6.00,6.02,7.57,4.34,4.34,7.29
29.78,-1.57,-8.87,-1.57,-8.87,6.00,6.01,7.65,4.43,4.43,7.30
30.08,-1.49,-8.80,-1.49,-8.80,6.00,6.00,7.70,4.51,4.51,7.31
30.38,-1.40,-8.72,-1.40,-8.72,6.00,5.99,7.76,4.60,4.60,7.32
30.68,-1.32,-8.65,-1.32,-8.64,6.00,5.98,7.79,4.68,4.68,7.33
30.99,-1.23,-8.57,-1.23,-8.57,6.00,5.96,7.81,4.77,4.77,7.33
31.30,-1.14,-8.48,-1.14,-8.48,6.00,5.95,7.82,4.86,4.86,7.34
31.61,-1.04,-8.40,-1.04,-8.40,6.00,5.94,7.81,4.96,4.96,7.36
31.93,-0.94,-8.30,-0.94,-8.30,6.00,5.92,7.79,5.06,5.06,7.36
32.24,-0.84,-8.21,-0.84,-8.21,6.00,5.91,7.76,5.16,5.16,7.37
32.57,-0.74,-8.12,-0.74,-8.11,6.00,5.90,7.71,5.26,5.26,7.38
32.89,-0.63,-8.02,-0.63,-8.02,6.00,5.88,7.66,5.37,5.37,7.39
33.22,-0.51,-7.90,-0.52,-7.92,6.00,5.87,7.59,5.49,5.48,7.39
33.55,-0.41,-7.82,-0.41,-7.81,6.00,5.85,7.51,5.59,5.59,7.41
33.89,-0.30,-7.71,-0.29,-7.71,6.00,5.83,7.42,5.70,5.71,7.41
34.23,-0.18,-7.61,-0.18,-7.60,6.00,5.82,7.32,5.82,5.82,7.43
34.57,-0.06,-7.49,-0.06,-7.49,6.00,5.80,7.22,5.94,5.94,7.43
34.92,0.05,-7.38,0.05,-7.39,6.00,5.78,7.10,6.05,6.05,7.43
35.27,0.16,-7.28,0.16,-7.28,6.00,5.76,6.98,6.16,6.16,7.44
35.62,0.27,-7.17,0.27,-7.17,6.00,5.74,6.86,6.27,6.27,7.44
35.97,0.38,-7.06,0.38,-7.06,6.00,5.72,6.73,6.38,6.38,7.44
36.33,0.50,-6.95,0.50,-6.95,6.00,5.70,6.60,6.50,6.50,7.45
36.70,0.62,-6.83,0.62,-6.83,6.00,5.68,6.47,6.62,6.62,7.45
37.06,0.73,-6.71,0.73,-6.72,6.00,5.66,6.34,6.73,6.73,7.44
37.43,0.84,-6.61,0.84,-6.60,6.01,5.64,6.20,6.85,6.85,7.45
37.81,0.95,-6.49,0.95,-6.49,6.02,5.61,6.07,6.97,6.97,7.44
38.19,1.06,-6.38,1.06,-6.39,6.02,5.59,5.93,7.08,7.07,7.44
38.57,1.16,-6.29,1.16,-6.28,6.01,5.56,5.80,7.17,7.17,7.45
38.95,1.26,-6.17,1.26,-6.17,5.99,5.54,5.66,7.25,7.25,7.43
39.34,1.36,-6.07,1.36,-6.07,5.96,5.51,5.53,7.32,7.32,7.43
39.74,1.46,-5.96,1.46,-5.97,5.91,5.48,5.40,7.37,7.37,7.42
40.14,1.55,-5.88,1.55,-5.87,5.85,5.45,5.27,7.40,7.40,7.42
40.54,1.64,-5.77,1.64,-5.77,5.78,5.42,5.15,7.42,7.43,7.41
40.94,1.73,-5.69,1.73,-5.68,5.70,5.39,5.02,7.43,7.43,7.42
41.35,1.83,-5.58,1.82,-5.59,5.61,5.36,4.90,7.44,7.43,7.41
41.76,1.90,-5.51,1.91,-5.50,5.52,5.33,4.79,7.42,7.43,7.41
42.18,1.99,-5.42,1.99,-5.42,5.43,5.29,4.67,7.42,7.42,7.42
42.60,2.08,-5.33,2.07,-5.34,5.34,5.26,4.56,7.42,7.41,7.41
43.03,2.15,-5.27,2.15,-5.26,5.25,5.22,4.45,7.40,7.41,7.42
43.46,2.23,-5.18,2.23,-5.18,5.17,5.18,4.35,7.40,7.40,7.41
43.90,2.32,-5.09,2.32,-5.09,5.08,5.14,4.25,7.40,7.40,7.41
44.33,2.40,-5.00,2.40,-5.00,5.00,5.10,4.15,7.40,7.40,7.40
44.78,2.49,-4.91,2.49,-4.91,4.91,5.06,4.05,7.40,7.40,7.40
45.23,2.58,-4.82,2.58,-4.82,4.83,5.01,3.96,7.41,7.40,7.40
45.68,2.66,-4.74,2.66,-4.74,4.74,4.97,3.87,7.40,7.40,7.40
46.13,2.74,-4.66,2.75,-4.66,4.66,4.92,3.78,7.40,7.41,7.40
46.60,2.83,-4.58,2.83,-4.57,4.58,4.87,3.70,7.41,7.41,7.41
47.06,2.92,-4.49,2.91,-4.50,4.50,4.82,3.62,7.42,7.41,7.41
47.53,2.99,-4.42,2.99,-4.43,4.42,4.77,3.54,7.41,7.41,7.41
48.01,3.06,-4.36,3.07,-4.35,4.34,4.71,3.46,7.40,7.41,7.42
48.49,3.14,-4.28,3.14,-4.27,4.26,4.65,3.39,7.40,7.40,7.42
48.97,3.23,-4.17,3.22,-4.18,4.18,4.60,3.32,7.41,7.40,7.40
49.46,3.30,-4.09,3.30,-4.09,4.10,4.53,3.25,7.40,7.40,7.39
49.96,3.37,-4.01,3.37,-4.01,4.02,4.47,3.19,7.39,7.39,7.38
50.46,3.44,-3.95,3.44,-3.94,3.94,4.41,3.13,7.38,7.39,7.39
50.96,3.51,-3.87,3.51,-3.86,3.87,4.34,3.07,7.38,7.38,7.38
51.47,3.58,-3.78,3.58,-3.79,3.80,4.27,3.01,7.38,7.38,7.36
51.99,3.64,-3.72,3.64,-3.73,3.73,4.19,2.95,7.37,7.37,7.36
52.51,3.69,-3.67,3.69,-3.67,3.66,4.12,2.90,7.35,7.35,7.36
53.03,3.75,-3.60,3.75,-3.60,3.59,4.04,2.85,7.34,7.34,7.35
53.56,3.81,-3.53,3.81,-3.53,3.52,3.96,2.80,7.33,7.33,7.34
54.10,3.88,-3.44,3.88,-3.45,3.45,3.88,2.75,7.33,7.33,7.32
54.64,3.95,-3.36,3.95,-3.36,3.37,3.79,2.70,7.32,7.32,7.31
55.18,4.02,-3.28,4.01,-3.29,3.29,3.70,2.66,7.32,7.31,7.30
55.74,4.07,-3.21,4.07,-3.22,3.22,3.61,2.62,7.29,7.29,7.28
56.29,4.13,-3.15,4.13,-3.14,3.14,3.51,2.57,7.27,7.27,7.28
56.86,4.19,-3.07,4.19,-3.06,3.06,3.41,2.53,7.25,7.26,7.26
57.42,4.26,-2.98,4.26,-2.98,2.99,3.31,2.49,7.25,7.25,7.24
58.00,4.33,-2.89,4.32,-2.90,2.91,3.21,2.45,7.24,7.23,7.22
58.58,4.38,-2.83,4.38,-2.83,2.83,3.10,2.41,7.21,7.21,7.21
59.16,4.44,-2.76,4.44,-2.75,2.75,2.99,2.38,7.19,7.19,7.20
59.76,4.51,-2.67,4.51,-2.67,2.66,2.88,2.34,7.17,7.17,7.18
60.35,4.58,-2.58,4.58,-2.58,2.58,2.76,2.30,7.16,7.16,7.16
60.96,4.65,-2.49,4.65,-2.49,2.49,2.65,2.27,7.14,7.14,7.13
61.57,4.71,-2.39,4.71,-2.40,2.40,2.53,2.23,7.11,7.11,7.10
62.18,4.76,-2.31,4.76,-2.31,2.31,2.40,2.20,7.07,7.08,7.07
62.80,4.82,-2.23,4.82,-2.22,2.23,2.28,2.16,7.05,7.05,7.05
63.43,4.88,-2.14,4.88,-2.14,2.14,2.16,2.13,7.02,7.02,7.02
64.07,4.95,-2.04,4.95,-2.05,2.05,2.03,2.10,7.00,6.99,6.99
64.71,5.01,-1.97,5.01,-1.97,1.96,1.90,2.06,6.97,6.97,6.98
65.35,5.06,-1.89,5.07,-1.88,1.88,1.77,2.03,6.94,6.95,6.95
66.01,5.13,-1.80,5.13,-1.80,1.80,1.65,2.00,6.93,6.93,6.93
66.67,5.19,-1.71,5.19,-1.71,1.72,1.52,1.97,6.91,6.91,6.90
67.33,5.25,-1.62,5.25,-1.63,1.64,1.40,1.94,6.89,6.88,6.87
68.01,5.29,-1.56,5.29,-1.56,1.56,1.28,1.90,6.85,6.85,6.85
68.69,5.33,-1.49,5.33,-1.49,1.49,1.16,1.87,6.82,6.82,6.82
69.37,5.37,-1.43,5.37,-1.43,1.42,1.04,1.84,6.79,6.79,6.80
70.07,5.42,-1.36,5.42,-1.36,1.35,0.93,1.81,6.77,6.77,6.78
70.77,5.47,-1.29,5.47,-1.29,1.28,0.82,1.79,6.75,6.75,6.76
71.48,5.51,-1.22,5.51,-1.22,1.22,0.72,1.76,6.73,6.73,6.73
72.19,5.55,-1.16,5.55,-1.16,1.16,0.63,1.73,6.71,6.71,6.71
72.91,5.59,-1.09,5.59,-1.09,1.10,0.55,1.70,6.69,6.69,6.69
73.64,5.63,-1.03,5.63,-1.03,1.05,0.47,1.68,6.68,6.67,6.66
74.38,5.66,-0.99,5.66,-0.98,1.00,0.40,1.65,6.66,6.66,6.65
75.12,5.69,-0.94,5.69,-0.95,0.95,0.33,1.62,6.64,6.64,6.63
75.87,5.71,-0.91,5.71,-0.91,0.91,0.28,1.60,6.62,6.62,6.62
76.63,5.73,-0.88,5.74,-0.87,0.86,0.24,1.58,6.59,6.60,6.61
77.40,5.77,-0.83,5.77,-0.83,0.82,0.21,1.56,6.59,6.58,6.60
78.17,5.80,-0.78,5.80,-0.78,0.77,0.18,1.53,6.57,6.58,6.58
78.95,5.85,-0.73,5.85,-0.73,0.73,0.17,1.51,6.58,6.58,6.58
79.74,5.89,-0.68,5.89,-0.68,0.69,0.16,1.49,6.58,6.57,6.57
80.54,5.93,-0.63,5.93,-0.63,0.64,0.16,1.48,6.57,6.57,6.56
81.35,5.96,-0.59,5.96,-0.59,0.60,0.16,1.46,6.56,6.56,6.55
82.16,6.00,-0.54,5.99,-0.55,0.56,0.18,1.44,6.56,6.55,6.54
82.98,6.02,-0.52,6.02,-0.51,0.52,0.20,1.43,6.54,6.54,6.54
83.81,6.04,-0.48,6.04,-0.48,0.48,0.22,1.41,6.52,6.52,6.52
84.65,6.07,-0.45,6.07,-0.45,0.45,0.25,1.40,6.52,6.51,6.52
85.50,6.09,-0.43,6.09,-0.42,0.41,0.28,1.38,6.50,6.51,6.52
86.35,6.12,-0.38,6.12,-0.39,0.38,0.32,1.37,6.50,6.50,6.50
87.22,6.14,-0.36,6.14,-0.36,0.36,0.36,1.36,6.50,6.50,6.50
88.09,6.16,-0.32,6.16,-0.33,0.33,0.40,1.35,6.49,6.49,6.48
88.97,6.18,-0.31,6.18,-0.31,0.31,0.44,1.34,6.49,6.49,6.49
89.86,6.18,-0.30,6.18,-0.29,0.30,0.48,1.34,6.48,6.49,6.48
90.76,6.19,-0.27,6.19,-0.28,0.29,0.52,1.33,6.48,6.48,6.46
91.66,6.18,-0.28,6.18,-0.28,0.29,0.56,1.32,6.47,6.46,6.46
92.58,6.17,-0.28,6.17,-0.28,0.28,0.59,1.32,6.45,6.45,6.45
93.51,6.16,-0.29,6.16,-0.29,0.27,0.63,1.31,6.43,6.44,6.45
94.44,6.16,-0.29,6.16,-0.28,0.26,0.67,1.31,6.42,6.43,6.45
95.39,6.17,-0.27,6.17,-0.27,0.25,0.70,1.31,6.42,6.42,6.44
96.34,6.17,-0.24,6.17,-0.24,0.24,0.73,1.31,6.41,6.42,6.41
97.30,6.18,-0.22,6.18,-0.22,0.23,0.77,1.31,6.41,6.41,6.40
98.28,6.19,-0.21,6.18,-0.21,0.22,0.79,1.31,6.41,6.40,6.40
99.26,6.18,-0.20,6.18,-0.20,0.21,0.82,1.31,6.39,6.39,6.38
100.25,6.17,-0.20,6.17,-0.20,0.20,0.84,1.31,6.37,6.37,6.37
101.25,6.16,-0.19,6.16,-0.19,0.19,0.86,1.31,6.35,6.35,6.35
102.27,6.14,-0.19,6.14,-0.20,0.19,0.88,1.31,6.33,6.33,6.33
103.29,6.11,-0.20,6.11,-0.20,0.19,0.89,1.31,6.30,6.31,6.31
104.32,6.09,-0.21,6.09,-0.20,0.20,0.91,1.31,6.29,6.29,6.30
105.37,6.07,-0.20,6.07,-0.20,0.20,0.92,1.31,6.27,6.27,6.27
106.42,6.05,-0.20,6.05,-0.20,0.20,0.92,1.31,6.25,6.25,6.25
107.48,6.02,-0.20,6.02,-0.20,0.21,0.93,1.31,6.23,6.23,6.22
108.56,5.98,-0.20,5.98,-0.21,0.21,0.93,1.31,6.19,6.19,6.18
109.64,5.94,-0.22,5.94,-0.22,0.21,0.94,1.31,6.15,6.15,6.16
110.74,5.89,-0.23,5.90,-0.22,0.22,0.93,1.31,6.11,6.12,6.12
111.85,5.86,-0.23,5.86,-0.23,0.22,0.93,1.31,6.08,6.08,6.09
112.97,5.82,-0.22,5.82,-0.23,0.23,0.93,1.31,6.05,6.05,6.04
114.10,5.78,-0.22,5.78,-0.23,0.23,0.92,1.30,6.01,6.01,6.00
115.24,5.73,-0.24,5.73,-0.23,0.23,0.91,1.30,5.96,5.96,5.97
116.39,5.68,-0.24,5.68,-0.24,0.23,0.90,1.29,5.91,5.91,5.92
117.55,5.64,-0.24,5.64,-0.24,0.23,0.89,1.28,5.87,5.87,5.88
118.73,5.60,-0.24,5.60,-0.24,0.24,0.88,1.27,5.84,5.84,5.84
119.92,5.57,-0.23,5.57,-0.23,0.25,0.86,1.26,5.82,5.81,5.80
121.12,5.53,-0.24,5.52,-0.24,0.26,0.85,1.25,5.79,5.78,5.77
122.33,5.47,-0.26,5.47,-0.26,0.27,0.83,1.23,5.74,5.74,5.73
123.55,5.41,-0.29,5.41,-0.29,0.29,0.81,1.21,5.70,5.70,5.70
124.79,5.35,-0.32,5.35,-0.32,0.31,0.79,1.19,5.66,5.66,5.67
126.03,5.30,-0.34,5.30,-0.34,0.33,0.78,1.17,5.63,5.62,5.64
127.29,5.24,-0.36,5.24,-0.36,0.35,0.75,1.14,5.59,5.59,5.60
128.57,5.18,-0.38,5.18,-0.38,0.38,0.73,1.12,5.56,5.57,5.56
129.85,5.13,-0.41,5.13,-0.40,0.41,0.71,1.09,5.54,5.54,5.54
131.15,5.08,-0.42,5.08,-0.43,0.44,0.69,1.06,5.52,5.52,5.50
132.46,5.02,-0.46,5.02,-0.46,0.47,0.66,1.03,5.49,5.49,5.48
133.79,4.95,-0.51,4.95,-0.51,0.51,0.64,0.99,5.46,5.46,5.46
135.12,4.88,-0.55,4.88,-0.55,0.55,0.62,0.95,5.43,5.43,5.43
136.48,4.81,-0.60,4.81,-0.60,0.59,0.59,0.92,5.40,5.40,5.41
137.84,4.75,-0.64,4.75,-0.63,0.63,0.57,0.87,5.38,5.38,5.39
139.22,4.69,-0.66,4.69,-0.67,0.68,0.54,0.83,5.37,5.36,5.35
140.61,4.62,-0.71,4.62,-0.72,0.72,0.52,0.79,5.34,5.34,5.33
142.02,4.54,-0.78,4.54,-0.77,0.77,0.49,0.74,5.31,5.31,5.32
143.44,4.47,-0.83,4.47,-0.82,0.81,0.46,0.70,5.28,5.29,5.30
144.87,4.41,-0.86,4.41,-0.87,0.86,0.44,0.65,5.27,5.26,5.27
146.32,4.34,-0.90,4.34,-0.90,0.90,0.41,0.60,5.24,5.25,5.24
147.78,4.28,-0.95,4.28,-0.95,0.95,0.38,0.55,5.23,5.23,5.23
149.26,4.21,-0.99,4.21,-0.99,1.00,0.36,0.50,5.21,5.20,5.20
150.75,4.13,-1.04,4.13,-1.04,1.04,0.33,0.45,5.17,5.17,5.17
152.26,4.05,-1.08,4.05,-1.08,1.09,0.30,0.40,5.14,5.14,5.13
153.78,3.97,-1.14,3.97,-1.13,1.13,0.27,0.34,5.10,5.10,5.11
155.32,3.90,-1.18,3.90,-1.18,1.18,0.25,0.29,5.08,5.07,5.08
156.88,3.82,-1.23,3.82,-1.23,1.22,0.22,0.24,5.04,5.04,5.05
158.44,3.75,-1.27,3.75,-1.27,1.27,0.19,0.18,5.02,5.02,5.02
160.03,3.68,-1.30,3.68,-1.31,1.31,0.16,0.12,4.99,4.99,4.98
161.63,3.60,-1.35,3.60,-1.34,1.36,0.14,0.07,4.96,4.96,4.95
163.24,3.53,-1.38,3.52,-1.39,1.40,0.11,0.01,4.93,4.93,4.91
164.88,3.44,-1.45,3.44,-1.44,1.44,0.08,-0.04,4.88,4.89,4.89
166.53,3.36,-1.49,3.36,-1.49,1.48,0.05,-0.10,4.84,4.85,4.85
168.19,3.29,-1.53,3.29,-1.53,1.52,0.03,-0.16,4.81,4.81,4.82
169.87,3.23,-1.55,3.23,-1.55,1.55,-0.00,-0.22,4.78,4.78,4.78
171.57,3.17,-1.58,3.17,-1.58,1.57,-0.03,-0.28,4.74,4.74,4.75
173.29,3.11,-1.59,3.11,-1.59,1.59,-0.06,-0.34,4.70,4.70,4.70
175.02,3.06,-1.60,3.06,-1.60,1.59,-0.08,-0.40,4.65,4.65,4.66
176.77,3.02,-1.60,3.02,-1.59,1.59,-0.11,-0.46,4.61,4.61,4.62
178.54,2.99,-1.57,2.99,-1.58,1.57,-0.14,-0.52,4.56,4.56,4.56
180.32,2.96,-1.55,2.96,-1.55,1.56,-0.17,-0.58,4.52,4.52,4.51
182.13,2.94,-1.53,2.94,-1.52,1.53,-0.20,-0.64,4.47,4.48,4.47
183.95,2.93,-1.49,2.92,-1.50,1.51,-0.23,-0.70,4.44,4.43,4.42
185.79,2.90,-1.47,2.90,-1.47,1.47,-0.26,-0.76,4.37,4.37,4.37
187.65,2.88,-1.44,2.88,-1.44,1.44,-0.29,-0.82,4.32,4.32,4.32
189.52,2.87,-1.40,2.87,-1.40,1.40,-0.32,-0.89,4.27,4.27,4.27
191.42,2.88,-1.35,2.87,-1.36,1.35,-0.35,-0.95,4.23,4.22,4.23
193.33,2.88,-1.31,2.88,-1.31,1.30,-0.38,-1.01,4.18,4.18,4.19
195.27,2.90,-1.25,2.90,-1.24,1.24,-0.41,-1.07,4.14,4.14,4.15
197.22,2.92,-1.18,2.92,-1.18,1.18,-0.44,-1.14,4.10,4.10,4.10
199.19,2.94,-1.10,2.94,-1.11,1.12,-0.48,-1.20,4.06,4.06,4.04
201.18,2.97,-1.03,2.97,-1.03,1.04,-0.51,-1.26,4.01,4.01,4.00
203.19,3.01,-0.96,3.01,-0.96,0.96,-0.54,-1.33,3.97,3.97,3.97
205.23,3.05,-0.88,3.05,-0.89,0.88,-0.58,-1.39,3.93,3.93,3.93
207.28,3.10,-0.80,3.10,-0.79,0.78,-0.61,-1.45,3.88,3.89,3.90
209.35,3.17,-0.68,3.17,-0.69,0.68,-0.65,-1.51,3.85,3.85,3.85
211.44,3.24,-0.56,3.24,-0.57,0.57,-0.69,-1.57,3.81,3.81,3.80
213.56,3.32,-0.46,3.32,-0.45,0.45,-0.73,-1.63,3.77,3.78,3.78
215.69,3.41,-0.34,3.41,-0.33,0.33,-0.76,-1.69,3.74,3.74,3.75
217.85,3.51,-0.20,3.51,-0.20,0.19,-0.81,-1.75,3.70,3.70,3.71
220.03,3.62,-0.05,3.62,-0.05,0.05,-0.85,-1.80,3.67,3.68,3.67
222.23,3.75,0.11,3.74,0.10,-0.09,-0.89,-1.86,3.66,3.65,3.64
224.45,3.87,0.24,3.87,0.25,-0.24,-0.94,-1.91,3.63,3.63,3.63
226.70,4.00,0.39,4.00,0.39,-0.39,-0.98,-1.96,3.61,3.61,3.61
228.96,4.13,0.55,4.13,0.54,-0.55,-1.03,-2.01,3.58,3.58,3.58
231.25,4.27,0.70,4.27,0.70,-0.70,-1.08,-2.05,3.57,3.57,3.58
233.57,4.42,0.86,4.42,0.86,-0.86,-1.13,-2.09,3.56,3.56,3.56
235.90,4.57,1.02,4.57,1.02,-1.02,-1.19,-2.13,3.55,3.55,3.55
238.26,4.72,1.18,4.72,1.18,-1.18,-1.24,-2.16,3.54,3.55,3.54
240.64,4.88,1.34,4.88,1.34,-1.34,-1.30,-2.20,3.54,3.54,3.54
243.05,5.04,1.50,5.04,1.49,-1.49,-1.36,-2.22,3.55,3.54,3.54
245.48,5.19,1.65,5.19,1.65,-1.65,-1.42,-2.25,3.54,3.54,3.54
247.93,5.34,1.80,5.35,1.81,-1.80,-1.49,-2.27,3.54,3.54,3.54
250.41,5.50,1.96,5.50,1.95,-1.95,-1.55,-2.28,3.55,3.55,3.54
252.92,5.67,2.11,5.66,2.10,-2.10,-1.62,-2.30,3.57,3.56,3.56
255.45,5.81,2.23,5.82,2.24,-2.25,-1.70,-2.31,3.56,3.57,3.58
258.00,5.97,2.39,5.97,2.39,-2.39,-1.77,-2.31,3.58,3.58,3.58
260.58,6.13,2.54,6.12,2.53,-2.53,-1.85,-2.31,3.60,3.60,3.59
263.19,6.28,2.67,6.28,2.68,-2.67,-1.94,-2.31,3.61,3.61,3.61
265.82,6.42,2.81,6.42,2.80,-2.80,-2.02,-2.31,3.62,3.62,3.61
268.48,6.57,2.93,6.57,2.93,-2.94,-2.11,-2.30,3.63,3.63,3.64
271.16,6.71,3.06,6.71,3.06,-3.07,-2.21,-2.29,3.64,3.65,3.65
273.87,6.86,3.20,6.86,3.19,-3.20,-2.31,-2.28,3.66,3.66,3.66
276.61,7.00,3.32,7.00,3.32,-3.32,-2.41,-2.26,3.68,3.67,3.68
279.38,7.13,3.45,7.13,3.44,-3.44,-2.51,-2.25,3.69,3.69,3.68
282.17,7.26,3.56,7.26,3.56,-3.56,-2.62,-2.23,3.70,3.70,3.70
284.99,7.39,3.67,7.39,3.68,-3.68,-2.74,-2.21,3.71,3.71,3.72
287.84,7.52,3.80,7.52,3.79,-3.79,-2.85,-2.18,3.73,3.73,3.72
290.72,7.64,3.90,7.64,3.90,-3.89,-2.97,-2.16,3.75,3.75,3.74
293.63,7.74,3.99,7.75,3.99,-3.99,-3.10,-2.14,3.75,3.76,3.75
296.57,7.85,4.08,7.85,4.08,-4.08,-3.22,-2.11,3.77,3.77,3.77
299.53,7.94,4.17,7.94,4.17,-4.17,-3.36,-2.09,3.77,3.77,3.77
302.53,8.03,4.25,8.03,4.24,-4.25,-3.49,-2.06,3.78,3.78,3.78
305.55,8.11,4.31,8.11,4.32,-4.33,-3.62,-2.04,3.78,3.78,3.80
308.61,8.20,4.39,8.20,4.39,-4.40,-3.76,-2.02,3.80,3.80,3.81
311.69,8.29,4.47,8.29,4.47,-4.47,-3.90,-1.99,3.82,3.82,3.82
314.81,8.38,4.54,8.38,4.54,-4.54,-4.03,-1.97,3.84,3.84,3.84
317.96,8.45,4.60,8.45,4.60,-4.59,-4.16,-1.95,3.86,3.86,3.85
321.14,8.52,4.66,8.51,4.66,-4.64,-4.30,-1.93,3.88,3.87,3.86
324.35,8.56,4.69,8.56,4.69,-4.69,-4.42,-1.91,3.87,3.88,3.87
327.59,8.59,4.72,8.59,4.72,-4.72,-4.54,-1.89,3.87,3.88,3.87
330.87,8.62,4.74,8.62,4.73,-4.74,-4.66,-1.87,3.88,3.88,3.88
334.18,8.63,4.74,8.63,4.74,-4.75,-4.76,-1.85,3.88,3.88,3.89
337.52,8.64,4.75,8.64,4.75,-4.75,-4.85,-1.84,3.89,3.89,3.89
340.90,8.65,4.74,8.64,4.74,-4.75,-4.94,-1.82,3.90,3.90,3.91
344.30,8.64,4.73,8.64,4.73,-4.73,-5.00,-1.81,3.91,3.91,3.91
347.75,8.62,4.71,8.62,4.71,-4.71,-5.05,-1.80,3.91,3.91,3.91
351.23,8.60,4.69,8.60,4.69,-4.69,-5.08,-1.79,3.91,3.91,3.91
354.74,8.58,4.67,8.57,4.66,-4.66,-5.10,-1.78,3.92,3.92,3.91
358.28,8.54,4.62,8.54,4.62,-4.62,-5.09,-1.78,3.92,3.92,3.92
361.87,8.49,4.57,8.49,4.58,-4.58,-5.06,-1.77,3.91,3.92,3.92
365.49,8.44,4.52,8.44,4.52,-4.53,-5.02,-1.77,3.91,3.91,3.92
369.14,8.38,4.47,8.38,4.47,-4.47,-4.96,-1.77,3.91,3.91,3.91
372.83,8.32,4.42,8.32,4.42,-4.42,-4.87,-1.77,3.90,3.90,3.90
376.56,8.26,4.36,8.26,4.35,-4.36,-4.78,-1.77,3.90,3.90,3.90
380.33,8.19,4.28,8.19,4.28,-4.29,-4.66,-1.77,3.90,3.90,3.91
384.13,8.12,4.22,8.12,4.22,-4.22,-4.54,-1.77,3.90,3.90,3.90
387.97,8.05,4.15,8.05,4.15,-4.15,-4.40,-1.78,3.90,3.90,3.90
391.85,7.97,4.08,7.97,4.07,-4.07,-4.25,-1.78,3.90,3.90,3.89
395.77,7.88,3.98,7.88,3.99,-3.98,-4.09,-1.79,3.90,3.90,3.90
399.73,7.78,3.89,7.78,3.89,-3.89,-3.93,-1.80,3.89,3.90,3.89
403.72,7.68,3.79,7.68,3.79,-3.79,-3.76,-1.80,3.89,3.89,3.89
407.76,7.57,3.68,7.57,3.68,-3.68,-3.58,-1.81,3.89,3.89,3.89
411.84,7.45,3.56,7.46,3.56,-3.57,-3.41,-1.82,3.88,3.89,3.89
415.96,7.34,3.45,7.34,3.45,-3.45,-3.23,-1.83,3.89,3.89,3.89
420.12,7.23,3.34,7.23,3.33,-3.34,-3.05,-1.83,3.89,3.89,3.89
424.32,7.11,3.22,7.10,3.21,-3.21,-2.88,-1.84,3.90,3.89,3.89
428.56,6.97,3.09,6.97,3.09,-3.09,-2.70,-1.85,3.88,3.89,3.88
432.85,6.84,2.96,6.84,2.96,-2.96,-2.53,-1.86,3.88,3.88,3.88
437.18,6.71,2.83,6.71,2.83,-2.83,-2.36,-1.86,3.88,3.88,3.88
441.55,6.59,2.70,6.58,2.70,-2.70,-2.19,-1.86,3.90,3.89,3.89
445.96,6.44,2.55,6.44,2.56,-2.56,-2.03,-1.87,3.88,3.89,3.89
450.42,6.30,2.42,6.30,2.42,-2.41,-1.87,-1.87,3.89,3.89,3.88
454.93,6.16,2.27,6.16,2.27,-2.27,-1.71,-1.87,3.89,3.89,3.89
459.48,6.01,2.12,6.01,2.12,-2.12,-1.56,-1.86,3.89,3.89,3.89
464.07,5.86,1.97,5.86,1.97,-1.97,-1.41,-1.85,3.89,3.89,3.89
468.71,5.71,1.81,5.71,1.82,-1.82,-1.26,-1.84,3.89,3.89,3.90
473.40,5.56,1.67,5.56,1.67,-1.67,-1.12,-1.83,3.89,3.89,3.89
478.13,5.41,1.51,5.41,1.52,-1.52,-0.98,-1.82,3.89,3.89,3.90
482.91,5.26,1.36,5.26,1.37,-1.37,-0.84,-1.80,3.89,3.89,3.90
487.74,5.11,1.22,5.11,1.22,-1.22,-0.71,-1.77,3.89,3.90,3.89
492.62,4.97,1.07,4.97,1.07,-1.07,-0.58,-1.75,3.90,3.90,3.90
497.55,4.82,0.93,4.82,0.92,-0.92,-0.45,-1.72,3.90,3.90,3.89
502.52,4.67,0.77,4.67,0.77,-0.77,-0.32,-1.68,3.90,3.90,3.90
507.55,4.52,0.63,4.52,0.63,-0.63,-0.20,-1.64,3.89,3.89,3.89
512.62,4.38,0.49,4.38,0.48,-0.49,-0.08,-1.60,3.89,3.90,3.89
517.75,4.25,0.35,4.24,0.35,-0.34,0.03,-1.55,3.91,3.90,3.90
522.93,4.10,0.20,4.10,0.20,-0.20,0.15,-1.50,3.90,3.90,3.90
528.16,3.96,0.07,3.96,0.06,-0.06,0.26,-1.45,3.90,3.90,3.89
533.44,3.81,-0.08,3.81,-0.08,0.08,0.37,-1.39,3.89,3.89,3.89
538.77,3.67,-0.22,3.67,-0.22,0.22,0.48,-1.33,3.89,3.89,3.89
544.16,3.53,-0.36,3.52,-0.36,0.36,0.59,-1.26,3.89,3.89,3.89
549.60,3.38,-0.50,3.38,-0.50,0.50,0.69,-1.19,3.88,3.88,3.88
