frequency,raw
20.00,6.71
20.20,6.78
20.40,6.83
20.61,6.89
20.81,6.94
21.02,6.99
21.23,7.04
21.44,7.08
21.66,7.13
21.87,7.16
22.09,7.21
22.31,7.24
22.54,7.24
22.76,7.25
22.99,7.27
23.22,7.29
23.45,7.32
23.69,7.35
23.92,7.38
24.16,7.42
24.40,7.45
24.65,7.50
24.89,7.53
25.14,7.57
25.39,7.60
25.65,7.63
25.91,7.66
26.16,7.67
26.43,7.68
26.69,7.70
26.96,7.69
27.23,7.69
27.50,7.69
27.77,7.68
28.05,7.69
28.33,7.69
28.62,7.69
28.90,7.70
29.19,7.70
29.48,7.70
29.78,7.70
30.08,7.70
30.38,7.71
30.68,7.71
30.99,7.71
31.30,7.71
31.61,7.71
31.93,7.70
32.24,7.70
32.57,7.72
32.89,7.73
33.22,7.75
33.55,7.78
33.89,7.81
34.23,7.83
34.57,7.87
34.92,7.91
35.27,7.94
35.62,7.98
35.97,8.01
36.33,8.03
36.70,8.06
37.06,8.08
37.43,8.11
37.81,8.12
38.19,8.12
38.57,8.13
38.95,8.12
39.34,8.12
39.74,8.12
40.14,8.13
40.54,8.13
40.94,8.13
41.35,8.13
41.76,8.13
42.18,8.13
42.60,8.13
43.03,8.12
43.46,8.12
43.90,8.12
44.33,8.12
44.78,8.12
45.23,8.12
45.68,8.12
46.13,8.12
46.60,8.12
47.06,8.12
47.53,8.13
48.01,8.13
48.49,8.13
48.97,8.14
49.46,8.15
49.96,8.15
50.46,8.15
50.96,8.14
51.47,8.12
51.99,8.10
52.51,8.07
53.03,8.05
53.56,8.02
54.10,7.98
54.64,7.95
55.18,7.91
55.74,7.88
56.29,7.84
56.86,7.82
57.42,7.79
58.00,7.77
58.58,7.75
59.16,7.74
59.76,7.73
60.35,7.73
60.96,7.74
61.57,7.75
62.18,7.75
62.80,7.75
63.43,7.75
64.07,7.75
64.71,7.75
65.35,7.75
66.01,7.75
66.67,7.76
67.33,7.76
68.01,7.77
68.69,7.77
69.37,7.77
70.07,7.77
70.77,7.76
71.48,7.73
72.19,7.71
72.91,7.68
73.64,7.66
74.38,7.62
75.12,7.59
75.87,7.54
76.63,7.51
77.40,7.48
78.17,7.45
78.95,7.42
79.74,7.40
80.54,7.37
81.35,7.37
82.16,7.37
82.98,7.38
83.81,7.39
84.65,7.38
85.50,7.38
86.35,7.37
87.22,7.35
88.09,7.32
88.97,7.30
89.86,7.27
90.76,7.24
91.66,7.21
92.58,7.17
93.51,7.14
94.44,7.11
95.39,7.09
96.34,7.07
97.30,7.05
98.28,7.04
99.26,7.03
100.25,7.03
101.25,7.02
102.27,7.01
103.29,7.00
104.32,6.97
105.37,6.94
106.42,6.91
107.48,6.87
108.56,6.84
109.64,6.82
110.74,6.80
111.85,6.77
112.97,6.74
114.10,6.70
115.24,6.67
116.39,6.64
117.55,6.60
118.73,6.57
119.92,6.55
121.12,6.54
122.33,6.51
123.55,6.48
124.79,6.44
126.03,6.40
127.29,6.35
128.57,6.31
129.85,6.27
131.15,6.23
132.46,6.18
133.79,6.15
135.12,6.13
136.48,6.12
137.84,6.10
139.22,6.07
140.61,6.04
142.02,6.00
143.44,5.96
144.87,5.93
146.32,5.88
147.78,5.85
149.26,5.84
150.75,5.82
152.26,5.80
153.78,5.76
155.32,5.72
156.88,5.67
158.44,5.63
160.03,5.59
161.63,5.55
163.24,5.51
164.88,5.47
166.53,5.44
168.19,5.41
169.87,5.36
171.57,5.33
173.29,5.29
175.02,5.24
176.77,5.17
178.54,5.12
180.32,5.06
182.13,5.01
183.95,4.96
185.79,4.91
187.65,4.87
189.52,4.81
191.42,4.76
193.33,4.72
195.27,4.68
197.22,4.66
199.19,4.65
201.18,4.63
203.19,4.62
205.23,4.59
207.28,4.57
209.35,4.55
211.44,4.52
213.56,4.51
215.69,4.48
217.85,4.45
220.03,4.41
222.23,4.38
224.45,4.36
226.70,4.33
228.96,4.30
231.25,4.28
233.57,4.26
235.90,4.22
238.26,4.20
240.64,4.17
243.05,4.15
245.48,4.13
247.93,4.11
250.41,4.07
252.92,4.02
255.45,3.97
258.00,3.92
260.58,3.87
263.19,3.83
265.82,3.78
268.48,3.71
271.16,3.66
273.87,3.61
276.61,3.55
279.38,3.51
282.17,3.45
284.99,3.40
287.84,3.34
290.72,3.27
293.63,3.22
296.57,3.17
299.53,3.11
302.53,3.07
305.55,3.01
308.61,2.94
311.69,2.88
314.81,2.81
317.96,2.77
321.14,2.72
324.35,2.68
327.59,2.63
330.87,2.57
334.18,2.52
337.52,2.48
340.90,2.43
344.30,2.39
347.75,2.34
351.23,2.28
354.74,2.22
358.28,2.16
361.87,2.12
365.49,2.08
369.14,2.04
372.83,1.99
376.56,1.93
380.33,1.88
384.13,1.83
387.97,1.78
391.85,1.73
395.77,1.70
399.73,1.66
403.72,1.62
407.76,1.58
411.84,1.55
415.96,1.50
420.12,1.47
424.32,1.42
428.56,1.37
432.85,1.33
437.18,1.30
441.55,1.26
445.96,1.22
450.42,1.18
454.93,1.15
459.48,1.11
464.07,1.08
468.71,1.03
473.40,0.98
478.13,0.92
482.91,0.87
487.74,0.83
492.62,0.79
497.55,0.74
502.52,0.69
507.55,0.63
512.62,0.57
517.75,0.50
522.93,0.45
528.16,0.39
533.44,0.34
538.77,0.28
544.16,0.22
549.60,0.16
555.10,0.11
560.65,0.05
566.25,-0.01
571.92,-0.07
577.64,-0.12
583.41,-0.18
589.25,-0.24
595.14,-0.32
601.09,-0.39
607.10,-0.45
613.17,-0.53
619.30,-0.60
625.50,-0.66
631.75,-0.72
638.07,-0.78
644.45,-0.82
650.89,-0.86
657.40,-0.89
663.98,-0.93
670.62,-0.95
677.32,-0.97
684.10,-0.99
690.94,-1.01
697.85,-1.04
704.83,-1.06
711.87,-1.08
718.99,-1.09
726.18,-1.12
733.44,-1.16
740.78,-1.20
748.19,-1.24
755.67,-1.29
763.23,-1.34
770.86,-1.38
778.57,-1.42
786.35,-1.46
794.22,-1.49
802.16,-1.53
810.18,-1.56
818.28,-1.60
826.46,-1.64
834.73,-1.70
843.08,-1.75
851.51,-1.80
860.02,-1.84
868.62,-1.89
877.31,-1.93
886.08,-1.95
894.94,-1.98
903.89,-2.00
912.93,-2.02
922.06,-2.02
931.28,-2.02
940.59,-2.01
950.00,-2.00
959.50,-2.00
969.09,-2.00
978.78,-1.99
988.57,-1.97
998.46,-1.94
1008.44,-1.91
1018.53,-1.87
1028.71,-1.83
1039.00,-1.79
1049.39,-1.74
1059.88,-1.70
1070.48,-1.66
1081.19,-1.63
1092.00,-1.58
1102.92,-1.51
1113.95,-1.45
1125.09,-1.38
1136.34,-1.31
1147.70,-1.25
1159.18,-1.19
1170.77,-1.13
1182.48,-1.07
1194.30,-1.01
1206.25,-0.94
1218.31,-0.87
1230.49,-0.78
1242.80,-0.71
1255.22,-0.64
1267.78,-0.58
1280.45,-0.52
1293.26,-0.47
1306.19,-0.45
1319.25,-0.42
1332.45,-0.40
1345.77,-0.38
1359.23,-0.36
1372.82,-0.35
1386.55,-0.33
1400.41,-0.31
1414.42,-0.30
1428.56,-0.29
1442.85,-0.27
1457.28,-0.25
1471.85,-0.24
1486.57,-0.22
1501.43,-0.20
1516.45,-0.18
1531.61,-0.15
1546.93,-0.12
1562.40,-0.09
1578.02,-0.04
1593.80,-0.01
1609.74,0.02
1625.84,0.05
1642.10,0.10
1658.52,0.15
1675.10,0.20
1691.85,0.24
1708.77,0.29
1725.86,0.35
1743.12,0.41
1760.55,0.48
1778.15,0.55
1795.94,0.59
1813.90,0.64
1832.03,0.70
1850.36,0.76
1868.86,0.82
1887.55,0.90
1906.42,0.98
1925.49,1.06
1944.74,1.13
1964.19,1.21
1983.83,1.28
2003.67,1.36
2023.71,1.46
2043.94,1.55
2064.38,1.65
2085.03,1.75
2105.88,1.85
2126.94,1.96
2148.20,2.07
2169.69,2.21
2191.38,2.34
2213.30,2.46
2235.43,2.59
2257.78,2.72
2280.36,2.87
2303.17,3.02
2326.20,3.17
2349.46,3.34
2372.95,3.51
2396.68,3.68
2420.65,3.84
2444.86,4.03
2469.31,4.21
2494.00,4.39
2518.94,4.59
2544.13,4.81
2569.57,5.02
2595.27,5.22
2621.22,5.42
2647.43,5.64
2673.90,5.86
2700.64,6.09
2727.65,6.29
2754.93,6.51
2782.48,6.75
2810.30,6.96
2838.40,7.19
2866.79,7.41
2895.46,7.62
2924.41,7.83
2953.65,8.03
2983.19,8.22
3013.02,8.39
3043.15,8.55
3073.58,8.70
3104.32,8.85
3135.36,8.98
3166.72,9.10
3198.38,9.20
3230.37,9.28
3262.67,9.36
3295.30,9.42
3328.25,9.49
3361.53,9.54
3395.15,9.59
3429.10,9.63
3463.39,9.68
3498.03,9.70
3533.01,9.72
3568.34,9.73
3604.02,9.74
3640.06,9.77
3676.46,9.78
3713.22,9.78
3750.36,9.79
3787.86,9.78
3825.74,9.77
3864.00,9.77
3902.64,9.75
3941.66,9.74
3981.08,9.74
4020.89,9.73
4061.10,9.74
4101.71,9.75
4142.73,9.77
4184.15,9.79
4226.00,9.82
4268.26,9.88
4310.94,9.93
4354.05,9.98
4397.59,10.05
4441.56,10.13
4485.98,10.24
4530.84,10.37
4576.15,10.50
4621.91,10.64
4668.13,10.80
4714.81,10.97
4761.96,11.15
4809.58,11.33
4857.67,11.51
4906.25,11.69
4955.31,11.85
5004.87,12.01
5054.91,12.17
5105.46,12.31
5156.52,12.43
5208.08,12.52
5260.16,12.61
5312.77,12.67
5365.89,12.70
5419.55,12.73
5473.75,12.74
5528.49,12.72
5583.77,12.70
5639.61,12.64
5696.00,12.55
5752.96,12.47
5810.49,12.37
5868.60,12.24
5927.28,12.09
5986.56,11.91
6046.42,11.72
6106.89,11.49
6167.96,11.24
6229.64,10.95
6291.93,10.65
6354.85,10.30
6418.40,9.95
6482.58,9.57
6547.41,9.16
6612.88,8.74
6679.01,8.30
6745.80,7.86
6813.26,7.41
6881.39,6.97
6950.21,6.54
7019.71,6.14
7089.91,5.76
7160.81,5.43
7232.41,5.13
7304.74,4.86
7377.79,4.60
7451.56,4.37
7526.08,4.15
7601.34,3.94
7677.35,3.71
7754.13,3.45
7831.67,3.15
7909.98,2.83
7989.08,2.45
8068.98,2.00
8149.67,1.49
8231.16,0.91
8313.47,0.28
8396.61,-0.39
8480.57,-1.11
8565.38,-1.84
8651.03,-2.59
8737.54,-3.33
8824.92,-4.06
8913.17,-4.78
9002.30,-5.46
9092.32,-6.10
9183.25,-6.70
9275.08,-7.22
9367.83,-7.70
9461.51,-8.15
9556.12,-8.54
9651.68,-8.88
9748.20,-9.14
9845.68,-9.35
9944.14,-9.48
10043.58,-9.53
10144.02,-9.53
10245.46,-9.49
10347.91,-9.39
10451.39,-9.26
10555.91,-9.11
10661.46,-8.95
10768.08,-8.78
10875.76,-8.63
10984.52,-8.49
11094.36,-8.36
11205.31,-8.26
11317.36,-8.19
11430.53,-8.15
11544.84,-8.14
11660.29,-8.14
11776.89,-8.17
11894.66,-8.18
12013.60,-8.17
12133.74,-8.14
12255.08,-8.08
12377.63,-7.99
12501.41,-7.87
12626.42,-7.75
12752.68,-7.61
12880.21,-7.47
13009.01,-7.34
13139.10,-7.23
13270.49,-7.16
13403.20,-7.08
13537.23,-7.01
13672.60,-6.95
13809.33,-6.90
13947.42,-6.87
14086.90,-6.80
14227.77,-6.73
14370.04,-6.62
14513.74,-6.50
14658.88,-6.36
14805.47,-6.19
14953.52,-5.99
15103.06,-5.81
15254.09,-5.67
15406.63,-5.58
15560.70,-5.58
15716.30,-5.73
15873.47,-6.05
16032.20,-6.56
16192.52,-7.24
16354.45,-8.08
16517.99,-9.07
16683.17,-10.15
16850.01,-11.33
17018.51,-12.54
17188.69,-13.74
17360.58,-14.91
17534.18,-16.02
17709.53,-17.08
17886.62,-18.04
18065.49,-18.80
18246.14,-19.48
18428.60,-20.09
18612.89,-20.62
18799.02,-21.07
18987.01,-21.44
19176.88,-21.75
19368.65,-21.97
19562.33,-22.10
19757.96,-22.16
19955.54,-22.15
