frequency,raw,error,smoothed,error_smoothed,equalization,parametric_eq,fixed_band_eq,equalized_raw,equalized_smoothed,target
20.00,2.32,-0.73,2.32,-0.73,0.73,0.63,0.15,3.05,3.05,3.05
20.20,2.29,-0.74,2.30,-0.74,0.74,0.62,0.16,3.03,3.04,3.03
20.40,2.28,-0.74,2.28,-0.75,0.75,0.62,0.17,3.03,3.02,3.02
20.61,2.26,-0.76,2.26,-0.75,0.75,0.61,0.17,3.01,3.01,3.02
20.81,2.25,-0.75,2.25,-0.75,0.76,0.60,0.18,3.01,3.01,3.00
21.02,2.24,-0.75,2.24,-0.75,0.76,0.59,0.18,3.00,3.00,2.99
21.23,2.24,-0.74,2.24,-0.75,0.75,0.58,0.19,2.99,2.99,2.98
21.44,2.24,-0.75,2.24,-0.75,0.74,0.57,0.20,2.98,2.98,2.99
21.66,2.24,-0.74,2.24,-0.74,0.74,0.56,0.21,2.98,2.97,2.98
21.87,2.24,-0.73,2.24,-0.73,0.72,0.56,0.21,2.96,2.97,2.97
22.09,2.25,-0.71,2.25,-0.71,0.71,0.55,0.22,2.96,2.96,2.96
22.31,2.27,-0.69,2.27,-0.69,0.69,0.54,0.23,2.96,2.95,2.96
22.54,2.28,-0.67,2.28,-0.67,0.67,0.53,0.24,2.95,2.95,2.95
22.76,2.31,-0.65,2.31,-0.64,0.64,0.52,0.25,2.95,2.95,2.96
22.99,2.33,-0.62,2.33,-0.61,0.61,0.51,0.25,2.94,2.94,2.95
23.22,2.36,-0.58,2.36,-0.58,0.58,0.50,0.26,2.94,2.94,2.93
23.45,2.39,-0.54,2.39,-0.54,0.55,0.49,0.27,2.94,2.94,2.93
23.69,2.42,-0.51,2.42,-0.51,0.52,0.48,0.28,2.94,2.94,2.93
23.92,2.45,-0.48,2.45,-0.48,0.48,0.47,0.29,2.93,2.93,2.93
24.16,2.48,-0.45,2.48,-0.46,0.45,0.45,0.30,2.93,2.93,2.93
24.40,2.51,-0.43,2.51,-0.43,0.42,0.44,0.31,2.93,2.93,2.94
24.65,2.54,-0.40,2.54,-0.39,0.39,0.43,0.32,2.93,2.93,2.94
24.89,2.57,-0.36,2.57,-0.36,0.36,0.42,0.33,2.93,2.93,2.93
25.14,2.59,-0.33,2.59,-0.33,0.34,0.41,0.34,2.93,2.93,2.92
25.39,2.60,-0.32,2.60,-0.31,0.32,0.40,0.35,2.92,2.92,2.92
25.65,2.61,-0.30,2.61,-0.30,0.31,0.39,0.36,2.92,2.92,2.91
25.91,2.62,-0.29,2.62,-0.29,0.30,0.37,0.36,2.92,2.92,2.91
26.16,2.62,-0.29,2.62,-0.29,0.29,0.36,0.37,2.91,2.91,2.91
26.43,2.61,-0.29,2.61,-0.30,0.29,0.35,0.38,2.90,2.90,2.90
26.69,2.60,-0.30,2.60,-0.30,0.29,0.34,0.39,2.89,2.89,2.90
26.96,2.59,-0.31,2.59,-0.30,0.30,0.32,0.40,2.89,2.89,2.90
27.23,2.59,-0.30,2.59,-0.30,0.30,0.31,0.40,2.89,2.89,2.89
27.50,2.59,-0.30,2.59,-0.30,0.30,0.30,0.41,2.89,2.89,2.89
27.77,2.59,-0.31,2.59,-0.30,0.31,0.28,0.41,2.90,2.90,2.90
28.05,2.59,-0.30,2.59,-0.30,0.31,0.27,0.42,2.90,2.90,2.89
28.33,2.59,-0.30,2.59,-0.31,0.32,0.26,0.42,2.91,2.90,2.89
28.62,2.58,-0.31,2.58,-0.32,0.32,0.24,0.43,2.90,2.90,2.89
28.90,2.57,-0.33,2.57,-0.32,0.32,0.23,0.43,2.89,2.89,2.90
29.19,2.57,-0.33,2.57,-0.32,0.32,0.21,0.43,2.89,2.89,2.90
29.48,2.58,-0.32,2.58,-0.32,0.31,0.20,0.43,2.89,2.89,2.90
29.78,2.59,-0.31,2.59,-0.31,0.30,0.18,0.42,2.89,2.90,2.90
30.08,2.61,-0.30,2.61,-0.29,0.29,0.17,0.42,2.90,2.90,2.91
30.38,2.63,-0.27,2.63,-0.27,0.27,0.15,0.41,2.90,2.90,2.90
30.68,2.66,-0.24,2.66,-0.24,0.24,0.14,0.41,2.90,2.90,2.90
30.99,2.69,-0.21,2.69,-0.21,0.21,0.12,0.40,2.90,2.90,2.90
31.30,2.72,-0.18,2.72,-0.17,0.18,0.11,0.39,2.90,2.90,2.90
31.61,2.75,-0.14,2.75,-0.14,0.14,0.09,0.38,2.89,2.89,2.89
31.93,2.78,-0.10,2.78,-0.10,0.10,0.08,0.37,2.88,2.88,2.88
32.24,2.81,-0.07,2.81,-0.06,0.07,0.06,0.35,2.88,2.88,2.88
32.57,2.84,-0.03,2.84,-0.03,0.03,0.04,0.34,2.87,2.87,2.87
32.89,2.87,0.01,2.87,0.00,-0.00,0.03,0.32,2.87,2.86,2.86
33.22,2.89,0.03,2.89,0.03,-0.03,0.01,0.30,2.86,2.86,2.86
33.55,2.91,0.05,2.91,0.06,-0.06,-0.01,0.28,2.85,2.86,2.86
33.89,2.93,0.09,2.93,0.08,-0.08,-0.03,0.26,2.85,2.85,2.84
34.23,2.94,0.11,2.94,0.10,-0.09,-0.05,0.23,2.85,2.84,2.83
34.57,2.94,0.11,2.94,0.11,-0.11,-0.06,0.21,2.83,2.84,2.83
34.92,2.94,0.12,2.94,0.12,-0.12,-0.08,0.18,2.82,2.82,2.82
35.27,2.93,0.11,2.93,0.12,-0.13,-0.10,0.16,2.80,2.80,2.82
35.62,2.92,0.13,2.92,0.13,-0.13,-0.12,0.13,2.79,2.79,2.79
35.97,2.92,0.14,2.92,0.14,-0.14,-0.14,0.10,2.78,2.78,2.78
36.33,2.92,0.15,2.92,0.15,-0.15,-0.16,0.07,2.77,2.77,2.77
36.70,2.92,0.16,2.92,0.16,-0.16,-0.18,0.04,2.76,2.76,2.76
37.06,2.92,0.18,2.92,0.18,-0.18,-0.20,0.01,2.74,2.74,2.74
37.43,2.92,0.19,2.92,0.19,-0.19,-0.22,-0.02,2.73,2.73,2.73
37.81,2.92,0.21,2.92,0.21,-0.21,-0.24,-0.06,2.71,2.71,2.71
38.19,2.92,0.23,2.92,0.23,-0.23,-0.26,-0.09,2.69,2.69,2.69
38.57,2.92,0.24,2.92,0.25,-0.25,-0.28,-0.12,2.67,2.67,2.68
38.95,2.92,0.27,2.92,0.27,-0.27,-0.30,-0.16,2.65,2.65,2.65
39.34,2.92,0.29,2.92,0.29,-0.29,-0.32,-0.19,2.63,2.63,2.63
39.74,2.92,0.31,2.92,0.31,-0.31,-0.34,-0.23,2.61,2.61,2.61
40.14,2.92,0.34,2.92,0.33,-0.33,-0.36,-0.26,2.59,2.59,2.58
40.54,2.92,0.35,2.92,0.35,-0.35,-0.39,-0.30,2.57,2.57,2.57
40.94,2.92,0.38,2.92,0.37,-0.37,-0.41,-0.34,2.55,2.55,2.54
41.35,2.92,0.39,2.92,0.39,-0.39,-0.43,-0.38,2.53,2.53,2.53
41.76,2.92,0.41,2.92,0.41,-0.41,-0.45,-0.41,2.51,2.51,2.51
42.18,2.92,0.43,2.92,0.43,-0.43,-0.48,-0.45,2.49,2.49,2.49
42.60,2.92,0.45,2.92,0.45,-0.45,-0.50,-0.49,2.47,2.47,2.47
43.03,2.92,0.48,2.92,0.48,-0.47,-0.52,-0.53,2.45,2.45,2.44
43.46,2.92,0.50,2.92,0.50,-0.50,-0.55,-0.57,2.42,2.42,2.42
43.90,2.92,0.52,2.92,0.52,-0.52,-0.57,-0.61,2.40,2.40,2.40
44.33,2.92,0.54,2.92,0.54,-0.54,-0.60,-0.65,2.38,2.38,2.38
44.78,2.92,0.57,2.92,0.57,-0.57,-0.62,-0.69,2.35,2.35,2.35
45.23,2.92,0.59,2.92,0.59,-0.60,-0.65,-0.73,2.32,2.32,2.33
45.68,2.92,0.63,2.92,0.63,-0.63,-0.67,-0.78,2.29,2.29,2.29
46.13,2.92,0.67,2.92,0.66,-0.66,-0.70,-0.82,2.26,2.26,2.25
46.60,2.92,0.69,2.92,0.69,-0.69,-0.72,-0.86,2.23,2.23,2.23
47.06,2.92,0.72,2.92,0.73,-0.73,-0.75,-0.91,2.19,2.19,2.20
47.53,2.92,0.75,2.92,0.76,-0.76,-0.78,-0.95,2.16,2.16,2.17
48.01,2.92,0.80,2.92,0.80,-0.80,-0.80,-0.99,2.12,2.12,2.12
48.49,2.92,0.84,2.92,0.84,-0.84,-0.83,-1.04,2.08,2.08,2.08
48.97,2.92,0.88,2.92,0.88,-0.87,-0.86,-1.08,2.05,2.05,2.04
49.46,2.92,0.91,2.92,0.91,-0.91,-0.89,-1.13,2.01,2.01,2.01
49.96,2.92,0.96,2.92,0.95,-0.95,-0.92,-1.17,1.97,1.97,1.96
50.46,2.92,0.98,2.92,0.98,-0.98,-0.95,-1.22,1.94,1.94,1.94
50.96,2.92,1.01,2.92,1.02,-1.01,-0.97,-1.26,1.91,1.91,1.91
51.47,2.92,1.05,2.92,1.05,-1.05,-1.00,-1.31,1.87,1.87,1.87
51.99,2.92,1.08,2.92,1.08,-1.08,-1.03,-1.35,1.84,1.84,1.84
52.51,2.92,1.11,2.92,1.11,-1.12,-1.07,-1.40,1.80,1.80,1.81
53.03,2.92,1.14,2.92,1.15,-1.15,-1.10,-1.44,1.77,1.77,1.78
53.56,2.92,1.18,2.92,1.18,-1.19,-1.13,-1.49,1.73,1.73,1.74
54.10,2.92,1.22,2.92,1.22,-1.22,-1.16,-1.53,1.70,1.70,1.70
54.64,2.92,1.26,2.92,1.26,-1.26,-1.19,-1.57,1.66,1.66,1.66
55.18,2.92,1.30,2.92,1.30,-1.29,-1.23,-1.61,1.63,1.63,1.62
55.74,2.92,1.34,2.92,1.33,-1.33,-1.26,-1.65,1.59,1.59,1.58
56.29,2.92,1.36,2.92,1.36,-1.36,-1.30,-1.69,1.56,1.56,1.56
56.86,2.92,1.38,2.92,1.39,-1.39,-1.33,-1.73,1.53,1.53,1.54
57.42,2.92,1.42,2.92,1.42,-1.42,-1.37,-1.77,1.50,1.50,1.50
58.00,2.92,1.45,2.92,1.45,-1.44,-1.40,-1.81,1.48,1.48,1.47
58.58,2.92,1.46,2.92,1.47,-1.47,-1.44,-1.84,1.45,1.45,1.46
59.16,2.92,1.49,2.92,1.49,-1.50,-1.48,-1.87,1.42,1.42,1.43
59.76,2.92,1.52,2.92,1.52,-1.54,-1.52,-1.90,1.38,1.38,1.40
60.35,2.92,1.57,2.92,1.57,-1.57,-1.56,-1.93,1.35,1.35,1.35
60.96,2.92,1.61,2.92,1.61,-1.61,-1.61,-1.96,1.31,1.31,1.31
61.57,2.92,1.66,2.92,1.66,-1.66,-1.65,-1.99,1.26,1.26,1.26
62.18,2.92,1.71,2.92,1.71,-1.70,-1.69,-2.01,1.22,1.22,1.21
62.80,2.92,1.75,2.92,1.75,-1.74,-1.74,-2.03,1.18,1.18,1.17
63.43,2.92,1.80,2.92,1.79,-1.79,-1.79,-2.05,1.13,1.13,1.12
64.07,2.92,1.83,2.92,1.83,-1.83,-1.83,-2.06,1.09,1.09,1.09
64.71,2.92,1.87,2.92,1.87,-1.87,-1.88,-2.08,1.05,1.05,1.05
65.35,2.92,1.91,2.92,1.90,-1.91,-1.92,-2.09,1.01,1.01,1.01
66.01,2.92,1.94,2.92,1.94,-1.94,-1.97,-2.10,0.98,0.98,0.98
66.67,2.92,1.97,2.92,1.98,-1.98,-2.01,-2.12,0.94,0.94,0.95
67.33,2.92,2.02,2.92,2.02,-2.02,-2.05,-2.12,0.90,0.90,0.90
68.01,2.92,2.06,2.92,2.06,-2.06,-2.09,-2.13,0.86,0.86,0.86
68.69,2.92,2.10,2.92,2.10,-2.10,-2.12,-2.14,0.82,0.82,0.82
69.37,2.92,2.14,2.92,2.14,-2.14,-2.16,-2.14,0.78,0.78,0.78
70.07,2.92,2.17,2.92,2.18,-2.19,-2.18,-2.15,0.73,0.74,0.75
70.77,2.93,2.22,2.93,2.22,-2.23,-2.21,-2.15,0.70,0.70,0.71
71.48,2.94,2.28,2.94,2.27,-2.27,-2.23,-2.15,0.67,0.66,0.66
72.19,2.94,2.32,2.94,2.32,-2.31,-2.25,-2.16,0.63,0.63,0.62
72.91,2.94,2.36,2.94,2.36,-2.35,-2.27,-2.16,0.59,0.59,0.58
73.64,2.93,2.39,2.93,2.39,-2.38,-2.29,-2.16,0.55,0.55,0.54
74.38,2.91,2.41,2.91,2.41,-2.40,-2.30,-2.17,0.51,0.51,0.50
75.12,2.89,2.42,2.89,2.42,-2.42,-2.32,-2.17,0.47,0.47,0.47
75.87,2.87,2.43,2.87,2.43,-2.43,-2.34,-2.18,0.44,0.44,0.44
76.63,2.84,2.43,2.84,2.43,-2.43,-2.36,-2.18,0.41,0.41,0.41
77.40,2.81,2.43,2.81,2.43,-2.43,-2.38,-2.19,0.38,0.38,0.38
78.17,2.78,2.43,2.78,2.43,-2.43,-2.40,-2.20,0.35,0.35,0.35
78.95,2.75,2.43,2.75,2.43,-2.43,-2.42,-2.20,0.32,0.32,0.32
79.74,2.72,2.42,2.72,2.42,-2.42,-2.44,-2.21,0.30,0.30,0.30
80.54,2.69,2.42,2.69,2.42,-2.42,-2.46,-2.23,0.27,0.27,0.27
81.35,2.66,2.42,2.66,2.42,-2.42,-2.49,-2.24,0.24,0.24,0.24
82.16,2.64,2.42,2.64,2.43,-2.43,-2.51,-2.25,0.21,0.21,0.22
82.98,2.61,2.43,2.61,2.43,-2.44,-2.53,-2.27,0.17,0.18,0.18
83.81,2.60,2.46,2.60,2.45,-2.45,-2.56,-2.28,0.15,0.14,0.14
84.65,2.58,2.47,2.58,2.47,-2.47,-2.59,-2.30,0.11,0.11,0.11
85.50,2.57,2.49,2.57,2.49,-2.50,-2.61,-2.32,0.07,0.07,0.08
86.35,2.57,2.52,2.57,2.52,-2.53,-2.64,-2.34,0.04,0.04,0.05
87.22,2.58,2.56,2.58,2.56,-2.56,-2.67,-2.37,0.02,0.01,0.02
88.09,2.58,2.60,2.58,2.60,-2.60,-2.69,-2.39,-0.02,-0.02,-0.02
88.97,2.59,2.64,2.59,2.64,-2.64,-2.72,-2.42,-0.05,-0.05,-0.05
89.86,2.59,2.69,2.59,2.68,-2.67,-2.75,-2.45,-0.08,-0.09,-0.10
90.76,2.59,2.72,2.59,2.72,-2.71,-2.77,-2.48,-0.12,-0.12,-0.13
91.66,2.59,2.75,2.59,2.75,-2.75,-2.80,-2.52,-0.16,-0.16,-0.16
92.58,2.59,2.78,2.59,2.78,-2.78,-2.83,-2.55,-0.19,-0.19,-0.19
93.51,2.59,2.82,2.59,2.82,-2.82,-2.86,-2.59,-0.23,-0.23,-0.23
94.44,2.59,2.85,2.59,2.85,-2.86,-2.88,-2.63,-0.27,-0.27,-0.26
95.39,2.59,2.90,2.59,2.89,-2.90,-2.91,-2.67,-0.31,-0.31,-0.31
96.34,2.59,2.94,2.59,2.93,-2.94,-2.94,-2.71,-0.35,-0.35,-0.35
97.30,2.59,2.98,2.59,2.98,-2.98,-2.96,-2.75,-0.39,-0.39,-0.39
98.28,2.60,3.02,2.60,3.03,-3.03,-2.99,-2.80,-0.43,-0.43,-0.42
99.26,2.61,3.08,2.61,3.07,-3.07,-3.01,-2.84,-0.46,-0.46,-0.47
100.25,2.62,3.12,2.62,3.11,-3.10,-3.04,-2.89,-0.48,-0.49,-0.50
101.25,2.62,3.14,2.62,3.15,-3.14,-3.06,-2.94,-0.52,-0.52,-0.52
102.27,2.61,3.16,2.61,3.17,-3.16,-3.08,-2.99,-0.55,-0.55,-0.55
103.29,2.60,3.19,2.60,3.19,-3.18,-3.11,-3.03,-0.58,-0.58,-0.59
104.32,2.59,3.20,2.59,3.20,-3.20,-3.13,-3.08,-0.61,-0.61,-0.61
105.37,2.57,3.21,2.57,3.21,-3.21,-3.15,-3.14,-0.64,-0.64,-0.64
106.42,2.54,3.21,2.54,3.22,-3.22,-3.17,-3.19,-0.68,-0.67,-0.67
107.48,2.52,3.23,2.52,3.22,-3.22,-3.19,-3.24,-0.70,-0.70,-0.71
108.56,2.49,3.22,2.49,3.22,-3.22,-3.21,-3.29,-0.73,-0.73,-0.73
109.64,2.46,3.23,2.46,3.22,-3.22,-3.23,-3.34,-0.76,-0.76,-0.77
110.74,2.42,3.21,2.42,3.22,-3.22,-3.24,-3.38,-0.80,-0.80,-0.79
111.85,2.39,3.22,2.39,3.22,-3.22,-3.26,-3.43,-0.83,-0.83,-0.83
112.97,2.36,3.23,2.36,3.22,-3.23,-3.28,-3.48,-0.87,-0.87,-0.87
114.10,2.33,3.22,2.33,3.23,-3.23,-3.29,-3.52,-0.90,-0.90,-0.89
115.24,2.31,3.25,2.31,3.24,-3.24,-3.31,-3.56,-0.93,-0.93,-0.94
116.39,2.29,3.27,2.29,3.26,-3.26,-3.32,-3.61,-0.97,-0.97,-0.98
117.55,2.27,3.27,2.27,3.28,-3.28,-3.33,-3.64,-1.01,-1.01,-1.00
118.73,2.25,3.30,2.26,3.30,-3.30,-3.35,-3.68,-1.05,-1.04,-1.05
119.92,2.25,3.32,2.25,3.32,-3.32,-3.36,-3.71,-1.07,-1.08,-1.07
121.12,2.25,3.34,2.25,3.35,-3.35,-3.38,-3.74,-1.10,-1.10,-1.09
122.33,2.25,3.38,2.25,3.38,-3.38,-3.39,-3.76,-1.13,-1.13,-1.13
123.55,2.26,3.42,2.26,3.41,-3.41,-3.41,-3.79,-1.15,-1.15,-1.16
124.79,2.27,3.45,2.27,3.45,-3.45,-3.43,-3.81,-1.18,-1.18,-1.18
126.03,2.27,3.49,2.27,3.49,-3.48,-3.45,-3.82,-1.21,-1.21,-1.22
127.29,2.27,3.52,2.27,3.52,-3.52,-3.47,-3.84,-1.25,-1.25,-1.25
128.57,2.27,3.55,2.27,3.55,-3.56,-3.49,-3.85,-1.29,-1.29,-1.28
129.85,2.27,3.59,2.27,3.59,-3.59,-3.52,-3.85,-1.32,-1.32,-1.32
131.15,2.27,3.63,2.27,3.62,-3.63,-3.55,-3.86,-1.36,-1.36,-1.36
132.46,2.27,3.66,2.27,3.66,-3.66,-3.58,-3.86,-1.39,-1.39,-1.39
133.79,2.27,3.70,2.27,3.70,-3.69,-3.61,-3.86,-1.42,-1.42,-1.43
135.12,2.27,3.74,2.27,3.73,-3.73,-3.65,-3.85,-1.46,-1.46,-1.47
136.48,2.27,3.75,2.27,3.76,-3.76,-3.68,-3.85,-1.49,-1.49,-1.48
137.84,2.27,3.78,2.27,3.79,-3.79,-3.72,-3.84,-1.52,-1.52,-1.51
139.22,2.27,3.83,2.27,3.82,-3.82,-3.76,-3.83,-1.55,-1.55,-1.56
140.61,2.27,3.85,2.27,3.86,-3.85,-3.80,-3.82,-1.58,-1.58,-1.58
142.02,2.27,3.88,2.27,3.88,-3.88,-3.84,-3.81,-1.61,-1.61,-1.61
143.44,2.27,3.91,2.27,3.91,-3.90,-3.88,-3.80,-1.63,-1.63,-1.64
144.87,2.27,3.92,2.27,3.93,-3.93,-3.91,-3.79,-1.66,-1.66,-1.65
146.32,2.27,3.95,2.27,3.95,-3.95,-3.95,-3.78,-1.68,-1.68,-1.68
147.78,2.27,3.97,2.27,3.98,-3.98,-3.99,-3.76,-1.71,-1.71,-1.70
149.26,2.27,4.00,2.27,4.00,-4.00,-4.03,-3.75,-1.73,-1.73,-1.73
150.75,2.27,4.03,2.27,4.02,-4.02,-4.06,-3.74,-1.75,-1.75,-1.76
152.26,2.27,4.04,2.27,4.05,-4.05,-4.10,-3.74,-1.78,-1.78,-1.77
153.78,2.27,4.07,2.27,4.07,-4.07,-4.13,-3.73,-1.80,-1.80,-1.80
155.32,2.27,4.09,2.27,4.09,-4.10,-4.17,-3.72,-1.83,-1.83,-1.82
156.88,2.27,4.12,2.27,4.12,-4.12,-4.20,-3.72,-1.85,-1.85,-1.85
158.44,2.27,4.15,2.27,4.15,-4.15,-4.23,-3.72,-1.88,-1.88,-1.88
160.03,2.27,4.17,2.27,4.18,-4.18,-4.26,-3.72,-1.91,-1.91,-1.90
161.63,2.27,4.21,2.27,4.21,-4.21,-4.29,-3.72,-1.94,-1.94,-1.94
163.24,2.27,4.25,2.27,4.24,-4.24,-4.32,-3.72,-1.97,-1.97,-1.98
164.88,2.27,4.28,2.27,4.27,-4.27,-4.35,-3.73,-2.00,-2.00,-2.01
166.53,2.27,4.31,2.27,4.31,-4.30,-4.38,-3.74,-2.03,-2.03,-2.04
168.19,2.27,4.33,2.27,4.34,-4.34,-4.41,-3.75,-2.07,-2.07,-2.06
169.87,2.27,4.37,2.27,4.37,-4.37,-4.44,-3.77,-2.10,-2.10,-2.10
171.57,2.27,4.40,2.27,4.40,-4.40,-4.46,-3.79,-2.13,-2.13,-2.13
173.29,2.27,4.43,2.27,4.44,-4.43,-4.49,-3.81,-2.16,-2.16,-2.16
175.02,2.27,4.47,2.27,4.47,-4.47,-4.52,-3.83,-2.20,-2.20,-2.20
176.77,2.27,4.50,2.27,4.50,-4.50,-4.55,-3.86,-2.23,-2.23,-2.23
178.54,2.27,4.53,2.27,4.53,-4.53,-4.57,-3.89,-2.26,-2.26,-2.26
180.32,2.27,4.57,2.27,4.57,-4.57,-4.60,-3.92,-2.30,-2.30,-2.30
182.13,2.27,4.60,2.27,4.60,-4.60,-4.63,-3.96,-2.33,-2.33,-2.33
183.95,2.27,4.64,2.27,4.64,-4.64,-4.65,-4.00,-2.37,-2.37,-2.37
185.79,2.27,4.68,2.27,4.67,-4.68,-4.68,-4.04,-2.41,-2.41,-2.41
187.65,2.27,4.71,2.27,4.71,-4.72,-4.71,-4.08,-2.45,-2.45,-2.44
189.52,2.27,4.75,2.27,4.75,-4.75,-4.73,-4.13,-2.48,-2.48,-2.48
191.42,2.28,4.79,2.28,4.79,-4.79,-4.76,-4.18,-2.51,-2.51,-2.51
193.33,2.29,4.83,2.29,4.83,-4.83,-4.78,-4.23,-2.54,-2.54,-2.54
195.27,2.29,4.86,2.29,4.86,-4.86,-4.81,-4.29,-2.57,-2.57,-2.57
197.22,2.29,4.90,2.29,4.90,-4.89,-4.83,-4.34,-2.60,-2.60,-2.61
199.19,2.28,4.91,2.28,4.92,-4.91,-4.85,-4.40,-2.63,-2.63,-2.63
201.18,2.27,4.94,2.27,4.93,-4.92,-4.87,-4.46,-2.65,-2.65,-2.67
203.19,2.25,4.93,2.25,4.93,-4.93,-4.89,-4.52,-2.68,-2.68,-2.68
205.23,2.23,4.94,2.23,4.93,-4.93,-4.91,-4.59,-2.70,-2.71,-2.71
207.28,2.20,4.92,2.20,4.93,-4.93,-4.92,-4.65,-2.73,-2.73,-2.72
209.35,2.17,4.93,2.17,4.93,-4.93,-4.93,-4.71,-2.76,-2.76,-2.76
211.44,2.14,4.92,2.14,4.92,-4.92,-4.93,-4.78,-2.78,-2.78,-2.78
213.56,2.11,4.91,2.11,4.91,-4.91,-4.93,-4.84,-2.80,-2.80,-2.80
215.69,2.08,4.90,2.08,4.90,-4.91,-4.93,-4.91,-2.83,-2.83,-2.82
217.85,2.06,4.90,2.06,4.90,-4.90,-4.93,-4.97,-2.84,-2.85,-2.84
220.03,2.03,4.89,2.03,4.90,-4.90,-4.92,-5.03,-2.87,-2.86,-2.86
222.23,2.01,4.90,2.01,4.90,-4.89,-4.91,-5.09,-2.88,-2.88,-2.89
224.45,1.99,4.90,1.99,4.89,-4.89,-4.89,-5.15,-2.90,-2.90,-2.91
226.70,1.97,4.89,1.97,4.89,-4.88,-4.88,-5.20,-2.91,-2.92,-2.92
228.96,1.94,4.87,1.94,4.88,-4.88,-4.86,-5.25,-2.94,-2.94,-2.93
231.25,1.92,4.87,1.92,4.87,-4.87,-4.84,-5.29,-2.95,-2.95,-2.95
233.57,1.90,4.86,1.90,4.86,-4.86,-4.82,-5.34,-2.96,-2.96,-2.96
235.90,1.88,4.86,1.88,4.86,-4.85,-4.80,-5.37,-2.97,-2.97,-2.98
238.26,1.86,4.85,1.86,4.84,-4.84,-4.78,-5.40,-2.98,-2.98,-2.99
240.64,1.84,4.82,1.84,4.82,-4.82,-4.76,-5.43,-2.98,-2.98,-2.98
243.05,1.81,4.80,1.81,4.80,-4.80,-4.74,-5.45,-2.99,-2.99,-2.99
245.48,1.78,4.78,1.78,4.78,-4.78,-4.72,-5.46,-3.00,-2.99,-3.00
247.93,1.75,4.76,1.75,4.75,-4.75,-4.71,-5.46,-3.00,-3.00,-3.01
250.41,1.72,4.72,1.72,4.72,-4.73,-4.69,-5.46,-3.01,-3.01,-3.00
252.92,1.69,4.69,1.69,4.69,-4.71,-4.67,-5.45,-3.02,-3.01,-3.00
255.45,1.67,4.68,1.67,4.68,-4.69,-4.65,-5.44,-3.02,-3.01,-3.01
258.00,1.66,4.66,1.66,4.66,-4.67,-4.63,-5.42,-3.01,-3.01,-3.00
260.58,1.65,4.66,1.65,4.65,-4.65,-4.62,-5.39,-3.00,-3.00,-3.01
263.19,1.63,4.64,1.63,4.64,-4.64,-4.60,-5.36,-3.01,-3.01,-3.01
265.82,1.61,4.62,1.61,4.62,-4.62,-4.58,-5.32,-3.01,-3.01,-3.01
268.48,1.60,4.61,1.60,4.61,-4.61,-4.57,-5.27,-3.01,-3.01,-3.01
271.16,1.58,4.59,1.58,4.59,-4.60,-4.55,-5.22,-3.02,-3.01,-3.01
273.87,1.57,4.58,1.57,4.58,-4.58,-4.53,-5.17,-3.01,-3.01,-3.01
276.61,1.55,4.57,1.55,4.57,-4.56,-4.52,-5.11,-3.01,-3.01,-3.02
279.38,1.52,4.55,1.52,4.54,-4.53,-4.50,-5.05,-3.01,-3.01,-3.03
282.17,1.49,4.51,1.49,4.51,-4.51,-4.48,-4.99,-3.02,-3.01,-3.02
284.99,1.46,4.47,1.46,4.47,-4.47,-4.47,-4.92,-3.01,-3.01,-3.01
287.84,1.43,4.44,1.43,4.44,-4.44,-4.45,-4.85,-3.01,-3.01,-3.01
290.72,1.40,4.42,1.40,4.41,-4.41,-4.43,-4.78,-3.01,-3.01,-3.02
293.63,1.37,4.38,1.37,4.38,-4.38,-4.42,-4.71,-3.01,-3.01,-3.01
296.57,1.34,4.34,1.34,4.35,-4.35,-4.40,-4.64,-3.01,-3.01,-3.00
299.53,1.32,4.32,1.32,4.32,-4.33,-4.38,-4.56,-3.01,-3.01,-3.00
302.53,1.31,4.31,1.31,4.30,-4.31,-4.37,-4.49,-3.00,-3.01,-3.00
305.55,1.30,4.29,1.30,4.29,-4.30,-4.35,-4.42,-3.00,-3.00,-2.99
308.61,1.30,4.28,1.30,4.28,-4.29,-4.33,-4.35,-2.99,-2.99,-2.98
311.69,1.30,4.28,1.30,4.27,-4.27,-4.31,-4.28,-2.97,-2.98,-2.98
314.81,1.29,4.26,1.29,4.27,-4.26,-4.30,-4.21,-2.97,-2.97,-2.97
317.96,1.29,4.25,1.29,4.26,-4.25,-4.28,-4.14,-2.96,-2.96,-2.96
321.14,1.28,4.24,1.28,4.24,-4.23,-4.26,-4.08,-2.95,-2.95,-2.96
324.35,1.26,4.22,1.26,4.21,-4.21,-4.24,-4.02,-2.95,-2.94,-2.96
327.59,1.24,4.17,1.24,4.18,-4.18,-4.22,-3.95,-2.94,-2.94,-2.93
330.87,1.21,4.15,1.21,4.15,-4.15,-4.20,-3.90,-2.94,-2.93,-2.94
334.18,1.18,4.12,1.18,4.11,-4.11,-4.18,-3.84,-2.93,-2.93,-2.94
337.52,1.15,4.07,1.15,4.07,-4.07,-4.16,-3.79,-2.92,-2.92,-2.92
340.90,1.11,4.02,1.11,4.03,-4.03,-4.14,-3.74,-2.92,-2.92,-2.91
344.30,1.08,3.99,1.08,3.99,-3.99,-4.12,-3.69,-2.91,-2.91,-2.91
347.75,1.05,3.95,1.05,3.95,-3.95,-4.10,-3.64,-2.90,-2.90,-2.90
351.23,1.03,3.92,1.03,3.91,-3.92,-4.08,-3.60,-2.89,-2.89,-2.89
354.74,1.00,3.87,1.00,3.88,-3.89,-4.06,-3.56,-2.89,-2.88,-2.87
358.28,0.98,3.86,0.98,3.86,-3.86,-4.04,-3.52,-2.88,-2.88,-2.88
361.87,0.97,3.85,0.97,3.84,-3.85,-4.02,-3.49,-2.88,-2.88,-2.88
365.49,0.96,3.82,0.96,3.82,-3.83,-4.00,-3.46,-2.87,-2.87,-2.86
369.14,0.96,3.81,0.96,3.82,-3.83,-3.97,-3.43,-2.87,-2.86,-2.85
372.83,0.97,3.81,0.97,3.82,-3.82,-3.95,-3.40,-2.85,-2.85,-2.84
376.56,0.98,3.83,0.98,3.82,-3.82,-3.93,-3.37,-2.84,-2.84,-2.85
380.33,0.99,3.83,0.99,3.82,-3.81,-3.91,-3.35,-2.82,-2.82,-2.84
384.13,0.98,3.81,0.98,3.81,-3.79,-3.88,-3.33,-2.81,-2.81,-2.83
387.97,0.97,3.79,0.97,3.79,-3.78,-3.86,-3.32,-2.81,-2.81,-2.82
391.85,0.95,3.75,0.95,3.76,-3.75,-3.84,-3.30,-2.80,-2.81,-2.80
395.77,0.92,3.72,0.92,3.72,-3.72,-3.81,-3.29,-2.80,-2.80,-2.80
399.73,0.89,3.68,0.90,3.68,-3.69,-3.79,-3.28,-2.80,-2.79,-2.79
403.72,0.87,3.65,0.87,3.65,-3.65,-3.76,-3.27,-2.78,-2.78,-2.78
407.76,0.84,3.61,0.84,3.60,-3.61,-3.74,-3.26,-2.77,-2.77,-2.77
411.84,0.80,3.56,0.80,3.56,-3.56,-3.72,-3.26,-2.76,-2.76,-2.76
415.96,0.77,3.52,0.77,3.52,-3.52,-3.69,-3.25,-2.75,-2.75,-2.75
420.12,0.74,3.49,0.74,3.49,-3.49,-3.67,-3.25,-2.75,-2.74,-2.75
424.32,0.72,3.46,0.72,3.45,-3.45,-3.64,-3.25,-2.73,-2.73,-2.74
428.56,0.69,3.41,0.69,3.42,-3.42,-3.61,-3.25,-2.73,-2.73,-2.72
432.85,0.67,3.37,0.67,3.38,-3.39,-3.59,-3.25,-2.72,-2.72,-2.70
437.18,0.65,3.36,0.65,3.36,-3.37,-3.56,-3.25,-2.72,-2.71,-2.71
441.55,0.64,3.35,0.64,3.34,-3.35,-3.54,-3.25,-2.71,-2.71,-2.71
445.96,0.63,3.33,0.63,3.33,-3.33,-3.51,-3.25,-2.70,-2.70,-2.70
450.42,0.63,3.32,0.63,3.32,-3.32,-3.48,-3.25,-2.69,-2.69,-2.69
454.93,0.63,3.31,0.63,3.31,-3.31,-3.46,-3.25,-2.68,-2.68,-2.68
459.48,0.64,3.31,0.64,3.30,-3.31,-3.43,-3.25,-2.67,-2.67,-2.67
464.07,0.64,3.29,0.64,3.30,-3.30,-3.40,-3.25,-2.66,-2.66,-2.65
468.71,0.65,3.30,0.65,3.30,-3.30,-3.38,-3.24,-2.65,-2.65,-2.65
473.40,0.66,3.30,0.66,3.30,-3.30,-3.35,-3.24,-2.64,-2.64,-2.64
478.13,0.67,3.30,0.67,3.30,-3.30,-3.32,-3.23,-2.63,-2.63,-2.63
482.91,0.67,3.29,0.67,3.29,-3.29,-3.29,-3.22,-2.62,-2.62,-2.62
487.74,0.67,3.28,0.67,3.28,-3.28,-3.26,-3.22,-2.61,-2.61,-2.61
492.62,0.66,3.26,0.66,3.27,-3.26,-3.24,-3.20,-2.60,-2.60,-2.60
497.55,0.65,3.25,0.65,3.24,-3.24,-3.21,-3.19,-2.59,-2.59,-2.60
502.52,0.63,3.22,0.63,3.21,-3.21,-3.18,-3.18,-2.58,-2.58,-2.59
507.55,0.61,3.18,0.61,3.18,-3.17,-3.15,-3.16,-2.56,-2.57,-2.57
