frequency,raw,error,smoothed,error_smoothed,equalization,parametric_eq,fixed_band_eq,equalized_raw,equalized_smoothed,target
20.00,2.28,-4.26,2.28,-4.26,4.27,3.91,1.69,6.55,6.55,6.54
20.20,2.30,-4.23,2.30,-4.22,4.23,3.91,1.74,6.52,6.52,6.53
20.40,2.32,-4.19,2.32,-4.18,4.18,3.91,1.79,6.50,6.50,6.51
20.61,2.35,-4.15,2.35,-4.15,4.14,3.91,1.84,6.49,6.49,6.50
20.81,2.37,-4.11,2.37,-4.11,4.10,3.90,1.89,6.47,6.47,6.48
21.02,2.39,-4.08,2.39,-4.08,4.07,3.90,1.95,6.46,6.46,6.46
21.23,2.41,-4.05,2.41,-4.04,4.04,3.90,2.01,6.45,6.45,6.45
21.44,2.43,-4.01,2.43,-4.01,4.01,3.90,2.07,6.44,6.44,6.44
21.66,2.45,-3.98,2.45,-3.98,3.98,3.89,2.13,6.43,6.43,6.42
21.87,2.47,-3.95,2.47,-3.95,3.96,3.89,2.19,6.43,6.43,6.42
22.09,2.48,-3.93,2.48,-3.93,3.94,3.89,2.26,6.42,6.42,6.41
22.31,2.48,-3.92,2.48,-3.92,3.92,3.88,2.32,6.40,6.40,6.40
22.54,2.48,-3.91,2.48,-3.91,3.91,3.88,2.39,6.39,6.39,6.39
22.76,2.48,-3.90,2.48,-3.90,3.90,3.88,2.46,6.38,6.38,6.38
22.99,2.48,-3.90,2.48,-3.90,3.90,3.87,2.53,6.37,6.37,6.38
23.22,2.48,-3.89,2.48,-3.89,3.89,3.87,2.60,6.37,6.37,6.37
23.45,2.48,-3.89,2.48,-3.89,3.89,3.87,2.68,6.37,6.37,6.37
23.69,2.48,-3.89,2.48,-3.89,3.89,3.86,2.75,6.37,6.37,6.37
23.92,2.48,-3.89,2.48,-3.89,3.89,3.86,2.83,6.37,6.37,6.37
24.16,2.48,-3.89,2.48,-3.89,3.89,3.86,2.91,6.37,6.37,6.37
24.40,2.48,-3.89,2.48,-3.89,3.89,3.85,2.99,6.36,6.36,6.36
24.65,2.48,-3.89,2.48,-3.89,3.89,3.85,3.07,6.36,6.36,6.36
24.89,2.48,-3.88,2.48,-3.89,3.88,3.85,3.15,6.36,6.36,6.36
25.14,2.48,-3.88,2.48,-3.88,3.88,3.84,3.24,6.36,6.36,6.36
25.39,2.48,-3.88,2.48,-3.88,3.88,3.84,3.32,6.36,6.36,6.36
25.65,2.48,-3.87,2.48,-3.87,3.87,3.83,3.40,6.35,6.35,6.35
25.91,2.48,-3.87,2.48,-3.87,3.87,3.83,3.49,6.35,6.35,6.35
26.16,2.48,-3.86,2.48,-3.86,3.86,3.82,3.57,6.34,6.34,6.34
26.43,2.48,-3.86,2.48,-3.85,3.85,3.82,3.65,6.33,6.33,6.34
26.69,2.48,-3.85,2.48,-3.85,3.85,3.82,3.73,6.33,6.33,6.33
26.96,2.48,-3.84,2.48,-3.84,3.84,3.81,3.82,6.32,6.32,6.31
27.23,2.48,-3.83,2.48,-3.83,3.83,3.81,3.89,6.31,6.31,6.31
27.50,2.48,-3.82,2.48,-3.82,3.82,3.80,3.97,6.30,6.30,6.30
27.77,2.48,-3.81,2.48,-3.81,3.81,3.80,4.04,6.29,6.29,6.29
28.05,2.48,-3.80,2.48,-3.80,3.81,3.79,4.12,6.28,6.28,6.28
28.33,2.48,-3.80,2.48,-3.80,3.80,3.79,4.18,6.28,6.28,6.28
28.62,2.48,-3.80,2.48,-3.79,3.80,3.78,4.25,6.27,6.27,6.28
28.90,2.48,-3.79,2.48,-3.79,3.79,3.78,4.31,6.27,6.27,6.26
29.19,2.48,-3.79,2.48,-3.79,3.79,3.77,4.36,6.27,6.27,6.27
29.48,2.48,-3.79,2.48,-3.79,3.79,3.76,4.41,6.27,6.27,6.27
29.78,2.48,-3.79,2.48,-3.79,3.79,3.76,4.46,6.27,6.27,6.27
30.08,2.48,-3.79,2.48,-3.79,3.79,3.75,4.49,6.27,6.27,6.27
30.38,2.48,-3.79,2.48,-3.79,3.79,3.75,4.53,6.27,6.26,6.26
30.68,2.48,-3.78,2.48,-3.79,3.78,3.74,4.55,6.26,6.25,6.26
30.99,2.48,-3.78,2.49,-3.77,3.76,3.73,4.57,6.24,6.25,6.26
31.30,2.51,-3.75,2.51,-3.75,3.74,3.73,4.58,6.25,6.24,6.26
31.61,2.54,-3.72,2.53,-3.72,3.71,3.72,4.59,6.25,6.24,6.26
31.93,2.57,-3.69,2.57,-3.68,3.68,3.71,4.59,6.25,6.25,6.25
32.24,2.60,-3.64,2.60,-3.64,3.65,3.71,4.58,6.25,6.25,6.24
32.57,2.64,-3.60,2.64,-3.60,3.62,3.70,4.57,6.26,6.25,6.24
32.89,2.67,-3.57,2.66,-3.57,3.59,3.69,4.55,6.26,6.25,6.24
33.22,2.68,-3.56,2.68,-3.56,3.57,3.69,4.52,6.25,6.24,6.23
33.55,2.68,-3.55,2.68,-3.55,3.55,3.68,4.50,6.23,6.23,6.23
33.89,2.68,-3.54,2.68,-3.54,3.54,3.67,4.46,6.22,6.22,6.22
34.23,2.68,-3.54,2.68,-3.54,3.53,3.66,4.42,6.21,6.21,6.22
34.57,2.68,-3.53,2.68,-3.53,3.53,3.66,4.38,6.21,6.21,6.21
34.92,2.68,-3.53,2.68,-3.53,3.53,3.65,4.33,6.20,6.20,6.21
35.27,2.68,-3.53,2.68,-3.53,3.52,3.64,4.28,6.20,6.20,6.21
35.62,2.68,-3.52,2.68,-3.52,3.52,3.63,4.23,6.20,6.20,6.20
35.97,2.68,-3.51,2.68,-3.51,3.51,3.62,4.18,6.19,6.19,6.19
36.33,2.68,-3.51,2.68,-3.51,3.51,3.61,4.12,6.19,6.19,6.18
36.70,2.68,-3.50,2.68,-3.50,3.50,3.60,4.06,6.18,6.18,6.18
37.06,2.68,-3.50,2.68,-3.50,3.49,3.59,4.00,6.17,6.17,6.18
37.43,2.68,-3.48,2.68,-3.49,3.48,3.58,3.95,6.16,6.16,6.16
37.81,2.68,-3.48,2.68,-3.48,3.47,3.58,3.89,6.15,6.15,6.16
38.19,2.68,-3.47,2.68,-3.46,3.46,3.57,3.83,6.14,6.14,6.14
38.57,2.68,-3.45,2.68,-3.45,3.45,3.55,3.77,6.13,6.13,6.13
38.95,2.68,-3.44,2.68,-3.44,3.44,3.54,3.72,6.12,6.12,6.11
39.34,2.68,-3.43,2.68,-3.43,3.43,3.53,3.66,6.10,6.10,6.11
39.74,2.68,-3.42,2.68,-3.41,3.41,3.52,3.61,6.09,6.09,6.09
40.14,2.68,-3.40,2.68,-3.40,3.40,3.51,3.55,6.08,6.08,6.08
40.54,2.68,-3.38,2.68,-3.39,3.39,3.50,3.50,6.07,6.07,6.06
40.94,2.68,-3.38,2.68,-3.38,3.38,3.49,3.46,6.06,6.06,6.06
41.35,2.68,-3.37,2.68,-3.37,3.37,3.48,3.41,6.05,6.05,6.05
41.76,2.68,-3.37,2.68,-3.37,3.36,3.46,3.36,6.04,6.04,6.04
42.18,2.68,-3.36,2.68,-3.36,3.36,3.45,3.32,6.04,6.04,6.04
42.60,2.68,-3.35,2.68,-3.35,3.35,3.44,3.28,6.03,6.03,6.03
43.03,2.68,-3.35,2.68,-3.35,3.35,3.43,3.24,6.03,6.03,6.02
43.46,2.68,-3.34,2.68,-3.34,3.34,3.41,3.21,6.02,6.02,6.02
43.90,2.68,-3.34,2.68,-3.34,3.34,3.40,3.18,6.02,6.02,6.02
44.33,2.68,-3.33,2.68,-3.33,3.33,3.38,3.15,6.01,6.01,6.01
44.78,2.68,-3.33,2.68,-3.33,3.32,3.37,3.12,6.00,6.00,6.00
45.23,2.68,-3.32,2.68,-3.32,3.32,3.36,3.09,6.00,6.00,6.00
45.68,2.68,-3.31,2.68,-3.31,3.31,3.34,3.07,5.99,5.99,5.99
46.13,2.68,-3.30,2.68,-3.30,3.30,3.32,3.05,5.98,5.98,5.98
46.60,2.68,-3.29,2.68,-3.29,3.29,3.31,3.03,5.97,5.97,5.97
47.06,2.68,-3.28,2.68,-3.28,3.28,3.29,3.02,5.96,5.96,5.96
47.53,2.68,-3.27,2.68,-3.27,3.26,3.28,3.01,5.94,5.94,5.95
48.01,2.68,-3.25,2.68,-3.25,3.25,3.26,2.99,5.93,5.93,5.93
48.49,2.68,-3.24,2.68,-3.24,3.24,3.24,2.98,5.92,5.92,5.92
48.97,2.68,-3.22,2.68,-3.22,3.23,3.22,2.98,5.90,5.90,5.90
49.46,2.68,-3.21,2.68,-3.21,3.21,3.21,2.97,5.89,5.89,5.89
49.96,2.68,-3.20,2.68,-3.20,3.20,3.19,2.97,5.88,5.88,5.87
50.46,2.68,-3.18,2.68,-3.19,3.19,3.17,2.97,5.87,5.87,5.86
50.96,2.68,-3.18,2.68,-3.18,3.17,3.15,2.97,5.85,5.85,5.86
51.47,2.68,-3.17,2.68,-3.17,3.16,3.13,2.97,5.84,5.84,5.85
51.99,2.68,-3.15,2.68,-3.15,3.15,3.11,2.97,5.83,5.83,5.83
52.51,2.68,-3.13,2.68,-3.13,3.14,3.09,2.97,5.82,5.82,5.81
53.03,2.68,-3.12,2.68,-3.12,3.13,3.07,2.97,5.81,5.81,5.79
53.56,2.68,-3.10,2.68,-3.10,3.11,3.04,2.97,5.79,5.79,5.78
54.10,2.68,-3.09,2.68,-3.09,3.09,3.02,2.98,5.77,5.77,5.76
54.64,2.68,-3.07,2.67,-3.07,3.06,3.00,2.98,5.74,5.74,5.75
55.18,2.68,-3.05,2.67,-3.06,3.03,2.98,2.98,5.71,5.70,5.73
55.74,2.68,-3.04,2.69,-3.02,2.99,2.95,2.98,5.66,5.68,5.71
56.29,2.72,-2.98,2.73,-2.96,2.94,2.93,2.98,5.66,5.67,5.70
56.86,2.81,-2.87,2.79,-2.88,2.89,2.90,2.98,5.70,5.68,5.68
57.42,2.86,-2.80,2.85,-2.81,2.84,2.88,2.98,5.70,5.69,5.66
58.00,2.89,-2.75,2.88,-2.76,2.79,2.85,2.97,5.68,5.68,5.64
58.58,2.89,-2.73,2.89,-2.73,2.75,2.82,2.96,5.64,5.64,5.62
59.16,2.89,-2.71,2.89,-2.71,2.71,2.80,2.95,5.60,5.60,5.60
59.76,2.89,-2.69,2.89,-2.69,2.68,2.77,2.94,5.57,5.57,5.58
60.35,2.89,-2.67,2.89,-2.67,2.66,2.74,2.92,5.55,5.55,5.56
60.96,2.89,-2.66,2.89,-2.65,2.64,2.71,2.91,5.53,5.53,5.54
61.57,2.89,-2.63,2.89,-2.63,2.63,2.68,2.88,5.51,5.51,5.52
62.18,2.89,-2.61,2.89,-2.61,2.60,2.65,2.86,5.49,5.49,5.50
62.80,2.89,-2.58,2.89,-2.58,2.58,2.62,2.83,5.47,5.47,5.46
63.43,2.89,-2.55,2.89,-2.55,2.55,2.59,2.80,5.44,5.44,5.44
64.07,2.89,-2.51,2.89,-2.52,2.52,2.56,2.77,5.41,5.41,5.40
64.71,2.89,-2.49,2.89,-2.49,2.49,2.52,2.73,5.37,5.37,5.38
65.35,2.89,-2.45,2.89,-2.45,2.45,2.49,2.69,5.34,5.34,5.34
66.01,2.89,-2.42,2.89,-2.42,2.42,2.45,2.64,5.31,5.31,5.31
66.67,2.89,-2.38,2.89,-2.38,2.39,2.42,2.59,5.27,5.27,5.27
67.33,2.89,-2.35,2.89,-2.35,2.35,2.38,2.54,5.24,5.24,5.24
68.01,2.89,-2.31,2.89,-2.31,2.32,2.35,2.49,5.20,5.20,5.20
68.69,2.89,-2.28,2.89,-2.28,2.28,2.31,2.44,5.17,5.17,5.17
69.37,2.89,-2.24,2.89,-2.24,2.24,2.27,2.38,5.13,5.13,5.13
70.07,2.89,-2.21,2.89,-2.20,2.20,2.23,2.32,5.09,5.09,5.10
70.77,2.89,-2.16,2.89,-2.17,2.17,2.19,2.26,5.05,5.05,5.05
71.48,2.89,-2.13,2.89,-2.13,2.13,2.15,2.19,5.02,5.02,5.02
72.19,2.89,-2.08,2.89,-2.09,2.09,2.11,2.13,4.98,4.98,4.97
72.91,2.89,-2.05,2.89,-2.05,2.05,2.07,2.06,4.94,4.94,4.94
73.64,2.89,-2.01,2.89,-2.01,2.01,2.03,2.00,4.90,4.90,4.90
74.38,2.89,-1.97,2.89,-1.97,1.97,1.98,1.93,4.86,4.86,4.86
75.12,2.89,-1.93,2.89,-1.93,1.93,1.94,1.86,4.82,4.82,4.82
75.87,2.89,-1.88,2.89,-1.89,1.89,1.90,1.79,4.78,4.78,4.77
76.63,2.89,-1.84,2.89,-1.85,1.85,1.85,1.73,4.74,4.74,4.73
77.40,2.89,-1.80,2.89,-1.80,1.80,1.80,1.66,4.69,4.69,4.69
78.17,2.89,-1.76,2.89,-1.76,1.76,1.76,1.59,4.65,4.65,4.65
78.95,2.89,-1.72,2.89,-1.72,1.72,1.71,1.52,4.61,4.61,4.61
79.74,2.89,-1.68,2.89,-1.68,1.68,1.66,1.45,4.57,4.57,4.56
80.54,2.89,-1.63,2.89,-1.63,1.63,1.61,1.38,4.52,4.52,4.52
81.35,2.89,-1.59,2.89,-1.59,1.59,1.56,1.32,4.48,4.48,4.48
82.16,2.89,-1.54,2.88,-1.54,1.54,1.51,1.25,4.43,4.42,4.43
82.98,2.88,-1.50,2.88,-1.50,1.49,1.46,1.18,4.37,4.37,4.37
83.81,2.88,-1.45,2.88,-1.44,1.44,1.41,1.12,4.32,4.32,4.33
84.65,2.89,-1.39,2.88,-1.39,1.39,1.36,1.05,4.28,4.27,4.28
85.50,2.89,-1.33,2.89,-1.34,1.34,1.30,0.99,4.23,4.22,4.22
86.35,2.89,-1.28,2.89,-1.28,1.28,1.25,0.92,4.17,4.17,4.17
87.22,2.89,-1.22,2.89,-1.23,1.23,1.19,0.86,4.11,4.11,4.11
88.09,2.89,-1.17,2.89,-1.17,1.17,1.14,0.80,4.06,4.06,4.06
88.97,2.89,-1.11,2.89,-1.11,1.11,1.08,0.73,4.00,4.00,4.00
89.86,2.89,-1.05,2.89,-1.05,1.05,1.03,0.67,3.94,3.94,3.94
90.76,2.89,-1.00,2.89,-0.99,0.99,0.97,0.61,3.88,3.88,3.89
91.66,2.89,-0.93,2.89,-0.93,0.93,0.91,0.55,3.82,3.82,3.82
92.58,2.89,-0.87,2.89,-0.87,0.87,0.86,0.49,3.76,3.76,3.76
93.51,2.89,-0.81,2.89,-0.81,0.81,0.80,0.43,3.70,3.70,3.70
94.44,2.89,-0.74,2.89,-0.74,0.74,0.74,0.37,3.63,3.63,3.63
95.39,2.89,-0.68,2.89,-0.68,0.68,0.68,0.31,3.57,3.57,3.57
96.34,2.89,-0.62,2.89,-0.62,0.62,0.62,0.25,3.51,3.50,3.50
97.30,2.88,-0.55,2.88,-0.55,0.56,0.56,0.20,3.43,3.44,3.43
98.28,2.87,-0.49,2.87,-0.49,0.49,0.50,0.14,3.36,3.36,3.36
99.26,2.86,-0.43,2.85,-0.43,0.43,0.44,0.08,3.29,3.29,3.29
100.25,2.84,-0.37,2.84,-0.37,0.37,0.38,0.03,3.21,3.21,3.21
101.25,2.82,-0.32,2.82,-0.31,0.31,0.32,-0.03,3.13,3.13,3.14
102.27,2.81,-0.25,2.81,-0.25,0.25,0.26,-0.08,3.06,3.06,3.06
103.29,2.80,-0.18,2.79,-0.19,0.19,0.20,-0.13,2.99,2.98,2.98
104.32,2.78,-0.13,2.78,-0.13,0.13,0.14,-0.19,2.91,2.91,2.91
105.37,2.75,-0.07,2.75,-0.07,0.07,0.08,-0.24,2.82,2.83,2.82
106.42,2.73,-0.02,2.73,-0.02,0.02,0.02,-0.29,2.75,2.75,2.74
107.48,2.71,0.04,2.70,0.04,-0.03,-0.04,-0.34,2.67,2.67,2.67
108.56,2.68,0.09,2.68,0.09,-0.09,-0.10,-0.39,2.59,2.59,2.59
109.64,2.66,0.14,2.66,0.14,-0.14,-0.16,-0.44,2.52,2.52,2.52
110.74,2.64,0.19,2.64,0.19,-0.20,-0.22,-0.49,2.44,2.44,2.45
111.85,2.62,0.24,2.62,0.24,-0.25,-0.28,-0.54,2.37,2.37,2.37
112.97,2.61,0.30,2.61,0.30,-0.31,-0.34,-0.58,2.30,2.30,2.31
114.10,2.61,0.37,2.61,0.37,-0.37,-0.40,-0.63,2.24,2.24,2.24
115.24,2.61,0.43,2.61,0.43,-0.43,-0.46,-0.67,2.18,2.18,2.18
116.39,2.61,0.49,2.61,0.49,-0.49,-0.52,-0.71,2.12,2.12,2.11
117.55,2.61,0.55,2.61,0.55,-0.56,-0.58,-0.76,2.05,2.05,2.06
118.73,2.62,0.62,2.61,0.62,-0.62,-0.64,-0.80,2.00,2.00,2.00
119.92,2.62,0.68,2.62,0.68,-0.67,-0.70,-0.83,1.94,1.95,1.94
121.12,2.63,0.75,2.64,0.75,-0.73,-0.76,-0.87,1.90,1.90,1.88
122.33,2.64,0.81,2.63,0.80,-0.79,-0.82,-0.91,1.85,1.84,1.83
123.55,2.65,0.86,2.62,0.84,-0.85,-0.87,-0.94,1.80,1.77,1.79
124.79,2.58,0.84,2.62,0.89,-0.91,-0.93,-0.98,1.67,1.71,1.73
126.03,2.63,0.95,2.63,0.94,-0.97,-0.99,-1.01,1.66,1.66,1.67
127.29,2.66,1.02,2.64,1.01,-1.01,-1.04,-1.04,1.65,1.63,1.63
128.57,2.67,1.08,2.68,1.09,-1.06,-1.10,-1.07,1.61,1.62,1.58
129.85,2.68,1.14,2.68,1.14,-1.10,-1.15,-1.10,1.58,1.58,1.54
131.15,2.68,1.19,2.66,1.17,-1.15,-1.21,-1.12,1.53,1.51,1.49
132.46,2.62,1.18,2.63,1.19,-1.20,-1.26,-1.15,1.42,1.43,1.44
133.79,2.59,1.20,2.60,1.21,-1.25,-1.31,-1.18,1.34,1.35,1.38
135.12,2.60,1.26,2.60,1.26,-1.31,-1.36,-1.20,1.29,1.29,1.34
136.48,2.62,1.33,2.63,1.34,-1.36,-1.41,-1.22,1.26,1.27,1.29
137.84,2.69,1.45,2.67,1.43,-1.42,-1.47,-1.25,1.27,1.25,1.24
139.22,2.71,1.51,2.70,1.51,-1.48,-1.52,-1.27,1.23,1.22,1.20
140.61,2.71,1.57,2.71,1.57,-1.54,-1.56,-1.29,1.16,1.17,1.14
142.02,2.71,1.62,2.71,1.62,-1.61,-1.61,-1.31,1.10,1.10,1.09
143.44,2.71,1.67,2.71,1.66,-1.67,-1.66,-1.34,1.04,1.04,1.04
144.87,2.71,1.71,2.71,1.71,-1.72,-1.71,-1.36,0.98,0.98,1.00
146.32,2.71,1.76,2.71,1.76,-1.77,-1.75,-1.38,0.94,0.94,0.95
147.78,2.71,1.82,2.71,1.81,-1.82,-1.80,-1.40,0.89,0.89,0.89
149.26,2.71,1.87,2.71,1.87,-1.86,-1.84,-1.43,0.85,0.85,0.84
150.75,2.71,1.91,2.71,1.91,-1.91,-1.89,-1.45,0.80,0.80,0.80
152.26,2.71,1.96,2.71,1.96,-1.95,-1.93,-1.47,0.75,0.75,0.75
153.78,2.71,1.99,2.71,2.00,-2.00,-1.97,-1.50,0.71,0.71,0.71
155.32,2.71,2.04,2.71,2.04,-2.04,-2.01,-1.52,0.67,0.67,0.67
156.88,2.71,2.08,2.71,2.08,-2.08,-2.06,-1.55,0.63,0.63,0.63
158.44,2.71,2.12,2.71,2.12,-2.12,-2.10,-1.58,0.59,0.59,0.59
160.03,2.71,2.16,2.71,2.16,-2.16,-2.14,-1.61,0.55,0.55,0.55
161.63,2.71,2.20,2.71,2.20,-2.20,-2.17,-1.64,0.51,0.51,0.51
163.24,2.71,2.24,2.71,2.24,-2.24,-2.21,-1.67,0.47,0.47,0.47
164.88,2.70,2.27,2.70,2.27,-2.27,-2.25,-1.70,0.43,0.43,0.43
166.53,2.70,2.31,2.70,2.31,-2.31,-2.28,-1.73,0.39,0.39,0.39
168.19,2.69,2.34,2.69,2.34,-2.34,-2.32,-1.77,0.35,0.35,0.35
169.87,2.69,2.38,2.69,2.37,-2.37,-2.35,-1.80,0.32,0.31,0.31
171.57,2.68,2.40,2.68,2.40,-2.40,-2.39,-1.84,0.28,0.28,0.28
173.29,2.67,2.43,2.67,2.43,-2.43,-2.42,-1.88,0.24,0.24,0.24
175.02,2.67,2.46,2.66,2.46,-2.46,-2.45,-1.92,0.21,0.21,0.20
176.77,2.66,2.48,2.66,2.49,-2.49,-2.48,-1.96,0.17,0.17,0.18
178.54,2.66,2.51,2.66,2.51,-2.52,-2.51,-2.01,0.14,0.15,0.15
180.32,2.67,2.55,2.66,2.54,-2.54,-2.54,-2.05,0.12,0.12,0.12
182.13,2.67,2.57,2.67,2.57,-2.57,-2.57,-2.10,0.09,0.10,0.10
183.95,2.68,2.60,2.68,2.60,-2.61,-2.60,-2.15,0.07,0.07,0.08
185.79,2.69,2.64,2.69,2.64,-2.64,-2.63,-2.20,0.05,0.05,0.05
187.65,2.71,2.67,2.70,2.67,-2.67,-2.66,-2.25,0.04,0.03,0.04
189.52,2.72,2.70,2.72,2.70,-2.70,-2.68,-2.30,0.01,0.01,0.02
191.42,2.73,2.73,2.73,2.74,-2.74,-2.71,-2.35,-0.01,-0.00,-0.00
193.33,2.75,2.77,2.75,2.77,-2.77,-2.74,-2.41,-0.02,-0.02,-0.02
195.27,2.77,2.80,2.76,2.80,-2.80,-2.76,-2.47,-0.03,-0.03,-0.03
197.22,2.78,2.83,2.78,2.83,-2.83,-2.78,-2.52,-0.05,-0.05,-0.05
199.19,2.79,2.85,2.79,2.85,-2.85,-2.81,-2.58,-0.07,-0.06,-0.07
201.18,2.80,2.88,2.80,2.88,-2.88,-2.83,-2.64,-0.08,-0.08,-0.08
203.19,2.80,2.90,2.80,2.90,-2.90,-2.85,-2.70,-0.10,-0.10,-0.10
205.23,2.81,2.92,2.81,2.92,-2.92,-2.88,-2.76,-0.11,-0.11,-0.11
207.28,2.81,2.94,2.80,2.94,-2.94,-2.90,-2.82,-0.13,-0.13,-0.13
209.35,2.80,2.95,2.80,2.95,-2.95,-2.92,-2.89,-0.15,-0.15,-0.15
211.44,2.80,2.97,2.80,2.97,-2.97,-2.94,-2.95,-0.17,-0.17,-0.17
213.56,2.80,2.98,2.79,2.98,-2.98,-2.96,-3.01,-0.18,-0.19,-0.18
215.69,2.79,2.99,2.79,2.99,-2.99,-2.98,-3.07,-0.21,-0.20,-0.21
217.85,2.79,3.01,2.79,3.01,-3.01,-3.00,-3.13,-0.22,-0.22,-0.22
220.03,2.79,3.03,2.78,3.02,-3.02,-3.01,-3.19,-0.23,-0.24,-0.24
222.23,2.78,3.03,2.78,3.03,-3.03,-3.03,-3.25,-0.25,-0.25,-0.25
224.45,2.78,3.04,2.78,3.04,-3.05,-3.05,-3.30,-0.27,-0.27,-0.26
226.70,2.78,3.05,2.78,3.05,-3.06,-3.07,-3.35,-0.28,-0.28,-0.27
228.96,2.79,3.07,2.79,3.07,-3.07,-3.08,-3.41,-0.28,-0.28,-0.29
231.25,2.80,3.08,2.80,3.09,-3.09,-3.10,-3.46,-0.29,-0.29,-0.29
233.57,2.81,3.10,2.81,3.10,-3.10,-3.12,-3.50,-0.29,-0.29,-0.30
235.90,2.82,3.11,2.82,3.12,-3.11,-3.13,-3.55,-0.29,-0.29,-0.30
238.26,2.83,3.13,2.83,3.13,-3.13,-3.15,-3.59,-0.30,-0.30,-0.31
240.64,2.85,3.14,2.84,3.14,-3.15,-3.17,-3.62,-0.30,-0.30,-0.29
243.05,2.86,3.15,2.86,3.16,-3.16,-3.18,-3.66,-0.30,-0.30,-0.29
245.48,2.88,3.17,2.88,3.17,-3.18,-3.20,-3.69,-0.30,-0.30,-0.29
247.93,2.91,3.20,2.91,3.19,-3.19,-3.21,-3.71,-0.29,-0.29,-0.29
250.41,2.93,3.22,2.93,3.21,-3.21,-3.23,-3.74,-0.28,-0.28,-0.29
252.92,2.95,3.23,2.95,3.23,-3.23,-3.24,-3.75,-0.28,-0.28,-0.28
255.45,2.96,3.24,2.96,3.24,-3.24,-3.26,-3.77,-0.28,-0.28,-0.28
258.00,2.97,3.26,2.97,3.25,-3.25,-3.27,-3.78,-0.29,-0.29,-0.29
260.58,2.97,3.26,2.97,3.26,-3.27,-3.28,-3.79,-0.30,-0.30,-0.30
263.19,2.97,3.27,2.97,3.27,-3.28,-3.30,-3.79,-0.31,-0.31,-0.30
265.82,2.97,3.29,2.97,3.28,-3.28,-3.31,-3.79,-0.31,-0.31,-0.32
268.48,2.97,3.29,2.97,3.30,-3.29,-3.33,-3.79,-0.32,-0.32,-0.32
271.16,2.97,3.31,2.97,3.31,-3.30,-3.34,-3.79,-0.33,-0.33,-0.34
273.87,2.96,3.31,2.96,3.31,-3.31,-3.36,-3.78,-0.35,-0.35,-0.36
276.61,2.96,3.32,2.96,3.32,-3.33,-3.37,-3.77,-0.37,-0.37,-0.36
279.38,2.96,3.33,2.95,3.32,-3.35,-3.39,-3.76,-0.39,-0.40,-0.37
282.17,2.96,3.34,2.97,3.35,-3.37,-3.40,-3.75,-0.42,-0.40,-0.38
284.99,2.99,3.38,3.00,3.39,-3.40,-3.41,-3.74,-0.41,-0.40,-0.39
287.84,3.06,3.45,3.04,3.44,-3.43,-3.43,-3.73,-0.37,-0.39,-0.39
290.72,3.09,3.50,3.08,3.48,-3.46,-3.44,-3.72,-0.37,-0.38,-0.41
293.63,3.10,3.51,3.10,3.51,-3.49,-3.46,-3.70,-0.39,-0.39,-0.41
296.57,3.11,3.52,3.11,3.53,-3.52,-3.48,-3.69,-0.41,-0.41,-0.42
299.53,3.13,3.54,3.13,3.54,-3.54,-3.49,-3.68,-0.42,-0.42,-0.41
302.53,3.14,3.55,3.14,3.56,-3.56,-3.51,-3.67,-0.42,-0.42,-0.41
305.55,3.15,3.58,3.15,3.57,-3.57,-3.52,-3.66,-0.42,-0.42,-0.43
308.61,3.16,3.59,3.16,3.59,-3.58,-3.54,-3.65,-0.42,-0.43,-0.43
311.69,3.16,3.59,3.16,3.60,-3.59,-3.56,-3.64,-0.43,-0.43,-0.43
314.81,3.17,3.62,3.17,3.61,-3.61,-3.57,-3.63,-0.44,-0.44,-0.45
317.96,3.17,3.62,3.17,3.62,-3.63,-3.59,-3.63,-0.46,-0.46,-0.45
321.14,3.17,3.62,3.17,3.62,-3.65,-3.61,-3.63,-0.48,-0.48,-0.45
324.35,3.17,3.64,3.18,3.65,-3.67,-3.63,-3.63,-0.50,-0.49,-0.47
327.59,3.20,3.68,3.21,3.68,-3.69,-3.65,-3.63,-0.49,-0.48,-0.48
330.87,3.25,3.73,3.24,3.72,-3.71,-3.66,-3.64,-0.46,-0.47,-0.48
334.18,3.27,3.75,3.26,3.75,-3.72,-3.68,-3.65,-0.46,-0.46,-0.49
337.52,3.26,3.75,3.27,3.76,-3.74,-3.70,-3.66,-0.48,-0.47,-0.49
340.90,3.26,3.76,3.26,3.76,-3.75,-3.72,-3.67,-0.49,-0.49,-0.50
344.30,3.26,3.76,3.26,3.76,-3.76,-3.74,-3.69,-0.50,-0.50,-0.50
347.75,3.26,3.76,3.26,3.77,-3.77,-3.76,-3.71,-0.51,-0.51,-0.51
351.23,3.26,3.78,3.26,3.78,-3.78,-3.78,-3.73,-0.52,-0.52,-0.52
354.74,3.27,3.79,3.26,3.78,-3.80,-3.81,-3.76,-0.53,-0.54,-0.52
358.28,3.27,3.79,3.27,3.79,-3.82,-3.83,-3.78,-0.55,-0.55,-0.52
361.87,3.28,3.80,3.30,3.83,-3.84,-3.85,-3.82,-0.56,-0.54,-0.52
365.49,3.35,3.87,3.34,3.87,-3.86,-3.87,-3.85,-0.51,-0.52,-0.53
369.14,3.40,3.93,3.38,3.91,-3.89,-3.90,-3.89,-0.49,-0.51,-0.53
372.83,3.40,3.93,3.41,3.94,-3.91,-3.92,-3.93,-0.51,-0.50,-0.53
376.56,3.41,3.94,3.41,3.94,-3.93,-3.94,-3.97,-0.52,-0.52,-0.53
380.33,3.41,3.95,3.41,3.95,-3.95,-3.97,-4.01,-0.54,-0.54,-0.54
384.13,3.42,3.96,3.42,3.96,-3.97,-3.99,-4.06,-0.55,-0.56,-0.54
387.97,3.42,3.97,3.42,3.97,-4.00,-4.02,-4.11,-0.58,-0.58,-0.56
391.85,3.43,4.00,3.42,3.99,-4.02,-4.04,-4.16,-0.59,-0.60,-0.57
395.77,3.43,4.01,3.45,4.03,-4.05,-4.07,-4.22,-0.62,-0.60,-0.58
399.73,3.49,4.08,3.49,4.08,-4.08,-4.09,-4.27,-0.59,-0.58,-0.59
403.72,3.55,4.15,3.52,4.13,-4.10,-4.12,-4.33,-0.55,-0.58,-0.60
407.76,3.54,4.16,3.54,4.16,-4.13,-4.14,-4.39,-0.59,-0.59,-0.62
411.84,3.52,4.15,3.53,4.17,-4.14,-4.17,-4.45,-0.63,-0.61,-0.63
415.96,3.52,4.16,3.52,4.17,-4.16,-4.19,-4.51,-0.64,-0.64,-0.65
420.12,3.52,4.18,3.52,4.17,-4.18,-4.22,-4.57,-0.66,-0.66,-0.66
424.32,3.53,4.19,3.53,4.19,-4.20,-4.24,-4.63,-0.67,-0.67,-0.66
428.56,3.54,4.20,3.53,4.18,-4.22,-4.27,-4.69,-0.68,-0.69,-0.66
432.85,3.55,4.20,3.56,4.21,-4.24,-4.29,-4.75,-0.69,-0.68,-0.65
437.18,3.59,4.22,3.62,4.26,-4.27,-4.32,-4.80,-0.68,-0.64,-0.63
441.55,3.73,4.34,3.70,4.31,-4.29,-4.34,-4.85,-0.57,-0.60,-0.61
445.96,3.79,4.37,3.77,4.35,-4.32,-4.36,-4.91,-0.54,-0.55,-0.58
450.42,3.82,4.36,3.83,4.38,-4.35,-4.39,-4.95,-0.53,-0.52,-0.54
454.93,3.87,4.37,3.87,4.38,-4.38,-4.41,-4.99,-0.51,-0.50,-0.51
459.48,3.93,4.38,3.92,4.38,-4.40,-4.43,-5.03,-0.47,-0.47,-0.46
464.07,3.99,4.41,3.99,4.40,-4.41,-4.45,-5.07,-0.42,-0.42,-0.42
468.71,4.04,4.41,4.05,4.41,-4.42,-4.47,-5.09,-0.38,-0.37,-0.37
473.40,4.11,4.43,4.10,4.42,-4.42,-4.48,-5.11,-0.31,-0.32,-0.32
478.13,4.16,4.43,4.16,4.43,-4.42,-4.50,-5.13,-0.27,-0.27,-0.27
482.91,4.21,4.44,4.21,4.44,-4.43,-4.52,-5.13,-0.22,-0.22,-0.23
487.74,4.25,4.44,4.25,4.44,-4.44,-4.53,-5.13,-0.19,-0.19,-0.19
492.62,4.28,4.44,4.28,4.44,-4.45,-4.54,-5.12,-0.17,-0.17,-0.16
497.55,4.31,4.45,4.31,4.45,-4.45,-4.55,-5.11,-0.15,-0.14,-0.14
502.52,4.34,4.46,4.34,4.46,-4.46,-4.56,-5.08,-0.13,-0.13,-0.12
507.55,4.36,4.47,4.36,4.47,-4.48,-4.56,-5.05,-0.12,-0.12,-0.11
512.62,4.37,4.49,4.37,4.49,-4.49,-4.57,-5.01,-0.12,-0.12,-0.12
517.75,4.38,4.50,4.38,4.50,-4.50,-4.57,-4.96,-0.13,-0.13,-0.12
522.93,4.38,4.52,4.38,4.52,-4.52,-4.56,-4.90,-0.14,-0.14,-0.14
528.16,4.37,4.53,4.37,4.54,-4.54,-4.56,-4.84,-0.17,-0.17,-0.16
533.44,4.36,4.55,4.35,4.55,-4.55,-4.55,-4.76,-0.19,-0.20,-0.20
