frequency,raw,error,smoothed,error_smoothed,equalization,parametric_eq,fixed_band_eq,equalized_raw,equalized_smoothed,target
20.00,10.85,9.98,10.84,9.98,-9.98,-9.92,-5.21,0.86,0.86,0.87
20.20,10.86,10.02,10.86,10.02,-10.02,-9.97,-5.35,0.83,0.84,0.84
20.40,10.88,10.06,10.88,10.06,-10.06,-10.02,-5.48,0.82,0.82,0.82
20.61,10.89,10.10,10.89,10.10,-10.10,-10.07,-5.62,0.80,0.80,0.80
20.81,10.92,10.14,10.92,10.14,-10.14,-10.11,-5.77,0.78,0.78,0.78
21.02,10.94,10.18,10.94,10.18,-10.18,-10.16,-5.92,0.76,0.76,0.76
21.23,10.96,10.22,10.95,10.22,-10.22,-10.20,-6.07,0.74,0.74,0.74
21.44,10.98,10.26,10.97,10.26,-10.26,-10.25,-6.22,0.72,0.72,0.72
21.66,11.00,10.30,11.00,10.30,-10.30,-10.29,-6.38,0.70,0.70,0.70
21.87,11.03,10.34,11.02,10.34,-10.34,-10.33,-6.55,0.69,0.68,0.69
22.09,11.06,10.39,11.05,10.38,-10.38,-10.37,-6.72,0.67,0.67,0.67
22.31,11.08,10.42,11.08,10.42,-10.43,-10.41,-6.89,0.65,0.65,0.66
22.54,11.10,10.46,11.11,10.46,-10.47,-10.45,-7.07,0.63,0.64,0.65
22.76,11.15,10.51,11.14,10.51,-10.52,-10.49,-7.26,0.63,0.63,0.64
22.99,11.19,10.56,11.19,10.56,-10.56,-10.53,-7.44,0.62,0.62,0.63
23.22,11.23,10.61,11.22,10.61,-10.61,-10.57,-7.64,0.62,0.62,0.62
23.45,11.27,10.66,11.26,10.66,-10.65,-10.60,-7.84,0.61,0.61,0.61
23.69,11.29,10.70,11.30,10.70,-10.69,-10.64,-8.04,0.60,0.61,0.60
23.92,11.34,10.74,11.33,10.74,-10.73,-10.67,-8.25,0.61,0.60,0.60
24.16,11.36,10.77,11.36,10.77,-10.77,-10.70,-8.46,0.59,0.59,0.59
24.40,11.39,10.80,11.38,10.80,-10.80,-10.74,-8.68,0.59,0.58,0.59
24.65,11.40,10.82,11.40,10.82,-10.83,-10.77,-8.90,0.56,0.57,0.58
24.89,11.43,10.85,11.43,10.85,-10.86,-10.80,-9.12,0.56,0.56,0.58
25.14,11.46,10.89,11.45,10.89,-10.89,-10.83,-9.36,0.56,0.56,0.57
25.39,11.49,10.92,11.48,10.92,-10.92,-10.86,-9.59,0.56,0.56,0.57
25.65,11.51,10.95,11.51,10.95,-10.95,-10.89,-9.83,0.56,0.56,0.56
25.91,11.52,10.97,11.53,10.97,-10.97,-10.92,-10.07,0.56,0.56,0.56
26.16,11.55,11.00,11.54,11.00,-10.98,-10.94,-10.31,0.56,0.56,0.55
26.43,11.56,11.01,11.55,11.01,-11.00,-10.97,-10.56,0.56,0.56,0.55
26.69,11.56,11.02,11.55,11.01,-11.00,-10.99,-10.81,0.56,0.55,0.54
26.96,11.55,11.01,11.54,11.01,-11.00,-11.02,-11.05,0.54,0.54,0.54
27.23,11.53,10.99,11.53,11.00,-11.00,-11.04,-11.30,0.52,0.52,0.54
27.50,11.52,10.99,11.52,10.99,-11.01,-11.07,-11.54,0.51,0.51,0.53
27.77,11.52,10.99,11.52,11.00,-11.01,-11.09,-11.78,0.51,0.51,0.53
28.05,11.54,11.02,11.53,11.01,-11.02,-11.11,-12.02,0.52,0.51,0.52
28.33,11.55,11.03,11.55,11.03,-11.04,-11.13,-12.25,0.51,0.51,0.52
28.62,11.57,11.05,11.57,11.06,-11.06,-11.15,-12.47,0.51,0.51,0.52
28.90,11.60,11.09,11.59,11.09,-11.08,-11.17,-12.68,0.51,0.51,0.51
29.19,11.63,11.12,11.62,11.12,-11.11,-11.19,-12.88,0.51,0.51,0.51
29.48,11.66,11.15,11.66,11.15,-11.15,-11.20,-13.06,0.51,0.51,0.51
29.78,11.69,11.18,11.69,11.18,-11.18,-11.22,-13.23,0.51,0.51,0.51
30.08,11.71,11.21,11.72,11.21,-11.21,-11.24,-13.37,0.50,0.50,0.51
30.38,11.74,11.24,11.75,11.24,-11.25,-11.25,-13.50,0.50,0.50,0.51
30.68,11.78,11.28,11.77,11.28,-11.28,-11.27,-13.60,0.50,0.50,0.50
30.99,11.81,11.31,11.80,11.31,-11.31,-11.28,-13.68,0.50,0.50,0.50
31.30,11.83,11.33,11.83,11.34,-11.33,-11.30,-13.74,0.49,0.50,0.50
31.61,11.86,11.36,11.85,11.36,-11.36,-11.31,-13.77,0.50,0.49,0.50
31.93,11.87,11.38,11.87,11.38,-11.37,-11.32,-13.78,0.49,0.49,0.49
32.24,11.88,11.39,11.88,11.40,-11.39,-11.33,-13.77,0.49,0.49,0.49
32.57,11.89,11.41,11.88,11.41,-11.40,-11.34,-13.74,0.49,0.49,0.48
32.89,11.89,11.41,11.88,11.41,-11.40,-11.35,-13.68,0.49,0.48,0.48
33.22,11.88,11.40,11.88,11.40,-11.40,-11.36,-13.61,0.47,0.47,0.48
33.55,11.87,11.39,11.87,11.39,-11.40,-11.37,-13.52,0.46,0.46,0.48
33.89,11.86,11.39,11.86,11.39,-11.40,-11.38,-13.41,0.46,0.46,0.47
34.23,11.86,11.39,11.85,11.39,-11.40,-11.39,-13.30,0.46,0.46,0.47
34.57,11.86,11.40,11.85,11.40,-11.40,-11.39,-13.17,0.46,0.46,0.46
34.92,11.86,11.40,11.86,11.40,-11.40,-11.40,-13.04,0.46,0.46,0.46
35.27,11.86,11.40,11.86,11.40,-11.40,-11.41,-12.90,0.46,0.46,0.46
35.62,11.86,11.40,11.86,11.40,-11.40,-11.41,-12.76,0.45,0.45,0.46
35.97,11.86,11.41,11.86,11.41,-11.40,-11.42,-12.62,0.45,0.45,0.45
36.33,11.86,11.41,11.86,11.41,-11.41,-11.42,-12.48,0.45,0.45,0.45
36.70,11.86,11.41,11.86,11.41,-11.41,-11.43,-12.33,0.45,0.45,0.45
37.06,11.86,11.41,11.86,11.41,-11.41,-11.43,-12.19,0.44,0.44,0.45
37.43,11.86,11.41,11.86,11.41,-11.42,-11.43,-12.05,0.44,0.44,0.45
37.81,11.86,11.42,11.86,11.42,-11.42,-11.43,-11.92,0.44,0.44,0.44
38.19,11.86,11.42,11.86,11.42,-11.42,-11.43,-11.79,0.43,0.43,0.44
38.57,11.86,11.43,11.86,11.43,-11.43,-11.44,-11.66,0.43,0.43,0.43
38.95,11.86,11.43,11.86,11.43,-11.43,-11.44,-11.54,0.42,0.42,0.43
39.34,11.86,11.44,11.86,11.44,-11.44,-11.44,-11.43,0.42,0.42,0.42
39.74,11.86,11.44,11.86,11.44,-11.44,-11.44,-11.32,0.41,0.41,0.42
40.14,11.86,11.44,11.86,11.44,-11.44,-11.43,-11.22,0.41,0.41,0.42
40.54,11.86,11.45,11.86,11.45,-11.45,-11.43,-11.13,0.41,0.41,0.41
40.94,11.86,11.45,11.86,11.45,-11.45,-11.43,-11.04,0.41,0.41,0.41
41.35,11.86,11.45,11.86,11.45,-11.45,-11.43,-10.96,0.41,0.41,0.41
41.76,11.86,11.45,11.86,11.45,-11.45,-11.43,-10.89,0.41,0.41,0.41
42.18,11.86,11.44,11.86,11.44,-11.45,-11.42,-10.82,0.41,0.41,0.42
42.60,11.86,11.44,11.86,11.44,-11.44,-11.42,-10.76,0.41,0.41,0.42
43.03,11.86,11.44,11.86,11.44,-11.44,-11.42,-10.71,0.42,0.42,0.42
43.46,11.86,11.44,11.86,11.44,-11.44,-11.41,-10.67,0.42,0.42,0.42
43.90,11.86,11.44,11.86,11.44,-11.43,-11.41,-10.63,0.42,0.42,0.42
44.33,11.86,11.43,11.86,11.43,-11.43,-11.40,-10.61,0.42,0.42,0.43
44.78,11.86,11.43,11.86,11.43,-11.43,-11.39,-10.58,0.42,0.42,0.43
45.23,11.86,11.43,11.86,11.43,-11.43,-11.39,-10.57,0.42,0.42,0.43
45.68,11.86,11.43,11.86,11.43,-11.43,-11.38,-10.57,0.42,0.42,0.43
46.13,11.86,11.43,11.86,11.43,-11.43,-11.37,-10.57,0.42,0.42,0.43
46.60,11.86,11.44,11.86,11.44,-11.43,-11.37,-10.58,0.42,0.42,0.42
47.06,11.86,11.44,11.85,11.44,-11.44,-11.36,-10.59,0.42,0.42,0.42
47.53,11.86,11.44,11.86,11.44,-11.45,-11.35,-10.61,0.41,0.41,0.42
48.01,11.86,11.44,11.86,11.45,-11.45,-11.34,-10.64,0.40,0.41,0.42
48.49,11.87,11.46,11.86,11.45,-11.46,-11.33,-10.68,0.41,0.40,0.41
48.97,11.87,11.46,11.87,11.46,-11.46,-11.32,-10.72,0.40,0.40,0.41
49.46,11.88,11.47,11.88,11.47,-11.47,-11.31,-10.76,0.41,0.41,0.41
49.96,11.89,11.48,11.88,11.47,-11.47,-11.30,-10.82,0.42,0.42,0.41
50.46,11.89,11.47,11.88,11.47,-11.46,-11.29,-10.88,0.42,0.42,0.42
50.96,11.88,11.46,11.87,11.46,-11.45,-11.28,-10.94,0.42,0.42,0.42
51.47,11.86,11.44,11.86,11.44,-11.44,-11.27,-11.00,0.42,0.42,0.42
51.99,11.84,11.42,11.84,11.42,-11.42,-11.26,-11.07,0.42,0.42,0.42
52.51,11.82,11.39,11.81,11.39,-11.39,-11.25,-11.15,0.42,0.42,0.43
53.03,11.79,11.36,11.79,11.37,-11.37,-11.23,-11.22,0.42,0.42,0.43
53.56,11.77,11.34,11.76,11.34,-11.33,-11.22,-11.30,0.43,0.43,0.43
54.10,11.74,11.31,11.73,11.31,-11.30,-11.21,-11.38,0.44,0.43,0.43
54.64,11.70,11.27,11.70,11.27,-11.27,-11.19,-11.46,0.43,0.43,0.43
55.18,11.67,11.23,11.66,11.23,-11.23,-11.18,-11.54,0.43,0.43,0.44
55.74,11.64,11.20,11.63,11.20,-11.20,-11.17,-11.62,0.43,0.43,0.44
56.29,11.61,11.17,11.61,11.17,-11.17,-11.15,-11.69,0.43,0.43,0.44
56.86,11.59,11.14,11.58,11.14,-11.15,-11.14,-11.76,0.44,0.44,0.45
57.42,11.57,11.12,11.57,11.12,-11.13,-11.12,-11.82,0.44,0.44,0.45
58.00,11.56,11.11,11.55,11.11,-11.11,-11.11,-11.88,0.44,0.44,0.45
58.58,11.55,11.10,11.54,11.09,-11.10,-11.09,-11.93,0.45,0.45,0.45
59.16,11.54,11.08,11.54,11.08,-11.08,-11.07,-11.98,0.45,0.45,0.46
59.76,11.53,11.07,11.53,11.07,-11.07,-11.06,-12.01,0.45,0.46,0.46
60.35,11.53,11.07,11.52,11.06,-11.06,-11.04,-12.03,0.46,0.46,0.46
60.96,11.52,11.05,11.51,11.05,-11.05,-11.02,-12.05,0.47,0.47,0.47
61.57,11.51,11.04,11.50,11.04,-11.03,-11.00,-12.05,0.48,0.47,0.47
62.18,11.48,11.01,11.48,11.01,-11.01,-10.99,-12.04,0.47,0.47,0.47
62.80,11.46,10.99,11.45,10.99,-10.98,-10.97,-12.01,0.47,0.47,0.47
63.43,11.43,10.96,11.42,10.96,-10.96,-10.95,-11.98,0.47,0.47,0.47
64.07,11.40,10.93,11.40,10.93,-10.93,-10.93,-11.93,0.46,0.47,0.47
64.71,11.37,10.90,11.36,10.90,-10.90,-10.91,-11.88,0.46,0.46,0.47
65.35,11.34,10.87,11.33,10.87,-10.88,-10.89,-11.81,0.46,0.46,0.47
66.01,11.31,10.84,11.31,10.84,-10.85,-10.87,-11.73,0.46,0.46,0.47
66.67,11.29,10.82,11.29,10.82,-10.83,-10.85,-11.64,0.46,0.46,0.47
67.33,11.28,10.81,11.27,10.80,-10.80,-10.83,-11.55,0.47,0.47,0.47
68.01,11.25,10.78,11.25,10.78,-10.78,-10.81,-11.44,0.47,0.47,0.47
68.69,11.23,10.76,11.23,10.76,-10.76,-10.79,-11.33,0.47,0.47,0.47
69.37,11.21,10.74,11.20,10.74,-10.74,-10.76,-11.22,0.47,0.46,0.47
70.07,11.18,10.71,11.18,10.71,-10.72,-10.74,-11.10,0.46,0.46,0.47
70.77,11.16,10.69,11.16,10.69,-10.69,-10.72,-10.98,0.46,0.47,0.47
71.48,11.14,10.67,11.13,10.67,-10.67,-10.70,-10.85,0.47,0.47,0.47
72.19,11.12,10.64,11.11,10.64,-10.64,-10.67,-10.73,0.48,0.48,0.48
72.91,11.09,10.61,11.09,10.61,-10.61,-10.65,-10.60,0.48,0.48,0.48
73.64,11.07,10.59,11.06,10.58,-10.58,-10.62,-10.48,0.49,0.48,0.48
74.38,11.03,10.54,11.03,10.55,-10.54,-10.60,-10.35,0.48,0.48,0.49
75.12,11.00,10.51,11.00,10.51,-10.51,-10.58,-10.23,0.48,0.49,0.49
75.87,10.97,10.48,10.97,10.48,-10.48,-10.55,-10.11,0.49,0.49,0.49
76.63,10.95,10.45,10.94,10.45,-10.45,-10.52,-10.00,0.50,0.49,0.50
77.40,10.92,10.42,10.92,10.42,-10.42,-10.50,-9.89,0.49,0.49,0.50
78.17,10.90,10.39,10.90,10.39,-10.40,-10.47,-9.78,0.49,0.49,0.51
78.95,10.89,10.38,10.88,10.38,-10.39,-10.45,-9.68,0.50,0.49,0.51
79.74,10.88,10.37,10.88,10.37,-10.38,-10.42,-9.58,0.49,0.50,0.51
80.54,10.89,10.37,10.88,10.37,-10.38,-10.39,-9.49,0.51,0.51,0.52
81.35,10.89,10.37,10.89,10.37,-10.37,-10.36,-9.40,0.51,0.52,0.52
82.16,10.90,10.38,10.89,10.38,-10.37,-10.34,-9.32,0.53,0.53,0.52
82.98,10.90,10.38,10.89,10.38,-10.36,-10.31,-9.24,0.53,0.53,0.52
83.81,10.89,10.37,10.88,10.37,-10.35,-10.28,-9.17,0.53,0.53,0.52
84.65,10.87,10.35,10.87,10.35,-10.34,-10.25,-9.11,0.52,0.52,0.52
85.50,10.85,10.32,10.84,10.32,-10.33,-10.22,-9.05,0.52,0.52,0.53
86.35,10.82,10.29,10.82,10.29,-10.31,-10.19,-9.00,0.51,0.51,0.53
87.22,10.80,10.27,10.80,10.27,-10.28,-10.16,-8.96,0.51,0.52,0.53
88.09,10.78,10.25,10.78,10.25,-10.25,-10.13,-8.92,0.52,0.52,0.53
88.97,10.76,10.23,10.75,10.23,-10.22,-10.10,-8.89,0.53,0.53,0.53
89.86,10.73,10.20,10.72,10.20,-10.19,-10.07,-8.86,0.54,0.54,0.53
90.76,10.69,10.16,10.69,10.16,-10.15,-10.04,-8.84,0.53,0.53,0.53
91.66,10.65,10.12,10.64,10.12,-10.11,-10.01,-8.83,0.53,0.53,0.53
92.58,10.60,10.07,10.60,10.07,-10.07,-9.97,-8.82,0.52,0.53,0.53
93.51,10.56,10.03,10.55,10.03,-10.03,-9.94,-8.82,0.52,0.52,0.53
94.44,10.51,9.98,10.51,9.98,-9.99,-9.91,-8.83,0.51,0.52,0.53
95.39,10.47,9.94,10.47,9.94,-9.95,-9.87,-8.84,0.51,0.52,0.53
96.34,10.44,9.91,10.44,9.91,-9.92,-9.84,-8.85,0.52,0.52,0.53
97.30,10.42,9.88,10.41,9.88,-9.88,-9.81,-8.88,0.53,0.53,0.54
98.28,10.39,9.85,10.39,9.85,-9.85,-9.77,-8.90,0.53,0.54,0.54
99.26,10.37,9.83,10.36,9.83,-9.82,-9.74,-8.93,0.55,0.55,0.54
100.25,10.34,9.80,10.33,9.80,-9.79,-9.70,-8.97,0.55,0.55,0.54
101.25,10.30,9.76,10.29,9.76,-9.75,-9.67,-9.01,0.54,0.54,0.54
102.27,10.25,9.71,10.25,9.71,-9.71,-9.63,-9.05,0.53,0.54,0.54
103.29,10.21,9.67,10.21,9.67,-9.67,-9.60,-9.10,0.53,0.53,0.54
104.32,10.18,9.63,10.17,9.63,-9.63,-9.56,-9.15,0.54,0.54,0.55
105.37,10.14,9.59,10.14,9.59,-9.59,-9.52,-9.20,0.54,0.54,0.55
106.42,10.10,9.55,10.10,9.55,-9.55,-9.48,-9.26,0.54,0.55,0.55
107.48,10.07,9.51,10.06,9.51,-9.51,-9.45,-9.31,0.55,0.55,0.56
108.56,10.03,9.47,10.03,9.47,-9.47,-9.41,-9.37,0.55,0.55,0.56
109.64,9.99,9.43,9.99,9.43,-9.43,-9.37,-9.42,0.55,0.56,0.56
110.74,9.96,9.40,9.95,9.39,-9.39,-9.33,-9.48,0.57,0.57,0.56
111.85,9.92,9.35,9.91,9.35,-9.34,-9.29,-9.53,0.58,0.57,0.57
112.97,9.87,9.30,9.86,9.30,-9.29,-9.25,-9.58,0.58,0.57,0.57
114.10,9.81,9.24,9.81,9.24,-9.24,-9.21,-9.62,0.56,0.57,0.57
115.24,9.75,9.18,9.75,9.18,-9.19,-9.17,-9.66,0.56,0.56,0.57
116.39,9.70,9.13,9.69,9.13,-9.14,-9.13,-9.69,0.56,0.56,0.57
117.55,9.65,9.07,9.65,9.08,-9.08,-9.09,-9.72,0.56,0.56,0.58
118.73,9.61,9.03,9.61,9.03,-9.03,-9.05,-9.74,0.57,0.58,0.58
119.92,9.57,8.99,9.57,8.99,-8.98,-9.01,-9.76,0.59,0.59,0.58
121.12,9.53,8.94,9.52,8.94,-8.92,-8.97,-9.76,0.60,0.60,0.59
122.33,9.47,8.88,9.46,8.88,-8.87,-8.93,-9.75,0.59,0.59,0.59
123.55,9.41,8.81,9.41,8.81,-8.82,-8.88,-9.74,0.59,0.59,0.60
124.79,9.35,8.75,9.35,8.76,-8.77,-8.84,-9.72,0.58,0.59,0.60
126.03,9.31,8.71,9.30,8.71,-8.71,-8.80,-9.68,0.59,0.59,0.60
127.29,9.27,8.66,9.26,8.66,-8.65,-8.75,-9.64,0.61,0.61,0.61
128.57,9.22,8.61,9.22,8.61,-8.60,-8.71,-9.58,0.61,0.61,0.61
129.85,9.17,8.55,9.16,8.55,-8.55,-8.67,-9.52,0.62,0.61,0.62
131.15,9.11,8.49,9.11,8.49,-8.50,-8.62,-9.45,0.61,0.61,0.62
132.46,9.06,8.44,9.06,8.44,-8.45,-8.58,-9.37,0.61,0.61,0.62
133.79,9.01,8.39,9.01,8.39,-8.40,-8.53,-9.28,0.61,0.61,0.62
135.12,8.97,8.35,8.96,8.35,-8.34,-8.49,-9.18,0.62,0.62,0.62
136.48,8.92,8.30,8.92,8.30,-8.29,-8.44,-9.08,0.63,0.63,0.62
137.84,8.87,8.24,8.86,8.24,-8.24,-8.39,-8.98,0.63,0.63,0.63
139.22,8.81,8.18,8.81,8.18,-8.18,-8.35,-8.86,0.62,0.62,0.63
140.61,8.75,8.12,8.75,8.12,-8.13,-8.30,-8.75,0.62,0.62,0.63
142.02,8.70,8.07,8.69,8.07,-8.07,-8.25,-8.63,0.62,0.62,0.63
143.44,8.65,8.02,8.64,8.01,-8.01,-8.21,-8.51,0.63,0.63,0.63
144.87,8.59,7.95,8.59,7.96,-7.95,-8.16,-8.39,0.63,0.64,0.64
146.32,8.54,7.90,8.53,7.90,-7.89,-8.11,-8.27,0.65,0.64,0.64
147.78,8.48,7.84,8.47,7.83,-7.82,-8.06,-8.14,0.65,0.65,0.64
149.26,8.41,7.76,8.41,7.77,-7.76,-8.01,-8.02,0.64,0.64,0.65
150.75,8.35,7.70,8.34,7.70,-7.70,-7.97,-7.90,0.64,0.64,0.65
152.26,8.28,7.63,8.28,7.63,-7.64,-7.92,-7.78,0.63,0.63,0.65
153.78,8.23,7.57,8.23,7.58,-7.59,-7.87,-7.67,0.64,0.64,0.66
155.32,8.19,7.53,8.19,7.53,-7.54,-7.82,-7.55,0.65,0.65,0.66
156.88,8.16,7.50,8.15,7.49,-7.49,-7.77,-7.44,0.67,0.66,0.66
158.44,8.12,7.45,8.11,7.45,-7.44,-7.72,-7.33,0.67,0.67,0.67
160.03,8.07,7.40,8.07,7.40,-7.40,-7.67,-7.23,0.67,0.67,0.67
161.63,8.03,7.36,8.02,7.36,-7.36,-7.62,-7.13,0.67,0.67,0.67
163.24,7.98,7.31,7.98,7.32,-7.31,-7.56,-7.03,0.66,0.67,0.67
164.88,7.95,7.28,7.94,7.28,-7.27,-7.51,-6.94,0.67,0.67,0.67
166.53,7.92,7.24,7.91,7.24,-7.24,-7.46,-6.85,0.68,0.67,0.68
168.19,7.87,7.19,7.87,7.19,-7.20,-7.41,-6.77,0.66,0.67,0.68
169.87,7.84,7.16,7.84,7.16,-7.17,-7.36,-6.69,0.67,0.67,0.68
171.57,7.81,7.12,7.81,7.13,-7.14,-7.31,-6.62,0.67,0.67,0.69
173.29,7.80,7.11,7.79,7.11,-7.11,-7.25,-6.55,0.69,0.69,0.69
175.02,7.78,7.09,7.77,7.08,-7.07,-7.20,-6.48,0.70,0.70,0.69
176.77,7.75,7.06,7.74,7.06,-7.04,-7.15,-6.43,0.71,0.71,0.69
178.54,7.71,7.01,7.71,7.01,-7.00,-7.09,-6.37,0.70,0.70,0.70
180.32,7.67,6.97,7.67,6.97,-6.97,-7.04,-6.32,0.69,0.70,0.70
182.13,7.63,6.93,7.62,6.93,-6.94,-6.99,-6.27,0.69,0.69,0.70
183.95,7.59,6.89,7.58,6.89,-6.90,-6.93,-6.23,0.68,0.68,0.70
185.79,7.55,6.86,7.55,6.86,-6.87,-6.88,-6.20,0.67,0.67,0.69
187.65,7.52,6.83,7.52,6.83,-6.84,-6.82,-6.16,0.67,0.68,0.69
189.52,7.50,6.81,7.50,6.81,-6.81,-6.77,-6.14,0.68,0.69,0.69
191.42,7.49,6.80,7.48,6.79,-6.78,-6.71,-6.11,0.70,0.70,0.69
193.33,7.46,6.76,7.46,6.76,-6.75,-6.66,-6.09,0.70,0.70,0.70
195.27,7.43,6.73,7.42,6.73,-6.72,-6.60,-6.07,0.71,0.70,0.70
197.22,7.38,6.68,7.38,6.68,-6.68,-6.55,-6.06,0.69,0.70,0.70
199.19,7.34,6.64,7.34,6.64,-6.64,-6.49,-6.05,0.69,0.70,0.70
201.18,7.31,6.60,7.30,6.60,-6.60,-6.44,-6.04,0.70,0.70,0.71
203.19,7.27,6.56,7.26,6.56,-6.56,-6.38,-6.04,0.70,0.70,0.71
205.23,7.23,6.52,7.23,6.52,-6.52,-6.33,-6.04,0.71,0.71,0.71
207.28,7.19,6.47,7.18,6.47,-6.48,-6.27,-6.04,0.71,0.71,0.72
209.35,7.15,6.43,7.15,6.43,-6.44,-6.21,-6.04,0.71,0.71,0.72
211.44,7.11,6.39,7.11,6.39,-6.39,-6.16,-6.05,0.71,0.72,0.72
213.56,7.08,6.35,7.07,6.35,-6.34,-6.10,-6.05,0.73,0.73,0.73
215.69,7.04,6.31,7.03,6.31,-6.29,-6.04,-6.06,0.74,0.73,0.73
217.85,6.98,6.25,6.98,6.25,-6.24,-5.99,-6.06,0.73,0.73,0.73
220.03,6.92,6.19,6.92,6.19,-6.19,-5.93,-6.07,0.73,0.73,0.73
222.23,6.86,6.12,6.86,6.13,-6.13,-5.87,-6.07,0.72,0.72,0.74
224.45,6.81,6.07,6.80,6.07,-6.08,-5.81,-6.07,0.73,0.73,0.74
226.70,6.75,6.01,6.75,6.01,-6.02,-5.76,-6.07,0.73,0.73,0.74
228.96,6.70,5.96,6.69,5.96,-5.96,-5.70,-6.07,0.74,0.74,0.74
231.25,6.64,5.89,6.64,5.90,-5.89,-5.64,-6.06,0.74,0.74,0.75
233.57,6.59,5.84,6.58,5.84,-5.83,-5.58,-6.06,0.76,0.75,0.75
235.90,6.53,5.77,6.53,5.77,-5.77,-5.52,-6.04,0.76,0.76,0.76
238.26,6.47,5.71,6.46,5.70,-5.70,-5.47,-6.03,0.77,0.76,0.76
240.64,6.40,5.63,6.39,5.63,-5.63,-5.41,-6.00,0.76,0.76,0.77
243.05,6.33,5.55,6.33,5.56,-5.56,-5.35,-5.98,0.77,0.77,0.78
245.48,6.26,5.48,6.26,5.48,-5.49,-5.29,-5.95,0.77,0.77,0.78
247.93,6.21,5.42,6.20,5.42,-5.42,-5.23,-5.91,0.79,0.79,0.79
250.41,6.15,5.35,6.14,5.35,-5.35,-5.17,-5.86,0.80,0.80,0.80
252.92,6.09,5.28,6.08,5.28,-5.28,-5.11,-5.82,0.81,0.80,0.81
255.45,6.01,5.20,6.01,5.20,-5.21,-5.06,-5.76,0.80,0.81,0.81
258.00,5.95,5.13,5.95,5.13,-5.14,-5.00,-5.70,0.81,0.81,0.82
260.58,5.89,5.07,5.88,5.07,-5.07,-4.94,-5.63,0.82,0.82,0.82
263.19,5.83,5.00,5.82,5.00,-5.00,-4.88,-5.56,0.83,0.83,0.83
265.82,5.76,4.93,5.76,4.93,-4.92,-4.82,-5.49,0.83,0.83,0.83
268.48,5.69,4.85,5.69,4.85,-4.85,-4.76,-5.41,0.83,0.83,0.84
271.16,5.62,4.78,5.61,4.78,-4.78,-4.70,-5.32,0.83,0.83,0.84
273.87,5.55,4.71,5.55,4.71,-4.71,-4.64,-5.23,0.83,0.84,0.84
276.61,5.49,4.64,5.48,4.64,-4.64,-4.58,-5.14,0.85,0.84,0.85
279.38,5.43,4.58,5.42,4.57,-4.57,-4.52,-5.04,0.86,0.85,0.85
282.17,5.34,4.49,5.34,4.50,-4.50,-4.46,-4.94,0.84,0.85,0.85
284.99,5.28,4.42,5.27,4.42,-4.43,-4.40,-4.84,0.85,0.85,0.86
287.84,5.21,4.35,5.21,4.35,-4.36,-4.34,-4.74,0.85,0.85,0.86
290.72,5.15,4.29,5.14,4.29,-4.29,-4.28,-4.63,0.86,0.86,0.86
293.63,5.08,4.22,5.07,4.22,-4.22,-4.22,-4.53,0.86,0.86,0.86
296.57,5.01,4.15,5.01,4.15,-4.15,-4.16,-4.42,0.86,0.86,0.86
299.53,4.94,4.08,4.93,4.08,-4.08,-4.10,-4.31,0.86,0.86,0.86
302.53,4.87,4.00,4.87,4.01,-4.01,-4.04,-4.21,0.86,0.86,0.87
305.55,4.81,3.94,4.81,3.94,-3.94,-3.98,-4.10,0.87,0.87,0.87
308.61,4.75,3.87,4.74,3.87,-3.87,-3.92,-3.99,0.88,0.87,0.88
311.69,4.68,3.80,4.67,3.80,-3.80,-3.86,-3.89,0.88,0.88,0.88
314.81,4.61,3.72,4.61,3.73,-3.73,-3.80,-3.78,0.87,0.88,0.89
317.96,4.55,3.66,4.55,3.66,-3.66,-3.74,-3.68,0.88,0.88,0.89
321.14,4.50,3.60,4.49,3.60,-3.60,-3.68,-3.58,0.90,0.89,0.90
324.35,4.44,3.54,4.43,3.54,-3.53,-3.61,-3.48,0.90,0.90,0.90
327.59,4.37,3.47,4.37,3.47,-3.47,-3.55,-3.38,0.90,0.90,0.90
330.87,4.31,3.40,4.31,3.40,-3.40,-3.49,-3.28,0.90,0.91,0.91
334.18,4.25,3.34,4.25,3.34,-3.33,-3.43,-3.19,0.91,0.91,0.91
337.52,4.19,3.27,4.19,3.27,-3.27,-3.37,-3.09,0.92,0.92,0.92
340.90,4.13,3.20,4.12,3.20,-3.20,-3.31,-3.00,0.92,0.92,0.93
344.30,4.06,3.13,4.05,3.13,-3.13,-3.25,-2.91,0.92,0.92,0.93
347.75,3.99,3.06,3.99,3.06,-3.07,-3.19,-2.82,0.92,0.92,0.93
351.23,3.93,3.00,3.93,3.00,-3.00,-3.12,-2.74,0.93,0.93,0.93
354.74,3.88,2.94,3.87,2.94,-2.93,-3.06,-2.65,0.94,0.94,0.94
358.28,3.82,2.88,3.81,2.87,-2.87,-3.00,-2.57,0.95,0.94,0.94
361.87,3.74,2.80,3.74,2.80,-2.80,-2.94,-2.49,0.93,0.93,0.94
365.49,3.67,2.73,3.67,2.74,-2.74,-2.88,-2.41,0.93,0.93,0.94
369.14,3.61,2.67,3.61,2.67,-2.67,-2.82,-2.34,0.93,0.93,0.94
372.83,3.56,2.62,3.55,2.61,-2.61,-2.75,-2.26,0.95,0.94,0.94
376.56,3.50,2.55,3.49,2.55,-2.54,-2.69,-2.19,0.95,0.95,0.95
380.33,3.43,2.48,3.43,2.48,-2.48,-2.63,-2.12,0.94,0.94,0.95
384.13,3.36,2.41,3.36,2.41,-2.42,-2.57,-2.05,0.94,0.94,0.95
387.97,3.30,2.35,3.30,2.35,-2.36,-2.51,-1.98,0.94,0.94,0.95
391.85,3.25,2.29,3.25,2.29,-2.29,-2.44,-1.91,0.95,0.95,0.96
395.77,3.20,2.24,3.19,2.24,-2.23,-2.38,-1.85,0.96,0.96,0.96
399.73,3.15,2.18,3.14,2.17,-2.17,-2.32,-1.79,0.97,0.97,0.97
403.72,3.08,2.11,3.08,2.11,-2.11,-2.26,-1.73,0.96,0.97,0.97
407.76,3.02,2.04,3.02,2.05,-2.05,-2.19,-1.67,0.97,0.97,0.98
411.84,2.97,1.99,2.97,1.99,-1.99,-2.13,-1.61,0.98,0.98,0.98
415.96,2.92,1.93,2.91,1.93,-1.92,-2.07,-1.55,0.99,0.99,0.99
420.12,2.86,1.87,2.85,1.87,-1.86,-2.01,-1.50,1.00,0.99,0.99
424.32,2.79,1.80,2.79,1.80,-1.80,-1.94,-1.44,0.99,0.99,0.99
428.56,2.72,1.72,2.72,1.73,-1.73,-1.88,-1.39,0.98,0.98,1.00
432.85,2.66,1.66,2.66,1.66,-1.67,-1.82,-1.34,0.98,0.99,1.00
437.18,2.61,1.61,2.60,1.61,-1.61,-1.75,-1.29,1.00,0.99,1.00
441.55,2.56,1.56,2.55,1.55,-1.55,-1.69,-1.24,1.01,1.00,1.00
445.96,2.49,1.49,2.49,1.49,-1.49,-1.63,-1.19,1.00,1.00,1.00
450.42,2.43,1.43,2.43,1.43,-1.43,-1.57,-1.14,1.00,1.00,1.00
454.93,2.37,1.37,2.36,1.37,-1.37,-1.50,-1.10,1.00,0.99,1.00
459.48,2.31,1.31,2.31,1.31,-1.31,-1.44,-1.05,0.99,0.99,1.00
