frequency,raw,error,smoothed,error_smoothed,equalization,parametric_eq,fixed_band_eq,equalized_raw,equalized_smoothed,target
20.00,-4.38,-4.24,-4.39,-4.25,4.26,3.74,1.27,-0.12,-0.13,-0.14
20.20,-4.37,-4.23,-4.36,-4.22,4.22,3.72,1.30,-0.15,-0.14,-0.14
20.40,-4.32,-4.18,-4.32,-4.18,4.17,3.69,1.34,-0.15,-0.15,-0.14
20.61,-4.27,-4.13,-4.28,-4.14,4.13,3.67,1.38,-0.14,-0.15,-0.14
20.81,-4.23,-4.09,-4.23,-4.09,4.08,3.64,1.42,-0.15,-0.15,-0.14
21.02,-4.18,-4.04,-4.18,-4.04,4.04,3.62,1.46,-0.14,-0.14,-0.14
21.23,-4.13,-3.99,-4.13,-3.99,3.99,3.59,1.51,-0.14,-0.14,-0.14
21.44,-4.07,-3.93,-4.07,-3.93,3.94,3.57,1.55,-0.13,-0.13,-0.14
21.66,-4.02,-3.88,-4.02,-3.88,3.89,3.54,1.60,-0.13,-0.14,-0.14
21.87,-3.98,-3.84,-3.98,-3.84,3.84,3.52,1.64,-0.14,-0.14,-0.14
22.09,-3.93,-3.79,-3.93,-3.79,3.79,3.49,1.69,-0.14,-0.14,-0.14
22.31,-3.88,-3.74,-3.88,-3.74,3.73,3.47,1.74,-0.14,-0.14,-0.14
22.54,-3.82,-3.68,-3.82,-3.68,3.68,3.44,1.79,-0.14,-0.14,-0.14
22.76,-3.77,-3.63,-3.77,-3.63,3.63,3.41,1.84,-0.14,-0.14,-0.14
22.99,-3.73,-3.59,-3.72,-3.58,3.58,3.39,1.90,-0.15,-0.14,-0.14
23.22,-3.67,-3.53,-3.67,-3.53,3.53,3.36,1.95,-0.14,-0.14,-0.14
23.45,-3.61,-3.47,-3.62,-3.48,3.48,3.33,2.01,-0.13,-0.14,-0.14
23.69,-3.57,-3.43,-3.57,-3.43,3.43,3.31,2.07,-0.14,-0.13,-0.14
23.92,-3.52,-3.38,-3.52,-3.38,3.39,3.28,2.12,-0.13,-0.14,-0.14
24.16,-3.49,-3.35,-3.48,-3.34,3.34,3.25,2.18,-0.15,-0.14,-0.14
24.40,-3.44,-3.30,-3.44,-3.30,3.30,3.23,2.24,-0.14,-0.14,-0.14
24.65,-3.40,-3.26,-3.40,-3.26,3.26,3.20,2.30,-0.14,-0.14,-0.14
24.89,-3.37,-3.23,-3.36,-3.22,3.22,3.17,2.36,-0.15,-0.14,-0.14
25.14,-3.32,-3.18,-3.33,-3.19,3.19,3.15,2.42,-0.13,-0.14,-0.14
25.39,-3.29,-3.15,-3.29,-3.15,3.15,3.12,2.49,-0.14,-0.14,-0.14
25.65,-3.25,-3.11,-3.25,-3.11,3.11,3.09,2.55,-0.14,-0.14,-0.14
25.91,-3.21,-3.07,-3.21,-3.07,3.07,3.06,2.61,-0.14,-0.14,-0.14
26.16,-3.17,-3.03,-3.17,-3.03,3.03,3.04,2.67,-0.14,-0.14,-0.14
26.43,-3.14,-3.00,-3.13,-2.99,2.99,3.01,2.73,-0.15,-0.14,-0.14
26.69,-3.09,-2.95,-3.09,-2.95,2.96,2.98,2.79,-0.13,-0.14,-0.14
26.96,-3.05,-2.91,-3.06,-2.92,2.92,2.95,2.85,-0.13,-0.14,-0.14
27.23,-3.02,-2.88,-3.02,-2.88,2.88,2.93,2.91,-0.14,-0.14,-0.14
27.50,-2.99,-2.85,-2.98,-2.84,2.84,2.90,2.96,-0.15,-0.14,-0.14
27.77,-2.94,-2.80,-2.95,-2.81,2.80,2.87,3.01,-0.14,-0.14,-0.14
28.05,-2.91,-2.77,-2.91,-2.77,2.77,2.84,3.06,-0.14,-0.14,-0.14
28.33,-2.87,-2.73,-2.87,-2.73,2.73,2.82,3.11,-0.14,-0.14,-0.14
28.62,-2.84,-2.70,-2.84,-2.70,2.70,2.79,3.16,-0.14,-0.14,-0.14
28.90,-2.79,-2.65,-2.80,-2.66,2.66,2.76,3.20,-0.13,-0.14,-0.14
29.19,-2.78,-2.64,-2.77,-2.63,2.64,2.73,3.24,-0.15,-0.14,-0.14
29.48,-2.74,-2.60,-2.74,-2.60,2.61,2.70,3.27,-0.13,-0.13,-0.14
29.78,-2.72,-2.58,-2.73,-2.59,2.58,2.68,3.30,-0.14,-0.14,-0.14
30.08,-2.70,-2.56,-2.70,-2.56,2.56,2.65,3.32,-0.14,-0.14,-0.14
30.38,-2.70,-2.56,-2.68,-2.54,2.54,2.62,3.34,-0.16,-0.14,-0.14
30.68,-2.65,-2.51,-2.67,-2.53,2.53,2.60,3.36,-0.12,-0.14,-0.14
30.99,-2.65,-2.51,-2.65,-2.51,2.51,2.57,3.37,-0.14,-0.14,-0.14
31.30,-2.65,-2.51,-2.63,-2.49,2.49,2.54,3.37,-0.16,-0.14,-0.14
31.61,-2.60,-2.46,-2.62,-2.48,2.47,2.51,3.37,-0.13,-0.14,-0.14
31.93,-2.60,-2.46,-2.59,-2.45,2.46,2.49,3.36,-0.14,-0.14,-0.14
32.24,-2.57,-2.43,-2.58,-2.44,2.44,2.46,3.35,-0.13,-0.14,-0.14
32.57,-2.56,-2.42,-2.56,-2.42,2.42,2.43,3.34,-0.14,-0.14,-0.14
32.89,-2.55,-2.41,-2.54,-2.40,2.40,2.41,3.32,-0.15,-0.14,-0.14
33.22,-2.51,-2.37,-2.52,-2.38,2.38,2.38,3.29,-0.13,-0.14,-0.14
33.55,-2.51,-2.37,-2.50,-2.36,2.36,2.35,3.26,-0.15,-0.14,-0.14
33.89,-2.47,-2.33,-2.48,-2.34,2.33,2.33,3.23,-0.14,-0.14,-0.14
34.23,-2.45,-2.31,-2.45,-2.31,2.31,2.30,3.19,-0.14,-0.14,-0.14
34.57,-2.42,-2.28,-2.42,-2.28,2.28,2.27,3.15,-0.14,-0.14,-0.14
34.92,-2.38,-2.24,-2.39,-2.25,2.25,2.25,3.11,-0.13,-0.14,-0.14
35.27,-2.37,-2.23,-2.36,-2.22,2.22,2.22,3.07,-0.15,-0.14,-0.14
35.62,-2.33,-2.19,-2.33,-2.20,2.20,2.19,3.02,-0.14,-0.14,-0.14
35.97,-2.31,-2.17,-2.31,-2.17,2.17,2.17,2.97,-0.14,-0.14,-0.14
36.33,-2.28,-2.14,-2.28,-2.14,2.14,2.14,2.92,-0.14,-0.14,-0.14
36.70,-2.25,-2.11,-2.25,-2.11,2.12,2.12,2.86,-0.13,-0.14,-0.14
37.06,-2.23,-2.09,-2.23,-2.09,2.09,2.09,2.81,-0.14,-0.14,-0.14
37.43,-2.21,-2.07,-2.21,-2.07,2.07,2.07,2.76,-0.14,-0.14,-0.14
37.81,-2.19,-2.05,-2.19,-2.05,2.04,2.04,2.70,-0.15,-0.15,-0.14
38.19,-2.15,-2.01,-2.16,-2.02,2.01,2.02,2.65,-0.14,-0.14,-0.14
38.57,-2.14,-2.00,-2.13,-1.99,1.99,1.99,2.59,-0.15,-0.14,-0.14
38.95,-2.09,-1.95,-2.10,-1.96,1.96,1.97,2.54,-0.13,-0.14,-0.14
39.34,-2.08,-1.94,-2.07,-1.93,1.93,1.94,2.48,-0.15,-0.14,-0.14
39.74,-2.05,-1.91,-2.04,-1.90,1.90,1.92,2.43,-0.15,-0.14,-0.14
40.14,-2.00,-1.86,-2.02,-1.88,1.88,1.90,2.38,-0.12,-0.14,-0.14
40.54,-2.00,-1.86,-1.99,-1.85,1.86,1.87,2.32,-0.14,-0.13,-0.14
40.94,-1.96,-1.82,-1.97,-1.83,1.83,1.85,2.27,-0.13,-0.14,-0.14
41.35,-1.95,-1.81,-1.95,-1.81,1.81,1.83,2.22,-0.14,-0.14,-0.14
41.76,-1.95,-1.81,-1.94,-1.80,1.80,1.80,2.17,-0.15,-0.14,-0.14
42.18,-1.91,-1.77,-1.92,-1.78,1.78,1.78,2.13,-0.13,-0.15,-0.14
42.60,-1.91,-1.77,-1.90,-1.76,1.76,1.76,2.08,-0.15,-0.14,-0.14
43.03,-1.89,-1.75,-1.89,-1.75,1.74,1.73,2.04,-0.15,-0.14,-0.14
43.46,-1.86,-1.72,-1.87,-1.73,1.73,1.71,1.99,-0.14,-0.14,-0.14
43.90,-1.86,-1.72,-1.85,-1.71,1.70,1.69,1.95,-0.16,-0.14,-0.14
44.33,-1.81,-1.67,-1.82,-1.68,1.68,1.67,1.91,-0.13,-0.14,-0.14
44.78,-1.81,-1.67,-1.80,-1.66,1.66,1.65,1.87,-0.15,-0.14,-0.14
45.23,-1.77,-1.63,-1.78,-1.64,1.64,1.62,1.84,-0.13,-0.14,-0.14
45.68,-1.77,-1.63,-1.76,-1.62,1.62,1.60,1.80,-0.15,-0.14,-0.14
46.13,-1.73,-1.59,-1.74,-1.60,1.61,1.58,1.77,-0.12,-0.13,-0.14
46.60,-1.72,-1.58,-1.73,-1.59,1.60,1.56,1.73,-0.13,-0.13,-0.14
47.06,-1.72,-1.58,-1.72,-1.58,1.58,1.54,1.70,-0.14,-0.14,-0.14
47.53,-1.72,-1.58,-1.72,-1.58,1.57,1.52,1.67,-0.15,-0.15,-0.14
48.01,-1.72,-1.58,-1.71,-1.57,1.56,1.50,1.64,-0.16,-0.15,-0.14
48.49,-1.70,-1.56,-1.70,-1.56,1.55,1.48,1.61,-0.15,-0.15,-0.14
48.97,-1.67,-1.53,-1.68,-1.54,1.54,1.46,1.59,-0.13,-0.14,-0.14
49.46,-1.67,-1.53,-1.66,-1.52,1.52,1.44,1.56,-0.15,-0.14,-0.14
49.96,-1.64,-1.50,-1.65,-1.51,1.51,1.42,1.54,-0.13,-0.14,-0.14
50.46,-1.63,-1.49,-1.63,-1.49,1.49,1.40,1.52,-0.14,-0.14,-0.14
50.96,-1.62,-1.48,-1.61,-1.47,1.47,1.38,1.49,-0.15,-0.14,-0.14
51.47,-1.58,-1.44,-1.60,-1.46,1.45,1.37,1.47,-0.13,-0.15,-0.14
51.99,-1.58,-1.44,-1.58,-1.44,1.44,1.35,1.45,-0.14,-0.14,-0.14
52.51,-1.58,-1.44,-1.56,-1.42,1.42,1.33,1.43,-0.16,-0.14,-0.14
53.03,-1.53,-1.39,-1.55,-1.41,1.41,1.31,1.42,-0.12,-0.14,-0.14
53.56,-1.53,-1.39,-1.53,-1.39,1.40,1.29,1.40,-0.13,-0.13,-0.14
54.10,-1.53,-1.39,-1.53,-1.39,1.40,1.28,1.38,-0.13,-0.13,-0.14
54.64,-1.53,-1.39,-1.53,-1.39,1.39,1.26,1.37,-0.14,-0.14,-0.14
55.18,-1.53,-1.39,-1.53,-1.39,1.39,1.24,1.35,-0.14,-0.14,-0.14
55.74,-1.53,-1.39,-1.53,-1.39,1.39,1.23,1.34,-0.14,-0.15,-0.14
56.29,-1.53,-1.39,-1.53,-1.39,1.38,1.21,1.32,-0.15,-0.15,-0.14
56.86,-1.53,-1.39,-1.52,-1.38,1.38,1.19,1.31,-0.15,-0.14,-0.14
57.42,-1.51,-1.37,-1.51,-1.37,1.37,1.18,1.30,-0.14,-0.14,-0.14
58.00,-1.49,-1.35,-1.50,-1.36,1.36,1.16,1.28,-0.13,-0.14,-0.14
58.58,-1.49,-1.35,-1.48,-1.34,1.35,1.15,1.27,-0.15,-0.14,-0.14
59.16,-1.48,-1.34,-1.47,-1.33,1.33,1.13,1.26,-0.15,-0.14,-0.14
59.76,-1.44,-1.30,-1.46,-1.32,1.31,1.12,1.24,-0.13,-0.14,-0.14
60.35,-1.44,-1.30,-1.44,-1.30,1.30,1.10,1.23,-0.14,-0.14,-0.14
60.96,-1.43,-1.29,-1.42,-1.28,1.28,1.09,1.22,-0.15,-0.13,-0.14
61.57,-1.39,-1.25,-1.40,-1.27,1.27,1.07,1.20,-0.12,-0.14,-0.14
62.18,-1.39,-1.25,-1.39,-1.25,1.25,1.06,1.19,-0.14,-0.14,-0.14
62.80,-1.39,-1.25,-1.38,-1.24,1.24,1.04,1.18,-0.15,-0.14,-0.14
63.43,-1.38,-1.24,-1.37,-1.23,1.23,1.03,1.16,-0.15,-0.14,-0.14
64.07,-1.35,-1.21,-1.36,-1.22,1.22,1.02,1.15,-0.13,-0.14,-0.14
64.71,-1.35,-1.21,-1.35,-1.21,1.22,1.00,1.14,-0.13,-0.13,-0.14
65.35,-1.35,-1.21,-1.35,-1.21,1.22,0.99,1.12,-0.13,-0.13,-0.14
66.01,-1.35,-1.21,-1.35,-1.21,1.21,0.98,1.11,-0.14,-0.14,-0.14
66.67,-1.35,-1.21,-1.35,-1.21,1.21,0.97,1.10,-0.14,-0.14,-0.14
67.33,-1.35,-1.21,-1.35,-1.21,1.21,0.95,1.08,-0.14,-0.15,-0.14
68.01,-1.35,-1.21,-1.35,-1.21,1.20,0.94,1.07,-0.15,-0.15,-0.14
68.69,-1.35,-1.21,-1.34,-1.20,1.20,0.93,1.06,-0.16,-0.14,-0.14
69.37,-1.32,-1.18,-1.32,-1.18,1.19,0.92,1.04,-0.13,-0.14,-0.14
70.07,-1.30,-1.16,-1.31,-1.17,1.17,0.91,1.03,-0.13,-0.14,-0.14
70.77,-1.30,-1.16,-1.30,-1.16,1.16,0.90,1.02,-0.14,-0.14,-0.14
71.48,-1.30,-1.16,-1.28,-1.14,1.14,0.89,1.00,-0.16,-0.14,-0.14
72.19,-1.25,-1.11,-1.27,-1.13,1.12,0.88,0.99,-0.13,-0.15,-0.14
72.91,-1.25,-1.11,-1.24,-1.10,1.11,0.87,0.98,-0.14,-0.14,-0.14
73.64,-1.23,-1.09,-1.23,-1.09,1.09,0.86,0.97,-0.14,-0.13,-0.14
74.38,-1.21,-1.07,-1.22,-1.08,1.08,0.85,0.95,-0.13,-0.13,-0.14
75.12,-1.21,-1.07,-1.21,-1.07,1.08,0.84,0.94,-0.13,-0.13,-0.14
75.87,-1.21,-1.07,-1.21,-1.07,1.07,0.83,0.93,-0.14,-0.14,-0.14
76.63,-1.21,-1.07,-1.21,-1.07,1.07,0.82,0.92,-0.14,-0.14,-0.14
77.40,-1.21,-1.07,-1.21,-1.07,1.07,0.81,0.91,-0.14,-0.14,-0.14
78.17,-1.21,-1.07,-1.21,-1.07,1.07,0.80,0.90,-0.14,-0.14,-0.14
78.95,-1.21,-1.07,-1.21,-1.07,1.07,0.79,0.89,-0.14,-0.14,-0.14
79.74,-1.21,-1.07,-1.21,-1.07,1.07,0.78,0.88,-0.14,-0.14,-0.14
80.54,-1.21,-1.07,-1.21,-1.07,1.06,0.77,0.87,-0.15,-0.15,-0.14
81.35,-1.21,-1.07,-1.21,-1.07,1.06,0.77,0.87,-0.15,-0.15,-0.14
82.16,-1.21,-1.07,-1.20,-1.06,1.05,0.76,0.86,-0.16,-0.15,-0.14
82.98,-1.17,-1.03,-1.18,-1.04,1.04,0.75,0.85,-0.13,-0.14,-0.14
83.81,-1.16,-1.02,-1.17,-1.03,1.04,0.74,0.85,-0.12,-0.13,-0.14
84.65,-1.16,-1.02,-1.16,-1.02,1.03,0.74,0.84,-0.13,-0.13,-0.14
85.50,-1.16,-1.02,-1.16,-1.02,1.02,0.73,0.84,-0.14,-0.14,-0.14
86.35,-1.16,-1.02,-1.16,-1.02,1.02,0.72,0.83,-0.14,-0.15,-0.14
87.22,-1.16,-1.02,-1.16,-1.02,1.01,0.72,0.83,-0.15,-0.15,-0.14
88.09,-1.16,-1.02,-1.15,-1.01,1.01,0.71,0.83,-0.15,-0.15,-0.14
88.97,-1.14,-1.00,-1.14,-1.00,1.00,0.71,0.82,-0.14,-0.14,-0.14
89.86,-1.12,-0.98,-1.13,-0.99,1.00,0.70,0.82,-0.12,-0.13,-0.14
90.76,-1.12,-0.98,-1.12,-0.98,0.99,0.69,0.82,-0.13,-0.13,-0.14
91.66,-1.12,-0.98,-1.12,-0.98,0.98,0.69,0.82,-0.14,-0.15,-0.14
92.58,-1.12,-0.98,-1.12,-0.98,0.97,0.68,0.82,-0.15,-0.15,-0.14
93.51,-1.12,-0.98,-1.10,-0.96,0.96,0.68,0.82,-0.16,-0.15,-0.14
94.44,-1.07,-0.93,-1.09,-0.95,0.95,0.67,0.82,-0.12,-0.14,-0.14
95.39,-1.07,-0.93,-1.07,-0.93,0.94,0.67,0.83,-0.13,-0.13,-0.14
96.34,-1.07,-0.93,-1.07,-0.93,0.94,0.66,0.83,-0.13,-0.13,-0.14
97.30,-1.07,-0.93,-1.07,-0.93,0.93,0.66,0.83,-0.14,-0.14,-0.14
98.28,-1.07,-0.93,-1.07,-0.93,0.93,0.66,0.83,-0.14,-0.14,-0.14
99.26,-1.07,-0.93,-1.07,-0.93,0.93,0.65,0.84,-0.14,-0.14,-0.14
100.25,-1.07,-0.93,-1.07,-0.93,0.93,0.65,0.84,-0.14,-0.14,-0.14
101.25,-1.07,-0.93,-1.07,-0.93,0.93,0.64,0.85,-0.14,-0.14,-0.14
102.27,-1.07,-0.93,-1.07,-0.93,0.93,0.64,0.85,-0.14,-0.14,-0.14
103.29,-1.07,-0.93,-1.07,-0.94,0.92,0.64,0.86,-0.15,-0.15,-0.14
104.32,-1.07,-0.93,-1.07,-0.93,0.92,0.63,0.86,-0.15,-0.15,-0.14
105.37,-1.07,-0.93,-1.05,-0.91,0.91,0.63,0.87,-0.16,-0.14,-0.14
106.42,-1.02,-0.88,-1.04,-0.90,0.90,0.63,0.87,-0.12,-0.13,-0.14
107.48,-1.02,-0.88,-1.02,-0.88,0.89,0.63,0.88,-0.13,-0.13,-0.14
108.56,-1.02,-0.88,-1.02,-0.88,0.88,0.62,0.88,-0.14,-0.13,-0.14
109.64,-1.02,-0.88,-1.02,-0.88,0.87,0.62,0.89,-0.15,-0.15,-0.14
110.74,-1.02,-0.88,-1.01,-0.87,0.86,0.62,0.89,-0.16,-0.15,-0.14
111.85,-1.00,-0.86,-1.00,-0.86,0.86,0.62,0.90,-0.14,-0.14,-0.14
112.97,-0.98,-0.84,-0.99,-0.85,0.85,0.62,0.90,-0.13,-0.14,-0.14
114.10,-0.98,-0.84,-0.98,-0.84,0.85,0.61,0.91,-0.13,-0.13,-0.14
115.24,-0.98,-0.84,-0.98,-0.84,0.85,0.61,0.91,-0.13,-0.13,-0.14
116.39,-0.98,-0.84,-0.98,-0.84,0.84,0.61,0.91,-0.14,-0.13,-0.14
117.55,-0.98,-0.84,-0.98,-0.84,0.84,0.61,0.92,-0.14,-0.14,-0.14
118.73,-0.98,-0.84,-0.99,-0.85,0.85,0.61,0.92,-0.13,-0.14,-0.14
119.92,-1.00,-0.86,-1.00,-0.86,0.85,0.61,0.92,-0.15,-0.15,-0.14
121.12,-1.00,-0.86,-1.00,-0.86,0.85,0.61,0.92,-0.15,-0.15,-0.14
122.33,-1.00,-0.86,-1.00,-0.86,0.85,0.61,0.92,-0.15,-0.15,-0.14
123.55,-0.98,-0.84,-0.99,-0.85,0.85,0.61,0.92,-0.13,-0.14,-0.14
124.79,-0.98,-0.84,-0.98,-0.84,0.85,0.61,0.92,-0.13,-0.13,-0.14
126.03,-0.98,-0.84,-0.98,-0.84,0.84,0.61,0.92,-0.14,-0.13,-0.14
127.29,-0.98,-0.84,-0.98,-0.84,0.84,0.61,0.92,-0.14,-0.14,-0.14
128.57,-0.98,-0.84,-0.98,-0.84,0.84,0.61,0.91,-0.14,-0.14,-0.14
129.85,-0.98,-0.84,-0.98,-0.84,0.84,0.61,0.91,-0.14,-0.14,-0.14
131.15,-0.98,-0.84,-0.98,-0.84,0.84,0.61,0.90,-0.14,-0.14,-0.14
132.46,-0.98,-0.84,-0.98,-0.84,0.84,0.61,0.90,-0.14,-0.14,-0.14
133.79,-0.98,-0.84,-0.98,-0.84,0.84,0.61,0.89,-0.14,-0.15,-0.14
135.12,-0.98,-0.84,-0.98,-0.84,0.83,0.61,0.89,-0.15,-0.15,-0.14
136.48,-0.98,-0.84,-0.97,-0.83,0.82,0.61,0.88,-0.16,-0.15,-0.14
137.84,-0.96,-0.82,-0.96,-0.82,0.82,0.61,0.87,-0.14,-0.14,-0.14
139.22,-0.93,-0.79,-0.94,-0.80,0.81,0.61,0.86,-0.12,-0.13,-0.14
140.61,-0.93,-0.79,-0.93,-0.79,0.80,0.62,0.85,-0.13,-0.13,-0.14
142.02,-0.93,-0.79,-0.93,-0.79,0.79,0.62,0.85,-0.14,-0.13,-0.14
143.44,-0.93,-0.79,-0.93,-0.79,0.79,0.62,0.84,-0.14,-0.14,-0.14
144.87,-0.93,-0.79,-0.93,-0.79,0.79,0.62,0.83,-0.14,-0.14,-0.14
146.32,-0.93,-0.79,-0.93,-0.79,0.79,0.62,0.82,-0.14,-0.14,-0.14
147.78,-0.93,-0.79,-0.94,-0.80,0.80,0.63,0.81,-0.13,-0.14,-0.14
149.26,-0.95,-0.81,-0.95,-0.81,0.80,0.63,0.80,-0.15,-0.15,-0.14
150.75,-0.95,-0.81,-0.95,-0.81,0.80,0.63,0.79,-0.15,-0.15,-0.14
152.26,-0.95,-0.81,-0.95,-0.81,0.80,0.63,0.78,-0.15,-0.15,-0.14
153.78,-0.93,-0.79,-0.94,-0.80,0.80,0.64,0.78,-0.13,-0.14,-0.14
155.32,-0.93,-0.79,-0.93,-0.79,0.80,0.64,0.77,-0.13,-0.13,-0.14
156.88,-0.93,-0.79,-0.93,-0.79,0.79,0.64,0.76,-0.14,-0.13,-0.14
158.44,-0.93,-0.79,-0.93,-0.79,0.79,0.64,0.75,-0.14,-0.14,-0.14
160.03,-0.93,-0.79,-0.93,-0.79,0.79,0.65,0.74,-0.14,-0.14,-0.14
161.63,-0.93,-0.79,-0.93,-0.79,0.79,0.65,0.74,-0.14,-0.14,-0.14
163.24,-0.93,-0.79,-0.93,-0.79,0.79,0.65,0.73,-0.14,-0.14,-0.14
164.88,-0.93,-0.79,-0.93,-0.79,0.79,0.66,0.73,-0.14,-0.14,-0.14
166.53,-0.93,-0.79,-0.93,-0.79,0.79,0.66,0.72,-0.14,-0.14,-0.14
168.19,-0.93,-0.79,-0.93,-0.79,0.79,0.66,0.71,-0.14,-0.14,-0.14
169.87,-0.93,-0.79,-0.93,-0.79,0.79,0.67,0.71,-0.14,-0.14,-0.14
171.57,-0.93,-0.79,-0.93,-0.79,0.79,0.67,0.71,-0.14,-0.14,-0.14
173.29,-0.93,-0.79,-0.93,-0.79,0.79,0.67,0.70,-0.14,-0.14,-0.14
175.02,-0.93,-0.79,-0.93,-0.79,0.78,0.68,0.70,-0.15,-0.15,-0.14
176.77,-0.93,-0.79,-0.92,-0.78,0.77,0.68,0.70,-0.16,-0.15,-0.14
178.54,-0.91,-0.77,-0.91,-0.77,0.77,0.69,0.69,-0.14,-0.14,-0.14
180.32,-0.89,-0.75,-0.89,-0.75,0.76,0.69,0.69,-0.13,-0.13,-0.14
182.13,-0.88,-0.74,-0.88,-0.74,0.75,0.69,0.69,-0.13,-0.13,-0.14
183.95,-0.88,-0.74,-0.88,-0.74,0.75,0.70,0.69,-0.13,-0.13,-0.14
185.79,-0.88,-0.74,-0.88,-0.74,0.74,0.70,0.69,-0.14,-0.14,-0.14
187.65,-0.88,-0.74,-0.88,-0.74,0.74,0.71,0.69,-0.14,-0.14,-0.14
189.52,-0.88,-0.74,-0.88,-0.74,0.74,0.71,0.69,-0.14,-0.14,-0.14
191.42,-0.88,-0.74,-0.88,-0.74,0.74,0.72,0.69,-0.14,-0.14,-0.14
193.33,-0.88,-0.74,-0.88,-0.74,0.74,0.72,0.70,-0.14,-0.14,-0.14
195.27,-0.88,-0.74,-0.88,-0.74,0.74,0.72,0.70,-0.14,-0.14,-0.14
197.22,-0.88,-0.74,-0.88,-0.74,0.74,0.73,0.70,-0.14,-0.14,-0.14
199.19,-0.88,-0.74,-0.88,-0.74,0.74,0.73,0.70,-0.14,-0.14,-0.14
201.18,-0.88,-0.74,-0.88,-0.74,0.74,0.74,0.71,-0.14,-0.14,-0.14
203.19,-0.88,-0.74,-0.88,-0.74,0.74,0.74,0.71,-0.14,-0.14,-0.14
205.23,-0.88,-0.74,-0.88,-0.74,0.74,0.75,0.72,-0.14,-0.14,-0.14
207.28,-0.88,-0.74,-0.88,-0.74,0.74,0.75,0.72,-0.14,-0.14,-0.14
209.35,-0.88,-0.74,-0.88,-0.74,0.74,0.76,0.72,-0.14,-0.14,-0.14
211.44,-0.88,-0.74,-0.88,-0.74,0.74,0.76,0.73,-0.14,-0.14,-0.14
213.56,-0.88,-0.74,-0.88,-0.74,0.74,0.77,0.73,-0.14,-0.14,-0.14
215.69,-0.88,-0.74,-0.88,-0.74,0.74,0.77,0.74,-0.14,-0.14,-0.14
217.85,-0.88,-0.74,-0.88,-0.74,0.74,0.78,0.74,-0.14,-0.14,-0.14
220.03,-0.88,-0.74,-0.88,-0.74,0.74,0.78,0.75,-0.14,-0.14,-0.14
222.23,-0.88,-0.74,-0.88,-0.74,0.74,0.79,0.76,-0.14,-0.14,-0.14
224.45,-0.88,-0.74,-0.88,-0.74,0.74,0.79,0.76,-0.14,-0.14,-0.14
226.70,-0.88,-0.74,-0.88,-0.74,0.74,0.80,0.76,-0.14,-0.14,-0.14
228.96,-0.88,-0.74,-0.88,-0.74,0.74,0.80,0.77,-0.14,-0.14,-0.14
231.25,-0.88,-0.74,-0.88,-0.74,0.74,0.81,0.77,-0.14,-0.14,-0.14
233.57,-0.88,-0.74,-0.88,-0.74,0.74,0.81,0.78,-0.14,-0.14,-0.14
235.90,-0.88,-0.74,-0.88,-0.74,0.74,0.82,0.78,-0.14,-0.14,-0.14
238.26,-0.88,-0.74,-0.88,-0.74,0.74,0.82,0.79,-0.14,-0.13,-0.14
240.64,-0.88,-0.74,-0.88,-0.74,0.75,0.83,0.79,-0.13,-0.13,-0.14
243.05,-0.88,-0.74,-0.89,-0.75,0.75,0.83,0.79,-0.13,-0.14,-0.14
245.48,-0.91,-0.77,-0.90,-0.76,0.76,0.84,0.79,-0.15,-0.14,-0.14
247.93,-0.91,-0.77,-0.91,-0.77,0.76,0.84,0.79,-0.15,-0.15,-0.14
250.41,-0.91,-0.77,-0.91,-0.77,0.77,0.85,0.80,-0.15,-0.15,-0.14
252.92,-0.91,-0.77,-0.91,-0.77,0.77,0.86,0.80,-0.14,-0.14,-0.14
255.45,-0.91,-0.77,-0.91,-0.77,0.77,0.86,0.80,-0.14,-0.13,-0.14
258.00,-0.91,-0.77,-0.91,-0.77,0.78,0.87,0.80,-0.13,-0.13,-0.14
260.58,-0.91,-0.77,-0.92,-0.78,0.78,0.87,0.80,-0.13,-0.14,-0.14
263.19,-0.93,-0.79,-0.92,-0.78,0.78,0.88,0.80,-0.15,-0.14,-0.14
265.82,-0.93,-0.79,-0.93,-0.79,0.78,0.88,0.79,-0.15,-0.14,-0.14
268.48,-0.93,-0.79,-0.93,-0.79,0.79,0.89,0.79,-0.14,-0.14,-0.14
271.16,-0.93,-0.79,-0.93,-0.79,0.79,0.89,0.79,-0.14,-0.14,-0.14
273.87,-0.93,-0.79,-0.93,-0.79,0.79,0.90,0.79,-0.14,-0.14,-0.14
276.61,-0.93,-0.79,-0.93,-0.79,0.79,0.90,0.79,-0.14,-0.14,-0.14
279.38,-0.93,-0.79,-0.93,-0.79,0.79,0.91,0.78,-0.14,-0.14,-0.14
282.17,-0.93,-0.79,-0.93,-0.79,0.79,0.91,0.78,-0.14,-0.14,-0.14
284.99,-0.93,-0.79,-0.93,-0.79,0.79,0.92,0.78,-0.14,-0.14,-0.14
287.84,-0.93,-0.79,-0.93,-0.79,0.79,0.92,0.78,-0.14,-0.14,-0.14
290.72,-0.93,-0.79,-0.93,-0.79,0.79,0.93,0.77,-0.14,-0.14,-0.14
293.63,-0.93,-0.79,-0.93,-0.79,0.79,0.93,0.77,-0.14,-0.14,-0.14
296.57,-0.93,-0.79,-0.93,-0.79,0.79,0.93,0.77,-0.14,-0.14,-0.14
299.53,-0.93,-0.79,-0.93,-0.79,0.79,0.94,0.77,-0.14,-0.14,-0.14
302.53,-0.93,-0.79,-0.93,-0.79,0.79,0.94,0.77,-0.14,-0.14,-0.14
305.55,-0.93,-0.79,-0.93,-0.79,0.79,0.95,0.76,-0.14,-0.14,-0.14
308.61,-0.93,-0.79,-0.93,-0.79,0.79,0.95,0.76,-0.14,-0.14,-0.14
311.69,-0.93,-0.79,-0.93,-0.79,0.79,0.96,0.76,-0.14,-0.14,-0.14
314.81,-0.93,-0.79,-0.93,-0.79,0.79,0.96,0.76,-0.14,-0.14,-0.14
317.96,-0.93,-0.79,-0.93,-0.79,0.79,0.97,0.76,-0.14,-0.14,-0.14
321.14,-0.93,-0.79,-0.93,-0.79,0.79,0.97,0.76,-0.14,-0.14,-0.14
324.35,-0.93,-0.79,-0.93,-0.79,0.80,0.97,0.77,-0.13,-0.13,-0.14
327.59,-0.93,-0.79,-0.93,-0.79,0.80,0.98,0.77,-0.13,-0.13,-0.14
330.87,-0.94,-0.80,-0.95,-0.81,0.81,0.98,0.77,-0.13,-0.14,-0.14
334.18,-0.97,-0.83,-0.96,-0.82,0.82,0.99,0.77,-0.15,-0.14,-0.14
337.52,-0.98,-0.84,-0.98,-0.84,0.83,0.99,0.78,-0.15,-0.15,-0.14
340.90,-0.98,-0.84,-0.98,-0.84,0.83,0.99,0.78,-0.15,-0.15,-0.14
344.30,-0.98,-0.84,-0.98,-0.84,0.84,1.00,0.79,-0.14,-0.14,-0.14
347.75,-0.98,-0.84,-0.98,-0.84,0.84,1.00,0.79,-0.14,-0.14,-0.14
351.23,-0.98,-0.84,-0.98,-0.84,0.84,1.00,0.80,-0.14,-0.14,-0.14
354.74,-0.98,-0.84,-0.98,-0.84,0.84,1.01,0.80,-0.14,-0.14,-0.14
358.28,-0.98,-0.84,-0.98,-0.84,0.84,1.01,0.81,-0.14,-0.14,-0.14
361.87,-0.98,-0.84,-0.98,-0.84,0.84,1.01,0.82,-0.14,-0.14,-0.14
365.49,-0.98,-0.84,-0.98,-0.84,0.84,1.02,0.83,-0.14,-0.14,-0.14
369.14,-0.98,-0.84,-0.98,-0.84,0.84,1.02,0.84,-0.14,-0.14,-0.14
372.83,-0.98,-0.84,-0.98,-0.84,0.84,1.02,0.85,-0.14,-0.14,-0.14
376.56,-0.98,-0.84,-0.98,-0.84,0.84,1.03,0.86,-0.14,-0.14,-0.14
380.33,-0.98,-0.84,-0.98,-0.84,0.84,1.03,0.87,-0.14,-0.14,-0.14
384.13,-0.98,-0.84,-0.98,-0.84,0.84,1.03,0.88,-0.14,-0.14,-0.14
387.97,-0.98,-0.84,-0.98,-0.84,0.84,1.03,0.89,-0.14,-0.13,-0.14
391.85,-0.98,-0.84,-0.98,-0.84,0.85,1.04,0.90,-0.13,-0.13,-0.14
395.77,-0.98,-0.84,-0.99,-0.85,0.85,1.04,0.92,-0.13,-0.13,-0.14
399.73,-1.00,-0.86,-1.00,-0.86,0.86,1.04,0.93,-0.14,-0.14,-0.14
403.72,-1.02,-0.88,-1.01,-0.87,0.87,1.04,0.94,-0.15,-0.15,-0.14
407.76,-1.02,-0.88,-1.02,-0.88,0.87,1.04,0.96,-0.15,-0.15,-0.14
411.84,-1.02,-0.88,-1.02,-0.88,0.88,1.05,0.97,-0.14,-0.15,-0.14
415.96,-1.02,-0.88,-1.02,-0.88,0.88,1.05,0.98,-0.14,-0.14,-0.14
420.12,-1.02,-0.88,-1.02,-0.88,0.88,1.05,1.00,-0.14,-0.14,-0.14
424.32,-1.02,-0.88,-1.02,-0.88,0.88,1.05,1.01,-0.14,-0.14,-0.14
428.56,-1.02,-0.88,-1.02,-0.88,0.88,1.05,1.03,-0.14,-0.14,-0.14
432.85,-1.02,-0.88,-1.02,-0.88,0.88,1.05,1.04,-0.14,-0.14,-0.14
437.18,-1.02,-0.88,-1.02,-0.88,0.88,1.05,1.05,-0.14,-0.14,-0.14
441.55,-1.02,-0.88,-1.02,-0.88,0.88,1.05,1.06,-0.14,-0.14,-0.14
445.96,-1.02,-0.88,-1.02,-0.88,0.88,1.05,1.08,-0.14,-0.14,-0.14
