frequency,raw,error,smoothed,error_smoothed,equalization,parametric_eq,fixed_band_eq,equalized_raw,equalized_smoothed,target
20.00,6.30,2.22,6.29,2.21,-2.24,-2.09,-1.29,4.06,4.05,4.08
20.20,6.36,2.29,6.36,2.30,-2.31,-2.12,-1.32,4.05,4.05,4.07
20.40,6.41,2.36,6.42,2.37,-2.37,-2.14,-1.36,4.04,4.05,4.05
20.61,6.47,2.43,6.47,2.44,-2.42,-2.17,-1.40,4.05,4.05,4.04
20.81,6.52,2.50,6.52,2.50,-2.47,-2.19,-1.45,4.05,4.05,4.02
21.02,6.57,2.56,6.56,2.55,-2.51,-2.22,-1.49,4.06,4.04,4.01
21.23,6.57,2.57,6.57,2.58,-2.55,-2.25,-1.53,4.02,4.02,4.00
21.44,6.56,2.57,6.57,2.58,-2.58,-2.27,-1.58,3.98,3.99,3.99
21.66,6.56,2.59,6.56,2.58,-2.59,-2.30,-1.63,3.97,3.96,3.97
21.87,6.55,2.58,6.55,2.59,-2.61,-2.32,-1.68,3.94,3.95,3.96
22.09,6.55,2.60,6.55,2.60,-2.61,-2.35,-1.73,3.93,3.94,3.95
22.31,6.56,2.62,6.56,2.61,-2.62,-2.37,-1.78,3.94,3.93,3.94
22.54,6.57,2.64,6.57,2.63,-2.64,-2.40,-1.83,3.93,3.93,3.93
22.76,6.58,2.66,6.58,2.65,-2.65,-2.42,-1.88,3.93,3.93,3.92
22.99,6.59,2.67,6.59,2.67,-2.67,-2.45,-1.94,3.92,3.92,3.92
23.22,6.60,2.69,6.60,2.69,-2.68,-2.47,-2.00,3.91,3.92,3.91
23.45,6.62,2.71,6.62,2.70,-2.70,-2.50,-2.05,3.92,3.91,3.91
23.69,6.63,2.72,6.63,2.72,-2.72,-2.52,-2.11,3.91,3.91,3.91
23.92,6.65,2.74,6.65,2.74,-2.74,-2.55,-2.17,3.91,3.90,3.91
24.16,6.66,2.75,6.67,2.76,-2.76,-2.57,-2.23,3.90,3.90,3.91
24.40,6.69,2.78,6.69,2.78,-2.78,-2.60,-2.29,3.91,3.91,3.91
24.65,6.71,2.80,6.71,2.80,-2.80,-2.62,-2.36,3.91,3.91,3.91
24.89,6.73,2.82,6.73,2.82,-2.81,-2.65,-2.42,3.92,3.92,3.91
25.14,6.74,2.83,6.74,2.83,-2.82,-2.67,-2.48,3.92,3.91,3.91
25.39,6.74,2.83,6.74,2.84,-2.83,-2.69,-2.55,3.91,3.91,3.91
25.65,6.74,2.84,6.74,2.84,-2.84,-2.72,-2.61,3.90,3.90,3.89
25.91,6.74,2.85,6.74,2.85,-2.85,-2.74,-2.68,3.89,3.89,3.89
26.16,6.74,2.86,6.74,2.85,-2.85,-2.76,-2.74,3.88,3.88,3.88
26.43,6.74,2.86,6.74,2.86,-2.86,-2.79,-2.80,3.88,3.88,3.88
26.69,6.74,2.87,6.74,2.87,-2.87,-2.81,-2.87,3.87,3.87,3.87
26.96,6.74,2.88,6.74,2.88,-2.88,-2.83,-2.93,3.86,3.86,3.86
27.23,6.75,2.89,6.75,2.89,-2.90,-2.85,-2.99,3.85,3.85,3.86
27.50,6.76,2.91,6.76,2.91,-2.92,-2.87,-3.05,3.84,3.84,3.85
27.77,6.77,2.93,6.77,2.93,-2.94,-2.89,-3.11,3.83,3.83,3.84
28.05,6.78,2.95,6.78,2.95,-2.95,-2.91,-3.16,3.82,3.83,3.83
28.33,6.80,2.98,6.80,2.98,-2.97,-2.93,-3.21,3.83,3.83,3.82
28.62,6.82,3.00,6.82,3.00,-2.99,-2.95,-3.26,3.83,3.83,3.82
28.90,6.83,3.02,6.83,3.01,-3.00,-2.97,-3.31,3.83,3.83,3.81
29.19,6.84,3.02,6.84,3.02,-3.01,-2.99,-3.35,3.83,3.82,3.82
29.48,6.84,3.02,6.84,3.02,-3.02,-3.01,-3.39,3.82,3.82,3.82
29.78,6.84,3.02,6.84,3.02,-3.02,-3.03,-3.43,3.81,3.82,3.82
30.08,6.84,3.02,6.84,3.02,-3.03,-3.04,-3.46,3.81,3.81,3.82
30.38,6.84,3.03,6.84,3.03,-3.03,-3.06,-3.48,3.81,3.81,3.81
30.68,6.84,3.03,6.84,3.03,-3.03,-3.08,-3.51,3.81,3.81,3.81
30.99,6.84,3.03,6.84,3.03,-3.03,-3.09,-3.52,3.81,3.81,3.81
31.30,6.84,3.03,6.84,3.03,-3.03,-3.11,-3.54,3.81,3.81,3.81
31.61,6.84,3.03,6.84,3.03,-3.03,-3.12,-3.55,3.80,3.80,3.81
31.93,6.84,3.03,6.84,3.04,-3.04,-3.13,-3.55,3.80,3.80,3.80
32.24,6.84,3.05,6.84,3.04,-3.04,-3.15,-3.55,3.80,3.80,3.79
32.57,6.84,3.05,6.84,3.05,-3.05,-3.16,-3.54,3.79,3.79,3.79
32.89,6.84,3.05,6.84,3.05,-3.05,-3.17,-3.53,3.79,3.79,3.79
33.22,6.84,3.05,6.84,3.05,-3.06,-3.18,-3.52,3.78,3.78,3.79
33.55,6.84,3.06,6.84,3.06,-3.06,-3.19,-3.50,3.78,3.78,3.78
33.89,6.84,3.07,6.84,3.07,-3.07,-3.20,-3.48,3.77,3.77,3.77
34.23,6.84,3.07,6.84,3.07,-3.08,-3.21,-3.46,3.76,3.76,3.77
34.57,6.84,3.07,6.84,3.08,-3.08,-3.22,-3.43,3.76,3.76,3.76
34.92,6.84,3.08,6.84,3.08,-3.08,-3.23,-3.41,3.76,3.76,3.76
35.27,6.84,3.08,6.84,3.09,-3.07,-3.24,-3.38,3.77,3.77,3.76
35.62,6.84,3.08,6.84,3.09,-3.06,-3.24,-3.34,3.78,3.78,3.76
35.97,6.84,3.10,6.82,3.08,-3.04,-3.25,-3.31,3.79,3.78,3.74
36.33,6.79,3.05,6.78,3.04,-3.03,-3.25,-3.27,3.76,3.75,3.74
36.70,6.73,2.99,6.74,3.00,-3.03,-3.26,-3.24,3.70,3.71,3.74
37.06,6.69,2.96,6.71,2.98,-3.03,-3.26,-3.20,3.66,3.68,3.73
37.43,6.71,2.99,6.70,2.98,-3.03,-3.27,-3.17,3.68,3.67,3.72
37.81,6.73,3.02,6.72,3.01,-3.03,-3.27,-3.13,3.70,3.69,3.71
38.19,6.75,3.05,6.76,3.06,-3.04,-3.27,-3.09,3.71,3.72,3.70
38.57,6.77,3.08,6.78,3.09,-3.04,-3.27,-3.06,3.72,3.73,3.69
38.95,6.80,3.13,6.77,3.10,-3.05,-3.27,-3.02,3.75,3.72,3.67
39.34,6.75,3.08,6.74,3.08,-3.06,-3.27,-2.99,3.69,3.69,3.67
39.74,6.69,3.04,6.70,3.05,-3.06,-3.27,-2.96,3.63,3.64,3.65
40.14,6.65,3.01,6.66,3.02,-3.06,-3.27,-2.93,3.59,3.60,3.64
40.54,6.65,3.03,6.65,3.02,-3.05,-3.26,-2.90,3.60,3.59,3.62
40.94,6.65,3.03,6.65,3.03,-3.05,-3.26,-2.87,3.60,3.60,3.62
41.35,6.65,3.04,6.65,3.04,-3.04,-3.26,-2.84,3.61,3.61,3.61
41.76,6.65,3.04,6.65,3.04,-3.04,-3.25,-2.82,3.61,3.61,3.60
42.18,6.65,3.05,6.66,3.06,-3.03,-3.25,-2.80,3.62,3.63,3.60
42.60,6.65,3.06,6.65,3.06,-3.03,-3.24,-2.77,3.62,3.63,3.59
43.03,6.65,3.06,6.62,3.04,-3.02,-3.23,-2.76,3.63,3.60,3.59
43.46,6.58,3.00,6.58,2.99,-3.01,-3.22,-2.74,3.57,3.56,3.58
43.90,6.51,2.93,6.54,2.96,-3.00,-3.22,-2.73,3.51,3.55,3.58
44.33,6.52,2.95,6.54,2.96,-2.98,-3.21,-2.71,3.54,3.56,3.57
44.78,6.57,3.00,6.54,2.97,-2.96,-3.20,-2.70,3.60,3.58,3.57
45.23,6.56,3.00,6.54,2.98,-2.95,-3.19,-2.69,3.61,3.58,3.56
45.68,6.49,2.94,6.50,2.95,-2.94,-3.18,-2.69,3.55,3.56,3.55
46.13,6.45,2.91,6.47,2.92,-2.94,-3.16,-2.68,3.51,3.53,3.54
46.60,6.45,2.92,6.44,2.91,-2.93,-3.15,-2.68,3.52,3.51,3.53
47.06,6.45,2.92,6.45,2.93,-2.92,-3.14,-2.68,3.52,3.53,3.52
47.53,6.45,2.93,6.45,2.94,-2.92,-3.13,-2.68,3.53,3.53,3.51
48.01,6.45,2.95,6.42,2.92,-2.92,-3.11,-2.69,3.53,3.50,3.49
48.49,6.38,2.89,6.37,2.89,-2.91,-3.10,-2.69,3.47,3.46,3.48
48.97,6.30,2.84,6.36,2.89,-2.91,-3.08,-2.70,3.39,3.45,3.46
49.46,6.36,2.91,6.36,2.91,-2.91,-3.06,-2.71,3.45,3.45,3.45
49.96,6.41,2.97,6.36,2.92,-2.90,-3.05,-2.72,3.51,3.46,3.44
50.46,6.35,2.92,6.35,2.91,-2.88,-3.03,-2.73,3.47,3.47,3.43
50.96,6.27,2.84,6.31,2.88,-2.86,-3.01,-2.74,3.41,3.45,3.43
51.47,6.26,2.84,6.26,2.85,-2.84,-3.00,-2.75,3.41,3.42,3.42
51.99,6.26,2.86,6.22,2.82,-2.84,-2.98,-2.77,3.42,3.38,3.40
52.51,6.18,2.80,6.18,2.80,-2.83,-2.96,-2.78,3.35,3.35,3.38
53.03,6.11,2.74,6.15,2.78,-2.83,-2.94,-2.80,3.28,3.32,3.36
53.56,6.14,2.79,6.14,2.79,-2.82,-2.92,-2.81,3.32,3.32,3.35
54.10,6.17,2.83,6.17,2.83,-2.81,-2.90,-2.83,3.35,3.35,3.33
54.64,6.20,2.88,6.19,2.87,-2.81,-2.88,-2.84,3.39,3.38,3.32
55.18,6.19,2.89,6.17,2.87,-2.80,-2.86,-2.86,3.38,3.37,3.30
55.74,6.11,2.82,6.11,2.82,-2.80,-2.83,-2.87,3.31,3.30,3.29
56.29,6.03,2.76,6.02,2.75,-2.80,-2.81,-2.89,3.23,3.23,3.27
56.86,5.94,2.69,5.98,2.73,-2.79,-2.79,-2.90,3.15,3.19,3.25
57.42,5.96,2.73,5.97,2.74,-2.77,-2.77,-2.91,3.19,3.20,3.23
58.00,6.02,2.80,5.97,2.76,-2.75,-2.74,-2.92,3.27,3.22,3.21
58.58,5.96,2.76,5.97,2.77,-2.73,-2.72,-2.93,3.23,3.24,3.19
59.16,5.91,2.73,5.93,2.76,-2.72,-2.70,-2.93,3.19,3.21,3.17
59.76,5.89,2.74,5.86,2.71,-2.72,-2.67,-2.94,3.17,3.15,3.15
60.35,5.83,2.70,5.82,2.68,-2.71,-2.65,-2.94,3.12,3.11,3.13
60.96,5.74,2.62,5.80,2.68,-2.69,-2.62,-2.94,3.05,3.10,3.12
61.57,5.79,2.69,5.77,2.68,-2.68,-2.60,-2.94,3.11,3.10,3.10
62.18,5.80,2.73,5.74,2.67,-2.66,-2.58,-2.93,3.14,3.08,3.07
62.80,5.68,2.64,5.70,2.66,-2.64,-2.55,-2.92,3.04,3.06,3.04
63.43,5.62,2.61,5.64,2.63,-2.63,-2.53,-2.91,2.99,3.01,3.01
64.07,5.59,2.61,5.58,2.60,-2.62,-2.50,-2.90,2.97,2.96,2.98
64.71,5.56,2.61,5.56,2.61,-2.61,-2.47,-2.88,2.95,2.95,2.95
65.35,5.53,2.61,5.53,2.61,-2.60,-2.45,-2.86,2.93,2.92,2.91
66.01,5.50,2.61,5.47,2.59,-2.60,-2.42,-2.84,2.90,2.88,2.89
66.67,5.41,2.56,5.43,2.58,-2.59,-2.40,-2.82,2.82,2.84,2.85
67.33,5.37,2.55,5.40,2.59,-2.59,-2.37,-2.79,2.78,2.81,2.82
68.01,5.40,2.62,5.38,2.60,-2.59,-2.34,-2.76,2.81,2.79,2.78
68.69,5.37,2.62,5.33,2.59,-2.58,-2.32,-2.74,2.79,2.75,2.75
69.37,5.28,2.58,5.29,2.59,-2.57,-2.29,-2.70,2.71,2.72,2.70
70.07,5.18,2.51,5.25,2.58,-2.56,-2.26,-2.67,2.62,2.68,2.67
70.77,5.25,2.62,5.19,2.56,-2.56,-2.24,-2.64,2.69,2.63,2.63
71.48,5.16,2.57,5.13,2.54,-2.55,-2.21,-2.61,2.61,2.57,2.59
72.19,5.03,2.48,5.07,2.52,-2.55,-2.18,-2.57,2.48,2.52,2.55
72.91,4.98,2.47,5.02,2.51,-2.54,-2.16,-2.54,2.44,2.47,2.51
73.64,5.03,2.56,5.01,2.54,-2.54,-2.13,-2.50,2.49,2.47,2.47
74.38,5.03,2.59,5.00,2.57,-2.54,-2.10,-2.47,2.49,2.46,2.43
75.12,4.96,2.56,4.96,2.57,-2.53,-2.08,-2.43,2.42,2.42,2.40
75.87,4.87,2.52,4.89,2.54,-2.53,-2.05,-2.40,2.34,2.36,2.35
76.63,4.81,2.50,4.83,2.52,-2.52,-2.02,-2.37,2.29,2.31,2.30
77.40,4.78,2.52,4.76,2.49,-2.51,-2.00,-2.33,2.27,2.25,2.26
78.17,4.73,2.51,4.71,2.49,-2.50,-1.97,-2.30,2.23,2.22,2.22
78.95,4.61,2.43,4.67,2.49,-2.49,-1.94,-2.27,2.12,2.18,2.18
79.74,4.65,2.51,4.59,2.45,-2.48,-1.92,-2.24,2.17,2.11,2.13
80.54,4.53,2.44,4.52,2.43,-2.47,-1.89,-2.21,2.06,2.05,2.09
81.35,4.43,2.39,4.51,2.47,-2.45,-1.86,-2.18,1.98,2.05,2.04
82.16,4.47,2.47,4.45,2.46,-2.44,-1.84,-2.16,2.03,2.02,2.00
82.98,4.50,2.56,4.41,2.47,-2.42,-1.81,-2.13,2.08,1.99,1.94
83.81,4.28,2.39,4.35,2.46,-2.41,-1.79,-2.11,1.87,1.94,1.89
84.65,4.24,2.40,4.23,2.39,-2.41,-1.76,-2.08,1.83,1.82,1.84
85.50,4.14,2.36,4.11,2.33,-2.40,-1.73,-2.06,1.74,1.71,1.78
86.35,4.03,2.30,4.08,2.35,-2.40,-1.71,-2.04,1.63,1.68,1.73
87.22,4.03,2.36,4.04,2.37,-2.39,-1.68,-2.03,1.64,1.66,1.67
88.09,4.09,2.47,4.04,2.42,-2.38,-1.66,-2.01,1.71,1.66,1.62
88.97,3.98,2.42,4.01,2.45,-2.38,-1.63,-2.00,1.60,1.63,1.56
89.86,3.95,2.45,3.91,2.41,-2.38,-1.61,-1.98,1.57,1.52,1.50
90.76,3.78,2.34,3.80,2.36,-2.39,-1.58,-1.97,1.39,1.41,1.44
91.66,3.67,2.29,3.73,2.35,-2.38,-1.55,-1.96,1.29,1.35,1.38
92.58,3.69,2.38,3.66,2.35,-2.36,-1.53,-1.95,1.33,1.30,1.31
93.51,3.65,2.40,3.62,2.37,-2.34,-1.50,-1.95,1.31,1.27,1.25
94.44,3.53,2.35,3.55,2.37,-2.33,-1.48,-1.94,1.20,1.22,1.18
95.39,3.45,2.33,3.44,2.32,-2.32,-1.45,-1.94,1.13,1.12,1.12
96.34,3.34,2.29,3.33,2.28,-2.32,-1.43,-1.93,1.02,1.01,1.05
97.30,3.22,2.24,3.25,2.27,-2.32,-1.41,-1.93,0.90,0.93,0.97
98.28,3.19,2.28,3.19,2.29,-2.31,-1.38,-1.93,0.88,0.89,0.91
99.26,3.16,2.33,3.15,2.32,-2.29,-1.36,-1.93,0.87,0.86,0.83
100.25,3.10,2.35,3.08,2.33,-2.27,-1.33,-1.93,0.83,0.81,0.75
101.25,2.99,2.31,2.97,2.30,-2.26,-1.31,-1.93,0.73,0.71,0.68
102.27,2.81,2.21,2.85,2.25,-2.25,-1.29,-1.94,0.56,0.60,0.60
103.29,2.73,2.21,2.72,2.20,-2.24,-1.26,-1.94,0.49,0.48,0.52
104.32,2.63,2.19,2.61,2.17,-2.22,-1.24,-1.94,0.41,0.39,0.44
105.37,2.51,2.15,2.54,2.18,-2.20,-1.21,-1.95,0.31,0.34,0.35
106.42,2.46,2.18,2.47,2.19,-2.17,-1.19,-1.95,0.29,0.30,0.28
107.48,2.42,2.22,2.39,2.19,-2.15,-1.17,-1.95,0.27,0.24,0.20
108.56,2.31,2.19,2.28,2.16,-2.13,-1.14,-1.96,0.18,0.15,0.12
109.64,2.13,2.09,2.15,2.10,-2.11,-1.12,-1.96,0.02,0.04,0.04
110.74,2.00,2.02,2.04,2.07,-2.09,-1.10,-1.96,-0.09,-0.05,-0.02
111.85,1.96,2.06,1.96,2.06,-2.06,-1.08,-1.96,-0.10,-0.11,-0.10
112.97,1.93,2.10,1.87,2.03,-2.04,-1.05,-1.96,-0.11,-0.17,-0.17
114.10,1.76,1.99,1.77,2.01,-2.01,-1.03,-1.96,-0.25,-0.23,-0.23
115.24,1.62,1.92,1.67,1.97,-1.98,-1.01,-1.95,-0.36,-0.31,-0.30
116.39,1.60,1.97,1.57,1.94,-1.95,-0.99,-1.95,-0.36,-0.38,-0.37
117.55,1.52,1.94,1.51,1.94,-1.93,-0.96,-1.94,-0.41,-0.41,-0.42
118.73,1.43,1.92,1.44,1.93,-1.89,-0.94,-1.93,-0.46,-0.45,-0.49
119.92,1.36,1.90,1.33,1.88,-1.86,-0.92,-1.92,-0.50,-0.53,-0.54
121.12,1.21,1.82,1.22,1.83,-1.83,-0.90,-1.91,-0.62,-0.61,-0.61
122.33,1.11,1.77,1.12,1.78,-1.80,-0.87,-1.89,-0.69,-0.68,-0.66
123.55,1.03,1.73,1.02,1.73,-1.76,-0.85,-1.87,-0.73,-0.74,-0.70
124.79,0.97,1.72,0.96,1.71,-1.72,-0.83,-1.85,-0.75,-0.76,-0.75
126.03,0.86,1.68,0.90,1.71,-1.68,-0.81,-1.82,-0.82,-0.78,-0.82
127.29,0.85,1.71,0.81,1.67,-1.64,-0.79,-1.79,-0.79,-0.83,-0.86
128.57,0.74,1.65,0.70,1.61,-1.61,-0.76,-1.76,-0.87,-0.91,-0.91
129.85,0.53,1.49,0.60,1.55,-1.58,-0.74,-1.73,-1.05,-0.98,-0.96
131.15,0.50,1.51,0.49,1.50,-1.54,-0.72,-1.69,-1.04,-1.05,-1.01
132.46,0.43,1.48,0.42,1.48,-1.49,-0.70,-1.66,-1.06,-1.07,-1.06
133.79,0.36,1.47,0.36,1.47,-1.44,-0.68,-1.61,-1.08,-1.08,-1.11
135.12,0.30,1.46,0.27,1.43,-1.39,-0.65,-1.57,-1.09,-1.11,-1.16
136.48,0.14,1.34,0.16,1.37,-1.34,-0.63,-1.52,-1.20,-1.18,-1.21
137.84,0.05,1.31,0.03,1.28,-1.30,-0.61,-1.48,-1.25,-1.27,-1.26
139.22,-0.11,1.19,-0.09,1.21,-1.26,-0.59,-1.43,-1.37,-1.35,-1.30
140.61,-0.21,1.15,-0.19,1.17,-1.21,-0.56,-1.37,-1.42,-1.40,-1.36
142.02,-0.24,1.17,-0.26,1.14,-1.16,-0.54,-1.32,-1.40,-1.43,-1.41
143.44,-0.33,1.13,-0.33,1.13,-1.11,-0.52,-1.26,-1.44,-1.44,-1.46
144.87,-0.41,1.09,-0.41,1.09,-1.05,-0.50,-1.21,-1.47,-1.47,-1.50
146.32,-0.52,1.03,-0.53,1.03,-1.00,-0.47,-1.15,-1.52,-1.53,-1.55
147.78,-0.66,0.95,-0.65,0.96,-0.94,-0.45,-1.09,-1.60,-1.58,-1.61
149.26,-0.78,0.88,-0.78,0.88,-0.88,-0.43,-1.03,-1.66,-1.66,-1.66
150.75,-0.89,0.82,-0.92,0.79,-0.81,-0.40,-0.97,-1.70,-1.73,-1.71
152.26,-1.06,0.69,-1.04,0.71,-0.75,-0.38,-0.91,-1.81,-1.79,-1.76
153.78,-1.16,0.63,-1.14,0.65,-0.69,-0.35,-0.85,-1.85,-1.83,-1.79
155.32,-1.21,0.63,-1.23,0.60,-0.63,-0.33,-0.78,-1.84,-1.87,-1.84
156.88,-1.29,0.59,-1.29,0.58,-0.58,-0.31,-0.72,-1.87,-1.87,-1.88
158.44,-1.38,0.53,-1.36,0.56,-0.52,-0.28,-0.66,-1.90,-1.88,-1.91
160.03,-1.43,0.53,-1.45,0.51,-0.47,-0.25,-0.59,-1.90,-1.92,-1.96
161.63,-1.55,0.45,-1.56,0.44,-0.41,-0.23,-0.53,-1.96,-1.97,-2.00
163.24,-1.69,0.35,-1.69,0.35,-0.35,-0.20,-0.46,-2.04,-2.03,-2.04
164.88,-1.83,0.25,-1.82,0.26,-0.28,-0.17,-0.40,-2.11,-2.10,-2.08
166.53,-1.93,0.19,-1.93,0.18,-0.21,-0.15,-0.33,-2.14,-2.15,-2.12
168.19,-2.03,0.13,-2.04,0.12,-0.14,-0.12,-0.27,-2.17,-2.18,-2.16
169.87,-2.13,0.06,-2.13,0.07,-0.07,-0.09,-0.20,-2.20,-2.20,-2.19
171.57,-2.23,-0.00,-2.22,0.01,-0.00,-0.06,-0.14,-2.23,-2.22,-2.23
173.29,-2.30,-0.03,-2.31,-0.05,0.07,-0.03,-0.07,-2.23,-2.25,-2.27
175.02,-2.41,-0.11,-2.42,-0.12,0.13,0.00,-0.01,-2.28,-2.29,-2.30
176.77,-2.54,-0.21,-2.53,-0.20,0.20,0.03,0.06,-2.34,-2.32,-2.33
178.54,-2.65,-0.29,-2.62,-0.27,0.28,0.07,0.12,-2.38,-2.35,-2.36
180.32,-2.70,-0.32,-2.73,-0.35,0.35,0.10,0.19,-2.35,-2.38,-2.38
182.13,-2.80,-0.40,-2.83,-0.42,0.42,0.14,0.26,-2.38,-2.41,-2.41
183.95,-2.97,-0.54,-2.92,-0.49,0.48,0.17,0.32,-2.49,-2.44,-2.43
185.79,-3.02,-0.56,-3.02,-0.57,0.54,0.21,0.39,-2.48,-2.47,-2.46
187.65,-3.06,-0.59,-3.09,-0.62,0.60,0.25,0.45,-2.46,-2.49,-2.47
189.52,-3.15,-0.66,-3.13,-0.64,0.65,0.28,0.52,-2.50,-2.48,-2.49
191.42,-3.21,-0.70,-3.20,-0.69,0.70,0.32,0.59,-2.51,-2.50,-2.51
193.33,-3.23,-0.70,-3.27,-0.75,0.75,0.37,0.65,-2.48,-2.52,-2.53
195.27,-3.35,-0.82,-3.33,-0.79,0.80,0.41,0.72,-2.55,-2.53,-2.53
197.22,-3.42,-0.87,-3.39,-0.84,0.85,0.45,0.78,-2.57,-2.55,-2.55
199.19,-3.43,-0.86,-3.46,-0.89,0.90,0.50,0.85,-2.53,-2.56,-2.57
201.18,-3.52,-0.94,-3.53,-0.94,0.96,0.55,0.91,-2.56,-2.57,-2.58
203.19,-3.62,-1.02,-3.61,-1.01,1.02,0.59,0.98,-2.60,-2.59,-2.60
205.23,-3.71,-1.09,-3.71,-1.09,1.08,0.65,1.04,-2.63,-2.62,-2.62
207.28,-3.78,-1.15,-3.77,-1.14,1.14,0.70,1.10,-2.64,-2.63,-2.63
209.35,-3.84,-1.19,-3.84,-1.19,1.19,0.75,1.17,-2.65,-2.65,-2.65
211.44,-3.90,-1.23,-3.93,-1.26,1.25,0.81,1.23,-2.65,-2.69,-2.67
213.56,-4.02,-1.34,-4.00,-1.32,1.30,0.86,1.29,-2.72,-2.71,-2.68
215.69,-4.10,-1.40,-4.06,-1.36,1.35,0.92,1.34,-2.75,-2.70,-2.70
217.85,-4.07,-1.35,-4.10,-1.38,1.40,0.98,1.40,-2.67,-2.70,-2.72
220.03,-4.12,-1.38,-4.14,-1.41,1.44,1.04,1.45,-2.68,-2.70,-2.74
222.23,-4.22,-1.47,-4.21,-1.46,1.48,1.10,1.51,-2.74,-2.73,-2.75
224.45,-4.30,-1.54,-4.30,-1.53,1.51,1.16,1.56,-2.79,-2.79,-2.76
226.70,-4.37,-1.60,-4.36,-1.59,1.54,1.23,1.60,-2.83,-2.82,-2.77
228.96,-4.38,-1.60,-4.38,-1.60,1.57,1.29,1.65,-2.81,-2.81,-2.78
231.25,-4.38,-1.60,-4.37,-1.58,1.60,1.35,1.69,-2.79,-2.77,-2.78
233.57,-4.36,-1.57,-4.37,-1.57,1.62,1.42,1.73,-2.74,-2.75,-2.79
235.90,-4.35,-1.56,-4.40,-1.60,1.64,1.48,1.76,-2.71,-2.76,-2.79
238.26,-4.46,-1.66,-4.44,-1.65,1.65,1.54,1.79,-2.81,-2.79,-2.80
240.64,-4.51,-1.72,-4.49,-1.70,1.67,1.60,1.82,-2.84,-2.82,-2.79
243.05,-4.50,-1.71,-4.50,-1.71,1.68,1.66,1.84,-2.82,-2.82,-2.79
245.48,-4.48,-1.70,-4.49,-1.70,1.70,1.71,1.86,-2.78,-2.79,-2.78
247.93,-4.45,-1.67,-4.48,-1.70,1.71,1.76,1.88,-2.74,-2.77,-2.78
250.41,-4.51,-1.73,-4.49,-1.71,1.72,1.81,1.89,-2.79,-2.77,-2.78
252.92,-4.51,-1.73,-4.50,-1.73,1.72,1.85,1.89,-2.79,-2.79,-2.78
255.45,-4.50,-1.73,-4.51,-1.73,1.71,1.89,1.90,-2.79,-2.80,-2.77
258.00,-4.49,-1.71,-4.49,-1.71,1.70,1.92,1.89,-2.79,-2.79,-2.78
260.58,-4.48,-1.69,-4.48,-1.70,1.70,1.95,1.89,-2.78,-2.78,-2.79
263.19,-4.48,-1.69,-4.48,-1.68,1.70,1.96,1.88,-2.78,-2.78,-2.79
265.82,-4.48,-1.67,-4.48,-1.67,1.70,1.98,1.87,-2.78,-2.78,-2.81
268.48,-4.49,-1.68,-4.50,-1.69,1.71,1.98,1.85,-2.79,-2.80,-2.81
271.16,-4.53,-1.70,-4.54,-1.71,1.71,1.98,1.83,-2.82,-2.83,-2.83
273.87,-4.59,-1.75,-4.57,-1.73,1.72,1.97,1.81,-2.87,-2.85,-2.85
276.61,-4.59,-1.74,-4.59,-1.74,1.73,1.95,1.78,-2.86,-2.87,-2.85
279.38,-4.59,-1.74,-4.60,-1.74,1.73,1.93,1.75,-2.86,-2.86,-2.86
282.17,-4.59,-1.72,-4.59,-1.72,1.73,1.90,1.72,-2.87,-2.86,-2.87
284.99,-4.58,-1.71,-4.59,-1.72,1.71,1.86,1.69,-2.87,-2.88,-2.87
287.84,-4.58,-1.70,-4.58,-1.70,1.68,1.82,1.66,-2.90,-2.90,-2.88
290.72,-4.57,-1.68,-4.56,-1.67,1.64,1.78,1.62,-2.93,-2.92,-2.89
293.63,-4.50,-1.60,-4.51,-1.61,1.59,1.73,1.58,-2.91,-2.91,-2.90
296.57,-4.45,-1.55,-4.44,-1.54,1.55,1.68,1.54,-2.90,-2.89,-2.90
299.53,-4.36,-1.47,-4.37,-1.47,1.51,1.62,1.50,-2.85,-2.87,-2.89
302.53,-4.32,-1.42,-4.33,-1.43,1.46,1.57,1.46,-2.86,-2.87,-2.90
305.55,-4.31,-1.40,-4.31,-1.40,1.42,1.51,1.42,-2.89,-2.89,-2.91
308.61,-4.31,-1.40,-4.31,-1.39,1.39,1.45,1.38,-2.93,-2.92,-2.92
311.69,-4.30,-1.38,-4.30,-1.37,1.35,1.39,1.34,-2.95,-2.94,-2.92
314.81,-4.28,-1.35,-4.27,-1.34,1.33,1.33,1.30,-2.96,-2.94,-2.93
317.96,-4.22,-1.29,-4.24,-1.30,1.30,1.27,1.26,-2.92,-2.93,-2.93
321.14,-4.20,-1.26,-4.21,-1.27,1.28,1.21,1.22,-2.92,-2.94,-2.94
324.35,-4.20,-1.25,-4.19,-1.24,1.25,1.16,1.18,-2.95,-2.94,-2.95
327.59,-4.19,-1.23,-4.17,-1.21,1.22,1.10,1.14,-2.97,-2.95,-2.96
330.87,-4.13,-1.17,-4.15,-1.18,1.18,1.04,1.10,-2.95,-2.96,-2.97
334.18,-4.11,-1.14,-4.12,-1.15,1.15,0.99,1.06,-2.96,-2.98,-2.97
337.52,-4.11,-1.14,-4.10,-1.12,1.11,0.94,1.02,-3.00,-2.99,-2.97
340.90,-4.08,-1.10,-4.07,-1.09,1.07,0.88,0.99,-3.01,-3.00,-2.98
344.30,-4.02,-1.04,-4.03,-1.04,1.04,0.83,0.95,-2.99,-2.99,-2.98
347.75,-3.98,-0.99,-3.98,-0.99,1.00,0.79,0.91,-2.98,-2.97,-2.99
351.23,-3.93,-0.93,-3.94,-0.94,0.97,0.74,0.88,-2.96,-2.96,-3.00
354.74,-3.91,-0.91,-3.92,-0.92,0.95,0.69,0.84,-2.96,-2.97,-3.00
358.28,-3.91,-0.91,-3.91,-0.90,0.92,0.65,0.81,-2.99,-2.99,-3.00
361.87,-3.90,-0.90,-3.91,-0.90,0.89,0.61,0.77,-3.01,-3.02,-3.00
365.49,-3.90,-0.90,-3.90,-0.89,0.86,0.57,0.74,-3.04,-3.04,-3.01
369.14,-3.88,-0.87,-3.87,-0.86,0.83,0.53,0.71,-3.05,-3.04,-3.01
372.83,-3.82,-0.81,-3.82,-0.81,0.79,0.49,0.68,-3.03,-3.03,-3.01
376.56,-3.76,-0.75,-3.76,-0.75,0.76,0.45,0.65,-3.00,-3.00,-3.01
380.33,-3.69,-0.67,-3.71,-0.69,0.72,0.42,0.62,-2.98,-2.99,-3.02
384.13,-3.67,-0.65,-3.67,-0.65,0.67,0.38,0.59,-3.00,-3.00,-3.02
387.97,-3.66,-0.63,-3.64,-0.61,0.62,0.35,0.56,-3.04,-3.02,-3.03
391.85,-3.62,-0.58,-3.61,-0.57,0.57,0.32,0.53,-3.05,-3.05,-3.05
395.77,-3.57,-0.51,-3.60,-0.54,0.52,0.29,0.50,-3.05,-3.08,-3.06
399.73,-3.56,-0.49,-3.57,-0.50,0.47,0.26,0.48,-3.09,-3.10,-3.07
403.72,-3.57,-0.49,-3.52,-0.44,0.42,0.23,0.45,-3.15,-3.10,-3.08
407.76,-3.45,-0.35,-3.47,-0.37,0.38,0.20,0.43,-3.07,-3.09,-3.10
411.84,-3.39,-0.28,-3.41,-0.30,0.34,0.18,0.40,-3.05,-3.08,-3.11
415.96,-3.38,-0.26,-3.38,-0.25,0.29,0.15,0.38,-3.09,-3.08,-3.12
420.12,-3.38,-0.25,-3.38,-0.25,0.26,0.13,0.35,-3.12,-3.13,-3.13
424.32,-3.38,-0.25,-3.38,-0.24,0.22,0.10,0.33,-3.16,-3.16,-3.13
428.56,-3.37,-0.24,-3.35,-0.22,0.20,0.08,0.30,-3.17,-3.16,-3.13
432.85,-3.30,-0.18,-3.30,-0.18,0.17,0.06,0.28,-3.13,-3.13,-3.13
437.18,-3.23,-0.12,-3.25,-0.14,0.15,0.03,0.26,-3.08,-3.10,-3.11
441.55,-3.19,-0.10,-3.19,-0.11,0.12,0.01,0.24,-3.07,-3.07,-3.09
445.96,-3.15,-0.09,-3.16,-0.10,0.08,-0.01,0.22,-3.07,-3.07,-3.06
450.42,-3.10,-0.08,-3.09,-0.07,0.05,-0.03,0.19,-3.06,-3.05,-3.02
454.93,-3.04,-0.06,-3.00,-0.03,0.01,-0.05,0.17,-3.03,-2.99,-2.98
459.48,-2.87,0.06,-2.91,0.03,-0.02,-0.07,0.15,-2.89,-2.93,-2.93
464.07,-2.80,0.09,-2.82,0.07,-0.04,-0.09,0.13,-2.84,-2.86,-2.89
468.71,-2.76,0.08,-2.74,0.10,-0.06,-0.11,0.11,-2.82,-2.81,-2.84
473.40,-2.70,0.09,-2.70,0.09,-0.08,-0.13,0.09,-2.78,-2.78,-2.79
478.13,-2.65,0.09,-2.65,0.09,-0.09,-0.14,0.07,-2.74,-2.74,-2.74
482.91,-2.60,0.10,-2.60,0.10,-0.11,-0.16,0.05,-2.71,-2.71,-2.70
487.74,-2.56,0.10,-2.57,0.10,-0.12,-0.18,0.03,-2.68,-2.69,-2.66
492.62,-2.53,0.10,-2.53,0.10,-0.14,-0.20,0.01,-2.67,-2.67,-2.63
