frequency,raw,error,smoothed,error_smoothed,equalization,parametric_eq,fixed_band_eq,equalized_raw,equalized_smoothed,target
20.00,16.19,7.67,16.19,7.67,-7.67,-7.62,-3.58,8.52,8.52,8.52
20.20,16.20,7.68,16.20,7.68,-7.68,-7.64,-3.68,8.53,8.53,8.52
20.40,16.21,7.68,16.21,7.68,-7.68,-7.65,-3.78,8.53,8.53,8.53
20.61,16.22,7.68,16.22,7.68,-7.69,-7.66,-3.88,8.53,8.53,8.54
20.81,16.23,7.69,16.23,7.69,-7.69,-7.68,-3.99,8.54,8.54,8.54
21.02,16.24,7.69,16.24,7.69,-7.70,-7.69,-4.10,8.54,8.54,8.55
21.23,16.25,7.70,16.25,7.70,-7.70,-7.70,-4.21,8.55,8.55,8.55
21.44,16.27,7.71,16.27,7.71,-7.71,-7.71,-4.33,8.56,8.56,8.56
21.66,16.28,7.71,16.28,7.72,-7.71,-7.72,-4.45,8.57,8.57,8.57
21.87,16.29,7.72,16.29,7.72,-7.72,-7.73,-4.57,8.57,8.57,8.57
22.09,16.30,7.72,16.30,7.72,-7.72,-7.73,-4.70,8.58,8.58,8.58
22.31,16.31,7.72,16.31,7.73,-7.73,-7.74,-4.83,8.58,8.58,8.59
22.54,16.32,7.73,16.32,7.73,-7.73,-7.75,-4.96,8.59,8.59,8.59
22.76,16.33,7.73,16.33,7.73,-7.73,-7.75,-5.10,8.60,8.60,8.60
22.99,16.34,7.73,16.34,7.74,-7.73,-7.76,-5.24,8.61,8.61,8.61
23.22,16.35,7.73,16.35,7.73,-7.74,-7.76,-5.38,8.62,8.62,8.62
23.45,16.36,7.73,16.36,7.73,-7.74,-7.77,-5.53,8.63,8.63,8.63
23.69,16.37,7.74,16.37,7.74,-7.74,-7.77,-5.68,8.64,8.64,8.64
23.92,16.38,7.74,16.38,7.74,-7.74,-7.77,-5.83,8.65,8.65,8.65
24.16,16.39,7.74,16.39,7.74,-7.73,-7.77,-5.99,8.66,8.66,8.66
24.40,16.40,7.74,16.40,7.73,-7.73,-7.78,-6.15,8.67,8.67,8.67
24.65,16.41,7.73,16.41,7.73,-7.73,-7.78,-6.31,8.68,8.68,8.68
24.89,16.42,7.73,16.42,7.72,-7.73,-7.78,-6.48,8.70,8.69,8.69
25.14,16.42,7.72,16.42,7.72,-7.72,-7.78,-6.64,8.70,8.70,8.70
25.39,16.43,7.72,16.43,7.72,-7.72,-7.78,-6.81,8.71,8.71,8.71
25.65,16.44,7.72,16.44,7.72,-7.72,-7.77,-6.98,8.73,8.73,8.72
25.91,16.45,7.71,16.45,7.71,-7.71,-7.77,-7.16,8.74,8.74,8.74
26.16,16.46,7.71,16.46,7.71,-7.71,-7.77,-7.33,8.75,8.75,8.75
26.43,16.46,7.70,16.46,7.70,-7.70,-7.76,-7.50,8.76,8.76,8.76
26.69,16.47,7.70,16.47,7.70,-7.70,-7.76,-7.68,8.77,8.77,8.77
26.96,16.48,7.69,16.48,7.69,-7.69,-7.76,-7.85,8.79,8.79,8.79
27.23,16.49,7.69,16.49,7.69,-7.69,-7.75,-8.02,8.80,8.80,8.80
27.50,16.50,7.68,16.50,7.68,-7.68,-7.75,-8.18,8.82,8.82,8.82
27.77,16.50,7.67,16.51,7.68,-7.68,-7.74,-8.34,8.83,8.83,8.83
28.05,16.51,7.66,16.51,7.67,-7.67,-7.73,-8.50,8.84,8.84,8.85
28.33,16.52,7.67,16.52,7.66,-7.66,-7.73,-8.65,8.86,8.86,8.86
28.62,16.52,7.65,16.52,7.65,-7.65,-7.72,-8.80,8.87,8.87,8.87
28.90,16.53,7.65,16.53,7.64,-7.64,-7.71,-8.93,8.89,8.88,8.88
29.19,16.53,7.63,16.53,7.63,-7.64,-7.70,-9.05,8.90,8.90,8.90
29.48,16.54,7.63,16.54,7.63,-7.63,-7.69,-9.17,8.92,8.92,8.91
29.78,16.55,7.62,16.55,7.62,-7.62,-7.68,-9.27,8.94,8.93,8.93
30.08,16.55,7.61,16.55,7.61,-7.61,-7.67,-9.36,8.95,8.95,8.94
30.38,16.55,7.59,16.55,7.60,-7.59,-7.66,-9.43,8.96,8.96,8.96
30.68,16.55,7.58,16.55,7.58,-7.58,-7.65,-9.49,8.97,8.97,8.97
30.99,16.55,7.56,16.55,7.57,-7.57,-7.64,-9.54,8.98,8.98,8.99
31.30,16.55,7.56,16.55,7.56,-7.56,-7.63,-9.57,8.99,9.00,9.00
31.61,16.56,7.55,16.56,7.55,-7.55,-7.62,-9.58,9.02,9.01,9.01
31.93,16.56,7.54,16.56,7.54,-7.53,-7.61,-9.58,9.03,9.03,9.02
32.24,16.56,7.52,16.56,7.52,-7.52,-7.59,-9.56,9.05,9.04,9.04
32.57,16.55,7.50,16.56,7.50,-7.50,-7.58,-9.53,9.05,9.06,9.05
32.89,16.55,7.48,16.55,7.49,-7.48,-7.57,-9.49,9.07,9.07,9.07
33.22,16.55,7.47,16.55,7.47,-7.47,-7.55,-9.44,9.09,9.08,9.08
33.55,16.54,7.45,16.54,7.45,-7.45,-7.54,-9.37,9.09,9.09,9.10
33.89,16.53,7.43,16.54,7.43,-7.43,-7.53,-9.29,9.10,9.10,9.10
34.23,16.53,7.41,16.53,7.41,-7.42,-7.51,-9.21,9.12,9.12,9.12
34.57,16.53,7.40,16.53,7.40,-7.40,-7.50,-9.12,9.13,9.13,9.13
34.92,16.53,7.39,16.53,7.39,-7.39,-7.48,-9.02,9.14,9.14,9.14
35.27,16.53,7.37,16.53,7.38,-7.38,-7.47,-8.91,9.15,9.15,9.16
35.62,16.53,7.37,16.53,7.37,-7.37,-7.45,-8.80,9.16,9.16,9.16
35.97,16.53,7.36,16.53,7.36,-7.36,-7.44,-8.69,9.17,9.17,9.17
36.33,16.53,7.35,16.53,7.35,-7.35,-7.42,-8.58,9.18,9.18,9.18
36.70,16.53,7.34,16.53,7.34,-7.34,-7.41,-8.47,9.19,9.19,9.19
37.06,16.53,7.34,16.53,7.34,-7.33,-7.39,-8.35,9.20,9.20,9.20
37.43,16.53,7.33,16.53,7.33,-7.33,-7.38,-8.24,9.20,9.20,9.20
37.81,16.53,7.32,16.53,7.32,-7.32,-7.36,-8.13,9.21,9.21,9.21
38.19,16.53,7.31,16.53,7.31,-7.31,-7.35,-8.02,9.22,9.22,9.22
38.57,16.53,7.31,16.53,7.31,-7.31,-7.33,-7.91,9.23,9.23,9.23
38.95,16.53,7.30,16.53,7.30,-7.30,-7.32,-7.81,9.23,9.23,9.23
39.34,16.53,7.29,16.53,7.29,-7.29,-7.30,-7.71,9.24,9.24,9.24
39.74,16.53,7.28,16.53,7.29,-7.29,-7.28,-7.61,9.24,9.24,9.25
40.14,16.53,7.29,16.53,7.28,-7.28,-7.27,-7.52,9.25,9.25,9.24
40.54,16.53,7.28,16.53,7.28,-7.28,-7.25,-7.43,9.25,9.25,9.25
40.94,16.53,7.27,16.53,7.28,-7.27,-7.24,-7.35,9.26,9.26,9.26
41.35,16.53,7.27,16.53,7.27,-7.27,-7.22,-7.27,9.26,9.26,9.26
41.76,16.53,7.26,16.53,7.26,-7.26,-7.21,-7.19,9.27,9.27,9.27
42.18,16.53,7.26,16.53,7.26,-7.26,-7.19,-7.12,9.27,9.27,9.28
42.60,16.53,7.25,16.53,7.25,-7.25,-7.18,-7.06,9.28,9.28,9.28
43.03,16.53,7.24,16.53,7.25,-7.24,-7.16,-7.00,9.29,9.29,9.29
43.46,16.53,7.24,16.53,7.24,-7.24,-7.15,-6.95,9.29,9.29,9.29
43.90,16.53,7.23,16.53,7.23,-7.23,-7.13,-6.90,9.30,9.30,9.30
44.33,16.53,7.22,16.53,7.22,-7.23,-7.12,-6.86,9.30,9.31,9.31
44.78,16.54,7.22,16.54,7.22,-7.22,-7.10,-6.82,9.32,9.32,9.32
45.23,16.54,7.22,16.54,7.22,-7.22,-7.09,-6.79,9.32,9.33,9.32
45.68,16.55,7.21,16.55,7.21,-7.21,-7.07,-6.76,9.34,9.34,9.34
46.13,16.55,7.21,16.55,7.21,-7.21,-7.06,-6.74,9.35,9.35,9.34
46.60,16.55,7.19,16.55,7.20,-7.20,-7.05,-6.72,9.35,9.35,9.36
47.06,16.55,7.19,16.55,7.19,-7.19,-7.03,-6.71,9.36,9.36,9.36
47.53,16.55,7.18,16.55,7.18,-7.18,-7.02,-6.70,9.37,9.37,9.38
48.01,16.55,7.17,16.55,7.17,-7.16,-7.01,-6.69,9.39,9.38,9.38
48.49,16.54,7.15,16.54,7.15,-7.15,-6.99,-6.70,9.39,9.39,9.39
48.97,16.53,7.14,16.53,7.13,-7.14,-6.98,-6.70,9.40,9.40,9.40
49.46,16.52,7.11,16.52,7.12,-7.12,-6.97,-6.71,9.40,9.40,9.41
49.96,16.51,7.10,16.51,7.10,-7.10,-6.96,-6.72,9.41,9.41,9.41
50.46,16.50,7.09,16.50,7.09,-7.09,-6.95,-6.74,9.42,9.42,9.41
50.96,16.49,7.07,16.49,7.07,-7.07,-6.94,-6.76,9.42,9.42,9.43
51.47,16.48,7.05,16.48,7.05,-7.05,-6.92,-6.78,9.43,9.43,9.43
51.99,16.46,7.03,16.46,7.03,-7.03,-6.91,-6.81,9.43,9.43,9.43
52.51,16.44,7.01,16.44,7.01,-7.01,-6.90,-6.83,9.43,9.43,9.43
53.03,16.43,7.00,16.43,6.99,-7.00,-6.90,-6.86,9.44,9.43,9.43
53.56,16.41,6.97,16.41,6.97,-6.98,-6.89,-6.89,9.43,9.43,9.44
54.10,16.40,6.96,16.40,6.96,-6.96,-6.88,-6.93,9.44,9.43,9.44
54.64,16.38,6.94,16.38,6.95,-6.95,-6.87,-6.96,9.43,9.43,9.44
55.18,16.37,6.94,16.37,6.94,-6.94,-6.86,-6.99,9.44,9.44,9.43
55.74,16.36,6.93,16.36,6.93,-6.92,-6.85,-7.02,9.44,9.44,9.43
56.29,16.34,6.91,16.34,6.92,-6.91,-6.85,-7.06,9.43,9.43,9.43
56.86,16.32,6.90,16.32,6.90,-6.90,-6.84,-7.09,9.43,9.42,9.42
57.42,16.29,6.88,16.30,6.88,-6.88,-6.83,-7.12,9.41,9.41,9.42
58.00,16.27,6.87,16.27,6.87,-6.87,-6.83,-7.14,9.40,9.40,9.40
58.58,16.25,6.85,16.25,6.85,-6.85,-6.82,-7.17,9.40,9.40,9.40
59.16,16.22,6.83,16.23,6.84,-6.84,-6.82,-7.19,9.38,9.39,9.39
59.76,16.20,6.83,16.20,6.82,-6.82,-6.82,-7.20,9.38,9.38,9.37
60.35,16.17,6.81,16.17,6.81,-6.81,-6.81,-7.22,9.36,9.36,9.36
60.96,16.14,6.80,16.14,6.80,-6.80,-6.81,-7.23,9.34,9.34,9.34
61.57,16.12,6.79,16.12,6.79,-6.79,-6.81,-7.23,9.33,9.33,9.33
62.18,16.09,6.78,16.10,6.78,-6.79,-6.80,-7.23,9.30,9.31,9.31
62.80,16.08,6.78,16.08,6.78,-6.78,-6.80,-7.23,9.30,9.29,9.30
63.43,16.06,6.78,16.06,6.78,-6.78,-6.80,-7.22,9.28,9.28,9.28
64.07,16.04,6.79,16.04,6.79,-6.78,-6.80,-7.20,9.26,9.26,9.26
64.71,16.03,6.79,16.03,6.79,-6.79,-6.80,-7.19,9.24,9.24,9.24
65.35,16.01,6.79,16.01,6.80,-6.79,-6.80,-7.16,9.22,9.22,9.22
66.01,16.00,6.80,16.00,6.80,-6.80,-6.80,-7.14,9.20,9.20,9.20
66.67,15.98,6.80,15.98,6.80,-6.80,-6.81,-7.11,9.18,9.18,9.18
67.33,15.96,6.80,15.97,6.81,-6.81,-6.81,-7.08,9.15,9.16,9.16
68.01,15.95,6.82,15.95,6.82,-6.82,-6.81,-7.04,9.13,9.13,9.13
68.69,15.94,6.83,15.94,6.83,-6.82,-6.81,-7.00,9.12,9.12,9.11
69.37,15.92,6.83,15.92,6.83,-6.83,-6.82,-6.97,9.10,9.10,9.09
70.07,15.90,6.83,15.90,6.84,-6.83,-6.82,-6.92,9.07,9.07,9.07
70.77,15.88,6.84,15.88,6.84,-6.83,-6.83,-6.88,9.05,9.05,9.05
71.48,15.86,6.84,15.86,6.83,-6.84,-6.83,-6.84,9.03,9.02,9.02
72.19,15.83,6.83,15.84,6.83,-6.84,-6.84,-6.80,8.99,9.00,9.00
72.91,15.81,6.83,15.81,6.83,-6.84,-6.85,-6.76,8.97,8.97,8.99
73.64,15.80,6.84,15.80,6.84,-6.84,-6.85,-6.72,8.96,8.96,8.96
74.38,15.78,6.84,15.78,6.84,-6.84,-6.86,-6.68,8.94,8.95,8.94
75.12,15.77,6.85,15.77,6.85,-6.84,-6.87,-6.64,8.93,8.93,8.92
75.87,15.74,6.84,15.74,6.84,-6.83,-6.88,-6.60,8.91,8.91,8.90
76.63,15.72,6.84,15.72,6.83,-6.83,-6.89,-6.57,8.89,8.89,8.89
77.40,15.69,6.82,15.69,6.82,-6.82,-6.90,-6.54,8.87,8.87,8.87
78.17,15.66,6.81,15.67,6.82,-6.82,-6.91,-6.51,8.84,8.85,8.85
78.95,15.64,6.81,15.64,6.81,-6.81,-6.92,-6.49,8.83,8.83,8.83
79.74,15.62,6.81,15.62,6.81,-6.81,-6.93,-6.47,8.81,8.81,8.81
80.54,15.60,6.81,15.60,6.81,-6.81,-6.94,-6.45,8.79,8.79,8.79
81.35,15.58,6.81,15.58,6.82,-6.82,-6.96,-6.44,8.76,8.77,8.77
82.16,15.57,6.82,15.57,6.83,-6.83,-6.97,-6.43,8.74,8.74,8.75
82.98,15.57,6.84,15.57,6.84,-6.84,-6.98,-6.43,8.73,8.72,8.73
83.81,15.56,6.86,15.56,6.86,-6.86,-7.00,-6.43,8.70,8.70,8.70
84.65,15.55,6.87,15.56,6.87,-6.87,-7.01,-6.43,8.68,8.68,8.68
85.50,15.55,6.89,15.55,6.89,-6.89,-7.03,-6.44,8.66,8.66,8.66
86.35,15.54,6.91,15.54,6.91,-6.90,-7.04,-6.45,8.64,8.64,8.63
87.22,15.53,6.92,15.53,6.92,-6.91,-7.06,-6.47,8.62,8.62,8.61
88.09,15.51,6.93,15.51,6.92,-6.91,-7.07,-6.50,8.60,8.59,8.58
88.97,15.48,6.91,15.48,6.92,-6.92,-7.09,-6.53,8.57,8.57,8.57
89.86,15.45,6.91,15.46,6.91,-6.91,-7.11,-6.56,8.54,8.54,8.54
90.76,15.43,6.91,15.42,6.90,-6.91,-7.12,-6.60,8.52,8.52,8.52
91.66,15.39,6.89,15.39,6.90,-6.90,-7.14,-6.64,8.49,8.50,8.50
92.58,15.36,6.89,15.36,6.89,-6.89,-7.16,-6.69,8.47,8.48,8.47
93.51,15.33,6.88,15.33,6.88,-6.88,-7.18,-6.74,8.46,8.45,8.45
94.44,15.30,6.87,15.30,6.88,-6.87,-7.19,-6.80,8.43,8.43,8.43
95.39,15.27,6.87,15.27,6.87,-6.86,-7.21,-6.86,8.41,8.41,8.40
96.34,15.24,6.86,15.24,6.86,-6.86,-7.23,-6.92,8.38,8.38,8.38
97.30,15.21,6.86,15.21,6.86,-6.87,-7.25,-6.99,8.34,8.34,8.35
98.28,15.20,6.88,15.20,6.87,-6.89,-7.27,-7.06,8.32,8.31,8.33
99.26,15.19,6.89,15.20,6.90,-6.91,-7.29,-7.14,8.28,8.29,8.30
100.25,15.21,6.93,15.21,6.93,-6.94,-7.31,-7.22,8.27,8.27,8.28
101.25,15.23,6.98,15.23,6.98,-6.98,-7.33,-7.31,8.25,8.25,8.25
102.27,15.26,7.04,15.26,7.04,-7.03,-7.35,-7.39,8.23,8.23,8.22
103.29,15.28,7.10,15.28,7.10,-7.09,-7.37,-7.48,8.19,8.19,8.18
104.32,15.30,7.15,15.30,7.15,-7.15,-7.38,-7.57,8.15,8.15,8.15
105.37,15.33,7.21,15.33,7.21,-7.22,-7.40,-7.66,8.11,8.11,8.12
106.42,15.36,7.28,15.36,7.28,-7.29,-7.42,-7.75,8.07,8.08,8.08
107.48,15.40,7.36,15.40,7.36,-7.36,-7.44,-7.84,8.04,8.04,8.04
108.56,15.44,7.44,15.44,7.43,-7.43,-7.46,-7.94,8.01,8.00,8.00
109.64,15.47,7.51,15.47,7.51,-7.51,-7.48,-8.02,7.97,7.97,7.96
110.74,15.50,7.58,15.51,7.58,-7.58,-7.50,-8.11,7.92,7.93,7.93
111.85,15.54,7.66,15.54,7.65,-7.65,-7.52,-8.20,7.89,7.89,7.89
112.97,15.56,7.72,15.56,7.72,-7.71,-7.53,-8.28,7.85,7.85,7.84
114.10,15.57,7.77,15.57,7.78,-7.77,-7.55,-8.36,7.80,7.80,7.80
115.24,15.58,7.83,15.58,7.83,-7.83,-7.57,-8.43,7.75,7.75,7.75
116.39,15.59,7.88,15.59,7.88,-7.88,-7.59,-8.49,7.71,7.71,7.71
117.55,15.59,7.93,15.59,7.92,-7.92,-7.60,-8.55,7.67,7.67,7.67
118.73,15.58,7.95,15.59,7.96,-7.96,-7.62,-8.60,7.62,7.62,7.63
119.92,15.58,8.00,15.58,8.00,-8.00,-7.63,-8.64,7.59,7.58,7.58
121.12,15.57,8.03,15.57,8.03,-8.02,-7.65,-8.68,7.55,7.55,7.54
122.33,15.56,8.05,15.56,8.05,-8.05,-7.66,-8.70,7.51,7.51,7.51
123.55,15.54,8.07,15.54,8.07,-8.07,-7.67,-8.71,7.48,7.47,7.47
124.79,15.51,8.08,15.51,8.08,-8.08,-7.69,-8.71,7.43,7.43,7.44
126.03,15.48,8.08,15.49,8.09,-8.09,-7.70,-8.71,7.39,7.40,7.40
127.29,15.46,8.09,15.46,8.09,-8.09,-7.71,-8.69,7.37,7.36,7.37
128.57,15.43,8.10,15.43,8.10,-8.10,-7.72,-8.66,7.34,7.33,7.33
129.85,15.39,8.09,15.40,8.10,-8.09,-7.73,-8.62,7.30,7.30,7.30
131.15,15.36,8.10,15.36,8.09,-8.09,-7.74,-8.58,7.27,7.27,7.27
132.46,15.32,8.09,15.32,8.08,-8.08,-7.74,-8.52,7.24,7.24,7.23
133.79,15.28,8.07,15.28,8.07,-8.08,-7.75,-8.46,7.21,7.20,7.21
135.12,15.23,8.05,15.24,8.06,-8.06,-7.75,-8.39,7.17,7.17,7.18
136.48,15.20,8.05,15.20,8.05,-8.05,-7.76,-8.31,7.15,7.15,7.15
137.84,15.16,8.04,15.16,8.04,-8.04,-7.76,-8.23,7.12,7.12,7.12
139.22,15.12,8.03,15.12,8.03,-8.02,-7.76,-8.14,7.10,7.10,7.09
140.61,15.07,8.01,15.07,8.00,-8.01,-7.76,-8.05,7.07,7.06,7.06
142.02,15.01,7.97,15.02,7.98,-7.99,-7.76,-7.95,7.02,7.03,7.04
143.44,14.97,7.96,14.97,7.96,-7.97,-7.76,-7.86,7.00,7.01,7.01
144.87,14.93,7.95,14.93,7.95,-7.94,-7.76,-7.76,6.99,6.98,6.99
146.32,14.89,7.94,14.88,7.93,-7.92,-7.75,-7.66,6.97,6.96,6.95
147.78,14.82,7.90,14.83,7.90,-7.90,-7.74,-7.56,6.92,6.93,6.92
149.26,14.77,7.87,14.77,7.87,-7.87,-7.74,-7.46,6.90,6.90,6.90
150.75,14.70,7.83,14.71,7.84,-7.84,-7.73,-7.36,6.86,6.86,6.87
152.26,14.66,7.81,14.66,7.81,-7.82,-7.71,-7.26,6.85,6.84,6.85
153.78,14.60,7.79,14.60,7.79,-7.79,-7.70,-7.17,6.82,6.82,6.81
155.32,14.56,7.77,14.55,7.76,-7.75,-7.69,-7.07,6.81,6.80,6.79
156.88,14.49,7.72,14.50,7.73,-7.73,-7.67,-6.98,6.77,6.77,6.77
158.44,14.44,7.69,14.44,7.69,-7.70,-7.65,-6.90,6.74,6.74,6.75
160.03,14.37,7.66,14.38,7.66,-7.67,-7.64,-6.81,6.70,6.71,6.72
161.63,14.32,7.63,14.33,7.63,-7.64,-7.61,-6.74,6.68,6.69,6.69
163.24,14.28,7.62,14.27,7.61,-7.61,-7.59,-6.66,6.67,6.66,6.66
164.88,14.22,7.58,14.23,7.58,-7.57,-7.57,-6.59,6.65,6.65,6.64
166.53,14.16,7.55,14.17,7.55,-7.54,-7.54,-6.52,6.62,6.63,6.62
168.19,14.11,7.52,14.09,7.51,-7.50,-7.51,-6.46,6.61,6.59,6.59
169.87,14.01,7.45,14.02,7.47,-7.46,-7.49,-6.40,6.55,6.56,6.56
171.57,13.94,7.41,13.95,7.41,-7.42,-7.45,-6.35,6.52,6.52,6.53
173.29,13.88,7.38,13.87,7.37,-7.38,-7.42,-6.30,6.50,6.49,6.50
175.02,13.79,7.31,13.80,7.33,-7.34,-7.39,-6.26,6.45,6.47,6.48
176.77,13.74,7.30,13.73,7.29,-7.29,-7.35,-6.22,6.45,6.45,6.44
178.54,13.66,7.25,13.66,7.25,-7.24,-7.31,-6.18,6.42,6.43,6.42
180.32,13.58,7.20,13.58,7.20,-7.18,-7.28,-6.15,6.40,6.40,6.38
182.13,13.50,7.15,13.49,7.13,-7.13,-7.23,-6.13,6.38,6.36,6.36
183.95,13.37,7.05,13.39,7.07,-7.06,-7.19,-6.11,6.31,6.32,6.32
185.79,13.28,6.99,13.29,6.99,-7.00,-7.15,-6.09,6.28,6.29,6.29
187.65,13.19,6.93,13.18,6.92,-6.93,-7.10,-6.08,6.26,6.25,6.26
189.52,13.09,6.86,13.09,6.86,-6.86,-7.05,-6.07,6.23,6.23,6.23
191.42,12.99,6.79,12.99,6.79,-6.80,-7.01,-6.07,6.19,6.20,6.20
193.33,12.89,6.72,12.90,6.73,-6.73,-6.96,-6.07,6.16,6.17,6.17
195.27,12.81,6.67,12.81,6.67,-6.67,-6.90,-6.07,6.15,6.14,6.15
197.22,12.72,6.61,12.72,6.60,-6.60,-6.85,-6.08,6.12,6.12,6.11
199.19,12.62,6.54,12.62,6.54,-6.54,-6.79,-6.09,6.08,6.09,6.08
201.18,12.52,6.48,12.52,6.48,-6.47,-6.74,-6.11,6.05,6.05,6.04
203.19,12.42,6.41,12.42,6.41,-6.41,-6.68,-6.12,6.01,6.01,6.01
205.23,12.32,6.34,12.32,6.34,-6.34,-6.62,-6.14,5.98,5.98,5.98
207.28,12.22,6.27,12.22,6.27,-6.27,-6.56,-6.16,5.95,5.95,5.95
209.35,12.13,6.21,12.13,6.21,-6.21,-6.50,-6.18,5.92,5.92,5.92
211.44,12.03,6.15,12.03,6.14,-6.14,-6.43,-6.20,5.89,5.89,5.88
213.56,11.93,6.08,11.93,6.08,-6.08,-6.37,-6.22,5.85,5.85,5.86
215.69,11.83,6.01,11.83,6.01,-6.02,-6.30,-6.25,5.82,5.81,5.82
217.85,11.72,5.94,11.74,5.95,-5.95,-6.24,-6.27,5.77,5.78,5.78
220.03,11.65,5.90,11.65,5.90,-5.89,-6.17,-6.29,5.76,5.76,5.75
222.23,11.56,5.84,11.56,5.83,-5.83,-6.10,-6.30,5.74,5.73,5.72
224.45,11.46,5.77,11.46,5.77,-5.76,-6.03,-6.32,5.70,5.69,5.69
226.70,11.35,5.69,11.36,5.70,-5.70,-5.96,-6.33,5.65,5.66,5.66
228.96,11.25,5.62,11.27,5.64,-5.64,-5.88,-6.34,5.61,5.63,5.63
231.25,11.20,5.59,11.18,5.57,-5.58,-5.81,-6.34,5.62,5.60,5.61
233.57,11.11,5.52,11.11,5.52,-5.52,-5.73,-6.33,5.59,5.59,5.59
235.90,11.01,5.45,11.03,5.46,-5.46,-5.66,-6.33,5.55,5.57,5.57
238.26,10.96,5.41,10.95,5.40,-5.40,-5.58,-6.31,5.56,5.55,5.55
240.64,10.87,5.34,10.88,5.35,-5.34,-5.50,-6.28,5.53,5.54,5.53
243.05,10.81,5.29,10.81,5.29,-5.29,-5.42,-6.25,5.52,5.52,5.52
245.48,10.74,5.24,10.73,5.23,-5.23,-5.34,-6.21,5.51,5.50,5.50
247.93,10.65,5.16,10.66,5.18,-5.18,-5.26,-6.16,5.47,5.49,5.49
250.41,10.60,5.13,10.59,5.12,-5.12,-5.18,-6.11,5.48,5.47,5.47
252.92,10.52,5.06,10.53,5.07,-5.07,-5.10,-6.04,5.46,5.46,5.46
255.45,10.46,5.02,10.46,5.02,-5.01,-5.02,-5.97,5.45,5.45,5.44
258.00,10.40,4.97,10.39,4.96,-4.95,-4.93,-5.89,5.45,5.44,5.43
260.58,10.31,4.89,10.32,4.89,-4.89,-4.85,-5.79,5.42,5.42,5.43
263.19,10.24,4.83,10.24,4.83,-4.83,-4.76,-5.70,5.41,5.41,5.41
265.82,10.16,4.76,10.17,4.77,-4.77,-4.67,-5.59,5.39,5.39,5.40
268.48,10.10,4.72,10.10,4.71,-4.71,-4.59,-5.47,5.39,5.38,5.39
271.16,10.03,4.66,10.02,4.65,-4.65,-4.50,-5.35,5.38,5.37,5.37
273.87,9.93,4.57,9.94,4.59,-4.59,-4.41,-5.23,5.35,5.36,5.36
276.61,9.86,4.52,9.86,4.52,-4.52,-4.32,-5.09,5.34,5.35,5.34
279.38,9.79,4.46,9.79,4.45,-4.45,-4.23,-4.95,5.34,5.34,5.33
282.17,9.70,4.38,9.70,4.38,-4.37,-4.14,-4.81,5.33,5.33,5.32
284.99,9.61,4.31,9.60,4.30,-4.30,-4.05,-4.66,5.32,5.31,5.31
287.84,9.49,4.20,9.50,4.21,-4.21,-3.95,-4.51,5.28,5.29,5.29
290.72,9.40,4.12,9.40,4.12,-4.13,-3.86,-4.36,5.27,5.27,5.28
293.63,9.30,4.03,9.30,4.03,-4.04,-3.77,-4.20,5.27,5.27,5.27
296.57,9.20,3.95,9.20,3.94,-3.94,-3.67,-4.05,5.26,5.26,5.26
299.53,9.09,3.85,9.09,3.85,-3.84,-3.57,-3.89,5.25,5.25,5.24
302.53,8.97,3.74,8.98,3.75,-3.74,-3.48,-3.73,5.23,5.24,5.23
305.55,8.85,3.64,8.84,3.63,-3.64,-3.38,-3.56,5.22,5.21,5.21
308.61,8.72,3.53,8.72,3.52,-3.53,-3.28,-3.40,5.19,5.19,5.20
311.69,8.57,3.39,8.59,3.41,-3.42,-3.18,-3.24,5.15,5.17,5.18
314.81,8.48,3.32,8.47,3.31,-3.31,-3.08,-3.08,5.17,5.16,5.16
317.96,8.36,3.21,8.35,3.21,-3.20,-2.98,-2.91,5.16,5.16,5.15
321.14,8.23,3.10,8.23,3.10,-3.08,-2.88,-2.75,5.15,5.14,5.13
324.35,8.08,2.96,8.09,2.97,-2.97,-2.78,-2.59,5.11,5.12,5.12
327.59,7.94,2.85,7.95,2.85,-2.85,-2.68,-2.43,5.09,5.10,5.10
330.87,7.82,2.74,7.81,2.73,-2.74,-2.57,-2.27,5.08,5.07,5.08
334.18,7.68,2.62,7.68,2.62,-2.62,-2.47,-2.11,5.06,5.06,5.06
337.52,7.54,2.49,7.55,2.50,-2.51,-2.36,-1.95,5.03,5.04,5.05
340.90,7.42,2.39,7.42,2.39,-2.39,-2.25,-1.79,5.03,5.03,5.03
344.30,7.29,2.27,7.29,2.28,-2.28,-2.15,-1.63,5.01,5.01,5.02
347.75,7.17,2.18,7.17,2.17,-2.17,-2.04,-1.48,5.01,5.00,5.00
351.23,7.03,2.06,7.03,2.05,-2.05,-1.93,-1.32,4.98,4.98,4.98
354.74,6.90,1.94,6.90,1.94,-1.94,-1.82,-1.17,4.97,4.97,4.96
358.28,6.76,1.82,6.76,1.82,-1.82,-1.71,-1.01,4.94,4.94,4.94
361.87,6.63,1.71,6.62,1.70,-1.70,-1.59,-0.86,4.93,4.93,4.92
365.49,6.47,1.56,6.48,1.58,-1.57,-1.48,-0.71,4.90,4.91,4.91
369.14,6.34,1.45,6.34,1.45,-1.45,-1.36,-0.55,4.89,4.89,4.89
372.83,6.21,1.33,6.20,1.32,-1.32,-1.25,-0.40,4.89,4.87,4.88
376.56,6.04,1.18,6.05,1.19,-1.20,-1.13,-0.25,4.84,4.85,4.86
380.33,5.90,1.06,5.91,1.07,-1.07,-1.01,-0.10,4.83,4.83,4.84
384.13,5.76,0.94,5.76,0.94,-0.94,-0.89,0.04,4.82,4.82,4.83
387.97,5.63,0.83,5.63,0.82,-0.81,-0.77,0.19,4.82,4.81,4.81
391.85,5.48,0.69,5.49,0.69,-0.68,-0.65,0.34,4.80,4.80,4.79
395.77,5.34,0.56,5.34,0.56,-0.55,-0.53,0.48,4.79,4.79,4.78
399.73,5.19,0.42,5.18,0.41,-0.41,-0.40,0.63,4.78,4.78,4.77
403.72,5.02,0.26,5.03,0.27,-0.27,-0.28,0.77,4.76,4.76,4.76
407.76,4.86,0.11,4.87,0.12,-0.12,-0.15,0.91,4.74,4.75,4.75
411.84,4.71,-0.02,4.71,-0.03,0.03,-0.02,1.05,4.74,4.73,4.73
415.96,4.55,-0.17,4.55,-0.18,0.17,0.11,1.19,4.73,4.72,4.72
420.12,4.38,-0.33,4.38,-0.33,0.32,0.24,1.33,4.70,4.71,4.71
424.32,4.21,-0.49,4.22,-0.47,0.47,0.37,1.46,4.68,4.69,4.70
428.56,4.07,-0.62,4.07,-0.62,0.62,0.51,1.59,4.69,4.68,4.69
432.85,3.92,-0.75,3.91,-0.76,0.76,0.64,1.72,4.69,4.67,4.67
437.18,3.74,-0.92,3.75,-0.90,0.91,0.78,1.85,4.65,4.66,4.66
441.55,3.59,-1.06,3.59,-1.05,1.06,0.91,1.97,4.65,4.65,4.65
445.96,3.43,-1.19,3.43,-1.20,1.20,1.05,2.09,4.63,4.63,4.63
450.42,3.26,-1.34,3.27,-1.34,1.34,1.19,2.21,4.60,4.61,4.61
454.93,3.11,-1.48,3.10,-1.49,1.48,1.33,2.32,4.59,4.58,4.60
459.48,2.94,-1.63,2.95,-1.63,1.62,1.47,2.42,4.56,4.57,4.57
464.07,2.79,-1.76,2.80,-1.76,1.75,1.61,2.53,4.54,4.55,4.55
468.71,2.66,-1.87,2.65,-1.89,1.89,1.75,2.62,4.55,4.54,4.53
473.40,2.50,-2.02,2.51,-2.01,2.02,1.89,2.71,4.52,4.53,4.52
478.13,2.36,-2.14,2.36,-2.14,2.15,2.03,2.80,4.51,4.51,4.50
482.91,2.21,-2.28,2.21,-2.28,2.28,2.17,2.87,4.50,4.49,4.49
487.74,2.06,-2.41,2.06,-2.41,2.42,2.31,2.95,4.48,4.48,4.47
492.62,1.91,-2.55,1.91,-2.55,2.55,2.45,3.01,4.47,4.47,4.46
497.55,1.76,-2.69,1.76,-2.69,2.69,2.59,3.07,4.45,4.45,4.45
502.52,1.61,-2.83,1.61,-2.83,2.83,2.73,3.13,4.44,4.44,4.44
