frequency,raw,error,smoothed,error_smoothed,equalization,parametric_eq,fixed_band_eq,equalized_raw,equalized_smoothed,target
20.00,-3.94,-10.20,-3.94,-10.20,6.00,6.99,2.68,2.06,2.06,6.26
20.20,-3.84,-10.14,-3.84,-10.14,6.00,6.95,2.76,2.16,2.16,6.30
20.40,-3.74,-10.08,-3.74,-10.07,6.00,6.92,2.84,2.26,2.26,6.34
20.61,-3.63,-9.99,-3.63,-10.00,6.00,6.88,2.92,2.37,2.37,6.36
20.81,-3.53,-9.93,-3.53,-9.93,6.00,6.84,3.00,2.47,2.47,6.40
21.02,-3.43,-9.87,-3.43,-9.86,6.00,6.80,3.09,2.57,2.57,6.44
21.23,-3.33,-9.79,-3.33,-9.79,6.00,6.76,3.18,2.67,2.67,6.46
21.44,-3.22,-9.70,-3.23,-9.70,6.00,6.72,3.27,2.78,2.77,6.48
21.66,-3.12,-9.62,-3.12,-9.61,6.00,6.68,3.37,2.88,2.88,6.50
21.87,-3.01,-9.52,-3.01,-9.52,6.00,6.64,3.47,2.99,2.99,6.51
22.09,-2.90,-9.43,-2.90,-9.43,6.00,6.60,3.56,3.10,3.10,6.52
22.31,-2.80,-9.33,-2.80,-9.33,6.00,6.56,3.67,3.20,3.20,6.53
22.54,-2.69,-9.23,-2.69,-9.23,6.00,6.52,3.77,3.31,3.31,6.53
22.76,-2.58,-9.12,-2.58,-9.12,6.00,6.48,3.88,3.42,3.42,6.54
22.99,-2.47,-9.01,-2.47,-9.02,6.00,6.44,3.99,3.53,3.53,6.54
23.22,-2.37,-8.92,-2.37,-8.92,6.00,6.39,4.11,3.63,3.63,6.55
23.45,-2.26,-8.82,-2.26,-8.82,6.00,6.35,4.22,3.74,3.74,6.56
23.69,-2.15,-8.72,-2.15,-8.73,6.00,6.31,4.34,3.85,3.85,6.57
23.92,-2.04,-8.63,-2.04,-8.64,6.00,6.26,4.46,3.96,3.96,6.59
24.16,-1.94,-8.55,-1.94,-8.54,6.00,6.22,4.58,4.06,4.06,6.61
24.40,-1.83,-8.45,-1.83,-8.45,6.00,6.17,4.71,4.17,4.17,6.62
24.65,-1.72,-8.34,-1.72,-8.35,6.00,6.13,4.83,4.28,4.28,6.62
24.89,-1.61,-8.25,-1.61,-8.25,6.00,6.08,4.96,4.39,4.39,6.64
25.14,-1.50,-8.15,-1.50,-8.14,6.00,6.04,5.09,4.50,4.50,6.65
25.39,-1.38,-8.04,-1.38,-8.04,6.00,5.99,5.22,4.62,4.62,6.66
25.65,-1.27,-7.94,-1.27,-7.94,6.00,5.94,5.36,4.73,4.73,6.67
25.91,-1.16,-7.84,-1.16,-7.84,6.00,5.89,5.49,4.84,4.84,6.68
26.16,-1.05,-7.74,-1.05,-7.74,6.00,5.84,5.62,4.95,4.95,6.69
26.43,-0.94,-7.64,-0.94,-7.64,6.00,5.80,5.75,5.06,5.06,6.69
26.69,-0.83,-7.55,-0.83,-7.54,6.00,5.75,5.88,5.17,5.17,6.71
26.96,-0.72,-7.45,-0.72,-7.45,6.00,5.70,6.01,5.28,5.28,6.72
27.23,-0.61,-7.35,-0.61,-7.34,6.00,5.65,6.13,5.39,5.39,6.73
27.50,-0.49,-7.24,-0.50,-7.24,6.00,5.59,6.25,5.51,5.50,6.75
27.77,-0.38,-7.13,-0.38,-7.14,6.00,5.54,6.36,5.62,5.62,6.75
28.05,-0.27,-7.04,-0.27,-7.03,6.00,5.49,6.48,5.73,5.73,6.77
28.33,-0.16,-6.93,-0.16,-6.93,6.00,5.44,6.58,5.84,5.84,6.77
28.62,-0.04,-6.83,-0.05,-6.83,6.00,5.39,6.68,5.96,5.95,6.79
28.90,0.07,-6.73,0.07,-6.73,6.00,5.33,6.76,6.07,6.07,6.80
29.19,0.18,-6.63,0.18,-6.63,6.01,5.28,6.85,6.18,6.19,6.81
29.48,0.29,-6.54,0.29,-6.53,6.01,5.23,6.91,6.30,6.31,6.82
29.78,0.41,-6.43,0.40,-6.43,6.02,5.17,6.97,6.43,6.42,6.83
30.08,0.52,-6.33,0.52,-6.33,6.02,5.12,7.02,6.53,6.53,6.84
30.38,0.63,-6.22,0.63,-6.22,6.01,5.06,7.05,6.63,6.64,6.85
30.68,0.74,-6.12,0.74,-6.12,5.98,5.00,7.07,6.72,6.72,6.86
30.99,0.86,-6.01,0.85,-6.02,5.94,4.95,7.08,6.80,6.79,6.87
31.30,0.96,-5.92,0.96,-5.92,5.88,4.89,7.07,6.84,6.84,6.88
31.61,1.07,-5.83,1.07,-5.82,5.81,4.83,7.06,6.88,6.88,6.90
31.93,1.18,-5.72,1.18,-5.72,5.73,4.77,7.02,6.90,6.91,6.89
32.24,1.30,-5.60,1.29,-5.61,5.63,4.72,6.97,6.93,6.92,6.90
32.57,1.41,-5.50,1.41,-5.50,5.52,4.66,6.91,6.93,6.93,6.91
32.89,1.52,-5.41,1.52,-5.40,5.41,4.60,6.84,6.93,6.93,6.93
33.22,1.64,-5.29,1.64,-5.30,5.30,4.54,6.76,6.94,6.94,6.93
33.55,1.75,-5.20,1.75,-5.19,5.19,4.48,6.66,6.94,6.94,6.95
33.89,1.86,-5.09,1.86,-5.09,5.09,4.42,6.56,6.95,6.95,6.94
34.23,1.97,-4.99,1.97,-4.99,4.99,4.36,6.44,6.96,6.96,6.96
34.57,2.08,-4.88,2.07,-4.89,4.89,4.29,6.32,6.96,6.96,6.96
34.92,2.18,-4.79,2.18,-4.79,4.78,4.23,6.19,6.96,6.97,6.97
35.27,2.29,-4.69,2.29,-4.68,4.68,4.17,6.05,6.97,6.97,6.98
35.62,2.40,-4.58,2.39,-4.58,4.58,4.11,5.91,6.98,6.98,6.97
35.97,2.50,-4.47,2.50,-4.48,4.48,4.04,5.77,6.98,6.98,6.97
36.33,2.60,-4.39,2.60,-4.38,4.38,3.98,5.62,6.98,6.98,6.99
36.70,2.70,-4.29,2.70,-4.28,4.28,3.91,5.47,6.98,6.98,6.99
37.06,2.80,-4.17,2.80,-4.19,4.18,3.85,5.31,6.98,6.98,6.97
37.43,2.89,-4.09,2.89,-4.08,4.08,3.78,5.16,6.97,6.98,6.98
37.81,2.99,-3.99,2.99,-3.99,3.99,3.72,5.00,6.97,6.97,6.98
38.19,3.09,-3.89,3.09,-3.89,3.89,3.65,4.84,6.97,6.97,6.98
38.57,3.19,-3.79,3.19,-3.79,3.79,3.59,4.68,6.97,6.97,6.98
38.95,3.29,-3.68,3.29,-3.68,3.69,3.52,4.52,6.98,6.97,6.97
39.34,3.38,-3.59,3.38,-3.59,3.59,3.45,4.37,6.97,6.97,6.97
39.74,3.47,-3.48,3.47,-3.49,3.49,3.38,4.21,6.96,6.96,6.95
40.14,3.56,-3.40,3.56,-3.39,3.40,3.32,4.06,6.95,6.96,6.96
40.54,3.65,-3.30,3.65,-3.30,3.30,3.25,3.90,6.95,6.95,6.95
40.94,3.74,-3.21,3.74,-3.21,3.21,3.18,3.75,6.95,6.95,6.95
41.35,3.82,-3.13,3.82,-3.12,3.12,3.11,3.60,6.94,6.95,6.95
41.76,3.91,-3.03,3.91,-3.04,3.04,3.04,3.45,6.95,6.95,6.94
42.18,4.00,-2.95,4.00,-2.95,2.95,2.97,3.30,6.95,6.95,6.95
42.60,4.08,-2.87,4.08,-2.86,2.87,2.90,3.16,6.95,6.95,6.95
43.03,4.17,-2.78,4.17,-2.78,2.78,2.82,3.02,6.95,6.95,6.95
43.46,4.25,-2.70,4.25,-2.70,2.69,2.75,2.88,6.94,6.94,6.95
43.90,4.33,-2.61,4.33,-2.61,2.61,2.68,2.74,6.94,6.94,6.94
44.33,4.41,-2.53,4.41,-2.53,2.52,2.61,2.60,6.93,6.93,6.94
44.78,4.50,-2.43,4.50,-2.44,2.44,2.54,2.46,6.94,6.93,6.93
45.23,4.58,-2.36,4.58,-2.35,2.36,2.46,2.33,6.93,6.94,6.94
45.68,4.67,-2.26,4.67,-2.27,2.27,2.39,2.20,6.94,6.94,6.93
46.13,4.75,-2.18,4.75,-2.19,2.19,2.31,2.07,6.94,6.94,6.93
46.60,4.84,-2.11,4.84,-2.10,2.11,2.24,1.94,6.94,6.94,6.95
47.06,4.92,-2.02,4.92,-2.03,2.02,2.16,1.82,6.94,6.94,6.94
47.53,5.01,-1.94,5.01,-1.94,1.93,2.09,1.70,6.94,6.94,6.95
48.01,5.10,-1.86,5.10,-1.85,1.85,2.01,1.57,6.94,6.95,6.96
48.49,5.19,-1.76,5.19,-1.76,1.76,1.94,1.45,6.95,6.95,6.95
48.97,5.28,-1.66,5.27,-1.66,1.67,1.86,1.34,6.94,6.94,6.93
49.46,5.36,-1.57,5.36,-1.57,1.57,1.78,1.22,6.93,6.93,6.93
49.96,5.44,-1.47,5.44,-1.48,1.48,1.71,1.10,6.92,6.92,6.91
50.46,5.53,-1.39,5.53,-1.39,1.38,1.63,0.99,6.91,6.91,6.92
50.96,5.62,-1.30,5.62,-1.29,1.29,1.55,0.88,6.91,6.91,6.91
51.47,5.71,-1.19,5.71,-1.20,1.20,1.47,0.77,6.91,6.91,6.90
51.99,5.79,-1.11,5.79,-1.11,1.11,1.40,0.66,6.90,6.90,6.90
52.51,5.87,-1.03,5.87,-1.02,1.02,1.32,0.56,6.89,6.89,6.90
53.03,5.95,-0.94,5.95,-0.94,0.94,1.24,0.45,6.88,6.88,6.89
53.56,6.03,-0.85,6.02,-0.85,0.85,1.16,0.35,6.88,6.87,6.88
54.10,6.10,-0.76,6.10,-0.76,0.76,1.08,0.25,6.86,6.86,6.86
54.64,6.17,-0.68,6.17,-0.68,0.68,1.00,0.16,6.84,6.85,6.85
55.18,6.25,-0.59,6.25,-0.59,0.59,0.92,0.06,6.84,6.84,6.84
55.74,6.32,-0.50,6.32,-0.50,0.50,0.84,-0.03,6.82,6.82,6.82
56.29,6.40,-0.42,6.39,-0.42,0.42,0.76,-0.12,6.82,6.81,6.81
56.86,6.46,-0.33,6.46,-0.33,0.33,0.68,-0.21,6.79,6.79,6.79
57.42,6.53,-0.24,6.53,-0.25,0.25,0.60,-0.30,6.77,6.78,6.77
58.00,6.60,-0.16,6.60,-0.16,0.16,0.52,-0.38,6.76,6.76,6.76
58.58,6.68,-0.07,6.67,-0.07,0.07,0.44,-0.46,6.75,6.74,6.75
59.16,6.75,0.02,6.75,0.02,-0.02,0.35,-0.54,6.72,6.73,6.73
59.76,6.83,0.11,6.83,0.11,-0.12,0.27,-0.62,6.71,6.71,6.72
60.35,6.91,0.22,6.90,0.21,-0.22,0.19,-0.69,6.69,6.69,6.69
60.96,6.98,0.31,6.98,0.31,-0.31,0.11,-0.76,6.66,6.66,6.67
61.57,7.05,0.41,7.05,0.41,-0.41,0.03,-0.83,6.64,6.64,6.63
62.18,7.12,0.51,7.12,0.51,-0.51,-0.05,-0.89,6.61,6.61,6.61
62.80,7.20,0.62,7.19,0.61,-0.60,-0.14,-0.95,6.60,6.59,6.58
63.43,7.26,0.70,7.26,0.70,-0.70,-0.22,-1.01,6.56,6.56,6.56
64.07,7.32,0.79,7.32,0.79,-0.79,-0.30,-1.07,6.53,6.53,6.53
64.71,7.38,0.87,7.38,0.87,-0.87,-0.38,-1.12,6.50,6.50,6.51
65.35,7.44,0.96,7.44,0.95,-0.96,-0.46,-1.17,6.48,6.48,6.48
66.01,7.50,1.03,7.50,1.04,-1.05,-0.55,-1.22,6.45,6.45,6.46
66.67,7.56,1.12,7.56,1.12,-1.13,-0.63,-1.27,6.43,6.43,6.44
67.33,7.62,1.21,7.62,1.21,-1.21,-0.71,-1.31,6.41,6.41,6.41
68.01,7.68,1.29,7.68,1.29,-1.29,-0.79,-1.36,6.39,6.39,6.39
68.69,7.73,1.37,7.73,1.37,-1.37,-0.87,-1.40,6.36,6.36,6.36
69.37,7.78,1.45,7.78,1.45,-1.44,-0.96,-1.44,6.34,6.34,6.33
70.07,7.83,1.52,7.83,1.52,-1.51,-1.04,-1.48,6.32,6.32,6.31
70.77,7.87,1.58,7.87,1.58,-1.58,-1.12,-1.52,6.29,6.29,6.29
71.48,7.90,1.63,7.90,1.63,-1.64,-1.20,-1.56,6.26,6.26,6.27
72.19,7.93,1.69,7.93,1.69,-1.69,-1.28,-1.59,6.24,6.24,6.24
72.91,7.97,1.75,7.97,1.75,-1.75,-1.36,-1.63,6.22,6.22,6.22
73.64,8.00,1.80,8.00,1.80,-1.80,-1.44,-1.67,6.20,6.20,6.19
74.38,8.03,1.85,8.03,1.85,-1.85,-1.52,-1.71,6.18,6.18,6.18
75.12,8.06,1.89,8.06,1.89,-1.90,-1.60,-1.74,6.16,6.16,6.16
75.87,8.09,1.93,8.09,1.94,-1.94,-1.68,-1.78,6.15,6.15,6.16
76.63,8.13,1.99,8.13,1.98,-1.98,-1.76,-1.82,6.15,6.14,6.14
77.40,8.16,2.02,8.16,2.03,-2.02,-1.84,-1.86,6.14,6.14,6.13
78.17,8.19,2.07,8.19,2.07,-2.06,-1.92,-1.90,6.13,6.13,6.12
78.95,8.22,2.10,8.22,2.10,-2.10,-1.99,-1.94,6.12,6.12,6.12
79.74,8.24,2.13,8.24,2.13,-2.14,-2.07,-1.98,6.10,6.10,6.11
80.54,8.27,2.17,8.27,2.17,-2.18,-2.15,-2.03,6.09,6.09,6.10
81.35,8.30,2.21,8.30,2.21,-2.22,-2.22,-2.07,6.08,6.09,6.09
82.16,8.34,2.26,8.33,2.25,-2.25,-2.30,-2.12,6.08,6.08,6.08
82.98,8.37,2.29,8.37,2.30,-2.29,-2.37,-2.17,6.07,6.07,6.08
83.81,8.40,2.34,8.40,2.34,-2.34,-2.44,-2.22,6.06,6.07,6.05
84.65,8.44,2.39,8.43,2.38,-2.38,-2.52,-2.27,6.06,6.05,6.05
85.50,8.47,2.42,8.47,2.42,-2.43,-2.59,-2.33,6.04,6.04,6.05
86.35,8.51,2.47,8.51,2.47,-2.48,-2.66,-2.38,6.03,6.03,6.04
87.22,8.55,2.52,8.55,2.52,-2.53,-2.73,-2.44,6.02,6.03,6.03
88.09,8.60,2.58,8.60,2.57,-2.58,-2.80,-2.50,6.02,6.02,6.02
88.97,8.65,2.62,8.65,2.63,-2.63,-2.87,-2.57,6.02,6.02,6.02
89.86,8.69,2.68,8.69,2.68,-2.68,-2.94,-2.63,6.01,6.02,6.01
90.76,8.74,2.74,8.74,2.73,-2.73,-3.01,-2.70,6.01,6.01,5.99
91.66,8.78,2.78,8.78,2.79,-2.78,-3.07,-2.77,6.00,6.00,6.00
92.58,8.82,2.84,8.82,2.83,-2.83,-3.14,-2.84,5.98,5.99,5.98
93.51,8.87,2.88,8.86,2.88,-2.89,-3.20,-2.91,5.98,5.98,5.99
94.44,8.91,2.93,8.91,2.93,-2.94,-3.27,-2.98,5.97,5.97,5.98
95.39,8.96,2.99,8.96,2.99,-2.99,-3.33,-3.06,5.96,5.97,5.97
96.34,9.01,3.06,9.00,3.05,-3.05,-3.39,-3.14,5.96,5.95,5.95
97.30,9.05,3.11,9.05,3.11,-3.11,-3.45,-3.22,5.94,5.94,5.94
98.28,9.09,3.16,9.09,3.16,-3.16,-3.51,-3.30,5.92,5.92,5.93
99.26,9.13,3.22,9.13,3.22,-3.22,-3.57,-3.38,5.91,5.91,5.91
100.25,9.18,3.27,9.18,3.28,-3.28,-3.63,-3.46,5.90,5.90,5.90
101.25,9.23,3.34,9.22,3.34,-3.33,-3.68,-3.55,5.90,5.89,5.89
102.27,9.26,3.39,9.26,3.39,-3.38,-3.74,-3.63,5.88,5.88,5.87
103.29,9.28,3.44,9.28,3.44,-3.43,-3.79,-3.72,5.85,5.85,5.84
104.32,9.30,3.47,9.30,3.48,-3.48,-3.84,-3.80,5.82,5.82,5.83
105.37,9.33,3.53,9.33,3.52,-3.53,-3.89,-3.89,5.80,5.80,5.80
106.42,9.35,3.56,9.35,3.57,-3.58,-3.94,-3.97,5.77,5.78,5.78
107.48,9.38,3.62,9.38,3.62,-3.62,-3.99,-4.06,5.76,5.76,5.76
108.56,9.40,3.68,9.40,3.67,-3.66,-4.04,-4.14,5.74,5.73,5.72
109.64,9.41,3.72,9.41,3.72,-3.70,-4.08,-4.22,5.70,5.70,5.69
110.74,9.41,3.76,9.41,3.75,-3.75,-4.13,-4.30,5.66,5.66,5.65
111.85,9.41,3.78,9.41,3.79,-3.79,-4.17,-4.38,5.62,5.62,5.62
112.97,9.41,3.83,9.41,3.83,-3.84,-4.21,-4.45,5.57,5.57,5.58
114.10,9.42,3.88,9.42,3.88,-3.89,-4.25,-4.52,5.53,5.53,5.54
115.24,9.44,3.94,9.43,3.93,-3.95,-4.29,-4.58,5.49,5.49,5.50
116.39,9.45,3.99,9.45,4.00,-4.01,-4.33,-4.64,5.44,5.45,5.45
117.55,9.48,4.06,9.48,4.07,-4.07,-4.36,-4.70,5.41,5.41,5.42
118.73,9.52,4.15,9.52,4.14,-4.14,-4.40,-4.75,5.38,5.38,5.37
119.92,9.56,4.22,9.56,4.22,-4.21,-4.43,-4.79,5.35,5.35,5.34
121.12,9.60,4.30,9.59,4.29,-4.28,-4.46,-4.83,5.32,5.31,5.30
122.33,9.62,4.35,9.62,4.35,-4.36,-4.49,-4.86,5.26,5.26,5.26
123.55,9.65,4.41,9.65,4.42,-4.43,-4.52,-4.89,5.22,5.22,5.24
124.79,9.68,4.47,9.68,4.48,-4.50,-4.54,-4.90,5.18,5.19,5.20
126.03,9.73,4.56,9.72,4.55,-4.56,-4.57,-4.92,5.17,5.16,5.17
127.29,9.75,4.61,9.75,4.62,-4.61,-4.59,-4.92,5.14,5.14,5.14
128.57,9.77,4.68,9.77,4.67,-4.65,-4.62,-4.92,5.12,5.12,5.09
129.85,9.77,4.70,9.77,4.70,-4.68,-4.64,-4.91,5.09,5.09,5.07
131.15,9.76,4.72,9.76,4.72,-4.70,-4.66,-4.90,5.06,5.06,5.04
132.46,9.74,4.72,9.73,4.72,-4.71,-4.67,-4.88,5.02,5.02,5.02
133.79,9.70,4.70,9.70,4.71,-4.72,-4.69,-4.85,4.98,4.98,4.99
135.12,9.66,4.69,9.67,4.70,-4.71,-4.70,-4.82,4.95,4.96,4.96
136.48,9.64,4.70,9.63,4.69,-4.70,-4.72,-4.79,4.94,4.93,4.94
137.84,9.60,4.67,9.60,4.69,-4.68,-4.73,-4.75,4.92,4.92,4.92
139.22,9.57,4.68,9.57,4.68,-4.67,-4.74,-4.71,4.90,4.90,4.88
140.61,9.54,4.67,9.53,4.66,-4.66,-4.75,-4.66,4.88,4.87,4.87
142.02,9.49,4.63,9.50,4.65,-4.65,-4.75,-4.61,4.84,4.85,4.86
143.44,9.47,4.64,9.47,4.64,-4.65,-4.76,-4.56,4.82,4.82,4.83
144.87,9.44,4.64,9.44,4.64,-4.65,-4.76,-4.51,4.79,4.79,4.80
146.32,9.43,4.65,9.43,4.65,-4.65,-4.77,-4.46,4.77,4.77,4.78
147.78,9.42,4.66,9.42,4.66,-4.66,-4.77,-4.40,4.75,4.75,4.76
149.26,9.41,4.67,9.41,4.68,-4.68,-4.77,-4.35,4.73,4.73,4.74
150.75,9.40,4.70,9.40,4.69,-4.70,-4.77,-4.30,4.70,4.70,4.70
152.26,9.39,4.72,9.39,4.72,-4.71,-4.76,-4.24,4.68,4.67,4.67
153.78,9.37,4.73,9.38,4.73,-4.73,-4.76,-4.19,4.64,4.64,4.64
155.32,9.37,4.76,9.36,4.75,-4.74,-4.75,-4.14,4.62,4.62,4.61
156.88,9.34,4.75,9.34,4.76,-4.75,-4.75,-4.09,4.58,4.59,4.59
158.44,9.32,4.76,9.31,4.76,-4.76,-4.74,-4.04,4.56,4.55,4.56
160.03,9.27,4.75,9.28,4.76,-4.76,-4.73,-3.99,4.51,4.52,4.51
161.63,9.24,4.76,9.24,4.76,-4.75,-4.72,-3.95,4.49,4.49,4.48
163.24,9.20,4.76,9.19,4.74,-4.73,-4.71,-3.91,4.46,4.46,4.44
164.88,9.14,4.72,9.14,4.72,-4.72,-4.69,-3.87,4.42,4.43,4.42
166.53,9.08,4.69,9.08,4.70,-4.70,-4.68,-3.83,4.38,4.39,4.38
168.19,9.03,4.67,9.02,4.66,-4.67,-4.67,-3.80,4.36,4.35,4.36
169.87,8.95,4.63,8.96,4.64,-4.65,-4.65,-3.76,4.30,4.31,4.32
171.57,8.90,4.62,8.90,4.62,-4.63,-4.63,-3.73,4.27,4.27,4.28
173.29,8.85,4.62,8.84,4.60,-4.61,-4.61,-3.71,4.24,4.23,4.23
175.02,8.77,4.57,8.78,4.59,-4.59,-4.59,-3.68,4.18,4.19,4.20
176.77,8.72,4.57,8.72,4.57,-4.57,-4.57,-3.66,4.15,4.15,4.15
178.54,8.66,4.56,8.66,4.56,-4.55,-4.55,-3.65,4.10,4.10,4.09
180.32,8.60,4.55,8.60,4.55,-4.54,-4.53,-3.63,4.06,4.06,4.05
182.13,8.54,4.53,8.53,4.53,-4.53,-4.50,-3.62,4.01,4.00,4.00
183.95,8.45,4.50,8.46,4.51,-4.51,-4.48,-3.61,3.94,3.95,3.95
185.79,8.39,4.48,8.39,4.49,-4.50,-4.45,-3.60,3.89,3.89,3.91
187.65,8.33,4.48,8.33,4.48,-4.48,-4.43,-3.60,3.85,3.85,3.85
189.52,8.28,4.47,8.28,4.47,-4.47,-4.40,-3.60,3.81,3.81,3.81
191.42,8.23,4.46,8.22,4.46,-4.45,-4.37,-3.60,3.78,3.77,3.77
193.33,8.16,4.43,8.16,4.44,-4.44,-4.34,-3.60,3.72,3.72,3.72
195.27,8.10,4.42,8.10,4.42,-4.42,-4.32,-3.61,3.68,3.67,3.68
197.22,8.03,4.40,8.04,4.41,-4.41,-4.29,-3.62,3.62,3.63,3.63
199.19,7.98,4.40,7.98,4.39,-4.39,-4.25,-3.63,3.59,3.59,3.58
201.18,7.92,4.38,7.91,4.37,-4.36,-4.22,-3.64,3.55,3.55,3.54
203.19,7.85,4.34,7.85,4.34,-4.34,-4.19,-3.65,3.51,3.51,3.51
205.23,7.77,4.30,7.77,4.30,-4.31,-4.16,-3.67,3.46,3.47,3.47
207.28,7.70,4.26,7.70,4.27,-4.27,-4.13,-3.68,3.42,3.43,3.44
209.35,7.64,4.25,7.63,4.25,-4.24,-4.09,-3.70,3.40,3.39,3.39
211.44,7.56,4.22,7.56,4.21,-4.21,-4.06,-3.72,3.35,3.35,3.34
213.56,7.48,4.17,7.47,4.16,-4.17,-4.02,-3.74,3.31,3.30,3.31
215.69,7.39,4.11,7.40,4.12,-4.13,-3.99,-3.76,3.25,3.26,3.28
217.85,7.32,4.08,7.33,4.09,-4.09,-3.95,-3.78,3.22,3.24,3.24
220.03,7.28,4.07,7.27,4.06,-4.05,-3.92,-3.79,3.22,3.22,3.21
222.23,7.22,4.04,7.21,4.03,-4.01,-3.88,-3.81,3.21,3.20,3.18
224.45,7.14,3.98,7.13,3.98,-3.96,-3.84,-3.83,3.17,3.17,3.16
226.70,7.05,3.91,7.05,3.91,-3.92,-3.81,-3.84,3.13,3.13,3.14
228.96,6.97,3.85,6.98,3.86,-3.87,-3.77,-3.85,3.10,3.11,3.12
231.25,6.93,3.82,6.92,3.81,-3.82,-3.73,-3.86,3.11,3.09,3.11
233.57,6.87,3.78,6.86,3.77,-3.77,-3.69,-3.87,3.10,3.09,3.09
235.90,6.79,3.70,6.80,3.72,-3.72,-3.66,-3.88,3.07,3.09,3.09
238.26,6.75,3.68,6.74,3.67,-3.66,-3.62,-3.88,3.09,3.08,3.07
240.64,6.69,3.61,6.69,3.62,-3.61,-3.58,-3.88,3.08,3.09,3.07
243.05,6.64,3.56,6.63,3.56,-3.55,-3.54,-3.87,3.09,3.08,3.08
245.48,6.58,3.50,6.57,3.49,-3.50,-3.50,-3.87,3.08,3.07,3.07
247.93,6.49,3.41,6.51,3.43,-3.44,-3.46,-3.85,3.05,3.07,3.08
250.41,6.46,3.39,6.45,3.37,-3.38,-3.42,-3.84,3.08,3.07,3.07
252.92,6.41,3.31,6.41,3.32,-3.32,-3.38,-3.82,3.09,3.09,3.10
255.45,6.38,3.26,6.38,3.27,-3.26,-3.34,-3.80,3.12,3.11,3.11
258.00,6.34,3.22,6.33,3.21,-3.20,-3.30,-3.77,3.14,3.13,3.12
260.58,6.27,3.14,6.28,3.15,-3.14,-3.26,-3.74,3.13,3.13,3.12
263.19,6.23,3.09,6.22,3.09,-3.08,-3.23,-3.70,3.15,3.14,3.14
265.82,6.17,3.02,6.18,3.02,-3.02,-3.19,-3.67,3.15,3.16,3.15
268.48,6.14,2.97,6.13,2.96,-2.96,-3.15,-3.63,3.18,3.17,3.17
271.16,6.09,2.90,6.08,2.90,-2.90,-3.11,-3.58,3.19,3.18,3.19
273.87,6.03,2.83,6.04,2.84,-2.84,-3.07,-3.54,3.19,3.19,3.20
276.61,5.99,2.78,5.99,2.78,-2.79,-3.03,-3.49,3.20,3.20,3.21
279.38,5.96,2.74,5.96,2.74,-2.74,-2.99,-3.44,3.22,3.22,3.22
282.17,5.93,2.69,5.93,2.70,-2.69,-2.95,-3.38,3.24,3.24,3.23
284.99,5.91,2.66,5.90,2.66,-2.65,-2.91,-3.33,3.26,3.25,3.25
287.84,5.88,2.62,5.88,2.62,-2.62,-2.87,-3.27,3.26,3.26,3.26
290.72,5.86,2.58,5.86,2.58,-2.59,-2.83,-3.22,3.27,3.27,3.28
293.63,5.84,2.56,5.84,2.55,-2.57,-2.79,-3.16,3.27,3.27,3.28
296.57,5.83,2.53,5.83,2.54,-2.55,-2.75,-3.10,3.28,3.28,3.30
299.53,5.84,2.53,5.84,2.53,-2.54,-2.71,-3.05,3.30,3.30,3.31
302.53,5.85,2.53,5.84,2.53,-2.52,-2.67,-2.99,3.33,3.32,3.32
305.55,5.85,2.52,5.85,2.52,-2.51,-2.63,-2.93,3.34,3.34,3.33
308.61,5.85,2.51,5.85,2.50,-2.49,-2.60,-2.88,3.36,3.36,3.34
311.69,5.84,2.48,5.84,2.48,-2.47,-2.56,-2.82,3.37,3.37,3.36
314.81,5.82,2.44,5.82,2.45,-2.44,-2.52,-2.77,3.38,3.38,3.38
317.96,5.80,2.41,5.80,2.41,-2.41,-2.48,-2.72,3.39,3.39,3.38
321.14,5.77,2.38,5.76,2.37,-2.37,-2.44,-2.66,3.40,3.39,3.39
324.35,5.73,2.33,5.73,2.33,-2.33,-2.40,-2.61,3.40,3.40,3.40
327.59,5.69,2.28,5.70,2.29,-2.29,-2.37,-2.56,3.40,3.41,3.41
330.87,5.67,2.25,5.66,2.25,-2.25,-2.33,-2.52,3.42,3.41,3.42
334.18,5.63,2.20,5.63,2.21,-2.20,-2.29,-2.47,3.42,3.42,3.42
337.52,5.59,2.17,5.59,2.17,-2.17,-2.25,-2.43,3.42,3.43,3.42
340.90,5.57,2.13,5.56,2.13,-2.13,-2.22,-2.38,3.44,3.43,3.44
344.30,5.54,2.10,5.54,2.10,-2.10,-2.18,-2.34,3.43,3.44,3.44
347.75,5.53,2.08,5.52,2.08,-2.08,-2.14,-2.30,3.45,3.44,3.45
351.23,5.51,2.06,5.51,2.06,-2.07,-2.11,-2.27,3.44,3.44,3.45
354.74,5.50,2.05,5.50,2.05,-2.06,-2.07,-2.23,3.44,3.44,3.45
358.28,5.50,2.04,5.50,2.05,-2.06,-2.03,-2.20,3.44,3.44,3.45
361.87,5.51,2.06,5.51,2.06,-2.06,-2.00,-2.17,3.45,3.45,3.45
365.49,5.52,2.07,5.51,2.07,-2.06,-1.96,-2.14,3.46,3.45,3.45
369.14,5.52,2.08,5.52,2.08,-2.07,-1.93,-2.11,3.45,3.45,3.44
372.83,5.52,2.08,5.52,2.08,-2.07,-1.89,-2.08,3.45,3.45,3.44
376.56,5.52,2.08,5.52,2.08,-2.08,-1.86,-2.05,3.44,3.44,3.44
380.33,5.52,2.07,5.52,2.08,-2.08,-1.82,-2.03,3.44,3.44,3.45
384.13,5.52,2.08,5.52,2.08,-2.09,-1.79,-2.01,3.43,3.43,3.44
387.97,5.52,2.08,5.52,2.08,-2.09,-1.75,-1.99,3.43,3.43,3.43
391.85,5.52,2.10,5.52,2.09,-2.09,-1.72,-1.97,3.42,3.42,3.42
395.77,5.52,2.09,5.52,2.09,-2.10,-1.68,-1.95,3.42,3.42,3.43
399.73,5.53,2.11,5.53,2.10,-2.10,-1.65,-1.93,3.43,3.42,3.42
403.72,5.53,2.11,5.53,2.11,-2.11,-1.61,-1.92,3.42,3.43,3.42
407.76,5.54,2.12,5.54,2.11,-2.11,-1.58,-1.90,3.43,3.43,3.42
411.84,5.54,2.11,5.54,2.11,-2.11,-1.55,-1.88,3.43,3.43,3.43
415.96,5.53,2.10,5.53,2.10,-2.10,-1.51,-1.87,3.43,3.43,3.43
420.12,5.52,2.09,5.52,2.09,-2.10,-1.48,-1.86,3.42,3.42,3.43
424.32,5.50,2.07,5.50,2.08,-2.08,-1.45,-1.84,3.41,3.42,3.43
428.56,5.49,2.07,5.49,2.07,-2.07,-1.41,-1.83,3.42,3.42,3.42
432.85,5.47,2.05,5.47,2.05,-2.05,-1.38,-1.82,3.42,3.42,3.42
437.18,5.44,2.02,5.44,2.02,-2.02,-1.35,-1.80,3.42,3.42,3.41
441.55,5.41,1.98,5.41,1.99,-1.98,-1.32,-1.79,3.42,3.42,3.42
445.96,5.37,1.94,5.36,1.94,-1.94,-1.28,-1.77,3.43,3.42,3.42
450.42,5.31,1.90,5.31,1.89,-1.89,-1.25,-1.75,3.41,3.42,3.41
454.93,5.26,1.84,5.26,1.84,-1.84,-1.22,-1.74,3.42,3.42,3.42
459.48,5.20,1.78,5.20,1.78,-1.77,-1.19,-1.72,3.42,3.42,3.42
464.07,5.13,1.71,5.13,1.71,-1.70,-1.16,-1.70,3.43,3.43,3.42
468.71,5.06,1.63,5.06,1.63,-1.63,-1.13,-1.68,3.43,3.43,3.43
473.40,4.97,1.55,4.97,1.55,-1.55,-1.09,-1.65,3.42,3.43,3.42
478.13,4.89,1.46,4.88,1.46,-1.46,-1.06,-1.63,3.43,3.42,3.43
482.91,4.79,1.36,4.79,1.36,-1.37,-1.03,-1.60,3.42,3.42,3.43
487.74,4.70,1.27,4.70,1.27,-1.27,-1.00,-1.57,3.43,3.43,3.43
492.62,4.61,1.17,4.61,1.18,-1.17,-0.97,-1.53,3.44,3.44,3.44
497.55,4.52,1.09,4.51,1.08,-1.07,-0.94,-1.50,3.45,3.45,3.43
502.52,4.41,0.97,4.41,0.97,-0.96,-0.91,-1.46,3.45,3.45,3.44
507.55,4.29,0.86,4.29,0.86,-0.86,-0.88,-1.42,3.43,3.44,3.43
512.62,4.18,0.75,4.18,0.75,-0.75,-0.84,-1.38,3.43,3.43,3.43
517.75,4.07,0.63,4.07,0.64,-0.65,-0.81,-1.33,3.42,3.42,3.44
522.93,3.98,0.54,3.98,0.54,-0.55,-0.78,-1.28,3.43,3.42,3.44
528.16,3.89,0.46,3.89,0.46,-0.46,-0.75,-1.23,3.43,3.43,3.43
533.44,3.81,0.38,3.81,0.38,-0.38,-0.72,-1.18,3.43,3.43,3.43
538.77,3.74,0.31,3.74,0.31,-0.31,-0.69,-1.13,3.43,3.43,3.43
544.16,3.68,0.25,3.68,0.25,-0.26,-0.66,-1.07,3.42,3.42,3.43
549.60,3.62,0.20,3.62,0.21,-0.21,-0.63,-1.01,3.40,3.41,3.42
