frequency,raw,error,smoothed,error_smoothed,equalization,parametric_eq,fixed_band_eq,equalized_raw,equalized_smoothed,target
20.00,1.93,0.52,1.92,0.51,-0.56,-0.75,-0.61,1.37,1.36,1.41
20.20,2.03,0.58,2.03,0.58,-0.60,-0.77,-0.63,1.43,1.43,1.45
20.40,2.12,0.63,2.13,0.65,-0.64,-0.79,-0.65,1.48,1.50,1.49
20.61,2.22,0.71,2.22,0.70,-0.67,-0.80,-0.66,1.54,1.55,1.51
20.81,2.31,0.76,2.31,0.76,-0.71,-0.82,-0.68,1.60,1.61,1.55
21.02,2.40,0.81,2.37,0.79,-0.74,-0.83,-0.70,1.66,1.64,1.59
21.23,2.40,0.80,2.41,0.80,-0.77,-0.85,-0.72,1.63,1.64,1.60
21.44,2.41,0.79,2.41,0.79,-0.79,-0.87,-0.74,1.62,1.62,1.62
21.66,2.41,0.78,2.41,0.78,-0.80,-0.89,-0.76,1.61,1.61,1.63
21.87,2.42,0.79,2.42,0.79,-0.82,-0.90,-0.79,1.60,1.61,1.63
22.09,2.44,0.80,2.44,0.81,-0.83,-0.92,-0.81,1.61,1.61,1.64
22.31,2.48,0.84,2.48,0.84,-0.86,-0.94,-0.83,1.62,1.62,1.64
22.54,2.52,0.88,2.52,0.88,-0.88,-0.96,-0.86,1.63,1.63,1.64
22.76,2.56,0.93,2.56,0.93,-0.92,-0.97,-0.88,1.64,1.64,1.63
22.99,2.60,0.98,2.59,0.97,-0.96,-0.99,-0.91,1.64,1.63,1.62
23.22,2.62,1.00,2.62,1.01,-1.00,-1.01,-0.93,1.62,1.63,1.62
23.45,2.65,1.04,2.65,1.04,-1.03,-1.03,-0.96,1.62,1.62,1.61
23.69,2.68,1.07,2.68,1.07,-1.06,-1.05,-0.98,1.61,1.61,1.61
23.92,2.70,1.09,2.70,1.09,-1.09,-1.07,-1.01,1.61,1.61,1.61
24.16,2.73,1.11,2.73,1.11,-1.12,-1.09,-1.04,1.61,1.61,1.62
24.40,2.75,1.13,2.75,1.14,-1.15,-1.11,-1.07,1.60,1.60,1.62
24.65,2.78,1.17,2.78,1.17,-1.18,-1.13,-1.09,1.60,1.60,1.61
24.89,2.81,1.20,2.80,1.20,-1.21,-1.15,-1.12,1.60,1.60,1.60
25.14,2.83,1.22,2.83,1.23,-1.23,-1.17,-1.15,1.60,1.60,1.60
25.39,2.86,1.26,2.86,1.26,-1.26,-1.19,-1.18,1.60,1.60,1.60
25.65,2.89,1.29,2.89,1.29,-1.28,-1.21,-1.21,1.61,1.61,1.59
25.91,2.91,1.33,2.91,1.32,-1.30,-1.23,-1.24,1.61,1.61,1.58
26.16,2.92,1.34,2.92,1.33,-1.32,-1.25,-1.27,1.60,1.60,1.58
26.43,2.92,1.34,2.92,1.34,-1.34,-1.27,-1.30,1.58,1.58,1.58
26.69,2.92,1.34,2.92,1.34,-1.36,-1.29,-1.32,1.55,1.55,1.58
26.96,2.92,1.35,2.93,1.36,-1.39,-1.31,-1.35,1.53,1.54,1.57
27.23,2.96,1.39,2.96,1.39,-1.42,-1.33,-1.38,1.54,1.54,1.57
27.50,3.02,1.45,3.02,1.45,-1.45,-1.35,-1.41,1.56,1.56,1.57
27.77,3.07,1.51,3.07,1.51,-1.48,-1.36,-1.43,1.59,1.58,1.56
28.05,3.11,1.55,3.10,1.54,-1.51,-1.38,-1.46,1.60,1.59,1.56
28.33,3.11,1.56,3.11,1.56,-1.54,-1.40,-1.48,1.57,1.57,1.55
28.62,3.11,1.56,3.11,1.57,-1.56,-1.42,-1.51,1.55,1.55,1.55
28.90,3.11,1.56,3.11,1.56,-1.57,-1.44,-1.53,1.54,1.54,1.54
29.19,3.11,1.56,3.11,1.56,-1.57,-1.46,-1.55,1.54,1.54,1.54
29.48,3.11,1.56,3.11,1.56,-1.57,-1.47,-1.57,1.54,1.54,1.55
29.78,3.11,1.57,3.11,1.56,-1.55,-1.49,-1.58,1.55,1.55,1.54
30.08,3.10,1.55,3.10,1.55,-1.54,-1.50,-1.60,1.56,1.55,1.55
30.38,3.08,1.55,3.07,1.54,-1.53,-1.52,-1.61,1.55,1.54,1.53
30.68,3.05,1.52,3.05,1.52,-1.53,-1.54,-1.62,1.52,1.52,1.53
30.99,3.02,1.50,3.03,1.51,-1.52,-1.55,-1.63,1.50,1.51,1.52
31.30,3.02,1.50,3.02,1.50,-1.52,-1.56,-1.64,1.50,1.50,1.52
31.61,3.02,1.50,3.02,1.51,-1.52,-1.58,-1.65,1.50,1.50,1.52
31.93,3.02,1.52,3.02,1.52,-1.52,-1.59,-1.65,1.50,1.50,1.49
32.24,3.02,1.54,3.02,1.53,-1.53,-1.60,-1.65,1.49,1.49,1.48
32.57,3.02,1.54,3.02,1.54,-1.54,-1.61,-1.65,1.48,1.48,1.48
32.89,3.02,1.55,3.02,1.55,-1.55,-1.62,-1.65,1.47,1.47,1.47
33.22,3.02,1.57,3.02,1.56,-1.56,-1.63,-1.65,1.46,1.46,1.45
33.55,3.02,1.57,3.02,1.58,-1.58,-1.64,-1.64,1.44,1.44,1.45
33.89,3.02,1.59,3.02,1.59,-1.59,-1.65,-1.64,1.43,1.43,1.42
34.23,3.02,1.60,3.02,1.60,-1.60,-1.66,-1.63,1.42,1.42,1.42
34.57,3.02,1.62,3.02,1.61,-1.61,-1.66,-1.62,1.40,1.40,1.40
34.92,3.02,1.63,3.02,1.62,-1.63,-1.67,-1.61,1.39,1.39,1.39
35.27,3.02,1.63,3.02,1.64,-1.64,-1.67,-1.60,1.38,1.38,1.39
35.62,3.02,1.65,3.02,1.65,-1.65,-1.68,-1.59,1.37,1.37,1.37
35.97,3.02,1.66,3.02,1.66,-1.66,-1.68,-1.58,1.36,1.36,1.35
36.33,3.02,1.67,3.02,1.67,-1.67,-1.68,-1.57,1.35,1.35,1.35
36.70,3.02,1.68,3.02,1.68,-1.68,-1.68,-1.55,1.34,1.34,1.34
37.06,3.02,1.69,3.02,1.68,-1.68,-1.68,-1.54,1.33,1.33,1.33
37.43,3.02,1.68,3.02,1.69,-1.69,-1.68,-1.53,1.33,1.33,1.33
37.81,3.02,1.70,3.02,1.70,-1.70,-1.68,-1.52,1.32,1.32,1.32
38.19,3.02,1.71,3.02,1.70,-1.71,-1.68,-1.50,1.31,1.31,1.31
38.57,3.02,1.70,3.02,1.71,-1.71,-1.68,-1.49,1.30,1.30,1.32
38.95,3.02,1.72,3.02,1.71,-1.71,-1.68,-1.48,1.30,1.31,1.30
39.34,3.02,1.72,3.02,1.72,-1.71,-1.67,-1.47,1.31,1.31,1.30
39.74,3.02,1.73,3.02,1.73,-1.71,-1.67,-1.46,1.31,1.31,1.29
40.14,3.01,1.72,3.00,1.71,-1.70,-1.66,-1.45,1.31,1.30,1.28
40.54,2.97,1.69,2.97,1.69,-1.69,-1.66,-1.44,1.28,1.28,1.28
40.94,2.93,1.65,2.94,1.67,-1.68,-1.65,-1.43,1.25,1.26,1.28
41.35,2.92,1.65,2.92,1.66,-1.67,-1.65,-1.42,1.25,1.25,1.26
41.76,2.92,1.67,2.91,1.66,-1.66,-1.64,-1.42,1.26,1.26,1.25
42.18,2.91,1.66,2.90,1.66,-1.65,-1.64,-1.41,1.26,1.25,1.25
42.60,2.88,1.65,2.88,1.64,-1.64,-1.63,-1.41,1.24,1.24,1.23
43.03,2.85,1.62,2.85,1.63,-1.64,-1.62,-1.40,1.21,1.22,1.23
43.46,2.84,1.64,2.83,1.63,-1.64,-1.62,-1.40,1.19,1.19,1.20
43.90,2.82,1.64,2.82,1.64,-1.65,-1.61,-1.40,1.17,1.17,1.18
44.33,2.82,1.65,2.82,1.66,-1.66,-1.60,-1.40,1.16,1.16,1.16
44.78,2.82,1.68,2.82,1.67,-1.68,-1.59,-1.40,1.14,1.14,1.14
45.23,2.82,1.69,2.82,1.69,-1.69,-1.59,-1.40,1.13,1.13,1.12
45.68,2.82,1.71,2.82,1.71,-1.70,-1.58,-1.40,1.11,1.11,1.11
46.13,2.82,1.73,2.82,1.72,-1.72,-1.57,-1.41,1.10,1.10,1.09
46.60,2.82,1.73,2.82,1.73,-1.73,-1.56,-1.41,1.09,1.09,1.09
47.06,2.82,1.74,2.81,1.73,-1.73,-1.56,-1.42,1.09,1.09,1.08
47.53,2.80,1.72,2.80,1.73,-1.72,-1.55,-1.42,1.07,1.08,1.08
48.01,2.79,1.72,2.78,1.72,-1.72,-1.54,-1.43,1.07,1.07,1.07
48.49,2.76,1.71,2.76,1.70,-1.70,-1.54,-1.44,1.06,1.06,1.05
48.97,2.73,1.69,2.73,1.69,-1.69,-1.53,-1.45,1.04,1.04,1.04
49.46,2.70,1.67,2.70,1.67,-1.67,-1.52,-1.46,1.03,1.03,1.03
49.96,2.67,1.66,2.67,1.65,-1.65,-1.52,-1.47,1.01,1.02,1.01
50.46,2.65,1.62,2.65,1.63,-1.64,-1.51,-1.48,1.01,1.00,1.02
50.96,2.63,1.61,2.63,1.62,-1.64,-1.51,-1.49,0.99,1.00,1.02
51.47,2.63,1.62,2.63,1.62,-1.63,-1.50,-1.50,0.99,0.99,1.01
51.99,2.63,1.63,2.63,1.62,-1.63,-1.50,-1.52,1.00,0.99,1.00
52.51,2.63,1.63,2.63,1.63,-1.63,-1.50,-1.53,1.00,1.00,1.00
53.03,2.63,1.63,2.63,1.64,-1.62,-1.49,-1.55,1.01,1.01,1.00
53.56,2.63,1.64,2.63,1.64,-1.61,-1.49,-1.56,1.02,1.02,0.99
54.10,2.62,1.64,2.61,1.62,-1.59,-1.49,-1.58,1.03,1.02,0.98
54.64,2.57,1.59,2.57,1.59,-1.57,-1.49,-1.59,1.00,0.99,0.98
55.18,2.51,1.54,2.51,1.54,-1.56,-1.49,-1.61,0.95,0.95,0.97
55.74,2.46,1.50,2.47,1.50,-1.54,-1.49,-1.62,0.92,0.92,0.96
56.29,2.44,1.48,2.44,1.49,-1.53,-1.49,-1.64,0.91,0.91,0.96
56.86,2.44,1.50,2.44,1.50,-1.51,-1.49,-1.65,0.93,0.92,0.94
57.42,2.44,1.51,2.44,1.51,-1.50,-1.49,-1.66,0.94,0.94,0.93
58.00,2.44,1.52,2.44,1.52,-1.48,-1.49,-1.68,0.95,0.95,0.91
58.58,2.42,1.52,2.41,1.51,-1.47,-1.49,-1.69,0.94,0.94,0.90
59.16,2.38,1.49,2.36,1.48,-1.46,-1.50,-1.70,0.91,0.90,0.89
59.76,2.29,1.42,2.31,1.44,-1.45,-1.50,-1.71,0.83,0.86,0.86
60.35,2.25,1.41,2.26,1.42,-1.45,-1.51,-1.73,0.80,0.82,0.84
60.96,2.25,1.43,2.22,1.41,-1.44,-1.51,-1.74,0.81,0.78,0.82
61.57,2.19,1.42,2.19,1.42,-1.43,-1.52,-1.74,0.76,0.76,0.77
62.18,2.15,1.41,2.17,1.43,-1.43,-1.53,-1.75,0.72,0.74,0.73
62.80,2.15,1.45,2.15,1.45,-1.44,-1.54,-1.76,0.71,0.71,0.70
63.43,2.14,1.48,2.13,1.47,-1.45,-1.54,-1.77,0.69,0.68,0.66
64.07,2.12,1.49,2.11,1.48,-1.47,-1.55,-1.77,0.65,0.64,0.63
64.71,2.07,1.48,2.08,1.49,-1.49,-1.56,-1.78,0.58,0.59,0.59
65.35,2.05,1.49,2.06,1.50,-1.52,-1.57,-1.78,0.53,0.54,0.56
66.01,2.05,1.53,2.05,1.52,-1.54,-1.59,-1.79,0.51,0.51,0.52
66.67,2.05,1.57,2.05,1.56,-1.56,-1.60,-1.79,0.49,0.49,0.48
67.33,2.04,1.59,2.04,1.59,-1.57,-1.61,-1.79,0.47,0.47,0.45
68.01,2.03,1.62,2.02,1.60,-1.58,-1.63,-1.80,0.45,0.43,0.41
68.69,1.98,1.61,1.99,1.62,-1.60,-1.64,-1.80,0.38,0.40,0.37
69.37,1.96,1.63,1.96,1.63,-1.62,-1.66,-1.80,0.34,0.35,0.33
70.07,1.95,1.66,1.92,1.63,-1.64,-1.67,-1.80,0.31,0.28,0.29
70.77,1.88,1.62,1.89,1.63,-1.67,-1.69,-1.80,0.21,0.22,0.26
71.48,1.86,1.64,1.88,1.66,-1.71,-1.71,-1.80,0.15,0.17,0.21
72.19,1.88,1.71,1.89,1.72,-1.75,-1.73,-1.81,0.13,0.14,0.17
72.91,1.95,1.83,1.93,1.81,-1.80,-1.75,-1.81,0.15,0.13,0.12
73.64,1.96,1.89,1.95,1.88,-1.85,-1.77,-1.81,0.11,0.10,0.07
74.38,1.96,1.93,1.96,1.94,-1.91,-1.79,-1.82,0.05,0.06,0.03
75.12,1.96,1.98,1.96,1.98,-1.97,-1.81,-1.82,-0.01,-0.01,-0.02
75.87,1.96,2.02,1.96,2.01,-2.02,-1.83,-1.82,-0.06,-0.06,-0.06
76.63,1.96,2.05,1.96,2.06,-2.07,-1.86,-1.83,-0.11,-0.11,-0.09
77.40,1.96,2.09,1.96,2.09,-2.10,-1.88,-1.84,-0.14,-0.14,-0.13
78.17,1.97,2.14,1.96,2.13,-2.13,-1.90,-1.85,-0.16,-0.17,-0.17
78.95,1.96,2.16,1.96,2.16,-2.15,-1.93,-1.85,-0.19,-0.19,-0.20
79.74,1.96,2.19,1.96,2.19,-2.17,-1.96,-1.87,-0.21,-0.21,-0.23
80.54,1.96,2.22,1.95,2.21,-2.19,-1.98,-1.88,-0.23,-0.24,-0.26
81.35,1.93,2.22,1.92,2.21,-2.21,-2.01,-1.89,-0.28,-0.28,-0.29
82.16,1.88,2.20,1.89,2.21,-2.22,-2.04,-1.90,-0.34,-0.33,-0.32
82.98,1.86,2.20,1.86,2.21,-2.24,-2.06,-1.92,-0.38,-0.37,-0.34
83.81,1.86,2.24,1.85,2.24,-2.25,-2.09,-1.94,-0.39,-0.40,-0.38
84.65,1.86,2.28,1.86,2.27,-2.27,-2.12,-1.96,-0.42,-0.42,-0.42
85.50,1.86,2.30,1.86,2.30,-2.30,-2.15,-1.98,-0.44,-0.44,-0.44
86.35,1.86,2.33,1.86,2.33,-2.34,-2.18,-2.00,-0.48,-0.48,-0.48
87.22,1.86,2.37,1.86,2.37,-2.37,-2.21,-2.02,-0.51,-0.51,-0.51
88.09,1.86,2.40,1.86,2.40,-2.41,-2.24,-2.05,-0.55,-0.55,-0.54
88.97,1.86,2.43,1.86,2.44,-2.44,-2.26,-2.07,-0.58,-0.57,-0.57
89.86,1.86,2.46,1.87,2.47,-2.45,-2.29,-2.10,-0.60,-0.59,-0.61
90.76,1.87,2.51,1.86,2.50,-2.47,-2.32,-2.13,-0.60,-0.61,-0.64
91.66,1.84,2.51,1.83,2.50,-2.47,-2.35,-2.16,-0.63,-0.64,-0.67
92.58,1.79,2.49,1.78,2.49,-2.48,-2.38,-2.19,-0.69,-0.69,-0.71
93.51,1.72,2.45,1.73,2.46,-2.48,-2.41,-2.23,-0.76,-0.75,-0.73
94.44,1.68,2.44,1.69,2.45,-2.48,-2.44,-2.26,-0.81,-0.80,-0.76
95.39,1.67,2.46,1.67,2.46,-2.49,-2.46,-2.30,-0.82,-0.82,-0.79
96.34,1.67,2.49,1.66,2.49,-2.49,-2.49,-2.34,-0.82,-0.83,-0.83
97.30,1.66,2.51,1.66,2.51,-2.50,-2.51,-2.38,-0.84,-0.84,-0.85
98.28,1.65,2.53,1.65,2.53,-2.51,-2.54,-2.42,-0.87,-0.86,-0.88
99.26,1.64,2.54,1.63,2.54,-2.53,-2.56,-2.46,-0.89,-0.90,-0.90
100.25,1.62,2.55,1.62,2.55,-2.55,-2.59,-2.50,-0.94,-0.94,-0.93
101.25,1.60,2.56,1.60,2.56,-2.57,-2.61,-2.55,-0.97,-0.97,-0.96
102.27,1.59,2.58,1.59,2.58,-2.59,-2.63,-2.59,-1.00,-1.00,-0.99
103.29,1.58,2.62,1.58,2.61,-2.60,-2.65,-2.63,-1.02,-1.03,-1.04
104.32,1.56,2.62,1.56,2.62,-2.62,-2.67,-2.68,-1.06,-1.06,-1.06
105.37,1.54,2.64,1.54,2.63,-2.63,-2.68,-2.72,-1.10,-1.10,-1.10
106.42,1.51,2.64,1.51,2.64,-2.65,-2.70,-2.77,-1.14,-1.14,-1.13
107.48,1.49,2.65,1.49,2.65,-2.66,-2.71,-2.81,-1.17,-1.18,-1.17
108.56,1.46,2.66,1.46,2.67,-2.66,-2.72,-2.85,-1.21,-1.20,-1.21
109.64,1.44,2.68,1.44,2.68,-2.66,-2.74,-2.90,-1.22,-1.22,-1.25
110.74,1.42,2.69,1.41,2.69,-2.66,-2.75,-2.94,-1.24,-1.25,-1.27
111.85,1.37,2.67,1.36,2.67,-2.65,-2.75,-2.98,-1.28,-1.29,-1.30
112.97,1.30,2.65,1.30,2.64,-2.65,-2.76,-3.01,-1.35,-1.35,-1.35
114.10,1.24,2.61,1.24,2.62,-2.64,-2.77,-3.05,-1.41,-1.40,-1.37
115.24,1.20,2.61,1.21,2.61,-2.65,-2.77,-3.08,-1.45,-1.44,-1.41
116.39,1.20,2.64,1.20,2.63,-2.65,-2.78,-3.11,-1.46,-1.46,-1.44
117.55,1.20,2.66,1.20,2.66,-2.67,-2.78,-3.14,-1.47,-1.47,-1.46
118.73,1.21,2.70,1.20,2.69,-2.69,-2.78,-3.16,-1.48,-1.48,-1.49
119.92,1.21,2.71,1.21,2.72,-2.71,-2.78,-3.18,-1.50,-1.50,-1.50
121.12,1.22,2.74,1.22,2.74,-2.73,-2.78,-3.20,-1.51,-1.51,-1.53
122.33,1.23,2.77,1.24,2.77,-2.75,-2.77,-3.21,-1.52,-1.52,-1.54
123.55,1.24,2.79,1.23,2.78,-2.77,-2.77,-3.22,-1.53,-1.54,-1.55
124.79,1.23,2.80,1.21,2.77,-2.78,-2.77,-3.23,-1.55,-1.57,-1.57
126.03,1.15,2.74,1.18,2.77,-2.78,-2.77,-3.23,-1.63,-1.60,-1.59
127.29,1.16,2.76,1.16,2.77,-2.78,-2.76,-3.23,-1.62,-1.62,-1.60
128.57,1.17,2.80,1.16,2.78,-2.78,-2.76,-3.22,-1.61,-1.62,-1.63
129.85,1.17,2.81,1.16,2.80,-2.78,-2.75,-3.21,-1.61,-1.62,-1.64
131.15,1.14,2.79,1.14,2.79,-2.78,-2.75,-3.20,-1.64,-1.65,-1.65
132.46,1.10,2.76,1.11,2.77,-2.78,-2.74,-3.18,-1.69,-1.68,-1.67
133.79,1.09,2.76,1.09,2.77,-2.79,-2.74,-3.16,-1.70,-1.70,-1.67
135.12,1.09,2.79,1.09,2.78,-2.79,-2.74,-3.14,-1.70,-1.69,-1.70
136.48,1.10,2.80,1.10,2.80,-2.78,-2.73,-3.12,-1.69,-1.69,-1.70
137.84,1.10,2.82,1.08,2.81,-2.79,-2.73,-3.09,-1.69,-1.71,-1.72
139.22,1.05,2.80,1.05,2.80,-2.79,-2.73,-3.06,-1.74,-1.74,-1.75
140.61,1.01,2.78,1.02,2.79,-2.80,-2.73,-3.03,-1.79,-1.77,-1.77
142.02,1.01,2.78,1.01,2.78,-2.80,-2.73,-2.99,-1.79,-1.80,-1.77
143.44,1.01,2.79,1.00,2.79,-2.81,-2.73,-2.96,-1.80,-1.80,-1.79
144.87,1.01,2.82,1.01,2.82,-2.82,-2.73,-2.92,-1.81,-1.80,-1.81
146.32,1.01,2.85,1.01,2.85,-2.83,-2.73,-2.89,-1.82,-1.82,-1.84
147.78,1.01,2.87,0.99,2.86,-2.84,-2.74,-2.85,-1.84,-1.86,-1.87
149.26,0.95,2.85,0.96,2.86,-2.87,-2.74,-2.81,-1.92,-1.91,-1.90
150.75,0.91,2.86,0.93,2.88,-2.89,-2.75,-2.78,-1.99,-1.96,-1.96
152.26,0.91,2.91,0.91,2.91,-2.93,-2.76,-2.74,-2.02,-2.02,-2.00
153.78,0.91,2.96,0.89,2.94,-2.96,-2.77,-2.71,-2.05,-2.07,-2.05
155.32,0.86,2.98,0.86,2.98,-2.99,-2.79,-2.67,-2.13,-2.12,-2.12
156.88,0.82,2.99,0.84,3.02,-3.01,-2.80,-2.64,-2.19,-2.17,-2.17
158.44,0.82,3.06,0.82,3.06,-3.04,-2.81,-2.60,-2.22,-2.22,-2.24
160.03,0.82,3.12,0.78,3.08,-3.05,-2.83,-2.57,-2.24,-2.28,-2.30
161.63,0.71,3.06,0.73,3.09,-3.06,-2.85,-2.54,-2.36,-2.34,-2.35
163.24,0.65,3.06,0.67,3.07,-3.07,-2.87,-2.51,-2.42,-2.40,-2.42
164.88,0.62,3.06,0.61,3.05,-3.07,-2.89,-2.48,-2.45,-2.46,-2.44
166.53,0.57,3.05,0.57,3.05,-3.07,-2.91,-2.46,-2.50,-2.50,-2.48
168.19,0.53,3.04,0.53,3.05,-3.06,-2.94,-2.43,-2.53,-2.53,-2.51
169.87,0.50,3.04,0.51,3.05,-3.06,-2.96,-2.41,-2.56,-2.55,-2.54
171.57,0.50,3.06,0.49,3.05,-3.05,-2.98,-2.39,-2.56,-2.56,-2.56
173.29,0.49,3.05,0.49,3.05,-3.05,-3.01,-2.37,-2.56,-2.57,-2.57
175.02,0.48,3.05,0.49,3.06,-3.05,-3.03,-2.35,-2.57,-2.56,-2.57
176.77,0.48,3.06,0.48,3.06,-3.04,-3.05,-2.33,-2.56,-2.56,-2.58
178.54,0.48,3.06,0.47,3.04,-3.03,-3.07,-2.32,-2.55,-2.56,-2.58
180.32,0.45,3.02,0.44,3.02,-3.01,-3.09,-2.31,-2.56,-2.57,-2.57
182.13,0.41,2.97,0.43,2.99,-3.00,-3.11,-2.30,-2.59,-2.57,-2.56
183.95,0.40,2.97,0.40,2.97,-2.99,-3.13,-2.29,-2.59,-2.58,-2.57
185.79,0.42,2.99,0.38,2.96,-2.98,-3.14,-2.28,-2.56,-2.59,-2.57
187.65,0.35,2.93,0.37,2.95,-2.97,-3.15,-2.28,-2.62,-2.60,-2.59
189.52,0.35,2.94,0.36,2.95,-2.96,-3.16,-2.27,-2.61,-2.59,-2.59
191.42,0.36,2.96,0.36,2.96,-2.95,-3.16,-2.27,-2.59,-2.59,-2.60
193.33,0.38,2.99,0.36,2.97,-2.95,-3.16,-2.27,-2.57,-2.58,-2.61
195.27,0.34,2.96,0.34,2.97,-2.95,-3.15,-2.27,-2.61,-2.61,-2.62
197.22,0.30,2.94,0.30,2.94,-2.95,-3.14,-2.28,-2.65,-2.65,-2.65
199.19,0.25,2.91,0.26,2.92,-2.95,-3.12,-2.28,-2.70,-2.69,-2.67
201.18,0.23,2.91,0.24,2.92,-2.94,-3.10,-2.28,-2.72,-2.71,-2.68
203.19,0.24,2.93,0.24,2.93,-2.94,-3.07,-2.29,-2.70,-2.70,-2.69
205.23,0.24,2.96,0.24,2.95,-2.92,-3.04,-2.30,-2.69,-2.68,-2.72
207.28,0.24,2.96,0.22,2.95,-2.91,-3.00,-2.30,-2.67,-2.69,-2.72
209.35,0.19,2.93,0.17,2.91,-2.90,-2.96,-2.31,-2.71,-2.73,-2.75
211.44,0.08,2.84,0.10,2.86,-2.88,-2.92,-2.32,-2.80,-2.77,-2.76
213.56,0.04,2.81,0.06,2.83,-2.85,-2.87,-2.33,-2.81,-2.80,-2.77
215.69,0.03,2.81,0.03,2.81,-2.82,-2.82,-2.33,-2.79,-2.79,-2.78
217.85,0.03,2.82,0.00,2.80,-2.79,-2.76,-2.34,-2.76,-2.78,-2.79
220.03,-0.04,2.77,-0.04,2.76,-2.75,-2.70,-2.35,-2.79,-2.80,-2.81
222.23,-0.11,2.70,-0.10,2.71,-2.71,-2.64,-2.36,-2.83,-2.82,-2.81
224.45,-0.16,2.64,-0.15,2.66,-2.68,-2.58,-2.36,-2.84,-2.82,-2.80
226.70,-0.17,2.63,-0.17,2.63,-2.63,-2.52,-2.37,-2.80,-2.80,-2.80
228.96,-0.17,2.62,-0.20,2.60,-2.57,-2.45,-2.37,-2.75,-2.77,-2.80
231.25,-0.23,2.55,-0.24,2.54,-2.52,-2.39,-2.37,-2.75,-2.76,-2.78
233.57,-0.32,2.45,-0.30,2.47,-2.46,-2.32,-2.37,-2.78,-2.76,-2.77
235.90,-0.36,2.39,-0.36,2.39,-2.40,-2.25,-2.37,-2.76,-2.77,-2.75
238.26,-0.40,2.33,-0.41,2.32,-2.34,-2.19,-2.36,-2.75,-2.76,-2.73
240.64,-0.45,2.25,-0.45,2.26,-2.28,-2.12,-2.36,-2.74,-2.73,-2.71
243.05,-0.47,2.20,-0.45,2.22,-2.23,-2.06,-2.35,-2.70,-2.67,-2.67
245.48,-0.46,2.18,-0.46,2.18,-2.17,-2.00,-2.34,-2.63,-2.63,-2.65
247.93,-0.43,2.19,-0.49,2.13,-2.12,-1.94,-2.32,-2.55,-2.61,-2.62
250.41,-0.57,2.03,-0.53,2.07,-2.06,-1.88,-2.30,-2.63,-2.59,-2.61
252.92,-0.59,1.98,-0.56,2.01,-2.01,-1.82,-2.28,-2.60,-2.57,-2.57
255.45,-0.57,1.97,-0.60,1.95,-1.95,-1.76,-2.26,-2.52,-2.55,-2.54
258.00,-0.59,1.94,-0.62,1.90,-1.90,-1.70,-2.24,-2.49,-2.52,-2.53
260.58,-0.69,1.82,-0.67,1.84,-1.84,-1.65,-2.21,-2.53,-2.51,-2.51
263.19,-0.74,1.75,-0.73,1.76,-1.79,-1.59,-2.18,-2.53,-2.51,-2.49
265.82,-0.75,1.72,-0.76,1.71,-1.74,-1.54,-2.15,-2.49,-2.50,-2.47
268.48,-0.76,1.68,-0.75,1.69,-1.69,-1.49,-2.11,-2.45,-2.45,-2.44
271.16,-0.76,1.66,-0.77,1.66,-1.64,-1.44,-2.07,-2.40,-2.41,-2.42
273.87,-0.76,1.64,-0.79,1.61,-1.59,-1.40,-2.03,-2.35,-2.38,-2.40
276.61,-0.85,1.52,-0.82,1.55,-1.53,-1.35,-1.99,-2.38,-2.35,-2.37
279.38,-0.86,1.49,-0.86,1.49,-1.47,-1.31,-1.95,-2.34,-2.33,-2.35
282.17,-0.89,1.44,-0.90,1.42,-1.42,-1.26,-1.90,-2.31,-2.32,-2.33
284.99,-0.93,1.36,-0.94,1.35,-1.36,-1.22,-1.86,-2.29,-2.30,-2.29
287.84,-0.99,1.27,-0.99,1.28,-1.30,-1.18,-1.81,-2.29,-2.29,-2.27
290.72,-1.03,1.20,-1.01,1.22,-1.25,-1.14,-1.76,-2.28,-2.26,-2.23
293.63,-1.01,1.19,-1.02,1.18,-1.20,-1.11,-1.71,-2.21,-2.22,-2.20
296.57,-1.00,1.16,-1.00,1.17,-1.16,-1.07,-1.66,-2.16,-2.16,-2.16
299.53,-0.99,1.15,-1.00,1.14,-1.12,-1.04,-1.61,-2.11,-2.12,-2.15
302.53,-1.02,1.10,-1.02,1.09,-1.08,-1.00,-1.56,-2.10,-2.10,-2.12
305.55,-1.05,1.03,-1.04,1.05,-1.05,-0.97,-1.51,-2.10,-2.09,-2.08
308.61,-1.05,1.01,-1.05,1.01,-1.02,-0.94,-1.46,-2.07,-2.06,-2.06
311.69,-1.05,0.99,-1.05,0.98,-0.98,-0.91,-1.41,-2.03,-2.03,-2.04
314.81,-1.05,0.96,-1.07,0.95,-0.94,-0.88,-1.36,-1.99,-2.01,-2.01
317.96,-1.10,0.90,-1.10,0.90,-0.90,-0.85,-1.31,-2.00,-2.00,-2.00
321.14,-1.14,0.84,-1.12,0.86,-0.86,-0.82,-1.26,-2.00,-1.98,-1.98
324.35,-1.14,0.83,-1.14,0.82,-0.82,-0.79,-1.21,-1.97,-1.97,-1.97
327.59,-1.14,0.81,-1.17,0.79,-0.79,-0.76,-1.16,-1.93,-1.96,-1.95
330.87,-1.21,0.73,-1.20,0.75,-0.76,-0.74,-1.11,-1.97,-1.96,-1.95
334.18,-1.24,0.70,-1.23,0.71,-0.73,-0.71,-1.06,-1.97,-1.95,-1.94
337.52,-1.24,0.69,-1.24,0.68,-0.69,-0.69,-1.01,-1.93,-1.93,-1.93
340.90,-1.24,0.67,-1.24,0.67,-0.66,-0.66,-0.97,-1.90,-1.90,-1.91
344.30,-1.24,0.66,-1.25,0.65,-0.62,-0.64,-0.92,-1.86,-1.87,-1.90
347.75,-1.29,0.60,-1.29,0.60,-0.58,-0.61,-0.87,-1.87,-1.87,-1.89
351.23,-1.33,0.55,-1.34,0.55,-0.54,-0.59,-0.83,-1.87,-1.88,-1.88
354.74,-1.40,0.48,-1.39,0.50,-0.50,-0.56,-0.78,-1.90,-1.89,-1.89
358.28,-1.43,0.44,-1.43,0.45,-0.47,-0.54,-0.74,-1.90,-1.90,-1.88
361.87,-1.44,0.44,-1.46,0.41,-0.44,-0.52,-0.69,-1.88,-1.90,-1.88
365.49,-1.50,0.37,-1.48,0.39,-0.41,-0.49,-0.65,-1.91,-1.89,-1.87
369.14,-1.50,0.37,-1.50,0.37,-0.38,-0.47,-0.61,-1.88,-1.88,-1.87
372.83,-1.50,0.37,-1.50,0.37,-0.36,-0.44,-0.56,-1.86,-1.86,-1.87
376.56,-1.49,0.38,-1.50,0.36,-0.34,-0.42,-0.52,-1.83,-1.84,-1.87
380.33,-1.51,0.34,-1.52,0.35,-0.32,-0.39,-0.48,-1.83,-1.84,-1.85
384.13,-1.56,0.30,-1.55,0.31,-0.30,-0.37,-0.44,-1.86,-1.85,-1.86
387.97,-1.58,0.28,-1.60,0.27,-0.27,-0.34,-0.40,-1.86,-1.87,-1.86
391.85,-1.64,0.22,-1.63,0.23,-0.25,-0.32,-0.36,-1.89,-1.88,-1.87
395.77,-1.66,0.19,-1.65,0.21,-0.22,-0.29,-0.32,-1.88,-1.87,-1.86
399.73,-1.66,0.20,-1.67,0.19,-0.19,-0.26,-0.28,-1.85,-1.86,-1.86
403.72,-1.68,0.19,-1.70,0.16,-0.17,-0.23,-0.24,-1.85,-1.86,-1.87
407.76,-1.74,0.13,-1.73,0.13,-0.14,-0.19,-0.21,-1.88,-1.87,-1.87
411.84,-1.77,0.09,-1.75,0.11,-0.12,-0.16,-0.17,-1.89,-1.87,-1.86
415.96,-1.77,0.10,-1.77,0.09,-0.09,-0.13,-0.14,-1.86,-1.86,-1.87
420.12,-1.76,0.11,-1.78,0.08,-0.06,-0.09,-0.10,-1.82,-1.84,-1.87
424.32,-1.82,0.04,-1.82,0.05,-0.02,-0.05,-0.07,-1.85,-1.84,-1.86
428.56,-1.86,-0.00,-1.86,-0.00,0.01,-0.01,-0.04,-1.85,-1.85,-1.86
432.85,-1.91,-0.07,-1.89,-0.05,0.05,0.02,-0.01,-1.87,-1.85,-1.84
437.18,-1.90,-0.08,-1.90,-0.09,0.07,0.06,0.02,-1.83,-1.83,-1.82
441.55,-1.88,-0.10,-1.91,-0.12,0.10,0.10,0.05,-1.78,-1.81,-1.78
445.96,-1.91,-0.16,-1.89,-0.14,0.12,0.13,0.08,-1.79,-1.77,-1.75
450.42,-1.88,-0.16,-1.87,-0.15,0.14,0.16,0.10,-1.74,-1.73,-1.72
454.93,-1.81,-0.15,-1.82,-0.15,0.15,0.18,0.13,-1.66,-1.67,-1.66
459.48,-1.75,-0.13,-1.74,-0.12,0.15,0.20,0.15,-1.60,-1.60,-1.62
464.07,-1.68,-0.12,-1.69,-0.13,0.14,0.21,0.17,-1.54,-1.55,-1.56
468.71,-1.63,-0.12,-1.66,-0.14,0.13,0.21,0.19,-1.50,-1.53,-1.52
473.40,-1.65,-0.19,-1.60,-0.14,0.12,0.20,0.20,-1.53,-1.48,-1.47
478.13,-1.55,-0.14,-1.54,-0.13,0.11,0.19,0.22,-1.44,-1.44,-1.42
482.91,-1.44,-0.07,-1.48,-0.11,0.11,0.17,0.23,-1.34,-1.37,-1.38
