frequency,raw
20.00,-4.09
20.20,-4.04
20.40,-3.98
20.61,-3.94
20.81,-3.89
21.02,-3.84
21.23,-3.79
21.44,-3.74
21.66,-3.69
21.87,-3.64
22.09,-3.59
22.31,-3.54
22.54,-3.49
22.76,-3.45
22.99,-3.40
23.22,-3.36
23.45,-3.30
23.69,-3.25
23.92,-3.21
24.16,-3.16
24.40,-3.12
24.65,-3.08
24.89,-3.03
25.14,-2.99
25.39,-2.94
25.65,-2.91
25.91,-2.86
26.16,-2.82
26.43,-2.77
26.69,-2.73
26.96,-2.69
27.23,-2.66
27.50,-2.61
27.77,-2.57
28.05,-2.54
28.33,-2.50
28.62,-2.45
28.90,-2.42
29.19,-2.38
29.48,-2.35
29.78,-2.31
30.08,-2.27
30.38,-2.24
30.68,-2.21
30.99,-2.17
31.30,-2.14
31.61,-2.10
31.93,-2.07
32.24,-2.04
32.57,-2.00
32.89,-1.97
33.22,-1.94
33.55,-1.90
33.89,-1.87
34.23,-1.84
34.57,-1.82
34.92,-1.79
35.27,-1.76
35.62,-1.74
35.97,-1.71
36.33,-1.68
36.70,-1.65
37.06,-1.61
37.43,-1.59
37.81,-1.57
38.19,-1.54
38.57,-1.51
38.95,-1.47
39.34,-1.45
39.74,-1.43
40.14,-1.40
40.54,-1.38
40.94,-1.36
41.35,-1.34
41.76,-1.32
42.18,-1.31
42.60,-1.29
43.03,-1.27
43.46,-1.25
43.90,-1.23
44.33,-1.20
44.78,-1.19
45.23,-1.16
45.68,-1.14
46.13,-1.12
46.60,-1.12
47.06,-1.11
47.53,-1.09
48.01,-1.08
48.49,-1.07
48.97,-1.06
49.46,-1.06
49.96,-1.05
50.46,-1.04
50.96,-1.02
51.47,-1.00
51.99,-0.99
52.51,-0.97
53.03,-0.96
53.56,-0.94
54.10,-0.92
54.64,-0.90
55.18,-0.89
55.74,-0.88
56.29,-0.86
56.86,-0.83
57.42,-0.81
58.00,-0.79
58.58,-0.77
59.16,-0.76
59.76,-0.74
60.35,-0.74
60.96,-0.74
61.57,-0.73
62.18,-0.71
62.80,-0.70
63.43,-0.67
64.07,-0.65
64.71,-0.63
65.35,-0.60
66.01,-0.58
66.67,-0.57
67.33,-0.54
68.01,-0.53
68.69,-0.52
69.37,-0.49
70.07,-0.46
70.77,-0.44
71.48,-0.42
72.19,-0.39
72.91,-0.36
73.64,-0.35
74.38,-0.33
75.12,-0.32
75.87,-0.31
76.63,-0.31
77.40,-0.31
78.17,-0.31
78.95,-0.32
79.74,-0.34
80.54,-0.36
81.35,-0.37
82.16,-0.38
82.98,-0.39
83.81,-0.39
84.65,-0.40
85.50,-0.41
86.35,-0.42
87.22,-0.43
88.09,-0.44
88.97,-0.46
89.86,-0.47
90.76,-0.48
91.66,-0.49
92.58,-0.50
93.51,-0.52
94.44,-0.53
95.39,-0.54
96.34,-0.55
97.30,-0.57
98.28,-0.58
99.26,-0.59
100.25,-0.60
101.25,-0.61
102.27,-0.62
103.29,-0.62
104.32,-0.63
105.37,-0.63
106.42,-0.63
107.48,-0.64
108.56,-0.63
109.64,-0.63
110.74,-0.63
111.85,-0.63
112.97,-0.63
114.10,-0.63
115.24,-0.63
116.39,-0.62
117.55,-0.61
118.73,-0.60
119.92,-0.56
121.12,-0.54
122.33,-0.51
123.55,-0.48
124.79,-0.44
126.03,-0.40
127.29,-0.37
128.57,-0.34
129.85,-0.30
131.15,-0.27
132.46,-0.26
133.79,-0.24
135.12,-0.23
136.48,-0.23
137.84,-0.23
139.22,-0.24
140.61,-0.25
142.02,-0.25
143.44,-0.25
144.87,-0.25
146.32,-0.24
147.78,-0.24
149.26,-0.24
150.75,-0.23
152.26,-0.23
153.78,-0.23
155.32,-0.22
156.88,-0.22
158.44,-0.22
160.03,-0.21
161.63,-0.20
163.24,-0.20
164.88,-0.19
166.53,-0.18
168.19,-0.17
169.87,-0.16
171.57,-0.15
173.29,-0.14
175.02,-0.12
176.77,-0.11
178.54,-0.09
180.32,-0.07
182.13,-0.06
183.95,-0.04
185.79,-0.01
187.65,0.01
189.52,0.04
191.42,0.06
193.33,0.07
195.27,0.08
197.22,0.10
199.19,0.09
201.18,0.09
203.19,0.08
205.23,0.06
207.28,0.06
209.35,0.04
211.44,0.04
213.56,0.04
215.69,0.02
217.85,0.03
220.03,0.05
222.23,0.05
224.45,0.07
226.70,0.10
228.96,0.13
231.25,0.16
233.57,0.18
235.90,0.19
238.26,0.21
240.64,0.22
243.05,0.23
245.48,0.24
247.93,0.26
250.41,0.28
252.92,0.29
255.45,0.29
258.00,0.29
260.58,0.28
263.19,0.27
265.82,0.24
268.48,0.24
271.16,0.21
273.87,0.18
276.61,0.16
279.38,0.14
282.17,0.12
284.99,0.11
287.84,0.09
290.72,0.08
293.63,0.08
296.57,0.10
299.53,0.12
302.53,0.14
305.55,0.16
308.61,0.17
311.69,0.19
314.81,0.20
317.96,0.23
321.14,0.26
324.35,0.28
327.59,0.29
330.87,0.30
334.18,0.31
337.52,0.30
340.90,0.29
344.30,0.28
347.75,0.27
351.23,0.25
354.74,0.23
358.28,0.22
361.87,0.20
365.49,0.19
369.14,0.18
372.83,0.18
376.56,0.17
380.33,0.19
384.13,0.21
387.97,0.23
391.85,0.27
395.77,0.29
399.73,0.29
403.72,0.29
407.76,0.30
411.84,0.29
415.96,0.27
420.12,0.25
424.32,0.24
428.56,0.21
432.85,0.19
437.18,0.18
441.55,0.17
445.96,0.15
450.42,0.14
454.93,0.14
459.48,0.15
464.07,0.17
468.71,0.20
473.40,0.23
478.13,0.25
482.91,0.27
487.74,0.27
492.62,0.27
497.55,0.26
502.52,0.24
507.55,0.23
512.62,0.20
517.75,0.19
522.93,0.17
528.16,0.16
533.44,0.15
538.77,0.15
544.16,0.16
549.60,0.17
555.10,0.18
560.65,0.20
566.25,0.21
571.92,0.21
577.64,0.23
583.41,0.24
589.25,0.23
595.14,0.22
601.09,0.19
607.10,0.16
613.17,0.13
619.30,0.09
625.50,0.05
631.75,-0.00
638.07,-0.05
644.45,-0.10
650.89,-0.15
657.40,-0.20
663.98,-0.29
670.62,-0.38
677.32,-0.47
684.10,-0.56
690.94,-0.67
697.85,-0.77
704.83,-0.85
711.87,-0.95
718.99,-1.05
726.18,-1.13
733.44,-1.22
740.78,-1.30
748.19,-1.37
755.67,-1.45
763.23,-1.51
770.86,-1.56
778.57,-1.62
786.35,-1.66
794.22,-1.70
802.16,-1.74
810.18,-1.76
818.28,-1.76
826.46,-1.76
834.73,-1.73
843.08,-1.69
851.51,-1.65
860.02,-1.62
868.62,-1.57
877.31,-1.51
886.08,-1.43
894.94,-1.35
903.89,-1.27
912.93,-1.19
922.06,-1.11
931.28,-1.04
940.59,-0.98
950.00,-0.92
959.50,-0.86
969.09,-0.81
978.78,-0.75
988.57,-0.68
998.46,-0.63
1008.44,-0.58
1018.53,-0.54
1028.71,-0.52
1039.00,-0.52
1049.39,-0.51
1059.88,-0.50
1070.48,-0.49
1081.19,-0.49
1092.00,-0.49
1102.92,-0.50
1113.95,-0.53
1125.09,-0.53
1136.34,-0.53
1147.70,-0.54
1159.18,-0.54
1170.77,-0.56
1182.48,-0.55
1194.30,-0.55
1206.25,-0.54
1218.31,-0.54
1230.49,-0.56
1242.80,-0.56
1255.22,-0.56
1267.78,-0.56
1280.45,-0.55
1293.26,-0.56
1306.19,-0.56
1319.25,-0.58
1332.45,-0.58
1345.77,-0.58
1359.23,-0.59
1372.82,-0.57
1386.55,-0.57
1400.41,-0.56
1414.42,-0.57
1428.56,-0.56
1442.85,-0.55
1457.28,-0.53
1471.85,-0.52
1486.57,-0.53
1501.43,-0.51
1516.45,-0.50
1531.61,-0.48
1546.93,-0.47
1562.40,-0.45
1578.02,-0.43
1593.80,-0.42
1609.74,-0.40
1625.84,-0.37
1642.10,-0.35
1658.52,-0.32
1675.10,-0.29
1691.85,-0.25
1708.77,-0.22
1725.86,-0.17
1743.12,-0.13
1760.55,-0.08
1778.15,-0.03
1795.94,0.02
1813.90,0.06
1832.03,0.12
1850.36,0.20
1868.86,0.26
1887.55,0.31
1906.42,0.37
1925.49,0.43
1944.74,0.47
1964.19,0.51
1983.83,0.55
2003.67,0.60
2023.71,0.63
2043.94,0.65
2064.38,0.65
2085.03,0.65
2105.88,0.65
2126.94,0.64
2148.20,0.61
2169.69,0.57
2191.38,0.52
2213.30,0.49
2235.43,0.46
2257.78,0.42
2280.36,0.36
2303.17,0.32
2326.20,0.29
2349.46,0.26
2372.95,0.24
2396.68,0.23
2420.65,0.23
2444.86,0.23
2469.31,0.25
2494.00,0.25
2518.94,0.29
2544.13,0.34
2569.57,0.39
2595.27,0.44
2621.22,0.52
2647.43,0.62
2673.90,0.71
2700.64,0.82
2727.65,0.93
2754.93,1.05
2782.48,1.18
2810.30,1.32
2838.40,1.49
2866.79,1.66
2895.46,1.85
2924.41,2.05
2953.65,2.27
2983.19,2.50
3013.02,2.75
3043.15,3.02
3073.58,3.31
3104.32,3.61
3135.36,3.92
3166.72,4.24
3198.38,4.57
3230.37,4.89
3262.67,5.22
3295.30,5.51
3328.25,5.78
3361.53,6.04
3395.15,6.27
3429.10,6.49
3463.39,6.70
3498.03,6.89
3533.01,7.05
3568.34,7.19
3604.02,7.31
3640.06,7.42
3676.46,7.51
3713.22,7.60
3750.36,7.66
3787.86,7.72
3825.74,7.76
3864.00,7.77
3902.64,7.76
3941.66,7.73
3981.08,7.67
4020.89,7.61
4061.10,7.52
4101.71,7.43
4142.73,7.34
4184.15,7.25
4226.00,7.15
4268.26,7.04
4310.94,6.93
4354.05,6.82
4397.59,6.73
4441.56,6.65
4485.98,6.57
4530.84,6.49
4576.15,6.42
4621.91,6.33
4668.13,6.24
4714.81,6.15
4761.96,6.06
4809.58,5.99
4857.67,5.91
4906.25,5.84
4955.31,5.80
5004.87,5.76
5054.91,5.74
5105.46,5.72
5156.52,5.73
5208.08,5.74
5260.16,5.75
5312.77,5.77
5365.89,5.81
5419.55,5.83
5473.75,5.85
5528.49,5.84
5583.77,5.83
5639.61,5.80
5696.00,5.74
5752.96,5.66
5810.49,5.56
5868.60,5.44
5927.28,5.30
5986.56,5.11
6046.42,4.92
6106.89,4.71
6167.96,4.48
6229.64,4.26
6291.93,4.01
6354.85,3.78
6418.40,3.54
6482.58,3.32
6547.41,3.10
6612.88,2.88
6679.01,2.68
6745.80,2.48
6813.26,2.30
6881.39,2.13
6950.21,1.99
7019.71,1.89
7089.91,1.82
7160.81,1.78
7232.41,1.78
7304.74,1.79
7377.79,1.86
7451.56,1.95
7526.08,2.05
7601.34,2.16
7677.35,2.28
7754.13,2.38
7831.67,2.46
7909.98,2.49
7989.08,2.45
8068.98,2.34
8149.67,2.16
8231.16,1.90
8313.47,1.56
8396.61,1.16
8480.57,0.69
8565.38,0.18
8651.03,-0.37
8737.54,-0.95
8824.92,-1.53
8913.17,-2.12
9002.30,-2.69
9092.32,-3.25
9183.25,-3.78
9275.08,-4.26
9367.83,-4.71
9461.51,-5.10
9556.12,-5.42
9651.68,-5.69
9748.20,-5.90
9845.68,-6.06
9944.14,-6.16
10043.58,-6.21
10144.02,-6.23
10245.46,-6.24
10347.91,-6.25
10451.39,-6.26
10555.91,-6.28
10661.46,-6.32
10768.08,-6.39
10875.76,-6.49
10984.52,-6.64
11094.36,-6.79
11205.31,-6.98
11317.36,-7.17
11430.53,-7.35
11544.84,-7.52
11660.29,-7.65
11776.89,-7.74
11894.66,-7.79
12013.60,-7.80
12133.74,-7.76
12255.08,-7.70
12377.63,-7.63
12501.41,-7.54
12626.42,-7.47
12752.68,-7.39
12880.21,-7.34
13009.01,-7.31
13139.10,-7.31
13270.49,-7.33
13403.20,-7.41
13537.23,-7.51
13672.60,-7.64
13809.33,-7.78
13947.42,-7.94
14086.90,-8.11
14227.77,-8.25
14370.04,-8.35
14513.74,-8.41
14658.88,-8.40
14805.47,-8.33
14953.52,-8.22
15103.06,-8.02
15254.09,-7.75
15406.63,-7.44
15560.70,-7.08
15716.30,-6.71
15873.47,-6.32
16032.20,-5.97
16192.52,-5.65
16354.45,-5.40
16517.99,-5.21
16683.17,-5.12
16850.01,-5.11
17018.51,-5.20
17188.69,-5.37
17360.58,-5.63
17534.18,-5.96
17709.53,-6.36
17886.62,-6.80
18065.49,-7.15
18246.14,-7.49
18428.60,-7.83
18612.89,-8.19
18799.02,-8.57
18987.01,-8.96
19176.88,-9.36
19368.65,-9.79
19562.33,-10.22
19757.96,-10.67
19955.54,-11.14
