frequency,raw,error,smoothed,error_smoothed,equalization,parametric_eq,fixed_band_eq,equalized_raw,equalized_smoothed,target
20.00,7.65,-1.73,7.65,-1.74,1.73,1.48,0.32,9.38,9.38,9.38
20.20,7.67,-1.71,7.67,-1.71,1.71,1.48,0.33,9.38,9.38,9.38
20.40,7.69,-1.68,7.69,-1.68,1.69,1.48,0.35,9.38,9.38,9.37
20.61,7.71,-1.66,7.71,-1.66,1.66,1.49,0.36,9.38,9.38,9.37
20.81,7.73,-1.63,7.73,-1.64,1.64,1.49,0.38,9.37,9.37,9.36
21.02,7.74,-1.62,7.74,-1.62,1.62,1.49,0.39,9.36,9.36,9.36
21.23,7.75,-1.60,7.76,-1.60,1.60,1.49,0.41,9.35,9.35,9.35
21.44,7.77,-1.58,7.77,-1.58,1.57,1.49,0.43,9.35,9.34,9.35
21.66,7.79,-1.55,7.79,-1.55,1.55,1.49,0.44,9.34,9.34,9.34
21.87,7.81,-1.53,7.81,-1.53,1.53,1.48,0.46,9.34,9.34,9.34
22.09,7.83,-1.50,7.83,-1.50,1.50,1.48,0.48,9.33,9.33,9.33
22.31,7.85,-1.48,7.85,-1.47,1.48,1.48,0.50,9.33,9.33,9.33
22.54,7.88,-1.45,7.88,-1.45,1.45,1.47,0.52,9.33,9.33,9.33
22.76,7.90,-1.42,7.90,-1.42,1.42,1.46,0.54,9.32,9.32,9.32
22.99,7.92,-1.40,7.92,-1.39,1.40,1.46,0.56,9.32,9.32,9.32
23.22,7.94,-1.37,7.94,-1.37,1.37,1.45,0.58,9.31,9.31,9.31
23.45,7.96,-1.35,7.96,-1.35,1.34,1.44,0.60,9.31,9.31,9.31
23.69,7.98,-1.33,7.99,-1.32,1.32,1.43,0.62,9.30,9.30,9.31
23.92,8.01,-1.28,8.01,-1.29,1.29,1.42,0.64,9.31,9.30,9.30
24.16,8.03,-1.26,8.03,-1.27,1.27,1.41,0.66,9.30,9.30,9.30
24.40,8.04,-1.25,8.05,-1.24,1.24,1.40,0.69,9.29,9.29,9.29
24.65,8.07,-1.22,8.07,-1.22,1.22,1.38,0.71,9.29,9.29,9.29
24.89,8.09,-1.19,8.09,-1.20,1.19,1.37,0.73,9.29,9.28,9.28
25.14,8.11,-1.17,8.12,-1.17,1.17,1.35,0.75,9.28,9.28,9.28
25.39,8.14,-1.14,8.14,-1.14,1.14,1.33,0.78,9.28,9.28,9.28
25.65,8.17,-1.11,8.17,-1.11,1.11,1.32,0.80,9.29,9.28,9.28
25.91,8.19,-1.09,8.19,-1.09,1.09,1.30,0.82,9.28,9.28,9.28
26.16,8.22,-1.06,8.22,-1.06,1.06,1.28,0.84,9.28,9.28,9.28
26.43,8.24,-1.04,8.24,-1.03,1.03,1.25,0.86,9.27,9.27,9.28
26.69,8.27,-1.00,8.27,-1.00,1.00,1.23,0.88,9.27,9.27,9.27
26.96,8.30,-0.96,8.30,-0.97,0.97,1.21,0.90,9.27,9.27,9.27
27.23,8.33,-0.93,8.33,-0.94,0.94,1.18,0.91,9.27,9.27,9.26
27.50,8.35,-0.91,8.35,-0.91,0.91,1.15,0.93,9.26,9.26,9.26
27.77,8.38,-0.88,8.38,-0.88,0.88,1.13,0.94,9.26,9.26,9.26
28.05,8.41,-0.84,8.41,-0.84,0.84,1.10,0.95,9.25,9.25,9.25
28.33,8.44,-0.81,8.44,-0.81,0.81,1.07,0.96,9.25,9.25,9.25
28.62,8.47,-0.78,8.47,-0.78,0.78,1.04,0.97,9.25,9.25,9.25
28.90,8.49,-0.75,8.50,-0.74,0.74,1.00,0.97,9.23,9.24,9.24
29.19,8.53,-0.70,8.53,-0.71,0.71,0.97,0.98,9.24,9.23,9.24
29.48,8.55,-0.68,8.56,-0.67,0.67,0.93,0.97,9.22,9.23,9.23
29.78,8.59,-0.63,8.59,-0.64,0.64,0.90,0.97,9.23,9.23,9.22
30.08,8.62,-0.60,8.62,-0.60,0.61,0.86,0.96,9.23,9.22,9.22
30.38,8.65,-0.57,8.65,-0.57,0.57,0.82,0.95,9.22,9.22,9.22
30.68,8.68,-0.54,8.68,-0.54,0.54,0.78,0.93,9.22,9.22,9.22
30.99,8.71,-0.51,8.71,-0.50,0.50,0.74,0.92,9.22,9.22,9.22
31.30,8.74,-0.47,8.74,-0.47,0.47,0.69,0.89,9.21,9.21,9.21
31.61,8.78,-0.44,8.78,-0.44,0.44,0.65,0.87,9.22,9.22,9.22
31.93,8.81,-0.41,8.81,-0.41,0.40,0.60,0.84,9.21,9.22,9.22
32.24,8.85,-0.37,8.85,-0.37,0.37,0.56,0.80,9.22,9.22,9.22
32.57,8.89,-0.32,8.89,-0.33,0.33,0.51,0.76,9.22,9.22,9.22
32.89,8.92,-0.29,8.92,-0.29,0.29,0.46,0.72,9.21,9.22,9.21
33.22,8.96,-0.25,8.96,-0.25,0.25,0.41,0.68,9.21,9.21,9.21
33.55,8.99,-0.22,9.00,-0.21,0.21,0.36,0.63,9.20,9.20,9.21
33.89,9.04,-0.16,9.04,-0.17,0.17,0.31,0.58,9.21,9.20,9.21
34.23,9.07,-0.12,9.08,-0.12,0.12,0.25,0.52,9.19,9.20,9.19
34.57,9.12,-0.07,9.12,-0.07,0.07,0.20,0.46,9.20,9.19,9.19
34.92,9.15,-0.03,9.15,-0.02,0.03,0.14,0.40,9.18,9.18,9.18
35.27,9.19,0.03,9.19,0.03,-0.02,0.08,0.34,9.17,9.17,9.16
35.62,9.23,0.08,9.23,0.07,-0.08,0.03,0.27,9.15,9.15,9.15
35.97,9.27,0.12,9.27,0.13,-0.13,-0.03,0.20,9.14,9.14,9.15
36.33,9.31,0.18,9.31,0.18,-0.19,-0.09,0.13,9.13,9.13,9.13
36.70,9.35,0.24,9.35,0.24,-0.24,-0.16,0.06,9.11,9.11,9.11
37.06,9.40,0.30,9.40,0.30,-0.30,-0.22,-0.02,9.10,9.10,9.10
37.43,9.44,0.36,9.44,0.36,-0.36,-0.28,-0.09,9.09,9.09,9.08
37.81,9.49,0.42,9.49,0.42,-0.41,-0.35,-0.17,9.08,9.07,9.07
38.19,9.53,0.48,9.53,0.47,-0.47,-0.41,-0.25,9.06,9.06,9.06
38.57,9.58,0.53,9.58,0.53,-0.53,-0.48,-0.33,9.05,9.05,9.05
38.95,9.62,0.59,9.62,0.59,-0.59,-0.55,-0.41,9.03,9.03,9.04
39.34,9.67,0.65,9.67,0.65,-0.65,-0.62,-0.50,9.02,9.03,9.02
39.74,9.72,0.70,9.72,0.71,-0.70,-0.69,-0.58,9.02,9.01,9.02
40.14,9.77,0.77,9.77,0.76,-0.76,-0.76,-0.67,9.01,9.01,9.00
40.54,9.81,0.81,9.82,0.82,-0.82,-0.83,-0.76,8.99,9.00,9.00
40.94,9.87,0.88,9.87,0.88,-0.88,-0.90,-0.85,9.00,8.99,8.99
41.35,9.92,0.94,9.92,0.93,-0.93,-0.97,-0.94,8.99,8.99,8.99
41.76,9.97,0.99,9.97,0.99,-0.99,-1.05,-1.03,8.98,8.98,8.98
42.18,10.02,1.05,10.02,1.05,-1.05,-1.12,-1.12,8.97,8.97,8.97
42.60,10.07,1.10,10.07,1.11,-1.11,-1.20,-1.21,8.96,8.97,8.97
43.03,10.13,1.17,10.13,1.17,-1.17,-1.27,-1.31,8.97,8.96,8.96
43.46,10.18,1.23,10.18,1.23,-1.22,-1.35,-1.40,8.96,8.96,8.95
43.90,10.24,1.29,10.24,1.29,-1.28,-1.43,-1.50,8.96,8.95,8.95
44.33,10.29,1.34,10.29,1.34,-1.34,-1.51,-1.59,8.95,8.95,8.95
44.78,10.34,1.40,10.35,1.40,-1.41,-1.58,-1.69,8.93,8.94,8.94
45.23,10.40,1.47,10.40,1.47,-1.47,-1.66,-1.79,8.93,8.93,8.93
45.68,10.47,1.53,10.47,1.53,-1.54,-1.74,-1.89,8.93,8.93,8.94
46.13,10.53,1.60,10.53,1.60,-1.60,-1.82,-1.99,8.93,8.93,8.93
46.60,10.59,1.67,10.60,1.68,-1.67,-1.90,-2.09,8.92,8.92,8.92
47.06,10.66,1.75,10.66,1.75,-1.75,-1.98,-2.20,8.92,8.91,8.91
47.53,10.72,1.82,10.72,1.82,-1.82,-2.07,-2.30,8.90,8.90,8.90
48.01,10.78,1.89,10.78,1.90,-1.89,-2.15,-2.41,8.89,8.89,8.89
48.49,10.84,1.97,10.84,1.97,-1.97,-2.23,-2.51,8.87,8.87,8.87
48.97,10.91,2.05,10.91,2.05,-2.05,-2.31,-2.62,8.86,8.86,8.86
49.46,10.97,2.12,10.97,2.13,-2.13,-2.40,-2.73,8.84,8.84,8.85
49.96,11.04,2.21,11.04,2.21,-2.21,-2.48,-2.83,8.83,8.83,8.83
50.46,11.10,2.29,11.10,2.29,-2.29,-2.56,-2.94,8.81,8.81,8.82
50.96,11.17,2.38,11.17,2.38,-2.38,-2.65,-3.05,8.80,8.80,8.79
51.47,11.24,2.46,11.24,2.46,-2.46,-2.73,-3.16,8.78,8.78,8.78
51.99,11.31,2.55,11.31,2.55,-2.55,-2.81,-3.27,8.76,8.76,8.76
52.51,11.38,2.64,11.38,2.63,-2.63,-2.90,-3.38,8.75,8.74,8.74
53.03,11.44,2.71,11.44,2.72,-2.72,-2.98,-3.49,8.72,8.72,8.73
53.56,11.51,2.81,11.51,2.81,-2.81,-3.07,-3.59,8.70,8.71,8.71
54.10,11.59,2.90,11.59,2.90,-2.90,-3.15,-3.70,8.70,8.69,8.69
54.64,11.66,2.99,11.66,2.99,-2.98,-3.24,-3.80,8.68,8.68,8.68
55.18,11.74,3.08,11.74,3.08,-3.07,-3.32,-3.91,8.67,8.67,8.66
55.74,11.81,3.16,11.81,3.16,-3.16,-3.41,-4.01,8.65,8.65,8.65
56.29,11.88,3.25,11.89,3.25,-3.25,-3.49,-4.11,8.63,8.63,8.64
56.86,11.96,3.34,11.96,3.34,-3.35,-3.58,-4.21,8.61,8.61,8.62
57.42,12.04,3.44,12.04,3.44,-3.44,-3.67,-4.30,8.60,8.60,8.60
58.00,12.12,3.54,12.12,3.54,-3.54,-3.75,-4.40,8.58,8.58,8.58
58.58,12.20,3.64,12.20,3.64,-3.64,-3.84,-4.49,8.56,8.56,8.56
59.16,12.27,3.73,12.28,3.74,-3.74,-3.92,-4.57,8.53,8.54,8.54
59.76,12.36,3.84,12.36,3.84,-3.84,-4.01,-4.65,8.52,8.52,8.52
60.35,12.44,3.94,12.44,3.95,-3.95,-4.10,-4.73,8.50,8.49,8.50
60.96,12.52,4.06,12.52,4.05,-4.05,-4.18,-4.81,8.47,8.47,8.47
61.57,12.60,4.16,12.60,4.16,-4.16,-4.27,-4.88,8.44,8.44,8.44
62.18,12.68,4.26,12.68,4.27,-4.27,-4.36,-4.95,8.41,8.41,8.42
62.80,12.77,4.39,12.77,4.38,-4.38,-4.45,-5.01,8.39,8.39,8.38
63.43,12.85,4.49,12.85,4.50,-4.49,-4.54,-5.07,8.36,8.36,8.36
64.07,12.93,4.61,12.93,4.61,-4.60,-4.62,-5.12,8.33,8.33,8.32
64.71,13.02,4.72,13.01,4.72,-4.72,-4.71,-5.17,8.31,8.30,8.30
65.35,13.09,4.82,13.10,4.83,-4.83,-4.80,-5.22,8.26,8.27,8.27
66.01,13.18,4.94,13.18,4.94,-4.94,-4.89,-5.27,8.24,8.24,8.24
66.67,13.27,5.06,13.26,5.05,-5.05,-4.98,-5.31,8.22,8.21,8.21
67.33,13.34,5.16,13.35,5.17,-5.17,-5.07,-5.35,8.18,8.18,8.18
68.01,13.43,5.28,13.43,5.28,-5.28,-5.16,-5.38,8.15,8.15,8.15
68.69,13.52,5.40,13.52,5.40,-5.40,-5.25,-5.42,8.13,8.12,8.12
69.37,13.60,5.51,13.60,5.51,-5.51,-5.35,-5.45,8.09,8.09,8.09
70.07,13.68,5.63,13.68,5.63,-5.63,-5.44,-5.48,8.05,8.05,8.06
70.77,13.76,5.74,13.76,5.74,-5.75,-5.53,-5.51,8.01,8.02,8.02
71.48,13.85,5.87,13.85,5.87,-5.86,-5.63,-5.54,7.99,7.98,7.98
72.19,13.92,5.98,13.93,5.99,-5.98,-5.72,-5.57,7.94,7.95,7.94
72.91,14.01,6.11,14.01,6.10,-6.10,-5.82,-5.60,7.92,7.91,7.91
73.64,14.08,6.21,14.08,6.21,-6.21,-5.91,-5.64,7.87,7.87,7.87
74.38,14.16,6.32,14.16,6.33,-6.33,-6.01,-5.67,7.83,7.83,7.84
75.12,14.24,6.44,14.24,6.44,-6.45,-6.11,-5.70,7.80,7.80,7.80
75.87,14.32,6.56,14.32,6.56,-6.56,-6.21,-5.74,7.76,7.76,7.76
76.63,14.40,6.68,14.40,6.68,-6.68,-6.31,-5.78,7.72,7.72,7.72
77.40,14.47,6.79,14.47,6.79,-6.79,-6.41,-5.82,7.68,7.68,7.68
78.17,14.55,6.92,14.55,6.91,-6.91,-6.51,-5.87,7.64,7.64,7.64
78.95,14.61,7.02,14.62,7.03,-7.02,-6.61,-5.91,7.59,7.59,7.59
79.74,14.69,7.14,14.69,7.14,-7.14,-6.71,-5.96,7.55,7.55,7.55
80.54,14.76,7.26,14.76,7.25,-7.25,-6.82,-6.02,7.51,7.51,7.50
81.35,14.83,7.36,14.83,7.37,-7.37,-6.92,-6.08,7.46,7.47,7.47
82.16,14.90,7.48,14.90,7.48,-7.48,-7.03,-6.14,7.42,7.42,7.42
82.98,14.96,7.59,14.97,7.59,-7.59,-7.13,-6.20,7.37,7.38,7.38
83.81,15.03,7.69,15.03,7.70,-7.70,-7.24,-6.27,7.33,7.33,7.34
84.65,15.10,7.81,15.10,7.81,-7.81,-7.35,-6.35,7.29,7.29,7.29
85.50,15.15,7.91,15.16,7.91,-7.91,-7.46,-6.43,7.24,7.24,7.24
86.35,15.22,8.02,15.21,8.02,-8.02,-7.56,-6.51,7.20,7.20,7.20
87.22,15.26,8.11,15.27,8.12,-8.12,-7.67,-6.60,7.14,7.15,7.15
88.09,15.32,8.23,15.32,8.22,-8.22,-7.78,-6.69,7.10,7.10,7.10
88.97,15.37,8.32,15.37,8.32,-8.32,-7.89,-6.79,7.05,7.05,7.05
89.86,15.42,8.42,15.42,8.42,-8.42,-8.00,-6.89,7.01,7.00,7.00
90.76,15.46,8.50,15.46,8.51,-8.51,-8.11,-7.00,6.95,6.95,6.96
91.66,15.50,8.60,15.50,8.60,-8.60,-8.22,-7.11,6.90,6.90,6.90
92.58,15.54,8.69,15.54,8.69,-8.69,-8.33,-7.23,6.85,6.85,6.85
93.51,15.58,8.78,15.58,8.78,-8.78,-8.43,-7.36,6.81,6.80,6.80
94.44,15.61,8.86,15.61,8.86,-8.86,-8.54,-7.48,6.75,6.75,6.75
95.39,15.63,8.94,15.64,8.94,-8.94,-8.65,-7.62,6.69,6.69,6.69
96.34,15.66,9.02,15.66,9.02,-9.02,-8.75,-7.75,6.64,6.64,6.64
97.30,15.67,9.09,15.67,9.09,-9.10,-8.86,-7.90,6.57,6.58,6.58
98.28,15.69,9.17,15.69,9.17,-9.17,-8.96,-8.04,6.52,6.52,6.52
99.26,15.70,9.24,15.70,9.24,-9.24,-9.06,-8.19,6.46,6.46,6.46
100.25,15.71,9.31,15.71,9.31,-9.31,-9.16,-8.35,6.40,6.40,6.40
101.25,15.71,9.37,15.71,9.37,-9.37,-9.25,-8.51,6.34,6.34,6.34
102.27,15.71,9.44,15.71,9.43,-9.43,-9.35,-8.67,6.28,6.28,6.27
103.29,15.70,9.49,15.70,9.49,-9.49,-9.44,-8.83,6.21,6.21,6.22
104.32,15.69,9.54,15.69,9.54,-9.54,-9.52,-9.00,6.16,6.15,6.15
105.37,15.67,9.58,15.67,9.58,-9.58,-9.61,-9.16,6.09,6.09,6.09
106.42,15.65,9.62,15.65,9.62,-9.62,-9.69,-9.33,6.03,6.03,6.03
107.48,15.62,9.65,15.62,9.65,-9.65,-9.77,-9.50,5.97,5.97,5.97
108.56,15.59,9.68,15.59,9.67,-9.68,-9.84,-9.67,5.91,5.91,5.91
109.64,15.54,9.69,15.55,9.70,-9.70,-9.90,-9.83,5.84,5.85,5.85
110.74,15.50,9.71,15.50,9.72,-9.72,-9.97,-10.00,5.79,5.79,5.79
111.85,15.46,9.74,15.46,9.73,-9.73,-10.03,-10.15,5.73,5.73,5.72
112.97,15.41,9.74,15.41,9.74,-9.74,-10.08,-10.30,5.67,5.67,5.67
114.10,15.35,9.75,15.35,9.75,-9.75,-10.12,-10.45,5.61,5.61,5.60
115.24,15.28,9.74,15.29,9.75,-9.75,-10.17,-10.58,5.53,5.54,5.55
116.39,15.22,9.75,15.22,9.75,-9.75,-10.20,-10.71,5.47,5.47,5.47
117.55,15.15,9.75,15.15,9.75,-9.75,-10.23,-10.82,5.40,5.40,5.40
118.73,15.08,9.74,15.08,9.74,-9.75,-10.25,-10.91,5.34,5.33,5.34
119.92,15.00,9.74,15.00,9.74,-9.74,-10.27,-11.00,5.26,5.26,5.26
121.12,14.92,9.73,14.92,9.73,-9.73,-10.28,-11.06,5.19,5.19,5.19
122.33,14.84,9.73,14.84,9.73,-9.73,-10.29,-11.11,5.12,5.12,5.12
123.55,14.76,9.72,14.76,9.72,-9.72,-10.28,-11.14,5.05,5.04,5.04
124.79,14.67,9.70,14.67,9.70,-9.70,-10.28,-11.15,4.97,4.97,4.97
126.03,14.57,9.68,14.58,9.69,-9.68,-10.26,-11.14,4.89,4.89,4.89
127.29,14.48,9.66,14.48,9.66,-9.66,-10.24,-11.11,4.82,4.82,4.82
128.57,14.39,9.64,14.39,9.64,-9.63,-10.21,-11.07,4.76,4.75,4.75
129.85,14.28,9.60,14.29,9.61,-9.60,-10.18,-11.00,4.68,4.68,4.68
131.15,14.19,9.57,14.19,9.57,-9.57,-10.14,-10.92,4.62,4.62,4.62
132.46,14.08,9.52,14.08,9.52,-9.53,-10.09,-10.82,4.56,4.56,4.56
133.79,13.98,9.48,13.98,9.48,-9.48,-10.04,-10.71,4.50,4.50,4.50
135.12,13.87,9.42,13.87,9.43,-9.43,-9.98,-10.58,4.44,4.45,4.45
136.48,13.77,9.37,13.77,9.38,-9.37,-9.92,-10.45,4.40,4.40,4.40
137.84,13.67,9.33,13.67,9.32,-9.32,-9.86,-10.30,4.35,4.35,4.35
139.22,13.56,9.26,13.56,9.26,-9.26,-9.78,-10.15,4.30,4.30,4.30
140.61,13.44,9.18,13.45,9.19,-9.19,-9.71,-9.99,4.25,4.26,4.26
142.02,13.34,9.13,13.34,9.13,-9.13,-9.63,-9.82,4.21,4.21,4.21
143.44,13.24,9.07,13.23,9.06,-9.06,-9.54,-9.65,4.18,4.17,4.17
144.87,13.12,8.99,13.13,9.00,-8.99,-9.45,-9.48,4.13,4.14,4.13
146.32,13.02,8.93,13.02,8.92,-8.92,-9.36,-9.30,4.10,4.10,4.09
147.78,12.91,8.85,12.91,8.85,-8.85,-9.26,-9.13,4.06,4.06,4.06
149.26,12.80,8.78,12.80,8.78,-8.78,-9.17,-8.96,4.02,4.02,4.02
150.75,12.69,8.70,12.69,8.71,-8.71,-9.06,-8.78,3.98,3.98,3.99
152.26,12.59,8.64,12.59,8.64,-8.64,-8.96,-8.61,3.95,3.95,3.95
153.78,12.48,8.57,12.48,8.57,-8.57,-8.86,-8.44,3.92,3.92,3.91
155.32,12.38,8.50,12.38,8.50,-8.49,-8.75,-8.28,3.89,3.88,3.88
156.88,12.26,8.42,12.27,8.42,-8.42,-8.64,-8.11,3.84,3.85,3.85
158.44,12.16,8.35,12.16,8.35,-8.35,-8.53,-7.96,3.81,3.81,3.81
160.03,12.06,8.28,12.06,8.28,-8.28,-8.42,-7.80,3.78,3.78,3.78
161.63,11.95,8.20,11.95,8.21,-8.21,-8.31,-7.65,3.74,3.75,3.75
163.24,11.85,8.13,11.85,8.14,-8.13,-8.19,-7.50,3.72,3.72,3.72
164.88,11.75,8.06,11.75,8.06,-8.06,-8.08,-7.36,3.69,3.69,3.69
166.53,11.66,7.99,11.65,7.99,-7.99,-7.97,-7.23,3.67,3.67,3.67
168.19,11.55,7.91,11.55,7.91,-7.91,-7.85,-7.09,3.64,3.64,3.64
169.87,11.45,7.84,11.45,7.84,-7.84,-7.74,-6.97,3.61,3.61,3.61
171.57,11.35,7.76,11.35,7.76,-7.76,-7.63,-6.84,3.59,3.59,3.60
173.29,11.26,7.69,11.25,7.69,-7.68,-7.52,-6.73,3.58,3.57,3.57
175.02,11.15,7.61,11.15,7.61,-7.61,-7.40,-6.61,3.55,3.55,3.54
176.77,11.05,7.52,11.05,7.53,-7.52,-7.29,-6.51,3.53,3.53,3.53
178.54,10.95,7.45,10.95,7.44,-7.44,-7.18,-6.40,3.51,3.51,3.51
180.32,10.85,7.36,10.85,7.36,-7.36,-7.08,-6.30,3.49,3.49,3.49
182.13,10.74,7.27,10.74,7.27,-7.27,-6.97,-6.21,3.47,3.47,3.47
183.95,10.63,7.18,10.64,7.18,-7.19,-6.86,-6.12,3.45,3.45,3.45
185.79,10.53,7.09,10.53,7.10,-7.10,-6.76,-6.04,3.43,3.43,3.44
187.65,10.43,7.01,10.42,7.01,-7.01,-6.66,-5.96,3.42,3.42,3.42
189.52,10.31,6.91,10.32,6.92,-6.92,-6.56,-5.88,3.40,3.40,3.40
191.42,10.21,6.82,10.21,6.82,-6.82,-6.46,-5.81,3.39,3.39,3.39
193.33,10.10,6.73,10.10,6.73,-6.73,-6.36,-5.74,3.37,3.37,3.37
195.27,9.98,6.63,9.99,6.63,-6.63,-6.26,-5.67,3.35,3.35,3.35
197.22,9.87,6.54,9.87,6.53,-6.53,-6.17,-5.61,3.34,3.34,3.33
199.19,9.75,6.42,9.75,6.43,-6.43,-6.07,-5.56,3.32,3.32,3.33
201.18,9.64,6.33,9.64,6.33,-6.33,-5.98,-5.50,3.31,3.31,3.31
203.19,9.53,6.24,9.53,6.23,-6.23,-5.89,-5.45,3.30,3.30,3.30
205.23,9.41,6.13,9.41,6.13,-6.13,-5.80,-5.40,3.28,3.28,3.28
207.28,9.29,6.03,9.29,6.03,-6.03,-5.71,-5.35,3.26,3.27,3.27
209.35,9.17,5.92,9.17,5.92,-5.92,-5.63,-5.31,3.25,3.25,3.25
211.44,9.06,5.82,9.06,5.82,-5.82,-5.54,-5.26,3.24,3.24,3.24
213.56,8.94,5.72,8.94,5.72,-5.72,-5.46,-5.22,3.23,3.22,3.22
215.69,8.82,5.61,8.82,5.61,-5.61,-5.37,-5.18,3.21,3.21,3.21
217.85,8.70,5.50,8.70,5.50,-5.50,-5.29,-5.14,3.20,3.20,3.20
220.03,8.58,5.39,8.59,5.40,-5.40,-5.21,-5.10,3.18,3.19,3.19
222.23,8.47,5.30,8.47,5.29,-5.29,-5.13,-5.06,3.18,3.18,3.18
224.45,8.35,5.19,8.35,5.18,-5.18,-5.05,-5.02,3.17,3.17,3.16
226.70,8.22,5.07,8.23,5.08,-5.07,-4.97,-4.97,3.15,3.16,3.15
228.96,8.11,4.97,8.11,4.96,-4.97,-4.89,-4.93,3.15,3.14,3.14
231.25,7.99,4.86,7.99,4.86,-4.86,-4.81,-4.89,3.13,3.13,3.13
233.57,7.86,4.75,7.87,4.75,-4.75,-4.73,-4.84,3.11,3.12,3.11
235.90,7.75,4.65,7.74,4.64,-4.64,-4.64,-4.79,3.11,3.10,3.10
238.26,7.62,4.53,7.62,4.53,-4.53,-4.56,-4.74,3.09,3.09,3.10
240.64,7.50,4.42,7.51,4.43,-4.42,-4.48,-4.68,3.08,3.08,3.08
243.05,7.39,4.32,7.39,4.32,-4.32,-4.40,-4.63,3.08,3.07,3.07
245.48,7.27,4.21,7.27,4.21,-4.21,-4.31,-4.57,3.06,3.06,3.06
247.93,7.15,4.10,7.15,4.10,-4.10,-4.23,-4.50,3.05,3.05,3.05
250.41,7.04,4.00,7.04,4.00,-4.00,-4.14,-4.43,3.04,3.04,3.05
252.92,6.92,3.89,6.92,3.89,-3.89,-4.05,-4.36,3.03,3.03,3.03
255.45,6.81,3.79,6.81,3.79,-3.79,-3.96,-4.29,3.02,3.02,3.02
258.00,6.70,3.69,6.70,3.69,-3.69,-3.87,-4.21,3.01,3.01,3.02
260.58,6.59,3.59,6.59,3.59,-3.59,-3.78,-4.12,3.00,3.00,3.00
263.19,6.48,3.49,6.48,3.49,-3.49,-3.68,-4.04,2.99,2.99,2.99
265.82,6.37,3.39,6.37,3.39,-3.39,-3.59,-3.95,2.98,2.98,2.98
268.48,6.26,3.29,6.26,3.29,-3.29,-3.49,-3.85,2.97,2.97,2.97
271.16,6.15,3.20,6.15,3.19,-3.19,-3.39,-3.76,2.96,2.96,2.96
273.87,6.04,3.09,6.04,3.09,-3.09,-3.29,-3.66,2.95,2.95,2.95
276.61,5.93,3.00,5.93,2.99,-2.99,-3.18,-3.55,2.94,2.94,2.94
279.38,5.82,2.89,5.82,2.89,-2.90,-3.08,-3.45,2.92,2.92,2.93
282.17,5.71,2.80,5.71,2.80,-2.80,-2.97,-3.34,2.91,2.91,2.92
284.99,5.60,2.70,5.60,2.70,-2.70,-2.86,-3.23,2.90,2.90,2.90
287.84,5.49,2.60,5.49,2.61,-2.61,-2.76,-3.12,2.88,2.89,2.89
290.72,5.39,2.52,5.39,2.51,-2.51,-2.65,-3.01,2.88,2.88,2.87
293.63,5.28,2.41,5.28,2.42,-2.41,-2.54,-2.90,2.87,2.87,2.87
296.57,5.17,2.32,5.17,2.32,-2.31,-2.42,-2.79,2.86,2.86,2.85
299.53,5.06,2.22,5.06,2.21,-2.21,-2.31,-2.67,2.85,2.84,2.84
302.53,4.94,2.10,4.95,2.11,-2.11,-2.20,-2.56,2.83,2.83,2.84
305.55,4.84,2.02,4.84,2.01,-2.01,-2.09,-2.44,2.83,2.82,2.82
308.61,4.73,1.91,4.73,1.91,-1.91,-1.98,-2.33,2.82,2.82,2.82
311.69,4.62,1.80,4.62,1.81,-1.81,-1.86,-2.21,2.81,2.81,2.82
314.81,4.52,1.72,4.52,1.71,-1.71,-1.75,-2.10,2.81,2.81,2.80
317.96,4.41,1.61,4.41,1.61,-1.61,-1.64,-1.98,2.80,2.80,2.80
321.14,4.31,1.51,4.31,1.51,-1.51,-1.53,-1.87,2.80,2.80,2.80
324.35,4.20,1.42,4.20,1.41,-1.41,-1.42,-1.75,2.79,2.79,2.79
327.59,4.09,1.31,4.10,1.32,-1.31,-1.31,-1.64,2.78,2.78,2.78
330.87,3.99,1.22,3.99,1.22,-1.22,-1.20,-1.52,2.78,2.77,2.77
334.18,3.89,1.12,3.89,1.12,-1.12,-1.09,-1.41,2.77,2.77,2.77
337.52,3.78,1.02,3.79,1.02,-1.02,-0.98,-1.29,2.76,2.76,2.77
340.90,3.68,0.93,3.68,0.92,-0.93,-0.87,-1.18,2.75,2.75,2.75
344.30,3.58,0.83,3.58,0.83,-0.83,-0.77,-1.07,2.75,2.75,2.75
347.75,3.47,0.73,3.48,0.74,-0.74,-0.67,-0.96,2.73,2.74,2.74
351.23,3.38,0.65,3.38,0.65,-0.65,-0.56,-0.85,2.73,2.73,2.73
354.74,3.28,0.57,3.28,0.56,-0.56,-0.46,-0.74,2.72,2.72,2.72
358.28,3.17,0.46,3.18,0.47,-0.47,-0.36,-0.63,2.70,2.71,2.71
361.87,3.08,0.38,3.08,0.38,-0.38,-0.26,-0.52,2.70,2.70,2.70
365.49,2.98,0.29,2.98,0.29,-0.29,-0.17,-0.41,2.69,2.69,2.69
369.14,2.88,0.20,2.88,0.21,-0.20,-0.07,-0.30,2.68,2.68,2.68
372.83,2.79,0.12,2.79,0.12,-0.12,0.02,-0.19,2.67,2.67,2.67
376.56,2.68,0.03,2.69,0.03,-0.03,0.12,-0.08,2.65,2.66,2.66
380.33,2.59,-0.05,2.59,-0.05,0.05,0.21,0.03,2.65,2.64,2.64
384.13,2.49,-0.14,2.49,-0.14,0.14,0.30,0.14,2.63,2.63,2.63
387.97,2.40,-0.22,2.40,-0.22,0.22,0.38,0.24,2.63,2.62,2.62
391.85,2.30,-0.31,2.30,-0.31,0.31,0.47,0.35,2.61,2.61,2.61
395.77,2.21,-0.39,2.21,-0.39,0.39,0.55,0.45,2.60,2.60,2.60
399.73,2.11,-0.48,2.11,-0.48,0.48,0.64,0.56,2.59,2.59,2.59
403.72,2.02,-0.57,2.02,-0.56,0.56,0.72,0.66,2.58,2.58,2.59
407.76,1.93,-0.64,1.93,-0.64,0.64,0.80,0.77,2.57,2.57,2.58
411.84,1.84,-0.72,1.84,-0.72,0.73,0.88,0.87,2.57,2.57,2.56
415.96,1.75,-0.80,1.75,-0.81,0.81,0.95,0.97,2.56,2.56,2.55
420.12,1.65,-0.89,1.65,-0.89,0.89,1.03,1.07,2.54,2.54,2.54
424.32,1.56,-0.97,1.56,-0.97,0.97,1.10,1.17,2.53,2.53,2.53
428.56,1.47,-1.05,1.47,-1.05,1.05,1.18,1.27,2.52,2.52,2.52
432.85,1.38,-1.13,1.38,-1.13,1.13,1.25,1.36,2.51,2.51,2.51
437.18,1.28,-1.22,1.29,-1.21,1.21,1.32,1.46,2.49,2.50,2.50
441.55,1.20,-1.29,1.20,-1.29,1.29,1.39,1.55,2.49,2.49,2.49
445.96,1.11,-1.36,1.11,-1.36,1.36,1.45,1.64,2.47,2.47,2.47
450.42,1.02,-1.44,1.02,-1.44,1.44,1.52,1.72,2.46,2.46,2.46
454.93,0.93,-1.51,0.93,-1.51,1.51,1.58,1.81,2.44,2.44,2.45
459.48,0.84,-1.58,0.84,-1.58,1.58,1.65,1.89,2.42,2.43,2.43
464.07,0.76,-1.65,0.76,-1.66,1.65,1.71,1.97,2.41,2.41,2.42
468.71,0.68,-1.72,0.68,-1.72,1.72,1.77,2.04,2.40,2.40,2.40
473.40,0.60,-1.79,0.60,-1.79,1.79,1.83,2.11,2.39,2.39,2.39
478.13,0.52,-1.85,0.52,-1.85,1.86,1.89,2.18,2.38,2.38,2.37
482.91,0.45,-1.91,0.45,-1.92,1.92,1.95,2.24,2.37,2.37,2.36
487.74,0.37,-1.98,0.37,-1.98,1.98,2.00,2.30,2.36,2.35,2.35
492.62,0.29,-2.05,0.30,-2.05,2.05,2.06,2.36,2.34,2.34,2.34
497.55,0.22,-2.11,0.22,-2.11,2.11,2.11,2.41,2.33,2.33,2.33
502.52,0.15,-2.17,0.15,-2.17,2.17,2.17,2.46,2.32,2.31,2.32
507.55,0.07,-2.23,0.08,-2.22,2.22,2.22,2.50,2.30,2.30,2.30
512.62,0.01,-2.28,0.01,-2.28,2.28,2.27,2.54,2.29,2.29,2.29
517.75,-0.05,-2.33,-0.06,-2.34,2.34,2.32,2.57,2.29,2.28,2.28
522.93,-0.13,-2.40,-0.12,-2.39,2.39,2.37,2.61,2.26,2.27,2.27
