frequency,raw,error,smoothed,error_smoothed,equalization,parametric_eq,fixed_band_eq,equalized_raw,equalized_smoothed,target
20.00,-2.95,-1.25,-2.96,-1.26,1.22,0.35,0.04,-1.73,-1.74,-1.70
20.20,-2.90,-1.18,-2.90,-1.19,1.17,0.34,0.04,-1.73,-1.73,-1.72
20.40,-2.86,-1.13,-2.85,-1.12,1.13,0.33,0.04,-1.73,-1.72,-1.73
20.61,-2.81,-1.08,-2.81,-1.07,1.09,0.32,0.05,-1.72,-1.72,-1.74
20.81,-2.76,-1.00,-2.76,-1.01,1.05,0.30,0.05,-1.71,-1.71,-1.76
21.02,-2.72,-0.95,-2.73,-0.97,1.01,0.29,0.05,-1.71,-1.72,-1.77
21.23,-2.72,-0.94,-2.72,-0.94,0.97,0.28,0.05,-1.75,-1.75,-1.78
21.44,-2.72,-0.93,-2.72,-0.93,0.94,0.27,0.06,-1.78,-1.78,-1.79
21.66,-2.72,-0.92,-2.73,-0.93,0.91,0.25,0.06,-1.81,-1.81,-1.80
21.87,-2.72,-0.91,-2.72,-0.91,0.89,0.24,0.06,-1.83,-1.83,-1.81
22.09,-2.70,-0.89,-2.69,-0.88,0.86,0.23,0.07,-1.84,-1.83,-1.81
22.31,-2.65,-0.83,-2.65,-0.84,0.82,0.21,0.07,-1.83,-1.83,-1.82
22.54,-2.60,-0.79,-2.60,-0.79,0.78,0.20,0.07,-1.82,-1.82,-1.82
22.76,-2.55,-0.72,-2.55,-0.73,0.73,0.18,0.07,-1.82,-1.82,-1.83
22.99,-2.50,-0.68,-2.50,-0.68,0.68,0.17,0.08,-1.83,-1.83,-1.82
23.22,-2.45,-0.62,-2.45,-0.62,0.62,0.16,0.08,-1.83,-1.83,-1.83
23.45,-2.39,-0.56,-2.39,-0.57,0.58,0.14,0.08,-1.82,-1.82,-1.83
23.69,-2.34,-0.53,-2.34,-0.52,0.54,0.13,0.09,-1.81,-1.80,-1.82
23.92,-2.29,-0.47,-2.30,-0.48,0.51,0.11,0.09,-1.78,-1.79,-1.82
24.16,-2.27,-0.46,-2.28,-0.47,0.48,0.10,0.09,-1.79,-1.79,-1.81
24.40,-2.27,-0.46,-2.27,-0.46,0.47,0.08,0.10,-1.80,-1.80,-1.81
24.65,-2.27,-0.46,-2.27,-0.47,0.46,0.07,0.10,-1.81,-1.82,-1.81
24.89,-2.27,-0.46,-2.27,-0.46,0.45,0.06,0.10,-1.82,-1.82,-1.81
25.14,-2.26,-0.45,-2.26,-0.45,0.44,0.04,0.11,-1.82,-1.82,-1.81
25.39,-2.23,-0.42,-2.24,-0.43,0.42,0.03,0.11,-1.81,-1.81,-1.81
25.65,-2.21,-0.41,-2.21,-0.41,0.40,0.01,0.11,-1.81,-1.81,-1.80
25.91,-2.19,-0.39,-2.19,-0.39,0.38,-0.00,0.12,-1.81,-1.81,-1.80
26.16,-2.16,-0.36,-2.16,-0.36,0.35,-0.02,0.12,-1.81,-1.81,-1.80
26.43,-2.12,-0.32,-2.12,-0.32,0.33,-0.04,0.12,-1.80,-1.80,-1.81
26.69,-2.08,-0.27,-2.08,-0.28,0.30,-0.05,0.12,-1.78,-1.78,-1.81
26.96,-2.05,-0.24,-2.06,-0.25,0.28,-0.07,0.13,-1.77,-1.78,-1.81
27.23,-2.04,-0.23,-2.04,-0.23,0.25,-0.08,0.13,-1.79,-1.79,-1.81
27.50,-2.04,-0.22,-2.05,-0.23,0.22,-0.10,0.13,-1.83,-1.83,-1.82
27.77,-2.04,-0.21,-2.04,-0.22,0.18,-0.11,0.13,-1.86,-1.86,-1.83
28.05,-2.03,-0.20,-2.02,-0.19,0.15,-0.13,0.13,-1.88,-1.87,-1.83
28.33,-1.96,-0.12,-1.96,-0.13,0.11,-0.15,0.13,-1.85,-1.85,-1.84
28.62,-1.90,-0.07,-1.90,-0.06,0.08,-0.16,0.13,-1.82,-1.82,-1.84
28.90,-1.83,0.02,-1.84,0.00,0.04,-0.18,0.12,-1.79,-1.80,-1.85
29.19,-1.81,0.05,-1.82,0.03,-0.00,-0.20,0.12,-1.81,-1.82,-1.86
29.48,-1.81,0.05,-1.81,0.05,-0.05,-0.21,0.12,-1.86,-1.86,-1.86
29.78,-1.81,0.06,-1.81,0.06,-0.10,-0.23,0.11,-1.91,-1.91,-1.87
30.08,-1.79,0.09,-1.78,0.09,-0.14,-0.25,0.11,-1.94,-1.92,-1.88
30.38,-1.72,0.15,-1.72,0.16,-0.19,-0.26,0.10,-1.91,-1.91,-1.88
30.68,-1.65,0.24,-1.65,0.23,-0.22,-0.28,0.09,-1.87,-1.87,-1.89
30.99,-1.58,0.31,-1.60,0.29,-0.25,-0.30,0.09,-1.83,-1.85,-1.90
31.30,-1.58,0.33,-1.58,0.32,-0.28,-0.31,0.08,-1.86,-1.86,-1.91
31.61,-1.58,0.33,-1.57,0.33,-0.31,-0.33,0.07,-1.89,-1.88,-1.91
31.93,-1.58,0.33,-1.58,0.33,-0.33,-0.35,0.06,-1.91,-1.91,-1.91
32.24,-1.58,0.34,-1.59,0.33,-0.35,-0.37,0.04,-1.93,-1.94,-1.92
32.57,-1.58,0.34,-1.59,0.33,-0.37,-0.38,0.03,-1.95,-1.96,-1.92
32.89,-1.58,0.34,-1.57,0.35,-0.39,-0.40,0.02,-1.97,-1.96,-1.92
33.22,-1.53,0.39,-1.52,0.39,-0.41,-0.42,0.00,-1.95,-1.94,-1.92
33.55,-1.46,0.45,-1.46,0.45,-0.44,-0.44,-0.01,-1.90,-1.90,-1.91
33.89,-1.38,0.52,-1.40,0.50,-0.47,-0.46,-0.03,-1.85,-1.87,-1.90
34.23,-1.36,0.54,-1.37,0.53,-0.49,-0.47,-0.05,-1.85,-1.86,-1.90
34.57,-1.36,0.53,-1.36,0.53,-0.51,-0.49,-0.07,-1.87,-1.86,-1.89
34.92,-1.36,0.53,-1.36,0.52,-0.52,-0.51,-0.09,-1.88,-1.88,-1.89
35.27,-1.36,0.52,-1.36,0.52,-0.52,-0.53,-0.11,-1.88,-1.88,-1.88
35.62,-1.36,0.52,-1.36,0.52,-0.52,-0.55,-0.13,-1.88,-1.88,-1.88
35.97,-1.36,0.52,-1.36,0.52,-0.53,-0.57,-0.15,-1.89,-1.89,-1.88
36.33,-1.35,0.53,-1.36,0.52,-0.54,-0.58,-0.17,-1.90,-1.90,-1.88
36.70,-1.34,0.54,-1.34,0.54,-0.57,-0.60,-0.19,-1.91,-1.91,-1.88
37.06,-1.32,0.56,-1.30,0.58,-0.60,-0.62,-0.22,-1.92,-1.90,-1.88
37.43,-1.24,0.64,-1.24,0.64,-0.64,-0.64,-0.24,-1.88,-1.88,-1.88
37.81,-1.17,0.72,-1.18,0.70,-0.68,-0.66,-0.27,-1.85,-1.86,-1.89
38.19,-1.13,0.77,-1.14,0.76,-0.72,-0.68,-0.29,-1.85,-1.86,-1.90
38.57,-1.13,0.78,-1.13,0.78,-0.75,-0.70,-0.32,-1.88,-1.87,-1.91
38.95,-1.13,0.79,-1.13,0.79,-0.77,-0.72,-0.35,-1.90,-1.90,-1.92
39.34,-1.13,0.80,-1.13,0.80,-0.79,-0.74,-0.37,-1.92,-1.92,-1.93
39.74,-1.13,0.81,-1.13,0.81,-0.81,-0.76,-0.40,-1.95,-1.95,-1.94
40.14,-1.13,0.83,-1.14,0.81,-0.84,-0.78,-0.43,-1.97,-1.98,-1.96
40.54,-1.13,0.83,-1.14,0.82,-0.87,-0.80,-0.46,-2.00,-2.00,-1.96
40.94,-1.13,0.84,-1.10,0.86,-0.90,-0.82,-0.49,-2.03,-2.01,-1.97
41.35,-1.05,0.92,-1.04,0.92,-0.94,-0.84,-0.52,-1.99,-1.98,-1.97
41.76,-0.95,1.02,-0.97,1.00,-0.97,-0.86,-0.55,-1.92,-1.95,-1.97
42.18,-0.90,1.07,-0.92,1.05,-1.01,-0.88,-0.58,-1.91,-1.92,-1.97
42.60,-0.90,1.07,-0.89,1.07,-1.03,-0.90,-0.61,-1.93,-1.93,-1.97
43.03,-0.90,1.07,-0.90,1.07,-1.05,-0.92,-0.64,-1.95,-1.95,-1.97
43.46,-0.90,1.07,-0.90,1.06,-1.06,-0.94,-0.68,-1.96,-1.96,-1.97
43.90,-0.90,1.06,-0.90,1.06,-1.06,-0.96,-0.71,-1.97,-1.97,-1.96
44.33,-0.90,1.06,-0.90,1.05,-1.07,-0.98,-0.74,-1.97,-1.97,-1.96
44.78,-0.90,1.06,-0.90,1.05,-1.08,-1.00,-0.78,-1.98,-1.98,-1.96
45.23,-0.89,1.06,-0.89,1.06,-1.09,-1.02,-0.81,-1.99,-1.98,-1.95
45.68,-0.86,1.09,-0.86,1.09,-1.12,-1.04,-0.85,-1.98,-1.98,-1.95
46.13,-0.82,1.13,-0.81,1.14,-1.15,-1.06,-0.88,-1.97,-1.96,-1.95
46.60,-0.74,1.20,-0.74,1.20,-1.18,-1.08,-0.92,-1.92,-1.93,-1.95
47.06,-0.67,1.27,-0.69,1.24,-1.21,-1.10,-0.96,-1.88,-1.91,-1.94
47.53,-0.67,1.27,-0.67,1.27,-1.24,-1.12,-0.99,-1.91,-1.91,-1.94
48.01,-0.67,1.27,-0.66,1.28,-1.26,-1.14,-1.03,-1.93,-1.93,-1.94
48.49,-0.67,1.28,-0.67,1.27,-1.27,-1.16,-1.07,-1.94,-1.94,-1.95
48.97,-0.67,1.28,-0.67,1.27,-1.27,-1.18,-1.11,-1.94,-1.94,-1.95
49.46,-0.67,1.27,-0.67,1.27,-1.26,-1.20,-1.15,-1.93,-1.93,-1.94
49.96,-0.67,1.27,-0.67,1.27,-1.26,-1.23,-1.19,-1.93,-1.93,-1.94
50.46,-0.67,1.27,-0.67,1.26,-1.26,-1.25,-1.22,-1.94,-1.94,-1.94
50.96,-0.67,1.27,-0.68,1.25,-1.28,-1.27,-1.26,-1.95,-1.97,-1.94
51.47,-0.67,1.26,-0.68,1.25,-1.31,-1.28,-1.30,-1.98,-1.99,-1.93
51.99,-0.67,1.26,-0.63,1.30,-1.34,-1.30,-1.34,-2.01,-1.97,-1.93
52.51,-0.55,1.37,-0.56,1.37,-1.38,-1.32,-1.38,-1.93,-1.93,-1.93
53.03,-0.44,1.49,-0.48,1.45,-1.41,-1.34,-1.42,-1.85,-1.89,-1.93
53.56,-0.44,1.50,-0.44,1.50,-1.44,-1.36,-1.46,-1.89,-1.88,-1.94
54.10,-0.44,1.50,-0.43,1.51,-1.47,-1.38,-1.49,-1.91,-1.90,-1.94
54.64,-0.44,1.50,-0.44,1.50,-1.50,-1.40,-1.53,-1.94,-1.94,-1.94
55.18,-0.44,1.51,-0.44,1.50,-1.51,-1.41,-1.57,-1.95,-1.95,-1.95
55.74,-0.44,1.50,-0.44,1.50,-1.51,-1.43,-1.60,-1.95,-1.95,-1.94
56.29,-0.44,1.50,-0.44,1.50,-1.51,-1.45,-1.63,-1.95,-1.95,-1.94
56.86,-0.44,1.50,-0.44,1.49,-1.50,-1.46,-1.67,-1.94,-1.94,-1.94
57.42,-0.44,1.50,-0.44,1.50,-1.50,-1.48,-1.70,-1.94,-1.94,-1.94
58.00,-0.44,1.50,-0.44,1.50,-1.49,-1.49,-1.73,-1.93,-1.93,-1.94
58.58,-0.44,1.50,-0.44,1.50,-1.48,-1.51,-1.75,-1.93,-1.93,-1.94
59.16,-0.44,1.50,-0.44,1.50,-1.48,-1.52,-1.78,-1.92,-1.92,-1.94
59.76,-0.44,1.50,-0.44,1.50,-1.49,-1.53,-1.80,-1.93,-1.93,-1.94
60.35,-0.44,1.50,-0.45,1.49,-1.50,-1.55,-1.82,-1.94,-1.95,-1.94
60.96,-0.44,1.50,-0.45,1.48,-1.52,-1.56,-1.84,-1.96,-1.98,-1.94
61.57,-0.44,1.49,-0.43,1.51,-1.55,-1.57,-1.86,-1.99,-1.98,-1.93
62.18,-0.40,1.53,-0.37,1.56,-1.58,-1.58,-1.87,-1.98,-1.95,-1.93
62.80,-0.26,1.67,-0.30,1.63,-1.62,-1.60,-1.88,-1.88,-1.91,-1.93
63.43,-0.22,1.71,-0.24,1.69,-1.65,-1.61,-1.89,-1.87,-1.89,-1.93
64.07,-0.22,1.72,-0.21,1.72,-1.68,-1.62,-1.90,-1.90,-1.89,-1.94
64.71,-0.22,1.72,-0.22,1.72,-1.71,-1.63,-1.91,-1.93,-1.93,-1.94
65.35,-0.22,1.73,-0.22,1.73,-1.73,-1.64,-1.91,-1.95,-1.95,-1.95
66.01,-0.22,1.74,-0.22,1.73,-1.74,-1.65,-1.91,-1.96,-1.96,-1.96
66.67,-0.22,1.74,-0.22,1.74,-1.75,-1.66,-1.91,-1.97,-1.97,-1.96
67.33,-0.22,1.75,-0.22,1.74,-1.75,-1.67,-1.91,-1.97,-1.97,-1.97
68.01,-0.22,1.75,-0.22,1.75,-1.75,-1.68,-1.91,-1.97,-1.97,-1.97
68.69,-0.22,1.75,-0.22,1.75,-1.75,-1.69,-1.90,-1.97,-1.97,-1.97
69.37,-0.22,1.76,-0.22,1.75,-1.75,-1.70,-1.89,-1.98,-1.98,-1.98
70.07,-0.22,1.76,-0.22,1.76,-1.76,-1.71,-1.89,-1.98,-1.98,-1.98
70.77,-0.22,1.77,-0.22,1.76,-1.76,-1.72,-1.88,-1.98,-1.98,-1.99
71.48,-0.22,1.77,-0.22,1.77,-1.75,-1.73,-1.87,-1.98,-1.98,-1.99
72.19,-0.22,1.77,-0.22,1.77,-1.76,-1.74,-1.86,-1.98,-1.98,-1.99
72.91,-0.22,1.78,-0.22,1.77,-1.77,-1.75,-1.85,-1.99,-1.99,-2.00
73.64,-0.22,1.78,-0.23,1.77,-1.79,-1.76,-1.84,-2.01,-2.01,-2.00
74.38,-0.22,1.78,-0.23,1.77,-1.81,-1.77,-1.83,-2.03,-2.04,-2.00
75.12,-0.21,1.79,-0.20,1.80,-1.84,-1.79,-1.82,-2.05,-2.04,-2.00
75.87,-0.16,1.84,-0.14,1.86,-1.87,-1.80,-1.81,-2.03,-2.01,-2.00
76.63,-0.05,1.95,-0.07,1.93,-1.91,-1.81,-1.80,-1.96,-1.97,-2.00
77.40,0.01,2.00,-0.01,1.98,-1.93,-1.82,-1.79,-1.93,-1.95,-1.99
78.17,0.01,2.00,0.02,2.00,-1.96,-1.83,-1.78,-1.95,-1.94,-1.99
78.95,0.01,1.99,0.01,1.99,-1.98,-1.84,-1.77,-1.97,-1.96,-1.98
79.74,0.01,1.99,0.01,1.98,-1.99,-1.85,-1.76,-1.98,-1.98,-1.98
80.54,0.01,1.98,0.01,1.97,-1.99,-1.86,-1.76,-1.98,-1.98,-1.97
81.35,0.01,1.97,0.01,1.97,-1.98,-1.87,-1.75,-1.97,-1.97,-1.96
82.16,0.01,1.97,0.01,1.97,-1.97,-1.89,-1.75,-1.97,-1.97,-1.96
82.98,0.01,1.97,0.01,1.96,-1.97,-1.90,-1.75,-1.96,-1.96,-1.96
83.81,0.01,1.97,0.01,1.97,-1.97,-1.91,-1.75,-1.96,-1.96,-1.96
84.65,0.01,1.97,0.01,1.97,-1.97,-1.92,-1.74,-1.96,-1.96,-1.96
85.50,0.01,1.98,0.01,1.97,-1.97,-1.94,-1.75,-1.96,-1.96,-1.97
86.35,0.01,1.98,0.01,1.98,-1.98,-1.95,-1.75,-1.97,-1.97,-1.97
87.22,0.01,1.99,0.01,1.98,-1.98,-1.96,-1.75,-1.97,-1.97,-1.98
88.09,0.01,1.99,0.01,1.99,-1.99,-1.97,-1.76,-1.98,-1.98,-1.98
88.97,0.01,2.00,0.01,1.99,-1.99,-1.99,-1.76,-1.98,-1.98,-1.99
89.86,0.01,2.00,0.01,2.00,-2.00,-2.00,-1.77,-1.99,-1.99,-1.99
90.76,0.01,2.01,0.01,2.00,-2.00,-2.01,-1.78,-2.00,-2.00,-2.00
91.66,0.01,2.01,0.01,2.01,-2.01,-2.02,-1.79,-2.00,-2.00,-2.00
92.58,0.01,2.02,0.01,2.01,-2.01,-2.04,-1.80,-2.00,-2.00,-2.01
93.51,0.01,2.02,0.01,2.02,-2.02,-2.05,-1.81,-2.01,-2.01,-2.01
94.44,0.01,2.03,0.01,2.02,-2.02,-2.06,-1.83,-2.01,-2.01,-2.02
95.39,0.01,2.03,0.01,2.02,-2.02,-2.08,-1.84,-2.02,-2.02,-2.02
96.34,0.01,2.03,0.01,2.03,-2.03,-2.09,-1.86,-2.02,-2.02,-2.02
97.30,0.01,2.03,0.01,2.03,-2.02,-2.10,-1.88,-2.02,-2.02,-2.02
98.28,0.01,2.04,0.01,2.03,-2.02,-2.11,-1.90,-2.01,-2.01,-2.03
99.26,0.01,2.04,0.01,2.04,-2.02,-2.13,-1.92,-2.01,-2.01,-2.03
100.25,0.01,2.04,0.01,2.04,-2.03,-2.14,-1.94,-2.02,-2.02,-2.03
101.25,0.01,2.05,0.00,2.04,-2.05,-2.15,-1.96,-2.04,-2.05,-2.04
102.27,0.01,2.05,-0.00,2.04,-2.08,-2.17,-1.98,-2.07,-2.08,-2.04
103.29,0.01,2.06,0.03,2.07,-2.11,-2.18,-2.00,-2.11,-2.09,-2.05
104.32,0.06,2.11,0.08,2.13,-2.15,-2.19,-2.03,-2.09,-2.07,-2.05
105.37,0.18,2.23,0.16,2.20,-2.19,-2.20,-2.05,-2.01,-2.03,-2.05
106.42,0.24,2.29,0.22,2.26,-2.22,-2.22,-2.07,-1.98,-2.00,-2.05
107.48,0.24,2.29,0.25,2.29,-2.25,-2.23,-2.10,-2.01,-2.00,-2.05
108.56,0.24,2.28,0.24,2.29,-2.27,-2.24,-2.12,-2.03,-2.02,-2.04
109.64,0.24,2.28,0.24,2.27,-2.28,-2.25,-2.14,-2.04,-2.04,-2.04
110.74,0.24,2.27,0.24,2.26,-2.28,-2.27,-2.17,-2.04,-2.04,-2.03
111.85,0.24,2.26,0.24,2.26,-2.27,-2.28,-2.19,-2.03,-2.03,-2.02
112.97,0.24,2.25,0.24,2.25,-2.26,-2.29,-2.21,-2.02,-2.02,-2.01
114.10,0.24,2.25,0.24,2.25,-2.25,-2.30,-2.23,-2.01,-2.01,-2.01
115.24,0.24,2.25,0.24,2.24,-2.24,-2.31,-2.25,-2.01,-2.01,-2.01
116.39,0.24,2.25,0.24,2.25,-2.24,-2.32,-2.27,-2.00,-2.00,-2.01
117.55,0.24,2.25,0.24,2.25,-2.24,-2.34,-2.28,-2.00,-2.00,-2.01
118.73,0.24,2.25,0.24,2.24,-2.24,-2.35,-2.30,-2.01,-2.01,-2.01
119.92,0.24,2.25,0.24,2.25,-2.25,-2.36,-2.31,-2.01,-2.01,-2.01
121.12,0.24,2.25,0.24,2.25,-2.25,-2.37,-2.32,-2.01,-2.01,-2.01
122.33,0.24,2.26,0.24,2.25,-2.25,-2.38,-2.33,-2.02,-2.02,-2.02
123.55,0.24,2.26,0.24,2.26,-2.26,-2.39,-2.34,-2.02,-2.02,-2.02
124.79,0.24,2.27,0.24,2.27,-2.26,-2.40,-2.34,-2.03,-2.03,-2.03
126.03,0.24,2.28,0.24,2.27,-2.27,-2.41,-2.34,-2.03,-2.03,-2.04
127.29,0.24,2.28,0.24,2.28,-2.28,-2.42,-2.35,-2.04,-2.04,-2.04
128.57,0.24,2.29,0.24,2.28,-2.28,-2.43,-2.34,-2.05,-2.05,-2.05
129.85,0.24,2.29,0.24,2.29,-2.29,-2.43,-2.34,-2.05,-2.05,-2.05
131.15,0.24,2.30,0.24,2.30,-2.29,-2.44,-2.34,-2.06,-2.06,-2.06
132.46,0.24,2.31,0.24,2.30,-2.30,-2.45,-2.33,-2.06,-2.06,-2.07
133.79,0.24,2.31,0.24,2.31,-2.30,-2.46,-2.32,-2.06,-2.06,-2.07
135.12,0.24,2.31,0.24,2.31,-2.31,-2.47,-2.31,-2.07,-2.07,-2.07
136.48,0.24,2.31,0.24,2.31,-2.31,-2.47,-2.30,-2.07,-2.07,-2.07
137.84,0.24,2.31,0.24,2.31,-2.31,-2.48,-2.29,-2.07,-2.07,-2.07
139.22,0.24,2.32,0.24,2.31,-2.31,-2.49,-2.28,-2.07,-2.07,-2.08
140.61,0.24,2.32,0.24,2.31,-2.31,-2.49,-2.26,-2.08,-2.08,-2.08
142.02,0.24,2.32,0.24,2.32,-2.32,-2.50,-2.25,-2.08,-2.08,-2.08
143.44,0.24,2.32,0.24,2.32,-2.32,-2.51,-2.23,-2.08,-2.08,-2.08
144.87,0.24,2.33,0.24,2.32,-2.32,-2.51,-2.22,-2.08,-2.08,-2.09
146.32,0.24,2.33,0.24,2.33,-2.32,-2.52,-2.20,-2.09,-2.09,-2.09
147.78,0.24,2.33,0.24,2.33,-2.33,-2.52,-2.19,-2.09,-2.09,-2.09
149.26,0.24,2.33,0.24,2.32,-2.33,-2.53,-2.17,-2.09,-2.09,-2.09
150.75,0.24,2.33,0.24,2.33,-2.33,-2.53,-2.16,-2.09,-2.09,-2.09
152.26,0.24,2.33,0.24,2.33,-2.33,-2.54,-2.14,-2.09,-2.09,-2.09
153.78,0.24,2.34,0.24,2.33,-2.33,-2.54,-2.13,-2.09,-2.09,-2.10
155.32,0.24,2.34,0.24,2.33,-2.33,-2.54,-2.12,-2.09,-2.09,-2.10
156.88,0.24,2.33,0.24,2.33,-2.33,-2.55,-2.11,-2.09,-2.09,-2.09
158.44,0.24,2.33,0.24,2.33,-2.33,-2.55,-2.10,-2.09,-2.09,-2.09
160.03,0.24,2.33,0.24,2.32,-2.33,-2.55,-2.09,-2.09,-2.09,-2.09
161.63,0.24,2.33,0.24,2.33,-2.33,-2.56,-2.08,-2.09,-2.09,-2.09
163.24,0.24,2.33,0.24,2.33,-2.32,-2.56,-2.07,-2.09,-2.09,-2.09
164.88,0.24,2.33,0.24,2.33,-2.32,-2.56,-2.07,-2.08,-2.08,-2.09
166.53,0.24,2.33,0.24,2.32,-2.32,-2.56,-2.06,-2.08,-2.08,-2.09
168.19,0.24,2.32,0.24,2.32,-2.32,-2.56,-2.06,-2.08,-2.08,-2.08
169.87,0.24,2.32,0.24,2.32,-2.32,-2.56,-2.06,-2.08,-2.08,-2.08
171.57,0.24,2.32,0.24,2.31,-2.32,-2.56,-2.06,-2.08,-2.08,-2.08
173.29,0.24,2.32,0.24,2.32,-2.32,-2.56,-2.06,-2.08,-2.08,-2.08
175.02,0.24,2.32,0.24,2.31,-2.32,-2.56,-2.06,-2.08,-2.08,-2.08
176.77,0.24,2.32,0.24,2.32,-2.32,-2.56,-2.07,-2.08,-2.08,-2.08
178.54,0.24,2.32,0.24,2.32,-2.32,-2.56,-2.08,-2.08,-2.08,-2.08
180.32,0.24,2.33,0.24,2.32,-2.32,-2.56,-2.08,-2.08,-2.08,-2.09
182.13,0.24,2.33,0.24,2.33,-2.33,-2.56,-2.09,-2.09,-2.09,-2.09
183.95,0.24,2.34,0.24,2.33,-2.33,-2.56,-2.10,-2.09,-2.09,-2.10
185.79,0.24,2.34,0.24,2.34,-2.34,-2.56,-2.12,-2.10,-2.10,-2.10
187.65,0.24,2.34,0.24,2.34,-2.34,-2.56,-2.13,-2.10,-2.10,-2.10
189.52,0.24,2.35,0.24,2.34,-2.34,-2.56,-2.15,-2.10,-2.10,-2.11
191.42,0.24,2.35,0.24,2.35,-2.34,-2.55,-2.16,-2.11,-2.11,-2.11
193.33,0.24,2.35,0.24,2.35,-2.34,-2.55,-2.18,-2.11,-2.11,-2.11
195.27,0.24,2.35,0.24,2.35,-2.34,-2.55,-2.20,-2.10,-2.10,-2.11
197.22,0.24,2.35,0.24,2.34,-2.34,-2.54,-2.22,-2.10,-2.10,-2.11
199.19,0.24,2.34,0.24,2.34,-2.34,-2.54,-2.25,-2.10,-2.10,-2.10
201.18,0.24,2.34,0.24,2.34,-2.34,-2.54,-2.27,-2.10,-2.10,-2.10
203.19,0.24,2.34,0.24,2.33,-2.33,-2.53,-2.29,-2.09,-2.09,-2.10
205.23,0.24,2.33,0.24,2.33,-2.33,-2.53,-2.32,-2.09,-2.09,-2.09
207.28,0.24,2.33,0.24,2.33,-2.33,-2.53,-2.34,-2.09,-2.09,-2.09
209.35,0.24,2.33,0.24,2.32,-2.33,-2.52,-2.37,-2.09,-2.09,-2.09
211.44,0.24,2.33,0.24,2.33,-2.32,-2.52,-2.39,-2.09,-2.09,-2.09
213.56,0.24,2.33,0.24,2.33,-2.33,-2.51,-2.42,-2.09,-2.09,-2.09
215.69,0.24,2.33,0.24,2.32,-2.33,-2.51,-2.44,-2.09,-2.09,-2.09
217.85,0.24,2.33,0.24,2.33,-2.33,-2.50,-2.47,-2.09,-2.09,-2.09
220.03,0.24,2.33,0.24,2.33,-2.33,-2.50,-2.49,-2.09,-2.09,-2.09
222.23,0.24,2.34,0.24,2.33,-2.33,-2.49,-2.52,-2.09,-2.09,-2.10
224.45,0.24,2.34,0.24,2.34,-2.33,-2.48,-2.54,-2.09,-2.09,-2.10
226.70,0.24,2.34,0.24,2.34,-2.33,-2.48,-2.56,-2.10,-2.10,-2.10
228.96,0.24,2.34,0.24,2.34,-2.34,-2.47,-2.58,-2.10,-2.10,-2.10
231.25,0.24,2.34,0.24,2.34,-2.34,-2.46,-2.59,-2.10,-2.10,-2.10
233.57,0.24,2.35,0.24,2.34,-2.34,-2.46,-2.61,-2.10,-2.10,-2.11
235.90,0.24,2.35,0.24,2.35,-2.35,-2.45,-2.62,-2.11,-2.11,-2.11
238.26,0.24,2.35,0.24,2.35,-2.35,-2.44,-2.64,-2.11,-2.11,-2.11
240.64,0.24,2.36,0.24,2.35,-2.35,-2.43,-2.64,-2.11,-2.11,-2.12
243.05,0.24,2.36,0.24,2.36,-2.35,-2.43,-2.65,-2.11,-2.11,-2.12
245.48,0.24,2.36,0.24,2.36,-2.35,-2.42,-2.65,-2.12,-2.12,-2.12
247.93,0.24,2.36,0.24,2.36,-2.36,-2.41,-2.65,-2.12,-2.12,-2.12
250.41,0.24,2.36,0.24,2.36,-2.36,-2.40,-2.65,-2.12,-2.12,-2.12
252.92,0.24,2.36,0.24,2.36,-2.37,-2.39,-2.65,-2.13,-2.13,-2.12
255.45,0.24,2.36,0.24,2.36,-2.37,-2.38,-2.64,-2.13,-2.13,-2.12
258.00,0.24,2.36,0.24,2.35,-2.37,-2.38,-2.63,-2.13,-2.13,-2.12
260.58,0.24,2.36,0.24,2.36,-2.35,-2.37,-2.62,-2.11,-2.11,-2.12
263.19,0.24,2.36,0.25,2.37,-2.33,-2.36,-2.60,-2.09,-2.08,-2.12
265.82,0.24,2.37,0.22,2.35,-2.30,-2.35,-2.58,-2.06,-2.08,-2.13
268.48,0.19,2.32,0.16,2.29,-2.26,-2.34,-2.56,-2.07,-2.10,-2.13
271.16,0.06,2.19,0.09,2.21,-2.23,-2.33,-2.54,-2.17,-2.14,-2.13
273.87,0.01,2.13,0.03,2.15,-2.19,-2.32,-2.51,-2.19,-2.17,-2.12
276.61,0.01,2.13,-0.00,2.12,-2.16,-2.31,-2.49,-2.15,-2.16,-2.12
279.38,0.01,2.13,0.00,2.12,-2.14,-2.30,-2.46,-2.13,-2.13,-2.12
282.17,0.01,2.13,0.01,2.12,-2.12,-2.29,-2.43,-2.11,-2.11,-2.12
284.99,0.01,2.12,0.01,2.12,-2.11,-2.28,-2.40,-2.10,-2.10,-2.11
287.84,0.01,2.12,0.01,2.12,-2.10,-2.27,-2.37,-2.10,-2.10,-2.11
290.72,0.01,2.12,0.01,2.11,-2.11,-2.25,-2.34,-2.10,-2.10,-2.11
293.63,0.01,2.12,0.01,2.11,-2.11,-2.24,-2.31,-2.10,-2.10,-2.11
296.57,0.01,2.11,0.01,2.11,-2.11,-2.23,-2.27,-2.10,-2.10,-2.10
299.53,0.01,2.11,0.01,2.11,-2.11,-2.22,-2.24,-2.10,-2.10,-2.10
302.53,0.01,2.11,0.01,2.11,-2.10,-2.21,-2.21,-2.10,-2.10,-2.10
305.55,0.01,2.11,0.01,2.11,-2.10,-2.20,-2.18,-2.09,-2.09,-2.10
308.61,0.01,2.11,0.01,2.10,-2.10,-2.19,-2.15,-2.09,-2.09,-2.10
311.69,0.01,2.10,0.01,2.10,-2.10,-2.17,-2.11,-2.09,-2.09,-2.09
314.81,0.01,2.10,0.01,2.10,-2.10,-2.16,-2.08,-2.09,-2.09,-2.09
317.96,0.01,2.10,0.01,2.09,-2.10,-2.15,-2.06,-2.09,-2.09,-2.09
321.14,0.01,2.10,0.01,2.10,-2.10,-2.14,-2.03,-2.09,-2.09,-2.09
324.35,0.01,2.10,0.01,2.10,-2.10,-2.12,-2.00,-2.09,-2.09,-2.09
327.59,0.01,2.10,0.01,2.10,-2.10,-2.11,-1.97,-2.09,-2.09,-2.09
330.87,0.01,2.10,0.01,2.10,-2.09,-2.10,-1.95,-2.08,-2.08,-2.09
334.18,0.01,2.10,0.01,2.10,-2.09,-2.08,-1.92,-2.08,-2.08,-2.09
337.52,0.01,2.10,0.01,2.09,-2.09,-2.07,-1.90,-2.09,-2.09,-2.09
340.90,0.01,2.09,0.01,2.09,-2.10,-2.06,-1.88,-2.09,-2.09,-2.08
344.30,0.01,2.09,0.01,2.08,-2.10,-2.04,-1.86,-2.09,-2.09,-2.08
347.75,0.01,2.08,0.01,2.08,-2.09,-2.03,-1.84,-2.08,-2.08,-2.07
351.23,0.01,2.08,0.01,2.08,-2.08,-2.02,-1.82,-2.07,-2.07,-2.07
354.74,0.01,2.08,0.02,2.09,-2.05,-2.00,-1.81,-2.04,-2.03,-2.07
358.28,0.01,2.08,0.01,2.07,-2.02,-1.99,-1.79,-2.01,-2.01,-2.07
361.87,0.01,2.08,-0.05,2.02,-1.99,-1.98,-1.78,-1.98,-2.03,-2.07
365.49,-0.15,1.92,-0.12,1.95,-1.95,-1.96,-1.77,-2.10,-2.07,-2.07
369.14,-0.21,1.86,-0.19,1.88,-1.92,-1.95,-1.76,-2.13,-2.11,-2.07
372.83,-0.22,1.85,-0.23,1.84,-1.89,-1.93,-1.75,-2.11,-2.12,-2.07
376.56,-0.22,1.85,-0.23,1.84,-1.86,-1.92,-1.74,-2.08,-2.09,-2.07
380.33,-0.22,1.85,-0.22,1.85,-1.84,-1.90,-1.74,-2.07,-2.07,-2.07
384.13,-0.22,1.85,-0.22,1.85,-1.84,-1.89,-1.73,-2.06,-2.06,-2.07
387.97,-0.22,1.86,-0.22,1.85,-1.84,-1.88,-1.73,-2.06,-2.06,-2.08
391.85,-0.22,1.86,-0.22,1.86,-1.85,-1.86,-1.72,-2.07,-2.07,-2.08
395.77,-0.22,1.86,-0.22,1.86,-1.86,-1.85,-1.72,-2.08,-2.08,-2.08
399.73,-0.22,1.87,-0.22,1.86,-1.86,-1.83,-1.72,-2.08,-2.08,-2.09
403.72,-0.22,1.87,-0.22,1.87,-1.86,-1.82,-1.72,-2.08,-2.08,-2.09
407.76,-0.22,1.87,-0.22,1.87,-1.86,-1.80,-1.72,-2.08,-2.08,-2.09
411.84,-0.22,1.87,-0.22,1.86,-1.86,-1.79,-1.72,-2.08,-2.08,-2.09
415.96,-0.22,1.86,-0.22,1.86,-1.86,-1.77,-1.73,-2.08,-2.08,-2.08
420.12,-0.22,1.86,-0.22,1.85,-1.86,-1.76,-1.73,-2.08,-2.08,-2.08
424.32,-0.22,1.85,-0.22,1.85,-1.86,-1.74,-1.73,-2.08,-2.08,-2.07
428.56,-0.22,1.85,-0.22,1.85,-1.86,-1.72,-1.73,-2.08,-2.08,-2.07
432.85,-0.22,1.85,-0.22,1.84,-1.85,-1.71,-1.74,-2.08,-2.08,-2.07
437.18,-0.22,1.85,-0.22,1.84,-1.84,-1.69,-1.74,-2.06,-2.06,-2.07
441.55,-0.22,1.84,-0.21,1.85,-1.81,-1.68,-1.74,-2.03,-2.02,-2.06
445.96,-0.22,1.84,-0.22,1.83,-1.78,-1.66,-1.75,-2.00,-2.00,-2.06
