frequency,raw,error,smoothed,error_smoothed,equalization,parametric_eq,fixed_band_eq,equalized_raw,equalized_smoothed,target
20.00,-6.56,-7.99,-6.56,-8.00,6.00,6.13,2.29,-0.56,-0.56,1.44
20.20,-6.44,-7.91,-6.43,-7.91,6.00,6.14,2.36,-0.44,-0.43,1.48
20.40,-6.31,-7.83,-6.31,-7.82,6.00,6.15,2.43,-0.31,-0.31,1.52
20.61,-6.21,-7.74,-6.19,-7.74,6.00,6.15,2.50,-0.21,-0.19,1.54
20.81,-6.08,-7.66,-6.08,-7.66,6.00,6.16,2.58,-0.08,-0.08,1.58
21.02,-5.98,-7.59,-6.00,-7.60,6.00,6.16,2.66,0.02,0.00,1.62
21.23,-5.94,-7.56,-5.93,-7.56,6.00,6.16,2.74,0.06,0.07,1.62
21.44,-5.89,-7.54,-5.89,-7.53,6.00,6.16,2.82,0.11,0.11,1.64
21.66,-5.86,-7.51,-5.86,-7.51,6.00,6.16,2.91,0.14,0.14,1.65
21.87,-5.81,-7.47,-5.81,-7.47,6.00,6.15,3.00,0.19,0.19,1.65
22.09,-5.76,-7.43,-5.76,-7.42,6.00,6.15,3.09,0.24,0.24,1.66
22.31,-5.68,-7.35,-5.69,-7.35,6.00,6.14,3.18,0.32,0.31,1.66
22.54,-5.62,-7.28,-5.61,-7.27,6.00,6.13,3.27,0.38,0.39,1.66
22.76,-5.53,-7.19,-5.53,-7.19,6.00,6.12,3.37,0.47,0.47,1.65
22.99,-5.46,-7.10,-5.46,-7.11,6.00,6.11,3.47,0.54,0.54,1.64
23.22,-5.40,-7.04,-5.39,-7.03,6.00,6.09,3.57,0.60,0.61,1.64
23.45,-5.33,-6.97,-5.34,-6.97,6.00,6.08,3.68,0.67,0.66,1.63
23.69,-5.28,-6.91,-5.28,-6.91,6.00,6.06,3.79,0.72,0.72,1.63
23.92,-5.21,-6.85,-5.20,-6.84,6.00,6.04,3.90,0.79,0.80,1.63
24.16,-5.11,-6.75,-5.11,-6.75,6.00,6.02,4.01,0.89,0.89,1.64
24.40,-4.98,-6.62,-4.99,-6.62,6.00,6.00,4.12,1.02,1.01,1.64
24.65,-4.87,-6.50,-4.86,-6.49,6.00,5.97,4.24,1.13,1.14,1.63
24.89,-4.73,-6.36,-4.75,-6.38,6.00,5.95,4.35,1.27,1.25,1.63
25.14,-4.66,-6.29,-4.67,-6.30,6.00,5.92,4.47,1.34,1.33,1.63
25.39,-4.62,-6.25,-4.62,-6.25,6.01,5.89,4.59,1.38,1.39,1.63
25.65,-4.60,-6.21,-4.59,-6.21,6.01,5.86,4.71,1.41,1.42,1.62
25.91,-4.56,-6.16,-4.55,-6.16,6.01,5.83,4.83,1.45,1.45,1.61
26.16,-4.50,-6.11,-4.51,-6.11,6.00,5.80,4.95,1.50,1.49,1.61
26.43,-4.46,-6.06,-4.45,-6.06,5.99,5.76,5.07,1.53,1.54,1.61
26.69,-4.40,-6.00,-4.40,-6.00,5.97,5.73,5.19,1.57,1.57,1.61
26.96,-4.35,-5.94,-4.35,-5.95,5.94,5.69,5.31,1.60,1.59,1.59
27.23,-4.31,-5.90,-4.30,-5.90,5.91,5.65,5.42,1.60,1.60,1.59
27.50,-4.27,-5.86,-4.27,-5.86,5.86,5.61,5.54,1.59,1.59,1.59
27.77,-4.22,-5.81,-4.23,-5.81,5.81,5.57,5.64,1.58,1.58,1.58
28.05,-4.18,-5.77,-4.18,-5.76,5.75,5.53,5.75,1.56,1.57,1.58
28.33,-4.11,-5.69,-4.11,-5.69,5.69,5.49,5.85,1.57,1.57,1.57
28.62,-4.05,-5.62,-4.04,-5.61,5.62,5.44,5.94,1.58,1.58,1.57
28.90,-3.97,-5.53,-3.97,-5.54,5.56,5.40,6.03,1.60,1.59,1.57
29.19,-3.92,-5.48,-3.92,-5.49,5.50,5.35,6.11,1.58,1.58,1.57
29.48,-3.86,-5.44,-3.86,-5.44,5.43,5.31,6.18,1.57,1.57,1.58
29.78,-3.82,-5.38,-3.81,-5.39,5.37,5.26,6.24,1.55,1.56,1.57
30.08,-3.76,-5.33,-3.75,-5.32,5.31,5.21,6.29,1.55,1.55,1.58
30.38,-3.69,-5.24,-3.69,-5.24,5.25,5.16,6.33,1.56,1.56,1.55
30.68,-3.62,-5.17,-3.62,-5.17,5.18,5.11,6.37,1.57,1.57,1.55
30.99,-3.55,-5.09,-3.55,-5.10,5.12,5.06,6.39,1.57,1.56,1.54
31.30,-3.50,-5.04,-3.50,-5.04,5.04,5.01,6.40,1.55,1.54,1.54
31.61,-3.45,-4.99,-3.45,-4.98,4.96,4.96,6.40,1.52,1.52,1.54
31.93,-3.40,-4.91,-3.39,-4.91,4.88,4.91,6.39,1.49,1.49,1.52
32.24,-3.31,-4.82,-3.31,-4.82,4.80,4.85,6.36,1.49,1.49,1.51
32.57,-3.22,-4.72,-3.22,-4.72,4.72,4.80,6.33,1.50,1.50,1.51
32.89,-3.11,-4.61,-3.12,-4.62,4.64,4.75,6.29,1.52,1.51,1.49
33.22,-3.05,-4.52,-3.05,-4.53,4.55,4.69,6.24,1.51,1.50,1.47
33.55,-2.99,-4.47,-2.99,-4.46,4.47,4.64,6.18,1.47,1.48,1.47
33.89,-2.95,-4.39,-2.94,-4.39,4.39,4.58,6.11,1.44,1.45,1.45
34.23,-2.89,-4.33,-2.88,-4.33,4.31,4.53,6.03,1.42,1.43,1.45
34.57,-2.83,-4.25,-2.83,-4.26,4.24,4.47,5.94,1.42,1.42,1.43
34.92,-2.77,-4.18,-2.77,-4.19,4.19,4.42,5.85,1.42,1.42,1.41
35.27,-2.73,-4.14,-2.72,-4.12,4.14,4.36,5.76,1.42,1.43,1.41
35.62,-2.68,-4.07,-2.67,-4.06,4.10,4.31,5.66,1.43,1.43,1.39
35.97,-2.63,-4.00,-2.65,-4.03,4.06,4.25,5.56,1.43,1.41,1.38
36.33,-2.64,-4.01,-2.64,-4.01,4.01,4.19,5.45,1.38,1.37,1.38
36.70,-2.66,-4.02,-2.64,-4.01,3.97,4.14,5.34,1.31,1.32,1.36
37.06,-2.64,-4.00,-2.62,-3.98,3.92,4.08,5.23,1.28,1.30,1.35
37.43,-2.55,-3.91,-2.55,-3.90,3.88,4.02,5.12,1.32,1.32,1.36
37.81,-2.46,-3.80,-2.47,-3.82,3.83,3.97,5.01,1.38,1.36,1.35
38.19,-2.39,-3.72,-2.40,-3.74,3.78,3.91,4.89,1.39,1.38,1.33
38.57,-2.36,-3.70,-2.35,-3.69,3.72,3.85,4.78,1.36,1.37,1.34
38.95,-2.32,-3.65,-2.32,-3.65,3.65,3.80,4.67,1.33,1.33,1.33
39.34,-2.28,-3.61,-2.29,-3.61,3.59,3.74,4.56,1.30,1.30,1.32
39.74,-2.25,-3.56,-2.24,-3.56,3.53,3.68,4.45,1.28,1.29,1.31
40.14,-2.19,-3.49,-2.17,-3.48,3.48,3.62,4.34,1.29,1.30,1.31
40.54,-2.11,-3.41,-2.10,-3.41,3.43,3.57,4.24,1.32,1.32,1.31
40.94,-2.03,-3.33,-2.05,-3.35,3.37,3.51,4.14,1.35,1.32,1.30
41.35,-2.02,-3.30,-2.02,-3.31,3.32,3.45,4.03,1.30,1.29,1.29
41.76,-2.01,-3.29,-2.00,-3.28,3.26,3.40,3.94,1.24,1.26,1.27
42.18,-1.97,-3.25,-1.96,-3.23,3.21,3.34,3.84,1.23,1.25,1.27
42.60,-1.89,-3.15,-1.90,-3.16,3.16,3.28,3.74,1.26,1.26,1.26
43.03,-1.82,-3.07,-1.85,-3.09,3.11,3.23,3.65,1.29,1.26,1.25
43.46,-1.82,-3.04,-1.82,-3.05,3.05,3.17,3.56,1.24,1.23,1.23
43.90,-1.83,-3.03,-1.80,-3.01,2.99,3.11,3.48,1.17,1.19,1.20
44.33,-1.78,-2.97,-1.79,-2.97,2.94,3.06,3.39,1.15,1.15,1.19
44.78,-1.74,-2.90,-1.74,-2.90,2.89,3.00,3.31,1.16,1.15,1.16
45.23,-1.69,-2.83,-1.67,-2.82,2.85,2.95,3.24,1.16,1.18,1.15
45.68,-1.62,-2.75,-1.63,-2.76,2.81,2.89,3.16,1.19,1.18,1.13
46.13,-1.59,-2.70,-1.61,-2.73,2.76,2.84,3.09,1.18,1.15,1.12
46.60,-1.62,-2.74,-1.62,-2.73,2.72,2.78,3.02,1.09,1.10,1.11
47.06,-1.65,-2.75,-1.62,-2.72,2.67,2.73,2.95,1.03,1.05,1.11
47.53,-1.58,-2.69,-1.59,-2.69,2.63,2.67,2.88,1.05,1.04,1.10
48.01,-1.52,-2.61,-1.51,-2.60,2.60,2.62,2.82,1.08,1.09,1.09
48.49,-1.45,-2.52,-1.44,-2.52,2.56,2.56,2.76,1.12,1.12,1.08
48.97,-1.38,-2.44,-1.42,-2.48,2.53,2.51,2.70,1.15,1.11,1.06
49.46,-1.42,-2.47,-1.42,-2.47,2.48,2.46,2.64,1.07,1.07,1.05
49.96,-1.46,-2.49,-1.41,-2.46,2.44,2.41,2.59,0.99,1.03,1.04
50.46,-1.40,-2.44,-1.40,-2.44,2.40,2.35,2.53,1.01,1.01,1.05
50.96,-1.33,-2.37,-1.35,-2.38,2.37,2.30,2.48,1.05,1.02,1.04
51.47,-1.30,-2.33,-1.29,-2.33,2.34,2.25,2.43,1.05,1.05,1.03
51.99,-1.27,-2.29,-1.26,-2.29,2.31,2.20,2.38,1.04,1.04,1.02
52.51,-1.24,-2.26,-1.24,-2.26,2.26,2.15,2.34,1.03,1.02,1.02
53.03,-1.21,-2.23,-1.20,-2.22,2.21,2.10,2.29,1.01,1.01,1.03
53.56,-1.16,-2.17,-1.16,-2.17,2.16,2.06,2.25,1.00,1.00,1.02
54.10,-1.11,-2.11,-1.11,-2.12,2.11,2.01,2.20,1.00,1.00,1.01
54.64,-1.06,-2.06,-1.05,-2.05,2.06,1.96,2.16,1.00,1.01,1.01
55.18,-1.00,-1.99,-0.99,-1.99,2.00,1.92,2.12,1.01,1.01,1.00
55.74,-0.95,-1.93,-0.96,-1.94,1.95,1.88,2.08,1.00,0.99,0.99
56.29,-0.92,-1.90,-0.93,-1.90,1.89,1.84,2.04,0.98,0.97,0.98
56.86,-0.92,-1.88,-0.89,-1.85,1.85,1.80,2.00,0.93,0.96,0.96
57.42,-0.85,-1.81,-0.84,-1.80,1.80,1.76,1.96,0.95,0.96,0.95
58.00,-0.78,-1.71,-0.81,-1.75,1.77,1.73,1.92,0.99,0.95,0.94
58.58,-0.80,-1.72,-0.79,-1.72,1.74,1.70,1.88,0.94,0.94,0.93
59.16,-0.82,-1.73,-0.80,-1.71,1.71,1.67,1.84,0.90,0.91,0.91
59.76,-0.82,-1.70,-0.81,-1.70,1.69,1.64,1.80,0.88,0.88,0.89
60.35,-0.82,-1.68,-0.81,-1.68,1.68,1.62,1.76,0.86,0.86,0.86
60.96,-0.82,-1.66,-0.83,-1.67,1.66,1.61,1.72,0.85,0.83,0.84
61.57,-0.87,-1.66,-0.86,-1.66,1.66,1.60,1.67,0.79,0.79,0.80
62.18,-0.92,-1.67,-0.90,-1.66,1.65,1.59,1.63,0.74,0.75,0.76
62.80,-0.94,-1.66,-0.93,-1.66,1.65,1.59,1.59,0.72,0.72,0.72
63.43,-0.96,-1.64,-0.96,-1.65,1.65,1.60,1.54,0.70,0.69,0.69
64.07,-0.99,-1.64,-0.99,-1.64,1.66,1.61,1.50,0.67,0.67,0.65
64.71,-1.05,-1.66,-1.04,-1.66,1.67,1.63,1.46,0.62,0.62,0.61
65.35,-1.11,-1.69,-1.10,-1.68,1.68,1.65,1.41,0.58,0.58,0.58
66.01,-1.17,-1.71,-1.16,-1.71,1.70,1.68,1.36,0.53,0.54,0.55
66.67,-1.22,-1.72,-1.21,-1.72,1.72,1.70,1.31,0.51,0.51,0.51
67.33,-1.26,-1.73,-1.26,-1.73,1.75,1.73,1.27,0.50,0.49,0.48
68.01,-1.31,-1.74,-1.32,-1.75,1.78,1.75,1.22,0.47,0.46,0.44
68.69,-1.39,-1.78,-1.38,-1.77,1.80,1.76,1.17,0.41,0.42,0.40
69.37,-1.45,-1.80,-1.45,-1.80,1.80,1.75,1.12,0.36,0.35,0.36
70.07,-1.50,-1.81,-1.51,-1.82,1.79,1.73,1.07,0.29,0.28,0.31
70.77,-1.55,-1.83,-1.52,-1.80,1.75,1.68,1.01,0.21,0.24,0.28
71.48,-1.51,-1.74,-1.50,-1.74,1.70,1.61,0.96,0.20,0.20,0.24
72.19,-1.43,-1.62,-1.46,-1.65,1.63,1.52,0.91,0.20,0.17,0.19
72.91,-1.39,-1.54,-1.38,-1.53,1.53,1.41,0.86,0.14,0.15,0.14
73.64,-1.31,-1.41,-1.30,-1.39,1.41,1.29,0.80,0.10,0.12,0.10
74.38,-1.21,-1.26,-1.22,-1.27,1.28,1.15,0.75,0.07,0.06,0.05
75.12,-1.11,-1.11,-1.13,-1.14,1.13,1.01,0.69,0.03,0.01,0.00
75.87,-1.06,-1.03,-1.03,-1.00,0.99,0.87,0.64,-0.08,-0.04,-0.03
76.63,-0.92,-0.86,-0.92,-0.85,0.84,0.74,0.58,-0.08,-0.08,-0.07
77.40,-0.80,-0.69,-0.81,-0.70,0.70,0.61,0.53,-0.09,-0.11,-0.11
78.17,-0.69,-0.54,-0.69,-0.55,0.57,0.48,0.47,-0.11,-0.12,-0.15
78.95,-0.61,-0.44,-0.60,-0.42,0.45,0.37,0.42,-0.16,-0.15,-0.17
79.74,-0.51,-0.31,-0.52,-0.31,0.33,0.26,0.36,-0.18,-0.18,-0.20
80.54,-0.45,-0.21,-0.47,-0.23,0.23,0.16,0.31,-0.22,-0.24,-0.23
81.35,-0.42,-0.15,-0.41,-0.15,0.13,0.06,0.25,-0.28,-0.28,-0.27
82.16,-0.40,-0.10,-0.35,-0.06,0.05,-0.02,0.19,-0.35,-0.30,-0.30
82.98,-0.27,0.05,-0.29,0.03,-0.03,-0.10,0.14,-0.30,-0.32,-0.32
83.81,-0.22,0.15,-0.24,0.12,-0.11,-0.17,0.08,-0.32,-0.35,-0.36
84.65,-0.22,0.18,-0.20,0.19,-0.18,-0.24,0.03,-0.40,-0.39,-0.39
85.50,-0.20,0.22,-0.19,0.23,-0.26,-0.30,-0.03,-0.45,-0.45,-0.42
86.35,-0.16,0.30,-0.14,0.31,-0.33,-0.36,-0.09,-0.48,-0.47,-0.45
87.22,-0.09,0.40,-0.08,0.40,-0.40,-0.42,-0.15,-0.48,-0.48,-0.49
88.09,-0.01,0.51,-0.03,0.48,-0.46,-0.47,-0.20,-0.46,-0.49,-0.52
88.97,-0.01,0.54,-0.01,0.54,-0.52,-0.52,-0.26,-0.53,-0.53,-0.55
89.86,-0.01,0.58,0.00,0.58,-0.58,-0.57,-0.32,-0.59,-0.58,-0.58
90.76,-0.01,0.61,0.02,0.63,-0.65,-0.61,-0.38,-0.65,-0.63,-0.62
91.66,0.05,0.70,0.04,0.69,-0.71,-0.66,-0.44,-0.66,-0.67,-0.64
92.58,0.09,0.78,0.07,0.75,-0.77,-0.70,-0.50,-0.67,-0.69,-0.68
93.51,0.09,0.80,0.11,0.82,-0.82,-0.74,-0.56,-0.73,-0.71,-0.71
94.44,0.13,0.87,0.15,0.88,-0.87,-0.78,-0.62,-0.74,-0.73,-0.74
95.39,0.19,0.96,0.17,0.94,-0.92,-0.82,-0.68,-0.73,-0.75,-0.76
96.34,0.19,1.00,0.19,0.99,-0.97,-0.86,-0.74,-0.77,-0.77,-0.80
97.30,0.18,1.01,0.19,1.02,-1.01,-0.90,-0.80,-0.82,-0.81,-0.83
98.28,0.18,1.04,0.17,1.03,-1.04,-0.93,-0.86,-0.86,-0.87,-0.86
99.26,0.16,1.04,0.18,1.06,-1.08,-0.97,-0.92,-0.91,-0.90,-0.88
100.25,0.17,1.08,0.19,1.09,-1.11,-1.01,-0.97,-0.94,-0.92,-0.91
101.25,0.22,1.16,0.20,1.14,-1.15,-1.05,-1.03,-0.92,-0.95,-0.94
102.27,0.21,1.18,0.21,1.18,-1.19,-1.08,-1.09,-0.97,-0.98,-0.97
103.29,0.20,1.22,0.22,1.23,-1.22,-1.12,-1.15,-1.02,-1.00,-1.01
104.32,0.21,1.25,0.23,1.26,-1.25,-1.16,-1.21,-1.04,-1.03,-1.03
105.37,0.25,1.33,0.24,1.31,-1.29,-1.20,-1.27,-1.03,-1.05,-1.07
106.42,0.23,1.34,0.23,1.34,-1.32,-1.24,-1.33,-1.08,-1.08,-1.10
107.48,0.21,1.36,0.22,1.36,-1.35,-1.27,-1.38,-1.13,-1.13,-1.14
108.56,0.18,1.37,0.18,1.36,-1.38,-1.31,-1.44,-1.20,-1.20,-1.18
109.64,0.16,1.39,0.16,1.38,-1.41,-1.35,-1.49,-1.25,-1.25,-1.22
110.74,0.14,1.39,0.17,1.42,-1.45,-1.39,-1.54,-1.30,-1.28,-1.25
111.85,0.18,1.46,0.18,1.47,-1.48,-1.43,-1.59,-1.30,-1.30,-1.28
112.97,0.22,1.55,0.21,1.52,-1.51,-1.47,-1.64,-1.28,-1.30,-1.33
114.10,0.21,1.56,0.22,1.57,-1.54,-1.50,-1.69,-1.32,-1.31,-1.35
115.24,0.21,1.60,0.21,1.60,-1.56,-1.54,-1.73,-1.35,-1.35,-1.38
116.39,0.19,1.61,0.18,1.60,-1.59,-1.58,-1.77,-1.39,-1.40,-1.41
117.55,0.15,1.59,0.16,1.60,-1.61,-1.62,-1.81,-1.45,-1.45,-1.44
118.73,0.12,1.59,0.14,1.60,-1.62,-1.66,-1.84,-1.49,-1.48,-1.47
119.92,0.13,1.61,0.13,1.61,-1.63,-1.70,-1.88,-1.50,-1.50,-1.47
121.12,0.13,1.64,0.13,1.63,-1.64,-1.73,-1.91,-1.51,-1.51,-1.50
122.33,0.14,1.66,0.15,1.66,-1.66,-1.77,-1.93,-1.51,-1.51,-1.52
123.55,0.15,1.68,0.15,1.68,-1.68,-1.81,-1.96,-1.53,-1.53,-1.52
124.79,0.16,1.71,0.16,1.71,-1.71,-1.84,-1.98,-1.54,-1.55,-1.55
126.03,0.16,1.73,0.17,1.73,-1.74,-1.88,-1.99,-1.57,-1.57,-1.56
127.29,0.17,1.75,0.17,1.76,-1.76,-1.92,-2.01,-1.59,-1.59,-1.58
128.57,0.18,1.79,0.18,1.78,-1.78,-1.95,-2.02,-1.59,-1.59,-1.60
129.85,0.18,1.80,0.19,1.81,-1.79,-1.99,-2.03,-1.60,-1.59,-1.62
131.15,0.19,1.82,0.19,1.82,-1.80,-2.02,-2.03,-1.60,-1.60,-1.63
132.46,0.19,1.84,0.17,1.81,-1.80,-2.05,-2.03,-1.61,-1.63,-1.64
133.79,0.13,1.78,0.14,1.80,-1.81,-2.08,-2.03,-1.68,-1.67,-1.64
135.12,0.10,1.78,0.12,1.78,-1.81,-2.12,-2.03,-1.71,-1.69,-1.67
136.48,0.10,1.78,0.10,1.78,-1.81,-2.15,-2.02,-1.71,-1.71,-1.68
137.84,0.11,1.81,0.12,1.82,-1.81,-2.18,-2.02,-1.69,-1.69,-1.70
139.22,0.11,1.84,0.11,1.83,-1.80,-2.20,-2.01,-1.69,-1.69,-1.73
140.61,0.11,1.86,0.09,1.83,-1.80,-2.23,-2.00,-1.69,-1.71,-1.74
142.02,0.04,1.79,0.06,1.81,-1.80,-2.26,-1.98,-1.76,-1.74,-1.74
143.44,0.02,1.79,0.03,1.80,-1.81,-2.28,-1.97,-1.79,-1.78,-1.76
144.87,0.01,1.80,0.01,1.80,-1.82,-2.30,-1.96,-1.81,-1.81,-1.79
146.32,0.01,1.83,0.01,1.83,-1.84,-2.32,-1.94,-1.83,-1.83,-1.82
147.78,0.01,1.86,0.01,1.86,-1.87,-2.34,-1.92,-1.85,-1.85,-1.84
149.26,0.01,1.89,0.01,1.90,-1.90,-2.36,-1.91,-1.89,-1.89,-1.88
150.75,0.01,1.95,0.01,1.94,-1.95,-2.38,-1.89,-1.94,-1.94,-1.93
152.26,0.01,1.99,0.01,1.99,-2.00,-2.40,-1.88,-1.98,-1.98,-1.98
153.78,0.01,2.04,0.02,2.05,-2.05,-2.41,-1.86,-2.03,-2.02,-2.03
155.32,0.01,2.11,0.02,2.11,-2.09,-2.42,-1.85,-2.07,-2.07,-2.09
156.88,0.01,2.16,-0.01,2.15,-2.12,-2.43,-1.83,-2.10,-2.13,-2.15
158.44,-0.06,2.16,-0.05,2.16,-2.14,-2.44,-1.82,-2.20,-2.20,-2.22
160.03,-0.12,2.16,-0.11,2.17,-2.16,-2.45,-1.81,-2.28,-2.27,-2.28
161.63,-0.18,2.16,-0.17,2.17,-2.18,-2.45,-1.79,-2.35,-2.34,-2.33
163.24,-0.20,2.20,-0.21,2.17,-2.18,-2.46,-1.78,-2.38,-2.39,-2.39
164.88,-0.26,2.17,-0.25,2.17,-2.19,-2.46,-1.77,-2.44,-2.44,-2.42
166.53,-0.29,2.17,-0.28,2.18,-2.19,-2.46,-1.76,-2.48,-2.47,-2.46
168.19,-0.31,2.18,-0.30,2.19,-2.19,-2.46,-1.76,-2.50,-2.50,-2.49
169.87,-0.31,2.21,-0.31,2.20,-2.20,-2.45,-1.75,-2.51,-2.51,-2.52
171.57,-0.32,2.22,-0.32,2.22,-2.21,-2.45,-1.75,-2.52,-2.52,-2.53
173.29,-0.33,2.22,-0.32,2.22,-2.21,-2.44,-1.74,-2.54,-2.53,-2.54
175.02,-0.33,2.22,-0.33,2.22,-2.21,-2.44,-1.74,-2.54,-2.54,-2.55
176.77,-0.34,2.22,-0.33,2.22,-2.22,-2.43,-1.74,-2.55,-2.55,-2.55
178.54,-0.34,2.22,-0.33,2.22,-2.22,-2.42,-1.74,-2.55,-2.55,-2.56
180.32,-0.33,2.22,-0.33,2.22,-2.22,-2.40,-1.74,-2.55,-2.55,-2.54
182.13,-0.33,2.21,-0.32,2.22,-2.23,-2.39,-1.75,-2.55,-2.55,-2.54
183.95,-0.32,2.23,-0.32,2.23,-2.24,-2.38,-1.75,-2.55,-2.55,-2.54
185.79,-0.31,2.24,-0.30,2.25,-2.25,-2.36,-1.76,-2.56,-2.55,-2.55
187.65,-0.29,2.28,-0.29,2.27,-2.27,-2.34,-1.76,-2.56,-2.56,-2.56
189.52,-0.27,2.30,-0.27,2.30,-2.30,-2.33,-1.77,-2.56,-2.57,-2.56
191.42,-0.26,2.32,-0.25,2.32,-2.33,-2.31,-1.78,-2.58,-2.58,-2.58
193.33,-0.25,2.34,-0.24,2.35,-2.36,-2.29,-1.79,-2.60,-2.60,-2.59
195.27,-0.23,2.37,-0.23,2.37,-2.38,-2.27,-1.81,-2.61,-2.61,-2.60
197.22,-0.22,2.41,-0.21,2.41,-2.40,-2.24,-1.82,-2.62,-2.62,-2.62
199.19,-0.21,2.44,-0.20,2.43,-2.41,-2.22,-1.84,-2.62,-2.61,-2.64
201.18,-0.20,2.46,-0.20,2.45,-2.41,-2.20,-1.85,-2.61,-2.62,-2.65
203.19,-0.23,2.44,-0.23,2.44,-2.41,-2.17,-1.87,-2.64,-2.64,-2.66
205.23,-0.27,2.43,-0.28,2.41,-2.40,-2.15,-1.88,-2.67,-2.68,-2.69
207.28,-0.35,2.35,-0.33,2.37,-2.40,-2.12,-1.90,-2.74,-2.73,-2.69
209.35,-0.39,2.34,-0.37,2.35,-2.39,-2.10,-1.92,-2.78,-2.76,-2.72
211.44,-0.40,2.34,-0.40,2.34,-2.38,-2.07,-1.93,-2.78,-2.78,-2.74
213.56,-0.40,2.35,-0.40,2.35,-2.37,-2.05,-1.95,-2.76,-2.77,-2.75
215.69,-0.41,2.35,-0.40,2.36,-2.34,-2.02,-1.97,-2.75,-2.74,-2.76
217.85,-0.41,2.36,-0.40,2.37,-2.32,-1.99,-1.99,-2.72,-2.72,-2.77
220.03,-0.42,2.37,-0.43,2.35,-2.29,-1.96,-2.00,-2.70,-2.72,-2.78
222.23,-0.49,2.30,-0.50,2.29,-2.25,-1.94,-2.02,-2.74,-2.75,-2.79
224.45,-0.59,2.19,-0.58,2.20,-2.22,-1.91,-2.03,-2.80,-2.80,-2.78
226.70,-0.68,2.10,-0.66,2.12,-2.17,-1.88,-2.05,-2.85,-2.83,-2.77
228.96,-0.71,2.07,-0.70,2.07,-2.12,-1.86,-2.06,-2.82,-2.82,-2.77
231.25,-0.71,2.05,-0.71,2.05,-2.07,-1.83,-2.07,-2.77,-2.77,-2.76
233.57,-0.70,2.05,-0.68,2.06,-2.02,-1.80,-2.08,-2.72,-2.71,-2.74
235.90,-0.68,2.05,-0.70,2.02,-1.99,-1.77,-2.08,-2.67,-2.70,-2.73
238.26,-0.71,2.00,-0.74,1.97,-1.97,-1.75,-2.09,-2.68,-2.71,-2.71
240.64,-0.83,1.86,-0.76,1.92,-1.95,-1.72,-2.09,-2.77,-2.71,-2.68
243.05,-0.77,1.88,-0.76,1.89,-1.92,-1.69,-2.09,-2.68,-2.68,-2.65
245.48,-0.72,1.91,-0.73,1.90,-1.88,-1.67,-2.09,-2.60,-2.61,-2.62
247.93,-0.69,1.91,-0.70,1.90,-1.84,-1.64,-2.08,-2.53,-2.54,-2.60
250.41,-0.71,1.88,-0.73,1.84,-1.80,-1.61,-2.08,-2.51,-2.54,-2.58
252.92,-0.82,1.73,-0.78,1.77,-1.77,-1.59,-2.07,-2.58,-2.55,-2.55
255.45,-0.84,1.68,-0.82,1.70,-1.74,-1.56,-2.06,-2.57,-2.56,-2.52
258.00,-0.84,1.67,-0.84,1.66,-1.70,-1.54,-2.04,-2.54,-2.54,-2.50
260.58,-0.83,1.66,-0.83,1.65,-1.67,-1.51,-2.02,-2.49,-2.50,-2.49
263.19,-0.83,1.64,-0.82,1.64,-1.63,-1.49,-2.00,-2.46,-2.46,-2.46
265.82,-0.83,1.62,-0.82,1.62,-1.61,-1.46,-1.98,-2.43,-2.43,-2.45
268.48,-0.83,1.59,-0.83,1.59,-1.59,-1.44,-1.96,-2.41,-2.42,-2.42
271.16,-0.84,1.56,-0.83,1.57,-1.57,-1.42,-1.93,-2.40,-2.40,-2.39
273.87,-0.84,1.54,-0.83,1.54,-1.54,-1.39,-1.90,-2.38,-2.38,-2.38
276.61,-0.84,1.51,-0.83,1.52,-1.51,-1.37,-1.87,-2.35,-2.34,-2.35
279.38,-0.84,1.49,-0.83,1.50,-1.47,-1.35,-1.84,-2.31,-2.30,-2.32
282.17,-0.84,1.47,-0.85,1.45,-1.43,-1.33,-1.81,-2.27,-2.28,-2.31
284.99,-0.86,1.41,-0.87,1.40,-1.39,-1.30,-1.78,-2.25,-2.27,-2.27
287.84,-0.93,1.32,-0.90,1.34,-1.36,-1.28,-1.74,-2.28,-2.26,-2.24
290.72,-0.92,1.29,-0.91,1.29,-1.32,-1.26,-1.71,-2.24,-2.23,-2.20
293.63,-0.90,1.28,-0.91,1.27,-1.29,-1.24,-1.67,-2.18,-2.20,-2.18
296.57,-0.89,1.25,-0.89,1.26,-1.26,-1.22,-1.64,-2.15,-2.15,-2.14
299.53,-0.88,1.25,-0.87,1.24,-1.24,-1.20,-1.60,-2.11,-2.11,-2.12
302.53,-0.87,1.23,-0.87,1.22,-1.22,-1.18,-1.56,-2.08,-2.08,-2.09
305.55,-0.86,1.20,-0.85,1.21,-1.20,-1.16,-1.53,-2.06,-2.06,-2.06
308.61,-0.85,1.19,-0.85,1.19,-1.19,-1.15,-1.49,-2.04,-2.04,-2.04
311.69,-0.84,1.19,-0.84,1.17,-1.18,-1.13,-1.45,-2.01,-2.01,-2.02
314.81,-0.84,1.15,-0.83,1.16,-1.16,-1.11,-1.42,-2.00,-1.99,-1.98
317.96,-0.83,1.15,-0.83,1.15,-1.14,-1.09,-1.38,-1.97,-1.97,-1.97
321.14,-0.83,1.13,-0.83,1.13,-1.13,-1.08,-1.34,-1.96,-1.96,-1.96
324.35,-0.83,1.12,-0.83,1.12,-1.12,-1.06,-1.31,-1.95,-1.95,-1.95
327.59,-0.84,1.09,-0.83,1.10,-1.11,-1.04,-1.28,-1.95,-1.94,-1.93
330.87,-0.84,1.09,-0.83,1.09,-1.10,-1.03,-1.24,-1.93,-1.93,-1.92
334.18,-0.84,1.08,-0.84,1.08,-1.08,-1.01,-1.21,-1.92,-1.92,-1.91
337.52,-0.84,1.07,-0.83,1.07,-1.06,-1.00,-1.18,-1.89,-1.89,-1.90
340.90,-0.84,1.05,-0.83,1.06,-1.03,-0.98,-1.14,-1.86,-1.86,-1.89
344.30,-0.84,1.04,-0.85,1.02,-0.99,-0.97,-1.11,-1.83,-1.84,-1.88
347.75,-0.90,0.97,-0.89,0.98,-0.96,-0.96,-1.08,-1.85,-1.85,-1.87
351.23,-0.95,0.91,-0.95,0.91,-0.92,-0.94,-1.05,-1.87,-1.87,-1.86
354.74,-1.01,0.86,-1.00,0.86,-0.89,-0.93,-1.03,-1.90,-1.89,-1.86
358.28,-1.04,0.82,-1.02,0.83,-0.86,-0.92,-1.00,-1.90,-1.89,-1.85
361.87,-1.03,0.83,-1.03,0.82,-0.84,-0.90,-0.97,-1.87,-1.87,-1.85
365.49,-1.02,0.83,-1.02,0.82,-0.83,-0.89,-0.95,-1.84,-1.85,-1.84
369.14,-1.02,0.83,-1.01,0.84,-0.82,-0.88,-0.92,-1.84,-1.84,-1.85
372.83,-1.01,0.84,-1.00,0.84,-0.83,-0.87,-0.90,-1.84,-1.83,-1.85
376.56,-1.00,0.85,-1.00,0.84,-0.84,-0.86,-0.87,-1.84,-1.84,-1.85
380.33,-0.99,0.84,-0.99,0.85,-0.85,-0.84,-0.85,-1.84,-1.84,-1.83
384.13,-0.99,0.85,-0.98,0.86,-0.86,-0.83,-0.83,-1.84,-1.84,-1.84
387.97,-0.98,0.86,-0.98,0.86,-0.86,-0.82,-0.81,-1.83,-1.84,-1.84
391.85,-0.98,0.87,-0.97,0.87,-0.85,-0.81,-0.78,-1.83,-1.83,-1.84
395.77,-0.98,0.86,-0.97,0.86,-0.84,-0.80,-0.76,-1.82,-1.81,-1.83
399.73,-0.98,0.86,-0.99,0.85,-0.83,-0.79,-0.75,-1.80,-1.82,-1.83
403.72,-1.02,0.83,-1.02,0.82,-0.81,-0.78,-0.73,-1.83,-1.83,-1.84
407.76,-1.07,0.78,-1.05,0.79,-0.80,-0.77,-0.71,-1.87,-1.85,-1.84
411.84,-1.09,0.75,-1.08,0.76,-0.79,-0.76,-0.69,-1.87,-1.87,-1.83
415.96,-1.09,0.76,-1.09,0.75,-0.78,-0.75,-0.67,-1.87,-1.87,-1.84
420.12,-1.09,0.76,-1.08,0.76,-0.77,-0.74,-0.66,-1.86,-1.86,-1.85
424.32,-1.08,0.76,-1.08,0.76,-0.76,-0.73,-0.64,-1.84,-1.84,-1.84
428.56,-1.07,0.77,-1.06,0.77,-0.75,-0.72,-0.63,-1.82,-1.81,-1.84
432.85,-1.06,0.76,-1.05,0.77,-0.74,-0.71,-0.61,-1.79,-1.79,-1.82
437.18,-1.03,0.77,-1.04,0.75,-0.72,-0.70,-0.60,-1.75,-1.76,-1.80
441.55,-1.05,0.71,-1.04,0.72,-0.70,-0.70,-0.59,-1.75,-1.75,-1.76
445.96,-1.05,0.68,-1.06,0.67,-0.69,-0.69,-0.57,-1.73,-1.74,-1.73
450.42,-1.08,0.62,-1.06,0.63,-0.67,-0.68,-0.56,-1.74,-1.72,-1.70
454.93,-1.04,0.60,-1.03,0.62,-0.65,-0.67,-0.55,-1.69,-1.68,-1.64
459.48,-0.98,0.62,-0.98,0.61,-0.64,-0.66,-0.54,-1.61,-1.62,-1.60
464.07,-0.92,0.63,-0.92,0.63,-0.62,-0.65,-0.52,-1.54,-1.54,-1.54
468.71,-0.87,0.63,-0.85,0.64,-0.62,-0.64,-0.51,-1.48,-1.47,-1.49
