frequency,raw,error,smoothed,error_smoothed,equalization,parametric_eq,fixed_band_eq,equalized_raw,equalized_smoothed,target
20.00,16.38,14.42,16.38,14.42,-14.42,-12.31,-6.62,1.96,1.96,1.96
20.20,16.35,14.42,16.34,14.41,-14.41,-12.31,-6.78,1.94,1.93,1.93
20.40,16.31,14.40,16.31,14.40,-14.40,-12.30,-6.94,1.91,1.91,1.91
20.61,16.28,14.39,16.28,14.39,-14.39,-12.30,-7.10,1.89,1.89,1.89
20.81,16.25,14.38,16.24,14.37,-14.38,-12.30,-7.27,1.87,1.87,1.87
21.02,16.22,14.37,16.21,14.36,-14.36,-12.30,-7.44,1.85,1.85,1.85
21.23,16.18,14.35,16.18,14.35,-14.35,-12.30,-7.61,1.83,1.83,1.83
21.44,16.15,14.34,16.14,14.33,-14.33,-12.29,-7.80,1.81,1.81,1.81
21.66,16.11,14.32,16.11,14.32,-14.32,-12.29,-7.98,1.79,1.79,1.79
21.87,16.08,14.30,16.07,14.30,-14.30,-12.29,-8.17,1.78,1.78,1.78
22.09,16.04,14.28,16.04,14.28,-14.28,-12.29,-8.36,1.76,1.76,1.76
22.31,16.01,14.26,16.00,14.25,-14.25,-12.28,-8.57,1.75,1.75,1.75
22.54,15.97,14.23,15.97,14.23,-14.23,-12.28,-8.77,1.74,1.74,1.74
22.76,15.94,14.21,15.93,14.20,-14.20,-12.28,-8.98,1.73,1.73,1.73
22.99,15.90,14.18,15.90,14.18,-14.18,-12.28,-9.20,1.72,1.72,1.72
23.22,15.86,14.15,15.86,14.15,-14.15,-12.27,-9.42,1.71,1.71,1.71
23.45,15.83,14.13,15.82,14.12,-14.12,-12.27,-9.65,1.70,1.70,1.70
23.69,15.79,14.10,15.79,14.09,-14.09,-12.27,-9.89,1.70,1.69,1.69
23.92,15.75,14.06,15.75,14.06,-14.06,-12.26,-10.13,1.68,1.69,1.69
24.16,15.72,14.04,15.71,14.03,-14.03,-12.26,-10.38,1.68,1.68,1.68
24.40,15.68,14.00,15.68,14.00,-14.00,-12.26,-10.63,1.67,1.67,1.68
24.65,15.64,13.97,15.64,13.97,-13.97,-12.25,-10.89,1.67,1.67,1.67
24.89,15.61,13.94,15.60,13.94,-13.94,-12.25,-11.15,1.67,1.67,1.67
25.14,15.57,13.91,15.57,13.91,-13.90,-12.25,-11.43,1.66,1.66,1.66
25.39,15.53,13.88,15.53,13.87,-13.87,-12.24,-11.70,1.66,1.66,1.65
25.65,15.49,13.84,15.48,13.84,-13.83,-12.24,-11.99,1.65,1.65,1.65
25.91,15.44,13.80,15.44,13.80,-13.80,-12.23,-12.28,1.64,1.64,1.64
26.16,15.40,13.76,15.40,13.76,-13.76,-12.23,-12.58,1.63,1.64,1.64
26.43,15.36,13.72,15.36,13.72,-13.72,-12.22,-12.87,1.63,1.63,1.64
26.69,15.32,13.69,15.32,13.68,-13.68,-12.22,-13.18,1.63,1.63,1.63
26.96,15.28,13.65,15.28,13.65,-13.65,-12.21,-13.49,1.63,1.63,1.63
27.23,15.24,13.62,15.23,13.61,-13.61,-12.21,-13.79,1.63,1.62,1.62
27.50,15.19,13.57,15.19,13.57,-13.57,-12.20,-14.10,1.62,1.62,1.62
27.77,15.15,13.53,15.15,13.53,-13.53,-12.20,-14.41,1.61,1.62,1.62
28.05,15.11,13.50,15.10,13.49,-13.49,-12.19,-14.72,1.61,1.61,1.61
28.33,15.07,13.46,15.06,13.45,-13.45,-12.19,-15.01,1.61,1.61,1.61
28.62,15.02,13.41,15.02,13.41,-13.41,-12.18,-15.30,1.61,1.61,1.61
28.90,14.98,13.38,14.97,13.37,-13.37,-12.17,-15.58,1.61,1.60,1.60
29.19,14.93,13.33,14.93,13.33,-13.33,-12.17,-15.84,1.60,1.60,1.60
29.48,14.89,13.29,14.88,13.28,-13.28,-12.16,-16.08,1.60,1.60,1.60
29.78,14.84,13.24,14.84,13.24,-13.24,-12.15,-16.30,1.60,1.60,1.60
30.08,14.80,13.20,14.79,13.20,-13.19,-12.15,-16.48,1.60,1.60,1.60
30.38,14.75,13.16,14.74,13.15,-13.15,-12.14,-16.65,1.60,1.59,1.59
30.68,14.69,13.10,14.69,13.10,-13.10,-12.13,-16.76,1.58,1.59,1.59
30.99,14.64,13.05,14.64,13.05,-13.05,-12.12,-16.85,1.58,1.59,1.59
31.30,14.60,13.01,14.59,13.01,-13.01,-12.11,-16.88,1.59,1.58,1.59
31.61,14.55,12.97,14.55,12.96,-12.96,-12.11,-16.90,1.58,1.58,1.58
31.93,14.50,12.92,14.50,12.92,-12.91,-12.10,-16.85,1.58,1.58,1.58
32.24,14.45,12.87,14.45,12.87,-12.87,-12.09,-16.79,1.58,1.58,1.58
32.57,14.40,12.83,14.40,12.82,-12.82,-12.08,-16.67,1.57,1.57,1.57
32.89,14.35,12.78,14.34,12.77,-12.78,-12.07,-16.55,1.57,1.57,1.57
33.22,14.30,12.73,14.30,12.73,-12.73,-12.06,-16.38,1.56,1.57,1.57
33.55,14.25,12.69,14.25,12.68,-12.68,-12.05,-16.19,1.56,1.56,1.56
33.89,14.21,12.65,14.20,12.64,-12.64,-12.03,-15.99,1.57,1.56,1.56
34.23,14.15,12.59,14.15,12.59,-12.59,-12.02,-15.77,1.56,1.56,1.56
34.57,14.10,12.55,14.09,12.54,-12.54,-12.01,-15.54,1.55,1.55,1.55
34.92,14.04,12.49,14.04,12.49,-12.49,-12.00,-15.30,1.54,1.55,1.55
35.27,13.99,12.44,13.99,12.44,-12.44,-11.98,-15.06,1.54,1.54,1.55
35.62,13.94,12.40,13.94,12.39,-12.39,-11.97,-14.81,1.54,1.54,1.54
35.97,13.89,12.35,13.89,12.34,-12.34,-11.96,-14.57,1.54,1.54,1.54
36.33,13.84,12.30,13.83,12.29,-12.29,-11.94,-14.33,1.55,1.54,1.54
36.70,13.78,12.24,13.78,12.24,-12.24,-11.92,-14.09,1.54,1.54,1.54
37.06,13.73,12.19,13.72,12.19,-12.19,-11.91,-13.85,1.54,1.53,1.54
37.43,13.67,12.14,13.67,12.13,-12.14,-11.89,-13.62,1.53,1.53,1.53
37.81,13.62,12.09,13.62,12.09,-12.09,-11.87,-13.40,1.53,1.53,1.53
38.19,13.57,12.04,13.57,12.04,-12.04,-11.86,-13.18,1.53,1.53,1.53
38.57,13.52,12.00,13.52,11.99,-11.99,-11.84,-12.97,1.53,1.52,1.52
38.95,13.47,11.95,13.46,11.95,-11.94,-11.82,-12.77,1.52,1.52,1.52
39.34,13.41,11.90,13.41,11.90,-11.90,-11.80,-12.57,1.51,1.51,1.51
39.74,13.36,11.85,13.35,11.85,-11.85,-11.78,-12.38,1.51,1.51,1.51
40.14,13.30,11.80,13.30,11.80,-11.80,-11.76,-12.20,1.50,1.50,1.50
40.54,13.25,11.75,13.25,11.75,-11.75,-11.73,-12.03,1.50,1.50,1.50
40.94,13.20,11.70,13.20,11.70,-11.70,-11.71,-11.87,1.50,1.50,1.50
41.35,13.15,11.65,13.15,11.65,-11.64,-11.68,-11.71,1.50,1.50,1.50
41.76,13.10,11.60,13.09,11.59,-11.59,-11.66,-11.56,1.51,1.50,1.50
42.18,13.04,11.54,13.04,11.54,-11.53,-11.63,-11.42,1.50,1.50,1.50
42.60,12.98,11.48,12.98,11.48,-11.48,-11.60,-11.29,1.50,1.50,1.50
43.03,12.93,11.42,12.92,11.42,-11.42,-11.58,-11.16,1.51,1.50,1.51
43.46,12.87,11.36,12.87,11.36,-11.36,-11.55,-11.05,1.51,1.51,1.51
43.90,12.82,11.31,12.81,11.30,-11.30,-11.51,-10.94,1.51,1.51,1.51
44.33,12.76,11.25,12.75,11.24,-11.24,-11.48,-10.83,1.51,1.51,1.51
44.78,12.70,11.19,12.70,11.19,-11.19,-11.45,-10.74,1.51,1.51,1.51
45.23,12.64,11.13,12.64,11.13,-11.13,-11.41,-10.65,1.51,1.51,1.51
45.68,12.59,11.08,12.58,11.07,-11.08,-11.38,-10.56,1.51,1.51,1.51
46.13,12.53,11.02,12.53,11.02,-11.02,-11.34,-10.49,1.51,1.51,1.51
46.60,12.48,10.97,12.47,10.96,-10.97,-11.30,-10.42,1.51,1.51,1.51
47.06,12.42,10.91,12.42,10.91,-10.91,-11.26,-10.36,1.50,1.51,1.51
47.53,12.37,10.87,12.36,10.86,-10.86,-11.22,-10.30,1.51,1.51,1.50
48.01,12.31,10.81,12.31,10.81,-10.81,-11.17,-10.25,1.50,1.50,1.50
48.49,12.26,10.76,12.25,10.75,-10.75,-11.12,-10.20,1.51,1.50,1.50
48.97,12.20,10.70,12.20,10.70,-10.70,-11.08,-10.16,1.50,1.50,1.50
49.46,12.14,10.64,12.14,10.64,-10.64,-11.03,-10.13,1.50,1.50,1.50
49.96,12.09,10.59,12.08,10.58,-10.58,-10.98,-10.10,1.50,1.50,1.50
50.46,12.03,10.53,12.03,10.52,-10.53,-10.92,-10.08,1.50,1.50,1.50
50.96,11.97,10.47,11.97,10.47,-10.47,-10.87,-10.05,1.50,1.50,1.50
51.47,11.92,10.41,11.92,10.41,-10.41,-10.81,-10.04,1.50,1.50,1.51
51.99,11.87,10.36,11.86,10.35,-10.36,-10.75,-10.02,1.51,1.51,1.51
52.51,11.81,10.30,11.81,10.30,-10.30,-10.69,-10.01,1.51,1.51,1.51
53.03,11.76,10.25,11.76,10.25,-10.25,-10.62,-10.00,1.51,1.51,1.51
53.56,11.71,10.20,11.71,10.19,-10.19,-10.55,-10.00,1.51,1.51,1.51
54.10,11.66,10.14,11.66,10.14,-10.14,-10.48,-9.99,1.52,1.52,1.52
54.64,11.61,10.09,11.60,10.08,-10.08,-10.41,-9.98,1.52,1.52,1.52
55.18,11.55,10.03,11.55,10.03,-10.03,-10.34,-9.98,1.52,1.52,1.52
55.74,11.50,9.98,11.50,9.97,-9.97,-10.26,-9.97,1.53,1.53,1.52
56.29,11.45,9.92,11.44,9.92,-9.91,-10.18,-9.97,1.53,1.53,1.53
56.86,11.39,9.86,11.39,9.86,-9.86,-10.10,-9.96,1.53,1.53,1.53
57.42,11.33,9.80,11.33,9.79,-9.80,-10.02,-9.95,1.53,1.53,1.53
58.00,11.27,9.73,11.27,9.73,-9.74,-9.94,-9.93,1.53,1.53,1.54
58.58,11.22,9.68,11.22,9.68,-9.68,-9.85,-9.91,1.54,1.54,1.54
59.16,11.17,9.63,11.16,9.62,-9.62,-9.76,-9.89,1.55,1.55,1.54
59.76,11.11,9.56,11.11,9.56,-9.56,-9.67,-9.86,1.55,1.55,1.55
60.35,11.05,9.50,11.05,9.50,-9.50,-9.58,-9.83,1.55,1.55,1.55
60.96,10.99,9.44,10.99,9.44,-9.44,-9.49,-9.79,1.54,1.55,1.55
61.57,10.94,9.39,10.93,9.38,-9.39,-9.40,-9.75,1.55,1.55,1.55
62.18,10.88,9.33,10.88,9.33,-9.33,-9.31,-9.70,1.55,1.55,1.55
62.80,10.83,9.28,10.82,9.27,-9.27,-9.22,-9.64,1.55,1.55,1.55
63.43,10.77,9.22,10.77,9.22,-9.21,-9.13,-9.57,1.55,1.55,1.55
64.07,10.71,9.16,10.71,9.16,-9.16,-9.04,-9.51,1.55,1.55,1.55
64.71,10.66,9.11,10.65,9.10,-9.10,-8.95,-9.43,1.56,1.55,1.55
65.35,10.60,9.05,10.60,9.05,-9.04,-8.87,-9.35,1.55,1.55,1.55
66.01,10.54,8.99,10.54,8.99,-8.99,-8.79,-9.26,1.55,1.55,1.55
66.67,10.48,8.93,10.48,8.93,-8.93,-8.71,-9.16,1.55,1.55,1.55
67.33,10.42,8.87,10.42,8.87,-8.87,-8.64,-9.07,1.54,1.55,1.55
68.01,10.37,8.82,10.36,8.81,-8.81,-8.56,-8.96,1.55,1.55,1.55
68.69,10.31,8.76,10.31,8.76,-8.75,-8.50,-8.86,1.55,1.55,1.55
69.37,10.26,8.71,10.25,8.70,-8.70,-8.43,-8.75,1.56,1.55,1.55
70.07,10.19,8.64,10.19,8.64,-8.64,-8.38,-8.64,1.55,1.55,1.55
70.77,10.13,8.58,10.13,8.58,-8.58,-8.32,-8.52,1.54,1.55,1.55
71.48,10.08,8.52,10.08,8.52,-8.52,-8.27,-8.41,1.55,1.55,1.56
72.19,10.03,8.47,10.03,8.47,-8.47,-8.22,-8.29,1.56,1.56,1.56
72.91,9.98,8.42,9.97,8.41,-8.41,-8.18,-8.18,1.57,1.57,1.56
73.64,9.92,8.36,9.92,8.35,-8.35,-8.14,-8.06,1.57,1.57,1.56
74.38,9.86,8.29,9.86,8.29,-8.29,-8.10,-7.95,1.57,1.57,1.57
75.12,9.80,8.23,9.80,8.23,-8.23,-8.06,-7.83,1.57,1.57,1.57
75.87,9.75,8.17,9.74,8.16,-8.17,-8.03,-7.72,1.58,1.57,1.58
76.63,9.69,8.11,9.69,8.11,-8.11,-7.99,-7.61,1.58,1.58,1.58
77.40,9.63,8.05,9.63,8.04,-8.05,-7.96,-7.51,1.58,1.58,1.58
78.17,9.58,7.99,9.57,7.99,-7.99,-7.93,-7.40,1.59,1.59,1.59
78.95,9.52,7.93,9.52,7.93,-7.93,-7.89,-7.30,1.59,1.59,1.59
79.74,9.47,7.88,9.46,7.87,-7.87,-7.86,-7.20,1.60,1.59,1.59
80.54,9.41,7.81,9.41,7.81,-7.81,-7.83,-7.11,1.59,1.59,1.60
81.35,9.35,7.75,9.35,7.75,-7.75,-7.79,-7.02,1.59,1.60,1.60
82.16,9.30,7.70,9.30,7.70,-7.69,-7.76,-6.93,1.60,1.60,1.60
82.98,9.25,7.65,9.24,7.64,-7.63,-7.72,-6.85,1.61,1.61,1.60
83.81,9.18,7.58,9.18,7.58,-7.57,-7.68,-6.77,1.60,1.61,1.60
84.65,9.12,7.51,9.12,7.51,-7.51,-7.64,-6.70,1.60,1.60,1.61
85.50,9.06,7.45,9.06,7.45,-7.45,-7.60,-6.63,1.60,1.60,1.61
86.35,9.00,7.39,9.00,7.39,-7.39,-7.55,-6.56,1.60,1.61,1.61
87.22,8.95,7.34,8.94,7.33,-7.33,-7.50,-6.50,1.62,1.61,1.61
88.09,8.89,7.28,8.89,7.28,-7.27,-7.46,-6.45,1.62,1.62,1.61
88.97,8.83,7.22,8.82,7.21,-7.21,-7.41,-6.40,1.62,1.61,1.61
89.86,8.76,7.15,8.76,7.15,-7.15,-7.35,-6.35,1.61,1.61,1.61
90.76,8.70,7.09,8.70,7.09,-7.09,-7.30,-6.30,1.60,1.61,1.61
91.66,8.64,7.03,8.64,7.03,-7.03,-7.25,-6.26,1.60,1.61,1.61
92.58,8.59,6.98,8.58,6.97,-6.97,-7.19,-6.23,1.61,1.61,1.61
93.51,8.53,6.92,8.53,6.92,-6.91,-7.13,-6.20,1.61,1.61,1.61
94.44,8.47,6.86,8.47,6.86,-6.85,-7.07,-6.17,1.61,1.61,1.61
95.39,8.41,6.80,8.41,6.80,-6.79,-7.01,-6.15,1.61,1.61,1.61
96.34,8.35,6.74,8.35,6.74,-6.74,-6.95,-6.13,1.61,1.61,1.61
97.30,8.30,6.68,8.30,6.68,-6.68,-6.88,-6.11,1.62,1.62,1.62
98.28,8.25,6.63,8.24,6.62,-6.62,-6.82,-6.10,1.62,1.62,1.62
99.26,8.19,6.57,8.19,6.57,-6.57,-6.75,-6.09,1.62,1.62,1.62
100.25,8.14,6.52,8.13,6.51,-6.52,-6.69,-6.09,1.62,1.61,1.62
101.25,8.08,6.46,8.08,6.46,-6.47,-6.62,-6.09,1.61,1.61,1.62
102.27,8.03,6.41,8.03,6.41,-6.42,-6.55,-6.09,1.61,1.62,1.62
103.29,8.00,6.38,7.99,6.37,-6.37,-6.48,-6.09,1.63,1.62,1.62
104.32,7.96,6.33,7.95,6.32,-6.32,-6.42,-6.09,1.64,1.63,1.63
105.37,7.90,6.27,7.90,6.27,-6.26,-6.35,-6.10,1.63,1.64,1.63
106.42,7.85,6.22,7.85,6.22,-6.21,-6.28,-6.10,1.64,1.64,1.63
107.48,7.80,6.16,7.79,6.15,-6.15,-6.21,-6.11,1.65,1.64,1.64
108.56,7.74,6.10,7.73,6.09,-6.09,-6.14,-6.12,1.65,1.64,1.64
109.64,7.66,6.02,7.66,6.02,-6.03,-6.07,-6.13,1.63,1.64,1.64
110.74,7.60,5.96,7.60,5.96,-5.97,-6.00,-6.13,1.63,1.63,1.64
111.85,7.55,5.91,7.54,5.90,-5.90,-5.93,-6.14,1.64,1.64,1.64
112.97,7.49,5.84,7.49,5.84,-5.84,-5.86,-6.14,1.64,1.64,1.65
114.10,7.44,5.79,7.43,5.78,-5.78,-5.80,-6.15,1.65,1.65,1.65
115.24,7.37,5.72,7.38,5.73,-5.73,-5.73,-6.15,1.64,1.65,1.65
116.39,7.34,5.69,7.33,5.68,-5.67,-5.66,-6.15,1.66,1.66,1.65
117.55,7.29,5.63,7.28,5.62,-5.62,-5.60,-6.14,1.67,1.66,1.66
118.73,7.22,5.56,7.22,5.56,-5.57,-5.53,-6.13,1.65,1.66,1.66
119.92,7.17,5.51,7.17,5.51,-5.51,-5.47,-6.12,1.65,1.66,1.66
121.12,7.12,5.46,7.12,5.46,-5.46,-5.40,-6.10,1.66,1.66,1.66
122.33,7.09,5.42,7.08,5.41,-5.41,-5.34,-6.08,1.68,1.67,1.67
123.55,7.04,5.37,7.03,5.35,-5.35,-5.28,-6.06,1.68,1.67,1.67
124.79,6.97,5.29,6.97,5.30,-5.30,-5.22,-6.02,1.67,1.67,1.68
126.03,6.92,5.24,6.93,5.24,-5.25,-5.16,-5.99,1.67,1.68,1.68
127.29,6.89,5.20,6.88,5.19,-5.19,-5.10,-5.95,1.69,1.69,1.69
128.57,6.85,5.16,6.83,5.14,-5.14,-5.04,-5.91,1.71,1.70,1.69
129.85,6.78,5.09,6.78,5.09,-5.08,-4.98,-5.85,1.69,1.70,1.69
131.15,6.71,5.02,6.72,5.02,-5.03,-4.93,-5.80,1.68,1.69,1.69
132.46,6.67,4.97,6.66,4.96,-4.98,-4.87,-5.74,1.69,1.68,1.70
133.79,6.62,4.92,6.62,4.92,-4.92,-4.82,-5.68,1.69,1.69,1.70
135.12,6.57,4.87,6.57,4.87,-4.87,-4.77,-5.62,1.70,1.70,1.70
136.48,6.53,4.83,6.52,4.82,-4.81,-4.72,-5.55,1.72,1.71,1.70
137.84,6.46,4.76,6.47,4.77,-4.75,-4.67,-5.48,1.71,1.72,1.70
139.22,6.41,4.71,6.40,4.70,-4.69,-4.62,-5.40,1.72,1.71,1.70
140.61,6.34,4.64,6.33,4.63,-4.62,-4.57,-5.33,1.71,1.70,1.70
142.02,6.25,4.54,6.26,4.56,-4.56,-4.52,-5.25,1.68,1.70,1.71
143.44,6.21,4.50,6.20,4.49,-4.50,-4.47,-5.17,1.71,1.70,1.71
144.87,6.15,4.44,6.15,4.43,-4.44,-4.43,-5.09,1.71,1.71,1.71
146.32,6.11,4.39,6.10,4.39,-4.39,-4.38,-5.01,1.72,1.72,1.72
147.78,6.06,4.34,6.06,4.34,-4.34,-4.34,-4.93,1.72,1.72,1.72
149.26,6.02,4.30,6.02,4.29,-4.30,-4.29,-4.85,1.71,1.72,1.72
150.75,5.99,4.26,5.99,4.26,-4.27,-4.25,-4.77,1.72,1.72,1.73
152.26,5.97,4.24,5.97,4.24,-4.24,-4.21,-4.69,1.72,1.73,1.73
153.78,5.96,4.23,5.95,4.22,-4.22,-4.17,-4.61,1.74,1.74,1.73
155.32,5.95,4.21,5.94,4.20,-4.20,-4.13,-4.54,1.75,1.74,1.74
156.88,5.92,4.18,5.92,4.18,-4.17,-4.09,-4.46,1.74,1.74,1.74
158.44,5.90,4.16,5.89,4.15,-4.15,-4.06,-4.39,1.74,1.74,1.74
160.03,5.87,4.13,5.87,4.13,-4.13,-4.02,-4.32,1.73,1.74,1.74
161.63,5.86,4.12,5.85,4.11,-4.11,-3.99,-4.25,1.75,1.74,1.74
163.24,5.84,4.09,5.83,4.08,-4.08,-3.95,-4.18,1.76,1.75,1.75
164.88,5.80,4.05,5.81,4.06,-4.05,-3.92,-4.12,1.75,1.75,1.75
166.53,5.78,4.03,5.77,4.02,-4.02,-3.89,-4.06,1.76,1.76,1.75
168.19,5.75,4.00,5.74,3.99,-3.99,-3.87,-4.00,1.76,1.76,1.75
169.87,5.71,3.95,5.71,3.95,-3.95,-3.84,-3.94,1.76,1.76,1.76
171.57,5.68,3.92,5.68,3.92,-3.92,-3.81,-3.89,1.76,1.76,1.76
173.29,5.65,3.89,5.64,3.88,-3.88,-3.79,-3.83,1.76,1.76,1.76
175.02,5.62,3.86,5.62,3.85,-3.86,-3.77,-3.79,1.76,1.76,1.76
176.77,5.60,3.83,5.59,3.83,-3.83,-3.75,-3.74,1.76,1.76,1.77
178.54,5.58,3.81,5.58,3.81,-3.82,-3.73,-3.70,1.76,1.76,1.77
180.32,5.57,3.80,5.57,3.80,-3.81,-3.71,-3.66,1.76,1.76,1.77
182.13,5.57,3.80,5.57,3.80,-3.81,-3.70,-3.62,1.76,1.77,1.77
183.95,5.59,3.82,5.58,3.81,-3.81,-3.69,-3.58,1.78,1.77,1.77
185.79,5.59,3.82,5.59,3.82,-3.81,-3.67,-3.55,1.77,1.77,1.77
187.65,5.60,3.83,5.59,3.82,-3.82,-3.66,-3.52,1.77,1.77,1.77
189.52,5.60,3.83,5.60,3.83,-3.83,-3.66,-3.49,1.76,1.77,1.77
191.42,5.61,3.84,5.61,3.84,-3.84,-3.65,-3.47,1.77,1.77,1.77
193.33,5.62,3.85,5.61,3.84,-3.84,-3.64,-3.44,1.78,1.77,1.77
195.27,5.62,3.85,5.61,3.85,-3.84,-3.63,-3.42,1.78,1.78,1.77
197.22,5.61,3.84,5.61,3.84,-3.83,-3.63,-3.40,1.78,1.78,1.77
199.19,5.60,3.83,5.60,3.82,-3.82,-3.63,-3.39,1.78,1.78,1.77
201.18,5.58,3.80,5.58,3.80,-3.80,-3.62,-3.37,1.78,1.78,1.78
203.19,5.56,3.78,5.55,3.77,-3.78,-3.62,-3.36,1.78,1.78,1.78
205.23,5.53,3.74,5.53,3.74,-3.75,-3.62,-3.35,1.78,1.78,1.79
207.28,5.50,3.71,5.50,3.71,-3.72,-3.61,-3.34,1.78,1.79,1.79
209.35,5.48,3.69,5.47,3.68,-3.68,-3.61,-3.33,1.80,1.79,1.79
211.44,5.45,3.65,5.44,3.65,-3.64,-3.61,-3.32,1.80,1.80,1.80
213.56,5.41,3.61,5.41,3.61,-3.60,-3.60,-3.31,1.81,1.81,1.80
215.69,5.37,3.57,5.36,3.56,-3.56,-3.60,-3.30,1.81,1.80,1.80
217.85,5.31,3.51,5.32,3.51,-3.51,-3.59,-3.29,1.80,1.81,1.80
220.03,5.28,3.47,5.27,3.47,-3.47,-3.58,-3.29,1.81,1.81,1.81
222.23,5.24,3.43,5.23,3.42,-3.42,-3.57,-3.28,1.81,1.80,1.81
224.45,5.18,3.37,5.18,3.37,-3.38,-3.56,-3.27,1.80,1.80,1.81
226.70,5.14,3.33,5.14,3.33,-3.34,-3.55,-3.26,1.80,1.80,1.81
228.96,5.11,3.29,5.11,3.29,-3.30,-3.54,-3.25,1.80,1.80,1.82
231.25,5.09,3.27,5.09,3.27,-3.27,-3.52,-3.24,1.82,1.82,1.82
233.57,5.07,3.25,5.06,3.24,-3.23,-3.50,-3.23,1.84,1.83,1.82
235.90,5.04,3.21,5.03,3.21,-3.19,-3.48,-3.21,1.85,1.84,1.83
238.26,5.00,3.17,5.00,3.17,-3.15,-3.46,-3.20,1.85,1.85,1.83
240.64,4.96,3.12,4.96,3.12,-3.11,-3.43,-3.18,1.85,1.85,1.84
243.05,4.92,3.07,4.91,3.06,-3.07,-3.40,-3.16,1.85,1.85,1.85
245.48,4.87,3.01,4.87,3.01,-3.02,-3.37,-3.13,1.84,1.84,1.86
247.93,4.82,2.96,4.83,2.96,-2.98,-3.34,-3.11,1.84,1.85,1.86
250.41,4.80,2.93,4.79,2.92,-2.94,-3.31,-3.08,1.86,1.86,1.87
252.92,4.78,2.90,4.78,2.90,-2.90,-3.27,-3.05,1.88,1.88,1.88
255.45,4.76,2.87,4.76,2.87,-2.86,-3.23,-3.01,1.90,1.90,1.89
258.00,4.74,2.85,4.73,2.84,-2.82,-3.19,-2.98,1.92,1.91,1.89
260.58,4.69,2.79,4.69,2.79,-2.78,-3.14,-2.94,1.91,1.91,1.90
263.19,4.65,2.75,4.64,2.74,-2.74,-3.10,-2.90,1.91,1.90,1.90
265.82,4.59,2.69,4.59,2.69,-2.70,-3.05,-2.86,1.89,1.89,1.90
268.48,4.56,2.65,4.55,2.65,-2.66,-3.00,-2.81,1.90,1.89,1.91
271.16,4.52,2.61,4.52,2.61,-2.62,-2.95,-2.76,1.89,1.89,1.91
273.87,4.49,2.58,4.49,2.58,-2.58,-2.90,-2.71,1.90,1.91,1.91
276.61,4.47,2.55,4.47,2.55,-2.55,-2.84,-2.66,1.92,1.92,1.92
279.38,4.45,2.53,4.44,2.52,-2.51,-2.79,-2.61,1.94,1.94,1.92
282.17,4.42,2.49,4.41,2.49,-2.47,-2.73,-2.56,1.95,1.94,1.93
284.99,4.38,2.45,4.37,2.44,-2.43,-2.67,-2.50,1.95,1.94,1.93
287.84,4.32,2.39,4.32,2.39,-2.39,-2.62,-2.45,1.93,1.94,1.93
290.72,4.27,2.34,4.27,2.34,-2.34,-2.56,-2.39,1.92,1.93,1.93
293.63,4.23,2.30,4.22,2.29,-2.30,-2.50,-2.33,1.93,1.92,1.93
296.57,4.18,2.25,4.18,2.24,-2.26,-2.44,-2.28,1.92,1.92,1.93
299.53,4.14,2.20,4.14,2.21,-2.22,-2.38,-2.22,1.92,1.92,1.94
302.53,4.12,2.18,4.12,2.18,-2.18,-2.33,-2.16,1.93,1.93,1.94
305.55,4.10,2.16,4.09,2.15,-2.15,-2.27,-2.10,1.95,1.95,1.94
308.61,4.08,2.13,4.07,2.12,-2.11,-2.21,-2.05,1.97,1.96,1.95
311.69,4.04,2.09,4.04,2.09,-2.07,-2.15,-1.99,1.96,1.97,1.95
314.81,4.01,2.05,4.00,2.05,-2.04,-2.10,-1.93,1.97,1.97,1.96
317.96,3.97,2.01,3.97,2.00,-2.00,-2.04,-1.88,1.96,1.96,1.96
321.14,3.93,1.96,3.92,1.96,-1.97,-1.98,-1.82,1.96,1.96,1.97
324.35,3.89,1.92,3.88,1.92,-1.93,-1.93,-1.77,1.96,1.95,1.97
327.59,3.85,1.88,3.86,1.88,-1.89,-1.87,-1.72,1.95,1.96,1.97
330.87,3.84,1.86,3.84,1.86,-1.86,-1.82,-1.66,1.98,1.98,1.98
334.18,3.83,1.84,3.82,1.83,-1.82,-1.77,-1.61,2.01,2.00,1.99
337.52,3.79,1.80,3.79,1.80,-1.78,-1.72,-1.56,2.00,2.01,1.99
340.90,3.76,1.76,3.75,1.76,-1.74,-1.66,-1.51,2.01,2.01,2.00
344.30,3.71,1.71,3.71,1.71,-1.70,-1.61,-1.46,2.00,2.01,2.00
347.75,3.67,1.67,3.66,1.66,-1.66,-1.56,-1.41,2.01,2.00,2.00
351.23,3.61,1.61,3.61,1.61,-1.62,-1.52,-1.37,1.99,1.99,2.00
354.74,3.57,1.56,3.57,1.56,-1.58,-1.47,-1.32,1.99,1.99,2.01
358.28,3.54,1.53,3.53,1.52,-1.54,-1.42,-1.28,2.00,2.00,2.01
361.87,3.51,1.50,3.51,1.50,-1.50,-1.38,-1.23,2.01,2.01,2.01
365.49,3.48,1.47,3.48,1.47,-1.46,-1.33,-1.19,2.02,2.02,2.01
369.14,3.45,1.44,3.44,1.43,-1.42,-1.29,-1.15,2.03,2.02,2.01
372.83,3.41,1.40,3.41,1.39,-1.38,-1.25,-1.11,2.03,2.03,2.01
376.56,3.37,1.35,3.36,1.35,-1.34,-1.21,-1.07,2.03,2.03,2.02
380.33,3.32,1.30,3.31,1.30,-1.30,-1.16,-1.03,2.02,2.02,2.02
384.13,3.27,1.25,3.27,1.24,-1.25,-1.12,-0.99,2.01,2.01,2.02
387.97,3.22,1.20,3.22,1.20,-1.21,-1.08,-0.95,2.00,2.01,2.02
391.85,3.19,1.16,3.18,1.16,-1.17,-1.05,-0.92,2.01,2.01,2.03
395.77,3.16,1.13,3.16,1.13,-1.13,-1.01,-0.88,2.02,2.03,2.03
399.73,3.14,1.10,3.14,1.10,-1.10,-0.97,-0.84,2.04,2.04,2.04
403.72,3.12,1.08,3.11,1.07,-1.06,-0.93,-0.81,2.06,2.05,2.04
407.76,3.09,1.04,3.08,1.04,-1.02,-0.90,-0.78,2.06,2.06,2.05
411.84,3.05,1.00,3.05,0.99,-0.98,-0.86,-0.74,2.06,2.06,2.05
415.96,3.01,0.95,3.01,0.95,-0.95,-0.83,-0.71,2.06,2.06,2.06
420.12,2.97,0.91,2.96,0.90,-0.91,-0.79,-0.68,2.05,2.05,2.06
424.32,2.93,0.87,2.93,0.87,-0.88,-0.76,-0.65,2.05,2.05,2.06
428.56,2.90,0.83,2.90,0.83,-0.85,-0.72,-0.62,2.05,2.05,2.07
432.85,2.88,0.81,2.87,0.80,-0.81,-0.69,-0.59,2.06,2.06,2.07
437.18,2.85,0.78,2.85,0.78,-0.78,-0.65,-0.56,2.07,2.07,2.07
441.55,2.84,0.77,2.83,0.76,-0.75,-0.62,-0.53,2.09,2.08,2.07
445.96,2.80,0.73,2.80,0.73,-0.71,-0.58,-0.50,2.09,2.09,2.07
450.42,2.76,0.69,2.76,0.69,-0.67,-0.55,-0.47,2.08,2.08,2.07
454.93,2.71,0.64,2.71,0.64,-0.63,-0.52,-0.44,2.07,2.07,2.07
459.48,2.66,0.59,2.66,0.59,-0.59,-0.48,-0.42,2.07,2.07,2.07
464.07,2.61,0.54,2.61,0.54,-0.54,-0.45,-0.39,2.06,2.06,2.07
468.71,2.57,0.50,2.57,0.49,-0.50,-0.42,-0.36,2.06,2.06,2.07
473.40,2.53,0.46,2.53,0.45,-0.46,-0.38,-0.34,2.06,2.06,2.07
478.13,2.50,0.42,2.50,0.42,-0.43,-0.35,-0.31,2.07,2.07,2.08
482.91,2.47,0.39,2.47,0.39,-0.40,-0.31,-0.29,2.07,2.07,2.08
