frequency,raw,error,smoothed,error_smoothed,equalization,parametric_eq,fixed_band_eq,equalized_raw,equalized_smoothed,target
20.00,8.81,6.42,8.81,6.42,-6.42,-6.86,-2.66,2.40,2.39,2.39
20.20,8.86,6.47,8.86,6.46,-6.46,-6.83,-2.74,2.40,2.40,2.39
20.40,8.91,6.51,8.91,6.51,-6.51,-6.80,-2.82,2.40,2.40,2.40
20.61,8.95,6.54,8.95,6.54,-6.54,-6.77,-2.90,2.41,2.41,2.41
20.81,8.99,6.58,8.99,6.57,-6.58,-6.74,-2.98,2.41,2.41,2.41
21.02,9.02,6.60,9.02,6.60,-6.60,-6.71,-3.06,2.42,2.42,2.42
21.23,9.05,6.63,9.05,6.63,-6.63,-6.68,-3.15,2.43,2.43,2.42
21.44,9.08,6.65,9.08,6.64,-6.64,-6.65,-3.24,2.44,2.44,2.43
21.66,9.09,6.65,9.10,6.66,-6.65,-6.62,-3.33,2.44,2.44,2.44
21.87,9.11,6.67,9.11,6.66,-6.66,-6.59,-3.43,2.45,2.45,2.44
22.09,9.11,6.66,9.11,6.66,-6.66,-6.57,-3.53,2.45,2.45,2.45
22.31,9.11,6.65,9.11,6.65,-6.65,-6.54,-3.63,2.46,2.46,2.46
22.54,9.11,6.65,9.11,6.64,-6.64,-6.51,-3.73,2.47,2.47,2.46
22.76,9.10,6.63,9.10,6.63,-6.62,-6.48,-3.84,2.48,2.48,2.47
22.99,9.09,6.61,9.09,6.60,-6.60,-6.45,-3.94,2.49,2.49,2.48
23.22,9.06,6.57,9.07,6.57,-6.57,-6.42,-4.05,2.49,2.50,2.49
23.45,9.04,6.54,9.04,6.53,-6.53,-6.40,-4.17,2.51,2.51,2.50
23.69,9.01,6.50,9.01,6.49,-6.50,-6.37,-4.28,2.51,2.51,2.51
23.92,8.97,6.45,8.98,6.46,-6.46,-6.34,-4.40,2.51,2.52,2.52
24.16,8.95,6.42,8.95,6.42,-6.42,-6.32,-4.52,2.53,2.53,2.53
24.40,8.93,6.39,8.93,6.38,-6.39,-6.29,-4.65,2.54,2.54,2.54
24.65,8.91,6.35,8.91,6.35,-6.36,-6.26,-4.77,2.55,2.56,2.56
24.89,8.90,6.33,8.90,6.32,-6.33,-6.24,-4.90,2.57,2.57,2.57
25.14,8.88,6.30,8.88,6.30,-6.30,-6.21,-5.02,2.58,2.58,2.58
25.39,8.87,6.28,8.87,6.27,-6.27,-6.19,-5.15,2.60,2.60,2.59
25.65,8.85,6.25,8.85,6.25,-6.24,-6.17,-5.28,2.61,2.61,2.60
25.91,8.84,6.22,8.84,6.22,-6.21,-6.14,-5.41,2.63,2.63,2.62
26.16,8.82,6.19,8.82,6.19,-6.18,-6.12,-5.54,2.64,2.64,2.63
26.43,8.79,6.15,8.79,6.15,-6.14,-6.10,-5.67,2.65,2.65,2.64
26.69,8.76,6.11,8.76,6.10,-6.10,-6.08,-5.80,2.66,2.66,2.65
26.96,8.72,6.05,8.72,6.05,-6.05,-6.06,-5.93,2.67,2.67,2.67
27.23,8.69,6.01,8.69,6.01,-6.01,-6.04,-6.06,2.68,2.68,2.68
27.50,8.66,5.96,8.66,5.96,-5.96,-6.02,-6.18,2.70,2.70,2.70
27.77,8.64,5.93,8.64,5.92,-5.92,-6.00,-6.30,2.72,2.72,2.71
28.05,8.61,5.88,8.61,5.88,-5.88,-5.98,-6.41,2.73,2.73,2.73
28.33,8.59,5.85,8.59,5.85,-5.85,-5.96,-6.53,2.74,2.74,2.74
28.62,8.57,5.81,8.57,5.81,-5.82,-5.94,-6.63,2.76,2.76,2.76
28.90,8.56,5.79,8.56,5.79,-5.79,-5.93,-6.73,2.77,2.77,2.77
29.19,8.55,5.76,8.56,5.76,-5.77,-5.91,-6.82,2.78,2.78,2.79
29.48,8.56,5.76,8.56,5.75,-5.75,-5.89,-6.90,2.81,2.80,2.80
29.78,8.56,5.74,8.56,5.74,-5.74,-5.88,-6.98,2.82,2.82,2.82
30.08,8.57,5.74,8.57,5.73,-5.73,-5.86,-7.04,2.84,2.84,2.83
30.38,8.57,5.72,8.57,5.72,-5.72,-5.85,-7.10,2.85,2.86,2.85
30.68,8.58,5.72,8.58,5.71,-5.71,-5.83,-7.14,2.87,2.87,2.86
30.99,8.58,5.70,8.58,5.70,-5.70,-5.82,-7.18,2.88,2.88,2.88
31.30,8.58,5.69,8.58,5.69,-5.68,-5.81,-7.20,2.90,2.90,2.89
31.61,8.58,5.67,8.58,5.67,-5.67,-5.79,-7.22,2.91,2.91,2.91
31.93,8.58,5.66,8.58,5.66,-5.66,-5.78,-7.22,2.92,2.92,2.92
32.24,8.58,5.64,8.58,5.64,-5.64,-5.77,-7.21,2.94,2.94,2.94
32.57,8.58,5.63,8.58,5.63,-5.63,-5.76,-7.20,2.96,2.96,2.95
32.89,8.58,5.61,8.58,5.61,-5.61,-5.74,-7.17,2.97,2.97,2.97
33.22,8.58,5.60,8.58,5.60,-5.59,-5.73,-7.14,2.99,2.99,2.98
33.55,8.58,5.58,8.58,5.58,-5.58,-5.72,-7.10,3.00,3.00,3.00
33.89,8.58,5.57,8.58,5.56,-5.57,-5.71,-7.05,3.02,3.02,3.01
34.23,8.58,5.55,8.58,5.55,-5.55,-5.70,-6.99,3.03,3.03,3.03
34.57,8.58,5.54,8.58,5.54,-5.54,-5.69,-6.93,3.04,3.04,3.04
34.92,8.58,5.53,8.58,5.52,-5.52,-5.68,-6.86,3.06,3.06,3.05
35.27,8.58,5.51,8.58,5.51,-5.51,-5.67,-6.79,3.07,3.07,3.07
35.62,8.58,5.50,8.58,5.50,-5.50,-5.66,-6.71,3.08,3.08,3.08
35.97,8.58,5.49,8.58,5.49,-5.49,-5.65,-6.63,3.09,3.09,3.09
36.33,8.58,5.48,8.58,5.48,-5.48,-5.64,-6.55,3.10,3.11,3.10
36.70,8.58,5.47,8.58,5.47,-5.46,-5.63,-6.47,3.12,3.12,3.11
37.06,8.58,5.46,8.58,5.45,-5.45,-5.62,-6.39,3.13,3.13,3.12
37.43,8.57,5.44,8.57,5.44,-5.44,-5.61,-6.31,3.14,3.14,3.13
37.81,8.57,5.43,8.57,5.43,-5.42,-5.60,-6.23,3.15,3.15,3.14
38.19,8.56,5.41,8.56,5.41,-5.41,-5.59,-6.15,3.15,3.15,3.15
38.57,8.56,5.40,8.56,5.39,-5.40,-5.59,-6.07,3.16,3.16,3.16
38.95,8.55,5.38,8.56,5.38,-5.39,-5.58,-5.99,3.16,3.17,3.17
39.34,8.56,5.38,8.56,5.38,-5.38,-5.57,-5.92,3.18,3.18,3.18
39.74,8.57,5.38,8.57,5.38,-5.38,-5.56,-5.84,3.19,3.18,3.19
40.14,8.58,5.39,8.58,5.39,-5.39,-5.55,-5.77,3.19,3.20,3.19
40.54,8.60,5.40,8.60,5.40,-5.40,-5.54,-5.71,3.20,3.20,3.20
40.94,8.63,5.42,8.63,5.41,-5.41,-5.53,-5.65,3.22,3.21,3.21
41.35,8.65,5.43,8.65,5.43,-5.43,-5.52,-5.59,3.22,3.22,3.22
41.76,8.68,5.45,8.68,5.45,-5.45,-5.51,-5.53,3.23,3.23,3.23
42.18,8.71,5.47,8.71,5.47,-5.47,-5.51,-5.48,3.24,3.24,3.24
42.60,8.74,5.49,8.75,5.49,-5.49,-5.50,-5.43,3.25,3.25,3.25
43.03,8.78,5.52,8.78,5.51,-5.51,-5.49,-5.39,3.27,3.27,3.26
43.46,8.81,5.54,8.81,5.53,-5.53,-5.48,-5.35,3.28,3.28,3.27
43.90,8.83,5.55,8.84,5.55,-5.55,-5.47,-5.31,3.28,3.29,3.28
44.33,8.86,5.56,8.86,5.56,-5.56,-5.46,-5.28,3.30,3.30,3.30
44.78,8.88,5.57,8.88,5.57,-5.57,-5.45,-5.25,3.31,3.31,3.31
45.23,8.90,5.58,8.90,5.57,-5.57,-5.44,-5.22,3.33,3.33,3.32
45.68,8.91,5.57,8.91,5.57,-5.57,-5.43,-5.20,3.35,3.35,3.34
46.13,8.92,5.57,8.92,5.56,-5.56,-5.42,-5.19,3.36,3.36,3.35
46.60,8.92,5.55,8.92,5.55,-5.54,-5.41,-5.18,3.38,3.37,3.37
47.06,8.91,5.53,8.91,5.53,-5.53,-5.40,-5.17,3.38,3.39,3.38
47.53,8.91,5.51,8.91,5.51,-5.51,-5.39,-5.16,3.40,3.40,3.40
48.01,8.90,5.49,8.90,5.49,-5.49,-5.38,-5.16,3.41,3.41,3.41
48.49,8.90,5.47,8.90,5.47,-5.47,-5.37,-5.16,3.43,3.43,3.43
48.97,8.90,5.46,8.90,5.45,-5.46,-5.36,-5.17,3.44,3.44,3.44
49.46,8.90,5.44,8.90,5.44,-5.44,-5.35,-5.17,3.46,3.46,3.46
49.96,8.90,5.43,8.90,5.43,-5.43,-5.34,-5.19,3.47,3.47,3.47
50.46,8.90,5.42,8.90,5.41,-5.41,-5.33,-5.20,3.49,3.49,3.48
50.96,8.90,5.40,8.90,5.40,-5.40,-5.32,-5.21,3.50,3.50,3.50
51.47,8.90,5.39,8.90,5.39,-5.39,-5.31,-5.23,3.51,3.51,3.51
51.99,8.90,5.38,8.90,5.38,-5.38,-5.30,-5.25,3.53,3.53,3.52
52.51,8.90,5.37,8.90,5.37,-5.37,-5.29,-5.27,3.53,3.53,3.53
53.03,8.90,5.36,8.90,5.35,-5.36,-5.28,-5.29,3.54,3.54,3.54
53.56,8.90,5.34,8.90,5.34,-5.35,-5.26,-5.32,3.55,3.55,3.56
54.10,8.91,5.34,8.91,5.34,-5.34,-5.25,-5.34,3.57,3.57,3.57
54.64,8.92,5.34,8.92,5.34,-5.34,-5.24,-5.36,3.58,3.58,3.58
55.18,8.92,5.34,8.92,5.33,-5.33,-5.23,-5.38,3.59,3.59,3.58
55.74,8.92,5.33,8.92,5.33,-5.32,-5.22,-5.41,3.60,3.60,3.59
56.29,8.91,5.31,8.91,5.31,-5.31,-5.20,-5.43,3.61,3.61,3.60
56.86,8.90,5.30,8.90,5.29,-5.29,-5.19,-5.44,3.61,3.61,3.60
57.42,8.88,5.27,8.88,5.27,-5.27,-5.18,-5.46,3.61,3.62,3.61
58.00,8.86,5.25,8.86,5.24,-5.24,-5.16,-5.47,3.62,3.62,3.61
58.58,8.83,5.21,8.83,5.21,-5.21,-5.15,-5.48,3.62,3.62,3.62
59.16,8.80,5.18,8.80,5.18,-5.18,-5.14,-5.49,3.62,3.62,3.62
59.76,8.77,5.15,8.77,5.15,-5.15,-5.12,-5.49,3.62,3.62,3.62
60.35,8.74,5.12,8.74,5.12,-5.12,-5.11,-5.49,3.62,3.62,3.62
60.96,8.71,5.09,8.71,5.09,-5.09,-5.09,-5.49,3.63,3.63,3.62
61.57,8.68,5.06,8.68,5.06,-5.06,-5.08,-5.48,3.63,3.62,3.62
62.18,8.65,5.03,8.65,5.03,-5.03,-5.06,-5.46,3.62,3.62,3.62
62.80,8.62,5.00,8.62,5.00,-5.00,-5.05,-5.45,3.62,3.62,3.62
63.43,8.60,4.98,8.60,4.98,-4.98,-5.03,-5.42,3.62,3.62,3.62
64.07,8.58,4.97,8.58,4.96,-4.96,-5.02,-5.39,3.62,3.61,3.61
64.71,8.56,4.95,8.56,4.95,-4.95,-5.00,-5.36,3.61,3.61,3.61
65.35,8.55,4.94,8.55,4.94,-4.95,-4.98,-5.32,3.60,3.61,3.61
66.01,8.55,4.94,8.55,4.94,-4.95,-4.97,-5.28,3.61,3.61,3.61
66.67,8.56,4.95,8.56,4.94,-4.95,-4.95,-5.24,3.61,3.61,3.61
67.33,8.56,4.95,8.56,4.95,-4.95,-4.93,-5.19,3.61,3.61,3.61
68.01,8.57,4.97,8.57,4.97,-4.96,-4.92,-5.14,3.61,3.61,3.60
68.69,8.58,4.98,8.58,4.97,-4.97,-4.90,-5.08,3.62,3.61,3.60
69.37,8.58,4.98,8.58,4.98,-4.97,-4.88,-5.03,3.61,3.61,3.60
70.07,8.58,4.98,8.58,4.98,-4.98,-4.86,-4.97,3.60,3.60,3.60
70.77,8.58,4.98,8.58,4.98,-4.99,-4.84,-4.91,3.60,3.60,3.60
71.48,8.58,4.98,8.58,4.98,-4.99,-4.82,-4.84,3.59,3.60,3.60
72.19,8.59,4.99,8.59,4.99,-4.99,-4.81,-4.78,3.60,3.60,3.60
72.91,8.60,4.99,8.60,4.99,-4.98,-4.79,-4.72,3.62,3.61,3.61
73.64,8.60,4.99,8.60,4.98,-4.98,-4.77,-4.65,3.62,3.62,3.61
74.38,8.59,4.97,8.59,4.97,-4.96,-4.75,-4.59,3.63,3.63,3.62
75.12,8.58,4.96,8.58,4.95,-4.95,-4.73,-4.53,3.63,3.63,3.62
75.87,8.56,4.93,8.56,4.93,-4.92,-4.71,-4.46,3.64,3.64,3.63
76.63,8.54,4.90,8.54,4.90,-4.89,-4.69,-4.40,3.65,3.65,3.64
77.40,8.51,4.86,8.51,4.86,-4.86,-4.67,-4.34,3.65,3.65,3.65
78.17,8.48,4.82,8.48,4.82,-4.82,-4.65,-4.28,3.66,3.66,3.66
78.95,8.45,4.78,8.45,4.78,-4.78,-4.62,-4.23,3.67,3.67,3.67
79.74,8.42,4.74,8.42,4.74,-4.74,-4.60,-4.17,3.68,3.68,3.68
80.54,8.39,4.70,8.39,4.70,-4.70,-4.58,-4.12,3.69,3.69,3.69
81.35,8.36,4.66,8.36,4.66,-4.67,-4.56,-4.07,3.70,3.70,3.70
82.16,8.34,4.63,8.34,4.63,-4.63,-4.54,-4.02,3.71,3.71,3.71
82.98,8.32,4.60,8.32,4.60,-4.60,-4.52,-3.98,3.72,3.72,3.72
83.81,8.30,4.57,8.30,4.57,-4.56,-4.49,-3.93,3.74,3.74,3.73
84.65,8.28,4.54,8.28,4.54,-4.53,-4.47,-3.89,3.75,3.75,3.74
85.50,8.26,4.51,8.26,4.50,-4.50,-4.45,-3.86,3.76,3.76,3.75
86.35,8.23,4.47,8.23,4.47,-4.47,-4.42,-3.82,3.76,3.76,3.76
87.22,8.21,4.44,8.21,4.44,-4.44,-4.40,-3.79,3.77,3.77,3.77
88.09,8.19,4.41,8.19,4.40,-4.41,-4.38,-3.76,3.78,3.78,3.78
88.97,8.17,4.37,8.17,4.37,-4.37,-4.35,-3.73,3.80,3.80,3.80
89.86,8.15,4.34,8.15,4.34,-4.34,-4.33,-3.71,3.81,3.81,3.81
90.76,8.13,4.31,8.13,4.30,-4.30,-4.30,-3.69,3.83,3.83,3.82
91.66,8.11,4.27,8.11,4.27,-4.26,-4.28,-3.67,3.85,3.85,3.84
92.58,8.08,4.23,8.08,4.23,-4.22,-4.25,-3.66,3.86,3.86,3.85
93.51,8.05,4.19,8.05,4.18,-4.17,-4.23,-3.64,3.88,3.87,3.86
94.44,8.01,4.13,8.01,4.13,-4.13,-4.20,-3.63,3.89,3.89,3.88
95.39,7.97,4.08,7.97,4.08,-4.08,-4.18,-3.63,3.90,3.90,3.89
96.34,7.93,4.02,7.93,4.02,-4.02,-4.15,-3.62,3.91,3.91,3.91
97.30,7.89,3.97,7.89,3.97,-3.98,-4.13,-3.62,3.91,3.91,3.92
98.28,7.85,3.92,7.85,3.92,-3.93,-4.10,-3.62,3.92,3.93,3.93
99.26,7.82,3.88,7.82,3.88,-3.88,-4.07,-3.62,3.94,3.94,3.94
100.25,7.80,3.84,7.80,3.84,-3.84,-4.05,-3.62,3.96,3.96,3.96
101.25,7.77,3.80,7.77,3.80,-3.80,-4.02,-3.63,3.97,3.98,3.97
102.27,7.75,3.77,7.75,3.77,-3.76,-3.99,-3.64,4.00,3.99,3.98
103.29,7.71,3.73,7.71,3.72,-3.71,-3.97,-3.64,4.00,4.00,3.98
104.32,7.67,3.68,7.67,3.67,-3.67,-3.94,-3.65,4.01,4.00,3.99
105.37,7.62,3.62,7.62,3.62,-3.62,-3.91,-3.66,4.00,4.00,4.00
106.42,7.57,3.57,7.57,3.57,-3.57,-3.89,-3.67,4.00,4.00,4.00
107.48,7.53,3.53,7.53,3.52,-3.53,-3.86,-3.68,4.00,4.00,4.00
108.56,7.48,3.48,7.48,3.48,-3.49,-3.83,-3.69,3.99,4.00,4.00
109.64,7.44,3.44,7.44,3.44,-3.45,-3.80,-3.70,3.99,3.99,4.00
110.74,7.41,3.41,7.41,3.41,-3.42,-3.77,-3.71,3.99,3.99,4.00
111.85,7.39,3.39,7.39,3.39,-3.40,-3.75,-3.72,3.99,3.99,4.00
112.97,7.37,3.38,7.37,3.38,-3.38,-3.72,-3.73,4.00,4.00,3.99
114.10,7.36,3.37,7.36,3.37,-3.36,-3.69,-3.74,4.00,4.00,3.99
115.24,7.34,3.36,7.34,3.35,-3.34,-3.66,-3.74,4.00,4.00,3.98
116.39,7.31,3.33,7.31,3.33,-3.32,-3.63,-3.74,3.99,3.99,3.98
117.55,7.28,3.31,7.29,3.31,-3.31,-3.60,-3.74,3.97,3.98,3.97
118.73,7.26,3.29,7.26,3.29,-3.29,-3.57,-3.74,3.97,3.97,3.97
119.92,7.23,3.27,7.23,3.26,-3.27,-3.54,-3.73,3.96,3.96,3.96
121.12,7.20,3.24,7.20,3.24,-3.24,-3.52,-3.72,3.96,3.96,3.96
122.33,7.18,3.22,7.18,3.22,-3.22,-3.49,-3.71,3.96,3.96,3.96
123.55,7.16,3.20,7.16,3.20,-3.20,-3.46,-3.70,3.97,3.97,3.96
124.79,7.14,3.18,7.14,3.17,-3.17,-3.43,-3.68,3.97,3.97,3.96
126.03,7.11,3.15,7.11,3.15,-3.14,-3.40,-3.66,3.97,3.97,3.96
127.29,7.08,3.12,7.08,3.12,-3.11,-3.37,-3.63,3.97,3.97,3.96
128.57,7.05,3.09,7.05,3.09,-3.08,-3.34,-3.60,3.97,3.97,3.96
129.85,7.02,3.06,7.02,3.06,-3.06,-3.31,-3.57,3.97,3.97,3.96
131.15,6.99,3.03,6.99,3.03,-3.03,-3.28,-3.53,3.96,3.96,3.96
132.46,6.97,3.01,6.97,3.00,-3.01,-3.25,-3.50,3.96,3.96,3.96
133.79,6.95,2.98,6.95,2.98,-3.00,-3.22,-3.45,3.96,3.96,3.97
135.12,6.94,2.97,6.94,2.97,-2.99,-3.19,-3.41,3.96,3.96,3.97
136.48,6.94,2.97,6.94,2.97,-2.98,-3.16,-3.36,3.96,3.96,3.97
137.84,6.95,2.98,6.95,2.98,-2.98,-3.13,-3.31,3.97,3.97,3.97
139.22,6.96,2.99,6.96,2.99,-2.97,-3.10,-3.26,3.99,3.98,3.97
140.61,6.96,2.99,6.96,2.99,-2.97,-3.07,-3.21,3.99,3.99,3.97
142.02,6.96,2.98,6.96,2.98,-2.97,-3.04,-3.15,4.00,3.99,3.98
143.44,6.94,2.96,6.94,2.96,-2.96,-3.01,-3.10,3.99,3.99,3.98
144.87,6.92,2.94,6.92,2.94,-2.94,-2.98,-3.04,3.98,3.98,3.98
146.32,6.90,2.93,6.90,2.92,-2.92,-2.95,-2.98,3.98,3.98,3.97
147.78,6.87,2.90,6.87,2.90,-2.90,-2.92,-2.93,3.97,3.97,3.97
149.26,6.84,2.87,6.84,2.87,-2.87,-2.89,-2.87,3.97,3.97,3.97
150.75,6.81,2.84,6.81,2.84,-2.85,-2.86,-2.81,3.96,3.96,3.97
152.26,6.78,2.81,6.78,2.81,-2.82,-2.83,-2.75,3.96,3.96,3.97
153.78,6.76,2.80,6.76,2.80,-2.79,-2.80,-2.70,3.97,3.97,3.96
155.32,6.74,2.78,6.74,2.77,-2.76,-2.77,-2.64,3.98,3.97,3.96
156.88,6.71,2.75,6.71,2.75,-2.74,-2.74,-2.58,3.98,3.97,3.96
158.44,6.67,2.71,6.67,2.71,-2.71,-2.71,-2.53,3.96,3.97,3.96
160.03,6.64,2.69,6.64,2.68,-2.68,-2.68,-2.47,3.96,3.96,3.95
161.63,6.60,2.65,6.60,2.65,-2.66,-2.65,-2.42,3.94,3.94,3.95
163.24,6.57,2.63,6.57,2.62,-2.64,-2.62,-2.37,3.93,3.93,3.94
164.88,6.54,2.60,6.54,2.60,-2.62,-2.60,-2.32,3.92,3.93,3.94
166.53,6.52,2.59,6.52,2.59,-2.60,-2.57,-2.27,3.92,3.93,3.93
168.19,6.51,2.59,6.51,2.58,-2.58,-2.54,-2.22,3.93,3.93,3.92
169.87,6.49,2.58,6.49,2.58,-2.56,-2.51,-2.17,3.93,3.93,3.91
171.57,6.46,2.56,6.46,2.55,-2.54,-2.48,-2.12,3.92,3.92,3.90
173.29,6.42,2.53,6.42,2.53,-2.52,-2.45,-2.08,3.90,3.90,3.89
175.02,6.37,2.49,6.38,2.49,-2.50,-2.42,-2.04,3.87,3.88,3.88
176.77,6.33,2.47,6.33,2.47,-2.47,-2.39,-2.00,3.86,3.86,3.86
178.54,6.29,2.44,6.29,2.44,-2.44,-2.36,-1.96,3.85,3.85,3.85
180.32,6.25,2.42,6.25,2.41,-2.42,-2.34,-1.92,3.83,3.83,3.83
182.13,6.21,2.39,6.21,2.39,-2.40,-2.31,-1.88,3.82,3.81,3.82
183.95,6.17,2.37,6.17,2.37,-2.37,-2.28,-1.85,3.80,3.80,3.80
185.79,6.13,2.35,6.13,2.35,-2.35,-2.25,-1.81,3.78,3.78,3.78
187.65,6.10,2.33,6.10,2.33,-2.33,-2.22,-1.78,3.78,3.77,3.77
189.52,6.06,2.31,6.06,2.31,-2.30,-2.20,-1.75,3.76,3.76,3.75
191.42,6.02,2.29,6.02,2.28,-2.27,-2.17,-1.72,3.75,3.74,3.73
193.33,5.96,2.25,5.96,2.25,-2.24,-2.14,-1.69,3.72,3.72,3.71
195.27,5.90,2.20,5.91,2.21,-2.21,-2.11,-1.67,3.69,3.70,3.70
197.22,5.85,2.17,5.85,2.16,-2.17,-2.09,-1.64,3.68,3.68,3.68
199.19,5.79,2.13,5.79,2.13,-2.13,-2.06,-1.62,3.66,3.66,3.66
201.18,5.72,2.09,5.72,2.09,-2.09,-2.03,-1.59,3.63,3.64,3.63
203.19,5.66,2.05,5.66,2.04,-2.05,-2.01,-1.57,3.62,3.61,3.61
205.23,5.59,2.00,5.59,2.00,-2.00,-1.98,-1.55,3.59,3.59,3.59
207.28,5.53,1.96,5.53,1.96,-1.96,-1.95,-1.53,3.57,3.57,3.57
209.35,5.47,1.92,5.47,1.92,-1.91,-1.93,-1.51,3.56,3.56,3.55
211.44,5.40,1.88,5.40,1.87,-1.87,-1.90,-1.49,3.53,3.53,3.52
213.56,5.33,1.83,5.33,1.83,-1.83,-1.87,-1.47,3.50,3.50,3.50
215.69,5.25,1.78,5.25,1.78,-1.79,-1.85,-1.46,3.47,3.47,3.47
217.85,5.18,1.74,5.18,1.74,-1.75,-1.82,-1.44,3.43,3.44,3.44
220.03,5.12,1.70,5.12,1.70,-1.71,-1.80,-1.42,3.41,3.41,3.42
222.23,5.07,1.67,5.07,1.67,-1.67,-1.77,-1.41,3.40,3.40,3.40
224.45,5.02,1.65,5.02,1.64,-1.64,-1.75,-1.39,3.39,3.38,3.37
226.70,4.96,1.61,4.96,1.61,-1.60,-1.72,-1.38,3.36,3.36,3.35
228.96,4.90,1.57,4.91,1.57,-1.56,-1.70,-1.36,3.34,3.34,3.33
231.25,4.85,1.54,4.85,1.53,-1.53,-1.67,-1.35,3.33,3.32,3.31
233.57,4.79,1.49,4.79,1.49,-1.49,-1.65,-1.34,3.30,3.30,3.30
235.90,4.73,1.45,4.73,1.44,-1.45,-1.63,-1.32,3.28,3.28,3.28
238.26,4.67,1.40,4.68,1.40,-1.41,-1.60,-1.31,3.26,3.26,3.27
240.64,4.63,1.37,4.63,1.37,-1.38,-1.58,-1.30,3.25,3.25,3.26
243.05,4.60,1.35,4.60,1.34,-1.34,-1.55,-1.28,3.26,3.25,3.25
245.48,4.56,1.32,4.56,1.32,-1.31,-1.53,-1.27,3.25,3.25,3.24
247.93,4.52,1.29,4.52,1.28,-1.28,-1.51,-1.26,3.24,3.24,3.23
250.41,4.47,1.25,4.47,1.25,-1.24,-1.49,-1.24,3.23,3.23,3.22
252.92,4.42,1.21,4.42,1.21,-1.21,-1.46,-1.23,3.21,3.21,3.21
255.45,4.38,1.18,4.38,1.18,-1.18,-1.44,-1.21,3.20,3.20,3.20
258.00,4.34,1.15,4.34,1.15,-1.14,-1.42,-1.20,3.20,3.20,3.19
260.58,4.31,1.12,4.30,1.11,-1.11,-1.40,-1.19,3.20,3.19,3.19
263.19,4.26,1.08,4.26,1.08,-1.09,-1.38,-1.17,3.17,3.18,3.18
265.82,4.22,1.05,4.23,1.05,-1.06,-1.35,-1.16,3.16,3.16,3.17
268.48,4.20,1.04,4.20,1.03,-1.04,-1.33,-1.14,3.16,3.16,3.16
271.16,4.17,1.02,4.17,1.02,-1.02,-1.31,-1.13,3.15,3.15,3.15
273.87,4.15,1.01,4.15,1.01,-1.00,-1.29,-1.11,3.15,3.15,3.14
276.61,4.12,0.99,4.12,0.99,-0.98,-1.27,-1.10,3.15,3.15,3.13
279.38,4.09,0.97,4.09,0.96,-0.95,-1.25,-1.08,3.14,3.13,3.12
282.17,4.05,0.94,4.05,0.94,-0.93,-1.23,-1.07,3.12,3.12,3.11
284.99,4.00,0.90,4.01,0.90,-0.91,-1.21,-1.06,3.09,3.10,3.10
287.84,3.97,0.88,3.97,0.87,-0.89,-1.19,-1.04,3.08,3.08,3.09
290.72,3.93,0.85,3.94,0.85,-0.87,-1.17,-1.03,3.07,3.07,3.08
293.63,3.91,0.84,3.91,0.84,-0.84,-1.15,-1.02,3.07,3.07,3.07
296.57,3.89,0.83,3.89,0.82,-0.82,-1.13,-1.00,3.07,3.07,3.06
299.53,3.86,0.81,3.86,0.81,-0.80,-1.11,-0.99,3.06,3.06,3.05
302.53,3.83,0.79,3.83,0.79,-0.78,-1.09,-0.98,3.06,3.05,3.04
305.55,3.79,0.77,3.79,0.76,-0.75,-1.08,-0.97,3.04,3.04,3.02
308.61,3.74,0.73,3.74,0.73,-0.72,-1.06,-0.95,3.02,3.02,3.01
311.69,3.69,0.69,3.69,0.69,-0.70,-1.04,-0.94,2.99,3.00,3.00
314.81,3.65,0.67,3.65,0.66,-0.67,-1.02,-0.93,2.98,2.98,2.98
317.96,3.60,0.63,3.61,0.63,-0.65,-1.00,-0.92,2.96,2.96,2.97
321.14,3.57,0.62,3.57,0.61,-0.62,-0.99,-0.92,2.95,2.95,2.95
324.35,3.54,0.60,3.54,0.60,-0.61,-0.97,-0.91,2.94,2.93,2.94
327.59,3.51,0.59,3.51,0.59,-0.59,-0.95,-0.90,2.92,2.93,2.92
330.87,3.49,0.58,3.49,0.58,-0.57,-0.94,-0.89,2.92,2.92,2.91
334.18,3.47,0.58,3.47,0.57,-0.56,-0.92,-0.89,2.91,2.91,2.89
337.52,3.44,0.56,3.44,0.56,-0.54,-0.90,-0.88,2.90,2.89,2.88
340.90,3.40,0.54,3.40,0.54,-0.53,-0.89,-0.88,2.87,2.87,2.86
344.30,3.36,0.51,3.36,0.51,-0.51,-0.87,-0.87,2.85,2.85,2.85
347.75,3.32,0.49,3.32,0.49,-0.50,-0.86,-0.87,2.82,2.83,2.83
351.23,3.29,0.48,3.29,0.47,-0.48,-0.84,-0.86,2.81,2.80,2.81
354.74,3.26,0.46,3.26,0.46,-0.47,-0.83,-0.86,2.79,2.79,2.80
358.28,3.23,0.45,3.24,0.46,-0.46,-0.81,-0.86,2.77,2.78,2.78
361.87,3.22,0.46,3.22,0.45,-0.45,-0.80,-0.86,2.77,2.77,2.76
365.49,3.21,0.46,3.20,0.45,-0.44,-0.78,-0.86,2.77,2.76,2.75
369.14,3.18,0.45,3.18,0.45,-0.43,-0.77,-0.86,2.75,2.75,2.73
372.83,3.15,0.43,3.15,0.43,-0.42,-0.75,-0.86,2.73,2.73,2.72
376.56,3.11,0.41,3.11,0.41,-0.41,-0.74,-0.86,2.71,2.71,2.70
380.33,3.07,0.39,3.07,0.39,-0.39,-0.73,-0.86,2.68,2.69,2.68
384.13,3.03,0.36,3.03,0.36,-0.37,-0.71,-0.86,2.67,2.67,2.67
387.97,3.00,0.35,3.00,0.34,-0.34,-0.70,-0.87,2.66,2.65,2.65
391.85,2.96,0.32,2.96,0.32,-0.32,-0.69,-0.87,2.64,2.64,2.64
395.77,2.93,0.30,2.93,0.30,-0.30,-0.67,-0.87,2.63,2.63,2.63
399.73,2.90,0.28,2.90,0.28,-0.28,-0.66,-0.88,2.62,2.62,2.62
403.72,2.88,0.27,2.88,0.27,-0.27,-0.65,-0.88,2.62,2.61,2.61
407.76,2.85,0.25,2.85,0.25,-0.25,-0.64,-0.89,2.60,2.61,2.60
411.84,2.83,0.25,2.83,0.24,-0.23,-0.62,-0.89,2.60,2.60,2.58
415.96,2.80,0.23,2.80,0.23,-0.22,-0.61,-0.90,2.58,2.58,2.57
420.12,2.77,0.21,2.77,0.21,-0.21,-0.60,-0.90,2.56,2.57,2.56
424.32,2.75,0.20,2.75,0.20,-0.20,-0.59,-0.90,2.55,2.55,2.55
428.56,2.73,0.19,2.73,0.19,-0.20,-0.58,-0.91,2.53,2.53,2.54
432.85,2.72,0.20,2.72,0.19,-0.21,-0.57,-0.91,2.52,2.51,2.52
437.18,2.71,0.20,2.72,0.20,-0.22,-0.56,-0.91,2.49,2.50,2.51
441.55,2.72,0.22,2.72,0.22,-0.23,-0.55,-0.92,2.49,2.49,2.50
445.96,2.74,0.26,2.74,0.25,-0.25,-0.54,-0.92,2.49,2.48,2.48
450.42,2.75,0.29,2.75,0.28,-0.28,-0.53,-0.92,2.47,2.48,2.46
454.93,2.76,0.31,2.76,0.31,-0.30,-0.52,-0.92,2.46,2.46,2.45
459.48,2.76,0.33,2.76,0.33,-0.31,-0.51,-0.92,2.45,2.44,2.43
464.07,2.75,0.34,2.75,0.34,-0.33,-0.50,-0.91,2.42,2.42,2.41
468.71,2.73,0.34,2.73,0.34,-0.33,-0.50,-0.91,2.40,2.40,2.39
473.40,2.71,0.33,2.71,0.33,-0.33,-0.49,-0.90,2.38,2.38,2.38
478.13,2.68,0.32,2.69,0.32,-0.32,-0.48,-0.90,2.36,2.36,2.36
482.91,2.66,0.31,2.66,0.31,-0.31,-0.47,-0.89,2.36,2.35,2.35
487.74,2.63,0.30,2.63,0.29,-0.29,-0.47,-0.88,2.35,2.34,2.33
492.62,2.59,0.27,2.60,0.27,-0.26,-0.46,-0.87,2.33,2.33,2.32
497.55,2.56,0.25,2.56,0.24,-0.24,-0.46,-0.85,2.32,2.32,2.31
502.52,2.52,0.22,2.52,0.22,-0.22,-0.45,-0.84,2.31,2.30,2.30
507.55,2.48,0.19,2.48,0.19,-0.20,-0.45,-0.82,2.29,2.29,2.29
512.62,2.45,0.18,2.45,0.17,-0.18,-0.44,-0.80,2.27,2.27,2.27
517.75,2.43,0.17,2.43,0.17,-0.18,-0.44,-0.78,2.26,2.25,2.26
522.93,2.41,0.17,2.41,0.17,-0.18,-0.43,-0.76,2.23,2.24,2.24
528.16,2.41,0.19,2.41,0.19,-0.20,-0.43,-0.74,2.22,2.22,2.22
533.44,2.42,0.22,2.42,0.22,-0.22,-0.43,-0.71,2.20,2.20,2.20
538.77,2.44,0.26,2.44,0.25,-0.26,-0.43,-0.68,2.18,2.17,2.18
544.16,2.46,0.30,2.47,0.31,-0.31,-0.43,-0.65,2.15,2.16,2.16
