frequency,raw
20.00,-11.31
20.20,-11.23
20.40,-11.13
20.61,-11.04
20.81,-10.94
21.02,-10.85
21.23,-10.75
21.44,-10.66
21.66,-10.56
21.87,-10.48
22.09,-10.37
22.31,-10.26
22.54,-10.13
22.76,-10.02
22.99,-9.92
23.22,-9.82
23.45,-9.72
23.69,-9.63
23.92,-9.53
24.16,-9.42
24.40,-9.32
24.65,-9.21
24.89,-9.10
25.14,-9.00
25.39,-8.91
25.65,-8.81
25.91,-8.71
26.16,-8.59
26.43,-8.44
26.69,-8.30
26.96,-8.15
27.23,-8.07
27.50,-7.99
27.77,-7.90
28.05,-7.83
28.33,-7.76
28.62,-7.69
28.90,-7.62
29.19,-7.52
29.48,-7.39
29.78,-7.26
30.08,-7.15
30.38,-7.09
30.68,-7.03
30.99,-6.97
31.30,-6.94
31.61,-6.92
31.93,-6.89
32.24,-6.81
32.57,-6.73
32.89,-6.65
33.22,-6.50
33.55,-6.31
33.89,-6.13
34.23,-5.94
34.57,-5.75
34.92,-5.56
35.27,-5.38
35.62,-5.19
35.97,-5.00
36.33,-4.91
36.70,-4.82
37.06,-4.73
37.43,-4.63
37.81,-4.52
38.19,-4.40
38.57,-4.25
38.95,-4.09
39.34,-4.05
39.74,-4.04
40.14,-4.00
40.54,-3.92
40.94,-3.84
41.35,-3.82
41.76,-3.81
42.18,-3.79
42.60,-3.78
43.03,-3.76
43.46,-3.65
43.90,-3.54
44.33,-3.43
44.78,-3.31
45.23,-3.07
45.68,-2.71
46.13,-2.41
46.60,-2.23
47.06,-2.06
47.53,-1.83
48.01,-1.60
48.49,-1.45
48.97,-1.31
49.46,-1.16
49.96,-1.01
50.46,-0.79
50.96,-0.54
51.47,-0.44
51.99,-0.34
52.51,-0.24
53.03,-0.11
53.56,0.01
54.10,0.14
54.64,0.28
55.18,0.41
55.74,0.55
56.29,0.75
56.86,1.03
57.42,1.21
58.00,1.36
58.58,1.51
59.16,1.63
59.76,1.65
60.35,1.76
60.96,1.92
61.57,2.07
62.18,2.25
62.80,2.51
63.43,2.68
64.07,2.82
64.71,2.96
65.35,3.09
66.01,3.22
66.67,3.23
67.33,3.35
68.01,3.56
68.69,3.67
69.37,3.80
70.07,3.93
70.77,4.08
71.48,4.12
72.19,4.15
72.91,4.31
73.64,4.46
74.38,4.53
75.12,4.53
75.87,4.57
76.63,4.80
77.40,4.93
78.17,4.96
78.95,4.95
79.74,5.11
80.54,5.25
81.35,5.33
82.16,5.40
82.98,5.47
83.81,5.55
84.65,5.56
85.50,5.61
86.35,5.70
87.22,5.74
88.09,5.72
88.97,5.71
89.86,5.85
90.76,5.89
91.66,5.88
92.58,5.86
93.51,5.94
94.44,6.04
95.39,6.04
96.34,6.02
97.30,6.00
98.28,5.98
99.26,5.96
100.25,5.95
101.25,5.94
102.27,5.93
103.29,5.92
104.32,5.92
105.37,5.92
106.42,5.93
107.48,5.94
108.56,5.95
109.64,5.97
110.74,5.98
111.85,6.00
112.97,5.99
114.10,5.79
115.24,5.78
116.39,5.66
117.55,5.60
118.73,5.60
119.92,5.61
121.12,5.60
122.33,5.45
123.55,5.37
124.79,5.37
126.03,5.21
127.29,5.15
128.57,5.08
129.85,4.91
131.15,4.89
132.46,4.89
133.79,4.74
135.12,4.64
136.48,4.59
137.84,4.44
139.22,4.42
140.61,4.42
142.02,4.31
143.44,4.22
144.87,4.19
146.32,4.05
147.78,3.99
149.26,4.00
150.75,3.91
152.26,3.85
153.78,3.85
155.32,3.83
156.88,3.69
158.44,3.70
160.03,3.66
161.63,3.54
163.24,3.38
164.88,3.30
166.53,3.27
168.19,3.16
169.87,3.08
171.57,3.07
173.29,2.91
175.02,2.79
176.77,2.77
178.54,2.56
180.32,2.48
182.13,2.45
183.95,2.34
185.79,2.19
187.65,2.01
189.52,1.94
191.42,1.87
193.33,1.74
195.27,1.69
197.22,1.68
199.19,1.54
201.18,1.45
203.19,1.41
205.23,1.29
207.28,1.24
209.35,1.25
211.44,1.12
213.56,1.04
215.69,1.04
217.85,0.83
220.03,0.82
222.23,0.82
224.45,0.73
226.70,0.63
228.96,0.62
231.25,0.63
233.57,0.60
235.90,0.42
238.26,0.41
240.64,0.42
243.05,0.26
245.48,0.19
247.93,0.19
250.41,-0.00
252.92,-0.04
255.45,-0.03
258.00,-0.16
260.58,-0.25
263.19,-0.24
265.82,-0.24
268.48,-0.18
271.16,-0.05
273.87,0.00
276.61,0.00
279.38,0.01
282.17,0.01
284.99,0.01
287.84,0.01
290.72,0.01
293.63,0.01
296.57,0.02
299.53,0.02
302.53,0.03
305.55,0.03
308.61,0.04
311.69,0.05
314.81,0.06
317.96,-0.07
321.14,-0.13
324.35,-0.12
327.59,-0.11
330.87,-0.10
334.18,-0.08
337.52,-0.21
340.90,-0.28
344.30,-0.29
347.75,-0.29
351.23,-0.29
354.74,-0.29
358.28,-0.29
361.87,-0.29
365.49,-0.29
369.14,-0.31
372.83,-0.46
376.56,-0.53
380.33,-0.53
384.13,-0.53
387.97,-0.53
391.85,-0.53
395.77,-0.53
399.73,-0.59
403.72,-0.72
407.76,-0.76
411.84,-0.76
415.96,-0.76
420.12,-0.76
424.32,-0.75
428.56,-0.75
432.85,-0.75
437.18,-0.75
441.55,-0.74
445.96,-0.74
450.42,-0.73
454.93,-0.73
459.48,-0.73
464.07,-0.73
468.71,-0.73
473.40,-0.73
478.13,-0.73
482.91,-0.73
487.74,-0.73
492.62,-0.74
497.55,-0.75
502.52,-0.75
507.55,-0.76
512.62,-0.76
517.75,-0.76
522.93,-0.77
528.16,-0.77
533.44,-0.76
538.77,-0.76
544.16,-0.76
549.60,-0.75
555.10,-0.74
560.65,-0.73
566.25,-0.72
571.92,-0.71
577.64,-0.69
583.41,-0.68
589.25,-0.67
595.14,-0.69
601.09,-0.85
607.10,-0.87
613.17,-0.86
619.30,-0.85
625.50,-0.84
631.75,-0.83
638.07,-0.82
644.45,-0.81
650.89,-0.81
657.40,-0.80
663.98,-0.80
670.62,-0.79
677.32,-0.79
684.10,-0.79
690.94,-0.79
697.85,-0.79
704.83,-0.79
711.87,-0.79
718.99,-0.79
726.18,-0.80
733.44,-0.73
740.78,-0.59
748.19,-0.57
755.67,-0.58
763.23,-0.58
770.86,-0.59
778.57,-0.59
786.35,-0.60
794.22,-0.60
802.16,-0.60
810.18,-0.61
818.28,-0.61
826.46,-0.57
834.73,-0.42
843.08,-0.43
851.51,-0.55
860.02,-0.40
868.62,-0.30
877.31,-0.26
886.08,-0.22
894.94,-0.19
903.89,-0.16
912.93,-0.13
922.06,-0.10
931.28,-0.08
940.59,-0.06
950.00,-0.04
959.50,-0.03
969.09,0.08
978.78,0.33
988.57,0.45
998.46,0.29
1008.44,0.23
1018.53,0.24
1028.71,0.24
1039.00,0.25
1049.39,0.40
1059.88,0.49
1070.48,0.52
1081.19,0.54
1092.00,0.55
1102.92,0.56
1113.95,0.57
1125.09,0.71
1136.34,0.78
1147.70,0.79
1159.18,0.79
1170.77,0.78
1182.48,0.77
1194.30,0.76
1206.25,0.74
1218.31,0.72
1230.49,0.75
1242.80,0.89
1255.22,0.94
1267.78,0.93
1280.45,0.94
1293.26,0.94
1306.19,0.97
1319.25,1.15
1332.45,1.21
1345.77,1.23
1359.23,1.25
1372.82,1.26
1386.55,1.28
1400.41,1.46
1414.42,1.53
1428.56,1.54
1442.85,1.55
1457.28,1.68
1471.85,1.77
1486.57,1.80
1501.43,1.85
1516.45,2.04
1531.61,2.12
1546.93,2.15
1562.40,2.19
1578.02,2.22
1593.80,2.27
1609.74,2.13
1625.84,2.07
1642.10,1.99
1658.52,1.89
1675.10,1.85
1691.85,1.88
1708.77,2.09
1725.86,2.24
1743.12,2.48
1760.55,2.77
1778.15,3.05
1795.94,3.19
1813.90,3.42
1832.03,3.61
1850.36,3.91
1868.86,4.20
1887.55,4.29
1906.42,4.32
1925.49,4.19
1944.74,4.17
1964.19,4.39
1983.83,4.64
2003.67,4.98
2023.71,5.15
2043.94,5.33
2064.38,5.42
2085.03,5.62
2105.88,5.68
2126.94,5.75
2148.20,5.97
2169.69,6.23
2191.38,6.34
2213.30,6.54
2235.43,6.59
2257.78,6.60
2280.36,6.62
2303.17,6.73
2326.20,7.00
2349.46,7.28
2372.95,7.56
2396.68,7.80
2420.65,7.85
2444.86,7.94
2469.31,8.05
2494.00,8.20
2518.94,8.42
2544.13,8.64
2569.57,8.82
2595.27,8.88
2621.22,8.99
2647.43,9.11
2673.90,9.34
2700.64,9.53
2727.65,9.67
2754.93,9.65
2782.48,9.67
2810.30,9.67
2838.40,9.76
2866.79,9.87
2895.46,9.97
2924.41,10.04
2953.65,9.93
2983.19,9.84
3013.02,9.91
3043.15,10.02
3073.58,9.97
3104.32,10.03
3135.36,9.94
3166.72,9.87
3198.38,9.88
3230.37,9.81
3262.67,9.70
3295.30,9.76
3328.25,9.72
3361.53,9.82
3395.15,9.91
3429.10,9.95
3463.39,10.10
3498.03,10.44
3533.01,10.87
3568.34,11.47
3604.02,12.15
3640.06,12.71
3676.46,13.19
3713.22,13.58
3750.36,13.91
3787.86,14.24
3825.74,14.08
3864.00,13.78
3902.64,13.40
3941.66,12.96
3981.08,12.37
4020.89,11.81
4061.10,11.20
4101.71,10.94
4142.73,10.67
4184.15,10.27
4226.00,9.73
4268.26,9.31
4310.94,8.99
4354.05,8.78
4397.59,8.68
4441.56,8.88
4485.98,9.27
4530.84,9.62
4576.15,9.66
4621.91,9.46
4668.13,9.73
4714.81,10.20
4761.96,10.85
4809.58,11.56
4857.67,12.19
4906.25,12.78
4955.31,13.08
5004.87,13.22
5054.91,13.25
5105.46,13.38
5156.52,13.54
5208.08,13.75
5260.16,14.07
5312.77,14.58
5365.89,14.96
5419.55,15.23
5473.75,15.28
5528.49,15.23
5583.77,15.00
5639.61,14.85
5696.00,14.71
5752.96,14.65
5810.49,14.79
5868.60,14.97
5927.28,14.98
5986.56,14.86
6046.42,14.72
6106.89,14.59
6167.96,14.49
6229.64,14.51
6291.93,14.70
6354.85,14.96
6418.40,15.24
6482.58,15.36
6547.41,15.44
6612.88,15.40
6679.01,15.14
6745.80,14.89
6813.26,14.74
6881.39,14.65
6950.21,14.57
7019.71,14.46
7089.91,14.26
7160.81,13.98
7232.41,13.70
7304.74,13.61
7377.79,13.52
7451.56,13.37
7526.08,13.21
7601.34,13.03
7677.35,12.83
7754.13,12.73
7831.67,12.54
7909.98,12.42
7989.08,12.10
8068.98,11.67
8149.67,11.28
8231.16,10.95
8313.47,10.58
8396.61,10.12
8480.57,9.23
8565.38,7.90
8651.03,5.88
8737.54,2.99
8824.92,-0.16
8913.17,-2.61
9002.30,-2.48
9092.32,-0.86
9183.25,0.96
9275.08,2.38
9367.83,2.81
9461.51,2.28
9556.12,1.45
9651.68,0.64
9748.20,0.34
9845.68,1.06
9944.14,2.29
10043.58,3.33
10144.02,3.88
10245.46,4.15
10347.91,4.15
10451.39,3.94
10555.91,3.58
10661.46,3.10
10768.08,2.53
10875.76,1.85
10984.52,1.15
11094.36,0.64
11205.31,0.75
11317.36,1.32
11430.53,2.00
11544.84,2.73
11660.29,3.52
11776.89,4.26
11894.66,4.86
12013.60,5.14
12133.74,5.10
12255.08,4.88
12377.63,4.48
12501.41,4.05
12626.42,3.46
12752.68,3.08
12880.21,2.79
13009.01,2.32
13139.10,1.64
13270.49,1.03
13403.20,0.31
13537.23,-0.50
13672.60,-1.65
13809.33,-3.02
13947.42,-4.48
14086.90,-5.77
14227.77,-7.05
14370.04,-8.54
14513.74,-10.62
14658.88,-13.01
14805.47,-15.19
14953.52,-16.24
15103.06,-15.19
15254.09,-13.10
15406.63,-11.13
15560.70,-9.83
15716.30,-9.57
15873.47,-9.46
16032.20,-8.78
16192.52,-7.93
16354.45,-7.26
16517.99,-6.96
16683.17,-6.86
16850.01,-6.71
17018.51,-6.64
17188.69,-6.62
17360.58,-6.65
17534.18,-6.79
17709.53,-7.05
17886.62,-7.74
18065.49,-8.03
18246.14,-8.15
18428.60,-8.44
18612.89,-9.43
18799.02,-11.02
18987.01,-12.58
19176.88,-13.25
19368.65,-13.06
19562.33,-12.64
19757.96,-12.37
19955.54,-12.76
