frequency,raw,error,smoothed,error_smoothed,equalization,parametric_eq,fixed_band_eq,equalized_raw,equalized_smoothed,target
20.00,6.30,1.17,6.30,1.16,-1.17,-2.13,-1.22,5.14,5.13,5.13
20.20,6.34,1.21,6.34,1.21,-1.21,-2.14,-1.26,5.13,5.13,5.13
20.40,6.38,1.26,6.39,1.26,-1.26,-2.14,-1.29,5.12,5.13,5.12
20.61,6.43,1.31,6.43,1.31,-1.31,-2.15,-1.33,5.12,5.12,5.12
20.81,6.47,1.36,6.47,1.36,-1.35,-2.15,-1.37,5.12,5.11,5.11
21.02,6.51,1.40,6.51,1.40,-1.40,-2.16,-1.41,5.11,5.11,5.11
21.23,6.54,1.44,6.55,1.45,-1.45,-2.16,-1.45,5.09,5.10,5.10
21.44,6.59,1.49,6.59,1.49,-1.49,-2.17,-1.50,5.10,5.10,5.10
21.66,6.63,1.54,6.63,1.54,-1.54,-2.17,-1.54,5.09,5.09,5.09
21.87,6.67,1.58,6.67,1.59,-1.58,-2.18,-1.59,5.09,5.09,5.09
22.09,6.71,1.63,6.71,1.63,-1.63,-2.19,-1.63,5.08,5.08,5.08
22.31,6.75,1.67,6.75,1.67,-1.67,-2.19,-1.68,5.08,5.08,5.08
22.54,6.79,1.71,6.79,1.72,-1.72,-2.20,-1.73,5.07,5.07,5.08
22.76,6.83,1.77,6.83,1.76,-1.77,-2.21,-1.78,5.07,5.07,5.07
22.99,6.87,1.81,6.87,1.81,-1.81,-2.21,-1.83,5.06,5.06,5.07
23.22,6.91,1.86,6.91,1.85,-1.85,-2.22,-1.89,5.06,5.06,5.05
23.45,6.95,1.90,6.95,1.90,-1.90,-2.23,-1.94,5.05,5.05,5.05
23.69,6.99,1.94,6.99,1.94,-1.94,-2.23,-2.00,5.05,5.05,5.05
23.92,7.03,1.99,7.03,1.99,-1.98,-2.24,-2.05,5.05,5.05,5.04
24.16,7.07,2.03,7.06,2.02,-2.02,-2.25,-2.11,5.05,5.04,5.04
24.40,7.09,2.05,7.10,2.06,-2.06,-2.26,-2.17,5.03,5.04,5.04
24.65,7.13,2.09,7.13,2.10,-2.10,-2.26,-2.23,5.03,5.03,5.04
24.89,7.17,2.14,7.17,2.14,-2.14,-2.27,-2.29,5.03,5.03,5.03
25.14,7.20,2.17,7.21,2.18,-2.17,-2.28,-2.35,5.03,5.03,5.03
25.39,7.24,2.22,7.24,2.21,-2.21,-2.29,-2.41,5.03,5.03,5.03
25.65,7.27,2.25,7.27,2.25,-2.24,-2.30,-2.47,5.03,5.03,5.03
25.91,7.30,2.28,7.30,2.28,-2.28,-2.31,-2.53,5.02,5.02,5.02
26.16,7.33,2.31,7.33,2.31,-2.31,-2.32,-2.59,5.02,5.02,5.02
26.43,7.36,2.34,7.36,2.35,-2.35,-2.33,-2.65,5.01,5.02,5.02
26.69,7.40,2.39,7.39,2.38,-2.38,-2.34,-2.71,5.02,5.02,5.01
26.96,7.42,2.41,7.42,2.41,-2.41,-2.35,-2.77,5.01,5.01,5.01
27.23,7.45,2.44,7.45,2.44,-2.44,-2.36,-2.83,5.01,5.01,5.01
27.50,7.48,2.47,7.48,2.47,-2.48,-2.37,-2.88,5.00,5.00,5.01
27.77,7.51,2.51,7.51,2.51,-2.51,-2.38,-2.94,5.00,5.00,5.01
28.05,7.54,2.55,7.54,2.54,-2.54,-2.39,-2.99,5.00,5.00,4.99
28.33,7.56,2.57,7.57,2.57,-2.57,-2.40,-3.04,4.99,4.99,4.99
28.62,7.59,2.60,7.59,2.60,-2.60,-2.41,-3.08,4.99,4.99,4.99
28.90,7.61,2.63,7.61,2.63,-2.63,-2.42,-3.13,4.98,4.98,4.98
29.19,7.63,2.65,7.63,2.66,-2.66,-2.43,-3.17,4.98,4.98,4.98
29.48,7.65,2.68,7.65,2.68,-2.68,-2.45,-3.20,4.97,4.97,4.98
29.78,7.68,2.72,7.67,2.71,-2.71,-2.46,-3.24,4.97,4.97,4.96
30.08,7.69,2.73,7.69,2.73,-2.73,-2.47,-3.26,4.96,4.96,4.96
30.38,7.71,2.75,7.71,2.75,-2.75,-2.48,-3.29,4.96,4.96,4.96
30.68,7.73,2.77,7.73,2.77,-2.77,-2.50,-3.31,4.96,4.96,4.96
30.99,7.75,2.79,7.75,2.79,-2.79,-2.51,-3.32,4.96,4.96,4.96
31.30,7.76,2.81,7.76,2.81,-2.81,-2.53,-3.33,4.95,4.96,4.95
31.61,7.78,2.82,7.78,2.82,-2.83,-2.54,-3.34,4.95,4.96,4.96
31.93,7.80,2.84,7.80,2.84,-2.84,-2.55,-3.34,4.96,4.96,4.96
32.24,7.82,2.86,7.82,2.86,-2.86,-2.57,-3.34,4.96,4.96,4.96
32.57,7.83,2.88,7.83,2.88,-2.87,-2.58,-3.33,4.96,4.96,4.96
32.89,7.84,2.89,7.85,2.89,-2.89,-2.60,-3.32,4.95,4.96,4.95
33.22,7.86,2.91,7.85,2.90,-2.90,-2.62,-3.30,4.96,4.95,4.95
33.55,7.86,2.91,7.86,2.92,-2.92,-2.63,-3.29,4.94,4.94,4.95
33.89,7.87,2.93,7.87,2.93,-2.94,-2.65,-3.26,4.94,4.94,4.94
34.23,7.88,2.95,7.88,2.95,-2.95,-2.66,-3.24,4.93,4.93,4.93
34.57,7.89,2.96,7.89,2.97,-2.97,-2.68,-3.21,4.93,4.93,4.93
34.92,7.90,2.99,7.90,2.99,-2.98,-2.70,-3.18,4.92,4.92,4.91
35.27,7.90,3.00,7.90,3.00,-3.00,-2.72,-3.15,4.91,4.91,4.90
35.62,7.91,3.02,7.91,3.01,-3.01,-2.73,-3.12,4.90,4.89,4.89
35.97,7.90,3.02,7.90,3.02,-3.03,-2.75,-3.08,4.87,4.88,4.88
36.33,7.90,3.03,7.90,3.04,-3.04,-2.77,-3.04,4.86,4.86,4.87
36.70,7.90,3.05,7.90,3.05,-3.06,-2.79,-3.01,4.84,4.85,4.85
37.06,7.91,3.08,7.90,3.07,-3.07,-2.81,-2.97,4.84,4.83,4.83
37.43,7.90,3.08,7.90,3.09,-3.08,-2.82,-2.93,4.82,4.82,4.82
37.81,7.90,3.10,7.90,3.10,-3.10,-2.84,-2.89,4.81,4.81,4.80
38.19,7.90,3.11,7.90,3.11,-3.11,-2.86,-2.85,4.79,4.79,4.79
38.57,7.90,3.12,7.90,3.12,-3.12,-2.88,-2.81,4.78,4.78,4.78
38.95,7.89,3.12,7.89,3.12,-3.13,-2.90,-2.78,4.77,4.77,4.77
39.34,7.89,3.14,7.89,3.13,-3.13,-2.92,-2.74,4.76,4.76,4.75
39.74,7.88,3.13,7.88,3.14,-3.14,-2.94,-2.71,4.75,4.75,4.75
40.14,7.88,3.15,7.88,3.14,-3.14,-2.96,-2.67,4.74,4.74,4.73
40.54,7.86,3.13,7.87,3.14,-3.14,-2.98,-2.64,4.72,4.73,4.73
40.94,7.86,3.14,7.86,3.14,-3.14,-3.00,-2.61,4.72,4.72,4.72
41.35,7.86,3.14,7.86,3.14,-3.14,-3.02,-2.58,4.72,4.72,4.72
41.76,7.85,3.14,7.85,3.14,-3.14,-3.03,-2.55,4.71,4.71,4.71
42.18,7.84,3.14,7.84,3.14,-3.14,-3.05,-2.53,4.70,4.70,4.70
42.60,7.82,3.12,7.83,3.13,-3.13,-3.07,-2.51,4.69,4.70,4.70
43.03,7.82,3.13,7.82,3.13,-3.13,-3.09,-2.48,4.69,4.69,4.69
43.46,7.81,3.13,7.81,3.13,-3.12,-3.11,-2.46,4.69,4.69,4.68
43.90,7.80,3.13,7.80,3.12,-3.12,-3.12,-2.45,4.68,4.68,4.68
44.33,7.78,3.10,7.78,3.11,-3.11,-3.14,-2.43,4.67,4.67,4.68
44.78,7.77,3.10,7.77,3.10,-3.10,-3.15,-2.41,4.67,4.67,4.67
45.23,7.76,3.10,7.76,3.10,-3.10,-3.17,-2.40,4.66,4.66,4.66
45.68,7.75,3.09,7.75,3.09,-3.09,-3.18,-2.39,4.66,4.66,4.66
46.13,7.74,3.09,7.74,3.09,-3.08,-3.20,-2.38,4.66,4.66,4.65
46.60,7.72,3.08,7.73,3.08,-3.08,-3.21,-2.38,4.64,4.65,4.64
47.06,7.71,3.08,7.71,3.07,-3.07,-3.22,-2.37,4.64,4.64,4.63
47.53,7.69,3.07,7.69,3.07,-3.07,-3.23,-2.37,4.62,4.62,4.63
48.01,7.67,3.06,7.67,3.06,-3.07,-3.23,-2.37,4.61,4.61,4.61
48.49,7.66,3.07,7.66,3.06,-3.06,-3.24,-2.37,4.60,4.60,4.59
48.97,7.64,3.06,7.64,3.06,-3.06,-3.24,-2.37,4.58,4.58,4.58
49.46,7.63,3.06,7.63,3.06,-3.06,-3.25,-2.37,4.57,4.57,4.57
49.96,7.61,3.06,7.61,3.06,-3.06,-3.25,-2.37,4.55,4.55,4.55
50.46,7.59,3.05,7.59,3.06,-3.06,-3.25,-2.38,4.53,4.53,4.54
50.96,7.57,3.06,7.57,3.06,-3.06,-3.24,-2.38,4.51,4.52,4.52
51.47,7.56,3.06,7.56,3.06,-3.06,-3.24,-2.39,4.50,4.50,4.50
51.99,7.54,3.06,7.54,3.06,-3.06,-3.23,-2.40,4.48,4.48,4.48
52.51,7.52,3.06,7.52,3.06,-3.06,-3.22,-2.41,4.46,4.46,4.46
53.03,7.50,3.05,7.50,3.05,-3.05,-3.21,-2.41,4.45,4.45,4.45
53.56,7.47,3.05,7.48,3.05,-3.05,-3.19,-2.42,4.42,4.43,4.43
54.10,7.46,3.05,7.45,3.04,-3.04,-3.17,-2.43,4.42,4.41,4.41
54.64,7.42,3.03,7.43,3.03,-3.03,-3.15,-2.43,4.39,4.40,4.39
55.18,7.40,3.02,7.40,3.02,-3.02,-3.13,-2.44,4.38,4.38,4.38
55.74,7.37,3.00,7.37,3.00,-3.00,-3.10,-2.44,4.37,4.36,4.37
56.29,7.33,2.98,7.33,2.98,-2.99,-3.07,-2.45,4.35,4.35,4.35
56.86,7.29,2.96,7.30,2.96,-2.96,-3.04,-2.45,4.33,4.33,4.33
57.42,7.26,2.95,7.26,2.94,-2.94,-3.00,-2.45,4.32,4.32,4.32
58.00,7.22,2.92,7.22,2.92,-2.92,-2.96,-2.45,4.31,4.30,4.30
58.58,7.17,2.89,7.17,2.89,-2.89,-2.92,-2.44,4.28,4.28,4.28
59.16,7.11,2.85,7.12,2.86,-2.86,-2.87,-2.44,4.25,4.25,4.26
59.76,7.06,2.83,7.06,2.83,-2.83,-2.82,-2.43,4.23,4.23,4.24
60.35,7.00,2.79,7.00,2.79,-2.80,-2.77,-2.41,4.20,4.21,4.21
60.96,6.95,2.77,6.95,2.76,-2.76,-2.71,-2.40,4.19,4.18,4.18
61.57,6.88,2.72,6.88,2.72,-2.72,-2.65,-2.38,4.16,4.16,4.16
62.18,6.81,2.68,6.81,2.68,-2.68,-2.59,-2.36,4.13,4.13,4.13
62.80,6.74,2.64,6.74,2.64,-2.64,-2.53,-2.33,4.10,4.10,4.10
63.43,6.66,2.59,6.66,2.59,-2.59,-2.46,-2.30,4.07,4.07,4.07
64.07,6.58,2.54,6.58,2.54,-2.54,-2.38,-2.27,4.04,4.04,4.04
64.71,6.50,2.49,6.50,2.48,-2.48,-2.31,-2.24,4.02,4.01,4.01
65.35,6.40,2.42,6.41,2.42,-2.42,-2.23,-2.20,3.98,3.99,3.98
66.01,6.31,2.36,6.31,2.36,-2.36,-2.15,-2.16,3.96,3.96,3.96
66.67,6.22,2.29,6.21,2.29,-2.29,-2.07,-2.11,3.93,3.93,3.93
67.33,6.11,2.21,6.11,2.22,-2.21,-1.98,-2.06,3.90,3.90,3.90
68.01,6.00,2.13,6.00,2.14,-2.14,-1.89,-2.01,3.86,3.87,3.87
68.69,5.89,2.06,5.89,2.05,-2.06,-1.80,-1.96,3.83,3.83,3.84
69.37,5.77,1.97,5.77,1.97,-1.97,-1.71,-1.91,3.80,3.80,3.80
70.07,5.65,1.88,5.65,1.88,-1.89,-1.61,-1.85,3.77,3.77,3.77
70.77,5.53,1.79,5.53,1.80,-1.79,-1.51,-1.79,3.74,3.74,3.74
71.48,5.40,1.71,5.40,1.70,-1.70,-1.41,-1.73,3.70,3.70,3.69
72.19,5.26,1.60,5.26,1.61,-1.60,-1.31,-1.66,3.66,3.67,3.66
72.91,5.12,1.50,5.12,1.50,-1.49,-1.21,-1.60,3.63,3.62,3.62
73.64,4.97,1.39,4.97,1.38,-1.39,-1.11,-1.53,3.58,3.59,3.58
74.38,4.82,1.26,4.83,1.27,-1.28,-1.00,-1.47,3.55,3.55,3.56
75.12,4.68,1.16,4.67,1.16,-1.16,-0.89,-1.40,3.52,3.51,3.52
75.87,4.52,1.04,4.52,1.04,-1.04,-0.78,-1.33,3.48,3.48,3.48
76.63,4.36,0.92,4.36,0.92,-0.92,-0.68,-1.26,3.44,3.44,3.44
77.40,4.20,0.80,4.20,0.80,-0.80,-0.57,-1.19,3.40,3.40,3.40
78.17,4.03,0.67,4.03,0.68,-0.67,-0.46,-1.13,3.36,3.36,3.36
78.95,3.86,0.55,3.86,0.55,-0.55,-0.35,-1.06,3.31,3.31,3.31
79.74,3.69,0.42,3.69,0.42,-0.42,-0.24,-0.99,3.27,3.27,3.27
80.54,3.51,0.28,3.52,0.29,-0.28,-0.13,-0.92,3.23,3.23,3.23
81.35,3.34,0.15,3.34,0.15,-0.15,-0.02,-0.85,3.19,3.19,3.19
82.16,3.16,0.02,3.16,0.01,-0.01,0.09,-0.78,3.15,3.14,3.15
82.98,2.97,-0.13,2.98,-0.12,0.12,0.19,-0.71,3.09,3.10,3.10
83.81,2.80,-0.26,2.80,-0.26,0.26,0.30,-0.64,3.06,3.06,3.06
84.65,2.62,-0.39,2.62,-0.40,0.40,0.40,-0.57,3.02,3.02,3.01
85.50,2.43,-0.53,2.44,-0.53,0.53,0.50,-0.50,2.97,2.97,2.97
86.35,2.26,-0.67,2.26,-0.67,0.67,0.60,-0.43,2.93,2.93,2.93
87.22,2.07,-0.80,2.07,-0.81,0.80,0.70,-0.36,2.88,2.88,2.88
88.09,1.89,-0.93,1.89,-0.94,0.94,0.79,-0.29,2.83,2.83,2.83
88.97,1.71,-1.07,1.72,-1.07,1.07,0.88,-0.22,2.78,2.78,2.79
89.86,1.55,-1.18,1.55,-1.19,1.19,0.97,-0.15,2.74,2.74,2.73
90.76,1.38,-1.31,1.38,-1.31,1.31,1.05,-0.08,2.69,2.69,2.69
91.66,1.21,-1.43,1.21,-1.43,1.43,1.13,-0.01,2.64,2.64,2.64
92.58,1.05,-1.53,1.05,-1.54,1.53,1.21,0.06,2.59,2.59,2.59
93.51,0.90,-1.64,0.90,-1.64,1.63,1.28,0.12,2.54,2.54,2.54
94.44,0.76,-1.73,0.76,-1.73,1.73,1.34,0.19,2.49,2.49,2.49
95.39,0.62,-1.81,0.62,-1.81,1.81,1.40,0.26,2.43,2.43,2.43
96.34,0.49,-1.89,0.49,-1.89,1.89,1.46,0.33,2.38,2.38,2.38
97.30,0.37,-1.95,0.37,-1.95,1.95,1.51,0.39,2.32,2.32,2.32
98.28,0.26,-2.01,0.26,-2.01,2.01,1.55,0.46,2.27,2.27,2.27
99.26,0.14,-2.06,0.15,-2.06,2.06,1.59,0.53,2.20,2.21,2.20
100.25,0.05,-2.10,0.05,-2.10,2.10,1.63,0.59,2.15,2.15,2.15
101.25,-0.04,-2.13,-0.04,-2.13,2.12,1.66,0.66,2.09,2.08,2.09
102.27,-0.12,-2.14,-0.12,-2.14,2.14,1.68,0.72,2.03,2.03,2.03
103.29,-0.19,-2.16,-0.19,-2.16,2.16,1.70,0.78,1.97,1.97,1.97
104.32,-0.25,-2.15,-0.25,-2.16,2.16,1.71,0.85,1.91,1.91,1.90
105.37,-0.31,-2.15,-0.30,-2.15,2.15,1.72,0.91,1.84,1.85,1.85
106.42,-0.35,-2.14,-0.35,-2.14,2.14,1.72,0.97,1.79,1.79,1.79
107.48,-0.39,-2.12,-0.39,-2.12,2.12,1.72,1.03,1.73,1.73,1.73
108.56,-0.42,-2.09,-0.42,-2.09,2.09,1.72,1.08,1.67,1.67,1.67
109.64,-0.45,-2.06,-0.45,-2.06,2.06,1.71,1.14,1.61,1.61,1.61
110.74,-0.47,-2.02,-0.46,-2.02,2.02,1.70,1.19,1.55,1.55,1.56
111.85,-0.47,-1.96,-0.48,-1.97,1.97,1.68,1.24,1.50,1.50,1.49
112.97,-0.49,-1.92,-0.48,-1.92,1.92,1.66,1.29,1.43,1.44,1.43
114.10,-0.49,-1.86,-0.49,-1.87,1.87,1.63,1.34,1.38,1.37,1.37
115.24,-0.51,-1.82,-0.50,-1.81,1.81,1.61,1.38,1.30,1.31,1.31
116.39,-0.51,-1.75,-0.51,-1.75,1.75,1.58,1.43,1.24,1.24,1.24
117.55,-0.51,-1.68,-0.51,-1.69,1.68,1.54,1.46,1.18,1.17,1.18
118.73,-0.51,-1.62,-0.51,-1.62,1.62,1.51,1.50,1.11,1.11,1.11
119.92,-0.51,-1.55,-0.51,-1.55,1.54,1.47,1.53,1.04,1.04,1.04
121.12,-0.51,-1.47,-0.50,-1.47,1.47,1.43,1.56,0.96,0.96,0.97
122.33,-0.50,-1.39,-0.50,-1.39,1.39,1.39,1.59,0.89,0.89,0.89
123.55,-0.49,-1.31,-0.49,-1.31,1.31,1.35,1.61,0.83,0.82,0.82
124.79,-0.49,-1.24,-0.49,-1.24,1.24,1.30,1.63,0.75,0.75,0.75
126.03,-0.49,-1.16,-0.49,-1.16,1.16,1.25,1.64,0.67,0.67,0.67
127.29,-0.49,-1.09,-0.49,-1.09,1.09,1.21,1.65,0.60,0.60,0.60
128.57,-0.49,-1.02,-0.49,-1.02,1.02,1.16,1.66,0.54,0.54,0.53
129.85,-0.49,-0.95,-0.49,-0.96,0.96,1.11,1.66,0.47,0.47,0.46
131.15,-0.50,-0.90,-0.50,-0.90,0.90,1.06,1.67,0.41,0.41,0.40
132.46,-0.51,-0.86,-0.51,-0.85,0.85,1.00,1.66,0.34,0.34,0.35
133.79,-0.52,-0.81,-0.52,-0.81,0.81,0.95,1.66,0.29,0.29,0.29
135.12,-0.53,-0.76,-0.53,-0.76,0.76,0.90,1.65,0.23,0.24,0.23
136.48,-0.54,-0.73,-0.54,-0.72,0.72,0.85,1.64,0.19,0.19,0.19
137.84,-0.55,-0.68,-0.55,-0.69,0.69,0.81,1.63,0.14,0.14,0.13
139.22,-0.57,-0.66,-0.57,-0.66,0.66,0.76,1.61,0.09,0.09,0.09
140.61,-0.59,-0.64,-0.58,-0.63,0.63,0.72,1.59,0.04,0.05,0.05
142.02,-0.60,-0.60,-0.60,-0.61,0.61,0.68,1.58,0.01,0.01,0.01
143.44,-0.62,-0.58,-0.62,-0.59,0.59,0.64,1.55,-0.03,-0.03,-0.03
144.87,-0.65,-0.57,-0.64,-0.57,0.57,0.60,1.53,-0.08,-0.07,-0.08
146.32,-0.67,-0.55,-0.67,-0.56,0.56,0.58,1.51,-0.11,-0.11,-0.11
147.78,-0.69,-0.55,-0.69,-0.55,0.54,0.55,1.49,-0.14,-0.15,-0.14
149.26,-0.72,-0.54,-0.72,-0.53,0.53,0.53,1.46,-0.18,-0.18,-0.18
150.75,-0.75,-0.53,-0.75,-0.53,0.53,0.52,1.44,-0.22,-0.22,-0.22
152.26,-0.77,-0.51,-0.77,-0.52,0.52,0.51,1.41,-0.25,-0.26,-0.25
153.78,-0.81,-0.52,-0.80,-0.51,0.51,0.50,1.39,-0.30,-0.29,-0.29
155.32,-0.83,-0.50,-0.83,-0.51,0.51,0.50,1.36,-0.32,-0.33,-0.33
156.88,-0.87,-0.51,-0.86,-0.50,0.50,0.50,1.34,-0.37,-0.36,-0.36
158.44,-0.89,-0.50,-0.89,-0.50,0.50,0.51,1.31,-0.39,-0.39,-0.39
160.03,-0.92,-0.49,-0.92,-0.50,0.50,0.51,1.29,-0.42,-0.42,-0.42
161.63,-0.96,-0.50,-0.95,-0.50,0.50,0.52,1.26,-0.46,-0.45,-0.46
163.24,-0.99,-0.50,-0.99,-0.50,0.50,0.53,1.24,-0.49,-0.48,-0.49
164.88,-1.02,-0.50,-1.02,-0.51,0.51,0.54,1.22,-0.51,-0.51,-0.52
166.53,-1.05,-0.51,-1.05,-0.51,0.51,0.55,1.19,-0.54,-0.54,-0.54
168.19,-1.09,-0.52,-1.09,-0.52,0.52,0.56,1.17,-0.57,-0.57,-0.56
169.87,-1.12,-0.53,-1.12,-0.53,0.53,0.57,1.15,-0.59,-0.59,-0.59
171.57,-1.15,-0.54,-1.15,-0.54,0.54,0.58,1.13,-0.61,-0.61,-0.61
173.29,-1.18,-0.54,-1.18,-0.55,0.55,0.59,1.11,-0.63,-0.63,-0.63
175.02,-1.22,-0.56,-1.22,-0.56,0.56,0.61,1.09,-0.66,-0.66,-0.66
176.77,-1.25,-0.57,-1.25,-0.57,0.57,0.62,1.07,-0.68,-0.68,-0.67
178.54,-1.28,-0.58,-1.28,-0.58,0.58,0.63,1.06,-0.69,-0.69,-0.70
180.32,-1.31,-0.60,-1.31,-0.60,0.60,0.64,1.04,-0.71,-0.71,-0.71
182.13,-1.35,-0.61,-1.35,-0.61,0.61,0.65,1.03,-0.73,-0.73,-0.73
183.95,-1.39,-0.63,-1.38,-0.63,0.63,0.66,1.01,-0.76,-0.75,-0.76
185.79,-1.42,-0.65,-1.42,-0.65,0.65,0.67,1.00,-0.77,-0.77,-0.77
187.65,-1.45,-0.66,-1.45,-0.66,0.66,0.68,0.99,-0.79,-0.79,-0.79
189.52,-1.49,-0.68,-1.49,-0.68,0.68,0.69,0.97,-0.81,-0.81,-0.81
191.42,-1.52,-0.70,-1.52,-0.70,0.70,0.70,0.96,-0.82,-0.82,-0.82
193.33,-1.55,-0.71,-1.55,-0.71,0.71,0.71,0.95,-0.84,-0.84,-0.84
195.27,-1.58,-0.72,-1.58,-0.72,0.73,0.72,0.94,-0.85,-0.85,-0.86
197.22,-1.61,-0.74,-1.61,-0.74,0.74,0.74,0.94,-0.87,-0.87,-0.87
199.19,-1.64,-0.76,-1.64,-0.75,0.75,0.75,0.93,-0.88,-0.88,-0.88
201.18,-1.67,-0.77,-1.67,-0.77,0.77,0.76,0.92,-0.90,-0.90,-0.90
203.19,-1.69,-0.78,-1.69,-0.78,0.78,0.77,0.91,-0.91,-0.91,-0.91
205.23,-1.73,-0.80,-1.72,-0.79,0.79,0.78,0.91,-0.93,-0.93,-0.93
207.28,-1.75,-0.80,-1.75,-0.81,0.81,0.80,0.90,-0.94,-0.94,-0.94
209.35,-1.78,-0.82,-1.78,-0.82,0.82,0.81,0.90,-0.96,-0.96,-0.96
211.44,-1.81,-0.84,-1.80,-0.83,0.83,0.82,0.89,-0.98,-0.97,-0.97
213.56,-1.83,-0.84,-1.83,-0.85,0.85,0.84,0.89,-0.98,-0.99,-0.99
215.69,-1.86,-0.86,-1.86,-0.86,0.86,0.85,0.89,-1.00,-1.00,-1.00
217.85,-1.89,-0.88,-1.88,-0.87,0.88,0.86,0.88,-1.01,-1.01,-1.01
220.03,-1.91,-0.88,-1.91,-0.89,0.89,0.88,0.88,-1.02,-1.02,-1.02
222.23,-1.94,-0.90,-1.94,-0.90,0.90,0.89,0.88,-1.03,-1.04,-1.04
224.45,-1.97,-0.92,-1.97,-0.92,0.92,0.91,0.88,-1.05,-1.05,-1.05
226.70,-2.00,-0.94,-1.99,-0.94,0.93,0.92,0.87,-1.07,-1.06,-1.06
228.96,-2.02,-0.95,-2.02,-0.95,0.95,0.94,0.87,-1.07,-1.07,-1.07
231.25,-2.04,-0.96,-2.04,-0.96,0.96,0.95,0.87,-1.08,-1.09,-1.08
233.57,-2.07,-0.97,-2.07,-0.97,0.97,0.97,0.87,-1.10,-1.10,-1.10
235.90,-2.09,-0.98,-2.09,-0.98,0.98,0.98,0.86,-1.11,-1.11,-1.11
238.26,-2.11,-0.99,-2.11,-0.99,0.99,1.00,0.86,-1.12,-1.12,-1.12
240.64,-2.13,-0.99,-2.13,-0.99,1.00,1.01,0.86,-1.13,-1.13,-1.14
243.05,-2.15,-1.00,-2.15,-1.00,1.01,1.02,0.85,-1.14,-1.14,-1.15
245.48,-2.17,-1.01,-2.17,-1.01,1.01,1.03,0.85,-1.15,-1.15,-1.16
247.93,-2.19,-1.03,-2.19,-1.02,1.02,1.05,0.84,-1.17,-1.16,-1.16
250.41,-2.20,-1.03,-2.20,-1.03,1.03,1.06,0.84,-1.17,-1.18,-1.17
252.92,-2.23,-1.04,-2.22,-1.04,1.04,1.07,0.84,-1.19,-1.19,-1.19
255.45,-2.24,-1.04,-2.24,-1.04,1.04,1.07,0.83,-1.20,-1.20,-1.20
258.00,-2.26,-1.06,-2.26,-1.05,1.05,1.08,0.83,-1.21,-1.21,-1.20
260.58,-2.27,-1.05,-2.27,-1.05,1.05,1.08,0.82,-1.22,-1.22,-1.22
263.19,-2.28,-1.05,-2.28,-1.05,1.06,1.09,0.81,-1.22,-1.23,-1.23
265.82,-2.30,-1.06,-2.29,-1.05,1.06,1.09,0.81,-1.24,-1.24,-1.24
268.48,-2.31,-1.06,-2.31,-1.06,1.06,1.09,0.80,-1.25,-1.25,-1.25
271.16,-2.32,-1.05,-2.32,-1.06,1.06,1.08,0.79,-1.26,-1.26,-1.26
273.87,-2.34,-1.07,-2.34,-1.06,1.06,1.08,0.79,-1.28,-1.27,-1.27
276.61,-2.35,-1.06,-2.35,-1.06,1.06,1.07,0.78,-1.29,-1.29,-1.29
279.38,-2.36,-1.07,-2.36,-1.06,1.06,1.07,0.77,-1.30,-1.30,-1.29
282.17,-2.36,-1.05,-2.37,-1.06,1.06,1.06,0.77,-1.30,-1.31,-1.31
284.99,-2.38,-1.06,-2.37,-1.05,1.05,1.05,0.76,-1.33,-1.32,-1.32
287.84,-2.38,-1.04,-2.38,-1.04,1.04,1.03,0.75,-1.33,-1.33,-1.34
290.72,-2.38,-1.03,-2.38,-1.04,1.04,1.02,0.74,-1.34,-1.35,-1.35
293.63,-2.39,-1.03,-2.38,-1.02,1.03,1.01,0.74,-1.36,-1.36,-1.36
296.57,-2.39,-1.02,-2.39,-1.02,1.02,0.99,0.73,-1.37,-1.37,-1.37
299.53,-2.39,-1.01,-2.39,-1.01,1.01,0.97,0.72,-1.38,-1.38,-1.38
302.53,-2.40,-1.01,-2.39,-1.00,1.00,0.96,0.72,-1.40,-1.39,-1.39
305.55,-2.39,-0.99,-2.39,-1.00,1.00,0.94,0.71,-1.39,-1.40,-1.40
308.61,-2.40,-0.99,-2.39,-0.99,0.99,0.92,0.70,-1.41,-1.41,-1.40
311.69,-2.39,-0.98,-2.39,-0.98,0.98,0.90,0.70,-1.41,-1.41,-1.41
314.81,-2.39,-0.97,-2.39,-0.97,0.97,0.88,0.69,-1.42,-1.42,-1.42
317.96,-2.39,-0.96,-2.39,-0.96,0.97,0.86,0.69,-1.42,-1.42,-1.42
321.14,-2.39,-0.96,-2.39,-0.96,0.96,0.85,0.68,-1.43,-1.43,-1.43
324.35,-2.39,-0.95,-2.39,-0.95,0.95,0.83,0.68,-1.44,-1.44,-1.44
327.59,-2.39,-0.94,-2.38,-0.94,0.94,0.81,0.68,-1.45,-1.45,-1.44
330.87,-2.38,-0.92,-2.38,-0.93,0.93,0.79,0.67,-1.45,-1.46,-1.46
334.18,-2.37,-0.91,-2.37,-0.91,0.91,0.77,0.67,-1.46,-1.46,-1.46
337.52,-2.37,-0.91,-2.36,-0.90,0.90,0.75,0.67,-1.47,-1.47,-1.46
340.90,-2.35,-0.87,-2.35,-0.88,0.88,0.74,0.67,-1.47,-1.47,-1.47
344.30,-2.35,-0.87,-2.35,-0.87,0.87,0.72,0.67,-1.48,-1.48,-1.48
347.75,-2.34,-0.85,-2.34,-0.85,0.85,0.70,0.67,-1.49,-1.49,-1.49
351.23,-2.33,-0.83,-2.33,-0.83,0.83,0.69,0.67,-1.50,-1.50,-1.50
354.74,-2.32,-0.80,-2.32,-0.81,0.81,0.67,0.67,-1.50,-1.51,-1.51
358.28,-2.32,-0.80,-2.32,-0.80,0.80,0.66,0.67,-1.52,-1.52,-1.52
361.87,-2.31,-0.78,-2.31,-0.78,0.78,0.64,0.67,-1.53,-1.53,-1.53
365.49,-2.30,-0.76,-2.30,-0.76,0.76,0.63,0.67,-1.54,-1.54,-1.54
369.14,-2.29,-0.74,-2.29,-0.74,0.74,0.62,0.67,-1.55,-1.55,-1.55
372.83,-2.28,-0.71,-2.28,-0.72,0.71,0.61,0.68,-1.56,-1.56,-1.56
376.56,-2.27,-0.69,-2.27,-0.69,0.69,0.60,0.68,-1.58,-1.58,-1.58
380.33,-2.26,-0.67,-2.26,-0.67,0.67,0.59,0.69,-1.59,-1.59,-1.59
384.13,-2.24,-0.64,-2.24,-0.64,0.64,0.58,0.69,-1.60,-1.60,-1.60
387.97,-2.23,-0.62,-2.23,-0.62,0.62,0.57,0.69,-1.61,-1.61,-1.61
391.85,-2.22,-0.60,-2.21,-0.59,0.60,0.56,0.70,-1.62,-1.62,-1.62
395.77,-2.20,-0.57,-2.20,-0.57,0.57,0.55,0.71,-1.63,-1.63,-1.63
399.73,-2.19,-0.54,-2.19,-0.55,0.55,0.54,0.71,-1.64,-1.64,-1.64
403.72,-2.18,-0.53,-2.18,-0.53,0.53,0.54,0.72,-1.65,-1.65,-1.65
407.76,-2.17,-0.51,-2.16,-0.51,0.50,0.53,0.72,-1.66,-1.66,-1.66
411.84,-2.15,-0.48,-2.15,-0.48,0.48,0.53,0.73,-1.67,-1.67,-1.67
415.96,-2.14,-0.46,-2.14,-0.46,0.46,0.52,0.74,-1.67,-1.68,-1.68
420.12,-2.14,-0.45,-2.13,-0.44,0.44,0.52,0.74,-1.69,-1.69,-1.69
424.32,-2.13,-0.43,-2.13,-0.43,0.43,0.52,0.75,-1.70,-1.70,-1.70
428.56,-2.12,-0.41,-2.12,-0.41,0.41,0.51,0.76,-1.71,-1.71,-1.71
432.85,-2.12,-0.39,-2.12,-0.39,0.39,0.51,0.77,-1.73,-1.72,-1.72
437.18,-2.12,-0.38,-2.11,-0.38,0.38,0.51,0.77,-1.74,-1.74,-1.74
441.55,-2.11,-0.36,-2.11,-0.36,0.36,0.51,0.78,-1.74,-1.75,-1.75
445.96,-2.12,-0.35,-2.12,-0.35,0.35,0.51,0.79,-1.76,-1.76,-1.77
450.42,-2.12,-0.34,-2.12,-0.34,0.34,0.51,0.79,-1.77,-1.78,-1.78
454.93,-2.13,-0.34,-2.13,-0.34,0.34,0.51,0.80,-1.79,-1.79,-1.79
459.48,-2.14,-0.33,-2.14,-0.33,0.33,0.52,0.80,-1.81,-1.81,-1.81
464.07,-2.15,-0.33,-2.15,-0.33,0.33,0.52,0.81,-1.82,-1.82,-1.82
468.71,-2.16,-0.33,-2.16,-0.33,0.32,0.52,0.81,-1.83,-1.83,-1.83
473.40,-2.17,-0.33,-2.17,-0.33,0.33,0.53,0.82,-1.84,-1.84,-1.84
478.13,-2.19,-0.33,-2.19,-0.33,0.33,0.54,0.82,-1.86,-1.86,-1.86
482.91,-2.21,-0.33,-2.21,-0.33,0.34,0.54,0.82,-1.87,-1.87,-1.87
487.74,-2.23,-0.34,-2.23,-0.35,0.35,0.55,0.82,-1.88,-1.88,-1.88
492.62,-2.26,-0.36,-2.25,-0.36,0.36,0.56,0.82,-1.90,-1.90,-1.90
497.55,-2.28,-0.37,-2.28,-0.38,0.37,0.57,0.83,-1.91,-1.91,-1.91
502.52,-2.31,-0.39,-2.31,-0.39,0.39,0.58,0.82,-1.92,-1.92,-1.92
