frequency,raw,error,smoothed,error_smoothed,equalization,parametric_eq,fixed_band_eq,equalized_raw,equalized_smoothed,target
20.00,15.69,14.39,15.69,14.39,-14.39,-14.32,-8.22,1.30,1.30,1.30
20.20,15.76,14.49,15.76,14.49,-14.48,-14.41,-8.40,1.27,1.27,1.27
20.40,15.83,14.58,15.83,14.58,-14.58,-14.50,-8.59,1.25,1.25,1.25
20.61,15.90,14.67,15.90,14.67,-14.68,-14.59,-8.78,1.22,1.23,1.23
20.81,15.98,14.77,15.97,14.76,-14.77,-14.68,-8.97,1.21,1.21,1.21
21.02,16.05,14.86,16.04,14.85,-14.86,-14.77,-9.17,1.19,1.19,1.19
21.23,16.11,14.94,16.11,14.95,-14.94,-14.86,-9.37,1.16,1.17,1.17
21.44,16.18,15.03,16.18,15.03,-15.03,-14.94,-9.58,1.15,1.15,1.15
21.66,16.25,15.12,16.24,15.11,-15.11,-15.03,-9.80,1.13,1.13,1.13
21.87,16.31,15.19,16.31,15.20,-15.19,-15.11,-10.02,1.12,1.12,1.12
22.09,16.38,15.28,16.38,15.27,-15.27,-15.19,-10.25,1.11,1.10,1.10
22.31,16.44,15.35,16.44,15.35,-15.35,-15.28,-10.48,1.09,1.09,1.09
22.54,16.50,15.42,16.50,15.42,-15.42,-15.35,-10.72,1.08,1.08,1.08
22.76,16.56,15.49,16.56,15.49,-15.49,-15.43,-10.97,1.07,1.07,1.07
22.99,16.62,15.56,16.62,15.56,-15.56,-15.51,-11.23,1.06,1.06,1.06
23.22,16.68,15.63,16.67,15.63,-15.63,-15.58,-11.49,1.05,1.05,1.05
23.45,16.73,15.69,16.73,15.69,-15.69,-15.65,-11.76,1.04,1.04,1.04
23.69,16.79,15.76,16.79,15.76,-15.76,-15.72,-12.04,1.03,1.03,1.03
23.92,16.85,15.82,16.84,15.82,-15.82,-15.79,-12.33,1.03,1.03,1.03
24.16,16.90,15.88,16.90,15.88,-15.88,-15.86,-12.62,1.02,1.02,1.02
24.40,16.96,15.94,16.96,15.94,-15.94,-15.92,-12.93,1.02,1.02,1.02
24.65,17.01,16.00,17.01,16.00,-16.00,-15.98,-13.24,1.01,1.01,1.01
24.89,17.06,16.05,17.06,16.05,-16.05,-16.04,-13.56,1.01,1.01,1.01
25.14,17.11,16.11,17.11,16.10,-16.10,-16.09,-13.89,1.00,1.00,1.00
25.39,17.15,16.15,17.15,16.15,-16.16,-16.14,-14.24,0.99,1.00,1.00
25.65,17.20,16.21,17.20,16.20,-16.20,-16.19,-14.59,0.99,0.99,0.99
25.91,17.24,16.25,17.24,16.25,-16.25,-16.24,-14.96,0.99,0.99,0.99
26.16,17.28,16.30,17.28,16.30,-16.30,-16.28,-15.33,0.98,0.98,0.98
26.43,17.32,16.34,17.32,16.34,-16.34,-16.33,-15.72,0.98,0.98,0.98
26.69,17.36,16.39,17.36,16.38,-16.38,-16.36,-16.11,0.98,0.97,0.97
26.96,17.39,16.42,17.39,16.42,-16.42,-16.40,-16.52,0.97,0.97,0.97
27.23,17.43,16.46,17.43,16.46,-16.46,-16.43,-16.94,0.97,0.97,0.97
27.50,17.46,16.50,17.46,16.49,-16.50,-16.46,-17.36,0.96,0.96,0.96
27.77,17.49,16.53,17.49,16.53,-16.53,-16.48,-17.79,0.96,0.96,0.96
28.05,17.51,16.56,17.51,16.56,-16.56,-16.51,-18.23,0.95,0.95,0.95
28.33,17.54,16.59,17.54,16.59,-16.59,-16.52,-18.67,0.95,0.94,0.95
28.62,17.56,16.61,17.56,16.61,-16.62,-16.54,-19.10,0.94,0.94,0.95
28.90,17.58,16.64,17.58,16.64,-16.64,-16.55,-19.53,0.94,0.94,0.94
29.19,17.60,16.66,17.60,16.66,-16.66,-16.56,-19.95,0.94,0.94,0.94
29.48,17.61,16.67,17.61,16.67,-16.67,-16.57,-20.34,0.94,0.95,0.94
29.78,17.62,16.68,17.62,16.68,-16.66,-16.57,-20.71,0.95,0.95,0.94
30.08,17.62,16.68,17.61,16.67,-16.65,-16.57,-21.03,0.97,0.95,0.94
30.38,17.58,16.64,17.58,16.64,-16.63,-16.57,-21.31,0.95,0.95,0.94
30.68,17.53,16.60,17.54,16.60,-16.60,-16.56,-21.52,0.93,0.94,0.93
30.99,17.49,16.56,17.49,16.56,-16.56,-16.55,-21.67,0.93,0.93,0.93
31.30,17.44,16.51,17.43,16.51,-16.51,-16.54,-21.75,0.93,0.92,0.93
31.61,17.38,16.45,17.38,16.45,-16.46,-16.52,-21.75,0.92,0.92,0.93
31.93,17.32,16.40,17.33,16.40,-16.41,-16.50,-21.69,0.91,0.91,0.92
32.24,17.28,16.36,17.27,16.36,-16.36,-16.48,-21.56,0.92,0.91,0.92
32.57,17.23,16.32,17.23,16.31,-16.32,-16.46,-21.37,0.91,0.91,0.91
32.89,17.18,16.27,17.18,16.27,-16.27,-16.43,-21.14,0.90,0.91,0.91
33.22,17.15,16.24,17.14,16.23,-16.24,-16.41,-20.87,0.91,0.91,0.91
33.55,17.11,16.20,17.11,16.20,-16.20,-16.38,-20.58,0.91,0.90,0.91
33.89,17.07,16.17,17.07,16.17,-16.17,-16.34,-20.26,0.90,0.90,0.90
34.23,17.04,16.14,17.04,16.14,-16.14,-16.31,-19.94,0.90,0.90,0.90
34.57,17.01,16.12,17.01,16.12,-16.12,-16.27,-19.61,0.89,0.89,0.89
34.92,16.99,16.10,16.99,16.10,-16.10,-16.24,-19.29,0.89,0.89,0.89
35.27,16.97,16.08,16.97,16.08,-16.08,-16.20,-18.96,0.89,0.89,0.89
35.62,16.95,16.06,16.95,16.06,-16.06,-16.16,-18.65,0.88,0.88,0.89
35.97,16.93,16.05,16.93,16.05,-16.05,-16.11,-18.34,0.88,0.88,0.88
36.33,16.92,16.04,16.92,16.04,-16.04,-16.07,-18.04,0.88,0.88,0.88
36.70,16.92,16.04,16.91,16.03,-16.03,-16.03,-17.75,0.89,0.88,0.88
37.06,16.91,16.03,16.91,16.03,-16.03,-15.98,-17.48,0.88,0.88,0.88
37.43,16.90,16.02,16.90,16.02,-16.02,-15.93,-17.21,0.88,0.88,0.88
37.81,16.89,16.02,16.89,16.02,-16.02,-15.89,-16.96,0.87,0.87,0.87
38.19,16.88,16.01,16.88,16.01,-16.01,-15.84,-16.73,0.87,0.86,0.87
38.57,16.87,16.01,16.87,16.01,-16.01,-15.79,-16.50,0.86,0.86,0.86
38.95,16.86,16.00,16.86,16.00,-16.01,-15.74,-16.29,0.85,0.85,0.86
39.34,16.86,16.01,16.85,16.00,-16.00,-15.70,-16.09,0.86,0.85,0.85
39.74,16.85,16.00,16.85,16.00,-16.00,-15.65,-15.90,0.85,0.85,0.85
40.14,16.84,15.99,16.84,15.99,-15.99,-15.60,-15.72,0.85,0.85,0.85
40.54,16.83,15.99,16.83,15.98,-15.98,-15.55,-15.56,0.85,0.85,0.84
40.94,16.81,15.97,16.81,15.97,-15.97,-15.51,-15.40,0.84,0.84,0.84
41.35,16.80,15.96,16.79,15.96,-15.96,-15.46,-15.26,0.84,0.84,0.84
41.76,16.78,15.94,16.78,15.93,-15.94,-15.42,-15.13,0.84,0.84,0.84
42.18,16.76,15.91,16.76,15.92,-15.92,-15.37,-15.00,0.83,0.84,0.85
42.60,16.75,15.90,16.75,15.90,-15.90,-15.33,-14.89,0.85,0.85,0.85
43.03,16.74,15.89,16.73,15.88,-15.88,-15.29,-14.79,0.86,0.86,0.85
43.46,16.71,15.86,16.71,15.86,-15.85,-15.25,-14.70,0.86,0.86,0.85
43.90,16.68,15.83,16.68,15.82,-15.82,-15.21,-14.62,0.86,0.86,0.85
44.33,16.64,15.78,16.64,15.79,-15.79,-15.17,-14.55,0.85,0.86,0.86
44.78,16.61,15.75,16.61,15.75,-15.75,-15.13,-14.49,0.86,0.85,0.86
45.23,16.57,15.71,16.57,15.71,-15.71,-15.10,-14.44,0.86,0.86,0.86
45.68,16.53,15.67,16.53,15.67,-15.67,-15.06,-14.40,0.86,0.86,0.86
46.13,16.49,15.63,16.48,15.63,-15.63,-15.03,-14.36,0.86,0.85,0.86
46.60,16.44,15.59,16.44,15.59,-15.59,-15.00,-14.34,0.85,0.85,0.85
47.06,16.39,15.54,16.39,15.54,-15.54,-14.97,-14.32,0.84,0.85,0.85
47.53,16.35,15.50,16.35,15.50,-15.50,-14.95,-14.31,0.85,0.85,0.85
48.01,16.30,15.45,16.30,15.45,-15.45,-14.92,-14.31,0.85,0.85,0.85
48.49,16.25,15.41,16.24,15.40,-15.40,-14.90,-14.32,0.85,0.85,0.84
48.97,16.19,15.35,16.19,15.35,-15.35,-14.87,-14.33,0.84,0.84,0.84
49.46,16.13,15.29,16.13,15.29,-15.29,-14.85,-14.36,0.84,0.84,0.84
49.96,16.08,15.24,16.07,15.23,-15.23,-14.84,-14.39,0.84,0.84,0.84
50.46,16.02,15.17,16.02,15.17,-15.18,-14.82,-14.42,0.84,0.84,0.85
50.96,15.96,15.11,15.96,15.11,-15.12,-14.80,-14.46,0.84,0.85,0.85
51.47,15.91,15.06,15.90,15.05,-15.06,-14.79,-14.51,0.85,0.85,0.85
51.99,15.85,15.00,15.85,14.99,-15.00,-14.77,-14.56,0.85,0.85,0.85
52.51,15.79,14.93,15.79,14.93,-14.93,-14.75,-14.62,0.86,0.86,0.86
53.03,15.73,14.87,15.73,14.87,-14.87,-14.74,-14.68,0.86,0.86,0.86
53.56,15.67,14.81,15.67,14.81,-14.81,-14.72,-14.74,0.86,0.86,0.86
54.10,15.61,14.75,15.60,14.75,-14.74,-14.70,-14.80,0.87,0.87,0.86
54.64,15.54,14.68,15.54,14.67,-14.67,-14.68,-14.87,0.87,0.86,0.86
55.18,15.47,14.60,15.47,14.60,-14.61,-14.66,-14.93,0.86,0.86,0.87
55.74,15.40,14.53,15.40,14.53,-14.54,-14.63,-14.99,0.86,0.86,0.87
56.29,15.34,14.47,15.34,14.46,-14.47,-14.60,-15.05,0.87,0.87,0.87
56.86,15.28,14.40,15.27,14.40,-14.40,-14.56,-15.10,0.88,0.87,0.88
57.42,15.21,14.33,15.21,14.33,-14.33,-14.52,-15.14,0.88,0.88,0.88
58.00,15.14,14.26,15.14,14.26,-14.26,-14.48,-15.18,0.88,0.88,0.88
58.58,15.08,14.20,15.07,14.19,-14.19,-14.43,-15.20,0.89,0.88,0.88
59.16,15.01,14.12,15.01,14.12,-14.12,-14.37,-15.22,0.89,0.89,0.89
59.76,14.94,14.05,14.94,14.05,-14.05,-14.30,-15.22,0.89,0.89,0.89
60.35,14.87,13.98,14.87,13.97,-13.97,-14.23,-15.20,0.89,0.89,0.89
60.96,14.80,13.90,14.80,13.90,-13.90,-14.14,-15.17,0.90,0.90,0.90
61.57,14.72,13.82,14.72,13.82,-13.82,-14.05,-15.12,0.89,0.90,0.90
62.18,14.65,13.75,14.65,13.75,-13.75,-13.95,-15.06,0.90,0.90,0.90
62.80,14.57,13.67,14.57,13.67,-13.67,-13.84,-14.97,0.90,0.90,0.90
63.43,14.49,13.59,14.49,13.59,-13.59,-13.73,-14.87,0.90,0.90,0.90
64.07,14.41,13.51,14.41,13.51,-13.51,-13.60,-14.75,0.90,0.90,0.90
64.71,14.33,13.43,14.33,13.43,-13.42,-13.47,-14.61,0.90,0.90,0.90
65.35,14.24,13.34,14.24,13.34,-13.34,-13.34,-14.46,0.90,0.90,0.90
66.01,14.15,13.25,14.15,13.25,-13.25,-13.19,-14.29,0.90,0.90,0.90
66.67,14.06,13.16,14.06,13.16,-13.16,-13.04,-14.11,0.90,0.90,0.90
67.33,13.97,13.07,13.97,13.07,-13.07,-12.89,-13.91,0.90,0.90,0.90
68.01,13.88,12.98,13.88,12.98,-12.97,-12.73,-13.71,0.91,0.90,0.90
68.69,13.78,12.88,13.78,12.88,-12.87,-12.56,-13.49,0.91,0.90,0.90
69.37,13.67,12.77,13.67,12.77,-12.77,-12.40,-13.27,0.90,0.90,0.90
70.07,13.56,12.66,13.56,12.66,-12.66,-12.23,-13.04,0.90,0.90,0.90
70.77,13.45,12.55,13.45,12.55,-12.55,-12.06,-12.81,0.90,0.90,0.90
71.48,13.34,12.44,13.34,12.44,-12.43,-11.89,-12.57,0.90,0.90,0.90
72.19,13.23,12.32,13.22,12.32,-12.31,-11.72,-12.33,0.91,0.91,0.91
72.91,13.10,12.19,13.10,12.19,-12.19,-11.55,-12.09,0.91,0.91,0.91
73.64,12.98,12.07,12.98,12.06,-12.06,-11.37,-11.85,0.92,0.91,0.91
74.38,12.85,11.93,12.85,11.93,-11.93,-11.20,-11.61,0.92,0.92,0.92
75.12,12.72,11.80,12.72,11.80,-11.80,-11.03,-11.38,0.92,0.92,0.92
75.87,12.58,11.66,12.58,11.66,-11.66,-10.87,-11.14,0.92,0.92,0.92
76.63,12.45,11.52,12.44,11.52,-11.52,-10.70,-10.91,0.93,0.92,0.93
77.40,12.31,11.38,12.31,11.38,-11.38,-10.53,-10.68,0.93,0.93,0.93
78.17,12.17,11.23,12.17,11.24,-11.24,-10.37,-10.46,0.93,0.93,0.94
78.95,12.04,11.10,12.03,11.09,-11.10,-10.21,-10.24,0.94,0.94,0.94
79.74,11.90,10.96,11.89,10.95,-10.95,-10.05,-10.02,0.94,0.94,0.94
80.54,11.75,10.80,11.75,10.81,-10.81,-9.90,-9.81,0.94,0.94,0.95
81.35,11.61,10.66,11.61,10.66,-10.66,-9.74,-9.60,0.95,0.95,0.95
82.16,11.46,10.51,11.46,10.51,-10.50,-9.59,-9.40,0.96,0.96,0.95
82.98,11.31,10.36,11.30,10.35,-10.34,-9.44,-9.20,0.97,0.96,0.95
83.81,11.14,10.19,11.14,10.19,-10.18,-9.29,-9.01,0.96,0.96,0.95
84.65,10.96,10.01,10.96,10.01,-10.01,-9.15,-8.83,0.95,0.95,0.95
85.50,10.79,9.83,10.79,9.83,-9.84,-9.01,-8.64,0.95,0.95,0.96
86.35,10.62,9.66,10.62,9.66,-9.67,-8.87,-8.47,0.95,0.95,0.96
87.22,10.45,9.49,10.45,9.49,-9.49,-8.73,-8.30,0.95,0.95,0.96
88.09,10.28,9.32,10.28,9.32,-9.32,-8.60,-8.13,0.96,0.96,0.96
88.97,10.11,9.15,10.11,9.15,-9.14,-8.47,-7.97,0.97,0.96,0.96
89.86,9.93,8.97,9.93,8.97,-8.97,-8.34,-7.82,0.96,0.96,0.96
90.76,9.75,8.79,9.74,8.79,-8.79,-8.21,-7.67,0.96,0.96,0.96
91.66,9.56,8.60,9.56,8.60,-8.61,-8.08,-7.52,0.95,0.95,0.96
92.58,9.37,8.41,9.37,8.41,-8.42,-7.96,-7.38,0.95,0.95,0.96
93.51,9.19,8.23,9.19,8.23,-8.23,-7.84,-7.25,0.96,0.96,0.96
94.44,9.01,8.05,9.00,8.04,-8.03,-7.72,-7.12,0.98,0.97,0.96
95.39,8.80,7.84,8.80,7.84,-7.82,-7.60,-6.99,0.98,0.98,0.96
96.34,8.58,7.62,8.58,7.62,-7.60,-7.49,-6.87,0.98,0.98,0.96
97.30,8.36,7.39,8.36,7.39,-7.38,-7.37,-6.75,0.97,0.98,0.97
98.28,8.14,7.17,8.14,7.17,-7.17,-7.26,-6.63,0.97,0.97,0.97
99.26,7.91,6.94,7.91,6.94,-6.95,-7.15,-6.52,0.95,0.95,0.97
100.25,7.69,6.72,7.68,6.71,-6.75,-7.04,-6.42,0.94,0.93,0.97
101.25,7.46,6.49,7.47,6.50,-6.54,-6.94,-6.32,0.92,0.93,0.97
102.27,7.27,6.30,7.30,6.33,-6.34,-6.83,-6.22,0.93,0.96,0.97
103.29,7.15,6.18,7.13,6.16,-6.14,-6.73,-6.12,1.01,0.99,0.97
104.32,6.99,6.01,6.96,5.98,-5.94,-6.62,-6.03,1.05,1.02,0.98
105.37,6.75,5.77,6.76,5.78,-5.74,-6.52,-5.94,1.01,1.02,0.98
106.42,6.54,5.56,6.54,5.56,-5.54,-6.42,-5.85,0.99,1.00,0.98
107.48,6.32,5.33,6.32,5.33,-5.34,-6.33,-5.77,0.97,0.98,0.99
108.56,6.12,5.13,6.12,5.13,-5.14,-6.23,-5.69,0.98,0.98,0.99
109.64,5.93,4.94,5.92,4.93,-4.94,-6.14,-5.61,0.98,0.98,0.99
110.74,5.74,4.75,5.74,4.75,-4.76,-6.04,-5.53,0.98,0.98,0.99
111.85,5.57,4.57,5.57,4.57,-4.58,-5.95,-5.45,0.99,0.99,1.00
112.97,5.41,4.41,5.40,4.41,-4.42,-5.86,-5.38,0.99,0.98,1.00
114.10,5.27,4.27,5.27,4.27,-4.28,-5.77,-5.31,0.99,0.99,1.00
115.24,5.13,4.13,5.15,4.15,-4.15,-5.68,-5.23,0.98,1.00,1.00
116.39,5.06,4.06,5.04,4.04,-4.03,-5.59,-5.16,1.03,1.02,1.00
117.55,4.96,3.95,4.94,3.94,-3.92,-5.50,-5.10,1.04,1.02,1.01
118.73,4.84,3.83,4.84,3.83,-3.83,-5.42,-5.03,1.01,1.01,1.01
119.92,4.74,3.73,4.75,3.73,-3.75,-5.33,-4.96,0.99,1.00,1.01
121.12,4.67,3.65,4.68,3.66,-3.68,-5.25,-4.89,0.99,1.00,1.02
122.33,4.64,3.62,4.63,3.61,-3.62,-5.17,-4.82,1.02,1.01,1.02
123.55,4.61,3.58,4.60,3.58,-3.57,-5.09,-4.76,1.04,1.03,1.03
124.79,4.58,3.55,4.58,3.55,-3.54,-5.01,-4.69,1.04,1.04,1.03
126.03,4.55,3.52,4.55,3.52,-3.51,-4.93,-4.62,1.03,1.04,1.03
127.29,4.54,3.50,4.54,3.50,-3.50,-4.85,-4.56,1.03,1.03,1.04
128.57,4.54,3.50,4.54,3.50,-3.50,-4.77,-4.49,1.03,1.03,1.04
129.85,4.55,3.50,4.55,3.50,-3.51,-4.70,-4.42,1.04,1.04,1.05
131.15,4.57,3.52,4.57,3.52,-3.52,-4.62,-4.36,1.05,1.05,1.05
132.46,4.59,3.54,4.59,3.54,-3.53,-4.55,-4.29,1.05,1.06,1.05
133.79,4.62,3.57,4.62,3.57,-3.56,-4.48,-4.23,1.06,1.06,1.05
135.12,4.65,3.60,4.64,3.60,-3.58,-4.40,-4.16,1.06,1.06,1.05
136.48,4.67,3.62,4.67,3.62,-3.62,-4.33,-4.10,1.05,1.06,1.05
137.84,4.71,3.65,4.70,3.64,-3.65,-4.26,-4.03,1.06,1.05,1.06
139.22,4.73,3.67,4.74,3.68,-3.69,-4.19,-3.97,1.04,1.05,1.06
140.61,4.78,3.72,4.78,3.72,-3.73,-4.12,-3.90,1.04,1.05,1.06
142.02,4.85,3.79,4.84,3.78,-3.78,-4.06,-3.84,1.07,1.06,1.06
143.44,4.89,3.83,4.89,3.83,-3.83,-3.99,-3.78,1.06,1.07,1.06
144.87,4.95,3.88,4.94,3.88,-3.87,-3.93,-3.71,1.07,1.07,1.07
146.32,4.99,3.92,4.99,3.92,-3.92,-3.86,-3.65,1.07,1.07,1.07
147.78,5.05,3.98,5.04,3.97,-3.97,-3.80,-3.59,1.08,1.08,1.07
149.26,5.09,4.01,5.09,4.01,-4.00,-3.73,-3.54,1.08,1.08,1.08
150.75,5.13,4.05,5.12,4.05,-4.04,-3.67,-3.48,1.09,1.09,1.08
152.26,5.15,4.07,5.15,4.07,-4.07,-3.61,-3.42,1.08,1.08,1.08
153.78,5.18,4.09,5.18,4.09,-4.10,-3.55,-3.37,1.08,1.08,1.09
155.32,5.20,4.11,5.20,4.11,-4.12,-3.49,-3.32,1.08,1.08,1.09
156.88,5.23,4.14,5.22,4.13,-4.14,-3.44,-3.26,1.09,1.09,1.09
158.44,5.24,4.14,5.24,4.15,-4.15,-3.38,-3.21,1.09,1.09,1.10
160.03,5.26,4.16,5.26,4.16,-4.16,-3.32,-3.17,1.10,1.10,1.10
161.63,5.28,4.18,5.27,4.17,-4.16,-3.27,-3.12,1.11,1.11,1.10
163.24,5.28,4.18,5.27,4.17,-4.16,-3.21,-3.07,1.11,1.11,1.10
164.88,5.26,4.16,5.26,4.16,-4.16,-3.16,-3.03,1.10,1.10,1.10
166.53,5.25,4.14,5.25,4.15,-4.15,-3.11,-2.99,1.10,1.10,1.11
168.19,5.24,4.13,5.24,4.13,-4.14,-3.06,-2.95,1.10,1.10,1.11
169.87,5.23,4.12,5.23,4.11,-4.12,-3.01,-2.91,1.11,1.11,1.11
171.57,5.21,4.09,5.21,4.09,-4.09,-2.96,-2.87,1.11,1.12,1.12
173.29,5.19,4.07,5.18,4.07,-4.06,-2.91,-2.84,1.12,1.12,1.12
175.02,5.15,4.03,5.15,4.03,-4.03,-2.86,-2.81,1.12,1.12,1.12
176.77,5.11,3.99,5.11,3.99,-3.98,-2.82,-2.78,1.13,1.13,1.12
178.54,5.06,3.93,5.06,3.94,-3.93,-2.77,-2.75,1.13,1.13,1.13
180.32,5.01,3.88,5.00,3.87,-3.87,-2.73,-2.72,1.14,1.14,1.13
182.13,4.94,3.81,4.93,3.80,-3.79,-2.69,-2.69,1.14,1.13,1.13
183.95,4.83,3.70,4.84,3.72,-3.72,-2.64,-2.67,1.11,1.13,1.13
185.79,4.75,3.63,4.75,3.63,-3.63,-2.60,-2.65,1.12,1.12,1.12
187.65,4.66,3.54,4.65,3.53,-3.54,-2.56,-2.63,1.12,1.11,1.12
189.52,4.56,3.44,4.56,3.44,-3.44,-2.53,-2.61,1.12,1.12,1.12
191.42,4.46,3.34,4.46,3.34,-3.34,-2.49,-2.59,1.12,1.12,1.12
193.33,4.36,3.23,4.36,3.23,-3.24,-2.45,-2.57,1.12,1.12,1.13
195.27,4.26,3.13,4.26,3.13,-3.13,-2.42,-2.56,1.13,1.13,1.13
197.22,4.15,3.02,4.15,3.02,-3.01,-2.39,-2.54,1.13,1.13,1.13
199.19,4.04,2.91,4.04,2.90,-2.90,-2.35,-2.53,1.14,1.14,1.13
201.18,3.92,2.78,3.92,2.78,-2.78,-2.32,-2.52,1.14,1.14,1.14
203.19,3.80,2.66,3.80,2.66,-2.65,-2.29,-2.51,1.14,1.14,1.14
205.23,3.68,2.54,3.68,2.53,-2.53,-2.26,-2.50,1.15,1.15,1.14
207.28,3.56,2.41,3.55,2.41,-2.41,-2.24,-2.50,1.15,1.15,1.15
209.35,3.43,2.28,3.43,2.28,-2.28,-2.21,-2.49,1.14,1.14,1.15
211.44,3.31,2.16,3.31,2.16,-2.17,-2.19,-2.48,1.14,1.14,1.15
213.56,3.20,2.04,3.20,2.04,-2.05,-2.16,-2.48,1.14,1.14,1.16
215.69,3.10,1.94,3.10,1.94,-1.95,-2.14,-2.47,1.15,1.15,1.16
217.85,3.00,1.84,3.00,1.84,-1.84,-2.12,-2.47,1.16,1.16,1.16
220.03,2.92,1.76,2.91,1.75,-1.74,-2.10,-2.46,1.18,1.17,1.16
222.23,2.83,1.66,2.83,1.66,-1.65,-2.08,-2.46,1.18,1.18,1.17
224.45,2.74,1.57,2.73,1.57,-1.56,-2.07,-2.45,1.18,1.18,1.17
226.70,2.65,1.48,2.65,1.48,-1.47,-2.05,-2.45,1.17,1.17,1.17
228.96,2.56,1.39,2.57,1.40,-1.40,-2.04,-2.45,1.16,1.17,1.17
231.25,2.51,1.33,2.50,1.32,-1.33,-2.03,-2.44,1.18,1.17,1.18
233.57,2.45,1.27,2.44,1.26,-1.27,-2.02,-2.44,1.18,1.17,1.18
235.90,2.40,1.21,2.41,1.22,-1.23,-2.01,-2.43,1.17,1.18,1.19
238.26,2.38,1.19,2.38,1.18,-1.19,-2.00,-2.43,1.19,1.19,1.19
240.64,2.37,1.17,2.37,1.17,-1.17,-2.00,-2.42,1.20,1.20,1.20
243.05,2.37,1.16,2.37,1.16,-1.16,-1.99,-2.41,1.21,1.21,1.21
245.48,2.38,1.17,2.38,1.16,-1.16,-1.99,-2.40,1.22,1.22,1.21
247.93,2.40,1.18,2.39,1.17,-1.17,-1.99,-2.39,1.23,1.23,1.22
250.41,2.42,1.19,2.42,1.19,-1.19,-1.99,-2.38,1.23,1.23,1.23
252.92,2.46,1.22,2.46,1.22,-1.23,-1.99,-2.37,1.23,1.23,1.24
255.45,2.51,1.27,2.50,1.26,-1.27,-2.00,-2.36,1.23,1.23,1.24
258.00,2.56,1.31,2.57,1.32,-1.33,-2.00,-2.35,1.23,1.24,1.25
260.58,2.65,1.40,2.65,1.40,-1.40,-2.01,-2.33,1.25,1.25,1.25
263.19,2.74,1.48,2.74,1.48,-1.48,-2.02,-2.32,1.26,1.26,1.26
265.82,2.84,1.58,2.83,1.57,-1.56,-2.03,-2.30,1.27,1.27,1.26
268.48,2.92,1.65,2.92,1.66,-1.65,-2.04,-2.29,1.26,1.27,1.27
271.16,3.01,1.74,3.02,1.75,-1.75,-2.06,-2.27,1.26,1.27,1.27
273.87,3.13,1.86,3.12,1.85,-1.84,-2.07,-2.25,1.29,1.28,1.27
276.61,3.23,1.95,3.22,1.95,-1.93,-2.09,-2.24,1.29,1.29,1.28
279.38,3.31,2.03,3.31,2.03,-2.03,-2.11,-2.22,1.28,1.28,1.28
282.17,3.40,2.12,3.40,2.11,-2.12,-2.13,-2.20,1.27,1.28,1.28
284.99,3.48,2.19,3.49,2.20,-2.22,-2.15,-2.19,1.26,1.27,1.29
287.84,3.60,2.31,3.59,2.30,-2.30,-2.17,-2.17,1.29,1.28,1.29
290.72,3.68,2.39,3.68,2.39,-2.39,-2.20,-2.15,1.29,1.29,1.29
293.63,3.77,2.48,3.77,2.48,-2.47,-2.23,-2.14,1.30,1.30,1.29
296.57,3.85,2.56,3.85,2.56,-2.55,-2.25,-2.12,1.30,1.30,1.29
299.53,3.92,2.63,3.92,2.62,-2.62,-2.28,-2.10,1.30,1.30,1.29
302.53,3.98,2.68,3.98,2.68,-2.68,-2.31,-2.09,1.30,1.30,1.30
305.55,4.03,2.73,4.04,2.73,-2.73,-2.34,-2.08,1.29,1.30,1.30
308.61,4.09,2.78,4.08,2.78,-2.78,-2.37,-2.06,1.31,1.31,1.31
311.69,4.14,2.83,4.13,2.82,-2.82,-2.41,-2.05,1.32,1.31,1.31
314.81,4.16,2.84,4.17,2.85,-2.85,-2.44,-2.04,1.31,1.32,1.32
317.96,4.20,2.88,4.20,2.87,-2.88,-2.47,-2.03,1.32,1.32,1.32
321.14,4.22,2.89,4.22,2.89,-2.90,-2.51,-2.02,1.32,1.32,1.33
324.35,4.25,2.92,4.24,2.91,-2.91,-2.54,-2.02,1.33,1.33,1.33
327.59,4.26,2.93,4.26,2.93,-2.92,-2.58,-2.01,1.33,1.33,1.33
330.87,4.27,2.93,4.27,2.94,-2.93,-2.61,-2.01,1.34,1.34,1.34
334.18,4.28,2.94,4.28,2.94,-2.93,-2.65,-2.00,1.35,1.35,1.34
337.52,4.29,2.94,4.28,2.93,-2.93,-2.68,-2.00,1.36,1.35,1.35
340.90,4.28,2.92,4.28,2.92,-2.92,-2.71,-2.00,1.36,1.36,1.36
344.30,4.27,2.91,4.27,2.91,-2.91,-2.74,-2.00,1.35,1.35,1.36
347.75,4.26,2.90,4.26,2.90,-2.91,-2.77,-2.01,1.35,1.35,1.36
351.23,4.26,2.90,4.26,2.89,-2.90,-2.80,-2.01,1.36,1.36,1.36
354.74,4.26,2.89,4.26,2.89,-2.89,-2.83,-2.02,1.36,1.36,1.37
358.28,4.26,2.89,4.26,2.89,-2.89,-2.86,-2.03,1.37,1.37,1.37
361.87,4.26,2.89,4.26,2.89,-2.89,-2.88,-2.03,1.37,1.37,1.37
365.49,4.26,2.89,4.26,2.89,-2.88,-2.90,-2.05,1.37,1.37,1.37
369.14,4.26,2.89,4.26,2.89,-2.89,-2.92,-2.06,1.37,1.37,1.37
372.83,4.26,2.89,4.26,2.88,-2.89,-2.94,-2.07,1.37,1.37,1.37
376.56,4.26,2.88,4.26,2.88,-2.89,-2.95,-2.08,1.37,1.37,1.38
380.33,4.26,2.88,4.26,2.88,-2.89,-2.96,-2.10,1.37,1.37,1.38
384.13,4.27,2.89,4.27,2.89,-2.89,-2.97,-2.12,1.38,1.38,1.38
387.97,4.28,2.90,4.28,2.90,-2.89,-2.97,-2.14,1.39,1.39,1.38
391.85,4.29,2.90,4.28,2.90,-2.89,-2.97,-2.15,1.40,1.40,1.39
395.77,4.28,2.89,4.28,2.89,-2.88,-2.96,-2.17,1.40,1.40,1.39
399.73,4.27,2.87,4.27,2.87,-2.87,-2.96,-2.20,1.40,1.40,1.40
403.72,4.26,2.86,4.25,2.85,-2.86,-2.94,-2.22,1.40,1.40,1.40
407.76,4.24,2.83,4.24,2.83,-2.84,-2.93,-2.24,1.40,1.40,1.41
411.84,4.22,2.81,4.22,2.81,-2.81,-2.91,-2.26,1.41,1.41,1.41
415.96,4.20,2.78,4.20,2.78,-2.78,-2.88,-2.28,1.42,1.42,1.42
420.12,4.17,2.75,4.17,2.75,-2.74,-2.86,-2.30,1.42,1.43,1.42
424.32,4.14,2.72,4.14,2.71,-2.70,-2.82,-2.33,1.43,1.43,1.42
428.56,4.10,2.67,4.09,2.67,-2.66,-2.79,-2.35,1.44,1.43,1.43
432.85,4.05,2.62,4.05,2.62,-2.61,-2.75,-2.37,1.43,1.43,1.43
437.18,3.99,2.56,3.99,2.56,-2.57,-2.71,-2.39,1.42,1.42,1.43
441.55,3.94,2.51,3.94,2.51,-2.52,-2.66,-2.40,1.42,1.42,1.43
445.96,3.89,2.46,3.89,2.46,-2.47,-2.62,-2.42,1.42,1.42,1.43
450.42,3.85,2.42,3.85,2.42,-2.42,-2.57,-2.43,1.42,1.42,1.43
454.93,3.81,2.38,3.81,2.38,-2.38,-2.51,-2.45,1.43,1.43,1.43
459.48,3.77,2.34,3.76,2.34,-2.34,-2.46,-2.45,1.43,1.43,1.43
464.07,3.72,2.29,3.72,2.30,-2.30,-2.40,-2.46,1.42,1.43,1.43
