frequency,raw,error,smoothed,error_smoothed,equalization,parametric_eq,fixed_band_eq,equalized_raw,equalized_smoothed,target
20.00,15.69,14.37,15.69,14.37,-14.37,-14.85,-8.11,1.32,1.32,1.32
20.20,15.76,14.47,15.76,14.47,-14.46,-14.89,-8.28,1.29,1.29,1.29
20.40,15.83,14.56,15.83,14.56,-14.56,-14.92,-8.46,1.27,1.27,1.27
20.61,15.90,14.65,15.90,14.65,-14.66,-14.96,-8.65,1.24,1.25,1.25
20.81,15.98,14.75,15.97,14.74,-14.75,-14.99,-8.84,1.23,1.23,1.23
21.02,16.05,14.84,16.04,14.83,-14.84,-15.03,-9.03,1.21,1.21,1.21
21.23,16.11,14.92,16.11,14.92,-14.92,-15.07,-9.23,1.18,1.19,1.19
21.44,16.18,15.01,16.18,15.01,-15.01,-15.10,-9.44,1.17,1.17,1.17
21.66,16.25,15.10,16.24,15.09,-15.09,-15.14,-9.65,1.15,1.15,1.15
21.87,16.31,15.17,16.31,15.18,-15.17,-15.18,-9.86,1.14,1.14,1.14
22.09,16.38,15.26,16.38,15.25,-15.25,-15.22,-10.08,1.13,1.12,1.12
22.31,16.44,15.33,16.44,15.33,-15.33,-15.26,-10.31,1.11,1.11,1.11
22.54,16.50,15.40,16.50,15.40,-15.40,-15.29,-10.54,1.10,1.10,1.10
22.76,16.56,15.47,16.56,15.47,-15.47,-15.33,-10.79,1.09,1.09,1.09
22.99,16.62,15.54,16.62,15.54,-15.54,-15.37,-11.03,1.08,1.08,1.08
23.22,16.68,15.61,16.67,15.61,-15.61,-15.41,-11.29,1.07,1.07,1.07
23.45,16.73,15.67,16.73,15.67,-15.67,-15.45,-11.54,1.06,1.06,1.06
23.69,16.79,15.74,16.79,15.74,-15.74,-15.49,-11.81,1.05,1.05,1.05
23.92,16.85,15.80,16.84,15.80,-15.80,-15.53,-12.08,1.05,1.05,1.05
24.16,16.90,15.86,16.90,15.86,-15.86,-15.57,-12.37,1.04,1.04,1.04
24.40,16.96,15.92,16.96,15.92,-15.92,-15.61,-12.66,1.04,1.04,1.04
24.65,17.01,15.98,17.01,15.98,-15.98,-15.65,-12.96,1.03,1.03,1.03
24.89,17.06,16.03,17.06,16.03,-16.03,-15.69,-13.26,1.03,1.03,1.03
25.14,17.11,16.09,17.11,16.09,-16.09,-15.73,-13.58,1.02,1.02,1.02
25.39,17.15,16.14,17.15,16.14,-16.14,-15.77,-13.90,1.01,1.01,1.01
25.65,17.20,16.19,17.20,16.19,-16.19,-15.80,-14.23,1.01,1.01,1.01
25.91,17.24,16.24,17.24,16.23,-16.23,-15.84,-14.56,1.00,1.00,1.00
26.16,17.28,16.28,17.28,16.28,-16.28,-15.88,-14.91,1.00,1.00,1.00
26.43,17.32,16.32,17.32,16.32,-16.32,-15.92,-15.27,0.99,0.99,1.00
26.69,17.36,16.37,17.36,16.36,-16.36,-15.95,-15.63,0.99,0.99,0.99
26.96,17.39,16.40,17.39,16.40,-16.40,-15.99,-16.00,0.98,0.99,0.99
27.23,17.43,16.45,17.43,16.44,-16.44,-16.02,-16.37,0.99,0.99,0.98
27.50,17.46,16.48,17.46,16.48,-16.48,-16.06,-16.75,0.98,0.98,0.98
27.77,17.49,16.51,17.49,16.51,-16.51,-16.09,-17.13,0.98,0.98,0.98
28.05,17.51,16.54,17.51,16.54,-16.54,-16.13,-17.50,0.97,0.97,0.97
28.33,17.54,16.57,17.54,16.57,-16.57,-16.16,-17.88,0.97,0.96,0.97
28.62,17.56,16.59,17.56,16.59,-16.60,-16.19,-18.25,0.96,0.96,0.97
28.90,17.58,16.62,17.58,16.62,-16.62,-16.22,-18.61,0.96,0.96,0.96
29.19,17.60,16.64,17.60,16.64,-16.64,-16.25,-18.95,0.96,0.96,0.96
29.48,17.61,16.65,17.61,16.65,-16.65,-16.28,-19.27,0.96,0.97,0.96
29.78,17.62,16.66,17.62,16.66,-16.65,-16.30,-19.57,0.97,0.97,0.96
30.08,17.62,16.66,17.61,16.65,-16.63,-16.33,-19.82,0.98,0.97,0.96
30.38,17.58,16.63,17.58,16.63,-16.61,-16.35,-20.05,0.97,0.97,0.95
30.68,17.53,16.58,17.54,16.59,-16.58,-16.37,-20.21,0.95,0.96,0.95
30.99,17.49,16.54,17.49,16.54,-16.54,-16.39,-20.35,0.95,0.95,0.95
31.30,17.44,16.49,17.43,16.49,-16.49,-16.41,-20.41,0.95,0.94,0.95
31.61,17.38,16.44,17.38,16.44,-16.44,-16.43,-20.44,0.94,0.94,0.94
31.93,17.32,16.38,17.33,16.39,-16.39,-16.44,-20.39,0.93,0.93,0.94
32.24,17.28,16.34,17.27,16.34,-16.34,-16.45,-20.33,0.93,0.93,0.94
32.57,17.23,16.30,17.23,16.29,-16.30,-16.46,-20.19,0.93,0.93,0.93
32.89,17.18,16.25,17.18,16.25,-16.25,-16.47,-20.04,0.92,0.93,0.93
33.22,17.15,16.22,17.14,16.22,-16.22,-16.48,-19.84,0.93,0.93,0.93
33.55,17.11,16.19,17.11,16.18,-16.18,-16.48,-19.62,0.93,0.92,0.92
33.89,17.07,16.15,17.07,16.15,-16.15,-16.49,-19.38,0.92,0.92,0.92
34.23,17.04,16.12,17.04,16.12,-16.12,-16.49,-19.13,0.91,0.91,0.92
34.57,17.01,16.10,17.01,16.10,-16.10,-16.48,-18.87,0.91,0.91,0.91
34.92,16.99,16.08,16.99,16.08,-16.08,-16.48,-18.61,0.91,0.91,0.91
35.27,16.97,16.06,16.97,16.06,-16.06,-16.47,-18.34,0.91,0.91,0.91
35.62,16.95,16.05,16.95,16.04,-16.04,-16.46,-18.08,0.90,0.90,0.90
35.97,16.93,16.03,16.93,16.03,-16.03,-16.45,-17.82,0.89,0.90,0.90
36.33,16.92,16.02,16.92,16.02,-16.02,-16.44,-17.56,0.90,0.90,0.90
36.70,16.92,16.02,16.91,16.01,-16.01,-16.42,-17.32,0.90,0.90,0.90
37.06,16.91,16.01,16.91,16.01,-16.01,-16.40,-17.08,0.90,0.90,0.90
37.43,16.90,16.01,16.90,16.00,-16.00,-16.38,-16.85,0.90,0.90,0.89
37.81,16.89,16.00,16.89,16.00,-16.00,-16.36,-16.62,0.89,0.89,0.89
38.19,16.88,15.99,16.88,15.99,-15.99,-16.33,-16.42,0.88,0.88,0.89
38.57,16.87,15.99,16.87,15.99,-15.99,-16.30,-16.21,0.88,0.88,0.88
38.95,16.86,15.98,16.86,15.98,-15.99,-16.27,-16.02,0.87,0.87,0.88
39.34,16.86,15.99,16.85,15.98,-15.98,-16.24,-15.84,0.87,0.87,0.87
39.74,16.85,15.98,16.85,15.98,-15.98,-16.21,-15.67,0.87,0.87,0.87
40.14,16.84,15.98,16.84,15.98,-15.97,-16.17,-15.51,0.87,0.87,0.86
40.54,16.83,15.97,16.83,15.97,-15.96,-16.13,-15.36,0.87,0.86,0.86
40.94,16.81,15.95,16.81,15.95,-15.95,-16.09,-15.22,0.86,0.86,0.86
41.35,16.80,15.94,16.79,15.93,-15.94,-16.05,-15.10,0.86,0.86,0.86
41.76,16.78,15.92,16.78,15.92,-15.92,-16.00,-14.97,0.85,0.85,0.86
42.18,16.76,15.90,16.76,15.90,-15.91,-15.96,-14.87,0.85,0.86,0.86
42.60,16.75,15.89,16.75,15.89,-15.88,-15.91,-14.77,0.86,0.86,0.86
43.03,16.74,15.87,16.73,15.87,-15.86,-15.86,-14.68,0.88,0.87,0.87
43.46,16.71,15.84,16.71,15.84,-15.83,-15.80,-14.60,0.87,0.87,0.87
43.90,16.68,15.81,16.68,15.81,-15.81,-15.75,-14.53,0.87,0.87,0.87
44.33,16.64,15.77,16.64,15.77,-15.77,-15.69,-14.46,0.86,0.87,0.87
44.78,16.61,15.74,16.61,15.74,-15.74,-15.64,-14.41,0.87,0.87,0.87
45.23,16.57,15.70,16.57,15.70,-15.70,-15.58,-14.37,0.87,0.87,0.87
45.68,16.53,15.66,16.53,15.66,-15.66,-15.52,-14.33,0.87,0.87,0.87
46.13,16.49,15.62,16.48,15.61,-15.62,-15.46,-14.31,0.87,0.87,0.87
46.60,16.44,15.57,16.44,15.57,-15.57,-15.39,-14.29,0.86,0.87,0.87
47.06,16.39,15.52,16.39,15.53,-15.53,-15.33,-14.28,0.86,0.86,0.87
47.53,16.35,15.49,16.35,15.48,-15.48,-15.26,-14.28,0.87,0.86,0.86
48.01,16.30,15.44,16.30,15.44,-15.43,-15.20,-14.28,0.87,0.87,0.86
48.49,16.25,15.39,16.24,15.39,-15.38,-15.13,-14.30,0.87,0.86,0.86
48.97,16.19,15.33,16.19,15.33,-15.33,-15.06,-14.32,0.86,0.86,0.86
49.46,16.13,15.27,16.13,15.27,-15.27,-14.99,-14.35,0.85,0.86,0.86
49.96,16.08,15.22,16.07,15.21,-15.22,-14.92,-14.39,0.86,0.86,0.86
50.46,16.02,15.16,16.02,15.16,-15.16,-14.84,-14.43,0.86,0.86,0.86
50.96,15.96,15.10,15.96,15.10,-15.10,-14.77,-14.48,0.86,0.86,0.86
51.47,15.91,15.04,15.90,15.04,-15.04,-14.69,-14.53,0.87,0.86,0.87
51.99,15.85,14.98,15.85,14.98,-14.98,-14.62,-14.59,0.87,0.87,0.87
52.51,15.79,14.92,15.79,14.92,-14.92,-14.54,-14.65,0.87,0.87,0.87
53.03,15.73,14.86,15.73,14.86,-14.86,-14.46,-14.71,0.87,0.87,0.87
53.56,15.67,14.80,15.67,14.80,-14.79,-14.38,-14.78,0.88,0.88,0.87
54.10,15.61,14.73,15.60,14.73,-14.73,-14.30,-14.85,0.88,0.88,0.88
54.64,15.54,14.66,15.54,14.66,-14.66,-14.22,-14.92,0.88,0.88,0.88
55.18,15.47,14.59,15.47,14.59,-14.59,-14.14,-14.99,0.88,0.88,0.88
55.74,15.40,14.52,15.40,14.52,-14.52,-14.06,-15.05,0.88,0.88,0.88
56.29,15.34,14.45,15.34,14.45,-14.45,-13.97,-15.12,0.88,0.88,0.89
56.86,15.28,14.39,15.27,14.38,-14.38,-13.89,-15.17,0.89,0.89,0.89
57.42,15.21,14.32,15.21,14.31,-14.31,-13.80,-15.22,0.89,0.89,0.89
58.00,15.14,14.24,15.14,14.25,-14.24,-13.71,-15.26,0.89,0.90,0.90
58.58,15.08,14.18,15.07,14.17,-14.17,-13.63,-15.29,0.90,0.90,0.90
59.16,15.01,14.11,15.01,14.10,-14.10,-13.54,-15.31,0.90,0.90,0.90
59.76,14.94,14.03,14.94,14.03,-14.03,-13.45,-15.32,0.91,0.91,0.91
60.35,14.87,13.96,14.87,13.96,-13.96,-13.36,-15.31,0.91,0.91,0.91
60.96,14.80,13.89,14.80,13.89,-13.89,-13.27,-15.28,0.91,0.91,0.91
61.57,14.72,13.81,14.72,13.81,-13.81,-13.17,-15.23,0.91,0.91,0.91
62.18,14.65,13.74,14.65,13.74,-13.74,-13.08,-15.17,0.91,0.91,0.91
62.80,14.57,13.66,14.57,13.66,-13.66,-12.98,-15.09,0.91,0.91,0.91
63.43,14.49,13.58,14.49,13.58,-13.58,-12.89,-14.99,0.91,0.91,0.91
64.07,14.41,13.50,14.41,13.50,-13.50,-12.79,-14.87,0.91,0.91,0.91
64.71,14.33,13.42,14.33,13.42,-13.41,-12.69,-14.73,0.91,0.91,0.91
65.35,14.24,13.33,14.24,13.33,-13.33,-12.60,-14.58,0.91,0.91,0.91
66.01,14.15,13.24,14.15,13.24,-13.24,-12.50,-14.41,0.91,0.91,0.91
66.67,14.06,13.15,14.06,13.15,-13.15,-12.40,-14.23,0.91,0.91,0.91
67.33,13.97,13.06,13.97,13.06,-13.06,-12.29,-14.03,0.91,0.91,0.91
68.01,13.88,12.97,13.88,12.97,-12.96,-12.19,-13.82,0.92,0.91,0.91
68.69,13.78,12.87,13.78,12.87,-12.86,-12.09,-13.61,0.92,0.91,0.91
69.37,13.67,12.76,13.67,12.76,-12.76,-11.98,-13.38,0.91,0.91,0.91
70.07,13.56,12.65,13.56,12.65,-12.65,-11.88,-13.15,0.91,0.91,0.91
70.77,13.45,12.54,13.45,12.54,-12.54,-11.77,-12.91,0.91,0.91,0.91
71.48,13.34,12.42,13.34,12.42,-12.42,-11.66,-12.67,0.92,0.91,0.92
72.19,13.23,12.31,13.22,12.30,-12.30,-11.55,-12.43,0.92,0.92,0.92
72.91,13.10,12.18,13.10,12.18,-12.18,-11.44,-12.19,0.92,0.92,0.92
73.64,12.98,12.06,12.98,12.05,-12.05,-11.33,-11.95,0.93,0.93,0.92
74.38,12.85,11.92,12.85,11.92,-11.92,-11.22,-11.71,0.93,0.93,0.93
75.12,12.72,11.79,12.72,11.78,-11.78,-11.10,-11.47,0.93,0.93,0.93
75.87,12.58,11.64,12.58,11.64,-11.65,-10.99,-11.23,0.93,0.93,0.94
76.63,12.45,11.51,12.44,11.50,-11.51,-10.87,-10.99,0.94,0.94,0.94
77.40,12.31,11.37,12.31,11.36,-11.37,-10.75,-10.76,0.94,0.94,0.94
78.17,12.17,11.22,12.17,11.23,-11.23,-10.63,-10.53,0.94,0.94,0.95
78.95,12.04,11.09,12.03,11.08,-11.09,-10.51,-10.31,0.95,0.95,0.95
79.74,11.90,10.95,11.89,10.94,-10.94,-10.39,-10.09,0.95,0.95,0.95
80.54,11.75,10.79,11.75,10.80,-10.80,-10.27,-9.88,0.95,0.96,0.96
81.35,11.61,10.65,11.61,10.65,-10.65,-10.14,-9.67,0.96,0.96,0.96
82.16,11.46,10.50,11.46,10.50,-10.49,-10.02,-9.47,0.97,0.97,0.96
82.98,11.31,10.35,11.30,10.34,-10.33,-9.89,-9.27,0.98,0.97,0.96
83.81,11.14,10.18,11.14,10.17,-10.17,-9.76,-9.07,0.97,0.97,0.96
84.65,10.96,9.99,10.96,10.00,-10.00,-9.63,-8.89,0.96,0.96,0.97
85.50,10.79,9.82,10.79,9.82,-9.83,-9.50,-8.70,0.96,0.96,0.97
86.35,10.62,9.65,10.62,9.65,-9.66,-9.36,-8.53,0.96,0.96,0.97
87.22,10.45,9.48,10.45,9.48,-9.48,-9.23,-8.35,0.97,0.97,0.97
88.09,10.28,9.31,10.28,9.31,-9.31,-9.09,-8.19,0.97,0.97,0.97
88.97,10.11,9.14,10.11,9.14,-9.13,-8.95,-8.02,0.98,0.98,0.97
89.86,9.93,8.96,9.93,8.96,-8.96,-8.81,-7.87,0.97,0.97,0.97
90.76,9.75,8.78,9.74,8.78,-8.78,-8.66,-7.72,0.97,0.97,0.97
91.66,9.56,8.59,9.56,8.59,-8.60,-8.52,-7.57,0.96,0.96,0.97
92.58,9.37,8.40,9.37,8.40,-8.41,-8.37,-7.43,0.96,0.96,0.97
93.51,9.19,8.22,9.19,8.22,-8.22,-8.22,-7.29,0.97,0.97,0.97
94.44,9.01,8.04,9.00,8.03,-8.02,-8.06,-7.16,0.99,0.98,0.97
95.39,8.80,7.83,8.80,7.83,-7.81,-7.90,-7.03,0.99,0.99,0.97
96.34,8.58,7.61,8.58,7.61,-7.59,-7.74,-6.90,0.99,0.99,0.97
97.30,8.36,7.38,8.36,7.38,-7.37,-7.57,-6.78,0.98,0.99,0.98
98.28,8.14,7.16,8.14,7.16,-7.16,-7.40,-6.67,0.98,0.98,0.98
99.26,7.91,6.93,7.91,6.93,-6.94,-7.22,-6.55,0.96,0.96,0.98
100.25,7.69,6.71,7.68,6.70,-6.74,-7.04,-6.45,0.95,0.94,0.98
101.25,7.46,6.48,7.47,6.49,-6.53,-6.85,-6.34,0.93,0.94,0.98
102.27,7.27,6.29,7.30,6.32,-6.33,-6.66,-6.24,0.94,0.97,0.98
103.29,7.15,6.17,7.13,6.15,-6.13,-6.46,-6.14,1.02,1.00,0.98
104.32,6.99,6.00,6.96,5.97,-5.93,-6.25,-6.05,1.06,1.03,0.99
105.37,6.75,5.76,6.76,5.77,-5.73,-6.04,-5.96,1.02,1.03,0.99
106.42,6.54,5.55,6.54,5.55,-5.53,-5.82,-5.87,1.00,1.01,0.99
107.48,6.32,5.32,6.32,5.32,-5.33,-5.60,-5.78,0.98,0.99,1.00
108.56,6.12,5.12,6.12,5.12,-5.13,-5.37,-5.70,0.99,0.99,1.00
109.64,5.93,4.93,5.92,4.92,-4.93,-5.14,-5.62,0.99,0.99,1.00
110.74,5.74,4.74,5.74,4.74,-4.75,-4.91,-5.54,0.99,0.99,1.00
111.85,5.57,4.57,5.57,4.57,-4.57,-4.67,-5.46,1.00,1.00,1.00
112.97,5.41,4.40,5.40,4.40,-4.41,-4.45,-5.39,0.99,0.99,1.01
114.10,5.27,4.26,5.27,4.26,-4.27,-4.24,-5.31,1.00,1.00,1.01
115.24,5.13,4.12,5.15,4.14,-4.14,-4.05,-5.24,0.99,1.01,1.01
116.39,5.06,4.05,5.04,4.03,-4.02,-3.86,-5.16,1.04,1.03,1.01
117.55,4.96,3.94,4.94,3.93,-3.91,-3.72,-5.09,1.05,1.03,1.02
118.73,4.84,3.82,4.84,3.82,-3.82,-3.59,-5.02,1.02,1.02,1.02
119.92,4.74,3.72,4.75,3.72,-3.74,-3.51,-4.95,1.00,1.01,1.02
121.12,4.67,3.65,4.68,3.65,-3.67,-3.44,-4.88,1.00,1.01,1.02
122.33,4.64,3.61,4.63,3.61,-3.61,-3.41,-4.81,1.03,1.02,1.03
123.55,4.61,3.58,4.60,3.57,-3.56,-3.39,-4.74,1.04,1.04,1.03
124.79,4.58,3.54,4.58,3.54,-3.53,-3.40,-4.67,1.05,1.05,1.04
126.03,4.55,3.51,4.55,3.51,-3.51,-3.42,-4.60,1.04,1.04,1.04
127.29,4.54,3.49,4.54,3.49,-3.50,-3.46,-4.53,1.04,1.04,1.05
128.57,4.54,3.49,4.54,3.49,-3.50,-3.49,-4.46,1.04,1.04,1.05
129.85,4.55,3.50,4.55,3.50,-3.50,-3.53,-4.39,1.05,1.05,1.05
131.15,4.57,3.52,4.57,3.51,-3.51,-3.57,-4.32,1.06,1.05,1.05
132.46,4.59,3.53,4.59,3.53,-3.53,-3.60,-4.25,1.06,1.06,1.06
133.79,4.62,3.56,4.62,3.56,-3.55,-3.64,-4.18,1.07,1.07,1.06
135.12,4.65,3.59,4.64,3.58,-3.58,-3.67,-4.11,1.07,1.07,1.06
136.48,4.67,3.61,4.67,3.61,-3.61,-3.70,-4.04,1.06,1.06,1.06
137.84,4.71,3.65,4.70,3.64,-3.65,-3.72,-3.97,1.06,1.05,1.06
139.22,4.73,3.67,4.74,3.68,-3.69,-3.74,-3.91,1.04,1.05,1.06
140.61,4.78,3.72,4.78,3.72,-3.73,-3.76,-3.84,1.05,1.06,1.06
142.02,4.85,3.78,4.84,3.77,-3.77,-3.78,-3.77,1.07,1.06,1.07
143.44,4.89,3.82,4.89,3.82,-3.82,-3.80,-3.70,1.07,1.07,1.07
144.87,4.95,3.88,4.94,3.87,-3.87,-3.81,-3.64,1.08,1.08,1.07
146.32,4.99,3.91,4.99,3.92,-3.91,-3.83,-3.57,1.07,1.08,1.08
147.78,5.05,3.97,5.04,3.97,-3.96,-3.85,-3.51,1.09,1.09,1.08
149.26,5.09,4.01,5.09,4.00,-4.00,-3.88,-3.44,1.09,1.09,1.08
150.75,5.13,4.04,5.12,4.04,-4.03,-3.90,-3.38,1.10,1.09,1.09
152.26,5.15,4.06,5.15,4.06,-4.06,-3.93,-3.32,1.09,1.09,1.09
153.78,5.18,4.09,5.18,4.08,-4.09,-3.96,-3.26,1.09,1.09,1.09
155.32,5.20,4.10,5.20,4.10,-4.11,-4.00,-3.20,1.09,1.09,1.10
156.88,5.23,4.13,5.22,4.12,-4.13,-4.04,-3.14,1.10,1.09,1.10
158.44,5.24,4.14,5.24,4.14,-4.14,-4.08,-3.09,1.09,1.10,1.10
160.03,5.26,4.16,5.26,4.16,-4.15,-4.12,-3.03,1.10,1.11,1.10
161.63,5.28,4.18,5.27,4.17,-4.16,-4.15,-2.98,1.12,1.11,1.10
163.24,5.28,4.17,5.27,4.17,-4.16,-4.19,-2.92,1.12,1.11,1.11
164.88,5.26,4.15,5.26,4.16,-4.16,-4.21,-2.88,1.10,1.11,1.11
166.53,5.25,4.14,5.25,4.14,-4.15,-4.23,-2.83,1.10,1.10,1.11
168.19,5.24,4.13,5.24,4.12,-4.13,-4.22,-2.78,1.10,1.10,1.11
169.87,5.23,4.11,5.23,4.11,-4.11,-4.21,-2.73,1.11,1.11,1.12
171.57,5.21,4.09,5.21,4.09,-4.09,-4.16,-2.69,1.12,1.12,1.12
173.29,5.19,4.07,5.18,4.06,-4.06,-4.11,-2.65,1.13,1.12,1.12
175.02,5.15,4.03,5.15,4.03,-4.02,-4.03,-2.61,1.12,1.12,1.12
176.77,5.11,3.98,5.11,3.98,-3.98,-3.95,-2.57,1.13,1.13,1.13
178.54,5.06,3.93,5.06,3.93,-3.93,-3.85,-2.53,1.13,1.14,1.13
180.32,5.01,3.88,5.00,3.87,-3.86,-3.74,-2.50,1.14,1.14,1.13
182.13,4.94,3.81,4.93,3.80,-3.79,-3.63,-2.46,1.15,1.14,1.13
183.95,4.83,3.70,4.84,3.71,-3.71,-3.51,-2.43,1.12,1.13,1.13
185.79,4.75,3.62,4.75,3.62,-3.62,-3.39,-2.40,1.12,1.12,1.13
187.65,4.66,3.53,4.65,3.52,-3.53,-3.28,-2.37,1.13,1.12,1.13
189.52,4.56,3.43,4.56,3.43,-3.44,-3.17,-2.34,1.12,1.12,1.13
191.42,4.46,3.33,4.46,3.33,-3.33,-3.06,-2.31,1.12,1.13,1.13
193.33,4.36,3.23,4.36,3.23,-3.23,-2.97,-2.29,1.13,1.13,1.13
195.27,4.26,3.13,4.26,3.13,-3.12,-2.87,-2.26,1.13,1.13,1.13
197.22,4.15,3.02,4.15,3.02,-3.01,-2.79,-2.24,1.14,1.14,1.13
199.19,4.04,2.91,4.04,2.90,-2.90,-2.71,-2.22,1.14,1.14,1.13
201.18,3.92,2.78,3.92,2.78,-2.78,-2.63,-2.20,1.14,1.14,1.14
203.19,3.80,2.66,3.80,2.66,-2.65,-2.56,-2.18,1.14,1.15,1.14
205.23,3.68,2.53,3.68,2.53,-2.53,-2.50,-2.16,1.15,1.15,1.15
207.28,3.56,2.41,3.55,2.40,-2.40,-2.44,-2.14,1.15,1.15,1.15
209.35,3.43,2.28,3.43,2.28,-2.28,-2.39,-2.13,1.15,1.15,1.15
211.44,3.31,2.15,3.31,2.15,-2.16,-2.34,-2.11,1.14,1.15,1.16
213.56,3.20,2.04,3.20,2.04,-2.05,-2.30,-2.10,1.15,1.15,1.16
215.69,3.10,1.94,3.10,1.94,-1.94,-2.26,-2.08,1.16,1.15,1.16
217.85,3.00,1.84,3.00,1.84,-1.84,-2.23,-2.07,1.16,1.17,1.16
220.03,2.92,1.75,2.91,1.75,-1.74,-2.19,-2.06,1.18,1.18,1.17
222.23,2.83,1.66,2.83,1.66,-1.64,-2.17,-2.04,1.18,1.18,1.17
224.45,2.74,1.57,2.73,1.56,-1.56,-2.14,-2.03,1.18,1.18,1.17
226.70,2.65,1.48,2.65,1.47,-1.47,-2.12,-2.02,1.18,1.17,1.17
228.96,2.56,1.38,2.57,1.39,-1.40,-2.10,-2.01,1.16,1.17,1.18
231.25,2.51,1.33,2.50,1.32,-1.33,-2.09,-2.00,1.18,1.17,1.18
233.57,2.45,1.27,2.44,1.26,-1.27,-2.07,-1.99,1.18,1.17,1.18
235.90,2.40,1.21,2.41,1.22,-1.22,-2.06,-1.98,1.17,1.18,1.19
238.26,2.38,1.19,2.38,1.18,-1.19,-2.05,-1.97,1.19,1.19,1.19
240.64,2.37,1.17,2.37,1.16,-1.17,-2.05,-1.96,1.20,1.20,1.20
243.05,2.37,1.16,2.37,1.16,-1.15,-2.05,-1.95,1.21,1.21,1.21
245.48,2.38,1.16,2.38,1.16,-1.15,-2.05,-1.94,1.22,1.22,1.22
247.93,2.40,1.18,2.39,1.17,-1.17,-2.05,-1.93,1.23,1.23,1.22
250.41,2.42,1.19,2.42,1.19,-1.19,-2.05,-1.92,1.23,1.23,1.23
252.92,2.46,1.22,2.46,1.22,-1.22,-2.06,-1.91,1.23,1.23,1.24
255.45,2.51,1.26,2.50,1.26,-1.27,-2.07,-1.90,1.24,1.23,1.25
258.00,2.56,1.31,2.57,1.31,-1.33,-2.08,-1.89,1.23,1.24,1.25
260.58,2.65,1.39,2.65,1.39,-1.40,-2.09,-1.88,1.25,1.25,1.26
263.19,2.74,1.48,2.74,1.48,-1.48,-2.11,-1.87,1.26,1.26,1.26
265.82,2.84,1.58,2.83,1.56,-1.56,-2.12,-1.86,1.28,1.27,1.26
268.48,2.92,1.65,2.92,1.66,-1.65,-2.14,-1.85,1.27,1.27,1.27
271.16,3.01,1.74,3.02,1.75,-1.74,-2.16,-1.84,1.26,1.28,1.27
273.87,3.13,1.86,3.12,1.85,-1.84,-2.18,-1.83,1.29,1.28,1.27
276.61,3.23,1.95,3.22,1.94,-1.93,-2.21,-1.82,1.29,1.29,1.28
279.38,3.31,2.03,3.31,2.03,-2.03,-2.23,-1.81,1.28,1.28,1.28
282.17,3.40,2.11,3.40,2.11,-2.12,-2.26,-1.80,1.28,1.28,1.29
284.99,3.48,2.19,3.49,2.20,-2.21,-2.29,-1.79,1.26,1.28,1.29
287.84,3.60,2.31,3.59,2.30,-2.30,-2.32,-1.78,1.30,1.28,1.29
290.72,3.68,2.39,3.68,2.39,-2.39,-2.35,-1.78,1.29,1.29,1.29
293.63,3.77,2.48,3.77,2.48,-2.47,-2.38,-1.77,1.30,1.30,1.29
296.57,3.85,2.56,3.85,2.55,-2.54,-2.42,-1.76,1.30,1.30,1.29
299.53,3.92,2.62,3.92,2.62,-2.62,-2.45,-1.76,1.30,1.30,1.30
302.53,3.98,2.68,3.98,2.68,-2.68,-2.49,-1.75,1.30,1.30,1.30
305.55,4.03,2.73,4.04,2.73,-2.73,-2.53,-1.75,1.30,1.30,1.30
308.61,4.09,2.78,4.08,2.78,-2.78,-2.56,-1.75,1.31,1.31,1.31
311.69,4.14,2.83,4.13,2.82,-2.82,-2.60,-1.75,1.32,1.31,1.31
314.81,4.16,2.84,4.17,2.85,-2.85,-2.64,-1.75,1.31,1.32,1.32
317.96,4.20,2.88,4.20,2.87,-2.88,-2.68,-1.75,1.32,1.32,1.32
321.14,4.22,2.89,4.22,2.89,-2.90,-2.71,-1.75,1.32,1.32,1.33
324.35,4.25,2.92,4.24,2.91,-2.91,-2.75,-1.76,1.33,1.33,1.33
327.59,4.26,2.93,4.26,2.92,-2.92,-2.79,-1.76,1.34,1.34,1.33
330.87,4.27,2.93,4.27,2.93,-2.93,-2.82,-1.77,1.34,1.34,1.34
334.18,4.28,2.93,4.28,2.93,-2.93,-2.86,-1.77,1.35,1.35,1.35
337.52,4.29,2.94,4.28,2.93,-2.93,-2.89,-1.78,1.36,1.36,1.35
340.90,4.28,2.92,4.28,2.92,-2.92,-2.93,-1.79,1.36,1.36,1.36
344.30,4.27,2.91,4.27,2.91,-2.91,-2.96,-1.81,1.35,1.36,1.36
347.75,4.26,2.90,4.26,2.90,-2.91,-2.99,-1.82,1.35,1.35,1.36
351.23,4.26,2.90,4.26,2.89,-2.90,-3.01,-1.83,1.36,1.36,1.36
354.74,4.26,2.89,4.26,2.89,-2.89,-3.04,-1.85,1.36,1.36,1.37
358.28,4.26,2.89,4.26,2.89,-2.89,-3.06,-1.86,1.37,1.37,1.37
361.87,4.26,2.89,4.26,2.89,-2.89,-3.07,-1.88,1.37,1.37,1.37
365.49,4.26,2.89,4.26,2.89,-2.88,-3.09,-1.90,1.37,1.37,1.37
369.14,4.26,2.89,4.26,2.89,-2.88,-3.10,-1.92,1.37,1.37,1.37
372.83,4.26,2.89,4.26,2.88,-2.89,-3.11,-1.95,1.37,1.37,1.37
376.56,4.26,2.88,4.26,2.88,-2.89,-3.11,-1.97,1.37,1.37,1.38
380.33,4.26,2.88,4.26,2.88,-2.89,-3.11,-1.99,1.37,1.37,1.38
384.13,4.27,2.89,4.27,2.89,-2.89,-3.11,-2.02,1.38,1.38,1.38
387.97,4.28,2.90,4.28,2.90,-2.89,-3.10,-2.04,1.39,1.39,1.38
391.85,4.29,2.90,4.28,2.90,-2.89,-3.09,-2.07,1.40,1.40,1.39
395.77,4.28,2.89,4.28,2.89,-2.88,-3.07,-2.10,1.40,1.40,1.39
399.73,4.27,2.87,4.27,2.87,-2.87,-3.06,-2.13,1.40,1.40,1.40
403.72,4.26,2.86,4.25,2.85,-2.86,-3.03,-2.16,1.40,1.40,1.40
407.76,4.24,2.83,4.24,2.83,-2.84,-3.00,-2.19,1.40,1.40,1.41
411.84,4.22,2.81,4.22,2.81,-2.81,-2.97,-2.21,1.41,1.41,1.41
415.96,4.20,2.78,4.20,2.78,-2.78,-2.94,-2.24,1.42,1.42,1.42
420.12,4.17,2.75,4.17,2.75,-2.74,-2.90,-2.27,1.42,1.43,1.42
424.32,4.14,2.72,4.14,2.71,-2.70,-2.86,-2.30,1.43,1.43,1.42
428.56,4.10,2.67,4.09,2.67,-2.66,-2.82,-2.33,1.44,1.43,1.43
432.85,4.05,2.62,4.05,2.62,-2.61,-2.77,-2.35,1.43,1.43,1.43
437.18,3.99,2.56,3.99,2.56,-2.57,-2.72,-2.38,1.42,1.43,1.43
441.55,3.94,2.51,3.94,2.51,-2.52,-2.67,-2.40,1.42,1.42,1.43
445.96,3.89,2.46,3.89,2.46,-2.47,-2.62,-2.43,1.42,1.42,1.43
450.42,3.85,2.42,3.85,2.42,-2.42,-2.56,-2.44,1.42,1.43,1.43
454.93,3.81,2.38,3.81,2.38,-2.38,-2.50,-2.46,1.43,1.43,1.43
459.48,3.77,2.34,3.76,2.34,-2.34,-2.45,-2.48,1.43,1.43,1.43
464.07,3.72,2.29,3.72,2.30,-2.30,-2.39,-2.49,1.42,1.43,1.43
