frequency,raw,error,smoothed,error_smoothed,equalization,parametric_eq,fixed_band_eq,equalized_raw,equalized_smoothed,target
20.00,-15.68,-12.38,-15.68,-12.38,6.00,5.35,2.70,-9.68,-9.68,-3.30
20.20,-15.51,-12.27,-15.51,-12.27,6.00,5.41,2.78,-9.51,-9.51,-3.24
20.40,-15.34,-12.15,-15.34,-12.15,6.00,5.47,2.86,-9.34,-9.34,-3.19
20.61,-15.17,-12.04,-15.17,-12.03,6.00,5.53,2.94,-9.17,-9.17,-3.13
20.81,-14.99,-11.91,-14.99,-11.91,6.00,5.58,3.02,-8.99,-8.99,-3.08
21.02,-14.82,-11.80,-14.82,-11.80,6.00,5.64,3.11,-8.82,-8.82,-3.02
21.23,-14.65,-11.68,-14.65,-11.68,6.00,5.69,3.20,-8.65,-8.65,-2.97
21.44,-14.48,-11.56,-14.48,-11.55,6.00,5.75,3.29,-8.48,-8.48,-2.92
21.66,-14.30,-11.43,-14.30,-11.43,6.00,5.80,3.38,-8.30,-8.30,-2.87
21.87,-14.13,-11.30,-14.13,-11.31,6.00,5.85,3.48,-8.13,-8.13,-2.82
22.09,-13.96,-11.19,-13.96,-11.18,6.00,5.90,3.58,-7.96,-7.96,-2.77
22.31,-13.79,-11.06,-13.79,-11.06,6.00,5.94,3.68,-7.79,-7.79,-2.72
22.54,-13.61,-10.93,-13.61,-10.93,6.00,5.99,3.79,-7.61,-7.61,-2.68
22.76,-13.44,-10.80,-13.44,-10.80,6.00,6.03,3.90,-7.44,-7.44,-2.63
22.99,-13.27,-10.68,-13.27,-10.67,6.00,6.07,4.01,-7.27,-7.27,-2.59
23.22,-13.09,-10.55,-13.09,-10.55,6.00,6.11,4.12,-7.09,-7.09,-2.55
23.45,-12.92,-10.41,-12.92,-10.42,6.00,6.14,4.24,-6.92,-6.92,-2.51
23.69,-12.75,-10.30,-12.75,-10.29,6.00,6.17,4.36,-6.75,-6.75,-2.46
23.92,-12.58,-10.16,-12.58,-10.16,6.00,6.20,4.48,-6.58,-6.58,-2.42
24.16,-12.40,-10.03,-12.40,-10.03,6.00,6.23,4.60,-6.40,-6.40,-2.37
24.40,-12.23,-9.90,-12.23,-9.90,6.00,6.26,4.73,-6.23,-6.23,-2.33
24.65,-12.06,-9.77,-12.05,-9.77,6.00,6.28,4.85,-6.06,-6.05,-2.29
24.89,-11.88,-9.63,-11.88,-9.63,6.00,6.29,4.98,-5.88,-5.88,-2.25
25.14,-11.71,-9.50,-11.71,-9.50,6.00,6.31,5.11,-5.71,-5.71,-2.21
25.39,-11.54,-9.37,-11.54,-9.37,6.00,6.32,5.24,-5.54,-5.54,-2.17
25.65,-11.37,-9.24,-11.37,-9.24,6.00,6.33,5.37,-5.37,-5.37,-2.13
25.91,-11.19,-9.10,-11.19,-9.10,6.00,6.34,5.51,-5.19,-5.19,-2.09
26.16,-11.02,-8.97,-11.02,-8.97,6.00,6.34,5.64,-5.02,-5.02,-2.05
26.43,-10.85,-8.83,-10.85,-8.84,6.00,6.34,5.77,-4.85,-4.85,-2.02
26.69,-10.69,-8.71,-10.69,-8.71,6.00,6.33,5.90,-4.69,-4.69,-1.98
26.96,-10.52,-8.58,-10.52,-8.57,6.00,6.32,6.03,-4.52,-4.52,-1.94
27.23,-10.35,-8.44,-10.35,-8.44,6.00,6.31,6.15,-4.35,-4.35,-1.91
27.50,-10.18,-8.31,-10.18,-8.31,6.00,6.29,6.27,-4.18,-4.18,-1.87
27.77,-10.02,-8.18,-10.02,-8.18,6.00,6.27,6.39,-4.02,-4.02,-1.83
28.05,-9.85,-8.04,-9.85,-8.05,6.00,6.25,6.50,-3.85,-3.85,-1.81
28.33,-9.69,-7.92,-9.69,-7.92,6.00,6.23,6.61,-3.69,-3.69,-1.77
28.62,-9.52,-7.79,-9.52,-7.79,6.00,6.20,6.70,-3.52,-3.52,-1.73
28.90,-9.36,-7.67,-9.36,-7.67,6.00,6.16,6.79,-3.36,-3.36,-1.69
29.19,-9.19,-7.53,-9.19,-7.54,6.00,6.13,6.88,-3.19,-3.19,-1.66
29.48,-9.03,-7.41,-9.03,-7.41,6.00,6.09,6.95,-3.03,-3.03,-1.62
29.78,-8.87,-7.29,-8.87,-7.29,6.00,6.05,7.01,-2.87,-2.87,-1.58
30.08,-8.71,-7.16,-8.72,-7.17,6.00,6.00,7.06,-2.71,-2.72,-1.55
30.38,-8.57,-7.06,-8.57,-7.05,6.00,5.95,7.10,-2.57,-2.57,-1.51
30.68,-8.42,-6.94,-8.42,-6.94,6.00,5.90,7.12,-2.42,-2.42,-1.48
30.99,-8.28,-6.84,-8.28,-6.83,6.00,5.85,7.14,-2.28,-2.28,-1.45
31.30,-8.13,-6.71,-8.13,-6.71,6.01,5.79,7.14,-2.13,-2.12,-1.42
31.61,-7.98,-6.59,-7.98,-6.59,6.01,5.73,7.12,-1.97,-1.97,-1.39
31.93,-7.83,-6.47,-7.84,-6.48,6.02,5.67,7.10,-1.81,-1.82,-1.36
32.24,-7.70,-6.37,-7.70,-6.37,6.02,5.61,7.06,-1.68,-1.68,-1.33
32.57,-7.56,-6.26,-7.56,-6.26,6.01,5.54,7.00,-1.55,-1.55,-1.30
32.89,-7.42,-6.15,-7.42,-6.15,5.98,5.48,6.94,-1.44,-1.44,-1.27
33.22,-7.29,-6.03,-7.29,-6.04,5.94,5.41,6.87,-1.35,-1.35,-1.25
33.55,-7.16,-5.93,-7.15,-5.93,5.88,5.33,6.78,-1.28,-1.27,-1.23
33.89,-7.02,-5.81,-7.02,-5.82,5.81,5.26,6.69,-1.21,-1.22,-1.21
34.23,-6.89,-5.70,-6.89,-5.70,5.72,5.19,6.58,-1.17,-1.17,-1.19
34.57,-6.76,-5.60,-6.76,-5.59,5.61,5.11,6.47,-1.15,-1.14,-1.16
34.92,-6.62,-5.48,-6.63,-5.48,5.50,5.03,6.35,-1.12,-1.13,-1.14
35.27,-6.49,-5.37,-6.49,-5.37,5.38,4.96,6.23,-1.11,-1.12,-1.13
35.62,-6.37,-5.26,-6.37,-5.26,5.26,4.88,6.10,-1.11,-1.11,-1.11
35.97,-6.24,-5.15,-6.24,-5.15,5.14,4.80,5.97,-1.09,-1.09,-1.09
36.33,-6.11,-5.03,-6.11,-5.03,5.03,4.71,5.83,-1.08,-1.08,-1.08
36.70,-5.98,-4.92,-5.98,-4.92,4.92,4.63,5.69,-1.06,-1.06,-1.06
37.06,-5.86,-4.81,-5.86,-4.81,4.81,4.55,5.55,-1.05,-1.05,-1.05
37.43,-5.74,-4.70,-5.74,-4.70,4.70,4.47,5.41,-1.04,-1.03,-1.04
37.81,-5.62,-4.60,-5.62,-4.60,4.59,4.38,5.27,-1.03,-1.03,-1.02
38.19,-5.50,-4.49,-5.50,-4.49,4.49,4.30,5.13,-1.01,-1.02,-1.01
38.57,-5.39,-4.38,-5.39,-4.38,4.38,4.21,4.98,-1.01,-1.01,-1.01
38.95,-5.27,-4.27,-5.27,-4.27,4.27,4.13,4.84,-1.00,-1.00,-1.00
39.34,-5.16,-4.17,-5.16,-4.17,4.17,4.04,4.70,-0.99,-0.99,-0.99
39.74,-5.05,-4.06,-5.05,-4.06,4.06,3.96,4.56,-0.99,-0.99,-0.99
40.14,-4.94,-3.95,-4.94,-3.96,3.95,3.87,4.42,-0.99,-0.99,-0.99
40.54,-4.83,-3.85,-4.83,-3.85,3.85,3.79,4.29,-0.98,-0.98,-0.98
40.94,-4.72,-3.74,-4.72,-3.74,3.75,3.71,4.15,-0.97,-0.98,-0.98
41.35,-4.62,-3.64,-4.62,-3.64,3.64,3.62,4.02,-0.98,-0.98,-0.98
41.76,-4.52,-3.55,-4.52,-3.54,3.54,3.54,3.89,-0.98,-0.98,-0.97
42.18,-4.42,-3.44,-4.41,-3.44,3.44,3.45,3.76,-0.98,-0.98,-0.98
42.60,-4.31,-3.34,-4.31,-3.34,3.34,3.37,3.63,-0.97,-0.97,-0.97
43.03,-4.21,-3.23,-4.21,-3.24,3.25,3.29,3.51,-0.96,-0.97,-0.98
43.46,-4.12,-3.15,-4.12,-3.15,3.15,3.21,3.39,-0.97,-0.97,-0.97
43.90,-4.03,-3.06,-4.03,-3.06,3.06,3.12,3.27,-0.97,-0.97,-0.97
44.33,-3.94,-2.97,-3.94,-2.97,2.97,3.04,3.15,-0.97,-0.98,-0.97
44.78,-3.85,-2.88,-3.85,-2.88,2.87,2.96,3.04,-0.98,-0.98,-0.97
45.23,-3.76,-2.79,-3.76,-2.79,2.78,2.88,2.93,-0.98,-0.98,-0.97
45.68,-3.67,-2.70,-3.67,-2.69,2.69,2.80,2.82,-0.98,-0.98,-0.97
46.13,-3.57,-2.59,-3.58,-2.60,2.60,2.72,2.71,-0.97,-0.97,-0.98
46.60,-3.49,-2.52,-3.49,-2.51,2.51,2.64,2.60,-0.98,-0.98,-0.98
47.06,-3.40,-2.42,-3.40,-2.42,2.42,2.57,2.50,-0.98,-0.98,-0.98
47.53,-3.32,-2.33,-3.32,-2.34,2.34,2.49,2.40,-0.98,-0.98,-0.99
48.01,-3.24,-2.26,-3.24,-2.25,2.25,2.41,2.30,-0.99,-0.99,-0.98
48.49,-3.16,-2.17,-3.16,-2.17,2.17,2.34,2.21,-0.99,-0.99,-0.99
48.97,-3.08,-2.08,-3.08,-2.09,2.09,2.27,2.11,-0.99,-0.99,-1.00
49.46,-3.01,-2.02,-3.01,-2.01,2.01,2.19,2.02,-1.00,-1.00,-0.99
49.96,-2.94,-1.94,-2.94,-1.94,1.94,2.12,1.93,-1.00,-1.00,-1.00
50.46,-2.87,-1.87,-2.87,-1.87,1.86,2.05,1.84,-1.01,-1.01,-1.00
50.96,-2.80,-1.79,-2.80,-1.80,1.79,1.98,1.76,-1.01,-1.01,-1.01
51.47,-2.73,-1.72,-2.73,-1.72,1.72,1.91,1.67,-1.01,-1.01,-1.01
51.99,-2.66,-1.65,-2.66,-1.65,1.65,1.84,1.59,-1.01,-1.01,-1.01
52.51,-2.60,-1.58,-2.60,-1.58,1.58,1.77,1.51,-1.02,-1.02,-1.02
53.03,-2.54,-1.52,-2.54,-1.51,1.51,1.70,1.43,-1.03,-1.02,-1.02
53.56,-2.48,-1.45,-2.48,-1.45,1.45,1.64,1.36,-1.03,-1.03,-1.03
54.10,-2.42,-1.38,-2.42,-1.38,1.38,1.57,1.28,-1.04,-1.04,-1.04
54.64,-2.37,-1.32,-2.37,-1.32,1.32,1.51,1.21,-1.05,-1.05,-1.05
55.18,-2.32,-1.26,-2.32,-1.26,1.26,1.44,1.14,-1.06,-1.06,-1.06
55.74,-2.27,-1.20,-2.27,-1.20,1.20,1.38,1.07,-1.07,-1.07,-1.07
56.29,-2.23,-1.14,-2.23,-1.14,1.14,1.32,1.01,-1.09,-1.09,-1.09
56.86,-2.20,-1.10,-2.19,-1.09,1.09,1.26,0.94,-1.11,-1.11,-1.10
57.42,-2.16,-1.03,-2.16,-1.03,1.03,1.20,0.88,-1.13,-1.13,-1.13
58.00,-2.12,-0.97,-2.12,-0.97,0.97,1.14,0.82,-1.15,-1.15,-1.15
58.58,-2.09,-0.92,-2.09,-0.92,0.91,1.08,0.76,-1.18,-1.17,-1.17
59.16,-2.05,-0.85,-2.05,-0.86,0.86,1.02,0.71,-1.19,-1.19,-1.20
59.76,-2.02,-0.80,-2.02,-0.80,0.80,0.97,0.65,-1.22,-1.22,-1.22
60.35,-1.99,-0.74,-1.99,-0.74,0.74,0.91,0.60,-1.25,-1.25,-1.25
60.96,-1.96,-0.68,-1.96,-0.69,0.68,0.86,0.55,-1.28,-1.28,-1.28
61.57,-1.94,-0.64,-1.94,-0.63,0.63,0.80,0.51,-1.31,-1.31,-1.30
62.18,-1.91,-0.57,-1.91,-0.57,0.57,0.75,0.46,-1.34,-1.34,-1.34
62.80,-1.88,-0.52,-1.88,-0.52,0.52,0.70,0.42,-1.36,-1.37,-1.36
63.43,-1.85,-0.46,-1.85,-0.46,0.46,0.65,0.38,-1.39,-1.39,-1.39
64.07,-1.83,-0.41,-1.83,-0.41,0.41,0.60,0.34,-1.42,-1.42,-1.42
64.71,-1.80,-0.36,-1.80,-0.36,0.36,0.55,0.30,-1.44,-1.44,-1.44
65.35,-1.78,-0.32,-1.78,-0.31,0.32,0.50,0.26,-1.46,-1.46,-1.46
66.01,-1.75,-0.27,-1.75,-0.27,0.27,0.46,0.23,-1.48,-1.48,-1.48
66.67,-1.73,-0.23,-1.73,-0.23,0.24,0.41,0.20,-1.49,-1.49,-1.50
67.33,-1.71,-0.19,-1.71,-0.20,0.20,0.36,0.17,-1.51,-1.51,-1.52
68.01,-1.70,-0.17,-1.70,-0.17,0.17,0.32,0.14,-1.53,-1.53,-1.53
68.69,-1.69,-0.15,-1.69,-0.14,0.14,0.28,0.11,-1.55,-1.55,-1.54
69.37,-1.67,-0.12,-1.67,-0.12,0.11,0.23,0.08,-1.56,-1.56,-1.55
70.07,-1.65,-0.09,-1.65,-0.09,0.08,0.19,0.06,-1.57,-1.57,-1.56
70.77,-1.63,-0.05,-1.63,-0.06,0.06,0.15,0.03,-1.57,-1.57,-1.58
71.48,-1.62,-0.04,-1.62,-0.04,0.04,0.11,0.01,-1.58,-1.58,-1.58
72.19,-1.61,-0.02,-1.61,-0.02,0.02,0.07,-0.01,-1.59,-1.59,-1.59
72.91,-1.60,0.01,-1.60,0.00,-0.00,0.03,-0.04,-1.60,-1.60,-1.61
73.64,-1.60,0.02,-1.60,0.02,-0.02,-0.00,-0.06,-1.62,-1.62,-1.62
74.38,-1.60,0.04,-1.60,0.04,-0.03,-0.04,-0.08,-1.63,-1.63,-1.64
75.12,-1.60,0.05,-1.60,0.05,-0.05,-0.08,-0.10,-1.65,-1.65,-1.65
75.87,-1.61,0.06,-1.61,0.06,-0.06,-0.11,-0.12,-1.67,-1.67,-1.67
76.63,-1.62,0.07,-1.62,0.07,-0.08,-0.15,-0.14,-1.70,-1.70,-1.69
77.40,-1.62,0.09,-1.62,0.09,-0.10,-0.18,-0.16,-1.72,-1.72,-1.71
78.17,-1.62,0.11,-1.62,0.11,-0.11,-0.21,-0.18,-1.73,-1.73,-1.73
78.95,-1.62,0.13,-1.62,0.13,-0.13,-0.24,-0.20,-1.75,-1.75,-1.75
79.74,-1.62,0.15,-1.62,0.15,-0.15,-0.28,-0.22,-1.77,-1.77,-1.77
80.54,-1.62,0.17,-1.62,0.17,-0.17,-0.31,-0.24,-1.79,-1.79,-1.79
81.35,-1.62,0.19,-1.62,0.19,-0.19,-0.34,-0.26,-1.81,-1.81,-1.81
82.16,-1.62,0.21,-1.62,0.21,-0.21,-0.36,-0.28,-1.83,-1.83,-1.83
82.98,-1.62,0.24,-1.62,0.23,-0.23,-0.39,-0.30,-1.85,-1.85,-1.86
83.81,-1.62,0.25,-1.62,0.25,-0.25,-0.42,-0.32,-1.87,-1.87,-1.87
84.65,-1.62,0.26,-1.62,0.26,-0.26,-0.45,-0.34,-1.88,-1.88,-1.88
85.50,-1.62,0.27,-1.62,0.27,-0.27,-0.47,-0.36,-1.89,-1.89,-1.89
86.35,-1.62,0.29,-1.62,0.29,-0.29,-0.50,-0.38,-1.91,-1.91,-1.91
87.22,-1.62,0.30,-1.62,0.30,-0.30,-0.52,-0.41,-1.92,-1.92,-1.92
88.09,-1.62,0.32,-1.62,0.32,-0.32,-0.55,-0.43,-1.94,-1.94,-1.94
88.97,-1.62,0.33,-1.62,0.33,-0.34,-0.57,-0.45,-1.96,-1.96,-1.95
89.86,-1.62,0.35,-1.62,0.35,-0.36,-0.59,-0.48,-1.98,-1.97,-1.97
90.76,-1.61,0.37,-1.61,0.37,-0.38,-0.62,-0.50,-1.99,-1.99,-1.98
91.66,-1.60,0.40,-1.60,0.40,-0.40,-0.64,-0.53,-2.00,-2.00,-2.00
92.58,-1.60,0.42,-1.60,0.42,-0.42,-0.66,-0.55,-2.02,-2.01,-2.02
93.51,-1.60,0.45,-1.60,0.44,-0.43,-0.68,-0.58,-2.03,-2.03,-2.05
94.44,-1.61,0.45,-1.61,0.45,-0.45,-0.70,-0.60,-2.06,-2.06,-2.06
95.39,-1.63,0.46,-1.63,0.46,-0.46,-0.72,-0.63,-2.09,-2.09,-2.09
96.34,-1.65,0.47,-1.65,0.47,-0.47,-0.73,-0.66,-2.12,-2.12,-2.12
97.30,-1.68,0.48,-1.68,0.48,-0.48,-0.75,-0.68,-2.16,-2.15,-2.16
98.28,-1.70,0.49,-1.70,0.48,-0.48,-0.77,-0.71,-2.18,-2.19,-2.19
99.26,-1.74,0.49,-1.74,0.49,-0.49,-0.78,-0.74,-2.23,-2.23,-2.23
100.25,-1.77,0.49,-1.77,0.49,-0.50,-0.80,-0.77,-2.27,-2.27,-2.26
101.25,-1.81,0.49,-1.80,0.50,-0.51,-0.82,-0.79,-2.32,-2.31,-2.30
102.27,-1.83,0.51,-1.83,0.51,-0.52,-0.83,-0.82,-2.35,-2.35,-2.34
103.29,-1.85,0.53,-1.85,0.53,-0.53,-0.84,-0.85,-2.38,-2.38,-2.38
104.32,-1.87,0.56,-1.87,0.55,-0.55,-0.86,-0.88,-2.42,-2.42,-2.43
105.37,-1.90,0.57,-1.90,0.57,-0.57,-0.87,-0.90,-2.47,-2.47,-2.47
106.42,-1.93,0.59,-1.93,0.59,-0.59,-0.88,-0.93,-2.52,-2.52,-2.52
107.48,-1.95,0.61,-1.95,0.61,-0.62,-0.89,-0.96,-2.57,-2.57,-2.56
108.56,-1.97,0.64,-1.97,0.64,-0.66,-0.91,-0.98,-2.63,-2.62,-2.61
109.64,-1.97,0.68,-1.97,0.68,-0.69,-0.92,-1.01,-2.66,-2.66,-2.65
110.74,-1.96,0.74,-1.96,0.73,-0.73,-0.93,-1.03,-2.69,-2.69,-2.70
111.85,-1.95,0.79,-1.95,0.78,-0.77,-0.94,-1.06,-2.72,-2.73,-2.74
112.97,-1.95,0.82,-1.95,0.83,-0.82,-0.95,-1.08,-2.77,-2.77,-2.77
114.10,-1.95,0.86,-1.95,0.87,-0.86,-0.96,-1.10,-2.81,-2.81,-2.81
115.24,-1.95,0.90,-1.95,0.90,-0.90,-0.96,-1.12,-2.85,-2.85,-2.85
116.39,-1.95,0.94,-1.95,0.94,-0.94,-0.97,-1.14,-2.89,-2.89,-2.89
117.55,-1.95,0.97,-1.95,0.97,-0.97,-0.98,-1.16,-2.92,-2.92,-2.92
118.73,-1.95,1.00,-1.95,1.00,-1.00,-0.99,-1.17,-2.95,-2.95,-2.95
119.92,-1.95,1.03,-1.95,1.03,-1.03,-0.99,-1.18,-2.98,-2.98,-2.98
121.12,-1.95,1.06,-1.95,1.06,-1.06,-1.00,-1.20,-3.01,-3.01,-3.01
122.33,-1.95,1.07,-1.95,1.08,-1.09,-1.01,-1.21,-3.04,-3.04,-3.02
123.55,-1.94,1.11,-1.94,1.11,-1.12,-1.01,-1.21,-3.06,-3.06,-3.05
124.79,-1.93,1.15,-1.93,1.14,-1.14,-1.02,-1.22,-3.07,-3.07,-3.08
126.03,-1.92,1.17,-1.93,1.17,-1.16,-1.02,-1.22,-3.08,-3.09,-3.09
127.29,-1.93,1.19,-1.93,1.19,-1.18,-1.02,-1.22,-3.11,-3.11,-3.12
128.57,-1.94,1.19,-1.94,1.19,-1.19,-1.03,-1.22,-3.13,-3.13,-3.13
129.85,-1.95,1.20,-1.95,1.20,-1.20,-1.03,-1.22,-3.15,-3.15,-3.15
131.15,-1.97,1.20,-1.97,1.20,-1.20,-1.03,-1.21,-3.17,-3.16,-3.17
132.46,-1.99,1.20,-1.99,1.20,-1.19,-1.04,-1.20,-3.18,-3.19,-3.19
133.79,-2.02,1.19,-2.02,1.18,-1.18,-1.04,-1.20,-3.20,-3.21,-3.21
135.12,-2.07,1.16,-2.06,1.17,-1.17,-1.04,-1.18,-3.24,-3.23,-3.23
136.48,-2.09,1.16,-2.09,1.16,-1.16,-1.04,-1.17,-3.25,-3.26,-3.25
137.84,-2.13,1.14,-2.13,1.15,-1.15,-1.04,-1.16,-3.28,-3.28,-3.27
139.22,-2.15,1.15,-2.16,1.14,-1.14,-1.04,-1.14,-3.29,-3.30,-3.30
140.61,-2.19,1.13,-2.19,1.13,-1.13,-1.04,-1.13,-3.32,-3.32,-3.32
142.02,-2.23,1.12,-2.22,1.13,-1.13,-1.04,-1.11,-3.36,-3.35,-3.35
143.44,-2.24,1.13,-2.25,1.12,-1.13,-1.04,-1.09,-3.37,-3.38,-3.37
144.87,-2.27,1.13,-2.27,1.13,-1.14,-1.04,-1.07,-3.41,-3.41,-3.40
146.32,-2.28,1.14,-2.28,1.14,-1.16,-1.04,-1.06,-3.44,-3.43,-3.42
147.78,-2.28,1.16,-2.28,1.16,-1.18,-1.04,-1.04,-3.46,-3.45,-3.44
149.26,-2.27,1.19,-2.27,1.19,-1.20,-1.04,-1.02,-3.47,-3.47,-3.46
150.75,-2.26,1.23,-2.26,1.23,-1.22,-1.04,-0.99,-3.48,-3.48,-3.49
152.26,-2.26,1.25,-2.26,1.25,-1.24,-1.04,-0.97,-3.50,-3.50,-3.51
153.78,-2.27,1.27,-2.27,1.27,-1.25,-1.03,-0.95,-3.52,-3.52,-3.54
155.32,-2.28,1.27,-2.29,1.27,-1.26,-1.03,-0.93,-3.54,-3.54,-3.55
156.88,-2.32,1.25,-2.31,1.26,-1.26,-1.03,-0.91,-3.58,-3.57,-3.57
158.44,-2.34,1.26,-2.34,1.25,-1.25,-1.02,-0.89,-3.59,-3.59,-3.60
160.03,-2.38,1.24,-2.38,1.24,-1.24,-1.02,-0.87,-3.62,-3.61,-3.62
161.63,-2.41,1.22,-2.41,1.22,-1.22,-1.02,-0.85,-3.63,-3.63,-3.63
163.24,-2.44,1.21,-2.45,1.20,-1.20,-1.01,-0.83,-3.64,-3.65,-3.65
164.88,-2.49,1.18,-2.48,1.18,-1.19,-1.01,-0.81,-3.68,-3.67,-3.67
166.53,-2.51,1.17,-2.51,1.17,-1.18,-1.01,-0.79,-3.69,-3.69,-3.68
168.19,-2.54,1.16,-2.54,1.16,-1.16,-1.00,-0.78,-3.70,-3.70,-3.70
169.87,-2.56,1.15,-2.56,1.15,-1.16,-1.00,-0.76,-3.72,-3.71,-3.71
171.57,-2.57,1.15,-2.57,1.15,-1.15,-0.99,-0.74,-3.72,-3.72,-3.72
173.29,-2.58,1.15,-2.58,1.15,-1.15,-0.99,-0.72,-3.73,-3.73,-3.73
175.02,-2.60,1.14,-2.60,1.14,-1.14,-0.98,-0.71,-3.74,-3.74,-3.74
176.77,-2.61,1.14,-2.61,1.14,-1.14,-0.97,-0.69,-3.75,-3.74,-3.75
178.54,-2.62,1.13,-2.62,1.13,-1.13,-0.97,-0.68,-3.75,-3.74,-3.75
180.32,-2.63,1.12,-2.63,1.12,-1.11,-0.96,-0.66,-3.74,-3.74,-3.75
182.13,-2.65,1.11,-2.66,1.10,-1.09,-0.95,-0.65,-3.74,-3.75,-3.76
183.95,-2.69,1.07,-2.69,1.07,-1.07,-0.95,-0.64,-3.76,-3.75,-3.76
185.79,-2.72,1.03,-2.72,1.04,-1.04,-0.94,-0.62,-3.76,-3.76,-3.75
187.65,-2.75,1.01,-2.75,1.01,-1.01,-0.93,-0.61,-3.76,-3.76,-3.76
189.52,-2.78,0.98,-2.78,0.98,-0.98,-0.93,-0.60,-3.76,-3.76,-3.76
191.42,-2.82,0.94,-2.82,0.95,-0.95,-0.92,-0.59,-3.77,-3.77,-3.76
193.33,-2.85,0.92,-2.85,0.92,-0.92,-0.91,-0.58,-3.77,-3.77,-3.77
195.27,-2.87,0.90,-2.87,0.89,-0.90,-0.90,-0.57,-3.77,-3.77,-3.77
197.22,-2.89,0.88,-2.89,0.88,-0.89,-0.89,-0.56,-3.78,-3.77,-3.77
199.19,-2.90,0.87,-2.90,0.87,-0.88,-0.89,-0.55,-3.78,-3.78,-3.77
201.18,-2.91,0.87,-2.91,0.86,-0.87,-0.88,-0.54,-3.78,-3.78,-3.78
203.19,-2.93,0.85,-2.93,0.86,-0.86,-0.87,-0.53,-3.79,-3.79,-3.78
205.23,-2.94,0.85,-2.94,0.85,-0.85,-0.86,-0.52,-3.79,-3.79,-3.79
207.28,-2.95,0.85,-2.95,0.85,-0.84,-0.85,-0.51,-3.79,-3.79,-3.80
209.35,-2.96,0.84,-2.96,0.84,-0.82,-0.84,-0.51,-3.78,-3.79,-3.80
211.44,-2.99,0.82,-2.99,0.82,-0.81,-0.83,-0.50,-3.80,-3.79,-3.81
213.56,-3.02,0.80,-3.02,0.79,-0.78,-0.82,-0.49,-3.80,-3.81,-3.82
215.69,-3.06,0.75,-3.06,0.76,-0.76,-0.81,-0.48,-3.82,-3.82,-3.81
217.85,-3.10,0.72,-3.09,0.73,-0.74,-0.80,-0.48,-3.84,-3.83,-3.82
220.03,-3.12,0.71,-3.12,0.71,-0.71,-0.79,-0.47,-3.83,-3.83,-3.83
222.23,-3.15,0.69,-3.15,0.68,-0.69,-0.78,-0.46,-3.84,-3.84,-3.84
224.45,-3.18,0.66,-3.18,0.66,-0.67,-0.76,-0.46,-3.85,-3.85,-3.84
226.70,-3.21,0.64,-3.20,0.65,-0.65,-0.75,-0.45,-3.86,-3.86,-3.85
228.96,-3.22,0.64,-3.22,0.64,-0.64,-0.74,-0.44,-3.86,-3.86,-3.86
231.25,-3.23,0.63,-3.24,0.63,-0.64,-0.73,-0.44,-3.87,-3.87,-3.86
233.57,-3.25,0.63,-3.25,0.63,-0.63,-0.71,-0.43,-3.88,-3.88,-3.88
235.90,-3.26,0.63,-3.26,0.63,-0.63,-0.70,-0.42,-3.89,-3.89,-3.89
238.26,-3.27,0.63,-3.27,0.63,-0.63,-0.69,-0.41,-3.90,-3.90,-3.90
240.64,-3.29,0.62,-3.28,0.63,-0.62,-0.67,-0.41,-3.91,-3.91,-3.91
243.05,-3.30,0.62,-3.30,0.62,-0.62,-0.66,-0.40,-3.92,-3.92,-3.92
245.48,-3.32,0.62,-3.33,0.61,-0.61,-0.64,-0.39,-3.93,-3.93,-3.94
247.93,-3.36,0.58,-3.35,0.59,-0.59,-0.62,-0.38,-3.95,-3.94,-3.94
250.41,-3.38,0.58,-3.38,0.57,-0.57,-0.61,-0.37,-3.95,-3.96,-3.96
252.92,-3.42,0.54,-3.42,0.55,-0.55,-0.59,-0.36,-3.97,-3.97,-3.96
255.45,-3.45,0.53,-3.45,0.52,-0.52,-0.57,-0.35,-3.97,-3.97,-3.98
258.00,-3.49,0.49,-3.49,0.49,-0.49,-0.55,-0.34,-3.98,-3.98,-3.98
260.58,-3.54,0.46,-3.54,0.46,-0.45,-0.54,-0.33,-3.99,-3.99,-4.00
263.19,-3.58,0.42,-3.58,0.42,-0.42,-0.52,-0.32,-4.00,-4.00,-4.00
265.82,-3.63,0.37,-3.63,0.38,-0.38,-0.50,-0.31,-4.01,-4.01,-4.00
268.48,-3.67,0.35,-3.67,0.34,-0.35,-0.47,-0.30,-4.02,-4.02,-4.02
271.16,-3.72,0.30,-3.72,0.30,-0.31,-0.45,-0.29,-4.03,-4.03,-4.02
273.87,-3.77,0.26,-3.76,0.27,-0.28,-0.43,-0.27,-4.05,-4.04,-4.03
276.61,-3.80,0.25,-3.80,0.24,-0.24,-0.40,-0.26,-4.04,-4.04,-4.05
279.38,-3.84,0.21,-3.84,0.21,-0.20,-0.38,-0.25,-4.04,-4.04,-4.05
282.17,-3.89,0.17,-3.89,0.17,-0.16,-0.35,-0.23,-4.05,-4.05,-4.06
284.99,-3.95,0.13,-3.96,0.12,-0.11,-0.33,-0.22,-4.06,-4.07,-4.08
287.84,-4.03,0.06,-4.02,0.07,-0.07,-0.30,-0.21,-4.10,-4.09,-4.09
290.72,-4.09,0.01,-4.09,0.01,-0.03,-0.27,-0.19,-4.12,-4.12,-4.10
293.63,-4.15,-0.04,-4.15,-0.03,0.02,-0.23,-0.18,-4.13,-4.13,-4.11
296.57,-4.20,-0.07,-4.20,-0.07,0.07,-0.20,-0.16,-4.13,-4.13,-4.13
299.53,-4.25,-0.11,-4.25,-0.11,0.12,-0.17,-0.15,-4.13,-4.13,-4.14
302.53,-4.30,-0.15,-4.30,-0.15,0.16,-0.13,-0.13,-4.14,-4.14,-4.15
305.55,-4.36,-0.20,-4.36,-0.20,0.21,-0.09,-0.11,-4.15,-4.16,-4.16
308.61,-4.43,-0.25,-4.43,-0.25,0.25,-0.05,-0.10,-4.18,-4.18,-4.18
311.69,-4.50,-0.31,-4.49,-0.30,0.30,-0.01,-0.08,-4.20,-4.20,-4.19
314.81,-4.55,-0.35,-4.55,-0.35,0.34,0.03,-0.06,-4.21,-4.21,-4.20
317.96,-4.59,-0.38,-4.59,-0.39,0.38,0.08,-0.05,-4.21,-4.21,-4.21
321.14,-4.64,-0.43,-4.64,-0.42,0.42,0.12,-0.03,-4.22,-4.21,-4.21
324.35,-4.68,-0.45,-4.68,-0.46,0.47,0.17,-0.01,-4.21,-4.22,-4.23
327.59,-4.73,-0.50,-4.73,-0.50,0.50,0.22,0.01,-4.23,-4.23,-4.23
330.87,-4.78,-0.54,-4.78,-0.54,0.54,0.28,0.02,-4.24,-4.23,-4.24
334.18,-4.82,-0.58,-4.82,-0.58,0.58,0.33,0.04,-4.24,-4.24,-4.24
337.52,-4.86,-0.62,-4.86,-0.62,0.62,0.39,0.06,-4.24,-4.25,-4.24
340.90,-4.90,-0.65,-4.90,-0.65,0.65,0.45,0.08,-4.25,-4.25,-4.25
344.30,-4.95,-0.70,-4.94,-0.69,0.68,0.51,0.10,-4.27,-4.26,-4.25
347.75,-4.98,-0.72,-4.98,-0.72,0.71,0.58,0.12,-4.27,-4.27,-4.26
351.23,-5.01,-0.75,-5.01,-0.75,0.75,0.64,0.14,-4.26,-4.26,-4.26
354.74,-5.03,-0.77,-5.03,-0.77,0.78,0.71,0.16,-4.25,-4.25,-4.26
358.28,-5.06,-0.80,-5.06,-0.80,0.82,0.78,0.18,-4.25,-4.25,-4.26
361.87,-5.10,-0.84,-5.10,-0.84,0.85,0.85,0.20,-4.25,-4.24,-4.26
365.49,-5.14,-0.88,-5.14,-0.88,0.89,0.92,0.22,-4.25,-4.25,-4.26
369.14,-5.19,-0.93,-5.19,-0.93,0.93,0.99,0.24,-4.26,-4.26,-4.26
372.83,-5.24,-0.99,-5.24,-0.98,0.98,1.05,0.27,-4.26,-4.27,-4.25
376.56,-5.29,-1.04,-5.29,-1.03,1.02,1.12,0.29,-4.27,-4.27,-4.25
380.33,-5.33,-1.06,-5.33,-1.07,1.06,1.19,0.31,-4.27,-4.27,-4.27
384.13,-5.36,-1.09,-5.36,-1.10,1.09,1.25,0.33,-4.27,-4.27,-4.27
387.97,-5.39,-1.12,-5.39,-1.12,1.12,1.30,0.35,-4.27,-4.26,-4.27
391.85,-5.41,-1.14,-5.41,-1.15,1.15,1.35,0.37,-4.26,-4.26,-4.27
395.77,-5.44,-1.17,-5.44,-1.17,1.18,1.40,0.39,-4.26,-4.26,-4.27
399.73,-5.47,-1.19,-5.47,-1.19,1.20,1.44,0.41,-4.27,-4.27,-4.28
403.72,-5.49,-1.21,-5.49,-1.21,1.21,1.47,0.43,-4.28,-4.28,-4.28
407.76,-5.51,-1.22,-5.51,-1.23,1.22,1.49,0.45,-4.29,-4.29,-4.29
411.84,-5.53,-1.24,-5.53,-1.23,1.22,1.50,0.47,-4.31,-4.31,-4.29
415.96,-5.54,-1.24,-5.53,-1.23,1.22,1.50,0.49,-4.32,-4.32,-4.30
420.12,-5.53,-1.22,-5.53,-1.22,1.21,1.49,0.51,-4.32,-4.32,-4.31
424.32,-5.52,-1.19,-5.52,-1.20,1.20,1.47,0.52,-4.32,-4.33,-4.33
