frequency,raw,error,smoothed,error_smoothed,equalization,parametric_eq,fixed_band_eq,equalized_raw,equalized_smoothed,target
20.00,-7.52,-4.09,-7.53,-4.10,4.08,3.87,0.75,-3.44,-3.45,-3.42
20.20,-7.43,-3.98,-7.42,-3.98,3.97,3.84,0.77,-3.46,-3.45,-3.44
20.40,-7.33,-3.87,-7.32,-3.87,3.87,3.81,0.79,-3.46,-3.45,-3.45
20.61,-7.24,-3.78,-7.23,-3.76,3.78,3.78,0.82,-3.46,-3.46,-3.46
20.81,-7.14,-3.65,-7.14,-3.66,3.69,3.74,0.84,-3.45,-3.46,-3.48
21.02,-7.06,-3.56,-7.07,-3.57,3.60,3.70,0.87,-3.46,-3.47,-3.49
21.23,-7.01,-3.50,-7.00,-3.50,3.52,3.66,0.90,-3.49,-3.48,-3.50
21.44,-6.96,-3.44,-6.96,-3.44,3.44,3.61,0.93,-3.51,-3.51,-3.51
21.66,-6.91,-3.38,-6.91,-3.39,3.38,3.56,0.96,-3.53,-3.53,-3.52
21.87,-6.87,-3.33,-6.86,-3.33,3.32,3.51,0.99,-3.55,-3.55,-3.53
22.09,-6.81,-3.27,-6.81,-3.27,3.26,3.46,1.02,-3.55,-3.55,-3.53
22.31,-6.75,-3.20,-6.75,-3.21,3.20,3.41,1.05,-3.55,-3.55,-3.54
22.54,-6.69,-3.15,-6.69,-3.14,3.14,3.35,1.08,-3.55,-3.55,-3.54
22.76,-6.63,-3.07,-6.62,-3.08,3.08,3.30,1.11,-3.54,-3.54,-3.55
22.99,-6.56,-3.01,-6.57,-3.02,3.03,3.24,1.15,-3.53,-3.54,-3.54
23.22,-6.52,-2.96,-6.52,-2.97,2.98,3.18,1.18,-3.54,-3.54,-3.55
23.45,-6.48,-2.92,-6.48,-2.93,2.93,3.12,1.22,-3.55,-3.54,-3.55
23.69,-6.44,-2.89,-6.43,-2.89,2.89,3.06,1.25,-3.55,-3.55,-3.54
23.92,-6.39,-2.84,-6.39,-2.85,2.84,2.99,1.29,-3.55,-3.55,-3.54
24.16,-6.34,-2.80,-6.34,-2.80,2.79,2.93,1.33,-3.54,-3.55,-3.53
24.40,-6.29,-2.75,-6.29,-2.75,2.74,2.87,1.36,-3.54,-3.54,-3.53
24.65,-6.23,-2.69,-6.23,-2.70,2.69,2.80,1.40,-3.54,-3.54,-3.53
24.89,-6.17,-2.63,-6.17,-2.63,2.62,2.74,1.44,-3.54,-3.54,-3.53
25.14,-6.10,-2.56,-6.10,-2.56,2.56,2.67,1.48,-3.54,-3.54,-3.53
25.39,-6.03,-2.49,-6.02,-2.49,2.49,2.61,1.52,-3.53,-3.53,-3.53
25.65,-5.95,-2.42,-5.95,-2.42,2.43,2.55,1.56,-3.52,-3.51,-3.52
25.91,-5.87,-2.35,-5.88,-2.35,2.37,2.48,1.59,-3.50,-3.51,-3.52
26.16,-5.82,-2.29,-5.82,-2.29,2.31,2.42,1.63,-3.50,-3.51,-3.52
26.43,-5.78,-2.24,-5.78,-2.25,2.26,2.35,1.67,-3.52,-3.52,-3.53
26.69,-5.74,-2.20,-5.74,-2.21,2.20,2.29,1.70,-3.54,-3.54,-3.53
26.96,-5.71,-2.17,-5.70,-2.16,2.15,2.23,1.74,-3.56,-3.55,-3.53
27.23,-5.65,-2.11,-5.65,-2.11,2.09,2.16,1.77,-3.56,-3.55,-3.53
27.50,-5.58,-2.03,-5.59,-2.04,2.03,2.10,1.80,-3.54,-3.55,-3.54
27.77,-5.52,-1.96,-5.52,-1.97,1.97,2.04,1.83,-3.55,-3.55,-3.55
28.05,-5.46,-1.90,-5.45,-1.90,1.90,1.98,1.86,-3.55,-3.55,-3.55
28.33,-5.39,-1.82,-5.39,-1.83,1.83,1.92,1.89,-3.56,-3.56,-3.56
28.62,-5.33,-1.77,-5.33,-1.76,1.76,1.86,1.91,-3.57,-3.57,-3.56
28.90,-5.26,-1.68,-5.26,-1.69,1.68,1.80,1.93,-3.57,-3.58,-3.57
29.19,-5.20,-1.61,-5.19,-1.61,1.61,1.74,1.95,-3.59,-3.59,-3.58
29.48,-5.13,-1.54,-5.13,-1.54,1.54,1.68,1.96,-3.59,-3.59,-3.58
29.78,-5.06,-1.46,-5.06,-1.47,1.47,1.62,1.97,-3.59,-3.59,-3.59
30.08,-5.00,-1.40,-5.00,-1.40,1.41,1.56,1.98,-3.59,-3.59,-3.60
30.38,-4.95,-1.34,-4.94,-1.34,1.35,1.51,1.98,-3.60,-3.59,-3.60
30.68,-4.90,-1.28,-4.90,-1.28,1.30,1.45,1.98,-3.60,-3.60,-3.61
30.99,-4.85,-1.22,-4.86,-1.23,1.25,1.40,1.97,-3.60,-3.60,-3.62
31.30,-4.83,-1.19,-4.83,-1.20,1.21,1.34,1.97,-3.62,-3.62,-3.63
31.61,-4.81,-1.17,-4.81,-1.17,1.16,1.29,1.95,-3.65,-3.65,-3.63
31.93,-4.79,-1.15,-4.78,-1.14,1.11,1.24,1.94,-3.68,-3.67,-3.63
32.24,-4.73,-1.08,-4.72,-1.08,1.05,1.19,1.91,-3.68,-3.67,-3.64
32.57,-4.65,-1.00,-4.66,-1.01,0.99,1.13,1.89,-3.66,-3.66,-3.64
32.89,-4.58,-0.93,-4.58,-0.93,0.93,1.08,1.86,-3.64,-3.64,-3.64
33.22,-4.51,-0.86,-4.50,-0.86,0.88,1.03,1.83,-3.63,-3.62,-3.64
33.55,-4.43,-0.79,-4.43,-0.79,0.83,0.99,1.79,-3.60,-3.60,-3.63
33.89,-4.36,-0.73,-4.37,-0.74,0.78,0.94,1.75,-3.58,-3.59,-3.62
34.23,-4.33,-0.70,-4.34,-0.72,0.73,0.89,1.71,-3.60,-3.61,-3.62
34.57,-4.33,-0.71,-4.33,-0.71,0.69,0.84,1.66,-3.64,-3.64,-3.61
34.92,-4.33,-0.71,-4.31,-0.70,0.66,0.80,1.62,-3.67,-3.65,-3.61
35.27,-4.27,-0.66,-4.26,-0.65,0.63,0.75,1.57,-3.64,-3.63,-3.60
35.62,-4.19,-0.58,-4.19,-0.59,0.60,0.71,1.51,-3.59,-3.59,-3.60
35.97,-4.12,-0.51,-4.14,-0.53,0.56,0.66,1.46,-3.55,-3.57,-3.60
36.33,-4.11,-0.50,-4.11,-0.51,0.52,0.62,1.40,-3.59,-3.59,-3.60
36.70,-4.10,-0.49,-4.10,-0.49,0.47,0.57,1.34,-3.63,-3.63,-3.60
37.06,-4.09,-0.48,-4.06,-0.46,0.42,0.53,1.28,-3.67,-3.64,-3.60
37.43,-4.00,-0.39,-3.99,-0.39,0.38,0.49,1.22,-3.62,-3.62,-3.60
37.81,-3.91,-0.29,-3.93,-0.31,0.34,0.45,1.16,-3.57,-3.59,-3.61
38.19,-3.87,-0.24,-3.88,-0.26,0.30,0.41,1.10,-3.57,-3.58,-3.62
38.57,-3.87,-0.23,-3.86,-0.23,0.26,0.37,1.03,-3.61,-3.60,-3.63
38.95,-3.87,-0.22,-3.86,-0.22,0.22,0.33,0.97,-3.65,-3.65,-3.64
39.34,-3.86,-0.20,-3.86,-0.21,0.17,0.29,0.91,-3.68,-3.69,-3.65
39.74,-3.85,-0.18,-3.84,-0.18,0.14,0.25,0.84,-3.71,-3.71,-3.66
40.14,-3.81,-0.12,-3.79,-0.11,0.10,0.21,0.78,-3.71,-3.69,-3.68
40.54,-3.73,-0.04,-3.73,-0.04,0.06,0.17,0.71,-3.67,-3.67,-3.68
40.94,-3.65,0.05,-3.68,0.02,0.01,0.13,0.65,-3.64,-3.66,-3.69
41.35,-3.64,0.06,-3.64,0.05,-0.04,0.10,0.58,-3.68,-3.69,-3.69
41.76,-3.64,0.06,-3.62,0.07,-0.10,0.06,0.51,-3.73,-3.72,-3.69
42.18,-3.60,0.10,-3.58,0.12,-0.14,0.02,0.45,-3.74,-3.72,-3.69
42.60,-3.51,0.19,-3.51,0.19,-0.18,-0.01,0.38,-3.68,-3.68,-3.69
43.03,-3.42,0.28,-3.45,0.25,-0.20,-0.05,0.32,-3.62,-3.65,-3.69
43.46,-3.42,0.28,-3.41,0.28,-0.23,-0.08,0.25,-3.65,-3.65,-3.69
43.90,-3.42,0.27,-3.41,0.27,-0.27,-0.12,0.19,-3.68,-3.68,-3.68
44.33,-3.42,0.27,-3.43,0.26,-0.30,-0.15,0.12,-3.72,-3.73,-3.68
44.78,-3.42,0.27,-3.40,0.28,-0.33,-0.19,0.06,-3.75,-3.73,-3.68
45.23,-3.37,0.31,-3.34,0.33,-0.36,-0.22,-0.00,-3.72,-3.70,-3.67
45.68,-3.26,0.42,-3.27,0.40,-0.38,-0.25,-0.07,-3.64,-3.66,-3.67
46.13,-3.19,0.49,-3.21,0.46,-0.41,-0.29,-0.13,-3.60,-3.63,-3.67
46.60,-3.19,0.49,-3.18,0.49,-0.46,-0.32,-0.20,-3.64,-3.64,-3.67
47.06,-3.19,0.48,-3.18,0.49,-0.50,-0.35,-0.26,-3.69,-3.68,-3.66
47.53,-3.16,0.51,-3.17,0.50,-0.55,-0.38,-0.32,-3.71,-3.71,-3.66
48.01,-3.14,0.53,-3.11,0.56,-0.59,-0.41,-0.39,-3.72,-3.70,-3.66
48.49,-3.05,0.63,-3.05,0.62,-0.61,-0.44,-0.45,-3.66,-3.66,-3.67
48.97,-2.96,0.72,-2.99,0.68,-0.64,-0.48,-0.51,-3.60,-3.63,-3.67
49.46,-2.96,0.71,-2.95,0.71,-0.66,-0.51,-0.58,-3.62,-3.62,-3.66
49.96,-2.96,0.71,-2.95,0.71,-0.69,-0.54,-0.64,-3.65,-3.65,-3.66
50.46,-2.96,0.71,-2.96,0.70,-0.73,-0.57,-0.70,-3.69,-3.69,-3.66
50.96,-2.96,0.71,-2.95,0.71,-0.76,-0.60,-0.76,-3.72,-3.71,-3.66
51.47,-2.91,0.75,-2.91,0.75,-0.79,-0.63,-0.82,-3.70,-3.70,-3.65
51.99,-2.86,0.80,-2.85,0.80,-0.82,-0.66,-0.88,-3.67,-3.67,-3.65
52.51,-2.79,0.87,-2.79,0.86,-0.84,-0.68,-0.94,-3.63,-3.63,-3.65
53.03,-2.73,0.93,-2.75,0.91,-0.86,-0.71,-1.00,-3.59,-3.61,-3.65
53.56,-2.73,0.94,-2.72,0.94,-0.89,-0.74,-1.06,-3.62,-3.62,-3.66
54.10,-2.73,0.94,-2.72,0.94,-0.92,-0.77,-1.11,-3.65,-3.64,-3.66
54.64,-2.73,0.94,-2.73,0.93,-0.95,-0.80,-1.17,-3.68,-3.69,-3.66
55.18,-2.73,0.95,-2.74,0.93,-0.98,-0.83,-1.22,-3.71,-3.72,-3.67
55.74,-2.73,0.94,-2.70,0.96,-1.01,-0.85,-1.27,-3.74,-3.72,-3.66
56.29,-2.67,1.00,-2.64,1.02,-1.04,-0.88,-1.32,-3.71,-3.68,-3.66
56.86,-2.54,1.12,-2.57,1.09,-1.07,-0.91,-1.37,-3.60,-3.64,-3.66
57.42,-2.51,1.16,-2.52,1.15,-1.09,-0.94,-1.42,-3.60,-3.61,-3.66
58.00,-2.51,1.16,-2.50,1.17,-1.11,-0.96,-1.46,-3.62,-3.61,-3.66
58.58,-2.51,1.16,-2.50,1.16,-1.14,-0.99,-1.50,-3.64,-3.64,-3.66
59.16,-2.51,1.16,-2.51,1.16,-1.16,-1.02,-1.54,-3.67,-3.67,-3.66
59.76,-2.51,1.16,-2.52,1.14,-1.19,-1.04,-1.58,-3.70,-3.71,-3.66
60.35,-2.51,1.16,-2.51,1.15,-1.21,-1.07,-1.61,-3.72,-3.72,-3.66
60.96,-2.51,1.16,-2.46,1.20,-1.24,-1.09,-1.65,-3.75,-3.70,-3.66
61.57,-2.38,1.28,-2.39,1.27,-1.27,-1.12,-1.68,-3.65,-3.66,-3.65
62.18,-2.28,1.38,-2.32,1.34,-1.30,-1.14,-1.70,-3.57,-3.61,-3.65
62.80,-2.28,1.38,-2.27,1.38,-1.32,-1.17,-1.73,-3.60,-3.59,-3.65
63.43,-2.28,1.38,-2.27,1.39,-1.35,-1.19,-1.75,-3.63,-3.62,-3.65
64.07,-2.28,1.39,-2.28,1.38,-1.37,-1.22,-1.77,-3.65,-3.65,-3.66
64.71,-2.28,1.39,-2.28,1.39,-1.40,-1.24,-1.78,-3.68,-3.68,-3.66
65.35,-2.28,1.40,-2.29,1.39,-1.43,-1.27,-1.80,-3.70,-3.71,-3.67
66.01,-2.28,1.41,-2.29,1.39,-1.45,-1.29,-1.81,-3.73,-3.74,-3.68
66.67,-2.28,1.41,-2.24,1.44,-1.48,-1.32,-1.82,-3.76,-3.73,-3.68
67.33,-2.20,1.50,-2.17,1.52,-1.52,-1.34,-1.82,-3.72,-3.69,-3.69
68.01,-2.05,1.65,-2.10,1.59,-1.56,-1.36,-1.83,-3.61,-3.66,-3.69
68.69,-2.05,1.65,-2.05,1.65,-1.60,-1.39,-1.83,-3.65,-3.65,-3.69
69.37,-2.05,1.66,-2.03,1.67,-1.63,-1.41,-1.83,-3.68,-3.66,-3.70
70.07,-2.05,1.66,-2.05,1.66,-1.66,-1.43,-1.83,-3.70,-3.70,-3.70
70.77,-2.05,1.67,-2.05,1.66,-1.67,-1.46,-1.83,-3.72,-3.72,-3.71
71.48,-2.05,1.67,-2.05,1.67,-1.67,-1.48,-1.83,-3.72,-3.72,-3.71
72.19,-2.05,1.67,-2.05,1.67,-1.67,-1.50,-1.83,-3.72,-3.72,-3.71
72.91,-2.05,1.68,-2.05,1.67,-1.67,-1.52,-1.83,-3.72,-3.72,-3.72
73.64,-2.05,1.68,-2.05,1.67,-1.68,-1.55,-1.82,-3.73,-3.74,-3.72
74.38,-2.05,1.68,-2.05,1.67,-1.71,-1.57,-1.82,-3.76,-3.76,-3.72
75.12,-2.04,1.69,-2.03,1.70,-1.74,-1.59,-1.82,-3.78,-3.77,-3.72
75.87,-2.00,1.73,-1.97,1.75,-1.77,-1.61,-1.81,-3.77,-3.74,-3.72
76.63,-1.88,1.85,-1.90,1.82,-1.80,-1.63,-1.81,-3.68,-3.70,-3.72
77.40,-1.82,1.90,-1.84,1.88,-1.83,-1.65,-1.81,-3.65,-3.67,-3.71
78.17,-1.82,1.90,-1.81,1.90,-1.86,-1.68,-1.81,-3.68,-3.67,-3.71
78.95,-1.82,1.89,-1.81,1.89,-1.88,-1.70,-1.81,-3.69,-3.69,-3.70
79.74,-1.82,1.89,-1.82,1.88,-1.89,-1.72,-1.81,-3.71,-3.71,-3.70
80.54,-1.82,1.88,-1.82,1.87,-1.89,-1.74,-1.81,-3.71,-3.71,-3.69
81.35,-1.82,1.87,-1.82,1.87,-1.88,-1.76,-1.81,-3.69,-3.69,-3.68
82.16,-1.82,1.87,-1.82,1.87,-1.86,-1.78,-1.81,-3.68,-3.68,-3.68
82.98,-1.82,1.87,-1.82,1.86,-1.85,-1.80,-1.82,-3.67,-3.67,-3.68
83.81,-1.82,1.87,-1.82,1.87,-1.86,-1.82,-1.82,-3.68,-3.68,-3.68
84.65,-1.82,1.87,-1.82,1.86,-1.88,-1.84,-1.83,-3.70,-3.70,-3.68
85.50,-1.82,1.88,-1.83,1.86,-1.91,-1.86,-1.84,-3.73,-3.74,-3.69
86.35,-1.82,1.88,-1.79,1.90,-1.95,-1.88,-1.85,-3.77,-3.74,-3.69
87.22,-1.77,1.94,-1.72,1.98,-1.99,-1.89,-1.86,-3.76,-3.71,-3.70
88.09,-1.59,2.12,-1.65,2.06,-2.03,-1.91,-1.87,-3.62,-3.68,-3.70
88.97,-1.59,2.13,-1.59,2.12,-2.07,-1.93,-1.88,-3.65,-3.66,-3.71
89.86,-1.59,2.13,-1.57,2.14,-2.10,-1.95,-1.90,-3.69,-3.67,-3.71
90.76,-1.59,2.14,-1.59,2.13,-2.13,-1.97,-1.92,-3.72,-3.72,-3.72
91.66,-1.59,2.14,-1.59,2.14,-2.15,-1.99,-1.93,-3.74,-3.74,-3.72
92.58,-1.59,2.15,-1.59,2.14,-2.16,-2.00,-1.95,-3.75,-3.75,-3.73
93.51,-1.59,2.15,-1.59,2.15,-2.16,-2.02,-1.98,-3.75,-3.75,-3.73
94.44,-1.59,2.16,-1.59,2.15,-2.16,-2.04,-2.00,-3.74,-3.74,-3.74
95.39,-1.59,2.16,-1.59,2.15,-2.15,-2.06,-2.02,-3.74,-3.74,-3.74
96.34,-1.59,2.16,-1.59,2.16,-2.15,-2.07,-2.05,-3.74,-3.74,-3.74
97.30,-1.59,2.16,-1.59,2.16,-2.15,-2.09,-2.07,-3.74,-3.74,-3.74
98.28,-1.59,2.17,-1.59,2.16,-2.15,-2.11,-2.10,-3.74,-3.74,-3.75
99.26,-1.59,2.17,-1.59,2.17,-2.15,-2.12,-2.13,-3.74,-3.74,-3.75
100.25,-1.59,2.17,-1.59,2.17,-2.16,-2.14,-2.16,-3.75,-3.75,-3.75
101.25,-1.59,2.18,-1.59,2.17,-2.18,-2.16,-2.19,-3.77,-3.78,-3.76
102.27,-1.59,2.18,-1.60,2.17,-2.21,-2.17,-2.22,-3.80,-3.81,-3.76
103.29,-1.59,2.19,-1.57,2.20,-2.24,-2.19,-2.25,-3.83,-3.81,-3.77
104.32,-1.54,2.24,-1.51,2.26,-2.28,-2.20,-2.28,-3.82,-3.79,-3.77
105.37,-1.42,2.36,-1.44,2.33,-2.31,-2.22,-2.31,-3.73,-3.76,-3.77
106.42,-1.37,2.41,-1.39,2.39,-2.34,-2.23,-2.35,-3.71,-3.73,-3.77
107.48,-1.37,2.41,-1.36,2.41,-2.37,-2.25,-2.38,-3.74,-3.73,-3.77
108.56,-1.37,2.40,-1.36,2.40,-2.39,-2.26,-2.41,-3.75,-3.75,-3.76
109.64,-1.37,2.40,-1.37,2.39,-2.40,-2.28,-2.44,-3.77,-3.77,-3.76
110.74,-1.37,2.39,-1.37,2.38,-2.40,-2.29,-2.47,-3.77,-3.77,-3.75
111.85,-1.37,2.38,-1.37,2.38,-2.39,-2.31,-2.50,-3.76,-3.76,-3.74
112.97,-1.37,2.37,-1.37,2.37,-2.38,-2.32,-2.53,-3.75,-3.75,-3.73
114.10,-1.37,2.37,-1.37,2.37,-2.37,-2.33,-2.56,-3.74,-3.74,-3.73
115.24,-1.37,2.37,-1.37,2.36,-2.36,-2.35,-2.58,-3.73,-3.73,-3.73
116.39,-1.37,2.37,-1.37,2.37,-2.36,-2.36,-2.60,-3.73,-3.73,-3.73
117.55,-1.37,2.37,-1.37,2.37,-2.36,-2.37,-2.63,-3.73,-3.73,-3.73
118.73,-1.37,2.37,-1.37,2.36,-2.36,-2.39,-2.65,-3.73,-3.73,-3.73
119.92,-1.37,2.37,-1.37,2.37,-2.37,-2.40,-2.66,-3.73,-3.73,-3.73
121.12,-1.37,2.37,-1.37,2.37,-2.37,-2.41,-2.68,-3.74,-3.74,-3.73
122.33,-1.37,2.38,-1.37,2.37,-2.37,-2.42,-2.69,-3.74,-3.74,-3.74
123.55,-1.37,2.38,-1.37,2.38,-2.38,-2.44,-2.70,-3.75,-3.75,-3.74
124.79,-1.37,2.39,-1.37,2.39,-2.38,-2.45,-2.71,-3.75,-3.75,-3.75
126.03,-1.37,2.40,-1.37,2.39,-2.39,-2.46,-2.72,-3.75,-3.75,-3.76
127.29,-1.37,2.40,-1.37,2.40,-2.39,-2.47,-2.72,-3.75,-3.75,-3.76
128.57,-1.37,2.41,-1.37,2.40,-2.39,-2.48,-2.72,-3.76,-3.76,-3.77
129.85,-1.37,2.41,-1.37,2.41,-2.40,-2.49,-2.72,-3.77,-3.77,-3.77
131.15,-1.37,2.42,-1.37,2.42,-2.42,-2.50,-2.71,-3.79,-3.79,-3.78
132.46,-1.37,2.43,-1.38,2.41,-2.45,-2.51,-2.70,-3.82,-3.83,-3.79
133.79,-1.37,2.43,-1.36,2.43,-2.48,-2.52,-2.70,-3.85,-3.84,-3.79
135.12,-1.36,2.44,-1.30,2.49,-2.52,-2.53,-2.68,-3.87,-3.82,-3.79
136.48,-1.20,2.60,-1.23,2.56,-2.55,-2.54,-2.67,-3.75,-3.78,-3.79
137.84,-1.14,2.66,-1.16,2.63,-2.59,-2.55,-2.66,-3.73,-3.75,-3.79
139.22,-1.14,2.67,-1.13,2.67,-2.62,-2.56,-2.64,-3.76,-3.75,-3.80
140.61,-1.14,2.67,-1.13,2.67,-2.65,-2.57,-2.63,-3.79,-3.78,-3.80
142.02,-1.14,2.67,-1.14,2.67,-2.67,-2.58,-2.61,-3.81,-3.81,-3.80
143.44,-1.14,2.67,-1.14,2.67,-2.68,-2.59,-2.59,-3.82,-3.82,-3.80
144.87,-1.14,2.68,-1.14,2.67,-2.68,-2.60,-2.57,-3.82,-3.82,-3.81
146.32,-1.14,2.68,-1.14,2.68,-2.68,-2.61,-2.56,-3.82,-3.82,-3.81
147.78,-1.14,2.68,-1.14,2.68,-2.68,-2.62,-2.54,-3.82,-3.82,-3.81
149.26,-1.14,2.68,-1.14,2.67,-2.68,-2.62,-2.52,-3.81,-3.81,-3.81
150.75,-1.14,2.68,-1.14,2.68,-2.68,-2.63,-2.50,-3.82,-3.82,-3.81
152.26,-1.14,2.68,-1.14,2.68,-2.68,-2.64,-2.48,-3.82,-3.82,-3.81
153.78,-1.14,2.69,-1.14,2.68,-2.68,-2.65,-2.47,-3.82,-3.82,-3.82
155.32,-1.14,2.69,-1.14,2.68,-2.68,-2.66,-2.45,-3.82,-3.82,-3.82
156.88,-1.14,2.68,-1.14,2.68,-2.68,-2.66,-2.44,-3.82,-3.82,-3.81
158.44,-1.14,2.68,-1.14,2.68,-2.68,-2.67,-2.42,-3.82,-3.82,-3.81
160.03,-1.14,2.68,-1.14,2.67,-2.68,-2.68,-2.41,-3.82,-3.82,-3.81
161.63,-1.14,2.68,-1.14,2.68,-2.68,-2.68,-2.40,-3.81,-3.81,-3.81
163.24,-1.14,2.68,-1.14,2.68,-2.67,-2.69,-2.39,-3.81,-3.81,-3.81
164.88,-1.14,2.68,-1.14,2.68,-2.67,-2.70,-2.38,-3.81,-3.81,-3.81
166.53,-1.14,2.68,-1.14,2.67,-2.67,-2.70,-2.38,-3.81,-3.81,-3.81
168.19,-1.14,2.67,-1.14,2.67,-2.67,-2.71,-2.37,-3.81,-3.81,-3.80
169.87,-1.14,2.67,-1.14,2.67,-2.67,-2.71,-2.37,-3.81,-3.81,-3.80
171.57,-1.14,2.67,-1.14,2.66,-2.67,-2.72,-2.37,-3.80,-3.80,-3.80
173.29,-1.14,2.67,-1.14,2.67,-2.67,-2.72,-2.37,-3.80,-3.80,-3.80
175.02,-1.14,2.67,-1.14,2.66,-2.67,-2.73,-2.37,-3.80,-3.80,-3.80
176.77,-1.14,2.67,-1.14,2.67,-2.67,-2.73,-2.38,-3.81,-3.81,-3.80
178.54,-1.14,2.67,-1.14,2.67,-2.67,-2.74,-2.38,-3.81,-3.81,-3.80
180.32,-1.14,2.68,-1.14,2.67,-2.67,-2.74,-2.39,-3.81,-3.81,-3.81
182.13,-1.14,2.68,-1.14,2.68,-2.68,-2.75,-2.40,-3.82,-3.82,-3.81
183.95,-1.14,2.69,-1.14,2.68,-2.68,-2.75,-2.41,-3.82,-3.82,-3.82
185.79,-1.14,2.69,-1.14,2.69,-2.69,-2.76,-2.43,-3.82,-3.82,-3.82
187.65,-1.14,2.69,-1.14,2.69,-2.69,-2.76,-2.44,-3.83,-3.83,-3.82
189.52,-1.14,2.70,-1.14,2.69,-2.69,-2.76,-2.46,-3.83,-3.83,-3.83
191.42,-1.14,2.70,-1.14,2.70,-2.69,-2.77,-2.48,-3.83,-3.83,-3.83
193.33,-1.14,2.70,-1.14,2.70,-2.69,-2.77,-2.50,-3.83,-3.83,-3.83
195.27,-1.14,2.70,-1.14,2.70,-2.69,-2.77,-2.52,-3.83,-3.83,-3.83
197.22,-1.14,2.70,-1.14,2.69,-2.69,-2.77,-2.54,-3.83,-3.83,-3.83
199.19,-1.14,2.69,-1.14,2.69,-2.69,-2.78,-2.56,-3.83,-3.83,-3.82
201.18,-1.14,2.69,-1.14,2.69,-2.69,-2.78,-2.59,-3.82,-3.82,-3.82
203.19,-1.14,2.69,-1.14,2.68,-2.68,-2.78,-2.62,-3.82,-3.82,-3.82
205.23,-1.14,2.68,-1.14,2.68,-2.68,-2.78,-2.64,-3.82,-3.82,-3.81
207.28,-1.14,2.68,-1.14,2.68,-2.68,-2.79,-2.67,-3.82,-3.82,-3.81
209.35,-1.14,2.68,-1.14,2.67,-2.68,-2.79,-2.70,-3.81,-3.81,-3.81
211.44,-1.14,2.68,-1.14,2.68,-2.68,-2.79,-2.73,-3.81,-3.81,-3.81
213.56,-1.14,2.68,-1.14,2.68,-2.68,-2.79,-2.76,-3.81,-3.81,-3.81
215.69,-1.14,2.68,-1.14,2.67,-2.68,-2.79,-2.78,-3.81,-3.81,-3.81
217.85,-1.14,2.68,-1.14,2.68,-2.68,-2.79,-2.81,-3.82,-3.82,-3.81
220.03,-1.14,2.68,-1.14,2.68,-2.68,-2.79,-2.84,-3.82,-3.82,-3.81
222.23,-1.14,2.69,-1.14,2.68,-2.68,-2.79,-2.87,-3.82,-3.82,-3.82
224.45,-1.14,2.69,-1.14,2.69,-2.68,-2.79,-2.89,-3.82,-3.82,-3.82
226.70,-1.14,2.69,-1.14,2.69,-2.69,-2.79,-2.92,-3.82,-3.82,-3.82
228.96,-1.14,2.69,-1.14,2.69,-2.69,-2.79,-2.94,-3.83,-3.83,-3.82
231.25,-1.14,2.69,-1.14,2.69,-2.69,-2.79,-2.96,-3.83,-3.83,-3.82
233.57,-1.14,2.70,-1.14,2.69,-2.69,-2.79,-2.98,-3.83,-3.83,-3.83
235.90,-1.14,2.70,-1.14,2.70,-2.70,-2.79,-3.00,-3.83,-3.83,-3.83
238.26,-1.14,2.70,-1.14,2.70,-2.70,-2.79,-3.01,-3.84,-3.84,-3.83
240.64,-1.14,2.71,-1.14,2.70,-2.70,-2.79,-3.02,-3.84,-3.84,-3.84
243.05,-1.14,2.71,-1.14,2.71,-2.70,-2.79,-3.03,-3.84,-3.84,-3.84
245.48,-1.14,2.71,-1.14,2.71,-2.70,-2.79,-3.04,-3.84,-3.84,-3.84
247.93,-1.14,2.71,-1.14,2.71,-2.71,-2.79,-3.04,-3.84,-3.84,-3.84
250.41,-1.14,2.71,-1.14,2.71,-2.71,-2.79,-3.04,-3.84,-3.84,-3.84
252.92,-1.14,2.71,-1.14,2.71,-2.71,-2.78,-3.04,-3.84,-3.84,-3.84
255.45,-1.14,2.71,-1.14,2.71,-2.71,-2.78,-3.03,-3.84,-3.84,-3.84
258.00,-1.14,2.71,-1.14,2.70,-2.71,-2.78,-3.03,-3.85,-3.85,-3.84
260.58,-1.14,2.71,-1.14,2.71,-2.71,-2.78,-3.02,-3.85,-3.85,-3.84
263.19,-1.14,2.71,-1.14,2.71,-2.71,-2.78,-3.00,-3.85,-3.85,-3.84
265.82,-1.14,2.72,-1.14,2.71,-2.71,-2.77,-2.99,-3.85,-3.85,-3.85
268.48,-1.14,2.72,-1.14,2.71,-2.71,-2.77,-2.97,-3.85,-3.85,-3.85
271.16,-1.14,2.72,-1.14,2.71,-2.71,-2.77,-2.95,-3.85,-3.85,-3.85
273.87,-1.14,2.71,-1.14,2.71,-2.71,-2.76,-2.92,-3.85,-3.85,-3.84
276.61,-1.14,2.71,-1.14,2.71,-2.71,-2.76,-2.90,-3.85,-3.85,-3.84
279.38,-1.14,2.71,-1.14,2.70,-2.71,-2.76,-2.87,-3.84,-3.84,-3.84
282.17,-1.14,2.71,-1.14,2.70,-2.70,-2.75,-2.85,-3.84,-3.84,-3.84
284.99,-1.14,2.70,-1.14,2.70,-2.70,-2.75,-2.82,-3.84,-3.84,-3.83
287.84,-1.14,2.70,-1.14,2.70,-2.70,-2.75,-2.79,-3.83,-3.83,-3.83
290.72,-1.14,2.70,-1.14,2.69,-2.69,-2.74,-2.76,-3.83,-3.83,-3.83
293.63,-1.14,2.70,-1.14,2.69,-2.69,-2.74,-2.73,-3.83,-3.83,-3.83
296.57,-1.14,2.69,-1.14,2.69,-2.69,-2.73,-2.70,-3.83,-3.83,-3.82
299.53,-1.14,2.69,-1.14,2.69,-2.69,-2.73,-2.67,-3.83,-3.83,-3.82
302.53,-1.14,2.69,-1.14,2.69,-2.69,-2.72,-2.64,-3.82,-3.82,-3.82
305.55,-1.14,2.69,-1.14,2.69,-2.68,-2.72,-2.61,-3.82,-3.82,-3.82
308.61,-1.14,2.69,-1.14,2.68,-2.68,-2.71,-2.59,-3.82,-3.82,-3.82
311.69,-1.14,2.68,-1.14,2.68,-2.68,-2.71,-2.56,-3.82,-3.82,-3.81
314.81,-1.14,2.68,-1.14,2.68,-2.68,-2.70,-2.53,-3.82,-3.82,-3.81
317.96,-1.14,2.68,-1.14,2.67,-2.68,-2.70,-2.51,-3.82,-3.82,-3.81
321.14,-1.14,2.68,-1.14,2.68,-2.68,-2.69,-2.48,-3.81,-3.81,-3.81
324.35,-1.14,2.68,-1.14,2.68,-2.68,-2.69,-2.46,-3.81,-3.81,-3.81
327.59,-1.14,2.68,-1.14,2.68,-2.68,-2.68,-2.44,-3.81,-3.81,-3.81
330.87,-1.14,2.68,-1.14,2.68,-2.67,-2.67,-2.42,-3.81,-3.81,-3.81
334.18,-1.14,2.68,-1.14,2.68,-2.67,-2.67,-2.40,-3.81,-3.81,-3.81
337.52,-1.14,2.68,-1.14,2.67,-2.67,-2.66,-2.39,-3.81,-3.81,-3.81
340.90,-1.14,2.67,-1.14,2.67,-2.67,-2.65,-2.37,-3.81,-3.81,-3.80
344.30,-1.14,2.67,-1.14,2.66,-2.66,-2.65,-2.36,-3.80,-3.80,-3.80
347.75,-1.14,2.66,-1.14,2.66,-2.66,-2.64,-2.35,-3.80,-3.80,-3.79
351.23,-1.14,2.66,-1.14,2.66,-2.66,-2.63,-2.34,-3.80,-3.80,-3.79
354.74,-1.14,2.66,-1.14,2.65,-2.66,-2.62,-2.33,-3.79,-3.79,-3.79
358.28,-1.14,2.66,-1.14,2.66,-2.66,-2.62,-2.33,-3.79,-3.79,-3.79
361.87,-1.14,2.66,-1.14,2.66,-2.65,-2.61,-2.32,-3.79,-3.79,-3.79
365.49,-1.14,2.66,-1.14,2.66,-2.65,-2.60,-2.32,-3.79,-3.79,-3.79
369.14,-1.14,2.66,-1.14,2.66,-2.65,-2.59,-2.32,-3.79,-3.79,-3.79
372.83,-1.14,2.66,-1.14,2.66,-2.66,-2.59,-2.32,-3.79,-3.79,-3.79
376.56,-1.14,2.66,-1.14,2.65,-2.66,-2.58,-2.32,-3.79,-3.79,-3.79
380.33,-1.14,2.66,-1.14,2.66,-2.66,-2.57,-2.33,-3.80,-3.80,-3.79
384.13,-1.14,2.66,-1.14,2.66,-2.66,-2.56,-2.33,-3.80,-3.80,-3.79
387.97,-1.14,2.67,-1.14,2.66,-2.66,-2.55,-2.34,-3.80,-3.80,-3.80
391.85,-1.14,2.67,-1.14,2.67,-2.67,-2.54,-2.35,-3.80,-3.80,-3.80
395.77,-1.14,2.67,-1.14,2.67,-2.67,-2.54,-2.36,-3.81,-3.81,-3.80
399.73,-1.14,2.68,-1.14,2.67,-2.67,-2.53,-2.37,-3.81,-3.81,-3.81
403.72,-1.14,2.68,-1.14,2.68,-2.67,-2.52,-2.39,-3.81,-3.81,-3.81
407.76,-1.14,2.68,-1.14,2.68,-2.67,-2.51,-2.40,-3.81,-3.81,-3.81
411.84,-1.14,2.68,-1.14,2.67,-2.67,-2.50,-2.42,-3.81,-3.81,-3.81
415.96,-1.14,2.67,-1.14,2.67,-2.67,-2.49,-2.43,-3.81,-3.81,-3.80
420.12,-1.14,2.67,-1.14,2.66,-2.67,-2.48,-2.45,-3.80,-3.80,-3.80
424.32,-1.14,2.66,-1.14,2.66,-2.66,-2.47,-2.46,-3.80,-3.80,-3.79
428.56,-1.14,2.66,-1.14,2.66,-2.66,-2.46,-2.48,-3.80,-3.80,-3.79
