frequency,raw,error,smoothed,error_smoothed,equalization,parametric_eq,fixed_band_eq,equalized_raw,equalized_smoothed,target
20.00,-32.23,-28.94,-32.26,-28.96,6.00,5.67,2.63,-26.23,-26.26,-3.29
20.20,-31.99,-28.70,-31.97,-28.68,6.00,5.68,2.71,-25.99,-25.97,-3.29
20.40,-31.75,-28.45,-31.72,-28.43,6.00,5.70,2.79,-25.75,-25.72,-3.29
20.61,-31.51,-28.23,-31.49,-28.20,6.00,5.71,2.87,-25.51,-25.49,-3.28
20.81,-31.27,-27.98,-31.27,-27.98,6.00,5.72,2.95,-25.27,-25.27,-3.28
21.02,-31.05,-27.77,-31.11,-27.82,6.00,5.73,3.04,-25.05,-25.11,-3.28
21.23,-31.03,-27.75,-31.02,-27.74,6.00,5.75,3.13,-25.03,-25.02,-3.28
21.44,-31.01,-27.74,-31.00,-27.73,6.00,5.76,3.22,-25.01,-25.00,-3.27
21.66,-31.00,-27.73,-31.01,-27.74,6.00,5.77,3.31,-25.00,-25.01,-3.27
21.87,-30.98,-27.70,-30.96,-27.68,6.00,5.78,3.41,-24.98,-24.96,-3.28
22.09,-30.86,-27.58,-30.83,-27.55,6.00,5.79,3.50,-24.86,-24.83,-3.28
22.31,-30.60,-27.33,-30.61,-27.34,6.00,5.80,3.61,-24.60,-24.61,-3.27
22.54,-30.34,-27.07,-30.33,-27.06,6.00,5.82,3.71,-24.34,-24.33,-3.28
22.76,-30.07,-26.80,-30.07,-26.80,6.00,5.83,3.82,-24.07,-24.07,-3.27
22.99,-29.81,-26.54,-29.86,-26.59,6.00,5.84,3.93,-23.81,-23.86,-3.27
23.22,-29.71,-26.44,-29.70,-26.44,6.00,5.85,4.04,-23.71,-23.70,-3.27
23.45,-29.62,-26.35,-29.61,-26.34,6.00,5.86,4.15,-23.62,-23.61,-3.27
23.69,-29.53,-26.26,-29.53,-26.27,6.00,5.87,4.27,-23.53,-23.53,-3.27
23.92,-29.44,-26.18,-29.44,-26.17,6.00,5.88,4.39,-23.44,-23.44,-3.26
24.16,-29.34,-26.07,-29.34,-26.07,6.00,5.89,4.51,-23.34,-23.34,-3.27
24.40,-29.23,-25.96,-29.23,-25.96,6.00,5.90,4.64,-23.23,-23.23,-3.27
24.65,-29.12,-25.85,-29.13,-25.85,6.00,5.91,4.76,-23.12,-23.13,-3.27
24.89,-29.02,-25.74,-29.01,-25.73,6.00,5.92,4.89,-23.02,-23.01,-3.28
25.14,-28.89,-25.61,-28.88,-25.60,6.00,5.93,5.02,-22.89,-22.88,-3.28
25.39,-28.74,-25.45,-28.75,-25.46,6.00,5.94,5.15,-22.74,-22.75,-3.29
25.65,-28.59,-25.30,-28.60,-25.30,6.00,5.94,5.28,-22.59,-22.60,-3.29
25.91,-28.44,-25.14,-28.43,-25.13,6.00,5.95,5.41,-22.44,-22.43,-3.30
26.16,-28.26,-24.95,-28.26,-24.95,6.00,5.96,5.55,-22.26,-22.26,-3.30
26.43,-28.06,-24.75,-28.06,-24.75,6.00,5.97,5.68,-22.06,-22.06,-3.31
26.69,-27.86,-24.55,-27.86,-24.54,6.00,5.98,5.81,-21.86,-21.86,-3.31
26.96,-27.66,-24.35,-27.69,-24.37,6.00,5.99,5.94,-21.66,-21.69,-3.31
27.23,-27.54,-24.23,-27.54,-24.22,6.00,5.99,6.07,-21.54,-21.54,-3.32
27.50,-27.44,-24.11,-27.43,-24.11,6.00,6.00,6.19,-21.44,-21.43,-3.33
27.77,-27.33,-24.00,-27.33,-24.01,6.00,6.01,6.31,-21.33,-21.33,-3.33
28.05,-27.23,-23.91,-27.23,-23.91,6.00,6.02,6.43,-21.23,-21.23,-3.32
28.33,-27.13,-23.81,-27.13,-23.81,6.00,6.02,6.54,-21.13,-21.13,-3.32
28.62,-27.02,-23.70,-27.03,-23.71,6.00,6.03,6.65,-21.02,-21.03,-3.32
28.90,-26.92,-23.60,-26.92,-23.60,6.00,6.04,6.75,-20.92,-20.92,-3.32
29.19,-26.80,-23.48,-26.80,-23.48,6.00,6.05,6.85,-20.80,-20.80,-3.32
29.48,-26.67,-23.35,-26.67,-23.35,6.00,6.05,6.93,-20.67,-20.67,-3.32
29.78,-26.54,-23.22,-26.55,-23.22,6.00,6.06,7.01,-20.54,-20.55,-3.32
30.08,-26.43,-23.10,-26.44,-23.11,6.00,6.07,7.08,-20.43,-20.44,-3.33
30.38,-26.35,-23.02,-26.38,-23.05,6.00,6.07,7.14,-20.35,-20.38,-3.34
30.68,-26.27,-22.93,-26.29,-22.95,6.00,6.08,7.19,-20.27,-20.29,-3.34
30.99,-26.19,-22.84,-26.10,-22.75,6.00,6.08,7.23,-20.19,-20.10,-3.35
31.30,-25.78,-22.43,-25.75,-22.40,6.00,6.09,7.26,-19.78,-19.75,-3.35
31.61,-25.33,-21.97,-25.34,-21.98,6.00,6.10,7.28,-19.33,-19.34,-3.36
31.93,-24.90,-21.54,-24.99,-21.62,6.00,6.10,7.28,-18.90,-18.99,-3.36
32.24,-24.79,-21.42,-24.80,-21.43,6.00,6.11,7.28,-18.79,-18.80,-3.37
32.57,-24.80,-21.42,-24.76,-21.38,6.00,6.11,7.27,-18.80,-18.76,-3.38
32.89,-24.80,-21.42,-24.81,-21.42,6.00,6.12,7.25,-18.80,-18.81,-3.39
33.22,-24.86,-21.47,-24.87,-21.48,6.00,6.12,7.23,-18.86,-18.87,-3.39
33.55,-24.94,-21.54,-24.95,-21.55,6.00,6.13,7.19,-18.94,-18.95,-3.40
33.89,-25.03,-21.62,-25.00,-21.60,6.00,6.13,7.15,-19.03,-19.00,-3.41
34.23,-25.02,-21.61,-25.02,-21.61,6.00,6.14,7.10,-19.02,-19.02,-3.41
34.57,-24.97,-21.55,-24.99,-21.57,6.00,6.14,7.04,-18.97,-18.99,-3.42
34.92,-24.91,-21.49,-24.89,-21.47,6.00,6.15,6.98,-18.91,-18.89,-3.43
35.27,-24.76,-21.33,-24.75,-21.32,6.00,6.15,6.92,-18.76,-18.75,-3.43
35.62,-24.58,-21.15,-24.59,-21.15,6.00,6.16,6.85,-18.58,-18.59,-3.43
35.97,-24.40,-20.96,-24.43,-20.99,6.00,6.16,6.78,-18.40,-18.43,-3.44
36.33,-24.31,-20.87,-24.31,-20.87,6.00,6.16,6.71,-18.31,-18.31,-3.44
36.70,-24.22,-20.78,-24.21,-20.76,6.00,6.17,6.64,-18.22,-18.21,-3.45
37.06,-24.12,-20.67,-24.10,-20.65,6.00,6.17,6.57,-18.12,-18.10,-3.45
37.43,-23.95,-20.50,-23.95,-20.50,6.00,6.18,6.49,-17.95,-17.95,-3.45
37.81,-23.78,-20.34,-23.79,-20.35,6.00,6.18,6.42,-17.78,-17.79,-3.44
38.19,-23.64,-20.20,-23.65,-20.20,6.00,6.18,6.35,-17.64,-17.65,-3.45
38.57,-23.54,-20.09,-23.53,-20.08,6.00,6.19,6.28,-17.54,-17.53,-3.45
38.95,-23.43,-19.98,-23.44,-19.99,6.00,6.19,6.21,-17.43,-17.44,-3.45
39.34,-23.36,-19.91,-23.36,-19.91,6.00,6.19,6.15,-17.36,-17.36,-3.45
39.74,-23.29,-19.83,-23.29,-19.83,6.00,6.20,6.09,-17.29,-17.29,-3.46
40.14,-23.21,-19.75,-23.20,-19.74,6.00,6.20,6.03,-17.21,-17.20,-3.46
40.54,-23.12,-19.66,-23.11,-19.65,6.00,6.20,5.98,-17.12,-17.11,-3.46
40.94,-23.02,-19.55,-23.05,-19.58,6.00,6.21,5.92,-17.02,-17.05,-3.47
41.35,-23.01,-19.53,-23.02,-19.54,6.00,6.21,5.88,-17.01,-17.02,-3.48
41.76,-23.01,-19.51,-22.99,-19.50,6.00,6.21,5.83,-17.01,-16.99,-3.50
42.18,-22.97,-19.46,-22.96,-19.45,6.00,6.21,5.79,-16.97,-16.96,-3.51
42.60,-22.87,-19.35,-22.88,-19.36,6.00,6.22,5.76,-16.87,-16.88,-3.52
43.03,-22.77,-19.23,-22.74,-19.20,6.00,6.22,5.72,-16.77,-16.74,-3.54
43.46,-22.57,-19.01,-22.57,-19.01,6.00,6.22,5.70,-16.57,-16.57,-3.56
43.90,-22.38,-18.81,-22.41,-18.83,6.00,6.22,5.67,-16.38,-16.41,-3.58
44.33,-22.25,-18.66,-22.26,-18.67,6.00,6.23,5.65,-16.25,-16.26,-3.59
44.78,-22.15,-18.55,-22.13,-18.53,6.00,6.23,5.64,-16.15,-16.13,-3.61
45.23,-22.00,-18.38,-21.99,-18.37,6.00,6.23,5.63,-16.00,-15.99,-3.62
45.68,-21.80,-18.17,-21.81,-18.17,6.00,6.23,5.62,-15.80,-15.81,-3.64
46.13,-21.60,-17.96,-21.57,-17.93,6.00,6.23,5.62,-15.60,-15.57,-3.64
46.60,-21.38,-17.74,-21.38,-17.73,6.00,6.23,5.62,-15.38,-15.38,-3.65
47.06,-21.20,-17.55,-21.31,-17.66,6.00,6.24,5.63,-15.20,-15.31,-3.65
47.53,-21.28,-17.62,-21.28,-17.62,6.00,6.24,5.63,-15.28,-15.28,-3.66
48.01,-21.35,-17.69,-21.20,-17.55,6.00,6.24,5.65,-15.35,-15.20,-3.66
48.49,-21.05,-17.40,-21.06,-17.41,6.00,6.24,5.66,-15.05,-15.06,-3.65
48.97,-20.75,-17.10,-20.81,-17.16,6.00,6.24,5.69,-14.75,-14.81,-3.65
49.46,-20.62,-16.97,-20.60,-16.96,6.00,6.24,5.71,-14.62,-14.60,-3.65
49.96,-20.51,-16.87,-20.60,-16.96,6.00,6.24,5.74,-14.51,-14.60,-3.64
50.46,-20.64,-17.01,-20.65,-17.02,6.00,6.24,5.77,-14.64,-14.65,-3.63
50.96,-20.79,-17.16,-20.64,-17.01,6.00,6.24,5.80,-14.79,-14.64,-3.63
51.47,-20.55,-16.92,-20.55,-16.92,6.00,6.25,5.83,-14.55,-14.55,-3.63
51.99,-20.28,-16.65,-20.36,-16.73,6.00,6.25,5.87,-14.28,-14.36,-3.64
52.51,-20.16,-16.52,-20.16,-16.51,6.00,6.25,5.91,-14.16,-14.16,-3.64
53.03,-20.04,-16.39,-20.02,-16.36,6.00,6.25,5.95,-14.04,-14.02,-3.65
53.56,-19.92,-16.26,-19.92,-16.26,6.00,6.25,5.99,-13.92,-13.92,-3.66
54.10,-19.82,-16.15,-19.85,-16.17,6.00,6.25,6.03,-13.82,-13.85,-3.67
54.64,-19.82,-16.13,-19.83,-16.14,6.00,6.25,6.07,-13.82,-13.83,-3.69
55.18,-19.82,-16.11,-19.83,-16.11,6.00,6.25,6.11,-13.82,-13.83,-3.71
55.74,-19.82,-16.09,-19.77,-16.03,6.00,6.25,6.15,-13.82,-13.77,-3.73
56.29,-19.68,-15.91,-19.64,-15.88,6.00,6.25,6.18,-13.68,-13.64,-3.77
56.86,-19.43,-15.65,-19.50,-15.71,6.00,6.25,6.22,-13.43,-13.50,-3.79
57.42,-19.36,-15.54,-19.39,-15.57,6.00,6.25,6.25,-13.36,-13.39,-3.82
58.00,-19.36,-15.51,-19.35,-15.50,6.00,6.25,6.28,-13.36,-13.35,-3.85
58.58,-19.36,-15.48,-19.34,-15.45,6.00,6.25,6.31,-13.36,-13.34,-3.88
59.16,-19.32,-15.40,-19.29,-15.37,6.00,6.25,6.34,-13.32,-13.29,-3.92
59.76,-19.19,-15.24,-19.22,-15.27,6.00,6.25,6.36,-13.19,-13.22,-3.95
60.35,-19.14,-15.16,-19.16,-15.18,6.00,6.24,6.37,-13.14,-13.16,-3.98
60.96,-19.14,-15.12,-19.14,-15.13,6.00,6.24,6.38,-13.14,-13.14,-4.02
61.57,-19.14,-15.10,-19.13,-15.08,6.00,6.24,6.39,-13.14,-13.13,-4.04
62.18,-19.10,-15.02,-19.07,-14.99,6.00,6.24,6.39,-13.10,-13.07,-4.08
62.80,-18.95,-14.83,-18.95,-14.84,6.00,6.24,6.39,-12.95,-12.95,-4.12
63.43,-18.81,-14.66,-18.82,-14.67,6.00,6.24,6.38,-12.81,-12.82,-4.15
64.07,-18.68,-14.49,-18.71,-14.52,6.00,6.24,6.37,-12.68,-12.71,-4.19
64.71,-18.64,-14.41,-18.63,-14.40,6.00,6.24,6.35,-12.64,-12.63,-4.23
65.35,-18.57,-14.30,-18.55,-14.28,6.00,6.24,6.33,-12.57,-12.55,-4.26
66.01,-18.45,-14.16,-18.44,-14.15,6.00,6.23,6.30,-12.45,-12.44,-4.29
66.67,-18.30,-13.98,-18.32,-14.00,6.00,6.23,6.27,-12.30,-12.32,-4.32
67.33,-18.19,-13.85,-18.20,-13.86,6.00,6.23,6.23,-12.19,-12.20,-4.34
68.01,-18.13,-13.76,-18.11,-13.74,6.00,6.23,6.20,-12.13,-12.11,-4.37
68.69,-18.04,-13.65,-18.06,-13.67,6.00,6.23,6.16,-12.04,-12.06,-4.39
69.37,-18.00,-13.60,-18.01,-13.61,6.00,6.22,6.11,-12.00,-12.01,-4.40
70.07,-17.98,-13.56,-17.93,-13.51,6.00,6.22,6.07,-11.98,-11.93,-4.42
70.77,-17.82,-13.39,-17.81,-13.38,6.00,6.22,6.02,-11.82,-11.81,-4.43
71.48,-17.66,-13.22,-17.69,-13.25,6.00,6.22,5.98,-11.66,-11.69,-4.44
72.19,-17.54,-13.09,-17.57,-13.12,6.00,6.22,5.93,-11.54,-11.57,-4.45
72.91,-17.54,-13.08,-17.48,-13.02,6.00,6.21,5.88,-11.54,-11.48,-4.46
73.64,-17.39,-12.92,-17.41,-12.93,6.00,6.21,5.83,-11.39,-11.41,-4.47
74.38,-17.31,-12.82,-17.35,-12.86,6.00,6.21,5.79,-11.31,-11.35,-4.49
75.12,-17.30,-12.79,-17.28,-12.77,6.00,6.20,5.74,-11.30,-11.28,-4.51
75.87,-17.26,-12.73,-17.23,-12.70,6.00,6.20,5.70,-11.26,-11.23,-4.53
76.63,-17.14,-12.59,-17.16,-12.61,6.00,6.20,5.66,-11.14,-11.16,-4.55
77.40,-17.06,-12.49,-17.06,-12.49,6.00,6.20,5.62,-11.06,-11.06,-4.57
78.17,-16.99,-12.40,-16.97,-12.38,6.00,6.19,5.58,-10.99,-10.97,-4.59
78.95,-16.87,-12.26,-16.91,-12.30,6.00,6.19,5.55,-10.87,-10.91,-4.61
79.74,-16.86,-12.23,-16.84,-12.20,6.00,6.19,5.51,-10.86,-10.84,-4.63
80.54,-16.78,-12.13,-16.76,-12.11,6.00,6.18,5.49,-10.78,-10.76,-4.65
81.35,-16.68,-12.01,-16.70,-12.02,6.00,6.18,5.46,-10.68,-10.70,-4.67
82.16,-16.63,-11.93,-16.66,-11.96,6.00,6.17,5.44,-10.63,-10.66,-4.70
82.98,-16.63,-11.91,-16.62,-11.91,6.00,6.17,5.42,-10.63,-10.62,-4.72
83.81,-16.63,-11.90,-16.57,-11.84,6.00,6.17,5.41,-10.63,-10.57,-4.73
84.65,-16.48,-11.73,-16.51,-11.76,6.00,6.16,5.39,-10.48,-10.51,-4.75
85.50,-16.40,-11.63,-16.45,-11.68,6.00,6.16,5.39,-10.40,-10.45,-4.77
86.35,-16.40,-11.62,-16.36,-11.58,6.00,6.15,5.38,-10.40,-10.36,-4.78
87.22,-16.35,-11.56,-16.31,-11.52,6.00,6.15,5.39,-10.35,-10.31,-4.79
88.09,-16.17,-11.36,-16.23,-11.42,6.00,6.15,5.39,-10.17,-10.23,-4.81
88.97,-16.17,-11.35,-16.12,-11.29,6.00,6.14,5.40,-10.17,-10.12,-4.82
89.86,-16.02,-11.17,-16.03,-11.18,6.00,6.14,5.41,-10.02,-10.03,-4.85
90.76,-15.95,-11.08,-15.99,-11.12,6.00,6.13,5.43,-9.95,-9.99,-4.87
91.66,-15.94,-11.06,-15.94,-11.05,6.00,6.13,5.45,-9.94,-9.94,-4.88
92.58,-15.94,-11.04,-15.90,-11.00,6.00,6.12,5.48,-9.94,-9.90,-4.90
93.51,-15.84,-10.92,-15.84,-10.92,6.00,6.12,5.51,-9.84,-9.84,-4.92
94.44,-15.74,-10.81,-15.77,-10.84,6.00,6.11,5.54,-9.74,-9.77,-4.93
95.39,-15.72,-10.77,-15.72,-10.77,6.00,6.10,5.57,-9.72,-9.72,-4.95
96.34,-15.72,-10.75,-15.71,-10.74,6.00,6.10,5.61,-9.72,-9.71,-4.97
97.30,-15.72,-10.73,-15.72,-10.73,6.00,6.09,5.66,-9.72,-9.72,-4.99
98.28,-15.72,-10.71,-15.72,-10.71,6.00,6.09,5.70,-9.72,-9.72,-5.01
99.26,-15.72,-10.69,-15.72,-10.69,6.00,6.08,5.75,-9.72,-9.72,-5.03
100.25,-15.72,-10.66,-15.72,-10.67,6.00,6.07,5.81,-9.72,-9.72,-5.06
101.25,-15.72,-10.65,-15.73,-10.65,6.00,6.07,5.86,-9.72,-9.73,-5.08
102.27,-15.72,-10.62,-15.73,-10.62,6.00,6.06,5.92,-9.72,-9.73,-5.10
103.29,-15.72,-10.59,-15.70,-10.57,6.00,6.05,5.97,-9.72,-9.70,-5.13
104.32,-15.67,-10.50,-15.64,-10.47,6.00,6.05,6.03,-9.67,-9.64,-5.17
105.37,-15.55,-10.34,-15.57,-10.36,6.00,6.04,6.10,-9.55,-9.57,-5.21
106.42,-15.49,-10.24,-15.53,-10.27,6.00,6.03,6.16,-9.49,-9.53,-5.25
107.48,-15.49,-10.19,-15.48,-10.18,6.00,6.03,6.22,-9.49,-9.48,-5.30
108.56,-15.49,-10.13,-15.43,-10.07,6.00,6.02,6.28,-9.49,-9.43,-5.36
109.64,-15.34,-9.93,-15.36,-9.95,6.00,6.01,6.34,-9.34,-9.36,-5.41
110.74,-15.26,-9.80,-15.30,-9.84,6.00,6.00,6.40,-9.26,-9.30,-5.46
111.85,-15.26,-9.75,-15.26,-9.75,6.00,6.00,6.46,-9.26,-9.26,-5.51
112.97,-15.26,-9.69,-15.23,-9.66,6.00,5.99,6.51,-9.26,-9.23,-5.57
114.10,-15.21,-9.60,-15.17,-9.55,6.00,5.98,6.56,-9.21,-9.17,-5.62
115.24,-15.03,-9.37,-15.11,-9.44,6.00,5.97,6.61,-9.03,-9.11,-5.66
116.39,-15.03,-9.32,-15.03,-9.32,6.00,5.96,6.65,-9.03,-9.03,-5.71
117.55,-15.02,-9.26,-14.95,-9.19,6.00,5.95,6.69,-9.02,-8.95,-5.76
118.73,-14.86,-9.06,-14.89,-9.10,6.00,5.94,6.72,-8.86,-8.89,-5.80
119.92,-14.80,-8.97,-14.84,-9.00,6.00,5.94,6.75,-8.80,-8.84,-5.83
121.12,-14.80,-8.93,-14.79,-8.92,6.00,5.93,6.77,-8.80,-8.79,-5.87
122.33,-14.80,-8.89,-14.76,-8.85,6.00,5.92,6.78,-8.80,-8.76,-5.91
123.55,-14.70,-8.77,-14.70,-8.77,6.00,5.91,6.79,-8.70,-8.70,-5.93
124.79,-14.59,-8.62,-14.63,-8.67,6.00,5.90,6.79,-8.59,-8.63,-5.97
126.03,-14.58,-8.59,-14.55,-8.56,6.00,5.89,6.78,-8.58,-8.55,-5.99
127.29,-14.50,-8.48,-14.48,-8.46,6.00,5.88,6.77,-8.50,-8.48,-6.02
128.57,-14.40,-8.35,-14.42,-8.37,6.00,5.87,6.75,-8.40,-8.42,-6.05
129.85,-14.35,-8.28,-14.38,-8.30,6.00,5.86,6.72,-8.35,-8.38,-6.08
131.15,-14.35,-8.25,-14.35,-8.24,6.00,5.85,6.69,-8.35,-8.35,-6.10
132.46,-14.35,-8.22,-14.29,-8.16,6.00,5.83,6.65,-8.35,-8.29,-6.13
133.79,-14.21,-8.05,-14.23,-8.07,6.00,5.82,6.60,-8.21,-8.23,-6.16
135.12,-14.12,-7.94,-14.17,-7.98,6.00,5.81,6.55,-8.12,-8.17,-6.18
136.48,-14.12,-7.91,-14.12,-7.91,6.00,5.80,6.50,-8.12,-8.12,-6.21
137.84,-14.10,-7.86,-14.05,-7.80,6.00,5.79,6.44,-8.10,-8.05,-6.25
139.22,-13.92,-7.66,-13.88,-7.61,6.00,5.78,6.38,-7.92,-7.88,-6.26
140.61,-13.65,-7.36,-13.66,-7.37,6.00,5.76,6.31,-7.65,-7.66,-6.29
142.02,-13.44,-7.12,-13.50,-7.18,6.00,5.75,6.24,-7.44,-7.50,-6.32
143.44,-13.45,-7.10,-13.49,-7.14,6.00,5.74,6.17,-7.45,-7.49,-6.35
144.87,-13.62,-7.24,-13.61,-7.23,6.00,5.73,6.10,-7.62,-7.61,-6.38
146.32,-13.81,-7.40,-13.77,-7.35,6.00,5.71,6.03,-7.81,-7.77,-6.41
147.78,-13.89,-7.44,-13.87,-7.42,6.00,5.70,5.96,-7.89,-7.87,-6.45
149.26,-13.89,-7.40,-13.92,-7.43,6.00,5.69,5.89,-7.89,-7.92,-6.49
150.75,-13.89,-7.36,-13.89,-7.36,6.00,5.67,5.82,-7.89,-7.89,-6.53
152.26,-13.88,-7.30,-13.83,-7.26,6.00,5.66,5.75,-7.88,-7.83,-6.58
153.78,-13.74,-7.11,-13.76,-7.13,6.00,5.65,5.68,-7.74,-7.76,-6.63
155.32,-13.67,-6.99,-13.70,-7.01,6.00,5.63,5.62,-7.67,-7.70,-6.68
156.88,-13.66,-6.93,-13.65,-6.92,6.00,5.62,5.56,-7.66,-7.65,-6.74
158.44,-13.66,-6.88,-13.65,-6.88,6.00,5.60,5.49,-7.66,-7.65,-6.78
160.03,-13.66,-6.84,-13.66,-6.84,6.00,5.59,5.44,-7.66,-7.66,-6.82
161.63,-13.66,-6.80,-13.68,-6.82,6.00,5.57,5.38,-7.66,-7.68,-6.86
163.24,-13.66,-6.77,-13.66,-6.77,6.00,5.55,5.33,-7.66,-7.66,-6.89
164.88,-13.66,-6.74,-13.60,-6.68,6.00,5.54,5.28,-7.66,-7.60,-6.92
166.53,-13.49,-6.55,-13.53,-6.59,6.00,5.52,5.24,-7.49,-7.53,-6.94
168.19,-13.44,-6.48,-13.48,-6.52,6.00,5.51,5.19,-7.44,-7.48,-6.96
169.87,-13.44,-6.47,-13.43,-6.47,6.00,5.49,5.16,-7.44,-7.43,-6.97
171.57,-13.44,-6.48,-13.38,-6.42,6.00,5.47,5.12,-7.44,-7.38,-6.96
173.29,-13.30,-6.34,-13.32,-6.36,6.00,5.46,5.09,-7.30,-7.32,-6.96
175.02,-13.21,-6.25,-13.25,-6.29,6.00,5.44,5.07,-7.21,-7.25,-6.96
176.77,-13.21,-6.27,-13.20,-6.26,6.00,5.42,5.04,-7.21,-7.20,-6.94
178.54,-13.21,-6.28,-13.19,-6.26,6.00,5.40,5.02,-7.21,-7.19,-6.93
180.32,-13.21,-6.30,-13.20,-6.29,6.00,5.38,5.01,-7.21,-7.20,-6.91
182.13,-13.21,-6.31,-13.25,-6.34,6.00,5.37,5.00,-7.21,-7.25,-6.90
183.95,-13.30,-6.41,-13.33,-6.44,6.00,5.35,4.99,-7.30,-7.33,-6.89
185.79,-13.43,-6.54,-13.38,-6.50,6.00,5.33,4.99,-7.43,-7.38,-6.89
187.65,-13.44,-6.56,-13.38,-6.50,6.00,5.31,4.99,-7.44,-7.38,-6.88
189.52,-13.26,-6.38,-13.32,-6.43,6.00,5.29,4.99,-7.26,-7.31,-6.88
191.42,-13.21,-6.32,-13.24,-6.35,6.01,5.27,5.00,-7.20,-7.23,-6.89
193.33,-13.21,-6.31,-13.21,-6.32,6.02,5.25,5.01,-7.19,-7.19,-6.90
195.27,-13.21,-6.31,-13.21,-6.31,6.04,5.23,5.02,-7.17,-7.17,-6.90
197.22,-13.21,-6.31,-13.16,-6.26,6.04,5.21,5.04,-7.17,-7.13,-6.90
199.19,-13.07,-6.16,-13.10,-6.19,6.01,5.19,5.05,-7.06,-7.09,-6.91
201.18,-12.98,-6.06,-13.01,-6.09,5.95,5.16,5.07,-7.03,-7.06,-6.92
203.19,-12.94,-6.01,-12.92,-5.98,5.85,5.14,5.10,-7.09,-7.07,-6.93
205.23,-12.81,-5.87,-12.81,-5.87,5.72,5.12,5.12,-7.09,-7.10,-6.94
207.28,-12.67,-5.71,-12.64,-5.68,5.57,5.10,5.15,-7.10,-7.07,-6.96
209.35,-12.45,-5.47,-12.43,-5.45,5.44,5.08,5.18,-7.01,-6.99,-6.98
211.44,-12.19,-5.20,-12.22,-5.22,5.34,5.05,5.21,-6.85,-6.87,-6.99
213.56,-12.08,-5.07,-12.10,-5.09,5.29,5.03,5.24,-6.79,-6.80,-7.01
215.69,-12.07,-5.05,-12.11,-5.09,5.30,5.01,5.27,-6.77,-6.81,-7.02
217.85,-12.28,-5.25,-12.23,-5.19,5.35,4.98,5.29,-6.93,-6.88,-7.03
220.03,-12.44,-5.40,-12.45,-5.41,5.44,4.96,5.32,-7.00,-7.01,-7.04
222.23,-12.72,-5.66,-12.78,-5.72,5.59,4.93,5.35,-7.13,-7.19,-7.06
224.45,-13.16,-6.09,-13.17,-6.10,5.74,4.91,5.38,-7.42,-7.43,-7.07
226.70,-13.54,-6.46,-13.53,-6.44,5.88,4.88,5.40,-7.66,-7.65,-7.08
228.96,-13.82,-6.73,-13.72,-6.62,5.97,4.86,5.42,-7.85,-7.75,-7.09
231.25,-13.67,-6.56,-13.68,-6.58,6.00,4.83,5.44,-7.67,-7.68,-7.11
233.57,-13.45,-6.34,-13.47,-6.36,5.98,4.80,5.45,-7.47,-7.49,-7.11
235.90,-13.18,-6.06,-13.19,-6.07,5.91,4.78,5.46,-7.27,-7.28,-7.12
238.26,-12.92,-5.79,-12.95,-5.82,5.80,4.75,5.46,-7.12,-7.14,-7.13
240.64,-12.77,-5.63,-12.75,-5.61,5.68,4.72,5.46,-7.09,-7.06,-7.14
243.05,-12.60,-5.45,-12.63,-5.49,5.56,4.70,5.46,-7.04,-7.07,-7.15
245.48,-12.53,-5.38,-12.55,-5.40,5.43,4.67,5.45,-7.10,-7.11,-7.15
247.93,-12.53,-5.37,-12.46,-5.31,5.30,4.64,5.43,-7.23,-7.16,-7.16
250.41,-12.34,-5.18,-12.36,-5.20,5.18,4.61,5.41,-7.16,-7.19,-7.16
252.92,-12.25,-5.09,-12.25,-5.09,5.06,4.58,5.38,-7.19,-7.19,-7.16
255.45,-12.10,-4.93,-12.13,-4.96,4.97,4.55,5.35,-7.13,-7.16,-7.17
258.00,-12.07,-4.90,-12.03,-4.86,4.88,4.52,5.31,-7.19,-7.15,-7.17
260.58,-11.93,-4.75,-11.94,-4.76,4.78,4.49,5.27,-7.15,-7.16,-7.18
263.19,-11.85,-4.66,-11.89,-4.70,4.70,4.46,5.22,-7.15,-7.19,-7.19
265.82,-11.84,-4.64,-11.82,-4.62,4.62,4.43,5.17,-7.22,-7.20,-7.20
268.48,-11.79,-4.59,-11.75,-4.55,4.55,4.40,5.11,-7.24,-7.21,-7.20
271.16,-11.66,-4.45,-11.69,-4.48,4.48,4.37,5.04,-7.18,-7.20,-7.21
273.87,-11.61,-4.39,-11.64,-4.43,4.42,4.34,4.98,-7.19,-7.22,-7.22
276.61,-11.61,-4.39,-11.60,-4.37,4.37,4.31,4.91,-7.24,-7.23,-7.22
279.38,-11.61,-4.38,-11.55,-4.32,4.31,4.27,4.83,-7.30,-7.24,-7.23
282.17,-11.45,-4.21,-11.48,-4.25,4.26,4.24,4.76,-7.19,-7.23,-7.24
284.99,-11.39,-4.15,-11.43,-4.19,4.20,4.21,4.68,-7.19,-7.23,-7.24
287.84,-11.39,-4.15,-11.38,-4.14,4.15,4.17,4.60,-7.24,-7.24,-7.24
290.72,-11.39,-4.15,-11.34,-4.10,4.09,4.14,4.52,-7.31,-7.26,-7.24
293.63,-11.28,-4.03,-11.28,-4.04,4.02,4.10,4.44,-7.26,-7.26,-7.25
296.57,-11.17,-3.92,-11.23,-3.98,3.96,4.07,4.36,-7.21,-7.27,-7.25
299.53,-11.16,-3.91,-11.15,-3.89,3.90,4.03,4.28,-7.26,-7.25,-7.25
302.53,-11.15,-3.89,-11.08,-3.82,3.83,4.00,4.20,-7.32,-7.24,-7.26
305.55,-10.96,-3.69,-11.01,-3.75,3.77,3.96,4.12,-7.19,-7.24,-7.27
308.61,-10.93,-3.66,-10.96,-3.69,3.70,3.93,4.04,-7.23,-7.26,-7.27
311.69,-10.93,-3.65,-10.92,-3.64,3.64,3.89,3.96,-7.30,-7.28,-7.28
314.81,-10.93,-3.64,-10.88,-3.59,3.57,3.85,3.88,-7.36,-7.31,-7.29
317.96,-10.79,-3.49,-10.81,-3.50,3.50,3.81,3.81,-7.29,-7.31,-7.30
321.14,-10.70,-3.37,-10.75,-3.43,3.42,3.78,3.73,-7.28,-7.33,-7.33
324.35,-10.70,-3.36,-10.68,-3.34,3.34,3.74,3.66,-7.36,-7.34,-7.34
327.59,-10.67,-3.32,-10.63,-3.28,3.25,3.70,3.59,-7.42,-7.38,-7.35
330.87,-10.52,-3.16,-10.56,-3.19,3.17,3.66,3.52,-7.35,-7.39,-7.36
334.18,-10.47,-3.10,-10.45,-3.07,3.09,3.62,3.46,-7.38,-7.36,-7.37
337.52,-10.34,-2.96,-10.35,-2.97,3.02,3.58,3.40,-7.32,-7.33,-7.38
340.90,-10.27,-2.89,-10.29,-2.90,2.96,3.54,3.34,-7.31,-7.33,-7.39
344.30,-10.25,-2.85,-10.26,-2.86,2.89,3.50,3.28,-7.36,-7.37,-7.40
347.75,-10.25,-2.85,-10.25,-2.85,2.83,3.46,3.22,-7.42,-7.42,-7.40
351.23,-10.25,-2.85,-10.21,-2.81,2.76,3.42,3.17,-7.49,-7.45,-7.40
354.74,-10.15,-2.75,-10.16,-2.76,2.71,3.37,3.12,-7.45,-7.46,-7.40
358.28,-10.04,-2.64,-10.07,-2.67,2.65,3.33,3.07,-7.39,-7.42,-7.40
361.87,-10.02,-2.63,-9.96,-2.57,2.59,3.29,3.03,-7.43,-7.37,-7.39
365.49,-9.85,-2.46,-9.88,-2.49,2.53,3.25,2.98,-7.32,-7.35,-7.39
