frequency,raw,error,smoothed,error_smoothed,equalization,parametric_eq,fixed_band_eq,equalized_raw,equalized_smoothed,target
20.00,-5.91,-4.17,-5.92,-4.18,4.20,3.84,1.22,-1.72,-1.73,-1.74
20.20,-5.91,-4.17,-5.89,-4.15,4.15,3.82,1.25,-1.76,-1.74,-1.74
20.40,-5.85,-4.11,-5.85,-4.11,4.10,3.80,1.29,-1.75,-1.75,-1.74
20.61,-5.81,-4.07,-5.81,-4.06,4.05,3.77,1.33,-1.76,-1.75,-1.74
20.81,-5.74,-4.00,-5.75,-4.01,4.00,3.75,1.37,-1.74,-1.75,-1.74
21.02,-5.70,-3.96,-5.70,-3.96,3.95,3.72,1.41,-1.75,-1.75,-1.74
21.23,-5.65,-3.91,-5.65,-3.90,3.90,3.70,1.46,-1.75,-1.75,-1.74
21.44,-5.60,-3.86,-5.59,-3.85,3.85,3.68,1.50,-1.75,-1.75,-1.74
21.66,-5.53,-3.79,-5.54,-3.79,3.79,3.65,1.55,-1.75,-1.75,-1.74
21.87,-5.47,-3.73,-5.47,-3.73,3.73,3.63,1.59,-1.74,-1.75,-1.74
22.09,-5.42,-3.68,-5.41,-3.67,3.67,3.60,1.64,-1.75,-1.74,-1.74
22.31,-5.35,-3.61,-5.35,-3.61,3.61,3.57,1.69,-1.73,-1.74,-1.74
22.54,-5.29,-3.55,-5.30,-3.55,3.56,3.55,1.74,-1.73,-1.73,-1.74
22.76,-5.25,-3.51,-5.25,-3.50,3.51,3.52,1.79,-1.74,-1.73,-1.74
22.99,-5.20,-3.46,-5.21,-3.46,3.47,3.49,1.85,-1.73,-1.74,-1.74
23.22,-5.17,-3.43,-5.17,-3.43,3.42,3.46,1.90,-1.75,-1.75,-1.74
23.45,-5.14,-3.40,-5.13,-3.39,3.38,3.43,1.96,-1.76,-1.75,-1.74
23.69,-5.09,-3.35,-5.09,-3.35,3.35,3.40,2.01,-1.74,-1.75,-1.74
23.92,-5.05,-3.31,-5.06,-3.31,3.31,3.37,2.07,-1.74,-1.75,-1.74
24.16,-5.02,-3.28,-5.02,-3.28,3.27,3.34,2.13,-1.75,-1.74,-1.74
24.40,-4.99,-3.25,-4.98,-3.24,3.24,3.31,2.19,-1.75,-1.75,-1.74
24.65,-4.94,-3.20,-4.94,-3.20,3.20,3.28,2.25,-1.74,-1.74,-1.74
24.89,-4.90,-3.16,-4.91,-3.16,3.16,3.25,2.31,-1.74,-1.75,-1.74
25.14,-4.87,-3.13,-4.87,-3.12,3.13,3.22,2.37,-1.75,-1.74,-1.74
25.39,-4.84,-3.10,-4.83,-3.09,3.09,3.19,2.43,-1.75,-1.74,-1.74
25.65,-4.79,-3.05,-4.80,-3.06,3.06,3.15,2.50,-1.73,-1.74,-1.74
25.91,-4.76,-3.02,-4.76,-3.02,3.02,3.12,2.56,-1.74,-1.74,-1.74
26.16,-4.74,-3.00,-4.73,-2.99,2.99,3.09,2.62,-1.75,-1.74,-1.74
26.43,-4.70,-2.96,-4.71,-2.97,2.96,3.05,2.68,-1.74,-1.75,-1.74
26.69,-4.69,-2.95,-4.68,-2.94,2.94,3.02,2.73,-1.76,-1.75,-1.74
26.96,-4.65,-2.91,-4.65,-2.91,2.91,2.98,2.79,-1.74,-1.74,-1.74
27.23,-4.62,-2.88,-4.62,-2.88,2.88,2.94,2.85,-1.74,-1.74,-1.74
27.50,-4.60,-2.86,-4.60,-2.85,2.86,2.91,2.90,-1.74,-1.74,-1.74
27.77,-4.57,-2.83,-4.57,-2.83,2.83,2.87,2.95,-1.74,-1.74,-1.74
28.05,-4.56,-2.82,-4.55,-2.81,2.81,2.83,3.00,-1.75,-1.75,-1.74
28.33,-4.52,-2.78,-4.53,-2.79,2.78,2.79,3.04,-1.74,-1.75,-1.74
28.62,-4.51,-2.77,-4.50,-2.75,2.75,2.75,3.09,-1.76,-1.74,-1.74
28.90,-4.46,-2.72,-4.47,-2.72,2.73,2.71,3.12,-1.73,-1.74,-1.74
29.19,-4.43,-2.69,-4.44,-2.70,2.70,2.67,3.15,-1.73,-1.74,-1.74
29.48,-4.42,-2.68,-4.41,-2.66,2.67,2.63,3.18,-1.75,-1.74,-1.74
29.78,-4.37,-2.63,-4.38,-2.63,2.63,2.59,3.21,-1.74,-1.74,-1.74
30.08,-4.34,-2.60,-4.35,-2.60,2.60,2.55,3.22,-1.74,-1.75,-1.74
30.38,-4.31,-2.57,-4.31,-2.56,2.56,2.51,3.24,-1.75,-1.75,-1.74
30.68,-4.27,-2.53,-4.27,-2.53,2.52,2.47,3.24,-1.75,-1.75,-1.74
30.99,-4.22,-2.48,-4.22,-2.48,2.48,2.42,3.24,-1.74,-1.74,-1.74
31.30,-4.17,-2.43,-4.17,-2.43,2.43,2.38,3.24,-1.74,-1.74,-1.74
31.61,-4.11,-2.37,-4.12,-2.37,2.38,2.33,3.23,-1.73,-1.74,-1.74
31.93,-4.07,-2.33,-4.07,-2.33,2.33,2.29,3.21,-1.74,-1.74,-1.74
32.24,-4.02,-2.28,-4.02,-2.28,2.27,2.24,3.19,-1.75,-1.75,-1.74
32.57,-3.97,-2.23,-3.96,-2.22,2.21,2.20,3.16,-1.76,-1.75,-1.74
32.89,-3.89,-2.15,-3.90,-2.16,2.15,2.15,3.13,-1.74,-1.75,-1.74
33.22,-3.83,-2.09,-3.83,-2.09,2.08,2.11,3.09,-1.75,-1.75,-1.74
33.55,-3.76,-2.02,-3.75,-2.01,2.02,2.06,3.04,-1.74,-1.74,-1.74
33.89,-3.68,-1.94,-3.68,-1.94,1.95,2.01,2.99,-1.73,-1.74,-1.74
34.23,-3.61,-1.87,-3.62,-1.87,1.88,1.96,2.94,-1.73,-1.74,-1.74
34.57,-3.55,-1.81,-3.55,-1.81,1.81,1.91,2.88,-1.74,-1.74,-1.74
34.92,-3.49,-1.75,-3.49,-1.74,1.74,1.86,2.82,-1.75,-1.74,-1.74
35.27,-3.42,-1.68,-3.43,-1.68,1.68,1.82,2.76,-1.74,-1.75,-1.74
35.62,-3.36,-1.62,-3.36,-1.62,1.61,1.77,2.69,-1.75,-1.75,-1.74
35.97,-3.30,-1.56,-3.30,-1.55,1.55,1.72,2.62,-1.75,-1.75,-1.74
36.33,-3.23,-1.49,-3.23,-1.49,1.49,1.67,2.55,-1.74,-1.74,-1.74
36.70,-3.17,-1.43,-3.17,-1.42,1.43,1.61,2.48,-1.74,-1.74,-1.74
37.06,-3.10,-1.36,-3.10,-1.36,1.37,1.56,2.40,-1.73,-1.74,-1.74
37.43,-3.04,-1.30,-3.05,-1.30,1.30,1.51,2.33,-1.74,-1.74,-1.74
37.81,-2.99,-1.25,-2.99,-1.24,1.24,1.46,2.25,-1.75,-1.74,-1.74
38.19,-2.93,-1.19,-2.93,-1.18,1.18,1.41,2.17,-1.75,-1.75,-1.74
38.57,-2.86,-1.12,-2.87,-1.12,1.12,1.36,2.09,-1.74,-1.75,-1.74
38.95,-2.80,-1.06,-2.80,-1.06,1.05,1.30,2.01,-1.75,-1.75,-1.74
39.34,-2.74,-1.00,-2.74,-0.99,0.99,1.25,1.94,-1.75,-1.75,-1.74
39.74,-2.67,-0.93,-2.67,-0.93,0.93,1.20,1.86,-1.74,-1.75,-1.74
40.14,-2.61,-0.87,-2.61,-0.87,0.87,1.15,1.78,-1.74,-1.74,-1.74
40.54,-2.55,-0.81,-2.55,-0.81,0.81,1.09,1.70,-1.74,-1.74,-1.74
40.94,-2.49,-0.75,-2.49,-0.75,0.75,1.04,1.62,-1.74,-1.74,-1.74
41.35,-2.44,-0.70,-2.44,-0.70,0.71,0.99,1.54,-1.74,-1.74,-1.74
41.76,-2.40,-0.66,-2.40,-0.66,0.66,0.93,1.47,-1.74,-1.74,-1.74
42.18,-2.37,-0.63,-2.36,-0.62,0.62,0.88,1.39,-1.75,-1.74,-1.74
42.60,-2.32,-0.58,-2.33,-0.59,0.59,0.83,1.31,-1.73,-1.74,-1.74
43.03,-2.31,-0.57,-2.30,-0.56,0.56,0.78,1.24,-1.75,-1.74,-1.74
43.46,-2.27,-0.53,-2.28,-0.53,0.53,0.73,1.16,-1.74,-1.74,-1.74
43.90,-2.26,-0.52,-2.26,-0.51,0.51,0.67,1.09,-1.75,-1.75,-1.74
44.33,-2.23,-0.49,-2.23,-0.49,0.48,0.62,1.02,-1.75,-1.75,-1.74
44.78,-2.21,-0.47,-2.21,-0.46,0.46,0.57,0.95,-1.75,-1.75,-1.74
45.23,-2.18,-0.44,-2.18,-0.43,0.43,0.52,0.87,-1.75,-1.74,-1.74
45.68,-2.14,-0.40,-2.15,-0.41,0.41,0.47,0.80,-1.73,-1.74,-1.74
46.13,-2.13,-0.39,-2.13,-0.38,0.39,0.42,0.73,-1.74,-1.74,-1.74
46.60,-2.11,-0.37,-2.11,-0.37,0.37,0.37,0.67,-1.74,-1.74,-1.74
47.06,-2.09,-0.35,-2.09,-0.35,0.35,0.32,0.60,-1.74,-1.75,-1.74
47.53,-2.09,-0.35,-2.07,-0.33,0.33,0.28,0.53,-1.76,-1.74,-1.74
48.01,-2.04,-0.30,-2.06,-0.32,0.31,0.23,0.47,-1.73,-1.75,-1.74
48.49,-2.04,-0.30,-2.04,-0.30,0.30,0.18,0.40,-1.74,-1.74,-1.74
48.97,-2.04,-0.30,-2.02,-0.28,0.28,0.14,0.34,-1.76,-1.74,-1.74
49.46,-1.99,-0.25,-2.01,-0.26,0.27,0.09,0.27,-1.72,-1.74,-1.74
49.96,-1.99,-0.25,-2.00,-0.25,0.25,0.05,0.21,-1.74,-1.74,-1.74
50.46,-1.99,-0.25,-1.98,-0.24,0.24,0.01,0.15,-1.75,-1.74,-1.74
50.96,-1.98,-0.24,-1.97,-0.23,0.23,-0.03,0.09,-1.75,-1.74,-1.74
51.47,-1.95,-0.21,-1.96,-0.22,0.22,-0.07,0.03,-1.73,-1.74,-1.74
51.99,-1.95,-0.21,-1.95,-0.21,0.21,-0.11,-0.03,-1.74,-1.74,-1.74
52.51,-1.95,-0.21,-1.94,-0.19,0.20,-0.15,-0.09,-1.75,-1.74,-1.74
53.03,-1.92,-0.18,-1.93,-0.18,0.18,-0.19,-0.14,-1.74,-1.75,-1.74
53.56,-1.90,-0.16,-1.91,-0.16,0.16,-0.22,-0.20,-1.74,-1.75,-1.74
54.10,-1.89,-0.15,-1.88,-0.14,0.14,-0.26,-0.25,-1.76,-1.74,-1.74
54.64,-1.85,-0.11,-1.85,-0.11,0.10,-0.29,-0.30,-1.75,-1.75,-1.74
55.18,-1.81,-0.07,-1.82,-0.07,0.07,-0.32,-0.35,-1.74,-1.75,-1.74
55.74,-1.78,-0.04,-1.77,-0.03,0.03,-0.35,-0.40,-1.75,-1.74,-1.74
56.29,-1.72,0.02,-1.73,0.02,-0.02,-0.38,-0.44,-1.74,-1.75,-1.74
56.86,-1.67,0.07,-1.67,0.07,-0.07,-0.41,-0.49,-1.74,-1.74,-1.74
57.42,-1.62,0.12,-1.61,0.13,-0.13,-0.44,-0.53,-1.75,-1.74,-1.74
58.00,-1.55,0.19,-1.56,0.18,-0.19,-0.46,-0.57,-1.74,-1.74,-1.74
58.58,-1.50,0.24,-1.50,0.24,-0.24,-0.48,-0.60,-1.75,-1.75,-1.74
59.16,-1.45,0.29,-1.44,0.30,-0.30,-0.50,-0.64,-1.75,-1.74,-1.74
59.76,-1.38,0.36,-1.38,0.36,-0.36,-0.52,-0.67,-1.74,-1.74,-1.74
60.35,-1.32,0.42,-1.32,0.42,-0.42,-0.54,-0.70,-1.74,-1.74,-1.74
60.96,-1.27,0.47,-1.27,0.48,-0.47,-0.56,-0.73,-1.74,-1.74,-1.74
61.57,-1.22,0.52,-1.22,0.52,-0.52,-0.58,-0.75,-1.74,-1.74,-1.74
62.18,-1.18,0.56,-1.18,0.56,-0.56,-0.59,-0.77,-1.74,-1.75,-1.74
62.80,-1.15,0.59,-1.14,0.60,-0.60,-0.60,-0.79,-1.75,-1.75,-1.74
63.43,-1.11,0.63,-1.11,0.64,-0.64,-0.62,-0.81,-1.75,-1.75,-1.74
64.07,-1.06,0.68,-1.07,0.67,-0.67,-0.63,-0.82,-1.73,-1.74,-1.74
64.71,-1.05,0.69,-1.04,0.70,-0.70,-0.63,-0.83,-1.75,-1.74,-1.74
65.35,-1.01,0.73,-1.02,0.73,-0.72,-0.64,-0.84,-1.73,-1.74,-1.74
66.01,-1.01,0.73,-1.00,0.75,-0.74,-0.65,-0.85,-1.75,-1.74,-1.74
66.67,-0.97,0.77,-0.98,0.76,-0.76,-0.65,-0.85,-1.73,-1.74,-1.74
67.33,-0.97,0.77,-0.97,0.77,-0.77,-0.66,-0.86,-1.74,-1.74,-1.74
68.01,-0.97,0.77,-0.97,0.78,-0.77,-0.66,-0.86,-1.74,-1.74,-1.74
68.69,-0.97,0.77,-0.97,0.77,-0.78,-0.66,-0.85,-1.75,-1.75,-1.74
69.37,-0.97,0.77,-0.97,0.77,-0.78,-0.66,-0.85,-1.75,-1.75,-1.74
70.07,-0.97,0.77,-0.97,0.77,-0.78,-0.66,-0.84,-1.75,-1.75,-1.74
70.77,-0.97,0.77,-0.97,0.77,-0.78,-0.66,-0.84,-1.75,-1.75,-1.74
71.48,-0.97,0.77,-0.97,0.77,-0.78,-0.66,-0.83,-1.75,-1.75,-1.74
72.19,-0.97,0.77,-0.97,0.77,-0.78,-0.66,-0.82,-1.75,-1.75,-1.74
72.91,-0.97,0.77,-0.97,0.77,-0.77,-0.66,-0.81,-1.75,-1.75,-1.74
73.64,-0.97,0.77,-0.97,0.77,-0.77,-0.65,-0.80,-1.74,-1.74,-1.74
74.38,-0.97,0.77,-0.97,0.77,-0.77,-0.65,-0.79,-1.74,-1.74,-1.74
75.12,-0.97,0.77,-0.97,0.77,-0.76,-0.65,-0.78,-1.74,-1.73,-1.74
75.87,-0.97,0.77,-0.98,0.77,-0.76,-0.64,-0.76,-1.73,-1.74,-1.74
76.63,-0.99,0.75,-0.99,0.75,-0.75,-0.64,-0.75,-1.74,-1.74,-1.74
77.40,-1.01,0.73,-1.00,0.74,-0.75,-0.63,-0.74,-1.76,-1.75,-1.74
78.17,-1.01,0.73,-1.01,0.73,-0.74,-0.63,-0.72,-1.75,-1.75,-1.74
78.95,-1.01,0.73,-1.01,0.73,-0.74,-0.62,-0.71,-1.75,-1.75,-1.74
79.74,-1.01,0.73,-1.01,0.73,-0.73,-0.61,-0.70,-1.74,-1.74,-1.74
80.54,-1.01,0.73,-1.01,0.73,-0.73,-0.61,-0.68,-1.74,-1.74,-1.74
81.35,-1.01,0.73,-1.01,0.73,-0.73,-0.60,-0.67,-1.74,-1.74,-1.74
82.16,-1.01,0.73,-1.01,0.73,-0.73,-0.59,-0.66,-1.74,-1.74,-1.74
82.98,-1.01,0.73,-1.01,0.73,-0.73,-0.59,-0.65,-1.74,-1.74,-1.74
83.81,-1.01,0.73,-1.01,0.73,-0.73,-0.58,-0.63,-1.74,-1.74,-1.74
84.65,-1.01,0.73,-1.01,0.73,-0.73,-0.58,-0.62,-1.74,-1.74,-1.74
85.50,-1.01,0.73,-1.01,0.73,-0.74,-0.57,-0.61,-1.75,-1.75,-1.74
86.35,-1.01,0.73,-1.01,0.73,-0.74,-0.57,-0.60,-1.75,-1.75,-1.74
87.22,-1.01,0.73,-1.01,0.73,-0.74,-0.56,-0.59,-1.75,-1.75,-1.74
88.09,-1.01,0.73,-1.01,0.73,-0.73,-0.56,-0.58,-1.74,-1.74,-1.74
88.97,-1.01,0.73,-1.01,0.74,-0.73,-0.55,-0.57,-1.74,-1.74,-1.74
89.86,-1.01,0.73,-1.01,0.73,-0.72,-0.55,-0.56,-1.73,-1.73,-1.74
90.76,-1.01,0.73,-1.02,0.72,-0.71,-0.54,-0.55,-1.73,-1.74,-1.74
91.66,-1.04,0.70,-1.04,0.71,-0.71,-0.54,-0.55,-1.75,-1.74,-1.74
92.58,-1.06,0.68,-1.05,0.69,-0.70,-0.54,-0.54,-1.76,-1.75,-1.74
93.51,-1.06,0.68,-1.06,0.68,-0.69,-0.53,-0.53,-1.75,-1.76,-1.74
94.44,-1.06,0.68,-1.06,0.68,-0.69,-0.53,-0.53,-1.75,-1.75,-1.74
95.39,-1.06,0.68,-1.06,0.68,-0.68,-0.53,-0.52,-1.74,-1.74,-1.74
96.34,-1.06,0.68,-1.06,0.68,-0.68,-0.53,-0.51,-1.74,-1.74,-1.74
97.30,-1.06,0.68,-1.06,0.68,-0.68,-0.53,-0.51,-1.74,-1.74,-1.74
98.28,-1.06,0.68,-1.06,0.68,-0.68,-0.53,-0.50,-1.74,-1.74,-1.74
99.26,-1.06,0.68,-1.06,0.68,-0.68,-0.52,-0.50,-1.74,-1.74,-1.74
100.25,-1.06,0.68,-1.06,0.69,-0.68,-0.52,-0.50,-1.74,-1.74,-1.74
101.25,-1.06,0.68,-1.06,0.68,-0.67,-0.52,-0.49,-1.73,-1.73,-1.74
102.27,-1.06,0.68,-1.07,0.67,-0.67,-0.53,-0.49,-1.73,-1.74,-1.74
103.29,-1.09,0.65,-1.09,0.66,-0.66,-0.53,-0.49,-1.75,-1.75,-1.74
104.32,-1.11,0.63,-1.10,0.64,-0.65,-0.53,-0.49,-1.76,-1.75,-1.74
105.37,-1.11,0.63,-1.11,0.63,-0.64,-0.53,-0.48,-1.75,-1.75,-1.74
106.42,-1.11,0.63,-1.11,0.63,-0.63,-0.53,-0.48,-1.74,-1.74,-1.74
107.48,-1.11,0.63,-1.12,0.62,-0.62,-0.53,-0.48,-1.73,-1.74,-1.74
108.56,-1.15,0.59,-1.14,0.61,-0.61,-0.54,-0.48,-1.76,-1.74,-1.74
109.64,-1.15,0.59,-1.15,0.59,-0.60,-0.54,-0.48,-1.75,-1.75,-1.74
110.74,-1.15,0.59,-1.15,0.59,-0.60,-0.54,-0.48,-1.75,-1.75,-1.74
111.85,-1.15,0.59,-1.15,0.59,-0.59,-0.55,-0.48,-1.74,-1.74,-1.74
112.97,-1.15,0.59,-1.15,0.59,-0.59,-0.55,-0.48,-1.74,-1.74,-1.74
114.10,-1.15,0.59,-1.15,0.59,-0.59,-0.56,-0.48,-1.74,-1.74,-1.74
115.24,-1.15,0.59,-1.15,0.59,-0.59,-0.56,-0.48,-1.74,-1.74,-1.74
116.39,-1.15,0.59,-1.15,0.59,-0.59,-0.56,-0.48,-1.74,-1.74,-1.74
117.55,-1.15,0.59,-1.15,0.59,-0.59,-0.57,-0.48,-1.74,-1.74,-1.74
118.73,-1.15,0.59,-1.15,0.59,-0.59,-0.57,-0.48,-1.74,-1.74,-1.74
119.92,-1.15,0.59,-1.15,0.59,-0.59,-0.58,-0.48,-1.74,-1.74,-1.74
121.12,-1.15,0.59,-1.15,0.59,-0.59,-0.58,-0.48,-1.74,-1.74,-1.74
122.33,-1.15,0.59,-1.15,0.59,-0.59,-0.59,-0.48,-1.74,-1.74,-1.74
123.55,-1.15,0.59,-1.15,0.59,-0.59,-0.59,-0.48,-1.74,-1.74,-1.74
124.79,-1.15,0.59,-1.15,0.59,-0.59,-0.60,-0.48,-1.74,-1.74,-1.74
126.03,-1.15,0.59,-1.15,0.59,-0.59,-0.60,-0.48,-1.74,-1.74,-1.74
127.29,-1.15,0.59,-1.15,0.59,-0.59,-0.61,-0.48,-1.74,-1.74,-1.74
128.57,-1.15,0.59,-1.15,0.59,-0.59,-0.61,-0.48,-1.74,-1.74,-1.74
129.85,-1.15,0.59,-1.15,0.59,-0.59,-0.62,-0.48,-1.74,-1.74,-1.74
131.15,-1.15,0.59,-1.15,0.59,-0.59,-0.62,-0.48,-1.74,-1.74,-1.74
132.46,-1.15,0.59,-1.15,0.59,-0.59,-0.62,-0.48,-1.74,-1.74,-1.74
133.79,-1.15,0.59,-1.15,0.59,-0.59,-0.63,-0.48,-1.74,-1.74,-1.74
135.12,-1.15,0.59,-1.15,0.59,-0.59,-0.63,-0.48,-1.75,-1.75,-1.74
136.48,-1.15,0.59,-1.15,0.59,-0.60,-0.64,-0.48,-1.75,-1.75,-1.74
137.84,-1.15,0.59,-1.15,0.59,-0.60,-0.64,-0.48,-1.75,-1.75,-1.74
139.22,-1.15,0.59,-1.15,0.59,-0.59,-0.65,-0.47,-1.74,-1.74,-1.74
140.61,-1.15,0.59,-1.15,0.60,-0.59,-0.65,-0.47,-1.74,-1.74,-1.74
142.02,-1.15,0.59,-1.15,0.59,-0.58,-0.65,-0.47,-1.73,-1.74,-1.74
143.44,-1.15,0.59,-1.16,0.58,-0.58,-0.66,-0.48,-1.73,-1.74,-1.74
144.87,-1.18,0.56,-1.17,0.57,-0.57,-0.66,-0.48,-1.75,-1.74,-1.74
146.32,-1.18,0.56,-1.19,0.56,-0.56,-0.66,-0.48,-1.74,-1.75,-1.74
147.78,-1.20,0.54,-1.20,0.55,-0.56,-0.66,-0.48,-1.76,-1.75,-1.74
149.26,-1.20,0.54,-1.20,0.54,-0.55,-0.67,-0.48,-1.75,-1.75,-1.74
150.75,-1.20,0.54,-1.20,0.54,-0.54,-0.67,-0.48,-1.75,-1.75,-1.74
152.26,-1.20,0.54,-1.20,0.54,-0.54,-0.67,-0.48,-1.74,-1.74,-1.74
153.78,-1.20,0.54,-1.20,0.54,-0.54,-0.67,-0.48,-1.74,-1.74,-1.74
155.32,-1.20,0.54,-1.20,0.54,-0.54,-0.68,-0.48,-1.74,-1.74,-1.74
156.88,-1.20,0.54,-1.20,0.54,-0.54,-0.68,-0.49,-1.74,-1.74,-1.74
158.44,-1.20,0.54,-1.20,0.54,-0.54,-0.68,-0.49,-1.74,-1.74,-1.74
160.03,-1.20,0.54,-1.20,0.54,-0.54,-0.68,-0.49,-1.74,-1.74,-1.74
161.63,-1.20,0.54,-1.20,0.54,-0.54,-0.68,-0.50,-1.74,-1.74,-1.74
163.24,-1.20,0.54,-1.20,0.54,-0.54,-0.68,-0.50,-1.74,-1.74,-1.74
164.88,-1.20,0.54,-1.20,0.54,-0.54,-0.68,-0.50,-1.74,-1.74,-1.74
166.53,-1.20,0.54,-1.20,0.54,-0.54,-0.68,-0.51,-1.74,-1.74,-1.74
168.19,-1.20,0.54,-1.20,0.54,-0.54,-0.68,-0.51,-1.74,-1.74,-1.74
169.87,-1.20,0.54,-1.20,0.54,-0.54,-0.68,-0.52,-1.74,-1.74,-1.74
171.57,-1.20,0.54,-1.20,0.54,-0.54,-0.68,-0.53,-1.74,-1.74,-1.74
173.29,-1.20,0.54,-1.20,0.54,-0.54,-0.68,-0.53,-1.74,-1.74,-1.74
175.02,-1.20,0.54,-1.20,0.54,-0.54,-0.68,-0.54,-1.74,-1.74,-1.74
176.77,-1.20,0.54,-1.20,0.54,-0.54,-0.68,-0.55,-1.74,-1.74,-1.74
178.54,-1.20,0.54,-1.20,0.54,-0.54,-0.68,-0.55,-1.74,-1.74,-1.74
180.32,-1.20,0.54,-1.20,0.54,-0.54,-0.68,-0.56,-1.74,-1.74,-1.74
182.13,-1.20,0.54,-1.20,0.54,-0.54,-0.68,-0.57,-1.75,-1.75,-1.74
183.95,-1.20,0.54,-1.20,0.54,-0.55,-0.68,-0.58,-1.75,-1.75,-1.74
185.79,-1.20,0.54,-1.20,0.54,-0.55,-0.68,-0.59,-1.75,-1.75,-1.74
187.65,-1.20,0.54,-1.20,0.54,-0.54,-0.68,-0.60,-1.74,-1.74,-1.74
189.52,-1.20,0.54,-1.20,0.54,-0.54,-0.68,-0.61,-1.74,-1.74,-1.74
191.42,-1.20,0.54,-1.20,0.54,-0.53,-0.67,-0.62,-1.73,-1.73,-1.74
193.33,-1.20,0.54,-1.21,0.54,-0.53,-0.67,-0.63,-1.73,-1.73,-1.74
195.27,-1.22,0.52,-1.22,0.52,-0.52,-0.67,-0.64,-1.74,-1.74,-1.74
197.22,-1.24,0.50,-1.24,0.51,-0.51,-0.67,-0.65,-1.75,-1.75,-1.74
199.19,-1.25,0.49,-1.25,0.50,-0.51,-0.67,-0.66,-1.76,-1.75,-1.74
201.18,-1.25,0.49,-1.25,0.49,-0.50,-0.67,-0.68,-1.75,-1.75,-1.74
203.19,-1.25,0.49,-1.25,0.49,-0.49,-0.67,-0.69,-1.74,-1.75,-1.74
205.23,-1.25,0.49,-1.25,0.49,-0.49,-0.66,-0.70,-1.74,-1.74,-1.74
207.28,-1.25,0.49,-1.25,0.49,-0.49,-0.66,-0.71,-1.74,-1.74,-1.74
209.35,-1.25,0.49,-1.25,0.49,-0.49,-0.66,-0.72,-1.74,-1.74,-1.74
211.44,-1.25,0.49,-1.25,0.49,-0.49,-0.66,-0.73,-1.74,-1.74,-1.74
213.56,-1.25,0.49,-1.25,0.49,-0.49,-0.66,-0.75,-1.74,-1.74,-1.74
215.69,-1.25,0.49,-1.25,0.49,-0.49,-0.66,-0.76,-1.74,-1.74,-1.74
217.85,-1.25,0.49,-1.25,0.49,-0.49,-0.66,-0.77,-1.74,-1.74,-1.74
220.03,-1.25,0.49,-1.25,0.49,-0.49,-0.66,-0.78,-1.74,-1.74,-1.74
222.23,-1.25,0.49,-1.25,0.49,-0.49,-0.66,-0.79,-1.74,-1.74,-1.74
224.45,-1.25,0.49,-1.25,0.49,-0.49,-0.66,-0.80,-1.74,-1.74,-1.74
226.70,-1.25,0.49,-1.25,0.49,-0.49,-0.66,-0.81,-1.74,-1.74,-1.74
228.96,-1.25,0.49,-1.25,0.49,-0.49,-0.66,-0.82,-1.74,-1.74,-1.74
231.25,-1.25,0.49,-1.25,0.49,-0.49,-0.66,-0.83,-1.74,-1.74,-1.74
233.57,-1.25,0.49,-1.25,0.49,-0.49,-0.66,-0.83,-1.74,-1.74,-1.74
235.90,-1.25,0.49,-1.25,0.49,-0.49,-0.66,-0.84,-1.74,-1.74,-1.74
238.26,-1.25,0.49,-1.25,0.49,-0.49,-0.66,-0.84,-1.74,-1.74,-1.74
240.64,-1.25,0.49,-1.25,0.49,-0.49,-0.66,-0.85,-1.74,-1.74,-1.74
243.05,-1.25,0.49,-1.25,0.49,-0.49,-0.66,-0.85,-1.74,-1.74,-1.74
245.48,-1.25,0.49,-1.25,0.49,-0.49,-0.67,-0.85,-1.74,-1.74,-1.74
247.93,-1.25,0.49,-1.25,0.49,-0.49,-0.67,-0.85,-1.74,-1.74,-1.74
250.41,-1.25,0.49,-1.25,0.49,-0.49,-0.67,-0.85,-1.74,-1.74,-1.74
252.92,-1.25,0.49,-1.25,0.49,-0.49,-0.67,-0.85,-1.74,-1.74,-1.74
255.45,-1.25,0.49,-1.26,0.49,-0.49,-0.68,-0.85,-1.75,-1.75,-1.74
258.00,-1.25,0.49,-1.25,0.50,-0.50,-0.68,-0.85,-1.75,-1.75,-1.74
260.58,-1.25,0.49,-1.23,0.51,-0.51,-0.69,-0.84,-1.76,-1.74,-1.74
263.19,-1.20,0.54,-1.22,0.52,-0.52,-0.69,-0.84,-1.72,-1.74,-1.74
265.82,-1.20,0.54,-1.20,0.54,-0.54,-0.70,-0.83,-1.74,-1.74,-1.74
268.48,-1.20,0.54,-1.18,0.56,-0.56,-0.71,-0.82,-1.76,-1.74,-1.74
271.16,-1.15,0.59,-1.16,0.58,-0.59,-0.71,-0.81,-1.74,-1.75,-1.74
273.87,-1.13,0.61,-1.13,0.61,-0.62,-0.72,-0.80,-1.75,-1.75,-1.74
276.61,-1.10,0.64,-1.09,0.65,-0.66,-0.73,-0.79,-1.76,-1.75,-1.74
279.38,-1.05,0.69,-1.05,0.69,-0.70,-0.74,-0.78,-1.75,-1.75,-1.74
282.17,-1.00,0.74,-1.01,0.74,-0.74,-0.75,-0.77,-1.74,-1.74,-1.74
284.99,-0.96,0.78,-0.96,0.79,-0.78,-0.76,-0.76,-1.74,-1.74,-1.74
287.84,-0.91,0.83,-0.91,0.83,-0.83,-0.78,-0.75,-1.74,-1.74,-1.74
290.72,-0.86,0.88,-0.86,0.88,-0.88,-0.79,-0.73,-1.74,-1.74,-1.74
293.63,-0.82,0.92,-0.82,0.92,-0.92,-0.81,-0.72,-1.74,-1.74,-1.74
296.57,-0.78,0.96,-0.78,0.97,-0.96,-0.82,-0.71,-1.74,-1.74,-1.74
299.53,-0.74,1.00,-0.75,1.00,-1.00,-0.84,-0.69,-1.74,-1.74,-1.74
302.53,-0.71,1.03,-0.71,1.03,-1.03,-0.86,-0.68,-1.74,-1.74,-1.74
305.55,-0.69,1.05,-0.68,1.06,-1.06,-0.88,-0.67,-1.75,-1.74,-1.74
308.61,-0.64,1.10,-0.65,1.09,-1.09,-0.90,-0.65,-1.73,-1.74,-1.74
311.69,-0.64,1.10,-0.63,1.12,-1.11,-0.92,-0.64,-1.75,-1.74,-1.74
314.81,-0.60,1.14,-0.61,1.13,-1.13,-0.94,-0.62,-1.73,-1.75,-1.74
317.96,-0.60,1.14,-0.60,1.14,-1.15,-0.96,-0.61,-1.75,-1.75,-1.74
321.14,-0.60,1.14,-0.58,1.16,-1.16,-0.99,-0.60,-1.77,-1.74,-1.74
324.35,-0.55,1.19,-0.57,1.18,-1.18,-1.01,-0.58,-1.73,-1.74,-1.74
327.59,-0.55,1.19,-0.55,1.19,-1.18,-1.04,-0.57,-1.73,-1.74,-1.74
330.87,-0.55,1.19,-0.55,1.20,-1.19,-1.06,-0.56,-1.74,-1.73,-1.74
334.18,-0.55,1.19,-0.55,1.19,-1.19,-1.09,-0.55,-1.74,-1.74,-1.74
337.52,-0.55,1.19,-0.55,1.19,-1.19,-1.11,-0.54,-1.74,-1.74,-1.74
340.90,-0.55,1.19,-0.55,1.19,-1.19,-1.13,-0.52,-1.74,-1.74,-1.74
344.30,-0.55,1.19,-0.55,1.19,-1.19,-1.16,-0.51,-1.74,-1.74,-1.74
347.75,-0.55,1.19,-0.55,1.19,-1.20,-1.18,-0.50,-1.75,-1.75,-1.74
351.23,-0.55,1.19,-0.55,1.19,-1.20,-1.20,-0.49,-1.75,-1.75,-1.74
354.74,-0.55,1.19,-0.54,1.20,-1.20,-1.21,-0.48,-1.76,-1.75,-1.74
358.28,-0.53,1.21,-0.53,1.22,-1.21,-1.23,-0.47,-1.74,-1.74,-1.74
361.87,-0.50,1.24,-0.51,1.23,-1.22,-1.24,-0.46,-1.72,-1.74,-1.74
365.49,-0.50,1.24,-0.50,1.24,-1.24,-1.24,-0.45,-1.74,-1.74,-1.74
369.14,-0.50,1.24,-0.49,1.25,-1.25,-1.24,-0.44,-1.75,-1.74,-1.74
372.83,-0.47,1.27,-0.48,1.26,-1.27,-1.24,-0.44,-1.74,-1.75,-1.74
376.56,-0.46,1.28,-0.46,1.29,-1.29,-1.24,-0.43,-1.76,-1.75,-1.74
380.33,-0.43,1.31,-0.43,1.32,-1.32,-1.23,-0.42,-1.75,-1.75,-1.74
384.13,-0.40,1.34,-0.40,1.34,-1.35,-1.21,-0.41,-1.75,-1.75,-1.74
387.97,-0.36,1.38,-0.37,1.38,-1.38,-1.19,-0.41,-1.74,-1.74,-1.74
391.85,-0.34,1.40,-0.33,1.41,-1.41,-1.17,-0.40,-1.75,-1.74,-1.74
395.77,-0.31,1.43,-0.31,1.43,-1.44,-1.14,-0.40,-1.75,-1.74,-1.74
399.73,-0.27,1.47,-0.28,1.46,-1.46,-1.11,-0.39,-1.73,-1.74,-1.74
403.72,-0.27,1.47,-0.25,1.49,-1.49,-1.08,-0.38,-1.76,-1.74,-1.74
407.76,-0.22,1.52,-0.23,1.51,-1.50,-1.05,-0.38,-1.73,-1.74,-1.74
411.84,-0.22,1.52,-0.22,1.52,-1.52,-1.01,-0.38,-1.74,-1.74,-1.74
415.96,-0.22,1.52,-0.22,1.53,-1.53,-0.97,-0.37,-1.75,-1.75,-1.74
420.12,-0.22,1.52,-0.22,1.52,-1.53,-0.93,-0.37,-1.75,-1.75,-1.74
424.32,-0.22,1.52,-0.22,1.52,-1.53,-0.89,-0.36,-1.75,-1.75,-1.74
428.56,-0.22,1.52,-0.22,1.52,-1.52,-0.85,-0.36,-1.74,-1.74,-1.74
