frequency,raw,error,smoothed,error_smoothed,equalization,parametric_eq,fixed_band_eq,equalized_raw,equalized_smoothed,target
20.00,7.09,0.54,7.09,0.55,-0.55,-0.94,-0.80,6.55,6.55,6.55
20.20,7.12,0.60,7.13,0.60,-0.60,-0.95,-0.83,6.52,6.52,6.52
20.40,7.16,0.67,7.16,0.66,-0.66,-0.97,-0.85,6.50,6.50,6.50
20.61,7.19,0.71,7.19,0.71,-0.71,-0.99,-0.88,6.48,6.48,6.48
20.81,7.22,0.77,7.23,0.77,-0.77,-1.01,-0.90,6.46,6.46,6.46
21.02,7.25,0.82,7.26,0.82,-0.82,-1.04,-0.93,6.43,6.44,6.44
21.23,7.29,0.88,7.29,0.87,-0.87,-1.06,-0.96,6.42,6.42,6.42
21.44,7.32,0.93,7.32,0.93,-0.92,-1.08,-0.99,6.40,6.40,6.40
21.66,7.35,0.98,7.35,0.98,-0.97,-1.10,-1.01,6.38,6.38,6.38
21.87,7.38,1.02,7.38,1.02,-1.02,-1.12,-1.04,6.36,6.36,6.37
22.09,7.41,1.07,7.41,1.07,-1.07,-1.15,-1.07,6.35,6.35,6.35
22.31,7.44,1.11,7.45,1.11,-1.11,-1.17,-1.11,6.33,6.33,6.34
22.54,7.48,1.16,7.48,1.16,-1.16,-1.19,-1.14,6.33,6.32,6.33
22.76,7.51,1.20,7.51,1.20,-1.20,-1.22,-1.17,6.32,6.31,6.31
22.99,7.54,1.24,7.54,1.24,-1.24,-1.24,-1.21,6.30,6.30,6.30
23.22,7.57,1.28,7.57,1.28,-1.28,-1.26,-1.24,6.29,6.29,6.29
23.45,7.60,1.32,7.60,1.32,-1.32,-1.29,-1.28,6.28,6.28,6.28
23.69,7.63,1.36,7.63,1.36,-1.36,-1.31,-1.31,6.28,6.28,6.27
23.92,7.66,1.39,7.66,1.40,-1.40,-1.34,-1.35,6.27,6.27,6.27
24.16,7.69,1.43,7.69,1.43,-1.43,-1.37,-1.39,6.26,6.26,6.26
24.40,7.72,1.46,7.72,1.47,-1.47,-1.39,-1.42,6.26,6.26,6.26
24.65,7.75,1.50,7.75,1.50,-1.50,-1.42,-1.46,6.25,6.25,6.25
24.89,7.78,1.54,7.78,1.54,-1.54,-1.45,-1.50,6.25,6.25,6.25
25.14,7.81,1.58,7.81,1.57,-1.57,-1.47,-1.54,6.24,6.24,6.24
25.39,7.83,1.61,7.84,1.61,-1.61,-1.50,-1.58,6.23,6.23,6.23
25.65,7.86,1.64,7.87,1.64,-1.64,-1.53,-1.62,6.22,6.22,6.23
25.91,7.89,1.68,7.89,1.67,-1.67,-1.56,-1.66,6.22,6.22,6.22
26.16,7.92,1.71,7.92,1.71,-1.71,-1.59,-1.70,6.22,6.21,6.21
26.43,7.94,1.73,7.95,1.74,-1.74,-1.61,-1.74,6.21,6.21,6.21
26.69,7.97,1.77,7.97,1.77,-1.77,-1.64,-1.79,6.20,6.20,6.20
26.96,8.00,1.80,8.00,1.80,-1.80,-1.67,-1.82,6.20,6.20,6.20
27.23,8.02,1.83,8.03,1.83,-1.83,-1.70,-1.86,6.19,6.20,6.19
27.50,8.05,1.86,8.05,1.86,-1.86,-1.73,-1.90,6.19,6.19,6.19
27.77,8.07,1.89,8.07,1.89,-1.89,-1.76,-1.94,6.18,6.18,6.19
28.05,8.09,1.92,8.10,1.92,-1.92,-1.79,-1.98,6.17,6.18,6.18
28.33,8.12,1.95,8.12,1.95,-1.95,-1.82,-2.01,6.17,6.17,6.18
28.62,8.15,1.98,8.15,1.98,-1.98,-1.85,-2.05,6.18,6.17,6.17
28.90,8.17,2.01,8.17,2.01,-2.00,-1.88,-2.08,6.17,6.17,6.16
29.19,8.19,2.03,8.19,2.03,-2.03,-1.91,-2.11,6.16,6.16,6.16
29.48,8.21,2.05,8.21,2.05,-2.06,-1.94,-2.14,6.16,6.16,6.16
29.78,8.23,2.07,8.23,2.08,-2.08,-1.97,-2.17,6.16,6.16,6.16
30.08,8.25,2.10,8.25,2.10,-2.10,-2.00,-2.19,6.16,6.16,6.16
30.38,8.27,2.13,8.27,2.12,-2.12,-2.03,-2.21,6.16,6.15,6.15
30.68,8.28,2.14,8.28,2.14,-2.14,-2.06,-2.24,6.15,6.15,6.14
30.99,8.29,2.15,8.29,2.15,-2.15,-2.09,-2.25,6.14,6.14,6.14
31.30,8.30,2.16,8.30,2.17,-2.17,-2.12,-2.27,6.13,6.13,6.14
31.61,8.31,2.19,8.32,2.18,-2.19,-2.15,-2.28,6.12,6.13,6.13
31.93,8.33,2.21,8.33,2.20,-2.21,-2.18,-2.29,6.13,6.12,6.13
32.24,8.34,2.22,8.34,2.22,-2.22,-2.21,-2.30,6.12,6.12,6.12
32.57,8.35,2.24,8.36,2.24,-2.24,-2.24,-2.31,6.11,6.12,6.11
32.89,8.37,2.26,8.37,2.26,-2.26,-2.27,-2.32,6.12,6.11,6.11
33.22,8.38,2.28,8.38,2.28,-2.28,-2.29,-2.32,6.11,6.11,6.11
33.55,8.39,2.30,8.39,2.30,-2.30,-2.32,-2.32,6.10,6.10,6.09
33.89,8.40,2.31,8.40,2.31,-2.31,-2.35,-2.32,6.09,6.09,6.09
34.23,8.41,2.32,8.41,2.33,-2.33,-2.38,-2.32,6.08,6.08,6.09
34.57,8.42,2.35,8.43,2.35,-2.35,-2.40,-2.31,6.07,6.08,6.08
34.92,8.44,2.37,8.44,2.37,-2.37,-2.43,-2.31,6.08,6.07,6.07
35.27,8.45,2.38,8.45,2.39,-2.38,-2.45,-2.30,6.07,6.07,6.07
35.62,8.46,2.41,8.46,2.40,-2.40,-2.48,-2.30,6.06,6.07,6.06
35.97,8.47,2.42,8.47,2.42,-2.42,-2.50,-2.29,6.06,6.06,6.05
36.33,8.48,2.43,8.48,2.43,-2.43,-2.52,-2.28,6.05,6.05,6.05
36.70,8.49,2.45,8.49,2.45,-2.45,-2.54,-2.28,6.04,6.04,6.05
37.06,8.50,2.46,8.51,2.47,-2.47,-2.57,-2.27,6.03,6.03,6.04
37.43,8.52,2.49,8.52,2.49,-2.49,-2.59,-2.26,6.03,6.03,6.03
37.81,8.53,2.51,8.54,2.51,-2.51,-2.61,-2.26,6.02,6.03,6.03
38.19,8.55,2.53,8.55,2.53,-2.53,-2.63,-2.25,6.02,6.02,6.02
38.57,8.56,2.56,8.56,2.55,-2.55,-2.64,-2.24,6.01,6.01,6.01
38.95,8.57,2.57,8.57,2.57,-2.57,-2.66,-2.24,6.00,6.00,6.00
39.34,8.58,2.60,8.58,2.59,-2.59,-2.68,-2.24,6.00,5.99,5.99
39.74,8.58,2.60,8.59,2.61,-2.61,-2.69,-2.23,5.98,5.98,5.98
40.14,8.59,2.63,8.59,2.62,-2.62,-2.71,-2.23,5.97,5.97,5.97
40.54,8.60,2.64,8.60,2.64,-2.64,-2.72,-2.23,5.96,5.96,5.96
40.94,8.61,2.66,8.61,2.66,-2.66,-2.74,-2.23,5.95,5.95,5.96
41.35,8.62,2.67,8.63,2.68,-2.68,-2.75,-2.23,5.95,5.95,5.95
41.76,8.64,2.70,8.64,2.70,-2.70,-2.76,-2.24,5.95,5.95,5.95
42.18,8.66,2.72,8.66,2.72,-2.72,-2.77,-2.24,5.95,5.94,5.94
42.60,8.67,2.74,8.67,2.74,-2.74,-2.78,-2.25,5.94,5.94,5.93
43.03,8.68,2.75,8.69,2.75,-2.76,-2.79,-2.26,5.93,5.93,5.94
43.46,8.70,2.77,8.70,2.77,-2.78,-2.80,-2.27,5.93,5.93,5.93
43.90,8.72,2.80,8.72,2.80,-2.80,-2.81,-2.28,5.93,5.92,5.92
44.33,8.73,2.82,8.73,2.82,-2.82,-2.82,-2.29,5.92,5.92,5.92
44.78,8.74,2.84,8.74,2.84,-2.84,-2.83,-2.31,5.91,5.91,5.91
45.23,8.75,2.85,8.75,2.85,-2.86,-2.83,-2.33,5.90,5.90,5.90
45.68,8.76,2.87,8.76,2.87,-2.87,-2.84,-2.34,5.89,5.89,5.89
46.13,8.77,2.89,8.78,2.89,-2.89,-2.85,-2.36,5.88,5.88,5.88
46.60,8.78,2.91,8.78,2.91,-2.91,-2.85,-2.39,5.88,5.87,5.88
47.06,8.78,2.92,8.78,2.92,-2.92,-2.86,-2.41,5.87,5.86,5.87
47.53,8.77,2.93,8.78,2.93,-2.93,-2.86,-2.43,5.85,5.85,5.85
48.01,8.77,2.94,8.77,2.94,-2.93,-2.86,-2.46,5.84,5.84,5.84
48.49,8.76,2.94,8.76,2.94,-2.93,-2.87,-2.49,5.83,5.83,5.83
48.97,8.75,2.94,8.75,2.94,-2.93,-2.87,-2.52,5.82,5.82,5.82
49.46,8.73,2.93,8.73,2.93,-2.93,-2.88,-2.55,5.81,5.81,5.80
49.96,8.71,2.92,8.71,2.92,-2.92,-2.88,-2.58,5.79,5.79,5.79
50.46,8.69,2.91,8.69,2.91,-2.92,-2.88,-2.61,5.78,5.78,5.78
50.96,8.67,2.90,8.68,2.90,-2.91,-2.89,-2.65,5.77,5.77,5.77
51.47,8.66,2.90,8.66,2.90,-2.90,-2.89,-2.68,5.76,5.76,5.77
51.99,8.64,2.89,8.64,2.89,-2.89,-2.89,-2.72,5.75,5.75,5.75
52.51,8.62,2.88,8.63,2.89,-2.89,-2.90,-2.75,5.74,5.74,5.74
53.03,8.61,2.89,8.61,2.88,-2.88,-2.90,-2.79,5.73,5.73,5.73
53.56,8.59,2.88,8.59,2.88,-2.88,-2.90,-2.83,5.72,5.72,5.71
54.10,8.57,2.87,8.57,2.87,-2.87,-2.91,-2.86,5.70,5.71,5.71
54.64,8.55,2.86,8.55,2.86,-2.86,-2.91,-2.90,5.69,5.69,5.69
55.18,8.53,2.86,8.53,2.86,-2.86,-2.92,-2.94,5.68,5.68,5.67
55.74,8.51,2.86,8.51,2.85,-2.85,-2.92,-2.97,5.66,5.66,5.66
56.29,8.49,2.84,8.49,2.85,-2.85,-2.92,-3.01,5.64,5.64,5.65
56.86,8.47,2.84,8.48,2.84,-2.85,-2.93,-3.04,5.63,5.63,5.63
57.42,8.46,2.85,8.46,2.84,-2.84,-2.94,-3.07,5.62,5.62,5.61
58.00,8.45,2.85,8.45,2.85,-2.84,-2.94,-3.10,5.61,5.61,5.61
58.58,8.43,2.85,8.44,2.85,-2.85,-2.95,-3.13,5.59,5.59,5.59
59.16,8.42,2.86,8.42,2.85,-2.85,-2.95,-3.16,5.57,5.57,5.57
59.76,8.40,2.85,8.41,2.86,-2.86,-2.96,-3.18,5.55,5.55,5.56
60.35,8.40,2.87,8.40,2.87,-2.87,-2.97,-3.20,5.53,5.53,5.53
60.96,8.39,2.88,8.39,2.88,-2.89,-2.98,-3.22,5.51,5.51,5.51
61.57,8.39,2.91,8.39,2.91,-2.91,-2.99,-3.24,5.48,5.48,5.49
62.18,8.39,2.93,8.39,2.93,-2.94,-3.00,-3.26,5.46,5.46,5.46
62.80,8.40,2.96,8.40,2.96,-2.97,-3.01,-3.27,5.43,5.43,5.44
63.43,8.41,3.00,8.42,3.00,-3.00,-3.02,-3.28,5.41,5.42,5.42
64.07,8.43,3.04,8.43,3.04,-3.04,-3.03,-3.29,5.40,5.40,5.39
64.71,8.44,3.08,8.44,3.08,-3.07,-3.04,-3.30,5.38,5.37,5.36
65.35,8.44,3.11,8.44,3.11,-3.10,-3.05,-3.30,5.35,5.35,5.34
66.01,8.43,3.13,8.44,3.13,-3.12,-3.06,-3.31,5.31,5.31,5.31
66.67,8.42,3.15,8.43,3.15,-3.15,-3.08,-3.31,5.28,5.28,5.28
67.33,8.41,3.16,8.41,3.17,-3.17,-3.09,-3.31,5.25,5.25,5.25
68.01,8.40,3.19,8.40,3.18,-3.18,-3.10,-3.30,5.22,5.22,5.22
68.69,8.38,3.20,8.39,3.20,-3.20,-3.12,-3.30,5.19,5.19,5.19
69.37,8.36,3.21,8.37,3.21,-3.21,-3.13,-3.29,5.15,5.16,5.15
70.07,8.35,3.23,8.35,3.23,-3.22,-3.15,-3.29,5.13,5.13,5.12
70.77,8.32,3.24,8.33,3.23,-3.23,-3.17,-3.28,5.09,5.09,5.09
71.48,8.30,3.24,8.30,3.24,-3.24,-3.18,-3.28,5.06,5.06,5.06
72.19,8.27,3.25,8.28,3.25,-3.26,-3.20,-3.27,5.02,5.02,5.03
72.91,8.25,3.26,8.25,3.26,-3.27,-3.22,-3.26,4.99,4.99,4.99
73.64,8.23,3.28,8.23,3.28,-3.28,-3.24,-3.26,4.95,4.96,4.95
74.38,8.21,3.29,8.22,3.29,-3.29,-3.26,-3.25,4.92,4.92,4.93
75.12,8.20,3.32,8.20,3.31,-3.31,-3.28,-3.25,4.90,4.89,4.89
75.87,8.17,3.32,8.18,3.32,-3.32,-3.30,-3.25,4.85,4.86,4.86
76.63,8.15,3.34,8.16,3.34,-3.33,-3.32,-3.24,4.82,4.82,4.82
77.40,8.13,3.36,8.13,3.35,-3.35,-3.34,-3.24,4.79,4.78,4.77
78.17,8.10,3.36,8.10,3.37,-3.36,-3.37,-3.25,4.74,4.74,4.74
78.95,8.07,3.37,8.08,3.38,-3.38,-3.39,-3.25,4.70,4.70,4.70
79.74,8.05,3.40,8.05,3.39,-3.39,-3.41,-3.25,4.66,4.65,4.66
80.54,8.02,3.40,8.02,3.41,-3.41,-3.44,-3.26,4.61,4.61,4.62
81.35,7.99,3.42,8.00,3.43,-3.43,-3.46,-3.27,4.56,4.57,4.57
82.16,7.98,3.46,7.98,3.45,-3.45,-3.48,-3.28,4.53,4.53,4.53
82.98,7.96,3.48,7.96,3.48,-3.47,-3.51,-3.29,4.49,4.49,4.48
83.81,7.94,3.51,7.94,3.51,-3.50,-3.53,-3.31,4.45,4.44,4.43
84.65,7.91,3.52,7.92,3.53,-3.52,-3.56,-3.33,4.39,4.39,4.39
85.50,7.89,3.55,7.89,3.55,-3.55,-3.59,-3.35,4.34,4.34,4.34
86.35,7.86,3.57,7.87,3.57,-3.58,-3.61,-3.37,4.29,4.29,4.29
87.22,7.84,3.60,7.84,3.60,-3.60,-3.64,-3.40,4.24,4.24,4.24
88.09,7.82,3.63,7.82,3.63,-3.63,-3.67,-3.43,4.19,4.19,4.19
88.97,7.80,3.66,7.80,3.66,-3.66,-3.69,-3.46,4.14,4.14,4.14
89.86,7.78,3.70,7.78,3.70,-3.70,-3.72,-3.49,4.09,4.09,4.09
90.76,7.76,3.73,7.76,3.73,-3.73,-3.75,-3.53,4.03,4.03,4.03
91.66,7.74,3.76,7.74,3.76,-3.77,-3.78,-3.57,3.98,3.98,3.98
92.58,7.72,3.80,7.72,3.80,-3.80,-3.81,-3.61,3.92,3.92,3.93
93.51,7.70,3.83,7.70,3.83,-3.83,-3.84,-3.66,3.87,3.87,3.87
94.44,7.68,3.87,7.68,3.87,-3.86,-3.86,-3.70,3.82,3.82,3.81
95.39,7.66,3.90,7.66,3.90,-3.89,-3.89,-3.75,3.77,3.77,3.76
96.34,7.63,3.93,7.63,3.93,-3.92,-3.92,-3.80,3.71,3.71,3.70
97.30,7.60,3.95,7.60,3.95,-3.95,-3.95,-3.86,3.66,3.65,3.66
98.28,7.56,3.96,7.57,3.97,-3.98,-3.98,-3.91,3.59,3.59,3.60
99.26,7.53,3.99,7.54,3.99,-4.01,-4.01,-3.97,3.53,3.53,3.54
100.25,7.51,4.03,7.51,4.03,-4.04,-4.04,-4.03,3.48,3.47,3.49
101.25,7.49,4.07,7.50,4.07,-4.07,-4.06,-4.09,3.42,3.43,3.43
102.27,7.48,4.11,7.48,4.11,-4.10,-4.09,-4.15,3.38,3.38,3.37
103.29,7.46,4.15,7.46,4.15,-4.14,-4.12,-4.21,3.33,3.33,3.31
104.32,7.44,4.18,7.44,4.18,-4.17,-4.15,-4.27,3.27,3.27,3.26
105.37,7.41,4.21,7.41,4.21,-4.21,-4.18,-4.34,3.20,3.20,3.21
106.42,7.38,4.24,7.39,4.23,-4.24,-4.20,-4.40,3.14,3.14,3.15
107.48,7.36,4.26,7.36,4.27,-4.28,-4.23,-4.46,3.09,3.09,3.10
108.56,7.34,4.30,7.34,4.30,-4.30,-4.26,-4.52,3.04,3.04,3.04
109.64,7.32,4.34,7.32,4.34,-4.33,-4.28,-4.58,3.00,2.99,2.99
110.74,7.29,4.37,7.29,4.36,-4.35,-4.31,-4.64,2.94,2.94,2.93
111.85,7.25,4.38,7.26,4.38,-4.37,-4.33,-4.70,2.88,2.89,2.87
112.97,7.21,4.39,7.21,4.39,-4.39,-4.36,-4.75,2.83,2.82,2.82
114.10,7.16,4.40,7.16,4.40,-4.40,-4.38,-4.80,2.77,2.76,2.77
115.24,7.10,4.39,7.12,4.41,-4.41,-4.40,-4.85,2.69,2.71,2.71
116.39,7.08,4.43,7.08,4.42,-4.42,-4.43,-4.89,2.66,2.65,2.66
117.55,7.04,4.43,7.04,4.43,-4.44,-4.45,-4.93,2.61,2.60,2.61
118.73,6.99,4.44,7.00,4.44,-4.45,-4.47,-4.96,2.54,2.54,2.55
119.92,6.95,4.45,6.96,4.46,-4.47,-4.49,-4.99,2.48,2.49,2.50
121.12,6.93,4.49,6.94,4.49,-4.49,-4.51,-5.02,2.44,2.45,2.45
122.33,6.92,4.52,6.92,4.52,-4.51,-4.53,-5.03,2.41,2.41,2.40
123.55,6.90,4.55,6.90,4.55,-4.53,-4.55,-5.05,2.38,2.37,2.35
124.79,6.86,4.56,6.86,4.56,-4.55,-4.56,-5.05,2.32,2.32,2.31
126.03,6.81,4.56,6.82,4.56,-4.56,-4.58,-5.05,2.25,2.26,2.26
127.29,6.78,4.57,6.78,4.57,-4.58,-4.59,-5.05,2.20,2.20,2.21
128.57,6.74,4.58,6.74,4.58,-4.59,-4.61,-5.03,2.15,2.15,2.16
129.85,6.70,4.59,6.71,4.60,-4.61,-4.62,-5.02,2.10,2.11,2.11
131.15,6.68,4.62,6.69,4.62,-4.62,-4.63,-4.99,2.07,2.07,2.06
132.46,6.66,4.64,6.66,4.64,-4.63,-4.64,-4.96,2.04,2.03,2.03
133.79,6.63,4.65,6.63,4.65,-4.63,-4.65,-4.93,2.00,1.99,1.98
135.12,6.57,4.64,6.58,4.65,-4.64,-4.66,-4.89,1.93,1.94,1.93
136.48,6.53,4.65,6.53,4.64,-4.64,-4.66,-4.85,1.89,1.89,1.89
137.84,6.47,4.63,6.48,4.64,-4.64,-4.67,-4.81,1.83,1.84,1.84
139.22,6.43,4.64,6.43,4.64,-4.64,-4.67,-4.76,1.79,1.79,1.80
140.61,6.39,4.64,6.39,4.63,-4.64,-4.68,-4.71,1.76,1.75,1.75
142.02,6.34,4.62,6.35,4.63,-4.63,-4.68,-4.65,1.71,1.72,1.72
143.44,6.30,4.62,6.31,4.63,-4.62,-4.68,-4.60,1.68,1.68,1.68
144.87,6.26,4.63,6.26,4.62,-4.62,-4.68,-4.54,1.64,1.64,1.64
146.32,6.22,4.62,6.22,4.62,-4.61,-4.68,-4.48,1.61,1.61,1.61
147.78,6.17,4.60,6.18,4.61,-4.61,-4.67,-4.42,1.57,1.57,1.57
149.26,6.13,4.60,6.13,4.60,-4.60,-4.67,-4.37,1.53,1.53,1.53
150.75,6.08,4.58,6.09,4.59,-4.59,-4.66,-4.31,1.49,1.50,1.50
152.26,6.04,4.58,6.05,4.58,-4.58,-4.65,-4.25,1.46,1.46,1.47
153.78,6.01,4.58,6.01,4.57,-4.58,-4.64,-4.19,1.44,1.43,1.43
155.32,5.97,4.57,5.97,4.57,-4.57,-4.63,-4.14,1.41,1.40,1.41
156.88,5.92,4.55,5.93,4.56,-4.56,-4.62,-4.08,1.37,1.37,1.37
158.44,5.89,4.56,5.89,4.55,-4.55,-4.61,-4.03,1.34,1.34,1.34
160.03,5.84,4.54,5.85,4.54,-4.54,-4.59,-3.98,1.31,1.31,1.31
161.63,5.80,4.53,5.81,4.53,-4.53,-4.58,-3.93,1.28,1.28,1.27
163.24,5.77,4.52,5.76,4.51,-4.51,-4.56,-3.88,1.26,1.25,1.25
164.88,5.71,4.49,5.72,4.50,-4.50,-4.54,-3.84,1.21,1.22,1.22
166.53,5.67,4.48,5.68,4.48,-4.49,-4.52,-3.80,1.19,1.19,1.19
168.19,5.64,4.48,5.64,4.47,-4.47,-4.50,-3.76,1.17,1.16,1.17
169.87,5.59,4.45,5.60,4.46,-4.46,-4.48,-3.72,1.14,1.15,1.15
171.57,5.56,4.44,5.56,4.44,-4.44,-4.46,-3.69,1.13,1.13,1.12
173.29,5.52,4.43,5.52,4.42,-4.41,-4.43,-3.66,1.11,1.10,1.10
175.02,5.46,4.39,5.47,4.40,-4.39,-4.41,-3.63,1.07,1.08,1.07
176.77,5.41,4.36,5.42,4.36,-4.36,-4.38,-3.61,1.05,1.05,1.06
178.54,5.36,4.33,5.37,4.33,-4.33,-4.35,-3.58,1.03,1.03,1.03
180.32,5.31,4.31,5.31,4.30,-4.30,-4.32,-3.56,1.01,1.01,1.01
182.13,5.26,4.28,5.25,4.27,-4.27,-4.29,-3.55,0.99,0.98,0.99
183.95,5.18,4.22,5.20,4.23,-4.24,-4.26,-3.53,0.95,0.96,0.96
185.79,5.14,4.20,5.15,4.20,-4.21,-4.23,-3.52,0.94,0.94,0.94
187.65,5.10,4.18,5.10,4.17,-4.18,-4.20,-3.51,0.93,0.92,0.92
189.52,5.05,4.15,5.05,4.15,-4.15,-4.16,-3.50,0.90,0.90,0.90
191.42,5.00,4.12,5.01,4.12,-4.12,-4.13,-3.50,0.88,0.88,0.88
193.33,4.96,4.10,4.96,4.10,-4.10,-4.09,-3.50,0.86,0.86,0.87
195.27,4.92,4.08,4.92,4.08,-4.08,-4.06,-3.50,0.85,0.84,0.85
197.22,4.88,4.05,4.88,4.05,-4.06,-4.02,-3.50,0.83,0.83,0.83
199.19,4.84,4.03,4.85,4.03,-4.03,-3.98,-3.50,0.81,0.82,0.81
201.18,4.81,4.01,4.81,4.01,-4.00,-3.95,-3.51,0.81,0.81,0.81
203.19,4.78,3.99,4.78,3.98,-3.98,-3.91,-3.52,0.81,0.80,0.79
205.23,4.73,3.95,4.73,3.95,-3.95,-3.87,-3.53,0.79,0.79,0.79
207.28,4.68,3.91,4.68,3.91,-3.91,-3.83,-3.54,0.77,0.77,0.77
209.35,4.63,3.88,4.63,3.87,-3.88,-3.79,-3.55,0.75,0.76,0.76
211.44,4.58,3.83,4.59,3.84,-3.84,-3.75,-3.56,0.74,0.75,0.75
213.56,4.54,3.80,4.54,3.80,-3.80,-3.70,-3.57,0.75,0.74,0.74
215.69,4.49,3.77,4.49,3.76,-3.75,-3.66,-3.58,0.74,0.73,0.73
217.85,4.42,3.71,4.44,3.72,-3.71,-3.62,-3.59,0.71,0.73,0.72
220.03,4.38,3.67,4.38,3.67,-3.66,-3.58,-3.60,0.72,0.71,0.71
222.23,4.32,3.62,4.32,3.62,-3.62,-3.53,-3.61,0.70,0.70,0.70
224.45,4.25,3.56,4.26,3.57,-3.58,-3.49,-3.62,0.68,0.68,0.69
226.70,4.20,3.52,4.20,3.52,-3.53,-3.45,-3.63,0.67,0.67,0.68
228.96,4.15,3.47,4.16,3.48,-3.49,-3.40,-3.63,0.67,0.67,0.68
231.25,4.12,3.45,4.12,3.45,-3.44,-3.36,-3.63,0.68,0.67,0.67
233.57,4.07,3.41,4.07,3.41,-3.40,-3.31,-3.63,0.67,0.67,0.66
235.90,4.01,3.35,4.02,3.36,-3.36,-3.27,-3.63,0.65,0.66,0.66
238.26,3.97,3.32,3.97,3.32,-3.32,-3.22,-3.62,0.65,0.65,0.65
240.64,3.92,3.27,3.93,3.28,-3.28,-3.18,-3.61,0.65,0.65,0.65
243.05,3.89,3.24,3.89,3.24,-3.23,-3.13,-3.60,0.66,0.66,0.65
245.48,3.85,3.20,3.85,3.19,-3.19,-3.09,-3.58,0.67,0.66,0.66
247.93,3.79,3.14,3.80,3.15,-3.14,-3.04,-3.56,0.65,0.66,0.65
250.41,3.75,3.10,3.74,3.09,-3.10,-3.00,-3.53,0.66,0.65,0.65
252.92,3.68,3.03,3.69,3.04,-3.05,-2.95,-3.50,0.63,0.64,0.65
255.45,3.64,2.99,3.65,2.99,-3.00,-2.90,-3.46,0.64,0.64,0.66
258.00,3.61,2.96,3.61,2.96,-2.96,-2.86,-3.43,0.66,0.65,0.65
260.58,3.57,2.92,3.57,2.92,-2.91,-2.81,-3.38,0.67,0.66,0.65
263.19,3.52,2.88,3.52,2.87,-2.86,-2.77,-3.34,0.67,0.66,0.65
265.82,3.45,2.81,3.46,2.81,-2.81,-2.72,-3.29,0.65,0.65,0.64
268.48,3.39,2.75,3.40,2.75,-2.76,-2.68,-3.23,0.64,0.64,0.65
271.16,3.34,2.70,3.34,2.69,-2.71,-2.63,-3.18,0.64,0.63,0.64
273.87,3.27,2.64,3.28,2.64,-2.65,-2.58,-3.12,0.62,0.63,0.64
276.61,3.23,2.59,3.24,2.60,-2.60,-2.54,-3.05,0.64,0.64,0.64
279.38,3.19,2.56,3.19,2.55,-2.54,-2.49,-2.99,0.65,0.65,0.64
282.17,3.14,2.50,3.14,2.50,-2.48,-2.45,-2.92,0.66,0.65,0.64
284.99,3.07,2.44,3.07,2.43,-2.43,-2.40,-2.85,0.64,0.64,0.64
287.84,2.99,2.36,3.00,2.37,-2.38,-2.36,-2.78,0.62,0.62,0.63
290.72,2.93,2.31,2.94,2.31,-2.32,-2.31,-2.71,0.61,0.61,0.63
293.63,2.88,2.26,2.89,2.26,-2.27,-2.27,-2.63,0.61,0.62,0.62
296.57,2.84,2.22,2.84,2.22,-2.21,-2.22,-2.56,0.63,0.63,0.62
299.53,2.80,2.18,2.80,2.17,-2.16,-2.18,-2.48,0.64,0.63,0.63
302.53,2.74,2.12,2.74,2.12,-2.11,-2.13,-2.41,0.63,0.63,0.62
305.55,2.68,2.06,2.69,2.06,-2.06,-2.09,-2.33,0.62,0.62,0.62
308.61,2.63,2.01,2.63,2.01,-2.02,-2.04,-2.25,0.62,0.61,0.63
311.69,2.58,1.96,2.59,1.96,-1.97,-2.00,-2.18,0.62,0.62,0.62
314.81,2.54,1.91,2.55,1.92,-1.92,-1.96,-2.10,0.62,0.63,0.63
317.96,2.51,1.89,2.51,1.88,-1.87,-1.91,-2.03,0.64,0.63,0.63
321.14,2.46,1.83,2.46,1.83,-1.83,-1.87,-1.95,0.64,0.64,0.63
324.35,2.41,1.78,2.41,1.78,-1.78,-1.82,-1.88,0.63,0.63,0.63
327.59,2.36,1.73,2.37,1.73,-1.74,-1.78,-1.80,0.62,0.63,0.63
330.87,2.32,1.69,2.33,1.69,-1.69,-1.74,-1.73,0.63,0.63,0.64
334.18,2.29,1.65,2.29,1.65,-1.65,-1.69,-1.66,0.65,0.64,0.64
337.52,2.25,1.61,2.25,1.60,-1.60,-1.65,-1.58,0.66,0.65,0.64
340.90,2.20,1.55,2.20,1.56,-1.55,-1.61,-1.51,0.66,0.66,0.65
344.30,2.14,1.50,2.15,1.50,-1.50,-1.56,-1.44,0.65,0.65,0.65
347.75,2.09,1.45,2.09,1.44,-1.44,-1.52,-1.38,0.65,0.65,0.65
351.23,2.03,1.39,2.03,1.39,-1.39,-1.47,-1.31,0.64,0.64,0.64
354.74,1.98,1.33,1.98,1.33,-1.34,-1.43,-1.24,0.64,0.64,0.65
358.28,1.92,1.27,1.93,1.28,-1.29,-1.39,-1.17,0.64,0.64,0.65
361.87,1.88,1.24,1.88,1.23,-1.24,-1.34,-1.11,0.65,0.65,0.65
365.49,1.84,1.20,1.84,1.19,-1.18,-1.30,-1.04,0.66,0.65,0.65
369.14,1.78,1.14,1.79,1.14,-1.13,-1.26,-0.98,0.65,0.65,0.64
372.83,1.73,1.09,1.73,1.09,-1.09,-1.21,-0.92,0.65,0.65,0.64
376.56,1.68,1.03,1.68,1.03,-1.04,-1.17,-0.86,0.64,0.64,0.65
380.33,1.63,0.98,1.64,0.99,-0.99,-1.13,-0.80,0.64,0.64,0.65
384.13,1.59,0.94,1.59,0.94,-0.95,-1.08,-0.74,0.65,0.65,0.65
387.97,1.55,0.91,1.55,0.90,-0.90,-1.04,-0.68,0.65,0.65,0.65
391.85,1.51,0.86,1.51,0.86,-0.86,-1.00,-0.62,0.65,0.65,0.66
395.77,1.47,0.82,1.48,0.82,-0.82,-0.95,-0.56,0.65,0.66,0.66
399.73,1.44,0.78,1.44,0.78,-0.78,-0.91,-0.51,0.67,0.66,0.66
403.72,1.40,0.74,1.40,0.74,-0.73,-0.86,-0.45,0.67,0.67,0.66
407.76,1.36,0.69,1.37,0.70,-0.69,-0.82,-0.40,0.68,0.68,0.67
411.84,1.32,0.65,1.32,0.65,-0.64,-0.78,-0.35,0.68,0.68,0.67
415.96,1.27,0.59,1.27,0.60,-0.60,-0.73,-0.30,0.68,0.68,0.68
420.12,1.22,0.55,1.22,0.55,-0.55,-0.69,-0.25,0.67,0.67,0.68
424.32,1.17,0.50,1.18,0.50,-0.51,-0.64,-0.20,0.66,0.67,0.68
428.56,1.14,0.46,1.14,0.46,-0.47,-0.60,-0.15,0.67,0.67,0.69
432.85,1.11,0.43,1.11,0.43,-0.43,-0.55,-0.10,0.68,0.68,0.69
437.18,1.08,0.40,1.09,0.40,-0.39,-0.51,-0.06,0.69,0.69,0.69
441.55,1.05,0.37,1.05,0.37,-0.35,-0.46,-0.01,0.70,0.70,0.68
445.96,1.01,0.33,1.01,0.33,-0.31,-0.42,0.03,0.70,0.70,0.68
450.42,0.96,0.28,0.96,0.28,-0.28,-0.37,0.07,0.69,0.69,0.68
454.93,0.91,0.23,0.92,0.24,-0.24,-0.33,0.11,0.68,0.68,0.68
459.48,0.87,0.19,0.87,0.19,-0.20,-0.28,0.15,0.68,0.68,0.68
464.07,0.83,0.15,0.83,0.15,-0.16,-0.24,0.18,0.67,0.67,0.68
468.71,0.79,0.11,0.80,0.12,-0.12,-0.19,0.21,0.67,0.67,0.68
473.40,0.76,0.08,0.77,0.08,-0.09,-0.15,0.25,0.67,0.67,0.68
478.13,0.74,0.05,0.74,0.06,-0.06,-0.10,0.27,0.68,0.68,0.69
482.91,0.72,0.04,0.73,0.04,-0.03,-0.06,0.30,0.69,0.69,0.69
487.74,0.71,0.03,0.71,0.02,-0.01,-0.01,0.33,0.71,0.70,0.69
492.62,0.68,-0.00,0.68,-0.01,0.02,0.03,0.35,0.71,0.70,0.69
497.55,0.64,-0.05,0.65,-0.04,0.05,0.08,0.37,0.69,0.70,0.70
502.52,0.61,-0.08,0.61,-0.08,0.08,0.12,0.39,0.69,0.69,0.70
507.55,0.58,-0.11,0.58,-0.12,0.11,0.17,0.40,0.69,0.69,0.70
512.62,0.55,-0.14,0.55,-0.14,0.14,0.21,0.42,0.69,0.69,0.70
517.75,0.52,-0.18,0.53,-0.18,0.17,0.26,0.43,0.70,0.70,0.71
522.93,0.50,-0.20,0.50,-0.20,0.20,0.30,0.44,0.71,0.70,0.71
528.16,0.47,-0.23,0.48,-0.23,0.23,0.34,0.45,0.70,0.71,0.70
533.44,0.45,-0.25,0.45,-0.26,0.26,0.38,0.46,0.71,0.71,0.70
538.77,0.42,-0.29,0.42,-0.29,0.29,0.42,0.46,0.71,0.71,0.71
544.16,0.39,-0.32,0.40,-0.31,0.32,0.46,0.46,0.71,0.72,0.71
549.60,0.37,-0.34,0.37,-0.34,0.35,0.50,0.46,0.72,0.72,0.71
