frequency,raw,error,smoothed,error_smoothed,equalization,parametric_eq,fixed_band_eq,equalized_raw,equalized_smoothed,target
20.00,-7.87,-5.19,-7.87,-5.19,5.18,4.18,0.45,-2.69,-2.69,-2.69
20.20,-7.74,-5.07,-7.74,-5.07,5.06,4.24,0.47,-2.68,-2.68,-2.68
20.40,-7.61,-4.95,-7.61,-4.94,4.95,4.28,0.48,-2.67,-2.67,-2.67
20.61,-7.49,-4.82,-7.49,-4.82,4.83,4.31,0.50,-2.66,-2.66,-2.67
20.81,-7.36,-4.71,-7.36,-4.70,4.71,4.31,0.51,-2.65,-2.65,-2.66
21.02,-7.23,-4.58,-7.24,-4.58,4.59,4.30,0.53,-2.64,-2.64,-2.66
21.23,-7.11,-4.47,-7.12,-4.47,4.47,4.28,0.55,-2.64,-2.64,-2.65
21.44,-7.00,-4.36,-7.00,-4.35,4.36,4.24,0.56,-2.65,-2.64,-2.65
21.66,-6.88,-4.24,-6.89,-4.24,4.24,4.18,0.58,-2.64,-2.64,-2.65
21.87,-6.77,-4.13,-6.77,-4.13,4.13,4.10,0.60,-2.65,-2.64,-2.65
22.09,-6.65,-4.02,-6.65,-4.01,4.01,4.01,0.62,-2.64,-2.64,-2.64
22.31,-6.53,-3.90,-6.53,-3.89,3.89,3.91,0.64,-2.64,-2.64,-2.64
22.54,-6.42,-3.77,-6.41,-3.77,3.77,3.80,0.66,-2.65,-2.65,-2.65
22.76,-6.29,-3.64,-6.29,-3.64,3.64,3.69,0.68,-2.65,-2.65,-2.66
22.99,-6.17,-3.52,-6.17,-3.51,3.51,3.56,0.70,-2.66,-2.65,-2.66
23.22,-6.04,-3.39,-6.04,-3.38,3.39,3.43,0.73,-2.66,-2.66,-2.66
23.45,-5.91,-3.25,-5.92,-3.26,3.25,3.30,0.75,-2.66,-2.66,-2.67
23.69,-5.80,-3.13,-5.79,-3.12,3.12,3.16,0.77,-2.67,-2.67,-2.67
23.92,-5.66,-3.00,-5.66,-3.00,2.99,3.02,0.79,-2.67,-2.67,-2.67
24.16,-5.53,-2.87,-5.54,-2.87,2.86,2.88,0.82,-2.67,-2.68,-2.67
24.40,-5.41,-2.75,-5.40,-2.74,2.74,2.74,0.84,-2.67,-2.66,-2.67
24.65,-5.28,-2.62,-5.28,-2.61,2.63,2.61,0.87,-2.65,-2.65,-2.67
24.89,-5.15,-2.49,-5.16,-2.50,2.53,2.47,0.89,-2.62,-2.64,-2.67
25.14,-5.06,-2.40,-5.07,-2.40,2.43,2.34,0.91,-2.63,-2.64,-2.67
25.39,-5.00,-2.33,-5.00,-2.33,2.34,2.21,0.94,-2.67,-2.66,-2.68
25.65,-4.93,-2.26,-4.93,-2.26,2.24,2.08,0.96,-2.69,-2.69,-2.68
25.91,-4.86,-2.19,-4.86,-2.18,2.15,1.96,0.98,-2.72,-2.71,-2.68
26.16,-4.76,-2.09,-4.76,-2.08,2.05,1.84,1.00,-2.71,-2.71,-2.68
26.43,-4.64,-1.96,-4.64,-1.96,1.95,1.72,1.02,-2.69,-2.69,-2.68
26.69,-4.51,-1.84,-4.51,-1.84,1.84,1.61,1.04,-2.68,-2.68,-2.68
26.96,-4.38,-1.71,-4.39,-1.71,1.72,1.50,1.06,-2.66,-2.67,-2.68
27.23,-4.27,-1.60,-4.27,-1.60,1.61,1.39,1.08,-2.66,-2.66,-2.68
27.50,-4.16,-1.49,-4.16,-1.48,1.50,1.29,1.10,-2.66,-2.66,-2.68
27.77,-4.05,-1.38,-4.05,-1.38,1.40,1.19,1.11,-2.65,-2.66,-2.68
28.05,-3.95,-1.28,-3.96,-1.28,1.30,1.10,1.12,-2.65,-2.66,-2.68
28.33,-3.87,-1.20,-3.87,-1.20,1.20,1.00,1.13,-2.67,-2.67,-2.68
28.62,-3.79,-1.12,-3.79,-1.12,1.10,0.91,1.14,-2.69,-2.69,-2.68
28.90,-3.71,-1.05,-3.71,-1.04,1.00,0.83,1.15,-2.71,-2.70,-2.67
29.19,-3.60,-0.94,-3.60,-0.93,0.91,0.74,1.15,-2.70,-2.69,-2.67
29.48,-3.47,-0.81,-3.47,-0.81,0.81,0.66,1.15,-2.66,-2.66,-2.67
29.78,-3.34,-0.69,-3.35,-0.69,0.71,0.58,1.15,-2.63,-2.64,-2.66
30.08,-3.24,-0.58,-3.24,-0.59,0.61,0.51,1.14,-2.62,-2.63,-2.66
30.38,-3.15,-0.50,-3.15,-0.50,0.52,0.43,1.13,-2.64,-2.64,-2.66
30.68,-3.07,-0.42,-3.07,-0.42,0.42,0.36,1.12,-2.65,-2.65,-2.66
30.99,-2.99,-0.34,-2.99,-0.34,0.33,0.29,1.10,-2.67,-2.66,-2.66
31.30,-2.90,-0.25,-2.90,-0.25,0.24,0.22,1.08,-2.67,-2.67,-2.66
31.61,-2.81,-0.16,-2.82,-0.16,0.15,0.15,1.05,-2.66,-2.67,-2.66
31.93,-2.72,-0.07,-2.72,-0.06,0.06,0.09,1.03,-2.66,-2.66,-2.66
32.24,-2.63,0.03,-2.63,0.03,-0.03,0.03,0.99,-2.66,-2.66,-2.67
32.57,-2.53,0.13,-2.54,0.13,-0.12,-0.04,0.96,-2.66,-2.66,-2.67
32.89,-2.44,0.22,-2.44,0.23,-0.22,-0.10,0.92,-2.66,-2.66,-2.67
33.22,-2.35,0.32,-2.35,0.32,-0.32,-0.16,0.88,-2.67,-2.67,-2.68
33.55,-2.26,0.41,-2.26,0.41,-0.42,-0.21,0.83,-2.68,-2.69,-2.68
33.89,-2.17,0.51,-2.17,0.51,-0.52,-0.27,0.78,-2.69,-2.69,-2.69
34.23,-2.07,0.61,-2.07,0.62,-0.62,-0.33,0.73,-2.69,-2.69,-2.69
34.57,-1.96,0.72,-1.97,0.72,-0.71,-0.38,0.67,-2.68,-2.68,-2.69
34.92,-1.86,0.82,-1.87,0.82,-0.81,-0.44,0.62,-2.67,-2.67,-2.69
35.27,-1.77,0.91,-1.78,0.91,-0.90,-0.49,0.55,-2.68,-2.68,-2.69
35.62,-1.69,0.99,-1.69,0.99,-0.99,-0.54,0.49,-2.69,-2.68,-2.69
35.97,-1.61,1.07,-1.61,1.08,-1.08,-0.60,0.43,-2.69,-2.69,-2.69
36.33,-1.52,1.16,-1.53,1.16,-1.17,-0.65,0.36,-2.69,-2.70,-2.69
36.70,-1.44,1.24,-1.44,1.25,-1.25,-0.70,0.29,-2.70,-2.69,-2.69
37.06,-1.35,1.33,-1.35,1.33,-1.33,-0.75,0.22,-2.68,-2.68,-2.69
37.43,-1.26,1.42,-1.26,1.42,-1.41,-0.80,0.15,-2.67,-2.67,-2.69
37.81,-1.18,1.49,-1.18,1.50,-1.49,-0.85,0.07,-2.67,-2.67,-2.68
38.19,-1.10,1.57,-1.11,1.56,-1.56,-0.90,-0.00,-2.67,-2.67,-2.68
38.57,-1.04,1.63,-1.05,1.62,-1.63,-0.95,-0.08,-2.68,-2.68,-2.68
38.95,-0.99,1.67,-0.98,1.69,-1.70,-0.99,-0.16,-2.69,-2.68,-2.67
39.34,-0.91,1.75,-0.91,1.76,-1.76,-1.04,-0.24,-2.67,-2.67,-2.67
39.74,-0.82,1.84,-0.83,1.83,-1.82,-1.09,-0.32,-2.64,-2.65,-2.67
40.14,-0.76,1.90,-0.77,1.89,-1.87,-1.14,-0.40,-2.63,-2.64,-2.67
40.54,-0.73,1.93,-0.73,1.93,-1.92,-1.19,-0.48,-2.66,-2.65,-2.67
40.94,-0.70,1.96,-0.70,1.97,-1.98,-1.24,-0.57,-2.68,-2.68,-2.67
41.35,-0.65,2.01,-0.66,2.01,-2.04,-1.28,-0.65,-2.69,-2.70,-2.67
41.76,-0.60,2.07,-0.60,2.07,-2.10,-1.33,-0.74,-2.70,-2.70,-2.68
42.18,-0.54,2.13,-0.54,2.14,-2.15,-1.38,-0.82,-2.69,-2.69,-2.68
42.60,-0.46,2.21,-0.47,2.21,-2.20,-1.43,-0.91,-2.66,-2.67,-2.68
43.03,-0.39,2.28,-0.40,2.28,-2.25,-1.47,-1.00,-2.64,-2.65,-2.68
43.46,-0.34,2.33,-0.34,2.34,-2.30,-1.52,-1.09,-2.64,-2.64,-2.68
43.90,-0.30,2.38,-0.31,2.37,-2.35,-1.57,-1.18,-2.65,-2.66,-2.69
44.33,-0.29,2.39,-0.30,2.38,-2.40,-1.62,-1.27,-2.69,-2.70,-2.69
44.78,-0.29,2.39,-0.28,2.41,-2.44,-1.67,-1.36,-2.74,-2.72,-2.69
45.23,-0.24,2.44,-0.23,2.45,-2.49,-1.71,-1.45,-2.73,-2.72,-2.69
45.68,-0.15,2.53,-0.16,2.52,-2.53,-1.76,-1.55,-2.68,-2.70,-2.69
46.13,-0.08,2.59,-0.09,2.59,-2.58,-1.81,-1.64,-2.66,-2.67,-2.68
46.60,-0.03,2.64,-0.03,2.64,-2.63,-1.86,-1.74,-2.66,-2.66,-2.68
47.06,0.02,2.68,0.02,2.68,-2.67,-1.91,-1.83,-2.66,-2.66,-2.67
47.53,0.06,2.71,0.06,2.72,-2.72,-1.96,-1.93,-2.66,-2.66,-2.66
48.01,0.11,2.75,0.11,2.76,-2.75,-2.01,-2.03,-2.65,-2.64,-2.65
48.49,0.16,2.79,0.16,2.79,-2.78,-2.06,-2.13,-2.62,-2.62,-2.64
48.97,0.21,2.83,0.19,2.81,-2.80,-2.11,-2.22,-2.60,-2.61,-2.63
49.46,0.21,2.82,0.21,2.82,-2.82,-2.16,-2.32,-2.61,-2.61,-2.62
49.96,0.21,2.80,0.23,2.83,-2.84,-2.21,-2.42,-2.63,-2.61,-2.60
50.46,0.26,2.84,0.25,2.84,-2.86,-2.26,-2.52,-2.60,-2.60,-2.59
50.96,0.31,2.87,0.29,2.86,-2.87,-2.31,-2.62,-2.57,-2.58,-2.57
51.47,0.33,2.88,0.33,2.89,-2.88,-2.37,-2.72,-2.56,-2.55,-2.56
51.99,0.36,2.90,0.36,2.91,-2.89,-2.42,-2.82,-2.54,-2.53,-2.55
52.51,0.39,2.92,0.38,2.92,-2.90,-2.47,-2.92,-2.51,-2.52,-2.54
53.03,0.41,2.93,0.40,2.93,-2.91,-2.52,-3.02,-2.50,-2.51,-2.53
53.56,0.41,2.92,0.41,2.92,-2.92,-2.57,-3.11,-2.51,-2.51,-2.52
54.10,0.41,2.90,0.40,2.90,-2.92,-2.63,-3.21,-2.51,-2.52,-2.50
54.64,0.41,2.89,0.41,2.90,-2.92,-2.68,-3.30,-2.51,-2.51,-2.49
55.18,0.43,2.90,0.44,2.92,-2.92,-2.74,-3.39,-2.49,-2.48,-2.48
55.74,0.48,2.95,0.47,2.94,-2.92,-2.79,-3.48,-2.45,-2.45,-2.48
56.29,0.51,2.97,0.50,2.96,-2.93,-2.84,-3.56,-2.43,-2.44,-2.47
56.86,0.51,2.96,0.50,2.96,-2.95,-2.90,-3.65,-2.45,-2.45,-2.46
57.42,0.51,2.96,0.51,2.96,-2.99,-2.95,-3.73,-2.48,-2.48,-2.46
58.00,0.51,2.96,0.53,2.98,-3.03,-3.01,-3.80,-2.52,-2.50,-2.46
58.58,0.59,3.04,0.59,3.04,-3.07,-3.06,-3.87,-2.49,-2.49,-2.46
59.16,0.67,3.12,0.67,3.13,-3.12,-3.12,-3.94,-2.46,-2.45,-2.46
59.76,0.77,3.22,0.74,3.20,-3.18,-3.17,-4.00,-2.41,-2.43,-2.46
60.35,0.81,3.27,0.80,3.26,-3.24,-3.23,-4.05,-2.43,-2.44,-2.47
60.96,0.81,3.28,0.84,3.31,-3.30,-3.29,-4.11,-2.49,-2.46,-2.48
61.57,0.87,3.35,0.86,3.35,-3.35,-3.34,-4.15,-2.48,-2.49,-2.49
62.18,0.91,3.41,0.89,3.40,-3.40,-3.40,-4.19,-2.49,-2.51,-2.51
62.80,0.91,3.43,0.91,3.44,-3.43,-3.45,-4.23,-2.53,-2.52,-2.53
63.43,0.91,3.46,0.91,3.46,-3.46,-3.51,-4.26,-2.55,-2.55,-2.56
64.07,0.91,3.48,0.91,3.48,-3.49,-3.57,-4.28,-2.58,-2.58,-2.58
64.71,0.91,3.51,0.91,3.51,-3.51,-3.62,-4.30,-2.61,-2.61,-2.61
65.35,0.91,3.53,0.91,3.53,-3.53,-3.68,-4.31,-2.63,-2.63,-2.63
66.01,0.91,3.55,0.91,3.55,-3.55,-3.74,-4.32,-2.65,-2.65,-2.65
66.67,0.91,3.57,0.90,3.57,-3.57,-3.79,-4.33,-2.66,-2.67,-2.67
67.33,0.91,3.58,0.91,3.59,-3.58,-3.85,-4.33,-2.68,-2.68,-2.68
68.01,0.91,3.60,0.92,3.61,-3.60,-3.90,-4.32,-2.69,-2.68,-2.70
68.69,0.93,3.63,0.92,3.62,-3.61,-3.96,-4.32,-2.69,-2.69,-2.71
69.37,0.93,3.64,0.92,3.63,-3.62,-4.01,-4.31,-2.70,-2.71,-2.72
70.07,0.91,3.63,0.91,3.64,-3.64,-4.07,-4.30,-2.73,-2.73,-2.73
70.77,0.91,3.64,0.92,3.65,-3.66,-4.12,-4.28,-2.75,-2.74,-2.74
71.48,0.95,3.68,0.95,3.68,-3.69,-4.17,-4.27,-2.75,-2.75,-2.74
72.19,1.00,3.74,0.98,3.72,-3.73,-4.23,-4.25,-2.74,-2.76,-2.75
72.91,1.01,3.76,1.01,3.76,-3.78,-4.28,-4.24,-2.78,-2.78,-2.76
73.64,1.04,3.80,1.06,3.82,-3.84,-4.33,-4.22,-2.81,-2.79,-2.77
74.38,1.12,3.89,1.13,3.90,-3.91,-4.38,-4.20,-2.79,-2.78,-2.78
75.12,1.22,4.00,1.21,3.99,-3.97,-4.43,-4.18,-2.76,-2.77,-2.79
75.87,1.30,4.10,1.27,4.07,-4.05,-4.48,-4.17,-2.75,-2.77,-2.81
76.63,1.31,4.12,1.33,4.14,-4.12,-4.53,-4.15,-2.81,-2.80,-2.82
77.40,1.35,4.18,1.35,4.19,-4.20,-4.58,-4.14,-2.85,-2.84,-2.84
78.17,1.42,4.26,1.39,4.24,-4.27,-4.62,-4.13,-2.85,-2.88,-2.85
78.95,1.42,4.28,1.45,4.31,-4.34,-4.67,-4.12,-2.92,-2.88,-2.87
79.74,1.52,4.39,1.52,4.39,-4.39,-4.71,-4.11,-2.87,-2.88,-2.88
80.54,1.59,4.48,1.57,4.46,-4.44,-4.75,-4.10,-2.85,-2.87,-2.90
81.35,1.62,4.52,1.61,4.52,-4.48,-4.80,-4.10,-2.87,-2.87,-2.91
82.16,1.62,4.53,1.62,4.54,-4.52,-4.84,-4.10,-2.90,-2.90,-2.92
82.98,1.62,4.54,1.62,4.54,-4.54,-4.87,-4.10,-2.93,-2.92,-2.93
83.81,1.62,4.55,1.62,4.55,-4.56,-4.91,-4.10,-2.94,-2.94,-2.94
84.65,1.62,4.55,1.62,4.56,-4.56,-4.95,-4.11,-2.95,-2.94,-2.94
85.50,1.63,4.57,1.63,4.57,-4.57,-4.98,-4.12,-2.94,-2.94,-2.95
86.35,1.64,4.59,1.63,4.58,-4.58,-5.01,-4.14,-2.94,-2.95,-2.96
87.22,1.62,4.58,1.62,4.58,-4.60,-5.04,-4.15,-2.98,-2.98,-2.97
88.09,1.62,4.59,1.61,4.59,-4.63,-5.07,-4.18,-3.01,-3.01,-2.98
88.97,1.62,4.59,1.64,4.62,-4.66,-5.09,-4.20,-3.04,-3.02,-2.98
89.86,1.70,4.68,1.70,4.69,-4.69,-5.12,-4.23,-3.00,-2.99,-2.99
90.76,1.79,4.78,1.76,4.75,-4.73,-5.14,-4.26,-2.94,-2.96,-3.00
91.66,1.82,4.81,1.81,4.81,-4.76,-5.16,-4.29,-2.94,-2.95,-3.00
92.58,1.83,4.82,1.83,4.83,-4.80,-5.18,-4.33,-2.97,-2.96,-3.00
93.51,1.83,4.83,1.83,4.83,-4.83,-5.19,-4.37,-3.00,-3.00,-3.01
94.44,1.83,4.83,1.82,4.82,-4.86,-5.21,-4.41,-3.03,-3.04,-3.01
95.39,1.82,4.82,1.83,4.84,-4.87,-5.22,-4.46,-3.06,-3.04,-3.01
96.34,1.85,4.85,1.86,4.87,-4.88,-5.23,-4.50,-3.03,-3.02,-3.01
97.30,1.92,4.92,1.89,4.90,-4.88,-5.24,-4.56,-2.96,-2.99,-3.01
98.28,1.91,4.92,1.90,4.92,-4.88,-5.24,-4.61,-2.97,-2.98,-3.02
99.26,1.89,4.90,1.89,4.91,-4.88,-5.24,-4.67,-3.00,-2.99,-3.02
100.25,1.87,4.88,1.87,4.88,-4.89,-5.24,-4.72,-3.02,-3.02,-3.02
101.25,1.85,4.86,1.85,4.87,-4.89,-5.24,-4.78,-3.04,-3.04,-3.02
102.27,1.84,4.86,1.83,4.86,-4.89,-5.24,-4.84,-3.05,-3.06,-3.03
103.29,1.83,4.86,1.84,4.87,-4.89,-5.23,-4.91,-3.06,-3.05,-3.04
104.32,1.84,4.88,1.85,4.89,-4.89,-5.22,-4.97,-3.05,-3.04,-3.05
105.37,1.88,4.92,1.86,4.91,-4.89,-5.22,-5.03,-3.01,-3.03,-3.05
106.42,1.86,4.91,1.86,4.91,-4.89,-5.20,-5.10,-3.03,-3.03,-3.06
107.48,1.84,4.90,1.84,4.90,-4.89,-5.19,-5.16,-3.05,-3.05,-3.07
108.56,1.81,4.88,1.81,4.89,-4.88,-5.17,-5.22,-3.07,-3.07,-3.08
109.64,1.79,4.87,1.79,4.87,-4.87,-5.16,-5.28,-3.08,-3.08,-3.09
110.74,1.78,4.86,1.77,4.86,-4.86,-5.14,-5.34,-3.08,-3.09,-3.09
111.85,1.76,4.84,1.76,4.84,-4.85,-5.12,-5.39,-3.09,-3.09,-3.09
112.97,1.75,4.83,1.74,4.83,-4.84,-5.09,-5.45,-3.10,-3.10,-3.09
114.10,1.74,4.82,1.74,4.82,-4.84,-5.07,-5.49,-3.11,-3.10,-3.09
115.24,1.75,4.82,1.76,4.84,-4.85,-5.05,-5.54,-3.11,-3.09,-3.08
116.39,1.81,4.88,1.80,4.87,-4.87,-5.02,-5.58,-3.06,-3.07,-3.08
117.55,1.85,4.90,1.82,4.88,-4.88,-4.99,-5.61,-3.04,-3.06,-3.06
118.73,1.85,4.89,1.86,4.91,-4.90,-4.96,-5.64,-3.06,-3.04,-3.05
119.92,1.88,4.90,1.90,4.92,-4.92,-4.93,-5.66,-3.04,-3.02,-3.03
121.12,1.97,4.97,1.93,4.94,-4.93,-4.90,-5.67,-2.97,-3.00,-3.01
122.33,1.97,4.95,1.97,4.95,-4.94,-4.87,-5.68,-2.97,-2.97,-2.99
123.55,1.98,4.94,1.99,4.95,-4.94,-4.84,-5.68,-2.96,-2.95,-2.97
124.79,1.99,4.93,1.99,4.93,-4.93,-4.80,-5.67,-2.95,-2.95,-2.95
126.03,2.00,4.92,1.99,4.92,-4.92,-4.77,-5.66,-2.93,-2.93,-2.93
127.29,2.00,4.90,2.00,4.90,-4.91,-4.74,-5.64,-2.92,-2.91,-2.91
128.57,2.01,4.89,2.00,4.89,-4.90,-4.70,-5.61,-2.89,-2.90,-2.89
129.85,2.01,4.87,2.01,4.87,-4.89,-4.67,-5.57,-2.88,-2.88,-2.87
131.15,2.02,4.86,2.01,4.86,-4.87,-4.63,-5.52,-2.85,-2.85,-2.85
132.46,2.02,4.85,2.02,4.85,-4.85,-4.60,-5.47,-2.83,-2.82,-2.84
133.79,2.03,4.84,2.03,4.84,-4.82,-4.56,-5.42,-2.80,-2.79,-2.82
135.12,2.03,4.83,2.01,4.82,-4.80,-4.52,-5.35,-2.77,-2.78,-2.81
136.48,2.00,4.78,1.99,4.78,-4.77,-4.49,-5.28,-2.77,-2.78,-2.79
137.84,1.95,4.72,1.96,4.74,-4.75,-4.45,-5.21,-2.80,-2.79,-2.78
139.22,1.94,4.70,1.94,4.70,-4.73,-4.42,-5.13,-2.79,-2.79,-2.77
140.61,1.94,4.69,1.93,4.69,-4.71,-4.39,-5.05,-2.77,-2.78,-2.76
142.02,1.94,4.68,1.94,4.68,-4.70,-4.35,-4.97,-2.76,-2.76,-2.75
143.44,1.94,4.68,1.94,4.68,-4.68,-4.32,-4.88,-2.75,-2.75,-2.75
144.87,1.94,4.68,1.94,4.68,-4.67,-4.29,-4.79,-2.74,-2.73,-2.75
146.32,1.94,4.68,1.94,4.69,-4.67,-4.25,-4.70,-2.73,-2.73,-2.75
147.78,1.94,4.69,1.93,4.68,-4.67,-4.22,-4.61,-2.73,-2.74,-2.76
149.26,1.90,4.66,1.89,4.66,-4.67,-4.19,-4.51,-2.77,-2.77,-2.77
150.75,1.85,4.63,1.84,4.63,-4.66,-4.16,-4.42,-2.81,-2.82,-2.79
152.26,1.78,4.59,1.79,4.61,-4.64,-4.14,-4.33,-2.86,-2.84,-2.82
153.78,1.74,4.58,1.76,4.60,-4.60,-4.11,-4.23,-2.86,-2.84,-2.85
155.32,1.74,4.62,1.71,4.59,-4.54,-4.08,-4.14,-2.80,-2.83,-2.89
156.88,1.66,4.57,1.65,4.56,-4.47,-4.06,-4.05,-2.82,-2.83,-2.92
158.44,1.52,4.47,1.52,4.47,-4.41,-4.03,-3.96,-2.89,-2.89,-2.96
160.03,1.39,4.37,1.36,4.34,-4.35,-4.01,-3.87,-2.96,-2.99,-2.99
161.63,1.19,4.19,1.22,4.23,-4.30,-3.99,-3.79,-3.12,-3.08,-3.01
163.24,1.12,4.15,1.13,4.16,-4.27,-3.97,-3.70,-3.16,-3.14,-3.04
164.88,1.13,4.17,1.11,4.15,-4.25,-3.95,-3.62,-3.13,-3.15,-3.05
166.53,1.13,4.18,1.16,4.22,-4.25,-3.93,-3.54,-3.12,-3.08,-3.06
168.19,1.24,4.29,1.23,4.28,-4.25,-3.91,-3.46,-3.01,-3.02,-3.06
169.87,1.32,4.36,1.28,4.33,-4.26,-3.89,-3.39,-2.95,-2.98,-3.05
171.57,1.31,4.34,1.32,4.35,-4.27,-3.88,-3.31,-2.97,-2.96,-3.04
173.29,1.30,4.31,1.31,4.32,-4.28,-3.86,-3.24,-2.98,-2.96,-3.02
175.02,1.30,4.28,1.28,4.27,-4.26,-3.85,-3.17,-2.97,-2.98,-2.99
176.77,1.26,4.21,1.25,4.20,-4.23,-3.83,-3.10,-2.97,-2.98,-2.96
178.54,1.20,4.12,1.22,4.14,-4.17,-3.82,-3.04,-2.98,-2.96,-2.93
180.32,1.20,4.08,1.20,4.09,-4.11,-3.81,-2.98,-2.91,-2.91,-2.89
182.13,1.20,4.05,1.20,4.05,-4.04,-3.79,-2.92,-2.85,-2.85,-2.86
183.95,1.21,4.02,1.17,3.99,-3.98,-3.78,-2.86,-2.77,-2.81,-2.82
185.79,1.12,3.91,1.13,3.92,-3.91,-3.77,-2.81,-2.79,-2.78,-2.80
187.65,1.05,3.82,1.08,3.86,-3.85,-3.75,-2.75,-2.80,-2.77,-2.78
189.52,1.05,3.80,1.02,3.78,-3.79,-3.74,-2.70,-2.74,-2.77,-2.76
191.42,1.00,3.74,0.98,3.72,-3.73,-3.72,-2.65,-2.73,-2.75,-2.75
193.33,0.91,3.63,0.94,3.67,-3.68,-3.70,-2.61,-2.77,-2.74,-2.73
195.27,0.89,3.60,0.89,3.61,-3.63,-3.69,-2.56,-2.74,-2.73,-2.72
197.22,0.89,3.60,0.87,3.58,-3.58,-3.66,-2.52,-2.70,-2.72,-2.72
199.19,0.84,3.54,0.84,3.55,-3.54,-3.64,-2.48,-2.71,-2.70,-2.71
201.18,0.81,3.51,0.80,3.51,-3.51,-3.61,-2.44,-2.70,-2.71,-2.71
203.19,0.76,3.46,0.77,3.47,-3.47,-3.58,-2.40,-2.71,-2.70,-2.71
205.23,0.73,3.43,0.74,3.45,-3.43,-3.55,-2.37,-2.70,-2.69,-2.71
207.28,0.73,3.43,0.70,3.40,-3.39,-3.51,-2.33,-2.66,-2.69,-2.71
209.35,0.66,3.36,0.64,3.35,-3.35,-3.47,-2.30,-2.69,-2.70,-2.71
211.44,0.55,3.26,0.58,3.29,-3.30,-3.43,-2.26,-2.75,-2.72,-2.72
213.56,0.52,3.23,0.52,3.23,-3.25,-3.38,-2.23,-2.73,-2.73,-2.72
215.69,0.48,3.20,0.46,3.19,-3.20,-3.32,-2.20,-2.72,-2.73,-2.73
217.85,0.42,3.14,0.41,3.14,-3.14,-3.26,-2.17,-2.72,-2.72,-2.73
220.03,0.35,3.08,0.35,3.08,-3.07,-3.20,-2.14,-2.73,-2.72,-2.74
222.23,0.28,3.01,0.28,3.02,-3.01,-3.13,-2.11,-2.73,-2.72,-2.74
224.45,0.22,2.95,0.21,2.95,-2.93,-3.05,-2.08,-2.72,-2.72,-2.74
226.70,0.15,2.88,0.14,2.87,-2.86,-2.97,-2.05,-2.71,-2.73,-2.74
228.96,0.05,2.78,0.04,2.78,-2.79,-2.88,-2.02,-2.74,-2.74,-2.74
231.25,-0.05,2.67,-0.05,2.68,-2.71,-2.79,-1.99,-2.76,-2.75,-2.73
233.57,-0.13,2.59,-0.11,2.61,-2.63,-2.70,-1.96,-2.76,-2.74,-2.73
235.90,-0.16,2.55,-0.17,2.54,-2.55,-2.60,-1.93,-2.71,-2.72,-2.72
238.26,-0.20,2.50,-0.23,2.48,-2.47,-2.49,-1.90,-2.67,-2.70,-2.71
240.64,-0.30,2.38,-0.28,2.41,-2.39,-2.38,-1.86,-2.70,-2.67,-2.69
243.05,-0.35,2.32,-0.35,2.32,-2.32,-2.27,-1.83,-2.67,-2.67,-2.68
245.48,-0.41,2.25,-0.43,2.24,-2.25,-2.15,-1.79,-2.66,-2.67,-2.67
247.93,-0.51,2.14,-0.50,2.16,-2.17,-2.03,-1.76,-2.68,-2.66,-2.66
250.41,-0.57,2.07,-0.58,2.07,-2.08,-1.91,-1.72,-2.65,-2.66,-2.65
252.92,-0.65,1.98,-0.66,1.98,-1.98,-1.79,-1.68,-2.63,-2.64,-2.64
255.45,-0.75,1.88,-0.74,1.89,-1.87,-1.67,-1.64,-2.63,-2.61,-2.64
258.00,-0.84,1.79,-0.85,1.78,-1.75,-1.54,-1.60,-2.60,-2.60,-2.64
260.58,-0.96,1.67,-0.98,1.65,-1.63,-1.41,-1.56,-2.59,-2.61,-2.64
263.19,-1.14,1.49,-1.13,1.50,-1.50,-1.29,-1.52,-2.64,-2.63,-2.64
265.82,-1.30,1.33,-1.29,1.35,-1.36,-1.16,-1.47,-2.67,-2.65,-2.64
268.48,-1.43,1.20,-1.44,1.19,-1.22,-1.03,-1.42,-2.66,-2.67,-2.64
271.16,-1.58,1.05,-1.58,1.05,-1.08,-0.91,-1.38,-2.66,-2.66,-2.64
273.87,-1.72,0.91,-1.72,0.92,-0.93,-0.78,-1.33,-2.65,-2.64,-2.64
276.61,-1.84,0.79,-1.85,0.79,-0.78,-0.66,-1.28,-2.62,-2.63,-2.64
279.38,-1.98,0.65,-1.98,0.65,-0.63,-0.54,-1.23,-2.61,-2.61,-2.64
282.17,-2.12,0.50,-2.13,0.50,-0.47,-0.42,-1.18,-2.60,-2.60,-2.63
284.99,-2.28,0.33,-2.29,0.33,-0.31,-0.31,-1.12,-2.60,-2.60,-2.62
287.84,-2.45,0.16,-2.46,0.16,-0.15,-0.19,-1.07,-2.60,-2.61,-2.62
290.72,-2.63,-0.03,-2.62,-0.01,0.01,-0.08,-1.02,-2.62,-2.60,-2.61
293.63,-2.77,-0.18,-2.77,-0.18,0.17,0.02,-0.96,-2.60,-2.60,-2.60
296.57,-2.90,-0.32,-2.93,-0.34,0.32,0.13,-0.91,-2.59,-2.61,-2.59
299.53,-3.07,-0.49,-3.07,-0.49,0.45,0.23,-0.85,-2.62,-2.62,-2.59
302.53,-3.21,-0.64,-3.18,-0.61,0.57,0.32,-0.80,-2.64,-2.61,-2.58
305.55,-3.27,-0.70,-3.27,-0.69,0.68,0.41,-0.74,-2.59,-2.59,-2.58
308.61,-3.31,-0.74,-3.34,-0.77,0.79,0.50,-0.68,-2.53,-2.55,-2.58
311.69,-3.41,-0.84,-3.42,-0.84,0.88,0.59,-0.63,-2.53,-2.54,-2.58
314.81,-3.53,-0.95,-3.52,-0.94,0.97,0.67,-0.57,-2.57,-2.55,-2.59
317.96,-3.62,-1.04,-3.63,-1.05,1.04,0.75,-0.51,-2.58,-2.59,-2.59
321.14,-3.73,-1.14,-3.73,-1.14,1.12,0.82,-0.45,-2.61,-2.61,-2.60
324.35,-3.82,-1.23,-3.81,-1.21,1.19,0.89,-0.40,-2.63,-2.62,-2.60
327.59,-3.87,-1.27,-3.88,-1.28,1.26,0.95,-0.34,-2.61,-2.62,-2.61
330.87,-3.93,-1.32,-3.94,-1.33,1.33,1.01,-0.28,-2.60,-2.61,-2.62
334.18,-4.01,-1.39,-4.00,-1.37,1.39,1.07,-0.22,-2.63,-2.61,-2.63
337.52,-4.04,-1.41,-4.06,-1.42,1.43,1.12,-0.16,-2.61,-2.62,-2.64
340.90,-4.11,-1.48,-4.11,-1.47,1.47,1.17,-0.10,-2.64,-2.64,-2.64
344.30,-4.16,-1.52,-4.17,-1.52,1.51,1.22,-0.04,-2.65,-2.66,-2.65
347.75,-4.22,-1.56,-4.21,-1.55,1.54,1.26,0.02,-2.68,-2.67,-2.67
351.23,-4.24,-1.57,-4.24,-1.56,1.56,1.30,0.08,-2.68,-2.67,-2.68
354.74,-4.24,-1.56,-4.26,-1.58,1.58,1.33,0.14,-2.66,-2.68,-2.69
358.28,-4.28,-1.59,-4.29,-1.59,1.59,1.36,0.20,-2.69,-2.69,-2.70
361.87,-4.32,-1.62,-4.31,-1.60,1.59,1.39,0.26,-2.73,-2.71,-2.71
365.49,-4.32,-1.60,-4.33,-1.60,1.59,1.41,0.32,-2.73,-2.74,-2.73
369.14,-4.32,-1.59,-4.32,-1.59,1.58,1.43,0.38,-2.74,-2.74,-2.74
372.83,-4.31,-1.57,-4.31,-1.57,1.57,1.44,0.44,-2.74,-2.74,-2.75
376.56,-4.30,-1.55,-4.30,-1.55,1.55,1.46,0.50,-2.75,-2.75,-2.76
380.33,-4.29,-1.53,-4.30,-1.53,1.54,1.47,0.57,-2.76,-2.76,-2.77
384.13,-4.29,-1.52,-4.29,-1.51,1.52,1.47,0.63,-2.77,-2.77,-2.78
387.97,-4.28,-1.50,-4.29,-1.50,1.51,1.48,0.69,-2.78,-2.78,-2.79
391.85,-4.28,-1.49,-4.28,-1.49,1.49,1.48,0.75,-2.79,-2.79,-2.80
395.77,-4.28,-1.48,-4.28,-1.48,1.48,1.48,0.81,-2.80,-2.80,-2.81
399.73,-4.28,-1.47,-4.28,-1.47,1.47,1.47,0.87,-2.81,-2.81,-2.82
403.72,-4.28,-1.46,-4.28,-1.46,1.45,1.46,0.93,-2.83,-2.83,-2.83
407.76,-4.28,-1.44,-4.29,-1.45,1.44,1.46,0.99,-2.85,-2.86,-2.85
411.84,-4.29,-1.44,-4.29,-1.44,1.41,1.44,1.05,-2.88,-2.88,-2.86
415.96,-4.29,-1.43,-4.27,-1.40,1.39,1.43,1.11,-2.90,-2.88,-2.87
420.12,-4.22,-1.36,-4.23,-1.36,1.37,1.42,1.16,-2.86,-2.87,-2.87
424.32,-4.18,-1.31,-4.20,-1.33,1.34,1.40,1.22,-2.84,-2.86,-2.88
428.56,-4.17,-1.30,-4.17,-1.30,1.32,1.38,1.27,-2.85,-2.85,-2.88
432.85,-4.16,-1.30,-4.16,-1.29,1.30,1.36,1.32,-2.87,-2.86,-2.87
437.18,-4.13,-1.28,-4.13,-1.28,1.28,1.33,1.37,-2.86,-2.86,-2.86
441.55,-4.09,-1.26,-4.10,-1.26,1.26,1.31,1.42,-2.84,-2.84,-2.84
445.96,-4.05,-1.24,-4.05,-1.24,1.24,1.28,1.46,-2.81,-2.81,-2.82
450.42,-4.00,-1.22,-4.00,-1.22,1.22,1.26,1.50,-2.79,-2.78,-2.79
