frequency,raw,error,smoothed,error_smoothed,equalization,parametric_eq,fixed_band_eq,equalized_raw,equalized_smoothed,target
20.00,-8.11,-6.79,-8.11,-6.79,6.03,5.98,0.54,-2.08,-2.08,-1.32
20.20,-7.95,-6.63,-7.95,-6.64,6.04,5.95,0.56,-1.91,-1.91,-1.32
20.40,-7.78,-6.47,-7.78,-6.48,6.02,5.90,0.58,-1.76,-1.76,-1.31
20.61,-7.62,-6.33,-7.62,-6.32,5.99,5.84,0.60,-1.63,-1.63,-1.30
20.81,-7.46,-6.16,-7.46,-6.16,5.94,5.77,0.62,-1.52,-1.52,-1.30
21.02,-7.29,-6.00,-7.29,-6.00,5.87,5.69,0.64,-1.42,-1.42,-1.29
21.23,-7.13,-5.84,-7.13,-5.84,5.79,5.60,0.67,-1.34,-1.34,-1.29
21.44,-6.96,-5.68,-6.96,-5.69,5.69,5.50,0.69,-1.27,-1.27,-1.28
21.66,-6.80,-5.54,-6.80,-5.53,5.55,5.40,0.71,-1.25,-1.25,-1.27
21.87,-6.64,-5.37,-6.63,-5.37,5.40,5.28,0.74,-1.24,-1.23,-1.27
22.09,-6.47,-5.21,-6.47,-5.21,5.24,5.17,0.76,-1.23,-1.23,-1.26
22.31,-6.30,-5.05,-6.30,-5.05,5.06,5.04,0.79,-1.23,-1.24,-1.25
22.54,-6.14,-4.90,-6.14,-4.89,4.90,4.91,0.81,-1.25,-1.24,-1.25
22.76,-5.97,-4.73,-5.97,-4.74,4.74,4.77,0.84,-1.23,-1.23,-1.24
22.99,-5.81,-4.58,-5.81,-4.58,4.58,4.63,0.87,-1.23,-1.22,-1.23
23.22,-5.64,-4.42,-5.64,-4.43,4.43,4.48,0.90,-1.21,-1.22,-1.22
23.45,-5.48,-4.27,-5.48,-4.27,4.27,4.33,0.93,-1.21,-1.21,-1.21
23.69,-5.32,-4.13,-5.32,-4.12,4.12,4.18,0.96,-1.20,-1.20,-1.20
23.92,-5.15,-3.96,-5.15,-3.96,3.96,4.03,0.98,-1.18,-1.19,-1.19
24.16,-4.99,-3.81,-4.99,-3.81,3.81,3.87,1.01,-1.18,-1.18,-1.18
24.40,-4.82,-3.65,-4.82,-3.66,3.66,3.72,1.04,-1.16,-1.16,-1.17
24.65,-4.66,-3.51,-4.66,-3.51,3.51,3.56,1.07,-1.16,-1.15,-1.15
24.89,-4.49,-3.35,-4.49,-3.35,3.35,3.40,1.10,-1.13,-1.14,-1.14
25.14,-4.33,-3.20,-4.33,-3.20,3.20,3.24,1.13,-1.13,-1.12,-1.13
25.39,-4.16,-3.04,-4.16,-3.05,3.05,3.08,1.16,-1.11,-1.11,-1.12
25.65,-4.00,-2.89,-4.00,-2.90,2.90,2.92,1.19,-1.10,-1.10,-1.11
25.91,-3.84,-2.76,-3.84,-2.75,2.75,2.76,1.22,-1.10,-1.09,-1.09
26.16,-3.68,-2.60,-3.68,-2.60,2.60,2.61,1.25,-1.08,-1.08,-1.08
26.43,-3.51,-2.45,-3.51,-2.45,2.45,2.45,1.27,-1.06,-1.07,-1.07
26.69,-3.35,-2.29,-3.35,-2.30,2.30,2.30,1.30,-1.05,-1.05,-1.06
26.96,-3.19,-2.16,-3.19,-2.15,2.15,2.14,1.32,-1.04,-1.04,-1.04
27.23,-3.03,-2.01,-3.03,-2.01,2.01,1.99,1.34,-1.03,-1.02,-1.03
27.50,-2.87,-1.86,-2.87,-1.86,1.86,1.84,1.36,-1.01,-1.01,-1.01
27.77,-2.71,-1.71,-2.71,-1.72,1.72,1.69,1.38,-0.99,-0.99,-1.00
28.05,-2.55,-1.57,-2.55,-1.57,1.57,1.54,1.39,-0.98,-0.98,-0.98
28.33,-2.40,-1.43,-2.40,-1.43,1.43,1.40,1.40,-0.97,-0.96,-0.97
28.62,-2.24,-1.30,-2.24,-1.29,1.29,1.25,1.41,-0.95,-0.95,-0.95
28.90,-2.08,-1.14,-2.08,-1.15,1.15,1.11,1.41,-0.93,-0.94,-0.94
29.19,-1.93,-1.01,-1.93,-1.01,1.01,0.97,1.41,-0.92,-0.92,-0.92
29.48,-1.78,-0.87,-1.78,-0.87,0.87,0.83,1.41,-0.91,-0.90,-0.91
29.78,-1.62,-0.73,-1.62,-0.74,0.74,0.69,1.40,-0.89,-0.89,-0.89
30.08,-1.47,-0.60,-1.47,-0.60,0.60,0.56,1.39,-0.87,-0.87,-0.88
30.38,-1.32,-0.47,-1.32,-0.46,0.47,0.43,1.37,-0.86,-0.86,-0.86
30.68,-1.18,-0.33,-1.18,-0.33,0.33,0.30,1.35,-0.85,-0.85,-0.85
30.99,-1.03,-0.21,-1.03,-0.20,0.20,0.17,1.32,-0.83,-0.83,-0.83
31.30,-0.89,-0.08,-0.89,-0.07,0.07,0.04,1.29,-0.82,-0.81,-0.82
31.61,-0.74,0.06,-0.74,0.05,-0.05,-0.08,1.25,-0.79,-0.80,-0.80
31.93,-0.60,0.18,-0.60,0.18,-0.18,-0.21,1.21,-0.78,-0.78,-0.79
32.24,-0.47,0.30,-0.46,0.30,-0.30,-0.33,1.16,-0.77,-0.77,-0.77
32.57,-0.33,0.43,-0.33,0.43,-0.42,-0.45,1.11,-0.75,-0.75,-0.76
32.89,-0.19,0.55,-0.19,0.54,-0.54,-0.56,1.05,-0.73,-0.74,-0.74
33.22,-0.06,0.67,-0.06,0.66,-0.66,-0.68,0.99,-0.72,-0.72,-0.73
33.55,0.06,0.77,0.07,0.77,-0.78,-0.79,0.92,-0.71,-0.71,-0.71
33.89,0.19,0.89,0.19,0.88,-0.89,-0.91,0.85,-0.70,-0.70,-0.70
34.23,0.32,1.00,0.32,1.00,-1.00,-1.02,0.78,-0.68,-0.68,-0.68
34.57,0.45,1.12,0.45,1.12,-1.12,-1.13,0.70,-0.67,-0.67,-0.67
34.92,0.58,1.23,0.58,1.23,-1.23,-1.23,0.62,-0.65,-0.65,-0.66
35.27,0.70,1.33,0.70,1.34,-1.34,-1.34,0.53,-0.64,-0.64,-0.64
35.62,0.82,1.45,0.82,1.45,-1.45,-1.44,0.44,-0.63,-0.63,-0.63
35.97,0.94,1.56,0.94,1.55,-1.56,-1.54,0.35,-0.61,-0.62,-0.62
36.33,1.05,1.66,1.06,1.66,-1.66,-1.64,0.25,-0.61,-0.61,-0.61
36.70,1.17,1.77,1.17,1.76,-1.76,-1.74,0.16,-0.59,-0.59,-0.60
37.06,1.28,1.87,1.28,1.86,-1.86,-1.84,0.06,-0.58,-0.58,-0.59
37.43,1.38,1.96,1.39,1.96,-1.96,-1.94,-0.04,-0.58,-0.57,-0.58
37.81,1.49,2.06,1.49,2.05,-2.05,-2.03,-0.15,-0.56,-0.57,-0.57
38.19,1.59,2.15,1.59,2.15,-2.15,-2.12,-0.25,-0.56,-0.56,-0.56
38.57,1.69,2.24,1.69,2.24,-2.24,-2.21,-0.36,-0.55,-0.55,-0.55
38.95,1.79,2.33,1.79,2.32,-2.33,-2.30,-0.47,-0.53,-0.54,-0.54
39.34,1.88,2.41,1.88,2.41,-2.41,-2.39,-0.58,-0.53,-0.53,-0.53
39.74,1.98,2.50,1.98,2.50,-2.50,-2.48,-0.69,-0.52,-0.52,-0.52
40.14,2.07,2.59,2.07,2.58,-2.58,-2.57,-0.81,-0.51,-0.51,-0.52
40.54,2.16,2.67,2.16,2.67,-2.66,-2.65,-0.92,-0.50,-0.50,-0.51
40.94,2.25,2.75,2.25,2.74,-2.74,-2.73,-1.04,-0.49,-0.50,-0.50
41.35,2.33,2.82,2.33,2.82,-2.82,-2.81,-1.16,-0.49,-0.49,-0.49
41.76,2.42,2.90,2.42,2.90,-2.90,-2.89,-1.28,-0.48,-0.48,-0.48
42.18,2.51,2.98,2.51,2.97,-2.97,-2.97,-1.40,-0.46,-0.46,-0.47
42.60,2.59,3.05,2.59,3.05,-3.04,-3.05,-1.52,-0.45,-0.45,-0.46
43.03,2.67,3.12,2.67,3.11,-3.11,-3.13,-1.65,-0.44,-0.44,-0.45
43.46,2.74,3.18,2.74,3.18,-3.18,-3.20,-1.77,-0.44,-0.44,-0.44
43.90,2.82,3.25,2.82,3.24,-3.25,-3.27,-1.90,-0.43,-0.43,-0.43
44.33,2.90,3.31,2.90,3.31,-3.31,-3.35,-2.03,-0.41,-0.41,-0.41
44.78,2.98,3.38,2.98,3.38,-3.38,-3.42,-2.16,-0.40,-0.40,-0.40
45.23,3.06,3.45,3.06,3.44,-3.44,-3.49,-2.29,-0.39,-0.38,-0.39
45.68,3.14,3.51,3.14,3.51,-3.51,-3.55,-2.42,-0.37,-0.37,-0.37
46.13,3.22,3.58,3.22,3.57,-3.57,-3.62,-2.56,-0.35,-0.35,-0.36
46.60,3.30,3.64,3.30,3.64,-3.64,-3.69,-2.69,-0.34,-0.34,-0.34
47.06,3.38,3.71,3.38,3.70,-3.70,-3.75,-2.83,-0.32,-0.32,-0.33
47.53,3.46,3.77,3.46,3.77,-3.76,-3.81,-2.97,-0.30,-0.30,-0.31
48.01,3.53,3.83,3.53,3.82,-3.82,-3.87,-3.11,-0.29,-0.29,-0.30
48.49,3.60,3.88,3.60,3.88,-3.88,-3.93,-3.25,-0.28,-0.28,-0.28
48.97,3.67,3.94,3.67,3.93,-3.94,-3.99,-3.39,-0.27,-0.27,-0.27
49.46,3.74,3.99,3.74,3.99,-3.99,-4.05,-3.53,-0.25,-0.25,-0.25
49.96,3.81,4.05,3.81,4.05,-4.05,-4.10,-3.67,-0.24,-0.24,-0.24
50.46,3.88,4.11,3.88,4.10,-4.11,-4.16,-3.81,-0.23,-0.23,-0.23
50.96,3.95,4.16,3.95,4.16,-4.16,-4.21,-3.96,-0.21,-0.21,-0.21
51.47,4.03,4.23,4.03,4.22,-4.22,-4.26,-4.10,-0.19,-0.19,-0.20
51.99,4.10,4.29,4.09,4.28,-4.27,-4.31,-4.24,-0.17,-0.18,-0.19
52.51,4.16,4.34,4.16,4.33,-4.33,-4.36,-4.38,-0.17,-0.17,-0.18
53.03,4.21,4.38,4.22,4.38,-4.38,-4.41,-4.52,-0.17,-0.16,-0.17
53.56,4.28,4.43,4.28,4.43,-4.43,-4.46,-4.66,-0.15,-0.16,-0.15
54.10,4.34,4.48,4.34,4.48,-4.49,-4.50,-4.79,-0.15,-0.14,-0.14
54.64,4.41,4.54,4.41,4.54,-4.54,-4.54,-4.93,-0.13,-0.13,-0.13
55.18,4.47,4.60,4.47,4.59,-4.59,-4.59,-5.05,-0.12,-0.12,-0.13
55.74,4.52,4.64,4.53,4.64,-4.64,-4.63,-5.18,-0.12,-0.11,-0.12
56.29,4.58,4.69,4.58,4.69,-4.69,-4.67,-5.30,-0.11,-0.11,-0.11
56.86,4.64,4.75,4.64,4.74,-4.74,-4.70,-5.41,-0.10,-0.10,-0.11
57.42,4.69,4.79,4.69,4.79,-4.79,-4.74,-5.52,-0.10,-0.10,-0.10
58.00,4.74,4.84,4.74,4.84,-4.84,-4.77,-5.62,-0.10,-0.09,-0.10
58.58,4.79,4.88,4.79,4.88,-4.88,-4.81,-5.72,-0.09,-0.09,-0.09
59.16,4.84,4.93,4.84,4.92,-4.93,-4.84,-5.80,-0.09,-0.09,-0.09
59.76,4.88,4.97,4.88,4.97,-4.97,-4.87,-5.88,-0.09,-0.09,-0.09
60.35,4.92,5.01,4.92,5.01,-5.01,-4.90,-5.95,-0.09,-0.08,-0.09
60.96,4.97,5.06,4.96,5.05,-5.05,-4.92,-6.01,-0.08,-0.08,-0.09
61.57,5.00,5.09,5.00,5.09,-5.08,-4.95,-6.05,-0.08,-0.08,-0.09
62.18,5.03,5.12,5.03,5.12,-5.12,-4.97,-6.09,-0.09,-0.08,-0.09
62.80,5.06,5.15,5.06,5.15,-5.15,-5.00,-6.12,-0.09,-0.09,-0.09
63.43,5.09,5.18,5.09,5.18,-5.18,-5.02,-6.14,-0.09,-0.09,-0.09
64.07,5.11,5.21,5.11,5.20,-5.20,-5.04,-6.15,-0.09,-0.10,-0.10
64.71,5.13,5.23,5.13,5.23,-5.23,-5.06,-6.15,-0.10,-0.10,-0.10
65.35,5.15,5.25,5.15,5.25,-5.25,-5.07,-6.14,-0.10,-0.10,-0.10
66.01,5.18,5.28,5.17,5.27,-5.27,-5.09,-6.12,-0.09,-0.09,-0.10
66.67,5.19,5.29,5.19,5.29,-5.28,-5.10,-6.10,-0.09,-0.10,-0.10
67.33,5.20,5.30,5.20,5.30,-5.30,-5.12,-6.06,-0.10,-0.10,-0.10
68.01,5.20,5.31,5.20,5.31,-5.31,-5.13,-6.02,-0.11,-0.10,-0.11
68.69,5.21,5.32,5.21,5.31,-5.31,-5.14,-5.97,-0.10,-0.11,-0.11
69.37,5.21,5.32,5.21,5.32,-5.32,-5.14,-5.92,-0.11,-0.11,-0.11
70.07,5.21,5.32,5.21,5.32,-5.32,-5.15,-5.86,-0.11,-0.10,-0.11
70.77,5.21,5.32,5.21,5.32,-5.32,-5.16,-5.80,-0.11,-0.11,-0.11
71.48,5.21,5.32,5.21,5.31,-5.31,-5.16,-5.74,-0.10,-0.11,-0.11
72.19,5.20,5.31,5.20,5.31,-5.31,-5.16,-5.67,-0.11,-0.11,-0.11
72.91,5.20,5.30,5.20,5.30,-5.31,-5.16,-5.60,-0.11,-0.11,-0.10
73.64,5.21,5.31,5.21,5.30,-5.31,-5.16,-5.53,-0.10,-0.10,-0.10
74.38,5.21,5.30,5.21,5.30,-5.30,-5.16,-5.46,-0.09,-0.09,-0.09
75.12,5.21,5.30,5.21,5.30,-5.29,-5.15,-5.39,-0.08,-0.08,-0.09
75.87,5.21,5.29,5.21,5.28,-5.28,-5.15,-5.32,-0.07,-0.07,-0.08
76.63,5.20,5.27,5.20,5.27,-5.26,-5.14,-5.24,-0.06,-0.06,-0.07
77.40,5.18,5.24,5.18,5.24,-5.24,-5.13,-5.18,-0.06,-0.05,-0.06
78.17,5.17,5.22,5.17,5.21,-5.21,-5.12,-5.11,-0.04,-0.05,-0.05
78.95,5.15,5.19,5.15,5.19,-5.19,-5.11,-5.04,-0.04,-0.04,-0.04
79.74,5.13,5.16,5.13,5.15,-5.16,-5.09,-4.98,-0.03,-0.03,-0.03
80.54,5.10,5.12,5.10,5.12,-5.13,-5.08,-4.92,-0.03,-0.02,-0.02
81.35,5.08,5.09,5.08,5.09,-5.09,-5.06,-4.86,-0.01,-0.01,-0.01
82.16,5.07,5.07,5.06,5.06,-5.06,-5.04,-4.80,0.01,0.00,0.00
82.98,5.04,5.03,5.04,5.03,-5.03,-5.02,-4.75,0.01,0.02,0.01
83.81,5.02,5.00,5.02,4.99,-4.99,-5.00,-4.70,0.03,0.03,0.02
84.65,4.98,4.95,4.98,4.95,-4.95,-4.97,-4.65,0.03,0.04,0.03
85.50,4.95,4.91,4.95,4.90,-4.90,-4.94,-4.61,0.05,0.05,0.04
86.35,4.91,4.86,4.91,4.86,-4.85,-4.92,-4.57,0.06,0.06,0.05
87.22,4.87,4.81,4.87,4.81,-4.80,-4.88,-4.53,0.07,0.07,0.06
88.09,4.83,4.76,4.83,4.75,-4.75,-4.85,-4.50,0.08,0.08,0.07
88.97,4.78,4.69,4.79,4.70,-4.70,-4.81,-4.47,0.08,0.09,0.09
89.86,4.75,4.65,4.75,4.64,-4.65,-4.77,-4.44,0.10,0.10,0.10
90.76,4.71,4.60,4.71,4.59,-4.60,-4.73,-4.42,0.11,0.11,0.11
91.66,4.68,4.55,4.68,4.55,-4.55,-4.69,-4.40,0.13,0.13,0.13
92.58,4.66,4.52,4.66,4.51,-4.51,-4.64,-4.38,0.15,0.15,0.14
93.51,4.63,4.48,4.63,4.47,-4.47,-4.59,-4.37,0.16,0.16,0.15
94.44,4.61,4.44,4.61,4.44,-4.43,-4.54,-4.36,0.18,0.18,0.17
95.39,4.58,4.40,4.58,4.39,-4.39,-4.48,-4.35,0.19,0.19,0.18
96.34,4.56,4.36,4.56,4.36,-4.36,-4.42,-4.35,0.20,0.20,0.20
97.30,4.54,4.33,4.54,4.33,-4.33,-4.37,-4.35,0.21,0.21,0.21
98.28,4.53,4.31,4.53,4.30,-4.31,-4.31,-4.35,0.22,0.22,0.22
99.26,4.52,4.29,4.52,4.28,-4.29,-4.26,-4.36,0.23,0.23,0.23
100.25,4.52,4.27,4.52,4.27,-4.27,-4.21,-4.36,0.25,0.25,0.25
101.25,4.52,4.26,4.52,4.26,-4.26,-4.17,-4.37,0.26,0.26,0.26
102.27,4.53,4.26,4.53,4.26,-4.26,-4.13,-4.38,0.27,0.27,0.27
103.29,4.54,4.27,4.54,4.26,-4.26,-4.11,-4.40,0.28,0.28,0.27
104.32,4.54,4.26,4.54,4.26,-4.26,-4.09,-4.41,0.28,0.28,0.28
105.37,4.54,4.25,4.54,4.25,-4.26,-4.07,-4.42,0.28,0.29,0.29
106.42,4.55,4.26,4.55,4.26,-4.26,-4.07,-4.44,0.29,0.29,0.29
107.48,4.56,4.27,4.56,4.26,-4.26,-4.07,-4.46,0.30,0.30,0.29
108.56,4.56,4.27,4.56,4.27,-4.26,-4.07,-4.47,0.30,0.30,0.29
109.64,4.55,4.26,4.55,4.26,-4.25,-4.08,-4.49,0.30,0.31,0.29
110.74,4.54,4.25,4.54,4.24,-4.23,-4.08,-4.50,0.31,0.30,0.29
111.85,4.51,4.22,4.51,4.22,-4.22,-4.08,-4.52,0.29,0.29,0.29
112.97,4.48,4.20,4.48,4.20,-4.20,-4.08,-4.53,0.28,0.28,0.28
114.10,4.45,4.17,4.45,4.17,-4.17,-4.08,-4.54,0.28,0.28,0.28
115.24,4.42,4.15,4.42,4.14,-4.15,-4.08,-4.55,0.27,0.27,0.27
116.39,4.39,4.12,4.39,4.12,-4.12,-4.08,-4.55,0.27,0.27,0.27
117.55,4.36,4.10,4.36,4.09,-4.09,-4.07,-4.56,0.27,0.27,0.26
118.73,4.33,4.07,4.32,4.06,-4.06,-4.06,-4.56,0.27,0.26,0.26
119.92,4.28,4.03,4.29,4.03,-4.03,-4.05,-4.55,0.25,0.26,0.25
121.12,4.26,4.01,4.26,4.01,-4.01,-4.04,-4.55,0.25,0.25,0.25
122.33,4.24,3.99,4.24,3.98,-3.98,-4.03,-4.53,0.26,0.25,0.25
123.55,4.22,3.97,4.22,3.96,-3.97,-4.02,-4.52,0.25,0.25,0.25
124.79,4.20,3.95,4.20,3.95,-3.96,-4.00,-4.50,0.24,0.25,0.25
126.03,4.19,3.94,4.19,3.94,-3.95,-3.99,-4.47,0.24,0.24,0.25
127.29,4.19,3.94,4.19,3.94,-3.95,-3.97,-4.44,0.24,0.24,0.25
128.57,4.20,3.95,4.20,3.95,-3.95,-3.95,-4.41,0.25,0.25,0.25
129.85,4.22,3.97,4.22,3.96,-3.96,-3.94,-4.37,0.26,0.26,0.25
131.15,4.23,3.98,4.23,3.98,-3.97,-3.92,-4.33,0.26,0.27,0.25
132.46,4.24,3.99,4.24,3.98,-3.97,-3.90,-4.28,0.27,0.27,0.25
133.79,4.24,3.98,4.24,3.98,-3.97,-3.88,-4.23,0.27,0.27,0.26
135.12,4.23,3.97,4.23,3.97,-3.97,-3.87,-4.18,0.26,0.26,0.26
136.48,4.22,3.96,4.22,3.95,-3.96,-3.85,-4.12,0.26,0.26,0.26
137.84,4.20,3.94,4.21,3.94,-3.94,-3.83,-4.06,0.26,0.27,0.26
139.22,4.19,3.93,4.18,3.92,-3.91,-3.82,-4.00,0.28,0.27,0.26
140.61,4.16,3.90,4.16,3.89,-3.88,-3.80,-3.94,0.28,0.27,0.26
142.02,4.12,3.85,4.12,3.85,-3.85,-3.79,-3.87,0.27,0.27,0.27
143.44,4.09,3.82,4.09,3.81,-3.82,-3.77,-3.80,0.27,0.27,0.27
144.87,4.05,3.78,4.05,3.78,-3.79,-3.75,-3.74,0.26,0.26,0.27
146.32,4.02,3.76,4.02,3.75,-3.76,-3.74,-3.67,0.26,0.26,0.26
147.78,3.99,3.73,3.99,3.73,-3.73,-3.72,-3.60,0.26,0.26,0.26
149.26,3.97,3.71,3.97,3.70,-3.70,-3.71,-3.53,0.27,0.26,0.26
150.75,3.94,3.68,3.94,3.68,-3.68,-3.69,-3.46,0.26,0.26,0.26
152.26,3.93,3.67,3.93,3.67,-3.66,-3.68,-3.39,0.27,0.26,0.26
153.78,3.90,3.65,3.90,3.65,-3.64,-3.66,-3.32,0.26,0.26,0.25
155.32,3.89,3.64,3.88,3.63,-3.63,-3.65,-3.25,0.26,0.25,0.25
156.88,3.85,3.60,3.86,3.61,-3.61,-3.63,-3.18,0.24,0.25,0.25
158.44,3.84,3.59,3.84,3.59,-3.60,-3.61,-3.11,0.24,0.24,0.25
160.03,3.82,3.58,3.82,3.58,-3.58,-3.59,-3.05,0.24,0.24,0.24
161.63,3.81,3.57,3.81,3.57,-3.56,-3.57,-2.98,0.25,0.25,0.24
163.24,3.79,3.56,3.78,3.55,-3.54,-3.54,-2.92,0.25,0.24,0.23
164.88,3.75,3.52,3.75,3.52,-3.52,-3.52,-2.86,0.23,0.24,0.23
166.53,3.71,3.49,3.72,3.49,-3.49,-3.49,-2.80,0.22,0.23,0.22
168.19,3.68,3.47,3.67,3.46,-3.46,-3.46,-2.74,0.22,0.22,0.21
169.87,3.63,3.43,3.63,3.43,-3.42,-3.42,-2.68,0.21,0.21,0.20
171.57,3.58,3.39,3.58,3.39,-3.39,-3.39,-2.63,0.19,0.19,0.19
173.29,3.53,3.35,3.52,3.34,-3.35,-3.35,-2.58,0.18,0.18,0.18
175.02,3.46,3.29,3.47,3.30,-3.31,-3.30,-2.52,0.15,0.16,0.17
176.77,3.42,3.27,3.41,3.26,-3.27,-3.26,-2.48,0.15,0.15,0.15
178.54,3.36,3.22,3.37,3.23,-3.23,-3.21,-2.43,0.13,0.14,0.14
180.32,3.32,3.20,3.32,3.19,-3.18,-3.16,-2.38,0.14,0.14,0.12
182.13,3.27,3.16,3.26,3.15,-3.13,-3.11,-2.34,0.14,0.12,0.11
183.95,3.18,3.09,3.19,3.09,-3.09,-3.06,-2.30,0.09,0.10,0.09
185.79,3.11,3.04,3.11,3.03,-3.03,-3.01,-2.26,0.08,0.08,0.07
187.65,3.03,2.97,3.03,2.97,-2.98,-2.96,-2.22,0.05,0.05,0.06
189.52,2.96,2.92,2.96,2.92,-2.92,-2.90,-2.18,0.04,0.04,0.04
191.42,2.88,2.86,2.88,2.85,-2.86,-2.85,-2.15,0.02,0.02,0.02
193.33,2.80,2.80,2.80,2.79,-2.79,-2.79,-2.11,0.01,0.01,0.00
195.27,2.72,2.73,2.72,2.73,-2.73,-2.73,-2.08,-0.01,-0.01,-0.01
197.22,2.64,2.67,2.64,2.66,-2.67,-2.68,-2.05,-0.03,-0.03,-0.03
199.19,2.55,2.60,2.55,2.60,-2.60,-2.62,-2.02,-0.05,-0.05,-0.05
201.18,2.47,2.55,2.47,2.54,-2.54,-2.57,-1.99,-0.07,-0.07,-0.08
203.19,2.38,2.48,2.38,2.47,-2.47,-2.51,-1.97,-0.09,-0.09,-0.10
205.23,2.29,2.41,2.29,2.41,-2.41,-2.46,-1.94,-0.12,-0.11,-0.12
207.28,2.21,2.35,2.21,2.35,-2.35,-2.41,-1.92,-0.14,-0.14,-0.14
209.35,2.13,2.29,2.13,2.28,-2.29,-2.35,-1.90,-0.16,-0.16,-0.16
211.44,2.04,2.23,2.04,2.23,-2.23,-2.30,-1.88,-0.19,-0.18,-0.19
213.56,1.96,2.17,1.96,2.17,-2.17,-2.25,-1.86,-0.21,-0.21,-0.21
215.69,1.88,2.12,1.88,2.12,-2.12,-2.20,-1.84,-0.24,-0.24,-0.24
217.85,1.80,2.07,1.81,2.07,-2.07,-2.15,-1.82,-0.27,-0.27,-0.27
220.03,1.74,2.03,1.74,2.03,-2.03,-2.10,-1.81,-0.29,-0.29,-0.29
222.23,1.68,1.99,1.68,1.99,-1.98,-2.05,-1.79,-0.30,-0.31,-0.31
224.45,1.62,1.96,1.61,1.94,-1.94,-2.00,-1.77,-0.32,-0.33,-0.34
226.70,1.54,1.90,1.54,1.90,-1.89,-1.95,-1.76,-0.35,-0.35,-0.36
228.96,1.47,1.85,1.48,1.86,-1.85,-1.90,-1.75,-0.38,-0.37,-0.38
231.25,1.42,1.82,1.41,1.81,-1.81,-1.86,-1.73,-0.39,-0.39,-0.40
233.57,1.36,1.77,1.35,1.76,-1.76,-1.81,-1.72,-0.40,-0.41,-0.41
235.90,1.27,1.70,1.29,1.71,-1.72,-1.76,-1.71,-0.45,-0.43,-0.43
238.26,1.23,1.67,1.23,1.67,-1.68,-1.72,-1.69,-0.45,-0.45,-0.44
240.64,1.19,1.64,1.19,1.64,-1.64,-1.67,-1.68,-0.45,-0.45,-0.45
243.05,1.16,1.62,1.15,1.61,-1.60,-1.63,-1.67,-0.44,-0.45,-0.46
245.48,1.11,1.58,1.11,1.57,-1.57,-1.59,-1.66,-0.46,-0.46,-0.47
247.93,1.05,1.53,1.06,1.54,-1.53,-1.55,-1.65,-0.48,-0.47,-0.48
250.41,1.02,1.51,1.01,1.50,-1.50,-1.51,-1.64,-0.48,-0.49,-0.49
252.92,0.97,1.47,0.97,1.47,-1.47,-1.47,-1.63,-0.50,-0.50,-0.50
255.45,0.94,1.45,0.94,1.44,-1.44,-1.43,-1.61,-0.50,-0.51,-0.51
258.00,0.90,1.42,0.90,1.41,-1.42,-1.39,-1.60,-0.52,-0.52,-0.52
260.58,0.86,1.38,0.86,1.38,-1.39,-1.35,-1.59,-0.53,-0.53,-0.52
263.19,0.83,1.36,0.83,1.36,-1.36,-1.32,-1.58,-0.53,-0.53,-0.53
265.82,0.80,1.34,0.81,1.34,-1.34,-1.29,-1.57,-0.54,-0.53,-0.54
268.48,0.78,1.33,0.78,1.32,-1.31,-1.26,-1.56,-0.53,-0.54,-0.55
271.16,0.75,1.31,0.74,1.30,-1.29,-1.23,-1.56,-0.54,-0.55,-0.56
273.87,0.69,1.26,0.70,1.27,-1.26,-1.20,-1.55,-0.57,-0.56,-0.57
276.61,0.65,1.23,0.65,1.23,-1.22,-1.18,-1.54,-0.57,-0.57,-0.58
279.38,0.61,1.20,0.61,1.19,-1.19,-1.15,-1.53,-0.58,-0.59,-0.59
282.17,0.56,1.16,0.56,1.16,-1.16,-1.13,-1.52,-0.60,-0.60,-0.60
284.99,0.52,1.13,0.52,1.12,-1.13,-1.12,-1.51,-0.61,-0.61,-0.61
287.84,0.47,1.09,0.48,1.09,-1.10,-1.10,-1.51,-0.63,-0.62,-0.62
290.72,0.45,1.08,0.45,1.07,-1.08,-1.09,-1.50,-0.63,-0.63,-0.63
293.63,0.42,1.06,0.42,1.06,-1.05,-1.08,-1.50,-0.63,-0.63,-0.64
296.57,0.40,1.05,0.40,1.04,-1.04,-1.07,-1.49,-0.63,-0.64,-0.65
299.53,0.37,1.03,0.37,1.02,-1.02,-1.07,-1.49,-0.65,-0.65,-0.66
302.53,0.34,1.01,0.34,1.01,-1.01,-1.06,-1.48,-0.67,-0.67,-0.67
305.55,0.32,1.01,0.32,1.00,-1.01,-1.06,-1.48,-0.69,-0.69,-0.69
308.61,0.31,1.01,0.31,1.00,-1.01,-1.07,-1.48,-0.70,-0.71,-0.70
311.69,0.30,1.01,0.30,1.01,-1.02,-1.07,-1.48,-0.72,-0.72,-0.71
314.81,0.30,1.03,0.30,1.03,-1.03,-1.07,-1.48,-0.73,-0.73,-0.73
317.96,0.31,1.05,0.31,1.05,-1.05,-1.08,-1.48,-0.74,-0.74,-0.74
321.14,0.32,1.08,0.32,1.07,-1.06,-1.09,-1.48,-0.74,-0.75,-0.76
324.35,0.32,1.09,0.32,1.09,-1.08,-1.10,-1.48,-0.76,-0.76,-0.77
327.59,0.32,1.11,0.32,1.11,-1.10,-1.11,-1.49,-0.78,-0.78,-0.79
330.87,0.32,1.12,0.32,1.12,-1.12,-1.12,-1.49,-0.80,-0.80,-0.80
334.18,0.32,1.14,0.32,1.13,-1.13,-1.14,-1.50,-0.81,-0.81,-0.82
337.52,0.32,1.15,0.32,1.15,-1.15,-1.15,-1.51,-0.83,-0.83,-0.83
340.90,0.32,1.17,0.32,1.16,-1.17,-1.16,-1.52,-0.85,-0.85,-0.85
344.30,0.32,1.18,0.32,1.18,-1.18,-1.18,-1.53,-0.86,-0.86,-0.86
347.75,0.32,1.20,0.32,1.20,-1.20,-1.19,-1.54,-0.88,-0.88,-0.88
351.23,0.32,1.22,0.32,1.21,-1.21,-1.21,-1.55,-0.89,-0.89,-0.90
354.74,0.32,1.23,0.32,1.23,-1.23,-1.23,-1.56,-0.91,-0.91,-0.91
358.28,0.32,1.25,0.32,1.25,-1.24,-1.24,-1.58,-0.92,-0.92,-0.93
361.87,0.32,1.27,0.32,1.26,-1.26,-1.26,-1.59,-0.94,-0.94,-0.95
365.49,0.32,1.28,0.32,1.28,-1.27,-1.28,-1.61,-0.95,-0.95,-0.96
369.14,0.31,1.29,0.31,1.28,-1.28,-1.29,-1.62,-0.97,-0.97,-0.98
372.83,0.30,1.29,0.30,1.29,-1.30,-1.31,-1.64,-1.00,-0.99,-0.99
376.56,0.30,1.31,0.30,1.31,-1.31,-1.33,-1.66,-1.01,-1.01,-1.01
380.33,0.31,1.34,0.31,1.33,-1.33,-1.35,-1.68,-1.02,-1.03,-1.03
384.13,0.32,1.36,0.32,1.36,-1.36,-1.37,-1.71,-1.04,-1.04,-1.04
387.97,0.33,1.39,0.33,1.39,-1.39,-1.39,-1.73,-1.06,-1.06,-1.06
391.85,0.35,1.42,0.35,1.42,-1.42,-1.41,-1.75,-1.07,-1.07,-1.07
395.77,0.38,1.46,0.38,1.46,-1.46,-1.43,-1.78,-1.08,-1.08,-1.08
399.73,0.42,1.51,0.41,1.50,-1.50,-1.45,-1.80,-1.08,-1.09,-1.09
403.72,0.45,1.55,0.45,1.55,-1.55,-1.47,-1.83,-1.10,-1.10,-1.10
407.76,0.48,1.59,0.48,1.59,-1.59,-1.49,-1.85,-1.11,-1.11,-1.11
411.84,0.52,1.65,0.52,1.64,-1.64,-1.51,-1.88,-1.12,-1.12,-1.13
415.96,0.55,1.69,0.55,1.69,-1.68,-1.53,-1.90,-1.13,-1.13,-1.14
420.12,0.58,1.73,0.58,1.73,-1.73,-1.55,-1.93,-1.15,-1.14,-1.15
424.32,0.61,1.77,0.61,1.76,-1.77,-1.58,-1.96,-1.16,-1.16,-1.16
428.56,0.63,1.80,0.63,1.80,-1.80,-1.60,-1.99,-1.17,-1.17,-1.17
432.85,0.65,1.84,0.65,1.83,-1.83,-1.63,-2.01,-1.18,-1.18,-1.19
437.18,0.67,1.87,0.67,1.86,-1.85,-1.65,-2.04,-1.18,-1.19,-1.20
441.55,0.67,1.88,0.67,1.88,-1.87,-1.68,-2.06,-1.20,-1.20,-1.21
445.96,0.67,1.90,0.67,1.89,-1.89,-1.71,-2.09,-1.22,-1.22,-1.23
450.42,0.66,1.91,0.66,1.90,-1.90,-1.74,-2.11,-1.24,-1.24,-1.25
454.93,0.65,1.91,0.65,1.91,-1.91,-1.77,-2.14,-1.26,-1.26,-1.26
459.48,0.64,1.92,0.64,1.92,-1.92,-1.80,-2.16,-1.28,-1.28,-1.28
464.07,0.64,1.94,0.64,1.93,-1.93,-1.84,-2.18,-1.29,-1.30,-1.30
468.71,0.63,1.95,0.63,1.95,-1.94,-1.87,-2.20,-1.31,-1.31,-1.32
473.40,0.63,1.96,0.63,1.96,-1.96,-1.91,-2.22,-1.33,-1.33,-1.33
478.13,0.63,1.98,0.63,1.97,-1.98,-1.95,-2.23,-1.35,-1.35,-1.35
482.91,0.64,2.00,0.64,2.00,-2.00,-2.00,-2.25,-1.36,-1.36,-1.36
