frequency,raw,error,smoothed,error_smoothed,equalization,parametric_eq,fixed_band_eq,equalized_raw,equalized_smoothed,target
20.00,13.52,5.10,13.52,5.10,-5.07,-5.22,-2.62,8.45,8.45,8.42
20.20,13.54,5.08,13.54,5.08,-5.07,-5.23,-2.69,8.47,8.47,8.46
20.40,13.57,5.07,13.56,5.07,-5.07,-5.23,-2.77,8.50,8.49,8.50
20.61,13.59,5.07,13.59,5.06,-5.08,-5.24,-2.85,8.51,8.51,8.52
20.81,13.62,5.06,13.62,5.06,-5.09,-5.24,-2.93,8.53,8.53,8.56
21.02,13.65,5.05,13.66,5.07,-5.11,-5.25,-3.01,8.54,8.55,8.60
21.23,13.72,5.11,13.71,5.10,-5.13,-5.26,-3.10,8.59,8.58,8.61
21.44,13.78,5.15,13.78,5.15,-5.16,-5.27,-3.19,8.62,8.62,8.63
21.66,13.85,5.21,13.85,5.22,-5.21,-5.27,-3.28,8.64,8.65,8.64
21.87,13.92,5.28,13.91,5.27,-5.26,-5.28,-3.37,8.66,8.66,8.64
22.09,13.97,5.32,13.97,5.32,-5.31,-5.29,-3.46,8.66,8.66,8.65
22.31,14.00,5.35,14.01,5.36,-5.35,-5.30,-3.56,8.65,8.65,8.65
22.54,14.04,5.39,14.04,5.40,-5.40,-5.31,-3.66,8.64,8.64,8.65
22.76,14.07,5.43,14.07,5.43,-5.44,-5.33,-3.77,8.63,8.63,8.64
22.99,14.10,5.47,14.09,5.47,-5.47,-5.34,-3.87,8.63,8.62,8.63
23.22,14.11,5.48,14.11,5.49,-5.49,-5.35,-3.98,8.62,8.62,8.62
23.45,14.13,5.52,14.13,5.52,-5.51,-5.36,-4.09,8.62,8.63,8.61
23.69,14.14,5.53,14.15,5.53,-5.50,-5.38,-4.20,8.63,8.64,8.61
23.92,14.16,5.55,14.15,5.53,-5.50,-5.39,-4.32,8.66,8.65,8.61
24.16,14.14,5.52,14.13,5.51,-5.49,-5.41,-4.44,8.65,8.65,8.62
24.40,14.10,5.48,14.10,5.48,-5.48,-5.42,-4.56,8.62,8.62,8.62
24.65,14.06,5.45,14.06,5.44,-5.48,-5.44,-4.68,8.58,8.58,8.61
24.89,14.03,5.42,14.04,5.43,-5.49,-5.45,-4.80,8.54,8.56,8.61
25.14,14.05,5.44,14.06,5.45,-5.50,-5.47,-4.93,8.55,8.56,8.61
25.39,14.11,5.50,14.11,5.50,-5.52,-5.48,-5.05,8.59,8.58,8.61
25.65,14.17,5.57,14.17,5.57,-5.55,-5.50,-5.18,8.61,8.62,8.60
25.91,14.24,5.65,14.23,5.63,-5.59,-5.52,-5.31,8.65,8.64,8.59
26.16,14.26,5.67,14.25,5.66,-5.62,-5.53,-5.43,8.63,8.63,8.59
26.43,14.26,5.67,14.26,5.68,-5.66,-5.55,-5.56,8.60,8.61,8.59
26.69,14.26,5.67,14.26,5.68,-5.68,-5.57,-5.69,8.58,8.58,8.59
26.96,14.26,5.68,14.26,5.68,-5.69,-5.58,-5.81,8.57,8.57,8.58
27.23,14.26,5.68,14.26,5.68,-5.69,-5.60,-5.93,8.57,8.57,8.58
27.50,14.26,5.68,14.26,5.69,-5.69,-5.62,-6.05,8.57,8.58,8.58
27.77,14.26,5.69,14.26,5.69,-5.67,-5.64,-6.17,8.58,8.58,8.57
28.05,14.26,5.69,14.25,5.69,-5.67,-5.65,-6.29,8.59,8.58,8.56
28.33,14.23,5.68,14.23,5.67,-5.67,-5.67,-6.39,8.56,8.56,8.55
28.62,14.21,5.66,14.21,5.66,-5.68,-5.69,-6.50,8.53,8.53,8.55
28.90,14.19,5.64,14.20,5.65,-5.69,-5.71,-6.60,8.50,8.51,8.55
29.19,14.22,5.67,14.22,5.67,-5.71,-5.73,-6.69,8.51,8.52,8.55
29.48,14.27,5.71,14.27,5.72,-5.73,-5.75,-6.77,8.54,8.54,8.56
29.78,14.33,5.78,14.32,5.77,-5.75,-5.76,-6.85,8.58,8.57,8.55
30.08,14.37,5.81,14.36,5.81,-5.78,-5.78,-6.92,8.59,8.58,8.56
30.38,14.37,5.83,14.37,5.83,-5.80,-5.80,-6.98,8.57,8.57,8.54
30.68,14.37,5.83,14.37,5.84,-5.83,-5.82,-7.03,8.54,8.55,8.54
30.99,14.37,5.84,14.37,5.84,-5.84,-5.84,-7.07,8.53,8.53,8.52
31.30,14.37,5.85,14.37,5.85,-5.84,-5.85,-7.10,8.53,8.53,8.52
31.61,14.37,5.85,14.37,5.86,-5.85,-5.87,-7.12,8.52,8.52,8.52
31.93,14.37,5.87,14.37,5.86,-5.86,-5.89,-7.13,8.51,8.51,8.50
32.24,14.37,5.88,14.36,5.87,-5.89,-5.91,-7.14,8.48,8.47,8.49
32.57,14.37,5.88,14.36,5.88,-5.93,-5.93,-7.13,8.44,8.43,8.49
32.89,14.37,5.89,14.39,5.91,-5.97,-5.94,-7.12,8.40,8.42,8.48
33.22,14.43,5.97,14.45,5.99,-6.01,-5.96,-7.10,8.42,8.44,8.46
33.55,14.53,6.08,14.53,6.08,-6.05,-5.98,-7.07,8.48,8.48,8.45
33.89,14.62,6.19,14.59,6.15,-6.08,-6.00,-7.03,8.54,8.51,8.43
34.23,14.61,6.18,14.60,6.17,-6.10,-6.01,-6.99,8.51,8.49,8.43
34.57,14.55,6.14,14.55,6.14,-6.12,-6.03,-6.95,8.43,8.43,8.41
34.92,14.48,6.08,14.50,6.10,-6.13,-6.05,-6.89,8.35,8.37,8.40
35.27,14.47,6.07,14.47,6.08,-6.13,-6.06,-6.84,8.34,8.34,8.39
35.62,14.47,6.10,14.46,6.09,-6.12,-6.08,-6.78,8.35,8.34,8.37
35.97,14.47,6.11,14.47,6.10,-6.11,-6.10,-6.72,8.36,8.36,8.36
36.33,14.47,6.11,14.47,6.12,-6.11,-6.11,-6.66,8.36,8.36,8.36
36.70,14.47,6.12,14.47,6.12,-6.12,-6.13,-6.60,8.35,8.35,8.35
37.06,14.47,6.14,14.47,6.13,-6.13,-6.15,-6.53,8.34,8.34,8.33
37.43,14.47,6.13,14.47,6.14,-6.14,-6.16,-6.47,8.33,8.33,8.34
37.81,14.47,6.14,14.47,6.14,-6.14,-6.18,-6.41,8.33,8.33,8.33
38.19,14.47,6.15,14.47,6.14,-6.13,-6.19,-6.35,8.34,8.33,8.32
38.57,14.46,6.14,14.46,6.14,-6.12,-6.21,-6.29,8.34,8.34,8.32
38.95,14.45,6.14,14.44,6.13,-6.11,-6.22,-6.23,8.34,8.34,8.31
39.34,14.42,6.11,14.42,6.11,-6.10,-6.24,-6.18,8.32,8.32,8.31
39.74,14.39,6.10,14.39,6.10,-6.11,-6.25,-6.13,8.28,8.29,8.29
40.14,14.37,6.08,14.37,6.07,-6.12,-6.26,-6.08,8.25,8.24,8.29
40.54,14.37,6.08,14.36,6.07,-6.15,-6.28,-6.04,8.22,8.22,8.29
40.94,14.37,6.09,14.40,6.12,-6.17,-6.29,-5.99,8.20,8.23,8.28
41.35,14.47,6.20,14.48,6.21,-6.20,-6.30,-5.96,8.27,8.29,8.27
41.76,14.58,6.32,14.55,6.29,-6.22,-6.32,-5.92,8.36,8.33,8.26
42.18,14.62,6.37,14.58,6.33,-6.25,-6.33,-5.89,8.37,8.33,8.25
42.60,14.54,6.30,14.55,6.31,-6.27,-6.34,-5.87,8.27,8.28,8.24
43.03,14.47,6.23,14.50,6.27,-6.29,-6.35,-5.84,8.18,8.21,8.23
43.46,14.47,6.26,14.46,6.25,-6.30,-6.37,-5.83,8.16,8.16,8.21
43.90,14.47,6.28,14.46,6.27,-6.31,-6.38,-5.81,8.16,8.15,8.19
44.33,14.47,6.30,14.47,6.30,-6.31,-6.39,-5.81,8.16,8.16,8.17
44.78,14.47,6.32,14.47,6.32,-6.31,-6.40,-5.80,8.16,8.16,8.15
45.23,14.47,6.34,14.47,6.34,-6.33,-6.41,-5.80,8.14,8.14,8.13
45.68,14.47,6.35,14.47,6.35,-6.34,-6.42,-5.81,8.13,8.13,8.12
46.13,14.47,6.37,14.47,6.37,-6.36,-6.43,-5.81,8.11,8.11,8.10
46.60,14.47,6.37,14.47,6.38,-6.37,-6.44,-5.83,8.10,8.10,8.09
47.06,14.47,6.38,14.47,6.38,-6.38,-6.45,-5.84,8.08,8.08,8.09
47.53,14.47,6.39,14.47,6.39,-6.39,-6.46,-5.87,8.08,8.08,8.08
48.01,14.47,6.39,14.47,6.40,-6.40,-6.47,-5.89,8.07,8.07,8.08
48.49,14.47,6.41,14.47,6.41,-6.42,-6.48,-5.92,8.05,8.05,8.06
48.97,14.47,6.43,14.47,6.43,-6.43,-6.49,-5.95,8.04,8.04,8.04
49.46,14.47,6.43,14.47,6.44,-6.44,-6.50,-5.99,8.02,8.02,8.04
49.96,14.47,6.45,14.47,6.44,-6.45,-6.51,-6.03,8.02,8.02,8.02
50.46,14.47,6.44,14.47,6.44,-6.43,-6.52,-6.07,8.03,8.03,8.03
50.96,14.47,6.45,14.48,6.46,-6.41,-6.53,-6.11,8.06,8.07,8.02
51.47,14.47,6.45,14.48,6.46,-6.38,-6.53,-6.16,8.09,8.09,8.01
51.99,14.47,6.46,14.40,6.39,-6.36,-6.54,-6.21,8.11,8.04,8.01
52.51,14.32,6.31,14.32,6.31,-6.34,-6.55,-6.26,7.98,7.97,8.01
53.03,14.18,6.17,14.27,6.27,-6.35,-6.56,-6.31,7.83,7.93,8.01
53.56,14.28,6.28,14.26,6.26,-6.36,-6.56,-6.36,7.92,7.90,8.00
54.10,14.37,6.38,14.31,6.31,-6.39,-6.57,-6.42,7.98,7.92,7.99
54.64,14.37,6.38,14.40,6.42,-6.42,-6.58,-6.47,7.95,7.98,7.99
55.18,14.43,6.45,14.49,6.51,-6.45,-6.59,-6.53,7.98,8.04,7.98
55.74,14.61,6.64,14.55,6.58,-6.49,-6.59,-6.58,8.12,8.06,7.97
56.29,14.63,6.66,14.57,6.61,-6.53,-6.60,-6.63,8.10,8.04,7.97
56.86,14.50,6.56,14.55,6.60,-6.57,-6.61,-6.68,7.93,7.98,7.95
57.42,14.47,6.54,14.49,6.55,-6.60,-6.61,-6.73,7.87,7.89,7.93
58.00,14.47,6.55,14.45,6.53,-6.61,-6.62,-6.78,7.86,7.84,7.92
58.58,14.47,6.56,14.47,6.57,-6.62,-6.62,-6.82,7.84,7.85,7.91
59.16,14.49,6.60,14.51,6.61,-6.63,-6.63,-6.86,7.86,7.87,7.89
59.76,14.55,6.68,14.54,6.67,-6.64,-6.64,-6.90,7.90,7.90,7.87
60.35,14.57,6.72,14.55,6.71,-6.65,-6.64,-6.93,7.92,7.90,7.85
60.96,14.54,6.72,14.52,6.70,-6.65,-6.65,-6.96,7.88,7.86,7.82
61.57,14.44,6.66,14.46,6.68,-6.65,-6.66,-6.98,7.79,7.81,7.78
62.18,14.37,6.63,14.40,6.66,-6.64,-6.66,-7.00,7.73,7.76,7.74
62.80,14.37,6.66,14.33,6.62,-6.63,-6.67,-7.02,7.74,7.70,7.71
63.43,14.28,6.61,14.26,6.59,-6.61,-6.68,-7.03,7.67,7.65,7.67
64.07,14.16,6.53,14.20,6.57,-6.61,-6.68,-7.03,7.55,7.59,7.63
64.71,14.16,6.56,14.17,6.57,-6.63,-6.69,-7.03,7.53,7.54,7.60
65.35,14.20,6.63,14.19,6.63,-6.67,-6.70,-7.03,7.53,7.52,7.57
66.01,14.26,6.73,14.24,6.71,-6.72,-6.70,-7.02,7.54,7.51,7.53
66.67,14.26,6.77,14.25,6.75,-6.77,-6.71,-7.01,7.49,7.47,7.49
67.33,14.26,6.80,14.28,6.82,-6.80,-6.72,-7.00,7.46,7.48,7.46
68.01,14.26,6.84,14.33,6.91,-6.82,-6.73,-6.98,7.44,7.52,7.42
68.69,14.42,7.04,14.34,6.96,-6.83,-6.73,-6.96,7.59,7.51,7.38
69.37,14.34,7.00,14.26,6.92,-6.86,-6.74,-6.94,7.48,7.40,7.34
70.07,14.08,6.78,14.12,6.82,-6.88,-6.75,-6.92,7.20,7.24,7.30
70.77,13.91,6.65,13.99,6.72,-6.89,-6.76,-6.89,7.02,7.09,7.26
71.48,13.95,6.73,13.95,6.73,-6.89,-6.77,-6.87,7.05,7.06,7.22
72.19,14.07,6.89,14.05,6.87,-6.88,-6.78,-6.85,7.18,7.16,7.18
72.91,14.11,6.99,14.16,7.03,-6.87,-6.79,-6.82,7.24,7.29,7.12
73.64,14.23,7.15,14.13,7.05,-6.88,-6.80,-6.80,7.35,7.25,7.08
74.38,14.07,7.04,13.99,6.96,-6.89,-6.81,-6.78,7.18,7.10,7.03
75.12,13.71,6.72,13.86,6.87,-6.92,-6.82,-6.76,6.79,6.94,6.99
75.87,13.74,6.79,13.76,6.81,-6.95,-6.83,-6.75,6.79,6.81,6.95
76.63,13.82,6.91,13.77,6.86,-6.98,-6.84,-6.73,6.84,6.79,6.91
77.40,13.86,6.98,13.83,6.96,-6.99,-6.85,-6.72,6.87,6.84,6.88
78.17,13.86,7.02,13.88,7.04,-7.01,-6.87,-6.71,6.85,6.87,6.84
78.95,13.86,7.05,13.93,7.12,-7.05,-6.88,-6.71,6.81,6.88,6.81
79.74,14.02,7.24,13.95,7.17,-7.10,-6.89,-6.71,6.92,6.85,6.78
80.54,13.97,7.22,13.93,7.18,-7.13,-6.91,-6.71,6.83,6.80,6.75
81.35,13.84,7.12,13.87,7.15,-7.15,-6.92,-6.72,6.69,6.72,6.72
82.16,13.76,7.07,13.79,7.10,-7.14,-6.94,-6.73,6.62,6.64,6.69
82.98,13.76,7.09,13.76,7.11,-7.12,-6.96,-6.75,6.64,6.64,6.66
83.81,13.76,7.14,13.76,7.13,-7.10,-6.98,-6.77,6.66,6.66,6.62
84.65,13.76,7.17,13.70,7.11,-7.09,-6.99,-6.80,6.67,6.62,6.59
85.50,13.62,7.05,13.62,7.06,-7.09,-7.01,-6.83,6.53,6.53,6.57
86.35,13.50,6.97,13.57,7.04,-7.10,-7.03,-6.86,6.40,6.47,6.53
87.22,13.56,7.06,13.56,7.07,-7.13,-7.06,-6.90,6.43,6.44,6.50
88.09,13.66,7.20,13.61,7.15,-7.16,-7.08,-6.95,6.50,6.46,6.46
88.97,13.66,7.22,13.66,7.23,-7.18,-7.10,-7.00,6.47,6.48,6.44
89.86,13.67,7.27,13.68,7.27,-7.22,-7.13,-7.06,6.45,6.46,6.40
90.76,13.67,7.30,13.67,7.30,-7.27,-7.15,-7.12,6.40,6.40,6.37
91.66,13.67,7.33,13.67,7.34,-7.33,-7.18,-7.18,6.34,6.34,6.34
92.58,13.67,7.37,13.66,7.36,-7.39,-7.21,-7.25,6.28,6.28,6.30
93.51,13.67,7.39,13.66,7.38,-7.44,-7.23,-7.33,6.23,6.22,6.27
94.44,13.67,7.42,13.69,7.44,-7.49,-7.26,-7.41,6.18,6.20,6.25
95.39,13.72,7.50,13.77,7.56,-7.54,-7.29,-7.50,6.18,6.23,6.22
96.34,13.87,7.69,13.83,7.65,-7.61,-7.33,-7.59,6.26,6.22,6.18
97.30,13.94,7.79,13.85,7.69,-7.68,-7.36,-7.69,6.25,6.16,6.15
98.28,13.78,7.66,13.84,7.71,-7.74,-7.39,-7.78,6.04,6.10,6.12
99.26,13.77,7.66,13.85,7.75,-7.77,-7.43,-7.89,6.00,6.08,6.10
100.25,13.90,7.82,13.88,7.80,-7.78,-7.47,-8.00,6.12,6.10,6.08
101.25,14.02,7.97,13.93,7.89,-7.78,-7.50,-8.11,6.23,6.15,6.05
102.27,13.86,7.84,13.91,7.90,-7.79,-7.54,-8.22,6.07,6.13,6.02
103.29,13.80,7.83,13.75,7.77,-7.79,-7.58,-8.34,6.01,5.96,5.97
104.32,13.63,7.68,13.58,7.63,-7.78,-7.63,-8.45,5.85,5.80,5.95
105.37,13.39,7.48,13.58,7.67,-7.77,-7.67,-8.57,5.62,5.81,5.91
106.42,13.63,7.75,13.66,7.78,-7.77,-7.71,-8.69,5.86,5.88,5.88
107.48,13.92,8.08,13.75,7.91,-7.79,-7.76,-8.81,6.13,5.96,5.84
108.56,13.77,7.97,13.70,7.90,-7.83,-7.80,-8.93,5.93,5.86,5.80
109.64,13.55,7.79,13.59,7.83,-7.91,-7.85,-9.05,5.64,5.68,5.76
110.74,13.36,7.63,13.61,7.88,-8.01,-7.90,-9.16,5.35,5.60,5.73
111.85,13.85,8.14,13.75,8.05,-8.11,-7.95,-9.27,5.74,5.63,5.70
112.97,14.09,8.43,13.87,8.21,-8.19,-8.00,-9.38,5.90,5.69,5.66
114.10,13.88,8.24,13.97,8.34,-8.24,-8.05,-9.48,5.64,5.73,5.64
115.24,13.84,8.24,14.01,8.41,-8.29,-8.10,-9.57,5.55,5.72,5.60
116.39,14.08,8.51,14.00,8.43,-8.35,-8.15,-9.65,5.73,5.65,5.57
117.55,14.18,8.64,13.96,8.41,-8.41,-8.20,-9.73,5.77,5.55,5.54
118.73,13.77,8.25,13.91,8.38,-8.45,-8.26,-9.79,5.32,5.46,5.52
119.92,13.67,8.16,13.84,8.34,-8.47,-8.31,-9.84,5.20,5.37,5.51
121.12,14.01,8.53,13.87,8.38,-8.50,-8.36,-9.88,5.51,5.37,5.48
122.33,14.02,8.55,13.99,8.52,-8.51,-8.41,-9.91,5.51,5.48,5.47
123.55,14.03,8.57,14.06,8.61,-8.52,-8.47,-9.92,5.51,5.54,5.46
124.79,14.03,8.60,14.05,8.61,-8.52,-8.52,-9.91,5.51,5.53,5.43
126.03,14.04,8.62,14.05,8.63,-8.52,-8.57,-9.90,5.52,5.53,5.42
127.29,14.05,8.64,13.96,8.56,-8.53,-8.62,-9.86,5.52,5.43,5.40
128.57,13.89,8.51,13.87,8.48,-8.54,-8.66,-9.82,5.34,5.32,5.38
129.85,13.66,8.29,13.81,8.44,-8.56,-8.71,-9.76,5.10,5.25,5.37
131.15,13.84,8.49,13.80,8.45,-8.57,-8.75,-9.69,5.27,5.24,5.35
132.46,13.93,8.59,13.86,8.52,-8.59,-8.80,-9.60,5.34,5.28,5.34
133.79,13.97,8.63,14.00,8.67,-8.62,-8.84,-9.50,5.35,5.38,5.34
135.12,14.00,8.69,14.08,8.76,-8.66,-8.87,-9.40,5.34,5.42,5.31
136.48,14.22,8.91,14.11,8.80,-8.72,-8.90,-9.28,5.50,5.39,5.31
137.84,14.10,8.81,14.06,8.78,-8.78,-8.93,-9.16,5.32,5.28,5.29
139.22,13.95,8.69,14.01,8.75,-8.81,-8.96,-9.03,5.14,5.20,5.26
140.61,13.89,8.65,14.00,8.75,-8.82,-8.98,-8.89,5.07,5.18,5.24
142.02,14.10,8.86,14.03,8.79,-8.80,-9.00,-8.75,5.30,5.23,5.24
143.44,14.16,8.94,14.08,8.86,-8.77,-9.01,-8.60,5.39,5.31,5.22
144.87,13.95,8.76,14.05,8.85,-8.74,-9.02,-8.46,5.21,5.31,5.19
146.32,13.97,8.80,13.87,8.70,-8.71,-9.02,-8.31,5.26,5.16,5.17
147.78,13.73,8.59,13.73,8.59,-8.69,-9.01,-8.16,5.04,5.04,5.14
149.26,13.54,8.43,13.70,8.60,-8.67,-9.00,-8.01,4.87,5.03,5.11
150.75,13.72,8.67,13.64,8.59,-8.64,-8.99,-7.86,5.08,5.00,5.05
152.26,13.74,8.73,13.62,8.61,-8.61,-8.97,-7.71,5.13,5.01,5.01
153.78,13.49,8.54,13.59,8.64,-8.58,-8.94,-7.57,4.90,5.00,4.95
155.32,13.44,8.55,13.49,8.59,-8.56,-8.91,-7.42,4.88,4.92,4.89
156.88,13.46,8.62,13.39,8.56,-8.54,-8.87,-7.28,4.92,4.85,4.84
158.44,13.32,8.55,13.29,8.52,-8.49,-8.83,-7.15,4.82,4.80,4.76
160.03,13.13,8.43,13.16,8.46,-8.42,-8.78,-7.01,4.71,4.74,4.70
161.63,12.97,8.32,13.02,8.38,-8.34,-8.73,-6.88,4.63,4.68,4.65
163.24,12.96,8.37,12.90,8.30,-8.27,-8.67,-6.76,4.69,4.63,4.59
164.88,12.80,8.24,12.77,8.21,-8.23,-8.61,-6.63,4.57,4.54,4.56
166.53,12.63,8.11,12.64,8.12,-8.21,-8.54,-6.51,4.42,4.43,4.52
168.19,12.50,8.01,12.57,8.07,-8.22,-8.47,-6.40,4.28,4.35,4.49
169.87,12.59,8.12,12.58,8.12,-8.23,-8.40,-6.29,4.35,4.35,4.47
171.57,12.72,8.27,12.69,8.24,-8.25,-8.32,-6.18,4.46,4.44,4.45
173.29,12.79,8.35,12.83,8.39,-8.27,-8.24,-6.08,4.52,4.56,4.44
175.02,12.91,8.47,12.86,8.43,-8.28,-8.16,-5.98,4.63,4.58,4.43
176.77,12.89,8.46,12.81,8.38,-8.28,-8.08,-5.89,4.61,4.53,4.43
178.54,12.61,8.19,12.73,8.30,-8.26,-8.00,-5.80,4.35,4.47,4.42
180.32,12.60,8.16,12.60,8.17,-8.21,-7.91,-5.72,4.39,4.39,4.44
182.13,12.57,8.13,12.47,8.03,-8.13,-7.83,-5.64,4.44,4.34,4.44
183.95,12.35,7.91,12.42,7.98,-8.02,-7.75,-5.56,4.33,4.40,4.44
185.79,12.27,7.83,12.33,7.90,-7.90,-7.67,-5.49,4.37,4.43,4.44
187.65,12.34,7.92,12.24,7.81,-7.79,-7.59,-5.42,4.55,4.45,4.42
189.52,12.15,7.73,12.16,7.74,-7.69,-7.51,-5.36,4.46,4.46,4.42
191.42,11.99,7.58,12.02,7.61,-7.59,-7.43,-5.30,4.40,4.43,4.41
193.33,11.87,7.47,11.85,7.45,-7.49,-7.35,-5.24,4.37,4.35,4.39
195.27,11.72,7.34,11.73,7.35,-7.39,-7.28,-5.19,4.33,4.34,4.38
197.22,11.61,7.25,11.64,7.27,-7.27,-7.20,-5.14,4.34,4.36,4.36
199.19,11.55,7.21,11.53,7.19,-7.16,-7.13,-5.09,4.39,4.37,4.34
201.18,11.45,7.12,11.40,7.08,-7.06,-7.06,-5.05,4.39,4.35,4.33
203.19,11.25,6.93,11.26,6.95,-6.96,-6.98,-5.01,4.29,4.31,4.32
205.23,11.08,6.79,11.13,6.83,-6.87,-6.90,-4.97,4.21,4.26,4.29
207.28,11.03,6.74,11.01,6.73,-6.77,-6.81,-4.94,4.26,4.23,4.29
209.35,10.94,6.68,10.91,6.65,-6.66,-6.71,-4.90,4.28,4.25,4.26
211.44,10.79,6.55,10.82,6.58,-6.54,-6.60,-4.87,4.25,4.28,4.24
213.56,10.70,6.47,10.70,6.46,-6.41,-6.49,-4.84,4.29,4.29,4.23
215.69,10.58,6.35,10.54,6.32,-6.27,-6.35,-4.81,4.31,4.27,4.23
217.85,10.35,6.13,10.36,6.15,-6.12,-6.21,-4.79,4.23,4.24,4.22
220.03,10.15,5.95,10.16,5.95,-5.96,-6.05,-4.76,4.19,4.20,4.20
222.23,9.95,5.76,9.96,5.76,-5.80,-5.88,-4.73,4.15,4.16,4.19
224.45,9.79,5.58,9.79,5.59,-5.63,-5.70,-4.71,4.16,4.16,4.21
226.70,9.64,5.43,9.63,5.42,-5.47,-5.50,-4.68,4.17,4.16,4.21
228.96,9.48,5.27,9.50,5.28,-5.31,-5.30,-4.65,4.17,4.19,4.21
231.25,9.38,5.15,9.38,5.15,-5.15,-5.10,-4.63,4.23,4.23,4.23
233.57,9.26,5.02,9.25,5.02,-4.99,-4.89,-4.60,4.27,4.26,4.24
235.90,9.14,4.89,9.13,4.88,-4.83,-4.69,-4.57,4.31,4.30,4.25
238.26,8.97,4.69,8.98,4.70,-4.67,-4.48,-4.54,4.30,4.32,4.28
240.64,8.83,4.53,8.81,4.50,-4.50,-4.28,-4.50,4.33,4.31,4.30
243.05,8.63,4.29,8.63,4.30,-4.32,-4.08,-4.47,4.31,4.31,4.34
245.48,8.44,4.08,8.47,4.11,-4.14,-3.89,-4.43,4.30,4.33,4.36
247.93,8.32,3.93,8.32,3.93,-3.95,-3.70,-4.39,4.36,4.36,4.39
250.41,8.19,3.79,8.17,3.76,-3.77,-3.52,-4.35,4.42,4.40,4.40
252.92,8.03,3.59,8.02,3.59,-3.58,-3.35,-4.31,4.45,4.44,4.44
255.45,7.85,3.39,7.87,3.41,-3.40,-3.19,-4.26,4.45,4.47,4.46
258.00,7.70,3.22,7.71,3.23,-3.21,-3.03,-4.21,4.49,4.50,4.48
260.58,7.57,3.08,7.54,3.04,-3.02,-2.88,-4.16,4.55,4.52,4.49
263.19,7.37,2.85,7.36,2.84,-2.82,-2.74,-4.11,4.54,4.54,4.52
265.82,7.15,2.61,7.17,2.63,-2.63,-2.62,-4.05,4.52,4.54,4.54
268.48,6.99,2.43,6.99,2.43,-2.44,-2.50,-4.00,4.55,4.54,4.56
271.16,6.84,2.25,6.84,2.25,-2.26,-2.38,-3.94,4.57,4.57,4.59
273.87,6.71,2.10,6.70,2.09,-2.10,-2.28,-3.88,4.61,4.60,4.61
276.61,6.59,1.96,6.58,1.95,-1.95,-2.19,-3.82,4.64,4.63,4.63
279.38,6.47,1.81,6.49,1.83,-1.83,-2.10,-3.75,4.64,4.66,4.66
282.17,6.41,1.73,6.41,1.72,-1.73,-2.03,-3.69,4.68,4.67,4.68
284.99,6.38,1.67,6.35,1.64,-1.66,-1.96,-3.63,4.72,4.69,4.71
287.84,6.31,1.57,6.35,1.61,-1.62,-1.89,-3.56,4.69,4.73,4.74
290.72,6.36,1.58,6.37,1.60,-1.61,-1.84,-3.50,4.75,4.76,4.78
293.63,6.46,1.65,6.40,1.60,-1.63,-1.79,-3.43,4.83,4.77,4.81
296.57,6.47,1.63,6.48,1.64,-1.67,-1.75,-3.37,4.80,4.81,4.84
299.53,6.51,1.65,6.58,1.71,-1.71,-1.71,-3.30,4.79,4.86,4.86
302.53,6.70,1.81,6.66,1.76,-1.76,-1.67,-3.24,4.94,4.90,4.89
305.55,6.81,1.88,6.77,1.86,-1.80,-1.64,-3.18,5.01,4.97,4.93
308.61,6.79,1.85,6.85,1.91,-1.84,-1.62,-3.12,4.95,5.02,4.94
311.69,6.92,1.96,6.86,1.89,-1.87,-1.60,-3.06,5.05,5.00,4.96
314.81,6.86,1.86,6.85,1.86,-1.88,-1.58,-3.00,4.98,4.97,5.00
317.96,6.81,1.80,6.83,1.82,-1.87,-1.56,-2.94,4.94,4.97,5.01
321.14,6.81,1.78,6.82,1.80,-1.82,-1.54,-2.88,4.99,5.00,5.03
324.35,6.82,1.78,6.87,1.83,-1.77,-1.53,-2.83,5.05,5.10,5.03
327.59,6.92,1.87,6.85,1.80,-1.72,-1.52,-2.77,5.20,5.13,5.05
330.87,6.83,1.77,6.75,1.69,-1.67,-1.51,-2.72,5.16,5.08,5.06
334.18,6.55,1.48,6.64,1.57,-1.62,-1.50,-2.67,4.93,5.02,5.07
337.52,6.49,1.41,6.53,1.45,-1.57,-1.49,-2.62,4.92,4.96,5.08
340.90,6.57,1.47,6.54,1.45,-1.51,-1.48,-2.58,5.06,5.03,5.10
344.30,6.60,1.49,6.62,1.52,-1.45,-1.48,-2.53,5.14,5.17,5.11
347.75,6.68,1.57,6.61,1.50,-1.40,-1.47,-2.49,5.28,5.21,5.11
351.23,6.57,1.45,6.53,1.41,-1.35,-1.47,-2.45,5.22,5.18,5.12
354.74,6.36,1.24,6.45,1.32,-1.33,-1.46,-2.41,5.03,5.12,5.12
358.28,6.37,1.24,6.38,1.25,-1.31,-1.46,-2.37,5.06,5.07,5.13
361.87,6.41,1.28,6.38,1.24,-1.31,-1.46,-2.34,5.10,5.07,5.13
365.49,6.41,1.27,6.41,1.27,-1.30,-1.46,-2.30,5.11,5.10,5.14
369.14,6.42,1.28,6.41,1.27,-1.31,-1.46,-2.27,5.11,5.10,5.14
372.83,6.43,1.29,6.46,1.32,-1.32,-1.46,-2.24,5.11,5.14,5.14
376.56,6.50,1.36,6.54,1.40,-1.35,-1.47,-2.21,5.15,5.18,5.14
380.33,6.68,1.52,6.60,1.45,-1.39,-1.47,-2.19,5.28,5.20,5.15
384.13,6.62,1.48,6.61,1.47,-1.43,-1.48,-2.16,5.19,5.18,5.14
387.97,6.57,1.43,6.60,1.46,-1.46,-1.48,-2.14,5.11,5.14,5.14
391.85,6.56,1.42,6.58,1.43,-1.47,-1.49,-2.11,5.09,5.10,5.14
395.77,6.63,1.48,6.61,1.47,-1.49,-1.51,-2.09,5.14,5.13,5.15
399.73,6.66,1.51,6.68,1.53,-1.50,-1.52,-2.07,5.16,5.18,5.15
403.72,6.73,1.59,6.72,1.57,-1.52,-1.54,-2.05,5.21,5.20,5.14
407.76,6.75,1.61,6.68,1.53,-1.56,-1.56,-2.03,5.19,5.12,5.14
411.84,6.64,1.49,6.66,1.52,-1.60,-1.58,-2.01,5.04,5.06,5.15
415.96,6.60,1.46,6.74,1.60,-1.66,-1.61,-1.99,4.94,5.08,5.14
420.12,6.90,1.76,6.84,1.71,-1.72,-1.64,-1.97,5.18,5.12,5.14
424.32,7.09,1.94,6.96,1.82,-1.78,-1.67,-1.96,5.31,5.18,5.15
428.56,6.98,1.83,7.05,1.90,-1.84,-1.70,-1.94,5.14,5.21,5.15
432.85,7.02,1.85,7.08,1.92,-1.91,-1.74,-1.92,5.11,5.18,5.17
437.18,7.19,2.00,7.14,1.95,-1.97,-1.78,-1.90,5.22,5.17,5.18
441.55,7.25,2.02,7.23,2.02,-2.02,-1.83,-1.88,5.23,5.22,5.22
445.96,7.29,2.04,7.30,2.05,-2.05,-1.87,-1.86,5.24,5.26,5.25
450.42,7.34,2.06,7.34,2.05,-2.05,-1.92,-1.84,5.29,5.29,5.28
454.93,7.40,2.06,7.41,2.07,-2.05,-1.96,-1.82,5.35,5.36,5.34
459.48,7.46,2.08,7.47,2.09,-2.04,-2.01,-1.80,5.42,5.43,5.38
464.07,7.53,2.09,7.49,2.05,-2.04,-2.04,-1.77,5.49,5.45,5.44
468.71,7.51,2.02,7.48,1.99,-2.02,-2.08,-1.74,5.49,5.46,5.49
473.40,7.42,1.88,7.49,1.95,-2.00,-2.10,-1.71,5.42,5.49,5.54
478.13,7.53,1.94,7.53,1.94,-1.98,-2.11,-1.68,5.55,5.55,5.59
482.91,7.63,2.00,7.60,1.96,-1.96,-2.11,-1.65,5.67,5.64,5.63
487.74,7.67,1.99,7.65,1.97,-1.93,-2.10,-1.61,5.74,5.72,5.68
492.62,7.64,1.92,7.65,1.93,-1.89,-2.07,-1.57,5.75,5.75,5.72
497.55,7.61,1.86,7.62,1.86,-1.86,-2.03,-1.53,5.75,5.76,5.75
502.52,7.59,1.81,7.61,1.84,-1.83,-1.98,-1.49,5.76,5.78,5.78
