frequency,raw,error,smoothed,error_smoothed,equalization,parametric_eq,fixed_band_eq,equalized_raw,equalized_smoothed,target
20.00,-22.43,-19.59,-22.43,-19.59,6.00,5.44,2.82,-16.43,-16.43,-2.84
20.20,-22.30,-19.52,-22.30,-19.51,6.00,5.48,2.90,-16.30,-16.30,-2.78
20.40,-22.16,-19.43,-22.16,-19.43,6.00,5.52,2.98,-16.16,-16.16,-2.73
20.61,-22.03,-19.36,-22.03,-19.35,6.00,5.55,3.06,-16.03,-16.03,-2.67
20.81,-21.89,-19.27,-21.89,-19.27,6.00,5.59,3.15,-15.89,-15.89,-2.62
21.02,-21.76,-19.20,-21.76,-19.19,6.00,5.62,3.24,-15.76,-15.76,-2.56
21.23,-21.62,-19.11,-21.62,-19.11,6.00,5.65,3.33,-15.62,-15.62,-2.51
21.44,-21.48,-19.02,-21.48,-19.02,6.00,5.69,3.42,-15.48,-15.48,-2.46
21.66,-21.35,-18.94,-21.35,-18.93,6.00,5.72,3.52,-15.35,-15.35,-2.41
21.87,-21.21,-18.85,-21.21,-18.85,6.00,5.75,3.62,-15.21,-15.21,-2.36
22.09,-21.07,-18.76,-21.07,-18.76,6.00,5.78,3.72,-15.07,-15.07,-2.31
22.31,-20.93,-18.67,-20.93,-18.66,6.00,5.81,3.82,-14.93,-14.93,-2.26
22.54,-20.79,-18.57,-20.79,-18.57,6.00,5.84,3.93,-14.79,-14.79,-2.22
22.76,-20.65,-18.48,-20.65,-18.48,6.00,5.87,4.04,-14.65,-14.65,-2.17
22.99,-20.51,-18.38,-20.51,-18.38,6.00,5.90,4.16,-14.51,-14.51,-2.13
23.22,-20.36,-18.28,-20.36,-18.28,6.00,5.93,4.27,-14.36,-14.36,-2.08
23.45,-20.22,-18.18,-20.22,-18.18,6.00,5.95,4.39,-14.22,-14.22,-2.04
23.69,-20.07,-18.08,-20.07,-18.08,6.00,5.98,4.51,-14.07,-14.07,-1.99
23.92,-19.93,-17.98,-19.93,-17.98,6.00,6.00,4.64,-13.93,-13.93,-1.95
24.16,-19.78,-17.88,-19.78,-17.87,6.00,6.03,4.76,-13.78,-13.78,-1.90
24.40,-19.63,-17.77,-19.63,-17.77,6.00,6.05,4.89,-13.63,-13.63,-1.86
24.65,-19.48,-17.66,-19.48,-17.66,6.00,6.08,5.02,-13.48,-13.48,-1.82
24.89,-19.33,-17.55,-19.33,-17.55,6.00,6.10,5.15,-13.33,-13.33,-1.78
25.14,-19.18,-17.44,-19.18,-17.44,6.00,6.12,5.29,-13.18,-13.18,-1.74
25.39,-19.03,-17.33,-19.03,-17.33,6.00,6.14,5.42,-13.03,-13.03,-1.70
25.65,-18.88,-17.22,-18.88,-17.22,6.00,6.16,5.56,-12.88,-12.88,-1.66
25.91,-18.73,-17.11,-18.73,-17.11,6.00,6.18,5.70,-12.73,-12.73,-1.62
26.16,-18.57,-16.99,-18.57,-16.99,6.00,6.19,5.83,-12.57,-12.57,-1.58
26.43,-18.42,-16.87,-18.42,-16.87,6.00,6.21,5.97,-12.42,-12.42,-1.55
26.69,-18.26,-16.75,-18.26,-16.75,6.00,6.23,6.10,-12.26,-12.26,-1.51
26.96,-18.10,-16.63,-18.11,-16.63,6.00,6.24,6.24,-12.10,-12.11,-1.47
27.23,-17.95,-16.51,-17.95,-16.51,6.00,6.26,6.37,-11.95,-11.95,-1.44
27.50,-17.79,-16.39,-17.79,-16.39,6.00,6.27,6.50,-11.79,-11.79,-1.40
27.77,-17.64,-16.28,-17.64,-16.27,6.00,6.28,6.62,-11.64,-11.64,-1.36
28.05,-17.48,-16.15,-17.48,-16.15,6.00,6.29,6.75,-11.48,-11.48,-1.33
28.33,-17.32,-16.03,-17.32,-16.03,6.00,6.30,6.86,-11.32,-11.32,-1.29
28.62,-17.16,-15.91,-17.16,-15.91,6.00,6.31,6.97,-11.16,-11.16,-1.25
28.90,-17.00,-15.79,-17.00,-15.78,6.00,6.32,7.07,-11.00,-11.00,-1.21
29.19,-16.83,-15.65,-16.83,-15.65,6.00,6.33,7.17,-10.83,-10.83,-1.18
29.48,-16.67,-15.53,-16.67,-15.53,6.00,6.34,7.25,-10.67,-10.67,-1.14
29.78,-16.50,-15.40,-16.50,-15.40,6.00,6.34,7.33,-10.50,-10.50,-1.10
30.08,-16.34,-15.27,-16.34,-15.27,6.00,6.35,7.40,-10.34,-10.34,-1.07
30.38,-16.17,-15.14,-16.17,-15.14,6.00,6.35,7.46,-10.17,-10.17,-1.03
30.68,-16.00,-15.00,-16.00,-15.00,6.00,6.35,7.50,-10.00,-10.00,-1.00
30.99,-15.83,-14.87,-15.83,-14.86,6.00,6.36,7.54,-9.83,-9.83,-0.96
31.30,-15.65,-14.72,-15.66,-14.72,6.00,6.36,7.56,-9.65,-9.66,-0.93
31.61,-15.48,-14.58,-15.48,-14.58,6.00,6.36,7.58,-9.48,-9.48,-0.90
31.93,-15.30,-14.43,-15.30,-14.43,6.00,6.36,7.58,-9.30,-9.30,-0.87
32.24,-15.12,-14.28,-15.12,-14.28,6.00,6.35,7.57,-9.12,-9.12,-0.84
32.57,-14.95,-14.14,-14.95,-14.13,6.00,6.35,7.55,-8.95,-8.95,-0.81
32.89,-14.77,-13.99,-14.77,-13.98,6.00,6.35,7.52,-8.77,-8.77,-0.78
33.22,-14.59,-13.83,-14.59,-13.83,6.00,6.34,7.48,-8.59,-8.59,-0.76
33.55,-14.41,-13.68,-14.41,-13.68,6.00,6.34,7.43,-8.41,-8.41,-0.73
33.89,-14.24,-13.53,-14.24,-13.53,6.00,6.33,7.38,-8.24,-8.24,-0.71
34.23,-14.07,-13.38,-14.07,-13.38,6.00,6.32,7.31,-8.07,-8.07,-0.69
34.57,-13.90,-13.24,-13.90,-13.24,6.00,6.32,7.25,-7.90,-7.90,-0.66
34.92,-13.74,-13.10,-13.74,-13.10,6.00,6.31,7.17,-7.74,-7.74,-0.64
35.27,-13.57,-12.95,-13.57,-12.95,6.00,6.30,7.09,-7.57,-7.57,-0.62
35.62,-13.41,-12.81,-13.41,-12.80,6.00,6.29,7.01,-7.41,-7.41,-0.60
35.97,-13.24,-12.66,-13.24,-12.66,6.00,6.27,6.93,-7.24,-7.24,-0.58
36.33,-13.08,-12.51,-13.08,-12.51,6.00,6.26,6.84,-7.08,-7.08,-0.57
36.70,-12.92,-12.37,-12.92,-12.37,6.00,6.25,6.75,-6.92,-6.92,-0.55
37.06,-12.76,-12.23,-12.76,-12.23,6.00,6.23,6.66,-6.76,-6.76,-0.53
37.43,-12.61,-12.09,-12.61,-12.09,6.00,6.22,6.58,-6.61,-6.61,-0.52
37.81,-12.45,-11.95,-12.45,-11.94,6.00,6.20,6.49,-6.45,-6.45,-0.50
38.19,-12.29,-11.80,-12.30,-11.80,6.00,6.19,6.40,-6.29,-6.30,-0.49
38.57,-12.14,-11.66,-12.14,-11.66,6.00,6.17,6.32,-6.14,-6.14,-0.48
38.95,-11.99,-11.52,-11.98,-11.51,6.00,6.15,6.23,-5.99,-5.98,-0.47
39.34,-11.83,-11.37,-11.83,-11.37,6.00,6.13,6.15,-5.83,-5.83,-0.46
39.74,-11.68,-11.23,-11.68,-11.23,6.00,6.11,6.08,-5.68,-5.68,-0.45
40.14,-11.53,-11.08,-11.54,-11.09,6.00,6.09,6.00,-5.53,-5.54,-0.45
40.54,-11.40,-10.96,-11.40,-10.96,6.00,6.07,5.93,-5.40,-5.40,-0.44
40.94,-11.26,-10.83,-11.26,-10.82,6.00,6.05,5.86,-5.26,-5.26,-0.43
41.35,-11.12,-10.69,-11.12,-10.69,6.00,6.03,5.80,-5.12,-5.12,-0.43
41.76,-10.97,-10.55,-10.97,-10.55,6.00,6.01,5.74,-4.97,-4.97,-0.42
42.18,-10.83,-10.41,-10.83,-10.41,6.00,5.98,5.68,-4.83,-4.83,-0.42
42.60,-10.70,-10.29,-10.70,-10.28,6.00,5.96,5.63,-4.70,-4.70,-0.41
43.03,-10.57,-10.16,-10.57,-10.15,6.00,5.93,5.58,-4.57,-4.57,-0.41
43.46,-10.43,-10.03,-10.43,-10.03,6.00,5.91,5.54,-4.43,-4.43,-0.40
43.90,-10.29,-9.89,-10.29,-9.89,6.00,5.88,5.50,-4.29,-4.29,-0.40
44.33,-10.16,-9.77,-10.16,-9.77,6.00,5.86,5.47,-4.16,-4.16,-0.39
44.78,-10.03,-9.64,-10.03,-9.64,6.00,5.83,5.44,-4.03,-4.03,-0.39
45.23,-9.90,-9.52,-9.90,-9.51,6.00,5.80,5.41,-3.90,-3.90,-0.38
45.68,-9.77,-9.39,-9.77,-9.39,6.00,5.77,5.39,-3.77,-3.77,-0.38
46.13,-9.64,-9.26,-9.64,-9.26,6.00,5.75,5.37,-3.64,-3.64,-0.38
46.60,-9.51,-9.14,-9.51,-9.13,6.00,5.72,5.35,-3.51,-3.51,-0.37
47.06,-9.38,-9.01,-9.38,-9.01,6.00,5.69,5.34,-3.38,-3.38,-0.37
47.53,-9.26,-8.89,-9.26,-8.89,6.00,5.66,5.34,-3.26,-3.26,-0.37
48.01,-9.13,-8.77,-9.13,-8.76,6.00,5.63,5.33,-3.13,-3.13,-0.36
48.49,-9.00,-8.64,-9.00,-8.64,6.00,5.60,5.33,-3.00,-3.00,-0.36
48.97,-8.88,-8.52,-8.88,-8.52,6.00,5.56,5.34,-2.88,-2.88,-0.36
49.46,-8.75,-8.40,-8.75,-8.40,6.00,5.53,5.34,-2.75,-2.75,-0.35
49.96,-8.63,-8.28,-8.63,-8.28,6.00,5.50,5.35,-2.63,-2.63,-0.35
50.46,-8.51,-8.17,-8.51,-8.16,6.00,5.47,5.36,-2.51,-2.51,-0.34
50.96,-8.38,-8.04,-8.38,-8.04,6.00,5.44,5.38,-2.38,-2.38,-0.34
51.47,-8.26,-7.93,-8.26,-7.93,6.00,5.40,5.39,-2.26,-2.26,-0.33
51.99,-8.14,-7.81,-8.14,-7.81,6.00,5.37,5.41,-2.14,-2.14,-0.33
52.51,-8.02,-7.69,-8.02,-7.69,6.00,5.33,5.43,-2.02,-2.02,-0.33
53.03,-7.90,-7.58,-7.90,-7.57,6.00,5.30,5.45,-1.90,-1.90,-0.32
53.56,-7.78,-7.46,-7.78,-7.46,6.00,5.27,5.47,-1.78,-1.78,-0.32
54.10,-7.66,-7.34,-7.66,-7.34,6.00,5.23,5.49,-1.66,-1.66,-0.32
54.64,-7.55,-7.23,-7.55,-7.23,6.00,5.20,5.51,-1.55,-1.55,-0.32
55.18,-7.43,-7.11,-7.43,-7.11,6.00,5.16,5.54,-1.43,-1.43,-0.32
55.74,-7.31,-6.99,-7.31,-6.99,6.00,5.12,5.55,-1.31,-1.31,-0.32
56.29,-7.19,-6.86,-7.19,-6.86,6.00,5.09,5.57,-1.19,-1.19,-0.33
56.86,-7.07,-6.74,-7.07,-6.74,6.01,5.05,5.59,-1.06,-1.06,-0.33
57.42,-6.95,-6.61,-6.95,-6.61,6.02,5.01,5.60,-0.93,-0.93,-0.34
58.00,-6.84,-6.49,-6.84,-6.48,6.02,4.98,5.61,-0.82,-0.81,-0.35
58.58,-6.72,-6.36,-6.72,-6.36,6.02,4.94,5.61,-0.70,-0.70,-0.36
59.16,-6.60,-6.23,-6.60,-6.23,6.00,4.90,5.62,-0.60,-0.61,-0.37
59.76,-6.49,-6.11,-6.49,-6.10,5.96,4.87,5.61,-0.53,-0.53,-0.38
60.35,-6.38,-5.98,-6.38,-5.98,5.91,4.83,5.61,-0.47,-0.47,-0.40
60.96,-6.28,-5.87,-6.28,-5.87,5.84,4.79,5.59,-0.44,-0.44,-0.41
61.57,-6.17,-5.75,-6.17,-5.75,5.75,4.75,5.58,-0.42,-0.42,-0.42
62.18,-6.07,-5.63,-6.07,-5.63,5.65,4.71,5.55,-0.42,-0.42,-0.44
62.80,-5.96,-5.51,-5.96,-5.51,5.54,4.67,5.52,-0.42,-0.43,-0.45
63.43,-5.86,-5.40,-5.86,-5.40,5.42,4.63,5.49,-0.44,-0.45,-0.46
64.07,-5.76,-5.29,-5.76,-5.29,5.29,4.59,5.45,-0.47,-0.47,-0.47
64.71,-5.66,-5.18,-5.66,-5.18,5.18,4.55,5.41,-0.48,-0.48,-0.48
65.35,-5.55,-5.07,-5.55,-5.07,5.07,4.51,5.36,-0.48,-0.48,-0.48
66.01,-5.45,-4.97,-5.45,-4.96,4.96,4.47,5.30,-0.49,-0.48,-0.48
66.67,-5.34,-4.86,-5.34,-4.86,4.86,4.43,5.24,-0.48,-0.48,-0.48
67.33,-5.24,-4.76,-5.24,-4.76,4.76,4.39,5.18,-0.47,-0.48,-0.48
68.01,-5.14,-4.67,-5.14,-4.67,4.67,4.35,5.11,-0.47,-0.47,-0.47
68.69,-5.04,-4.58,-5.04,-4.58,4.58,4.31,5.04,-0.46,-0.46,-0.46
69.37,-4.94,-4.49,-4.94,-4.49,4.49,4.27,4.97,-0.45,-0.45,-0.45
70.07,-4.84,-4.40,-4.84,-4.40,4.40,4.23,4.89,-0.44,-0.44,-0.44
70.77,-4.74,-4.31,-4.74,-4.31,4.31,4.18,4.81,-0.43,-0.43,-0.43
71.48,-4.64,-4.23,-4.64,-4.23,4.22,4.14,4.73,-0.42,-0.42,-0.41
72.19,-4.54,-4.14,-4.54,-4.14,4.14,4.10,4.65,-0.40,-0.40,-0.40
72.91,-4.45,-4.06,-4.45,-4.06,4.05,4.05,4.56,-0.40,-0.39,-0.39
73.64,-4.35,-3.97,-4.35,-3.97,3.96,4.01,4.48,-0.39,-0.38,-0.38
74.38,-4.25,-3.88,-4.25,-3.88,3.88,3.96,4.39,-0.37,-0.38,-0.37
75.12,-4.15,-3.79,-4.15,-3.79,3.79,3.92,4.31,-0.36,-0.36,-0.36
75.87,-4.06,-3.71,-4.06,-3.70,3.70,3.87,4.23,-0.36,-0.35,-0.35
76.63,-3.96,-3.62,-3.96,-3.62,3.62,3.82,4.14,-0.34,-0.35,-0.34
77.40,-3.87,-3.53,-3.87,-3.53,3.53,3.77,4.06,-0.34,-0.34,-0.34
78.17,-3.78,-3.45,-3.78,-3.45,3.45,3.73,3.98,-0.33,-0.33,-0.33
78.95,-3.69,-3.37,-3.70,-3.37,3.37,3.68,3.90,-0.32,-0.32,-0.32
79.74,-3.62,-3.31,-3.61,-3.30,3.30,3.63,3.82,-0.32,-0.31,-0.31
80.54,-3.54,-3.24,-3.54,-3.24,3.23,3.58,3.74,-0.31,-0.30,-0.30
81.35,-3.46,-3.17,-3.46,-3.17,3.17,3.52,3.66,-0.29,-0.29,-0.29
82.16,-3.39,-3.11,-3.39,-3.11,3.11,3.47,3.59,-0.28,-0.28,-0.28
82.98,-3.32,-3.05,-3.32,-3.05,3.06,3.42,3.52,-0.26,-0.26,-0.27
83.81,-3.26,-3.01,-3.26,-3.01,3.01,3.36,3.45,-0.25,-0.25,-0.25
84.65,-3.20,-2.97,-3.20,-2.97,2.96,3.31,3.38,-0.24,-0.24,-0.23
85.50,-3.14,-2.93,-3.14,-2.93,2.92,3.25,3.32,-0.22,-0.22,-0.21
86.35,-3.08,-2.89,-3.08,-2.88,2.88,3.19,3.26,-0.20,-0.20,-0.19
87.22,-3.01,-2.84,-3.01,-2.84,2.84,3.13,3.19,-0.17,-0.17,-0.17
88.09,-2.95,-2.80,-2.95,-2.80,2.80,3.07,3.14,-0.15,-0.15,-0.15
88.97,-2.90,-2.77,-2.90,-2.76,2.77,3.01,3.08,-0.13,-0.13,-0.13
89.86,-2.85,-2.74,-2.84,-2.73,2.74,2.95,3.03,-0.11,-0.10,-0.11
90.76,-2.79,-2.70,-2.80,-2.71,2.71,2.89,2.98,-0.08,-0.09,-0.09
91.66,-2.76,-2.69,-2.76,-2.69,2.69,2.82,2.93,-0.07,-0.07,-0.07
92.58,-2.73,-2.68,-2.72,-2.67,2.67,2.76,2.88,-0.06,-0.06,-0.05
93.51,-2.69,-2.65,-2.69,-2.65,2.65,2.70,2.84,-0.04,-0.04,-0.04
94.44,-2.65,-2.63,-2.65,-2.63,2.62,2.64,2.79,-0.03,-0.03,-0.02
95.39,-2.61,-2.60,-2.61,-2.60,2.60,2.58,2.75,-0.02,-0.02,-0.01
96.34,-2.58,-2.58,-2.58,-2.57,2.57,2.52,2.71,-0.01,-0.01,-0.00
97.30,-2.54,-2.54,-2.54,-2.54,2.54,2.46,2.68,-0.00,-0.00,-0.00
98.28,-2.50,-2.51,-2.50,-2.51,2.50,2.41,2.64,0.00,0.00,0.01
99.26,-2.46,-2.47,-2.46,-2.47,2.47,2.36,2.61,0.01,0.01,0.01
100.25,-2.42,-2.43,-2.42,-2.43,2.44,2.31,2.58,0.02,0.02,0.01
101.25,-2.39,-2.40,-2.39,-2.40,2.41,2.27,2.55,0.02,0.02,0.01
102.27,-2.37,-2.38,-2.37,-2.38,2.38,2.24,2.53,0.01,0.01,0.01
103.29,-2.36,-2.37,-2.36,-2.36,2.35,2.21,2.50,-0.01,-0.00,0.01
104.32,-2.34,-2.34,-2.34,-2.34,2.32,2.18,2.48,-0.02,-0.01,-0.00
105.37,-2.31,-2.31,-2.31,-2.31,2.30,2.16,2.45,-0.01,-0.01,-0.00
106.42,-2.28,-2.27,-2.28,-2.27,2.27,2.14,2.43,-0.01,-0.01,-0.01
107.48,-2.26,-2.25,-2.26,-2.24,2.25,2.13,2.41,-0.01,-0.01,-0.01
108.56,-2.24,-2.22,-2.24,-2.22,2.23,2.13,2.39,-0.01,-0.01,-0.02
109.64,-2.23,-2.21,-2.23,-2.21,2.22,2.13,2.37,-0.01,-0.02,-0.02
110.74,-2.23,-2.20,-2.23,-2.20,2.21,2.13,2.36,-0.02,-0.02,-0.03
111.85,-2.23,-2.20,-2.23,-2.20,2.21,2.14,2.34,-0.02,-0.03,-0.03
112.97,-2.24,-2.21,-2.24,-2.21,2.21,2.14,2.32,-0.03,-0.03,-0.03
114.10,-2.25,-2.22,-2.25,-2.22,2.22,2.15,2.31,-0.03,-0.03,-0.03
115.24,-2.26,-2.23,-2.26,-2.23,2.22,2.16,2.29,-0.04,-0.04,-0.03
116.39,-2.27,-2.24,-2.27,-2.24,2.23,2.18,2.28,-0.04,-0.04,-0.03
117.55,-2.27,-2.25,-2.27,-2.25,2.24,2.19,2.26,-0.03,-0.03,-0.02
118.73,-2.27,-2.25,-2.26,-2.24,2.24,2.20,2.25,-0.03,-0.02,-0.02
119.92,-2.25,-2.24,-2.25,-2.24,2.24,2.21,2.23,-0.01,-0.01,-0.01
121.12,-2.23,-2.23,-2.24,-2.24,2.24,2.22,2.22,0.01,-0.00,-0.00
122.33,-2.22,-2.24,-2.21,-2.23,2.23,2.23,2.20,0.01,0.01,0.02
123.55,-2.19,-2.22,-2.19,-2.22,2.21,2.24,2.19,0.02,0.02,0.03
124.79,-2.16,-2.20,-2.16,-2.20,2.20,2.25,2.17,0.04,0.04,0.04
126.03,-2.12,-2.18,-2.12,-2.18,2.18,2.26,2.15,0.06,0.06,0.06
127.29,-2.09,-2.16,-2.09,-2.16,2.16,2.27,2.14,0.07,0.07,0.07
128.57,-2.06,-2.15,-2.05,-2.14,2.14,2.27,2.12,0.08,0.09,0.09
129.85,-2.02,-2.12,-2.02,-2.12,2.12,2.28,2.11,0.10,0.10,0.10
131.15,-1.98,-2.10,-1.99,-2.11,2.10,2.28,2.09,0.12,0.11,0.12
132.46,-1.97,-2.10,-1.96,-2.09,2.09,2.29,2.07,0.12,0.13,0.13
133.79,-1.94,-2.08,-1.94,-2.07,2.08,2.29,2.06,0.14,0.14,0.14
135.12,-1.91,-2.06,-1.92,-2.07,2.07,2.29,2.04,0.16,0.15,0.15
136.48,-1.90,-2.06,-1.90,-2.06,2.07,2.29,2.02,0.17,0.17,0.16
137.84,-1.90,-2.07,-1.90,-2.06,2.07,2.29,2.01,0.17,0.17,0.17
139.22,-1.90,-2.07,-1.90,-2.07,2.07,2.29,1.99,0.17,0.17,0.17
140.61,-1.91,-2.09,-1.91,-2.09,2.08,2.29,1.97,0.17,0.17,0.18
142.02,-1.92,-2.10,-1.92,-2.10,2.09,2.29,1.96,0.17,0.17,0.18
143.44,-1.92,-2.11,-1.92,-2.10,2.10,2.29,1.94,0.18,0.18,0.19
144.87,-1.92,-2.11,-1.92,-2.11,2.11,2.28,1.93,0.19,0.18,0.19
146.32,-1.92,-2.11,-1.92,-2.11,2.11,2.28,1.91,0.19,0.19,0.19
147.78,-1.92,-2.12,-1.92,-2.11,2.11,2.28,1.90,0.19,0.19,0.20
149.26,-1.92,-2.12,-1.92,-2.12,2.12,2.27,1.89,0.20,0.20,0.20
150.75,-1.92,-2.12,-1.92,-2.12,2.12,2.27,1.87,0.20,0.20,0.20
152.26,-1.92,-2.12,-1.92,-2.12,2.12,2.27,1.86,0.20,0.20,0.20
153.78,-1.92,-2.12,-1.92,-2.12,2.12,2.26,1.85,0.20,0.20,0.20
155.32,-1.92,-2.13,-1.92,-2.12,2.12,2.26,1.84,0.20,0.20,0.21
156.88,-1.92,-2.13,-1.92,-2.13,2.13,2.25,1.83,0.21,0.21,0.21
158.44,-1.92,-2.13,-1.92,-2.13,2.13,2.25,1.83,0.21,0.21,0.21
160.03,-1.92,-2.13,-1.92,-2.13,2.13,2.24,1.82,0.21,0.21,0.21
161.63,-1.92,-2.14,-1.92,-2.13,2.13,2.24,1.82,0.21,0.21,0.22
163.24,-1.92,-2.14,-1.92,-2.14,2.14,2.23,1.81,0.22,0.22,0.22
164.88,-1.92,-2.14,-1.92,-2.14,2.14,2.23,1.81,0.22,0.22,0.22
166.53,-1.92,-2.15,-1.92,-2.14,2.14,2.22,1.81,0.22,0.22,0.23
168.19,-1.92,-2.15,-1.92,-2.15,2.15,2.21,1.81,0.23,0.23,0.23
169.87,-1.92,-2.15,-1.92,-2.15,2.15,2.21,1.81,0.23,0.23,0.23
171.57,-1.92,-2.16,-1.92,-2.16,2.16,2.20,1.82,0.24,0.24,0.24
173.29,-1.92,-2.17,-1.92,-2.17,2.17,2.20,1.82,0.25,0.25,0.25
175.02,-1.92,-2.18,-1.92,-2.17,2.17,2.19,1.83,0.25,0.25,0.26
176.77,-1.92,-2.18,-1.92,-2.18,2.18,2.19,1.83,0.26,0.26,0.26
178.54,-1.92,-2.20,-1.92,-2.19,2.20,2.18,1.84,0.28,0.28,0.28
180.32,-1.92,-2.21,-1.92,-2.21,2.21,2.18,1.85,0.29,0.29,0.29
182.13,-1.92,-2.22,-1.92,-2.22,2.22,2.17,1.87,0.30,0.30,0.30
183.95,-1.92,-2.23,-1.92,-2.23,2.23,2.17,1.88,0.31,0.31,0.31
185.79,-1.92,-2.25,-1.92,-2.24,2.24,2.16,1.89,0.32,0.32,0.33
187.65,-1.92,-2.26,-1.92,-2.26,2.25,2.16,1.91,0.33,0.33,0.34
189.52,-1.92,-2.27,-1.92,-2.27,2.27,2.15,1.92,0.35,0.35,0.35
191.42,-1.92,-2.28,-1.92,-2.28,2.29,2.15,1.94,0.37,0.37,0.36
193.33,-1.92,-2.29,-1.92,-2.29,2.30,2.14,1.96,0.38,0.38,0.37
195.27,-1.93,-2.31,-1.93,-2.31,2.31,2.14,1.98,0.38,0.38,0.38
197.22,-1.94,-2.33,-1.94,-2.33,2.33,2.13,2.00,0.39,0.39,0.39
199.19,-1.95,-2.35,-1.95,-2.34,2.34,2.13,2.02,0.39,0.39,0.40
201.18,-1.95,-2.35,-1.95,-2.35,2.34,2.12,2.04,0.39,0.39,0.40
203.19,-1.94,-2.35,-1.94,-2.35,2.34,2.11,2.07,0.40,0.40,0.41
205.23,-1.93,-2.34,-1.93,-2.34,2.33,2.11,2.09,0.40,0.40,0.41
207.28,-1.91,-2.32,-1.91,-2.32,2.32,2.10,2.11,0.41,0.41,0.41
209.35,-1.88,-2.30,-1.88,-2.30,2.30,2.10,2.13,0.42,0.41,0.42
211.44,-1.85,-2.27,-1.85,-2.27,2.27,2.09,2.16,0.42,0.42,0.42
213.56,-1.82,-2.24,-1.82,-2.24,2.24,2.09,2.18,0.42,0.42,0.42
215.69,-1.78,-2.21,-1.78,-2.20,2.21,2.08,2.20,0.43,0.43,0.43
217.85,-1.74,-2.17,-1.75,-2.17,2.18,2.07,2.22,0.44,0.43,0.43
220.03,-1.72,-2.15,-1.72,-2.15,2.14,2.07,2.24,0.42,0.43,0.43
222.23,-1.69,-2.12,-1.69,-2.11,2.11,2.06,2.26,0.42,0.42,0.43
224.45,-1.66,-2.09,-1.66,-2.08,2.08,2.05,2.28,0.42,0.43,0.43
226.70,-1.62,-2.05,-1.63,-2.05,2.06,2.05,2.29,0.44,0.43,0.43
228.96,-1.60,-2.03,-1.60,-2.03,2.04,2.04,2.31,0.44,0.43,0.43
231.25,-1.59,-2.02,-1.59,-2.01,2.02,2.03,2.32,0.43,0.43,0.43
233.57,-1.58,-2.00,-1.58,-2.00,2.01,2.02,2.33,0.43,0.43,0.42
235.90,-1.58,-2.00,-1.58,-2.00,2.00,2.01,2.34,0.42,0.42,0.42
238.26,-1.58,-1.99,-1.59,-2.00,2.00,2.00,2.34,0.42,0.41,0.41
240.64,-1.60,-2.01,-1.60,-2.00,2.00,1.99,2.34,0.40,0.40,0.41
243.05,-1.61,-2.01,-1.61,-2.00,2.00,1.98,2.34,0.39,0.39,0.40
245.48,-1.61,-2.00,-1.61,-2.00,2.00,1.97,2.33,0.39,0.38,0.39
247.93,-1.61,-2.00,-1.61,-2.00,1.99,1.96,2.32,0.38,0.38,0.39
250.41,-1.61,-1.99,-1.61,-1.99,1.99,1.95,2.31,0.38,0.38,0.38
252.92,-1.60,-1.98,-1.60,-1.98,1.98,1.93,2.29,0.38,0.38,0.38
255.45,-1.60,-1.97,-1.60,-1.97,1.97,1.92,2.27,0.37,0.37,0.37
258.00,-1.59,-1.96,-1.59,-1.95,1.95,1.90,2.25,0.36,0.36,0.37
260.58,-1.57,-1.93,-1.57,-1.93,1.93,1.89,2.22,0.36,0.36,0.36
263.19,-1.55,-1.91,-1.55,-1.91,1.90,1.87,2.20,0.35,0.35,0.36
265.82,-1.52,-1.88,-1.52,-1.88,1.87,1.85,2.16,0.35,0.35,0.36
268.48,-1.50,-1.85,-1.49,-1.85,1.84,1.83,2.13,0.34,0.35,0.35
271.16,-1.46,-1.81,-1.46,-1.80,1.80,1.81,2.09,0.34,0.35,0.35
273.87,-1.42,-1.76,-1.42,-1.76,1.77,1.79,2.05,0.35,0.34,0.34
276.61,-1.39,-1.72,-1.39,-1.72,1.73,1.77,2.01,0.34,0.34,0.33
279.38,-1.37,-1.70,-1.37,-1.69,1.70,1.75,1.96,0.33,0.33,0.33
282.17,-1.35,-1.67,-1.35,-1.67,1.67,1.73,1.91,0.32,0.32,0.32
284.99,-1.33,-1.64,-1.33,-1.64,1.64,1.70,1.87,0.31,0.31,0.31
287.84,-1.31,-1.61,-1.31,-1.61,1.61,1.67,1.82,0.30,0.30,0.30
290.72,-1.30,-1.59,-1.30,-1.59,1.59,1.65,1.76,0.29,0.29,0.29
293.63,-1.29,-1.57,-1.29,-1.56,1.56,1.62,1.71,0.27,0.27,0.28
296.57,-1.27,-1.54,-1.27,-1.54,1.53,1.59,1.66,0.26,0.26,0.27
299.53,-1.25,-1.51,-1.25,-1.51,1.50,1.56,1.60,0.25,0.25,0.26
302.53,-1.22,-1.47,-1.22,-1.47,1.47,1.52,1.55,0.25,0.25,0.25
305.55,-1.20,-1.44,-1.20,-1.43,1.44,1.49,1.49,0.24,0.24,0.24
308.61,-1.17,-1.40,-1.17,-1.40,1.40,1.46,1.44,0.23,0.23,0.23
311.69,-1.14,-1.36,-1.14,-1.36,1.36,1.42,1.38,0.22,0.21,0.22
314.81,-1.12,-1.33,-1.11,-1.32,1.32,1.39,1.33,0.20,0.20,0.21
317.96,-1.08,-1.28,-1.08,-1.28,1.28,1.35,1.27,0.20,0.20,0.20
321.14,-1.05,-1.25,-1.05,-1.24,1.24,1.31,1.22,0.19,0.19,0.20
324.35,-1.02,-1.21,-1.02,-1.21,1.21,1.27,1.16,0.19,0.19,0.19
327.59,-0.98,-1.17,-0.99,-1.17,1.18,1.23,1.11,0.20,0.19,0.19
330.87,-0.97,-1.15,-0.97,-1.15,1.16,1.19,1.05,0.19,0.19,0.18
334.18,-0.95,-1.13,-0.95,-1.13,1.14,1.14,1.00,0.19,0.19,0.18
337.52,-0.95,-1.13,-0.95,-1.12,1.13,1.10,0.94,0.18,0.18,0.18
340.90,-0.95,-1.12,-0.95,-1.12,1.12,1.06,0.89,0.17,0.17,0.17
344.30,-0.95,-1.12,-0.95,-1.12,1.12,1.01,0.84,0.17,0.17,0.17
347.75,-0.95,-1.12,-0.95,-1.11,1.11,0.96,0.78,0.16,0.16,0.17
351.23,-0.94,-1.11,-0.94,-1.11,1.10,0.92,0.73,0.16,0.16,0.17
354.74,-0.93,-1.10,-0.93,-1.10,1.09,0.87,0.68,0.16,0.16,0.17
358.28,-0.91,-1.08,-0.91,-1.08,1.07,0.82,0.63,0.16,0.16,0.17
361.87,-0.88,-1.05,-0.88,-1.05,1.04,0.78,0.58,0.16,0.16,0.17
365.49,-0.84,-1.01,-0.84,-1.01,1.01,0.73,0.53,0.17,0.16,0.17
369.14,-0.80,-0.97,-0.80,-0.97,0.96,0.68,0.48,0.17,0.17,0.17
372.83,-0.75,-0.93,-0.74,-0.92,0.91,0.63,0.43,0.16,0.17,0.18
376.56,-0.68,-0.86,-0.68,-0.86,0.85,0.58,0.39,0.17,0.17,0.18
380.33,-0.61,-0.78,-0.62,-0.79,0.79,0.53,0.34,0.18,0.17,0.17
384.13,-0.55,-0.72,-0.55,-0.72,0.72,0.48,0.29,0.17,0.17,0.17
387.97,-0.48,-0.65,-0.48,-0.64,0.64,0.43,0.24,0.16,0.17,0.17
391.85,-0.40,-0.57,-0.40,-0.57,0.57,0.38,0.20,0.17,0.17,0.17
395.77,-0.32,-0.49,-0.32,-0.48,0.49,0.33,0.15,0.17,0.17,0.17
399.73,-0.24,-0.40,-0.24,-0.40,0.41,0.28,0.11,0.17,0.17,0.16
403.72,-0.16,-0.32,-0.17,-0.32,0.33,0.23,0.07,0.17,0.16,0.16
407.76,-0.10,-0.25,-0.10,-0.25,0.25,0.19,0.02,0.15,0.15,0.15
411.84,-0.03,-0.18,-0.03,-0.17,0.16,0.14,-0.02,0.13,0.14,0.15
415.96,0.05,-0.09,0.05,-0.09,0.08,0.09,-0.06,0.13,0.13,0.14
420.12,0.13,0.00,0.13,0.00,-0.00,0.04,-0.10,0.13,0.13,0.13
424.32,0.21,0.10,0.20,0.09,-0.09,-0.00,-0.15,0.12,0.11,0.11
428.56,0.26,0.16,0.27,0.17,-0.17,-0.05,-0.19,0.09,0.10,0.10
432.85,0.32,0.23,0.33,0.25,-0.25,-0.09,-0.22,0.07,0.08,0.09
437.18,0.40,0.33,0.39,0.32,-0.32,-0.14,-0.26,0.08,0.07,0.07
441.55,0.45,0.40,0.45,0.40,-0.40,-0.18,-0.30,0.05,0.05,0.05
445.96,0.50,0.46,0.50,0.47,-0.46,-0.22,-0.33,0.04,0.04,0.04
