frequency,raw,error,smoothed,error_smoothed,equalization,parametric_eq,fixed_band_eq,equalized_raw,equalized_smoothed,target
20.00,7.88,2.63,7.88,2.63,-2.63,-2.84,-1.46,5.25,5.25,5.24
20.20,7.93,2.70,7.93,2.70,-2.70,-2.86,-1.50,5.23,5.23,5.22
20.40,7.98,2.76,7.97,2.76,-2.76,-2.87,-1.55,5.22,5.22,5.21
20.61,8.02,2.80,8.02,2.81,-2.81,-2.89,-1.59,5.20,5.20,5.21
20.81,8.06,2.86,8.06,2.86,-2.87,-2.90,-1.64,5.19,5.19,5.19
21.02,8.10,2.91,8.09,2.91,-2.91,-2.92,-1.69,5.18,5.18,5.18
21.23,8.13,2.95,8.13,2.95,-2.95,-2.93,-1.74,5.17,5.18,5.17
21.44,8.16,2.97,8.16,2.98,-2.99,-2.95,-1.79,5.17,5.17,5.18
21.66,8.19,3.01,8.18,3.01,-3.02,-2.96,-1.84,5.17,5.16,5.17
21.87,8.21,3.05,8.21,3.05,-3.04,-2.98,-1.89,5.16,5.17,5.16
22.09,8.23,3.08,8.23,3.08,-3.06,-2.99,-1.95,5.17,5.17,5.15
22.31,8.25,3.10,8.24,3.09,-3.07,-3.01,-2.00,5.17,5.16,5.15
22.54,8.24,3.10,8.24,3.09,-3.08,-3.02,-2.06,5.15,5.15,5.14
22.76,8.23,3.08,8.23,3.09,-3.09,-3.04,-2.12,5.14,5.14,5.15
22.99,8.22,3.08,8.22,3.08,-3.09,-3.05,-2.18,5.12,5.13,5.14
23.22,8.22,3.09,8.22,3.08,-3.09,-3.06,-2.24,5.12,5.12,5.13
23.45,8.22,3.09,8.22,3.09,-3.09,-3.08,-2.30,5.12,5.13,5.13
23.69,8.23,3.10,8.23,3.10,-3.10,-3.09,-2.37,5.13,5.13,5.13
23.92,8.24,3.11,8.23,3.11,-3.10,-3.10,-2.43,5.13,5.13,5.13
24.16,8.25,3.12,8.25,3.12,-3.12,-3.12,-2.50,5.13,5.13,5.13
24.40,8.26,3.12,8.26,3.13,-3.13,-3.13,-2.57,5.12,5.12,5.14
24.65,8.28,3.14,8.28,3.15,-3.16,-3.14,-2.64,5.12,5.12,5.13
24.89,8.30,3.17,8.30,3.17,-3.18,-3.16,-2.71,5.12,5.12,5.12
25.14,8.33,3.21,8.32,3.21,-3.21,-3.17,-2.78,5.12,5.12,5.11
25.39,8.35,3.23,8.35,3.24,-3.23,-3.18,-2.85,5.11,5.12,5.11
25.65,8.38,3.27,8.37,3.27,-3.26,-3.19,-2.92,5.11,5.11,5.10
25.91,8.40,3.30,8.40,3.29,-3.29,-3.21,-2.99,5.10,5.11,5.10
26.16,8.43,3.32,8.42,3.32,-3.32,-3.22,-3.06,5.10,5.10,5.11
26.43,8.45,3.35,8.45,3.34,-3.35,-3.23,-3.13,5.10,5.10,5.10
26.69,8.47,3.37,8.47,3.37,-3.37,-3.25,-3.21,5.09,5.10,5.10
26.96,8.49,3.39,8.49,3.39,-3.39,-3.26,-3.27,5.09,5.09,5.10
27.23,8.51,3.42,8.50,3.41,-3.41,-3.27,-3.34,5.10,5.09,5.09
27.50,8.52,3.43,8.52,3.43,-3.42,-3.28,-3.41,5.09,5.09,5.08
27.77,8.53,3.43,8.53,3.44,-3.44,-3.29,-3.48,5.09,5.09,5.09
28.05,8.54,3.44,8.54,3.45,-3.45,-3.31,-3.54,5.09,5.09,5.09
28.33,8.55,3.46,8.54,3.45,-3.45,-3.32,-3.60,5.10,5.09,5.09
28.62,8.55,3.46,8.55,3.45,-3.45,-3.33,-3.66,5.09,5.09,5.09
28.90,8.55,3.45,8.55,3.45,-3.45,-3.34,-3.72,5.09,5.10,5.10
29.19,8.55,3.45,8.55,3.45,-3.45,-3.36,-3.77,5.10,5.10,5.10
29.48,8.55,3.45,8.55,3.45,-3.45,-3.37,-3.82,5.10,5.10,5.10
29.78,8.55,3.45,8.55,3.45,-3.45,-3.38,-3.86,5.10,5.10,5.09
30.08,8.55,3.43,8.55,3.44,-3.45,-3.39,-3.91,5.10,5.10,5.11
30.38,8.55,3.45,8.55,3.44,-3.45,-3.40,-3.94,5.10,5.10,5.10
30.68,8.55,3.45,8.55,3.44,-3.45,-3.42,-3.98,5.10,5.10,5.10
30.99,8.55,3.45,8.55,3.45,-3.45,-3.43,-4.01,5.10,5.10,5.10
31.30,8.55,3.45,8.55,3.45,-3.45,-3.44,-4.03,5.09,5.09,5.10
31.61,8.55,3.45,8.55,3.46,-3.46,-3.46,-4.05,5.09,5.09,5.09
31.93,8.55,3.46,8.55,3.46,-3.46,-3.47,-4.07,5.08,5.08,5.08
32.24,8.55,3.47,8.55,3.47,-3.47,-3.48,-4.08,5.08,5.08,5.08
32.57,8.55,3.48,8.55,3.48,-3.47,-3.49,-4.09,5.07,5.07,5.07
32.89,8.55,3.48,8.55,3.48,-3.48,-3.51,-4.09,5.07,5.07,5.06
33.22,8.55,3.48,8.55,3.48,-3.49,-3.52,-4.09,5.06,5.06,5.06
33.55,8.55,3.49,8.55,3.49,-3.49,-3.53,-4.09,5.05,5.05,5.06
33.89,8.55,3.50,8.55,3.50,-3.50,-3.55,-4.09,5.05,5.05,5.05
34.23,8.55,3.51,8.55,3.51,-3.51,-3.56,-4.08,5.04,5.04,5.03
34.57,8.55,3.51,8.55,3.51,-3.51,-3.57,-4.07,5.03,5.03,5.03
34.92,8.55,3.53,8.55,3.52,-3.52,-3.59,-4.06,5.02,5.02,5.02
35.27,8.55,3.52,8.55,3.53,-3.53,-3.60,-4.04,5.01,5.01,5.03
35.62,8.55,3.55,8.55,3.54,-3.55,-3.62,-4.03,5.00,5.00,4.99
35.97,8.55,3.56,8.55,3.56,-3.56,-3.63,-4.01,4.99,4.99,4.99
36.33,8.55,3.57,8.55,3.57,-3.57,-3.65,-3.99,4.98,4.98,4.98
36.70,8.55,3.58,8.55,3.58,-3.58,-3.66,-3.98,4.96,4.96,4.96
37.06,8.55,3.60,8.55,3.60,-3.60,-3.68,-3.96,4.95,4.95,4.95
37.43,8.55,3.61,8.55,3.61,-3.61,-3.69,-3.94,4.93,4.93,4.93
37.81,8.55,3.63,8.55,3.63,-3.63,-3.71,-3.93,4.92,4.92,4.92
38.19,8.55,3.65,8.55,3.65,-3.65,-3.72,-3.91,4.90,4.90,4.90
38.57,8.55,3.66,8.55,3.67,-3.67,-3.74,-3.90,4.88,4.88,4.88
38.95,8.55,3.69,8.55,3.69,-3.69,-3.76,-3.89,4.86,4.86,4.86
39.34,8.55,3.71,8.55,3.71,-3.71,-3.77,-3.88,4.84,4.84,4.83
39.74,8.55,3.73,8.55,3.73,-3.73,-3.79,-3.87,4.82,4.82,4.82
40.14,8.55,3.75,8.55,3.75,-3.75,-3.81,-3.86,4.80,4.80,4.79
40.54,8.55,3.77,8.55,3.77,-3.77,-3.83,-3.86,4.78,4.78,4.78
40.94,8.55,3.79,8.55,3.79,-3.79,-3.85,-3.86,4.76,4.76,4.75
41.35,8.55,3.81,8.55,3.81,-3.81,-3.86,-3.86,4.74,4.74,4.74
41.76,8.55,3.82,8.55,3.83,-3.83,-3.88,-3.86,4.72,4.72,4.72
42.18,8.55,3.84,8.55,3.84,-3.85,-3.90,-3.87,4.70,4.70,4.71
42.60,8.55,3.87,8.55,3.87,-3.87,-3.92,-3.88,4.68,4.68,4.68
43.03,8.55,3.89,8.55,3.89,-3.89,-3.94,-3.89,4.66,4.66,4.65
43.46,8.55,3.91,8.55,3.91,-3.91,-3.96,-3.90,4.64,4.64,4.64
43.90,8.55,3.94,8.55,3.94,-3.93,-3.98,-3.92,4.61,4.61,4.61
44.33,8.55,3.96,8.55,3.96,-3.96,-4.00,-3.94,4.59,4.59,4.59
44.78,8.55,3.98,8.55,3.98,-3.98,-4.02,-3.96,4.56,4.56,4.56
45.23,8.55,4.00,8.55,4.01,-4.01,-4.05,-3.99,4.54,4.54,4.55
45.68,8.55,4.04,8.55,4.04,-4.04,-4.07,-4.02,4.51,4.51,4.51
46.13,8.55,4.08,8.55,4.07,-4.07,-4.09,-4.05,4.48,4.48,4.47
46.60,8.55,4.11,8.55,4.10,-4.10,-4.11,-4.08,4.44,4.44,4.44
47.06,8.55,4.14,8.55,4.14,-4.14,-4.14,-4.12,4.41,4.41,4.41
47.53,8.55,4.16,8.55,4.17,-4.17,-4.16,-4.16,4.37,4.37,4.38
48.01,8.55,4.21,8.55,4.21,-4.21,-4.19,-4.20,4.34,4.34,4.33
48.49,8.55,4.24,8.55,4.25,-4.25,-4.21,-4.25,4.30,4.30,4.30
48.97,8.55,4.29,8.55,4.29,-4.28,-4.23,-4.30,4.26,4.26,4.26
49.46,8.55,4.32,8.55,4.32,-4.32,-4.26,-4.35,4.23,4.23,4.23
49.96,8.55,4.37,8.55,4.36,-4.35,-4.29,-4.40,4.19,4.19,4.18
50.46,8.55,4.39,8.55,4.39,-4.39,-4.31,-4.45,4.16,4.16,4.16
50.96,8.55,4.42,8.55,4.42,-4.42,-4.34,-4.51,4.12,4.12,4.12
51.47,8.55,4.45,8.55,4.45,-4.45,-4.37,-4.56,4.09,4.09,4.09
51.99,8.55,4.49,8.55,4.49,-4.49,-4.39,-4.62,4.06,4.06,4.06
52.51,8.55,4.52,8.55,4.52,-4.52,-4.42,-4.68,4.02,4.02,4.03
53.03,8.55,4.55,8.55,4.55,-4.56,-4.45,-4.74,3.99,3.99,4.00
53.56,8.55,4.59,8.55,4.59,-4.59,-4.48,-4.80,3.95,3.95,3.96
54.10,8.55,4.62,8.55,4.62,-4.63,-4.50,-4.86,3.92,3.92,3.92
54.64,8.55,4.66,8.55,4.67,-4.66,-4.53,-4.92,3.88,3.88,3.89
55.18,8.55,4.71,8.55,4.70,-4.70,-4.56,-4.98,3.85,3.85,3.84
55.74,8.55,4.74,8.55,4.74,-4.73,-4.59,-5.03,3.82,3.82,3.80
56.29,8.55,4.76,8.55,4.77,-4.76,-4.62,-5.09,3.78,3.78,3.79
56.86,8.55,4.79,8.55,4.79,-4.79,-4.65,-5.14,3.75,3.75,3.76
57.42,8.55,4.83,8.55,4.82,-4.82,-4.68,-5.19,3.72,3.72,3.72
58.00,8.55,4.86,8.55,4.85,-4.85,-4.71,-5.24,3.69,3.70,3.69
58.58,8.56,4.87,8.56,4.88,-4.89,-4.74,-5.28,3.67,3.67,3.68
59.16,8.57,4.92,8.56,4.91,-4.92,-4.78,-5.33,3.65,3.65,3.65
59.76,8.57,4.95,8.56,4.94,-4.95,-4.81,-5.36,3.62,3.62,3.62
60.35,8.56,4.98,8.56,4.98,-4.98,-4.84,-5.39,3.58,3.58,3.58
60.96,8.55,5.01,8.55,5.01,-5.01,-4.87,-5.42,3.54,3.54,3.54
61.57,8.53,5.04,8.53,5.04,-5.04,-4.90,-5.45,3.49,3.49,3.48
62.18,8.51,5.07,8.50,5.07,-5.06,-4.93,-5.46,3.45,3.44,3.44
62.80,8.48,5.08,8.48,5.09,-5.08,-4.97,-5.48,3.40,3.40,3.40
63.43,8.46,5.11,8.45,5.10,-5.09,-5.00,-5.49,3.36,3.36,3.35
64.07,8.43,5.11,8.42,5.11,-5.10,-5.03,-5.49,3.32,3.32,3.31
64.71,8.39,5.11,8.39,5.11,-5.11,-5.06,-5.49,3.27,3.28,3.28
65.35,8.36,5.12,8.36,5.11,-5.12,-5.09,-5.49,3.24,3.24,3.24
66.01,8.33,5.12,8.32,5.12,-5.13,-5.13,-5.48,3.20,3.20,3.20
66.67,8.30,5.12,8.30,5.13,-5.13,-5.16,-5.47,3.16,3.16,3.17
67.33,8.27,5.14,8.27,5.14,-5.14,-5.19,-5.45,3.12,3.13,3.12
68.01,8.25,5.16,8.24,5.16,-5.16,-5.22,-5.43,3.09,3.09,3.08
68.69,8.23,5.18,8.22,5.18,-5.18,-5.25,-5.41,3.05,3.05,3.04
69.37,8.21,5.20,8.21,5.20,-5.20,-5.28,-5.39,3.00,3.00,3.01
70.07,8.20,5.22,8.20,5.22,-5.24,-5.31,-5.36,2.96,2.96,2.98
70.77,8.20,5.26,8.19,5.26,-5.27,-5.35,-5.33,2.92,2.92,2.93
71.48,8.20,5.31,8.20,5.31,-5.31,-5.38,-5.31,2.88,2.88,2.89
72.19,8.21,5.36,8.21,5.36,-5.36,-5.41,-5.28,2.85,2.85,2.84
72.91,8.22,5.41,8.21,5.41,-5.40,-5.44,-5.25,2.82,2.81,2.81
73.64,8.22,5.46,8.22,5.46,-5.44,-5.47,-5.22,2.77,2.77,2.76
74.38,8.22,5.50,8.22,5.49,-5.48,-5.50,-5.19,2.73,2.73,2.72
75.12,8.22,5.52,8.22,5.52,-5.53,-5.52,-5.17,2.69,2.69,2.69
75.87,8.22,5.55,8.22,5.55,-5.56,-5.55,-5.14,2.65,2.65,2.66
76.63,8.22,5.58,8.22,5.59,-5.60,-5.58,-5.12,2.62,2.62,2.63
77.40,8.23,5.63,8.23,5.63,-5.63,-5.61,-5.09,2.60,2.60,2.60
78.17,8.24,5.67,8.23,5.66,-5.66,-5.63,-5.07,2.58,2.57,2.57
78.95,8.24,5.69,8.24,5.69,-5.69,-5.66,-5.06,2.55,2.55,2.54
79.74,8.24,5.72,8.24,5.72,-5.71,-5.69,-5.04,2.52,2.52,2.52
80.54,8.24,5.75,8.23,5.74,-5.74,-5.71,-5.03,2.50,2.49,2.49
81.35,8.22,5.76,8.22,5.76,-5.76,-5.74,-5.02,2.46,2.46,2.46
82.16,8.20,5.76,8.20,5.77,-5.77,-5.76,-5.01,2.42,2.43,2.43
82.98,8.18,5.78,8.18,5.78,-5.78,-5.78,-5.01,2.39,2.39,2.40
83.81,8.16,5.80,8.15,5.79,-5.79,-5.81,-5.01,2.37,2.36,2.36
84.65,8.13,5.80,8.13,5.80,-5.80,-5.83,-5.02,2.33,2.33,2.33
85.50,8.10,5.81,8.10,5.80,-5.80,-5.85,-5.03,2.30,2.30,2.29
86.35,8.07,5.81,8.06,5.80,-5.80,-5.87,-5.04,2.26,2.26,2.26
87.22,8.03,5.80,8.03,5.80,-5.81,-5.89,-5.06,2.22,2.22,2.23
88.09,8.00,5.81,8.00,5.81,-5.81,-5.91,-5.07,2.19,2.19,2.19
88.97,7.97,5.81,7.97,5.82,-5.82,-5.92,-5.10,2.15,2.15,2.15
89.86,7.95,5.83,7.94,5.83,-5.82,-5.94,-5.13,2.12,2.12,2.11
90.76,7.92,5.84,7.92,5.84,-5.84,-5.96,-5.16,2.08,2.08,2.08
91.66,7.90,5.85,7.90,5.86,-5.86,-5.97,-5.19,2.03,2.04,2.04
92.58,7.89,5.88,7.89,5.88,-5.89,-5.99,-5.23,2.00,2.00,2.01
93.51,7.89,5.91,7.88,5.91,-5.92,-6.00,-5.27,1.96,1.96,1.98
94.44,7.89,5.95,7.89,5.95,-5.96,-6.02,-5.32,1.92,1.93,1.94
95.39,7.90,6.00,7.90,6.00,-6.00,-6.03,-5.37,1.90,1.90,1.89
96.34,7.91,6.06,7.90,6.05,-6.04,-6.04,-5.42,1.87,1.86,1.85
97.30,7.90,6.08,7.90,6.09,-6.07,-6.05,-5.48,1.82,1.82,1.81
98.28,7.89,6.11,7.89,6.12,-6.10,-6.06,-5.54,1.78,1.78,1.77
99.26,7.87,6.14,7.87,6.13,-6.13,-6.07,-5.60,1.74,1.74,1.73
100.25,7.85,6.16,7.85,6.15,-6.14,-6.08,-5.66,1.70,1.70,1.69
101.25,7.82,6.14,7.82,6.16,-6.15,-6.09,-5.73,1.66,1.66,1.67
102.27,7.80,6.16,7.79,6.15,-6.16,-6.10,-5.80,1.63,1.63,1.63
103.29,7.76,6.16,7.76,6.16,-6.17,-6.11,-5.87,1.59,1.60,1.60
104.32,7.74,6.16,7.74,6.16,-6.17,-6.11,-5.94,1.57,1.57,1.58
105.37,7.72,6.17,7.71,6.17,-6.17,-6.12,-6.01,1.54,1.54,1.54
106.42,7.69,6.17,7.69,6.18,-6.17,-6.13,-6.09,1.51,1.51,1.51
107.48,7.67,6.19,7.66,6.18,-6.18,-6.13,-6.16,1.49,1.49,1.48
108.56,7.63,6.18,7.63,6.18,-6.17,-6.14,-6.23,1.45,1.45,1.45
109.64,7.60,6.19,7.60,6.18,-6.18,-6.14,-6.31,1.42,1.42,1.41
110.74,7.56,6.17,7.56,6.18,-6.18,-6.15,-6.38,1.38,1.38,1.38
111.85,7.53,6.18,7.52,6.18,-6.18,-6.15,-6.45,1.34,1.34,1.35
112.97,7.49,6.18,7.49,6.17,-6.19,-6.15,-6.51,1.29,1.30,1.31
114.10,7.46,6.17,7.46,6.19,-6.20,-6.16,-6.57,1.26,1.26,1.28
115.24,7.44,6.20,7.44,6.20,-6.21,-6.16,-6.63,1.22,1.23,1.24
116.39,7.43,6.24,7.42,6.23,-6.22,-6.16,-6.69,1.20,1.20,1.19
117.55,7.41,6.24,7.41,6.25,-6.23,-6.16,-6.74,1.18,1.18,1.16
118.73,7.39,6.27,7.38,6.26,-6.24,-6.17,-6.78,1.15,1.14,1.12
119.92,7.35,6.25,7.35,6.25,-6.24,-6.17,-6.82,1.11,1.11,1.09
121.12,7.31,6.24,7.31,6.24,-6.24,-6.17,-6.86,1.07,1.07,1.07
122.33,7.27,6.23,7.27,6.23,-6.23,-6.17,-6.88,1.04,1.04,1.04
123.55,7.23,6.22,7.23,6.22,-6.22,-6.17,-6.90,1.00,1.00,1.00
124.79,7.19,6.20,7.19,6.21,-6.22,-6.17,-6.92,0.97,0.97,0.98
126.03,7.15,6.21,7.15,6.20,-6.22,-6.18,-6.92,0.93,0.93,0.94
127.29,7.12,6.21,7.12,6.20,-6.22,-6.18,-6.92,0.90,0.90,0.91
128.57,7.09,6.21,7.09,6.22,-6.23,-6.18,-6.91,0.86,0.87,0.88
129.85,7.08,6.24,7.07,6.23,-6.23,-6.18,-6.90,0.84,0.84,0.84
131.15,7.06,6.26,7.05,6.25,-6.24,-6.18,-6.88,0.82,0.81,0.80
132.46,7.03,6.26,7.02,6.26,-6.25,-6.18,-6.85,0.78,0.78,0.76
133.79,6.99,6.26,6.99,6.26,-6.25,-6.19,-6.82,0.74,0.74,0.72
135.12,6.95,6.26,6.95,6.25,-6.25,-6.19,-6.79,0.70,0.70,0.69
136.48,6.91,6.23,6.91,6.24,-6.24,-6.19,-6.75,0.66,0.66,0.67
137.84,6.87,6.23,6.87,6.23,-6.24,-6.19,-6.70,0.63,0.63,0.64
139.22,6.83,6.23,6.82,6.22,-6.24,-6.20,-6.66,0.59,0.59,0.59
140.61,6.79,6.22,6.79,6.22,-6.23,-6.20,-6.61,0.55,0.56,0.57
142.02,6.76,6.22,6.76,6.22,-6.23,-6.20,-6.55,0.53,0.53,0.54
143.44,6.74,6.23,6.74,6.23,-6.23,-6.21,-6.50,0.50,0.51,0.50
144.87,6.73,6.23,6.72,6.24,-6.23,-6.21,-6.45,0.49,0.49,0.49
146.32,6.71,6.24,6.71,6.24,-6.23,-6.22,-6.39,0.47,0.47,0.46
147.78,6.69,6.24,6.68,6.24,-6.23,-6.22,-6.34,0.46,0.45,0.44
149.26,6.65,6.23,6.65,6.23,-6.22,-6.23,-6.28,0.42,0.42,0.42
150.75,6.62,6.23,6.62,6.22,-6.22,-6.23,-6.23,0.40,0.40,0.39
152.26,6.58,6.20,6.58,6.21,-6.21,-6.24,-6.18,0.37,0.37,0.37
153.78,6.55,6.20,6.54,6.20,-6.20,-6.24,-6.13,0.34,0.34,0.35
155.32,6.51,6.19,6.51,6.19,-6.20,-6.25,-6.08,0.31,0.31,0.32
156.88,6.48,6.18,6.48,6.19,-6.19,-6.26,-6.04,0.28,0.29,0.30
158.44,6.46,6.19,6.46,6.19,-6.19,-6.26,-5.99,0.27,0.27,0.26
160.03,6.44,6.20,6.43,6.19,-6.19,-6.27,-5.96,0.24,0.24,0.24
161.63,6.41,6.20,6.41,6.20,-6.20,-6.28,-5.92,0.21,0.21,0.21
163.24,6.38,6.21,6.38,6.21,-6.21,-6.28,-5.89,0.17,0.17,0.17
164.88,6.36,6.22,6.35,6.21,-6.22,-6.29,-5.86,0.14,0.14,0.14
166.53,6.34,6.23,6.34,6.23,-6.23,-6.30,-5.84,0.11,0.11,0.11
168.19,6.32,6.24,6.32,6.24,-6.24,-6.31,-5.82,0.08,0.08,0.08
169.87,6.31,6.26,6.30,6.26,-6.25,-6.32,-5.80,0.05,0.05,0.04
171.57,6.29,6.27,6.28,6.27,-6.27,-6.32,-5.79,0.02,0.01,0.02
173.29,6.26,6.28,6.26,6.28,-6.28,-6.33,-5.78,-0.03,-0.02,-0.02
175.02,6.24,6.29,6.24,6.29,-6.30,-6.34,-5.78,-0.06,-0.06,-0.05
176.77,6.23,6.32,6.22,6.31,-6.31,-6.35,-5.78,-0.08,-0.09,-0.09
178.54,6.21,6.32,6.21,6.33,-6.32,-6.36,-5.79,-0.12,-0.12,-0.11
180.32,6.19,6.34,6.19,6.34,-6.33,-6.37,-5.80,-0.15,-0.15,-0.16
182.13,6.17,6.36,6.16,6.35,-6.34,-6.38,-5.81,-0.18,-0.18,-0.19
183.95,6.13,6.35,6.13,6.35,-6.35,-6.38,-5.83,-0.22,-0.22,-0.22
185.79,6.10,6.36,6.10,6.36,-6.36,-6.39,-5.85,-0.26,-0.26,-0.26
187.65,6.07,6.36,6.06,6.36,-6.36,-6.40,-5.88,-0.30,-0.30,-0.29
189.52,6.04,6.37,6.04,6.36,-6.37,-6.41,-5.91,-0.33,-0.33,-0.33
191.42,6.01,6.37,6.01,6.37,-6.37,-6.42,-5.94,-0.37,-0.36,-0.36
193.33,5.99,6.38,5.99,6.38,-6.38,-6.43,-5.98,-0.39,-0.39,-0.39
195.27,5.97,6.39,5.96,6.39,-6.39,-6.43,-6.03,-0.42,-0.43,-0.43
197.22,5.95,6.41,5.95,6.40,-6.40,-6.44,-6.07,-0.46,-0.46,-0.46
199.19,5.93,6.41,5.93,6.42,-6.42,-6.45,-6.12,-0.50,-0.49,-0.48
201.18,5.93,6.44,5.92,6.44,-6.45,-6.46,-6.17,-0.52,-0.52,-0.52
203.19,5.93,6.46,5.93,6.46,-6.47,-6.46,-6.23,-0.55,-0.55,-0.53
205.23,5.94,6.50,5.94,6.50,-6.50,-6.47,-6.28,-0.57,-0.56,-0.56
207.28,5.96,6.53,5.95,6.53,-6.53,-6.47,-6.34,-0.58,-0.58,-0.57
209.35,5.97,6.57,5.96,6.57,-6.56,-6.48,-6.40,-0.59,-0.59,-0.61
211.44,5.97,6.60,5.97,6.59,-6.58,-6.48,-6.46,-0.62,-0.62,-0.63
213.56,5.97,6.61,5.96,6.61,-6.60,-6.49,-6.52,-0.64,-0.64,-0.64
215.69,5.95,6.61,5.95,6.62,-6.62,-6.49,-6.58,-0.67,-0.67,-0.67
217.85,5.94,6.63,5.94,6.62,-6.62,-6.49,-6.64,-0.69,-0.69,-0.69
220.03,5.92,6.63,5.91,6.63,-6.62,-6.49,-6.70,-0.71,-0.71,-0.71
222.23,5.89,6.62,5.89,6.62,-6.62,-6.49,-6.75,-0.73,-0.73,-0.73
224.45,5.86,6.61,5.86,6.61,-6.61,-6.49,-6.81,-0.75,-0.75,-0.75
226.70,5.83,6.59,5.83,6.59,-6.60,-6.49,-6.86,-0.77,-0.77,-0.77
228.96,5.80,6.57,5.80,6.58,-6.59,-6.49,-6.90,-0.79,-0.79,-0.78
231.25,5.78,6.57,5.77,6.57,-6.57,-6.48,-6.95,-0.80,-0.80,-0.80
233.57,5.75,6.55,5.75,6.56,-6.56,-6.48,-6.98,-0.81,-0.81,-0.80
235.90,5.73,6.55,5.72,6.54,-6.54,-6.47,-7.01,-0.81,-0.81,-0.82
238.26,5.70,6.53,5.70,6.52,-6.52,-6.47,-7.04,-0.82,-0.82,-0.83
240.64,5.67,6.49,5.67,6.50,-6.50,-6.46,-7.06,-0.83,-0.83,-0.82
243.05,5.64,6.47,5.64,6.47,-6.47,-6.45,-7.07,-0.84,-0.84,-0.83
245.48,5.61,6.45,5.61,6.45,-6.45,-6.44,-7.07,-0.84,-0.84,-0.85
247.93,5.58,6.43,5.58,6.42,-6.42,-6.43,-7.06,-0.85,-0.85,-0.86
250.41,5.55,6.39,5.55,6.39,-6.40,-6.41,-7.05,-0.85,-0.85,-0.84
252.92,5.52,6.36,5.52,6.36,-6.37,-6.40,-7.03,-0.86,-0.86,-0.84
255.45,5.50,6.34,5.50,6.34,-6.35,-6.39,-7.00,-0.85,-0.85,-0.85
258.00,5.48,6.32,5.48,6.32,-6.33,-6.37,-6.96,-0.85,-0.85,-0.84
260.58,5.47,6.32,5.46,6.31,-6.30,-6.35,-6.91,-0.84,-0.84,-0.85
263.19,5.44,6.28,5.44,6.29,-6.28,-6.33,-6.86,-0.84,-0.84,-0.85
265.82,5.42,6.27,5.41,6.26,-6.25,-6.31,-6.80,-0.83,-0.84,-0.85
268.48,5.38,6.22,5.38,6.23,-6.22,-6.29,-6.74,-0.85,-0.85,-0.85
271.16,5.34,6.19,5.34,6.19,-6.19,-6.26,-6.67,-0.85,-0.85,-0.85
273.87,5.31,6.15,5.30,6.16,-6.16,-6.24,-6.59,-0.85,-0.86,-0.85
276.61,5.27,6.12,5.26,6.12,-6.13,-6.21,-6.51,-0.86,-0.86,-0.85
279.38,5.23,6.09,5.23,6.09,-6.09,-6.18,-6.42,-0.87,-0.87,-0.87
282.17,5.20,6.05,5.20,6.05,-6.06,-6.16,-6.33,-0.87,-0.87,-0.85
284.99,5.18,6.02,5.18,6.03,-6.03,-6.12,-6.24,-0.86,-0.86,-0.85
287.84,5.16,6.00,5.16,6.01,-6.00,-6.09,-6.15,-0.85,-0.85,-0.84
290.72,5.14,5.99,5.13,5.98,-5.97,-6.06,-6.05,-0.84,-0.84,-0.86
293.63,5.11,5.96,5.10,5.95,-5.94,-6.03,-5.95,-0.83,-0.83,-0.85
296.57,5.07,5.90,5.07,5.91,-5.90,-5.99,-5.86,-0.83,-0.83,-0.83
299.53,5.03,5.86,5.03,5.86,-5.86,-5.95,-5.76,-0.83,-0.83,-0.84
302.53,4.99,5.82,4.98,5.81,-5.82,-5.91,-5.66,-0.83,-0.84,-0.83
305.55,4.94,5.76,4.94,5.77,-5.78,-5.87,-5.57,-0.84,-0.83,-0.83
308.61,4.91,5.72,4.91,5.72,-5.73,-5.83,-5.47,-0.83,-0.83,-0.82
311.69,4.88,5.69,4.87,5.68,-5.69,-5.79,-5.38,-0.81,-0.82,-0.81
314.81,4.84,5.64,4.84,5.64,-5.65,-5.75,-5.29,-0.81,-0.80,-0.80
317.96,4.81,5.60,4.81,5.61,-5.60,-5.71,-5.20,-0.80,-0.80,-0.80
321.14,4.78,5.57,4.77,5.57,-5.56,-5.66,-5.12,-0.78,-0.79,-0.79
324.35,4.74,5.53,4.74,5.52,-5.52,-5.62,-5.03,-0.78,-0.78,-0.79
327.59,4.70,5.46,4.69,5.47,-5.47,-5.57,-4.95,-0.77,-0.78,-0.77
330.87,4.65,5.41,4.65,5.42,-5.42,-5.52,-4.88,-0.77,-0.77,-0.77
334.18,4.61,5.38,4.61,5.37,-5.37,-5.47,-4.80,-0.76,-0.76,-0.77
337.52,4.57,5.32,4.56,5.32,-5.31,-5.42,-4.73,-0.75,-0.75,-0.75
340.90,4.52,5.26,4.52,5.26,-5.26,-5.37,-4.66,-0.74,-0.74,-0.75
344.30,4.47,5.20,4.47,5.20,-5.21,-5.32,-4.60,-0.74,-0.74,-0.74
347.75,4.42,5.15,4.42,5.15,-5.16,-5.27,-4.54,-0.74,-0.74,-0.73
351.23,4.38,5.10,4.38,5.09,-5.10,-5.22,-4.48,-0.73,-0.73,-0.72
354.74,4.34,5.04,4.34,5.05,-5.05,-5.17,-4.42,-0.72,-0.71,-0.70
358.28,4.31,5.01,4.30,5.01,-5.00,-5.11,-4.37,-0.70,-0.70,-0.71
361.87,4.27,4.97,4.26,4.96,-4.95,-5.06,-4.33,-0.69,-0.69,-0.71
365.49,4.22,4.90,4.22,4.91,-4.90,-5.00,-4.28,-0.69,-0.68,-0.69
369.14,4.17,4.85,4.17,4.85,-4.85,-4.95,-4.24,-0.69,-0.68,-0.68
372.83,4.13,4.80,4.12,4.80,-4.80,-4.89,-4.20,-0.68,-0.68,-0.67
376.56,4.08,4.75,4.08,4.75,-4.75,-4.84,-4.17,-0.67,-0.67,-0.67
380.33,4.04,4.70,4.04,4.70,-4.70,-4.78,-4.13,-0.66,-0.66,-0.66
384.13,4.00,4.65,3.99,4.65,-4.65,-4.73,-4.11,-0.65,-0.66,-0.66
387.97,3.95,4.59,3.95,4.59,-4.60,-4.67,-4.08,-0.65,-0.65,-0.65
391.85,3.91,4.53,3.91,4.55,-4.55,-4.62,-4.06,-0.64,-0.64,-0.63
395.77,3.88,4.51,3.87,4.50,-4.50,-4.56,-4.03,-0.63,-0.63,-0.63
399.73,3.84,4.46,3.84,4.46,-4.46,-4.50,-4.02,-0.62,-0.62,-0.62
403.72,3.81,4.41,3.81,4.41,-4.41,-4.45,-4.00,-0.61,-0.61,-0.60
407.76,3.78,4.37,3.77,4.37,-4.37,-4.39,-3.98,-0.59,-0.59,-0.59
411.84,3.74,4.32,3.74,4.32,-4.32,-4.34,-3.97,-0.59,-0.58,-0.58
415.96,3.71,4.28,3.70,4.28,-4.28,-4.28,-3.96,-0.57,-0.58,-0.58
420.12,3.67,4.24,3.67,4.24,-4.24,-4.23,-3.95,-0.57,-0.57,-0.58
424.32,3.63,4.19,3.63,4.19,-4.19,-4.17,-3.94,-0.57,-0.56,-0.57
428.56,3.60,4.14,3.59,4.14,-4.15,-4.12,-3.93,-0.55,-0.55,-0.55
432.85,3.56,4.09,3.55,4.09,-4.10,-4.06,-3.92,-0.54,-0.55,-0.53
437.18,3.52,4.06,3.52,4.05,-4.05,-4.01,-3.91,-0.54,-0.53,-0.54
441.55,3.48,4.01,3.48,4.01,-4.00,-3.95,-3.91,-0.53,-0.52,-0.53
445.96,3.45,3.97,3.44,3.96,-3.95,-3.90,-3.90,-0.51,-0.51,-0.52
450.42,3.40,3.91,3.40,3.91,-3.90,-3.85,-3.89,-0.50,-0.50,-0.51
454.93,3.35,3.85,3.35,3.85,-3.85,-3.80,-3.88,-0.50,-0.50,-0.50
459.48,3.30,3.79,3.30,3.79,-3.80,-3.75,-3.86,-0.50,-0.50,-0.49
464.07,3.26,3.73,3.25,3.74,-3.74,-3.70,-3.85,-0.49,-0.49,-0.47
468.71,3.22,3.69,3.22,3.69,-3.69,-3.65,-3.83,-0.48,-0.48,-0.47
473.40,3.18,3.64,3.18,3.64,-3.65,-3.60,-3.82,-0.47,-0.47,-0.47
478.13,3.15,3.60,3.14,3.60,-3.60,-3.55,-3.79,-0.45,-0.46,-0.46
482.91,3.11,3.55,3.11,3.55,-3.56,-3.51,-3.77,-0.45,-0.45,-0.45
487.74,3.08,3.51,3.07,3.51,-3.51,-3.46,-3.74,-0.43,-0.44,-0.44
492.62,3.04,3.46,3.04,3.47,-3.47,-3.41,-3.71,-0.43,-0.43,-0.43
497.55,3.01,3.42,3.01,3.43,-3.42,-3.37,-3.68,-0.41,-0.41,-0.42
502.52,2.98,3.38,2.97,3.38,-3.37,-3.32,-3.64,-0.39,-0.40,-0.41
507.55,2.94,3.32,2.93,3.32,-3.32,-3.28,-3.60,-0.38,-0.39,-0.39
512.62,2.89,3.27,2.89,3.27,-3.27,-3.24,-3.56,-0.38,-0.38,-0.38
517.75,2.85,3.21,2.85,3.21,-3.22,-3.19,-3.51,-0.37,-0.37,-0.36
