frequency,raw,error,smoothed,error_smoothed,equalization,parametric_eq,fixed_band_eq,equalized_raw,equalized_smoothed,target
20.00,-9.75,-11.94,-9.76,-11.95,6.00,5.27,2.65,-3.75,-3.76,2.19
20.20,-9.66,-11.89,-9.65,-11.88,6.00,5.31,2.73,-3.66,-3.65,2.23
20.40,-9.56,-11.82,-9.56,-11.82,6.00,5.34,2.80,-3.56,-3.56,2.26
20.61,-9.47,-11.76,-9.46,-11.75,6.00,5.37,2.88,-3.47,-3.46,2.29
20.81,-9.37,-11.69,-9.37,-11.69,6.00,5.40,2.96,-3.37,-3.37,2.32
21.02,-9.29,-11.64,-9.29,-11.64,6.00,5.43,3.05,-3.29,-3.29,2.35
21.23,-9.23,-11.60,-9.23,-11.59,6.00,5.46,3.13,-3.23,-3.23,2.37
21.44,-9.18,-11.56,-9.18,-11.56,6.00,5.49,3.22,-3.18,-3.18,2.38
21.66,-9.13,-11.52,-9.13,-11.52,6.00,5.52,3.31,-3.13,-3.13,2.39
21.87,-9.08,-11.48,-9.08,-11.48,6.00,5.55,3.40,-3.08,-3.08,2.40
22.09,-9.03,-11.44,-9.03,-11.43,6.00,5.58,3.50,-3.03,-3.03,2.41
22.31,-8.97,-11.38,-8.97,-11.38,6.00,5.61,3.60,-2.97,-2.97,2.42
22.54,-8.91,-11.33,-8.91,-11.33,6.00,5.64,3.70,-2.91,-2.91,2.42
22.76,-8.85,-11.26,-8.85,-11.27,6.00,5.67,3.80,-2.85,-2.85,2.42
22.99,-8.79,-11.20,-8.78,-11.20,6.00,5.69,3.90,-2.79,-2.78,2.42
23.22,-8.70,-11.12,-8.70,-11.12,6.00,5.72,4.01,-2.70,-2.70,2.43
23.45,-8.60,-11.02,-8.60,-11.03,6.00,5.74,4.12,-2.60,-2.60,2.42
23.69,-8.51,-10.94,-8.50,-10.94,6.00,5.77,4.23,-2.51,-2.50,2.43
23.92,-8.41,-10.84,-8.42,-10.85,6.00,5.79,4.35,-2.41,-2.42,2.43
24.16,-8.34,-10.78,-8.34,-10.79,6.00,5.82,4.46,-2.34,-2.34,2.44
24.40,-8.29,-10.73,-8.28,-10.72,6.00,5.84,4.58,-2.29,-2.28,2.44
24.65,-8.23,-10.66,-8.23,-10.67,6.00,5.86,4.70,-2.23,-2.23,2.43
24.89,-8.17,-10.60,-8.17,-10.61,6.00,5.89,4.82,-2.17,-2.17,2.43
25.14,-8.12,-10.55,-8.12,-10.54,6.00,5.91,4.95,-2.12,-2.12,2.43
25.39,-8.06,-10.48,-8.06,-10.48,6.00,5.93,5.07,-2.06,-2.06,2.42
25.65,-8.00,-10.42,-8.00,-10.42,6.00,5.95,5.20,-2.00,-2.00,2.42
25.91,-7.94,-10.35,-7.94,-10.35,6.00,5.97,5.32,-1.94,-1.94,2.41
26.16,-7.89,-10.29,-7.89,-10.29,6.00,5.99,5.45,-1.89,-1.89,2.40
26.43,-7.85,-10.25,-7.85,-10.25,6.00,6.01,5.57,-1.85,-1.85,2.40
26.69,-7.81,-10.20,-7.81,-10.20,6.00,6.02,5.69,-1.81,-1.81,2.39
26.96,-7.77,-10.16,-7.76,-10.15,6.00,6.04,5.81,-1.77,-1.76,2.39
27.23,-7.70,-10.08,-7.70,-10.07,6.00,6.06,5.93,-1.70,-1.70,2.38
27.50,-7.62,-10.00,-7.62,-9.99,6.00,6.07,6.05,-1.62,-1.62,2.38
27.77,-7.54,-9.89,-7.54,-9.91,6.00,6.09,6.16,-1.54,-1.54,2.36
28.05,-7.48,-9.83,-7.49,-9.85,6.00,6.10,6.27,-1.48,-1.49,2.35
28.33,-7.48,-9.82,-7.47,-9.82,6.00,6.11,6.38,-1.48,-1.47,2.34
28.62,-7.47,-9.80,-7.47,-9.81,6.00,6.12,6.47,-1.47,-1.47,2.33
28.90,-7.47,-9.80,-7.46,-9.79,6.00,6.14,6.57,-1.47,-1.46,2.33
29.19,-7.43,-9.75,-7.42,-9.75,6.00,6.15,6.65,-1.43,-1.42,2.32
29.48,-7.36,-9.69,-7.36,-9.69,6.00,6.15,6.73,-1.36,-1.36,2.33
29.78,-7.29,-9.61,-7.29,-9.61,6.00,6.16,6.80,-1.29,-1.29,2.32
30.08,-7.22,-9.53,-7.22,-9.53,6.00,6.17,6.86,-1.22,-1.22,2.31
30.38,-7.15,-9.45,-7.15,-9.45,6.00,6.17,6.92,-1.15,-1.15,2.30
30.68,-7.08,-9.38,-7.08,-9.37,6.00,6.18,6.96,-1.08,-1.08,2.30
30.99,-7.01,-9.30,-7.01,-9.30,6.00,6.18,6.99,-1.01,-1.01,2.29
31.30,-6.94,-9.22,-6.94,-9.22,6.00,6.19,7.02,-0.94,-0.94,2.28
31.61,-6.87,-9.15,-6.87,-9.14,6.00,6.19,7.04,-0.87,-0.87,2.28
31.93,-6.80,-9.07,-6.81,-9.08,6.00,6.19,7.04,-0.80,-0.81,2.27
32.24,-6.78,-9.03,-6.79,-9.05,6.00,6.19,7.04,-0.78,-0.79,2.25
32.57,-6.78,-9.03,-6.78,-9.03,6.00,6.18,7.03,-0.78,-0.78,2.25
32.89,-6.78,-9.04,-6.76,-9.01,6.00,6.18,7.01,-0.78,-0.76,2.26
33.22,-6.73,-8.97,-6.72,-8.97,6.00,6.18,6.98,-0.73,-0.72,2.25
33.55,-6.66,-8.90,-6.66,-8.90,6.00,6.17,6.95,-0.66,-0.66,2.24
33.89,-6.58,-8.81,-6.59,-8.82,6.00,6.17,6.91,-0.58,-0.59,2.23
34.23,-6.52,-8.75,-6.52,-8.75,6.00,6.16,6.86,-0.52,-0.52,2.23
34.57,-6.47,-8.69,-6.46,-8.68,6.00,6.15,6.81,-0.47,-0.46,2.22
34.92,-6.41,-8.63,-6.42,-8.64,6.00,6.14,6.76,-0.41,-0.42,2.22
35.27,-6.38,-8.59,-6.38,-8.59,6.00,6.13,6.70,-0.38,-0.38,2.21
35.62,-6.36,-8.56,-6.35,-8.56,6.00,6.12,6.64,-0.36,-0.35,2.20
35.97,-6.33,-8.53,-6.34,-8.54,6.00,6.11,6.57,-0.33,-0.34,2.20
36.33,-6.32,-8.52,-6.33,-8.52,6.00,6.10,6.51,-0.32,-0.33,2.20
36.70,-6.31,-8.50,-6.31,-8.49,6.00,6.09,6.44,-0.31,-0.31,2.19
37.06,-6.29,-8.46,-6.27,-8.45,6.00,6.08,6.38,-0.29,-0.27,2.17
37.43,-6.21,-8.38,-6.22,-8.38,6.00,6.07,6.31,-0.21,-0.22,2.17
37.81,-6.14,-8.30,-6.14,-8.30,6.00,6.06,6.25,-0.14,-0.14,2.16
38.19,-6.06,-8.21,-6.05,-8.20,6.00,6.05,6.18,-0.06,-0.05,2.15
38.57,-5.97,-8.11,-5.97,-8.11,6.00,6.05,6.12,0.03,0.03,2.14
38.95,-5.88,-8.01,-5.90,-8.03,6.00,6.04,6.06,0.12,0.10,2.13
39.34,-5.87,-7.99,-5.87,-7.99,6.00,6.04,6.01,0.13,0.13,2.12
39.74,-5.87,-7.97,-5.86,-7.97,6.00,6.04,5.95,0.13,0.14,2.10
40.14,-5.87,-7.98,-5.88,-7.98,6.00,6.04,5.90,0.13,0.12,2.11
40.54,-5.87,-7.97,-5.87,-7.97,6.00,6.04,5.86,0.13,0.13,2.10
40.94,-5.87,-7.96,-5.84,-7.94,6.00,6.04,5.81,0.13,0.16,2.09
41.35,-5.79,-7.87,-5.78,-7.87,6.00,6.04,5.77,0.21,0.22,2.08
41.76,-5.70,-7.78,-5.72,-7.79,6.00,6.05,5.74,0.30,0.28,2.08
42.18,-5.65,-7.71,-5.67,-7.74,6.00,6.05,5.70,0.35,0.33,2.06
42.60,-5.65,-7.70,-5.64,-7.70,6.00,6.06,5.67,0.35,0.36,2.05
43.03,-5.64,-7.67,-5.60,-7.63,6.00,6.06,5.65,0.36,0.40,2.04
43.46,-5.54,-7.55,-5.54,-7.55,6.00,6.06,5.63,0.46,0.46,2.01
43.90,-5.44,-7.42,-5.47,-7.45,6.00,6.07,5.62,0.56,0.53,1.98
44.33,-5.42,-7.37,-5.42,-7.37,6.00,6.07,5.60,0.58,0.58,1.95
44.78,-5.42,-7.35,-5.41,-7.34,6.00,6.07,5.60,0.58,0.59,1.93
45.23,-5.42,-7.32,-5.42,-7.32,6.00,6.08,5.59,0.58,0.58,1.90
45.68,-5.42,-7.30,-5.42,-7.30,6.00,6.08,5.60,0.58,0.58,1.88
46.13,-5.42,-7.28,-5.43,-7.29,6.00,6.08,5.60,0.58,0.57,1.86
46.60,-5.42,-7.27,-5.42,-7.27,6.00,6.08,5.61,0.58,0.58,1.86
47.06,-5.41,-7.25,-5.37,-7.21,6.00,6.07,5.62,0.59,0.63,1.84
47.53,-5.30,-7.12,-5.30,-7.13,6.00,6.07,5.64,0.70,0.70,1.82
48.01,-5.19,-7.02,-5.23,-7.05,6.00,6.07,5.66,0.81,0.77,1.83
48.49,-5.19,-7.01,-5.18,-7.00,6.00,6.06,5.69,0.81,0.82,1.82
48.97,-5.19,-6.99,-5.18,-6.99,6.00,6.06,5.72,0.81,0.82,1.80
49.46,-5.19,-6.99,-5.19,-6.99,6.00,6.05,5.75,0.81,0.81,1.80
49.96,-5.19,-6.99,-5.19,-6.99,6.00,6.04,5.78,0.81,0.81,1.80
50.46,-5.19,-7.00,-5.19,-7.00,6.00,6.03,5.82,0.81,0.81,1.81
50.96,-5.19,-7.00,-5.20,-7.01,6.00,6.03,5.86,0.81,0.80,1.81
51.47,-5.19,-6.99,-5.19,-7.00,6.00,6.01,5.90,0.81,0.81,1.81
51.99,-5.19,-6.99,-5.14,-6.95,6.00,6.00,5.94,0.81,0.86,1.80
52.51,-5.07,-6.87,-5.07,-6.86,6.00,5.99,5.99,0.93,0.93,1.80
53.03,-4.96,-6.74,-5.00,-6.78,6.00,5.98,6.03,1.04,1.00,1.78
53.56,-4.96,-6.72,-4.95,-6.71,6.00,5.97,6.08,1.04,1.05,1.76
54.10,-4.96,-6.70,-4.95,-6.69,6.00,5.95,6.12,1.04,1.05,1.74
54.64,-4.96,-6.67,-4.96,-6.67,6.00,5.94,6.17,1.04,1.04,1.71
55.18,-4.96,-6.64,-4.96,-6.64,6.00,5.92,6.21,1.04,1.04,1.68
55.74,-4.96,-6.61,-4.96,-6.61,6.00,5.91,6.25,1.04,1.04,1.65
56.29,-4.96,-6.59,-4.96,-6.58,6.00,5.89,6.29,1.04,1.04,1.63
56.86,-4.96,-6.55,-4.97,-6.56,6.00,5.88,6.33,1.04,1.03,1.60
57.42,-4.96,-6.51,-4.96,-6.52,6.00,5.86,6.36,1.04,1.04,1.55
58.00,-4.96,-6.48,-4.91,-6.43,6.01,5.84,6.39,1.05,1.09,1.52
58.58,-4.83,-6.32,-4.84,-6.33,6.01,5.83,6.41,1.19,1.18,1.49
59.16,-4.73,-6.19,-4.77,-6.23,6.02,5.81,6.43,1.29,1.25,1.46
59.76,-4.73,-6.16,-4.72,-6.15,6.01,5.79,6.45,1.28,1.29,1.43
60.35,-4.73,-6.12,-4.72,-6.11,6.00,5.78,6.45,1.27,1.27,1.39
60.96,-4.73,-6.08,-4.74,-6.09,5.96,5.76,6.46,1.24,1.22,1.35
61.57,-4.73,-6.03,-4.71,-6.02,5.92,5.74,6.45,1.19,1.21,1.30
62.18,-4.69,-5.95,-4.65,-5.92,5.87,5.73,6.44,1.19,1.22,1.26
62.80,-4.55,-5.78,-4.58,-5.81,5.82,5.71,6.42,1.27,1.23,1.23
63.43,-4.51,-5.69,-4.53,-5.71,5.76,5.69,6.39,1.25,1.23,1.18
64.07,-4.51,-5.66,-4.50,-5.65,5.70,5.68,6.36,1.19,1.20,1.15
64.71,-4.51,-5.62,-4.51,-5.62,5.64,5.66,6.32,1.13,1.14,1.12
65.35,-4.51,-5.60,-4.51,-5.59,5.59,5.65,6.28,1.08,1.08,1.09
66.01,-4.51,-5.56,-4.51,-5.56,5.55,5.63,6.22,1.04,1.04,1.05
66.67,-4.51,-5.54,-4.51,-5.54,5.53,5.62,6.17,1.02,1.02,1.03
67.33,-4.51,-5.51,-4.51,-5.51,5.51,5.60,6.10,1.00,1.00,1.00
68.01,-4.51,-5.49,-4.51,-5.49,5.48,5.59,6.04,0.98,0.98,0.98
68.69,-4.51,-5.47,-4.51,-5.47,5.46,5.58,5.96,0.95,0.95,0.96
69.37,-4.51,-5.45,-4.51,-5.45,5.44,5.57,5.89,0.93,0.93,0.94
70.07,-4.51,-5.43,-4.51,-5.43,5.42,5.56,5.81,0.91,0.91,0.92
70.77,-4.51,-5.41,-4.51,-5.41,5.41,5.55,5.73,0.90,0.90,0.90
71.48,-4.51,-5.40,-4.50,-5.38,5.41,5.54,5.64,0.90,0.91,0.89
72.19,-4.51,-5.38,-4.51,-5.38,5.41,5.53,5.56,0.90,0.90,0.87
72.91,-4.51,-5.35,-4.56,-5.40,5.42,5.53,5.47,0.91,0.86,0.84
73.64,-4.65,-5.47,-4.63,-5.45,5.44,5.52,5.39,0.79,0.81,0.82
74.38,-4.73,-5.53,-4.69,-5.48,5.47,5.52,5.30,0.74,0.79,0.80
75.12,-4.73,-5.51,-4.74,-5.51,5.51,5.51,5.21,0.78,0.77,0.78
75.87,-4.73,-5.48,-4.78,-5.53,5.54,5.51,5.13,0.81,0.77,0.75
76.63,-4.84,-5.57,-4.83,-5.57,5.58,5.51,5.04,0.74,0.74,0.73
77.40,-4.93,-5.64,-4.90,-5.62,5.61,5.51,4.96,0.68,0.70,0.72
78.17,-4.96,-5.66,-4.96,-5.66,5.63,5.50,4.87,0.67,0.67,0.70
78.95,-4.96,-5.66,-4.97,-5.66,5.65,5.50,4.79,0.69,0.68,0.70
79.74,-4.96,-5.65,-4.96,-5.65,5.66,5.50,4.71,0.70,0.70,0.69
80.54,-4.96,-5.64,-4.96,-5.64,5.66,5.49,4.64,0.70,0.70,0.68
81.35,-4.96,-5.64,-4.96,-5.64,5.66,5.48,4.57,0.70,0.70,0.68
82.16,-4.96,-5.64,-4.97,-5.65,5.65,5.47,4.49,0.69,0.67,0.68
82.98,-4.96,-5.64,-4.96,-5.64,5.62,5.45,4.43,0.66,0.66,0.68
83.81,-4.96,-5.64,-4.91,-5.59,5.58,5.43,4.36,0.62,0.67,0.68
84.65,-4.81,-5.50,-4.84,-5.53,5.53,5.40,4.30,0.72,0.69,0.69
85.50,-4.73,-5.44,-4.78,-5.48,5.47,5.37,4.24,0.74,0.68,0.71
86.35,-4.73,-5.44,-4.70,-5.42,5.39,5.34,4.18,0.66,0.69,0.71
87.22,-4.67,-5.40,-4.60,-5.32,5.31,5.29,4.13,0.64,0.71,0.73
88.09,-4.44,-5.17,-4.47,-5.21,5.22,5.24,4.08,0.78,0.75,0.73
88.97,-4.29,-5.04,-4.35,-5.10,5.13,5.19,4.03,0.84,0.78,0.75
89.86,-4.28,-5.04,-4.26,-5.02,5.06,5.13,3.99,0.78,0.79,0.76
90.76,-4.26,-5.02,-4.20,-4.96,4.99,5.07,3.95,0.73,0.78,0.76
91.66,-4.12,-4.89,-4.14,-4.91,4.92,5.00,3.91,0.80,0.78,0.77
92.58,-4.05,-4.81,-4.09,-4.86,4.86,4.93,3.88,0.81,0.77,0.76
93.51,-4.05,-4.82,-4.05,-4.82,4.80,4.86,3.84,0.75,0.76,0.77
94.44,-4.05,-4.83,-4.00,-4.78,4.75,4.78,3.81,0.70,0.74,0.78
95.39,-3.95,-4.72,-3.94,-4.72,4.68,4.71,3.79,0.74,0.74,0.77
96.34,-3.82,-4.58,-3.88,-4.64,4.62,4.63,3.76,0.80,0.74,0.76
97.30,-3.82,-4.58,-3.80,-4.56,4.56,4.55,3.74,0.74,0.76,0.76
98.28,-3.77,-4.52,-3.72,-4.48,4.50,4.48,3.72,0.73,0.78,0.75
99.26,-3.63,-4.37,-3.67,-4.41,4.45,4.40,3.71,0.82,0.78,0.75
100.25,-3.59,-4.33,-3.60,-4.34,4.39,4.33,3.69,0.80,0.78,0.74
101.25,-3.59,-4.32,-3.58,-4.31,4.32,4.26,3.68,0.74,0.74,0.73
102.27,-3.59,-4.31,-3.59,-4.31,4.27,4.19,3.67,0.68,0.67,0.72
103.29,-3.59,-4.28,-3.57,-4.26,4.21,4.12,3.66,0.62,0.64,0.69
104.32,-3.54,-4.21,-3.51,-4.18,4.16,4.05,3.65,0.62,0.65,0.67
105.37,-3.42,-4.06,-3.45,-4.09,4.10,3.98,3.64,0.68,0.66,0.64
106.42,-3.37,-3.98,-3.39,-3.99,4.04,3.91,3.64,0.67,0.65,0.61
107.48,-3.37,-3.93,-3.36,-3.92,3.96,3.85,3.63,0.59,0.60,0.56
108.56,-3.37,-3.88,-3.38,-3.90,3.87,3.78,3.63,0.50,0.49,0.51
109.64,-3.37,-3.84,-3.36,-3.83,3.77,3.72,3.62,0.40,0.41,0.47
110.74,-3.36,-3.78,-3.30,-3.72,3.68,3.66,3.62,0.32,0.39,0.42
111.85,-3.17,-3.55,-3.22,-3.60,3.60,3.60,3.61,0.43,0.38,0.38
112.97,-3.14,-3.46,-3.16,-3.48,3.53,3.54,3.61,0.39,0.37,0.32
114.10,-3.14,-3.42,-3.12,-3.40,3.46,3.48,3.60,0.32,0.33,0.28
115.24,-3.14,-3.36,-3.14,-3.36,3.39,3.42,3.59,0.25,0.25,0.22
116.39,-3.14,-3.31,-3.14,-3.31,3.32,3.37,3.58,0.18,0.18,0.17
117.55,-3.14,-3.26,-3.14,-3.27,3.25,3.31,3.57,0.11,0.11,0.12
118.73,-3.14,-3.22,-3.15,-3.24,3.19,3.26,3.55,0.05,0.04,0.09
119.92,-3.14,-3.20,-3.14,-3.19,3.14,3.20,3.53,-0.00,-0.00,0.06
121.12,-3.13,-3.15,-3.08,-3.11,3.08,3.15,3.52,-0.05,-0.00,0.02
122.33,-2.99,-2.99,-3.01,-3.01,3.02,3.09,3.49,0.03,0.01,-0.00
123.55,-2.91,-2.89,-2.94,-2.92,2.96,3.04,3.47,0.05,0.02,-0.02
124.79,-2.91,-2.86,-2.90,-2.86,2.90,2.99,3.44,-0.01,0.00,-0.05
126.03,-2.91,-2.84,-2.90,-2.83,2.86,2.94,3.41,-0.05,-0.04,-0.07
127.29,-2.91,-2.82,-2.91,-2.82,2.82,2.89,3.38,-0.09,-0.09,-0.09
128.57,-2.91,-2.79,-2.91,-2.79,2.79,2.83,3.34,-0.12,-0.12,-0.12
129.85,-2.91,-2.77,-2.91,-2.77,2.77,2.78,3.30,-0.14,-0.14,-0.14
131.15,-2.91,-2.74,-2.91,-2.74,2.74,2.73,3.26,-0.17,-0.17,-0.17
132.46,-2.91,-2.72,-2.92,-2.74,2.69,2.68,3.22,-0.21,-0.23,-0.19
133.79,-2.91,-2.71,-2.90,-2.70,2.64,2.63,3.17,-0.26,-0.26,-0.20
135.12,-2.90,-2.67,-2.85,-2.62,2.59,2.58,3.12,-0.31,-0.26,-0.23
136.48,-2.74,-2.50,-2.77,-2.52,2.53,2.53,3.07,-0.21,-0.24,-0.24
137.84,-2.68,-2.41,-2.71,-2.43,2.48,2.48,3.01,-0.20,-0.22,-0.27
139.22,-2.68,-2.37,-2.67,-2.36,2.43,2.43,2.96,-0.25,-0.23,-0.31
140.61,-2.68,-2.35,-2.67,-2.35,2.39,2.38,2.90,-0.29,-0.29,-0.33
142.02,-2.68,-2.34,-2.68,-2.33,2.34,2.33,2.84,-0.34,-0.34,-0.34
143.44,-2.68,-2.31,-2.68,-2.32,2.29,2.28,2.79,-0.39,-0.40,-0.37
144.87,-2.68,-2.28,-2.69,-2.29,2.23,2.23,2.73,-0.44,-0.45,-0.40
146.32,-2.68,-2.25,-2.66,-2.24,2.18,2.18,2.66,-0.50,-0.48,-0.43
147.78,-2.63,-2.17,-2.60,-2.14,2.11,2.13,2.60,-0.51,-0.49,-0.46
149.26,-2.51,-2.02,-2.53,-2.03,2.04,2.08,2.54,-0.47,-0.49,-0.49
150.75,-2.45,-1.90,-2.47,-1.92,1.96,2.03,2.48,-0.49,-0.51,-0.55
152.26,-2.45,-1.85,-2.44,-1.84,1.88,1.98,2.42,-0.57,-0.57,-0.60
153.78,-2.45,-1.78,-2.44,-1.78,1.79,1.92,2.36,-0.66,-0.65,-0.67
155.32,-2.45,-1.72,-2.45,-1.72,1.72,1.87,2.30,-0.73,-0.73,-0.73
156.88,-2.45,-1.67,-2.45,-1.66,1.65,1.82,2.24,-0.80,-0.80,-0.78
158.44,-2.45,-1.60,-2.45,-1.60,1.59,1.77,2.18,-0.86,-0.86,-0.85
160.03,-2.45,-1.54,-2.45,-1.55,1.54,1.72,2.12,-0.91,-0.91,-0.91
161.63,-2.45,-1.50,-2.45,-1.50,1.50,1.67,2.06,-0.95,-0.95,-0.95
163.24,-2.45,-1.45,-2.45,-1.46,1.46,1.61,2.00,-0.99,-0.99,-1.00
164.88,-2.45,-1.42,-2.45,-1.42,1.43,1.56,1.94,-1.02,-1.02,-1.03
166.53,-2.45,-1.39,-2.45,-1.39,1.41,1.51,1.89,-1.04,-1.04,-1.06
168.19,-2.45,-1.36,-2.45,-1.37,1.38,1.46,1.83,-1.07,-1.07,-1.09
169.87,-2.45,-1.35,-2.45,-1.35,1.35,1.41,1.78,-1.10,-1.10,-1.10
171.57,-2.45,-1.34,-2.47,-1.36,1.32,1.36,1.73,-1.13,-1.15,-1.11
173.29,-2.45,-1.34,-2.44,-1.33,1.28,1.31,1.68,-1.17,-1.16,-1.11
175.02,-2.45,-1.34,-2.38,-1.28,1.25,1.26,1.63,-1.20,-1.13,-1.10
176.77,-2.26,-1.15,-2.31,-1.20,1.22,1.21,1.58,-1.04,-1.09,-1.11
178.54,-2.23,-1.12,-2.25,-1.14,1.19,1.17,1.53,-1.04,-1.06,-1.11
180.32,-2.23,-1.13,-2.21,-1.11,1.17,1.12,1.48,-1.06,-1.05,-1.10
182.13,-2.23,-1.13,-2.23,-1.13,1.15,1.08,1.44,-1.08,-1.08,-1.10
183.95,-2.23,-1.13,-2.23,-1.13,1.13,1.03,1.39,-1.10,-1.10,-1.10
185.79,-2.23,-1.13,-2.23,-1.13,1.12,0.99,1.35,-1.11,-1.11,-1.09
187.65,-2.23,-1.11,-2.23,-1.11,1.10,0.96,1.30,-1.13,-1.13,-1.12
189.52,-2.23,-1.10,-2.24,-1.11,1.08,0.92,1.26,-1.15,-1.16,-1.13
191.42,-2.23,-1.09,-2.23,-1.09,1.04,0.89,1.22,-1.19,-1.19,-1.14
193.33,-2.23,-1.07,-2.19,-1.04,1.00,0.86,1.18,-1.23,-1.19,-1.16
195.27,-2.12,-0.95,-2.12,-0.95,0.95,0.83,1.15,-1.17,-1.17,-1.17
197.22,-2.02,-0.84,-2.05,-0.87,0.90,0.80,1.11,-1.12,-1.15,-1.18
199.19,-2.00,-0.79,-2.00,-0.80,0.85,0.78,1.07,-1.15,-1.15,-1.21
201.18,-2.00,-0.78,-1.99,-0.77,0.81,0.76,1.04,-1.19,-1.18,-1.22
203.19,-2.00,-0.77,-2.00,-0.76,0.77,0.74,1.00,-1.23,-1.23,-1.23
205.23,-2.00,-0.75,-2.00,-0.75,0.74,0.73,0.97,-1.26,-1.26,-1.25
207.28,-2.00,-0.74,-2.00,-0.74,0.72,0.71,0.94,-1.28,-1.28,-1.26
209.35,-2.00,-0.72,-2.00,-0.72,0.71,0.70,0.91,-1.29,-1.29,-1.28
211.44,-2.00,-0.69,-2.00,-0.70,0.70,0.69,0.88,-1.30,-1.30,-1.31
213.56,-2.00,-0.68,-2.00,-0.69,0.69,0.69,0.85,-1.31,-1.31,-1.32
215.69,-2.00,-0.69,-2.00,-0.68,0.67,0.68,0.82,-1.33,-1.33,-1.31
217.85,-2.00,-0.67,-2.00,-0.67,0.66,0.68,0.79,-1.34,-1.34,-1.33
220.03,-2.00,-0.65,-2.00,-0.65,0.65,0.68,0.77,-1.34,-1.34,-1.35
222.23,-2.00,-0.63,-2.00,-0.64,0.65,0.68,0.74,-1.35,-1.35,-1.37
224.45,-2.00,-0.63,-2.00,-0.63,0.65,0.68,0.72,-1.35,-1.35,-1.36
226.70,-2.00,-0.63,-2.00,-0.63,0.65,0.68,0.70,-1.35,-1.35,-1.37
228.96,-2.00,-0.63,-2.00,-0.63,0.63,0.68,0.68,-1.37,-1.37,-1.37
231.25,-2.00,-0.63,-2.01,-0.64,0.60,0.68,0.66,-1.40,-1.41,-1.36
233.57,-2.00,-0.63,-2.00,-0.63,0.57,0.69,0.64,-1.43,-1.44,-1.37
235.90,-2.00,-0.62,-1.96,-0.59,0.53,0.69,0.62,-1.47,-1.43,-1.38
238.26,-1.89,-0.52,-1.89,-0.52,0.51,0.69,0.60,-1.38,-1.38,-1.37
240.64,-1.79,-0.42,-1.82,-0.46,0.51,0.69,0.59,-1.28,-1.31,-1.37
243.05,-1.77,-0.42,-1.75,-0.40,0.51,0.70,0.57,-1.26,-1.24,-1.35
245.48,-1.77,-0.43,-1.77,-0.43,0.52,0.70,0.56,-1.25,-1.24,-1.34
247.93,-1.77,-0.45,-1.83,-0.51,0.54,0.70,0.55,-1.23,-1.30,-1.32
250.41,-1.96,-0.64,-1.92,-0.61,0.55,0.70,0.54,-1.41,-1.37,-1.32
252.92,-2.00,-0.71,-1.98,-0.69,0.57,0.71,0.53,-1.43,-1.41,-1.29
255.45,-2.00,-0.73,-1.96,-0.69,0.59,0.71,0.52,-1.41,-1.37,-1.27
258.00,-1.86,-0.61,-1.88,-0.63,0.61,0.71,0.52,-1.25,-1.27,-1.25
260.58,-1.77,-0.52,-1.81,-0.57,0.61,0.71,0.51,-1.16,-1.19,-1.25
263.19,-1.77,-0.55,-1.76,-0.54,0.61,0.71,0.51,-1.16,-1.15,-1.22
265.82,-1.77,-0.57,-1.76,-0.56,0.60,0.71,0.51,-1.17,-1.16,-1.20
268.48,-1.77,-0.58,-1.77,-0.59,0.59,0.71,0.51,-1.18,-1.18,-1.19
271.16,-1.77,-0.61,-1.77,-0.61,0.59,0.71,0.50,-1.18,-1.18,-1.16
273.87,-1.77,-0.63,-1.77,-0.63,0.61,0.71,0.51,-1.16,-1.16,-1.14
276.61,-1.77,-0.65,-1.77,-0.65,0.64,0.71,0.51,-1.13,-1.13,-1.12
279.38,-1.77,-0.67,-1.77,-0.67,0.67,0.71,0.51,-1.10,-1.10,-1.10
282.17,-1.77,-0.70,-1.77,-0.70,0.71,0.71,0.51,-1.06,-1.06,-1.07
284.99,-1.77,-0.72,-1.77,-0.72,0.74,0.71,0.52,-1.03,-1.03,-1.05
287.84,-1.77,-0.75,-1.77,-0.75,0.76,0.71,0.52,-1.00,-1.00,-1.02
290.72,-1.77,-0.78,-1.77,-0.78,0.78,0.71,0.53,-0.98,-0.98,-0.99
293.63,-1.77,-0.80,-1.77,-0.80,0.79,0.71,0.54,-0.98,-0.98,-0.97
296.57,-1.77,-0.83,-1.79,-0.84,0.79,0.71,0.54,-0.98,-0.99,-0.94
299.53,-1.77,-0.85,-1.76,-0.84,0.79,0.71,0.55,-0.98,-0.97,-0.92
302.53,-1.76,-0.85,-1.70,-0.80,0.78,0.71,0.56,-0.98,-0.92,-0.91
305.55,-1.57,-0.70,-1.62,-0.74,0.76,0.71,0.57,-0.81,-0.86,-0.87
308.61,-1.54,-0.67,-1.56,-0.70,0.75,0.71,0.58,-0.79,-0.81,-0.87
311.69,-1.54,-0.70,-1.52,-0.69,0.73,0.71,0.60,-0.81,-0.79,-0.84
314.81,-1.54,-0.72,-1.54,-0.71,0.72,0.71,0.61,-0.82,-0.82,-0.82
317.96,-1.54,-0.73,-1.54,-0.72,0.71,0.71,0.62,-0.83,-0.83,-0.81
321.14,-1.54,-0.73,-1.54,-0.73,0.71,0.70,0.63,-0.83,-0.83,-0.81
324.35,-1.54,-0.72,-1.54,-0.73,0.72,0.70,0.65,-0.82,-0.82,-0.82
327.59,-1.54,-0.74,-1.54,-0.74,0.74,0.70,0.66,-0.80,-0.80,-0.80
330.87,-1.54,-0.75,-1.54,-0.75,0.75,0.70,0.68,-0.79,-0.79,-0.79
334.18,-1.54,-0.75,-1.54,-0.76,0.76,0.70,0.69,-0.78,-0.78,-0.79
337.52,-1.54,-0.77,-1.54,-0.77,0.77,0.70,0.71,-0.77,-0.77,-0.77
340.90,-1.54,-0.79,-1.54,-0.78,0.79,0.70,0.73,-0.75,-0.75,-0.75
344.30,-1.54,-0.81,-1.54,-0.81,0.80,0.70,0.74,-0.74,-0.74,-0.73
347.75,-1.54,-0.82,-1.54,-0.82,0.82,0.70,0.76,-0.72,-0.72,-0.72
351.23,-1.54,-0.84,-1.54,-0.84,0.85,0.71,0.78,-0.69,-0.69,-0.70
354.74,-1.54,-0.86,-1.54,-0.86,0.87,0.71,0.80,-0.67,-0.67,-0.68
358.28,-1.54,-0.89,-1.54,-0.89,0.90,0.71,0.82,-0.64,-0.64,-0.65
361.87,-1.54,-0.91,-1.54,-0.91,0.92,0.71,0.84,-0.62,-0.62,-0.63
365.49,-1.54,-0.94,-1.54,-0.93,0.93,0.71,0.86,-0.60,-0.60,-0.60
369.14,-1.54,-0.95,-1.55,-0.96,0.94,0.71,0.88,-0.60,-0.61,-0.59
372.83,-1.54,-0.97,-1.55,-0.97,0.93,0.72,0.91,-0.61,-0.62,-0.57
376.56,-1.54,-0.98,-1.51,-0.96,0.92,0.72,0.93,-0.62,-0.59,-0.55
380.33,-1.45,-0.92,-1.44,-0.91,0.90,0.72,0.95,-0.55,-0.54,-0.53
384.13,-1.34,-0.83,-1.37,-0.86,0.88,0.73,0.97,-0.46,-0.49,-0.51
387.97,-1.31,-0.80,-1.32,-0.81,0.86,0.73,1.00,-0.45,-0.45,-0.51
391.85,-1.31,-0.81,-1.30,-0.81,0.85,0.73,1.02,-0.46,-0.45,-0.50
395.77,-1.31,-0.83,-1.31,-0.82,0.83,0.74,1.05,-0.47,-0.47,-0.48
399.73,-1.31,-0.84,-1.31,-0.84,0.83,0.74,1.07,-0.48,-0.48,-0.47
403.72,-1.31,-0.85,-1.31,-0.85,0.84,0.75,1.10,-0.47,-0.47,-0.46
407.76,-1.31,-0.86,-1.31,-0.86,0.85,0.76,1.12,-0.46,-0.46,-0.45
411.84,-1.31,-0.87,-1.31,-0.87,0.86,0.76,1.15,-0.45,-0.45,-0.44
415.96,-1.31,-0.88,-1.31,-0.88,0.86,0.77,1.17,-0.45,-0.45,-0.43
420.12,-1.31,-0.89,-1.31,-0.88,0.87,0.78,1.20,-0.44,-0.44,-0.42
424.32,-1.31,-0.89,-1.31,-0.89,0.88,0.79,1.22,-0.43,-0.43,-0.42
428.56,-1.31,-0.90,-1.31,-0.89,0.90,0.80,1.25,-0.41,-0.41,-0.41
432.85,-1.31,-0.90,-1.29,-0.88,0.93,0.80,1.27,-0.38,-0.37,-0.41
437.18,-1.31,-0.90,-1.31,-0.91,0.96,0.81,1.29,-0.35,-0.35,-0.40
441.55,-1.31,-0.91,-1.37,-0.97,1.00,0.82,1.31,-0.31,-0.37,-0.40
445.96,-1.47,-1.08,-1.44,-1.05,1.04,0.84,1.34,-0.43,-0.40,-0.39
450.42,-1.54,-1.15,-1.51,-1.13,1.08,0.85,1.36,-0.45,-0.42,-0.39
454.93,-1.54,-1.17,-1.55,-1.18,1.13,0.86,1.38,-0.41,-0.43,-0.37
459.48,-1.54,-1.17,-1.55,-1.19,1.16,0.87,1.39,-0.38,-0.38,-0.37
464.07,-1.54,-1.19,-1.54,-1.19,1.19,0.89,1.41,-0.35,-0.35,-0.35
468.71,-1.54,-1.21,-1.54,-1.20,1.22,0.90,1.43,-0.32,-0.32,-0.33
