frequency,raw
20.00,-1.45
20.20,-1.39
20.40,-1.34
20.61,-1.29
20.81,-1.25
21.02,-1.20
21.23,-1.15
21.44,-1.10
21.66,-1.05
21.87,-1.01
22.09,-0.96
22.31,-0.92
22.54,-0.88
22.76,-0.84
22.99,-0.80
23.22,-0.76
23.45,-0.73
23.69,-0.69
23.92,-0.66
24.16,-0.62
24.40,-0.59
24.65,-0.55
24.89,-0.52
25.14,-0.48
25.39,-0.45
25.65,-0.42
25.91,-0.38
26.16,-0.35
26.43,-0.33
26.69,-0.29
26.96,-0.26
27.23,-0.23
27.50,-0.20
27.77,-0.17
28.05,-0.14
28.33,-0.11
28.62,-0.08
28.90,-0.05
29.19,-0.02
29.48,0.00
29.78,0.02
30.08,0.05
30.38,0.08
30.68,0.10
30.99,0.12
31.30,0.14
31.61,0.17
31.93,0.19
32.24,0.21
32.57,0.24
32.89,0.26
33.22,0.28
33.55,0.30
33.89,0.32
34.23,0.33
34.57,0.36
34.92,0.38
35.27,0.39
35.62,0.41
35.97,0.43
36.33,0.44
36.70,0.45
37.06,0.46
37.43,0.48
37.81,0.49
38.19,0.49
38.57,0.51
38.95,0.52
39.34,0.53
39.74,0.54
40.14,0.56
40.54,0.57
40.94,0.59
41.35,0.60
41.76,0.61
42.18,0.63
42.60,0.64
43.03,0.65
43.46,0.66
43.90,0.68
44.33,0.69
44.78,0.70
45.23,0.71
45.68,0.72
46.13,0.73
46.60,0.74
47.06,0.75
47.53,0.78
48.01,0.80
48.49,0.81
48.97,0.83
49.46,0.84
49.96,0.86
50.46,0.87
50.96,0.89
51.47,0.89
51.99,0.91
52.51,0.92
53.03,0.93
53.56,0.94
54.10,0.93
54.64,0.94
55.18,0.94
55.74,0.94
56.29,0.93
56.86,0.92
57.42,0.91
58.00,0.89
58.58,0.89
59.16,0.89
59.76,0.88
60.35,0.88
60.96,0.88
61.57,0.88
62.18,0.88
62.80,0.88
63.43,0.88
64.07,0.88
64.71,0.88
65.35,0.88
66.01,0.88
66.67,0.88
67.33,0.88
68.01,0.88
68.69,0.88
69.37,0.88
70.07,0.88
70.77,0.88
71.48,0.87
72.19,0.87
72.91,0.87
73.64,0.87
74.38,0.86
75.12,0.86
75.87,0.85
76.63,0.85
77.40,0.85
78.17,0.84
78.95,0.84
79.74,0.84
80.54,0.83
81.35,0.83
82.16,0.83
82.98,0.83
83.81,0.83
84.65,0.82
85.50,0.82
86.35,0.82
87.22,0.82
88.09,0.82
88.97,0.82
89.86,0.82
90.76,0.82
91.66,0.82
92.58,0.82
93.51,0.82
94.44,0.82
95.39,0.82
96.34,0.82
97.30,0.81
98.28,0.81
99.26,0.81
100.25,0.81
101.25,0.81
102.27,0.81
103.29,0.81
104.32,0.80
105.37,0.80
106.42,0.80
107.48,0.79
108.56,0.79
109.64,0.79
110.74,0.79
111.85,0.79
112.97,0.78
114.10,0.78
115.24,0.78
116.39,0.78
117.55,0.77
118.73,0.77
119.92,0.77
121.12,0.77
122.33,0.76
123.55,0.76
124.79,0.75
126.03,0.75
127.29,0.74
128.57,0.74
129.85,0.74
131.15,0.74
132.46,0.73
133.79,0.73
135.12,0.73
136.48,0.73
137.84,0.73
139.22,0.73
140.61,0.73
142.02,0.72
143.44,0.72
144.87,0.72
146.32,0.71
147.78,0.71
149.26,0.71
150.75,0.70
152.26,0.70
153.78,0.70
155.32,0.69
156.88,0.69
158.44,0.69
160.03,0.69
161.63,0.69
163.24,0.68
164.88,0.68
166.53,0.68
168.19,0.68
169.87,0.67
171.57,0.67
173.29,0.67
175.02,0.67
176.77,0.67
178.54,0.67
180.32,0.68
182.13,0.68
183.95,0.68
185.79,0.67
187.65,0.66
189.52,0.64
191.42,0.62
193.33,0.59
195.27,0.56
197.22,0.53
199.19,0.50
201.18,0.46
203.19,0.42
205.23,0.38
207.28,0.36
209.35,0.34
211.44,0.31
213.56,0.30
215.69,0.29
217.85,0.30
220.03,0.29
222.23,0.29
224.45,0.30
226.70,0.31
228.96,0.30
231.25,0.31
233.57,0.31
235.90,0.29
238.26,0.28
240.64,0.25
243.05,0.22
245.48,0.18
247.93,0.14
250.41,0.11
252.92,0.05
255.45,0.02
258.00,-0.01
260.58,-0.05
263.19,-0.08
265.82,-0.11
268.48,-0.13
271.16,-0.14
273.87,-0.15
276.61,-0.16
279.38,-0.16
282.17,-0.17
284.99,-0.16
287.84,-0.15
290.72,-0.13
293.63,-0.11
296.57,-0.09
299.53,-0.08
302.53,-0.05
305.55,-0.02
308.61,0.01
311.69,0.06
314.81,0.10
317.96,0.15
321.14,0.20
324.35,0.25
327.59,0.30
330.87,0.33
334.18,0.35
337.52,0.38
340.90,0.39
344.30,0.42
347.75,0.44
351.23,0.46
354.74,0.47
358.28,0.47
361.87,0.45
365.49,0.42
369.14,0.40
372.83,0.37
376.56,0.32
380.33,0.30
384.13,0.27
387.97,0.24
391.85,0.20
395.77,0.18
399.73,0.13
403.72,0.10
407.76,0.05
411.84,0.01
415.96,-0.03
420.12,-0.06
424.32,-0.09
428.56,-0.11
432.85,-0.13
437.18,-0.16
441.55,-0.20
445.96,-0.25
450.42,-0.29
454.93,-0.33
459.48,-0.38
464.07,-0.41
468.71,-0.44
473.40,-0.48
478.13,-0.51
482.91,-0.54
487.74,-0.55
492.62,-0.57
497.55,-0.60
502.52,-0.62
507.55,-0.65
512.62,-0.67
517.75,-0.71
522.93,-0.73
528.16,-0.75
533.44,-0.78
538.77,-0.82
544.16,-0.85
549.60,-0.88
555.10,-0.90
560.65,-0.93
566.25,-0.96
571.92,-1.00
577.64,-1.03
583.41,-1.06
589.25,-1.08
595.14,-1.12
601.09,-1.16
607.10,-1.19
613.17,-1.22
619.30,-1.24
625.50,-1.27
631.75,-1.29
638.07,-1.33
644.45,-1.35
650.89,-1.37
657.40,-1.40
663.98,-1.43
670.62,-1.45
677.32,-1.47
684.10,-1.51
690.94,-1.54
697.85,-1.58
704.83,-1.61
711.87,-1.63
718.99,-1.65
726.18,-1.66
733.44,-1.69
740.78,-1.72
748.19,-1.74
755.67,-1.76
763.23,-1.79
770.86,-1.82
778.57,-1.85
786.35,-1.89
794.22,-1.91
802.16,-1.94
810.18,-1.97
818.28,-1.98
826.46,-1.98
834.73,-1.99
843.08,-2.00
851.51,-2.00
860.02,-2.00
868.62,-2.00
877.31,-2.02
886.08,-2.04
894.94,-2.05
903.89,-2.06
912.93,-2.08
922.06,-2.08
931.28,-2.07
940.59,-2.06
950.00,-2.04
959.50,-2.03
969.09,-2.02
978.78,-2.00
988.57,-1.97
998.46,-1.93
1008.44,-1.91
1018.53,-1.88
1028.71,-1.86
1039.00,-1.82
1049.39,-1.78
1059.88,-1.74
1070.48,-1.68
1081.19,-1.63
1092.00,-1.58
1102.92,-1.51
1113.95,-1.44
1125.09,-1.37
1136.34,-1.30
1147.70,-1.24
1159.18,-1.18
1170.77,-1.12
1182.48,-1.06
1194.30,-1.00
1206.25,-0.95
1218.31,-0.90
1230.49,-0.84
1242.80,-0.79
1255.22,-0.74
1267.78,-0.70
1280.45,-0.66
1293.26,-0.61
1306.19,-0.59
1319.25,-0.55
1332.45,-0.52
1345.77,-0.51
1359.23,-0.50
1372.82,-0.50
1386.55,-0.49
1400.41,-0.49
1414.42,-0.48
1428.56,-0.48
1442.85,-0.47
1457.28,-0.46
1471.85,-0.47
1486.57,-0.50
1501.43,-0.53
1516.45,-0.56
1531.61,-0.58
1546.93,-0.60
1562.40,-0.62
1578.02,-0.64
1593.80,-0.67
1609.74,-0.69
1625.84,-0.72
1642.10,-0.76
1658.52,-0.80
1675.10,-0.85
1691.85,-0.89
1708.77,-0.93
1725.86,-0.97
1743.12,-1.02
1760.55,-1.07
1778.15,-1.12
1795.94,-1.19
1813.90,-1.27
1832.03,-1.33
1850.36,-1.40
1868.86,-1.45
1887.55,-1.52
1906.42,-1.59
1925.49,-1.66
1944.74,-1.72
1964.19,-1.78
1983.83,-1.84
2003.67,-1.92
2023.71,-1.98
2043.94,-2.04
2064.38,-2.09
2085.03,-2.15
2105.88,-2.19
2126.94,-2.21
2148.20,-2.24
2169.69,-2.27
2191.38,-2.30
2213.30,-2.32
2235.43,-2.33
2257.78,-2.36
2280.36,-2.38
2303.17,-2.40
2326.20,-2.42
2349.46,-2.42
2372.95,-2.43
2396.68,-2.44
2420.65,-2.46
2444.86,-2.47
2469.31,-2.48
2494.00,-2.47
2518.94,-2.44
2544.13,-2.40
2569.57,-2.35
2595.27,-2.31
2621.22,-2.26
2647.43,-2.20
2673.90,-2.16
2700.64,-2.10
2727.65,-2.04
2754.93,-1.96
2782.48,-1.87
2810.30,-1.79
2838.40,-1.70
2866.79,-1.62
2895.46,-1.54
2924.41,-1.46
2953.65,-1.38
2983.19,-1.31
3013.02,-1.23
3043.15,-1.16
3073.58,-1.08
3104.32,-0.99
3135.36,-0.92
3166.72,-0.85
3198.38,-0.80
3230.37,-0.77
3262.67,-0.73
3295.30,-0.70
3328.25,-0.68
3361.53,-0.68
3395.15,-0.69
3429.10,-0.73
3463.39,-0.78
3498.03,-0.87
3533.01,-0.97
3568.34,-1.11
3604.02,-1.25
3640.06,-1.42
3676.46,-1.61
3713.22,-1.84
3750.36,-2.07
3787.86,-2.33
3825.74,-2.61
3864.00,-2.90
3902.64,-3.23
3941.66,-3.57
3981.08,-3.91
4020.89,-4.25
4061.10,-4.61
4101.71,-4.97
4142.73,-5.31
4184.15,-5.66
4226.00,-6.01
4268.26,-6.35
4310.94,-6.68
4354.05,-7.01
4397.59,-7.33
4441.56,-7.65
4485.98,-7.95
4530.84,-8.23
4576.15,-8.51
4621.91,-8.79
4668.13,-9.03
4714.81,-9.29
4761.96,-9.53
4809.58,-9.76
4857.67,-9.98
4906.25,-10.18
4955.31,-10.38
5004.87,-10.57
5054.91,-10.76
5105.46,-10.95
5156.52,-11.15
5208.08,-11.34
5260.16,-11.51
5312.77,-11.68
5365.89,-11.84
5419.55,-11.99
5473.75,-12.12
5528.49,-12.24
5583.77,-12.34
5639.61,-12.42
5696.00,-12.49
5752.96,-12.55
5810.49,-12.58
5868.60,-12.62
5927.28,-12.65
5986.56,-12.66
6046.42,-12.68
6106.89,-12.70
6167.96,-12.70
6229.64,-12.71
6291.93,-12.72
6354.85,-12.73
6418.40,-12.71
6482.58,-12.71
6547.41,-12.73
6612.88,-12.75
6679.01,-12.79
6745.80,-12.87
6813.26,-12.98
6881.39,-13.08
6950.21,-13.20
7019.71,-13.31
7089.91,-13.41
7160.81,-13.49
7232.41,-13.55
7304.74,-13.58
7377.79,-13.60
7451.56,-13.59
7526.08,-13.56
7601.34,-13.52
7677.35,-13.49
7754.13,-13.49
7831.67,-13.53
7909.98,-13.64
7989.08,-13.82
8068.98,-14.11
8149.67,-14.51
8231.16,-14.98
8313.47,-15.53
8396.61,-16.11
8480.57,-16.73
8565.38,-17.35
8651.03,-17.96
8737.54,-18.52
8824.92,-19.03
8913.17,-19.48
9002.30,-19.85
9092.32,-20.14
9183.25,-20.36
9275.08,-20.50
9367.83,-20.58
9461.51,-20.66
9556.12,-20.73
9651.68,-20.81
9748.20,-20.89
9845.68,-21.02
9944.14,-21.15
10043.58,-21.30
10144.02,-21.50
10245.46,-21.72
10347.91,-21.96
10451.39,-22.23
10555.91,-22.53
10661.46,-22.84
10768.08,-23.17
10875.76,-23.53
10984.52,-23.93
11094.36,-24.37
11205.31,-24.84
11317.36,-25.33
11430.53,-25.87
11544.84,-26.45
11660.29,-27.05
11776.89,-27.66
11894.66,-28.26
12013.60,-28.87
12133.74,-29.46
12255.08,-30.05
12377.63,-30.63
12501.41,-31.21
12626.42,-31.81
12752.68,-32.44
12880.21,-33.14
13009.01,-33.88
13139.10,-34.70
13270.49,-35.59
13403.20,-36.52
13537.23,-37.48
13672.60,-38.43
13809.33,-39.38
13947.42,-40.33
14086.90,-41.20
14227.77,-42.03
14370.04,-42.77
14513.74,-43.45
14658.88,-44.06
14805.47,-44.59
14953.52,-45.01
15103.06,-45.35
15254.09,-45.63
15406.63,-45.87
15560.70,-46.07
15716.30,-46.22
15873.47,-46.33
16032.20,-46.42
16192.52,-46.46
16354.45,-46.45
16517.99,-46.38
16683.17,-46.25
16850.01,-46.06
17018.51,-45.82
17188.69,-45.51
17360.58,-45.16
17534.18,-44.80
17709.53,-44.47
17886.62,-44.17
18065.49,-43.99
18246.14,-43.90
18428.60,-43.87
18612.89,-43.87
18799.02,-43.93
18987.01,-44.01
19176.88,-44.16
19368.65,-44.33
19562.33,-44.54
19757.96,-44.80
19955.54,-45.10
