frequency,raw,error,smoothed,error_smoothed,equalization,parametric_eq,fixed_band_eq,equalized_raw,equalized_smoothed,target
20.00,-16.67,-9.21,-16.67,-9.20,6.00,5.74,2.45,-10.67,-10.67,-7.47
20.20,-16.56,-9.09,-16.57,-9.10,6.00,5.78,2.53,-10.56,-10.57,-7.48
20.40,-16.46,-8.99,-16.47,-8.99,6.00,5.82,2.60,-10.46,-10.47,-7.48
20.61,-16.36,-8.87,-16.36,-8.87,6.00,5.86,2.68,-10.36,-10.36,-7.49
20.81,-16.25,-8.76,-16.25,-8.76,6.00,5.89,2.76,-10.25,-10.25,-7.50
21.02,-16.14,-8.64,-16.14,-8.64,6.00,5.93,2.84,-10.14,-10.14,-7.51
21.23,-16.01,-8.51,-16.02,-8.52,6.00,5.96,2.92,-10.01,-10.02,-7.51
21.44,-15.89,-8.40,-15.90,-8.40,6.00,6.00,3.01,-9.89,-9.90,-7.50
21.66,-15.77,-8.26,-15.77,-8.27,6.00,6.03,3.10,-9.77,-9.77,-7.51
21.87,-15.63,-8.12,-15.62,-8.11,6.00,6.05,3.19,-9.63,-9.62,-7.51
22.09,-15.44,-7.93,-15.42,-7.90,6.00,6.08,3.28,-9.44,-9.42,-7.52
22.31,-15.16,-7.64,-15.17,-7.65,6.00,6.10,3.38,-9.16,-9.17,-7.52
22.54,-14.89,-7.36,-14.86,-7.34,6.00,6.13,3.48,-8.89,-8.86,-7.53
22.76,-14.60,-7.09,-14.59,-7.07,6.00,6.14,3.58,-8.60,-8.59,-7.52
22.99,-14.32,-6.81,-14.43,-6.91,6.00,6.16,3.68,-8.32,-8.43,-7.52
23.22,-14.41,-6.89,-14.40,-6.88,6.00,6.17,3.79,-8.41,-8.40,-7.53
23.45,-14.51,-6.99,-14.48,-6.95,6.00,6.18,3.90,-8.51,-8.48,-7.53
23.69,-14.61,-7.09,-14.62,-7.09,6.00,6.19,4.01,-8.61,-8.62,-7.53
23.92,-14.72,-7.20,-14.72,-7.19,6.00,6.20,4.12,-8.72,-8.72,-7.53
24.16,-14.80,-7.29,-14.80,-7.29,6.00,6.20,4.23,-8.80,-8.80,-7.52
24.40,-14.89,-7.38,-14.91,-7.40,6.00,6.20,4.35,-8.89,-8.91,-7.51
24.65,-14.95,-7.45,-14.98,-7.48,6.00,6.19,4.47,-8.95,-8.98,-7.51
24.89,-15.03,-7.53,-14.97,-7.46,6.00,6.18,4.59,-9.03,-8.97,-7.51
25.14,-14.87,-7.35,-14.83,-7.32,6.00,6.17,4.71,-8.87,-8.83,-7.52
25.39,-14.55,-7.03,-14.54,-7.03,6.00,6.16,4.83,-8.55,-8.54,-7.52
25.65,-14.24,-6.72,-14.21,-6.69,6.00,6.14,4.95,-8.24,-8.21,-7.52
25.91,-13.92,-6.40,-14.02,-6.51,6.00,6.12,5.07,-7.92,-8.02,-7.52
26.16,-14.01,-6.49,-14.05,-6.53,6.00,6.09,5.19,-8.01,-8.05,-7.52
26.43,-14.32,-6.79,-14.33,-6.81,6.01,6.06,5.31,-8.31,-8.32,-7.53
26.69,-14.65,-7.13,-14.67,-7.14,6.03,6.03,5.43,-8.62,-8.64,-7.53
26.96,-14.98,-7.44,-14.83,-7.29,6.05,5.99,5.55,-8.93,-8.78,-7.54
27.23,-14.77,-7.22,-14.76,-7.22,6.04,5.95,5.66,-8.73,-8.72,-7.55
27.50,-14.44,-6.89,-14.49,-6.95,6.00,5.91,5.77,-8.43,-8.49,-7.55
27.77,-14.11,-6.56,-14.12,-6.57,5.93,5.86,5.87,-8.18,-8.19,-7.55
28.05,-13.78,-6.24,-13.79,-6.24,5.83,5.81,5.97,-7.95,-7.95,-7.55
28.33,-13.47,-5.93,-13.46,-5.91,5.72,5.75,6.06,-7.76,-7.74,-7.55
28.62,-13.17,-5.61,-13.14,-5.59,5.59,5.70,6.14,-7.58,-7.55,-7.56
28.90,-12.85,-5.31,-12.90,-5.36,5.47,5.63,6.22,-7.38,-7.43,-7.55
29.19,-12.73,-5.19,-12.75,-5.21,5.38,5.57,6.28,-7.36,-7.37,-7.55
29.48,-12.71,-5.18,-12.68,-5.15,5.31,5.50,6.34,-7.41,-7.38,-7.54
29.78,-12.69,-5.16,-12.69,-5.16,5.26,5.43,6.38,-7.43,-7.43,-7.54
30.08,-12.70,-5.18,-12.72,-5.19,5.23,5.35,6.42,-7.47,-7.49,-7.53
30.38,-12.77,-5.24,-12.80,-5.27,5.22,5.27,6.44,-7.56,-7.58,-7.54
30.68,-12.85,-5.32,-12.86,-5.33,5.19,5.19,6.44,-7.66,-7.67,-7.54
30.99,-12.93,-5.39,-12.85,-5.31,5.12,5.10,6.43,-7.82,-7.73,-7.55
31.30,-12.72,-5.17,-12.73,-5.18,4.99,5.01,6.41,-7.72,-7.73,-7.55
31.61,-12.48,-4.94,-12.51,-4.96,4.85,4.92,6.38,-7.63,-7.66,-7.55
31.93,-12.26,-4.70,-12.26,-4.71,4.73,4.83,6.33,-7.53,-7.53,-7.56
32.24,-12.04,-4.49,-12.01,-4.45,4.64,4.73,6.27,-7.40,-7.37,-7.56
32.57,-11.85,-4.28,-11.81,-4.24,4.57,4.63,6.19,-7.27,-7.24,-7.57
32.89,-11.65,-4.07,-11.74,-4.16,4.49,4.53,6.10,-7.15,-7.24,-7.58
33.22,-11.80,-4.22,-11.89,-4.31,4.39,4.43,6.01,-7.40,-7.49,-7.58
33.55,-12.12,-4.54,-12.13,-4.56,4.28,4.32,5.89,-7.84,-7.85,-7.58
33.89,-12.43,-4.86,-12.26,-4.68,4.17,4.21,5.77,-8.27,-8.09,-7.58
34.23,-12.15,-4.56,-12.03,-4.45,4.06,4.10,5.64,-8.08,-7.97,-7.59
34.57,-11.54,-3.96,-11.58,-3.99,3.98,3.99,5.50,-7.56,-7.59,-7.59
34.92,-10.95,-3.35,-11.13,-3.54,3.92,3.88,5.36,-7.03,-7.21,-7.60
35.27,-10.91,-3.33,-10.94,-3.35,3.84,3.76,5.20,-7.08,-7.10,-7.59
35.62,-11.05,-3.45,-11.00,-3.40,3.71,3.65,5.04,-7.35,-7.29,-7.61
35.97,-11.21,-3.59,-11.19,-3.58,3.54,3.53,4.88,-7.66,-7.65,-7.62
36.33,-11.32,-3.69,-11.38,-3.75,3.40,3.41,4.71,-7.92,-7.98,-7.63
36.70,-11.41,-3.78,-11.41,-3.77,3.32,3.29,4.53,-8.09,-8.09,-7.64
37.06,-11.39,-3.74,-11.17,-3.53,3.29,3.16,4.36,-8.10,-7.89,-7.65
37.43,-10.77,-3.11,-10.73,-3.08,3.25,3.04,4.18,-7.52,-7.48,-7.66
37.81,-10.16,-2.48,-10.33,-2.66,3.14,2.92,4.00,-7.02,-7.20,-7.68
38.19,-10.05,-2.36,-10.27,-2.58,2.92,2.79,3.82,-7.13,-7.35,-7.70
38.57,-10.48,-2.77,-10.46,-2.74,2.63,2.67,3.63,-7.86,-7.83,-7.72
38.95,-10.90,-3.16,-10.57,-2.83,2.32,2.54,3.45,-8.57,-8.25,-7.74
39.34,-10.37,-2.61,-10.35,-2.59,2.09,2.41,3.27,-8.27,-8.26,-7.76
39.74,-9.73,-1.95,-9.85,-2.07,1.96,2.29,3.08,-7.77,-7.89,-7.78
40.14,-9.23,-1.43,-9.23,-1.44,1.87,2.16,2.90,-7.36,-7.36,-7.80
40.54,-9.01,-1.19,-8.93,-1.11,1.77,2.03,2.72,-7.24,-7.16,-7.82
40.94,-8.79,-0.95,-9.05,-1.22,1.63,1.90,2.53,-7.15,-7.41,-7.84
41.35,-9.38,-1.53,-9.49,-1.64,1.53,1.77,2.35,-7.84,-7.95,-7.85
41.76,-10.09,-2.23,-9.85,-1.99,1.50,1.64,2.17,-8.59,-8.35,-7.87
42.18,-10.15,-2.27,-9.80,-1.92,1.52,1.51,1.99,-8.63,-8.27,-7.88
42.60,-9.36,-1.46,-9.43,-1.53,1.54,1.38,1.81,-7.82,-7.89,-7.90
43.03,-8.66,-0.75,-9.21,-1.30,1.50,1.25,1.63,-7.17,-7.72,-7.92
43.46,-9.27,-1.34,-9.28,-1.35,1.40,1.13,1.45,-7.86,-7.87,-7.93
43.90,-9.87,-1.92,-9.38,-1.43,1.28,1.00,1.28,-8.58,-8.10,-7.95
44.33,-9.37,-1.40,-9.23,-1.26,1.16,0.87,1.10,-8.21,-8.07,-7.97
44.78,-8.53,-0.54,-8.83,-0.85,1.06,0.74,0.93,-7.47,-7.77,-7.99
45.23,-8.37,-0.37,-8.61,-0.61,0.98,0.61,0.75,-7.39,-7.63,-8.00
45.68,-8.87,-0.85,-8.75,-0.72,0.90,0.48,0.58,-7.98,-7.85,-8.03
46.13,-9.18,-1.13,-9.01,-0.96,0.75,0.35,0.41,-8.43,-8.26,-8.06
46.60,-9.00,-0.92,-9.04,-0.96,0.54,0.23,0.23,-8.46,-8.50,-8.08
47.06,-8.76,-0.67,-8.70,-0.61,0.29,0.10,0.06,-8.47,-8.42,-8.10
47.53,-8.27,-0.16,-8.27,-0.15,0.06,-0.03,-0.11,-8.22,-8.22,-8.12
48.01,-7.79,0.38,-7.93,0.23,-0.14,-0.15,-0.27,-7.93,-8.07,-8.17
48.49,-7.66,0.52,-7.65,0.53,-0.32,-0.28,-0.44,-7.99,-7.98,-8.19
48.97,-7.54,0.67,-7.39,0.83,-0.49,-0.41,-0.61,-8.03,-7.87,-8.22
49.46,-7.28,0.96,-7.24,1.01,-0.62,-0.53,-0.78,-7.91,-7.86,-8.25
49.96,-7.02,1.27,-7.39,0.89,-0.71,-0.66,-0.94,-7.73,-8.10,-8.29
50.46,-7.62,0.68,-7.67,0.63,-0.76,-0.78,-1.11,-8.38,-8.43,-8.30
50.96,-8.32,-0.01,-7.86,0.46,-0.81,-0.90,-1.27,-9.14,-8.67,-8.32
51.47,-7.84,0.49,-7.85,0.49,-0.90,-1.03,-1.43,-8.74,-8.75,-8.34
51.99,-7.28,1.09,-7.54,0.82,-1.05,-1.15,-1.59,-8.33,-8.59,-8.37
52.51,-7.14,1.25,-7.13,1.26,-1.25,-1.27,-1.75,-8.38,-8.38,-8.39
53.03,-6.99,1.41,-6.83,1.58,-1.47,-1.39,-1.90,-8.47,-8.30,-8.41
53.56,-6.57,1.86,-6.60,1.83,-1.70,-1.51,-2.06,-8.27,-8.30,-8.44
54.10,-6.24,2.23,-6.39,2.07,-1.89,-1.63,-2.21,-8.12,-8.28,-8.47
54.64,-6.29,2.19,-6.20,2.29,-2.02,-1.75,-2.36,-8.31,-8.22,-8.49
55.18,-6.26,2.25,-6.11,2.40,-2.13,-1.87,-2.50,-8.39,-8.24,-8.52
55.74,-6.06,2.48,-6.31,2.22,-2.23,-1.98,-2.65,-8.29,-8.54,-8.54
56.29,-6.35,2.20,-6.56,1.99,-2.31,-2.10,-2.78,-8.66,-8.88,-8.55
56.86,-7.08,1.48,-6.61,1.96,-2.38,-2.21,-2.92,-9.46,-8.99,-8.56
57.42,-6.59,2.01,-6.44,2.14,-2.44,-2.33,-3.05,-9.03,-8.88,-8.60
58.00,-5.69,2.91,-6.00,2.59,-2.50,-2.44,-3.18,-8.18,-8.50,-8.60
58.58,-5.55,3.04,-5.60,3.00,-2.55,-2.56,-3.30,-8.11,-8.15,-8.60
59.16,-5.56,3.05,-5.60,3.01,-2.63,-2.67,-3.41,-8.19,-8.23,-8.61
59.76,-5.91,2.70,-5.87,2.75,-2.72,-2.78,-3.52,-8.63,-8.59,-8.62
60.35,-6.07,2.57,-6.01,2.63,-2.78,-2.89,-3.63,-8.85,-8.78,-8.65
60.96,-6.09,2.56,-5.93,2.73,-2.84,-3.00,-3.73,-8.94,-8.78,-8.66
61.57,-5.71,2.98,-5.85,2.83,-2.94,-3.11,-3.82,-8.65,-8.80,-8.69
62.18,-5.55,3.17,-5.82,2.90,-3.06,-3.22,-3.91,-8.60,-8.87,-8.72
62.80,-5.99,2.75,-5.66,3.08,-3.23,-3.33,-3.99,-9.22,-8.89,-8.75
63.43,-5.60,3.16,-5.48,3.28,-3.46,-3.43,-4.07,-9.06,-8.94,-8.77
64.07,-4.90,3.89,-5.17,3.61,-3.67,-3.54,-4.14,-8.56,-8.84,-8.79
64.71,-4.76,4.03,-4.58,4.22,-3.84,-3.65,-4.21,-8.60,-8.42,-8.80
65.35,-4.45,4.36,-4.40,4.41,-3.99,-3.75,-4.27,-8.44,-8.39,-8.82
66.01,-4.03,4.80,-4.62,4.21,-4.10,-3.85,-4.32,-8.12,-8.71,-8.83
66.67,-5.09,3.75,-4.62,4.22,-4.18,-3.96,-4.38,-9.27,-8.80,-8.84
67.33,-5.14,3.73,-4.78,4.08,-4.24,-4.06,-4.42,-9.38,-9.02,-8.87
68.01,-4.21,4.67,-4.95,3.93,-4.29,-4.16,-4.47,-8.49,-9.23,-8.88
68.69,-4.97,3.91,-4.58,4.31,-4.33,-4.26,-4.51,-9.30,-8.91,-8.89
69.37,-4.73,4.17,-4.44,4.46,-4.43,-4.36,-4.55,-9.16,-8.87,-8.90
70.07,-3.82,5.10,-4.45,4.46,-4.61,-4.46,-4.58,-8.42,-9.06,-8.92
70.77,-4.44,4.48,-4.11,4.82,-4.82,-4.55,-4.62,-9.27,-8.93,-8.93
71.48,-4.09,4.85,-3.90,5.04,-5.04,-4.65,-4.65,-9.13,-8.94,-8.94
72.19,-3.48,5.46,-3.76,5.19,-5.23,-4.75,-4.68,-8.71,-8.99,-8.95
72.91,-3.46,5.50,-3.42,5.55,-5.35,-4.84,-4.71,-8.81,-8.76,-8.97
73.64,-3.35,5.62,-3.24,5.73,-5.40,-4.94,-4.74,-8.76,-8.64,-8.98
74.38,-3.26,5.71,-3.42,5.56,-5.45,-5.03,-4.77,-8.72,-8.87,-8.98
75.12,-3.34,5.64,-3.50,5.47,-5.49,-5.12,-4.80,-8.83,-9.00,-8.98
75.87,-4.06,4.91,-3.54,5.43,-5.51,-5.21,-4.84,-9.57,-9.04,-8.97
76.63,-3.39,5.58,-3.79,5.18,-5.52,-5.30,-4.87,-8.91,-9.31,-8.98
77.40,-3.53,5.43,-3.68,5.29,-5.52,-5.39,-4.91,-9.05,-9.20,-8.97
78.17,-4.11,4.86,-3.39,5.57,-5.49,-5.48,-4.95,-9.60,-8.88,-8.97
78.95,-2.73,6.22,-3.28,5.66,-5.49,-5.57,-4.99,-8.22,-8.77,-8.95
79.74,-3.07,5.86,-3.13,5.81,-5.56,-5.66,-5.03,-8.64,-8.69,-8.94
80.54,-3.22,5.70,-3.15,5.78,-5.67,-5.75,-5.08,-8.89,-8.81,-8.93
81.35,-3.34,5.57,-3.26,5.66,-5.81,-5.83,-5.13,-9.15,-9.06,-8.92
82.16,-3.41,5.48,-3.22,5.69,-5.98,-5.92,-5.18,-9.39,-9.20,-8.90
82.98,-2.59,6.31,-3.11,5.78,-6.12,-6.00,-5.24,-8.70,-9.23,-8.90
83.81,-3.19,5.69,-2.75,6.13,-6.20,-6.09,-5.30,-9.39,-8.95,-8.89
84.65,-2.51,6.36,-2.30,6.57,-6.24,-6.17,-5.36,-8.75,-8.54,-8.88
85.50,-1.76,7.11,-2.24,6.62,-6.26,-6.25,-5.43,-8.01,-8.50,-8.87
86.35,-1.99,6.87,-2.22,6.64,-6.27,-6.33,-5.50,-8.26,-8.49,-8.86
87.22,-2.91,5.94,-2.33,6.51,-6.32,-6.41,-5.57,-9.23,-8.66,-8.85
88.09,-2.67,6.16,-2.68,6.16,-6.39,-6.49,-5.65,-9.07,-9.07,-8.84
88.97,-2.27,6.55,-2.93,5.90,-6.46,-6.57,-5.74,-8.73,-9.39,-8.83
89.86,-3.20,5.61,-2.74,6.07,-6.51,-6.65,-5.83,-9.71,-9.26,-8.82
90.76,-2.84,5.97,-2.34,6.47,-6.60,-6.72,-5.92,-9.44,-8.94,-8.81
91.66,-1.47,7.33,-1.90,6.90,-6.75,-6.80,-6.02,-8.22,-8.65,-8.81
92.58,-1.03,7.76,-1.47,7.32,-6.91,-6.88,-6.12,-7.95,-8.38,-8.80
93.51,-1.67,7.11,-1.39,7.39,-7.07,-6.95,-6.22,-8.74,-8.46,-8.79
94.44,-1.83,6.94,-1.55,7.23,-7.21,-7.03,-6.33,-9.04,-8.76,-8.78
95.39,-1.39,7.39,-1.51,7.27,-7.32,-7.10,-6.44,-8.71,-8.83,-8.78
96.34,-1.28,7.49,-1.43,7.34,-7.39,-7.17,-6.56,-8.67,-8.82,-8.78
97.30,-1.35,7.43,-1.49,7.28,-7.40,-7.24,-6.68,-8.75,-8.90,-8.78
98.28,-1.88,6.89,-1.55,7.23,-7.38,-7.31,-6.80,-9.26,-8.92,-8.78
99.26,-1.58,7.20,-1.57,7.21,-7.33,-7.39,-6.93,-8.91,-8.90,-8.79
100.25,-1.14,7.64,-1.37,7.41,-7.32,-7.46,-7.06,-8.46,-8.69,-8.79
101.25,-1.37,7.40,-1.13,7.65,-7.34,-7.52,-7.20,-8.72,-8.47,-8.78
102.27,-0.96,7.82,-1.23,7.55,-7.36,-7.59,-7.33,-8.32,-8.59,-8.78
103.29,-1.41,7.36,-1.52,7.25,-7.38,-7.66,-7.47,-8.80,-8.91,-8.78
104.32,-1.85,6.91,-1.60,7.17,-7.44,-7.73,-7.61,-9.29,-9.03,-8.77
105.37,-1.74,7.03,-1.47,7.30,-7.53,-7.79,-7.75,-9.27,-9.00,-8.78
106.42,-0.90,7.86,-1.12,7.65,-7.65,-7.86,-7.89,-8.55,-8.76,-8.77
107.48,-0.62,8.16,-0.98,7.80,-7.74,-7.92,-8.03,-8.36,-8.72,-8.78
108.56,-1.01,7.75,-0.97,7.80,-7.81,-7.99,-8.17,-8.82,-8.78,-8.77
109.64,-1.40,7.36,-0.83,7.94,-7.86,-8.05,-8.31,-9.26,-8.69,-8.77
110.74,-0.53,8.23,-0.55,8.21,-7.95,-8.12,-8.45,-8.48,-8.50,-8.77
111.85,0.19,8.95,-0.44,8.31,-8.02,-8.18,-8.58,-7.83,-8.46,-8.76
112.97,-0.57,8.17,-0.62,8.13,-8.05,-8.24,-8.72,-8.62,-8.67,-8.75
114.10,-1.44,7.29,-0.98,7.76,-8.07,-8.30,-8.84,-9.51,-9.05,-8.74
115.24,-1.23,7.51,-1.07,7.67,-8.13,-8.36,-8.96,-9.36,-9.20,-8.75
116.39,-0.48,8.25,-0.68,8.05,-8.24,-8.42,-9.08,-8.72,-8.92,-8.74
117.55,-0.06,8.66,-0.12,8.61,-8.36,-8.48,-9.18,-8.43,-8.48,-8.73
118.73,0.02,8.73,-0.13,8.59,-8.49,-8.54,-9.28,-8.48,-8.62,-8.72
119.92,0.01,8.71,-0.21,8.49,-8.60,-8.60,-9.38,-8.60,-8.82,-8.71
121.12,-0.77,7.90,0.08,8.76,-8.70,-8.66,-9.46,-9.47,-8.62,-8.68
122.33,0.55,9.22,0.40,9.06,-8.77,-8.71,-9.53,-8.22,-8.37,-8.67
123.55,1.23,9.87,0.44,9.08,-8.81,-8.77,-9.59,-7.58,-8.37,-8.65
124.79,0.06,8.69,0.21,8.84,-8.80,-8.83,-9.65,-8.74,-8.59,-8.63
126.03,-0.82,7.79,-0.50,8.11,-8.76,-8.88,-9.69,-9.59,-9.26,-8.62
127.29,-0.89,7.71,-0.78,7.83,-8.75,-8.94,-9.72,-9.65,-9.53,-8.61
128.57,-0.50,8.10,-0.40,8.19,-8.75,-8.99,-9.75,-9.24,-9.15,-8.60
129.85,0.43,9.00,0.20,8.77,-8.75,-9.04,-9.76,-8.33,-8.56,-8.58
131.15,0.59,9.15,0.56,9.12,-8.83,-9.10,-9.77,-8.24,-8.27,-8.57
132.46,0.65,9.20,0.37,8.93,-8.96,-9.15,-9.76,-8.31,-8.58,-8.56
133.79,0.16,8.71,0.28,8.83,-9.09,-9.20,-9.75,-8.94,-8.82,-8.56
135.12,-0.19,8.36,0.58,9.12,-9.22,-9.26,-9.73,-9.41,-8.64,-8.55
136.48,1.41,9.95,0.87,9.41,-9.33,-9.31,-9.71,-7.92,-8.46,-8.54
137.84,1.60,10.12,1.10,9.63,-9.42,-9.36,-9.68,-7.82,-8.31,-8.53
139.22,0.72,9.25,1.17,9.70,-9.50,-9.41,-9.65,-8.78,-8.33,-8.54
140.61,0.73,9.24,0.88,9.41,-9.56,-9.46,-9.61,-8.83,-8.68,-8.52
142.02,1.06,9.57,0.87,9.38,-9.60,-9.51,-9.57,-8.54,-8.73,-8.52
143.44,1.06,9.57,1.06,9.57,-9.56,-9.56,-9.53,-8.50,-8.50,-8.52
144.87,1.15,9.65,1.22,9.73,-9.47,-9.60,-9.49,-8.32,-8.25,-8.51
146.32,1.16,9.66,1.18,9.69,-9.41,-9.65,-9.45,-8.25,-8.23,-8.51
147.78,1.23,9.74,0.91,9.41,-9.40,-9.70,-9.41,-8.17,-8.50,-8.51
149.26,0.58,9.08,0.66,9.17,-9.45,-9.75,-9.37,-8.88,-8.80,-8.51
150.75,0.19,8.70,0.62,9.13,-9.53,-9.79,-9.33,-9.34,-8.91,-8.52
152.26,0.93,9.43,0.78,9.29,-9.57,-9.84,-9.30,-8.64,-8.79,-8.51
153.78,1.36,9.87,1.16,9.67,-9.58,-9.89,-9.27,-8.22,-8.42,-8.52
155.32,1.43,9.93,1.50,10.01,-9.60,-9.93,-9.24,-8.17,-8.10,-8.51
156.88,1.49,10.00,1.57,10.09,-9.67,-9.98,-9.22,-8.18,-8.10,-8.52
158.44,1.54,10.06,1.37,9.89,-9.78,-10.02,-9.20,-8.24,-8.41,-8.53
160.03,1.32,9.85,1.16,9.69,-9.90,-10.07,-9.19,-8.59,-8.75,-8.54
161.63,0.67,9.21,1.09,9.64,-10.01,-10.11,-9.18,-9.34,-8.92,-8.55
163.24,1.20,9.76,1.18,9.74,-10.07,-10.15,-9.18,-8.87,-8.89,-8.57
164.88,1.66,10.23,1.44,10.01,-10.06,-10.20,-9.18,-8.41,-8.63,-8.58
166.53,1.73,10.32,1.75,10.35,-10.04,-10.24,-9.19,-8.31,-8.28,-8.60
168.19,1.79,10.39,1.87,10.48,-10.08,-10.28,-9.20,-8.29,-8.21,-8.61
169.87,1.84,10.46,1.85,10.48,-10.18,-10.33,-9.23,-8.34,-8.33,-8.63
171.57,1.83,10.47,1.58,10.22,-10.30,-10.37,-9.25,-8.47,-8.72,-8.65
173.29,1.37,10.02,1.31,9.97,-10.38,-10.41,-9.29,-9.02,-9.07,-8.66
175.02,0.81,9.48,1.23,9.91,-10.41,-10.45,-9.33,-9.60,-9.17,-8.68
176.77,1.55,10.24,1.61,10.31,-10.41,-10.49,-9.38,-8.86,-8.79,-8.70
178.54,2.20,10.90,2.14,10.85,-10.46,-10.53,-9.43,-8.26,-8.32,-8.71
180.32,2.81,11.54,2.21,10.93,-10.55,-10.57,-9.49,-7.73,-8.34,-8.73
182.13,1.91,10.65,1.98,10.72,-10.63,-10.61,-9.56,-8.73,-8.66,-8.75
183.95,1.01,9.76,1.75,10.51,-10.69,-10.65,-9.63,-9.68,-8.93,-8.76
185.79,2.02,10.80,1.69,10.47,-10.69,-10.69,-9.71,-8.67,-9.00,-8.78
187.65,2.17,10.95,2.04,10.83,-10.69,-10.73,-9.80,-8.52,-8.64,-8.79
189.52,2.18,10.98,2.21,11.01,-10.72,-10.77,-9.89,-8.54,-8.50,-8.81
191.42,2.13,10.93,1.90,10.71,-10.80,-10.81,-9.99,-8.68,-8.91,-8.81
193.33,1.51,10.33,1.68,10.51,-10.94,-10.85,-10.10,-9.44,-9.26,-8.83
195.27,1.57,10.41,1.78,10.63,-11.07,-10.88,-10.21,-9.50,-9.29,-8.85
197.22,2.14,11.00,2.23,11.10,-11.15,-10.92,-10.33,-9.01,-8.91,-8.87
199.19,3.01,11.88,2.81,11.69,-11.18,-10.96,-10.45,-8.18,-8.37,-8.88
201.18,3.22,12.11,2.98,11.87,-11.21,-10.99,-10.58,-8.00,-8.23,-8.90
203.19,2.70,11.61,2.62,11.52,-11.27,-11.03,-10.72,-8.57,-8.65,-8.91
205.23,1.94,10.85,2.15,11.07,-11.35,-11.07,-10.86,-9.41,-9.20,-8.92
207.28,1.67,10.59,1.96,10.89,-11.39,-11.10,-11.00,-9.73,-9.43,-8.93
209.35,2.28,11.23,2.11,11.06,-11.38,-11.14,-11.14,-9.11,-9.28,-8.96
211.44,2.56,11.52,2.41,11.38,-11.35,-11.18,-11.29,-8.79,-8.94,-8.97
213.56,2.56,11.54,2.60,11.58,-11.34,-11.21,-11.44,-8.78,-8.74,-8.99
215.69,2.55,11.54,2.57,11.57,-11.40,-11.25,-11.59,-8.85,-8.82,-9.00
217.85,2.55,11.55,2.54,11.55,-11.51,-11.28,-11.74,-8.97,-8.97,-9.01
220.03,2.55,11.58,2.55,11.58,-11.62,-11.32,-11.89,-9.08,-9.07,-9.04
222.23,2.57,11.61,2.58,11.62,-11.70,-11.35,-12.04,-9.13,-9.12,-9.05
224.45,2.63,11.68,2.63,11.69,-11.75,-11.39,-12.19,-9.13,-9.12,-9.06
226.70,2.70,11.76,2.69,11.75,-11.78,-11.42,-12.33,-9.09,-9.09,-9.07
228.96,2.75,11.81,2.73,11.80,-11.80,-11.45,-12.47,-9.05,-9.06,-9.07
231.25,2.76,11.83,2.76,11.83,-11.79,-11.49,-12.59,-9.04,-9.03,-9.08
233.57,2.77,11.84,2.77,11.85,-11.76,-11.52,-12.71,-9.00,-8.99,-9.08
235.90,2.78,11.86,2.84,11.92,-11.72,-11.55,-12.82,-8.95,-8.88,-9.09
238.26,2.79,11.87,2.76,11.84,-11.68,-11.59,-12.92,-8.90,-8.92,-9.09
240.64,2.81,11.87,2.50,11.57,-11.65,-11.62,-13.01,-8.85,-9.16,-9.07
243.05,2.15,11.21,2.38,11.45,-11.66,-11.65,-13.09,-9.51,-9.28,-9.07
245.48,2.09,11.14,2.42,11.48,-11.72,-11.68,-13.15,-9.63,-9.29,-9.06
247.93,2.94,11.99,2.61,11.66,-11.82,-11.72,-13.19,-8.88,-9.21,-9.06
250.41,2.99,12.02,2.88,11.91,-11.97,-11.75,-13.22,-8.98,-9.09,-9.04
252.92,3.01,12.03,3.06,12.10,-12.13,-11.78,-13.24,-9.12,-9.06,-9.03
255.45,3.02,12.05,3.29,12.32,-12.28,-11.81,-13.24,-9.26,-8.99,-9.04
258.00,3.59,12.62,3.55,12.59,-12.38,-11.84,-13.23,-8.80,-8.83,-9.04
260.58,4.07,13.10,3.64,12.68,-12.39,-11.87,-13.20,-8.33,-8.75,-9.04
263.19,3.40,12.43,3.56,12.60,-12.34,-11.90,-13.16,-8.94,-8.77,-9.04
265.82,3.13,12.16,3.38,12.42,-12.23,-11.93,-13.11,-9.11,-8.85,-9.04
268.48,3.13,12.17,3.04,12.08,-12.13,-11.96,-13.05,-9.01,-9.10,-9.05
271.16,3.13,12.18,2.71,11.76,-12.05,-11.99,-12.98,-8.92,-9.34,-9.06
273.87,2.20,11.25,2.51,11.57,-11.97,-12.02,-12.91,-9.78,-9.47,-9.06
276.61,2.14,11.20,2.50,11.56,-11.91,-12.05,-12.82,-9.77,-9.41,-9.07
279.38,3.00,12.07,2.70,11.77,-11.89,-12.08,-12.74,-8.89,-9.19,-9.08
282.17,3.23,12.29,3.10,12.17,-11.94,-12.11,-12.64,-8.71,-8.84,-9.07
284.99,3.23,12.29,3.30,12.36,-12.07,-12.14,-12.55,-8.84,-8.77,-9.07
287.84,3.24,12.29,3.26,12.32,-12.26,-12.16,-12.45,-9.02,-9.00,-9.06
290.72,3.25,12.31,3.19,12.25,-12.46,-12.19,-12.36,-9.21,-9.27,-9.07
293.63,3.26,12.32,3.25,12.31,-12.61,-12.22,-12.26,-9.35,-9.36,-9.07
296.57,3.28,12.33,3.53,12.58,-12.69,-12.25,-12.17,-9.41,-9.16,-9.06
299.53,3.90,12.94,3.87,12.92,-12.72,-12.27,-12.08,-8.83,-8.86,-9.05
302.53,4.33,13.37,4.03,13.08,-12.75,-12.30,-11.99,-8.43,-8.72,-9.05
305.55,4.02,13.06,3.98,13.02,-12.77,-12.33,-11.91,-8.75,-8.79,-9.05
308.61,3.49,12.52,3.70,12.74,-12.75,-12.35,-11.83,-9.27,-9.06,-9.04
311.69,3.43,12.46,3.44,12.48,-12.68,-12.38,-11.76,-9.25,-9.24,-9.04
314.81,3.43,12.46,3.38,12.41,-12.56,-12.40,-11.69,-9.13,-9.18,-9.04
317.96,3.43,12.46,3.45,12.49,-12.42,-12.43,-11.63,-8.99,-8.96,-9.04
321.14,3.43,12.46,3.45,12.49,-12.30,-12.45,-11.57,-8.87,-8.85,-9.04
324.35,3.43,12.46,3.23,12.27,-12.26,-12.47,-11.52,-8.84,-9.03,-9.04
327.59,3.07,12.09,3.03,12.06,-12.32,-12.50,-11.48,-9.25,-9.29,-9.03
330.87,2.63,11.65,2.98,12.01,-12.45,-12.52,-11.45,-9.82,-9.46,-9.03
334.18,3.16,12.19,3.00,12.03,-12.59,-12.54,-11.42,-9.43,-9.58,-9.04
337.52,3.51,12.53,3.34,12.37,-12.70,-12.56,-11.40,-9.19,-9.35,-9.03
340.90,3.52,12.53,3.91,12.92,-12.78,-12.58,-11.39,-9.26,-8.87,-9.02
344.30,4.36,13.36,4.18,13.19,-12.86,-12.60,-11.38,-8.50,-8.68,-9.01
347.75,4.61,13.61,4.23,13.23,-12.92,-12.62,-11.39,-8.32,-8.69,-9.01
351.23,3.88,12.88,4.10,13.10,-12.94,-12.64,-11.40,-9.06,-8.84,-9.01
354.74,3.63,12.61,3.77,12.76,-12.90,-12.65,-11.42,-9.28,-9.13,-8.99
358.28,3.63,12.61,3.57,12.55,-12.83,-12.67,-11.45,-9.20,-9.25,-8.99
361.87,3.64,12.61,3.61,12.58,-12.72,-12.69,-11.48,-9.09,-9.11,-8.98
365.49,3.64,12.60,3.64,12.60,-12.61,-12.70,-11.53,-8.97,-8.97,-8.97
369.14,3.65,12.60,3.65,12.60,-12.53,-12.71,-11.58,-8.88,-8.88,-8.96
372.83,3.66,12.60,3.66,12.61,-12.52,-12.72,-11.64,-8.86,-8.86,-8.95
376.56,3.67,12.62,3.67,12.61,-12.59,-12.73,-11.71,-8.93,-8.93,-8.96
380.33,3.68,12.62,3.64,12.59,-12.72,-12.74,-11.78,-9.04,-9.07,-8.95
384.13,3.68,12.62,3.64,12.58,-12.84,-12.75,-11.86,-9.16,-9.20,-8.95
387.97,3.69,12.62,3.81,12.75,-12.94,-12.75,-11.95,-9.26,-9.13,-8.94
391.85,4.00,12.93,4.15,13.09,-13.02,-12.75,-12.05,-9.03,-8.88,-8.94
395.77,4.59,13.53,4.38,13.32,-13.05,-12.75,-12.16,-8.47,-8.67,-8.95
399.73,4.62,13.57,4.40,13.35,-13.02,-12.75,-12.27,-8.41,-8.62,-8.96
403.72,4.03,12.97,4.20,13.15,-12.93,-12.74,-12.39,-8.91,-8.74,-8.95
