frequency,raw,error,smoothed,error_smoothed,equalization,parametric_eq,fixed_band_eq,equalized_raw,equalized_smoothed,target
20.00,6.73,1.81,6.73,1.80,-1.81,-1.69,-0.39,4.92,4.92,4.93
20.20,6.73,1.81,6.73,1.81,-1.81,-1.67,-0.40,4.92,4.93,4.93
20.40,6.73,1.80,6.74,1.80,-1.80,-1.64,-0.41,4.93,4.93,4.94
20.61,6.73,1.80,6.73,1.80,-1.79,-1.62,-0.42,4.94,4.94,4.94
20.81,6.73,1.80,6.73,1.79,-1.78,-1.59,-0.43,4.95,4.94,4.93
21.02,6.72,1.79,6.72,1.78,-1.77,-1.57,-0.44,4.95,4.95,4.93
21.23,6.70,1.76,6.71,1.76,-1.76,-1.54,-0.46,4.94,4.94,4.94
21.44,6.69,1.74,6.69,1.74,-1.75,-1.51,-0.47,4.94,4.95,4.95
21.66,6.68,1.73,6.68,1.73,-1.73,-1.49,-0.48,4.95,4.95,4.95
21.87,6.67,1.71,6.67,1.71,-1.71,-1.46,-0.49,4.96,4.96,4.96
22.09,6.65,1.70,6.65,1.70,-1.69,-1.44,-0.50,4.96,4.96,4.95
22.31,6.63,1.67,6.63,1.68,-1.67,-1.41,-0.52,4.96,4.96,4.96
22.54,6.61,1.66,6.61,1.65,-1.66,-1.39,-0.53,4.96,4.96,4.95
22.76,6.59,1.63,6.59,1.63,-1.64,-1.36,-0.54,4.95,4.95,4.96
22.99,6.57,1.61,6.57,1.62,-1.62,-1.34,-0.56,4.95,4.95,4.96
23.22,6.55,1.60,6.55,1.60,-1.60,-1.32,-0.57,4.95,4.95,4.95
23.45,6.53,1.58,6.53,1.58,-1.58,-1.30,-0.58,4.95,4.95,4.95
23.69,6.51,1.56,6.51,1.57,-1.56,-1.28,-0.60,4.96,4.96,4.95
23.92,6.49,1.54,6.49,1.54,-1.54,-1.26,-0.62,4.96,4.96,4.95
24.16,6.47,1.52,6.47,1.51,-1.51,-1.25,-0.63,4.96,4.95,4.95
24.40,6.43,1.48,6.44,1.48,-1.49,-1.23,-0.65,4.94,4.95,4.96
24.65,6.41,1.46,6.41,1.46,-1.47,-1.21,-0.66,4.94,4.95,4.96
24.89,6.39,1.44,6.39,1.44,-1.44,-1.20,-0.68,4.95,4.95,4.95
25.14,6.37,1.43,6.37,1.42,-1.42,-1.19,-0.70,4.95,4.95,4.94
25.39,6.34,1.40,6.35,1.40,-1.40,-1.18,-0.71,4.95,4.95,4.94
25.65,6.32,1.38,6.32,1.38,-1.37,-1.16,-0.73,4.95,4.95,4.94
25.91,6.30,1.36,6.30,1.35,-1.35,-1.15,-0.75,4.95,4.94,4.94
26.16,6.27,1.32,6.28,1.33,-1.33,-1.14,-0.77,4.94,4.94,4.95
26.43,6.25,1.30,6.25,1.31,-1.31,-1.14,-0.79,4.94,4.94,4.95
26.69,6.23,1.29,6.23,1.29,-1.29,-1.13,-0.81,4.94,4.94,4.94
26.96,6.21,1.27,6.21,1.27,-1.27,-1.12,-0.83,4.94,4.94,4.94
27.23,6.19,1.26,6.19,1.25,-1.25,-1.12,-0.85,4.95,4.94,4.94
27.50,6.16,1.23,6.17,1.23,-1.23,-1.11,-0.87,4.94,4.94,4.94
27.77,6.14,1.20,6.14,1.20,-1.20,-1.10,-0.89,4.94,4.94,4.94
28.05,6.12,1.18,6.12,1.18,-1.18,-1.10,-0.91,4.94,4.94,4.94
28.33,6.09,1.16,6.10,1.16,-1.16,-1.10,-0.93,4.93,4.94,4.93
28.62,6.07,1.14,6.07,1.13,-1.13,-1.09,-0.96,4.94,4.93,4.93
28.90,6.04,1.10,6.04,1.11,-1.11,-1.09,-0.98,4.93,4.93,4.94
29.19,6.02,1.08,6.02,1.09,-1.09,-1.09,-1.00,4.93,4.93,4.94
29.48,6.00,1.08,6.00,1.07,-1.07,-1.08,-1.03,4.93,4.93,4.93
29.78,5.98,1.06,5.98,1.05,-1.05,-1.08,-1.05,4.93,4.93,4.93
30.08,5.96,1.03,5.96,1.04,-1.03,-1.08,-1.07,4.93,4.93,4.93
30.38,5.94,1.02,5.94,1.01,-1.01,-1.08,-1.10,4.93,4.93,4.92
30.68,5.92,0.99,5.92,0.99,-0.99,-1.08,-1.12,4.93,4.93,4.93
30.99,5.90,0.97,5.90,0.97,-0.98,-1.08,-1.15,4.93,4.93,4.93
31.30,5.88,0.96,5.89,0.96,-0.96,-1.07,-1.18,4.92,4.93,4.93
31.61,5.87,0.94,5.87,0.94,-0.94,-1.07,-1.20,4.93,4.93,4.93
31.93,5.85,0.93,5.85,0.92,-0.92,-1.07,-1.23,4.93,4.93,4.92
32.24,5.83,0.90,5.84,0.91,-0.90,-1.07,-1.26,4.93,4.93,4.93
32.57,5.82,0.89,5.82,0.89,-0.89,-1.07,-1.28,4.93,4.93,4.93
32.89,5.80,0.88,5.80,0.88,-0.88,-1.07,-1.31,4.92,4.93,4.93
33.22,5.79,0.87,5.79,0.87,-0.87,-1.07,-1.34,4.92,4.92,4.92
33.55,5.77,0.85,5.78,0.86,-0.86,-1.07,-1.37,4.91,4.92,4.92
33.89,5.77,0.85,5.77,0.85,-0.86,-1.07,-1.40,4.92,4.91,4.92
34.23,5.76,0.86,5.76,0.86,-0.86,-1.07,-1.43,4.91,4.91,4.91
34.57,5.75,0.86,5.76,0.86,-0.86,-1.08,-1.46,4.89,4.90,4.89
34.92,5.75,0.87,5.75,0.87,-0.87,-1.08,-1.50,4.89,4.88,4.88
35.27,5.74,0.87,5.74,0.88,-0.88,-1.09,-1.53,4.86,4.87,4.88
35.62,5.74,0.90,5.74,0.89,-0.89,-1.09,-1.56,4.85,4.85,4.84
35.97,5.74,0.91,5.74,0.91,-0.91,-1.10,-1.60,4.83,4.83,4.83
36.33,5.74,0.94,5.74,0.94,-0.94,-1.12,-1.64,4.81,4.81,4.81
36.70,5.74,0.96,5.74,0.96,-0.96,-1.13,-1.67,4.78,4.78,4.78
37.06,5.75,0.99,5.75,0.99,-0.99,-1.15,-1.71,4.76,4.76,4.76
37.43,5.75,1.02,5.76,1.02,-1.02,-1.17,-1.75,4.74,4.74,4.74
37.81,5.77,1.06,5.77,1.05,-1.05,-1.19,-1.79,4.72,4.72,4.71
38.19,5.77,1.07,5.77,1.08,-1.08,-1.22,-1.83,4.69,4.69,4.70
38.57,5.78,1.11,5.79,1.11,-1.12,-1.25,-1.88,4.67,4.67,4.67
38.95,5.80,1.15,5.80,1.15,-1.15,-1.29,-1.92,4.65,4.65,4.65
39.34,5.81,1.19,5.82,1.19,-1.19,-1.33,-1.97,4.63,4.63,4.62
39.74,5.83,1.23,5.83,1.23,-1.22,-1.37,-2.02,4.61,4.61,4.60
40.14,5.85,1.27,5.85,1.26,-1.26,-1.41,-2.07,4.59,4.58,4.58
40.54,5.86,1.29,5.87,1.30,-1.30,-1.46,-2.12,4.56,4.56,4.57
40.94,5.89,1.35,5.89,1.34,-1.35,-1.51,-2.17,4.54,4.54,4.54
41.35,5.92,1.39,5.92,1.39,-1.39,-1.56,-2.22,4.53,4.52,4.53
41.76,5.94,1.44,5.94,1.44,-1.44,-1.61,-2.28,4.50,4.50,4.50
42.18,5.97,1.49,5.97,1.49,-1.49,-1.67,-2.34,4.48,4.48,4.49
42.60,6.00,1.54,6.00,1.54,-1.54,-1.73,-2.40,4.46,4.46,4.46
43.03,6.04,1.60,6.04,1.60,-1.60,-1.79,-2.46,4.45,4.44,4.44
43.46,6.07,1.66,6.07,1.66,-1.65,-1.85,-2.52,4.42,4.42,4.42
43.90,6.11,1.71,6.11,1.71,-1.71,-1.91,-2.58,4.40,4.40,4.40
44.33,6.14,1.77,6.14,1.77,-1.77,-1.97,-2.65,4.38,4.38,4.37
44.78,6.18,1.83,6.18,1.82,-1.83,-2.04,-2.72,4.35,4.35,4.35
45.23,6.22,1.87,6.23,1.89,-1.89,-2.10,-2.79,4.33,4.33,4.35
45.68,6.27,1.96,6.27,1.96,-1.96,-2.17,-2.86,4.31,4.31,4.31
46.13,6.32,2.04,6.32,2.03,-2.03,-2.23,-2.93,4.29,4.29,4.28
46.60,6.36,2.11,6.37,2.11,-2.11,-2.30,-3.01,4.26,4.26,4.25
47.06,6.41,2.18,6.41,2.19,-2.19,-2.37,-3.09,4.23,4.23,4.23
47.53,6.46,2.26,6.46,2.26,-2.27,-2.44,-3.17,4.19,4.19,4.20
48.01,6.51,2.36,6.51,2.35,-2.35,-2.52,-3.25,4.16,4.16,4.15
48.49,6.56,2.44,6.56,2.44,-2.44,-2.59,-3.33,4.12,4.12,4.12
48.97,6.61,2.53,6.62,2.53,-2.53,-2.67,-3.41,4.08,4.08,4.08
49.46,6.67,2.62,6.67,2.63,-2.62,-2.74,-3.50,4.05,4.04,4.05
49.96,6.72,2.73,6.72,2.72,-2.72,-2.82,-3.59,4.00,4.00,3.99
50.46,6.77,2.81,6.78,2.81,-2.81,-2.90,-3.67,3.96,3.96,3.96
50.96,6.83,2.91,6.83,2.91,-2.91,-2.99,-3.76,3.92,3.92,3.93
51.47,6.89,3.00,6.89,3.00,-3.01,-3.07,-3.85,3.88,3.89,3.89
51.99,6.96,3.11,6.96,3.10,-3.11,-3.16,-3.94,3.85,3.85,3.85
52.51,7.02,3.21,7.02,3.20,-3.21,-3.25,-4.03,3.81,3.81,3.82
53.03,7.08,3.30,7.08,3.31,-3.31,-3.35,-4.12,3.77,3.78,3.78
53.56,7.14,3.40,7.14,3.41,-3.41,-3.44,-4.21,3.73,3.74,3.74
54.10,7.21,3.52,7.21,3.51,-3.51,-3.54,-4.30,3.70,3.70,3.69
54.64,7.26,3.60,7.27,3.61,-3.61,-3.64,-4.39,3.66,3.66,3.66
55.18,7.33,3.71,7.33,3.71,-3.70,-3.75,-4.48,3.63,3.63,3.62
55.74,7.39,3.81,7.39,3.80,-3.80,-3.85,-4.56,3.59,3.59,3.58
56.29,7.45,3.90,7.45,3.89,-3.89,-3.96,-4.65,3.56,3.56,3.56
56.86,7.50,3.96,7.51,3.98,-3.98,-4.06,-4.73,3.52,3.53,3.54
57.42,7.57,4.08,7.57,4.07,-4.07,-4.17,-4.81,3.50,3.50,3.49
58.00,7.63,4.17,7.63,4.16,-4.16,-4.27,-4.88,3.47,3.47,3.46
58.58,7.69,4.25,7.69,4.25,-4.25,-4.38,-4.96,3.44,3.44,3.44
59.16,7.74,4.33,7.75,4.34,-4.35,-4.47,-5.02,3.40,3.40,3.41
59.76,7.81,4.43,7.81,4.43,-4.45,-4.57,-5.09,3.36,3.36,3.38
60.35,7.87,4.54,7.87,4.54,-4.55,-4.66,-5.15,3.32,3.32,3.33
60.96,7.94,4.65,7.94,4.66,-4.66,-4.75,-5.21,3.28,3.28,3.29
61.57,8.00,4.78,8.00,4.77,-4.77,-4.83,-5.26,3.23,3.23,3.22
62.18,8.06,4.89,8.07,4.89,-4.88,-4.91,-5.31,3.18,3.18,3.17
62.80,8.13,5.01,8.13,5.01,-5.00,-4.99,-5.35,3.14,3.13,3.13
63.43,8.20,5.12,8.20,5.12,-5.11,-5.07,-5.39,3.09,3.09,3.08
64.07,8.26,5.22,8.26,5.22,-5.22,-5.15,-5.43,3.04,3.05,3.05
64.71,8.33,5.32,8.33,5.32,-5.32,-5.23,-5.46,3.01,3.00,3.01
65.35,8.38,5.42,8.39,5.42,-5.42,-5.31,-5.49,2.96,2.96,2.96
66.01,8.45,5.53,8.45,5.52,-5.52,-5.39,-5.51,2.93,2.93,2.92
66.67,8.51,5.62,8.51,5.62,-5.62,-5.48,-5.53,2.89,2.88,2.89
67.33,8.56,5.72,8.57,5.72,-5.72,-5.57,-5.55,2.84,2.85,2.85
68.01,8.62,5.82,8.62,5.82,-5.82,-5.66,-5.56,2.81,2.81,2.80
68.69,8.68,5.92,8.68,5.91,-5.91,-5.75,-5.58,2.77,2.77,2.76
69.37,8.74,6.01,8.74,6.01,-6.01,-5.84,-5.59,2.73,2.73,2.73
70.07,8.79,6.09,8.80,6.10,-6.10,-5.94,-5.60,2.69,2.69,2.70
70.77,8.85,6.20,8.85,6.20,-6.20,-6.04,-5.60,2.65,2.65,2.65
71.48,8.90,6.29,8.90,6.29,-6.30,-6.14,-5.61,2.61,2.61,2.61
72.19,8.95,6.39,8.95,6.39,-6.39,-6.25,-5.62,2.56,2.56,2.56
72.91,9.00,6.48,9.00,6.48,-6.48,-6.35,-5.63,2.52,2.52,2.52
73.64,9.05,6.58,9.05,6.58,-6.57,-6.46,-5.64,2.48,2.48,2.47
74.38,9.09,6.66,9.10,6.66,-6.66,-6.56,-5.65,2.43,2.44,2.43
75.12,9.14,6.75,9.14,6.75,-6.75,-6.67,-5.66,2.40,2.40,2.39
75.87,9.19,6.83,9.19,6.83,-6.83,-6.77,-5.67,2.37,2.36,2.36
76.63,9.23,6.91,9.23,6.91,-6.90,-6.88,-5.69,2.33,2.33,2.32
77.40,9.27,6.97,9.27,6.98,-6.98,-6.99,-5.70,2.30,2.29,2.30
78.17,9.31,7.05,9.31,7.05,-7.05,-7.09,-5.72,2.26,2.26,2.26
78.95,9.34,7.11,9.35,7.11,-7.12,-7.19,-5.75,2.23,2.23,2.24
79.74,9.39,7.18,9.39,7.18,-7.18,-7.29,-5.77,2.21,2.20,2.21
80.54,9.42,7.25,9.43,7.25,-7.25,-7.39,-5.80,2.18,2.18,2.18
81.35,9.46,7.32,9.46,7.31,-7.31,-7.49,-5.84,2.15,2.15,2.14
82.16,9.49,7.37,9.49,7.37,-7.37,-7.58,-5.88,2.12,2.12,2.12
82.98,9.51,7.43,9.52,7.43,-7.43,-7.67,-5.92,2.08,2.09,2.09
83.81,9.55,7.49,9.55,7.49,-7.49,-7.75,-5.96,2.06,2.06,2.06
84.65,9.58,7.56,9.58,7.55,-7.55,-7.84,-6.01,2.03,2.03,2.02
85.50,9.59,7.60,9.60,7.61,-7.60,-7.91,-6.07,1.99,2.00,1.99
86.35,9.62,7.66,9.62,7.66,-7.66,-7.99,-6.13,1.96,1.96,1.96
87.22,9.64,7.70,9.64,7.71,-7.71,-8.06,-6.19,1.93,1.93,1.94
88.09,9.66,7.76,9.66,7.76,-7.76,-8.12,-6.26,1.90,1.90,1.90
88.97,9.67,7.80,9.68,7.80,-7.81,-8.18,-6.33,1.87,1.87,1.88
89.86,9.69,7.86,9.69,7.85,-7.85,-8.24,-6.41,1.84,1.84,1.83
90.76,9.70,7.89,9.70,7.90,-7.90,-8.29,-6.49,1.81,1.81,1.81
91.66,9.71,7.95,9.71,7.94,-7.94,-8.33,-6.58,1.77,1.78,1.77
92.58,9.72,7.98,9.72,7.98,-7.98,-8.37,-6.67,1.74,1.74,1.74
93.51,9.73,8.03,9.73,8.02,-8.02,-8.41,-6.77,1.71,1.71,1.71
94.44,9.73,8.05,9.74,8.06,-8.07,-8.44,-6.87,1.67,1.67,1.68
95.39,9.74,8.11,9.74,8.10,-8.11,-8.46,-6.97,1.64,1.63,1.64
96.34,9.73,8.14,9.74,8.14,-8.15,-8.49,-7.08,1.59,1.59,1.59
97.30,9.73,8.18,9.73,8.19,-8.18,-8.50,-7.20,1.55,1.55,1.55
98.28,9.73,8.23,9.73,8.22,-8.22,-8.52,-7.31,1.51,1.51,1.51
99.26,9.72,8.26,9.72,8.26,-8.25,-8.53,-7.44,1.47,1.47,1.46
100.25,9.71,8.29,9.71,8.29,-8.28,-8.54,-7.56,1.43,1.43,1.42
101.25,9.70,8.31,9.70,8.31,-8.31,-8.54,-7.69,1.39,1.39,1.39
102.27,9.68,8.33,9.69,8.33,-8.33,-8.54,-7.82,1.35,1.35,1.36
103.29,9.67,8.35,9.67,8.35,-8.35,-8.54,-7.95,1.32,1.32,1.32
104.32,9.65,8.37,9.65,8.37,-8.37,-8.54,-8.09,1.28,1.28,1.28
105.37,9.63,8.39,9.63,8.39,-8.38,-8.53,-8.22,1.25,1.25,1.24
106.42,9.61,8.40,9.61,8.40,-8.40,-8.53,-8.36,1.22,1.21,1.21
107.48,9.58,8.42,9.58,8.41,-8.41,-8.52,-8.49,1.17,1.17,1.17
108.56,9.55,8.41,9.55,8.41,-8.42,-8.51,-8.63,1.13,1.13,1.14
109.64,9.52,8.42,9.52,8.42,-8.43,-8.50,-8.76,1.10,1.10,1.10
110.74,9.49,8.43,9.50,8.43,-8.43,-8.49,-8.89,1.06,1.06,1.06
111.85,9.47,8.45,9.47,8.44,-8.44,-8.48,-9.02,1.03,1.03,1.03
112.97,9.43,8.45,9.43,8.45,-8.45,-8.47,-9.14,0.98,0.98,0.98
114.10,9.39,8.45,9.39,8.45,-8.46,-8.45,-9.25,0.94,0.94,0.94
115.24,9.34,8.46,9.35,8.46,-8.46,-8.44,-9.36,0.88,0.88,0.89
116.39,9.30,8.47,9.30,8.47,-8.47,-8.43,-9.46,0.83,0.83,0.83
117.55,9.26,8.49,9.26,8.48,-8.48,-8.41,-9.54,0.78,0.78,0.78
118.73,9.21,8.49,9.21,8.49,-8.49,-8.40,-9.62,0.73,0.73,0.72
119.92,9.16,8.50,9.16,8.49,-8.49,-8.39,-9.69,0.67,0.67,0.67
121.12,9.11,8.49,9.11,8.50,-8.50,-8.37,-9.74,0.61,0.61,0.62
122.33,9.06,8.50,9.06,8.50,-8.51,-8.36,-9.78,0.56,0.56,0.56
123.55,9.01,8.51,9.01,8.51,-8.51,-8.35,-9.81,0.50,0.50,0.51
124.79,8.96,8.52,8.96,8.52,-8.52,-8.33,-9.82,0.44,0.44,0.44
126.03,8.90,8.52,8.90,8.52,-8.52,-8.32,-9.82,0.38,0.38,0.38
127.29,8.84,8.52,8.84,8.52,-8.52,-8.31,-9.80,0.32,0.32,0.32
128.57,8.78,8.52,8.78,8.52,-8.52,-8.30,-9.77,0.26,0.26,0.26
129.85,8.72,8.52,8.72,8.52,-8.52,-8.28,-9.72,0.20,0.20,0.20
131.15,8.66,8.52,8.66,8.52,-8.51,-8.27,-9.67,0.15,0.15,0.14
132.46,8.59,8.50,8.59,8.50,-8.49,-8.26,-9.60,0.10,0.10,0.09
133.79,8.52,8.48,8.52,8.48,-8.48,-8.24,-9.51,0.05,0.05,0.05
135.12,8.45,8.45,8.45,8.45,-8.45,-8.23,-9.42,0.00,0.00,-0.00
136.48,8.38,8.41,8.38,8.42,-8.42,-8.21,-9.32,-0.04,-0.04,-0.03
137.84,8.31,8.38,8.31,8.39,-8.39,-8.20,-9.21,-0.07,-0.07,-0.07
139.22,8.24,8.36,8.24,8.35,-8.35,-8.18,-9.10,-0.11,-0.11,-0.12
140.61,8.16,8.30,8.17,8.31,-8.31,-8.17,-8.98,-0.15,-0.14,-0.14
142.02,8.09,8.27,8.09,8.27,-8.27,-8.15,-8.85,-0.17,-0.17,-0.17
143.44,8.02,8.23,8.02,8.22,-8.22,-8.13,-8.73,-0.20,-0.20,-0.20
144.87,7.94,8.17,7.95,8.17,-8.18,-8.11,-8.60,-0.23,-0.23,-0.23
146.32,7.87,8.13,7.87,8.13,-8.13,-8.10,-8.47,-0.26,-0.26,-0.26
147.78,7.79,8.08,7.79,8.08,-8.08,-8.08,-8.33,-0.29,-0.29,-0.29
149.26,7.72,8.04,7.72,8.04,-8.03,-8.05,-8.20,-0.31,-0.31,-0.31
150.75,7.64,7.99,7.64,7.99,-7.98,-8.03,-8.07,-0.34,-0.34,-0.35
152.26,7.56,7.93,7.56,7.94,-7.94,-8.01,-7.94,-0.37,-0.37,-0.37
153.78,7.48,7.89,7.48,7.88,-7.89,-7.98,-7.81,-0.41,-0.40,-0.40
155.32,7.41,7.84,7.41,7.84,-7.84,-7.96,-7.69,-0.43,-0.44,-0.43
156.88,7.32,7.79,7.33,7.79,-7.80,-7.93,-7.57,-0.47,-0.47,-0.46
158.44,7.25,7.76,7.25,7.75,-7.75,-7.90,-7.45,-0.50,-0.50,-0.51
160.03,7.17,7.71,7.17,7.71,-7.71,-7.87,-7.33,-0.54,-0.54,-0.54
161.63,7.09,7.66,7.09,7.67,-7.67,-7.84,-7.22,-0.57,-0.57,-0.57
163.24,7.01,7.62,7.01,7.62,-7.62,-7.81,-7.12,-0.61,-0.61,-0.61
164.88,6.93,7.58,6.93,7.58,-7.58,-7.77,-7.01,-0.65,-0.65,-0.65
166.53,6.86,7.55,6.86,7.54,-7.54,-7.74,-6.92,-0.68,-0.68,-0.69
168.19,6.77,7.49,6.78,7.50,-7.50,-7.70,-6.82,-0.72,-0.72,-0.72
169.87,6.70,7.46,6.70,7.45,-7.45,-7.66,-6.73,-0.75,-0.75,-0.76
171.57,6.62,7.40,6.62,7.41,-7.41,-7.62,-6.65,-0.79,-0.79,-0.78
173.29,6.55,7.37,6.55,7.37,-7.37,-7.58,-6.57,-0.81,-0.82,-0.82
175.02,6.46,7.32,6.47,7.32,-7.32,-7.54,-6.50,-0.86,-0.85,-0.85
176.77,6.39,7.28,6.39,7.28,-7.28,-7.49,-6.43,-0.88,-0.88,-0.89
178.54,6.31,7.22,6.31,7.23,-7.23,-7.44,-6.36,-0.92,-0.92,-0.91
180.32,6.24,7.20,6.24,7.19,-7.19,-7.40,-6.30,-0.94,-0.95,-0.96
182.13,6.15,7.14,6.16,7.14,-7.14,-7.35,-6.25,-0.99,-0.98,-0.99
183.95,6.07,7.09,6.08,7.10,-7.09,-7.30,-6.20,-1.02,-1.02,-1.02
185.79,6.00,7.05,6.00,7.05,-7.05,-7.25,-6.15,-1.05,-1.05,-1.05
187.65,5.92,7.00,5.92,7.00,-7.01,-7.19,-6.11,-1.08,-1.09,-1.08
189.52,5.84,6.96,5.85,6.96,-6.96,-7.14,-6.07,-1.12,-1.12,-1.12
191.42,5.77,6.91,5.77,6.92,-6.92,-7.08,-6.04,-1.15,-1.15,-1.14
193.33,5.70,6.88,5.70,6.88,-6.88,-7.02,-6.01,-1.18,-1.18,-1.18
195.27,5.62,6.84,5.63,6.84,-6.84,-6.97,-5.99,-1.22,-1.21,-1.22
197.22,5.56,6.82,5.56,6.81,-6.80,-6.91,-5.96,-1.24,-1.25,-1.25
199.19,5.48,6.76,5.49,6.77,-6.76,-6.85,-5.95,-1.28,-1.28,-1.28
201.18,5.41,6.72,5.41,6.72,-6.72,-6.79,-5.93,-1.30,-1.30,-1.31
203.19,5.34,6.67,5.34,6.67,-6.67,-6.72,-5.92,-1.33,-1.33,-1.33
205.23,5.26,6.62,5.26,6.62,-6.62,-6.66,-5.91,-1.36,-1.36,-1.36
207.28,5.19,6.57,5.19,6.57,-6.57,-6.60,-5.90,-1.38,-1.39,-1.38
209.35,5.10,6.52,5.11,6.52,-6.52,-6.53,-5.90,-1.42,-1.41,-1.42
211.44,5.03,6.47,5.03,6.47,-6.47,-6.47,-5.89,-1.44,-1.44,-1.44
213.56,4.95,6.42,4.95,6.42,-6.42,-6.40,-5.89,-1.46,-1.46,-1.46
215.69,4.87,6.36,4.87,6.36,-6.36,-6.33,-5.89,-1.49,-1.49,-1.49
217.85,4.79,6.30,4.79,6.30,-6.30,-6.27,-5.88,-1.51,-1.51,-1.51
220.03,4.70,6.24,4.71,6.24,-6.24,-6.20,-5.88,-1.54,-1.53,-1.54
222.23,4.62,6.18,4.62,6.18,-6.18,-6.13,-5.88,-1.56,-1.56,-1.56
224.45,4.53,6.12,4.53,6.11,-6.11,-6.06,-5.88,-1.58,-1.58,-1.58
226.70,4.44,6.05,4.44,6.05,-6.05,-5.99,-5.87,-1.60,-1.60,-1.60
228.96,4.35,5.97,4.36,5.97,-5.98,-5.92,-5.86,-1.62,-1.62,-1.61
231.25,4.27,5.91,4.27,5.90,-5.91,-5.86,-5.86,-1.63,-1.64,-1.63
233.57,4.17,5.83,4.18,5.83,-5.83,-5.79,-5.84,-1.66,-1.66,-1.65
235.90,4.08,5.77,4.08,5.76,-5.76,-5.72,-5.83,-1.68,-1.68,-1.68
238.26,3.99,5.69,3.99,5.69,-5.69,-5.64,-5.81,-1.69,-1.69,-1.70
240.64,3.90,5.60,3.90,5.61,-5.61,-5.57,-5.78,-1.71,-1.71,-1.70
243.05,3.81,5.53,3.81,5.53,-5.53,-5.50,-5.76,-1.72,-1.72,-1.72
245.48,3.72,5.46,3.72,5.46,-5.46,-5.43,-5.73,-1.73,-1.73,-1.74
247.93,3.62,5.38,3.63,5.38,-5.38,-5.36,-5.69,-1.75,-1.75,-1.75
250.41,3.54,5.30,3.54,5.30,-5.29,-5.29,-5.65,-1.75,-1.76,-1.76
252.92,3.44,5.21,3.44,5.21,-5.21,-5.22,-5.60,-1.77,-1.77,-1.77
255.45,3.34,5.13,3.35,5.13,-5.13,-5.15,-5.55,-1.79,-1.79,-1.79
258.00,3.25,5.04,3.26,5.05,-5.05,-5.08,-5.49,-1.80,-1.80,-1.79
260.58,3.17,4.97,3.17,4.97,-4.97,-5.01,-5.43,-1.80,-1.80,-1.80
263.19,3.08,4.90,3.08,4.89,-4.89,-4.94,-5.37,-1.81,-1.81,-1.82
265.82,2.99,4.81,2.99,4.82,-4.81,-4.87,-5.30,-1.82,-1.82,-1.82
268.48,2.90,4.74,2.90,4.73,-4.74,-4.81,-5.22,-1.83,-1.83,-1.84
271.16,2.81,4.65,2.81,4.65,-4.66,-4.74,-5.15,-1.85,-1.85,-1.84
273.87,2.71,4.57,2.72,4.58,-4.58,-4.67,-5.06,-1.87,-1.86,-1.86
276.61,2.63,4.50,2.63,4.50,-4.50,-4.60,-4.98,-1.87,-1.87,-1.87
279.38,2.54,4.43,2.54,4.43,-4.42,-4.53,-4.89,-1.88,-1.88,-1.89
282.17,2.46,4.35,2.46,4.35,-4.35,-4.47,-4.81,-1.88,-1.89,-1.89
284.99,2.37,4.27,2.37,4.27,-4.27,-4.40,-4.71,-1.90,-1.90,-1.90
287.84,2.28,4.17,2.29,4.19,-4.19,-4.33,-4.62,-1.91,-1.91,-1.89
290.72,2.20,4.12,2.20,4.11,-4.11,-4.27,-4.53,-1.91,-1.91,-1.92
293.63,2.12,4.04,2.12,4.04,-4.04,-4.20,-4.44,-1.91,-1.92,-1.92
296.57,2.04,3.97,2.04,3.96,-3.96,-4.14,-4.34,-1.92,-1.92,-1.92
299.53,1.95,3.88,1.96,3.88,-3.88,-4.07,-4.25,-1.93,-1.92,-1.93
302.53,1.87,3.80,1.87,3.80,-3.80,-4.01,-4.15,-1.93,-1.93,-1.93
305.55,1.79,3.73,1.79,3.72,-3.73,-3.94,-4.06,-1.93,-1.94,-1.93
308.61,1.71,3.64,1.71,3.64,-3.65,-3.88,-3.97,-1.93,-1.93,-1.93
311.69,1.63,3.56,1.63,3.57,-3.57,-3.82,-3.87,-1.94,-1.93,-1.93
314.81,1.56,3.50,1.56,3.49,-3.49,-3.76,-3.78,-1.93,-1.93,-1.93
317.96,1.48,3.42,1.49,3.42,-3.41,-3.69,-3.69,-1.93,-1.93,-1.94
321.14,1.41,3.34,1.41,3.34,-3.34,-3.63,-3.61,-1.92,-1.93,-1.93
324.35,1.33,3.26,1.33,3.26,-3.26,-3.57,-3.52,-1.93,-1.93,-1.93
327.59,1.25,3.17,1.26,3.18,-3.19,-3.51,-3.44,-1.93,-1.93,-1.91
330.87,1.18,3.11,1.19,3.11,-3.11,-3.45,-3.35,-1.93,-1.93,-1.93
334.18,1.12,3.05,1.12,3.04,-3.04,-3.39,-3.27,-1.92,-1.92,-1.93
337.52,1.05,2.97,1.05,2.97,-2.97,-3.34,-3.19,-1.92,-1.92,-1.92
340.90,0.98,2.90,0.98,2.90,-2.90,-3.28,-3.12,-1.92,-1.92,-1.91
344.30,0.91,2.83,0.92,2.83,-2.83,-3.22,-3.04,-1.92,-1.92,-1.92
347.75,0.85,2.76,0.85,2.76,-2.77,-3.16,-2.97,-1.91,-1.91,-1.91
351.23,0.79,2.71,0.79,2.70,-2.70,-3.11,-2.90,-1.91,-1.91,-1.92
354.74,0.73,2.63,0.73,2.64,-2.64,-3.05,-2.83,-1.91,-1.91,-1.90
358.28,0.66,2.58,0.67,2.58,-2.58,-3.00,-2.76,-1.92,-1.91,-1.91
361.87,0.61,2.53,0.61,2.52,-2.52,-2.94,-2.70,-1.91,-1.91,-1.92
365.49,0.55,2.46,0.55,2.47,-2.47,-2.89,-2.64,-1.91,-1.91,-1.91
369.14,0.50,2.41,0.50,2.41,-2.41,-2.84,-2.58,-1.91,-1.91,-1.91
372.83,0.45,2.36,0.45,2.36,-2.36,-2.78,-2.52,-1.91,-1.91,-1.91
376.56,0.39,2.31,0.40,2.31,-2.31,-2.73,-2.46,-1.92,-1.91,-1.92
380.33,0.34,2.26,0.35,2.26,-2.26,-2.68,-2.41,-1.92,-1.91,-1.91
384.13,0.30,2.22,0.30,2.21,-2.21,-2.63,-2.36,-1.91,-1.91,-1.91
387.97,0.25,2.16,0.25,2.16,-2.16,-2.58,-2.30,-1.91,-1.91,-1.91
391.85,0.20,2.11,0.21,2.12,-2.11,-2.53,-2.26,-1.91,-1.91,-1.91
395.77,0.16,2.07,0.16,2.06,-2.07,-2.48,-2.21,-1.90,-1.91,-1.91
399.73,0.12,2.02,0.12,2.02,-2.02,-2.43,-2.16,-1.90,-1.90,-1.90
403.72,0.07,1.96,0.08,1.97,-1.98,-2.38,-2.12,-1.90,-1.90,-1.89
407.76,0.04,1.93,0.04,1.93,-1.93,-2.34,-2.08,-1.89,-1.89,-1.89
411.84,0.00,1.90,0.00,1.89,-1.89,-2.29,-2.04,-1.89,-1.89,-1.89
415.96,-0.03,1.86,-0.03,1.86,-1.85,-2.24,-2.00,-1.88,-1.89,-1.88
420.12,-0.08,1.82,-0.07,1.82,-1.82,-2.20,-1.96,-1.89,-1.89,-1.90
424.32,-0.11,1.79,-0.11,1.78,-1.78,-2.15,-1.92,-1.89,-1.89,-1.90
428.56,-0.14,1.74,-0.14,1.74,-1.75,-2.11,-1.88,-1.89,-1.89,-1.88
432.85,-0.17,1.71,-0.17,1.71,-1.72,-2.06,-1.85,-1.88,-1.89,-1.88
437.18,-0.21,1.68,-0.20,1.68,-1.69,-2.02,-1.81,-1.89,-1.89,-1.89
441.55,-0.23,1.66,-0.23,1.66,-1.66,-1.97,-1.78,-1.88,-1.89,-1.89
445.96,-0.26,1.63,-0.26,1.63,-1.63,-1.93,-1.75,-1.88,-1.89,-1.89
450.42,-0.29,1.60,-0.29,1.60,-1.60,-1.89,-1.72,-1.89,-1.89,-1.89
454.93,-0.32,1.57,-0.32,1.57,-1.57,-1.85,-1.68,-1.89,-1.89,-1.89
459.48,-0.35,1.54,-0.35,1.54,-1.54,-1.81,-1.65,-1.89,-1.89,-1.89
464.07,-0.37,1.52,-0.37,1.51,-1.51,-1.76,-1.62,-1.88,-1.88,-1.88
468.71,-0.40,1.48,-0.40,1.48,-1.49,-1.72,-1.59,-1.88,-1.88,-1.87
473.40,-0.42,1.46,-0.42,1.45,-1.46,-1.68,-1.56,-1.88,-1.88,-1.87
478.13,-0.45,1.43,-0.44,1.43,-1.44,-1.65,-1.53,-1.88,-1.88,-1.87
482.91,-0.46,1.42,-0.46,1.41,-1.41,-1.61,-1.50,-1.87,-1.87,-1.88
487.74,-0.49,1.39,-0.49,1.39,-1.39,-1.57,-1.47,-1.88,-1.87,-1.88
492.62,-0.51,1.37,-0.51,1.37,-1.37,-1.53,-1.45,-1.87,-1.87,-1.88
497.55,-0.53,1.35,-0.53,1.35,-1.34,-1.49,-1.42,-1.87,-1.87,-1.88
502.52,-0.55,1.33,-0.55,1.32,-1.32,-1.46,-1.39,-1.87,-1.87,-1.88
507.55,-0.58,1.29,-0.57,1.30,-1.30,-1.42,-1.36,-1.88,-1.87,-1.87
