frequency,raw,error,smoothed,error_smoothed,equalization,parametric_eq,fixed_band_eq,equalized_raw,equalized_smoothed,target
20.00,-1.06,-3.82,-1.06,-3.82,3.81,3.62,0.86,2.76,2.76,2.76
20.20,-0.99,-3.79,-0.99,-3.79,3.79,3.58,0.89,2.80,2.80,2.80
20.40,-0.93,-3.77,-0.92,-3.76,3.76,3.53,0.92,2.84,2.84,2.84
20.61,-0.86,-3.72,-0.86,-3.72,3.73,3.49,0.95,2.87,2.87,2.86
20.81,-0.79,-3.69,-0.79,-3.69,3.69,3.44,0.98,2.91,2.90,2.90
21.02,-0.72,-3.66,-0.72,-3.65,3.65,3.39,1.01,2.93,2.93,2.94
21.23,-0.66,-3.61,-0.65,-3.61,3.60,3.34,1.04,2.95,2.95,2.95
21.44,-0.59,-3.55,-0.59,-3.55,3.55,3.29,1.07,2.97,2.97,2.97
21.66,-0.52,-3.50,-0.52,-3.50,3.50,3.24,1.11,2.98,2.98,2.98
21.87,-0.46,-3.43,-0.45,-3.44,3.44,3.19,1.14,2.98,2.98,2.98
22.09,-0.39,-3.37,-0.39,-3.37,3.37,3.14,1.18,2.99,2.98,2.99
22.31,-0.32,-3.30,-0.32,-3.30,3.30,3.09,1.22,2.98,2.98,2.99
22.54,-0.25,-3.24,-0.24,-3.23,3.22,3.04,1.25,2.97,2.98,2.99
22.76,-0.17,-3.14,-0.17,-3.15,3.14,2.99,1.29,2.98,2.97,2.98
22.99,-0.10,-3.06,-0.09,-3.06,3.06,2.93,1.33,2.96,2.97,2.97
23.22,-0.02,-2.98,-0.02,-2.98,2.98,2.88,1.37,2.96,2.96,2.97
23.45,0.06,-2.89,0.06,-2.89,2.90,2.83,1.42,2.96,2.96,2.96
23.69,0.14,-2.81,0.14,-2.81,2.82,2.78,1.46,2.97,2.97,2.96
23.92,0.22,-2.73,0.22,-2.74,2.75,2.72,1.50,2.98,2.97,2.96
24.16,0.28,-2.68,0.28,-2.68,2.69,2.67,1.55,2.97,2.97,2.96
24.40,0.33,-2.63,0.34,-2.62,2.63,2.62,1.59,2.96,2.97,2.96
24.65,0.38,-2.57,0.38,-2.57,2.58,2.56,1.64,2.96,2.96,2.95
24.89,0.43,-2.52,0.43,-2.52,2.53,2.51,1.68,2.96,2.96,2.95
25.14,0.48,-2.47,0.48,-2.47,2.47,2.46,1.73,2.96,2.96,2.95
25.39,0.53,-2.42,0.53,-2.42,2.41,2.41,1.78,2.94,2.93,2.95
25.65,0.57,-2.37,0.57,-2.37,2.33,2.35,1.82,2.90,2.90,2.94
25.91,0.62,-2.31,0.63,-2.30,2.25,2.30,1.87,2.87,2.88,2.93
26.16,0.71,-2.22,0.72,-2.21,2.16,2.25,1.91,2.88,2.88,2.93
26.43,0.83,-2.10,0.84,-2.09,2.08,2.20,1.96,2.92,2.92,2.93
26.69,0.95,-1.98,0.96,-1.97,2.02,2.14,2.00,2.97,2.97,2.93
26.96,1.06,-1.86,1.03,-1.89,1.97,2.09,2.04,3.03,3.00,2.92
27.23,1.05,-1.86,1.05,-1.87,1.94,2.04,2.09,2.99,2.99,2.92
27.50,1.00,-1.91,1.02,-1.90,1.94,1.99,2.12,2.94,2.95,2.92
27.77,0.96,-1.94,0.97,-1.94,1.95,1.94,2.16,2.91,2.92,2.91
28.05,0.92,-1.98,0.92,-1.98,1.98,1.89,2.20,2.90,2.90,2.91
28.33,0.88,-2.01,0.87,-2.03,2.00,1.84,2.23,2.89,2.87,2.90
28.62,0.83,-2.06,0.83,-2.07,2.02,1.79,2.26,2.85,2.85,2.89
28.90,0.79,-2.10,0.82,-2.08,2.01,1.74,2.28,2.81,2.83,2.89
29.19,0.84,-2.05,0.85,-2.04,1.98,1.69,2.30,2.82,2.83,2.89
29.48,0.94,-1.96,0.94,-1.96,1.93,1.64,2.32,2.87,2.86,2.90
29.78,1.04,-1.85,1.04,-1.86,1.86,1.59,2.34,2.91,2.90,2.89
30.08,1.13,-1.77,1.12,-1.77,1.80,1.54,2.35,2.93,2.92,2.90
30.38,1.19,-1.69,1.20,-1.68,1.74,1.49,2.35,2.93,2.94,2.88
30.68,1.25,-1.62,1.26,-1.62,1.68,1.45,2.35,2.93,2.94,2.88
30.99,1.31,-1.55,1.29,-1.58,1.63,1.40,2.35,2.94,2.92,2.87
31.30,1.29,-1.57,1.29,-1.58,1.58,1.35,2.34,2.88,2.87,2.87
31.61,1.27,-1.59,1.27,-1.58,1.54,1.30,2.32,2.81,2.81,2.86
31.93,1.25,-1.59,1.28,-1.57,1.50,1.26,2.30,2.75,2.77,2.84
32.24,1.32,-1.51,1.33,-1.50,1.45,1.21,2.27,2.78,2.78,2.83
32.57,1.42,-1.41,1.42,-1.41,1.40,1.16,2.25,2.82,2.82,2.83
32.89,1.52,-1.29,1.51,-1.31,1.34,1.12,2.21,2.87,2.85,2.82
33.22,1.57,-1.22,1.57,-1.23,1.28,1.07,2.17,2.85,2.85,2.80
33.55,1.61,-1.18,1.61,-1.18,1.21,1.03,2.13,2.82,2.82,2.79
33.89,1.64,-1.13,1.65,-1.13,1.13,0.98,2.08,2.77,2.78,2.77
34.23,1.68,-1.09,1.69,-1.08,1.05,0.94,2.03,2.73,2.74,2.77
34.57,1.74,-1.01,1.74,-1.02,0.98,0.89,1.97,2.72,2.71,2.75
34.92,1.79,-0.95,1.80,-0.94,0.91,0.85,1.92,2.70,2.71,2.74
35.27,1.87,-0.86,1.88,-0.84,0.85,0.80,1.85,2.72,2.74,2.74
35.62,1.96,-0.75,1.96,-0.75,0.79,0.76,1.79,2.76,2.76,2.71
35.97,2.05,-0.65,2.02,-0.69,0.74,0.72,1.72,2.79,2.76,2.70
36.33,2.04,-0.66,2.04,-0.66,0.68,0.67,1.66,2.72,2.72,2.70
36.70,2.02,-0.66,2.04,-0.65,0.63,0.63,1.59,2.65,2.67,2.69
37.06,2.02,-0.65,2.04,-0.64,0.59,0.58,1.51,2.62,2.64,2.68
37.43,2.08,-0.60,2.09,-0.59,0.57,0.54,1.44,2.65,2.65,2.68
37.81,2.15,-0.52,2.14,-0.53,0.55,0.50,1.37,2.70,2.69,2.67
38.19,2.18,-0.47,2.18,-0.49,0.53,0.46,1.29,2.72,2.71,2.66
38.57,2.18,-0.48,2.19,-0.47,0.51,0.41,1.21,2.69,2.70,2.66
38.95,2.18,-0.47,2.18,-0.47,0.47,0.37,1.14,2.65,2.65,2.65
39.34,2.17,-0.48,2.17,-0.48,0.43,0.33,1.06,2.60,2.59,2.65
39.74,2.17,-0.46,2.18,-0.46,0.39,0.28,0.98,2.56,2.57,2.64
40.14,2.20,-0.43,2.25,-0.39,0.36,0.24,0.91,2.56,2.61,2.63
40.54,2.33,-0.30,2.33,-0.29,0.34,0.20,0.83,2.67,2.68,2.63
40.94,2.46,-0.16,2.40,-0.22,0.32,0.16,0.75,2.78,2.72,2.63
41.35,2.42,-0.19,2.42,-0.20,0.28,0.11,0.67,2.70,2.70,2.61
41.76,2.36,-0.24,2.39,-0.21,0.23,0.07,0.60,2.59,2.61,2.60
42.18,2.34,-0.25,2.35,-0.25,0.15,0.03,0.52,2.50,2.50,2.59
42.60,2.38,-0.20,2.37,-0.21,0.08,-0.01,0.44,2.46,2.45,2.58
43.03,2.43,-0.14,2.48,-0.09,-0.00,-0.06,0.37,2.43,2.48,2.58
43.46,2.62,0.07,2.63,0.07,-0.08,-0.10,0.29,2.54,2.54,2.55
43.90,2.81,0.28,2.77,0.24,-0.16,-0.14,0.21,2.65,2.61,2.53
44.33,2.88,0.37,2.88,0.37,-0.25,-0.18,0.14,2.64,2.63,2.51
44.78,2.90,0.42,2.91,0.42,-0.33,-0.23,0.06,2.57,2.58,2.49
45.23,2.90,0.43,2.90,0.43,-0.41,-0.27,-0.01,2.49,2.49,2.47
45.68,2.88,0.43,2.89,0.43,-0.47,-0.31,-0.09,2.41,2.42,2.46
46.13,2.88,0.44,2.90,0.45,-0.52,-0.36,-0.16,2.37,2.38,2.44
46.60,2.93,0.50,2.93,0.50,-0.55,-0.40,-0.24,2.38,2.38,2.44
47.06,2.99,0.56,3.00,0.57,-0.59,-0.44,-0.31,2.41,2.41,2.43
47.53,3.07,0.65,3.08,0.65,-0.63,-0.49,-0.39,2.45,2.45,2.42
48.01,3.15,0.73,3.12,0.70,-0.67,-0.53,-0.46,2.48,2.44,2.42
48.49,3.14,0.74,3.14,0.74,-0.72,-0.58,-0.54,2.42,2.42,2.40
48.97,3.12,0.74,3.16,0.78,-0.76,-0.62,-0.61,2.36,2.40,2.38
49.46,3.18,0.81,3.18,0.81,-0.81,-0.67,-0.68,2.38,2.38,2.38
49.96,3.23,0.87,3.20,0.83,-0.84,-0.71,-0.76,2.39,2.36,2.36
50.46,3.22,0.85,3.22,0.85,-0.87,-0.76,-0.83,2.35,2.35,2.37
50.96,3.20,0.84,3.24,0.88,-0.90,-0.80,-0.90,2.30,2.34,2.36
51.47,3.27,0.92,3.27,0.92,-0.93,-0.85,-0.97,2.35,2.35,2.36
51.99,3.34,0.99,3.31,0.96,-0.95,-0.90,-1.04,2.39,2.36,2.35
52.51,3.34,0.99,3.35,1.00,-0.97,-0.94,-1.12,2.37,2.38,2.35
53.03,3.34,0.99,3.35,1.00,-0.99,-0.99,-1.19,2.36,2.36,2.35
53.56,3.34,1.00,3.34,1.00,-1.00,-1.04,-1.26,2.34,2.34,2.34
54.10,3.34,1.01,3.34,1.01,-1.01,-1.09,-1.32,2.33,2.33,2.33
54.64,3.34,1.01,3.34,1.02,-1.02,-1.14,-1.39,2.32,2.32,2.33
55.18,3.34,1.02,3.34,1.02,-1.03,-1.19,-1.46,2.31,2.31,2.32
55.74,3.34,1.03,3.34,1.03,-1.04,-1.24,-1.53,2.30,2.30,2.31
56.29,3.34,1.04,3.35,1.04,-1.05,-1.29,-1.59,2.30,2.30,2.31
56.86,3.35,1.07,3.35,1.06,-1.06,-1.34,-1.66,2.30,2.29,2.29
57.42,3.35,1.08,3.36,1.08,-1.07,-1.39,-1.72,2.29,2.29,2.27
58.00,3.36,1.10,3.36,1.10,-1.08,-1.44,-1.78,2.29,2.28,2.26
58.58,3.35,1.10,3.35,1.10,-1.09,-1.50,-1.84,2.26,2.26,2.25
59.16,3.35,1.12,3.35,1.11,-1.11,-1.55,-1.90,2.24,2.24,2.24
59.76,3.33,1.12,3.34,1.12,-1.14,-1.60,-1.96,2.19,2.20,2.21
60.35,3.34,1.15,3.34,1.15,-1.18,-1.66,-2.01,2.16,2.16,2.19
60.96,3.35,1.19,3.36,1.20,-1.23,-1.72,-2.06,2.12,2.13,2.16
61.57,3.40,1.28,3.40,1.28,-1.29,-1.77,-2.12,2.11,2.11,2.12
62.18,3.45,1.37,3.45,1.37,-1.37,-1.83,-2.17,2.09,2.09,2.08
62.80,3.51,1.47,3.51,1.47,-1.45,-1.89,-2.21,2.07,2.07,2.05
63.43,3.57,1.56,3.57,1.56,-1.54,-1.95,-2.26,2.04,2.03,2.01
64.07,3.63,1.66,3.63,1.65,-1.63,-2.01,-2.31,2.00,1.99,1.97
64.71,3.67,1.74,3.67,1.73,-1.73,-2.07,-2.35,1.94,1.94,1.94
65.35,3.72,1.81,3.72,1.82,-1.84,-2.14,-2.39,1.89,1.89,1.91
66.01,3.77,1.90,3.79,1.92,-1.93,-2.20,-2.43,1.84,1.85,1.87
66.67,3.87,2.04,3.87,2.03,-2.03,-2.27,-2.48,1.84,1.83,1.83
67.33,3.95,2.15,3.94,2.15,-2.14,-2.33,-2.51,1.82,1.81,1.80
68.01,4.01,2.25,4.02,2.26,-2.24,-2.40,-2.55,1.77,1.78,1.76
68.69,4.08,2.36,4.08,2.36,-2.35,-2.47,-2.59,1.73,1.73,1.72
69.37,4.14,2.46,4.14,2.46,-2.46,-2.54,-2.63,1.68,1.67,1.68
70.07,4.20,2.57,4.20,2.56,-2.58,-2.61,-2.67,1.63,1.62,1.64
70.77,4.25,2.65,4.28,2.67,-2.69,-2.69,-2.70,1.56,1.59,1.61
71.48,4.36,2.80,4.36,2.80,-2.80,-2.76,-2.74,1.56,1.56,1.56
72.19,4.46,2.94,4.43,2.92,-2.91,-2.84,-2.78,1.55,1.52,1.52
72.91,4.49,3.03,4.49,3.02,-3.02,-2.91,-2.82,1.48,1.47,1.46
73.64,4.52,3.10,4.56,3.14,-3.12,-2.99,-2.86,1.40,1.43,1.42
74.38,4.60,3.23,4.61,3.24,-3.23,-3.07,-2.90,1.38,1.39,1.37
75.12,4.71,3.38,4.66,3.33,-3.32,-3.16,-2.94,1.39,1.33,1.33
75.87,4.68,3.39,4.69,3.40,-3.41,-3.24,-2.98,1.27,1.27,1.29
76.63,4.68,3.43,4.73,3.48,-3.49,-3.33,-3.03,1.19,1.24,1.25
77.40,4.77,3.56,4.78,3.57,-3.56,-3.41,-3.07,1.21,1.22,1.22
78.17,4.90,3.72,4.85,3.67,-3.63,-3.50,-3.12,1.27,1.22,1.18
78.95,4.88,3.73,4.88,3.73,-3.70,-3.59,-3.17,1.18,1.18,1.15
79.74,4.87,3.75,4.89,3.77,-3.78,-3.68,-3.22,1.09,1.11,1.12
80.54,4.88,3.79,4.91,3.82,-3.86,-3.78,-3.28,1.02,1.05,1.09
81.35,4.95,3.89,4.95,3.89,-3.94,-3.87,-3.34,1.01,1.01,1.06
82.16,5.07,4.05,5.04,4.00,-4.02,-3.97,-3.39,1.05,1.01,1.03
82.98,5.07,4.07,5.13,4.13,-4.11,-4.06,-3.46,0.96,1.02,1.01
83.81,5.24,4.28,5.21,4.24,-4.20,-4.16,-3.52,1.04,1.01,0.96
84.65,5.28,4.35,5.26,4.32,-4.30,-4.25,-3.59,0.98,0.96,0.93
85.50,5.28,4.38,5.30,4.40,-4.40,-4.35,-3.66,0.88,0.90,0.91
86.35,5.31,4.44,5.32,4.45,-4.49,-4.44,-3.73,0.82,0.83,0.87
87.22,5.38,4.54,5.39,4.55,-4.58,-4.54,-3.81,0.81,0.82,0.84
88.09,5.46,4.66,5.49,4.68,-4.66,-4.63,-3.88,0.81,0.83,0.80
88.97,5.60,4.82,5.54,4.77,-4.74,-4.72,-3.97,0.87,0.80,0.78
89.86,5.58,4.84,5.57,4.83,-4.82,-4.81,-4.05,0.77,0.76,0.74
90.76,5.53,4.83,5.59,4.88,-4.89,-4.89,-4.14,0.64,0.70,0.71
91.66,5.61,4.93,5.62,4.94,-4.96,-4.98,-4.23,0.65,0.65,0.68
92.58,5.69,5.05,5.69,5.04,-5.03,-5.06,-4.32,0.66,0.65,0.64
93.51,5.76,5.15,5.74,5.12,-5.10,-5.13,-4.42,0.66,0.64,0.62
94.44,5.77,5.18,5.75,5.16,-5.17,-5.20,-4.52,0.60,0.58,0.59
95.39,5.73,5.17,5.76,5.20,-5.24,-5.27,-4.62,0.49,0.52,0.56
96.34,5.76,5.24,5.81,5.28,-5.31,-5.33,-4.72,0.46,0.50,0.52
97.30,5.89,5.40,5.87,5.37,-5.37,-5.39,-4.83,0.53,0.50,0.49
98.28,5.96,5.50,5.93,5.46,-5.41,-5.44,-4.94,0.55,0.51,0.47
99.26,5.93,5.49,5.94,5.50,-5.45,-5.49,-5.05,0.48,0.49,0.45
100.25,5.90,5.49,5.92,5.50,-5.49,-5.53,-5.16,0.42,0.43,0.42
101.25,5.88,5.49,5.89,5.50,-5.52,-5.57,-5.28,0.37,0.37,0.39
102.27,5.87,5.51,5.87,5.52,-5.53,-5.61,-5.39,0.34,0.34,0.36
103.29,5.85,5.54,5.85,5.53,-5.54,-5.64,-5.51,0.31,0.31,0.31
104.32,5.83,5.54,5.84,5.55,-5.54,-5.67,-5.63,0.29,0.29,0.29
105.37,5.81,5.56,5.81,5.56,-5.55,-5.70,-5.74,0.27,0.26,0.25
106.42,5.79,5.57,5.79,5.57,-5.56,-5.73,-5.86,0.23,0.23,0.22
107.48,5.76,5.58,5.76,5.58,-5.59,-5.75,-5.97,0.18,0.17,0.18
108.56,5.74,5.60,5.74,5.60,-5.62,-5.78,-6.09,0.12,0.12,0.14
109.64,5.72,5.62,5.73,5.63,-5.66,-5.80,-6.20,0.06,0.07,0.10
110.74,5.75,5.68,5.75,5.68,-5.70,-5.82,-6.30,0.05,0.05,0.07
111.85,5.78,5.74,5.79,5.75,-5.75,-5.84,-6.41,0.03,0.04,0.05
112.97,5.84,5.85,5.83,5.82,-5.80,-5.86,-6.51,0.04,0.03,-0.00
114.10,5.86,5.88,5.86,5.88,-5.86,-5.87,-6.60,0.01,0.00,-0.02
115.24,5.86,5.92,5.87,5.93,-5.90,-5.89,-6.69,-0.04,-0.04,-0.06
116.39,5.86,5.95,5.87,5.95,-5.95,-5.91,-6.77,-0.08,-0.08,-0.09
117.55,5.86,5.98,5.87,5.98,-5.98,-5.93,-6.84,-0.12,-0.12,-0.12
118.73,5.87,6.02,5.87,6.01,-6.01,-5.94,-6.90,-0.14,-0.14,-0.14
119.92,5.87,6.02,5.88,6.03,-6.04,-5.96,-6.96,-0.16,-0.16,-0.15
121.12,5.88,6.06,5.88,6.06,-6.06,-5.98,-7.00,-0.18,-0.17,-0.18
122.33,5.89,6.09,5.89,6.08,-6.08,-5.99,-7.04,-0.19,-0.19,-0.19
123.55,5.90,6.10,5.90,6.11,-6.11,-6.01,-7.06,-0.21,-0.21,-0.20
124.79,5.90,6.13,5.91,6.13,-6.14,-6.02,-7.07,-0.23,-0.23,-0.22
126.03,5.91,6.15,5.91,6.15,-6.16,-6.04,-7.08,-0.25,-0.25,-0.24
127.29,5.92,6.18,5.92,6.18,-6.18,-6.05,-7.07,-0.26,-0.26,-0.25
128.57,5.92,6.20,5.94,6.21,-6.20,-6.06,-7.05,-0.27,-0.26,-0.28
129.85,5.94,6.23,5.95,6.24,-6.21,-6.07,-7.03,-0.27,-0.26,-0.29
131.15,5.96,6.27,5.93,6.24,-6.22,-6.08,-6.99,-0.26,-0.29,-0.30
132.46,5.90,6.22,5.91,6.23,-6.23,-6.09,-6.94,-0.32,-0.32,-0.32
133.79,5.86,6.18,5.88,6.20,-6.23,-6.10,-6.89,-0.37,-0.35,-0.32
135.12,5.85,6.20,5.86,6.20,-6.22,-6.10,-6.82,-0.37,-0.37,-0.35
136.48,5.85,6.20,5.86,6.21,-6.21,-6.11,-6.75,-0.36,-0.36,-0.35
137.84,5.86,6.23,5.85,6.23,-6.20,-6.11,-6.68,-0.34,-0.35,-0.37
139.22,5.81,6.21,5.81,6.21,-6.19,-6.11,-6.59,-0.37,-0.37,-0.40
140.61,5.76,6.18,5.76,6.17,-6.17,-6.11,-6.51,-0.41,-0.41,-0.42
142.02,5.69,6.11,5.72,6.14,-6.16,-6.11,-6.41,-0.47,-0.44,-0.42
143.44,5.68,6.12,5.68,6.12,-6.15,-6.11,-6.32,-0.46,-0.46,-0.44
144.87,5.67,6.14,5.65,6.11,-6.13,-6.10,-6.22,-0.46,-0.48,-0.46
146.32,5.60,6.09,5.62,6.11,-6.11,-6.09,-6.13,-0.51,-0.49,-0.49
147.78,5.57,6.09,5.56,6.08,-6.10,-6.08,-6.03,-0.52,-0.53,-0.52
149.26,5.50,6.06,5.50,6.06,-6.07,-6.07,-5.92,-0.57,-0.57,-0.55
150.75,5.41,6.02,5.43,6.04,-6.03,-6.06,-5.82,-0.62,-0.59,-0.61
152.26,5.35,6.01,5.34,5.99,-5.96,-6.04,-5.72,-0.60,-0.62,-0.65
153.78,5.23,5.94,5.22,5.93,-5.86,-6.02,-5.63,-0.62,-0.63,-0.71
155.32,5.05,5.82,5.06,5.83,-5.73,-6.00,-5.53,-0.68,-0.67,-0.77
156.88,4.87,5.70,4.87,5.69,-5.61,-5.98,-5.43,-0.73,-0.74,-0.82
158.44,4.63,5.53,4.61,5.51,-5.50,-5.95,-5.34,-0.86,-0.88,-0.89
160.03,4.40,5.36,4.37,5.33,-5.41,-5.93,-5.25,-1.01,-1.04,-0.96
161.63,4.12,5.13,4.19,5.20,-5.37,-5.90,-5.16,-1.24,-1.17,-1.01
163.24,4.12,5.19,4.14,5.20,-5.36,-5.87,-5.07,-1.24,-1.22,-1.07
164.88,4.21,5.31,4.20,5.31,-5.40,-5.83,-4.99,-1.19,-1.20,-1.10
166.53,4.37,5.51,4.35,5.49,-5.48,-5.80,-4.91,-1.11,-1.13,-1.14
168.19,4.49,5.66,4.49,5.65,-5.59,-5.76,-4.83,-1.10,-1.10,-1.16
169.87,4.60,5.80,4.60,5.79,-5.71,-5.72,-4.75,-1.11,-1.11,-1.19
171.57,4.68,5.89,4.69,5.90,-5.82,-5.68,-4.68,-1.13,-1.13,-1.21
173.29,4.74,5.96,4.74,5.96,-5.90,-5.64,-4.62,-1.16,-1.16,-1.22
175.02,4.76,5.99,4.75,5.98,-5.94,-5.60,-4.55,-1.18,-1.19,-1.22
176.77,4.72,5.95,4.72,5.95,-5.95,-5.55,-4.49,-1.22,-1.22,-1.23
178.54,4.67,5.91,4.68,5.91,-5.92,-5.51,-4.44,-1.25,-1.24,-1.24
180.32,4.60,5.82,4.62,5.84,-5.87,-5.46,-4.38,-1.27,-1.25,-1.22
182.13,4.58,5.80,4.57,5.79,-5.80,-5.41,-4.33,-1.22,-1.24,-1.22
183.95,4.49,5.71,4.51,5.72,-5.73,-5.36,-4.28,-1.24,-1.22,-1.22
185.79,4.45,5.68,4.44,5.66,-5.65,-5.30,-4.24,-1.20,-1.21,-1.22
187.65,4.34,5.58,4.35,5.58,-5.58,-5.25,-4.20,-1.23,-1.23,-1.24
189.52,4.26,5.50,4.26,5.50,-5.50,-5.20,-4.16,-1.24,-1.25,-1.24
191.42,4.15,5.41,4.16,5.41,-5.43,-5.14,-4.13,-1.28,-1.27,-1.25
193.33,4.07,5.34,4.08,5.35,-5.36,-5.08,-4.10,-1.29,-1.28,-1.26
195.27,4.01,5.29,4.01,5.29,-5.29,-5.03,-4.07,-1.27,-1.27,-1.28
197.22,3.95,5.25,3.94,5.23,-5.22,-4.97,-4.04,-1.26,-1.28,-1.30
199.19,3.85,5.17,3.85,5.16,-5.15,-4.91,-4.02,-1.30,-1.30,-1.32
201.18,3.74,5.07,3.76,5.09,-5.10,-4.85,-4.00,-1.35,-1.33,-1.33
203.19,3.67,5.01,3.68,5.02,-5.05,-4.79,-3.98,-1.37,-1.37,-1.34
205.23,3.63,5.00,3.60,4.96,-5.00,-4.73,-3.96,-1.36,-1.39,-1.37
207.28,3.53,4.90,3.54,4.92,-4.94,-4.66,-3.95,-1.41,-1.40,-1.37
209.35,3.46,4.86,3.49,4.89,-4.88,-4.60,-3.93,-1.42,-1.39,-1.40
211.44,3.45,4.87,3.44,4.85,-4.82,-4.54,-3.92,-1.36,-1.38,-1.42
213.56,3.38,4.81,3.37,4.79,-4.75,-4.48,-3.91,-1.36,-1.38,-1.42
215.69,3.28,4.72,3.26,4.70,-4.67,-4.41,-3.90,-1.38,-1.40,-1.43
217.85,3.10,4.54,3.13,4.58,-4.58,-4.35,-3.89,-1.48,-1.45,-1.44
220.03,3.00,4.46,3.01,4.47,-4.49,-4.28,-3.88,-1.49,-1.48,-1.46
222.23,2.92,4.39,2.91,4.37,-4.40,-4.22,-3.87,-1.47,-1.49,-1.47
224.45,2.83,4.29,2.83,4.29,-4.30,-4.15,-3.86,-1.47,-1.47,-1.45
226.70,2.73,4.18,2.74,4.19,-4.21,-4.09,-3.85,-1.47,-1.47,-1.45
228.96,2.66,4.11,2.66,4.11,-4.12,-4.02,-3.84,-1.45,-1.45,-1.45
231.25,2.59,4.03,2.60,4.04,-4.02,-3.95,-3.83,-1.43,-1.42,-1.43
233.57,2.54,3.96,2.53,3.95,-3.93,-3.88,-3.82,-1.39,-1.40,-1.42
235.90,2.47,3.88,2.46,3.86,-3.84,-3.82,-3.80,-1.37,-1.38,-1.41
238.26,2.36,3.74,2.38,3.76,-3.74,-3.75,-3.79,-1.38,-1.36,-1.38
240.64,2.30,3.66,2.29,3.64,-3.65,-3.68,-3.77,-1.35,-1.36,-1.36
243.05,2.21,3.54,2.20,3.53,-3.56,-3.61,-3.75,-1.34,-1.35,-1.32
245.48,2.11,3.41,2.13,3.43,-3.47,-3.54,-3.72,-1.35,-1.33,-1.30
247.93,2.08,3.36,2.09,3.36,-3.37,-3.47,-3.70,-1.29,-1.29,-1.27
250.41,2.04,3.30,2.05,3.29,-3.29,-3.40,-3.67,-1.24,-1.24,-1.26
252.92,2.03,3.25,2.00,3.23,-3.20,-3.33,-3.64,-1.17,-1.20,-1.22
255.45,1.92,3.12,1.94,3.14,-3.12,-3.26,-3.61,-1.20,-1.18,-1.20
258.00,1.86,3.04,1.87,3.05,-3.05,-3.18,-3.57,-1.18,-1.18,-1.18
260.58,1.80,2.97,1.80,2.96,-2.97,-3.11,-3.53,-1.17,-1.17,-1.16
263.19,1.75,2.89,1.75,2.89,-2.90,-3.03,-3.49,-1.15,-1.15,-1.14
265.82,1.69,2.82,1.69,2.81,-2.82,-2.96,-3.45,-1.13,-1.13,-1.12
268.48,1.64,2.74,1.65,2.74,-2.75,-2.88,-3.40,-1.10,-1.10,-1.10
271.16,1.60,2.67,1.61,2.68,-2.67,-2.80,-3.36,-1.07,-1.06,-1.07
273.87,1.58,2.64,1.57,2.62,-2.61,-2.72,-3.31,-1.02,-1.03,-1.05
276.61,1.53,2.56,1.53,2.56,-2.55,-2.65,-3.26,-1.01,-1.01,-1.03
279.38,1.48,2.48,1.48,2.48,-2.49,-2.57,-3.21,-1.01,-1.01,-1.00
282.17,1.43,2.41,1.43,2.40,-2.44,-2.49,-3.16,-1.00,-1.01,-0.98
284.99,1.38,2.33,1.41,2.35,-2.38,-2.41,-3.10,-0.99,-0.97,-0.94
287.84,1.39,2.31,1.41,2.32,-2.32,-2.33,-3.05,-0.93,-0.91,-0.92
290.72,1.44,2.32,1.42,2.30,-2.26,-2.26,-2.99,-0.82,-0.85,-0.88
293.63,1.41,2.27,1.40,2.25,-2.21,-2.18,-2.94,-0.80,-0.81,-0.85
296.57,1.35,2.17,1.35,2.17,-2.16,-2.12,-2.88,-0.81,-0.81,-0.82
299.53,1.26,2.06,1.29,2.08,-2.11,-2.05,-2.83,-0.84,-0.82,-0.80
302.53,1.24,2.01,1.26,2.03,-2.06,-2.00,-2.78,-0.81,-0.79,-0.77
305.55,1.27,2.01,1.27,2.01,-2.01,-1.95,-2.72,-0.73,-0.74,-0.73
308.61,1.29,2.01,1.26,1.97,-1.96,-1.90,-2.67,-0.67,-0.70,-0.71
311.69,1.24,1.94,1.24,1.92,-1.92,-1.86,-2.62,-0.68,-0.69,-0.70
314.81,1.17,1.83,1.21,1.87,-1.89,-1.83,-2.57,-0.72,-0.68,-0.66
317.96,1.18,1.83,1.19,1.84,-1.85,-1.81,-2.52,-0.67,-0.67,-0.65
321.14,1.21,1.85,1.21,1.84,-1.82,-1.79,-2.47,-0.61,-0.61,-0.63
324.35,1.21,1.84,1.21,1.83,-1.79,-1.77,-2.42,-0.57,-0.58,-0.62
327.59,1.21,1.82,1.17,1.77,-1.75,-1.76,-2.37,-0.54,-0.59,-0.61
330.87,1.08,1.68,1.11,1.71,-1.72,-1.75,-2.33,-0.64,-0.61,-0.60
334.18,1.04,1.63,1.08,1.67,-1.70,-1.74,-2.29,-0.66,-0.62,-0.59
337.52,1.09,1.67,1.07,1.65,-1.68,-1.73,-2.24,-0.59,-0.61,-0.58
340.90,1.10,1.66,1.09,1.66,-1.66,-1.72,-2.20,-0.56,-0.57,-0.56
344.30,1.10,1.66,1.11,1.66,-1.65,-1.72,-2.16,-0.54,-0.54,-0.55
347.75,1.10,1.65,1.10,1.65,-1.64,-1.71,-2.13,-0.54,-0.54,-0.54
351.23,1.10,1.64,1.11,1.64,-1.65,-1.70,-2.09,-0.54,-0.54,-0.54
354.74,1.11,1.65,1.11,1.64,-1.65,-1.69,-2.06,-0.54,-0.54,-0.54
358.28,1.11,1.64,1.12,1.65,-1.65,-1.68,-2.02,-0.53,-0.52,-0.53
361.87,1.12,1.65,1.13,1.66,-1.64,-1.66,-1.99,-0.52,-0.51,-0.53
365.49,1.15,1.67,1.13,1.65,-1.63,-1.65,-1.96,-0.48,-0.50,-0.52
369.14,1.11,1.63,1.11,1.63,-1.62,-1.64,-1.93,-0.51,-0.52,-0.52
372.83,1.06,1.59,1.08,1.60,-1.61,-1.62,-1.91,-0.55,-0.53,-0.52
376.56,1.05,1.58,1.06,1.57,-1.60,-1.61,-1.88,-0.55,-0.55,-0.52
380.33,1.06,1.57,1.06,1.58,-1.59,-1.59,-1.86,-0.53,-0.53,-0.50
384.13,1.06,1.58,1.07,1.58,-1.57,-1.58,-1.83,-0.51,-0.51,-0.51
387.97,1.07,1.59,1.05,1.56,-1.55,-1.56,-1.81,-0.48,-0.51,-0.52
391.85,1.01,1.53,1.03,1.54,-1.53,-1.55,-1.79,-0.51,-0.50,-0.52
395.77,0.97,1.48,1.00,1.51,-1.49,-1.53,-1.77,-0.52,-0.49,-0.51
399.73,0.99,1.50,0.97,1.48,-1.46,-1.51,-1.76,-0.47,-0.49,-0.51
403.72,0.93,1.45,0.93,1.44,-1.42,-1.50,-1.74,-0.49,-0.49,-0.52
407.76,0.88,1.40,0.87,1.38,-1.39,-1.48,-1.72,-0.51,-0.52,-0.52
411.84,0.78,1.29,0.79,1.31,-1.36,-1.46,-1.71,-0.57,-0.56,-0.51
415.96,0.73,1.25,0.76,1.28,-1.32,-1.45,-1.69,-0.59,-0.56,-0.52
420.12,0.75,1.27,0.76,1.28,-1.29,-1.43,-1.68,-0.53,-0.52,-0.52
424.32,0.80,1.32,0.78,1.29,-1.26,-1.41,-1.67,-0.46,-0.48,-0.51
428.56,0.80,1.32,0.78,1.29,-1.24,-1.40,-1.65,-0.44,-0.46,-0.51
432.85,0.73,1.23,0.76,1.25,-1.23,-1.38,-1.64,-0.50,-0.47,-0.49
437.18,0.73,1.21,0.73,1.20,-1.23,-1.37,-1.63,-0.50,-0.50,-0.47
441.55,0.75,1.19,0.75,1.19,-1.24,-1.35,-1.62,-0.49,-0.49,-0.43
445.96,0.80,1.21,0.82,1.23,-1.26,-1.34,-1.61,-0.45,-0.43,-0.40
450.42,0.92,1.30,0.91,1.28,-1.28,-1.32,-1.59,-0.36,-0.37,-0.37
454.93,1.01,1.33,1.00,1.32,-1.31,-1.31,-1.58,-0.30,-0.32,-0.32
459.48,1.08,1.36,1.08,1.36,-1.35,-1.30,-1.57,-0.27,-0.27,-0.28
464.07,1.14,1.36,1.17,1.39,-1.39,-1.28,-1.56,-0.25,-0.22,-0.22
468.71,1.27,1.44,1.26,1.43,-1.43,-1.27,-1.54,-0.16,-0.17,-0.17
473.40,1.36,1.48,1.35,1.47,-1.45,-1.26,-1.53,-0.09,-0.10,-0.12
478.13,1.41,1.48,1.42,1.49,-1.46,-1.25,-1.51,-0.04,-0.03,-0.07
482.91,1.46,1.49,1.46,1.48,-1.45,-1.24,-1.50,0.01,0.01,-0.03
487.74,1.48,1.46,1.47,1.45,-1.43,-1.23,-1.48,0.05,0.04,0.02
492.62,1.46,1.40,1.47,1.41,-1.41,-1.23,-1.46,0.06,0.06,0.06
497.55,1.44,1.35,1.44,1.35,-1.37,-1.22,-1.45,0.07,0.07,0.09
502.52,1.41,1.29,1.43,1.31,-1.33,-1.21,-1.43,0.08,0.10,0.12
507.55,1.41,1.28,1.42,1.28,-1.29,-1.21,-1.41,0.12,0.13,0.13
512.62,1.43,1.29,1.40,1.26,-1.26,-1.20,-1.38,0.18,0.15,0.14
