frequency,raw,error,smoothed,error_smoothed,equalization,parametric_eq,fixed_band_eq,equalized_raw,equalized_smoothed,target
20.00,-12.07,-12.71,-12.07,-12.71,6.00,5.18,2.09,-6.07,-6.07,0.64
20.20,-11.89,-12.57,-11.89,-12.57,6.00,5.26,2.15,-5.89,-5.89,0.68
20.40,-11.70,-12.41,-11.71,-12.42,6.00,5.33,2.22,-5.70,-5.71,0.71
20.61,-11.53,-12.27,-11.52,-12.27,6.00,5.41,2.28,-5.53,-5.52,0.74
20.81,-11.34,-12.11,-11.34,-12.11,6.00,5.49,2.35,-5.34,-5.34,0.77
21.02,-11.15,-11.95,-11.15,-11.95,6.00,5.56,2.42,-5.15,-5.15,0.80
21.23,-10.95,-11.77,-10.95,-11.77,6.00,5.64,2.49,-4.95,-4.95,0.82
21.44,-10.75,-11.58,-10.75,-11.58,6.00,5.71,2.57,-4.75,-4.75,0.83
21.66,-10.55,-11.39,-10.55,-11.39,6.00,5.78,2.65,-4.55,-4.55,0.84
21.87,-10.36,-11.21,-10.36,-11.21,6.00,5.84,2.73,-4.36,-4.36,0.85
22.09,-10.17,-11.03,-10.18,-11.04,6.00,5.91,2.81,-4.17,-4.18,0.86
22.31,-10.01,-10.88,-10.01,-10.88,6.00,5.97,2.89,-4.01,-4.01,0.87
22.54,-9.86,-10.73,-9.86,-10.73,6.00,6.02,2.98,-3.86,-3.86,0.87
22.76,-9.70,-10.57,-9.71,-10.57,6.00,6.08,3.06,-3.70,-3.71,0.87
22.99,-9.54,-10.41,-9.53,-10.40,6.00,6.12,3.15,-3.54,-3.53,0.87
23.22,-9.34,-10.22,-9.34,-10.22,6.00,6.17,3.24,-3.34,-3.34,0.88
23.45,-9.13,-10.01,-9.14,-10.02,6.00,6.21,3.34,-3.13,-3.14,0.88
23.69,-8.94,-9.82,-8.93,-9.81,6.00,6.24,3.43,-2.94,-2.93,0.89
23.92,-8.73,-9.62,-8.73,-9.62,6.00,6.27,3.53,-2.73,-2.73,0.89
24.16,-8.55,-9.45,-8.56,-9.45,6.00,6.30,3.63,-2.55,-2.56,0.90
24.40,-8.39,-9.28,-8.39,-9.29,6.00,6.32,3.73,-2.39,-2.39,0.89
24.65,-8.24,-9.13,-8.24,-9.13,6.00,6.33,3.83,-2.24,-2.24,0.88
24.89,-8.08,-8.96,-8.07,-8.96,6.00,6.33,3.93,-2.08,-2.07,0.88
25.14,-7.89,-8.77,-7.89,-8.77,6.00,6.33,4.03,-1.89,-1.89,0.88
25.39,-7.69,-8.56,-7.69,-8.57,6.00,6.32,4.13,-1.69,-1.69,0.87
25.65,-7.49,-8.37,-7.49,-8.36,6.00,6.31,4.24,-1.49,-1.49,0.87
25.91,-7.29,-8.15,-7.29,-8.15,6.00,6.28,4.34,-1.29,-1.29,0.86
26.16,-7.08,-7.93,-7.08,-7.94,6.00,6.25,4.44,-1.08,-1.08,0.85
26.43,-6.89,-7.74,-6.88,-7.72,6.00,6.22,4.54,-0.89,-0.88,0.85
26.69,-6.68,-7.52,-6.68,-7.52,6.00,6.17,4.64,-0.68,-0.68,0.84
26.96,-6.47,-7.31,-6.50,-7.33,6.00,6.12,4.73,-0.47,-0.50,0.84
27.23,-6.33,-7.16,-6.33,-7.16,6.01,6.06,4.82,-0.33,-0.32,0.83
27.50,-6.19,-7.02,-6.19,-7.01,6.02,5.99,4.91,-0.17,-0.17,0.83
27.77,-6.05,-6.86,-6.05,-6.86,6.03,5.92,5.00,-0.02,-0.01,0.81
28.05,-5.90,-6.71,-5.89,-6.69,6.04,5.84,5.07,0.13,0.15,0.81
28.33,-5.70,-6.50,-5.71,-6.50,6.02,5.75,5.15,0.32,0.31,0.80
28.62,-5.52,-6.30,-5.51,-6.30,5.98,5.66,5.21,0.46,0.46,0.79
28.90,-5.31,-6.10,-5.31,-6.09,5.90,5.56,5.27,0.59,0.59,0.78
29.19,-5.11,-5.89,-5.12,-5.90,5.80,5.45,5.32,0.69,0.68,0.77
29.48,-4.92,-5.70,-4.92,-5.70,5.67,5.34,5.36,0.75,0.75,0.78
29.78,-4.73,-5.51,-4.73,-5.50,5.51,5.23,5.39,0.78,0.78,0.77
30.08,-4.54,-5.30,-4.54,-5.30,5.33,5.10,5.41,0.80,0.80,0.76
30.38,-4.34,-5.09,-4.34,-5.09,5.14,4.98,5.42,0.80,0.80,0.75
30.68,-4.15,-4.90,-4.15,-4.90,4.94,4.85,5.42,0.79,0.79,0.75
30.99,-3.96,-4.70,-3.97,-4.71,4.73,4.71,5.41,0.77,0.76,0.74
31.30,-3.79,-4.53,-3.80,-4.54,4.53,4.57,5.39,0.74,0.73,0.74
31.61,-3.63,-4.37,-3.63,-4.36,4.34,4.43,5.35,0.70,0.70,0.73
31.93,-3.46,-4.19,-3.45,-4.17,4.14,4.28,5.31,0.67,0.69,0.72
32.24,-3.26,-3.96,-3.26,-3.97,3.94,4.14,5.25,0.68,0.69,0.70
32.57,-3.04,-3.74,-3.05,-3.75,3.75,3.98,5.18,0.71,0.71,0.70
32.89,-2.83,-3.54,-2.84,-3.54,3.57,3.83,5.10,0.74,0.73,0.71
33.22,-2.65,-3.35,-2.65,-3.35,3.40,3.68,5.01,0.74,0.74,0.70
33.55,-2.49,-3.19,-2.49,-3.18,3.22,3.52,4.91,0.73,0.73,0.70
33.89,-2.33,-3.02,-2.34,-3.02,3.04,3.36,4.80,0.71,0.70,0.68
34.23,-2.19,-2.88,-2.20,-2.88,2.86,3.20,4.69,0.66,0.65,0.68
34.57,-2.06,-2.73,-2.07,-2.74,2.67,3.04,4.56,0.61,0.61,0.67
34.92,-1.92,-2.59,-1.90,-2.57,2.49,2.88,4.43,0.57,0.59,0.67
35.27,-1.70,-2.36,-1.68,-2.34,2.31,2.72,4.29,0.62,0.64,0.67
35.62,-1.43,-2.09,-1.44,-2.09,2.13,2.55,4.15,0.70,0.70,0.65
35.97,-1.17,-1.82,-1.22,-1.87,1.95,2.39,4.00,0.78,0.73,0.65
36.33,-1.06,-1.71,-1.06,-1.71,1.77,2.23,3.85,0.71,0.71,0.65
36.70,-0.96,-1.60,-0.95,-1.58,1.59,2.06,3.70,0.62,0.64,0.64
37.06,-0.85,-1.48,-0.83,-1.46,1.41,1.90,3.54,0.56,0.58,0.63
37.43,-0.67,-1.29,-0.68,-1.30,1.25,1.74,3.38,0.58,0.57,0.62
37.81,-0.50,-1.11,-0.51,-1.12,1.10,1.58,3.22,0.59,0.59,0.61
38.19,-0.33,-0.93,-0.33,-0.94,0.95,1.42,3.05,0.62,0.62,0.60
38.57,-0.18,-0.78,-0.18,-0.77,0.80,1.26,2.89,0.62,0.62,0.60
38.95,-0.02,-0.60,-0.04,-0.62,0.64,1.10,2.72,0.62,0.61,0.58
39.34,0.09,-0.48,0.08,-0.49,0.49,0.94,2.55,0.57,0.57,0.57
39.74,0.19,-0.37,0.20,-0.36,0.34,0.79,2.38,0.52,0.54,0.56
40.14,0.32,-0.25,0.34,-0.22,0.20,0.63,2.22,0.52,0.54,0.56
40.54,0.49,-0.06,0.49,-0.07,0.07,0.48,2.05,0.56,0.56,0.55
40.94,0.66,0.11,0.63,0.08,-0.05,0.33,1.88,0.60,0.57,0.55
41.35,0.74,0.21,0.74,0.20,-0.18,0.18,1.71,0.56,0.56,0.53
41.76,0.82,0.29,0.83,0.30,-0.30,0.04,1.54,0.52,0.53,0.53
42.18,0.91,0.39,0.92,0.40,-0.42,-0.11,1.38,0.48,0.49,0.52
42.60,1.03,0.53,1.03,0.52,-0.55,-0.25,1.21,0.48,0.48,0.50
43.03,1.15,0.66,1.14,0.66,-0.66,-0.39,1.04,0.48,0.48,0.49
43.46,1.25,0.79,1.25,0.79,-0.78,-0.52,0.87,0.46,0.46,0.46
43.90,1.35,0.92,1.35,0.91,-0.91,-0.66,0.71,0.44,0.44,0.43
44.33,1.44,1.04,1.44,1.04,-1.04,-0.79,0.54,0.40,0.40,0.40
44.78,1.54,1.16,1.54,1.16,-1.17,-0.91,0.38,0.36,0.36,0.38
45.23,1.64,1.28,1.64,1.29,-1.30,-1.04,0.21,0.34,0.34,0.35
45.68,1.75,1.42,1.75,1.41,-1.41,-1.16,0.05,0.34,0.33,0.33
46.13,1.85,1.54,1.86,1.54,-1.51,-1.28,-0.12,0.34,0.34,0.31
46.60,1.96,1.65,1.96,1.66,-1.61,-1.39,-0.28,0.35,0.35,0.31
47.06,2.05,1.76,2.02,1.73,-1.71,-1.50,-0.45,0.34,0.32,0.29
47.53,2.07,1.79,2.07,1.79,-1.80,-1.61,-0.61,0.27,0.27,0.27
48.01,2.09,1.81,2.11,1.84,-1.88,-1.71,-0.77,0.21,0.23,0.28
48.49,2.18,1.91,2.17,1.91,-1.96,-1.81,-0.93,0.22,0.22,0.27
48.97,2.27,2.01,2.28,2.02,-2.03,-1.90,-1.09,0.23,0.24,0.26
49.46,2.39,2.14,2.39,2.14,-2.11,-1.99,-1.25,0.28,0.28,0.25
49.96,2.50,2.25,2.47,2.21,-2.19,-2.08,-1.41,0.31,0.28,0.25
50.46,2.53,2.26,2.53,2.27,-2.26,-2.16,-1.57,0.27,0.27,0.26
50.96,2.55,2.28,2.58,2.32,-2.33,-2.24,-1.73,0.22,0.26,0.27
51.47,2.64,2.38,2.64,2.38,-2.38,-2.31,-1.88,0.26,0.26,0.26
51.99,2.73,2.48,2.70,2.44,-2.42,-2.38,-2.04,0.31,0.28,0.25
52.51,2.73,2.48,2.73,2.49,-2.45,-2.45,-2.19,0.28,0.28,0.25
53.03,2.73,2.50,2.74,2.50,-2.49,-2.51,-2.34,0.24,0.25,0.23
53.56,2.73,2.52,2.72,2.51,-2.53,-2.57,-2.48,0.20,0.19,0.21
54.10,2.73,2.54,2.72,2.53,-2.58,-2.62,-2.63,0.14,0.13,0.19
54.64,2.73,2.57,2.74,2.58,-2.64,-2.67,-2.77,0.09,0.10,0.16
55.18,2.77,2.64,2.80,2.67,-2.70,-2.72,-2.90,0.07,0.11,0.13
55.74,2.90,2.80,2.87,2.77,-2.75,-2.76,-3.04,0.14,0.12,0.10
56.29,2.96,2.88,2.94,2.86,-2.82,-2.80,-3.16,0.14,0.12,0.08
56.86,2.96,2.91,2.97,2.92,-2.88,-2.84,-3.28,0.08,0.09,0.05
57.42,2.96,2.95,2.96,2.95,-2.93,-2.87,-3.40,0.02,0.03,0.01
58.00,2.96,2.98,2.96,2.98,-2.98,-2.90,-3.51,-0.03,-0.03,-0.03
58.58,2.96,3.02,2.96,3.01,-3.03,-2.93,-3.61,-0.07,-0.07,-0.06
59.16,2.96,3.04,2.96,3.04,-3.06,-2.95,-3.71,-0.10,-0.10,-0.08
59.76,2.96,3.07,2.96,3.08,-3.09,-2.97,-3.79,-0.13,-0.13,-0.12
60.35,2.96,3.12,2.96,3.12,-3.12,-2.99,-3.88,-0.16,-0.16,-0.16
60.96,2.96,3.15,2.96,3.16,-3.16,-3.01,-3.95,-0.20,-0.20,-0.20
61.57,2.96,3.21,2.96,3.20,-3.20,-3.02,-4.01,-0.25,-0.25,-0.25
62.18,2.96,3.24,2.96,3.24,-3.25,-3.03,-4.07,-0.29,-0.29,-0.29
62.80,2.96,3.28,2.96,3.28,-3.29,-3.04,-4.12,-0.34,-0.34,-0.32
63.43,2.96,3.33,2.96,3.32,-3.33,-3.05,-4.15,-0.37,-0.37,-0.37
64.07,2.96,3.35,2.96,3.36,-3.35,-3.06,-4.19,-0.40,-0.40,-0.40
64.71,2.96,3.39,2.97,3.40,-3.37,-3.06,-4.21,-0.41,-0.39,-0.43
65.35,2.96,3.42,2.96,3.42,-3.37,-3.07,-4.23,-0.41,-0.41,-0.46
66.01,2.96,3.46,2.90,3.40,-3.36,-3.07,-4.23,-0.41,-0.46,-0.50
66.67,2.81,3.33,2.83,3.35,-3.36,-3.07,-4.23,-0.55,-0.53,-0.52
67.33,2.73,3.28,2.76,3.31,-3.35,-3.07,-4.23,-0.63,-0.59,-0.55
68.01,2.73,3.30,2.72,3.28,-3.35,-3.07,-4.22,-0.62,-0.63,-0.57
68.69,2.73,3.32,2.72,3.31,-3.35,-3.07,-4.20,-0.62,-0.63,-0.59
69.37,2.73,3.34,2.73,3.34,-3.35,-3.07,-4.18,-0.62,-0.62,-0.61
70.07,2.73,3.36,2.73,3.36,-3.34,-3.06,-4.16,-0.62,-0.61,-0.63
70.77,2.73,3.37,2.74,3.39,-3.34,-3.06,-4.13,-0.61,-0.60,-0.64
71.48,2.73,3.38,2.71,3.37,-3.33,-3.06,-4.09,-0.60,-0.62,-0.66
72.19,2.69,3.37,2.65,3.33,-3.30,-3.06,-4.06,-0.61,-0.65,-0.68
72.91,2.53,3.23,2.58,3.29,-3.27,-3.05,-4.02,-0.74,-0.68,-0.70
73.64,2.51,3.24,2.49,3.22,-3.23,-3.05,-3.98,-0.72,-0.74,-0.73
74.38,2.44,3.18,2.41,3.16,-3.19,-3.05,-3.94,-0.75,-0.78,-0.75
75.12,2.32,3.09,2.35,3.12,-3.15,-3.04,-3.90,-0.83,-0.80,-0.77
75.87,2.29,3.09,2.29,3.09,-3.12,-3.04,-3.86,-0.84,-0.83,-0.80
76.63,2.28,3.09,2.27,3.09,-3.11,-3.04,-3.82,-0.83,-0.84,-0.81
77.40,2.28,3.11,2.28,3.11,-3.10,-3.04,-3.78,-0.83,-0.83,-0.83
78.17,2.28,3.13,2.28,3.12,-3.11,-3.03,-3.74,-0.83,-0.83,-0.85
78.95,2.28,3.13,2.28,3.13,-3.12,-3.03,-3.70,-0.84,-0.84,-0.85
79.74,2.28,3.14,2.28,3.14,-3.13,-3.03,-3.67,-0.85,-0.85,-0.86
80.54,2.28,3.15,2.28,3.14,-3.14,-3.03,-3.63,-0.86,-0.86,-0.87
81.35,2.28,3.15,2.28,3.15,-3.15,-3.03,-3.60,-0.87,-0.87,-0.87
82.16,2.28,3.15,2.28,3.15,-3.15,-3.03,-3.57,-0.87,-0.87,-0.87
82.98,2.28,3.14,2.28,3.15,-3.14,-3.03,-3.54,-0.87,-0.87,-0.86
83.81,2.28,3.14,2.28,3.14,-3.14,-3.03,-3.51,-0.86,-0.86,-0.87
84.65,2.28,3.14,2.28,3.13,-3.13,-3.03,-3.48,-0.85,-0.85,-0.86
85.50,2.28,3.12,2.28,3.12,-3.12,-3.03,-3.46,-0.84,-0.84,-0.84
86.35,2.28,3.11,2.28,3.11,-3.11,-3.04,-3.44,-0.83,-0.83,-0.84
87.22,2.28,3.10,2.28,3.10,-3.10,-3.04,-3.42,-0.82,-0.82,-0.82
88.09,2.28,3.09,2.28,3.09,-3.09,-3.04,-3.41,-0.81,-0.81,-0.82
88.97,2.28,3.08,2.28,3.08,-3.08,-3.05,-3.39,-0.80,-0.80,-0.80
89.86,2.28,3.06,2.28,3.07,-3.07,-3.06,-3.38,-0.79,-0.79,-0.79
90.76,2.28,3.07,2.28,3.06,-3.06,-3.06,-3.38,-0.79,-0.79,-0.79
91.66,2.28,3.06,2.28,3.06,-3.06,-3.07,-3.37,-0.78,-0.78,-0.78
92.58,2.28,3.06,2.28,3.06,-3.06,-3.08,-3.37,-0.78,-0.78,-0.79
93.51,2.28,3.05,2.28,3.05,-3.05,-3.08,-3.37,-0.78,-0.78,-0.77
94.44,2.28,3.05,2.28,3.05,-3.05,-3.09,-3.38,-0.78,-0.78,-0.77
95.39,2.28,3.06,2.28,3.05,-3.06,-3.10,-3.38,-0.78,-0.78,-0.78
96.34,2.28,3.06,2.28,3.06,-3.06,-3.11,-3.39,-0.78,-0.78,-0.79
97.30,2.28,3.06,2.28,3.07,-3.07,-3.12,-3.40,-0.79,-0.79,-0.79
98.28,2.28,3.07,2.28,3.07,-3.08,-3.14,-3.41,-0.80,-0.80,-0.79
99.26,2.28,3.08,2.28,3.08,-3.09,-3.15,-3.43,-0.81,-0.81,-0.80
100.25,2.28,3.09,2.28,3.09,-3.10,-3.16,-3.44,-0.82,-0.82,-0.81
101.25,2.28,3.10,2.28,3.10,-3.11,-3.18,-3.46,-0.83,-0.83,-0.82
102.27,2.28,3.11,2.28,3.12,-3.10,-3.19,-3.48,-0.83,-0.82,-0.83
103.29,2.28,3.14,2.29,3.14,-3.10,-3.21,-3.50,-0.82,-0.81,-0.86
104.32,2.28,3.16,2.26,3.13,-3.09,-3.22,-3.53,-0.82,-0.84,-0.88
105.37,2.22,3.13,2.19,3.10,-3.09,-3.24,-3.55,-0.87,-0.90,-0.91
106.42,2.09,3.03,2.12,3.06,-3.09,-3.26,-3.58,-1.00,-0.97,-0.94
107.48,2.05,3.04,2.06,3.05,-3.10,-3.27,-3.60,-1.05,-1.03,-0.99
108.56,2.05,3.08,2.04,3.07,-3.11,-3.29,-3.63,-1.06,-1.07,-1.04
109.64,2.05,3.12,2.04,3.12,-3.13,-3.31,-3.66,-1.08,-1.09,-1.08
110.74,2.05,3.17,2.05,3.17,-3.16,-3.33,-3.68,-1.12,-1.12,-1.12
111.85,2.05,3.21,2.05,3.22,-3.21,-3.35,-3.71,-1.16,-1.16,-1.16
112.97,2.05,3.28,2.05,3.27,-3.26,-3.37,-3.73,-1.22,-1.22,-1.23
114.10,2.05,3.32,2.05,3.32,-3.32,-3.39,-3.76,-1.27,-1.27,-1.27
115.24,2.05,3.38,2.05,3.38,-3.36,-3.42,-3.78,-1.32,-1.32,-1.33
116.39,2.05,3.43,2.05,3.43,-3.41,-3.44,-3.81,-1.36,-1.36,-1.38
117.55,2.05,3.47,2.05,3.47,-3.46,-3.46,-3.83,-1.41,-1.41,-1.43
118.73,2.05,3.51,2.05,3.51,-3.51,-3.49,-3.85,-1.46,-1.46,-1.46
119.92,2.05,3.54,2.04,3.53,-3.56,-3.51,-3.87,-1.51,-1.52,-1.49
121.12,2.05,3.57,2.04,3.56,-3.60,-3.54,-3.89,-1.55,-1.56,-1.53
122.33,2.05,3.60,2.10,3.65,-3.64,-3.56,-3.90,-1.60,-1.54,-1.55
123.55,2.15,3.72,2.14,3.72,-3.69,-3.59,-3.91,-1.55,-1.55,-1.57
124.79,2.27,3.86,2.17,3.76,-3.74,-3.61,-3.92,-1.48,-1.58,-1.59
126.03,2.12,3.74,2.18,3.80,-3.80,-3.64,-3.93,-1.68,-1.62,-1.62
127.29,2.15,3.78,2.19,3.83,-3.85,-3.67,-3.94,-1.70,-1.66,-1.63
128.57,2.23,3.89,2.20,3.87,-3.89,-3.70,-3.94,-1.67,-1.69,-1.67
129.85,2.28,3.97,2.26,3.95,-3.93,-3.73,-3.94,-1.66,-1.67,-1.69
131.15,2.28,3.99,2.28,4.00,-3.97,-3.75,-3.94,-1.69,-1.68,-1.71
132.46,2.28,4.01,2.28,4.02,-4.00,-3.78,-3.94,-1.72,-1.72,-1.74
133.79,2.28,4.03,2.28,4.03,-4.03,-3.81,-3.94,-1.75,-1.75,-1.75
135.12,2.28,4.06,2.28,4.05,-4.06,-3.84,-3.93,-1.78,-1.78,-1.78
136.48,2.28,4.07,2.28,4.07,-4.09,-3.87,-3.93,-1.81,-1.81,-1.79
137.84,2.28,4.10,2.28,4.10,-4.11,-3.90,-3.92,-1.83,-1.83,-1.82
139.22,2.28,4.14,2.28,4.13,-4.12,-3.93,-3.92,-1.85,-1.85,-1.86
140.61,2.28,4.16,2.28,4.15,-4.15,-3.96,-3.91,-1.87,-1.87,-1.88
142.02,2.28,4.17,2.28,4.17,-4.17,-4.00,-3.90,-1.89,-1.89,-1.89
143.44,2.28,4.19,2.28,4.19,-4.20,-4.03,-3.89,-1.92,-1.92,-1.92
144.87,2.28,4.22,2.28,4.22,-4.22,-4.06,-3.89,-1.95,-1.95,-1.94
146.32,2.28,4.26,2.28,4.25,-4.26,-4.09,-3.88,-1.98,-1.98,-1.98
147.78,2.28,4.28,2.28,4.29,-4.29,-4.12,-3.87,-2.01,-2.01,-2.01
149.26,2.28,4.32,2.28,4.33,-4.33,-4.16,-3.87,-2.06,-2.06,-2.04
150.75,2.28,4.38,2.28,4.37,-4.38,-4.19,-3.87,-2.10,-2.10,-2.10
152.26,2.28,4.43,2.28,4.43,-4.44,-4.22,-3.86,-2.16,-2.16,-2.15
153.78,2.28,4.49,2.28,4.49,-4.49,-4.25,-3.86,-2.21,-2.21,-2.22
155.32,2.28,4.56,2.28,4.55,-4.55,-4.29,-3.87,-2.27,-2.27,-2.28
156.88,2.28,4.61,2.28,4.61,-4.61,-4.32,-3.87,-2.33,-2.33,-2.33
158.44,2.28,4.67,2.28,4.67,-4.67,-4.35,-3.88,-2.39,-2.39,-2.39
160.03,2.28,4.73,2.28,4.73,-4.72,-4.39,-3.89,-2.45,-2.45,-2.45
161.63,2.28,4.77,2.28,4.78,-4.77,-4.42,-3.90,-2.50,-2.50,-2.50
163.24,2.28,4.82,2.28,4.82,-4.82,-4.45,-3.91,-2.54,-2.54,-2.55
164.88,2.28,4.85,2.28,4.85,-4.85,-4.49,-3.93,-2.57,-2.57,-2.58
166.53,2.28,4.88,2.28,4.89,-4.87,-4.52,-3.95,-2.59,-2.59,-2.60
168.19,2.28,4.91,2.28,4.91,-4.89,-4.55,-3.97,-2.61,-2.61,-2.63
169.87,2.28,4.93,2.28,4.93,-4.91,-4.59,-3.99,-2.63,-2.63,-2.65
171.57,2.28,4.94,2.28,4.93,-4.94,-4.62,-4.02,-2.66,-2.66,-2.66
173.29,2.28,4.93,2.26,4.92,-4.96,-4.65,-4.05,-2.69,-2.70,-2.66
175.02,2.28,4.93,2.28,4.94,-4.99,-4.68,-4.09,-2.72,-2.71,-2.65
176.77,2.28,4.94,2.34,5.00,-5.02,-4.72,-4.13,-2.75,-2.68,-2.66
178.54,2.46,5.11,2.41,5.07,-5.06,-4.75,-4.17,-2.60,-2.64,-2.65
180.32,2.51,5.16,2.48,5.13,-5.09,-4.78,-4.21,-2.58,-2.60,-2.65
182.13,2.51,5.15,2.52,5.17,-5.12,-4.81,-4.26,-2.61,-2.60,-2.64
183.95,2.51,5.16,2.51,5.16,-5.15,-4.84,-4.31,-2.64,-2.63,-2.65
185.79,2.51,5.15,2.51,5.16,-5.17,-4.87,-4.36,-2.66,-2.66,-2.64
187.65,2.51,5.17,2.51,5.17,-5.19,-4.90,-4.42,-2.68,-2.68,-2.67
189.52,2.51,5.19,2.51,5.18,-5.20,-4.93,-4.47,-2.69,-2.69,-2.68
191.42,2.51,5.20,2.51,5.20,-5.20,-4.96,-4.54,-2.70,-2.70,-2.69
193.33,2.51,5.21,2.51,5.21,-5.21,-4.99,-4.60,-2.70,-2.70,-2.70
195.27,2.51,5.22,2.51,5.22,-5.22,-5.02,-4.67,-2.72,-2.72,-2.71
197.22,2.51,5.23,2.51,5.24,-5.24,-5.05,-4.74,-2.73,-2.73,-2.73
199.19,2.51,5.26,2.51,5.26,-5.26,-5.08,-4.81,-2.75,-2.75,-2.76
201.18,2.51,5.28,2.51,5.28,-5.27,-5.10,-4.88,-2.77,-2.77,-2.77
203.19,2.51,5.29,2.51,5.29,-5.29,-5.13,-4.96,-2.78,-2.78,-2.78
205.23,2.51,5.31,2.51,5.30,-5.30,-5.16,-5.03,-2.79,-2.79,-2.80
207.28,2.51,5.32,2.51,5.32,-5.31,-5.18,-5.11,-2.80,-2.80,-2.81
209.35,2.51,5.33,2.51,5.34,-5.32,-5.20,-5.19,-2.82,-2.82,-2.83
211.44,2.51,5.36,2.51,5.35,-5.35,-5.23,-5.27,-2.84,-2.84,-2.86
213.56,2.51,5.37,2.50,5.36,-5.38,-5.25,-5.34,-2.87,-2.88,-2.86
215.69,2.51,5.37,2.50,5.37,-5.42,-5.27,-5.42,-2.91,-2.92,-2.86
217.85,2.51,5.39,2.54,5.42,-5.46,-5.29,-5.50,-2.96,-2.92,-2.88
220.03,2.60,5.50,2.60,5.50,-5.51,-5.31,-5.57,-2.91,-2.91,-2.90
222.23,2.70,5.61,2.67,5.58,-5.56,-5.33,-5.64,-2.86,-2.89,-2.92
224.45,2.73,5.64,2.72,5.64,-5.60,-5.34,-5.71,-2.87,-2.88,-2.91
226.70,2.73,5.65,2.74,5.65,-5.63,-5.36,-5.78,-2.90,-2.89,-2.92
228.96,2.73,5.64,2.73,5.65,-5.65,-5.37,-5.84,-2.92,-2.92,-2.92
231.25,2.73,5.64,2.74,5.66,-5.64,-5.38,-5.90,-2.91,-2.90,-2.91
233.57,2.73,5.65,2.73,5.65,-5.62,-5.39,-5.95,-2.89,-2.89,-2.92
235.90,2.73,5.65,2.69,5.61,-5.58,-5.40,-6.00,-2.85,-2.89,-2.92
238.26,2.62,5.54,2.62,5.54,-5.54,-5.41,-6.04,-2.92,-2.92,-2.92
240.64,2.52,5.43,2.55,5.47,-5.50,-5.42,-6.08,-2.98,-2.95,-2.92
243.05,2.51,5.41,2.51,5.41,-5.47,-5.42,-6.11,-2.96,-2.96,-2.90
245.48,2.51,5.39,2.50,5.39,-5.43,-5.42,-6.13,-2.92,-2.93,-2.89
247.93,2.51,5.38,2.51,5.38,-5.39,-5.42,-6.14,-2.89,-2.89,-2.87
250.41,2.51,5.37,2.51,5.37,-5.35,-5.41,-6.15,-2.85,-2.85,-2.87
252.92,2.51,5.35,2.52,5.36,-5.31,-5.40,-6.15,-2.80,-2.79,-2.84
255.45,2.51,5.32,2.51,5.33,-5.27,-5.39,-6.15,-2.76,-2.76,-2.82
258.00,2.51,5.31,2.46,5.26,-5.23,-5.38,-6.13,-2.72,-2.77,-2.80
260.58,2.36,5.15,2.38,5.17,-5.17,-5.36,-6.11,-2.81,-2.79,-2.79
263.19,2.29,5.06,2.31,5.09,-5.11,-5.34,-6.08,-2.83,-2.80,-2.77
265.82,2.28,5.03,2.27,5.02,-5.06,-5.31,-6.05,-2.78,-2.79,-2.75
268.48,2.28,5.01,2.27,5.00,-5.02,-5.28,-6.01,-2.74,-2.74,-2.73
271.16,2.28,4.99,2.28,4.99,-4.99,-5.25,-5.97,-2.71,-2.71,-2.71
273.87,2.28,4.97,2.26,4.95,-4.98,-5.21,-5.92,-2.70,-2.72,-2.69
276.61,2.28,4.94,2.28,4.95,-4.98,-5.17,-5.87,-2.70,-2.70,-2.67
279.38,2.28,4.93,2.34,4.98,-4.99,-5.13,-5.81,-2.71,-2.65,-2.65
282.17,2.45,5.07,2.41,5.03,-5.00,-5.09,-5.75,-2.55,-2.59,-2.62
284.99,2.51,5.10,2.48,5.07,-5.02,-5.05,-5.69,-2.51,-2.54,-2.59
287.84,2.51,5.07,2.52,5.09,-5.04,-5.02,-5.63,-2.53,-2.52,-2.57
290.72,2.51,5.05,2.50,5.04,-5.06,-4.99,-5.57,-2.56,-2.57,-2.54
293.63,2.51,5.03,2.51,5.03,-5.09,-4.97,-5.50,-2.58,-2.57,-2.52
296.57,2.51,4.99,2.57,5.06,-5.10,-4.96,-5.44,-2.59,-2.53,-2.48
299.53,2.68,5.14,2.64,5.11,-5.11,-4.96,-5.37,-2.43,-2.47,-2.47
302.53,2.73,5.19,2.70,5.15,-5.11,-4.97,-5.31,-2.38,-2.41,-2.46
305.55,2.73,5.15,2.74,5.17,-5.11,-5.00,-5.24,-2.38,-2.37,-2.42
308.61,2.73,5.14,2.73,5.14,-5.11,-5.03,-5.18,-2.38,-2.38,-2.41
311.69,2.73,5.11,2.73,5.11,-5.11,-5.07,-5.12,-2.38,-2.38,-2.39
314.81,2.73,5.10,2.73,5.10,-5.10,-5.12,-5.06,-2.38,-2.38,-2.37
317.96,2.73,5.09,2.72,5.09,-5.10,-5.17,-5.01,-2.38,-2.38,-2.36
321.14,2.73,5.09,2.72,5.08,-5.12,-5.22,-4.95,-2.39,-2.40,-2.36
324.35,2.73,5.09,2.74,5.10,-5.15,-5.27,-4.90,-2.42,-2.40,-2.36
327.59,2.77,5.11,2.79,5.14,-5.19,-5.31,-4.86,-2.42,-2.40,-2.34
330.87,2.91,5.24,2.87,5.22,-5.23,-5.36,-4.81,-2.33,-2.36,-2.34
334.18,2.96,5.30,2.98,5.31,-5.28,-5.41,-4.77,-2.32,-2.29,-2.34
337.52,3.09,5.41,3.08,5.40,-5.32,-5.45,-4.73,-2.23,-2.24,-2.32
340.90,3.17,5.47,3.15,5.45,-5.37,-5.49,-4.70,-2.20,-2.23,-2.30
344.30,3.19,5.47,3.18,5.46,-5.43,-5.53,-4.67,-2.24,-2.25,-2.28
347.75,3.19,5.45,3.18,5.44,-5.49,-5.58,-4.64,-2.31,-2.32,-2.26
351.23,3.19,5.43,3.22,5.47,-5.56,-5.62,-4.61,-2.37,-2.34,-2.24
354.74,3.29,5.51,3.31,5.54,-5.63,-5.66,-4.59,-2.34,-2.31,-2.23
358.28,3.51,5.71,3.47,5.67,-5.70,-5.71,-4.58,-2.19,-2.22,-2.20
361.87,3.62,5.80,3.64,5.82,-5.77,-5.75,-4.56,-2.15,-2.13,-2.18
365.49,3.81,5.96,3.77,5.93,-5.86,-5.80,-4.55,-2.05,-2.08,-2.15
369.14,3.86,6.00,3.83,5.97,-5.94,-5.85,-4.55,-2.08,-2.11,-2.14
372.83,3.87,5.99,3.90,6.02,-6.02,-5.90,-4.54,-2.15,-2.12,-2.12
376.56,3.92,6.02,3.96,6.05,-6.08,-5.95,-4.54,-2.17,-2.13,-2.10
380.33,4.07,6.14,4.03,6.10,-6.12,-6.00,-4.55,-2.06,-2.10,-2.07
384.13,4.10,6.15,4.09,6.15,-6.14,-6.05,-4.55,-2.05,-2.06,-2.05
387.97,4.10,6.15,4.11,6.16,-6.14,-6.08,-4.56,-2.05,-2.03,-2.06
391.85,4.10,6.14,4.11,6.15,-6.13,-6.11,-4.57,-2.04,-2.03,-2.05
395.77,4.10,6.12,4.11,6.14,-6.12,-6.12,-4.59,-2.02,-2.01,-2.03
399.73,4.10,6.12,4.07,6.09,-6.08,-6.11,-4.61,-1.98,-2.01,-2.02
403.72,4.02,6.03,4.00,6.01,-6.02,-6.08,-4.62,-2.00,-2.02,-2.01
407.76,3.90,5.90,3.95,5.95,-5.94,-6.03,-4.65,-2.05,-2.00,-2.00
411.84,3.87,5.86,3.87,5.86,-5.86,-5.96,-4.67,-1.99,-1.99,-1.99
415.96,3.87,5.85,3.81,5.79,-5.77,-5.88,-4.69,-1.90,-1.96,-1.98
420.12,3.69,5.66,3.72,5.69,-5.68,-5.79,-4.72,-1.99,-1.96,-1.97
424.32,3.62,5.59,3.60,5.57,-5.58,-5.69,-4.74,-1.96,-1.98,-1.97
428.56,3.48,5.44,3.49,5.46,-5.49,-5.59,-4.77,-2.01,-2.00,-1.96
432.85,3.42,5.38,3.45,5.41,-5.42,-5.49,-4.79,-2.00,-1.96,-1.96
437.18,3.42,5.37,3.41,5.36,-5.36,-5.40,-4.82,-1.94,-1.95,-1.95
441.55,3.42,5.36,3.34,5.28,-5.31,-5.30,-4.84,-1.90,-1.98,-1.94
445.96,3.26,5.19,3.29,5.23,-5.27,-5.21,-4.87,-2.02,-1.98,-1.93
450.42,3.19,5.12,3.29,5.22,-5.24,-5.12,-4.89,-2.05,-1.95,-1.93
454.93,3.37,5.28,3.32,5.24,-5.22,-5.04,-4.91,-1.85,-1.90,-1.91
459.48,3.42,5.33,3.35,5.26,-5.20,-4.96,-4.92,-1.78,-1.85,-1.92
464.07,3.32,5.21,3.33,5.23,-5.18,-4.89,-4.94,-1.86,-1.85,-1.90
468.71,3.22,5.09,3.25,5.13,-5.16,-4.81,-4.95,-1.94,-1.91,-1.88
473.40,3.19,5.06,3.19,5.06,-5.12,-4.74,-4.95,-1.94,-1.93,-1.88
478.13,3.19,5.04,3.19,5.05,-5.07,-4.68,-4.95,-1.89,-1.89,-1.86
