frequency,raw,error,smoothed,error_smoothed,equalization,parametric_eq,fixed_band_eq,equalized_raw,equalized_smoothed,target
20.00,10.67,4.16,10.67,4.16,-4.16,-4.07,-1.66,6.51,6.51,6.51
20.20,10.67,4.18,10.67,4.18,-4.19,-4.10,-1.71,6.49,6.48,6.49
20.40,10.66,4.20,10.67,4.21,-4.21,-4.13,-1.76,6.45,6.46,6.46
20.61,10.67,4.23,10.67,4.23,-4.23,-4.15,-1.81,6.44,6.44,6.44
20.81,10.67,4.25,10.67,4.25,-4.25,-4.17,-1.87,6.42,6.42,6.42
21.02,10.66,4.27,10.67,4.27,-4.27,-4.19,-1.92,6.39,6.40,6.39
21.23,10.66,4.29,10.66,4.29,-4.28,-4.21,-1.98,6.38,6.38,6.37
21.44,10.65,4.30,10.65,4.30,-4.30,-4.23,-2.04,6.35,6.35,6.35
21.66,10.64,4.31,10.64,4.31,-4.31,-4.24,-2.10,6.33,6.33,6.33
21.87,10.62,4.31,10.63,4.32,-4.32,-4.25,-2.16,6.30,6.31,6.31
22.09,10.61,4.32,10.61,4.32,-4.33,-4.26,-2.22,6.28,6.28,6.29
22.31,10.59,4.32,10.59,4.33,-4.33,-4.27,-2.29,6.26,6.26,6.27
22.54,10.57,4.33,10.58,4.34,-4.34,-4.27,-2.35,6.23,6.24,6.24
22.76,10.56,4.34,10.56,4.34,-4.34,-4.28,-2.42,6.22,6.22,6.22
22.99,10.54,4.35,10.54,4.35,-4.34,-4.28,-2.49,6.20,6.20,6.20
23.22,10.52,4.35,10.52,4.34,-4.34,-4.27,-2.56,6.18,6.18,6.18
23.45,10.50,4.34,10.50,4.34,-4.34,-4.27,-2.64,6.16,6.16,6.17
23.69,10.48,4.34,10.48,4.34,-4.33,-4.26,-2.71,6.15,6.15,6.15
23.92,10.46,4.33,10.46,4.33,-4.32,-4.25,-2.79,6.14,6.14,6.13
24.16,10.43,4.32,10.43,4.31,-4.31,-4.24,-2.86,6.12,6.12,6.11
24.40,10.39,4.29,10.40,4.29,-4.29,-4.23,-2.94,6.10,6.10,6.10
24.65,10.36,4.27,10.36,4.27,-4.28,-4.21,-3.02,6.09,6.09,6.09
24.89,10.33,4.26,10.33,4.25,-4.26,-4.19,-3.10,6.07,6.07,6.07
25.14,10.30,4.24,10.30,4.24,-4.24,-4.17,-3.18,6.06,6.06,6.06
25.39,10.27,4.22,10.27,4.22,-4.22,-4.15,-3.27,6.06,6.05,6.05
25.65,10.23,4.19,10.24,4.19,-4.19,-4.13,-3.35,6.04,6.04,6.04
25.91,10.20,4.17,10.20,4.17,-4.17,-4.10,-3.43,6.03,6.03,6.03
26.16,10.16,4.14,10.16,4.14,-4.15,-4.08,-3.51,6.01,6.01,6.02
26.43,10.12,4.12,10.13,4.12,-4.12,-4.05,-3.59,6.00,6.00,6.00
26.69,10.09,4.10,10.09,4.10,-4.10,-4.02,-3.67,6.00,5.99,5.99
26.96,10.05,4.07,10.05,4.07,-4.07,-3.98,-3.75,5.98,5.98,5.98
27.23,10.01,4.04,10.01,4.04,-4.04,-3.95,-3.83,5.97,5.97,5.97
27.50,9.96,4.00,9.97,4.01,-4.01,-3.92,-3.90,5.95,5.96,5.96
27.77,9.92,3.96,9.92,3.97,-3.97,-3.88,-3.97,5.95,5.95,5.96
28.05,9.89,3.95,9.88,3.94,-3.94,-3.84,-4.04,5.95,5.95,5.95
28.33,9.84,3.91,9.84,3.91,-3.90,-3.81,-4.11,5.94,5.94,5.93
28.62,9.80,3.87,9.80,3.87,-3.87,-3.77,-4.17,5.93,5.93,5.93
28.90,9.75,3.83,9.75,3.83,-3.83,-3.73,-4.22,5.92,5.92,5.92
29.19,9.71,3.79,9.71,3.79,-3.79,-3.69,-4.27,5.92,5.92,5.92
29.48,9.67,3.76,9.67,3.76,-3.76,-3.65,-4.32,5.91,5.91,5.91
29.78,9.63,3.72,9.63,3.72,-3.72,-3.60,-4.36,5.91,5.91,5.91
30.08,9.59,3.69,9.59,3.69,-3.69,-3.56,-4.39,5.91,5.90,5.90
30.38,9.54,3.64,9.55,3.65,-3.65,-3.52,-4.42,5.89,5.90,5.90
30.68,9.50,3.61,9.50,3.61,-3.62,-3.48,-4.44,5.89,5.89,5.89
30.99,9.46,3.59,9.46,3.58,-3.58,-3.43,-4.45,5.88,5.88,5.88
31.30,9.41,3.54,9.42,3.55,-3.54,-3.39,-4.46,5.87,5.87,5.87
31.61,9.37,3.51,9.37,3.51,-3.50,-3.35,-4.46,5.87,5.87,5.86
31.93,9.32,3.47,9.32,3.47,-3.47,-3.30,-4.45,5.86,5.86,5.85
32.24,9.27,3.42,9.27,3.43,-3.43,-3.26,-4.44,5.84,5.85,5.85
32.57,9.23,3.39,9.23,3.39,-3.39,-3.22,-4.42,5.84,5.84,5.84
32.89,9.17,3.34,9.18,3.35,-3.35,-3.17,-4.40,5.82,5.83,5.83
33.22,9.13,3.31,9.13,3.31,-3.31,-3.13,-4.36,5.82,5.81,5.82
33.55,9.08,3.28,9.08,3.28,-3.28,-3.09,-4.33,5.80,5.80,5.80
33.89,9.03,3.24,9.03,3.24,-3.24,-3.05,-4.28,5.79,5.80,5.79
34.23,8.98,3.20,8.98,3.20,-3.20,-3.00,-4.24,5.78,5.79,5.78
34.57,8.94,3.16,8.94,3.16,-3.16,-2.96,-4.18,5.79,5.78,5.78
34.92,8.88,3.11,8.89,3.12,-3.11,-2.92,-4.13,5.77,5.77,5.77
35.27,8.83,3.08,8.83,3.07,-3.07,-2.88,-4.07,5.76,5.76,5.76
35.62,8.77,3.02,8.77,3.02,-3.02,-2.84,-4.01,5.75,5.75,5.75
35.97,8.71,2.97,8.71,2.97,-2.97,-2.80,-3.95,5.74,5.74,5.74
36.33,8.66,2.92,8.66,2.92,-2.93,-2.76,-3.88,5.73,5.73,5.74
36.70,8.60,2.87,8.60,2.88,-2.88,-2.72,-3.81,5.72,5.73,5.73
37.06,8.55,2.84,8.55,2.83,-2.83,-2.69,-3.74,5.72,5.72,5.71
37.43,8.49,2.78,8.49,2.78,-2.78,-2.65,-3.67,5.71,5.71,5.71
37.81,8.43,2.73,8.44,2.73,-2.73,-2.61,-3.61,5.70,5.71,5.70
38.19,8.38,2.68,8.38,2.68,-2.68,-2.58,-3.54,5.70,5.70,5.70
38.57,8.32,2.64,8.32,2.64,-2.63,-2.54,-3.47,5.69,5.69,5.68
38.95,8.26,2.58,8.26,2.58,-2.59,-2.51,-3.40,5.68,5.68,5.68
39.34,8.21,2.54,8.21,2.54,-2.54,-2.48,-3.33,5.67,5.67,5.67
39.74,8.15,2.49,8.15,2.49,-2.49,-2.45,-3.26,5.66,5.66,5.67
40.14,8.10,2.45,8.10,2.45,-2.45,-2.42,-3.20,5.65,5.65,5.65
40.54,8.05,2.40,8.05,2.41,-2.41,-2.39,-3.13,5.64,5.65,5.65
40.94,8.01,2.38,8.01,2.37,-2.37,-2.36,-3.07,5.64,5.64,5.64
41.35,7.96,2.33,7.96,2.33,-2.33,-2.33,-3.01,5.63,5.63,5.63
41.76,7.92,2.30,7.92,2.30,-2.30,-2.30,-2.95,5.62,5.62,5.62
42.18,7.88,2.27,7.88,2.27,-2.27,-2.27,-2.89,5.61,5.61,5.61
42.60,7.84,2.24,7.84,2.24,-2.24,-2.25,-2.83,5.60,5.60,5.60
43.03,7.80,2.21,7.80,2.21,-2.21,-2.22,-2.78,5.59,5.59,5.60
43.46,7.77,2.19,7.77,2.19,-2.19,-2.20,-2.72,5.58,5.58,5.58
43.90,7.75,2.17,7.75,2.17,-2.17,-2.18,-2.67,5.58,5.58,5.58
44.33,7.72,2.15,7.72,2.15,-2.15,-2.16,-2.62,5.57,5.57,5.57
44.78,7.69,2.13,7.70,2.14,-2.14,-2.14,-2.58,5.55,5.56,5.56
45.23,7.68,2.13,7.68,2.13,-2.13,-2.12,-2.53,5.56,5.55,5.55
45.68,7.66,2.11,7.66,2.12,-2.11,-2.10,-2.49,5.55,5.55,5.55
46.13,7.65,2.11,7.65,2.11,-2.11,-2.08,-2.45,5.55,5.54,5.54
46.60,7.63,2.10,7.63,2.10,-2.10,-2.07,-2.41,5.53,5.54,5.54
47.06,7.62,2.09,7.62,2.09,-2.09,-2.05,-2.37,5.53,5.53,5.53
47.53,7.61,2.09,7.61,2.09,-2.09,-2.04,-2.34,5.53,5.52,5.52
48.01,7.60,2.08,7.60,2.08,-2.08,-2.03,-2.30,5.52,5.52,5.52
48.49,7.59,2.08,7.59,2.08,-2.08,-2.01,-2.27,5.51,5.51,5.51
48.97,7.58,2.08,7.58,2.08,-2.08,-2.00,-2.24,5.50,5.50,5.50
49.46,7.57,2.07,7.57,2.08,-2.08,-2.00,-2.22,5.49,5.49,5.50
49.96,7.56,2.07,7.57,2.08,-2.08,-1.99,-2.19,5.48,5.49,5.49
50.46,7.57,2.09,7.56,2.08,-2.08,-1.98,-2.17,5.49,5.48,5.48
50.96,7.56,2.09,7.56,2.09,-2.08,-1.98,-2.15,5.48,5.48,5.47
51.47,7.55,2.09,7.55,2.09,-2.09,-1.97,-2.13,5.47,5.47,5.47
51.99,7.54,2.08,7.54,2.09,-2.09,-1.97,-2.11,5.45,5.45,5.46
52.51,7.54,2.09,7.54,2.09,-2.09,-1.97,-2.09,5.45,5.45,5.45
53.03,7.53,2.09,7.54,2.10,-2.10,-1.97,-2.08,5.44,5.44,5.44
53.56,7.53,2.10,7.53,2.10,-2.10,-1.97,-2.06,5.43,5.43,5.43
54.10,7.53,2.11,7.52,2.10,-2.10,-1.97,-2.05,5.43,5.42,5.42
54.64,7.51,2.10,7.52,2.11,-2.11,-1.98,-2.04,5.41,5.41,5.41
55.18,7.51,2.11,7.51,2.11,-2.11,-1.98,-2.04,5.40,5.40,5.40
55.74,7.50,2.11,7.50,2.11,-2.11,-1.99,-2.03,5.39,5.38,5.39
56.29,7.49,2.11,7.50,2.12,-2.12,-2.00,-2.03,5.37,5.38,5.38
56.86,7.49,2.13,7.49,2.12,-2.12,-2.01,-2.03,5.37,5.37,5.37
57.42,7.49,2.14,7.49,2.13,-2.13,-2.02,-2.03,5.37,5.36,5.35
58.00,7.48,2.13,7.48,2.13,-2.13,-2.04,-2.03,5.35,5.35,5.35
58.58,7.47,2.13,7.47,2.14,-2.14,-2.05,-2.03,5.33,5.34,5.34
59.16,7.47,2.15,7.47,2.14,-2.14,-2.07,-2.04,5.33,5.33,5.33
59.76,7.46,2.15,7.47,2.15,-2.15,-2.08,-2.05,5.31,5.31,5.31
60.35,7.47,2.16,7.46,2.16,-2.16,-2.10,-2.06,5.31,5.30,5.31
60.96,7.46,2.17,7.46,2.17,-2.17,-2.12,-2.07,5.29,5.29,5.29
61.57,7.46,2.18,7.47,2.19,-2.19,-2.15,-2.08,5.27,5.28,5.28
62.18,7.47,2.21,7.47,2.20,-2.20,-2.17,-2.09,5.27,5.27,5.26
62.80,7.47,2.22,7.47,2.22,-2.22,-2.20,-2.11,5.25,5.25,5.25
63.43,7.48,2.24,7.48,2.24,-2.24,-2.22,-2.13,5.24,5.24,5.24
64.07,7.48,2.26,7.48,2.26,-2.26,-2.25,-2.15,5.22,5.22,5.22
64.71,7.49,2.29,7.49,2.28,-2.28,-2.28,-2.17,5.21,5.20,5.21
65.35,7.49,2.30,7.49,2.30,-2.31,-2.31,-2.20,5.18,5.18,5.19
66.01,7.50,2.33,7.51,2.34,-2.34,-2.35,-2.22,5.16,5.17,5.17
66.67,7.52,2.37,7.52,2.37,-2.37,-2.38,-2.25,5.15,5.15,5.15
67.33,7.54,2.41,7.54,2.41,-2.40,-2.42,-2.28,5.14,5.14,5.13
68.01,7.55,2.44,7.55,2.44,-2.44,-2.46,-2.32,5.11,5.11,5.11
68.69,7.56,2.47,7.57,2.47,-2.47,-2.50,-2.35,5.09,5.09,5.09
69.37,7.58,2.51,7.58,2.51,-2.51,-2.55,-2.39,5.07,5.07,5.07
70.07,7.60,2.55,7.60,2.55,-2.55,-2.59,-2.43,5.05,5.05,5.05
70.77,7.62,2.60,7.62,2.60,-2.60,-2.64,-2.47,5.03,5.02,5.02
71.48,7.64,2.64,7.64,2.64,-2.64,-2.68,-2.51,5.00,5.00,5.00
72.19,7.66,2.68,7.66,2.69,-2.69,-2.73,-2.56,4.98,4.98,4.98
72.91,7.69,2.74,7.69,2.74,-2.73,-2.79,-2.60,4.96,4.95,4.95
73.64,7.71,2.79,7.71,2.79,-2.79,-2.84,-2.65,4.93,4.92,4.92
74.38,7.73,2.84,7.74,2.84,-2.84,-2.90,-2.70,4.89,4.90,4.89
75.12,7.76,2.89,7.76,2.90,-2.90,-2.95,-2.76,4.86,4.86,4.87
75.87,7.79,2.96,7.79,2.95,-2.96,-3.01,-2.82,4.83,4.83,4.83
76.63,7.82,3.02,7.82,3.02,-3.02,-3.08,-2.88,4.80,4.80,4.80
77.40,7.85,3.09,7.85,3.09,-3.09,-3.14,-2.94,4.76,4.76,4.77
78.17,7.89,3.16,7.89,3.16,-3.16,-3.21,-3.00,4.73,4.73,4.73
78.95,7.93,3.24,7.93,3.24,-3.24,-3.27,-3.07,4.69,4.69,4.69
79.74,7.97,3.32,7.97,3.32,-3.32,-3.34,-3.14,4.65,4.65,4.65
80.54,8.01,3.40,8.01,3.41,-3.41,-3.41,-3.21,4.61,4.61,4.61
81.35,8.06,3.49,8.06,3.49,-3.49,-3.49,-3.28,4.57,4.57,4.57
82.16,8.11,3.58,8.11,3.58,-3.59,-3.56,-3.36,4.53,4.53,4.53
82.98,8.16,3.68,8.16,3.68,-3.68,-3.64,-3.44,4.48,4.48,4.49
83.81,8.22,3.78,8.22,3.78,-3.78,-3.72,-3.52,4.45,4.44,4.44
84.65,8.27,3.88,8.27,3.88,-3.88,-3.80,-3.61,4.39,4.40,4.39
85.50,8.33,3.98,8.33,3.98,-3.98,-3.89,-3.70,4.35,4.35,4.35
86.35,8.39,4.08,8.39,4.08,-4.08,-3.97,-3.79,4.31,4.31,4.31
87.22,8.45,4.18,8.46,4.19,-4.19,-4.06,-3.88,4.26,4.26,4.27
88.09,8.52,4.30,8.52,4.30,-4.30,-4.15,-3.98,4.22,4.22,4.22
88.97,8.59,4.41,8.59,4.41,-4.41,-4.24,-4.08,4.19,4.18,4.18
89.86,8.65,4.52,8.65,4.52,-4.51,-4.34,-4.19,4.14,4.14,4.13
90.76,8.72,4.62,8.72,4.63,-4.62,-4.43,-4.29,4.10,4.10,4.10
91.66,8.78,4.73,8.78,4.73,-4.73,-4.53,-4.40,4.05,4.05,4.05
92.58,8.85,4.84,8.85,4.84,-4.84,-4.63,-4.51,4.01,4.01,4.01
93.51,8.91,4.95,8.91,4.95,-4.95,-4.73,-4.63,3.96,3.97,3.97
94.44,8.98,5.05,8.98,5.05,-5.05,-4.84,-4.75,3.93,3.93,3.93
95.39,9.04,5.16,9.04,5.16,-5.16,-4.94,-4.87,3.89,3.88,3.88
96.34,9.10,5.26,9.10,5.26,-5.26,-5.04,-4.99,3.84,3.84,3.84
97.30,9.15,5.36,9.15,5.36,-5.36,-5.15,-5.12,3.79,3.80,3.79
98.28,9.21,5.46,9.21,5.45,-5.46,-5.26,-5.24,3.76,3.75,3.75
99.26,9.25,5.55,9.25,5.55,-5.55,-5.36,-5.37,3.70,3.70,3.71
100.25,9.30,5.64,9.30,5.64,-5.64,-5.47,-5.51,3.66,3.66,3.66
101.25,9.34,5.73,9.34,5.73,-5.74,-5.58,-5.64,3.61,3.61,3.61
102.27,9.38,5.82,9.38,5.82,-5.82,-5.68,-5.77,3.56,3.56,3.56
103.29,9.42,5.91,9.42,5.91,-5.91,-5.79,-5.91,3.51,3.51,3.51
104.32,9.45,5.99,9.45,5.99,-5.99,-5.89,-6.04,3.46,3.46,3.46
105.37,9.48,6.07,9.48,6.07,-6.07,-6.00,-6.18,3.41,3.41,3.41
106.42,9.50,6.14,9.50,6.14,-6.14,-6.09,-6.31,3.36,3.36,3.36
107.48,9.52,6.21,9.52,6.21,-6.21,-6.19,-6.44,3.31,3.31,3.31
108.56,9.54,6.28,9.54,6.28,-6.28,-6.28,-6.57,3.26,3.26,3.26
109.64,9.56,6.35,9.56,6.35,-6.35,-6.37,-6.70,3.22,3.21,3.21
110.74,9.57,6.41,9.57,6.41,-6.41,-6.45,-6.82,3.17,3.17,3.16
111.85,9.58,6.47,9.58,6.46,-6.46,-6.53,-6.93,3.12,3.12,3.12
112.97,9.58,6.52,9.58,6.51,-6.52,-6.60,-7.04,3.07,3.06,3.07
114.10,9.57,6.55,9.58,6.56,-6.56,-6.66,-7.15,3.01,3.02,3.02
115.24,9.58,6.61,9.58,6.61,-6.61,-6.72,-7.24,2.98,2.97,2.97
116.39,9.57,6.65,9.57,6.65,-6.64,-6.77,-7.33,2.93,2.92,2.92
117.55,9.55,6.68,9.55,6.68,-6.68,-6.81,-7.41,2.87,2.88,2.87
118.73,9.53,6.70,9.53,6.70,-6.70,-6.84,-7.47,2.83,2.83,2.83
119.92,9.51,6.72,9.51,6.73,-6.73,-6.86,-7.53,2.78,2.79,2.79
121.12,9.49,6.75,9.49,6.74,-6.74,-6.87,-7.57,2.75,2.74,2.74
122.33,9.46,6.76,9.46,6.76,-6.76,-6.88,-7.59,2.71,2.70,2.71
123.55,9.42,6.76,9.43,6.76,-6.76,-6.87,-7.61,2.66,2.66,2.66
124.79,9.39,6.77,9.39,6.77,-6.76,-6.86,-7.61,2.63,2.62,2.63
126.03,9.34,6.76,9.34,6.76,-6.76,-6.84,-7.59,2.58,2.58,2.58
127.29,9.30,6.76,9.30,6.75,-6.75,-6.81,-7.56,2.55,2.54,2.55
128.57,9.24,6.73,9.25,6.74,-6.74,-6.77,-7.52,2.50,2.51,2.51
129.85,9.20,6.73,9.19,6.72,-6.72,-6.73,-7.46,2.48,2.47,2.47
131.15,9.13,6.70,9.13,6.70,-6.70,-6.68,-7.39,2.43,2.44,2.44
132.46,9.07,6.67,9.07,6.67,-6.67,-6.62,-7.31,2.40,2.41,2.40
133.79,9.00,6.63,9.00,6.63,-6.63,-6.56,-7.21,2.37,2.37,2.37
135.12,8.93,6.59,8.93,6.59,-6.59,-6.49,-7.11,2.34,2.34,2.34
136.48,8.85,6.54,8.85,6.54,-6.54,-6.42,-7.00,2.31,2.31,2.31
137.84,8.77,6.48,8.77,6.49,-6.49,-6.35,-6.87,2.28,2.28,2.29
139.22,8.69,6.43,8.69,6.43,-6.43,-6.27,-6.74,2.26,2.26,2.26
140.61,8.60,6.37,8.60,6.37,-6.37,-6.19,-6.61,2.23,2.23,2.23
142.02,8.52,6.31,8.52,6.31,-6.31,-6.11,-6.46,2.22,2.21,2.21
143.44,8.42,6.23,8.43,6.24,-6.24,-6.03,-6.32,2.18,2.19,2.19
144.87,8.33,6.17,8.33,6.16,-6.16,-5.94,-6.17,2.17,2.17,2.17
146.32,8.24,6.09,8.24,6.09,-6.09,-5.85,-6.01,2.15,2.15,2.15
147.78,8.13,6.00,8.14,6.01,-6.01,-5.77,-5.86,2.12,2.13,2.13
149.26,8.04,5.93,8.04,5.93,-5.93,-5.68,-5.70,2.12,2.11,2.11
150.75,7.93,5.84,7.93,5.84,-5.84,-5.59,-5.54,2.09,2.09,2.09
152.26,7.82,5.74,7.83,5.75,-5.75,-5.50,-5.38,2.07,2.08,2.08
153.78,7.72,5.66,7.72,5.65,-5.65,-5.41,-5.22,2.07,2.07,2.06
155.32,7.61,5.56,7.61,5.56,-5.56,-5.31,-5.06,2.06,2.05,2.05
156.88,7.49,5.45,7.49,5.46,-5.46,-5.22,-4.91,2.04,2.04,2.04
158.44,7.37,5.35,7.38,5.35,-5.35,-5.13,-4.75,2.02,2.02,2.03
160.03,7.26,5.25,7.26,5.24,-5.25,-5.04,-4.59,2.01,2.01,2.01
161.63,7.14,5.14,7.14,5.14,-5.14,-4.95,-4.44,2.00,2.00,2.00
163.24,7.02,5.03,7.02,5.03,-5.03,-4.85,-4.29,1.99,2.00,1.99
164.88,6.90,4.92,6.90,4.92,-4.92,-4.76,-4.14,1.99,1.99,1.98
166.53,6.78,4.81,6.78,4.80,-4.80,-4.67,-3.99,1.98,1.97,1.97
168.19,6.65,4.69,6.65,4.69,-4.69,-4.58,-3.85,1.96,1.96,1.97
169.87,6.52,4.56,6.52,4.57,-4.57,-4.48,-3.71,1.95,1.95,1.96
171.57,6.40,4.46,6.40,4.45,-4.45,-4.39,-3.57,1.95,1.94,1.94
173.29,6.26,4.33,6.27,4.33,-4.33,-4.30,-3.43,1.93,1.93,1.93
175.02,6.14,4.22,6.14,4.21,-4.21,-4.20,-3.29,1.93,1.92,1.93
176.77,6.00,4.09,6.00,4.09,-4.09,-4.11,-3.16,1.91,1.91,1.91
178.54,5.87,3.97,5.87,3.97,-3.97,-4.01,-3.03,1.90,1.90,1.90
180.32,5.73,3.84,5.73,3.84,-3.84,-3.92,-2.90,1.89,1.89,1.89
182.13,5.59,3.72,5.59,3.71,-3.72,-3.82,-2.78,1.88,1.87,1.87
183.95,5.44,3.58,5.45,3.59,-3.59,-3.72,-2.65,1.85,1.86,1.86
185.79,5.31,3.47,5.31,3.46,-3.46,-3.62,-2.53,1.85,1.85,1.85
187.65,5.17,3.34,5.16,3.33,-3.33,-3.52,-2.41,1.84,1.83,1.83
189.52,5.01,3.19,5.02,3.20,-3.20,-3.42,-2.30,1.81,1.82,1.82
191.42,4.88,3.07,4.88,3.07,-3.07,-3.32,-2.18,1.81,1.81,1.81
193.33,4.74,2.95,4.74,2.94,-2.95,-3.22,-2.07,1.79,1.79,1.80
195.27,4.60,2.82,4.60,2.82,-2.82,-3.12,-1.96,1.78,1.78,1.78
197.22,4.46,2.70,4.47,2.70,-2.70,-3.02,-1.85,1.76,1.77,1.76
199.19,4.33,2.58,4.33,2.58,-2.58,-2.91,-1.74,1.75,1.75,1.75
201.18,4.20,2.47,4.20,2.46,-2.46,-2.81,-1.64,1.74,1.73,1.73
203.19,4.06,2.34,4.07,2.35,-2.35,-2.70,-1.53,1.71,1.72,1.72
205.23,3.93,2.23,3.93,2.23,-2.23,-2.59,-1.43,1.70,1.70,1.70
207.28,3.81,2.12,3.81,2.12,-2.12,-2.48,-1.33,1.69,1.69,1.69
209.35,3.68,2.01,3.68,2.01,-2.01,-2.37,-1.24,1.67,1.67,1.67
211.44,3.56,1.91,3.56,1.90,-1.90,-2.26,-1.14,1.66,1.66,1.65
213.56,3.43,1.79,3.43,1.79,-1.79,-2.15,-1.05,1.65,1.64,1.65
215.69,3.30,1.67,3.30,1.67,-1.67,-2.04,-0.95,1.63,1.63,1.63
217.85,3.17,1.55,3.17,1.56,-1.56,-1.92,-0.86,1.61,1.61,1.62
220.03,3.05,1.45,3.05,1.45,-1.45,-1.81,-0.77,1.61,1.60,1.60
222.23,2.92,1.33,2.92,1.33,-1.33,-1.69,-0.69,1.59,1.59,1.59
224.45,2.80,1.21,2.80,1.21,-1.21,-1.57,-0.60,1.59,1.59,1.59
226.70,2.67,1.09,2.67,1.09,-1.09,-1.45,-0.52,1.58,1.58,1.58
228.96,2.55,0.98,2.55,0.98,-0.97,-1.33,-0.43,1.58,1.57,1.57
231.25,2.42,0.85,2.42,0.85,-0.86,-1.21,-0.35,1.57,1.57,1.57
233.57,2.30,0.73,2.30,0.74,-0.74,-1.09,-0.27,1.56,1.57,1.57
235.90,2.18,0.62,2.18,0.62,-0.62,-0.96,-0.20,1.56,1.56,1.56
238.26,2.07,0.50,2.07,0.50,-0.50,-0.84,-0.12,1.57,1.57,1.57
240.64,1.95,0.38,1.95,0.38,-0.38,-0.71,-0.04,1.57,1.57,1.57
243.05,1.84,0.27,1.84,0.27,-0.27,-0.58,0.03,1.58,1.57,1.57
245.48,1.72,0.15,1.72,0.15,-0.15,-0.45,0.10,1.57,1.57,1.57
247.93,1.61,0.03,1.61,0.04,-0.03,-0.33,0.17,1.58,1.58,1.58
250.41,1.50,-0.08,1.50,-0.08,0.08,-0.19,0.24,1.58,1.58,1.58
252.92,1.39,-0.19,1.39,-0.19,0.19,-0.06,0.30,1.58,1.58,1.58
255.45,1.28,-0.30,1.28,-0.30,0.30,0.07,0.37,1.58,1.58,1.58
258.00,1.17,-0.42,1.17,-0.41,0.41,0.20,0.43,1.58,1.58,1.59
260.58,1.07,-0.51,1.07,-0.52,0.52,0.34,0.50,1.59,1.58,1.59
263.19,0.96,-0.62,0.96,-0.62,0.62,0.47,0.56,1.58,1.58,1.58
265.82,0.86,-0.73,0.86,-0.72,0.72,0.61,0.62,1.58,1.59,1.59
268.48,0.76,-0.82,0.76,-0.82,0.83,0.74,0.68,1.59,1.59,1.58
271.16,0.66,-0.92,0.66,-0.92,0.93,0.88,0.74,1.59,1.58,1.58
273.87,0.55,-1.03,0.55,-1.03,1.03,1.02,0.80,1.58,1.58,1.58
276.61,0.45,-1.13,0.45,-1.13,1.13,1.15,0.86,1.58,1.58,1.58
279.38,0.35,-1.23,0.35,-1.23,1.23,1.29,0.92,1.58,1.58,1.58
282.17,0.25,-1.33,0.25,-1.33,1.33,1.43,0.97,1.58,1.58,1.58
284.99,0.15,-1.43,0.15,-1.43,1.43,1.57,1.03,1.58,1.58,1.58
287.84,0.05,-1.53,0.05,-1.53,1.53,1.70,1.09,1.58,1.59,1.58
290.72,-0.04,-1.63,-0.05,-1.63,1.63,1.84,1.15,1.59,1.59,1.59
293.63,-0.15,-1.74,-0.15,-1.73,1.74,1.98,1.21,1.59,1.59,1.59
296.57,-0.25,-1.84,-0.25,-1.84,1.84,2.11,1.27,1.59,1.59,1.59
299.53,-0.35,-1.94,-0.35,-1.94,1.94,2.25,1.33,1.59,1.59,1.59
302.53,-0.45,-2.05,-0.45,-2.05,2.05,2.38,1.39,1.60,1.60,1.60
305.55,-0.55,-2.16,-0.55,-2.15,2.16,2.52,1.45,1.61,1.61,1.61
308.61,-0.65,-2.26,-0.65,-2.26,2.26,2.65,1.51,1.62,1.61,1.62
311.69,-0.75,-2.37,-0.75,-2.37,2.37,2.78,1.58,1.62,1.62,1.62
314.81,-0.85,-2.48,-0.85,-2.48,2.48,2.91,1.64,1.63,1.63,1.63
317.96,-0.95,-2.59,-0.95,-2.59,2.59,3.04,1.71,1.64,1.64,1.64
321.14,-1.05,-2.70,-1.05,-2.70,2.70,3.17,1.78,1.65,1.65,1.65
324.35,-1.16,-2.81,-1.16,-2.81,2.81,3.29,1.84,1.65,1.65,1.66
327.59,-1.26,-2.92,-1.26,-2.92,2.92,3.41,1.92,1.66,1.66,1.66
330.87,-1.36,-3.02,-1.36,-3.02,3.02,3.53,1.99,1.66,1.66,1.66
334.18,-1.46,-3.13,-1.46,-3.13,3.13,3.65,2.06,1.67,1.67,1.67
337.52,-1.56,-3.23,-1.56,-3.23,3.23,3.76,2.14,1.68,1.68,1.67
340.90,-1.66,-3.34,-1.66,-3.34,3.34,3.87,2.22,1.68,1.68,1.68
344.30,-1.77,-3.45,-1.76,-3.44,3.44,3.98,2.30,1.67,1.68,1.68
347.75,-1.87,-3.54,-1.87,-3.55,3.54,4.08,2.38,1.67,1.67,1.68
351.23,-1.97,-3.64,-1.97,-3.65,3.64,4.18,2.46,1.67,1.67,1.67
354.74,-2.08,-3.75,-2.07,-3.74,3.74,4.28,2.55,1.66,1.67,1.67
358.28,-2.18,-3.84,-2.18,-3.84,3.84,4.37,2.64,1.67,1.67,1.66
361.87,-2.28,-3.94,-2.28,-3.94,3.95,4.46,2.73,1.67,1.66,1.66
365.49,-2.39,-4.05,-2.39,-4.04,4.05,4.54,2.82,1.66,1.66,1.66
369.14,-2.49,-4.15,-2.49,-4.15,4.15,4.62,2.91,1.67,1.66,1.66
372.83,-2.60,-4.26,-2.60,-4.26,4.26,4.69,3.01,1.66,1.66,1.66
376.56,-2.70,-4.37,-2.70,-4.37,4.37,4.76,3.10,1.67,1.67,1.67
380.33,-2.82,-4.48,-2.81,-4.48,4.48,4.83,3.20,1.66,1.67,1.67
384.13,-2.92,-4.58,-2.92,-4.59,4.59,4.89,3.31,1.67,1.67,1.66
387.97,-3.03,-4.70,-3.03,-4.70,4.70,4.94,3.41,1.67,1.67,1.67
391.85,-3.13,-4.80,-3.13,-4.80,4.81,4.99,3.51,1.68,1.68,1.67
395.77,-3.23,-4.91,-3.23,-4.91,4.91,5.04,3.62,1.68,1.68,1.68
399.73,-3.31,-5.00,-3.31,-5.00,5.00,5.08,3.73,1.69,1.69,1.69
403.72,-3.40,-5.09,-3.40,-5.09,5.09,5.11,3.83,1.69,1.69,1.69
407.76,-3.47,-5.17,-3.47,-5.17,5.17,5.14,3.94,1.70,1.70,1.70
411.84,-3.54,-5.25,-3.53,-5.24,5.24,5.17,4.05,1.70,1.70,1.71
415.96,-3.58,-5.30,-3.58,-5.30,5.29,5.19,4.16,1.71,1.71,1.72
420.12,-3.62,-5.34,-3.62,-5.34,5.34,5.20,4.27,1.72,1.72,1.72
424.32,-3.64,-5.37,-3.64,-5.37,5.36,5.21,4.37,1.73,1.73,1.73
428.56,-3.65,-5.39,-3.65,-5.38,5.38,5.22,4.48,1.73,1.73,1.74
432.85,-3.64,-5.39,-3.64,-5.39,5.38,5.22,4.58,1.74,1.74,1.75
437.18,-3.62,-5.37,-3.62,-5.37,5.37,5.22,4.68,1.75,1.75,1.76
441.55,-3.58,-5.34,-3.58,-5.35,5.35,5.21,4.78,1.77,1.77,1.77
445.96,-3.54,-5.31,-3.54,-5.31,5.31,5.20,4.88,1.77,1.78,1.78
450.42,-3.48,-5.26,-3.48,-5.27,5.27,5.19,4.97,1.79,1.79,1.78
454.93,-3.43,-5.22,-3.43,-5.22,5.22,5.17,5.05,1.79,1.79,1.79
459.48,-3.36,-5.16,-3.36,-5.16,5.16,5.15,5.14,1.80,1.80,1.80
464.07,-3.29,-5.10,-3.29,-5.10,5.10,5.13,5.21,1.81,1.81,1.81
468.71,-3.21,-5.03,-3.21,-5.03,5.03,5.10,5.28,1.82,1.82,1.82
473.40,-3.13,-4.96,-3.13,-4.96,4.96,5.07,5.34,1.83,1.83,1.83
478.13,-3.04,-4.88,-3.05,-4.89,4.89,5.04,5.39,1.85,1.85,1.84
482.91,-2.97,-4.83,-2.96,-4.82,4.82,5.00,5.44,1.85,1.86,1.86
487.74,-2.88,-4.75,-2.88,-4.75,4.75,4.97,5.48,1.87,1.87,1.87
492.62,-2.79,-4.68,-2.79,-4.68,4.68,4.93,5.51,1.89,1.89,1.89
497.55,-2.71,-4.61,-2.71,-4.61,4.62,4.89,5.53,1.91,1.91,1.90
502.52,-2.64,-4.56,-2.64,-4.56,4.56,4.85,5.54,1.92,1.92,1.92
507.55,-2.57,-4.51,-2.57,-4.50,4.50,4.80,5.54,1.93,1.94,1.94
512.62,-2.50,-4.46,-2.50,-4.45,4.45,4.76,5.53,1.96,1.96,1.96
517.75,-2.43,-4.40,-2.43,-4.41,4.41,4.71,5.52,1.98,1.98,1.97
522.93,-2.38,-4.37,-2.38,-4.37,4.37,4.67,5.49,2.00,1.99,1.99
528.16,-2.34,-4.35,-2.33,-4.34,4.34,4.62,5.46,2.01,2.01,2.01
533.44,-2.30,-4.32,-2.30,-4.32,4.32,4.57,5.42,2.02,2.02,2.02
538.77,-2.27,-4.31,-2.27,-4.31,4.31,4.52,5.38,2.04,2.04,2.04
