frequency,raw,error,smoothed,error_smoothed,equalization,parametric_eq,fixed_band_eq,equalized_raw,equalized_smoothed,target
20.00,-3.39,-6.33,-3.39,-6.33,5.99,6.25,2.09,2.60,2.60,2.94
20.20,-3.36,-6.28,-3.36,-6.28,6.00,6.20,2.15,2.64,2.64,2.92
20.40,-3.34,-6.23,-3.34,-6.23,6.01,6.16,2.22,2.67,2.68,2.89
20.61,-3.31,-6.18,-3.31,-6.18,6.01,6.12,2.28,2.70,2.70,2.87
20.81,-3.28,-6.13,-3.28,-6.13,6.01,6.07,2.35,2.73,2.73,2.85
21.02,-3.26,-6.08,-3.26,-6.08,6.00,6.03,2.42,2.74,2.74,2.82
21.23,-3.23,-6.03,-3.23,-6.03,5.98,5.99,2.49,2.75,2.75,2.80
21.44,-3.21,-5.99,-3.21,-5.99,5.96,5.94,2.56,2.75,2.75,2.78
21.66,-3.18,-5.94,-3.18,-5.94,5.93,5.90,2.64,2.75,2.75,2.76
21.87,-3.16,-5.90,-3.15,-5.89,5.89,5.85,2.71,2.73,2.74,2.74
22.09,-3.12,-5.84,-3.13,-5.84,5.85,5.81,2.79,2.73,2.72,2.72
22.31,-3.10,-5.80,-3.10,-5.79,5.80,5.76,2.87,2.70,2.70,2.70
22.54,-3.07,-5.74,-3.07,-5.74,5.74,5.72,2.96,2.67,2.68,2.67
22.76,-3.03,-5.68,-3.04,-5.68,5.68,5.67,3.04,2.65,2.65,2.65
22.99,-3.00,-5.63,-3.00,-5.63,5.63,5.63,3.13,2.63,2.63,2.63
23.22,-2.97,-5.58,-2.97,-5.57,5.57,5.59,3.22,2.61,2.61,2.61
23.45,-2.93,-5.52,-2.93,-5.52,5.52,5.54,3.31,2.59,2.59,2.60
23.69,-2.89,-5.47,-2.89,-5.47,5.47,5.49,3.41,2.58,2.58,2.58
23.92,-2.86,-5.42,-2.86,-5.42,5.42,5.45,3.50,2.56,2.56,2.56
24.16,-2.82,-5.36,-2.82,-5.37,5.37,5.40,3.60,2.55,2.55,2.54
24.40,-2.80,-5.33,-2.79,-5.33,5.33,5.36,3.70,2.53,2.53,2.53
24.65,-2.76,-5.28,-2.76,-5.28,5.28,5.31,3.80,2.52,2.52,2.52
24.89,-2.73,-5.23,-2.73,-5.24,5.23,5.27,3.90,2.50,2.50,2.50
25.14,-2.70,-5.19,-2.70,-5.19,5.19,5.22,4.00,2.49,2.49,2.49
25.39,-2.66,-5.14,-2.66,-5.14,5.14,5.18,4.10,2.48,2.48,2.48
25.65,-2.63,-5.10,-2.63,-5.10,5.10,5.13,4.21,2.47,2.47,2.47
25.91,-2.60,-5.06,-2.60,-5.05,5.05,5.09,4.31,2.45,2.46,2.46
26.16,-2.56,-5.01,-2.56,-5.01,5.01,5.04,4.41,2.45,2.44,2.45
26.43,-2.53,-4.96,-2.53,-4.96,4.96,5.00,4.51,2.43,2.43,2.43
26.69,-2.50,-4.92,-2.50,-4.91,4.92,4.95,4.62,2.42,2.42,2.42
26.96,-2.46,-4.87,-2.46,-4.87,4.87,4.91,4.72,2.41,2.41,2.41
27.23,-2.43,-4.83,-2.43,-4.83,4.83,4.86,4.81,2.40,2.40,2.40
27.50,-2.40,-4.78,-2.40,-4.78,4.78,4.82,4.91,2.38,2.39,2.38
27.77,-2.36,-4.74,-2.36,-4.74,4.74,4.77,5.00,2.38,2.38,2.38
28.05,-2.32,-4.69,-2.32,-4.70,4.69,4.73,5.09,2.37,2.37,2.37
28.33,-2.29,-4.65,-2.29,-4.65,4.65,4.68,5.17,2.36,2.37,2.36
28.62,-2.25,-4.61,-2.25,-4.61,4.61,4.64,5.25,2.36,2.36,2.36
28.90,-2.21,-4.56,-2.21,-4.56,4.57,4.59,5.32,2.36,2.35,2.35
29.19,-2.18,-4.53,-2.18,-4.52,4.52,4.55,5.38,2.34,2.35,2.35
29.48,-2.14,-4.48,-2.14,-4.48,4.48,4.50,5.44,2.34,2.34,2.34
29.78,-2.11,-4.45,-2.11,-4.44,4.44,4.46,5.49,2.33,2.33,2.34
30.08,-2.07,-4.40,-2.08,-4.40,4.40,4.42,5.53,2.33,2.33,2.33
30.38,-2.05,-4.37,-2.05,-4.37,4.37,4.37,5.57,2.32,2.32,2.32
30.68,-2.02,-4.33,-2.02,-4.33,4.33,4.33,5.60,2.31,2.31,2.31
30.99,-1.99,-4.29,-1.99,-4.30,4.30,4.29,5.62,2.31,2.31,2.30
31.30,-1.97,-4.27,-1.97,-4.26,4.27,4.25,5.62,2.30,2.30,2.30
31.61,-1.94,-4.23,-1.95,-4.24,4.24,4.20,5.63,2.30,2.29,2.29
31.93,-1.93,-4.21,-1.93,-4.21,4.21,4.16,5.62,2.28,2.28,2.28
32.24,-1.91,-4.18,-1.91,-4.18,4.17,4.12,5.60,2.27,2.27,2.28
32.57,-1.88,-4.14,-1.88,-4.15,4.14,4.08,5.57,2.26,2.26,2.26
32.89,-1.86,-4.11,-1.86,-4.11,4.11,4.04,5.54,2.25,2.25,2.25
33.22,-1.84,-4.08,-1.84,-4.08,4.08,4.00,5.50,2.24,2.24,2.24
33.55,-1.82,-4.05,-1.82,-4.05,4.05,3.96,5.45,2.23,2.23,2.23
33.89,-1.79,-4.01,-1.79,-4.01,4.01,3.92,5.40,2.22,2.22,2.22
34.23,-1.77,-3.98,-1.77,-3.98,3.98,3.88,5.34,2.21,2.21,2.21
34.57,-1.74,-3.94,-1.74,-3.94,3.94,3.84,5.27,2.20,2.20,2.20
34.92,-1.72,-3.91,-1.72,-3.91,3.91,3.80,5.20,2.19,2.19,2.19
35.27,-1.69,-3.87,-1.69,-3.88,3.87,3.76,5.12,2.18,2.18,2.18
35.62,-1.67,-3.85,-1.67,-3.84,3.84,3.73,5.04,2.17,2.17,2.18
35.97,-1.64,-3.80,-1.64,-3.81,3.81,3.69,4.96,2.17,2.17,2.16
36.33,-1.61,-3.77,-1.61,-3.77,3.77,3.65,4.88,2.16,2.16,2.16
36.70,-1.59,-3.74,-1.59,-3.74,3.73,3.62,4.79,2.14,2.15,2.15
37.06,-1.56,-3.70,-1.56,-3.70,3.70,3.58,4.71,2.14,2.14,2.14
37.43,-1.53,-3.66,-1.53,-3.66,3.66,3.54,4.62,2.13,2.13,2.13
37.81,-1.50,-3.62,-1.50,-3.62,3.63,3.51,4.53,2.13,2.13,2.12
38.19,-1.47,-3.59,-1.47,-3.59,3.59,3.48,4.44,2.12,2.12,2.12
38.57,-1.45,-3.56,-1.45,-3.55,3.55,3.44,4.35,2.10,2.11,2.11
38.95,-1.42,-3.52,-1.42,-3.52,3.52,3.41,4.27,2.10,2.10,2.10
39.34,-1.39,-3.48,-1.39,-3.48,3.48,3.38,4.18,2.09,2.09,2.09
39.74,-1.36,-3.45,-1.36,-3.44,3.44,3.34,4.10,2.08,2.08,2.09
40.14,-1.33,-3.40,-1.33,-3.41,3.41,3.31,4.01,2.08,2.07,2.07
40.54,-1.31,-3.38,-1.30,-3.37,3.37,3.28,3.93,2.06,2.06,2.07
40.94,-1.27,-3.32,-1.27,-3.33,3.33,3.25,3.85,2.06,2.06,2.05
41.35,-1.25,-3.30,-1.24,-3.29,3.29,3.22,3.78,2.04,2.05,2.05
41.76,-1.21,-3.25,-1.21,-3.25,3.26,3.19,3.70,2.05,2.04,2.04
42.18,-1.19,-3.22,-1.19,-3.22,3.22,3.16,3.63,2.03,2.03,2.03
42.60,-1.16,-3.18,-1.16,-3.18,3.18,3.14,3.56,2.02,2.02,2.02
43.03,-1.14,-3.15,-1.14,-3.15,3.15,3.11,3.49,2.01,2.01,2.01
43.46,-1.11,-3.11,-1.11,-3.11,3.11,3.08,3.42,2.00,2.00,2.00
43.90,-1.08,-3.07,-1.08,-3.08,3.08,3.05,3.36,2.00,1.99,1.99
44.33,-1.05,-3.04,-1.05,-3.04,3.04,3.03,3.30,1.99,1.99,1.99
44.78,-1.04,-3.01,-1.03,-3.01,3.01,3.00,3.24,1.97,1.98,1.97
45.23,-1.01,-2.98,-1.01,-2.98,2.98,2.98,3.19,1.97,1.97,1.97
45.68,-1.00,-2.96,-0.99,-2.96,2.96,2.95,3.14,1.96,1.96,1.96
46.13,-0.97,-2.93,-0.97,-2.93,2.93,2.93,3.09,1.96,1.96,1.96
46.60,-0.95,-2.90,-0.95,-2.90,2.91,2.91,3.04,1.96,1.95,1.95
47.06,-0.94,-2.88,-0.94,-2.88,2.88,2.88,3.00,1.94,1.95,1.95
47.53,-0.92,-2.86,-0.92,-2.86,2.86,2.86,2.95,1.94,1.94,1.94
48.01,-0.91,-2.84,-0.91,-2.84,2.84,2.84,2.91,1.93,1.93,1.93
48.49,-0.89,-2.82,-0.89,-2.82,2.82,2.82,2.87,1.93,1.93,1.93
48.97,-0.88,-2.80,-0.88,-2.80,2.80,2.80,2.84,1.92,1.92,1.92
49.46,-0.87,-2.78,-0.87,-2.78,2.78,2.78,2.80,1.91,1.91,1.91
49.96,-0.86,-2.76,-0.86,-2.76,2.76,2.76,2.77,1.90,1.90,1.90
50.46,-0.84,-2.74,-0.84,-2.73,2.73,2.74,2.74,1.89,1.89,1.90
50.96,-0.82,-2.71,-0.82,-2.71,2.71,2.72,2.71,1.89,1.89,1.89
51.47,-0.81,-2.69,-0.81,-2.69,2.69,2.70,2.69,1.88,1.88,1.88
51.99,-0.80,-2.67,-0.80,-2.67,2.67,2.68,2.66,1.87,1.87,1.87
52.51,-0.79,-2.65,-0.79,-2.65,2.65,2.66,2.64,1.86,1.86,1.86
53.03,-0.77,-2.62,-0.77,-2.62,2.62,2.64,2.61,1.85,1.85,1.85
53.56,-0.76,-2.60,-0.76,-2.60,2.60,2.62,2.59,1.84,1.84,1.84
54.10,-0.74,-2.57,-0.75,-2.58,2.58,2.61,2.57,1.84,1.83,1.83
54.64,-0.74,-2.56,-0.73,-2.55,2.55,2.59,2.55,1.81,1.82,1.82
55.18,-0.72,-2.53,-0.72,-2.53,2.53,2.57,2.53,1.81,1.81,1.81
55.74,-0.70,-2.50,-0.71,-2.50,2.50,2.55,2.51,1.80,1.80,1.80
56.29,-0.69,-2.48,-0.69,-2.48,2.48,2.54,2.49,1.79,1.79,1.79
56.86,-0.68,-2.46,-0.68,-2.45,2.45,2.52,2.46,1.77,1.78,1.78
57.42,-0.66,-2.42,-0.66,-2.43,2.43,2.50,2.44,1.77,1.77,1.76
58.00,-0.65,-2.41,-0.65,-2.41,2.41,2.49,2.42,1.76,1.76,1.76
58.58,-0.64,-2.39,-0.64,-2.39,2.39,2.47,2.40,1.75,1.75,1.75
59.16,-0.63,-2.36,-0.63,-2.37,2.37,2.45,2.38,1.74,1.74,1.73
59.76,-0.62,-2.34,-0.62,-2.34,2.34,2.44,2.36,1.72,1.72,1.72
60.35,-0.61,-2.33,-0.61,-2.33,2.32,2.42,2.33,1.71,1.71,1.72
60.96,-0.61,-2.31,-0.61,-2.31,2.30,2.40,2.31,1.69,1.70,1.70
61.57,-0.60,-2.29,-0.60,-2.29,2.28,2.38,2.28,1.68,1.69,1.69
62.18,-0.59,-2.26,-0.59,-2.26,2.26,2.37,2.25,1.68,1.67,1.67
62.80,-0.58,-2.24,-0.58,-2.24,2.25,2.35,2.22,1.67,1.66,1.66
63.43,-0.58,-2.23,-0.58,-2.22,2.23,2.33,2.19,1.65,1.65,1.65
64.07,-0.58,-2.21,-0.58,-2.21,2.21,2.31,2.16,1.63,1.63,1.63
64.71,-0.57,-2.18,-0.58,-2.19,2.19,2.29,2.13,1.62,1.61,1.61
65.35,-0.58,-2.18,-0.58,-2.17,2.17,2.28,2.09,1.59,1.59,1.60
66.01,-0.58,-2.16,-0.57,-2.15,2.15,2.26,2.06,1.57,1.58,1.58
66.67,-0.57,-2.13,-0.57,-2.13,2.13,2.24,2.02,1.56,1.56,1.56
67.33,-0.57,-2.11,-0.57,-2.11,2.11,2.22,1.98,1.54,1.54,1.54
68.01,-0.58,-2.10,-0.58,-2.09,2.10,2.20,1.94,1.52,1.52,1.52
68.69,-0.58,-2.08,-0.58,-2.08,2.08,2.18,1.90,1.50,1.50,1.50
69.37,-0.58,-2.06,-0.58,-2.06,2.06,2.15,1.86,1.48,1.48,1.48
70.07,-0.58,-2.03,-0.58,-2.04,2.04,2.13,1.82,1.46,1.46,1.46
70.77,-0.59,-2.02,-0.59,-2.02,2.02,2.11,1.78,1.43,1.43,1.43
71.48,-0.59,-2.00,-0.59,-2.00,2.00,2.09,1.74,1.41,1.41,1.41
72.19,-0.60,-1.99,-0.60,-1.98,1.98,2.06,1.69,1.38,1.39,1.39
72.91,-0.60,-1.96,-0.60,-1.96,1.96,2.04,1.65,1.36,1.36,1.36
73.64,-0.61,-1.94,-0.61,-1.94,1.94,2.01,1.61,1.33,1.33,1.33
74.38,-0.62,-1.92,-0.62,-1.92,1.92,1.99,1.56,1.30,1.30,1.30
75.12,-0.62,-1.90,-0.62,-1.90,1.90,1.96,1.52,1.28,1.27,1.28
75.87,-0.63,-1.87,-0.63,-1.88,1.87,1.94,1.47,1.24,1.24,1.24
76.63,-0.64,-1.85,-0.64,-1.85,1.85,1.91,1.43,1.21,1.21,1.21
77.40,-0.65,-1.83,-0.65,-1.82,1.82,1.88,1.39,1.17,1.17,1.18
78.17,-0.66,-1.80,-0.66,-1.80,1.80,1.85,1.34,1.14,1.14,1.14
78.95,-0.66,-1.76,-0.67,-1.77,1.77,1.82,1.30,1.11,1.10,1.10
79.74,-0.68,-1.74,-0.68,-1.74,1.74,1.79,1.26,1.06,1.06,1.06
80.54,-0.69,-1.71,-0.68,-1.71,1.71,1.76,1.22,1.02,1.02,1.02
81.35,-0.69,-1.67,-0.69,-1.68,1.68,1.73,1.18,0.99,0.98,0.98
82.16,-0.70,-1.64,-0.70,-1.64,1.65,1.70,1.14,0.95,0.94,0.94
82.98,-0.72,-1.62,-0.72,-1.62,1.62,1.67,1.10,0.90,0.90,0.90
83.81,-0.73,-1.59,-0.73,-1.58,1.58,1.63,1.06,0.85,0.85,0.86
84.65,-0.75,-1.56,-0.74,-1.55,1.55,1.60,1.02,0.80,0.81,0.81
85.50,-0.75,-1.51,-0.76,-1.52,1.52,1.56,0.98,0.77,0.77,0.76
86.35,-0.77,-1.50,-0.77,-1.49,1.49,1.53,0.94,0.72,0.73,0.73
87.22,-0.78,-1.47,-0.78,-1.46,1.46,1.49,0.90,0.68,0.69,0.69
88.09,-0.79,-1.43,-0.79,-1.43,1.43,1.46,0.87,0.64,0.64,0.64
88.97,-0.80,-1.40,-0.80,-1.40,1.40,1.42,0.83,0.60,0.60,0.60
89.86,-0.82,-1.37,-0.82,-1.37,1.37,1.38,0.80,0.55,0.56,0.55
90.76,-0.83,-1.35,-0.83,-1.34,1.34,1.34,0.76,0.51,0.51,0.52
91.66,-0.84,-1.31,-0.84,-1.32,1.31,1.30,0.73,0.47,0.47,0.47
92.58,-0.85,-1.29,-0.85,-1.28,1.28,1.27,0.69,0.43,0.43,0.44
93.51,-0.86,-1.25,-0.86,-1.25,1.25,1.23,0.66,0.39,0.39,0.39
94.44,-0.86,-1.21,-0.87,-1.22,1.22,1.19,0.63,0.36,0.35,0.35
95.39,-0.88,-1.19,-0.88,-1.18,1.19,1.15,0.60,0.31,0.31,0.31
96.34,-0.89,-1.16,-0.89,-1.15,1.16,1.11,0.57,0.27,0.27,0.27
97.30,-0.90,-1.12,-0.90,-1.13,1.12,1.06,0.54,0.22,0.22,0.22
98.28,-0.91,-1.09,-0.91,-1.09,1.09,1.02,0.51,0.18,0.18,0.18
99.26,-0.92,-1.06,-0.92,-1.05,1.05,0.98,0.48,0.13,0.13,0.14
100.25,-0.92,-1.01,-0.92,-1.01,1.01,0.94,0.45,0.09,0.09,0.09
101.25,-0.93,-0.97,-0.93,-0.97,0.97,0.90,0.42,0.04,0.04,0.04
102.27,-0.94,-0.93,-0.94,-0.93,0.93,0.85,0.39,-0.01,-0.01,-0.01
103.29,-0.95,-0.89,-0.95,-0.89,0.89,0.81,0.36,-0.06,-0.05,-0.06
104.32,-0.96,-0.85,-0.96,-0.85,0.85,0.77,0.34,-0.11,-0.10,-0.11
105.37,-0.96,-0.81,-0.97,-0.81,0.81,0.73,0.31,-0.15,-0.15,-0.15
106.42,-0.98,-0.78,-0.98,-0.77,0.77,0.68,0.28,-0.21,-0.20,-0.20
107.48,-0.99,-0.74,-0.99,-0.74,0.73,0.64,0.26,-0.26,-0.25,-0.25
108.56,-0.99,-0.69,-0.99,-0.69,0.69,0.60,0.23,-0.30,-0.30,-0.30
109.64,-1.00,-0.65,-1.00,-0.65,0.65,0.56,0.21,-0.35,-0.35,-0.35
110.74,-1.00,-0.61,-1.00,-0.61,0.61,0.51,0.19,-0.39,-0.39,-0.39
111.85,-1.01,-0.57,-1.01,-0.57,0.57,0.47,0.16,-0.44,-0.44,-0.44
112.97,-1.02,-0.53,-1.02,-0.52,0.52,0.43,0.14,-0.50,-0.49,-0.49
114.10,-1.02,-0.48,-1.02,-0.48,0.48,0.39,0.12,-0.54,-0.54,-0.54
115.24,-1.02,-0.43,-1.02,-0.44,0.44,0.35,0.10,-0.58,-0.59,-0.59
116.39,-1.03,-0.40,-1.03,-0.40,0.40,0.31,0.08,-0.63,-0.63,-0.63
117.55,-1.04,-0.36,-1.04,-0.36,0.36,0.27,0.06,-0.68,-0.68,-0.68
118.73,-1.04,-0.31,-1.04,-0.32,0.32,0.22,0.04,-0.72,-0.72,-0.73
119.92,-1.04,-0.28,-1.04,-0.28,0.28,0.18,0.02,-0.76,-0.76,-0.76
121.12,-1.05,-0.24,-1.05,-0.24,0.24,0.14,0.01,-0.81,-0.80,-0.81
122.33,-1.05,-0.21,-1.05,-0.21,0.21,0.11,-0.01,-0.84,-0.84,-0.84
123.55,-1.06,-0.17,-1.06,-0.17,0.17,0.07,-0.02,-0.89,-0.89,-0.89
124.79,-1.06,-0.14,-1.06,-0.14,0.14,0.03,-0.04,-0.92,-0.93,-0.92
126.03,-1.07,-0.10,-1.07,-0.10,0.10,-0.01,-0.05,-0.97,-0.97,-0.97
127.29,-1.07,-0.07,-1.07,-0.07,0.07,-0.04,-0.07,-1.00,-1.00,-1.00
128.57,-1.07,-0.04,-1.07,-0.03,0.03,-0.08,-0.08,-1.04,-1.04,-1.03
129.85,-1.07,0.01,-1.07,0.00,-0.00,-0.12,-0.09,-1.07,-1.07,-1.08
131.15,-1.07,0.04,-1.07,0.04,-0.04,-0.15,-0.10,-1.11,-1.11,-1.11
132.46,-1.07,0.07,-1.07,0.07,-0.07,-0.19,-0.11,-1.14,-1.14,-1.14
133.79,-1.07,0.10,-1.07,0.10,-0.10,-0.22,-0.12,-1.17,-1.17,-1.17
135.12,-1.07,0.13,-1.07,0.13,-0.13,-0.25,-0.13,-1.20,-1.20,-1.20
136.48,-1.08,0.15,-1.07,0.16,-0.16,-0.28,-0.14,-1.24,-1.23,-1.23
137.84,-1.07,0.18,-1.07,0.18,-0.19,-0.32,-0.15,-1.26,-1.26,-1.25
139.22,-1.07,0.21,-1.07,0.21,-0.21,-0.35,-0.15,-1.28,-1.28,-1.28
140.61,-1.07,0.24,-1.07,0.24,-0.24,-0.38,-0.16,-1.31,-1.31,-1.31
142.02,-1.06,0.27,-1.06,0.27,-0.27,-0.40,-0.17,-1.33,-1.33,-1.33
143.44,-1.06,0.29,-1.06,0.29,-0.29,-0.43,-0.18,-1.35,-1.35,-1.35
144.87,-1.05,0.32,-1.05,0.32,-0.32,-0.46,-0.18,-1.37,-1.37,-1.37
146.32,-1.04,0.35,-1.04,0.35,-0.35,-0.49,-0.19,-1.39,-1.39,-1.39
147.78,-1.04,0.37,-1.03,0.38,-0.38,-0.51,-0.20,-1.41,-1.41,-1.41
149.26,-1.02,0.41,-1.03,0.40,-0.40,-0.54,-0.20,-1.42,-1.43,-1.43
150.75,-1.02,0.43,-1.02,0.43,-0.43,-0.56,-0.21,-1.45,-1.45,-1.45
152.26,-1.01,0.45,-1.01,0.46,-0.45,-0.58,-0.21,-1.46,-1.46,-1.46
153.78,-0.99,0.48,-0.99,0.48,-0.48,-0.60,-0.22,-1.47,-1.47,-1.47
155.32,-0.98,0.51,-0.98,0.51,-0.51,-0.62,-0.23,-1.49,-1.49,-1.49
156.88,-0.97,0.53,-0.97,0.53,-0.53,-0.65,-0.23,-1.50,-1.50,-1.50
158.44,-0.96,0.55,-0.96,0.55,-0.55,-0.66,-0.24,-1.51,-1.51,-1.51
160.03,-0.94,0.58,-0.95,0.58,-0.58,-0.68,-0.25,-1.52,-1.52,-1.52
161.63,-0.94,0.59,-0.93,0.60,-0.60,-0.70,-0.25,-1.54,-1.53,-1.53
163.24,-0.92,0.62,-0.92,0.62,-0.62,-0.72,-0.26,-1.54,-1.54,-1.54
164.88,-0.91,0.64,-0.91,0.64,-0.64,-0.73,-0.27,-1.55,-1.55,-1.55
166.53,-0.90,0.66,-0.90,0.66,-0.66,-0.75,-0.27,-1.56,-1.56,-1.56
168.19,-0.89,0.68,-0.89,0.68,-0.68,-0.76,-0.28,-1.57,-1.57,-1.57
169.87,-0.89,0.69,-0.89,0.70,-0.70,-0.78,-0.29,-1.59,-1.58,-1.58
171.57,-0.88,0.72,-0.88,0.71,-0.71,-0.79,-0.30,-1.59,-1.59,-1.60
173.29,-0.88,0.72,-0.88,0.73,-0.73,-0.80,-0.30,-1.61,-1.60,-1.60
175.02,-0.87,0.74,-0.87,0.74,-0.74,-0.81,-0.31,-1.61,-1.61,-1.61
176.77,-0.87,0.76,-0.87,0.75,-0.75,-0.82,-0.32,-1.62,-1.62,-1.63
178.54,-0.87,0.76,-0.87,0.77,-0.77,-0.83,-0.33,-1.64,-1.63,-1.63
180.32,-0.87,0.78,-0.87,0.78,-0.78,-0.84,-0.34,-1.65,-1.65,-1.65
182.13,-0.88,0.78,-0.88,0.78,-0.78,-0.85,-0.35,-1.66,-1.66,-1.66
183.95,-0.89,0.79,-0.88,0.79,-0.79,-0.86,-0.36,-1.68,-1.68,-1.68
185.79,-0.89,0.80,-0.89,0.80,-0.80,-0.86,-0.37,-1.69,-1.69,-1.69
187.65,-0.90,0.81,-0.90,0.80,-0.80,-0.87,-0.38,-1.70,-1.70,-1.71
189.52,-0.92,0.80,-0.91,0.81,-0.80,-0.87,-0.39,-1.72,-1.72,-1.72
191.42,-0.92,0.81,-0.93,0.80,-0.81,-0.88,-0.40,-1.72,-1.73,-1.73
193.33,-0.94,0.80,-0.94,0.81,-0.81,-0.88,-0.41,-1.75,-1.74,-1.74
195.27,-0.95,0.81,-0.95,0.81,-0.81,-0.89,-0.42,-1.76,-1.76,-1.76
197.22,-0.97,0.81,-0.97,0.81,-0.81,-0.89,-0.44,-1.78,-1.77,-1.78
199.19,-0.98,0.81,-0.98,0.81,-0.81,-0.89,-0.45,-1.79,-1.79,-1.79
201.18,-0.99,0.82,-1.00,0.81,-0.81,-0.89,-0.46,-1.80,-1.81,-1.81
203.19,-1.01,0.81,-1.01,0.81,-0.82,-0.90,-0.47,-1.83,-1.82,-1.82
205.23,-1.02,0.82,-1.02,0.82,-0.83,-0.90,-0.48,-1.85,-1.84,-1.84
207.28,-1.02,0.83,-1.02,0.83,-0.83,-0.90,-0.50,-1.85,-1.86,-1.85
209.35,-1.02,0.85,-1.02,0.85,-0.85,-0.90,-0.51,-1.87,-1.87,-1.87
211.44,-1.02,0.87,-1.02,0.86,-0.86,-0.90,-0.52,-1.88,-1.88,-1.89
213.56,-1.02,0.88,-1.02,0.88,-0.88,-0.90,-0.53,-1.90,-1.90,-1.90
215.69,-1.02,0.90,-1.02,0.89,-0.90,-0.89,-0.55,-1.92,-1.92,-1.92
217.85,-1.02,0.90,-1.02,0.91,-0.92,-0.89,-0.56,-1.94,-1.93,-1.92
220.03,-1.01,0.93,-1.01,0.93,-0.94,-0.89,-0.57,-1.95,-1.94,-1.94
222.23,-0.99,0.96,-1.00,0.95,-0.95,-0.89,-0.58,-1.94,-1.95,-1.95
224.45,-0.99,0.97,-0.99,0.97,-0.97,-0.89,-0.59,-1.96,-1.95,-1.96
226.70,-0.98,0.98,-0.98,0.98,-0.98,-0.88,-0.61,-1.96,-1.96,-1.96
228.96,-0.98,0.99,-0.98,0.99,-0.99,-0.88,-0.62,-1.97,-1.97,-1.97
231.25,-0.98,1.00,-0.98,0.99,-0.99,-0.88,-0.63,-1.97,-1.97,-1.98
233.57,-0.99,0.98,-0.99,0.99,-0.98,-0.87,-0.64,-1.97,-1.97,-1.97
235.90,-1.00,0.98,-1.00,0.97,-0.97,-0.87,-0.64,-1.97,-1.97,-1.98
238.26,-1.02,0.96,-1.02,0.96,-0.95,-0.86,-0.65,-1.97,-1.97,-1.98
240.64,-1.05,0.92,-1.05,0.93,-0.93,-0.86,-0.66,-1.98,-1.97,-1.97
243.05,-1.07,0.91,-1.08,0.90,-0.90,-0.85,-0.67,-1.97,-1.97,-1.98
245.48,-1.11,0.86,-1.11,0.87,-0.87,-0.85,-0.68,-1.98,-1.97,-1.97
247.93,-1.14,0.83,-1.14,0.83,-0.83,-0.84,-0.68,-1.97,-1.97,-1.97
250.41,-1.16,0.80,-1.17,0.80,-0.80,-0.84,-0.69,-1.96,-1.97,-1.96
252.92,-1.19,0.78,-1.19,0.77,-0.78,-0.83,-0.69,-1.97,-1.97,-1.97
255.45,-1.22,0.74,-1.21,0.75,-0.75,-0.83,-0.69,-1.97,-1.97,-1.96
258.00,-1.23,0.73,-1.23,0.73,-0.74,-0.82,-0.70,-1.97,-1.97,-1.96
260.58,-1.24,0.72,-1.24,0.72,-0.72,-0.82,-0.70,-1.96,-1.97,-1.96
263.19,-1.25,0.72,-1.25,0.71,-0.72,-0.81,-0.70,-1.97,-1.97,-1.97
265.82,-1.25,0.71,-1.25,0.71,-0.72,-0.80,-0.70,-1.97,-1.97,-1.96
268.48,-1.25,0.71,-1.25,0.72,-0.72,-0.80,-0.70,-1.97,-1.97,-1.96
271.16,-1.24,0.73,-1.24,0.72,-0.73,-0.79,-0.70,-1.97,-1.97,-1.97
273.87,-1.24,0.73,-1.24,0.73,-0.74,-0.79,-0.70,-1.98,-1.97,-1.97
276.61,-1.23,0.74,-1.23,0.74,-0.74,-0.78,-0.70,-1.97,-1.97,-1.97
279.38,-1.22,0.75,-1.22,0.75,-0.74,-0.77,-0.70,-1.96,-1.97,-1.97
282.17,-1.23,0.74,-1.23,0.74,-0.74,-0.77,-0.70,-1.97,-1.96,-1.97
284.99,-1.24,0.73,-1.24,0.72,-0.72,-0.76,-0.70,-1.96,-1.96,-1.97
287.84,-1.28,0.69,-1.28,0.69,-0.68,-0.75,-0.70,-1.96,-1.95,-1.97
290.72,-1.32,0.64,-1.32,0.64,-0.62,-0.75,-0.70,-1.94,-1.95,-1.96
293.63,-1.39,0.57,-1.39,0.57,-0.55,-0.74,-0.70,-1.94,-1.94,-1.96
296.57,-1.48,0.48,-1.48,0.48,-0.46,-0.74,-0.70,-1.94,-1.94,-1.96
299.53,-1.59,0.37,-1.59,0.37,-0.35,-0.73,-0.70,-1.94,-1.95,-1.96
302.53,-1.71,0.24,-1.71,0.24,-0.24,-0.72,-0.70,-1.95,-1.95,-1.95
305.55,-1.83,0.11,-1.83,0.12,-0.12,-0.72,-0.69,-1.95,-1.95,-1.94
308.61,-1.94,-0.00,-1.94,-0.01,-0.01,-0.71,-0.69,-1.95,-1.95,-1.94
311.69,-2.05,-0.12,-2.05,-0.12,0.10,-0.71,-0.69,-1.95,-1.94,-1.93
314.81,-2.14,-0.22,-2.14,-0.21,0.20,-0.70,-0.69,-1.94,-1.93,-1.92
317.96,-2.21,-0.30,-2.21,-0.30,0.28,-0.70,-0.70,-1.93,-1.93,-1.91
321.14,-2.26,-0.35,-2.26,-0.36,0.35,-0.69,-0.70,-1.91,-1.92,-1.91
324.35,-2.31,-0.41,-2.30,-0.40,0.40,-0.69,-0.70,-1.91,-1.90,-1.90
327.59,-2.32,-0.43,-2.32,-0.43,0.43,-0.68,-0.70,-1.89,-1.89,-1.89
330.87,-2.33,-0.44,-2.34,-0.45,0.45,-0.68,-0.70,-1.88,-1.89,-1.89
334.18,-2.34,-0.46,-2.33,-0.45,0.45,-0.67,-0.71,-1.88,-1.88,-1.88
337.52,-2.32,-0.44,-2.32,-0.44,0.45,-0.67,-0.71,-1.87,-1.87,-1.88
340.90,-2.30,-0.42,-2.31,-0.43,0.43,-0.67,-0.71,-1.87,-1.88,-1.88
344.30,-2.28,-0.40,-2.28,-0.40,0.40,-0.66,-0.72,-1.88,-1.88,-1.88
347.75,-2.25,-0.37,-2.24,-0.37,0.36,-0.66,-0.73,-1.89,-1.89,-1.88
351.23,-2.19,-0.31,-2.20,-0.32,0.31,-0.66,-0.73,-1.88,-1.89,-1.88
354.74,-2.14,-0.26,-2.14,-0.25,0.24,-0.65,-0.74,-1.90,-1.89,-1.88
358.28,-2.07,-0.18,-2.07,-0.18,0.17,-0.65,-0.75,-1.90,-1.89,-1.89
361.87,-1.99,-0.10,-1.99,-0.10,0.10,-0.65,-0.75,-1.89,-1.89,-1.89
365.49,-1.90,-0.00,-1.91,-0.01,0.01,-0.65,-0.76,-1.89,-1.89,-1.90
369.14,-1.82,0.08,-1.82,0.08,-0.08,-0.65,-0.77,-1.90,-1.89,-1.90
372.83,-1.73,0.17,-1.73,0.17,-0.16,-0.65,-0.78,-1.89,-1.89,-1.90
376.56,-1.63,0.26,-1.64,0.25,-0.25,-0.65,-0.79,-1.88,-1.89,-1.89
380.33,-1.56,0.33,-1.55,0.34,-0.33,-0.65,-0.80,-1.89,-1.89,-1.89
384.13,-1.47,0.42,-1.47,0.41,-0.41,-0.65,-0.81,-1.88,-1.89,-1.89
387.97,-1.40,0.48,-1.40,0.49,-0.49,-0.65,-0.83,-1.89,-1.89,-1.88
391.85,-1.32,0.56,-1.32,0.56,-0.56,-0.65,-0.84,-1.88,-1.88,-1.88
395.77,-1.25,0.62,-1.25,0.63,-0.63,-0.66,-0.85,-1.88,-1.87,-1.87
399.73,-1.17,0.70,-1.17,0.70,-0.69,-0.66,-0.86,-1.86,-1.86,-1.87
403.72,-1.11,0.76,-1.11,0.75,-0.75,-0.67,-0.88,-1.86,-1.86,-1.87
407.76,-1.05,0.81,-1.05,0.81,-0.81,-0.67,-0.89,-1.86,-1.86,-1.86
411.84,-1.00,0.85,-0.99,0.86,-0.86,-0.68,-0.90,-1.86,-1.85,-1.85
415.96,-0.93,0.91,-0.94,0.91,-0.91,-0.68,-0.92,-1.84,-1.85,-1.84
420.12,-0.88,0.96,-0.88,0.96,-0.96,-0.69,-0.93,-1.84,-1.84,-1.84
424.32,-0.83,1.00,-0.83,1.00,-1.00,-0.70,-0.94,-1.83,-1.83,-1.83
428.56,-0.78,1.04,-0.78,1.04,-1.04,-0.71,-0.96,-1.82,-1.82,-1.82
432.85,-0.73,1.08,-0.73,1.08,-1.08,-0.73,-0.97,-1.81,-1.82,-1.81
437.18,-0.69,1.11,-0.68,1.12,-1.12,-0.74,-0.98,-1.81,-1.80,-1.80
441.55,-0.64,1.15,-0.64,1.15,-1.15,-0.75,-0.99,-1.79,-1.79,-1.79
445.96,-0.60,1.18,-0.61,1.18,-1.17,-0.77,-1.00,-1.77,-1.78,-1.78
450.42,-0.58,1.19,-0.58,1.20,-1.19,-0.79,-1.02,-1.77,-1.77,-1.77
454.93,-0.56,1.20,-0.56,1.21,-1.20,-0.81,-1.02,-1.76,-1.76,-1.76
459.48,-0.54,1.22,-0.54,1.21,-1.21,-0.83,-1.03,-1.75,-1.75,-1.75
464.07,-0.53,1.22,-0.53,1.22,-1.21,-0.86,-1.04,-1.74,-1.74,-1.75
468.71,-0.52,1.22,-0.52,1.22,-1.21,-0.88,-1.05,-1.73,-1.73,-1.74
