frequency,raw,error,smoothed,error_smoothed,equalization,parametric_eq,fixed_band_eq,equalized_raw,equalized_smoothed,target
20.00,-5.69,-12.85,-5.69,-12.85,6.00,5.22,2.67,0.31,0.31,7.16
20.20,-5.65,-12.78,-5.64,-12.78,6.00,5.25,2.75,0.35,0.36,7.13
20.40,-5.59,-12.71,-5.60,-12.71,6.00,5.28,2.82,0.41,0.40,7.11
20.61,-5.56,-12.65,-5.56,-12.65,6.00,5.31,2.91,0.44,0.44,7.09
20.81,-5.51,-12.59,-5.52,-12.59,6.00,5.35,2.99,0.49,0.48,7.07
21.02,-5.48,-12.53,-5.47,-12.52,6.00,5.38,3.07,0.52,0.53,7.05
21.23,-5.44,-12.46,-5.43,-12.46,6.00,5.41,3.16,0.56,0.57,7.03
21.44,-5.38,-12.39,-5.39,-12.40,6.00,5.44,3.25,0.62,0.61,7.01
21.66,-5.35,-12.33,-5.35,-12.34,6.00,5.47,3.35,0.65,0.65,6.99
21.87,-5.30,-12.28,-5.30,-12.28,6.00,5.50,3.44,0.70,0.70,6.98
22.09,-5.26,-12.22,-5.27,-12.23,6.00,5.53,3.54,0.74,0.73,6.96
22.31,-5.22,-12.17,-5.22,-12.17,6.00,5.55,3.64,0.78,0.78,6.95
22.54,-5.19,-12.12,-5.18,-12.12,6.00,5.58,3.75,0.81,0.82,6.94
22.76,-5.14,-12.06,-5.14,-12.07,6.00,5.61,3.85,0.86,0.86,6.93
22.99,-5.10,-12.01,-5.10,-12.01,6.00,5.64,3.96,0.90,0.90,6.92
23.22,-5.06,-11.96,-5.05,-11.96,6.00,5.67,4.07,0.94,0.95,6.91
23.45,-5.02,-11.91,-5.02,-11.91,6.00,5.69,4.19,0.98,0.98,6.89
23.69,-4.98,-11.86,-4.98,-11.86,6.00,5.72,4.30,1.02,1.02,6.88
23.92,-4.93,-11.82,-4.94,-11.82,6.00,5.75,4.42,1.07,1.06,6.88
24.16,-4.89,-11.77,-4.90,-11.77,6.00,5.77,4.54,1.11,1.10,6.87
24.40,-4.85,-11.73,-4.85,-11.73,6.00,5.80,4.66,1.15,1.15,6.87
24.65,-4.82,-11.68,-4.82,-11.68,6.00,5.82,4.79,1.18,1.18,6.86
24.89,-4.77,-11.64,-4.77,-11.63,6.00,5.85,4.91,1.23,1.23,6.86
25.14,-4.73,-11.58,-4.74,-11.59,6.00,5.87,5.04,1.27,1.26,6.85
25.39,-4.69,-11.53,-4.69,-11.54,6.00,5.90,5.17,1.31,1.31,6.84
25.65,-4.66,-11.49,-4.65,-11.49,6.00,5.92,5.30,1.34,1.35,6.84
25.91,-4.61,-11.43,-4.61,-11.44,6.00,5.94,5.43,1.39,1.39,6.83
26.16,-4.56,-11.39,-4.57,-11.40,6.00,5.97,5.56,1.44,1.43,6.83
26.43,-4.54,-11.36,-4.53,-11.35,6.00,5.99,5.69,1.46,1.47,6.83
26.69,-4.50,-11.31,-4.50,-11.31,6.00,6.01,5.82,1.50,1.50,6.81
26.96,-4.46,-11.27,-4.46,-11.27,6.00,6.03,5.95,1.54,1.54,6.81
27.23,-4.42,-11.22,-4.42,-11.22,6.00,6.05,6.07,1.58,1.58,6.80
27.50,-4.38,-11.18,-4.38,-11.18,6.00,6.07,6.19,1.62,1.62,6.80
27.77,-4.34,-11.14,-4.34,-11.14,6.00,6.09,6.31,1.66,1.66,6.80
28.05,-4.31,-11.09,-4.31,-11.10,6.00,6.11,6.43,1.69,1.69,6.79
28.33,-4.28,-11.06,-4.27,-11.06,6.00,6.13,6.54,1.72,1.73,6.79
28.62,-4.24,-11.02,-4.24,-11.02,6.00,6.15,6.64,1.76,1.76,6.79
28.90,-4.20,-10.97,-4.20,-10.98,6.00,6.17,6.74,1.80,1.80,6.78
29.19,-4.17,-10.94,-4.16,-10.94,6.00,6.19,6.83,1.83,1.84,6.77
29.48,-4.13,-10.90,-4.13,-10.90,6.00,6.21,6.91,1.87,1.87,6.77
29.78,-4.10,-10.87,-4.09,-10.86,6.00,6.22,6.99,1.90,1.91,6.77
30.08,-4.06,-10.83,-4.06,-10.82,6.00,6.24,7.06,1.94,1.94,6.77
30.38,-4.03,-10.78,-4.02,-10.78,6.00,6.26,7.11,1.97,1.98,6.76
30.68,-3.99,-10.74,-3.99,-10.75,6.00,6.27,7.16,2.01,2.01,6.76
30.99,-3.96,-10.71,-3.96,-10.71,6.00,6.29,7.20,2.04,2.04,6.75
31.30,-3.93,-10.68,-3.92,-10.67,6.00,6.30,7.23,2.07,2.08,6.75
31.61,-3.90,-10.64,-3.90,-10.64,6.00,6.32,7.25,2.10,2.10,6.74
31.93,-3.87,-10.60,-3.86,-10.60,6.00,6.33,7.26,2.13,2.14,6.74
32.24,-3.83,-10.57,-3.84,-10.57,6.00,6.35,7.26,2.17,2.16,6.74
32.57,-3.81,-10.53,-3.81,-10.54,6.00,6.36,7.25,2.19,2.19,6.72
32.89,-3.79,-10.51,-3.78,-10.50,6.00,6.37,7.23,2.21,2.22,6.72
33.22,-3.76,-10.47,-3.76,-10.47,6.00,6.38,7.20,2.24,2.24,6.72
33.55,-3.74,-10.44,-3.73,-10.44,6.00,6.39,7.17,2.26,2.27,6.71
33.89,-3.71,-10.41,-3.70,-10.41,6.00,6.41,7.13,2.29,2.30,6.70
34.23,-3.68,-10.38,-3.68,-10.37,6.00,6.42,7.08,2.32,2.32,6.70
34.57,-3.65,-10.33,-3.65,-10.34,6.00,6.43,7.03,2.35,2.35,6.69
34.92,-3.63,-10.31,-3.62,-10.31,6.00,6.44,6.97,2.37,2.38,6.69
35.27,-3.60,-10.28,-3.60,-10.28,6.00,6.45,6.91,2.40,2.40,6.68
35.62,-3.58,-10.24,-3.57,-10.25,6.00,6.45,6.85,2.42,2.43,6.67
35.97,-3.55,-10.21,-3.55,-10.21,6.00,6.46,6.79,2.45,2.45,6.67
36.33,-3.53,-10.19,-3.52,-10.19,6.00,6.47,6.72,2.47,2.48,6.66
36.70,-3.50,-10.15,-3.50,-10.16,6.00,6.48,6.65,2.50,2.50,6.66
37.06,-3.48,-10.13,-3.47,-10.12,6.00,6.48,6.58,2.52,2.53,6.66
37.43,-3.44,-10.09,-3.44,-10.09,6.00,6.49,6.52,2.56,2.56,6.64
37.81,-3.42,-10.05,-3.42,-10.06,6.00,6.50,6.45,2.58,2.58,6.64
38.19,-3.40,-10.03,-3.40,-10.03,6.00,6.50,6.38,2.60,2.60,6.63
38.57,-3.39,-10.00,-3.38,-10.00,6.00,6.51,6.32,2.61,2.62,6.62
38.95,-3.37,-9.98,-3.36,-9.98,6.00,6.51,6.26,2.63,2.64,6.61
39.34,-3.35,-9.95,-3.35,-9.95,6.00,6.51,6.20,2.65,2.65,6.60
39.74,-3.33,-9.92,-3.33,-9.92,6.00,6.52,6.14,2.67,2.67,6.60
40.14,-3.31,-9.89,-3.31,-9.89,6.00,6.52,6.09,2.69,2.69,6.58
40.54,-3.29,-9.86,-3.29,-9.86,6.00,6.52,6.04,2.71,2.71,6.58
40.94,-3.27,-9.83,-3.27,-9.83,6.00,6.53,6.00,2.73,2.73,6.57
41.35,-3.25,-9.81,-3.25,-9.81,6.00,6.53,5.95,2.75,2.75,6.56
41.76,-3.23,-9.78,-3.23,-9.78,6.00,6.53,5.91,2.77,2.77,6.56
42.18,-3.21,-9.76,-3.21,-9.76,6.00,6.53,5.88,2.79,2.79,6.55
42.60,-3.19,-9.73,-3.18,-9.73,6.00,6.53,5.85,2.81,2.82,6.55
43.03,-3.17,-9.71,-3.16,-9.71,6.00,6.53,5.82,2.83,2.84,6.55
43.46,-3.14,-9.68,-3.14,-9.68,6.00,6.53,5.80,2.86,2.86,6.54
43.90,-3.12,-9.65,-3.11,-9.65,6.00,6.52,5.79,2.88,2.89,6.54
44.33,-3.09,-9.61,-3.09,-9.62,6.00,6.52,5.77,2.91,2.91,6.53
44.78,-3.07,-9.59,-3.07,-9.59,6.00,6.52,5.76,2.93,2.93,6.52
45.23,-3.05,-9.56,-3.04,-9.56,6.00,6.52,5.76,2.95,2.96,6.51
45.68,-3.03,-9.53,-3.03,-9.53,6.00,6.51,5.76,2.97,2.97,6.50
46.13,-3.01,-9.50,-3.01,-9.50,6.00,6.51,5.76,2.99,2.99,6.50
46.60,-2.99,-9.47,-2.99,-9.47,6.00,6.51,5.77,3.01,3.01,6.49
47.06,-2.97,-9.44,-2.97,-9.44,6.00,6.50,5.79,3.03,3.03,6.48
47.53,-2.95,-9.40,-2.95,-9.41,6.00,6.50,5.80,3.05,3.05,6.46
48.01,-2.93,-9.37,-2.92,-9.37,6.00,6.49,5.82,3.07,3.08,6.45
48.49,-2.91,-9.34,-2.90,-9.34,6.00,6.48,5.85,3.09,3.10,6.44
48.97,-2.88,-9.30,-2.88,-9.31,6.00,6.48,5.88,3.12,3.12,6.43
49.46,-2.87,-9.28,-2.87,-9.28,6.00,6.47,5.91,3.13,3.13,6.42
49.96,-2.86,-9.26,-2.86,-9.26,6.00,6.46,5.94,3.14,3.14,6.41
50.46,-2.86,-9.25,-2.85,-9.25,6.00,6.45,5.98,3.14,3.15,6.39
50.96,-2.85,-9.23,-2.84,-9.23,6.00,6.45,6.02,3.15,3.16,6.38
51.47,-2.84,-9.21,-2.84,-9.21,6.00,6.44,6.06,3.16,3.16,6.38
51.99,-2.83,-9.19,-2.83,-9.19,6.00,6.43,6.10,3.17,3.17,6.37
52.51,-2.82,-9.17,-2.82,-9.17,6.00,6.42,6.15,3.18,3.18,6.35
53.03,-2.81,-9.14,-2.80,-9.14,6.00,6.41,6.19,3.19,3.20,6.34
53.56,-2.79,-9.11,-2.79,-9.11,6.00,6.40,6.24,3.21,3.21,6.32
54.10,-2.77,-9.08,-2.77,-9.08,6.00,6.39,6.29,3.23,3.23,6.32
54.64,-2.75,-9.05,-2.75,-9.05,6.00,6.38,6.33,3.25,3.25,6.30
55.18,-2.73,-9.01,-2.73,-9.02,6.00,6.37,6.38,3.27,3.27,6.29
55.74,-2.72,-8.99,-2.71,-8.98,6.00,6.35,6.42,3.28,3.29,6.27
56.29,-2.70,-8.96,-2.70,-8.95,6.00,6.34,6.46,3.30,3.30,6.26
56.86,-2.68,-8.92,-2.68,-8.92,6.00,6.33,6.50,3.32,3.32,6.25
57.42,-2.67,-8.89,-2.66,-8.89,6.00,6.32,6.54,3.33,3.34,6.23
58.00,-2.65,-8.86,-2.65,-8.86,6.00,6.30,6.57,3.35,3.35,6.22
58.58,-2.64,-8.83,-2.64,-8.84,6.00,6.29,6.60,3.36,3.36,6.20
59.16,-2.64,-8.81,-2.63,-8.81,6.00,6.27,6.63,3.36,3.37,6.18
59.76,-2.62,-8.78,-2.61,-8.78,6.00,6.26,6.64,3.38,3.39,6.17
60.35,-2.60,-8.74,-2.59,-8.74,6.00,6.25,6.66,3.40,3.41,6.15
60.96,-2.57,-8.69,-2.57,-8.69,6.00,6.23,6.67,3.43,3.43,6.12
61.57,-2.55,-8.65,-2.55,-8.65,6.00,6.22,6.67,3.45,3.45,6.10
62.18,-2.53,-8.60,-2.53,-8.60,6.00,6.20,6.66,3.47,3.47,6.08
62.80,-2.52,-8.57,-2.51,-8.56,6.00,6.19,6.65,3.48,3.49,6.05
63.43,-2.50,-8.52,-2.49,-8.52,6.00,6.17,6.63,3.50,3.51,6.03
64.07,-2.48,-8.48,-2.48,-8.48,6.00,6.15,6.61,3.52,3.52,6.00
64.71,-2.46,-8.43,-2.45,-8.43,6.00,6.14,6.58,3.54,3.55,5.97
65.35,-2.44,-8.38,-2.44,-8.38,6.00,6.12,6.55,3.56,3.56,5.95
66.01,-2.43,-8.34,-2.42,-8.34,6.00,6.11,6.50,3.57,3.58,5.92
66.67,-2.42,-8.31,-2.42,-8.31,6.00,6.09,6.46,3.58,3.58,5.89
67.33,-2.42,-8.28,-2.42,-8.28,6.00,6.08,6.41,3.58,3.58,5.86
68.01,-2.43,-8.26,-2.42,-8.25,6.00,6.06,6.35,3.57,3.58,5.83
68.69,-2.43,-8.22,-2.43,-8.22,6.00,6.04,6.29,3.57,3.57,5.80
69.37,-2.43,-8.19,-2.43,-8.20,6.00,6.03,6.23,3.57,3.57,5.77
70.07,-2.44,-8.17,-2.43,-8.17,6.00,6.01,6.17,3.56,3.57,5.73
70.77,-2.44,-8.14,-2.43,-8.14,6.00,6.00,6.10,3.56,3.57,5.70
71.48,-2.43,-8.10,-2.43,-8.10,6.00,5.98,6.03,3.57,3.57,5.68
72.19,-2.42,-8.05,-2.41,-8.05,6.00,5.97,5.96,3.58,3.59,5.64
72.91,-2.40,-8.00,-2.40,-8.00,6.00,5.95,5.89,3.60,3.60,5.60
73.64,-2.38,-7.94,-2.38,-7.95,6.00,5.94,5.82,3.62,3.62,5.57
74.38,-2.36,-7.89,-2.36,-7.89,6.00,5.92,5.75,3.64,3.64,5.54
75.12,-2.34,-7.83,-2.33,-7.83,6.00,5.91,5.68,3.66,3.67,5.50
75.87,-2.31,-7.77,-2.31,-7.77,6.00,5.90,5.61,3.69,3.69,5.47
76.63,-2.28,-7.70,-2.28,-7.71,6.00,5.89,5.54,3.72,3.72,5.43
77.40,-2.26,-7.64,-2.25,-7.64,6.00,5.88,5.47,3.74,3.75,5.39
78.17,-2.23,-7.58,-2.23,-7.58,6.00,5.87,5.41,3.77,3.77,5.35
78.95,-2.21,-7.52,-2.20,-7.51,6.00,5.86,5.35,3.79,3.80,5.31
79.74,-2.18,-7.44,-2.17,-7.44,6.00,5.85,5.29,3.82,3.83,5.27
80.54,-2.15,-7.38,-2.15,-7.38,6.00,5.85,5.23,3.85,3.85,5.23
81.35,-2.13,-7.31,-2.13,-7.31,6.00,5.85,5.18,3.87,3.87,5.19
82.16,-2.12,-7.26,-2.11,-7.25,6.00,5.84,5.13,3.88,3.89,5.14
82.98,-2.10,-7.19,-2.10,-7.19,6.00,5.84,5.08,3.90,3.90,5.09
83.81,-2.09,-7.13,-2.09,-7.13,6.00,5.84,5.04,3.91,3.91,5.04
84.65,-2.08,-7.08,-2.08,-7.08,6.00,5.85,5.00,3.92,3.92,5.01
85.50,-2.08,-7.03,-2.07,-7.03,6.00,5.85,4.96,3.92,3.93,4.96
86.35,-2.08,-6.98,-2.08,-6.98,6.00,5.86,4.93,3.92,3.92,4.91
87.22,-2.09,-6.94,-2.09,-6.94,6.00,5.87,4.90,3.91,3.91,4.86
88.09,-2.11,-6.91,-2.10,-6.91,6.00,5.88,4.87,3.89,3.90,4.80
88.97,-2.12,-6.87,-2.12,-6.87,6.00,5.90,4.85,3.88,3.88,4.75
89.86,-2.13,-6.82,-2.12,-6.82,6.00,5.92,4.84,3.87,3.88,4.70
90.76,-2.13,-6.77,-2.12,-6.77,6.00,5.93,4.82,3.87,3.88,4.65
91.66,-2.12,-6.71,-2.12,-6.71,6.00,5.95,4.81,3.88,3.88,4.59
92.58,-2.11,-6.64,-2.10,-6.64,6.00,5.97,4.80,3.89,3.90,4.54
93.51,-2.09,-6.57,-2.09,-6.57,6.00,5.99,4.80,3.92,3.91,4.48
94.44,-2.07,-6.49,-2.07,-6.49,6.01,6.00,4.80,3.94,3.94,4.43
95.39,-2.05,-6.42,-2.04,-6.41,6.01,6.01,4.80,3.97,3.97,4.37
96.34,-2.02,-6.33,-2.01,-6.33,6.02,6.02,4.81,4.00,4.00,4.31
97.30,-1.98,-6.24,-1.98,-6.25,6.01,6.02,4.82,4.03,4.03,4.27
98.28,-1.95,-6.16,-1.95,-6.16,5.99,6.01,4.83,4.05,4.05,4.21
99.26,-1.92,-6.07,-1.91,-6.07,5.96,5.99,4.84,4.05,4.05,4.15
100.25,-1.88,-5.97,-1.88,-5.98,5.92,5.96,4.86,4.05,4.05,4.10
101.25,-1.85,-5.88,-1.85,-5.89,5.87,5.92,4.88,4.03,4.03,4.04
102.27,-1.83,-5.81,-1.82,-5.81,5.81,5.88,4.90,3.99,3.99,3.98
103.29,-1.81,-5.73,-1.80,-5.73,5.75,5.82,4.92,3.94,3.94,3.92
104.32,-1.79,-5.66,-1.79,-5.66,5.68,5.75,4.94,3.89,3.89,3.88
105.37,-1.78,-5.59,-1.77,-5.59,5.61,5.68,4.97,3.83,3.83,3.82
106.42,-1.77,-5.53,-1.76,-5.53,5.54,5.60,4.99,3.77,3.78,3.76
107.48,-1.76,-5.47,-1.76,-5.47,5.48,5.52,5.02,3.72,3.72,3.71
108.56,-1.77,-5.42,-1.77,-5.42,5.43,5.43,5.04,3.66,3.66,3.65
109.64,-1.78,-5.37,-1.78,-5.38,5.38,5.35,5.07,3.60,3.60,3.60
110.74,-1.80,-5.34,-1.79,-5.33,5.32,5.26,5.09,3.53,3.53,3.54
111.85,-1.80,-5.28,-1.79,-5.28,5.27,5.17,5.11,3.47,3.47,3.48
112.97,-1.79,-5.22,-1.79,-5.22,5.21,5.08,5.13,3.42,3.42,3.44
114.10,-1.78,-5.15,-1.77,-5.15,5.15,4.99,5.15,3.37,3.37,3.38
115.24,-1.75,-5.07,-1.75,-5.08,5.08,4.91,5.16,3.33,3.32,3.32
116.39,-1.74,-5.00,-1.73,-5.00,5.00,4.83,5.17,3.26,3.27,3.27
117.55,-1.71,-4.93,-1.70,-4.92,4.92,4.75,5.18,3.21,3.21,3.22
118.73,-1.68,-4.84,-1.67,-4.84,4.83,4.67,5.18,3.16,3.16,3.17
119.92,-1.63,-4.74,-1.63,-4.75,4.75,4.60,5.18,3.12,3.12,3.11
121.12,-1.60,-4.65,-1.60,-4.66,4.66,4.52,5.17,3.07,3.07,3.06
122.33,-1.57,-4.58,-1.56,-4.57,4.58,4.45,5.15,3.01,3.02,3.01
123.55,-1.54,-4.50,-1.53,-4.50,4.50,4.38,5.14,2.96,2.96,2.96
124.79,-1.51,-4.42,-1.51,-4.42,4.42,4.32,5.11,2.91,2.91,2.92
126.03,-1.48,-4.34,-1.48,-4.35,4.35,4.25,5.08,2.87,2.87,2.87
127.29,-1.47,-4.29,-1.46,-4.28,4.29,4.19,5.05,2.82,2.83,2.83
128.57,-1.45,-4.22,-1.45,-4.22,4.23,4.13,5.01,2.78,2.78,2.78
129.85,-1.44,-4.16,-1.44,-4.16,4.18,4.07,4.96,2.74,2.74,2.73
131.15,-1.44,-4.11,-1.44,-4.12,4.13,4.01,4.91,2.70,2.69,2.68
132.46,-1.45,-4.08,-1.45,-4.08,4.09,3.96,4.86,2.64,2.64,2.64
133.79,-1.47,-4.06,-1.46,-4.05,4.04,3.90,4.80,2.58,2.58,2.59
135.12,-1.48,-4.02,-1.47,-4.01,4.00,3.85,4.73,2.52,2.53,2.54
136.48,-1.47,-3.96,-1.46,-3.96,3.95,3.79,4.66,2.48,2.49,2.50
137.84,-1.45,-3.90,-1.45,-3.91,3.90,3.74,4.59,2.45,2.45,2.45
139.22,-1.44,-3.84,-1.43,-3.84,3.84,3.69,4.51,2.41,2.41,2.41
140.61,-1.42,-3.78,-1.41,-3.78,3.78,3.64,4.43,2.36,2.37,2.37
142.02,-1.38,-3.71,-1.38,-3.71,3.71,3.59,4.35,2.34,2.33,2.33
143.44,-1.36,-3.65,-1.35,-3.64,3.64,3.54,4.27,2.29,2.29,2.29
144.87,-1.32,-3.57,-1.32,-3.57,3.57,3.49,4.18,2.26,2.25,2.25
146.32,-1.29,-3.51,-1.29,-3.50,3.50,3.44,4.10,2.22,2.22,2.22
147.78,-1.26,-3.44,-1.25,-3.43,3.43,3.40,4.01,2.18,2.18,2.18
149.26,-1.23,-3.37,-1.22,-3.37,3.37,3.35,3.92,2.14,2.14,2.14
150.75,-1.20,-3.31,-1.19,-3.30,3.31,3.30,3.84,2.11,2.11,2.11
152.26,-1.17,-3.24,-1.17,-3.25,3.25,3.26,3.75,2.09,2.09,2.08
153.78,-1.15,-3.19,-1.15,-3.19,3.20,3.21,3.66,2.06,2.06,2.04
155.32,-1.14,-3.15,-1.13,-3.15,3.16,3.17,3.58,2.02,2.02,2.02
156.88,-1.13,-3.11,-1.13,-3.11,3.12,3.12,3.49,1.99,1.99,1.98
158.44,-1.13,-3.08,-1.13,-3.08,3.08,3.08,3.40,1.95,1.95,1.95
160.03,-1.13,-3.04,-1.12,-3.04,3.04,3.03,3.32,1.91,1.91,1.92
161.63,-1.12,-3.00,-1.12,-3.00,3.00,2.99,3.24,1.88,1.88,1.89
163.24,-1.11,-2.97,-1.10,-2.96,2.95,2.95,3.16,1.85,1.85,1.87
164.88,-1.08,-2.91,-1.08,-2.91,2.91,2.91,3.08,1.83,1.83,1.84
166.53,-1.06,-2.86,-1.05,-2.86,2.86,2.86,3.00,1.80,1.80,1.81
168.19,-1.03,-2.80,-1.02,-2.80,2.80,2.82,2.93,1.78,1.78,1.78
169.87,-0.99,-2.75,-0.99,-2.75,2.75,2.78,2.85,1.76,1.75,1.76
171.57,-0.96,-2.69,-0.95,-2.69,2.69,2.74,2.78,1.73,1.74,1.73
173.29,-0.93,-2.63,-0.92,-2.63,2.64,2.70,2.71,1.71,1.72,1.71
175.02,-0.89,-2.57,-0.89,-2.58,2.59,2.65,2.64,1.70,1.70,1.68
176.77,-0.87,-2.53,-0.86,-2.53,2.54,2.61,2.57,1.67,1.67,1.67
178.54,-0.85,-2.49,-0.85,-2.49,2.49,2.57,2.51,1.65,1.64,1.64
180.32,-0.84,-2.46,-0.83,-2.46,2.45,2.53,2.45,1.62,1.62,1.62
182.13,-0.83,-2.42,-0.82,-2.42,2.41,2.49,2.39,1.59,1.59,1.60
183.95,-0.80,-2.37,-0.80,-2.38,2.37,2.45,2.33,1.58,1.57,1.58
185.79,-0.78,-2.33,-0.78,-2.33,2.33,2.41,2.27,1.56,1.56,1.56
187.65,-0.76,-2.29,-0.76,-2.29,2.29,2.37,2.22,1.54,1.53,1.53
189.52,-0.74,-2.25,-0.74,-2.25,2.25,2.33,2.16,1.51,1.51,1.51
191.42,-0.73,-2.22,-0.72,-2.21,2.21,2.30,2.11,1.48,1.49,1.50
193.33,-0.69,-2.16,-0.69,-2.16,2.16,2.26,2.06,1.48,1.47,1.48
195.27,-0.66,-2.11,-0.66,-2.12,2.12,2.22,2.01,1.46,1.46,1.46
197.22,-0.63,-2.07,-0.63,-2.07,2.08,2.18,1.97,1.45,1.45,1.44
199.19,-0.61,-2.03,-0.60,-2.03,2.04,2.14,1.92,1.43,1.43,1.42
201.18,-0.58,-1.99,-0.58,-2.00,1.99,2.10,1.88,1.42,1.41,1.42
203.19,-0.56,-1.96,-0.55,-1.96,1.95,2.06,1.83,1.40,1.40,1.40
205.23,-0.53,-1.92,-0.52,-1.92,1.91,2.03,1.79,1.38,1.39,1.40
207.28,-0.49,-1.87,-0.49,-1.87,1.87,1.99,1.75,1.38,1.38,1.38
209.35,-0.46,-1.82,-0.46,-1.83,1.83,1.95,1.71,1.37,1.37,1.37
211.44,-0.43,-1.79,-0.42,-1.79,1.79,1.91,1.68,1.36,1.36,1.37
213.56,-0.40,-1.75,-0.39,-1.74,1.75,1.87,1.64,1.35,1.35,1.35
215.69,-0.37,-1.70,-0.36,-1.71,1.71,1.84,1.61,1.35,1.35,1.34
217.85,-0.34,-1.66,-0.34,-1.67,1.67,1.80,1.57,1.34,1.33,1.33
220.03,-0.32,-1.64,-0.32,-1.64,1.64,1.76,1.54,1.32,1.32,1.32
222.23,-0.30,-1.61,-0.29,-1.60,1.60,1.73,1.50,1.31,1.31,1.31
224.45,-0.27,-1.57,-0.26,-1.57,1.56,1.69,1.47,1.30,1.30,1.30
226.70,-0.24,-1.53,-0.24,-1.53,1.53,1.65,1.44,1.29,1.29,1.29
228.96,-0.21,-1.50,-0.21,-1.50,1.49,1.61,1.41,1.29,1.28,1.29
231.25,-0.19,-1.47,-0.18,-1.46,1.46,1.58,1.38,1.27,1.28,1.28
233.57,-0.15,-1.42,-0.15,-1.42,1.42,1.54,1.35,1.28,1.28,1.27
235.90,-0.11,-1.38,-0.11,-1.38,1.39,1.50,1.32,1.28,1.28,1.27
238.26,-0.09,-1.35,-0.08,-1.35,1.36,1.47,1.29,1.27,1.28,1.26
240.64,-0.06,-1.32,-0.06,-1.33,1.33,1.43,1.27,1.27,1.27,1.26
243.05,-0.05,-1.31,-0.04,-1.30,1.30,1.39,1.24,1.26,1.26,1.27
245.48,-0.02,-1.28,-0.02,-1.28,1.28,1.36,1.21,1.26,1.26,1.27
247.93,0.01,-1.25,0.01,-1.25,1.25,1.32,1.18,1.27,1.26,1.26
250.41,0.03,-1.23,0.04,-1.23,1.22,1.29,1.15,1.26,1.26,1.26
252.92,0.07,-1.19,0.07,-1.20,1.19,1.25,1.13,1.27,1.26,1.27
255.45,0.09,-1.17,0.10,-1.17,1.16,1.21,1.10,1.26,1.26,1.27
258.00,0.13,-1.13,0.13,-1.13,1.13,1.18,1.07,1.26,1.26,1.26
260.58,0.16,-1.10,0.17,-1.10,1.09,1.14,1.04,1.26,1.26,1.27
263.19,0.20,-1.06,0.21,-1.06,1.06,1.10,1.02,1.26,1.26,1.26
265.82,0.24,-1.01,0.24,-1.02,1.03,1.07,0.99,1.27,1.26,1.25
268.48,0.26,-0.99,0.27,-0.99,0.99,1.03,0.96,1.26,1.26,1.26
271.16,0.29,-0.96,0.30,-0.96,0.97,1.00,0.93,1.26,1.26,1.25
273.87,0.32,-0.92,0.32,-0.93,0.94,0.96,0.91,1.26,1.26,1.25
276.61,0.34,-0.91,0.34,-0.91,0.91,0.92,0.88,1.25,1.25,1.25
279.38,0.36,-0.88,0.36,-0.89,0.88,0.89,0.85,1.24,1.24,1.25
282.17,0.38,-0.87,0.39,-0.86,0.85,0.85,0.83,1.23,1.24,1.25
284.99,0.42,-0.82,0.42,-0.82,0.81,0.82,0.80,1.24,1.24,1.25
287.84,0.46,-0.78,0.46,-0.78,0.78,0.78,0.77,1.24,1.24,1.24
290.72,0.50,-0.74,0.51,-0.73,0.74,0.75,0.74,1.24,1.25,1.24
293.63,0.54,-0.69,0.54,-0.69,0.70,0.71,0.72,1.25,1.25,1.24
296.57,0.57,-0.66,0.58,-0.66,0.67,0.67,0.69,1.24,1.24,1.23
299.53,0.60,-0.63,0.61,-0.63,0.64,0.64,0.66,1.24,1.24,1.24
302.53,0.63,-0.60,0.63,-0.60,0.61,0.60,0.64,1.24,1.24,1.24
305.55,0.65,-0.58,0.66,-0.58,0.58,0.57,0.61,1.24,1.24,1.23
308.61,0.68,-0.55,0.68,-0.55,0.56,0.54,0.58,1.24,1.24,1.24
311.69,0.70,-0.53,0.70,-0.54,0.53,0.50,0.56,1.24,1.23,1.24
314.81,0.71,-0.53,0.72,-0.52,0.51,0.47,0.53,1.22,1.23,1.24
317.96,0.74,-0.49,0.75,-0.49,0.48,0.43,0.51,1.23,1.23,1.24
321.14,0.78,-0.46,0.78,-0.46,0.46,0.40,0.48,1.24,1.24,1.25
324.35,0.81,-0.43,0.82,-0.42,0.43,0.37,0.45,1.24,1.25,1.24
327.59,0.85,-0.39,0.85,-0.39,0.40,0.34,0.43,1.26,1.25,1.24
330.87,0.88,-0.36,0.88,-0.36,0.37,0.31,0.40,1.26,1.26,1.25
334.18,0.90,-0.35,0.91,-0.34,0.35,0.27,0.38,1.25,1.26,1.26
337.52,0.94,-0.31,0.93,-0.32,0.32,0.24,0.35,1.26,1.25,1.25
340.90,0.95,-0.31,0.96,-0.30,0.29,0.22,0.33,1.24,1.25,1.26
344.30,0.98,-0.27,0.99,-0.27,0.26,0.19,0.30,1.25,1.25,1.26
347.75,1.02,-0.23,1.02,-0.24,0.24,0.16,0.28,1.26,1.26,1.26
351.23,1.05,-0.20,1.06,-0.20,0.21,0.13,0.25,1.26,1.27,1.26
354.74,1.08,-0.18,1.08,-0.18,0.19,0.11,0.23,1.27,1.27,1.26
358.28,1.10,-0.16,1.10,-0.16,0.16,0.08,0.20,1.27,1.27,1.26
361.87,1.11,-0.15,1.12,-0.14,0.14,0.06,0.18,1.26,1.26,1.26
365.49,1.13,-0.12,1.13,-0.13,0.13,0.03,0.15,1.26,1.26,1.26
369.14,1.14,-0.11,1.14,-0.11,0.11,0.01,0.13,1.26,1.26,1.26
372.83,1.15,-0.10,1.16,-0.10,0.10,-0.01,0.10,1.25,1.26,1.25
376.56,1.17,-0.09,1.17,-0.09,0.09,-0.03,0.08,1.26,1.26,1.26
380.33,1.18,-0.08,1.19,-0.07,0.07,-0.05,0.05,1.25,1.25,1.26
384.13,1.20,-0.06,1.21,-0.05,0.05,-0.06,0.03,1.25,1.26,1.26
387.97,1.23,-0.02,1.23,-0.03,0.02,-0.08,0.00,1.26,1.26,1.26
391.85,1.26,-0.00,1.26,-0.00,-0.00,-0.09,-0.02,1.26,1.26,1.27
395.77,1.29,0.03,1.30,0.03,-0.03,-0.11,-0.04,1.27,1.27,1.27
399.73,1.33,0.06,1.33,0.06,-0.06,-0.12,-0.07,1.28,1.27,1.28
403.72,1.36,0.09,1.37,0.09,-0.09,-0.13,-0.09,1.28,1.28,1.27
407.76,1.39,0.11,1.40,0.11,-0.12,-0.14,-0.11,1.28,1.28,1.28
411.84,1.42,0.14,1.42,0.14,-0.14,-0.14,-0.14,1.29,1.28,1.28
415.96,1.44,0.15,1.45,0.16,-0.16,-0.15,-0.16,1.29,1.29,1.29
420.12,1.47,0.18,1.47,0.18,-0.17,-0.15,-0.18,1.30,1.30,1.29
424.32,1.48,0.20,1.49,0.19,-0.18,-0.16,-0.20,1.30,1.30,1.29
428.56,1.49,0.20,1.49,0.20,-0.19,-0.16,-0.22,1.31,1.31,1.30
432.85,1.48,0.19,1.48,0.19,-0.19,-0.16,-0.24,1.30,1.30,1.30
437.18,1.47,0.18,1.48,0.18,-0.18,-0.16,-0.26,1.29,1.29,1.30
441.55,1.46,0.17,1.47,0.17,-0.18,-0.16,-0.28,1.28,1.29,1.30
445.96,1.46,0.17,1.46,0.17,-0.18,-0.16,-0.29,1.29,1.29,1.30
450.42,1.46,0.17,1.46,0.17,-0.17,-0.16,-0.31,1.29,1.29,1.29
454.93,1.46,0.17,1.46,0.17,-0.17,-0.15,-0.32,1.29,1.29,1.29
459.48,1.46,0.17,1.46,0.17,-0.17,-0.15,-0.33,1.30,1.30,1.29
464.07,1.46,0.17,1.46,0.17,-0.17,-0.14,-0.35,1.30,1.30,1.29
468.71,1.46,0.17,1.46,0.17,-0.17,-0.14,-0.36,1.30,1.30,1.29
473.40,1.46,0.17,1.46,0.17,-0.17,-0.13,-0.36,1.30,1.30,1.29
478.13,1.46,0.16,1.46,0.17,-0.17,-0.12,-0.37,1.30,1.30,1.30
482.91,1.46,0.16,1.46,0.17,-0.17,-0.12,-0.37,1.30,1.30,1.30
487.74,1.46,0.16,1.46,0.16,-0.16,-0.11,-0.38,1.30,1.30,1.30
492.62,1.46,0.17,1.46,0.16,-0.16,-0.10,-0.38,1.30,1.30,1.30
497.55,1.46,0.16,1.46,0.16,-0.16,-0.09,-0.38,1.31,1.31,1.31
502.52,1.46,0.16,1.46,0.16,-0.16,-0.08,-0.37,1.31,1.31,1.31
507.55,1.46,0.16,1.46,0.16,-0.16,-0.07,-0.37,1.31,1.31,1.31
512.62,1.46,0.16,1.46,0.15,-0.15,-0.06,-0.36,1.31,1.31,1.31
517.75,1.46,0.15,1.46,0.15,-0.15,-0.05,-0.35,1.31,1.31,1.32
