frequency,raw,error,smoothed,error_smoothed,equalization,parametric_eq,fixed_band_eq,equalized_raw,equalized_smoothed,target
20.00,-16.98,-20.50,-16.98,-20.50,6.00,5.81,2.62,-10.98,-10.98,3.52
20.20,-16.88,-20.44,-16.87,-20.43,6.00,5.84,2.69,-10.88,-10.87,3.56
20.40,-16.77,-20.37,-16.77,-20.37,6.00,5.86,2.77,-10.77,-10.77,3.60
20.61,-16.67,-20.29,-16.67,-20.29,6.00,5.88,2.85,-10.67,-10.67,3.62
20.81,-16.56,-20.22,-16.56,-20.22,6.00,5.91,2.93,-10.56,-10.56,3.66
21.02,-16.46,-20.16,-16.46,-20.15,6.00,5.93,3.01,-10.46,-10.46,3.70
21.23,-16.35,-20.07,-16.35,-20.07,6.00,5.95,3.10,-10.35,-10.35,3.72
21.44,-16.25,-19.99,-16.25,-19.99,6.00,5.97,3.19,-10.25,-10.25,3.74
21.66,-16.14,-19.90,-16.14,-19.89,6.00,5.98,3.28,-10.14,-10.14,3.76
21.87,-16.03,-19.79,-16.03,-19.80,6.00,6.00,3.38,-10.03,-10.03,3.77
22.09,-15.92,-19.70,-15.92,-19.70,6.00,6.02,3.47,-9.92,-9.92,3.79
22.31,-15.81,-19.60,-15.81,-19.60,6.00,6.03,3.57,-9.81,-9.81,3.80
22.54,-15.70,-19.50,-15.70,-19.50,6.00,6.04,3.68,-9.70,-9.70,3.80
22.76,-15.59,-19.39,-15.59,-19.39,6.00,6.06,3.78,-9.59,-9.59,3.81
22.99,-15.48,-19.28,-15.47,-19.28,6.00,6.07,3.89,-9.48,-9.47,3.81
23.22,-15.36,-19.17,-15.36,-19.18,6.00,6.08,4.00,-9.36,-9.36,3.82
23.45,-15.25,-19.07,-15.25,-19.07,6.00,6.09,4.11,-9.25,-9.25,3.83
23.69,-15.14,-18.98,-15.14,-18.98,6.00,6.09,4.22,-9.14,-9.14,3.84
23.92,-15.03,-18.88,-15.02,-18.88,6.00,6.10,4.34,-9.03,-9.02,3.86
24.16,-14.91,-18.78,-14.91,-18.78,6.00,6.11,4.46,-8.91,-8.91,3.88
24.40,-14.80,-18.68,-14.79,-18.68,6.00,6.11,4.58,-8.80,-8.79,3.88
24.65,-14.68,-18.56,-14.68,-18.57,6.00,6.12,4.70,-8.68,-8.68,3.88
24.89,-14.57,-18.47,-14.56,-18.47,6.00,6.12,4.83,-8.57,-8.56,3.90
25.14,-14.45,-18.36,-14.45,-18.36,6.00,6.12,4.95,-8.45,-8.45,3.91
25.39,-14.34,-18.26,-14.33,-18.26,6.00,6.12,5.08,-8.34,-8.33,3.92
25.65,-14.22,-18.15,-14.22,-18.15,6.00,6.13,5.21,-8.22,-8.22,3.93
25.91,-14.10,-18.04,-14.10,-18.04,6.00,6.13,5.33,-8.10,-8.10,3.94
26.16,-13.99,-17.94,-13.98,-17.94,6.00,6.12,5.46,-7.99,-7.98,3.95
26.43,-13.87,-17.83,-13.87,-17.83,6.00,6.12,5.59,-7.87,-7.87,3.96
26.69,-13.75,-17.73,-13.75,-17.73,6.00,6.12,5.72,-7.75,-7.75,3.98
26.96,-13.64,-17.63,-13.64,-17.63,6.00,6.12,5.84,-7.64,-7.64,3.99
27.23,-13.52,-17.52,-13.52,-17.52,6.00,6.11,5.97,-7.52,-7.52,4.00
27.50,-13.40,-17.42,-13.40,-17.41,6.00,6.11,6.09,-7.40,-7.40,4.02
27.77,-13.28,-17.29,-13.28,-17.30,6.00,6.11,6.20,-7.28,-7.28,4.02
28.05,-13.16,-17.19,-13.16,-17.19,6.00,6.10,6.32,-7.16,-7.16,4.04
28.33,-13.04,-17.07,-13.03,-17.07,6.00,6.10,6.43,-7.04,-7.03,4.04
28.62,-12.91,-16.96,-12.91,-16.96,6.00,6.09,6.53,-6.91,-6.91,4.05
28.90,-12.79,-16.85,-12.79,-16.85,6.00,6.08,6.63,-6.79,-6.79,4.06
29.19,-12.67,-16.74,-12.67,-16.74,6.00,6.08,6.72,-6.67,-6.67,4.07
29.48,-12.55,-16.64,-12.55,-16.63,6.00,6.07,6.80,-6.55,-6.55,4.09
29.78,-12.42,-16.52,-12.42,-16.52,6.00,6.06,6.88,-6.42,-6.42,4.10
30.08,-12.30,-16.41,-12.30,-16.41,6.00,6.06,6.95,-6.30,-6.30,4.11
30.38,-12.17,-16.29,-12.17,-16.29,6.00,6.05,7.00,-6.17,-6.17,4.12
30.68,-12.05,-16.18,-12.05,-16.18,6.00,6.04,7.05,-6.05,-6.05,4.13
30.99,-11.93,-16.07,-11.92,-16.06,6.00,6.03,7.09,-5.93,-5.92,4.14
31.30,-11.80,-15.94,-11.80,-15.95,6.00,6.03,7.12,-5.80,-5.80,4.15
31.61,-11.67,-15.83,-11.67,-15.83,6.00,6.02,7.15,-5.67,-5.67,4.16
31.93,-11.54,-15.70,-11.54,-15.70,6.00,6.01,7.16,-5.54,-5.54,4.16
32.24,-11.41,-15.58,-11.41,-15.58,6.00,6.00,7.16,-5.41,-5.41,4.17
32.57,-11.28,-15.46,-11.28,-15.46,6.00,6.00,7.15,-5.28,-5.28,4.18
32.89,-11.15,-15.35,-11.15,-15.34,6.00,5.99,7.14,-5.15,-5.15,4.20
33.22,-11.02,-15.21,-11.02,-15.22,6.00,5.98,7.11,-5.02,-5.02,4.20
33.55,-10.90,-15.11,-10.89,-15.11,6.00,5.97,7.08,-4.90,-4.89,4.22
33.89,-10.77,-14.98,-10.77,-14.99,6.00,5.97,7.05,-4.77,-4.77,4.21
34.23,-10.64,-14.87,-10.64,-14.86,6.00,5.96,7.00,-4.64,-4.64,4.23
34.57,-10.51,-14.74,-10.51,-14.74,6.00,5.96,6.96,-4.51,-4.51,4.23
34.92,-10.38,-14.62,-10.38,-14.62,6.00,5.95,6.90,-4.38,-4.38,4.24
35.27,-10.26,-14.51,-10.26,-14.50,6.00,5.94,6.85,-4.26,-4.26,4.25
35.62,-10.14,-14.38,-10.14,-14.38,6.00,5.94,6.79,-4.14,-4.14,4.24
35.97,-10.02,-14.26,-10.02,-14.27,6.00,5.93,6.73,-4.02,-4.02,4.24
36.33,-9.90,-14.16,-9.89,-14.14,6.00,5.93,6.66,-3.90,-3.89,4.26
36.70,-9.77,-14.03,-9.77,-14.02,6.00,5.93,6.60,-3.77,-3.77,4.26
37.06,-9.65,-13.89,-9.65,-13.90,6.00,5.92,6.53,-3.65,-3.65,4.25
37.43,-9.54,-13.79,-9.54,-13.79,6.00,5.92,6.47,-3.54,-3.54,4.25
37.81,-9.43,-13.68,-9.43,-13.68,6.00,5.92,6.40,-3.43,-3.43,4.25
38.19,-9.32,-13.57,-9.32,-13.57,6.00,5.92,6.34,-3.32,-3.32,4.25
38.57,-9.21,-13.46,-9.21,-13.46,6.00,5.92,6.28,-3.21,-3.21,4.26
38.95,-9.10,-13.34,-9.10,-13.34,6.00,5.92,6.22,-3.10,-3.10,4.24
39.34,-9.00,-13.24,-8.99,-13.23,6.00,5.92,6.16,-3.00,-2.99,4.24
39.74,-8.89,-13.11,-8.89,-13.12,6.00,5.92,6.11,-2.89,-2.89,4.23
40.14,-8.79,-13.02,-8.79,-13.02,6.00,5.92,6.06,-2.79,-2.79,4.23
40.54,-8.69,-12.91,-8.68,-12.91,6.00,5.92,6.01,-2.69,-2.68,4.22
40.94,-8.58,-12.80,-8.58,-12.80,6.00,5.92,5.97,-2.58,-2.58,4.23
41.35,-8.48,-12.70,-8.48,-12.70,6.00,5.92,5.93,-2.48,-2.48,4.22
41.76,-8.38,-12.60,-8.38,-12.60,6.00,5.93,5.89,-2.38,-2.38,4.22
42.18,-8.28,-12.50,-8.27,-12.49,6.00,5.93,5.86,-2.28,-2.27,4.22
42.60,-8.17,-12.39,-8.17,-12.39,6.00,5.93,5.83,-2.17,-2.17,4.22
43.03,-8.07,-12.29,-8.07,-12.29,6.00,5.94,5.81,-2.07,-2.07,4.23
43.46,-7.98,-12.20,-7.97,-12.20,6.00,5.95,5.79,-1.98,-1.97,4.22
43.90,-7.88,-12.10,-7.88,-12.10,6.00,5.95,5.77,-1.88,-1.88,4.22
44.33,-7.79,-12.00,-7.79,-12.00,6.00,5.96,5.76,-1.79,-1.79,4.21
44.78,-7.69,-11.90,-7.69,-11.90,6.00,5.96,5.75,-1.69,-1.69,4.21
45.23,-7.59,-11.80,-7.59,-11.80,6.00,5.97,5.75,-1.59,-1.59,4.21
45.68,-7.49,-11.70,-7.49,-11.70,6.00,5.98,5.75,-1.49,-1.49,4.21
46.13,-7.39,-11.60,-7.39,-11.60,6.00,5.99,5.76,-1.39,-1.39,4.21
46.60,-7.29,-11.52,-7.29,-11.51,6.00,6.00,5.76,-1.29,-1.29,4.23
47.06,-7.19,-11.41,-7.19,-11.41,6.00,6.01,5.78,-1.19,-1.19,4.22
47.53,-7.08,-11.30,-7.08,-11.31,6.00,6.01,5.80,-1.08,-1.08,4.22
48.01,-6.98,-11.22,-6.98,-11.21,6.00,6.02,5.82,-0.98,-0.98,4.24
48.49,-6.87,-11.10,-6.87,-11.10,6.00,6.03,5.84,-0.87,-0.87,4.23
48.97,-6.77,-10.98,-6.77,-10.98,6.00,6.04,5.87,-0.77,-0.77,4.21
49.46,-6.66,-10.86,-6.66,-10.87,6.00,6.05,5.90,-0.66,-0.66,4.21
49.96,-6.56,-10.75,-6.56,-10.76,6.00,6.06,5.94,-0.56,-0.56,4.19
50.46,-6.45,-10.65,-6.45,-10.64,6.00,6.07,5.98,-0.45,-0.45,4.20
50.96,-6.34,-10.53,-6.34,-10.53,6.00,6.08,6.02,-0.34,-0.34,4.19
51.47,-6.23,-10.40,-6.23,-10.41,6.00,6.09,6.06,-0.23,-0.23,4.18
51.99,-6.12,-10.30,-6.12,-10.30,6.00,6.10,6.10,-0.12,-0.12,4.18
52.51,-6.01,-10.19,-6.01,-10.18,6.00,6.11,6.15,-0.01,-0.01,4.18
53.03,-5.89,-10.06,-5.89,-10.06,6.00,6.12,6.19,0.11,0.11,4.17
53.56,-5.78,-9.94,-5.78,-9.93,6.00,6.13,6.24,0.22,0.22,4.16
54.10,-5.66,-9.80,-5.66,-9.80,6.00,6.14,6.28,0.34,0.34,4.14
54.64,-5.54,-9.67,-5.54,-9.67,6.00,6.15,6.33,0.46,0.46,4.13
55.18,-5.42,-9.54,-5.42,-9.54,6.00,6.15,6.37,0.58,0.58,4.12
55.74,-5.30,-9.40,-5.30,-9.40,6.00,6.16,6.42,0.70,0.70,4.10
56.29,-5.18,-9.28,-5.18,-9.27,6.00,6.17,6.46,0.82,0.82,4.10
56.86,-5.06,-9.14,-5.06,-9.13,6.00,6.17,6.49,0.94,0.94,4.08
57.42,-4.94,-8.99,-4.94,-9.00,6.00,6.18,6.53,1.06,1.06,4.05
58.00,-4.83,-8.87,-4.83,-8.87,6.00,6.18,6.56,1.17,1.17,4.04
58.58,-4.72,-8.75,-4.72,-8.75,6.00,6.18,6.58,1.28,1.28,4.03
59.16,-4.61,-8.62,-4.61,-8.62,6.00,6.18,6.60,1.39,1.39,4.02
59.76,-4.50,-8.50,-4.50,-8.50,6.00,6.18,6.62,1.50,1.50,4.00
60.35,-4.40,-8.38,-4.40,-8.37,6.00,6.18,6.62,1.60,1.60,3.98
60.96,-4.30,-8.25,-4.30,-8.25,6.00,6.18,6.63,1.70,1.70,3.95
61.57,-4.20,-8.12,-4.20,-8.13,6.00,6.18,6.62,1.80,1.80,3.92
62.18,-4.12,-8.01,-4.12,-8.01,6.00,6.17,6.61,1.88,1.88,3.89
62.80,-4.04,-7.91,-4.04,-7.90,6.00,6.17,6.59,1.96,1.96,3.87
63.43,-3.97,-7.81,-3.97,-7.81,6.00,6.16,6.56,2.03,2.03,3.84
64.07,-3.90,-7.71,-3.90,-7.71,6.00,6.15,6.53,2.10,2.10,3.81
64.71,-3.83,-7.63,-3.83,-7.62,6.00,6.14,6.49,2.17,2.17,3.80
65.35,-3.76,-7.53,-3.76,-7.53,6.00,6.12,6.44,2.24,2.24,3.77
66.01,-3.69,-7.44,-3.69,-7.44,6.00,6.11,6.39,2.31,2.31,3.75
66.67,-3.63,-7.35,-3.63,-7.35,6.00,6.09,6.33,2.37,2.37,3.72
67.33,-3.57,-7.26,-3.57,-7.26,6.00,6.08,6.26,2.43,2.43,3.69
68.01,-3.51,-7.18,-3.51,-7.17,6.00,6.06,6.19,2.49,2.49,3.67
68.69,-3.44,-7.08,-3.44,-7.08,6.00,6.03,6.12,2.56,2.56,3.64
69.37,-3.38,-7.00,-3.38,-7.00,6.00,6.01,6.04,2.62,2.62,3.62
70.07,-3.31,-6.91,-3.31,-6.91,6.00,5.99,5.95,2.69,2.69,3.60
70.77,-3.25,-6.82,-3.24,-6.82,6.00,5.96,5.87,2.75,2.76,3.58
71.48,-3.18,-6.73,-3.18,-6.73,6.00,5.93,5.78,2.82,2.82,3.55
72.19,-3.11,-6.64,-3.11,-6.64,6.00,5.90,5.69,2.89,2.89,3.53
72.91,-3.05,-6.55,-3.04,-6.55,6.01,5.87,5.60,2.96,2.96,3.50
73.64,-2.98,-6.46,-2.97,-6.45,6.02,5.83,5.51,3.04,3.04,3.48
74.38,-2.89,-6.35,-2.89,-6.36,6.02,5.80,5.42,3.13,3.13,3.46
75.12,-2.81,-6.26,-2.81,-6.26,6.01,5.76,5.33,3.20,3.21,3.45
75.87,-2.72,-6.16,-2.72,-6.16,5.99,5.72,5.23,3.28,3.27,3.44
76.63,-2.64,-6.06,-2.64,-6.06,5.96,5.68,5.14,3.33,3.32,3.42
77.40,-2.56,-5.97,-2.56,-5.97,5.92,5.64,5.05,3.36,3.36,3.42
78.17,-2.48,-5.88,-2.47,-5.88,5.86,5.59,4.97,3.38,3.38,3.40
78.95,-2.39,-5.79,-2.38,-5.78,5.78,5.55,4.88,3.40,3.40,3.40
79.74,-2.29,-5.68,-2.29,-5.68,5.70,5.50,4.80,3.41,3.41,3.39
80.54,-2.21,-5.59,-2.21,-5.59,5.61,5.45,4.72,3.40,3.40,3.38
81.35,-2.13,-5.50,-2.12,-5.50,5.51,5.41,4.64,3.38,3.39,3.37
82.16,-2.05,-5.41,-2.05,-5.41,5.41,5.36,4.56,3.37,3.37,3.36
82.98,-1.97,-5.32,-1.97,-5.32,5.32,5.30,4.49,3.35,3.35,3.36
83.81,-1.90,-5.23,-1.90,-5.24,5.24,5.25,4.42,3.34,3.34,3.33
84.65,-1.83,-5.16,-1.83,-5.16,5.16,5.20,4.35,3.33,3.33,3.33
85.50,-1.76,-5.09,-1.76,-5.08,5.08,5.14,4.28,3.32,3.32,3.33
86.35,-1.70,-5.01,-1.70,-5.01,5.01,5.09,4.22,3.31,3.31,3.31
87.22,-1.64,-4.95,-1.63,-4.94,4.94,5.03,4.16,3.30,3.31,3.31
88.09,-1.57,-4.86,-1.57,-4.87,4.87,4.98,4.11,3.31,3.30,3.29
88.97,-1.51,-4.81,-1.51,-4.80,4.81,4.92,4.06,3.31,3.30,3.30
89.86,-1.47,-4.75,-1.47,-4.75,4.76,4.86,4.01,3.29,3.30,3.28
90.76,-1.43,-4.70,-1.43,-4.70,4.71,4.80,3.96,3.28,3.28,3.27
91.66,-1.40,-4.67,-1.40,-4.66,4.66,4.74,3.92,3.27,3.27,3.27
92.58,-1.37,-4.62,-1.36,-4.62,4.62,4.69,3.87,3.25,3.25,3.25
93.51,-1.33,-4.58,-1.33,-4.58,4.57,4.63,3.84,3.25,3.25,3.26
94.44,-1.29,-4.54,-1.29,-4.54,4.53,4.57,3.80,3.24,3.24,3.25
95.39,-1.25,-4.49,-1.25,-4.49,4.48,4.51,3.77,3.23,3.23,3.24
96.34,-1.22,-4.43,-1.22,-4.44,4.43,4.45,3.74,3.21,3.21,3.21
97.30,-1.18,-4.38,-1.18,-4.38,4.38,4.39,3.71,3.20,3.20,3.20
98.28,-1.14,-4.33,-1.13,-4.33,4.32,4.33,3.69,3.19,3.19,3.20
99.26,-1.09,-4.26,-1.09,-4.27,4.27,4.27,3.67,3.19,3.19,3.18
100.25,-1.04,-4.21,-1.04,-4.21,4.23,4.21,3.65,3.19,3.18,3.17
101.25,-1.01,-4.16,-1.01,-4.16,4.18,4.15,3.63,3.17,3.17,3.15
102.27,-1.00,-4.13,-1.00,-4.12,4.13,4.09,3.61,3.13,3.14,3.13
103.29,-0.99,-4.09,-0.98,-4.09,4.08,4.03,3.60,3.10,3.10,3.10
104.32,-0.97,-4.06,-0.97,-4.05,4.03,3.97,3.58,3.07,3.07,3.09
105.37,-0.94,-4.00,-0.94,-4.00,3.98,3.91,3.57,3.04,3.05,3.06
106.42,-0.90,-3.94,-0.90,-3.94,3.93,3.85,3.56,3.03,3.03,3.04
107.48,-0.86,-3.87,-0.86,-3.87,3.87,3.80,3.55,3.01,3.01,3.01
108.56,-0.82,-3.79,-0.82,-3.79,3.80,3.74,3.54,2.98,2.98,2.97
109.64,-0.78,-3.72,-0.78,-3.72,3.73,3.68,3.53,2.95,2.95,2.94
110.74,-0.75,-3.65,-0.75,-3.65,3.66,3.63,3.52,2.91,2.91,2.90
111.85,-0.72,-3.59,-0.72,-3.59,3.59,3.57,3.52,2.87,2.87,2.88
112.97,-0.69,-3.51,-0.69,-3.52,3.51,3.52,3.51,2.83,2.83,2.83
114.10,-0.66,-3.45,-0.66,-3.45,3.44,3.46,3.50,2.79,2.79,2.79
115.24,-0.63,-3.38,-0.63,-3.38,3.38,3.41,3.49,2.75,2.75,2.75
116.39,-0.61,-3.31,-0.61,-3.31,3.31,3.35,3.47,2.71,2.71,2.70
117.55,-0.59,-3.25,-0.58,-3.25,3.25,3.30,3.46,2.67,2.67,2.66
118.73,-0.57,-3.18,-0.57,-3.19,3.20,3.25,3.44,2.63,2.63,2.62
119.92,-0.55,-3.13,-0.55,-3.13,3.14,3.20,3.43,2.60,2.59,2.58
121.12,-0.55,-3.09,-0.54,-3.09,3.09,3.15,3.41,2.55,2.55,2.54
122.33,-0.54,-3.04,-0.54,-3.05,3.05,3.10,3.39,2.51,2.51,2.51
123.55,-0.53,-3.01,-0.53,-3.00,3.00,3.05,3.37,2.47,2.47,2.48
124.79,-0.51,-2.95,-0.51,-2.96,2.95,3.00,3.34,2.44,2.43,2.45
126.03,-0.50,-2.91,-0.50,-2.91,2.89,2.95,3.31,2.40,2.40,2.41
127.29,-0.48,-2.85,-0.47,-2.85,2.84,2.90,3.28,2.36,2.36,2.38
128.57,-0.45,-2.78,-0.44,-2.78,2.78,2.86,3.25,2.33,2.34,2.33
129.85,-0.41,-2.72,-0.41,-2.71,2.72,2.81,3.22,2.31,2.31,2.31
131.15,-0.37,-2.64,-0.38,-2.65,2.66,2.76,3.18,2.29,2.28,2.28
132.46,-0.35,-2.60,-0.34,-2.60,2.60,2.72,3.14,2.25,2.25,2.25
133.79,-0.32,-2.55,-0.31,-2.54,2.54,2.68,3.10,2.22,2.22,2.23
135.12,-0.28,-2.48,-0.28,-2.49,2.48,2.63,3.06,2.20,2.20,2.20
136.48,-0.26,-2.44,-0.25,-2.43,2.43,2.59,3.02,2.17,2.18,2.18
137.84,-0.22,-2.38,-0.23,-2.38,2.38,2.55,2.97,2.17,2.16,2.16
139.22,-0.21,-2.33,-0.21,-2.33,2.34,2.51,2.92,2.14,2.14,2.12
140.61,-0.20,-2.30,-0.19,-2.30,2.31,2.47,2.88,2.11,2.12,2.10
142.02,-0.19,-2.28,-0.19,-2.27,2.28,2.43,2.83,2.09,2.09,2.09
143.44,-0.19,-2.25,-0.19,-2.25,2.25,2.39,2.78,2.06,2.06,2.06
144.87,-0.20,-2.23,-0.19,-2.23,2.22,2.35,2.73,2.02,2.03,2.04
146.32,-0.20,-2.21,-0.20,-2.21,2.20,2.32,2.68,2.00,2.00,2.01
147.78,-0.20,-2.19,-0.19,-2.18,2.18,2.28,2.63,1.98,1.98,1.99
149.26,-0.19,-2.16,-0.19,-2.16,2.16,2.24,2.58,1.97,1.96,1.97
150.75,-0.20,-2.13,-0.20,-2.13,2.14,2.21,2.53,1.94,1.94,1.93
152.26,-0.21,-2.11,-0.21,-2.11,2.12,2.17,2.48,1.91,1.92,1.90
153.78,-0.23,-2.10,-0.23,-2.10,2.11,2.14,2.43,1.88,1.88,1.87
155.32,-0.25,-2.09,-0.25,-2.10,2.10,2.11,2.38,1.85,1.85,1.84
156.88,-0.29,-2.11,-0.28,-2.10,2.09,2.08,2.33,1.80,1.81,1.82
158.44,-0.31,-2.09,-0.31,-2.10,2.09,2.04,2.29,1.78,1.78,1.79
160.03,-0.35,-2.09,-0.34,-2.09,2.09,2.01,2.24,1.74,1.75,1.75
161.63,-0.37,-2.08,-0.37,-2.08,2.09,1.98,2.19,1.72,1.72,1.71
163.24,-0.40,-2.07,-0.41,-2.08,2.09,1.95,2.15,1.69,1.69,1.67
164.88,-0.45,-2.10,-0.44,-2.09,2.09,1.93,2.11,1.64,1.66,1.65
166.53,-0.47,-2.08,-0.47,-2.09,2.09,1.90,2.07,1.62,1.62,1.61
168.19,-0.50,-2.08,-0.50,-2.09,2.08,1.87,2.03,1.58,1.58,1.59
169.87,-0.53,-2.08,-0.53,-2.07,2.06,1.84,1.99,1.54,1.54,1.55
171.57,-0.55,-2.06,-0.55,-2.06,2.04,1.82,1.95,1.49,1.49,1.51
173.29,-0.56,-2.02,-0.56,-2.02,2.01,1.79,1.91,1.45,1.46,1.46
175.02,-0.56,-1.98,-0.56,-1.98,1.97,1.77,1.88,1.42,1.42,1.43
176.77,-0.55,-1.93,-0.55,-1.93,1.93,1.74,1.84,1.38,1.38,1.38
178.54,-0.55,-1.87,-0.54,-1.88,1.88,1.72,1.81,1.33,1.34,1.32
180.32,-0.54,-1.82,-0.54,-1.82,1.83,1.70,1.78,1.29,1.29,1.28
182.13,-0.54,-1.77,-0.54,-1.77,1.78,1.68,1.75,1.24,1.24,1.24
183.95,-0.54,-1.72,-0.54,-1.72,1.72,1.65,1.72,1.18,1.18,1.18
185.79,-0.54,-1.67,-0.54,-1.67,1.67,1.63,1.69,1.13,1.13,1.14
187.65,-0.54,-1.62,-0.53,-1.62,1.62,1.61,1.67,1.08,1.08,1.08
189.52,-0.53,-1.57,-0.53,-1.57,1.57,1.59,1.64,1.04,1.04,1.04
191.42,-0.52,-1.52,-0.52,-1.52,1.52,1.58,1.62,1.00,1.00,1.00
193.33,-0.52,-1.47,-0.52,-1.47,1.47,1.56,1.60,0.95,0.95,0.96
195.27,-0.52,-1.43,-0.52,-1.43,1.43,1.54,1.58,0.91,0.91,0.91
197.22,-0.53,-1.39,-0.53,-1.39,1.39,1.52,1.56,0.87,0.87,0.86
199.19,-0.54,-1.35,-0.54,-1.35,1.36,1.51,1.54,0.83,0.83,0.81
201.18,-0.55,-1.32,-0.55,-1.33,1.34,1.49,1.52,0.79,0.79,0.77
203.19,-0.58,-1.32,-0.58,-1.31,1.32,1.48,1.50,0.74,0.74,0.74
205.23,-0.61,-1.31,-0.61,-1.31,1.31,1.46,1.49,0.70,0.70,0.70
207.28,-0.64,-1.31,-0.64,-1.31,1.30,1.45,1.47,0.66,0.66,0.67
209.35,-0.68,-1.30,-0.67,-1.30,1.29,1.43,1.46,0.62,0.62,0.62
211.44,-0.71,-1.28,-0.71,-1.29,1.29,1.42,1.44,0.58,0.58,0.57
213.56,-0.74,-1.28,-0.74,-1.29,1.29,1.41,1.43,0.55,0.54,0.55
215.69,-0.78,-1.30,-0.78,-1.29,1.29,1.40,1.42,0.51,0.51,0.52
217.85,-0.82,-1.30,-0.81,-1.29,1.28,1.38,1.41,0.47,0.48,0.48
220.03,-0.83,-1.27,-0.83,-1.28,1.28,1.37,1.40,0.45,0.45,0.44
222.23,-0.85,-1.26,-0.85,-1.27,1.27,1.36,1.39,0.42,0.42,0.41
224.45,-0.87,-1.26,-0.87,-1.26,1.26,1.35,1.38,0.39,0.39,0.40
226.70,-0.89,-1.27,-0.88,-1.26,1.25,1.35,1.37,0.36,0.37,0.38
228.96,-0.89,-1.24,-0.89,-1.25,1.23,1.34,1.36,0.35,0.35,0.35
231.25,-0.88,-1.22,-0.88,-1.22,1.22,1.33,1.35,0.34,0.34,0.35
233.57,-0.87,-1.20,-0.87,-1.20,1.21,1.32,1.34,0.34,0.34,0.33
235.90,-0.86,-1.18,-0.86,-1.18,1.19,1.32,1.34,0.33,0.33,0.32
238.26,-0.86,-1.17,-0.86,-1.17,1.18,1.31,1.33,0.32,0.32,0.31
240.64,-0.86,-1.17,-0.86,-1.17,1.17,1.30,1.32,0.32,0.32,0.31
243.05,-0.86,-1.18,-0.86,-1.17,1.17,1.30,1.31,0.31,0.31,0.32
245.48,-0.86,-1.17,-0.86,-1.17,1.17,1.30,1.31,0.31,0.31,0.31
247.93,-0.86,-1.18,-0.86,-1.17,1.18,1.29,1.30,0.32,0.32,0.32
250.41,-0.86,-1.17,-0.86,-1.18,1.18,1.29,1.29,0.33,0.33,0.31
252.92,-0.86,-1.20,-0.86,-1.19,1.19,1.29,1.29,0.33,0.33,0.34
255.45,-0.86,-1.21,-0.86,-1.21,1.20,1.28,1.28,0.34,0.34,0.35
258.00,-0.86,-1.22,-0.86,-1.22,1.21,1.28,1.27,0.36,0.36,0.36
260.58,-0.86,-1.22,-0.86,-1.23,1.23,1.28,1.27,0.37,0.37,0.37
263.19,-0.86,-1.24,-0.86,-1.24,1.24,1.28,1.26,0.38,0.38,0.38
265.82,-0.86,-1.25,-0.86,-1.25,1.25,1.28,1.26,0.40,0.40,0.39
268.48,-0.86,-1.27,-0.86,-1.27,1.27,1.28,1.25,0.41,0.41,0.41
271.16,-0.86,-1.29,-0.86,-1.29,1.28,1.28,1.24,0.42,0.42,0.43
273.87,-0.86,-1.30,-0.86,-1.30,1.30,1.28,1.24,0.44,0.44,0.44
276.61,-0.86,-1.31,-0.86,-1.31,1.31,1.29,1.23,0.45,0.45,0.45
279.38,-0.86,-1.32,-0.86,-1.32,1.32,1.29,1.23,0.47,0.47,0.46
282.17,-0.86,-1.34,-0.86,-1.34,1.34,1.29,1.22,0.48,0.48,0.48
284.99,-0.86,-1.35,-0.86,-1.35,1.35,1.30,1.22,0.49,0.49,0.50
287.84,-0.86,-1.36,-0.86,-1.36,1.36,1.30,1.22,0.50,0.50,0.50
290.72,-0.86,-1.38,-0.86,-1.38,1.37,1.30,1.21,0.52,0.52,0.52
293.63,-0.86,-1.39,-0.86,-1.39,1.39,1.31,1.21,0.53,0.53,0.53
296.57,-0.86,-1.40,-0.86,-1.40,1.40,1.32,1.21,0.54,0.54,0.54
299.53,-0.86,-1.41,-0.86,-1.41,1.41,1.32,1.21,0.55,0.55,0.55
302.53,-0.86,-1.42,-0.86,-1.42,1.42,1.33,1.21,0.57,0.57,0.56
305.55,-0.86,-1.44,-0.86,-1.43,1.44,1.34,1.21,0.58,0.58,0.58
308.61,-0.86,-1.44,-0.86,-1.45,1.45,1.34,1.21,0.59,0.59,0.59
311.69,-0.86,-1.46,-0.86,-1.46,1.46,1.35,1.21,0.60,0.60,0.60
314.81,-0.86,-1.48,-0.86,-1.48,1.47,1.36,1.21,0.62,0.62,0.62
317.96,-0.86,-1.49,-0.86,-1.49,1.48,1.37,1.22,0.63,0.63,0.63
321.14,-0.86,-1.50,-0.86,-1.50,1.50,1.38,1.22,0.64,0.64,0.64
324.35,-0.86,-1.50,-0.86,-1.50,1.51,1.39,1.23,0.65,0.65,0.65
327.59,-0.86,-1.51,-0.86,-1.51,1.52,1.40,1.23,0.66,0.66,0.65
330.87,-0.86,-1.52,-0.86,-1.52,1.52,1.41,1.24,0.67,0.67,0.66
334.18,-0.86,-1.53,-0.86,-1.53,1.53,1.42,1.25,0.67,0.67,0.67
337.52,-0.86,-1.53,-0.86,-1.54,1.53,1.44,1.26,0.67,0.67,0.67
340.90,-0.86,-1.55,-0.86,-1.54,1.53,1.45,1.27,0.68,0.68,0.69
344.30,-0.86,-1.55,-0.85,-1.54,1.54,1.46,1.28,0.68,0.68,0.69
347.75,-0.85,-1.54,-0.85,-1.54,1.54,1.47,1.29,0.69,0.69,0.70
351.23,-0.84,-1.53,-0.84,-1.54,1.54,1.49,1.30,0.70,0.70,0.69
354.74,-0.84,-1.53,-0.84,-1.53,1.54,1.50,1.31,0.70,0.70,0.69
358.28,-0.84,-1.54,-0.84,-1.54,1.54,1.51,1.33,0.71,0.71,0.70
361.87,-0.85,-1.55,-0.85,-1.55,1.55,1.53,1.35,0.71,0.70,0.70
365.49,-0.87,-1.57,-0.86,-1.56,1.57,1.54,1.36,0.70,0.70,0.70
369.14,-0.89,-1.58,-0.89,-1.58,1.58,1.56,1.38,0.70,0.70,0.69
372.83,-0.91,-1.60,-0.91,-1.60,1.61,1.57,1.40,0.70,0.69,0.69
376.56,-0.95,-1.63,-0.94,-1.63,1.64,1.59,1.42,0.69,0.69,0.69
380.33,-0.98,-1.67,-0.98,-1.67,1.66,1.60,1.44,0.69,0.69,0.70
384.13,-1.01,-1.69,-1.01,-1.70,1.69,1.62,1.46,0.69,0.68,0.69
387.97,-1.05,-1.73,-1.04,-1.73,1.73,1.63,1.48,0.68,0.68,0.68
391.85,-1.08,-1.75,-1.08,-1.76,1.76,1.65,1.50,0.68,0.68,0.67
395.77,-1.11,-1.79,-1.11,-1.79,1.79,1.66,1.53,0.68,0.68,0.68
399.73,-1.14,-1.81,-1.13,-1.81,1.81,1.68,1.55,0.68,0.68,0.67
403.72,-1.16,-1.83,-1.16,-1.83,1.83,1.69,1.57,0.68,0.68,0.67
407.76,-1.18,-1.85,-1.18,-1.85,1.85,1.70,1.60,0.67,0.67,0.67
411.84,-1.20,-1.88,-1.20,-1.87,1.86,1.72,1.62,0.66,0.67,0.68
415.96,-1.21,-1.89,-1.21,-1.89,1.87,1.73,1.65,0.66,0.67,0.68
420.12,-1.21,-1.89,-1.20,-1.88,1.88,1.74,1.67,0.67,0.67,0.68
424.32,-1.20,-1.88,-1.20,-1.87,1.88,1.76,1.70,0.68,0.68,0.68
428.56,-1.19,-1.86,-1.20,-1.87,1.88,1.77,1.72,0.69,0.69,0.67
432.85,-1.20,-1.86,-1.20,-1.87,1.88,1.78,1.74,0.68,0.68,0.67
437.18,-1.21,-1.87,-1.20,-1.87,1.88,1.79,1.77,0.67,0.67,0.67
441.55,-1.21,-1.88,-1.21,-1.88,1.87,1.80,1.79,0.66,0.66,0.68
445.96,-1.20,-1.87,-1.20,-1.87,1.86,1.81,1.81,0.67,0.66,0.68
450.42,-1.19,-1.85,-1.19,-1.86,1.85,1.82,1.83,0.67,0.67,0.67
454.93,-1.17,-1.84,-1.17,-1.84,1.84,1.82,1.85,0.67,0.67,0.67
459.48,-1.15,-1.82,-1.15,-1.82,1.82,1.83,1.87,0.67,0.67,0.67
464.07,-1.13,-1.80,-1.12,-1.80,1.80,1.84,1.88,0.67,0.67,0.67
468.71,-1.10,-1.78,-1.10,-1.77,1.77,1.84,1.90,0.67,0.67,0.68
473.40,-1.06,-1.73,-1.06,-1.74,1.74,1.85,1.91,0.68,0.68,0.67
