frequency,raw,error,smoothed,error_smoothed,equalization,parametric_eq,fixed_band_eq,equalized_raw,equalized_smoothed,target
20.00,-10.28,-10.02,-10.30,-10.04,6.00,6.22,2.47,-4.28,-4.30,-0.26
20.20,-10.08,-9.86,-10.07,-9.86,6.00,6.20,2.54,-4.08,-4.07,-0.22
20.40,-9.89,-9.71,-9.87,-9.69,6.00,6.19,2.61,-3.89,-3.87,-0.18
20.61,-9.70,-9.54,-9.68,-9.53,6.00,6.17,2.68,-3.70,-3.68,-0.16
20.81,-9.50,-9.38,-9.50,-9.38,6.00,6.15,2.76,-3.50,-3.50,-0.12
21.02,-9.31,-9.23,-9.35,-9.26,6.00,6.13,2.84,-3.31,-3.35,-0.08
21.23,-9.26,-9.19,-9.25,-9.19,6.00,6.11,2.92,-3.26,-3.25,-0.07
21.44,-9.20,-9.15,-9.19,-9.14,6.00,6.10,3.00,-3.20,-3.19,-0.05
21.66,-9.14,-9.10,-9.15,-9.11,6.00,6.08,3.09,-3.14,-3.15,-0.04
21.87,-9.08,-9.04,-9.07,-9.03,6.00,6.05,3.18,-3.08,-3.07,-0.04
22.09,-8.97,-8.94,-8.94,-8.91,6.00,6.03,3.27,-2.97,-2.94,-0.03
22.31,-8.76,-8.73,-8.77,-8.74,6.00,6.01,3.36,-2.76,-2.77,-0.03
22.54,-8.56,-8.53,-8.56,-8.53,6.00,5.99,3.46,-2.56,-2.56,-0.03
22.76,-8.36,-8.32,-8.35,-8.32,6.00,5.97,3.56,-2.36,-2.35,-0.04
22.99,-8.16,-8.11,-8.19,-8.14,6.00,5.94,3.66,-2.16,-2.19,-0.05
23.22,-8.07,-8.02,-8.07,-8.01,6.00,5.92,3.76,-2.07,-2.07,-0.05
23.45,-7.99,-7.93,-7.99,-7.93,6.00,5.90,3.86,-1.99,-1.99,-0.06
23.69,-7.92,-7.86,-7.92,-7.86,6.00,5.87,3.97,-1.92,-1.92,-0.06
23.92,-7.84,-7.78,-7.83,-7.77,6.00,5.85,4.08,-1.84,-1.83,-0.06
24.16,-7.73,-7.68,-7.73,-7.67,6.00,5.82,4.19,-1.73,-1.73,-0.05
24.40,-7.61,-7.56,-7.61,-7.55,6.00,5.80,4.31,-1.61,-1.61,-0.05
24.65,-7.48,-7.42,-7.48,-7.42,6.00,5.77,4.42,-1.48,-1.48,-0.06
24.89,-7.36,-7.30,-7.37,-7.30,6.00,5.75,4.54,-1.36,-1.37,-0.06
25.14,-7.26,-7.20,-7.26,-7.20,6.00,5.72,4.65,-1.26,-1.26,-0.06
25.39,-7.17,-7.10,-7.17,-7.10,6.00,5.69,4.77,-1.17,-1.17,-0.07
25.65,-7.07,-7.00,-7.08,-7.00,6.00,5.67,4.89,-1.07,-1.08,-0.08
25.91,-6.98,-6.90,-6.97,-6.89,6.00,5.64,5.01,-0.98,-0.97,-0.09
26.16,-6.85,-6.76,-6.84,-6.76,6.00,5.61,5.13,-0.85,-0.84,-0.09
26.43,-6.69,-6.61,-6.69,-6.60,6.00,5.58,5.25,-0.69,-0.69,-0.09
26.69,-6.53,-6.44,-6.53,-6.44,6.01,5.55,5.36,-0.52,-0.52,-0.09
26.96,-6.38,-6.28,-6.41,-6.32,6.02,5.52,5.48,-0.36,-0.39,-0.10
27.23,-6.34,-6.24,-6.34,-6.24,6.02,5.50,5.59,-0.32,-0.32,-0.10
27.50,-6.32,-6.22,-6.33,-6.22,6.01,5.47,5.70,-0.31,-0.31,-0.10
27.77,-6.31,-6.20,-6.30,-6.20,5.98,5.44,5.81,-0.33,-0.32,-0.11
28.05,-6.27,-6.16,-6.24,-6.13,5.95,5.41,5.91,-0.32,-0.29,-0.11
28.33,-6.12,-6.00,-6.12,-6.00,5.90,5.38,6.00,-0.22,-0.22,-0.12
28.62,-5.97,-5.85,-5.97,-5.85,5.85,5.35,6.09,-0.13,-0.13,-0.12
28.90,-5.82,-5.70,-5.84,-5.72,5.79,5.32,6.18,-0.03,-0.06,-0.12
29.19,-5.75,-5.63,-5.76,-5.64,5.72,5.29,6.25,-0.04,-0.05,-0.13
29.48,-5.72,-5.61,-5.72,-5.60,5.63,5.25,6.32,-0.09,-0.08,-0.12
29.78,-5.69,-5.56,-5.69,-5.56,5.54,5.22,6.38,-0.15,-0.14,-0.13
30.08,-5.64,-5.52,-5.63,-5.50,5.45,5.19,6.43,-0.19,-0.18,-0.12
30.38,-5.53,-5.39,-5.54,-5.40,5.35,5.16,6.48,-0.18,-0.19,-0.14
30.68,-5.42,-5.28,-5.42,-5.28,5.26,5.13,6.51,-0.16,-0.16,-0.14
30.99,-5.30,-5.15,-5.31,-5.16,5.17,5.10,6.53,-0.14,-0.14,-0.15
31.30,-5.20,-5.05,-5.20,-5.04,5.07,5.07,6.54,-0.14,-0.13,-0.15
31.61,-5.10,-4.95,-5.10,-4.94,4.97,5.03,6.54,-0.13,-0.13,-0.15
31.93,-5.00,-4.83,-5.02,-4.85,4.88,5.00,6.53,-0.12,-0.14,-0.17
32.24,-4.96,-4.77,-4.96,-4.78,4.81,4.97,6.51,-0.15,-0.16,-0.19
32.57,-4.93,-4.74,-4.93,-4.73,4.74,4.94,6.48,-0.19,-0.19,-0.19
32.89,-4.90,-4.70,-4.90,-4.70,4.68,4.91,6.45,-0.22,-0.22,-0.20
33.22,-4.86,-4.64,-4.86,-4.65,4.62,4.87,6.40,-0.24,-0.25,-0.22
33.55,-4.82,-4.60,-4.82,-4.59,4.56,4.84,6.35,-0.26,-0.26,-0.22
33.89,-4.77,-4.53,-4.77,-4.53,4.51,4.81,6.28,-0.26,-0.26,-0.24
34.23,-4.71,-4.47,-4.71,-4.46,4.46,4.78,6.22,-0.25,-0.25,-0.25
34.57,-4.65,-4.38,-4.64,-4.38,4.41,4.74,6.14,-0.24,-0.23,-0.27
34.92,-4.58,-4.30,-4.60,-4.32,4.36,4.71,6.06,-0.22,-0.24,-0.28
35.27,-4.57,-4.29,-4.59,-4.30,4.31,4.68,5.98,-0.26,-0.27,-0.28
35.62,-4.59,-4.29,-4.59,-4.29,4.27,4.65,5.89,-0.32,-0.31,-0.30
35.97,-4.61,-4.30,-4.59,-4.28,4.24,4.61,5.80,-0.37,-0.34,-0.32
36.33,-4.56,-4.24,-4.56,-4.23,4.22,4.58,5.71,-0.34,-0.34,-0.32
36.70,-4.50,-4.17,-4.51,-4.18,4.20,4.55,5.62,-0.30,-0.31,-0.33
37.06,-4.46,-4.12,-4.48,-4.15,4.18,4.52,5.52,-0.28,-0.30,-0.34
37.43,-4.48,-4.15,-4.48,-4.14,4.15,4.49,5.43,-0.33,-0.33,-0.33
37.81,-4.49,-4.14,-4.48,-4.13,4.12,4.45,5.33,-0.37,-0.36,-0.35
38.19,-4.47,-4.11,-4.47,-4.11,4.08,4.42,5.24,-0.39,-0.39,-0.36
38.57,-4.42,-4.07,-4.43,-4.07,4.04,4.39,5.14,-0.39,-0.39,-0.35
38.95,-4.37,-4.01,-4.37,-4.01,3.99,4.36,5.05,-0.38,-0.38,-0.37
39.34,-4.31,-3.94,-4.31,-3.94,3.94,4.33,4.96,-0.37,-0.37,-0.37
39.74,-4.26,-3.88,-4.26,-3.88,3.89,4.29,4.87,-0.37,-0.37,-0.38
40.14,-4.21,-3.83,-4.21,-3.83,3.84,4.26,4.78,-0.37,-0.37,-0.38
40.54,-4.18,-3.79,-4.18,-3.79,3.80,4.23,4.70,-0.38,-0.38,-0.39
40.94,-4.15,-3.76,-4.16,-3.76,3.78,4.20,4.61,-0.38,-0.38,-0.39
41.35,-4.15,-3.75,-4.14,-3.74,3.76,4.17,4.54,-0.39,-0.38,-0.41
41.76,-4.14,-3.72,-4.15,-3.73,3.76,4.14,4.46,-0.38,-0.39,-0.42
42.18,-4.16,-3.74,-4.17,-3.75,3.76,4.11,4.38,-0.40,-0.41,-0.42
42.60,-4.21,-3.78,-4.21,-3.78,3.77,4.08,4.31,-0.44,-0.44,-0.44
43.03,-4.26,-3.82,-4.24,-3.80,3.78,4.05,4.25,-0.48,-0.47,-0.44
43.46,-4.26,-3.80,-4.26,-3.80,3.77,4.02,4.18,-0.49,-0.49,-0.47
43.90,-4.26,-3.77,-4.27,-3.78,3.76,3.99,4.12,-0.50,-0.51,-0.49
44.33,-4.26,-3.76,-4.27,-3.76,3.73,3.96,4.06,-0.53,-0.53,-0.51
44.78,-4.26,-3.73,-4.25,-3.72,3.70,3.93,4.01,-0.57,-0.55,-0.53
45.23,-4.22,-3.68,-4.21,-3.66,3.65,3.90,3.95,-0.57,-0.56,-0.54
45.68,-4.14,-3.58,-4.15,-3.59,3.60,3.87,3.91,-0.54,-0.55,-0.56
46.13,-4.08,-3.51,-4.09,-3.52,3.56,3.84,3.86,-0.52,-0.54,-0.58
46.60,-4.06,-3.48,-4.06,-3.48,3.52,3.81,3.82,-0.55,-0.54,-0.58
47.06,-4.05,-3.46,-4.05,-3.46,3.48,3.78,3.78,-0.57,-0.57,-0.59
47.53,-4.05,-3.46,-4.05,-3.46,3.45,3.76,3.74,-0.60,-0.60,-0.59
48.01,-4.05,-3.45,-4.05,-3.45,3.43,3.73,3.71,-0.62,-0.62,-0.60
48.49,-4.05,-3.44,-4.05,-3.44,3.42,3.70,3.67,-0.63,-0.63,-0.62
48.97,-4.05,-3.42,-4.05,-3.42,3.41,3.68,3.64,-0.64,-0.64,-0.63
49.46,-4.05,-3.41,-4.05,-3.41,3.40,3.65,3.62,-0.65,-0.65,-0.64
49.96,-4.05,-3.39,-4.05,-3.40,3.40,3.63,3.59,-0.65,-0.65,-0.66
50.46,-4.05,-3.41,-4.05,-3.40,3.40,3.61,3.57,-0.65,-0.65,-0.65
50.96,-4.05,-3.40,-4.05,-3.39,3.40,3.58,3.55,-0.65,-0.65,-0.65
51.47,-4.05,-3.39,-4.05,-3.39,3.41,3.56,3.53,-0.64,-0.64,-0.66
51.99,-4.05,-3.38,-4.07,-3.41,3.42,3.54,3.52,-0.63,-0.65,-0.67
52.51,-4.11,-3.44,-4.11,-3.44,3.44,3.52,3.50,-0.67,-0.67,-0.67
53.03,-4.17,-3.50,-4.16,-3.49,3.47,3.50,3.49,-0.70,-0.69,-0.67
53.56,-4.20,-3.52,-4.20,-3.52,3.51,3.48,3.47,-0.69,-0.69,-0.68
54.10,-4.23,-3.54,-4.21,-3.53,3.56,3.46,3.46,-0.68,-0.66,-0.69
54.64,-4.23,-3.54,-4.25,-3.56,3.60,3.45,3.45,-0.63,-0.65,-0.69
55.18,-4.28,-3.59,-4.32,-3.63,3.65,3.44,3.44,-0.64,-0.68,-0.70
55.74,-4.43,-3.72,-4.40,-3.69,3.68,3.42,3.43,-0.75,-0.72,-0.71
56.29,-4.49,-3.78,-4.46,-3.75,3.71,3.41,3.42,-0.78,-0.75,-0.71
56.86,-4.47,-3.74,-4.49,-3.76,3.72,3.41,3.41,-0.75,-0.77,-0.73
57.42,-4.47,-3.73,-4.48,-3.74,3.72,3.40,3.40,-0.75,-0.77,-0.74
58.00,-4.48,-3.73,-4.47,-3.71,3.71,3.39,3.38,-0.77,-0.76,-0.76
58.58,-4.45,-3.68,-4.45,-3.68,3.68,3.39,3.37,-0.77,-0.77,-0.77
59.16,-4.41,-3.63,-4.41,-3.63,3.64,3.39,3.36,-0.77,-0.77,-0.78
59.76,-4.37,-3.57,-4.38,-3.58,3.60,3.39,3.34,-0.78,-0.78,-0.80
60.35,-4.36,-3.53,-4.36,-3.54,3.55,3.39,3.32,-0.81,-0.81,-0.83
60.96,-4.36,-3.51,-4.36,-3.50,3.51,3.39,3.30,-0.86,-0.85,-0.85
61.57,-4.36,-3.46,-4.36,-3.47,3.46,3.39,3.28,-0.90,-0.90,-0.90
62.18,-4.36,-3.43,-4.36,-3.43,3.43,3.38,3.26,-0.94,-0.94,-0.93
62.80,-4.36,-3.39,-4.36,-3.39,3.39,3.37,3.24,-0.97,-0.97,-0.97
63.43,-4.36,-3.36,-4.36,-3.35,3.36,3.35,3.21,-1.00,-1.00,-1.01
64.07,-4.36,-3.32,-4.36,-3.32,3.33,3.33,3.18,-1.03,-1.03,-1.04
64.71,-4.36,-3.28,-4.36,-3.28,3.29,3.30,3.15,-1.07,-1.07,-1.08
65.35,-4.36,-3.25,-4.36,-3.25,3.26,3.27,3.12,-1.11,-1.11,-1.11
66.01,-4.36,-3.21,-4.36,-3.21,3.21,3.23,3.09,-1.15,-1.15,-1.15
66.67,-4.36,-3.18,-4.37,-3.19,3.16,3.18,3.05,-1.20,-1.21,-1.19
67.33,-4.36,-3.15,-4.36,-3.14,3.11,3.13,3.02,-1.26,-1.26,-1.22
68.01,-4.36,-3.11,-4.33,-3.07,3.05,3.09,2.98,-1.31,-1.28,-1.26
68.69,-4.26,-2.97,-4.28,-2.98,2.99,3.04,2.94,-1.27,-1.29,-1.30
69.37,-4.22,-2.88,-4.24,-2.90,2.93,2.99,2.90,-1.29,-1.31,-1.34
70.07,-4.22,-2.84,-4.22,-2.85,2.88,2.94,2.86,-1.34,-1.34,-1.38
70.77,-4.25,-2.84,-4.24,-2.83,2.84,2.90,2.82,-1.42,-1.40,-1.41
71.48,-4.26,-2.81,-4.25,-2.79,2.80,2.85,2.77,-1.46,-1.45,-1.46
72.19,-4.26,-2.76,-4.26,-2.76,2.77,2.81,2.73,-1.49,-1.49,-1.50
72.91,-4.26,-2.71,-4.29,-2.74,2.75,2.77,2.69,-1.52,-1.55,-1.55
73.64,-4.34,-2.74,-4.33,-2.73,2.72,2.73,2.65,-1.62,-1.61,-1.60
74.38,-4.38,-2.74,-4.37,-2.72,2.70,2.70,2.60,-1.68,-1.67,-1.64
75.12,-4.39,-2.70,-4.38,-2.70,2.67,2.66,2.56,-1.72,-1.71,-1.69
75.87,-4.36,-2.64,-4.37,-2.65,2.64,2.63,2.52,-1.72,-1.73,-1.73
76.63,-4.36,-2.60,-4.36,-2.60,2.61,2.60,2.48,-1.75,-1.76,-1.76
77.40,-4.36,-2.56,-4.36,-2.56,2.57,2.57,2.44,-1.79,-1.79,-1.80
78.17,-4.36,-2.52,-4.36,-2.53,2.53,2.54,2.40,-1.83,-1.83,-1.84
78.95,-4.36,-2.49,-4.36,-2.49,2.49,2.51,2.36,-1.87,-1.87,-1.87
79.74,-4.36,-2.46,-4.36,-2.46,2.46,2.48,2.33,-1.90,-1.90,-1.90
80.54,-4.36,-2.43,-4.36,-2.43,2.44,2.46,2.29,-1.93,-1.93,-1.93
81.35,-4.36,-2.40,-4.35,-2.39,2.42,2.43,2.26,-1.94,-1.93,-1.96
82.16,-4.36,-2.37,-4.36,-2.38,2.41,2.41,2.23,-1.95,-1.95,-1.99
82.98,-4.36,-2.35,-4.40,-2.38,2.40,2.38,2.19,-1.96,-2.00,-2.01
83.81,-4.47,-2.42,-4.45,-2.40,2.38,2.36,2.16,-2.09,-2.07,-2.05
84.65,-4.52,-2.43,-4.49,-2.41,2.37,2.34,2.13,-2.15,-2.12,-2.09
85.50,-4.50,-2.39,-4.50,-2.39,2.35,2.32,2.11,-2.15,-2.15,-2.11
86.35,-4.46,-2.32,-4.48,-2.34,2.33,2.29,2.08,-2.14,-2.16,-2.14
87.22,-4.46,-2.28,-4.46,-2.28,2.30,2.27,2.06,-2.16,-2.16,-2.18
88.09,-4.46,-2.25,-4.45,-2.24,2.26,2.25,2.03,-2.20,-2.19,-2.21
88.97,-4.45,-2.21,-4.45,-2.21,2.22,2.23,2.01,-2.23,-2.24,-2.24
89.86,-4.45,-2.18,-4.45,-2.18,2.17,2.21,1.99,-2.28,-2.28,-2.27
90.76,-4.45,-2.14,-4.45,-2.14,2.13,2.19,1.97,-2.32,-2.32,-2.31
91.66,-4.45,-2.11,-4.45,-2.11,2.11,2.17,1.96,-2.34,-2.34,-2.34
92.58,-4.45,-2.08,-4.45,-2.08,2.10,2.16,1.94,-2.35,-2.35,-2.37
93.51,-4.45,-2.05,-4.44,-2.04,2.08,2.14,1.93,-2.37,-2.36,-2.40
94.44,-4.45,-2.02,-4.47,-2.04,2.07,2.12,1.92,-2.39,-2.41,-2.43
95.39,-4.50,-2.04,-4.53,-2.07,2.05,2.10,1.90,-2.45,-2.48,-2.46
96.34,-4.61,-2.12,-4.58,-2.09,2.03,2.08,1.89,-2.58,-2.55,-2.50
97.30,-4.63,-2.11,-4.60,-2.08,2.02,2.07,1.88,-2.61,-2.58,-2.52
98.28,-4.56,-2.01,-4.58,-2.03,2.01,2.05,1.88,-2.55,-2.56,-2.55
99.26,-4.53,-1.96,-4.53,-1.95,2.01,2.03,1.87,-2.52,-2.52,-2.57
100.25,-4.50,-1.90,-4.54,-1.94,2.01,2.02,1.87,-2.49,-2.53,-2.60
101.25,-4.58,-1.95,-4.60,-1.97,2.00,2.00,1.86,-2.58,-2.60,-2.63
102.27,-4.73,-2.07,-4.68,-2.01,1.99,1.98,1.86,-2.74,-2.68,-2.66
103.29,-4.74,-2.03,-4.74,-2.05,1.99,1.97,1.85,-2.75,-2.75,-2.71
104.32,-4.76,-2.03,-4.78,-2.04,2.00,1.95,1.85,-2.76,-2.77,-2.73
105.37,-4.79,-2.02,-4.79,-2.02,2.02,1.94,1.85,-2.77,-2.77,-2.77
106.42,-4.81,-2.02,-4.80,-2.01,2.04,1.92,1.85,-2.77,-2.76,-2.80
107.48,-4.84,-2.01,-4.84,-2.00,2.05,1.91,1.85,-2.79,-2.79,-2.84
108.56,-4.86,-1.99,-4.90,-2.03,2.05,1.89,1.85,-2.81,-2.85,-2.87
109.64,-4.98,-2.07,-4.98,-2.07,2.05,1.88,1.85,-2.93,-2.93,-2.91
110.74,-5.08,-2.14,-5.03,-2.09,2.04,1.86,1.85,-3.04,-2.99,-2.94
111.85,-5.04,-2.07,-5.06,-2.08,2.04,1.85,1.85,-3.01,-3.02,-2.97
112.97,-5.03,-2.01,-5.05,-2.04,2.02,1.83,1.85,-3.01,-3.02,-3.02
114.10,-5.03,-1.99,-5.03,-1.99,2.00,1.82,1.85,-3.03,-3.03,-3.04
115.24,-5.04,-1.96,-5.04,-1.96,1.98,1.81,1.84,-3.06,-3.06,-3.08
116.39,-5.04,-1.94,-5.04,-1.93,1.94,1.79,1.84,-3.10,-3.10,-3.11
117.55,-5.03,-1.90,-5.04,-1.90,1.91,1.78,1.84,-3.12,-3.13,-3.13
118.73,-5.03,-1.87,-5.03,-1.87,1.88,1.77,1.83,-3.16,-3.15,-3.16
119.92,-5.02,-1.85,-5.02,-1.84,1.85,1.75,1.83,-3.18,-3.17,-3.17
121.12,-5.01,-1.82,-5.01,-1.82,1.82,1.74,1.82,-3.19,-3.19,-3.19
122.33,-5.00,-1.79,-5.00,-1.80,1.80,1.73,1.82,-3.20,-3.21,-3.21
123.55,-5.00,-1.78,-5.00,-1.77,1.77,1.71,1.81,-3.23,-3.22,-3.22
124.79,-4.99,-1.75,-4.99,-1.75,1.75,1.70,1.80,-3.24,-3.24,-3.24
126.03,-4.98,-1.72,-4.99,-1.73,1.73,1.69,1.79,-3.26,-3.26,-3.26
127.29,-4.98,-1.71,-4.98,-1.70,1.70,1.67,1.78,-3.28,-3.27,-3.27
128.57,-4.97,-1.68,-4.97,-1.68,1.68,1.66,1.77,-3.29,-3.29,-3.30
129.85,-4.96,-1.65,-4.96,-1.66,1.66,1.65,1.75,-3.30,-3.30,-3.31
131.15,-4.96,-1.64,-4.96,-1.64,1.64,1.64,1.74,-3.32,-3.32,-3.32
132.46,-4.95,-1.62,-4.95,-1.62,1.62,1.62,1.72,-3.34,-3.34,-3.33
133.79,-4.95,-1.61,-4.95,-1.61,1.59,1.61,1.70,-3.36,-3.36,-3.34
135.12,-4.95,-1.58,-4.95,-1.59,1.57,1.60,1.69,-3.38,-3.38,-3.37
136.48,-4.94,-1.57,-4.94,-1.57,1.56,1.59,1.67,-3.38,-3.38,-3.37
137.84,-4.94,-1.55,-4.94,-1.55,1.56,1.57,1.65,-3.38,-3.38,-3.39
139.22,-4.94,-1.52,-4.93,-1.51,1.57,1.56,1.63,-3.37,-3.36,-3.42
140.61,-4.94,-1.50,-4.94,-1.51,1.57,1.55,1.61,-3.37,-3.37,-3.44
142.02,-4.94,-1.50,-5.01,-1.56,1.57,1.53,1.59,-3.37,-3.43,-3.44
143.44,-5.10,-1.65,-5.07,-1.61,1.57,1.52,1.57,-3.53,-3.50,-3.45
144.87,-5.16,-1.68,-5.11,-1.63,1.56,1.51,1.55,-3.60,-3.54,-3.48
146.32,-5.08,-1.57,-5.11,-1.60,1.55,1.50,1.52,-3.53,-3.56,-3.51
147.78,-5.04,-1.51,-5.06,-1.53,1.52,1.48,1.50,-3.52,-3.54,-3.53
149.26,-5.04,-1.47,-5.04,-1.46,1.49,1.47,1.48,-3.56,-3.55,-3.57
150.75,-5.04,-1.42,-5.04,-1.42,1.43,1.46,1.46,-3.61,-3.60,-3.63
152.26,-5.04,-1.37,-5.04,-1.37,1.37,1.44,1.44,-3.67,-3.67,-3.67
153.78,-5.04,-1.32,-5.04,-1.32,1.31,1.43,1.42,-3.73,-3.73,-3.72
155.32,-5.04,-1.25,-5.04,-1.26,1.25,1.42,1.40,-3.79,-3.79,-3.79
156.88,-5.03,-1.19,-5.02,-1.17,1.19,1.40,1.38,-3.84,-3.83,-3.84
158.44,-5.03,-1.12,-5.04,-1.14,1.15,1.39,1.36,-3.89,-3.90,-3.91
160.03,-5.03,-1.06,-5.09,-1.12,1.11,1.37,1.35,-3.92,-3.99,-3.97
161.63,-5.19,-1.17,-5.10,-1.07,1.07,1.36,1.33,-4.12,-4.03,-4.02
163.24,-5.14,-1.06,-5.11,-1.04,1.04,1.34,1.31,-4.10,-4.07,-4.08
164.88,-5.02,-0.91,-5.14,-1.02,1.03,1.32,1.30,-4.00,-4.11,-4.11
166.53,-5.19,-1.04,-5.16,-1.00,1.02,1.31,1.28,-4.17,-4.13,-4.15
168.19,-5.25,-1.07,-5.22,-1.03,1.03,1.29,1.27,-4.22,-4.18,-4.18
169.87,-5.26,-1.05,-5.27,-1.06,1.05,1.27,1.26,-4.21,-4.22,-4.21
171.57,-5.27,-1.04,-5.26,-1.04,1.07,1.25,1.25,-4.20,-4.19,-4.23
173.29,-5.27,-1.04,-5.31,-1.07,1.10,1.23,1.23,-4.17,-4.21,-4.23
175.02,-5.33,-1.09,-5.37,-1.13,1.12,1.21,1.23,-4.21,-4.25,-4.24
176.77,-5.50,-1.25,-5.42,-1.17,1.14,1.19,1.22,-4.36,-4.28,-4.25
178.54,-5.44,-1.19,-5.44,-1.20,1.15,1.17,1.21,-4.29,-4.29,-4.25
180.32,-5.39,-1.15,-5.42,-1.18,1.15,1.14,1.20,-4.24,-4.27,-4.24
182.13,-5.37,-1.14,-5.37,-1.14,1.15,1.12,1.19,-4.22,-4.22,-4.23
183.95,-5.36,-1.12,-5.36,-1.12,1.14,1.09,1.19,-4.22,-4.22,-4.24
185.79,-5.35,-1.11,-5.35,-1.11,1.11,1.07,1.18,-4.24,-4.24,-4.24
187.65,-5.34,-1.09,-5.34,-1.09,1.09,1.04,1.18,-4.25,-4.25,-4.25
189.52,-5.32,-1.06,-5.33,-1.07,1.07,1.01,1.18,-4.26,-4.26,-4.26
191.42,-5.31,-1.04,-5.31,-1.04,1.05,0.98,1.18,-4.26,-4.26,-4.27
193.33,-5.30,-1.02,-5.29,-1.01,1.04,0.95,1.17,-4.26,-4.25,-4.28
195.27,-5.28,-0.99,-5.28,-0.99,1.02,0.92,1.17,-4.26,-4.26,-4.29
197.22,-5.27,-0.96,-5.31,-1.00,0.99,0.89,1.17,-4.28,-4.32,-4.31
199.19,-5.34,-1.01,-5.34,-1.01,0.96,0.86,1.17,-4.38,-4.38,-4.34
201.18,-5.39,-1.05,-5.33,-0.98,0.92,0.84,1.18,-4.47,-4.41,-4.35
203.19,-5.28,-0.93,-5.28,-0.92,0.88,0.82,1.18,-4.40,-4.40,-4.36
205.23,-5.16,-0.78,-5.20,-0.83,0.84,0.80,1.18,-4.32,-4.36,-4.39
207.28,-5.14,-0.76,-5.14,-0.75,0.80,0.78,1.18,-4.34,-4.34,-4.39
209.35,-5.14,-0.73,-5.13,-0.72,0.76,0.77,1.18,-4.38,-4.37,-4.41
211.44,-5.14,-0.71,-5.14,-0.71,0.73,0.77,1.19,-4.41,-4.41,-4.43
213.56,-5.15,-0.71,-5.15,-0.71,0.70,0.77,1.19,-4.45,-4.45,-4.44
215.69,-5.15,-0.70,-5.15,-0.70,0.69,0.77,1.19,-4.47,-4.47,-4.45
217.85,-5.16,-0.70,-5.16,-0.70,0.68,0.78,1.19,-4.48,-4.48,-4.46
220.03,-5.16,-0.69,-5.16,-0.69,0.69,0.78,1.20,-4.47,-4.47,-4.48
222.23,-5.16,-0.68,-5.16,-0.69,0.69,0.79,1.20,-4.47,-4.47,-4.48
224.45,-5.16,-0.69,-5.16,-0.69,0.69,0.80,1.20,-4.47,-4.47,-4.47
226.70,-5.16,-0.69,-5.16,-0.69,0.69,0.81,1.20,-4.48,-4.48,-4.47
228.96,-5.16,-0.70,-5.16,-0.70,0.68,0.82,1.20,-4.48,-4.48,-4.46
231.25,-5.15,-0.70,-5.16,-0.71,0.68,0.83,1.20,-4.47,-4.48,-4.45
233.57,-5.14,-0.70,-5.13,-0.70,0.69,0.84,1.19,-4.45,-4.45,-4.44
235.90,-5.13,-0.71,-5.09,-0.67,0.70,0.85,1.19,-4.43,-4.39,-4.42
238.26,-5.02,-0.62,-5.07,-0.67,0.72,0.85,1.19,-4.31,-4.35,-4.40
240.64,-5.04,-0.67,-5.07,-0.70,0.73,0.86,1.18,-4.31,-4.34,-4.37
243.05,-5.13,-0.79,-5.10,-0.76,0.75,0.86,1.17,-4.38,-4.35,-4.34
245.48,-5.16,-0.85,-5.14,-0.82,0.79,0.86,1.16,-4.38,-4.35,-4.31
247.93,-5.13,-0.84,-5.14,-0.85,0.82,0.86,1.15,-4.31,-4.32,-4.29
250.41,-5.11,-0.84,-5.12,-0.85,0.86,0.86,1.14,-4.26,-4.26,-4.27
252.92,-5.10,-0.86,-5.10,-0.86,0.88,0.86,1.13,-4.22,-4.21,-4.24
255.45,-5.09,-0.88,-5.11,-0.89,0.90,0.86,1.11,-4.19,-4.21,-4.21
258.00,-5.12,-0.92,-5.14,-0.95,0.91,0.86,1.10,-4.22,-4.24,-4.20
260.58,-5.16,-0.98,-5.14,-0.96,0.91,0.85,1.08,-4.25,-4.23,-4.18
263.19,-5.15,-1.00,-5.08,-0.92,0.91,0.85,1.06,-4.24,-4.17,-4.16
265.82,-4.96,-0.82,-5.01,-0.87,0.91,0.84,1.04,-4.06,-4.10,-4.14
268.48,-4.90,-0.79,-4.99,-0.87,0.91,0.83,1.02,-4.00,-4.08,-4.11
271.16,-5.02,-0.93,-4.98,-0.89,0.91,0.83,0.99,-4.11,-4.07,-4.09
273.87,-5.08,-1.01,-4.99,-0.92,0.91,0.82,0.97,-4.17,-4.08,-4.07
276.61,-4.92,-0.88,-4.98,-0.93,0.92,0.81,0.94,-4.00,-4.06,-4.04
279.38,-4.90,-0.89,-4.94,-0.92,0.94,0.80,0.92,-3.96,-4.00,-4.02
282.17,-4.96,-0.96,-4.93,-0.94,0.97,0.79,0.89,-4.00,-3.97,-4.00
284.99,-4.98,-1.02,-4.97,-1.00,1.00,0.78,0.86,-3.98,-3.97,-3.96
287.84,-4.97,-1.04,-4.98,-1.04,1.03,0.77,0.83,-3.94,-3.95,-3.94
290.72,-4.96,-1.06,-4.96,-1.06,1.06,0.76,0.80,-3.90,-3.90,-3.90
293.63,-4.94,-1.07,-4.94,-1.07,1.09,0.75,0.77,-3.85,-3.85,-3.87
296.57,-4.93,-1.10,-4.94,-1.10,1.11,0.74,0.74,-3.82,-3.82,-3.83
299.53,-4.92,-1.11,-4.95,-1.14,1.12,0.73,0.71,-3.80,-3.82,-3.82
302.53,-4.96,-1.17,-4.94,-1.16,1.12,0.71,0.68,-3.84,-3.82,-3.79
305.55,-4.94,-1.19,-4.91,-1.15,1.10,0.70,0.65,-3.84,-3.81,-3.75
308.61,-4.81,-1.08,-4.85,-1.12,1.08,0.69,0.62,-3.73,-3.77,-3.73
311.69,-4.78,-1.07,-4.77,-1.06,1.06,0.67,0.59,-3.72,-3.71,-3.71
314.81,-4.70,-1.03,-4.68,-1.00,1.05,0.66,0.56,-3.65,-3.63,-3.68
317.96,-4.62,-0.95,-4.64,-0.98,1.04,0.64,0.53,-3.58,-3.60,-3.67
321.14,-4.60,-0.95,-4.62,-0.97,1.03,0.63,0.49,-3.57,-3.59,-3.65
324.35,-4.66,-1.02,-4.64,-1.00,1.04,0.61,0.46,-3.63,-3.60,-3.64
327.59,-4.68,-1.06,-4.69,-1.07,1.04,0.60,0.43,-3.64,-3.65,-3.62
330.87,-4.72,-1.11,-4.72,-1.11,1.05,0.58,0.40,-3.67,-3.68,-3.61
334.18,-4.75,-1.15,-4.71,-1.10,1.05,0.56,0.37,-3.70,-3.65,-3.61
337.52,-4.65,-1.05,-4.67,-1.07,1.05,0.55,0.34,-3.60,-3.62,-3.60
340.90,-4.59,-1.01,-4.63,-1.05,1.04,0.53,0.31,-3.55,-3.59,-3.58
344.30,-4.58,-1.01,-4.58,-1.01,1.02,0.51,0.28,-3.56,-3.56,-3.57
347.75,-4.58,-1.02,-4.52,-0.96,0.99,0.49,0.25,-3.59,-3.53,-3.56
351.23,-4.45,-0.90,-4.49,-0.93,0.96,0.47,0.21,-3.49,-3.53,-3.55
354.74,-4.41,-0.86,-4.48,-0.92,0.93,0.45,0.18,-3.48,-3.54,-3.55
358.28,-4.52,-0.98,-4.46,-0.91,0.92,0.43,0.15,-3.61,-3.54,-3.55
361.87,-4.48,-0.94,-4.45,-0.90,0.90,0.41,0.12,-3.58,-3.54,-3.55
365.49,-4.38,-0.84,-4.42,-0.88,0.88,0.39,0.09,-3.50,-3.54,-3.54
369.14,-4.35,-0.81,-4.38,-0.84,0.85,0.37,0.06,-3.50,-3.53,-3.54
372.83,-4.39,-0.85,-4.38,-0.85,0.81,0.35,0.03,-3.58,-3.57,-3.54
376.56,-4.40,-0.86,-4.37,-0.84,0.77,0.33,0.01,-3.63,-3.60,-3.54
380.33,-4.33,-0.81,-4.31,-0.78,0.73,0.30,-0.02,-3.60,-3.57,-3.52
384.13,-4.19,-0.66,-4.20,-0.67,0.70,0.28,-0.05,-3.49,-3.50,-3.53
387.97,-4.08,-0.55,-4.11,-0.58,0.67,0.26,-0.08,-3.41,-3.45,-3.53
391.85,-4.07,-0.54,-4.08,-0.55,0.63,0.23,-0.11,-3.44,-3.45,-3.53
395.77,-4.11,-0.59,-4.11,-0.59,0.60,0.21,-0.14,-3.51,-3.51,-3.52
399.73,-4.16,-0.64,-4.14,-0.61,0.57,0.18,-0.17,-3.59,-3.57,-3.53
403.72,-4.16,-0.63,-4.13,-0.60,0.54,0.15,-0.20,-3.62,-3.59,-3.54
407.76,-4.06,-0.52,-4.08,-0.55,0.50,0.13,-0.23,-3.56,-3.58,-3.54
411.84,-3.99,-0.46,-4.00,-0.46,0.46,0.10,-0.25,-3.53,-3.54,-3.53
415.96,-3.94,-0.40,-3.95,-0.41,0.41,0.07,-0.28,-3.53,-3.54,-3.54
420.12,-3.87,-0.33,-3.89,-0.35,0.35,0.04,-0.31,-3.52,-3.54,-3.54
424.32,-3.86,-0.33,-3.79,-0.26,0.28,0.01,-0.34,-3.58,-3.51,-3.53
428.56,-3.67,-0.14,-3.70,-0.17,0.21,-0.02,-0.37,-3.46,-3.49,-3.53
432.85,-3.56,-0.05,-3.62,-0.11,0.14,-0.05,-0.39,-3.42,-3.48,-3.51
437.18,-3.59,-0.10,-3.55,-0.06,0.07,-0.08,-0.42,-3.52,-3.48,-3.49
441.55,-3.51,-0.06,-3.49,-0.03,0.01,-0.11,-0.45,-3.50,-3.48,-3.45
