frequency,raw,error,smoothed,error_smoothed,equalization,parametric_eq,fixed_band_eq,equalized_raw,equalized_smoothed,target
20.00,2.23,4.54,2.23,4.54,-4.54,-4.05,-2.16,-2.31,-2.31,-2.31
20.20,2.25,4.56,2.25,4.56,-4.56,-4.09,-2.22,-2.31,-2.30,-2.31
20.40,2.28,4.58,2.28,4.57,-4.57,-4.14,-2.29,-2.29,-2.30,-2.30
20.61,2.30,4.59,2.30,4.59,-4.59,-4.19,-2.35,-2.29,-2.29,-2.29
20.81,2.33,4.62,2.33,4.61,-4.61,-4.24,-2.42,-2.28,-2.28,-2.29
21.02,2.35,4.63,2.35,4.63,-4.63,-4.29,-2.49,-2.28,-2.28,-2.28
21.23,2.38,4.66,2.38,4.65,-4.65,-4.34,-2.57,-2.27,-2.27,-2.28
21.44,2.41,4.68,2.41,4.68,-4.67,-4.38,-2.64,-2.26,-2.26,-2.27
21.66,2.44,4.70,2.44,4.70,-4.70,-4.43,-2.72,-2.26,-2.26,-2.26
21.87,2.47,4.73,2.47,4.72,-4.72,-4.47,-2.80,-2.25,-2.25,-2.26
22.09,2.49,4.74,2.49,4.74,-4.75,-4.52,-2.88,-2.25,-2.25,-2.25
22.31,2.52,4.76,2.52,4.76,-4.77,-4.56,-2.97,-2.25,-2.25,-2.24
22.54,2.56,4.80,2.56,4.79,-4.80,-4.61,-3.06,-2.24,-2.24,-2.24
22.76,2.59,4.82,2.59,4.82,-4.82,-4.65,-3.14,-2.23,-2.23,-2.23
22.99,2.63,4.85,2.63,4.85,-4.84,-4.69,-3.24,-2.21,-2.21,-2.22
23.22,2.67,4.88,2.67,4.87,-4.87,-4.74,-3.33,-2.20,-2.20,-2.21
23.45,2.70,4.90,2.70,4.89,-4.89,-4.78,-3.42,-2.19,-2.19,-2.20
23.69,2.72,4.91,2.72,4.91,-4.91,-4.82,-3.52,-2.19,-2.19,-2.19
23.92,2.74,4.92,2.74,4.92,-4.93,-4.86,-3.62,-2.19,-2.18,-2.18
24.16,2.77,4.94,2.77,4.94,-4.94,-4.89,-3.72,-2.17,-2.17,-2.17
24.40,2.80,4.96,2.80,4.95,-4.96,-4.93,-3.82,-2.16,-2.16,-2.16
24.65,2.83,4.97,2.83,4.97,-4.97,-4.96,-3.93,-2.14,-2.14,-2.14
24.89,2.85,4.98,2.85,4.98,-4.98,-5.00,-4.03,-2.13,-2.13,-2.13
25.14,2.88,5.00,2.88,5.00,-5.00,-5.03,-4.14,-2.12,-2.12,-2.12
25.39,2.90,5.01,2.90,5.01,-5.01,-5.06,-4.25,-2.10,-2.10,-2.11
25.65,2.92,5.02,2.92,5.01,-5.01,-5.09,-4.36,-2.09,-2.09,-2.10
25.91,2.93,5.01,2.93,5.01,-5.01,-5.12,-4.46,-2.08,-2.07,-2.08
26.16,2.94,5.01,2.94,5.01,-5.00,-5.15,-4.57,-2.06,-2.06,-2.07
26.43,2.94,5.00,2.94,4.99,-4.98,-5.17,-4.68,-2.04,-2.05,-2.06
26.69,2.93,4.98,2.93,4.97,-4.96,-5.20,-4.79,-2.03,-2.04,-2.05
26.96,2.91,4.94,2.91,4.94,-4.94,-5.22,-4.89,-2.03,-2.03,-2.03
27.23,2.90,4.92,2.90,4.92,-4.93,-5.24,-4.99,-2.03,-2.02,-2.02
27.50,2.90,4.90,2.90,4.90,-4.91,-5.26,-5.09,-2.01,-2.01,-2.00
27.77,2.90,4.89,2.90,4.89,-4.90,-5.27,-5.19,-2.00,-1.99,-1.99
28.05,2.91,4.88,2.91,4.88,-4.89,-5.29,-5.29,-1.98,-1.98,-1.97
28.33,2.93,4.89,2.93,4.88,-4.89,-5.30,-5.37,-1.96,-1.96,-1.96
28.62,2.95,4.89,2.95,4.89,-4.89,-5.31,-5.46,-1.94,-1.94,-1.94
28.90,2.98,4.91,2.98,4.90,-4.90,-5.32,-5.54,-1.92,-1.92,-1.93
29.19,3.01,4.92,3.01,4.92,-4.92,-5.33,-5.61,-1.91,-1.91,-1.91
29.48,3.04,4.94,3.04,4.94,-4.93,-5.33,-5.68,-1.89,-1.89,-1.90
29.78,3.07,4.95,3.07,4.95,-4.95,-5.34,-5.73,-1.88,-1.88,-1.88
30.08,3.10,4.97,3.10,4.97,-4.97,-5.34,-5.78,-1.87,-1.87,-1.87
30.38,3.13,4.98,3.13,4.98,-4.98,-5.34,-5.83,-1.85,-1.85,-1.85
30.68,3.16,5.00,3.16,5.00,-4.99,-5.33,-5.86,-1.83,-1.83,-1.84
30.99,3.19,5.01,3.19,5.01,-5.01,-5.33,-5.89,-1.82,-1.82,-1.82
31.30,3.21,5.02,3.21,5.02,-5.02,-5.32,-5.90,-1.81,-1.80,-1.81
31.61,3.23,5.02,3.23,5.02,-5.02,-5.32,-5.91,-1.79,-1.79,-1.79
31.93,3.25,5.03,3.25,5.02,-5.02,-5.31,-5.91,-1.77,-1.77,-1.78
32.24,3.26,5.02,3.26,5.02,-5.01,-5.29,-5.90,-1.75,-1.75,-1.76
32.57,3.27,5.02,3.27,5.01,-5.00,-5.28,-5.88,-1.73,-1.74,-1.75
32.89,3.27,5.00,3.27,5.00,-4.99,-5.26,-5.85,-1.72,-1.72,-1.73
33.22,3.26,4.98,3.26,4.98,-4.97,-5.25,-5.82,-1.71,-1.71,-1.72
33.55,3.25,4.95,3.25,4.95,-4.95,-5.23,-5.78,-1.70,-1.70,-1.70
33.89,3.24,4.93,3.24,4.93,-4.93,-5.21,-5.73,-1.69,-1.69,-1.69
34.23,3.24,4.91,3.24,4.91,-4.92,-5.19,-5.67,-1.68,-1.68,-1.67
34.57,3.24,4.90,3.24,4.90,-4.90,-5.16,-5.61,-1.66,-1.66,-1.66
34.92,3.24,4.89,3.24,4.88,-4.89,-5.14,-5.55,-1.65,-1.65,-1.65
35.27,3.24,4.87,3.24,4.87,-4.88,-5.11,-5.48,-1.64,-1.64,-1.63
35.62,3.25,4.87,3.25,4.87,-4.87,-5.08,-5.41,-1.62,-1.62,-1.62
35.97,3.26,4.87,3.26,4.87,-4.87,-5.05,-5.33,-1.61,-1.61,-1.61
36.33,3.27,4.87,3.27,4.86,-4.86,-5.02,-5.26,-1.59,-1.59,-1.60
36.70,3.27,4.86,3.27,4.86,-4.85,-4.99,-5.18,-1.58,-1.58,-1.59
37.06,3.26,4.84,3.26,4.84,-4.83,-4.95,-5.10,-1.57,-1.57,-1.58
37.43,3.25,4.82,3.25,4.82,-4.81,-4.92,-5.02,-1.56,-1.56,-1.57
37.81,3.23,4.79,3.23,4.79,-4.78,-4.88,-4.94,-1.55,-1.55,-1.56
38.19,3.21,4.76,3.21,4.76,-4.75,-4.85,-4.86,-1.54,-1.54,-1.55
38.57,3.18,4.72,3.18,4.72,-4.72,-4.81,-4.78,-1.54,-1.54,-1.54
38.95,3.15,4.68,3.15,4.68,-4.68,-4.77,-4.70,-1.53,-1.53,-1.53
39.34,3.12,4.64,3.12,4.64,-4.65,-4.73,-4.62,-1.53,-1.53,-1.52
39.74,3.09,4.60,3.09,4.60,-4.61,-4.69,-4.55,-1.52,-1.52,-1.51
40.14,3.07,4.58,3.07,4.57,-4.58,-4.65,-4.47,-1.51,-1.51,-1.51
40.54,3.05,4.55,3.05,4.54,-4.54,-4.61,-4.40,-1.49,-1.49,-1.50
40.94,3.02,4.51,3.02,4.51,-4.50,-4.56,-4.33,-1.48,-1.48,-1.49
41.35,2.99,4.47,2.99,4.47,-4.46,-4.52,-4.26,-1.47,-1.47,-1.48
41.76,2.96,4.43,2.96,4.42,-4.42,-4.48,-4.20,-1.46,-1.46,-1.47
42.18,2.92,4.38,2.92,4.38,-4.38,-4.43,-4.14,-1.46,-1.46,-1.46
42.60,2.88,4.33,2.88,4.33,-4.34,-4.39,-4.08,-1.46,-1.45,-1.45
43.03,2.85,4.29,2.85,4.29,-4.29,-4.35,-4.02,-1.44,-1.45,-1.44
43.46,2.82,4.25,2.82,4.25,-4.25,-4.30,-3.97,-1.43,-1.43,-1.43
43.90,2.79,4.21,2.79,4.21,-4.21,-4.26,-3.92,-1.42,-1.42,-1.42
44.33,2.77,4.17,2.77,4.17,-4.17,-4.21,-3.87,-1.40,-1.40,-1.40
44.78,2.75,4.14,2.75,4.13,-4.13,-4.17,-3.83,-1.38,-1.38,-1.39
45.23,2.72,4.10,2.72,4.09,-4.09,-4.13,-3.79,-1.37,-1.37,-1.38
45.68,2.69,4.05,2.69,4.05,-4.04,-4.08,-3.75,-1.35,-1.35,-1.36
46.13,2.66,4.01,2.66,4.00,-4.00,-4.04,-3.72,-1.34,-1.34,-1.35
46.60,2.63,3.96,2.63,3.96,-3.96,-4.00,-3.68,-1.33,-1.33,-1.33
47.06,2.61,3.93,2.61,3.92,-3.93,-3.95,-3.65,-1.32,-1.32,-1.32
47.53,2.59,3.89,2.59,3.89,-3.90,-3.91,-3.63,-1.31,-1.31,-1.30
48.01,2.58,3.87,2.58,3.86,-3.87,-3.87,-3.60,-1.29,-1.29,-1.29
48.49,2.57,3.84,2.57,3.84,-3.85,-3.83,-3.58,-1.28,-1.28,-1.27
48.97,2.57,3.83,2.57,3.83,-3.83,-3.79,-3.56,-1.26,-1.26,-1.26
49.46,2.58,3.82,2.58,3.82,-3.82,-3.75,-3.54,-1.24,-1.24,-1.24
49.96,2.59,3.82,2.59,3.81,-3.81,-3.71,-3.53,-1.22,-1.22,-1.23
50.46,2.59,3.81,2.59,3.80,-3.80,-3.67,-3.52,-1.21,-1.20,-1.22
50.96,2.59,3.79,2.59,3.79,-3.79,-3.64,-3.50,-1.20,-1.20,-1.20
51.47,2.59,3.78,2.59,3.78,-3.78,-3.61,-3.50,-1.19,-1.19,-1.19
51.99,2.59,3.77,2.59,3.77,-3.77,-3.57,-3.49,-1.18,-1.18,-1.18
52.51,2.59,3.76,2.59,3.76,-3.77,-3.54,-3.48,-1.18,-1.17,-1.17
53.03,2.60,3.76,2.60,3.75,-3.76,-3.51,-3.47,-1.16,-1.16,-1.16
53.56,2.61,3.75,2.61,3.75,-3.75,-3.49,-3.47,-1.14,-1.14,-1.14
54.10,2.62,3.75,2.62,3.75,-3.74,-3.46,-3.46,-1.12,-1.12,-1.13
54.64,2.62,3.74,2.62,3.74,-3.73,-3.44,-3.46,-1.11,-1.11,-1.12
55.18,2.61,3.73,2.61,3.73,-3.72,-3.42,-3.45,-1.11,-1.11,-1.12
55.74,2.60,3.71,2.60,3.71,-3.71,-3.41,-3.45,-1.11,-1.11,-1.11
56.29,2.59,3.69,2.59,3.69,-3.69,-3.39,-3.44,-1.10,-1.10,-1.10
56.86,2.57,3.67,2.57,3.66,-3.67,-3.38,-3.43,-1.10,-1.10,-1.10
57.42,2.55,3.64,2.55,3.64,-3.64,-3.37,-3.42,-1.09,-1.09,-1.09
58.00,2.53,3.62,2.53,3.62,-3.61,-3.36,-3.41,-1.08,-1.08,-1.09
58.58,2.51,3.59,2.50,3.58,-3.58,-3.35,-3.40,-1.07,-1.08,-1.08
59.16,2.47,3.55,2.47,3.55,-3.55,-3.34,-3.39,-1.08,-1.08,-1.08
59.76,2.43,3.51,2.43,3.51,-3.51,-3.32,-3.37,-1.08,-1.08,-1.08
60.35,2.39,3.47,2.39,3.47,-3.47,-3.30,-3.35,-1.08,-1.08,-1.08
60.96,2.35,3.43,2.35,3.43,-3.43,-3.28,-3.33,-1.08,-1.08,-1.08
61.57,2.31,3.39,2.31,3.38,-3.38,-3.25,-3.31,-1.07,-1.08,-1.08
62.18,2.26,3.34,2.26,3.34,-3.34,-3.21,-3.28,-1.08,-1.08,-1.08
62.80,2.21,3.29,2.21,3.29,-3.29,-3.16,-3.25,-1.08,-1.08,-1.08
63.43,2.16,3.24,2.16,3.24,-3.24,-3.11,-3.22,-1.08,-1.08,-1.08
64.07,2.11,3.20,2.10,3.19,-3.19,-3.04,-3.18,-1.08,-1.08,-1.09
64.71,2.04,3.13,2.04,3.13,-3.13,-2.98,-3.14,-1.09,-1.09,-1.09
65.35,1.98,3.07,1.98,3.07,-3.07,-2.90,-3.10,-1.09,-1.09,-1.09
66.01,1.92,3.01,1.92,3.01,-3.01,-2.83,-3.05,-1.09,-1.09,-1.09
66.67,1.86,2.95,1.86,2.95,-2.94,-2.75,-3.01,-1.08,-1.08,-1.09
67.33,1.79,2.88,1.79,2.88,-2.87,-2.68,-2.96,-1.08,-1.09,-1.09
68.01,1.71,2.81,1.71,2.80,-2.80,-2.60,-2.90,-1.09,-1.09,-1.10
68.69,1.63,2.73,1.63,2.73,-2.73,-2.53,-2.85,-1.10,-1.10,-1.10
69.37,1.55,2.65,1.55,2.65,-2.66,-2.46,-2.79,-1.11,-1.10,-1.10
70.07,1.48,2.58,1.48,2.57,-2.58,-2.39,-2.73,-1.10,-1.10,-1.10
70.77,1.40,2.50,1.40,2.50,-2.50,-2.33,-2.67,-1.10,-1.09,-1.10
71.48,1.33,2.43,1.33,2.43,-2.41,-2.26,-2.61,-1.08,-1.09,-1.10
72.19,1.25,2.35,1.25,2.34,-2.33,-2.20,-2.55,-1.08,-1.09,-1.10
72.91,1.17,2.26,1.17,2.26,-2.25,-2.14,-2.49,-1.08,-1.09,-1.09
73.64,1.08,2.17,1.08,2.17,-2.18,-2.09,-2.42,-1.10,-1.09,-1.09
74.38,1.01,2.09,1.01,2.09,-2.11,-2.03,-2.36,-1.10,-1.10,-1.08
75.12,0.95,2.03,0.95,2.02,-2.04,-1.98,-2.30,-1.09,-1.09,-1.08
75.87,0.90,1.97,0.90,1.97,-1.97,-1.93,-2.23,-1.07,-1.07,-1.07
76.63,0.86,1.92,0.86,1.92,-1.91,-1.89,-2.17,-1.05,-1.05,-1.06
77.40,0.82,1.87,0.82,1.87,-1.86,-1.84,-2.10,-1.04,-1.04,-1.05
78.17,0.78,1.82,0.78,1.81,-1.80,-1.80,-2.04,-1.02,-1.03,-1.04
78.95,0.73,1.76,0.73,1.76,-1.75,-1.75,-1.98,-1.02,-1.02,-1.03
79.74,0.68,1.70,0.68,1.70,-1.70,-1.71,-1.91,-1.02,-1.02,-1.02
80.54,0.64,1.65,0.64,1.65,-1.66,-1.67,-1.85,-1.02,-1.02,-1.01
81.35,0.60,1.60,0.61,1.60,-1.61,-1.63,-1.79,-1.01,-1.01,-1.00
82.16,0.58,1.57,0.58,1.56,-1.57,-1.59,-1.73,-0.99,-0.99,-0.99
82.98,0.55,1.53,0.55,1.53,-1.53,-1.55,-1.67,-0.98,-0.98,-0.98
83.81,0.52,1.49,0.52,1.49,-1.48,-1.52,-1.61,-0.96,-0.96,-0.97
84.65,0.49,1.45,0.49,1.44,-1.44,-1.48,-1.55,-0.95,-0.95,-0.96
85.50,0.45,1.40,0.45,1.40,-1.40,-1.45,-1.49,-0.95,-0.94,-0.95
86.35,0.42,1.36,0.42,1.36,-1.35,-1.41,-1.44,-0.93,-0.93,-0.94
87.22,0.38,1.31,0.38,1.30,-1.29,-1.38,-1.38,-0.91,-0.92,-0.93
88.09,0.33,1.25,0.33,1.25,-1.24,-1.35,-1.33,-0.91,-0.91,-0.92
88.97,0.28,1.18,0.28,1.18,-1.18,-1.31,-1.27,-0.90,-0.90,-0.90
89.86,0.23,1.12,0.23,1.12,-1.12,-1.28,-1.22,-0.89,-0.89,-0.89
90.76,0.18,1.06,0.18,1.06,-1.06,-1.25,-1.17,-0.88,-0.88,-0.88
91.66,0.14,1.00,0.14,1.00,-1.01,-1.22,-1.12,-0.87,-0.87,-0.86
92.58,0.11,0.96,0.11,0.96,-0.97,-1.19,-1.07,-0.86,-0.86,-0.85
93.51,0.08,0.92,0.08,0.92,-0.92,-1.16,-1.02,-0.84,-0.84,-0.84
94.44,0.07,0.89,0.07,0.89,-0.89,-1.13,-0.97,-0.82,-0.82,-0.82
95.39,0.05,0.86,0.05,0.86,-0.85,-1.10,-0.92,-0.80,-0.80,-0.81
96.34,0.04,0.83,0.04,0.83,-0.82,-1.07,-0.88,-0.78,-0.78,-0.79
97.30,0.03,0.81,0.03,0.80,-0.80,-1.04,-0.83,-0.77,-0.77,-0.78
98.28,0.01,0.78,0.01,0.77,-0.77,-1.01,-0.79,-0.76,-0.76,-0.77
99.26,-0.02,0.74,-0.02,0.74,-0.74,-0.99,-0.74,-0.76,-0.75,-0.76
100.25,-0.04,0.70,-0.04,0.70,-0.71,-0.96,-0.70,-0.75,-0.75,-0.74
101.25,-0.05,0.68,-0.05,0.67,-0.68,-0.93,-0.66,-0.73,-0.73,-0.73
102.27,-0.07,0.65,-0.07,0.65,-0.65,-0.90,-0.62,-0.72,-0.72,-0.72
103.29,-0.09,0.63,-0.09,0.62,-0.61,-0.88,-0.57,-0.70,-0.71,-0.72
104.32,-0.12,0.59,-0.12,0.59,-0.58,-0.85,-0.54,-0.70,-0.70,-0.71
105.37,-0.15,0.55,-0.15,0.55,-0.55,-0.82,-0.50,-0.70,-0.70,-0.70
106.42,-0.18,0.52,-0.18,0.52,-0.52,-0.80,-0.46,-0.70,-0.70,-0.70
107.48,-0.21,0.49,-0.21,0.49,-0.49,-0.77,-0.42,-0.70,-0.70,-0.70
108.56,-0.24,0.46,-0.24,0.46,-0.46,-0.74,-0.39,-0.70,-0.70,-0.70
109.64,-0.27,0.43,-0.27,0.43,-0.43,-0.72,-0.35,-0.70,-0.70,-0.70
110.74,-0.29,0.41,-0.29,0.41,-0.41,-0.69,-0.32,-0.70,-0.70,-0.70
111.85,-0.31,0.39,-0.31,0.39,-0.39,-0.67,-0.28,-0.70,-0.70,-0.70
112.97,-0.33,0.38,-0.33,0.38,-0.38,-0.64,-0.25,-0.71,-0.71,-0.71
114.10,-0.34,0.37,-0.34,0.37,-0.37,-0.61,-0.22,-0.71,-0.72,-0.71
115.24,-0.35,0.37,-0.35,0.37,-0.37,-0.59,-0.19,-0.72,-0.72,-0.72
116.39,-0.35,0.37,-0.35,0.37,-0.38,-0.56,-0.16,-0.73,-0.73,-0.72
117.55,-0.34,0.39,-0.34,0.38,-0.39,-0.53,-0.13,-0.73,-0.73,-0.73
118.73,-0.33,0.40,-0.33,0.40,-0.40,-0.51,-0.11,-0.73,-0.73,-0.73
119.92,-0.32,0.42,-0.32,0.41,-0.41,-0.48,-0.08,-0.73,-0.73,-0.74
121.12,-0.31,0.43,-0.31,0.42,-0.42,-0.45,-0.06,-0.73,-0.73,-0.74
122.33,-0.31,0.43,-0.31,0.43,-0.43,-0.42,-0.03,-0.74,-0.73,-0.74
123.55,-0.30,0.44,-0.30,0.44,-0.43,-0.40,-0.01,-0.73,-0.73,-0.74
124.79,-0.30,0.44,-0.30,0.43,-0.43,-0.37,0.01,-0.73,-0.73,-0.74
126.03,-0.31,0.43,-0.31,0.42,-0.42,-0.34,0.03,-0.73,-0.74,-0.74
127.29,-0.33,0.41,-0.33,0.41,-0.41,-0.31,0.05,-0.74,-0.74,-0.74
128.57,-0.35,0.39,-0.35,0.39,-0.40,-0.28,0.07,-0.75,-0.74,-0.74
129.85,-0.36,0.38,-0.36,0.38,-0.38,-0.25,0.08,-0.74,-0.74,-0.74
131.15,-0.38,0.36,-0.38,0.36,-0.35,-0.22,0.10,-0.73,-0.73,-0.74
132.46,-0.40,0.34,-0.40,0.33,-0.33,-0.19,0.12,-0.73,-0.73,-0.74
133.79,-0.43,0.30,-0.43,0.30,-0.30,-0.16,0.13,-0.73,-0.73,-0.73
135.12,-0.47,0.26,-0.47,0.26,-0.26,-0.13,0.14,-0.73,-0.73,-0.73
136.48,-0.51,0.22,-0.51,0.22,-0.22,-0.10,0.16,-0.73,-0.73,-0.73
137.84,-0.55,0.18,-0.55,0.18,-0.17,-0.06,0.17,-0.72,-0.72,-0.73
139.22,-0.59,0.14,-0.60,0.13,-0.12,-0.03,0.18,-0.71,-0.72,-0.73
140.61,-0.65,0.08,-0.65,0.08,-0.07,0.01,0.19,-0.72,-0.72,-0.73
142.02,-0.71,0.01,-0.71,0.01,-0.02,0.04,0.20,-0.73,-0.73,-0.72
143.44,-0.76,-0.04,-0.76,-0.04,0.04,0.08,0.21,-0.72,-0.73,-0.72
144.87,-0.82,-0.10,-0.82,-0.10,0.09,0.12,0.22,-0.73,-0.72,-0.72
146.32,-0.87,-0.14,-0.87,-0.15,0.15,0.15,0.23,-0.72,-0.72,-0.73
147.78,-0.93,-0.20,-0.93,-0.20,0.21,0.19,0.24,-0.72,-0.72,-0.73
149.26,-0.99,-0.26,-0.99,-0.26,0.27,0.23,0.25,-0.72,-0.72,-0.73
150.75,-1.06,-0.33,-1.06,-0.33,0.33,0.27,0.26,-0.73,-0.73,-0.73
152.26,-1.12,-0.39,-1.12,-0.39,0.39,0.32,0.27,-0.73,-0.73,-0.73
153.78,-1.19,-0.45,-1.19,-0.45,0.45,0.36,0.28,-0.74,-0.74,-0.74
155.32,-1.25,-0.51,-1.25,-0.51,0.51,0.40,0.28,-0.74,-0.74,-0.74
156.88,-1.31,-0.57,-1.31,-0.57,0.57,0.45,0.29,-0.74,-0.74,-0.74
158.44,-1.37,-0.63,-1.37,-0.63,0.63,0.49,0.30,-0.74,-0.74,-0.74
160.03,-1.43,-0.68,-1.43,-0.68,0.69,0.54,0.31,-0.74,-0.74,-0.75
161.63,-1.48,-0.73,-1.48,-0.74,0.74,0.58,0.32,-0.74,-0.75,-0.75
163.24,-1.54,-0.78,-1.54,-0.79,0.79,0.63,0.33,-0.75,-0.75,-0.76
164.88,-1.60,-0.84,-1.60,-0.84,0.84,0.68,0.34,-0.76,-0.76,-0.76
166.53,-1.65,-0.88,-1.65,-0.88,0.88,0.72,0.35,-0.77,-0.77,-0.77
168.19,-1.70,-0.92,-1.70,-0.92,0.92,0.77,0.37,-0.78,-0.78,-0.78
169.87,-1.74,-0.95,-1.74,-0.95,0.95,0.82,0.38,-0.79,-0.79,-0.79
171.57,-1.78,-0.98,-1.78,-0.99,0.98,0.86,0.39,-0.80,-0.80,-0.80
173.29,-1.82,-1.01,-1.82,-1.01,1.01,0.91,0.40,-0.81,-0.81,-0.81
175.02,-1.85,-1.03,-1.85,-1.03,1.03,0.95,0.41,-0.82,-0.82,-0.82
176.77,-1.88,-1.04,-1.88,-1.04,1.04,1.00,0.43,-0.84,-0.83,-0.84
178.54,-1.90,-1.05,-1.90,-1.05,1.05,1.04,0.44,-0.85,-0.85,-0.85
180.32,-1.92,-1.05,-1.92,-1.06,1.06,1.07,0.46,-0.86,-0.86,-0.87
182.13,-1.94,-1.06,-1.94,-1.06,1.05,1.11,0.47,-0.89,-0.88,-0.88
183.95,-1.95,-1.05,-1.95,-1.05,1.05,1.14,0.48,-0.90,-0.90,-0.90
185.79,-1.96,-1.04,-1.96,-1.04,1.03,1.17,0.50,-0.93,-0.92,-0.92
187.65,-1.95,-1.02,-1.95,-1.02,1.02,1.19,0.52,-0.93,-0.94,-0.93
189.52,-1.95,-1.00,-1.95,-1.00,1.00,1.21,0.53,-0.95,-0.95,-0.95
191.42,-1.94,-0.97,-1.94,-0.97,0.98,1.22,0.55,-0.96,-0.96,-0.97
193.33,-1.94,-0.95,-1.94,-0.96,0.97,1.23,0.57,-0.97,-0.97,-0.99
195.27,-1.94,-0.94,-1.94,-0.94,0.95,1.24,0.58,-0.99,-0.99,-1.00
197.22,-1.96,-0.94,-1.96,-0.94,0.94,1.24,0.60,-1.02,-1.02,-1.02
199.19,-1.98,-0.94,-1.98,-0.94,0.94,1.24,0.62,-1.04,-1.04,-1.04
201.18,-2.01,-0.94,-2.01,-0.94,0.94,1.23,0.63,-1.07,-1.07,-1.07
203.19,-2.03,-0.94,-2.03,-0.94,0.94,1.21,0.65,-1.09,-1.09,-1.09
205.23,-2.05,-0.94,-2.05,-0.95,0.95,1.20,0.67,-1.10,-1.11,-1.11
207.28,-2.08,-0.95,-2.08,-0.95,0.95,1.18,0.69,-1.13,-1.12,-1.13
209.35,-2.11,-0.96,-2.11,-0.96,0.96,1.15,0.70,-1.15,-1.15,-1.15
211.44,-2.15,-0.97,-2.15,-0.98,0.98,1.12,0.72,-1.17,-1.17,-1.18
213.56,-2.20,-1.00,-2.20,-0.99,1.00,1.09,0.74,-1.20,-1.20,-1.20
215.69,-2.24,-1.01,-2.24,-1.01,1.02,1.06,0.75,-1.22,-1.22,-1.23
217.85,-2.29,-1.03,-2.29,-1.04,1.05,1.02,0.77,-1.24,-1.24,-1.26
220.03,-2.34,-1.06,-2.34,-1.07,1.07,0.99,0.78,-1.27,-1.27,-1.28
222.23,-2.40,-1.10,-2.40,-1.10,1.09,0.95,0.79,-1.31,-1.31,-1.30
224.45,-2.45,-1.12,-2.45,-1.12,1.11,0.91,0.81,-1.34,-1.34,-1.33
226.70,-2.48,-1.13,-2.48,-1.14,1.12,0.87,0.82,-1.36,-1.36,-1.35
228.96,-2.51,-1.14,-2.51,-1.14,1.13,0.83,0.83,-1.38,-1.38,-1.37
231.25,-2.52,-1.13,-2.52,-1.13,1.13,0.79,0.83,-1.39,-1.39,-1.39
233.57,-2.52,-1.12,-2.52,-1.12,1.13,0.75,0.84,-1.39,-1.39,-1.40
235.90,-2.52,-1.10,-2.52,-1.11,1.12,0.71,0.84,-1.40,-1.40,-1.42
238.26,-2.52,-1.09,-2.52,-1.09,1.10,0.67,0.85,-1.42,-1.42,-1.43
240.64,-2.52,-1.08,-2.52,-1.08,1.08,0.63,0.85,-1.44,-1.44,-1.44
243.05,-2.51,-1.06,-2.51,-1.06,1.05,0.59,0.85,-1.46,-1.46,-1.45
245.48,-2.50,-1.04,-2.49,-1.04,1.02,0.56,0.84,-1.48,-1.47,-1.46
247.93,-2.46,-0.99,-2.46,-0.99,0.98,0.52,0.84,-1.48,-1.48,-1.47
250.41,-2.42,-0.94,-2.42,-0.94,0.93,0.48,0.83,-1.49,-1.49,-1.48
252.92,-2.37,-0.88,-2.37,-0.88,0.89,0.45,0.82,-1.48,-1.48,-1.49
255.45,-2.32,-0.82,-2.32,-0.82,0.83,0.42,0.81,-1.49,-1.49,-1.50
258.00,-2.27,-0.76,-2.27,-0.77,0.78,0.38,0.80,-1.49,-1.49,-1.51
260.58,-2.22,-0.71,-2.23,-0.72,0.73,0.35,0.78,-1.49,-1.50,-1.51
263.19,-2.19,-0.67,-2.19,-0.67,0.67,0.32,0.76,-1.52,-1.51,-1.52
265.82,-2.16,-0.63,-2.16,-0.63,0.63,0.29,0.74,-1.53,-1.53,-1.53
268.48,-2.12,-0.58,-2.12,-0.58,0.58,0.26,0.72,-1.54,-1.54,-1.54
271.16,-2.08,-0.53,-2.08,-0.53,0.53,0.24,0.70,-1.55,-1.55,-1.55
273.87,-2.04,-0.48,-2.04,-0.49,0.49,0.21,0.67,-1.55,-1.56,-1.56
276.61,-2.01,-0.44,-2.01,-0.44,0.44,0.18,0.64,-1.57,-1.57,-1.57
279.38,-1.97,-0.39,-1.97,-0.39,0.39,0.16,0.62,-1.58,-1.58,-1.58
282.17,-1.93,-0.34,-1.93,-0.34,0.33,0.13,0.59,-1.60,-1.59,-1.59
284.99,-1.88,-0.28,-1.88,-0.28,0.28,0.11,0.56,-1.60,-1.60,-1.60
287.84,-1.83,-0.22,-1.83,-0.22,0.22,0.09,0.52,-1.61,-1.61,-1.61
290.72,-1.78,-0.16,-1.78,-0.16,0.16,0.07,0.49,-1.62,-1.61,-1.62
293.63,-1.72,-0.09,-1.73,-0.10,0.11,0.04,0.46,-1.61,-1.62,-1.63
296.57,-1.68,-0.04,-1.68,-0.04,0.05,0.02,0.42,-1.63,-1.63,-1.64
299.53,-1.63,0.02,-1.63,0.02,-0.01,0.00,0.38,-1.64,-1.64,-1.65
302.53,-1.59,0.07,-1.59,0.07,-0.07,-0.02,0.35,-1.66,-1.66,-1.66
305.55,-1.55,0.13,-1.55,0.12,-0.13,-0.04,0.31,-1.68,-1.68,-1.68
308.61,-1.51,0.18,-1.51,0.18,-0.19,-0.06,0.27,-1.70,-1.69,-1.69
311.69,-1.46,0.24,-1.46,0.24,-0.24,-0.08,0.23,-1.70,-1.70,-1.70
314.81,-1.41,0.31,-1.41,0.30,-0.30,-0.09,0.20,-1.71,-1.71,-1.72
317.96,-1.37,0.36,-1.37,0.36,-0.36,-0.11,0.16,-1.73,-1.73,-1.73
321.14,-1.32,0.43,-1.33,0.42,-0.42,-0.13,0.12,-1.74,-1.74,-1.75
324.35,-1.29,0.47,-1.29,0.47,-0.48,-0.15,0.08,-1.77,-1.76,-1.76
327.59,-1.25,0.53,-1.25,0.53,-0.53,-0.17,0.04,-1.78,-1.78,-1.78
330.87,-1.20,0.59,-1.20,0.59,-0.59,-0.18,-0.00,-1.79,-1.79,-1.79
334.18,-1.16,0.65,-1.16,0.65,-0.64,-0.20,-0.04,-1.80,-1.80,-1.81
337.52,-1.12,0.70,-1.12,0.70,-0.69,-0.22,-0.08,-1.81,-1.81,-1.82
340.90,-1.09,0.75,-1.09,0.74,-0.74,-0.23,-0.12,-1.83,-1.83,-1.84
344.30,-1.07,0.78,-1.07,0.78,-0.78,-0.25,-0.16,-1.85,-1.85,-1.85
347.75,-1.05,0.82,-1.05,0.82,-0.83,-0.27,-0.20,-1.88,-1.87,-1.87
351.23,-1.03,0.86,-1.03,0.86,-0.87,-0.28,-0.24,-1.90,-1.89,-1.89
354.74,-1.00,0.90,-1.00,0.90,-0.90,-0.30,-0.28,-1.90,-1.90,-1.90
358.28,-0.98,0.94,-0.98,0.94,-0.93,-0.31,-0.33,-1.91,-1.91,-1.92
361.87,-0.96,0.98,-0.96,0.97,-0.96,-0.33,-0.37,-1.92,-1.92,-1.94
365.49,-0.95,1.00,-0.95,1.00,-0.99,-0.35,-0.41,-1.94,-1.94,-1.95
369.14,-0.95,1.02,-0.95,1.02,-1.01,-0.36,-0.45,-1.96,-1.96,-1.97
372.83,-0.95,1.03,-0.95,1.03,-1.03,-0.38,-0.49,-1.98,-1.98,-1.98
376.56,-0.96,1.04,-0.96,1.04,-1.04,-0.39,-0.53,-2.00,-2.00,-2.00
380.33,-0.97,1.05,-0.97,1.05,-1.05,-0.41,-0.58,-2.02,-2.02,-2.02
384.13,-0.97,1.06,-0.97,1.06,-1.06,-0.43,-0.62,-2.03,-2.03,-2.03
387.97,-0.97,1.08,-0.97,1.07,-1.07,-0.44,-0.66,-2.04,-2.05,-2.05
391.85,-0.97,1.09,-0.97,1.09,-1.08,-0.46,-0.70,-2.05,-2.05,-2.06
395.77,-0.97,1.10,-0.97,1.10,-1.10,-0.48,-0.75,-2.07,-2.07,-2.07
399.73,-0.97,1.11,-0.97,1.11,-1.11,-0.49,-0.79,-2.08,-2.08,-2.08
403.72,-0.97,1.12,-0.97,1.12,-1.12,-0.51,-0.83,-2.09,-2.09,-2.09
407.76,-0.97,1.13,-0.97,1.13,-1.13,-0.53,-0.87,-2.10,-2.10,-2.10
411.84,-0.97,1.15,-0.97,1.14,-1.14,-0.54,-0.91,-2.11,-2.11,-2.12
415.96,-0.97,1.16,-0.97,1.16,-1.15,-0.56,-0.96,-2.12,-2.12,-2.13
420.12,-0.97,1.17,-0.97,1.17,-1.17,-0.58,-1.00,-2.14,-2.14,-2.14
424.32,-0.97,1.18,-0.97,1.18,-1.18,-0.60,-1.04,-2.15,-2.15,-2.15
428.56,-0.97,1.19,-0.97,1.19,-1.19,-0.61,-1.08,-2.16,-2.16,-2.16
432.85,-0.97,1.21,-0.97,1.20,-1.20,-0.63,-1.12,-2.17,-2.17,-2.18
437.18,-0.97,1.22,-0.97,1.22,-1.22,-0.65,-1.16,-2.19,-2.19,-2.19
441.55,-0.97,1.23,-0.97,1.23,-1.23,-0.67,-1.20,-2.20,-2.20,-2.20
445.96,-0.97,1.25,-0.97,1.25,-1.25,-0.69,-1.24,-2.22,-2.22,-2.22
450.42,-0.97,1.27,-0.97,1.26,-1.26,-0.71,-1.28,-2.23,-2.23,-2.24
