frequency,raw,error,smoothed,error_smoothed,equalization,parametric_eq,fixed_band_eq,equalized_raw,equalized_smoothed,target
20.00,4.73,-0.20,4.73,-0.20,0.20,-0.62,-0.67,4.92,4.92,4.92
20.20,4.76,-0.15,4.76,-0.14,0.14,-0.63,-0.69,4.90,4.90,4.90
20.40,4.78,-0.09,4.78,-0.09,0.09,-0.64,-0.70,4.87,4.87,4.87
20.61,4.82,-0.04,4.81,-0.04,0.04,-0.65,-0.72,4.86,4.85,4.85
20.81,4.85,0.02,4.84,0.02,-0.01,-0.66,-0.74,4.83,4.83,4.83
21.02,4.87,0.07,4.88,0.07,-0.07,-0.67,-0.76,4.80,4.81,4.80
21.23,4.91,0.13,4.91,0.12,-0.12,-0.68,-0.78,4.79,4.79,4.78
21.44,4.94,0.18,4.93,0.17,-0.17,-0.69,-0.80,4.77,4.76,4.76
21.66,4.97,0.23,4.97,0.22,-0.22,-0.70,-0.82,4.74,4.74,4.74
21.87,4.99,0.27,4.99,0.27,-0.28,-0.71,-0.85,4.71,4.72,4.72
22.09,5.03,0.33,5.02,0.32,-0.33,-0.71,-0.87,4.70,4.69,4.70
22.31,5.06,0.38,5.06,0.38,-0.38,-0.72,-0.89,4.67,4.67,4.68
22.54,5.09,0.44,5.09,0.44,-0.44,-0.73,-0.92,4.65,4.66,4.65
22.76,5.13,0.50,5.12,0.49,-0.49,-0.74,-0.94,4.64,4.63,4.63
22.99,5.16,0.55,5.16,0.55,-0.54,-0.75,-0.97,4.62,4.62,4.61
23.22,5.18,0.59,5.18,0.59,-0.59,-0.76,-0.99,4.59,4.60,4.59
23.45,5.22,0.64,5.21,0.64,-0.64,-0.77,-1.02,4.58,4.57,4.58
23.69,5.24,0.68,5.24,0.68,-0.68,-0.78,-1.05,4.56,4.56,4.56
23.92,5.27,0.72,5.27,0.72,-0.72,-0.79,-1.07,4.54,4.55,4.55
24.16,5.30,0.77,5.29,0.76,-0.76,-0.80,-1.10,4.53,4.53,4.53
24.40,5.32,0.80,5.32,0.80,-0.80,-0.81,-1.13,4.51,4.52,4.52
24.65,5.35,0.84,5.34,0.84,-0.84,-0.82,-1.16,4.50,4.50,4.51
24.89,5.37,0.88,5.37,0.88,-0.88,-0.83,-1.18,4.48,4.49,4.49
25.14,5.40,0.92,5.40,0.92,-0.92,-0.84,-1.21,4.47,4.47,4.48
25.39,5.43,0.96,5.43,0.96,-0.96,-0.85,-1.24,4.46,4.46,4.46
25.65,5.46,1.00,5.46,1.00,-1.00,-0.86,-1.27,4.45,4.45,4.45
25.91,5.49,1.04,5.49,1.04,-1.04,-0.87,-1.30,4.44,4.44,4.44
26.16,5.51,1.08,5.51,1.08,-1.08,-0.88,-1.33,4.43,4.43,4.43
26.43,5.54,1.12,5.54,1.12,-1.12,-0.89,-1.35,4.42,4.42,4.41
26.69,5.56,1.16,5.56,1.16,-1.16,-0.90,-1.38,4.40,4.40,4.40
26.96,5.59,1.20,5.58,1.19,-1.19,-0.91,-1.41,4.40,4.39,4.39
27.23,5.61,1.23,5.61,1.23,-1.23,-0.92,-1.43,4.38,4.38,4.38
27.50,5.63,1.26,5.63,1.26,-1.26,-0.93,-1.46,4.37,4.37,4.37
27.77,5.66,1.29,5.65,1.29,-1.29,-0.94,-1.48,4.37,4.36,4.37
28.05,5.68,1.32,5.68,1.32,-1.32,-0.95,-1.51,4.36,4.36,4.36
28.33,5.70,1.35,5.70,1.35,-1.35,-0.96,-1.53,4.35,4.35,4.35
28.62,5.73,1.38,5.72,1.38,-1.38,-0.98,-1.55,4.35,4.34,4.35
28.90,5.75,1.41,5.75,1.41,-1.41,-0.99,-1.57,4.34,4.34,4.34
29.19,5.77,1.43,5.77,1.44,-1.44,-1.00,-1.59,4.33,4.33,4.34
29.48,5.80,1.47,5.80,1.47,-1.47,-1.01,-1.60,4.33,4.33,4.32
29.78,5.82,1.49,5.82,1.50,-1.50,-1.02,-1.62,4.32,4.32,4.32
30.08,5.84,1.52,5.84,1.52,-1.52,-1.03,-1.63,4.32,4.31,4.31
30.38,5.85,1.54,5.85,1.54,-1.54,-1.04,-1.64,4.30,4.31,4.31
30.68,5.87,1.57,5.87,1.57,-1.57,-1.05,-1.65,4.30,4.30,4.30
30.99,5.89,1.60,5.88,1.59,-1.59,-1.06,-1.65,4.30,4.30,4.29
31.30,5.89,1.60,5.89,1.61,-1.60,-1.07,-1.66,4.29,4.29,4.29
31.61,5.90,1.62,5.90,1.62,-1.62,-1.08,-1.66,4.28,4.28,4.28
31.93,5.90,1.63,5.90,1.63,-1.63,-1.09,-1.66,4.27,4.27,4.27
32.24,5.90,1.63,5.90,1.64,-1.64,-1.10,-1.65,4.25,4.26,4.26
32.57,5.91,1.66,5.90,1.65,-1.65,-1.11,-1.65,4.25,4.25,4.25
32.89,5.90,1.66,5.90,1.66,-1.66,-1.12,-1.64,4.23,4.24,4.24
33.22,5.91,1.68,5.90,1.67,-1.67,-1.13,-1.63,4.23,4.23,4.23
33.55,5.90,1.68,5.90,1.68,-1.68,-1.14,-1.62,4.21,4.22,4.22
33.89,5.90,1.69,5.90,1.69,-1.69,-1.15,-1.61,4.21,4.21,4.21
34.23,5.90,1.70,5.90,1.70,-1.70,-1.16,-1.60,4.20,4.20,4.19
34.57,5.90,1.71,5.89,1.71,-1.70,-1.17,-1.59,4.19,4.19,4.19
34.92,5.89,1.71,5.89,1.71,-1.71,-1.18,-1.57,4.18,4.18,4.18
35.27,5.88,1.71,5.88,1.71,-1.71,-1.20,-1.55,4.17,4.17,4.17
35.62,5.88,1.71,5.87,1.71,-1.71,-1.21,-1.54,4.17,4.16,4.17
35.97,5.86,1.70,5.86,1.71,-1.71,-1.22,-1.52,4.15,4.16,4.15
36.33,5.86,1.70,5.85,1.70,-1.71,-1.23,-1.50,4.15,4.15,4.15
36.70,5.84,1.70,5.84,1.70,-1.70,-1.24,-1.48,4.14,4.14,4.14
37.06,5.83,1.70,5.83,1.70,-1.70,-1.25,-1.46,4.13,4.13,4.13
37.43,5.82,1.69,5.81,1.69,-1.69,-1.26,-1.45,4.13,4.13,4.13
37.81,5.80,1.68,5.80,1.68,-1.68,-1.27,-1.43,4.12,4.12,4.11
38.19,5.78,1.67,5.78,1.67,-1.67,-1.28,-1.41,4.11,4.11,4.11
38.57,5.76,1.66,5.76,1.66,-1.66,-1.29,-1.39,4.10,4.10,4.10
38.95,5.74,1.64,5.74,1.64,-1.65,-1.30,-1.37,4.09,4.09,4.09
39.34,5.72,1.64,5.72,1.63,-1.63,-1.31,-1.36,4.08,4.08,4.08
39.74,5.70,1.62,5.70,1.62,-1.62,-1.32,-1.34,4.08,4.07,4.08
40.14,5.68,1.61,5.68,1.61,-1.61,-1.33,-1.32,4.07,4.07,4.07
40.54,5.65,1.59,5.65,1.59,-1.59,-1.34,-1.31,4.05,4.06,4.06
40.94,5.64,1.59,5.63,1.58,-1.58,-1.35,-1.29,4.06,4.05,4.05
41.35,5.61,1.56,5.61,1.57,-1.57,-1.36,-1.28,4.04,4.04,4.04
41.76,5.59,1.56,5.59,1.55,-1.55,-1.37,-1.26,4.04,4.04,4.03
42.18,5.56,1.53,5.56,1.53,-1.54,-1.37,-1.25,4.02,4.02,4.03
42.60,5.54,1.52,5.53,1.52,-1.52,-1.38,-1.24,4.02,4.01,4.01
43.03,5.51,1.50,5.51,1.50,-1.51,-1.39,-1.23,4.00,4.00,4.01
43.46,5.49,1.49,5.49,1.49,-1.49,-1.40,-1.22,4.00,4.00,3.99
43.90,5.47,1.48,5.47,1.48,-1.48,-1.41,-1.21,3.99,3.99,3.99
44.33,5.45,1.46,5.45,1.46,-1.46,-1.42,-1.20,3.98,3.98,3.99
44.78,5.42,1.45,5.42,1.45,-1.45,-1.43,-1.20,3.97,3.97,3.97
45.23,5.41,1.44,5.40,1.44,-1.44,-1.44,-1.19,3.97,3.97,3.97
45.68,5.38,1.42,5.38,1.42,-1.42,-1.45,-1.19,3.95,3.96,3.96
46.13,5.37,1.41,5.37,1.41,-1.41,-1.46,-1.18,3.96,3.96,3.95
46.60,5.35,1.40,5.35,1.40,-1.40,-1.47,-1.18,3.95,3.95,3.95
47.06,5.33,1.38,5.33,1.39,-1.38,-1.48,-1.18,3.94,3.95,3.94
47.53,5.31,1.37,5.31,1.37,-1.37,-1.48,-1.18,3.94,3.94,3.94
48.01,5.29,1.36,5.29,1.36,-1.36,-1.49,-1.18,3.93,3.93,3.93
48.49,5.27,1.34,5.27,1.35,-1.35,-1.50,-1.18,3.92,3.92,3.92
48.97,5.26,1.34,5.25,1.34,-1.34,-1.51,-1.18,3.92,3.91,3.92
49.46,5.24,1.33,5.24,1.33,-1.33,-1.52,-1.18,3.91,3.91,3.91
49.96,5.22,1.32,5.22,1.32,-1.32,-1.53,-1.18,3.90,3.90,3.90
50.46,5.22,1.32,5.21,1.32,-1.32,-1.54,-1.19,3.90,3.90,3.90
50.96,5.20,1.31,5.20,1.31,-1.31,-1.54,-1.19,3.89,3.89,3.89
51.47,5.19,1.31,5.19,1.31,-1.30,-1.55,-1.19,3.88,3.88,3.88
51.99,5.17,1.30,5.17,1.30,-1.30,-1.56,-1.20,3.87,3.87,3.87
52.51,5.16,1.30,5.15,1.29,-1.29,-1.57,-1.21,3.86,3.86,3.86
53.03,5.14,1.29,5.14,1.29,-1.29,-1.58,-1.21,3.85,3.85,3.85
53.56,5.13,1.28,5.13,1.29,-1.28,-1.58,-1.22,3.84,3.84,3.84
54.10,5.12,1.28,5.11,1.28,-1.28,-1.59,-1.23,3.84,3.83,3.83
54.64,5.10,1.27,5.10,1.27,-1.28,-1.60,-1.23,3.82,3.82,3.82
55.18,5.08,1.26,5.08,1.27,-1.27,-1.61,-1.24,3.81,3.81,3.81
55.74,5.07,1.27,5.07,1.27,-1.27,-1.61,-1.25,3.80,3.80,3.80
56.29,5.06,1.27,5.06,1.27,-1.27,-1.62,-1.25,3.79,3.79,3.79
56.86,5.05,1.27,5.05,1.27,-1.26,-1.63,-1.26,3.79,3.78,3.78
57.42,5.03,1.26,5.03,1.26,-1.26,-1.64,-1.27,3.77,3.77,3.77
58.00,5.02,1.25,5.02,1.25,-1.25,-1.64,-1.28,3.76,3.76,3.76
58.58,5.00,1.25,5.00,1.25,-1.25,-1.65,-1.28,3.75,3.75,3.75
59.16,4.99,1.25,4.98,1.24,-1.24,-1.66,-1.29,3.75,3.74,3.74
59.76,4.96,1.23,4.96,1.23,-1.24,-1.66,-1.30,3.72,3.73,3.73
60.35,4.95,1.23,4.94,1.22,-1.23,-1.67,-1.30,3.72,3.71,3.72
60.96,4.92,1.21,4.92,1.22,-1.22,-1.68,-1.31,3.70,3.70,3.71
61.57,4.91,1.22,4.91,1.21,-1.21,-1.68,-1.31,3.70,3.69,3.69
62.18,4.89,1.21,4.89,1.21,-1.20,-1.69,-1.32,3.68,3.68,3.68
62.80,4.87,1.21,4.86,1.20,-1.20,-1.70,-1.32,3.67,3.67,3.66
63.43,4.84,1.18,4.84,1.19,-1.19,-1.70,-1.32,3.65,3.65,3.65
64.07,4.81,1.17,4.82,1.18,-1.18,-1.71,-1.33,3.63,3.63,3.64
64.71,4.80,1.18,4.79,1.17,-1.17,-1.72,-1.33,3.62,3.62,3.62
65.35,4.77,1.17,4.77,1.17,-1.17,-1.72,-1.33,3.60,3.60,3.60
66.01,4.74,1.15,4.74,1.16,-1.16,-1.73,-1.33,3.58,3.59,3.58
66.67,4.72,1.15,4.71,1.15,-1.15,-1.73,-1.33,3.57,3.56,3.56
67.33,4.69,1.14,4.69,1.14,-1.14,-1.74,-1.33,3.54,3.54,3.54
68.01,4.66,1.13,4.66,1.14,-1.14,-1.75,-1.33,3.52,3.53,3.52
68.69,4.64,1.13,4.63,1.13,-1.13,-1.75,-1.34,3.51,3.50,3.50
69.37,4.61,1.13,4.61,1.13,-1.12,-1.76,-1.34,3.48,3.48,3.48
70.07,4.58,1.12,4.58,1.12,-1.12,-1.76,-1.34,3.46,3.46,3.46
70.77,4.56,1.12,4.55,1.12,-1.12,-1.77,-1.34,3.44,3.44,3.44
71.48,4.53,1.11,4.53,1.11,-1.11,-1.77,-1.34,3.41,3.41,3.41
72.19,4.50,1.11,4.50,1.11,-1.11,-1.78,-1.34,3.38,3.39,3.39
72.91,4.48,1.11,4.48,1.11,-1.11,-1.78,-1.34,3.36,3.36,3.37
73.64,4.46,1.13,4.45,1.12,-1.12,-1.79,-1.34,3.34,3.34,3.33
74.38,4.43,1.12,4.44,1.13,-1.12,-1.79,-1.35,3.30,3.31,3.31
75.12,4.42,1.14,4.41,1.14,-1.13,-1.80,-1.35,3.28,3.28,3.28
75.87,4.40,1.15,4.39,1.14,-1.14,-1.80,-1.35,3.25,3.25,3.24
76.63,4.37,1.15,4.37,1.16,-1.16,-1.81,-1.36,3.21,3.21,3.22
77.40,4.35,1.17,4.35,1.17,-1.18,-1.81,-1.36,3.17,3.17,3.18
78.17,4.34,1.20,4.33,1.19,-1.20,-1.82,-1.37,3.14,3.14,3.14
78.95,4.32,1.22,4.32,1.22,-1.22,-1.82,-1.37,3.10,3.10,3.10
79.74,4.31,1.25,4.31,1.24,-1.24,-1.83,-1.38,3.07,3.06,3.06
80.54,4.29,1.27,4.29,1.27,-1.27,-1.83,-1.39,3.02,3.02,3.02
81.35,4.29,1.31,4.28,1.30,-1.30,-1.83,-1.40,2.99,2.98,2.98
82.16,4.27,1.33,4.27,1.33,-1.33,-1.84,-1.41,2.94,2.94,2.94
82.98,4.26,1.36,4.26,1.36,-1.36,-1.84,-1.42,2.90,2.90,2.90
83.81,4.25,1.39,4.24,1.39,-1.39,-1.85,-1.43,2.86,2.85,2.86
84.65,4.23,1.42,4.23,1.42,-1.42,-1.85,-1.45,2.81,2.81,2.80
85.50,4.22,1.46,4.22,1.45,-1.45,-1.85,-1.46,2.76,2.76,2.76
86.35,4.21,1.48,4.21,1.48,-1.49,-1.86,-1.48,2.72,2.72,2.73
87.22,4.20,1.52,4.20,1.52,-1.52,-1.86,-1.49,2.68,2.68,2.68
88.09,4.19,1.55,4.19,1.55,-1.55,-1.86,-1.51,2.64,2.64,2.64
88.97,4.18,1.59,4.18,1.59,-1.58,-1.87,-1.53,2.59,2.59,2.59
89.86,4.17,1.62,4.17,1.62,-1.62,-1.87,-1.55,2.55,2.55,2.55
90.76,4.16,1.65,4.16,1.65,-1.65,-1.87,-1.57,2.51,2.51,2.51
91.66,4.15,1.68,4.15,1.68,-1.68,-1.88,-1.60,2.46,2.46,2.46
92.58,4.14,1.71,4.14,1.71,-1.71,-1.88,-1.62,2.42,2.42,2.43
93.51,4.13,1.75,4.13,1.75,-1.75,-1.88,-1.65,2.38,2.38,2.38
94.44,4.12,1.78,4.12,1.78,-1.78,-1.89,-1.67,2.34,2.34,2.34
95.39,4.11,1.81,4.10,1.81,-1.81,-1.89,-1.70,2.30,2.30,2.29
96.34,4.09,1.83,4.09,1.84,-1.84,-1.89,-1.73,2.25,2.25,2.26
97.30,4.08,1.87,4.08,1.87,-1.87,-1.90,-1.76,2.21,2.21,2.21
98.28,4.07,1.90,4.06,1.90,-1.90,-1.90,-1.79,2.17,2.16,2.17
99.26,4.05,1.93,4.05,1.93,-1.93,-1.90,-1.82,2.12,2.12,2.12
100.25,4.03,1.96,4.03,1.96,-1.96,-1.90,-1.85,2.07,2.07,2.07
101.25,4.01,1.99,4.01,1.99,-1.99,-1.91,-1.88,2.02,2.02,2.02
102.27,3.99,2.02,3.99,2.02,-2.02,-1.91,-1.91,1.97,1.97,1.97
103.29,3.97,2.05,3.97,2.05,-2.04,-1.91,-1.94,1.93,1.93,1.92
104.32,3.95,2.07,3.94,2.07,-2.07,-1.91,-1.98,1.88,1.88,1.87
105.37,3.92,2.09,3.92,2.09,-2.09,-1.91,-2.01,1.82,1.82,1.82
106.42,3.89,2.11,3.89,2.12,-2.12,-1.92,-2.04,1.77,1.77,1.77
107.48,3.86,2.13,3.86,2.14,-2.14,-1.92,-2.07,1.72,1.72,1.72
108.56,3.84,2.16,3.83,2.16,-2.16,-1.92,-2.11,1.68,1.67,1.68
109.64,3.81,2.18,3.81,2.18,-2.18,-1.92,-2.14,1.63,1.63,1.63
110.74,3.78,2.20,3.78,2.20,-2.20,-1.92,-2.17,1.58,1.58,1.58
111.85,3.75,2.22,3.75,2.22,-2.22,-1.93,-2.20,1.53,1.53,1.53
112.97,3.72,2.24,3.71,2.24,-2.24,-1.93,-2.23,1.48,1.48,1.48
114.10,3.68,2.25,3.69,2.25,-2.26,-1.93,-2.25,1.42,1.43,1.43
115.24,3.66,2.27,3.66,2.27,-2.27,-1.93,-2.28,1.39,1.38,1.38
116.39,3.63,2.29,3.62,2.29,-2.29,-1.93,-2.30,1.34,1.34,1.33
117.55,3.59,2.30,3.59,2.30,-2.30,-1.93,-2.32,1.29,1.29,1.29
118.73,3.55,2.31,3.55,2.31,-2.31,-1.94,-2.34,1.24,1.24,1.24
119.92,3.52,2.32,3.51,2.31,-2.32,-1.94,-2.36,1.20,1.20,1.20
121.12,3.48,2.32,3.48,2.32,-2.32,-1.94,-2.38,1.16,1.16,1.16
122.33,3.44,2.32,3.44,2.32,-2.33,-1.94,-2.39,1.11,1.12,1.12
123.55,3.41,2.33,3.40,2.33,-2.33,-1.94,-2.40,1.08,1.07,1.07
124.79,3.37,2.33,3.37,2.33,-2.33,-1.94,-2.41,1.04,1.04,1.04
126.03,3.33,2.33,3.33,2.33,-2.33,-1.94,-2.41,0.99,1.00,0.99
127.29,3.30,2.34,3.29,2.34,-2.34,-1.94,-2.41,0.96,0.96,0.96
128.57,3.26,2.33,3.26,2.34,-2.34,-1.94,-2.41,0.92,0.92,0.92
129.85,3.23,2.35,3.23,2.34,-2.34,-1.94,-2.41,0.88,0.88,0.88
131.15,3.20,2.35,3.20,2.35,-2.35,-1.95,-2.41,0.85,0.85,0.85
132.46,3.17,2.35,3.17,2.35,-2.35,-1.95,-2.40,0.82,0.82,0.82
133.79,3.14,2.35,3.14,2.36,-2.35,-1.95,-2.39,0.79,0.79,0.78
135.12,3.11,2.36,3.11,2.35,-2.35,-1.95,-2.38,0.75,0.75,0.75
136.48,3.08,2.36,3.08,2.35,-2.35,-1.95,-2.37,0.72,0.72,0.72
137.84,3.05,2.35,3.05,2.35,-2.35,-1.95,-2.36,0.69,0.70,0.70
139.22,3.03,2.36,3.02,2.35,-2.35,-1.95,-2.34,0.67,0.67,0.67
140.61,3.00,2.36,3.00,2.35,-2.35,-1.95,-2.33,0.64,0.65,0.64
142.02,2.98,2.35,2.98,2.35,-2.35,-1.95,-2.31,0.62,0.62,0.62
143.44,2.96,2.35,2.95,2.35,-2.35,-1.95,-2.29,0.60,0.60,0.61
144.87,2.93,2.35,2.93,2.35,-2.35,-1.95,-2.27,0.57,0.58,0.58
146.32,2.92,2.36,2.91,2.35,-2.35,-1.95,-2.26,0.57,0.56,0.56
147.78,2.89,2.34,2.89,2.35,-2.35,-1.95,-2.24,0.54,0.54,0.55
149.26,2.88,2.36,2.87,2.35,-2.35,-1.95,-2.22,0.53,0.52,0.52
150.75,2.85,2.34,2.85,2.34,-2.34,-1.95,-2.20,0.50,0.51,0.50
152.26,2.83,2.34,2.83,2.34,-2.34,-1.95,-2.18,0.49,0.49,0.49
153.78,2.81,2.33,2.81,2.33,-2.33,-1.95,-2.17,0.48,0.48,0.48
155.32,2.79,2.32,2.79,2.32,-2.32,-1.95,-2.15,0.47,0.46,0.46
156.88,2.77,2.32,2.77,2.31,-2.31,-1.95,-2.14,0.46,0.45,0.45
158.44,2.74,2.30,2.74,2.30,-2.30,-1.95,-2.12,0.44,0.44,0.44
160.03,2.72,2.29,2.71,2.29,-2.29,-1.95,-2.11,0.43,0.43,0.43
161.63,2.69,2.27,2.69,2.27,-2.28,-1.94,-2.10,0.41,0.41,0.42
163.24,2.67,2.26,2.67,2.26,-2.26,-1.94,-2.09,0.40,0.41,0.41
164.88,2.65,2.25,2.65,2.25,-2.25,-1.94,-2.08,0.40,0.40,0.40
166.53,2.63,2.24,2.62,2.24,-2.23,-1.94,-2.07,0.39,0.39,0.39
168.19,2.60,2.22,2.60,2.22,-2.22,-1.94,-2.06,0.38,0.38,0.38
169.87,2.57,2.20,2.57,2.20,-2.20,-1.94,-2.06,0.36,0.37,0.37
171.57,2.55,2.19,2.54,2.19,-2.19,-1.94,-2.05,0.36,0.36,0.35
173.29,2.52,2.17,2.52,2.17,-2.17,-1.94,-2.05,0.35,0.35,0.35
175.02,2.49,2.15,2.49,2.15,-2.15,-1.94,-2.05,0.33,0.34,0.34
176.77,2.46,2.13,2.46,2.13,-2.14,-1.94,-2.05,0.32,0.32,0.32
178.54,2.44,2.12,2.43,2.12,-2.12,-1.94,-2.06,0.32,0.31,0.32
180.32,2.41,2.11,2.41,2.10,-2.11,-1.94,-2.06,0.30,0.30,0.30
182.13,2.38,2.09,2.38,2.09,-2.09,-1.93,-2.07,0.29,0.29,0.29
183.95,2.35,2.07,2.35,2.08,-2.08,-1.93,-2.08,0.27,0.28,0.27
185.79,2.33,2.07,2.32,2.06,-2.06,-1.93,-2.09,0.27,0.26,0.26
187.65,2.30,2.05,2.29,2.05,-2.05,-1.93,-2.10,0.25,0.25,0.25
189.52,2.26,2.02,2.27,2.03,-2.03,-1.93,-2.11,0.22,0.23,0.23
191.42,2.24,2.02,2.24,2.02,-2.02,-1.93,-2.12,0.22,0.22,0.22
193.33,2.22,2.01,2.21,2.00,-2.00,-1.93,-2.14,0.21,0.21,0.21
195.27,2.19,1.99,2.18,1.99,-1.99,-1.93,-2.15,0.20,0.19,0.20
197.22,2.15,1.97,2.15,1.97,-1.97,-1.92,-2.17,0.17,0.18,0.18
199.19,2.12,1.95,2.12,1.96,-1.96,-1.92,-2.19,0.16,0.16,0.16
201.18,2.10,1.95,2.09,1.94,-1.94,-1.92,-2.21,0.16,0.15,0.14
203.19,2.06,1.92,2.06,1.93,-1.92,-1.92,-2.23,0.13,0.14,0.13
205.23,2.02,1.90,2.02,1.90,-1.90,-1.92,-2.25,0.11,0.12,0.11
207.28,1.99,1.88,1.98,1.88,-1.89,-1.92,-2.27,0.10,0.10,0.10
209.35,1.95,1.86,1.95,1.87,-1.87,-1.92,-2.29,0.08,0.09,0.09
211.44,1.92,1.85,1.92,1.85,-1.85,-1.92,-2.31,0.07,0.07,0.07
213.56,1.89,1.83,1.88,1.83,-1.83,-1.92,-2.33,0.06,0.05,0.06
215.69,1.85,1.81,1.85,1.81,-1.81,-1.92,-2.36,0.04,0.04,0.04
217.85,1.82,1.79,1.82,1.79,-1.79,-1.92,-2.38,0.02,0.03,0.03
220.03,1.80,1.78,1.79,1.78,-1.78,-1.92,-2.39,0.02,0.02,0.01
222.23,1.77,1.76,1.77,1.76,-1.76,-1.92,-2.41,0.01,0.01,0.01
224.45,1.75,1.75,1.75,1.75,-1.75,-1.92,-2.43,-0.00,0.00,-0.00
226.70,1.73,1.74,1.73,1.74,-1.74,-1.92,-2.44,-0.01,-0.01,-0.01
228.96,1.72,1.73,1.71,1.73,-1.73,-1.92,-2.46,-0.01,-0.01,-0.01
231.25,1.70,1.72,1.70,1.72,-1.72,-1.92,-2.47,-0.02,-0.02,-0.02
233.57,1.69,1.70,1.69,1.71,-1.71,-1.92,-2.48,-0.02,-0.02,-0.02
235.90,1.69,1.71,1.69,1.70,-1.71,-1.92,-2.48,-0.02,-0.02,-0.02
238.26,1.69,1.71,1.69,1.71,-1.70,-1.92,-2.48,-0.02,-0.02,-0.02
240.64,1.69,1.70,1.69,1.71,-1.71,-1.93,-2.49,-0.02,-0.02,-0.01
243.05,1.70,1.72,1.69,1.71,-1.71,-1.93,-2.48,-0.01,-0.02,-0.02
245.48,1.70,1.71,1.70,1.72,-1.72,-1.93,-2.48,-0.02,-0.01,-0.01
247.93,1.72,1.73,1.72,1.73,-1.73,-1.94,-2.47,-0.01,-0.01,-0.01
250.41,1.74,1.74,1.73,1.74,-1.74,-1.94,-2.45,-0.01,-0.01,-0.00
252.92,1.76,1.77,1.76,1.76,-1.76,-1.95,-2.44,-0.01,-0.01,-0.01
255.45,1.78,1.78,1.78,1.78,-1.79,-1.96,-2.42,-0.01,-0.00,-0.00
258.00,1.81,1.81,1.81,1.81,-1.81,-1.97,-2.40,-0.00,-0.00,0.00
260.58,1.85,1.85,1.84,1.84,-1.84,-1.98,-2.37,0.01,-0.00,-0.00
263.19,1.87,1.87,1.87,1.87,-1.87,-1.99,-2.34,-0.01,-0.00,-0.01
265.82,1.91,1.91,1.91,1.91,-1.91,-2.00,-2.31,0.00,0.00,0.00
268.48,1.94,1.94,1.94,1.94,-1.94,-2.01,-2.27,-0.00,-0.00,-0.00
271.16,1.98,1.98,1.97,1.98,-1.98,-2.03,-2.23,0.00,-0.00,-0.01
273.87,2.00,2.01,2.00,2.01,-2.01,-2.05,-2.19,-0.01,-0.01,-0.01
276.61,2.04,2.04,2.04,2.05,-2.05,-2.07,-2.15,-0.01,-0.01,-0.00
279.38,2.08,2.08,2.08,2.08,-2.08,-2.09,-2.10,-0.01,-0.01,-0.01
282.17,2.12,2.13,2.11,2.12,-2.12,-2.11,-2.06,-0.00,-0.01,-0.01
284.99,2.15,2.15,2.15,2.16,-2.16,-2.14,-2.01,-0.01,-0.01,-0.00
287.84,2.19,2.19,2.19,2.19,-2.20,-2.17,-1.96,-0.01,-0.01,-0.00
290.72,2.24,2.24,2.23,2.23,-2.23,-2.19,-1.91,0.00,-0.00,0.00
293.63,2.27,2.27,2.27,2.27,-2.27,-2.22,-1.85,-0.00,0.00,-0.00
296.57,2.31,2.30,2.31,2.30,-2.30,-2.25,-1.80,0.01,0.01,0.01
299.53,2.34,2.33,2.34,2.33,-2.33,-2.28,-1.75,0.01,0.01,0.00
302.53,2.37,2.36,2.37,2.36,-2.36,-2.31,-1.69,0.01,0.01,0.01
305.55,2.40,2.38,2.40,2.38,-2.38,-2.34,-1.64,0.02,0.02,0.02
308.61,2.42,2.39,2.42,2.39,-2.39,-2.36,-1.58,0.03,0.03,0.03
311.69,2.44,2.40,2.44,2.40,-2.40,-2.37,-1.53,0.04,0.04,0.04
314.81,2.45,2.40,2.45,2.40,-2.40,-2.38,-1.47,0.05,0.05,0.04
317.96,2.45,2.40,2.45,2.40,-2.39,-2.38,-1.42,0.05,0.06,0.05
321.14,2.45,2.39,2.44,2.38,-2.38,-2.37,-1.37,0.07,0.06,0.06
324.35,2.43,2.36,2.43,2.36,-2.36,-2.35,-1.31,0.07,0.07,0.07
327.59,2.41,2.33,2.41,2.33,-2.33,-2.32,-1.26,0.07,0.07,0.08
330.87,2.38,2.30,2.38,2.30,-2.30,-2.28,-1.21,0.08,0.08,0.08
334.18,2.35,2.26,2.35,2.26,-2.26,-2.23,-1.15,0.09,0.08,0.08
337.52,2.31,2.23,2.31,2.22,-2.22,-2.18,-1.10,0.09,0.09,0.08
340.90,2.26,2.17,2.26,2.17,-2.17,-2.12,-1.05,0.09,0.09,0.09
344.30,2.21,2.12,2.21,2.12,-2.12,-2.06,-1.00,0.09,0.09,0.09
347.75,2.15,2.06,2.15,2.06,-2.06,-2.00,-0.95,0.09,0.09,0.09
351.23,2.09,2.00,2.09,2.00,-2.00,-1.93,-0.90,0.08,0.08,0.09
354.74,2.02,1.93,2.02,1.94,-1.94,-1.86,-0.85,0.07,0.08,0.09
358.28,1.96,1.88,1.96,1.88,-1.88,-1.80,-0.80,0.08,0.08,0.07
361.87,1.89,1.81,1.89,1.81,-1.81,-1.73,-0.76,0.08,0.08,0.07
365.49,1.82,1.75,1.82,1.75,-1.74,-1.67,-0.71,0.07,0.08,0.07
369.14,1.75,1.68,1.75,1.67,-1.67,-1.61,-0.67,0.08,0.08,0.07
372.83,1.67,1.60,1.67,1.60,-1.60,-1.54,-0.62,0.07,0.07,0.07
376.56,1.60,1.52,1.59,1.52,-1.52,-1.48,-0.58,0.08,0.08,0.08
380.33,1.51,1.43,1.51,1.43,-1.44,-1.43,-0.53,0.07,0.08,0.08
384.13,1.44,1.36,1.43,1.35,-1.35,-1.37,-0.49,0.09,0.08,0.08
387.97,1.35,1.26,1.35,1.26,-1.26,-1.31,-0.45,0.08,0.09,0.09
391.85,1.27,1.18,1.27,1.18,-1.17,-1.26,-0.40,0.09,0.09,0.09
395.77,1.18,1.08,1.18,1.09,-1.09,-1.21,-0.36,0.09,0.10,0.10
399.73,1.11,1.00,1.10,1.00,-1.00,-1.15,-0.32,0.11,0.10,0.10
403.72,1.02,0.91,1.02,0.91,-0.91,-1.10,-0.28,0.10,0.10,0.10
407.76,0.94,0.82,0.94,0.83,-0.83,-1.05,-0.24,0.11,0.11,0.11
411.84,0.87,0.75,0.87,0.75,-0.75,-1.00,-0.21,0.11,0.12,0.12
415.96,0.81,0.68,0.81,0.68,-0.68,-0.95,-0.17,0.13,0.13,0.13
420.12,0.75,0.62,0.75,0.61,-0.61,-0.89,-0.13,0.14,0.13,0.13
424.32,0.69,0.55,0.69,0.55,-0.55,-0.84,-0.09,0.14,0.14,0.14
428.56,0.64,0.49,0.64,0.49,-0.49,-0.79,-0.06,0.15,0.15,0.15
432.85,0.60,0.44,0.60,0.44,-0.44,-0.74,-0.02,0.16,0.16,0.16
437.18,0.56,0.39,0.56,0.39,-0.39,-0.69,0.01,0.17,0.17,0.17
441.55,0.53,0.35,0.53,0.35,-0.35,-0.64,0.04,0.18,0.18,0.18
445.96,0.49,0.30,0.49,0.30,-0.30,-0.58,0.08,0.18,0.19,0.19
450.42,0.47,0.27,0.46,0.26,-0.26,-0.53,0.11,0.21,0.20,0.20
454.93,0.43,0.22,0.43,0.22,-0.22,-0.48,0.14,0.21,0.21,0.21
459.48,0.40,0.18,0.40,0.18,-0.18,-0.42,0.17,0.22,0.22,0.22
464.07,0.36,0.13,0.36,0.13,-0.13,-0.37,0.20,0.22,0.23,0.23
468.71,0.33,0.09,0.33,0.09,-0.09,-0.31,0.22,0.24,0.24,0.24
473.40,0.29,0.04,0.29,0.04,-0.04,-0.25,0.25,0.25,0.25,0.25
478.13,0.25,-0.01,0.25,-0.01,0.01,-0.19,0.27,0.26,0.26,0.26
482.91,0.21,-0.07,0.21,-0.06,0.06,-0.13,0.30,0.27,0.27,0.27
487.74,0.17,-0.12,0.17,-0.12,0.12,-0.07,0.32,0.29,0.29,0.28
492.62,0.13,-0.18,0.13,-0.17,0.18,-0.01,0.34,0.30,0.30,0.30
497.55,0.09,-0.23,0.08,-0.23,0.24,0.05,0.36,0.33,0.32,0.31
502.52,0.03,-0.31,0.03,-0.30,0.31,0.11,0.38,0.33,0.34,0.33
507.55,-0.02,-0.38,-0.02,-0.37,0.38,0.17,0.40,0.35,0.35,0.35
512.62,-0.08,-0.46,-0.08,-0.45,0.45,0.24,0.42,0.37,0.37,0.37
517.75,-0.13,-0.52,-0.14,-0.53,0.53,0.30,0.43,0.40,0.39,0.38
522.93,-0.20,-0.60,-0.20,-0.60,0.61,0.37,0.45,0.40,0.41,0.40
528.16,-0.26,-0.68,-0.26,-0.68,0.68,0.43,0.46,0.42,0.42,0.42
533.44,-0.32,-0.75,-0.33,-0.76,0.76,0.50,0.48,0.44,0.43,0.43
538.77,-0.39,-0.84,-0.39,-0.84,0.83,0.57,0.49,0.44,0.45,0.45
