frequency,raw,error,smoothed,error_smoothed,equalization,parametric_eq,fixed_band_eq,equalized_raw,equalized_smoothed,target
20.00,12.54,2.47,12.54,2.47,-2.48,-2.76,-1.34,10.05,10.05,10.07
20.20,12.56,2.50,12.56,2.51,-2.51,-2.76,-1.38,10.05,10.05,10.06
20.40,12.58,2.54,12.58,2.54,-2.54,-2.76,-1.42,10.04,10.04,10.04
20.61,12.60,2.57,12.60,2.58,-2.57,-2.77,-1.46,10.03,10.03,10.03
20.81,12.62,2.61,12.62,2.61,-2.59,-2.77,-1.50,10.03,10.03,10.01
21.02,12.64,2.64,12.63,2.64,-2.62,-2.77,-1.55,10.02,10.02,10.00
21.23,12.64,2.65,12.64,2.66,-2.64,-2.78,-1.59,10.00,10.00,9.99
21.44,12.64,2.66,12.64,2.67,-2.66,-2.78,-1.64,9.97,9.97,9.97
21.66,12.64,2.68,12.64,2.68,-2.68,-2.78,-1.68,9.95,9.95,9.95
21.87,12.64,2.69,12.64,2.69,-2.70,-2.79,-1.73,9.93,9.94,9.95
22.09,12.65,2.71,12.65,2.71,-2.73,-2.79,-1.78,9.92,9.92,9.94
22.31,12.67,2.74,12.67,2.74,-2.75,-2.79,-1.83,9.92,9.92,9.93
22.54,12.69,2.77,12.69,2.77,-2.77,-2.80,-1.89,9.92,9.92,9.92
22.76,12.72,2.81,12.72,2.80,-2.79,-2.80,-1.94,9.93,9.93,9.91
22.99,12.74,2.83,12.73,2.83,-2.81,-2.80,-2.00,9.93,9.92,9.91
23.22,12.74,2.84,12.74,2.84,-2.83,-2.81,-2.05,9.91,9.92,9.90
23.45,12.74,2.84,12.74,2.84,-2.84,-2.81,-2.11,9.90,9.90,9.90
23.69,12.74,2.84,12.74,2.84,-2.84,-2.82,-2.17,9.90,9.90,9.90
23.92,12.74,2.84,12.74,2.84,-2.84,-2.82,-2.23,9.90,9.90,9.90
24.16,12.74,2.84,12.74,2.84,-2.84,-2.82,-2.29,9.90,9.90,9.90
24.40,12.74,2.84,12.74,2.84,-2.84,-2.83,-2.35,9.89,9.89,9.90
24.65,12.74,2.84,12.74,2.84,-2.85,-2.83,-2.42,9.89,9.89,9.89
24.89,12.74,2.84,12.74,2.85,-2.86,-2.84,-2.48,9.88,9.88,9.89
25.14,12.75,2.86,12.75,2.86,-2.88,-2.84,-2.55,9.87,9.88,9.89
25.39,12.78,2.89,12.78,2.89,-2.90,-2.84,-2.61,9.88,9.88,9.89
25.65,12.81,2.93,12.81,2.92,-2.91,-2.85,-2.68,9.89,9.89,9.88
25.91,12.83,2.95,12.83,2.95,-2.93,-2.85,-2.74,9.90,9.89,9.88
26.16,12.84,2.97,12.84,2.97,-2.95,-2.86,-2.81,9.89,9.88,9.87
26.43,12.84,2.97,12.84,2.98,-2.97,-2.86,-2.87,9.87,9.87,9.87
26.69,12.84,2.98,12.84,2.98,-2.98,-2.87,-2.93,9.85,9.86,9.86
26.96,12.84,2.99,12.84,2.99,-3.00,-2.87,-3.00,9.84,9.84,9.85
27.23,12.84,2.99,12.84,3.00,-3.00,-2.88,-3.06,9.83,9.83,9.84
27.50,12.84,3.01,12.84,3.01,-3.01,-2.88,-3.12,9.83,9.83,9.83
27.77,12.84,3.02,12.84,3.02,-3.02,-2.89,-3.18,9.82,9.82,9.82
28.05,12.84,3.03,12.84,3.02,-3.02,-2.89,-3.24,9.82,9.82,9.81
28.33,12.84,3.03,12.84,3.03,-3.03,-2.90,-3.29,9.81,9.81,9.81
28.62,12.84,3.03,12.84,3.04,-3.03,-2.90,-3.34,9.81,9.81,9.81
28.90,12.84,3.04,12.84,3.04,-3.04,-2.91,-3.39,9.80,9.80,9.80
29.19,12.84,3.04,12.84,3.04,-3.04,-2.91,-3.44,9.80,9.80,9.80
29.48,12.84,3.04,12.84,3.04,-3.04,-2.92,-3.48,9.80,9.80,9.80
29.78,12.84,3.04,12.84,3.04,-3.04,-2.92,-3.52,9.80,9.80,9.80
30.08,12.84,3.04,12.84,3.04,-3.04,-2.93,-3.55,9.80,9.80,9.80
30.38,12.84,3.04,12.84,3.04,-3.04,-2.94,-3.58,9.80,9.80,9.80
30.68,12.84,3.04,12.84,3.04,-3.04,-2.94,-3.60,9.79,9.79,9.79
30.99,12.84,3.05,12.84,3.05,-3.05,-2.95,-3.63,9.79,9.79,9.79
31.30,12.84,3.05,12.84,3.05,-3.05,-2.96,-3.64,9.79,9.79,9.79
31.61,12.84,3.05,12.84,3.05,-3.05,-2.96,-3.66,9.79,9.79,9.79
31.93,12.84,3.05,12.84,3.06,-3.06,-2.97,-3.66,9.78,9.78,9.79
32.24,12.84,3.07,12.84,3.06,-3.06,-2.97,-3.67,9.78,9.78,9.77
32.57,12.84,3.07,12.84,3.07,-3.07,-2.98,-3.67,9.77,9.77,9.77
32.89,12.84,3.07,12.84,3.07,-3.07,-2.99,-3.66,9.77,9.77,9.77
33.22,12.84,3.07,12.84,3.07,-3.08,-2.99,-3.65,9.76,9.76,9.77
33.55,12.84,3.08,12.84,3.08,-3.08,-3.00,-3.64,9.76,9.76,9.76
33.89,12.84,3.09,12.84,3.09,-3.08,-3.01,-3.63,9.75,9.75,9.75
34.23,12.84,3.09,12.84,3.09,-3.09,-3.02,-3.61,9.75,9.75,9.75
34.57,12.84,3.10,12.84,3.10,-3.09,-3.02,-3.59,9.74,9.74,9.74
34.92,12.84,3.10,12.84,3.10,-3.10,-3.03,-3.56,9.74,9.74,9.74
35.27,12.84,3.10,12.84,3.10,-3.10,-3.04,-3.54,9.73,9.73,9.74
35.62,12.84,3.11,12.84,3.11,-3.11,-3.05,-3.51,9.73,9.73,9.73
35.97,12.84,3.12,12.84,3.12,-3.11,-3.05,-3.48,9.72,9.72,9.72
36.33,12.84,3.12,12.84,3.12,-3.12,-3.06,-3.46,9.72,9.72,9.72
36.70,12.84,3.13,12.84,3.13,-3.13,-3.07,-3.43,9.71,9.71,9.71
37.06,12.84,3.13,12.84,3.13,-3.13,-3.08,-3.40,9.70,9.70,9.71
37.43,12.84,3.14,12.84,3.14,-3.14,-3.09,-3.37,9.69,9.69,9.69
37.81,12.84,3.15,12.84,3.15,-3.15,-3.09,-3.34,9.68,9.68,9.69
38.19,12.84,3.16,12.84,3.17,-3.16,-3.10,-3.31,9.67,9.67,9.67
38.57,12.84,3.18,12.84,3.18,-3.18,-3.11,-3.28,9.66,9.66,9.66
38.95,12.84,3.19,12.84,3.19,-3.19,-3.12,-3.25,9.65,9.65,9.65
39.34,12.84,3.20,12.84,3.20,-3.20,-3.13,-3.23,9.64,9.64,9.64
39.74,12.84,3.21,12.84,3.21,-3.22,-3.14,-3.20,9.62,9.62,9.63
40.14,12.84,3.23,12.84,3.23,-3.23,-3.15,-3.18,9.61,9.61,9.61
40.54,12.84,3.24,12.84,3.24,-3.24,-3.16,-3.16,9.60,9.60,9.59
40.94,12.84,3.25,12.84,3.25,-3.25,-3.17,-3.14,9.59,9.59,9.59
41.35,12.84,3.26,12.84,3.26,-3.26,-3.18,-3.12,9.58,9.58,9.58
41.76,12.84,3.26,12.84,3.26,-3.26,-3.19,-3.10,9.57,9.57,9.58
42.18,12.84,3.27,12.84,3.27,-3.27,-3.20,-3.09,9.57,9.57,9.57
42.60,12.84,3.28,12.84,3.28,-3.28,-3.21,-3.08,9.56,9.56,9.56
43.03,12.84,3.28,12.84,3.28,-3.28,-3.22,-3.07,9.56,9.56,9.56
43.46,12.84,3.29,12.84,3.29,-3.29,-3.23,-3.06,9.55,9.55,9.55
43.90,12.84,3.29,12.84,3.29,-3.29,-3.24,-3.05,9.55,9.55,9.55
44.33,12.84,3.30,12.84,3.30,-3.30,-3.25,-3.05,9.54,9.54,9.54
44.78,12.84,3.30,12.84,3.30,-3.30,-3.26,-3.05,9.53,9.53,9.54
45.23,12.84,3.31,12.84,3.31,-3.31,-3.27,-3.05,9.53,9.53,9.53
45.68,12.84,3.32,12.84,3.32,-3.32,-3.28,-3.06,9.52,9.52,9.52
46.13,12.84,3.33,12.84,3.33,-3.33,-3.29,-3.06,9.51,9.51,9.51
46.60,12.84,3.34,12.84,3.34,-3.34,-3.30,-3.07,9.49,9.49,9.50
47.06,12.84,3.35,12.84,3.35,-3.35,-3.31,-3.08,9.48,9.49,9.49
47.53,12.84,3.36,12.84,3.36,-3.36,-3.32,-3.10,9.48,9.48,9.48
48.01,12.84,3.38,12.83,3.37,-3.36,-3.34,-3.11,9.48,9.47,9.46
48.49,12.82,3.37,12.82,3.37,-3.36,-3.35,-3.13,9.46,9.46,9.45
48.97,12.79,3.36,12.80,3.37,-3.35,-3.36,-3.15,9.44,9.45,9.43
49.46,12.77,3.35,12.77,3.35,-3.33,-3.37,-3.17,9.44,9.43,9.42
49.96,12.74,3.33,12.73,3.32,-3.32,-3.38,-3.19,9.42,9.41,9.41
50.46,12.69,3.30,12.69,3.29,-3.30,-3.40,-3.22,9.39,9.38,9.39
50.96,12.64,3.25,12.65,3.27,-3.29,-3.41,-3.24,9.35,9.36,9.39
51.47,12.64,3.26,12.64,3.26,-3.29,-3.42,-3.27,9.35,9.35,9.38
51.99,12.64,3.27,12.63,3.27,-3.29,-3.43,-3.30,9.35,9.35,9.36
52.51,12.64,3.30,12.64,3.30,-3.29,-3.45,-3.33,9.35,9.35,9.34
53.03,12.64,3.31,12.64,3.31,-3.30,-3.46,-3.36,9.34,9.34,9.33
53.56,12.64,3.33,12.64,3.33,-3.32,-3.47,-3.39,9.32,9.32,9.31
54.10,12.64,3.34,12.64,3.34,-3.34,-3.49,-3.42,9.30,9.30,9.29
54.64,12.64,3.36,12.64,3.36,-3.36,-3.50,-3.45,9.28,9.28,9.28
55.18,12.64,3.38,12.64,3.38,-3.38,-3.51,-3.48,9.26,9.26,9.26
55.74,12.64,3.39,12.64,3.39,-3.40,-3.53,-3.51,9.24,9.24,9.25
56.29,12.64,3.41,12.64,3.41,-3.42,-3.54,-3.54,9.22,9.22,9.23
56.86,12.64,3.43,12.64,3.43,-3.43,-3.55,-3.57,9.20,9.21,9.21
57.42,12.64,3.45,12.64,3.45,-3.44,-3.57,-3.59,9.20,9.20,9.19
58.00,12.64,3.47,12.64,3.46,-3.44,-3.58,-3.62,9.20,9.19,9.17
58.58,12.62,3.47,12.62,3.46,-3.44,-3.60,-3.64,9.18,9.18,9.15
59.16,12.59,3.46,12.58,3.45,-3.43,-3.61,-3.67,9.16,9.15,9.13
59.76,12.53,3.42,12.53,3.42,-3.42,-3.62,-3.69,9.11,9.11,9.11
60.35,12.48,3.39,12.48,3.39,-3.41,-3.64,-3.71,9.07,9.07,9.09
60.96,12.44,3.36,12.45,3.37,-3.41,-3.65,-3.72,9.03,9.04,9.08
61.57,12.44,3.39,12.44,3.38,-3.41,-3.67,-3.74,9.03,9.03,9.05
62.18,12.44,3.41,12.43,3.41,-3.42,-3.68,-3.75,9.02,9.02,9.03
62.80,12.44,3.44,12.44,3.44,-3.43,-3.70,-3.76,9.00,9.00,8.99
63.43,12.44,3.47,12.44,3.47,-3.46,-3.71,-3.77,8.98,8.98,8.97
64.07,12.44,3.50,12.44,3.50,-3.50,-3.73,-3.77,8.94,8.94,8.93
64.71,12.44,3.53,12.44,3.53,-3.54,-3.74,-3.78,8.90,8.90,8.91
65.35,12.44,3.57,12.44,3.57,-3.58,-3.76,-3.78,8.86,8.86,8.87
66.01,12.44,3.60,12.44,3.60,-3.60,-3.77,-3.78,8.83,8.83,8.84
66.67,12.44,3.64,12.45,3.64,-3.62,-3.79,-3.78,8.81,8.82,8.80
67.33,12.44,3.67,12.44,3.67,-3.64,-3.81,-3.77,8.80,8.81,8.77
68.01,12.44,3.71,12.42,3.68,-3.65,-3.82,-3.77,8.79,8.77,8.73
68.69,12.37,3.67,12.37,3.67,-3.65,-3.84,-3.76,8.72,8.71,8.70
69.37,12.30,3.64,12.31,3.64,-3.66,-3.85,-3.75,8.64,8.64,8.66
70.07,12.24,3.61,12.26,3.63,-3.67,-3.87,-3.74,8.57,8.58,8.63
70.77,12.24,3.66,12.23,3.65,-3.69,-3.89,-3.73,8.55,8.55,8.58
71.48,12.24,3.69,12.23,3.69,-3.71,-3.90,-3.72,8.53,8.52,8.55
72.19,12.24,3.74,12.24,3.73,-3.73,-3.92,-3.72,8.50,8.50,8.50
72.91,12.24,3.77,12.24,3.77,-3.76,-3.93,-3.71,8.48,8.48,8.47
73.64,12.24,3.81,12.25,3.82,-3.79,-3.95,-3.70,8.45,8.46,8.43
74.38,12.24,3.85,12.24,3.85,-3.81,-3.97,-3.69,8.43,8.43,8.39
75.12,12.23,3.87,12.21,3.86,-3.83,-3.98,-3.69,8.40,8.38,8.35
75.87,12.15,3.84,12.15,3.85,-3.84,-4.00,-3.68,8.31,8.32,8.30
76.63,12.09,3.82,12.10,3.83,-3.85,-4.02,-3.68,8.24,8.25,8.26
77.40,12.05,3.83,12.05,3.83,-3.87,-4.03,-3.68,8.18,8.19,8.22
78.17,12.04,3.86,12.04,3.86,-3.89,-4.05,-3.68,8.15,8.15,8.18
78.95,12.04,3.90,12.04,3.90,-3.92,-4.07,-3.68,8.12,8.12,8.14
79.74,12.04,3.94,12.04,3.94,-3.95,-4.09,-3.68,8.09,8.09,8.10
80.54,12.04,3.99,12.04,3.99,-3.98,-4.10,-3.69,8.06,8.06,8.05
81.35,12.04,4.03,12.05,4.04,-4.02,-4.12,-3.70,8.02,8.03,8.01
82.16,12.04,4.08,12.04,4.08,-4.05,-4.14,-3.71,7.99,7.99,7.96
82.98,12.04,4.13,12.01,4.10,-4.08,-4.16,-3.72,7.96,7.94,7.90
83.81,11.96,4.10,11.97,4.11,-4.10,-4.17,-3.74,7.86,7.87,7.86
84.65,11.91,4.10,11.91,4.11,-4.13,-4.19,-3.76,7.78,7.79,7.81
85.50,11.87,4.12,11.87,4.11,-4.15,-4.21,-3.78,7.72,7.72,7.75
86.35,11.84,4.14,11.85,4.15,-4.17,-4.23,-3.81,7.67,7.68,7.70
87.22,11.84,4.20,11.84,4.20,-4.20,-4.25,-3.84,7.64,7.65,7.64
88.09,11.84,4.25,11.83,4.24,-4.22,-4.27,-3.87,7.62,7.60,7.59
88.97,11.82,4.29,11.80,4.27,-4.25,-4.28,-3.90,7.56,7.55,7.53
89.86,11.75,4.28,11.77,4.30,-4.29,-4.30,-3.94,7.46,7.48,7.47
90.76,11.74,4.32,11.74,4.33,-4.33,-4.32,-3.98,7.41,7.41,7.42
91.66,11.74,4.38,11.71,4.36,-4.37,-4.34,-4.02,7.37,7.34,7.35
92.58,11.69,4.40,11.69,4.40,-4.41,-4.36,-4.07,7.28,7.28,7.29
93.51,11.65,4.42,11.66,4.43,-4.45,-4.38,-4.12,7.20,7.21,7.23
94.44,11.64,4.47,11.64,4.48,-4.48,-4.40,-4.17,7.16,7.16,7.16
95.39,11.64,4.54,11.63,4.53,-4.52,-4.42,-4.22,7.12,7.12,7.10
96.34,11.62,4.58,11.61,4.58,-4.55,-4.44,-4.28,7.07,7.06,7.03
97.30,11.57,4.61,11.56,4.60,-4.58,-4.46,-4.34,6.99,6.98,6.96
98.28,11.50,4.60,11.50,4.60,-4.61,-4.48,-4.40,6.89,6.88,6.89
99.26,11.42,4.60,11.44,4.62,-4.64,-4.50,-4.46,6.78,6.79,6.82
100.25,11.39,4.65,11.39,4.65,-4.67,-4.52,-4.53,6.72,6.72,6.74
101.25,11.37,4.70,11.36,4.69,-4.70,-4.55,-4.59,6.67,6.66,6.67
102.27,11.33,4.74,11.32,4.73,-4.73,-4.57,-4.66,6.60,6.60,6.59
103.29,11.28,4.76,11.28,4.77,-4.75,-4.59,-4.73,6.52,6.53,6.51
104.32,11.23,4.79,11.23,4.80,-4.78,-4.61,-4.80,6.45,6.45,6.44
105.37,11.19,4.84,11.17,4.82,-4.81,-4.63,-4.87,6.38,6.36,6.35
106.42,11.11,4.83,11.12,4.84,-4.84,-4.65,-4.94,6.27,6.28,6.28
107.48,11.05,4.85,11.05,4.85,-4.86,-4.68,-5.01,6.19,6.19,6.20
108.56,11.00,4.88,10.98,4.86,-4.88,-4.70,-5.07,6.12,6.11,6.12
109.64,10.92,4.87,10.94,4.89,-4.90,-4.72,-5.14,6.02,6.04,6.05
110.74,10.89,4.91,10.89,4.92,-4.91,-4.74,-5.21,5.97,5.98,5.98
111.85,10.87,4.96,10.85,4.94,-4.93,-4.77,-5.27,5.93,5.92,5.91
112.97,10.81,4.97,10.81,4.97,-4.96,-4.79,-5.33,5.85,5.85,5.84
114.10,10.75,4.97,10.75,4.98,-4.98,-4.81,-5.39,5.77,5.77,5.77
115.24,10.69,4.98,10.70,4.99,-5.00,-4.84,-5.44,5.69,5.70,5.71
116.39,10.66,5.01,10.66,5.02,-5.02,-4.86,-5.49,5.64,5.64,5.65
117.55,10.66,5.07,10.63,5.05,-5.05,-4.88,-5.53,5.61,5.59,5.59
118.73,10.59,5.06,10.60,5.07,-5.07,-4.91,-5.57,5.52,5.53,5.53
119.92,10.57,5.09,10.56,5.09,-5.09,-4.93,-5.60,5.47,5.47,5.47
121.12,10.52,5.11,10.52,5.11,-5.12,-4.95,-5.63,5.40,5.40,5.41
122.33,10.49,5.13,10.50,5.14,-5.14,-4.97,-5.65,5.35,5.36,5.36
123.55,10.49,5.17,10.48,5.17,-5.16,-5.00,-5.66,5.32,5.32,5.32
124.79,10.48,5.21,10.46,5.20,-5.18,-5.02,-5.67,5.30,5.28,5.27
126.03,10.42,5.21,10.42,5.20,-5.20,-5.04,-5.67,5.22,5.22,5.21
127.29,10.36,5.19,10.37,5.21,-5.21,-5.06,-5.66,5.15,5.17,5.17
128.57,10.32,5.20,10.33,5.22,-5.22,-5.09,-5.65,5.10,5.11,5.12
129.85,10.32,5.25,10.30,5.23,-5.23,-5.11,-5.63,5.09,5.07,5.07
131.15,10.26,5.24,10.25,5.23,-5.24,-5.13,-5.61,5.02,5.01,5.02
132.46,10.20,5.23,10.20,5.24,-5.25,-5.15,-5.58,4.95,4.96,4.97
133.79,10.15,5.23,10.16,5.24,-5.26,-5.17,-5.55,4.89,4.90,4.92
135.12,10.14,5.27,10.14,5.27,-5.27,-5.19,-5.50,4.87,4.87,4.87
136.48,10.14,5.31,10.12,5.30,-5.29,-5.21,-5.46,4.85,4.84,4.82
137.84,10.10,5.33,10.09,5.32,-5.30,-5.22,-5.41,4.79,4.79,4.77
139.22,10.04,5.31,10.04,5.31,-5.32,-5.24,-5.36,4.72,4.72,4.73
140.61,9.97,5.29,9.99,5.32,-5.33,-5.26,-5.30,4.64,4.66,4.67
142.02,9.95,5.33,9.96,5.34,-5.33,-5.27,-5.25,4.61,4.62,4.62
143.44,9.95,5.38,9.92,5.35,-5.34,-5.29,-5.19,4.61,4.58,4.57
144.87,9.89,5.36,9.88,5.35,-5.34,-5.30,-5.13,4.55,4.54,4.53
146.32,9.79,5.31,9.81,5.34,-5.33,-5.31,-5.06,4.45,4.48,4.48
147.78,9.75,5.33,9.75,5.33,-5.33,-5.33,-5.00,4.41,4.42,4.42
149.26,9.71,5.33,9.70,5.32,-5.33,-5.34,-4.94,4.37,4.36,4.37
150.75,9.66,5.33,9.65,5.32,-5.33,-5.35,-4.88,4.33,4.32,4.33
152.26,9.59,5.31,9.60,5.32,-5.32,-5.35,-4.82,4.26,4.28,4.28
153.78,9.55,5.30,9.57,5.33,-5.32,-5.36,-4.76,4.23,4.25,4.24
155.32,9.55,5.35,9.53,5.33,-5.32,-5.36,-4.70,4.23,4.21,4.20
156.88,9.51,5.35,9.48,5.32,-5.31,-5.37,-4.64,4.20,4.17,4.16
158.44,9.39,5.27,9.42,5.30,-5.30,-5.37,-4.59,4.09,4.12,4.12
160.03,9.35,5.27,9.37,5.29,-5.29,-5.37,-4.53,4.05,4.07,4.08
161.63,9.35,5.31,9.32,5.28,-5.29,-5.37,-4.48,4.06,4.03,4.04
163.24,9.28,5.28,9.28,5.28,-5.28,-5.37,-4.43,4.00,4.00,4.00
164.88,9.22,5.26,9.22,5.26,-5.27,-5.36,-4.39,3.95,3.95,3.96
166.53,9.15,5.23,9.17,5.25,-5.26,-5.36,-4.35,3.89,3.91,3.92
168.19,9.13,5.25,9.13,5.25,-5.24,-5.35,-4.31,3.89,3.89,3.88
169.87,9.12,5.27,9.09,5.24,-5.22,-5.34,-4.27,3.90,3.87,3.84
171.57,9.03,5.22,9.03,5.22,-5.20,-5.33,-4.24,3.83,3.83,3.81
173.29,8.94,5.17,8.95,5.18,-5.17,-5.32,-4.21,3.77,3.78,3.77
175.02,8.87,5.13,8.87,5.13,-5.14,-5.30,-4.18,3.73,3.72,3.74
176.77,8.81,5.10,8.80,5.09,-5.11,-5.29,-4.16,3.70,3.68,3.71
178.54,8.72,5.04,8.74,5.06,-5.08,-5.27,-4.14,3.64,3.66,3.68
180.32,8.70,5.05,8.70,5.04,-5.05,-5.25,-4.12,3.65,3.65,3.65
182.13,8.67,5.04,8.66,5.03,-5.02,-5.23,-4.11,3.65,3.64,3.63
183.95,8.62,5.01,8.62,5.02,-5.00,-5.20,-4.10,3.62,3.63,3.61
185.79,8.57,4.99,8.57,4.99,-4.98,-5.18,-4.09,3.59,3.60,3.58
187.65,8.53,4.96,8.52,4.96,-4.96,-5.15,-4.08,3.57,3.56,3.57
189.52,8.47,4.92,8.47,4.92,-4.95,-5.12,-4.08,3.52,3.52,3.55
191.42,8.42,4.89,8.43,4.90,-4.92,-5.09,-4.08,3.49,3.50,3.53
193.33,8.39,4.88,8.41,4.90,-4.90,-5.06,-4.09,3.49,3.51,3.51
195.27,8.40,4.90,8.39,4.89,-4.87,-5.03,-4.09,3.53,3.52,3.50
197.22,8.38,4.90,8.35,4.87,-4.84,-4.99,-4.10,3.54,3.52,3.48
199.19,8.28,4.81,8.30,4.83,-4.80,-4.95,-4.11,3.47,3.49,3.47
201.18,8.22,4.77,8.21,4.76,-4.77,-4.91,-4.13,3.45,3.44,3.45
203.19,8.14,4.71,8.14,4.70,-4.73,-4.87,-4.14,3.41,3.41,3.43
205.23,8.06,4.64,8.08,4.66,-4.68,-4.83,-4.16,3.37,3.40,3.42
207.28,8.04,4.64,8.03,4.63,-4.63,-4.79,-4.17,3.40,3.39,3.40
209.35,7.99,4.61,7.98,4.60,-4.59,-4.74,-4.19,3.40,3.39,3.38
211.44,7.92,4.56,7.92,4.56,-4.54,-4.70,-4.21,3.38,3.38,3.36
213.56,7.85,4.50,7.85,4.50,-4.50,-4.65,-4.23,3.35,3.35,3.35
215.69,7.78,4.45,7.78,4.45,-4.46,-4.60,-4.25,3.32,3.32,3.33
217.85,7.72,4.41,7.71,4.40,-4.42,-4.55,-4.26,3.30,3.29,3.31
220.03,7.65,4.36,7.66,4.37,-4.38,-4.50,-4.28,3.27,3.28,3.29
222.23,7.61,4.33,7.63,4.35,-4.34,-4.45,-4.30,3.27,3.29,3.28
224.45,7.61,4.34,7.57,4.31,-4.30,-4.40,-4.31,3.31,3.27,3.27
226.70,7.53,4.27,7.52,4.26,-4.25,-4.35,-4.32,3.28,3.26,3.26
228.96,7.42,4.17,7.47,4.22,-4.21,-4.29,-4.33,3.21,3.26,3.25
231.25,7.42,4.17,7.40,4.16,-4.16,-4.24,-4.34,3.26,3.24,3.25
233.57,7.40,4.16,7.35,4.12,-4.12,-4.18,-4.34,3.28,3.24,3.24
235.90,7.26,4.02,7.30,4.07,-4.06,-4.13,-4.34,3.19,3.24,3.24
238.26,7.24,4.01,7.23,4.00,-4.01,-4.07,-4.34,3.22,3.22,3.23
240.64,7.19,3.95,7.18,3.95,-3.97,-4.01,-4.33,3.22,3.22,3.24
243.05,7.15,3.91,7.15,3.92,-3.92,-3.95,-4.31,3.23,3.24,3.24
245.48,7.12,3.88,7.11,3.87,-3.87,-3.89,-4.29,3.25,3.24,3.24
247.93,7.07,3.83,7.07,3.83,-3.82,-3.83,-4.27,3.25,3.25,3.24
250.41,7.03,3.78,7.02,3.78,-3.77,-3.77,-4.24,3.25,3.25,3.24
252.92,6.97,3.72,6.97,3.73,-3.73,-3.71,-4.21,3.24,3.25,3.25
255.45,6.92,3.67,6.92,3.68,-3.68,-3.65,-4.17,3.24,3.24,3.25
258.00,6.88,3.64,6.87,3.62,-3.63,-3.59,-4.12,3.25,3.24,3.24
260.58,6.81,3.57,6.81,3.58,-3.57,-3.53,-4.07,3.23,3.24,3.24
263.19,6.75,3.52,6.75,3.52,-3.52,-3.47,-4.02,3.23,3.23,3.23
265.82,6.69,3.48,6.68,3.47,-3.47,-3.41,-3.96,3.22,3.21,3.21
268.48,6.61,3.40,6.62,3.41,-3.41,-3.34,-3.90,3.19,3.20,3.21
271.16,6.55,3.36,6.54,3.36,-3.36,-3.28,-3.83,3.19,3.18,3.19
273.87,6.48,3.30,6.48,3.30,-3.30,-3.22,-3.76,3.18,3.17,3.17
276.61,6.41,3.24,6.42,3.25,-3.24,-3.16,-3.69,3.16,3.17,3.17
279.38,6.36,3.19,6.36,3.20,-3.19,-3.10,-3.61,3.17,3.17,3.16
282.17,6.30,3.15,6.28,3.13,-3.13,-3.03,-3.53,3.17,3.15,3.15
284.99,6.21,3.06,6.21,3.07,-3.07,-2.97,-3.45,3.14,3.15,3.14
287.84,6.11,2.97,6.14,3.00,-3.01,-2.91,-3.36,3.10,3.13,3.14
290.72,6.11,2.98,6.06,2.94,-2.95,-2.85,-3.28,3.16,3.11,3.12
293.63,5.99,2.87,6.01,2.89,-2.89,-2.78,-3.19,3.10,3.12,3.12
296.57,5.94,2.82,5.96,2.84,-2.84,-2.72,-3.10,3.10,3.12,3.12
299.53,5.94,2.82,5.90,2.78,-2.79,-2.66,-3.01,3.15,3.10,3.12
302.53,5.85,2.73,5.85,2.74,-2.74,-2.60,-2.92,3.11,3.11,3.12
305.55,5.77,2.66,5.81,2.70,-2.69,-2.53,-2.83,3.08,3.11,3.10
308.61,5.77,2.67,5.74,2.64,-2.64,-2.47,-2.74,3.13,3.10,3.10
311.69,5.71,2.61,5.70,2.60,-2.59,-2.41,-2.65,3.12,3.11,3.10
314.81,5.62,2.53,5.64,2.55,-2.53,-2.35,-2.56,3.08,3.10,3.08
317.96,5.57,2.49,5.55,2.47,-2.48,-2.29,-2.47,3.09,3.08,3.08
321.14,5.48,2.40,5.48,2.41,-2.42,-2.22,-2.38,3.06,3.06,3.08
324.35,5.40,2.33,5.41,2.35,-2.36,-2.16,-2.30,3.04,3.06,3.06
327.59,5.35,2.30,5.34,2.29,-2.29,-2.10,-2.21,3.06,3.05,3.05
330.87,5.29,2.24,5.28,2.23,-2.22,-2.04,-2.13,3.07,3.06,3.05
334.18,5.20,2.15,5.21,2.17,-2.15,-1.98,-2.04,3.05,3.06,3.05
337.52,5.15,2.11,5.12,2.08,-2.08,-1.92,-1.96,3.07,3.04,3.04
340.90,5.02,1.99,5.04,2.00,-2.01,-1.86,-1.88,3.01,3.03,3.03
344.30,4.95,1.92,4.96,1.93,-1.93,-1.80,-1.80,3.02,3.03,3.03
347.75,4.89,1.86,4.88,1.86,-1.86,-1.74,-1.72,3.03,3.03,3.03
351.23,4.82,1.81,4.81,1.79,-1.79,-1.68,-1.64,3.03,3.02,3.01
354.74,4.73,1.72,4.71,1.70,-1.72,-1.62,-1.56,3.01,3.00,3.01
358.28,4.61,1.60,4.65,1.64,-1.65,-1.56,-1.49,2.95,2.99,3.01
361.87,4.58,1.57,4.59,1.58,-1.59,-1.50,-1.41,2.99,3.00,3.01
365.49,4.59,1.58,4.54,1.53,-1.53,-1.44,-1.34,3.06,3.00,3.01
369.14,4.48,1.48,4.50,1.49,-1.47,-1.38,-1.27,3.01,3.03,3.00
372.83,4.41,1.41,4.43,1.43,-1.42,-1.32,-1.20,2.99,3.02,3.00
376.56,4.39,1.39,4.35,1.36,-1.36,-1.26,-1.13,3.03,2.99,3.00
380.33,4.28,1.29,4.29,1.30,-1.30,-1.20,-1.06,2.98,2.99,2.99
384.13,4.21,1.22,4.22,1.23,-1.24,-1.14,-0.99,2.97,2.98,2.99
387.97,4.15,1.17,4.14,1.17,-1.18,-1.08,-0.93,2.97,2.97,2.97
391.85,4.08,1.12,4.09,1.12,-1.11,-1.02,-0.86,2.97,2.98,2.96
395.77,4.03,1.08,4.02,1.06,-1.05,-0.96,-0.80,2.98,2.97,2.95
399.73,3.94,1.00,3.93,0.99,-0.99,-0.90,-0.73,2.95,2.94,2.94
403.72,3.84,0.91,3.85,0.92,-0.94,-0.85,-0.67,2.90,2.91,2.93
407.76,3.75,0.84,3.77,0.86,-0.88,-0.79,-0.61,2.87,2.89,2.91
411.84,3.72,0.82,3.70,0.80,-0.82,-0.73,-0.55,2.90,2.88,2.90
415.96,3.65,0.76,3.65,0.76,-0.75,-0.67,-0.49,2.90,2.89,2.89
420.12,3.58,0.70,3.60,0.72,-0.69,-0.61,-0.43,2.89,2.91,2.87
424.32,3.54,0.67,3.52,0.65,-0.62,-0.55,-0.37,2.91,2.89,2.87
428.56,3.45,0.58,3.43,0.56,-0.56,-0.49,-0.32,2.89,2.88,2.87
432.85,3.34,0.46,3.36,0.48,-0.49,-0.43,-0.26,2.85,2.87,2.88
437.18,3.29,0.39,3.30,0.40,-0.43,-0.37,-0.20,2.86,2.87,2.90
441.55,3.29,0.37,3.26,0.34,-0.36,-0.32,-0.15,2.93,2.90,2.92
445.96,3.23,0.28,3.25,0.30,-0.30,-0.26,-0.09,2.93,2.95,2.95
450.42,3.23,0.24,3.23,0.24,-0.24,-0.20,-0.04,2.99,2.99,2.99
454.93,3.23,0.20,3.20,0.17,-0.18,-0.14,0.01,3.05,3.02,3.03
459.48,3.16,0.08,3.20,0.13,-0.12,-0.08,0.06,3.04,3.08,3.08
464.07,3.19,0.07,3.19,0.07,-0.06,-0.02,0.12,3.13,3.13,3.11
468.71,3.21,0.04,3.17,0.00,0.00,0.04,0.17,3.21,3.17,3.16
473.40,3.14,-0.07,3.15,-0.06,0.07,0.10,0.22,3.21,3.22,3.21
478.13,3.10,-0.16,3.13,-0.13,0.13,0.16,0.27,3.23,3.26,3.26
482.91,3.11,-0.19,3.09,-0.21,0.20,0.22,0.32,3.31,3.29,3.30
487.74,3.08,-0.26,3.06,-0.28,0.27,0.28,0.36,3.35,3.34,3.34
492.62,3.01,-0.36,3.03,-0.34,0.35,0.34,0.41,3.36,3.37,3.37
497.55,2.97,-0.42,2.98,-0.42,0.42,0.40,0.46,3.38,3.39,3.39
502.52,2.94,-0.47,2.93,-0.48,0.48,0.46,0.51,3.42,3.41,3.41
507.55,2.88,-0.54,2.86,-0.55,0.54,0.52,0.55,3.42,3.41,3.42
512.62,2.79,-0.62,2.79,-0.63,0.61,0.58,0.60,3.40,3.40,3.41
