frequency,raw,error,smoothed,error_smoothed,equalization,parametric_eq,fixed_band_eq,equalized_raw,equalized_smoothed,target
20.00,13.89,5.25,13.90,5.26,-5.19,-5.20,-2.04,8.70,8.71,8.64
20.20,13.83,5.20,13.83,5.20,-5.17,-5.20,-2.10,8.66,8.65,8.63
20.40,13.77,5.16,13.76,5.15,-5.16,-5.20,-2.16,8.61,8.60,8.61
20.61,13.71,5.11,13.70,5.11,-5.14,-5.19,-2.23,8.57,8.56,8.60
20.81,13.65,5.07,13.65,5.07,-5.13,-5.18,-2.29,8.52,8.52,8.58
21.02,13.59,5.02,13.62,5.05,-5.12,-5.18,-2.36,8.47,8.50,8.57
21.23,13.62,5.06,13.61,5.06,-5.11,-5.17,-2.43,8.52,8.51,8.56
21.44,13.64,5.09,13.64,5.09,-5.10,-5.16,-2.50,8.54,8.54,8.55
21.66,13.66,5.13,13.67,5.14,-5.11,-5.14,-2.57,8.56,8.57,8.53
21.87,13.69,5.16,13.68,5.16,-5.11,-5.13,-2.64,8.59,8.58,8.53
22.09,13.68,5.16,13.67,5.16,-5.10,-5.12,-2.72,8.58,8.57,8.52
22.31,13.63,5.12,13.64,5.13,-5.10,-5.10,-2.80,8.53,8.54,8.51
22.54,13.58,5.09,13.58,5.08,-5.09,-5.09,-2.88,8.50,8.49,8.50
22.76,13.52,5.03,13.52,5.03,-5.07,-5.07,-2.96,8.45,8.45,8.49
22.99,13.47,4.99,13.49,5.01,-5.06,-5.05,-3.05,8.41,8.43,8.49
23.22,13.48,5.01,13.48,5.00,-5.04,-5.04,-3.13,8.44,8.44,8.48
23.45,13.48,5.01,13.49,5.01,-5.01,-5.02,-3.22,8.47,8.47,8.48
23.69,13.49,5.02,13.50,5.02,-4.98,-5.00,-3.31,8.51,8.52,8.48
23.92,13.50,5.03,13.49,5.01,-4.95,-4.97,-3.41,8.55,8.54,8.48
24.16,13.45,4.98,13.45,4.97,-4.92,-4.95,-3.50,8.54,8.53,8.47
24.40,13.37,4.90,13.37,4.90,-4.88,-4.93,-3.59,8.49,8.49,8.47
24.65,13.28,4.81,13.28,4.81,-4.85,-4.91,-3.69,8.44,8.44,8.47
24.89,13.20,4.73,13.22,4.75,-4.81,-4.88,-3.79,8.39,8.41,8.47
25.14,13.18,4.71,13.19,4.72,-4.78,-4.86,-3.89,8.40,8.41,8.47
25.39,13.19,4.72,13.19,4.72,-4.75,-4.83,-3.98,8.44,8.44,8.47
25.65,13.20,4.74,13.20,4.74,-4.73,-4.80,-4.08,8.48,8.48,8.46
25.91,13.21,4.75,13.20,4.74,-4.71,-4.78,-4.18,8.51,8.50,8.46
26.16,13.17,4.72,13.17,4.72,-4.68,-4.75,-4.28,8.50,8.49,8.45
26.43,13.11,4.67,13.12,4.67,-4.63,-4.72,-4.38,8.48,8.48,8.45
26.69,13.04,4.61,13.05,4.61,-4.58,-4.69,-4.48,8.47,8.47,8.44
26.96,12.98,4.56,12.98,4.55,-4.52,-4.66,-4.57,8.47,8.46,8.43
27.23,12.89,4.47,12.89,4.47,-4.46,-4.63,-4.66,8.43,8.43,8.42
27.50,12.79,4.38,12.78,4.37,-4.42,-4.60,-4.75,8.37,8.36,8.41
27.77,12.69,4.29,12.70,4.30,-4.40,-4.57,-4.84,8.29,8.30,8.40
28.05,12.63,4.24,12.67,4.28,-4.38,-4.54,-4.92,8.25,8.29,8.39
28.33,12.71,4.32,12.72,4.33,-4.36,-4.51,-5.00,8.35,8.36,8.39
28.62,12.80,4.41,12.80,4.41,-4.34,-4.48,-5.07,8.46,8.46,8.39
28.90,12.88,4.51,12.85,4.47,-4.33,-4.45,-5.14,8.56,8.52,8.38
29.19,12.83,4.45,12.81,4.43,-4.32,-4.41,-5.20,8.51,8.49,8.39
29.48,12.71,4.33,12.71,4.33,-4.33,-4.38,-5.26,8.38,8.38,8.38
29.78,12.58,4.20,12.60,4.22,-4.32,-4.35,-5.30,8.26,8.28,8.38
30.08,12.51,4.13,12.55,4.17,-4.30,-4.31,-5.34,8.22,8.25,8.38
30.38,12.58,4.20,12.59,4.21,-4.26,-4.28,-5.38,8.33,8.33,8.38
30.68,12.65,4.28,12.65,4.28,-4.21,-4.25,-5.40,8.44,8.44,8.38
30.99,12.73,4.36,12.68,4.30,-4.18,-4.21,-5.41,8.56,8.50,8.38
31.30,12.61,4.24,12.61,4.23,-4.16,-4.18,-5.42,8.45,8.44,8.37
31.61,12.48,4.11,12.49,4.12,-4.16,-4.15,-5.42,8.32,8.33,8.37
31.93,12.36,3.99,12.40,4.03,-4.15,-4.11,-5.41,8.21,8.25,8.37
32.24,12.37,4.02,12.39,4.03,-4.11,-4.08,-5.39,8.26,8.28,8.36
32.57,12.43,4.08,12.43,4.08,-4.06,-4.05,-5.37,8.37,8.37,8.36
32.89,12.50,4.15,12.46,4.11,-4.01,-4.01,-5.33,8.49,8.45,8.35
33.22,12.43,4.08,12.41,4.06,-3.96,-3.98,-5.29,8.47,8.45,8.35
33.55,12.29,3.94,12.30,3.96,-3.92,-3.94,-5.24,8.37,8.38,8.35
33.89,12.15,3.82,12.18,3.84,-3.88,-3.91,-5.19,8.27,8.30,8.34
34.23,12.09,3.76,12.11,3.77,-3.84,-3.88,-5.13,8.26,8.27,8.33
34.57,12.08,3.75,12.07,3.74,-3.78,-3.84,-5.07,8.30,8.29,8.33
34.92,12.06,3.74,12.06,3.73,-3.73,-3.81,-5.00,8.33,8.32,8.33
35.27,12.03,3.71,12.03,3.71,-3.70,-3.78,-4.93,8.34,8.33,8.32
35.62,12.00,3.68,12.00,3.68,-3.68,-3.74,-4.85,8.33,8.32,8.32
35.97,11.96,3.66,11.98,3.66,-3.67,-3.71,-4.78,8.29,8.31,8.31
36.33,11.96,3.66,11.96,3.66,-3.66,-3.68,-4.70,8.30,8.30,8.30
36.70,11.95,3.65,11.95,3.65,-3.65,-3.65,-4.61,8.31,8.30,8.30
37.06,11.94,3.65,11.94,3.65,-3.63,-3.61,-4.53,8.32,8.31,8.30
37.43,11.91,3.63,11.92,3.63,-3.61,-3.58,-4.45,8.30,8.31,8.28
37.81,11.88,3.60,11.88,3.60,-3.59,-3.55,-4.36,8.29,8.29,8.28
38.19,11.83,3.57,11.82,3.56,-3.57,-3.52,-4.28,8.26,8.25,8.27
38.57,11.76,3.51,11.76,3.51,-3.54,-3.49,-4.20,8.23,8.23,8.25
38.95,11.70,3.47,11.72,3.48,-3.50,-3.46,-4.12,8.20,8.22,8.24
39.34,11.69,3.46,11.71,3.48,-3.46,-3.43,-4.04,8.23,8.25,8.23
39.74,11.70,3.49,11.69,3.47,-3.43,-3.40,-3.96,8.28,8.26,8.22
40.14,11.66,3.46,11.62,3.42,-3.40,-3.37,-3.88,8.26,8.22,8.20
40.54,11.53,3.35,11.53,3.34,-3.38,-3.34,-3.80,8.15,8.15,8.19
40.94,11.40,3.22,11.47,3.29,-3.36,-3.31,-3.73,8.04,8.11,8.18
41.35,11.46,3.29,11.48,3.30,-3.34,-3.28,-3.66,8.12,8.13,8.18
41.76,11.55,3.38,11.51,3.34,-3.32,-3.25,-3.59,8.24,8.20,8.17
42.18,11.56,3.40,11.52,3.36,-3.28,-3.22,-3.52,8.28,8.24,8.16
42.60,11.45,3.29,11.47,3.31,-3.25,-3.20,-3.45,8.20,8.22,8.16
43.03,11.36,3.21,11.39,3.24,-3.22,-3.17,-3.39,8.14,8.16,8.15
43.46,11.32,3.18,11.32,3.18,-3.20,-3.14,-3.33,8.12,8.12,8.14
43.90,11.29,3.15,11.28,3.13,-3.18,-3.12,-3.27,8.11,8.10,8.15
44.33,11.24,3.10,11.24,3.10,-3.15,-3.09,-3.22,8.09,8.08,8.14
44.78,11.19,3.06,11.21,3.08,-3.12,-3.07,-3.17,8.08,8.09,8.13
45.23,11.19,3.07,11.22,3.09,-3.09,-3.04,-3.12,8.11,8.13,8.12
45.68,11.24,3.13,11.23,3.11,-3.06,-3.02,-3.07,8.19,8.17,8.12
46.13,11.25,3.14,11.21,3.10,-3.03,-3.00,-3.02,8.22,8.18,8.11
46.60,11.14,3.05,11.15,3.05,-3.01,-2.97,-2.98,8.14,8.14,8.10
47.06,11.03,2.94,11.05,2.96,-2.99,-2.95,-2.94,8.05,8.06,8.09
47.53,10.97,2.89,10.97,2.89,-2.96,-2.93,-2.90,8.01,8.00,8.08
48.01,10.91,2.85,10.94,2.88,-2.94,-2.91,-2.87,7.98,8.00,8.06
48.49,10.93,2.88,10.94,2.89,-2.90,-2.89,-2.83,8.03,8.04,8.05
48.97,10.96,2.93,10.93,2.90,-2.86,-2.87,-2.80,8.10,8.07,8.03
49.46,10.91,2.89,10.92,2.90,-2.84,-2.85,-2.77,8.08,8.08,8.02
49.96,10.86,2.86,10.87,2.86,-2.82,-2.83,-2.75,8.05,8.05,8.01
50.46,10.80,2.81,10.80,2.80,-2.81,-2.81,-2.72,8.00,7.99,8.00
50.96,10.73,2.74,10.73,2.74,-2.79,-2.79,-2.70,7.94,7.94,7.99
51.47,10.69,2.71,10.69,2.71,-2.77,-2.77,-2.68,7.92,7.92,7.98
51.99,10.65,2.69,10.69,2.72,-2.75,-2.76,-2.66,7.90,7.94,7.97
52.51,10.70,2.76,10.70,2.75,-2.73,-2.74,-2.64,7.97,7.97,7.94
53.03,10.73,2.80,10.68,2.75,-2.71,-2.73,-2.62,8.02,7.97,7.93
53.56,10.63,2.72,10.64,2.73,-2.69,-2.71,-2.61,7.94,7.95,7.91
54.10,10.55,2.65,10.59,2.69,-2.67,-2.70,-2.59,7.88,7.91,7.90
54.64,10.54,2.66,10.54,2.65,-2.66,-2.68,-2.58,7.88,7.88,7.88
55.18,10.52,2.65,10.50,2.63,-2.65,-2.67,-2.57,7.88,7.86,7.87
55.74,10.45,2.60,10.46,2.60,-2.63,-2.66,-2.56,7.82,7.83,7.85
56.29,10.40,2.57,10.40,2.57,-2.61,-2.64,-2.55,7.79,7.79,7.83
56.86,10.36,2.55,10.39,2.57,-2.60,-2.63,-2.54,7.77,7.79,7.82
57.42,10.38,2.59,10.40,2.60,-2.58,-2.62,-2.53,7.80,7.81,7.80
58.00,10.43,2.65,10.40,2.62,-2.56,-2.61,-2.52,7.87,7.84,7.78
58.58,10.37,2.61,10.36,2.60,-2.54,-2.60,-2.52,7.83,7.82,7.76
59.16,10.29,2.55,10.28,2.54,-2.52,-2.59,-2.51,7.77,7.76,7.74
59.76,10.16,2.45,10.20,2.48,-2.50,-2.59,-2.50,7.67,7.70,7.72
60.35,10.12,2.43,10.14,2.44,-2.48,-2.58,-2.49,7.64,7.66,7.70
60.96,10.14,2.46,10.11,2.42,-2.47,-2.57,-2.49,7.67,7.64,7.68
61.57,10.09,2.43,10.09,2.43,-2.46,-2.56,-2.48,7.63,7.63,7.66
62.18,10.05,2.41,10.07,2.44,-2.46,-2.56,-2.47,7.60,7.62,7.64
62.80,10.06,2.46,10.07,2.47,-2.46,-2.55,-2.47,7.61,7.62,7.60
63.43,10.08,2.50,10.08,2.50,-2.46,-2.55,-2.46,7.63,7.62,7.58
64.07,10.09,2.55,10.06,2.51,-2.45,-2.55,-2.45,7.64,7.60,7.54
64.71,9.99,2.48,10.01,2.49,-2.45,-2.54,-2.45,7.54,7.56,7.52
65.35,9.91,2.43,9.93,2.44,-2.44,-2.54,-2.44,7.47,7.48,7.48
66.01,9.85,2.40,9.84,2.39,-2.44,-2.54,-2.43,7.41,7.40,7.45
66.67,9.78,2.37,9.79,2.37,-2.43,-2.54,-2.43,7.35,7.36,7.41
67.33,9.75,2.37,9.77,2.39,-2.42,-2.54,-2.42,7.33,7.34,7.38
68.01,9.75,2.41,9.76,2.42,-2.42,-2.54,-2.42,7.34,7.35,7.34
68.69,9.78,2.47,9.76,2.45,-2.41,-2.54,-2.41,7.37,7.34,7.31
69.37,9.74,2.47,9.73,2.46,-2.41,-2.54,-2.40,7.33,7.32,7.27
70.07,9.65,2.42,9.68,2.44,-2.41,-2.54,-2.40,7.24,7.26,7.24
70.77,9.61,2.42,9.61,2.42,-2.42,-2.54,-2.40,7.20,7.19,7.19
71.48,9.56,2.41,9.55,2.40,-2.42,-2.54,-2.39,7.14,7.13,7.16
72.19,9.50,2.39,9.51,2.39,-2.42,-2.55,-2.39,7.08,7.08,7.11
72.91,9.46,2.39,9.47,2.40,-2.43,-2.55,-2.39,7.03,7.04,7.07
73.64,9.45,2.42,9.46,2.42,-2.44,-2.56,-2.39,7.01,7.02,7.04
74.38,9.46,2.46,9.46,2.46,-2.45,-2.56,-2.39,7.01,7.01,7.00
75.12,9.46,2.50,9.45,2.49,-2.47,-2.57,-2.39,7.00,6.98,6.96
75.87,9.41,2.50,9.42,2.51,-2.48,-2.58,-2.39,6.93,6.94,6.91
76.63,9.37,2.50,9.38,2.51,-2.49,-2.59,-2.40,6.88,6.89,6.87
77.40,9.33,2.50,9.33,2.50,-2.49,-2.59,-2.40,6.84,6.83,6.83
78.17,9.28,2.50,9.28,2.49,-2.50,-2.60,-2.41,6.79,6.78,6.79
78.95,9.22,2.48,9.23,2.48,-2.50,-2.61,-2.42,6.73,6.73,6.74
79.74,9.17,2.47,9.19,2.49,-2.50,-2.62,-2.43,6.67,6.69,6.70
80.54,9.15,2.50,9.15,2.49,-2.51,-2.63,-2.44,6.65,6.64,6.65
81.35,9.12,2.52,9.11,2.50,-2.51,-2.64,-2.45,6.61,6.59,6.61
82.16,9.06,2.50,9.08,2.52,-2.52,-2.66,-2.47,6.54,6.55,6.56
82.98,9.04,2.54,9.06,2.55,-2.54,-2.67,-2.48,6.51,6.52,6.50
83.81,9.04,2.59,9.04,2.58,-2.55,-2.68,-2.50,6.49,6.49,6.46
84.65,9.03,2.63,9.00,2.60,-2.57,-2.69,-2.52,6.46,6.43,6.41
85.50,8.94,2.60,8.94,2.59,-2.59,-2.71,-2.55,6.35,6.35,6.35
86.35,8.85,2.56,8.88,2.59,-2.62,-2.72,-2.57,6.24,6.27,6.30
87.22,8.84,2.61,8.85,2.61,-2.64,-2.74,-2.60,6.20,6.21,6.24
88.09,8.85,2.67,8.84,2.66,-2.67,-2.76,-2.63,6.18,6.17,6.19
88.97,8.85,2.73,8.83,2.71,-2.70,-2.77,-2.66,6.15,6.13,6.12
89.86,8.79,2.73,8.80,2.74,-2.73,-2.79,-2.69,6.06,6.07,6.06
90.76,8.76,2.76,8.78,2.78,-2.76,-2.81,-2.73,6.00,6.02,6.01
91.66,8.75,2.81,8.76,2.81,-2.79,-2.82,-2.76,5.96,5.96,5.94
92.58,8.75,2.87,8.73,2.85,-2.83,-2.84,-2.80,5.93,5.90,5.88
93.51,8.68,2.87,8.67,2.86,-2.86,-2.86,-2.84,5.83,5.82,5.81
94.44,8.59,2.84,8.61,2.86,-2.89,-2.88,-2.88,5.71,5.73,5.75
95.39,8.55,2.87,8.56,2.88,-2.92,-2.90,-2.93,5.64,5.65,5.68
96.34,8.54,2.93,8.55,2.93,-2.95,-2.92,-2.97,5.60,5.60,5.62
97.30,8.54,3.00,8.53,2.99,-2.98,-2.94,-3.02,5.57,5.55,5.54
98.28,8.51,3.04,8.50,3.03,-3.01,-2.96,-3.07,5.51,5.49,5.47
99.26,8.43,3.04,8.45,3.06,-3.04,-2.99,-3.12,5.39,5.41,5.40
100.25,8.39,3.07,8.39,3.07,-3.07,-3.01,-3.17,5.32,5.32,5.32
101.25,8.34,3.10,8.33,3.09,-3.09,-3.03,-3.22,5.25,5.24,5.24
102.27,8.26,3.10,8.28,3.12,-3.11,-3.05,-3.27,5.15,5.17,5.16
103.29,8.22,3.14,8.22,3.14,-3.13,-3.08,-3.32,5.09,5.09,5.09
104.32,8.17,3.17,8.15,3.15,-3.15,-3.10,-3.38,5.03,5.00,5.01
105.37,8.08,3.16,8.08,3.16,-3.17,-3.13,-3.43,4.91,4.91,4.92
106.42,7.99,3.15,8.01,3.17,-3.20,-3.15,-3.48,4.80,4.82,4.84
107.48,7.96,3.20,7.97,3.20,-3.23,-3.17,-3.54,4.74,4.74,4.76
108.56,7.94,3.26,7.94,3.25,-3.25,-3.20,-3.59,4.69,4.69,4.69
109.64,7.92,3.31,7.91,3.30,-3.28,-3.22,-3.64,4.64,4.63,4.61
110.74,7.87,3.33,7.87,3.33,-3.31,-3.25,-3.69,4.57,4.56,4.54
111.85,7.79,3.33,7.82,3.35,-3.33,-3.27,-3.74,4.46,4.49,4.46
112.97,7.77,3.38,7.76,3.37,-3.36,-3.30,-3.78,4.42,4.41,4.40
114.10,7.72,3.39,7.71,3.38,-3.38,-3.33,-3.83,4.34,4.32,4.33
115.24,7.65,3.39,7.65,3.39,-3.41,-3.35,-3.87,4.24,4.24,4.26
116.39,7.59,3.39,7.60,3.40,-3.43,-3.38,-3.90,4.16,4.17,4.20
117.55,7.56,3.42,7.58,3.44,-3.46,-3.40,-3.94,4.11,4.12,4.14
118.73,7.57,3.50,7.57,3.49,-3.48,-3.43,-3.97,4.09,4.09,4.08
119.92,7.58,3.56,7.56,3.54,-3.51,-3.46,-4.00,4.08,4.05,4.02
121.12,7.52,3.56,7.52,3.56,-3.53,-3.48,-4.02,3.99,3.99,3.96
122.33,7.46,3.56,7.47,3.56,-3.56,-3.51,-4.04,3.90,3.91,3.91
123.55,7.41,3.55,7.43,3.57,-3.59,-3.53,-4.05,3.82,3.84,3.86
124.79,7.41,3.60,7.41,3.60,-3.62,-3.56,-4.06,3.80,3.79,3.81
126.03,7.41,3.66,7.39,3.63,-3.64,-3.58,-4.07,3.77,3.75,3.75
127.29,7.36,3.66,7.37,3.66,-3.67,-3.61,-4.07,3.69,3.70,3.71
128.57,7.32,3.67,7.35,3.69,-3.69,-3.64,-4.07,3.63,3.65,3.66
129.85,7.33,3.73,7.33,3.72,-3.72,-3.66,-4.06,3.61,3.61,3.61
131.15,7.34,3.78,7.32,3.77,-3.75,-3.68,-4.05,3.59,3.58,3.56
132.46,7.30,3.79,7.30,3.79,-3.77,-3.71,-4.03,3.53,3.53,3.51
133.79,7.25,3.80,7.26,3.80,-3.79,-3.73,-4.02,3.46,3.46,3.45
135.12,7.20,3.80,7.21,3.80,-3.81,-3.76,-3.99,3.39,3.40,3.41
136.48,7.16,3.80,7.18,3.82,-3.83,-3.78,-3.97,3.33,3.34,3.36
137.84,7.15,3.85,7.14,3.83,-3.85,-3.80,-3.94,3.30,3.29,3.30
139.22,7.12,3.86,7.11,3.85,-3.86,-3.82,-3.91,3.26,3.24,3.26
140.61,7.06,3.86,7.09,3.88,-3.88,-3.84,-3.88,3.19,3.21,3.21
142.02,7.05,3.90,7.07,3.91,-3.89,-3.86,-3.85,3.16,3.18,3.15
143.44,7.07,3.97,7.04,3.93,-3.91,-3.88,-3.81,3.17,3.13,3.10
144.87,7.00,3.94,6.98,3.93,-3.92,-3.90,-3.78,3.08,3.06,3.06
146.32,6.89,3.88,6.92,3.91,-3.93,-3.92,-3.74,2.96,2.98,3.01
147.78,6.84,3.89,6.87,3.91,-3.94,-3.94,-3.71,2.90,2.92,2.95
149.26,6.85,3.95,6.85,3.94,-3.95,-3.96,-3.67,2.90,2.89,2.90
150.75,6.86,4.01,6.84,3.98,-3.96,-3.97,-3.63,2.90,2.88,2.86
152.26,6.80,3.99,6.80,3.99,-3.96,-3.99,-3.60,2.84,2.84,2.81
153.78,6.74,3.97,6.75,3.98,-3.97,-4.00,-3.57,2.77,2.78,2.77
155.32,6.69,3.96,6.70,3.97,-3.98,-4.01,-3.53,2.71,2.72,2.73
156.88,6.66,3.98,6.68,3.99,-3.99,-4.03,-3.50,2.67,2.68,2.68
158.44,6.66,4.01,6.64,3.99,-4.01,-4.04,-3.47,2.66,2.63,2.65
160.03,6.62,4.01,6.60,3.99,-4.02,-4.05,-3.44,2.61,2.59,2.61
161.63,6.53,3.97,6.56,4.00,-4.02,-4.06,-3.42,2.51,2.55,2.57
163.24,6.53,4.01,6.56,4.03,-4.02,-4.06,-3.39,2.51,2.54,2.53
164.88,6.56,4.08,6.55,4.07,-4.03,-4.07,-3.37,2.54,2.53,2.49
166.53,6.58,4.14,6.51,4.06,-4.02,-4.08,-3.35,2.56,2.49,2.45
168.19,6.41,4.00,6.43,4.02,-4.02,-4.08,-3.33,2.40,2.42,2.41
169.87,6.29,3.92,6.36,3.98,-4.00,-4.08,-3.32,2.29,2.35,2.37
171.57,6.31,3.98,6.29,3.96,-3.99,-4.08,-3.30,2.32,2.30,2.33
173.29,6.30,4.00,6.27,3.97,-3.98,-4.09,-3.29,2.33,2.30,2.30
175.02,6.23,3.97,6.24,3.97,-3.96,-4.08,-3.29,2.27,2.28,2.26
176.77,6.18,3.94,6.18,3.95,-3.95,-4.08,-3.28,2.23,2.23,2.24
178.54,6.12,3.92,6.14,3.93,-3.95,-4.08,-3.28,2.17,2.18,2.21
180.32,6.11,3.93,6.12,3.94,-3.95,-4.08,-3.28,2.16,2.17,2.18
182.13,6.12,3.96,6.12,3.96,-3.95,-4.07,-3.28,2.17,2.17,2.16
183.95,6.13,4.00,6.12,3.98,-3.95,-4.06,-3.28,2.18,2.16,2.14
185.79,6.08,3.98,6.08,3.97,-3.95,-4.05,-3.29,2.13,2.13,2.11
187.65,6.04,3.95,6.04,3.95,-3.95,-4.04,-3.30,2.09,2.09,2.10
189.52,5.98,3.91,6.00,3.93,-3.95,-4.03,-3.31,2.03,2.05,2.08
191.42,5.98,3.93,5.99,3.93,-3.94,-4.02,-3.33,2.04,2.05,2.06
193.33,5.99,3.95,5.98,3.94,-3.93,-4.01,-3.34,2.07,2.05,2.04
195.27,5.96,3.93,5.96,3.93,-3.91,-3.99,-3.36,2.05,2.05,2.03
197.22,5.92,3.91,5.92,3.91,-3.90,-3.98,-3.38,2.02,2.02,2.01
199.19,5.86,3.87,5.88,3.88,-3.89,-3.96,-3.40,1.98,1.99,2.00
201.18,5.84,3.86,5.83,3.85,-3.87,-3.94,-3.43,1.97,1.96,1.98
203.19,5.79,3.83,5.79,3.83,-3.84,-3.92,-3.45,1.95,1.95,1.96
205.23,5.74,3.79,5.78,3.83,-3.81,-3.90,-3.48,1.93,1.96,1.95
207.28,5.77,3.84,5.75,3.82,-3.79,-3.88,-3.50,1.98,1.96,1.93
209.35,5.72,3.81,5.70,3.78,-3.76,-3.85,-3.53,1.96,1.94,1.91
211.44,5.63,3.74,5.62,3.72,-3.74,-3.83,-3.56,1.89,1.88,1.90
213.56,5.51,3.63,5.56,3.68,-3.72,-3.80,-3.58,1.80,1.84,1.88
215.69,5.49,3.63,5.53,3.66,-3.69,-3.78,-3.61,1.80,1.84,1.86
217.85,5.57,3.72,5.52,3.68,-3.66,-3.75,-3.64,1.91,1.86,1.85
220.03,5.51,3.69,5.50,3.67,-3.64,-3.72,-3.66,1.88,1.86,1.83
222.23,5.44,3.63,5.43,3.61,-3.61,-3.69,-3.69,1.83,1.82,1.82
224.45,5.32,3.52,5.37,3.57,-3.58,-3.66,-3.71,1.74,1.79,1.80
226.70,5.31,3.52,5.34,3.55,-3.56,-3.63,-3.73,1.76,1.78,1.79
228.96,5.38,3.60,5.32,3.53,-3.52,-3.59,-3.75,1.86,1.79,1.78
231.25,5.27,3.49,5.28,3.50,-3.48,-3.56,-3.76,1.79,1.80,1.78
233.57,5.21,3.44,5.22,3.45,-3.43,-3.53,-3.77,1.78,1.79,1.77
235.90,5.13,3.36,5.17,3.40,-3.39,-3.49,-3.78,1.74,1.77,1.77
238.26,5.16,3.40,5.14,3.36,-3.36,-3.46,-3.79,1.80,1.77,1.77
240.64,5.11,3.34,5.09,3.31,-3.34,-3.42,-3.79,1.78,1.75,1.78
243.05,5.03,3.25,5.04,3.27,-3.31,-3.38,-3.78,1.73,1.74,1.78
245.48,4.98,3.20,5.03,3.25,-3.28,-3.34,-3.78,1.70,1.75,1.78
247.93,5.04,3.26,5.05,3.26,-3.26,-3.31,-3.76,1.78,1.78,1.78
250.41,5.11,3.33,5.07,3.28,-3.24,-3.27,-3.75,1.87,1.82,1.79
252.92,5.05,3.27,5.05,3.26,-3.22,-3.23,-3.72,1.83,1.83,1.79
255.45,4.98,3.19,5.00,3.21,-3.19,-3.19,-3.70,1.79,1.81,1.79
258.00,4.90,3.12,4.94,3.16,-3.16,-3.15,-3.67,1.74,1.78,1.78
260.58,4.93,3.15,4.91,3.13,-3.13,-3.11,-3.63,1.81,1.79,1.78
263.19,4.88,3.11,4.86,3.09,-3.10,-3.06,-3.59,1.79,1.77,1.77
265.82,4.81,3.06,4.79,3.03,-3.06,-3.02,-3.55,1.75,1.73,1.76
268.48,4.68,2.93,4.72,2.98,-3.02,-2.98,-3.50,1.66,1.70,1.75
271.16,4.66,2.93,4.71,2.97,-2.99,-2.94,-3.45,1.67,1.72,1.73
273.87,4.74,3.02,4.70,2.98,-2.96,-2.90,-3.39,1.79,1.75,1.72
276.61,4.72,3.01,4.69,2.97,-2.92,-2.85,-3.34,1.80,1.77,1.71
279.38,4.61,2.90,4.64,2.93,-2.89,-2.81,-3.28,1.73,1.75,1.71
282.17,4.53,2.84,4.54,2.84,-2.85,-2.77,-3.21,1.68,1.69,1.69
284.99,4.48,2.79,4.47,2.78,-2.82,-2.72,-3.15,1.66,1.65,1.69
287.84,4.41,2.73,4.44,2.75,-2.79,-2.68,-3.08,1.62,1.65,1.69
290.72,4.42,2.75,4.41,2.74,-2.75,-2.63,-3.02,1.67,1.67,1.67
293.63,4.39,2.73,4.38,2.71,-2.71,-2.59,-2.95,1.69,1.67,1.67
296.57,4.36,2.70,4.35,2.68,-2.67,-2.54,-2.88,1.69,1.68,1.66
299.53,4.28,2.61,4.33,2.66,-2.64,-2.50,-2.81,1.65,1.69,1.67
302.53,4.29,2.63,4.28,2.62,-2.61,-2.46,-2.74,1.69,1.68,1.67
305.55,4.28,2.63,4.22,2.56,-2.57,-2.41,-2.66,1.71,1.65,1.65
308.61,4.11,2.46,4.17,2.52,-2.53,-2.37,-2.59,1.58,1.64,1.65
311.69,4.08,2.44,4.12,2.48,-2.49,-2.32,-2.52,1.60,1.63,1.65
314.81,4.12,2.49,4.09,2.45,-2.45,-2.28,-2.45,1.68,1.64,1.63
317.96,4.07,2.44,4.05,2.42,-2.41,-2.23,-2.39,1.67,1.64,1.63
321.14,3.99,2.37,3.99,2.37,-2.37,-2.19,-2.32,1.63,1.63,1.63
324.35,3.88,2.27,3.93,2.31,-2.33,-2.14,-2.25,1.56,1.60,1.62
327.59,3.90,2.30,3.89,2.28,-2.29,-2.10,-2.18,1.61,1.60,1.60
330.87,3.87,2.27,3.85,2.25,-2.25,-2.06,-2.12,1.62,1.60,1.60
334.18,3.81,2.22,3.82,2.22,-2.21,-2.01,-2.06,1.60,1.61,1.60
337.52,3.74,2.15,3.75,2.16,-2.16,-1.97,-1.99,1.58,1.59,1.60
340.90,3.70,2.12,3.70,2.11,-2.12,-1.92,-1.93,1.59,1.59,1.58
344.30,3.64,2.06,3.66,2.08,-2.06,-1.88,-1.87,1.58,1.60,1.58
347.75,3.62,2.04,3.59,2.02,-2.01,-1.83,-1.81,1.62,1.59,1.58
351.23,3.53,1.97,3.52,1.95,-1.94,-1.79,-1.76,1.59,1.58,1.57
354.74,3.41,1.85,3.46,1.90,-1.89,-1.75,-1.70,1.53,1.58,1.57
358.28,3.40,1.84,3.38,1.82,-1.83,-1.70,-1.64,1.57,1.55,1.56
361.87,3.35,1.79,3.31,1.75,-1.78,-1.66,-1.59,1.57,1.53,1.56
365.49,3.21,1.65,3.27,1.71,-1.73,-1.62,-1.54,1.48,1.54,1.56
369.14,3.22,1.66,3.23,1.67,-1.68,-1.57,-1.49,1.54,1.55,1.56
372.83,3.24,1.69,3.20,1.65,-1.64,-1.53,-1.44,1.60,1.56,1.56
376.56,3.17,1.62,3.18,1.63,-1.60,-1.49,-1.39,1.57,1.58,1.56
380.33,3.12,1.58,3.12,1.58,-1.57,-1.44,-1.34,1.56,1.56,1.54
384.13,3.06,1.52,3.06,1.52,-1.53,-1.40,-1.30,1.53,1.53,1.54
387.97,2.99,1.46,3.01,1.48,-1.49,-1.36,-1.25,1.50,1.53,1.53
391.85,2.96,1.44,2.97,1.45,-1.44,-1.32,-1.21,1.52,1.52,1.52
395.77,2.94,1.43,2.91,1.40,-1.40,-1.27,-1.17,1.55,1.51,1.51
399.73,2.83,1.34,2.85,1.35,-1.34,-1.23,-1.13,1.49,1.51,1.50
403.72,2.75,1.27,2.78,1.30,-1.29,-1.19,-1.09,1.46,1.49,1.49
407.76,2.74,1.28,2.70,1.23,-1.24,-1.15,-1.05,1.51,1.47,1.47
411.84,2.63,1.18,2.64,1.19,-1.18,-1.11,-1.01,1.45,1.46,1.45
415.96,2.55,1.11,2.58,1.13,-1.13,-1.06,-0.97,1.43,1.45,1.44
420.12,2.52,1.09,2.50,1.07,-1.08,-1.02,-0.93,1.45,1.43,1.43
424.32,2.45,1.02,2.45,1.02,-1.04,-0.98,-0.90,1.42,1.41,1.43
428.56,2.39,0.96,2.41,0.97,-1.00,-0.94,-0.86,1.39,1.41,1.43
432.85,2.37,0.93,2.39,0.95,-0.97,-0.90,-0.82,1.41,1.42,1.44
437.18,2.40,0.94,2.39,0.93,-0.94,-0.86,-0.79,1.46,1.45,1.46
441.55,2.42,0.95,2.40,0.92,-0.91,-0.82,-0.76,1.51,1.49,1.48
445.96,2.39,0.89,2.43,0.92,-0.88,-0.78,-0.72,1.51,1.54,1.51
450.42,2.43,0.89,2.42,0.88,-0.86,-0.73,-0.69,1.57,1.56,1.55
454.93,2.45,0.87,2.42,0.83,-0.84,-0.69,-0.65,1.62,1.58,1.59
459.48,2.38,0.75,2.42,0.79,-0.81,-0.65,-0.62,1.58,1.62,1.63
464.07,2.41,0.74,2.43,0.75,-0.77,-0.61,-0.58,1.64,1.66,1.67
468.71,2.46,0.74,2.45,0.72,-0.72,-0.57,-0.55,1.74,1.72,1.72
473.40,2.47,0.70,2.47,0.70,-0.67,-0.53,-0.52,1.80,1.80,1.77
478.13,2.47,0.65,2.47,0.65,-0.62,-0.49,-0.48,1.85,1.85,1.82
482.91,2.43,0.57,2.44,0.58,-0.57,-0.45,-0.45,1.87,1.87,1.86
487.74,2.41,0.51,2.41,0.51,-0.51,-0.41,-0.41,1.90,1.90,1.90
492.62,2.36,0.43,2.37,0.44,-0.45,-0.37,-0.38,1.91,1.92,1.93
497.55,2.33,0.38,2.33,0.37,-0.39,-0.33,-0.34,1.94,1.94,1.95
502.52,2.28,0.31,2.29,0.32,-0.33,-0.29,-0.31,1.95,1.96,1.97
507.55,2.24,0.26,2.24,0.27,-0.28,-0.25,-0.27,1.97,1.97,1.98
512.62,2.20,0.23,2.19,0.22,-0.22,-0.21,-0.24,1.98,1.97,1.97
517.75,2.13,0.16,2.14,0.17,-0.17,-0.17,-0.20,1.96,1.97,1.97
522.93,2.07,0.12,2.07,0.12,-0.12,-0.13,-0.16,1.96,1.95,1.95
528.16,1.99,0.07,2.00,0.07,-0.06,-0.09,-0.12,1.93,1.94,1.93
