frequency,raw,error,smoothed,error_smoothed,equalization,parametric_eq,fixed_band_eq,equalized_raw,equalized_smoothed,target
20.00,-11.36,-13.13,-11.35,-13.13,6.00,6.22,2.85,-5.36,-5.35,1.78
20.20,-11.24,-13.01,-11.24,-13.02,6.00,6.22,2.93,-5.24,-5.24,1.78
20.40,-11.11,-12.90,-11.12,-12.91,6.00,6.21,3.01,-5.11,-5.12,1.79
20.61,-11.01,-12.81,-11.00,-12.80,6.00,6.21,3.10,-5.01,-5.00,1.80
20.81,-10.88,-12.68,-10.89,-12.69,6.00,6.20,3.19,-4.88,-4.89,1.80
21.02,-10.77,-12.57,-10.77,-12.57,6.00,6.20,3.28,-4.77,-4.77,1.81
21.23,-10.65,-12.45,-10.65,-12.46,6.00,6.19,3.37,-4.65,-4.65,1.81
21.44,-10.52,-12.34,-10.53,-12.35,6.00,6.18,3.47,-4.52,-4.53,1.82
21.66,-10.42,-12.25,-10.41,-12.24,6.00,6.18,3.56,-4.42,-4.41,1.83
21.87,-10.29,-12.12,-10.29,-12.13,6.00,6.17,3.67,-4.29,-4.29,1.83
22.09,-10.17,-12.01,-10.18,-12.01,6.00,6.17,3.77,-4.17,-4.18,1.84
22.31,-10.05,-11.90,-10.05,-11.90,6.00,6.16,3.88,-4.05,-4.05,1.85
22.54,-9.94,-11.79,-9.94,-11.79,6.00,6.16,3.99,-3.94,-3.94,1.85
22.76,-9.81,-11.67,-9.82,-11.67,6.00,6.15,4.10,-3.81,-3.82,1.86
22.99,-9.70,-11.56,-9.69,-11.56,6.00,6.14,4.21,-3.70,-3.69,1.87
23.22,-9.57,-11.44,-9.57,-11.45,6.00,6.14,4.33,-3.57,-3.57,1.88
23.45,-9.44,-11.33,-9.45,-11.33,6.00,6.13,4.45,-3.44,-3.45,1.89
23.69,-9.33,-11.23,-9.32,-11.22,6.00,6.12,4.57,-3.33,-3.32,1.90
23.92,-9.20,-11.11,-9.20,-11.11,6.00,6.12,4.70,-3.20,-3.20,1.91
24.16,-9.08,-11.00,-9.08,-11.00,6.00,6.11,4.83,-3.08,-3.08,1.92
24.40,-8.96,-10.89,-8.96,-10.90,6.00,6.11,4.96,-2.96,-2.96,1.93
24.65,-8.85,-10.79,-8.84,-10.79,6.00,6.10,5.09,-2.85,-2.84,1.95
24.89,-8.72,-10.68,-8.72,-10.68,6.00,6.09,5.22,-2.72,-2.72,1.96
25.14,-8.60,-10.57,-8.60,-10.57,6.00,6.08,5.36,-2.60,-2.60,1.97
25.39,-8.48,-10.46,-8.48,-10.46,6.00,6.08,5.50,-2.48,-2.48,1.98
25.65,-8.37,-10.35,-8.36,-10.36,6.00,6.07,5.63,-2.37,-2.36,1.99
25.91,-8.25,-10.26,-8.25,-10.25,6.00,6.06,5.77,-2.25,-2.25,2.01
26.16,-8.12,-10.14,-8.13,-10.15,6.00,6.06,5.91,-2.12,-2.13,2.02
26.43,-8.02,-10.05,-8.01,-10.04,6.00,6.05,6.05,-2.02,-2.01,2.03
26.69,-7.90,-9.93,-7.90,-9.94,6.00,6.04,6.18,-1.90,-1.90,2.04
26.96,-7.78,-9.84,-7.78,-9.83,6.00,6.04,6.32,-1.78,-1.78,2.06
27.23,-7.66,-9.73,-7.66,-9.73,6.00,6.03,6.45,-1.66,-1.66,2.07
27.50,-7.54,-9.62,-7.54,-9.62,6.00,6.02,6.58,-1.54,-1.54,2.09
27.77,-7.42,-9.52,-7.42,-9.52,6.00,6.01,6.70,-1.42,-1.42,2.10
28.05,-7.30,-9.42,-7.31,-9.42,6.00,6.01,6.82,-1.30,-1.31,2.12
28.33,-7.19,-9.32,-7.19,-9.32,6.00,6.00,6.94,-1.19,-1.19,2.13
28.62,-7.08,-9.23,-7.08,-9.22,6.00,5.99,7.05,-1.08,-1.08,2.15
28.90,-6.96,-9.12,-6.97,-9.13,6.00,5.99,7.15,-0.96,-0.97,2.16
29.19,-6.86,-9.03,-6.85,-9.03,6.00,5.98,7.24,-0.86,-0.85,2.18
29.48,-6.74,-8.93,-6.74,-8.93,6.00,5.97,7.32,-0.74,-0.74,2.19
29.78,-6.63,-8.83,-6.63,-8.84,6.00,5.97,7.40,-0.63,-0.63,2.21
30.08,-6.52,-8.74,-6.52,-8.74,6.00,5.96,7.46,-0.52,-0.52,2.22
30.38,-6.42,-8.66,-6.41,-8.65,6.00,5.95,7.51,-0.42,-0.41,2.24
30.68,-6.31,-8.55,-6.31,-8.56,6.00,5.95,7.55,-0.31,-0.31,2.25
30.99,-6.20,-8.46,-6.20,-8.47,6.00,5.94,7.58,-0.20,-0.20,2.27
31.30,-6.11,-8.38,-6.10,-8.38,6.00,5.93,7.60,-0.11,-0.10,2.28
31.61,-6.01,-8.30,-6.00,-8.30,6.00,5.93,7.61,-0.01,-0.00,2.30
31.93,-5.91,-8.22,-5.91,-8.22,6.00,5.92,7.60,0.09,0.09,2.31
32.24,-5.80,-8.13,-5.81,-8.13,6.00,5.92,7.58,0.20,0.19,2.33
32.57,-5.71,-8.04,-5.70,-8.04,6.00,5.91,7.55,0.29,0.30,2.34
32.89,-5.60,-7.96,-5.61,-7.96,6.00,5.91,7.51,0.40,0.39,2.36
33.22,-5.51,-7.87,-5.51,-7.88,6.00,5.91,7.46,0.49,0.49,2.37
33.55,-5.41,-7.80,-5.41,-7.80,6.00,5.90,7.41,0.59,0.59,2.39
33.89,-5.32,-7.71,-5.32,-7.72,6.00,5.90,7.34,0.68,0.68,2.40
34.23,-5.23,-7.64,-5.22,-7.64,6.00,5.90,7.27,0.77,0.78,2.42
34.57,-5.13,-7.55,-5.13,-7.55,6.00,5.89,7.19,0.87,0.87,2.43
34.92,-5.03,-7.46,-5.03,-7.47,6.00,5.89,7.10,0.97,0.97,2.44
35.27,-4.94,-7.39,-4.94,-7.39,6.00,5.89,7.01,1.06,1.06,2.46
35.62,-4.85,-7.31,-4.85,-7.31,6.00,5.89,6.92,1.15,1.15,2.47
35.97,-4.75,-7.23,-4.75,-7.23,6.00,5.89,6.82,1.25,1.25,2.48
36.33,-4.66,-7.15,-4.66,-7.15,6.00,5.89,6.72,1.34,1.34,2.49
36.70,-4.57,-7.06,-4.57,-7.07,6.00,5.89,6.62,1.43,1.43,2.50
37.06,-4.48,-6.99,-4.48,-6.99,6.00,5.89,6.52,1.52,1.52,2.51
37.43,-4.39,-6.91,-4.40,-6.92,6.00,5.89,6.42,1.61,1.60,2.52
37.81,-4.32,-6.84,-4.32,-6.84,6.00,5.89,6.32,1.68,1.68,2.53
38.19,-4.24,-6.77,-4.23,-6.77,6.00,5.89,6.22,1.76,1.77,2.54
38.57,-4.16,-6.70,-4.15,-6.70,6.00,5.88,6.12,1.84,1.85,2.55
38.95,-4.07,-6.63,-4.07,-6.63,6.00,5.88,6.02,1.93,1.93,2.56
39.34,-3.99,-6.56,-4.00,-6.57,6.00,5.87,5.93,2.01,2.00,2.57
39.74,-3.93,-6.50,-3.92,-6.50,6.00,5.86,5.84,2.07,2.08,2.58
40.14,-3.86,-6.43,-3.85,-6.43,6.00,5.85,5.75,2.14,2.15,2.58
40.54,-3.78,-6.36,-3.78,-6.37,6.00,5.84,5.66,2.23,2.22,2.59
40.94,-3.71,-6.30,-3.71,-6.30,6.01,5.82,5.58,2.30,2.30,2.60
41.35,-3.64,-6.24,-3.64,-6.25,6.01,5.80,5.50,2.38,2.37,2.61
41.76,-3.57,-6.19,-3.57,-6.19,6.01,5.78,5.43,2.44,2.44,2.62
42.18,-3.51,-6.13,-3.50,-6.13,6.00,5.76,5.36,2.50,2.50,2.63
42.60,-3.43,-6.07,-3.44,-6.07,5.99,5.73,5.29,2.55,2.55,2.64
43.03,-3.37,-6.01,-3.37,-6.01,5.97,5.70,5.22,2.60,2.60,2.65
43.46,-3.30,-5.95,-3.29,-5.95,5.93,5.66,5.16,2.64,2.64,2.66
43.90,-3.23,-5.89,-3.22,-5.89,5.89,5.63,5.11,2.66,2.67,2.67
44.33,-3.14,-5.83,-3.15,-5.83,5.84,5.59,5.06,2.69,2.69,2.69
44.78,-3.08,-5.77,-3.07,-5.77,5.78,5.55,5.01,2.71,2.71,2.70
45.23,-3.00,-5.70,-3.00,-5.71,5.72,5.51,4.96,2.72,2.72,2.71
45.68,-2.92,-5.64,-2.92,-5.64,5.65,5.47,4.92,2.74,2.73,2.73
46.13,-2.84,-5.58,-2.84,-5.58,5.59,5.42,4.88,2.74,2.74,2.74
46.60,-2.77,-5.52,-2.77,-5.52,5.53,5.38,4.85,2.76,2.76,2.76
47.06,-2.70,-5.46,-2.69,-5.46,5.46,5.33,4.82,2.77,2.77,2.77
47.53,-2.62,-5.40,-2.62,-5.40,5.40,5.29,4.80,2.79,2.79,2.79
48.01,-2.55,-5.34,-2.54,-5.34,5.34,5.24,4.77,2.80,2.80,2.80
48.49,-2.47,-5.28,-2.47,-5.28,5.28,5.19,4.75,2.82,2.82,2.82
48.97,-2.39,-5.21,-2.39,-5.22,5.22,5.14,4.74,2.83,2.83,2.83
49.46,-2.32,-5.16,-2.31,-5.16,5.15,5.09,4.72,2.84,2.84,2.85
49.96,-2.24,-5.09,-2.23,-5.09,5.09,5.04,4.71,2.85,2.86,2.86
50.46,-2.15,-5.01,-2.15,-5.02,5.02,4.99,4.71,2.87,2.87,2.87
50.96,-2.07,-4.95,-2.07,-4.95,4.95,4.93,4.70,2.89,2.89,2.89
51.47,-1.99,-4.88,-1.98,-4.88,4.89,4.88,4.70,2.90,2.90,2.90
51.99,-1.91,-4.81,-1.91,-4.81,4.82,4.82,4.70,2.91,2.91,2.91
52.51,-1.83,-4.74,-1.83,-4.75,4.75,4.77,4.70,2.92,2.92,2.92
53.03,-1.76,-4.68,-1.75,-4.68,4.68,4.71,4.70,2.93,2.93,2.93
53.56,-1.68,-4.62,-1.68,-4.62,4.62,4.65,4.70,2.94,2.94,2.95
54.10,-1.61,-4.56,-1.60,-4.56,4.55,4.59,4.70,2.95,2.95,2.96
54.64,-1.53,-4.49,-1.53,-4.49,4.49,4.54,4.71,2.97,2.96,2.97
55.18,-1.46,-4.42,-1.46,-4.43,4.43,4.48,4.71,2.97,2.97,2.97
55.74,-1.39,-4.36,-1.39,-4.37,4.37,4.43,4.71,2.98,2.98,2.98
56.29,-1.33,-4.31,-1.32,-4.31,4.31,4.38,4.71,2.99,2.99,2.99
56.86,-1.27,-4.25,-1.26,-4.26,4.26,4.34,4.72,2.99,2.99,2.99
57.42,-1.21,-4.20,-1.21,-4.20,4.20,4.30,4.72,3.00,3.00,3.00
58.00,-1.16,-4.15,-1.15,-4.16,4.16,4.27,4.72,3.00,3.00,3.00
58.58,-1.11,-4.11,-1.11,-4.11,4.11,4.25,4.71,3.00,3.00,3.01
59.16,-1.07,-4.07,-1.06,-4.07,4.07,4.23,4.71,3.00,3.00,3.01
59.76,-1.03,-4.03,-1.02,-4.03,4.03,4.22,4.70,3.01,3.01,3.01
60.35,-0.99,-3.99,-0.99,-4.00,4.00,4.21,4.69,3.01,3.01,3.01
60.96,-0.96,-3.96,-0.96,-3.97,3.97,4.20,4.67,3.01,3.01,3.01
61.57,-0.94,-3.94,-0.93,-3.94,3.95,4.20,4.65,3.01,3.01,3.01
62.18,-0.92,-3.92,-0.92,-3.93,3.93,4.20,4.63,3.01,3.01,3.01
62.80,-0.91,-3.91,-0.91,-3.91,3.91,4.19,4.61,3.01,3.01,3.01
63.43,-0.90,-3.90,-0.90,-3.90,3.90,4.19,4.58,3.00,3.00,3.01
64.07,-0.90,-3.89,-0.89,-3.89,3.89,4.19,4.55,3.00,3.00,3.00
64.71,-0.89,-3.88,-0.89,-3.89,3.89,4.18,4.52,3.00,3.00,3.00
65.35,-0.89,-3.88,-0.89,-3.89,3.89,4.17,4.48,3.00,3.00,3.00
66.01,-0.90,-3.89,-0.89,-3.89,3.89,4.17,4.44,2.99,3.00,3.00
66.67,-0.90,-3.89,-0.89,-3.89,3.89,4.16,4.39,2.99,2.99,3.00
67.33,-0.90,-3.89,-0.90,-3.90,3.89,4.14,4.35,3.00,2.99,3.00
68.01,-0.91,-3.89,-0.90,-3.90,3.90,4.13,4.30,2.99,2.99,2.99
68.69,-0.92,-3.90,-0.91,-3.90,3.90,4.11,4.25,2.99,2.99,2.99
69.37,-0.92,-3.90,-0.92,-3.91,3.91,4.10,4.20,2.99,2.99,2.99
70.07,-0.93,-3.91,-0.93,-3.91,3.92,4.08,4.14,2.99,2.99,2.99
70.77,-0.94,-3.92,-0.93,-3.92,3.92,4.06,4.09,2.99,2.99,2.99
71.48,-0.94,-3.92,-0.94,-3.93,3.93,4.04,4.03,2.99,2.99,2.99
72.19,-0.95,-3.93,-0.94,-3.93,3.93,4.02,3.97,2.99,2.99,2.99
72.91,-0.95,-3.94,-0.94,-3.94,3.93,4.00,3.92,2.99,2.99,3.00
73.64,-0.94,-3.93,-0.94,-3.94,3.93,3.97,3.86,3.00,3.00,3.00
74.38,-0.93,-3.93,-0.93,-3.93,3.93,3.95,3.80,3.01,3.01,3.01
75.12,-0.92,-3.92,-0.91,-3.92,3.93,3.93,3.74,3.01,3.01,3.01
75.87,-0.90,-3.91,-0.90,-3.92,3.92,3.90,3.69,3.02,3.02,3.02
76.63,-0.89,-3.91,-0.88,-3.91,3.91,3.88,3.63,3.02,3.03,3.03
77.40,-0.87,-3.90,-0.86,-3.90,3.90,3.85,3.58,3.03,3.04,3.04
78.17,-0.84,-3.88,-0.84,-3.89,3.88,3.82,3.53,3.05,3.04,3.05
78.95,-0.82,-3.87,-0.81,-3.87,3.87,3.80,3.47,3.05,3.06,3.06
79.74,-0.79,-3.85,-0.78,-3.85,3.86,3.77,3.43,3.07,3.07,3.07
80.54,-0.76,-3.83,-0.76,-3.84,3.84,3.74,3.38,3.09,3.08,3.08
81.35,-0.74,-3.82,-0.73,-3.82,3.83,3.71,3.33,3.09,3.09,3.09
82.16,-0.72,-3.81,-0.71,-3.81,3.81,3.68,3.29,3.10,3.10,3.10
82.98,-0.69,-3.79,-0.69,-3.80,3.80,3.66,3.24,3.11,3.11,3.11
83.81,-0.67,-3.78,-0.67,-3.79,3.79,3.63,3.20,3.12,3.12,3.12
84.65,-0.66,-3.78,-0.65,-3.78,3.78,3.60,3.17,3.12,3.13,3.13
85.50,-0.64,-3.77,-0.63,-3.77,3.77,3.57,3.13,3.13,3.14,3.14
86.35,-0.61,-3.75,-0.61,-3.76,3.76,3.54,3.10,3.16,3.15,3.15
87.22,-0.59,-3.74,-0.59,-3.75,3.76,3.51,3.07,3.17,3.17,3.16
88.09,-0.58,-3.74,-0.57,-3.74,3.75,3.48,3.04,3.18,3.18,3.17
88.97,-0.56,-3.74,-0.56,-3.74,3.75,3.45,3.01,3.19,3.19,3.19
89.86,-0.55,-3.74,-0.54,-3.74,3.74,3.42,2.99,3.19,3.19,3.20
90.76,-0.53,-3.73,-0.52,-3.73,3.73,3.39,2.96,3.20,3.21,3.21
91.66,-0.49,-3.71,-0.49,-3.72,3.71,3.36,2.94,3.22,3.22,3.23
92.58,-0.46,-3.69,-0.45,-3.69,3.69,3.33,2.93,3.23,3.23,3.24
93.51,-0.41,-3.65,-0.41,-3.66,3.66,3.30,2.91,3.25,3.25,3.25
94.44,-0.36,-3.62,-0.36,-3.62,3.61,3.27,2.90,3.26,3.26,3.27
95.39,-0.30,-3.57,-0.29,-3.58,3.57,3.24,2.89,3.27,3.27,3.28
96.34,-0.23,-3.52,-0.23,-3.52,3.51,3.21,2.88,3.29,3.28,3.30
97.30,-0.16,-3.46,-0.15,-3.46,3.46,3.18,2.87,3.30,3.30,3.31
98.28,-0.08,-3.39,-0.07,-3.39,3.40,3.15,2.86,3.32,3.33,3.32
99.26,0.00,-3.32,0.00,-3.33,3.35,3.12,2.86,3.35,3.35,3.33
100.25,0.07,-3.27,0.07,-3.27,3.30,3.09,2.86,3.37,3.37,3.35
101.25,0.12,-3.23,0.13,-3.23,3.25,3.06,2.85,3.37,3.37,3.36
102.27,0.17,-3.19,0.17,-3.20,3.20,3.02,2.85,3.37,3.37,3.37
103.29,0.20,-3.16,0.21,-3.17,3.15,2.99,2.85,3.36,3.36,3.37
104.32,0.24,-3.13,0.25,-3.13,3.11,2.96,2.86,3.35,3.36,3.38
105.37,0.30,-3.08,0.31,-3.08,3.06,2.93,2.86,3.37,3.37,3.39
106.42,0.37,-3.01,0.37,-3.02,3.02,2.90,2.86,3.39,3.39,3.39
107.48,0.42,-2.96,0.42,-2.96,2.97,2.87,2.86,3.40,3.40,3.39
108.56,0.47,-2.91,0.47,-2.91,2.93,2.84,2.87,3.40,3.40,3.39
109.64,0.51,-2.87,0.52,-2.87,2.88,2.81,2.87,3.40,3.40,3.39
110.74,0.55,-2.83,0.55,-2.83,2.83,2.78,2.87,3.39,3.39,3.39
111.85,0.59,-2.79,0.59,-2.80,2.79,2.75,2.88,3.39,3.38,3.39
112.97,0.62,-2.75,0.63,-2.75,2.75,2.72,2.88,3.37,3.38,3.38
114.10,0.66,-2.71,0.67,-2.71,2.70,2.69,2.88,3.37,3.37,3.38
115.24,0.71,-2.65,0.70,-2.67,2.66,2.66,2.88,3.38,3.36,3.37
116.39,0.73,-2.63,0.74,-2.63,2.62,2.63,2.88,3.35,3.36,3.37
117.55,0.77,-2.58,0.78,-2.58,2.58,2.60,2.87,3.35,3.36,3.36
118.73,0.82,-2.53,0.82,-2.53,2.54,2.57,2.87,3.36,3.36,3.36
119.92,0.87,-2.47,0.86,-2.49,2.50,2.54,2.86,3.38,3.37,3.35
121.12,0.89,-2.45,0.89,-2.46,2.47,2.52,2.85,3.36,3.36,3.35
122.33,0.90,-2.44,0.91,-2.44,2.44,2.49,2.84,3.34,3.35,3.35
123.55,0.92,-2.42,0.93,-2.42,2.41,2.46,2.82,3.34,3.34,3.35
124.79,0.95,-2.39,0.95,-2.40,2.38,2.43,2.81,3.34,3.34,3.35
126.03,0.98,-2.36,0.98,-2.37,2.36,2.40,2.79,3.34,3.34,3.35
127.29,1.00,-2.34,1.01,-2.34,2.34,2.37,2.77,3.34,3.35,3.35
128.57,1.03,-2.31,1.04,-2.31,2.31,2.34,2.74,3.35,3.35,3.35
129.85,1.07,-2.27,1.07,-2.28,2.29,2.31,2.71,3.36,3.36,3.35
131.15,1.09,-2.25,1.09,-2.26,2.26,2.29,2.69,3.36,3.36,3.35
132.46,1.10,-2.24,1.11,-2.24,2.24,2.26,2.66,3.34,3.35,3.35
133.79,1.13,-2.22,1.13,-2.22,2.21,2.23,2.62,3.35,3.35,3.36
135.12,1.16,-2.19,1.16,-2.19,2.18,2.20,2.59,3.35,3.35,3.36
136.48,1.19,-2.16,1.20,-2.16,2.16,2.18,2.55,3.35,3.35,3.36
137.84,1.23,-2.12,1.23,-2.13,2.13,2.15,2.51,3.36,3.36,3.36
139.22,1.25,-2.10,1.26,-2.10,2.10,2.12,2.47,3.35,3.36,3.36
140.61,1.28,-2.07,1.29,-2.07,2.07,2.09,2.43,3.36,3.36,3.36
142.02,1.32,-2.04,1.32,-2.05,2.05,2.07,2.39,3.38,3.37,3.37
143.44,1.33,-2.03,1.34,-2.02,2.03,2.04,2.35,3.37,3.38,3.37
144.87,1.36,-2.00,1.36,-2.01,2.02,2.02,2.30,3.39,3.38,3.37
146.32,1.36,-1.99,1.36,-2.00,2.02,1.99,2.26,3.38,3.38,3.36
147.78,1.35,-2.00,1.36,-2.00,2.01,1.96,2.21,3.37,3.37,3.36
149.26,1.34,-2.01,1.34,-2.01,2.01,1.94,2.17,3.35,3.35,3.36
150.75,1.33,-2.02,1.34,-2.02,2.01,1.91,2.12,3.34,3.35,3.36
152.26,1.34,-2.01,1.34,-2.01,2.00,1.89,2.08,3.34,3.34,3.36
153.78,1.35,-1.99,1.35,-2.00,1.99,1.86,2.03,3.34,3.34,3.35
155.32,1.36,-1.98,1.37,-1.98,1.97,1.84,1.99,3.34,3.34,3.35
156.88,1.40,-1.94,1.40,-1.95,1.95,1.81,1.95,3.35,3.35,3.35
158.44,1.42,-1.92,1.43,-1.92,1.92,1.79,1.90,3.34,3.35,3.35
160.03,1.46,-1.87,1.46,-1.88,1.89,1.77,1.86,3.35,3.34,3.34
161.63,1.48,-1.85,1.49,-1.85,1.85,1.74,1.82,3.33,3.34,3.34
163.24,1.51,-1.81,1.52,-1.81,1.81,1.72,1.78,3.32,3.33,3.33
164.88,1.56,-1.76,1.55,-1.77,1.77,1.69,1.74,3.33,3.32,3.33
166.53,1.58,-1.73,1.59,-1.73,1.73,1.67,1.70,3.31,3.32,3.32
168.19,1.61,-1.69,1.62,-1.69,1.69,1.65,1.66,3.30,3.31,3.31
169.87,1.65,-1.64,1.65,-1.65,1.66,1.63,1.63,3.31,3.30,3.30
171.57,1.67,-1.61,1.67,-1.62,1.63,1.60,1.59,3.30,3.30,3.29
173.29,1.68,-1.59,1.69,-1.59,1.60,1.58,1.55,3.29,3.29,3.28
175.02,1.69,-1.57,1.69,-1.57,1.58,1.56,1.52,3.27,3.27,3.27
176.77,1.69,-1.55,1.69,-1.56,1.56,1.54,1.49,3.26,3.25,3.25
178.54,1.68,-1.55,1.69,-1.55,1.55,1.52,1.46,3.23,3.23,3.24
180.32,1.67,-1.54,1.68,-1.54,1.54,1.49,1.43,3.21,3.21,3.22
182.13,1.67,-1.53,1.67,-1.53,1.52,1.47,1.40,3.20,3.20,3.21
183.95,1.67,-1.51,1.67,-1.51,1.51,1.45,1.37,3.19,3.18,3.19
185.79,1.67,-1.49,1.67,-1.50,1.50,1.43,1.34,3.17,3.17,3.17
187.65,1.67,-1.48,1.67,-1.48,1.48,1.41,1.31,3.16,3.16,3.16
189.52,1.67,-1.46,1.67,-1.46,1.47,1.39,1.29,3.14,3.14,3.14
191.42,1.67,-1.44,1.67,-1.45,1.45,1.37,1.26,3.12,3.12,3.12
193.33,1.67,-1.42,1.67,-1.43,1.43,1.35,1.24,3.10,3.10,3.10
195.27,1.67,-1.41,1.67,-1.41,1.41,1.33,1.22,3.08,3.08,3.09
197.22,1.67,-1.39,1.67,-1.39,1.39,1.31,1.20,3.06,3.06,3.07
199.19,1.67,-1.37,1.67,-1.37,1.37,1.30,1.18,3.04,3.04,3.05
201.18,1.67,-1.34,1.67,-1.35,1.35,1.28,1.16,3.02,3.02,3.02
203.19,1.67,-1.32,1.67,-1.32,1.33,1.26,1.14,3.00,3.00,3.00
205.23,1.67,-1.30,1.67,-1.30,1.31,1.24,1.12,2.98,2.98,2.98
207.28,1.67,-1.28,1.67,-1.28,1.28,1.22,1.10,2.96,2.96,2.96
209.35,1.67,-1.26,1.67,-1.26,1.26,1.21,1.09,2.93,2.93,2.94
211.44,1.67,-1.23,1.67,-1.24,1.23,1.19,1.07,2.91,2.91,2.91
213.56,1.67,-1.21,1.67,-1.21,1.21,1.17,1.06,2.88,2.88,2.89
215.69,1.67,-1.18,1.67,-1.18,1.18,1.16,1.04,2.86,2.86,2.86
217.85,1.67,-1.15,1.67,-1.16,1.16,1.14,1.03,2.83,2.83,2.83
220.03,1.67,-1.13,1.67,-1.13,1.13,1.12,1.02,2.81,2.81,2.81
222.23,1.67,-1.11,1.67,-1.11,1.11,1.11,1.00,2.78,2.78,2.79
224.45,1.67,-1.08,1.67,-1.09,1.09,1.09,0.99,2.76,2.76,2.76
226.70,1.67,-1.06,1.67,-1.06,1.06,1.08,0.98,2.74,2.74,2.74
228.96,1.67,-1.04,1.67,-1.04,1.05,1.06,0.97,2.72,2.72,2.72
231.25,1.67,-1.02,1.67,-1.03,1.03,1.05,0.96,2.70,2.70,2.70
233.57,1.67,-1.01,1.67,-1.01,1.01,1.03,0.96,2.69,2.69,2.69
235.90,1.67,-0.99,1.67,-1.00,1.00,1.02,0.95,2.67,2.67,2.67
238.26,1.67,-0.98,1.67,-0.98,0.98,1.00,0.94,2.66,2.66,2.66
240.64,1.67,-0.97,1.67,-0.97,0.97,0.99,0.93,2.65,2.65,2.65
243.05,1.67,-0.96,1.67,-0.96,0.96,0.98,0.93,2.64,2.64,2.64
245.48,1.67,-0.95,1.67,-0.95,0.95,0.96,0.92,2.63,2.63,2.63
247.93,1.67,-0.94,1.67,-0.94,0.94,0.95,0.92,2.62,2.62,2.62
250.41,1.67,-0.93,1.67,-0.93,0.93,0.94,0.91,2.61,2.61,2.61
252.92,1.67,-0.92,1.67,-0.92,0.93,0.92,0.91,2.60,2.60,2.60
255.45,1.67,-0.91,1.67,-0.91,0.92,0.91,0.90,2.59,2.59,2.59
258.00,1.67,-0.90,1.67,-0.91,0.91,0.90,0.90,2.58,2.58,2.58
260.58,1.67,-0.90,1.67,-0.90,0.90,0.89,0.90,2.57,2.57,2.58
263.19,1.67,-0.89,1.67,-0.89,0.89,0.88,0.90,2.56,2.56,2.57
265.82,1.67,-0.88,1.68,-0.88,0.87,0.87,0.89,2.55,2.55,2.56
268.48,1.68,-0.86,1.68,-0.86,0.86,0.86,0.89,2.54,2.54,2.55
271.16,1.69,-0.84,1.69,-0.85,0.85,0.84,0.89,2.54,2.54,2.54
273.87,1.69,-0.83,1.70,-0.83,0.84,0.83,0.89,2.53,2.53,2.53
276.61,1.69,-0.82,1.69,-0.82,0.83,0.82,0.89,2.53,2.52,2.52
279.38,1.68,-0.82,1.69,-0.82,0.83,0.81,0.89,2.51,2.52,2.51
282.17,1.67,-0.82,1.67,-0.83,0.83,0.81,0.90,2.51,2.51,2.50
284.99,1.65,-0.83,1.65,-0.84,0.84,0.80,0.90,2.50,2.49,2.49
287.84,1.61,-0.86,1.62,-0.86,0.86,0.79,0.90,2.48,2.48,2.48
290.72,1.58,-0.88,1.59,-0.88,0.88,0.78,0.91,2.47,2.47,2.47
293.63,1.55,-0.90,1.55,-0.91,0.90,0.77,0.91,2.46,2.46,2.46
296.57,1.52,-0.92,1.52,-0.93,0.93,0.76,0.91,2.45,2.45,2.45
299.53,1.48,-0.95,1.49,-0.95,0.95,0.75,0.92,2.43,2.44,2.44
302.53,1.45,-0.97,1.45,-0.97,0.97,0.75,0.93,2.42,2.42,2.43
305.55,1.42,-0.98,1.42,-0.99,0.98,0.74,0.93,2.41,2.40,2.41
308.61,1.39,-1.00,1.40,-1.00,0.99,0.73,0.94,2.39,2.39,2.40
311.69,1.38,-1.00,1.38,-1.00,1.00,0.73,0.95,2.38,2.38,2.39
314.81,1.37,-0.99,1.37,-1.00,1.00,0.72,0.96,2.37,2.37,2.37
317.96,1.35,-1.00,1.36,-1.00,1.00,0.71,0.97,2.35,2.36,2.36
321.14,1.34,-0.99,1.34,-1.00,1.00,0.71,0.98,2.34,2.34,2.34
324.35,1.32,-1.00,1.33,-1.00,1.00,0.70,0.99,2.32,2.33,2.33
327.59,1.31,-0.99,1.32,-0.99,1.00,0.70,1.00,2.31,2.32,2.31
330.87,1.30,-0.99,1.30,-1.00,1.00,0.69,1.02,2.31,2.30,2.30
334.18,1.28,-0.99,1.28,-1.00,1.01,0.69,1.03,2.30,2.29,2.28
337.52,1.24,-1.02,1.25,-1.02,1.02,0.68,1.04,2.27,2.27,2.27
340.90,1.21,-1.03,1.22,-1.04,1.04,0.68,1.06,2.25,2.25,2.25
344.30,1.18,-1.05,1.18,-1.05,1.05,0.68,1.08,2.24,2.23,2.24
347.75,1.14,-1.07,1.15,-1.07,1.07,0.67,1.09,2.22,2.22,2.22
351.23,1.11,-1.08,1.11,-1.09,1.09,0.67,1.11,2.20,2.20,2.20
354.74,1.08,-1.10,1.08,-1.10,1.10,0.67,1.13,2.19,2.18,2.19
358.28,1.05,-1.11,1.06,-1.11,1.11,0.67,1.15,2.16,2.16,2.17
361.87,1.03,-1.11,1.03,-1.12,1.11,0.66,1.17,2.14,2.14,2.15
365.49,1.01,-1.12,1.02,-1.12,1.10,0.66,1.19,2.12,2.12,2.14
369.14,1.01,-1.10,1.01,-1.11,1.09,0.66,1.22,2.11,2.11,2.12
372.83,1.01,-1.09,1.02,-1.09,1.08,0.66,1.24,2.09,2.10,2.11
376.56,1.02,-1.06,1.03,-1.06,1.06,0.66,1.26,2.09,2.09,2.09
380.33,1.03,-1.03,1.03,-1.04,1.05,0.66,1.29,2.08,2.08,2.07
384.13,1.03,-1.02,1.03,-1.02,1.04,0.66,1.31,2.07,2.07,2.06
387.97,1.02,-1.01,1.03,-1.01,1.03,0.66,1.34,2.05,2.06,2.04
391.85,1.01,-1.01,1.01,-1.02,1.03,0.67,1.36,2.04,2.04,2.03
395.77,0.98,-1.03,0.99,-1.03,1.04,0.67,1.39,2.02,2.02,2.02
399.73,0.95,-1.05,0.96,-1.05,1.05,0.67,1.42,2.01,2.01,2.01
403.72,0.92,-1.07,0.92,-1.07,1.07,0.68,1.44,1.99,1.99,2.00
407.76,0.89,-1.09,0.89,-1.09,1.09,0.68,1.47,1.99,1.98,1.99
411.84,0.85,-1.11,0.86,-1.11,1.11,0.69,1.50,1.97,1.97,1.97
415.96,0.82,-1.13,0.82,-1.14,1.13,0.69,1.53,1.96,1.96,1.96
420.12,0.79,-1.15,0.79,-1.15,1.15,0.70,1.56,1.94,1.94,1.95
424.32,0.76,-1.17,0.77,-1.17,1.16,0.70,1.58,1.93,1.93,1.94
428.56,0.75,-1.17,0.75,-1.18,1.17,0.71,1.61,1.92,1.92,1.93
432.85,0.73,-1.17,0.73,-1.18,1.18,0.72,1.64,1.91,1.91,1.91
437.18,0.71,-1.18,0.72,-1.18,1.18,0.73,1.67,1.90,1.90,1.90
441.55,0.70,-1.18,0.70,-1.18,1.18,0.74,1.69,1.89,1.89,1.89
445.96,0.68,-1.18,0.68,-1.18,1.19,0.75,1.72,1.87,1.87,1.87
450.42,0.66,-1.18,0.66,-1.19,1.19,0.76,1.74,1.85,1.86,1.85
454.93,0.64,-1.19,0.64,-1.19,1.20,0.78,1.76,1.84,1.84,1.84
459.48,0.61,-1.20,0.62,-1.20,1.20,0.79,1.78,1.82,1.82,1.82
464.07,0.59,-1.20,0.59,-1.21,1.21,0.81,1.80,1.80,1.80,1.80
468.71,0.56,-1.21,0.56,-1.22,1.22,0.82,1.82,1.78,1.78,1.78
473.40,0.52,-1.24,0.53,-1.23,1.23,0.84,1.83,1.76,1.76,1.77
478.13,0.50,-1.24,0.50,-1.25,1.24,0.86,1.85,1.75,1.75,1.75
482.91,0.47,-1.26,0.48,-1.26,1.26,0.88,1.86,1.73,1.74,1.74
487.74,0.45,-1.26,0.45,-1.27,1.28,0.90,1.87,1.73,1.73,1.72
492.62,0.42,-1.28,0.42,-1.29,1.29,0.92,1.88,1.72,1.72,1.71
497.55,0.39,-1.30,0.39,-1.31,1.31,0.95,1.88,1.70,1.70,1.70
502.52,0.35,-1.33,0.36,-1.33,1.32,0.97,1.89,1.68,1.68,1.69
507.55,0.32,-1.35,0.33,-1.35,1.33,1.00,1.89,1.66,1.66,1.68
512.62,0.30,-1.35,0.30,-1.36,1.35,1.03,1.88,1.65,1.65,1.66
517.75,0.28,-1.36,0.28,-1.36,1.36,1.06,1.88,1.65,1.65,1.65
522.93,0.26,-1.36,0.26,-1.36,1.38,1.10,1.87,1.64,1.64,1.63
528.16,0.23,-1.37,0.23,-1.38,1.39,1.14,1.87,1.62,1.62,1.61
533.44,0.19,-1.39,0.19,-1.40,1.40,1.17,1.86,1.60,1.60,1.59
