frequency,raw,error,smoothed,error_smoothed,equalization,parametric_eq,fixed_band_eq,equalized_raw,equalized_smoothed,target
20.00,-13.40,-11.90,-13.40,-11.90,6.00,5.83,2.82,-7.40,-7.40,-1.49
20.20,-13.29,-11.88,-13.29,-11.89,6.00,5.85,2.89,-7.29,-7.29,-1.40
20.40,-13.19,-11.87,-13.19,-11.87,6.00,5.88,2.98,-7.19,-7.19,-1.31
20.61,-13.08,-11.83,-13.08,-11.85,6.00,5.90,3.06,-7.08,-7.08,-1.25
20.81,-12.98,-11.82,-12.98,-11.82,6.00,5.92,3.14,-6.98,-6.98,-1.15
21.02,-12.87,-11.79,-12.87,-11.78,6.00,5.93,3.23,-6.87,-6.87,-1.08
21.23,-12.76,-11.74,-12.76,-11.75,6.00,5.95,3.32,-6.76,-6.76,-1.02
21.44,-12.66,-11.70,-12.65,-11.70,6.00,5.97,3.42,-6.66,-6.65,-0.96
21.66,-12.55,-11.66,-12.55,-11.66,6.00,5.98,3.51,-6.55,-6.55,-0.89
21.87,-12.44,-11.60,-12.44,-11.60,6.00,6.00,3.61,-6.44,-6.44,-0.84
22.09,-12.34,-11.55,-12.33,-11.55,6.00,6.01,3.71,-6.34,-6.33,-0.79
22.31,-12.23,-11.49,-12.23,-11.49,6.00,6.02,3.81,-6.23,-6.23,-0.74
22.54,-12.13,-11.44,-12.12,-11.43,6.00,6.03,3.92,-6.13,-6.12,-0.69
22.76,-12.02,-11.37,-12.02,-11.37,6.00,6.04,4.03,-6.02,-6.02,-0.65
22.99,-11.91,-11.30,-11.91,-11.31,6.00,6.05,4.14,-5.91,-5.91,-0.61
23.22,-11.81,-11.24,-11.81,-11.24,6.00,6.06,4.25,-5.81,-5.81,-0.57
23.45,-11.70,-11.18,-11.70,-11.17,6.00,6.07,4.37,-5.70,-5.70,-0.52
23.69,-11.59,-11.11,-11.59,-11.11,6.00,6.07,4.49,-5.59,-5.59,-0.48
23.92,-11.48,-11.04,-11.48,-11.05,6.00,6.08,4.61,-5.48,-5.48,-0.44
24.16,-11.38,-10.99,-11.38,-10.98,6.00,6.08,4.73,-5.38,-5.38,-0.39
24.40,-11.27,-10.92,-11.27,-10.92,6.00,6.08,4.86,-5.27,-5.27,-0.35
24.65,-11.17,-10.85,-11.16,-10.85,6.00,6.09,4.99,-5.17,-5.16,-0.32
24.89,-11.06,-10.78,-11.06,-10.78,6.00,6.09,5.11,-5.06,-5.06,-0.28
25.14,-10.96,-10.72,-10.96,-10.72,6.00,6.09,5.24,-4.96,-4.96,-0.24
25.39,-10.86,-10.65,-10.85,-10.65,6.00,6.09,5.38,-4.86,-4.85,-0.20
25.65,-10.75,-10.59,-10.75,-10.59,6.00,6.08,5.51,-4.75,-4.75,-0.16
25.91,-10.65,-10.52,-10.65,-10.51,6.00,6.08,5.64,-4.65,-4.65,-0.13
26.16,-10.54,-10.44,-10.54,-10.44,6.00,6.08,5.77,-4.54,-4.54,-0.09
26.43,-10.44,-10.37,-10.44,-10.38,6.00,6.07,5.90,-4.44,-4.44,-0.07
26.69,-10.34,-10.31,-10.34,-10.31,6.00,6.07,6.03,-4.34,-4.34,-0.03
26.96,-10.24,-10.25,-10.24,-10.25,6.00,6.06,6.16,-4.24,-4.24,0.01
27.23,-10.14,-10.18,-10.14,-10.18,6.00,6.06,6.29,-4.14,-4.14,0.04
27.50,-10.04,-10.12,-10.04,-10.12,6.00,6.05,6.41,-4.04,-4.04,0.08
27.77,-9.94,-10.05,-9.94,-10.05,6.00,6.04,6.53,-3.94,-3.94,0.11
28.05,-9.84,-9.99,-9.84,-9.98,6.00,6.04,6.64,-3.84,-3.84,0.15
28.33,-9.74,-9.91,-9.74,-9.91,6.00,6.03,6.75,-3.74,-3.74,0.17
28.62,-9.64,-9.85,-9.64,-9.85,6.00,6.02,6.85,-3.64,-3.64,0.21
28.90,-9.54,-9.79,-9.54,-9.79,6.00,6.02,6.95,-3.54,-3.54,0.25
29.19,-9.45,-9.73,-9.44,-9.73,6.00,6.01,7.04,-3.45,-3.44,0.28
29.48,-9.35,-9.67,-9.35,-9.67,6.00,6.00,7.12,-3.35,-3.35,0.33
29.78,-9.25,-9.59,-9.25,-9.60,6.00,6.00,7.19,-3.25,-3.25,0.35
30.08,-9.16,-9.54,-9.16,-9.54,6.00,5.99,7.26,-3.16,-3.16,0.38
30.38,-9.07,-9.48,-9.07,-9.48,6.00,5.99,7.31,-3.07,-3.07,0.41
30.68,-8.98,-9.43,-8.98,-9.43,6.00,5.98,7.35,-2.98,-2.98,0.45
30.99,-8.89,-9.36,-8.89,-9.37,6.00,5.98,7.38,-2.89,-2.89,0.47
31.30,-8.81,-9.32,-8.81,-9.31,6.00,5.98,7.41,-2.81,-2.81,0.51
31.61,-8.72,-9.26,-8.72,-9.25,6.00,5.98,7.42,-2.72,-2.72,0.54
31.93,-8.63,-9.20,-8.63,-9.20,6.00,5.97,7.42,-2.63,-2.63,0.57
32.24,-8.55,-9.13,-8.55,-9.14,6.00,5.97,7.41,-2.55,-2.55,0.59
32.57,-8.47,-9.08,-8.47,-9.09,6.00,5.97,7.40,-2.47,-2.47,0.61
32.89,-8.40,-9.05,-8.39,-9.04,6.00,5.98,7.37,-2.40,-2.39,0.65
33.22,-8.32,-8.99,-8.32,-8.99,6.00,5.98,7.33,-2.32,-2.32,0.67
33.55,-8.24,-8.93,-8.24,-8.93,6.00,5.98,7.29,-2.24,-2.24,0.69
33.89,-8.17,-8.88,-8.16,-8.88,6.00,5.99,7.24,-2.17,-2.16,0.71
34.23,-8.09,-8.83,-8.09,-8.82,6.00,5.99,7.18,-2.09,-2.09,0.74
34.57,-8.01,-8.76,-8.01,-8.77,6.00,6.00,7.12,-2.01,-2.01,0.75
34.92,-7.94,-8.70,-7.94,-8.71,6.00,6.00,7.06,-1.94,-1.94,0.76
35.27,-7.87,-8.66,-7.87,-8.65,6.00,6.01,6.99,-1.87,-1.87,0.79
35.62,-7.80,-8.60,-7.80,-8.60,6.00,6.02,6.91,-1.80,-1.80,0.80
35.97,-7.73,-8.53,-7.73,-8.54,6.00,6.03,6.84,-1.73,-1.73,0.81
36.33,-7.67,-8.49,-7.66,-8.49,6.00,6.04,6.76,-1.67,-1.66,0.82
36.70,-7.60,-8.43,-7.60,-8.43,6.00,6.05,6.68,-1.60,-1.60,0.83
37.06,-7.53,-8.37,-7.53,-8.37,6.00,6.06,6.60,-1.53,-1.53,0.84
37.43,-7.46,-8.32,-7.46,-8.31,6.00,6.07,6.52,-1.46,-1.46,0.86
37.81,-7.39,-8.25,-7.39,-8.26,6.00,6.08,6.44,-1.39,-1.39,0.87
38.19,-7.33,-8.20,-7.33,-8.20,6.00,6.09,6.37,-1.33,-1.33,0.87
38.57,-7.26,-8.14,-7.26,-8.14,6.00,6.10,6.29,-1.26,-1.26,0.88
38.95,-7.20,-8.07,-7.19,-8.07,6.00,6.11,6.22,-1.20,-1.19,0.88
39.34,-7.13,-8.00,-7.13,-8.01,6.00,6.12,6.15,-1.13,-1.13,0.87
39.74,-7.06,-7.94,-7.06,-7.94,6.00,6.12,6.08,-1.06,-1.06,0.88
40.14,-7.00,-7.88,-7.00,-7.87,6.00,6.13,6.02,-1.00,-1.00,0.88
40.54,-6.93,-7.80,-6.93,-7.81,6.00,6.14,5.96,-0.93,-0.93,0.87
40.94,-6.87,-7.75,-6.87,-7.74,6.00,6.15,5.90,-0.87,-0.87,0.88
41.35,-6.81,-7.69,-6.81,-7.69,6.00,6.15,5.84,-0.81,-0.81,0.88
41.76,-6.75,-7.63,-6.75,-7.63,6.00,6.16,5.79,-0.75,-0.75,0.88
42.18,-6.70,-7.59,-6.70,-7.58,6.00,6.16,5.75,-0.70,-0.70,0.89
42.60,-6.64,-7.52,-6.64,-7.53,6.00,6.17,5.70,-0.64,-0.64,0.89
43.03,-6.59,-7.48,-6.59,-7.47,6.00,6.17,5.67,-0.59,-0.59,0.89
43.46,-6.53,-7.42,-6.53,-7.41,6.00,6.17,5.63,-0.53,-0.53,0.89
43.90,-6.47,-7.34,-6.47,-7.35,6.00,6.17,5.60,-0.47,-0.47,0.87
44.33,-6.42,-7.29,-6.42,-7.29,6.00,6.17,5.58,-0.42,-0.42,0.87
44.78,-6.37,-7.23,-6.36,-7.23,6.00,6.17,5.55,-0.37,-0.36,0.86
45.23,-6.31,-7.17,-6.31,-7.17,6.00,6.17,5.54,-0.31,-0.31,0.86
45.68,-6.26,-7.11,-6.26,-7.11,6.00,6.16,5.52,-0.26,-0.26,0.85
46.13,-6.21,-7.05,-6.20,-7.05,6.00,6.16,5.51,-0.21,-0.20,0.85
46.60,-6.15,-7.00,-6.15,-7.00,6.00,6.15,5.51,-0.15,-0.15,0.85
47.06,-6.10,-6.95,-6.10,-6.95,6.00,6.14,5.51,-0.10,-0.10,0.86
47.53,-6.05,-6.90,-6.04,-6.90,6.00,6.13,5.51,-0.05,-0.04,0.85
48.01,-5.99,-6.85,-5.99,-6.85,6.00,6.12,5.52,0.01,0.01,0.86
48.49,-5.95,-6.79,-5.95,-6.79,6.00,6.11,5.53,0.05,0.05,0.85
48.97,-5.90,-6.74,-5.90,-6.74,6.00,6.10,5.54,0.10,0.10,0.84
49.46,-5.86,-6.69,-5.86,-6.69,6.00,6.08,5.56,0.14,0.14,0.83
49.96,-5.81,-6.63,-5.81,-6.64,6.00,6.07,5.58,0.19,0.19,0.82
50.46,-5.76,-6.61,-5.76,-6.60,6.00,6.05,5.60,0.24,0.24,0.85
50.96,-5.71,-6.56,-5.71,-6.55,6.00,6.04,5.62,0.29,0.29,0.85
51.47,-5.66,-6.50,-5.66,-6.51,6.00,6.02,5.65,0.34,0.34,0.84
51.99,-5.61,-6.46,-5.61,-6.47,6.00,6.00,5.68,0.39,0.39,0.85
52.51,-5.57,-6.43,-5.57,-6.43,6.00,5.98,5.71,0.43,0.43,0.86
53.03,-5.54,-6.41,-5.53,-6.40,6.00,5.95,5.74,0.46,0.47,0.87
53.56,-5.49,-6.36,-5.49,-6.37,6.00,5.93,5.77,0.51,0.51,0.88
54.10,-5.44,-6.31,-5.44,-6.32,6.00,5.91,5.80,0.56,0.56,0.88
54.64,-5.40,-6.28,-5.40,-6.28,6.00,5.88,5.83,0.61,0.61,0.89
55.18,-5.35,-6.23,-5.35,-6.23,6.01,5.85,5.86,0.66,0.66,0.89
55.74,-5.30,-6.18,-5.30,-6.18,6.01,5.83,5.89,0.71,0.71,0.88
56.29,-5.25,-6.13,-5.25,-6.13,6.01,5.80,5.91,0.76,0.76,0.88
56.86,-5.20,-6.08,-5.20,-6.08,6.00,5.77,5.94,0.80,0.80,0.88
57.42,-5.16,-6.03,-5.16,-6.03,5.98,5.74,5.96,0.83,0.83,0.87
58.00,-5.12,-5.99,-5.12,-5.98,5.96,5.71,5.98,0.84,0.85,0.87
58.58,-5.07,-5.93,-5.07,-5.94,5.93,5.67,5.99,0.86,0.86,0.86
59.16,-5.03,-5.89,-5.03,-5.89,5.89,5.64,6.00,0.86,0.86,0.86
59.76,-4.98,-5.84,-4.98,-5.83,5.84,5.61,6.00,0.86,0.86,0.86
60.35,-4.93,-5.77,-4.93,-5.77,5.78,5.57,6.00,0.85,0.85,0.84
60.96,-4.88,-5.71,-4.88,-5.71,5.71,5.54,5.99,0.83,0.83,0.83
61.57,-4.84,-5.64,-4.84,-5.64,5.64,5.50,5.98,0.80,0.81,0.80
62.18,-4.79,-5.57,-4.79,-5.57,5.57,5.46,5.96,0.78,0.78,0.78
62.80,-4.74,-5.51,-4.74,-5.50,5.50,5.43,5.94,0.77,0.77,0.77
63.43,-4.68,-5.42,-4.68,-5.43,5.43,5.39,5.90,0.76,0.76,0.75
64.07,-4.62,-5.36,-4.62,-5.36,5.37,5.35,5.87,0.75,0.75,0.74
64.71,-4.57,-5.30,-4.57,-5.30,5.30,5.31,5.82,0.73,0.73,0.73
65.35,-4.52,-5.24,-4.52,-5.24,5.24,5.27,5.78,0.72,0.72,0.72
66.01,-4.47,-5.18,-4.46,-5.18,5.18,5.23,5.72,0.71,0.71,0.72
66.67,-4.41,-5.11,-4.41,-5.12,5.12,5.19,5.66,0.71,0.71,0.71
67.33,-4.35,-5.05,-4.35,-5.06,5.06,5.15,5.60,0.71,0.71,0.71
68.01,-4.30,-5.00,-4.30,-5.00,5.01,5.10,5.53,0.71,0.71,0.71
68.69,-4.25,-4.95,-4.25,-4.95,4.95,5.06,5.45,0.70,0.71,0.71
69.37,-4.20,-4.90,-4.20,-4.90,4.90,5.02,5.38,0.70,0.71,0.70
70.07,-4.14,-4.84,-4.14,-4.85,4.85,4.97,5.30,0.71,0.71,0.70
70.77,-4.09,-4.80,-4.09,-4.79,4.80,4.93,5.21,0.71,0.71,0.71
71.48,-4.04,-4.75,-4.04,-4.75,4.74,4.89,5.13,0.70,0.70,0.71
72.19,-3.99,-4.69,-3.99,-4.70,4.69,4.84,5.04,0.70,0.70,0.70
72.91,-3.95,-4.65,-3.94,-4.64,4.63,4.80,4.96,0.68,0.69,0.70
73.64,-3.89,-4.57,-3.89,-4.58,4.57,4.75,4.87,0.69,0.69,0.68
74.38,-3.83,-4.52,-3.83,-4.52,4.52,4.70,4.78,0.69,0.69,0.69
75.12,-3.78,-4.46,-3.77,-4.46,4.46,4.66,4.69,0.68,0.69,0.68
75.87,-3.72,-4.40,-3.72,-4.40,4.41,4.61,4.60,0.69,0.69,0.69
76.63,-3.67,-4.35,-3.67,-4.35,4.36,4.56,4.52,0.69,0.68,0.68
77.40,-3.63,-4.31,-3.63,-4.30,4.31,4.52,4.43,0.68,0.68,0.68
78.17,-3.59,-4.26,-3.58,-4.26,4.27,4.47,4.35,0.68,0.68,0.67
78.95,-3.54,-4.22,-3.54,-4.23,4.23,4.42,4.26,0.69,0.69,0.68
79.74,-3.50,-4.19,-3.50,-4.19,4.19,4.38,4.18,0.69,0.69,0.69
80.54,-3.46,-4.16,-3.46,-4.16,4.15,4.33,4.10,0.70,0.70,0.70
81.35,-3.42,-4.13,-3.42,-4.13,4.12,4.28,4.02,0.70,0.70,0.71
82.16,-3.37,-4.09,-3.37,-4.09,4.09,4.23,3.95,0.72,0.72,0.72
82.98,-3.31,-4.06,-3.31,-4.05,4.05,4.18,3.87,0.75,0.74,0.75
83.81,-3.26,-4.02,-3.26,-4.02,4.02,4.14,3.80,0.77,0.77,0.76
84.65,-3.21,-3.97,-3.21,-3.99,3.99,4.09,3.73,0.79,0.78,0.77
85.50,-3.17,-3.97,-3.17,-3.96,3.97,4.04,3.67,0.80,0.80,0.80
86.35,-3.13,-3.95,-3.13,-3.94,3.94,3.99,3.60,0.82,0.82,0.82
87.22,-3.09,-3.92,-3.09,-3.92,3.93,3.94,3.54,0.84,0.83,0.83
88.09,-3.06,-3.90,-3.06,-3.90,3.91,3.89,3.49,0.85,0.85,0.84
88.97,-3.03,-3.89,-3.03,-3.89,3.89,3.85,3.43,0.86,0.86,0.86
89.86,-3.01,-3.88,-3.01,-3.88,3.88,3.80,3.38,0.87,0.87,0.87
90.76,-2.99,-3.85,-2.99,-3.86,3.86,3.75,3.33,0.87,0.86,0.86
91.66,-2.98,-3.85,-2.97,-3.84,3.83,3.70,3.28,0.85,0.86,0.88
92.58,-2.95,-3.81,-2.94,-3.81,3.80,3.65,3.23,0.85,0.85,0.86
93.51,-2.91,-3.77,-2.91,-3.77,3.76,3.60,3.19,0.85,0.85,0.86
94.44,-2.87,-3.72,-2.87,-3.72,3.72,3.56,3.15,0.85,0.85,0.85
95.39,-2.84,-3.67,-2.84,-3.67,3.67,3.51,3.11,0.83,0.84,0.84
96.34,-2.81,-3.62,-2.81,-3.62,3.62,3.46,3.07,0.81,0.81,0.81
97.30,-2.78,-3.56,-2.78,-3.56,3.56,3.41,3.04,0.78,0.78,0.78
98.28,-2.76,-3.51,-2.75,-3.50,3.51,3.36,3.01,0.75,0.75,0.75
99.26,-2.73,-3.45,-2.73,-3.44,3.45,3.32,2.98,0.72,0.72,0.72
100.25,-2.70,-3.38,-2.70,-3.39,3.39,3.27,2.95,0.69,0.69,0.68
101.25,-2.68,-3.32,-2.68,-3.33,3.33,3.22,2.92,0.65,0.65,0.64
102.27,-2.67,-3.28,-2.66,-3.27,3.27,3.17,2.90,0.61,0.61,0.61
103.29,-2.65,-3.21,-2.65,-3.22,3.22,3.12,2.87,0.57,0.57,0.56
104.32,-2.63,-3.16,-2.63,-3.16,3.16,3.08,2.85,0.53,0.53,0.54
105.37,-2.61,-3.10,-2.61,-3.10,3.10,3.03,2.83,0.49,0.49,0.50
106.42,-2.58,-3.04,-2.58,-3.05,3.04,2.98,2.81,0.46,0.46,0.47
107.48,-2.56,-2.99,-2.56,-2.98,2.98,2.94,2.79,0.43,0.43,0.43
108.56,-2.53,-2.92,-2.53,-2.92,2.93,2.89,2.77,0.40,0.39,0.39
109.64,-2.51,-2.86,-2.51,-2.86,2.87,2.84,2.75,0.36,0.36,0.35
110.74,-2.49,-2.81,-2.49,-2.81,2.80,2.80,2.73,0.32,0.32,0.32
111.85,-2.46,-2.76,-2.46,-2.75,2.74,2.75,2.72,0.29,0.28,0.30
112.97,-2.43,-2.68,-2.42,-2.68,2.68,2.70,2.70,0.25,0.26,0.25
114.10,-2.39,-2.62,-2.39,-2.62,2.62,2.66,2.68,0.23,0.23,0.23
115.24,-2.34,-2.54,-2.35,-2.56,2.55,2.61,2.66,0.22,0.20,0.20
116.39,-2.32,-2.51,-2.31,-2.50,2.49,2.57,2.64,0.17,0.18,0.19
117.55,-2.28,-2.44,-2.27,-2.43,2.43,2.52,2.61,0.15,0.16,0.16
118.73,-2.22,-2.36,-2.22,-2.37,2.37,2.48,2.59,0.15,0.15,0.14
119.92,-2.16,-2.29,-2.17,-2.30,2.31,2.43,2.57,0.15,0.14,0.13
121.12,-2.13,-2.25,-2.13,-2.25,2.26,2.39,2.54,0.13,0.13,0.12
122.33,-2.10,-2.20,-2.10,-2.21,2.21,2.34,2.51,0.11,0.11,0.10
123.55,-2.08,-2.17,-2.07,-2.16,2.17,2.30,2.48,0.09,0.09,0.10
124.79,-2.05,-2.13,-2.05,-2.13,2.13,2.25,2.45,0.08,0.08,0.08
126.03,-2.02,-2.08,-2.03,-2.10,2.09,2.21,2.42,0.07,0.06,0.07
127.29,-2.01,-2.07,-2.00,-2.06,2.05,2.16,2.39,0.05,0.05,0.06
128.57,-1.99,-2.03,-1.98,-2.02,2.02,2.12,2.35,0.03,0.04,0.04
129.85,-1.96,-1.98,-1.96,-1.99,1.99,2.08,2.31,0.03,0.03,0.02
131.15,-1.94,-1.95,-1.94,-1.95,1.96,2.03,2.27,0.02,0.02,0.01
132.46,-1.93,-1.93,-1.92,-1.92,1.93,1.99,2.23,-0.00,0.01,-0.00
133.79,-1.90,-1.89,-1.91,-1.89,1.89,1.95,2.19,-0.01,-0.01,-0.00
135.12,-1.89,-1.85,-1.89,-1.87,1.85,1.90,2.14,-0.03,-0.03,-0.04
136.48,-1.88,-1.84,-1.87,-1.83,1.81,1.86,2.10,-0.06,-0.05,-0.04
137.84,-1.84,-1.78,-1.84,-1.78,1.77,1.82,2.05,-0.07,-0.07,-0.06
139.22,-1.81,-1.72,-1.81,-1.73,1.72,1.78,2.00,-0.08,-0.09,-0.09
140.61,-1.78,-1.67,-1.77,-1.67,1.67,1.73,1.95,-0.10,-0.10,-0.11
142.02,-1.73,-1.61,-1.74,-1.62,1.62,1.69,1.90,-0.10,-0.11,-0.11
143.44,-1.71,-1.58,-1.70,-1.57,1.57,1.65,1.85,-0.14,-0.13,-0.13
144.87,-1.67,-1.51,-1.67,-1.52,1.52,1.61,1.80,-0.15,-0.15,-0.16
146.32,-1.66,-1.47,-1.65,-1.48,1.47,1.57,1.74,-0.18,-0.18,-0.19
147.78,-1.63,-1.44,-1.63,-1.43,1.43,1.53,1.69,-0.20,-0.20,-0.19
149.26,-1.62,-1.40,-1.62,-1.39,1.39,1.48,1.64,-0.22,-0.22,-0.22
150.75,-1.61,-1.35,-1.61,-1.36,1.36,1.44,1.58,-0.25,-0.25,-0.26
152.26,-1.61,-1.32,-1.61,-1.32,1.33,1.40,1.53,-0.28,-0.28,-0.29
153.78,-1.62,-1.31,-1.61,-1.30,1.31,1.36,1.48,-0.31,-0.31,-0.31
155.32,-1.62,-1.27,-1.62,-1.28,1.28,1.32,1.42,-0.34,-0.34,-0.34
156.88,-1.63,-1.26,-1.63,-1.26,1.26,1.28,1.37,-0.37,-0.37,-0.37
158.44,-1.64,-1.24,-1.64,-1.24,1.23,1.24,1.32,-0.41,-0.41,-0.40
160.03,-1.65,-1.21,-1.65,-1.21,1.20,1.20,1.26,-0.44,-0.44,-0.44
161.63,-1.65,-1.18,-1.65,-1.18,1.17,1.16,1.21,-0.47,-0.47,-0.47
163.24,-1.64,-1.14,-1.64,-1.14,1.14,1.12,1.16,-0.50,-0.50,-0.50
164.88,-1.63,-1.11,-1.63,-1.10,1.10,1.08,1.11,-0.53,-0.53,-0.52
166.53,-1.61,-1.06,-1.61,-1.06,1.05,1.04,1.06,-0.56,-0.56,-0.55
168.19,-1.59,-1.00,-1.59,-1.00,1.00,1.00,1.00,-0.59,-0.58,-0.59
169.87,-1.56,-0.95,-1.56,-0.95,0.95,0.96,0.95,-0.61,-0.61,-0.61
171.57,-1.53,-0.89,-1.53,-0.89,0.89,0.92,0.90,-0.64,-0.64,-0.64
173.29,-1.50,-0.84,-1.49,-0.84,0.83,0.88,0.85,-0.67,-0.66,-0.66
175.02,-1.46,-0.78,-1.46,-0.77,0.77,0.84,0.81,-0.68,-0.68,-0.68
176.77,-1.42,-0.70,-1.43,-0.71,0.72,0.80,0.76,-0.70,-0.71,-0.71
178.54,-1.40,-0.66,-1.39,-0.66,0.66,0.76,0.71,-0.74,-0.73,-0.74
180.32,-1.37,-0.61,-1.37,-0.61,0.61,0.72,0.66,-0.76,-0.75,-0.76
182.13,-1.34,-0.58,-1.34,-0.57,0.57,0.68,0.61,-0.77,-0.77,-0.76
183.95,-1.31,-0.52,-1.31,-0.53,0.53,0.64,0.57,-0.78,-0.78,-0.78
185.79,-1.29,-0.49,-1.29,-0.49,0.50,0.60,0.52,-0.79,-0.79,-0.80
187.65,-1.28,-0.47,-1.28,-0.47,0.48,0.56,0.48,-0.80,-0.80,-0.81
189.52,-1.28,-0.45,-1.28,-0.46,0.47,0.52,0.43,-0.81,-0.81,-0.82
191.42,-1.29,-0.45,-1.29,-0.45,0.46,0.48,0.39,-0.83,-0.83,-0.84
193.33,-1.30,-0.45,-1.30,-0.45,0.45,0.44,0.34,-0.85,-0.85,-0.85
195.27,-1.31,-0.45,-1.31,-0.45,0.44,0.40,0.30,-0.87,-0.87,-0.86
197.22,-1.33,-0.46,-1.32,-0.44,0.43,0.36,0.26,-0.90,-0.89,-0.87
199.19,-1.32,-0.42,-1.32,-0.43,0.42,0.32,0.21,-0.90,-0.90,-0.90
201.18,-1.31,-0.40,-1.31,-0.40,0.40,0.29,0.17,-0.91,-0.91,-0.90
203.19,-1.30,-0.38,-1.29,-0.38,0.37,0.25,0.13,-0.92,-0.92,-0.91
205.23,-1.27,-0.33,-1.27,-0.35,0.35,0.21,0.09,-0.92,-0.93,-0.93
207.28,-1.25,-0.32,-1.25,-0.31,0.31,0.17,0.05,-0.94,-0.94,-0.93
209.35,-1.22,-0.27,-1.22,-0.27,0.28,0.13,0.01,-0.94,-0.95,-0.95
211.44,-1.20,-0.23,-1.20,-0.23,0.24,0.10,-0.02,-0.96,-0.96,-0.97
213.56,-1.17,-0.20,-1.16,-0.19,0.20,0.06,-0.06,-0.97,-0.97,-0.97
215.69,-1.13,-0.16,-1.13,-0.16,0.15,0.03,-0.10,-0.98,-0.98,-0.97
217.85,-1.09,-0.11,-1.09,-0.11,0.11,-0.01,-0.13,-0.98,-0.99,-0.98
220.03,-1.06,-0.06,-1.05,-0.06,0.06,-0.04,-0.16,-1.00,-0.99,-0.99
222.23,-1.01,-0.01,-1.01,-0.01,0.01,-0.08,-0.20,-1.00,-1.00,-1.00
224.45,-0.95,0.04,-0.95,0.04,-0.04,-0.11,-0.23,-0.99,-1.00,-0.99
226.70,-0.91,0.09,-0.90,0.09,-0.09,-0.14,-0.26,-1.00,-0.99,-1.00
228.96,-0.85,0.15,-0.86,0.14,-0.13,-0.17,-0.28,-0.98,-0.99,-1.00
231.25,-0.82,0.18,-0.82,0.18,-0.17,-0.20,-0.31,-0.99,-0.99,-1.00
233.57,-0.79,0.22,-0.79,0.22,-0.21,-0.23,-0.33,-1.00,-1.00,-1.00
235.90,-0.77,0.24,-0.77,0.24,-0.24,-0.26,-0.35,-1.01,-1.01,-1.01
238.26,-0.75,0.28,-0.75,0.27,-0.28,-0.28,-0.37,-1.02,-1.02,-1.03
240.64,-0.73,0.29,-0.73,0.29,-0.31,-0.31,-0.39,-1.03,-1.04,-1.02
243.05,-0.71,0.32,-0.70,0.32,-0.33,-0.33,-0.41,-1.04,-1.04,-1.03
245.48,-0.68,0.34,-0.67,0.35,-0.36,-0.35,-0.42,-1.04,-1.03,-1.02
247.93,-0.63,0.40,-0.64,0.39,-0.39,-0.37,-0.43,-1.01,-1.02,-1.03
250.41,-0.61,0.42,-0.60,0.42,-0.41,-0.39,-0.44,-1.02,-1.01,-1.03
252.92,-0.57,0.45,-0.57,0.44,-0.43,-0.41,-0.45,-1.00,-1.01,-1.02
255.45,-0.55,0.45,-0.55,0.46,-0.45,-0.42,-0.45,-1.00,-1.00,-1.00
258.00,-0.53,0.47,-0.52,0.47,-0.47,-0.43,-0.46,-1.00,-1.00,-1.00
260.58,-0.50,0.49,-0.50,0.49,-0.49,-0.44,-0.46,-0.99,-0.99,-0.99
263.19,-0.47,0.49,-0.47,0.50,-0.51,-0.45,-0.46,-0.98,-0.98,-0.96
265.82,-0.43,0.53,-0.44,0.52,-0.53,-0.46,-0.45,-0.95,-0.96,-0.96
268.48,-0.41,0.53,-0.40,0.54,-0.54,-0.46,-0.45,-0.95,-0.94,-0.94
271.16,-0.38,0.55,-0.37,0.55,-0.55,-0.46,-0.44,-0.93,-0.92,-0.92
273.87,-0.34,0.57,-0.34,0.56,-0.56,-0.46,-0.43,-0.90,-0.91,-0.91
276.61,-0.32,0.57,-0.32,0.57,-0.56,-0.46,-0.43,-0.88,-0.89,-0.89
279.38,-0.31,0.58,-0.31,0.57,-0.56,-0.46,-0.41,-0.87,-0.87,-0.88
282.17,-0.31,0.57,-0.31,0.56,-0.56,-0.45,-0.40,-0.86,-0.86,-0.88
284.99,-0.31,0.54,-0.31,0.55,-0.54,-0.44,-0.39,-0.85,-0.85,-0.85
287.84,-0.32,0.52,-0.32,0.52,-0.53,-0.43,-0.37,-0.85,-0.85,-0.84
290.72,-0.33,0.50,-0.32,0.50,-0.51,-0.42,-0.36,-0.84,-0.83,-0.83
293.63,-0.33,0.48,-0.33,0.48,-0.49,-0.41,-0.34,-0.81,-0.82,-0.81
296.57,-0.33,0.45,-0.33,0.46,-0.46,-0.39,-0.32,-0.79,-0.79,-0.78
299.53,-0.33,0.44,-0.33,0.44,-0.44,-0.38,-0.30,-0.77,-0.77,-0.77
302.53,-0.33,0.43,-0.33,0.42,-0.41,-0.36,-0.28,-0.74,-0.74,-0.76
305.55,-0.33,0.39,-0.33,0.40,-0.39,-0.34,-0.27,-0.72,-0.72,-0.72
308.61,-0.33,0.37,-0.33,0.37,-0.37,-0.32,-0.25,-0.69,-0.69,-0.70
311.69,-0.33,0.34,-0.33,0.34,-0.34,-0.30,-0.22,-0.67,-0.67,-0.67
314.81,-0.33,0.31,-0.33,0.31,-0.32,-0.27,-0.20,-0.64,-0.64,-0.63
317.96,-0.33,0.29,-0.33,0.28,-0.29,-0.25,-0.18,-0.62,-0.62,-0.62
321.14,-0.33,0.26,-0.33,0.26,-0.26,-0.23,-0.16,-0.59,-0.59,-0.59
324.35,-0.33,0.24,-0.33,0.24,-0.24,-0.20,-0.14,-0.56,-0.56,-0.57
327.59,-0.33,0.21,-0.33,0.21,-0.21,-0.18,-0.12,-0.54,-0.54,-0.54
330.87,-0.33,0.18,-0.33,0.19,-0.19,-0.15,-0.10,-0.51,-0.51,-0.51
334.18,-0.33,0.17,-0.33,0.16,-0.16,-0.13,-0.08,-0.49,-0.49,-0.49
337.52,-0.33,0.14,-0.33,0.14,-0.14,-0.10,-0.05,-0.46,-0.46,-0.47
340.90,-0.33,0.11,-0.33,0.11,-0.11,-0.07,-0.03,-0.44,-0.44,-0.44
344.30,-0.33,0.08,-0.33,0.08,-0.08,-0.05,-0.01,-0.41,-0.41,-0.41
347.75,-0.33,0.06,-0.33,0.06,-0.06,-0.02,0.01,-0.39,-0.39,-0.39
351.23,-0.33,0.03,-0.33,0.03,-0.03,0.00,0.03,-0.36,-0.36,-0.36
354.74,-0.33,0.00,-0.33,0.01,-0.01,0.03,0.06,-0.34,-0.34,-0.33
358.28,-0.33,-0.02,-0.33,-0.02,0.02,0.05,0.08,-0.31,-0.31,-0.31
361.87,-0.33,-0.04,-0.33,-0.04,0.04,0.07,0.10,-0.29,-0.29,-0.28
365.49,-0.33,-0.06,-0.33,-0.06,0.06,0.10,0.12,-0.26,-0.26,-0.27
369.14,-0.33,-0.08,-0.33,-0.08,0.09,0.12,0.14,-0.24,-0.24,-0.25
372.83,-0.33,-0.10,-0.33,-0.10,0.10,0.14,0.17,-0.22,-0.22,-0.23
376.56,-0.33,-0.12,-0.33,-0.13,0.12,0.16,0.19,-0.21,-0.21,-0.21
380.33,-0.33,-0.15,-0.33,-0.14,0.14,0.18,0.21,-0.19,-0.19,-0.18
384.13,-0.33,-0.16,-0.33,-0.16,0.15,0.20,0.23,-0.18,-0.18,-0.17
387.97,-0.32,-0.16,-0.32,-0.16,0.16,0.22,0.25,-0.16,-0.16,-0.16
391.85,-0.32,-0.17,-0.32,-0.17,0.17,0.24,0.27,-0.15,-0.15,-0.15
395.77,-0.31,-0.18,-0.31,-0.17,0.18,0.25,0.30,-0.13,-0.13,-0.13
399.73,-0.31,-0.19,-0.31,-0.18,0.19,0.27,0.32,-0.12,-0.12,-0.12
403.72,-0.31,-0.19,-0.31,-0.20,0.21,0.28,0.34,-0.10,-0.10,-0.11
407.76,-0.32,-0.21,-0.32,-0.22,0.23,0.30,0.36,-0.09,-0.09,-0.10
411.84,-0.34,-0.25,-0.34,-0.25,0.25,0.31,0.38,-0.09,-0.09,-0.09
415.96,-0.37,-0.28,-0.37,-0.28,0.28,0.32,0.40,-0.09,-0.09,-0.09
420.12,-0.40,-0.31,-0.40,-0.31,0.31,0.34,0.42,-0.09,-0.09,-0.09
424.32,-0.43,-0.34,-0.43,-0.34,0.34,0.35,0.44,-0.09,-0.09,-0.09
428.56,-0.46,-0.37,-0.46,-0.37,0.37,0.36,0.46,-0.08,-0.09,-0.09
432.85,-0.50,-0.41,-0.50,-0.41,0.41,0.37,0.47,-0.09,-0.09,-0.09
437.18,-0.53,-0.44,-0.53,-0.44,0.44,0.38,0.49,-0.09,-0.09,-0.09
441.55,-0.56,-0.47,-0.56,-0.47,0.47,0.38,0.51,-0.09,-0.09,-0.09
445.96,-0.59,-0.50,-0.59,-0.50,0.50,0.39,0.53,-0.09,-0.09,-0.09
450.42,-0.63,-0.53,-0.62,-0.53,0.53,0.40,0.54,-0.10,-0.10,-0.10
454.93,-0.65,-0.55,-0.65,-0.55,0.54,0.41,0.55,-0.10,-0.11,-0.10
