frequency,raw
20.00,2.88
20.20,2.91
20.40,2.95
20.61,2.98
20.81,3.03
21.02,3.06
21.23,3.09
21.44,3.13
21.66,3.17
21.87,3.21
22.09,3.26
22.31,3.29
22.54,3.33
22.76,3.38
22.99,3.41
23.22,3.46
23.45,3.49
23.69,3.53
23.92,3.57
24.16,3.60
24.40,3.63
24.65,3.66
24.89,3.71
25.14,3.74
25.39,3.78
25.65,3.81
25.91,3.84
26.16,3.88
26.43,3.91
26.69,3.96
26.96,3.99
27.23,4.03
27.50,4.05
27.77,4.08
28.05,4.12
28.33,4.14
28.62,4.17
28.90,4.20
29.19,4.22
29.48,4.24
29.78,4.29
30.08,4.31
30.38,4.35
30.68,4.38
30.99,4.42
31.30,4.45
31.61,4.48
31.93,4.52
32.24,4.56
32.57,4.59
32.89,4.63
33.22,4.66
33.55,4.69
33.89,4.74
34.23,4.78
34.57,4.83
34.92,4.87
35.27,4.92
35.62,4.97
35.97,5.00
36.33,5.04
36.70,5.10
37.06,5.15
37.43,5.19
37.81,5.24
38.19,5.28
38.57,5.32
38.95,5.37
39.34,5.42
39.74,5.45
40.14,5.50
40.54,5.53
40.94,5.57
41.35,5.61
41.76,5.64
42.18,5.68
42.60,5.71
43.03,5.75
43.46,5.78
43.90,5.82
44.33,5.83
44.78,5.86
45.23,5.89
45.68,5.91
46.13,5.94
46.60,5.95
47.06,5.98
47.53,6.00
48.01,6.02
48.49,6.04
48.97,6.06
49.46,6.08
49.96,6.10
50.46,6.10
50.96,6.13
51.47,6.14
51.99,6.16
52.51,6.16
53.03,6.16
53.56,6.17
54.10,6.19
54.64,6.18
55.18,6.19
55.74,6.17
56.29,6.18
56.86,6.17
57.42,6.17
58.00,6.18
58.58,6.17
59.16,6.16
59.76,6.16
60.35,6.16
60.96,6.18
61.57,6.17
62.18,6.17
62.80,6.19
63.43,6.19
64.07,6.21
64.71,6.21
65.35,6.21
66.01,6.22
66.67,6.23
67.33,6.23
68.01,6.24
68.69,6.25
69.37,6.25
70.07,6.26
70.77,6.27
71.48,6.29
72.19,6.29
72.91,6.31
73.64,6.32
74.38,6.31
75.12,6.33
75.87,6.34
76.63,6.35
77.40,6.36
78.17,6.37
78.95,6.38
79.74,6.39
80.54,6.40
81.35,6.40
82.16,6.40
82.98,6.41
83.81,6.41
84.65,6.41
85.50,6.41
86.35,6.41
87.22,6.40
88.09,6.40
88.97,6.39
89.86,6.39
90.76,6.38
91.66,6.37
92.58,6.37
93.51,6.35
94.44,6.34
95.39,6.33
96.34,6.32
97.30,6.30
98.28,6.29
99.26,6.28
100.25,6.27
101.25,6.25
102.27,6.24
103.29,6.22
104.32,6.21
105.37,6.19
106.42,6.16
107.48,6.13
108.56,6.11
109.64,6.08
110.74,6.05
111.85,6.03
112.97,5.99
114.10,5.97
115.24,5.92
116.39,5.90
117.55,5.87
118.73,5.84
119.92,5.81
121.12,5.79
122.33,5.76
123.55,5.74
124.79,5.71
126.03,5.69
127.29,5.67
128.57,5.64
129.85,5.61
131.15,5.58
132.46,5.55
133.79,5.52
135.12,5.49
136.48,5.45
137.84,5.43
139.22,5.39
140.61,5.35
142.02,5.32
143.44,5.28
144.87,5.23
146.32,5.19
147.78,5.14
149.26,5.09
150.75,5.04
152.26,5.00
153.78,4.95
155.32,4.91
156.88,4.85
158.44,4.81
160.03,4.77
161.63,4.72
163.24,4.68
164.88,4.63
166.53,4.58
168.19,4.52
169.87,4.48
171.57,4.42
173.29,4.38
175.02,4.33
176.77,4.28
178.54,4.23
180.32,4.19
182.13,4.14
183.95,4.10
185.79,4.05
187.65,4.01
189.52,3.97
191.42,3.92
193.33,3.88
195.27,3.84
197.22,3.80
199.19,3.75
201.18,3.71
203.19,3.68
205.23,3.63
207.28,3.60
209.35,3.56
211.44,3.53
213.56,3.49
215.69,3.46
217.85,3.42
220.03,3.39
222.23,3.36
224.45,3.32
226.70,3.28
228.96,3.25
231.25,3.22
233.57,3.19
235.90,3.15
238.26,3.12
240.64,3.09
243.05,3.07
245.48,3.03
247.93,3.00
250.41,2.97
252.92,2.94
255.45,2.91
258.00,2.87
260.58,2.85
263.19,2.81
265.82,2.78
268.48,2.74
271.16,2.71
273.87,2.67
276.61,2.64
279.38,2.59
282.17,2.57
284.99,2.53
287.84,2.49
290.72,2.47
293.63,2.42
296.57,2.39
299.53,2.36
302.53,2.31
305.55,2.28
308.61,2.23
311.69,2.18
314.81,2.15
317.96,2.09
321.14,2.05
324.35,2.01
327.59,1.96
330.87,1.93
334.18,1.89
337.52,1.84
340.90,1.81
344.30,1.76
347.75,1.72
351.23,1.70
354.74,1.66
358.28,1.62
361.87,1.60
365.49,1.57
369.14,1.54
372.83,1.53
376.56,1.51
380.33,1.49
384.13,1.47
387.97,1.45
391.85,1.43
395.77,1.42
399.73,1.41
403.72,1.40
407.76,1.39
411.84,1.39
415.96,1.39
420.12,1.38
424.32,1.38
428.56,1.39
432.85,1.40
437.18,1.40
441.55,1.42
445.96,1.43
450.42,1.44
454.93,1.45
459.48,1.47
464.07,1.47
468.71,1.48
473.40,1.49
478.13,1.50
482.91,1.50
487.74,1.50
492.62,1.50
497.55,1.50
502.52,1.50
507.55,1.50
512.62,1.50
517.75,1.49
522.93,1.47
528.16,1.47
533.44,1.45
538.77,1.43
544.16,1.40
549.60,1.36
555.10,1.35
560.65,1.32
566.25,1.28
571.92,1.25
577.64,1.21
583.41,1.17
589.25,1.14
595.14,1.10
601.09,1.06
607.10,1.01
613.17,0.95
619.30,0.91
625.50,0.86
631.75,0.82
638.07,0.77
644.45,0.71
650.89,0.67
657.40,0.61
663.98,0.55
670.62,0.50
677.32,0.43
684.10,0.38
690.94,0.33
697.85,0.26
704.83,0.20
711.87,0.14
718.99,0.08
726.18,0.02
733.44,-0.03
740.78,-0.08
748.19,-0.12
755.67,-0.16
763.23,-0.20
770.86,-0.25
778.57,-0.31
786.35,-0.38
794.22,-0.45
802.16,-0.51
810.18,-0.58
818.28,-0.64
826.46,-0.67
834.73,-0.69
843.08,-0.71
851.51,-0.70
860.02,-0.66
868.62,-0.63
877.31,-0.61
886.08,-0.57
894.94,-0.55
903.89,-0.51
912.93,-0.49
922.06,-0.45
931.28,-0.42
940.59,-0.39
950.00,-0.35
959.50,-0.32
969.09,-0.29
978.78,-0.26
988.57,-0.23
998.46,-0.17
1008.44,-0.11
1018.53,-0.05
1028.71,0.02
1039.00,0.08
1049.39,0.16
1059.88,0.26
1070.48,0.34
1081.19,0.44
1092.00,0.54
1102.92,0.63
1113.95,0.74
1125.09,0.83
1136.34,0.94
1147.70,1.03
1159.18,1.13
1170.77,1.22
1182.48,1.32
1194.30,1.41
1206.25,1.50
1218.31,1.59
1230.49,1.68
1242.80,1.79
1255.22,1.88
1267.78,1.96
1280.45,2.06
1293.26,2.15
1306.19,2.23
1319.25,2.32
1332.45,2.40
1345.77,2.48
1359.23,2.57
1372.82,2.65
1386.55,2.74
1400.41,2.83
1414.42,2.90
1428.56,2.98
1442.85,3.05
1457.28,3.14
1471.85,3.21
1486.57,3.27
1501.43,3.34
1516.45,3.41
1531.61,3.47
1546.93,3.54
1562.40,3.60
1578.02,3.66
1593.80,3.71
1609.74,3.77
1625.84,3.83
1642.10,3.89
1658.52,3.94
1675.10,3.99
1691.85,4.06
1708.77,4.12
1725.86,4.18
1743.12,4.25
1760.55,4.30
1778.15,4.37
1795.94,4.43
1813.90,4.52
1832.03,4.57
1850.36,4.65
1868.86,4.74
1887.55,4.82
1906.42,4.91
1925.49,5.00
1944.74,5.09
1964.19,5.19
1983.83,5.29
2003.67,5.39
2023.71,5.50
2043.94,5.61
2064.38,5.72
2085.03,5.83
2105.88,5.96
2126.94,6.08
2148.20,6.20
2169.69,6.32
2191.38,6.45
2213.30,6.57
2235.43,6.71
2257.78,6.85
2280.36,6.99
2303.17,7.14
2326.20,7.28
2349.46,7.42
2372.95,7.57
2396.68,7.72
2420.65,7.85
2444.86,8.00
2469.31,8.13
2494.00,8.27
2518.94,8.39
2544.13,8.51
2569.57,8.62
2595.27,8.69
2621.22,8.77
2647.43,8.84
2673.90,8.89
2700.64,8.92
2727.65,8.93
2754.93,8.94
2782.48,8.92
2810.30,8.87
2838.40,8.83
2866.79,8.76
2895.46,8.68
2924.41,8.59
2953.65,8.47
2983.19,8.36
3013.02,8.23
3043.15,8.11
3073.58,7.97
3104.32,7.84
3135.36,7.70
3166.72,7.56
3198.38,7.43
3230.37,7.31
3262.67,7.19
3295.30,7.08
3328.25,6.99
3361.53,6.89
3395.15,6.81
3429.10,6.75
3463.39,6.68
3498.03,6.63
3533.01,6.58
3568.34,6.55
3604.02,6.51
3640.06,6.48
3676.46,6.46
3713.22,6.44
3750.36,6.43
3787.86,6.42
3825.74,6.41
3864.00,6.40
3902.64,6.38
3941.66,6.36
3981.08,6.32
4020.89,6.26
4061.10,6.19
4101.71,6.12
4142.73,6.08
4184.15,6.03
4226.00,5.99
4268.26,5.96
4310.94,5.94
4354.05,5.93
4397.59,5.90
4441.56,5.87
4485.98,5.87
4530.84,5.84
4576.15,5.82
4621.91,5.81
4668.13,5.80
4714.81,5.83
4761.96,5.89
4809.58,5.94
4857.67,5.99
4906.25,6.06
4955.31,6.16
5004.87,6.26
5054.91,6.35
5105.46,6.47
5156.52,6.60
5208.08,6.70
5260.16,6.79
5312.77,6.85
5365.89,6.90
5419.55,6.94
5473.75,6.95
5528.49,6.93
5583.77,6.90
5639.61,6.84
5696.00,6.79
5752.96,6.74
5810.49,6.65
5868.60,6.58
5927.28,6.49
5986.56,6.39
6046.42,6.29
6106.89,6.17
6167.96,6.05
6229.64,5.93
6291.93,5.78
6354.85,5.64
6418.40,5.49
6482.58,5.33
6547.41,5.17
6612.88,4.99
6679.01,4.82
6745.80,4.66
6813.26,4.49
6881.39,4.33
6950.21,4.18
7019.71,4.01
7089.91,3.84
7160.81,3.67
7232.41,3.47
7304.74,3.30
7377.79,3.09
7451.56,2.86
7526.08,2.65
7601.34,2.42
7677.35,2.17
7754.13,1.94
7831.67,1.70
7909.98,1.49
7989.08,1.28
8068.98,1.13
8149.67,1.01
8231.16,0.95
8313.47,0.94
8396.61,1.00
8480.57,1.12
8565.38,1.34
8651.03,1.63
8737.54,1.98
8824.92,2.40
8913.17,2.88
9002.30,3.36
9092.32,3.80
9183.25,4.17
9275.08,4.48
9367.83,4.62
9461.51,4.57
9556.12,4.39
9651.68,4.06
9748.20,3.54
9845.68,2.96
9944.14,2.32
10043.58,1.63
10144.02,0.97
10245.46,0.33
10347.91,-0.24
10451.39,-0.76
10555.91,-1.25
10661.46,-1.65
10768.08,-2.02
10875.76,-2.35
10984.52,-2.65
11094.36,-2.93
11205.31,-3.17
11317.36,-3.40
11430.53,-3.59
11544.84,-3.78
11660.29,-3.94
11776.89,-4.05
11894.66,-4.12
12013.60,-4.15
12133.74,-4.13
12255.08,-4.06
12377.63,-3.96
12501.41,-3.82
12626.42,-3.61
12752.68,-3.39
12880.21,-3.11
13009.01,-2.81
13139.10,-2.48
13270.49,-2.14
13403.20,-1.79
13537.23,-1.41
13672.60,-1.03
13809.33,-0.61
13947.42,-0.17
14086.90,0.29
14227.77,0.75
14370.04,1.20
14513.74,1.61
14658.88,1.97
14805.47,2.24
14953.52,2.43
15103.06,2.50
15254.09,2.38
15406.63,2.16
15560.70,1.80
15716.30,1.30
15873.47,0.72
16032.20,0.07
16192.52,-0.66
16354.45,-1.43
16517.99,-2.23
16683.17,-3.01
16850.01,-3.73
17018.51,-4.39
17188.69,-4.96
17360.58,-5.47
17534.18,-5.94
17709.53,-6.36
17886.62,-6.66
18065.49,-6.77
18246.14,-6.79
18428.60,-6.67
18612.89,-6.51
18799.02,-6.33
18987.01,-6.27
19176.88,-6.40
19368.65,-6.73
19562.33,-7.39
19757.96,-8.49
19955.54,-9.91
