frequency,raw,error,smoothed,error_smoothed,equalization,parametric_eq,fixed_band_eq,equalized_raw,equalized_smoothed,target
20.00,-8.42,-6.97,-8.42,-6.97,5.94,5.87,1.52,-2.48,-2.47,-1.45
20.20,-8.33,-6.86,-8.34,-6.86,5.99,6.04,1.56,-2.35,-2.35,-1.47
20.40,-8.26,-6.76,-8.26,-6.76,6.02,6.20,1.61,-2.24,-2.24,-1.50
20.61,-8.18,-6.66,-8.18,-6.66,6.04,6.34,1.66,-2.15,-2.14,-1.52
20.81,-8.10,-6.56,-8.10,-6.55,6.05,6.46,1.71,-2.06,-2.06,-1.54
21.02,-8.02,-6.45,-8.02,-6.45,6.04,6.55,1.76,-1.98,-1.98,-1.57
21.23,-7.94,-6.35,-7.94,-6.35,6.03,6.62,1.81,-1.91,-1.91,-1.59
21.44,-7.87,-6.26,-7.87,-6.25,6.01,6.66,1.86,-1.86,-1.86,-1.61
21.66,-7.79,-6.16,-7.79,-6.16,5.99,6.67,1.92,-1.81,-1.81,-1.63
21.87,-7.71,-6.06,-7.71,-6.06,5.95,6.64,1.98,-1.76,-1.76,-1.65
22.09,-7.62,-5.95,-7.62,-5.95,5.89,6.59,2.04,-1.73,-1.73,-1.67
22.31,-7.53,-5.84,-7.53,-5.84,5.82,6.50,2.10,-1.71,-1.71,-1.69
22.54,-7.45,-5.73,-7.45,-5.73,5.74,6.39,2.16,-1.71,-1.71,-1.72
22.76,-7.36,-5.62,-7.37,-5.62,5.64,6.26,2.22,-1.72,-1.72,-1.74
22.99,-7.28,-5.52,-7.28,-5.52,5.54,6.11,2.29,-1.74,-1.74,-1.76
23.22,-7.20,-5.42,-7.20,-5.42,5.43,5.94,2.36,-1.77,-1.77,-1.78
23.45,-7.11,-5.32,-7.12,-5.32,5.32,5.76,2.43,-1.79,-1.79,-1.79
23.69,-7.03,-5.22,-7.03,-5.22,5.22,5.57,2.49,-1.82,-1.81,-1.81
23.92,-6.94,-5.12,-6.94,-5.11,5.11,5.37,2.57,-1.83,-1.83,-1.82
24.16,-6.85,-5.01,-6.86,-5.02,5.01,5.17,2.64,-1.84,-1.84,-1.84
24.40,-6.77,-4.92,-6.77,-4.91,4.91,4.96,2.71,-1.86,-1.86,-1.85
24.65,-6.68,-4.82,-6.68,-4.81,4.81,4.76,2.78,-1.87,-1.87,-1.86
24.89,-6.59,-4.71,-6.59,-4.71,4.71,4.56,2.86,-1.88,-1.88,-1.88
25.14,-6.49,-4.60,-6.49,-4.60,4.60,4.36,2.93,-1.89,-1.89,-1.89
25.39,-6.40,-4.50,-6.40,-4.50,4.50,4.17,3.01,-1.90,-1.90,-1.90
25.65,-6.31,-4.40,-6.31,-4.40,4.40,3.99,3.08,-1.91,-1.91,-1.91
25.91,-6.22,-4.30,-6.22,-4.30,4.30,3.81,3.15,-1.92,-1.92,-1.92
26.16,-6.14,-4.21,-6.14,-4.20,4.20,3.63,3.23,-1.94,-1.94,-1.93
26.43,-6.05,-4.10,-6.06,-4.11,4.11,3.46,3.30,-1.95,-1.95,-1.95
26.69,-5.97,-4.01,-5.97,-4.01,4.01,3.30,3.37,-1.96,-1.96,-1.96
26.96,-5.89,-3.92,-5.89,-3.91,3.92,3.15,3.44,-1.98,-1.97,-1.97
27.23,-5.80,-3.82,-5.81,-3.83,3.82,3.00,3.51,-1.98,-1.98,-1.98
27.50,-5.73,-3.74,-5.73,-3.73,3.73,2.86,3.57,-2.00,-1.99,-1.99
27.77,-5.64,-3.65,-5.64,-3.64,3.64,2.73,3.63,-2.00,-2.00,-1.99
28.05,-5.55,-3.55,-5.56,-3.55,3.55,2.60,3.69,-2.00,-2.00,-2.00
28.33,-5.47,-3.46,-5.47,-3.46,3.46,2.47,3.74,-2.01,-2.01,-2.01
28.62,-5.38,-3.37,-5.39,-3.37,3.37,2.36,3.79,-2.01,-2.02,-2.01
28.90,-5.30,-3.28,-5.30,-3.28,3.28,2.24,3.83,-2.02,-2.02,-2.02
29.19,-5.22,-3.20,-5.21,-3.19,3.19,2.14,3.87,-2.03,-2.03,-2.02
29.48,-5.12,-3.09,-5.13,-3.10,3.10,2.04,3.90,-2.02,-2.03,-2.03
29.78,-5.04,-3.01,-5.04,-3.00,3.01,1.94,3.92,-2.04,-2.03,-2.03
30.08,-4.95,-2.91,-4.95,-2.91,2.91,1.85,3.94,-2.04,-2.04,-2.04
30.38,-4.87,-2.83,-4.87,-2.83,2.83,1.76,3.95,-2.05,-2.05,-2.04
30.68,-4.79,-2.74,-4.79,-2.73,2.74,1.67,3.95,-2.06,-2.05,-2.05
30.99,-4.70,-2.64,-4.71,-2.65,2.65,1.59,3.94,-2.06,-2.06,-2.06
31.30,-4.62,-2.56,-4.62,-2.56,2.56,1.52,3.93,-2.06,-2.06,-2.06
31.61,-4.54,-2.47,-4.54,-2.47,2.47,1.44,3.91,-2.07,-2.07,-2.07
31.93,-4.46,-2.38,-4.46,-2.38,2.38,1.37,3.88,-2.08,-2.08,-2.08
32.24,-4.38,-2.30,-4.38,-2.30,2.29,1.31,3.85,-2.09,-2.09,-2.08
32.57,-4.30,-2.21,-4.30,-2.21,2.20,1.24,3.81,-2.10,-2.10,-2.09
32.89,-4.22,-2.12,-4.22,-2.11,2.11,1.18,3.76,-2.11,-2.10,-2.10
33.22,-4.13,-2.02,-4.13,-2.02,2.02,1.12,3.70,-2.11,-2.11,-2.11
33.55,-4.05,-1.93,-4.05,-1.93,1.94,1.06,3.64,-2.12,-2.12,-2.12
33.89,-3.98,-1.85,-3.98,-1.84,1.85,1.01,3.57,-2.13,-2.13,-2.13
34.23,-3.90,-1.76,-3.90,-1.76,1.76,0.96,3.50,-2.14,-2.14,-2.14
34.57,-3.82,-1.68,-3.82,-1.68,1.67,0.91,3.42,-2.15,-2.15,-2.14
34.92,-3.74,-1.59,-3.74,-1.59,1.59,0.86,3.34,-2.15,-2.15,-2.15
35.27,-3.67,-1.51,-3.67,-1.51,1.51,0.81,3.25,-2.16,-2.16,-2.16
35.62,-3.59,-1.43,-3.59,-1.43,1.43,0.77,3.16,-2.16,-2.16,-2.16
35.97,-3.52,-1.35,-3.52,-1.35,1.35,0.72,3.07,-2.17,-2.17,-2.17
36.33,-3.44,-1.27,-3.45,-1.27,1.27,0.68,2.97,-2.17,-2.18,-2.17
36.70,-3.38,-1.20,-3.37,-1.19,1.19,0.64,2.87,-2.19,-2.19,-2.18
37.06,-3.30,-1.11,-3.30,-1.11,1.11,0.60,2.77,-2.19,-2.19,-2.19
37.43,-3.23,-1.04,-3.23,-1.04,1.04,0.56,2.67,-2.19,-2.19,-2.19
37.81,-3.16,-0.96,-3.16,-0.96,0.96,0.52,2.56,-2.20,-2.20,-2.20
38.19,-3.09,-0.89,-3.09,-0.89,0.89,0.49,2.46,-2.20,-2.20,-2.20
38.57,-3.03,-0.82,-3.03,-0.82,0.82,0.45,2.36,-2.21,-2.21,-2.21
38.95,-2.96,-0.75,-2.96,-0.75,0.75,0.42,2.25,-2.21,-2.22,-2.21
39.34,-2.90,-0.68,-2.90,-0.68,0.68,0.38,2.14,-2.22,-2.22,-2.22
39.74,-2.83,-0.61,-2.83,-0.61,0.61,0.35,2.04,-2.22,-2.23,-2.22
40.14,-2.77,-0.54,-2.77,-0.54,0.54,0.32,1.93,-2.23,-2.23,-2.23
40.54,-2.71,-0.48,-2.71,-0.47,0.47,0.29,1.83,-2.24,-2.24,-2.23
40.94,-2.64,-0.40,-2.64,-0.40,0.40,0.26,1.72,-2.24,-2.24,-2.24
41.35,-2.58,-0.34,-2.58,-0.34,0.34,0.23,1.62,-2.24,-2.24,-2.24
41.76,-2.52,-0.27,-2.52,-0.27,0.27,0.20,1.52,-2.25,-2.25,-2.25
42.18,-2.46,-0.21,-2.46,-0.21,0.21,0.17,1.41,-2.25,-2.25,-2.25
42.60,-2.41,-0.15,-2.41,-0.15,0.15,0.14,1.31,-2.26,-2.26,-2.26
43.03,-2.35,-0.09,-2.35,-0.09,0.09,0.11,1.21,-2.27,-2.27,-2.26
43.46,-2.30,-0.03,-2.30,-0.03,0.03,0.08,1.11,-2.28,-2.27,-2.27
43.90,-2.24,0.03,-2.24,0.03,-0.03,0.06,1.01,-2.27,-2.27,-2.27
44.33,-2.18,0.09,-2.19,0.09,-0.09,0.03,0.91,-2.27,-2.28,-2.27
44.78,-2.14,0.14,-2.13,0.15,-0.14,0.00,0.81,-2.29,-2.28,-2.28
45.23,-2.08,0.20,-2.08,0.20,-0.20,-0.02,0.71,-2.28,-2.28,-2.28
45.68,-2.03,0.25,-2.03,0.25,-0.25,-0.05,0.61,-2.28,-2.29,-2.28
46.13,-1.98,0.30,-1.98,0.30,-0.30,-0.08,0.52,-2.28,-2.28,-2.28
46.60,-1.93,0.35,-1.93,0.35,-0.35,-0.10,0.42,-2.28,-2.28,-2.28
47.06,-1.88,0.40,-1.88,0.40,-0.40,-0.13,0.33,-2.28,-2.28,-2.28
47.53,-1.84,0.44,-1.84,0.44,-0.44,-0.15,0.23,-2.28,-2.28,-2.28
48.01,-1.80,0.48,-1.80,0.48,-0.48,-0.18,0.14,-2.28,-2.28,-2.28
48.49,-1.76,0.52,-1.76,0.52,-0.52,-0.20,0.05,-2.28,-2.28,-2.28
48.97,-1.73,0.55,-1.73,0.55,-0.55,-0.23,-0.04,-2.28,-2.29,-2.28
49.46,-1.70,0.58,-1.70,0.58,-0.59,-0.26,-0.13,-2.29,-2.29,-2.28
49.96,-1.67,0.61,-1.67,0.62,-0.62,-0.28,-0.22,-2.29,-2.29,-2.28
50.46,-1.63,0.65,-1.63,0.65,-0.65,-0.31,-0.31,-2.28,-2.28,-2.28
50.96,-1.60,0.68,-1.60,0.68,-0.68,-0.33,-0.40,-2.28,-2.28,-2.28
51.47,-1.57,0.71,-1.57,0.71,-0.71,-0.36,-0.48,-2.28,-2.28,-2.28
51.99,-1.54,0.74,-1.54,0.74,-0.74,-0.38,-0.57,-2.28,-2.28,-2.28
52.51,-1.52,0.76,-1.52,0.77,-0.77,-0.41,-0.65,-2.29,-2.29,-2.28
53.03,-1.49,0.79,-1.49,0.79,-0.79,-0.44,-0.73,-2.29,-2.28,-2.28
53.56,-1.46,0.82,-1.46,0.82,-0.82,-0.46,-0.81,-2.28,-2.28,-2.28
54.10,-1.43,0.85,-1.44,0.84,-0.84,-0.49,-0.89,-2.28,-2.28,-2.28
54.64,-1.42,0.86,-1.42,0.87,-0.87,-0.51,-0.96,-2.29,-2.28,-2.28
55.18,-1.40,0.88,-1.40,0.89,-0.89,-0.54,-1.03,-2.29,-2.29,-2.28
55.74,-1.37,0.91,-1.38,0.90,-0.91,-0.57,-1.10,-2.28,-2.29,-2.28
56.29,-1.36,0.92,-1.35,0.93,-0.93,-0.59,-1.17,-2.29,-2.28,-2.28
56.86,-1.33,0.95,-1.33,0.95,-0.95,-0.62,-1.24,-2.28,-2.28,-2.28
57.42,-1.31,0.97,-1.32,0.96,-0.96,-0.65,-1.30,-2.27,-2.28,-2.28
58.00,-1.30,0.97,-1.30,0.98,-0.97,-0.68,-1.35,-2.27,-2.27,-2.27
58.58,-1.29,0.98,-1.29,0.99,-0.98,-0.70,-1.41,-2.27,-2.27,-2.27
59.16,-1.27,1.00,-1.28,0.99,-0.99,-0.73,-1.46,-2.26,-2.27,-2.27
59.76,-1.27,1.00,-1.27,1.00,-1.00,-0.76,-1.51,-2.27,-2.27,-2.27
60.35,-1.26,1.00,-1.26,1.01,-1.01,-0.79,-1.55,-2.27,-2.27,-2.26
60.96,-1.25,1.01,-1.25,1.01,-1.02,-0.82,-1.59,-2.27,-2.27,-2.26
61.57,-1.24,1.02,-1.24,1.02,-1.03,-0.84,-1.63,-2.27,-2.27,-2.26
62.18,-1.22,1.04,-1.22,1.04,-1.04,-0.87,-1.66,-2.26,-2.26,-2.26
62.80,-1.20,1.06,-1.20,1.06,-1.05,-0.90,-1.69,-2.26,-2.26,-2.26
63.43,-1.18,1.07,-1.18,1.07,-1.07,-0.93,-1.71,-2.25,-2.25,-2.25
64.07,-1.17,1.08,-1.17,1.09,-1.09,-0.96,-1.73,-2.26,-2.25,-2.25
64.71,-1.14,1.11,-1.15,1.10,-1.11,-0.99,-1.75,-2.25,-2.26,-2.25
65.35,-1.13,1.12,-1.13,1.12,-1.13,-1.02,-1.76,-2.26,-2.26,-2.25
66.01,-1.11,1.14,-1.11,1.15,-1.15,-1.05,-1.77,-2.26,-2.25,-2.25
66.67,-1.08,1.17,-1.09,1.17,-1.17,-1.08,-1.77,-2.25,-2.25,-2.25
67.33,-1.06,1.19,-1.06,1.19,-1.19,-1.11,-1.77,-2.25,-2.25,-2.25
68.01,-1.04,1.21,-1.04,1.21,-1.21,-1.14,-1.77,-2.25,-2.25,-2.25
68.69,-1.02,1.23,-1.02,1.23,-1.23,-1.17,-1.77,-2.25,-2.25,-2.25
69.37,-1.00,1.25,-1.00,1.25,-1.25,-1.19,-1.76,-2.25,-2.25,-2.25
70.07,-0.98,1.27,-0.98,1.27,-1.27,-1.22,-1.75,-2.25,-2.25,-2.25
70.77,-0.96,1.29,-0.96,1.29,-1.29,-1.25,-1.74,-2.25,-2.25,-2.25
71.48,-0.94,1.31,-0.94,1.31,-1.31,-1.28,-1.73,-2.25,-2.25,-2.25
72.19,-0.93,1.32,-0.93,1.33,-1.33,-1.31,-1.72,-2.26,-2.25,-2.25
72.91,-0.91,1.34,-0.91,1.34,-1.34,-1.34,-1.70,-2.25,-2.26,-2.25
73.64,-0.90,1.36,-0.90,1.36,-1.36,-1.36,-1.69,-2.26,-2.26,-2.26
74.38,-0.89,1.37,-0.89,1.38,-1.38,-1.39,-1.67,-2.27,-2.26,-2.26
75.12,-0.87,1.39,-0.87,1.39,-1.39,-1.41,-1.65,-2.26,-2.26,-2.26
75.87,-0.86,1.41,-0.86,1.41,-1.41,-1.44,-1.64,-2.27,-2.27,-2.27
76.63,-0.85,1.42,-0.85,1.42,-1.42,-1.46,-1.62,-2.27,-2.28,-2.27
77.40,-0.85,1.43,-0.85,1.44,-1.44,-1.49,-1.60,-2.29,-2.28,-2.28
78.17,-0.84,1.45,-0.84,1.45,-1.45,-1.51,-1.58,-2.29,-2.29,-2.29
78.95,-0.83,1.47,-0.84,1.47,-1.47,-1.53,-1.57,-2.30,-2.31,-2.30
79.74,-0.83,1.48,-0.83,1.48,-1.49,-1.55,-1.55,-2.32,-2.32,-2.31
80.54,-0.83,1.49,-0.82,1.50,-1.50,-1.57,-1.54,-2.33,-2.32,-2.32
81.35,-0.81,1.52,-0.82,1.52,-1.52,-1.59,-1.52,-2.33,-2.33,-2.33
82.16,-0.81,1.53,-0.81,1.53,-1.53,-1.60,-1.51,-2.34,-2.34,-2.34
82.98,-0.81,1.54,-0.81,1.54,-1.54,-1.62,-1.49,-2.35,-2.35,-2.35
83.81,-0.81,1.55,-0.81,1.55,-1.55,-1.64,-1.48,-2.36,-2.36,-2.36
84.65,-0.82,1.56,-0.82,1.56,-1.56,-1.65,-1.47,-2.38,-2.38,-2.38
85.50,-0.82,1.57,-0.82,1.56,-1.56,-1.66,-1.46,-2.39,-2.39,-2.39
86.35,-0.83,1.56,-0.83,1.57,-1.57,-1.67,-1.45,-2.40,-2.40,-2.39
87.22,-0.84,1.56,-0.84,1.57,-1.57,-1.68,-1.44,-2.41,-2.41,-2.40
88.09,-0.84,1.57,-0.84,1.57,-1.57,-1.69,-1.43,-2.42,-2.42,-2.41
88.97,-0.84,1.58,-0.85,1.58,-1.57,-1.69,-1.43,-2.42,-2.42,-2.42
89.86,-0.85,1.58,-0.85,1.58,-1.57,-1.70,-1.42,-2.43,-2.42,-2.43
90.76,-0.86,1.57,-0.86,1.58,-1.57,-1.70,-1.42,-2.43,-2.43,-2.43
91.66,-0.87,1.57,-0.87,1.57,-1.57,-1.70,-1.42,-2.44,-2.44,-2.44
92.58,-0.88,1.56,-0.88,1.56,-1.57,-1.71,-1.42,-2.45,-2.45,-2.44
93.51,-0.89,1.56,-0.89,1.56,-1.56,-1.71,-1.42,-2.46,-2.45,-2.45
94.44,-0.89,1.56,-0.89,1.56,-1.56,-1.70,-1.42,-2.45,-2.45,-2.45
95.39,-0.90,1.56,-0.90,1.56,-1.56,-1.70,-1.42,-2.46,-2.46,-2.46
96.34,-0.91,1.55,-0.91,1.55,-1.55,-1.70,-1.42,-2.46,-2.46,-2.46
97.30,-0.92,1.55,-0.92,1.55,-1.55,-1.69,-1.43,-2.47,-2.47,-2.47
98.28,-0.93,1.54,-0.93,1.54,-1.55,-1.69,-1.43,-2.48,-2.48,-2.47
99.26,-0.94,1.54,-0.94,1.55,-1.55,-1.68,-1.44,-2.49,-2.49,-2.48
100.25,-0.94,1.55,-0.94,1.55,-1.55,-1.68,-1.44,-2.49,-2.49,-2.49
101.25,-0.95,1.55,-0.95,1.55,-1.55,-1.67,-1.45,-2.50,-2.50,-2.50
102.27,-0.96,1.55,-0.96,1.55,-1.55,-1.66,-1.46,-2.51,-2.51,-2.51
103.29,-0.97,1.55,-0.97,1.56,-1.55,-1.65,-1.47,-2.53,-2.52,-2.52
104.32,-0.97,1.56,-0.97,1.56,-1.56,-1.64,-1.48,-2.53,-2.53,-2.53
105.37,-0.98,1.56,-0.98,1.56,-1.56,-1.63,-1.49,-2.54,-2.54,-2.54
106.42,-0.99,1.56,-0.99,1.56,-1.56,-1.62,-1.50,-2.56,-2.55,-2.55
107.48,-1.00,1.56,-1.00,1.56,-1.57,-1.61,-1.51,-2.57,-2.57,-2.56
108.56,-1.00,1.57,-1.00,1.57,-1.57,-1.60,-1.52,-2.57,-2.57,-2.57
109.64,-1.01,1.57,-1.01,1.57,-1.57,-1.59,-1.53,-2.59,-2.58,-2.58
110.74,-1.01,1.58,-1.01,1.58,-1.58,-1.58,-1.54,-2.59,-2.59,-2.59
111.85,-1.02,1.58,-1.02,1.58,-1.58,-1.56,-1.55,-2.60,-2.60,-2.60
112.97,-1.03,1.58,-1.03,1.58,-1.58,-1.55,-1.56,-2.62,-2.61,-2.61
114.10,-1.04,1.58,-1.04,1.59,-1.59,-1.54,-1.57,-2.63,-2.62,-2.62
115.24,-1.04,1.59,-1.04,1.59,-1.59,-1.53,-1.57,-2.63,-2.63,-2.63
116.39,-1.05,1.59,-1.05,1.59,-1.59,-1.52,-1.58,-2.64,-2.64,-2.64
117.55,-1.06,1.59,-1.06,1.59,-1.59,-1.51,-1.59,-2.65,-2.65,-2.65
118.73,-1.07,1.59,-1.07,1.59,-1.59,-1.50,-1.59,-2.66,-2.66,-2.66
119.92,-1.08,1.58,-1.08,1.59,-1.59,-1.49,-1.60,-2.67,-2.67,-2.66
121.12,-1.08,1.59,-1.08,1.59,-1.59,-1.48,-1.60,-2.67,-2.67,-2.67
122.33,-1.09,1.58,-1.09,1.58,-1.58,-1.47,-1.60,-2.67,-2.67,-2.67
123.55,-1.10,1.58,-1.10,1.58,-1.58,-1.46,-1.60,-2.68,-2.68,-2.68
124.79,-1.11,1.57,-1.11,1.57,-1.58,-1.45,-1.60,-2.69,-2.69,-2.68
126.03,-1.12,1.57,-1.12,1.57,-1.57,-1.44,-1.60,-2.69,-2.69,-2.69
127.29,-1.13,1.56,-1.13,1.57,-1.57,-1.43,-1.60,-2.70,-2.69,-2.69
128.57,-1.13,1.56,-1.13,1.56,-1.56,-1.42,-1.59,-2.70,-2.70,-2.69
129.85,-1.13,1.57,-1.14,1.56,-1.56,-1.41,-1.59,-2.69,-2.70,-2.70
131.15,-1.15,1.55,-1.14,1.56,-1.56,-1.40,-1.58,-2.71,-2.70,-2.70
132.46,-1.15,1.55,-1.15,1.55,-1.55,-1.39,-1.57,-2.70,-2.70,-2.70
133.79,-1.15,1.55,-1.16,1.55,-1.55,-1.39,-1.56,-2.70,-2.71,-2.70
135.12,-1.16,1.54,-1.16,1.54,-1.55,-1.38,-1.55,-2.71,-2.70,-2.70
136.48,-1.16,1.54,-1.16,1.54,-1.54,-1.37,-1.54,-2.70,-2.70,-2.70
137.84,-1.16,1.53,-1.16,1.54,-1.54,-1.37,-1.53,-2.70,-2.70,-2.69
139.22,-1.16,1.53,-1.16,1.53,-1.53,-1.36,-1.51,-2.69,-2.69,-2.69
140.61,-1.16,1.53,-1.16,1.53,-1.53,-1.36,-1.50,-2.69,-2.69,-2.69
142.02,-1.16,1.52,-1.16,1.52,-1.52,-1.35,-1.49,-2.68,-2.68,-2.68
143.44,-1.16,1.51,-1.16,1.52,-1.52,-1.35,-1.47,-2.68,-2.68,-2.67
144.87,-1.16,1.51,-1.16,1.51,-1.51,-1.34,-1.46,-2.67,-2.67,-2.67
146.32,-1.16,1.50,-1.16,1.50,-1.50,-1.34,-1.44,-2.67,-2.66,-2.66
147.78,-1.16,1.49,-1.16,1.50,-1.50,-1.33,-1.43,-2.66,-2.66,-2.65
149.26,-1.15,1.50,-1.16,1.49,-1.49,-1.33,-1.41,-2.64,-2.65,-2.65
150.75,-1.16,1.48,-1.16,1.48,-1.48,-1.33,-1.40,-2.64,-2.64,-2.64
152.26,-1.16,1.47,-1.16,1.47,-1.47,-1.32,-1.39,-2.63,-2.63,-2.63
153.78,-1.16,1.46,-1.16,1.46,-1.46,-1.32,-1.37,-2.62,-2.62,-2.62
155.32,-1.16,1.45,-1.16,1.45,-1.45,-1.32,-1.36,-2.61,-2.61,-2.61
156.88,-1.16,1.44,-1.16,1.44,-1.44,-1.32,-1.35,-2.60,-2.60,-2.60
158.44,-1.17,1.42,-1.17,1.42,-1.42,-1.32,-1.34,-2.60,-2.59,-2.59
160.03,-1.17,1.41,-1.17,1.41,-1.41,-1.32,-1.32,-2.58,-2.59,-2.58
161.63,-1.18,1.39,-1.18,1.39,-1.40,-1.32,-1.31,-2.58,-2.58,-2.57
163.24,-1.18,1.38,-1.18,1.38,-1.38,-1.31,-1.30,-2.57,-2.56,-2.56
164.88,-1.18,1.37,-1.18,1.37,-1.37,-1.31,-1.29,-2.55,-2.55,-2.55
166.53,-1.18,1.36,-1.18,1.36,-1.36,-1.31,-1.29,-2.54,-2.54,-2.54
168.19,-1.19,1.34,-1.19,1.35,-1.35,-1.31,-1.28,-2.54,-2.53,-2.53
169.87,-1.19,1.33,-1.19,1.34,-1.33,-1.31,-1.27,-2.53,-2.53,-2.52
171.57,-1.19,1.33,-1.19,1.32,-1.32,-1.32,-1.27,-2.51,-2.52,-2.52
173.29,-1.20,1.31,-1.20,1.31,-1.31,-1.32,-1.26,-2.51,-2.51,-2.51
175.02,-1.20,1.30,-1.20,1.30,-1.30,-1.32,-1.26,-2.50,-2.51,-2.50
176.77,-1.21,1.29,-1.21,1.29,-1.29,-1.32,-1.26,-2.50,-2.50,-2.50
178.54,-1.21,1.28,-1.21,1.28,-1.28,-1.32,-1.26,-2.50,-2.50,-2.49
180.32,-1.22,1.27,-1.22,1.27,-1.28,-1.32,-1.26,-2.50,-2.50,-2.49
182.13,-1.22,1.27,-1.22,1.27,-1.27,-1.32,-1.26,-2.49,-2.49,-2.49
183.95,-1.23,1.26,-1.23,1.27,-1.26,-1.33,-1.26,-2.50,-2.49,-2.49
185.79,-1.23,1.26,-1.23,1.26,-1.26,-1.33,-1.26,-2.49,-2.49,-2.49
187.65,-1.23,1.26,-1.24,1.26,-1.25,-1.33,-1.26,-2.49,-2.49,-2.49
189.52,-1.25,1.24,-1.24,1.25,-1.25,-1.33,-1.27,-2.50,-2.49,-2.49
191.42,-1.24,1.25,-1.25,1.24,-1.25,-1.34,-1.27,-2.49,-2.49,-2.49
193.33,-1.25,1.24,-1.25,1.24,-1.24,-1.34,-1.28,-2.49,-2.50,-2.49
195.27,-1.26,1.23,-1.26,1.24,-1.24,-1.34,-1.28,-2.50,-2.50,-2.49
197.22,-1.26,1.24,-1.26,1.24,-1.24,-1.34,-1.29,-2.50,-2.50,-2.50
199.19,-1.27,1.23,-1.27,1.24,-1.24,-1.35,-1.30,-2.51,-2.50,-2.50
201.18,-1.27,1.24,-1.27,1.24,-1.23,-1.35,-1.31,-2.51,-2.51,-2.51
203.19,-1.28,1.23,-1.28,1.23,-1.23,-1.35,-1.32,-2.52,-2.52,-2.51
205.23,-1.29,1.23,-1.29,1.23,-1.23,-1.36,-1.33,-2.53,-2.52,-2.52
207.28,-1.29,1.23,-1.30,1.23,-1.23,-1.36,-1.34,-2.53,-2.53,-2.52
209.35,-1.30,1.23,-1.30,1.24,-1.24,-1.37,-1.35,-2.54,-2.53,-2.53
211.44,-1.30,1.24,-1.30,1.24,-1.24,-1.37,-1.36,-2.54,-2.54,-2.54
213.56,-1.30,1.24,-1.31,1.24,-1.24,-1.37,-1.37,-2.54,-2.55,-2.54
215.69,-1.31,1.24,-1.31,1.24,-1.24,-1.38,-1.38,-2.55,-2.55,-2.55
217.85,-1.31,1.24,-1.31,1.25,-1.25,-1.38,-1.39,-2.56,-2.56,-2.55
220.03,-1.31,1.25,-1.31,1.25,-1.25,-1.39,-1.40,-2.56,-2.56,-2.56
222.23,-1.31,1.25,-1.31,1.25,-1.25,-1.39,-1.41,-2.56,-2.56,-2.56
224.45,-1.31,1.25,-1.31,1.25,-1.25,-1.39,-1.42,-2.56,-2.56,-2.56
226.70,-1.31,1.25,-1.31,1.26,-1.25,-1.40,-1.43,-2.57,-2.56,-2.56
228.96,-1.30,1.26,-1.31,1.26,-1.26,-1.40,-1.44,-2.56,-2.56,-2.56
231.25,-1.30,1.26,-1.30,1.26,-1.26,-1.41,-1.45,-2.56,-2.56,-2.56
233.57,-1.30,1.25,-1.30,1.26,-1.26,-1.41,-1.46,-2.56,-2.56,-2.55
235.90,-1.29,1.26,-1.29,1.26,-1.26,-1.41,-1.47,-2.55,-2.55,-2.55
238.26,-1.28,1.26,-1.28,1.26,-1.26,-1.42,-1.47,-2.54,-2.55,-2.54
240.64,-1.27,1.26,-1.27,1.27,-1.27,-1.42,-1.48,-2.54,-2.54,-2.53
243.05,-1.26,1.27,-1.26,1.27,-1.27,-1.43,-1.48,-2.53,-2.53,-2.53
245.48,-1.25,1.27,-1.25,1.27,-1.27,-1.43,-1.49,-2.52,-2.52,-2.52
247.93,-1.24,1.27,-1.24,1.28,-1.27,-1.44,-1.49,-2.52,-2.51,-2.51
250.41,-1.22,1.28,-1.23,1.28,-1.28,-1.44,-1.49,-2.50,-2.51,-2.50
252.92,-1.21,1.29,-1.22,1.28,-1.28,-1.45,-1.49,-2.50,-2.50,-2.50
255.45,-1.21,1.28,-1.20,1.29,-1.29,-1.45,-1.49,-2.50,-2.50,-2.49
258.00,-1.19,1.29,-1.19,1.30,-1.30,-1.45,-1.49,-2.49,-2.49,-2.48
260.58,-1.17,1.31,-1.18,1.31,-1.31,-1.46,-1.48,-2.48,-2.48,-2.48
263.19,-1.16,1.32,-1.16,1.32,-1.32,-1.46,-1.48,-2.48,-2.48,-2.48
265.82,-1.14,1.33,-1.14,1.33,-1.33,-1.47,-1.48,-2.47,-2.47,-2.47
268.48,-1.13,1.34,-1.13,1.35,-1.34,-1.47,-1.47,-2.48,-2.47,-2.47
271.16,-1.11,1.36,-1.11,1.36,-1.36,-1.48,-1.46,-2.47,-2.47,-2.47
273.87,-1.10,1.37,-1.10,1.37,-1.37,-1.48,-1.45,-2.47,-2.47,-2.47
276.61,-1.08,1.38,-1.08,1.39,-1.39,-1.48,-1.45,-2.47,-2.47,-2.46
279.38,-1.06,1.40,-1.06,1.40,-1.40,-1.49,-1.44,-2.46,-2.46,-2.46
282.17,-1.04,1.42,-1.05,1.41,-1.41,-1.49,-1.43,-2.46,-2.46,-2.46
284.99,-1.03,1.42,-1.03,1.43,-1.43,-1.50,-1.42,-2.46,-2.46,-2.45
287.84,-1.01,1.44,-1.01,1.44,-1.44,-1.50,-1.41,-2.45,-2.45,-2.45
290.72,-0.98,1.46,-0.99,1.46,-1.46,-1.50,-1.40,-2.44,-2.45,-2.44
293.63,-0.97,1.47,-0.97,1.47,-1.47,-1.51,-1.39,-2.44,-2.44,-2.44
296.57,-0.95,1.48,-0.95,1.49,-1.49,-1.51,-1.38,-2.44,-2.44,-2.43
299.53,-0.93,1.50,-0.93,1.50,-1.50,-1.52,-1.37,-2.43,-2.43,-2.43
302.53,-0.91,1.51,-0.91,1.51,-1.51,-1.52,-1.36,-2.42,-2.42,-2.42
305.55,-0.89,1.52,-0.89,1.53,-1.53,-1.52,-1.36,-2.42,-2.41,-2.41
308.61,-0.86,1.54,-0.86,1.54,-1.54,-1.53,-1.35,-2.40,-2.40,-2.40
311.69,-0.84,1.55,-0.84,1.55,-1.55,-1.53,-1.34,-2.39,-2.39,-2.39
314.81,-0.82,1.56,-0.82,1.56,-1.56,-1.53,-1.34,-2.38,-2.38,-2.38
317.96,-0.80,1.57,-0.80,1.57,-1.57,-1.54,-1.33,-2.37,-2.37,-2.37
321.14,-0.78,1.58,-0.78,1.58,-1.58,-1.54,-1.32,-2.36,-2.36,-2.36
324.35,-0.76,1.59,-0.76,1.59,-1.59,-1.54,-1.32,-2.35,-2.35,-2.35
327.59,-0.74,1.60,-0.74,1.60,-1.60,-1.55,-1.32,-2.34,-2.35,-2.34
330.87,-0.73,1.61,-0.73,1.61,-1.61,-1.55,-1.31,-2.34,-2.34,-2.34
334.18,-0.71,1.62,-0.71,1.62,-1.62,-1.55,-1.31,-2.33,-2.33,-2.33
337.52,-0.69,1.64,-0.70,1.63,-1.63,-1.55,-1.31,-2.33,-2.33,-2.33
340.90,-0.68,1.64,-0.68,1.64,-1.65,-1.56,-1.31,-2.33,-2.33,-2.32
344.30,-0.67,1.65,-0.67,1.66,-1.66,-1.56,-1.31,-2.33,-2.33,-2.32
347.75,-0.65,1.67,-0.65,1.67,-1.67,-1.56,-1.32,-2.33,-2.32,-2.32
351.23,-0.63,1.69,-0.64,1.69,-1.69,-1.57,-1.32,-2.32,-2.32,-2.32
354.74,-0.62,1.70,-0.62,1.70,-1.70,-1.57,-1.32,-2.32,-2.33,-2.32
358.28,-0.62,1.71,-0.61,1.72,-1.72,-1.57,-1.33,-2.34,-2.33,-2.33
361.87,-0.60,1.73,-0.60,1.73,-1.73,-1.57,-1.34,-2.33,-2.33,-2.33
365.49,-0.59,1.74,-0.59,1.74,-1.74,-1.57,-1.34,-2.33,-2.33,-2.33
369.14,-0.58,1.75,-0.58,1.75,-1.75,-1.58,-1.35,-2.33,-2.33,-2.33
372.83,-0.58,1.75,-0.58,1.75,-1.75,-1.58,-1.36,-2.34,-2.33,-2.33
376.56,-0.56,1.76,-0.57,1.76,-1.76,-1.58,-1.37,-2.32,-2.33,-2.32
380.33,-0.56,1.76,-0.56,1.76,-1.76,-1.58,-1.38,-2.33,-2.32,-2.32
384.13,-0.55,1.77,-0.55,1.77,-1.77,-1.58,-1.40,-2.32,-2.32,-2.32
387.97,-0.55,1.76,-0.55,1.77,-1.77,-1.58,-1.41,-2.32,-2.32,-2.31
391.85,-0.54,1.77,-0.54,1.77,-1.77,-1.59,-1.42,-2.31,-2.31,-2.31
395.77,-0.53,1.77,-0.53,1.77,-1.77,-1.59,-1.44,-2.30,-2.30,-2.30
399.73,-0.52,1.77,-0.52,1.77,-1.77,-1.59,-1.45,-2.29,-2.29,-2.29
403.72,-0.52,1.77,-0.52,1.77,-1.77,-1.59,-1.47,-2.29,-2.29,-2.29
407.76,-0.51,1.77,-0.51,1.77,-1.77,-1.59,-1.48,-2.28,-2.28,-2.28
411.84,-0.51,1.76,-0.51,1.77,-1.77,-1.59,-1.50,-2.28,-2.28,-2.27
415.96,-0.49,1.77,-0.50,1.77,-1.77,-1.59,-1.52,-2.26,-2.27,-2.26
420.12,-0.49,1.77,-0.49,1.77,-1.77,-1.59,-1.53,-2.26,-2.26,-2.26
424.32,-0.48,1.77,-0.48,1.77,-1.77,-1.59,-1.55,-2.26,-2.25,-2.25
428.56,-0.47,1.77,-0.47,1.77,-1.78,-1.59,-1.57,-2.25,-2.25,-2.24
