frequency,raw,error,smoothed,error_smoothed,equalization,parametric_eq,fixed_band_eq,equalized_raw,equalized_smoothed,target
20.00,-8.09,-7.77,-8.09,-7.77,6.00,5.69,2.07,-2.09,-2.09,-0.32
20.20,-8.02,-7.68,-8.02,-7.68,6.00,5.76,2.13,-2.02,-2.02,-0.34
20.40,-7.96,-7.59,-7.96,-7.59,6.00,5.83,2.20,-1.96,-1.96,-0.37
20.61,-7.89,-7.50,-7.89,-7.50,6.00,5.90,2.26,-1.89,-1.89,-0.39
20.81,-7.82,-7.41,-7.82,-7.41,6.00,5.96,2.33,-1.82,-1.82,-0.41
21.02,-7.76,-7.32,-7.75,-7.32,6.00,6.01,2.40,-1.76,-1.75,-0.44
21.23,-7.68,-7.22,-7.68,-7.23,6.00,6.06,2.47,-1.68,-1.68,-0.46
21.44,-7.62,-7.14,-7.62,-7.14,6.00,6.11,2.54,-1.62,-1.62,-0.48
21.66,-7.55,-7.05,-7.55,-7.05,6.00,6.15,2.62,-1.55,-1.55,-0.50
21.87,-7.49,-6.97,-7.48,-6.97,6.00,6.18,2.70,-1.49,-1.48,-0.52
22.09,-7.41,-6.87,-7.41,-6.88,6.00,6.20,2.78,-1.41,-1.41,-0.54
22.31,-7.34,-6.78,-7.34,-6.78,6.00,6.22,2.86,-1.34,-1.34,-0.56
22.54,-7.27,-6.68,-7.26,-6.68,6.00,6.23,2.94,-1.27,-1.26,-0.59
22.76,-7.19,-6.58,-7.19,-6.59,6.00,6.23,3.03,-1.19,-1.19,-0.61
22.99,-7.12,-6.49,-7.12,-6.50,6.01,6.23,3.11,-1.11,-1.12,-0.63
23.22,-7.06,-6.41,-7.05,-6.41,6.01,6.22,3.20,-1.05,-1.04,-0.65
23.45,-6.98,-6.32,-6.98,-6.32,6.02,6.20,3.30,-0.96,-0.97,-0.66
23.69,-6.91,-6.23,-6.91,-6.23,6.01,6.17,3.39,-0.90,-0.90,-0.68
23.92,-6.83,-6.14,-6.83,-6.14,5.99,6.14,3.48,-0.83,-0.84,-0.69
24.16,-6.76,-6.05,-6.76,-6.06,5.97,6.10,3.58,-0.79,-0.80,-0.71
24.40,-6.70,-5.98,-6.69,-5.98,5.93,6.05,3.68,-0.77,-0.77,-0.72
24.65,-6.62,-5.89,-6.62,-5.89,5.87,6.00,3.78,-0.75,-0.75,-0.73
24.89,-6.55,-5.80,-6.55,-5.80,5.81,5.95,3.88,-0.74,-0.74,-0.75
25.14,-6.47,-5.71,-6.47,-5.71,5.73,5.88,3.98,-0.74,-0.74,-0.76
25.39,-6.40,-5.63,-6.40,-5.63,5.65,5.82,4.08,-0.75,-0.75,-0.77
25.65,-6.32,-5.54,-6.32,-5.55,5.56,5.75,4.19,-0.77,-0.77,-0.78
25.91,-6.25,-5.46,-6.25,-5.46,5.46,5.67,4.29,-0.79,-0.79,-0.79
26.16,-6.17,-5.37,-6.17,-5.37,5.37,5.59,4.39,-0.80,-0.80,-0.80
26.43,-6.10,-5.28,-6.10,-5.28,5.28,5.51,4.49,-0.82,-0.81,-0.82
26.69,-6.02,-5.19,-6.02,-5.20,5.20,5.42,4.59,-0.82,-0.83,-0.83
26.96,-5.95,-5.11,-5.95,-5.11,5.11,5.34,4.69,-0.84,-0.84,-0.84
27.23,-5.87,-5.02,-5.87,-5.03,5.03,5.25,4.78,-0.84,-0.85,-0.85
27.50,-5.80,-4.94,-5.80,-4.94,4.94,5.15,4.88,-0.86,-0.85,-0.86
27.77,-5.72,-4.86,-5.72,-4.86,4.86,5.06,4.96,-0.86,-0.86,-0.86
28.05,-5.64,-4.77,-5.65,-4.78,4.78,4.97,5.05,-0.86,-0.87,-0.87
28.33,-5.58,-4.70,-5.57,-4.70,4.70,4.87,5.13,-0.88,-0.87,-0.88
28.62,-5.50,-4.62,-5.50,-4.62,4.62,4.78,5.20,-0.88,-0.88,-0.88
28.90,-5.43,-4.54,-5.43,-4.55,4.55,4.68,5.27,-0.88,-0.89,-0.89
29.19,-5.37,-4.48,-5.36,-4.47,4.47,4.59,5.33,-0.90,-0.89,-0.89
29.48,-5.29,-4.39,-5.29,-4.40,4.40,4.49,5.38,-0.89,-0.90,-0.90
29.78,-5.22,-4.32,-5.22,-4.32,4.32,4.39,5.43,-0.90,-0.90,-0.90
30.08,-5.15,-4.24,-5.15,-4.25,4.25,4.30,5.46,-0.90,-0.91,-0.91
30.38,-5.09,-4.18,-5.08,-4.17,4.17,4.21,5.49,-0.92,-0.91,-0.91
30.68,-5.01,-4.09,-5.01,-4.10,4.10,4.11,5.51,-0.91,-0.92,-0.92
30.99,-4.94,-4.01,-4.95,-4.02,4.03,4.02,5.52,-0.91,-0.92,-0.93
31.30,-4.89,-3.96,-4.88,-3.95,3.96,3.93,5.52,-0.93,-0.93,-0.93
31.61,-4.82,-3.88,-4.82,-3.89,3.89,3.84,5.51,-0.93,-0.94,-0.94
31.93,-4.76,-3.81,-4.76,-3.82,3.82,3.75,5.49,-0.95,-0.95,-0.95
32.24,-4.70,-3.75,-4.70,-3.75,3.75,3.67,5.46,-0.95,-0.95,-0.95
32.57,-4.64,-3.68,-4.64,-3.68,3.68,3.58,5.42,-0.96,-0.96,-0.96
32.89,-4.58,-3.61,-4.58,-3.61,3.61,3.50,5.37,-0.97,-0.97,-0.97
33.22,-4.52,-3.54,-4.52,-3.54,3.54,3.41,5.32,-0.98,-0.98,-0.98
33.55,-4.46,-3.47,-4.46,-3.47,3.48,3.33,5.25,-0.98,-0.99,-0.99
33.89,-4.41,-3.41,-4.41,-3.41,3.41,3.25,5.18,-1.00,-0.99,-1.00
34.23,-4.35,-3.34,-4.35,-3.35,3.35,3.17,5.11,-1.00,-1.00,-1.01
34.57,-4.29,-3.28,-4.29,-3.28,3.28,3.10,5.02,-1.01,-1.01,-1.01
34.92,-4.24,-3.22,-4.24,-3.22,3.22,3.02,4.93,-1.02,-1.02,-1.02
35.27,-4.18,-3.15,-4.18,-3.16,3.16,2.95,4.84,-1.03,-1.03,-1.03
35.62,-4.12,-3.09,-4.12,-3.09,3.09,2.88,4.74,-1.03,-1.03,-1.03
35.97,-4.07,-3.03,-4.07,-3.03,3.03,2.81,4.64,-1.04,-1.04,-1.04
36.33,-4.00,-2.96,-4.01,-2.97,2.97,2.74,4.54,-1.03,-1.04,-1.04
36.70,-3.96,-2.91,-3.95,-2.90,2.90,2.67,4.43,-1.06,-1.05,-1.05
37.06,-3.89,-2.83,-3.89,-2.84,2.84,2.61,4.32,-1.05,-1.05,-1.06
37.43,-3.84,-2.78,-3.84,-2.78,2.78,2.54,4.21,-1.06,-1.06,-1.06
37.81,-3.78,-2.71,-3.78,-2.72,2.72,2.48,4.10,-1.06,-1.06,-1.07
38.19,-3.73,-2.66,-3.73,-2.66,2.66,2.42,3.99,-1.07,-1.07,-1.07
38.57,-3.68,-2.60,-3.68,-2.60,2.60,2.36,3.87,-1.08,-1.08,-1.08
38.95,-3.62,-2.54,-3.62,-2.54,2.54,2.30,3.76,-1.08,-1.08,-1.08
39.34,-3.56,-2.47,-3.56,-2.48,2.48,2.24,3.65,-1.08,-1.08,-1.09
39.74,-3.51,-2.42,-3.51,-2.42,2.42,2.19,3.54,-1.09,-1.09,-1.09
40.14,-3.46,-2.36,-3.46,-2.36,2.36,2.13,3.43,-1.10,-1.10,-1.10
40.54,-3.40,-2.30,-3.40,-2.30,2.30,2.08,3.32,-1.10,-1.10,-1.10
40.94,-3.34,-2.23,-3.34,-2.24,2.24,2.03,3.21,-1.10,-1.11,-1.11
41.35,-3.29,-2.18,-3.29,-2.18,2.18,1.98,3.11,-1.11,-1.11,-1.11
41.76,-3.23,-2.11,-3.23,-2.12,2.12,1.93,3.00,-1.11,-1.11,-1.12
42.18,-3.18,-2.06,-3.18,-2.06,2.06,1.88,2.90,-1.12,-1.12,-1.12
42.60,-3.13,-2.00,-3.13,-2.01,2.01,1.84,2.80,-1.12,-1.12,-1.13
43.03,-3.09,-1.96,-3.08,-1.95,1.95,1.79,2.70,-1.14,-1.13,-1.13
43.46,-3.03,-1.89,-3.03,-1.90,1.90,1.75,2.60,-1.13,-1.14,-1.14
43.90,-2.98,-1.84,-2.98,-1.84,1.84,1.70,2.50,-1.14,-1.14,-1.14
44.33,-2.93,-1.79,-2.93,-1.79,1.79,1.66,2.41,-1.14,-1.14,-1.14
44.78,-2.88,-1.73,-2.88,-1.74,1.74,1.62,2.31,-1.14,-1.14,-1.15
45.23,-2.83,-1.68,-2.83,-1.68,1.68,1.58,2.22,-1.15,-1.15,-1.15
45.68,-2.78,-1.63,-2.78,-1.63,1.63,1.54,2.13,-1.15,-1.15,-1.15
46.13,-2.73,-1.58,-2.73,-1.58,1.58,1.50,2.05,-1.15,-1.15,-1.15
46.60,-2.68,-1.53,-2.68,-1.54,1.54,1.46,1.96,-1.14,-1.15,-1.15
47.06,-2.64,-1.49,-2.64,-1.49,1.49,1.43,1.88,-1.15,-1.15,-1.15
47.53,-2.59,-1.44,-2.59,-1.44,1.44,1.39,1.79,-1.15,-1.15,-1.15
48.01,-2.55,-1.40,-2.55,-1.40,1.40,1.36,1.71,-1.15,-1.15,-1.15
48.49,-2.50,-1.35,-2.50,-1.36,1.36,1.32,1.63,-1.14,-1.15,-1.15
48.97,-2.46,-1.31,-2.46,-1.31,1.31,1.29,1.56,-1.15,-1.15,-1.15
49.46,-2.42,-1.27,-2.42,-1.27,1.27,1.26,1.48,-1.15,-1.15,-1.15
49.96,-2.38,-1.23,-2.38,-1.23,1.23,1.22,1.41,-1.15,-1.15,-1.15
50.46,-2.33,-1.18,-2.34,-1.19,1.19,1.19,1.33,-1.14,-1.15,-1.15
50.96,-2.30,-1.15,-2.30,-1.15,1.15,1.16,1.26,-1.15,-1.15,-1.15
51.47,-2.26,-1.11,-2.26,-1.11,1.11,1.13,1.20,-1.15,-1.15,-1.15
51.99,-2.22,-1.07,-2.22,-1.08,1.07,1.10,1.13,-1.15,-1.15,-1.15
52.51,-2.19,-1.04,-2.19,-1.04,1.04,1.07,1.06,-1.15,-1.15,-1.15
53.03,-2.15,-1.00,-2.15,-1.00,1.00,1.05,1.00,-1.15,-1.15,-1.15
53.56,-2.11,-0.96,-2.11,-0.96,0.97,1.02,0.94,-1.14,-1.14,-1.15
54.10,-2.07,-0.92,-2.08,-0.93,0.93,0.99,0.88,-1.14,-1.15,-1.15
54.64,-2.05,-0.90,-2.05,-0.90,0.90,0.97,0.82,-1.15,-1.15,-1.15
55.18,-2.02,-0.87,-2.02,-0.87,0.87,0.94,0.76,-1.15,-1.15,-1.15
55.74,-1.98,-0.83,-1.98,-0.84,0.83,0.91,0.71,-1.15,-1.15,-1.15
56.29,-1.95,-0.80,-1.95,-0.80,0.80,0.89,0.65,-1.15,-1.15,-1.15
56.86,-1.92,-0.77,-1.92,-0.77,0.78,0.87,0.60,-1.15,-1.14,-1.15
57.42,-1.89,-0.74,-1.89,-0.75,0.75,0.84,0.55,-1.14,-1.14,-1.15
58.00,-1.86,-0.72,-1.86,-0.72,0.72,0.82,0.51,-1.14,-1.14,-1.14
58.58,-1.84,-0.70,-1.84,-0.70,0.70,0.80,0.46,-1.14,-1.14,-1.14
59.16,-1.81,-0.67,-1.81,-0.68,0.68,0.77,0.42,-1.13,-1.14,-1.14
59.76,-1.79,-0.65,-1.79,-0.65,0.65,0.75,0.38,-1.14,-1.14,-1.14
60.35,-1.76,-0.63,-1.77,-0.64,0.63,0.73,0.34,-1.13,-1.13,-1.13
60.96,-1.75,-0.62,-1.74,-0.62,0.61,0.71,0.31,-1.14,-1.13,-1.13
61.57,-1.72,-0.59,-1.72,-0.59,0.59,0.68,0.27,-1.13,-1.13,-1.13
62.18,-1.69,-0.56,-1.69,-0.57,0.57,0.66,0.24,-1.12,-1.12,-1.13
62.80,-1.67,-0.54,-1.67,-0.55,0.55,0.64,0.21,-1.12,-1.12,-1.13
63.43,-1.65,-0.53,-1.65,-0.53,0.53,0.62,0.18,-1.12,-1.12,-1.12
64.07,-1.64,-0.52,-1.63,-0.52,0.51,0.60,0.16,-1.13,-1.12,-1.12
64.71,-1.61,-0.49,-1.62,-0.50,0.50,0.58,0.14,-1.11,-1.12,-1.12
65.35,-1.60,-0.48,-1.60,-0.48,0.48,0.56,0.11,-1.12,-1.12,-1.12
66.01,-1.58,-0.46,-1.58,-0.46,0.46,0.54,0.10,-1.12,-1.12,-1.12
66.67,-1.56,-0.44,-1.56,-0.44,0.44,0.52,0.08,-1.12,-1.12,-1.12
67.33,-1.54,-0.42,-1.54,-0.43,0.43,0.50,0.06,-1.11,-1.11,-1.12
68.01,-1.53,-0.41,-1.53,-0.41,0.41,0.48,0.05,-1.12,-1.11,-1.12
68.69,-1.51,-0.39,-1.51,-0.40,0.40,0.46,0.04,-1.11,-1.12,-1.12
69.37,-1.50,-0.38,-1.50,-0.38,0.38,0.44,0.03,-1.12,-1.12,-1.12
70.07,-1.49,-0.37,-1.49,-0.37,0.37,0.42,0.02,-1.12,-1.12,-1.12
70.77,-1.47,-0.35,-1.47,-0.36,0.36,0.41,0.01,-1.11,-1.12,-1.12
71.48,-1.46,-0.34,-1.46,-0.34,0.34,0.39,0.00,-1.12,-1.12,-1.12
72.19,-1.45,-0.33,-1.45,-0.33,0.33,0.37,-0.00,-1.12,-1.12,-1.12
72.91,-1.43,-0.31,-1.43,-0.31,0.31,0.35,-0.01,-1.12,-1.12,-1.12
73.64,-1.42,-0.29,-1.42,-0.30,0.30,0.33,-0.01,-1.12,-1.12,-1.13
74.38,-1.41,-0.28,-1.41,-0.28,0.28,0.31,-0.01,-1.13,-1.12,-1.13
75.12,-1.39,-0.26,-1.39,-0.26,0.26,0.29,-0.02,-1.13,-1.13,-1.13
75.87,-1.38,-0.24,-1.38,-0.25,0.25,0.27,-0.02,-1.13,-1.13,-1.14
76.63,-1.37,-0.23,-1.37,-0.23,0.23,0.25,-0.02,-1.14,-1.14,-1.14
77.40,-1.36,-0.21,-1.36,-0.21,0.21,0.23,-0.02,-1.15,-1.15,-1.15
78.17,-1.35,-0.19,-1.35,-0.19,0.19,0.21,-0.02,-1.16,-1.16,-1.16
78.95,-1.33,-0.16,-1.33,-0.17,0.17,0.19,-0.02,-1.16,-1.17,-1.17
79.74,-1.32,-0.14,-1.32,-0.14,0.14,0.16,-0.02,-1.18,-1.18,-1.18
80.54,-1.31,-0.12,-1.31,-0.12,0.12,0.14,-0.02,-1.19,-1.19,-1.19
81.35,-1.29,-0.09,-1.29,-0.10,0.09,0.12,-0.02,-1.20,-1.20,-1.20
82.16,-1.28,-0.07,-1.28,-0.07,0.07,0.10,-0.02,-1.21,-1.21,-1.21
82.98,-1.26,-0.04,-1.26,-0.05,0.05,0.08,-0.02,-1.21,-1.22,-1.22
83.81,-1.25,-0.02,-1.25,-0.02,0.02,0.06,-0.02,-1.23,-1.23,-1.23
84.65,-1.25,-0.00,-1.24,0.00,0.00,0.03,-0.02,-1.25,-1.24,-1.25
85.50,-1.23,0.03,-1.23,0.02,-0.02,0.01,-0.02,-1.25,-1.25,-1.26
86.35,-1.22,0.04,-1.22,0.04,-0.04,-0.01,-0.02,-1.26,-1.26,-1.26
87.22,-1.22,0.05,-1.21,0.05,-0.05,-0.03,-0.01,-1.27,-1.27,-1.27
88.09,-1.21,0.07,-1.21,0.07,-0.07,-0.06,-0.01,-1.28,-1.28,-1.28
88.97,-1.20,0.09,-1.20,0.08,-0.08,-0.08,-0.01,-1.28,-1.29,-1.29
89.86,-1.20,0.10,-1.20,0.10,-0.10,-0.10,-0.01,-1.30,-1.29,-1.30
90.76,-1.19,0.11,-1.19,0.11,-0.11,-0.13,-0.01,-1.30,-1.30,-1.30
91.66,-1.19,0.12,-1.19,0.12,-0.12,-0.15,-0.01,-1.31,-1.31,-1.31
92.58,-1.18,0.13,-1.18,0.13,-0.13,-0.17,-0.01,-1.31,-1.31,-1.31
93.51,-1.18,0.14,-1.18,0.14,-0.14,-0.19,-0.01,-1.32,-1.31,-1.32
94.44,-1.17,0.15,-1.17,0.15,-0.15,-0.21,-0.01,-1.32,-1.32,-1.32
95.39,-1.17,0.16,-1.17,0.15,-0.15,-0.23,-0.01,-1.32,-1.33,-1.33
96.34,-1.17,0.16,-1.17,0.16,-0.16,-0.24,-0.01,-1.33,-1.33,-1.33
97.30,-1.17,0.17,-1.17,0.17,-0.17,-0.26,-0.01,-1.34,-1.34,-1.34
98.28,-1.16,0.18,-1.16,0.18,-0.18,-0.27,-0.01,-1.34,-1.34,-1.34
99.26,-1.16,0.19,-1.16,0.19,-0.19,-0.29,-0.01,-1.35,-1.35,-1.35
100.25,-1.16,0.20,-1.16,0.20,-0.20,-0.30,-0.01,-1.36,-1.35,-1.36
101.25,-1.16,0.21,-1.16,0.20,-0.20,-0.31,-0.02,-1.36,-1.37,-1.37
102.27,-1.17,0.21,-1.17,0.21,-0.21,-0.31,-0.02,-1.38,-1.38,-1.38
103.29,-1.17,0.22,-1.17,0.22,-0.22,-0.32,-0.02,-1.39,-1.39,-1.39
104.32,-1.17,0.23,-1.17,0.22,-0.22,-0.32,-0.02,-1.39,-1.40,-1.40
105.37,-1.18,0.23,-1.18,0.23,-0.23,-0.32,-0.02,-1.41,-1.41,-1.41
106.42,-1.19,0.23,-1.19,0.23,-0.23,-0.32,-0.02,-1.42,-1.42,-1.42
107.48,-1.19,0.24,-1.19,0.23,-0.24,-0.32,-0.02,-1.43,-1.43,-1.43
108.56,-1.20,0.24,-1.20,0.24,-0.24,-0.32,-0.02,-1.44,-1.44,-1.44
109.64,-1.20,0.25,-1.20,0.25,-0.24,-0.31,-0.02,-1.44,-1.45,-1.45
110.74,-1.21,0.25,-1.21,0.25,-0.25,-0.31,-0.03,-1.46,-1.46,-1.46
111.85,-1.21,0.26,-1.21,0.25,-0.25,-0.30,-0.03,-1.46,-1.47,-1.47
112.97,-1.22,0.26,-1.22,0.26,-0.26,-0.29,-0.03,-1.48,-1.48,-1.48
114.10,-1.23,0.26,-1.22,0.26,-0.27,-0.28,-0.03,-1.50,-1.49,-1.49
115.24,-1.22,0.28,-1.23,0.27,-0.27,-0.27,-0.03,-1.49,-1.50,-1.50
116.39,-1.23,0.28,-1.23,0.28,-0.27,-0.26,-0.03,-1.50,-1.50,-1.51
117.55,-1.24,0.28,-1.24,0.28,-0.28,-0.25,-0.03,-1.52,-1.51,-1.52
118.73,-1.24,0.29,-1.24,0.28,-0.28,-0.24,-0.04,-1.52,-1.52,-1.53
119.92,-1.25,0.28,-1.25,0.28,-0.28,-0.23,-0.04,-1.53,-1.53,-1.53
121.12,-1.25,0.29,-1.25,0.28,-0.28,-0.23,-0.04,-1.53,-1.54,-1.54
122.33,-1.26,0.28,-1.26,0.28,-0.28,-0.22,-0.04,-1.54,-1.54,-1.54
123.55,-1.26,0.29,-1.26,0.28,-0.28,-0.21,-0.04,-1.54,-1.54,-1.55
124.79,-1.27,0.28,-1.27,0.28,-0.28,-0.20,-0.04,-1.55,-1.55,-1.55
126.03,-1.27,0.29,-1.27,0.28,-0.28,-0.19,-0.04,-1.55,-1.56,-1.56
127.29,-1.28,0.28,-1.28,0.28,-0.28,-0.18,-0.04,-1.56,-1.56,-1.56
128.57,-1.28,0.28,-1.28,0.28,-0.28,-0.17,-0.04,-1.56,-1.56,-1.56
129.85,-1.28,0.29,-1.28,0.28,-0.28,-0.17,-0.04,-1.56,-1.56,-1.57
131.15,-1.29,0.28,-1.29,0.28,-0.28,-0.16,-0.04,-1.57,-1.56,-1.57
132.46,-1.29,0.28,-1.29,0.28,-0.28,-0.15,-0.04,-1.57,-1.56,-1.57
133.79,-1.29,0.28,-1.29,0.27,-0.27,-0.15,-0.04,-1.56,-1.57,-1.57
135.12,-1.30,0.27,-1.30,0.27,-0.27,-0.14,-0.04,-1.57,-1.57,-1.57
136.48,-1.31,0.26,-1.31,0.26,-0.26,-0.14,-0.04,-1.57,-1.57,-1.57
137.84,-1.31,0.25,-1.31,0.25,-0.25,-0.13,-0.04,-1.56,-1.56,-1.56
139.22,-1.31,0.25,-1.31,0.24,-0.24,-0.13,-0.04,-1.55,-1.56,-1.56
140.61,-1.32,0.24,-1.32,0.24,-0.23,-0.12,-0.04,-1.55,-1.55,-1.56
142.02,-1.32,0.23,-1.32,0.23,-0.23,-0.12,-0.04,-1.55,-1.55,-1.55
143.44,-1.33,0.21,-1.33,0.21,-0.22,-0.12,-0.04,-1.55,-1.54,-1.54
144.87,-1.33,0.21,-1.33,0.20,-0.21,-0.11,-0.04,-1.54,-1.54,-1.54
146.32,-1.33,0.20,-1.33,0.19,-0.19,-0.11,-0.04,-1.52,-1.53,-1.53
147.78,-1.34,0.18,-1.34,0.19,-0.18,-0.11,-0.04,-1.52,-1.52,-1.52
149.26,-1.34,0.18,-1.34,0.17,-0.17,-0.11,-0.04,-1.51,-1.51,-1.52
150.75,-1.35,0.16,-1.35,0.16,-0.16,-0.10,-0.04,-1.51,-1.51,-1.51
152.26,-1.36,0.14,-1.36,0.14,-0.14,-0.10,-0.04,-1.50,-1.50,-1.50
153.78,-1.36,0.13,-1.36,0.12,-0.12,-0.10,-0.04,-1.48,-1.49,-1.49
155.32,-1.37,0.11,-1.37,0.11,-0.11,-0.10,-0.04,-1.48,-1.48,-1.48
156.88,-1.38,0.09,-1.38,0.09,-0.09,-0.10,-0.04,-1.47,-1.47,-1.47
158.44,-1.39,0.07,-1.39,0.07,-0.07,-0.10,-0.04,-1.46,-1.46,-1.46
160.03,-1.39,0.06,-1.40,0.05,-0.05,-0.10,-0.04,-1.44,-1.45,-1.45
161.63,-1.41,0.03,-1.40,0.03,-0.04,-0.10,-0.05,-1.45,-1.44,-1.44
163.24,-1.41,0.02,-1.41,0.02,-0.02,-0.10,-0.05,-1.43,-1.43,-1.43
164.88,-1.41,0.01,-1.41,0.00,-0.00,-0.10,-0.05,-1.41,-1.42,-1.42
166.53,-1.42,-0.01,-1.42,-0.01,0.02,-0.10,-0.05,-1.40,-1.40,-1.41
168.19,-1.43,-0.03,-1.43,-0.03,0.03,-0.10,-0.05,-1.40,-1.40,-1.40
169.87,-1.44,-0.05,-1.44,-0.05,0.05,-0.10,-0.05,-1.39,-1.39,-1.39
171.57,-1.45,-0.06,-1.45,-0.07,0.07,-0.10,-0.05,-1.38,-1.38,-1.39
173.29,-1.46,-0.08,-1.46,-0.08,0.08,-0.10,-0.05,-1.38,-1.38,-1.38
175.02,-1.47,-0.10,-1.47,-0.10,0.10,-0.10,-0.05,-1.37,-1.37,-1.37
176.77,-1.48,-0.11,-1.48,-0.12,0.12,-0.10,-0.05,-1.36,-1.36,-1.37
178.54,-1.49,-0.13,-1.49,-0.13,0.13,-0.10,-0.05,-1.36,-1.36,-1.36
180.32,-1.51,-0.15,-1.51,-0.15,0.15,-0.10,-0.05,-1.36,-1.36,-1.36
182.13,-1.52,-0.16,-1.52,-0.17,0.16,-0.10,-0.05,-1.36,-1.36,-1.36
183.95,-1.54,-0.18,-1.53,-0.18,0.18,-0.10,-0.05,-1.36,-1.36,-1.36
185.79,-1.54,-0.18,-1.54,-0.19,0.19,-0.10,-0.06,-1.35,-1.36,-1.36
187.65,-1.55,-0.19,-1.55,-0.20,0.20,-0.11,-0.06,-1.35,-1.35,-1.36
189.52,-1.57,-0.21,-1.56,-0.21,0.21,-0.11,-0.06,-1.36,-1.36,-1.36
191.42,-1.57,-0.21,-1.57,-0.22,0.21,-0.11,-0.06,-1.36,-1.36,-1.36
193.33,-1.58,-0.22,-1.58,-0.22,0.22,-0.11,-0.06,-1.36,-1.36,-1.36
195.27,-1.58,-0.22,-1.58,-0.22,0.22,-0.11,-0.06,-1.36,-1.36,-1.36
197.22,-1.59,-0.22,-1.59,-0.22,0.22,-0.11,-0.06,-1.37,-1.37,-1.37
199.19,-1.59,-0.22,-1.59,-0.22,0.22,-0.12,-0.06,-1.37,-1.37,-1.37
201.18,-1.58,-0.20,-1.59,-0.21,0.21,-0.12,-0.07,-1.37,-1.38,-1.38
203.19,-1.59,-0.21,-1.58,-0.20,0.20,-0.12,-0.07,-1.39,-1.38,-1.38
205.23,-1.58,-0.19,-1.58,-0.20,0.19,-0.12,-0.07,-1.39,-1.39,-1.39
207.28,-1.57,-0.18,-1.58,-0.18,0.18,-0.12,-0.07,-1.39,-1.39,-1.39
209.35,-1.57,-0.17,-1.57,-0.17,0.17,-0.13,-0.07,-1.40,-1.40,-1.40
211.44,-1.56,-0.15,-1.56,-0.16,0.16,-0.13,-0.07,-1.40,-1.40,-1.41
213.56,-1.55,-0.14,-1.55,-0.14,0.15,-0.13,-0.07,-1.40,-1.41,-1.41
215.69,-1.55,-0.13,-1.55,-0.13,0.13,-0.13,-0.08,-1.42,-1.42,-1.42
217.85,-1.55,-0.13,-1.55,-0.13,0.12,-0.14,-0.08,-1.43,-1.42,-1.42
220.03,-1.54,-0.11,-1.54,-0.11,0.12,-0.14,-0.08,-1.42,-1.42,-1.43
222.23,-1.53,-0.10,-1.54,-0.11,0.11,-0.14,-0.08,-1.42,-1.42,-1.43
224.45,-1.53,-0.10,-1.53,-0.10,0.11,-0.14,-0.08,-1.42,-1.42,-1.43
226.70,-1.54,-0.11,-1.53,-0.10,0.11,-0.15,-0.08,-1.43,-1.42,-1.43
228.96,-1.53,-0.10,-1.54,-0.11,0.11,-0.15,-0.08,-1.42,-1.43,-1.43
231.25,-1.54,-0.11,-1.54,-0.11,0.11,-0.15,-0.08,-1.43,-1.42,-1.43
233.57,-1.54,-0.12,-1.54,-0.12,0.12,-0.15,-0.08,-1.42,-1.42,-1.42
235.90,-1.54,-0.12,-1.54,-0.13,0.13,-0.16,-0.08,-1.41,-1.42,-1.42
238.26,-1.54,-0.13,-1.54,-0.13,0.13,-0.16,-0.08,-1.41,-1.41,-1.41
240.64,-1.54,-0.14,-1.54,-0.14,0.14,-0.16,-0.08,-1.40,-1.40,-1.40
243.05,-1.53,-0.13,-1.53,-0.14,0.14,-0.16,-0.08,-1.39,-1.39,-1.40
245.48,-1.53,-0.14,-1.53,-0.14,0.14,-0.17,-0.08,-1.39,-1.39,-1.39
247.93,-1.52,-0.14,-1.52,-0.14,0.14,-0.17,-0.07,-1.38,-1.38,-1.38
250.41,-1.51,-0.14,-1.51,-0.14,0.14,-0.17,-0.07,-1.37,-1.37,-1.37
252.92,-1.49,-0.12,-1.49,-0.13,0.13,-0.18,-0.07,-1.36,-1.37,-1.37
255.45,-1.48,-0.12,-1.47,-0.12,0.11,-0.18,-0.07,-1.37,-1.36,-1.36
258.00,-1.45,-0.10,-1.45,-0.10,0.10,-0.18,-0.07,-1.35,-1.35,-1.35
260.58,-1.42,-0.07,-1.42,-0.08,0.07,-0.18,-0.06,-1.35,-1.35,-1.35
263.19,-1.39,-0.04,-1.39,-0.05,0.04,-0.19,-0.06,-1.35,-1.35,-1.35
265.82,-1.36,-0.02,-1.36,-0.02,0.01,-0.19,-0.06,-1.35,-1.34,-1.34
268.48,-1.32,0.02,-1.32,0.02,-0.02,-0.19,-0.05,-1.34,-1.34,-1.34
271.16,-1.28,0.06,-1.28,0.05,-0.05,-0.20,-0.05,-1.33,-1.33,-1.34
273.87,-1.25,0.09,-1.25,0.09,-0.08,-0.20,-0.04,-1.33,-1.33,-1.34
276.61,-1.22,0.11,-1.22,0.11,-0.11,-0.20,-0.04,-1.33,-1.33,-1.33
279.38,-1.19,0.14,-1.19,0.14,-0.13,-0.20,-0.03,-1.32,-1.32,-1.33
282.17,-1.17,0.16,-1.17,0.15,-0.15,-0.21,-0.03,-1.32,-1.32,-1.33
284.99,-1.15,0.17,-1.15,0.17,-0.17,-0.21,-0.02,-1.32,-1.32,-1.32
287.84,-1.14,0.18,-1.14,0.18,-0.18,-0.21,-0.02,-1.32,-1.31,-1.32
290.72,-1.12,0.19,-1.13,0.18,-0.18,-0.21,-0.01,-1.30,-1.31,-1.31
293.63,-1.12,0.19,-1.12,0.19,-0.18,-0.21,-0.01,-1.30,-1.30,-1.31
296.57,-1.12,0.18,-1.12,0.18,-0.18,-0.22,-0.00,-1.30,-1.30,-1.30
299.53,-1.12,0.18,-1.12,0.17,-0.17,-0.22,0.00,-1.29,-1.30,-1.30
302.53,-1.12,0.17,-1.12,0.17,-0.17,-0.22,0.01,-1.29,-1.29,-1.29
305.55,-1.12,0.16,-1.12,0.16,-0.16,-0.22,0.02,-1.28,-1.28,-1.28
308.61,-1.11,0.16,-1.11,0.15,-0.16,-0.22,0.02,-1.27,-1.27,-1.27
311.69,-1.11,0.15,-1.11,0.15,-0.15,-0.22,0.03,-1.26,-1.26,-1.26
314.81,-1.10,0.15,-1.10,0.15,-0.15,-0.22,0.04,-1.25,-1.25,-1.25
317.96,-1.09,0.15,-1.09,0.15,-0.15,-0.23,0.04,-1.24,-1.24,-1.24
321.14,-1.07,0.16,-1.07,0.15,-0.15,-0.23,0.05,-1.22,-1.23,-1.23
324.35,-1.06,0.16,-1.06,0.16,-0.16,-0.23,0.06,-1.22,-1.22,-1.22
327.59,-1.04,0.17,-1.04,0.17,-0.17,-0.22,0.06,-1.21,-1.21,-1.21
330.87,-1.02,0.19,-1.02,0.18,-0.19,-0.22,0.07,-1.21,-1.21,-1.21
334.18,-1.00,0.20,-1.00,0.20,-0.20,-0.22,0.08,-1.20,-1.20,-1.20
337.52,-0.97,0.23,-0.97,0.22,-0.22,-0.22,0.09,-1.19,-1.19,-1.20
340.90,-0.95,0.24,-0.95,0.24,-0.24,-0.22,0.09,-1.19,-1.19,-1.19
344.30,-0.94,0.25,-0.93,0.25,-0.25,-0.22,0.10,-1.19,-1.19,-1.19
347.75,-0.92,0.27,-0.92,0.27,-0.27,-0.21,0.11,-1.19,-1.19,-1.19
351.23,-0.90,0.29,-0.90,0.28,-0.28,-0.21,0.12,-1.18,-1.19,-1.19
354.74,-0.89,0.30,-0.89,0.30,-0.30,-0.20,0.12,-1.19,-1.19,-1.19
358.28,-0.89,0.31,-0.89,0.31,-0.31,-0.20,0.13,-1.20,-1.19,-1.20
361.87,-0.88,0.32,-0.88,0.31,-0.32,-0.19,0.14,-1.20,-1.20,-1.20
365.49,-0.88,0.32,-0.88,0.32,-0.32,-0.18,0.15,-1.20,-1.20,-1.20
369.14,-0.87,0.33,-0.87,0.33,-0.33,-0.17,0.16,-1.20,-1.20,-1.20
372.83,-0.87,0.33,-0.87,0.33,-0.33,-0.16,0.16,-1.20,-1.20,-1.20
376.56,-0.86,0.33,-0.86,0.33,-0.33,-0.15,0.17,-1.19,-1.19,-1.19
380.33,-0.87,0.32,-0.87,0.32,-0.32,-0.13,0.18,-1.19,-1.19,-1.19
384.13,-0.88,0.31,-0.88,0.30,-0.30,-0.12,0.19,-1.18,-1.18,-1.19
387.97,-0.90,0.28,-0.90,0.28,-0.28,-0.10,0.20,-1.18,-1.18,-1.18
391.85,-0.92,0.26,-0.92,0.25,-0.25,-0.08,0.21,-1.17,-1.17,-1.18
395.77,-0.96,0.21,-0.96,0.21,-0.21,-0.06,0.22,-1.17,-1.16,-1.17
399.73,-0.99,0.17,-0.99,0.17,-0.16,-0.04,0.22,-1.15,-1.16,-1.16
403.72,-1.04,0.12,-1.04,0.11,-0.11,-0.01,0.23,-1.15,-1.15,-1.16
407.76,-1.09,0.06,-1.09,0.06,-0.06,0.02,0.24,-1.15,-1.15,-1.15
411.84,-1.15,-0.01,-1.15,-0.01,0.00,0.06,0.25,-1.15,-1.14,-1.14
415.96,-1.20,-0.07,-1.20,-0.07,0.07,0.10,0.26,-1.13,-1.13,-1.13
420.12,-1.26,-0.13,-1.26,-0.14,0.14,0.14,0.26,-1.12,-1.12,-1.13
424.32,-1.32,-0.20,-1.32,-0.21,0.21,0.18,0.27,-1.11,-1.11,-1.12
428.56,-1.39,-0.28,-1.39,-0.28,0.29,0.23,0.28,-1.10,-1.10,-1.11
432.85,-1.46,-0.36,-1.46,-0.36,0.36,0.29,0.29,-1.10,-1.09,-1.10
