frequency,raw,error,smoothed,error_smoothed,equalization,parametric_eq,fixed_band_eq,equalized_raw,equalized_smoothed,target
20.00,4.70,2.06,4.70,2.06,-2.05,-2.00,-0.96,2.65,2.65,2.64
20.20,4.72,2.04,4.72,2.04,-2.03,-2.00,-0.99,2.68,2.68,2.68
20.40,4.74,2.02,4.74,2.02,-2.02,-2.00,-1.02,2.72,2.72,2.72
20.61,4.76,2.02,4.76,2.01,-2.01,-2.00,-1.05,2.74,2.74,2.74
20.81,4.78,2.00,4.78,2.00,-2.01,-2.00,-1.08,2.77,2.77,2.78
21.02,4.80,1.98,4.80,1.99,-2.00,-2.00,-1.12,2.80,2.80,2.82
21.23,4.82,1.99,4.82,1.98,-2.00,-2.01,-1.15,2.82,2.82,2.83
21.44,4.84,1.99,4.84,2.00,-2.00,-2.01,-1.18,2.84,2.84,2.85
21.66,4.87,2.01,4.87,2.01,-2.01,-2.01,-1.22,2.86,2.86,2.86
21.87,4.89,2.03,4.89,2.02,-2.01,-2.01,-1.25,2.88,2.87,2.86
22.09,4.90,2.03,4.90,2.03,-2.02,-2.01,-1.29,2.88,2.88,2.87
22.31,4.90,2.03,4.90,2.03,-2.03,-2.01,-1.33,2.87,2.87,2.87
22.54,4.90,2.03,4.90,2.04,-2.04,-2.01,-1.37,2.86,2.86,2.87
22.76,4.90,2.04,4.90,2.04,-2.05,-2.01,-1.41,2.85,2.85,2.86
22.99,4.90,2.05,4.90,2.05,-2.05,-2.01,-1.45,2.85,2.85,2.85
23.22,4.90,2.05,4.90,2.06,-2.05,-2.01,-1.49,2.84,2.84,2.85
23.45,4.90,2.06,4.90,2.06,-2.06,-2.01,-1.53,2.84,2.84,2.83
23.69,4.90,2.06,4.90,2.06,-2.06,-2.01,-1.58,2.84,2.84,2.83
23.92,4.90,2.06,4.90,2.06,-2.06,-2.01,-1.62,2.84,2.84,2.83
24.16,4.90,2.06,4.90,2.06,-2.06,-2.01,-1.67,2.84,2.84,2.84
24.40,4.90,2.06,4.90,2.06,-2.06,-2.01,-1.71,2.84,2.84,2.84
24.65,4.90,2.07,4.90,2.06,-2.06,-2.01,-1.76,2.83,2.83,2.83
24.89,4.90,2.07,4.90,2.07,-2.07,-2.01,-1.81,2.83,2.83,2.83
25.14,4.90,2.07,4.90,2.07,-2.07,-2.01,-1.85,2.83,2.83,2.83
25.39,4.90,2.07,4.90,2.07,-2.07,-2.01,-1.90,2.82,2.82,2.83
25.65,4.90,2.08,4.90,2.08,-2.08,-2.01,-1.95,2.82,2.82,2.82
25.91,4.90,2.09,4.90,2.09,-2.08,-2.01,-1.99,2.82,2.82,2.81
26.16,4.90,2.09,4.90,2.09,-2.09,-2.01,-2.04,2.81,2.81,2.81
26.43,4.90,2.09,4.90,2.09,-2.09,-2.01,-2.09,2.81,2.81,2.81
26.69,4.90,2.09,4.90,2.10,-2.10,-2.01,-2.14,2.80,2.80,2.81
26.96,4.90,2.10,4.90,2.10,-2.10,-2.01,-2.18,2.80,2.80,2.80
27.23,4.90,2.10,4.90,2.10,-2.11,-2.01,-2.22,2.79,2.79,2.80
27.50,4.90,2.10,4.90,2.11,-2.11,-2.01,-2.27,2.79,2.79,2.79
27.77,4.90,2.12,4.90,2.11,-2.11,-2.01,-2.31,2.78,2.78,2.78
28.05,4.90,2.12,4.90,2.12,-2.12,-2.02,-2.35,2.78,2.78,2.78
28.33,4.90,2.13,4.90,2.12,-2.12,-2.02,-2.39,2.78,2.78,2.77
28.62,4.90,2.13,4.90,2.13,-2.12,-2.02,-2.42,2.78,2.78,2.77
28.90,4.90,2.13,4.90,2.13,-2.13,-2.02,-2.46,2.77,2.77,2.77
29.19,4.90,2.13,4.90,2.13,-2.13,-2.02,-2.49,2.77,2.77,2.77
29.48,4.90,2.12,4.90,2.13,-2.13,-2.02,-2.51,2.77,2.77,2.78
29.78,4.90,2.13,4.90,2.13,-2.13,-2.02,-2.54,2.77,2.77,2.77
30.08,4.90,2.12,4.90,2.13,-2.14,-2.02,-2.56,2.76,2.76,2.77
30.38,4.90,2.14,4.90,2.14,-2.14,-2.02,-2.58,2.76,2.76,2.75
30.68,4.90,2.15,4.90,2.15,-2.14,-2.02,-2.59,2.75,2.75,2.75
30.99,4.90,2.16,4.90,2.15,-2.15,-2.02,-2.60,2.75,2.75,2.74
31.30,4.90,2.16,4.90,2.16,-2.16,-2.02,-2.61,2.74,2.74,2.74
31.61,4.90,2.16,4.90,2.17,-2.17,-2.02,-2.62,2.73,2.73,2.74
31.93,4.90,2.18,4.90,2.18,-2.18,-2.02,-2.62,2.72,2.72,2.72
32.24,4.90,2.19,4.90,2.19,-2.19,-2.02,-2.61,2.71,2.71,2.71
32.57,4.90,2.19,4.90,2.20,-2.20,-2.02,-2.60,2.70,2.70,2.70
32.89,4.90,2.21,4.90,2.21,-2.21,-2.02,-2.60,2.69,2.69,2.69
33.22,4.90,2.23,4.90,2.22,-2.22,-2.02,-2.58,2.68,2.68,2.67
33.55,4.90,2.23,4.90,2.23,-2.24,-2.02,-2.57,2.66,2.66,2.67
33.89,4.90,2.25,4.90,2.25,-2.25,-2.02,-2.55,2.65,2.65,2.65
34.23,4.90,2.25,4.90,2.26,-2.27,-2.02,-2.53,2.63,2.63,2.64
34.57,4.90,2.28,4.90,2.27,-2.28,-2.02,-2.50,2.62,2.62,2.62
34.92,4.90,2.29,4.90,2.28,-2.29,-2.02,-2.48,2.61,2.61,2.61
35.27,4.90,2.29,4.90,2.30,-2.29,-2.02,-2.45,2.60,2.61,2.61
35.62,4.90,2.31,4.90,2.31,-2.29,-2.02,-2.42,2.60,2.61,2.59
35.97,4.90,2.32,4.89,2.31,-2.29,-2.02,-2.39,2.61,2.60,2.57
36.33,4.86,2.29,4.86,2.29,-2.28,-2.02,-2.36,2.57,2.57,2.57
36.70,4.82,2.26,4.82,2.26,-2.27,-2.02,-2.33,2.55,2.55,2.56
37.06,4.79,2.24,4.79,2.24,-2.26,-2.02,-2.29,2.53,2.54,2.55
37.43,4.78,2.22,4.78,2.23,-2.24,-2.02,-2.26,2.54,2.54,2.55
37.81,4.77,2.23,4.76,2.22,-2.22,-2.02,-2.23,2.55,2.54,2.54
38.19,4.75,2.22,4.75,2.21,-2.21,-2.03,-2.19,2.54,2.54,2.53
38.57,4.73,2.19,4.73,2.20,-2.20,-2.03,-2.16,2.53,2.53,2.53
38.95,4.70,2.18,4.71,2.18,-2.19,-2.03,-2.13,2.51,2.52,2.52
39.34,4.70,2.18,4.70,2.18,-2.19,-2.03,-2.10,2.51,2.51,2.52
39.74,4.70,2.19,4.70,2.19,-2.20,-2.03,-2.07,2.50,2.50,2.51
40.14,4.70,2.20,4.70,2.20,-2.20,-2.03,-2.04,2.50,2.50,2.50
40.54,4.70,2.20,4.70,2.20,-2.21,-2.03,-2.01,2.49,2.49,2.50
40.94,4.70,2.20,4.70,2.21,-2.21,-2.03,-1.98,2.49,2.49,2.49
41.35,4.70,2.22,4.70,2.22,-2.21,-2.03,-1.95,2.49,2.49,2.48
41.76,4.70,2.23,4.69,2.22,-2.20,-2.03,-1.93,2.50,2.49,2.47
42.18,4.68,2.22,4.67,2.21,-2.19,-2.03,-1.90,2.49,2.48,2.46
42.60,4.64,2.19,4.64,2.19,-2.18,-2.03,-1.88,2.46,2.47,2.45
43.03,4.60,2.16,4.59,2.16,-2.16,-2.03,-1.85,2.44,2.43,2.44
43.46,4.55,2.13,4.55,2.13,-2.15,-2.03,-1.83,2.40,2.40,2.42
43.90,4.50,2.11,4.51,2.11,-2.14,-2.03,-1.81,2.36,2.37,2.39
44.33,4.49,2.11,4.49,2.11,-2.14,-2.03,-1.80,2.35,2.35,2.38
44.78,4.49,2.13,4.48,2.13,-2.14,-2.03,-1.78,2.34,2.34,2.35
45.23,4.49,2.15,4.49,2.15,-2.15,-2.02,-1.76,2.34,2.34,2.34
45.68,4.49,2.17,4.49,2.17,-2.15,-2.02,-1.75,2.34,2.34,2.32
46.13,4.49,2.18,4.49,2.18,-2.15,-2.02,-1.74,2.34,2.35,2.31
46.60,4.48,2.18,4.48,2.18,-2.14,-2.02,-1.72,2.34,2.34,2.30
47.06,4.46,2.16,4.44,2.15,-2.13,-2.02,-1.71,2.33,2.31,2.29
47.53,4.39,2.10,4.39,2.10,-2.11,-2.02,-1.71,2.28,2.28,2.29
48.01,4.32,2.04,4.34,2.06,-2.09,-2.02,-1.70,2.22,2.24,2.28
48.49,4.31,2.04,4.30,2.04,-2.08,-2.02,-1.69,2.23,2.22,2.26
48.97,4.29,2.04,4.29,2.04,-2.07,-2.02,-1.69,2.22,2.22,2.25
49.46,4.29,2.05,4.29,2.05,-2.05,-2.02,-1.68,2.23,2.23,2.24
49.96,4.29,2.07,4.29,2.06,-2.04,-2.02,-1.68,2.24,2.25,2.22
50.46,4.29,2.05,4.29,2.06,-2.04,-2.02,-1.68,2.25,2.25,2.23
50.96,4.29,2.06,4.27,2.05,-2.03,-2.02,-1.68,2.26,2.25,2.23
51.47,4.24,2.02,4.24,2.02,-2.01,-2.02,-1.68,2.23,2.23,2.22
51.99,4.19,1.98,4.20,1.99,-1.99,-2.02,-1.68,2.20,2.22,2.21
52.51,4.16,1.95,4.16,1.95,-1.96,-2.01,-1.68,2.20,2.21,2.21
53.03,4.14,1.93,4.12,1.92,-1.92,-2.01,-1.68,2.22,2.20,2.21
53.56,4.08,1.88,4.08,1.88,-1.89,-2.01,-1.68,2.19,2.20,2.20
54.10,4.04,1.85,4.04,1.85,-1.86,-2.01,-1.69,2.18,2.19,2.19
54.64,4.01,1.82,4.01,1.82,-1.83,-2.01,-1.69,2.18,2.18,2.19
55.18,3.98,1.80,3.98,1.80,-1.80,-2.01,-1.70,2.18,2.18,2.18
55.74,3.95,1.78,3.95,1.78,-1.77,-2.01,-1.70,2.18,2.18,2.17
56.29,3.93,1.76,3.93,1.77,-1.75,-2.00,-1.70,2.18,2.18,2.17
56.86,3.90,1.75,3.89,1.74,-1.73,-2.00,-1.71,2.17,2.15,2.15
57.42,3.85,1.71,3.84,1.71,-1.72,-2.00,-1.71,2.13,2.12,2.13
58.00,3.79,1.67,3.81,1.69,-1.71,-2.00,-1.71,2.08,2.10,2.12
58.58,3.79,1.68,3.79,1.68,-1.70,-2.00,-1.72,2.09,2.09,2.11
59.16,3.79,1.69,3.78,1.69,-1.69,-1.99,-1.72,2.10,2.10,2.09
59.76,3.78,1.71,3.77,1.70,-1.68,-1.99,-1.72,2.10,2.10,2.07
60.35,3.75,1.70,3.74,1.69,-1.68,-1.99,-1.73,2.07,2.06,2.05
60.96,3.69,1.67,3.69,1.68,-1.68,-1.99,-1.73,2.01,2.01,2.02
61.57,3.64,1.66,3.65,1.66,-1.69,-1.98,-1.73,1.95,1.96,1.98
62.18,3.61,1.67,3.61,1.67,-1.69,-1.98,-1.73,1.92,1.92,1.94
62.80,3.59,1.68,3.59,1.69,-1.69,-1.98,-1.73,1.90,1.90,1.90
63.43,3.58,1.71,3.58,1.71,-1.69,-1.98,-1.73,1.89,1.88,1.87
64.07,3.56,1.73,3.55,1.72,-1.69,-1.97,-1.73,1.86,1.86,1.83
64.71,3.51,1.71,3.51,1.71,-1.70,-1.97,-1.72,1.81,1.81,1.79
65.35,3.46,1.69,3.46,1.70,-1.71,-1.97,-1.72,1.75,1.75,1.77
66.01,3.41,1.68,3.42,1.69,-1.71,-1.96,-1.72,1.70,1.71,1.73
66.67,3.40,1.71,3.40,1.71,-1.72,-1.96,-1.71,1.68,1.68,1.69
67.33,3.38,1.72,3.38,1.72,-1.72,-1.96,-1.71,1.66,1.66,1.66
68.01,3.37,1.75,3.35,1.73,-1.72,-1.95,-1.71,1.64,1.63,1.62
68.69,3.31,1.73,3.32,1.74,-1.73,-1.95,-1.70,1.58,1.59,1.58
69.37,3.27,1.73,3.28,1.74,-1.74,-1.95,-1.70,1.53,1.54,1.54
70.07,3.25,1.75,3.23,1.74,-1.75,-1.94,-1.69,1.50,1.49,1.49
70.77,3.20,1.74,3.21,1.75,-1.75,-1.94,-1.69,1.44,1.46,1.46
71.48,3.18,1.76,3.18,1.77,-1.76,-1.93,-1.68,1.42,1.42,1.42
72.19,3.17,1.79,3.15,1.77,-1.77,-1.93,-1.68,1.40,1.37,1.38
72.91,3.10,1.78,3.10,1.77,-1.78,-1.92,-1.67,1.32,1.32,1.32
73.64,3.04,1.76,3.05,1.77,-1.78,-1.92,-1.67,1.25,1.26,1.28
74.38,3.00,1.77,3.01,1.78,-1.79,-1.92,-1.67,1.21,1.23,1.23
75.12,2.99,1.80,2.99,1.80,-1.79,-1.91,-1.66,1.20,1.20,1.19
75.87,2.99,1.84,2.95,1.80,-1.78,-1.91,-1.66,1.21,1.17,1.15
76.63,2.89,1.77,2.90,1.78,-1.77,-1.90,-1.66,1.12,1.13,1.11
77.40,2.81,1.73,2.83,1.75,-1.75,-1.90,-1.66,1.06,1.08,1.08
78.17,2.77,1.73,2.77,1.72,-1.74,-1.89,-1.66,1.03,1.03,1.04
78.95,2.73,1.72,2.72,1.71,-1.72,-1.89,-1.66,1.00,1.00,1.01
79.74,2.68,1.70,2.67,1.69,-1.71,-1.88,-1.66,0.97,0.96,0.98
80.54,2.62,1.67,2.63,1.68,-1.69,-1.88,-1.67,0.93,0.94,0.95
81.35,2.58,1.66,2.60,1.68,-1.68,-1.87,-1.67,0.90,0.92,0.92
82.16,2.59,1.70,2.58,1.68,-1.67,-1.87,-1.68,0.92,0.91,0.89
82.98,2.56,1.69,2.54,1.68,-1.66,-1.86,-1.69,0.90,0.88,0.87
83.81,2.49,1.66,2.49,1.66,-1.65,-1.86,-1.69,0.84,0.84,0.83
84.65,2.41,1.61,2.43,1.63,-1.64,-1.85,-1.70,0.77,0.79,0.80
85.50,2.38,1.61,2.38,1.61,-1.63,-1.85,-1.71,0.75,0.75,0.77
86.35,2.36,1.62,2.35,1.61,-1.61,-1.84,-1.73,0.75,0.73,0.74
87.22,2.30,1.59,2.30,1.59,-1.60,-1.84,-1.74,0.70,0.70,0.71
88.09,2.27,1.60,2.26,1.58,-1.58,-1.83,-1.76,0.69,0.68,0.67
88.97,2.18,1.53,2.21,1.57,-1.56,-1.83,-1.77,0.62,0.65,0.65
89.86,2.19,1.58,2.16,1.55,-1.54,-1.83,-1.79,0.65,0.63,0.61
90.76,2.11,1.53,2.11,1.53,-1.51,-1.82,-1.81,0.60,0.60,0.58
91.66,2.05,1.50,2.06,1.51,-1.49,-1.82,-1.83,0.56,0.57,0.55
92.58,2.00,1.48,1.99,1.47,-1.47,-1.81,-1.85,0.53,0.51,0.52
93.51,1.93,1.44,1.94,1.45,-1.47,-1.81,-1.87,0.46,0.47,0.49
94.44,1.89,1.43,1.90,1.44,-1.47,-1.81,-1.90,0.42,0.43,0.46
95.39,1.89,1.45,1.88,1.45,-1.49,-1.81,-1.92,0.40,0.39,0.44
96.34,1.89,1.49,1.90,1.50,-1.52,-1.80,-1.95,0.37,0.38,0.40
97.30,1.93,1.56,1.93,1.55,-1.55,-1.80,-1.98,0.38,0.37,0.37
98.28,1.97,1.63,1.97,1.62,-1.60,-1.80,-2.00,0.37,0.37,0.34
99.26,2.00,1.67,2.00,1.68,-1.65,-1.80,-2.03,0.35,0.35,0.32
100.25,2.04,1.74,2.02,1.72,-1.71,-1.80,-2.06,0.33,0.31,0.30
101.25,2.02,1.75,2.03,1.76,-1.76,-1.80,-2.09,0.26,0.27,0.27
102.27,2.02,1.78,2.04,1.80,-1.82,-1.80,-2.13,0.20,0.22,0.24
103.29,2.06,1.87,2.04,1.84,-1.87,-1.80,-2.16,0.19,0.18,0.19
104.32,2.07,1.89,2.07,1.91,-1.91,-1.80,-2.19,0.16,0.16,0.17
105.37,2.09,1.95,2.10,1.96,-1.96,-1.80,-2.22,0.13,0.14,0.14
106.42,2.13,2.02,2.11,2.00,-2.00,-1.81,-2.25,0.13,0.11,0.11
107.48,2.10,2.03,2.10,2.04,-2.03,-1.81,-2.29,0.07,0.07,0.07
108.56,2.08,2.05,2.09,2.06,-2.05,-1.81,-2.32,0.03,0.04,0.03
109.64,2.06,2.07,2.06,2.07,-2.05,-1.82,-2.35,0.01,0.02,-0.01
110.74,2.04,2.07,2.03,2.07,-2.04,-1.83,-2.38,-0.00,-0.01,-0.04
111.85,1.99,2.05,1.97,2.04,-2.02,-1.83,-2.41,-0.03,-0.05,-0.06
112.97,1.88,1.99,1.88,1.98,-1.99,-1.84,-2.44,-0.11,-0.11,-0.11
114.10,1.77,1.90,1.79,1.92,-1.95,-1.85,-2.46,-0.18,-0.16,-0.13
115.24,1.70,1.86,1.72,1.89,-1.90,-1.86,-2.49,-0.20,-0.18,-0.17
116.39,1.69,1.88,1.66,1.85,-1.86,-1.87,-2.51,-0.17,-0.19,-0.19
117.55,1.62,1.84,1.60,1.82,-1.81,-1.88,-2.53,-0.19,-0.21,-0.22
118.73,1.51,1.75,1.53,1.77,-1.76,-1.89,-2.55,-0.25,-0.23,-0.25
119.92,1.46,1.71,1.46,1.72,-1.72,-1.91,-2.57,-0.26,-0.26,-0.25
121.12,1.41,1.69,1.40,1.68,-1.68,-1.92,-2.59,-0.27,-0.28,-0.28
122.33,1.36,1.65,1.37,1.66,-1.65,-1.94,-2.60,-0.30,-0.28,-0.29
123.55,1.34,1.64,1.33,1.63,-1.63,-1.96,-2.61,-0.30,-0.31,-0.30
124.79,1.31,1.63,1.29,1.61,-1.62,-1.98,-2.62,-0.31,-0.33,-0.32
126.03,1.25,1.59,1.27,1.61,-1.63,-2.00,-2.62,-0.38,-0.35,-0.34
127.29,1.27,1.62,1.28,1.64,-1.64,-2.02,-2.62,-0.37,-0.36,-0.35
128.57,1.33,1.70,1.31,1.68,-1.67,-2.04,-2.63,-0.35,-0.36,-0.37
129.85,1.37,1.76,1.36,1.74,-1.72,-2.07,-2.62,-0.35,-0.36,-0.39
131.15,1.39,1.79,1.40,1.79,-1.78,-2.09,-2.62,-0.40,-0.39,-0.40
132.46,1.45,1.86,1.45,1.86,-1.87,-2.12,-2.61,-0.42,-0.42,-0.41
133.79,1.53,1.94,1.54,1.96,-1.98,-2.15,-2.61,-0.45,-0.44,-0.41
135.12,1.67,2.11,1.65,2.08,-2.11,-2.18,-2.59,-0.44,-0.46,-0.44
136.48,1.78,2.22,1.78,2.23,-2.26,-2.21,-2.58,-0.48,-0.48,-0.44
137.84,1.92,2.38,1.94,2.41,-2.43,-2.24,-2.57,-0.51,-0.49,-0.46
139.22,2.11,2.60,2.12,2.60,-2.61,-2.28,-2.56,-0.50,-0.49,-0.49
140.61,2.34,2.85,2.31,2.81,-2.80,-2.32,-2.54,-0.46,-0.49,-0.51
142.02,2.49,3.00,2.49,3.01,-2.99,-2.35,-2.52,-0.51,-0.50,-0.51
143.44,2.65,3.18,2.65,3.18,-3.18,-2.39,-2.51,-0.53,-0.53,-0.53
144.87,2.78,3.33,2.80,3.35,-3.36,-2.44,-2.49,-0.58,-0.56,-0.55
146.32,2.94,3.52,2.94,3.51,-3.51,-2.48,-2.47,-0.57,-0.58,-0.58
147.78,3.06,3.67,3.04,3.65,-3.64,-2.52,-2.45,-0.58,-0.60,-0.61
149.26,3.10,3.74,3.10,3.74,-3.74,-2.57,-2.44,-0.64,-0.64,-0.64
150.75,3.10,3.79,3.10,3.79,-3.80,-2.62,-2.42,-0.70,-0.69,-0.70
152.26,3.06,3.80,3.07,3.81,-3.81,-2.67,-2.40,-0.75,-0.74,-0.74
153.78,3.01,3.80,3.01,3.80,-3.76,-2.72,-2.39,-0.75,-0.76,-0.79
155.32,2.88,3.74,2.87,3.73,-3.66,-2.77,-2.37,-0.78,-0.78,-0.86
156.88,2.69,3.60,2.67,3.58,-3.49,-2.82,-2.36,-0.80,-0.83,-0.91
158.44,2.37,3.35,2.37,3.35,-3.28,-2.88,-2.35,-0.91,-0.91,-0.98
160.03,2.04,3.08,2.04,3.08,-3.03,-2.93,-2.33,-1.00,-1.00,-1.04
161.63,1.67,2.76,1.69,2.79,-2.77,-2.99,-2.33,-1.11,-1.09,-1.09
163.24,1.38,2.53,1.36,2.51,-2.52,-3.04,-2.32,-1.15,-1.16,-1.15
164.88,1.08,2.26,1.07,2.26,-2.31,-3.10,-2.31,-1.23,-1.24,-1.18
166.53,0.84,2.06,0.84,2.06,-2.16,-3.16,-2.30,-1.32,-1.33,-1.22
168.19,0.70,1.95,0.71,1.96,-2.09,-3.22,-2.30,-1.40,-1.39,-1.25
169.87,0.67,1.95,0.72,2.00,-2.11,-3.27,-2.30,-1.44,-1.39,-1.28
171.57,0.87,2.17,0.83,2.13,-2.21,-3.33,-2.30,-1.35,-1.38,-1.30
173.29,1.07,2.37,1.05,2.35,-2.38,-3.38,-2.30,-1.32,-1.34,-1.30
175.02,1.27,2.58,1.32,2.64,-2.61,-3.44,-2.30,-1.34,-1.29,-1.31
176.77,1.62,2.94,1.60,2.92,-2.87,-3.49,-2.31,-1.25,-1.27,-1.32
178.54,1.91,3.23,1.87,3.19,-3.14,-3.54,-2.32,-1.23,-1.26,-1.32
180.32,2.12,3.43,2.13,3.44,-3.39,-3.59,-2.32,-1.27,-1.25,-1.31
182.13,2.32,3.62,2.34,3.64,-3.60,-3.64,-2.34,-1.28,-1.27,-1.30
183.95,2.52,3.83,2.50,3.81,-3.77,-3.68,-2.35,-1.26,-1.27,-1.31
185.79,2.64,3.95,2.63,3.95,-3.90,-3.72,-2.36,-1.26,-1.27,-1.31
187.65,2.70,4.02,2.70,4.02,-3.98,-3.76,-2.38,-1.28,-1.28,-1.33
189.52,2.72,4.05,2.70,4.03,-4.02,-3.79,-2.40,-1.30,-1.32,-1.33
191.42,2.66,4.00,2.69,4.03,-4.03,-3.82,-2.41,-1.37,-1.34,-1.34
193.33,2.65,4.00,2.67,4.02,-4.02,-3.84,-2.43,-1.37,-1.35,-1.35
195.27,2.66,4.02,2.62,3.99,-4.00,-3.86,-2.46,-1.34,-1.38,-1.37
197.22,2.58,3.97,2.57,3.95,-3.98,-3.87,-2.48,-1.40,-1.41,-1.39
199.19,2.48,3.89,2.51,3.92,-3.96,-3.88,-2.50,-1.48,-1.44,-1.41
201.18,2.47,3.89,2.48,3.90,-3.95,-3.88,-2.53,-1.48,-1.47,-1.42
203.19,2.50,3.93,2.48,3.91,-3.95,-3.87,-2.55,-1.46,-1.47,-1.43
205.23,2.50,3.96,2.50,3.95,-3.96,-3.86,-2.58,-1.46,-1.46,-1.46
207.28,2.50,3.96,2.51,3.98,-3.96,-3.85,-2.60,-1.46,-1.45,-1.46
209.35,2.50,3.99,2.50,3.98,-3.95,-3.82,-2.63,-1.45,-1.46,-1.49
211.44,2.49,4.00,2.48,3.98,-3.94,-3.79,-2.66,-1.45,-1.47,-1.51
213.56,2.42,3.94,2.43,3.95,-3.92,-3.76,-2.68,-1.50,-1.48,-1.52
215.69,2.37,3.89,2.35,3.88,-3.87,-3.72,-2.71,-1.50,-1.52,-1.53
217.85,2.27,3.80,2.25,3.79,-3.81,-3.67,-2.73,-1.54,-1.56,-1.53
220.03,2.14,3.69,2.17,3.72,-3.73,-3.62,-2.76,-1.59,-1.56,-1.55
222.23,2.08,3.64,2.10,3.65,-3.64,-3.56,-2.78,-1.56,-1.55,-1.56
224.45,2.06,3.61,2.01,3.57,-3.55,-3.50,-2.80,-1.49,-1.54,-1.55
226.70,1.93,3.47,1.92,3.46,-3.46,-3.43,-2.81,-1.53,-1.54,-1.54
228.96,1.79,3.33,1.81,3.35,-3.37,-3.36,-2.83,-1.58,-1.56,-1.54
231.25,1.71,3.24,1.74,3.27,-3.29,-3.28,-2.84,-1.58,-1.56,-1.53
233.57,1.70,3.21,1.68,3.20,-3.22,-3.21,-2.85,-1.52,-1.53,-1.51
235.90,1.68,3.18,1.64,3.14,-3.14,-3.12,-2.86,-1.46,-1.50,-1.50
238.26,1.57,3.05,1.60,3.08,-3.07,-3.04,-2.86,-1.50,-1.47,-1.48
240.64,1.55,3.00,1.55,3.00,-3.00,-2.95,-2.86,-1.45,-1.45,-1.45
243.05,1.52,2.94,1.52,2.94,-2.93,-2.86,-2.85,-1.41,-1.41,-1.42
245.48,1.50,2.89,1.50,2.89,-2.86,-2.77,-2.84,-1.36,-1.37,-1.39
247.93,1.45,2.82,1.43,2.80,-2.79,-2.68,-2.83,-1.34,-1.36,-1.37
250.41,1.37,2.72,1.36,2.70,-2.71,-2.59,-2.81,-1.35,-1.36,-1.35
252.92,1.24,2.56,1.29,2.61,-2.63,-2.49,-2.79,-1.40,-1.34,-1.32
255.45,1.25,2.54,1.22,2.52,-2.55,-2.40,-2.76,-1.30,-1.32,-1.29
258.00,1.20,2.48,1.17,2.45,-2.45,-2.30,-2.73,-1.26,-1.28,-1.28
260.58,1.09,2.35,1.13,2.38,-2.35,-2.21,-2.69,-1.26,-1.23,-1.26
263.19,1.06,2.30,1.04,2.28,-2.25,-2.11,-2.66,-1.19,-1.21,-1.24
265.82,0.96,2.18,0.94,2.16,-2.15,-2.01,-2.61,-1.19,-1.20,-1.22
268.48,0.84,2.03,0.84,2.03,-2.04,-1.92,-2.57,-1.20,-1.20,-1.19
271.16,0.70,1.87,0.72,1.90,-1.93,-1.82,-2.51,-1.23,-1.21,-1.17
273.87,0.64,1.79,0.63,1.78,-1.82,-1.73,-2.46,-1.18,-1.18,-1.15
276.61,0.57,1.69,0.57,1.69,-1.70,-1.63,-2.40,-1.13,-1.13,-1.13
279.38,0.50,1.60,0.50,1.60,-1.57,-1.54,-2.34,-1.07,-1.07,-1.10
282.17,0.42,1.50,0.41,1.48,-1.45,-1.45,-2.28,-1.03,-1.04,-1.08
284.99,0.30,1.34,0.30,1.35,-1.33,-1.36,-2.22,-1.04,-1.04,-1.05
287.84,0.18,1.20,0.19,1.20,-1.22,-1.26,-2.15,-1.04,-1.03,-1.02
290.72,0.08,1.06,0.08,1.07,-1.10,-1.17,-2.08,-1.02,-1.01,-0.98
293.63,-0.00,0.95,-0.01,0.94,-0.96,-1.09,-2.01,-0.97,-0.97,-0.95
296.57,-0.08,0.84,-0.08,0.84,-0.82,-1.00,-1.94,-0.91,-0.90,-0.92
299.53,-0.17,0.73,-0.15,0.74,-0.69,-0.91,-1.87,-0.86,-0.84,-0.90
302.53,-0.22,0.65,-0.25,0.62,-0.57,-0.83,-1.80,-0.79,-0.82,-0.87
305.55,-0.35,0.48,-0.37,0.47,-0.47,-0.74,-1.72,-0.82,-0.84,-0.83
308.61,-0.51,0.31,-0.49,0.33,-0.39,-0.66,-1.65,-0.90,-0.88,-0.82
311.69,-0.60,0.20,-0.57,0.22,-0.32,-0.58,-1.57,-0.92,-0.89,-0.80
314.81,-0.58,0.18,-0.58,0.19,-0.26,-0.50,-1.50,-0.84,-0.84,-0.76
317.96,-0.54,0.21,-0.54,0.21,-0.21,-0.42,-1.42,-0.75,-0.75,-0.75
321.14,-0.47,0.26,-0.50,0.24,-0.17,-0.34,-1.35,-0.64,-0.67,-0.74
324.35,-0.49,0.24,-0.50,0.22,-0.14,-0.27,-1.27,-0.64,-0.65,-0.73
327.59,-0.54,0.17,-0.55,0.17,-0.13,-0.20,-1.20,-0.67,-0.67,-0.71
330.87,-0.62,0.08,-0.61,0.10,-0.11,-0.13,-1.12,-0.73,-0.71,-0.70
334.18,-0.66,0.03,-0.65,0.04,-0.08,-0.06,-1.05,-0.74,-0.73,-0.69
337.52,-0.66,0.02,-0.66,0.02,-0.05,0.01,-0.98,-0.71,-0.71,-0.68
340.90,-0.66,0.00,-0.67,0.00,-0.02,0.07,-0.90,-0.68,-0.68,-0.67
344.30,-0.66,-0.00,-0.67,-0.01,0.02,0.13,-0.83,-0.65,-0.65,-0.66
347.75,-0.69,-0.04,-0.68,-0.03,0.04,0.19,-0.76,-0.65,-0.64,-0.65
351.23,-0.68,-0.04,-0.70,-0.06,0.06,0.24,-0.68,-0.62,-0.64,-0.64
354.74,-0.73,-0.09,-0.72,-0.08,0.09,0.29,-0.61,-0.64,-0.63,-0.64
358.28,-0.75,-0.12,-0.74,-0.11,0.12,0.34,-0.54,-0.63,-0.63,-0.63
361.87,-0.76,-0.13,-0.78,-0.15,0.16,0.39,-0.47,-0.60,-0.62,-0.64
365.49,-0.82,-0.20,-0.82,-0.19,0.20,0.43,-0.40,-0.62,-0.62,-0.63
369.14,-0.87,-0.24,-0.87,-0.24,0.25,0.48,-0.33,-0.62,-0.62,-0.63
372.83,-0.92,-0.29,-0.93,-0.30,0.29,0.51,-0.26,-0.63,-0.64,-0.63
376.56,-0.98,-0.35,-0.97,-0.35,0.33,0.55,-0.19,-0.65,-0.64,-0.63
380.33,-1.01,-0.40,-1.01,-0.39,0.37,0.58,-0.12,-0.64,-0.64,-0.61
384.13,-1.03,-0.41,-1.05,-0.43,0.41,0.61,-0.05,-0.62,-0.64,-0.62
387.97,-1.08,-0.46,-1.07,-0.45,0.45,0.63,0.01,-0.64,-0.63,-0.62
391.85,-1.10,-0.48,-1.08,-0.46,0.48,0.65,0.08,-0.62,-0.60,-0.62
395.77,-1.10,-0.49,-1.11,-0.49,0.52,0.67,0.14,-0.58,-0.59,-0.61
399.73,-1.11,-0.50,-1.15,-0.53,0.55,0.69,0.21,-0.56,-0.60,-0.62
403.72,-1.22,-0.60,-1.21,-0.59,0.59,0.70,0.27,-0.64,-0.62,-0.63
407.76,-1.29,-0.66,-1.27,-0.65,0.62,0.72,0.34,-0.67,-0.65,-0.63
411.84,-1.31,-0.69,-1.31,-0.68,0.66,0.72,0.40,-0.66,-0.65,-0.62
415.96,-1.31,-0.68,-1.32,-0.69,0.69,0.73,0.46,-0.62,-0.63,-0.63
420.12,-1.31,-0.68,-1.33,-0.70,0.72,0.74,0.52,-0.59,-0.61,-0.63
424.32,-1.36,-0.74,-1.35,-0.73,0.74,0.74,0.58,-0.62,-0.61,-0.62
428.56,-1.38,-0.76,-1.37,-0.76,0.76,0.74,0.63,-0.63,-0.62,-0.62
432.85,-1.38,-0.78,-1.38,-0.78,0.76,0.74,0.69,-0.62,-0.62,-0.60
437.18,-1.35,-0.77,-1.36,-0.78,0.76,0.74,0.74,-0.59,-0.59,-0.58
441.55,-1.32,-0.78,-1.32,-0.77,0.76,0.73,0.79,-0.56,-0.56,-0.54
445.96,-1.27,-0.76,-1.27,-0.76,0.76,0.73,0.84,-0.51,-0.51,-0.51
450.42,-1.22,-0.74,-1.22,-0.74,0.75,0.72,0.89,-0.47,-0.47,-0.48
454.93,-1.16,-0.74,-1.16,-0.73,0.74,0.72,0.93,-0.42,-0.42,-0.42
459.48,-1.10,-0.72,-1.10,-0.72,0.73,0.71,0.97,-0.38,-0.38,-0.39
464.07,-1.04,-0.72,-1.04,-0.72,0.71,0.70,1.01,-0.33,-0.33,-0.33
468.71,-0.99,-0.72,-0.98,-0.71,0.71,0.70,1.05,-0.29,-0.28,-0.28
473.40,-0.92,-0.69,-0.93,-0.70,0.70,0.69,1.08,-0.22,-0.23,-0.23
478.13,-0.87,-0.69,-0.87,-0.69,0.70,0.68,1.10,-0.17,-0.17,-0.18
482.91,-0.82,-0.68,-0.82,-0.69,0.70,0.67,1.13,-0.12,-0.12,-0.14
487.74,-0.78,-0.69,-0.78,-0.69,0.70,0.66,1.15,-0.09,-0.09,-0.09
492.62,-0.75,-0.70,-0.75,-0.70,0.69,0.65,1.17,-0.06,-0.06,-0.05
497.55,-0.72,-0.70,-0.72,-0.70,0.69,0.64,1.18,-0.03,-0.03,-0.02
