frequency,raw,error,smoothed,error_smoothed,equalization,parametric_eq,fixed_band_eq,equalized_raw,equalized_smoothed,target
20.00,-10.96,-10.81,-10.96,-10.81,6.00,5.38,1.96,-4.96,-4.96,-0.15
20.20,-10.80,-10.69,-10.80,-10.69,6.00,5.48,2.02,-4.80,-4.80,-0.11
20.40,-10.64,-10.57,-10.64,-10.56,6.00,5.58,2.09,-4.64,-4.64,-0.07
20.61,-10.48,-10.43,-10.48,-10.43,6.00,5.67,2.15,-4.48,-4.48,-0.06
20.81,-10.32,-10.30,-10.32,-10.31,6.00,5.76,2.21,-4.32,-4.32,-0.02
21.02,-10.16,-10.19,-10.16,-10.18,6.00,5.85,2.28,-4.16,-4.16,0.02
21.23,-10.01,-10.05,-10.01,-10.05,6.00,5.94,2.35,-4.01,-4.01,0.03
21.44,-9.86,-9.91,-9.86,-9.91,6.00,6.02,2.42,-3.86,-3.86,0.05
21.66,-9.71,-9.78,-9.72,-9.78,6.00,6.09,2.50,-3.71,-3.72,0.06
21.87,-9.57,-9.63,-9.57,-9.63,6.00,6.16,2.57,-3.57,-3.57,0.06
22.09,-9.42,-9.49,-9.42,-9.49,6.00,6.22,2.65,-3.42,-3.42,0.07
22.31,-9.26,-9.33,-9.26,-9.34,6.00,6.28,2.73,-3.26,-3.26,0.07
22.54,-9.11,-9.19,-9.11,-9.18,6.00,6.32,2.81,-3.11,-3.11,0.07
22.76,-8.96,-9.02,-8.96,-9.02,6.00,6.36,2.89,-2.96,-2.96,0.06
22.99,-8.81,-8.86,-8.81,-8.86,6.00,6.40,2.98,-2.81,-2.81,0.05
23.22,-8.65,-8.70,-8.65,-8.70,6.00,6.42,3.07,-2.65,-2.65,0.05
23.45,-8.49,-8.53,-8.50,-8.54,6.00,6.43,3.16,-2.49,-2.50,0.04
23.69,-8.34,-8.38,-8.34,-8.38,6.00,6.44,3.25,-2.34,-2.34,0.04
23.92,-8.18,-8.22,-8.18,-8.22,6.00,6.43,3.34,-2.18,-2.18,0.04
24.16,-8.02,-8.07,-8.02,-8.07,6.00,6.41,3.44,-2.02,-2.02,0.05
24.40,-7.86,-7.91,-7.86,-7.90,6.00,6.39,3.53,-1.86,-1.86,0.05
24.65,-7.69,-7.73,-7.69,-7.74,6.00,6.36,3.63,-1.69,-1.69,0.04
24.89,-7.53,-7.57,-7.53,-7.57,6.00,6.31,3.73,-1.53,-1.53,0.04
25.14,-7.38,-7.42,-7.38,-7.42,6.00,6.26,3.83,-1.38,-1.38,0.04
25.39,-7.23,-7.27,-7.23,-7.26,6.00,6.19,3.93,-1.23,-1.23,0.04
25.65,-7.08,-7.11,-7.08,-7.11,6.00,6.12,4.03,-1.08,-1.08,0.03
25.91,-6.93,-6.95,-6.93,-6.95,6.01,6.04,4.13,-0.92,-0.92,0.02
26.16,-6.78,-6.79,-6.78,-6.80,6.03,5.96,4.23,-0.75,-0.76,0.02
26.43,-6.63,-6.65,-6.63,-6.64,6.03,5.86,4.32,-0.60,-0.60,0.02
26.69,-6.47,-6.49,-6.47,-6.48,6.02,5.76,4.42,-0.45,-0.45,0.01
26.96,-6.31,-6.32,-6.31,-6.32,6.00,5.65,4.51,-0.32,-0.32,0.00
27.23,-6.15,-6.16,-6.15,-6.16,5.95,5.54,4.60,-0.20,-0.20,0.00
27.50,-5.99,-5.99,-5.99,-5.99,5.88,5.42,4.69,-0.11,-0.11,0.00
27.77,-5.83,-5.82,-5.83,-5.82,5.80,5.30,4.78,-0.03,-0.03,-0.01
28.05,-5.67,-5.66,-5.68,-5.67,5.69,5.17,4.85,0.01,0.01,-0.01
28.33,-5.54,-5.52,-5.54,-5.52,5.56,5.04,4.93,0.01,0.02,-0.02
28.62,-5.40,-5.38,-5.40,-5.38,5.41,4.91,4.99,0.00,0.00,-0.02
28.90,-5.27,-5.25,-5.26,-5.24,5.25,4.77,5.05,-0.02,-0.01,-0.02
29.19,-5.11,-5.09,-5.11,-5.09,5.09,4.64,5.11,-0.02,-0.02,-0.02
29.48,-4.95,-4.94,-4.95,-4.93,4.93,4.50,5.15,-0.02,-0.02,-0.01
29.78,-4.79,-4.77,-4.79,-4.78,4.78,4.36,5.19,-0.01,-0.01,-0.02
30.08,-4.64,-4.63,-4.65,-4.63,4.64,4.22,5.21,-0.01,-0.01,-0.02
30.38,-4.51,-4.48,-4.51,-4.48,4.49,4.08,5.23,-0.02,-0.02,-0.04
30.68,-4.38,-4.34,-4.38,-4.34,4.35,3.94,5.23,-0.04,-0.03,-0.04
30.99,-4.25,-4.20,-4.25,-4.21,4.21,3.80,5.23,-0.05,-0.05,-0.05
31.30,-4.12,-4.07,-4.12,-4.07,4.07,3.65,5.21,-0.05,-0.05,-0.05
31.61,-3.99,-3.94,-3.99,-3.93,3.94,3.52,5.19,-0.06,-0.06,-0.05
31.93,-3.86,-3.79,-3.86,-3.79,3.80,3.38,5.15,-0.07,-0.06,-0.07
32.24,-3.73,-3.65,-3.74,-3.66,3.66,3.24,5.10,-0.07,-0.08,-0.08
32.57,-3.61,-3.53,-3.61,-3.52,3.51,3.10,5.04,-0.10,-0.10,-0.09
32.89,-3.48,-3.38,-3.47,-3.38,3.36,2.97,4.97,-0.12,-0.12,-0.10
33.22,-3.33,-3.21,-3.33,-3.22,3.20,2.83,4.90,-0.13,-0.12,-0.12
33.55,-3.17,-3.05,-3.17,-3.05,3.05,2.70,4.81,-0.12,-0.13,-0.12
33.89,-3.01,-2.87,-3.01,-2.88,2.88,2.57,4.71,-0.13,-0.13,-0.14
34.23,-2.86,-2.72,-2.86,-2.71,2.72,2.44,4.61,-0.14,-0.14,-0.14
34.57,-2.71,-2.55,-2.71,-2.55,2.56,2.32,4.50,-0.15,-0.16,-0.17
34.92,-2.57,-2.40,-2.57,-2.40,2.40,2.19,4.38,-0.18,-0.17,-0.18
35.27,-2.42,-2.24,-2.42,-2.24,2.24,2.07,4.26,-0.18,-0.18,-0.18
35.62,-2.28,-2.08,-2.28,-2.08,2.08,1.95,4.13,-0.20,-0.20,-0.20
35.97,-2.14,-1.93,-2.15,-1.94,1.93,1.83,4.00,-0.21,-0.21,-0.21
36.33,-2.02,-1.80,-2.02,-1.80,1.79,1.71,3.87,-0.23,-0.23,-0.22
36.70,-1.89,-1.67,-1.89,-1.67,1.66,1.60,3.73,-0.24,-0.24,-0.23
37.06,-1.77,-1.53,-1.76,-1.53,1.54,1.48,3.59,-0.23,-0.23,-0.24
37.43,-1.64,-1.41,-1.63,-1.39,1.43,1.37,3.44,-0.21,-0.20,-0.23
37.81,-1.51,-1.27,-1.52,-1.28,1.33,1.26,3.30,-0.18,-0.20,-0.24
38.19,-1.43,-1.17,-1.45,-1.20,1.23,1.16,3.15,-0.20,-0.22,-0.26
38.57,-1.40,-1.15,-1.40,-1.14,1.13,1.05,3.00,-0.27,-0.27,-0.25
38.95,-1.37,-1.11,-1.34,-1.08,1.02,0.95,2.86,-0.35,-0.32,-0.26
39.34,-1.24,-0.97,-1.24,-0.98,0.91,0.85,2.71,-0.33,-0.33,-0.27
39.74,-1.10,-0.82,-1.11,-0.84,0.79,0.75,2.56,-0.31,-0.32,-0.28
40.14,-0.96,-0.68,-0.95,-0.67,0.68,0.66,2.41,-0.29,-0.28,-0.28
40.54,-0.81,-0.53,-0.81,-0.52,0.56,0.56,2.26,-0.26,-0.25,-0.29
40.94,-0.66,-0.37,-0.68,-0.39,0.44,0.47,2.11,-0.23,-0.24,-0.29
41.35,-0.57,-0.27,-0.57,-0.27,0.32,0.38,1.96,-0.26,-0.25,-0.30
41.76,-0.49,-0.17,-0.48,-0.17,0.19,0.29,1.81,-0.30,-0.29,-0.32
42.18,-0.41,-0.09,-0.42,-0.10,0.07,0.20,1.67,-0.34,-0.35,-0.32
42.60,-0.35,-0.02,-0.35,-0.02,-0.04,0.11,1.52,-0.39,-0.39,-0.33
43.03,-0.28,0.06,-0.26,0.09,-0.15,0.03,1.38,-0.43,-0.40,-0.34
43.46,-0.14,0.22,-0.14,0.22,-0.25,-0.05,1.23,-0.39,-0.39,-0.36
43.90,-0.00,0.38,-0.02,0.37,-0.33,-0.13,1.09,-0.34,-0.35,-0.39
44.33,0.09,0.49,0.10,0.50,-0.41,-0.21,0.94,-0.32,-0.32,-0.40
44.78,0.17,0.60,0.15,0.58,-0.49,-0.29,0.80,-0.33,-0.34,-0.43
45.23,0.19,0.63,0.16,0.60,-0.58,-0.36,0.66,-0.39,-0.42,-0.44
45.68,0.14,0.60,0.16,0.61,-0.66,-0.44,0.52,-0.52,-0.50,-0.46
46.13,0.14,0.61,0.17,0.64,-0.74,-0.51,0.38,-0.60,-0.57,-0.47
46.60,0.25,0.73,0.24,0.72,-0.82,-0.58,0.24,-0.57,-0.58,-0.48
47.06,0.37,0.85,0.38,0.86,-0.90,-0.65,0.10,-0.53,-0.52,-0.48
47.53,0.52,1.01,0.52,1.01,-0.98,-0.72,-0.04,-0.46,-0.45,-0.49
48.01,0.67,1.16,0.62,1.12,-1.05,-0.78,-0.18,-0.39,-0.43,-0.50
48.49,0.68,1.19,0.68,1.20,-1.13,-0.85,-0.31,-0.45,-0.45,-0.51
48.97,0.69,1.22,0.72,1.25,-1.20,-0.91,-0.45,-0.51,-0.48,-0.53
49.46,0.74,1.28,0.74,1.28,-1.27,-0.98,-0.58,-0.53,-0.53,-0.54
49.96,0.79,1.34,0.74,1.29,-1.33,-1.04,-0.72,-0.54,-0.59,-0.56
50.46,0.75,1.29,0.74,1.29,-1.37,-1.10,-0.85,-0.62,-0.63,-0.54
50.96,0.71,1.26,0.80,1.35,-1.40,-1.15,-0.98,-0.70,-0.61,-0.55
51.47,0.88,1.44,0.88,1.44,-1.44,-1.21,-1.11,-0.56,-0.56,-0.56
51.99,1.05,1.61,0.97,1.53,-1.47,-1.27,-1.24,-0.43,-0.51,-0.57
52.51,1.02,1.58,1.03,1.59,-1.51,-1.32,-1.36,-0.49,-0.49,-0.57
53.03,0.99,1.55,1.01,1.58,-1.56,-1.38,-1.49,-0.57,-0.54,-0.57
53.56,0.99,1.56,0.99,1.56,-1.60,-1.43,-1.61,-0.61,-0.61,-0.57
54.10,1.00,1.58,1.01,1.59,-1.64,-1.48,-1.72,-0.64,-0.63,-0.58
54.64,1.05,1.63,1.05,1.64,-1.68,-1.53,-1.84,-0.63,-0.62,-0.58
55.18,1.11,1.70,1.11,1.70,-1.70,-1.58,-1.95,-0.59,-0.60,-0.59
55.74,1.16,1.76,1.15,1.76,-1.73,-1.63,-2.06,-0.57,-0.58,-0.61
56.29,1.19,1.80,1.18,1.80,-1.76,-1.68,-2.16,-0.57,-0.58,-0.61
56.86,1.19,1.82,1.19,1.82,-1.80,-1.72,-2.26,-0.61,-0.60,-0.63
57.42,1.19,1.83,1.19,1.83,-1.82,-1.77,-2.36,-0.64,-0.63,-0.64
58.00,1.19,1.84,1.19,1.84,-1.85,-1.81,-2.45,-0.66,-0.66,-0.65
58.58,1.19,1.85,1.19,1.85,-1.86,-1.86,-2.54,-0.67,-0.67,-0.67
59.16,1.19,1.87,1.19,1.87,-1.88,-1.90,-2.62,-0.69,-0.69,-0.68
59.76,1.19,1.89,1.19,1.89,-1.90,-1.94,-2.69,-0.71,-0.71,-0.70
60.35,1.19,1.91,1.19,1.91,-1.92,-1.98,-2.76,-0.73,-0.73,-0.73
60.96,1.19,1.94,1.19,1.95,-1.95,-2.02,-2.82,-0.76,-0.76,-0.75
61.57,1.19,1.98,1.19,1.98,-1.98,-2.06,-2.88,-0.79,-0.79,-0.80
62.18,1.19,2.02,1.19,2.02,-2.02,-2.10,-2.93,-0.83,-0.83,-0.83
62.80,1.19,2.06,1.19,2.06,-2.05,-2.14,-2.97,-0.86,-0.86,-0.87
63.43,1.19,2.09,1.19,2.09,-2.09,-2.17,-3.01,-0.90,-0.90,-0.90
64.07,1.19,2.13,1.19,2.13,-2.13,-2.21,-3.04,-0.94,-0.94,-0.94
64.71,1.19,2.17,1.19,2.16,-2.16,-2.24,-3.06,-0.97,-0.97,-0.98
65.35,1.19,2.19,1.19,2.20,-2.20,-2.28,-3.08,-1.01,-1.01,-1.01
66.01,1.19,2.23,1.19,2.23,-2.24,-2.31,-3.09,-1.05,-1.05,-1.04
66.67,1.19,2.27,1.19,2.27,-2.28,-2.34,-3.10,-1.09,-1.09,-1.08
67.33,1.19,2.30,1.19,2.31,-2.31,-2.37,-3.10,-1.12,-1.12,-1.11
68.01,1.19,2.34,1.19,2.34,-2.34,-2.40,-3.10,-1.15,-1.15,-1.15
68.69,1.19,2.38,1.19,2.39,-2.36,-2.43,-3.10,-1.17,-1.17,-1.19
69.37,1.19,2.42,1.19,2.42,-2.38,-2.46,-3.09,-1.20,-1.20,-1.24
70.07,1.18,2.46,1.16,2.43,-2.41,-2.49,-3.07,-1.23,-1.25,-1.28
70.77,1.11,2.42,1.11,2.42,-2.43,-2.52,-3.06,-1.32,-1.33,-1.31
71.48,1.05,2.40,1.07,2.42,-2.46,-2.55,-3.04,-1.41,-1.39,-1.35
72.19,1.03,2.43,1.05,2.45,-2.49,-2.57,-3.02,-1.46,-1.44,-1.40
72.91,1.08,2.53,1.06,2.51,-2.52,-2.60,-3.00,-1.44,-1.46,-1.45
73.64,1.09,2.58,1.08,2.58,-2.56,-2.62,-2.97,-1.48,-1.48,-1.50
74.38,1.09,2.63,1.09,2.64,-2.62,-2.65,-2.95,-1.53,-1.52,-1.54
75.12,1.09,2.68,1.09,2.67,-2.67,-2.67,-2.92,-1.59,-1.59,-1.59
75.87,1.09,2.71,1.09,2.71,-2.73,-2.69,-2.90,-1.64,-1.65,-1.62
76.63,1.09,2.75,1.10,2.76,-2.78,-2.71,-2.87,-1.69,-1.68,-1.66
77.40,1.12,2.82,1.13,2.83,-2.81,-2.73,-2.84,-1.69,-1.68,-1.70
78.17,1.16,2.90,1.14,2.87,-2.83,-2.75,-2.82,-1.67,-1.69,-1.74
78.95,1.15,2.91,1.11,2.88,-2.83,-2.77,-2.79,-1.69,-1.72,-1.77
79.74,1.03,2.82,1.06,2.86,-2.83,-2.79,-2.77,-1.80,-1.77,-1.80
80.54,0.99,2.81,1.01,2.83,-2.83,-2.81,-2.75,-1.84,-1.82,-1.83
81.35,0.97,2.82,0.93,2.79,-2.82,-2.83,-2.73,-1.85,-1.89,-1.86
82.16,0.91,2.80,0.89,2.77,-2.81,-2.84,-2.71,-1.91,-1.93,-1.89
82.98,0.79,2.70,0.86,2.77,-2.82,-2.86,-2.69,-2.03,-1.96,-1.91
83.81,0.87,2.82,0.85,2.80,-2.83,-2.87,-2.68,-1.96,-1.98,-1.95
84.65,0.89,2.87,0.87,2.85,-2.86,-2.88,-2.66,-1.97,-1.99,-1.98
85.50,0.89,2.90,0.90,2.91,-2.89,-2.89,-2.65,-2.00,-1.99,-2.01
86.35,0.89,2.93,0.89,2.93,-2.92,-2.91,-2.64,-2.03,-2.02,-2.04
87.22,0.89,2.96,0.90,2.97,-2.94,-2.92,-2.63,-2.05,-2.05,-2.08
88.09,0.89,3.00,0.89,2.99,-2.96,-2.93,-2.62,-2.07,-2.07,-2.11
88.97,0.88,3.01,0.86,3.00,-2.97,-2.93,-2.62,-2.09,-2.12,-2.14
89.86,0.80,2.97,0.81,2.98,-2.98,-2.94,-2.62,-2.18,-2.18,-2.17
90.76,0.74,2.95,0.75,2.96,-2.99,-2.95,-2.62,-2.25,-2.24,-2.21
91.66,0.71,2.94,0.71,2.95,-2.99,-2.95,-2.62,-2.28,-2.28,-2.23
92.58,0.70,2.97,0.70,2.97,-2.99,-2.96,-2.62,-2.29,-2.29,-2.27
93.51,0.70,3.00,0.70,3.00,-3.00,-2.96,-2.63,-2.30,-2.30,-2.30
94.44,0.70,3.02,0.71,3.03,-3.01,-2.96,-2.64,-2.31,-2.30,-2.33
95.39,0.70,3.05,0.69,3.04,-3.02,-2.96,-2.65,-2.32,-2.34,-2.35
96.34,0.66,3.05,0.63,3.02,-3.03,-2.96,-2.66,-2.37,-2.40,-2.39
97.30,0.56,2.98,0.58,3.00,-3.02,-2.96,-2.67,-2.47,-2.44,-2.42
98.28,0.50,2.95,0.58,3.03,-3.01,-2.96,-2.69,-2.51,-2.43,-2.45
99.26,0.61,3.08,0.57,3.04,-2.99,-2.95,-2.70,-2.38,-2.42,-2.47
100.25,0.61,3.11,0.50,3.00,-2.96,-2.95,-2.72,-2.36,-2.46,-2.50
101.25,0.37,2.89,0.40,2.93,-2.94,-2.94,-2.74,-2.57,-2.53,-2.53
102.27,0.20,2.76,0.29,2.85,-2.91,-2.93,-2.76,-2.71,-2.62,-2.56
103.29,0.25,2.85,0.23,2.83,-2.89,-2.93,-2.79,-2.64,-2.65,-2.61
104.32,0.28,2.90,0.24,2.87,-2.87,-2.92,-2.81,-2.59,-2.63,-2.62
105.37,0.23,2.89,0.21,2.88,-2.85,-2.90,-2.83,-2.62,-2.64,-2.66
106.42,0.13,2.82,0.13,2.83,-2.83,-2.89,-2.86,-2.70,-2.70,-2.69
107.48,0.04,2.77,0.08,2.81,-2.80,-2.88,-2.88,-2.77,-2.73,-2.73
108.56,0.02,2.79,0.04,2.81,-2.78,-2.87,-2.91,-2.76,-2.74,-2.77
109.64,0.06,2.87,0.01,2.82,-2.75,-2.85,-2.93,-2.70,-2.74,-2.81
110.74,-0.06,2.78,-0.08,2.76,-2.73,-2.84,-2.96,-2.79,-2.81,-2.84
111.85,-0.19,2.68,-0.22,2.66,-2.70,-2.82,-2.98,-2.90,-2.92,-2.87
112.97,-0.39,2.53,-0.31,2.60,-2.69,-2.81,-3.01,-3.08,-2.99,-2.92
114.10,-0.36,2.58,-0.32,2.62,-2.67,-2.79,-3.03,-3.04,-3.00,-2.94
115.24,-0.22,2.75,-0.32,2.66,-2.66,-2.78,-3.05,-2.88,-2.98,-2.98
116.39,-0.30,2.70,-0.30,2.70,-2.65,-2.76,-3.07,-2.95,-2.95,-3.00
117.55,-0.37,2.66,-0.32,2.71,-2.64,-2.75,-3.09,-3.01,-2.96,-3.03
118.73,-0.38,2.68,-0.39,2.67,-2.64,-2.74,-3.11,-3.02,-3.03,-3.06
119.92,-0.38,2.68,-0.43,2.65,-2.65,-2.72,-3.13,-3.03,-3.08,-3.07
121.12,-0.49,2.60,-0.46,2.62,-2.65,-2.72,-3.14,-3.15,-3.12,-3.09
122.33,-0.51,2.60,-0.49,2.61,-2.66,-2.71,-3.15,-3.17,-3.15,-3.11
123.55,-0.48,2.63,-0.49,2.63,-2.66,-2.70,-3.17,-3.14,-3.15,-3.11
124.79,-0.45,2.69,-0.46,2.67,-2.67,-2.70,-3.17,-3.13,-3.14,-3.14
126.03,-0.44,2.71,-0.44,2.71,-2.69,-2.70,-3.18,-3.14,-3.14,-3.15
127.29,-0.43,2.74,-0.43,2.74,-2.72,-2.71,-3.18,-3.15,-3.15,-3.17
128.57,-0.43,2.76,-0.43,2.76,-2.75,-2.71,-3.19,-3.18,-3.18,-3.19
129.85,-0.42,2.79,-0.42,2.78,-2.78,-2.72,-3.19,-3.20,-3.20,-3.21
131.15,-0.42,2.80,-0.42,2.80,-2.80,-2.74,-3.19,-3.23,-3.22,-3.22
132.46,-0.41,2.82,-0.41,2.82,-2.82,-2.75,-3.18,-3.24,-3.24,-3.23
133.79,-0.41,2.82,-0.41,2.83,-2.84,-2.77,-3.18,-3.25,-3.25,-3.23
135.12,-0.40,2.86,-0.40,2.85,-2.85,-2.80,-3.17,-3.25,-3.25,-3.27
136.48,-0.40,2.87,-0.40,2.87,-2.86,-2.83,-3.16,-3.26,-3.26,-3.27
137.84,-0.40,2.89,-0.39,2.90,-2.87,-2.86,-3.15,-3.27,-3.26,-3.29
139.22,-0.39,2.92,-0.41,2.90,-2.88,-2.89,-3.14,-3.27,-3.30,-3.32
140.61,-0.41,2.92,-0.44,2.89,-2.91,-2.93,-3.13,-3.32,-3.35,-3.34
142.02,-0.50,2.83,-0.44,2.91,-2.94,-2.97,-3.12,-3.44,-3.38,-3.33
143.44,-0.41,2.94,-0.40,2.95,-3.00,-3.01,-3.11,-3.41,-3.40,-3.35
144.87,-0.30,3.08,-0.36,3.02,-3.07,-3.05,-3.10,-3.37,-3.43,-3.38
146.32,-0.29,3.11,-0.29,3.11,-3.13,-3.09,-3.09,-3.42,-3.42,-3.41
147.78,-0.29,3.14,-0.23,3.21,-3.19,-3.14,-3.08,-3.48,-3.42,-3.43
149.26,-0.15,3.32,-0.18,3.30,-3.25,-3.18,-3.07,-3.40,-3.43,-3.47
150.75,-0.09,3.43,-0.13,3.39,-3.30,-3.23,-3.07,-3.39,-3.43,-3.52
152.26,-0.15,3.42,-0.13,3.44,-3.35,-3.27,-3.06,-3.50,-3.48,-3.57
153.78,-0.19,3.43,-0.23,3.39,-3.39,-3.32,-3.05,-3.59,-3.62,-3.62
155.32,-0.33,3.35,-0.32,3.36,-3.43,-3.36,-3.05,-3.76,-3.75,-3.68
156.88,-0.43,3.31,-0.36,3.38,-3.46,-3.41,-3.04,-3.90,-3.82,-3.74
158.44,-0.33,3.48,-0.36,3.45,-3.51,-3.45,-3.04,-3.84,-3.87,-3.81
160.03,-0.29,3.58,-0.32,3.55,-3.56,-3.50,-3.04,-3.85,-3.88,-3.87
161.63,-0.29,3.63,-0.28,3.64,-3.61,-3.54,-3.05,-3.91,-3.90,-3.92
163.24,-0.29,3.69,-0.30,3.68,-3.67,-3.58,-3.05,-3.96,-3.97,-3.98
164.88,-0.30,3.71,-0.30,3.72,-3.71,-3.62,-3.06,-4.01,-4.01,-4.01
166.53,-0.30,3.75,-0.25,3.81,-3.74,-3.66,-3.06,-4.04,-3.99,-4.05
168.19,-0.22,3.86,-0.25,3.83,-3.76,-3.70,-3.08,-3.98,-4.00,-4.08
169.87,-0.18,3.93,-0.29,3.82,-3.77,-3.73,-3.09,-3.95,-4.06,-4.11
171.57,-0.46,3.66,-0.39,3.73,-3.77,-3.77,-3.10,-4.23,-4.16,-4.12
173.29,-0.48,3.65,-0.47,3.66,-3.77,-3.80,-3.12,-4.25,-4.24,-4.13
175.02,-0.52,3.62,-0.46,3.68,-3.77,-3.84,-3.14,-4.29,-4.24,-4.14
176.77,-0.33,3.81,-0.37,3.77,-3.77,-3.87,-3.16,-4.10,-4.14,-4.14
178.54,-0.26,3.89,-0.31,3.83,-3.77,-3.90,-3.19,-4.03,-4.09,-4.15
180.32,-0.30,3.83,-0.28,3.85,-3.78,-3.93,-3.22,-4.09,-4.07,-4.14
182.13,-0.33,3.80,-0.31,3.82,-3.81,-3.95,-3.25,-4.14,-4.12,-4.13
183.95,-0.32,3.81,-0.32,3.81,-3.83,-3.98,-3.28,-4.15,-4.16,-4.13
185.79,-0.31,3.83,-0.31,3.83,-3.85,-4.01,-3.31,-4.16,-4.16,-4.14
187.65,-0.29,3.86,-0.30,3.85,-3.86,-4.03,-3.35,-4.15,-4.16,-4.15
189.52,-0.28,3.87,-0.28,3.87,-3.87,-4.05,-3.39,-4.15,-4.15,-4.15
191.42,-0.27,3.90,-0.27,3.90,-3.90,-4.07,-3.43,-4.17,-4.16,-4.17
193.33,-0.25,3.93,-0.25,3.93,-3.93,-4.09,-3.47,-4.19,-4.19,-4.18
195.27,-0.23,3.96,-0.24,3.95,-3.98,-4.11,-3.52,-4.21,-4.22,-4.19
197.22,-0.22,3.99,-0.23,3.98,-4.01,-4.13,-3.56,-4.23,-4.24,-4.21
199.19,-0.21,4.02,-0.16,4.06,-4.05,-4.15,-3.61,-4.26,-4.21,-4.23
201.18,-0.12,4.12,-0.10,4.15,-4.09,-4.17,-3.66,-4.21,-4.18,-4.24
203.19,0.02,4.27,-0.10,4.16,-4.13,-4.18,-3.71,-4.11,-4.23,-4.25
205.23,-0.12,4.16,-0.12,4.16,-4.17,-4.19,-3.76,-4.29,-4.29,-4.28
207.28,-0.25,4.03,-0.13,4.16,-4.21,-4.21,-3.82,-4.46,-4.34,-4.28
209.35,-0.08,4.23,-0.12,4.19,-4.25,-4.22,-3.87,-4.33,-4.36,-4.31
211.44,-0.00,4.33,-0.05,4.28,-4.28,-4.23,-3.92,-4.28,-4.33,-4.33
213.56,-0.00,4.34,0.01,4.35,-4.30,-4.24,-3.98,-4.30,-4.29,-4.34
215.69,-0.01,4.34,-0.00,4.35,-4.32,-4.25,-4.03,-4.33,-4.32,-4.35
217.85,-0.01,4.34,-0.01,4.35,-4.33,-4.26,-4.09,-4.34,-4.34,-4.36
220.03,-0.01,4.36,-0.01,4.36,-4.34,-4.27,-4.14,-4.36,-4.36,-4.37
222.23,-0.01,4.37,-0.01,4.36,-4.36,-4.28,-4.19,-4.37,-4.37,-4.38
224.45,-0.02,4.35,-0.02,4.36,-4.37,-4.28,-4.24,-4.39,-4.38,-4.37
226.70,-0.01,4.35,-0.02,4.35,-4.38,-4.29,-4.29,-4.39,-4.40,-4.37
228.96,-0.01,4.35,-0.03,4.33,-4.40,-4.30,-4.33,-4.41,-4.43,-4.36
231.25,-0.00,4.35,0.03,4.38,-4.42,-4.30,-4.38,-4.42,-4.39,-4.35
233.57,0.06,4.39,0.12,4.45,-4.43,-4.30,-4.42,-4.37,-4.31,-4.33
235.90,0.27,4.59,0.19,4.51,-4.44,-4.31,-4.45,-4.17,-4.25,-4.32
238.26,0.26,4.55,0.23,4.52,-4.45,-4.31,-4.48,-4.19,-4.22,-4.30
240.64,0.17,4.44,0.21,4.48,-4.45,-4.31,-4.51,-4.28,-4.24,-4.27
243.05,0.16,4.40,0.17,4.41,-4.44,-4.31,-4.54,-4.28,-4.27,-4.24
245.48,0.18,4.39,0.17,4.39,-4.43,-4.31,-4.56,-4.25,-4.25,-4.21
247.93,0.21,4.40,0.20,4.39,-4.41,-4.31,-4.58,-4.20,-4.20,-4.19
250.41,0.23,4.40,0.23,4.39,-4.39,-4.31,-4.59,-4.17,-4.17,-4.17
252.92,0.25,4.39,0.25,4.38,-4.39,-4.31,-4.60,-4.15,-4.15,-4.14
255.45,0.26,4.37,0.24,4.36,-4.40,-4.31,-4.60,-4.15,-4.16,-4.11
258.00,0.27,4.36,0.28,4.37,-4.42,-4.31,-4.60,-4.15,-4.14,-4.10
260.58,0.29,4.37,0.36,4.44,-4.43,-4.30,-4.60,-4.14,-4.06,-4.08
263.19,0.49,4.54,0.42,4.48,-4.43,-4.30,-4.59,-3.94,-4.00,-4.05
265.82,0.51,4.55,0.45,4.49,-4.42,-4.29,-4.58,-3.91,-3.96,-4.04
268.48,0.39,4.40,0.44,4.45,-4.40,-4.29,-4.56,-4.01,-3.96,-4.01
271.16,0.37,4.35,0.38,4.37,-4.38,-4.28,-4.54,-4.01,-4.00,-3.98
273.87,0.36,4.33,0.35,4.31,-4.36,-4.27,-4.52,-4.00,-4.01,-3.97
276.61,0.36,4.30,0.36,4.30,-4.33,-4.26,-4.50,-3.98,-3.98,-3.94
279.38,0.36,4.27,0.36,4.28,-4.31,-4.25,-4.47,-3.95,-3.95,-3.91
282.17,0.37,4.27,0.35,4.24,-4.28,-4.24,-4.45,-3.91,-3.92,-3.90
284.99,0.37,4.23,0.38,4.24,-4.25,-4.23,-4.42,-3.88,-3.87,-3.86
287.84,0.38,4.21,0.45,4.29,-4.22,-4.22,-4.39,-3.84,-3.77,-3.83
290.72,0.53,4.32,0.46,4.26,-4.20,-4.20,-4.36,-3.67,-3.74,-3.80
293.63,0.55,4.32,0.44,4.20,-4.18,-4.19,-4.33,-3.63,-3.74,-3.77
296.57,0.26,3.99,0.41,4.14,-4.16,-4.17,-4.31,-3.90,-3.75,-3.73
299.53,0.37,4.08,0.37,4.08,-4.14,-4.15,-4.28,-3.77,-3.77,-3.71
302.53,0.43,4.11,0.38,4.06,-4.11,-4.14,-4.25,-3.68,-3.73,-3.69
305.55,0.45,4.10,0.45,4.11,-4.09,-4.11,-4.22,-3.64,-3.64,-3.65
308.61,0.46,4.09,0.46,4.09,-4.07,-4.09,-4.20,-3.62,-3.61,-3.63
311.69,0.47,4.08,0.47,4.07,-4.07,-4.07,-4.18,-3.60,-3.60,-3.61
314.81,0.47,4.04,0.47,4.05,-4.06,-4.04,-4.15,-3.59,-3.59,-3.57
317.96,0.47,4.03,0.47,4.03,-4.04,-4.02,-4.14,-3.57,-3.57,-3.57
321.14,0.47,4.02,0.47,4.02,-4.01,-3.99,-4.12,-3.54,-3.54,-3.55
324.35,0.47,4.01,0.49,4.02,-3.96,-3.96,-4.10,-3.49,-3.48,-3.54
327.59,0.47,3.99,0.45,3.97,-3.91,-3.93,-4.09,-3.44,-3.46,-3.52
330.87,0.44,3.95,0.36,3.87,-3.86,-3.90,-4.08,-3.42,-3.50,-3.51
334.18,0.22,3.72,0.30,3.80,-3.82,-3.87,-4.08,-3.61,-3.53,-3.50
337.52,0.18,3.67,0.24,3.73,-3.80,-3.84,-4.07,-3.62,-3.56,-3.50
340.90,0.31,3.78,0.20,3.68,-3.77,-3.82,-4.07,-3.46,-3.57,-3.48
344.30,0.21,3.68,0.24,3.70,-3.75,-3.79,-4.08,-3.54,-3.51,-3.47
347.75,0.22,3.68,0.31,3.77,-3.74,-3.76,-4.08,-3.52,-3.42,-3.46
351.23,0.40,3.85,0.36,3.81,-3.75,-3.74,-4.09,-3.35,-3.39,-3.45
354.74,0.47,3.92,0.37,3.81,-3.77,-3.72,-4.10,-3.30,-3.40,-3.45
358.28,0.31,3.75,0.34,3.78,-3.79,-3.70,-4.12,-3.48,-3.45,-3.44
361.87,0.19,3.63,0.29,3.73,-3.79,-3.69,-4.14,-3.60,-3.50,-3.44
365.49,0.33,3.76,0.30,3.74,-3.75,-3.69,-4.16,-3.43,-3.46,-3.44
369.14,0.38,3.81,0.37,3.81,-3.71,-3.69,-4.18,-3.33,-3.34,-3.44
372.83,0.40,3.84,0.36,3.79,-3.67,-3.69,-4.21,-3.27,-3.31,-3.44
376.56,0.31,3.75,0.28,3.71,-3.66,-3.71,-4.24,-3.35,-3.38,-3.44
380.33,0.09,3.51,0.17,3.60,-3.68,-3.73,-4.27,-3.59,-3.51,-3.42
384.13,0.14,3.57,0.08,3.51,-3.71,-3.75,-4.31,-3.57,-3.63,-3.43
387.97,0.09,3.52,0.14,3.57,-3.75,-3.78,-4.35,-3.66,-3.61,-3.43
391.85,0.25,3.68,0.36,3.79,-3.79,-3.81,-4.39,-3.54,-3.43,-3.43
395.77,0.65,4.07,0.55,3.98,-3.85,-3.85,-4.43,-3.20,-3.30,-3.42
399.73,0.79,4.21,0.67,4.09,-3.92,-3.89,-4.48,-3.13,-3.26,-3.42
403.72,0.61,4.04,0.66,4.09,-4.00,-3.94,-4.53,-3.39,-3.34,-3.43
407.76,0.52,3.95,0.59,4.02,-4.07,-3.98,-4.58,-3.55,-3.47,-3.43
411.84,0.59,4.01,0.61,4.04,-4.11,-4.03,-4.63,-3.52,-3.51,-3.43
415.96,0.72,4.15,0.69,4.12,-4.14,-4.08,-4.68,-3.42,-3.45,-3.44
420.12,0.80,4.23,0.75,4.18,-4.15,-4.12,-4.73,-3.36,-3.40,-3.44
424.32,0.74,4.17,0.76,4.19,-4.18,-4.17,-4.78,-3.44,-3.42,-3.43
428.56,0.74,4.17,0.73,4.16,-4.21,-4.21,-4.83,-3.47,-3.47,-3.43
432.85,0.75,4.16,0.77,4.18,-4.26,-4.26,-4.89,-3.51,-3.48,-3.41
437.18,0.85,4.24,0.92,4.30,-4.30,-4.30,-4.94,-3.45,-3.38,-3.39
441.55,1.10,4.45,1.04,4.39,-4.33,-4.35,-4.99,-3.23,-3.29,-3.35
445.96,1.21,4.53,1.10,4.42,-4.35,-4.39,-5.04,-3.15,-3.25,-3.32
450.42,1.05,4.34,1.11,4.39,-4.37,-4.43,-5.08,-3.33,-3.27,-3.29
