frequency,raw,error,smoothed,error_smoothed,equalization,parametric_eq,fixed_band_eq,equalized_raw,equalized_smoothed,target
20.00,-10.96,-10.80,-10.96,-10.80,6.00,7.25,1.90,-4.96,-4.96,-0.16
20.20,-10.80,-10.68,-10.80,-10.67,6.00,7.18,1.96,-4.80,-4.80,-0.13
20.40,-10.64,-10.55,-10.64,-10.55,6.00,7.12,2.02,-4.64,-4.64,-0.09
20.61,-10.48,-10.42,-10.48,-10.42,6.00,7.05,2.08,-4.48,-4.48,-0.07
20.81,-10.32,-10.29,-10.32,-10.30,6.00,6.98,2.14,-4.32,-4.32,-0.03
21.02,-10.16,-10.17,-10.16,-10.17,6.00,6.91,2.21,-4.16,-4.16,0.01
21.23,-10.01,-10.03,-10.01,-10.04,6.00,6.85,2.28,-4.01,-4.01,0.02
21.44,-9.86,-9.90,-9.86,-9.90,6.00,6.78,2.34,-3.86,-3.86,0.04
21.66,-9.71,-9.77,-9.72,-9.76,6.00,6.71,2.41,-3.71,-3.72,0.05
21.87,-9.57,-9.62,-9.57,-9.62,6.00,6.64,2.49,-3.57,-3.57,0.05
22.09,-9.42,-9.48,-9.42,-9.48,6.00,6.57,2.56,-3.42,-3.42,0.06
22.31,-9.26,-9.32,-9.26,-9.33,6.00,6.49,2.64,-3.26,-3.26,0.06
22.54,-9.11,-9.17,-9.11,-9.17,6.00,6.42,2.72,-3.11,-3.11,0.06
22.76,-8.96,-9.01,-8.96,-9.01,6.00,6.35,2.80,-2.96,-2.96,0.05
22.99,-8.81,-8.85,-8.81,-8.85,6.00,6.27,2.88,-2.81,-2.81,0.04
23.22,-8.65,-8.69,-8.65,-8.69,6.00,6.20,2.97,-2.65,-2.65,0.04
23.45,-8.49,-8.52,-8.50,-8.53,6.00,6.12,3.05,-2.49,-2.50,0.03
23.69,-8.34,-8.37,-8.34,-8.37,6.00,6.05,3.14,-2.34,-2.34,0.03
23.92,-8.18,-8.21,-8.18,-8.21,6.00,5.97,3.23,-2.18,-2.18,0.03
24.16,-8.02,-8.06,-8.02,-8.05,6.00,5.89,3.32,-2.02,-2.02,0.04
24.40,-7.86,-7.90,-7.86,-7.89,6.00,5.82,3.41,-1.86,-1.86,0.04
24.65,-7.69,-7.72,-7.69,-7.72,6.00,5.74,3.51,-1.69,-1.69,0.03
24.89,-7.53,-7.55,-7.53,-7.56,6.00,5.66,3.60,-1.53,-1.53,0.03
25.14,-7.38,-7.40,-7.38,-7.40,6.00,5.58,3.70,-1.38,-1.38,0.03
25.39,-7.23,-7.25,-7.23,-7.25,6.00,5.49,3.79,-1.23,-1.23,0.02
25.65,-7.08,-7.10,-7.08,-7.10,6.00,5.41,3.89,-1.08,-1.08,0.01
25.91,-6.93,-6.94,-6.93,-6.94,6.01,5.33,3.98,-0.92,-0.92,0.00
26.16,-6.78,-6.78,-6.78,-6.79,6.03,5.25,4.08,-0.75,-0.76,0.00
26.43,-6.63,-6.64,-6.63,-6.63,6.03,5.16,4.17,-0.60,-0.60,0.00
26.69,-6.47,-6.47,-6.47,-6.47,6.02,5.08,4.26,-0.45,-0.45,0.00
26.96,-6.31,-6.30,-6.31,-6.31,5.99,4.99,4.35,-0.32,-0.32,-0.01
27.23,-6.15,-6.14,-6.15,-6.14,5.94,4.90,4.44,-0.21,-0.21,-0.01
27.50,-5.99,-5.98,-5.99,-5.97,5.88,4.82,4.52,-0.12,-0.11,-0.01
27.77,-5.83,-5.81,-5.83,-5.81,5.79,4.73,4.60,-0.04,-0.04,-0.02
28.05,-5.67,-5.65,-5.68,-5.65,5.67,4.64,4.68,0.00,-0.01,-0.02
28.33,-5.54,-5.51,-5.54,-5.51,5.54,4.55,4.74,0.00,0.00,-0.03
28.62,-5.40,-5.37,-5.40,-5.37,5.39,4.46,4.81,-0.01,-0.01,-0.04
28.90,-5.27,-5.23,-5.26,-5.23,5.23,4.37,4.86,-0.04,-0.03,-0.04
29.19,-5.11,-5.07,-5.11,-5.08,5.07,4.28,4.92,-0.04,-0.04,-0.04
29.48,-4.95,-4.92,-4.95,-4.92,4.91,4.19,4.95,-0.04,-0.04,-0.03
29.78,-4.79,-4.75,-4.79,-4.76,4.77,4.09,4.99,-0.03,-0.03,-0.04
30.08,-4.64,-4.61,-4.65,-4.61,4.62,4.00,5.01,-0.02,-0.03,-0.03
30.38,-4.51,-4.46,-4.51,-4.46,4.47,3.91,5.03,-0.04,-0.04,-0.05
30.68,-4.38,-4.33,-4.38,-4.33,4.33,3.81,5.03,-0.05,-0.05,-0.05
30.99,-4.25,-4.19,-4.25,-4.19,4.19,3.71,5.03,-0.06,-0.06,-0.06
31.30,-4.12,-4.06,-4.12,-4.06,4.05,3.62,5.01,-0.07,-0.07,-0.07
31.61,-3.99,-3.92,-3.99,-3.92,3.92,3.52,4.98,-0.07,-0.07,-0.07
31.93,-3.86,-3.77,-3.86,-3.78,3.78,3.42,4.94,-0.08,-0.08,-0.09
32.24,-3.73,-3.63,-3.74,-3.64,3.64,3.32,4.90,-0.09,-0.10,-0.10
32.57,-3.61,-3.51,-3.61,-3.50,3.49,3.22,4.84,-0.12,-0.12,-0.10
32.89,-3.48,-3.37,-3.47,-3.36,3.34,3.12,4.78,-0.14,-0.13,-0.11
33.22,-3.33,-3.20,-3.33,-3.20,3.19,3.02,4.70,-0.14,-0.14,-0.14
33.55,-3.17,-3.03,-3.17,-3.03,3.03,2.92,4.62,-0.14,-0.14,-0.14
33.89,-3.01,-2.85,-3.01,-2.86,2.87,2.82,4.52,-0.15,-0.15,-0.16
34.23,-2.86,-2.70,-2.86,-2.69,2.70,2.72,4.42,-0.16,-0.16,-0.16
34.57,-2.71,-2.53,-2.71,-2.53,2.54,2.62,4.32,-0.17,-0.18,-0.18
34.92,-2.57,-2.38,-2.57,-2.38,2.38,2.51,4.20,-0.19,-0.19,-0.20
35.27,-2.42,-2.23,-2.42,-2.22,2.22,2.41,4.08,-0.20,-0.20,-0.20
35.62,-2.28,-2.06,-2.28,-2.07,2.07,2.30,3.96,-0.22,-0.22,-0.22
35.97,-2.14,-1.91,-2.15,-1.92,1.91,2.20,3.83,-0.23,-0.23,-0.23
36.33,-2.02,-1.79,-2.02,-1.78,1.77,2.09,3.70,-0.25,-0.25,-0.23
36.70,-1.89,-1.65,-1.89,-1.65,1.64,1.99,3.57,-0.26,-0.26,-0.25
37.06,-1.77,-1.51,-1.76,-1.51,1.52,1.88,3.43,-0.25,-0.25,-0.26
37.43,-1.64,-1.39,-1.63,-1.37,1.41,1.78,3.29,-0.23,-0.22,-0.25
37.81,-1.51,-1.25,-1.52,-1.26,1.31,1.67,3.15,-0.20,-0.22,-0.26
38.19,-1.43,-1.15,-1.45,-1.18,1.21,1.56,3.00,-0.22,-0.24,-0.28
38.57,-1.40,-1.13,-1.40,-1.12,1.11,1.46,2.86,-0.29,-0.29,-0.27
38.95,-1.37,-1.09,-1.34,-1.06,1.00,1.35,2.72,-0.37,-0.34,-0.28
39.34,-1.24,-0.95,-1.24,-0.95,0.89,1.24,2.57,-0.35,-0.36,-0.29
39.74,-1.10,-0.80,-1.11,-0.81,0.77,1.13,2.43,-0.33,-0.34,-0.30
40.14,-0.96,-0.66,-0.95,-0.65,0.65,1.03,2.28,-0.31,-0.30,-0.30
40.54,-0.81,-0.51,-0.81,-0.50,0.53,0.92,2.13,-0.28,-0.27,-0.31
40.94,-0.66,-0.35,-0.68,-0.36,0.41,0.81,1.99,-0.25,-0.27,-0.31
41.35,-0.57,-0.25,-0.57,-0.24,0.29,0.70,1.84,-0.28,-0.28,-0.33
41.76,-0.49,-0.15,-0.48,-0.15,0.17,0.60,1.70,-0.32,-0.31,-0.34
42.18,-0.41,-0.07,-0.42,-0.08,0.05,0.49,1.56,-0.36,-0.37,-0.34
42.60,-0.35,0.01,-0.35,0.00,-0.06,0.38,1.41,-0.42,-0.41,-0.36
43.03,-0.28,0.08,-0.26,0.11,-0.17,0.28,1.27,-0.45,-0.43,-0.36
43.46,-0.14,0.25,-0.14,0.24,-0.27,0.17,1.13,-0.41,-0.41,-0.39
43.90,-0.00,0.41,-0.02,0.39,-0.36,0.07,0.99,-0.36,-0.38,-0.41
44.33,0.09,0.52,0.10,0.53,-0.44,-0.03,0.85,-0.35,-0.34,-0.43
44.78,0.17,0.62,0.15,0.60,-0.52,-0.14,0.71,-0.35,-0.36,-0.45
45.23,0.19,0.66,0.16,0.63,-0.60,-0.24,0.57,-0.41,-0.44,-0.47
45.68,0.14,0.62,0.16,0.64,-0.68,-0.34,0.43,-0.54,-0.53,-0.48
46.13,0.14,0.64,0.17,0.67,-0.76,-0.44,0.29,-0.62,-0.59,-0.50
46.60,0.25,0.75,0.24,0.75,-0.84,-0.54,0.15,-0.60,-0.60,-0.50
47.06,0.37,0.88,0.38,0.89,-0.92,-0.63,0.02,-0.56,-0.54,-0.51
47.53,0.52,1.04,0.52,1.04,-1.00,-0.73,-0.12,-0.48,-0.48,-0.52
48.01,0.67,1.19,0.62,1.15,-1.08,-0.82,-0.25,-0.41,-0.46,-0.52
48.49,0.68,1.22,0.68,1.22,-1.16,-0.91,-0.39,-0.48,-0.47,-0.54
48.97,0.69,1.25,0.72,1.28,-1.23,-1.00,-0.52,-0.54,-0.51,-0.56
49.46,0.74,1.30,0.74,1.31,-1.30,-1.09,-0.65,-0.56,-0.56,-0.57
49.96,0.79,1.37,0.74,1.31,-1.35,-1.18,-0.78,-0.57,-0.62,-0.58
50.46,0.75,1.32,0.74,1.32,-1.40,-1.26,-0.91,-0.65,-0.65,-0.57
50.96,0.71,1.29,0.80,1.38,-1.43,-1.35,-1.04,-0.72,-0.64,-0.58
51.47,0.88,1.47,0.88,1.46,-1.47,-1.43,-1.17,-0.59,-0.59,-0.59
51.99,1.05,1.64,0.97,1.56,-1.50,-1.50,-1.29,-0.46,-0.54,-0.60
52.51,1.02,1.61,1.03,1.62,-1.54,-1.58,-1.41,-0.52,-0.52,-0.60
53.03,0.99,1.58,1.01,1.61,-1.59,-1.65,-1.54,-0.60,-0.57,-0.59
53.56,0.99,1.59,0.99,1.59,-1.63,-1.72,-1.65,-0.64,-0.64,-0.60
54.10,1.00,1.61,1.01,1.62,-1.67,-1.79,-1.77,-0.67,-0.67,-0.61
54.64,1.05,1.66,1.05,1.67,-1.71,-1.85,-1.88,-0.66,-0.65,-0.62
55.18,1.11,1.73,1.11,1.73,-1.73,-1.91,-1.99,-0.63,-0.63,-0.63
55.74,1.16,1.79,1.15,1.79,-1.76,-1.97,-2.10,-0.60,-0.61,-0.64
56.29,1.19,1.83,1.18,1.83,-1.79,-2.03,-2.20,-0.60,-0.61,-0.64
56.86,1.19,1.85,1.19,1.85,-1.83,-2.08,-2.30,-0.64,-0.64,-0.66
57.42,1.19,1.86,1.19,1.86,-1.86,-2.13,-2.39,-0.67,-0.67,-0.67
58.00,1.19,1.87,1.19,1.87,-1.88,-2.18,-2.48,-0.69,-0.69,-0.68
58.58,1.19,1.89,1.19,1.89,-1.90,-2.22,-2.56,-0.71,-0.71,-0.70
59.16,1.19,1.90,1.19,1.90,-1.91,-2.26,-2.64,-0.72,-0.72,-0.71
59.76,1.19,1.92,1.19,1.92,-1.93,-2.30,-2.71,-0.74,-0.74,-0.74
60.35,1.19,1.95,1.19,1.95,-1.95,-2.34,-2.78,-0.77,-0.77,-0.76
60.96,1.19,1.97,1.19,1.98,-1.98,-2.37,-2.84,-0.79,-0.79,-0.78
61.57,1.19,2.02,1.19,2.01,-2.01,-2.40,-2.89,-0.83,-0.83,-0.83
62.18,1.19,2.05,1.19,2.05,-2.05,-2.43,-2.94,-0.86,-0.86,-0.86
62.80,1.19,2.09,1.19,2.09,-2.09,-2.45,-2.98,-0.90,-0.90,-0.90
63.43,1.19,2.13,1.19,2.13,-2.12,-2.47,-3.02,-0.93,-0.93,-0.94
64.07,1.19,2.16,1.19,2.16,-2.16,-2.50,-3.05,-0.97,-0.97,-0.97
64.71,1.19,2.20,1.19,2.20,-2.20,-2.51,-3.07,-1.01,-1.01,-1.01
65.35,1.19,2.23,1.19,2.23,-2.23,-2.53,-3.09,-1.05,-1.05,-1.04
66.01,1.19,2.27,1.19,2.27,-2.27,-2.54,-3.10,-1.09,-1.09,-1.08
66.67,1.19,2.31,1.19,2.30,-2.31,-2.55,-3.10,-1.12,-1.12,-1.12
67.33,1.19,2.34,1.19,2.34,-2.35,-2.56,-3.10,-1.16,-1.16,-1.15
68.01,1.19,2.38,1.19,2.38,-2.37,-2.57,-3.10,-1.19,-1.18,-1.19
68.69,1.19,2.42,1.19,2.42,-2.40,-2.58,-3.09,-1.21,-1.20,-1.23
69.37,1.19,2.46,1.19,2.46,-2.42,-2.59,-3.08,-1.23,-1.23,-1.27
70.07,1.18,2.49,1.16,2.47,-2.44,-2.59,-3.07,-1.26,-1.28,-1.31
70.77,1.11,2.45,1.11,2.45,-2.47,-2.59,-3.05,-1.36,-1.36,-1.34
71.48,1.05,2.43,1.07,2.45,-2.49,-2.60,-3.03,-1.44,-1.43,-1.39
72.19,1.03,2.46,1.05,2.48,-2.52,-2.60,-3.01,-1.49,-1.47,-1.43
72.91,1.08,2.56,1.06,2.54,-2.56,-2.60,-2.98,-1.48,-1.49,-1.48
73.64,1.09,2.62,1.08,2.61,-2.60,-2.60,-2.96,-1.51,-1.52,-1.53
74.38,1.09,2.66,1.09,2.67,-2.65,-2.60,-2.93,-1.56,-1.56,-1.57
75.12,1.09,2.71,1.09,2.70,-2.71,-2.60,-2.91,-1.62,-1.62,-1.62
75.87,1.09,2.74,1.09,2.74,-2.76,-2.60,-2.88,-1.68,-1.68,-1.66
76.63,1.09,2.78,1.10,2.80,-2.81,-2.59,-2.85,-1.72,-1.71,-1.69
77.40,1.12,2.85,1.13,2.86,-2.84,-2.59,-2.82,-1.72,-1.71,-1.73
78.17,1.16,2.93,1.14,2.90,-2.86,-2.59,-2.80,-1.70,-1.72,-1.77
78.95,1.15,2.94,1.11,2.91,-2.86,-2.59,-2.77,-1.72,-1.75,-1.80
79.74,1.03,2.85,1.06,2.89,-2.86,-2.59,-2.75,-1.83,-1.80,-1.83
80.54,0.99,2.84,1.01,2.86,-2.86,-2.59,-2.72,-1.87,-1.85,-1.85
81.35,0.97,2.85,0.93,2.82,-2.85,-2.59,-2.70,-1.88,-1.92,-1.88
82.16,0.91,2.82,0.89,2.80,-2.84,-2.59,-2.68,-1.93,-1.96,-1.92
82.98,0.79,2.73,0.86,2.80,-2.84,-2.59,-2.66,-2.06,-1.99,-1.94
83.81,0.87,2.85,0.85,2.82,-2.86,-2.59,-2.64,-1.99,-2.01,-1.98
84.65,0.89,2.90,0.87,2.87,-2.88,-2.59,-2.63,-1.99,-2.02,-2.01
85.50,0.89,2.92,0.90,2.93,-2.91,-2.59,-2.61,-2.02,-2.02,-2.03
86.35,0.89,2.95,0.89,2.96,-2.94,-2.59,-2.60,-2.05,-2.05,-2.07
87.22,0.89,2.99,0.90,2.99,-2.97,-2.59,-2.59,-2.08,-2.07,-2.10
88.09,0.89,3.02,0.89,3.02,-2.98,-2.60,-2.58,-2.09,-2.09,-2.13
88.97,0.88,3.04,0.86,3.02,-2.99,-2.60,-2.58,-2.12,-2.14,-2.16
89.86,0.80,2.99,0.81,3.00,-3.00,-2.61,-2.57,-2.20,-2.20,-2.19
90.76,0.74,2.97,0.75,2.98,-3.01,-2.61,-2.57,-2.27,-2.26,-2.23
91.66,0.71,2.96,0.71,2.97,-3.01,-2.62,-2.57,-2.30,-2.30,-2.25
92.58,0.70,2.99,0.70,2.99,-3.01,-2.63,-2.57,-2.31,-2.31,-2.29
93.51,0.70,3.02,0.70,3.02,-3.01,-2.63,-2.58,-2.32,-2.31,-2.32
94.44,0.70,3.04,0.71,3.05,-3.02,-2.64,-2.58,-2.33,-2.32,-2.34
95.39,0.70,3.07,0.69,3.06,-3.04,-2.65,-2.59,-2.34,-2.35,-2.37
96.34,0.66,3.07,0.63,3.03,-3.04,-2.66,-2.60,-2.39,-2.42,-2.41
97.30,0.56,2.99,0.58,3.01,-3.04,-2.67,-2.61,-2.48,-2.46,-2.44
98.28,0.50,2.96,0.58,3.04,-3.02,-2.69,-2.62,-2.52,-2.44,-2.46
99.26,0.61,3.09,0.57,3.05,-3.00,-2.70,-2.64,-2.39,-2.43,-2.48
100.25,0.61,3.12,0.50,3.01,-2.97,-2.71,-2.66,-2.37,-2.47,-2.51
101.25,0.37,2.90,0.40,2.94,-2.95,-2.73,-2.67,-2.58,-2.54,-2.54
102.27,0.20,2.76,0.29,2.86,-2.92,-2.74,-2.69,-2.72,-2.63,-2.57
103.29,0.25,2.86,0.23,2.84,-2.90,-2.76,-2.71,-2.65,-2.66,-2.61
104.32,0.28,2.91,0.24,2.87,-2.88,-2.77,-2.73,-2.60,-2.64,-2.63
105.37,0.23,2.90,0.21,2.88,-2.86,-2.79,-2.75,-2.63,-2.64,-2.67
106.42,0.13,2.83,0.13,2.83,-2.83,-2.81,-2.78,-2.70,-2.70,-2.70
107.48,0.04,2.77,0.08,2.81,-2.81,-2.82,-2.80,-2.77,-2.73,-2.74
108.56,0.02,2.79,0.04,2.81,-2.78,-2.84,-2.82,-2.76,-2.74,-2.77
109.64,0.06,2.87,0.01,2.82,-2.76,-2.86,-2.85,-2.70,-2.75,-2.81
110.74,-0.06,2.78,-0.08,2.76,-2.73,-2.88,-2.87,-2.79,-2.81,-2.84
111.85,-0.19,2.68,-0.22,2.66,-2.70,-2.90,-2.89,-2.90,-2.92,-2.87
112.97,-0.39,2.53,-0.31,2.60,-2.69,-2.92,-2.91,-3.08,-2.99,-2.92
114.10,-0.36,2.57,-0.32,2.62,-2.67,-2.94,-2.94,-3.03,-3.00,-2.93
115.24,-0.22,2.75,-0.32,2.65,-2.66,-2.96,-2.96,-2.88,-2.97,-2.97
116.39,-0.30,2.70,-0.30,2.70,-2.64,-2.98,-2.98,-2.94,-2.94,-3.00
117.55,-0.37,2.65,-0.32,2.70,-2.63,-3.00,-3.00,-3.00,-2.96,-3.03
118.73,-0.38,2.67,-0.39,2.66,-2.63,-3.02,-3.01,-3.02,-3.02,-3.05
119.92,-0.38,2.68,-0.43,2.64,-2.64,-3.04,-3.03,-3.02,-3.07,-3.06
121.12,-0.49,2.59,-0.46,2.62,-2.65,-3.06,-3.04,-3.14,-3.11,-3.08
122.33,-0.51,2.59,-0.49,2.61,-2.65,-3.08,-3.05,-3.16,-3.14,-3.10
123.55,-0.48,2.62,-0.49,2.62,-2.65,-3.11,-3.07,-3.13,-3.14,-3.10
124.79,-0.45,2.68,-0.46,2.66,-2.66,-3.13,-3.07,-3.11,-3.12,-3.13
126.03,-0.44,2.70,-0.44,2.70,-2.68,-3.15,-3.08,-3.12,-3.12,-3.14
127.29,-0.43,2.72,-0.43,2.73,-2.71,-3.17,-3.08,-3.14,-3.14,-3.16
128.57,-0.43,2.75,-0.43,2.75,-2.74,-3.19,-3.09,-3.17,-3.16,-3.18
129.85,-0.42,2.77,-0.42,2.77,-2.76,-3.21,-3.09,-3.18,-3.19,-3.19
131.15,-0.42,2.78,-0.42,2.78,-2.79,-3.23,-3.09,-3.21,-3.21,-3.21
132.46,-0.41,2.81,-0.41,2.80,-2.81,-3.25,-3.09,-3.22,-3.22,-3.22
133.79,-0.41,2.81,-0.41,2.82,-2.82,-3.28,-3.08,-3.23,-3.23,-3.22
135.12,-0.40,2.85,-0.40,2.83,-2.83,-3.30,-3.08,-3.23,-3.24,-3.25
136.48,-0.40,2.85,-0.40,2.85,-2.84,-3.32,-3.07,-3.24,-3.24,-3.25
137.84,-0.40,2.87,-0.39,2.89,-2.85,-3.34,-3.07,-3.25,-3.24,-3.27
139.22,-0.39,2.91,-0.41,2.88,-2.86,-3.36,-3.06,-3.26,-3.28,-3.30
140.61,-0.41,2.91,-0.44,2.87,-2.89,-3.37,-3.05,-3.30,-3.33,-3.32
142.02,-0.50,2.81,-0.44,2.89,-2.92,-3.39,-3.04,-3.43,-3.36,-3.32
143.44,-0.41,2.92,-0.40,2.93,-2.98,-3.41,-3.03,-3.39,-3.38,-3.33
144.87,-0.30,3.06,-0.36,3.00,-3.05,-3.43,-3.03,-3.35,-3.41,-3.36
146.32,-0.29,3.09,-0.29,3.09,-3.11,-3.45,-3.02,-3.40,-3.40,-3.39
147.78,-0.29,3.12,-0.23,3.19,-3.17,-3.47,-3.01,-3.46,-3.40,-3.41
149.26,-0.15,3.30,-0.18,3.28,-3.23,-3.48,-3.00,-3.38,-3.41,-3.45
150.75,-0.09,3.41,-0.13,3.37,-3.28,-3.50,-3.00,-3.37,-3.41,-3.50
152.26,-0.15,3.39,-0.13,3.42,-3.33,-3.52,-2.99,-3.48,-3.46,-3.55
153.78,-0.19,3.41,-0.23,3.37,-3.37,-3.53,-2.99,-3.56,-3.60,-3.60
155.32,-0.33,3.33,-0.32,3.34,-3.41,-3.55,-2.99,-3.74,-3.73,-3.66
156.88,-0.43,3.28,-0.36,3.36,-3.44,-3.56,-2.99,-3.87,-3.80,-3.72
158.44,-0.33,3.46,-0.36,3.42,-3.48,-3.58,-2.99,-3.82,-3.84,-3.79
160.03,-0.29,3.56,-0.32,3.53,-3.54,-3.59,-2.99,-3.83,-3.85,-3.85
161.63,-0.29,3.61,-0.28,3.62,-3.59,-3.60,-3.00,-3.88,-3.88,-3.90
163.24,-0.29,3.67,-0.30,3.65,-3.65,-3.62,-3.00,-3.94,-3.94,-3.96
164.88,-0.30,3.69,-0.30,3.70,-3.69,-3.63,-3.01,-3.99,-3.99,-3.99
166.53,-0.30,3.73,-0.25,3.78,-3.72,-3.64,-3.03,-4.02,-3.96,-4.03
168.19,-0.22,3.84,-0.25,3.81,-3.73,-3.65,-3.04,-3.96,-3.98,-4.06
169.87,-0.18,3.90,-0.29,3.79,-3.74,-3.66,-3.05,-3.93,-4.03,-4.09
171.57,-0.46,3.64,-0.39,3.71,-3.75,-3.67,-3.07,-4.21,-4.14,-4.10
173.29,-0.48,3.63,-0.47,3.64,-3.75,-3.68,-3.09,-4.23,-4.22,-4.11
175.02,-0.52,3.60,-0.46,3.66,-3.75,-3.69,-3.12,-4.27,-4.21,-4.12
176.77,-0.33,3.79,-0.37,3.75,-3.75,-3.70,-3.14,-4.08,-4.12,-4.12
178.54,-0.26,3.87,-0.31,3.81,-3.75,-3.71,-3.17,-4.01,-4.06,-4.13
180.32,-0.30,3.81,-0.28,3.83,-3.76,-3.72,-3.20,-4.07,-4.05,-4.11
182.13,-0.33,3.78,-0.31,3.80,-3.78,-3.73,-3.23,-4.12,-4.10,-4.11
183.95,-0.32,3.79,-0.32,3.79,-3.81,-3.74,-3.26,-4.13,-4.14,-4.11
185.79,-0.31,3.81,-0.31,3.81,-3.83,-3.75,-3.30,-4.14,-4.14,-4.12
187.65,-0.29,3.84,-0.30,3.83,-3.84,-3.75,-3.34,-4.13,-4.13,-4.13
189.52,-0.28,3.85,-0.28,3.85,-3.85,-3.76,-3.38,-4.13,-4.13,-4.13
191.42,-0.27,3.88,-0.27,3.88,-3.88,-3.77,-3.43,-4.15,-4.14,-4.15
193.33,-0.25,3.91,-0.25,3.91,-3.91,-3.77,-3.47,-4.17,-4.17,-4.16
195.27,-0.23,3.94,-0.24,3.93,-3.96,-3.78,-3.52,-4.19,-4.20,-4.17
197.22,-0.22,3.97,-0.23,3.96,-3.99,-3.79,-3.57,-4.21,-4.22,-4.19
199.19,-0.21,4.00,-0.16,4.04,-4.03,-3.79,-3.62,-4.24,-4.19,-4.21
201.18,-0.12,4.10,-0.10,4.13,-4.07,-3.80,-3.67,-4.19,-4.17,-4.22
203.19,0.02,4.25,-0.10,4.14,-4.11,-3.80,-3.72,-4.09,-4.21,-4.24
205.23,-0.12,4.14,-0.12,4.14,-4.15,-3.81,-3.78,-4.27,-4.27,-4.27
207.28,-0.25,4.01,-0.13,4.15,-4.19,-3.81,-3.83,-4.44,-4.32,-4.27
209.35,-0.08,4.21,-0.12,4.18,-4.23,-3.82,-3.89,-4.31,-4.35,-4.29
211.44,-0.00,4.31,-0.05,4.26,-4.26,-3.82,-3.95,-4.26,-4.31,-4.31
213.56,-0.00,4.32,0.01,4.33,-4.28,-3.83,-4.00,-4.29,-4.28,-4.32
215.69,-0.01,4.32,-0.00,4.33,-4.30,-3.83,-4.06,-4.31,-4.30,-4.33
217.85,-0.01,4.33,-0.01,4.33,-4.32,-3.83,-4.11,-4.33,-4.33,-4.34
220.03,-0.01,4.35,-0.01,4.34,-4.33,-3.84,-4.17,-4.34,-4.34,-4.36
222.23,-0.01,4.35,-0.01,4.34,-4.34,-3.84,-4.22,-4.35,-4.35,-4.37
224.45,-0.02,4.33,-0.02,4.34,-4.35,-3.85,-4.27,-4.37,-4.37,-4.35
226.70,-0.01,4.34,-0.02,4.33,-4.37,-3.85,-4.32,-4.38,-4.39,-4.35
228.96,-0.01,4.34,-0.03,4.32,-4.39,-3.86,-4.37,-4.40,-4.41,-4.35
231.25,-0.00,4.33,0.03,4.36,-4.40,-3.86,-4.41,-4.40,-4.38,-4.33
233.57,0.06,4.38,0.12,4.44,-4.42,-3.87,-4.45,-4.36,-4.30,-4.32
235.90,0.27,4.57,0.19,4.49,-4.43,-3.87,-4.49,-4.16,-4.24,-4.31
238.26,0.26,4.54,0.23,4.51,-4.44,-3.87,-4.52,-4.18,-4.21,-4.28
240.64,0.17,4.43,0.21,4.47,-4.44,-3.88,-4.55,-4.27,-4.22,-4.26
243.05,0.16,4.38,0.17,4.40,-4.43,-3.88,-4.58,-4.27,-4.26,-4.22
245.48,0.18,4.38,0.17,4.37,-4.41,-3.89,-4.60,-4.23,-4.24,-4.20
247.93,0.21,4.38,0.20,4.38,-4.39,-3.89,-4.62,-4.19,-4.19,-4.17
250.41,0.23,4.39,0.23,4.38,-4.38,-3.90,-4.63,-4.15,-4.15,-4.16
252.92,0.25,4.37,0.25,4.37,-4.38,-3.90,-4.64,-4.13,-4.14,-4.12
255.45,0.26,4.36,0.24,4.35,-4.39,-3.91,-4.64,-4.13,-4.15,-4.10
258.00,0.27,4.35,0.28,4.36,-4.41,-3.92,-4.64,-4.14,-4.12,-4.08
260.58,0.29,4.36,0.36,4.43,-4.42,-3.92,-4.64,-4.13,-4.05,-4.07
263.19,0.49,4.53,0.42,4.47,-4.42,-3.93,-4.63,-3.93,-3.99,-4.04
265.82,0.51,4.54,0.45,4.48,-4.41,-3.93,-4.62,-3.90,-3.95,-4.03
268.48,0.39,4.39,0.44,4.44,-4.39,-3.94,-4.60,-4.00,-3.95,-4.00
271.16,0.37,4.34,0.38,4.36,-4.37,-3.95,-4.58,-4.00,-3.99,-3.97
273.87,0.36,4.32,0.35,4.30,-4.35,-3.96,-4.56,-3.99,-4.00,-3.96
276.61,0.36,4.29,0.36,4.29,-4.32,-3.96,-4.53,-3.97,-3.97,-3.93
279.38,0.36,4.26,0.36,4.27,-4.30,-3.97,-4.51,-3.94,-3.94,-3.90
282.17,0.37,4.26,0.35,4.23,-4.27,-3.98,-4.48,-3.90,-3.92,-3.89
284.99,0.37,4.22,0.38,4.23,-4.24,-3.99,-4.45,-3.87,-3.86,-3.85
287.84,0.38,4.20,0.45,4.28,-4.21,-3.99,-4.42,-3.83,-3.76,-3.82
290.72,0.53,4.32,0.46,4.25,-4.20,-4.00,-4.39,-3.67,-3.73,-3.79
293.63,0.55,4.31,0.44,4.20,-4.17,-4.01,-4.36,-3.63,-3.74,-3.76
296.57,0.26,3.98,0.41,4.14,-4.15,-4.02,-4.33,-3.89,-3.75,-3.72
299.53,0.37,4.07,0.37,4.07,-4.13,-4.03,-4.30,-3.76,-3.76,-3.71
302.53,0.43,4.11,0.38,4.05,-4.11,-4.04,-4.27,-3.68,-3.72,-3.68
305.55,0.45,4.09,0.45,4.10,-4.08,-4.05,-4.24,-3.63,-3.63,-3.64
308.61,0.46,4.08,0.46,4.08,-4.07,-4.06,-4.22,-3.61,-3.60,-3.62
311.69,0.47,4.07,0.47,4.06,-4.06,-4.07,-4.19,-3.59,-3.59,-3.61
314.81,0.47,4.04,0.47,4.05,-4.05,-4.08,-4.17,-3.58,-3.58,-3.57
317.96,0.47,4.03,0.47,4.03,-4.04,-4.09,-4.15,-3.57,-3.57,-3.56
321.14,0.47,4.01,0.47,4.01,-4.01,-4.10,-4.13,-3.54,-3.54,-3.54
324.35,0.47,4.00,0.49,4.02,-3.96,-4.11,-4.11,-3.49,-3.47,-3.53
327.59,0.47,3.98,0.45,3.97,-3.90,-4.13,-4.10,-3.43,-3.45,-3.52
330.87,0.44,3.95,0.36,3.87,-3.86,-4.14,-4.09,-3.42,-3.50,-3.51
334.18,0.22,3.72,0.30,3.79,-3.82,-4.15,-4.08,-3.60,-3.52,-3.50
337.52,0.18,3.67,0.24,3.72,-3.79,-4.16,-4.07,-3.61,-3.55,-3.49
340.90,0.31,3.78,0.20,3.67,-3.77,-4.18,-4.07,-3.46,-3.57,-3.47
344.30,0.21,3.67,0.24,3.70,-3.74,-4.19,-4.07,-3.53,-3.51,-3.46
347.75,0.22,3.67,0.31,3.77,-3.73,-4.20,-4.07,-3.51,-3.42,-3.46
351.23,0.40,3.84,0.36,3.80,-3.74,-4.22,-4.08,-3.34,-3.39,-3.45
354.74,0.47,3.92,0.37,3.81,-3.76,-4.23,-4.09,-3.30,-3.40,-3.45
358.28,0.31,3.75,0.34,3.78,-3.78,-4.24,-4.10,-3.48,-3.45,-3.44
361.87,0.19,3.63,0.29,3.73,-3.78,-4.26,-4.12,-3.59,-3.49,-3.44
365.49,0.33,3.76,0.30,3.73,-3.75,-4.27,-4.14,-3.42,-3.45,-3.43
369.14,0.38,3.81,0.37,3.80,-3.71,-4.29,-4.16,-3.33,-3.34,-3.43
372.83,0.40,3.83,0.36,3.79,-3.67,-4.30,-4.19,-3.27,-3.31,-3.43
376.56,0.31,3.74,0.28,3.71,-3.66,-4.32,-4.21,-3.35,-3.38,-3.44
380.33,0.09,3.51,0.17,3.59,-3.67,-4.33,-4.25,-3.59,-3.51,-3.42
384.13,0.14,3.57,0.08,3.50,-3.71,-4.35,-4.28,-3.57,-3.63,-3.43
387.97,0.09,3.52,0.14,3.57,-3.75,-4.36,-4.32,-3.66,-3.61,-3.43
391.85,0.25,3.68,0.36,3.79,-3.79,-4.38,-4.35,-3.54,-3.43,-3.43
395.77,0.65,4.07,0.55,3.97,-3.84,-4.40,-4.40,-3.20,-3.30,-3.42
399.73,0.79,4.21,0.67,4.09,-3.92,-4.41,-4.44,-3.13,-3.25,-3.42
403.72,0.61,4.04,0.66,4.09,-4.00,-4.43,-4.48,-3.39,-3.34,-3.43
407.76,0.52,3.95,0.59,4.02,-4.07,-4.44,-4.53,-3.55,-3.47,-3.43
411.84,0.59,4.01,0.61,4.04,-4.11,-4.46,-4.58,-3.52,-3.51,-3.42
415.96,0.72,4.15,0.69,4.12,-4.14,-4.48,-4.63,-3.42,-3.45,-3.43
420.12,0.80,4.23,0.75,4.18,-4.15,-4.49,-4.68,-3.36,-3.40,-3.44
424.32,0.74,4.16,0.76,4.19,-4.17,-4.51,-4.73,-3.44,-3.42,-3.43
428.56,0.74,4.17,0.73,4.16,-4.21,-4.52,-4.78,-3.47,-3.47,-3.43
432.85,0.75,4.16,0.77,4.18,-4.26,-4.54,-4.83,-3.51,-3.48,-3.41
437.18,0.85,4.24,0.92,4.30,-4.30,-4.56,-4.88,-3.45,-3.38,-3.39
441.55,1.10,4.45,1.04,4.39,-4.33,-4.57,-4.92,-3.23,-3.29,-3.35
445.96,1.21,4.53,1.10,4.42,-4.35,-4.59,-4.97,-3.15,-3.25,-3.32
450.42,1.05,4.34,1.11,4.39,-4.37,-4.60,-5.01,-3.32,-3.27,-3.29
