frequency,raw,error,smoothed,error_smoothed,equalization,parametric_eq,fixed_band_eq,equalized_raw,equalized_smoothed,target
20.00,1.84,-5.28,1.84,-5.28,5.28,5.04,1.90,7.12,7.12,7.12
20.20,1.86,-5.23,1.87,-5.23,5.23,5.01,1.96,7.10,7.10,7.09
20.40,1.88,-5.19,1.89,-5.18,5.18,4.99,2.02,7.07,7.07,7.07
20.61,1.91,-5.14,1.91,-5.14,5.14,4.97,2.08,7.05,7.05,7.05
20.81,1.93,-5.10,1.93,-5.10,5.09,4.94,2.14,7.03,7.03,7.03
21.02,1.95,-5.06,1.96,-5.05,5.05,4.92,2.20,7.00,7.01,7.01
21.23,1.98,-5.00,1.98,-5.01,5.01,4.90,2.26,6.99,6.99,6.99
21.44,2.00,-4.96,2.00,-4.96,4.96,4.87,2.33,6.97,6.97,6.97
21.66,2.02,-4.92,2.03,-4.92,4.92,4.84,2.40,6.95,6.95,6.95
21.87,2.05,-4.88,2.05,-4.88,4.89,4.82,2.47,6.94,6.94,6.94
22.09,2.07,-4.84,2.07,-4.85,4.85,4.79,2.54,6.92,6.92,6.92
22.31,2.09,-4.81,2.10,-4.81,4.81,4.76,2.62,6.91,6.91,6.91
22.54,2.11,-4.78,2.12,-4.78,4.78,4.74,2.69,6.89,6.89,6.90
22.76,2.14,-4.74,2.14,-4.74,4.74,4.71,2.77,6.89,6.88,6.88
22.99,2.16,-4.71,2.16,-4.71,4.71,4.68,2.85,6.87,6.87,6.87
23.22,2.18,-4.68,2.19,-4.67,4.68,4.66,2.93,6.86,6.86,6.86
23.45,2.21,-4.64,2.21,-4.64,4.64,4.63,3.01,6.86,6.86,6.85
23.69,2.23,-4.61,2.23,-4.61,4.61,4.61,3.10,6.85,6.85,6.84
23.92,2.25,-4.59,2.26,-4.58,4.58,4.58,3.19,6.84,6.84,6.84
24.16,2.27,-4.56,2.28,-4.55,4.55,4.56,3.28,6.83,6.83,6.83
24.40,2.30,-4.52,2.30,-4.53,4.52,4.53,3.37,6.83,6.83,6.83
24.65,2.32,-4.49,2.32,-4.50,4.49,4.51,3.46,6.82,6.82,6.82
24.89,2.34,-4.47,2.35,-4.47,4.47,4.48,3.55,6.81,6.81,6.82
25.14,2.37,-4.44,2.37,-4.44,4.44,4.46,3.64,6.80,6.81,6.81
25.39,2.40,-4.40,2.39,-4.41,4.41,4.44,3.74,6.80,6.80,6.80
25.65,2.41,-4.38,2.41,-4.38,4.38,4.41,3.83,6.80,6.80,6.79
25.91,2.43,-4.35,2.43,-4.35,4.35,4.39,3.92,6.79,6.79,6.78
26.16,2.45,-4.33,2.46,-4.33,4.32,4.37,4.02,6.78,6.78,6.78
26.43,2.47,-4.31,2.48,-4.30,4.30,4.35,4.11,6.77,6.78,6.78
26.69,2.50,-4.27,2.50,-4.27,4.27,4.32,4.20,6.78,6.77,6.77
26.96,2.52,-4.24,2.52,-4.24,4.24,4.30,4.29,6.77,6.77,6.77
27.23,2.54,-4.21,2.55,-4.22,4.22,4.28,4.38,6.76,6.76,6.76
27.50,2.56,-4.19,2.56,-4.19,4.19,4.26,4.47,6.76,6.76,6.76
27.77,2.58,-4.17,2.58,-4.17,4.17,4.24,4.55,6.75,6.75,6.75
28.05,2.60,-4.14,2.60,-4.14,4.14,4.22,4.63,6.75,6.75,6.74
28.33,2.62,-4.12,2.62,-4.12,4.12,4.20,4.71,6.74,6.74,6.74
28.62,2.64,-4.10,2.64,-4.09,4.09,4.18,4.78,6.74,6.74,6.74
28.90,2.66,-4.06,2.66,-4.07,4.07,4.16,4.84,6.73,6.73,6.73
29.19,2.68,-4.04,2.68,-4.04,4.04,4.15,4.90,6.73,6.73,6.73
29.48,2.70,-4.02,2.71,-4.02,4.02,4.13,4.96,6.72,6.72,6.73
29.78,2.72,-4.00,2.73,-4.00,3.99,4.11,5.01,6.72,6.72,6.72
30.08,2.75,-3.97,2.75,-3.97,3.97,4.09,5.05,6.72,6.72,6.72
30.38,2.77,-3.94,2.77,-3.94,3.94,4.07,5.08,6.72,6.72,6.71
30.68,2.79,-3.91,2.79,-3.91,3.92,4.06,5.11,6.71,6.71,6.71
30.99,2.81,-3.89,2.81,-3.89,3.90,4.04,5.13,6.71,6.71,6.71
31.30,2.82,-3.88,2.83,-3.87,3.87,4.02,5.14,6.70,6.70,6.70
31.61,2.84,-3.85,2.84,-3.85,3.85,4.01,5.14,6.69,6.69,6.69
31.93,2.86,-3.82,2.86,-3.83,3.83,3.99,5.14,6.69,6.69,6.69
32.24,2.87,-3.81,2.88,-3.80,3.80,3.97,5.13,6.68,6.68,6.69
32.57,2.89,-3.78,2.90,-3.78,3.78,3.96,5.11,6.68,6.68,6.67
32.89,2.91,-3.76,2.91,-3.76,3.76,3.94,5.09,6.67,6.67,6.67
33.22,2.93,-3.73,2.93,-3.73,3.74,3.92,5.05,6.67,6.67,6.67
33.55,2.94,-3.71,2.95,-3.71,3.71,3.91,5.01,6.66,6.66,6.66
33.89,2.96,-3.69,2.96,-3.69,3.69,3.89,4.97,6.66,6.65,6.65
34.23,2.97,-3.68,2.97,-3.67,3.67,3.88,4.92,6.65,6.65,6.65
34.57,2.98,-3.65,2.99,-3.65,3.65,3.86,4.87,6.64,6.64,6.64
34.92,3.00,-3.63,3.00,-3.63,3.63,3.85,4.81,6.64,6.63,6.63
35.27,3.01,-3.62,3.01,-3.61,3.61,3.83,4.75,6.63,6.63,6.63
35.62,3.02,-3.59,3.03,-3.59,3.59,3.82,4.68,6.62,6.62,6.62
35.97,3.04,-3.57,3.04,-3.57,3.57,3.80,4.61,6.62,6.62,6.61
36.33,3.05,-3.55,3.05,-3.56,3.56,3.79,4.55,6.61,6.61,6.61
36.70,3.06,-3.54,3.07,-3.54,3.54,3.77,4.47,6.60,6.60,6.61
37.06,3.07,-3.53,3.07,-3.52,3.52,3.76,4.40,6.60,6.60,6.60
37.43,3.08,-3.50,3.08,-3.51,3.51,3.74,4.33,6.59,6.59,6.59
37.81,3.09,-3.49,3.10,-3.49,3.49,3.73,4.26,6.58,6.58,6.58
38.19,3.10,-3.47,3.10,-3.47,3.47,3.72,4.19,6.58,6.58,6.58
38.57,3.11,-3.45,3.11,-3.46,3.45,3.70,4.11,6.57,6.57,6.56
38.95,3.11,-3.44,3.12,-3.44,3.44,3.69,4.04,6.55,6.55,6.56
39.34,3.12,-3.42,3.13,-3.42,3.42,3.67,3.97,6.54,6.54,6.54
39.74,3.13,-3.40,3.13,-3.40,3.40,3.66,3.90,6.53,6.53,6.54
40.14,3.14,-3.38,3.14,-3.38,3.38,3.64,3.84,6.53,6.53,6.52
40.54,3.15,-3.36,3.15,-3.36,3.36,3.63,3.77,6.52,6.52,6.52
40.94,3.16,-3.35,3.17,-3.35,3.35,3.62,3.71,6.51,6.51,6.51
41.35,3.17,-3.33,3.18,-3.33,3.33,3.60,3.65,6.51,6.51,6.51
41.76,3.18,-3.31,3.18,-3.32,3.32,3.59,3.59,6.51,6.50,6.50
42.18,3.18,-3.31,3.19,-3.31,3.31,3.57,3.53,6.50,6.50,6.49
42.60,3.18,-3.30,3.18,-3.31,3.30,3.56,3.48,6.49,6.49,6.49
43.03,3.18,-3.30,3.19,-3.30,3.30,3.54,3.43,6.48,6.48,6.49
43.46,3.18,-3.30,3.19,-3.29,3.29,3.53,3.38,6.48,6.48,6.48
43.90,3.19,-3.28,3.19,-3.29,3.29,3.51,3.33,6.48,6.48,6.47
44.33,3.18,-3.28,3.18,-3.28,3.29,3.50,3.29,6.47,6.47,6.47
44.78,3.17,-3.28,3.18,-3.28,3.29,3.48,3.25,6.46,6.46,6.46
45.23,3.16,-3.29,3.16,-3.29,3.29,3.47,3.21,6.45,6.45,6.45
45.68,3.15,-3.29,3.15,-3.29,3.28,3.45,3.17,6.44,6.44,6.44
46.13,3.14,-3.29,3.15,-3.29,3.28,3.44,3.14,6.42,6.43,6.43
46.60,3.14,-3.28,3.14,-3.28,3.27,3.42,3.11,6.42,6.42,6.42
47.06,3.14,-3.27,3.14,-3.27,3.27,3.41,3.08,6.41,6.41,6.41
47.53,3.14,-3.25,3.14,-3.25,3.26,3.39,3.05,6.40,6.40,6.39
48.01,3.14,-3.24,3.15,-3.24,3.24,3.38,3.03,6.39,6.39,6.38
48.49,3.14,-3.23,3.15,-3.23,3.23,3.36,3.01,6.37,6.37,6.37
48.97,3.15,-3.21,3.15,-3.21,3.21,3.34,2.99,6.37,6.36,6.36
49.46,3.15,-3.20,3.16,-3.19,3.19,3.33,2.97,6.35,6.35,6.35
49.96,3.16,-3.17,3.17,-3.17,3.17,3.31,2.95,6.34,6.34,6.34
50.46,3.17,-3.15,3.17,-3.15,3.15,3.29,2.94,6.33,6.33,6.33
50.96,3.18,-3.13,3.18,-3.13,3.13,3.27,2.93,6.32,6.32,6.31
51.47,3.19,-3.12,3.20,-3.11,3.11,3.25,2.92,6.30,6.31,6.31
51.99,3.21,-3.08,3.21,-3.08,3.08,3.24,2.91,6.30,6.30,6.30
52.51,3.23,-3.05,3.23,-3.05,3.05,3.22,2.90,6.29,6.29,6.28
53.03,3.24,-3.02,3.25,-3.02,3.02,3.20,2.89,6.27,6.27,6.27
53.56,3.26,-2.99,3.26,-3.00,2.99,3.18,2.88,6.26,6.26,6.25
54.10,3.27,-2.97,3.28,-2.96,2.96,3.16,2.87,6.24,6.24,6.25
54.64,3.30,-2.93,3.30,-2.93,2.93,3.14,2.87,6.24,6.23,6.23
55.18,3.32,-2.89,3.32,-2.90,2.90,3.12,2.86,6.22,6.22,6.22
55.74,3.33,-2.86,3.34,-2.86,2.87,3.09,2.85,6.20,6.21,6.20
56.29,3.35,-2.84,3.36,-2.83,2.83,3.07,2.84,6.19,6.19,6.19
56.86,3.37,-2.80,3.37,-2.80,2.80,3.05,2.83,6.17,6.17,6.17
57.42,3.39,-2.76,3.40,-2.76,2.76,3.03,2.82,6.15,6.15,6.16
58.00,3.41,-2.73,3.42,-2.72,2.72,3.00,2.81,6.14,6.14,6.15
58.58,3.44,-2.68,3.44,-2.68,2.68,2.98,2.80,6.13,6.12,6.13
59.16,3.46,-2.64,3.47,-2.64,2.64,2.95,2.79,6.11,6.11,6.11
59.76,3.48,-2.61,3.49,-2.60,2.61,2.93,2.77,6.09,6.09,6.09
60.35,3.50,-2.57,3.50,-2.57,2.57,2.90,2.75,6.08,6.08,6.07
60.96,3.51,-2.54,3.51,-2.54,2.54,2.88,2.73,6.06,6.05,6.05
61.57,3.51,-2.51,3.52,-2.51,2.51,2.85,2.71,6.03,6.03,6.03
62.18,3.51,-2.49,3.51,-2.49,2.49,2.82,2.69,6.01,6.00,6.00
62.80,3.50,-2.47,3.51,-2.47,2.47,2.79,2.66,5.98,5.98,5.98
63.43,3.49,-2.46,3.50,-2.46,2.46,2.76,2.63,5.95,5.96,5.95
64.07,3.48,-2.44,3.48,-2.45,2.45,2.73,2.60,5.93,5.93,5.93
64.71,3.46,-2.44,3.46,-2.44,2.44,2.70,2.57,5.91,5.90,5.90
65.35,3.43,-2.44,3.44,-2.44,2.44,2.67,2.54,5.87,5.87,5.87
66.01,3.40,-2.44,3.41,-2.44,2.43,2.64,2.50,5.84,5.84,5.85
66.67,3.38,-2.43,3.38,-2.43,2.43,2.61,2.46,5.81,5.81,5.82
67.33,3.36,-2.42,3.36,-2.43,2.42,2.57,2.42,5.79,5.79,5.79
68.01,3.33,-2.42,3.34,-2.42,2.42,2.54,2.37,5.75,5.76,5.76
68.69,3.31,-2.41,3.31,-2.41,2.41,2.50,2.33,5.73,5.73,5.73
69.37,3.28,-2.41,3.29,-2.41,2.41,2.47,2.28,5.69,5.69,5.69
70.07,3.26,-2.40,3.27,-2.40,2.40,2.43,2.23,5.66,5.66,5.66
70.77,3.24,-2.38,3.24,-2.39,2.39,2.39,2.19,5.63,5.63,5.63
71.48,3.22,-2.38,3.22,-2.38,2.37,2.36,2.14,5.60,5.60,5.60
72.19,3.20,-2.36,3.21,-2.36,2.36,2.32,2.09,5.57,5.57,5.57
72.91,3.18,-2.35,3.19,-2.35,2.35,2.28,2.03,5.53,5.53,5.53
73.64,3.17,-2.32,3.17,-2.33,2.33,2.24,1.98,5.50,5.50,5.49
74.38,3.15,-2.31,3.16,-2.31,2.31,2.19,1.93,5.46,5.46,5.47
75.12,3.14,-2.28,3.15,-2.29,2.28,2.15,1.88,5.42,5.42,5.43
75.87,3.13,-2.26,3.14,-2.26,2.25,2.11,1.83,5.38,5.39,5.40
76.63,3.14,-2.21,3.14,-2.22,2.21,2.07,1.77,5.36,5.35,5.36
77.40,3.14,-2.17,3.15,-2.17,2.17,2.02,1.72,5.32,5.32,5.32
78.17,3.15,-2.13,3.16,-2.13,2.13,1.98,1.67,5.29,5.29,5.29
78.95,3.16,-2.08,3.16,-2.08,2.09,1.93,1.62,5.25,5.25,5.24
79.74,3.16,-2.03,3.17,-2.04,2.04,1.88,1.57,5.21,5.21,5.20
80.54,3.16,-2.00,3.17,-2.00,2.00,1.84,1.52,5.16,5.16,5.17
81.35,3.16,-1.96,3.16,-1.96,1.95,1.79,1.47,5.12,5.12,5.12
82.16,3.16,-1.91,3.16,-1.91,1.91,1.74,1.42,5.07,5.07,5.07
82.98,3.16,-1.86,3.16,-1.86,1.87,1.69,1.37,5.03,5.03,5.03
83.81,3.16,-1.82,3.16,-1.82,1.82,1.64,1.33,4.99,4.99,4.98
84.65,3.16,-1.78,3.16,-1.78,1.78,1.59,1.28,4.94,4.94,4.94
85.50,3.16,-1.73,3.16,-1.73,1.73,1.54,1.23,4.89,4.89,4.90
86.35,3.16,-1.68,3.16,-1.68,1.68,1.48,1.19,4.84,4.84,4.85
87.22,3.16,-1.63,3.16,-1.63,1.63,1.43,1.14,4.80,4.80,4.80
88.09,3.16,-1.58,3.16,-1.58,1.58,1.38,1.10,4.75,4.75,4.75
88.97,3.16,-1.53,3.16,-1.53,1.53,1.33,1.06,4.70,4.70,4.69
89.86,3.16,-1.48,3.16,-1.48,1.48,1.27,1.02,4.64,4.64,4.64
90.76,3.16,-1.43,3.16,-1.43,1.43,1.22,0.98,4.59,4.59,4.59
91.66,3.16,-1.37,3.16,-1.37,1.37,1.16,0.94,4.54,4.54,4.54
92.58,3.16,-1.32,3.16,-1.32,1.32,1.11,0.90,4.48,4.48,4.49
93.51,3.16,-1.27,3.16,-1.27,1.27,1.05,0.86,4.43,4.43,4.43
94.44,3.16,-1.21,3.16,-1.21,1.21,1.00,0.82,4.38,4.38,4.38
95.39,3.16,-1.16,3.16,-1.16,1.16,0.94,0.78,4.33,4.33,4.32
96.34,3.16,-1.10,3.16,-1.11,1.11,0.88,0.75,4.27,4.27,4.27
97.30,3.16,-1.06,3.16,-1.06,1.05,0.83,0.71,4.22,4.22,4.22
98.28,3.16,-1.00,3.16,-1.00,1.00,0.77,0.68,4.16,4.16,4.17
99.26,3.16,-0.95,3.16,-0.95,0.95,0.71,0.64,4.11,4.11,4.11
100.25,3.16,-0.89,3.16,-0.89,0.89,0.66,0.61,4.06,4.06,4.06
101.25,3.16,-0.84,3.16,-0.83,0.84,0.60,0.57,4.00,4.00,4.00
102.27,3.16,-0.78,3.16,-0.78,0.78,0.54,0.54,3.95,3.95,3.94
103.29,3.16,-0.72,3.16,-0.73,0.73,0.49,0.51,3.89,3.89,3.89
104.32,3.16,-0.68,3.16,-0.67,0.67,0.43,0.48,3.84,3.84,3.84
105.37,3.16,-0.62,3.16,-0.62,0.62,0.38,0.45,3.78,3.78,3.79
106.42,3.16,-0.56,3.16,-0.57,0.57,0.32,0.42,3.73,3.73,3.73
107.48,3.16,-0.52,3.16,-0.51,0.51,0.26,0.39,3.68,3.68,3.68
108.56,3.16,-0.46,3.16,-0.46,0.46,0.21,0.36,3.63,3.63,3.63
109.64,3.16,-0.41,3.16,-0.41,0.41,0.15,0.33,3.57,3.57,3.57
110.74,3.16,-0.35,3.16,-0.35,0.35,0.10,0.30,3.52,3.52,3.51
111.85,3.16,-0.29,3.16,-0.30,0.29,0.04,0.28,3.46,3.46,3.46
112.97,3.16,-0.25,3.16,-0.25,0.24,-0.01,0.25,3.40,3.40,3.41
114.10,3.16,-0.19,3.17,-0.18,0.18,-0.06,0.22,3.34,3.35,3.36
115.24,3.18,-0.12,3.18,-0.12,0.12,-0.11,0.20,3.31,3.31,3.30
116.39,3.19,-0.05,3.19,-0.06,0.07,-0.17,0.17,3.27,3.26,3.25
117.55,3.18,-0.02,3.19,-0.01,0.02,-0.22,0.15,3.21,3.21,3.20
118.73,3.17,0.02,3.18,0.03,-0.02,-0.27,0.12,3.15,3.15,3.15
119.92,3.16,0.07,3.16,0.06,-0.06,-0.32,0.10,3.11,3.10,3.10
121.12,3.13,0.09,3.14,0.10,-0.09,-0.37,0.07,3.04,3.05,3.04
122.33,3.12,0.12,3.12,0.12,-0.11,-0.42,0.05,3.01,3.01,3.00
123.55,3.09,0.14,3.09,0.14,-0.13,-0.46,0.03,2.96,2.96,2.95
124.79,3.05,0.15,3.06,0.15,-0.15,-0.51,0.00,2.91,2.91,2.91
126.03,3.01,0.16,3.02,0.16,-0.16,-0.56,-0.02,2.85,2.86,2.86
127.29,2.98,0.17,2.98,0.17,-0.17,-0.60,-0.04,2.81,2.81,2.82
128.57,2.95,0.18,2.95,0.18,-0.18,-0.65,-0.06,2.77,2.77,2.77
129.85,2.91,0.19,2.92,0.20,-0.19,-0.69,-0.08,2.72,2.72,2.72
131.15,2.88,0.21,2.89,0.21,-0.21,-0.73,-0.10,2.68,2.68,2.67
132.46,2.86,0.23,2.86,0.23,-0.23,-0.77,-0.12,2.63,2.63,2.64
133.79,2.83,0.25,2.84,0.25,-0.26,-0.81,-0.14,2.58,2.58,2.59
135.12,2.82,0.28,2.82,0.28,-0.29,-0.85,-0.16,2.54,2.53,2.54
136.48,2.81,0.32,2.82,0.32,-0.33,-0.89,-0.18,2.49,2.49,2.50
137.84,2.81,0.36,2.82,0.36,-0.37,-0.93,-0.20,2.45,2.45,2.45
139.22,2.82,0.41,2.82,0.41,-0.41,-0.96,-0.22,2.41,2.41,2.41
140.61,2.83,0.47,2.83,0.46,-0.46,-1.00,-0.24,2.38,2.37,2.37
142.02,2.84,0.51,2.84,0.51,-0.51,-1.03,-0.26,2.34,2.33,2.34
143.44,2.84,0.55,2.85,0.55,-0.56,-1.07,-0.28,2.29,2.29,2.29
144.87,2.85,0.60,2.86,0.60,-0.60,-1.10,-0.30,2.26,2.26,2.25
146.32,2.86,0.64,2.86,0.64,-0.64,-1.13,-0.32,2.23,2.22,2.22
147.78,2.86,0.68,2.86,0.68,-0.67,-1.16,-0.34,2.19,2.19,2.19
149.26,2.85,0.71,2.85,0.70,-0.70,-1.19,-0.36,2.16,2.16,2.15
150.75,2.83,0.71,2.84,0.72,-0.72,-1.21,-0.39,2.12,2.12,2.12
152.26,2.82,0.74,2.82,0.74,-0.73,-1.24,-0.41,2.09,2.09,2.08
153.78,2.79,0.75,2.79,0.74,-0.74,-1.27,-0.43,2.05,2.05,2.05
155.32,2.76,0.74,2.77,0.74,-0.75,-1.29,-0.45,2.02,2.02,2.02
156.88,2.72,0.73,2.73,0.74,-0.74,-1.31,-0.47,1.98,1.98,1.99
158.44,2.70,0.75,2.70,0.74,-0.74,-1.33,-0.50,1.96,1.96,1.96
160.03,2.65,0.73,2.67,0.74,-0.73,-1.36,-0.52,1.92,1.93,1.92
161.63,2.63,0.74,2.63,0.73,-0.73,-1.38,-0.54,1.91,1.91,1.89
163.24,2.60,0.73,2.59,0.72,-0.72,-1.39,-0.57,1.89,1.87,1.87
164.88,2.54,0.70,2.56,0.72,-0.71,-1.41,-0.59,1.83,1.85,1.84
166.53,2.52,0.71,2.52,0.71,-0.71,-1.43,-0.62,1.81,1.81,1.81
168.19,2.50,0.72,2.50,0.71,-0.72,-1.44,-0.65,1.78,1.78,1.79
169.87,2.48,0.72,2.49,0.72,-0.74,-1.46,-0.67,1.75,1.75,1.77
171.57,2.48,0.74,2.49,0.75,-0.76,-1.47,-0.70,1.72,1.72,1.74
173.29,2.49,0.78,2.50,0.79,-0.80,-1.49,-0.73,1.70,1.70,1.71
175.02,2.53,0.85,2.53,0.84,-0.84,-1.50,-0.76,1.69,1.69,1.69
176.77,2.57,0.90,2.57,0.90,-0.89,-1.51,-0.79,1.68,1.68,1.67
178.54,2.60,0.95,2.60,0.95,-0.95,-1.52,-0.82,1.66,1.66,1.65
180.32,2.63,1.01,2.64,1.01,-1.00,-1.53,-0.85,1.63,1.63,1.63
182.13,2.66,1.06,2.67,1.06,-1.06,-1.54,-0.88,1.61,1.61,1.60
183.95,2.70,1.12,2.70,1.12,-1.11,-1.55,-0.91,1.59,1.59,1.58
185.79,2.73,1.17,2.73,1.17,-1.16,-1.55,-0.94,1.57,1.57,1.56
187.65,2.75,1.21,2.76,1.22,-1.21,-1.56,-0.98,1.54,1.54,1.54
189.52,2.77,1.25,2.78,1.26,-1.26,-1.56,-1.01,1.51,1.51,1.52
191.42,2.80,1.30,2.80,1.30,-1.31,-1.57,-1.05,1.49,1.49,1.50
193.33,2.83,1.35,2.84,1.36,-1.36,-1.57,-1.08,1.48,1.48,1.48
195.27,2.87,1.41,2.87,1.41,-1.40,-1.58,-1.12,1.47,1.47,1.46
197.22,2.90,1.46,2.90,1.45,-1.45,-1.58,-1.15,1.46,1.45,1.45
199.19,2.92,1.50,2.93,1.50,-1.49,-1.58,-1.19,1.43,1.44,1.43
201.18,2.95,1.53,2.96,1.54,-1.54,-1.58,-1.22,1.42,1.42,1.42
203.19,2.98,1.58,2.98,1.57,-1.58,-1.58,-1.26,1.41,1.40,1.41
205.23,3.01,1.61,3.01,1.62,-1.62,-1.58,-1.30,1.39,1.39,1.40
207.28,3.04,1.66,3.04,1.66,-1.66,-1.58,-1.33,1.38,1.38,1.39
209.35,3.07,1.70,3.07,1.70,-1.71,-1.58,-1.37,1.37,1.37,1.37
211.44,3.10,1.74,3.11,1.74,-1.75,-1.58,-1.41,1.36,1.36,1.37
213.56,3.13,1.78,3.14,1.78,-1.78,-1.58,-1.44,1.35,1.35,1.35
215.69,3.16,1.82,3.16,1.82,-1.82,-1.58,-1.48,1.35,1.34,1.34
217.85,3.18,1.86,3.18,1.85,-1.85,-1.58,-1.51,1.34,1.34,1.33
220.03,3.19,1.87,3.20,1.88,-1.87,-1.57,-1.54,1.33,1.33,1.32
222.23,3.20,1.89,3.20,1.89,-1.88,-1.57,-1.57,1.32,1.32,1.31
224.45,3.20,1.90,3.20,1.90,-1.89,-1.57,-1.60,1.31,1.31,1.30
226.70,3.18,1.89,3.19,1.89,-1.89,-1.56,-1.63,1.29,1.29,1.29
228.96,3.16,1.88,3.17,1.89,-1.89,-1.56,-1.66,1.28,1.28,1.29
231.25,3.15,1.88,3.15,1.87,-1.87,-1.56,-1.68,1.28,1.28,1.28
233.57,3.13,1.87,3.13,1.86,-1.86,-1.55,-1.70,1.28,1.27,1.27
235.90,3.09,1.83,3.10,1.84,-1.83,-1.55,-1.72,1.26,1.27,1.27
238.26,3.07,1.81,3.07,1.81,-1.81,-1.54,-1.74,1.27,1.27,1.26
240.64,3.04,1.78,3.04,1.78,-1.78,-1.54,-1.76,1.27,1.26,1.26
243.05,3.00,1.74,3.01,1.75,-1.75,-1.53,-1.77,1.26,1.26,1.26
245.48,2.97,1.71,2.97,1.71,-1.71,-1.53,-1.78,1.26,1.26,1.26
247.93,2.93,1.68,2.94,1.68,-1.68,-1.52,-1.79,1.26,1.26,1.26
250.41,2.91,1.66,2.91,1.65,-1.65,-1.52,-1.79,1.27,1.26,1.26
252.92,2.87,1.61,2.88,1.62,-1.62,-1.51,-1.79,1.25,1.26,1.26
255.45,2.85,1.59,2.86,1.59,-1.60,-1.51,-1.79,1.26,1.26,1.26
258.00,2.83,1.58,2.83,1.57,-1.58,-1.50,-1.79,1.25,1.25,1.26
260.58,2.82,1.57,2.82,1.57,-1.58,-1.49,-1.78,1.25,1.25,1.26
263.19,2.81,1.56,2.82,1.57,-1.58,-1.49,-1.77,1.24,1.24,1.25
265.82,2.82,1.58,2.82,1.57,-1.58,-1.48,-1.76,1.24,1.24,1.25
268.48,2.83,1.58,2.83,1.59,-1.59,-1.48,-1.75,1.25,1.24,1.25
271.16,2.84,1.60,2.85,1.60,-1.60,-1.47,-1.73,1.25,1.25,1.24
273.87,2.85,1.62,2.86,1.61,-1.61,-1.46,-1.71,1.25,1.25,1.24
276.61,2.86,1.62,2.86,1.62,-1.61,-1.46,-1.69,1.25,1.25,1.24
279.38,2.86,1.63,2.86,1.62,-1.62,-1.45,-1.67,1.25,1.25,1.24
282.17,2.85,1.61,2.86,1.62,-1.61,-1.44,-1.65,1.24,1.24,1.24
284.99,2.84,1.61,2.84,1.61,-1.60,-1.44,-1.62,1.24,1.24,1.24
287.84,2.82,1.59,2.82,1.59,-1.59,-1.43,-1.60,1.24,1.23,1.23
290.72,2.79,1.57,2.80,1.57,-1.57,-1.42,-1.57,1.23,1.23,1.23
293.63,2.76,1.54,2.77,1.54,-1.54,-1.41,-1.54,1.22,1.23,1.22
296.57,2.73,1.51,2.73,1.51,-1.51,-1.41,-1.52,1.22,1.22,1.22
299.53,2.70,1.48,2.70,1.48,-1.48,-1.40,-1.49,1.23,1.22,1.23
302.53,2.66,1.44,2.67,1.45,-1.45,-1.39,-1.46,1.22,1.22,1.22
305.55,2.63,1.42,2.63,1.41,-1.41,-1.38,-1.43,1.22,1.22,1.22
308.61,2.60,1.38,2.60,1.38,-1.38,-1.37,-1.41,1.23,1.22,1.22
311.69,2.56,1.34,2.57,1.35,-1.35,-1.36,-1.38,1.22,1.22,1.22
314.81,2.55,1.33,2.55,1.32,-1.32,-1.35,-1.35,1.23,1.22,1.23
317.96,2.52,1.30,2.52,1.30,-1.31,-1.34,-1.32,1.22,1.22,1.22
321.14,2.50,1.27,2.51,1.28,-1.29,-1.32,-1.30,1.21,1.22,1.23
324.35,2.49,1.27,2.50,1.27,-1.28,-1.31,-1.27,1.21,1.21,1.23
327.59,2.50,1.28,2.50,1.27,-1.28,-1.30,-1.24,1.22,1.22,1.22
330.87,2.51,1.28,2.51,1.28,-1.28,-1.28,-1.22,1.23,1.23,1.23
334.18,2.52,1.29,2.53,1.29,-1.28,-1.27,-1.20,1.24,1.24,1.24
337.52,2.53,1.30,2.53,1.29,-1.28,-1.25,-1.17,1.25,1.25,1.24
340.90,2.52,1.28,2.53,1.28,-1.28,-1.24,-1.15,1.25,1.25,1.24
344.30,2.51,1.27,2.51,1.27,-1.27,-1.22,-1.13,1.25,1.25,1.24
347.75,2.49,1.26,2.50,1.26,-1.25,-1.20,-1.11,1.24,1.25,1.24
351.23,2.47,1.24,2.47,1.23,-1.23,-1.18,-1.09,1.25,1.24,1.24
354.74,2.44,1.20,2.44,1.20,-1.20,-1.17,-1.07,1.24,1.24,1.25
358.28,2.40,1.16,2.41,1.17,-1.17,-1.15,-1.05,1.24,1.24,1.24
361.87,2.37,1.13,2.37,1.13,-1.13,-1.13,-1.03,1.24,1.24,1.24
365.49,2.34,1.11,2.34,1.10,-1.10,-1.11,-1.02,1.25,1.24,1.24
369.14,2.30,1.07,2.31,1.07,-1.06,-1.08,-1.00,1.24,1.24,1.24
372.83,2.27,1.04,2.27,1.03,-1.03,-1.06,-0.99,1.24,1.24,1.24
376.56,2.23,0.99,2.24,1.00,-1.00,-1.04,-0.97,1.23,1.23,1.24
380.33,2.21,0.97,2.21,0.97,-0.98,-1.02,-0.96,1.23,1.23,1.24
384.13,2.19,0.95,2.19,0.95,-0.97,-1.00,-0.95,1.23,1.23,1.24
387.97,2.18,0.95,2.19,0.95,-0.96,-0.97,-0.94,1.23,1.23,1.24
391.85,2.18,0.94,2.19,0.94,-0.95,-0.95,-0.93,1.23,1.24,1.25
395.77,2.19,0.95,2.19,0.95,-0.95,-0.93,-0.92,1.25,1.25,1.25
399.73,2.20,0.95,2.20,0.95,-0.94,-0.90,-0.91,1.26,1.26,1.25
403.72,2.20,0.95,2.20,0.95,-0.94,-0.88,-0.90,1.27,1.27,1.25
407.76,2.19,0.93,2.20,0.94,-0.92,-0.86,-0.89,1.27,1.27,1.26
411.84,2.18,0.92,2.18,0.92,-0.91,-0.83,-0.88,1.28,1.27,1.26
415.96,2.15,0.89,2.16,0.89,-0.89,-0.81,-0.88,1.27,1.27,1.27
420.12,2.12,0.86,2.13,0.86,-0.86,-0.79,-0.87,1.27,1.27,1.27
424.32,2.09,0.83,2.09,0.82,-0.82,-0.76,-0.86,1.27,1.27,1.27
428.56,2.05,0.78,2.06,0.79,-0.79,-0.74,-0.85,1.27,1.27,1.28
432.85,2.02,0.75,2.02,0.75,-0.75,-0.72,-0.85,1.27,1.27,1.27
437.18,1.99,0.72,1.99,0.72,-0.72,-0.69,-0.84,1.28,1.27,1.27
441.55,1.95,0.68,1.96,0.68,-0.68,-0.67,-0.83,1.27,1.28,1.27
445.96,1.92,0.65,1.92,0.65,-0.65,-0.65,-0.82,1.27,1.27,1.27
450.42,1.89,0.62,1.90,0.62,-0.63,-0.63,-0.82,1.27,1.27,1.27
454.93,1.87,0.60,1.87,0.60,-0.61,-0.60,-0.81,1.26,1.26,1.27
459.48,1.85,0.59,1.86,0.59,-0.60,-0.58,-0.80,1.25,1.26,1.27
464.07,1.84,0.58,1.85,0.58,-0.60,-0.56,-0.79,1.25,1.25,1.27
468.71,1.85,0.59,1.85,0.59,-0.59,-0.54,-0.78,1.26,1.26,1.27
473.40,1.86,0.60,1.87,0.60,-0.60,-0.52,-0.77,1.27,1.27,1.27
478.13,1.88,0.61,1.88,0.61,-0.60,-0.49,-0.76,1.29,1.28,1.28
482.91,1.88,0.61,1.89,0.61,-0.60,-0.47,-0.74,1.28,1.29,1.28
487.74,1.88,0.61,1.89,0.61,-0.60,-0.45,-0.73,1.29,1.29,1.27
492.62,1.87,0.60,1.87,0.60,-0.59,-0.43,-0.71,1.29,1.29,1.27
497.55,1.85,0.57,1.85,0.57,-0.57,-0.41,-0.70,1.29,1.29,1.28
502.52,1.82,0.54,1.83,0.55,-0.54,-0.39,-0.68,1.28,1.28,1.28
507.55,1.79,0.51,1.80,0.51,-0.51,-0.37,-0.66,1.28,1.28,1.28
512.62,1.76,0.48,1.76,0.48,-0.48,-0.35,-0.64,1.29,1.28,1.28
517.75,1.72,0.43,1.73,0.44,-0.44,-0.33,-0.62,1.28,1.29,1.29
522.93,1.69,0.40,1.69,0.41,-0.40,-0.31,-0.60,1.29,1.29,1.29
528.16,1.66,0.37,1.66,0.37,-0.37,-0.29,-0.58,1.29,1.29,1.29
533.44,1.62,0.34,1.63,0.33,-0.34,-0.27,-0.55,1.29,1.29,1.29
538.77,1.59,0.30,1.60,0.30,-0.31,-0.25,-0.53,1.28,1.29,1.30
544.16,1.57,0.28,1.58,0.28,-0.29,-0.23,-0.50,1.29,1.29,1.30
549.60,1.56,0.27,1.56,0.26,-0.27,-0.21,-0.47,1.30,1.29,1.30
555.10,1.55,0.26,1.55,0.25,-0.25,-0.19,-0.45,1.30,1.30,1.30
560.65,1.53,0.24,1.54,0.24,-0.24,-0.17,-0.42,1.30,1.30,1.30
