frequency,raw,error,smoothed,error_smoothed,equalization,parametric_eq,fixed_band_eq,equalized_raw,equalized_smoothed,target
20.00,-13.02,-12.23,-13.02,-12.23,6.00,5.34,2.90,-7.02,-7.02,-0.79
20.20,-12.92,-12.14,-12.93,-12.14,6.00,5.40,2.98,-6.92,-6.93,-0.78
20.40,-12.82,-12.05,-12.83,-12.05,6.00,5.46,3.07,-6.82,-6.83,-0.77
20.61,-12.73,-11.95,-12.73,-11.96,6.00,5.52,3.15,-6.73,-6.73,-0.77
20.81,-12.62,-11.86,-12.62,-11.86,6.00,5.58,3.24,-6.62,-6.62,-0.76
21.02,-12.52,-11.76,-12.51,-11.75,6.00,5.64,3.34,-6.52,-6.51,-0.76
21.23,-12.39,-11.64,-12.40,-11.64,6.00,5.69,3.43,-6.39,-6.40,-0.75
21.44,-12.27,-11.52,-12.27,-11.52,6.00,5.75,3.53,-6.27,-6.27,-0.75
21.66,-12.14,-11.39,-12.14,-11.39,6.00,5.80,3.63,-6.14,-6.14,-0.75
21.87,-12.01,-11.26,-12.02,-11.27,6.00,5.85,3.74,-6.01,-6.02,-0.75
22.09,-11.89,-11.15,-11.89,-11.14,6.00,5.90,3.84,-5.89,-5.89,-0.74
22.31,-11.76,-11.02,-11.76,-11.01,6.00,5.95,3.95,-5.76,-5.76,-0.74
22.54,-11.64,-10.88,-11.63,-10.88,6.00,6.00,4.07,-5.64,-5.63,-0.75
22.76,-11.50,-10.74,-11.50,-10.74,6.00,6.05,4.18,-5.50,-5.50,-0.76
22.99,-11.37,-10.61,-11.38,-10.62,6.00,6.09,4.30,-5.37,-5.38,-0.76
23.22,-11.27,-10.51,-11.27,-10.50,6.00,6.13,4.42,-5.27,-5.27,-0.76
23.45,-11.17,-10.40,-11.17,-10.40,6.00,6.17,4.54,-5.17,-5.17,-0.77
23.69,-11.07,-10.30,-11.08,-10.30,6.00,6.21,4.67,-5.07,-5.08,-0.77
23.92,-10.97,-10.20,-10.97,-10.19,6.00,6.24,4.80,-4.97,-4.97,-0.77
24.16,-10.85,-10.08,-10.85,-10.08,6.00,6.28,4.93,-4.85,-4.85,-0.77
24.40,-10.72,-9.95,-10.72,-9.95,6.00,6.31,5.06,-4.72,-4.72,-0.77
24.65,-10.59,-9.82,-10.60,-9.82,6.00,6.33,5.20,-4.59,-4.60,-0.77
24.89,-10.47,-9.70,-10.47,-9.69,6.00,6.36,5.34,-4.47,-4.47,-0.77
25.14,-10.34,-9.57,-10.34,-9.57,6.00,6.38,5.48,-4.34,-4.34,-0.77
25.39,-10.22,-9.44,-10.22,-9.44,6.00,6.40,5.62,-4.22,-4.22,-0.78
25.65,-10.10,-9.32,-10.10,-9.32,6.00,6.41,5.76,-4.10,-4.10,-0.78
25.91,-9.98,-9.19,-9.98,-9.19,6.00,6.42,5.90,-3.98,-3.98,-0.78
26.16,-9.85,-9.07,-9.85,-9.07,6.00,6.43,6.04,-3.85,-3.85,-0.78
26.43,-9.73,-8.94,-9.73,-8.94,6.00,6.43,6.18,-3.73,-3.73,-0.78
26.69,-9.60,-8.82,-9.60,-8.82,6.00,6.43,6.31,-3.60,-3.60,-0.78
26.96,-9.47,-8.69,-9.48,-8.69,6.00,6.43,6.45,-3.47,-3.48,-0.78
27.23,-9.35,-8.57,-9.35,-8.57,6.00,6.42,6.58,-3.35,-3.35,-0.78
27.50,-9.23,-8.45,-9.23,-8.45,6.00,6.41,6.71,-3.23,-3.23,-0.78
27.77,-9.11,-8.33,-9.11,-8.33,6.00,6.40,6.83,-3.11,-3.11,-0.78
28.05,-8.99,-8.21,-9.00,-8.21,6.00,6.38,6.95,-2.99,-3.00,-0.78
28.33,-8.88,-8.10,-8.89,-8.10,6.00,6.36,7.06,-2.88,-2.89,-0.78
28.62,-8.77,-7.99,-8.77,-7.99,6.00,6.33,7.16,-2.77,-2.77,-0.78
28.90,-8.66,-7.89,-8.66,-7.88,6.00,6.30,7.25,-2.66,-2.66,-0.77
29.19,-8.52,-7.75,-8.52,-7.75,6.00,6.27,7.33,-2.52,-2.52,-0.77
29.48,-8.38,-7.61,-8.38,-7.61,6.00,6.23,7.40,-2.38,-2.38,-0.77
29.78,-8.23,-7.47,-8.24,-7.47,6.00,6.19,7.46,-2.23,-2.24,-0.76
30.08,-8.10,-7.33,-8.10,-7.33,6.00,6.14,7.50,-2.10,-2.10,-0.76
30.38,-7.97,-7.20,-7.96,-7.20,6.00,6.09,7.53,-1.97,-1.96,-0.76
30.68,-7.83,-7.07,-7.83,-7.07,6.00,6.04,7.54,-1.83,-1.83,-0.76
30.99,-7.70,-6.94,-7.70,-6.94,6.00,5.98,7.54,-1.70,-1.70,-0.76
31.30,-7.57,-6.81,-7.57,-6.81,6.01,5.92,7.52,-1.57,-1.57,-0.76
31.61,-7.44,-6.68,-7.44,-6.68,6.02,5.86,7.49,-1.43,-1.43,-0.76
31.93,-7.32,-6.55,-7.31,-6.55,6.02,5.79,7.44,-1.29,-1.29,-0.76
32.24,-7.18,-6.41,-7.19,-6.42,6.02,5.72,7.37,-1.16,-1.17,-0.77
32.57,-7.06,-6.29,-7.06,-6.29,6.00,5.65,7.29,-1.06,-1.05,-0.77
32.89,-6.93,-6.16,-6.93,-6.16,5.97,5.57,7.19,-0.96,-0.96,-0.77
33.22,-6.80,-6.02,-6.81,-6.03,5.92,5.49,7.08,-0.88,-0.88,-0.78
33.55,-6.68,-5.90,-6.68,-5.89,5.85,5.41,6.96,-0.83,-0.82,-0.78
33.89,-6.55,-5.76,-6.56,-5.76,5.77,5.32,6.82,-0.78,-0.79,-0.79
34.23,-6.43,-5.64,-6.43,-5.64,5.67,5.23,6.68,-0.77,-0.77,-0.79
34.57,-6.31,-5.52,-6.31,-5.52,5.55,5.14,6.52,-0.76,-0.76,-0.79
34.92,-6.19,-5.40,-6.19,-5.40,5.41,5.05,6.36,-0.78,-0.78,-0.79
35.27,-6.06,-5.27,-6.07,-5.27,5.27,4.95,6.19,-0.79,-0.80,-0.79
35.62,-5.93,-5.14,-5.94,-5.14,5.12,4.85,6.01,-0.81,-0.81,-0.79
35.97,-5.80,-5.01,-5.79,-5.00,4.98,4.75,5.83,-0.82,-0.81,-0.79
36.33,-5.64,-4.85,-5.64,-4.84,4.84,4.65,5.64,-0.80,-0.79,-0.79
36.70,-5.47,-4.68,-5.48,-4.69,4.70,4.55,5.45,-0.77,-0.78,-0.79
37.06,-5.32,-4.53,-5.33,-4.54,4.57,4.44,5.26,-0.76,-0.76,-0.79
37.43,-5.20,-4.41,-5.20,-4.41,4.43,4.33,5.06,-0.77,-0.77,-0.79
37.81,-5.07,-4.29,-5.07,-4.29,4.29,4.22,4.87,-0.78,-0.78,-0.78
38.19,-4.95,-4.17,-4.95,-4.17,4.16,4.11,4.67,-0.80,-0.80,-0.78
38.57,-4.82,-4.04,-4.82,-4.05,4.03,4.00,4.47,-0.80,-0.80,-0.78
38.95,-4.69,-3.92,-4.69,-3.91,3.89,3.88,4.27,-0.80,-0.79,-0.77
39.34,-4.54,-3.77,-4.54,-3.76,3.76,3.77,4.07,-0.78,-0.78,-0.77
39.74,-4.38,-3.61,-4.39,-3.61,3.63,3.65,3.87,-0.76,-0.76,-0.77
40.14,-4.24,-3.46,-4.24,-3.47,3.49,3.53,3.67,-0.75,-0.76,-0.77
40.54,-4.10,-3.33,-4.11,-3.33,3.34,3.41,3.48,-0.76,-0.77,-0.77
40.94,-3.98,-3.21,-3.97,-3.20,3.19,3.29,3.28,-0.79,-0.78,-0.77
41.35,-3.83,-3.06,-3.83,-3.06,3.04,3.17,3.09,-0.79,-0.79,-0.77
41.76,-3.68,-2.90,-3.69,-2.91,2.89,3.05,2.89,-0.79,-0.80,-0.78
42.18,-3.53,-2.75,-3.52,-2.74,2.74,2.92,2.70,-0.79,-0.78,-0.78
42.60,-3.36,-2.58,-3.36,-2.58,2.59,2.80,2.51,-0.78,-0.78,-0.78
43.03,-3.19,-2.41,-3.21,-2.42,2.43,2.67,2.32,-0.76,-0.77,-0.78
43.46,-3.06,-2.28,-3.06,-2.27,2.29,2.55,2.13,-0.78,-0.77,-0.78
43.90,-2.92,-2.13,-2.92,-2.13,2.14,2.42,1.94,-0.78,-0.78,-0.79
44.33,-2.78,-1.99,-2.78,-1.99,2.00,2.29,1.75,-0.78,-0.79,-0.79
44.78,-2.64,-1.85,-2.65,-1.85,1.86,2.16,1.57,-0.79,-0.79,-0.79
45.23,-2.51,-1.72,-2.52,-1.73,1.72,2.03,1.38,-0.80,-0.80,-0.79
45.68,-2.39,-1.60,-2.39,-1.60,1.58,1.90,1.20,-0.82,-0.81,-0.79
46.13,-2.25,-1.47,-2.24,-1.46,1.44,1.77,1.02,-0.81,-0.81,-0.78
46.60,-2.08,-1.30,-2.09,-1.31,1.30,1.64,0.84,-0.79,-0.79,-0.78
47.06,-1.92,-1.15,-1.93,-1.15,1.16,1.51,0.66,-0.76,-0.76,-0.77
47.53,-1.77,-1.01,-1.77,-1.01,1.03,1.38,0.48,-0.74,-0.74,-0.76
48.01,-1.63,-0.88,-1.64,-0.88,0.91,1.25,0.30,-0.73,-0.73,-0.75
48.49,-1.51,-0.77,-1.51,-0.77,0.79,1.11,0.12,-0.73,-0.73,-0.74
48.97,-1.39,-0.66,-1.39,-0.66,0.67,0.98,-0.05,-0.73,-0.73,-0.73
49.46,-1.27,-0.55,-1.27,-0.55,0.55,0.85,-0.22,-0.72,-0.73,-0.72
49.96,-1.15,-0.45,-1.15,-0.44,0.43,0.71,-0.40,-0.73,-0.72,-0.70
50.46,-1.01,-0.32,-1.02,-0.33,0.30,0.58,-0.57,-0.71,-0.72,-0.69
50.96,-0.87,-0.20,-0.87,-0.20,0.17,0.44,-0.73,-0.70,-0.70,-0.67
51.47,-0.71,-0.05,-0.71,-0.05,0.03,0.31,-0.90,-0.68,-0.68,-0.66
51.99,-0.54,0.11,-0.54,0.11,-0.11,0.17,-1.07,-0.66,-0.65,-0.65
52.51,-0.37,0.27,-0.37,0.27,-0.25,0.03,-1.23,-0.63,-0.62,-0.64
53.03,-0.19,0.44,-0.21,0.42,-0.39,-0.10,-1.39,-0.59,-0.61,-0.63
53.56,-0.07,0.55,-0.07,0.55,-0.53,-0.24,-1.54,-0.60,-0.60,-0.62
54.10,0.06,0.66,0.07,0.67,-0.66,-0.38,-1.70,-0.61,-0.60,-0.60
54.64,0.20,0.79,0.19,0.79,-0.79,-0.51,-1.85,-0.60,-0.60,-0.59
55.18,0.33,0.91,0.32,0.90,-0.92,-0.65,-2.00,-0.59,-0.60,-0.58
55.74,0.44,1.02,0.44,1.02,-1.03,-0.79,-2.14,-0.60,-0.59,-0.58
56.29,0.56,1.13,0.56,1.14,-1.14,-0.93,-2.28,-0.59,-0.58,-0.57
56.86,0.70,1.26,0.70,1.27,-1.25,-1.07,-2.41,-0.56,-0.55,-0.56
57.42,0.83,1.39,0.83,1.39,-1.36,-1.20,-2.54,-0.53,-0.53,-0.56
58.00,0.96,1.52,0.93,1.49,-1.46,-1.34,-2.66,-0.51,-0.54,-0.56
58.58,1.01,1.57,1.02,1.58,-1.57,-1.48,-2.78,-0.57,-0.56,-0.56
59.16,1.08,1.64,1.11,1.67,-1.69,-1.62,-2.89,-0.61,-0.58,-0.56
59.76,1.24,1.80,1.22,1.78,-1.81,-1.76,-2.99,-0.58,-0.60,-0.56
60.35,1.36,1.93,1.34,1.92,-1.94,-1.90,-3.09,-0.59,-0.60,-0.57
60.96,1.47,2.05,1.48,2.07,-2.08,-2.03,-3.18,-0.62,-0.60,-0.58
61.57,1.63,2.22,1.63,2.22,-2.23,-2.17,-3.26,-0.61,-0.60,-0.59
62.18,1.79,2.40,1.78,2.40,-2.39,-2.31,-3.34,-0.60,-0.61,-0.61
62.80,1.95,2.58,1.93,2.57,-2.56,-2.45,-3.40,-0.61,-0.62,-0.63
63.43,2.07,2.73,2.07,2.73,-2.72,-2.58,-3.47,-0.66,-0.65,-0.66
64.07,2.19,2.87,2.20,2.88,-2.88,-2.72,-3.52,-0.69,-0.68,-0.68
64.71,2.33,3.04,2.33,3.04,-3.03,-2.86,-3.57,-0.70,-0.70,-0.71
65.35,2.46,3.19,2.45,3.18,-3.16,-2.99,-3.61,-0.71,-0.71,-0.73
66.01,2.57,3.32,2.56,3.32,-3.29,-3.13,-3.65,-0.73,-0.73,-0.75
66.67,2.66,3.43,2.65,3.42,-3.41,-3.26,-3.68,-0.76,-0.76,-0.77
67.33,2.74,3.52,2.73,3.52,-3.53,-3.39,-3.70,-0.79,-0.79,-0.78
68.01,2.81,3.61,2.82,3.62,-3.64,-3.52,-3.72,-0.83,-0.82,-0.80
68.69,2.91,3.72,2.91,3.72,-3.74,-3.65,-3.74,-0.83,-0.83,-0.81
69.37,3.02,3.84,3.02,3.84,-3.84,-3.78,-3.75,-0.83,-0.83,-0.82
70.07,3.14,3.97,3.13,3.96,-3.95,-3.91,-3.76,-0.82,-0.82,-0.83
70.77,3.24,4.08,3.22,4.06,-4.07,-4.03,-3.76,-0.83,-0.84,-0.84
71.48,3.32,4.16,3.32,4.17,-4.18,-4.15,-3.76,-0.87,-0.86,-0.84
72.19,3.41,4.26,3.43,4.28,-4.30,-4.27,-3.76,-0.89,-0.87,-0.85
72.91,3.56,4.42,3.55,4.41,-4.42,-4.39,-3.76,-0.86,-0.86,-0.86
73.64,3.69,4.56,3.68,4.55,-4.53,-4.51,-3.76,-0.84,-0.85,-0.87
74.38,3.79,4.67,3.78,4.66,-4.64,-4.62,-3.76,-0.85,-0.86,-0.88
75.12,3.86,4.75,3.86,4.75,-4.74,-4.73,-3.76,-0.89,-0.89,-0.89
75.87,3.92,4.83,3.93,4.84,-4.85,-4.83,-3.75,-0.93,-0.91,-0.91
76.63,4.01,4.93,4.01,4.93,-4.95,-4.94,-3.75,-0.94,-0.94,-0.92
77.40,4.10,5.04,4.09,5.03,-5.04,-5.04,-3.75,-0.94,-0.95,-0.94
78.17,4.17,5.12,4.17,5.13,-5.13,-5.13,-3.75,-0.96,-0.96,-0.95
78.95,4.25,5.22,4.24,5.21,-5.22,-5.23,-3.75,-0.97,-0.97,-0.97
79.74,4.32,5.30,4.31,5.29,-5.30,-5.31,-3.76,-0.98,-0.99,-0.98
80.54,4.37,5.37,4.39,5.39,-5.38,-5.40,-3.77,-1.01,-0.99,-1.00
81.35,4.45,5.46,4.46,5.47,-5.45,-5.48,-3.77,-1.01,-0.99,-1.01
82.16,4.55,5.57,4.50,5.53,-5.52,-5.55,-3.78,-0.97,-1.02,-1.02
82.98,4.55,5.58,4.55,5.58,-5.58,-5.62,-3.80,-1.04,-1.04,-1.03
83.81,4.55,5.59,4.59,5.63,-5.64,-5.68,-3.81,-1.09,-1.05,-1.04
84.65,4.65,5.69,4.64,5.68,-5.70,-5.74,-3.83,-1.05,-1.06,-1.04
85.50,4.72,5.77,4.70,5.75,-5.75,-5.80,-3.86,-1.03,-1.05,-1.05
86.35,4.75,5.81,4.73,5.80,-5.79,-5.85,-3.88,-1.05,-1.06,-1.06
87.22,4.75,5.82,4.76,5.83,-5.84,-5.89,-3.91,-1.09,-1.08,-1.07
88.09,4.76,5.84,4.79,5.87,-5.87,-5.93,-3.94,-1.12,-1.08,-1.08
88.97,4.86,5.94,4.82,5.91,-5.91,-5.96,-3.98,-1.05,-1.08,-1.08
89.86,4.86,5.95,4.85,5.95,-5.93,-5.99,-4.01,-1.07,-1.08,-1.09
90.76,4.86,5.96,4.87,5.96,-5.95,-6.01,-4.05,-1.09,-1.08,-1.10
91.66,4.86,5.96,4.86,5.96,-5.96,-6.03,-4.10,-1.10,-1.10,-1.10
92.58,4.86,5.96,4.86,5.96,-5.97,-6.04,-4.15,-1.11,-1.11,-1.10
93.51,4.86,5.97,4.86,5.97,-5.97,-6.04,-4.20,-1.12,-1.12,-1.11
94.44,4.86,5.97,4.86,5.97,-5.98,-6.04,-4.25,-1.12,-1.12,-1.11
95.39,4.86,5.97,4.86,5.97,-5.98,-6.04,-4.31,-1.12,-1.12,-1.11
96.34,4.86,5.97,4.85,5.97,-5.98,-6.03,-4.37,-1.12,-1.12,-1.11
97.30,4.85,5.96,4.85,5.96,-5.97,-6.01,-4.43,-1.12,-1.12,-1.11
98.28,4.84,5.96,4.84,5.96,-5.96,-5.99,-4.49,-1.12,-1.12,-1.12
99.26,4.83,5.95,4.83,5.95,-5.94,-5.97,-4.56,-1.11,-1.11,-1.12
100.25,4.81,5.93,4.82,5.94,-5.91,-5.94,-4.63,-1.10,-1.09,-1.12
101.25,4.79,5.91,4.78,5.91,-5.88,-5.91,-4.70,-1.09,-1.09,-1.12
102.27,4.75,5.88,4.72,5.85,-5.84,-5.88,-4.77,-1.09,-1.12,-1.13
103.29,4.63,5.77,4.64,5.78,-5.80,-5.84,-4.84,-1.17,-1.16,-1.14
104.32,4.54,5.69,4.56,5.71,-5.75,-5.79,-4.91,-1.22,-1.19,-1.15
105.37,4.52,5.67,4.51,5.67,-5.70,-5.75,-4.99,-1.18,-1.19,-1.15
106.42,4.50,5.66,4.49,5.65,-5.65,-5.70,-5.06,-1.15,-1.16,-1.16
107.48,4.47,5.64,4.46,5.63,-5.60,-5.65,-5.13,-1.13,-1.14,-1.17
108.56,4.40,5.58,4.39,5.58,-5.55,-5.59,-5.20,-1.15,-1.16,-1.18
109.64,4.32,5.51,4.31,5.50,-5.51,-5.54,-5.27,-1.19,-1.20,-1.19
110.74,4.23,5.42,4.24,5.44,-5.46,-5.48,-5.34,-1.24,-1.22,-1.19
111.85,4.19,5.38,4.20,5.40,-5.41,-5.42,-5.40,-1.23,-1.21,-1.19
112.97,4.18,5.37,4.16,5.36,-5.36,-5.35,-5.46,-1.18,-1.19,-1.19
114.10,4.15,5.34,4.13,5.32,-5.30,-5.29,-5.52,-1.15,-1.17,-1.19
115.24,4.06,5.24,4.07,5.26,-5.23,-5.23,-5.57,-1.18,-1.16,-1.18
116.39,4.00,5.18,4.00,5.18,-5.17,-5.16,-5.62,-1.18,-1.17,-1.18
117.55,3.95,5.11,3.94,5.10,-5.11,-5.09,-5.66,-1.17,-1.17,-1.16
118.73,3.89,5.04,3.88,5.03,-5.05,-5.02,-5.69,-1.16,-1.17,-1.15
119.92,3.83,4.96,3.83,4.97,-4.98,-4.95,-5.72,-1.16,-1.15,-1.13
121.12,3.79,4.90,3.79,4.91,-4.92,-4.88,-5.73,-1.13,-1.12,-1.11
122.33,3.77,4.86,3.76,4.85,-4.85,-4.81,-5.74,-1.08,-1.09,-1.09
123.55,3.73,4.80,3.72,4.80,-4.78,-4.74,-5.75,-1.05,-1.06,-1.07
124.79,3.68,4.73,3.68,4.73,-4.71,-4.67,-5.74,-1.04,-1.04,-1.05
126.03,3.62,4.65,3.62,4.65,-4.65,-4.60,-5.73,-1.03,-1.03,-1.03
127.29,3.56,4.57,3.56,4.57,-4.58,-4.53,-5.70,-1.02,-1.02,-1.01
128.57,3.51,4.50,3.51,4.50,-4.51,-4.46,-5.67,-1.01,-1.01,-0.99
129.85,3.45,4.42,3.46,4.43,-4.44,-4.39,-5.63,-1.00,-0.98,-0.97
131.15,3.44,4.39,3.42,4.38,-4.38,-4.32,-5.59,-0.94,-0.95,-0.95
132.46,3.38,4.32,3.38,4.32,-4.31,-4.25,-5.53,-0.94,-0.94,-0.94
133.79,3.34,4.26,3.33,4.26,-4.25,-4.18,-5.47,-0.91,-0.92,-0.92
135.12,3.26,4.17,3.28,4.19,-4.18,-4.11,-5.40,-0.93,-0.91,-0.91
136.48,3.25,4.14,3.23,4.12,-4.12,-4.04,-5.33,-0.87,-0.89,-0.89
137.84,3.18,4.06,3.18,4.06,-4.05,-3.97,-5.25,-0.88,-0.88,-0.88
139.22,3.12,3.99,3.12,4.00,-3.99,-3.90,-5.17,-0.87,-0.86,-0.87
140.61,3.07,3.93,3.06,3.92,-3.92,-3.83,-5.08,-0.86,-0.86,-0.86
142.02,3.00,3.85,3.00,3.85,-3.86,-3.77,-4.99,-0.87,-0.87,-0.85
143.44,2.94,3.79,2.94,3.79,-3.80,-3.70,-4.89,-0.87,-0.86,-0.85
144.87,2.88,3.73,2.89,3.74,-3.75,-3.64,-4.80,-0.87,-0.86,-0.85
146.32,2.86,3.71,2.85,3.70,-3.69,-3.57,-4.70,-0.84,-0.85,-0.85
147.78,2.81,3.67,2.80,3.66,-3.65,-3.51,-4.60,-0.84,-0.85,-0.86
149.26,2.75,3.62,2.74,3.62,-3.61,-3.44,-4.49,-0.87,-0.87,-0.87
150.75,2.67,3.56,2.67,3.56,-3.59,-3.38,-4.39,-0.92,-0.92,-0.89
152.26,2.61,3.53,2.61,3.54,-3.56,-3.32,-4.29,-0.95,-0.95,-0.92
153.78,2.56,3.51,2.57,3.53,-3.53,-3.26,-4.19,-0.98,-0.96,-0.95
155.32,2.55,3.54,2.52,3.51,-3.51,-3.20,-4.09,-0.96,-0.98,-0.99
156.88,2.49,3.51,2.48,3.50,-3.48,-3.14,-3.99,-0.99,-1.00,-1.02
158.44,2.39,3.45,2.42,3.48,-3.45,-3.08,-3.89,-1.07,-1.04,-1.06
160.03,2.36,3.45,2.33,3.43,-3.43,-3.02,-3.79,-1.07,-1.09,-1.09
161.63,2.27,3.38,2.26,3.38,-3.40,-2.97,-3.69,-1.13,-1.14,-1.11
163.24,2.19,3.33,2.21,3.35,-3.36,-2.91,-3.60,-1.18,-1.15,-1.14
164.88,2.16,3.31,2.16,3.31,-3.32,-2.86,-3.50,-1.16,-1.16,-1.15
166.53,2.14,3.30,2.12,3.28,-3.27,-2.80,-3.41,-1.13,-1.15,-1.16
168.19,2.08,3.24,2.07,3.23,-3.21,-2.75,-3.32,-1.14,-1.14,-1.16
169.87,2.01,3.16,2.01,3.17,-3.15,-2.70,-3.24,-1.15,-1.14,-1.15
171.57,1.94,3.08,1.95,3.09,-3.09,-2.64,-3.15,-1.15,-1.13,-1.14
173.29,1.92,3.04,1.90,3.02,-3.02,-2.59,-3.07,-1.10,-1.12,-1.12
175.02,1.85,2.94,1.85,2.94,-2.94,-2.54,-2.99,-1.10,-1.10,-1.09
176.77,1.80,2.86,1.79,2.85,-2.87,-2.50,-2.91,-1.07,-1.08,-1.06
178.54,1.73,2.76,1.75,2.78,-2.79,-2.45,-2.84,-1.06,-1.04,-1.03
180.32,1.72,2.71,1.72,2.72,-2.72,-2.40,-2.76,-1.00,-1.00,-0.99
182.13,1.72,2.68,1.70,2.66,-2.65,-2.35,-2.69,-0.94,-0.95,-0.96
183.95,1.68,2.60,1.67,2.60,-2.60,-2.31,-2.62,-0.92,-0.92,-0.92
185.79,1.64,2.54,1.63,2.53,-2.54,-2.26,-2.56,-0.90,-0.91,-0.90
187.65,1.57,2.45,1.59,2.47,-2.49,-2.22,-2.49,-0.92,-0.90,-0.88
189.52,1.57,2.43,1.58,2.44,-2.44,-2.18,-2.43,-0.87,-0.86,-0.86
191.42,1.58,2.43,1.56,2.41,-2.40,-2.13,-2.37,-0.82,-0.84,-0.85
193.33,1.56,2.39,1.53,2.36,-2.35,-2.09,-2.31,-0.80,-0.83,-0.83
195.27,1.46,2.28,1.49,2.31,-2.31,-2.05,-2.25,-0.86,-0.83,-0.82
197.22,1.43,2.25,1.44,2.26,-2.28,-2.01,-2.20,-0.85,-0.83,-0.82
199.19,1.44,2.25,1.41,2.22,-2.24,-1.97,-2.14,-0.80,-0.83,-0.81
201.18,1.39,2.20,1.39,2.20,-2.19,-1.93,-2.09,-0.81,-0.80,-0.81
203.19,1.35,2.16,1.36,2.17,-2.15,-1.89,-2.04,-0.80,-0.79,-0.81
205.23,1.33,2.14,1.31,2.13,-2.11,-1.86,-2.00,-0.79,-0.80,-0.81
207.28,1.28,2.09,1.26,2.08,-2.08,-1.82,-1.95,-0.81,-0.82,-0.81
209.35,1.20,2.01,1.21,2.02,-2.05,-1.78,-1.90,-0.86,-0.84,-0.81
211.44,1.16,1.98,1.16,1.98,-2.02,-1.75,-1.86,-0.86,-0.86,-0.82
213.56,1.14,1.96,1.15,1.97,-1.98,-1.71,-1.82,-0.84,-0.83,-0.82
215.69,1.14,1.97,1.14,1.97,-1.93,-1.68,-1.78,-0.80,-0.80,-0.83
217.85,1.14,1.97,1.10,1.93,-1.89,-1.64,-1.74,-0.75,-0.79,-0.83
220.03,1.03,1.87,1.04,1.88,-1.85,-1.61,-1.70,-0.82,-0.81,-0.84
222.23,0.95,1.79,0.96,1.81,-1.81,-1.58,-1.66,-0.87,-0.85,-0.84
224.45,0.91,1.75,0.89,1.73,-1.78,-1.55,-1.62,-0.87,-0.89,-0.84
226.70,0.84,1.68,0.85,1.69,-1.74,-1.52,-1.59,-0.90,-0.89,-0.84
228.96,0.83,1.67,0.84,1.68,-1.70,-1.49,-1.55,-0.87,-0.86,-0.84
231.25,0.84,1.67,0.84,1.68,-1.65,-1.46,-1.52,-0.82,-0.81,-0.83
233.57,0.85,1.68,0.83,1.66,-1.62,-1.43,-1.48,-0.77,-0.79,-0.83
235.90,0.83,1.65,0.79,1.62,-1.59,-1.40,-1.45,-0.76,-0.79,-0.82
238.26,0.72,1.53,0.75,1.56,-1.56,-1.37,-1.41,-0.84,-0.81,-0.81
240.64,0.69,1.48,0.70,1.50,-1.53,-1.34,-1.38,-0.84,-0.82,-0.79
243.05,0.70,1.48,0.67,1.45,-1.49,-1.31,-1.35,-0.79,-0.82,-0.78
245.48,0.66,1.43,0.67,1.44,-1.44,-1.29,-1.31,-0.78,-0.77,-0.77
247.93,0.65,1.41,0.66,1.42,-1.40,-1.26,-1.28,-0.75,-0.74,-0.76
250.41,0.67,1.42,0.63,1.38,-1.36,-1.24,-1.25,-0.70,-0.73,-0.75
252.92,0.59,1.33,0.59,1.33,-1.34,-1.21,-1.22,-0.75,-0.75,-0.74
255.45,0.53,1.27,0.54,1.28,-1.32,-1.19,-1.19,-0.79,-0.78,-0.74
258.00,0.50,1.24,0.51,1.25,-1.29,-1.16,-1.15,-0.79,-0.78,-0.74
260.58,0.51,1.25,0.51,1.25,-1.26,-1.14,-1.12,-0.75,-0.75,-0.74
263.19,0.52,1.26,0.51,1.25,-1.22,-1.11,-1.09,-0.70,-0.71,-0.74
265.82,0.50,1.24,0.48,1.22,-1.18,-1.09,-1.06,-0.68,-0.70,-0.74
268.48,0.43,1.17,0.43,1.17,-1.14,-1.07,-1.03,-0.71,-0.71,-0.74
271.16,0.34,1.08,0.34,1.09,-1.09,-1.05,-0.99,-0.76,-0.75,-0.74
273.87,0.28,1.02,0.26,1.00,-1.04,-1.02,-0.96,-0.77,-0.78,-0.74
276.61,0.18,0.92,0.22,0.97,-0.98,-1.00,-0.93,-0.81,-0.76,-0.74
279.38,0.19,0.93,0.19,0.93,-0.93,-0.98,-0.90,-0.74,-0.74,-0.74
282.17,0.21,0.94,0.14,0.87,-0.87,-0.96,-0.87,-0.66,-0.73,-0.73
284.99,0.07,0.79,0.10,0.82,-0.81,-0.94,-0.84,-0.75,-0.72,-0.72
287.84,-0.01,0.71,0.04,0.76,-0.76,-0.92,-0.80,-0.77,-0.72,-0.72
290.72,0.03,0.74,-0.02,0.69,-0.70,-0.90,-0.77,-0.68,-0.72,-0.71
293.63,-0.04,0.66,-0.04,0.67,-0.64,-0.88,-0.74,-0.69,-0.68,-0.70
296.57,-0.08,0.61,-0.07,0.62,-0.59,-0.86,-0.71,-0.67,-0.66,-0.69
299.53,-0.13,0.56,-0.16,0.53,-0.53,-0.84,-0.68,-0.67,-0.69,-0.69
302.53,-0.23,0.45,-0.24,0.45,-0.49,-0.83,-0.65,-0.72,-0.73,-0.68
305.55,-0.33,0.35,-0.29,0.39,-0.44,-0.81,-0.62,-0.77,-0.73,-0.68
308.61,-0.33,0.35,-0.32,0.36,-0.38,-0.79,-0.59,-0.72,-0.70,-0.68
311.69,-0.29,0.39,-0.34,0.35,-0.32,-0.77,-0.55,-0.61,-0.66,-0.68
314.81,-0.36,0.33,-0.36,0.33,-0.25,-0.76,-0.52,-0.62,-0.61,-0.69
317.96,-0.45,0.24,-0.43,0.27,-0.19,-0.74,-0.49,-0.65,-0.62,-0.69
321.14,-0.49,0.21,-0.55,0.15,-0.15,-0.72,-0.46,-0.64,-0.69,-0.70
324.35,-0.65,0.05,-0.65,0.06,-0.10,-0.71,-0.43,-0.76,-0.75,-0.70
327.59,-0.77,-0.06,-0.71,-0.00,-0.07,-0.69,-0.40,-0.84,-0.78,-0.71
330.87,-0.72,-0.00,-0.75,-0.03,-0.04,-0.68,-0.37,-0.76,-0.79,-0.72
334.18,-0.70,0.03,-0.71,0.02,-0.03,-0.66,-0.34,-0.73,-0.74,-0.73
337.52,-0.68,0.06,-0.66,0.07,-0.04,-0.64,-0.31,-0.72,-0.70,-0.74
340.90,-0.61,0.13,-0.65,0.09,-0.08,-0.63,-0.28,-0.69,-0.73,-0.74
344.30,-0.63,0.12,-0.63,0.13,-0.14,-0.61,-0.25,-0.77,-0.77,-0.75
347.75,-0.63,0.14,-0.60,0.17,-0.21,-0.60,-0.22,-0.84,-0.80,-0.77
351.23,-0.53,0.25,-0.54,0.24,-0.27,-0.59,-0.19,-0.81,-0.82,-0.78
354.74,-0.45,0.34,-0.45,0.34,-0.33,-0.57,-0.16,-0.78,-0.78,-0.79
358.28,-0.38,0.42,-0.38,0.42,-0.37,-0.56,-0.13,-0.76,-0.76,-0.80
361.87,-0.32,0.49,-0.36,0.45,-0.40,-0.54,-0.10,-0.73,-0.77,-0.81
365.49,-0.40,0.43,-0.38,0.45,-0.42,-0.53,-0.07,-0.82,-0.80,-0.83
369.14,-0.42,0.42,-0.41,0.43,-0.42,-0.52,-0.04,-0.84,-0.83,-0.84
372.83,-0.45,0.40,-0.45,0.40,-0.40,-0.50,-0.01,-0.85,-0.85,-0.85
376.56,-0.48,0.38,-0.51,0.35,-0.36,-0.49,0.02,-0.85,-0.87,-0.86
380.33,-0.56,0.31,-0.57,0.30,-0.31,-0.48,0.05,-0.88,-0.89,-0.87
384.13,-0.68,0.20,-0.63,0.25,-0.26,-0.46,0.08,-0.95,-0.89,-0.88
387.97,-0.66,0.23,-0.69,0.20,-0.22,-0.45,0.11,-0.88,-0.90,-0.89
391.85,-0.70,0.20,-0.73,0.17,-0.17,-0.44,0.14,-0.87,-0.90,-0.90
395.77,-0.80,0.11,-0.77,0.14,-0.13,-0.43,0.17,-0.94,-0.90,-0.91
399.73,-0.82,0.10,-0.84,0.08,-0.11,-0.41,0.20,-0.93,-0.95,-0.92
403.72,-0.86,0.07,-0.88,0.06,-0.09,-0.40,0.23,-0.95,-0.97,-0.93
407.76,-0.94,0.01,-0.89,0.06,-0.07,-0.39,0.26,-1.01,-0.96,-0.95
411.84,-0.88,0.08,-0.93,0.03,-0.04,-0.38,0.28,-0.93,-0.98,-0.96
415.96,-0.92,0.05,-0.93,0.04,-0.02,-0.36,0.31,-0.94,-0.95,-0.97
420.12,-1.02,-0.05,-0.92,0.05,0.01,-0.35,0.34,-1.01,-0.91,-0.97
424.32,-0.88,0.10,-0.98,-0.00,0.04,-0.34,0.36,-0.84,-0.94,-0.98
428.56,-1.01,-0.03,-1.06,-0.08,0.07,-0.33,0.39,-0.94,-0.99,-0.98
432.85,-1.20,-0.23,-1.11,-0.14,0.10,-0.32,0.41,-1.10,-1.01,-0.97
437.18,-1.17,-0.21,-1.14,-0.18,0.13,-0.30,0.44,-1.04,-1.01,-0.96
441.55,-1.08,-0.14,-1.12,-0.18,0.16,-0.29,0.46,-0.93,-0.97,-0.94
445.96,-1.02,-0.10,-1.11,-0.18,0.18,-0.28,0.48,-0.85,-0.93,-0.92
