frequency,raw,error,smoothed,error_smoothed,equalization,parametric_eq,fixed_band_eq,equalized_raw,equalized_smoothed,target
20.00,5.11,-2.13,5.11,-2.13,2.13,1.71,0.44,7.25,7.25,7.25
20.20,5.14,-2.07,5.14,-2.08,2.08,1.70,0.45,7.22,7.22,7.22
20.40,5.17,-2.02,5.17,-2.03,2.03,1.68,0.47,7.20,7.20,7.20
20.61,5.20,-1.97,5.20,-1.98,1.98,1.67,0.48,7.18,7.17,7.18
20.81,5.22,-1.93,5.22,-1.93,1.93,1.65,0.50,7.15,7.15,7.15
21.02,5.25,-1.88,5.25,-1.88,1.88,1.64,0.51,7.13,7.13,7.13
21.23,5.28,-1.83,5.28,-1.83,1.83,1.62,0.53,7.11,7.11,7.11
21.44,5.31,-1.78,5.31,-1.79,1.79,1.61,0.54,7.10,7.09,7.09
21.66,5.33,-1.74,5.34,-1.74,1.74,1.59,0.56,7.07,7.08,7.07
21.87,5.36,-1.70,5.36,-1.70,1.70,1.58,0.58,7.06,7.06,7.06
22.09,5.39,-1.65,5.39,-1.66,1.66,1.56,0.60,7.05,7.05,7.04
22.31,5.41,-1.62,5.41,-1.62,1.62,1.55,0.61,7.03,7.03,7.03
22.54,5.43,-1.59,5.43,-1.59,1.58,1.53,0.63,7.01,7.02,7.02
22.76,5.46,-1.55,5.46,-1.55,1.55,1.52,0.65,7.01,7.01,7.01
22.99,5.48,-1.52,5.48,-1.52,1.52,1.50,0.67,7.00,7.00,7.00
23.22,5.51,-1.48,5.51,-1.48,1.48,1.49,0.69,7.00,6.99,6.99
23.45,5.53,-1.45,5.53,-1.45,1.45,1.47,0.71,6.99,6.98,6.98
23.69,5.55,-1.42,5.55,-1.42,1.42,1.45,0.74,6.97,6.97,6.97
23.92,5.57,-1.40,5.57,-1.39,1.39,1.44,0.76,6.96,6.96,6.97
24.16,5.59,-1.37,5.59,-1.37,1.36,1.42,0.78,6.95,6.95,6.96
24.40,5.62,-1.33,5.62,-1.33,1.32,1.41,0.80,6.95,6.95,6.96
24.65,5.65,-1.29,5.65,-1.30,1.29,1.39,0.82,6.94,6.94,6.95
24.89,5.69,-1.25,5.69,-1.26,1.25,1.37,0.85,6.95,6.94,6.95
25.14,5.71,-1.22,5.72,-1.22,1.22,1.36,0.87,6.93,6.93,6.93
25.39,5.74,-1.18,5.74,-1.18,1.19,1.34,0.89,6.93,6.93,6.92
25.65,5.77,-1.15,5.77,-1.15,1.16,1.32,0.91,6.93,6.92,6.92
25.91,5.79,-1.12,5.79,-1.13,1.13,1.31,0.94,6.92,6.92,6.91
26.16,5.80,-1.11,5.80,-1.11,1.12,1.29,0.96,6.92,6.92,6.91
26.43,5.81,-1.10,5.81,-1.10,1.11,1.27,0.98,6.92,6.92,6.91
26.69,5.81,-1.09,5.81,-1.09,1.10,1.26,1.00,6.91,6.91,6.90
26.96,5.80,-1.10,5.80,-1.10,1.10,1.24,1.03,6.90,6.90,6.90
27.23,5.78,-1.11,5.78,-1.11,1.10,1.22,1.05,6.88,6.88,6.89
27.50,5.77,-1.11,5.78,-1.11,1.10,1.20,1.07,6.87,6.87,6.89
27.77,5.77,-1.11,5.77,-1.11,1.09,1.19,1.09,6.86,6.87,6.88
28.05,5.79,-1.08,5.79,-1.09,1.08,1.17,1.10,6.87,6.87,6.87
28.33,5.80,-1.07,5.81,-1.07,1.06,1.15,1.12,6.87,6.87,6.87
28.62,5.83,-1.04,5.83,-1.04,1.04,1.14,1.14,6.87,6.87,6.87
28.90,5.85,-1.01,5.85,-1.01,1.01,1.12,1.15,6.87,6.87,6.86
29.19,5.88,-0.98,5.88,-0.98,0.98,1.10,1.16,6.86,6.86,6.86
29.48,5.91,-0.95,5.91,-0.95,0.95,1.09,1.18,6.86,6.86,6.86
29.78,5.94,-0.91,5.94,-0.91,0.91,1.07,1.19,6.85,6.85,6.86
30.08,5.97,-0.88,5.97,-0.88,0.88,1.05,1.19,6.85,6.85,6.85
30.38,6.00,-0.84,6.00,-0.84,0.84,1.04,1.20,6.84,6.84,6.84
30.68,6.03,-0.81,6.03,-0.81,0.81,1.02,1.20,6.84,6.84,6.84
30.99,6.06,-0.78,6.06,-0.77,0.78,1.00,1.20,6.84,6.84,6.84
31.30,6.09,-0.75,6.09,-0.75,0.75,0.99,1.20,6.84,6.83,6.84
31.61,6.11,-0.71,6.11,-0.72,0.72,0.97,1.20,6.83,6.83,6.82
31.93,6.12,-0.70,6.13,-0.70,0.70,0.95,1.20,6.82,6.83,6.82
32.24,6.14,-0.68,6.14,-0.68,0.69,0.94,1.19,6.83,6.82,6.82
32.57,6.14,-0.67,6.14,-0.67,0.68,0.92,1.18,6.82,6.82,6.81
32.89,6.14,-0.66,6.14,-0.67,0.67,0.90,1.18,6.81,6.81,6.81
33.22,6.13,-0.67,6.13,-0.67,0.67,0.89,1.16,6.80,6.80,6.80
33.55,6.12,-0.67,6.13,-0.67,0.66,0.87,1.15,6.78,6.79,6.79
33.89,6.12,-0.67,6.12,-0.67,0.66,0.86,1.14,6.78,6.78,6.79
34.23,6.12,-0.66,6.12,-0.66,0.66,0.84,1.12,6.78,6.78,6.79
34.57,6.12,-0.65,6.12,-0.66,0.65,0.82,1.10,6.78,6.78,6.77
34.92,6.12,-0.65,6.12,-0.65,0.65,0.81,1.08,6.77,6.77,6.77
35.27,6.12,-0.65,6.12,-0.64,0.64,0.79,1.06,6.77,6.77,6.77
35.62,6.12,-0.63,6.12,-0.64,0.64,0.78,1.04,6.76,6.76,6.75
35.97,6.12,-0.63,6.12,-0.63,0.63,0.76,1.02,6.75,6.75,6.75
36.33,6.12,-0.63,6.12,-0.63,0.63,0.74,1.00,6.75,6.75,6.75
36.70,6.12,-0.62,6.12,-0.62,0.62,0.73,0.98,6.74,6.74,6.74
37.06,6.12,-0.62,6.12,-0.62,0.61,0.71,0.95,6.74,6.74,6.74
37.43,6.12,-0.60,6.12,-0.61,0.61,0.70,0.93,6.73,6.73,6.73
37.81,6.12,-0.60,6.12,-0.60,0.60,0.68,0.90,6.72,6.72,6.72
38.19,6.12,-0.60,6.12,-0.59,0.59,0.67,0.88,6.71,6.71,6.72
38.57,6.12,-0.58,6.12,-0.59,0.58,0.65,0.86,6.71,6.71,6.70
38.95,6.12,-0.58,6.12,-0.58,0.57,0.64,0.83,6.70,6.70,6.70
39.34,6.12,-0.56,6.12,-0.57,0.57,0.62,0.81,6.69,6.69,6.68
39.74,6.12,-0.56,6.12,-0.56,0.56,0.61,0.78,6.68,6.68,6.68
40.14,6.12,-0.54,6.12,-0.55,0.55,0.59,0.76,6.67,6.67,6.67
40.54,6.12,-0.54,6.12,-0.54,0.54,0.58,0.74,6.66,6.66,6.66
40.94,6.12,-0.53,6.12,-0.53,0.53,0.57,0.71,6.65,6.65,6.65
41.35,6.12,-0.53,6.12,-0.53,0.53,0.55,0.69,6.65,6.65,6.65
41.76,6.12,-0.52,6.12,-0.52,0.52,0.54,0.67,6.64,6.64,6.64
42.18,6.12,-0.52,6.12,-0.52,0.52,0.52,0.65,6.64,6.64,6.64
42.60,6.12,-0.51,6.12,-0.51,0.51,0.51,0.63,6.63,6.63,6.63
43.03,6.12,-0.51,6.12,-0.51,0.51,0.50,0.61,6.63,6.63,6.63
43.46,6.12,-0.51,6.12,-0.51,0.50,0.48,0.59,6.62,6.62,6.63
43.90,6.12,-0.50,6.12,-0.50,0.50,0.47,0.57,6.62,6.62,6.62
44.33,6.12,-0.49,6.12,-0.49,0.49,0.46,0.55,6.61,6.61,6.61
44.78,6.12,-0.48,6.12,-0.48,0.48,0.45,0.53,6.61,6.61,6.61
45.23,6.12,-0.48,6.12,-0.48,0.48,0.43,0.51,6.60,6.60,6.60
45.68,6.12,-0.47,6.12,-0.47,0.47,0.42,0.49,6.59,6.59,6.59
46.13,6.12,-0.46,6.12,-0.46,0.46,0.41,0.47,6.58,6.58,6.58
46.60,6.12,-0.45,6.12,-0.45,0.45,0.40,0.46,6.57,6.57,6.57
47.06,6.12,-0.44,6.12,-0.44,0.44,0.39,0.44,6.56,6.56,6.56
47.53,6.12,-0.42,6.12,-0.42,0.43,0.38,0.42,6.55,6.55,6.54
48.01,6.12,-0.41,6.12,-0.41,0.41,0.37,0.41,6.54,6.54,6.53
48.49,6.12,-0.40,6.12,-0.40,0.40,0.36,0.39,6.52,6.52,6.52
48.97,6.12,-0.39,6.12,-0.39,0.39,0.35,0.38,6.51,6.51,6.51
49.46,6.12,-0.38,6.12,-0.38,0.38,0.34,0.36,6.50,6.50,6.50
49.96,6.12,-0.37,6.12,-0.37,0.37,0.33,0.35,6.49,6.49,6.49
50.46,6.12,-0.36,6.12,-0.36,0.36,0.32,0.33,6.48,6.48,6.48
50.96,6.12,-0.34,6.12,-0.35,0.35,0.32,0.32,6.47,6.47,6.47
51.47,6.12,-0.34,6.12,-0.34,0.34,0.31,0.31,6.46,6.46,6.46
51.99,6.12,-0.33,6.12,-0.33,0.33,0.30,0.29,6.45,6.45,6.45
52.51,6.12,-0.32,6.12,-0.32,0.31,0.30,0.28,6.44,6.44,6.44
53.03,6.12,-0.30,6.12,-0.30,0.30,0.29,0.27,6.42,6.42,6.42
53.56,6.12,-0.29,6.12,-0.29,0.29,0.28,0.25,6.41,6.41,6.41
54.10,6.12,-0.28,6.12,-0.28,0.28,0.28,0.24,6.40,6.40,6.40
54.64,6.12,-0.27,6.12,-0.26,0.26,0.27,0.23,6.39,6.39,6.39
55.18,6.12,-0.25,6.12,-0.25,0.25,0.26,0.21,6.37,6.37,6.37
55.74,6.12,-0.23,6.12,-0.24,0.24,0.25,0.20,6.36,6.36,6.35
56.29,6.12,-0.23,6.12,-0.22,0.22,0.25,0.19,6.34,6.34,6.35
56.86,6.12,-0.21,6.12,-0.21,0.21,0.24,0.17,6.33,6.33,6.33
57.42,6.12,-0.19,6.12,-0.19,0.19,0.22,0.16,6.32,6.32,6.31
58.00,6.12,-0.18,6.12,-0.18,0.18,0.21,0.14,6.30,6.30,6.30
58.58,6.12,-0.16,6.12,-0.16,0.16,0.20,0.13,6.28,6.28,6.28
59.16,6.12,-0.14,6.12,-0.15,0.14,0.18,0.11,6.27,6.27,6.26
59.76,6.12,-0.13,6.12,-0.13,0.13,0.16,0.10,6.25,6.25,6.25
60.35,6.12,-0.11,6.12,-0.11,0.11,0.14,0.08,6.23,6.23,6.23
60.96,6.12,-0.09,6.12,-0.09,0.09,0.12,0.06,6.21,6.21,6.21
61.57,6.12,-0.06,6.12,-0.06,0.06,0.10,0.05,6.19,6.19,6.18
62.18,6.12,-0.04,6.12,-0.04,0.04,0.07,0.03,6.16,6.16,6.16
62.80,6.12,-0.02,6.12,-0.02,0.02,0.04,0.01,6.14,6.14,6.14
63.43,6.12,0.01,6.12,0.01,-0.01,0.02,-0.01,6.11,6.11,6.11
64.07,6.12,0.04,6.12,0.04,-0.04,-0.01,-0.03,6.09,6.09,6.09
64.71,6.12,0.06,6.12,0.06,-0.06,-0.04,-0.05,6.06,6.06,6.06
65.35,6.12,0.09,6.12,0.09,-0.09,-0.07,-0.07,6.03,6.03,6.03
66.01,6.12,0.12,6.12,0.12,-0.12,-0.09,-0.09,6.01,6.01,6.00
66.67,6.12,0.15,6.12,0.15,-0.15,-0.12,-0.11,5.98,5.98,5.98
67.33,6.12,0.18,6.12,0.18,-0.18,-0.15,-0.14,5.94,5.94,5.95
68.01,6.12,0.21,6.12,0.21,-0.21,-0.18,-0.16,5.91,5.91,5.91
68.69,6.12,0.24,6.12,0.24,-0.24,-0.21,-0.19,5.88,5.88,5.88
69.37,6.12,0.27,6.13,0.27,-0.28,-0.23,-0.21,5.84,5.85,5.85
70.07,6.13,0.31,6.13,0.31,-0.31,-0.26,-0.24,5.82,5.82,5.82
70.77,6.14,0.36,6.14,0.35,-0.35,-0.29,-0.27,5.80,5.79,5.78
71.48,6.14,0.38,6.14,0.38,-0.38,-0.32,-0.29,5.76,5.76,5.76
72.19,6.13,0.41,6.13,0.41,-0.40,-0.34,-0.32,5.73,5.73,5.72
72.91,6.12,0.43,6.12,0.43,-0.43,-0.37,-0.35,5.69,5.69,5.69
73.64,6.10,0.45,6.10,0.45,-0.45,-0.40,-0.38,5.65,5.66,5.65
74.38,6.08,0.46,6.08,0.46,-0.46,-0.42,-0.41,5.62,5.62,5.62
75.12,6.06,0.48,6.06,0.47,-0.47,-0.45,-0.44,5.59,5.59,5.58
75.87,6.03,0.48,6.03,0.48,-0.48,-0.47,-0.47,5.55,5.55,5.55
76.63,6.00,0.49,6.00,0.49,-0.49,-0.50,-0.50,5.51,5.51,5.51
77.40,5.97,0.50,5.97,0.49,-0.50,-0.53,-0.54,5.48,5.47,5.47
78.17,5.94,0.50,5.94,0.50,-0.50,-0.55,-0.57,5.44,5.44,5.44
78.95,5.90,0.51,5.91,0.51,-0.51,-0.58,-0.60,5.39,5.40,5.40
79.74,5.88,0.53,5.88,0.52,-0.52,-0.61,-0.64,5.36,5.35,5.35
80.54,5.85,0.53,5.85,0.54,-0.54,-0.63,-0.68,5.31,5.31,5.32
81.35,5.82,0.55,5.82,0.55,-0.56,-0.66,-0.71,5.26,5.27,5.27
82.16,5.80,0.58,5.80,0.58,-0.58,-0.68,-0.75,5.22,5.22,5.22
82.98,5.79,0.61,5.79,0.61,-0.61,-0.71,-0.79,5.18,5.18,5.18
83.81,5.78,0.65,5.78,0.65,-0.65,-0.74,-0.83,5.13,5.13,5.13
84.65,5.77,0.68,5.77,0.69,-0.69,-0.77,-0.87,5.08,5.08,5.09
85.50,5.77,0.73,5.77,0.73,-0.74,-0.79,-0.91,5.03,5.03,5.04
86.35,5.78,0.79,5.78,0.79,-0.80,-0.82,-0.95,4.99,4.98,4.99
87.22,5.79,0.85,5.79,0.85,-0.85,-0.85,-0.99,4.94,4.94,4.94
88.09,5.80,0.91,5.80,0.92,-0.91,-0.88,-1.03,4.89,4.89,4.89
88.97,5.81,0.98,5.81,0.98,-0.97,-0.90,-1.08,4.84,4.84,4.84
89.86,5.82,1.04,5.82,1.03,-1.03,-0.93,-1.12,4.80,4.79,4.78
90.76,5.81,1.08,5.82,1.09,-1.08,-0.96,-1.16,4.73,4.74,4.73
91.66,5.81,1.14,5.81,1.13,-1.13,-0.99,-1.21,4.68,4.68,4.68
92.58,5.79,1.17,5.79,1.17,-1.17,-1.02,-1.26,4.62,4.62,4.62
93.51,5.78,1.21,5.78,1.21,-1.21,-1.05,-1.31,4.57,4.57,4.57
94.44,5.75,1.24,5.75,1.24,-1.24,-1.08,-1.35,4.51,4.51,4.51
95.39,5.73,1.28,5.73,1.27,-1.27,-1.11,-1.40,4.46,4.46,4.46
96.34,5.70,1.30,5.70,1.30,-1.30,-1.14,-1.45,4.40,4.40,4.40
97.30,5.67,1.32,5.67,1.32,-1.32,-1.17,-1.50,4.35,4.35,4.35
98.28,5.64,1.35,5.64,1.34,-1.35,-1.21,-1.55,4.29,4.29,4.30
99.26,5.61,1.37,5.61,1.37,-1.37,-1.24,-1.60,4.24,4.24,4.24
100.25,5.57,1.39,5.58,1.40,-1.40,-1.27,-1.65,4.18,4.18,4.18
101.25,5.55,1.43,5.55,1.42,-1.42,-1.30,-1.71,4.13,4.13,4.12
102.27,5.52,1.46,5.52,1.45,-1.45,-1.34,-1.76,4.07,4.07,4.07
103.29,5.49,1.48,5.49,1.48,-1.48,-1.37,-1.81,4.01,4.01,4.01
104.32,5.47,1.51,5.47,1.52,-1.52,-1.40,-1.86,3.95,3.95,3.96
105.37,5.46,1.56,5.46,1.56,-1.57,-1.44,-1.91,3.90,3.89,3.90
106.42,5.45,1.61,5.45,1.60,-1.62,-1.47,-1.96,3.84,3.84,3.84
107.48,5.45,1.65,5.45,1.66,-1.67,-1.51,-2.01,3.78,3.78,3.80
108.56,5.46,1.72,5.46,1.72,-1.73,-1.55,-2.06,3.73,3.73,3.74
109.64,5.47,1.79,5.47,1.79,-1.79,-1.58,-2.11,3.68,3.68,3.68
110.74,5.48,1.86,5.48,1.86,-1.85,-1.62,-2.16,3.63,3.63,3.62
111.85,5.49,1.92,5.49,1.92,-1.90,-1.65,-2.20,3.59,3.58,3.57
112.97,5.48,1.96,5.48,1.97,-1.96,-1.69,-2.24,3.53,3.53,3.52
114.10,5.47,2.01,5.47,2.01,-2.00,-1.73,-2.29,3.47,3.47,3.46
115.24,5.45,2.04,5.45,2.04,-2.04,-1.77,-2.32,3.41,3.41,3.41
116.39,5.43,2.08,5.43,2.07,-2.07,-1.80,-2.36,3.36,3.36,3.35
117.55,5.40,2.10,5.40,2.10,-2.10,-1.84,-2.40,3.30,3.30,3.31
118.73,5.37,2.12,5.37,2.12,-2.12,-1.88,-2.43,3.25,3.25,3.25
119.92,5.34,2.15,5.34,2.14,-2.14,-1.92,-2.45,3.20,3.20,3.20
121.12,5.31,2.17,5.31,2.17,-2.16,-1.96,-2.48,3.15,3.15,3.14
122.33,5.28,2.18,5.28,2.18,-2.18,-2.00,-2.50,3.10,3.10,3.10
123.55,5.25,2.21,5.25,2.20,-2.21,-2.03,-2.52,3.04,3.04,3.05
124.79,5.22,2.22,5.22,2.22,-2.23,-2.07,-2.54,2.99,2.99,3.00
126.03,5.20,2.25,5.20,2.25,-2.26,-2.11,-2.55,2.94,2.95,2.95
127.29,5.19,2.28,5.19,2.28,-2.28,-2.15,-2.56,2.91,2.90,2.91
128.57,5.17,2.31,5.17,2.31,-2.31,-2.19,-2.57,2.86,2.86,2.86
129.85,5.16,2.35,5.16,2.35,-2.34,-2.23,-2.57,2.82,2.81,2.81
131.15,5.14,2.38,5.14,2.38,-2.38,-2.27,-2.57,2.76,2.77,2.76
132.46,5.13,2.41,5.13,2.41,-2.41,-2.31,-2.57,2.72,2.72,2.72
133.79,5.11,2.44,5.11,2.44,-2.44,-2.35,-2.56,2.67,2.67,2.68
135.12,5.09,2.46,5.09,2.46,-2.46,-2.38,-2.55,2.63,2.63,2.63
136.48,5.07,2.49,5.07,2.49,-2.49,-2.42,-2.54,2.58,2.59,2.58
137.84,5.05,2.51,5.05,2.51,-2.51,-2.46,-2.53,2.55,2.54,2.54
139.22,5.02,2.53,5.02,2.53,-2.52,-2.50,-2.52,2.50,2.50,2.49
140.61,4.99,2.54,4.99,2.54,-2.54,-2.53,-2.50,2.46,2.46,2.45
142.02,4.96,2.54,4.96,2.55,-2.55,-2.57,-2.48,2.41,2.41,2.42
143.44,4.93,2.56,4.93,2.56,-2.56,-2.60,-2.47,2.38,2.37,2.38
144.87,4.90,2.57,4.90,2.56,-2.56,-2.64,-2.45,2.34,2.34,2.33
146.32,4.87,2.57,4.87,2.57,-2.57,-2.67,-2.43,2.30,2.30,2.30
147.78,4.85,2.59,4.85,2.58,-2.59,-2.70,-2.41,2.27,2.26,2.27
149.26,4.83,2.60,4.83,2.60,-2.60,-2.73,-2.39,2.23,2.23,2.23
150.75,4.81,2.61,4.81,2.62,-2.62,-2.77,-2.37,2.19,2.19,2.20
152.26,4.80,2.64,4.80,2.64,-2.65,-2.79,-2.35,2.15,2.15,2.16
153.78,4.80,2.67,4.80,2.67,-2.68,-2.82,-2.33,2.12,2.12,2.13
155.32,4.80,2.70,4.80,2.71,-2.72,-2.85,-2.32,2.09,2.09,2.10
156.88,4.81,2.74,4.82,2.75,-2.75,-2.88,-2.30,2.06,2.06,2.07
158.44,4.83,2.80,4.83,2.79,-2.79,-2.90,-2.28,2.04,2.04,2.03
160.03,4.84,2.84,4.84,2.84,-2.83,-2.92,-2.27,2.02,2.01,2.00
161.63,4.84,2.87,4.84,2.87,-2.86,-2.94,-2.26,1.98,1.99,1.97
163.24,4.84,2.89,4.84,2.89,-2.88,-2.96,-2.24,1.96,1.95,1.95
164.88,4.82,2.90,4.83,2.91,-2.90,-2.98,-2.23,1.92,1.92,1.92
166.53,4.81,2.92,4.81,2.92,-2.92,-3.00,-2.22,1.89,1.89,1.89
168.19,4.79,2.93,4.79,2.92,-2.92,-3.01,-2.22,1.87,1.86,1.86
169.87,4.76,2.92,4.77,2.92,-2.92,-3.03,-2.21,1.84,1.84,1.84
171.57,4.74,2.92,4.74,2.92,-2.92,-3.04,-2.20,1.82,1.82,1.82
173.29,4.71,2.92,4.71,2.92,-2.92,-3.05,-2.20,1.80,1.79,1.79
175.02,4.68,2.92,4.68,2.91,-2.91,-3.05,-2.20,1.77,1.77,1.77
176.77,4.65,2.90,4.65,2.90,-2.91,-3.06,-2.20,1.75,1.74,1.75
178.54,4.62,2.89,4.62,2.89,-2.90,-3.06,-2.20,1.72,1.72,1.73
180.32,4.59,2.89,4.60,2.89,-2.90,-3.06,-2.21,1.69,1.70,1.70
182.13,4.57,2.89,4.57,2.89,-2.89,-3.06,-2.21,1.68,1.68,1.68
183.95,4.56,2.90,4.55,2.89,-2.89,-3.06,-2.22,1.67,1.66,1.66
185.79,4.53,2.89,4.54,2.90,-2.89,-3.06,-2.23,1.64,1.64,1.64
187.65,4.51,2.89,4.51,2.89,-2.89,-3.05,-2.24,1.62,1.62,1.62
189.52,4.49,2.89,4.49,2.89,-2.89,-3.04,-2.25,1.60,1.60,1.60
191.42,4.46,2.88,4.46,2.88,-2.89,-3.03,-2.27,1.57,1.58,1.58
193.33,4.44,2.88,4.44,2.88,-2.88,-3.02,-2.28,1.56,1.56,1.56
195.27,4.42,2.88,4.42,2.88,-2.88,-3.01,-2.30,1.55,1.54,1.54
197.22,4.40,2.88,4.40,2.87,-2.87,-3.00,-2.32,1.53,1.53,1.53
199.19,4.37,2.86,4.37,2.86,-2.86,-2.98,-2.34,1.51,1.51,1.51
201.18,4.35,2.85,4.35,2.85,-2.85,-2.96,-2.36,1.50,1.50,1.50
203.19,4.32,2.83,4.32,2.83,-2.84,-2.94,-2.38,1.48,1.49,1.49
205.23,4.30,2.82,4.30,2.82,-2.82,-2.92,-2.40,1.48,1.48,1.48
207.28,4.28,2.81,4.28,2.81,-2.81,-2.90,-2.42,1.48,1.47,1.47
209.35,4.25,2.80,4.25,2.79,-2.78,-2.88,-2.45,1.47,1.47,1.45
211.44,4.21,2.76,4.22,2.77,-2.76,-2.85,-2.47,1.45,1.45,1.45
213.56,4.18,2.74,4.18,2.74,-2.74,-2.83,-2.49,1.44,1.44,1.44
215.69,4.14,2.72,4.14,2.71,-2.72,-2.80,-2.52,1.42,1.42,1.42
217.85,4.10,2.69,4.10,2.69,-2.70,-2.77,-2.54,1.40,1.40,1.41
220.03,4.07,2.66,4.07,2.67,-2.68,-2.74,-2.56,1.39,1.39,1.41
222.23,4.05,2.65,4.05,2.65,-2.67,-2.71,-2.58,1.39,1.38,1.40
224.45,4.03,2.64,4.03,2.65,-2.65,-2.68,-2.60,1.38,1.39,1.39
226.70,4.02,2.65,4.02,2.64,-2.63,-2.65,-2.62,1.39,1.39,1.38
228.96,4.00,2.63,4.00,2.63,-2.61,-2.62,-2.64,1.39,1.39,1.38
231.25,3.97,2.61,3.97,2.61,-2.59,-2.59,-2.65,1.38,1.38,1.37
233.57,3.93,2.58,3.93,2.57,-2.56,-2.56,-2.66,1.37,1.37,1.36
235.90,3.89,2.53,3.89,2.53,-2.53,-2.52,-2.67,1.36,1.36,1.36
238.26,3.84,2.49,3.84,2.49,-2.50,-2.49,-2.68,1.34,1.34,1.35
240.64,3.80,2.45,3.80,2.45,-2.47,-2.46,-2.69,1.34,1.34,1.35
243.05,3.77,2.42,3.77,2.42,-2.43,-2.43,-2.69,1.34,1.34,1.35
245.48,3.74,2.39,3.74,2.39,-2.40,-2.39,-2.69,1.34,1.34,1.35
247.93,3.71,2.37,3.71,2.37,-2.37,-2.36,-2.68,1.35,1.35,1.35
250.41,3.69,2.34,3.69,2.34,-2.33,-2.33,-2.68,1.36,1.35,1.35
252.92,3.66,2.31,3.66,2.31,-2.30,-2.29,-2.67,1.36,1.36,1.35
255.45,3.63,2.28,3.63,2.28,-2.27,-2.26,-2.65,1.36,1.36,1.35
258.00,3.59,2.24,3.59,2.24,-2.24,-2.23,-2.64,1.36,1.35,1.35
260.58,3.54,2.19,3.55,2.20,-2.20,-2.19,-2.62,1.34,1.35,1.35
263.19,3.50,2.16,3.50,2.16,-2.16,-2.16,-2.60,1.34,1.34,1.35
265.82,3.46,2.12,3.46,2.12,-2.12,-2.13,-2.57,1.34,1.34,1.34
268.48,3.42,2.08,3.42,2.08,-2.08,-2.10,-2.54,1.34,1.34,1.34
271.16,3.38,2.04,3.38,2.04,-2.04,-2.07,-2.51,1.34,1.34,1.34
273.87,3.34,2.01,3.34,2.00,-2.00,-2.04,-2.48,1.34,1.34,1.33
276.61,3.30,1.96,3.30,1.96,-1.96,-2.01,-2.45,1.34,1.34,1.34
279.38,3.25,1.92,3.26,1.92,-1.92,-1.98,-2.41,1.34,1.34,1.33
282.17,3.21,1.87,3.21,1.87,-1.87,-1.95,-2.38,1.34,1.34,1.34
284.99,3.16,1.83,3.16,1.83,-1.83,-1.92,-2.34,1.33,1.33,1.33
287.84,3.11,1.78,3.11,1.78,-1.78,-1.89,-2.30,1.33,1.33,1.33
290.72,3.06,1.74,3.06,1.74,-1.74,-1.86,-2.26,1.32,1.32,1.32
293.63,3.02,1.70,3.02,1.70,-1.70,-1.84,-2.22,1.32,1.32,1.32
296.57,2.98,1.66,2.98,1.66,-1.67,-1.81,-2.17,1.31,1.31,1.32
299.53,2.95,1.63,2.95,1.63,-1.64,-1.78,-2.13,1.31,1.32,1.32
302.53,2.93,1.61,2.93,1.61,-1.61,-1.76,-2.09,1.32,1.32,1.32
305.55,2.91,1.60,2.91,1.59,-1.59,-1.74,-2.05,1.33,1.32,1.32
308.61,2.89,1.57,2.89,1.57,-1.57,-1.71,-2.01,1.33,1.32,1.32
311.69,2.87,1.55,2.87,1.55,-1.55,-1.69,-1.97,1.32,1.32,1.32
314.81,2.86,1.53,2.86,1.53,-1.54,-1.67,-1.93,1.32,1.32,1.33
317.96,2.85,1.53,2.85,1.53,-1.54,-1.65,-1.89,1.32,1.32,1.32
321.14,2.85,1.52,2.85,1.53,-1.53,-1.63,-1.85,1.32,1.32,1.33
324.35,2.86,1.53,2.86,1.53,-1.53,-1.61,-1.81,1.33,1.33,1.33
327.59,2.86,1.54,2.86,1.53,-1.53,-1.60,-1.77,1.33,1.34,1.33
330.87,2.87,1.54,2.87,1.54,-1.53,-1.58,-1.74,1.34,1.34,1.33
334.18,2.87,1.53,2.87,1.53,-1.53,-1.56,-1.70,1.34,1.34,1.34
337.52,2.87,1.53,2.87,1.53,-1.53,-1.55,-1.67,1.34,1.34,1.34
340.90,2.87,1.53,2.87,1.53,-1.53,-1.53,-1.63,1.34,1.34,1.35
344.30,2.87,1.53,2.87,1.53,-1.53,-1.52,-1.60,1.34,1.34,1.34
347.75,2.87,1.53,2.87,1.53,-1.53,-1.51,-1.57,1.34,1.34,1.34
351.23,2.87,1.53,2.87,1.53,-1.53,-1.50,-1.54,1.34,1.34,1.34
354.74,2.87,1.52,2.87,1.53,-1.53,-1.49,-1.51,1.34,1.34,1.35
358.28,2.87,1.53,2.87,1.53,-1.53,-1.48,-1.49,1.34,1.34,1.35
361.87,2.87,1.53,2.87,1.53,-1.53,-1.47,-1.46,1.34,1.34,1.34
365.49,2.87,1.53,2.87,1.53,-1.53,-1.46,-1.44,1.34,1.34,1.34
369.14,2.87,1.53,2.87,1.53,-1.53,-1.45,-1.41,1.34,1.34,1.34
372.83,2.87,1.53,2.87,1.53,-1.53,-1.44,-1.39,1.34,1.34,1.34
376.56,2.87,1.52,2.87,1.53,-1.53,-1.44,-1.37,1.34,1.34,1.35
380.33,2.87,1.52,2.87,1.53,-1.54,-1.43,-1.35,1.34,1.34,1.35
384.13,2.88,1.54,2.88,1.53,-1.54,-1.43,-1.33,1.34,1.34,1.35
387.97,2.88,1.54,2.89,1.54,-1.54,-1.42,-1.31,1.34,1.35,1.34
391.85,2.89,1.54,2.89,1.54,-1.54,-1.41,-1.30,1.35,1.35,1.35
395.77,2.90,1.55,2.89,1.54,-1.54,-1.41,-1.28,1.37,1.36,1.35
399.73,2.89,1.53,2.89,1.54,-1.53,-1.40,-1.26,1.36,1.36,1.36
403.72,2.88,1.52,2.88,1.52,-1.52,-1.40,-1.25,1.36,1.37,1.36
407.76,2.87,1.50,2.87,1.50,-1.50,-1.39,-1.24,1.37,1.37,1.37
411.84,2.85,1.48,2.85,1.48,-1.48,-1.38,-1.22,1.37,1.37,1.37
415.96,2.83,1.46,2.83,1.46,-1.45,-1.37,-1.21,1.38,1.37,1.38
420.12,2.80,1.43,2.80,1.43,-1.43,-1.36,-1.20,1.37,1.37,1.38
424.32,2.77,1.40,2.77,1.39,-1.40,-1.35,-1.18,1.37,1.37,1.37
428.56,2.74,1.36,2.75,1.37,-1.37,-1.34,-1.17,1.37,1.37,1.38
432.85,2.72,1.34,2.72,1.34,-1.34,-1.33,-1.16,1.38,1.38,1.38
437.18,2.70,1.32,2.70,1.32,-1.31,-1.31,-1.15,1.39,1.38,1.38
441.55,2.67,1.29,2.67,1.29,-1.28,-1.30,-1.14,1.39,1.39,1.38
445.96,2.64,1.26,2.64,1.26,-1.25,-1.28,-1.13,1.39,1.39,1.38
450.42,2.60,1.22,2.60,1.22,-1.22,-1.26,-1.11,1.38,1.38,1.38
454.93,2.56,1.18,2.56,1.18,-1.18,-1.24,-1.10,1.38,1.38,1.38
459.48,2.52,1.14,2.52,1.14,-1.15,-1.21,-1.09,1.37,1.37,1.38
464.07,2.49,1.11,2.49,1.11,-1.12,-1.19,-1.07,1.37,1.37,1.38
468.71,2.45,1.07,2.46,1.08,-1.09,-1.16,-1.06,1.36,1.37,1.38
473.40,2.43,1.06,2.43,1.05,-1.06,-1.13,-1.04,1.37,1.37,1.38
478.13,2.41,1.03,2.41,1.03,-1.03,-1.10,-1.03,1.38,1.38,1.39
482.91,2.39,1.01,2.39,1.01,-1.00,-1.07,-1.01,1.39,1.39,1.39
487.74,2.37,0.99,2.37,0.98,-0.97,-1.04,-0.99,1.40,1.40,1.38
492.62,2.33,0.95,2.33,0.94,-0.93,-1.00,-0.97,1.40,1.40,1.38
497.55,2.29,0.90,2.29,0.90,-0.89,-0.97,-0.95,1.40,1.40,1.39
502.52,2.24,0.85,2.24,0.85,-0.85,-0.93,-0.93,1.39,1.40,1.39
507.55,2.20,0.81,2.20,0.80,-0.81,-0.89,-0.91,1.40,1.39,1.39
512.62,2.15,0.76,2.15,0.76,-0.76,-0.85,-0.89,1.39,1.39,1.39
517.75,2.11,0.71,2.11,0.71,-0.72,-0.81,-0.86,1.39,1.39,1.40
522.93,2.07,0.67,2.07,0.67,-0.69,-0.77,-0.83,1.38,1.38,1.40
528.16,2.04,0.64,2.05,0.65,-0.66,-0.73,-0.81,1.38,1.39,1.40
533.44,2.03,0.63,2.03,0.63,-0.63,-0.69,-0.78,1.40,1.40,1.40
538.77,2.02,0.61,2.02,0.61,-0.60,-0.65,-0.75,1.42,1.42,1.41
544.16,2.00,0.59,2.00,0.59,-0.57,-0.61,-0.72,1.43,1.43,1.41
549.60,1.97,0.56,1.97,0.56,-0.55,-0.57,-0.69,1.43,1.42,1.41
555.10,1.93,0.52,1.93,0.52,-0.51,-0.53,-0.65,1.42,1.42,1.41
