frequency,raw,error,smoothed,error_smoothed,equalization,parametric_eq,fixed_band_eq,equalized_raw,equalized_smoothed,target
20.00,-11.58,-16.87,-11.58,-16.87,6.00,6.05,2.68,-5.58,-5.58,5.29
20.20,-11.54,-16.83,-11.55,-16.84,6.00,6.04,2.76,-5.54,-5.55,5.29
20.40,-11.49,-16.79,-11.50,-16.79,6.00,6.03,2.84,-5.49,-5.50,5.30
20.61,-11.43,-16.73,-11.43,-16.73,6.00,6.03,2.92,-5.43,-5.43,5.30
20.81,-11.35,-16.65,-11.34,-16.65,6.00,6.02,3.00,-5.35,-5.34,5.30
21.02,-11.23,-16.53,-11.24,-16.54,6.00,6.01,3.09,-5.23,-5.24,5.30
21.23,-11.12,-16.43,-11.11,-16.42,6.00,6.00,3.18,-5.12,-5.11,5.31
21.44,-10.97,-16.29,-10.97,-16.29,6.00,5.99,3.27,-4.97,-4.97,5.32
21.66,-10.82,-16.14,-10.82,-16.14,6.00,5.98,3.36,-4.82,-4.82,5.32
21.87,-10.67,-16.00,-10.67,-15.99,6.00,5.97,3.46,-4.67,-4.67,5.33
22.09,-10.53,-15.85,-10.54,-15.86,6.00,5.96,3.56,-4.53,-4.54,5.32
22.31,-10.43,-15.76,-10.43,-15.75,6.00,5.95,3.66,-4.43,-4.43,5.33
22.54,-10.34,-15.66,-10.35,-15.67,6.00,5.94,3.76,-4.34,-4.35,5.32
22.76,-10.29,-15.62,-10.29,-15.61,6.00,5.94,3.87,-4.29,-4.29,5.33
22.99,-10.25,-15.58,-10.25,-15.57,6.00,5.93,3.98,-4.25,-4.25,5.33
23.22,-10.22,-15.54,-10.22,-15.54,6.00,5.92,4.09,-4.22,-4.22,5.31
23.45,-10.19,-15.50,-10.18,-15.50,6.00,5.91,4.21,-4.19,-4.18,5.31
23.69,-10.12,-15.44,-10.12,-15.43,6.00,5.90,4.32,-4.12,-4.12,5.31
23.92,-10.03,-15.34,-10.03,-15.34,6.00,5.90,4.44,-4.03,-4.03,5.31
24.16,-9.91,-15.22,-9.91,-15.22,6.00,5.89,4.56,-3.91,-3.91,5.31
24.40,-9.76,-15.08,-9.75,-15.07,6.00,5.88,4.69,-3.76,-3.75,5.32
24.65,-9.58,-14.90,-9.58,-14.90,6.00,5.88,4.81,-3.58,-3.58,5.32
24.89,-9.40,-14.72,-9.40,-14.72,6.00,5.87,4.94,-3.40,-3.40,5.32
25.14,-9.23,-14.54,-9.24,-14.55,6.00,5.86,5.07,-3.23,-3.24,5.31
25.39,-9.10,-14.41,-9.10,-14.40,6.00,5.86,5.20,-3.10,-3.10,5.31
25.65,-9.00,-14.31,-9.00,-14.31,6.00,5.85,5.33,-3.00,-3.00,5.31
25.91,-8.94,-14.25,-8.95,-14.26,6.00,5.85,5.46,-2.94,-2.95,5.30
26.16,-8.93,-14.24,-8.93,-14.24,6.00,5.84,5.59,-2.93,-2.93,5.31
26.43,-8.93,-14.24,-8.93,-14.24,6.00,5.84,5.72,-2.93,-2.93,5.31
26.69,-8.93,-14.23,-8.92,-14.23,6.00,5.83,5.85,-2.93,-2.92,5.30
26.96,-8.90,-14.20,-8.90,-14.20,6.00,5.83,5.98,-2.90,-2.90,5.30
27.23,-8.84,-14.14,-8.84,-14.14,6.00,5.82,6.11,-2.84,-2.84,5.30
27.50,-8.76,-14.06,-8.75,-14.05,6.00,5.82,6.23,-2.76,-2.75,5.30
27.77,-8.61,-13.91,-8.61,-13.91,6.00,5.82,6.35,-2.61,-2.61,5.31
28.05,-8.44,-13.74,-8.44,-13.74,6.00,5.82,6.47,-2.44,-2.44,5.30
28.33,-8.27,-13.56,-8.27,-13.57,6.00,5.81,6.58,-2.27,-2.27,5.29
28.62,-8.10,-13.40,-8.11,-13.40,6.00,5.81,6.68,-2.10,-2.11,5.29
28.90,-7.96,-13.26,-7.96,-13.25,6.00,5.81,6.78,-1.96,-1.96,5.30
29.19,-7.82,-13.12,-7.83,-13.12,6.00,5.81,6.87,-1.82,-1.83,5.30
29.48,-7.72,-13.01,-7.72,-13.01,6.00,5.81,6.95,-1.72,-1.72,5.29
29.78,-7.63,-12.92,-7.63,-12.92,6.00,5.81,7.03,-1.63,-1.63,5.28
30.08,-7.55,-12.84,-7.55,-12.83,6.00,5.82,7.09,-1.55,-1.55,5.29
30.38,-7.46,-12.74,-7.46,-12.75,6.00,5.82,7.15,-1.46,-1.46,5.28
30.68,-7.37,-12.66,-7.37,-12.66,6.00,5.82,7.19,-1.37,-1.37,5.29
30.99,-7.27,-12.56,-7.27,-12.56,6.00,5.82,7.23,-1.27,-1.27,5.29
31.30,-7.16,-12.45,-7.16,-12.45,6.00,5.83,7.25,-1.16,-1.16,5.28
31.61,-7.05,-12.34,-7.05,-12.34,6.00,5.83,7.27,-1.05,-1.05,5.29
31.93,-6.94,-12.22,-6.94,-12.23,6.00,5.84,7.27,-0.94,-0.94,5.28
32.24,-6.83,-12.12,-6.83,-12.12,6.00,5.85,7.26,-0.83,-0.83,5.29
32.57,-6.73,-12.02,-6.73,-12.02,6.00,5.85,7.24,-0.73,-0.73,5.29
32.89,-6.64,-11.92,-6.64,-11.92,6.00,5.86,7.22,-0.64,-0.64,5.28
33.22,-6.54,-11.82,-6.54,-11.82,6.00,5.87,7.18,-0.54,-0.54,5.28
33.55,-6.45,-11.73,-6.45,-11.72,6.00,5.88,7.14,-0.45,-0.45,5.28
33.89,-6.34,-11.62,-6.34,-11.61,6.00,5.89,7.08,-0.34,-0.34,5.27
34.23,-6.23,-11.49,-6.23,-11.49,6.00,5.90,7.03,-0.23,-0.23,5.26
34.57,-6.11,-11.36,-6.12,-11.37,6.00,5.91,6.96,-0.11,-0.12,5.25
34.92,-6.01,-11.25,-6.01,-11.24,6.00,5.92,6.90,-0.01,-0.01,5.24
35.27,-5.90,-11.13,-5.90,-11.13,6.00,5.94,6.82,0.10,0.10,5.23
35.62,-5.80,-11.00,-5.81,-11.01,6.00,5.95,6.75,0.20,0.19,5.20
35.97,-5.72,-10.90,-5.72,-10.90,6.00,5.96,6.67,0.28,0.28,5.18
36.33,-5.63,-10.79,-5.63,-10.79,6.00,5.98,6.58,0.37,0.37,5.16
36.70,-5.55,-10.69,-5.55,-10.68,6.00,5.99,6.50,0.45,0.45,5.14
37.06,-5.45,-10.56,-5.45,-10.56,6.00,6.01,6.42,0.55,0.55,5.11
37.43,-5.36,-10.45,-5.36,-10.45,6.00,6.03,6.34,0.64,0.64,5.09
37.81,-5.25,-10.32,-5.26,-10.33,6.00,6.04,6.25,0.75,0.74,5.06
38.19,-5.16,-10.21,-5.16,-10.20,6.00,6.06,6.17,0.84,0.84,5.05
38.57,-5.06,-10.09,-5.06,-10.08,6.00,6.08,6.09,0.94,0.94,5.03
38.95,-4.95,-9.95,-4.96,-9.96,6.00,6.09,6.01,1.05,1.04,5.00
39.34,-4.86,-9.83,-4.86,-9.83,6.00,6.11,5.94,1.14,1.14,4.97
39.74,-4.76,-9.71,-4.76,-9.71,6.00,6.13,5.86,1.24,1.24,4.95
40.14,-4.66,-9.60,-4.66,-9.60,6.00,6.15,5.79,1.34,1.34,4.93
40.54,-4.57,-9.49,-4.57,-9.48,6.00,6.16,5.73,1.43,1.43,4.92
40.94,-4.47,-9.36,-4.47,-9.37,6.00,6.18,5.66,1.53,1.53,4.89
41.35,-4.38,-9.26,-4.38,-9.26,6.00,6.20,5.60,1.62,1.62,4.88
41.76,-4.29,-9.14,-4.29,-9.14,6.00,6.21,5.55,1.71,1.71,4.85
42.18,-4.21,-9.04,-4.21,-9.04,6.00,6.23,5.50,1.79,1.79,4.83
42.60,-4.13,-8.94,-4.13,-8.94,6.00,6.24,5.45,1.87,1.87,4.81
43.03,-4.05,-8.84,-4.05,-8.84,6.00,6.25,5.40,1.95,1.95,4.79
43.46,-3.97,-8.73,-3.97,-8.74,6.00,6.26,5.36,2.03,2.03,4.76
43.90,-3.90,-8.65,-3.90,-8.64,6.00,6.27,5.33,2.10,2.10,4.75
44.33,-3.83,-8.55,-3.83,-8.55,6.00,6.27,5.29,2.17,2.17,4.72
44.78,-3.75,-8.45,-3.75,-8.46,6.00,6.28,5.26,2.25,2.25,4.70
45.23,-3.67,-8.36,-3.67,-8.35,6.00,6.28,5.24,2.33,2.33,4.69
45.68,-3.58,-8.23,-3.58,-8.24,6.00,6.28,5.22,2.42,2.42,4.65
46.13,-3.49,-8.11,-3.50,-8.12,6.00,6.27,5.20,2.51,2.50,4.62
46.60,-3.41,-8.01,-3.41,-8.01,6.00,6.26,5.19,2.59,2.59,4.59
47.06,-3.32,-7.90,-3.32,-7.89,6.00,6.25,5.18,2.68,2.68,4.58
47.53,-3.23,-7.78,-3.23,-7.77,6.00,6.24,5.18,2.77,2.77,4.55
48.01,-3.15,-7.65,-3.15,-7.65,6.00,6.22,5.18,2.85,2.85,4.50
48.49,-3.07,-7.54,-3.07,-7.53,6.00,6.20,5.18,2.93,2.93,4.46
48.97,-2.99,-7.41,-2.99,-7.41,6.00,6.17,5.18,3.01,3.01,4.42
49.46,-2.90,-7.29,-2.90,-7.29,6.00,6.14,5.19,3.10,3.10,4.39
49.96,-2.82,-7.15,-2.82,-7.16,6.00,6.11,5.20,3.18,3.18,4.33
50.46,-2.75,-7.05,-2.75,-7.05,6.00,6.07,5.21,3.25,3.25,4.30
50.96,-2.67,-6.94,-2.67,-6.93,6.00,6.03,5.23,3.33,3.33,4.27
51.47,-2.59,-6.82,-2.59,-6.82,6.00,5.98,5.25,3.41,3.41,4.23
51.99,-2.51,-6.70,-2.51,-6.70,6.01,5.93,5.26,3.50,3.50,4.19
52.51,-2.43,-6.59,-2.43,-6.59,6.02,5.88,5.28,3.59,3.59,4.15
53.03,-2.35,-6.47,-2.35,-6.47,6.02,5.82,5.30,3.67,3.67,4.12
53.56,-2.27,-6.35,-2.27,-6.34,6.01,5.76,5.32,3.74,3.75,4.08
54.10,-2.17,-6.20,-2.17,-6.21,5.99,5.69,5.34,3.82,3.81,4.03
54.64,-2.08,-6.08,-2.08,-6.07,5.94,5.62,5.36,3.86,3.86,3.99
55.18,-1.98,-5.94,-1.98,-5.94,5.88,5.55,5.37,3.90,3.89,3.96
55.74,-1.89,-5.81,-1.89,-5.82,5.79,5.47,5.39,3.90,3.90,3.92
56.29,-1.79,-5.68,-1.79,-5.68,5.69,5.40,5.40,3.90,3.90,3.89
56.86,-1.69,-5.57,-1.69,-5.55,5.57,5.31,5.41,3.88,3.88,3.87
57.42,-1.58,-5.41,-1.58,-5.42,5.44,5.23,5.41,3.86,3.86,3.83
58.00,-1.48,-5.28,-1.48,-5.28,5.31,5.14,5.41,3.83,3.83,3.80
58.58,-1.39,-5.17,-1.39,-5.17,5.18,5.06,5.41,3.79,3.79,3.78
59.16,-1.31,-5.06,-1.31,-5.06,5.06,4.96,5.40,3.75,3.75,3.75
59.76,-1.24,-4.96,-1.24,-4.95,4.94,4.87,5.38,3.70,3.70,3.72
60.35,-1.17,-4.83,-1.17,-4.84,4.83,4.78,5.36,3.66,3.66,3.66
60.96,-1.11,-4.73,-1.11,-4.73,4.72,4.68,5.33,3.61,3.61,3.62
61.57,-1.05,-4.61,-1.05,-4.61,4.61,4.59,5.29,3.56,3.56,3.56
62.18,-1.00,-4.50,-1.00,-4.50,4.51,4.49,5.25,3.51,3.51,3.50
62.80,-0.94,-4.40,-0.94,-4.40,4.40,4.39,5.20,3.46,3.46,3.46
63.43,-0.87,-4.29,-0.87,-4.29,4.29,4.29,5.14,3.42,3.42,3.41
64.07,-0.81,-4.19,-0.81,-4.19,4.19,4.19,5.07,3.37,3.38,3.38
64.71,-0.74,-4.08,-0.74,-4.08,4.08,4.09,5.00,3.34,3.34,3.34
65.35,-0.68,-3.97,-0.68,-3.98,3.98,3.99,4.92,3.29,3.30,3.29
66.01,-0.61,-3.87,-0.61,-3.87,3.87,3.89,4.83,3.26,3.26,3.26
66.67,-0.54,-3.77,-0.55,-3.77,3.77,3.79,4.74,3.23,3.22,3.23
67.33,-0.49,-3.67,-0.48,-3.66,3.67,3.69,4.64,3.18,3.18,3.18
68.01,-0.42,-3.56,-0.42,-3.56,3.56,3.59,4.54,3.14,3.14,3.14
68.69,-0.36,-3.46,-0.36,-3.46,3.46,3.49,4.43,3.10,3.10,3.10
69.37,-0.29,-3.35,-0.29,-3.36,3.35,3.39,4.31,3.06,3.06,3.06
70.07,-0.23,-3.26,-0.23,-3.26,3.25,3.29,4.19,3.02,3.02,3.03
70.77,-0.16,-3.15,-0.16,-3.15,3.14,3.19,4.07,2.98,2.98,2.99
71.48,-0.09,-3.03,-0.09,-3.04,3.03,3.09,3.94,2.94,2.94,2.94
72.19,-0.02,-2.92,-0.02,-2.92,2.92,2.99,3.81,2.90,2.90,2.90
72.91,0.05,-2.80,0.04,-2.81,2.81,2.88,3.68,2.86,2.86,2.85
73.64,0.11,-2.70,0.11,-2.70,2.70,2.78,3.55,2.81,2.81,2.80
74.38,0.17,-2.60,0.18,-2.59,2.59,2.68,3.41,2.76,2.77,2.77
75.12,0.25,-2.48,0.25,-2.48,2.48,2.59,3.27,2.73,2.73,2.73
75.87,0.32,-2.38,0.32,-2.38,2.38,2.49,3.13,2.70,2.69,2.70
76.63,0.39,-2.27,0.39,-2.27,2.27,2.39,3.00,2.66,2.66,2.66
77.40,0.46,-2.18,0.46,-2.17,2.17,2.29,2.86,2.63,2.63,2.64
78.17,0.54,-2.06,0.54,-2.06,2.07,2.19,2.72,2.61,2.60,2.60
78.95,0.61,-1.96,0.61,-1.96,1.96,2.09,2.58,2.57,2.57,2.57
79.74,0.69,-1.86,0.68,-1.86,1.86,1.99,2.44,2.55,2.55,2.55
80.54,0.75,-1.77,0.76,-1.76,1.76,1.89,2.30,2.51,2.52,2.52
81.35,0.83,-1.65,0.83,-1.66,1.66,1.80,2.16,2.49,2.49,2.48
82.16,0.90,-1.57,0.90,-1.56,1.56,1.70,2.02,2.46,2.46,2.47
82.98,0.97,-1.46,0.97,-1.46,1.46,1.60,1.88,2.43,2.43,2.43
83.81,1.04,-1.36,1.04,-1.37,1.37,1.50,1.74,2.41,2.40,2.40
84.65,1.10,-1.27,1.10,-1.27,1.27,1.41,1.60,2.37,2.37,2.36
85.50,1.16,-1.18,1.16,-1.18,1.18,1.31,1.47,2.34,2.34,2.34
86.35,1.23,-1.08,1.22,-1.08,1.09,1.22,1.33,2.31,2.31,2.31
87.22,1.28,-1.01,1.28,-1.00,0.99,1.12,1.20,2.27,2.28,2.29
88.09,1.35,-0.90,1.34,-0.91,0.90,1.02,1.06,2.25,2.25,2.25
88.97,1.40,-0.83,1.40,-0.82,0.81,0.93,0.93,2.21,2.21,2.23
89.86,1.47,-0.72,1.47,-0.72,0.72,0.83,0.80,2.19,2.19,2.18
90.76,1.53,-0.63,1.53,-0.63,0.63,0.74,0.66,2.16,2.16,2.16
91.66,1.59,-0.53,1.59,-0.54,0.55,0.64,0.53,2.14,2.13,2.12
92.58,1.64,-0.46,1.64,-0.46,0.46,0.55,0.40,2.10,2.10,2.10
93.51,1.69,-0.37,1.69,-0.38,0.37,0.46,0.27,2.06,2.06,2.06
94.44,1.74,-0.30,1.74,-0.30,0.29,0.36,0.14,2.03,2.03,2.04
95.39,1.78,-0.22,1.78,-0.21,0.21,0.27,0.01,1.99,1.99,1.99
96.34,1.83,-0.12,1.83,-0.13,0.12,0.18,-0.11,1.95,1.95,1.95
97.30,1.87,-0.05,1.87,-0.04,0.04,0.09,-0.24,1.91,1.91,1.91
98.28,1.92,0.05,1.91,0.05,-0.04,-0.01,-0.37,1.88,1.87,1.87
99.26,1.95,0.13,1.95,0.13,-0.12,-0.10,-0.49,1.82,1.83,1.82
100.25,2.00,0.21,2.00,0.21,-0.21,-0.19,-0.61,1.79,1.79,1.79
101.25,2.05,0.29,2.05,0.29,-0.29,-0.28,-0.74,1.75,1.75,1.76
102.27,2.10,0.37,2.10,0.37,-0.38,-0.37,-0.86,1.72,1.72,1.73
103.29,2.15,0.46,2.15,0.46,-0.47,-0.46,-0.98,1.68,1.69,1.69
104.32,2.21,0.56,2.21,0.55,-0.55,-0.55,-1.10,1.66,1.65,1.65
105.37,2.26,0.64,2.26,0.64,-0.64,-0.63,-1.21,1.62,1.62,1.62
106.42,2.31,0.72,2.31,0.73,-0.72,-0.72,-1.33,1.59,1.59,1.59
107.48,2.36,0.82,2.36,0.81,-0.81,-0.81,-1.44,1.55,1.55,1.54
108.56,2.41,0.89,2.41,0.89,-0.89,-0.89,-1.55,1.52,1.52,1.52
109.64,2.45,0.97,2.45,0.97,-0.97,-0.98,-1.66,1.48,1.48,1.48
110.74,2.50,1.05,2.50,1.05,-1.06,-1.06,-1.76,1.44,1.44,1.45
111.85,2.55,1.14,2.55,1.14,-1.14,-1.15,-1.87,1.41,1.41,1.41
112.97,2.59,1.22,2.59,1.22,-1.22,-1.23,-1.96,1.37,1.37,1.36
114.10,2.63,1.30,2.63,1.30,-1.30,-1.31,-2.06,1.33,1.32,1.33
115.24,2.66,1.38,2.66,1.39,-1.39,-1.39,-2.15,1.27,1.27,1.27
116.39,2.70,1.48,2.70,1.47,-1.47,-1.47,-2.24,1.22,1.22,1.22
117.55,2.73,1.56,2.73,1.56,-1.56,-1.55,-2.32,1.17,1.17,1.17
118.73,2.76,1.65,2.76,1.65,-1.65,-1.63,-2.40,1.11,1.11,1.11
119.92,2.80,1.74,2.80,1.74,-1.74,-1.71,-2.47,1.06,1.06,1.06
121.12,2.84,1.82,2.84,1.83,-1.83,-1.78,-2.54,1.01,1.01,1.02
122.33,2.88,1.93,2.88,1.92,-1.92,-1.86,-2.60,0.95,0.95,0.95
123.55,2.92,2.02,2.92,2.01,-2.02,-1.93,-2.66,0.90,0.90,0.90
124.79,2.95,2.11,2.95,2.11,-2.11,-2.00,-2.71,0.84,0.84,0.84
126.03,2.98,2.20,2.98,2.20,-2.20,-2.08,-2.76,0.77,0.78,0.78
127.29,3.02,2.30,3.02,2.30,-2.29,-2.15,-2.79,0.72,0.72,0.72
128.57,3.05,2.39,3.05,2.39,-2.38,-2.22,-2.83,0.67,0.66,0.66
129.85,3.07,2.47,3.07,2.47,-2.46,-2.28,-2.86,0.61,0.61,0.60
131.15,3.09,2.54,3.09,2.54,-2.54,-2.35,-2.89,0.55,0.55,0.54
132.46,3.11,2.61,3.11,2.61,-2.61,-2.42,-2.91,0.50,0.50,0.50
133.79,3.13,2.68,3.13,2.68,-2.68,-2.48,-2.93,0.45,0.45,0.45
135.12,3.14,2.73,3.14,2.73,-2.73,-2.54,-2.95,0.40,0.41,0.40
136.48,3.16,2.78,3.16,2.79,-2.79,-2.61,-2.96,0.37,0.37,0.38
137.84,3.18,2.84,3.17,2.84,-2.84,-2.67,-2.97,0.34,0.33,0.34
139.22,3.18,2.89,3.18,2.88,-2.88,-2.73,-2.97,0.29,0.30,0.29
140.61,3.19,2.92,3.19,2.93,-2.93,-2.79,-2.98,0.26,0.27,0.27
142.02,3.21,2.97,3.20,2.97,-2.97,-2.84,-2.98,0.24,0.24,0.24
143.44,3.22,3.01,3.22,3.01,-3.00,-2.90,-2.98,0.21,0.21,0.21
144.87,3.22,3.03,3.22,3.04,-3.04,-2.95,-2.97,0.18,0.18,0.19
146.32,3.23,3.07,3.23,3.07,-3.07,-3.01,-2.97,0.15,0.15,0.16
147.78,3.23,3.10,3.23,3.10,-3.11,-3.06,-2.97,0.12,0.12,0.13
149.26,3.24,3.14,3.24,3.14,-3.14,-3.11,-2.96,0.10,0.09,0.10
150.75,3.24,3.18,3.24,3.18,-3.18,-3.16,-2.96,0.06,0.06,0.06
152.26,3.26,3.21,3.26,3.22,-3.21,-3.21,-2.96,0.04,0.04,0.05
153.78,3.26,3.25,3.26,3.25,-3.25,-3.26,-2.95,0.01,0.01,0.01
155.32,3.28,3.29,3.27,3.29,-3.29,-3.30,-2.95,-0.01,-0.02,-0.01
156.88,3.27,3.32,3.28,3.33,-3.33,-3.35,-2.95,-0.06,-0.05,-0.05
158.44,3.28,3.37,3.28,3.36,-3.36,-3.39,-2.95,-0.08,-0.09,-0.09
160.03,3.28,3.40,3.27,3.40,-3.40,-3.43,-2.95,-0.12,-0.13,-0.12
161.63,3.27,3.42,3.27,3.43,-3.43,-3.47,-2.95,-0.17,-0.16,-0.16
163.24,3.27,3.47,3.27,3.47,-3.47,-3.51,-2.96,-0.20,-0.20,-0.20
164.88,3.27,3.51,3.27,3.50,-3.50,-3.55,-2.97,-0.23,-0.23,-0.24
166.53,3.27,3.54,3.26,3.54,-3.53,-3.59,-2.97,-0.26,-0.27,-0.28
168.19,3.25,3.55,3.26,3.56,-3.56,-3.62,-2.99,-0.31,-0.30,-0.30
169.87,3.25,3.59,3.25,3.59,-3.59,-3.66,-3.00,-0.34,-0.34,-0.34
171.57,3.24,3.61,3.24,3.61,-3.62,-3.69,-3.01,-0.38,-0.38,-0.37
173.29,3.24,3.64,3.24,3.65,-3.65,-3.72,-3.03,-0.41,-0.41,-0.40
175.02,3.24,3.68,3.24,3.67,-3.68,-3.76,-3.05,-0.44,-0.44,-0.44
176.77,3.24,3.71,3.24,3.71,-3.71,-3.79,-3.07,-0.47,-0.47,-0.47
178.54,3.24,3.74,3.24,3.75,-3.75,-3.81,-3.10,-0.51,-0.51,-0.50
180.32,3.25,3.79,3.25,3.79,-3.79,-3.84,-3.13,-0.54,-0.54,-0.54
182.13,3.25,3.82,3.25,3.83,-3.82,-3.87,-3.16,-0.57,-0.57,-0.57
183.95,3.26,3.87,3.26,3.86,-3.86,-3.90,-3.19,-0.60,-0.60,-0.61
185.79,3.26,3.90,3.26,3.90,-3.89,-3.92,-3.23,-0.64,-0.63,-0.64
187.65,3.26,3.93,3.26,3.93,-3.93,-3.95,-3.26,-0.67,-0.67,-0.67
189.52,3.26,3.97,3.26,3.96,-3.96,-3.97,-3.30,-0.70,-0.70,-0.71
191.42,3.25,3.98,3.25,3.99,-3.99,-3.99,-3.34,-0.74,-0.74,-0.73
193.33,3.25,4.02,3.25,4.02,-4.02,-4.01,-3.39,-0.77,-0.77,-0.77
195.27,3.24,4.04,3.24,4.04,-4.04,-4.03,-3.44,-0.80,-0.80,-0.81
197.22,3.23,4.07,3.23,4.07,-4.06,-4.05,-3.48,-0.83,-0.84,-0.84
199.19,3.21,4.08,3.22,4.09,-4.08,-4.07,-3.53,-0.88,-0.87,-0.87
201.18,3.21,4.11,3.21,4.10,-4.10,-4.09,-3.58,-0.90,-0.90,-0.90
203.19,3.20,4.12,3.20,4.12,-4.12,-4.10,-3.64,-0.92,-0.92,-0.92
205.23,3.19,4.14,3.19,4.14,-4.14,-4.12,-3.69,-0.95,-0.95,-0.95
207.28,3.18,4.15,3.18,4.15,-4.16,-4.13,-3.74,-0.98,-0.98,-0.97
209.35,3.16,4.17,3.16,4.17,-4.17,-4.14,-3.80,-1.01,-1.01,-1.01
211.44,3.15,4.18,3.15,4.18,-4.18,-4.16,-3.85,-1.03,-1.03,-1.03
213.56,3.14,4.19,3.14,4.19,-4.20,-4.17,-3.91,-1.06,-1.06,-1.06
215.69,3.13,4.21,3.13,4.21,-4.20,-4.18,-3.96,-1.08,-1.08,-1.08
217.85,3.11,4.21,3.11,4.21,-4.21,-4.19,-4.02,-1.10,-1.10,-1.10
220.03,3.09,4.22,3.09,4.22,-4.21,-4.20,-4.07,-1.12,-1.13,-1.13
222.23,3.06,4.22,3.06,4.22,-4.21,-4.21,-4.12,-1.16,-1.15,-1.16
224.45,3.04,4.22,3.04,4.21,-4.21,-4.22,-4.17,-1.17,-1.18,-1.18
226.70,3.01,4.21,3.01,4.20,-4.21,-4.23,-4.22,-1.20,-1.20,-1.20
228.96,2.98,4.19,2.98,4.20,-4.20,-4.23,-4.26,-1.22,-1.22,-1.21
231.25,2.96,4.19,2.96,4.19,-4.19,-4.24,-4.31,-1.23,-1.24,-1.23
233.57,2.93,4.18,2.93,4.18,-4.18,-4.24,-4.34,-1.25,-1.25,-1.25
235.90,2.90,4.18,2.90,4.18,-4.17,-4.25,-4.38,-1.27,-1.27,-1.28
238.26,2.87,4.17,2.87,4.16,-4.16,-4.25,-4.41,-1.29,-1.29,-1.30
240.64,2.84,4.14,2.84,4.14,-4.14,-4.25,-4.44,-1.30,-1.30,-1.30
243.05,2.81,4.13,2.81,4.13,-4.13,-4.26,-4.46,-1.32,-1.32,-1.32
245.48,2.78,4.11,2.78,4.11,-4.12,-4.26,-4.48,-1.34,-1.34,-1.34
247.93,2.75,4.10,2.75,4.10,-4.10,-4.26,-4.49,-1.35,-1.35,-1.35
250.41,2.73,4.09,2.73,4.09,-4.09,-4.26,-4.50,-1.36,-1.36,-1.36
252.92,2.70,4.07,2.70,4.07,-4.08,-4.26,-4.50,-1.38,-1.37,-1.37
255.45,2.68,4.07,2.68,4.06,-4.06,-4.26,-4.50,-1.38,-1.38,-1.39
258.00,2.66,4.05,2.66,4.05,-4.05,-4.26,-4.49,-1.39,-1.39,-1.39
260.58,2.64,4.04,2.64,4.04,-4.04,-4.26,-4.48,-1.40,-1.40,-1.40
263.19,2.61,4.03,2.61,4.03,-4.02,-4.25,-4.46,-1.42,-1.41,-1.42
265.82,2.59,4.01,2.59,4.01,-4.01,-4.25,-4.44,-1.42,-1.43,-1.42
268.48,2.56,4.00,2.56,4.00,-4.00,-4.25,-4.42,-1.44,-1.44,-1.44
271.16,2.54,3.98,2.54,3.98,-3.99,-4.24,-4.39,-1.45,-1.45,-1.44
273.87,2.51,3.97,2.51,3.97,-3.97,-4.24,-4.36,-1.46,-1.46,-1.46
276.61,2.49,3.96,2.49,3.96,-3.96,-4.23,-4.33,-1.47,-1.47,-1.48
279.38,2.46,3.95,2.46,3.95,-3.94,-4.23,-4.29,-1.49,-1.48,-1.49
282.17,2.44,3.94,2.44,3.93,-3.93,-4.22,-4.25,-1.49,-1.49,-1.50
284.99,2.41,3.91,2.41,3.91,-3.92,-4.21,-4.21,-1.51,-1.50,-1.50
287.84,2.39,3.89,2.39,3.89,-3.90,-4.21,-4.17,-1.51,-1.51,-1.50
290.72,2.37,3.89,2.36,3.88,-3.88,-4.20,-4.13,-1.51,-1.52,-1.52
293.63,2.34,3.86,2.34,3.87,-3.86,-4.19,-4.09,-1.52,-1.52,-1.52
296.57,2.32,3.85,2.32,3.85,-3.84,-4.18,-4.05,-1.52,-1.52,-1.53
299.53,2.30,3.83,2.29,3.83,-3.83,-4.17,-4.01,-1.53,-1.53,-1.53
302.53,2.27,3.81,2.27,3.81,-3.81,-4.16,-3.97,-1.54,-1.54,-1.54
305.55,2.25,3.79,2.25,3.79,-3.79,-4.15,-3.93,-1.54,-1.54,-1.54
308.61,2.23,3.76,2.23,3.77,-3.77,-4.14,-3.89,-1.54,-1.54,-1.53
311.69,2.21,3.75,2.21,3.75,-3.75,-4.13,-3.85,-1.55,-1.54,-1.54
314.81,2.20,3.74,2.20,3.74,-3.74,-4.12,-3.81,-1.54,-1.54,-1.54
317.96,2.18,3.72,2.18,3.73,-3.72,-4.10,-3.78,-1.54,-1.54,-1.54
321.14,2.18,3.72,2.17,3.71,-3.71,-4.09,-3.75,-1.53,-1.54,-1.54
324.35,2.16,3.70,2.16,3.70,-3.70,-4.08,-3.72,-1.54,-1.54,-1.54
327.59,2.15,3.67,2.15,3.68,-3.68,-4.06,-3.69,-1.54,-1.53,-1.52
330.87,2.14,3.68,2.14,3.67,-3.67,-4.05,-3.66,-1.53,-1.54,-1.54
334.18,2.13,3.67,2.13,3.66,-3.66,-4.03,-3.64,-1.53,-1.53,-1.54
337.52,2.12,3.65,2.12,3.66,-3.65,-4.02,-3.62,-1.53,-1.53,-1.53
340.90,2.12,3.64,2.11,3.64,-3.64,-4.00,-3.60,-1.52,-1.53,-1.52
344.30,2.11,3.64,2.11,3.63,-3.64,-3.99,-3.59,-1.53,-1.53,-1.53
347.75,2.10,3.62,2.11,3.63,-3.63,-3.97,-3.57,-1.53,-1.53,-1.52
351.23,2.11,3.64,2.10,3.63,-3.63,-3.95,-3.56,-1.52,-1.53,-1.53
354.74,2.11,3.62,2.11,3.63,-3.63,-3.93,-3.56,-1.52,-1.52,-1.51
358.28,2.11,3.64,2.11,3.64,-3.63,-3.92,-3.55,-1.52,-1.52,-1.53
361.87,2.12,3.65,2.11,3.64,-3.64,-3.90,-3.55,-1.52,-1.52,-1.53
365.49,2.12,3.64,2.12,3.64,-3.64,-3.88,-3.55,-1.52,-1.52,-1.52
369.14,2.12,3.64,2.12,3.65,-3.65,-3.86,-3.56,-1.53,-1.52,-1.52
372.83,2.13,3.65,2.12,3.65,-3.65,-3.84,-3.57,-1.52,-1.53,-1.52
376.56,2.13,3.66,2.13,3.66,-3.66,-3.82,-3.58,-1.53,-1.53,-1.54
380.33,2.13,3.66,2.13,3.66,-3.66,-3.80,-3.59,-1.53,-1.53,-1.53
384.13,2.14,3.67,2.13,3.66,-3.66,-3.78,-3.60,-1.52,-1.53,-1.53
387.97,2.14,3.66,2.14,3.66,-3.66,-3.75,-3.62,-1.53,-1.53,-1.52
391.85,2.14,3.66,2.14,3.67,-3.67,-3.73,-3.64,-1.53,-1.52,-1.52
395.77,2.15,3.67,2.15,3.67,-3.67,-3.71,-3.66,-1.52,-1.52,-1.52
399.73,2.16,3.67,2.16,3.67,-3.67,-3.69,-3.68,-1.51,-1.52,-1.51
403.72,2.16,3.67,2.16,3.67,-3.67,-3.66,-3.71,-1.51,-1.51,-1.51
407.76,2.17,3.68,2.17,3.67,-3.67,-3.64,-3.73,-1.51,-1.51,-1.51
411.84,2.17,3.68,2.17,3.68,-3.68,-3.61,-3.76,-1.51,-1.50,-1.51
415.96,2.18,3.68,2.17,3.68,-3.68,-3.59,-3.79,-1.50,-1.51,-1.50
420.12,2.17,3.68,2.17,3.68,-3.68,-3.56,-3.81,-1.51,-1.51,-1.51
424.32,2.17,3.68,2.17,3.68,-3.68,-3.54,-3.84,-1.51,-1.50,-1.51
428.56,2.18,3.67,2.17,3.68,-3.68,-3.51,-3.87,-1.50,-1.50,-1.49
432.85,2.18,3.67,2.18,3.67,-3.68,-3.48,-3.89,-1.50,-1.50,-1.49
437.18,2.17,3.67,2.17,3.67,-3.67,-3.45,-3.92,-1.51,-1.50,-1.51
441.55,2.17,3.68,2.17,3.67,-3.67,-3.43,-3.94,-1.50,-1.50,-1.51
445.96,2.16,3.67,2.16,3.67,-3.66,-3.40,-3.97,-1.50,-1.50,-1.51
450.42,2.15,3.66,2.15,3.66,-3.66,-3.37,-3.99,-1.51,-1.51,-1.51
454.93,2.14,3.65,2.14,3.65,-3.65,-3.34,-4.00,-1.51,-1.51,-1.51
459.48,2.13,3.64,2.13,3.64,-3.63,-3.31,-4.02,-1.50,-1.50,-1.51
464.07,2.12,3.62,2.12,3.62,-3.62,-3.28,-4.03,-1.50,-1.50,-1.50
468.71,2.11,3.60,2.11,3.60,-3.61,-3.25,-4.04,-1.50,-1.50,-1.49
473.40,2.10,3.59,2.10,3.59,-3.59,-3.22,-4.04,-1.50,-1.50,-1.49
478.13,2.08,3.57,2.09,3.58,-3.58,-3.18,-4.04,-1.50,-1.49,-1.49
482.91,2.08,3.57,2.07,3.57,-3.57,-3.15,-4.03,-1.49,-1.49,-1.49
