frequency,raw,error,smoothed,error_smoothed,equalization,parametric_eq,fixed_band_eq,equalized_raw,equalized_smoothed,target
20.00,-6.57,-5.91,-6.59,-5.93,6.01,5.63,1.54,-0.56,-0.58,-0.66
20.20,-6.56,-5.90,-6.53,-5.87,5.88,5.58,1.58,-0.68,-0.65,-0.66
20.40,-6.47,-5.81,-6.45,-5.79,5.75,5.52,1.63,-0.72,-0.70,-0.66
20.61,-6.35,-5.69,-6.35,-5.69,5.62,5.46,1.68,-0.73,-0.73,-0.66
20.81,-6.21,-5.55,-6.20,-5.54,5.50,5.40,1.73,-0.70,-0.70,-0.66
21.02,-6.05,-5.39,-6.06,-5.40,5.38,5.34,1.78,-0.67,-0.68,-0.66
21.23,-5.92,-5.26,-5.93,-5.27,5.27,5.28,1.83,-0.65,-0.66,-0.66
21.44,-5.81,-5.15,-5.80,-5.14,5.15,5.22,1.89,-0.65,-0.65,-0.66
21.66,-5.70,-5.04,-5.69,-5.03,5.03,5.16,1.94,-0.67,-0.66,-0.66
21.87,-5.56,-4.90,-5.57,-4.91,4.91,5.09,2.00,-0.64,-0.65,-0.66
22.09,-5.46,-4.80,-5.46,-4.80,4.81,5.03,2.06,-0.65,-0.65,-0.66
22.31,-5.36,-4.70,-5.36,-4.70,4.72,4.97,2.12,-0.64,-0.64,-0.66
22.54,-5.29,-4.63,-5.29,-4.63,4.63,4.90,2.18,-0.65,-0.65,-0.66
22.76,-5.23,-4.57,-5.22,-4.56,4.56,4.84,2.25,-0.67,-0.66,-0.66
22.99,-5.16,-4.50,-5.16,-4.50,4.49,4.78,2.31,-0.67,-0.67,-0.66
23.22,-5.10,-4.44,-5.09,-4.43,4.43,4.71,2.38,-0.67,-0.66,-0.66
23.45,-5.02,-4.36,-5.03,-4.37,4.37,4.65,2.45,-0.65,-0.66,-0.66
23.69,-4.98,-4.32,-4.98,-4.32,4.32,4.59,2.52,-0.66,-0.66,-0.66
23.92,-4.93,-4.27,-4.92,-4.26,4.27,4.52,2.59,-0.66,-0.66,-0.66
24.16,-4.88,-4.22,-4.88,-4.22,4.21,4.46,2.66,-0.66,-0.66,-0.66
24.40,-4.82,-4.16,-4.82,-4.16,4.16,4.40,2.74,-0.65,-0.66,-0.66
24.65,-4.77,-4.11,-4.77,-4.11,4.11,4.33,2.81,-0.66,-0.66,-0.66
24.89,-4.72,-4.06,-4.72,-4.06,4.06,4.27,2.89,-0.66,-0.66,-0.66
25.14,-4.69,-4.03,-4.67,-4.01,4.00,4.21,2.96,-0.68,-0.67,-0.66
25.39,-4.61,-3.95,-4.62,-3.96,3.95,4.15,3.04,-0.66,-0.67,-0.66
25.65,-4.55,-3.89,-4.55,-3.90,3.89,4.09,3.12,-0.66,-0.66,-0.66
25.91,-4.50,-3.84,-4.49,-3.83,3.83,4.03,3.19,-0.67,-0.66,-0.66
26.16,-4.43,-3.77,-4.43,-3.77,3.78,3.97,3.27,-0.65,-0.65,-0.66
26.43,-4.37,-3.71,-4.37,-3.71,3.72,3.91,3.34,-0.65,-0.65,-0.66
26.69,-4.32,-3.66,-4.32,-3.66,3.67,3.85,3.42,-0.65,-0.65,-0.66
26.96,-4.28,-3.62,-4.27,-3.61,3.62,3.79,3.49,-0.66,-0.66,-0.66
27.23,-4.23,-3.57,-4.23,-3.57,3.56,3.74,3.56,-0.67,-0.66,-0.66
27.50,-4.17,-3.51,-4.18,-3.52,3.51,3.68,3.63,-0.66,-0.67,-0.66
27.77,-4.14,-3.48,-4.13,-3.47,3.46,3.62,3.70,-0.68,-0.67,-0.66
28.05,-4.08,-3.42,-4.07,-3.42,3.41,3.57,3.76,-0.67,-0.66,-0.66
28.33,-4.02,-3.36,-4.02,-3.36,3.36,3.51,3.82,-0.66,-0.66,-0.66
28.62,-3.96,-3.30,-3.96,-3.31,3.31,3.46,3.87,-0.65,-0.66,-0.66
28.90,-3.92,-3.26,-3.91,-3.25,3.26,3.41,3.93,-0.66,-0.66,-0.66
29.19,-3.87,-3.21,-3.87,-3.21,3.21,3.36,3.97,-0.66,-0.65,-0.66
29.48,-3.82,-3.16,-3.82,-3.16,3.17,3.30,4.01,-0.65,-0.65,-0.66
29.78,-3.78,-3.12,-3.78,-3.12,3.13,3.25,4.05,-0.65,-0.65,-0.66
30.08,-3.75,-3.09,-3.75,-3.09,3.09,3.20,4.08,-0.66,-0.65,-0.66
30.38,-3.72,-3.06,-3.72,-3.06,3.06,3.15,4.10,-0.66,-0.66,-0.66
30.68,-3.69,-3.03,-3.69,-3.03,3.03,3.11,4.12,-0.66,-0.66,-0.66
30.99,-3.66,-3.00,-3.66,-3.00,2.99,3.06,4.13,-0.67,-0.67,-0.66
31.30,-3.63,-2.97,-3.62,-2.96,2.95,3.01,4.13,-0.67,-0.67,-0.66
31.61,-3.58,-2.92,-3.58,-2.92,2.91,2.96,4.13,-0.66,-0.67,-0.66
31.93,-3.54,-2.88,-3.54,-2.88,2.87,2.92,4.12,-0.67,-0.66,-0.66
32.24,-3.49,-2.83,-3.49,-2.83,2.83,2.87,4.10,-0.66,-0.66,-0.66
32.57,-3.44,-2.78,-3.44,-2.78,2.79,2.83,4.08,-0.65,-0.66,-0.66
32.89,-3.40,-2.74,-3.39,-2.73,2.74,2.79,4.05,-0.66,-0.65,-0.66
33.22,-3.35,-2.69,-3.35,-2.70,2.70,2.74,4.02,-0.65,-0.65,-0.66
33.55,-3.32,-2.66,-3.32,-2.66,2.66,2.70,3.98,-0.66,-0.66,-0.66
33.89,-3.29,-2.63,-3.28,-2.63,2.63,2.66,3.93,-0.66,-0.66,-0.66
34.23,-3.25,-2.59,-3.25,-2.59,2.59,2.62,3.88,-0.66,-0.66,-0.66
34.57,-3.23,-2.57,-3.23,-2.57,2.56,2.58,3.83,-0.66,-0.66,-0.66
34.92,-3.19,-2.53,-3.19,-2.53,2.54,2.54,3.77,-0.65,-0.66,-0.66
35.27,-3.18,-2.52,-3.17,-2.51,2.51,2.50,3.71,-0.67,-0.66,-0.66
35.62,-3.13,-2.47,-3.14,-2.48,2.49,2.47,3.65,-0.64,-0.66,-0.66
35.97,-3.13,-2.47,-3.12,-2.46,2.46,2.43,3.58,-0.67,-0.66,-0.66
36.33,-3.09,-2.43,-3.09,-2.43,2.43,2.39,3.51,-0.66,-0.66,-0.66
36.70,-3.06,-2.40,-3.07,-2.41,2.40,2.36,3.44,-0.66,-0.66,-0.66
37.06,-3.04,-2.38,-3.03,-2.37,2.37,2.32,3.37,-0.67,-0.66,-0.66
37.43,-3.00,-2.34,-3.00,-2.34,2.33,2.29,3.30,-0.67,-0.67,-0.66
37.81,-2.96,-2.30,-2.96,-2.30,2.29,2.25,3.22,-0.67,-0.67,-0.66
38.19,-2.91,-2.25,-2.91,-2.25,2.24,2.22,3.15,-0.67,-0.67,-0.66
38.57,-2.86,-2.20,-2.86,-2.20,2.19,2.19,3.08,-0.67,-0.66,-0.66
38.95,-2.80,-2.14,-2.81,-2.15,2.15,2.16,3.01,-0.65,-0.66,-0.66
39.34,-2.76,-2.10,-2.75,-2.09,2.11,2.13,2.93,-0.65,-0.64,-0.66
39.74,-2.72,-2.06,-2.71,-2.05,2.07,2.10,2.86,-0.64,-0.64,-0.66
40.14,-2.67,-2.01,-2.68,-2.02,2.04,2.06,2.79,-0.63,-0.64,-0.66
40.54,-2.67,-2.01,-2.67,-2.01,2.02,2.04,2.72,-0.65,-0.65,-0.66
40.94,-2.67,-2.01,-2.66,-2.00,1.99,2.01,2.65,-0.67,-0.67,-0.66
41.35,-2.66,-2.00,-2.65,-1.99,1.97,1.98,2.59,-0.69,-0.68,-0.66
41.76,-2.62,-1.96,-2.63,-1.97,1.95,1.95,2.52,-0.67,-0.68,-0.66
42.18,-2.60,-1.94,-2.60,-1.94,1.93,1.92,2.46,-0.67,-0.67,-0.66
42.60,-2.57,-1.91,-2.56,-1.90,1.90,1.90,2.39,-0.66,-0.66,-0.66
43.03,-2.53,-1.87,-2.54,-1.88,1.88,1.87,2.33,-0.65,-0.66,-0.66
43.46,-2.50,-1.84,-2.50,-1.84,1.85,1.84,2.27,-0.65,-0.65,-0.66
43.90,-2.48,-1.82,-2.47,-1.81,1.82,1.82,2.22,-0.66,-0.65,-0.66
44.33,-2.43,-1.77,-2.44,-1.78,1.79,1.79,2.16,-0.64,-0.66,-0.66
44.78,-2.43,-1.77,-2.42,-1.76,1.76,1.77,2.11,-0.67,-0.66,-0.66
45.23,-2.39,-1.73,-2.39,-1.73,1.73,1.74,2.05,-0.66,-0.67,-0.66
45.68,-2.37,-1.71,-2.36,-1.71,1.70,1.72,2.00,-0.67,-0.67,-0.66
46.13,-2.34,-1.68,-2.33,-1.67,1.67,1.70,1.95,-0.66,-0.66,-0.66
46.60,-2.29,-1.63,-2.30,-1.64,1.65,1.68,1.90,-0.64,-0.65,-0.66
47.06,-2.29,-1.63,-2.27,-1.62,1.63,1.65,1.86,-0.66,-0.65,-0.66
47.53,-2.25,-1.59,-2.26,-1.60,1.61,1.63,1.81,-0.64,-0.66,-0.66
48.01,-2.25,-1.59,-2.25,-1.59,1.58,1.61,1.77,-0.66,-0.66,-0.66
48.49,-2.25,-1.59,-2.23,-1.57,1.57,1.59,1.73,-0.68,-0.67,-0.66
48.97,-2.20,-1.54,-2.22,-1.56,1.55,1.57,1.69,-0.65,-0.67,-0.66
49.46,-2.20,-1.54,-2.19,-1.53,1.53,1.55,1.65,-0.67,-0.66,-0.66
49.96,-2.17,-1.51,-2.17,-1.51,1.52,1.53,1.62,-0.65,-0.65,-0.66
50.46,-2.15,-1.49,-2.16,-1.50,1.50,1.51,1.58,-0.65,-0.66,-0.66
50.96,-2.15,-1.49,-2.14,-1.48,1.48,1.49,1.55,-0.67,-0.66,-0.66
51.47,-2.13,-1.47,-2.13,-1.47,1.46,1.47,1.51,-0.66,-0.67,-0.66
51.99,-2.11,-1.45,-2.11,-1.45,1.45,1.45,1.48,-0.66,-0.67,-0.66
52.51,-2.10,-1.44,-2.09,-1.43,1.43,1.44,1.45,-0.67,-0.67,-0.66
53.03,-2.06,-1.40,-2.07,-1.41,1.41,1.42,1.42,-0.65,-0.66,-0.66
53.56,-2.06,-1.40,-2.04,-1.39,1.39,1.40,1.39,-0.67,-0.66,-0.66
54.10,-2.01,-1.35,-2.02,-1.36,1.37,1.39,1.36,-0.64,-0.65,-0.66
54.64,-2.01,-1.35,-2.00,-1.34,1.35,1.37,1.34,-0.66,-0.65,-0.66
55.18,-1.99,-1.33,-1.99,-1.33,1.33,1.35,1.31,-0.66,-0.66,-0.66
55.74,-1.97,-1.31,-1.97,-1.31,1.31,1.34,1.29,-0.66,-0.66,-0.66
56.29,-1.97,-1.31,-1.95,-1.29,1.29,1.32,1.26,-0.68,-0.66,-0.66
56.86,-1.92,-1.26,-1.94,-1.28,1.27,1.31,1.24,-0.64,-0.66,-0.66
57.42,-1.92,-1.26,-1.92,-1.26,1.26,1.29,1.22,-0.66,-0.66,-0.66
58.00,-1.92,-1.26,-1.90,-1.24,1.24,1.28,1.20,-0.67,-0.65,-0.66
58.58,-1.87,-1.21,-1.89,-1.23,1.23,1.26,1.18,-0.64,-0.66,-0.66
59.16,-1.87,-1.21,-1.87,-1.22,1.22,1.25,1.15,-0.65,-0.66,-0.66
59.76,-1.87,-1.21,-1.86,-1.20,1.21,1.23,1.13,-0.66,-0.66,-0.66
60.35,-1.87,-1.21,-1.86,-1.20,1.19,1.22,1.12,-0.67,-0.66,-0.66
60.96,-1.83,-1.17,-1.84,-1.18,1.18,1.21,1.10,-0.65,-0.66,-0.66
61.57,-1.83,-1.17,-1.83,-1.17,1.17,1.20,1.08,-0.66,-0.66,-0.66
62.18,-1.83,-1.17,-1.82,-1.16,1.16,1.18,1.06,-0.67,-0.66,-0.66
62.80,-1.81,-1.15,-1.81,-1.15,1.14,1.17,1.04,-0.67,-0.67,-0.66
63.43,-1.78,-1.12,-1.79,-1.13,1.12,1.16,1.02,-0.66,-0.67,-0.66
64.07,-1.78,-1.12,-1.77,-1.11,1.10,1.15,1.01,-0.67,-0.66,-0.66
64.71,-1.73,-1.07,-1.74,-1.08,1.09,1.13,0.99,-0.64,-0.66,-0.66
65.35,-1.73,-1.07,-1.72,-1.06,1.07,1.12,0.98,-0.66,-0.65,-0.66
66.01,-1.69,-1.03,-1.70,-1.04,1.05,1.11,0.96,-0.64,-0.65,-0.66
66.67,-1.69,-1.03,-1.70,-1.04,1.03,1.10,0.94,-0.66,-0.66,-0.66
67.33,-1.69,-1.03,-1.68,-1.02,1.02,1.09,0.93,-0.67,-0.66,-0.66
68.01,-1.69,-1.03,-1.67,-1.01,1.01,1.08,0.91,-0.68,-0.66,-0.66
68.69,-1.64,-0.98,-1.66,-1.00,1.00,1.07,0.90,-0.64,-0.66,-0.66
69.37,-1.64,-0.98,-1.64,-0.98,0.99,1.06,0.89,-0.65,-0.65,-0.66
70.07,-1.64,-0.98,-1.64,-0.98,0.98,1.05,0.87,-0.66,-0.66,-0.66
70.77,-1.64,-0.98,-1.64,-0.98,0.97,1.04,0.86,-0.67,-0.67,-0.66
71.48,-1.64,-0.98,-1.62,-0.96,0.96,1.03,0.85,-0.68,-0.66,-0.66
72.19,-1.59,-0.93,-1.61,-0.95,0.95,1.02,0.83,-0.64,-0.66,-0.66
72.91,-1.59,-0.93,-1.59,-0.93,0.94,1.01,0.82,-0.65,-0.65,-0.66
73.64,-1.59,-0.93,-1.59,-0.93,0.93,1.00,0.81,-0.66,-0.66,-0.66
74.38,-1.59,-0.93,-1.59,-0.93,0.92,0.99,0.80,-0.67,-0.67,-0.66
75.12,-1.59,-0.93,-1.58,-0.92,0.91,0.99,0.79,-0.68,-0.66,-0.66
75.87,-1.55,-0.89,-1.56,-0.90,0.90,0.98,0.78,-0.64,-0.66,-0.66
76.63,-1.55,-0.89,-1.55,-0.89,0.90,0.97,0.77,-0.65,-0.65,-0.66
77.40,-1.55,-0.89,-1.55,-0.89,0.89,0.96,0.76,-0.66,-0.65,-0.66
78.17,-1.55,-0.89,-1.55,-0.89,0.89,0.95,0.75,-0.66,-0.66,-0.66
78.95,-1.55,-0.89,-1.54,-0.88,0.88,0.95,0.74,-0.67,-0.67,-0.66
79.74,-1.54,-0.88,-1.54,-0.88,0.87,0.94,0.73,-0.67,-0.67,-0.66
80.54,-1.52,-0.86,-1.52,-0.87,0.86,0.93,0.72,-0.66,-0.66,-0.66
81.35,-1.52,-0.86,-1.51,-0.85,0.86,0.92,0.72,-0.66,-0.66,-0.66
82.16,-1.50,-0.84,-1.50,-0.84,0.85,0.92,0.71,-0.65,-0.65,-0.66
82.98,-1.50,-0.84,-1.50,-0.84,0.85,0.91,0.70,-0.65,-0.65,-0.66
83.81,-1.50,-0.84,-1.50,-0.84,0.84,0.90,0.70,-0.66,-0.66,-0.66
84.65,-1.50,-0.84,-1.50,-0.84,0.84,0.90,0.69,-0.66,-0.66,-0.66
85.50,-1.50,-0.84,-1.50,-0.84,0.84,0.89,0.69,-0.66,-0.66,-0.66
86.35,-1.50,-0.84,-1.50,-0.84,0.84,0.88,0.69,-0.66,-0.66,-0.66
87.22,-1.50,-0.84,-1.50,-0.84,0.84,0.88,0.68,-0.66,-0.66,-0.66
88.09,-1.50,-0.84,-1.50,-0.84,0.83,0.87,0.68,-0.67,-0.67,-0.66
88.97,-1.50,-0.84,-1.50,-0.84,0.83,0.87,0.68,-0.67,-0.67,-0.66
89.86,-1.50,-0.84,-1.48,-0.83,0.82,0.86,0.67,-0.68,-0.66,-0.66
90.76,-1.46,-0.80,-1.47,-0.81,0.81,0.85,0.67,-0.64,-0.65,-0.66
91.66,-1.45,-0.79,-1.45,-0.79,0.81,0.85,0.67,-0.64,-0.65,-0.66
92.58,-1.45,-0.79,-1.45,-0.79,0.80,0.84,0.67,-0.65,-0.65,-0.66
93.51,-1.45,-0.79,-1.45,-0.79,0.79,0.84,0.67,-0.66,-0.66,-0.66
94.44,-1.45,-0.79,-1.44,-0.78,0.78,0.83,0.67,-0.67,-0.67,-0.66
95.39,-1.44,-0.78,-1.43,-0.77,0.76,0.83,0.67,-0.67,-0.67,-0.66
96.34,-1.41,-0.75,-1.42,-0.76,0.75,0.82,0.67,-0.66,-0.67,-0.66
97.30,-1.41,-0.75,-1.40,-0.74,0.74,0.82,0.67,-0.67,-0.66,-0.66
98.28,-1.40,-0.74,-1.39,-0.73,0.73,0.81,0.67,-0.67,-0.66,-0.66
99.26,-1.36,-0.70,-1.37,-0.71,0.72,0.81,0.67,-0.64,-0.65,-0.66
100.25,-1.36,-0.70,-1.36,-0.70,0.71,0.80,0.68,-0.65,-0.65,-0.66
101.25,-1.36,-0.70,-1.35,-0.70,0.71,0.80,0.68,-0.65,-0.65,-0.66
102.27,-1.36,-0.70,-1.36,-0.70,0.70,0.80,0.68,-0.66,-0.66,-0.66
103.29,-1.36,-0.70,-1.36,-0.70,0.70,0.79,0.69,-0.66,-0.66,-0.66
104.32,-1.36,-0.70,-1.36,-0.70,0.69,0.79,0.69,-0.67,-0.67,-0.66
105.37,-1.36,-0.70,-1.36,-0.70,0.69,0.78,0.69,-0.67,-0.67,-0.66
106.42,-1.36,-0.70,-1.35,-0.69,0.68,0.78,0.70,-0.68,-0.67,-0.66
107.48,-1.34,-0.68,-1.34,-0.68,0.68,0.78,0.70,-0.66,-0.66,-0.66
108.56,-1.32,-0.66,-1.32,-0.66,0.67,0.77,0.70,-0.65,-0.65,-0.66
109.64,-1.31,-0.65,-1.31,-0.65,0.67,0.77,0.71,-0.64,-0.64,-0.66
110.74,-1.31,-0.65,-1.31,-0.65,0.67,0.77,0.71,-0.64,-0.65,-0.66
111.85,-1.33,-0.67,-1.32,-0.66,0.67,0.76,0.71,-0.66,-0.66,-0.66
112.97,-1.34,-0.68,-1.33,-0.67,0.67,0.76,0.72,-0.67,-0.67,-0.66
114.10,-1.34,-0.68,-1.34,-0.68,0.67,0.76,0.72,-0.67,-0.68,-0.66
115.24,-1.34,-0.68,-1.34,-0.68,0.67,0.75,0.72,-0.67,-0.67,-0.66
116.39,-1.34,-0.68,-1.33,-0.67,0.67,0.75,0.73,-0.67,-0.66,-0.66
117.55,-1.31,-0.65,-1.32,-0.66,0.66,0.75,0.73,-0.65,-0.66,-0.66
118.73,-1.31,-0.65,-1.31,-0.65,0.66,0.75,0.73,-0.65,-0.65,-0.66
119.92,-1.31,-0.65,-1.31,-0.65,0.65,0.74,0.73,-0.65,-0.65,-0.66
121.12,-1.31,-0.65,-1.31,-0.65,0.65,0.74,0.74,-0.66,-0.66,-0.66
122.33,-1.31,-0.65,-1.31,-0.65,0.65,0.74,0.74,-0.66,-0.66,-0.66
123.55,-1.31,-0.65,-1.31,-0.65,0.65,0.74,0.74,-0.66,-0.66,-0.66
124.79,-1.31,-0.65,-1.31,-0.65,0.65,0.74,0.74,-0.66,-0.66,-0.66
126.03,-1.31,-0.65,-1.31,-0.65,0.65,0.73,0.74,-0.66,-0.66,-0.66
127.29,-1.31,-0.65,-1.31,-0.65,0.65,0.73,0.74,-0.66,-0.66,-0.66
128.57,-1.31,-0.65,-1.31,-0.65,0.65,0.73,0.74,-0.66,-0.66,-0.66
129.85,-1.31,-0.65,-1.31,-0.65,0.65,0.73,0.74,-0.66,-0.66,-0.66
131.15,-1.31,-0.65,-1.31,-0.65,0.65,0.73,0.74,-0.66,-0.66,-0.66
132.46,-1.31,-0.65,-1.31,-0.65,0.65,0.72,0.74,-0.66,-0.66,-0.66
133.79,-1.31,-0.65,-1.31,-0.65,0.65,0.72,0.74,-0.66,-0.66,-0.66
135.12,-1.31,-0.65,-1.31,-0.65,0.65,0.72,0.73,-0.66,-0.66,-0.66
136.48,-1.31,-0.65,-1.31,-0.65,0.64,0.72,0.73,-0.66,-0.67,-0.66
137.84,-1.31,-0.65,-1.31,-0.65,0.64,0.72,0.73,-0.67,-0.67,-0.66
139.22,-1.31,-0.65,-1.30,-0.64,0.63,0.72,0.73,-0.68,-0.67,-0.66
140.61,-1.28,-0.62,-1.29,-0.63,0.63,0.72,0.73,-0.65,-0.66,-0.66
142.02,-1.27,-0.61,-1.27,-0.61,0.62,0.72,0.72,-0.65,-0.65,-0.66
143.44,-1.27,-0.61,-1.26,-0.60,0.62,0.72,0.72,-0.65,-0.65,-0.66
144.87,-1.27,-0.61,-1.27,-0.61,0.62,0.72,0.72,-0.65,-0.65,-0.66
146.32,-1.27,-0.61,-1.27,-0.62,0.62,0.72,0.72,-0.65,-0.65,-0.66
147.78,-1.29,-0.63,-1.29,-0.63,0.62,0.71,0.71,-0.67,-0.66,-0.66
149.26,-1.30,-0.64,-1.30,-0.64,0.63,0.71,0.71,-0.67,-0.67,-0.66
150.75,-1.31,-0.65,-1.31,-0.65,0.64,0.71,0.71,-0.67,-0.67,-0.66
152.26,-1.31,-0.65,-1.31,-0.65,0.64,0.71,0.71,-0.66,-0.67,-0.66
153.78,-1.31,-0.65,-1.31,-0.65,0.65,0.71,0.71,-0.66,-0.66,-0.66
155.32,-1.31,-0.65,-1.31,-0.65,0.66,0.71,0.71,-0.65,-0.65,-0.66
156.88,-1.31,-0.65,-1.32,-0.66,0.66,0.71,0.71,-0.64,-0.65,-0.66
158.44,-1.34,-0.68,-1.33,-0.67,0.67,0.72,0.71,-0.67,-0.66,-0.66
160.03,-1.34,-0.68,-1.34,-0.68,0.68,0.72,0.71,-0.66,-0.66,-0.66
161.63,-1.34,-0.68,-1.35,-0.69,0.68,0.72,0.71,-0.66,-0.66,-0.66
163.24,-1.36,-0.70,-1.35,-0.69,0.69,0.72,0.71,-0.67,-0.66,-0.66
164.88,-1.36,-0.70,-1.36,-0.70,0.69,0.72,0.71,-0.66,-0.66,-0.66
166.53,-1.36,-0.70,-1.36,-0.70,0.70,0.72,0.72,-0.66,-0.66,-0.66
168.19,-1.36,-0.70,-1.36,-0.70,0.70,0.72,0.72,-0.66,-0.66,-0.66
169.87,-1.36,-0.70,-1.36,-0.70,0.70,0.72,0.72,-0.66,-0.66,-0.66
171.57,-1.36,-0.70,-1.36,-0.70,0.70,0.72,0.73,-0.66,-0.66,-0.66
173.29,-1.36,-0.70,-1.36,-0.70,0.70,0.72,0.73,-0.66,-0.66,-0.66
175.02,-1.36,-0.70,-1.36,-0.70,0.70,0.73,0.74,-0.66,-0.66,-0.66
176.77,-1.36,-0.70,-1.36,-0.70,0.70,0.73,0.74,-0.65,-0.65,-0.66
178.54,-1.36,-0.70,-1.36,-0.70,0.71,0.73,0.75,-0.65,-0.65,-0.66
180.32,-1.36,-0.70,-1.37,-0.71,0.72,0.73,0.75,-0.64,-0.65,-0.66
182.13,-1.39,-0.73,-1.39,-0.73,0.72,0.73,0.76,-0.67,-0.66,-0.66
183.95,-1.41,-0.75,-1.40,-0.74,0.73,0.74,0.77,-0.68,-0.67,-0.66
185.79,-1.41,-0.75,-1.41,-0.75,0.74,0.74,0.78,-0.67,-0.67,-0.66
187.65,-1.41,-0.75,-1.41,-0.75,0.75,0.74,0.79,-0.66,-0.66,-0.66
189.52,-1.41,-0.75,-1.41,-0.75,0.76,0.74,0.80,-0.65,-0.65,-0.66
191.42,-1.41,-0.75,-1.42,-0.76,0.76,0.75,0.81,-0.65,-0.65,-0.66
193.33,-1.43,-0.77,-1.43,-0.77,0.77,0.75,0.82,-0.66,-0.66,-0.66
195.27,-1.45,-0.79,-1.44,-0.78,0.77,0.75,0.83,-0.67,-0.67,-0.66
197.22,-1.45,-0.79,-1.45,-0.79,0.78,0.75,0.84,-0.67,-0.67,-0.66
199.19,-1.45,-0.79,-1.45,-0.79,0.79,0.76,0.85,-0.66,-0.65,-0.66
201.18,-1.45,-0.79,-1.45,-0.79,0.80,0.76,0.86,-0.65,-0.65,-0.66
203.19,-1.45,-0.79,-1.47,-0.81,0.81,0.77,0.87,-0.64,-0.65,-0.66
205.23,-1.50,-0.84,-1.48,-0.82,0.82,0.77,0.89,-0.68,-0.66,-0.66
207.28,-1.50,-0.84,-1.50,-0.84,0.83,0.77,0.90,-0.67,-0.67,-0.66
209.35,-1.50,-0.84,-1.50,-0.84,0.83,0.78,0.91,-0.67,-0.67,-0.66
211.44,-1.50,-0.84,-1.50,-0.84,0.83,0.78,0.92,-0.66,-0.66,-0.66
213.56,-1.50,-0.84,-1.50,-0.84,0.84,0.79,0.94,-0.66,-0.66,-0.66
215.69,-1.50,-0.84,-1.50,-0.84,0.84,0.79,0.95,-0.66,-0.66,-0.66
217.85,-1.50,-0.84,-1.49,-0.83,0.85,0.80,0.96,-0.65,-0.65,-0.66
220.03,-1.50,-0.84,-1.50,-0.84,0.85,0.80,0.97,-0.65,-0.65,-0.66
222.23,-1.50,-0.84,-1.52,-0.86,0.86,0.81,0.99,-0.64,-0.66,-0.66
224.45,-1.55,-0.89,-1.53,-0.87,0.87,0.81,1.00,-0.68,-0.66,-0.66
226.70,-1.55,-0.89,-1.55,-0.89,0.88,0.82,1.01,-0.66,-0.66,-0.66
228.96,-1.55,-0.89,-1.57,-0.91,0.90,0.82,1.02,-0.65,-0.67,-0.66
231.25,-1.59,-0.93,-1.57,-0.91,0.91,0.83,1.03,-0.67,-0.66,-0.66
233.57,-1.59,-0.93,-1.59,-0.93,0.93,0.83,1.04,-0.66,-0.66,-0.66
235.90,-1.59,-0.93,-1.61,-0.95,0.94,0.84,1.05,-0.65,-0.67,-0.66
238.26,-1.64,-0.98,-1.62,-0.96,0.96,0.85,1.06,-0.68,-0.66,-0.66
240.64,-1.64,-0.98,-1.63,-0.97,0.97,0.85,1.06,-0.67,-0.66,-0.66
243.05,-1.64,-0.98,-1.65,-0.99,0.99,0.86,1.07,-0.65,-0.66,-0.66
245.48,-1.65,-0.99,-1.66,-1.00,1.01,0.87,1.08,-0.64,-0.65,-0.66
247.93,-1.69,-1.03,-1.68,-1.02,1.03,0.87,1.08,-0.66,-0.65,-0.66
250.41,-1.71,-1.05,-1.71,-1.05,1.05,0.88,1.08,-0.66,-0.66,-0.66
252.92,-1.73,-1.07,-1.73,-1.07,1.07,0.89,1.09,-0.66,-0.66,-0.66
255.45,-1.75,-1.09,-1.75,-1.09,1.09,0.90,1.09,-0.66,-0.66,-0.66
258.00,-1.78,-1.12,-1.77,-1.11,1.11,0.90,1.09,-0.67,-0.66,-0.66
260.58,-1.78,-1.12,-1.80,-1.14,1.13,0.91,1.09,-0.65,-0.67,-0.66
263.19,-1.83,-1.17,-1.81,-1.15,1.15,0.92,1.09,-0.68,-0.67,-0.66
265.82,-1.83,-1.17,-1.83,-1.17,1.16,0.93,1.09,-0.66,-0.66,-0.66
268.48,-1.83,-1.17,-1.84,-1.18,1.18,0.94,1.09,-0.65,-0.66,-0.66
271.16,-1.85,-1.19,-1.84,-1.19,1.20,0.95,1.08,-0.65,-0.65,-0.66
273.87,-1.87,-1.21,-1.86,-1.20,1.21,0.96,1.08,-0.65,-0.65,-0.66
276.61,-1.87,-1.21,-1.88,-1.22,1.23,0.96,1.08,-0.64,-0.66,-0.66
279.38,-1.91,-1.25,-1.90,-1.24,1.24,0.97,1.07,-0.67,-0.66,-0.66
282.17,-1.92,-1.26,-1.92,-1.26,1.24,0.98,1.07,-0.68,-0.68,-0.66
284.99,-1.92,-1.26,-1.92,-1.26,1.24,0.99,1.06,-0.68,-0.68,-0.66
287.84,-1.92,-1.26,-1.91,-1.25,1.24,1.00,1.06,-0.68,-0.66,-0.66
290.72,-1.88,-1.22,-1.89,-1.23,1.24,1.01,1.06,-0.64,-0.65,-0.66
293.63,-1.87,-1.21,-1.88,-1.22,1.23,1.02,1.05,-0.64,-0.65,-0.66
296.57,-1.87,-1.21,-1.86,-1.20,1.21,1.03,1.05,-0.66,-0.65,-0.66
299.53,-1.87,-1.21,-1.85,-1.19,1.19,1.04,1.04,-0.67,-0.66,-0.66
302.53,-1.83,-1.17,-1.85,-1.19,1.18,1.05,1.04,-0.65,-0.67,-0.66
305.55,-1.83,-1.17,-1.83,-1.17,1.16,1.06,1.03,-0.67,-0.66,-0.66
308.61,-1.83,-1.17,-1.81,-1.15,1.15,1.07,1.03,-0.68,-0.66,-0.66
311.69,-1.78,-1.12,-1.80,-1.14,1.14,1.08,1.03,-0.64,-0.65,-0.66
314.81,-1.78,-1.12,-1.78,-1.12,1.13,1.09,1.03,-0.64,-0.65,-0.66
317.96,-1.78,-1.12,-1.77,-1.11,1.13,1.10,1.02,-0.65,-0.65,-0.66
321.14,-1.78,-1.12,-1.78,-1.12,1.12,1.12,1.02,-0.66,-0.66,-0.66
324.35,-1.78,-1.12,-1.78,-1.12,1.11,1.13,1.02,-0.67,-0.68,-0.66
327.59,-1.78,-1.12,-1.77,-1.11,1.10,1.14,1.02,-0.68,-0.68,-0.66
330.87,-1.77,-1.11,-1.76,-1.10,1.09,1.15,1.02,-0.68,-0.67,-0.66
334.18,-1.73,-1.07,-1.74,-1.08,1.09,1.16,1.03,-0.64,-0.66,-0.66
337.52,-1.73,-1.07,-1.73,-1.07,1.08,1.17,1.03,-0.64,-0.64,-0.66
340.90,-1.73,-1.07,-1.73,-1.07,1.08,1.18,1.03,-0.64,-0.64,-0.66
344.30,-1.73,-1.07,-1.74,-1.08,1.09,1.19,1.04,-0.64,-0.65,-0.66
347.75,-1.76,-1.10,-1.75,-1.09,1.09,1.20,1.04,-0.67,-0.66,-0.66
351.23,-1.76,-1.10,-1.76,-1.10,1.09,1.21,1.05,-0.67,-0.67,-0.66
354.74,-1.78,-1.12,-1.77,-1.12,1.10,1.22,1.05,-0.68,-0.67,-0.66
358.28,-1.78,-1.12,-1.78,-1.12,1.11,1.23,1.06,-0.67,-0.67,-0.66
361.87,-1.78,-1.12,-1.78,-1.12,1.12,1.24,1.07,-0.66,-0.66,-0.66
365.49,-1.78,-1.12,-1.78,-1.12,1.13,1.25,1.08,-0.65,-0.65,-0.66
369.14,-1.78,-1.12,-1.78,-1.12,1.14,1.26,1.09,-0.64,-0.65,-0.66
372.83,-1.79,-1.13,-1.80,-1.14,1.14,1.27,1.10,-0.65,-0.66,-0.66
376.56,-1.83,-1.17,-1.81,-1.16,1.15,1.28,1.11,-0.68,-0.67,-0.66
380.33,-1.83,-1.17,-1.83,-1.17,1.16,1.29,1.12,-0.67,-0.67,-0.66
384.13,-1.83,-1.17,-1.83,-1.17,1.16,1.30,1.13,-0.66,-0.67,-0.66
387.97,-1.83,-1.17,-1.83,-1.17,1.17,1.30,1.15,-0.66,-0.66,-0.66
391.85,-1.83,-1.17,-1.84,-1.18,1.18,1.31,1.16,-0.65,-0.66,-0.66
395.77,-1.85,-1.19,-1.84,-1.18,1.19,1.32,1.18,-0.66,-0.66,-0.66
399.73,-1.85,-1.19,-1.85,-1.19,1.19,1.33,1.19,-0.66,-0.66,-0.66
403.72,-1.85,-1.19,-1.85,-1.19,1.19,1.33,1.21,-0.66,-0.66,-0.66
407.76,-1.86,-1.20,-1.86,-1.20,1.20,1.34,1.22,-0.66,-0.66,-0.66
411.84,-1.87,-1.21,-1.86,-1.21,1.20,1.35,1.24,-0.67,-0.66,-0.66
415.96,-1.87,-1.21,-1.87,-1.21,1.21,1.35,1.25,-0.66,-0.66,-0.66
420.12,-1.87,-1.21,-1.87,-1.21,1.21,1.36,1.27,-0.65,-0.65,-0.66
424.32,-1.87,-1.21,-1.87,-1.21,1.22,1.36,1.29,-0.65,-0.65,-0.66
428.56,-1.87,-1.21,-1.88,-1.22,1.22,1.36,1.30,-0.64,-0.65,-0.66
432.85,-1.88,-1.22,-1.89,-1.23,1.23,1.37,1.32,-0.65,-0.66,-0.66
437.18,-1.92,-1.26,-1.90,-1.24,1.23,1.37,1.33,-0.69,-0.67,-0.66
441.55,-1.90,-1.24,-1.90,-1.24,1.23,1.37,1.35,-0.67,-0.68,-0.66
445.96,-1.90,-1.24,-1.89,-1.23,1.23,1.37,1.36,-0.67,-0.67,-0.66
