frequency,raw,error,smoothed,error_smoothed,equalization,parametric_eq,fixed_band_eq,equalized_raw,equalized_smoothed,target
20.00,-15.89,-14.08,-15.89,-14.09,6.00,6.80,2.74,-9.89,-9.89,-1.81
20.20,-15.76,-13.96,-15.76,-13.96,6.00,6.78,2.82,-9.76,-9.76,-1.80
20.40,-15.64,-13.85,-15.63,-13.84,6.00,6.76,2.90,-9.64,-9.63,-1.79
20.61,-15.51,-13.73,-15.51,-13.73,6.00,6.74,2.99,-9.51,-9.51,-1.79
20.81,-15.38,-13.60,-15.39,-13.61,6.00,6.72,3.07,-9.38,-9.39,-1.78
21.02,-15.26,-13.48,-15.26,-13.49,6.00,6.70,3.16,-9.26,-9.26,-1.78
21.23,-15.15,-13.38,-15.15,-13.38,6.00,6.68,3.25,-9.15,-9.15,-1.77
21.44,-15.03,-13.26,-15.04,-13.27,6.00,6.66,3.35,-9.03,-9.04,-1.77
21.66,-14.92,-13.16,-14.92,-13.16,6.00,6.63,3.44,-8.92,-8.92,-1.77
21.87,-14.81,-13.04,-14.80,-13.04,6.00,6.61,3.54,-8.81,-8.80,-1.77
22.09,-14.67,-12.91,-14.67,-12.91,6.00,6.59,3.64,-8.67,-8.67,-1.76
22.31,-14.52,-12.76,-14.52,-12.76,6.00,6.56,3.75,-8.52,-8.52,-1.76
22.54,-14.37,-12.61,-14.37,-12.60,6.00,6.54,3.85,-8.37,-8.37,-1.77
22.76,-14.21,-12.43,-14.21,-12.44,6.00,6.52,3.97,-8.21,-8.21,-1.78
22.99,-14.06,-12.28,-14.06,-12.29,6.00,6.49,4.08,-8.06,-8.06,-1.78
23.22,-13.92,-12.14,-13.92,-12.14,6.00,6.47,4.19,-7.92,-7.92,-1.78
23.45,-13.78,-11.99,-13.78,-12.00,6.00,6.44,4.31,-7.78,-7.78,-1.79
23.69,-13.64,-11.86,-13.64,-11.85,6.00,6.42,4.43,-7.64,-7.64,-1.79
23.92,-13.50,-11.71,-13.50,-11.71,6.00,6.39,4.55,-7.50,-7.50,-1.79
24.16,-13.36,-11.57,-13.36,-11.58,6.00,6.37,4.68,-7.36,-7.36,-1.79
24.40,-13.23,-11.44,-13.23,-11.44,6.00,6.34,4.80,-7.23,-7.23,-1.79
24.65,-13.10,-11.32,-13.10,-11.32,6.00,6.31,4.93,-7.10,-7.10,-1.79
24.89,-12.98,-11.19,-12.97,-11.18,6.00,6.29,5.06,-6.98,-6.97,-1.79
25.14,-12.83,-11.04,-12.83,-11.04,6.00,6.26,5.20,-6.83,-6.83,-1.79
25.39,-12.67,-10.87,-12.67,-10.88,6.00,6.23,5.33,-6.67,-6.67,-1.80
25.65,-12.51,-10.71,-12.51,-10.71,6.00,6.21,5.46,-6.51,-6.51,-1.80
25.91,-12.35,-10.56,-12.35,-10.56,6.00,6.18,5.60,-6.35,-6.35,-1.80
26.16,-12.20,-10.40,-12.20,-10.41,6.00,6.15,5.73,-6.20,-6.20,-1.80
26.43,-12.06,-10.27,-12.06,-10.26,6.00,6.13,5.86,-6.06,-6.06,-1.80
26.69,-11.92,-10.12,-11.92,-10.12,6.00,6.10,5.99,-5.92,-5.92,-1.80
26.96,-11.78,-9.99,-11.78,-9.99,6.00,6.07,6.12,-5.78,-5.78,-1.80
27.23,-11.64,-9.85,-11.64,-9.84,6.00,6.05,6.25,-5.64,-5.64,-1.80
27.50,-11.49,-9.69,-11.49,-9.70,6.00,6.02,6.37,-5.49,-5.49,-1.80
27.77,-11.35,-9.55,-11.35,-9.55,6.00,6.00,6.49,-5.35,-5.35,-1.80
28.05,-11.20,-9.40,-11.20,-9.40,6.00,5.98,6.60,-5.20,-5.20,-1.80
28.33,-11.05,-9.25,-11.05,-9.25,6.00,5.96,6.71,-5.05,-5.05,-1.80
28.62,-10.90,-9.11,-10.90,-9.11,6.00,5.93,6.81,-4.90,-4.90,-1.80
28.90,-10.75,-8.96,-10.75,-8.96,6.00,5.92,6.90,-4.75,-4.75,-1.79
29.19,-10.61,-8.82,-10.61,-8.83,6.00,5.90,6.98,-4.61,-4.61,-1.79
29.48,-10.48,-8.69,-10.48,-8.70,6.00,5.89,7.05,-4.48,-4.48,-1.79
29.78,-10.35,-8.58,-10.35,-8.57,6.00,5.87,7.11,-4.35,-4.35,-1.78
30.08,-10.20,-8.43,-10.19,-8.42,6.00,5.87,7.16,-4.20,-4.19,-1.78
30.38,-10.02,-8.25,-10.02,-8.24,6.00,5.86,7.19,-4.02,-4.02,-1.78
30.68,-9.83,-8.05,-9.84,-8.06,6.00,5.86,7.21,-3.83,-3.84,-1.78
30.99,-9.65,-7.88,-9.66,-7.88,6.00,5.86,7.22,-3.65,-3.66,-1.78
31.30,-9.50,-7.73,-9.50,-7.73,6.00,5.87,7.22,-3.50,-3.50,-1.78
31.61,-9.35,-7.57,-9.35,-7.57,6.00,5.88,7.20,-3.35,-3.35,-1.78
31.93,-9.20,-7.43,-9.19,-7.42,6.00,5.89,7.16,-3.20,-3.19,-1.78
32.24,-9.03,-7.24,-9.03,-7.24,6.00,5.89,7.12,-3.03,-3.03,-1.79
32.57,-8.85,-7.07,-8.85,-7.07,6.00,5.90,7.05,-2.85,-2.85,-1.79
32.89,-8.68,-6.89,-8.69,-6.90,6.01,5.90,6.99,-2.67,-2.67,-1.79
33.22,-8.53,-6.73,-8.54,-6.74,6.02,5.88,6.90,-2.51,-2.51,-1.80
33.55,-8.40,-6.60,-8.40,-6.60,6.03,5.86,6.80,-2.37,-2.37,-1.80
33.89,-8.26,-6.45,-8.25,-6.45,6.02,5.81,6.70,-2.24,-2.23,-1.81
34.23,-8.10,-6.29,-8.10,-6.29,6.00,5.75,6.58,-2.11,-2.10,-1.81
34.57,-7.93,-6.12,-7.93,-6.12,5.95,5.67,6.46,-1.98,-1.98,-1.81
34.92,-7.75,-5.95,-7.76,-5.96,5.88,5.57,6.33,-1.88,-1.89,-1.81
35.27,-7.61,-5.81,-7.62,-5.81,5.78,5.46,6.19,-1.83,-1.84,-1.81
35.62,-7.47,-5.66,-7.47,-5.67,5.66,5.34,6.05,-1.81,-1.82,-1.81
35.97,-7.34,-5.53,-7.32,-5.51,5.52,5.22,5.90,-1.82,-1.80,-1.81
36.33,-7.15,-5.34,-7.15,-5.34,5.36,5.09,5.75,-1.79,-1.78,-1.81
36.70,-6.96,-5.16,-6.97,-5.16,5.20,4.97,5.60,-1.76,-1.77,-1.81
37.06,-6.78,-4.97,-6.80,-4.99,5.03,4.84,5.44,-1.75,-1.77,-1.81
37.43,-6.66,-4.85,-6.66,-4.85,4.87,4.72,5.28,-1.79,-1.79,-1.81
37.81,-6.53,-4.73,-6.52,-4.72,4.71,4.61,5.12,-1.82,-1.81,-1.80
38.19,-6.38,-4.59,-6.38,-4.58,4.56,4.49,4.96,-1.82,-1.82,-1.80
38.57,-6.21,-4.41,-6.21,-4.42,4.41,4.38,4.80,-1.80,-1.81,-1.80
38.95,-6.04,-4.25,-6.04,-4.25,4.25,4.28,4.64,-1.79,-1.79,-1.79
39.34,-5.88,-4.09,-5.88,-4.09,4.09,4.17,4.48,-1.79,-1.79,-1.79
39.74,-5.72,-3.93,-5.72,-3.93,3.93,4.07,4.33,-1.79,-1.79,-1.79
40.14,-5.56,-3.78,-5.55,-3.77,3.76,3.97,4.17,-1.80,-1.79,-1.79
40.54,-5.38,-3.60,-5.38,-3.60,3.60,3.87,4.01,-1.79,-1.79,-1.79
40.94,-5.21,-3.42,-5.21,-3.43,3.44,3.77,3.86,-1.77,-1.77,-1.79
41.35,-5.05,-3.26,-5.05,-3.26,3.28,3.68,3.71,-1.77,-1.77,-1.79
41.76,-4.90,-3.10,-4.90,-3.11,3.13,3.58,3.55,-1.77,-1.77,-1.80
42.18,-4.77,-2.97,-4.78,-2.98,2.98,3.49,3.41,-1.79,-1.80,-1.80
42.60,-4.65,-2.85,-4.65,-2.85,2.83,3.39,3.26,-1.82,-1.82,-1.80
43.03,-4.53,-2.73,-4.51,-2.72,2.69,3.29,3.11,-1.84,-1.82,-1.80
43.46,-4.36,-2.56,-4.36,-2.56,2.55,3.20,2.97,-1.81,-1.81,-1.80
43.90,-4.20,-2.40,-4.21,-2.41,2.41,3.10,2.83,-1.79,-1.80,-1.81
44.33,-4.06,-2.25,-4.06,-2.25,2.28,3.01,2.69,-1.78,-1.78,-1.81
44.78,-3.93,-2.12,-3.94,-2.13,2.14,2.91,2.55,-1.79,-1.79,-1.81
45.23,-3.82,-2.02,-3.82,-2.02,2.01,2.82,2.42,-1.81,-1.81,-1.81
45.68,-3.71,-1.90,-3.71,-1.90,1.89,2.72,2.28,-1.82,-1.82,-1.81
46.13,-3.59,-1.79,-3.58,-1.78,1.77,2.62,2.15,-1.82,-1.81,-1.80
46.60,-3.44,-1.65,-3.45,-1.65,1.65,2.52,2.02,-1.79,-1.79,-1.80
47.06,-3.31,-1.52,-3.33,-1.55,1.54,2.42,1.89,-1.77,-1.79,-1.79
47.53,-3.23,-1.45,-3.23,-1.46,1.45,2.33,1.77,-1.78,-1.78,-1.78
48.01,-3.16,-1.39,-3.12,-1.35,1.37,2.23,1.64,-1.79,-1.75,-1.77
48.49,-3.01,-1.25,-3.01,-1.25,1.28,2.13,1.52,-1.73,-1.72,-1.76
48.97,-2.86,-1.11,-2.92,-1.18,1.20,2.03,1.40,-1.66,-1.72,-1.75
49.46,-2.86,-1.12,-2.86,-1.13,1.12,1.93,1.28,-1.74,-1.74,-1.74
49.96,-2.87,-1.15,-2.82,-1.10,1.05,1.83,1.17,-1.82,-1.77,-1.72
50.46,-2.76,-1.05,-2.76,-1.06,0.99,1.72,1.05,-1.77,-1.77,-1.71
50.96,-2.64,-0.95,-2.63,-0.94,0.94,1.62,0.94,-1.70,-1.68,-1.69
51.47,-2.50,-0.82,-2.49,-0.81,0.89,1.52,0.83,-1.61,-1.60,-1.68
51.99,-2.35,-0.69,-2.44,-0.77,0.83,1.42,0.73,-1.52,-1.61,-1.67
52.51,-2.43,-0.77,-2.42,-0.77,0.77,1.32,0.62,-1.66,-1.66,-1.66
53.03,-2.49,-0.84,-2.41,-0.76,0.71,1.22,0.52,-1.78,-1.70,-1.65
53.56,-2.34,-0.70,-2.35,-0.72,0.65,1.12,0.42,-1.69,-1.70,-1.64
54.10,-2.20,-0.58,-2.22,-0.60,0.60,1.01,0.32,-1.60,-1.62,-1.62
54.64,-2.10,-0.49,-2.11,-0.51,0.55,0.91,0.23,-1.55,-1.56,-1.61
55.18,-2.04,-0.44,-2.07,-0.47,0.50,0.81,0.14,-1.54,-1.57,-1.60
55.74,-2.06,-0.46,-2.03,-0.44,0.43,0.71,0.05,-1.63,-1.60,-1.60
56.29,-2.01,-0.42,-1.98,-0.39,0.37,0.62,-0.04,-1.64,-1.61,-1.59
56.86,-1.88,-0.31,-1.90,-0.32,0.30,0.52,-0.12,-1.58,-1.60,-1.58
57.42,-1.81,-0.23,-1.82,-0.24,0.25,0.42,-0.19,-1.56,-1.57,-1.58
58.00,-1.75,-0.17,-1.75,-0.18,0.20,0.33,-0.27,-1.55,-1.55,-1.58
58.58,-1.72,-0.14,-1.71,-0.13,0.15,0.23,-0.34,-1.57,-1.56,-1.58
59.16,-1.67,-0.09,-1.66,-0.09,0.10,0.14,-0.40,-1.57,-1.57,-1.58
59.76,-1.61,-0.03,-1.63,-0.05,0.05,0.05,-0.46,-1.57,-1.58,-1.58
60.35,-1.59,-0.00,-1.59,-0.01,-0.00,-0.04,-0.52,-1.60,-1.60,-1.59
60.96,-1.58,0.02,-1.55,0.04,-0.05,-0.12,-0.57,-1.63,-1.61,-1.60
61.57,-1.51,0.10,-1.52,0.09,-0.10,-0.21,-0.62,-1.61,-1.62,-1.61
62.18,-1.46,0.17,-1.48,0.14,-0.14,-0.29,-0.66,-1.61,-1.63,-1.63
62.80,-1.46,0.19,-1.44,0.21,-0.20,-0.37,-0.70,-1.66,-1.64,-1.65
63.43,-1.42,0.26,-1.41,0.26,-0.25,-0.44,-0.73,-1.67,-1.66,-1.68
64.07,-1.37,0.33,-1.39,0.31,-0.31,-0.52,-0.76,-1.68,-1.70,-1.70
64.71,-1.37,0.36,-1.37,0.35,-0.37,-0.59,-0.79,-1.74,-1.74,-1.73
65.35,-1.35,0.40,-1.34,0.40,-0.42,-0.65,-0.81,-1.77,-1.76,-1.75
66.01,-1.32,0.45,-1.30,0.47,-0.48,-0.72,-0.82,-1.80,-1.78,-1.77
66.67,-1.23,0.56,-1.24,0.54,-0.53,-0.78,-0.83,-1.76,-1.77,-1.79
67.33,-1.18,0.62,-1.20,0.60,-0.58,-0.83,-0.84,-1.76,-1.78,-1.80
68.01,-1.18,0.64,-1.18,0.64,-0.63,-0.88,-0.85,-1.81,-1.81,-1.82
68.69,-1.18,0.65,-1.16,0.66,-0.67,-0.93,-0.85,-1.85,-1.83,-1.83
69.37,-1.15,0.69,-1.14,0.70,-0.71,-0.98,-0.85,-1.86,-1.85,-1.84
70.07,-1.09,0.76,-1.11,0.74,-0.73,-1.02,-0.84,-1.83,-1.84,-1.85
70.77,-1.08,0.78,-1.08,0.77,-0.76,-1.05,-0.84,-1.84,-1.84,-1.86
71.48,-1.08,0.78,-1.08,0.78,-0.77,-1.09,-0.83,-1.85,-1.85,-1.86
72.19,-1.08,0.79,-1.08,0.79,-0.79,-1.12,-0.82,-1.87,-1.87,-1.87
72.91,-1.08,0.80,-1.08,0.79,-0.80,-1.14,-0.81,-1.88,-1.88,-1.88
73.64,-1.08,0.81,-1.08,0.80,-0.81,-1.16,-0.79,-1.89,-1.89,-1.89
74.38,-1.08,0.82,-1.08,0.82,-0.82,-1.18,-0.78,-1.90,-1.90,-1.90
75.12,-1.08,0.83,-1.08,0.83,-0.83,-1.19,-0.76,-1.91,-1.91,-1.91
75.87,-1.08,0.85,-1.08,0.84,-0.84,-1.20,-0.74,-1.92,-1.92,-1.93
76.63,-1.08,0.86,-1.08,0.86,-0.86,-1.21,-0.72,-1.94,-1.94,-1.94
77.40,-1.08,0.88,-1.08,0.87,-0.87,-1.22,-0.70,-1.95,-1.95,-1.96
78.17,-1.08,0.89,-1.08,0.89,-0.88,-1.22,-0.69,-1.96,-1.96,-1.97
78.95,-1.08,0.91,-1.08,0.90,-0.90,-1.21,-0.67,-1.98,-1.98,-1.99
79.74,-1.08,0.92,-1.08,0.92,-0.91,-1.21,-0.65,-1.99,-1.99,-2.00
80.54,-1.08,0.94,-1.08,0.93,-0.93,-1.20,-0.63,-2.01,-2.01,-2.02
81.35,-1.08,0.95,-1.09,0.94,-0.95,-1.19,-0.61,-2.04,-2.04,-2.03
82.16,-1.08,0.96,-1.08,0.96,-0.98,-1.18,-0.59,-2.06,-2.06,-2.04
82.98,-1.08,0.97,-1.06,0.99,-1.00,-1.16,-0.57,-2.08,-2.06,-2.05
83.81,-1.01,1.05,-1.03,1.03,-1.03,-1.14,-0.55,-2.04,-2.06,-2.06
84.65,-0.99,1.07,-1.00,1.06,-1.05,-1.12,-0.53,-2.04,-2.05,-2.06
85.50,-0.99,1.08,-0.98,1.08,-1.06,-1.10,-0.51,-2.05,-2.04,-2.07
86.35,-0.99,1.09,-0.98,1.10,-1.07,-1.08,-0.49,-2.06,-2.05,-2.08
87.22,-0.99,1.10,-0.99,1.09,-1.07,-1.06,-0.47,-2.06,-2.07,-2.09
88.09,-0.99,1.11,-1.02,1.07,-1.07,-1.03,-0.46,-2.07,-2.10,-2.10
88.97,-1.08,1.02,-1.05,1.05,-1.07,-1.00,-0.44,-2.15,-2.12,-2.10
89.86,-1.08,1.03,-1.08,1.03,-1.06,-0.98,-0.42,-2.14,-2.14,-2.11
90.76,-1.08,1.04,-1.08,1.03,-1.05,-0.95,-0.41,-2.13,-2.13,-2.12
91.66,-1.07,1.05,-1.07,1.05,-1.03,-0.92,-0.39,-2.10,-2.10,-2.12
92.58,-1.07,1.05,-1.08,1.04,-1.01,-0.89,-0.38,-2.08,-2.09,-2.12
93.51,-1.09,1.04,-1.10,1.02,-1.00,-0.86,-0.36,-2.09,-2.10,-2.13
94.44,-1.14,0.99,-1.13,1.00,-0.99,-0.83,-0.35,-2.13,-2.12,-2.13
95.39,-1.17,0.96,-1.16,0.97,-0.99,-0.80,-0.34,-2.16,-2.14,-2.13
96.34,-1.16,0.97,-1.18,0.95,-0.98,-0.77,-0.33,-2.14,-2.16,-2.13
97.30,-1.18,0.95,-1.18,0.95,-0.98,-0.74,-0.31,-2.16,-2.15,-2.13
98.28,-1.19,0.95,-1.16,0.97,-0.97,-0.71,-0.30,-2.16,-2.14,-2.14
99.26,-1.13,1.01,-1.15,0.98,-0.98,-0.68,-0.29,-2.11,-2.13,-2.14
100.25,-1.13,1.01,-1.14,1.00,-0.99,-0.65,-0.28,-2.12,-2.13,-2.14
101.25,-1.15,0.99,-1.14,1.00,-0.99,-0.62,-0.27,-2.14,-2.13,-2.14
102.27,-1.16,0.99,-1.16,0.99,-0.99,-0.58,-0.26,-2.15,-2.15,-2.15
103.29,-1.17,0.99,-1.17,0.98,-0.99,-0.55,-0.25,-2.16,-2.16,-2.16
104.32,-1.19,0.98,-1.18,0.98,-0.96,-0.52,-0.24,-2.15,-2.15,-2.17
105.37,-1.21,0.96,-1.21,0.96,-0.93,-0.49,-0.23,-2.14,-2.14,-2.17
106.42,-1.25,0.93,-1.27,0.90,-0.89,-0.47,-0.22,-2.14,-2.16,-2.18
107.48,-1.35,0.84,-1.35,0.83,-0.83,-0.44,-0.21,-2.18,-2.19,-2.19
108.56,-1.46,0.74,-1.43,0.77,-0.77,-0.41,-0.20,-2.23,-2.20,-2.20
109.64,-1.50,0.71,-1.50,0.70,-0.71,-0.38,-0.19,-2.21,-2.21,-2.21
110.74,-1.53,0.68,-1.58,0.63,-0.64,-0.35,-0.18,-2.18,-2.22,-2.21
111.85,-1.66,0.55,-1.64,0.56,-0.58,-0.32,-0.17,-2.24,-2.22,-2.21
112.97,-1.74,0.47,-1.70,0.50,-0.51,-0.30,-0.16,-2.25,-2.21,-2.21
114.10,-1.74,0.47,-1.75,0.45,-0.45,-0.27,-0.15,-2.19,-2.20,-2.21
115.24,-1.76,0.44,-1.79,0.41,-0.39,-0.24,-0.14,-2.15,-2.18,-2.20
116.39,-1.84,0.36,-1.84,0.35,-0.35,-0.22,-0.13,-2.19,-2.19,-2.20
117.55,-1.91,0.27,-1.89,0.29,-0.31,-0.19,-0.12,-2.22,-2.20,-2.18
118.73,-1.93,0.24,-1.93,0.24,-0.28,-0.16,-0.11,-2.21,-2.20,-2.17
119.92,-1.92,0.23,-1.93,0.22,-0.25,-0.14,-0.10,-2.17,-2.17,-2.15
121.12,-1.91,0.22,-1.91,0.22,-0.21,-0.11,-0.09,-2.12,-2.12,-2.13
122.33,-1.90,0.21,-1.89,0.22,-0.17,-0.09,-0.08,-2.07,-2.06,-2.11
123.55,-1.89,0.20,-1.90,0.18,-0.13,-0.06,-0.06,-2.03,-2.04,-2.09
124.79,-1.90,0.17,-1.95,0.12,-0.10,-0.04,-0.05,-2.00,-2.04,-2.07
126.03,-2.05,-0.00,-2.00,0.04,-0.06,-0.01,-0.04,-2.11,-2.06,-2.05
127.29,-2.06,-0.03,-2.05,-0.02,-0.02,0.01,-0.02,-2.08,-2.06,-2.03
128.57,-2.06,-0.05,-2.07,-0.06,0.03,0.04,-0.01,-2.03,-2.04,-2.01
129.85,-2.05,-0.06,-2.06,-0.08,0.08,0.06,0.01,-1.97,-1.99,-1.99
131.15,-2.08,-0.11,-2.09,-0.12,0.12,0.08,0.02,-1.96,-1.96,-1.97
132.46,-2.12,-0.16,-2.11,-0.15,0.17,0.11,0.04,-1.95,-1.94,-1.96
133.79,-2.14,-0.20,-2.13,-0.20,0.21,0.13,0.06,-1.93,-1.93,-1.94
135.12,-2.14,-0.21,-2.16,-0.24,0.25,0.16,0.07,-1.89,-1.91,-1.93
136.48,-2.20,-0.29,-2.20,-0.29,0.29,0.18,0.09,-1.91,-1.91,-1.91
137.84,-2.24,-0.34,-2.24,-0.35,0.33,0.20,0.11,-1.91,-1.91,-1.90
139.22,-2.29,-0.40,-2.28,-0.39,0.38,0.23,0.13,-1.91,-1.89,-1.89
140.61,-2.31,-0.43,-2.31,-0.43,0.43,0.25,0.15,-1.88,-1.87,-1.88
142.02,-2.31,-0.44,-2.33,-0.46,0.48,0.27,0.17,-1.83,-1.85,-1.87
143.44,-2.38,-0.51,-2.37,-0.50,0.52,0.30,0.19,-1.86,-1.85,-1.87
144.87,-2.41,-0.54,-2.42,-0.56,0.56,0.32,0.21,-1.86,-1.87,-1.87
146.32,-2.48,-0.61,-2.47,-0.60,0.58,0.35,0.24,-1.90,-1.90,-1.87
147.78,-2.51,-0.63,-2.50,-0.63,0.59,0.37,0.26,-1.92,-1.91,-1.88
149.26,-2.51,-0.62,-2.51,-0.63,0.60,0.39,0.28,-1.91,-1.92,-1.89
150.75,-2.51,-0.60,-2.51,-0.60,0.60,0.42,0.30,-1.91,-1.91,-1.91
152.26,-2.51,-0.57,-2.51,-0.58,0.60,0.44,0.33,-1.91,-1.91,-1.94
153.78,-2.52,-0.55,-2.53,-0.56,0.59,0.47,0.35,-1.93,-1.93,-1.97
155.32,-2.57,-0.56,-2.56,-0.56,0.58,0.49,0.38,-1.99,-1.98,-2.01
156.88,-2.60,-0.56,-2.61,-0.57,0.57,0.51,0.40,-2.03,-2.04,-2.04
158.44,-2.67,-0.59,-2.66,-0.59,0.56,0.54,0.43,-2.11,-2.10,-2.08
160.03,-2.70,-0.59,-2.69,-0.59,0.56,0.56,0.46,-2.14,-2.13,-2.11
161.63,-2.70,-0.57,-2.70,-0.57,0.56,0.59,0.48,-2.14,-2.14,-2.13
163.24,-2.70,-0.54,-2.70,-0.55,0.57,0.61,0.51,-2.13,-2.14,-2.16
164.88,-2.70,-0.53,-2.72,-0.55,0.57,0.64,0.54,-2.13,-2.14,-2.17
166.53,-2.75,-0.57,-2.75,-0.57,0.59,0.66,0.57,-2.16,-2.16,-2.18
168.19,-2.79,-0.61,-2.78,-0.61,0.61,0.68,0.60,-2.18,-2.18,-2.18
169.87,-2.82,-0.65,-2.81,-0.64,0.64,0.71,0.63,-2.18,-2.17,-2.17
171.57,-2.82,-0.66,-2.82,-0.67,0.68,0.73,0.66,-2.14,-2.15,-2.16
173.29,-2.83,-0.69,-2.84,-0.71,0.72,0.76,0.69,-2.11,-2.12,-2.14
175.02,-2.87,-0.76,-2.87,-0.77,0.77,0.78,0.72,-2.10,-2.10,-2.11
176.77,-2.92,-0.84,-2.91,-0.83,0.82,0.81,0.75,-2.10,-2.09,-2.08
178.54,-2.93,-0.88,-2.93,-0.89,0.86,0.83,0.78,-2.07,-2.07,-2.05
180.32,-2.93,-0.92,-2.93,-0.92,0.91,0.85,0.82,-2.02,-2.03,-2.01
182.13,-2.92,-0.94,-2.91,-0.94,0.95,0.88,0.85,-1.97,-1.97,-1.98
183.95,-2.91,-0.97,-2.91,-0.97,0.99,0.90,0.88,-1.92,-1.93,-1.94
185.79,-2.90,-0.98,-2.93,-1.01,1.02,0.92,0.92,-1.88,-1.91,-1.92
187.65,-2.97,-1.07,-2.95,-1.05,1.05,0.95,0.95,-1.92,-1.90,-1.90
189.52,-2.97,-1.09,-2.96,-1.08,1.08,0.97,0.99,-1.89,-1.88,-1.88
191.42,-2.96,-1.09,-2.96,-1.10,1.10,0.99,1.03,-1.86,-1.86,-1.87
193.33,-2.94,-1.09,-2.96,-1.11,1.12,1.02,1.06,-1.82,-1.84,-1.85
195.27,-2.98,-1.14,-2.98,-1.14,1.14,1.04,1.10,-1.85,-1.84,-1.84
197.22,-3.01,-1.17,-2.99,-1.16,1.15,1.06,1.14,-1.86,-1.85,-1.84
199.19,-3.00,-1.17,-3.00,-1.18,1.16,1.08,1.17,-1.84,-1.85,-1.83
201.18,-2.99,-1.16,-2.99,-1.17,1.17,1.10,1.21,-1.82,-1.83,-1.83
203.19,-2.99,-1.16,-2.98,-1.16,1.18,1.12,1.25,-1.81,-1.81,-1.83
205.23,-2.98,-1.15,-3.00,-1.17,1.19,1.14,1.29,-1.79,-1.81,-1.83
207.28,-3.02,-1.19,-3.02,-1.20,1.21,1.17,1.32,-1.81,-1.82,-1.83
209.35,-3.07,-1.24,-3.05,-1.22,1.23,1.19,1.36,-1.84,-1.82,-1.83
211.44,-3.08,-1.24,-3.08,-1.25,1.25,1.21,1.40,-1.83,-1.83,-1.84
213.56,-3.09,-1.25,-3.11,-1.28,1.27,1.22,1.43,-1.82,-1.84,-1.84
215.69,-3.15,-1.30,-3.14,-1.30,1.29,1.24,1.47,-1.86,-1.85,-1.85
217.85,-3.19,-1.34,-3.18,-1.33,1.31,1.26,1.50,-1.88,-1.87,-1.85
220.03,-3.19,-1.33,-3.20,-1.34,1.32,1.28,1.54,-1.87,-1.87,-1.86
222.23,-3.20,-1.34,-3.20,-1.35,1.34,1.30,1.57,-1.86,-1.86,-1.86
224.45,-3.20,-1.34,-3.19,-1.34,1.35,1.31,1.60,-1.85,-1.84,-1.86
226.70,-3.20,-1.34,-3.20,-1.34,1.37,1.33,1.63,-1.83,-1.83,-1.86
228.96,-3.19,-1.33,-3.21,-1.36,1.38,1.35,1.66,-1.81,-1.83,-1.86
231.25,-3.24,-1.39,-3.24,-1.39,1.39,1.36,1.68,-1.85,-1.85,-1.85
233.57,-3.27,-1.42,-3.25,-1.41,1.39,1.38,1.71,-1.88,-1.86,-1.85
235.90,-3.26,-1.42,-3.26,-1.43,1.40,1.39,1.73,-1.86,-1.86,-1.84
238.26,-3.24,-1.41,-3.25,-1.42,1.41,1.41,1.75,-1.83,-1.84,-1.83
240.64,-3.22,-1.41,-3.23,-1.42,1.41,1.42,1.76,-1.81,-1.81,-1.81
243.05,-3.21,-1.41,-3.20,-1.41,1.41,1.43,1.78,-1.80,-1.79,-1.80
245.48,-3.19,-1.40,-3.18,-1.40,1.42,1.44,1.79,-1.77,-1.77,-1.79
247.93,-3.16,-1.38,-3.18,-1.40,1.42,1.45,1.80,-1.74,-1.76,-1.78
250.41,-3.18,-1.41,-3.19,-1.42,1.42,1.47,1.81,-1.76,-1.76,-1.77
252.92,-3.22,-1.46,-3.20,-1.44,1.44,1.48,1.81,-1.78,-1.76,-1.76
255.45,-3.21,-1.45,-3.21,-1.45,1.45,1.49,1.81,-1.76,-1.76,-1.76
258.00,-3.20,-1.44,-3.22,-1.47,1.47,1.49,1.81,-1.73,-1.75,-1.76
260.58,-3.24,-1.48,-3.24,-1.48,1.49,1.50,1.80,-1.75,-1.75,-1.76
263.19,-3.28,-1.52,-3.27,-1.51,1.51,1.51,1.80,-1.77,-1.76,-1.76
265.82,-3.29,-1.53,-3.29,-1.54,1.52,1.52,1.79,-1.77,-1.77,-1.76
268.48,-3.30,-1.54,-3.30,-1.54,1.54,1.52,1.78,-1.77,-1.77,-1.76
271.16,-3.30,-1.54,-3.30,-1.55,1.55,1.53,1.77,-1.76,-1.76,-1.76
273.87,-3.31,-1.55,-3.31,-1.55,1.55,1.53,1.75,-1.76,-1.76,-1.76
276.61,-3.31,-1.55,-3.31,-1.55,1.56,1.54,1.73,-1.75,-1.75,-1.76
279.38,-3.31,-1.55,-3.31,-1.56,1.56,1.54,1.72,-1.75,-1.75,-1.76
282.17,-3.30,-1.55,-3.30,-1.56,1.56,1.55,1.70,-1.74,-1.74,-1.75
284.99,-3.30,-1.56,-3.30,-1.56,1.56,1.55,1.68,-1.74,-1.74,-1.74
287.84,-3.29,-1.55,-3.29,-1.56,1.55,1.55,1.66,-1.74,-1.74,-1.74
290.72,-3.28,-1.55,-3.28,-1.56,1.55,1.55,1.63,-1.73,-1.73,-1.73
293.63,-3.27,-1.55,-3.27,-1.55,1.54,1.55,1.61,-1.73,-1.72,-1.72
296.57,-3.25,-1.54,-3.25,-1.55,1.54,1.55,1.59,-1.71,-1.71,-1.71
299.53,-3.24,-1.53,-3.24,-1.54,1.54,1.55,1.56,-1.70,-1.70,-1.71
302.53,-3.23,-1.53,-3.22,-1.52,1.54,1.55,1.54,-1.69,-1.68,-1.70
305.55,-3.22,-1.52,-3.22,-1.53,1.55,1.55,1.52,-1.67,-1.67,-1.70
308.61,-3.21,-1.51,-3.24,-1.54,1.55,1.54,1.49,-1.66,-1.69,-1.70
311.69,-3.28,-1.58,-3.26,-1.56,1.56,1.54,1.47,-1.72,-1.70,-1.70
314.81,-3.30,-1.59,-3.29,-1.58,1.57,1.54,1.45,-1.73,-1.72,-1.71
317.96,-3.29,-1.58,-3.30,-1.59,1.57,1.53,1.43,-1.72,-1.73,-1.71
321.14,-3.29,-1.57,-3.29,-1.58,1.58,1.53,1.41,-1.71,-1.72,-1.72
324.35,-3.29,-1.57,-3.29,-1.57,1.58,1.52,1.38,-1.71,-1.72,-1.72
327.59,-3.30,-1.57,-3.30,-1.57,1.57,1.51,1.37,-1.73,-1.72,-1.73
330.87,-3.30,-1.56,-3.30,-1.56,1.57,1.51,1.35,-1.73,-1.73,-1.74
334.18,-3.30,-1.55,-3.30,-1.56,1.56,1.50,1.33,-1.74,-1.74,-1.75
337.52,-3.30,-1.54,-3.30,-1.55,1.55,1.49,1.31,-1.75,-1.75,-1.76
340.90,-3.30,-1.54,-3.30,-1.54,1.54,1.48,1.29,-1.76,-1.76,-1.76
344.30,-3.30,-1.53,-3.30,-1.53,1.53,1.47,1.28,-1.77,-1.77,-1.77
347.75,-3.30,-1.51,-3.30,-1.52,1.52,1.46,1.26,-1.78,-1.79,-1.79
351.23,-3.30,-1.50,-3.30,-1.50,1.50,1.45,1.25,-1.80,-1.80,-1.80
354.74,-3.30,-1.49,-3.30,-1.49,1.48,1.44,1.24,-1.82,-1.81,-1.81
358.28,-3.29,-1.47,-3.29,-1.48,1.47,1.43,1.23,-1.82,-1.82,-1.82
361.87,-3.29,-1.46,-3.29,-1.46,1.46,1.42,1.22,-1.83,-1.83,-1.83
365.49,-3.28,-1.43,-3.28,-1.43,1.45,1.41,1.21,-1.83,-1.83,-1.85
369.14,-3.28,-1.42,-3.28,-1.42,1.44,1.39,1.20,-1.84,-1.83,-1.86
372.83,-3.27,-1.40,-3.29,-1.42,1.44,1.38,1.19,-1.83,-1.85,-1.87
376.56,-3.32,-1.44,-3.31,-1.44,1.44,1.37,1.19,-1.88,-1.87,-1.88
380.33,-3.35,-1.46,-3.33,-1.45,1.44,1.35,1.18,-1.91,-1.90,-1.89
384.13,-3.34,-1.44,-3.35,-1.45,1.43,1.34,1.17,-1.91,-1.92,-1.90
387.97,-3.34,-1.43,-3.34,-1.44,1.42,1.32,1.17,-1.92,-1.92,-1.91
391.85,-3.33,-1.41,-3.34,-1.42,1.40,1.31,1.17,-1.93,-1.93,-1.92
395.77,-3.33,-1.40,-3.32,-1.40,1.38,1.29,1.16,-1.95,-1.94,-1.93
399.73,-3.30,-1.36,-3.29,-1.36,1.36,1.27,1.16,-1.94,-1.94,-1.94
403.72,-3.26,-1.31,-3.27,-1.32,1.33,1.26,1.16,-1.93,-1.94,-1.95
407.76,-3.24,-1.27,-3.25,-1.29,1.31,1.24,1.16,-1.93,-1.94,-1.97
411.84,-3.25,-1.27,-3.25,-1.27,1.29,1.22,1.16,-1.96,-1.96,-1.98
415.96,-3.25,-1.26,-3.25,-1.26,1.27,1.21,1.16,-1.98,-1.98,-1.99
420.12,-3.25,-1.26,-3.25,-1.26,1.26,1.19,1.16,-1.99,-1.99,-1.99
424.32,-3.24,-1.24,-3.24,-1.25,1.25,1.17,1.16,-1.99,-2.00,-2.00
428.56,-3.23,-1.23,-3.23,-1.24,1.24,1.15,1.15,-1.99,-1.99,-2.00
