frequency,raw,error,smoothed,error_smoothed,equalization,parametric_eq,fixed_band_eq,equalized_raw,equalized_smoothed,target
20.00,13.31,11.34,13.32,11.36,-11.38,-11.18,-4.43,1.93,1.95,1.97
20.20,13.30,11.33,13.27,11.30,-11.31,-11.09,-4.54,1.99,1.97,1.97
20.40,13.22,11.25,13.22,11.24,-11.23,-11.00,-4.66,1.98,1.98,1.97
20.61,13.15,11.18,13.15,11.18,-11.16,-10.92,-4.79,1.99,1.99,1.97
20.81,13.07,11.09,13.07,11.10,-11.08,-10.84,-4.91,1.98,1.98,1.97
21.02,12.99,11.01,12.99,11.02,-11.01,-10.76,-5.04,1.98,1.98,1.97
21.23,12.92,10.94,12.91,10.93,-10.93,-10.68,-5.18,1.98,1.98,1.98
21.44,12.83,10.85,12.83,10.85,-10.86,-10.61,-5.32,1.97,1.97,1.98
21.66,12.75,10.77,12.75,10.77,-10.78,-10.54,-5.46,1.97,1.97,1.98
21.87,12.68,10.70,12.67,10.69,-10.70,-10.47,-5.60,1.98,1.98,1.98
22.09,12.60,10.62,12.60,10.62,-10.62,-10.40,-5.75,1.98,1.98,1.98
22.31,12.54,10.55,12.53,10.55,-10.54,-10.33,-5.91,1.99,1.98,1.98
22.54,12.45,10.46,12.46,10.47,-10.47,-10.27,-6.07,1.98,1.99,1.98
22.76,12.39,10.40,12.38,10.40,-10.40,-10.21,-6.23,1.99,1.99,1.99
22.99,12.31,10.32,12.31,10.32,-10.32,-10.15,-6.39,1.98,1.99,1.99
23.22,12.24,10.25,12.24,10.25,-10.25,-10.09,-6.56,1.99,1.99,1.99
23.45,12.18,10.19,12.17,10.18,-10.18,-10.04,-6.74,2.00,1.99,1.99
23.69,12.10,10.11,12.10,10.11,-10.11,-9.99,-6.92,1.99,1.99,1.99
23.92,12.04,10.04,12.03,10.04,-10.04,-9.94,-7.10,2.00,1.99,1.99
24.16,11.97,9.97,11.97,9.98,-9.97,-9.89,-7.29,1.99,2.00,1.99
24.40,11.90,9.90,11.90,9.91,-9.91,-9.84,-7.48,1.99,2.00,2.00
24.65,11.86,9.86,11.84,9.84,-9.84,-9.80,-7.67,2.01,1.99,2.00
24.89,11.76,9.76,11.77,9.78,-9.78,-9.76,-7.87,1.98,1.99,2.00
25.14,11.72,9.72,11.72,9.72,-9.72,-9.72,-8.07,2.00,2.00,2.00
25.39,11.67,9.67,11.66,9.66,-9.66,-9.68,-8.27,2.01,2.00,2.00
25.65,11.62,9.62,11.61,9.61,-9.60,-9.65,-8.48,2.01,2.01,2.00
25.91,11.56,9.56,11.56,9.55,-9.55,-9.62,-8.68,2.01,2.01,2.00
26.16,11.49,9.48,11.50,9.49,-9.50,-9.58,-8.89,1.99,2.00,2.01
26.43,11.46,9.45,11.45,9.44,-9.45,-9.56,-9.10,2.01,2.00,2.01
26.69,11.40,9.39,11.40,9.40,-9.40,-9.53,-9.31,2.00,2.01,2.01
26.96,11.37,9.36,11.37,9.36,-9.35,-9.50,-9.52,2.02,2.02,2.01
27.23,11.32,9.31,11.32,9.31,-9.31,-9.48,-9.73,2.01,2.01,2.01
27.50,11.29,9.28,11.28,9.27,-9.26,-9.46,-9.94,2.03,2.02,2.01
27.77,11.23,9.21,11.24,9.22,-9.22,-9.44,-10.14,2.00,2.01,2.01
28.05,11.20,9.18,11.20,9.19,-9.19,-9.42,-10.33,2.01,2.01,2.01
28.33,11.18,9.16,11.17,9.15,-9.16,-9.40,-10.52,2.02,2.01,2.02
28.62,11.14,9.12,11.15,9.13,-9.13,-9.39,-10.70,2.01,2.01,2.02
28.90,11.13,9.11,11.12,9.10,-9.11,-9.37,-10.87,2.02,2.02,2.02
29.19,11.11,9.09,11.10,9.08,-9.09,-9.36,-11.03,2.02,2.02,2.02
29.48,11.09,9.07,11.10,9.08,-9.07,-9.35,-11.18,2.02,2.03,2.02
29.78,11.09,9.06,11.08,9.06,-9.05,-9.34,-11.32,2.03,2.03,2.02
30.08,11.09,9.06,11.07,9.04,-9.04,-9.33,-11.44,2.05,2.03,2.02
30.38,11.04,9.01,11.05,9.03,-9.03,-9.33,-11.54,2.01,2.02,2.03
30.68,11.04,9.01,11.04,9.01,-9.02,-9.32,-11.62,2.02,2.02,2.03
30.99,11.04,9.01,11.03,9.00,-9.01,-9.32,-11.69,2.03,2.02,2.03
31.30,11.04,9.01,11.04,9.01,-9.00,-9.31,-11.74,2.03,2.03,2.03
31.61,11.04,9.01,11.04,9.01,-9.00,-9.31,-11.77,2.04,2.04,2.03
31.93,11.04,9.01,11.04,9.01,-9.00,-9.31,-11.79,2.04,2.04,2.03
32.24,11.04,9.00,11.03,9.00,-9.00,-9.31,-11.78,2.03,2.03,2.03
32.57,11.04,9.00,11.04,9.00,-9.01,-9.32,-11.76,2.03,2.03,2.04
32.89,11.04,9.00,11.05,9.01,-9.02,-9.32,-11.73,2.02,2.03,2.04
33.22,11.09,9.05,11.07,9.03,-9.03,-9.32,-11.67,2.05,2.04,2.04
33.55,11.09,9.05,11.09,9.05,-9.05,-9.33,-11.61,2.04,2.04,2.04
33.89,11.12,9.08,11.11,9.07,-9.07,-9.34,-11.54,2.05,2.05,2.04
34.23,11.13,9.09,11.13,9.09,-9.09,-9.34,-11.46,2.04,2.04,2.04
34.57,11.16,9.11,11.16,9.12,-9.12,-9.35,-11.36,2.04,2.04,2.04
34.92,11.19,9.14,11.19,9.14,-9.15,-9.36,-11.27,2.04,2.04,2.05
35.27,11.23,9.18,11.22,9.17,-9.18,-9.37,-11.16,2.05,2.05,2.05
35.62,11.25,9.20,11.26,9.21,-9.21,-9.38,-11.06,2.04,2.05,2.05
35.97,11.30,9.25,11.29,9.24,-9.24,-9.39,-10.95,2.06,2.05,2.05
36.33,11.34,9.29,11.33,9.28,-9.28,-9.41,-10.84,2.06,2.05,2.05
36.70,11.37,9.32,11.38,9.32,-9.32,-9.42,-10.73,2.04,2.05,2.05
37.06,11.42,9.36,11.42,9.36,-9.37,-9.43,-10.62,2.05,2.05,2.05
37.43,11.47,9.41,11.46,9.41,-9.41,-9.45,-10.51,2.06,2.05,2.05
37.81,11.51,9.45,11.51,9.46,-9.46,-9.46,-10.41,2.05,2.06,2.06
38.19,11.56,9.50,11.56,9.50,-9.50,-9.48,-10.31,2.05,2.06,2.06
38.57,11.62,9.56,11.61,9.56,-9.55,-9.50,-10.21,2.07,2.06,2.06
38.95,11.67,9.61,11.67,9.61,-9.60,-9.51,-10.12,2.07,2.06,2.06
39.34,11.72,9.66,11.72,9.65,-9.65,-9.53,-10.03,2.06,2.06,2.06
39.74,11.76,9.69,11.76,9.70,-9.71,-9.55,-9.95,2.05,2.06,2.06
40.14,11.82,9.75,11.82,9.75,-9.76,-9.57,-9.88,2.06,2.06,2.06
40.54,11.88,9.81,11.88,9.81,-9.81,-9.58,-9.81,2.07,2.07,2.07
40.94,11.94,9.87,11.94,9.87,-9.86,-9.60,-9.74,2.07,2.07,2.07
41.35,12.00,9.93,11.99,9.92,-9.92,-9.62,-9.69,2.08,2.07,2.07
41.76,12.04,9.97,12.04,9.97,-9.97,-9.64,-9.63,2.07,2.07,2.07
42.18,12.09,10.02,12.09,10.02,-10.03,-9.66,-9.59,2.06,2.06,2.07
42.60,12.14,10.07,12.15,10.07,-10.08,-9.68,-9.55,2.06,2.07,2.07
43.03,12.21,10.13,12.20,10.13,-10.13,-9.70,-9.52,2.08,2.07,2.07
43.46,12.27,10.19,12.26,10.18,-10.18,-9.72,-9.50,2.09,2.08,2.08
43.90,12.30,10.22,12.31,10.23,-10.22,-9.74,-9.48,2.07,2.08,2.08
44.33,12.36,10.28,12.35,10.27,-10.27,-9.76,-9.47,2.09,2.08,2.08
44.78,12.39,10.31,12.39,10.31,-10.32,-9.78,-9.47,2.07,2.07,2.08
45.23,12.44,10.36,12.44,10.35,-10.36,-9.80,-9.47,2.08,2.08,2.08
45.68,12.47,10.39,12.48,10.40,-10.40,-9.82,-9.48,2.07,2.08,2.08
46.13,12.53,10.44,12.52,10.43,-10.43,-9.84,-9.50,2.10,2.09,2.08
46.60,12.56,10.47,12.55,10.47,-10.47,-9.86,-9.52,2.09,2.09,2.09
47.06,12.58,10.49,12.59,10.50,-10.50,-9.88,-9.55,2.08,2.09,2.09
47.53,12.62,10.53,12.61,10.53,-10.53,-9.90,-9.59,2.09,2.08,2.09
48.01,12.65,10.56,12.65,10.56,-10.56,-9.92,-9.63,2.09,2.09,2.09
48.49,12.67,10.58,12.68,10.58,-10.58,-9.94,-9.68,2.09,2.09,2.09
48.97,12.71,10.62,12.70,10.61,-10.60,-9.96,-9.73,2.10,2.09,2.09
49.46,12.72,10.62,12.72,10.63,-10.62,-9.98,-9.79,2.09,2.10,2.09
49.96,12.74,10.64,12.74,10.65,-10.64,-10.00,-9.86,2.10,2.10,2.09
50.46,12.76,10.66,12.75,10.65,-10.66,-10.01,-9.93,2.10,2.09,2.10
50.96,12.76,10.66,12.76,10.66,-10.67,-10.03,-10.00,2.09,2.09,2.10
51.47,12.76,10.66,12.78,10.68,-10.68,-10.05,-10.08,2.07,2.09,2.10
51.99,12.81,10.71,12.79,10.69,-10.69,-10.06,-10.16,2.11,2.10,2.10
52.51,12.81,10.71,12.81,10.70,-10.70,-10.08,-10.25,2.11,2.11,2.10
53.03,12.81,10.70,12.81,10.71,-10.70,-10.10,-10.34,2.11,2.11,2.10
53.56,12.81,10.70,12.81,10.71,-10.70,-10.11,-10.42,2.11,2.11,2.10
54.10,12.81,10.70,12.81,10.70,-10.70,-10.12,-10.51,2.11,2.11,2.11
54.64,12.81,10.70,12.80,10.69,-10.69,-10.14,-10.60,2.12,2.11,2.11
55.18,12.79,10.68,12.78,10.68,-10.68,-10.15,-10.69,2.11,2.10,2.11
55.74,12.76,10.65,12.77,10.66,-10.67,-10.16,-10.77,2.09,2.10,2.11
56.29,12.76,10.65,12.76,10.65,-10.66,-10.17,-10.86,2.10,2.10,2.11
56.86,12.76,10.65,12.75,10.64,-10.64,-10.18,-10.94,2.12,2.11,2.11
57.42,12.75,10.63,12.75,10.63,-10.62,-10.19,-11.01,2.12,2.12,2.11
58.00,12.72,10.60,12.73,10.61,-10.61,-10.20,-11.07,2.11,2.12,2.12
58.58,12.72,10.60,12.71,10.59,-10.58,-10.21,-11.13,2.13,2.12,2.12
59.16,12.67,10.55,12.68,10.56,-10.56,-10.21,-11.18,2.11,2.12,2.12
59.76,12.67,10.55,12.65,10.53,-10.53,-10.22,-11.22,2.13,2.12,2.12
60.35,12.62,10.50,12.62,10.50,-10.51,-10.22,-11.25,2.11,2.12,2.12
60.96,12.59,10.47,12.60,10.48,-10.48,-10.22,-11.27,2.11,2.12,2.12
61.57,12.58,10.45,12.56,10.44,-10.44,-10.23,-11.28,2.14,2.12,2.12
62.18,12.53,10.40,12.53,10.41,-10.41,-10.23,-11.28,2.12,2.12,2.13
62.80,12.50,10.37,12.50,10.37,-10.37,-10.23,-11.26,2.12,2.13,2.13
63.43,12.47,10.34,12.47,10.34,-10.34,-10.22,-11.23,2.13,2.13,2.13
64.07,12.44,10.31,12.44,10.31,-10.30,-10.22,-11.19,2.13,2.13,2.13
64.71,12.41,10.28,12.40,10.27,-10.27,-10.22,-11.13,2.14,2.13,2.13
65.35,12.35,10.22,12.36,10.23,-10.23,-10.21,-11.07,2.12,2.13,2.13
66.01,12.32,10.18,12.32,10.19,-10.19,-10.20,-10.99,2.13,2.13,2.13
66.67,12.29,10.15,12.28,10.15,-10.15,-10.20,-10.91,2.14,2.13,2.13
67.33,12.25,10.11,12.25,10.11,-10.11,-10.19,-10.81,2.14,2.14,2.14
68.01,12.21,10.07,12.21,10.07,-10.07,-10.17,-10.71,2.14,2.14,2.14
68.69,12.17,10.03,12.17,10.03,-10.03,-10.16,-10.60,2.14,2.14,2.14
69.37,12.12,9.98,12.12,9.98,-9.98,-10.15,-10.49,2.13,2.14,2.14
70.07,12.09,9.95,12.08,9.94,-9.94,-10.13,-10.37,2.15,2.14,2.14
70.77,12.04,9.89,12.04,9.90,-9.90,-10.12,-10.24,2.14,2.14,2.14
71.48,12.00,9.85,12.00,9.85,-9.85,-10.10,-10.12,2.15,2.15,2.14
72.19,11.95,9.80,11.95,9.81,-9.81,-10.08,-9.99,2.14,2.14,2.15
72.91,11.92,9.77,11.91,9.76,-9.76,-10.06,-9.86,2.15,2.15,2.15
73.64,11.86,9.71,11.86,9.72,-9.72,-10.03,-9.74,2.14,2.14,2.15
74.38,11.83,9.68,11.82,9.67,-9.68,-10.01,-9.61,2.15,2.15,2.15
75.12,11.78,9.63,11.78,9.63,-9.63,-9.98,-9.49,2.14,2.15,2.15
75.87,11.75,9.59,11.75,9.60,-9.59,-9.95,-9.37,2.16,2.16,2.15
76.63,11.72,9.56,11.71,9.55,-9.55,-9.93,-9.25,2.17,2.16,2.15
77.40,11.66,9.50,11.66,9.51,-9.51,-9.89,-9.13,2.15,2.16,2.16
78.17,11.62,9.46,11.62,9.46,-9.46,-9.86,-9.02,2.15,2.16,2.16
78.95,11.58,9.42,11.58,9.42,-9.42,-9.83,-8.91,2.15,2.16,2.16
79.74,11.55,9.39,11.54,9.38,-9.38,-9.79,-8.81,2.16,2.16,2.16
80.54,11.51,9.35,11.50,9.34,-9.34,-9.76,-8.71,2.16,2.16,2.16
81.35,11.46,9.30,11.46,9.30,-9.31,-9.72,-8.62,2.15,2.16,2.16
82.16,11.43,9.26,11.43,9.26,-9.27,-9.68,-8.53,2.16,2.16,2.16
82.98,11.40,9.23,11.40,9.23,-9.23,-9.64,-8.45,2.16,2.16,2.16
83.81,11.37,9.20,11.37,9.20,-9.20,-9.60,-8.38,2.17,2.17,2.17
84.65,11.34,9.17,11.34,9.17,-9.16,-9.55,-8.31,2.18,2.17,2.17
85.50,11.30,9.13,11.30,9.13,-9.13,-9.51,-8.24,2.17,2.17,2.17
86.35,11.27,9.10,11.26,9.09,-9.09,-9.46,-8.18,2.17,2.17,2.17
87.22,11.23,9.06,11.23,9.06,-9.06,-9.41,-8.13,2.17,2.17,2.17
88.09,11.19,9.01,11.20,9.03,-9.03,-9.36,-8.08,2.16,2.17,2.17
88.97,11.18,9.00,11.16,8.99,-8.99,-9.31,-8.04,2.19,2.17,2.17
89.86,11.13,8.95,11.13,8.96,-8.96,-9.26,-8.01,2.17,2.18,2.18
90.76,11.09,8.91,11.10,8.93,-8.92,-9.21,-7.98,2.16,2.18,2.18
91.66,11.09,8.91,11.07,8.89,-8.89,-9.16,-7.95,2.20,2.18,2.18
92.58,11.04,8.86,11.04,8.86,-8.86,-9.10,-7.93,2.18,2.18,2.18
93.51,11.00,8.82,11.01,8.83,-8.83,-9.05,-7.92,2.17,2.18,2.18
94.44,10.99,8.80,10.97,8.79,-8.80,-8.99,-7.91,2.19,2.18,2.18
95.39,10.95,8.76,10.95,8.76,-8.76,-8.93,-7.91,2.18,2.18,2.18
96.34,10.91,8.72,10.92,8.73,-8.73,-8.88,-7.92,2.18,2.19,2.19
97.30,10.90,8.71,10.88,8.70,-8.70,-8.82,-7.92,2.20,2.18,2.19
98.28,10.85,8.66,10.86,8.67,-8.67,-8.76,-7.94,2.18,2.19,2.19
99.26,10.82,8.63,10.83,8.64,-8.63,-8.70,-7.95,2.18,2.19,2.19
100.25,10.81,8.62,10.79,8.60,-8.60,-8.64,-7.97,2.21,2.19,2.19
101.25,10.76,8.57,10.76,8.57,-8.57,-8.58,-8.00,2.19,2.19,2.19
102.27,10.72,8.52,10.72,8.53,-8.53,-8.52,-8.02,2.19,2.19,2.19
103.29,10.69,8.49,10.69,8.49,-8.49,-8.46,-8.05,2.19,2.19,2.20
104.32,10.66,8.46,10.65,8.46,-8.46,-8.40,-8.08,2.20,2.20,2.20
105.37,10.62,8.42,10.62,8.42,-8.42,-8.34,-8.12,2.20,2.20,2.20
106.42,10.58,8.38,10.58,8.38,-8.38,-8.28,-8.15,2.20,2.20,2.20
107.48,10.54,8.34,10.54,8.34,-8.34,-8.22,-8.19,2.20,2.20,2.20
108.56,10.51,8.31,10.50,8.30,-8.30,-8.16,-8.22,2.21,2.20,2.20
109.64,10.46,8.25,10.46,8.25,-8.25,-8.10,-8.25,2.20,2.21,2.20
110.74,10.41,8.20,10.41,8.21,-8.21,-8.04,-8.29,2.20,2.20,2.20
111.85,10.37,8.16,10.36,8.16,-8.16,-7.98,-8.31,2.21,2.20,2.21
112.97,10.32,8.11,10.32,8.11,-8.11,-7.92,-8.34,2.20,2.20,2.21
114.10,10.27,8.06,10.27,8.06,-8.06,-7.86,-8.36,2.20,2.21,2.21
115.24,10.23,8.02,10.22,8.01,-8.01,-7.80,-8.37,2.22,2.21,2.21
116.39,10.18,7.97,10.18,7.96,-7.96,-7.75,-8.38,2.22,2.22,2.21
117.55,10.12,7.90,10.12,7.91,-7.90,-7.69,-8.38,2.21,2.21,2.21
118.73,10.07,7.85,10.06,7.84,-7.85,-7.64,-8.38,2.22,2.21,2.21
119.92,9.99,7.77,10.00,7.79,-7.79,-7.58,-8.36,2.20,2.21,2.22
121.12,9.95,7.73,9.95,7.73,-7.73,-7.53,-8.33,2.22,2.21,2.22
122.33,9.90,7.68,9.89,7.67,-7.67,-7.47,-8.30,2.23,2.22,2.22
123.55,9.83,7.61,9.83,7.61,-7.60,-7.42,-8.25,2.22,2.23,2.22
124.79,9.76,7.54,9.76,7.54,-7.54,-7.37,-8.20,2.22,2.23,2.22
126.03,9.70,7.47,9.69,7.47,-7.47,-7.31,-8.13,2.23,2.22,2.22
127.29,9.62,7.39,9.62,7.39,-7.40,-7.26,-8.05,2.22,2.22,2.22
128.57,9.54,7.31,9.54,7.32,-7.32,-7.20,-7.96,2.22,2.22,2.23
129.85,9.47,7.24,9.46,7.24,-7.24,-7.14,-7.86,2.23,2.22,2.23
131.15,9.39,7.16,9.39,7.16,-7.16,-7.08,-7.75,2.23,2.23,2.23
132.46,9.30,7.07,9.31,7.08,-7.07,-7.02,-7.64,2.23,2.24,2.23
133.79,9.23,7.00,9.22,6.99,-6.98,-6.95,-7.51,2.25,2.24,2.23
135.12,9.13,6.89,9.13,6.89,-6.89,-6.88,-7.37,2.24,2.24,2.23
136.48,9.02,6.78,9.03,6.79,-6.79,-6.81,-7.23,2.22,2.23,2.23
137.84,8.93,6.69,8.92,6.69,-6.69,-6.73,-7.08,2.23,2.23,2.24
139.22,8.82,6.58,8.82,6.58,-6.59,-6.65,-6.92,2.23,2.23,2.24
140.61,8.72,6.48,8.72,6.48,-6.48,-6.56,-6.76,2.24,2.24,2.24
142.02,8.61,6.37,8.61,6.37,-6.36,-6.46,-6.59,2.24,2.24,2.24
143.44,8.50,6.26,8.49,6.25,-6.25,-6.35,-6.42,2.25,2.24,2.24
144.87,8.37,6.13,8.37,6.13,-6.13,-6.24,-6.25,2.24,2.24,2.24
146.32,8.24,5.99,8.24,6.00,-6.00,-6.12,-6.07,2.24,2.24,2.24
147.78,8.12,5.87,8.11,5.87,-5.87,-5.99,-5.89,2.25,2.24,2.24
149.26,7.99,5.74,7.98,5.74,-5.74,-5.86,-5.71,2.25,2.25,2.25
150.75,7.84,5.59,7.85,5.60,-5.60,-5.71,-5.53,2.24,2.25,2.25
152.26,7.72,5.47,7.71,5.46,-5.46,-5.56,-5.35,2.26,2.25,2.25
153.78,7.56,5.31,7.57,5.31,-5.31,-5.40,-5.17,2.24,2.25,2.25
155.32,7.42,5.17,7.42,5.17,-5.16,-5.24,-4.99,2.25,2.26,2.25
156.88,7.28,5.02,7.26,5.01,-5.01,-5.07,-4.81,2.27,2.25,2.25
158.44,7.11,4.85,7.11,4.86,-4.86,-4.89,-4.63,2.25,2.25,2.25
160.03,6.94,4.68,6.95,4.69,-4.70,-4.71,-4.45,2.24,2.25,2.26
161.63,6.80,4.54,6.79,4.53,-4.53,-4.53,-4.28,2.26,2.26,2.26
163.24,6.63,4.37,6.63,4.37,-4.37,-4.34,-4.10,2.26,2.26,2.26
164.88,6.47,4.21,6.46,4.20,-4.20,-4.16,-3.93,2.27,2.26,2.26
166.53,6.28,4.02,6.29,4.03,-4.03,-3.97,-3.76,2.25,2.26,2.26
168.19,6.12,3.85,6.11,3.85,-3.85,-3.78,-3.59,2.26,2.26,2.26
169.87,5.94,3.67,5.94,3.68,-3.68,-3.59,-3.42,2.26,2.26,2.26
171.57,5.77,3.50,5.77,3.51,-3.50,-3.40,-3.25,2.27,2.27,2.27
173.29,5.60,3.33,5.59,3.32,-3.32,-3.21,-3.09,2.28,2.27,2.27
175.02,5.42,3.15,5.41,3.14,-3.14,-3.02,-2.92,2.28,2.27,2.27
176.77,5.21,2.94,5.22,2.95,-2.96,-2.84,-2.76,2.25,2.27,2.27
178.54,5.04,2.77,5.04,2.77,-2.77,-2.66,-2.60,2.26,2.27,2.27
180.32,4.87,2.59,4.86,2.59,-2.59,-2.48,-2.45,2.28,2.27,2.27
182.13,4.69,2.41,4.68,2.41,-2.41,-2.30,-2.29,2.28,2.28,2.27
183.95,4.50,2.22,4.50,2.22,-2.22,-2.13,-2.14,2.28,2.28,2.28
185.79,4.31,2.03,4.31,2.04,-2.04,-1.96,-1.99,2.27,2.27,2.28
187.65,4.14,1.86,4.13,1.86,-1.86,-1.79,-1.84,2.28,2.27,2.28
189.52,3.96,1.68,3.96,1.68,-1.68,-1.63,-1.69,2.28,2.28,2.28
191.42,3.79,1.51,3.79,1.51,-1.50,-1.47,-1.54,2.28,2.28,2.28
193.33,3.62,1.34,3.61,1.33,-1.33,-1.31,-1.40,2.29,2.28,2.28
195.27,3.44,1.15,3.44,1.16,-1.16,-1.16,-1.25,2.28,2.28,2.28
197.22,3.28,0.99,3.27,0.99,-0.99,-1.01,-1.11,2.29,2.28,2.28
199.19,3.11,0.82,3.11,0.83,-0.83,-0.87,-0.98,2.28,2.29,2.29
201.18,2.96,0.67,2.96,0.67,-0.67,-0.73,-0.84,2.29,2.29,2.29
203.19,2.81,0.52,2.80,0.51,-0.51,-0.59,-0.71,2.29,2.29,2.29
205.23,2.65,0.36,2.65,0.36,-0.37,-0.46,-0.57,2.28,2.29,2.29
207.28,2.51,0.22,2.51,0.22,-0.22,-0.34,-0.44,2.29,2.29,2.29
209.35,2.39,0.09,2.38,0.09,-0.08,-0.22,-0.32,2.30,2.30,2.29
211.44,2.26,-0.04,2.25,-0.04,0.05,-0.10,-0.19,2.30,2.30,2.29
213.56,2.12,-0.18,2.13,-0.17,0.17,0.01,-0.07,2.29,2.30,2.30
215.69,2.00,-0.30,2.01,-0.29,0.29,0.12,0.04,2.29,2.30,2.30
217.85,1.91,-0.39,1.89,-0.40,0.40,0.22,0.16,2.31,2.29,2.30
220.03,1.80,-0.50,1.80,-0.50,0.50,0.32,0.27,2.30,2.30,2.30
222.23,1.69,-0.61,1.70,-0.60,0.60,0.41,0.37,2.29,2.30,2.30
224.45,1.63,-0.68,1.62,-0.69,0.68,0.50,0.47,2.31,2.30,2.30
226.70,1.54,-0.77,1.54,-0.76,0.76,0.58,0.57,2.30,2.30,2.30
228.96,1.48,-0.83,1.48,-0.83,0.83,0.66,0.66,2.31,2.31,2.31
231.25,1.42,-0.89,1.42,-0.89,0.89,0.73,0.74,2.31,2.31,2.31
233.57,1.37,-0.94,1.36,-0.95,0.94,0.80,0.82,2.31,2.31,2.31
235.90,1.31,-1.00,1.31,-1.00,0.99,0.86,0.90,2.30,2.30,2.31
238.26,1.28,-1.03,1.28,-1.03,1.02,0.92,0.97,2.30,2.31,2.31
240.64,1.26,-1.05,1.26,-1.05,1.05,0.97,1.03,2.31,2.31,2.31
243.05,1.26,-1.06,1.24,-1.07,1.08,1.01,1.08,2.33,2.32,2.31
245.48,1.22,-1.10,1.23,-1.09,1.09,1.05,1.13,2.31,2.32,2.32
247.93,1.22,-1.10,1.22,-1.10,1.10,1.08,1.17,2.32,2.32,2.32
250.41,1.22,-1.10,1.21,-1.11,1.10,1.11,1.21,2.32,2.31,2.32
252.92,1.22,-1.10,1.22,-1.10,1.10,1.13,1.24,2.32,2.32,2.32
255.45,1.22,-1.10,1.23,-1.09,1.09,1.14,1.26,2.31,2.32,2.32
258.00,1.26,-1.06,1.24,-1.08,1.08,1.15,1.27,2.34,2.32,2.32
260.58,1.26,-1.07,1.26,-1.06,1.06,1.15,1.28,2.32,2.33,2.32
263.19,1.28,-1.05,1.28,-1.04,1.05,1.15,1.28,2.32,2.33,2.32
265.82,1.31,-1.02,1.30,-1.03,1.02,1.14,1.28,2.33,2.32,2.33
268.48,1.32,-1.01,1.33,-1.00,1.00,1.12,1.27,2.32,2.33,2.33
271.16,1.36,-0.97,1.35,-0.98,0.98,1.10,1.25,2.34,2.33,2.33
273.87,1.38,-0.95,1.38,-0.95,0.95,1.08,1.23,2.33,2.33,2.33
276.61,1.40,-0.93,1.40,-0.93,0.93,1.05,1.21,2.33,2.33,2.33
279.38,1.44,-0.90,1.43,-0.90,0.90,1.01,1.18,2.34,2.33,2.33
282.17,1.45,-0.89,1.46,-0.88,0.88,0.97,1.15,2.33,2.34,2.33
284.99,1.50,-0.84,1.49,-0.85,0.85,0.93,1.11,2.35,2.34,2.34
287.84,1.51,-0.83,1.51,-0.82,0.83,0.88,1.07,2.33,2.34,2.34
290.72,1.54,-0.80,1.54,-0.80,0.80,0.83,1.03,2.34,2.34,2.34
293.63,1.57,-0.77,1.56,-0.78,0.77,0.78,0.98,2.34,2.33,2.34
296.57,1.59,-0.75,1.60,-0.74,0.74,0.73,0.93,2.33,2.34,2.34
299.53,1.63,-0.71,1.63,-0.72,0.72,0.68,0.88,2.34,2.34,2.34
302.53,1.67,-0.68,1.66,-0.68,0.69,0.63,0.83,2.36,2.35,2.34
305.55,1.68,-0.67,1.69,-0.66,0.66,0.58,0.77,2.34,2.35,2.35
308.61,1.73,-0.62,1.72,-0.63,0.63,0.54,0.72,2.36,2.35,2.35
311.69,1.74,-0.61,1.75,-0.60,0.60,0.50,0.66,2.34,2.35,2.35
314.81,1.78,-0.57,1.78,-0.57,0.57,0.46,0.60,2.35,2.35,2.35
317.96,1.82,-0.53,1.81,-0.54,0.55,0.43,0.55,2.36,2.35,2.35
321.14,1.83,-0.52,1.84,-0.51,0.52,0.40,0.49,2.35,2.36,2.35
324.35,1.87,-0.49,1.86,-0.49,0.49,0.38,0.43,2.36,2.35,2.35
327.59,1.89,-0.47,1.89,-0.47,0.46,0.36,0.37,2.35,2.35,2.36
330.87,1.92,-0.44,1.92,-0.43,0.43,0.35,0.31,2.35,2.35,2.36
334.18,1.96,-0.40,1.95,-0.41,0.40,0.34,0.25,2.36,2.35,2.36
337.52,1.99,-0.37,1.99,-0.37,0.37,0.33,0.19,2.36,2.36,2.36
340.90,2.02,-0.34,2.02,-0.34,0.34,0.33,0.12,2.36,2.36,2.36
344.30,2.06,-0.30,2.06,-0.30,0.31,0.33,0.06,2.36,2.36,2.36
347.75,2.10,-0.27,2.09,-0.27,0.27,0.33,0.00,2.37,2.37,2.36
351.23,2.13,-0.24,2.13,-0.24,0.24,0.32,-0.06,2.37,2.37,2.36
354.74,2.16,-0.21,2.16,-0.21,0.21,0.32,-0.12,2.36,2.37,2.37
358.28,2.20,-0.17,2.19,-0.17,0.17,0.31,-0.18,2.37,2.37,2.37
361.87,2.23,-0.14,2.23,-0.14,0.14,0.30,-0.24,2.37,2.37,2.37
365.49,2.27,-0.10,2.27,-0.10,0.10,0.29,-0.30,2.37,2.37,2.37
369.14,2.31,-0.06,2.31,-0.07,0.07,0.26,-0.36,2.37,2.37,2.37
372.83,2.34,-0.04,2.35,-0.03,0.03,0.23,-0.42,2.37,2.37,2.37
376.56,2.40,0.02,2.39,0.01,-0.01,0.19,-0.49,2.39,2.38,2.37
380.33,2.43,0.05,2.43,0.06,-0.05,0.14,-0.55,2.37,2.38,2.38
384.13,2.48,0.10,2.48,0.10,-0.10,0.08,-0.61,2.38,2.38,2.38
387.97,2.54,0.16,2.53,0.15,-0.15,0.01,-0.66,2.39,2.38,2.38
391.85,2.59,0.21,2.59,0.21,-0.21,-0.08,-0.72,2.38,2.38,2.38
395.77,2.65,0.27,2.65,0.27,-0.27,-0.18,-0.78,2.38,2.38,2.38
399.73,2.72,0.33,2.72,0.34,-0.34,-0.29,-0.84,2.38,2.38,2.38
403.72,2.80,0.41,2.80,0.42,-0.42,-0.41,-0.90,2.38,2.38,2.38
407.76,2.90,0.51,2.89,0.51,-0.50,-0.55,-0.95,2.39,2.39,2.39
411.84,2.99,0.60,2.99,0.60,-0.60,-0.71,-1.01,2.39,2.39,2.39
415.96,3.10,0.71,3.10,0.71,-0.71,-0.88,-1.06,2.39,2.39,2.39
420.12,3.22,0.83,3.22,0.83,-0.84,-1.06,-1.12,2.38,2.38,2.39
424.32,3.36,0.97,3.36,0.97,-0.97,-1.26,-1.17,2.39,2.39,2.39
428.56,3.52,1.13,3.51,1.12,-1.12,-1.47,-1.22,2.39,2.39,2.39
432.85,3.69,1.29,3.68,1.29,-1.29,-1.70,-1.26,2.40,2.39,2.39
437.18,3.86,1.46,3.86,1.47,-1.47,-1.93,-1.31,2.39,2.39,2.40
441.55,4.06,1.66,4.06,1.67,-1.67,-2.17,-1.35,2.39,2.39,2.40
445.96,4.28,1.88,4.27,1.87,-1.89,-2.41,-1.39,2.39,2.38,2.40
450.42,4.51,2.11,4.50,2.10,-2.12,-2.64,-1.43,2.39,2.39,2.40
454.93,4.73,2.33,4.75,2.35,-2.36,-2.87,-1.47,2.37,2.39,2.40
459.48,5.01,2.61,5.00,2.60,-2.61,-3.09,-1.50,2.40,2.39,2.40
464.07,5.27,2.86,5.26,2.85,-2.87,-3.28,-1.53,2.40,2.39,2.40
468.71,5.50,3.09,5.52,3.11,-3.12,-3.44,-1.55,2.37,2.39,2.40
473.40,5.77,3.36,5.77,3.36,-3.37,-3.56,-1.57,2.39,2.39,2.41
478.13,6.01,3.60,6.00,3.60,-3.61,-3.64,-1.59,2.40,2.40,2.41
482.91,6.22,3.81,6.22,3.81,-3.81,-3.67,-1.60,2.41,2.41,2.41
487.74,6.39,3.98,6.39,3.98,-3.97,-3.65,-1.61,2.42,2.43,2.41
492.62,6.52,4.11,6.52,4.11,-4.08,-3.58,-1.61,2.44,2.45,2.41
