frequency,raw,error,smoothed,error_smoothed,equalization,parametric_eq,fixed_band_eq,equalized_raw,equalized_smoothed,target
20.00,2.52,-2.21,2.52,-2.21,2.21,2.17,0.33,4.73,4.74,4.74
20.20,2.58,-2.19,2.58,-2.19,2.20,2.16,0.34,4.78,4.78,4.78
20.40,2.63,-2.18,2.64,-2.17,2.18,2.14,0.35,4.81,4.81,4.82
20.61,2.69,-2.14,2.69,-2.15,2.16,2.11,0.36,4.85,4.85,4.84
20.81,2.74,-2.13,2.75,-2.13,2.13,2.09,0.37,4.88,4.88,4.88
21.02,2.80,-2.11,2.80,-2.11,2.11,2.06,0.38,4.91,4.91,4.92
21.23,2.85,-2.08,2.86,-2.08,2.08,2.03,0.40,4.93,4.93,4.94
21.44,2.91,-2.04,2.91,-2.05,2.04,1.99,0.41,4.96,4.95,4.96
21.66,2.96,-2.01,2.97,-2.01,2.01,1.95,0.42,4.97,4.97,4.98
21.87,3.02,-1.96,3.02,-1.97,1.97,1.91,0.44,4.99,4.99,4.99
22.09,3.07,-1.93,3.08,-1.92,1.92,1.87,0.45,5.00,5.00,5.00
22.31,3.13,-1.88,3.13,-1.88,1.88,1.83,0.47,5.01,5.01,5.01
22.54,3.18,-1.83,3.18,-1.83,1.83,1.78,0.48,5.01,5.02,5.01
22.76,3.23,-1.79,3.24,-1.78,1.78,1.74,0.50,5.02,5.02,5.02
22.99,3.29,-1.73,3.29,-1.74,1.74,1.69,0.51,5.03,5.03,5.02
23.22,3.34,-1.69,3.35,-1.69,1.69,1.64,0.53,5.03,5.04,5.03
23.45,3.40,-1.64,3.40,-1.64,1.64,1.59,0.54,5.05,5.05,5.04
23.69,3.46,-1.59,3.46,-1.60,1.60,1.55,0.56,5.06,5.06,5.05
23.92,3.51,-1.56,3.52,-1.56,1.56,1.50,0.58,5.07,5.07,5.07
24.16,3.57,-1.52,3.57,-1.52,1.51,1.45,0.60,5.09,5.08,5.09
24.40,3.62,-1.48,3.62,-1.47,1.47,1.40,0.61,5.10,5.10,5.10
24.65,3.67,-1.43,3.68,-1.43,1.43,1.35,0.63,5.10,5.11,5.10
24.89,3.73,-1.39,3.73,-1.39,1.39,1.30,0.65,5.12,5.12,5.12
25.14,3.78,-1.35,3.78,-1.34,1.34,1.25,0.67,5.13,5.13,5.13
25.39,3.83,-1.30,3.84,-1.30,1.30,1.21,0.68,5.14,5.14,5.14
25.65,3.89,-1.26,3.89,-1.26,1.26,1.16,0.70,5.15,5.15,5.15
25.91,3.94,-1.22,3.94,-1.21,1.22,1.12,0.72,5.16,5.16,5.16
26.16,3.99,-1.17,4.00,-1.17,1.17,1.07,0.74,5.17,5.17,5.17
26.43,4.05,-1.12,4.05,-1.13,1.13,1.03,0.75,5.18,5.18,5.18
26.69,4.10,-1.09,4.10,-1.09,1.09,0.98,0.77,5.19,5.19,5.20
26.96,4.15,-1.05,4.15,-1.05,1.05,0.94,0.78,5.20,5.20,5.21
27.23,4.20,-1.01,4.21,-1.01,1.01,0.90,0.80,5.21,5.21,5.21
27.50,4.26,-0.97,4.26,-0.97,0.97,0.86,0.81,5.23,5.23,5.23
27.77,4.31,-0.92,4.31,-0.92,0.93,0.82,0.83,5.24,5.24,5.23
28.05,4.36,-0.89,4.37,-0.88,0.89,0.78,0.84,5.25,5.25,5.25
28.33,4.41,-0.84,4.41,-0.84,0.85,0.74,0.85,5.26,5.26,5.25
28.62,4.46,-0.81,4.46,-0.81,0.81,0.70,0.86,5.27,5.27,5.27
28.90,4.50,-0.78,4.51,-0.77,0.77,0.67,0.87,5.28,5.28,5.28
29.19,4.55,-0.74,4.55,-0.74,0.73,0.63,0.87,5.29,5.29,5.29
29.48,4.60,-0.70,4.60,-0.70,0.70,0.60,0.88,5.30,5.30,5.31
29.78,4.65,-0.66,4.65,-0.66,0.66,0.56,0.88,5.32,5.32,5.32
30.08,4.70,-0.62,4.70,-0.63,0.63,0.53,0.88,5.33,5.33,5.33
30.38,4.74,-0.59,4.75,-0.59,0.59,0.50,0.88,5.33,5.34,5.34
30.68,4.79,-0.55,4.79,-0.55,0.55,0.47,0.88,5.35,5.34,5.34
30.99,4.83,-0.52,4.83,-0.52,0.52,0.44,0.87,5.35,5.35,5.35
31.30,4.87,-0.49,4.88,-0.49,0.49,0.41,0.87,5.36,5.36,5.36
31.61,4.92,-0.46,4.92,-0.45,0.45,0.38,0.86,5.38,5.37,5.38
31.93,4.96,-0.42,4.96,-0.42,0.42,0.35,0.85,5.39,5.38,5.38
32.24,5.00,-0.38,5.00,-0.39,0.39,0.32,0.83,5.40,5.39,5.39
32.57,5.03,-0.36,5.04,-0.36,0.36,0.29,0.82,5.40,5.40,5.40
32.89,5.07,-0.34,5.07,-0.34,0.34,0.26,0.80,5.41,5.41,5.42
33.22,5.10,-0.31,5.11,-0.31,0.31,0.24,0.78,5.41,5.42,5.41
33.55,5.14,-0.29,5.14,-0.28,0.28,0.21,0.76,5.43,5.43,5.43
33.89,5.18,-0.25,5.18,-0.25,0.25,0.19,0.74,5.44,5.44,5.43
34.23,5.21,-0.23,5.22,-0.23,0.23,0.16,0.71,5.44,5.45,5.45
34.57,5.25,-0.19,5.25,-0.20,0.20,0.14,0.69,5.45,5.45,5.45
34.92,5.28,-0.17,5.28,-0.17,0.17,0.11,0.66,5.45,5.45,5.45
35.27,5.31,-0.15,5.32,-0.14,0.14,0.09,0.63,5.45,5.46,5.46
35.62,5.35,-0.11,5.35,-0.11,0.11,0.06,0.60,5.47,5.46,5.46
35.97,5.38,-0.07,5.38,-0.08,0.08,0.04,0.57,5.47,5.46,5.46
36.33,5.41,-0.06,5.42,-0.05,0.05,0.02,0.54,5.46,5.47,5.48
36.70,5.45,-0.02,5.45,-0.02,0.02,-0.00,0.51,5.47,5.47,5.47
37.06,5.48,0.02,5.48,0.01,-0.01,-0.03,0.47,5.47,5.47,5.46
37.43,5.51,0.04,5.51,0.05,-0.04,-0.05,0.44,5.47,5.47,5.47
37.81,5.54,0.08,5.54,0.08,-0.08,-0.07,0.40,5.47,5.47,5.47
38.19,5.57,0.11,5.57,0.11,-0.11,-0.09,0.37,5.46,5.47,5.46
38.57,5.60,0.13,5.60,0.14,-0.14,-0.11,0.33,5.46,5.46,5.47
38.95,5.63,0.18,5.63,0.17,-0.17,-0.13,0.29,5.46,5.46,5.46
39.34,5.65,0.20,5.65,0.20,-0.20,-0.15,0.26,5.45,5.46,5.46
39.74,5.67,0.23,5.68,0.23,-0.23,-0.18,0.22,5.45,5.45,5.44
40.14,5.70,0.25,5.70,0.26,-0.25,-0.20,0.18,5.45,5.45,5.45
40.54,5.72,0.29,5.72,0.28,-0.28,-0.22,0.14,5.44,5.44,5.44
40.94,5.74,0.30,5.74,0.30,-0.30,-0.24,0.10,5.44,5.44,5.44
41.35,5.76,0.32,5.76,0.32,-0.33,-0.26,0.07,5.44,5.44,5.44
41.76,5.78,0.35,5.78,0.35,-0.35,-0.28,0.03,5.44,5.44,5.44
42.18,5.80,0.36,5.81,0.37,-0.37,-0.30,-0.01,5.43,5.44,5.44
42.60,5.83,0.40,5.83,0.39,-0.39,-0.32,-0.05,5.44,5.44,5.44
43.03,5.85,0.41,5.85,0.41,-0.42,-0.34,-0.09,5.44,5.44,5.44
43.46,5.87,0.44,5.88,0.44,-0.44,-0.36,-0.13,5.43,5.44,5.44
43.90,5.89,0.46,5.90,0.46,-0.46,-0.38,-0.17,5.43,5.43,5.43
44.33,5.92,0.49,5.92,0.49,-0.49,-0.39,-0.21,5.43,5.43,5.43
44.78,5.94,0.52,5.94,0.52,-0.52,-0.41,-0.24,5.43,5.43,5.42
45.23,5.96,0.53,5.97,0.54,-0.54,-0.43,-0.28,5.42,5.43,5.43
45.68,5.99,0.57,5.99,0.57,-0.56,-0.45,-0.32,5.43,5.43,5.42
46.13,6.02,0.60,6.02,0.59,-0.58,-0.47,-0.36,5.44,5.44,5.43
46.60,6.04,0.60,6.04,0.61,-0.60,-0.49,-0.40,5.44,5.44,5.44
47.06,6.06,0.63,6.06,0.62,-0.62,-0.51,-0.44,5.44,5.44,5.44
47.53,6.08,0.64,6.08,0.64,-0.64,-0.53,-0.48,5.44,5.44,5.44
48.01,6.10,0.65,6.10,0.66,-0.67,-0.55,-0.52,5.44,5.44,5.45
48.49,6.12,0.68,6.12,0.68,-0.69,-0.57,-0.56,5.43,5.43,5.45
48.97,6.14,0.71,6.14,0.71,-0.72,-0.59,-0.60,5.43,5.43,5.43
49.46,6.16,0.74,6.17,0.74,-0.74,-0.61,-0.64,5.42,5.43,5.42
49.96,6.19,0.79,6.19,0.77,-0.77,-0.63,-0.68,5.43,5.42,5.41
50.46,6.21,0.79,6.21,0.80,-0.79,-0.65,-0.72,5.42,5.42,5.42
50.96,6.23,0.82,6.23,0.83,-0.82,-0.67,-0.76,5.42,5.41,5.41
51.47,6.24,0.85,6.25,0.85,-0.84,-0.69,-0.80,5.40,5.41,5.39
51.99,6.26,0.87,6.26,0.86,-0.86,-0.71,-0.84,5.40,5.40,5.39
52.51,6.27,0.88,6.27,0.88,-0.88,-0.73,-0.88,5.39,5.39,5.40
53.03,6.27,0.89,6.28,0.89,-0.90,-0.74,-0.92,5.37,5.38,5.39
53.56,6.29,0.92,6.29,0.92,-0.93,-0.76,-0.95,5.37,5.36,5.38
54.10,6.30,0.95,6.31,0.94,-0.95,-0.78,-0.99,5.35,5.36,5.36
54.64,6.32,0.98,6.32,0.98,-0.98,-0.80,-1.03,5.35,5.35,5.35
55.18,6.34,1.01,6.34,1.01,-1.01,-0.82,-1.06,5.34,5.33,5.34
55.74,6.35,1.04,6.36,1.04,-1.03,-0.84,-1.10,5.32,5.32,5.32
56.29,6.37,1.06,6.37,1.06,-1.06,-0.86,-1.13,5.31,5.31,5.32
56.86,6.38,1.09,6.38,1.09,-1.08,-0.88,-1.16,5.30,5.30,5.29
57.42,6.38,1.11,6.39,1.11,-1.10,-0.90,-1.19,5.28,5.29,5.27
58.00,6.38,1.12,6.38,1.12,-1.11,-0.92,-1.22,5.27,5.27,5.26
58.58,6.37,1.13,6.37,1.13,-1.12,-0.94,-1.25,5.25,5.25,5.25
59.16,6.36,1.13,6.36,1.13,-1.13,-0.97,-1.28,5.23,5.23,5.23
59.76,6.34,1.12,6.34,1.13,-1.13,-0.99,-1.30,5.21,5.21,5.22
60.35,6.32,1.13,6.32,1.13,-1.14,-1.01,-1.33,5.18,5.19,5.20
60.96,6.30,1.13,6.30,1.13,-1.14,-1.03,-1.35,5.16,5.16,5.17
61.57,6.28,1.15,6.29,1.15,-1.15,-1.05,-1.37,5.14,5.14,5.14
62.18,6.26,1.15,6.27,1.16,-1.15,-1.07,-1.38,5.11,5.11,5.11
62.80,6.25,1.17,6.25,1.16,-1.16,-1.09,-1.40,5.10,5.09,5.08
63.43,6.22,1.17,6.23,1.17,-1.16,-1.11,-1.42,5.06,5.06,5.06
64.07,6.20,1.17,6.21,1.17,-1.17,-1.13,-1.43,5.03,5.04,5.03
64.71,6.18,1.17,6.18,1.17,-1.17,-1.15,-1.44,5.01,5.01,5.01
65.35,6.16,1.18,6.16,1.17,-1.18,-1.17,-1.45,4.99,4.99,4.99
66.01,6.14,1.18,6.14,1.18,-1.18,-1.19,-1.46,4.97,4.96,4.97
66.67,6.11,1.18,6.12,1.18,-1.18,-1.21,-1.46,4.93,4.94,4.94
67.33,6.09,1.19,6.09,1.18,-1.18,-1.23,-1.47,4.91,4.91,4.91
68.01,6.07,1.19,6.07,1.19,-1.19,-1.25,-1.47,4.89,4.89,4.89
68.69,6.05,1.20,6.05,1.19,-1.19,-1.27,-1.48,4.86,4.86,4.86
69.37,6.03,1.20,6.04,1.20,-1.20,-1.29,-1.48,4.83,4.84,4.84
70.07,6.02,1.21,6.02,1.21,-1.21,-1.31,-1.48,4.82,4.81,4.81
70.77,6.00,1.21,6.01,1.22,-1.22,-1.33,-1.48,4.78,4.79,4.79
71.48,6.00,1.23,6.00,1.23,-1.24,-1.35,-1.48,4.77,4.76,4.77
72.19,5.99,1.25,5.99,1.25,-1.25,-1.37,-1.48,4.74,4.74,4.75
72.91,5.98,1.26,5.99,1.27,-1.27,-1.39,-1.48,4.71,4.72,4.72
73.64,5.99,1.30,5.99,1.29,-1.29,-1.41,-1.48,4.70,4.70,4.70
74.38,5.99,1.31,6.00,1.32,-1.31,-1.43,-1.48,4.68,4.68,4.68
75.12,6.00,1.34,6.00,1.34,-1.33,-1.45,-1.48,4.67,4.67,4.67
75.87,6.01,1.36,6.01,1.35,-1.35,-1.47,-1.48,4.66,4.66,4.66
76.63,6.01,1.37,6.01,1.37,-1.37,-1.49,-1.48,4.65,4.65,4.64
77.40,6.01,1.38,6.01,1.38,-1.38,-1.51,-1.48,4.63,4.63,4.63
78.17,6.01,1.40,6.01,1.39,-1.39,-1.52,-1.48,4.62,4.62,4.62
78.95,6.01,1.40,6.01,1.40,-1.40,-1.54,-1.49,4.61,4.61,4.62
79.74,6.01,1.41,6.01,1.41,-1.41,-1.56,-1.49,4.60,4.60,4.61
80.54,6.01,1.42,6.01,1.42,-1.42,-1.58,-1.50,4.59,4.59,4.60
81.35,6.01,1.43,6.01,1.43,-1.43,-1.60,-1.50,4.59,4.59,4.59
82.16,6.01,1.44,6.01,1.44,-1.43,-1.61,-1.51,4.58,4.58,4.57
82.98,6.01,1.44,6.01,1.44,-1.44,-1.63,-1.51,4.58,4.57,4.57
83.81,6.00,1.45,6.00,1.45,-1.44,-1.65,-1.52,4.56,4.56,4.55
84.65,5.99,1.45,6.00,1.45,-1.45,-1.66,-1.53,4.55,4.55,4.55
85.50,5.99,1.45,5.99,1.45,-1.45,-1.68,-1.54,4.54,4.54,4.54
86.35,5.99,1.46,5.99,1.46,-1.46,-1.70,-1.56,4.53,4.53,4.53
87.22,5.99,1.47,5.99,1.47,-1.48,-1.71,-1.57,4.52,4.52,4.53
88.09,6.00,1.49,6.00,1.49,-1.49,-1.73,-1.58,4.51,4.51,4.51
88.97,6.01,1.50,6.02,1.51,-1.52,-1.74,-1.60,4.50,4.50,4.52
89.86,6.04,1.54,6.04,1.54,-1.55,-1.75,-1.62,4.50,4.49,4.50
90.76,6.06,1.58,6.07,1.58,-1.58,-1.77,-1.64,4.48,4.49,4.48
91.66,6.10,1.62,6.10,1.62,-1.62,-1.78,-1.66,4.49,4.49,4.49
92.58,6.13,1.66,6.14,1.66,-1.66,-1.79,-1.68,4.48,4.48,4.47
93.51,6.17,1.70,6.17,1.70,-1.69,-1.81,-1.70,4.48,4.48,4.47
94.44,6.19,1.73,6.19,1.73,-1.73,-1.82,-1.72,4.46,4.46,4.47
95.39,6.21,1.76,6.21,1.76,-1.76,-1.83,-1.75,4.45,4.45,4.46
96.34,6.22,1.79,6.23,1.79,-1.79,-1.84,-1.77,4.44,4.44,4.43
97.30,6.23,1.81,6.24,1.82,-1.81,-1.85,-1.80,4.43,4.43,4.42
98.28,6.24,1.83,6.24,1.83,-1.82,-1.86,-1.83,4.42,4.42,4.41
99.26,6.23,1.84,6.23,1.83,-1.83,-1.87,-1.85,4.40,4.40,4.39
100.25,6.21,1.83,6.22,1.83,-1.84,-1.88,-1.88,4.38,4.38,4.38
101.25,6.19,1.83,6.19,1.83,-1.84,-1.89,-1.91,4.36,4.36,4.37
102.27,6.17,1.83,6.18,1.83,-1.83,-1.89,-1.94,4.34,4.35,4.35
103.29,6.15,1.84,6.15,1.83,-1.82,-1.90,-1.97,4.33,4.33,4.32
104.32,6.13,1.83,6.13,1.83,-1.81,-1.91,-2.00,4.32,4.31,4.31
105.37,6.09,1.82,6.09,1.81,-1.81,-1.92,-2.03,4.29,4.29,4.28
106.42,6.05,1.80,6.06,1.80,-1.81,-1.92,-2.06,4.25,4.25,4.26
107.48,6.02,1.79,6.02,1.80,-1.81,-1.93,-2.09,4.21,4.21,4.23
108.56,6.00,1.81,6.00,1.81,-1.83,-1.93,-2.12,4.18,4.18,4.19
109.64,5.99,1.83,5.99,1.84,-1.85,-1.94,-2.15,4.14,4.15,4.16
110.74,5.99,1.87,6.00,1.87,-1.88,-1.94,-2.18,4.11,4.11,4.12
111.85,6.00,1.91,6.00,1.92,-1.92,-1.95,-2.21,4.08,4.08,4.09
112.97,6.01,1.97,6.01,1.97,-1.97,-1.95,-2.23,4.05,4.05,4.04
114.10,6.02,2.02,6.03,2.02,-2.01,-1.95,-2.26,4.01,4.01,4.01
115.24,6.03,2.07,6.03,2.07,-2.06,-1.96,-2.28,3.97,3.97,3.97
116.39,6.03,2.11,6.03,2.11,-2.10,-1.96,-2.30,3.93,3.93,3.92
117.55,6.02,2.14,6.03,2.15,-2.14,-1.96,-2.32,3.89,3.89,3.88
118.73,6.01,2.18,6.01,2.18,-2.17,-1.96,-2.34,3.85,3.84,3.83
119.92,5.99,2.20,5.99,2.20,-2.19,-1.97,-2.35,3.80,3.80,3.80
121.12,5.96,2.20,5.97,2.21,-2.21,-1.97,-2.36,3.76,3.76,3.76
122.33,5.94,2.22,5.94,2.21,-2.22,-1.97,-2.37,3.73,3.72,3.72
123.55,5.91,2.22,5.91,2.22,-2.23,-1.97,-2.38,3.69,3.68,3.70
124.79,5.88,2.22,5.89,2.22,-2.23,-1.97,-2.38,3.65,3.65,3.66
126.03,5.85,2.23,5.86,2.23,-2.24,-1.97,-2.38,3.62,3.62,3.63
127.29,5.83,2.24,5.83,2.24,-2.24,-1.97,-2.38,3.60,3.59,3.59
128.57,5.80,2.26,5.80,2.24,-2.23,-1.97,-2.37,3.57,3.57,3.55
129.85,5.76,2.24,5.76,2.24,-2.23,-1.98,-2.36,3.54,3.54,3.53
131.15,5.71,2.22,5.72,2.23,-2.22,-1.98,-2.35,3.50,3.50,3.49
132.46,5.68,2.21,5.68,2.21,-2.21,-1.98,-2.34,3.47,3.47,3.47
133.79,5.63,2.19,5.64,2.19,-2.20,-1.98,-2.32,3.43,3.43,3.45
135.12,5.59,2.18,5.60,2.17,-2.19,-1.98,-2.31,3.40,3.40,3.42
136.48,5.56,2.17,5.56,2.17,-2.18,-1.98,-2.29,3.38,3.38,3.40
137.84,5.53,2.16,5.54,2.17,-2.18,-1.98,-2.27,3.36,3.36,3.38
139.22,5.52,2.19,5.52,2.18,-2.17,-1.99,-2.24,3.35,3.35,3.34
140.61,5.50,2.19,5.50,2.18,-2.16,-1.99,-2.22,3.34,3.33,3.32
142.02,5.46,2.16,5.47,2.17,-2.15,-1.99,-2.19,3.31,3.31,3.31
143.44,5.43,2.15,5.43,2.15,-2.15,-2.00,-2.17,3.29,3.29,3.28
144.87,5.39,2.14,5.39,2.14,-2.14,-2.00,-2.14,3.26,3.26,3.25
146.32,5.35,2.13,5.35,2.12,-2.13,-2.00,-2.11,3.23,3.23,3.23
147.78,5.31,2.10,5.31,2.10,-2.12,-2.01,-2.09,3.19,3.19,3.21
149.26,5.27,2.09,5.28,2.10,-2.11,-2.01,-2.06,3.16,3.16,3.18
150.75,5.24,2.09,5.25,2.10,-2.11,-2.02,-2.03,3.13,3.14,3.15
152.26,5.23,2.12,5.23,2.11,-2.11,-2.03,-2.00,3.13,3.12,3.11
153.78,5.20,2.11,5.21,2.12,-2.10,-2.03,-1.98,3.10,3.10,3.09
155.32,5.18,2.13,5.18,2.12,-2.10,-2.04,-1.95,3.08,3.08,3.06
156.88,5.13,2.10,5.14,2.10,-2.10,-2.05,-1.92,3.04,3.04,3.04
158.44,5.09,2.09,5.09,2.09,-2.09,-2.06,-1.90,3.00,3.00,3.00
160.03,5.03,2.07,5.04,2.08,-2.08,-2.07,-1.88,2.95,2.96,2.96
161.63,5.00,2.07,5.00,2.07,-2.08,-2.08,-1.85,2.93,2.92,2.93
163.24,4.96,2.07,4.96,2.06,-2.07,-2.09,-1.83,2.89,2.89,2.89
164.88,4.91,2.04,4.93,2.06,-2.07,-2.10,-1.81,2.85,2.86,2.87
166.53,4.89,2.06,4.89,2.06,-2.06,-2.12,-1.79,2.83,2.83,2.83
168.19,4.87,2.07,4.87,2.06,-2.06,-2.13,-1.77,2.81,2.80,2.80
169.87,4.83,2.07,4.84,2.08,-2.06,-2.14,-1.75,2.77,2.78,2.76
171.57,4.80,2.08,4.80,2.08,-2.06,-2.16,-1.74,2.74,2.74,2.73
173.29,4.76,2.08,4.75,2.07,-2.07,-2.17,-1.72,2.70,2.69,2.68
175.02,4.69,2.05,4.70,2.06,-2.07,-2.18,-1.71,2.62,2.63,2.64
176.77,4.65,2.06,4.66,2.06,-2.08,-2.20,-1.70,2.57,2.58,2.60
178.54,4.62,2.08,4.62,2.07,-2.09,-2.21,-1.69,2.54,2.53,2.54
180.32,4.59,2.10,4.59,2.10,-2.10,-2.22,-1.68,2.50,2.50,2.50
182.13,4.56,2.11,4.56,2.11,-2.11,-2.24,-1.67,2.46,2.45,2.45
183.95,4.52,2.13,4.53,2.13,-2.12,-2.25,-1.66,2.41,2.41,2.40
185.79,4.48,2.13,4.49,2.14,-2.13,-2.26,-1.66,2.35,2.36,2.35
187.65,4.45,2.15,4.45,2.14,-2.14,-2.27,-1.66,2.31,2.31,2.30
189.52,4.40,2.15,4.41,2.15,-2.15,-2.27,-1.65,2.26,2.26,2.26
191.42,4.36,2.15,4.37,2.15,-2.15,-2.28,-1.65,2.21,2.21,2.22
193.33,4.32,2.15,4.32,2.15,-2.16,-2.28,-1.65,2.17,2.17,2.17
195.27,4.28,2.15,4.28,2.15,-2.16,-2.28,-1.65,2.13,2.12,2.13
197.22,4.23,2.15,4.23,2.16,-2.15,-2.28,-1.65,2.08,2.08,2.08
199.19,4.18,2.15,4.19,2.15,-2.15,-2.27,-1.66,2.03,2.04,2.03
201.18,4.14,2.16,4.14,2.15,-2.15,-2.27,-1.66,2.00,1.99,1.99
203.19,4.09,2.14,4.10,2.14,-2.14,-2.25,-1.66,1.95,1.96,1.96
205.23,4.05,2.14,4.05,2.13,-2.13,-2.24,-1.67,1.92,1.92,1.92
207.28,4.00,2.11,4.00,2.12,-2.12,-2.22,-1.67,1.88,1.88,1.89
209.35,3.95,2.11,3.95,2.11,-2.11,-2.19,-1.67,1.85,1.84,1.84
211.44,3.89,2.10,3.89,2.09,-2.10,-2.17,-1.68,1.80,1.80,1.79
213.56,3.83,2.07,3.84,2.08,-2.09,-2.14,-1.68,1.75,1.75,1.76
215.69,3.79,2.06,3.79,2.06,-2.07,-2.10,-1.69,1.72,1.72,1.73
217.85,3.74,2.05,3.75,2.06,-2.06,-2.06,-1.69,1.68,1.69,1.70
220.03,3.71,2.06,3.71,2.05,-2.04,-2.02,-1.69,1.67,1.67,1.66
222.23,3.68,2.05,3.67,2.04,-2.03,-1.98,-1.70,1.66,1.65,1.63
224.45,3.62,2.01,3.63,2.02,-2.01,-1.93,-1.70,1.62,1.62,1.61
226.70,3.57,1.98,3.58,1.98,-1.99,-1.88,-1.69,1.59,1.59,1.60
228.96,3.52,1.95,3.53,1.95,-1.96,-1.83,-1.69,1.56,1.56,1.57
231.25,3.48,1.92,3.48,1.92,-1.93,-1.78,-1.69,1.55,1.55,1.56
233.57,3.44,1.90,3.44,1.90,-1.90,-1.72,-1.68,1.55,1.55,1.55
235.90,3.40,1.86,3.40,1.87,-1.86,-1.67,-1.67,1.54,1.54,1.54
238.26,3.36,1.84,3.36,1.83,-1.82,-1.61,-1.66,1.54,1.54,1.53
240.64,3.31,1.78,3.31,1.79,-1.78,-1.55,-1.65,1.54,1.54,1.53
243.05,3.26,1.73,3.26,1.73,-1.73,-1.49,-1.64,1.53,1.53,1.53
245.48,3.20,1.67,3.21,1.68,-1.68,-1.43,-1.62,1.52,1.52,1.53
247.93,3.14,1.61,3.16,1.63,-1.63,-1.37,-1.60,1.52,1.53,1.53
250.41,3.12,1.59,3.11,1.57,-1.57,-1.31,-1.57,1.55,1.54,1.53
252.92,3.06,1.51,3.07,1.51,-1.51,-1.25,-1.55,1.55,1.55,1.56
255.45,3.01,1.44,3.02,1.45,-1.45,-1.19,-1.52,1.56,1.57,1.57
258.00,2.96,1.39,2.96,1.38,-1.39,-1.13,-1.49,1.58,1.57,1.58
260.58,2.90,1.32,2.91,1.32,-1.32,-1.07,-1.45,1.58,1.59,1.58
263.19,2.85,1.26,2.85,1.26,-1.25,-1.01,-1.42,1.60,1.60,1.60
265.82,2.79,1.19,2.80,1.19,-1.18,-0.95,-1.38,1.61,1.62,1.60
268.48,2.74,1.11,2.74,1.11,-1.11,-0.89,-1.33,1.63,1.63,1.63
271.16,2.69,1.05,2.68,1.04,-1.04,-0.84,-1.29,1.65,1.64,1.65
273.87,2.61,0.96,2.62,0.97,-0.97,-0.78,-1.24,1.64,1.65,1.65
276.61,2.56,0.89,2.56,0.89,-0.90,-0.72,-1.19,1.66,1.66,1.67
279.38,2.50,0.83,2.51,0.83,-0.82,-0.66,-1.14,1.68,1.68,1.68
282.17,2.45,0.76,2.45,0.76,-0.75,-0.61,-1.09,1.71,1.70,1.69
284.99,2.39,0.68,2.39,0.68,-0.67,-0.55,-1.03,1.72,1.72,1.71
287.84,2.31,0.59,2.32,0.60,-0.59,-0.50,-0.98,1.72,1.73,1.72
290.72,2.25,0.52,2.25,0.52,-0.52,-0.44,-0.92,1.74,1.73,1.74
293.63,2.18,0.44,2.18,0.43,-0.44,-0.39,-0.86,1.74,1.74,1.74
296.57,2.11,0.35,2.11,0.36,-0.36,-0.33,-0.80,1.75,1.75,1.76
299.53,2.04,0.27,2.05,0.28,-0.28,-0.28,-0.74,1.76,1.76,1.77
302.53,1.98,0.21,1.99,0.21,-0.21,-0.22,-0.67,1.78,1.78,1.78
305.55,1.93,0.14,1.93,0.13,-0.13,-0.17,-0.61,1.81,1.80,1.79
308.61,1.86,0.06,1.86,0.06,-0.05,-0.11,-0.55,1.81,1.81,1.80
311.69,1.79,-0.03,1.80,-0.02,0.03,-0.05,-0.48,1.82,1.82,1.82
314.81,1.73,-0.10,1.73,-0.10,0.10,0.01,-0.42,1.84,1.83,1.84
317.96,1.66,-0.18,1.67,-0.18,0.18,0.07,-0.35,1.84,1.84,1.85
321.14,1.60,-0.25,1.60,-0.25,0.25,0.13,-0.28,1.86,1.85,1.85
324.35,1.53,-0.33,1.54,-0.33,0.32,0.19,-0.22,1.86,1.86,1.86
327.59,1.47,-0.40,1.47,-0.40,0.40,0.25,-0.15,1.87,1.87,1.87
330.87,1.41,-0.47,1.41,-0.47,0.47,0.32,-0.08,1.88,1.88,1.88
334.18,1.35,-0.53,1.36,-0.53,0.53,0.39,-0.02,1.89,1.89,1.89
337.52,1.29,-0.59,1.30,-0.60,0.60,0.47,0.05,1.89,1.89,1.89
340.90,1.24,-0.66,1.24,-0.66,0.66,0.55,0.12,1.91,1.90,1.91
344.30,1.17,-0.73,1.18,-0.73,0.73,0.63,0.19,1.90,1.91,1.90
347.75,1.11,-0.80,1.12,-0.79,0.80,0.72,0.26,1.91,1.91,1.91
351.23,1.05,-0.86,1.05,-0.86,0.87,0.81,0.33,1.92,1.92,1.91
354.74,0.99,-0.92,0.99,-0.92,0.93,0.91,0.40,1.92,1.92,1.91
358.28,0.92,-1.00,0.92,-1.00,0.99,1.00,0.47,1.92,1.91,1.92
361.87,0.85,-1.06,0.85,-1.06,1.05,1.09,0.54,1.91,1.90,1.92
365.49,0.78,-1.13,0.79,-1.12,1.11,1.18,0.61,1.89,1.90,1.92
369.14,0.74,-1.16,0.74,-1.17,1.16,1.25,0.68,1.90,1.90,1.91
372.83,0.70,-1.20,0.70,-1.21,1.21,1.30,0.75,1.91,1.91,1.90
376.56,0.65,-1.25,0.66,-1.25,1.26,1.34,0.82,1.91,1.92,1.90
380.33,0.61,-1.30,0.61,-1.30,1.30,1.36,0.89,1.92,1.91,1.91
384.13,0.56,-1.34,0.56,-1.34,1.34,1.36,0.97,1.91,1.91,1.90
387.97,0.51,-1.39,0.52,-1.38,1.39,1.36,1.04,1.90,1.90,1.90
391.85,0.47,-1.42,0.47,-1.42,1.42,1.35,1.11,1.90,1.90,1.89
395.77,0.43,-1.47,0.43,-1.46,1.46,1.34,1.18,1.89,1.89,1.90
399.73,0.39,-1.49,0.40,-1.49,1.49,1.34,1.25,1.89,1.89,1.89
403.72,0.36,-1.52,0.36,-1.53,1.52,1.34,1.32,1.88,1.89,1.89
407.76,0.34,-1.54,0.34,-1.55,1.54,1.34,1.39,1.88,1.88,1.89
411.84,0.33,-1.56,0.34,-1.56,1.55,1.35,1.46,1.89,1.89,1.90
415.96,0.33,-1.56,0.33,-1.57,1.56,1.37,1.53,1.90,1.89,1.90
420.12,0.33,-1.56,0.33,-1.56,1.56,1.38,1.60,1.90,1.90,1.90
424.32,0.33,-1.56,0.34,-1.56,1.56,1.41,1.67,1.89,1.89,1.89
428.56,0.34,-1.54,0.34,-1.54,1.55,1.43,1.74,1.89,1.89,1.88
432.85,0.35,-1.53,0.35,-1.53,1.53,1.46,1.80,1.88,1.88,1.88
437.18,0.37,-1.51,0.37,-1.51,1.51,1.49,1.87,1.88,1.88,1.88
441.55,0.39,-1.50,0.40,-1.49,1.48,1.52,1.93,1.88,1.88,1.89
445.96,0.42,-1.47,0.43,-1.46,1.46,1.56,1.99,1.88,1.88,1.89
450.42,0.46,-1.42,0.46,-1.43,1.43,1.59,2.05,1.89,1.89,1.88
454.93,0.48,-1.41,0.49,-1.40,1.41,1.63,2.10,1.89,1.89,1.89
459.48,0.51,-1.38,0.51,-1.38,1.39,1.67,2.16,1.90,1.90,1.89
464.07,0.53,-1.36,0.53,-1.36,1.37,1.71,2.20,1.91,1.91,1.89
468.71,0.54,-1.36,0.54,-1.35,1.37,1.75,2.25,1.91,1.91,1.90
473.40,0.53,-1.36,0.53,-1.36,1.37,1.79,2.29,1.90,1.90,1.89
478.13,0.51,-1.39,0.52,-1.38,1.38,1.83,2.33,1.89,1.89,1.90
482.91,0.49,-1.41,0.50,-1.40,1.39,1.88,2.37,1.88,1.89,1.90
487.74,0.48,-1.42,0.48,-1.42,1.41,1.92,2.40,1.89,1.89,1.90
492.62,0.46,-1.44,0.46,-1.44,1.44,1.96,2.43,1.90,1.90,1.91
497.55,0.44,-1.45,0.44,-1.46,1.47,2.00,2.45,1.91,1.91,1.90
502.52,0.40,-1.50,0.41,-1.50,1.50,2.05,2.47,1.91,1.91,1.91
507.55,0.36,-1.53,0.36,-1.54,1.54,2.09,2.49,1.91,1.91,1.90
512.62,0.31,-1.58,0.32,-1.59,1.59,2.13,2.50,1.90,1.90,1.90
517.75,0.26,-1.64,0.26,-1.64,1.64,2.17,2.51,1.90,1.90,1.91
522.93,0.21,-1.69,0.21,-1.69,1.69,2.22,2.51,1.91,1.90,1.91
528.16,0.14,-1.75,0.15,-1.75,1.75,2.26,2.51,1.89,1.90,1.90
533.44,0.09,-1.80,0.09,-1.81,1.81,2.30,2.51,1.90,1.90,1.90
538.77,0.02,-1.87,0.02,-1.87,1.87,2.34,2.50,1.89,1.89,1.90
544.16,-0.05,-1.94,-0.04,-1.93,1.93,2.38,2.49,1.88,1.89,1.90
549.60,-0.11,-1.99,-0.11,-1.99,1.99,2.42,2.48,1.89,1.88,1.89
555.10,-0.18,-2.05,-0.17,-2.05,2.06,2.45,2.47,1.88,1.89,1.88
