frequency,raw,error,smoothed,error_smoothed,equalization,parametric_eq,fixed_band_eq,equalized_raw,equalized_smoothed,target
20.00,7.81,6.81,7.81,6.81,-6.81,-7.11,-3.83,1.00,1.00,0.99
20.20,7.86,6.86,7.86,6.87,-6.87,-7.15,-3.93,0.99,0.99,0.99
20.40,7.91,6.92,7.91,6.92,-6.92,-7.18,-4.04,0.99,0.99,0.98
20.61,7.96,6.97,7.96,6.98,-6.97,-7.21,-4.15,0.98,0.98,0.98
20.81,8.01,7.03,8.01,7.03,-7.03,-7.25,-4.26,0.98,0.98,0.97
21.02,8.06,7.08,8.05,7.08,-7.08,-7.28,-4.38,0.97,0.97,0.97
21.23,8.10,7.13,8.10,7.13,-7.14,-7.32,-4.50,0.96,0.96,0.96
21.44,8.15,7.18,8.15,7.18,-7.19,-7.35,-4.62,0.96,0.96,0.96
21.66,8.20,7.24,8.20,7.24,-7.24,-7.39,-4.74,0.95,0.95,0.95
21.87,8.25,7.29,8.25,7.30,-7.29,-7.42,-4.88,0.95,0.95,0.95
22.09,8.30,7.35,8.30,7.35,-7.35,-7.46,-5.01,0.95,0.95,0.94
22.31,8.35,7.40,8.34,7.40,-7.40,-7.49,-5.15,0.95,0.95,0.94
22.54,8.39,7.44,8.39,7.45,-7.45,-7.53,-5.28,0.94,0.94,0.94
22.76,8.44,7.50,8.43,7.50,-7.50,-7.56,-5.43,0.94,0.94,0.93
22.99,8.48,7.54,8.48,7.55,-7.55,-7.60,-5.58,0.93,0.93,0.93
23.22,8.53,7.60,8.52,7.60,-7.60,-7.63,-5.73,0.93,0.93,0.92
23.45,8.57,7.64,8.57,7.64,-7.64,-7.67,-5.88,0.92,0.92,0.92
23.69,8.61,7.68,8.61,7.69,-7.69,-7.70,-6.04,0.92,0.92,0.92
23.92,8.66,7.74,8.65,7.74,-7.73,-7.74,-6.20,0.92,0.92,0.91
24.16,8.70,7.78,8.69,7.78,-7.78,-7.77,-6.37,0.92,0.92,0.91
24.40,8.73,7.81,8.73,7.82,-7.82,-7.81,-6.54,0.91,0.91,0.91
24.65,8.77,7.85,8.77,7.86,-7.86,-7.84,-6.71,0.91,0.91,0.91
24.89,8.81,7.90,8.81,7.90,-7.90,-7.88,-6.88,0.91,0.91,0.90
25.14,8.85,7.94,8.85,7.94,-7.94,-7.91,-7.06,0.91,0.91,0.90
25.39,8.89,7.98,8.89,7.98,-7.98,-7.95,-7.24,0.90,0.90,0.90
25.65,8.93,8.02,8.93,8.02,-8.02,-7.98,-7.42,0.90,0.90,0.90
25.91,8.97,8.06,8.97,8.06,-8.06,-8.02,-7.60,0.90,0.90,0.90
26.16,9.01,8.10,9.01,8.10,-8.10,-8.05,-7.78,0.90,0.90,0.90
26.43,9.05,8.14,9.04,8.14,-8.14,-8.09,-7.96,0.90,0.90,0.90
26.69,9.08,8.18,9.08,8.18,-8.18,-8.12,-8.15,0.90,0.90,0.89
26.96,9.12,8.22,9.11,8.22,-8.22,-8.16,-8.33,0.90,0.90,0.89
27.23,9.15,8.25,9.15,8.25,-8.25,-8.19,-8.51,0.89,0.89,0.89
27.50,9.18,8.28,9.18,8.29,-8.29,-8.22,-8.68,0.89,0.89,0.89
27.77,9.22,8.32,9.22,8.32,-8.33,-8.26,-8.85,0.89,0.89,0.89
28.05,9.26,8.37,9.25,8.36,-8.36,-8.29,-9.02,0.89,0.89,0.88
28.33,9.28,8.39,9.28,8.40,-8.40,-8.32,-9.18,0.88,0.89,0.88
28.62,9.32,8.43,9.31,8.43,-8.43,-8.35,-9.34,0.88,0.88,0.88
28.90,9.35,8.47,9.35,8.47,-8.47,-8.39,-9.48,0.88,0.88,0.87
29.19,9.38,8.50,9.38,8.50,-8.50,-8.42,-9.62,0.87,0.87,0.87
29.48,9.41,8.53,9.41,8.54,-8.54,-8.45,-9.75,0.87,0.87,0.87
29.78,9.44,8.57,9.44,8.57,-8.57,-8.48,-9.87,0.87,0.87,0.86
30.08,9.47,8.60,9.46,8.60,-8.60,-8.51,-9.97,0.87,0.87,0.86
30.38,9.49,8.62,9.49,8.63,-8.62,-8.55,-10.06,0.86,0.87,0.86
30.68,9.52,8.65,9.51,8.65,-8.65,-8.58,-10.13,0.87,0.86,0.86
30.99,9.54,8.67,9.54,8.68,-8.68,-8.61,-10.19,0.86,0.86,0.86
31.30,9.57,8.70,9.57,8.70,-8.70,-8.64,-10.24,0.87,0.87,0.86
31.61,9.60,8.72,9.59,8.72,-8.72,-8.67,-10.27,0.87,0.87,0.87
31.93,9.62,8.74,9.62,8.75,-8.75,-8.69,-10.28,0.87,0.87,0.87
32.24,9.65,8.77,9.64,8.77,-8.77,-8.72,-10.29,0.88,0.88,0.87
32.57,9.67,8.79,9.67,8.80,-8.79,-8.75,-10.28,0.87,0.88,0.87
32.89,9.70,8.82,9.69,8.82,-8.82,-8.78,-10.25,0.88,0.88,0.87
33.22,9.72,8.84,9.71,8.84,-8.84,-8.81,-10.22,0.88,0.87,0.87
33.55,9.73,8.85,9.73,8.86,-8.86,-8.83,-10.17,0.86,0.87,0.87
33.89,9.76,8.88,9.75,8.88,-8.89,-8.86,-10.11,0.87,0.87,0.87
34.23,9.78,8.91,9.78,8.91,-8.91,-8.89,-10.05,0.87,0.86,0.86
34.57,9.80,8.93,9.80,8.94,-8.93,-8.91,-9.98,0.86,0.86,0.86
34.92,9.82,8.96,9.82,8.96,-8.96,-8.94,-9.90,0.86,0.86,0.85
35.27,9.84,8.99,9.83,8.99,-8.98,-8.96,-9.82,0.85,0.85,0.84
35.62,9.85,9.01,9.85,9.01,-9.01,-8.98,-9.73,0.84,0.84,0.83
35.97,9.86,9.02,9.86,9.03,-9.04,-9.01,-9.64,0.82,0.83,0.83
36.33,9.88,9.05,9.88,9.06,-9.06,-9.03,-9.55,0.82,0.82,0.82
36.70,9.90,9.09,9.89,9.08,-9.09,-9.05,-9.46,0.81,0.81,0.80
37.06,9.91,9.11,9.91,9.11,-9.11,-9.07,-9.37,0.80,0.80,0.79
37.43,9.92,9.13,9.92,9.14,-9.13,-9.09,-9.28,0.78,0.79,0.78
37.81,9.94,9.16,9.93,9.16,-9.16,-9.11,-9.20,0.78,0.77,0.77
38.19,9.95,9.18,9.95,9.18,-9.18,-9.13,-9.11,0.77,0.77,0.76
38.57,9.96,9.19,9.96,9.20,-9.20,-9.15,-9.03,0.75,0.76,0.76
38.95,9.98,9.22,9.97,9.22,-9.22,-9.17,-8.95,0.76,0.75,0.75
39.34,9.99,9.24,9.99,9.24,-9.24,-9.19,-8.88,0.75,0.75,0.74
39.74,10.00,9.25,10.00,9.26,-9.25,-9.20,-8.81,0.75,0.75,0.74
40.14,10.01,9.27,10.00,9.26,-9.26,-9.22,-8.74,0.74,0.74,0.73
40.54,10.00,9.26,10.01,9.27,-9.27,-9.23,-8.68,0.72,0.73,0.73
40.94,10.02,9.28,10.01,9.28,-9.28,-9.25,-8.63,0.73,0.73,0.73
41.35,10.03,9.29,10.02,9.29,-9.29,-9.26,-8.58,0.74,0.73,0.73
41.76,10.03,9.29,10.03,9.30,-9.30,-9.27,-8.54,0.73,0.73,0.73
42.18,10.04,9.30,10.03,9.30,-9.30,-9.29,-8.50,0.73,0.73,0.73
42.60,10.04,9.30,10.04,9.31,-9.30,-9.30,-8.47,0.73,0.73,0.73
43.03,10.05,9.31,10.05,9.31,-9.31,-9.31,-8.44,0.74,0.74,0.73
43.46,10.05,9.31,10.05,9.31,-9.31,-9.32,-8.42,0.74,0.74,0.73
43.90,10.05,9.31,10.04,9.31,-9.30,-9.32,-8.41,0.74,0.74,0.73
44.33,10.04,9.29,10.04,9.30,-9.30,-9.33,-8.40,0.74,0.74,0.74
44.78,10.04,9.29,10.04,9.29,-9.30,-9.34,-8.40,0.74,0.74,0.74
45.23,10.04,9.29,10.04,9.29,-9.29,-9.34,-8.41,0.75,0.75,0.74
45.68,10.04,9.28,10.04,9.29,-9.29,-9.35,-8.42,0.75,0.75,0.75
46.13,10.04,9.28,10.03,9.28,-9.28,-9.35,-8.44,0.76,0.75,0.75
46.60,10.03,9.27,10.03,9.27,-9.28,-9.36,-8.46,0.75,0.75,0.75
47.06,10.03,9.27,10.02,9.27,-9.27,-9.36,-8.49,0.76,0.75,0.75
47.53,10.02,9.26,10.02,9.27,-9.27,-9.36,-8.53,0.75,0.75,0.75
48.01,10.02,9.26,10.01,9.26,-9.26,-9.36,-8.57,0.75,0.75,0.75
48.49,10.01,9.26,10.01,9.26,-9.26,-9.36,-8.61,0.75,0.75,0.74
48.97,10.00,9.25,10.00,9.25,-9.25,-9.35,-8.66,0.74,0.75,0.74
49.46,9.99,9.24,9.99,9.25,-9.25,-9.35,-8.72,0.74,0.74,0.74
49.96,9.99,9.25,9.98,9.24,-9.24,-9.35,-8.78,0.74,0.74,0.73
50.46,9.97,9.23,9.97,9.24,-9.24,-9.34,-8.85,0.73,0.73,0.73
50.96,9.96,9.23,9.96,9.23,-9.23,-9.33,-8.91,0.72,0.73,0.72
51.47,9.95,9.22,9.95,9.23,-9.23,-9.33,-8.99,0.72,0.72,0.72
51.99,9.94,9.22,9.94,9.22,-9.22,-9.32,-9.06,0.72,0.72,0.71
52.51,9.93,9.21,9.92,9.21,-9.21,-9.31,-9.14,0.72,0.71,0.71
53.03,9.91,9.19,9.91,9.20,-9.20,-9.30,-9.21,0.71,0.71,0.71
53.56,9.89,9.18,9.89,9.18,-9.18,-9.28,-9.29,0.70,0.71,0.70
54.10,9.88,9.17,9.87,9.17,-9.17,-9.27,-9.37,0.71,0.71,0.70
54.64,9.86,9.15,9.86,9.15,-9.15,-9.26,-9.45,0.71,0.71,0.70
55.18,9.84,9.13,9.84,9.13,-9.13,-9.24,-9.53,0.71,0.71,0.70
55.74,9.82,9.10,9.82,9.11,-9.11,-9.22,-9.60,0.71,0.71,0.71
56.29,9.80,9.08,9.80,9.08,-9.09,-9.21,-9.67,0.71,0.71,0.71
56.86,9.78,9.06,9.78,9.06,-9.06,-9.19,-9.74,0.71,0.71,0.71
57.42,9.76,9.04,9.75,9.04,-9.04,-9.17,-9.80,0.72,0.72,0.71
58.00,9.73,9.01,9.73,9.02,-9.01,-9.14,-9.85,0.71,0.72,0.71
58.58,9.71,8.99,9.70,8.99,-8.99,-9.12,-9.90,0.72,0.72,0.71
59.16,9.68,8.96,9.68,8.96,-8.96,-9.10,-9.93,0.71,0.71,0.71
59.76,9.65,8.93,9.65,8.93,-8.94,-9.07,-9.96,0.71,0.71,0.71
60.35,9.62,8.90,9.62,8.91,-8.91,-9.05,-9.98,0.70,0.71,0.71
60.96,9.60,8.89,9.59,8.88,-8.89,-9.02,-9.98,0.71,0.71,0.70
61.57,9.57,8.86,9.57,8.86,-8.86,-8.99,-9.98,0.71,0.70,0.70
62.18,9.54,8.83,9.54,8.84,-8.84,-8.96,-9.96,0.70,0.70,0.70
62.80,9.51,8.81,9.51,8.81,-8.81,-8.93,-9.93,0.70,0.70,0.69
63.43,9.48,8.78,9.48,8.79,-8.79,-8.89,-9.89,0.69,0.69,0.69
64.07,9.45,8.76,9.45,8.76,-8.76,-8.86,-9.83,0.69,0.69,0.68
64.71,9.42,8.73,9.41,8.73,-8.73,-8.82,-9.76,0.69,0.69,0.68
65.35,9.38,8.69,9.38,8.70,-8.70,-8.79,-9.69,0.68,0.69,0.68
66.01,9.35,8.66,9.35,8.66,-8.66,-8.75,-9.60,0.69,0.69,0.68
66.67,9.32,8.63,9.31,8.62,-8.62,-8.71,-9.50,0.69,0.68,0.68
67.33,9.27,8.58,9.27,8.59,-8.59,-8.67,-9.39,0.68,0.69,0.68
68.01,9.23,8.54,9.23,8.55,-8.55,-8.63,-9.27,0.68,0.68,0.68
68.69,9.20,8.51,9.19,8.50,-8.51,-8.58,-9.15,0.69,0.68,0.68
69.37,9.15,8.46,9.15,8.46,-8.47,-8.54,-9.02,0.68,0.68,0.68
70.07,9.11,8.42,9.11,8.43,-8.43,-8.49,-8.88,0.68,0.68,0.68
70.77,9.07,8.38,9.07,8.39,-8.39,-8.45,-8.75,0.68,0.68,0.68
71.48,9.03,8.35,9.02,8.35,-8.34,-8.40,-8.60,0.69,0.68,0.67
72.19,8.98,8.30,8.98,8.30,-8.30,-8.35,-8.46,0.68,0.68,0.67
72.91,8.93,8.25,8.93,8.25,-8.25,-8.30,-8.31,0.68,0.68,0.67
73.64,8.88,8.20,8.88,8.20,-8.20,-8.25,-8.16,0.67,0.67,0.67
74.38,8.83,8.14,8.83,8.15,-8.15,-8.19,-8.02,0.67,0.68,0.68
75.12,8.79,8.10,8.78,8.10,-8.10,-8.14,-7.87,0.68,0.68,0.68
75.87,8.74,8.05,8.73,8.05,-8.05,-8.08,-7.73,0.69,0.68,0.68
76.63,8.68,7.99,8.68,8.00,-8.00,-8.03,-7.58,0.68,0.69,0.68
77.40,8.63,7.94,8.63,7.94,-7.94,-7.97,-7.44,0.68,0.69,0.68
78.17,8.58,7.89,8.57,7.89,-7.89,-7.91,-7.30,0.69,0.69,0.68
78.95,8.52,7.83,8.52,7.83,-7.83,-7.85,-7.17,0.69,0.68,0.68
79.74,8.46,7.77,8.46,7.77,-7.77,-7.79,-7.03,0.68,0.68,0.68
80.54,8.40,7.71,8.40,7.71,-7.71,-7.72,-6.90,0.68,0.69,0.68
81.35,8.35,7.65,8.34,7.65,-7.65,-7.66,-6.78,0.69,0.69,0.69
82.16,8.29,7.59,8.28,7.59,-7.59,-7.59,-6.66,0.70,0.69,0.69
82.98,8.22,7.52,8.22,7.53,-7.53,-7.53,-6.54,0.69,0.70,0.69
83.81,8.17,7.46,8.16,7.46,-7.46,-7.46,-6.43,0.71,0.70,0.70
84.65,8.10,7.39,8.10,7.39,-7.39,-7.39,-6.32,0.70,0.70,0.70
85.50,8.03,7.32,8.03,7.33,-7.33,-7.32,-6.21,0.70,0.71,0.70
86.35,7.98,7.26,7.97,7.26,-7.26,-7.25,-6.11,0.72,0.71,0.71
87.22,7.90,7.18,7.90,7.19,-7.19,-7.18,-6.02,0.71,0.71,0.71
88.09,7.84,7.12,7.83,7.12,-7.11,-7.11,-5.92,0.72,0.72,0.71
88.97,7.76,7.03,7.76,7.04,-7.04,-7.03,-5.84,0.71,0.72,0.72
89.86,7.70,6.97,7.69,6.97,-6.97,-6.96,-5.75,0.73,0.73,0.72
90.76,7.63,6.89,7.62,6.89,-6.89,-6.88,-5.67,0.73,0.73,0.73
91.66,7.55,6.81,7.55,6.82,-6.82,-6.81,-5.60,0.73,0.74,0.73
92.58,7.48,6.74,7.48,6.74,-6.74,-6.73,-5.53,0.74,0.74,0.73
93.51,7.41,6.66,7.40,6.66,-6.66,-6.65,-5.46,0.75,0.74,0.74
94.44,7.33,6.58,7.33,6.58,-6.58,-6.57,-5.40,0.74,0.75,0.74
95.39,7.25,6.50,7.25,6.50,-6.50,-6.49,-5.34,0.74,0.74,0.74
96.34,7.17,6.42,7.17,6.42,-6.42,-6.41,-5.28,0.74,0.74,0.74
97.30,7.09,6.34,7.09,6.34,-6.34,-6.33,-5.23,0.74,0.74,0.74
98.28,7.01,6.26,7.00,6.26,-6.27,-6.25,-5.18,0.74,0.74,0.74
99.26,6.92,6.18,6.92,6.19,-6.19,-6.16,-5.14,0.73,0.74,0.73
100.25,6.85,6.11,6.84,6.11,-6.11,-6.08,-5.10,0.74,0.73,0.73
101.25,6.76,6.02,6.76,6.03,-6.02,-6.00,-5.06,0.73,0.73,0.73
102.27,6.67,5.94,6.67,5.94,-5.94,-5.91,-5.02,0.72,0.73,0.72
103.29,6.59,5.86,6.58,5.86,-5.86,-5.83,-4.98,0.73,0.72,0.72
104.32,6.50,5.78,6.50,5.78,-5.78,-5.74,-4.95,0.72,0.72,0.71
105.37,6.41,5.69,6.41,5.69,-5.69,-5.65,-4.92,0.72,0.72,0.71
106.42,6.32,5.60,6.32,5.60,-5.60,-5.57,-4.89,0.71,0.71,0.71
107.48,6.23,5.51,6.23,5.52,-5.52,-5.48,-4.86,0.71,0.71,0.71
108.56,6.14,5.43,6.14,5.43,-5.43,-5.39,-4.83,0.71,0.71,0.70
109.64,6.05,5.34,6.04,5.34,-5.34,-5.30,-4.80,0.71,0.70,0.70
110.74,5.95,5.24,5.95,5.25,-5.25,-5.22,-4.77,0.70,0.70,0.70
111.85,5.86,5.16,5.86,5.16,-5.16,-5.13,-4.75,0.70,0.70,0.69
112.97,5.77,5.07,5.76,5.07,-5.07,-5.04,-4.72,0.70,0.69,0.69
114.10,5.67,4.98,5.66,4.98,-4.98,-4.95,-4.69,0.69,0.69,0.68
115.24,5.56,4.87,5.56,4.89,-4.89,-4.86,-4.66,0.67,0.68,0.68
116.39,5.47,4.80,5.46,4.80,-4.80,-4.77,-4.62,0.67,0.67,0.66
117.55,5.37,4.71,5.36,4.71,-4.71,-4.68,-4.59,0.66,0.65,0.65
118.73,5.27,4.62,5.26,4.62,-4.62,-4.59,-4.55,0.64,0.64,0.64
119.92,5.16,4.53,5.16,4.54,-4.54,-4.49,-4.51,0.62,0.62,0.62
121.12,5.06,4.45,5.06,4.45,-4.45,-4.40,-4.47,0.60,0.60,0.60
122.33,4.96,4.37,4.95,4.37,-4.37,-4.31,-4.42,0.59,0.59,0.58
123.55,4.85,4.28,4.85,4.29,-4.29,-4.22,-4.38,0.56,0.56,0.56
124.79,4.75,4.20,4.74,4.20,-4.20,-4.13,-4.32,0.54,0.54,0.54
126.03,4.63,4.11,4.63,4.12,-4.12,-4.03,-4.27,0.51,0.52,0.51
127.29,4.53,4.03,4.53,4.03,-4.03,-3.94,-4.21,0.50,0.50,0.49
128.57,4.43,3.95,4.42,3.95,-3.94,-3.85,-4.15,0.49,0.48,0.47
129.85,4.31,3.85,4.31,3.86,-3.85,-3.76,-4.08,0.46,0.46,0.45
131.15,4.21,3.76,4.20,3.76,-3.75,-3.66,-4.01,0.45,0.45,0.44
132.46,4.09,3.65,4.09,3.66,-3.66,-3.57,-3.94,0.43,0.43,0.43
133.79,3.98,3.55,3.98,3.55,-3.56,-3.47,-3.87,0.42,0.42,0.42
135.12,3.87,3.45,3.87,3.45,-3.45,-3.38,-3.79,0.41,0.41,0.41
136.48,3.76,3.34,3.76,3.35,-3.35,-3.28,-3.71,0.41,0.41,0.41
137.84,3.65,3.24,3.65,3.24,-3.24,-3.19,-3.63,0.41,0.41,0.40
139.22,3.54,3.13,3.53,3.13,-3.13,-3.09,-3.54,0.41,0.41,0.40
140.61,3.42,3.01,3.42,3.02,-3.02,-3.00,-3.46,0.40,0.40,0.40
142.02,3.32,2.91,3.31,2.91,-2.91,-2.90,-3.37,0.41,0.40,0.40
143.44,3.20,2.79,3.20,2.80,-2.80,-2.81,-3.28,0.40,0.40,0.40
144.87,3.09,2.68,3.09,2.68,-2.68,-2.71,-3.19,0.40,0.41,0.40
146.32,2.98,2.57,2.98,2.57,-2.57,-2.61,-3.10,0.41,0.41,0.40
147.78,2.87,2.45,2.87,2.45,-2.45,-2.51,-3.00,0.41,0.41,0.41
149.26,2.76,2.34,2.75,2.34,-2.34,-2.41,-2.91,0.41,0.41,0.41
150.75,2.64,2.22,2.64,2.23,-2.23,-2.32,-2.82,0.41,0.41,0.41
152.26,2.54,2.12,2.53,2.12,-2.12,-2.22,-2.72,0.42,0.41,0.41
153.78,2.42,2.00,2.42,2.01,-2.01,-2.12,-2.63,0.41,0.41,0.41
155.32,2.32,1.90,2.31,1.90,-1.90,-2.02,-2.54,0.42,0.42,0.41
156.88,2.20,1.78,2.20,1.79,-1.79,-1.92,-2.45,0.41,0.41,0.41
158.44,2.10,1.68,2.09,1.68,-1.68,-1.82,-2.35,0.42,0.41,0.41
160.03,1.99,1.57,1.98,1.57,-1.57,-1.71,-2.26,0.41,0.41,0.41
161.63,1.88,1.46,1.88,1.47,-1.47,-1.61,-2.17,0.41,0.41,0.41
163.24,1.78,1.36,1.78,1.36,-1.36,-1.51,-2.08,0.42,0.42,0.41
164.88,1.68,1.26,1.67,1.26,-1.26,-1.41,-1.99,0.42,0.42,0.41
166.53,1.58,1.15,1.58,1.16,-1.16,-1.31,-1.90,0.42,0.42,0.42
168.19,1.48,1.05,1.48,1.05,-1.06,-1.21,-1.81,0.42,0.42,0.42
169.87,1.39,0.96,1.38,0.95,-0.96,-1.11,-1.73,0.43,0.43,0.42
171.57,1.29,0.85,1.29,0.86,-0.86,-1.01,-1.64,0.43,0.43,0.43
173.29,1.21,0.77,1.20,0.77,-0.77,-0.91,-1.55,0.44,0.44,0.43
175.02,1.12,0.68,1.11,0.68,-0.68,-0.81,-1.47,0.44,0.44,0.43
176.77,1.03,0.58,1.03,0.59,-0.59,-0.71,-1.39,0.44,0.44,0.44
178.54,0.95,0.50,0.95,0.50,-0.50,-0.62,-1.30,0.44,0.44,0.44
180.32,0.88,0.42,0.87,0.42,-0.42,-0.52,-1.22,0.45,0.45,0.45
182.13,0.80,0.34,0.80,0.35,-0.35,-0.43,-1.14,0.45,0.45,0.45
183.95,0.74,0.28,0.74,0.28,-0.28,-0.34,-1.06,0.46,0.46,0.45
185.79,0.68,0.21,0.67,0.21,-0.22,-0.26,-0.98,0.46,0.46,0.46
187.65,0.62,0.15,0.62,0.15,-0.16,-0.17,-0.90,0.46,0.46,0.46
189.52,0.57,0.10,0.57,0.10,-0.10,-0.10,-0.83,0.47,0.47,0.46
191.42,0.53,0.05,0.52,0.05,-0.05,-0.02,-0.75,0.47,0.47,0.47
193.33,0.49,0.01,0.48,0.01,-0.01,0.05,-0.68,0.48,0.47,0.47
195.27,0.44,-0.04,0.44,-0.03,0.03,0.12,-0.60,0.47,0.48,0.47
197.22,0.41,-0.07,0.41,-0.07,0.07,0.18,-0.53,0.48,0.48,0.47
199.19,0.38,-0.11,0.38,-0.11,0.10,0.24,-0.46,0.48,0.48,0.48
201.18,0.35,-0.14,0.35,-0.14,0.13,0.28,-0.38,0.48,0.48,0.48
203.19,0.33,-0.16,0.32,-0.16,0.16,0.33,-0.31,0.49,0.48,0.48
205.23,0.30,-0.19,0.30,-0.18,0.18,0.37,-0.25,0.48,0.49,0.48
207.28,0.29,-0.20,0.28,-0.20,0.21,0.41,-0.18,0.49,0.49,0.48
209.35,0.26,-0.23,0.26,-0.23,0.23,0.43,-0.11,0.48,0.49,0.48
211.44,0.24,-0.25,0.24,-0.24,0.24,0.46,-0.05,0.48,0.48,0.48
213.56,0.23,-0.26,0.22,-0.26,0.26,0.48,0.02,0.49,0.48,0.48
215.69,0.21,-0.28,0.21,-0.28,0.28,0.49,0.08,0.48,0.49,0.48
217.85,0.20,-0.29,0.19,-0.29,0.29,0.50,0.14,0.49,0.49,0.48
220.03,0.18,-0.31,0.18,-0.31,0.31,0.51,0.20,0.48,0.48,0.48
222.23,0.17,-0.32,0.17,-0.32,0.32,0.51,0.25,0.48,0.48,0.48
224.45,0.16,-0.33,0.15,-0.33,0.33,0.50,0.30,0.48,0.48,0.48
226.70,0.15,-0.34,0.15,-0.34,0.34,0.50,0.35,0.48,0.48,0.48
228.96,0.14,-0.35,0.14,-0.34,0.34,0.49,0.40,0.48,0.48,0.48
231.25,0.14,-0.35,0.13,-0.35,0.35,0.47,0.45,0.48,0.48,0.48
233.57,0.13,-0.35,0.13,-0.35,0.35,0.46,0.49,0.48,0.48,0.47
235.90,0.12,-0.36,0.12,-0.36,0.35,0.44,0.53,0.47,0.47,0.47
238.26,0.12,-0.36,0.11,-0.36,0.36,0.43,0.57,0.47,0.47,0.47
240.64,0.11,-0.36,0.11,-0.35,0.36,0.40,0.60,0.46,0.47,0.46
243.05,0.12,-0.35,0.11,-0.36,0.36,0.38,0.63,0.48,0.47,0.46
245.48,0.11,-0.36,0.11,-0.36,0.36,0.36,0.66,0.47,0.46,0.46
247.93,0.10,-0.37,0.10,-0.36,0.36,0.34,0.68,0.45,0.46,0.46
250.41,0.11,-0.36,0.10,-0.36,0.36,0.32,0.70,0.46,0.46,0.46
252.92,0.11,-0.35,0.10,-0.35,0.35,0.30,0.72,0.46,0.46,0.45
255.45,0.11,-0.35,0.11,-0.35,0.35,0.27,0.73,0.45,0.45,0.45
258.00,0.11,-0.35,0.11,-0.34,0.34,0.25,0.74,0.45,0.45,0.45
260.58,0.12,-0.33,0.12,-0.33,0.33,0.23,0.74,0.45,0.45,0.44
263.19,0.13,-0.32,0.12,-0.32,0.32,0.21,0.75,0.45,0.44,0.44
265.82,0.13,-0.31,0.13,-0.31,0.31,0.19,0.75,0.44,0.44,0.43
268.48,0.14,-0.30,0.14,-0.30,0.30,0.17,0.75,0.44,0.44,0.43
271.16,0.15,-0.28,0.14,-0.28,0.29,0.15,0.74,0.43,0.43,0.42
273.87,0.15,-0.28,0.15,-0.27,0.27,0.13,0.73,0.42,0.42,0.42
276.61,0.16,-0.26,0.15,-0.26,0.26,0.11,0.72,0.42,0.41,0.41
279.38,0.16,-0.26,0.16,-0.25,0.24,0.10,0.71,0.40,0.41,0.41
282.17,0.18,-0.23,0.17,-0.23,0.23,0.08,0.70,0.40,0.40,0.40
284.99,0.19,-0.21,0.18,-0.21,0.21,0.07,0.68,0.40,0.39,0.39
287.84,0.19,-0.20,0.19,-0.19,0.19,0.05,0.66,0.38,0.39,0.38
290.72,0.21,-0.17,0.20,-0.17,0.17,0.04,0.64,0.38,0.38,0.37
293.63,0.22,-0.16,0.22,-0.15,0.16,0.03,0.62,0.37,0.37,0.37
296.57,0.23,-0.14,0.23,-0.14,0.14,0.01,0.60,0.37,0.37,0.36
299.53,0.24,-0.12,0.23,-0.12,0.13,0.00,0.58,0.36,0.36,0.35
302.53,0.24,-0.12,0.24,-0.11,0.11,-0.01,0.55,0.35,0.35,0.35
305.55,0.25,-0.10,0.25,-0.10,0.10,-0.02,0.53,0.34,0.35,0.34
308.61,0.26,-0.09,0.26,-0.09,0.09,-0.02,0.50,0.34,0.34,0.34
311.69,0.27,-0.08,0.27,-0.07,0.07,-0.03,0.48,0.34,0.34,0.34
314.81,0.28,-0.06,0.27,-0.06,0.06,-0.04,0.45,0.34,0.34,0.33
317.96,0.28,-0.06,0.28,-0.05,0.05,-0.05,0.43,0.33,0.34,0.33
321.14,0.30,-0.04,0.29,-0.04,0.04,-0.05,0.40,0.34,0.33,0.33
324.35,0.30,-0.03,0.30,-0.03,0.03,-0.06,0.37,0.33,0.33,0.32
327.59,0.30,-0.03,0.30,-0.02,0.02,-0.06,0.35,0.32,0.32,0.32
330.87,0.31,-0.01,0.31,-0.01,0.01,-0.06,0.32,0.32,0.32,0.31
334.18,0.32,0.00,0.31,0.00,0.00,-0.07,0.29,0.32,0.32,0.31
337.52,0.32,0.00,0.32,0.01,-0.01,-0.07,0.26,0.31,0.31,0.31
340.90,0.33,0.02,0.32,0.01,-0.02,-0.07,0.24,0.31,0.30,0.30
344.30,0.32,0.01,0.32,0.02,-0.03,-0.07,0.21,0.29,0.30,0.30
347.75,0.33,0.03,0.33,0.04,-0.03,-0.07,0.18,0.29,0.29,0.29
351.23,0.34,0.05,0.33,0.04,-0.04,-0.08,0.16,0.29,0.29,0.28
354.74,0.34,0.06,0.33,0.06,-0.05,-0.08,0.13,0.28,0.28,0.27
358.28,0.33,0.05,0.34,0.06,-0.06,-0.08,0.11,0.26,0.27,0.27
361.87,0.34,0.07,0.33,0.07,-0.07,-0.07,0.08,0.26,0.26,0.26
365.49,0.34,0.08,0.33,0.08,-0.08,-0.07,0.05,0.26,0.25,0.25
369.14,0.33,0.08,0.33,0.09,-0.09,-0.07,0.03,0.24,0.24,0.24
372.83,0.34,0.10,0.33,0.10,-0.10,-0.07,0.00,0.24,0.23,0.23
376.56,0.33,0.10,0.33,0.11,-0.10,-0.07,-0.02,0.22,0.23,0.22
380.33,0.33,0.11,0.33,0.11,-0.11,-0.07,-0.05,0.22,0.22,0.21
384.13,0.33,0.12,0.32,0.12,-0.12,-0.06,-0.07,0.21,0.20,0.20
387.97,0.32,0.12,0.32,0.12,-0.12,-0.06,-0.10,0.19,0.19,0.19
391.85,0.31,0.12,0.31,0.13,-0.13,-0.06,-0.12,0.18,0.18,0.18
395.77,0.31,0.13,0.30,0.13,-0.13,-0.05,-0.14,0.18,0.17,0.17
399.73,0.30,0.13,0.30,0.13,-0.13,-0.05,-0.17,0.17,0.17,0.16
403.72,0.30,0.13,0.29,0.13,-0.13,-0.05,-0.19,0.16,0.16,0.16
407.76,0.29,0.13,0.29,0.13,-0.13,-0.04,-0.21,0.15,0.16,0.15
411.84,0.28,0.13,0.28,0.13,-0.13,-0.04,-0.23,0.15,0.15,0.14
415.96,0.27,0.13,0.26,0.13,-0.13,-0.03,-0.25,0.14,0.13,0.13
420.12,0.25,0.12,0.25,0.13,-0.13,-0.03,-0.27,0.12,0.12,0.12
424.32,0.24,0.12,0.24,0.12,-0.12,-0.02,-0.29,0.11,0.11,0.11
428.56,0.23,0.12,0.23,0.12,-0.12,-0.02,-0.31,0.11,0.11,0.10
432.85,0.22,0.12,0.21,0.12,-0.12,-0.01,-0.33,0.10,0.10,0.09
437.18,0.20,0.11,0.20,0.11,-0.11,-0.00,-0.34,0.08,0.08,0.08
441.55,0.18,0.10,0.18,0.11,-0.11,0.00,-0.36,0.07,0.07,0.07
445.96,0.16,0.10,0.16,0.10,-0.10,0.01,-0.37,0.06,0.06,0.05
450.42,0.14,0.09,0.14,0.09,-0.09,0.02,-0.38,0.04,0.04,0.04
454.93,0.12,0.08,0.12,0.09,-0.09,0.02,-0.40,0.03,0.03,0.03
459.48,0.10,0.08,0.10,0.08,-0.08,0.03,-0.40,0.02,0.02,0.01
464.07,0.08,0.07,0.07,0.07,-0.07,0.04,-0.41,0.01,0.00,0.00
468.71,0.05,0.05,0.05,0.06,-0.06,0.04,-0.42,-0.01,-0.01,-0.01
473.40,0.03,0.04,0.03,0.05,-0.05,0.05,-0.42,-0.02,-0.02,-0.02
478.13,0.01,0.04,0.01,0.04,-0.04,0.06,-0.42,-0.03,-0.03,-0.04
482.91,-0.01,0.03,-0.02,0.03,-0.02,0.07,-0.42,-0.04,-0.04,-0.05
487.74,-0.04,0.01,-0.04,0.02,-0.01,0.08,-0.42,-0.05,-0.05,-0.06
492.62,-0.07,-0.01,-0.07,-0.00,0.00,0.08,-0.42,-0.07,-0.07,-0.07
497.55,-0.09,-0.02,-0.10,-0.02,0.02,0.09,-0.41,-0.07,-0.08,-0.08
502.52,-0.13,-0.05,-0.13,-0.04,0.04,0.10,-0.41,-0.10,-0.09,-0.09
507.55,-0.16,-0.06,-0.16,-0.06,0.05,0.11,-0.39,-0.11,-0.10,-0.11
512.62,-0.18,-0.07,-0.19,-0.07,0.07,0.12,-0.38,-0.11,-0.11,-0.12
517.75,-0.21,-0.09,-0.22,-0.09,0.09,0.13,-0.37,-0.12,-0.12,-0.13
522.93,-0.25,-0.12,-0.25,-0.11,0.11,0.14,-0.35,-0.14,-0.13,-0.14
528.16,-0.28,-0.14,-0.28,-0.14,0.14,0.15,-0.33,-0.15,-0.15,-0.15
533.44,-0.31,-0.16,-0.31,-0.16,0.16,0.16,-0.31,-0.16,-0.16,-0.16
538.77,-0.34,-0.18,-0.35,-0.18,0.18,0.17,-0.29,-0.16,-0.16,-0.17
