frequency,raw,error,smoothed,error_smoothed,equalization,parametric_eq,fixed_band_eq,equalized_raw,equalized_smoothed,target
20.00,4.19,-0.32,4.19,-0.31,0.32,0.31,-0.08,4.51,4.51,4.51
20.20,4.20,-0.29,4.20,-0.30,0.29,0.30,-0.08,4.49,4.49,4.49
20.40,4.21,-0.27,4.21,-0.28,0.27,0.29,-0.08,4.48,4.48,4.48
20.61,4.21,-0.27,4.21,-0.26,0.26,0.28,-0.08,4.47,4.47,4.48
20.81,4.22,-0.24,4.22,-0.24,0.24,0.27,-0.08,4.46,4.46,4.46
21.02,4.23,-0.22,4.23,-0.22,0.22,0.25,-0.09,4.45,4.45,4.45
21.23,4.24,-0.20,4.24,-0.20,0.20,0.24,-0.09,4.44,4.44,4.44
21.44,4.25,-0.20,4.25,-0.19,0.19,0.23,-0.09,4.44,4.44,4.45
21.66,4.26,-0.18,4.26,-0.17,0.17,0.22,-0.09,4.43,4.43,4.44
21.87,4.27,-0.15,4.27,-0.16,0.16,0.21,-0.09,4.43,4.43,4.42
22.09,4.27,-0.14,4.27,-0.14,0.15,0.20,-0.09,4.42,4.42,4.41
22.31,4.28,-0.13,4.28,-0.13,0.13,0.19,-0.09,4.41,4.41,4.41
22.54,4.29,-0.11,4.29,-0.12,0.12,0.18,-0.09,4.41,4.41,4.40
22.76,4.29,-0.12,4.29,-0.11,0.11,0.17,-0.10,4.40,4.40,4.41
22.99,4.30,-0.10,4.30,-0.10,0.10,0.15,-0.10,4.40,4.40,4.40
23.22,4.31,-0.08,4.31,-0.09,0.08,0.14,-0.10,4.39,4.39,4.39
23.45,4.32,-0.07,4.32,-0.07,0.07,0.13,-0.10,4.39,4.39,4.39
23.69,4.33,-0.06,4.33,-0.06,0.06,0.12,-0.10,4.39,4.39,4.39
23.92,4.34,-0.05,4.34,-0.05,0.05,0.10,-0.10,4.39,4.39,4.39
24.16,4.35,-0.04,4.35,-0.04,0.04,0.09,-0.11,4.39,4.39,4.39
24.40,4.36,-0.04,4.36,-0.03,0.03,0.08,-0.11,4.39,4.39,4.40
24.65,4.37,-0.03,4.37,-0.02,0.02,0.06,-0.11,4.39,4.39,4.40
24.89,4.38,-0.00,4.38,-0.01,0.01,0.05,-0.11,4.39,4.38,4.38
25.14,4.38,0.01,4.38,0.01,-0.01,0.04,-0.11,4.37,4.38,4.37
25.39,4.39,0.02,4.39,0.02,-0.02,0.02,-0.12,4.37,4.37,4.37
25.65,4.40,0.04,4.40,0.03,-0.03,0.01,-0.12,4.37,4.37,4.36
25.91,4.41,0.05,4.41,0.05,-0.05,-0.00,-0.12,4.36,4.36,4.36
26.16,4.42,0.05,4.42,0.06,-0.06,-0.02,-0.12,4.36,4.36,4.37
26.43,4.43,0.07,4.43,0.07,-0.07,-0.03,-0.13,4.36,4.36,4.36
26.69,4.44,0.08,4.44,0.08,-0.08,-0.05,-0.13,4.36,4.36,4.36
26.96,4.45,0.09,4.45,0.10,-0.09,-0.06,-0.13,4.36,4.36,4.36
27.23,4.46,0.11,4.46,0.11,-0.11,-0.08,-0.14,4.35,4.35,4.34
27.50,4.47,0.13,4.47,0.12,-0.12,-0.09,-0.14,4.35,4.35,4.34
27.77,4.47,0.12,4.47,0.13,-0.13,-0.11,-0.15,4.34,4.35,4.35
28.05,4.48,0.13,4.48,0.13,-0.14,-0.12,-0.15,4.34,4.34,4.35
28.33,4.49,0.14,4.49,0.14,-0.14,-0.14,-0.16,4.35,4.35,4.35
28.62,4.50,0.15,4.50,0.15,-0.15,-0.16,-0.16,4.35,4.35,4.35
28.90,4.52,0.16,4.52,0.16,-0.16,-0.17,-0.17,4.36,4.36,4.36
29.19,4.53,0.18,4.53,0.17,-0.17,-0.19,-0.18,4.36,4.36,4.35
29.48,4.53,0.18,4.53,0.18,-0.18,-0.21,-0.18,4.35,4.36,4.35
29.78,4.54,0.19,4.54,0.18,-0.19,-0.22,-0.19,4.35,4.35,4.35
30.08,4.55,0.18,4.55,0.19,-0.20,-0.24,-0.20,4.35,4.35,4.37
30.38,4.57,0.21,4.57,0.21,-0.21,-0.26,-0.21,4.36,4.36,4.36
30.68,4.58,0.22,4.58,0.23,-0.23,-0.28,-0.22,4.35,4.36,4.36
30.99,4.60,0.25,4.60,0.24,-0.24,-0.29,-0.23,4.36,4.36,4.35
31.30,4.61,0.26,4.61,0.26,-0.26,-0.31,-0.24,4.35,4.35,4.35
31.61,4.62,0.27,4.62,0.27,-0.28,-0.33,-0.25,4.34,4.35,4.35
31.93,4.63,0.29,4.63,0.29,-0.29,-0.35,-0.26,4.34,4.34,4.34
32.24,4.64,0.31,4.64,0.31,-0.31,-0.37,-0.28,4.33,4.33,4.33
32.57,4.65,0.33,4.65,0.33,-0.33,-0.39,-0.29,4.32,4.33,4.32
32.89,4.67,0.35,4.66,0.34,-0.34,-0.40,-0.30,4.33,4.32,4.32
33.22,4.67,0.35,4.67,0.36,-0.36,-0.42,-0.32,4.31,4.32,4.32
33.55,4.68,0.37,4.68,0.37,-0.37,-0.44,-0.33,4.31,4.31,4.31
33.89,4.69,0.39,4.69,0.38,-0.39,-0.46,-0.35,4.30,4.30,4.30
34.23,4.69,0.40,4.69,0.40,-0.40,-0.48,-0.36,4.29,4.29,4.29
34.57,4.70,0.42,4.70,0.42,-0.42,-0.50,-0.38,4.28,4.28,4.28
34.92,4.71,0.44,4.71,0.43,-0.44,-0.52,-0.40,4.27,4.27,4.27
35.27,4.72,0.44,4.72,0.45,-0.46,-0.54,-0.42,4.26,4.26,4.28
35.62,4.73,0.49,4.73,0.48,-0.48,-0.57,-0.44,4.25,4.25,4.24
35.97,4.74,0.50,4.74,0.50,-0.50,-0.59,-0.46,4.24,4.24,4.24
36.33,4.75,0.52,4.75,0.53,-0.53,-0.61,-0.48,4.22,4.23,4.23
36.70,4.77,0.56,4.77,0.55,-0.55,-0.63,-0.50,4.22,4.22,4.21
37.06,4.78,0.58,4.78,0.58,-0.58,-0.65,-0.52,4.20,4.20,4.20
37.43,4.79,0.61,4.79,0.61,-0.61,-0.67,-0.54,4.18,4.18,4.18
37.81,4.80,0.63,4.80,0.63,-0.63,-0.69,-0.56,4.17,4.17,4.17
38.19,4.81,0.66,4.81,0.66,-0.66,-0.72,-0.59,4.15,4.15,4.15
38.57,4.82,0.69,4.82,0.69,-0.69,-0.74,-0.61,4.13,4.13,4.13
38.95,4.83,0.72,4.83,0.72,-0.72,-0.76,-0.64,4.11,4.11,4.11
39.34,4.84,0.76,4.84,0.76,-0.76,-0.78,-0.66,4.08,4.08,4.08
39.74,4.85,0.78,4.85,0.79,-0.79,-0.81,-0.69,4.06,4.06,4.07
40.14,4.86,0.82,4.86,0.82,-0.82,-0.83,-0.71,4.04,4.04,4.04
40.54,4.87,0.84,4.87,0.85,-0.84,-0.85,-0.74,4.03,4.02,4.02
40.94,4.88,0.88,4.88,0.88,-0.87,-0.88,-0.77,4.01,4.01,4.00
41.35,4.88,0.90,4.88,0.90,-0.90,-0.90,-0.80,3.98,3.99,3.98
41.76,4.89,0.92,4.89,0.92,-0.92,-0.92,-0.83,3.97,3.96,3.97
42.18,4.89,0.94,4.89,0.94,-0.95,-0.95,-0.86,3.94,3.94,3.95
42.60,4.89,0.97,4.89,0.97,-0.97,-0.97,-0.89,3.92,3.92,3.92
43.03,4.89,0.99,4.89,0.99,-0.99,-1.00,-0.92,3.90,3.90,3.90
43.46,4.89,1.01,4.89,1.01,-1.01,-1.02,-0.95,3.88,3.88,3.88
43.90,4.89,1.04,4.89,1.03,-1.03,-1.05,-0.98,3.86,3.86,3.85
44.33,4.88,1.05,4.88,1.05,-1.05,-1.07,-1.02,3.83,3.83,3.83
44.78,4.87,1.06,4.87,1.06,-1.07,-1.10,-1.05,3.80,3.80,3.81
45.23,4.87,1.08,4.87,1.08,-1.09,-1.12,-1.09,3.78,3.77,3.79
45.68,4.86,1.11,4.86,1.11,-1.12,-1.15,-1.12,3.74,3.74,3.75
46.13,4.86,1.15,4.86,1.15,-1.15,-1.17,-1.16,3.71,3.71,3.71
46.60,4.86,1.18,4.86,1.18,-1.18,-1.20,-1.20,3.68,3.68,3.68
47.06,4.86,1.21,4.86,1.21,-1.21,-1.23,-1.23,3.65,3.65,3.65
47.53,4.86,1.24,4.86,1.24,-1.25,-1.25,-1.27,3.61,3.61,3.62
48.01,4.86,1.29,4.86,1.28,-1.28,-1.28,-1.31,3.58,3.58,3.57
48.49,4.86,1.32,4.86,1.32,-1.32,-1.31,-1.35,3.54,3.54,3.54
48.97,4.86,1.36,4.86,1.36,-1.36,-1.33,-1.39,3.50,3.50,3.50
49.46,4.86,1.39,4.86,1.40,-1.40,-1.36,-1.43,3.46,3.46,3.47
49.96,4.86,1.44,4.86,1.43,-1.43,-1.39,-1.47,3.43,3.43,3.42
50.46,4.86,1.47,4.86,1.47,-1.47,-1.41,-1.51,3.39,3.39,3.39
50.96,4.86,1.50,4.86,1.50,-1.50,-1.44,-1.56,3.36,3.36,3.36
51.47,4.86,1.53,4.86,1.53,-1.53,-1.47,-1.60,3.33,3.33,3.33
51.99,4.86,1.57,4.86,1.56,-1.56,-1.49,-1.64,3.30,3.30,3.29
52.51,4.86,1.60,4.86,1.60,-1.60,-1.52,-1.68,3.26,3.26,3.26
53.03,4.86,1.62,4.86,1.63,-1.63,-1.55,-1.72,3.23,3.22,3.24
53.56,4.86,1.67,4.86,1.67,-1.67,-1.58,-1.77,3.19,3.19,3.19
54.10,4.86,1.70,4.86,1.71,-1.71,-1.61,-1.81,3.15,3.15,3.16
54.64,4.87,1.75,4.87,1.75,-1.75,-1.63,-1.85,3.12,3.11,3.12
55.18,4.87,1.80,4.87,1.80,-1.79,-1.66,-1.89,3.08,3.08,3.07
55.74,4.88,1.84,4.88,1.84,-1.83,-1.69,-1.93,3.05,3.05,3.04
56.29,4.89,1.87,4.89,1.87,-1.87,-1.72,-1.96,3.02,3.02,3.02
56.86,4.89,1.90,4.89,1.91,-1.90,-1.75,-2.00,2.99,2.99,2.99
57.42,4.89,1.94,4.89,1.93,-1.93,-1.78,-2.04,2.96,2.97,2.95
58.00,4.89,1.97,4.89,1.96,-1.95,-1.80,-2.07,2.94,2.94,2.92
58.58,4.88,1.97,4.88,1.97,-1.97,-1.83,-2.10,2.91,2.91,2.91
59.16,4.87,1.99,4.87,1.99,-1.99,-1.86,-2.14,2.88,2.87,2.88
59.76,4.85,2.00,4.85,2.00,-2.02,-1.89,-2.17,2.83,2.84,2.85
60.35,4.84,2.03,4.84,2.03,-2.04,-1.92,-2.19,2.80,2.80,2.81
60.96,4.83,2.06,4.83,2.06,-2.07,-1.95,-2.22,2.76,2.76,2.77
61.57,4.81,2.10,4.81,2.09,-2.09,-1.98,-2.24,2.72,2.72,2.71
62.18,4.79,2.12,4.79,2.12,-2.12,-2.01,-2.26,2.67,2.68,2.67
62.80,4.78,2.15,4.78,2.15,-2.14,-2.04,-2.28,2.64,2.63,2.63
63.43,4.76,2.18,4.76,2.18,-2.17,-2.06,-2.30,2.59,2.59,2.58
64.07,4.74,2.20,4.74,2.19,-2.19,-2.09,-2.32,2.55,2.55,2.54
64.71,4.71,2.20,4.71,2.21,-2.21,-2.12,-2.33,2.50,2.51,2.51
65.35,4.69,2.22,4.69,2.22,-2.22,-2.15,-2.34,2.47,2.47,2.47
66.01,4.67,2.24,4.67,2.23,-2.24,-2.18,-2.36,2.43,2.43,2.43
66.67,4.64,2.24,4.64,2.25,-2.25,-2.21,-2.36,2.39,2.39,2.40
67.33,4.62,2.27,4.62,2.26,-2.26,-2.24,-2.37,2.36,2.36,2.35
68.01,4.60,2.29,4.60,2.28,-2.28,-2.27,-2.38,2.32,2.32,2.31
68.69,4.58,2.31,4.58,2.31,-2.30,-2.30,-2.38,2.28,2.28,2.27
69.37,4.56,2.32,4.56,2.32,-2.32,-2.33,-2.39,2.24,2.24,2.24
70.07,4.55,2.34,4.55,2.34,-2.35,-2.36,-2.39,2.20,2.20,2.21
70.77,4.53,2.37,4.54,2.37,-2.38,-2.39,-2.40,2.15,2.16,2.16
71.48,4.53,2.41,4.53,2.40,-2.41,-2.42,-2.40,2.12,2.11,2.12
72.19,4.52,2.45,4.52,2.44,-2.45,-2.45,-2.40,2.07,2.07,2.07
72.91,4.51,2.47,4.52,2.48,-2.48,-2.47,-2.41,2.03,2.03,2.04
73.64,4.52,2.53,4.52,2.52,-2.52,-2.50,-2.41,2.00,1.99,1.99
74.38,4.52,2.57,4.52,2.57,-2.56,-2.53,-2.41,1.96,1.96,1.95
75.12,4.53,2.61,4.53,2.61,-2.60,-2.56,-2.42,1.93,1.93,1.92
75.87,4.54,2.64,4.54,2.64,-2.64,-2.59,-2.42,1.90,1.89,1.90
76.63,4.54,2.67,4.54,2.68,-2.68,-2.62,-2.43,1.86,1.86,1.87
77.40,4.54,2.71,4.54,2.71,-2.71,-2.65,-2.44,1.83,1.83,1.83
78.17,4.55,2.75,4.55,2.74,-2.75,-2.68,-2.44,1.80,1.80,1.80
78.95,4.56,2.78,4.56,2.78,-2.78,-2.71,-2.45,1.78,1.78,1.78
79.74,4.56,2.80,4.56,2.81,-2.80,-2.74,-2.46,1.76,1.76,1.76
80.54,4.56,2.84,4.56,2.83,-2.83,-2.76,-2.48,1.73,1.73,1.72
81.35,4.55,2.85,4.55,2.85,-2.85,-2.79,-2.49,1.70,1.70,1.70
82.16,4.54,2.87,4.54,2.87,-2.87,-2.82,-2.51,1.67,1.67,1.67
82.98,4.52,2.88,4.52,2.88,-2.89,-2.85,-2.52,1.63,1.63,1.64
83.81,4.50,2.90,4.50,2.90,-2.90,-2.88,-2.54,1.60,1.60,1.60
84.65,4.48,2.91,4.48,2.91,-2.91,-2.91,-2.57,1.57,1.57,1.57
85.50,4.46,2.93,4.46,2.92,-2.92,-2.93,-2.59,1.54,1.54,1.53
86.35,4.43,2.93,4.43,2.92,-2.92,-2.96,-2.61,1.51,1.50,1.50
87.22,4.39,2.92,4.40,2.93,-2.93,-2.99,-2.64,1.46,1.47,1.47
88.09,4.37,2.94,4.37,2.93,-2.93,-3.02,-2.67,1.44,1.43,1.43
88.97,4.34,2.94,4.34,2.94,-2.94,-3.04,-2.70,1.40,1.40,1.40
89.86,4.31,2.95,4.31,2.95,-2.94,-3.07,-2.74,1.37,1.37,1.36
90.76,4.28,2.95,4.28,2.95,-2.95,-3.10,-2.77,1.33,1.33,1.33
91.66,4.25,2.95,4.25,2.96,-2.96,-3.12,-2.81,1.29,1.30,1.30
92.58,4.23,2.97,4.23,2.97,-2.97,-3.15,-2.85,1.26,1.26,1.26
93.51,4.21,2.98,4.21,2.98,-2.99,-3.17,-2.89,1.22,1.22,1.23
94.44,4.20,3.01,4.20,3.01,-3.02,-3.20,-2.94,1.18,1.18,1.19
95.39,4.19,3.04,4.19,3.04,-3.05,-3.23,-2.98,1.14,1.14,1.15
96.34,4.19,3.08,4.19,3.08,-3.09,-3.25,-3.03,1.10,1.10,1.11
97.30,4.20,3.13,4.20,3.13,-3.13,-3.28,-3.08,1.07,1.07,1.07
98.28,4.21,3.17,4.21,3.18,-3.17,-3.30,-3.13,1.04,1.04,1.04
99.26,4.22,3.23,4.22,3.22,-3.21,-3.33,-3.18,1.01,1.01,0.99
100.25,4.22,3.27,4.22,3.26,-3.25,-3.35,-3.23,0.97,0.97,0.95
101.25,4.22,3.28,4.22,3.29,-3.29,-3.37,-3.29,0.93,0.93,0.94
102.27,4.22,3.32,4.22,3.32,-3.32,-3.40,-3.34,0.90,0.90,0.90
103.29,4.22,3.35,4.22,3.35,-3.35,-3.42,-3.40,0.87,0.87,0.87
104.32,4.22,3.37,4.22,3.38,-3.38,-3.44,-3.45,0.84,0.84,0.85
105.37,4.22,3.41,4.22,3.41,-3.41,-3.46,-3.51,0.81,0.81,0.81
106.42,4.22,3.43,4.22,3.43,-3.44,-3.49,-3.56,0.78,0.78,0.79
107.48,4.22,3.47,4.22,3.47,-3.47,-3.51,-3.62,0.75,0.75,0.75
108.56,4.22,3.50,4.22,3.50,-3.51,-3.53,-3.67,0.71,0.72,0.72
109.64,4.23,3.54,4.23,3.54,-3.54,-3.55,-3.73,0.69,0.69,0.69
110.74,4.24,3.58,4.24,3.58,-3.57,-3.57,-3.78,0.67,0.66,0.66
111.85,4.24,3.61,4.24,3.61,-3.60,-3.59,-3.83,0.64,0.63,0.63
112.97,4.23,3.64,4.23,3.63,-3.63,-3.61,-3.88,0.60,0.60,0.59
114.10,4.21,3.64,4.21,3.66,-3.65,-3.63,-3.93,0.56,0.56,0.57
115.24,4.19,3.67,4.19,3.67,-3.67,-3.65,-3.97,0.52,0.52,0.52
116.39,4.17,3.69,4.17,3.69,-3.68,-3.66,-4.01,0.49,0.49,0.48
117.55,4.14,3.69,4.14,3.70,-3.68,-3.68,-4.05,0.46,0.46,0.45
118.73,4.11,3.70,4.11,3.69,-3.69,-3.70,-4.08,0.42,0.42,0.41
119.92,4.07,3.69,4.07,3.68,-3.68,-3.72,-4.11,0.39,0.39,0.38
121.12,4.03,3.67,4.04,3.68,-3.68,-3.73,-4.14,0.35,0.35,0.36
122.33,4.01,3.68,4.01,3.67,-3.68,-3.75,-4.15,0.33,0.32,0.33
123.55,3.98,3.68,3.98,3.68,-3.68,-3.76,-4.17,0.30,0.29,0.30
124.79,3.95,3.67,3.95,3.68,-3.69,-3.78,-4.18,0.26,0.26,0.28
126.03,3.93,3.69,3.93,3.69,-3.70,-3.79,-4.19,0.23,0.24,0.24
127.29,3.92,3.71,3.92,3.71,-3.71,-3.80,-4.19,0.21,0.20,0.21
128.57,3.91,3.73,3.90,3.73,-3.73,-3.82,-4.19,0.18,0.17,0.18
129.85,3.88,3.74,3.89,3.75,-3.75,-3.83,-4.19,0.13,0.14,0.14
131.15,3.87,3.77,3.87,3.77,-3.77,-3.84,-4.18,0.10,0.10,0.10
132.46,3.86,3.80,3.85,3.79,-3.79,-3.85,-4.16,0.07,0.07,0.06
133.79,3.84,3.81,3.84,3.81,-3.80,-3.86,-4.15,0.04,0.04,0.03
135.12,3.81,3.82,3.81,3.82,-3.81,-3.87,-4.12,-0.00,0.00,-0.01
136.48,3.79,3.81,3.79,3.82,-3.82,-3.88,-4.10,-0.03,-0.03,-0.02
137.84,3.75,3.81,3.76,3.82,-3.82,-3.89,-4.07,-0.07,-0.06,-0.06
139.22,3.73,3.83,3.72,3.82,-3.82,-3.90,-4.05,-0.09,-0.10,-0.10
140.61,3.69,3.82,3.69,3.82,-3.82,-3.91,-4.01,-0.13,-0.13,-0.13
142.02,3.65,3.81,3.66,3.82,-3.82,-3.92,-3.98,-0.17,-0.16,-0.16
143.44,3.64,3.83,3.63,3.81,-3.82,-3.92,-3.95,-0.18,-0.19,-0.19
144.87,3.60,3.80,3.61,3.81,-3.82,-3.93,-3.91,-0.22,-0.21,-0.20
146.32,3.59,3.82,3.59,3.82,-3.82,-3.93,-3.88,-0.23,-0.23,-0.23
147.78,3.57,3.82,3.57,3.82,-3.83,-3.94,-3.84,-0.26,-0.26,-0.25
149.26,3.56,3.84,3.56,3.83,-3.83,-3.94,-3.81,-0.27,-0.27,-0.28
150.75,3.54,3.84,3.54,3.84,-3.84,-3.95,-3.77,-0.30,-0.30,-0.30
152.26,3.53,3.85,3.53,3.85,-3.84,-3.95,-3.74,-0.31,-0.31,-0.32
153.78,3.51,3.85,3.51,3.85,-3.85,-3.95,-3.70,-0.34,-0.34,-0.34
155.32,3.49,3.86,3.49,3.86,-3.85,-3.95,-3.67,-0.36,-0.36,-0.37
156.88,3.45,3.84,3.46,3.85,-3.85,-3.96,-3.64,-0.40,-0.39,-0.39
158.44,3.43,3.86,3.42,3.84,-3.84,-3.96,-3.61,-0.41,-0.42,-0.43
160.03,3.38,3.83,3.39,3.84,-3.84,-3.96,-3.58,-0.46,-0.45,-0.45
161.63,3.36,3.84,3.36,3.84,-3.84,-3.96,-3.56,-0.48,-0.48,-0.48
163.24,3.33,3.85,3.32,3.84,-3.84,-3.96,-3.53,-0.51,-0.52,-0.52
164.88,3.29,3.84,3.30,3.85,-3.85,-3.95,-3.51,-0.56,-0.55,-0.55
166.53,3.27,3.85,3.27,3.85,-3.86,-3.95,-3.49,-0.59,-0.59,-0.58
168.19,3.26,3.87,3.26,3.87,-3.88,-3.95,-3.48,-0.62,-0.62,-0.61
169.87,3.25,3.90,3.25,3.89,-3.90,-3.95,-3.46,-0.65,-0.65,-0.65
171.57,3.25,3.92,3.25,3.92,-3.92,-3.94,-3.45,-0.67,-0.67,-0.67
173.29,3.24,3.95,3.24,3.95,-3.94,-3.94,-3.44,-0.70,-0.70,-0.71
175.02,3.23,3.97,3.23,3.97,-3.96,-3.94,-3.44,-0.73,-0.74,-0.74
176.77,3.21,3.99,3.21,3.99,-3.98,-3.93,-3.43,-0.77,-0.77,-0.78
178.54,3.19,3.99,3.20,4.00,-4.00,-3.92,-3.43,-0.81,-0.81,-0.80
180.32,3.18,4.03,3.17,4.01,-4.02,-3.92,-3.43,-0.84,-0.84,-0.85
182.13,3.15,4.03,3.15,4.02,-4.03,-3.91,-3.44,-0.88,-0.88,-0.88
183.95,3.11,4.02,3.12,4.03,-4.04,-3.90,-3.45,-0.93,-0.92,-0.91
185.79,3.09,4.04,3.09,4.04,-4.04,-3.90,-3.46,-0.95,-0.95,-0.95
187.65,3.07,4.05,3.06,4.05,-4.04,-3.89,-3.47,-0.97,-0.98,-0.98
189.52,3.03,4.05,3.03,4.05,-4.04,-3.88,-3.48,-1.01,-1.01,-1.02
191.42,2.98,4.03,2.99,4.04,-4.03,-3.87,-3.50,-1.05,-1.05,-1.05
193.33,2.94,4.02,2.94,4.03,-4.03,-3.86,-3.52,-1.09,-1.09,-1.08
195.27,2.90,4.02,2.90,4.02,-4.02,-3.85,-3.54,-1.12,-1.12,-1.12
197.22,2.86,4.02,2.86,4.01,-4.01,-3.84,-3.56,-1.15,-1.15,-1.16
199.19,2.82,3.99,2.82,4.00,-4.00,-3.83,-3.59,-1.18,-1.18,-1.17
201.18,2.78,3.99,2.78,3.99,-4.00,-3.82,-3.61,-1.22,-1.21,-1.21
203.19,2.75,3.98,2.75,3.98,-3.99,-3.80,-3.64,-1.24,-1.24,-1.23
205.23,2.73,3.98,2.73,3.98,-3.98,-3.79,-3.67,-1.25,-1.25,-1.25
207.28,2.71,3.98,2.71,3.98,-3.98,-3.78,-3.70,-1.27,-1.27,-1.27
209.35,2.68,3.98,2.68,3.98,-3.97,-3.76,-3.73,-1.29,-1.29,-1.30
211.44,2.65,3.98,2.65,3.97,-3.96,-3.75,-3.76,-1.31,-1.31,-1.33
213.56,2.61,3.95,2.61,3.95,-3.95,-3.74,-3.79,-1.34,-1.34,-1.34
215.69,2.57,3.93,2.57,3.93,-3.94,-3.72,-3.82,-1.37,-1.37,-1.36
217.85,2.53,3.92,2.54,3.92,-3.93,-3.71,-3.85,-1.40,-1.40,-1.39
220.03,2.51,3.92,2.51,3.92,-3.92,-3.69,-3.88,-1.41,-1.41,-1.41
222.23,2.48,3.91,2.48,3.91,-3.91,-3.67,-3.91,-1.43,-1.43,-1.43
224.45,2.46,3.91,2.46,3.90,-3.90,-3.66,-3.94,-1.44,-1.45,-1.45
226.70,2.43,3.89,2.43,3.89,-3.89,-3.64,-3.96,-1.46,-1.46,-1.46
228.96,2.40,3.87,2.41,3.88,-3.88,-3.62,-3.99,-1.48,-1.48,-1.47
231.25,2.38,3.87,2.38,3.87,-3.87,-3.61,-4.00,-1.49,-1.49,-1.49
233.57,2.36,3.86,2.35,3.86,-3.85,-3.59,-4.02,-1.49,-1.50,-1.50
235.90,2.32,3.84,2.32,3.84,-3.83,-3.57,-4.03,-1.51,-1.51,-1.52
238.26,2.29,3.82,2.29,3.81,-3.81,-3.55,-4.04,-1.52,-1.52,-1.53
240.64,2.25,3.77,2.25,3.78,-3.79,-3.53,-4.05,-1.54,-1.53,-1.52
243.05,2.22,3.75,2.22,3.75,-3.76,-3.51,-4.05,-1.54,-1.54,-1.53
245.48,2.18,3.73,2.18,3.73,-3.74,-3.49,-4.05,-1.56,-1.55,-1.55
247.93,2.15,3.71,2.15,3.70,-3.71,-3.47,-4.04,-1.56,-1.56,-1.56
250.41,2.13,3.68,2.13,3.68,-3.68,-3.45,-4.03,-1.55,-1.55,-1.55
252.92,2.11,3.65,2.11,3.66,-3.66,-3.43,-4.01,-1.55,-1.54,-1.54
255.45,2.09,3.64,2.09,3.63,-3.62,-3.41,-3.99,-1.53,-1.54,-1.55
258.00,2.06,3.61,2.06,3.61,-3.59,-3.39,-3.97,-1.53,-1.53,-1.55
260.58,2.02,3.57,2.02,3.57,-3.55,-3.37,-3.94,-1.54,-1.54,-1.55
263.19,1.97,3.52,1.97,3.52,-3.52,-3.34,-3.90,-1.55,-1.55,-1.55
265.82,1.91,3.47,1.92,3.47,-3.48,-3.32,-3.86,-1.57,-1.56,-1.56
268.48,1.88,3.43,1.88,3.43,-3.45,-3.30,-3.82,-1.57,-1.57,-1.55
271.16,1.84,3.40,1.84,3.39,-3.42,-3.28,-3.78,-1.58,-1.58,-1.56
273.87,1.81,3.36,1.81,3.37,-3.38,-3.25,-3.73,-1.57,-1.57,-1.55
276.61,1.79,3.35,1.79,3.35,-3.35,-3.23,-3.68,-1.56,-1.56,-1.56
279.38,1.77,3.35,1.77,3.33,-3.31,-3.21,-3.63,-1.54,-1.55,-1.58
282.17,1.74,3.30,1.74,3.30,-3.28,-3.18,-3.57,-1.54,-1.54,-1.56
284.99,1.70,3.26,1.69,3.25,-3.24,-3.16,-3.51,-1.54,-1.55,-1.56
287.84,1.64,3.19,1.64,3.20,-3.20,-3.13,-3.45,-1.56,-1.56,-1.55
290.72,1.59,3.15,1.59,3.15,-3.16,-3.11,-3.39,-1.57,-1.56,-1.56
293.63,1.55,3.11,1.55,3.10,-3.11,-3.08,-3.33,-1.56,-1.57,-1.56
296.57,1.51,3.05,1.51,3.06,-3.07,-3.06,-3.27,-1.56,-1.56,-1.54
299.53,1.47,3.02,1.47,3.02,-3.03,-3.03,-3.21,-1.56,-1.56,-1.55
302.53,1.44,2.98,1.44,2.98,-2.99,-3.01,-3.15,-1.55,-1.54,-1.54
305.55,1.42,2.95,1.42,2.95,-2.95,-2.98,-3.08,-1.53,-1.53,-1.53
308.61,1.40,2.93,1.39,2.92,-2.91,-2.96,-3.02,-1.51,-1.52,-1.53
311.69,1.36,2.88,1.36,2.89,-2.88,-2.93,-2.96,-1.52,-1.51,-1.52
314.81,1.33,2.85,1.33,2.84,-2.84,-2.91,-2.90,-1.51,-1.51,-1.52
317.96,1.29,2.80,1.29,2.80,-2.80,-2.88,-2.84,-1.51,-1.51,-1.51
321.14,1.25,2.75,1.25,2.75,-2.76,-2.85,-2.78,-1.51,-1.51,-1.50
324.35,1.21,2.71,1.21,2.70,-2.71,-2.83,-2.73,-1.50,-1.51,-1.50
327.59,1.17,2.65,1.18,2.67,-2.67,-2.80,-2.67,-1.50,-1.50,-1.48
330.87,1.15,2.63,1.15,2.63,-2.63,-2.77,-2.62,-1.48,-1.49,-1.48
334.18,1.13,2.61,1.12,2.60,-2.59,-2.75,-2.57,-1.46,-1.47,-1.48
337.52,1.09,2.56,1.10,2.57,-2.56,-2.72,-2.52,-1.47,-1.46,-1.47
340.90,1.07,2.53,1.07,2.53,-2.52,-2.69,-2.47,-1.45,-1.45,-1.46
344.30,1.04,2.49,1.04,2.49,-2.49,-2.67,-2.42,-1.45,-1.45,-1.45
347.75,1.01,2.45,1.01,2.46,-2.46,-2.64,-2.37,-1.44,-1.44,-1.44
351.23,0.99,2.43,0.99,2.42,-2.43,-2.61,-2.33,-1.44,-1.44,-1.44
354.74,0.97,2.39,0.97,2.39,-2.40,-2.58,-2.29,-1.43,-1.44,-1.42
358.28,0.95,2.37,0.96,2.38,-2.39,-2.56,-2.25,-1.44,-1.43,-1.42
361.87,0.95,2.37,0.95,2.37,-2.37,-2.53,-2.21,-1.42,-1.42,-1.42
365.49,0.96,2.36,0.96,2.36,-2.36,-2.50,-2.17,-1.40,-1.41,-1.40
369.14,0.97,2.37,0.97,2.36,-2.36,-2.47,-2.14,-1.39,-1.39,-1.40
372.83,0.97,2.36,0.97,2.36,-2.35,-2.45,-2.10,-1.38,-1.38,-1.39
376.56,0.97,2.36,0.97,2.36,-2.35,-2.42,-2.07,-1.38,-1.38,-1.39
380.33,0.97,2.35,0.97,2.35,-2.35,-2.39,-2.04,-1.38,-1.38,-1.38
384.13,0.97,2.34,0.97,2.34,-2.34,-2.36,-2.01,-1.37,-1.37,-1.37
387.97,0.97,2.33,0.97,2.33,-2.33,-2.34,-1.99,-1.36,-1.36,-1.36
391.85,0.97,2.32,0.97,2.32,-2.32,-2.31,-1.96,-1.35,-1.35,-1.35
395.77,0.97,2.32,0.97,2.31,-2.31,-2.28,-1.94,-1.34,-1.34,-1.35
399.73,0.97,2.31,0.97,2.30,-2.31,-2.25,-1.91,-1.34,-1.34,-1.34
403.72,0.97,2.29,0.97,2.29,-2.30,-2.22,-1.89,-1.33,-1.33,-1.32
407.76,0.97,2.28,0.97,2.28,-2.30,-2.20,-1.87,-1.33,-1.32,-1.31
411.84,0.98,2.28,0.98,2.28,-2.29,-2.17,-1.85,-1.31,-1.31,-1.30
415.96,0.99,2.28,0.99,2.29,-2.29,-2.14,-1.83,-1.30,-1.30,-1.29
420.12,1.00,2.29,1.00,2.29,-2.28,-2.11,-1.82,-1.28,-1.28,-1.29
424.32,1.00,2.29,1.00,2.28,-2.27,-2.08,-1.80,-1.27,-1.27,-1.29
428.56,0.99,2.26,0.99,2.26,-2.25,-2.06,-1.79,-1.26,-1.26,-1.27
432.85,0.98,2.23,0.98,2.23,-2.23,-2.03,-1.77,-1.25,-1.26,-1.25
437.18,0.95,2.21,0.96,2.21,-2.21,-2.00,-1.76,-1.26,-1.25,-1.26
441.55,0.93,2.18,0.93,2.18,-2.17,-1.97,-1.74,-1.24,-1.25,-1.25
445.96,0.90,2.14,0.90,2.14,-2.14,-1.95,-1.73,-1.24,-1.24,-1.24
450.42,0.86,2.09,0.87,2.10,-2.10,-1.92,-1.72,-1.24,-1.23,-1.23
454.93,0.84,2.06,0.83,2.05,-2.06,-1.89,-1.70,-1.22,-1.23,-1.22
459.48,0.80,2.01,0.81,2.02,-2.02,-1.86,-1.69,-1.22,-1.22,-1.21
464.07,0.78,1.97,0.78,1.98,-1.98,-1.84,-1.68,-1.20,-1.20,-1.19
468.71,0.76,1.96,0.75,1.95,-1.95,-1.81,-1.66,-1.19,-1.19,-1.20
473.40,0.72,1.91,0.73,1.91,-1.91,-1.78,-1.65,-1.19,-1.18,-1.19
478.13,0.70,1.88,0.69,1.87,-1.87,-1.75,-1.64,-1.17,-1.17,-1.18
482.91,0.66,1.83,0.66,1.83,-1.83,-1.73,-1.62,-1.17,-1.17,-1.17
487.74,0.63,1.79,0.63,1.79,-1.79,-1.70,-1.61,-1.16,-1.16,-1.16
492.62,0.60,1.75,0.60,1.75,-1.75,-1.67,-1.59,-1.15,-1.15,-1.15
497.55,0.57,1.71,0.57,1.71,-1.71,-1.65,-1.58,-1.14,-1.14,-1.14
502.52,0.55,1.68,0.55,1.67,-1.67,-1.62,-1.56,-1.12,-1.12,-1.13
507.55,0.52,1.63,0.52,1.63,-1.63,-1.59,-1.54,-1.11,-1.11,-1.11
512.62,0.49,1.59,0.49,1.59,-1.59,-1.57,-1.53,-1.10,-1.10,-1.10
