frequency,raw,error,smoothed,error_smoothed,equalization,parametric_eq,fixed_band_eq,equalized_raw,equalized_smoothed,target
20.00,8.54,3.98,8.54,3.98,-3.98,-3.38,-1.74,4.56,4.56,4.56
20.20,8.53,3.93,8.54,3.93,-3.94,-3.39,-1.79,4.60,4.60,4.60
20.40,8.53,3.89,8.53,3.90,-3.89,-3.41,-1.84,4.64,4.64,4.64
20.61,8.53,3.87,8.53,3.86,-3.85,-3.42,-1.89,4.68,4.68,4.66
20.81,8.53,3.83,8.53,3.83,-3.82,-3.44,-1.94,4.71,4.71,4.70
21.02,8.53,3.79,8.54,3.80,-3.80,-3.45,-2.00,4.74,4.74,4.74
21.23,8.54,3.78,8.54,3.77,-3.78,-3.47,-2.05,4.77,4.76,4.76
21.44,8.54,3.76,8.55,3.76,-3.77,-3.49,-2.11,4.78,4.78,4.78
21.66,8.55,3.75,8.56,3.76,-3.76,-3.50,-2.17,4.80,4.80,4.80
21.87,8.57,3.76,8.57,3.75,-3.76,-3.52,-2.24,4.82,4.81,4.81
22.09,8.58,3.75,8.59,3.76,-3.76,-3.53,-2.30,4.82,4.82,4.83
22.31,8.60,3.76,8.61,3.77,-3.78,-3.55,-2.36,4.83,4.83,4.84
22.54,8.63,3.79,8.63,3.79,-3.79,-3.57,-2.43,4.84,4.84,4.84
22.76,8.66,3.81,8.66,3.82,-3.81,-3.58,-2.50,4.85,4.85,4.85
22.99,8.69,3.84,8.69,3.84,-3.84,-3.60,-2.57,4.86,4.86,4.85
23.22,8.72,3.86,8.72,3.86,-3.86,-3.62,-2.64,4.87,4.87,4.86
23.45,8.75,3.88,8.75,3.89,-3.88,-3.64,-2.72,4.87,4.87,4.87
23.69,8.78,3.90,8.78,3.90,-3.90,-3.66,-2.79,4.88,4.88,4.88
23.92,8.81,3.92,8.82,3.92,-3.92,-3.67,-2.87,4.90,4.90,4.90
24.16,8.84,3.93,8.84,3.93,-3.93,-3.69,-2.94,4.91,4.91,4.92
24.40,8.86,3.94,8.86,3.94,-3.94,-3.71,-3.02,4.93,4.93,4.93
24.65,8.87,3.95,8.88,3.94,-3.94,-3.73,-3.10,4.93,4.94,4.93
24.89,8.89,3.95,8.89,3.95,-3.94,-3.75,-3.18,4.96,4.95,4.95
25.14,8.89,3.94,8.89,3.94,-3.93,-3.77,-3.27,4.96,4.96,4.96
25.39,8.89,3.93,8.89,3.93,-3.92,-3.79,-3.35,4.97,4.97,4.97
25.65,8.88,3.91,8.88,3.91,-3.91,-3.81,-3.43,4.97,4.97,4.97
25.91,8.87,3.89,8.88,3.89,-3.90,-3.83,-3.52,4.98,4.98,4.98
26.16,8.87,3.88,8.87,3.88,-3.88,-3.85,-3.60,4.99,4.99,4.99
26.43,8.87,3.87,8.87,3.87,-3.87,-3.88,-3.69,5.00,5.00,5.00
26.69,8.87,3.85,8.87,3.86,-3.86,-3.90,-3.77,5.02,5.02,5.02
26.96,8.87,3.84,8.87,3.84,-3.84,-3.92,-3.85,5.03,5.03,5.03
27.23,8.87,3.83,8.87,3.83,-3.83,-3.94,-3.93,5.04,5.04,5.04
27.50,8.87,3.81,8.87,3.82,-3.82,-3.96,-4.01,5.05,5.05,5.06
27.77,8.87,3.81,8.87,3.81,-3.81,-3.99,-4.09,5.07,5.07,5.06
28.05,8.87,3.79,8.87,3.80,-3.79,-4.01,-4.17,5.08,5.08,5.08
28.33,8.87,3.80,8.87,3.79,-3.78,-4.03,-4.24,5.10,5.09,5.08
28.62,8.86,3.77,8.86,3.77,-3.76,-4.06,-4.32,5.10,5.10,5.10
28.90,8.85,3.75,8.85,3.75,-3.75,-4.08,-4.38,5.11,5.11,5.11
29.19,8.84,3.73,8.85,3.73,-3.73,-4.11,-4.45,5.11,5.12,5.12
29.48,8.84,3.71,8.84,3.71,-3.72,-4.13,-4.51,5.13,5.13,5.13
29.78,8.84,3.70,8.85,3.70,-3.71,-4.16,-4.57,5.14,5.14,5.14
30.08,8.85,3.70,8.85,3.70,-3.70,-4.18,-4.62,5.15,5.15,5.15
30.38,8.86,3.70,8.86,3.70,-3.70,-4.21,-4.67,5.16,5.16,5.16
30.68,8.87,3.70,8.88,3.71,-3.71,-4.24,-4.72,5.17,5.17,5.17
30.99,8.90,3.72,8.90,3.72,-3.72,-4.26,-4.76,5.19,5.18,5.18
31.30,8.92,3.74,8.93,3.74,-3.74,-4.29,-4.80,5.19,5.19,5.19
31.61,8.96,3.76,8.96,3.76,-3.76,-4.32,-4.83,5.20,5.20,5.21
31.93,9.00,3.80,9.00,3.80,-3.80,-4.35,-4.86,5.21,5.21,5.21
32.24,9.05,3.84,9.05,3.84,-3.84,-4.38,-4.88,5.21,5.21,5.21
32.57,9.11,3.89,9.11,3.89,-3.89,-4.40,-4.90,5.22,5.22,5.22
32.89,9.18,3.94,9.19,3.95,-3.95,-4.43,-4.91,5.23,5.23,5.24
33.22,9.26,4.02,9.26,4.02,-4.02,-4.46,-4.93,5.24,5.24,5.24
33.55,9.35,4.10,9.35,4.10,-4.10,-4.49,-4.94,5.25,5.25,5.26
33.89,9.44,4.19,9.45,4.18,-4.18,-4.52,-4.94,5.26,5.26,5.26
34.23,9.54,4.27,9.54,4.27,-4.27,-4.55,-4.94,5.27,5.27,5.27
34.57,9.64,4.37,9.64,4.37,-4.36,-4.59,-4.94,5.28,5.28,5.27
34.92,9.74,4.46,9.74,4.46,-4.46,-4.62,-4.94,5.29,5.28,5.28
35.27,9.84,4.55,9.84,4.56,-4.55,-4.65,-4.94,5.29,5.29,5.29
35.62,9.93,4.65,9.94,4.65,-4.65,-4.68,-4.94,5.28,5.29,5.29
35.97,10.03,4.75,10.04,4.74,-4.75,-4.71,-4.93,5.29,5.29,5.29
36.33,10.13,4.83,10.13,4.84,-4.84,-4.75,-4.93,5.29,5.29,5.30
36.70,10.23,4.93,10.23,4.94,-4.93,-4.78,-4.93,5.30,5.30,5.30
37.06,10.32,5.04,10.32,5.03,-5.02,-4.82,-4.92,5.31,5.31,5.29
37.43,10.40,5.11,10.40,5.11,-5.10,-4.85,-4.92,5.31,5.30,5.30
37.81,10.47,5.18,10.48,5.18,-5.18,-4.88,-4.92,5.30,5.30,5.29
38.19,10.54,5.25,10.55,5.25,-5.25,-4.92,-4.92,5.29,5.29,5.29
38.57,10.61,5.32,10.61,5.32,-5.33,-4.96,-4.92,5.29,5.28,5.30
38.95,10.67,5.39,10.67,5.39,-5.40,-4.99,-4.92,5.28,5.28,5.29
39.34,10.73,5.45,10.74,5.45,-5.46,-5.03,-4.93,5.27,5.27,5.28
39.74,10.79,5.52,10.79,5.52,-5.53,-5.07,-4.94,5.27,5.27,5.27
40.14,10.85,5.58,10.86,5.59,-5.59,-5.10,-4.95,5.27,5.27,5.28
40.54,10.91,5.65,10.91,5.64,-5.64,-5.14,-4.97,5.27,5.27,5.26
40.94,10.96,5.69,10.96,5.69,-5.69,-5.18,-4.98,5.28,5.27,5.27
41.35,10.99,5.73,11.00,5.73,-5.72,-5.22,-5.01,5.27,5.27,5.27
41.76,11.02,5.76,11.03,5.76,-5.75,-5.26,-5.03,5.27,5.27,5.26
42.18,11.04,5.78,11.04,5.78,-5.77,-5.30,-5.06,5.27,5.27,5.27
42.60,11.05,5.79,11.05,5.78,-5.78,-5.34,-5.09,5.27,5.27,5.26
43.03,11.04,5.77,11.05,5.78,-5.79,-5.38,-5.12,5.26,5.26,5.27
43.46,11.03,5.77,11.04,5.77,-5.78,-5.42,-5.16,5.25,5.26,5.27
43.90,11.02,5.76,11.03,5.76,-5.77,-5.46,-5.21,5.25,5.26,5.26
44.33,11.01,5.76,11.01,5.76,-5.75,-5.50,-5.25,5.26,5.26,5.26
44.78,10.99,5.74,10.99,5.74,-5.73,-5.54,-5.30,5.27,5.26,5.25
45.23,10.96,5.71,10.96,5.71,-5.70,-5.58,-5.36,5.26,5.26,5.26
45.68,10.93,5.68,10.93,5.68,-5.67,-5.62,-5.42,5.26,5.26,5.25
46.13,10.89,5.64,10.90,5.64,-5.64,-5.67,-5.48,5.26,5.26,5.26
46.60,10.86,5.59,10.86,5.60,-5.61,-5.71,-5.54,5.26,5.26,5.27
47.06,10.83,5.57,10.84,5.57,-5.58,-5.75,-5.61,5.26,5.26,5.26
47.53,10.81,5.55,10.82,5.54,-5.56,-5.80,-5.69,5.26,5.26,5.27
48.01,10.80,5.52,10.80,5.53,-5.54,-5.84,-5.76,5.27,5.26,5.28
48.49,10.79,5.52,10.79,5.52,-5.53,-5.89,-5.84,5.26,5.26,5.27
48.97,10.78,5.53,10.79,5.53,-5.53,-5.93,-5.93,5.26,5.26,5.26
49.46,10.78,5.53,10.78,5.54,-5.53,-5.98,-6.01,5.26,5.26,5.25
49.96,10.78,5.55,10.79,5.54,-5.53,-6.02,-6.10,5.25,5.25,5.23
50.46,10.79,5.55,10.79,5.55,-5.54,-6.07,-6.20,5.25,5.25,5.25
50.96,10.79,5.56,10.79,5.56,-5.55,-6.12,-6.29,5.24,5.24,5.24
51.47,10.79,5.57,10.80,5.57,-5.57,-6.16,-6.39,5.23,5.23,5.22
51.99,10.81,5.59,10.81,5.59,-5.59,-6.21,-6.48,5.23,5.22,5.22
52.51,10.82,5.60,10.83,5.61,-5.61,-6.26,-6.58,5.21,5.21,5.22
53.03,10.85,5.64,10.85,5.64,-5.65,-6.31,-6.68,5.20,5.20,5.21
53.56,10.89,5.69,10.89,5.69,-5.70,-6.35,-6.78,5.20,5.19,5.20
54.10,10.93,5.75,10.94,5.75,-5.76,-6.40,-6.88,5.18,5.18,5.18
54.64,10.99,5.82,11.00,5.82,-5.83,-6.45,-6.98,5.17,5.17,5.17
55.18,11.07,5.91,11.07,5.91,-5.91,-6.50,-7.07,5.16,5.16,5.16
55.74,11.15,6.01,11.15,6.00,-6.01,-6.55,-7.17,5.14,5.14,5.14
56.29,11.24,6.10,11.25,6.11,-6.12,-6.60,-7.26,5.13,5.13,5.14
56.86,11.34,6.22,11.35,6.23,-6.23,-6.65,-7.35,5.11,5.12,5.12
57.42,11.45,6.36,11.45,6.35,-6.35,-6.70,-7.43,5.11,5.11,5.10
58.00,11.56,6.48,11.56,6.48,-6.47,-6.75,-7.51,5.09,5.10,5.09
58.58,11.67,6.60,11.67,6.60,-6.59,-6.80,-7.59,5.08,5.08,5.07
59.16,11.78,6.72,11.78,6.72,-6.72,-6.84,-7.66,5.07,5.06,5.06
59.76,11.88,6.84,11.88,6.84,-6.85,-6.89,-7.72,5.04,5.04,5.05
60.35,11.98,6.96,11.98,6.96,-6.97,-6.95,-7.77,5.02,5.01,5.02
60.96,12.07,7.08,12.08,7.08,-7.09,-7.00,-7.82,4.98,4.99,5.00
61.57,12.17,7.21,12.17,7.21,-7.21,-7.05,-7.86,4.97,4.97,4.96
62.18,12.26,7.33,12.26,7.32,-7.32,-7.10,-7.90,4.95,4.94,4.94
62.80,12.34,7.43,12.34,7.43,-7.42,-7.15,-7.92,4.92,4.92,4.91
63.43,12.41,7.53,12.41,7.53,-7.52,-7.20,-7.94,4.89,4.89,4.88
64.07,12.47,7.62,12.48,7.62,-7.61,-7.25,-7.95,4.86,4.86,4.86
64.71,12.53,7.69,12.53,7.70,-7.70,-7.30,-7.95,4.84,4.83,4.84
65.35,12.58,7.77,12.58,7.77,-7.77,-7.35,-7.95,4.81,4.81,4.81
66.01,12.62,7.83,12.63,7.84,-7.84,-7.40,-7.94,4.79,4.79,4.79
66.67,12.66,7.90,12.66,7.90,-7.89,-7.45,-7.92,4.77,4.77,4.76
67.33,12.69,7.96,12.69,7.95,-7.95,-7.49,-7.90,4.75,4.75,4.73
68.01,12.71,8.00,12.71,8.00,-7.99,-7.54,-7.87,4.72,4.72,4.71
68.69,12.72,8.04,12.72,8.04,-8.04,-7.59,-7.84,4.69,4.69,4.68
69.37,12.73,8.07,12.73,8.07,-8.08,-7.64,-7.80,4.66,4.66,4.66
70.07,12.74,8.10,12.75,8.11,-8.12,-7.69,-7.76,4.63,4.63,4.64
70.77,12.76,8.15,12.76,8.15,-8.15,-7.74,-7.72,4.61,4.61,4.62
71.48,12.78,8.19,12.78,8.19,-8.19,-7.78,-7.68,4.60,4.59,4.60
72.19,12.80,8.23,12.80,8.23,-8.23,-7.83,-7.64,4.58,4.57,4.57
72.91,12.81,8.27,12.82,8.27,-8.27,-7.88,-7.59,4.55,4.55,4.55
73.64,12.83,8.31,12.83,8.31,-8.31,-7.92,-7.55,4.52,4.52,4.52
74.38,12.85,8.35,12.86,8.35,-8.36,-7.97,-7.51,4.50,4.50,4.51
75.12,12.88,8.39,12.89,8.39,-8.40,-8.01,-7.47,4.48,4.48,4.49
75.87,12.92,8.44,12.92,8.44,-8.45,-8.06,-7.43,4.47,4.47,4.48
76.63,12.96,8.50,12.96,8.50,-8.50,-8.10,-7.39,4.47,4.47,4.47
77.40,13.00,8.54,13.00,8.54,-8.54,-8.14,-7.36,4.47,4.46,4.46
78.17,13.03,8.59,13.03,8.59,-8.58,-8.19,-7.33,4.46,4.46,4.44
78.95,13.05,8.61,13.06,8.62,-8.61,-8.23,-7.30,4.44,4.45,4.44
79.74,13.07,8.64,13.07,8.64,-8.63,-8.27,-7.28,4.44,4.44,4.43
80.54,13.07,8.65,13.08,8.65,-8.65,-8.31,-7.26,4.42,4.43,4.42
81.35,13.07,8.66,13.07,8.66,-8.65,-8.35,-7.24,4.42,4.42,4.41
82.16,13.05,8.65,13.06,8.65,-8.65,-8.38,-7.23,4.41,4.41,4.40
82.98,13.03,8.63,13.03,8.64,-8.63,-8.42,-7.23,4.40,4.40,4.40
83.81,13.00,8.63,13.00,8.62,-8.61,-8.45,-7.23,4.39,4.39,4.38
84.65,12.96,8.59,12.96,8.59,-8.59,-8.49,-7.23,4.37,4.38,4.37
85.50,12.92,8.55,12.92,8.56,-8.56,-8.52,-7.24,4.36,4.36,4.37
86.35,12.88,8.53,12.89,8.53,-8.53,-8.55,-7.25,4.35,4.35,4.36
87.22,12.85,8.50,12.85,8.50,-8.51,-8.58,-7.27,4.34,4.34,4.35
88.09,12.82,8.49,12.82,8.48,-8.49,-8.61,-7.30,4.34,4.34,4.34
88.97,12.80,8.46,12.80,8.47,-8.47,-8.64,-7.33,4.34,4.33,4.34
89.86,12.77,8.45,12.78,8.45,-8.45,-8.66,-7.37,4.32,4.33,4.33
90.76,12.76,8.45,12.76,8.44,-8.44,-8.69,-7.41,4.32,4.32,4.31
91.66,12.74,8.43,12.75,8.44,-8.44,-8.71,-7.45,4.30,4.31,4.31
92.58,12.74,8.45,12.74,8.44,-8.44,-8.73,-7.51,4.30,4.30,4.30
93.51,12.74,8.44,12.74,8.44,-8.45,-8.75,-7.56,4.29,4.29,4.30
94.44,12.74,8.45,12.75,8.46,-8.47,-8.77,-7.63,4.28,4.28,4.29
95.39,12.75,8.47,12.76,8.48,-8.49,-8.79,-7.69,4.27,4.27,4.28
96.34,12.77,8.52,12.77,8.51,-8.50,-8.80,-7.77,4.27,4.27,4.26
97.30,12.78,8.54,12.78,8.53,-8.52,-8.82,-7.84,4.26,4.26,4.25
98.28,12.78,8.55,12.79,8.55,-8.54,-8.83,-7.93,4.25,4.25,4.24
99.26,12.78,8.56,12.78,8.56,-8.55,-8.84,-8.01,4.23,4.23,4.22
100.25,12.77,8.56,12.77,8.56,-8.56,-8.84,-8.10,4.21,4.21,4.21
101.25,12.75,8.56,12.76,8.57,-8.56,-8.85,-8.20,4.19,4.19,4.19
102.27,12.73,8.56,12.73,8.56,-8.56,-8.86,-8.29,4.17,4.17,4.17
103.29,12.71,8.57,12.71,8.56,-8.56,-8.86,-8.39,4.15,4.15,4.14
104.32,12.68,8.55,12.69,8.56,-8.56,-8.86,-8.49,4.12,4.12,4.13
105.37,12.66,8.56,12.66,8.55,-8.56,-8.86,-8.60,4.10,4.10,4.10
106.42,12.63,8.55,12.64,8.55,-8.56,-8.86,-8.70,4.07,4.08,4.08
107.48,12.61,8.56,12.61,8.56,-8.56,-8.85,-8.81,4.05,4.05,4.06
108.56,12.58,8.57,12.58,8.56,-8.56,-8.85,-8.91,4.02,4.02,4.02
109.64,12.55,8.57,12.55,8.57,-8.56,-8.84,-9.01,3.99,3.99,3.99
110.74,12.51,8.57,12.51,8.56,-8.56,-8.83,-9.11,3.96,3.96,3.95
111.85,12.47,8.56,12.47,8.56,-8.56,-8.82,-9.21,3.92,3.92,3.92
112.97,12.43,8.56,12.43,8.56,-8.56,-8.81,-9.31,3.87,3.87,3.87
114.10,12.39,8.56,12.39,8.56,-8.57,-8.79,-9.39,3.83,3.83,3.83
115.24,12.35,8.56,12.35,8.56,-8.57,-8.78,-9.48,3.78,3.78,3.79
116.39,12.31,8.57,12.32,8.57,-8.58,-8.76,-9.55,3.73,3.73,3.75
117.55,12.29,8.59,12.29,8.59,-8.60,-8.74,-9.62,3.70,3.70,3.71
118.73,12.27,8.61,12.27,8.61,-8.61,-8.72,-9.68,3.67,3.67,3.66
119.92,12.25,8.63,12.25,8.63,-8.62,-8.70,-9.73,3.64,3.64,3.62
121.12,12.23,8.65,12.23,8.64,-8.63,-8.68,-9.76,3.61,3.60,3.59
122.33,12.19,8.64,12.19,8.64,-8.63,-8.66,-9.79,3.56,3.56,3.55
123.55,12.15,8.63,12.16,8.64,-8.64,-8.63,-9.81,3.52,3.52,3.52
124.79,12.11,8.63,12.12,8.63,-8.64,-8.61,-9.81,3.48,3.48,3.49
126.03,12.08,8.63,12.08,8.63,-8.64,-8.58,-9.80,3.45,3.44,3.45
127.29,12.04,8.62,12.05,8.63,-8.64,-8.56,-9.78,3.41,3.41,3.42
128.57,12.01,8.64,12.02,8.63,-8.63,-8.53,-9.74,3.38,3.38,3.38
129.85,11.98,8.63,11.98,8.63,-8.63,-8.50,-9.70,3.35,3.35,3.35
131.15,11.95,8.64,11.95,8.63,-8.63,-8.47,-9.64,3.33,3.33,3.32
132.46,11.91,8.62,11.92,8.62,-8.62,-8.44,-9.58,3.29,3.30,3.30
133.79,11.88,8.61,11.88,8.61,-8.61,-8.41,-9.50,3.28,3.27,3.27
135.12,11.84,8.60,11.84,8.59,-8.59,-8.38,-9.42,3.25,3.25,3.24
136.48,11.79,8.57,11.79,8.57,-8.57,-8.35,-9.33,3.22,3.22,3.22
137.84,11.74,8.54,11.74,8.55,-8.55,-8.32,-9.23,3.20,3.19,3.20
139.22,11.68,8.52,11.69,8.52,-8.52,-8.29,-9.13,3.16,3.17,3.16
140.61,11.63,8.49,11.63,8.49,-8.49,-8.26,-9.02,3.14,3.14,3.14
142.02,11.58,8.45,11.58,8.46,-8.46,-8.23,-8.91,3.12,3.12,3.13
143.44,11.53,8.43,11.53,8.43,-8.43,-8.20,-8.80,3.11,3.11,3.11
144.87,11.48,8.40,11.48,8.40,-8.39,-8.18,-8.68,3.09,3.09,3.08
146.32,11.42,8.37,11.42,8.37,-8.36,-8.15,-8.57,3.06,3.07,3.05
147.78,11.36,8.33,11.36,8.33,-8.32,-8.12,-8.45,3.04,3.04,3.04
149.26,11.29,8.28,11.29,8.29,-8.29,-8.09,-8.34,3.00,3.00,3.01
150.75,11.22,8.25,11.23,8.25,-8.26,-8.07,-8.23,2.96,2.97,2.98
152.26,11.16,8.22,11.17,8.22,-8.23,-8.04,-8.11,2.94,2.94,2.94
153.78,11.11,8.20,11.11,8.20,-8.20,-8.02,-8.01,2.91,2.91,2.92
155.32,11.06,8.18,11.06,8.18,-8.18,-7.99,-7.90,2.89,2.89,2.88
156.88,11.01,8.15,11.01,8.16,-8.15,-7.97,-7.80,2.86,2.86,2.86
158.44,10.96,8.13,10.96,8.14,-8.14,-7.95,-7.70,2.83,2.83,2.83
160.03,10.91,8.13,10.91,8.12,-8.12,-7.93,-7.60,2.79,2.79,2.79
161.63,10.86,8.11,10.86,8.11,-8.11,-7.91,-7.51,2.76,2.76,2.76
163.24,10.81,8.10,10.82,8.10,-8.09,-7.89,-7.43,2.72,2.73,2.72
164.88,10.77,8.08,10.77,8.08,-8.08,-7.88,-7.34,2.69,2.69,2.70
166.53,10.73,8.08,10.73,8.07,-8.07,-7.86,-7.27,2.67,2.66,2.66
168.19,10.68,8.05,10.68,8.05,-8.06,-7.85,-7.20,2.63,2.62,2.63
169.87,10.63,8.04,10.63,8.04,-8.05,-7.84,-7.13,2.58,2.58,2.59
171.57,10.58,8.03,10.59,8.04,-8.04,-7.83,-7.07,2.54,2.54,2.55
173.29,10.54,8.04,10.55,8.03,-8.04,-7.82,-7.01,2.51,2.51,2.51
175.02,10.50,8.03,10.50,8.03,-8.03,-7.81,-6.96,2.48,2.47,2.47
176.77,10.45,8.03,10.45,8.03,-8.02,-7.81,-6.91,2.43,2.43,2.42
178.54,10.38,8.02,10.39,8.02,-8.01,-7.81,-6.87,2.37,2.38,2.37
180.32,10.33,8.01,10.33,8.01,-8.01,-7.80,-6.84,2.33,2.33,2.32
182.13,10.27,8.00,10.27,8.00,-8.00,-7.80,-6.81,2.27,2.27,2.28
183.95,10.21,7.99,10.21,7.98,-7.99,-7.80,-6.78,2.22,2.22,2.22
185.79,10.14,7.96,10.15,7.97,-7.98,-7.81,-6.76,2.17,2.17,2.18
187.65,10.09,7.97,10.09,7.97,-7.97,-7.81,-6.75,2.13,2.13,2.13
189.52,10.04,7.96,10.04,7.95,-7.95,-7.81,-6.74,2.09,2.08,2.08
191.42,9.98,7.94,9.99,7.94,-7.94,-7.82,-6.73,2.04,2.04,2.04
193.33,9.92,7.92,9.93,7.93,-7.93,-7.82,-6.73,2.00,2.00,2.00
195.27,9.86,7.91,9.86,7.91,-7.91,-7.82,-6.73,1.95,1.95,1.96
197.22,9.79,7.89,9.79,7.89,-7.89,-7.83,-6.74,1.91,1.91,1.91
199.19,9.72,7.87,9.73,7.87,-7.86,-7.83,-6.74,1.86,1.87,1.86
201.18,9.65,7.84,9.65,7.84,-7.83,-7.83,-6.76,1.83,1.83,1.81
203.19,9.58,7.80,9.58,7.80,-7.79,-7.84,-6.77,1.79,1.78,1.78
205.23,9.49,7.75,9.49,7.75,-7.75,-7.84,-6.79,1.74,1.74,1.74
207.28,9.40,7.69,9.41,7.70,-7.71,-7.83,-6.81,1.69,1.70,1.72
209.35,9.32,7.66,9.32,7.66,-7.66,-7.83,-6.83,1.66,1.66,1.67
211.44,9.24,7.63,9.24,7.61,-7.61,-7.82,-6.85,1.63,1.63,1.62
213.56,9.15,7.57,9.15,7.57,-7.56,-7.81,-6.87,1.59,1.59,1.59
215.69,9.06,7.50,9.06,7.51,-7.51,-7.79,-6.89,1.55,1.55,1.56
217.85,8.97,7.45,8.97,7.45,-7.46,-7.77,-6.91,1.52,1.52,1.52
220.03,8.88,7.40,8.88,7.40,-7.40,-7.74,-6.93,1.48,1.48,1.48
222.23,8.79,7.34,8.80,7.34,-7.34,-7.70,-6.94,1.45,1.46,1.46
224.45,8.72,7.28,8.72,7.28,-7.28,-7.66,-6.96,1.45,1.44,1.44
226.70,8.63,7.21,8.63,7.21,-7.21,-7.61,-6.96,1.42,1.42,1.42
228.96,8.54,7.15,8.55,7.14,-7.14,-7.55,-6.96,1.40,1.40,1.40
231.25,8.45,7.06,8.45,7.07,-7.07,-7.48,-6.96,1.38,1.38,1.39
233.57,8.36,6.99,8.36,6.99,-6.99,-7.41,-6.95,1.37,1.37,1.37
235.90,8.27,6.91,8.27,6.91,-6.91,-7.32,-6.93,1.37,1.37,1.37
238.26,8.17,6.82,8.18,6.82,-6.81,-7.22,-6.90,1.36,1.36,1.35
240.64,8.08,6.73,8.08,6.72,-6.72,-7.12,-6.87,1.37,1.36,1.36
243.05,7.97,6.61,7.97,6.61,-6.61,-7.00,-6.82,1.36,1.36,1.36
245.48,7.85,6.50,7.86,6.50,-6.50,-6.87,-6.76,1.35,1.36,1.36
247.93,7.73,6.37,7.74,6.38,-6.38,-6.74,-6.70,1.35,1.36,1.36
250.41,7.63,6.28,7.63,6.26,-6.26,-6.59,-6.62,1.38,1.37,1.36
252.92,7.51,6.13,7.51,6.13,-6.13,-6.43,-6.53,1.39,1.38,1.38
255.45,7.38,5.99,7.39,6.00,-5.99,-6.27,-6.43,1.39,1.39,1.40
258.00,7.25,5.85,7.25,5.85,-5.86,-6.09,-6.32,1.40,1.40,1.40
260.58,7.12,5.71,7.12,5.71,-5.72,-5.91,-6.20,1.41,1.41,1.41
263.19,6.99,5.57,6.99,5.57,-5.58,-5.72,-6.07,1.42,1.42,1.43
265.82,6.86,5.43,6.86,5.43,-5.43,-5.53,-5.93,1.43,1.43,1.43
268.48,6.73,5.28,6.74,5.28,-5.28,-5.32,-5.78,1.45,1.45,1.46
271.16,6.60,5.13,6.60,5.13,-5.13,-5.12,-5.62,1.47,1.47,1.47
273.87,6.46,4.98,6.46,4.98,-4.98,-4.90,-5.46,1.48,1.48,1.48
276.61,6.31,4.82,6.32,4.82,-4.82,-4.69,-5.28,1.50,1.50,1.50
279.38,6.16,4.66,6.16,4.66,-4.65,-4.47,-5.10,1.52,1.51,1.50
282.17,6.00,4.48,6.00,4.48,-4.47,-4.25,-4.92,1.53,1.53,1.52
284.99,5.82,4.29,5.83,4.29,-4.29,-4.02,-4.73,1.54,1.54,1.54
287.84,5.64,4.10,5.64,4.09,-4.09,-3.80,-4.53,1.55,1.55,1.55
290.72,5.45,3.89,5.45,3.89,-3.89,-3.57,-4.33,1.56,1.56,1.56
293.63,5.25,3.68,5.26,3.68,-3.68,-3.35,-4.13,1.57,1.57,1.57
296.57,5.05,3.47,5.05,3.47,-3.47,-3.12,-3.92,1.59,1.58,1.59
299.53,4.84,3.25,4.84,3.25,-3.25,-2.90,-3.72,1.60,1.60,1.60
302.53,4.62,3.02,4.63,3.02,-3.02,-2.67,-3.51,1.61,1.61,1.60
305.55,4.40,2.78,4.41,2.79,-2.78,-2.45,-3.29,1.62,1.62,1.62
308.61,4.18,2.56,4.18,2.55,-2.54,-2.23,-3.08,1.64,1.64,1.63
311.69,3.95,2.31,3.95,2.30,-2.30,-2.01,-2.87,1.65,1.65,1.65
314.81,3.71,2.05,3.72,2.06,-2.06,-1.79,-2.65,1.65,1.66,1.66
317.96,3.48,1.81,3.49,1.81,-1.81,-1.58,-2.44,1.67,1.67,1.67
321.14,3.25,1.57,3.25,1.57,-1.57,-1.37,-2.22,1.68,1.68,1.68
324.35,3.02,1.33,3.02,1.33,-1.33,-1.16,-2.01,1.69,1.69,1.69
327.59,2.78,1.09,2.79,1.09,-1.09,-0.96,-1.79,1.69,1.69,1.70
330.87,2.55,0.85,2.56,0.85,-0.86,-0.76,-1.58,1.70,1.70,1.71
334.18,2.33,0.62,2.34,0.62,-0.63,-0.56,-1.36,1.71,1.71,1.71
337.52,2.12,0.41,2.12,0.40,-0.40,-0.37,-1.15,1.72,1.72,1.71
340.90,1.91,0.18,1.91,0.19,-0.18,-0.18,-0.93,1.73,1.73,1.73
344.30,1.70,-0.03,1.70,-0.03,0.03,0.01,-0.72,1.74,1.74,1.73
347.75,1.49,-0.25,1.49,-0.24,0.25,0.19,-0.50,1.74,1.74,1.74
351.23,1.28,-0.45,1.29,-0.45,0.45,0.37,-0.29,1.74,1.74,1.74
354.74,1.08,-0.65,1.09,-0.65,0.65,0.55,-0.08,1.74,1.74,1.74
358.28,0.89,-0.85,0.89,-0.85,0.85,0.73,0.14,1.74,1.74,1.75
361.87,0.70,-1.04,0.70,-1.04,1.04,0.90,0.35,1.74,1.74,1.74
365.49,0.51,-1.23,0.52,-1.22,1.22,1.07,0.57,1.73,1.74,1.74
369.14,0.33,-1.40,0.34,-1.40,1.40,1.23,0.78,1.73,1.73,1.73
372.83,0.16,-1.57,0.16,-1.57,1.57,1.40,1.00,1.73,1.73,1.73
376.56,-0.01,-1.74,-0.00,-1.74,1.74,1.56,1.21,1.73,1.73,1.73
380.33,-0.17,-1.91,-0.17,-1.90,1.90,1.72,1.43,1.73,1.73,1.74
384.13,-0.33,-2.05,-0.33,-2.06,2.06,1.88,1.64,1.74,1.73,1.73
387.97,-0.49,-2.21,-0.49,-2.22,2.22,2.03,1.86,1.74,1.73,1.73
391.85,-0.66,-2.37,-0.66,-2.38,2.38,2.19,2.07,1.73,1.73,1.72
395.77,-0.83,-2.55,-0.82,-2.54,2.54,2.35,2.28,1.72,1.72,1.73
399.73,-0.99,-2.70,-0.99,-2.71,2.70,2.51,2.50,1.72,1.71,1.72
403.72,-1.16,-2.87,-1.15,-2.87,2.86,2.67,2.71,1.71,1.71,1.71
407.76,-1.32,-3.03,-1.31,-3.03,3.03,2.83,2.92,1.71,1.71,1.71
411.84,-1.48,-3.20,-1.47,-3.19,3.19,2.99,3.13,1.72,1.72,1.72
415.96,-1.63,-3.35,-1.63,-3.36,3.36,3.16,3.34,1.74,1.73,1.72
420.12,-1.81,-3.53,-1.81,-3.53,3.54,3.33,3.54,1.73,1.73,1.72
424.32,-1.99,-3.71,-1.99,-3.71,3.72,3.51,3.75,1.73,1.73,1.72
428.56,-2.19,-3.90,-2.18,-3.89,3.90,3.69,3.95,1.71,1.72,1.71
432.85,-2.38,-4.09,-2.37,-4.08,4.09,3.88,4.14,1.71,1.72,1.71
437.18,-2.56,-4.27,-2.56,-4.27,4.28,4.07,4.33,1.72,1.72,1.71
441.55,-2.75,-4.47,-2.75,-4.46,4.47,4.27,4.52,1.72,1.72,1.72
445.96,-2.94,-4.65,-2.94,-4.65,4.66,4.47,4.70,1.72,1.72,1.72
450.42,-3.13,-4.83,-3.13,-4.84,4.84,4.67,4.87,1.71,1.71,1.71
454.93,-3.31,-5.02,-3.30,-5.01,5.00,4.87,5.03,1.70,1.70,1.72
459.48,-3.46,-5.17,-3.45,-5.17,5.16,5.07,5.19,1.70,1.71,1.72
464.07,-3.58,-5.29,-3.58,-5.30,5.30,5.25,5.33,1.72,1.72,1.72
468.71,-3.70,-5.42,-3.70,-5.42,5.42,5.42,5.47,1.73,1.72,1.73
473.40,-3.80,-5.51,-3.80,-5.52,5.52,5.56,5.59,1.73,1.73,1.72
478.13,-3.89,-5.61,-3.88,-5.60,5.60,5.67,5.70,1.71,1.72,1.73
482.91,-3.94,-5.66,-3.94,-5.67,5.65,5.74,5.80,1.72,1.71,1.73
487.74,-3.98,-5.70,-3.97,-5.70,5.68,5.79,5.89,1.71,1.71,1.73
492.62,-3.98,-5.71,-3.98,-5.70,5.69,5.79,5.96,1.72,1.72,1.73
497.55,-3.96,-5.68,-3.96,-5.69,5.68,5.77,6.01,1.72,1.72,1.72
502.52,-3.92,-5.65,-3.92,-5.65,5.65,5.72,6.06,1.73,1.73,1.73
507.55,-3.87,-5.59,-3.87,-5.59,5.60,5.66,6.08,1.73,1.73,1.72
512.62,-3.81,-5.53,-3.80,-5.53,5.54,5.58,6.10,1.73,1.73,1.72
