frequency,raw,error,smoothed,error_smoothed,equalization,parametric_eq,fixed_band_eq,equalized_raw,equalized_smoothed,target
20.00,-8.02,-8.10,-8.02,-8.10,6.00,5.97,1.77,-2.02,-2.02,0.08
20.20,-7.89,-8.01,-7.89,-8.01,6.00,6.04,1.82,-1.89,-1.89,0.12
20.40,-7.76,-7.92,-7.76,-7.92,6.00,6.10,1.87,-1.76,-1.76,0.16
20.61,-7.63,-7.81,-7.63,-7.82,6.00,6.15,1.93,-1.63,-1.63,0.18
20.81,-7.51,-7.73,-7.51,-7.73,6.00,6.19,1.98,-1.51,-1.51,0.22
21.02,-7.38,-7.64,-7.38,-7.64,6.00,6.22,2.04,-1.38,-1.38,0.26
21.23,-7.27,-7.54,-7.27,-7.54,6.00,6.24,2.10,-1.27,-1.27,0.27
21.44,-7.15,-7.44,-7.15,-7.44,6.00,6.26,2.16,-1.15,-1.15,0.29
21.66,-7.04,-7.34,-7.04,-7.34,6.00,6.26,2.23,-1.04,-1.04,0.30
21.87,-6.93,-7.23,-6.92,-7.23,6.00,6.26,2.29,-0.93,-0.92,0.30
22.09,-6.80,-7.11,-6.80,-7.10,6.00,6.24,2.36,-0.80,-0.80,0.31
22.31,-6.66,-6.97,-6.66,-6.97,6.00,6.22,2.42,-0.66,-0.66,0.31
22.54,-6.52,-6.83,-6.52,-6.82,6.00,6.19,2.49,-0.52,-0.51,0.31
22.76,-6.38,-6.68,-6.38,-6.68,6.01,6.14,2.57,-0.37,-0.37,0.30
22.99,-6.24,-6.53,-6.25,-6.54,6.02,6.09,2.64,-0.22,-0.23,0.29
23.22,-6.13,-6.42,-6.13,-6.41,6.02,6.03,2.71,-0.11,-0.10,0.29
23.45,-6.02,-6.30,-6.02,-6.30,6.01,5.97,2.79,-0.01,-0.01,0.28
23.69,-5.91,-6.19,-5.91,-6.19,5.98,5.89,2.87,0.07,0.07,0.28
23.92,-5.80,-6.08,-5.79,-6.07,5.94,5.81,2.95,0.14,0.15,0.28
24.16,-5.67,-5.95,-5.67,-5.95,5.88,5.73,3.03,0.21,0.21,0.29
24.40,-5.54,-5.82,-5.54,-5.82,5.80,5.64,3.11,0.26,0.26,0.29
24.65,-5.41,-5.69,-5.41,-5.69,5.71,5.54,3.19,0.30,0.30,0.28
24.89,-5.29,-5.56,-5.29,-5.57,5.61,5.44,3.28,0.32,0.32,0.27
25.14,-5.18,-5.45,-5.18,-5.46,5.50,5.34,3.36,0.32,0.31,0.27
25.39,-5.09,-5.36,-5.09,-5.36,5.38,5.23,3.44,0.29,0.29,0.27
25.65,-5.00,-5.26,-5.00,-5.26,5.26,5.13,3.53,0.26,0.26,0.26
25.91,-4.91,-5.16,-4.91,-5.16,5.14,5.02,3.61,0.23,0.24,0.25
26.16,-4.81,-5.06,-4.80,-5.06,5.04,4.90,3.69,0.23,0.23,0.25
26.43,-4.69,-4.94,-4.69,-4.94,4.94,4.79,3.77,0.25,0.25,0.25
26.69,-4.57,-4.82,-4.57,-4.82,4.84,4.68,3.85,0.27,0.26,0.25
26.96,-4.46,-4.70,-4.47,-4.71,4.73,4.57,3.93,0.27,0.27,0.24
27.23,-4.37,-4.61,-4.37,-4.61,4.63,4.46,4.01,0.26,0.26,0.24
27.50,-4.29,-4.53,-4.29,-4.53,4.52,4.35,4.08,0.23,0.23,0.24
27.77,-4.21,-4.44,-4.21,-4.44,4.42,4.23,4.15,0.21,0.20,0.23
28.05,-4.13,-4.36,-4.12,-4.34,4.31,4.13,4.22,0.18,0.20,0.23
28.33,-4.01,-4.23,-4.01,-4.22,4.22,4.02,4.28,0.21,0.21,0.22
28.62,-3.88,-4.10,-3.88,-4.10,4.13,3.91,4.33,0.24,0.24,0.22
28.90,-3.76,-3.97,-3.77,-3.98,4.03,3.80,4.39,0.27,0.26,0.21
29.19,-3.67,-3.88,-3.67,-3.89,3.92,3.70,4.43,0.25,0.24,0.21
29.48,-3.60,-3.82,-3.60,-3.82,3.80,3.60,4.47,0.20,0.20,0.22
29.78,-3.52,-3.73,-3.52,-3.74,3.68,3.50,4.50,0.16,0.16,0.21
30.08,-3.43,-3.65,-3.41,-3.62,3.55,3.40,4.53,0.12,0.14,0.22
30.38,-3.26,-3.46,-3.26,-3.46,3.43,3.30,4.54,0.17,0.18,0.20
30.68,-3.09,-3.29,-3.10,-3.29,3.32,3.21,4.55,0.23,0.22,0.20
30.99,-2.93,-3.12,-2.96,-3.15,3.21,3.12,4.55,0.28,0.25,0.19
31.30,-2.87,-3.06,-2.87,-3.05,3.12,3.03,4.55,0.25,0.26,0.19
31.61,-2.82,-3.01,-2.81,-2.99,3.04,2.94,4.53,0.22,0.23,0.19
31.93,-2.77,-2.93,-2.78,-2.95,2.97,2.85,4.51,0.20,0.19,0.16
32.24,-2.75,-2.90,-2.76,-2.92,2.90,2.77,4.48,0.15,0.14,0.15
32.57,-2.74,-2.89,-2.74,-2.89,2.84,2.68,4.44,0.10,0.10,0.15
32.89,-2.73,-2.87,-2.71,-2.84,2.77,2.60,4.40,0.04,0.07,0.14
33.22,-2.64,-2.76,-2.63,-2.75,2.70,2.53,4.34,0.06,0.07,0.12
33.55,-2.51,-2.62,-2.52,-2.63,2.61,2.45,4.28,0.10,0.09,0.12
33.89,-2.38,-2.48,-2.39,-2.49,2.52,2.37,4.22,0.14,0.12,0.09
34.23,-2.29,-2.38,-2.29,-2.38,2.42,2.30,4.15,0.13,0.13,0.09
34.57,-2.21,-2.28,-2.21,-2.28,2.32,2.23,4.07,0.11,0.11,0.07
34.92,-2.14,-2.20,-2.15,-2.21,2.23,2.16,3.99,0.09,0.09,0.06
35.27,-2.09,-2.15,-2.09,-2.14,2.15,2.09,3.91,0.06,0.06,0.06
35.62,-2.05,-2.09,-2.04,-2.08,2.08,2.03,3.82,0.03,0.03,0.04
35.97,-2.00,-2.02,-2.00,-2.03,2.01,1.96,3.72,0.01,0.01,0.02
36.33,-1.95,-1.97,-1.95,-1.97,1.94,1.90,3.63,-0.01,-0.01,0.02
36.70,-1.90,-1.91,-1.90,-1.91,1.88,1.84,3.53,-0.02,-0.02,0.01
37.06,-1.84,-1.84,-1.83,-1.83,1.83,1.78,3.43,-0.01,-0.00,-0.00
37.43,-1.75,-1.75,-1.75,-1.74,1.78,1.72,3.33,0.03,0.03,0.00
37.81,-1.67,-1.66,-1.68,-1.67,1.73,1.66,3.23,0.06,0.05,-0.01
38.19,-1.63,-1.61,-1.65,-1.64,1.68,1.61,3.13,0.05,0.03,-0.02
38.57,-1.65,-1.64,-1.65,-1.63,1.62,1.55,3.03,-0.03,-0.02,-0.01
38.95,-1.67,-1.64,-1.64,-1.62,1.55,1.50,2.92,-0.11,-0.09,-0.03
39.34,-1.60,-1.57,-1.61,-1.58,1.49,1.45,2.82,-0.11,-0.12,-0.03
39.74,-1.53,-1.49,-1.53,-1.49,1.42,1.40,2.72,-0.11,-0.11,-0.04
40.14,-1.43,-1.39,-1.40,-1.35,1.37,1.35,2.62,-0.06,-0.03,-0.05
40.54,-1.28,-1.23,-1.27,-1.22,1.31,1.30,2.51,0.03,0.04,-0.05
40.94,-1.13,-1.08,-1.20,-1.15,1.25,1.25,2.41,0.12,0.05,-0.05
41.35,-1.19,-1.12,-1.20,-1.14,1.20,1.20,2.31,0.01,-0.00,-0.07
41.76,-1.28,-1.20,-1.24,-1.16,1.14,1.16,2.22,-0.14,-0.10,-0.08
42.18,-1.29,-1.21,-1.26,-1.18,1.09,1.11,2.12,-0.20,-0.18,-0.08
42.60,-1.21,-1.11,-1.22,-1.13,1.04,1.07,2.02,-0.17,-0.18,-0.10
43.03,-1.13,-1.03,-1.14,-1.03,1.00,1.02,1.92,-0.13,-0.14,-0.10
43.46,-1.07,-0.94,-1.07,-0.94,0.97,0.98,1.83,-0.10,-0.10,-0.13
43.90,-1.01,-0.86,-1.01,-0.87,0.92,0.94,1.74,-0.09,-0.09,-0.15
44.33,-0.98,-0.81,-0.97,-0.81,0.86,0.90,1.65,-0.12,-0.11,-0.17
44.78,-0.95,-0.76,-0.96,-0.77,0.80,0.86,1.55,-0.15,-0.16,-0.19
45.23,-0.96,-0.75,-0.98,-0.77,0.74,0.82,1.47,-0.22,-0.24,-0.21
45.68,-0.99,-0.77,-0.98,-0.75,0.69,0.78,1.38,-0.30,-0.29,-0.22
46.13,-0.97,-0.73,-0.93,-0.69,0.64,0.74,1.29,-0.33,-0.28,-0.24
46.60,-0.84,-0.60,-0.85,-0.60,0.60,0.70,1.20,-0.24,-0.25,-0.24
47.06,-0.72,-0.47,-0.77,-0.52,0.55,0.66,1.12,-0.17,-0.21,-0.25
47.53,-0.73,-0.48,-0.72,-0.47,0.52,0.63,1.04,-0.21,-0.21,-0.25
48.01,-0.74,-0.48,-0.72,-0.46,0.49,0.59,0.96,-0.25,-0.24,-0.26
48.49,-0.74,-0.46,-0.74,-0.46,0.47,0.55,0.87,-0.27,-0.27,-0.28
48.97,-0.74,-0.45,-0.74,-0.44,0.46,0.52,0.80,-0.28,-0.28,-0.29
49.46,-0.74,-0.44,-0.74,-0.43,0.45,0.48,0.72,-0.29,-0.28,-0.30
49.96,-0.74,-0.42,-0.77,-0.46,0.45,0.45,0.64,-0.29,-0.31,-0.32
50.46,-0.79,-0.48,-0.79,-0.48,0.45,0.41,0.57,-0.34,-0.35,-0.31
50.96,-0.84,-0.53,-0.79,-0.47,0.43,0.38,0.49,-0.41,-0.36,-0.31
51.47,-0.75,-0.43,-0.75,-0.43,0.40,0.34,0.42,-0.35,-0.35,-0.32
51.99,-0.65,-0.32,-0.70,-0.37,0.36,0.31,0.35,-0.29,-0.34,-0.33
52.51,-0.65,-0.32,-0.65,-0.32,0.32,0.28,0.28,-0.33,-0.33,-0.33
53.03,-0.64,-0.31,-0.59,-0.26,0.28,0.24,0.21,-0.36,-0.31,-0.33
53.56,-0.54,-0.20,-0.55,-0.21,0.24,0.21,0.14,-0.30,-0.31,-0.34
54.10,-0.46,-0.11,-0.51,-0.17,0.20,0.18,0.08,-0.26,-0.30,-0.35
54.64,-0.51,-0.16,-0.50,-0.15,0.18,0.15,0.02,-0.33,-0.32,-0.35
55.18,-0.55,-0.19,-0.53,-0.17,0.17,0.12,-0.05,-0.38,-0.36,-0.36
55.74,-0.55,-0.18,-0.55,-0.19,0.16,0.09,-0.10,-0.39,-0.39,-0.37
56.29,-0.55,-0.18,-0.55,-0.18,0.15,0.05,-0.16,-0.40,-0.40,-0.37
56.86,-0.55,-0.16,-0.55,-0.16,0.15,0.02,-0.22,-0.40,-0.40,-0.39
57.42,-0.55,-0.15,-0.55,-0.15,0.15,-0.00,-0.27,-0.40,-0.40,-0.40
58.00,-0.55,-0.13,-0.55,-0.13,0.14,-0.03,-0.32,-0.41,-0.41,-0.42
58.58,-0.55,-0.12,-0.55,-0.12,0.13,-0.06,-0.36,-0.42,-0.42,-0.43
59.16,-0.55,-0.11,-0.55,-0.10,0.10,-0.09,-0.41,-0.45,-0.45,-0.44
59.76,-0.55,-0.08,-0.55,-0.09,0.08,-0.12,-0.45,-0.47,-0.47,-0.47
60.35,-0.55,-0.06,-0.55,-0.06,0.05,-0.14,-0.49,-0.50,-0.50,-0.49
60.96,-0.55,-0.04,-0.55,-0.03,0.02,-0.17,-0.53,-0.53,-0.53,-0.51
61.57,-0.55,0.01,-0.55,0.01,-0.01,-0.20,-0.56,-0.56,-0.56,-0.56
62.18,-0.55,0.05,-0.55,0.04,-0.04,-0.22,-0.59,-0.59,-0.59,-0.60
62.80,-0.55,0.08,-0.55,0.08,-0.07,-0.25,-0.62,-0.62,-0.62,-0.63
63.43,-0.55,0.12,-0.55,0.12,-0.11,-0.27,-0.64,-0.66,-0.66,-0.67
64.07,-0.55,0.15,-0.55,0.15,-0.15,-0.29,-0.66,-0.70,-0.70,-0.70
64.71,-0.55,0.19,-0.55,0.19,-0.20,-0.31,-0.68,-0.75,-0.75,-0.74
65.35,-0.55,0.22,-0.55,0.22,-0.24,-0.33,-0.70,-0.79,-0.79,-0.77
66.01,-0.55,0.26,-0.55,0.26,-0.28,-0.35,-0.72,-0.83,-0.83,-0.81
66.67,-0.55,0.30,-0.53,0.31,-0.31,-0.37,-0.73,-0.86,-0.85,-0.85
67.33,-0.52,0.36,-0.51,0.37,-0.34,-0.39,-0.74,-0.86,-0.85,-0.88
68.01,-0.47,0.45,-0.51,0.41,-0.37,-0.41,-0.75,-0.84,-0.87,-0.92
68.69,-0.53,0.43,-0.53,0.43,-0.39,-0.42,-0.75,-0.92,-0.93,-0.96
69.37,-0.59,0.41,-0.58,0.42,-0.42,-0.44,-0.76,-1.01,-1.00,-1.00
70.07,-0.65,0.39,-0.63,0.40,-0.44,-0.45,-0.76,-1.09,-1.08,-1.04
70.77,-0.65,0.42,-0.65,0.42,-0.46,-0.46,-0.76,-1.11,-1.12,-1.07
71.48,-0.65,0.47,-0.66,0.46,-0.48,-0.47,-0.76,-1.13,-1.14,-1.12
72.19,-0.65,0.51,-0.65,0.52,-0.51,-0.48,-0.76,-1.16,-1.15,-1.16
72.91,-0.65,0.56,-0.64,0.57,-0.54,-0.49,-0.75,-1.19,-1.19,-1.21
73.64,-0.65,0.61,-0.68,0.58,-0.58,-0.50,-0.75,-1.23,-1.26,-1.26
74.38,-0.70,0.60,-0.71,0.59,-0.61,-0.51,-0.75,-1.31,-1.33,-1.30
75.12,-0.78,0.57,-0.73,0.62,-0.64,-0.52,-0.74,-1.42,-1.36,-1.35
75.87,-0.73,0.66,-0.72,0.67,-0.65,-0.52,-0.74,-1.38,-1.37,-1.39
76.63,-0.68,0.74,-0.72,0.70,-0.66,-0.53,-0.73,-1.34,-1.38,-1.42
77.40,-0.73,0.73,-0.75,0.71,-0.66,-0.53,-0.73,-1.39,-1.42,-1.46
78.17,-0.86,0.64,-0.85,0.65,-0.67,-0.53,-0.72,-1.53,-1.51,-1.50
78.95,-0.94,0.59,-0.93,0.60,-0.67,-0.54,-0.71,-1.61,-1.60,-1.53
79.74,-1.00,0.56,-0.96,0.60,-0.66,-0.54,-0.71,-1.66,-1.61,-1.56
80.54,-0.93,0.66,-0.93,0.66,-0.65,-0.54,-0.70,-1.58,-1.57,-1.59
81.35,-0.88,0.74,-0.93,0.69,-0.63,-0.54,-0.70,-1.51,-1.57,-1.62
82.16,-0.95,0.70,-0.98,0.66,-0.62,-0.54,-0.69,-1.57,-1.60,-1.65
82.98,-1.13,0.54,-1.08,0.60,-0.60,-0.54,-0.69,-1.73,-1.68,-1.67
83.81,-1.18,0.53,-1.16,0.55,-0.59,-0.54,-0.68,-1.77,-1.75,-1.72
84.65,-1.20,0.55,-1.19,0.55,-0.57,-0.54,-0.68,-1.77,-1.76,-1.75
85.50,-1.18,0.59,-1.20,0.57,-0.55,-0.54,-0.67,-1.73,-1.75,-1.77
86.35,-1.22,0.58,-1.28,0.53,-0.52,-0.54,-0.67,-1.74,-1.80,-1.81
87.22,-1.38,0.46,-1.35,0.49,-0.50,-0.53,-0.67,-1.88,-1.85,-1.84
88.09,-1.48,0.39,-1.39,0.48,-0.50,-0.53,-0.67,-1.98,-1.88,-1.87
88.97,-1.35,0.55,-1.40,0.50,-0.50,-0.53,-0.66,-1.85,-1.91,-1.90
89.86,-1.34,0.60,-1.41,0.53,-0.52,-0.53,-0.66,-1.86,-1.93,-1.94
90.76,-1.47,0.50,-1.43,0.54,-0.54,-0.53,-0.66,-2.01,-1.98,-1.97
91.66,-1.51,0.49,-1.47,0.53,-0.57,-0.53,-0.66,-2.08,-2.04,-2.00
92.58,-1.46,0.58,-1.45,0.58,-0.61,-0.53,-0.66,-2.07,-2.07,-2.04
93.51,-1.38,0.68,-1.41,0.65,-0.65,-0.52,-0.67,-2.03,-2.05,-2.06
94.44,-1.36,0.73,-1.38,0.71,-0.67,-0.52,-0.67,-2.03,-2.05,-2.09
95.39,-1.41,0.71,-1.38,0.74,-0.69,-0.52,-0.67,-2.10,-2.08,-2.12
96.34,-1.42,0.74,-1.41,0.74,-0.71,-0.52,-0.67,-2.13,-2.12,-2.16
97.30,-1.44,0.74,-1.47,0.71,-0.72,-0.52,-0.68,-2.16,-2.19,-2.18
98.28,-1.52,0.69,-1.52,0.69,-0.71,-0.52,-0.68,-2.23,-2.23,-2.21
99.26,-1.62,0.61,-1.58,0.66,-0.69,-0.52,-0.69,-2.31,-2.26,-2.23
100.25,-1.61,0.65,-1.62,0.64,-0.65,-0.52,-0.69,-2.26,-2.27,-2.26
101.25,-1.64,0.65,-1.66,0.63,-0.61,-0.53,-0.70,-2.25,-2.27,-2.29
102.27,-1.72,0.60,-1.73,0.60,-0.56,-0.53,-0.70,-2.28,-2.28,-2.32
103.29,-1.84,0.53,-1.83,0.53,-0.50,-0.53,-0.71,-2.34,-2.34,-2.37
104.32,-1.95,0.44,-1.94,0.45,-0.45,-0.53,-0.71,-2.40,-2.39,-2.39
105.37,-2.05,0.38,-2.04,0.38,-0.40,-0.53,-0.72,-2.45,-2.44,-2.43
106.42,-2.12,0.34,-2.13,0.33,-0.35,-0.54,-0.73,-2.47,-2.48,-2.46
107.48,-2.21,0.29,-2.21,0.29,-0.32,-0.54,-0.73,-2.53,-2.53,-2.50
108.56,-2.28,0.26,-2.27,0.26,-0.30,-0.55,-0.74,-2.58,-2.57,-2.54
109.64,-2.32,0.26,-2.32,0.25,-0.28,-0.55,-0.75,-2.60,-2.60,-2.58
110.74,-2.34,0.26,-2.34,0.26,-0.28,-0.56,-0.75,-2.62,-2.62,-2.60
111.85,-2.36,0.27,-2.35,0.29,-0.27,-0.56,-0.76,-2.63,-2.62,-2.63
112.97,-2.36,0.32,-2.35,0.32,-0.26,-0.57,-0.77,-2.62,-2.61,-2.68
114.10,-2.37,0.33,-2.38,0.33,-0.25,-0.57,-0.77,-2.62,-2.63,-2.70
115.24,-2.41,0.33,-2.46,0.28,-0.24,-0.58,-0.78,-2.65,-2.70,-2.74
116.39,-2.58,0.19,-2.57,0.20,-0.24,-0.59,-0.79,-2.82,-2.80,-2.77
117.55,-2.69,0.10,-2.63,0.16,-0.23,-0.60,-0.79,-2.92,-2.87,-2.79
118.73,-2.65,0.17,-2.64,0.17,-0.23,-0.61,-0.80,-2.88,-2.88,-2.82
119.92,-2.56,0.27,-2.60,0.24,-0.24,-0.62,-0.80,-2.80,-2.84,-2.83
121.12,-2.54,0.32,-2.55,0.30,-0.27,-0.63,-0.81,-2.81,-2.82,-2.86
122.33,-2.53,0.34,-2.53,0.34,-0.32,-0.64,-0.81,-2.85,-2.84,-2.87
123.55,-2.52,0.36,-2.51,0.37,-0.39,-0.65,-0.81,-2.91,-2.90,-2.88
124.79,-2.47,0.43,-2.47,0.43,-0.47,-0.66,-0.82,-2.94,-2.94,-2.90
126.03,-2.41,0.51,-2.40,0.52,-0.55,-0.68,-0.82,-2.96,-2.95,-2.92
127.29,-2.30,0.63,-2.31,0.63,-0.62,-0.69,-0.82,-2.92,-2.93,-2.93
128.57,-2.22,0.74,-2.22,0.73,-0.69,-0.71,-0.82,-2.91,-2.91,-2.96
129.85,-2.15,0.82,-2.15,0.82,-0.77,-0.72,-0.82,-2.92,-2.92,-2.97
131.15,-2.10,0.88,-2.12,0.86,-0.84,-0.74,-0.82,-2.94,-2.96,-2.98
132.46,-2.10,0.90,-2.09,0.90,-0.91,-0.76,-0.82,-3.01,-3.01,-3.00
133.79,-2.09,0.91,-2.07,0.94,-0.98,-0.78,-0.82,-3.07,-3.04,-3.00
135.12,-2.02,1.01,-2.02,1.00,-1.03,-0.80,-0.82,-3.05,-3.05,-3.03
136.48,-1.96,1.07,-1.96,1.07,-1.07,-0.82,-0.82,-3.03,-3.03,-3.03
137.84,-1.90,1.15,-1.91,1.14,-1.11,-0.84,-0.82,-3.01,-3.02,-3.05
139.22,-1.89,1.19,-1.89,1.18,-1.16,-0.86,-0.82,-3.05,-3.05,-3.08
140.61,-1.89,1.21,-1.88,1.21,-1.20,-0.88,-0.82,-3.09,-3.09,-3.10
142.02,-1.89,1.21,-1.89,1.21,-1.25,-0.91,-0.81,-3.14,-3.14,-3.10
143.44,-1.88,1.24,-1.88,1.24,-1.28,-0.93,-0.81,-3.16,-3.16,-3.12
144.87,-1.88,1.26,-1.83,1.31,-1.30,-0.96,-0.81,-3.18,-3.14,-3.14
146.32,-1.79,1.38,-1.81,1.36,-1.32,-0.98,-0.81,-3.11,-3.12,-3.17
147.78,-1.75,1.45,-1.82,1.38,-1.33,-1.01,-0.81,-3.08,-3.16,-3.20
149.26,-1.90,1.33,-1.87,1.37,-1.35,-1.04,-0.80,-3.25,-3.22,-3.23
150.75,-1.98,1.31,-1.93,1.35,-1.38,-1.06,-0.80,-3.36,-3.31,-3.29
152.26,-1.98,1.35,-1.99,1.34,-1.40,-1.09,-0.80,-3.38,-3.39,-3.33
153.78,-1.98,1.40,-2.04,1.35,-1.40,-1.12,-0.80,-3.39,-3.44,-3.38
155.32,-2.11,1.34,-2.06,1.39,-1.39,-1.15,-0.80,-3.50,-3.45,-3.45
156.88,-2.14,1.36,-2.09,1.42,-1.37,-1.18,-0.80,-3.51,-3.45,-3.50
158.44,-2.07,1.50,-2.15,1.42,-1.33,-1.21,-0.80,-3.40,-3.48,-3.57
160.03,-2.23,1.40,-2.26,1.37,-1.28,-1.24,-0.80,-3.51,-3.54,-3.63
161.63,-2.47,1.21,-2.43,1.26,-1.22,-1.26,-0.80,-3.69,-3.65,-3.68
163.24,-2.63,1.11,-2.60,1.13,-1.17,-1.29,-0.81,-3.80,-3.77,-3.75
164.88,-2.71,1.07,-2.73,1.05,-1.12,-1.32,-0.81,-3.83,-3.85,-3.77
166.53,-2.79,1.02,-2.81,1.01,-1.08,-1.34,-0.81,-3.87,-3.88,-3.81
168.19,-2.87,0.97,-2.85,0.99,-1.05,-1.37,-0.82,-3.92,-3.90,-3.84
169.87,-2.87,1.00,-2.86,1.01,-1.05,-1.39,-0.82,-3.92,-3.91,-3.87
171.57,-2.81,1.08,-2.80,1.08,-1.07,-1.41,-0.83,-3.88,-3.87,-3.89
173.29,-2.74,1.16,-2.73,1.16,-1.11,-1.43,-0.83,-3.85,-3.85,-3.90
175.02,-2.63,1.27,-2.70,1.20,-1.17,-1.45,-0.84,-3.80,-3.88,-3.90
176.77,-2.71,1.20,-2.69,1.22,-1.23,-1.46,-0.85,-3.94,-3.92,-3.91
178.54,-2.72,1.19,-2.65,1.25,-1.28,-1.47,-0.85,-4.00,-3.93,-3.91
180.32,-2.58,1.32,-2.61,1.29,-1.31,-1.48,-0.86,-3.88,-3.91,-3.90
182.13,-2.50,1.39,-2.52,1.38,-1.32,-1.49,-0.87,-3.82,-3.83,-3.89
183.95,-2.49,1.41,-2.49,1.41,-1.32,-1.49,-0.88,-3.81,-3.81,-3.90
185.79,-2.48,1.42,-2.53,1.37,-1.34,-1.49,-0.89,-3.82,-3.86,-3.90
187.65,-2.64,1.28,-2.59,1.32,-1.36,-1.49,-0.90,-4.00,-3.95,-3.92
189.52,-2.63,1.29,-2.64,1.28,-1.38,-1.49,-0.91,-4.01,-4.02,-3.92
191.42,-2.63,1.30,-2.63,1.30,-1.41,-1.48,-0.92,-4.04,-4.04,-3.93
193.33,-2.58,1.36,-2.53,1.41,-1.44,-1.48,-0.94,-4.02,-3.97,-3.94
195.27,-2.41,1.54,-2.44,1.52,-1.47,-1.47,-0.95,-3.88,-3.91,-3.95
197.22,-2.33,1.65,-2.40,1.58,-1.51,-1.45,-0.96,-3.84,-3.90,-3.98
199.19,-2.42,1.58,-2.40,1.59,-1.54,-1.44,-0.98,-3.96,-3.94,-4.00
201.18,-2.47,1.54,-2.42,1.59,-1.57,-1.43,-0.99,-4.04,-4.00,-4.01
203.19,-2.44,1.58,-2.44,1.58,-1.59,-1.41,-1.01,-4.03,-4.03,-4.02
205.23,-2.40,1.65,-2.44,1.59,-1.60,-1.40,-1.02,-4.00,-4.04,-4.05
207.28,-2.47,1.58,-2.47,1.58,-1.59,-1.38,-1.04,-4.06,-4.07,-4.05
209.35,-2.54,1.54,-2.52,1.56,-1.59,-1.37,-1.05,-4.13,-4.10,-4.08
211.44,-2.56,1.53,-2.55,1.54,-1.58,-1.35,-1.07,-4.14,-4.12,-4.09
213.56,-2.54,1.56,-2.53,1.57,-1.57,-1.33,-1.09,-4.11,-4.10,-4.10
215.69,-2.51,1.60,-2.53,1.58,-1.56,-1.32,-1.10,-4.07,-4.09,-4.11
217.85,-2.53,1.59,-2.56,1.57,-1.54,-1.30,-1.12,-4.07,-4.10,-4.12
220.03,-2.62,1.52,-2.59,1.54,-1.52,-1.29,-1.13,-4.14,-4.11,-4.14
222.23,-2.66,1.48,-2.64,1.50,-1.49,-1.27,-1.15,-4.15,-4.13,-4.14
224.45,-2.64,1.49,-2.68,1.45,-1.46,-1.26,-1.16,-4.10,-4.15,-4.13
226.70,-2.72,1.41,-2.72,1.41,-1.43,-1.25,-1.18,-4.15,-4.15,-4.13
228.96,-2.77,1.36,-2.74,1.39,-1.40,-1.24,-1.19,-4.17,-4.13,-4.13
231.25,-2.75,1.36,-2.76,1.36,-1.37,-1.22,-1.21,-4.12,-4.13,-4.11
233.57,-2.73,1.37,-2.76,1.34,-1.35,-1.21,-1.22,-4.08,-4.11,-4.10
235.90,-2.77,1.31,-2.75,1.33,-1.33,-1.20,-1.24,-4.10,-4.09,-4.08
238.26,-2.77,1.29,-2.75,1.31,-1.32,-1.19,-1.25,-4.09,-4.07,-4.06
240.64,-2.71,1.33,-2.73,1.30,-1.31,-1.19,-1.26,-4.02,-4.04,-4.04
243.05,-2.69,1.31,-2.69,1.32,-1.29,-1.18,-1.27,-3.98,-3.98,-4.00
245.48,-2.67,1.31,-2.66,1.31,-1.28,-1.17,-1.28,-3.95,-3.94,-3.98
247.93,-2.64,1.31,-2.67,1.28,-1.27,-1.17,-1.29,-3.91,-3.94,-3.95
250.41,-2.70,1.24,-2.69,1.24,-1.26,-1.16,-1.30,-3.96,-3.95,-3.94
252.92,-2.71,1.19,-2.70,1.21,-1.26,-1.16,-1.30,-3.97,-3.95,-3.90
255.45,-2.69,1.18,-2.68,1.20,-1.24,-1.16,-1.31,-3.93,-3.92,-3.87
258.00,-2.63,1.23,-2.63,1.23,-1.22,-1.16,-1.32,-3.85,-3.85,-3.86
260.58,-2.58,1.26,-2.60,1.24,-1.19,-1.15,-1.32,-3.77,-3.79,-3.84
263.19,-2.59,1.23,-2.60,1.22,-1.15,-1.15,-1.33,-3.74,-3.75,-3.82
265.82,-2.65,1.15,-2.63,1.16,-1.12,-1.16,-1.33,-3.77,-3.75,-3.80
268.48,-2.68,1.09,-2.69,1.08,-1.08,-1.16,-1.33,-3.76,-3.77,-3.77
271.16,-2.74,1.01,-2.74,1.01,-1.04,-1.16,-1.34,-3.78,-3.79,-3.75
273.87,-2.79,0.94,-2.78,0.95,-1.01,-1.16,-1.34,-3.80,-3.78,-3.73
276.61,-2.79,0.91,-2.78,0.92,-0.98,-1.16,-1.34,-3.77,-3.76,-3.70
279.38,-2.75,0.93,-2.76,0.92,-0.96,-1.17,-1.34,-3.71,-3.72,-3.68
282.17,-2.70,0.96,-2.70,0.95,-0.96,-1.17,-1.34,-3.66,-3.66,-3.66
284.99,-2.65,0.97,-2.64,0.99,-0.96,-1.18,-1.35,-3.61,-3.60,-3.62
287.84,-2.57,1.03,-2.59,1.01,-0.97,-1.18,-1.35,-3.54,-3.56,-3.60
290.72,-2.55,1.01,-2.56,1.00,-0.97,-1.19,-1.35,-3.52,-3.53,-3.56
293.63,-2.56,0.97,-2.54,0.99,-0.97,-1.20,-1.35,-3.53,-3.51,-3.53
296.57,-2.54,0.95,-2.54,0.96,-0.96,-1.21,-1.35,-3.50,-3.50,-3.49
299.53,-2.53,0.95,-2.53,0.94,-0.95,-1.21,-1.36,-3.48,-3.48,-3.48
302.53,-2.52,0.93,-2.52,0.92,-0.93,-1.22,-1.36,-3.45,-3.45,-3.45
305.55,-2.51,0.90,-2.52,0.90,-0.92,-1.23,-1.36,-3.43,-3.44,-3.41
308.61,-2.50,0.89,-2.50,0.89,-0.91,-1.24,-1.37,-3.41,-3.41,-3.39
311.69,-2.49,0.89,-2.45,0.91,-0.91,-1.25,-1.37,-3.40,-3.37,-3.38
314.81,-2.39,0.95,-2.41,0.93,-0.93,-1.26,-1.38,-3.32,-3.34,-3.34
317.96,-2.35,0.98,-2.39,0.94,-0.95,-1.27,-1.38,-3.30,-3.34,-3.33
321.14,-2.38,0.93,-2.36,0.95,-0.98,-1.29,-1.39,-3.36,-3.34,-3.31
324.35,-2.37,0.93,-2.33,0.97,-0.99,-1.30,-1.40,-3.36,-3.32,-3.30
327.59,-2.26,1.02,-2.25,1.03,-1.01,-1.31,-1.41,-3.27,-3.26,-3.28
330.87,-2.15,1.13,-2.19,1.09,-1.02,-1.32,-1.42,-3.17,-3.21,-3.28
334.18,-2.14,1.13,-2.17,1.09,-1.03,-1.34,-1.43,-3.17,-3.20,-3.27
337.52,-2.23,1.03,-2.21,1.04,-1.04,-1.35,-1.45,-3.27,-3.25,-3.26
340.90,-2.27,0.97,-2.25,0.99,-1.06,-1.37,-1.46,-3.33,-3.31,-3.24
344.30,-2.25,0.98,-2.23,1.00,-1.08,-1.38,-1.47,-3.33,-3.31,-3.23
347.75,-2.15,1.07,-2.15,1.08,-1.10,-1.40,-1.49,-3.25,-3.25,-3.22
351.23,-2.04,1.17,-2.08,1.14,-1.12,-1.41,-1.51,-3.16,-3.20,-3.21
354.74,-2.01,1.21,-2.03,1.18,-1.15,-1.43,-1.53,-3.16,-3.18,-3.22
358.28,-2.05,1.16,-1.99,1.22,-1.19,-1.44,-1.54,-3.24,-3.18,-3.21
361.87,-1.95,1.26,-1.96,1.25,-1.23,-1.46,-1.57,-3.18,-3.19,-3.21
365.49,-1.90,1.30,-1.93,1.27,-1.26,-1.48,-1.59,-3.16,-3.19,-3.20
369.14,-1.89,1.31,-1.91,1.29,-1.29,-1.50,-1.61,-3.18,-3.20,-3.20
372.83,-1.93,1.27,-1.90,1.30,-1.31,-1.51,-1.63,-3.24,-3.21,-3.20
376.56,-1.90,1.30,-1.87,1.33,-1.34,-1.53,-1.66,-3.24,-3.21,-3.20
380.33,-1.79,1.39,-1.82,1.37,-1.38,-1.55,-1.69,-3.17,-3.20,-3.18
384.13,-1.76,1.43,-1.80,1.40,-1.42,-1.57,-1.71,-3.18,-3.21,-3.19
387.97,-1.78,1.41,-1.76,1.43,-1.46,-1.59,-1.74,-3.24,-3.22,-3.19
391.85,-1.78,1.42,-1.71,1.48,-1.50,-1.61,-1.77,-3.28,-3.21,-3.20
395.77,-1.60,1.59,-1.63,1.55,-1.53,-1.62,-1.80,-3.13,-3.17,-3.19
399.73,-1.52,1.67,-1.56,1.63,-1.57,-1.64,-1.83,-3.09,-3.14,-3.19
403.72,-1.55,1.65,-1.54,1.65,-1.60,-1.66,-1.86,-3.16,-3.14,-3.20
407.76,-1.57,1.63,-1.57,1.63,-1.63,-1.68,-1.89,-3.20,-3.20,-3.20
411.84,-1.60,1.59,-1.58,1.62,-1.65,-1.71,-1.93,-3.25,-3.23,-3.19
415.96,-1.57,1.63,-1.56,1.64,-1.67,-1.73,-1.96,-3.24,-3.23,-3.20
420.12,-1.50,1.70,-1.52,1.68,-1.68,-1.75,-1.99,-3.18,-3.20,-3.20
424.32,-1.47,1.72,-1.48,1.72,-1.69,-1.77,-2.02,-3.16,-3.17,-3.19
428.56,-1.46,1.73,-1.47,1.72,-1.71,-1.79,-2.06,-3.17,-3.18,-3.19
432.85,-1.46,1.71,-1.45,1.72,-1.73,-1.81,-2.09,-3.19,-3.18,-3.17
437.18,-1.44,1.71,-1.41,1.74,-1.76,-1.83,-2.12,-3.20,-3.17,-3.15
441.55,-1.32,1.79,-1.34,1.78,-1.79,-1.85,-2.15,-3.11,-3.13,-3.11
