frequency,raw,error,smoothed,error_smoothed,equalization,parametric_eq,fixed_band_eq,equalized_raw,equalized_smoothed,target
20.00,-19.51,-21.97,-19.51,-21.96,6.00,6.00,2.74,-13.51,-13.51,2.46
20.20,-19.20,-21.66,-19.20,-21.66,6.00,6.00,2.82,-13.20,-13.20,2.46
20.40,-18.90,-21.37,-18.90,-21.37,6.00,6.00,2.90,-12.90,-12.90,2.47
20.61,-18.62,-21.10,-18.62,-21.10,6.00,6.00,2.98,-12.62,-12.62,2.48
20.81,-18.35,-20.82,-18.35,-20.83,6.00,6.00,3.07,-12.35,-12.35,2.48
21.02,-18.09,-20.58,-18.09,-20.57,6.00,6.00,3.16,-12.09,-12.09,2.49
21.23,-17.84,-20.33,-17.84,-20.33,6.00,6.00,3.25,-11.84,-11.84,2.49
21.44,-17.60,-20.09,-17.60,-20.10,6.00,6.00,3.34,-11.60,-11.60,2.50
21.66,-17.38,-19.89,-17.37,-19.88,6.00,6.00,3.43,-11.38,-11.37,2.51
21.87,-17.15,-19.66,-17.15,-19.66,6.00,6.00,3.53,-11.15,-11.15,2.51
22.09,-16.95,-19.46,-16.95,-19.47,6.00,6.00,3.63,-10.95,-10.95,2.52
22.31,-16.76,-19.28,-16.77,-19.29,6.00,6.00,3.73,-10.76,-10.77,2.53
22.54,-16.62,-19.15,-16.61,-19.14,6.00,6.00,3.84,-10.62,-10.61,2.53
22.76,-16.48,-19.01,-16.48,-19.01,6.00,6.00,3.95,-10.48,-10.48,2.54
22.99,-16.35,-18.89,-16.35,-18.89,6.00,6.00,4.06,-10.35,-10.35,2.54
23.22,-16.23,-18.78,-16.22,-18.78,6.00,5.99,4.17,-10.23,-10.22,2.55
23.45,-16.09,-18.65,-16.09,-18.65,6.00,5.99,4.29,-10.09,-10.09,2.56
23.69,-15.95,-18.52,-15.94,-18.52,6.00,5.99,4.41,-9.95,-9.94,2.57
23.92,-15.78,-18.36,-15.78,-18.36,6.00,5.99,4.53,-9.78,-9.78,2.58
24.16,-15.61,-18.20,-15.61,-18.20,6.00,5.99,4.65,-9.61,-9.61,2.59
24.40,-15.42,-18.03,-15.42,-18.03,6.00,5.99,4.78,-9.42,-9.42,2.60
24.65,-15.24,-17.86,-15.23,-17.85,6.00,5.99,4.91,-9.24,-9.23,2.62
24.89,-15.03,-17.66,-15.04,-17.67,6.00,5.99,5.03,-9.03,-9.04,2.63
25.14,-14.84,-17.48,-14.84,-17.48,6.00,5.99,5.17,-8.84,-8.84,2.64
25.39,-14.64,-17.29,-14.64,-17.29,6.00,5.99,5.30,-8.64,-8.64,2.65
25.65,-14.46,-17.12,-14.46,-17.12,6.00,5.99,5.43,-8.46,-8.46,2.66
25.91,-14.27,-16.95,-14.27,-16.94,6.00,5.99,5.56,-8.27,-8.27,2.68
26.16,-14.08,-16.77,-14.09,-16.77,6.00,5.99,5.70,-8.08,-8.09,2.69
26.43,-13.91,-16.61,-13.91,-16.61,6.00,5.99,5.83,-7.91,-7.91,2.70
26.69,-13.74,-16.44,-13.74,-16.45,6.00,5.98,5.96,-7.74,-7.74,2.71
26.96,-13.58,-16.30,-13.58,-16.30,6.00,5.98,6.09,-7.58,-7.58,2.72
27.23,-13.41,-16.14,-13.41,-16.14,6.00,5.98,6.22,-7.41,-7.41,2.73
27.50,-13.23,-15.98,-13.23,-15.98,6.00,5.98,6.35,-7.23,-7.23,2.75
27.77,-13.04,-15.80,-13.04,-15.80,6.00,5.98,6.47,-7.04,-7.04,2.76
28.05,-12.85,-15.63,-12.85,-15.63,6.00,5.98,6.59,-6.85,-6.85,2.78
28.33,-12.67,-15.46,-12.66,-15.46,6.00,5.98,6.70,-6.67,-6.66,2.79
28.62,-12.48,-15.29,-12.48,-15.29,6.00,5.98,6.81,-6.48,-6.48,2.81
28.90,-12.30,-15.12,-12.30,-15.12,6.00,5.98,6.91,-6.30,-6.30,2.82
29.19,-12.12,-14.95,-12.11,-14.95,6.00,5.97,7.00,-6.12,-6.11,2.84
29.48,-11.94,-14.78,-11.94,-14.79,6.00,5.97,7.09,-5.94,-5.94,2.85
29.78,-11.77,-14.63,-11.77,-14.64,6.00,5.97,7.17,-5.77,-5.77,2.86
30.08,-11.62,-14.49,-11.62,-14.49,6.00,5.97,7.23,-5.62,-5.62,2.87
30.38,-11.48,-14.37,-11.48,-14.37,6.00,5.97,7.29,-5.48,-5.48,2.89
30.68,-11.35,-14.25,-11.35,-14.25,6.00,5.97,7.34,-5.35,-5.35,2.90
30.99,-11.23,-14.15,-11.23,-14.15,6.00,5.97,7.38,-5.23,-5.23,2.92
31.30,-11.12,-14.05,-11.12,-14.05,6.00,5.97,7.40,-5.12,-5.12,2.93
31.61,-11.01,-13.96,-11.01,-13.95,6.00,5.96,7.42,-5.01,-5.01,2.95
31.93,-10.90,-13.85,-10.89,-13.85,6.00,5.96,7.43,-4.90,-4.89,2.96
32.24,-10.77,-13.74,-10.77,-13.74,6.00,5.96,7.42,-4.77,-4.77,2.97
32.57,-10.64,-13.62,-10.64,-13.62,6.00,5.96,7.41,-4.64,-4.64,2.98
32.89,-10.50,-13.50,-10.50,-13.50,6.00,5.96,7.39,-4.50,-4.50,3.00
33.22,-10.35,-13.36,-10.35,-13.36,6.00,5.96,7.35,-4.35,-4.35,3.01
33.55,-10.19,-13.21,-10.18,-13.21,6.00,5.95,7.32,-4.19,-4.18,3.03
33.89,-10.01,-13.04,-10.00,-13.04,6.00,5.95,7.27,-4.01,-4.00,3.04
34.23,-9.82,-12.87,-9.82,-12.87,6.00,5.95,7.21,-3.82,-3.82,3.05
34.57,-9.63,-12.69,-9.64,-12.70,6.00,5.95,7.15,-3.63,-3.64,3.06
34.92,-9.46,-12.53,-9.46,-12.53,6.00,5.95,7.09,-3.46,-3.46,3.07
35.27,-9.29,-12.38,-9.29,-12.37,6.00,5.94,7.02,-3.29,-3.29,3.09
35.62,-9.12,-12.21,-9.12,-12.21,6.00,5.94,6.95,-3.12,-3.12,3.09
35.97,-8.96,-12.06,-8.96,-12.06,6.00,5.94,6.87,-2.96,-2.96,3.10
36.33,-8.81,-11.92,-8.81,-11.92,6.00,5.94,6.80,-2.81,-2.81,3.11
36.70,-8.67,-11.79,-8.66,-11.78,6.00,5.94,6.72,-2.67,-2.66,3.12
37.06,-8.53,-11.65,-8.53,-11.65,6.00,5.93,6.64,-2.53,-2.53,3.13
37.43,-8.40,-11.53,-8.40,-11.53,6.00,5.93,6.56,-2.40,-2.40,3.13
37.81,-8.27,-11.41,-8.27,-11.41,6.00,5.93,6.48,-2.27,-2.27,3.14
38.19,-8.15,-11.30,-8.15,-11.30,6.00,5.93,6.41,-2.15,-2.15,3.15
38.57,-8.03,-11.18,-8.03,-11.18,6.00,5.93,6.33,-2.03,-2.03,3.15
38.95,-7.91,-11.07,-7.90,-11.07,6.00,5.92,6.26,-1.91,-1.90,3.16
39.34,-7.78,-10.94,-7.77,-10.94,6.00,5.92,6.19,-1.78,-1.77,3.17
39.74,-7.63,-10.80,-7.63,-10.80,6.00,5.92,6.12,-1.63,-1.63,3.17
40.14,-7.48,-10.65,-7.48,-10.66,6.00,5.92,6.06,-1.48,-1.48,3.17
40.54,-7.33,-10.51,-7.32,-10.50,6.00,5.92,6.00,-1.33,-1.32,3.18
40.94,-7.15,-10.33,-7.15,-10.33,6.00,5.91,5.94,-1.15,-1.15,3.18
41.35,-6.96,-10.15,-6.96,-10.15,6.00,5.91,5.89,-0.96,-0.96,3.19
41.76,-6.78,-9.97,-6.77,-9.97,6.00,5.91,5.84,-0.78,-0.77,3.20
42.18,-6.59,-9.79,-6.58,-9.79,6.00,5.91,5.79,-0.59,-0.58,3.20
42.60,-6.40,-9.60,-6.40,-9.60,6.00,5.91,5.75,-0.40,-0.40,3.21
43.03,-6.21,-9.42,-6.21,-9.42,6.00,5.91,5.71,-0.21,-0.21,3.21
43.46,-6.03,-9.25,-6.02,-9.24,6.00,5.91,5.68,-0.03,-0.02,3.22
43.90,-5.84,-9.06,-5.83,-9.06,6.00,5.91,5.65,0.16,0.17,3.22
44.33,-5.64,-8.87,-5.64,-8.88,6.00,5.91,5.62,0.36,0.36,3.24
44.78,-5.46,-8.70,-5.46,-8.70,6.00,5.91,5.60,0.54,0.54,3.24
45.23,-5.28,-8.53,-5.28,-8.53,6.00,5.91,5.59,0.72,0.72,3.25
45.68,-5.11,-8.37,-5.11,-8.37,6.00,5.91,5.58,0.89,0.89,3.26
46.13,-4.94,-8.20,-4.94,-8.21,6.00,5.91,5.57,1.06,1.06,3.27
46.60,-4.78,-8.06,-4.78,-8.06,6.00,5.92,5.56,1.22,1.22,3.28
47.06,-4.63,-7.91,-4.62,-7.91,6.00,5.92,5.56,1.37,1.38,3.28
47.53,-4.48,-7.77,-4.48,-7.78,6.00,5.92,5.57,1.52,1.52,3.30
48.01,-4.35,-7.65,-4.35,-7.65,6.00,5.93,5.58,1.65,1.65,3.30
48.49,-4.23,-7.54,-4.23,-7.54,6.00,5.94,5.59,1.77,1.77,3.31
48.97,-4.12,-7.43,-4.12,-7.44,6.00,5.94,5.60,1.88,1.88,3.32
49.46,-4.01,-7.34,-4.01,-7.33,6.00,5.95,5.62,1.99,1.99,3.33
49.96,-3.90,-7.23,-3.90,-7.23,6.00,5.96,5.64,2.10,2.10,3.33
50.46,-3.79,-7.12,-3.79,-7.12,6.00,5.97,5.66,2.21,2.21,3.33
50.96,-3.68,-7.02,-3.68,-7.02,6.00,5.99,5.69,2.32,2.32,3.35
51.47,-3.59,-6.93,-3.59,-6.93,6.00,6.00,5.72,2.41,2.41,3.35
51.99,-3.51,-6.86,-3.51,-6.86,6.00,6.02,5.75,2.49,2.49,3.35
52.51,-3.44,-6.79,-3.44,-6.79,6.00,6.03,5.78,2.56,2.56,3.35
53.03,-3.38,-6.73,-3.38,-6.73,6.00,6.05,5.81,2.62,2.62,3.35
53.56,-3.32,-6.68,-3.32,-6.68,6.00,6.07,5.84,2.68,2.68,3.36
54.10,-3.27,-6.63,-3.27,-6.63,6.00,6.08,5.87,2.73,2.73,3.36
54.64,-3.22,-6.58,-3.22,-6.57,6.00,6.10,5.91,2.78,2.78,3.36
55.18,-3.17,-6.52,-3.17,-6.52,6.00,6.12,5.94,2.83,2.83,3.35
55.74,-3.13,-6.48,-3.13,-6.48,6.00,6.13,5.96,2.87,2.87,3.35
56.29,-3.09,-6.43,-3.09,-6.43,6.00,6.13,5.99,2.91,2.91,3.35
56.86,-3.06,-6.39,-3.05,-6.39,6.00,6.13,6.01,2.94,2.95,3.33
57.42,-3.02,-6.35,-3.01,-6.34,6.00,6.13,6.03,2.99,2.99,3.33
58.00,-2.97,-6.29,-2.97,-6.29,6.01,6.12,6.05,3.04,3.04,3.32
58.58,-2.93,-6.24,-2.93,-6.24,6.01,6.10,6.06,3.09,3.09,3.32
59.16,-2.89,-6.19,-2.89,-6.19,6.01,6.07,6.07,3.13,3.13,3.30
59.76,-2.85,-6.14,-2.84,-6.14,6.01,6.03,6.07,3.16,3.16,3.29
60.35,-2.80,-6.07,-2.80,-6.07,5.99,5.98,6.07,3.19,3.19,3.28
60.96,-2.75,-6.01,-2.75,-6.01,5.95,5.92,6.06,3.21,3.20,3.26
61.57,-2.70,-5.94,-2.70,-5.94,5.91,5.86,6.04,3.21,3.22,3.25
62.18,-2.64,-5.87,-2.63,-5.87,5.86,5.80,6.02,3.22,3.22,3.23
62.80,-2.57,-5.78,-2.57,-5.78,5.79,5.72,5.99,3.22,3.22,3.21
63.43,-2.50,-5.69,-2.50,-5.70,5.72,5.65,5.95,3.22,3.21,3.20
64.07,-2.44,-5.61,-2.44,-5.61,5.63,5.57,5.91,3.19,3.19,3.17
64.71,-2.38,-5.53,-2.38,-5.53,5.54,5.49,5.86,3.16,3.16,3.15
65.35,-2.32,-5.45,-2.32,-5.45,5.44,5.41,5.81,3.12,3.12,3.13
66.01,-2.25,-5.36,-2.24,-5.36,5.35,5.33,5.75,3.10,3.10,3.12
66.67,-2.16,-5.26,-2.16,-5.26,5.25,5.25,5.68,3.10,3.09,3.10
67.33,-2.08,-5.15,-2.08,-5.15,5.16,5.17,5.61,3.08,3.08,3.08
68.01,-2.00,-5.05,-2.00,-5.05,5.06,5.09,5.53,3.07,3.06,3.05
68.69,-1.94,-4.96,-1.94,-4.96,4.97,5.01,5.45,3.03,3.03,3.03
69.37,-1.87,-4.87,-1.87,-4.87,4.87,4.93,5.36,3.00,3.00,3.01
70.07,-1.81,-4.79,-1.80,-4.79,4.78,4.85,5.27,2.97,2.97,2.98
70.77,-1.73,-4.69,-1.73,-4.69,4.69,4.77,5.18,2.96,2.96,2.96
71.48,-1.66,-4.60,-1.66,-4.60,4.60,4.69,5.09,2.94,2.95,2.94
72.19,-1.59,-4.50,-1.59,-4.51,4.52,4.61,4.99,2.93,2.93,2.92
72.91,-1.54,-4.44,-1.54,-4.44,4.44,4.53,4.90,2.91,2.90,2.90
73.64,-1.50,-4.37,-1.49,-4.37,4.37,4.45,4.80,2.87,2.88,2.88
74.38,-1.44,-4.30,-1.44,-4.30,4.30,4.37,4.70,2.86,2.86,2.86
75.12,-1.39,-4.22,-1.39,-4.23,4.23,4.29,4.60,2.84,2.83,2.84
75.87,-1.35,-4.17,-1.34,-4.16,4.16,4.21,4.50,2.81,2.82,2.82
76.63,-1.30,-4.10,-1.30,-4.10,4.09,4.13,4.40,2.80,2.80,2.80
77.40,-1.25,-4.03,-1.25,-4.03,4.03,4.05,4.30,2.78,2.78,2.79
78.17,-1.20,-3.96,-1.20,-3.96,3.96,3.97,4.21,2.77,2.77,2.77
78.95,-1.15,-3.90,-1.15,-3.90,3.90,3.89,4.11,2.75,2.75,2.75
79.74,-1.11,-3.84,-1.11,-3.84,3.84,3.81,4.02,2.73,2.73,2.73
80.54,-1.07,-3.78,-1.07,-3.78,3.78,3.74,3.93,2.71,2.71,2.71
81.35,-1.03,-3.72,-1.03,-3.72,3.72,3.66,3.83,2.70,2.69,2.69
82.16,-1.00,-3.67,-1.00,-3.67,3.67,3.60,3.75,2.67,2.67,2.67
82.98,-0.97,-3.62,-0.96,-3.61,3.61,3.53,3.66,2.64,2.65,2.65
83.81,-0.93,-3.55,-0.93,-3.56,3.55,3.47,3.58,2.63,2.62,2.63
84.65,-0.90,-3.50,-0.90,-3.50,3.50,3.41,3.49,2.60,2.60,2.60
85.50,-0.87,-3.45,-0.86,-3.45,3.44,3.36,3.41,2.57,2.57,2.58
86.35,-0.83,-3.39,-0.83,-3.39,3.38,3.31,3.34,2.55,2.55,2.56
87.22,-0.79,-3.32,-0.79,-3.32,3.32,3.27,3.26,2.54,2.54,2.53
88.09,-0.75,-3.26,-0.75,-3.26,3.27,3.23,3.19,2.52,2.52,2.51
88.97,-0.71,-3.20,-0.71,-3.20,3.21,3.19,3.12,2.50,2.50,2.50
89.86,-0.68,-3.15,-0.68,-3.15,3.16,3.15,3.05,2.48,2.48,2.47
90.76,-0.66,-3.10,-0.66,-3.11,3.11,3.12,2.99,2.45,2.45,2.45
91.66,-0.64,-3.07,-0.63,-3.06,3.06,3.08,2.92,2.42,2.42,2.43
92.58,-0.61,-3.01,-0.61,-3.01,3.01,3.05,2.86,2.40,2.40,2.40
93.51,-0.59,-2.97,-0.58,-2.97,2.96,3.02,2.80,2.37,2.38,2.38
94.44,-0.56,-2.92,-0.56,-2.92,2.92,2.99,2.75,2.36,2.36,2.36
95.39,-0.54,-2.87,-0.54,-2.87,2.88,2.96,2.69,2.34,2.34,2.33
96.34,-0.52,-2.83,-0.52,-2.83,2.84,2.93,2.64,2.32,2.32,2.32
97.30,-0.51,-2.80,-0.51,-2.79,2.80,2.90,2.59,2.30,2.30,2.29
98.28,-0.50,-2.76,-0.50,-2.76,2.77,2.86,2.54,2.27,2.27,2.26
99.26,-0.50,-2.73,-0.50,-2.74,2.75,2.83,2.49,2.25,2.25,2.23
100.25,-0.51,-2.72,-0.51,-2.72,2.72,2.79,2.45,2.21,2.21,2.22
101.25,-0.52,-2.71,-0.52,-2.70,2.70,2.75,2.41,2.18,2.18,2.19
102.27,-0.53,-2.69,-0.52,-2.68,2.67,2.72,2.36,2.14,2.15,2.16
103.29,-0.53,-2.65,-0.53,-2.65,2.65,2.68,2.32,2.12,2.12,2.12
104.32,-0.53,-2.62,-0.53,-2.62,2.62,2.63,2.29,2.09,2.09,2.09
105.37,-0.53,-2.59,-0.53,-2.59,2.59,2.59,2.25,2.06,2.07,2.06
106.42,-0.53,-2.55,-0.53,-2.55,2.56,2.55,2.21,2.03,2.03,2.03
107.48,-0.53,-2.52,-0.53,-2.52,2.53,2.50,2.18,2.00,2.00,1.99
108.56,-0.54,-2.49,-0.54,-2.49,2.49,2.46,2.14,1.96,1.96,1.95
109.64,-0.55,-2.46,-0.55,-2.46,2.46,2.41,2.11,1.91,1.91,1.91
110.74,-0.55,-2.42,-0.55,-2.42,2.41,2.36,2.08,1.87,1.87,1.87
111.85,-0.55,-2.38,-0.54,-2.38,2.37,2.31,2.05,1.82,1.82,1.84
112.97,-0.53,-2.32,-0.53,-2.32,2.32,2.26,2.02,1.79,1.78,1.79
114.10,-0.52,-2.27,-0.51,-2.26,2.26,2.21,1.99,1.74,1.74,1.75
115.24,-0.49,-2.19,-0.49,-2.20,2.20,2.16,1.96,1.71,1.71,1.70
116.39,-0.47,-2.13,-0.47,-2.13,2.13,2.11,1.93,1.66,1.66,1.67
117.55,-0.44,-2.06,-0.44,-2.06,2.06,2.05,1.90,1.62,1.62,1.62
118.73,-0.41,-1.99,-0.41,-1.99,1.99,2.00,1.87,1.58,1.58,1.58
119.92,-0.38,-1.91,-0.38,-1.92,1.92,1.94,1.84,1.54,1.54,1.54
121.12,-0.35,-1.85,-0.35,-1.85,1.85,1.89,1.81,1.50,1.51,1.50
122.33,-0.32,-1.78,-0.32,-1.78,1.79,1.83,1.78,1.47,1.47,1.47
123.55,-0.29,-1.72,-0.29,-1.72,1.72,1.78,1.75,1.44,1.43,1.43
124.79,-0.27,-1.66,-0.27,-1.66,1.67,1.72,1.72,1.40,1.40,1.40
126.03,-0.25,-1.61,-0.25,-1.61,1.61,1.66,1.69,1.36,1.36,1.36
127.29,-0.23,-1.56,-0.23,-1.56,1.56,1.60,1.66,1.33,1.33,1.33
128.57,-0.22,-1.51,-0.21,-1.51,1.51,1.54,1.63,1.29,1.30,1.29
129.85,-0.20,-1.46,-0.20,-1.46,1.46,1.48,1.60,1.26,1.27,1.26
131.15,-0.18,-1.41,-0.18,-1.41,1.42,1.42,1.57,1.24,1.23,1.23
132.46,-0.17,-1.37,-0.17,-1.37,1.37,1.36,1.54,1.20,1.20,1.20
133.79,-0.16,-1.33,-0.15,-1.33,1.32,1.30,1.50,1.17,1.17,1.18
135.12,-0.14,-1.28,-0.14,-1.28,1.27,1.24,1.47,1.14,1.14,1.15
136.48,-0.12,-1.23,-0.12,-1.23,1.22,1.19,1.44,1.11,1.11,1.12
137.84,-0.09,-1.17,-0.09,-1.17,1.17,1.13,1.41,1.08,1.08,1.09
139.22,-0.06,-1.11,-0.06,-1.12,1.12,1.08,1.37,1.06,1.06,1.06
140.61,-0.03,-1.06,-0.03,-1.06,1.06,1.03,1.34,1.03,1.03,1.03
142.02,0.00,-1.01,0.00,-1.00,1.00,0.98,1.31,1.00,1.00,1.01
143.44,0.03,-0.95,0.03,-0.95,0.94,0.94,1.27,0.98,0.98,0.98
144.87,0.06,-0.89,0.06,-0.89,0.89,0.90,1.24,0.95,0.95,0.95
146.32,0.09,-0.83,0.09,-0.83,0.83,0.87,1.21,0.92,0.92,0.92
147.78,0.11,-0.78,0.11,-0.78,0.78,0.83,1.17,0.89,0.89,0.89
149.26,0.13,-0.73,0.13,-0.73,0.73,0.81,1.14,0.87,0.87,0.87
150.75,0.15,-0.69,0.15,-0.69,0.69,0.78,1.11,0.85,0.85,0.84
152.26,0.16,-0.66,0.16,-0.65,0.66,0.76,1.08,0.82,0.82,0.82
153.78,0.16,-0.62,0.16,-0.63,0.63,0.74,1.05,0.80,0.80,0.78
155.32,0.15,-0.61,0.15,-0.61,0.61,0.73,1.01,0.77,0.77,0.76
156.88,0.14,-0.60,0.14,-0.60,0.60,0.71,0.98,0.74,0.74,0.74
158.44,0.11,-0.61,0.12,-0.60,0.59,0.69,0.95,0.71,0.71,0.72
160.03,0.09,-0.59,0.09,-0.59,0.59,0.68,0.92,0.68,0.69,0.69
161.63,0.07,-0.59,0.07,-0.59,0.59,0.66,0.89,0.66,0.66,0.67
163.24,0.04,-0.59,0.04,-0.59,0.60,0.64,0.86,0.64,0.64,0.63
164.88,0.01,-0.60,0.01,-0.60,0.60,0.63,0.83,0.61,0.62,0.62
166.53,-0.02,-0.60,-0.02,-0.60,0.61,0.61,0.80,0.59,0.59,0.59
168.19,-0.05,-0.60,-0.05,-0.61,0.61,0.60,0.78,0.56,0.56,0.56
169.87,-0.09,-0.62,-0.08,-0.61,0.61,0.58,0.75,0.53,0.53,0.53
171.57,-0.12,-0.62,-0.11,-0.62,0.62,0.56,0.72,0.50,0.50,0.50
173.29,-0.14,-0.61,-0.14,-0.62,0.61,0.55,0.69,0.48,0.47,0.47
175.02,-0.17,-0.62,-0.17,-0.61,0.61,0.53,0.67,0.44,0.44,0.45
176.77,-0.19,-0.60,-0.19,-0.60,0.59,0.51,0.64,0.41,0.41,0.41
178.54,-0.20,-0.58,-0.20,-0.58,0.57,0.50,0.62,0.38,0.37,0.39
180.32,-0.21,-0.56,-0.21,-0.56,0.55,0.48,0.59,0.34,0.34,0.35
182.13,-0.21,-0.53,-0.21,-0.53,0.52,0.46,0.57,0.31,0.31,0.33
183.95,-0.21,-0.50,-0.20,-0.50,0.49,0.44,0.54,0.29,0.29,0.29
185.79,-0.20,-0.45,-0.20,-0.46,0.47,0.43,0.52,0.27,0.27,0.26
187.65,-0.20,-0.43,-0.20,-0.43,0.44,0.41,0.49,0.25,0.24,0.23
189.52,-0.21,-0.41,-0.21,-0.41,0.42,0.40,0.47,0.22,0.22,0.20
191.42,-0.23,-0.40,-0.23,-0.40,0.41,0.38,0.45,0.18,0.18,0.17
193.33,-0.26,-0.39,-0.26,-0.39,0.40,0.36,0.43,0.14,0.14,0.14
195.27,-0.29,-0.40,-0.29,-0.40,0.39,0.35,0.40,0.10,0.10,0.11
197.22,-0.32,-0.40,-0.32,-0.40,0.39,0.33,0.38,0.07,0.07,0.08
199.19,-0.35,-0.40,-0.35,-0.39,0.38,0.32,0.36,0.04,0.04,0.05
201.18,-0.37,-0.38,-0.37,-0.38,0.38,0.30,0.34,0.01,0.01,0.01
203.19,-0.40,-0.38,-0.39,-0.37,0.38,0.29,0.32,-0.02,-0.02,-0.02
205.23,-0.42,-0.37,-0.42,-0.37,0.37,0.27,0.30,-0.05,-0.05,-0.05
207.28,-0.44,-0.36,-0.44,-0.36,0.36,0.26,0.28,-0.07,-0.08,-0.08
209.35,-0.47,-0.36,-0.47,-0.35,0.36,0.24,0.26,-0.11,-0.11,-0.11
211.44,-0.50,-0.35,-0.50,-0.35,0.35,0.23,0.24,-0.15,-0.15,-0.15
213.56,-0.53,-0.35,-0.53,-0.35,0.35,0.22,0.22,-0.18,-0.18,-0.18
215.69,-0.56,-0.34,-0.56,-0.34,0.34,0.20,0.20,-0.22,-0.22,-0.22
217.85,-0.59,-0.33,-0.59,-0.34,0.34,0.19,0.18,-0.25,-0.25,-0.25
220.03,-0.62,-0.33,-0.62,-0.33,0.33,0.18,0.16,-0.29,-0.29,-0.28
222.23,-0.65,-0.34,-0.65,-0.33,0.33,0.17,0.15,-0.32,-0.32,-0.31
224.45,-0.67,-0.32,-0.67,-0.33,0.32,0.15,0.13,-0.34,-0.35,-0.35
226.70,-0.70,-0.32,-0.69,-0.32,0.32,0.14,0.11,-0.37,-0.37,-0.38
228.96,-0.72,-0.32,-0.72,-0.32,0.33,0.13,0.09,-0.39,-0.39,-0.40
231.25,-0.75,-0.32,-0.75,-0.32,0.33,0.12,0.08,-0.42,-0.42,-0.43
233.57,-0.78,-0.33,-0.78,-0.33,0.34,0.11,0.06,-0.44,-0.44,-0.45
235.90,-0.81,-0.34,-0.81,-0.34,0.35,0.10,0.04,-0.46,-0.46,-0.47
238.26,-0.84,-0.35,-0.84,-0.35,0.35,0.08,0.03,-0.48,-0.49,-0.49
240.64,-0.87,-0.36,-0.87,-0.36,0.35,0.07,0.01,-0.51,-0.51,-0.50
243.05,-0.89,-0.37,-0.89,-0.37,0.35,0.06,-0.00,-0.54,-0.53,-0.52
245.48,-0.89,-0.35,-0.89,-0.36,0.34,0.05,-0.02,-0.55,-0.55,-0.53
247.93,-0.89,-0.34,-0.88,-0.33,0.32,0.04,-0.03,-0.57,-0.56,-0.55
250.41,-0.86,-0.29,-0.86,-0.30,0.29,0.03,-0.05,-0.57,-0.57,-0.57
252.92,-0.84,-0.26,-0.83,-0.25,0.26,0.02,-0.06,-0.58,-0.58,-0.58
255.45,-0.80,-0.20,-0.80,-0.21,0.22,0.01,-0.08,-0.58,-0.59,-0.59
258.00,-0.77,-0.16,-0.77,-0.17,0.17,0.00,-0.09,-0.60,-0.60,-0.61
260.58,-0.75,-0.13,-0.74,-0.12,0.13,-0.01,-0.10,-0.62,-0.61,-0.61
263.19,-0.71,-0.08,-0.71,-0.08,0.08,-0.02,-0.12,-0.63,-0.63,-0.63
265.82,-0.68,-0.04,-0.68,-0.04,0.03,-0.03,-0.13,-0.64,-0.64,-0.64
268.48,-0.65,0.01,-0.65,0.01,-0.01,-0.04,-0.14,-0.66,-0.66,-0.66
271.16,-0.62,0.05,-0.62,0.05,-0.05,-0.05,-0.16,-0.67,-0.67,-0.67
273.87,-0.59,0.10,-0.59,0.09,-0.09,-0.06,-0.17,-0.68,-0.68,-0.68
276.61,-0.57,0.13,-0.56,0.13,-0.13,-0.07,-0.18,-0.70,-0.70,-0.70
279.38,-0.54,0.17,-0.54,0.17,-0.17,-0.08,-0.19,-0.70,-0.71,-0.71
282.17,-0.53,0.20,-0.52,0.20,-0.20,-0.08,-0.21,-0.72,-0.72,-0.72
284.99,-0.51,0.23,-0.51,0.23,-0.22,-0.09,-0.22,-0.73,-0.73,-0.74
287.84,-0.51,0.24,-0.50,0.25,-0.24,-0.10,-0.23,-0.75,-0.74,-0.75
290.72,-0.50,0.26,-0.50,0.26,-0.25,-0.11,-0.25,-0.75,-0.76,-0.76
293.63,-0.51,0.27,-0.51,0.27,-0.27,-0.12,-0.26,-0.77,-0.77,-0.78
296.57,-0.52,0.27,-0.52,0.27,-0.28,-0.13,-0.27,-0.79,-0.79,-0.79
299.53,-0.53,0.27,-0.52,0.28,-0.29,-0.14,-0.28,-0.81,-0.81,-0.80
302.53,-0.53,0.29,-0.53,0.29,-0.30,-0.15,-0.30,-0.82,-0.82,-0.81
305.55,-0.53,0.31,-0.53,0.30,-0.31,-0.16,-0.31,-0.83,-0.84,-0.84
308.61,-0.53,0.32,-0.53,0.32,-0.32,-0.17,-0.33,-0.85,-0.85,-0.85
311.69,-0.53,0.33,-0.53,0.34,-0.33,-0.18,-0.34,-0.86,-0.86,-0.86
314.81,-0.53,0.35,-0.53,0.35,-0.35,-0.19,-0.35,-0.88,-0.88,-0.88
317.96,-0.53,0.37,-0.53,0.37,-0.37,-0.20,-0.37,-0.90,-0.90,-0.89
321.14,-0.53,0.39,-0.53,0.39,-0.39,-0.21,-0.38,-0.91,-0.91,-0.92
324.35,-0.53,0.40,-0.53,0.40,-0.40,-0.22,-0.40,-0.93,-0.93,-0.93
327.59,-0.53,0.42,-0.53,0.42,-0.42,-0.23,-0.41,-0.95,-0.95,-0.95
330.87,-0.53,0.43,-0.53,0.44,-0.44,-0.25,-0.43,-0.96,-0.96,-0.96
334.18,-0.53,0.46,-0.53,0.45,-0.46,-0.26,-0.45,-0.98,-0.98,-0.98
337.52,-0.53,0.47,-0.53,0.47,-0.48,-0.27,-0.46,-1.00,-1.01,-1.00
340.90,-0.53,0.49,-0.52,0.49,-0.50,-0.28,-0.48,-1.03,-1.02,-1.02
344.30,-0.52,0.51,-0.52,0.52,-0.52,-0.29,-0.50,-1.04,-1.04,-1.03
347.75,-0.51,0.54,-0.51,0.54,-0.54,-0.30,-0.51,-1.05,-1.05,-1.05
351.23,-0.50,0.57,-0.50,0.57,-0.56,-0.32,-0.53,-1.06,-1.06,-1.07
354.74,-0.50,0.59,-0.50,0.59,-0.58,-0.33,-0.55,-1.08,-1.08,-1.08
358.28,-0.51,0.60,-0.51,0.60,-0.59,-0.34,-0.57,-1.10,-1.10,-1.10
361.87,-0.52,0.61,-0.52,0.60,-0.60,-0.36,-0.59,-1.12,-1.12,-1.13
365.49,-0.54,0.60,-0.54,0.60,-0.60,-0.37,-0.61,-1.14,-1.14,-1.14
369.14,-0.56,0.60,-0.56,0.60,-0.60,-0.39,-0.63,-1.15,-1.16,-1.16
372.83,-0.59,0.58,-0.59,0.59,-0.59,-0.40,-0.65,-1.18,-1.18,-1.17
376.56,-0.62,0.57,-0.62,0.57,-0.58,-0.42,-0.67,-1.19,-1.19,-1.19
380.33,-0.65,0.56,-0.65,0.56,-0.56,-0.43,-0.69,-1.21,-1.21,-1.21
384.13,-0.68,0.55,-0.68,0.55,-0.55,-0.45,-0.72,-1.22,-1.22,-1.22
387.97,-0.71,0.54,-0.71,0.53,-0.53,-0.47,-0.74,-1.24,-1.24,-1.24
391.85,-0.74,0.52,-0.74,0.52,-0.51,-0.49,-0.76,-1.25,-1.25,-1.25
395.77,-0.77,0.50,-0.77,0.50,-0.50,-0.51,-0.78,-1.27,-1.27,-1.27
399.73,-0.80,0.48,-0.79,0.48,-0.48,-0.53,-0.81,-1.28,-1.28,-1.28
403.72,-0.82,0.47,-0.82,0.47,-0.47,-0.55,-0.83,-1.29,-1.29,-1.29
407.76,-0.84,0.46,-0.84,0.46,-0.46,-0.57,-0.86,-1.29,-1.30,-1.30
411.84,-0.86,0.46,-0.86,0.45,-0.45,-0.59,-0.88,-1.31,-1.31,-1.32
415.96,-0.89,0.44,-0.88,0.45,-0.45,-0.62,-0.90,-1.34,-1.33,-1.33
420.12,-0.90,0.44,-0.90,0.44,-0.46,-0.64,-0.93,-1.36,-1.35,-1.34
424.32,-0.90,0.45,-0.89,0.46,-0.47,-0.67,-0.95,-1.37,-1.37,-1.35
428.56,-0.88,0.48,-0.88,0.49,-0.49,-0.69,-0.98,-1.37,-1.37,-1.36
432.85,-0.86,0.53,-0.86,0.52,-0.51,-0.72,-1.00,-1.37,-1.37,-1.38
437.18,-0.84,0.56,-0.84,0.55,-0.55,-0.75,-1.03,-1.38,-1.38,-1.39
441.55,-0.82,0.59,-0.82,0.59,-0.58,-0.78,-1.05,-1.40,-1.40,-1.40
445.96,-0.80,0.63,-0.80,0.63,-0.62,-0.81,-1.08,-1.42,-1.42,-1.42
450.42,-0.78,0.67,-0.78,0.67,-0.67,-0.85,-1.10,-1.45,-1.44,-1.45
454.93,-0.75,0.71,-0.75,0.71,-0.72,-0.88,-1.12,-1.46,-1.46,-1.46
459.48,-0.72,0.76,-0.72,0.76,-0.76,-0.92,-1.15,-1.48,-1.48,-1.48
