frequency,raw,error,smoothed,error_smoothed,equalization,parametric_eq,fixed_band_eq,equalized_raw,equalized_smoothed,target
20.00,-1.91,-0.30,-1.91,-0.29,0.30,-0.35,-0.34,-1.61,-1.61,-1.62
20.20,-1.86,-0.22,-1.86,-0.22,0.22,-0.35,-0.35,-1.64,-1.64,-1.65
20.40,-1.82,-0.16,-1.82,-0.15,0.15,-0.36,-0.36,-1.67,-1.67,-1.67
20.61,-1.77,-0.09,-1.78,-0.09,0.08,-0.37,-0.37,-1.69,-1.69,-1.69
20.81,-1.73,-0.03,-1.74,-0.03,0.02,-0.37,-0.38,-1.71,-1.71,-1.71
21.02,-1.70,0.02,-1.70,0.03,-0.03,-0.38,-0.39,-1.74,-1.73,-1.73
21.23,-1.66,0.08,-1.67,0.08,-0.09,-0.38,-0.40,-1.75,-1.75,-1.75
21.44,-1.63,0.13,-1.63,0.13,-0.13,-0.39,-0.41,-1.77,-1.77,-1.77
21.66,-1.61,0.17,-1.61,0.18,-0.18,-0.40,-0.42,-1.79,-1.78,-1.79
21.87,-1.58,0.21,-1.59,0.21,-0.21,-0.40,-0.43,-1.80,-1.80,-1.80
22.09,-1.57,0.24,-1.57,0.25,-0.24,-0.41,-0.44,-1.82,-1.81,-1.82
22.31,-1.55,0.27,-1.55,0.27,-0.27,-0.41,-0.45,-1.82,-1.82,-1.83
22.54,-1.54,0.29,-1.55,0.29,-0.28,-0.42,-0.46,-1.82,-1.83,-1.84
22.76,-1.54,0.30,-1.55,0.30,-0.29,-0.43,-0.47,-1.83,-1.84,-1.85
22.99,-1.55,0.30,-1.56,0.30,-0.30,-0.43,-0.49,-1.85,-1.85,-1.86
23.22,-1.57,0.29,-1.57,0.30,-0.30,-0.44,-0.50,-1.88,-1.87,-1.87
23.45,-1.58,0.29,-1.58,0.30,-0.31,-0.45,-0.51,-1.89,-1.89,-1.88
23.69,-1.58,0.30,-1.58,0.31,-0.32,-0.45,-0.53,-1.90,-1.90,-1.89
23.92,-1.56,0.32,-1.57,0.32,-0.33,-0.46,-0.54,-1.89,-1.90,-1.89
24.16,-1.55,0.34,-1.55,0.34,-0.35,-0.47,-0.55,-1.90,-1.90,-1.90
24.40,-1.53,0.36,-1.53,0.37,-0.37,-0.47,-0.57,-1.90,-1.90,-1.90
24.65,-1.50,0.40,-1.50,0.40,-0.40,-0.48,-0.58,-1.90,-1.91,-1.91
24.89,-1.47,0.43,-1.47,0.44,-0.43,-0.49,-0.59,-1.91,-1.91,-1.91
25.14,-1.44,0.47,-1.44,0.47,-0.47,-0.50,-0.61,-1.91,-1.91,-1.92
25.39,-1.41,0.50,-1.41,0.51,-0.51,-0.50,-0.62,-1.92,-1.92,-1.92
25.65,-1.38,0.54,-1.38,0.54,-0.54,-0.51,-0.64,-1.93,-1.93,-1.93
25.91,-1.35,0.57,-1.35,0.58,-0.58,-0.52,-0.65,-1.93,-1.93,-1.93
26.16,-1.32,0.61,-1.32,0.61,-0.61,-0.52,-0.67,-1.93,-1.93,-1.94
26.43,-1.29,0.64,-1.30,0.64,-0.64,-0.53,-0.68,-1.94,-1.94,-1.94
26.69,-1.27,0.67,-1.27,0.67,-0.67,-0.54,-0.69,-1.94,-1.94,-1.95
26.96,-1.25,0.69,-1.25,0.70,-0.69,-0.55,-0.71,-1.95,-1.95,-1.95
27.23,-1.23,0.71,-1.24,0.72,-0.71,-0.55,-0.72,-1.95,-1.95,-1.95
27.50,-1.22,0.73,-1.22,0.73,-0.73,-0.56,-0.73,-1.95,-1.95,-1.96
27.77,-1.21,0.74,-1.21,0.75,-0.74,-0.57,-0.75,-1.95,-1.95,-1.96
28.05,-1.21,0.75,-1.22,0.75,-0.74,-0.58,-0.76,-1.96,-1.96,-1.97
28.33,-1.22,0.74,-1.22,0.74,-0.75,-0.58,-0.77,-1.97,-1.97,-1.97
28.62,-1.23,0.73,-1.23,0.74,-0.75,-0.59,-0.78,-1.98,-1.98,-1.97
28.90,-1.23,0.74,-1.23,0.74,-0.75,-0.60,-0.79,-1.98,-1.98,-1.98
29.19,-1.23,0.74,-1.23,0.74,-0.75,-0.61,-0.80,-1.98,-1.98,-1.98
29.48,-1.23,0.74,-1.23,0.74,-0.74,-0.61,-0.81,-1.98,-1.98,-1.98
29.78,-1.23,0.74,-1.23,0.74,-0.74,-0.62,-0.82,-1.98,-1.98,-1.98
30.08,-1.23,0.74,-1.23,0.74,-0.75,-0.63,-0.82,-1.98,-1.98,-1.98
30.38,-1.23,0.74,-1.23,0.75,-0.75,-0.64,-0.83,-1.98,-1.98,-1.98
30.68,-1.23,0.75,-1.23,0.75,-0.75,-0.64,-0.84,-1.98,-1.98,-1.99
30.99,-1.23,0.75,-1.23,0.75,-0.75,-0.65,-0.84,-1.99,-1.99,-1.99
31.30,-1.23,0.75,-1.23,0.76,-0.76,-0.66,-0.84,-1.99,-1.99,-1.99
31.61,-1.23,0.75,-1.23,0.76,-0.76,-0.67,-0.85,-1.99,-1.99,-1.99
31.93,-1.23,0.76,-1.23,0.76,-0.76,-0.67,-0.85,-2.00,-2.00,-2.00
32.24,-1.23,0.76,-1.23,0.77,-0.77,-0.68,-0.85,-2.00,-2.00,-2.00
32.57,-1.23,0.77,-1.23,0.77,-0.77,-0.69,-0.85,-2.00,-2.00,-2.01
32.89,-1.23,0.77,-1.23,0.77,-0.77,-0.70,-0.85,-2.01,-2.01,-2.01
33.22,-1.23,0.77,-1.23,0.78,-0.78,-0.70,-0.84,-2.01,-2.01,-2.01
33.55,-1.23,0.77,-1.23,0.78,-0.78,-0.71,-0.84,-2.01,-2.01,-2.01
33.89,-1.23,0.78,-1.23,0.78,-0.78,-0.72,-0.84,-2.02,-2.02,-2.02
34.23,-1.23,0.78,-1.23,0.79,-0.79,-0.72,-0.83,-2.02,-2.02,-2.02
34.57,-1.23,0.79,-1.23,0.79,-0.79,-0.73,-0.83,-2.02,-2.02,-2.03
34.92,-1.23,0.79,-1.23,0.79,-0.79,-0.74,-0.83,-2.03,-2.03,-2.03
35.27,-1.23,0.79,-1.23,0.80,-0.80,-0.75,-0.82,-2.03,-2.03,-2.03
35.62,-1.23,0.79,-1.23,0.80,-0.80,-0.75,-0.82,-2.03,-2.03,-2.03
35.97,-1.23,0.80,-1.23,0.80,-0.80,-0.76,-0.81,-2.03,-2.03,-2.04
36.33,-1.23,0.80,-1.23,0.80,-0.80,-0.77,-0.80,-2.03,-2.03,-2.04
36.70,-1.23,0.80,-1.23,0.80,-0.80,-0.77,-0.80,-2.04,-2.04,-2.04
37.06,-1.23,0.80,-1.23,0.80,-0.81,-0.78,-0.79,-2.04,-2.04,-2.04
37.43,-1.23,0.80,-1.23,0.81,-0.81,-0.78,-0.79,-2.04,-2.04,-2.04
37.81,-1.23,0.81,-1.23,0.81,-0.81,-0.79,-0.78,-2.05,-2.05,-2.05
38.19,-1.23,0.81,-1.23,0.82,-0.82,-0.80,-0.78,-2.05,-2.05,-2.05
38.57,-1.23,0.82,-1.23,0.82,-0.82,-0.80,-0.77,-2.05,-2.05,-2.06
38.95,-1.23,0.82,-1.24,0.82,-0.82,-0.81,-0.77,-2.05,-2.05,-2.06
39.34,-1.24,0.82,-1.24,0.82,-0.82,-0.81,-0.76,-2.06,-2.06,-2.07
39.74,-1.24,0.82,-1.25,0.82,-0.82,-0.82,-0.76,-2.06,-2.07,-2.07
40.14,-1.25,0.81,-1.25,0.82,-0.82,-0.83,-0.76,-2.07,-2.07,-2.07
40.54,-1.25,0.82,-1.25,0.82,-0.82,-0.83,-0.75,-2.08,-2.08,-2.08
40.94,-1.25,0.82,-1.25,0.82,-0.83,-0.84,-0.75,-2.08,-2.08,-2.08
41.35,-1.25,0.82,-1.25,0.83,-0.83,-0.84,-0.75,-2.09,-2.08,-2.08
41.76,-1.23,0.84,-1.23,0.84,-0.84,-0.85,-0.75,-2.08,-2.08,-2.08
42.18,-1.21,0.85,-1.21,0.86,-0.86,-0.85,-0.75,-2.07,-2.07,-2.07
42.60,-1.19,0.87,-1.19,0.88,-0.88,-0.86,-0.75,-2.07,-2.07,-2.07
43.03,-1.16,0.90,-1.17,0.90,-0.90,-0.86,-0.75,-2.06,-2.07,-2.07
43.46,-1.14,0.92,-1.14,0.92,-0.92,-0.86,-0.75,-2.07,-2.07,-2.07
43.90,-1.11,0.95,-1.11,0.95,-0.95,-0.87,-0.75,-2.06,-2.06,-2.07
44.33,-1.08,0.97,-1.08,0.98,-0.98,-0.87,-0.75,-2.06,-2.06,-2.06
44.78,-1.04,1.01,-1.05,1.01,-1.01,-0.88,-0.75,-2.06,-2.06,-2.06
45.23,-1.01,1.04,-1.01,1.04,-1.05,-0.88,-0.76,-2.06,-2.06,-2.06
45.68,-0.98,1.07,-0.98,1.08,-1.08,-0.88,-0.76,-2.06,-2.06,-2.06
46.13,-0.95,1.10,-0.95,1.11,-1.11,-0.88,-0.77,-2.07,-2.06,-2.06
46.60,-0.92,1.14,-0.92,1.14,-1.14,-0.89,-0.77,-2.06,-2.06,-2.07
47.06,-0.89,1.17,-0.90,1.17,-1.16,-0.89,-0.78,-2.05,-2.06,-2.07
47.53,-0.88,1.18,-0.88,1.18,-1.17,-0.89,-0.78,-2.06,-2.06,-2.07
48.01,-0.88,1.18,-0.88,1.19,-1.18,-0.89,-0.79,-2.06,-2.06,-2.07
48.49,-0.89,1.18,-0.89,1.18,-1.17,-0.90,-0.80,-2.06,-2.06,-2.08
48.97,-0.91,1.16,-0.91,1.16,-1.16,-0.90,-0.80,-2.07,-2.07,-2.08
49.46,-0.94,1.13,-0.94,1.14,-1.13,-0.90,-0.81,-2.08,-2.08,-2.08
49.96,-0.97,1.10,-0.97,1.10,-1.11,-0.90,-0.82,-2.08,-2.08,-2.08
50.46,-1.00,1.06,-1.00,1.07,-1.08,-0.90,-0.83,-2.08,-2.08,-2.07
50.96,-1.03,1.03,-1.03,1.04,-1.04,-0.90,-0.84,-2.08,-2.08,-2.07
51.47,-1.06,1.00,-1.06,1.01,-1.01,-0.90,-0.85,-2.08,-2.07,-2.07
51.99,-1.08,0.98,-1.09,0.98,-0.98,-0.90,-0.86,-2.06,-2.07,-2.07
52.51,-1.11,0.94,-1.11,0.95,-0.95,-0.90,-0.87,-2.06,-2.06,-2.06
53.03,-1.13,0.92,-1.14,0.92,-0.92,-0.90,-0.87,-2.05,-2.05,-2.06
53.56,-1.16,0.89,-1.17,0.89,-0.89,-0.90,-0.88,-2.05,-2.05,-2.06
54.10,-1.20,0.85,-1.20,0.86,-0.85,-0.90,-0.89,-2.05,-2.05,-2.06
54.64,-1.23,0.82,-1.23,0.82,-0.81,-0.90,-0.90,-2.05,-2.05,-2.06
55.18,-1.27,0.77,-1.27,0.78,-0.78,-0.90,-0.91,-2.05,-2.05,-2.05
55.74,-1.30,0.74,-1.31,0.74,-0.74,-0.90,-0.92,-2.04,-2.05,-2.05
56.29,-1.34,0.70,-1.34,0.70,-0.70,-0.90,-0.93,-2.04,-2.05,-2.05
56.86,-1.38,0.65,-1.38,0.66,-0.66,-0.90,-0.93,-2.05,-2.04,-2.04
57.42,-1.41,0.62,-1.41,0.63,-0.63,-0.90,-0.94,-2.04,-2.04,-2.04
58.00,-1.43,0.60,-1.44,0.60,-0.60,-0.89,-0.94,-2.03,-2.04,-2.04
58.58,-1.45,0.58,-1.45,0.58,-0.58,-0.89,-0.95,-2.03,-2.03,-2.04
59.16,-1.47,0.55,-1.47,0.56,-0.56,-0.89,-0.95,-2.03,-2.03,-2.03
59.76,-1.48,0.54,-1.48,0.54,-0.54,-0.89,-0.96,-2.03,-2.03,-2.03
60.35,-1.49,0.53,-1.49,0.53,-0.54,-0.88,-0.96,-2.03,-2.03,-2.03
60.96,-1.48,0.53,-1.49,0.53,-0.54,-0.88,-0.96,-2.02,-2.03,-2.02
61.57,-1.47,0.54,-1.48,0.54,-0.55,-0.88,-0.96,-2.02,-2.02,-2.02
62.18,-1.46,0.55,-1.46,0.56,-0.57,-0.87,-0.96,-2.03,-2.02,-2.02
62.80,-1.43,0.58,-1.43,0.58,-0.59,-0.87,-0.95,-2.02,-2.02,-2.02
63.43,-1.40,0.61,-1.41,0.61,-0.62,-0.87,-0.95,-2.02,-2.02,-2.02
64.07,-1.37,0.64,-1.37,0.65,-0.65,-0.86,-0.95,-2.02,-2.02,-2.02
64.71,-1.33,0.68,-1.33,0.68,-0.68,-0.86,-0.94,-2.01,-2.01,-2.02
65.35,-1.29,0.72,-1.30,0.72,-0.71,-0.85,-0.93,-2.01,-2.01,-2.02
66.01,-1.27,0.74,-1.27,0.75,-0.74,-0.85,-0.93,-2.01,-2.01,-2.02
66.67,-1.24,0.77,-1.25,0.77,-0.76,-0.84,-0.92,-2.01,-2.01,-2.02
67.33,-1.23,0.78,-1.23,0.78,-0.78,-0.84,-0.91,-2.01,-2.01,-2.02
68.01,-1.22,0.79,-1.22,0.80,-0.79,-0.83,-0.90,-2.02,-2.01,-2.02
68.69,-1.21,0.80,-1.22,0.80,-0.80,-0.83,-0.88,-2.01,-2.01,-2.02
69.37,-1.21,0.80,-1.22,0.80,-0.80,-0.82,-0.87,-2.01,-2.01,-2.02
70.07,-1.22,0.79,-1.22,0.80,-0.80,-0.82,-0.86,-2.02,-2.02,-2.02
70.77,-1.23,0.78,-1.23,0.79,-0.79,-0.81,-0.85,-2.02,-2.02,-2.02
71.48,-1.23,0.78,-1.23,0.78,-0.79,-0.81,-0.83,-2.02,-2.02,-2.02
72.19,-1.23,0.77,-1.23,0.78,-0.78,-0.80,-0.82,-2.01,-2.02,-2.01
72.91,-1.23,0.77,-1.23,0.77,-0.78,-0.80,-0.80,-2.01,-2.01,-2.01
73.64,-1.23,0.77,-1.23,0.77,-0.77,-0.79,-0.79,-2.00,-2.00,-2.01
74.38,-1.23,0.76,-1.23,0.77,-0.77,-0.78,-0.77,-2.00,-2.00,-2.00
75.12,-1.23,0.76,-1.23,0.76,-0.76,-0.78,-0.76,-2.00,-2.00,-2.00
75.87,-1.23,0.76,-1.23,0.76,-0.76,-0.77,-0.74,-1.99,-1.99,-2.00
76.63,-1.23,0.75,-1.23,0.76,-0.76,-0.76,-0.73,-1.99,-1.99,-1.99
77.40,-1.23,0.75,-1.23,0.75,-0.75,-0.76,-0.71,-1.98,-1.98,-1.99
78.17,-1.23,0.74,-1.23,0.75,-0.75,-0.75,-0.70,-1.98,-1.98,-1.98
78.95,-1.23,0.74,-1.23,0.74,-0.74,-0.74,-0.68,-1.98,-1.98,-1.98
79.74,-1.23,0.74,-1.23,0.74,-0.74,-0.74,-0.67,-1.97,-1.97,-1.98
80.54,-1.23,0.73,-1.23,0.74,-0.74,-0.73,-0.66,-1.97,-1.97,-1.97
81.35,-1.23,0.73,-1.23,0.73,-0.74,-0.72,-0.64,-1.97,-1.97,-1.97
82.16,-1.23,0.73,-1.23,0.73,-0.73,-0.72,-0.63,-1.97,-1.97,-1.97
82.98,-1.23,0.73,-1.23,0.73,-0.73,-0.71,-0.61,-1.97,-1.97,-1.97
83.81,-1.23,0.73,-1.23,0.73,-0.73,-0.70,-0.60,-1.96,-1.96,-1.97
84.65,-1.23,0.73,-1.23,0.73,-0.73,-0.70,-0.59,-1.96,-1.96,-1.97
85.50,-1.23,0.72,-1.23,0.73,-0.73,-0.69,-0.58,-1.96,-1.96,-1.96
86.35,-1.23,0.72,-1.23,0.72,-0.73,-0.68,-0.57,-1.96,-1.96,-1.96
87.22,-1.23,0.72,-1.23,0.72,-0.73,-0.68,-0.55,-1.96,-1.96,-1.96
88.09,-1.23,0.72,-1.23,0.72,-0.72,-0.67,-0.54,-1.96,-1.96,-1.96
88.97,-1.23,0.72,-1.23,0.72,-0.72,-0.66,-0.53,-1.96,-1.96,-1.96
89.86,-1.23,0.72,-1.23,0.72,-0.72,-0.65,-0.52,-1.96,-1.96,-1.96
90.76,-1.23,0.72,-1.23,0.72,-0.72,-0.65,-0.51,-1.96,-1.96,-1.96
91.66,-1.23,0.72,-1.23,0.72,-0.72,-0.64,-0.50,-1.96,-1.96,-1.96
92.58,-1.23,0.72,-1.23,0.72,-0.72,-0.63,-0.50,-1.96,-1.96,-1.96
93.51,-1.23,0.72,-1.23,0.72,-0.72,-0.63,-0.49,-1.96,-1.96,-1.96
94.44,-1.23,0.72,-1.23,0.72,-0.72,-0.62,-0.48,-1.96,-1.96,-1.96
95.39,-1.23,0.72,-1.23,0.72,-0.72,-0.61,-0.47,-1.96,-1.96,-1.96
96.34,-1.23,0.72,-1.23,0.72,-0.73,-0.60,-0.47,-1.96,-1.96,-1.96
97.30,-1.23,0.71,-1.23,0.72,-0.73,-0.60,-0.46,-1.96,-1.96,-1.95
98.28,-1.22,0.72,-1.22,0.73,-0.73,-0.59,-0.45,-1.95,-1.95,-1.95
99.26,-1.21,0.73,-1.22,0.73,-0.73,-0.58,-0.45,-1.94,-1.95,-1.95
100.25,-1.21,0.73,-1.21,0.73,-0.73,-0.58,-0.44,-1.94,-1.94,-1.95
101.25,-1.22,0.72,-1.22,0.73,-0.72,-0.57,-0.44,-1.94,-1.94,-1.95
102.27,-1.23,0.71,-1.23,0.71,-0.71,-0.56,-0.43,-1.94,-1.94,-1.95
103.29,-1.25,0.69,-1.25,0.69,-0.69,-0.56,-0.43,-1.94,-1.94,-1.95
104.32,-1.27,0.66,-1.27,0.67,-0.67,-0.55,-0.42,-1.94,-1.94,-1.94
105.37,-1.30,0.63,-1.30,0.64,-0.64,-0.54,-0.42,-1.94,-1.94,-1.94
106.42,-1.32,0.61,-1.33,0.61,-0.61,-0.54,-0.41,-1.93,-1.93,-1.94
107.48,-1.35,0.57,-1.36,0.57,-0.57,-0.53,-0.41,-1.93,-1.93,-1.93
108.56,-1.39,0.53,-1.39,0.54,-0.54,-0.52,-0.40,-1.93,-1.93,-1.93
109.64,-1.42,0.50,-1.42,0.50,-0.50,-0.52,-0.40,-1.93,-1.93,-1.93
110.74,-1.45,0.47,-1.45,0.47,-0.47,-0.51,-0.40,-1.92,-1.93,-1.93
111.85,-1.48,0.43,-1.48,0.44,-0.44,-0.50,-0.40,-1.92,-1.92,-1.92
112.97,-1.51,0.40,-1.51,0.41,-0.41,-0.50,-0.39,-1.92,-1.92,-1.92
114.10,-1.53,0.38,-1.53,0.38,-0.38,-0.49,-0.39,-1.92,-1.92,-1.92
115.24,-1.55,0.36,-1.56,0.36,-0.36,-0.48,-0.39,-1.92,-1.92,-1.92
116.39,-1.57,0.34,-1.57,0.34,-0.35,-0.48,-0.38,-1.92,-1.92,-1.92
117.55,-1.58,0.32,-1.58,0.33,-0.34,-0.47,-0.38,-1.92,-1.92,-1.91
118.73,-1.58,0.32,-1.59,0.32,-0.33,-0.47,-0.38,-1.91,-1.91,-1.91
119.92,-1.58,0.32,-1.58,0.32,-0.32,-0.46,-0.38,-1.91,-1.91,-1.91
121.12,-1.57,0.32,-1.57,0.33,-0.32,-0.45,-0.37,-1.90,-1.90,-1.90
122.33,-1.56,0.33,-1.57,0.33,-0.32,-0.45,-0.37,-1.89,-1.89,-1.90
123.55,-1.56,0.32,-1.56,0.33,-0.32,-0.44,-0.37,-1.88,-1.88,-1.89
124.79,-1.56,0.32,-1.56,0.32,-0.32,-0.44,-0.36,-1.88,-1.88,-1.89
126.03,-1.56,0.32,-1.56,0.32,-0.32,-0.43,-0.36,-1.88,-1.88,-1.89
127.29,-1.56,0.31,-1.56,0.32,-0.32,-0.43,-0.36,-1.88,-1.88,-1.88
128.57,-1.56,0.31,-1.56,0.31,-0.31,-0.42,-0.36,-1.88,-1.88,-1.88
129.85,-1.56,0.30,-1.56,0.31,-0.31,-0.41,-0.35,-1.87,-1.87,-1.87
131.15,-1.56,0.30,-1.56,0.30,-0.31,-0.41,-0.35,-1.87,-1.87,-1.87
132.46,-1.56,0.30,-1.56,0.30,-0.30,-0.40,-0.35,-1.87,-1.87,-1.87
133.79,-1.56,0.30,-1.56,0.30,-0.30,-0.40,-0.35,-1.87,-1.87,-1.87
135.12,-1.56,0.30,-1.56,0.30,-0.30,-0.39,-0.34,-1.86,-1.86,-1.87
136.48,-1.56,0.30,-1.56,0.30,-0.30,-0.39,-0.34,-1.86,-1.86,-1.87
137.84,-1.56,0.29,-1.56,0.30,-0.30,-0.39,-0.34,-1.86,-1.86,-1.86
139.22,-1.56,0.29,-1.56,0.29,-0.30,-0.38,-0.33,-1.86,-1.86,-1.86
140.61,-1.56,0.29,-1.56,0.29,-0.29,-0.38,-0.33,-1.86,-1.86,-1.86
142.02,-1.56,0.29,-1.56,0.29,-0.29,-0.37,-0.33,-1.86,-1.86,-1.86
143.44,-1.56,0.29,-1.56,0.29,-0.29,-0.37,-0.33,-1.85,-1.85,-1.86
144.87,-1.56,0.28,-1.56,0.29,-0.29,-0.36,-0.32,-1.85,-1.85,-1.85
146.32,-1.56,0.28,-1.56,0.28,-0.28,-0.36,-0.32,-1.85,-1.85,-1.85
147.78,-1.56,0.28,-1.56,0.28,-0.28,-0.35,-0.32,-1.84,-1.84,-1.85
149.26,-1.56,0.27,-1.56,0.28,-0.28,-0.35,-0.32,-1.84,-1.84,-1.84
150.75,-1.56,0.27,-1.56,0.27,-0.27,-0.35,-0.32,-1.84,-1.84,-1.84
152.26,-1.56,0.27,-1.56,0.27,-0.27,-0.34,-0.31,-1.83,-1.83,-1.84
153.78,-1.56,0.26,-1.56,0.27,-0.27,-0.34,-0.31,-1.83,-1.83,-1.83
155.32,-1.56,0.26,-1.56,0.26,-0.26,-0.34,-0.31,-1.83,-1.83,-1.83
156.88,-1.56,0.26,-1.56,0.26,-0.26,-0.33,-0.31,-1.82,-1.82,-1.83
158.44,-1.56,0.25,-1.56,0.26,-0.26,-0.33,-0.31,-1.82,-1.82,-1.82
160.03,-1.56,0.25,-1.56,0.25,-0.26,-0.33,-0.31,-1.82,-1.82,-1.82
161.63,-1.56,0.25,-1.56,0.25,-0.25,-0.32,-0.31,-1.82,-1.82,-1.82
163.24,-1.56,0.25,-1.56,0.25,-0.25,-0.32,-0.30,-1.81,-1.81,-1.82
164.88,-1.56,0.25,-1.56,0.25,-0.25,-0.32,-0.30,-1.81,-1.81,-1.82
166.53,-1.56,0.24,-1.56,0.25,-0.25,-0.31,-0.30,-1.81,-1.81,-1.81
168.19,-1.56,0.24,-1.56,0.24,-0.25,-0.31,-0.30,-1.81,-1.81,-1.81
169.87,-1.56,0.24,-1.56,0.24,-0.25,-0.31,-0.30,-1.81,-1.81,-1.81
171.57,-1.56,0.23,-1.56,0.24,-0.25,-0.31,-0.30,-1.81,-1.81,-1.80
173.29,-1.55,0.24,-1.55,0.25,-0.25,-0.30,-0.31,-1.80,-1.80,-1.80
175.02,-1.54,0.25,-1.54,0.25,-0.25,-0.30,-0.31,-1.79,-1.79,-1.80
176.77,-1.53,0.26,-1.54,0.25,-0.25,-0.30,-0.31,-1.78,-1.79,-1.80
178.54,-1.54,0.24,-1.54,0.25,-0.24,-0.30,-0.31,-1.79,-1.78,-1.79
180.32,-1.55,0.23,-1.55,0.24,-0.24,-0.30,-0.31,-1.79,-1.79,-1.79
182.13,-1.56,0.22,-1.57,0.22,-0.22,-0.29,-0.31,-1.79,-1.79,-1.79
183.95,-1.58,0.20,-1.58,0.21,-0.21,-0.29,-0.31,-1.79,-1.79,-1.79
185.79,-1.60,0.19,-1.60,0.19,-0.19,-0.29,-0.32,-1.79,-1.79,-1.80
187.65,-1.63,0.16,-1.63,0.16,-0.16,-0.29,-0.32,-1.79,-1.79,-1.80
189.52,-1.66,0.13,-1.66,0.14,-0.13,-0.29,-0.32,-1.80,-1.79,-1.80
191.42,-1.69,0.10,-1.69,0.10,-0.10,-0.29,-0.32,-1.80,-1.80,-1.80
193.33,-1.72,0.06,-1.72,0.07,-0.07,-0.29,-0.33,-1.79,-1.79,-1.79
195.27,-1.75,0.03,-1.75,0.04,-0.04,-0.29,-0.33,-1.79,-1.79,-1.79
197.22,-1.78,0.00,-1.78,0.00,-0.00,-0.29,-0.33,-1.79,-1.79,-1.79
199.19,-1.81,-0.03,-1.81,-0.03,0.03,-0.29,-0.34,-1.78,-1.78,-1.79
201.18,-1.84,-0.07,-1.84,-0.06,0.07,-0.29,-0.34,-1.78,-1.78,-1.78
203.19,-1.86,-0.09,-1.87,-0.09,0.10,-0.29,-0.34,-1.77,-1.77,-1.78
205.23,-1.89,-0.12,-1.89,-0.12,0.12,-0.29,-0.35,-1.77,-1.77,-1.78
207.28,-1.91,-0.15,-1.91,-0.14,0.14,-0.29,-0.35,-1.78,-1.78,-1.77
209.35,-1.93,-0.17,-1.93,-0.16,0.15,-0.29,-0.36,-1.78,-1.78,-1.77
211.44,-1.93,-0.17,-1.93,-0.17,0.15,-0.29,-0.36,-1.78,-1.78,-1.77
213.56,-1.92,-0.17,-1.92,-0.16,0.15,-0.29,-0.36,-1.77,-1.77,-1.76
215.69,-1.90,-0.15,-1.90,-0.14,0.15,-0.29,-0.37,-1.76,-1.75,-1.76
217.85,-1.87,-0.12,-1.88,-0.12,0.13,-0.29,-0.37,-1.74,-1.74,-1.76
220.03,-1.85,-0.10,-1.86,-0.10,0.12,-0.30,-0.38,-1.74,-1.74,-1.76
222.23,-1.84,-0.10,-1.84,-0.09,0.09,-0.30,-0.38,-1.75,-1.75,-1.75
224.45,-1.82,-0.08,-1.82,-0.07,0.07,-0.30,-0.38,-1.76,-1.75,-1.75
226.70,-1.79,-0.05,-1.79,-0.05,0.04,-0.30,-0.39,-1.76,-1.76,-1.75
228.96,-1.75,-0.01,-1.75,-0.01,0.00,-0.31,-0.39,-1.75,-1.75,-1.75
231.25,-1.71,0.02,-1.71,0.03,-0.03,-0.31,-0.39,-1.74,-1.74,-1.74
233.57,-1.66,0.07,-1.66,0.07,-0.07,-0.31,-0.40,-1.73,-1.73,-1.74
235.90,-1.61,0.11,-1.62,0.11,-0.11,-0.32,-0.40,-1.72,-1.72,-1.73
238.26,-1.57,0.15,-1.57,0.15,-0.15,-0.32,-0.40,-1.72,-1.72,-1.73
240.64,-1.52,0.19,-1.53,0.19,-0.19,-0.33,-0.40,-1.72,-1.72,-1.72
243.05,-1.48,0.22,-1.48,0.23,-0.24,-0.33,-0.40,-1.72,-1.72,-1.71
245.48,-1.43,0.27,-1.43,0.27,-0.28,-0.34,-0.41,-1.71,-1.71,-1.71
247.93,-1.37,0.32,-1.38,0.32,-0.32,-0.35,-0.41,-1.69,-1.69,-1.70
250.41,-1.32,0.36,-1.32,0.37,-0.36,-0.35,-0.41,-1.68,-1.68,-1.69
252.92,-1.27,0.40,-1.28,0.40,-0.40,-0.36,-0.41,-1.68,-1.68,-1.68
255.45,-1.23,0.44,-1.23,0.44,-0.44,-0.37,-0.41,-1.68,-1.68,-1.68
258.00,-1.19,0.47,-1.19,0.48,-0.49,-0.38,-0.41,-1.68,-1.68,-1.67
260.58,-1.14,0.52,-1.14,0.52,-0.53,-0.39,-0.41,-1.67,-1.67,-1.67
263.19,-1.09,0.56,-1.10,0.56,-0.56,-0.40,-0.41,-1.66,-1.66,-1.66
265.82,-1.05,0.60,-1.05,0.60,-0.60,-0.41,-0.40,-1.65,-1.65,-1.66
268.48,-1.01,0.63,-1.01,0.64,-0.63,-0.43,-0.40,-1.64,-1.64,-1.65
271.16,-0.98,0.66,-0.98,0.66,-0.66,-0.44,-0.40,-1.64,-1.64,-1.65
273.87,-0.96,0.68,-0.96,0.68,-0.68,-0.45,-0.40,-1.64,-1.64,-1.65
276.61,-0.94,0.69,-0.95,0.70,-0.70,-0.47,-0.40,-1.64,-1.64,-1.64
279.38,-0.93,0.70,-0.93,0.71,-0.71,-0.48,-0.39,-1.65,-1.64,-1.64
282.17,-0.91,0.72,-0.91,0.72,-0.72,-0.50,-0.39,-1.64,-1.63,-1.64
284.99,-0.89,0.73,-0.90,0.73,-0.73,-0.52,-0.39,-1.62,-1.63,-1.63
287.84,-0.89,0.73,-0.89,0.74,-0.73,-0.54,-0.39,-1.62,-1.62,-1.63
290.72,-0.89,0.73,-0.89,0.74,-0.73,-0.56,-0.38,-1.62,-1.62,-1.63
293.63,-0.89,0.73,-0.90,0.73,-0.73,-0.58,-0.38,-1.62,-1.63,-1.63
296.57,-0.90,0.72,-0.90,0.72,-0.72,-0.60,-0.38,-1.63,-1.63,-1.63
299.53,-0.91,0.71,-0.91,0.72,-0.72,-0.62,-0.38,-1.63,-1.63,-1.63
302.53,-0.91,0.70,-0.91,0.71,-0.71,-0.64,-0.37,-1.62,-1.62,-1.62
305.55,-0.91,0.70,-0.91,0.70,-0.70,-0.66,-0.37,-1.62,-1.62,-1.62
308.61,-0.91,0.69,-0.91,0.70,-0.70,-0.68,-0.37,-1.61,-1.61,-1.61
311.69,-0.91,0.69,-0.91,0.69,-0.69,-0.70,-0.37,-1.60,-1.60,-1.61
314.81,-0.91,0.68,-0.91,0.69,-0.69,-0.72,-0.36,-1.60,-1.60,-1.60
317.96,-0.91,0.68,-0.91,0.68,-0.68,-0.73,-0.36,-1.60,-1.60,-1.60
321.14,-0.91,0.67,-0.91,0.68,-0.68,-0.74,-0.36,-1.59,-1.59,-1.59
324.35,-0.91,0.67,-0.91,0.67,-0.67,-0.75,-0.36,-1.59,-1.59,-1.59
327.59,-0.91,0.67,-0.91,0.67,-0.67,-0.76,-0.36,-1.58,-1.58,-1.59
330.87,-0.91,0.66,-0.91,0.67,-0.66,-0.76,-0.36,-1.58,-1.58,-1.58
334.18,-0.91,0.66,-0.91,0.66,-0.66,-0.76,-0.36,-1.57,-1.57,-1.58
337.52,-0.91,0.65,-0.91,0.65,-0.65,-0.76,-0.35,-1.57,-1.57,-1.57
340.90,-0.91,0.64,-0.91,0.65,-0.65,-0.75,-0.35,-1.56,-1.56,-1.56
344.30,-0.91,0.64,-0.91,0.64,-0.65,-0.74,-0.35,-1.56,-1.56,-1.56
347.75,-0.91,0.64,-0.91,0.64,-0.64,-0.73,-0.35,-1.56,-1.56,-1.56
351.23,-0.91,0.64,-0.91,0.64,-0.64,-0.71,-0.35,-1.55,-1.55,-1.56
354.74,-0.91,0.63,-0.91,0.64,-0.64,-0.70,-0.35,-1.55,-1.55,-1.55
358.28,-0.91,0.63,-0.91,0.63,-0.64,-0.68,-0.36,-1.55,-1.55,-1.55
361.87,-0.91,0.63,-0.91,0.63,-0.63,-0.66,-0.36,-1.55,-1.55,-1.55
365.49,-0.91,0.63,-0.91,0.63,-0.63,-0.65,-0.36,-1.55,-1.55,-1.55
369.14,-0.91,0.63,-0.91,0.63,-0.63,-0.63,-0.36,-1.54,-1.54,-1.55
372.83,-0.91,0.63,-0.91,0.63,-0.63,-0.61,-0.36,-1.54,-1.54,-1.55
376.56,-0.91,0.62,-0.91,0.63,-0.63,-0.60,-0.36,-1.54,-1.54,-1.54
380.33,-0.91,0.62,-0.91,0.63,-0.63,-0.58,-0.37,-1.54,-1.54,-1.54
384.13,-0.91,0.62,-0.91,0.62,-0.62,-0.57,-0.37,-1.54,-1.54,-1.54
387.97,-0.91,0.62,-0.91,0.62,-0.62,-0.55,-0.37,-1.53,-1.53,-1.54
391.85,-0.91,0.61,-0.91,0.62,-0.62,-0.54,-0.37,-1.53,-1.53,-1.53
395.77,-0.91,0.61,-0.91,0.61,-0.61,-0.53,-0.38,-1.52,-1.52,-1.53
399.73,-0.91,0.60,-0.91,0.61,-0.61,-0.51,-0.38,-1.52,-1.52,-1.52
403.72,-0.91,0.60,-0.91,0.60,-0.60,-0.50,-0.39,-1.51,-1.51,-1.52
407.76,-0.91,0.59,-0.91,0.60,-0.60,-0.50,-0.39,-1.51,-1.51,-1.51
411.84,-0.91,0.59,-0.91,0.59,-0.59,-0.49,-0.39,-1.50,-1.50,-1.51
415.96,-0.91,0.58,-0.91,0.59,-0.59,-0.48,-0.40,-1.50,-1.50,-1.50
420.12,-0.91,0.58,-0.91,0.58,-0.58,-0.47,-0.40,-1.50,-1.50,-1.50
