frequency,raw,error,smoothed,error_smoothed,equalization,parametric_eq,fixed_band_eq,equalized_raw,equalized_smoothed,target
20.00,-2.19,-0.32,-2.20,-0.33,0.32,-0.50,-0.58,-1.87,-1.88,-1.87
20.20,-2.09,-0.23,-2.08,-0.22,0.22,-0.51,-0.59,-1.87,-1.87,-1.86
20.40,-1.99,-0.14,-1.98,-0.12,0.12,-0.52,-0.61,-1.87,-1.86,-1.85
20.61,-1.88,-0.03,-1.88,-0.03,0.03,-0.53,-0.63,-1.85,-1.85,-1.85
20.81,-1.78,0.06,-1.78,0.06,-0.05,-0.54,-0.65,-1.83,-1.83,-1.84
21.02,-1.69,0.15,-1.70,0.14,-0.12,-0.55,-0.66,-1.81,-1.82,-1.84
21.23,-1.64,0.19,-1.64,0.20,-0.19,-0.57,-0.68,-1.83,-1.82,-1.83
21.44,-1.59,0.24,-1.59,0.25,-0.25,-0.58,-0.70,-1.84,-1.83,-1.83
21.66,-1.54,0.29,-1.54,0.29,-0.29,-0.59,-0.72,-1.83,-1.83,-1.83
21.87,-1.50,0.33,-1.50,0.33,-0.33,-0.61,-0.74,-1.83,-1.82,-1.83
22.09,-1.46,0.36,-1.47,0.36,-0.36,-0.62,-0.76,-1.82,-1.82,-1.82
22.31,-1.44,0.38,-1.44,0.38,-0.38,-0.63,-0.79,-1.82,-1.83,-1.82
22.54,-1.43,0.40,-1.43,0.41,-0.41,-0.65,-0.81,-1.84,-1.83,-1.83
22.76,-1.41,0.43,-1.41,0.43,-0.43,-0.66,-0.83,-1.84,-1.84,-1.84
22.99,-1.39,0.45,-1.39,0.45,-0.46,-0.68,-0.85,-1.85,-1.85,-1.84
23.22,-1.36,0.48,-1.36,0.49,-0.49,-0.69,-0.88,-1.85,-1.85,-1.84
23.45,-1.33,0.52,-1.33,0.52,-0.53,-0.71,-0.90,-1.86,-1.86,-1.85
23.69,-1.29,0.56,-1.30,0.56,-0.57,-0.72,-0.93,-1.86,-1.87,-1.85
23.92,-1.26,0.59,-1.25,0.60,-0.62,-0.74,-0.95,-1.88,-1.87,-1.85
24.16,-1.21,0.64,-1.20,0.65,-0.67,-0.76,-0.98,-1.88,-1.87,-1.85
24.40,-1.14,0.71,-1.14,0.71,-0.71,-0.77,-1.00,-1.85,-1.85,-1.85
24.65,-1.08,0.77,-1.08,0.78,-0.75,-0.79,-1.03,-1.83,-1.82,-1.85
24.89,-1.02,0.83,-1.03,0.82,-0.78,-0.81,-1.06,-1.80,-1.81,-1.85
25.14,-1.00,0.85,-1.01,0.85,-0.81,-0.83,-1.08,-1.81,-1.81,-1.85
25.39,-1.01,0.85,-1.01,0.85,-0.84,-0.84,-1.11,-1.85,-1.85,-1.86
25.65,-1.02,0.84,-1.02,0.84,-0.87,-0.86,-1.14,-1.89,-1.90,-1.86
25.91,-1.03,0.83,-1.02,0.85,-0.91,-0.88,-1.17,-1.94,-1.93,-1.86
26.16,-0.98,0.88,-0.97,0.89,-0.95,-0.90,-1.19,-1.93,-1.92,-1.86
26.43,-0.90,0.96,-0.90,0.97,-0.98,-0.92,-1.22,-1.88,-1.88,-1.86
26.69,-0.81,1.05,-0.81,1.05,-1.02,-0.94,-1.25,-1.83,-1.83,-1.86
26.96,-0.73,1.13,-0.75,1.11,-1.05,-0.96,-1.28,-1.78,-1.81,-1.86
27.23,-0.73,1.13,-0.73,1.13,-1.08,-0.99,-1.30,-1.81,-1.81,-1.86
27.50,-0.74,1.12,-0.73,1.13,-1.11,-1.01,-1.33,-1.85,-1.84,-1.86
27.77,-0.74,1.12,-0.74,1.12,-1.13,-1.03,-1.35,-1.87,-1.87,-1.86
28.05,-0.75,1.11,-0.74,1.12,-1.14,-1.05,-1.38,-1.89,-1.88,-1.86
28.33,-0.73,1.13,-0.74,1.13,-1.15,-1.08,-1.40,-1.88,-1.89,-1.86
28.62,-0.72,1.14,-0.72,1.14,-1.17,-1.10,-1.43,-1.89,-1.89,-1.86
28.90,-0.70,1.15,-0.69,1.17,-1.20,-1.12,-1.45,-1.90,-1.89,-1.85
29.19,-0.65,1.20,-0.64,1.21,-1.22,-1.15,-1.47,-1.87,-1.87,-1.85
29.48,-0.58,1.27,-0.58,1.27,-1.25,-1.17,-1.49,-1.83,-1.83,-1.85
29.78,-0.51,1.33,-0.52,1.33,-1.29,-1.20,-1.51,-1.80,-1.80,-1.84
30.08,-0.46,1.38,-0.48,1.37,-1.32,-1.22,-1.52,-1.78,-1.80,-1.84
30.38,-0.47,1.37,-0.47,1.37,-1.36,-1.25,-1.54,-1.83,-1.83,-1.84
30.68,-0.48,1.36,-0.48,1.36,-1.40,-1.28,-1.55,-1.88,-1.88,-1.84
30.99,-0.49,1.35,-0.47,1.38,-1.43,-1.30,-1.56,-1.92,-1.90,-1.84
31.30,-0.42,1.42,-0.42,1.43,-1.45,-1.33,-1.57,-1.87,-1.86,-1.84
31.61,-0.35,1.49,-0.35,1.49,-1.46,-1.36,-1.58,-1.81,-1.82,-1.84
31.93,-0.28,1.56,-0.30,1.54,-1.48,-1.39,-1.59,-1.76,-1.79,-1.84
32.24,-0.29,1.56,-0.30,1.55,-1.51,-1.41,-1.60,-1.80,-1.81,-1.85
32.57,-0.33,1.52,-0.33,1.52,-1.54,-1.44,-1.60,-1.87,-1.87,-1.85
32.89,-0.37,1.48,-0.35,1.51,-1.57,-1.47,-1.61,-1.94,-1.92,-1.85
33.22,-0.33,1.53,-0.32,1.54,-1.59,-1.50,-1.61,-1.92,-1.90,-1.86
33.55,-0.26,1.60,-0.26,1.61,-1.60,-1.53,-1.61,-1.86,-1.85,-1.86
33.89,-0.18,1.69,-0.21,1.67,-1.60,-1.55,-1.61,-1.79,-1.81,-1.87
34.23,-0.18,1.69,-0.20,1.68,-1.62,-1.58,-1.61,-1.80,-1.82,-1.87
34.57,-0.22,1.65,-0.21,1.66,-1.65,-1.61,-1.61,-1.87,-1.86,-1.87
34.92,-0.25,1.62,-0.23,1.64,-1.69,-1.64,-1.61,-1.94,-1.92,-1.87
35.27,-0.21,1.66,-0.21,1.67,-1.73,-1.67,-1.60,-1.94,-1.94,-1.87
35.62,-0.14,1.73,-0.15,1.73,-1.77,-1.70,-1.60,-1.92,-1.92,-1.87
35.97,-0.07,1.80,-0.07,1.80,-1.82,-1.72,-1.60,-1.89,-1.88,-1.87
36.33,0.01,1.88,0.01,1.89,-1.86,-1.75,-1.59,-1.85,-1.84,-1.87
36.70,0.08,1.95,0.08,1.95,-1.90,-1.78,-1.59,-1.82,-1.82,-1.87
37.06,0.14,2.01,0.12,1.99,-1.95,-1.81,-1.59,-1.81,-1.83,-1.87
37.43,0.13,2.00,0.13,2.00,-1.98,-1.83,-1.58,-1.85,-1.85,-1.87
37.81,0.12,1.98,0.13,1.99,-2.00,-1.86,-1.58,-1.88,-1.87,-1.86
38.19,0.12,1.98,0.12,1.99,-2.01,-1.88,-1.58,-1.89,-1.89,-1.86
38.57,0.13,1.99,0.13,1.99,-2.01,-1.91,-1.58,-1.88,-1.87,-1.86
38.95,0.15,2.00,0.14,2.00,-2.00,-1.93,-1.58,-1.85,-1.86,-1.85
39.34,0.15,2.00,0.15,2.00,-2.00,-1.96,-1.58,-1.85,-1.85,-1.85
39.74,0.14,1.99,0.15,2.00,-2.00,-1.98,-1.58,-1.86,-1.85,-1.85
40.14,0.14,1.99,0.14,1.99,-1.99,-2.00,-1.58,-1.85,-1.85,-1.85
40.54,0.14,1.99,0.14,1.99,-1.99,-2.02,-1.58,-1.85,-1.85,-1.85
40.94,0.14,1.99,0.14,1.99,-1.99,-2.04,-1.58,-1.85,-1.85,-1.85
41.35,0.14,1.99,0.14,2.00,-1.98,-2.06,-1.59,-1.84,-1.84,-1.85
41.76,0.14,2.00,0.14,2.00,-1.98,-2.08,-1.59,-1.84,-1.85,-1.86
42.18,0.13,1.99,0.12,1.99,-1.99,-2.09,-1.60,-1.86,-1.87,-1.86
42.60,0.12,1.98,0.11,1.98,-2.01,-2.11,-1.61,-1.89,-1.89,-1.86
43.03,0.10,1.96,0.13,1.99,-2.03,-2.12,-1.62,-1.93,-1.90,-1.86
43.46,0.16,2.02,0.16,2.02,-2.05,-2.14,-1.63,-1.89,-1.89,-1.86
43.90,0.22,2.09,0.20,2.07,-2.07,-2.15,-1.64,-1.85,-1.87,-1.87
44.33,0.24,2.11,0.24,2.12,-2.09,-2.16,-1.65,-1.85,-1.84,-1.87
44.78,0.26,2.13,0.26,2.14,-2.10,-2.17,-1.66,-1.84,-1.84,-1.87
45.23,0.27,2.14,0.26,2.14,-2.12,-2.18,-1.68,-1.85,-1.85,-1.87
45.68,0.26,2.13,0.26,2.13,-2.12,-2.18,-1.70,-1.86,-1.86,-1.87
46.13,0.25,2.11,0.25,2.11,-2.12,-2.19,-1.71,-1.87,-1.87,-1.86
46.60,0.24,2.10,0.24,2.10,-2.11,-2.20,-1.73,-1.87,-1.87,-1.86
47.06,0.22,2.07,0.24,2.09,-2.09,-2.20,-1.75,-1.87,-1.85,-1.85
47.53,0.24,2.08,0.24,2.09,-2.08,-2.20,-1.77,-1.84,-1.83,-1.84
48.01,0.26,2.09,0.23,2.06,-2.07,-2.21,-1.79,-1.81,-1.84,-1.83
48.49,0.22,2.04,0.22,2.04,-2.06,-2.21,-1.82,-1.84,-1.85,-1.82
48.97,0.18,1.99,0.22,2.04,-2.06,-2.21,-1.84,-1.88,-1.84,-1.81
49.46,0.25,2.05,0.25,2.05,-2.06,-2.21,-1.87,-1.81,-1.81,-1.80
49.96,0.33,2.11,0.30,2.09,-2.06,-2.21,-1.89,-1.73,-1.76,-1.78
50.46,0.34,2.11,0.34,2.11,-2.07,-2.21,-1.92,-1.73,-1.73,-1.77
50.96,0.34,2.09,0.33,2.09,-2.08,-2.20,-1.95,-1.74,-1.75,-1.75
51.47,0.33,2.07,0.32,2.07,-2.10,-2.20,-1.97,-1.77,-1.78,-1.74
51.99,0.31,2.04,0.35,2.08,-2.12,-2.20,-2.00,-1.81,-1.78,-1.73
52.51,0.40,2.12,0.39,2.12,-2.14,-2.20,-2.03,-1.75,-1.75,-1.72
53.03,0.48,2.19,0.46,2.17,-2.16,-2.19,-2.06,-1.68,-1.70,-1.71
53.56,0.51,2.21,0.51,2.21,-2.18,-2.19,-2.09,-1.67,-1.66,-1.70
54.10,0.54,2.22,0.54,2.22,-2.19,-2.19,-2.12,-1.65,-1.65,-1.68
54.64,0.54,2.21,0.54,2.22,-2.19,-2.18,-2.15,-1.66,-1.65,-1.67
55.18,0.54,2.20,0.54,2.21,-2.20,-2.18,-2.17,-1.66,-1.65,-1.66
55.74,0.54,2.20,0.54,2.20,-2.19,-2.17,-2.20,-1.65,-1.66,-1.66
56.29,0.53,2.18,0.53,2.18,-2.19,-2.17,-2.23,-1.66,-1.66,-1.65
56.86,0.52,2.16,0.51,2.16,-2.19,-2.17,-2.25,-1.67,-1.68,-1.64
57.42,0.51,2.15,0.51,2.15,-2.20,-2.16,-2.28,-1.69,-1.69,-1.64
58.00,0.50,2.14,0.53,2.17,-2.20,-2.16,-2.30,-1.70,-1.67,-1.64
58.58,0.58,2.22,0.58,2.22,-2.21,-2.16,-2.33,-1.63,-1.63,-1.64
59.16,0.64,2.28,0.62,2.27,-2.22,-2.15,-2.35,-1.58,-1.59,-1.64
59.76,0.65,2.29,0.63,2.28,-2.23,-2.15,-2.37,-1.58,-1.59,-1.64
60.35,0.61,2.26,0.61,2.26,-2.23,-2.15,-2.38,-1.62,-1.63,-1.65
60.96,0.54,2.20,0.57,2.23,-2.24,-2.15,-2.40,-1.70,-1.68,-1.66
61.57,0.54,2.21,0.54,2.21,-2.25,-2.15,-2.41,-1.71,-1.71,-1.67
62.18,0.54,2.23,0.53,2.23,-2.26,-2.15,-2.43,-1.72,-1.73,-1.69
62.80,0.54,2.25,0.54,2.25,-2.27,-2.14,-2.44,-1.73,-1.73,-1.71
63.43,0.54,2.28,0.54,2.28,-2.28,-2.15,-2.44,-1.74,-1.74,-1.74
64.07,0.54,2.30,0.54,2.31,-2.30,-2.15,-2.45,-1.76,-1.76,-1.76
64.71,0.54,2.33,0.54,2.33,-2.31,-2.15,-2.46,-1.77,-1.77,-1.79
65.35,0.54,2.35,0.54,2.35,-2.33,-2.15,-2.46,-1.79,-1.79,-1.81
66.01,0.54,2.37,0.52,2.36,-2.34,-2.15,-2.46,-1.80,-1.82,-1.83
66.67,0.49,2.34,0.50,2.35,-2.35,-2.15,-2.46,-1.86,-1.85,-1.85
67.33,0.46,2.32,0.47,2.33,-2.35,-2.16,-2.46,-1.89,-1.88,-1.86
68.01,0.44,2.32,0.44,2.32,-2.35,-2.16,-2.46,-1.91,-1.91,-1.88
68.69,0.44,2.33,0.44,2.33,-2.34,-2.17,-2.45,-1.90,-1.91,-1.89
69.37,0.44,2.34,0.44,2.35,-2.33,-2.17,-2.45,-1.89,-1.89,-1.90
70.07,0.44,2.35,0.44,2.35,-2.33,-2.18,-2.44,-1.89,-1.88,-1.91
70.77,0.44,2.36,0.42,2.34,-2.32,-2.19,-2.44,-1.88,-1.90,-1.92
71.48,0.39,2.31,0.39,2.32,-2.32,-2.19,-2.43,-1.93,-1.93,-1.92
72.19,0.34,2.27,0.36,2.29,-2.31,-2.20,-2.43,-1.97,-1.96,-1.93
72.91,0.34,2.28,0.34,2.28,-2.31,-2.21,-2.42,-1.97,-1.97,-1.94
73.64,0.34,2.29,0.34,2.29,-2.30,-2.22,-2.41,-1.96,-1.97,-1.95
74.38,0.34,2.30,0.35,2.31,-2.29,-2.23,-2.41,-1.95,-1.95,-1.96
75.12,0.34,2.31,0.34,2.32,-2.29,-2.24,-2.40,-1.95,-1.95,-1.97
75.87,0.34,2.33,0.32,2.31,-2.29,-2.25,-2.40,-1.95,-1.97,-1.99
76.63,0.28,2.28,0.29,2.29,-2.29,-2.26,-2.40,-2.01,-2.00,-2.00
77.40,0.24,2.26,0.26,2.28,-2.29,-2.28,-2.40,-2.05,-2.04,-2.02
78.17,0.24,2.27,0.24,2.27,-2.30,-2.29,-2.39,-2.06,-2.06,-2.03
78.95,0.24,2.29,0.24,2.29,-2.30,-2.30,-2.39,-2.06,-2.06,-2.05
79.74,0.24,2.30,0.24,2.31,-2.30,-2.32,-2.40,-2.06,-2.06,-2.06
80.54,0.24,2.32,0.24,2.32,-2.31,-2.33,-2.40,-2.07,-2.07,-2.08
81.35,0.24,2.33,0.24,2.33,-2.32,-2.35,-2.40,-2.08,-2.08,-2.09
82.16,0.24,2.34,0.24,2.34,-2.33,-2.36,-2.41,-2.09,-2.09,-2.10
82.98,0.24,2.35,0.24,2.35,-2.34,-2.38,-2.42,-2.10,-2.10,-2.11
83.81,0.24,2.36,0.24,2.36,-2.35,-2.39,-2.43,-2.11,-2.11,-2.12
84.65,0.24,2.36,0.24,2.37,-2.36,-2.41,-2.44,-2.12,-2.12,-2.12
85.50,0.24,2.37,0.24,2.37,-2.38,-2.43,-2.45,-2.14,-2.14,-2.13
86.35,0.24,2.38,0.23,2.37,-2.40,-2.45,-2.47,-2.16,-2.16,-2.14
87.22,0.24,2.39,0.25,2.40,-2.41,-2.47,-2.49,-2.17,-2.17,-2.15
88.09,0.25,2.41,0.28,2.43,-2.44,-2.49,-2.50,-2.19,-2.16,-2.16
88.97,0.34,2.50,0.31,2.48,-2.47,-2.51,-2.53,-2.13,-2.16,-2.16
89.86,0.34,2.51,0.34,2.51,-2.50,-2.53,-2.55,-2.16,-2.16,-2.17
90.76,0.35,2.53,0.35,2.53,-2.53,-2.55,-2.57,-2.18,-2.17,-2.18
91.66,0.35,2.53,0.37,2.55,-2.56,-2.57,-2.60,-2.21,-2.19,-2.18
92.58,0.40,2.58,0.40,2.59,-2.59,-2.59,-2.63,-2.19,-2.19,-2.18
93.51,0.45,2.64,0.43,2.62,-2.62,-2.61,-2.66,-2.17,-2.19,-2.19
94.44,0.46,2.65,0.45,2.64,-2.65,-2.63,-2.69,-2.19,-2.19,-2.19
95.39,0.45,2.64,0.46,2.65,-2.67,-2.66,-2.72,-2.22,-2.21,-2.19
96.34,0.46,2.65,0.48,2.67,-2.68,-2.68,-2.76,-2.22,-2.20,-2.19
97.30,0.51,2.70,0.51,2.71,-2.69,-2.70,-2.80,-2.18,-2.17,-2.19
98.28,0.56,2.76,0.54,2.74,-2.69,-2.73,-2.84,-2.13,-2.15,-2.20
99.26,0.54,2.74,0.53,2.73,-2.69,-2.75,-2.88,-2.15,-2.16,-2.20
100.25,0.50,2.70,0.50,2.70,-2.70,-2.77,-2.92,-2.20,-2.20,-2.20
101.25,0.45,2.65,0.46,2.67,-2.72,-2.80,-2.96,-2.27,-2.25,-2.20
102.27,0.45,2.66,0.47,2.68,-2.74,-2.82,-3.00,-2.29,-2.27,-2.21
103.29,0.52,2.74,0.51,2.73,-2.78,-2.85,-3.05,-2.26,-2.27,-2.22
104.32,0.59,2.82,0.58,2.81,-2.82,-2.87,-3.09,-2.23,-2.24,-2.23
105.37,0.65,2.88,0.65,2.89,-2.88,-2.90,-3.13,-2.23,-2.22,-2.23
106.42,0.71,2.95,0.72,2.96,-2.93,-2.92,-3.18,-2.22,-2.22,-2.24
107.48,0.78,3.03,0.77,3.02,-2.99,-2.95,-3.22,-2.21,-2.22,-2.25
108.56,0.83,3.09,0.82,3.09,-3.05,-2.97,-3.27,-2.22,-2.23,-2.26
109.64,0.84,3.11,0.86,3.13,-3.10,-3.00,-3.31,-2.26,-2.24,-2.27
110.74,0.89,3.16,0.86,3.14,-3.14,-3.02,-3.35,-2.25,-2.28,-2.27
111.85,0.88,3.15,0.88,3.15,-3.18,-3.05,-3.39,-2.30,-2.30,-2.27
112.97,0.87,3.14,0.92,3.19,-3.21,-3.08,-3.43,-2.34,-2.29,-2.27
114.10,0.98,3.25,0.97,3.24,-3.25,-3.10,-3.47,-2.27,-2.28,-2.27
115.24,1.06,3.32,1.03,3.30,-3.29,-3.13,-3.51,-2.23,-2.26,-2.26
116.39,1.08,3.34,1.09,3.35,-3.34,-3.15,-3.54,-2.26,-2.25,-2.26
117.55,1.13,3.37,1.13,3.38,-3.40,-3.18,-3.57,-2.27,-2.26,-2.24
118.73,1.19,3.42,1.20,3.43,-3.46,-3.21,-3.60,-2.27,-2.26,-2.23
119.92,1.28,3.49,1.30,3.51,-3.52,-3.23,-3.62,-2.24,-2.22,-2.21
121.12,1.42,3.61,1.39,3.58,-3.58,-3.26,-3.64,-2.16,-2.19,-2.19
122.33,1.47,3.64,1.47,3.64,-3.62,-3.28,-3.66,-2.15,-2.16,-2.17
123.55,1.51,3.66,1.54,3.69,-3.66,-3.31,-3.68,-2.15,-2.13,-2.15
124.79,1.59,3.72,1.58,3.71,-3.69,-3.33,-3.69,-2.10,-2.12,-2.13
126.03,1.63,3.74,1.62,3.73,-3.71,-3.36,-3.70,-2.08,-2.10,-2.11
127.29,1.63,3.72,1.64,3.73,-3.72,-3.38,-3.70,-2.09,-2.08,-2.09
128.57,1.64,3.71,1.64,3.71,-3.71,-3.40,-3.70,-2.07,-2.07,-2.07
129.85,1.64,3.69,1.64,3.69,-3.70,-3.43,-3.70,-2.06,-2.06,-2.05
131.15,1.65,3.68,1.65,3.68,-3.69,-3.45,-3.69,-2.04,-2.04,-2.03
132.46,1.65,3.67,1.65,3.67,-3.69,-3.48,-3.68,-2.04,-2.04,-2.02
133.79,1.66,3.66,1.66,3.66,-3.70,-3.50,-3.67,-2.04,-2.04,-2.00
135.12,1.67,3.66,1.69,3.68,-3.71,-3.52,-3.65,-2.04,-2.02,-1.99
136.48,1.74,3.71,1.74,3.71,-3.72,-3.54,-3.64,-1.98,-1.99,-1.97
137.84,1.80,3.76,1.80,3.76,-3.74,-3.56,-3.62,-1.94,-1.95,-1.96
139.22,1.85,3.80,1.84,3.79,-3.76,-3.58,-3.60,-1.91,-1.92,-1.95
140.61,1.87,3.81,1.87,3.81,-3.78,-3.60,-3.57,-1.91,-1.92,-1.94
142.02,1.87,3.80,1.87,3.81,-3.80,-3.62,-3.55,-1.93,-1.93,-1.93
143.44,1.87,3.80,1.87,3.80,-3.82,-3.64,-3.53,-1.95,-1.94,-1.93
144.87,1.87,3.80,1.87,3.80,-3.82,-3.66,-3.50,-1.95,-1.95,-1.93
146.32,1.87,3.80,1.87,3.81,-3.82,-3.68,-3.48,-1.95,-1.95,-1.93
147.78,1.87,3.81,1.87,3.81,-3.82,-3.70,-3.45,-1.95,-1.94,-1.94
149.26,1.87,3.82,1.86,3.82,-3.81,-3.71,-3.43,-1.94,-1.95,-1.95
150.75,1.83,3.80,1.83,3.80,-3.79,-3.73,-3.40,-1.96,-1.97,-1.97
152.26,1.77,3.77,1.77,3.77,-3.77,-3.75,-3.38,-2.00,-1.99,-2.00
153.78,1.69,3.72,1.70,3.73,-3.72,-3.76,-3.36,-2.03,-2.03,-2.03
155.32,1.62,3.69,1.61,3.68,-3.66,-3.77,-3.33,-2.04,-2.05,-2.07
156.88,1.50,3.60,1.51,3.61,-3.58,-3.79,-3.32,-2.08,-2.08,-2.10
158.44,1.40,3.54,1.40,3.54,-3.49,-3.80,-3.30,-2.09,-2.10,-2.14
160.03,1.27,3.44,1.27,3.45,-3.41,-3.81,-3.28,-2.14,-2.13,-2.17
161.63,1.16,3.35,1.13,3.33,-3.33,-3.82,-3.27,-2.17,-2.20,-2.19
163.24,1.00,3.22,1.00,3.22,-3.27,-3.83,-3.25,-2.27,-2.27,-2.22
164.88,0.87,3.10,0.92,3.15,-3.24,-3.84,-3.24,-2.37,-2.32,-2.23
166.53,0.91,3.15,0.90,3.14,-3.22,-3.85,-3.23,-2.31,-2.33,-2.24
168.19,0.97,3.21,0.95,3.19,-3.23,-3.85,-3.23,-2.26,-2.28,-2.24
169.87,1.03,3.26,1.05,3.29,-3.27,-3.86,-3.22,-2.24,-2.21,-2.23
171.57,1.16,3.38,1.15,3.37,-3.32,-3.87,-3.22,-2.16,-2.17,-2.22
173.29,1.25,3.45,1.23,3.43,-3.39,-3.87,-3.22,-2.14,-2.16,-2.20
175.02,1.30,3.47,1.30,3.47,-3.46,-3.87,-3.23,-2.16,-2.16,-2.17
176.77,1.34,3.48,1.36,3.51,-3.52,-3.88,-3.23,-2.18,-2.16,-2.14
178.54,1.43,3.54,1.45,3.56,-3.57,-3.88,-3.24,-2.14,-2.12,-2.11
180.32,1.56,3.63,1.54,3.61,-3.60,-3.88,-3.25,-2.04,-2.06,-2.07
182.13,1.63,3.67,1.62,3.65,-3.62,-3.88,-3.27,-1.99,-2.00,-2.04
183.95,1.65,3.65,1.65,3.66,-3.63,-3.88,-3.28,-1.98,-1.97,-2.00
185.79,1.66,3.64,1.67,3.65,-3.64,-3.88,-3.30,-1.98,-1.97,-1.98
187.65,1.67,3.63,1.67,3.64,-3.65,-3.87,-3.32,-1.98,-1.97,-1.96
189.52,1.69,3.63,1.68,3.62,-3.66,-3.87,-3.35,-1.97,-1.98,-1.94
191.42,1.70,3.63,1.70,3.63,-3.67,-3.86,-3.37,-1.97,-1.97,-1.93
193.33,1.71,3.62,1.74,3.65,-3.68,-3.86,-3.40,-1.97,-1.94,-1.91
195.27,1.80,3.70,1.79,3.69,-3.69,-3.85,-3.43,-1.89,-1.90,-1.90
197.22,1.85,3.75,1.83,3.73,-3.71,-3.84,-3.46,-1.86,-1.88,-1.90
199.19,1.86,3.75,1.86,3.76,-3.73,-3.83,-3.49,-1.87,-1.87,-1.89
201.18,1.86,3.75,1.87,3.76,-3.75,-3.82,-3.53,-1.89,-1.88,-1.89
203.19,1.87,3.76,1.87,3.76,-3.77,-3.81,-3.56,-1.90,-1.90,-1.89
205.23,1.87,3.76,1.87,3.76,-3.77,-3.80,-3.60,-1.90,-1.90,-1.89
207.28,1.87,3.76,1.87,3.76,-3.77,-3.79,-3.63,-1.90,-1.90,-1.89
209.35,1.87,3.76,1.87,3.77,-3.76,-3.78,-3.67,-1.89,-1.89,-1.89
211.44,1.87,3.77,1.87,3.77,-3.75,-3.76,-3.71,-1.88,-1.87,-1.90
213.56,1.86,3.76,1.85,3.75,-3.74,-3.75,-3.75,-1.88,-1.89,-1.90
215.69,1.82,3.73,1.81,3.72,-3.73,-3.73,-3.78,-1.91,-1.92,-1.91
217.85,1.74,3.65,1.77,3.68,-3.72,-3.72,-3.82,-1.98,-1.95,-1.91
220.03,1.74,3.66,1.74,3.66,-3.70,-3.70,-3.85,-1.96,-1.96,-1.92
222.23,1.75,3.67,1.75,3.67,-3.67,-3.68,-3.89,-1.92,-1.92,-1.92
224.45,1.76,3.68,1.77,3.69,-3.64,-3.66,-3.92,-1.88,-1.87,-1.92
226.70,1.77,3.69,1.75,3.67,-3.61,-3.64,-3.95,-1.84,-1.86,-1.92
228.96,1.72,3.64,1.69,3.61,-3.59,-3.63,-3.97,-1.87,-1.90,-1.92
231.25,1.58,3.49,1.62,3.54,-3.56,-3.60,-4.00,-1.98,-1.94,-1.91
233.57,1.55,3.46,1.57,3.48,-3.54,-3.58,-4.02,-1.99,-1.97,-1.91
235.90,1.58,3.48,1.56,3.47,-3.51,-3.56,-4.03,-1.93,-1.95,-1.90
238.26,1.60,3.49,1.59,3.48,-3.49,-3.54,-4.04,-1.89,-1.90,-1.89
240.64,1.62,3.49,1.63,3.50,-3.47,-3.52,-4.05,-1.85,-1.85,-1.87
243.05,1.63,3.49,1.63,3.50,-3.47,-3.50,-4.05,-1.84,-1.83,-1.86
245.48,1.65,3.50,1.62,3.47,-3.46,-3.47,-4.05,-1.81,-1.85,-1.85
247.93,1.59,3.43,1.61,3.45,-3.46,-3.45,-4.04,-1.87,-1.85,-1.84
250.41,1.57,3.40,1.61,3.44,-3.45,-3.43,-4.03,-1.88,-1.84,-1.83
252.92,1.64,3.46,1.61,3.44,-3.44,-3.40,-4.01,-1.80,-1.82,-1.82
255.45,1.64,3.46,1.61,3.43,-3.42,-3.38,-3.99,-1.78,-1.81,-1.82
258.00,1.57,3.39,1.59,3.41,-3.41,-3.36,-3.96,-1.84,-1.82,-1.82
260.58,1.53,3.35,1.55,3.37,-3.39,-3.33,-3.93,-1.86,-1.84,-1.82
263.19,1.54,3.36,1.53,3.35,-3.37,-3.31,-3.89,-1.83,-1.84,-1.82
265.82,1.53,3.35,1.53,3.36,-3.34,-3.28,-3.85,-1.81,-1.81,-1.82
268.48,1.53,3.35,1.52,3.34,-3.31,-3.26,-3.80,-1.78,-1.79,-1.82
271.16,1.49,3.31,1.48,3.30,-3.28,-3.24,-3.75,-1.79,-1.80,-1.82
273.87,1.42,3.24,1.42,3.25,-3.25,-3.21,-3.70,-1.83,-1.82,-1.82
276.61,1.36,3.18,1.37,3.19,-3.22,-3.19,-3.64,-1.86,-1.85,-1.82
279.38,1.33,3.15,1.33,3.15,-3.18,-3.17,-3.58,-1.85,-1.85,-1.82
282.17,1.32,3.13,1.33,3.15,-3.14,-3.14,-3.52,-1.82,-1.81,-1.81
284.99,1.33,3.13,1.32,3.13,-3.11,-3.12,-3.46,-1.78,-1.78,-1.80
287.84,1.34,3.14,1.30,3.09,-3.08,-3.10,-3.39,-1.74,-1.79,-1.80
290.72,1.23,3.02,1.27,3.06,-3.06,-3.09,-3.32,-1.84,-1.80,-1.79
293.63,1.23,3.01,1.25,3.03,-3.05,-3.07,-3.25,-1.82,-1.81,-1.78
296.57,1.26,3.03,1.25,3.02,-3.05,-3.05,-3.18,-1.79,-1.80,-1.77
299.53,1.29,3.06,1.28,3.05,-3.05,-3.04,-3.11,-1.76,-1.77,-1.77
302.53,1.30,3.06,1.30,3.07,-3.06,-3.03,-3.04,-1.76,-1.76,-1.76
305.55,1.31,3.07,1.31,3.07,-3.07,-3.02,-2.97,-1.76,-1.76,-1.76
308.61,1.32,3.08,1.32,3.08,-3.08,-3.01,-2.90,-1.76,-1.77,-1.76
311.69,1.32,3.08,1.32,3.09,-3.09,-3.00,-2.83,-1.77,-1.77,-1.76
314.81,1.33,3.10,1.34,3.11,-3.09,-3.00,-2.76,-1.76,-1.75,-1.77
317.96,1.35,3.12,1.34,3.12,-3.09,-3.00,-2.69,-1.74,-1.75,-1.77
321.14,1.36,3.14,1.32,3.10,-3.09,-3.01,-2.62,-1.73,-1.77,-1.78
324.35,1.26,3.04,1.29,3.07,-3.08,-3.02,-2.55,-1.82,-1.79,-1.78
327.59,1.23,3.02,1.25,3.04,-3.07,-3.02,-2.49,-1.84,-1.82,-1.79
330.87,1.23,3.03,1.22,3.02,-3.05,-3.03,-2.42,-1.82,-1.83,-1.80
334.18,1.22,3.03,1.23,3.04,-3.03,-3.04,-2.36,-1.81,-1.81,-1.81
337.52,1.22,3.04,1.21,3.02,-3.00,-3.04,-2.30,-1.78,-1.79,-1.82
340.90,1.18,3.00,1.17,2.99,-2.97,-3.04,-2.23,-1.79,-1.80,-1.82
344.30,1.10,2.93,1.12,2.96,-2.94,-3.02,-2.17,-1.84,-1.81,-1.83
347.75,1.07,2.92,1.07,2.92,-2.91,-2.99,-2.12,-1.84,-1.84,-1.85
351.23,1.03,2.89,1.01,2.87,-2.89,-2.96,-2.06,-1.86,-1.88,-1.86
354.74,0.97,2.84,0.94,2.82,-2.87,-2.91,-2.00,-1.90,-1.93,-1.87
358.28,0.86,2.74,0.91,2.79,-2.84,-2.85,-1.95,-1.98,-1.93,-1.88
361.87,0.88,2.77,0.92,2.81,-2.82,-2.78,-1.90,-1.94,-1.91,-1.89
365.49,0.99,2.90,0.94,2.85,-2.82,-2.71,-1.85,-1.83,-1.88,-1.91
369.14,0.96,2.88,0.94,2.86,-2.82,-2.64,-1.80,-1.86,-1.88,-1.92
372.83,0.88,2.81,0.87,2.80,-2.82,-2.57,-1.75,-1.94,-1.95,-1.93
376.56,0.75,2.69,0.78,2.72,-2.80,-2.50,-1.71,-2.05,-2.02,-1.94
380.33,0.71,2.66,0.75,2.71,-2.76,-2.43,-1.66,-2.05,-2.00,-1.95
384.13,0.75,2.71,0.77,2.73,-2.68,-2.37,-1.62,-1.93,-1.91,-1.96
387.97,0.78,2.75,0.71,2.68,-2.56,-2.31,-1.58,-1.78,-1.85,-1.97
391.85,0.59,2.57,0.53,2.51,-2.40,-2.25,-1.54,-1.81,-1.87,-1.98
395.77,0.17,2.16,0.25,2.25,-2.19,-2.19,-1.50,-2.02,-1.93,-1.99
399.73,-0.13,1.87,-0.11,1.90,-1.95,-2.14,-1.46,-2.08,-2.06,-2.00
403.72,-0.38,1.63,-0.49,1.53,-1.70,-2.09,-1.42,-2.08,-2.19,-2.01
407.76,-0.85,1.18,-0.80,1.23,-1.47,-2.04,-1.39,-2.32,-2.27,-2.03
411.84,-1.13,0.91,-1.04,1.00,-1.28,-2.00,-1.36,-2.41,-2.33,-2.04
415.96,-1.15,0.90,-1.20,0.85,-1.16,-1.95,-1.32,-2.31,-2.37,-2.05
420.12,-1.15,0.90,-1.20,0.86,-1.10,-1.91,-1.29,-2.25,-2.30,-2.05
424.32,-1.18,0.88,-1.08,0.98,-1.09,-1.87,-1.27,-2.27,-2.17,-2.06
428.56,-0.91,1.15,-0.92,1.14,-1.10,-1.83,-1.24,-2.01,-2.02,-2.06
432.85,-0.66,1.39,-0.71,1.35,-1.14,-1.79,-1.21,-1.80,-1.84,-2.05
437.18,-0.58,1.46,-0.56,1.48,-1.22,-1.75,-1.19,-1.80,-1.78,-2.04
441.55,-0.47,1.55,-0.60,1.43,-1.33,-1.71,-1.16,-1.80,-1.93,-2.02
445.96,-0.68,1.32,-0.62,1.38,-1.48,-1.67,-1.14,-2.16,-2.11,-2.00
450.42,-0.73,1.24,-0.58,1.39,-1.63,-1.63,-1.12,-2.36,-2.21,-1.97
454.93,-0.33,1.60,-0.42,1.51,-1.77,-1.59,-1.10,-2.10,-2.19,-1.93
