frequency,raw,error,smoothed,error_smoothed,equalization,parametric_eq,fixed_band_eq,equalized_raw,equalized_smoothed,target
20.00,-3.61,-2.99,-3.62,-3.00,3.00,2.67,0.70,-0.61,-0.62,-0.62
20.20,-3.58,-2.97,-3.58,-2.96,2.96,2.66,0.72,-0.62,-0.62,-0.62
20.40,-3.54,-2.93,-3.53,-2.92,2.92,2.65,0.75,-0.63,-0.62,-0.62
20.61,-3.48,-2.87,-3.49,-2.87,2.87,2.64,0.77,-0.61,-0.62,-0.62
20.81,-3.43,-2.82,-3.44,-2.83,2.83,2.62,0.79,-0.61,-0.61,-0.61
21.02,-3.39,-2.78,-3.39,-2.78,2.78,2.61,0.82,-0.61,-0.61,-0.61
21.23,-3.35,-2.74,-3.35,-2.74,2.74,2.59,0.84,-0.62,-0.61,-0.61
21.44,-3.30,-2.69,-3.31,-2.70,2.69,2.57,0.86,-0.61,-0.62,-0.61
21.66,-3.26,-2.66,-3.26,-2.65,2.64,2.54,0.89,-0.62,-0.62,-0.61
21.87,-3.21,-2.61,-3.21,-2.60,2.59,2.52,0.92,-0.62,-0.61,-0.61
22.09,-3.15,-2.55,-3.15,-2.55,2.55,2.49,0.94,-0.61,-0.61,-0.61
22.31,-3.09,-2.49,-3.10,-2.49,2.50,2.46,0.97,-0.59,-0.60,-0.60
22.54,-3.04,-2.44,-3.05,-2.45,2.46,2.43,1.00,-0.59,-0.59,-0.60
22.76,-3.01,-2.41,-3.01,-2.40,2.41,2.40,1.03,-0.60,-0.59,-0.60
22.99,-2.96,-2.36,-2.97,-2.37,2.37,2.37,1.06,-0.59,-0.60,-0.60
23.22,-2.93,-2.34,-2.94,-2.34,2.34,2.33,1.09,-0.60,-0.60,-0.60
23.45,-2.90,-2.31,-2.90,-2.31,2.30,2.30,1.12,-0.60,-0.60,-0.60
23.69,-2.87,-2.28,-2.87,-2.27,2.27,2.26,1.16,-0.61,-0.60,-0.60
23.92,-2.83,-2.24,-2.83,-2.24,2.23,2.22,1.19,-0.60,-0.60,-0.59
24.16,-2.78,-2.19,-2.79,-2.20,2.20,2.19,1.22,-0.58,-0.59,-0.59
24.40,-2.75,-2.16,-2.75,-2.16,2.16,2.15,1.26,-0.59,-0.59,-0.59
24.65,-2.72,-2.13,-2.72,-2.13,2.12,2.11,1.29,-0.60,-0.60,-0.59
24.89,-2.67,-2.08,-2.68,-2.09,2.08,2.07,1.32,-0.60,-0.60,-0.59
25.14,-2.63,-2.05,-2.63,-2.04,2.04,2.03,1.36,-0.60,-0.59,-0.59
25.39,-2.57,-1.99,-2.58,-1.99,2.00,1.99,1.39,-0.58,-0.58,-0.59
25.65,-2.52,-1.94,-2.53,-1.95,1.96,1.95,1.43,-0.57,-0.58,-0.59
25.91,-2.50,-1.92,-2.49,-1.91,1.92,1.91,1.46,-0.58,-0.57,-0.58
26.16,-2.46,-1.88,-2.47,-1.89,1.89,1.87,1.49,-0.58,-0.58,-0.58
26.43,-2.43,-1.85,-2.44,-1.86,1.86,1.83,1.53,-0.58,-0.58,-0.58
26.69,-2.42,-1.84,-2.41,-1.83,1.83,1.79,1.56,-0.59,-0.58,-0.58
26.96,-2.37,-1.80,-2.39,-1.81,1.81,1.75,1.59,-0.56,-0.58,-0.58
27.23,-2.37,-1.80,-2.37,-1.79,1.79,1.71,1.62,-0.58,-0.58,-0.58
27.50,-2.33,-1.76,-2.34,-1.77,1.77,1.67,1.65,-0.56,-0.57,-0.58
27.77,-2.33,-1.76,-2.33,-1.75,1.75,1.63,1.68,-0.59,-0.58,-0.57
28.05,-2.29,-1.72,-2.30,-1.73,1.73,1.59,1.71,-0.57,-0.58,-0.57
28.33,-2.28,-1.71,-2.28,-1.70,1.70,1.55,1.74,-0.58,-0.57,-0.57
28.62,-2.24,-1.67,-2.24,-1.67,1.67,1.51,1.76,-0.57,-0.57,-0.57
28.90,-2.20,-1.64,-2.21,-1.65,1.64,1.48,1.78,-0.56,-0.57,-0.57
29.19,-2.18,-1.62,-2.18,-1.61,1.61,1.44,1.80,-0.58,-0.57,-0.57
29.48,-2.14,-1.58,-2.14,-1.57,1.57,1.40,1.82,-0.57,-0.57,-0.57
29.78,-2.09,-1.53,-2.10,-1.53,1.53,1.37,1.84,-0.56,-0.57,-0.56
30.08,-2.05,-1.49,-2.05,-1.49,1.49,1.33,1.85,-0.57,-0.57,-0.56
30.38,-2.00,-1.44,-2.01,-1.44,1.44,1.30,1.86,-0.56,-0.56,-0.56
30.68,-1.96,-1.40,-1.96,-1.40,1.40,1.26,1.87,-0.56,-0.56,-0.56
30.99,-1.91,-1.36,-1.92,-1.36,1.36,1.23,1.87,-0.55,-0.55,-0.56
31.30,-1.87,-1.32,-1.87,-1.32,1.32,1.20,1.87,-0.55,-0.55,-0.56
31.61,-1.83,-1.28,-1.83,-1.28,1.29,1.17,1.87,-0.55,-0.55,-0.56
31.93,-1.80,-1.25,-1.81,-1.25,1.25,1.13,1.87,-0.55,-0.55,-0.55
32.24,-1.77,-1.22,-1.78,-1.23,1.22,1.10,1.86,-0.55,-0.56,-0.55
32.57,-1.76,-1.21,-1.75,-1.20,1.19,1.07,1.85,-0.57,-0.56,-0.55
32.89,-1.72,-1.17,-1.72,-1.17,1.17,1.04,1.84,-0.55,-0.55,-0.55
33.22,-1.68,-1.13,-1.69,-1.14,1.15,1.01,1.83,-0.54,-0.54,-0.55
33.55,-1.65,-1.11,-1.66,-1.12,1.12,0.99,1.81,-0.53,-0.54,-0.55
33.89,-1.64,-1.10,-1.64,-1.10,1.10,0.96,1.79,-0.54,-0.54,-0.55
34.23,-1.64,-1.10,-1.63,-1.08,1.08,0.93,1.77,-0.57,-0.55,-0.55
34.57,-1.59,-1.05,-1.60,-1.06,1.05,0.91,1.75,-0.54,-0.55,-0.54
34.92,-1.57,-1.03,-1.58,-1.03,1.02,0.88,1.72,-0.55,-0.55,-0.54
35.27,-1.54,-1.00,-1.54,-1.00,1.00,0.86,1.70,-0.55,-0.54,-0.54
35.62,-1.51,-0.97,-1.51,-0.97,0.97,0.83,1.67,-0.54,-0.54,-0.54
35.97,-1.46,-0.93,-1.47,-0.93,0.94,0.81,1.64,-0.52,-0.53,-0.54
36.33,-1.43,-0.90,-1.44,-0.90,0.91,0.78,1.61,-0.52,-0.53,-0.54
36.70,-1.42,-0.89,-1.41,-0.88,0.88,0.76,1.59,-0.54,-0.53,-0.54
37.06,-1.38,-0.85,-1.39,-0.86,0.85,0.74,1.55,-0.53,-0.54,-0.53
37.43,-1.36,-0.83,-1.36,-0.83,0.82,0.72,1.52,-0.54,-0.54,-0.53
37.81,-1.33,-0.80,-1.33,-0.80,0.80,0.70,1.49,-0.54,-0.53,-0.53
38.19,-1.30,-0.77,-1.31,-0.78,0.77,0.68,1.46,-0.53,-0.53,-0.53
38.57,-1.27,-0.75,-1.28,-0.75,0.75,0.66,1.43,-0.52,-0.53,-0.53
38.95,-1.25,-0.73,-1.25,-0.72,0.73,0.64,1.40,-0.53,-0.52,-0.53
39.34,-1.22,-0.70,-1.23,-0.70,0.71,0.63,1.37,-0.52,-0.52,-0.53
39.74,-1.20,-0.68,-1.21,-0.68,0.69,0.61,1.34,-0.52,-0.52,-0.52
40.14,-1.20,-0.68,-1.19,-0.67,0.67,0.59,1.31,-0.53,-0.52,-0.52
40.54,-1.16,-0.64,-1.18,-0.66,0.66,0.58,1.28,-0.51,-0.52,-0.52
40.94,-1.16,-0.64,-1.16,-0.64,0.64,0.56,1.25,-0.52,-0.52,-0.52
41.35,-1.15,-0.63,-1.15,-0.63,0.63,0.55,1.22,-0.53,-0.52,-0.52
41.76,-1.12,-0.61,-1.13,-0.62,0.61,0.53,1.20,-0.51,-0.52,-0.52
42.18,-1.12,-0.61,-1.12,-0.60,0.59,0.52,1.17,-0.53,-0.52,-0.52
42.60,-1.09,-0.58,-1.10,-0.58,0.57,0.51,1.14,-0.52,-0.53,-0.51
43.03,-1.07,-0.56,-1.07,-0.56,0.55,0.50,1.12,-0.52,-0.52,-0.51
43.46,-1.04,-0.53,-1.04,-0.53,0.53,0.49,1.09,-0.52,-0.51,-0.51
43.90,-0.99,-0.48,-1.01,-0.50,0.50,0.48,1.07,-0.49,-0.51,-0.51
44.33,-0.99,-0.48,-0.98,-0.47,0.48,0.47,1.05,-0.52,-0.50,-0.51
44.78,-0.94,-0.44,-0.96,-0.45,0.46,0.47,1.02,-0.49,-0.50,-0.51
45.23,-0.94,-0.44,-0.94,-0.44,0.44,0.46,1.00,-0.51,-0.51,-0.51
45.68,-0.94,-0.44,-0.93,-0.42,0.42,0.45,0.98,-0.52,-0.50,-0.51
46.13,-0.90,-0.40,-0.92,-0.41,0.41,0.45,0.96,-0.49,-0.51,-0.50
46.60,-0.90,-0.40,-0.91,-0.40,0.40,0.45,0.95,-0.50,-0.50,-0.50
47.06,-0.90,-0.40,-0.90,-0.40,0.40,0.45,0.93,-0.51,-0.50,-0.50
47.53,-0.90,-0.40,-0.90,-0.40,0.40,0.45,0.91,-0.51,-0.51,-0.50
48.01,-0.90,-0.41,-0.90,-0.40,0.40,0.45,0.89,-0.50,-0.50,-0.50
48.49,-0.90,-0.41,-0.90,-0.41,0.41,0.45,0.88,-0.49,-0.49,-0.50
48.97,-0.90,-0.41,-0.91,-0.42,0.43,0.46,0.86,-0.48,-0.49,-0.50
49.46,-0.93,-0.44,-0.93,-0.44,0.45,0.46,0.85,-0.49,-0.49,-0.49
49.96,-0.96,-0.47,-0.96,-0.47,0.47,0.47,0.83,-0.49,-0.49,-0.49
50.46,-0.99,-0.50,-1.00,-0.51,0.50,0.48,0.82,-0.49,-0.50,-0.49
50.96,-1.03,-0.54,-1.03,-0.54,0.54,0.49,0.81,-0.50,-0.50,-0.49
51.47,-1.07,-0.59,-1.07,-0.58,0.58,0.51,0.80,-0.50,-0.49,-0.49
51.99,-1.10,-0.62,-1.11,-0.62,0.62,0.53,0.78,-0.48,-0.48,-0.49
52.51,-1.14,-0.66,-1.14,-0.66,0.67,0.55,0.77,-0.47,-0.47,-0.49
53.03,-1.18,-0.70,-1.19,-0.71,0.72,0.57,0.76,-0.47,-0.47,-0.48
53.56,-1.24,-0.76,-1.24,-0.76,0.77,0.59,0.75,-0.48,-0.48,-0.48
54.10,-1.30,-0.82,-1.30,-0.81,0.81,0.62,0.74,-0.49,-0.49,-0.48
54.64,-1.34,-0.86,-1.35,-0.87,0.85,0.65,0.73,-0.49,-0.50,-0.48
55.18,-1.38,-0.91,-1.39,-0.91,0.89,0.68,0.72,-0.49,-0.50,-0.48
55.74,-1.42,-0.95,-1.41,-0.93,0.92,0.71,0.71,-0.50,-0.48,-0.48
56.29,-1.42,-0.95,-1.43,-0.95,0.95,0.74,0.70,-0.47,-0.48,-0.48
56.86,-1.42,-0.95,-1.44,-0.97,0.97,0.78,0.69,-0.45,-0.47,-0.47
57.42,-1.46,-0.99,-1.45,-0.98,0.98,0.82,0.68,-0.48,-0.47,-0.47
58.00,-1.46,-0.99,-1.46,-0.99,0.99,0.85,0.67,-0.47,-0.47,-0.47
58.58,-1.46,-0.99,-1.47,-1.00,0.99,0.88,0.66,-0.47,-0.48,-0.47
59.16,-1.46,-0.99,-1.46,-0.99,0.99,0.91,0.65,-0.47,-0.47,-0.47
59.76,-1.46,-1.00,-1.46,-1.00,1.00,0.94,0.63,-0.47,-0.47,-0.47
60.35,-1.46,-1.00,-1.46,-1.00,1.00,0.96,0.62,-0.47,-0.47,-0.47
60.96,-1.46,-1.00,-1.46,-1.00,1.00,0.98,0.61,-0.46,-0.46,-0.47
61.57,-1.46,-1.00,-1.46,-1.00,1.01,0.99,0.60,-0.46,-0.45,-0.46
62.18,-1.46,-1.00,-1.46,-1.00,1.01,0.99,0.58,-0.45,-0.45,-0.46
62.80,-1.46,-1.00,-1.48,-1.02,1.02,0.98,0.57,-0.44,-0.45,-0.46
63.43,-1.50,-1.04,-1.49,-1.03,1.04,0.96,0.55,-0.47,-0.46,-0.46
64.07,-1.51,-1.06,-1.51,-1.05,1.05,0.94,0.54,-0.46,-0.46,-0.46
64.71,-1.51,-1.06,-1.52,-1.06,1.06,0.91,0.52,-0.45,-0.45,-0.46
65.35,-1.51,-1.06,-1.52,-1.07,1.07,0.87,0.51,-0.44,-0.45,-0.46
66.01,-1.53,-1.08,-1.53,-1.07,1.08,0.82,0.49,-0.46,-0.45,-0.45
66.67,-1.53,-1.08,-1.53,-1.08,1.07,0.77,0.47,-0.46,-0.46,-0.45
67.33,-1.51,-1.06,-1.52,-1.07,1.05,0.72,0.46,-0.47,-0.47,-0.45
68.01,-1.49,-1.04,-1.48,-1.03,1.01,0.67,0.44,-0.48,-0.47,-0.45
68.69,-1.42,-0.98,-1.43,-0.98,0.96,0.61,0.42,-0.46,-0.46,-0.45
69.37,-1.36,-0.92,-1.36,-0.91,0.90,0.55,0.40,-0.46,-0.45,-0.45
70.07,-1.26,-0.82,-1.27,-0.83,0.83,0.50,0.38,-0.43,-0.44,-0.45
70.77,-1.18,-0.74,-1.19,-0.74,0.75,0.44,0.36,-0.44,-0.44,-0.44
71.48,-1.10,-0.66,-1.09,-0.65,0.66,0.39,0.34,-0.45,-0.43,-0.44
72.19,-0.99,-0.55,-1.00,-0.56,0.57,0.34,0.32,-0.43,-0.44,-0.44
72.91,-0.90,-0.46,-0.91,-0.47,0.47,0.29,0.30,-0.43,-0.44,-0.44
73.64,-0.83,-0.39,-0.82,-0.38,0.38,0.24,0.28,-0.45,-0.44,-0.44
74.38,-0.73,-0.30,-0.74,-0.30,0.29,0.20,0.26,-0.44,-0.45,-0.44
75.12,-0.65,-0.22,-0.65,-0.22,0.21,0.16,0.23,-0.44,-0.44,-0.44
75.87,-0.57,-0.14,-0.57,-0.13,0.14,0.12,0.21,-0.43,-0.43,-0.43
76.63,-0.49,-0.06,-0.49,-0.06,0.08,0.08,0.19,-0.41,-0.41,-0.43
77.40,-0.42,0.01,-0.43,0.00,0.03,0.04,0.17,-0.39,-0.40,-0.43
78.17,-0.38,0.05,-0.39,0.04,-0.01,0.01,0.15,-0.39,-0.40,-0.43
78.95,-0.38,0.05,-0.38,0.05,-0.05,-0.03,0.12,-0.43,-0.43,-0.43
79.74,-0.38,0.04,-0.38,0.05,-0.08,-0.06,0.10,-0.46,-0.45,-0.43
80.54,-0.36,0.06,-0.36,0.07,-0.11,-0.09,0.08,-0.47,-0.46,-0.43
81.35,-0.31,0.11,-0.31,0.11,-0.14,-0.11,0.06,-0.45,-0.45,-0.43
82.16,-0.26,0.16,-0.26,0.16,-0.16,-0.14,0.03,-0.43,-0.43,-0.42
82.98,-0.20,0.22,-0.21,0.21,-0.20,-0.16,0.01,-0.40,-0.41,-0.42
83.81,-0.17,0.25,-0.17,0.25,-0.23,-0.19,-0.01,-0.41,-0.41,-0.42
84.65,-0.14,0.28,-0.14,0.28,-0.27,-0.21,-0.04,-0.41,-0.41,-0.42
85.50,-0.11,0.30,-0.11,0.31,-0.30,-0.23,-0.06,-0.42,-0.42,-0.42
86.35,-0.08,0.33,-0.09,0.33,-0.34,-0.25,-0.08,-0.42,-0.42,-0.42
87.22,-0.05,0.36,-0.05,0.36,-0.36,-0.27,-0.11,-0.42,-0.42,-0.42
88.09,-0.03,0.38,-0.03,0.38,-0.39,-0.29,-0.13,-0.42,-0.42,-0.41
88.97,0.01,0.42,-0.01,0.41,-0.41,-0.31,-0.15,-0.40,-0.42,-0.41
89.86,0.01,0.42,0.02,0.43,-0.43,-0.33,-0.18,-0.43,-0.42,-0.41
90.76,0.05,0.46,0.04,0.45,-0.46,-0.34,-0.20,-0.41,-0.41,-0.41
91.66,0.07,0.47,0.06,0.47,-0.48,-0.36,-0.23,-0.41,-0.41,-0.41
92.58,0.10,0.50,0.09,0.50,-0.49,-0.37,-0.25,-0.40,-0.40,-0.41
93.51,0.10,0.50,0.11,0.52,-0.51,-0.39,-0.28,-0.41,-0.40,-0.41
94.44,0.14,0.54,0.13,0.53,-0.52,-0.40,-0.30,-0.38,-0.39,-0.40
95.39,0.14,0.54,0.13,0.54,-0.53,-0.42,-0.33,-0.39,-0.40,-0.40
96.34,0.14,0.54,0.14,0.54,-0.54,-0.43,-0.35,-0.40,-0.40,-0.40
97.30,0.14,0.54,0.13,0.53,-0.54,-0.44,-0.37,-0.41,-0.41,-0.40
98.28,0.14,0.54,0.14,0.54,-0.55,-0.45,-0.40,-0.41,-0.41,-0.40
99.26,0.14,0.53,0.15,0.55,-0.55,-0.47,-0.42,-0.42,-0.40,-0.40
100.25,0.18,0.57,0.16,0.56,-0.56,-0.48,-0.45,-0.38,-0.40,-0.40
101.25,0.18,0.57,0.17,0.57,-0.57,-0.49,-0.47,-0.39,-0.40,-0.39
102.27,0.18,0.57,0.19,0.58,-0.58,-0.50,-0.50,-0.40,-0.39,-0.39
103.29,0.20,0.59,0.20,0.59,-0.59,-0.51,-0.52,-0.39,-0.39,-0.39
104.32,0.23,0.62,0.21,0.60,-0.60,-0.52,-0.55,-0.38,-0.39,-0.39
105.37,0.23,0.62,0.23,0.62,-0.62,-0.53,-0.57,-0.39,-0.39,-0.39
106.42,0.23,0.61,0.24,0.63,-0.63,-0.54,-0.59,-0.40,-0.39,-0.39
107.48,0.27,0.65,0.25,0.64,-0.64,-0.55,-0.62,-0.37,-0.39,-0.39
108.56,0.27,0.65,0.27,0.65,-0.65,-0.56,-0.64,-0.38,-0.38,-0.39
109.64,0.27,0.65,0.28,0.67,-0.66,-0.56,-0.66,-0.39,-0.38,-0.38
110.74,0.31,0.69,0.29,0.68,-0.67,-0.57,-0.68,-0.37,-0.38,-0.38
111.85,0.31,0.69,0.30,0.68,-0.68,-0.58,-0.70,-0.38,-0.38,-0.38
112.97,0.31,0.69,0.31,0.69,-0.69,-0.59,-0.72,-0.39,-0.38,-0.38
114.10,0.31,0.68,0.31,0.69,-0.70,-0.60,-0.74,-0.40,-0.39,-0.38
115.24,0.33,0.70,0.33,0.71,-0.71,-0.60,-0.76,-0.39,-0.38,-0.38
116.39,0.36,0.73,0.35,0.72,-0.72,-0.61,-0.77,-0.36,-0.37,-0.38
117.55,0.36,0.73,0.36,0.73,-0.72,-0.62,-0.79,-0.37,-0.37,-0.37
118.73,0.36,0.73,0.36,0.73,-0.73,-0.62,-0.80,-0.37,-0.37,-0.37
119.92,0.36,0.73,0.36,0.73,-0.72,-0.63,-0.82,-0.37,-0.36,-0.37
121.12,0.36,0.73,0.35,0.72,-0.72,-0.64,-0.83,-0.36,-0.36,-0.37
122.33,0.36,0.72,0.34,0.71,-0.70,-0.64,-0.84,-0.35,-0.37,-0.37
123.55,0.31,0.67,0.32,0.69,-0.69,-0.65,-0.85,-0.38,-0.37,-0.37
124.79,0.31,0.67,0.31,0.68,-0.68,-0.65,-0.86,-0.37,-0.37,-0.37
126.03,0.31,0.67,0.29,0.66,-0.67,-0.66,-0.86,-0.36,-0.37,-0.36
127.29,0.29,0.65,0.28,0.65,-0.66,-0.67,-0.87,-0.37,-0.38,-0.36
128.57,0.27,0.63,0.28,0.64,-0.65,-0.67,-0.87,-0.39,-0.38,-0.36
129.85,0.27,0.63,0.28,0.64,-0.65,-0.68,-0.87,-0.38,-0.37,-0.36
131.15,0.31,0.67,0.29,0.65,-0.64,-0.68,-0.87,-0.34,-0.35,-0.36
132.46,0.31,0.66,0.31,0.67,-0.64,-0.69,-0.87,-0.34,-0.33,-0.36
133.79,0.31,0.66,0.31,0.66,-0.64,-0.69,-0.87,-0.33,-0.33,-0.36
135.12,0.31,0.66,0.29,0.64,-0.64,-0.70,-0.87,-0.34,-0.35,-0.35
136.48,0.27,0.62,0.28,0.63,-0.65,-0.70,-0.86,-0.38,-0.36,-0.35
137.84,0.27,0.62,0.28,0.63,-0.65,-0.70,-0.86,-0.38,-0.37,-0.35
139.22,0.31,0.66,0.29,0.64,-0.66,-0.71,-0.85,-0.35,-0.37,-0.35
140.61,0.31,0.66,0.31,0.66,-0.67,-0.71,-0.85,-0.36,-0.35,-0.35
142.02,0.34,0.68,0.33,0.68,-0.68,-0.72,-0.84,-0.34,-0.34,-0.35
143.44,0.36,0.70,0.35,0.70,-0.70,-0.72,-0.83,-0.34,-0.34,-0.35
144.87,0.37,0.71,0.37,0.72,-0.72,-0.72,-0.83,-0.35,-0.34,-0.35
146.32,0.40,0.74,0.39,0.73,-0.73,-0.73,-0.82,-0.34,-0.34,-0.34
147.78,0.40,0.74,0.41,0.75,-0.75,-0.73,-0.81,-0.35,-0.34,-0.34
149.26,0.44,0.78,0.43,0.77,-0.76,-0.73,-0.80,-0.32,-0.33,-0.34
150.75,0.44,0.78,0.43,0.77,-0.77,-0.74,-0.79,-0.33,-0.33,-0.34
152.26,0.44,0.77,0.44,0.78,-0.77,-0.74,-0.78,-0.33,-0.33,-0.34
153.78,0.44,0.77,0.44,0.77,-0.77,-0.74,-0.78,-0.34,-0.34,-0.34
155.32,0.44,0.77,0.44,0.77,-0.78,-0.75,-0.77,-0.34,-0.34,-0.34
156.88,0.44,0.77,0.43,0.77,-0.78,-0.75,-0.76,-0.34,-0.34,-0.33
158.44,0.44,0.77,0.44,0.77,-0.78,-0.75,-0.75,-0.34,-0.34,-0.33
160.03,0.45,0.78,0.45,0.78,-0.78,-0.75,-0.74,-0.34,-0.33,-0.33
161.63,0.47,0.80,0.46,0.79,-0.79,-0.76,-0.74,-0.32,-0.33,-0.33
163.24,0.47,0.79,0.47,0.79,-0.79,-0.76,-0.73,-0.32,-0.32,-0.33
164.88,0.47,0.79,0.47,0.80,-0.79,-0.76,-0.72,-0.33,-0.32,-0.33
166.53,0.47,0.79,0.47,0.79,-0.79,-0.76,-0.72,-0.32,-0.32,-0.33
168.19,0.47,0.79,0.47,0.79,-0.79,-0.76,-0.71,-0.32,-0.32,-0.32
169.87,0.47,0.79,0.46,0.79,-0.78,-0.76,-0.71,-0.31,-0.32,-0.32
171.57,0.47,0.79,0.46,0.78,-0.77,-0.77,-0.70,-0.31,-0.32,-0.32
173.29,0.44,0.76,0.45,0.77,-0.77,-0.77,-0.70,-0.33,-0.33,-0.32
175.02,0.44,0.76,0.44,0.76,-0.77,-0.77,-0.70,-0.33,-0.33,-0.32
176.77,0.44,0.75,0.44,0.75,-0.77,-0.77,-0.69,-0.33,-0.34,-0.32
178.54,0.45,0.76,0.45,0.77,-0.77,-0.77,-0.69,-0.33,-0.32,-0.32
180.32,0.47,0.78,0.47,0.78,-0.78,-0.77,-0.69,-0.31,-0.31,-0.31
182.13,0.49,0.80,0.48,0.79,-0.78,-0.77,-0.69,-0.30,-0.30,-0.31
183.95,0.49,0.80,0.49,0.80,-0.79,-0.77,-0.69,-0.30,-0.30,-0.31
185.79,0.49,0.80,0.49,0.80,-0.79,-0.78,-0.69,-0.31,-0.30,-0.31
187.65,0.49,0.80,0.49,0.80,-0.80,-0.78,-0.69,-0.31,-0.31,-0.31
189.52,0.49,0.79,0.49,0.79,-0.80,-0.78,-0.69,-0.31,-0.31,-0.31
191.42,0.49,0.79,0.49,0.79,-0.80,-0.78,-0.69,-0.31,-0.31,-0.31
193.33,0.49,0.79,0.48,0.79,-0.80,-0.78,-0.70,-0.31,-0.31,-0.31
195.27,0.49,0.79,0.49,0.79,-0.80,-0.78,-0.70,-0.31,-0.31,-0.30
197.22,0.49,0.79,0.49,0.80,-0.80,-0.78,-0.70,-0.31,-0.30,-0.30
199.19,0.51,0.81,0.50,0.80,-0.79,-0.78,-0.71,-0.29,-0.29,-0.30
201.18,0.51,0.81,0.50,0.80,-0.79,-0.78,-0.71,-0.29,-0.29,-0.30
203.19,0.50,0.79,0.50,0.80,-0.79,-0.78,-0.71,-0.30,-0.29,-0.30
205.23,0.49,0.78,0.49,0.79,-0.79,-0.78,-0.72,-0.30,-0.30,-0.30
207.28,0.49,0.78,0.49,0.78,-0.79,-0.78,-0.72,-0.30,-0.30,-0.30
209.35,0.49,0.78,0.49,0.78,-0.79,-0.78,-0.73,-0.30,-0.30,-0.29
211.44,0.49,0.78,0.49,0.78,-0.78,-0.78,-0.73,-0.30,-0.30,-0.29
213.56,0.49,0.78,0.49,0.78,-0.78,-0.78,-0.74,-0.29,-0.29,-0.29
215.69,0.49,0.78,0.49,0.78,-0.78,-0.77,-0.74,-0.29,-0.29,-0.29
217.85,0.49,0.77,0.49,0.78,-0.77,-0.77,-0.75,-0.28,-0.28,-0.29
220.03,0.49,0.77,0.49,0.77,-0.76,-0.77,-0.75,-0.28,-0.28,-0.29
222.23,0.49,0.77,0.48,0.77,-0.76,-0.77,-0.76,-0.27,-0.28,-0.29
224.45,0.47,0.75,0.47,0.75,-0.75,-0.77,-0.76,-0.28,-0.28,-0.28
226.70,0.45,0.73,0.45,0.73,-0.74,-0.77,-0.77,-0.29,-0.29,-0.28
228.96,0.44,0.72,0.44,0.72,-0.73,-0.77,-0.77,-0.30,-0.29,-0.28
231.25,0.44,0.72,0.43,0.71,-0.73,-0.77,-0.77,-0.29,-0.29,-0.28
233.57,0.44,0.72,0.44,0.71,-0.72,-0.77,-0.78,-0.29,-0.29,-0.28
235.90,0.44,0.71,0.44,0.72,-0.72,-0.76,-0.78,-0.28,-0.28,-0.28
238.26,0.45,0.72,0.44,0.72,-0.71,-0.76,-0.78,-0.27,-0.27,-0.28
240.64,0.45,0.72,0.45,0.72,-0.71,-0.76,-0.78,-0.26,-0.26,-0.27
243.05,0.44,0.71,0.44,0.71,-0.70,-0.76,-0.78,-0.27,-0.26,-0.27
245.48,0.44,0.71,0.42,0.70,-0.69,-0.76,-0.78,-0.25,-0.27,-0.27
247.93,0.40,0.67,0.41,0.68,-0.68,-0.75,-0.78,-0.28,-0.27,-0.27
250.41,0.40,0.67,0.40,0.67,-0.66,-0.75,-0.78,-0.27,-0.27,-0.27
252.92,0.40,0.66,0.38,0.65,-0.65,-0.75,-0.78,-0.26,-0.27,-0.27
255.45,0.36,0.62,0.37,0.63,-0.64,-0.75,-0.77,-0.29,-0.28,-0.27
258.00,0.36,0.62,0.36,0.62,-0.64,-0.75,-0.77,-0.28,-0.28,-0.27
260.58,0.36,0.62,0.36,0.62,-0.63,-0.74,-0.76,-0.28,-0.28,-0.26
263.19,0.38,0.64,0.37,0.63,-0.63,-0.74,-0.76,-0.26,-0.26,-0.26
265.82,0.38,0.64,0.38,0.64,-0.64,-0.74,-0.75,-0.26,-0.26,-0.26
268.48,0.40,0.66,0.39,0.65,-0.64,-0.74,-0.74,-0.25,-0.25,-0.26
271.16,0.40,0.65,0.40,0.65,-0.65,-0.73,-0.74,-0.25,-0.25,-0.26
273.87,0.40,0.65,0.40,0.66,-0.65,-0.73,-0.73,-0.25,-0.25,-0.26
276.61,0.40,0.65,0.40,0.65,-0.65,-0.73,-0.72,-0.26,-0.26,-0.26
279.38,0.40,0.65,0.40,0.65,-0.65,-0.72,-0.71,-0.26,-0.26,-0.25
282.17,0.40,0.65,0.40,0.65,-0.65,-0.72,-0.70,-0.26,-0.26,-0.25
284.99,0.40,0.65,0.40,0.65,-0.65,-0.72,-0.69,-0.25,-0.25,-0.25
287.84,0.40,0.65,0.40,0.65,-0.65,-0.71,-0.68,-0.25,-0.25,-0.25
290.72,0.40,0.64,0.40,0.64,-0.64,-0.71,-0.67,-0.25,-0.25,-0.25
293.63,0.40,0.64,0.40,0.64,-0.64,-0.71,-0.66,-0.24,-0.24,-0.25
296.57,0.40,0.64,0.40,0.64,-0.64,-0.70,-0.65,-0.25,-0.25,-0.25
299.53,0.40,0.64,0.40,0.64,-0.64,-0.70,-0.64,-0.25,-0.25,-0.24
302.53,0.40,0.64,0.39,0.64,-0.65,-0.70,-0.63,-0.25,-0.26,-0.24
305.55,0.40,0.64,0.40,0.64,-0.65,-0.69,-0.62,-0.26,-0.25,-0.24
308.61,0.40,0.64,0.41,0.65,-0.66,-0.69,-0.61,-0.26,-0.25,-0.24
311.69,0.44,0.68,0.43,0.66,-0.66,-0.68,-0.60,-0.22,-0.23,-0.24
314.81,0.44,0.67,0.43,0.67,-0.66,-0.68,-0.59,-0.22,-0.22,-0.24
317.96,0.44,0.67,0.43,0.67,-0.65,-0.68,-0.59,-0.22,-0.22,-0.24
321.14,0.41,0.64,0.42,0.65,-0.65,-0.67,-0.58,-0.24,-0.23,-0.24
324.35,0.40,0.63,0.40,0.63,-0.64,-0.67,-0.57,-0.24,-0.24,-0.23
327.59,0.40,0.63,0.38,0.61,-0.62,-0.66,-0.56,-0.22,-0.24,-0.23
330.87,0.36,0.59,0.37,0.60,-0.60,-0.66,-0.55,-0.25,-0.23,-0.23
334.18,0.36,0.59,0.36,0.59,-0.58,-0.65,-0.54,-0.23,-0.23,-0.23
337.52,0.36,0.58,0.34,0.56,-0.57,-0.65,-0.54,-0.21,-0.23,-0.23
340.90,0.31,0.53,0.32,0.55,-0.55,-0.65,-0.53,-0.25,-0.23,-0.23
344.30,0.31,0.53,0.31,0.53,-0.54,-0.64,-0.52,-0.24,-0.23,-0.23
347.75,0.31,0.53,0.30,0.53,-0.53,-0.64,-0.52,-0.23,-0.23,-0.22
351.23,0.31,0.53,0.31,0.53,-0.53,-0.63,-0.51,-0.22,-0.22,-0.22
354.74,0.31,0.53,0.31,0.53,-0.52,-0.63,-0.51,-0.22,-0.22,-0.22
358.28,0.31,0.53,0.31,0.53,-0.52,-0.62,-0.50,-0.22,-0.22,-0.22
361.87,0.31,0.52,0.31,0.52,-0.52,-0.62,-0.50,-0.22,-0.22,-0.22
365.49,0.31,0.52,0.31,0.52,-0.52,-0.61,-0.49,-0.22,-0.22,-0.22
369.14,0.31,0.52,0.31,0.52,-0.52,-0.61,-0.49,-0.22,-0.22,-0.22
372.83,0.31,0.52,0.31,0.52,-0.52,-0.60,-0.49,-0.22,-0.22,-0.21
376.56,0.31,0.52,0.31,0.52,-0.52,-0.60,-0.49,-0.22,-0.22,-0.21
380.33,0.31,0.52,0.31,0.52,-0.52,-0.59,-0.48,-0.21,-0.21,-0.21
384.13,0.31,0.52,0.31,0.52,-0.52,-0.58,-0.48,-0.21,-0.21,-0.21
387.97,0.31,0.52,0.31,0.52,-0.51,-0.58,-0.48,-0.21,-0.21,-0.21
391.85,0.31,0.51,0.31,0.52,-0.51,-0.57,-0.48,-0.20,-0.20,-0.21
395.77,0.31,0.51,0.30,0.51,-0.50,-0.57,-0.48,-0.19,-0.20,-0.21
399.73,0.31,0.51,0.29,0.50,-0.49,-0.56,-0.48,-0.19,-0.20,-0.20
403.72,0.27,0.47,0.28,0.48,-0.49,-0.56,-0.48,-0.22,-0.21,-0.20
407.76,0.27,0.47,0.27,0.47,-0.48,-0.55,-0.48,-0.21,-0.21,-0.20
411.84,0.27,0.47,0.26,0.46,-0.47,-0.55,-0.48,-0.21,-0.21,-0.20
415.96,0.27,0.47,0.27,0.47,-0.47,-0.54,-0.48,-0.20,-0.20,-0.20
420.12,0.27,0.46,0.27,0.46,-0.46,-0.53,-0.48,-0.20,-0.20,-0.20
424.32,0.27,0.46,0.27,0.46,-0.46,-0.53,-0.48,-0.19,-0.19,-0.20
428.56,0.27,0.46,0.27,0.46,-0.46,-0.52,-0.48,-0.19,-0.19,-0.20
432.85,0.27,0.46,0.26,0.46,-0.45,-0.51,-0.48,-0.18,-0.19,-0.19
437.18,0.26,0.45,0.26,0.45,-0.45,-0.51,-0.48,-0.19,-0.19,-0.19
441.55,0.25,0.44,0.25,0.44,-0.44,-0.50,-0.48,-0.19,-0.19,-0.19
445.96,0.25,0.44,0.24,0.43,-0.43,-0.50,-0.48,-0.19,-0.19,-0.19
450.42,0.23,0.41,0.23,0.42,-0.42,-0.49,-0.48,-0.20,-0.19,-0.19
454.93,0.23,0.41,0.23,0.41,-0.42,-0.48,-0.48,-0.19,-0.19,-0.19
