frequency,raw,error,smoothed,error_smoothed,equalization,parametric_eq,fixed_band_eq,equalized_raw,equalized_smoothed,target
20.00,-5.99,-4.66,-6.00,-4.67,4.70,1.40,0.53,-1.29,-1.30,-1.33
20.20,-5.90,-4.60,-5.91,-4.61,4.61,1.39,0.54,-1.29,-1.29,-1.30
20.40,-5.84,-4.57,-5.81,-4.54,4.52,1.38,0.56,-1.31,-1.29,-1.27
20.61,-5.70,-4.45,-5.70,-4.46,4.43,1.37,0.58,-1.27,-1.27,-1.25
20.81,-5.57,-4.35,-5.58,-4.36,4.34,1.36,0.60,-1.23,-1.24,-1.22
21.02,-5.44,-4.25,-5.45,-4.25,4.24,1.35,0.62,-1.20,-1.21,-1.19
21.23,-5.33,-4.15,-5.33,-4.15,4.14,1.34,0.64,-1.19,-1.19,-1.18
21.44,-5.22,-4.05,-5.21,-4.04,4.04,1.33,0.66,-1.18,-1.17,-1.17
21.66,-5.09,-3.93,-5.09,-3.93,3.93,1.32,0.68,-1.17,-1.16,-1.16
21.87,-4.96,-3.80,-4.97,-3.81,3.81,1.31,0.70,-1.14,-1.15,-1.16
22.09,-4.85,-3.70,-4.85,-3.69,3.70,1.30,0.72,-1.15,-1.14,-1.15
22.31,-4.74,-3.59,-4.74,-3.59,3.60,1.29,0.74,-1.14,-1.14,-1.15
22.54,-4.63,-3.48,-4.64,-3.49,3.49,1.28,0.76,-1.14,-1.15,-1.15
22.76,-4.55,-3.40,-4.54,-3.38,3.39,1.27,0.79,-1.16,-1.15,-1.15
22.99,-4.44,-3.28,-4.44,-3.28,3.28,1.25,0.81,-1.16,-1.15,-1.16
23.22,-4.33,-3.17,-4.34,-3.18,3.18,1.24,0.83,-1.15,-1.17,-1.16
23.45,-4.24,-3.08,-4.24,-3.08,3.07,1.23,0.86,-1.17,-1.17,-1.16
23.69,-4.16,-3.00,-4.14,-2.98,2.96,1.22,0.88,-1.20,-1.18,-1.17
23.92,-4.02,-2.85,-4.03,-2.87,2.85,1.21,0.91,-1.17,-1.18,-1.17
24.16,-3.91,-2.75,-3.91,-2.75,2.74,1.19,0.94,-1.17,-1.17,-1.16
24.40,-3.78,-2.62,-3.78,-2.62,2.62,1.18,0.96,-1.16,-1.16,-1.16
24.65,-3.66,-2.49,-3.66,-2.50,2.50,1.17,0.99,-1.16,-1.16,-1.17
24.89,-3.54,-2.37,-3.55,-2.38,2.39,1.15,1.02,-1.15,-1.16,-1.17
25.14,-3.46,-2.29,-3.45,-2.28,2.29,1.14,1.04,-1.17,-1.16,-1.17
25.39,-3.35,-2.18,-3.35,-2.18,2.19,1.12,1.07,-1.16,-1.16,-1.17
25.65,-3.26,-2.09,-3.27,-2.09,2.10,1.11,1.10,-1.16,-1.17,-1.17
25.91,-3.19,-2.01,-3.19,-2.01,2.02,1.10,1.12,-1.17,-1.17,-1.18
26.16,-3.13,-1.95,-3.13,-1.95,1.95,1.08,1.15,-1.18,-1.18,-1.18
26.43,-3.07,-1.89,-3.07,-1.89,1.88,1.07,1.18,-1.19,-1.19,-1.18
26.69,-3.01,-1.83,-3.01,-1.83,1.82,1.05,1.20,-1.19,-1.18,-1.18
26.96,-2.95,-1.77,-2.95,-1.77,1.77,1.04,1.23,-1.18,-1.18,-1.18
27.23,-2.89,-1.71,-2.90,-1.72,1.72,1.02,1.25,-1.17,-1.18,-1.18
27.50,-2.86,-1.68,-2.85,-1.66,1.67,1.00,1.27,-1.19,-1.18,-1.19
27.77,-2.80,-1.60,-2.80,-1.61,1.62,0.99,1.30,-1.18,-1.18,-1.20
28.05,-2.75,-1.55,-2.76,-1.56,1.57,0.97,1.32,-1.18,-1.19,-1.20
28.33,-2.72,-1.51,-2.71,-1.51,1.51,0.95,1.33,-1.21,-1.21,-1.21
28.62,-2.66,-1.45,-2.67,-1.46,1.44,0.94,1.35,-1.22,-1.23,-1.21
28.90,-2.61,-1.40,-2.60,-1.39,1.36,0.92,1.37,-1.25,-1.24,-1.21
29.19,-2.52,-1.30,-2.51,-1.30,1.28,0.90,1.38,-1.24,-1.24,-1.22
29.48,-2.39,-1.18,-2.41,-1.19,1.18,0.88,1.39,-1.21,-1.23,-1.21
29.78,-2.30,-1.08,-2.29,-1.07,1.07,0.86,1.40,-1.23,-1.22,-1.22
30.08,-2.17,-0.95,-2.18,-0.95,0.96,0.84,1.41,-1.22,-1.22,-1.22
30.38,-2.06,-0.83,-2.06,-0.83,0.84,0.82,1.41,-1.23,-1.23,-1.24
30.68,-1.95,-0.71,-1.95,-0.71,0.71,0.80,1.41,-1.24,-1.24,-1.24
30.99,-1.84,-0.59,-1.84,-0.60,0.60,0.78,1.41,-1.25,-1.25,-1.25
31.30,-1.74,-0.49,-1.74,-0.49,0.49,0.76,1.40,-1.26,-1.25,-1.25
31.61,-1.63,-0.38,-1.63,-0.38,0.38,0.74,1.40,-1.25,-1.25,-1.25
31.93,-1.54,-0.28,-1.54,-0.28,0.29,0.72,1.39,-1.25,-1.25,-1.26
32.24,-1.45,-0.18,-1.46,-0.19,0.21,0.70,1.38,-1.24,-1.25,-1.27
32.57,-1.40,-0.13,-1.40,-0.12,0.13,0.68,1.36,-1.27,-1.27,-1.28
32.89,-1.34,-0.06,-1.35,-0.07,0.06,0.65,1.35,-1.28,-1.28,-1.28
33.22,-1.31,-0.02,-1.30,-0.01,0.01,0.63,1.33,-1.30,-1.29,-1.29
33.55,-1.26,0.03,-1.26,0.04,-0.04,0.60,1.30,-1.30,-1.30,-1.29
33.89,-1.20,0.10,-1.21,0.09,-0.09,0.58,1.28,-1.29,-1.30,-1.30
34.23,-1.19,0.11,-1.18,0.13,-0.12,0.55,1.25,-1.31,-1.30,-1.30
34.57,-1.14,0.18,-1.15,0.16,-0.16,0.53,1.22,-1.30,-1.31,-1.32
34.92,-1.14,0.19,-1.14,0.19,-0.19,0.50,1.20,-1.33,-1.33,-1.33
35.27,-1.12,0.21,-1.12,0.22,-0.22,0.48,1.16,-1.34,-1.34,-1.33
35.62,-1.10,0.24,-1.09,0.25,-0.25,0.45,1.13,-1.35,-1.35,-1.34
35.97,-1.06,0.30,-1.07,0.28,-0.28,0.42,1.10,-1.34,-1.36,-1.36
36.33,-1.05,0.31,-1.05,0.31,-0.31,0.39,1.06,-1.36,-1.37,-1.36
36.70,-1.05,0.32,-1.03,0.34,-0.34,0.36,1.02,-1.39,-1.38,-1.37
37.06,-1.00,0.38,-1.01,0.37,-0.37,0.33,0.99,-1.37,-1.38,-1.38
37.43,-0.98,0.41,-0.98,0.41,-0.40,0.30,0.95,-1.38,-1.38,-1.39
37.81,-0.96,0.44,-0.97,0.43,-0.43,0.27,0.91,-1.39,-1.39,-1.40
38.19,-0.96,0.45,-0.96,0.45,-0.45,0.24,0.87,-1.41,-1.40,-1.41
38.57,-0.96,0.45,-0.95,0.47,-0.47,0.21,0.83,-1.43,-1.42,-1.41
38.95,-0.93,0.50,-0.95,0.48,-0.48,0.17,0.79,-1.41,-1.43,-1.43
39.34,-0.96,0.48,-0.95,0.49,-0.49,0.14,0.75,-1.45,-1.44,-1.44
39.74,-0.96,0.49,-0.96,0.50,-0.49,0.11,0.71,-1.46,-1.45,-1.45
40.14,-0.96,0.50,-0.97,0.49,-0.50,0.07,0.67,-1.46,-1.47,-1.46
40.54,-0.98,0.49,-0.98,0.49,-0.50,0.04,0.63,-1.48,-1.48,-1.47
40.94,-1.00,0.47,-0.99,0.49,-0.49,0.00,0.59,-1.49,-1.48,-1.48
41.35,-1.00,0.49,-1.00,0.48,-0.48,-0.04,0.55,-1.48,-1.48,-1.49
41.76,-1.00,0.49,-1.02,0.48,-0.46,-0.07,0.51,-1.46,-1.48,-1.49
42.18,-1.05,0.45,-1.04,0.46,-0.44,-0.11,0.47,-1.49,-1.48,-1.50
42.60,-1.07,0.44,-1.08,0.43,-0.42,-0.15,0.43,-1.50,-1.50,-1.51
43.03,-1.12,0.40,-1.12,0.40,-0.41,-0.18,0.39,-1.53,-1.53,-1.52
43.46,-1.16,0.37,-1.16,0.38,-0.40,-0.22,0.35,-1.56,-1.55,-1.53
43.90,-1.19,0.36,-1.18,0.37,-0.39,-0.26,0.32,-1.58,-1.57,-1.56
44.33,-1.19,0.38,-1.19,0.38,-0.39,-0.29,0.28,-1.58,-1.58,-1.57
44.78,-1.19,0.39,-1.19,0.39,-0.39,-0.33,0.24,-1.58,-1.59,-1.59
45.23,-1.19,0.41,-1.19,0.41,-0.40,-0.36,0.20,-1.59,-1.59,-1.60
45.68,-1.19,0.43,-1.19,0.43,-0.42,-0.40,0.16,-1.61,-1.61,-1.62
46.13,-1.19,0.44,-1.19,0.44,-0.43,-0.43,0.12,-1.62,-1.62,-1.63
46.60,-1.19,0.45,-1.19,0.45,-0.45,-0.46,0.09,-1.64,-1.64,-1.64
47.06,-1.19,0.46,-1.19,0.46,-0.47,-0.49,0.05,-1.66,-1.66,-1.65
47.53,-1.19,0.48,-1.19,0.48,-0.48,-0.52,0.01,-1.67,-1.67,-1.67
48.01,-1.19,0.49,-1.19,0.50,-0.49,-0.55,-0.02,-1.68,-1.68,-1.68
48.49,-1.19,0.51,-1.19,0.51,-0.51,-0.58,-0.06,-1.70,-1.70,-1.70
48.97,-1.19,0.54,-1.21,0.52,-0.52,-0.60,-0.10,-1.71,-1.73,-1.73
49.46,-1.24,0.52,-1.22,0.54,-0.53,-0.62,-0.13,-1.77,-1.76,-1.76
49.96,-1.24,0.55,-1.24,0.54,-0.55,-0.64,-0.17,-1.79,-1.79,-1.79
50.46,-1.24,0.55,-1.25,0.55,-0.56,-0.66,-0.20,-1.80,-1.81,-1.79
50.96,-1.24,0.57,-1.24,0.58,-0.58,-0.67,-0.24,-1.82,-1.82,-1.81
51.47,-1.24,0.60,-1.24,0.60,-0.60,-0.69,-0.27,-1.84,-1.84,-1.84
51.99,-1.24,0.62,-1.24,0.62,-0.61,-0.70,-0.31,-1.85,-1.85,-1.86
52.51,-1.24,0.63,-1.24,0.63,-0.63,-0.70,-0.34,-1.87,-1.87,-1.87
53.03,-1.24,0.65,-1.24,0.65,-0.65,-0.71,-0.37,-1.89,-1.89,-1.89
53.56,-1.24,0.67,-1.24,0.67,-0.66,-0.71,-0.40,-1.90,-1.90,-1.91
54.10,-1.24,0.69,-1.25,0.68,-0.68,-0.71,-0.43,-1.92,-1.92,-1.93
54.64,-1.26,0.69,-1.26,0.69,-0.69,-0.71,-0.46,-1.95,-1.95,-1.95
55.18,-1.28,0.69,-1.27,0.70,-0.70,-0.71,-0.49,-1.98,-1.97,-1.97
55.74,-1.28,0.71,-1.28,0.71,-0.71,-0.70,-0.52,-2.00,-2.00,-1.99
56.29,-1.28,0.72,-1.28,0.72,-0.73,-0.69,-0.55,-2.01,-2.01,-2.00
56.86,-1.28,0.74,-1.28,0.74,-0.74,-0.69,-0.57,-2.02,-2.02,-2.02
57.42,-1.28,0.77,-1.28,0.76,-0.76,-0.68,-0.60,-2.04,-2.04,-2.05
58.00,-1.28,0.78,-1.28,0.78,-0.78,-0.66,-0.62,-2.06,-2.06,-2.06
58.58,-1.28,0.79,-1.28,0.79,-0.79,-0.65,-0.64,-2.07,-2.07,-2.07
59.16,-1.28,0.80,-1.28,0.80,-0.81,-0.64,-0.66,-2.09,-2.09,-2.09
59.76,-1.28,0.82,-1.28,0.82,-0.83,-0.63,-0.68,-2.11,-2.10,-2.10
60.35,-1.28,0.84,-1.28,0.84,-0.84,-0.61,-0.69,-2.12,-2.12,-2.12
60.96,-1.28,0.86,-1.29,0.85,-0.85,-0.60,-0.71,-2.13,-2.14,-2.14
61.57,-1.32,0.85,-1.31,0.86,-0.86,-0.58,-0.72,-2.18,-2.17,-2.17
62.18,-1.33,0.87,-1.33,0.86,-0.86,-0.57,-0.73,-2.20,-2.20,-2.20
62.80,-1.36,0.85,-1.36,0.86,-0.86,-0.55,-0.75,-2.22,-2.22,-2.21
63.43,-1.39,0.85,-1.39,0.85,-0.85,-0.54,-0.75,-2.24,-2.24,-2.24
64.07,-1.42,0.84,-1.42,0.84,-0.83,-0.52,-0.76,-2.25,-2.25,-2.26
64.71,-1.47,0.81,-1.47,0.81,-0.79,-0.51,-0.77,-2.26,-2.26,-2.28
65.35,-1.52,0.77,-1.53,0.77,-0.75,-0.49,-0.77,-2.27,-2.27,-2.29
66.01,-1.61,0.70,-1.60,0.71,-0.69,-0.48,-0.77,-2.30,-2.29,-2.31
66.67,-1.69,0.64,-1.70,0.63,-0.62,-0.47,-0.77,-2.31,-2.32,-2.33
67.33,-1.80,0.55,-1.80,0.55,-0.55,-0.45,-0.77,-2.35,-2.35,-2.35
68.01,-1.91,0.46,-1.91,0.47,-0.47,-0.44,-0.77,-2.38,-2.38,-2.37
68.69,-2.00,0.39,-2.00,0.39,-0.40,-0.43,-0.77,-2.40,-2.41,-2.39
69.37,-2.09,0.32,-2.09,0.32,-0.35,-0.41,-0.76,-2.44,-2.44,-2.41
70.07,-2.15,0.28,-2.16,0.27,-0.30,-0.40,-0.76,-2.45,-2.46,-2.43
70.77,-2.22,0.23,-2.20,0.25,-0.27,-0.39,-0.75,-2.49,-2.47,-2.45
71.48,-2.22,0.25,-2.23,0.25,-0.25,-0.38,-0.74,-2.47,-2.48,-2.47
72.19,-2.22,0.27,-2.24,0.25,-0.25,-0.37,-0.74,-2.47,-2.49,-2.49
72.91,-2.26,0.26,-2.25,0.27,-0.26,-0.36,-0.73,-2.52,-2.51,-2.52
73.64,-2.26,0.28,-2.26,0.28,-0.28,-0.35,-0.72,-2.54,-2.54,-2.54
74.38,-2.26,0.30,-2.26,0.30,-0.30,-0.34,-0.71,-2.56,-2.56,-2.56
75.12,-2.26,0.32,-2.26,0.32,-0.31,-0.33,-0.70,-2.58,-2.57,-2.58
75.87,-2.26,0.34,-2.26,0.34,-0.33,-0.32,-0.69,-2.59,-2.59,-2.60
76.63,-2.26,0.35,-2.27,0.35,-0.34,-0.32,-0.68,-2.60,-2.60,-2.62
77.40,-2.29,0.34,-2.29,0.35,-0.34,-0.31,-0.67,-2.63,-2.63,-2.63
78.17,-2.31,0.35,-2.32,0.34,-0.33,-0.30,-0.67,-2.65,-2.65,-2.66
78.95,-2.36,0.31,-2.34,0.33,-0.33,-0.29,-0.66,-2.69,-2.67,-2.67
79.74,-2.36,0.33,-2.37,0.32,-0.32,-0.29,-0.65,-2.68,-2.69,-2.69
80.54,-2.39,0.32,-2.40,0.31,-0.31,-0.28,-0.64,-2.70,-2.71,-2.71
81.35,-2.45,0.28,-2.43,0.29,-0.30,-0.27,-0.63,-2.75,-2.73,-2.73
82.16,-2.46,0.29,-2.47,0.28,-0.29,-0.27,-0.62,-2.75,-2.76,-2.75
82.98,-2.50,0.26,-2.49,0.28,-0.29,-0.26,-0.62,-2.79,-2.78,-2.76
83.81,-2.50,0.29,-2.50,0.29,-0.28,-0.26,-0.61,-2.79,-2.78,-2.79
84.65,-2.50,0.31,-2.52,0.29,-0.28,-0.25,-0.60,-2.79,-2.80,-2.81
85.50,-2.54,0.29,-2.54,0.29,-0.29,-0.25,-0.59,-2.83,-2.83,-2.83
86.35,-2.57,0.28,-2.56,0.29,-0.29,-0.24,-0.59,-2.86,-2.86,-2.85
87.22,-2.59,0.28,-2.58,0.29,-0.30,-0.24,-0.58,-2.89,-2.88,-2.87
88.09,-2.59,0.31,-2.60,0.29,-0.30,-0.24,-0.58,-2.89,-2.90,-2.90
88.97,-2.61,0.30,-2.61,0.31,-0.30,-0.23,-0.57,-2.91,-2.91,-2.91
89.86,-2.64,0.30,-2.63,0.31,-0.29,-0.23,-0.57,-2.93,-2.93,-2.94
90.76,-2.65,0.32,-2.67,0.30,-0.29,-0.23,-0.57,-2.94,-2.95,-2.97
91.66,-2.71,0.28,-2.70,0.29,-0.28,-0.23,-0.56,-2.99,-2.98,-2.99
92.58,-2.74,0.28,-2.74,0.28,-0.27,-0.22,-0.56,-3.02,-3.02,-3.02
93.51,-2.78,0.26,-2.78,0.26,-0.27,-0.22,-0.56,-3.05,-3.05,-3.04
94.44,-2.82,0.25,-2.82,0.25,-0.27,-0.22,-0.56,-3.09,-3.09,-3.07
95.39,-2.85,0.24,-2.85,0.25,-0.27,-0.22,-0.55,-3.12,-3.12,-3.09
96.34,-2.87,0.26,-2.86,0.26,-0.27,-0.22,-0.55,-3.14,-3.14,-3.13
97.30,-2.87,0.29,-2.88,0.28,-0.28,-0.22,-0.55,-3.15,-3.15,-3.16
98.28,-2.88,0.31,-2.89,0.30,-0.29,-0.23,-0.55,-3.17,-3.18,-3.19
99.26,-2.91,0.30,-2.90,0.31,-0.30,-0.23,-0.55,-3.21,-3.20,-3.21
100.25,-2.92,0.32,-2.92,0.32,-0.31,-0.23,-0.55,-3.23,-3.23,-3.24
101.25,-2.95,0.32,-2.95,0.32,-0.32,-0.24,-0.56,-3.27,-3.27,-3.27
102.27,-2.96,0.34,-2.97,0.33,-0.33,-0.24,-0.56,-3.30,-3.31,-3.30
103.29,-3.01,0.33,-2.99,0.34,-0.34,-0.25,-0.56,-3.35,-3.34,-3.34
104.32,-3.01,0.34,-3.01,0.34,-0.35,-0.26,-0.56,-3.36,-3.36,-3.36
105.37,-3.02,0.36,-3.03,0.35,-0.35,-0.27,-0.56,-3.37,-3.38,-3.38
106.42,-3.06,0.35,-3.04,0.37,-0.36,-0.27,-0.56,-3.42,-3.40,-3.41
107.48,-3.06,0.38,-3.07,0.37,-0.36,-0.28,-0.56,-3.42,-3.43,-3.44
108.56,-3.10,0.38,-3.11,0.37,-0.36,-0.30,-0.57,-3.46,-3.47,-3.48
109.64,-3.15,0.36,-3.14,0.36,-0.36,-0.31,-0.57,-3.51,-3.50,-3.51
110.74,-3.18,0.35,-3.18,0.36,-0.37,-0.32,-0.57,-3.55,-3.55,-3.53
111.85,-3.20,0.36,-3.21,0.36,-0.38,-0.33,-0.57,-3.58,-3.58,-3.56
112.97,-3.24,0.37,-3.23,0.38,-0.38,-0.35,-0.57,-3.62,-3.61,-3.61
114.10,-3.24,0.40,-3.25,0.39,-0.39,-0.36,-0.57,-3.64,-3.64,-3.64
115.24,-3.26,0.41,-3.27,0.41,-0.41,-0.38,-0.57,-3.67,-3.67,-3.68
116.39,-3.29,0.42,-3.28,0.43,-0.42,-0.39,-0.57,-3.72,-3.70,-3.71
117.55,-3.29,0.46,-3.30,0.45,-0.44,-0.41,-0.57,-3.73,-3.74,-3.75
118.73,-3.32,0.46,-3.32,0.46,-0.46,-0.42,-0.57,-3.78,-3.78,-3.79
119.92,-3.34,0.47,-3.34,0.47,-0.47,-0.44,-0.57,-3.81,-3.81,-3.81
121.12,-3.37,0.48,-3.36,0.48,-0.49,-0.46,-0.57,-3.86,-3.85,-3.85
122.33,-3.38,0.50,-3.38,0.50,-0.50,-0.47,-0.56,-3.88,-3.88,-3.88
123.55,-3.39,0.52,-3.40,0.51,-0.51,-0.49,-0.56,-3.90,-3.91,-3.91
124.79,-3.43,0.51,-3.42,0.52,-0.53,-0.51,-0.55,-3.96,-3.95,-3.94
126.03,-3.43,0.55,-3.44,0.53,-0.54,-0.53,-0.55,-3.97,-3.98,-3.98
127.29,-3.47,0.54,-3.46,0.55,-0.55,-0.54,-0.54,-4.03,-4.01,-4.01
128.57,-3.47,0.58,-3.47,0.58,-0.57,-0.56,-0.54,-4.04,-4.04,-4.05
129.85,-3.49,0.60,-3.50,0.59,-0.58,-0.58,-0.53,-4.07,-4.07,-4.09
131.15,-3.52,0.60,-3.52,0.60,-0.59,-0.59,-0.52,-4.11,-4.11,-4.12
132.46,-3.55,0.60,-3.56,0.59,-0.60,-0.61,-0.52,-4.15,-4.16,-4.15
133.79,-3.59,0.58,-3.59,0.59,-0.61,-0.63,-0.51,-4.20,-4.19,-4.17
135.12,-3.61,0.60,-3.60,0.61,-0.62,-0.64,-0.50,-4.23,-4.22,-4.21
136.48,-3.61,0.62,-3.62,0.62,-0.62,-0.66,-0.49,-4.23,-4.24,-4.23
137.84,-3.61,0.65,-3.63,0.64,-0.63,-0.67,-0.48,-4.24,-4.26,-4.26
139.22,-3.66,0.64,-3.65,0.65,-0.64,-0.68,-0.47,-4.30,-4.29,-4.30
140.61,-3.67,0.66,-3.68,0.65,-0.64,-0.69,-0.46,-4.32,-4.32,-4.33
142.02,-3.71,0.63,-3.70,0.64,-0.65,-0.71,-0.44,-4.36,-4.35,-4.34
143.44,-3.71,0.66,-3.72,0.65,-0.65,-0.72,-0.43,-4.37,-4.37,-4.37
144.87,-3.74,0.65,-3.74,0.65,-0.66,-0.73,-0.42,-4.40,-4.39,-4.39
146.32,-3.75,0.67,-3.75,0.66,-0.66,-0.74,-0.41,-4.41,-4.41,-4.42
147.78,-3.78,0.65,-3.79,0.65,-0.65,-0.74,-0.40,-4.44,-4.44,-4.44
149.26,-3.81,0.65,-3.81,0.66,-0.65,-0.75,-0.38,-4.46,-4.46,-4.46
150.75,-3.85,0.65,-3.84,0.65,-0.65,-0.76,-0.37,-4.50,-4.49,-4.50
152.26,-3.85,0.67,-3.87,0.65,-0.65,-0.76,-0.36,-4.50,-4.52,-4.52
153.78,-3.89,0.65,-3.89,0.65,-0.65,-0.77,-0.34,-4.54,-4.55,-4.54
155.32,-3.94,0.64,-3.92,0.65,-0.65,-0.77,-0.33,-4.59,-4.58,-4.58
156.88,-3.94,0.66,-3.96,0.65,-0.65,-0.77,-0.32,-4.60,-4.61,-4.60
158.44,-3.99,0.64,-3.98,0.65,-0.66,-0.78,-0.31,-4.65,-4.64,-4.63
160.03,-3.99,0.67,-4.00,0.67,-0.66,-0.78,-0.29,-4.65,-4.66,-4.66
161.63,-4.03,0.66,-4.02,0.67,-0.67,-0.78,-0.28,-4.70,-4.69,-4.69
163.24,-4.03,0.69,-4.04,0.68,-0.67,-0.77,-0.27,-4.70,-4.71,-4.72
164.88,-4.08,0.66,-4.07,0.68,-0.68,-0.77,-0.26,-4.76,-4.75,-4.74
166.53,-4.08,0.69,-4.09,0.68,-0.68,-0.77,-0.24,-4.76,-4.78,-4.77
168.19,-4.13,0.67,-4.12,0.68,-0.69,-0.76,-0.23,-4.82,-4.81,-4.80
169.87,-4.13,0.70,-4.13,0.70,-0.69,-0.76,-0.22,-4.82,-4.83,-4.83
171.57,-4.15,0.71,-4.16,0.70,-0.70,-0.75,-0.21,-4.85,-4.86,-4.86
173.29,-4.17,0.71,-4.18,0.70,-0.71,-0.74,-0.19,-4.88,-4.89,-4.88
175.02,-4.22,0.69,-4.20,0.71,-0.72,-0.74,-0.18,-4.94,-4.92,-4.91
176.77,-4.22,0.73,-4.22,0.72,-0.73,-0.73,-0.17,-4.95,-4.95,-4.95
178.54,-4.23,0.75,-4.24,0.73,-0.73,-0.72,-0.16,-4.97,-4.98,-4.98
180.32,-4.27,0.74,-4.26,0.75,-0.74,-0.70,-0.15,-5.01,-5.01,-5.01
182.13,-4.29,0.74,-4.29,0.75,-0.75,-0.69,-0.14,-5.04,-5.04,-5.03
183.95,-4.31,0.76,-4.31,0.75,-0.75,-0.68,-0.13,-5.06,-5.06,-5.07
185.79,-4.33,0.76,-4.33,0.76,-0.75,-0.66,-0.11,-5.09,-5.09,-5.09
187.65,-4.36,0.76,-4.36,0.76,-0.75,-0.65,-0.10,-5.11,-5.12,-5.13
189.52,-4.40,0.75,-4.40,0.75,-0.75,-0.63,-0.09,-5.15,-5.15,-5.15
191.42,-4.43,0.74,-4.43,0.74,-0.75,-0.62,-0.08,-5.18,-5.17,-5.17
193.33,-4.45,0.74,-4.46,0.73,-0.74,-0.60,-0.07,-5.19,-5.20,-5.19
195.27,-4.49,0.72,-4.49,0.73,-0.73,-0.58,-0.06,-5.22,-5.22,-5.22
197.22,-4.52,0.72,-4.52,0.72,-0.72,-0.56,-0.05,-5.24,-5.24,-5.24
199.19,-4.55,0.72,-4.55,0.71,-0.71,-0.54,-0.04,-5.26,-5.26,-5.27
201.18,-4.58,0.70,-4.58,0.70,-0.71,-0.51,-0.03,-5.29,-5.28,-5.28
203.19,-4.59,0.70,-4.61,0.69,-0.70,-0.49,-0.02,-5.29,-5.30,-5.29
205.23,-4.64,0.67,-4.62,0.68,-0.69,-0.47,-0.01,-5.33,-5.32,-5.31
207.28,-4.64,0.67,-4.64,0.68,-0.68,-0.44,-0.00,-5.32,-5.32,-5.31
209.35,-4.64,0.69,-4.65,0.68,-0.67,-0.42,0.01,-5.31,-5.32,-5.33
211.44,-4.67,0.68,-4.67,0.67,-0.65,-0.39,0.02,-5.32,-5.32,-5.35
213.56,-4.71,0.64,-4.71,0.64,-0.62,-0.36,0.03,-5.33,-5.33,-5.35
215.69,-4.75,0.59,-4.75,0.60,-0.60,-0.33,0.04,-5.35,-5.35,-5.35
217.85,-4.80,0.55,-4.80,0.56,-0.57,-0.30,0.05,-5.37,-5.36,-5.35
220.03,-4.84,0.52,-4.84,0.52,-0.53,-0.27,0.06,-5.37,-5.37,-5.36
222.23,-4.87,0.50,-4.88,0.49,-0.49,-0.24,0.07,-5.36,-5.37,-5.37
224.45,-4.92,0.44,-4.91,0.45,-0.45,-0.21,0.08,-5.38,-5.36,-5.36
226.70,-4.93,0.42,-4.94,0.41,-0.42,-0.18,0.09,-5.35,-5.36,-5.35
228.96,-4.97,0.38,-4.97,0.37,-0.38,-0.14,0.10,-5.35,-5.35,-5.35
231.25,-5.01,0.33,-5.00,0.34,-0.33,-0.11,0.11,-5.34,-5.34,-5.34
233.57,-5.04,0.29,-5.05,0.29,-0.29,-0.07,0.12,-5.33,-5.33,-5.33
235.90,-5.08,0.25,-5.09,0.24,-0.23,-0.04,0.12,-5.31,-5.32,-5.33
238.26,-5.14,0.19,-5.13,0.19,-0.18,0.00,0.13,-5.32,-5.31,-5.33
240.64,-5.18,0.13,-5.19,0.13,-0.12,0.04,0.14,-5.30,-5.31,-5.31
243.05,-5.24,0.06,-5.24,0.05,-0.06,0.08,0.15,-5.30,-5.30,-5.30
245.48,-5.30,-0.02,-5.29,-0.01,-0.00,0.12,0.16,-5.30,-5.30,-5.28
247.93,-5.34,-0.07,-5.33,-0.06,0.05,0.16,0.17,-5.29,-5.28,-5.27
250.41,-5.36,-0.10,-5.37,-0.11,0.10,0.20,0.18,-5.26,-5.27,-5.26
252.92,-5.39,-0.15,-5.40,-0.16,0.15,0.24,0.19,-5.24,-5.25,-5.24
255.45,-5.43,-0.22,-5.42,-0.20,0.19,0.28,0.20,-5.24,-5.22,-5.21
258.00,-5.43,-0.23,-5.43,-0.23,0.23,0.33,0.21,-5.20,-5.20,-5.20
260.58,-5.43,-0.25,-5.44,-0.26,0.27,0.37,0.22,-5.16,-5.17,-5.18
263.19,-5.46,-0.30,-5.46,-0.30,0.31,0.41,0.23,-5.15,-5.14,-5.16
265.82,-5.48,-0.34,-5.48,-0.34,0.36,0.46,0.24,-5.13,-5.12,-5.14
268.48,-5.51,-0.40,-5.51,-0.40,0.40,0.50,0.25,-5.11,-5.11,-5.11
271.16,-5.53,-0.44,-5.54,-0.44,0.44,0.55,0.26,-5.09,-5.09,-5.09
273.87,-5.57,-0.50,-5.56,-0.49,0.48,0.60,0.27,-5.09,-5.08,-5.07
276.61,-5.57,-0.53,-5.58,-0.53,0.52,0.64,0.28,-5.05,-5.06,-5.05
279.38,-5.60,-0.57,-5.60,-0.57,0.56,0.69,0.29,-5.04,-5.04,-5.03
282.17,-5.62,-0.61,-5.61,-0.60,0.60,0.74,0.30,-5.02,-5.02,-5.01
284.99,-5.62,-0.64,-5.62,-0.63,0.63,0.78,0.31,-4.99,-4.99,-4.99
287.84,-5.62,-0.65,-5.62,-0.65,0.66,0.83,0.32,-4.96,-4.96,-4.97
290.72,-5.62,-0.68,-5.62,-0.68,0.69,0.88,0.33,-4.93,-4.93,-4.94
293.63,-5.63,-0.71,-5.64,-0.72,0.73,0.93,0.34,-4.90,-4.91,-4.92
296.57,-5.67,-0.77,-5.66,-0.76,0.77,0.98,0.36,-4.90,-4.90,-4.90
299.53,-5.69,-0.81,-5.69,-0.81,0.81,1.02,0.37,-4.88,-4.88,-4.88
302.53,-5.71,-0.85,-5.71,-0.85,0.85,1.07,0.38,-4.86,-4.86,-4.86
305.55,-5.71,-0.89,-5.73,-0.90,0.89,1.12,0.39,-4.82,-4.84,-4.82
308.61,-5.76,-0.95,-5.74,-0.94,0.94,1.17,0.41,-4.82,-4.80,-4.81
311.69,-5.76,-0.98,-5.76,-0.99,0.99,1.21,0.42,-4.78,-4.78,-4.78
314.81,-5.76,-1.02,-5.78,-1.03,1.03,1.26,0.44,-4.73,-4.75,-4.74
317.96,-5.81,-1.09,-5.80,-1.07,1.08,1.30,0.45,-4.74,-4.72,-4.72
321.14,-5.81,-1.11,-5.82,-1.11,1.12,1.35,0.47,-4.69,-4.70,-4.71
324.35,-5.85,-1.16,-5.84,-1.16,1.16,1.39,0.48,-4.69,-4.69,-4.69
327.59,-5.85,-1.19,-5.87,-1.20,1.20,1.44,0.50,-4.65,-4.67,-4.66
330.87,-5.90,-1.26,-5.89,-1.25,1.23,1.48,0.52,-4.67,-4.65,-4.64
334.18,-5.90,-1.28,-5.89,-1.27,1.27,1.52,0.54,-4.63,-4.62,-4.62
337.52,-5.90,-1.30,-5.91,-1.31,1.31,1.56,0.55,-4.59,-4.60,-4.60
340.90,-5.90,-1.32,-5.91,-1.33,1.35,1.59,0.57,-4.55,-4.57,-4.58
344.30,-5.95,-1.39,-5.93,-1.37,1.39,1.63,0.59,-4.56,-4.54,-4.56
347.75,-5.95,-1.41,-5.96,-1.42,1.43,1.66,0.61,-4.52,-4.53,-4.54
351.23,-5.99,-1.47,-5.99,-1.47,1.47,1.70,0.63,-4.52,-4.52,-4.52
354.74,-6.03,-1.53,-6.02,-1.52,1.51,1.73,0.66,-4.52,-4.51,-4.50
358.28,-6.04,-1.56,-6.06,-1.57,1.56,1.76,0.68,-4.48,-4.50,-4.48
361.87,-6.09,-1.63,-6.07,-1.61,1.61,1.78,0.70,-4.49,-4.47,-4.46
365.49,-6.09,-1.65,-6.09,-1.64,1.65,1.80,0.72,-4.44,-4.44,-4.45
369.14,-6.09,-1.65,-6.11,-1.67,1.69,1.82,0.75,-4.41,-4.42,-4.44
372.83,-6.13,-1.71,-6.13,-1.71,1.72,1.84,0.77,-4.41,-4.42,-4.42
376.56,-6.16,-1.75,-6.16,-1.75,1.74,1.86,0.80,-4.42,-4.41,-4.41
380.33,-6.18,-1.80,-6.17,-1.78,1.76,1.87,0.82,-4.42,-4.40,-4.38
384.13,-6.15,-1.78,-6.16,-1.78,1.78,1.88,0.85,-4.38,-4.38,-4.37
387.97,-6.13,-1.77,-6.14,-1.78,1.78,1.88,0.87,-4.35,-4.36,-4.36
391.85,-6.13,-1.78,-6.13,-1.78,1.79,1.88,0.90,-4.34,-4.34,-4.35
395.77,-6.13,-1.80,-6.12,-1.78,1.78,1.88,0.92,-4.35,-4.34,-4.33
399.73,-6.09,-1.77,-6.10,-1.78,1.77,1.88,0.95,-4.32,-4.33,-4.33
403.72,-6.09,-1.77,-6.08,-1.77,1.76,1.87,0.97,-4.33,-4.32,-4.32
407.76,-6.04,-1.73,-6.05,-1.75,1.75,1.85,1.00,-4.29,-4.30,-4.31
411.84,-6.04,-1.75,-6.03,-1.74,1.74,1.84,1.03,-4.30,-4.29,-4.29
415.96,-5.99,-1.71,-6.00,-1.72,1.73,1.81,1.05,-4.26,-4.27,-4.28
420.12,-5.99,-1.72,-5.98,-1.71,1.72,1.79,1.07,-4.27,-4.26,-4.27
424.32,-5.95,-1.69,-5.96,-1.70,1.70,1.76,1.10,-4.25,-4.26,-4.26
428.56,-5.95,-1.70,-5.94,-1.69,1.68,1.73,1.12,-4.27,-4.26,-4.25
432.85,-5.92,-1.68,-5.91,-1.67,1.66,1.69,1.14,-4.26,-4.26,-4.24
437.18,-5.86,-1.63,-5.87,-1.64,1.63,1.65,1.16,-4.23,-4.24,-4.23
