frequency,raw,error,smoothed,error_smoothed,equalization,parametric_eq,fixed_band_eq,equalized_raw,equalized_smoothed,target
20.00,-13.11,-11.98,-13.11,-11.98,6.00,5.58,2.67,-7.11,-7.11,-1.13
20.20,-12.98,-11.94,-12.98,-11.94,6.00,5.62,2.75,-6.98,-6.98,-1.04
20.40,-12.84,-11.89,-12.85,-11.89,6.00,5.66,2.83,-6.84,-6.85,-0.95
20.61,-12.71,-11.83,-12.71,-11.84,6.00,5.70,2.91,-6.71,-6.71,-0.88
20.81,-12.57,-11.78,-12.58,-11.78,6.00,5.73,3.00,-6.57,-6.58,-0.79
21.02,-12.44,-11.73,-12.44,-11.72,6.00,5.77,3.09,-6.44,-6.44,-0.71
21.23,-12.30,-11.65,-12.30,-11.65,6.00,5.80,3.18,-6.30,-6.30,-0.65
21.44,-12.16,-11.57,-12.17,-11.58,6.00,5.84,3.27,-6.16,-6.17,-0.59
21.66,-12.03,-11.51,-12.03,-11.50,6.00,5.87,3.37,-6.03,-6.03,-0.52
21.87,-11.89,-11.42,-11.89,-11.42,6.00,5.90,3.47,-5.89,-5.89,-0.47
22.09,-11.75,-11.33,-11.75,-11.33,6.00,5.93,3.57,-5.75,-5.75,-0.42
22.31,-11.61,-11.24,-11.61,-11.24,6.00,5.96,3.67,-5.61,-5.61,-0.37
22.54,-11.47,-11.15,-11.48,-11.15,6.00,5.98,3.78,-5.47,-5.48,-0.33
22.76,-11.34,-11.06,-11.34,-11.05,6.00,6.01,3.89,-5.34,-5.34,-0.29
22.99,-11.20,-10.96,-11.20,-10.96,6.00,6.03,4.00,-5.20,-5.20,-0.25
23.22,-11.06,-10.86,-11.06,-10.86,6.00,6.06,4.12,-5.06,-5.06,-0.21
23.45,-10.92,-10.77,-10.92,-10.76,6.00,6.08,4.24,-4.92,-4.92,-0.16
23.69,-10.78,-10.67,-10.78,-10.67,6.00,6.10,4.36,-4.78,-4.78,-0.12
23.92,-10.64,-10.56,-10.64,-10.57,6.00,6.12,4.48,-4.64,-4.64,-0.08
24.16,-10.50,-10.47,-10.50,-10.47,6.00,6.14,4.61,-4.50,-4.50,-0.03
24.40,-10.36,-10.37,-10.36,-10.37,6.00,6.15,4.74,-4.36,-4.36,0.01
24.65,-10.22,-10.26,-10.22,-10.27,6.00,6.17,4.87,-4.22,-4.22,0.04
24.89,-10.08,-10.16,-10.08,-10.16,6.00,6.18,5.00,-4.08,-4.08,0.08
25.14,-9.94,-10.06,-9.94,-10.06,6.00,6.19,5.14,-3.94,-3.94,0.12
25.39,-9.80,-9.96,-9.80,-9.96,6.00,6.20,5.27,-3.80,-3.80,0.16
25.65,-9.66,-9.86,-9.66,-9.86,6.00,6.21,5.41,-3.66,-3.66,0.20
25.91,-9.52,-9.75,-9.52,-9.75,6.00,6.22,5.55,-3.52,-3.52,0.23
26.16,-9.38,-9.65,-9.38,-9.65,6.00,6.22,5.68,-3.38,-3.38,0.27
26.43,-9.24,-9.54,-9.24,-9.54,6.00,6.23,5.82,-3.24,-3.24,0.30
26.69,-9.10,-9.44,-9.10,-9.44,6.00,6.23,5.96,-3.10,-3.10,0.34
26.96,-8.95,-9.33,-8.96,-9.33,6.00,6.23,6.09,-2.95,-2.96,0.38
27.23,-8.81,-9.22,-8.81,-9.22,6.00,6.23,6.22,-2.81,-2.81,0.41
27.50,-8.67,-9.12,-8.67,-9.11,6.00,6.22,6.35,-2.67,-2.67,0.44
27.77,-8.53,-9.01,-8.53,-9.01,6.00,6.22,6.48,-2.53,-2.53,0.47
28.05,-8.39,-8.91,-8.39,-8.90,6.00,6.21,6.60,-2.39,-2.39,0.51
28.33,-8.26,-8.79,-8.26,-8.80,6.00,6.20,6.71,-2.26,-2.26,0.53
28.62,-8.12,-8.70,-8.12,-8.69,6.00,6.19,6.82,-2.12,-2.12,0.57
28.90,-7.98,-8.59,-7.98,-8.59,6.00,6.18,6.92,-1.98,-1.98,0.61
29.19,-7.84,-8.48,-7.84,-8.49,6.00,6.17,7.02,-1.84,-1.84,0.64
29.48,-7.70,-8.39,-7.70,-8.38,6.00,6.15,7.10,-1.70,-1.70,0.69
29.78,-7.56,-8.27,-7.57,-8.28,6.00,6.14,7.17,-1.56,-1.57,0.71
30.08,-7.43,-8.18,-7.43,-8.18,6.00,6.12,7.24,-1.43,-1.43,0.75
30.38,-7.30,-8.08,-7.30,-8.08,6.00,6.10,7.29,-1.30,-1.30,0.78
30.68,-7.17,-7.99,-7.17,-7.98,6.00,6.07,7.33,-1.17,-1.17,0.81
30.99,-7.04,-7.88,-7.04,-7.88,6.00,6.05,7.35,-1.04,-1.04,0.83
31.30,-6.90,-7.78,-6.91,-7.78,6.00,6.03,7.37,-0.90,-0.91,0.87
31.61,-6.77,-7.67,-6.77,-7.67,6.00,6.00,7.37,-0.77,-0.77,0.90
31.93,-6.63,-7.56,-6.64,-7.56,6.00,5.97,7.36,-0.63,-0.64,0.93
32.24,-6.50,-7.45,-6.50,-7.46,6.00,5.94,7.33,-0.50,-0.50,0.95
32.57,-6.37,-7.35,-6.37,-7.35,6.00,5.91,7.29,-0.37,-0.37,0.98
32.89,-6.24,-7.26,-6.24,-7.25,6.00,5.88,7.25,-0.24,-0.24,1.02
33.22,-6.11,-7.15,-6.11,-7.15,6.00,5.84,7.19,-0.11,-0.11,1.03
33.55,-5.99,-7.04,-5.99,-7.04,6.00,5.81,7.12,0.01,0.01,1.05
33.89,-5.86,-6.93,-5.86,-6.94,6.00,5.77,7.04,0.14,0.14,1.07
34.23,-5.73,-6.83,-5.74,-6.83,6.00,5.73,6.95,0.27,0.26,1.10
34.57,-5.61,-6.73,-5.61,-6.72,6.00,5.69,6.86,0.39,0.39,1.12
34.92,-5.48,-6.61,-5.48,-6.62,6.01,5.65,6.75,0.53,0.53,1.13
35.27,-5.35,-6.51,-5.36,-6.50,6.02,5.61,6.65,0.66,0.66,1.15
35.62,-5.23,-6.39,-5.23,-6.39,6.02,5.57,6.54,0.79,0.79,1.16
35.97,-5.10,-6.27,-5.10,-6.28,6.01,5.52,6.42,0.91,0.91,1.17
36.33,-4.98,-6.17,-4.98,-6.17,5.99,5.48,6.30,1.01,1.00,1.19
36.70,-4.86,-6.06,-4.86,-6.06,5.95,5.43,6.18,1.09,1.09,1.20
37.06,-4.74,-5.94,-4.74,-5.95,5.90,5.38,6.06,1.15,1.16,1.20
37.43,-4.62,-5.84,-4.62,-5.84,5.83,5.33,5.93,1.21,1.20,1.22
37.81,-4.50,-5.73,-4.50,-5.73,5.74,5.28,5.81,1.24,1.24,1.23
38.19,-4.39,-5.63,-4.39,-5.63,5.65,5.23,5.69,1.25,1.25,1.24
38.57,-4.28,-5.52,-4.28,-5.52,5.54,5.18,5.56,1.26,1.26,1.24
38.95,-4.17,-5.41,-4.17,-5.42,5.43,5.12,5.44,1.26,1.25,1.24
39.34,-4.07,-5.31,-4.07,-5.31,5.32,5.07,5.32,1.24,1.24,1.24
39.74,-3.97,-5.22,-3.97,-5.21,5.21,5.02,5.20,1.24,1.24,1.24
40.14,-3.87,-5.11,-3.87,-5.11,5.11,4.96,5.09,1.24,1.24,1.24
40.54,-3.77,-5.01,-3.77,-5.01,5.01,4.90,4.97,1.24,1.24,1.24
40.94,-3.67,-4.92,-3.68,-4.91,4.92,4.85,4.86,1.25,1.24,1.24
41.35,-3.58,-4.82,-3.58,-4.82,4.83,4.79,4.75,1.25,1.25,1.24
41.76,-3.49,-4.74,-3.49,-4.74,4.74,4.73,4.65,1.25,1.25,1.25
42.18,-3.40,-4.65,-3.40,-4.65,4.65,4.67,4.54,1.25,1.25,1.25
42.60,-3.32,-4.57,-3.32,-4.57,4.57,4.61,4.44,1.25,1.25,1.25
43.03,-3.24,-4.50,-3.24,-4.49,4.49,4.55,4.35,1.25,1.24,1.25
43.46,-3.17,-4.42,-3.17,-4.41,4.41,4.49,4.26,1.24,1.24,1.25
43.90,-3.09,-4.33,-3.09,-4.33,4.33,4.43,4.17,1.24,1.24,1.24
44.33,-3.02,-4.25,-3.02,-4.25,4.26,4.36,4.08,1.23,1.23,1.23
44.78,-2.95,-4.18,-2.95,-4.18,4.19,4.30,3.99,1.23,1.23,1.23
45.23,-2.89,-4.11,-2.89,-4.11,4.12,4.24,3.91,1.23,1.23,1.22
45.68,-2.83,-4.05,-2.83,-4.05,4.06,4.18,3.84,1.23,1.22,1.22
46.13,-2.78,-3.99,-2.78,-4.00,4.00,4.11,3.76,1.22,1.22,1.21
46.60,-2.73,-3.95,-2.73,-3.94,3.94,4.05,3.69,1.21,1.21,1.21
47.06,-2.68,-3.90,-2.68,-3.90,3.89,3.98,3.62,1.21,1.21,1.22
47.53,-2.63,-3.84,-2.63,-3.85,3.83,3.92,3.56,1.20,1.20,1.21
48.01,-2.57,-3.80,-2.57,-3.79,3.78,3.85,3.49,1.20,1.21,1.23
48.49,-2.51,-3.72,-2.51,-3.73,3.72,3.79,3.43,1.21,1.21,1.21
48.97,-2.45,-3.65,-2.46,-3.66,3.66,3.72,3.38,1.21,1.21,1.20
49.46,-2.40,-3.60,-2.40,-3.59,3.60,3.65,3.32,1.20,1.20,1.20
49.96,-2.34,-3.53,-2.34,-3.54,3.55,3.59,3.27,1.20,1.21,1.19
50.46,-2.28,-3.49,-2.28,-3.49,3.49,3.52,3.22,1.21,1.21,1.21
50.96,-2.22,-3.43,-2.23,-3.43,3.44,3.45,3.17,1.21,1.21,1.21
51.47,-2.17,-3.38,-2.17,-3.38,3.38,3.38,3.12,1.21,1.21,1.20
51.99,-2.11,-3.33,-2.11,-3.33,3.33,3.32,3.07,1.22,1.22,1.22
52.51,-2.05,-3.28,-2.05,-3.28,3.27,3.25,3.03,1.22,1.22,1.23
53.03,-1.99,-3.23,-1.99,-3.22,3.22,3.18,2.98,1.23,1.23,1.24
53.56,-1.92,-3.16,-1.92,-3.16,3.16,3.11,2.94,1.24,1.24,1.24
54.10,-1.85,-3.09,-1.85,-3.10,3.10,3.04,2.90,1.24,1.24,1.24
54.64,-1.78,-3.03,-1.78,-3.03,3.03,2.98,2.86,1.25,1.25,1.25
55.18,-1.71,-2.96,-1.71,-2.96,2.96,2.91,2.82,1.25,1.25,1.25
55.74,-1.64,-2.89,-1.64,-2.89,2.89,2.84,2.78,1.24,1.24,1.25
56.29,-1.57,-2.82,-1.57,-2.81,2.81,2.77,2.74,1.24,1.24,1.25
56.86,-1.49,-2.74,-1.49,-2.73,2.73,2.70,2.70,1.24,1.24,1.24
57.42,-1.41,-2.64,-1.41,-2.65,2.65,2.63,2.66,1.24,1.24,1.23
58.00,-1.33,-2.56,-1.33,-2.56,2.57,2.56,2.61,1.24,1.24,1.23
58.58,-1.25,-2.48,-1.26,-2.48,2.49,2.49,2.57,1.24,1.24,1.23
59.16,-1.18,-2.41,-1.18,-2.41,2.41,2.42,2.53,1.23,1.23,1.22
59.76,-1.11,-2.33,-1.11,-2.33,2.32,2.36,2.48,1.21,1.21,1.22
60.35,-1.04,-2.25,-1.04,-2.25,2.24,2.29,2.44,1.19,1.19,1.21
60.96,-0.97,-2.16,-0.97,-2.16,2.15,2.22,2.39,1.18,1.18,1.19
61.57,-0.90,-2.07,-0.90,-2.07,2.06,2.15,2.34,1.16,1.16,1.17
62.18,-0.83,-1.97,-0.83,-1.97,1.98,2.08,2.29,1.15,1.15,1.14
62.80,-0.75,-1.89,-0.75,-1.88,1.89,2.01,2.23,1.14,1.14,1.14
63.43,-0.68,-1.79,-0.68,-1.80,1.81,1.94,2.18,1.13,1.13,1.11
64.07,-0.62,-1.72,-0.62,-1.73,1.74,1.87,2.12,1.11,1.11,1.10
64.71,-0.57,-1.67,-0.57,-1.66,1.67,1.80,2.06,1.09,1.10,1.09
65.35,-0.52,-1.61,-0.52,-1.61,1.60,1.73,2.00,1.08,1.08,1.09
66.01,-0.47,-1.55,-0.47,-1.55,1.54,1.66,1.93,1.07,1.07,1.08
66.67,-0.42,-1.49,-0.42,-1.49,1.49,1.59,1.87,1.06,1.07,1.07
67.33,-0.36,-1.43,-0.36,-1.43,1.44,1.52,1.80,1.07,1.07,1.07
68.01,-0.31,-1.38,-0.31,-1.38,1.39,1.45,1.73,1.07,1.07,1.07
68.69,-0.26,-1.33,-0.27,-1.33,1.34,1.38,1.66,1.08,1.07,1.07
69.37,-0.22,-1.29,-0.22,-1.29,1.29,1.31,1.59,1.07,1.07,1.07
70.07,-0.18,-1.25,-0.18,-1.25,1.24,1.25,1.51,1.06,1.07,1.07
70.77,-0.13,-1.21,-0.13,-1.20,1.20,1.18,1.44,1.07,1.07,1.07
71.48,-0.08,-1.15,-0.09,-1.16,1.15,1.11,1.36,1.07,1.06,1.07
72.19,-0.04,-1.11,-0.04,-1.11,1.11,1.04,1.28,1.06,1.06,1.07
72.91,-0.00,-1.06,0.01,-1.05,1.06,0.97,1.20,1.05,1.06,1.06
73.64,0.06,-0.99,0.05,-1.00,1.00,0.90,1.13,1.06,1.06,1.05
74.38,0.11,-0.94,0.10,-0.95,0.95,0.83,1.04,1.05,1.05,1.05
75.12,0.15,-0.90,0.15,-0.89,0.89,0.76,0.96,1.04,1.04,1.05
75.87,0.21,-0.84,0.21,-0.84,0.83,0.69,0.88,1.04,1.04,1.05
76.63,0.28,-0.76,0.28,-0.77,0.77,0.62,0.80,1.04,1.04,1.04
77.40,0.35,-0.70,0.34,-0.70,0.70,0.55,0.71,1.05,1.05,1.04
78.17,0.41,-0.63,0.41,-0.63,0.64,0.48,0.63,1.05,1.05,1.04
78.95,0.48,-0.57,0.48,-0.57,0.57,0.42,0.55,1.05,1.05,1.05
79.74,0.55,-0.51,0.55,-0.51,0.51,0.35,0.46,1.05,1.05,1.06
80.54,0.62,-0.45,0.62,-0.44,0.44,0.28,0.38,1.06,1.06,1.07
81.35,0.70,-0.38,0.70,-0.38,0.37,0.21,0.29,1.07,1.08,1.08
82.16,0.79,-0.30,0.78,-0.31,0.31,0.14,0.20,1.10,1.09,1.09
82.98,0.87,-0.25,0.87,-0.24,0.24,0.07,0.12,1.11,1.11,1.11
83.81,0.95,-0.17,0.95,-0.17,0.18,0.00,0.03,1.12,1.13,1.12
84.65,1.04,-0.09,1.03,-0.11,0.11,-0.06,-0.06,1.14,1.14,1.13
85.50,1.12,-0.05,1.12,-0.04,0.03,-0.13,-0.15,1.15,1.15,1.16
86.35,1.21,0.03,1.21,0.03,-0.04,-0.20,-0.23,1.17,1.17,1.18
87.22,1.31,0.11,1.31,0.11,-0.12,-0.27,-0.32,1.19,1.19,1.20
88.09,1.41,0.21,1.40,0.19,-0.19,-0.34,-0.41,1.21,1.21,1.20
88.97,1.50,0.27,1.50,0.28,-0.27,-0.40,-0.50,1.23,1.23,1.23
89.86,1.59,0.36,1.59,0.36,-0.35,-0.47,-0.59,1.23,1.24,1.23
90.76,1.68,0.45,1.67,0.44,-0.44,-0.54,-0.68,1.24,1.23,1.22
91.66,1.75,0.51,1.75,0.52,-0.52,-0.61,-0.77,1.23,1.23,1.24
92.58,1.83,0.61,1.83,0.60,-0.61,-0.67,-0.86,1.22,1.22,1.22
93.51,1.92,0.69,1.91,0.69,-0.70,-0.74,-0.96,1.22,1.22,1.22
94.44,2.00,0.78,2.00,0.79,-0.79,-0.81,-1.05,1.21,1.21,1.22
95.39,2.08,0.88,2.08,0.88,-0.88,-0.87,-1.14,1.20,1.20,1.20
96.34,2.15,0.98,2.15,0.98,-0.98,-0.94,-1.23,1.17,1.17,1.17
97.30,2.22,1.08,2.22,1.07,-1.08,-1.00,-1.33,1.14,1.14,1.14
98.28,2.29,1.17,2.28,1.17,-1.18,-1.07,-1.42,1.11,1.11,1.11
99.26,2.35,1.26,2.35,1.27,-1.27,-1.13,-1.51,1.07,1.08,1.08
100.25,2.42,1.37,2.42,1.37,-1.37,-1.20,-1.60,1.05,1.05,1.05
101.25,2.49,1.48,2.48,1.47,-1.46,-1.26,-1.70,1.03,1.02,1.01
102.27,2.54,1.56,2.53,1.56,-1.55,-1.33,-1.79,0.98,0.98,0.98
103.29,2.57,1.64,2.57,1.64,-1.64,-1.39,-1.88,0.93,0.93,0.93
104.32,2.61,1.71,2.61,1.72,-1.73,-1.45,-1.97,0.88,0.89,0.90
105.37,2.66,1.80,2.66,1.80,-1.81,-1.52,-2.06,0.85,0.85,0.86
106.42,2.71,1.88,2.71,1.88,-1.88,-1.58,-2.15,0.83,0.83,0.83
107.48,2.76,1.97,2.75,1.96,-1.95,-1.64,-2.23,0.80,0.80,0.79
108.56,2.79,2.04,2.78,2.04,-2.02,-1.70,-2.32,0.76,0.76,0.75
109.64,2.81,2.10,2.81,2.09,-2.09,-1.76,-2.40,0.72,0.72,0.71
110.74,2.83,2.15,2.83,2.15,-2.15,-1.82,-2.48,0.67,0.68,0.68
111.85,2.86,2.19,2.86,2.20,-2.21,-1.88,-2.55,0.65,0.65,0.66
112.97,2.89,2.27,2.89,2.27,-2.27,-1.94,-2.63,0.62,0.62,0.61
114.10,2.92,2.32,2.92,2.32,-2.32,-1.99,-2.70,0.60,0.60,0.60
115.24,2.95,2.38,2.94,2.37,-2.37,-2.05,-2.76,0.58,0.57,0.57
116.39,2.96,2.41,2.96,2.41,-2.42,-2.11,-2.82,0.54,0.54,0.55
117.55,2.98,2.46,2.98,2.46,-2.46,-2.16,-2.88,0.51,0.52,0.52
118.73,3.01,2.50,3.01,2.50,-2.51,-2.21,-2.93,0.50,0.50,0.50
119.92,3.05,2.55,3.05,2.55,-2.56,-2.27,-2.98,0.49,0.49,0.50
121.12,3.09,2.61,3.08,2.60,-2.60,-2.32,-3.02,0.49,0.48,0.48
122.33,3.11,2.64,3.11,2.64,-2.64,-2.37,-3.05,0.47,0.47,0.46
123.55,3.14,2.68,3.14,2.69,-2.69,-2.42,-3.08,0.45,0.46,0.46
124.79,3.17,2.72,3.17,2.72,-2.73,-2.47,-3.10,0.44,0.44,0.44
126.03,3.20,2.77,3.19,2.76,-2.76,-2.51,-3.12,0.44,0.43,0.43
127.29,3.21,2.78,3.21,2.79,-2.79,-2.56,-3.13,0.41,0.42,0.42
128.57,3.22,2.82,3.22,2.82,-2.82,-2.60,-3.14,0.40,0.41,0.40
129.85,3.24,2.85,3.23,2.85,-2.84,-2.64,-3.14,0.40,0.39,0.39
131.15,3.24,2.86,3.23,2.86,-2.85,-2.68,-3.14,0.38,0.38,0.37
132.46,3.23,2.87,3.23,2.86,-2.86,-2.72,-3.13,0.37,0.36,0.36
133.79,3.21,2.85,3.21,2.86,-2.87,-2.76,-3.11,0.34,0.35,0.36
135.12,3.20,2.87,3.20,2.86,-2.87,-2.79,-3.09,0.33,0.33,0.33
136.48,3.19,2.86,3.18,2.86,-2.86,-2.82,-3.07,0.33,0.32,0.33
137.84,3.15,2.84,3.16,2.86,-2.85,-2.85,-3.04,0.30,0.31,0.31
139.22,3.13,2.85,3.13,2.84,-2.84,-2.88,-3.01,0.29,0.29,0.28
140.61,3.10,2.84,3.09,2.83,-2.83,-2.90,-2.98,0.27,0.27,0.26
142.02,3.06,2.81,3.06,2.82,-2.81,-2.92,-2.94,0.24,0.25,0.25
143.44,3.03,2.80,3.03,2.80,-2.80,-2.94,-2.91,0.23,0.22,0.23
144.87,2.99,2.78,2.99,2.79,-2.79,-2.95,-2.87,0.19,0.20,0.20
146.32,2.97,2.79,2.96,2.78,-2.79,-2.96,-2.82,0.18,0.18,0.18
147.78,2.94,2.77,2.94,2.78,-2.78,-2.96,-2.78,0.15,0.15,0.17
149.26,2.92,2.77,2.92,2.78,-2.79,-2.96,-2.74,0.13,0.13,0.14
150.75,2.90,2.80,2.90,2.79,-2.79,-2.95,-2.69,0.10,0.11,0.10
152.26,2.89,2.81,2.88,2.81,-2.81,-2.93,-2.65,0.08,0.08,0.08
153.78,2.87,2.82,2.87,2.82,-2.82,-2.91,-2.61,0.05,0.05,0.05
155.32,2.86,2.84,2.86,2.83,-2.84,-2.88,-2.56,0.02,0.02,0.02
156.88,2.84,2.84,2.84,2.85,-2.85,-2.85,-2.52,-0.01,-0.01,-0.00
158.44,2.83,2.86,2.83,2.87,-2.86,-2.82,-2.48,-0.04,-0.04,-0.04
160.03,2.81,2.89,2.81,2.88,-2.87,-2.81,-2.43,-0.06,-0.06,-0.08
161.63,2.79,2.90,2.78,2.89,-2.88,-2.80,-2.39,-0.09,-0.09,-0.11
163.24,2.76,2.90,2.75,2.89,-2.88,-2.82,-2.35,-0.12,-0.13,-0.14
164.88,2.71,2.87,2.72,2.88,-2.88,-2.85,-2.32,-0.17,-0.16,-0.16
166.53,2.68,2.87,2.68,2.87,-2.87,-2.88,-2.28,-0.20,-0.20,-0.19
168.19,2.65,2.87,2.64,2.86,-2.87,-2.93,-2.24,-0.22,-0.23,-0.23
169.87,2.61,2.85,2.61,2.86,-2.86,-2.97,-2.21,-0.26,-0.25,-0.24
171.57,2.59,2.86,2.59,2.86,-2.86,-3.01,-2.18,-0.27,-0.28,-0.27
173.29,2.57,2.87,2.56,2.86,-2.86,-3.04,-2.15,-0.30,-0.30,-0.30
175.02,2.54,2.85,2.54,2.87,-2.87,-3.07,-2.12,-0.34,-0.33,-0.32
176.77,2.53,2.88,2.53,2.88,-2.89,-3.09,-2.09,-0.36,-0.36,-0.35
178.54,2.53,2.91,2.52,2.90,-2.90,-3.10,-2.07,-0.37,-0.38,-0.38
180.32,2.53,2.92,2.53,2.92,-2.92,-3.11,-2.04,-0.39,-0.39,-0.39
182.13,2.54,2.94,2.54,2.94,-2.94,-3.11,-2.02,-0.40,-0.40,-0.40
183.95,2.55,2.97,2.54,2.96,-2.96,-3.10,-2.00,-0.41,-0.41,-0.42
185.79,2.55,2.98,2.55,2.98,-2.98,-3.10,-1.98,-0.43,-0.43,-0.44
187.65,2.55,3.00,2.55,3.00,-3.00,-3.09,-1.96,-0.45,-0.45,-0.45
189.52,2.55,3.01,2.55,3.01,-3.02,-3.07,-1.95,-0.47,-0.47,-0.46
191.42,2.55,3.02,2.55,3.03,-3.03,-3.05,-1.94,-0.49,-0.48,-0.47
193.33,2.56,3.04,2.56,3.04,-3.05,-3.03,-1.92,-0.49,-0.49,-0.49
195.27,2.57,3.07,2.56,3.06,-3.07,-3.01,-1.91,-0.50,-0.50,-0.50
197.22,2.57,3.08,2.57,3.08,-3.08,-2.98,-1.90,-0.51,-0.51,-0.51
199.19,2.57,3.11,2.57,3.10,-3.09,-2.96,-1.89,-0.52,-0.52,-0.54
201.18,2.56,3.10,2.56,3.10,-3.09,-2.93,-1.89,-0.54,-0.54,-0.54
203.19,2.55,3.10,2.54,3.10,-3.09,-2.89,-1.88,-0.55,-0.55,-0.55
205.23,2.52,3.09,2.52,3.08,-3.09,-2.86,-1.87,-0.57,-0.57,-0.57
207.28,2.50,3.07,2.50,3.07,-3.08,-2.82,-1.87,-0.58,-0.58,-0.57
209.35,2.47,3.06,2.47,3.06,-3.06,-2.78,-1.86,-0.59,-0.59,-0.59
211.44,2.44,3.05,2.44,3.04,-3.04,-2.74,-1.86,-0.60,-0.60,-0.61
213.56,2.41,3.01,2.41,3.01,-3.01,-2.70,-1.86,-0.61,-0.61,-0.61
215.69,2.38,2.98,2.37,2.98,-2.99,-2.65,-1.85,-0.61,-0.62,-0.61
217.85,2.33,2.94,2.34,2.95,-2.96,-2.61,-1.85,-0.63,-0.62,-0.61
220.03,2.30,2.93,2.30,2.92,-2.92,-2.56,-1.84,-0.62,-0.62,-0.63
222.23,2.27,2.91,2.26,2.89,-2.89,-2.51,-1.84,-0.62,-0.62,-0.64
224.45,2.22,2.84,2.22,2.85,-2.85,-2.46,-1.83,-0.63,-0.63,-0.63
226.70,2.18,2.81,2.17,2.81,-2.81,-2.40,-1.83,-0.63,-0.64,-0.63
228.96,2.12,2.76,2.12,2.76,-2.77,-2.35,-1.82,-0.65,-0.65,-0.64
231.25,2.08,2.71,2.08,2.72,-2.73,-2.29,-1.81,-0.65,-0.65,-0.64
233.57,2.04,2.68,2.03,2.68,-2.69,-2.23,-1.80,-0.65,-0.66,-0.64
235.90,1.99,2.64,1.99,2.64,-2.64,-2.17,-1.79,-0.66,-0.65,-0.65
238.26,1.95,2.61,1.94,2.60,-2.59,-2.11,-1.77,-0.64,-0.65,-0.66
240.64,1.89,2.55,1.89,2.55,-2.53,-2.05,-1.76,-0.65,-0.64,-0.66
243.05,1.83,2.49,1.82,2.49,-2.47,-1.98,-1.74,-0.64,-0.65,-0.66
245.48,1.75,2.41,1.74,2.41,-2.40,-1.91,-1.72,-0.65,-0.66,-0.66
247.93,1.65,2.31,1.65,2.32,-2.32,-1.84,-1.70,-0.68,-0.67,-0.66
250.41,1.57,2.24,1.56,2.22,-2.24,-1.77,-1.68,-0.67,-0.67,-0.67
252.92,1.47,2.12,1.48,2.13,-2.14,-1.70,-1.65,-0.67,-0.66,-0.65
255.45,1.40,2.04,1.39,2.04,-2.04,-1.62,-1.62,-0.65,-0.65,-0.64
258.00,1.32,1.95,1.31,1.94,-1.94,-1.55,-1.59,-0.62,-0.63,-0.63
260.58,1.21,1.83,1.22,1.84,-1.83,-1.47,-1.55,-0.62,-0.61,-0.63
263.19,1.12,1.72,1.11,1.72,-1.71,-1.39,-1.52,-0.59,-0.60,-0.60
265.82,1.00,1.59,1.00,1.60,-1.59,-1.30,-1.48,-0.59,-0.59,-0.59
268.48,0.89,1.47,0.89,1.47,-1.47,-1.22,-1.44,-0.58,-0.57,-0.58
271.16,0.79,1.35,0.77,1.33,-1.34,-1.13,-1.40,-0.55,-0.56,-0.56
273.87,0.65,1.19,0.65,1.19,-1.20,-1.04,-1.35,-0.56,-0.55,-0.54
276.61,0.52,1.05,0.52,1.06,-1.07,-0.94,-1.31,-0.55,-0.54,-0.53
279.38,0.40,0.92,0.40,0.92,-0.93,-0.85,-1.26,-0.53,-0.52,-0.52
282.17,0.29,0.80,0.28,0.79,-0.78,-0.75,-1.21,-0.50,-0.50,-0.51
284.99,0.17,0.65,0.15,0.65,-0.64,-0.65,-1.16,-0.47,-0.49,-0.49
287.84,0.01,0.49,0.02,0.50,-0.49,-0.54,-1.11,-0.49,-0.47,-0.48
290.72,-0.12,0.34,-0.12,0.34,-0.35,-0.44,-1.06,-0.47,-0.46,-0.46
293.63,-0.24,0.20,-0.25,0.19,-0.20,-0.33,-1.00,-0.44,-0.45,-0.45
296.57,-0.38,0.04,-0.38,0.05,-0.05,-0.21,-0.95,-0.43,-0.42,-0.42
299.53,-0.50,-0.09,-0.51,-0.10,0.10,-0.10,-0.89,-0.40,-0.40,-0.41
302.53,-0.63,-0.24,-0.64,-0.25,0.25,0.02,-0.84,-0.38,-0.38,-0.39
305.55,-0.76,-0.41,-0.76,-0.40,0.40,0.14,-0.78,-0.37,-0.36,-0.35
308.61,-0.88,-0.55,-0.88,-0.55,0.54,0.26,-0.73,-0.35,-0.34,-0.34
311.69,-0.99,-0.68,-0.99,-0.68,0.67,0.39,-0.67,-0.32,-0.32,-0.31
314.81,-1.08,-0.81,-1.09,-0.81,0.80,0.52,-0.61,-0.28,-0.28,-0.27
317.96,-1.18,-0.93,-1.18,-0.93,0.93,0.65,-0.55,-0.25,-0.25,-0.25
321.14,-1.27,-1.05,-1.28,-1.05,1.06,0.78,-0.49,-0.21,-0.22,-0.22
324.35,-1.37,-1.17,-1.38,-1.17,1.18,0.91,-0.43,-0.19,-0.19,-0.21
327.59,-1.48,-1.30,-1.47,-1.29,1.30,1.05,-0.38,-0.18,-0.17,-0.18
330.87,-1.56,-1.41,-1.57,-1.42,1.42,1.18,-0.32,-0.14,-0.15,-0.15
334.18,-1.66,-1.53,-1.67,-1.54,1.54,1.32,-0.26,-0.13,-0.13,-0.13
337.52,-1.76,-1.66,-1.76,-1.65,1.65,1.45,-0.20,-0.11,-0.10,-0.10
340.90,-1.84,-1.77,-1.84,-1.77,1.76,1.58,-0.14,-0.08,-0.08,-0.07
344.30,-1.92,-1.88,-1.92,-1.87,1.87,1.71,-0.08,-0.05,-0.05,-0.05
347.75,-1.99,-1.97,-1.99,-1.97,1.98,1.84,-0.02,-0.02,-0.02,-0.03
351.23,-2.06,-2.06,-2.07,-2.07,2.07,1.96,0.04,0.01,0.00,0.00
354.74,-2.13,-2.16,-2.13,-2.16,2.16,2.07,0.10,0.02,0.03,0.03
358.28,-2.19,-2.24,-2.19,-2.24,2.24,2.18,0.16,0.04,0.05,0.05
361.87,-2.23,-2.31,-2.24,-2.31,2.30,2.28,0.22,0.07,0.07,0.08
365.49,-2.27,-2.37,-2.27,-2.37,2.36,2.37,0.28,0.09,0.09,0.10
369.14,-2.30,-2.42,-2.30,-2.42,2.42,2.45,0.34,0.11,0.11,0.12
372.83,-2.32,-2.46,-2.32,-2.46,2.46,2.52,0.40,0.14,0.14,0.14
376.56,-2.33,-2.49,-2.33,-2.49,2.49,2.57,0.46,0.16,0.16,0.15
380.33,-2.33,-2.52,-2.34,-2.51,2.52,2.62,0.52,0.18,0.18,0.18
384.13,-2.34,-2.54,-2.34,-2.54,2.54,2.65,0.58,0.19,0.19,0.19
387.97,-2.35,-2.55,-2.35,-2.55,2.55,2.66,0.64,0.20,0.21,0.20
391.85,-2.35,-2.56,-2.35,-2.56,2.57,2.67,0.70,0.22,0.22,0.21
395.77,-2.34,-2.57,-2.34,-2.57,2.58,2.66,0.76,0.24,0.24,0.23
399.73,-2.33,-2.57,-2.34,-2.57,2.59,2.64,0.82,0.25,0.25,0.24
403.72,-2.33,-2.58,-2.33,-2.58,2.59,2.61,0.87,0.25,0.26,0.25
407.76,-2.32,-2.58,-2.32,-2.59,2.58,2.56,0.93,0.26,0.26,0.26
411.84,-2.31,-2.59,-2.31,-2.58,2.57,2.51,0.99,0.26,0.26,0.28
415.96,-2.28,-2.56,-2.28,-2.56,2.55,2.45,1.05,0.26,0.27,0.28
420.12,-2.24,-2.52,-2.25,-2.52,2.52,2.38,1.10,0.28,0.27,0.28
424.32,-2.20,-2.48,-2.20,-2.48,2.48,2.31,1.16,0.28,0.28,0.28
428.56,-2.15,-2.43,-2.15,-2.43,2.44,2.23,1.21,0.28,0.28,0.28
432.85,-2.10,-2.38,-2.10,-2.38,2.38,2.15,1.26,0.28,0.28,0.27
437.18,-2.04,-2.32,-2.04,-2.32,2.31,2.07,1.31,0.27,0.27,0.27
441.55,-1.97,-2.25,-1.97,-2.25,2.24,1.98,1.36,0.27,0.27,0.27
445.96,-1.90,-2.18,-1.90,-2.17,2.16,1.89,1.41,0.26,0.26,0.27
450.42,-1.81,-2.07,-1.82,-2.08,2.08,1.80,1.45,0.26,0.26,0.26
454.93,-1.73,-1.99,-1.72,-1.99,1.99,1.72,1.49,0.25,0.26,0.26
459.48,-1.62,-1.88,-1.63,-1.89,1.89,1.63,1.53,0.27,0.27,0.26
464.07,-1.52,-1.78,-1.53,-1.79,1.80,1.55,1.57,0.28,0.27,0.26
468.71,-1.43,-1.70,-1.43,-1.70,1.70,1.46,1.60,0.27,0.27,0.27
473.40,-1.34,-1.60,-1.34,-1.61,1.61,1.38,1.63,0.27,0.27,0.26
478.13,-1.25,-1.52,-1.25,-1.51,1.51,1.30,1.66,0.26,0.26,0.27
482.91,-1.15,-1.41,-1.16,-1.42,1.42,1.23,1.68,0.27,0.26,0.26
487.74,-1.06,-1.33,-1.06,-1.33,1.32,1.15,1.70,0.26,0.26,0.27
492.62,-0.96,-1.24,-0.96,-1.24,1.23,1.08,1.72,0.27,0.27,0.28
