frequency,raw
20.00,4.14
20.20,4.15
20.40,4.15
20.61,4.16
20.81,4.16
21.02,4.18
21.23,4.19
21.44,4.21
21.66,4.23
21.87,4.25
22.09,4.28
22.31,4.30
22.54,4.33
22.76,4.36
22.99,4.40
23.22,4.44
23.45,4.48
23.69,4.52
23.92,4.55
24.16,4.59
24.40,4.62
24.65,4.66
24.89,4.68
25.14,4.70
25.39,4.72
25.65,4.73
25.91,4.75
26.16,4.75
26.43,4.76
26.69,4.78
26.96,4.80
27.23,4.83
27.50,4.86
27.77,4.89
28.05,4.94
28.33,4.97
28.62,5.00
28.90,5.03
29.19,5.06
29.48,5.08
29.78,5.10
30.08,5.11
30.38,5.12
30.68,5.12
30.99,5.11
31.30,5.11
31.61,5.12
31.93,5.13
32.24,5.15
32.57,5.19
32.89,5.22
33.22,5.24
33.55,5.29
33.89,5.32
34.23,5.35
34.57,5.39
34.92,5.42
35.27,5.44
35.62,5.47
35.97,5.49
36.33,5.50
36.70,5.50
37.06,5.49
37.43,5.49
37.81,5.49
38.19,5.49
38.57,5.51
38.95,5.53
39.34,5.56
39.74,5.59
40.14,5.62
40.54,5.65
40.94,5.69
41.35,5.72
41.76,5.75
42.18,5.78
42.60,5.80
43.03,5.82
43.46,5.84
43.90,5.85
44.33,5.86
44.78,5.87
45.23,5.86
45.68,5.85
46.13,5.85
46.60,5.84
47.06,5.84
47.53,5.85
48.01,5.85
48.49,5.85
48.97,5.85
49.46,5.85
49.96,5.85
50.46,5.85
50.96,5.85
51.47,5.84
51.99,5.84
52.51,5.84
53.03,5.84
53.56,5.84
54.10,5.83
54.64,5.83
55.18,5.83
55.74,5.83
56.29,5.82
56.86,5.82
57.42,5.82
58.00,5.81
58.58,5.81
59.16,5.81
59.76,5.80
60.35,5.80
60.96,5.80
61.57,5.80
62.18,5.80
62.80,5.80
63.43,5.80
64.07,5.80
64.71,5.80
65.35,5.80
66.01,5.80
66.67,5.80
67.33,5.80
68.01,5.80
68.69,5.80
69.37,5.80
70.07,5.80
70.77,5.80
71.48,5.79
72.19,5.79
72.91,5.79
73.64,5.79
74.38,5.78
75.12,5.78
75.87,5.77
76.63,5.77
77.40,5.77
78.17,5.76
78.95,5.76
79.74,5.76
80.54,5.75
81.35,5.75
82.16,5.75
82.98,5.75
83.81,5.75
84.65,5.74
85.50,5.74
86.35,5.74
87.22,5.74
88.09,5.75
88.97,5.76
89.86,5.77
90.76,5.77
91.66,5.76
92.58,5.74
93.51,5.73
94.44,5.70
95.39,5.68
96.34,5.65
97.30,5.61
98.28,5.58
99.26,5.55
100.25,5.52
101.25,5.49
102.27,5.46
103.29,5.43
104.32,5.40
105.37,5.39
106.42,5.39
107.48,5.38
108.56,5.39
109.64,5.40
110.74,5.40
111.85,5.39
112.97,5.36
114.10,5.33
115.24,5.31
116.39,5.28
117.55,5.24
118.73,5.21
119.92,5.17
121.12,5.14
122.33,5.10
123.55,5.08
124.79,5.06
126.03,5.05
127.29,5.03
128.57,5.01
129.85,5.00
131.15,4.99
132.46,4.97
133.79,4.95
135.12,4.93
136.48,4.90
137.84,4.88
139.22,4.86
140.61,4.83
142.02,4.79
143.44,4.75
144.87,4.71
146.32,4.66
147.78,4.61
149.26,4.57
150.75,4.53
152.26,4.49
153.78,4.47
155.32,4.45
156.88,4.44
158.44,4.41
160.03,4.38
161.63,4.34
163.24,4.30
164.88,4.26
166.53,4.23
168.19,4.20
169.87,4.17
171.57,4.15
173.29,4.14
175.02,4.11
176.77,4.07
178.54,4.03
180.32,3.98
182.13,3.94
183.95,3.90
185.79,3.86
187.65,3.83
189.52,3.81
191.42,3.79
193.33,3.77
195.27,3.74
197.22,3.71
199.19,3.66
201.18,3.61
203.19,3.57
205.23,3.53
207.28,3.50
209.35,3.48
211.44,3.44
213.56,3.41
215.69,3.38
217.85,3.33
220.03,3.27
222.23,3.23
224.45,3.18
226.70,3.14
228.96,3.10
231.25,3.07
233.57,3.05
235.90,3.02
238.26,2.99
240.64,2.95
243.05,2.90
245.48,2.85
247.93,2.82
250.41,2.79
252.92,2.76
255.45,2.72
258.00,2.69
260.58,2.64
263.19,2.60
265.82,2.56
268.48,2.51
271.16,2.46
273.87,2.40
276.61,2.33
279.38,2.28
282.17,2.24
284.99,2.19
287.84,2.14
290.72,2.09
293.63,2.03
296.57,1.97
299.53,1.91
302.53,1.85
305.55,1.80
308.61,1.73
311.69,1.69
314.81,1.62
317.96,1.56
321.14,1.48
324.35,1.43
327.59,1.37
330.87,1.30
334.18,1.22
337.52,1.14
340.90,1.06
344.30,0.99
347.75,0.93
351.23,0.87
354.74,0.78
358.28,0.71
361.87,0.64
365.49,0.58
369.14,0.51
372.83,0.44
376.56,0.37
380.33,0.30
384.13,0.23
387.97,0.17
391.85,0.09
395.77,0.02
399.73,-0.06
403.72,-0.12
407.76,-0.21
411.84,-0.28
415.96,-0.36
420.12,-0.44
424.32,-0.51
428.56,-0.60
432.85,-0.67
437.18,-0.74
441.55,-0.81
445.96,-0.87
450.42,-0.94
454.93,-1.01
459.48,-1.07
464.07,-1.13
468.71,-1.19
473.40,-1.26
478.13,-1.33
482.91,-1.39
487.74,-1.45
492.62,-1.53
497.55,-1.61
502.52,-1.68
507.55,-1.74
512.62,-1.81
517.75,-1.89
522.93,-1.96
528.16,-2.03
533.44,-2.10
538.77,-2.16
544.16,-2.22
549.60,-2.27
555.10,-2.33
560.65,-2.38
566.25,-2.44
571.92,-2.50
577.64,-2.55
583.41,-2.60
589.25,-2.64
595.14,-2.69
601.09,-2.74
607.10,-2.77
613.17,-2.82
619.30,-2.84
625.50,-2.86
631.75,-2.87
638.07,-2.90
644.45,-2.92
650.89,-2.93
657.40,-2.93
663.98,-2.93
670.62,-2.93
677.32,-2.92
684.10,-2.92
690.94,-2.92
697.85,-2.92
704.83,-2.93
711.87,-2.93
718.99,-2.93
726.18,-2.93
733.44,-2.93
740.78,-2.93
748.19,-2.93
755.67,-2.93
763.23,-2.94
770.86,-2.94
778.57,-2.95
786.35,-2.96
794.22,-2.95
802.16,-2.94
810.18,-2.93
818.28,-2.91
826.46,-2.87
834.73,-2.85
843.08,-2.81
851.51,-2.77
860.02,-2.73
868.62,-2.69
877.31,-2.65
886.08,-2.60
894.94,-2.56
903.89,-2.53
912.93,-2.49
922.06,-2.44
931.28,-2.39
940.59,-2.34
950.00,-2.28
959.50,-2.23
969.09,-2.17
978.78,-2.11
988.57,-2.03
998.46,-1.94
1008.44,-1.86
1018.53,-1.77
1028.71,-1.69
1039.00,-1.59
1049.39,-1.50
1059.88,-1.41
1070.48,-1.33
1081.19,-1.25
1092.00,-1.17
1102.92,-1.09
1113.95,-1.01
1125.09,-0.93
1136.34,-0.84
1147.70,-0.75
1159.18,-0.66
1170.77,-0.57
1182.48,-0.48
1194.30,-0.40
1206.25,-0.32
1218.31,-0.24
1230.49,-0.15
1242.80,-0.08
1255.22,-0.01
1267.78,0.06
1280.45,0.13
1293.26,0.21
1306.19,0.28
1319.25,0.36
1332.45,0.43
1345.77,0.51
1359.23,0.59
1372.82,0.66
1386.55,0.74
1400.41,0.81
1414.42,0.88
1428.56,0.94
1442.85,1.00
1457.28,1.05
1471.85,1.08
1486.57,1.11
1501.43,1.13
1516.45,1.14
1531.61,1.16
1546.93,1.19
1562.40,1.21
1578.02,1.24
1593.80,1.27
1609.74,1.30
1625.84,1.34
1642.10,1.40
1658.52,1.44
1675.10,1.49
1691.85,1.55
1708.77,1.61
1725.86,1.68
1743.12,1.75
1760.55,1.83
1778.15,1.92
1795.94,1.99
1813.90,2.06
1832.03,2.14
1850.36,2.21
1868.86,2.31
1887.55,2.40
1906.42,2.50
1925.49,2.60
1944.74,2.70
1964.19,2.79
1983.83,2.90
2003.67,3.01
2023.71,3.13
2043.94,3.24
2064.38,3.35
2085.03,3.47
2105.88,3.60
2126.94,3.73
2148.20,3.85
2169.69,3.99
2191.38,4.14
2213.30,4.28
2235.43,4.40
2257.78,4.54
2280.36,4.67
2303.17,4.79
2326.20,4.90
2349.46,5.02
2372.95,5.13
2396.68,5.26
2420.65,5.36
2444.86,5.47
2469.31,5.58
2494.00,5.66
2518.94,5.75
2544.13,5.84
2569.57,5.92
2595.27,5.98
2621.22,6.04
2647.43,6.11
2673.90,6.16
2700.64,6.22
2727.65,6.27
2754.93,6.32
2782.48,6.36
2810.30,6.40
2838.40,6.43
2866.79,6.46
2895.46,6.48
2924.41,6.51
2953.65,6.53
2983.19,6.54
3013.02,6.53
3043.15,6.51
3073.58,6.47
3104.32,6.42
3135.36,6.35
3166.72,6.26
3198.38,6.16
3230.37,6.04
3262.67,5.91
3295.30,5.76
3328.25,5.60
3361.53,5.42
3395.15,5.23
3429.10,4.99
3463.39,4.74
3498.03,4.46
3533.01,4.16
3568.34,3.83
3604.02,3.48
3640.06,3.11
3676.46,2.73
3713.22,2.31
3750.36,1.90
3787.86,1.47
3825.74,1.03
3864.00,0.63
3902.64,0.24
3941.66,-0.11
3981.08,-0.43
4020.89,-0.68
4061.10,-0.89
4101.71,-1.06
4142.73,-1.16
4184.15,-1.22
4226.00,-1.23
4268.26,-1.17
4310.94,-1.08
4354.05,-0.96
4397.59,-0.80
4441.56,-0.60
4485.98,-0.38
4530.84,-0.16
4576.15,0.08
4621.91,0.31
4668.13,0.54
4714.81,0.76
4761.96,0.97
4809.58,1.18
4857.67,1.38
4906.25,1.56
4955.31,1.71
5004.87,1.85
5054.91,1.97
5105.46,2.06
5156.52,2.13
5208.08,2.16
5260.16,2.18
5312.77,2.16
5365.89,2.11
5419.55,2.03
5473.75,1.93
5528.49,1.81
5583.77,1.66
5639.61,1.50
5696.00,1.32
5752.96,1.13
5810.49,0.93
5868.60,0.73
5927.28,0.51
5986.56,0.30
6046.42,0.09
6106.89,-0.13
6167.96,-0.31
6229.64,-0.48
6291.93,-0.62
6354.85,-0.73
6418.40,-0.79
6482.58,-0.83
6547.41,-0.84
6612.88,-0.80
6679.01,-0.73
6745.80,-0.61
6813.26,-0.44
6881.39,-0.21
6950.21,0.08
7019.71,0.42
7089.91,0.81
7160.81,1.26
7232.41,1.74
7304.74,2.25
7377.79,2.77
7451.56,3.29
7526.08,3.83
7601.34,4.34
7677.35,4.81
7754.13,5.23
7831.67,5.58
7909.98,5.85
7989.08,6.03
8068.98,6.10
8149.67,6.06
8231.16,5.91
8313.47,5.66
8396.61,5.33
8480.57,4.91
8565.38,4.44
8651.03,3.91
8737.54,3.33
8824.92,2.75
8913.17,2.15
9002.30,1.55
9092.32,0.97
9183.25,0.40
9275.08,-0.13
9367.83,-0.61
9461.51,-1.09
9556.12,-1.54
9651.68,-1.95
9748.20,-2.32
9845.68,-2.68
9944.14,-3.01
10043.58,-3.32
10144.02,-3.62
10245.46,-3.92
10347.91,-4.21
10451.39,-4.49
10555.91,-4.76
10661.46,-5.03
10768.08,-5.30
10875.76,-5.57
10984.52,-5.86
11094.36,-6.15
11205.31,-6.43
11317.36,-6.70
11430.53,-6.98
11544.84,-7.24
11660.29,-7.48
11776.89,-7.73
11894.66,-7.96
12013.60,-8.18
12133.74,-8.38
12255.08,-8.59
12377.63,-8.81
12501.41,-9.05
12626.42,-9.34
12752.68,-9.64
12880.21,-10.00
13009.01,-10.40
13139.10,-10.88
13270.49,-11.42
13403.20,-12.02
13537.23,-12.67
13672.60,-13.34
13809.33,-14.01
13947.42,-14.67
14086.90,-15.28
14227.77,-15.84
14370.04,-16.32
14513.74,-16.72
14658.88,-17.04
14805.47,-17.24
14953.52,-17.33
15103.06,-17.32
15254.09,-17.23
15406.63,-17.05
15560.70,-16.79
15716.30,-16.48
15873.47,-16.12
16032.20,-15.76
16192.52,-15.39
16354.45,-15.02
16517.99,-14.63
16683.17,-14.24
16850.01,-13.83
17018.51,-13.41
17188.69,-12.97
17360.58,-12.54
17534.18,-12.13
17709.53,-11.76
17886.62,-11.43
18065.49,-11.21
18246.14,-11.04
18428.60,-10.90
18612.89,-10.79
18799.02,-10.72
18987.01,-10.68
19176.88,-10.70
19368.65,-10.74
19562.33,-10.81
19757.96,-10.93
19955.54,-11.08
