frequency,raw,error,smoothed,error_smoothed,equalization,parametric_eq,fixed_band_eq,equalized_raw,equalized_smoothed,target
20.00,-9.45,-11.86,-9.45,-11.86,6.00,5.13,2.71,-3.45,-3.45,2.41
20.20,-9.42,-11.83,-9.41,-11.82,6.00,5.17,2.79,-3.42,-3.41,2.41
20.40,-9.36,-11.77,-9.35,-11.77,6.00,5.21,2.87,-3.36,-3.35,2.41
20.61,-9.30,-11.71,-9.30,-11.71,6.00,5.25,2.95,-3.30,-3.30,2.41
20.81,-9.23,-11.64,-9.23,-11.64,6.00,5.29,3.04,-3.23,-3.23,2.41
21.02,-9.16,-11.57,-9.16,-11.57,6.00,5.33,3.12,-3.16,-3.16,2.41
21.23,-9.10,-11.51,-9.09,-11.51,6.00,5.36,3.21,-3.10,-3.09,2.42
21.44,-9.02,-11.43,-9.03,-11.44,6.00,5.40,3.30,-3.02,-3.03,2.42
21.66,-8.97,-11.39,-8.96,-11.38,6.00,5.44,3.40,-2.97,-2.96,2.42
21.87,-8.90,-11.32,-8.90,-11.32,6.00,5.48,3.49,-2.90,-2.90,2.42
22.09,-8.84,-11.26,-8.84,-11.26,6.00,5.52,3.59,-2.84,-2.84,2.42
22.31,-8.78,-11.20,-8.77,-11.19,6.00,5.55,3.70,-2.78,-2.77,2.42
22.54,-8.71,-11.13,-8.71,-11.13,6.00,5.59,3.80,-2.71,-2.71,2.42
22.76,-8.65,-11.07,-8.64,-11.07,6.00,5.62,3.91,-2.65,-2.64,2.42
22.99,-8.58,-11.00,-8.58,-11.00,6.00,5.66,4.02,-2.58,-2.58,2.42
23.22,-8.52,-10.94,-8.52,-10.94,6.00,5.69,4.13,-2.52,-2.52,2.43
23.45,-8.46,-10.88,-8.46,-10.88,6.00,5.73,4.25,-2.46,-2.46,2.43
23.69,-8.40,-10.83,-8.40,-10.82,6.00,5.76,4.37,-2.40,-2.40,2.43
23.92,-8.34,-10.76,-8.34,-10.77,6.00,5.80,4.49,-2.34,-2.34,2.43
24.16,-8.28,-10.71,-8.28,-10.71,6.00,5.83,4.61,-2.28,-2.28,2.43
24.40,-8.22,-10.65,-8.21,-10.64,6.00,5.86,4.74,-2.22,-2.21,2.43
24.65,-8.15,-10.58,-8.15,-10.58,6.00,5.89,4.86,-2.15,-2.15,2.43
24.89,-8.09,-10.52,-8.09,-10.52,6.00,5.92,4.99,-2.09,-2.09,2.43
25.14,-8.04,-10.47,-8.03,-10.46,6.00,5.95,5.12,-2.04,-2.03,2.43
25.39,-7.98,-10.41,-7.97,-10.40,6.00,5.98,5.25,-1.98,-1.97,2.43
25.65,-7.90,-10.33,-7.91,-10.35,6.00,6.01,5.38,-1.90,-1.91,2.44
25.91,-7.86,-10.29,-7.86,-10.29,6.00,6.04,5.52,-1.86,-1.86,2.44
26.16,-7.81,-10.24,-7.81,-10.24,6.00,6.07,5.65,-1.81,-1.81,2.44
26.43,-7.76,-10.20,-7.75,-10.19,6.00,6.09,5.78,-1.76,-1.75,2.44
26.69,-7.70,-10.14,-7.69,-10.13,6.00,6.12,5.91,-1.70,-1.69,2.44
26.96,-7.62,-10.06,-7.63,-10.07,6.00,6.14,6.04,-1.62,-1.63,2.44
27.23,-7.57,-10.01,-7.56,-10.00,6.00,6.17,6.17,-1.57,-1.56,2.44
27.50,-7.51,-9.95,-7.50,-9.94,6.00,6.19,6.30,-1.51,-1.50,2.44
27.77,-7.45,-9.89,-7.45,-9.89,6.00,6.22,6.42,-1.45,-1.45,2.44
28.05,-7.39,-9.83,-7.39,-9.83,6.00,6.24,6.54,-1.39,-1.39,2.44
28.33,-7.34,-9.78,-7.34,-9.78,6.00,6.26,6.65,-1.34,-1.34,2.44
28.62,-7.30,-9.74,-7.29,-9.74,6.00,6.28,6.76,-1.30,-1.29,2.44
28.90,-7.25,-9.69,-7.24,-9.68,6.00,6.30,6.86,-1.25,-1.24,2.44
29.19,-7.18,-9.62,-7.18,-9.62,6.00,6.32,6.95,-1.18,-1.18,2.44
29.48,-7.12,-9.56,-7.12,-9.56,6.00,6.34,7.04,-1.12,-1.12,2.44
29.78,-7.06,-9.50,-7.06,-9.50,6.00,6.36,7.12,-1.06,-1.06,2.44
30.08,-7.01,-9.45,-7.00,-9.45,6.00,6.37,7.19,-1.01,-1.00,2.44
30.38,-6.95,-9.39,-6.95,-9.39,6.00,6.39,7.24,-0.95,-0.95,2.45
30.68,-6.90,-9.34,-6.90,-9.34,6.00,6.40,7.29,-0.90,-0.90,2.45
30.99,-6.84,-9.28,-6.84,-9.28,6.00,6.42,7.33,-0.84,-0.84,2.45
31.30,-6.79,-9.23,-6.79,-9.23,6.00,6.43,7.36,-0.79,-0.79,2.45
31.61,-6.73,-9.17,-6.73,-9.18,6.00,6.44,7.38,-0.73,-0.73,2.45
31.93,-6.69,-9.13,-6.69,-9.13,6.00,6.45,7.39,-0.69,-0.69,2.45
32.24,-6.64,-9.08,-6.64,-9.08,6.00,6.46,7.39,-0.64,-0.64,2.45
32.57,-6.59,-9.03,-6.58,-9.03,6.00,6.47,7.38,-0.59,-0.58,2.45
32.89,-6.53,-8.97,-6.52,-8.97,6.00,6.48,7.36,-0.53,-0.52,2.45
33.22,-6.47,-8.91,-6.47,-8.91,6.00,6.49,7.33,-0.47,-0.47,2.45
33.55,-6.41,-8.85,-6.42,-8.86,6.00,6.49,7.29,-0.41,-0.42,2.45
33.89,-6.38,-8.82,-6.37,-8.81,6.00,6.50,7.25,-0.38,-0.37,2.45
34.23,-6.32,-8.76,-6.32,-8.76,6.00,6.50,7.20,-0.32,-0.32,2.44
34.57,-6.27,-8.71,-6.27,-8.71,6.00,6.51,7.14,-0.27,-0.27,2.44
34.92,-6.22,-8.66,-6.22,-8.66,6.00,6.51,7.08,-0.22,-0.22,2.44
35.27,-6.18,-8.62,-6.17,-8.62,6.00,6.51,7.01,-0.18,-0.17,2.44
35.62,-6.13,-8.57,-6.12,-8.57,6.00,6.51,6.95,-0.13,-0.12,2.44
35.97,-6.07,-8.51,-6.07,-8.51,6.00,6.51,6.87,-0.07,-0.07,2.44
36.33,-6.02,-8.46,-6.02,-8.46,6.00,6.51,6.80,-0.02,-0.02,2.44
36.70,-5.98,-8.42,-5.97,-8.41,6.00,6.51,6.73,0.02,0.03,2.44
37.06,-5.93,-8.37,-5.92,-8.36,6.00,6.50,6.66,0.07,0.08,2.44
37.43,-5.88,-8.31,-5.87,-8.31,6.00,6.50,6.58,0.12,0.13,2.44
37.81,-5.82,-8.25,-5.82,-8.26,6.00,6.49,6.51,0.18,0.18,2.44
38.19,-5.78,-8.21,-5.78,-8.21,6.00,6.49,6.44,0.22,0.22,2.44
38.57,-5.74,-8.17,-5.73,-8.16,6.00,6.48,6.37,0.26,0.27,2.43
38.95,-5.68,-8.11,-5.68,-8.11,6.00,6.47,6.30,0.32,0.32,2.43
39.34,-5.63,-8.06,-5.63,-8.06,6.00,6.46,6.24,0.37,0.37,2.43
39.74,-5.58,-8.01,-5.58,-8.01,6.00,6.45,6.17,0.42,0.42,2.43
40.14,-5.54,-7.97,-5.53,-7.96,6.00,6.44,6.11,0.46,0.47,2.43
40.54,-5.49,-7.91,-5.49,-7.91,6.00,6.43,6.06,0.51,0.51,2.43
40.94,-5.44,-7.86,-5.44,-7.87,6.00,6.42,6.01,0.56,0.56,2.42
41.35,-5.40,-7.82,-5.39,-7.81,6.00,6.40,5.96,0.60,0.61,2.42
41.76,-5.35,-7.77,-5.34,-7.76,6.00,6.39,5.91,0.65,0.66,2.42
42.18,-5.29,-7.70,-5.30,-7.71,6.00,6.37,5.87,0.71,0.70,2.42
42.60,-5.26,-7.67,-5.25,-7.67,6.00,6.36,5.84,0.74,0.75,2.41
43.03,-5.22,-7.63,-5.22,-7.63,6.00,6.34,5.80,0.78,0.78,2.41
43.46,-5.18,-7.59,-5.18,-7.59,6.00,6.32,5.78,0.82,0.82,2.41
43.90,-5.15,-7.55,-5.14,-7.54,6.00,6.30,5.75,0.85,0.86,2.41
44.33,-5.09,-7.49,-5.10,-7.50,6.00,6.28,5.73,0.91,0.90,2.40
44.78,-5.06,-7.46,-5.05,-7.45,6.00,6.26,5.72,0.94,0.95,2.40
45.23,-5.01,-7.40,-5.00,-7.40,6.00,6.24,5.71,0.99,1.00,2.39
45.68,-4.95,-7.34,-4.96,-7.35,6.00,6.22,5.70,1.05,1.04,2.39
46.13,-4.92,-7.30,-4.91,-7.30,6.00,6.20,5.70,1.08,1.09,2.39
46.60,-4.87,-7.25,-4.87,-7.25,6.00,6.17,5.70,1.13,1.13,2.38
47.06,-4.84,-7.21,-4.83,-7.21,6.00,6.15,5.71,1.16,1.17,2.38
47.53,-4.78,-7.15,-4.79,-7.16,6.00,6.12,5.72,1.22,1.21,2.37
48.01,-4.75,-7.11,-4.75,-7.11,6.00,6.10,5.73,1.25,1.25,2.37
48.49,-4.72,-7.08,-4.70,-7.07,6.00,6.07,5.75,1.28,1.30,2.36
48.97,-4.66,-7.01,-4.67,-7.02,6.00,6.04,5.77,1.34,1.33,2.36
49.46,-4.63,-6.98,-4.63,-6.98,6.00,6.01,5.80,1.37,1.37,2.35
49.96,-4.60,-6.94,-4.59,-6.94,6.00,5.98,5.83,1.40,1.41,2.35
50.46,-4.57,-6.91,-4.56,-6.90,6.00,5.95,5.86,1.43,1.44,2.34
50.96,-4.52,-6.85,-4.52,-6.86,6.00,5.92,5.89,1.48,1.48,2.33
51.47,-4.48,-6.80,-4.48,-6.81,6.00,5.89,5.92,1.52,1.52,2.33
51.99,-4.45,-6.77,-4.44,-6.76,6.00,5.86,5.96,1.55,1.56,2.32
52.51,-4.40,-6.71,-4.40,-6.72,6.00,5.83,6.00,1.60,1.60,2.31
53.03,-4.37,-6.67,-4.37,-6.67,6.00,5.80,6.03,1.63,1.63,2.30
53.56,-4.34,-6.63,-4.33,-6.62,6.00,5.76,6.07,1.66,1.67,2.30
54.10,-4.29,-6.57,-4.29,-6.58,6.00,5.73,6.11,1.71,1.71,2.29
54.64,-4.25,-6.53,-4.25,-6.53,6.00,5.70,6.15,1.75,1.75,2.28
55.18,-4.22,-6.49,-4.22,-6.48,6.00,5.66,6.19,1.78,1.78,2.27
55.74,-4.19,-6.45,-4.18,-6.44,6.00,5.63,6.22,1.81,1.82,2.26
56.29,-4.15,-6.40,-4.15,-6.40,6.00,5.59,6.26,1.85,1.85,2.25
56.86,-4.12,-6.36,-4.12,-6.36,6.00,5.55,6.29,1.88,1.88,2.24
57.42,-4.10,-6.33,-4.09,-6.31,6.00,5.52,6.31,1.90,1.92,2.23
58.00,-4.05,-6.27,-4.05,-6.27,6.00,5.48,6.33,1.96,1.95,2.22
58.58,-4.01,-6.21,-4.01,-6.22,6.01,5.44,6.35,2.00,1.99,2.21
59.16,-3.98,-6.17,-3.97,-6.17,6.01,5.40,6.36,2.03,2.03,2.20
59.76,-3.95,-6.13,-3.94,-6.13,6.01,5.37,6.37,2.06,2.06,2.18
60.35,-3.91,-6.08,-3.91,-6.08,6.00,5.33,6.37,2.09,2.08,2.17
60.96,-3.89,-6.04,-3.88,-6.04,5.98,5.29,6.37,2.10,2.10,2.16
61.57,-3.85,-5.99,-3.85,-5.99,5.96,5.25,6.36,2.11,2.12,2.14
62.18,-3.82,-5.95,-3.81,-5.94,5.93,5.21,6.34,2.12,2.12,2.13
62.80,-3.77,-5.88,-3.78,-5.90,5.90,5.17,6.31,2.13,2.12,2.11
63.43,-3.76,-5.86,-3.75,-5.85,5.86,5.13,6.28,2.10,2.11,2.10
64.07,-3.73,-5.81,-3.72,-5.80,5.81,5.09,6.24,2.09,2.09,2.08
64.71,-3.68,-5.75,-3.69,-5.76,5.76,5.05,6.19,2.09,2.07,2.07
65.35,-3.67,-5.72,-3.66,-5.71,5.71,5.00,6.14,2.05,2.05,2.05
66.01,-3.63,-5.66,-3.63,-5.66,5.66,4.96,6.08,2.04,2.03,2.03
66.67,-3.61,-5.62,-3.60,-5.62,5.62,4.92,6.02,2.01,2.01,2.02
67.33,-3.57,-5.57,-3.57,-5.57,5.57,4.88,5.95,2.00,2.00,2.00
68.01,-3.54,-5.52,-3.54,-5.52,5.52,4.84,5.88,1.98,1.98,1.98
68.69,-3.51,-5.47,-3.51,-5.47,5.47,4.79,5.80,1.97,1.96,1.96
69.37,-3.50,-5.44,-3.49,-5.43,5.43,4.75,5.71,1.93,1.94,1.94
70.07,-3.45,-5.37,-3.46,-5.38,5.38,4.71,5.63,1.93,1.92,1.92
70.77,-3.44,-5.34,-3.43,-5.33,5.33,4.67,5.54,1.89,1.90,1.90
71.48,-3.40,-5.27,-3.40,-5.28,5.28,4.62,5.45,1.88,1.88,1.88
72.19,-3.38,-5.23,-3.38,-5.23,5.23,4.58,5.35,1.86,1.86,1.86
72.91,-3.36,-5.19,-3.35,-5.18,5.18,4.54,5.26,1.83,1.83,1.83
73.64,-3.32,-5.13,-3.32,-5.13,5.13,4.49,5.16,1.82,1.81,1.81
74.38,-3.31,-5.09,-3.30,-5.08,5.08,4.45,5.07,1.77,1.78,1.78
75.12,-3.26,-5.02,-3.27,-5.03,5.03,4.41,4.97,1.77,1.76,1.76
75.87,-3.25,-4.98,-3.24,-4.98,4.97,4.36,4.88,1.73,1.73,1.74
76.63,-3.22,-4.93,-3.21,-4.92,4.92,4.32,4.78,1.71,1.71,1.71
77.40,-3.18,-4.86,-3.18,-4.87,4.87,4.28,4.69,1.69,1.68,1.68
78.17,-3.17,-4.82,-3.16,-4.81,4.82,4.23,4.60,1.65,1.66,1.66
78.95,-3.12,-4.75,-3.13,-4.76,4.76,4.19,4.51,1.65,1.63,1.63
79.74,-3.12,-4.72,-3.11,-4.71,4.71,4.15,4.42,1.59,1.60,1.60
80.54,-3.08,-4.65,-3.08,-4.66,4.65,4.10,4.33,1.58,1.57,1.57
81.35,-3.08,-4.62,-3.06,-4.61,4.60,4.06,4.25,1.52,1.53,1.54
82.16,-3.03,-4.54,-3.03,-4.55,4.54,4.02,4.17,1.52,1.51,1.51
82.98,-3.01,-4.49,-3.01,-4.49,4.49,3.97,4.09,1.48,1.48,1.48
83.81,-2.98,-4.43,-2.98,-4.43,4.43,3.93,4.01,1.45,1.46,1.45
84.65,-2.95,-4.37,-2.95,-4.37,4.37,3.89,3.94,1.43,1.42,1.42
85.50,-2.94,-4.32,-2.93,-4.32,4.32,3.84,3.86,1.38,1.39,1.39
86.35,-2.91,-4.26,-2.91,-4.26,4.26,3.80,3.79,1.36,1.35,1.35
87.22,-2.89,-4.21,-2.89,-4.21,4.21,3.76,3.73,1.32,1.32,1.32
88.09,-2.87,-4.16,-2.86,-4.15,4.15,3.71,3.66,1.29,1.29,1.29
88.97,-2.84,-4.09,-2.85,-4.10,4.10,3.67,3.60,1.26,1.26,1.25
89.86,-2.84,-4.06,-2.83,-4.05,4.05,3.63,3.55,1.21,1.22,1.22
90.76,-2.81,-3.99,-2.81,-4.00,4.00,3.59,3.49,1.19,1.18,1.19
91.66,-2.80,-3.95,-2.80,-3.95,3.95,3.54,3.44,1.15,1.15,1.15
92.58,-2.80,-3.91,-2.78,-3.90,3.90,3.50,3.39,1.10,1.12,1.11
93.51,-2.76,-3.84,-2.77,-3.84,3.85,3.46,3.34,1.09,1.08,1.08
94.44,-2.75,-3.79,-2.76,-3.80,3.80,3.42,3.30,1.05,1.04,1.04
95.39,-2.75,-3.75,-2.74,-3.75,3.75,3.38,3.25,1.00,1.00,1.01
96.34,-2.75,-3.72,-2.73,-3.70,3.70,3.33,3.21,0.95,0.97,0.97
97.30,-2.72,-3.65,-2.72,-3.65,3.65,3.29,3.18,0.94,0.93,0.93
98.28,-2.70,-3.59,-2.71,-3.60,3.60,3.25,3.14,0.91,0.90,0.89
99.26,-2.70,-3.55,-2.70,-3.55,3.56,3.21,3.11,0.86,0.86,0.86
100.25,-2.70,-3.52,-2.69,-3.51,3.51,3.17,3.07,0.81,0.82,0.82
101.25,-2.69,-3.47,-2.68,-3.46,3.46,3.13,3.05,0.77,0.78,0.78
102.27,-2.66,-3.40,-2.67,-3.41,3.41,3.09,3.02,0.75,0.74,0.74
103.29,-2.66,-3.36,-2.66,-3.36,3.36,3.05,2.99,0.70,0.70,0.71
104.32,-2.66,-3.32,-2.64,-3.31,3.31,3.01,2.97,0.65,0.67,0.67
105.37,-2.62,-3.25,-2.63,-3.26,3.26,2.97,2.94,0.64,0.63,0.63
106.42,-2.61,-3.20,-2.62,-3.21,3.21,2.93,2.92,0.60,0.59,0.59
107.48,-2.61,-3.16,-2.60,-3.15,3.16,2.89,2.90,0.55,0.55,0.55
108.56,-2.61,-3.12,-2.59,-3.11,3.10,2.85,2.88,0.50,0.51,0.52
109.64,-2.56,-3.03,-2.58,-3.06,3.05,2.81,2.86,0.50,0.48,0.48
110.74,-2.56,-3.00,-2.56,-3.00,3.00,2.77,2.84,0.44,0.44,0.44
111.85,-2.56,-2.96,-2.54,-2.94,2.95,2.74,2.82,0.39,0.41,0.40
112.97,-2.52,-2.88,-2.54,-2.90,2.90,2.70,2.80,0.38,0.36,0.37
114.10,-2.52,-2.85,-2.52,-2.84,2.84,2.66,2.77,0.32,0.32,0.33
115.24,-2.52,-2.81,-2.50,-2.79,2.79,2.62,2.75,0.27,0.29,0.29
116.39,-2.47,-2.72,-2.48,-2.74,2.73,2.59,2.73,0.27,0.25,0.25
117.55,-2.47,-2.69,-2.46,-2.67,2.68,2.55,2.71,0.21,0.22,0.22
118.73,-2.43,-2.61,-2.44,-2.62,2.62,2.51,2.69,0.20,0.19,0.18
119.92,-2.42,-2.56,-2.42,-2.57,2.57,2.48,2.66,0.15,0.15,0.15
121.12,-2.42,-2.53,-2.40,-2.52,2.51,2.44,2.64,0.10,0.11,0.11
122.33,-2.38,-2.45,-2.39,-2.46,2.46,2.40,2.61,0.08,0.07,0.08
123.55,-2.38,-2.42,-2.37,-2.41,2.41,2.37,2.58,0.03,0.04,0.04
124.79,-2.34,-2.34,-2.35,-2.36,2.36,2.33,2.55,0.02,0.01,0.01
126.03,-2.33,-2.30,-2.33,-2.30,2.30,2.30,2.52,-0.02,-0.03,-0.03
127.29,-2.33,-2.27,-2.31,-2.25,2.25,2.26,2.49,-0.08,-0.06,-0.06
128.57,-2.28,-2.19,-2.29,-2.20,2.20,2.23,2.45,-0.08,-0.09,-0.09
129.85,-2.28,-2.15,-2.27,-2.14,2.15,2.19,2.42,-0.13,-0.12,-0.12
131.15,-2.24,-2.08,-2.25,-2.09,2.10,2.16,2.38,-0.14,-0.15,-0.16
132.46,-2.24,-2.05,-2.23,-2.05,2.04,2.13,2.34,-0.19,-0.19,-0.19
133.79,-2.22,-2.00,-2.21,-2.00,1.99,2.09,2.30,-0.22,-0.22,-0.22
135.12,-2.19,-1.94,-2.19,-1.95,1.94,2.06,2.26,-0.25,-0.25,-0.25
136.48,-2.18,-1.90,-2.17,-1.89,1.89,2.03,2.22,-0.28,-0.28,-0.28
137.84,-2.14,-1.83,-2.15,-1.84,1.84,1.99,2.17,-0.29,-0.30,-0.31
139.22,-2.14,-1.80,-2.13,-1.79,1.80,1.96,2.13,-0.34,-0.33,-0.33
140.61,-2.10,-1.74,-2.11,-1.75,1.75,1.93,2.08,-0.35,-0.36,-0.36
142.02,-2.10,-1.71,-2.09,-1.70,1.70,1.90,2.04,-0.39,-0.39,-0.39
143.44,-2.09,-1.67,-2.07,-1.66,1.66,1.87,1.99,-0.43,-0.41,-0.42
144.87,-2.05,-1.61,-2.06,-1.62,1.62,1.84,1.94,-0.43,-0.45,-0.44
146.32,-2.05,-1.58,-2.04,-1.58,1.58,1.81,1.90,-0.47,-0.47,-0.47
147.78,-2.04,-1.55,-2.02,-1.53,1.54,1.78,1.85,-0.50,-0.49,-0.49
149.26,-2.00,-1.48,-2.01,-1.50,1.50,1.75,1.80,-0.50,-0.52,-0.52
150.75,-2.00,-1.46,-2.00,-1.46,1.46,1.72,1.75,-0.54,-0.54,-0.54
152.26,-2.00,-1.43,-1.98,-1.42,1.42,1.69,1.71,-0.58,-0.56,-0.56
153.78,-1.96,-1.37,-1.97,-1.39,1.38,1.66,1.66,-0.57,-0.59,-0.58
155.32,-1.96,-1.35,-1.95,-1.35,1.34,1.63,1.61,-0.61,-0.61,-0.61
156.88,-1.95,-1.32,-1.94,-1.31,1.31,1.60,1.57,-0.64,-0.63,-0.63
158.44,-1.91,-1.26,-1.92,-1.27,1.27,1.57,1.52,-0.64,-0.65,-0.65
160.03,-1.91,-1.24,-1.90,-1.23,1.23,1.54,1.48,-0.68,-0.67,-0.67
161.63,-1.88,-1.19,-1.88,-1.19,1.19,1.51,1.43,-0.68,-0.69,-0.69
163.24,-1.86,-1.15,-1.86,-1.16,1.16,1.49,1.39,-0.70,-0.70,-0.71
164.88,-1.86,-1.13,-1.84,-1.12,1.12,1.46,1.35,-0.74,-0.72,-0.73
166.53,-1.82,-1.07,-1.83,-1.09,1.09,1.43,1.30,-0.73,-0.75,-0.74
168.19,-1.82,-1.06,-1.82,-1.06,1.05,1.41,1.26,-0.76,-0.76,-0.76
169.87,-1.82,-1.04,-1.80,-1.02,1.02,1.38,1.22,-0.80,-0.78,-0.78
171.57,-1.77,-0.97,-1.79,-0.99,0.99,1.35,1.18,-0.78,-0.80,-0.79
173.29,-1.77,-0.96,-1.77,-0.96,0.96,1.33,1.14,-0.81,-0.81,-0.81
175.02,-1.77,-0.94,-1.75,-0.92,0.93,1.30,1.10,-0.84,-0.82,-0.82
176.77,-1.72,-0.88,-1.74,-0.90,0.90,1.28,1.06,-0.82,-0.84,-0.84
178.54,-1.72,-0.86,-1.72,-0.86,0.87,1.25,1.03,-0.85,-0.85,-0.85
180.32,-1.72,-0.85,-1.70,-0.83,0.84,1.23,0.99,-0.88,-0.86,-0.87
182.13,-1.68,-0.80,-1.69,-0.81,0.81,1.20,0.95,-0.87,-0.89,-0.88
183.95,-1.68,-0.78,-1.68,-0.78,0.78,1.18,0.92,-0.90,-0.90,-0.89
185.79,-1.68,-0.77,-1.66,-0.75,0.75,1.15,0.88,-0.92,-0.90,-0.91
187.65,-1.63,-0.71,-1.64,-0.73,0.73,1.13,0.85,-0.90,-0.91,-0.92
189.52,-1.63,-0.70,-1.63,-0.70,0.70,1.11,0.82,-0.92,-0.93,-0.93
191.42,-1.63,-0.69,-1.62,-0.68,0.68,1.08,0.78,-0.95,-0.94,-0.94
193.33,-1.63,-0.68,-1.61,-0.66,0.66,1.06,0.75,-0.97,-0.95,-0.95
195.27,-1.58,-0.62,-1.59,-0.63,0.63,1.04,0.72,-0.94,-0.96,-0.96
197.22,-1.58,-0.61,-1.58,-0.61,0.61,1.01,0.69,-0.97,-0.97,-0.97
199.19,-1.58,-0.60,-1.57,-0.59,0.59,0.99,0.66,-0.99,-0.98,-0.98
201.18,-1.57,-0.58,-1.56,-0.57,0.57,0.97,0.63,-1.00,-0.99,-0.99
203.19,-1.54,-0.54,-1.55,-0.55,0.55,0.95,0.60,-0.99,-1.00,-1.00
205.23,-1.54,-0.53,-1.54,-0.53,0.53,0.92,0.58,-1.01,-1.01,-1.01
207.28,-1.54,-0.52,-1.53,-0.51,0.51,0.90,0.55,-1.03,-1.02,-1.02
209.35,-1.52,-0.49,-1.51,-0.49,0.49,0.88,0.52,-1.03,-1.02,-1.02
211.44,-1.49,-0.46,-1.50,-0.47,0.47,0.86,0.50,-1.02,-1.03,-1.03
213.56,-1.49,-0.45,-1.49,-0.45,0.45,0.84,0.47,-1.04,-1.04,-1.04
215.69,-1.49,-0.44,-1.47,-0.43,0.43,0.82,0.45,-1.06,-1.04,-1.04
217.85,-1.46,-0.41,-1.46,-0.41,0.41,0.80,0.42,-1.05,-1.05,-1.05
220.03,-1.44,-0.38,-1.45,-0.39,0.39,0.78,0.40,-1.05,-1.06,-1.06
222.23,-1.44,-0.37,-1.44,-0.37,0.37,0.76,0.37,-1.06,-1.06,-1.06
224.45,-1.44,-0.37,-1.43,-0.36,0.36,0.74,0.35,-1.08,-1.07,-1.07
226.70,-1.42,-0.34,-1.42,-0.34,0.34,0.72,0.33,-1.08,-1.08,-1.08
228.96,-1.40,-0.32,-1.41,-0.33,0.33,0.70,0.31,-1.07,-1.08,-1.08
231.25,-1.40,-0.31,-1.40,-0.31,0.31,0.68,0.29,-1.09,-1.09,-1.09
233.57,-1.40,-0.31,-1.39,-0.30,0.29,0.66,0.27,-1.10,-1.09,-1.09
235.90,-1.38,-0.28,-1.37,-0.28,0.28,0.64,0.25,-1.10,-1.09,-1.09
238.26,-1.35,-0.25,-1.36,-0.26,0.26,0.62,0.23,-1.08,-1.10,-1.10
240.64,-1.35,-0.24,-1.35,-0.25,0.25,0.60,0.21,-1.10,-1.11,-1.10
243.05,-1.35,-0.24,-1.34,-0.23,0.23,0.58,0.20,-1.12,-1.11,-1.11
245.48,-1.35,-0.24,-1.33,-0.22,0.22,0.56,0.18,-1.13,-1.11,-1.11
247.93,-1.30,-0.18,-1.31,-0.20,0.20,0.54,0.16,-1.09,-1.11,-1.11
250.41,-1.30,-0.18,-1.30,-0.18,0.19,0.52,0.15,-1.11,-1.11,-1.12
252.92,-1.30,-0.18,-1.29,-0.17,0.18,0.51,0.13,-1.12,-1.12,-1.12
255.45,-1.30,-0.17,-1.30,-0.17,0.16,0.49,0.12,-1.13,-1.13,-1.12
258.00,-1.30,-0.17,-1.29,-0.16,0.15,0.47,0.11,-1.14,-1.13,-1.13
260.58,-1.27,-0.14,-1.27,-0.14,0.15,0.45,0.09,-1.12,-1.13,-1.13
263.19,-1.26,-0.12,-1.26,-0.13,0.14,0.43,0.08,-1.12,-1.12,-1.13
265.82,-1.26,-0.12,-1.25,-0.12,0.13,0.42,0.07,-1.13,-1.13,-1.13
268.48,-1.26,-0.12,-1.26,-0.12,0.12,0.40,0.06,-1.14,-1.14,-1.14
271.16,-1.26,-0.12,-1.26,-0.12,0.11,0.38,0.05,-1.15,-1.15,-1.14
273.87,-1.26,-0.12,-1.25,-0.10,0.10,0.36,0.04,-1.16,-1.15,-1.14
276.61,-1.23,-0.08,-1.23,-0.09,0.09,0.34,0.03,-1.14,-1.14,-1.14
279.38,-1.21,-0.06,-1.21,-0.07,0.08,0.33,0.02,-1.13,-1.13,-1.14
282.17,-1.21,-0.06,-1.20,-0.06,0.07,0.31,0.01,-1.14,-1.13,-1.15
284.99,-1.21,-0.06,-1.21,-0.06,0.06,0.29,0.00,-1.15,-1.15,-1.15
287.84,-1.21,-0.06,-1.21,-0.06,0.05,0.28,-0.01,-1.16,-1.16,-1.15
290.72,-1.21,-0.06,-1.20,-0.05,0.04,0.26,-0.02,-1.17,-1.16,-1.15
293.63,-1.19,-0.03,-1.18,-0.03,0.03,0.24,-0.03,-1.16,-1.15,-1.15
296.57,-1.16,-0.00,-1.17,-0.01,0.02,0.23,-0.03,-1.13,-1.14,-1.15
299.53,-1.16,-0.00,-1.16,-0.00,0.01,0.21,-0.04,-1.14,-1.14,-1.15
302.53,-1.16,-0.00,-1.15,0.00,0.01,0.19,-0.05,-1.15,-1.15,-1.16
305.55,-1.16,-0.00,-1.16,-0.00,-0.00,0.17,-0.06,-1.16,-1.16,-1.16
308.61,-1.16,-0.00,-1.15,0.00,-0.01,0.16,-0.07,-1.17,-1.17,-1.16
311.69,-1.16,0.00,-1.14,0.01,-0.02,0.14,-0.07,-1.17,-1.16,-1.16
314.81,-1.12,0.04,-1.13,0.03,-0.02,0.12,-0.08,-1.14,-1.15,-1.16
317.96,-1.12,0.04,-1.12,0.04,-0.03,0.11,-0.09,-1.15,-1.15,-1.16
321.14,-1.12,0.04,-1.12,0.04,-0.04,0.09,-0.10,-1.16,-1.16,-1.16
324.35,-1.12,0.04,-1.12,0.04,-0.05,0.07,-0.11,-1.17,-1.17,-1.16
327.59,-1.12,0.04,-1.11,0.05,-0.06,0.06,-0.11,-1.18,-1.17,-1.16
330.87,-1.09,0.07,-1.09,0.07,-0.07,0.04,-0.12,-1.16,-1.16,-1.16
334.18,-1.07,0.09,-1.07,0.08,-0.08,0.02,-0.13,-1.14,-1.15,-1.16
337.52,-1.07,0.09,-1.06,0.09,-0.08,0.01,-0.14,-1.15,-1.15,-1.16
340.90,-1.07,0.09,-1.07,0.09,-0.09,-0.01,-0.15,-1.16,-1.16,-1.16
344.30,-1.07,0.09,-1.07,0.09,-0.10,-0.02,-0.16,-1.17,-1.17,-1.16
347.75,-1.07,0.09,-1.06,0.10,-0.11,-0.04,-0.17,-1.18,-1.17,-1.16
351.23,-1.04,0.12,-1.04,0.12,-0.12,-0.06,-0.18,-1.16,-1.16,-1.16
354.74,-1.02,0.14,-1.03,0.13,-0.13,-0.07,-0.19,-1.14,-1.15,-1.16
358.28,-1.02,0.14,-1.02,0.14,-0.13,-0.09,-0.20,-1.15,-1.15,-1.16
361.87,-1.02,0.14,-1.01,0.14,-0.14,-0.11,-0.21,-1.15,-1.15,-1.16
365.49,-1.02,0.14,-1.02,0.14,-0.14,-0.12,-0.22,-1.16,-1.16,-1.16
369.14,-1.02,0.14,-1.02,0.14,-0.15,-0.14,-0.23,-1.17,-1.17,-1.16
372.83,-1.02,0.14,-1.01,0.15,-0.15,-0.16,-0.24,-1.17,-1.17,-1.16
376.56,-1.01,0.15,-1.00,0.16,-0.16,-0.17,-0.25,-1.17,-1.16,-1.16
380.33,-0.98,0.18,-0.99,0.17,-0.16,-0.19,-0.26,-1.14,-1.15,-1.16
384.13,-0.98,0.18,-0.98,0.18,-0.17,-0.21,-0.27,-1.15,-1.15,-1.16
387.97,-0.98,0.18,-0.98,0.18,-0.18,-0.22,-0.28,-1.16,-1.16,-1.16
391.85,-0.98,0.18,-0.97,0.19,-0.19,-0.24,-0.30,-1.17,-1.16,-1.16
395.77,-0.96,0.20,-0.95,0.20,-0.20,-0.26,-0.31,-1.16,-1.16,-1.16
399.73,-0.93,0.23,-0.94,0.21,-0.22,-0.27,-0.32,-1.14,-1.16,-1.15
403.72,-0.93,0.23,-0.93,0.23,-0.23,-0.29,-0.33,-1.15,-1.15,-1.15
407.76,-0.93,0.23,-0.91,0.24,-0.24,-0.31,-0.34,-1.16,-1.15,-1.15
411.84,-0.90,0.26,-0.90,0.25,-0.25,-0.32,-0.36,-1.15,-1.15,-1.15
415.96,-0.88,0.27,-0.88,0.27,-0.26,-0.34,-0.37,-1.14,-1.15,-1.15
420.12,-0.88,0.27,-0.88,0.27,-0.27,-0.36,-0.38,-1.15,-1.15,-1.15
424.32,-0.88,0.27,-0.87,0.28,-0.28,-0.37,-0.39,-1.16,-1.15,-1.15
428.56,-0.88,0.27,-0.87,0.28,-0.29,-0.39,-0.40,-1.16,-1.15,-1.15
432.85,-0.85,0.30,-0.85,0.29,-0.29,-0.41,-0.42,-1.14,-1.15,-1.15
437.18,-0.84,0.31,-0.84,0.31,-0.30,-0.43,-0.43,-1.14,-1.14,-1.15
441.55,-0.84,0.31,-0.83,0.31,-0.30,-0.44,-0.44,-1.14,-1.14,-1.15
445.96,-0.84,0.31,-0.84,0.31,-0.31,-0.46,-0.45,-1.15,-1.15,-1.15
450.42,-0.84,0.31,-0.83,0.31,-0.32,-0.48,-0.46,-1.16,-1.15,-1.14
454.93,-0.84,0.31,-0.82,0.32,-0.33,-0.49,-0.47,-1.17,-1.15,-1.14
459.48,-0.79,0.36,-0.81,0.34,-0.34,-0.51,-0.48,-1.13,-1.14,-1.14
464.07,-0.79,0.36,-0.79,0.35,-0.35,-0.53,-0.49,-1.14,-1.14,-1.14
468.71,-0.79,0.35,-0.77,0.37,-0.36,-0.54,-0.50,-1.15,-1.14,-1.14
