frequency,raw,error,smoothed,error_smoothed,equalization,parametric_eq,fixed_band_eq,equalized_raw,equalized_smoothed,target
20.00,7.09,6.29,7.09,6.30,-6.29,-6.20,-3.48,0.80,0.80,0.80
20.20,7.12,6.35,7.13,6.35,-6.35,-6.25,-3.58,0.77,0.77,0.77
20.40,7.16,6.41,7.16,6.41,-6.41,-6.29,-3.68,0.76,0.75,0.75
20.61,7.19,6.46,7.19,6.46,-6.46,-6.34,-3.78,0.73,0.73,0.73
20.81,7.22,6.51,7.23,6.51,-6.52,-6.39,-3.89,0.71,0.71,0.71
21.02,7.25,6.56,7.26,6.57,-6.57,-6.44,-4.00,0.68,0.69,0.69
21.23,7.29,6.62,7.29,6.62,-6.62,-6.49,-4.11,0.67,0.67,0.67
21.44,7.32,6.67,7.32,6.67,-6.67,-6.54,-4.23,0.65,0.65,0.65
21.66,7.35,6.72,7.35,6.72,-6.72,-6.59,-4.34,0.63,0.64,0.63
21.87,7.38,6.76,7.38,6.77,-6.77,-6.63,-4.47,0.62,0.62,0.62
22.09,7.41,6.81,7.41,6.81,-6.81,-6.68,-4.59,0.60,0.60,0.60
22.31,7.44,6.85,7.45,6.86,-6.86,-6.73,-4.72,0.59,0.59,0.59
22.54,7.48,6.90,7.48,6.90,-6.90,-6.77,-4.85,0.58,0.58,0.58
22.76,7.51,6.94,7.51,6.94,-6.94,-6.82,-4.99,0.57,0.57,0.57
22.99,7.54,6.98,7.54,6.98,-6.98,-6.87,-5.13,0.56,0.56,0.56
23.22,7.57,7.02,7.57,7.02,-7.02,-6.91,-5.27,0.55,0.55,0.55
23.45,7.60,7.06,7.60,7.06,-7.06,-6.96,-5.41,0.54,0.54,0.54
23.69,7.63,7.10,7.63,7.10,-7.10,-7.00,-5.56,0.53,0.53,0.53
23.92,7.66,7.13,7.66,7.14,-7.14,-7.05,-5.71,0.53,0.53,0.53
24.16,7.69,7.17,7.69,7.17,-7.17,-7.09,-5.87,0.52,0.52,0.52
24.40,7.72,7.20,7.72,7.21,-7.21,-7.13,-6.03,0.52,0.52,0.52
24.65,7.75,7.24,7.75,7.24,-7.24,-7.18,-6.19,0.51,0.51,0.51
24.89,7.78,7.27,7.78,7.27,-7.27,-7.22,-6.35,0.51,0.51,0.51
25.14,7.81,7.31,7.81,7.31,-7.31,-7.26,-6.52,0.51,0.50,0.50
25.39,7.83,7.33,7.84,7.34,-7.34,-7.30,-6.69,0.49,0.50,0.50
25.65,7.86,7.37,7.87,7.37,-7.37,-7.34,-6.86,0.49,0.49,0.49
25.91,7.89,7.40,7.89,7.40,-7.41,-7.38,-7.03,0.49,0.49,0.49
26.16,7.92,7.44,7.92,7.44,-7.44,-7.42,-7.20,0.49,0.48,0.48
26.43,7.94,7.46,7.95,7.47,-7.47,-7.46,-7.37,0.48,0.48,0.48
26.69,7.97,7.50,7.97,7.50,-7.50,-7.50,-7.54,0.48,0.48,0.47
26.96,8.00,7.53,8.00,7.53,-7.53,-7.54,-7.72,0.47,0.47,0.47
27.23,8.02,7.55,8.03,7.56,-7.56,-7.57,-7.88,0.46,0.47,0.47
27.50,8.05,7.59,8.05,7.59,-7.59,-7.61,-8.05,0.46,0.46,0.46
27.77,8.07,7.61,8.07,7.62,-7.62,-7.64,-8.21,0.46,0.45,0.46
28.05,8.09,7.64,8.10,7.64,-7.65,-7.68,-8.37,0.45,0.45,0.45
28.33,8.12,7.67,8.12,7.67,-7.67,-7.71,-8.52,0.45,0.45,0.45
28.62,8.15,7.70,8.15,7.70,-7.70,-7.75,-8.67,0.45,0.45,0.45
28.90,8.17,7.73,8.17,7.73,-7.73,-7.78,-8.81,0.45,0.45,0.44
29.19,8.19,7.75,8.19,7.75,-7.75,-7.81,-8.94,0.44,0.44,0.44
29.48,8.21,7.77,8.21,7.77,-7.77,-7.84,-9.06,0.44,0.44,0.44
29.78,8.23,7.79,8.23,7.79,-7.79,-7.88,-9.17,0.44,0.44,0.44
30.08,8.25,7.81,8.25,7.81,-7.81,-7.90,-9.27,0.44,0.44,0.44
30.38,8.27,7.83,8.27,7.83,-7.83,-7.93,-9.35,0.44,0.44,0.44
30.68,8.28,7.85,8.28,7.85,-7.85,-7.96,-9.42,0.44,0.44,0.43
30.99,8.29,7.86,8.29,7.86,-7.86,-7.99,-9.48,0.43,0.43,0.43
31.30,8.30,7.87,8.30,7.87,-7.88,-8.02,-9.52,0.43,0.43,0.43
31.61,8.31,7.88,8.32,7.89,-7.89,-8.04,-9.55,0.42,0.42,0.43
31.93,8.33,7.91,8.33,7.91,-7.91,-8.07,-9.57,0.42,0.42,0.42
32.24,8.34,7.92,8.34,7.93,-7.92,-8.09,-9.57,0.42,0.42,0.42
32.57,8.35,7.94,8.36,7.94,-7.94,-8.11,-9.56,0.41,0.42,0.41
32.89,8.37,7.96,8.37,7.96,-7.96,-8.14,-9.54,0.42,0.41,0.41
33.22,8.38,7.97,8.38,7.97,-7.97,-8.16,-9.51,0.41,0.41,0.41
33.55,8.39,7.98,8.39,7.99,-7.99,-8.18,-9.46,0.41,0.41,0.41
33.89,8.40,8.00,8.40,8.00,-8.00,-8.20,-9.41,0.40,0.40,0.40
34.23,8.41,8.01,8.41,8.02,-8.02,-8.22,-9.35,0.40,0.40,0.40
34.57,8.42,8.03,8.43,8.03,-8.03,-8.24,-9.28,0.39,0.39,0.39
34.92,8.44,8.05,8.44,8.05,-8.05,-8.25,-9.20,0.40,0.39,0.39
35.27,8.45,8.06,8.45,8.06,-8.06,-8.27,-9.12,0.39,0.39,0.39
35.62,8.46,8.07,8.46,8.08,-8.07,-8.29,-9.04,0.39,0.39,0.39
35.97,8.47,8.09,8.47,8.09,-8.09,-8.30,-8.95,0.39,0.39,0.38
36.33,8.48,8.10,8.48,8.10,-8.10,-8.31,-8.86,0.38,0.38,0.38
36.70,8.49,8.11,8.49,8.11,-8.12,-8.33,-8.77,0.38,0.38,0.38
37.06,8.50,8.12,8.51,8.13,-8.13,-8.34,-8.68,0.37,0.37,0.38
37.43,8.52,8.14,8.52,8.14,-8.15,-8.35,-8.59,0.38,0.37,0.38
37.81,8.53,8.16,8.54,8.16,-8.16,-8.36,-8.51,0.37,0.37,0.37
38.19,8.55,8.18,8.55,8.18,-8.18,-8.37,-8.42,0.37,0.37,0.37
38.57,8.56,8.20,8.56,8.20,-8.20,-8.38,-8.34,0.37,0.37,0.36
38.95,8.57,8.21,8.57,8.22,-8.21,-8.38,-8.26,0.36,0.36,0.36
39.34,8.58,8.23,8.58,8.23,-8.22,-8.39,-8.18,0.36,0.36,0.35
39.74,8.58,8.23,8.59,8.24,-8.24,-8.39,-8.11,0.35,0.35,0.35
40.14,8.59,8.24,8.59,8.25,-8.25,-8.40,-8.05,0.34,0.34,0.35
40.54,8.60,8.26,8.60,8.26,-8.26,-8.40,-7.98,0.34,0.34,0.34
40.94,8.61,8.27,8.61,8.27,-8.27,-8.41,-7.92,0.34,0.34,0.34
41.35,8.62,8.28,8.63,8.29,-8.29,-8.41,-7.87,0.34,0.34,0.34
41.76,8.64,8.30,8.64,8.30,-8.30,-8.41,-7.82,0.35,0.34,0.34
42.18,8.66,8.31,8.66,8.31,-8.31,-8.41,-7.78,0.35,0.35,0.35
42.60,8.67,8.32,8.67,8.32,-8.33,-8.41,-7.74,0.35,0.35,0.35
43.03,8.68,8.33,8.69,8.34,-8.34,-8.41,-7.71,0.35,0.35,0.35
43.46,8.70,8.35,8.70,8.35,-8.35,-8.40,-7.69,0.35,0.35,0.35
43.90,8.72,8.37,8.72,8.37,-8.36,-8.40,-7.67,0.36,0.36,0.35
44.33,8.73,8.37,8.73,8.38,-8.38,-8.40,-7.65,0.36,0.36,0.36
44.78,8.74,8.38,8.74,8.38,-8.39,-8.39,-7.64,0.36,0.36,0.36
45.23,8.75,8.39,8.75,8.39,-8.40,-8.39,-7.64,0.36,0.36,0.36
45.68,8.76,8.40,8.76,8.40,-8.41,-8.38,-7.64,0.36,0.36,0.36
46.13,8.77,8.41,8.78,8.42,-8.42,-8.38,-7.65,0.36,0.36,0.36
46.60,8.78,8.43,8.78,8.43,-8.42,-8.37,-7.66,0.36,0.36,0.35
47.06,8.78,8.43,8.78,8.43,-8.43,-8.36,-7.68,0.36,0.35,0.35
47.53,8.77,8.42,8.78,8.43,-8.43,-8.35,-7.71,0.35,0.35,0.35
48.01,8.77,8.42,8.77,8.43,-8.42,-8.34,-7.73,0.35,0.35,0.35
48.49,8.76,8.42,8.76,8.42,-8.42,-8.33,-7.77,0.35,0.35,0.34
48.97,8.75,8.41,8.75,8.41,-8.40,-8.32,-7.81,0.35,0.35,0.34
49.46,8.73,8.39,8.73,8.39,-8.39,-8.31,-7.85,0.34,0.35,0.34
49.96,8.71,8.37,8.71,8.37,-8.37,-8.30,-7.90,0.34,0.34,0.34
50.46,8.69,8.34,8.69,8.35,-8.35,-8.29,-7.95,0.34,0.34,0.35
50.96,8.67,8.32,8.68,8.33,-8.33,-8.27,-8.00,0.34,0.34,0.35
51.47,8.66,8.31,8.66,8.31,-8.31,-8.26,-8.06,0.35,0.35,0.35
51.99,8.64,8.29,8.64,8.29,-8.29,-8.24,-8.12,0.35,0.35,0.35
52.51,8.62,8.26,8.63,8.27,-8.27,-8.23,-8.18,0.35,0.36,0.36
53.03,8.61,8.25,8.61,8.25,-8.25,-8.22,-8.24,0.36,0.36,0.36
53.56,8.59,8.23,8.59,8.23,-8.23,-8.20,-8.30,0.36,0.36,0.36
54.10,8.57,8.21,8.57,8.21,-8.21,-8.18,-8.37,0.37,0.37,0.36
54.64,8.55,8.19,8.55,8.19,-8.19,-8.17,-8.43,0.37,0.37,0.36
55.18,8.53,8.16,8.53,8.17,-8.17,-8.15,-8.49,0.37,0.37,0.37
55.74,8.51,8.14,8.51,8.14,-8.14,-8.13,-8.55,0.37,0.37,0.37
56.29,8.49,8.12,8.49,8.12,-8.12,-8.12,-8.61,0.37,0.37,0.37
56.86,8.47,8.09,8.48,8.10,-8.10,-8.10,-8.67,0.37,0.37,0.38
57.42,8.46,8.08,8.46,8.08,-8.08,-8.08,-8.72,0.38,0.38,0.38
58.00,8.45,8.07,8.45,8.07,-8.06,-8.06,-8.76,0.39,0.39,0.38
58.58,8.43,8.05,8.44,8.05,-8.05,-8.04,-8.80,0.39,0.39,0.38
59.16,8.42,8.03,8.42,8.04,-8.03,-8.03,-8.84,0.39,0.39,0.39
59.76,8.40,8.01,8.41,8.02,-8.02,-8.01,-8.87,0.39,0.39,0.39
60.35,8.40,8.01,8.40,8.01,-8.01,-7.99,-8.88,0.40,0.39,0.39
60.96,8.39,7.99,8.39,8.00,-8.00,-7.97,-8.90,0.39,0.39,0.40
61.57,8.39,7.99,8.39,7.99,-8.00,-7.95,-8.90,0.39,0.39,0.40
62.18,8.39,7.99,8.39,7.99,-8.00,-7.93,-8.89,0.39,0.39,0.40
62.80,8.40,8.00,8.40,8.00,-8.01,-7.91,-8.88,0.39,0.39,0.40
63.43,8.41,8.01,8.42,8.02,-8.02,-7.89,-8.85,0.40,0.40,0.40
64.07,8.43,8.03,8.43,8.03,-8.02,-7.87,-8.82,0.41,0.41,0.40
64.71,8.44,8.04,8.44,8.04,-8.03,-7.85,-8.78,0.41,0.41,0.40
65.35,8.44,8.04,8.44,8.04,-8.03,-7.83,-8.73,0.41,0.41,0.40
66.01,8.43,8.03,8.44,8.03,-8.03,-7.81,-8.68,0.40,0.40,0.40
66.67,8.42,8.02,8.43,8.03,-8.03,-7.79,-8.62,0.40,0.40,0.40
67.33,8.41,8.01,8.41,8.01,-8.02,-7.77,-8.55,0.40,0.40,0.40
68.01,8.40,8.00,8.40,8.00,-8.00,-7.75,-8.47,0.40,0.40,0.40
68.69,8.38,7.98,8.39,7.99,-7.99,-7.73,-8.39,0.40,0.40,0.40
69.37,8.36,7.96,8.37,7.97,-7.97,-7.71,-8.31,0.40,0.40,0.40
70.07,8.35,7.95,8.35,7.95,-7.94,-7.69,-8.22,0.41,0.40,0.40
70.77,8.32,7.92,8.33,7.93,-7.92,-7.67,-8.13,0.40,0.40,0.40
71.48,8.30,7.90,8.30,7.90,-7.90,-7.66,-8.04,0.41,0.40,0.40
72.19,8.27,7.86,8.28,7.87,-7.87,-7.64,-7.94,0.40,0.40,0.41
72.91,8.25,7.84,8.25,7.84,-7.85,-7.62,-7.85,0.40,0.40,0.41
73.64,8.23,7.82,8.23,7.82,-7.82,-7.60,-7.75,0.41,0.41,0.41
74.38,8.21,7.79,8.22,7.80,-7.80,-7.58,-7.66,0.41,0.42,0.42
75.12,8.20,7.78,8.20,7.78,-7.77,-7.56,-7.57,0.43,0.42,0.42
75.87,8.17,7.75,8.18,7.75,-7.75,-7.54,-7.48,0.43,0.43,0.42
76.63,8.15,7.72,8.16,7.73,-7.72,-7.53,-7.39,0.43,0.43,0.43
77.40,8.13,7.70,8.13,7.70,-7.69,-7.51,-7.30,0.44,0.44,0.43
78.17,8.10,7.66,8.10,7.67,-7.67,-7.49,-7.22,0.44,0.44,0.44
78.95,8.07,7.63,8.08,7.64,-7.64,-7.47,-7.14,0.44,0.44,0.44
79.74,8.05,7.61,8.05,7.60,-7.61,-7.46,-7.07,0.44,0.44,0.44
80.54,8.02,7.57,8.02,7.58,-7.58,-7.44,-6.99,0.44,0.44,0.45
81.35,7.99,7.54,8.00,7.55,-7.56,-7.42,-6.92,0.44,0.44,0.45
82.16,7.98,7.53,7.98,7.53,-7.53,-7.41,-6.86,0.45,0.45,0.45
82.98,7.96,7.51,7.96,7.51,-7.51,-7.39,-6.80,0.46,0.46,0.45
83.81,7.94,7.49,7.94,7.49,-7.48,-7.37,-6.75,0.46,0.46,0.45
84.65,7.91,7.46,7.92,7.46,-7.46,-7.36,-6.70,0.46,0.46,0.45
85.50,7.89,7.43,7.89,7.43,-7.43,-7.34,-6.65,0.46,0.46,0.46
86.35,7.86,7.40,7.87,7.41,-7.41,-7.33,-6.61,0.45,0.45,0.46
87.22,7.84,7.38,7.84,7.38,-7.39,-7.31,-6.58,0.46,0.46,0.46
88.09,7.82,7.36,7.82,7.36,-7.36,-7.29,-6.54,0.46,0.46,0.46
88.97,7.80,7.34,7.80,7.34,-7.34,-7.28,-6.52,0.46,0.46,0.46
89.86,7.78,7.32,7.78,7.32,-7.32,-7.26,-6.50,0.46,0.46,0.46
90.76,7.76,7.30,7.76,7.30,-7.30,-7.25,-6.48,0.46,0.46,0.46
91.66,7.74,7.28,7.74,7.28,-7.29,-7.23,-6.47,0.46,0.46,0.46
92.58,7.72,7.26,7.72,7.26,-7.27,-7.22,-6.46,0.46,0.46,0.46
93.51,7.70,7.24,7.70,7.24,-7.24,-7.20,-6.46,0.46,0.46,0.46
94.44,7.68,7.22,7.68,7.22,-7.22,-7.19,-6.46,0.47,0.47,0.46
95.39,7.66,7.20,7.66,7.20,-7.19,-7.17,-6.47,0.47,0.47,0.46
96.34,7.63,7.17,7.63,7.17,-7.16,-7.16,-6.48,0.47,0.47,0.46
97.30,7.60,7.13,7.60,7.13,-7.13,-7.14,-6.49,0.47,0.47,0.47
98.28,7.56,7.09,7.57,7.10,-7.11,-7.13,-6.51,0.46,0.46,0.47
99.26,7.53,7.06,7.54,7.06,-7.08,-7.11,-6.53,0.45,0.46,0.47
100.25,7.51,7.04,7.51,7.04,-7.05,-7.09,-6.56,0.46,0.46,0.47
101.25,7.49,7.02,7.50,7.03,-7.03,-7.08,-6.59,0.47,0.47,0.47
102.27,7.48,7.01,7.48,7.01,-7.00,-7.06,-6.62,0.48,0.48,0.47
103.29,7.46,6.99,7.46,6.99,-6.98,-7.04,-6.65,0.48,0.48,0.47
104.32,7.44,6.96,7.44,6.96,-6.96,-7.03,-6.69,0.49,0.48,0.48
105.37,7.41,6.93,7.41,6.93,-6.94,-7.01,-6.72,0.48,0.48,0.48
106.42,7.38,6.90,7.39,6.90,-6.91,-6.99,-6.76,0.47,0.48,0.48
107.48,7.36,6.87,7.36,6.88,-6.89,-6.97,-6.80,0.48,0.48,0.49
108.56,7.34,6.85,7.34,6.85,-6.85,-6.95,-6.84,0.49,0.49,0.49
109.64,7.32,6.83,7.32,6.83,-6.82,-6.93,-6.88,0.50,0.50,0.49
110.74,7.29,6.80,7.29,6.80,-6.79,-6.91,-6.91,0.51,0.51,0.49
111.85,7.25,6.75,7.26,6.76,-6.75,-6.88,-6.95,0.51,0.51,0.50
112.97,7.21,6.71,7.21,6.71,-6.71,-6.86,-6.98,0.51,0.50,0.50
114.10,7.16,6.66,7.16,6.66,-6.66,-6.84,-7.01,0.50,0.50,0.50
115.24,7.10,6.60,7.12,6.62,-6.62,-6.81,-7.03,0.48,0.50,0.50
116.39,7.08,6.58,7.08,6.57,-6.58,-6.78,-7.05,0.51,0.50,0.50
117.55,7.04,6.53,7.04,6.53,-6.53,-6.76,-7.07,0.51,0.50,0.51
118.73,6.99,6.48,7.00,6.49,-6.50,-6.73,-7.08,0.50,0.50,0.51
119.92,6.95,6.44,6.96,6.45,-6.46,-6.70,-7.08,0.49,0.50,0.51
121.12,6.93,6.41,6.94,6.42,-6.42,-6.67,-7.08,0.51,0.51,0.52
122.33,6.92,6.40,6.92,6.40,-6.39,-6.63,-7.07,0.53,0.53,0.52
123.55,6.90,6.37,6.90,6.37,-6.35,-6.60,-7.06,0.55,0.54,0.53
124.79,6.86,6.33,6.86,6.33,-6.32,-6.57,-7.04,0.55,0.54,0.53
126.03,6.81,6.28,6.82,6.29,-6.28,-6.53,-7.01,0.53,0.54,0.53
127.29,6.78,6.24,6.78,6.24,-6.25,-6.49,-6.97,0.53,0.53,0.54
128.57,6.74,6.20,6.74,6.20,-6.21,-6.45,-6.92,0.53,0.53,0.54
129.85,6.70,6.15,6.71,6.16,-6.18,-6.41,-6.87,0.53,0.53,0.55
131.15,6.68,6.13,6.69,6.14,-6.14,-6.37,-6.82,0.55,0.55,0.55
132.46,6.66,6.11,6.66,6.11,-6.10,-6.33,-6.75,0.57,0.56,0.55
133.79,6.63,6.08,6.63,6.08,-6.06,-6.28,-6.68,0.58,0.57,0.55
135.12,6.57,6.02,6.58,6.03,-6.02,-6.24,-6.61,0.56,0.56,0.55
136.48,6.53,5.98,6.53,5.98,-5.97,-6.19,-6.53,0.56,0.55,0.55
137.84,6.47,5.91,6.48,5.92,-5.93,-6.14,-6.44,0.54,0.55,0.56
139.22,6.43,5.87,6.43,5.87,-5.88,-6.09,-6.35,0.55,0.55,0.56
140.61,6.39,5.83,6.39,5.83,-5.83,-6.04,-6.26,0.56,0.55,0.56
142.02,6.34,5.78,6.35,5.79,-5.79,-5.99,-6.17,0.56,0.56,0.56
143.44,6.30,5.74,6.31,5.74,-5.74,-5.93,-6.07,0.57,0.57,0.56
144.87,6.26,5.69,6.26,5.70,-5.69,-5.88,-5.97,0.57,0.57,0.57
146.32,6.22,5.65,6.22,5.65,-5.65,-5.82,-5.88,0.58,0.57,0.57
147.78,6.17,5.60,6.18,5.60,-5.60,-5.77,-5.78,0.57,0.57,0.57
149.26,6.13,5.55,6.13,5.55,-5.56,-5.71,-5.68,0.58,0.57,0.58
150.75,6.08,5.50,6.09,5.51,-5.51,-5.65,-5.58,0.57,0.58,0.58
152.26,6.04,5.46,6.05,5.46,-5.47,-5.59,-5.48,0.58,0.58,0.58
153.78,6.01,5.42,6.01,5.42,-5.42,-5.53,-5.38,0.59,0.59,0.59
155.32,5.97,5.38,5.97,5.38,-5.38,-5.47,-5.29,0.60,0.59,0.59
156.88,5.92,5.33,5.93,5.34,-5.33,-5.40,-5.20,0.59,0.60,0.59
158.44,5.89,5.29,5.89,5.29,-5.29,-5.34,-5.10,0.60,0.60,0.60
160.03,5.84,5.24,5.85,5.25,-5.25,-5.28,-5.01,0.60,0.60,0.60
161.63,5.80,5.20,5.81,5.21,-5.20,-5.21,-4.93,0.60,0.60,0.60
163.24,5.77,5.17,5.76,5.16,-5.16,-5.15,-4.84,0.61,0.60,0.60
164.88,5.71,5.11,5.72,5.12,-5.12,-5.08,-4.76,0.60,0.60,0.60
166.53,5.67,5.06,5.68,5.07,-5.07,-5.01,-4.68,0.60,0.60,0.61
168.19,5.64,5.03,5.64,5.03,-5.03,-4.95,-4.61,0.61,0.60,0.61
169.87,5.59,4.98,5.60,4.99,-4.99,-4.88,-4.54,0.61,0.62,0.61
171.57,5.56,4.94,5.56,4.94,-4.94,-4.81,-4.47,0.62,0.62,0.62
173.29,5.52,4.90,5.52,4.90,-4.89,-4.75,-4.40,0.63,0.63,0.62
175.02,5.46,4.84,5.47,4.85,-4.84,-4.68,-4.34,0.62,0.63,0.62
176.77,5.41,4.79,5.42,4.79,-4.79,-4.61,-4.28,0.63,0.63,0.62
178.54,5.36,4.73,5.37,4.74,-4.74,-4.54,-4.22,0.63,0.63,0.63
180.32,5.31,4.68,5.31,4.68,-4.68,-4.48,-4.17,0.63,0.63,0.63
182.13,5.26,4.63,5.25,4.62,-4.63,-4.41,-4.12,0.63,0.62,0.63
183.95,5.18,4.55,5.20,4.57,-4.58,-4.34,-4.07,0.61,0.62,0.63
185.79,5.14,4.52,5.15,4.52,-4.52,-4.28,-4.03,0.62,0.62,0.62
187.65,5.10,4.48,5.10,4.48,-4.47,-4.21,-3.99,0.63,0.62,0.62
189.52,5.05,4.43,5.05,4.43,-4.43,-4.14,-3.95,0.63,0.63,0.62
191.42,5.00,4.38,5.01,4.38,-4.38,-4.08,-3.91,0.62,0.63,0.62
193.33,4.96,4.33,4.96,4.34,-4.34,-4.01,-3.88,0.62,0.62,0.63
195.27,4.92,4.29,4.92,4.29,-4.30,-3.94,-3.85,0.62,0.62,0.63
197.22,4.88,4.25,4.88,4.25,-4.26,-3.88,-3.82,0.63,0.63,0.63
199.19,4.84,4.21,4.85,4.21,-4.22,-3.81,-3.80,0.63,0.63,0.63
201.18,4.81,4.17,4.81,4.18,-4.17,-3.75,-3.78,0.64,0.64,0.64
203.19,4.78,4.14,4.78,4.14,-4.13,-3.68,-3.75,0.66,0.65,0.64
205.23,4.73,4.09,4.73,4.09,-4.08,-3.62,-3.73,0.65,0.65,0.64
207.28,4.68,4.03,4.68,4.04,-4.04,-3.56,-3.72,0.65,0.65,0.65
209.35,4.63,3.98,4.63,3.98,-3.99,-3.50,-3.70,0.65,0.65,0.65
211.44,4.58,3.93,4.59,3.93,-3.94,-3.43,-3.68,0.65,0.65,0.65
213.56,4.54,3.88,4.54,3.88,-3.88,-3.37,-3.67,0.66,0.66,0.66
215.69,4.49,3.83,4.49,3.83,-3.82,-3.31,-3.65,0.67,0.66,0.66
217.85,4.42,3.76,4.44,3.77,-3.77,-3.25,-3.64,0.66,0.67,0.66
220.03,4.38,3.72,4.38,3.71,-3.71,-3.19,-3.63,0.67,0.67,0.66
222.23,4.32,3.65,4.32,3.65,-3.65,-3.13,-3.61,0.67,0.66,0.67
224.45,4.25,3.58,4.26,3.59,-3.60,-3.07,-3.60,0.66,0.66,0.67
226.70,4.20,3.53,4.20,3.53,-3.54,-3.02,-3.58,0.66,0.66,0.67
228.96,4.15,3.48,4.16,3.49,-3.49,-2.96,-3.56,0.67,0.67,0.67
231.25,4.12,3.44,4.12,3.44,-3.43,-2.90,-3.55,0.69,0.68,0.68
233.57,4.07,3.39,4.07,3.39,-3.38,-2.85,-3.53,0.69,0.69,0.68
235.90,4.01,3.32,4.02,3.33,-3.33,-2.79,-3.50,0.68,0.69,0.69
238.26,3.97,3.28,3.97,3.28,-3.28,-2.74,-3.48,0.69,0.69,0.69
240.64,3.92,3.22,3.93,3.23,-3.23,-2.68,-3.45,0.69,0.70,0.70
243.05,3.89,3.18,3.89,3.18,-3.18,-2.63,-3.42,0.72,0.71,0.71
245.48,3.85,3.14,3.85,3.13,-3.12,-2.58,-3.39,0.73,0.72,0.71
247.93,3.79,3.07,3.80,3.08,-3.07,-2.52,-3.36,0.72,0.73,0.72
250.41,3.75,3.02,3.74,3.01,-3.02,-2.47,-3.32,0.73,0.72,0.73
252.92,3.68,2.94,3.69,2.95,-2.97,-2.42,-3.28,0.71,0.72,0.74
255.45,3.64,2.90,3.65,2.91,-2.92,-2.37,-3.23,0.73,0.73,0.74
258.00,3.61,2.86,3.61,2.86,-2.86,-2.32,-3.19,0.75,0.75,0.75
260.58,3.57,2.82,3.57,2.82,-2.80,-2.27,-3.14,0.77,0.77,0.75
263.19,3.52,2.76,3.52,2.76,-2.75,-2.23,-3.09,0.78,0.77,0.76
265.82,3.45,2.69,3.46,2.70,-2.69,-2.18,-3.03,0.76,0.77,0.76
268.48,3.39,2.62,3.40,2.63,-2.64,-2.13,-2.97,0.76,0.76,0.77
271.16,3.34,2.57,3.34,2.56,-2.58,-2.09,-2.91,0.76,0.76,0.77
273.87,3.27,2.50,3.28,2.51,-2.52,-2.04,-2.85,0.75,0.76,0.77
276.61,3.23,2.45,3.24,2.46,-2.46,-1.99,-2.79,0.78,0.78,0.78
279.38,3.19,2.41,3.19,2.41,-2.40,-1.95,-2.72,0.80,0.79,0.78
282.17,3.14,2.36,3.14,2.35,-2.34,-1.91,-2.65,0.81,0.80,0.78
284.99,3.07,2.28,3.07,2.28,-2.28,-1.86,-2.58,0.80,0.79,0.79
287.84,2.99,2.20,3.00,2.21,-2.22,-1.82,-2.51,0.77,0.78,0.79
290.72,2.93,2.14,2.94,2.14,-2.16,-1.78,-2.44,0.77,0.77,0.79
293.63,2.88,2.09,2.89,2.10,-2.11,-1.73,-2.37,0.78,0.78,0.79
296.57,2.84,2.05,2.84,2.05,-2.05,-1.69,-2.30,0.80,0.80,0.79
299.53,2.80,2.01,2.80,2.00,-1.99,-1.65,-2.23,0.81,0.81,0.79
302.53,2.74,1.94,2.74,1.95,-1.94,-1.61,-2.15,0.81,0.81,0.80
305.55,2.68,1.88,2.69,1.88,-1.88,-1.57,-2.08,0.80,0.80,0.80
308.61,2.63,1.82,2.63,1.82,-1.83,-1.53,-2.00,0.80,0.80,0.81
311.69,2.58,1.77,2.59,1.77,-1.78,-1.49,-1.93,0.80,0.81,0.81
314.81,2.54,1.72,2.55,1.73,-1.73,-1.45,-1.86,0.81,0.82,0.82
317.96,2.51,1.69,2.51,1.68,-1.68,-1.42,-1.79,0.83,0.83,0.82
321.14,2.46,1.63,2.46,1.64,-1.63,-1.38,-1.71,0.83,0.83,0.83
324.35,2.41,1.58,2.41,1.58,-1.59,-1.34,-1.64,0.83,0.83,0.83
327.59,2.36,1.53,2.37,1.53,-1.54,-1.30,-1.57,0.82,0.83,0.83
330.87,2.32,1.48,2.33,1.49,-1.49,-1.27,-1.50,0.83,0.84,0.84
334.18,2.29,1.45,2.29,1.45,-1.44,-1.23,-1.43,0.85,0.85,0.84
337.52,2.25,1.40,2.25,1.40,-1.39,-1.19,-1.36,0.86,0.86,0.85
340.90,2.20,1.34,2.20,1.35,-1.34,-1.16,-1.29,0.87,0.87,0.86
344.30,2.14,1.28,2.15,1.29,-1.28,-1.12,-1.22,0.86,0.86,0.86
347.75,2.09,1.23,2.09,1.23,-1.23,-1.09,-1.15,0.86,0.86,0.86
351.23,2.03,1.17,2.03,1.17,-1.18,-1.05,-1.09,0.86,0.86,0.86
354.74,1.98,1.11,1.98,1.11,-1.12,-1.02,-1.02,0.86,0.86,0.87
358.28,1.92,1.05,1.93,1.06,-1.07,-0.98,-0.96,0.86,0.86,0.87
361.87,1.88,1.01,1.88,1.01,-1.01,-0.95,-0.89,0.87,0.87,0.87
365.49,1.84,0.97,1.84,0.97,-0.96,-0.91,-0.83,0.88,0.88,0.87
369.14,1.78,0.91,1.79,0.92,-0.91,-0.88,-0.76,0.88,0.88,0.87
372.83,1.73,0.86,1.73,0.86,-0.86,-0.85,-0.70,0.88,0.88,0.87
376.56,1.68,0.80,1.68,0.81,-0.81,-0.81,-0.64,0.87,0.87,0.88
380.33,1.63,0.75,1.64,0.76,-0.76,-0.78,-0.58,0.87,0.87,0.88
384.13,1.59,0.71,1.59,0.71,-0.72,-0.75,-0.52,0.88,0.88,0.88
387.97,1.55,0.67,1.55,0.67,-0.67,-0.71,-0.46,0.88,0.88,0.88
391.85,1.51,0.62,1.51,0.63,-0.63,-0.68,-0.40,0.89,0.89,0.89
395.77,1.47,0.58,1.48,0.58,-0.58,-0.65,-0.34,0.89,0.89,0.89
399.73,1.44,0.54,1.44,0.54,-0.54,-0.62,-0.28,0.90,0.90,0.90
403.72,1.40,0.50,1.40,0.50,-0.49,-0.58,-0.23,0.91,0.91,0.90
407.76,1.36,0.45,1.37,0.46,-0.45,-0.55,-0.17,0.92,0.92,0.91
411.84,1.32,0.41,1.32,0.41,-0.40,-0.52,-0.12,0.92,0.92,0.91
415.96,1.27,0.35,1.27,0.36,-0.36,-0.48,-0.06,0.92,0.92,0.92
420.12,1.22,0.30,1.22,0.30,-0.31,-0.45,-0.01,0.91,0.91,0.92
424.32,1.17,0.25,1.18,0.25,-0.27,-0.42,0.04,0.91,0.91,0.92
428.56,1.14,0.21,1.14,0.22,-0.23,-0.39,0.09,0.92,0.92,0.93
432.85,1.11,0.18,1.11,0.18,-0.19,-0.35,0.14,0.93,0.93,0.93
437.18,1.08,0.15,1.09,0.15,-0.15,-0.32,0.19,0.94,0.94,0.93
441.55,1.05,0.12,1.05,0.12,-0.11,-0.29,0.23,0.95,0.94,0.93
445.96,1.01,0.08,1.01,0.08,-0.07,-0.25,0.28,0.95,0.94,0.93
450.42,0.96,0.03,0.96,0.03,-0.03,-0.22,0.32,0.94,0.94,0.93
454.93,0.91,-0.02,0.92,-0.01,0.01,-0.19,0.36,0.93,0.93,0.93
459.48,0.87,-0.06,0.87,-0.06,0.05,-0.15,0.40,0.93,0.92,0.93
464.07,0.83,-0.10,0.83,-0.10,0.09,-0.12,0.44,0.92,0.92,0.93
468.71,0.79,-0.14,0.80,-0.13,0.13,-0.08,0.47,0.92,0.92,0.93
473.40,0.76,-0.17,0.77,-0.17,0.16,-0.05,0.51,0.92,0.92,0.93
478.13,0.74,-0.20,0.74,-0.19,0.19,-0.02,0.54,0.93,0.93,0.94
482.91,0.72,-0.22,0.73,-0.21,0.22,0.02,0.56,0.94,0.95,0.94
487.74,0.71,-0.23,0.71,-0.23,0.25,0.05,0.59,0.96,0.95,0.94
492.62,0.68,-0.26,0.68,-0.26,0.27,0.09,0.61,0.96,0.95,0.94
497.55,0.64,-0.31,0.65,-0.30,0.30,0.12,0.64,0.95,0.95,0.95
502.52,0.61,-0.34,0.61,-0.33,0.33,0.16,0.65,0.95,0.95,0.95
507.55,0.58,-0.37,0.58,-0.37,0.36,0.20,0.67,0.95,0.95,0.95
512.62,0.55,-0.40,0.55,-0.40,0.40,0.23,0.68,0.95,0.95,0.95
517.75,0.52,-0.44,0.53,-0.43,0.43,0.27,0.70,0.95,0.95,0.96
522.93,0.50,-0.46,0.50,-0.46,0.46,0.31,0.71,0.96,0.96,0.96
528.16,0.47,-0.49,0.48,-0.49,0.49,0.34,0.71,0.96,0.96,0.96
533.44,0.45,-0.51,0.45,-0.51,0.51,0.38,0.72,0.97,0.97,0.96
538.77,0.42,-0.55,0.42,-0.54,0.54,0.42,0.72,0.97,0.97,0.97
544.16,0.39,-0.58,0.40,-0.57,0.57,0.45,0.72,0.97,0.97,0.97
549.60,0.37,-0.60,0.37,-0.60,0.60,0.49,0.72,0.98,0.97,0.97
