frequency,raw,error,smoothed,error_smoothed,equalization,parametric_eq,fixed_band_eq,equalized_raw,equalized_smoothed,target
20.00,1.09,-4.04,1.09,-4.04,4.06,3.25,1.27,5.15,5.15,5.13
20.20,1.13,-4.00,1.13,-4.00,4.01,3.23,1.31,5.14,5.14,5.13
20.40,1.18,-3.95,1.18,-3.96,3.95,3.22,1.35,5.13,5.13,5.13
20.61,1.22,-3.92,1.22,-3.92,3.90,3.21,1.39,5.12,5.13,5.14
20.81,1.27,-3.87,1.27,-3.87,3.86,3.20,1.43,5.13,5.12,5.14
21.02,1.31,-3.83,1.31,-3.83,3.81,3.19,1.48,5.12,5.13,5.14
21.23,1.36,-3.78,1.36,-3.78,3.77,3.18,1.52,5.13,5.13,5.14
21.44,1.41,-3.74,1.41,-3.74,3.73,3.16,1.57,5.14,5.14,5.15
21.66,1.46,-3.69,1.46,-3.69,3.70,3.15,1.61,5.15,5.16,5.15
21.87,1.51,-3.64,1.51,-3.65,3.66,3.14,1.66,5.17,5.17,5.15
22.09,1.54,-3.61,1.54,-3.61,3.63,3.13,1.71,5.17,5.17,5.15
22.31,1.56,-3.60,1.56,-3.59,3.61,3.11,1.76,5.17,5.17,5.16
22.54,1.57,-3.58,1.57,-3.59,3.59,3.10,1.81,5.16,5.15,5.15
22.76,1.58,-3.58,1.58,-3.58,3.56,3.09,1.87,5.14,5.14,5.16
22.99,1.59,-3.57,1.60,-3.56,3.54,3.08,1.92,5.13,5.14,5.16
23.22,1.63,-3.53,1.63,-3.53,3.52,3.06,1.98,5.14,5.14,5.16
23.45,1.67,-3.49,1.67,-3.49,3.48,3.05,2.04,5.15,5.15,5.16
23.69,1.71,-3.45,1.71,-3.45,3.45,3.04,2.10,5.15,5.16,5.16
23.92,1.76,-3.41,1.76,-3.40,3.40,3.02,2.15,5.16,5.16,5.17
24.16,1.80,-3.36,1.80,-3.36,3.35,3.01,2.22,5.15,5.16,5.16
24.40,1.85,-3.31,1.85,-3.31,3.31,3.00,2.28,5.16,5.16,5.15
24.65,1.89,-3.27,1.89,-3.26,3.27,2.98,2.34,5.16,5.16,5.15
24.89,1.94,-3.20,1.94,-3.21,3.23,2.97,2.40,5.17,5.17,5.14
25.14,1.97,-3.17,1.96,-3.18,3.20,2.96,2.47,5.16,5.16,5.14
25.39,1.98,-3.15,1.98,-3.15,3.16,2.94,2.53,5.14,5.14,5.13
25.65,1.99,-3.14,1.99,-3.14,3.13,2.93,2.59,5.12,5.12,5.13
25.91,2.00,-3.12,2.00,-3.12,3.10,2.91,2.66,5.10,5.10,5.12
26.16,2.03,-3.09,2.03,-3.09,3.06,2.90,2.72,5.09,5.10,5.12
26.43,2.07,-3.04,2.07,-3.04,3.03,2.89,2.78,5.10,5.10,5.11
26.69,2.12,-2.99,2.12,-2.99,3.00,2.87,2.84,5.12,5.11,5.11
26.96,2.16,-2.95,2.15,-2.95,2.97,2.86,2.90,5.12,5.12,5.11
27.23,2.18,-2.93,2.18,-2.92,2.94,2.84,2.96,5.12,5.12,5.11
27.50,2.20,-2.90,2.20,-2.90,2.92,2.83,3.02,5.12,5.12,5.10
27.77,2.22,-2.88,2.22,-2.88,2.90,2.82,3.08,5.12,5.12,5.10
28.05,2.23,-2.88,2.23,-2.87,2.89,2.80,3.13,5.12,5.11,5.10
28.33,2.23,-2.87,2.23,-2.88,2.87,2.79,3.18,5.10,5.10,5.10
28.62,2.23,-2.87,2.23,-2.88,2.85,2.77,3.23,5.08,5.07,5.10
28.90,2.23,-2.87,2.24,-2.86,2.82,2.76,3.27,5.05,5.06,5.10
29.19,2.27,-2.83,2.28,-2.82,2.79,2.74,3.31,5.06,5.07,5.10
29.48,2.34,-2.76,2.34,-2.76,2.76,2.73,3.34,5.10,5.09,5.10
29.78,2.40,-2.70,2.40,-2.70,2.72,2.71,3.37,5.12,5.12,5.10
30.08,2.45,-2.64,2.44,-2.66,2.69,2.70,3.40,5.14,5.13,5.09
30.38,2.45,-2.64,2.45,-2.63,2.66,2.68,3.42,5.11,5.11,5.09
30.68,2.45,-2.64,2.45,-2.63,2.64,2.67,3.43,5.09,5.09,5.08
30.99,2.45,-2.62,2.45,-2.63,2.62,2.65,3.45,5.07,5.07,5.07
31.30,2.45,-2.62,2.45,-2.62,2.62,2.64,3.45,5.07,5.07,5.07
31.61,2.45,-2.61,2.45,-2.61,2.62,2.62,3.45,5.07,5.07,5.06
31.93,2.45,-2.61,2.45,-2.61,2.61,2.61,3.44,5.06,5.06,5.06
32.24,2.45,-2.60,2.44,-2.60,2.59,2.59,3.44,5.04,5.04,5.05
32.57,2.45,-2.59,2.44,-2.60,2.57,2.58,3.42,5.01,5.01,5.04
32.89,2.45,-2.58,2.46,-2.57,2.53,2.56,3.40,4.98,4.99,5.03
33.22,2.50,-2.53,2.51,-2.52,2.49,2.55,3.37,4.99,5.00,5.03
33.55,2.58,-2.44,2.58,-2.45,2.45,2.53,3.35,5.03,5.02,5.02
33.89,2.65,-2.36,2.64,-2.38,2.41,2.52,3.31,5.06,5.05,5.01
34.23,2.68,-2.33,2.67,-2.33,2.37,2.50,3.28,5.05,5.05,5.01
34.57,2.68,-2.32,2.68,-2.31,2.34,2.48,3.23,5.02,5.03,4.99
34.92,2.68,-2.31,2.68,-2.31,2.32,2.47,3.19,5.00,5.00,4.99
35.27,2.68,-2.31,2.68,-2.31,2.31,2.45,3.15,4.99,4.99,4.99
35.62,2.68,-2.31,2.68,-2.31,2.30,2.44,3.10,4.98,4.98,4.99
35.97,2.68,-2.30,2.68,-2.30,2.29,2.42,3.05,4.97,4.97,4.98
36.33,2.68,-2.29,2.67,-2.30,2.28,2.41,3.00,4.95,4.95,4.97
36.70,2.68,-2.29,2.68,-2.29,2.25,2.39,2.94,4.93,4.93,4.97
37.06,2.69,-2.28,2.72,-2.25,2.22,2.37,2.89,4.91,4.93,4.97
37.43,2.78,-2.19,2.78,-2.19,2.18,2.36,2.83,4.96,4.96,4.97
37.81,2.87,-2.10,2.85,-2.12,2.15,2.34,2.78,5.02,5.00,4.97
38.19,2.91,-2.06,2.90,-2.07,2.11,2.33,2.72,5.02,5.01,4.97
38.57,2.91,-2.06,2.92,-2.05,2.08,2.31,2.67,4.99,5.00,4.97
38.95,2.91,-2.05,2.91,-2.05,2.06,2.29,2.62,4.97,4.97,4.96
39.34,2.91,-2.05,2.91,-2.05,2.04,2.28,2.56,4.95,4.95,4.96
39.74,2.91,-2.05,2.91,-2.05,2.04,2.26,2.51,4.95,4.95,4.96
40.14,2.91,-2.04,2.91,-2.05,2.03,2.24,2.46,4.94,4.94,4.95
40.54,2.91,-2.04,2.91,-2.04,2.03,2.23,2.40,4.94,4.94,4.95
40.94,2.91,-2.04,2.91,-2.03,2.03,2.21,2.35,4.94,4.94,4.95
41.35,2.91,-2.02,2.91,-2.02,2.03,2.19,2.31,4.94,4.94,4.93
41.76,2.91,-2.01,2.91,-2.01,2.02,2.18,2.26,4.93,4.93,4.92
42.18,2.91,-2.00,2.91,-2.00,2.01,2.16,2.21,4.92,4.92,4.90
42.60,2.91,-1.98,2.91,-1.98,1.98,2.14,2.17,4.89,4.89,4.89
43.03,2.91,-1.97,2.90,-1.97,1.95,2.13,2.12,4.86,4.85,4.88
43.46,2.91,-1.94,2.90,-1.95,1.91,2.11,2.08,4.82,4.81,4.85
43.90,2.91,-1.93,2.94,-1.90,1.86,2.09,2.04,4.77,4.80,4.84
44.33,2.99,-1.83,3.00,-1.82,1.81,2.08,2.00,4.80,4.81,4.82
44.78,3.09,-1.72,3.07,-1.74,1.76,2.06,1.97,4.85,4.83,4.81
45.23,3.14,-1.65,3.13,-1.66,1.71,2.04,1.93,4.85,4.84,4.79
45.68,3.14,-1.64,3.15,-1.63,1.67,2.02,1.90,4.81,4.82,4.77
46.13,3.14,-1.63,3.14,-1.62,1.64,2.01,1.87,4.78,4.78,4.77
46.60,3.14,-1.62,3.14,-1.62,1.61,1.99,1.84,4.75,4.75,4.76
47.06,3.14,-1.62,3.14,-1.62,1.60,1.97,1.81,4.74,4.74,4.76
47.53,3.14,-1.61,3.14,-1.61,1.60,1.95,1.78,4.74,4.74,4.75
48.01,3.14,-1.61,3.14,-1.61,1.61,1.94,1.75,4.75,4.75,4.75
48.49,3.14,-1.62,3.14,-1.62,1.62,1.92,1.73,4.76,4.76,4.76
48.97,3.14,-1.62,3.14,-1.62,1.62,1.90,1.71,4.76,4.76,4.76
49.46,3.14,-1.62,3.14,-1.62,1.63,1.88,1.68,4.77,4.77,4.76
49.96,3.14,-1.63,3.14,-1.63,1.63,1.86,1.66,4.77,4.77,4.76
50.46,3.14,-1.64,3.14,-1.64,1.63,1.84,1.64,4.77,4.77,4.78
50.96,3.14,-1.64,3.14,-1.64,1.63,1.82,1.62,4.77,4.77,4.78
51.47,3.14,-1.64,3.14,-1.64,1.63,1.80,1.60,4.77,4.77,4.78
51.99,3.14,-1.63,3.14,-1.63,1.63,1.79,1.59,4.77,4.77,4.77
52.51,3.14,-1.62,3.14,-1.62,1.63,1.77,1.57,4.77,4.77,4.76
53.03,3.14,-1.61,3.14,-1.61,1.62,1.75,1.56,4.76,4.76,4.75
53.56,3.14,-1.60,3.14,-1.60,1.61,1.73,1.54,4.74,4.74,4.74
54.10,3.14,-1.59,3.14,-1.59,1.59,1.71,1.52,4.73,4.73,4.73
54.64,3.14,-1.57,3.14,-1.58,1.57,1.69,1.51,4.71,4.71,4.71
55.18,3.14,-1.55,3.14,-1.55,1.55,1.67,1.50,4.69,4.69,4.69
55.74,3.14,-1.53,3.14,-1.53,1.53,1.64,1.48,4.67,4.67,4.67
56.29,3.14,-1.50,3.14,-1.50,1.51,1.62,1.47,4.65,4.65,4.64
56.86,3.14,-1.48,3.14,-1.48,1.49,1.60,1.45,4.63,4.63,4.62
57.42,3.14,-1.45,3.14,-1.45,1.46,1.58,1.44,4.60,4.60,4.59
58.00,3.14,-1.41,3.14,-1.41,1.42,1.56,1.42,4.56,4.56,4.55
58.58,3.14,-1.38,3.13,-1.39,1.37,1.54,1.40,4.50,4.50,4.52
59.16,3.14,-1.35,3.13,-1.36,1.31,1.52,1.39,4.45,4.44,4.49
59.76,3.14,-1.31,3.17,-1.28,1.24,1.49,1.37,4.38,4.41,4.45
60.35,3.22,-1.20,3.24,-1.18,1.17,1.47,1.35,4.39,4.41,4.42
60.96,3.36,-1.03,3.31,-1.08,1.11,1.45,1.33,4.46,4.42,4.38
61.57,3.37,-0.99,3.37,-0.99,1.04,1.42,1.31,4.41,4.41,4.36
62.18,3.37,-0.95,3.38,-0.94,0.98,1.40,1.29,4.34,4.36,4.32
62.80,3.37,-0.92,3.37,-0.92,0.92,1.37,1.27,4.29,4.29,4.29
63.43,3.37,-0.88,3.37,-0.88,0.87,1.35,1.24,4.24,4.24,4.25
64.07,3.37,-0.84,3.37,-0.84,0.83,1.33,1.22,4.20,4.20,4.21
64.71,3.37,-0.81,3.37,-0.81,0.80,1.30,1.19,4.17,4.17,4.18
65.35,3.37,-0.77,3.37,-0.77,0.77,1.27,1.16,4.14,4.14,4.14
66.01,3.37,-0.74,3.37,-0.74,0.74,1.25,1.14,4.11,4.11,4.11
66.67,3.37,-0.71,3.37,-0.71,0.70,1.22,1.11,4.07,4.07,4.08
67.33,3.37,-0.69,3.37,-0.69,0.67,1.20,1.08,4.04,4.04,4.06
68.01,3.37,-0.66,3.37,-0.66,0.65,1.17,1.05,4.02,4.02,4.03
68.69,3.37,-0.64,3.37,-0.64,0.64,1.14,1.01,4.01,4.01,4.01
69.37,3.37,-0.63,3.38,-0.62,0.65,1.11,0.98,4.02,4.03,4.00
70.07,3.37,-0.62,3.38,-0.61,0.66,1.08,0.95,4.03,4.04,3.99
70.77,3.37,-0.61,3.33,-0.65,0.68,1.06,0.91,4.05,4.01,3.97
71.48,3.26,-0.70,3.26,-0.71,0.71,1.03,0.88,3.97,3.96,3.96
72.19,3.14,-0.81,3.18,-0.77,0.73,1.00,0.84,3.87,3.91,3.95
72.91,3.14,-0.81,3.13,-0.81,0.75,0.97,0.81,3.89,3.89,3.94
73.64,3.14,-0.79,3.13,-0.80,0.77,0.94,0.77,3.90,3.89,3.93
74.38,3.14,-0.78,3.14,-0.78,0.77,0.90,0.73,3.91,3.91,3.91
75.12,3.14,-0.76,3.14,-0.76,0.77,0.87,0.70,3.91,3.91,3.90
75.87,3.14,-0.73,3.14,-0.74,0.75,0.84,0.66,3.89,3.89,3.87
76.63,3.14,-0.72,3.14,-0.72,0.73,0.81,0.62,3.87,3.87,3.86
77.40,3.14,-0.70,3.14,-0.70,0.70,0.78,0.58,3.84,3.84,3.84
78.17,3.14,-0.68,3.14,-0.68,0.68,0.74,0.55,3.82,3.82,3.82
78.95,3.14,-0.65,3.14,-0.66,0.65,0.71,0.51,3.79,3.79,3.79
79.74,3.14,-0.63,3.14,-0.63,0.63,0.68,0.47,3.77,3.77,3.77
80.54,3.14,-0.61,3.14,-0.61,0.61,0.64,0.43,3.75,3.75,3.75
81.35,3.14,-0.59,3.14,-0.59,0.59,0.61,0.40,3.73,3.73,3.73
82.16,3.14,-0.57,3.14,-0.57,0.57,0.57,0.36,3.71,3.71,3.71
82.98,3.14,-0.55,3.14,-0.55,0.56,0.54,0.32,3.70,3.70,3.69
83.81,3.14,-0.54,3.14,-0.54,0.54,0.50,0.28,3.68,3.68,3.68
84.65,3.14,-0.52,3.14,-0.52,0.52,0.46,0.25,3.66,3.66,3.66
85.50,3.14,-0.51,3.14,-0.51,0.51,0.43,0.21,3.65,3.65,3.64
86.35,3.14,-0.49,3.14,-0.49,0.49,0.39,0.17,3.63,3.63,3.63
87.22,3.14,-0.48,3.14,-0.48,0.48,0.35,0.13,3.62,3.62,3.62
88.09,3.14,-0.46,3.14,-0.46,0.46,0.32,0.10,3.60,3.60,3.60
88.97,3.14,-0.45,3.14,-0.45,0.44,0.28,0.06,3.58,3.58,3.59
89.86,3.14,-0.43,3.14,-0.43,0.43,0.24,0.02,3.57,3.57,3.56
90.76,3.14,-0.41,3.14,-0.41,0.41,0.20,-0.01,3.55,3.55,3.55
91.66,3.14,-0.39,3.14,-0.39,0.40,0.16,-0.05,3.53,3.53,3.53
92.58,3.14,-0.38,3.14,-0.38,0.38,0.12,-0.09,3.52,3.52,3.52
93.51,3.14,-0.36,3.14,-0.36,0.36,0.09,-0.13,3.50,3.50,3.50
94.44,3.14,-0.35,3.14,-0.35,0.35,0.05,-0.16,3.48,3.48,3.48
95.39,3.14,-0.33,3.14,-0.33,0.33,0.01,-0.20,3.47,3.47,3.47
96.34,3.14,-0.31,3.14,-0.31,0.31,-0.03,-0.24,3.45,3.45,3.45
97.30,3.14,-0.29,3.14,-0.29,0.30,-0.07,-0.27,3.44,3.44,3.43
98.28,3.14,-0.28,3.14,-0.28,0.28,-0.11,-0.31,3.42,3.42,3.42
99.26,3.14,-0.26,3.14,-0.26,0.27,-0.15,-0.35,3.41,3.41,3.40
100.25,3.14,-0.23,3.14,-0.23,0.25,-0.19,-0.38,3.39,3.39,3.37
101.25,3.14,-0.21,3.14,-0.21,0.22,-0.23,-0.42,3.36,3.36,3.35
102.27,3.14,-0.18,3.13,-0.19,0.17,-0.27,-0.45,3.31,3.30,3.32
103.29,3.14,-0.16,3.13,-0.16,0.11,-0.31,-0.49,3.25,3.24,3.29
104.32,3.14,-0.12,3.16,-0.10,0.05,-0.35,-0.52,3.19,3.21,3.26
105.37,3.20,-0.02,3.22,0.00,-0.02,-0.39,-0.56,3.17,3.20,3.22
106.42,3.33,0.15,3.30,0.12,-0.10,-0.43,-0.59,3.23,3.20,3.18
107.48,3.37,0.24,3.36,0.23,-0.18,-0.47,-0.63,3.19,3.18,3.13
108.56,3.37,0.30,3.38,0.30,-0.26,-0.51,-0.66,3.11,3.12,3.07
109.64,3.37,0.34,3.37,0.35,-0.33,-0.54,-0.69,3.04,3.04,3.02
110.74,3.37,0.39,3.37,0.39,-0.40,-0.58,-0.72,2.97,2.97,2.98
111.85,3.37,0.44,3.37,0.44,-0.46,-0.62,-0.75,2.91,2.91,2.93
112.97,3.37,0.50,3.37,0.49,-0.51,-0.66,-0.78,2.86,2.86,2.87
114.10,3.37,0.55,3.37,0.54,-0.55,-0.69,-0.81,2.82,2.82,2.82
115.24,3.37,0.59,3.37,0.59,-0.59,-0.73,-0.84,2.78,2.78,2.78
116.39,3.37,0.64,3.37,0.64,-0.64,-0.77,-0.87,2.73,2.73,2.73
117.55,3.37,0.69,3.37,0.68,-0.68,-0.80,-0.89,2.69,2.69,2.68
118.73,3.37,0.72,3.37,0.72,-0.72,-0.84,-0.91,2.65,2.65,2.65
119.92,3.37,0.76,3.37,0.76,-0.76,-0.87,-0.94,2.61,2.61,2.61
121.12,3.37,0.79,3.37,0.79,-0.79,-0.91,-0.96,2.57,2.57,2.57
122.33,3.37,0.83,3.37,0.83,-0.83,-0.94,-0.98,2.54,2.54,2.54
123.55,3.37,0.86,3.37,0.86,-0.86,-0.98,-0.99,2.51,2.51,2.51
124.79,3.37,0.89,3.37,0.89,-0.89,-1.01,-1.01,2.48,2.48,2.48
126.03,3.37,0.91,3.37,0.91,-0.91,-1.04,-1.03,2.45,2.45,2.46
127.29,3.37,0.94,3.37,0.94,-0.94,-1.08,-1.04,2.43,2.43,2.43
128.57,3.37,0.97,3.37,0.97,-0.97,-1.11,-1.05,2.40,2.40,2.40
129.85,3.37,0.99,3.37,0.99,-1.00,-1.14,-1.06,2.37,2.37,2.38
131.15,3.37,1.02,3.37,1.02,-1.02,-1.17,-1.07,2.35,2.35,2.35
132.46,3.37,1.05,3.37,1.05,-1.05,-1.20,-1.08,2.32,2.32,2.32
133.79,3.37,1.08,3.37,1.08,-1.08,-1.23,-1.08,2.29,2.29,2.29
135.12,3.37,1.10,3.37,1.10,-1.10,-1.25,-1.09,2.27,2.27,2.27
136.48,3.37,1.13,3.37,1.13,-1.13,-1.28,-1.09,2.24,2.24,2.24
137.84,3.37,1.16,3.37,1.16,-1.16,-1.31,-1.10,2.21,2.21,2.21
139.22,3.37,1.18,3.37,1.18,-1.18,-1.33,-1.10,2.19,2.19,2.19
140.61,3.37,1.21,3.37,1.21,-1.21,-1.36,-1.10,2.16,2.16,2.16
142.02,3.37,1.24,3.37,1.23,-1.24,-1.38,-1.10,2.13,2.13,2.13
143.44,3.37,1.26,3.37,1.26,-1.26,-1.41,-1.10,2.11,2.11,2.11
144.87,3.37,1.29,3.37,1.29,-1.29,-1.43,-1.10,2.08,2.08,2.08
146.32,3.37,1.33,3.37,1.33,-1.33,-1.45,-1.10,2.04,2.04,2.04
147.78,3.37,1.36,3.37,1.36,-1.36,-1.48,-1.11,2.01,2.01,2.01
149.26,3.37,1.40,3.37,1.40,-1.40,-1.50,-1.11,1.96,1.96,1.97
150.75,3.37,1.44,3.37,1.44,-1.45,-1.52,-1.11,1.92,1.92,1.93
152.26,3.37,1.49,3.37,1.49,-1.51,-1.54,-1.11,1.86,1.86,1.88
153.78,3.37,1.54,3.37,1.54,-1.56,-1.56,-1.11,1.81,1.81,1.83
155.32,3.37,1.59,3.37,1.59,-1.60,-1.57,-1.11,1.76,1.76,1.78
156.88,3.37,1.65,3.37,1.64,-1.64,-1.59,-1.11,1.73,1.73,1.72
158.44,3.37,1.69,3.38,1.70,-1.66,-1.61,-1.11,1.71,1.72,1.68
160.03,3.37,1.73,3.37,1.73,-1.68,-1.62,-1.12,1.69,1.69,1.64
161.63,3.37,1.77,3.32,1.72,-1.68,-1.64,-1.12,1.69,1.63,1.60
163.24,3.23,1.66,3.25,1.68,-1.68,-1.65,-1.13,1.55,1.56,1.57
164.88,3.14,1.60,3.18,1.64,-1.68,-1.67,-1.13,1.46,1.50,1.54
166.53,3.14,1.62,3.13,1.61,-1.66,-1.68,-1.14,1.48,1.47,1.52
168.19,3.14,1.64,3.13,1.63,-1.65,-1.69,-1.15,1.49,1.48,1.50
169.87,3.14,1.65,3.14,1.64,-1.64,-1.71,-1.15,1.50,1.50,1.49
171.57,3.14,1.64,3.14,1.65,-1.63,-1.72,-1.16,1.51,1.51,1.49
173.29,3.14,1.64,3.14,1.64,-1.63,-1.73,-1.17,1.51,1.51,1.50
175.02,3.14,1.64,3.14,1.64,-1.62,-1.74,-1.18,1.51,1.51,1.50
176.77,3.14,1.62,3.14,1.63,-1.62,-1.75,-1.19,1.52,1.52,1.51
178.54,3.14,1.61,3.14,1.61,-1.61,-1.76,-1.21,1.53,1.53,1.53
180.32,3.14,1.60,3.14,1.60,-1.60,-1.76,-1.22,1.54,1.54,1.54
182.13,3.14,1.58,3.14,1.58,-1.59,-1.77,-1.24,1.55,1.55,1.56
183.95,3.14,1.58,3.14,1.57,-1.58,-1.78,-1.25,1.56,1.56,1.56
185.79,3.14,1.57,3.14,1.57,-1.57,-1.78,-1.27,1.57,1.57,1.57
187.65,3.14,1.56,3.14,1.56,-1.57,-1.79,-1.28,1.57,1.57,1.58
189.52,3.14,1.57,3.14,1.57,-1.57,-1.79,-1.30,1.57,1.57,1.57
191.42,3.14,1.57,3.14,1.57,-1.57,-1.80,-1.32,1.57,1.57,1.57
193.33,3.14,1.58,3.14,1.58,-1.57,-1.80,-1.34,1.57,1.57,1.56
195.27,3.14,1.58,3.14,1.58,-1.58,-1.81,-1.36,1.56,1.56,1.56
197.22,3.14,1.58,3.14,1.59,-1.59,-1.81,-1.38,1.55,1.55,1.56
199.19,3.14,1.60,3.14,1.59,-1.60,-1.81,-1.41,1.54,1.54,1.54
201.18,3.14,1.61,3.14,1.60,-1.61,-1.81,-1.43,1.53,1.53,1.53
203.19,3.14,1.62,3.14,1.62,-1.62,-1.82,-1.45,1.52,1.52,1.52
205.23,3.14,1.63,3.14,1.63,-1.63,-1.82,-1.47,1.51,1.51,1.51
207.28,3.14,1.65,3.14,1.65,-1.65,-1.82,-1.50,1.49,1.49,1.49
209.35,3.14,1.67,3.14,1.66,-1.66,-1.82,-1.52,1.48,1.48,1.47
211.44,3.14,1.68,3.14,1.68,-1.68,-1.82,-1.54,1.46,1.46,1.46
213.56,3.14,1.69,3.14,1.69,-1.69,-1.82,-1.57,1.45,1.45,1.45
215.69,3.14,1.70,3.14,1.70,-1.70,-1.81,-1.59,1.44,1.44,1.44
217.85,3.14,1.72,3.14,1.72,-1.72,-1.81,-1.61,1.42,1.42,1.42
220.03,3.14,1.73,3.14,1.73,-1.74,-1.81,-1.64,1.40,1.40,1.41
222.23,3.14,1.75,3.14,1.74,-1.75,-1.81,-1.66,1.39,1.39,1.39
224.45,3.14,1.75,3.14,1.76,-1.77,-1.81,-1.68,1.37,1.37,1.39
226.70,3.14,1.77,3.14,1.77,-1.78,-1.80,-1.70,1.36,1.36,1.37
228.96,3.14,1.78,3.14,1.78,-1.78,-1.80,-1.72,1.36,1.36,1.36
231.25,3.14,1.79,3.15,1.80,-1.77,-1.79,-1.73,1.37,1.38,1.34
233.57,3.14,1.80,3.14,1.81,-1.76,-1.79,-1.75,1.38,1.39,1.34
235.90,3.14,1.81,3.10,1.77,-1.73,-1.78,-1.76,1.41,1.37,1.33
238.26,3.03,1.71,3.03,1.71,-1.71,-1.78,-1.78,1.32,1.32,1.32
240.64,2.93,1.62,2.96,1.65,-1.68,-1.77,-1.79,1.25,1.28,1.31
243.05,2.91,1.61,2.91,1.61,-1.66,-1.77,-1.79,1.25,1.25,1.30
245.48,2.91,1.61,2.90,1.60,-1.63,-1.76,-1.80,1.28,1.27,1.30
247.93,2.91,1.62,2.91,1.61,-1.62,-1.75,-1.80,1.29,1.29,1.29
250.41,2.91,1.62,2.91,1.62,-1.61,-1.75,-1.81,1.30,1.30,1.29
252.92,2.91,1.63,2.91,1.63,-1.61,-1.74,-1.81,1.30,1.30,1.28
255.45,2.91,1.63,2.91,1.63,-1.62,-1.73,-1.80,1.29,1.29,1.28
258.00,2.91,1.64,2.91,1.64,-1.63,-1.72,-1.80,1.28,1.28,1.27
260.58,2.91,1.64,2.91,1.64,-1.64,-1.72,-1.79,1.27,1.27,1.27
263.19,2.91,1.65,2.91,1.65,-1.65,-1.71,-1.79,1.26,1.26,1.26
265.82,2.91,1.66,2.91,1.66,-1.67,-1.70,-1.78,1.24,1.24,1.25
268.48,2.91,1.66,2.91,1.67,-1.68,-1.69,-1.77,1.23,1.23,1.25
271.16,2.91,1.68,2.91,1.67,-1.69,-1.68,-1.75,1.22,1.22,1.23
273.87,2.91,1.68,2.91,1.68,-1.69,-1.67,-1.74,1.22,1.22,1.23
276.61,2.91,1.68,2.91,1.69,-1.67,-1.66,-1.72,1.24,1.24,1.23
279.38,2.91,1.70,2.92,1.71,-1.65,-1.65,-1.71,1.26,1.27,1.21
282.17,2.91,1.70,2.89,1.68,-1.63,-1.64,-1.69,1.28,1.26,1.21
284.99,2.86,1.65,2.82,1.61,-1.60,-1.63,-1.67,1.26,1.22,1.21
287.84,2.69,1.49,2.74,1.54,-1.57,-1.62,-1.65,1.12,1.18,1.20
290.72,2.68,1.48,2.69,1.49,-1.54,-1.61,-1.63,1.14,1.15,1.20
293.63,2.68,1.48,2.66,1.46,-1.51,-1.60,-1.61,1.17,1.15,1.20
296.57,2.68,1.48,2.68,1.48,-1.49,-1.59,-1.59,1.19,1.19,1.20
299.53,2.68,1.49,2.68,1.49,-1.48,-1.58,-1.57,1.20,1.20,1.19
302.53,2.68,1.50,2.68,1.49,-1.48,-1.56,-1.55,1.20,1.20,1.18
305.55,2.68,1.50,2.68,1.50,-1.49,-1.55,-1.53,1.19,1.19,1.18
308.61,2.68,1.50,2.68,1.51,-1.50,-1.54,-1.52,1.17,1.17,1.18
311.69,2.68,1.52,2.68,1.51,-1.52,-1.53,-1.50,1.16,1.16,1.16
314.81,2.68,1.53,2.68,1.53,-1.53,-1.52,-1.48,1.15,1.15,1.15
317.96,2.68,1.54,2.68,1.54,-1.55,-1.50,-1.46,1.13,1.13,1.14
321.14,2.68,1.56,2.68,1.56,-1.57,-1.49,-1.44,1.11,1.11,1.12
324.35,2.68,1.57,2.68,1.57,-1.59,-1.48,-1.43,1.09,1.09,1.10
327.59,2.68,1.59,2.68,1.59,-1.60,-1.46,-1.41,1.08,1.08,1.09
330.87,2.68,1.60,2.68,1.60,-1.59,-1.45,-1.40,1.09,1.09,1.08
334.18,2.68,1.61,2.70,1.63,-1.58,-1.44,-1.38,1.10,1.11,1.07
337.52,2.68,1.62,2.68,1.62,-1.56,-1.42,-1.37,1.12,1.11,1.06
340.90,2.68,1.62,2.62,1.56,-1.54,-1.41,-1.36,1.14,1.08,1.06
344.30,2.50,1.45,2.54,1.50,-1.51,-1.40,-1.35,0.99,1.04,1.04
347.75,2.45,1.41,2.47,1.43,-1.48,-1.38,-1.34,0.97,1.00,1.04
351.23,2.45,1.41,2.43,1.40,-1.45,-1.37,-1.33,1.00,0.99,1.04
354.74,2.45,1.41,2.44,1.40,-1.42,-1.35,-1.33,1.03,1.02,1.04
358.28,2.45,1.41,2.45,1.41,-1.40,-1.34,-1.32,1.05,1.05,1.04
361.87,2.45,1.40,2.45,1.41,-1.39,-1.32,-1.31,1.06,1.06,1.05
365.49,2.45,1.40,2.45,1.40,-1.39,-1.31,-1.31,1.06,1.06,1.05
369.14,2.45,1.40,2.45,1.40,-1.40,-1.29,-1.31,1.05,1.05,1.04
372.83,2.45,1.41,2.45,1.40,-1.40,-1.28,-1.31,1.05,1.05,1.04
376.56,2.45,1.40,2.45,1.40,-1.41,-1.26,-1.30,1.04,1.04,1.05
380.33,2.45,1.40,2.45,1.40,-1.41,-1.25,-1.30,1.04,1.04,1.05
384.13,2.45,1.40,2.45,1.40,-1.41,-1.23,-1.31,1.04,1.04,1.05
387.97,2.45,1.40,2.45,1.40,-1.40,-1.22,-1.31,1.05,1.05,1.05
391.85,2.45,1.40,2.46,1.41,-1.38,-1.20,-1.31,1.07,1.07,1.05
395.77,2.45,1.40,2.46,1.41,-1.36,-1.19,-1.31,1.09,1.10,1.05
399.73,2.45,1.39,2.42,1.37,-1.33,-1.17,-1.32,1.12,1.09,1.06
403.72,2.37,1.31,2.36,1.30,-1.29,-1.16,-1.32,1.07,1.06,1.06
407.76,2.26,1.20,2.29,1.23,-1.26,-1.14,-1.33,1.00,1.03,1.05
411.84,2.23,1.18,2.24,1.18,-1.23,-1.13,-1.33,1.00,1.01,1.05
415.96,2.23,1.18,2.22,1.17,-1.20,-1.11,-1.34,1.03,1.02,1.05
420.12,2.23,1.18,2.23,1.17,-1.18,-1.09,-1.34,1.05,1.05,1.05
424.32,2.23,1.18,2.23,1.18,-1.17,-1.08,-1.35,1.06,1.06,1.05
428.56,2.23,1.18,2.23,1.18,-1.17,-1.06,-1.35,1.06,1.06,1.05
432.85,2.23,1.18,2.23,1.18,-1.18,-1.05,-1.36,1.05,1.05,1.05
437.18,2.23,1.18,2.23,1.18,-1.19,-1.03,-1.36,1.04,1.04,1.05
441.55,2.23,1.19,2.23,1.19,-1.19,-1.01,-1.37,1.04,1.04,1.04
445.96,2.23,1.19,2.23,1.19,-1.18,-1.00,-1.37,1.05,1.06,1.04
450.42,2.23,1.19,2.24,1.21,-1.16,-0.98,-1.37,1.07,1.09,1.04
454.93,2.23,1.19,2.21,1.17,-1.13,-0.96,-1.38,1.10,1.08,1.04
459.48,2.18,1.15,2.14,1.11,-1.09,-0.95,-1.38,1.08,1.05,1.03
464.07,2.03,0.99,2.07,1.04,-1.06,-0.93,-1.38,0.97,1.01,1.04
468.71,2.00,0.96,2.01,0.98,-1.03,-0.91,-1.38,0.97,0.99,1.04
473.40,2.00,0.96,1.99,0.95,-1.00,-0.90,-1.37,1.00,0.99,1.04
478.13,2.00,0.96,2.00,0.96,-0.98,-0.88,-1.37,1.02,1.02,1.03
482.91,2.00,0.95,2.00,0.96,-0.96,-0.86,-1.36,1.04,1.04,1.04
487.74,2.00,0.96,2.00,0.95,-0.95,-0.85,-1.35,1.05,1.05,1.04
492.62,2.00,0.95,2.00,0.95,-0.93,-0.83,-1.34,1.07,1.07,1.05
497.55,2.00,0.95,2.02,0.96,-0.91,-0.81,-1.33,1.09,1.11,1.05
502.52,2.00,0.94,2.00,0.93,-0.88,-0.79,-1.32,1.12,1.12,1.06
507.55,2.00,0.93,1.94,0.87,-0.84,-0.78,-1.30,1.16,1.10,1.07
512.62,1.83,0.76,1.87,0.79,-0.80,-0.76,-1.28,1.03,1.06,1.07
517.75,1.77,0.69,1.80,0.72,-0.76,-0.74,-1.26,1.01,1.03,1.08
522.93,1.77,0.69,1.76,0.67,-0.73,-0.73,-1.24,1.04,1.03,1.08
528.16,1.77,0.69,1.76,0.68,-0.70,-0.71,-1.22,1.07,1.06,1.08
533.44,1.77,0.69,1.77,0.69,-0.68,-0.69,-1.19,1.09,1.09,1.08
538.77,1.77,0.69,1.77,0.69,-0.68,-0.67,-1.17,1.09,1.09,1.08
544.16,1.77,0.69,1.77,0.69,-0.69,-0.65,-1.14,1.08,1.08,1.08
549.60,1.77,0.70,1.77,0.70,-0.70,-0.64,-1.11,1.06,1.06,1.07
555.10,1.77,0.71,1.77,0.71,-0.72,-0.62,-1.08,1.05,1.05,1.06
560.65,1.77,0.72,1.77,0.72,-0.73,-0.60,-1.05,1.04,1.04,1.05
