frequency,raw,error,smoothed,error_smoothed,equalization,parametric_eq,fixed_band_eq,equalized_raw,equalized_smoothed,target
20.00,4.72,1.82,4.72,1.82,-1.82,-2.24,-1.94,2.91,2.91,2.91
20.20,4.78,1.88,4.78,1.87,-1.87,-2.28,-2.00,2.91,2.91,2.91
20.40,4.84,1.93,4.84,1.92,-1.93,-2.32,-2.05,2.92,2.91,2.92
20.61,4.90,1.98,4.90,1.98,-1.98,-2.36,-2.11,2.92,2.92,2.93
20.81,4.96,2.04,4.97,2.04,-2.04,-2.40,-2.17,2.93,2.93,2.93
21.02,5.03,2.10,5.03,2.10,-2.09,-2.44,-2.23,2.94,2.94,2.94
21.23,5.09,2.16,5.09,2.15,-2.15,-2.48,-2.29,2.94,2.94,2.94
21.44,5.15,2.21,5.15,2.21,-2.20,-2.52,-2.35,2.95,2.95,2.95
21.66,5.21,2.26,5.21,2.26,-2.26,-2.56,-2.42,2.95,2.95,2.96
21.87,5.27,2.32,5.27,2.31,-2.32,-2.60,-2.49,2.96,2.96,2.96
22.09,5.33,2.37,5.33,2.37,-2.37,-2.64,-2.56,2.96,2.96,2.96
22.31,5.39,2.42,5.40,2.43,-2.43,-2.68,-2.63,2.97,2.97,2.97
22.54,5.46,2.49,5.46,2.48,-2.48,-2.73,-2.70,2.98,2.98,2.97
22.76,5.52,2.54,5.53,2.54,-2.54,-2.77,-2.78,2.99,2.99,2.98
22.99,5.59,2.60,5.59,2.60,-2.59,-2.81,-2.85,3.00,3.00,2.99
23.22,5.65,2.65,5.65,2.65,-2.65,-2.86,-2.93,3.00,3.00,3.00
23.45,5.71,2.70,5.72,2.70,-2.70,-2.90,-3.01,3.01,3.01,3.01
23.69,5.78,2.76,5.78,2.76,-2.76,-2.95,-3.09,3.02,3.02,3.02
23.92,5.84,2.81,5.84,2.81,-2.81,-2.99,-3.18,3.03,3.03,3.03
24.16,5.90,2.86,5.91,2.87,-2.87,-3.04,-3.26,3.04,3.04,3.04
24.40,5.97,2.92,5.97,2.92,-2.92,-3.08,-3.35,3.05,3.05,3.05
24.65,6.04,2.97,6.04,2.97,-2.97,-3.13,-3.44,3.07,3.07,3.07
24.89,6.10,3.02,6.11,3.03,-3.03,-3.18,-3.53,3.08,3.08,3.08
25.14,6.17,3.08,6.18,3.09,-3.08,-3.22,-3.62,3.09,3.09,3.09
25.39,6.24,3.14,6.24,3.14,-3.14,-3.27,-3.71,3.10,3.10,3.10
25.65,6.31,3.20,6.31,3.20,-3.20,-3.32,-3.80,3.12,3.11,3.11
25.91,6.37,3.24,6.38,3.25,-3.25,-3.37,-3.89,3.12,3.12,3.13
26.16,6.44,3.31,6.44,3.31,-3.31,-3.41,-3.98,3.13,3.13,3.14
26.43,6.51,3.37,6.51,3.36,-3.37,-3.46,-4.07,3.15,3.15,3.15
26.69,6.58,3.43,6.58,3.42,-3.42,-3.51,-4.16,3.16,3.16,3.16
26.96,6.65,3.48,6.65,3.48,-3.48,-3.56,-4.25,3.18,3.18,3.18
27.23,6.72,3.54,6.72,3.54,-3.53,-3.61,-4.33,3.19,3.19,3.18
27.50,6.79,3.59,6.79,3.59,-3.59,-3.66,-4.42,3.21,3.20,3.20
27.77,6.85,3.64,6.86,3.64,-3.64,-3.71,-4.50,3.21,3.21,3.21
28.05,6.92,3.69,6.92,3.69,-3.70,-3.76,-4.58,3.23,3.23,3.23
28.33,6.99,3.75,6.99,3.75,-3.75,-3.81,-4.66,3.24,3.24,3.24
28.62,7.06,3.80,7.07,3.81,-3.81,-3.86,-4.73,3.25,3.26,3.26
28.90,7.14,3.87,7.14,3.87,-3.86,-3.91,-4.80,3.28,3.28,3.27
29.19,7.21,3.92,7.21,3.93,-3.92,-3.96,-4.86,3.29,3.29,3.29
29.48,7.28,3.98,7.28,3.98,-3.98,-4.01,-4.92,3.31,3.31,3.30
29.78,7.35,4.04,7.35,4.04,-4.04,-4.06,-4.97,3.32,3.31,3.32
30.08,7.42,4.10,7.42,4.09,-4.10,-4.11,-5.02,3.32,3.32,3.33
30.38,7.49,4.15,7.49,4.15,-4.16,-4.16,-5.06,3.33,3.34,3.35
30.68,7.57,4.22,7.57,4.22,-4.22,-4.21,-5.10,3.35,3.35,3.35
30.99,7.65,4.28,7.65,4.28,-4.28,-4.27,-5.13,3.37,3.37,3.37
31.30,7.73,4.35,7.73,4.35,-4.35,-4.32,-5.15,3.38,3.38,3.38
31.61,7.81,4.41,7.81,4.41,-4.41,-4.37,-5.17,3.40,3.40,3.40
31.93,7.89,4.48,7.89,4.48,-4.48,-4.42,-5.18,3.41,3.41,3.41
32.24,7.97,4.55,7.97,4.54,-4.54,-4.47,-5.18,3.43,3.43,3.43
32.57,8.04,4.61,8.05,4.61,-4.60,-4.52,-5.18,3.44,3.44,3.44
32.89,8.12,4.67,8.12,4.67,-4.67,-4.57,-5.17,3.46,3.46,3.46
33.22,8.19,4.73,8.19,4.73,-4.73,-4.61,-5.16,3.47,3.47,3.46
33.55,8.26,4.78,8.26,4.78,-4.78,-4.66,-5.14,3.48,3.48,3.48
33.89,8.33,4.84,8.33,4.84,-4.84,-4.71,-5.12,3.49,3.49,3.49
34.23,8.40,4.89,8.40,4.90,-4.90,-4.76,-5.10,3.50,3.50,3.51
34.57,8.47,4.96,8.47,4.96,-4.96,-4.81,-5.07,3.52,3.52,3.52
34.92,8.54,5.02,8.54,5.01,-5.02,-4.85,-5.03,3.53,3.53,3.52
35.27,8.61,5.07,8.61,5.07,-5.08,-4.90,-5.00,3.54,3.54,3.54
35.62,8.68,5.13,8.68,5.13,-5.14,-4.94,-4.96,3.55,3.55,3.55
35.97,8.75,5.19,8.75,5.19,-5.20,-4.99,-4.93,3.56,3.56,3.56
36.33,8.82,5.26,8.82,5.26,-5.25,-5.03,-4.89,3.57,3.57,3.57
36.70,8.89,5.32,8.89,5.32,-5.31,-5.07,-4.85,3.58,3.58,3.57
37.06,8.95,5.37,8.95,5.37,-5.37,-5.12,-4.81,3.59,3.59,3.58
37.43,9.01,5.42,9.01,5.42,-5.42,-5.16,-4.77,3.59,3.59,3.59
37.81,9.06,5.47,9.07,5.47,-5.47,-5.20,-4.73,3.59,3.59,3.60
38.19,9.12,5.52,9.12,5.52,-5.52,-5.24,-4.69,3.60,3.60,3.60
38.57,9.18,5.57,9.18,5.57,-5.57,-5.27,-4.66,3.61,3.61,3.61
38.95,9.23,5.61,9.23,5.61,-5.62,-5.31,-4.62,3.62,3.62,3.62
39.34,9.28,5.66,9.28,5.66,-5.66,-5.35,-4.59,3.63,3.63,3.63
39.74,9.33,5.70,9.33,5.70,-5.70,-5.38,-4.56,3.63,3.63,3.63
40.14,9.37,5.74,9.37,5.74,-5.74,-5.41,-4.54,3.64,3.64,3.63
40.54,9.41,5.78,9.41,5.77,-5.77,-5.45,-4.51,3.64,3.64,3.64
40.94,9.44,5.80,9.45,5.80,-5.81,-5.48,-4.49,3.64,3.64,3.64
41.35,9.48,5.83,9.48,5.83,-5.84,-5.50,-4.47,3.65,3.65,3.65
41.76,9.51,5.86,9.51,5.86,-5.86,-5.53,-4.45,3.65,3.65,3.66
42.18,9.54,5.88,9.55,5.88,-5.89,-5.56,-4.44,3.66,3.66,3.66
42.60,9.57,5.91,9.57,5.91,-5.91,-5.58,-4.43,3.67,3.67,3.67
43.03,9.60,5.93,9.60,5.93,-5.92,-5.60,-4.43,3.68,3.68,3.67
43.46,9.61,5.93,9.62,5.94,-5.93,-5.62,-4.42,3.68,3.68,3.68
43.90,9.63,5.95,9.63,5.94,-5.94,-5.64,-4.42,3.69,3.69,3.68
44.33,9.64,5.94,9.64,5.95,-5.95,-5.66,-4.43,3.70,3.70,3.70
44.78,9.65,5.95,9.65,5.95,-5.94,-5.68,-4.44,3.71,3.71,3.70
45.23,9.65,5.94,9.65,5.94,-5.94,-5.69,-4.45,3.71,3.71,3.71
45.68,9.64,5.92,9.65,5.93,-5.93,-5.70,-4.46,3.71,3.72,3.72
46.13,9.64,5.91,9.64,5.91,-5.91,-5.71,-4.48,3.73,3.73,3.73
46.60,9.63,5.89,9.64,5.89,-5.90,-5.72,-4.50,3.74,3.74,3.74
47.06,9.63,5.89,9.63,5.88,-5.88,-5.72,-4.53,3.76,3.75,3.75
47.53,9.61,5.85,9.61,5.85,-5.85,-5.73,-4.55,3.76,3.76,3.76
48.01,9.59,5.83,9.60,5.83,-5.82,-5.73,-4.59,3.77,3.77,3.76
48.49,9.57,5.79,9.57,5.79,-5.79,-5.73,-4.62,3.78,3.78,3.78
48.97,9.54,5.76,9.54,5.76,-5.76,-5.73,-4.65,3.78,3.78,3.78
49.46,9.51,5.72,9.51,5.72,-5.72,-5.72,-4.69,3.79,3.79,3.79
49.96,9.47,5.68,9.48,5.68,-5.68,-5.72,-4.73,3.79,3.79,3.80
50.46,9.44,5.64,9.44,5.64,-5.64,-5.71,-4.78,3.80,3.80,3.80
50.96,9.41,5.60,9.41,5.60,-5.60,-5.70,-4.82,3.81,3.81,3.81
51.47,9.37,5.56,9.37,5.56,-5.56,-5.69,-4.87,3.82,3.82,3.81
51.99,9.33,5.52,9.33,5.52,-5.51,-5.67,-4.92,3.82,3.82,3.81
52.51,9.28,5.47,9.28,5.47,-5.47,-5.66,-4.96,3.82,3.82,3.82
53.03,9.23,5.42,9.24,5.42,-5.42,-5.64,-5.01,3.81,3.82,3.82
53.56,9.19,5.37,9.19,5.37,-5.37,-5.62,-5.06,3.82,3.82,3.83
54.10,9.15,5.33,9.15,5.32,-5.33,-5.60,-5.11,3.83,3.82,3.83
54.64,9.10,5.28,9.10,5.28,-5.28,-5.57,-5.16,3.82,3.82,3.83
55.18,9.05,5.24,9.05,5.23,-5.24,-5.55,-5.20,3.82,3.82,3.82
55.74,9.00,5.19,9.01,5.19,-5.19,-5.52,-5.25,3.81,3.81,3.82
56.29,8.96,5.15,8.96,5.15,-5.15,-5.49,-5.29,3.81,3.81,3.82
56.86,8.92,5.12,8.92,5.11,-5.11,-5.46,-5.33,3.81,3.81,3.80
57.42,8.87,5.07,8.87,5.07,-5.07,-5.43,-5.36,3.80,3.80,3.80
58.00,8.82,5.03,8.82,5.03,-5.03,-5.40,-5.40,3.80,3.80,3.79
58.58,8.77,4.99,8.77,4.99,-4.98,-5.36,-5.42,3.79,3.79,3.79
59.16,8.71,4.94,8.71,4.94,-4.94,-5.33,-5.45,3.77,3.77,3.77
59.76,8.65,4.89,8.65,4.89,-4.90,-5.29,-5.46,3.76,3.76,3.76
60.35,8.59,4.85,8.59,4.85,-4.85,-5.25,-5.47,3.74,3.74,3.75
60.96,8.53,4.80,8.53,4.80,-4.80,-5.21,-5.48,3.73,3.73,3.73
61.57,8.47,4.76,8.47,4.75,-4.75,-5.17,-5.48,3.72,3.72,3.72
62.18,8.40,4.70,8.41,4.71,-4.70,-5.13,-5.47,3.70,3.70,3.70
62.80,8.34,4.66,8.34,4.66,-4.65,-5.08,-5.46,3.69,3.69,3.68
63.43,8.27,4.60,8.27,4.60,-4.60,-5.04,-5.44,3.67,3.67,3.67
64.07,8.19,4.55,8.20,4.55,-4.55,-4.99,-5.42,3.64,3.64,3.64
64.71,8.12,4.50,8.12,4.50,-4.50,-4.94,-5.39,3.62,3.62,3.62
65.35,8.05,4.45,8.06,4.45,-4.45,-4.90,-5.35,3.60,3.60,3.61
66.01,7.99,4.41,7.99,4.41,-4.41,-4.85,-5.31,3.59,3.59,3.59
66.67,7.93,4.36,7.93,4.36,-4.36,-4.80,-5.26,3.57,3.57,3.57
67.33,7.87,4.32,7.87,4.32,-4.32,-4.75,-5.21,3.55,3.55,3.55
68.01,7.80,4.28,7.81,4.28,-4.28,-4.70,-5.15,3.52,3.52,3.52
68.69,7.74,4.25,7.74,4.24,-4.25,-4.65,-5.09,3.50,3.49,3.50
69.37,7.68,4.21,7.69,4.21,-4.21,-4.60,-5.02,3.47,3.47,3.48
70.07,7.63,4.18,7.63,4.18,-4.18,-4.55,-4.95,3.46,3.46,3.45
70.77,7.58,4.15,7.58,4.15,-4.14,-4.49,-4.88,3.44,3.44,3.43
71.48,7.52,4.11,7.52,4.11,-4.11,-4.44,-4.81,3.42,3.42,3.41
72.19,7.46,4.08,7.47,4.08,-4.07,-4.39,-4.73,3.39,3.39,3.39
72.91,7.41,4.04,7.41,4.04,-4.04,-4.34,-4.66,3.37,3.37,3.37
73.64,7.35,4.01,7.35,4.01,-4.01,-4.29,-4.58,3.34,3.34,3.35
74.38,7.30,3.97,7.30,3.97,-3.98,-4.23,-4.50,3.32,3.32,3.33
75.12,7.25,3.95,7.26,3.95,-3.95,-4.18,-4.43,3.30,3.31,3.31
75.87,7.21,3.92,7.21,3.92,-3.92,-4.13,-4.35,3.29,3.29,3.29
76.63,7.17,3.90,7.17,3.90,-3.89,-4.08,-4.28,3.28,3.28,3.27
77.40,7.12,3.87,7.12,3.87,-3.86,-4.03,-4.20,3.26,3.26,3.25
78.17,7.07,3.84,7.07,3.83,-3.84,-3.98,-4.13,3.24,3.23,3.24
78.95,7.01,3.80,7.02,3.80,-3.81,-3.93,-4.05,3.20,3.21,3.22
79.74,6.97,3.78,6.97,3.78,-3.78,-3.88,-3.98,3.19,3.20,3.20
80.54,6.93,3.76,6.93,3.75,-3.75,-3.83,-3.92,3.19,3.18,3.18
81.35,6.88,3.73,6.88,3.73,-3.72,-3.79,-3.85,3.16,3.16,3.16
82.16,6.82,3.69,6.83,3.69,-3.69,-3.74,-3.78,3.13,3.14,3.13
82.98,6.77,3.66,6.77,3.66,-3.66,-3.70,-3.72,3.11,3.11,3.11
83.81,6.71,3.62,6.72,3.63,-3.64,-3.66,-3.66,3.08,3.08,3.09
84.65,6.67,3.61,6.67,3.61,-3.61,-3.63,-3.61,3.06,3.06,3.07
85.50,6.63,3.59,6.63,3.58,-3.58,-3.59,-3.55,3.05,3.05,3.04
86.35,6.58,3.56,6.58,3.56,-3.56,-3.56,-3.50,3.03,3.03,3.02
87.22,6.53,3.54,6.53,3.54,-3.53,-3.54,-3.45,3.01,3.01,3.00
88.09,6.47,3.50,6.48,3.50,-3.50,-3.52,-3.40,2.98,2.98,2.97
88.97,6.42,3.47,6.42,3.47,-3.47,-3.50,-3.36,2.95,2.95,2.96
89.86,6.36,3.43,6.36,3.43,-3.44,-3.49,-3.32,2.92,2.92,2.93
90.76,6.30,3.40,6.31,3.40,-3.41,-3.49,-3.28,2.89,2.90,2.90
91.66,6.25,3.37,6.25,3.37,-3.38,-3.50,-3.24,2.88,2.88,2.89
92.58,6.20,3.34,6.20,3.34,-3.35,-3.50,-3.21,2.86,2.86,2.86
93.51,6.15,3.32,6.15,3.32,-3.31,-3.51,-3.18,2.84,2.84,2.83
94.44,6.09,3.28,6.10,3.29,-3.28,-3.51,-3.15,2.81,2.82,2.82
95.39,6.04,3.26,6.04,3.25,-3.24,-3.51,-3.12,2.80,2.80,2.79
96.34,5.97,3.20,5.97,3.20,-3.19,-3.49,-3.10,2.78,2.78,2.77
97.30,5.89,3.15,5.90,3.16,-3.14,-3.45,-3.08,2.75,2.75,2.74
98.28,5.81,3.10,5.81,3.10,-3.09,-3.38,-3.06,2.72,2.72,2.71
99.26,5.72,3.04,5.72,3.04,-3.04,-3.29,-3.04,2.68,2.68,2.68
100.25,5.63,2.97,5.63,2.97,-2.99,-3.19,-3.02,2.65,2.64,2.66
101.25,5.53,2.90,5.54,2.91,-2.93,-3.08,-3.01,2.60,2.61,2.64
102.27,5.45,2.85,5.47,2.86,-2.88,-2.97,-2.99,2.58,2.59,2.61
103.29,5.40,2.84,5.39,2.82,-2.82,-2.86,-2.98,2.59,2.57,2.57
104.32,5.32,2.79,5.31,2.78,-2.76,-2.75,-2.97,2.57,2.56,2.54
105.37,5.21,2.71,5.22,2.72,-2.69,-2.66,-2.96,2.52,2.53,2.51
106.42,5.10,2.63,5.11,2.64,-2.63,-2.57,-2.94,2.48,2.48,2.47
107.48,4.99,2.56,4.99,2.56,-2.55,-2.48,-2.93,2.44,2.44,2.43
108.56,4.86,2.47,4.86,2.47,-2.47,-2.40,-2.92,2.39,2.39,2.39
109.64,4.73,2.38,4.74,2.38,-2.39,-2.33,-2.91,2.34,2.35,2.35
110.74,4.60,2.29,4.61,2.30,-2.31,-2.27,-2.90,2.30,2.30,2.31
111.85,4.49,2.22,4.49,2.22,-2.23,-2.21,-2.89,2.27,2.26,2.27
112.97,4.36,2.14,4.36,2.13,-2.15,-2.15,-2.88,2.22,2.21,2.22
114.10,4.24,2.06,4.25,2.06,-2.07,-2.10,-2.86,2.17,2.18,2.19
115.24,4.12,1.99,4.14,2.00,-2.00,-2.05,-2.84,2.13,2.15,2.14
116.39,4.05,1.95,4.04,1.94,-1.92,-2.01,-2.83,2.13,2.12,2.10
117.55,3.94,1.89,3.93,1.88,-1.85,-1.96,-2.81,2.09,2.08,2.05
118.73,3.80,1.79,3.80,1.79,-1.79,-1.93,-2.78,2.02,2.02,2.01
119.92,3.67,1.71,3.68,1.71,-1.72,-1.89,-2.76,1.95,1.96,1.97
121.12,3.56,1.63,3.58,1.65,-1.67,-1.86,-2.73,1.90,1.91,1.93
122.33,3.51,1.62,3.50,1.61,-1.62,-1.83,-2.70,1.89,1.88,1.89
123.55,3.44,1.59,3.44,1.58,-1.58,-1.81,-2.66,1.86,1.85,1.86
124.79,3.37,1.55,3.38,1.55,-1.55,-1.79,-2.63,1.82,1.82,1.82
126.03,3.31,1.53,3.32,1.53,-1.54,-1.77,-2.58,1.78,1.78,1.79
127.29,3.28,1.53,3.28,1.53,-1.53,-1.75,-2.54,1.75,1.75,1.75
128.57,3.26,1.54,3.25,1.54,-1.54,-1.74,-2.49,1.72,1.71,1.72
129.85,3.23,1.55,3.24,1.55,-1.55,-1.73,-2.44,1.68,1.68,1.69
131.15,3.22,1.57,3.23,1.57,-1.57,-1.73,-2.39,1.65,1.65,1.65
132.46,3.22,1.60,3.22,1.60,-1.60,-1.73,-2.33,1.63,1.63,1.62
133.79,3.22,1.63,3.22,1.63,-1.62,-1.73,-2.27,1.60,1.60,1.60
135.12,3.22,1.66,3.22,1.66,-1.65,-1.74,-2.21,1.57,1.57,1.57
136.48,3.22,1.69,3.22,1.69,-1.68,-1.75,-2.14,1.54,1.54,1.54
137.84,3.22,1.72,3.22,1.72,-1.71,-1.76,-2.08,1.51,1.51,1.51
139.22,3.22,1.75,3.22,1.75,-1.75,-1.78,-2.01,1.48,1.48,1.48
140.61,3.22,1.78,3.23,1.78,-1.79,-1.80,-1.93,1.44,1.44,1.45
142.02,3.24,1.82,3.24,1.81,-1.83,-1.83,-1.86,1.42,1.41,1.43
143.44,3.25,1.85,3.26,1.86,-1.87,-1.86,-1.78,1.38,1.39,1.40
144.87,3.29,1.92,3.29,1.92,-1.92,-1.89,-1.71,1.37,1.37,1.37
146.32,3.31,1.98,3.31,1.98,-1.97,-1.93,-1.63,1.34,1.34,1.34
147.78,3.34,2.03,3.34,2.03,-2.03,-1.97,-1.55,1.32,1.32,1.31
149.26,3.36,2.08,3.36,2.08,-2.08,-2.01,-1.47,1.29,1.28,1.28
150.75,3.38,2.12,3.38,2.12,-2.13,-2.05,-1.38,1.26,1.26,1.26
152.26,3.39,2.16,3.40,2.17,-2.17,-2.09,-1.30,1.22,1.23,1.23
153.78,3.42,2.22,3.41,2.21,-2.21,-2.13,-1.22,1.21,1.21,1.20
155.32,3.42,2.25,3.42,2.24,-2.24,-2.17,-1.13,1.18,1.18,1.18
156.88,3.41,2.26,3.42,2.26,-2.26,-2.21,-1.05,1.15,1.16,1.16
158.44,3.40,2.27,3.40,2.27,-2.27,-2.24,-0.96,1.13,1.13,1.13
160.03,3.37,2.27,3.38,2.28,-2.27,-2.26,-0.88,1.10,1.11,1.10
161.63,3.35,2.27,3.35,2.27,-2.26,-2.28,-0.79,1.09,1.09,1.08
163.24,3.31,2.26,3.30,2.25,-2.24,-2.29,-0.71,1.07,1.06,1.05
164.88,3.23,2.20,3.24,2.21,-2.21,-2.28,-0.62,1.02,1.03,1.03
166.53,3.16,2.16,3.16,2.16,-2.17,-2.26,-0.54,0.99,0.99,1.00
168.19,3.09,2.12,3.08,2.11,-2.12,-2.23,-0.45,0.97,0.96,0.97
169.87,2.99,2.05,3.01,2.06,-2.07,-2.18,-0.36,0.92,0.94,0.94
171.57,2.92,2.01,2.92,2.00,-2.01,-2.12,-0.28,0.92,0.92,0.92
173.29,2.84,1.95,2.82,1.94,-1.94,-2.04,-0.19,0.91,0.89,0.89
175.02,2.71,1.85,2.72,1.86,-1.86,-1.94,-0.11,0.86,0.86,0.86
176.77,2.59,1.77,2.60,1.77,-1.77,-1.83,-0.02,0.82,0.83,0.83
178.54,2.48,1.68,2.48,1.68,-1.67,-1.71,0.07,0.81,0.81,0.80
180.32,2.35,1.59,2.35,1.58,-1.57,-1.57,0.15,0.78,0.78,0.77
182.13,2.22,1.48,2.20,1.46,-1.45,-1.42,0.24,0.77,0.74,0.74
183.95,2.00,1.30,2.03,1.33,-1.33,-1.26,0.33,0.67,0.70,0.71
185.79,1.86,1.19,1.87,1.19,-1.21,-1.10,0.41,0.66,0.66,0.67
187.65,1.71,1.06,1.70,1.06,-1.07,-0.93,0.50,0.64,0.63,0.65
189.52,1.54,0.93,1.55,0.93,-0.92,-0.75,0.59,0.62,0.62,0.62
191.42,1.37,0.79,1.37,0.78,-0.77,-0.58,0.67,0.60,0.60,0.59
193.33,1.18,0.63,1.18,0.63,-0.61,-0.40,0.76,0.57,0.57,0.55
195.27,0.98,0.45,0.98,0.45,-0.45,-0.22,0.85,0.53,0.53,0.53
197.22,0.77,0.27,0.78,0.28,-0.28,-0.05,0.93,0.49,0.49,0.50
199.19,0.56,0.09,0.56,0.09,-0.10,0.13,1.02,0.46,0.46,0.47
201.18,0.34,-0.09,0.34,-0.09,0.08,0.29,1.10,0.43,0.43,0.43
203.19,0.12,-0.28,0.13,-0.27,0.28,0.46,1.19,0.40,0.40,0.40
205.23,-0.10,-0.47,-0.10,-0.46,0.48,0.62,1.27,0.38,0.38,0.37
207.28,-0.32,-0.66,-0.32,-0.66,0.68,0.78,1.35,0.36,0.35,0.34
209.35,-0.56,-0.87,-0.56,-0.86,0.88,0.93,1.44,0.32,0.32,0.31
211.44,-0.80,-1.07,-0.80,-1.07,1.07,1.07,1.52,0.28,0.27,0.27
213.56,-1.05,-1.29,-1.05,-1.29,1.27,1.21,1.59,0.22,0.22,0.24
215.69,-1.29,-1.49,-1.29,-1.49,1.46,1.35,1.67,0.18,0.18,0.20
217.85,-1.52,-1.68,-1.49,-1.66,1.65,1.47,1.75,0.13,0.16,0.17
220.03,-1.68,-1.82,-1.69,-1.83,1.83,1.60,1.82,0.16,0.14,0.14
222.23,-1.86,-1.97,-1.88,-1.98,2.01,1.71,1.89,0.15,0.13,0.11
224.45,-2.09,-2.16,-2.08,-2.16,2.17,1.82,1.96,0.08,0.09,0.07
226.70,-2.28,-2.32,-2.28,-2.32,2.33,1.93,2.02,0.05,0.05,0.05
228.96,-2.48,-2.50,-2.46,-2.48,2.47,2.03,2.08,-0.01,0.01,0.02
231.25,-2.60,-2.59,-2.61,-2.61,2.60,2.12,2.14,0.01,-0.01,-0.01
233.57,-2.75,-2.72,-2.76,-2.73,2.72,2.21,2.19,-0.02,-0.03,-0.02
235.90,-2.90,-2.85,-2.88,-2.84,2.83,2.29,2.24,-0.07,-0.05,-0.05
238.26,-2.99,-2.92,-2.99,-2.93,2.92,2.37,2.29,-0.07,-0.07,-0.06
240.64,-3.09,-3.01,-3.08,-3.00,2.99,2.44,2.33,-0.10,-0.09,-0.08
243.05,-3.14,-3.04,-3.14,-3.05,3.05,2.50,2.36,-0.09,-0.10,-0.10
245.48,-3.20,-3.09,-3.20,-3.09,3.09,2.56,2.40,-0.11,-0.11,-0.11
247.93,-3.24,-3.11,-3.23,-3.11,3.11,2.62,2.42,-0.12,-0.12,-0.13
250.41,-3.26,-3.12,-3.27,-3.13,3.13,2.67,2.44,-0.13,-0.14,-0.14
252.92,-3.29,-3.13,-3.28,-3.13,3.13,2.72,2.46,-0.16,-0.15,-0.15
255.45,-3.30,-3.13,-3.29,-3.12,3.12,2.76,2.47,-0.17,-0.17,-0.17
258.00,-3.29,-3.10,-3.29,-3.11,3.11,2.79,2.48,-0.18,-0.19,-0.18
260.58,-3.28,-3.09,-3.28,-3.09,3.08,2.83,2.48,-0.20,-0.20,-0.19
263.19,-3.26,-3.06,-3.25,-3.05,3.05,2.85,2.48,-0.21,-0.20,-0.20
265.82,-3.22,-3.00,-3.22,-3.01,3.01,2.88,2.47,-0.21,-0.21,-0.22
268.48,-3.19,-2.96,-3.19,-2.96,2.96,2.90,2.46,-0.22,-0.22,-0.23
271.16,-3.16,-2.91,-3.15,-2.91,2.92,2.91,2.44,-0.24,-0.24,-0.24
273.87,-3.12,-2.86,-3.12,-2.87,2.87,2.92,2.42,-0.25,-0.25,-0.26
276.61,-3.09,-2.82,-3.09,-2.82,2.82,2.93,2.40,-0.27,-0.27,-0.27
279.38,-3.06,-2.78,-3.05,-2.77,2.77,2.94,2.38,-0.29,-0.28,-0.28
282.17,-3.02,-2.72,-3.02,-2.73,2.72,2.94,2.35,-0.30,-0.30,-0.30
284.99,-2.99,-2.68,-2.99,-2.68,2.68,2.93,2.32,-0.31,-0.31,-0.31
287.84,-2.96,-2.64,-2.95,-2.63,2.64,2.93,2.29,-0.32,-0.32,-0.32
290.72,-2.93,-2.59,-2.93,-2.60,2.60,2.92,2.26,-0.32,-0.33,-0.33
293.63,-2.91,-2.56,-2.91,-2.56,2.57,2.91,2.23,-0.33,-0.34,-0.35
296.57,-2.90,-2.54,-2.90,-2.54,2.55,2.89,2.19,-0.35,-0.35,-0.36
299.53,-2.90,-2.53,-2.90,-2.52,2.53,2.88,2.16,-0.37,-0.37,-0.37
302.53,-2.90,-2.51,-2.90,-2.51,2.51,2.86,2.12,-0.38,-0.39,-0.38
305.55,-2.91,-2.50,-2.91,-2.51,2.50,2.84,2.08,-0.41,-0.41,-0.41
308.61,-2.92,-2.50,-2.91,-2.50,2.49,2.81,2.05,-0.43,-0.42,-0.42
311.69,-2.92,-2.49,-2.92,-2.48,2.48,2.79,2.01,-0.44,-0.44,-0.43
314.81,-2.92,-2.47,-2.92,-2.47,2.47,2.76,1.98,-0.45,-0.45,-0.45
317.96,-2.92,-2.45,-2.92,-2.45,2.46,2.73,1.94,-0.46,-0.46,-0.46
321.14,-2.93,-2.44,-2.92,-2.44,2.45,2.70,1.91,-0.48,-0.48,-0.49
324.35,-2.93,-2.43,-2.93,-2.43,2.43,2.67,1.88,-0.49,-0.50,-0.50
327.59,-2.94,-2.42,-2.94,-2.42,2.42,2.63,1.84,-0.52,-0.52,-0.52
330.87,-2.94,-2.41,-2.94,-2.40,2.40,2.60,1.81,-0.54,-0.54,-0.53
334.18,-2.94,-2.39,-2.93,-2.38,2.38,2.56,1.78,-0.56,-0.56,-0.55
337.52,-2.92,-2.35,-2.92,-2.36,2.35,2.52,1.75,-0.57,-0.57,-0.56
340.90,-2.91,-2.32,-2.90,-2.32,2.32,2.49,1.72,-0.59,-0.59,-0.58
344.30,-2.88,-2.28,-2.88,-2.28,2.28,2.45,1.70,-0.60,-0.60,-0.60
347.75,-2.86,-2.24,-2.86,-2.24,2.24,2.41,1.67,-0.62,-0.62,-0.62
351.23,-2.83,-2.19,-2.83,-2.19,2.19,2.37,1.65,-0.64,-0.64,-0.64
354.74,-2.80,-2.15,-2.80,-2.14,2.14,2.32,1.63,-0.66,-0.66,-0.65
358.28,-2.76,-2.09,-2.76,-2.09,2.09,2.28,1.61,-0.67,-0.67,-0.67
361.87,-2.73,-2.04,-2.72,-2.03,2.04,2.24,1.59,-0.69,-0.69,-0.69
365.49,-2.69,-1.98,-2.69,-1.98,1.98,2.20,1.57,-0.70,-0.71,-0.70
369.14,-2.66,-1.93,-2.66,-1.94,1.93,2.15,1.55,-0.72,-0.72,-0.72
372.83,-2.64,-1.90,-2.63,-1.89,1.89,2.11,1.54,-0.75,-0.74,-0.74
376.56,-2.60,-1.84,-2.61,-1.85,1.85,2.06,1.52,-0.75,-0.75,-0.76
380.33,-2.59,-1.81,-2.59,-1.81,1.82,2.02,1.51,-0.77,-0.76,-0.78
384.13,-2.58,-1.79,-2.57,-1.78,1.80,1.97,1.50,-0.78,-0.77,-0.79
387.97,-2.57,-1.76,-2.57,-1.77,1.78,1.93,1.49,-0.78,-0.79,-0.81
391.85,-2.58,-1.76,-2.58,-1.76,1.77,1.89,1.48,-0.80,-0.81,-0.82
395.77,-2.60,-1.77,-2.60,-1.77,1.76,1.84,1.47,-0.83,-0.83,-0.83
399.73,-2.62,-1.78,-2.61,-1.77,1.75,1.80,1.46,-0.86,-0.86,-0.84
403.72,-2.62,-1.77,-2.62,-1.76,1.74,1.75,1.46,-0.87,-0.87,-0.85
407.76,-2.61,-1.74,-2.61,-1.74,1.73,1.71,1.45,-0.88,-0.88,-0.86
411.84,-2.60,-1.71,-2.60,-1.72,1.71,1.66,1.44,-0.89,-0.88,-0.88
415.96,-2.58,-1.68,-2.57,-1.68,1.69,1.62,1.44,-0.89,-0.89,-0.89
420.12,-2.55,-1.64,-2.55,-1.65,1.65,1.57,1.43,-0.89,-0.89,-0.90
424.32,-2.52,-1.60,-2.53,-1.61,1.62,1.53,1.43,-0.90,-0.91,-0.92
428.56,-2.51,-1.58,-2.50,-1.57,1.57,1.49,1.43,-0.93,-0.93,-0.93
432.85,-2.48,-1.53,-2.47,-1.53,1.52,1.44,1.42,-0.95,-0.95,-0.95
437.18,-2.44,-1.48,-2.44,-1.48,1.47,1.40,1.42,-0.97,-0.97,-0.96
441.55,-2.40,-1.43,-2.40,-1.42,1.42,1.36,1.41,-0.98,-0.98,-0.97
445.96,-2.35,-1.36,-2.35,-1.36,1.36,1.31,1.41,-0.99,-0.99,-0.99
450.42,-2.30,-1.29,-2.30,-1.29,1.29,1.27,1.40,-1.00,-1.00,-1.01
454.93,-2.25,-1.23,-2.25,-1.22,1.23,1.23,1.39,-1.01,-1.01,-1.02
459.48,-2.20,-1.16,-2.20,-1.16,1.17,1.19,1.38,-1.03,-1.03,-1.04
464.07,-2.16,-1.10,-2.16,-1.10,1.11,1.14,1.37,-1.04,-1.05,-1.06
468.71,-2.13,-1.05,-2.12,-1.05,1.06,1.10,1.36,-1.07,-1.07,-1.08
473.40,-2.09,-1.00,-2.09,-1.00,1.00,1.06,1.35,-1.09,-1.09,-1.09
478.13,-2.07,-0.96,-2.07,-0.96,0.95,1.02,1.34,-1.12,-1.12,-1.11
482.91,-2.04,-0.92,-2.03,-0.91,0.89,0.98,1.32,-1.14,-1.14,-1.12
487.74,-1.99,-0.85,-1.99,-0.85,0.84,0.94,1.30,-1.15,-1.15,-1.14
492.62,-1.94,-0.79,-1.94,-0.79,0.79,0.90,1.28,-1.15,-1.15,-1.15
497.55,-1.89,-0.73,-1.89,-0.73,0.73,0.86,1.26,-1.16,-1.16,-1.16
502.52,-1.85,-0.67,-1.84,-0.67,0.68,0.82,1.24,-1.17,-1.16,-1.17
507.55,-1.80,-0.61,-1.80,-0.62,0.62,0.78,1.21,-1.17,-1.18,-1.18
512.62,-1.77,-0.56,-1.77,-0.57,0.57,0.74,1.18,-1.19,-1.19,-1.20
517.75,-1.74,-0.52,-1.74,-0.52,0.52,0.70,1.15,-1.21,-1.22,-1.21
