frequency,raw,error,smoothed,error_smoothed,equalization,parametric_eq,fixed_band_eq,equalized_raw,equalized_smoothed,target
20.00,6.01,-0.30,6.01,-0.30,0.30,-0.04,-0.19,6.30,6.30,6.31
20.20,6.04,-0.25,6.04,-0.25,0.25,-0.05,-0.20,6.29,6.29,6.29
20.40,6.08,-0.20,6.08,-0.21,0.21,-0.06,-0.20,6.29,6.29,6.28
20.61,6.11,-0.17,6.11,-0.16,0.17,-0.07,-0.21,6.28,6.28,6.28
20.81,6.14,-0.12,6.14,-0.12,0.13,-0.08,-0.21,6.27,6.27,6.26
21.02,6.17,-0.08,6.17,-0.09,0.09,-0.10,-0.22,6.26,6.26,6.25
21.23,6.19,-0.05,6.19,-0.05,0.06,-0.11,-0.22,6.25,6.25,6.24
21.44,6.22,-0.03,6.22,-0.03,0.02,-0.12,-0.23,6.24,6.24,6.25
21.66,6.24,-0.00,6.24,0.00,-0.01,-0.13,-0.23,6.23,6.23,6.24
21.87,6.27,0.04,6.26,0.04,-0.04,-0.15,-0.24,6.23,6.22,6.23
22.09,6.29,0.07,6.29,0.07,-0.07,-0.16,-0.24,6.22,6.22,6.22
22.31,6.31,0.09,6.31,0.10,-0.10,-0.17,-0.25,6.21,6.21,6.22
22.54,6.34,0.13,6.34,0.13,-0.13,-0.19,-0.25,6.21,6.21,6.21
22.76,6.37,0.15,6.36,0.16,-0.16,-0.20,-0.26,6.21,6.21,6.21
22.99,6.39,0.18,6.39,0.19,-0.18,-0.21,-0.26,6.21,6.21,6.20
23.22,6.41,0.21,6.41,0.21,-0.20,-0.23,-0.27,6.21,6.21,6.19
23.45,6.42,0.23,6.42,0.22,-0.21,-0.24,-0.28,6.21,6.21,6.19
23.69,6.42,0.23,6.42,0.23,-0.22,-0.26,-0.28,6.20,6.20,6.19
23.92,6.42,0.23,6.42,0.23,-0.22,-0.27,-0.29,6.20,6.20,6.19
24.16,6.42,0.23,6.42,0.22,-0.23,-0.29,-0.29,6.19,6.19,6.19
24.40,6.42,0.22,6.42,0.22,-0.24,-0.30,-0.30,6.18,6.18,6.20
24.65,6.42,0.22,6.42,0.23,-0.25,-0.32,-0.31,6.17,6.18,6.20
24.89,6.44,0.25,6.44,0.25,-0.26,-0.33,-0.32,6.18,6.18,6.19
25.14,6.46,0.28,6.46,0.28,-0.28,-0.35,-0.32,6.18,6.18,6.18
25.39,6.48,0.30,6.48,0.31,-0.30,-0.36,-0.33,6.17,6.18,6.18
25.65,6.51,0.34,6.51,0.34,-0.33,-0.38,-0.34,6.17,6.17,6.16
25.91,6.54,0.37,6.54,0.37,-0.37,-0.40,-0.35,6.17,6.17,6.16
26.16,6.57,0.40,6.57,0.40,-0.40,-0.41,-0.35,6.17,6.16,6.17
26.43,6.60,0.44,6.60,0.43,-0.44,-0.43,-0.36,6.16,6.16,6.16
26.69,6.63,0.47,6.63,0.47,-0.47,-0.45,-0.37,6.16,6.15,6.16
26.96,6.66,0.50,6.66,0.50,-0.50,-0.46,-0.38,6.15,6.15,6.16
27.23,6.69,0.54,6.69,0.54,-0.53,-0.48,-0.39,6.15,6.16,6.15
27.50,6.72,0.57,6.71,0.56,-0.56,-0.50,-0.40,6.16,6.15,6.15
27.77,6.74,0.58,6.74,0.59,-0.58,-0.52,-0.41,6.16,6.15,6.15
28.05,6.75,0.59,6.75,0.60,-0.60,-0.54,-0.42,6.15,6.16,6.15
28.33,6.77,0.62,6.76,0.61,-0.61,-0.56,-0.43,6.16,6.16,6.15
28.62,6.77,0.62,6.77,0.61,-0.61,-0.57,-0.44,6.16,6.16,6.15
28.90,6.77,0.61,6.77,0.61,-0.60,-0.59,-0.45,6.17,6.16,6.16
29.19,6.76,0.60,6.76,0.60,-0.59,-0.61,-0.46,6.16,6.16,6.16
29.48,6.75,0.59,6.74,0.59,-0.59,-0.63,-0.48,6.16,6.16,6.16
29.78,6.73,0.57,6.73,0.57,-0.58,-0.65,-0.49,6.15,6.15,6.15
30.08,6.72,0.55,6.72,0.56,-0.57,-0.67,-0.50,6.15,6.15,6.17
30.38,6.72,0.56,6.72,0.56,-0.57,-0.69,-0.52,6.15,6.15,6.16
30.68,6.73,0.57,6.73,0.57,-0.57,-0.71,-0.53,6.15,6.15,6.16
30.99,6.74,0.58,6.74,0.58,-0.59,-0.73,-0.54,6.15,6.15,6.16
31.30,6.76,0.60,6.76,0.60,-0.60,-0.75,-0.56,6.15,6.15,6.15
31.61,6.78,0.63,6.78,0.63,-0.63,-0.78,-0.57,6.15,6.15,6.15
31.93,6.80,0.66,6.80,0.66,-0.66,-0.80,-0.59,6.14,6.14,6.14
32.24,6.83,0.69,6.83,0.69,-0.69,-0.82,-0.61,6.14,6.13,6.14
32.57,6.86,0.73,6.86,0.73,-0.73,-0.84,-0.62,6.13,6.13,6.12
32.89,6.89,0.77,6.89,0.77,-0.77,-0.86,-0.64,6.12,6.12,6.12
33.22,6.92,0.80,6.92,0.80,-0.80,-0.89,-0.66,6.11,6.12,6.12
33.55,6.96,0.84,6.95,0.84,-0.84,-0.91,-0.68,6.12,6.11,6.12
33.89,6.99,0.88,6.98,0.88,-0.88,-0.93,-0.70,6.11,6.10,6.10
34.23,7.01,0.92,7.01,0.92,-0.92,-0.95,-0.72,6.09,6.10,6.09
34.57,7.04,0.95,7.04,0.95,-0.95,-0.98,-0.74,6.09,6.09,6.09
34.92,7.06,0.98,7.06,0.98,-0.98,-1.00,-0.76,6.08,6.08,6.07
35.27,7.08,1.00,7.08,1.01,-1.01,-1.03,-0.78,6.07,6.07,6.08
35.62,7.09,1.04,7.09,1.03,-1.03,-1.05,-0.80,6.06,6.06,6.05
35.97,7.10,1.05,7.09,1.05,-1.04,-1.07,-0.82,6.05,6.05,6.04
36.33,7.09,1.06,7.09,1.07,-1.06,-1.10,-0.85,6.03,6.03,6.03
36.70,7.09,1.07,7.09,1.07,-1.07,-1.12,-0.87,6.02,6.02,6.02
37.06,7.08,1.08,7.08,1.07,-1.08,-1.15,-0.90,6.00,6.00,6.00
37.43,7.07,1.08,7.07,1.08,-1.09,-1.17,-0.92,5.98,5.98,5.99
37.81,7.07,1.10,7.07,1.10,-1.11,-1.20,-0.95,5.96,5.96,5.97
38.19,7.07,1.12,7.07,1.11,-1.12,-1.23,-0.98,5.95,5.95,5.95
38.57,7.07,1.13,7.07,1.14,-1.14,-1.25,-1.01,5.93,5.93,5.93
38.95,7.07,1.16,7.07,1.16,-1.16,-1.28,-1.04,5.91,5.91,5.91
39.34,7.07,1.18,7.07,1.18,-1.18,-1.31,-1.07,5.89,5.89,5.88
39.74,7.07,1.20,7.07,1.20,-1.20,-1.33,-1.10,5.87,5.87,5.87
40.14,7.07,1.22,7.07,1.22,-1.22,-1.36,-1.13,5.85,5.85,5.84
40.54,7.07,1.24,7.07,1.24,-1.23,-1.39,-1.16,5.83,5.83,5.83
40.94,7.07,1.27,7.06,1.26,-1.25,-1.41,-1.20,5.82,5.81,5.80
41.35,7.06,1.27,7.06,1.27,-1.27,-1.44,-1.23,5.79,5.79,5.79
41.76,7.05,1.28,7.05,1.28,-1.29,-1.47,-1.27,5.76,5.76,5.77
42.18,7.05,1.30,7.05,1.30,-1.31,-1.50,-1.31,5.74,5.74,5.75
42.60,7.05,1.32,7.05,1.32,-1.33,-1.53,-1.34,5.72,5.72,5.73
43.03,7.06,1.36,7.06,1.36,-1.36,-1.56,-1.38,5.70,5.70,5.70
43.46,7.08,1.40,7.08,1.40,-1.40,-1.59,-1.42,5.68,5.68,5.68
43.90,7.10,1.44,7.10,1.44,-1.44,-1.61,-1.46,5.66,5.66,5.65
44.33,7.12,1.48,7.12,1.48,-1.49,-1.64,-1.51,5.63,5.63,5.64
44.78,7.15,1.54,7.15,1.54,-1.54,-1.67,-1.55,5.61,5.61,5.61
45.23,7.18,1.59,7.18,1.59,-1.60,-1.70,-1.60,5.58,5.58,5.59
45.68,7.21,1.66,7.21,1.66,-1.66,-1.73,-1.64,5.55,5.55,5.55
46.13,7.24,1.73,7.24,1.72,-1.72,-1.76,-1.69,5.52,5.52,5.51
46.60,7.27,1.78,7.27,1.78,-1.78,-1.79,-1.74,5.48,5.48,5.48
47.06,7.30,1.84,7.30,1.85,-1.85,-1.83,-1.78,5.45,5.45,5.45
47.53,7.33,1.90,7.33,1.91,-1.91,-1.86,-1.83,5.41,5.41,5.42
48.01,7.36,1.98,7.36,1.98,-1.98,-1.89,-1.88,5.38,5.38,5.37
48.49,7.38,2.03,7.38,2.04,-2.03,-1.92,-1.94,5.34,5.34,5.34
48.97,7.40,2.10,7.40,2.10,-2.09,-1.95,-1.99,5.31,5.31,5.30
49.46,7.41,2.14,7.41,2.14,-2.13,-1.98,-2.04,5.27,5.27,5.27
49.96,7.42,2.20,7.42,2.19,-2.18,-2.01,-2.10,5.24,5.24,5.22
50.46,7.42,2.22,7.41,2.22,-2.21,-2.05,-2.15,5.20,5.20,5.20
50.96,7.41,2.24,7.41,2.25,-2.25,-2.08,-2.20,5.16,5.16,5.16
51.47,7.40,2.27,7.40,2.27,-2.28,-2.11,-2.26,5.12,5.12,5.13
51.99,7.40,2.30,7.40,2.30,-2.31,-2.14,-2.31,5.09,5.09,5.10
52.51,7.40,2.33,7.40,2.33,-2.34,-2.18,-2.37,5.06,5.06,5.06
53.03,7.40,2.36,7.40,2.37,-2.37,-2.21,-2.43,5.03,5.03,5.04
53.56,7.40,2.40,7.40,2.40,-2.40,-2.24,-2.48,4.99,4.99,4.99
54.10,7.40,2.44,7.40,2.44,-2.44,-2.27,-2.53,4.96,4.96,4.96
54.64,7.40,2.48,7.40,2.48,-2.48,-2.31,-2.59,4.92,4.92,4.92
55.18,7.40,2.52,7.40,2.52,-2.51,-2.34,-2.64,4.88,4.88,4.88
55.74,7.40,2.56,7.40,2.55,-2.55,-2.37,-2.69,4.85,4.85,4.84
56.29,7.40,2.58,7.40,2.58,-2.58,-2.41,-2.74,4.82,4.82,4.82
56.86,7.40,2.60,7.40,2.61,-2.61,-2.44,-2.79,4.79,4.79,4.79
57.42,7.40,2.64,7.40,2.64,-2.63,-2.48,-2.84,4.76,4.76,4.75
58.00,7.40,2.67,7.40,2.67,-2.66,-2.51,-2.88,4.74,4.74,4.73
58.58,7.40,2.68,7.40,2.69,-2.69,-2.54,-2.93,4.71,4.71,4.72
59.16,7.40,2.71,7.40,2.71,-2.72,-2.58,-2.97,4.68,4.68,4.68
59.76,7.40,2.74,7.40,2.74,-2.76,-2.61,-3.00,4.64,4.64,4.65
60.35,7.40,2.79,7.40,2.79,-2.79,-2.65,-3.04,4.60,4.60,4.61
60.96,7.40,2.83,7.40,2.83,-2.83,-2.68,-3.07,4.56,4.56,4.57
61.57,7.40,2.88,7.40,2.88,-2.88,-2.72,-3.10,4.52,4.52,4.52
62.18,7.40,2.93,7.40,2.93,-2.92,-2.75,-3.13,4.48,4.48,4.47
62.80,7.40,2.97,7.40,2.97,-2.96,-2.79,-3.15,4.43,4.43,4.43
63.43,7.40,3.01,7.40,3.01,-3.01,-2.82,-3.18,4.39,4.39,4.38
64.07,7.40,3.05,7.40,3.05,-3.05,-2.86,-3.20,4.35,4.35,4.35
64.71,7.40,3.09,7.40,3.09,-3.09,-2.89,-3.21,4.31,4.31,4.31
65.35,7.40,3.12,7.40,3.12,-3.13,-2.93,-3.23,4.27,4.27,4.27
66.01,7.40,3.16,7.40,3.16,-3.16,-2.96,-3.24,4.23,4.23,4.23
66.67,7.40,3.19,7.40,3.20,-3.20,-3.00,-3.25,4.20,4.20,4.21
67.33,7.40,3.24,7.40,3.24,-3.24,-3.03,-3.25,4.16,4.16,4.16
68.01,7.40,3.28,7.40,3.28,-3.28,-3.07,-3.26,4.12,4.12,4.12
68.69,7.40,3.32,7.40,3.32,-3.32,-3.11,-3.26,4.08,4.08,4.07
69.37,7.40,3.36,7.40,3.36,-3.36,-3.14,-3.27,4.04,4.04,4.04
70.07,7.40,3.39,7.40,3.39,-3.40,-3.18,-3.27,4.00,4.00,4.01
70.77,7.40,3.43,7.40,3.43,-3.44,-3.21,-3.27,3.96,3.96,3.97
71.48,7.40,3.48,7.40,3.47,-3.48,-3.25,-3.27,3.92,3.92,3.92
72.19,7.40,3.52,7.40,3.52,-3.52,-3.28,-3.27,3.88,3.88,3.88
72.91,7.40,3.56,7.40,3.56,-3.56,-3.32,-3.27,3.84,3.84,3.84
73.64,7.40,3.60,7.40,3.60,-3.60,-3.35,-3.27,3.80,3.80,3.79
74.38,7.40,3.64,7.40,3.64,-3.63,-3.39,-3.27,3.76,3.76,3.76
75.12,7.40,3.67,7.40,3.67,-3.67,-3.43,-3.27,3.73,3.73,3.73
75.87,7.40,3.70,7.40,3.70,-3.71,-3.46,-3.27,3.69,3.69,3.70
76.63,7.40,3.73,7.40,3.73,-3.74,-3.50,-3.28,3.66,3.66,3.67
77.40,7.40,3.76,7.40,3.77,-3.77,-3.53,-3.28,3.63,3.63,3.64
78.17,7.41,3.80,7.41,3.80,-3.80,-3.57,-3.29,3.61,3.61,3.61
78.95,7.42,3.84,7.41,3.83,-3.83,-3.60,-3.30,3.59,3.59,3.58
79.74,7.42,3.86,7.42,3.86,-3.85,-3.64,-3.31,3.56,3.56,3.56
80.54,7.41,3.88,7.41,3.88,-3.88,-3.67,-3.32,3.53,3.53,3.53
81.35,7.40,3.90,7.40,3.90,-3.89,-3.71,-3.33,3.50,3.50,3.50
82.16,7.38,3.90,7.38,3.91,-3.91,-3.74,-3.35,3.47,3.47,3.47
82.98,7.36,3.92,7.36,3.92,-3.92,-3.78,-3.37,3.44,3.44,3.44
83.81,7.33,3.93,7.33,3.92,-3.92,-3.82,-3.39,3.40,3.40,3.40
84.65,7.30,3.92,7.30,3.93,-3.93,-3.85,-3.41,3.37,3.37,3.37
85.50,7.27,3.93,7.27,3.93,-3.93,-3.88,-3.44,3.34,3.34,3.33
86.35,7.24,3.93,7.24,3.93,-3.93,-3.92,-3.47,3.30,3.30,3.31
87.22,7.21,3.93,7.21,3.94,-3.94,-3.95,-3.50,3.27,3.27,3.28
88.09,7.18,3.94,7.18,3.94,-3.94,-3.99,-3.53,3.24,3.24,3.24
88.97,7.15,3.94,7.15,3.95,-3.94,-4.02,-3.57,3.20,3.20,3.20
89.86,7.12,3.96,7.12,3.96,-3.95,-4.06,-3.61,3.17,3.17,3.16
90.76,7.10,3.97,7.10,3.97,-3.96,-4.09,-3.65,3.13,3.13,3.13
91.66,7.08,3.98,7.08,3.98,-3.98,-4.13,-3.70,3.10,3.10,3.10
92.58,7.06,3.99,7.06,3.99,-4.00,-4.16,-3.74,3.06,3.06,3.06
93.51,7.05,4.02,7.05,4.02,-4.03,-4.19,-3.79,3.02,3.02,3.03
94.44,7.05,4.05,7.05,4.05,-4.06,-4.23,-3.85,2.98,2.98,3.00
95.39,7.05,4.09,7.05,4.10,-4.10,-4.26,-3.90,2.95,2.95,2.95
96.34,7.06,4.15,7.06,4.14,-4.14,-4.29,-3.96,2.92,2.92,2.91
97.30,7.07,4.19,7.06,4.19,-4.18,-4.32,-4.02,2.88,2.88,2.87
98.28,7.07,4.23,7.07,4.24,-4.22,-4.36,-4.08,2.84,2.84,2.84
99.26,7.07,4.28,7.07,4.27,-4.26,-4.39,-4.14,2.80,2.80,2.79
100.25,7.07,4.31,7.07,4.30,-4.30,-4.42,-4.21,2.77,2.77,2.76
101.25,7.07,4.33,7.07,4.34,-4.34,-4.45,-4.27,2.73,2.73,2.74
102.27,7.07,4.36,7.07,4.36,-4.37,-4.48,-4.34,2.70,2.70,2.70
103.29,7.07,4.40,7.07,4.39,-4.40,-4.52,-4.41,2.67,2.67,2.67
104.32,7.07,4.42,7.07,4.42,-4.42,-4.55,-4.48,2.64,2.64,2.65
105.37,7.07,4.45,7.07,4.45,-4.45,-4.58,-4.55,2.61,2.61,2.61
106.42,7.07,4.48,7.07,4.48,-4.48,-4.61,-4.62,2.59,2.59,2.59
107.48,7.07,4.52,7.07,4.51,-4.51,-4.64,-4.69,2.56,2.56,2.55
108.56,7.07,4.54,7.07,4.54,-4.54,-4.67,-4.76,2.53,2.53,2.53
109.64,7.07,4.58,7.07,4.57,-4.57,-4.70,-4.83,2.50,2.50,2.49
110.74,7.07,4.60,7.07,4.61,-4.61,-4.73,-4.90,2.46,2.46,2.46
111.85,7.07,4.64,7.07,4.64,-4.64,-4.75,-4.96,2.43,2.43,2.43
112.97,7.07,4.67,7.07,4.67,-4.68,-4.78,-5.02,2.39,2.39,2.39
114.10,7.07,4.70,7.07,4.71,-4.72,-4.81,-5.09,2.35,2.35,2.37
115.24,7.08,4.75,7.07,4.75,-4.76,-4.84,-5.14,2.32,2.32,2.32
116.39,7.08,4.80,7.08,4.80,-4.80,-4.87,-5.20,2.28,2.29,2.28
117.55,7.09,4.83,7.09,4.84,-4.83,-4.89,-5.24,2.26,2.26,2.25
118.73,7.10,4.89,7.09,4.88,-4.86,-4.92,-5.29,2.23,2.23,2.21
119.92,7.09,4.90,7.09,4.90,-4.89,-4.94,-5.33,2.20,2.20,2.19
121.12,7.08,4.91,7.08,4.92,-4.91,-4.97,-5.37,2.17,2.17,2.16
122.33,7.06,4.93,7.06,4.93,-4.93,-5.00,-5.40,2.13,2.13,2.13
123.55,7.04,4.94,7.04,4.93,-4.94,-5.02,-5.43,2.10,2.10,2.10
124.79,7.02,4.94,7.01,4.94,-4.94,-5.04,-5.44,2.07,2.07,2.08
126.03,6.99,4.95,6.99,4.95,-4.95,-5.07,-5.46,2.04,2.04,2.04
127.29,6.96,4.95,6.96,4.95,-4.95,-5.09,-5.47,2.01,2.01,2.01
128.57,6.93,4.95,6.93,4.95,-4.95,-5.12,-5.48,1.97,1.97,1.98
129.85,6.90,4.96,6.90,4.96,-4.96,-5.14,-5.47,1.94,1.94,1.94
131.15,6.87,4.96,6.87,4.96,-4.96,-5.16,-5.47,1.91,1.91,1.90
132.46,6.84,4.97,6.84,4.97,-4.97,-5.18,-5.46,1.87,1.87,1.87
133.79,6.81,4.98,6.81,4.98,-4.97,-5.20,-5.45,1.83,1.83,1.83
135.12,6.78,4.98,6.78,4.98,-4.98,-5.22,-5.43,1.79,1.80,1.79
136.48,6.76,4.98,6.76,4.99,-5.00,-5.24,-5.41,1.76,1.76,1.78
137.84,6.75,5.00,6.75,5.01,-5.02,-5.26,-5.38,1.73,1.73,1.74
139.22,6.74,5.04,6.74,5.03,-5.04,-5.28,-5.36,1.70,1.70,1.70
140.61,6.74,5.06,6.74,5.07,-5.07,-5.30,-5.33,1.67,1.67,1.68
142.02,6.74,5.09,6.74,5.10,-5.09,-5.32,-5.30,1.65,1.65,1.65
143.44,6.75,5.13,6.75,5.13,-5.12,-5.34,-5.27,1.63,1.63,1.61
144.87,6.75,5.14,6.75,5.15,-5.14,-5.35,-5.23,1.61,1.61,1.60
146.32,6.75,5.17,6.74,5.17,-5.16,-5.37,-5.20,1.59,1.59,1.57
147.78,6.73,5.17,6.73,5.18,-5.17,-5.39,-5.17,1.56,1.56,1.56
149.26,6.71,5.18,6.71,5.18,-5.18,-5.40,-5.14,1.53,1.53,1.53
150.75,6.68,5.18,6.68,5.18,-5.18,-5.42,-5.11,1.50,1.50,1.50
152.26,6.66,5.17,6.66,5.17,-5.18,-5.43,-5.08,1.48,1.48,1.48
153.78,6.63,5.17,6.63,5.17,-5.17,-5.45,-5.05,1.46,1.46,1.46
155.32,6.60,5.16,6.60,5.16,-5.17,-5.46,-5.03,1.43,1.43,1.43
156.88,6.57,5.16,6.57,5.16,-5.16,-5.48,-5.00,1.41,1.41,1.41
158.44,6.54,5.16,6.54,5.16,-5.16,-5.49,-4.98,1.38,1.38,1.38
160.03,6.51,5.15,6.51,5.16,-5.16,-5.50,-4.96,1.35,1.35,1.35
161.63,6.48,5.15,6.48,5.16,-5.16,-5.51,-4.95,1.32,1.32,1.32
163.24,6.46,5.18,6.46,5.17,-5.17,-5.52,-4.93,1.29,1.29,1.28
164.88,6.44,5.19,6.44,5.18,-5.18,-5.53,-4.93,1.26,1.25,1.25
166.53,6.42,5.19,6.42,5.20,-5.20,-5.54,-4.92,1.22,1.22,1.22
168.19,6.41,5.21,6.41,5.22,-5.22,-5.55,-4.92,1.19,1.19,1.19
169.87,6.41,5.25,6.41,5.24,-5.25,-5.56,-4.92,1.16,1.15,1.16
171.57,6.41,5.28,6.41,5.28,-5.28,-5.57,-4.92,1.12,1.12,1.13
173.29,6.41,5.31,6.41,5.32,-5.32,-5.58,-4.93,1.09,1.09,1.09
175.02,6.42,5.36,6.42,5.36,-5.36,-5.59,-4.94,1.06,1.06,1.06
176.77,6.43,5.40,6.43,5.40,-5.40,-5.59,-4.96,1.03,1.03,1.02
178.54,6.44,5.44,6.43,5.44,-5.44,-5.60,-4.98,1.00,1.00,1.00
180.32,6.44,5.48,6.44,5.48,-5.48,-5.61,-5.00,0.96,0.96,0.96
182.13,6.44,5.51,6.44,5.51,-5.51,-5.61,-5.03,0.93,0.93,0.92
183.95,6.44,5.55,6.43,5.54,-5.54,-5.62,-5.06,0.90,0.89,0.89
185.79,6.42,5.57,6.42,5.57,-5.56,-5.62,-5.10,0.86,0.86,0.85
187.65,6.40,5.58,6.40,5.58,-5.58,-5.62,-5.13,0.82,0.82,0.82
189.52,6.38,5.60,6.38,5.59,-5.60,-5.63,-5.18,0.78,0.78,0.78
191.42,6.36,5.61,6.35,5.60,-5.61,-5.63,-5.22,0.75,0.75,0.75
193.33,6.33,5.61,6.33,5.61,-5.61,-5.63,-5.27,0.72,0.72,0.72
195.27,6.30,5.61,6.30,5.61,-5.61,-5.63,-5.32,0.68,0.69,0.68
197.22,6.27,5.62,6.27,5.62,-5.61,-5.64,-5.37,0.65,0.65,0.65
199.19,6.24,5.61,6.24,5.62,-5.61,-5.64,-5.43,0.63,0.63,0.63
201.18,6.21,5.62,6.21,5.61,-5.61,-5.64,-5.49,0.60,0.60,0.59
203.19,6.18,5.60,6.18,5.60,-5.60,-5.64,-5.55,0.57,0.57,0.58
205.23,6.15,5.60,6.15,5.60,-5.60,-5.63,-5.61,0.55,0.55,0.55
207.28,6.13,5.59,6.13,5.60,-5.60,-5.63,-5.68,0.53,0.52,0.54
209.35,6.11,5.61,6.11,5.60,-5.61,-5.63,-5.74,0.50,0.50,0.50
211.44,6.09,5.61,6.09,5.61,-5.61,-5.63,-5.81,0.47,0.48,0.48
213.56,6.08,5.61,6.08,5.62,-5.63,-5.63,-5.88,0.45,0.45,0.46
215.69,6.08,5.64,6.08,5.64,-5.65,-5.62,-5.94,0.43,0.43,0.44
217.85,6.08,5.66,6.08,5.66,-5.67,-5.62,-6.00,0.41,0.41,0.42
220.03,6.09,5.69,6.08,5.69,-5.69,-5.61,-6.07,0.40,0.40,0.39
222.23,6.09,5.72,6.09,5.72,-5.71,-5.61,-6.13,0.38,0.38,0.37
224.45,6.10,5.75,6.10,5.74,-5.73,-5.60,-6.19,0.36,0.36,0.35
226.70,6.10,5.76,6.10,5.76,-5.75,-5.59,-6.24,0.34,0.34,0.34
228.96,6.10,5.77,6.10,5.77,-5.77,-5.59,-6.29,0.32,0.33,0.33
231.25,6.10,5.79,6.10,5.79,-5.79,-5.58,-6.34,0.31,0.31,0.31
233.57,6.10,5.80,6.10,5.80,-5.80,-5.57,-6.38,0.30,0.30,0.30
235.90,6.10,5.82,6.10,5.82,-5.81,-5.56,-6.41,0.29,0.29,0.28
238.26,6.10,5.83,6.10,5.82,-5.82,-5.55,-6.44,0.28,0.28,0.27
240.64,6.10,5.82,6.10,5.83,-5.83,-5.54,-6.46,0.27,0.27,0.28
243.05,6.10,5.83,6.10,5.83,-5.83,-5.53,-6.48,0.27,0.27,0.27
245.48,6.10,5.84,6.10,5.84,-5.84,-5.52,-6.48,0.26,0.26,0.25
247.93,6.10,5.85,6.10,5.84,-5.84,-5.51,-6.49,0.25,0.25,0.25
250.41,6.10,5.84,6.10,5.85,-5.85,-5.50,-6.48,0.25,0.25,0.26
252.92,6.10,5.84,6.10,5.85,-5.85,-5.49,-6.46,0.24,0.25,0.26
255.45,6.11,5.86,6.11,5.85,-5.86,-5.47,-6.44,0.25,0.25,0.25
258.00,6.12,5.86,6.11,5.86,-5.86,-5.46,-6.41,0.26,0.25,0.26
260.58,6.12,5.87,6.12,5.87,-5.86,-5.45,-6.37,0.26,0.26,0.25
263.19,6.12,5.87,6.12,5.87,-5.86,-5.43,-6.32,0.26,0.26,0.25
265.82,6.11,5.86,6.11,5.86,-5.85,-5.42,-6.27,0.25,0.26,0.25
268.48,6.10,5.85,6.10,5.85,-5.84,-5.40,-6.21,0.25,0.25,0.25
271.16,6.08,5.83,6.08,5.83,-5.83,-5.38,-6.14,0.25,0.25,0.24
273.87,6.05,5.80,6.05,5.81,-5.81,-5.37,-6.07,0.24,0.24,0.25
276.61,6.03,5.79,6.02,5.79,-5.79,-5.35,-6.00,0.24,0.24,0.24
279.38,6.00,5.77,6.00,5.76,-5.76,-5.33,-5.92,0.23,0.23,0.23
282.17,5.97,5.73,5.97,5.73,-5.74,-5.31,-5.84,0.23,0.24,0.24
284.99,5.95,5.70,5.95,5.70,-5.71,-5.29,-5.75,0.24,0.24,0.25
287.84,5.93,5.68,5.92,5.68,-5.68,-5.27,-5.66,0.25,0.25,0.25
290.72,5.90,5.66,5.90,5.65,-5.64,-5.25,-5.58,0.25,0.25,0.24
293.63,5.87,5.62,5.87,5.62,-5.61,-5.23,-5.49,0.26,0.26,0.24
296.57,5.83,5.57,5.83,5.58,-5.57,-5.21,-5.40,0.26,0.26,0.26
299.53,5.79,5.53,5.79,5.53,-5.53,-5.18,-5.31,0.26,0.26,0.26
302.53,5.75,5.49,5.75,5.49,-5.49,-5.16,-5.22,0.25,0.26,0.26
305.55,5.72,5.45,5.71,5.45,-5.46,-5.14,-5.13,0.26,0.26,0.27
308.61,5.68,5.40,5.68,5.41,-5.42,-5.11,-5.04,0.26,0.26,0.27
311.69,5.66,5.38,5.66,5.38,-5.39,-5.09,-4.95,0.27,0.27,0.28
314.81,5.64,5.35,5.64,5.35,-5.35,-5.06,-4.86,0.29,0.29,0.29
317.96,5.62,5.32,5.62,5.33,-5.32,-5.04,-4.78,0.30,0.30,0.29
321.14,5.60,5.30,5.59,5.29,-5.28,-5.01,-4.70,0.31,0.31,0.30
324.35,5.56,5.26,5.56,5.25,-5.25,-4.98,-4.62,0.31,0.31,0.30
327.59,5.52,5.19,5.52,5.21,-5.21,-4.95,-4.55,0.31,0.31,0.32
330.87,5.48,5.16,5.48,5.16,-5.16,-4.92,-4.47,0.31,0.32,0.32
334.18,5.45,5.13,5.44,5.12,-5.12,-4.89,-4.40,0.33,0.33,0.32
337.52,5.41,5.07,5.40,5.07,-5.07,-4.86,-4.33,0.34,0.34,0.34
340.90,5.36,5.01,5.36,5.02,-5.01,-4.83,-4.27,0.34,0.35,0.34
344.30,5.31,4.96,5.31,4.96,-4.96,-4.80,-4.21,0.35,0.35,0.35
347.75,5.27,4.91,5.26,4.90,-4.91,-4.77,-4.15,0.36,0.35,0.36
351.23,5.22,4.85,5.22,4.85,-4.86,-4.74,-4.09,0.36,0.36,0.37
354.74,5.18,4.79,5.18,4.80,-4.81,-4.70,-4.04,0.37,0.37,0.38
358.28,5.14,4.76,5.14,4.76,-4.75,-4.67,-3.99,0.39,0.39,0.38
361.87,5.10,4.72,5.09,4.71,-4.70,-4.63,-3.95,0.40,0.40,0.38
365.49,5.05,4.65,5.05,4.65,-4.64,-4.60,-3.90,0.41,0.41,0.40
369.14,4.99,4.58,4.99,4.59,-4.58,-4.56,-3.86,0.41,0.41,0.41
372.83,4.94,4.52,4.93,4.52,-4.53,-4.53,-3.82,0.41,0.41,0.41
376.56,4.88,4.46,4.88,4.46,-4.47,-4.49,-3.79,0.41,0.41,0.41
380.33,4.83,4.41,4.83,4.41,-4.42,-4.45,-3.76,0.41,0.41,0.42
384.13,4.78,4.35,4.78,4.35,-4.36,-4.41,-3.73,0.42,0.42,0.43
387.97,4.75,4.31,4.75,4.31,-4.31,-4.37,-3.70,0.44,0.44,0.44
391.85,4.72,4.26,4.71,4.26,-4.26,-4.33,-3.68,0.46,0.46,0.46
395.77,4.68,4.22,4.68,4.22,-4.21,-4.29,-3.66,0.47,0.47,0.46
399.73,4.64,4.17,4.64,4.17,-4.17,-4.25,-3.64,0.47,0.47,0.46
403.72,4.59,4.11,4.59,4.12,-4.12,-4.21,-3.62,0.47,0.47,0.48
407.76,4.56,4.07,4.56,4.06,-4.07,-4.16,-3.61,0.49,0.48,0.49
411.84,4.52,4.02,4.52,4.02,-4.02,-4.12,-3.59,0.50,0.50,0.50
415.96,4.49,3.98,4.48,3.98,-3.97,-4.07,-3.58,0.52,0.52,0.51
420.12,4.44,3.93,4.44,3.93,-3.91,-4.03,-3.57,0.53,0.53,0.51
424.32,4.39,3.87,4.39,3.86,-3.86,-3.98,-3.56,0.53,0.53,0.52
428.56,4.33,3.79,4.33,3.80,-3.80,-3.93,-3.54,0.52,0.53,0.54
432.85,4.28,3.72,4.28,3.73,-3.75,-3.89,-3.53,0.53,0.53,0.55
437.18,4.23,3.68,4.23,3.68,-3.69,-3.84,-3.52,0.53,0.53,0.54
441.55,4.18,3.63,4.19,3.63,-3.63,-3.79,-3.51,0.54,0.55,0.55
445.96,4.15,3.59,4.14,3.59,-3.57,-3.74,-3.50,0.57,0.57,0.56
450.42,4.11,3.54,4.10,3.53,-3.51,-3.69,-3.49,0.59,0.59,0.57
454.93,4.05,3.47,4.05,3.47,-3.45,-3.64,-3.47,0.59,0.60,0.58
459.48,3.99,3.40,3.99,3.40,-3.39,-3.58,-3.46,0.59,0.59,0.59
464.07,3.93,3.32,3.93,3.33,-3.33,-3.53,-3.44,0.59,0.59,0.61
468.71,3.87,3.26,3.87,3.26,-3.28,-3.48,-3.42,0.59,0.59,0.61
473.40,3.82,3.20,3.82,3.20,-3.22,-3.42,-3.40,0.60,0.60,0.62
478.13,3.78,3.15,3.78,3.15,-3.16,-3.37,-3.38,0.62,0.62,0.63
482.91,3.75,3.11,3.74,3.11,-3.10,-3.31,-3.35,0.64,0.64,0.64
487.74,3.71,3.06,3.71,3.06,-3.05,-3.25,-3.32,0.65,0.65,0.64
492.62,3.67,3.01,3.66,3.01,-3.00,-3.20,-3.28,0.66,0.66,0.65
497.55,3.62,2.95,3.62,2.95,-2.96,-3.14,-3.25,0.66,0.66,0.66
502.52,3.57,2.90,3.58,2.90,-2.90,-3.08,-3.21,0.66,0.67,0.67
507.55,3.54,2.85,3.54,2.85,-2.85,-3.02,-3.16,0.69,0.69,0.69
512.62,3.51,2.81,3.50,2.80,-2.80,-2.96,-3.12,0.71,0.71,0.70
517.75,3.47,2.75,3.47,2.75,-2.74,-2.90,-3.06,0.73,0.72,0.72
522.93,3.42,2.69,3.42,2.69,-2.69,-2.84,-3.01,0.73,0.73,0.73
528.16,3.37,2.63,3.37,2.63,-2.63,-2.77,-2.95,0.73,0.73,0.74
533.44,3.32,2.57,3.32,2.57,-2.58,-2.71,-2.89,0.74,0.74,0.75
538.77,3.28,2.52,3.28,2.52,-2.52,-2.64,-2.83,0.76,0.76,0.76
544.16,3.24,2.46,3.24,2.46,-2.46,-2.58,-2.76,0.78,0.78,0.78
