frequency,raw,error,smoothed,error_smoothed,equalization,parametric_eq,fixed_band_eq,equalized_raw,equalized_smoothed,target
20.00,5.07,0.33,5.07,0.33,-0.33,-0.47,-0.48,4.73,4.74,4.74
20.20,5.09,0.37,5.09,0.36,-0.36,-0.48,-0.49,4.73,4.73,4.72
20.40,5.11,0.40,5.10,0.39,-0.39,-0.49,-0.50,4.72,4.71,4.71
20.61,5.13,0.42,5.12,0.42,-0.42,-0.51,-0.51,4.71,4.70,4.71
20.81,5.14,0.45,5.14,0.45,-0.45,-0.52,-0.53,4.69,4.69,4.69
21.02,5.16,0.48,5.16,0.48,-0.47,-0.54,-0.54,4.68,4.68,4.68
21.23,5.18,0.51,5.18,0.50,-0.50,-0.55,-0.56,4.68,4.67,4.67
21.44,5.20,0.52,5.20,0.52,-0.53,-0.56,-0.57,4.67,4.67,4.68
21.66,5.22,0.55,5.22,0.55,-0.55,-0.58,-0.59,4.66,4.66,4.67
21.87,5.24,0.58,5.24,0.58,-0.58,-0.59,-0.60,4.66,4.66,4.66
22.09,5.26,0.61,5.26,0.61,-0.60,-0.61,-0.62,4.65,4.65,4.65
22.31,5.28,0.63,5.28,0.63,-0.63,-0.62,-0.63,4.65,4.65,4.65
22.54,5.30,0.66,5.30,0.65,-0.66,-0.64,-0.65,4.64,4.64,4.64
22.76,5.32,0.67,5.32,0.68,-0.68,-0.65,-0.67,4.64,4.64,4.65
22.99,5.34,0.70,5.34,0.70,-0.70,-0.67,-0.68,4.63,4.63,4.64
23.22,5.36,0.73,5.36,0.73,-0.73,-0.68,-0.70,4.63,4.63,4.62
23.45,5.38,0.75,5.38,0.75,-0.75,-0.70,-0.72,4.63,4.63,4.62
23.69,5.40,0.77,5.39,0.77,-0.76,-0.72,-0.74,4.63,4.63,4.62
23.92,5.41,0.78,5.41,0.79,-0.78,-0.73,-0.76,4.62,4.63,4.62
24.16,5.43,0.80,5.43,0.80,-0.80,-0.75,-0.78,4.62,4.62,4.62
24.40,5.45,0.81,5.44,0.82,-0.82,-0.76,-0.80,4.62,4.62,4.63
24.65,5.47,0.84,5.46,0.84,-0.84,-0.78,-0.82,4.62,4.62,4.63
24.89,5.48,0.86,5.48,0.86,-0.86,-0.80,-0.84,4.61,4.62,4.62
25.14,5.50,0.89,5.50,0.89,-0.88,-0.81,-0.86,4.61,4.61,4.61
25.39,5.52,0.91,5.51,0.91,-0.90,-0.83,-0.88,4.61,4.61,4.61
25.65,5.54,0.94,5.53,0.93,-0.93,-0.85,-0.90,4.61,4.61,4.60
25.91,5.55,0.95,5.55,0.95,-0.95,-0.87,-0.92,4.60,4.60,4.60
26.16,5.57,0.96,5.57,0.97,-0.97,-0.88,-0.94,4.60,4.60,4.61
26.43,5.59,0.99,5.58,0.98,-0.99,-0.90,-0.96,4.60,4.59,4.60
26.69,5.60,1.00,5.60,1.00,-1.01,-0.92,-0.98,4.59,4.59,4.59
26.96,5.62,1.02,5.61,1.03,-1.03,-0.94,-1.00,4.59,4.59,4.59
27.23,5.63,1.04,5.63,1.04,-1.04,-0.95,-1.02,4.58,4.59,4.58
27.50,5.65,1.07,5.65,1.06,-1.06,-0.97,-1.04,4.59,4.59,4.58
27.77,5.67,1.08,5.66,1.08,-1.08,-0.99,-1.06,4.59,4.59,4.59
28.05,5.68,1.09,5.68,1.09,-1.09,-1.01,-1.08,4.58,4.59,4.59
28.33,5.70,1.11,5.69,1.11,-1.11,-1.03,-1.10,4.59,4.59,4.59
28.62,5.71,1.12,5.71,1.12,-1.12,-1.05,-1.12,4.59,4.59,4.59
28.90,5.73,1.13,5.72,1.13,-1.13,-1.06,-1.14,4.59,4.59,4.59
29.19,5.74,1.14,5.74,1.15,-1.14,-1.08,-1.15,4.59,4.59,4.59
29.48,5.75,1.15,5.75,1.16,-1.16,-1.10,-1.17,4.59,4.60,4.59
29.78,5.77,1.18,5.76,1.17,-1.17,-1.12,-1.18,4.60,4.60,4.59
30.08,5.78,1.17,5.78,1.18,-1.18,-1.14,-1.20,4.60,4.60,4.61
30.38,5.79,1.19,5.79,1.19,-1.19,-1.16,-1.21,4.60,4.60,4.60
30.68,5.80,1.20,5.80,1.20,-1.20,-1.18,-1.23,4.59,4.59,4.60
30.99,5.81,1.21,5.81,1.21,-1.21,-1.20,-1.24,4.59,4.59,4.59
31.30,5.82,1.22,5.82,1.23,-1.23,-1.21,-1.25,4.59,4.59,4.59
31.61,5.83,1.24,5.83,1.24,-1.24,-1.23,-1.26,4.59,4.59,4.59
31.93,5.84,1.26,5.83,1.25,-1.25,-1.25,-1.27,4.58,4.58,4.58
32.24,5.84,1.26,5.84,1.27,-1.26,-1.27,-1.28,4.57,4.58,4.58
32.57,5.85,1.28,5.85,1.28,-1.28,-1.29,-1.29,4.57,4.57,4.56
32.89,5.86,1.30,5.85,1.29,-1.29,-1.31,-1.30,4.57,4.56,4.56
33.22,5.86,1.30,5.86,1.30,-1.30,-1.33,-1.30,4.55,4.55,4.56
33.55,5.87,1.31,5.87,1.31,-1.32,-1.35,-1.31,4.55,4.55,4.56
33.89,5.88,1.33,5.88,1.33,-1.33,-1.37,-1.32,4.54,4.54,4.54
34.23,5.89,1.36,5.89,1.35,-1.35,-1.39,-1.32,4.54,4.54,4.53
34.57,5.90,1.37,5.90,1.37,-1.37,-1.41,-1.33,4.53,4.53,4.53
34.92,5.91,1.39,5.91,1.39,-1.38,-1.42,-1.33,4.52,4.52,4.51
35.27,5.92,1.39,5.91,1.40,-1.40,-1.44,-1.34,4.51,4.51,4.52
35.62,5.92,1.43,5.92,1.42,-1.42,-1.46,-1.34,4.49,4.50,4.49
35.97,5.93,1.44,5.93,1.44,-1.44,-1.48,-1.35,4.48,4.48,4.49
36.33,5.94,1.46,5.93,1.46,-1.46,-1.50,-1.35,4.47,4.47,4.47
36.70,5.94,1.48,5.94,1.48,-1.48,-1.52,-1.36,4.45,4.46,4.46
37.06,5.95,1.50,5.95,1.50,-1.50,-1.54,-1.36,4.44,4.44,4.44
37.43,5.96,1.53,5.95,1.52,-1.53,-1.56,-1.37,4.43,4.43,4.43
37.81,5.97,1.55,5.96,1.55,-1.55,-1.58,-1.38,4.42,4.41,4.42
38.19,5.97,1.57,5.97,1.57,-1.57,-1.60,-1.39,4.39,4.40,4.39
38.57,5.98,1.60,5.97,1.60,-1.60,-1.61,-1.40,4.38,4.37,4.38
38.95,5.98,1.62,5.98,1.62,-1.62,-1.63,-1.40,4.35,4.35,4.35
39.34,5.98,1.65,5.98,1.65,-1.65,-1.65,-1.41,4.33,4.33,4.33
39.74,5.99,1.67,5.98,1.67,-1.67,-1.67,-1.43,4.32,4.31,4.31
40.14,5.99,1.70,5.99,1.70,-1.69,-1.69,-1.44,4.30,4.30,4.29
40.54,5.99,1.71,5.99,1.72,-1.71,-1.71,-1.45,4.28,4.28,4.27
40.94,5.99,1.74,5.98,1.73,-1.73,-1.73,-1.47,4.26,4.26,4.25
41.35,5.98,1.74,5.98,1.74,-1.74,-1.74,-1.48,4.23,4.23,4.23
41.76,5.97,1.75,5.97,1.75,-1.76,-1.76,-1.50,4.21,4.21,4.22
42.18,5.97,1.76,5.96,1.77,-1.77,-1.78,-1.51,4.19,4.19,4.20
42.60,5.96,1.78,5.96,1.78,-1.79,-1.80,-1.53,4.17,4.17,4.17
43.03,5.96,1.81,5.95,1.80,-1.80,-1.82,-1.55,4.16,4.16,4.15
43.46,5.95,1.81,5.95,1.82,-1.81,-1.83,-1.57,4.13,4.13,4.13
43.90,5.94,1.83,5.94,1.83,-1.83,-1.85,-1.60,4.11,4.11,4.10
44.33,5.93,1.84,5.93,1.84,-1.84,-1.87,-1.62,4.08,4.08,4.09
44.78,5.92,1.86,5.92,1.85,-1.86,-1.89,-1.65,4.06,4.06,4.06
45.23,5.91,1.86,5.91,1.87,-1.88,-1.90,-1.67,4.03,4.03,4.04
45.68,5.90,1.89,5.90,1.89,-1.89,-1.92,-1.70,4.00,4.00,4.00
46.13,5.89,1.92,5.88,1.91,-1.91,-1.94,-1.73,3.98,3.97,3.96
46.60,5.87,1.93,5.87,1.93,-1.93,-1.96,-1.76,3.94,3.94,3.94
47.06,5.86,1.95,5.85,1.95,-1.95,-1.97,-1.79,3.91,3.91,3.91
47.53,5.84,1.96,5.84,1.96,-1.97,-1.99,-1.82,3.87,3.87,3.88
48.01,5.82,1.99,5.82,1.99,-1.99,-2.01,-1.85,3.83,3.83,3.83
48.49,5.81,2.01,5.80,2.01,-2.01,-2.02,-1.89,3.80,3.79,3.80
48.97,5.79,2.03,5.79,2.03,-2.03,-2.04,-1.92,3.76,3.76,3.76
49.46,5.78,2.05,5.77,2.05,-2.05,-2.05,-1.96,3.73,3.72,3.73
49.96,5.76,2.08,5.76,2.07,-2.07,-2.07,-2.00,3.69,3.69,3.67
50.46,5.75,2.09,5.74,2.09,-2.09,-2.09,-2.03,3.66,3.65,3.65
50.96,5.73,2.11,5.73,2.11,-2.11,-2.10,-2.07,3.62,3.62,3.62
51.47,5.72,2.13,5.72,2.13,-2.13,-2.12,-2.11,3.59,3.59,3.59
51.99,5.71,2.15,5.70,2.15,-2.15,-2.13,-2.15,3.56,3.55,3.56
52.51,5.69,2.16,5.69,2.16,-2.17,-2.15,-2.19,3.52,3.52,3.52
53.03,5.68,2.18,5.67,2.18,-2.19,-2.16,-2.23,3.49,3.49,3.50
53.56,5.66,2.20,5.66,2.20,-2.21,-2.18,-2.27,3.45,3.45,3.45
54.10,5.65,2.23,5.64,2.22,-2.23,-2.20,-2.30,3.42,3.42,3.42
54.64,5.63,2.24,5.63,2.25,-2.25,-2.21,-2.34,3.38,3.38,3.38
55.18,5.61,2.27,5.61,2.27,-2.26,-2.23,-2.38,3.34,3.35,3.34
55.74,5.60,2.30,5.59,2.28,-2.28,-2.24,-2.42,3.32,3.31,3.30
56.29,5.58,2.29,5.58,2.30,-2.30,-2.25,-2.45,3.28,3.28,3.28
56.86,5.56,2.30,5.56,2.31,-2.31,-2.27,-2.48,3.25,3.25,3.25
57.42,5.55,2.33,5.54,2.32,-2.32,-2.28,-2.52,3.23,3.22,3.22
58.00,5.53,2.34,5.53,2.34,-2.33,-2.30,-2.55,3.19,3.20,3.19
58.58,5.52,2.34,5.52,2.35,-2.35,-2.31,-2.58,3.17,3.17,3.18
59.16,5.51,2.36,5.50,2.36,-2.37,-2.33,-2.60,3.14,3.14,3.15
59.76,5.49,2.37,5.49,2.37,-2.39,-2.34,-2.63,3.10,3.10,3.12
60.35,5.48,2.40,5.48,2.40,-2.41,-2.36,-2.65,3.07,3.07,3.07
60.96,5.47,2.43,5.46,2.43,-2.43,-2.37,-2.67,3.03,3.03,3.03
61.57,5.45,2.47,5.45,2.47,-2.46,-2.38,-2.68,2.99,2.99,2.98
62.18,5.43,2.49,5.43,2.49,-2.49,-2.40,-2.70,2.94,2.94,2.94
62.80,5.42,2.52,5.41,2.52,-2.51,-2.41,-2.71,2.91,2.90,2.89
63.43,5.39,2.54,5.39,2.54,-2.53,-2.42,-2.72,2.85,2.86,2.85
64.07,5.37,2.56,5.37,2.55,-2.55,-2.44,-2.72,2.82,2.82,2.81
64.71,5.34,2.56,5.34,2.57,-2.56,-2.45,-2.73,2.77,2.77,2.77
65.35,5.32,2.58,5.31,2.57,-2.58,-2.46,-2.73,2.74,2.74,2.74
66.01,5.29,2.59,5.29,2.58,-2.59,-2.48,-2.73,2.70,2.70,2.70
66.67,5.26,2.59,5.26,2.60,-2.60,-2.49,-2.73,2.66,2.66,2.67
67.33,5.24,2.62,5.23,2.61,-2.61,-2.50,-2.72,2.62,2.62,2.62
68.01,5.21,2.63,5.21,2.63,-2.63,-2.52,-2.71,2.58,2.58,2.58
68.69,5.19,2.65,5.19,2.65,-2.65,-2.53,-2.71,2.54,2.54,2.54
69.37,5.17,2.66,5.17,2.66,-2.67,-2.54,-2.70,2.50,2.50,2.51
70.07,5.16,2.68,5.15,2.68,-2.69,-2.56,-2.69,2.47,2.46,2.47
70.77,5.14,2.71,5.14,2.71,-2.71,-2.57,-2.67,2.42,2.43,2.43
71.48,5.13,2.74,5.12,2.73,-2.73,-2.58,-2.66,2.39,2.39,2.38
72.19,5.10,2.76,5.10,2.75,-2.75,-2.60,-2.65,2.35,2.35,2.34
72.91,5.07,2.76,5.07,2.77,-2.76,-2.61,-2.63,2.30,2.31,2.30
73.64,5.04,2.78,5.04,2.78,-2.77,-2.62,-2.62,2.26,2.26,2.26
74.38,5.01,2.79,5.00,2.78,-2.78,-2.63,-2.61,2.23,2.22,2.22
75.12,4.97,2.78,4.97,2.78,-2.78,-2.65,-2.60,2.18,2.19,2.19
75.87,4.94,2.78,4.94,2.78,-2.78,-2.66,-2.58,2.15,2.15,2.16
76.63,4.91,2.78,4.91,2.78,-2.78,-2.67,-2.57,2.12,2.12,2.13
77.40,4.88,2.78,4.88,2.78,-2.78,-2.68,-2.56,2.09,2.09,2.10
78.17,4.85,2.78,4.85,2.78,-2.78,-2.70,-2.55,2.06,2.07,2.06
78.95,4.82,2.78,4.82,2.78,-2.78,-2.71,-2.54,2.04,2.04,2.04
79.74,4.80,2.78,4.79,2.78,-2.78,-2.72,-2.54,2.02,2.02,2.02
80.54,4.77,2.78,4.76,2.78,-2.77,-2.73,-2.53,1.99,1.99,1.98
81.35,4.73,2.77,4.73,2.77,-2.77,-2.75,-2.53,1.96,1.96,1.96
82.16,4.69,2.76,4.69,2.76,-2.76,-2.76,-2.52,1.92,1.93,1.93
82.98,4.65,2.75,4.65,2.75,-2.76,-2.77,-2.52,1.89,1.89,1.89
83.81,4.61,2.75,4.61,2.75,-2.75,-2.78,-2.52,1.86,1.85,1.85
84.65,4.57,2.74,4.57,2.75,-2.75,-2.79,-2.53,1.82,1.82,1.83
85.50,4.53,2.74,4.53,2.74,-2.74,-2.81,-2.53,1.78,1.79,1.79
86.35,4.50,2.74,4.49,2.74,-2.74,-2.82,-2.54,1.75,1.75,1.76
87.22,4.46,2.73,4.46,2.74,-2.74,-2.83,-2.55,1.71,1.72,1.72
88.09,4.43,2.74,4.43,2.74,-2.74,-2.84,-2.56,1.68,1.69,1.68
88.97,4.40,2.75,4.40,2.75,-2.74,-2.85,-2.57,1.66,1.65,1.65
89.86,4.37,2.76,4.36,2.75,-2.74,-2.86,-2.58,1.63,1.62,1.61
90.76,4.32,2.74,4.32,2.75,-2.73,-2.88,-2.60,1.58,1.59,1.57
91.66,4.28,2.74,4.28,2.74,-2.73,-2.89,-2.62,1.54,1.54,1.54
92.58,4.24,2.73,4.23,2.72,-2.73,-2.90,-2.64,1.51,1.50,1.51
93.51,4.19,2.72,4.19,2.72,-2.73,-2.91,-2.66,1.45,1.46,1.47
94.44,4.16,2.72,4.16,2.72,-2.74,-2.92,-2.68,1.42,1.42,1.44
95.39,4.13,2.74,4.12,2.73,-2.74,-2.93,-2.71,1.39,1.38,1.39
96.34,4.10,2.75,4.10,2.75,-2.75,-2.94,-2.74,1.35,1.35,1.34
97.30,4.08,2.77,4.08,2.77,-2.76,-2.96,-2.77,1.32,1.31,1.31
98.28,4.06,2.79,4.05,2.79,-2.77,-2.97,-2.80,1.28,1.28,1.27
99.26,4.03,2.80,4.03,2.80,-2.79,-2.98,-2.83,1.23,1.24,1.22
100.25,4.01,2.82,4.01,2.81,-2.81,-2.99,-2.86,1.20,1.19,1.19
101.25,3.99,2.82,3.99,2.83,-2.83,-3.00,-2.89,1.15,1.15,1.17
102.27,3.98,2.85,3.98,2.85,-2.86,-3.01,-2.93,1.12,1.12,1.13
103.29,3.98,2.88,3.97,2.87,-2.89,-3.02,-2.97,1.09,1.08,1.09
104.32,3.98,2.90,3.98,2.91,-2.92,-3.03,-3.00,1.05,1.06,1.08
105.37,4.00,2.96,3.99,2.96,-2.96,-3.04,-3.04,1.04,1.04,1.04
106.42,4.01,3.00,4.01,3.00,-2.99,-3.05,-3.08,1.01,1.01,1.01
107.48,4.02,3.04,4.01,3.04,-3.02,-3.06,-3.11,0.99,0.99,0.97
108.56,4.01,3.06,4.01,3.07,-3.05,-3.07,-3.15,0.96,0.96,0.94
109.64,4.00,3.09,4.00,3.09,-3.07,-3.08,-3.19,0.92,0.92,0.91
110.74,3.98,3.10,3.97,3.10,-3.09,-3.09,-3.22,0.89,0.88,0.88
111.85,3.94,3.09,3.94,3.10,-3.10,-3.10,-3.26,0.84,0.84,0.84
112.97,3.91,3.10,3.90,3.09,-3.10,-3.11,-3.29,0.80,0.80,0.80
114.10,3.87,3.09,3.87,3.10,-3.11,-3.12,-3.32,0.76,0.76,0.78
115.24,3.84,3.10,3.84,3.10,-3.11,-3.13,-3.35,0.72,0.72,0.73
116.39,3.81,3.12,3.81,3.11,-3.12,-3.14,-3.38,0.69,0.69,0.69
117.55,3.78,3.12,3.78,3.13,-3.12,-3.15,-3.40,0.65,0.66,0.66
118.73,3.76,3.14,3.75,3.13,-3.13,-3.16,-3.42,0.63,0.62,0.62
119.92,3.73,3.14,3.73,3.14,-3.14,-3.17,-3.44,0.59,0.59,0.59
121.12,3.71,3.14,3.71,3.15,-3.15,-3.18,-3.46,0.56,0.56,0.57
122.33,3.70,3.16,3.69,3.15,-3.16,-3.18,-3.47,0.54,0.53,0.53
123.55,3.67,3.17,3.66,3.16,-3.17,-3.19,-3.48,0.50,0.50,0.50
124.79,3.64,3.16,3.64,3.17,-3.17,-3.20,-3.49,0.46,0.47,0.48
126.03,3.62,3.18,3.62,3.18,-3.18,-3.21,-3.50,0.43,0.44,0.44
127.29,3.61,3.20,3.60,3.20,-3.19,-3.22,-3.50,0.41,0.41,0.41
128.57,3.59,3.21,3.58,3.21,-3.20,-3.23,-3.49,0.39,0.38,0.37
129.85,3.55,3.21,3.55,3.21,-3.21,-3.23,-3.49,0.34,0.34,0.34
131.15,3.51,3.21,3.51,3.22,-3.21,-3.24,-3.48,0.29,0.30,0.30
132.46,3.49,3.23,3.48,3.22,-3.22,-3.25,-3.47,0.27,0.26,0.26
133.79,3.45,3.23,3.45,3.23,-3.23,-3.26,-3.46,0.22,0.22,0.22
135.12,3.42,3.23,3.42,3.23,-3.24,-3.26,-3.44,0.18,0.18,0.18
136.48,3.40,3.23,3.39,3.23,-3.25,-3.27,-3.42,0.15,0.15,0.17
137.84,3.38,3.24,3.38,3.25,-3.26,-3.28,-3.40,0.12,0.12,0.13
139.22,3.37,3.28,3.37,3.27,-3.27,-3.28,-3.38,0.09,0.09,0.09
140.61,3.36,3.29,3.35,3.29,-3.29,-3.29,-3.36,0.07,0.07,0.06
142.02,3.34,3.30,3.34,3.31,-3.30,-3.29,-3.33,0.03,0.04,0.03
143.44,3.33,3.33,3.33,3.32,-3.31,-3.30,-3.31,0.01,0.01,0.00
144.87,3.31,3.32,3.31,3.33,-3.32,-3.31,-3.28,-0.02,-0.01,-0.01
146.32,3.30,3.34,3.29,3.33,-3.32,-3.31,-3.26,-0.03,-0.03,-0.04
147.78,3.27,3.33,3.27,3.33,-3.32,-3.32,-3.23,-0.06,-0.06,-0.06
149.26,3.24,3.32,3.23,3.32,-3.32,-3.32,-3.21,-0.08,-0.08,-0.09
150.75,3.20,3.31,3.20,3.31,-3.31,-3.33,-3.18,-0.11,-0.11,-0.12
152.26,3.17,3.30,3.17,3.30,-3.30,-3.33,-3.16,-0.13,-0.13,-0.13
153.78,3.14,3.29,3.13,3.29,-3.29,-3.34,-3.13,-0.16,-0.16,-0.16
155.32,3.10,3.28,3.10,3.28,-3.29,-3.34,-3.11,-0.19,-0.19,-0.18
156.88,3.07,3.27,3.07,3.28,-3.29,-3.35,-3.09,-0.23,-0.22,-0.21
158.44,3.06,3.30,3.05,3.29,-3.30,-3.35,-3.07,-0.24,-0.25,-0.24
160.03,3.04,3.30,3.04,3.30,-3.31,-3.35,-3.06,-0.28,-0.27,-0.26
161.63,3.03,3.32,3.03,3.33,-3.33,-3.36,-3.04,-0.30,-0.30,-0.29
163.24,3.02,3.35,3.02,3.35,-3.35,-3.36,-3.03,-0.33,-0.33,-0.34
164.88,3.01,3.37,3.01,3.37,-3.37,-3.37,-3.01,-0.36,-0.36,-0.37
166.53,3.00,3.39,3.00,3.39,-3.38,-3.37,-3.00,-0.39,-0.38,-0.39
168.19,2.99,3.41,2.98,3.41,-3.40,-3.37,-3.00,-0.41,-0.42,-0.42
169.87,2.96,3.42,2.96,3.41,-3.41,-3.38,-2.99,-0.45,-0.45,-0.46
171.57,2.93,3.41,2.93,3.42,-3.42,-3.38,-2.99,-0.49,-0.49,-0.49
173.29,2.90,3.42,2.89,3.42,-3.42,-3.39,-2.99,-0.53,-0.53,-0.52
175.02,2.86,3.41,2.86,3.42,-3.43,-3.39,-2.99,-0.57,-0.57,-0.56
176.77,2.83,3.42,2.83,3.42,-3.43,-3.39,-2.99,-0.60,-0.60,-0.59
178.54,2.81,3.42,2.81,3.43,-3.43,-3.40,-3.00,-0.62,-0.62,-0.62
180.32,2.79,3.45,2.78,3.44,-3.43,-3.40,-3.01,-0.65,-0.65,-0.66
182.13,2.76,3.45,2.75,3.44,-3.44,-3.41,-3.02,-0.68,-0.69,-0.69
183.95,2.72,3.44,2.72,3.45,-3.44,-3.41,-3.03,-0.73,-0.73,-0.72
185.79,2.68,3.44,2.68,3.45,-3.45,-3.41,-3.04,-0.77,-0.77,-0.77
187.65,2.66,3.45,2.65,3.45,-3.46,-3.42,-3.06,-0.80,-0.80,-0.80
189.52,2.63,3.46,2.63,3.46,-3.46,-3.43,-3.08,-0.84,-0.83,-0.84
191.42,2.61,3.47,2.60,3.47,-3.47,-3.43,-3.10,-0.86,-0.86,-0.86
193.33,2.58,3.47,2.58,3.47,-3.47,-3.44,-3.13,-0.89,-0.89,-0.89
195.27,2.55,3.48,2.55,3.48,-3.47,-3.45,-3.15,-0.93,-0.92,-0.93
197.22,2.52,3.49,2.52,3.48,-3.47,-3.45,-3.18,-0.96,-0.96,-0.97
199.19,2.49,3.47,2.49,3.48,-3.47,-3.46,-3.20,-0.99,-0.99,-0.99
201.18,2.46,3.48,2.45,3.47,-3.47,-3.47,-3.23,-1.02,-1.02,-1.02
203.19,2.43,3.46,2.43,3.47,-3.48,-3.48,-3.26,-1.05,-1.05,-1.04
205.23,2.41,3.47,2.41,3.47,-3.48,-3.49,-3.30,-1.07,-1.07,-1.06
207.28,2.40,3.47,2.39,3.48,-3.48,-3.50,-3.33,-1.09,-1.09,-1.08
209.35,2.38,3.49,2.38,3.49,-3.49,-3.51,-3.36,-1.11,-1.11,-1.11
211.44,2.37,3.50,2.37,3.50,-3.50,-3.52,-3.39,-1.13,-1.13,-1.14
213.56,2.36,3.50,2.35,3.51,-3.51,-3.53,-3.43,-1.15,-1.15,-1.15
215.69,2.35,3.52,2.34,3.52,-3.51,-3.54,-3.46,-1.17,-1.17,-1.17
217.85,2.33,3.52,2.33,3.52,-3.52,-3.54,-3.49,-1.19,-1.18,-1.19
220.03,2.32,3.53,2.31,3.53,-3.51,-3.54,-3.52,-1.20,-1.20,-1.22
222.23,2.29,3.52,2.28,3.52,-3.51,-3.54,-3.55,-1.22,-1.22,-1.24
224.45,2.25,3.50,2.25,3.50,-3.50,-3.54,-3.58,-1.25,-1.25,-1.26
226.70,2.21,3.48,2.21,3.48,-3.48,-3.53,-3.61,-1.28,-1.28,-1.27
228.96,2.17,3.45,2.17,3.46,-3.47,-3.52,-3.63,-1.30,-1.29,-1.28
231.25,2.15,3.45,2.14,3.44,-3.45,-3.50,-3.65,-1.30,-1.31,-1.30
233.57,2.13,3.44,2.12,3.43,-3.44,-3.48,-3.67,-1.31,-1.31,-1.31
235.90,2.10,3.42,2.10,3.42,-3.42,-3.46,-3.69,-1.32,-1.32,-1.33
238.26,2.08,3.41,2.08,3.41,-3.41,-3.44,-3.70,-1.33,-1.33,-1.34
240.64,2.06,3.38,2.06,3.39,-3.40,-3.41,-3.71,-1.34,-1.34,-1.33
243.05,2.05,3.38,2.04,3.38,-3.38,-3.38,-3.71,-1.34,-1.34,-1.33
245.48,2.03,3.38,2.03,3.37,-3.37,-3.36,-3.71,-1.34,-1.35,-1.35
247.93,2.01,3.37,2.01,3.36,-3.35,-3.33,-3.71,-1.35,-1.35,-1.36
250.41,1.99,3.33,1.99,3.34,-3.33,-3.30,-3.70,-1.35,-1.35,-1.35
252.92,1.97,3.31,1.97,3.32,-3.31,-3.28,-3.69,-1.34,-1.34,-1.34
255.45,1.95,3.30,1.94,3.29,-3.29,-3.25,-3.67,-1.34,-1.34,-1.35
258.00,1.92,3.26,1.91,3.26,-3.26,-3.23,-3.65,-1.34,-1.34,-1.35
260.58,1.88,3.23,1.88,3.23,-3.23,-3.20,-3.62,-1.35,-1.35,-1.35
263.19,1.85,3.20,1.84,3.19,-3.20,-3.18,-3.59,-1.36,-1.36,-1.35
265.82,1.81,3.16,1.81,3.17,-3.18,-3.16,-3.56,-1.37,-1.36,-1.36
268.48,1.79,3.14,1.79,3.14,-3.15,-3.13,-3.52,-1.37,-1.36,-1.35
271.16,1.78,3.13,1.77,3.12,-3.13,-3.11,-3.48,-1.36,-1.36,-1.36
273.87,1.76,3.11,1.75,3.11,-3.11,-3.09,-3.44,-1.36,-1.36,-1.35
276.61,1.74,3.09,1.74,3.10,-3.09,-3.07,-3.40,-1.36,-1.36,-1.36
279.38,1.72,3.09,1.72,3.08,-3.08,-3.05,-3.35,-1.36,-1.36,-1.37
282.17,1.71,3.06,1.70,3.06,-3.06,-3.03,-3.30,-1.35,-1.36,-1.36
284.99,1.69,3.04,1.69,3.04,-3.04,-3.01,-3.25,-1.35,-1.35,-1.35
287.84,1.67,3.01,1.66,3.02,-3.01,-2.99,-3.19,-1.35,-1.35,-1.35
290.72,1.64,3.00,1.64,2.99,-2.99,-2.97,-3.14,-1.35,-1.35,-1.36
293.63,1.61,2.96,1.61,2.96,-2.95,-2.94,-3.09,-1.35,-1.34,-1.35
296.57,1.58,2.91,1.58,2.92,-2.92,-2.92,-3.03,-1.34,-1.34,-1.34
299.53,1.55,2.89,1.54,2.88,-2.88,-2.90,-2.97,-1.33,-1.34,-1.34
302.53,1.51,2.84,1.51,2.84,-2.84,-2.88,-2.92,-1.34,-1.33,-1.34
305.55,1.48,2.81,1.47,2.80,-2.81,-2.86,-2.86,-1.33,-1.33,-1.33
308.61,1.45,2.77,1.44,2.77,-2.78,-2.84,-2.81,-1.33,-1.33,-1.32
311.69,1.42,2.73,1.42,2.74,-2.75,-2.82,-2.75,-1.33,-1.33,-1.32
314.81,1.41,2.71,1.41,2.72,-2.73,-2.80,-2.70,-1.32,-1.32,-1.31
317.96,1.41,2.71,1.40,2.71,-2.71,-2.78,-2.65,-1.31,-1.31,-1.30
321.14,1.41,2.70,1.40,2.70,-2.70,-2.76,-2.59,-1.29,-1.29,-1.29
324.35,1.40,2.69,1.40,2.69,-2.68,-2.74,-2.54,-1.29,-1.28,-1.30
327.59,1.40,2.67,1.40,2.68,-2.67,-2.72,-2.49,-1.27,-1.27,-1.27
330.87,1.39,2.66,1.39,2.66,-2.65,-2.69,-2.45,-1.26,-1.26,-1.27
334.18,1.38,2.65,1.37,2.63,-2.63,-2.67,-2.40,-1.25,-1.26,-1.27
337.52,1.34,2.59,1.34,2.61,-2.60,-2.65,-2.35,-1.26,-1.25,-1.26
340.90,1.32,2.57,1.31,2.57,-2.56,-2.63,-2.31,-1.25,-1.25,-1.25
344.30,1.29,2.53,1.28,2.52,-2.52,-2.61,-2.27,-1.24,-1.24,-1.24
347.75,1.25,2.48,1.25,2.48,-2.48,-2.58,-2.23,-1.24,-1.23,-1.23
351.23,1.22,2.44,1.21,2.43,-2.44,-2.56,-2.19,-1.22,-1.23,-1.23
354.74,1.18,2.38,1.18,2.39,-2.40,-2.54,-2.15,-1.22,-1.22,-1.21
358.28,1.15,2.36,1.15,2.36,-2.36,-2.51,-2.12,-1.21,-1.21,-1.21
361.87,1.13,2.34,1.12,2.32,-2.32,-2.49,-2.08,-1.19,-1.20,-1.21
365.49,1.10,2.29,1.09,2.29,-2.29,-2.47,-2.05,-1.19,-1.20,-1.19
369.14,1.07,2.25,1.07,2.26,-2.27,-2.44,-2.02,-1.20,-1.20,-1.18
372.83,1.06,2.23,1.06,2.23,-2.25,-2.42,-1.99,-1.20,-1.20,-1.18
376.56,1.06,2.23,1.05,2.23,-2.24,-2.40,-1.97,-1.19,-1.19,-1.18
380.33,1.06,2.22,1.06,2.23,-2.24,-2.37,-1.94,-1.18,-1.18,-1.17
384.13,1.08,2.24,1.07,2.23,-2.23,-2.35,-1.92,-1.16,-1.16,-1.16
387.97,1.09,2.24,1.09,2.24,-2.23,-2.32,-1.89,-1.14,-1.14,-1.15
391.85,1.11,2.24,1.10,2.24,-2.22,-2.30,-1.87,-1.12,-1.13,-1.13
395.77,1.10,2.23,1.10,2.23,-2.22,-2.27,-1.85,-1.12,-1.12,-1.13
399.73,1.09,2.21,1.09,2.21,-2.20,-2.25,-1.83,-1.12,-1.11,-1.12
403.72,1.08,2.18,1.07,2.18,-2.18,-2.22,-1.82,-1.10,-1.11,-1.11
407.76,1.06,2.15,1.05,2.15,-2.15,-2.20,-1.80,-1.10,-1.10,-1.10
411.84,1.03,2.11,1.03,2.12,-2.12,-2.17,-1.79,-1.09,-1.09,-1.09
415.96,1.00,2.08,1.00,2.08,-2.08,-2.14,-1.77,-1.08,-1.08,-1.08
420.12,0.97,2.05,0.97,2.04,-2.04,-2.12,-1.76,-1.07,-1.07,-1.08
424.32,0.94,2.01,0.93,2.00,-2.00,-2.09,-1.75,-1.06,-1.06,-1.07
428.56,0.90,1.95,0.90,1.95,-1.95,-2.06,-1.73,-1.06,-1.06,-1.05
432.85,0.87,1.90,0.87,1.91,-1.91,-2.04,-1.72,-1.05,-1.05,-1.03
437.18,0.84,1.88,0.84,1.87,-1.87,-2.01,-1.71,-1.04,-1.04,-1.04
441.55,0.81,1.84,0.80,1.84,-1.83,-1.98,-1.70,-1.03,-1.03,-1.03
445.96,0.78,1.80,0.78,1.80,-1.80,-1.96,-1.69,-1.02,-1.03,-1.03
450.42,0.75,1.76,0.75,1.77,-1.77,-1.93,-1.68,-1.03,-1.02,-1.02
454.93,0.74,1.74,0.73,1.74,-1.75,-1.90,-1.67,-1.02,-1.02,-1.01
459.48,0.73,1.72,0.73,1.73,-1.74,-1.87,-1.66,-1.01,-1.00,-1.00
464.07,0.74,1.71,0.73,1.72,-1.72,-1.84,-1.65,-0.99,-0.99,-0.98
468.71,0.75,1.72,0.74,1.72,-1.71,-1.82,-1.64,-0.97,-0.97,-0.98
473.40,0.75,1.72,0.75,1.72,-1.71,-1.79,-1.63,-0.96,-0.96,-0.97
478.13,0.76,1.72,0.75,1.71,-1.71,-1.76,-1.62,-0.95,-0.96,-0.96
482.91,0.76,1.71,0.76,1.71,-1.71,-1.73,-1.61,-0.95,-0.95,-0.95
487.74,0.76,1.70,0.76,1.70,-1.71,-1.70,-1.59,-0.95,-0.95,-0.94
492.62,0.77,1.70,0.77,1.70,-1.70,-1.67,-1.58,-0.93,-0.93,-0.93
497.55,0.78,1.70,0.77,1.69,-1.69,-1.64,-1.57,-0.91,-0.92,-0.92
502.52,0.78,1.69,0.77,1.68,-1.68,-1.62,-1.55,-0.90,-0.90,-0.91
507.55,0.77,1.66,0.77,1.66,-1.66,-1.59,-1.54,-0.89,-0.89,-0.89
512.62,0.76,1.64,0.76,1.64,-1.63,-1.56,-1.52,-0.88,-0.88,-0.88
