frequency,raw,error,smoothed,error_smoothed,equalization,parametric_eq,fixed_band_eq,equalized_raw,equalized_smoothed,target
20.00,-1.61,-1.18,-1.61,-1.18,1.19,-1.97,-0.98,-0.42,-0.42,-0.43
20.20,-1.47,-1.02,-1.47,-1.02,1.02,-1.98,-1.01,-0.45,-0.45,-0.45
20.40,-1.34,-0.86,-1.33,-0.86,0.86,-1.98,-1.04,-0.48,-0.48,-0.48
20.61,-1.20,-0.70,-1.20,-0.70,0.70,-1.98,-1.07,-0.50,-0.50,-0.49
20.81,-1.06,-0.54,-1.06,-0.54,0.54,-1.99,-1.10,-0.52,-0.52,-0.52
21.02,-0.93,-0.38,-0.92,-0.38,0.38,-1.99,-1.13,-0.54,-0.54,-0.55
21.23,-0.79,-0.22,-0.79,-0.23,0.23,-2.00,-1.16,-0.56,-0.56,-0.57
21.44,-0.67,-0.08,-0.66,-0.08,0.08,-2.00,-1.20,-0.59,-0.58,-0.59
21.66,-0.54,0.07,-0.54,0.07,-0.07,-2.00,-1.23,-0.61,-0.61,-0.61
21.87,-0.41,0.21,-0.41,0.21,-0.22,-2.01,-1.27,-0.63,-0.63,-0.63
22.09,-0.29,0.36,-0.29,0.35,-0.36,-2.01,-1.31,-0.65,-0.65,-0.65
22.31,-0.18,0.49,-0.17,0.50,-0.50,-2.02,-1.35,-0.68,-0.67,-0.67
22.54,-0.06,0.64,-0.05,0.64,-0.64,-2.02,-1.39,-0.70,-0.69,-0.69
22.76,0.06,0.78,0.06,0.77,-0.77,-2.03,-1.43,-0.71,-0.71,-0.72
22.99,0.17,0.91,0.17,0.91,-0.90,-2.03,-1.47,-0.73,-0.73,-0.74
23.22,0.27,1.03,0.28,1.03,-1.03,-2.04,-1.51,-0.75,-0.75,-0.76
23.45,0.38,1.15,0.38,1.15,-1.15,-2.05,-1.56,-0.76,-0.77,-0.77
23.69,0.47,1.26,0.48,1.26,-1.26,-2.05,-1.60,-0.79,-0.79,-0.79
23.92,0.57,1.37,0.58,1.37,-1.37,-2.06,-1.64,-0.80,-0.80,-0.80
24.16,0.67,1.49,0.67,1.48,-1.48,-2.07,-1.69,-0.80,-0.81,-0.82
24.40,0.75,1.58,0.75,1.58,-1.58,-2.07,-1.74,-0.82,-0.82,-0.83
24.65,0.83,1.67,0.84,1.68,-1.67,-2.08,-1.78,-0.84,-0.84,-0.84
24.89,0.91,1.77,0.91,1.77,-1.77,-2.09,-1.83,-0.85,-0.85,-0.86
25.14,0.99,1.86,0.99,1.86,-1.86,-2.10,-1.88,-0.86,-0.86,-0.87
25.39,1.06,1.94,1.06,1.94,-1.94,-2.11,-1.93,-0.88,-0.88,-0.88
25.65,1.13,2.02,1.13,2.02,-2.02,-2.12,-1.98,-0.89,-0.89,-0.89
25.91,1.20,2.10,1.20,2.10,-2.10,-2.13,-2.03,-0.90,-0.90,-0.90
26.16,1.26,2.17,1.26,2.17,-2.17,-2.14,-2.07,-0.91,-0.91,-0.91
26.43,1.32,2.25,1.32,2.25,-2.25,-2.15,-2.12,-0.92,-0.92,-0.93
26.69,1.38,2.32,1.38,2.32,-2.31,-2.16,-2.17,-0.93,-0.93,-0.94
26.96,1.43,2.38,1.43,2.38,-2.38,-2.17,-2.21,-0.94,-0.94,-0.95
27.23,1.48,2.44,1.48,2.43,-2.43,-2.18,-2.26,-0.95,-0.95,-0.96
27.50,1.52,2.49,1.52,2.49,-2.49,-2.20,-2.30,-0.97,-0.96,-0.97
27.77,1.56,2.53,1.57,2.54,-2.54,-2.21,-2.35,-0.97,-0.97,-0.97
28.05,1.61,2.59,1.61,2.58,-2.58,-2.23,-2.39,-0.97,-0.98,-0.98
28.33,1.64,2.63,1.64,2.63,-2.62,-2.24,-2.42,-0.98,-0.98,-0.99
28.62,1.67,2.66,1.67,2.66,-2.66,-2.26,-2.46,-0.99,-0.99,-0.99
28.90,1.70,2.70,1.70,2.69,-2.69,-2.28,-2.49,-0.99,-0.99,-1.00
29.19,1.72,2.72,1.73,2.72,-2.72,-2.29,-2.53,-1.00,-1.00,-1.00
29.48,1.75,2.76,1.75,2.75,-2.75,-2.31,-2.55,-1.00,-1.00,-1.01
29.78,1.76,2.77,1.77,2.77,-2.78,-2.33,-2.58,-1.01,-1.01,-1.01
30.08,1.78,2.80,1.78,2.79,-2.80,-2.35,-2.60,-1.02,-1.02,-1.02
30.38,1.79,2.81,1.80,2.82,-2.82,-2.38,-2.62,-1.02,-1.02,-1.02
30.68,1.81,2.84,1.81,2.84,-2.83,-2.40,-2.63,-1.02,-1.02,-1.03
30.99,1.82,2.86,1.82,2.85,-2.84,-2.42,-2.65,-1.02,-1.03,-1.04
31.30,1.81,2.85,1.82,2.86,-2.85,-2.44,-2.65,-1.04,-1.03,-1.04
31.61,1.81,2.86,1.81,2.86,-2.86,-2.47,-2.66,-1.04,-1.05,-1.05
31.93,1.80,2.86,1.80,2.86,-2.86,-2.49,-2.66,-1.06,-1.06,-1.06
32.24,1.79,2.85,1.80,2.85,-2.86,-2.52,-2.65,-1.07,-1.06,-1.06
32.57,1.79,2.86,1.79,2.85,-2.86,-2.54,-2.65,-1.07,-1.07,-1.07
32.89,1.77,2.85,1.78,2.85,-2.85,-2.56,-2.64,-1.08,-1.08,-1.08
33.22,1.77,2.86,1.77,2.85,-2.85,-2.59,-2.62,-1.08,-1.08,-1.09
33.55,1.75,2.85,1.75,2.85,-2.84,-2.61,-2.61,-1.09,-1.09,-1.10
33.89,1.73,2.84,1.74,2.84,-2.84,-2.63,-2.59,-1.11,-1.10,-1.11
34.23,1.71,2.83,1.72,2.83,-2.83,-2.65,-2.57,-1.12,-1.11,-1.12
34.57,1.70,2.82,1.70,2.82,-2.82,-2.67,-2.54,-1.12,-1.12,-1.12
34.92,1.68,2.81,1.68,2.81,-2.81,-2.69,-2.52,-1.12,-1.12,-1.13
35.27,1.66,2.80,1.66,2.79,-2.79,-2.70,-2.49,-1.13,-1.13,-1.14
35.62,1.64,2.78,1.64,2.78,-2.78,-2.71,-2.46,-1.14,-1.14,-1.14
35.97,1.61,2.76,1.62,2.76,-2.76,-2.72,-2.43,-1.15,-1.15,-1.15
36.33,1.60,2.75,1.60,2.75,-2.75,-2.72,-2.40,-1.15,-1.15,-1.15
36.70,1.57,2.73,1.58,2.73,-2.73,-2.72,-2.37,-1.16,-1.16,-1.16
37.06,1.55,2.72,1.55,2.72,-2.71,-2.72,-2.33,-1.16,-1.16,-1.17
37.43,1.53,2.70,1.53,2.70,-2.70,-2.71,-2.30,-1.16,-1.17,-1.17
37.81,1.50,2.68,1.51,2.68,-2.68,-2.71,-2.27,-1.17,-1.17,-1.18
38.19,1.48,2.66,1.48,2.66,-2.66,-2.69,-2.23,-1.18,-1.18,-1.18
38.57,1.45,2.64,1.45,2.64,-2.64,-2.68,-2.20,-1.19,-1.18,-1.19
38.95,1.43,2.62,1.43,2.62,-2.62,-2.66,-2.17,-1.19,-1.19,-1.19
39.34,1.40,2.60,1.41,2.60,-2.60,-2.64,-2.14,-1.20,-1.19,-1.20
39.74,1.38,2.58,1.38,2.58,-2.58,-2.62,-2.10,-1.19,-1.20,-1.20
40.14,1.35,2.56,1.35,2.56,-2.56,-2.59,-2.07,-1.20,-1.20,-1.21
40.54,1.32,2.53,1.33,2.53,-2.54,-2.57,-2.04,-1.21,-1.21,-1.21
40.94,1.30,2.52,1.30,2.51,-2.51,-2.54,-2.02,-1.21,-1.21,-1.22
41.35,1.27,2.49,1.28,2.49,-2.49,-2.51,-1.99,-1.22,-1.22,-1.22
41.76,1.25,2.48,1.25,2.47,-2.47,-2.49,-1.96,-1.22,-1.22,-1.23
42.18,1.22,2.45,1.22,2.45,-2.45,-2.46,-1.94,-1.23,-1.23,-1.23
42.60,1.19,2.43,1.19,2.43,-2.43,-2.43,-1.92,-1.23,-1.23,-1.24
43.03,1.16,2.40,1.16,2.40,-2.40,-2.40,-1.89,-1.24,-1.24,-1.24
43.46,1.13,2.38,1.14,2.38,-2.38,-2.37,-1.87,-1.25,-1.24,-1.25
43.90,1.11,2.36,1.11,2.35,-2.36,-2.35,-1.85,-1.24,-1.25,-1.25
44.33,1.08,2.33,1.08,2.33,-2.33,-2.32,-1.84,-1.25,-1.25,-1.25
44.78,1.05,2.31,1.06,2.31,-2.31,-2.29,-1.82,-1.25,-1.25,-1.26
45.23,1.03,2.29,1.03,2.29,-2.28,-2.27,-1.80,-1.25,-1.25,-1.26
45.68,1.00,2.26,1.00,2.26,-2.26,-2.24,-1.79,-1.26,-1.26,-1.26
46.13,0.98,2.24,0.98,2.24,-2.24,-2.22,-1.78,-1.25,-1.25,-1.26
46.60,0.95,2.21,0.95,2.21,-2.21,-2.19,-1.77,-1.26,-1.26,-1.26
47.06,0.93,2.19,0.93,2.19,-2.19,-2.17,-1.76,-1.25,-1.25,-1.26
47.53,0.90,2.16,0.90,2.16,-2.16,-2.14,-1.75,-1.26,-1.26,-1.26
48.01,0.88,2.14,0.88,2.14,-2.14,-2.12,-1.74,-1.25,-1.25,-1.26
48.49,0.85,2.11,0.85,2.11,-2.11,-2.10,-1.74,-1.26,-1.26,-1.26
48.97,0.83,2.09,0.83,2.09,-2.09,-2.08,-1.73,-1.25,-1.26,-1.26
49.46,0.80,2.06,0.81,2.06,-2.06,-2.06,-1.73,-1.26,-1.26,-1.26
49.96,0.78,2.04,0.78,2.04,-2.04,-2.03,-1.73,-1.25,-1.26,-1.26
50.46,0.76,2.02,0.76,2.01,-2.01,-2.01,-1.73,-1.25,-1.26,-1.26
50.96,0.73,1.99,0.74,1.99,-1.99,-1.99,-1.73,-1.26,-1.25,-1.26
51.47,0.71,1.97,0.71,1.97,-1.97,-1.97,-1.73,-1.25,-1.25,-1.26
51.99,0.69,1.95,0.69,1.94,-1.95,-1.95,-1.73,-1.25,-1.26,-1.26
52.51,0.66,1.92,0.67,1.92,-1.92,-1.93,-1.73,-1.26,-1.26,-1.26
53.03,0.64,1.90,0.64,1.90,-1.90,-1.91,-1.73,-1.26,-1.26,-1.26
53.56,0.62,1.88,0.62,1.88,-1.88,-1.89,-1.74,-1.26,-1.26,-1.26
54.10,0.61,1.87,0.61,1.86,-1.86,-1.87,-1.74,-1.25,-1.25,-1.26
54.64,0.58,1.84,0.59,1.84,-1.84,-1.85,-1.74,-1.26,-1.25,-1.26
55.18,0.56,1.82,0.56,1.82,-1.82,-1.83,-1.75,-1.26,-1.26,-1.26
55.74,0.54,1.80,0.54,1.80,-1.80,-1.81,-1.75,-1.26,-1.26,-1.26
56.29,0.52,1.78,0.52,1.78,-1.78,-1.79,-1.75,-1.26,-1.26,-1.26
56.86,0.50,1.76,0.51,1.76,-1.76,-1.77,-1.75,-1.26,-1.25,-1.26
57.42,0.49,1.75,0.49,1.74,-1.74,-1.75,-1.76,-1.25,-1.25,-1.26
58.00,0.47,1.72,0.47,1.72,-1.72,-1.73,-1.76,-1.25,-1.25,-1.25
58.58,0.45,1.70,0.46,1.70,-1.70,-1.71,-1.76,-1.25,-1.24,-1.25
59.16,0.44,1.69,0.44,1.68,-1.68,-1.69,-1.76,-1.24,-1.24,-1.25
59.76,0.41,1.66,0.42,1.66,-1.66,-1.67,-1.76,-1.25,-1.24,-1.25
60.35,0.40,1.64,0.40,1.64,-1.64,-1.65,-1.75,-1.24,-1.24,-1.24
60.96,0.38,1.62,0.39,1.62,-1.63,-1.63,-1.75,-1.24,-1.24,-1.24
61.57,0.37,1.61,0.37,1.61,-1.61,-1.61,-1.75,-1.23,-1.23,-1.24
62.18,0.36,1.60,0.36,1.59,-1.59,-1.59,-1.74,-1.23,-1.23,-1.24
62.80,0.34,1.58,0.35,1.58,-1.57,-1.57,-1.73,-1.23,-1.23,-1.24
63.43,0.33,1.56,0.33,1.56,-1.56,-1.55,-1.72,-1.22,-1.23,-1.23
64.07,0.31,1.54,0.32,1.54,-1.54,-1.53,-1.72,-1.23,-1.23,-1.23
64.71,0.30,1.53,0.30,1.52,-1.53,-1.52,-1.70,-1.22,-1.23,-1.23
65.35,0.28,1.51,0.28,1.51,-1.51,-1.50,-1.69,-1.23,-1.23,-1.23
66.01,0.26,1.49,0.27,1.50,-1.50,-1.49,-1.68,-1.23,-1.23,-1.23
66.67,0.26,1.49,0.26,1.48,-1.48,-1.47,-1.67,-1.22,-1.23,-1.23
67.33,0.25,1.48,0.25,1.47,-1.47,-1.46,-1.65,-1.22,-1.22,-1.23
68.01,0.23,1.46,0.24,1.46,-1.46,-1.45,-1.64,-1.23,-1.22,-1.23
68.69,0.22,1.45,0.22,1.45,-1.45,-1.44,-1.62,-1.23,-1.23,-1.23
69.37,0.21,1.44,0.21,1.44,-1.44,-1.43,-1.60,-1.22,-1.23,-1.23
70.07,0.20,1.43,0.20,1.43,-1.43,-1.43,-1.59,-1.22,-1.22,-1.23
70.77,0.19,1.42,0.19,1.42,-1.42,-1.42,-1.57,-1.22,-1.22,-1.23
71.48,0.18,1.41,0.18,1.41,-1.41,-1.42,-1.55,-1.22,-1.22,-1.23
72.19,0.16,1.39,0.17,1.39,-1.40,-1.41,-1.53,-1.23,-1.23,-1.23
72.91,0.16,1.39,0.16,1.38,-1.39,-1.41,-1.51,-1.22,-1.23,-1.23
73.64,0.14,1.38,0.15,1.38,-1.38,-1.41,-1.49,-1.24,-1.23,-1.24
74.38,0.13,1.37,0.14,1.37,-1.37,-1.41,-1.47,-1.24,-1.23,-1.24
75.12,0.13,1.37,0.13,1.37,-1.36,-1.41,-1.46,-1.23,-1.24,-1.24
75.87,0.12,1.37,0.12,1.36,-1.36,-1.41,-1.44,-1.24,-1.24,-1.25
76.63,0.10,1.35,0.11,1.36,-1.36,-1.41,-1.42,-1.25,-1.25,-1.25
77.40,0.09,1.35,0.10,1.35,-1.36,-1.42,-1.40,-1.26,-1.26,-1.26
78.17,0.09,1.36,0.09,1.35,-1.36,-1.42,-1.39,-1.26,-1.27,-1.27
78.95,0.08,1.36,0.08,1.36,-1.36,-1.42,-1.37,-1.27,-1.27,-1.28
79.74,0.07,1.36,0.07,1.36,-1.36,-1.42,-1.36,-1.28,-1.28,-1.29
80.54,0.06,1.36,0.07,1.36,-1.36,-1.42,-1.34,-1.30,-1.29,-1.30
81.35,0.06,1.37,0.06,1.36,-1.36,-1.42,-1.33,-1.30,-1.31,-1.31
82.16,0.05,1.37,0.05,1.37,-1.37,-1.42,-1.31,-1.32,-1.31,-1.32
82.98,0.04,1.37,0.05,1.37,-1.37,-1.42,-1.30,-1.33,-1.33,-1.33
83.81,0.04,1.38,0.04,1.38,-1.38,-1.42,-1.29,-1.33,-1.34,-1.34
84.65,0.02,1.38,0.03,1.38,-1.38,-1.42,-1.28,-1.36,-1.35,-1.36
85.50,0.02,1.39,0.02,1.38,-1.38,-1.42,-1.27,-1.36,-1.36,-1.37
86.35,0.01,1.38,0.01,1.38,-1.38,-1.42,-1.26,-1.37,-1.37,-1.37
87.22,0.00,1.38,0.01,1.38,-1.38,-1.42,-1.25,-1.38,-1.38,-1.38
88.09,0.00,1.39,-0.00,1.38,-1.38,-1.42,-1.25,-1.38,-1.38,-1.39
88.97,-0.01,1.39,-0.01,1.39,-1.38,-1.41,-1.24,-1.39,-1.39,-1.40
89.86,-0.02,1.39,-0.02,1.39,-1.38,-1.41,-1.24,-1.40,-1.40,-1.41
90.76,-0.03,1.38,-0.03,1.38,-1.38,-1.41,-1.23,-1.41,-1.41,-1.41
91.66,-0.04,1.38,-0.04,1.38,-1.38,-1.40,-1.23,-1.42,-1.42,-1.42
92.58,-0.05,1.37,-0.04,1.37,-1.38,-1.40,-1.23,-1.43,-1.42,-1.42
93.51,-0.05,1.38,-0.05,1.38,-1.38,-1.39,-1.23,-1.42,-1.42,-1.43
94.44,-0.05,1.38,-0.05,1.38,-1.37,-1.39,-1.22,-1.42,-1.43,-1.43
95.39,-0.06,1.38,-0.06,1.38,-1.37,-1.38,-1.23,-1.43,-1.43,-1.44
96.34,-0.07,1.37,-0.06,1.37,-1.37,-1.38,-1.23,-1.44,-1.44,-1.44
97.30,-0.07,1.38,-0.07,1.37,-1.37,-1.37,-1.23,-1.44,-1.44,-1.45
98.28,-0.08,1.37,-0.08,1.37,-1.38,-1.37,-1.23,-1.45,-1.45,-1.45
99.26,-0.08,1.38,-0.08,1.38,-1.38,-1.36,-1.24,-1.46,-1.46,-1.46
100.25,-0.09,1.38,-0.09,1.38,-1.38,-1.35,-1.24,-1.47,-1.47,-1.47
101.25,-0.09,1.39,-0.09,1.39,-1.38,-1.35,-1.24,-1.47,-1.47,-1.48
102.27,-0.10,1.39,-0.10,1.39,-1.39,-1.34,-1.25,-1.49,-1.48,-1.49
103.29,-0.10,1.40,-0.10,1.40,-1.39,-1.33,-1.26,-1.49,-1.49,-1.50
104.32,-0.11,1.40,-0.11,1.40,-1.40,-1.32,-1.26,-1.51,-1.50,-1.51
105.37,-0.11,1.41,-0.11,1.40,-1.40,-1.32,-1.27,-1.51,-1.52,-1.52
106.42,-0.13,1.40,-0.12,1.40,-1.41,-1.31,-1.28,-1.53,-1.53,-1.53
107.48,-0.13,1.41,-0.13,1.41,-1.41,-1.30,-1.28,-1.54,-1.54,-1.54
108.56,-0.13,1.42,-0.13,1.42,-1.42,-1.30,-1.29,-1.54,-1.55,-1.55
109.64,-0.13,1.43,-0.13,1.43,-1.42,-1.29,-1.30,-1.55,-1.55,-1.56
110.74,-0.14,1.43,-0.13,1.43,-1.43,-1.28,-1.31,-1.57,-1.56,-1.57
111.85,-0.14,1.44,-0.14,1.43,-1.44,-1.27,-1.31,-1.57,-1.58,-1.58
112.97,-0.15,1.44,-0.15,1.44,-1.44,-1.27,-1.32,-1.59,-1.59,-1.59
114.10,-0.16,1.44,-0.15,1.44,-1.45,-1.26,-1.33,-1.61,-1.60,-1.60
115.24,-0.15,1.46,-0.15,1.45,-1.45,-1.25,-1.33,-1.60,-1.61,-1.61
116.39,-0.16,1.46,-0.16,1.46,-1.46,-1.24,-1.34,-1.61,-1.61,-1.62
117.55,-0.16,1.47,-0.16,1.47,-1.46,-1.24,-1.34,-1.62,-1.62,-1.63
118.73,-0.17,1.47,-0.17,1.47,-1.47,-1.23,-1.35,-1.63,-1.63,-1.64
119.92,-0.17,1.47,-0.17,1.47,-1.47,-1.22,-1.35,-1.64,-1.64,-1.64
121.12,-0.18,1.47,-0.17,1.47,-1.47,-1.22,-1.36,-1.65,-1.64,-1.65
122.33,-0.18,1.47,-0.18,1.47,-1.47,-1.21,-1.36,-1.65,-1.65,-1.65
123.55,-0.18,1.48,-0.18,1.47,-1.47,-1.20,-1.36,-1.65,-1.65,-1.66
124.79,-0.19,1.47,-0.18,1.48,-1.47,-1.20,-1.36,-1.66,-1.66,-1.66
126.03,-0.19,1.48,-0.19,1.47,-1.48,-1.19,-1.36,-1.66,-1.66,-1.67
127.29,-0.19,1.48,-0.19,1.48,-1.48,-1.19,-1.36,-1.66,-1.67,-1.67
128.57,-0.20,1.47,-0.19,1.48,-1.48,-1.18,-1.36,-1.68,-1.67,-1.67
129.85,-0.19,1.49,-0.19,1.48,-1.48,-1.18,-1.36,-1.67,-1.67,-1.68
131.15,-0.20,1.48,-0.20,1.48,-1.48,-1.17,-1.35,-1.67,-1.67,-1.68
132.46,-0.20,1.48,-0.20,1.48,-1.47,-1.17,-1.35,-1.67,-1.67,-1.68
133.79,-0.21,1.47,-0.21,1.47,-1.47,-1.16,-1.35,-1.68,-1.68,-1.68
135.12,-0.21,1.47,-0.21,1.46,-1.47,-1.16,-1.34,-1.67,-1.68,-1.68
136.48,-0.22,1.46,-0.21,1.46,-1.46,-1.16,-1.34,-1.68,-1.67,-1.68
137.84,-0.22,1.45,-0.22,1.45,-1.45,-1.15,-1.33,-1.67,-1.67,-1.67
139.22,-0.22,1.45,-0.22,1.45,-1.45,-1.15,-1.32,-1.66,-1.67,-1.67
140.61,-0.23,1.44,-0.22,1.44,-1.44,-1.15,-1.32,-1.67,-1.66,-1.67
142.02,-0.22,1.44,-0.22,1.43,-1.43,-1.14,-1.31,-1.65,-1.66,-1.66
143.44,-0.23,1.42,-0.22,1.43,-1.42,-1.14,-1.31,-1.65,-1.65,-1.65
144.87,-0.23,1.42,-0.23,1.41,-1.41,-1.14,-1.30,-1.64,-1.64,-1.65
146.32,-0.23,1.41,-0.23,1.40,-1.41,-1.14,-1.29,-1.63,-1.64,-1.64
147.78,-0.24,1.39,-0.23,1.40,-1.39,-1.14,-1.29,-1.63,-1.63,-1.63
149.26,-0.24,1.39,-0.24,1.38,-1.38,-1.13,-1.28,-1.62,-1.62,-1.63
150.75,-0.25,1.37,-0.24,1.37,-1.37,-1.13,-1.28,-1.62,-1.61,-1.62
152.26,-0.25,1.36,-0.25,1.36,-1.36,-1.13,-1.27,-1.61,-1.61,-1.61
153.78,-0.25,1.35,-0.25,1.34,-1.34,-1.13,-1.27,-1.59,-1.59,-1.60
155.32,-0.26,1.33,-0.25,1.33,-1.33,-1.13,-1.27,-1.59,-1.58,-1.59
156.88,-0.26,1.32,-0.26,1.32,-1.32,-1.13,-1.26,-1.57,-1.58,-1.58
158.44,-0.27,1.30,-0.27,1.30,-1.30,-1.13,-1.26,-1.57,-1.57,-1.57
160.03,-0.27,1.29,-0.27,1.29,-1.29,-1.13,-1.26,-1.55,-1.56,-1.56
161.63,-0.28,1.27,-0.28,1.27,-1.27,-1.13,-1.26,-1.55,-1.55,-1.55
163.24,-0.28,1.26,-0.28,1.26,-1.26,-1.13,-1.26,-1.53,-1.53,-1.54
164.88,-0.29,1.24,-0.28,1.24,-1.24,-1.13,-1.27,-1.53,-1.52,-1.53
166.53,-0.29,1.23,-0.29,1.22,-1.23,-1.13,-1.27,-1.51,-1.52,-1.52
168.19,-0.30,1.21,-0.30,1.21,-1.21,-1.14,-1.27,-1.51,-1.51,-1.51
169.87,-0.31,1.19,-0.30,1.19,-1.20,-1.14,-1.28,-1.50,-1.50,-1.50
171.57,-0.31,1.19,-0.31,1.18,-1.18,-1.14,-1.28,-1.49,-1.49,-1.50
173.29,-0.32,1.17,-0.32,1.17,-1.17,-1.14,-1.29,-1.49,-1.48,-1.49
175.02,-0.32,1.16,-0.32,1.16,-1.15,-1.14,-1.30,-1.47,-1.48,-1.48
176.77,-0.34,1.14,-0.33,1.14,-1.14,-1.14,-1.31,-1.48,-1.47,-1.48
178.54,-0.34,1.13,-0.34,1.13,-1.13,-1.15,-1.32,-1.47,-1.47,-1.47
180.32,-0.35,1.12,-0.35,1.12,-1.12,-1.15,-1.33,-1.47,-1.47,-1.47
182.13,-0.36,1.11,-0.36,1.11,-1.11,-1.15,-1.34,-1.46,-1.47,-1.47
183.95,-0.38,1.09,-0.37,1.10,-1.10,-1.15,-1.35,-1.47,-1.46,-1.47
185.79,-0.38,1.09,-0.38,1.08,-1.08,-1.15,-1.37,-1.46,-1.46,-1.47
187.65,-0.39,1.08,-0.39,1.07,-1.07,-1.16,-1.38,-1.46,-1.46,-1.47
189.52,-0.41,1.06,-0.40,1.07,-1.06,-1.16,-1.40,-1.47,-1.46,-1.47
191.42,-0.41,1.06,-0.41,1.05,-1.05,-1.16,-1.42,-1.46,-1.46,-1.47
193.33,-0.43,1.04,-0.43,1.04,-1.04,-1.16,-1.43,-1.47,-1.47,-1.47
195.27,-0.44,1.03,-0.44,1.03,-1.03,-1.16,-1.45,-1.47,-1.47,-1.47
197.22,-0.46,1.02,-0.45,1.02,-1.02,-1.16,-1.47,-1.48,-1.47,-1.48
199.19,-0.46,1.02,-0.46,1.02,-1.02,-1.17,-1.49,-1.47,-1.48,-1.48
201.18,-0.47,1.02,-0.47,1.01,-1.01,-1.17,-1.51,-1.48,-1.48,-1.49
203.19,-0.49,1.00,-0.48,1.00,-1.00,-1.17,-1.53,-1.49,-1.49,-1.49
205.23,-0.50,1.00,-0.50,1.00,-1.00,-1.17,-1.55,-1.49,-1.49,-1.50
207.28,-0.51,0.99,-0.51,0.99,-0.99,-1.17,-1.57,-1.50,-1.50,-1.50
209.35,-0.52,0.99,-0.52,0.99,-0.99,-1.17,-1.59,-1.51,-1.51,-1.51
211.44,-0.53,0.99,-0.53,0.98,-0.98,-1.17,-1.60,-1.51,-1.51,-1.52
213.56,-0.54,0.98,-0.54,0.98,-0.98,-1.17,-1.62,-1.52,-1.52,-1.52
215.69,-0.55,0.98,-0.55,0.98,-0.98,-1.17,-1.64,-1.53,-1.53,-1.53
217.85,-0.56,0.97,-0.55,0.97,-0.98,-1.17,-1.66,-1.53,-1.53,-1.53
220.03,-0.56,0.98,-0.56,0.98,-0.97,-1.17,-1.67,-1.53,-1.53,-1.54
222.23,-0.56,0.98,-0.56,0.97,-0.97,-1.17,-1.68,-1.53,-1.53,-1.54
224.45,-0.57,0.97,-0.57,0.97,-0.97,-1.17,-1.69,-1.53,-1.53,-1.54
226.70,-0.58,0.96,-0.57,0.96,-0.96,-1.17,-1.70,-1.54,-1.53,-1.54
228.96,-0.58,0.96,-0.58,0.95,-0.96,-1.16,-1.71,-1.53,-1.54,-1.54
231.25,-0.59,0.95,-0.59,0.95,-0.95,-1.16,-1.71,-1.54,-1.54,-1.54
233.57,-0.59,0.94,-0.59,0.94,-0.94,-1.16,-1.72,-1.53,-1.53,-1.53
235.90,-0.59,0.94,-0.58,0.94,-0.94,-1.16,-1.72,-1.53,-1.52,-1.53
238.26,-0.58,0.94,-0.58,0.93,-0.93,-1.15,-1.71,-1.51,-1.51,-1.52
240.64,-0.58,0.93,-0.58,0.93,-0.93,-1.15,-1.70,-1.51,-1.51,-1.51
243.05,-0.58,0.93,-0.58,0.93,-0.92,-1.14,-1.69,-1.50,-1.50,-1.51
245.48,-0.58,0.92,-0.57,0.92,-0.92,-1.14,-1.68,-1.50,-1.49,-1.50
247.93,-0.57,0.92,-0.57,0.92,-0.92,-1.13,-1.66,-1.49,-1.49,-1.49
250.41,-0.56,0.92,-0.56,0.92,-0.92,-1.12,-1.64,-1.47,-1.48,-1.48
252.92,-0.56,0.92,-0.56,0.91,-0.92,-1.12,-1.61,-1.47,-1.47,-1.48
255.45,-0.56,0.91,-0.55,0.91,-0.92,-1.11,-1.58,-1.47,-1.47,-1.47
258.00,-0.55,0.91,-0.54,0.92,-0.92,-1.10,-1.55,-1.47,-1.46,-1.46
260.58,-0.53,0.93,-0.53,0.92,-0.92,-1.09,-1.51,-1.45,-1.46,-1.46
263.19,-0.53,0.93,-0.52,0.93,-0.93,-1.08,-1.47,-1.45,-1.45,-1.46
265.82,-0.52,0.93,-0.51,0.93,-0.93,-1.07,-1.43,-1.45,-1.45,-1.45
268.48,-0.51,0.94,-0.51,0.94,-0.94,-1.06,-1.38,-1.45,-1.45,-1.45
271.16,-0.50,0.95,-0.50,0.94,-0.94,-1.05,-1.33,-1.44,-1.44,-1.45
273.87,-0.50,0.95,-0.49,0.95,-0.95,-1.03,-1.28,-1.45,-1.44,-1.45
276.61,-0.49,0.95,-0.49,0.95,-0.95,-1.02,-1.22,-1.44,-1.44,-1.44
279.38,-0.48,0.96,-0.48,0.95,-0.95,-1.00,-1.16,-1.43,-1.44,-1.44
282.17,-0.48,0.96,-0.48,0.95,-0.96,-0.99,-1.10,-1.43,-1.43,-1.44
284.99,-0.48,0.95,-0.47,0.95,-0.95,-0.97,-1.03,-1.43,-1.43,-1.43
287.84,-0.48,0.95,-0.47,0.95,-0.95,-0.95,-0.97,-1.43,-1.43,-1.43
290.72,-0.47,0.95,-0.47,0.94,-0.94,-0.94,-0.90,-1.41,-1.42,-1.42
293.63,-0.48,0.94,-0.47,0.94,-0.94,-0.92,-0.83,-1.41,-1.41,-1.42
296.57,-0.48,0.93,-0.48,0.93,-0.92,-0.90,-0.76,-1.40,-1.40,-1.41
299.53,-0.49,0.92,-0.49,0.91,-0.91,-0.87,-0.68,-1.40,-1.40,-1.41
302.53,-0.50,0.90,-0.50,0.90,-0.89,-0.85,-0.61,-1.39,-1.39,-1.40
305.55,-0.52,0.87,-0.51,0.87,-0.88,-0.83,-0.53,-1.39,-1.39,-1.39
308.61,-0.52,0.86,-0.52,0.86,-0.86,-0.80,-0.46,-1.38,-1.38,-1.38
311.69,-0.53,0.84,-0.53,0.84,-0.84,-0.78,-0.38,-1.37,-1.37,-1.37
314.81,-0.53,0.83,-0.53,0.82,-0.83,-0.75,-0.30,-1.36,-1.36,-1.36
317.96,-0.54,0.81,-0.53,0.81,-0.82,-0.72,-0.22,-1.36,-1.35,-1.35
321.14,-0.53,0.81,-0.53,0.81,-0.82,-0.69,-0.14,-1.34,-1.34,-1.34
324.35,-0.52,0.81,-0.52,0.81,-0.82,-0.66,-0.06,-1.33,-1.33,-1.33
327.59,-0.51,0.81,-0.51,0.81,-0.82,-0.63,0.03,-1.33,-1.33,-1.32
330.87,-0.50,0.82,-0.49,0.82,-0.82,-0.59,0.11,-1.32,-1.32,-1.32
334.18,-0.49,0.82,-0.48,0.83,-0.83,-0.56,0.19,-1.31,-1.31,-1.31
337.52,-0.47,0.84,-0.47,0.83,-0.83,-0.52,0.28,-1.30,-1.30,-1.31
340.90,-0.48,0.82,-0.48,0.82,-0.82,-0.48,0.36,-1.30,-1.30,-1.30
344.30,-0.50,0.80,-0.49,0.80,-0.80,-0.44,0.45,-1.29,-1.29,-1.30
347.75,-0.53,0.77,-0.52,0.78,-0.76,-0.40,0.53,-1.28,-1.28,-1.30
351.23,-0.56,0.74,-0.56,0.73,-0.70,-0.36,0.62,-1.26,-1.26,-1.30
354.74,-0.62,0.68,-0.64,0.66,-0.63,-0.31,0.71,-1.25,-1.27,-1.30
358.28,-0.75,0.56,-0.74,0.56,-0.54,-0.27,0.79,-1.29,-1.28,-1.31
361.87,-0.87,0.44,-0.86,0.45,-0.45,-0.22,0.88,-1.32,-1.31,-1.31
365.49,-0.98,0.33,-0.98,0.33,-0.35,-0.17,0.97,-1.33,-1.33,-1.31
369.14,-1.08,0.23,-1.08,0.23,-0.25,-0.12,1.06,-1.33,-1.33,-1.31
372.83,-1.17,0.14,-1.17,0.13,-0.15,-0.06,1.15,-1.32,-1.32,-1.31
376.56,-1.25,0.05,-1.25,0.05,-0.07,-0.01,1.24,-1.31,-1.31,-1.30
380.33,-1.32,-0.02,-1.31,-0.02,0.01,0.05,1.33,-1.31,-1.30,-1.30
384.13,-1.37,-0.07,-1.37,-0.08,0.07,0.11,1.42,-1.29,-1.30,-1.30
387.97,-1.43,-0.14,-1.42,-0.13,0.13,0.17,1.51,-1.30,-1.29,-1.29
391.85,-1.47,-0.18,-1.47,-0.18,0.18,0.24,1.60,-1.28,-1.28,-1.29
395.77,-1.51,-0.23,-1.51,-0.23,0.23,0.30,1.69,-1.27,-1.27,-1.28
399.73,-1.55,-0.28,-1.55,-0.28,0.28,0.37,1.78,-1.26,-1.26,-1.27
403.72,-1.60,-0.33,-1.60,-0.33,0.34,0.44,1.87,-1.26,-1.26,-1.27
407.76,-1.65,-0.39,-1.65,-0.40,0.40,0.52,1.96,-1.25,-1.25,-1.26
411.84,-1.72,-0.47,-1.71,-0.46,0.47,0.59,2.05,-1.25,-1.24,-1.25
415.96,-1.78,-0.54,-1.78,-0.54,0.55,0.67,2.14,-1.23,-1.23,-1.24
420.12,-1.86,-0.62,-1.86,-0.63,0.63,0.75,2.23,-1.22,-1.22,-1.24
424.32,-1.95,-0.72,-1.95,-0.72,0.73,0.83,2.31,-1.21,-1.21,-1.23
428.56,-2.05,-0.83,-2.05,-0.83,0.84,0.92,2.40,-1.20,-1.20,-1.22
432.85,-2.16,-0.95,-2.16,-0.95,0.96,1.01,2.48,-1.20,-1.20,-1.21
437.18,-2.28,-1.08,-2.28,-1.08,1.08,1.10,2.56,-1.20,-1.20,-1.20
441.55,-2.40,-1.21,-2.40,-1.21,1.20,1.19,2.63,-1.19,-1.20,-1.19
