frequency,raw,error,smoothed,error_smoothed,equalization,parametric_eq,fixed_band_eq,equalized_raw,equalized_smoothed,target
20.00,-3.73,-1.88,-3.77,-1.93,1.90,1.74,-0.26,-1.83,-1.88,-1.84
20.20,-3.69,-1.84,-3.63,-1.79,1.77,1.68,-0.27,-1.92,-1.87,-1.84
20.40,-3.54,-1.69,-3.50,-1.66,1.65,1.61,-0.28,-1.89,-1.86,-1.84
20.61,-3.36,-1.52,-3.37,-1.53,1.53,1.55,-0.28,-1.83,-1.84,-1.84
20.81,-3.22,-1.37,-3.22,-1.37,1.43,1.48,-0.29,-1.78,-1.79,-1.84
21.02,-3.09,-1.24,-3.11,-1.26,1.34,1.42,-0.30,-1.75,-1.77,-1.84
21.23,-3.05,-1.20,-3.04,-1.20,1.25,1.35,-0.30,-1.79,-1.79,-1.84
21.44,-3.01,-1.16,-3.00,-1.16,1.18,1.28,-0.31,-1.83,-1.83,-1.84
21.66,-2.99,-1.15,-2.98,-1.14,1.12,1.22,-0.32,-1.86,-1.86,-1.84
21.87,-2.95,-1.10,-2.95,-1.11,1.08,1.15,-0.32,-1.87,-1.87,-1.84
22.09,-2.92,-1.07,-2.91,-1.07,1.04,1.09,-0.33,-1.88,-1.88,-1.84
22.31,-2.87,-1.02,-2.86,-1.02,1.00,1.02,-0.34,-1.87,-1.86,-1.84
22.54,-2.80,-0.96,-2.80,-0.96,0.96,0.95,-0.35,-1.84,-1.84,-1.84
22.76,-2.73,-0.88,-2.73,-0.89,0.91,0.89,-0.35,-1.82,-1.82,-1.84
22.99,-2.67,-0.82,-2.68,-0.83,0.84,0.82,-0.36,-1.82,-1.83,-1.84
23.22,-2.62,-0.77,-2.62,-0.78,0.77,0.75,-0.37,-1.84,-1.85,-1.84
23.45,-2.59,-0.74,-2.57,-0.72,0.70,0.69,-0.38,-1.88,-1.86,-1.84
23.69,-2.49,-0.65,-2.49,-0.65,0.63,0.62,-0.39,-1.86,-1.86,-1.84
23.92,-2.41,-0.56,-2.41,-0.56,0.56,0.55,-0.40,-1.85,-1.85,-1.84
24.16,-2.31,-0.46,-2.31,-0.46,0.49,0.49,-0.41,-1.82,-1.82,-1.84
24.40,-2.23,-0.38,-2.23,-0.39,0.41,0.42,-0.42,-1.81,-1.82,-1.84
24.65,-2.16,-0.32,-2.17,-0.33,0.34,0.35,-0.43,-1.82,-1.83,-1.84
24.89,-2.13,-0.28,-2.11,-0.27,0.26,0.29,-0.44,-1.86,-1.85,-1.84
25.14,-2.05,-0.20,-2.04,-0.20,0.19,0.22,-0.45,-1.86,-1.86,-1.84
25.39,-1.97,-0.12,-1.97,-0.13,0.12,0.15,-0.46,-1.85,-1.86,-1.84
25.65,-1.89,-0.05,-1.89,-0.05,0.05,0.09,-0.47,-1.84,-1.84,-1.84
25.91,-1.82,0.02,-1.81,0.03,-0.03,0.02,-0.48,-1.84,-1.84,-1.84
26.16,-1.74,0.11,-1.74,0.10,-0.10,-0.04,-0.49,-1.84,-1.84,-1.84
26.43,-1.66,0.18,-1.66,0.18,-0.18,-0.11,-0.51,-1.84,-1.84,-1.84
26.69,-1.60,0.25,-1.59,0.25,-0.26,-0.18,-0.52,-1.85,-1.85,-1.84
26.96,-1.51,0.33,-1.51,0.33,-0.33,-0.24,-0.53,-1.84,-1.85,-1.84
27.23,-1.45,0.39,-1.44,0.41,-0.41,-0.31,-0.54,-1.86,-1.85,-1.84
27.50,-1.35,0.49,-1.36,0.48,-0.49,-0.37,-0.56,-1.83,-1.84,-1.84
27.77,-1.29,0.56,-1.28,0.56,-0.55,-0.44,-0.57,-1.84,-1.84,-1.84
28.05,-1.22,0.63,-1.21,0.63,-0.62,-0.50,-0.59,-1.84,-1.83,-1.84
28.33,-1.15,0.70,-1.15,0.69,-0.68,-0.57,-0.60,-1.82,-1.83,-1.84
28.62,-1.10,0.74,-1.10,0.75,-0.73,-0.63,-0.62,-1.83,-1.83,-1.84
28.90,-1.05,0.80,-1.05,0.79,-0.79,-0.70,-0.63,-1.83,-1.84,-1.84
29.19,-1.02,0.83,-1.02,0.82,-0.83,-0.76,-0.65,-1.85,-1.86,-1.84
29.48,-0.99,0.86,-0.98,0.86,-0.88,-0.82,-0.67,-1.87,-1.86,-1.84
29.78,-0.94,0.90,-0.93,0.91,-0.92,-0.89,-0.68,-1.86,-1.85,-1.84
30.08,-0.86,0.98,-0.87,0.97,-0.97,-0.95,-0.70,-1.83,-1.84,-1.84
30.38,-0.81,1.03,-0.82,1.03,-1.02,-1.01,-0.72,-1.82,-1.83,-1.84
30.68,-0.77,1.08,-0.77,1.07,-1.06,-1.07,-0.74,-1.83,-1.84,-1.84
30.99,-0.75,1.09,-0.74,1.11,-1.11,-1.13,-0.76,-1.86,-1.85,-1.84
31.30,-0.69,1.15,-0.68,1.16,-1.16,-1.19,-0.78,-1.85,-1.85,-1.84
31.61,-0.63,1.22,-0.63,1.21,-1.21,-1.26,-0.80,-1.84,-1.85,-1.84
31.93,-0.56,1.28,-0.57,1.27,-1.27,-1.32,-0.82,-1.83,-1.84,-1.84
32.24,-0.54,1.31,-0.52,1.32,-1.32,-1.38,-0.85,-1.86,-1.85,-1.84
32.57,-0.47,1.37,-0.47,1.38,-1.38,-1.43,-0.87,-1.85,-1.85,-1.84
32.89,-0.41,1.44,-0.40,1.44,-1.45,-1.49,-0.89,-1.85,-1.85,-1.84
33.22,-0.32,1.53,-0.33,1.51,-1.51,-1.55,-0.92,-1.83,-1.84,-1.84
33.55,-0.26,1.59,-0.27,1.58,-1.57,-1.61,-0.94,-1.83,-1.84,-1.84
33.89,-0.22,1.63,-0.20,1.64,-1.64,-1.67,-0.97,-1.85,-1.84,-1.84
34.23,-0.15,1.69,-0.15,1.70,-1.70,-1.72,-1.00,-1.85,-1.84,-1.84
34.57,-0.08,1.77,-0.09,1.76,-1.76,-1.78,-1.03,-1.83,-1.84,-1.84
34.92,-0.03,1.81,-0.03,1.82,-1.81,-1.83,-1.05,-1.84,-1.84,-1.84
35.27,0.02,1.86,0.02,1.87,-1.86,-1.89,-1.08,-1.84,-1.84,-1.84
35.62,0.07,1.91,0.07,1.92,-1.91,-1.94,-1.11,-1.84,-1.84,-1.84
35.97,0.12,1.97,0.12,1.96,-1.96,-1.99,-1.15,-1.84,-1.84,-1.84
36.33,0.16,2.01,0.16,2.00,-2.00,-2.05,-1.18,-1.84,-1.85,-1.84
36.70,0.18,2.03,0.20,2.04,-2.05,-2.10,-1.21,-1.86,-1.85,-1.84
37.06,0.24,2.09,0.24,2.08,-2.09,-2.15,-1.25,-1.84,-1.85,-1.84
37.43,0.29,2.14,0.28,2.13,-2.12,-2.20,-1.29,-1.83,-1.84,-1.84
37.81,0.32,2.17,0.33,2.17,-2.16,-2.25,-1.32,-1.84,-1.84,-1.84
38.19,0.35,2.19,0.36,2.20,-2.20,-2.30,-1.36,-1.84,-1.84,-1.84
38.57,0.39,2.24,0.39,2.23,-2.23,-2.35,-1.40,-1.84,-1.84,-1.84
38.95,0.41,2.26,0.42,2.26,-2.26,-2.39,-1.44,-1.85,-1.85,-1.84
39.34,0.46,2.31,0.46,2.30,-2.30,-2.44,-1.48,-1.83,-1.84,-1.84
39.74,0.48,2.33,0.49,2.33,-2.33,-2.48,-1.53,-1.85,-1.84,-1.84
40.14,0.53,2.37,0.52,2.37,-2.37,-2.53,-1.57,-1.83,-1.84,-1.84
40.54,0.55,2.40,0.55,2.40,-2.40,-2.57,-1.62,-1.85,-1.85,-1.84
40.94,0.58,2.43,0.59,2.43,-2.44,-2.61,-1.67,-1.86,-1.85,-1.84
41.35,0.63,2.48,0.63,2.47,-2.48,-2.66,-1.72,-1.85,-1.85,-1.84
41.76,0.68,2.53,0.68,2.52,-2.52,-2.70,-1.77,-1.84,-1.84,-1.84
42.18,0.72,2.57,0.72,2.57,-2.55,-2.74,-1.82,-1.83,-1.83,-1.84
42.60,0.76,2.61,0.76,2.60,-2.59,-2.78,-1.87,-1.82,-1.83,-1.84
43.03,0.79,2.64,0.79,2.63,-2.62,-2.81,-1.93,-1.83,-1.83,-1.84
43.46,0.81,2.66,0.81,2.65,-2.65,-2.85,-1.98,-1.84,-1.84,-1.84
43.90,0.83,2.67,0.83,2.67,-2.68,-2.89,-2.04,-1.85,-1.85,-1.84
44.33,0.84,2.69,0.85,2.69,-2.71,-2.92,-2.10,-1.87,-1.86,-1.84
44.78,0.88,2.72,0.88,2.73,-2.74,-2.95,-2.16,-1.86,-1.86,-1.84
45.23,0.93,2.77,0.93,2.77,-2.78,-2.99,-2.23,-1.85,-1.85,-1.84
45.68,0.98,2.82,0.98,2.83,-2.83,-3.02,-2.29,-1.84,-1.84,-1.84
46.13,1.04,2.89,1.03,2.87,-2.87,-3.05,-2.36,-1.83,-1.84,-1.84
46.60,1.07,2.91,1.08,2.92,-2.92,-3.08,-2.43,-1.85,-1.84,-1.84
47.06,1.11,2.96,1.12,2.97,-2.96,-3.11,-2.49,-1.85,-1.84,-1.84
47.53,1.18,3.03,1.17,3.01,-3.00,-3.14,-2.56,-1.82,-1.83,-1.84
48.01,1.21,3.06,1.22,3.06,-3.04,-3.16,-2.64,-1.82,-1.82,-1.84
48.49,1.25,3.10,1.24,3.08,-3.07,-3.19,-2.71,-1.82,-1.83,-1.84
48.97,1.25,3.10,1.25,3.10,-3.10,-3.22,-2.78,-1.85,-1.85,-1.84
49.46,1.25,3.10,1.27,3.11,-3.13,-3.24,-2.86,-1.88,-1.86,-1.84
49.96,1.29,3.13,1.29,3.13,-3.16,-3.26,-2.93,-1.87,-1.87,-1.84
50.46,1.32,3.16,1.33,3.17,-3.18,-3.29,-3.01,-1.86,-1.86,-1.84
50.96,1.37,3.22,1.38,3.22,-3.21,-3.31,-3.09,-1.84,-1.83,-1.84
51.47,1.42,3.27,1.41,3.26,-3.23,-3.33,-3.16,-1.81,-1.82,-1.84
51.99,1.44,3.29,1.44,3.28,-3.26,-3.35,-3.24,-1.82,-1.82,-1.84
52.51,1.44,3.29,1.44,3.29,-3.28,-3.37,-3.32,-1.84,-1.84,-1.84
53.03,1.44,3.29,1.45,3.29,-3.30,-3.39,-3.40,-1.86,-1.85,-1.84
53.56,1.46,3.31,1.47,3.31,-3.32,-3.40,-3.47,-1.86,-1.85,-1.84
54.10,1.49,3.33,1.49,3.33,-3.33,-3.42,-3.54,-1.83,-1.84,-1.84
54.64,1.50,3.35,1.50,3.35,-3.33,-3.44,-3.62,-1.83,-1.83,-1.84
55.18,1.51,3.36,1.51,3.35,-3.34,-3.45,-3.69,-1.83,-1.83,-1.84
55.74,1.51,3.36,1.51,3.35,-3.35,-3.47,-3.76,-1.84,-1.84,-1.84
56.29,1.49,3.34,1.51,3.35,-3.37,-3.48,-3.82,-1.87,-1.86,-1.84
56.86,1.53,3.37,1.52,3.36,-3.38,-3.50,-3.89,-1.85,-1.86,-1.84
57.42,1.54,3.39,1.55,3.39,-3.41,-3.51,-3.95,-1.86,-1.86,-1.84
58.00,1.58,3.43,1.58,3.43,-3.43,-3.52,-4.00,-1.85,-1.85,-1.84
58.58,1.62,3.47,1.62,3.46,-3.46,-3.53,-4.05,-1.84,-1.84,-1.84
59.16,1.65,3.50,1.66,3.50,-3.49,-3.55,-4.10,-1.84,-1.83,-1.84
59.76,1.69,3.53,1.69,3.53,-3.52,-3.56,-4.14,-1.83,-1.83,-1.84
60.35,1.72,3.57,1.72,3.56,-3.55,-3.57,-4.18,-1.83,-1.84,-1.84
60.96,1.73,3.58,1.74,3.58,-3.58,-3.58,-4.21,-1.85,-1.84,-1.84
61.57,1.77,3.61,1.76,3.60,-3.61,-3.59,-4.24,-1.84,-1.85,-1.84
62.18,1.77,3.62,1.78,3.63,-3.64,-3.60,-4.26,-1.86,-1.85,-1.84
62.80,1.81,3.66,1.81,3.66,-3.66,-3.61,-4.28,-1.84,-1.84,-1.84
63.43,1.84,3.69,1.84,3.68,-3.67,-3.62,-4.29,-1.83,-1.83,-1.84
64.07,1.86,3.71,1.86,3.70,-3.68,-3.63,-4.30,-1.82,-1.83,-1.84
64.71,1.86,3.71,1.86,3.71,-3.70,-3.64,-4.30,-1.83,-1.83,-1.84
65.35,1.86,3.71,1.86,3.71,-3.70,-3.65,-4.29,-1.84,-1.84,-1.84
66.01,1.86,3.71,1.86,3.70,-3.71,-3.66,-4.29,-1.85,-1.85,-1.84
66.67,1.86,3.71,1.86,3.70,-3.72,-3.67,-4.27,-1.85,-1.85,-1.84
67.33,1.86,3.71,1.87,3.71,-3.72,-3.68,-4.25,-1.86,-1.85,-1.84
68.01,1.88,3.73,1.89,3.73,-3.73,-3.69,-4.23,-1.85,-1.84,-1.84
68.69,1.91,3.76,1.90,3.74,-3.74,-3.70,-4.21,-1.83,-1.84,-1.84
69.37,1.91,3.76,1.91,3.75,-3.76,-3.71,-4.18,-1.85,-1.85,-1.84
70.07,1.91,3.76,1.93,3.77,-3.77,-3.72,-4.15,-1.86,-1.85,-1.84
70.77,1.94,3.79,1.95,3.79,-3.79,-3.74,-4.12,-1.85,-1.84,-1.84
71.48,1.99,3.83,1.98,3.82,-3.81,-3.75,-4.08,-1.82,-1.83,-1.84
72.19,2.00,3.85,2.00,3.84,-3.83,-3.76,-4.04,-1.82,-1.83,-1.84
72.91,2.00,3.85,2.00,3.85,-3.85,-3.77,-4.01,-1.84,-1.84,-1.84
73.64,2.00,3.85,2.00,3.84,-3.86,-3.78,-3.97,-1.86,-1.86,-1.84
74.38,2.00,3.85,2.02,3.86,-3.88,-3.79,-3.93,-1.88,-1.86,-1.84
75.12,2.04,3.89,2.04,3.89,-3.89,-3.80,-3.89,-1.85,-1.85,-1.84
75.87,2.08,3.93,2.07,3.92,-3.90,-3.81,-3.86,-1.82,-1.82,-1.84
76.63,2.09,3.94,2.09,3.93,-3.90,-3.82,-3.82,-1.81,-1.81,-1.84
77.40,2.09,3.94,2.08,3.93,-3.91,-3.83,-3.78,-1.81,-1.82,-1.84
78.17,2.05,3.90,2.07,3.91,-3.91,-3.84,-3.75,-1.86,-1.84,-1.84
78.95,2.05,3.90,2.05,3.90,-3.91,-3.85,-3.71,-1.86,-1.86,-1.84
79.74,2.05,3.90,2.04,3.89,-3.91,-3.85,-3.68,-1.86,-1.87,-1.84
80.54,2.05,3.90,2.05,3.90,-3.91,-3.86,-3.65,-1.86,-1.86,-1.84
81.35,2.05,3.90,2.07,3.91,-3.91,-3.87,-3.63,-1.86,-1.84,-1.84
82.16,2.09,3.94,2.08,3.92,-3.90,-3.88,-3.60,-1.81,-1.82,-1.84
82.98,2.09,3.94,2.08,3.93,-3.90,-3.88,-3.58,-1.81,-1.82,-1.84
83.81,2.07,3.92,2.08,3.92,-3.91,-3.89,-3.56,-1.83,-1.83,-1.84
84.65,2.05,3.90,2.06,3.90,-3.91,-3.89,-3.54,-1.86,-1.85,-1.84
85.50,2.05,3.90,2.05,3.89,-3.91,-3.89,-3.52,-1.86,-1.86,-1.84
86.35,2.05,3.90,2.05,3.90,-3.91,-3.90,-3.51,-1.86,-1.86,-1.84
87.22,2.05,3.90,2.07,3.91,-3.92,-3.90,-3.50,-1.86,-1.85,-1.84
88.09,2.09,3.94,2.08,3.92,-3.92,-3.90,-3.49,-1.83,-1.84,-1.84
88.97,2.09,3.94,2.09,3.93,-3.92,-3.90,-3.49,-1.83,-1.83,-1.84
89.86,2.09,3.94,2.10,3.94,-3.93,-3.90,-3.48,-1.83,-1.83,-1.84
90.76,2.09,3.94,2.09,3.93,-3.92,-3.90,-3.48,-1.83,-1.83,-1.84
91.66,2.09,3.94,2.08,3.93,-3.92,-3.90,-3.48,-1.82,-1.83,-1.84
92.58,2.06,3.91,2.07,3.92,-3.91,-3.90,-3.49,-1.84,-1.83,-1.84
93.51,2.05,3.90,2.05,3.89,-3.89,-3.90,-3.50,-1.84,-1.84,-1.84
94.44,2.04,3.89,2.03,3.87,-3.88,-3.89,-3.51,-1.84,-1.86,-1.84
95.39,2.00,3.85,2.01,3.86,-3.88,-3.89,-3.52,-1.87,-1.86,-1.84
96.34,2.00,3.85,2.01,3.85,-3.87,-3.89,-3.54,-1.87,-1.86,-1.84
97.30,2.02,3.87,2.02,3.86,-3.87,-3.89,-3.55,-1.85,-1.85,-1.84
98.28,2.05,3.90,2.04,3.88,-3.87,-3.88,-3.57,-1.82,-1.83,-1.84
99.26,2.05,3.90,2.05,3.90,-3.88,-3.88,-3.60,-1.83,-1.83,-1.84
100.25,2.05,3.90,2.05,3.90,-3.89,-3.88,-3.62,-1.84,-1.84,-1.84
101.25,2.05,3.90,2.05,3.89,-3.91,-3.88,-3.64,-1.86,-1.86,-1.84
102.27,2.05,3.90,2.06,3.90,-3.92,-3.87,-3.67,-1.87,-1.86,-1.84
103.29,2.07,3.92,2.07,3.92,-3.93,-3.87,-3.70,-1.85,-1.85,-1.84
104.32,2.09,3.94,2.09,3.93,-3.92,-3.87,-3.73,-1.83,-1.84,-1.84
105.37,2.09,3.94,2.10,3.94,-3.91,-3.86,-3.75,-1.82,-1.81,-1.84
106.42,2.09,3.94,2.09,3.93,-3.89,-3.86,-3.78,-1.80,-1.80,-1.84
107.48,2.06,3.91,2.05,3.90,-3.87,-3.86,-3.81,-1.81,-1.82,-1.84
108.56,2.01,3.86,2.00,3.85,-3.85,-3.85,-3.84,-1.84,-1.85,-1.84
109.64,1.93,3.78,1.95,3.79,-3.82,-3.85,-3.87,-1.89,-1.87,-1.84
110.74,1.91,3.76,1.92,3.76,-3.80,-3.84,-3.90,-1.88,-1.88,-1.84
111.85,1.91,3.76,1.91,3.75,-3.77,-3.84,-3.93,-1.86,-1.86,-1.84
112.97,1.91,3.76,1.92,3.76,-3.75,-3.83,-3.95,-1.84,-1.83,-1.84
114.10,1.91,3.76,1.91,3.75,-3.74,-3.82,-3.98,-1.82,-1.83,-1.84
115.24,1.91,3.76,1.89,3.74,-3.73,-3.82,-4.00,-1.82,-1.84,-1.84
116.39,1.86,3.71,1.88,3.72,-3.73,-3.81,-4.02,-1.87,-1.85,-1.84
117.55,1.86,3.71,1.88,3.72,-3.73,-3.80,-4.03,-1.86,-1.85,-1.84
118.73,1.88,3.73,1.88,3.72,-3.72,-3.79,-4.05,-1.84,-1.84,-1.84
119.92,1.91,3.76,1.89,3.73,-3.72,-3.78,-4.06,-1.81,-1.83,-1.84
121.12,1.87,3.72,1.88,3.73,-3.72,-3.77,-4.06,-1.85,-1.84,-1.84
122.33,1.86,3.71,1.87,3.71,-3.72,-3.76,-4.07,-1.85,-1.85,-1.84
123.55,1.86,3.71,1.86,3.70,-3.72,-3.75,-4.07,-1.85,-1.86,-1.84
124.79,1.86,3.71,1.86,3.70,-3.71,-3.73,-4.06,-1.85,-1.85,-1.84
126.03,1.86,3.71,1.87,3.71,-3.70,-3.72,-4.05,-1.84,-1.83,-1.84
127.29,1.86,3.71,1.86,3.71,-3.69,-3.71,-4.04,-1.83,-1.83,-1.84
128.57,1.86,3.71,1.85,3.69,-3.68,-3.69,-4.03,-1.81,-1.83,-1.84
129.85,1.82,3.67,1.82,3.67,-3.67,-3.68,-4.00,-1.84,-1.84,-1.84
131.15,1.79,3.64,1.80,3.64,-3.65,-3.66,-3.98,-1.86,-1.86,-1.84
132.46,1.77,3.62,1.78,3.62,-3.64,-3.64,-3.95,-1.87,-1.87,-1.84
133.79,1.77,3.62,1.77,3.61,-3.63,-3.62,-3.92,-1.86,-1.86,-1.84
135.12,1.77,3.62,1.77,3.62,-3.62,-3.60,-3.89,-1.84,-1.84,-1.84
136.48,1.77,3.62,1.77,3.62,-3.60,-3.58,-3.86,-1.83,-1.83,-1.84
137.84,1.77,3.62,1.76,3.61,-3.59,-3.56,-3.82,-1.81,-1.82,-1.84
139.22,1.74,3.59,1.74,3.58,-3.57,-3.54,-3.78,-1.83,-1.83,-1.84
140.61,1.70,3.55,1.71,3.55,-3.55,-3.52,-3.73,-1.85,-1.84,-1.84
142.02,1.67,3.52,1.68,3.52,-3.53,-3.50,-3.69,-1.86,-1.85,-1.84
143.44,1.67,3.52,1.66,3.50,-3.51,-3.48,-3.65,-1.84,-1.85,-1.84
144.87,1.63,3.48,1.64,3.48,-3.48,-3.45,-3.60,-1.85,-1.85,-1.84
146.32,1.61,3.46,1.61,3.45,-3.45,-3.43,-3.56,-1.84,-1.84,-1.84
147.78,1.58,3.43,1.58,3.43,-3.43,-3.41,-3.51,-1.84,-1.84,-1.84
149.26,1.56,3.41,1.56,3.41,-3.40,-3.39,-3.46,-1.84,-1.84,-1.84
150.75,1.54,3.39,1.54,3.38,-3.37,-3.37,-3.42,-1.83,-1.83,-1.84
152.26,1.51,3.36,1.51,3.36,-3.35,-3.35,-3.37,-1.84,-1.84,-1.84
153.78,1.49,3.34,1.48,3.32,-3.33,-3.33,-3.33,-1.84,-1.85,-1.84
155.32,1.44,3.29,1.46,3.30,-3.32,-3.31,-3.28,-1.87,-1.86,-1.84
156.88,1.44,3.29,1.44,3.29,-3.30,-3.29,-3.24,-1.86,-1.86,-1.84
158.44,1.44,3.29,1.44,3.28,-3.29,-3.28,-3.20,-1.85,-1.85,-1.84
160.03,1.44,3.29,1.45,3.29,-3.28,-3.26,-3.16,-1.84,-1.83,-1.84
161.63,1.44,3.29,1.44,3.28,-3.27,-3.25,-3.12,-1.83,-1.83,-1.84
163.24,1.44,3.29,1.43,3.27,-3.26,-3.23,-3.09,-1.82,-1.83,-1.84
164.88,1.40,3.25,1.42,3.26,-3.25,-3.22,-3.05,-1.85,-1.84,-1.84
166.53,1.39,3.24,1.40,3.24,-3.24,-3.21,-3.02,-1.85,-1.84,-1.84
168.19,1.39,3.24,1.38,3.22,-3.23,-3.20,-2.99,-1.83,-1.85,-1.84
169.87,1.35,3.20,1.37,3.21,-3.21,-3.19,-2.96,-1.86,-1.84,-1.84
171.57,1.35,3.20,1.35,3.19,-3.19,-3.18,-2.94,-1.84,-1.84,-1.84
173.29,1.35,3.20,1.33,3.17,-3.17,-3.17,-2.91,-1.82,-1.84,-1.84
175.02,1.30,3.15,1.32,3.16,-3.16,-3.16,-2.89,-1.86,-1.85,-1.84
176.77,1.30,3.15,1.30,3.15,-3.16,-3.16,-2.87,-1.86,-1.85,-1.84
178.54,1.30,3.15,1.30,3.14,-3.16,-3.15,-2.85,-1.86,-1.86,-1.84
180.32,1.30,3.15,1.30,3.14,-3.16,-3.14,-2.84,-1.85,-1.86,-1.84
182.13,1.30,3.15,1.31,3.15,-3.15,-3.13,-2.82,-1.85,-1.84,-1.84
183.95,1.31,3.16,1.32,3.17,-3.15,-3.13,-2.81,-1.84,-1.83,-1.84
185.79,1.35,3.20,1.33,3.17,-3.15,-3.12,-2.80,-1.80,-1.82,-1.84
187.65,1.32,3.17,1.32,3.16,-3.15,-3.11,-2.80,-1.82,-1.83,-1.84
189.52,1.29,3.14,1.29,3.14,-3.14,-3.10,-2.79,-1.85,-1.85,-1.84
191.42,1.25,3.10,1.26,3.11,-3.13,-3.10,-2.79,-1.88,-1.87,-1.84
193.33,1.25,3.10,1.25,3.10,-3.11,-3.09,-2.79,-1.86,-1.86,-1.84
195.27,1.25,3.10,1.25,3.10,-3.09,-3.08,-2.79,-1.84,-1.84,-1.84
197.22,1.25,3.10,1.25,3.09,-3.07,-3.07,-2.79,-1.82,-1.82,-1.84
199.19,1.23,3.08,1.22,3.07,-3.05,-3.06,-2.80,-1.81,-1.82,-1.84
201.18,1.18,3.03,1.19,3.03,-3.02,-3.05,-2.80,-1.84,-1.84,-1.84
203.19,1.14,2.99,1.15,2.99,-2.99,-3.03,-2.81,-1.85,-1.84,-1.84
205.23,1.11,2.96,1.12,2.96,-2.97,-3.02,-2.82,-1.86,-1.85,-1.84
207.28,1.11,2.96,1.10,2.94,-2.94,-3.01,-2.82,-1.83,-1.85,-1.84
209.35,1.07,2.92,1.07,2.91,-2.93,-2.99,-2.83,-1.85,-1.86,-1.84
211.44,1.04,2.89,1.05,2.89,-2.91,-2.98,-2.84,-1.87,-1.86,-1.84
213.56,1.02,2.87,1.03,2.88,-2.90,-2.97,-2.85,-1.88,-1.86,-1.84
215.69,1.04,2.89,1.05,2.89,-2.89,-2.95,-2.86,-1.85,-1.84,-1.84
217.85,1.07,2.92,1.06,2.90,-2.88,-2.93,-2.87,-1.81,-1.82,-1.84
220.03,1.07,2.92,1.06,2.90,-2.88,-2.92,-2.89,-1.80,-1.82,-1.84
222.23,1.02,2.87,1.03,2.88,-2.87,-2.90,-2.89,-1.85,-1.84,-1.84
224.45,1.00,2.85,1.00,2.84,-2.86,-2.88,-2.90,-1.86,-1.86,-1.84
226.70,0.97,2.82,0.98,2.82,-2.84,-2.86,-2.91,-1.87,-1.86,-1.84
228.96,0.97,2.82,0.98,2.82,-2.81,-2.84,-2.92,-1.84,-1.84,-1.84
231.25,0.97,2.82,0.97,2.81,-2.78,-2.82,-2.92,-1.81,-1.81,-1.84
233.57,0.96,2.81,0.94,2.78,-2.76,-2.80,-2.93,-1.79,-1.82,-1.84
235.90,0.88,2.73,0.88,2.72,-2.73,-2.78,-2.93,-1.85,-1.85,-1.84
238.26,0.80,2.65,0.83,2.67,-2.70,-2.76,-2.93,-1.90,-1.87,-1.84
240.64,0.79,2.64,0.80,2.64,-2.67,-2.74,-2.93,-1.88,-1.87,-1.84
243.05,0.81,2.66,0.79,2.64,-2.65,-2.72,-2.92,-1.83,-1.85,-1.84
245.48,0.79,2.64,0.79,2.64,-2.62,-2.70,-2.92,-1.82,-1.82,-1.84
247.93,0.77,2.62,0.77,2.61,-2.59,-2.68,-2.91,-1.82,-1.82,-1.84
250.41,0.74,2.59,0.74,2.58,-2.57,-2.65,-2.90,-1.83,-1.84,-1.84
252.92,0.69,2.54,0.71,2.55,-2.56,-2.63,-2.88,-1.86,-1.85,-1.84
255.45,0.69,2.54,0.68,2.53,-2.54,-2.61,-2.86,-1.85,-1.86,-1.84
258.00,0.67,2.52,0.67,2.51,-2.53,-2.59,-2.84,-1.85,-1.86,-1.84
260.58,0.65,2.50,0.66,2.50,-2.51,-2.56,-2.82,-1.86,-1.85,-1.84
263.19,0.65,2.50,0.65,2.50,-2.49,-2.54,-2.80,-1.84,-1.84,-1.84
265.82,0.65,2.50,0.64,2.49,-2.48,-2.52,-2.77,-1.83,-1.84,-1.84
268.48,0.63,2.48,0.63,2.47,-2.47,-2.50,-2.74,-1.83,-1.83,-1.84
271.16,0.60,2.45,0.61,2.46,-2.45,-2.47,-2.71,-1.85,-1.83,-1.84
273.87,0.60,2.45,0.59,2.44,-2.43,-2.45,-2.68,-1.83,-1.84,-1.84
276.61,0.57,2.42,0.57,2.41,-2.41,-2.43,-2.64,-1.84,-1.84,-1.84
279.38,0.54,2.39,0.55,2.39,-2.39,-2.40,-2.61,-1.85,-1.84,-1.84
282.17,0.51,2.36,0.52,2.36,-2.37,-2.38,-2.57,-1.86,-1.85,-1.84
284.99,0.51,2.36,0.50,2.34,-2.35,-2.36,-2.54,-1.83,-1.85,-1.84
287.84,0.47,2.32,0.48,2.33,-2.33,-2.33,-2.50,-1.85,-1.84,-1.84
290.72,0.46,2.31,0.47,2.31,-2.31,-2.31,-2.46,-1.84,-1.84,-1.84
293.63,0.46,2.31,0.45,2.29,-2.29,-2.29,-2.42,-1.83,-1.84,-1.84
296.57,0.42,2.27,0.43,2.28,-2.27,-2.26,-2.38,-1.85,-1.84,-1.84
299.53,0.41,2.26,0.42,2.26,-2.26,-2.24,-2.34,-1.85,-1.84,-1.84
302.53,0.41,2.26,0.40,2.24,-2.25,-2.22,-2.30,-1.84,-1.85,-1.84
305.55,0.38,2.23,0.39,2.23,-2.24,-2.20,-2.26,-1.86,-1.85,-1.84
308.61,0.37,2.22,0.38,2.22,-2.22,-2.18,-2.22,-1.85,-1.84,-1.84
311.69,0.37,2.22,0.37,2.21,-2.21,-2.15,-2.18,-1.83,-1.84,-1.84
314.81,0.37,2.22,0.36,2.20,-2.19,-2.13,-2.15,-1.81,-1.83,-1.84
317.96,0.32,2.17,0.34,2.18,-2.16,-2.11,-2.11,-1.84,-1.83,-1.84
321.14,0.31,2.16,0.30,2.15,-2.14,-2.09,-2.08,-1.83,-1.84,-1.84
324.35,0.27,2.12,0.27,2.11,-2.12,-2.07,-2.04,-1.85,-1.85,-1.84
327.59,0.23,2.08,0.25,2.09,-2.10,-2.05,-2.01,-1.87,-1.86,-1.84
330.87,0.23,2.08,0.22,2.06,-2.08,-2.03,-1.97,-1.85,-1.86,-1.84
334.18,0.20,2.05,0.21,2.06,-2.07,-2.01,-1.94,-1.86,-1.85,-1.84
337.52,0.20,2.05,0.21,2.05,-2.05,-1.98,-1.91,-1.85,-1.84,-1.84
340.90,0.23,2.08,0.20,2.05,-2.04,-1.97,-1.89,-1.81,-1.84,-1.84
344.30,0.18,2.03,0.20,2.05,-2.03,-1.95,-1.86,-1.85,-1.83,-1.84
347.75,0.18,2.03,0.19,2.03,-2.02,-1.93,-1.83,-1.84,-1.83,-1.84
351.23,0.18,2.03,0.16,2.01,-2.00,-1.91,-1.81,-1.82,-1.84,-1.84
354.74,0.13,1.98,0.15,1.99,-1.98,-1.89,-1.78,-1.85,-1.83,-1.84
358.28,0.13,1.98,0.12,1.96,-1.96,-1.87,-1.76,-1.83,-1.84,-1.84
361.87,0.09,1.94,0.09,1.93,-1.94,-1.85,-1.74,-1.85,-1.85,-1.84
365.49,0.05,1.90,0.06,1.91,-1.92,-1.83,-1.72,-1.87,-1.86,-1.84
369.14,0.04,1.89,0.05,1.89,-1.90,-1.82,-1.70,-1.86,-1.85,-1.84
372.83,0.04,1.89,0.04,1.88,-1.88,-1.80,-1.69,-1.84,-1.84,-1.84
376.56,0.04,1.89,0.03,1.88,-1.87,-1.78,-1.67,-1.83,-1.84,-1.84
380.33,0.02,1.87,0.02,1.86,-1.86,-1.77,-1.66,-1.83,-1.84,-1.84
384.13,-0.01,1.84,0.00,1.85,-1.85,-1.75,-1.65,-1.86,-1.84,-1.84
387.97,-0.01,1.84,-0.00,1.84,-1.84,-1.73,-1.63,-1.85,-1.84,-1.84
391.85,-0.01,1.84,-0.01,1.83,-1.83,-1.72,-1.62,-1.84,-1.84,-1.84
395.77,-0.01,1.84,-0.02,1.82,-1.82,-1.70,-1.61,-1.83,-1.84,-1.84
399.73,-0.05,1.80,-0.03,1.81,-1.81,-1.69,-1.60,-1.86,-1.84,-1.84
403.72,-0.05,1.80,-0.04,1.80,-1.80,-1.67,-1.60,-1.85,-1.84,-1.84
407.76,-0.05,1.80,-0.05,1.79,-1.79,-1.66,-1.59,-1.84,-1.84,-1.84
411.84,-0.05,1.80,-0.06,1.78,-1.78,-1.65,-1.58,-1.83,-1.84,-1.84
415.96,-0.10,1.75,-0.08,1.76,-1.77,-1.63,-1.58,-1.86,-1.85,-1.84
420.12,-0.10,1.75,-0.09,1.75,-1.75,-1.62,-1.58,-1.85,-1.84,-1.84
424.32,-0.10,1.75,-0.10,1.74,-1.74,-1.61,-1.57,-1.83,-1.84,-1.84
428.56,-0.10,1.75,-0.11,1.74,-1.72,-1.60,-1.57,-1.82,-1.83,-1.84
432.85,-0.13,1.72,-0.13,1.71,-1.71,-1.58,-1.57,-1.83,-1.83,-1.84
437.18,-0.16,1.69,-0.16,1.69,-1.69,-1.57,-1.56,-1.85,-1.85,-1.84
441.55,-0.19,1.66,-0.18,1.66,-1.68,-1.56,-1.56,-1.87,-1.86,-1.84
445.96,-0.19,1.66,-0.19,1.65,-1.67,-1.55,-1.56,-1.86,-1.86,-1.84
450.42,-0.19,1.66,-0.19,1.65,-1.66,-1.54,-1.56,-1.85,-1.85,-1.84
454.93,-0.19,1.66,-0.18,1.66,-1.65,-1.53,-1.55,-1.84,-1.83,-1.84
