frequency,raw,error,smoothed,error_smoothed,equalization,parametric_eq,fixed_band_eq,equalized_raw,equalized_smoothed,target
20.00,2.02,-0.45,2.02,-0.45,0.46,0.54,-0.59,2.47,2.47,2.46
20.20,2.08,-0.43,2.07,-0.43,0.44,0.48,-0.61,2.51,2.51,2.50
20.40,2.14,-0.41,2.13,-0.41,0.41,0.42,-0.62,2.55,2.54,2.54
20.61,2.19,-0.37,2.19,-0.38,0.38,0.36,-0.64,2.57,2.57,2.56
20.81,2.26,-0.35,2.25,-0.35,0.34,0.30,-0.66,2.59,2.59,2.60
21.02,2.32,-0.33,2.32,-0.31,0.29,0.24,-0.68,2.61,2.61,2.64
21.23,2.40,-0.26,2.40,-0.26,0.24,0.18,-0.70,2.64,2.64,2.65
21.44,2.49,-0.19,2.48,-0.19,0.18,0.12,-0.71,2.67,2.66,2.67
21.66,2.56,-0.12,2.57,-0.11,0.11,0.06,-0.73,2.67,2.68,2.68
21.87,2.66,-0.02,2.65,-0.03,0.03,0.00,-0.75,2.69,2.68,2.68
22.09,2.74,0.05,2.74,0.05,-0.05,-0.06,-0.78,2.68,2.68,2.69
22.31,2.82,0.13,2.82,0.13,-0.14,-0.12,-0.80,2.68,2.68,2.69
22.54,2.90,0.21,2.91,0.22,-0.22,-0.17,-0.82,2.69,2.69,2.69
22.76,2.99,0.31,2.99,0.31,-0.29,-0.23,-0.84,2.70,2.70,2.68
22.99,3.07,0.40,3.05,0.38,-0.35,-0.29,-0.86,2.72,2.70,2.67
23.22,3.09,0.42,3.09,0.43,-0.40,-0.35,-0.89,2.69,2.69,2.67
23.45,3.12,0.46,3.12,0.46,-0.45,-0.40,-0.91,2.67,2.67,2.66
23.69,3.14,0.49,3.14,0.48,-0.49,-0.46,-0.94,2.65,2.64,2.66
23.92,3.17,0.51,3.17,0.51,-0.54,-0.51,-0.96,2.63,2.64,2.66
24.16,3.22,0.55,3.22,0.56,-0.58,-0.57,-0.99,2.63,2.64,2.67
24.40,3.29,0.62,3.28,0.62,-0.63,-0.62,-1.01,2.65,2.65,2.67
24.65,3.34,0.69,3.34,0.69,-0.69,-0.68,-1.04,2.65,2.65,2.66
24.89,3.41,0.75,3.41,0.75,-0.75,-0.73,-1.07,2.65,2.66,2.65
25.14,3.48,0.82,3.47,0.82,-0.82,-0.79,-1.09,2.66,2.65,2.65
25.39,3.54,0.88,3.54,0.89,-0.88,-0.84,-1.12,2.65,2.65,2.65
25.65,3.60,0.95,3.60,0.96,-0.95,-0.89,-1.15,2.65,2.66,2.64
25.91,3.66,1.03,3.66,1.02,-1.00,-0.94,-1.18,2.66,2.65,2.63
26.16,3.71,1.07,3.70,1.07,-1.05,-1.00,-1.20,2.65,2.65,2.63
26.43,3.73,1.10,3.74,1.11,-1.10,-1.05,-1.23,2.63,2.64,2.63
26.69,3.77,1.14,3.77,1.14,-1.15,-1.10,-1.26,2.62,2.62,2.63
26.96,3.80,1.18,3.80,1.18,-1.19,-1.15,-1.29,2.60,2.61,2.62
27.23,3.84,1.23,3.84,1.23,-1.24,-1.20,-1.32,2.60,2.60,2.62
27.50,3.90,1.28,3.89,1.28,-1.29,-1.25,-1.34,2.60,2.60,2.62
27.77,3.95,1.34,3.94,1.34,-1.34,-1.29,-1.37,2.60,2.60,2.61
28.05,4.00,1.39,4.00,1.39,-1.39,-1.34,-1.40,2.60,2.60,2.61
28.33,4.05,1.45,4.05,1.45,-1.45,-1.39,-1.42,2.60,2.60,2.59
28.62,4.10,1.51,4.10,1.51,-1.50,-1.44,-1.45,2.61,2.61,2.59
28.90,4.16,1.56,4.15,1.56,-1.54,-1.48,-1.48,2.61,2.61,2.59
29.19,4.20,1.60,4.19,1.60,-1.59,-1.53,-1.50,2.61,2.60,2.59
29.48,4.22,1.62,4.22,1.62,-1.63,-1.57,-1.52,2.59,2.59,2.60
29.78,4.25,1.66,4.25,1.65,-1.66,-1.62,-1.55,2.58,2.59,2.59
30.08,4.27,1.68,4.27,1.68,-1.69,-1.66,-1.57,2.58,2.58,2.60
30.38,4.30,1.73,4.30,1.72,-1.73,-1.70,-1.59,2.58,2.58,2.58
30.68,4.34,1.76,4.34,1.76,-1.76,-1.75,-1.61,2.58,2.58,2.58
30.99,4.36,1.80,4.37,1.80,-1.79,-1.79,-1.63,2.57,2.57,2.56
31.30,4.39,1.83,4.39,1.83,-1.83,-1.83,-1.64,2.57,2.56,2.56
31.61,4.43,1.86,4.42,1.87,-1.87,-1.87,-1.66,2.56,2.55,2.56
31.93,4.45,1.91,4.45,1.91,-1.91,-1.91,-1.68,2.53,2.54,2.54
32.24,4.48,1.95,4.48,1.95,-1.95,-1.95,-1.69,2.52,2.53,2.53
32.57,4.51,1.99,4.51,1.99,-2.00,-1.99,-1.70,2.52,2.51,2.53
32.89,4.55,2.03,4.55,2.03,-2.04,-2.03,-1.72,2.51,2.51,2.51
33.22,4.58,2.08,4.58,2.08,-2.08,-2.06,-1.73,2.50,2.51,2.49
33.55,4.62,2.12,4.61,2.13,-2.11,-2.10,-1.74,2.50,2.50,2.49
33.89,4.65,2.18,4.64,2.17,-2.15,-2.13,-1.75,2.50,2.49,2.47
34.23,4.66,2.19,4.65,2.19,-2.18,-2.17,-1.76,2.47,2.47,2.47
34.57,4.66,2.21,4.65,2.21,-2.22,-2.20,-1.77,2.44,2.44,2.45
34.92,4.66,2.22,4.66,2.22,-2.25,-2.24,-1.78,2.41,2.41,2.43
35.27,4.68,2.24,4.68,2.26,-2.27,-2.27,-1.79,2.40,2.41,2.43
35.62,4.72,2.31,4.71,2.30,-2.29,-2.30,-1.80,2.42,2.42,2.41
35.97,4.75,2.35,4.74,2.33,-2.31,-2.33,-1.81,2.43,2.42,2.40
36.33,4.75,2.35,4.75,2.36,-2.33,-2.36,-1.82,2.42,2.42,2.39
36.70,4.75,2.36,4.75,2.37,-2.35,-2.39,-1.83,2.39,2.40,2.38
37.06,4.75,2.38,4.74,2.37,-2.38,-2.42,-1.84,2.37,2.37,2.37
37.43,4.75,2.37,4.74,2.38,-2.40,-2.45,-1.85,2.34,2.34,2.38
37.81,4.76,2.39,4.76,2.40,-2.43,-2.48,-1.86,2.32,2.33,2.36
38.19,4.79,2.43,4.80,2.44,-2.47,-2.51,-1.88,2.32,2.33,2.35
38.57,4.86,2.50,4.85,2.50,-2.50,-2.53,-1.89,2.36,2.36,2.36
38.95,4.92,2.57,4.90,2.55,-2.53,-2.56,-1.91,2.39,2.37,2.34
39.34,4.94,2.59,4.93,2.59,-2.56,-2.58,-1.92,2.37,2.37,2.34
39.74,4.94,2.61,4.94,2.61,-2.59,-2.61,-1.94,2.34,2.35,2.33
40.14,4.95,2.62,4.94,2.62,-2.62,-2.63,-1.96,2.33,2.33,2.32
40.54,4.95,2.62,4.94,2.62,-2.63,-2.65,-1.98,2.31,2.31,2.32
40.94,4.95,2.63,4.95,2.63,-2.64,-2.67,-2.00,2.30,2.30,2.32
41.35,4.95,2.64,4.95,2.64,-2.65,-2.69,-2.02,2.30,2.30,2.30
41.76,4.95,2.66,4.95,2.65,-2.65,-2.72,-2.05,2.29,2.29,2.29
42.18,4.95,2.66,4.95,2.66,-2.66,-2.74,-2.07,2.28,2.28,2.28
42.60,4.95,2.67,4.95,2.67,-2.68,-2.75,-2.10,2.27,2.27,2.27
43.03,4.95,2.68,4.95,2.69,-2.69,-2.77,-2.13,2.25,2.25,2.27
43.46,4.95,2.70,4.95,2.70,-2.71,-2.79,-2.16,2.24,2.24,2.24
43.90,4.95,2.73,4.95,2.72,-2.73,-2.81,-2.19,2.22,2.22,2.22
44.33,4.95,2.74,4.95,2.75,-2.75,-2.83,-2.23,2.20,2.20,2.20
44.78,4.95,2.77,4.95,2.77,-2.76,-2.84,-2.26,2.18,2.18,2.18
45.23,4.95,2.78,4.95,2.78,-2.78,-2.86,-2.30,2.17,2.17,2.16
45.68,4.95,2.80,4.95,2.80,-2.79,-2.87,-2.34,2.15,2.15,2.15
46.13,4.95,2.82,4.95,2.81,-2.81,-2.89,-2.38,2.14,2.14,2.13
46.60,4.95,2.82,4.95,2.82,-2.82,-2.90,-2.42,2.13,2.13,2.12
47.06,4.95,2.83,4.95,2.83,-2.83,-2.91,-2.47,2.11,2.11,2.12
47.53,4.95,2.83,4.95,2.83,-2.84,-2.93,-2.51,2.10,2.10,2.11
48.01,4.95,2.84,4.95,2.84,-2.85,-2.94,-2.56,2.09,2.09,2.10
48.49,4.95,2.86,4.95,2.86,-2.86,-2.95,-2.61,2.09,2.09,2.09
48.97,4.95,2.87,4.95,2.87,-2.87,-2.96,-2.66,2.08,2.08,2.07
49.46,4.95,2.88,4.95,2.89,-2.88,-2.98,-2.71,2.07,2.07,2.06
49.96,4.95,2.90,4.95,2.89,-2.89,-2.99,-2.76,2.06,2.06,2.05
50.46,4.95,2.89,4.95,2.89,-2.89,-3.00,-2.81,2.05,2.05,2.06
50.96,4.95,2.90,4.95,2.90,-2.90,-3.01,-2.86,2.05,2.05,2.05
51.47,4.95,2.90,4.95,2.90,-2.90,-3.02,-2.92,2.04,2.04,2.04
51.99,4.95,2.91,4.95,2.91,-2.91,-3.03,-2.97,2.04,2.04,2.03
52.51,4.95,2.91,4.95,2.91,-2.91,-3.04,-3.03,2.03,2.03,2.03
53.03,4.95,2.91,4.95,2.92,-2.92,-3.05,-3.08,2.03,2.03,2.03
53.56,4.95,2.92,4.95,2.92,-2.92,-3.05,-3.14,2.02,2.02,2.02
54.10,4.95,2.93,4.95,2.93,-2.93,-3.06,-3.19,2.02,2.02,2.01
54.64,4.95,2.93,4.95,2.94,-2.93,-3.07,-3.24,2.01,2.01,2.01
55.18,4.95,2.94,4.95,2.94,-2.94,-3.08,-3.29,2.00,2.00,2.00
55.74,4.95,2.95,4.95,2.95,-2.95,-3.09,-3.35,1.99,1.99,1.99
56.29,4.95,2.96,4.95,2.96,-2.96,-3.10,-3.39,1.98,1.98,1.99
56.86,4.95,2.98,4.95,2.97,-2.97,-3.11,-3.44,1.97,1.97,1.97
57.42,4.95,2.99,4.95,2.99,-2.98,-3.11,-3.49,1.96,1.96,1.96
58.00,4.95,3.00,4.95,3.00,-3.00,-3.12,-3.53,1.95,1.95,1.94
58.58,4.95,3.01,4.95,3.01,-3.01,-3.13,-3.57,1.93,1.93,1.93
59.16,4.95,3.03,4.95,3.03,-3.03,-3.14,-3.61,1.91,1.91,1.92
59.76,4.95,3.05,4.95,3.05,-3.06,-3.15,-3.64,1.89,1.89,1.89
60.35,4.95,3.08,4.95,3.08,-3.08,-3.16,-3.67,1.86,1.86,1.87
60.96,4.95,3.10,4.95,3.11,-3.12,-3.17,-3.70,1.83,1.83,1.84
61.57,4.95,3.15,4.95,3.14,-3.15,-3.18,-3.72,1.79,1.79,1.80
62.18,4.95,3.18,4.95,3.18,-3.19,-3.19,-3.74,1.76,1.76,1.76
62.80,4.95,3.22,4.95,3.22,-3.22,-3.20,-3.76,1.73,1.73,1.73
63.43,4.95,3.25,4.95,3.26,-3.24,-3.21,-3.77,1.71,1.71,1.69
64.07,4.95,3.29,4.94,3.28,-3.26,-3.22,-3.78,1.69,1.68,1.65
64.71,4.92,3.30,4.91,3.29,-3.27,-3.23,-3.79,1.65,1.65,1.62
65.35,4.88,3.29,4.87,3.29,-3.28,-3.24,-3.79,1.60,1.60,1.59
66.01,4.83,3.28,4.82,3.27,-3.28,-3.25,-3.79,1.54,1.54,1.55
66.67,4.78,3.26,4.78,3.27,-3.29,-3.26,-3.79,1.48,1.49,1.51
67.33,4.75,3.26,4.75,3.28,-3.30,-3.27,-3.78,1.44,1.45,1.48
68.01,4.75,3.30,4.74,3.30,-3.32,-3.29,-3.77,1.43,1.42,1.44
68.69,4.75,3.34,4.74,3.34,-3.35,-3.30,-3.76,1.40,1.40,1.40
69.37,4.75,3.39,4.75,3.39,-3.38,-3.31,-3.75,1.37,1.37,1.36
70.07,4.75,3.43,4.75,3.42,-3.42,-3.33,-3.74,1.33,1.33,1.32
70.77,4.75,3.46,4.75,3.46,-3.46,-3.34,-3.72,1.28,1.28,1.29
71.48,4.75,3.50,4.75,3.51,-3.50,-3.35,-3.70,1.24,1.25,1.24
72.19,4.75,3.55,4.75,3.55,-3.54,-3.37,-3.69,1.21,1.21,1.20
72.91,4.75,3.60,4.74,3.59,-3.57,-3.39,-3.67,1.17,1.16,1.14
73.64,4.72,3.61,4.71,3.61,-3.60,-3.40,-3.65,1.11,1.11,1.10
74.38,4.69,3.63,4.69,3.63,-3.64,-3.42,-3.64,1.05,1.05,1.06
75.12,4.66,3.65,4.66,3.65,-3.67,-3.44,-3.62,0.99,1.00,1.01
75.87,4.66,3.68,4.65,3.68,-3.70,-3.46,-3.61,0.96,0.96,0.97
76.63,4.66,3.72,4.65,3.72,-3.72,-3.47,-3.59,0.93,0.93,0.94
77.40,4.66,3.76,4.66,3.76,-3.75,-3.49,-3.58,0.90,0.90,0.90
78.17,4.66,3.79,4.66,3.79,-3.78,-3.51,-3.57,0.87,0.87,0.86
78.95,4.66,3.82,4.66,3.82,-3.82,-3.53,-3.56,0.84,0.84,0.83
79.74,4.66,3.85,4.66,3.85,-3.85,-3.55,-3.55,0.81,0.81,0.80
80.54,4.66,3.88,4.66,3.88,-3.88,-3.57,-3.55,0.77,0.77,0.77
81.35,4.66,3.91,4.66,3.91,-3.91,-3.60,-3.54,0.74,0.74,0.74
82.16,4.66,3.94,4.66,3.94,-3.94,-3.62,-3.54,0.71,0.71,0.71
82.98,4.66,3.96,4.66,3.97,-3.97,-3.64,-3.54,0.68,0.68,0.69
83.81,4.66,4.01,4.66,4.00,-4.00,-3.66,-3.55,0.65,0.65,0.65
84.65,4.66,4.04,4.66,4.03,-4.03,-3.69,-3.55,0.62,0.62,0.62
85.50,4.66,4.06,4.66,4.06,-4.07,-3.71,-3.56,0.59,0.59,0.60
86.35,4.66,4.09,4.66,4.09,-4.10,-3.74,-3.57,0.56,0.56,0.56
87.22,4.66,4.13,4.66,4.13,-4.13,-3.76,-3.59,0.52,0.52,0.53
88.09,4.66,4.16,4.66,4.16,-4.16,-3.79,-3.60,0.50,0.50,0.49
88.97,4.66,4.19,4.66,4.19,-4.18,-3.81,-3.62,0.47,0.48,0.47
89.86,4.66,4.22,4.66,4.22,-4.21,-3.84,-3.64,0.45,0.45,0.43
90.76,4.66,4.26,4.64,4.24,-4.23,-3.86,-3.67,0.43,0.41,0.40
91.66,4.61,4.23,4.61,4.24,-4.24,-3.89,-3.70,0.36,0.37,0.37
92.58,4.58,4.24,4.59,4.24,-4.26,-3.91,-3.73,0.32,0.33,0.34
93.51,4.57,4.25,4.57,4.26,-4.27,-3.94,-3.76,0.30,0.30,0.31
94.44,4.57,4.28,4.56,4.28,-4.27,-3.97,-3.80,0.29,0.29,0.28
95.39,4.56,4.30,4.54,4.29,-4.28,-3.99,-3.83,0.28,0.26,0.26
96.34,4.52,4.29,4.51,4.29,-4.28,-4.02,-3.88,0.23,0.23,0.22
97.30,4.46,4.26,4.47,4.28,-4.28,-4.05,-3.92,0.17,0.19,0.19
98.28,4.45,4.28,4.45,4.28,-4.28,-4.07,-3.96,0.17,0.17,0.17
99.26,4.44,4.29,4.43,4.29,-4.28,-4.10,-4.01,0.16,0.15,0.15
100.25,4.42,4.30,4.40,4.28,-4.27,-4.13,-4.06,0.15,0.13,0.12
101.25,4.36,4.26,4.35,4.26,-4.26,-4.15,-4.11,0.09,0.09,0.09
102.27,4.29,4.22,4.31,4.25,-4.26,-4.18,-4.16,0.02,0.04,0.06
103.29,4.28,4.26,4.27,4.25,-4.26,-4.20,-4.21,0.01,0.01,0.02
104.32,4.26,4.26,4.25,4.26,-4.27,-4.23,-4.27,-0.01,-0.02,-0.00
105.37,4.24,4.28,4.23,4.27,-4.27,-4.25,-4.32,-0.04,-0.04,-0.04
106.42,4.21,4.28,4.21,4.28,-4.28,-4.28,-4.37,-0.07,-0.07,-0.07
107.48,4.19,4.29,4.19,4.29,-4.28,-4.30,-4.43,-0.09,-0.09,-0.11
108.56,4.16,4.30,4.16,4.31,-4.28,-4.32,-4.48,-0.13,-0.12,-0.15
109.64,4.14,4.32,4.12,4.30,-4.29,-4.35,-4.54,-0.15,-0.16,-0.18
110.74,4.09,4.30,4.08,4.29,-4.29,-4.37,-4.59,-0.21,-0.21,-0.21
111.85,4.02,4.26,4.03,4.28,-4.30,-4.39,-4.64,-0.28,-0.26,-0.24
112.97,4.00,4.28,4.00,4.28,-4.30,-4.41,-4.68,-0.31,-0.30,-0.29
114.10,4.00,4.30,3.99,4.30,-4.32,-4.43,-4.73,-0.32,-0.33,-0.31
115.24,3.99,4.33,3.99,4.33,-4.34,-4.45,-4.77,-0.35,-0.35,-0.34
116.39,4.00,4.37,3.99,4.36,-4.36,-4.47,-4.81,-0.36,-0.37,-0.37
117.55,4.00,4.39,3.99,4.39,-4.39,-4.49,-4.85,-0.39,-0.39,-0.40
118.73,4.00,4.42,4.00,4.42,-4.41,-4.50,-4.88,-0.42,-0.41,-0.42
119.92,4.01,4.43,4.01,4.44,-4.43,-4.52,-4.91,-0.43,-0.43,-0.43
121.12,4.02,4.47,4.02,4.47,-4.45,-4.53,-4.93,-0.44,-0.43,-0.45
122.33,4.03,4.50,4.02,4.48,-4.47,-4.55,-4.95,-0.44,-0.45,-0.47
123.55,4.02,4.49,4.00,4.48,-4.48,-4.56,-4.96,-0.46,-0.48,-0.48
124.79,3.97,4.47,3.98,4.47,-4.49,-4.57,-4.97,-0.52,-0.51,-0.50
126.03,3.95,4.46,3.96,4.47,-4.50,-4.58,-4.98,-0.55,-0.54,-0.51
127.29,3.96,4.48,3.95,4.48,-4.51,-4.59,-4.97,-0.55,-0.56,-0.53
128.57,3.97,4.52,3.96,4.51,-4.51,-4.60,-4.97,-0.54,-0.55,-0.55
129.85,3.97,4.53,3.97,4.54,-4.51,-4.61,-4.96,-0.55,-0.54,-0.56
131.15,3.98,4.55,3.97,4.55,-4.52,-4.62,-4.94,-0.54,-0.55,-0.58
132.46,3.97,4.55,3.95,4.54,-4.53,-4.62,-4.92,-0.56,-0.58,-0.59
133.79,3.92,4.51,3.92,4.52,-4.53,-4.63,-4.90,-0.62,-0.61,-0.59
135.12,3.89,4.51,3.90,4.51,-4.54,-4.63,-4.87,-0.65,-0.64,-0.62
136.48,3.90,4.52,3.89,4.51,-4.54,-4.64,-4.84,-0.64,-0.65,-0.62
137.84,3.90,4.54,3.90,4.54,-4.53,-4.64,-4.81,-0.64,-0.64,-0.64
139.22,3.90,4.57,3.90,4.56,-4.53,-4.65,-4.77,-0.64,-0.63,-0.67
140.61,3.90,4.58,3.88,4.56,-4.53,-4.65,-4.73,-0.64,-0.65,-0.69
142.02,3.85,4.53,3.85,4.55,-4.54,-4.65,-4.70,-0.69,-0.68,-0.69
143.44,3.82,4.52,3.82,4.53,-4.55,-4.66,-4.65,-0.73,-0.72,-0.70
144.87,3.81,4.54,3.81,4.53,-4.56,-4.66,-4.61,-0.75,-0.75,-0.73
146.32,3.81,4.56,3.80,4.56,-4.58,-4.66,-4.57,-0.77,-0.78,-0.76
147.78,3.81,4.59,3.80,4.59,-4.61,-4.67,-4.53,-0.80,-0.80,-0.78
149.26,3.81,4.62,3.81,4.63,-4.64,-4.67,-4.49,-0.83,-0.83,-0.82
150.75,3.81,4.68,3.81,4.67,-4.68,-4.68,-4.45,-0.88,-0.87,-0.87
152.26,3.81,4.72,3.81,4.73,-4.72,-4.68,-4.41,-0.92,-0.91,-0.92
153.78,3.81,4.78,3.80,4.78,-4.77,-4.69,-4.37,-0.96,-0.96,-0.97
155.32,3.80,4.83,3.78,4.81,-4.80,-4.69,-4.33,-1.01,-1.02,-1.03
156.88,3.74,4.82,3.74,4.84,-4.82,-4.70,-4.29,-1.09,-1.08,-1.09
158.44,3.69,4.84,3.69,4.84,-4.83,-4.70,-4.26,-1.14,-1.14,-1.16
160.03,3.62,4.84,3.62,4.84,-4.82,-4.71,-4.23,-1.20,-1.20,-1.22
161.63,3.56,4.83,3.55,4.82,-4.80,-4.71,-4.20,-1.24,-1.25,-1.27
163.24,3.47,4.81,3.46,4.78,-4.77,-4.72,-4.17,-1.30,-1.31,-1.33
164.88,3.36,4.72,3.37,4.73,-4.75,-4.72,-4.15,-1.39,-1.38,-1.36
166.53,3.29,4.69,3.29,4.69,-4.72,-4.73,-4.13,-1.43,-1.43,-1.40
168.19,3.23,4.65,3.23,4.66,-4.70,-4.73,-4.11,-1.47,-1.46,-1.43
169.87,3.21,4.66,3.20,4.66,-4.68,-4.74,-4.09,-1.47,-1.47,-1.46
171.57,3.20,4.67,3.19,4.66,-4.67,-4.74,-4.08,-1.47,-1.48,-1.47
173.29,3.19,4.67,3.19,4.67,-4.66,-4.75,-4.07,-1.47,-1.47,-1.48
175.02,3.19,4.67,3.18,4.68,-4.66,-4.75,-4.07,-1.47,-1.47,-1.49
176.77,3.19,4.68,3.18,4.68,-4.66,-4.75,-4.06,-1.48,-1.48,-1.49
178.54,3.19,4.69,3.18,4.68,-4.67,-4.76,-4.07,-1.48,-1.49,-1.50
180.32,3.19,4.67,3.18,4.67,-4.68,-4.76,-4.07,-1.49,-1.49,-1.49
182.13,3.19,4.67,3.19,4.67,-4.69,-4.76,-4.08,-1.50,-1.50,-1.48
183.95,3.20,4.68,3.20,4.68,-4.70,-4.76,-4.08,-1.50,-1.50,-1.49
185.79,3.22,4.70,3.21,4.70,-4.72,-4.76,-4.10,-1.50,-1.50,-1.49
187.65,3.23,4.73,3.23,4.73,-4.73,-4.76,-4.11,-1.51,-1.50,-1.50
189.52,3.25,4.75,3.24,4.75,-4.75,-4.76,-4.13,-1.50,-1.50,-1.51
191.42,3.26,4.77,3.26,4.78,-4.76,-4.76,-4.15,-1.50,-1.50,-1.52
193.33,3.27,4.80,3.27,4.80,-4.77,-4.76,-4.18,-1.51,-1.50,-1.53
195.27,3.28,4.82,3.26,4.81,-4.78,-4.76,-4.20,-1.51,-1.52,-1.54
197.22,3.24,4.80,3.23,4.79,-4.79,-4.76,-4.23,-1.56,-1.57,-1.56
199.19,3.19,4.77,3.19,4.77,-4.80,-4.76,-4.26,-1.62,-1.61,-1.59
201.18,3.15,4.74,3.17,4.77,-4.81,-4.76,-4.29,-1.66,-1.64,-1.60
203.19,3.18,4.78,3.18,4.79,-4.81,-4.76,-4.33,-1.63,-1.63,-1.61
205.23,3.22,4.85,3.20,4.83,-4.80,-4.76,-4.36,-1.59,-1.61,-1.64
207.28,3.22,4.85,3.20,4.84,-4.80,-4.76,-4.40,-1.58,-1.60,-1.64
209.35,3.16,4.82,3.16,4.83,-4.79,-4.75,-4.43,-1.64,-1.63,-1.67
211.44,3.11,4.79,3.11,4.79,-4.79,-4.75,-4.47,-1.68,-1.68,-1.69
213.56,3.07,4.76,3.06,4.76,-4.79,-4.75,-4.51,-1.72,-1.72,-1.69
215.69,3.03,4.73,3.03,4.74,-4.78,-4.74,-4.55,-1.75,-1.74,-1.70
217.85,3.02,4.73,3.02,4.73,-4.76,-4.74,-4.58,-1.74,-1.74,-1.71
220.03,3.02,4.74,3.02,4.74,-4.74,-4.73,-4.62,-1.72,-1.72,-1.73
222.23,3.02,4.75,3.02,4.75,-4.72,-4.72,-4.65,-1.71,-1.71,-1.74
224.45,3.02,4.74,3.00,4.73,-4.70,-4.71,-4.68,-1.69,-1.71,-1.72
226.70,2.97,4.69,2.97,4.70,-4.68,-4.69,-4.71,-1.72,-1.71,-1.72
228.96,2.93,4.64,2.94,4.65,-4.65,-4.68,-4.73,-1.73,-1.72,-1.72
231.25,2.92,4.62,2.90,4.61,-4.62,-4.65,-4.76,-1.70,-1.72,-1.71
233.57,2.87,4.56,2.88,4.57,-4.57,-4.63,-4.77,-1.70,-1.69,-1.69
235.90,2.86,4.53,2.86,4.53,-4.52,-4.60,-4.79,-1.66,-1.66,-1.68
238.26,2.84,4.49,2.83,4.48,-4.47,-4.57,-4.80,-1.63,-1.64,-1.65
240.64,2.81,4.44,2.80,4.42,-4.43,-4.53,-4.80,-1.62,-1.63,-1.63
243.05,2.76,4.35,2.76,4.36,-4.39,-4.49,-4.80,-1.63,-1.63,-1.60
245.48,2.74,4.31,2.75,4.32,-4.36,-4.44,-4.79,-1.62,-1.61,-1.57
247.93,2.76,4.30,2.75,4.30,-4.33,-4.40,-4.78,-1.57,-1.57,-1.55
250.41,2.78,4.31,2.78,4.30,-4.29,-4.34,-4.76,-1.52,-1.52,-1.53
252.92,2.80,4.29,2.78,4.28,-4.26,-4.29,-4.74,-1.46,-1.48,-1.50
255.45,2.78,4.25,2.78,4.25,-4.22,-4.23,-4.70,-1.44,-1.44,-1.47
258.00,2.74,4.19,2.75,4.20,-4.18,-4.17,-4.67,-1.44,-1.43,-1.46
260.58,2.73,4.16,2.71,4.15,-4.13,-4.11,-4.63,-1.41,-1.42,-1.44
263.19,2.66,4.07,2.66,4.07,-4.08,-4.05,-4.58,-1.42,-1.42,-1.41
265.82,2.61,4.00,2.60,4.00,-4.02,-3.99,-4.53,-1.41,-1.42,-1.40
268.48,2.54,3.91,2.55,3.92,-3.96,-3.93,-4.47,-1.42,-1.40,-1.37
271.16,2.53,3.87,2.53,3.88,-3.89,-3.87,-4.41,-1.37,-1.36,-1.35
273.87,2.52,3.84,2.52,3.84,-3.83,-3.80,-4.34,-1.31,-1.31,-1.33
276.61,2.52,3.82,2.49,3.79,-3.77,-3.74,-4.27,-1.26,-1.28,-1.30
279.38,2.45,3.72,2.44,3.72,-3.71,-3.68,-4.20,-1.27,-1.27,-1.28
282.17,2.37,3.62,2.38,3.64,-3.65,-3.62,-4.12,-1.28,-1.26,-1.26
284.99,2.34,3.56,2.36,3.58,-3.59,-3.56,-4.05,-1.25,-1.23,-1.22
287.84,2.35,3.54,2.34,3.53,-3.52,-3.50,-3.96,-1.18,-1.18,-1.20
290.72,2.36,3.51,2.31,3.47,-3.46,-3.44,-3.88,-1.11,-1.15,-1.16
293.63,2.26,3.39,2.27,3.40,-3.41,-3.38,-3.80,-1.15,-1.14,-1.13
296.57,2.20,3.29,2.22,3.32,-3.35,-3.32,-3.71,-1.15,-1.13,-1.09
299.53,2.20,3.27,2.20,3.27,-3.29,-3.26,-3.63,-1.10,-1.10,-1.08
302.53,2.21,3.25,2.20,3.24,-3.24,-3.21,-3.54,-1.03,-1.04,-1.05
305.55,2.22,3.23,2.19,3.21,-3.18,-3.15,-3.46,-0.96,-0.99,-1.01
308.61,2.15,3.14,2.16,3.15,-3.12,-3.10,-3.37,-0.98,-0.96,-0.99
311.69,2.11,3.08,2.11,3.08,-3.07,-3.04,-3.29,-0.97,-0.96,-0.98
314.81,2.07,3.00,2.05,3.00,-3.02,-2.99,-3.20,-0.95,-0.97,-0.94
317.96,2.00,2.93,2.00,2.93,-2.96,-2.94,-3.12,-0.97,-0.96,-0.93
321.14,1.96,2.87,1.98,2.89,-2.90,-2.89,-3.04,-0.95,-0.92,-0.91
324.35,1.96,2.86,1.95,2.85,-2.84,-2.83,-2.96,-0.89,-0.89,-0.90
327.59,1.96,2.84,1.91,2.80,-2.78,-2.78,-2.88,-0.83,-0.87,-0.89
330.87,1.85,2.72,1.86,2.74,-2.72,-2.73,-2.80,-0.88,-0.86,-0.88
334.18,1.77,2.64,1.79,2.66,-2.67,-2.68,-2.72,-0.90,-0.87,-0.87
337.52,1.76,2.62,1.74,2.60,-2.61,-2.63,-2.65,-0.85,-0.87,-0.86
340.90,1.70,2.54,1.69,2.54,-2.55,-2.58,-2.58,-0.85,-0.85,-0.84
344.30,1.66,2.49,1.65,2.48,-2.48,-2.54,-2.50,-0.83,-0.84,-0.84
347.75,1.59,2.41,1.60,2.43,-2.42,-2.49,-2.43,-0.84,-0.82,-0.83
351.23,1.56,2.37,1.56,2.38,-2.37,-2.44,-2.37,-0.81,-0.81,-0.82
354.74,1.53,2.34,1.50,2.31,-2.32,-2.39,-2.30,-0.79,-0.82,-0.82
358.28,1.44,2.25,1.45,2.26,-2.27,-2.34,-2.24,-0.84,-0.82,-0.81
361.87,1.39,2.20,1.41,2.22,-2.23,-2.29,-2.17,-0.84,-0.82,-0.81
365.49,1.39,2.19,1.37,2.18,-2.18,-2.25,-2.11,-0.80,-0.81,-0.80
369.14,1.36,2.16,1.35,2.15,-2.15,-2.20,-2.05,-0.79,-0.80,-0.80
372.83,1.32,2.12,1.31,2.11,-2.11,-2.15,-2.00,-0.79,-0.80,-0.81
376.56,1.26,2.06,1.27,2.07,-2.07,-2.10,-1.94,-0.81,-0.80,-0.81
380.33,1.23,2.01,1.23,2.03,-2.03,-2.06,-1.89,-0.80,-0.80,-0.79
384.13,1.22,2.01,1.20,1.99,-1.99,-2.01,-1.83,-0.77,-0.79,-0.80
387.97,1.16,1.96,1.16,1.96,-1.95,-1.96,-1.78,-0.79,-0.79,-0.80
391.85,1.11,1.91,1.11,1.91,-1.91,-1.91,-1.73,-0.80,-0.79,-0.80
395.77,1.07,1.86,1.05,1.85,-1.86,-1.87,-1.68,-0.80,-0.81,-0.79
399.73,1.00,1.79,1.00,1.80,-1.82,-1.82,-1.64,-0.83,-0.82,-0.79
403.72,0.96,1.76,0.97,1.77,-1.78,-1.77,-1.59,-0.82,-0.80,-0.80
407.76,0.95,1.75,0.94,1.74,-1.73,-1.72,-1.55,-0.79,-0.79,-0.80
411.84,0.94,1.73,0.90,1.70,-1.69,-1.67,-1.51,-0.75,-0.79,-0.80
415.96,0.83,1.63,0.84,1.65,-1.64,-1.62,-1.46,-0.81,-0.79,-0.81
420.12,0.76,1.56,0.79,1.59,-1.59,-1.58,-1.42,-0.83,-0.80,-0.81
424.32,0.76,1.55,0.72,1.53,-1.53,-1.53,-1.39,-0.78,-0.81,-0.80
428.56,0.70,1.49,0.68,1.48,-1.48,-1.48,-1.35,-0.78,-0.79,-0.80
432.85,0.62,1.39,0.65,1.43,-1.42,-1.43,-1.31,-0.80,-0.77,-0.78
437.18,0.62,1.37,0.60,1.35,-1.36,-1.38,-1.28,-0.75,-0.76,-0.76
441.55,0.59,1.31,0.58,1.30,-1.31,-1.33,-1.24,-0.72,-0.73,-0.72
445.96,0.55,1.24,0.56,1.26,-1.26,-1.28,-1.21,-0.71,-0.70,-0.69
450.42,0.57,1.23,0.56,1.21,-1.21,-1.23,-1.18,-0.65,-0.66,-0.66
454.93,0.56,1.16,0.56,1.17,-1.17,-1.18,-1.15,-0.62,-0.61,-0.60
459.48,0.59,1.15,0.57,1.13,-1.13,-1.13,-1.11,-0.54,-0.56,-0.56
464.07,0.57,1.07,0.58,1.09,-1.09,-1.08,-1.09,-0.52,-0.50,-0.50
468.71,0.60,1.05,0.61,1.06,-1.05,-1.03,-1.06,-0.45,-0.44,-0.45
473.40,0.65,1.05,0.62,1.02,-1.01,-0.98,-1.03,-0.37,-0.39,-0.40
478.13,0.63,0.98,0.63,0.98,-0.98,-0.93,-1.00,-0.36,-0.35,-0.35
482.91,0.62,0.93,0.62,0.93,-0.95,-0.89,-0.97,-0.33,-0.33,-0.31
487.74,0.62,0.88,0.62,0.89,-0.92,-0.84,-0.95,-0.30,-0.29,-0.27
492.62,0.65,0.87,0.65,0.88,-0.88,-0.80,-0.92,-0.23,-0.23,-0.23
497.55,0.68,0.87,0.68,0.87,-0.85,-0.76,-0.90,-0.17,-0.17,-0.20
502.52,0.70,0.86,0.68,0.85,-0.82,-0.72,-0.87,-0.12,-0.14,-0.17
