frequency,raw,error,smoothed,error_smoothed,equalization,parametric_eq,fixed_band_eq,equalized_raw,equalized_smoothed,target
20.00,4.00,-1.85,3.99,-1.85,1.85,1.64,0.35,5.84,5.84,5.84
20.20,4.02,-1.80,4.02,-1.80,1.80,1.61,0.36,5.82,5.82,5.81
20.40,4.04,-1.76,4.04,-1.76,1.76,1.58,0.37,5.79,5.80,5.79
20.61,4.06,-1.71,4.06,-1.71,1.71,1.55,0.38,5.78,5.77,5.77
20.81,4.09,-1.67,4.08,-1.67,1.67,1.52,0.40,5.75,5.75,5.75
21.02,4.11,-1.63,4.11,-1.63,1.63,1.50,0.41,5.73,5.73,5.73
21.23,4.13,-1.59,4.13,-1.59,1.59,1.47,0.42,5.71,5.71,5.71
21.44,4.15,-1.55,4.15,-1.55,1.55,1.44,0.43,5.69,5.69,5.69
21.66,4.17,-1.51,4.17,-1.51,1.51,1.42,0.45,5.67,5.67,5.67
21.87,4.19,-1.47,4.19,-1.47,1.47,1.39,0.46,5.66,5.66,5.66
22.09,4.21,-1.43,4.21,-1.44,1.44,1.37,0.48,5.64,5.64,5.64
22.31,4.23,-1.40,4.23,-1.40,1.40,1.34,0.49,5.63,5.63,5.63
22.54,4.25,-1.37,4.25,-1.37,1.37,1.32,0.51,5.62,5.62,5.62
22.76,4.27,-1.34,4.27,-1.34,1.34,1.29,0.52,5.61,5.61,5.61
22.99,4.29,-1.31,4.29,-1.31,1.31,1.27,0.54,5.60,5.60,5.60
23.22,4.31,-1.28,4.31,-1.28,1.28,1.25,0.56,5.59,5.59,5.59
23.45,4.33,-1.25,4.33,-1.25,1.25,1.22,0.57,5.58,5.58,5.58
23.69,4.35,-1.22,4.35,-1.22,1.22,1.20,0.59,5.57,5.57,5.57
23.92,4.37,-1.20,4.37,-1.20,1.20,1.18,0.61,5.56,5.56,5.56
24.16,4.39,-1.17,4.39,-1.17,1.17,1.16,0.62,5.55,5.55,5.55
24.40,4.41,-1.15,4.41,-1.14,1.14,1.13,0.64,5.55,5.55,5.55
24.65,4.43,-1.12,4.43,-1.12,1.12,1.11,0.66,5.54,5.54,5.54
24.89,4.45,-1.09,4.45,-1.09,1.09,1.09,0.68,5.54,5.54,5.54
25.14,4.47,-1.06,4.47,-1.06,1.06,1.07,0.70,5.53,5.53,5.53
25.39,4.49,-1.03,4.49,-1.04,1.04,1.05,0.71,5.53,5.53,5.52
25.65,4.51,-1.01,4.50,-1.01,1.02,1.03,0.73,5.52,5.52,5.52
25.91,4.52,-0.99,4.52,-0.99,0.99,1.01,0.75,5.51,5.51,5.51
26.16,4.54,-0.97,4.54,-0.97,0.97,0.99,0.77,5.50,5.50,5.51
26.43,4.56,-0.95,4.56,-0.95,0.94,0.97,0.79,5.50,5.50,5.50
26.69,4.58,-0.92,4.57,-0.92,0.92,0.95,0.80,5.50,5.50,5.49
26.96,4.60,-0.90,4.59,-0.90,0.90,0.93,0.82,5.49,5.49,5.49
27.23,4.61,-0.88,4.61,-0.87,0.88,0.91,0.84,5.48,5.49,5.48
27.50,4.63,-0.85,4.63,-0.85,0.85,0.90,0.85,5.48,5.48,5.48
27.77,4.65,-0.83,4.64,-0.83,0.83,0.88,0.87,5.48,5.47,5.48
28.05,4.66,-0.81,4.66,-0.81,0.81,0.86,0.88,5.47,5.47,5.47
28.33,4.68,-0.79,4.68,-0.79,0.79,0.84,0.90,5.46,5.46,5.46
28.62,4.70,-0.77,4.69,-0.77,0.77,0.83,0.91,5.46,5.46,5.46
28.90,4.71,-0.75,4.71,-0.75,0.75,0.81,0.92,5.45,5.46,5.45
29.19,4.73,-0.72,4.72,-0.73,0.73,0.79,0.93,5.45,5.45,5.45
29.48,4.74,-0.71,4.74,-0.71,0.71,0.78,0.94,5.44,5.45,5.45
29.78,4.76,-0.69,4.75,-0.69,0.69,0.76,0.94,5.45,5.44,5.45
30.08,4.77,-0.68,4.77,-0.67,0.67,0.75,0.95,5.44,5.44,5.44
30.38,4.79,-0.65,4.78,-0.65,0.66,0.73,0.95,5.44,5.44,5.43
30.68,4.80,-0.64,4.79,-0.64,0.64,0.71,0.95,5.43,5.43,5.43
30.99,4.81,-0.62,4.81,-0.62,0.62,0.70,0.95,5.43,5.43,5.43
31.30,4.82,-0.61,4.82,-0.61,0.60,0.69,0.95,5.42,5.42,5.43
31.61,4.83,-0.59,4.83,-0.59,0.59,0.67,0.95,5.41,5.41,5.41
31.93,4.85,-0.57,4.84,-0.57,0.57,0.66,0.94,5.41,5.41,5.41
32.24,4.86,-0.55,4.86,-0.55,0.55,0.64,0.94,5.40,5.40,5.41
32.57,4.87,-0.53,4.87,-0.53,0.53,0.63,0.93,5.40,5.40,5.40
32.89,4.89,-0.51,4.88,-0.51,0.51,0.62,0.92,5.40,5.39,5.39
33.22,4.90,-0.50,4.90,-0.49,0.50,0.60,0.91,5.39,5.39,5.39
33.55,4.91,-0.47,4.91,-0.48,0.48,0.59,0.90,5.39,5.39,5.38
33.89,4.92,-0.46,4.91,-0.46,0.47,0.58,0.88,5.38,5.38,5.38
34.23,4.92,-0.46,4.92,-0.45,0.45,0.56,0.87,5.37,5.37,5.37
34.57,4.93,-0.43,4.92,-0.44,0.44,0.55,0.85,5.37,5.36,5.36
34.92,4.93,-0.43,4.93,-0.43,0.43,0.54,0.83,5.35,5.35,5.36
35.27,4.93,-0.43,4.93,-0.42,0.42,0.53,0.82,5.35,5.35,5.35
35.62,4.94,-0.40,4.93,-0.41,0.41,0.51,0.80,5.35,5.34,5.34
35.97,4.94,-0.40,4.94,-0.40,0.40,0.50,0.78,5.33,5.34,5.34
36.33,4.95,-0.39,4.94,-0.39,0.39,0.49,0.76,5.33,5.33,5.33
36.70,4.95,-0.38,4.95,-0.38,0.38,0.48,0.73,5.32,5.33,5.33
37.06,4.96,-0.37,4.95,-0.37,0.37,0.47,0.71,5.32,5.32,5.32
37.43,4.96,-0.35,4.96,-0.36,0.36,0.46,0.69,5.31,5.31,5.31
37.81,4.97,-0.34,4.96,-0.34,0.34,0.44,0.67,5.31,5.31,5.31
38.19,4.97,-0.34,4.96,-0.33,0.33,0.43,0.65,5.30,5.30,5.30
38.57,4.97,-0.32,4.97,-0.32,0.32,0.42,0.62,5.29,5.29,5.29
38.95,4.97,-0.32,4.97,-0.31,0.31,0.41,0.60,5.28,5.28,5.28
39.34,4.97,-0.30,4.97,-0.30,0.30,0.40,0.58,5.27,5.27,5.27
39.74,4.97,-0.30,4.97,-0.29,0.30,0.39,0.56,5.26,5.26,5.26
40.14,4.97,-0.28,4.96,-0.29,0.29,0.38,0.53,5.26,5.25,5.25
40.54,4.96,-0.29,4.96,-0.29,0.29,0.37,0.51,5.24,5.24,5.24
40.94,4.95,-0.29,4.95,-0.28,0.28,0.36,0.49,5.23,5.23,5.23
41.35,4.95,-0.28,4.94,-0.28,0.28,0.35,0.47,5.22,5.22,5.23
41.76,4.95,-0.28,4.94,-0.28,0.28,0.34,0.45,5.22,5.22,5.22
42.18,4.95,-0.27,4.95,-0.27,0.27,0.32,0.43,5.22,5.22,5.22
42.60,4.95,-0.26,4.95,-0.27,0.27,0.31,0.40,5.21,5.21,5.21
43.03,4.95,-0.27,4.95,-0.26,0.26,0.30,0.38,5.21,5.21,5.21
43.46,4.95,-0.26,4.95,-0.26,0.26,0.29,0.36,5.20,5.20,5.20
43.90,4.95,-0.25,4.95,-0.25,0.25,0.28,0.34,5.20,5.20,5.20
44.33,4.95,-0.24,4.95,-0.24,0.25,0.27,0.32,5.19,5.19,5.19
44.78,4.95,-0.24,4.94,-0.24,0.24,0.26,0.30,5.19,5.19,5.18
45.23,4.95,-0.23,4.94,-0.23,0.24,0.25,0.29,5.18,5.18,5.17
45.68,4.94,-0.23,4.94,-0.23,0.23,0.24,0.27,5.16,5.17,5.16
46.13,4.94,-0.22,4.93,-0.22,0.22,0.22,0.25,5.16,5.15,5.16
46.60,4.93,-0.22,4.93,-0.22,0.21,0.21,0.23,5.14,5.14,5.15
47.06,4.93,-0.21,4.93,-0.21,0.21,0.20,0.21,5.13,5.13,5.14
47.53,4.93,-0.19,4.92,-0.20,0.19,0.19,0.19,5.12,5.12,5.12
48.01,4.93,-0.18,4.92,-0.18,0.18,0.18,0.18,5.11,5.11,5.11
48.49,4.93,-0.17,4.93,-0.17,0.17,0.16,0.16,5.09,5.09,5.10
48.97,4.94,-0.15,4.94,-0.15,0.15,0.15,0.14,5.08,5.09,5.09
49.46,4.95,-0.13,4.94,-0.13,0.13,0.14,0.13,5.08,5.08,5.07
49.96,4.96,-0.11,4.95,-0.11,0.11,0.13,0.11,5.07,5.06,5.06
50.46,4.96,-0.09,4.96,-0.09,0.09,0.11,0.09,5.05,5.05,5.05
50.96,4.97,-0.07,4.97,-0.07,0.07,0.10,0.08,5.04,5.04,5.04
51.47,4.98,-0.06,4.98,-0.06,0.05,0.08,0.06,5.03,5.03,5.03
51.99,4.99,-0.04,4.98,-0.04,0.03,0.07,0.04,5.02,5.02,5.02
52.51,5.00,-0.01,4.99,-0.01,0.02,0.05,0.03,5.01,5.01,5.01
53.03,5.00,0.00,5.00,0.01,-0.00,0.04,0.01,4.99,5.00,4.99
53.56,5.01,0.03,5.00,0.02,-0.02,0.02,-0.01,4.99,4.99,4.98
54.10,5.01,0.03,5.00,0.03,-0.03,0.01,-0.02,4.97,4.97,4.97
54.64,5.00,0.04,5.00,0.05,-0.04,-0.01,-0.04,4.95,4.95,4.96
55.18,5.00,0.06,4.99,0.05,-0.06,-0.03,-0.06,4.94,4.94,4.94
55.74,5.00,0.07,4.99,0.07,-0.07,-0.04,-0.07,4.92,4.92,4.92
56.29,5.00,0.08,5.00,0.09,-0.09,-0.06,-0.09,4.91,4.91,4.91
56.86,5.01,0.11,5.00,0.10,-0.11,-0.08,-0.11,4.90,4.89,4.90
57.42,5.01,0.13,5.01,0.13,-0.13,-0.10,-0.13,4.88,4.88,4.88
58.00,5.02,0.15,5.02,0.15,-0.15,-0.12,-0.14,4.86,4.86,4.87
58.58,5.03,0.18,5.03,0.18,-0.18,-0.14,-0.16,4.85,4.85,4.85
59.16,5.04,0.21,5.04,0.20,-0.20,-0.16,-0.18,4.84,4.84,4.83
59.76,5.05,0.23,5.04,0.23,-0.23,-0.18,-0.20,4.82,4.82,4.82
60.35,5.05,0.25,5.05,0.25,-0.25,-0.20,-0.22,4.80,4.80,4.80
60.96,5.05,0.27,5.05,0.27,-0.27,-0.22,-0.24,4.77,4.77,4.77
61.57,5.05,0.30,5.05,0.30,-0.30,-0.25,-0.26,4.75,4.75,4.75
62.18,5.05,0.32,5.05,0.32,-0.32,-0.27,-0.28,4.72,4.73,4.73
62.80,5.05,0.34,5.05,0.34,-0.34,-0.30,-0.30,4.70,4.70,4.70
63.43,5.05,0.37,5.04,0.37,-0.36,-0.32,-0.33,4.68,4.68,4.68
64.07,5.04,0.39,5.04,0.39,-0.38,-0.35,-0.35,4.66,4.66,4.65
64.71,5.03,0.40,5.03,0.40,-0.40,-0.37,-0.37,4.63,4.63,4.62
65.35,5.02,0.42,5.02,0.42,-0.42,-0.40,-0.40,4.60,4.60,4.60
66.01,5.01,0.44,5.00,0.44,-0.44,-0.43,-0.42,4.57,4.56,4.57
66.67,5.00,0.46,4.99,0.45,-0.46,-0.46,-0.45,4.53,4.53,4.54
67.33,4.99,0.48,4.99,0.48,-0.49,-0.49,-0.47,4.50,4.50,4.51
68.01,4.99,0.51,4.99,0.51,-0.52,-0.52,-0.50,4.47,4.47,4.48
68.69,5.00,0.55,4.99,0.54,-0.54,-0.55,-0.53,4.45,4.45,4.45
69.37,5.00,0.58,4.99,0.58,-0.57,-0.58,-0.56,4.42,4.42,4.42
70.07,5.00,0.61,4.99,0.61,-0.60,-0.61,-0.59,4.39,4.39,4.38
70.77,4.99,0.64,4.99,0.64,-0.63,-0.64,-0.62,4.36,4.36,4.35
71.48,4.99,0.66,4.98,0.66,-0.66,-0.68,-0.65,4.33,4.33,4.32
72.19,4.98,0.69,4.97,0.68,-0.68,-0.71,-0.68,4.30,4.29,4.29
72.91,4.96,0.70,4.96,0.70,-0.70,-0.75,-0.71,4.25,4.26,4.25
73.64,4.95,0.73,4.94,0.73,-0.73,-0.79,-0.75,4.22,4.22,4.22
74.38,4.94,0.75,4.93,0.75,-0.75,-0.82,-0.78,4.18,4.18,4.19
75.12,4.93,0.77,4.93,0.78,-0.78,-0.86,-0.82,4.14,4.14,4.15
75.87,4.93,0.80,4.93,0.81,-0.82,-0.90,-0.85,4.11,4.11,4.12
76.63,4.94,0.85,4.93,0.85,-0.85,-0.94,-0.89,4.08,4.08,4.08
77.40,4.94,0.90,4.94,0.89,-0.89,-0.98,-0.93,4.04,4.05,4.04
78.17,4.95,0.94,4.94,0.94,-0.93,-1.02,-0.96,4.01,4.01,4.01
78.95,4.95,0.98,4.94,0.98,-0.97,-1.06,-1.00,3.97,3.97,3.97
79.74,4.95,1.02,4.95,1.02,-1.02,-1.10,-1.04,3.93,3.93,3.92
80.54,4.95,1.06,4.95,1.06,-1.06,-1.15,-1.09,3.88,3.88,3.89
81.35,4.95,1.10,4.95,1.10,-1.10,-1.19,-1.13,3.84,3.84,3.84
82.16,4.95,1.15,4.95,1.15,-1.15,-1.24,-1.17,3.80,3.80,3.80
82.98,4.95,1.19,4.95,1.19,-1.19,-1.28,-1.22,3.75,3.75,3.75
83.81,4.95,1.24,4.95,1.24,-1.24,-1.33,-1.26,3.71,3.71,3.70
84.65,4.95,1.28,4.95,1.28,-1.28,-1.37,-1.31,3.66,3.66,3.67
85.50,4.95,1.33,4.95,1.33,-1.33,-1.42,-1.36,3.62,3.62,3.62
86.35,4.95,1.38,4.95,1.38,-1.38,-1.47,-1.41,3.57,3.57,3.57
87.22,4.95,1.43,4.95,1.43,-1.43,-1.51,-1.46,3.52,3.52,3.52
88.09,4.95,1.48,4.95,1.48,-1.48,-1.56,-1.51,3.47,3.47,3.47
88.97,4.95,1.53,4.95,1.53,-1.53,-1.61,-1.56,3.42,3.42,3.42
89.86,4.95,1.58,4.95,1.58,-1.58,-1.66,-1.61,3.37,3.37,3.37
90.76,4.95,1.63,4.95,1.63,-1.63,-1.71,-1.67,3.31,3.31,3.31
91.66,4.95,1.68,4.95,1.68,-1.68,-1.76,-1.73,3.26,3.26,3.26
92.58,4.95,1.74,4.95,1.74,-1.74,-1.81,-1.78,3.21,3.21,3.21
93.51,4.95,1.79,4.95,1.79,-1.79,-1.86,-1.84,3.15,3.15,3.15
94.44,4.95,1.84,4.95,1.85,-1.84,-1.91,-1.90,3.10,3.10,3.10
95.39,4.95,1.90,4.95,1.90,-1.90,-1.96,-1.96,3.05,3.05,3.05
96.34,4.95,1.95,4.95,1.95,-1.95,-2.01,-2.02,3.00,3.00,2.99
97.30,4.95,2.00,4.95,2.00,-2.00,-2.06,-2.08,2.94,2.94,2.95
98.28,4.95,2.05,4.95,2.05,-2.06,-2.12,-2.15,2.89,2.89,2.89
99.26,4.95,2.11,4.95,2.11,-2.11,-2.17,-2.21,2.83,2.83,2.84
100.25,4.95,2.17,4.95,2.17,-2.17,-2.22,-2.28,2.78,2.78,2.78
101.25,4.95,2.22,4.95,2.22,-2.22,-2.27,-2.34,2.73,2.73,2.72
102.27,4.95,2.28,4.95,2.28,-2.27,-2.32,-2.40,2.67,2.67,2.67
103.29,4.95,2.33,4.95,2.33,-2.33,-2.37,-2.47,2.62,2.62,2.61
104.32,4.95,2.38,4.95,2.39,-2.38,-2.42,-2.53,2.56,2.56,2.56
105.37,4.95,2.44,4.94,2.44,-2.44,-2.47,-2.60,2.51,2.50,2.51
106.42,4.95,2.49,4.95,2.49,-2.50,-2.52,-2.66,2.45,2.45,2.45
107.48,4.95,2.54,4.95,2.55,-2.55,-2.57,-2.73,2.39,2.39,2.41
108.56,4.96,2.61,4.95,2.60,-2.61,-2.62,-2.79,2.35,2.34,2.35
109.64,4.96,2.66,4.96,2.67,-2.67,-2.67,-2.85,2.29,2.29,2.29
110.74,4.97,2.73,4.96,2.73,-2.72,-2.72,-2.91,2.25,2.25,2.24
111.85,4.97,2.78,4.96,2.78,-2.77,-2.76,-2.97,2.20,2.19,2.18
112.97,4.96,2.82,4.95,2.82,-2.82,-2.81,-3.02,2.14,2.14,2.14
114.10,4.94,2.85,4.94,2.86,-2.86,-2.86,-3.07,2.08,2.08,2.08
115.24,4.92,2.89,4.92,2.89,-2.89,-2.90,-3.12,2.02,2.03,2.03
116.39,4.91,2.93,4.90,2.92,-2.92,-2.95,-3.17,1.99,1.98,1.97
117.55,4.88,2.95,4.87,2.95,-2.94,-2.99,-3.21,1.93,1.93,1.93
118.73,4.84,2.96,4.84,2.96,-2.96,-3.04,-3.26,1.87,1.87,1.87
119.92,4.80,2.97,4.80,2.97,-2.98,-3.08,-3.29,1.82,1.82,1.82
121.12,4.76,2.99,4.76,2.99,-2.99,-3.12,-3.33,1.76,1.77,1.77
122.33,4.74,3.01,4.73,3.01,-3.01,-3.16,-3.35,1.73,1.72,1.73
123.55,4.71,3.03,4.70,3.03,-3.02,-3.21,-3.38,1.68,1.68,1.67
124.79,4.68,3.04,4.67,3.04,-3.04,-3.24,-3.40,1.63,1.63,1.63
126.03,4.64,3.05,4.64,3.06,-3.06,-3.28,-3.42,1.57,1.58,1.58
127.29,4.63,3.08,4.62,3.08,-3.09,-3.32,-3.43,1.53,1.53,1.54
128.57,4.61,3.11,4.60,3.11,-3.12,-3.36,-3.44,1.48,1.48,1.49
129.85,4.60,3.15,4.60,3.15,-3.16,-3.39,-3.45,1.43,1.44,1.44
131.15,4.60,3.20,4.60,3.20,-3.20,-3.43,-3.45,1.39,1.40,1.40
132.46,4.61,3.25,4.60,3.25,-3.25,-3.46,-3.45,1.36,1.36,1.36
133.79,4.62,3.30,4.61,3.30,-3.29,-3.49,-3.44,1.32,1.32,1.31
135.12,4.62,3.35,4.62,3.35,-3.34,-3.52,-3.43,1.27,1.27,1.27
136.48,4.62,3.39,4.62,3.40,-3.39,-3.55,-3.42,1.22,1.23,1.22
137.84,4.62,3.44,4.62,3.44,-3.44,-3.58,-3.41,1.18,1.18,1.18
139.22,4.62,3.48,4.62,3.48,-3.48,-3.61,-3.39,1.14,1.14,1.13
140.61,4.62,3.53,4.62,3.52,-3.52,-3.63,-3.38,1.09,1.09,1.09
142.02,4.62,3.56,4.62,3.56,-3.56,-3.66,-3.36,1.05,1.05,1.06
143.44,4.62,3.60,4.61,3.60,-3.60,-3.68,-3.34,1.02,1.01,1.02
144.87,4.62,3.64,4.62,3.63,-3.64,-3.71,-3.32,0.98,0.98,0.98
146.32,4.62,3.67,4.62,3.67,-3.68,-3.73,-3.30,0.93,0.94,0.95
147.78,4.63,3.72,4.62,3.71,-3.72,-3.75,-3.28,0.91,0.90,0.91
149.26,4.63,3.75,4.63,3.75,-3.76,-3.77,-3.25,0.87,0.87,0.87
150.75,4.64,3.79,4.64,3.80,-3.79,-3.78,-3.23,0.84,0.84,0.84
152.26,4.65,3.84,4.64,3.83,-3.83,-3.80,-3.21,0.82,0.81,0.81
153.78,4.64,3.86,4.64,3.86,-3.86,-3.82,-3.19,0.78,0.78,0.77
155.32,4.63,3.88,4.63,3.88,-3.88,-3.83,-3.18,0.75,0.75,0.75
156.88,4.61,3.89,4.61,3.90,-3.90,-3.84,-3.16,0.71,0.71,0.71
158.44,4.60,3.92,4.59,3.91,-3.91,-3.85,-3.14,0.69,0.68,0.68
160.03,4.56,3.91,4.56,3.92,-3.91,-3.86,-3.13,0.65,0.65,0.65
161.63,4.54,3.92,4.53,3.91,-3.91,-3.87,-3.12,0.63,0.62,0.62
163.24,4.51,3.91,4.50,3.91,-3.90,-3.88,-3.11,0.60,0.59,0.60
164.88,4.46,3.89,4.46,3.90,-3.90,-3.89,-3.10,0.56,0.57,0.57
166.53,4.43,3.89,4.42,3.89,-3.89,-3.89,-3.09,0.54,0.54,0.54
168.19,4.40,3.89,4.39,3.88,-3.88,-3.90,-3.09,0.51,0.51,0.51
169.87,4.36,3.86,4.36,3.87,-3.88,-3.90,-3.09,0.48,0.48,0.49
171.57,4.34,3.87,4.33,3.87,-3.88,-3.90,-3.09,0.46,0.46,0.46
173.29,4.32,3.88,4.31,3.87,-3.88,-3.90,-3.09,0.43,0.43,0.44
175.02,4.30,3.88,4.30,3.89,-3.89,-3.90,-3.10,0.40,0.41,0.41
176.77,4.30,3.90,4.29,3.90,-3.91,-3.90,-3.10,0.39,0.39,0.40
178.54,4.30,3.92,4.29,3.92,-3.92,-3.90,-3.11,0.37,0.37,0.37
180.32,4.30,3.95,4.30,3.95,-3.94,-3.90,-3.12,0.35,0.36,0.35
182.13,4.30,3.97,4.29,3.97,-3.96,-3.89,-3.14,0.34,0.34,0.33
183.95,4.29,3.98,4.28,3.98,-3.97,-3.89,-3.16,0.32,0.31,0.31
185.79,4.27,3.98,4.27,3.98,-3.98,-3.88,-3.18,0.29,0.29,0.28
187.65,4.25,3.98,4.25,3.98,-3.98,-3.88,-3.20,0.27,0.27,0.26
189.52,4.23,3.98,4.22,3.98,-3.98,-3.87,-3.22,0.25,0.25,0.24
191.42,4.20,3.97,4.19,3.97,-3.97,-3.86,-3.25,0.23,0.23,0.22
193.33,4.16,3.95,4.16,3.96,-3.95,-3.85,-3.28,0.20,0.21,0.20
195.27,4.13,3.94,4.12,3.94,-3.94,-3.84,-3.31,0.19,0.18,0.19
197.22,4.10,3.93,4.09,3.92,-3.93,-3.83,-3.34,0.17,0.16,0.17
199.19,4.06,3.90,4.06,3.91,-3.91,-3.81,-3.37,0.14,0.15,0.15
201.18,4.04,3.89,4.04,3.89,-3.90,-3.80,-3.41,0.13,0.13,0.15
203.19,4.02,3.89,4.02,3.88,-3.89,-3.79,-3.44,0.12,0.13,0.13
205.23,4.01,3.88,4.00,3.88,-3.88,-3.77,-3.48,0.12,0.12,0.12
207.28,3.99,3.88,3.98,3.88,-3.87,-3.76,-3.52,0.11,0.11,0.11
209.35,3.97,3.87,3.97,3.87,-3.87,-3.74,-3.56,0.10,0.10,0.09
211.44,3.95,3.86,3.95,3.86,-3.86,-3.72,-3.60,0.09,0.09,0.09
213.56,3.93,3.85,3.92,3.85,-3.85,-3.71,-3.63,0.08,0.08,0.08
215.69,3.91,3.84,3.90,3.84,-3.84,-3.69,-3.67,0.07,0.07,0.06
217.85,3.88,3.83,3.88,3.83,-3.82,-3.67,-3.71,0.05,0.06,0.05
220.03,3.86,3.81,3.85,3.81,-3.81,-3.65,-3.75,0.05,0.04,0.05
222.23,3.83,3.79,3.82,3.79,-3.79,-3.63,-3.78,0.03,0.03,0.04
224.45,3.80,3.77,3.80,3.77,-3.77,-3.61,-3.81,0.02,0.02,0.02
226.70,3.77,3.75,3.77,3.75,-3.75,-3.59,-3.84,0.01,0.01,0.01
228.96,3.74,3.72,3.74,3.73,-3.73,-3.57,-3.87,0.01,0.01,0.01
231.25,3.72,3.71,3.71,3.71,-3.70,-3.55,-3.89,0.01,0.01,0.00
233.57,3.69,3.69,3.68,3.68,-3.68,-3.53,-3.92,0.01,-0.00,-0.01
235.90,3.64,3.64,3.64,3.65,-3.65,-3.50,-3.93,-0.02,-0.01,-0.01
238.26,3.61,3.62,3.61,3.62,-3.62,-3.48,-3.95,-0.02,-0.02,-0.02
240.64,3.58,3.59,3.57,3.59,-3.59,-3.46,-3.96,-0.02,-0.02,-0.02
243.05,3.55,3.56,3.55,3.56,-3.57,-3.43,-3.96,-0.02,-0.02,-0.01
245.48,3.53,3.54,3.52,3.53,-3.54,-3.41,-3.96,-0.01,-0.02,-0.01
247.93,3.49,3.51,3.49,3.51,-3.51,-3.39,-3.96,-0.03,-0.02,-0.02
250.41,3.47,3.48,3.47,3.49,-3.49,-3.36,-3.95,-0.02,-0.02,-0.02
252.92,3.45,3.46,3.44,3.46,-3.46,-3.34,-3.94,-0.01,-0.01,-0.02
255.45,3.43,3.44,3.42,3.44,-3.43,-3.31,-3.92,-0.00,-0.01,-0.01
258.00,3.39,3.41,3.39,3.41,-3.40,-3.28,-3.90,-0.01,-0.01,-0.02
260.58,3.36,3.37,3.35,3.37,-3.37,-3.26,-3.87,-0.01,-0.02,-0.02
263.19,3.32,3.34,3.31,3.34,-3.34,-3.23,-3.84,-0.02,-0.03,-0.02
265.82,3.27,3.30,3.28,3.30,-3.31,-3.20,-3.80,-0.04,-0.03,-0.03
268.48,3.25,3.27,3.24,3.27,-3.28,-3.18,-3.76,-0.04,-0.04,-0.03
271.16,3.22,3.25,3.21,3.25,-3.25,-3.15,-3.71,-0.04,-0.04,-0.03
273.87,3.19,3.22,3.19,3.22,-3.23,-3.12,-3.67,-0.04,-0.04,-0.04
276.61,3.17,3.20,3.17,3.20,-3.20,-3.10,-3.61,-0.04,-0.03,-0.03
279.38,3.15,3.18,3.15,3.18,-3.17,-3.07,-3.56,-0.03,-0.03,-0.04
282.17,3.13,3.16,3.12,3.16,-3.15,-3.04,-3.50,-0.02,-0.03,-0.03
284.99,3.09,3.12,3.09,3.13,-3.12,-3.01,-3.45,-0.03,-0.03,-0.04
287.84,3.05,3.09,3.04,3.09,-3.08,-2.98,-3.39,-0.04,-0.04,-0.04
290.72,3.00,3.04,3.00,3.05,-3.05,-2.96,-3.33,-0.05,-0.05,-0.05
293.63,2.96,3.01,2.96,3.01,-3.02,-2.93,-3.26,-0.06,-0.06,-0.05
296.57,2.93,2.98,2.92,2.97,-2.98,-2.90,-3.20,-0.06,-0.06,-0.06
299.53,2.89,2.94,2.89,2.94,-2.95,-2.87,-3.14,-0.07,-0.07,-0.05
302.53,2.86,2.91,2.86,2.92,-2.92,-2.84,-3.07,-0.07,-0.06,-0.06
305.55,2.84,2.89,2.84,2.89,-2.90,-2.81,-3.01,-0.06,-0.06,-0.06
308.61,2.83,2.88,2.82,2.87,-2.87,-2.78,-2.95,-0.04,-0.05,-0.05
311.69,2.80,2.85,2.80,2.85,-2.84,-2.75,-2.89,-0.04,-0.04,-0.06
314.81,2.77,2.82,2.76,2.82,-2.80,-2.72,-2.82,-0.04,-0.04,-0.05
317.96,2.73,2.78,2.73,2.78,-2.77,-2.69,-2.76,-0.05,-0.05,-0.05
321.14,2.69,2.73,2.69,2.73,-2.74,-2.66,-2.70,-0.05,-0.05,-0.05
324.35,2.65,2.69,2.64,2.69,-2.70,-2.63,-2.65,-0.06,-0.06,-0.05
327.59,2.61,2.66,2.61,2.66,-2.67,-2.60,-2.59,-0.06,-0.06,-0.05
330.87,2.58,2.62,2.58,2.62,-2.63,-2.57,-2.53,-0.06,-0.06,-0.05
334.18,2.56,2.59,2.55,2.59,-2.60,-2.54,-2.48,-0.04,-0.05,-0.04
337.52,2.53,2.57,2.53,2.57,-2.56,-2.51,-2.42,-0.04,-0.04,-0.04
340.90,2.51,2.54,2.51,2.54,-2.53,-2.48,-2.37,-0.02,-0.02,-0.03
344.30,2.48,2.51,2.47,2.51,-2.49,-2.45,-2.32,-0.02,-0.02,-0.04
347.75,2.44,2.47,2.43,2.47,-2.46,-2.42,-2.28,-0.02,-0.02,-0.04
351.23,2.38,2.42,2.38,2.42,-2.42,-2.39,-2.23,-0.04,-0.04,-0.04
354.74,2.34,2.37,2.33,2.37,-2.38,-2.36,-2.18,-0.04,-0.05,-0.03
358.28,2.29,2.32,2.29,2.32,-2.34,-2.33,-2.14,-0.06,-0.05,-0.03
361.87,2.26,2.29,2.26,2.29,-2.30,-2.30,-2.10,-0.05,-0.05,-0.04
365.49,2.23,2.26,2.22,2.26,-2.26,-2.27,-2.06,-0.04,-0.04,-0.04
369.14,2.20,2.24,2.19,2.23,-2.22,-2.24,-2.02,-0.03,-0.03,-0.04
372.83,2.16,2.20,2.16,2.20,-2.18,-2.20,-1.99,-0.03,-0.03,-0.04
376.56,2.12,2.15,2.12,2.15,-2.14,-2.17,-1.95,-0.03,-0.02,-0.03
380.33,2.08,2.11,2.07,2.11,-2.10,-2.14,-1.92,-0.02,-0.03,-0.04
384.13,2.02,2.05,2.02,2.05,-2.05,-2.11,-1.89,-0.04,-0.03,-0.04
387.97,1.97,2.00,1.97,2.00,-2.01,-2.08,-1.86,-0.04,-0.04,-0.04
391.85,1.92,1.95,1.92,1.95,-1.96,-2.04,-1.83,-0.05,-0.05,-0.03
395.77,1.88,1.91,1.88,1.91,-1.92,-2.01,-1.80,-0.05,-0.04,-0.03
399.73,1.85,1.87,1.85,1.87,-1.88,-1.98,-1.77,-0.04,-0.04,-0.02
403.72,1.83,1.85,1.83,1.85,-1.85,-1.95,-1.75,-0.02,-0.02,-0.02
407.76,1.81,1.82,1.80,1.82,-1.81,-1.92,-1.72,-0.01,-0.01,-0.02
411.84,1.79,1.80,1.78,1.79,-1.78,-1.88,-1.70,0.00,-0.00,-0.02
415.96,1.75,1.75,1.75,1.76,-1.75,-1.85,-1.68,-0.00,0.00,-0.01
420.12,1.72,1.72,1.71,1.72,-1.72,-1.82,-1.66,-0.00,-0.00,-0.01
424.32,1.68,1.69,1.67,1.68,-1.68,-1.78,-1.64,-0.01,-0.01,-0.01
428.56,1.64,1.64,1.64,1.64,-1.65,-1.75,-1.62,-0.02,-0.02,-0.00
432.85,1.61,1.61,1.60,1.61,-1.62,-1.72,-1.60,-0.02,-0.02,-0.00
437.18,1.58,1.58,1.58,1.59,-1.59,-1.68,-1.58,-0.02,-0.01,-0.00
441.55,1.57,1.57,1.56,1.57,-1.57,-1.65,-1.56,-0.00,-0.00,-0.00
445.96,1.55,1.55,1.54,1.54,-1.54,-1.62,-1.54,0.01,0.00,-0.01
450.42,1.51,1.51,1.51,1.52,-1.51,-1.58,-1.52,-0.00,0.00,-0.01
454.93,1.49,1.49,1.48,1.49,-1.48,-1.55,-1.51,0.01,0.00,-0.01
459.48,1.45,1.45,1.44,1.45,-1.45,-1.52,-1.49,-0.00,-0.00,-0.01
464.07,1.41,1.41,1.41,1.42,-1.41,-1.48,-1.47,-0.01,-0.00,-0.01
468.71,1.37,1.37,1.36,1.37,-1.37,-1.45,-1.45,-0.01,-0.01,-0.01
473.40,1.33,1.34,1.32,1.33,-1.34,-1.41,-1.43,-0.01,-0.02,-0.01
478.13,1.29,1.29,1.29,1.29,-1.31,-1.38,-1.41,-0.02,-0.02,-0.00
482.91,1.26,1.26,1.26,1.26,-1.27,-1.34,-1.39,-0.02,-0.02,-0.00
487.74,1.24,1.24,1.23,1.24,-1.24,-1.31,-1.37,-0.01,-0.01,-0.00
492.62,1.22,1.22,1.22,1.22,-1.21,-1.27,-1.35,0.00,0.01,-0.00
497.55,1.20,1.19,1.19,1.19,-1.18,-1.24,-1.33,0.02,0.01,0.01
502.52,1.17,1.16,1.16,1.16,-1.15,-1.20,-1.30,0.02,0.02,0.01
507.55,1.13,1.12,1.13,1.12,-1.11,-1.17,-1.28,0.01,0.02,0.01
512.62,1.09,1.08,1.09,1.08,-1.07,-1.13,-1.26,0.01,0.01,0.00
517.75,1.05,1.03,1.04,1.03,-1.04,-1.10,-1.23,0.01,0.01,0.01
522.93,1.01,0.99,1.00,0.99,-1.00,-1.06,-1.21,0.01,0.01,0.01
528.16,0.97,0.95,0.97,0.95,-0.96,-1.02,-1.18,0.00,0.00,0.01
533.44,0.94,0.92,0.93,0.92,-0.93,-0.99,-1.15,0.01,0.00,0.01
538.77,0.91,0.88,0.91,0.89,-0.90,-0.95,-1.12,0.01,0.01,0.02
