frequency,raw,error,smoothed,error_smoothed,equalization,parametric_eq,fixed_band_eq,equalized_raw,equalized_smoothed,target
20.00,-25.07,-26.74,-25.06,-26.73,6.00,5.58,2.61,-19.07,-19.06,1.67
20.20,-24.98,-26.65,-24.98,-26.66,6.00,5.60,2.68,-18.98,-18.98,1.67
20.40,-24.89,-26.56,-24.90,-26.57,6.00,5.62,2.76,-18.89,-18.90,1.67
20.61,-24.79,-26.47,-24.80,-26.48,6.00,5.64,2.84,-18.79,-18.80,1.68
20.81,-24.70,-26.38,-24.70,-26.38,6.00,5.65,2.92,-18.70,-18.70,1.68
21.02,-24.61,-26.29,-24.59,-26.27,6.00,5.67,3.01,-18.61,-18.59,1.68
21.23,-24.45,-26.13,-24.46,-26.14,6.00,5.68,3.09,-18.45,-18.46,1.68
21.44,-24.30,-25.99,-24.31,-26.00,6.00,5.69,3.18,-18.30,-18.31,1.69
21.66,-24.15,-25.84,-24.15,-25.84,6.00,5.71,3.27,-18.15,-18.15,1.69
21.87,-24.00,-25.69,-23.99,-25.69,6.00,5.72,3.37,-18.00,-17.99,1.69
22.09,-23.83,-25.52,-23.82,-25.51,6.00,5.73,3.47,-17.83,-17.82,1.69
22.31,-23.64,-25.34,-23.64,-25.34,6.00,5.74,3.57,-17.64,-17.64,1.70
22.54,-23.45,-25.14,-23.45,-25.14,6.00,5.75,3.67,-17.45,-17.45,1.69
22.76,-23.27,-24.97,-23.26,-24.96,6.00,5.76,3.77,-17.27,-17.26,1.70
22.99,-23.08,-24.78,-23.11,-24.80,6.00,5.76,3.88,-17.08,-17.11,1.70
23.22,-22.98,-24.68,-22.98,-24.67,6.00,5.77,3.99,-16.98,-16.98,1.70
23.45,-22.88,-24.58,-22.88,-24.58,6.00,5.78,4.10,-16.88,-16.88,1.70
23.69,-22.78,-24.48,-22.79,-24.49,6.00,5.78,4.22,-16.78,-16.79,1.70
23.92,-22.68,-24.39,-22.67,-24.37,6.00,5.79,4.33,-16.68,-16.67,1.71
24.16,-22.53,-24.23,-22.52,-24.22,6.00,5.79,4.45,-16.53,-16.52,1.70
24.40,-22.35,-24.04,-22.35,-24.05,6.00,5.80,4.57,-16.35,-16.35,1.70
24.65,-22.17,-23.87,-22.17,-23.87,6.00,5.80,4.70,-16.17,-16.17,1.70
24.89,-22.00,-23.68,-22.00,-23.69,6.00,5.80,4.82,-16.00,-16.00,1.69
25.14,-21.84,-23.52,-21.84,-23.52,6.00,5.81,4.95,-15.84,-15.84,1.68
25.39,-21.69,-23.36,-21.69,-23.37,6.00,5.81,5.07,-15.69,-15.69,1.67
25.65,-21.54,-23.21,-21.54,-23.22,6.00,5.81,5.20,-15.54,-15.54,1.67
25.91,-21.39,-23.06,-21.38,-23.05,6.00,5.81,5.33,-15.39,-15.38,1.66
26.16,-21.20,-22.86,-21.19,-22.85,6.00,5.81,5.46,-15.20,-15.19,1.66
26.43,-20.98,-22.64,-20.98,-22.63,6.00,5.81,5.59,-14.98,-14.98,1.65
26.69,-20.76,-22.41,-20.76,-22.42,6.00,5.81,5.71,-14.76,-14.76,1.65
26.96,-20.55,-22.20,-20.57,-22.22,6.00,5.81,5.84,-14.55,-14.57,1.65
27.23,-20.41,-22.06,-20.41,-22.05,6.00,5.81,5.96,-14.41,-14.41,1.65
27.50,-20.28,-21.92,-20.28,-21.92,6.00,5.81,6.08,-14.28,-14.28,1.64
27.77,-20.16,-21.80,-20.16,-21.80,6.00,5.81,6.20,-14.16,-14.16,1.64
28.05,-20.04,-21.69,-20.04,-21.68,6.00,5.81,6.32,-14.04,-14.04,1.65
28.33,-19.91,-21.56,-19.92,-21.56,6.00,5.81,6.43,-13.91,-13.92,1.65
28.62,-19.78,-21.43,-19.79,-21.43,6.00,5.81,6.53,-13.78,-13.79,1.65
28.90,-19.64,-21.28,-19.62,-21.27,6.00,5.81,6.63,-13.64,-13.62,1.65
29.19,-19.43,-21.07,-19.42,-21.06,6.00,5.80,6.72,-13.43,-13.42,1.64
29.48,-19.17,-20.81,-19.17,-20.81,6.00,5.80,6.80,-13.17,-13.17,1.64
29.78,-18.91,-20.55,-18.92,-20.56,6.00,5.80,6.88,-12.91,-12.92,1.64
30.08,-18.67,-20.31,-18.69,-20.33,6.00,5.80,6.95,-12.67,-12.69,1.63
30.38,-18.50,-20.13,-18.50,-20.13,6.00,5.80,7.01,-12.50,-12.50,1.63
30.68,-18.33,-19.96,-18.33,-19.96,6.00,5.80,7.06,-12.33,-12.33,1.63
30.99,-18.17,-19.79,-18.16,-19.78,6.00,5.79,7.10,-12.17,-12.16,1.62
31.30,-17.98,-19.60,-17.98,-19.59,6.00,5.79,7.13,-11.98,-11.98,1.62
31.61,-17.79,-19.40,-17.79,-19.40,6.00,5.79,7.15,-11.79,-11.79,1.61
31.93,-17.59,-19.20,-17.61,-19.21,6.00,5.79,7.16,-11.59,-11.61,1.60
32.24,-17.44,-19.03,-17.44,-19.04,6.00,5.79,7.17,-11.44,-11.44,1.59
32.57,-17.30,-18.88,-17.29,-18.88,6.00,5.79,7.16,-11.30,-11.29,1.58
32.89,-17.16,-18.74,-17.15,-18.73,6.00,5.79,7.14,-11.16,-11.15,1.58
33.22,-17.00,-18.58,-17.00,-18.57,6.00,5.79,7.12,-11.00,-11.00,1.58
33.55,-16.85,-18.42,-16.84,-18.41,6.00,5.79,7.09,-10.85,-10.84,1.57
33.89,-16.69,-18.25,-16.71,-18.26,6.00,5.79,7.06,-10.69,-10.71,1.56
34.23,-16.59,-18.14,-16.59,-18.14,6.00,5.79,7.01,-10.59,-10.59,1.55
34.57,-16.51,-18.05,-16.50,-18.05,6.00,5.79,6.97,-10.51,-10.50,1.54
34.92,-16.43,-17.97,-16.43,-17.97,6.00,5.79,6.92,-10.43,-10.43,1.54
35.27,-16.35,-17.89,-16.35,-17.89,6.00,5.79,6.86,-10.35,-10.35,1.54
35.62,-16.27,-17.81,-16.27,-17.81,6.00,5.79,6.80,-10.27,-10.27,1.54
35.97,-16.20,-17.72,-16.19,-17.72,6.00,5.79,6.74,-10.20,-10.19,1.52
36.33,-16.10,-17.62,-16.12,-17.64,6.00,5.80,6.68,-10.10,-10.12,1.52
36.70,-16.01,-17.53,-16.01,-17.53,6.00,5.80,6.61,-10.01,-10.01,1.52
37.06,-15.89,-17.40,-15.84,-17.36,6.00,5.80,6.55,-9.89,-9.84,1.52
37.43,-15.64,-17.15,-15.64,-17.15,6.00,5.81,6.49,-9.64,-9.64,1.51
37.81,-15.39,-16.91,-15.42,-16.94,6.00,5.81,6.42,-9.39,-9.42,1.52
38.19,-15.23,-16.75,-15.25,-16.77,6.00,5.81,6.36,-9.23,-9.25,1.52
38.57,-15.14,-16.66,-15.13,-16.65,6.00,5.82,6.30,-9.14,-9.13,1.52
38.95,-15.05,-16.56,-15.02,-16.53,6.00,5.82,6.24,-9.05,-9.02,1.51
39.34,-14.87,-16.38,-14.87,-16.38,6.00,5.83,6.19,-8.87,-8.87,1.51
39.74,-14.68,-16.19,-14.69,-16.20,6.00,5.83,6.14,-8.68,-8.69,1.51
40.14,-14.50,-16.01,-14.50,-16.01,6.00,5.84,6.09,-8.50,-8.50,1.50
40.54,-14.33,-15.83,-14.33,-15.83,6.00,5.85,6.04,-8.33,-8.33,1.50
40.94,-14.15,-15.65,-14.15,-15.65,6.00,5.85,6.00,-8.15,-8.15,1.50
41.35,-13.99,-15.47,-13.98,-15.47,6.00,5.86,5.96,-7.99,-7.98,1.48
41.76,-13.82,-15.29,-13.82,-15.30,6.00,5.87,5.92,-7.82,-7.82,1.47
42.18,-13.68,-15.14,-13.69,-15.15,6.00,5.87,5.89,-7.68,-7.69,1.46
42.60,-13.56,-15.00,-13.56,-15.00,6.00,5.88,5.86,-7.56,-7.56,1.44
43.03,-13.44,-14.87,-13.41,-14.83,6.00,5.89,5.84,-7.44,-7.41,1.43
43.46,-13.24,-14.64,-13.24,-14.65,6.00,5.90,5.82,-7.24,-7.24,1.40
43.90,-13.04,-14.43,-13.07,-14.46,6.00,5.90,5.81,-7.04,-7.07,1.39
44.33,-12.91,-14.28,-12.92,-14.29,6.00,5.91,5.80,-6.91,-6.92,1.37
44.78,-12.81,-14.17,-12.80,-14.16,6.00,5.92,5.79,-6.81,-6.80,1.36
45.23,-12.69,-14.04,-12.70,-14.04,6.00,5.93,5.79,-6.69,-6.70,1.34
45.68,-12.56,-13.89,-12.55,-13.89,6.00,5.94,5.79,-6.56,-6.55,1.33
46.13,-12.39,-13.71,-12.35,-13.67,6.00,5.95,5.80,-6.39,-6.35,1.32
46.60,-12.13,-13.45,-12.14,-13.45,6.00,5.96,5.81,-6.13,-6.14,1.32
47.06,-11.90,-13.21,-11.97,-13.28,6.00,5.97,5.83,-5.90,-5.97,1.31
47.53,-11.86,-13.17,-11.85,-13.16,6.00,5.98,5.85,-5.86,-5.85,1.31
48.01,-11.81,-13.12,-11.77,-13.08,6.00,5.99,5.87,-5.81,-5.77,1.31
48.49,-11.65,-12.96,-11.66,-12.98,6.00,6.00,5.90,-5.65,-5.66,1.31
48.97,-11.50,-12.82,-11.46,-12.77,6.00,6.01,5.93,-5.50,-5.46,1.32
49.46,-11.24,-12.56,-11.23,-12.55,6.00,6.02,5.96,-5.24,-5.23,1.32
49.96,-10.98,-12.30,-11.06,-12.38,6.00,6.02,6.00,-4.98,-5.06,1.32
50.46,-10.95,-12.28,-10.95,-12.28,6.00,6.03,6.04,-4.95,-4.95,1.33
50.96,-10.94,-12.28,-10.92,-12.25,6.00,6.04,6.08,-4.94,-4.92,1.34
51.47,-10.89,-12.23,-10.90,-12.23,6.00,6.05,6.12,-4.89,-4.90,1.34
51.99,-10.84,-12.17,-10.80,-12.13,6.00,6.06,6.17,-4.84,-4.80,1.33
52.51,-10.66,-11.98,-10.66,-11.98,6.00,6.07,6.22,-4.66,-4.66,1.32
53.03,-10.47,-11.78,-10.50,-11.81,6.00,6.08,6.27,-4.47,-4.50,1.31
53.56,-10.36,-11.66,-10.36,-11.67,6.00,6.08,6.31,-4.36,-4.36,1.30
54.10,-10.26,-11.55,-10.30,-11.59,6.00,6.09,6.36,-4.26,-4.30,1.29
54.64,-10.26,-11.53,-10.23,-11.50,6.00,6.10,6.41,-4.26,-4.23,1.27
55.18,-10.17,-11.42,-10.11,-11.36,6.00,6.10,6.46,-4.17,-4.11,1.25
55.74,-9.92,-11.15,-9.95,-11.18,6.00,6.11,6.50,-3.92,-3.95,1.23
56.29,-9.73,-10.93,-9.76,-10.96,6.00,6.11,6.54,-3.73,-3.76,1.20
56.86,-9.60,-10.78,-9.60,-10.78,6.00,6.12,6.58,-3.60,-3.60,1.18
57.42,-9.47,-10.62,-9.46,-10.61,6.00,6.12,6.62,-3.47,-3.46,1.15
58.00,-9.33,-10.44,-9.28,-10.39,6.00,6.13,6.65,-3.33,-3.28,1.11
58.58,-9.07,-10.15,-9.10,-10.18,6.00,6.13,6.68,-3.07,-3.10,1.08
59.16,-8.89,-9.94,-8.96,-10.01,6.00,6.13,6.70,-2.89,-2.96,1.05
59.76,-8.89,-9.90,-8.85,-9.87,6.00,6.13,6.71,-2.89,-2.85,1.01
60.35,-8.81,-9.79,-8.78,-9.76,6.00,6.13,6.72,-2.81,-2.78,0.98
60.96,-8.67,-9.62,-8.68,-9.63,6.00,6.13,6.73,-2.67,-2.68,0.95
61.57,-8.53,-9.45,-8.54,-9.46,6.00,6.13,6.72,-2.53,-2.54,0.92
62.18,-8.39,-9.28,-8.39,-9.28,6.00,6.13,6.71,-2.39,-2.39,0.89
62.80,-8.25,-9.10,-8.23,-9.08,6.00,6.13,6.69,-2.25,-2.23,0.85
63.43,-8.07,-8.88,-8.06,-8.87,6.00,6.12,6.67,-2.07,-2.06,0.81
64.07,-7.87,-8.65,-7.90,-8.68,6.00,6.12,6.64,-1.87,-1.90,0.78
64.71,-7.79,-8.53,-7.81,-8.55,6.00,6.12,6.60,-1.79,-1.81,0.74
65.35,-7.75,-8.45,-7.76,-8.46,6.00,6.11,6.55,-1.75,-1.76,0.70
66.01,-7.75,-8.42,-7.70,-8.37,6.00,6.10,6.50,-1.75,-1.70,0.67
66.67,-7.60,-8.24,-7.59,-8.23,6.00,6.10,6.44,-1.60,-1.59,0.64
67.33,-7.44,-8.06,-7.46,-8.08,6.00,6.09,6.38,-1.44,-1.46,0.62
68.01,-7.29,-7.88,-7.34,-7.93,6.00,6.08,6.31,-1.29,-1.34,0.59
68.69,-7.28,-7.85,-7.24,-7.82,6.00,6.07,6.23,-1.28,-1.24,0.57
69.37,-7.19,-7.75,-7.17,-7.73,6.00,6.06,6.16,-1.19,-1.17,0.56
70.07,-7.07,-7.62,-7.12,-7.67,6.00,6.05,6.08,-1.07,-1.12,0.55
70.77,-7.07,-7.61,-7.08,-7.62,6.00,6.04,5.99,-1.07,-1.08,0.54
71.48,-7.07,-7.59,-7.04,-7.56,6.00,6.03,5.91,-1.07,-1.04,0.52
72.19,-7.02,-7.53,-6.98,-7.50,6.00,6.02,5.82,-1.02,-0.98,0.51
72.91,-6.86,-7.37,-6.91,-7.41,6.00,6.00,5.73,-0.86,-0.91,0.51
73.64,-6.84,-7.33,-6.85,-7.34,6.00,5.99,5.64,-0.84,-0.85,0.49
74.38,-6.84,-7.32,-6.84,-7.31,6.00,5.98,5.55,-0.84,-0.84,0.48
75.12,-6.84,-7.30,-6.84,-7.30,6.00,5.97,5.46,-0.84,-0.84,0.46
75.87,-6.84,-7.27,-6.81,-7.24,6.00,5.96,5.37,-0.84,-0.81,0.43
76.63,-6.73,-7.15,-6.74,-7.16,6.00,5.95,5.28,-0.73,-0.74,0.42
77.40,-6.62,-7.02,-6.62,-7.02,6.00,5.94,5.19,-0.62,-0.62,0.40
78.17,-6.52,-6.90,-6.51,-6.89,6.00,5.93,5.11,-0.52,-0.51,0.38
78.95,-6.39,-6.74,-6.43,-6.78,6.00,5.93,5.03,-0.39,-0.43,0.35
79.74,-6.38,-6.71,-6.36,-6.69,6.00,5.92,4.95,-0.38,-0.36,0.33
80.54,-6.30,-6.61,-6.29,-6.60,6.00,5.91,4.87,-0.30,-0.29,0.31
81.35,-6.21,-6.50,-6.22,-6.51,6.01,5.91,4.79,-0.20,-0.21,0.29
82.16,-6.13,-6.40,-6.12,-6.39,6.02,5.90,4.72,-0.11,-0.11,0.27
82.98,-6.05,-6.30,-6.04,-6.29,6.02,5.89,4.65,-0.03,-0.02,0.25
83.81,-5.95,-6.19,-5.98,-6.21,6.02,5.87,4.58,0.07,0.04,0.24
84.65,-5.93,-6.14,-5.92,-6.13,6.00,5.85,4.51,0.07,0.08,0.21
85.50,-5.87,-6.07,-5.85,-6.05,5.96,5.82,4.45,0.09,0.11,0.20
86.35,-5.76,-5.95,-5.79,-5.97,5.90,5.78,4.39,0.14,0.11,0.19
87.22,-5.69,-5.86,-5.70,-5.87,5.82,5.73,4.34,0.13,0.12,0.17
88.09,-5.63,-5.79,-5.59,-5.75,5.74,5.66,4.29,0.11,0.14,0.16
88.97,-5.48,-5.62,-5.47,-5.61,5.64,5.59,4.24,0.16,0.17,0.14
89.86,-5.32,-5.44,-5.36,-5.48,5.53,5.51,4.19,0.21,0.17,0.12
90.76,-5.25,-5.35,-5.27,-5.37,5.42,5.43,4.15,0.17,0.15,0.10
91.66,-5.24,-5.32,-5.20,-5.29,5.30,5.34,4.11,0.07,0.10,0.08
92.58,-5.16,-5.23,-5.15,-5.22,5.20,5.25,4.07,0.04,0.05,0.07
93.51,-5.06,-5.11,-5.09,-5.14,5.11,5.15,4.04,0.05,0.02,0.05
94.44,-5.01,-5.04,-4.99,-5.02,5.02,5.05,4.01,0.01,0.03,0.03
95.39,-4.92,-4.93,-4.90,-4.92,4.93,4.96,3.98,0.01,0.03,0.01
96.34,-4.79,-4.78,-4.84,-4.84,4.84,4.86,3.96,0.05,-0.00,-0.01
97.30,-4.79,-4.77,-4.77,-4.74,4.75,4.77,3.94,-0.04,-0.02,-0.02
98.28,-4.74,-4.70,-4.70,-4.66,4.65,4.67,3.92,-0.09,-0.05,-0.04
99.26,-4.59,-4.53,-4.64,-4.58,4.55,4.58,3.90,-0.04,-0.09,-0.06
100.25,-4.55,-4.46,-4.54,-4.45,4.45,4.48,3.89,-0.10,-0.09,-0.09
101.25,-4.48,-4.37,-4.45,-4.33,4.35,4.38,3.87,-0.13,-0.10,-0.11
102.27,-4.33,-4.19,-4.39,-4.25,4.24,4.29,3.86,-0.09,-0.15,-0.14
103.29,-4.33,-4.16,-4.31,-4.14,4.13,4.19,3.85,-0.20,-0.18,-0.17
104.32,-4.28,-4.07,-4.24,-4.03,4.03,4.09,3.84,-0.25,-0.21,-0.21
105.37,-4.16,-3.91,-4.18,-3.94,3.94,3.99,3.84,-0.22,-0.24,-0.25
106.42,-4.10,-3.81,-4.12,-3.83,3.86,3.89,3.83,-0.24,-0.26,-0.29
107.48,-4.10,-3.76,-4.09,-3.75,3.79,3.78,3.83,-0.31,-0.30,-0.34
108.56,-4.10,-3.70,-4.09,-3.70,3.73,3.68,3.82,-0.37,-0.37,-0.40
109.64,-4.10,-3.66,-4.10,-3.66,3.65,3.58,3.82,-0.45,-0.45,-0.44
110.74,-4.10,-3.61,-4.10,-3.61,3.58,3.47,3.81,-0.52,-0.52,-0.49
111.85,-4.10,-3.56,-4.12,-3.57,3.51,3.37,3.81,-0.59,-0.61,-0.54
112.97,-4.10,-3.50,-4.08,-3.48,3.44,3.27,3.80,-0.66,-0.64,-0.60
114.10,-4.06,-3.41,-4.01,-3.36,3.36,3.17,3.80,-0.70,-0.65,-0.65
115.24,-3.87,-3.17,-3.94,-3.24,3.27,3.08,3.79,-0.60,-0.66,-0.70
116.39,-3.87,-3.12,-3.88,-3.13,3.18,2.99,3.78,-0.69,-0.70,-0.75
117.55,-3.87,-3.08,-3.87,-3.08,3.08,2.92,3.77,-0.79,-0.79,-0.79
118.73,-3.87,-3.04,-3.86,-3.03,2.98,2.85,3.76,-0.89,-0.88,-0.83
119.92,-3.87,-3.00,-3.80,-2.93,2.90,2.79,3.74,-0.97,-0.90,-0.87
121.12,-3.65,-2.75,-3.72,-2.82,2.82,2.75,3.72,-0.83,-0.90,-0.90
122.33,-3.65,-2.71,-3.66,-2.72,2.76,2.71,3.70,-0.89,-0.90,-0.94
123.55,-3.65,-2.68,-3.63,-2.66,2.70,2.69,3.68,-0.95,-0.93,-0.97
124.79,-3.65,-2.65,-3.65,-2.65,2.65,2.67,3.66,-1.00,-1.00,-1.00
126.03,-3.65,-2.62,-3.65,-2.62,2.60,2.66,3.63,-1.05,-1.05,-1.03
127.29,-3.65,-2.60,-3.65,-2.59,2.56,2.66,3.60,-1.09,-1.09,-1.05
128.57,-3.65,-2.56,-3.65,-2.57,2.54,2.67,3.56,-1.11,-1.11,-1.09
129.85,-3.65,-2.54,-3.64,-2.53,2.53,2.67,3.53,-1.12,-1.10,-1.11
131.15,-3.65,-2.52,-3.65,-2.51,2.54,2.68,3.49,-1.11,-1.11,-1.13
132.46,-3.65,-2.49,-3.70,-2.53,2.56,2.69,3.45,-1.09,-1.14,-1.17
133.79,-3.79,-2.59,-3.76,-2.57,2.60,2.70,3.40,-1.19,-1.16,-1.20
135.12,-3.88,-2.66,-3.85,-2.63,2.66,2.71,3.35,-1.22,-1.20,-1.22
136.48,-3.93,-2.68,-3.97,-2.72,2.73,2.72,3.31,-1.20,-1.24,-1.25
137.84,-4.08,-2.80,-4.08,-2.80,2.82,2.72,3.26,-1.26,-1.26,-1.28
139.22,-4.22,-2.92,-4.20,-2.90,2.90,2.72,3.20,-1.32,-1.30,-1.30
140.61,-4.32,-2.99,-4.34,-3.01,2.98,2.72,3.15,-1.34,-1.35,-1.33
142.02,-4.44,-3.08,-4.44,-3.08,3.05,2.72,3.10,-1.39,-1.39,-1.36
143.44,-4.53,-3.14,-4.51,-3.13,3.10,2.72,3.04,-1.43,-1.42,-1.38
144.87,-4.56,-3.15,-4.56,-3.14,3.12,2.71,2.99,-1.44,-1.43,-1.41
146.32,-4.56,-3.11,-4.57,-3.12,3.12,2.71,2.93,-1.44,-1.45,-1.45
147.78,-4.56,-3.07,-4.56,-3.08,3.09,2.70,2.87,-1.47,-1.48,-1.49
149.26,-4.56,-3.04,-4.57,-3.05,3.03,2.68,2.82,-1.53,-1.55,-1.52
150.75,-4.56,-2.99,-4.56,-2.99,2.95,2.67,2.76,-1.61,-1.60,-1.57
152.26,-4.55,-2.94,-4.50,-2.89,2.87,2.65,2.70,-1.68,-1.63,-1.61
153.78,-4.40,-2.74,-4.43,-2.77,2.79,2.64,2.65,-1.61,-1.64,-1.66
155.32,-4.34,-2.62,-4.36,-2.65,2.70,2.62,2.59,-1.64,-1.66,-1.72
156.88,-4.33,-2.56,-4.32,-2.55,2.61,2.60,2.54,-1.72,-1.71,-1.77
158.44,-4.33,-2.52,-4.34,-2.52,2.51,2.58,2.49,-1.82,-1.83,-1.81
160.03,-4.33,-2.48,-4.33,-2.48,2.42,2.56,2.44,-1.91,-1.91,-1.85
161.63,-4.33,-2.44,-4.28,-2.39,2.34,2.53,2.38,-1.99,-1.94,-1.89
163.24,-4.19,-2.27,-4.21,-2.28,2.27,2.51,2.33,-1.92,-1.93,-1.92
164.88,-4.10,-2.15,-4.14,-2.18,2.22,2.48,2.29,-1.88,-1.92,-1.95
166.53,-4.10,-2.13,-4.09,-2.12,2.17,2.45,2.24,-1.93,-1.92,-1.97
168.19,-4.10,-2.11,-4.09,-2.10,2.13,2.42,2.19,-1.97,-1.96,-1.99
169.87,-4.10,-2.10,-4.10,-2.10,2.10,2.39,2.15,-2.00,-2.00,-2.00
171.57,-4.10,-2.10,-4.10,-2.10,2.10,2.36,2.11,-2.00,-2.00,-2.00
173.29,-4.10,-2.10,-4.10,-2.10,2.11,2.33,2.06,-1.99,-1.99,-2.00
175.02,-4.10,-2.11,-4.10,-2.11,2.12,2.30,2.02,-1.98,-1.98,-1.99
176.77,-4.10,-2.12,-4.10,-2.12,2.12,2.27,1.99,-1.98,-1.98,-1.98
178.54,-4.10,-2.14,-4.11,-2.15,2.12,2.24,1.95,-1.98,-1.99,-1.96
180.32,-4.10,-2.15,-4.11,-2.16,2.11,2.20,1.91,-1.99,-2.00,-1.95
182.13,-4.10,-2.17,-4.06,-2.13,2.08,2.17,1.88,-2.02,-1.98,-1.93
183.95,-4.01,-2.08,-4.00,-2.07,2.06,2.13,1.85,-1.95,-1.94,-1.93
185.79,-3.88,-1.96,-3.92,-2.00,2.03,2.10,1.82,-1.85,-1.89,-1.92
187.65,-3.87,-1.96,-3.87,-1.95,2.00,2.06,1.79,-1.87,-1.87,-1.91
189.52,-3.87,-1.95,-3.86,-1.94,1.98,2.03,1.76,-1.89,-1.88,-1.92
191.42,-3.87,-1.95,-3.87,-1.95,1.95,1.99,1.73,-1.92,-1.92,-1.92
193.33,-3.87,-1.94,-3.87,-1.94,1.94,1.95,1.70,-1.93,-1.93,-1.93
195.27,-3.87,-1.94,-3.87,-1.94,1.94,1.92,1.68,-1.93,-1.93,-1.93
197.22,-3.87,-1.94,-3.87,-1.93,1.93,1.88,1.66,-1.94,-1.94,-1.93
199.19,-3.87,-1.92,-3.87,-1.92,1.92,1.85,1.63,-1.95,-1.95,-1.95
201.18,-3.87,-1.91,-3.88,-1.92,1.90,1.81,1.61,-1.97,-1.98,-1.96
203.19,-3.87,-1.90,-3.88,-1.91,1.86,1.77,1.59,-2.01,-2.01,-1.97
205.23,-3.87,-1.89,-3.84,-1.86,1.82,1.74,1.57,-2.05,-2.02,-1.98
207.28,-3.79,-1.79,-3.78,-1.78,1.77,1.70,1.55,-2.02,-2.00,-2.00
209.35,-3.68,-1.66,-3.71,-1.70,1.73,1.67,1.54,-1.95,-1.98,-2.02
211.44,-3.65,-1.63,-3.66,-1.63,1.68,1.63,1.52,-1.97,-1.98,-2.02
213.56,-3.65,-1.61,-3.64,-1.60,1.64,1.60,1.50,-2.01,-2.00,-2.04
215.69,-3.65,-1.60,-3.65,-1.59,1.60,1.57,1.49,-2.05,-2.05,-2.05
217.85,-3.65,-1.58,-3.65,-1.58,1.57,1.53,1.47,-2.08,-2.08,-2.07
220.03,-3.65,-1.57,-3.65,-1.57,1.56,1.50,1.45,-2.09,-2.09,-2.08
222.23,-3.65,-1.56,-3.65,-1.56,1.55,1.47,1.44,-2.10,-2.10,-2.09
224.45,-3.65,-1.55,-3.65,-1.55,1.55,1.43,1.42,-2.10,-2.10,-2.10
226.70,-3.65,-1.53,-3.65,-1.53,1.54,1.40,1.41,-2.11,-2.11,-2.12
228.96,-3.65,-1.53,-3.65,-1.52,1.54,1.37,1.39,-2.11,-2.11,-2.12
231.25,-3.65,-1.51,-3.65,-1.51,1.52,1.34,1.38,-2.13,-2.13,-2.14
233.57,-3.65,-1.50,-3.65,-1.50,1.50,1.31,1.36,-2.15,-2.15,-2.15
235.90,-3.65,-1.50,-3.67,-1.51,1.47,1.28,1.34,-2.18,-2.20,-2.15
238.26,-3.65,-1.48,-3.65,-1.48,1.43,1.25,1.33,-2.22,-2.22,-2.17
240.64,-3.65,-1.48,-3.59,-1.42,1.39,1.22,1.31,-2.26,-2.20,-2.17
243.05,-3.49,-1.31,-3.52,-1.34,1.35,1.19,1.29,-2.14,-2.17,-2.18
245.48,-3.42,-1.23,-3.45,-1.27,1.32,1.16,1.27,-2.10,-2.14,-2.19
247.93,-3.42,-1.23,-3.41,-1.22,1.29,1.13,1.26,-2.13,-2.12,-2.19
250.41,-3.42,-1.23,-3.41,-1.22,1.26,1.10,1.24,-2.16,-2.16,-2.19
252.92,-3.42,-1.22,-3.42,-1.22,1.22,1.07,1.21,-2.20,-2.20,-2.20
255.45,-3.42,-1.22,-3.42,-1.22,1.19,1.05,1.19,-2.23,-2.23,-2.20
258.00,-3.42,-1.21,-3.44,-1.23,1.16,1.02,1.17,-2.26,-2.27,-2.21
260.58,-3.42,-1.21,-3.41,-1.19,1.13,0.99,1.15,-2.29,-2.27,-2.21
263.19,-3.40,-1.17,-3.34,-1.12,1.10,0.97,1.13,-2.30,-2.25,-2.23
265.82,-3.21,-0.98,-3.27,-1.04,1.06,0.94,1.10,-2.15,-2.21,-2.23
268.48,-3.19,-0.96,-3.20,-0.97,1.02,0.92,1.08,-2.17,-2.19,-2.23
271.16,-3.19,-0.94,-3.17,-0.93,0.98,0.89,1.05,-2.21,-2.19,-2.25
273.87,-3.19,-0.94,-3.19,-0.94,0.96,0.87,1.03,-2.23,-2.23,-2.25
276.61,-3.19,-0.94,-3.19,-0.93,0.94,0.84,1.00,-2.25,-2.25,-2.25
279.38,-3.19,-0.92,-3.19,-0.93,0.93,0.82,0.97,-2.26,-2.26,-2.27
282.17,-3.19,-0.92,-3.19,-0.92,0.91,0.80,0.94,-2.28,-2.28,-2.27
284.99,-3.19,-0.92,-3.20,-0.93,0.89,0.77,0.92,-2.30,-2.31,-2.27
287.84,-3.19,-0.91,-3.19,-0.92,0.87,0.75,0.89,-2.32,-2.33,-2.28
290.72,-3.19,-0.91,-3.15,-0.87,0.84,0.73,0.86,-2.35,-2.32,-2.28
293.63,-3.08,-0.80,-3.08,-0.80,0.80,0.71,0.83,-2.28,-2.28,-2.28
296.57,-2.98,-0.70,-3.01,-0.73,0.77,0.69,0.80,-2.21,-2.24,-2.28
299.53,-2.96,-0.67,-2.96,-0.67,0.74,0.66,0.78,-2.22,-2.22,-2.29
302.53,-2.96,-0.66,-2.95,-0.66,0.70,0.64,0.75,-2.26,-2.25,-2.30
305.55,-2.96,-0.66,-2.96,-0.66,0.66,0.62,0.72,-2.30,-2.30,-2.30
308.61,-2.96,-0.66,-2.97,-0.67,0.62,0.60,0.69,-2.34,-2.36,-2.30
311.69,-2.96,-0.65,-2.96,-0.65,0.58,0.58,0.66,-2.38,-2.38,-2.31
314.81,-2.96,-0.63,-2.91,-0.58,0.55,0.56,0.63,-2.41,-2.36,-2.33
317.96,-2.82,-0.48,-2.84,-0.50,0.51,0.54,0.61,-2.31,-2.33,-2.34
321.14,-2.74,-0.38,-2.77,-0.42,0.47,0.52,0.58,-2.27,-2.30,-2.36
324.35,-2.74,-0.37,-2.73,-0.36,0.41,0.50,0.55,-2.33,-2.32,-2.37
327.59,-2.74,-0.36,-2.74,-0.36,0.35,0.48,0.52,-2.39,-2.39,-2.38
330.87,-2.74,-0.34,-2.74,-0.35,0.29,0.46,0.50,-2.45,-2.45,-2.40
334.18,-2.74,-0.33,-2.69,-0.29,0.24,0.44,0.47,-2.50,-2.45,-2.41
337.52,-2.61,-0.19,-2.63,-0.21,0.20,0.42,0.44,-2.41,-2.42,-2.42
340.90,-2.53,-0.11,-2.56,-0.13,0.17,0.40,0.42,-2.36,-2.38,-2.42
344.30,-2.51,-0.08,-2.51,-0.08,0.14,0.38,0.39,-2.37,-2.36,-2.43
347.75,-2.51,-0.08,-2.50,-0.07,0.11,0.36,0.36,-2.40,-2.39,-2.43
351.23,-2.51,-0.08,-2.51,-0.07,0.07,0.34,0.34,-2.44,-2.43,-2.43
354.74,-2.51,-0.08,-2.53,-0.09,0.04,0.33,0.31,-2.47,-2.49,-2.43
358.28,-2.51,-0.07,-2.51,-0.07,0.01,0.31,0.29,-2.50,-2.50,-2.44
361.87,-2.51,-0.08,-2.45,-0.02,-0.02,0.29,0.26,-2.53,-2.47,-2.43
365.49,-2.34,0.09,-2.38,0.05,-0.05,0.27,0.24,-2.39,-2.42,-2.43
369.14,-2.29,0.14,-2.31,0.12,-0.07,0.25,0.21,-2.36,-2.39,-2.43
372.83,-2.28,0.15,-2.27,0.16,-0.10,0.23,0.19,-2.38,-2.37,-2.43
376.56,-2.28,0.14,-2.28,0.15,-0.13,0.22,0.16,-2.41,-2.41,-2.42
380.33,-2.28,0.14,-2.28,0.14,-0.15,0.20,0.14,-2.43,-2.42,-2.42
384.13,-2.28,0.14,-2.28,0.14,-0.15,0.18,0.12,-2.43,-2.43,-2.42
387.97,-2.28,0.14,-2.28,0.14,-0.14,0.16,0.09,-2.42,-2.42,-2.42
391.85,-2.28,0.14,-2.28,0.14,-0.14,0.14,0.07,-2.42,-2.42,-2.42
395.77,-2.28,0.15,-2.28,0.14,-0.14,0.13,0.04,-2.42,-2.42,-2.43
399.73,-2.28,0.14,-2.29,0.13,-0.16,0.11,0.02,-2.44,-2.45,-2.42
403.72,-2.28,0.14,-2.28,0.13,-0.18,0.09,-0.00,-2.46,-2.46,-2.42
407.76,-2.28,0.14,-2.23,0.18,-0.21,0.07,-0.03,-2.49,-2.44,-2.42
411.84,-2.15,0.27,-2.16,0.26,-0.24,0.05,-0.05,-2.39,-2.40,-2.42
415.96,-2.06,0.36,-2.09,0.33,-0.28,0.03,-0.07,-2.34,-2.38,-2.42
420.12,-2.05,0.37,-2.05,0.37,-0.34,0.02,-0.09,-2.39,-2.39,-2.42
