frequency,raw,error,smoothed,error_smoothed,equalization,parametric_eq,fixed_band_eq,equalized_raw,equalized_smoothed,target
20.00,-8.68,-12.58,-8.68,-12.58,6.00,5.73,2.59,-2.68,-2.68,3.90
20.20,-8.63,-12.54,-8.63,-12.54,6.00,5.78,2.66,-2.63,-2.63,3.91
20.40,-8.57,-12.49,-8.58,-12.49,6.00,5.82,2.74,-2.57,-2.58,3.92
20.61,-8.52,-12.44,-8.52,-12.44,6.00,5.86,2.81,-2.52,-2.52,3.92
20.81,-8.47,-12.40,-8.47,-12.39,6.00,5.90,2.89,-2.47,-2.47,3.92
21.02,-8.41,-12.34,-8.41,-12.33,6.00,5.93,2.97,-2.41,-2.41,3.92
21.23,-8.33,-12.27,-8.33,-12.26,6.00,5.96,3.06,-2.33,-2.33,3.93
21.44,-8.25,-12.18,-8.25,-12.19,6.00,5.99,3.14,-2.25,-2.25,3.93
21.66,-8.17,-12.11,-8.17,-12.11,6.00,6.02,3.23,-2.17,-2.17,3.93
21.87,-8.10,-12.03,-8.10,-12.04,6.00,6.04,3.33,-2.10,-2.10,3.93
22.09,-8.02,-11.96,-8.02,-11.96,6.00,6.06,3.42,-2.02,-2.02,3.94
22.31,-7.94,-11.88,-7.94,-11.88,6.00,6.08,3.52,-1.94,-1.94,3.94
22.54,-7.85,-11.79,-7.85,-11.79,6.00,6.09,3.62,-1.85,-1.85,3.93
22.76,-7.77,-11.69,-7.77,-11.70,6.00,6.10,3.72,-1.77,-1.77,3.92
22.99,-7.69,-11.61,-7.69,-11.61,6.00,6.11,3.82,-1.69,-1.69,3.92
23.22,-7.62,-11.54,-7.62,-11.54,6.00,6.12,3.93,-1.62,-1.62,3.92
23.45,-7.54,-11.45,-7.54,-11.46,6.00,6.12,4.04,-1.54,-1.54,3.91
23.69,-7.47,-11.38,-7.47,-11.38,6.00,6.13,4.15,-1.47,-1.47,3.91
23.92,-7.39,-11.30,-7.39,-11.30,6.00,6.13,4.26,-1.39,-1.39,3.91
24.16,-7.32,-11.23,-7.32,-11.23,6.00,6.13,4.38,-1.32,-1.32,3.91
24.40,-7.24,-11.15,-7.24,-11.15,6.00,6.14,4.50,-1.24,-1.24,3.91
24.65,-7.16,-11.07,-7.16,-11.07,6.00,6.14,4.62,-1.16,-1.16,3.91
24.89,-7.08,-10.99,-7.09,-11.00,6.00,6.14,4.74,-1.08,-1.09,3.91
25.14,-7.02,-10.93,-7.03,-10.93,6.00,6.14,4.86,-1.02,-1.03,3.91
25.39,-6.98,-10.88,-6.98,-10.88,6.00,6.14,4.99,-0.98,-0.98,3.90
25.65,-6.93,-10.83,-6.93,-10.83,6.00,6.14,5.11,-0.93,-0.93,3.90
25.91,-6.89,-10.79,-6.88,-10.78,6.00,6.14,5.24,-0.89,-0.88,3.90
26.16,-6.82,-10.72,-6.82,-10.72,6.00,6.14,5.36,-0.82,-0.82,3.90
26.43,-6.75,-10.65,-6.75,-10.65,6.00,6.14,5.49,-0.75,-0.75,3.90
26.69,-6.68,-10.58,-6.68,-10.58,6.00,6.14,5.61,-0.68,-0.68,3.89
26.96,-6.61,-10.51,-6.61,-10.51,6.00,6.14,5.74,-0.61,-0.61,3.89
27.23,-6.54,-10.44,-6.54,-10.43,6.00,6.14,5.86,-0.54,-0.54,3.89
27.50,-6.46,-10.35,-6.47,-10.36,6.00,6.14,5.98,-0.46,-0.47,3.89
27.77,-6.39,-10.28,-6.39,-10.28,6.00,6.14,6.10,-0.39,-0.39,3.89
28.05,-6.31,-10.20,-6.31,-10.20,6.00,6.14,6.21,-0.31,-0.31,3.89
28.33,-6.23,-10.12,-6.23,-10.12,6.00,6.15,6.32,-0.23,-0.23,3.89
28.62,-6.14,-10.03,-6.14,-10.03,6.00,6.15,6.42,-0.14,-0.14,3.89
28.90,-6.05,-9.95,-6.05,-9.95,6.00,6.16,6.52,-0.05,-0.05,3.90
29.19,-5.96,-9.86,-5.96,-9.86,6.00,6.16,6.61,0.04,0.04,3.90
29.48,-5.88,-9.78,-5.88,-9.78,6.00,6.16,6.70,0.12,0.12,3.90
29.78,-5.79,-9.70,-5.80,-9.70,6.00,6.17,6.78,0.21,0.20,3.91
30.08,-5.72,-9.63,-5.73,-9.63,6.00,6.17,6.85,0.28,0.27,3.91
30.38,-5.66,-9.57,-5.66,-9.56,6.00,6.18,6.91,0.34,0.34,3.90
30.68,-5.60,-9.50,-5.60,-9.50,6.00,6.19,6.97,0.40,0.40,3.90
30.99,-5.54,-9.44,-5.54,-9.44,6.00,6.19,7.01,0.46,0.46,3.90
31.30,-5.48,-9.38,-5.48,-9.38,6.00,6.20,7.05,0.52,0.52,3.90
31.61,-5.42,-9.32,-5.42,-9.32,6.00,6.21,7.08,0.58,0.58,3.90
31.93,-5.35,-9.25,-5.36,-9.25,6.00,6.21,7.09,0.65,0.64,3.90
32.24,-5.29,-9.18,-5.29,-9.18,6.00,6.22,7.10,0.71,0.71,3.89
32.57,-5.22,-9.11,-5.22,-9.10,6.00,6.23,7.11,0.78,0.78,3.89
32.89,-5.15,-9.03,-5.16,-9.04,6.00,6.24,7.10,0.85,0.84,3.88
33.22,-5.09,-8.96,-5.10,-8.97,6.00,6.25,7.09,0.91,0.90,3.87
33.55,-5.04,-8.91,-5.04,-8.90,6.00,6.26,7.07,0.96,0.96,3.87
33.89,-4.98,-8.84,-4.98,-8.84,6.00,6.27,7.04,1.02,1.02,3.86
34.23,-4.91,-8.77,-4.91,-8.77,6.00,6.28,7.01,1.09,1.09,3.86
34.57,-4.85,-8.71,-4.85,-8.70,6.00,6.29,6.97,1.15,1.15,3.86
34.92,-4.78,-8.64,-4.79,-8.64,6.00,6.29,6.93,1.22,1.21,3.85
35.27,-4.73,-8.58,-4.73,-8.58,6.00,6.30,6.89,1.27,1.27,3.85
35.62,-4.69,-8.54,-4.69,-8.54,6.00,6.31,6.84,1.31,1.31,3.85
35.97,-4.64,-8.49,-4.65,-8.50,6.00,6.33,6.79,1.36,1.35,3.85
36.33,-4.63,-8.48,-4.63,-8.48,6.00,6.34,6.74,1.37,1.37,3.85
36.70,-4.61,-8.45,-4.61,-8.45,6.00,6.35,6.69,1.39,1.39,3.84
37.06,-4.59,-8.43,-4.57,-8.41,6.00,6.36,6.64,1.41,1.43,3.84
37.43,-4.50,-8.34,-4.51,-8.35,6.00,6.37,6.59,1.50,1.49,3.84
37.81,-4.42,-8.27,-4.43,-8.27,6.00,6.38,6.54,1.58,1.57,3.85
38.19,-4.35,-8.20,-4.35,-8.20,6.00,6.39,6.49,1.65,1.65,3.84
38.57,-4.29,-8.13,-4.29,-8.14,6.00,6.40,6.44,1.71,1.71,3.84
38.95,-4.24,-8.09,-4.23,-8.08,6.00,6.41,6.40,1.76,1.77,3.85
39.34,-4.17,-8.02,-4.17,-8.02,6.00,6.42,6.36,1.83,1.83,3.84
39.74,-4.10,-7.94,-4.11,-7.95,6.00,6.43,6.32,1.90,1.89,3.84
40.14,-4.03,-7.87,-4.02,-7.86,6.00,6.45,6.28,1.97,1.98,3.84
40.54,-3.94,-7.78,-3.93,-7.77,6.00,6.46,6.25,2.06,2.07,3.83
40.94,-3.84,-7.67,-3.88,-7.71,6.00,6.47,6.23,2.16,2.12,3.83
41.35,-3.84,-7.67,-3.84,-7.67,6.00,6.48,6.20,2.16,2.16,3.83
41.76,-3.85,-7.67,-3.83,-7.65,6.00,6.49,6.18,2.15,2.17,3.81
42.18,-3.83,-7.64,-3.82,-7.63,6.00,6.50,6.17,2.17,2.18,3.81
42.60,-3.79,-7.60,-3.79,-7.60,6.00,6.51,6.16,2.21,2.21,3.81
43.03,-3.75,-7.55,-3.76,-7.57,6.00,6.52,6.15,2.25,2.24,3.80
43.46,-3.75,-7.55,-3.75,-7.54,6.00,6.54,6.15,2.25,2.25,3.80
43.90,-3.75,-7.53,-3.75,-7.53,6.00,6.55,6.15,2.25,2.25,3.78
44.33,-3.75,-7.53,-3.75,-7.53,6.00,6.56,6.16,2.25,2.25,3.78
44.78,-3.75,-7.52,-3.75,-7.53,6.00,6.57,6.17,2.25,2.25,3.77
45.23,-3.75,-7.52,-3.76,-7.53,6.00,6.58,6.19,2.25,2.24,3.77
45.68,-3.75,-7.51,-3.74,-7.51,6.00,6.59,6.21,2.25,2.26,3.76
46.13,-3.72,-7.49,-3.69,-7.46,6.00,6.60,6.24,2.28,2.31,3.77
46.60,-3.63,-7.39,-3.63,-7.40,6.00,6.61,6.27,2.37,2.37,3.76
47.06,-3.55,-7.32,-3.59,-7.36,6.00,6.62,6.31,2.45,2.41,3.77
47.53,-3.58,-7.35,-3.58,-7.35,6.00,6.63,6.35,2.42,2.42,3.77
48.01,-3.61,-7.38,-3.58,-7.35,6.00,6.64,6.39,2.39,2.42,3.77
48.49,-3.58,-7.36,-3.58,-7.36,6.00,6.65,6.44,2.42,2.42,3.78
48.97,-3.55,-7.33,-3.56,-7.34,6.00,6.66,6.49,2.45,2.44,3.78
49.46,-3.55,-7.33,-3.55,-7.33,6.00,6.67,6.54,2.45,2.45,3.78
49.96,-3.55,-7.35,-3.57,-7.36,6.00,6.68,6.60,2.45,2.43,3.80
50.46,-3.61,-7.41,-3.61,-7.41,6.00,6.69,6.66,2.39,2.39,3.80
50.96,-3.68,-7.49,-3.67,-7.48,6.00,6.69,6.72,2.32,2.33,3.81
51.47,-3.72,-7.53,-3.72,-7.53,6.00,6.70,6.79,2.28,2.28,3.81
51.99,-3.75,-7.56,-3.75,-7.56,6.00,6.71,6.86,2.25,2.25,3.81
52.51,-3.75,-7.57,-3.75,-7.57,6.00,6.72,6.92,2.25,2.25,3.81
53.03,-3.75,-7.57,-3.75,-7.57,6.00,6.72,6.99,2.25,2.25,3.82
53.56,-3.75,-7.57,-3.75,-7.57,6.00,6.73,7.06,2.25,2.25,3.82
54.10,-3.75,-7.58,-3.75,-7.58,6.00,6.73,7.12,2.25,2.25,3.83
54.64,-3.75,-7.58,-3.75,-7.58,6.00,6.74,7.19,2.25,2.25,3.83
55.18,-3.75,-7.58,-3.75,-7.57,6.00,6.74,7.25,2.25,2.25,3.83
55.74,-3.75,-7.57,-3.75,-7.57,6.00,6.74,7.31,2.25,2.25,3.81
56.29,-3.75,-7.57,-3.75,-7.57,6.00,6.74,7.36,2.25,2.25,3.81
56.86,-3.75,-7.56,-3.76,-7.57,6.00,6.75,7.41,2.25,2.24,3.81
57.42,-3.75,-7.55,-3.75,-7.56,6.00,6.75,7.45,2.25,2.25,3.80
58.00,-3.75,-7.54,-3.73,-7.52,6.00,6.75,7.49,2.25,2.27,3.79
58.58,-3.69,-7.47,-3.69,-7.47,6.00,6.74,7.52,2.31,2.31,3.78
59.16,-3.63,-7.39,-3.63,-7.40,6.00,6.74,7.54,2.37,2.37,3.76
59.76,-3.57,-7.32,-3.58,-7.32,6.00,6.74,7.55,2.43,2.42,3.75
60.35,-3.55,-7.28,-3.55,-7.28,6.00,6.73,7.55,2.45,2.45,3.72
60.96,-3.55,-7.25,-3.55,-7.25,6.00,6.72,7.53,2.45,2.45,3.70
61.57,-3.58,-7.26,-3.58,-7.26,6.00,6.72,7.51,2.42,2.42,3.67
62.18,-3.63,-7.27,-3.63,-7.27,6.00,6.71,7.48,2.37,2.37,3.64
62.80,-3.69,-7.29,-3.69,-7.29,6.00,6.70,7.43,2.31,2.31,3.60
63.43,-3.75,-7.31,-3.75,-7.31,6.00,6.68,7.37,2.25,2.25,3.56
64.07,-3.82,-7.34,-3.83,-7.35,6.00,6.67,7.30,2.18,2.17,3.52
64.71,-3.92,-7.39,-3.92,-7.39,6.00,6.65,7.22,2.08,2.08,3.47
65.35,-4.02,-7.46,-4.01,-7.45,6.00,6.63,7.12,1.98,1.99,3.43
66.01,-4.11,-7.51,-4.11,-7.50,6.00,6.61,7.02,1.89,1.89,3.40
66.67,-4.20,-7.56,-4.20,-7.56,6.00,6.59,6.91,1.80,1.80,3.36
67.33,-4.31,-7.64,-4.31,-7.64,6.00,6.56,6.78,1.69,1.69,3.33
68.01,-4.44,-7.73,-4.47,-7.76,6.00,6.53,6.65,1.56,1.53,3.29
68.69,-4.67,-7.93,-4.66,-7.92,6.00,6.50,6.51,1.33,1.34,3.26
69.37,-4.89,-8.12,-4.89,-8.11,6.00,6.47,6.36,1.11,1.11,3.22
70.07,-5.11,-8.30,-5.12,-8.31,6.00,6.43,6.21,0.89,0.88,3.19
70.77,-5.34,-8.50,-5.33,-8.49,6.00,6.39,6.05,0.66,0.67,3.16
71.48,-5.53,-8.67,-5.54,-8.67,6.00,6.35,5.89,0.47,0.46,3.14
72.19,-5.69,-8.80,-5.71,-8.81,6.00,6.30,5.72,0.31,0.29,3.10
72.91,-5.86,-8.93,-5.83,-8.90,6.00,6.25,5.55,0.14,0.17,3.07
73.64,-5.90,-8.94,-5.90,-8.94,6.00,6.19,5.38,0.10,0.10,3.04
74.38,-5.89,-8.89,-5.90,-8.90,6.00,6.14,5.20,0.11,0.10,3.00
75.12,-5.84,-8.80,-5.83,-8.79,6.00,6.07,5.03,0.16,0.17,2.96
75.87,-5.73,-8.65,-5.73,-8.65,6.00,6.01,4.85,0.27,0.27,2.92
76.63,-5.63,-8.51,-5.64,-8.52,6.00,5.94,4.67,0.37,0.36,2.88
77.40,-5.57,-8.40,-5.58,-8.42,6.00,5.86,4.49,0.43,0.42,2.83
78.17,-5.57,-8.37,-5.56,-8.35,6.00,5.78,4.32,0.43,0.44,2.79
78.95,-5.59,-8.34,-5.59,-8.33,6.00,5.70,4.14,0.41,0.41,2.74
79.74,-5.64,-8.35,-5.65,-8.35,6.00,5.61,3.96,0.36,0.35,2.71
80.54,-5.76,-8.42,-5.76,-8.42,6.00,5.51,3.79,0.24,0.24,2.66
81.35,-5.93,-8.55,-5.95,-8.57,6.00,5.41,3.61,0.07,0.05,2.61
82.16,-6.17,-8.75,-6.17,-8.75,6.00,5.31,3.44,-0.17,-0.17,2.57
82.98,-6.45,-8.98,-6.40,-8.93,6.00,5.19,3.27,-0.45,-0.40,2.53
83.81,-6.61,-9.10,-6.64,-9.13,6.00,5.08,3.10,-0.61,-0.64,2.49
84.65,-6.84,-9.30,-6.87,-9.32,6.00,4.96,2.93,-0.84,-0.87,2.46
85.50,-7.10,-9.51,-7.10,-9.51,6.00,4.83,2.77,-1.10,-1.10,2.41
86.35,-7.31,-9.68,-7.30,-9.67,6.00,4.70,2.60,-1.31,-1.30,2.37
87.22,-7.42,-9.75,-7.40,-9.73,6.00,4.56,2.44,-1.42,-1.40,2.32
88.09,-7.41,-9.69,-7.40,-9.69,6.00,4.41,2.28,-1.41,-1.40,2.28
88.97,-7.29,-9.54,-7.34,-9.58,6.01,4.26,2.11,-1.29,-1.34,2.24
89.86,-7.17,-9.37,-7.18,-9.38,6.06,4.10,1.96,-1.11,-1.13,2.20
90.76,-6.98,-9.13,-6.90,-9.06,6.12,3.94,1.80,-0.87,-0.79,2.15
91.66,-6.48,-8.59,-6.50,-8.62,6.14,3.77,1.64,-0.34,-0.36,2.12
92.58,-5.92,-8.00,-5.95,-8.02,6.11,3.59,1.49,0.19,0.17,2.08
93.51,-5.33,-7.37,-5.28,-7.31,6.00,3.41,1.34,0.66,0.72,2.03
94.44,-4.59,-6.58,-4.62,-6.61,5.77,3.21,1.18,1.18,1.16,1.99
95.39,-3.88,-5.84,-3.97,-5.92,5.43,3.02,1.04,1.55,1.47,1.96
96.34,-3.34,-5.26,-3.28,-5.20,4.98,2.81,0.89,1.64,1.70,1.92
97.30,-2.65,-4.53,-2.58,-4.46,4.42,2.60,0.74,1.78,1.84,1.88
98.28,-1.80,-3.64,-1.87,-3.70,3.77,2.38,0.59,1.97,1.91,1.83
99.26,-1.09,-2.88,-1.13,-2.92,3.05,2.15,0.45,1.96,1.93,1.79
100.25,-0.49,-2.24,-0.42,-2.18,2.31,1.91,0.31,1.82,1.88,1.75
101.25,0.19,-1.52,0.18,-1.53,1.59,1.66,0.17,1.78,1.77,1.71
102.27,0.80,-0.87,0.71,-0.95,0.96,1.40,0.03,1.75,1.67,1.66
103.29,1.16,-0.46,1.25,-0.37,0.45,1.13,-0.11,1.61,1.70,1.62
104.32,1.63,0.06,1.69,0.12,0.02,0.85,-0.24,1.65,1.71,1.57
105.37,2.14,0.61,1.99,0.46,-0.34,0.56,-0.37,1.80,1.65,1.53
106.42,2.18,0.70,2.13,0.66,-0.63,0.25,-0.50,1.54,1.50,1.48
107.48,2.11,0.68,2.19,0.76,-0.86,-0.06,-0.63,1.25,1.33,1.43
108.56,2.16,0.78,2.28,0.90,-1.03,-0.38,-0.75,1.13,1.25,1.38
109.64,2.50,1.17,2.46,1.12,-1.16,-0.69,-0.87,1.34,1.30,1.33
110.74,2.76,1.47,2.65,1.36,-1.26,-0.99,-0.99,1.50,1.39,1.29
111.85,2.70,1.45,2.74,1.49,-1.38,-1.26,-1.10,1.32,1.36,1.25
112.97,2.75,1.54,2.71,1.50,-1.52,-1.49,-1.22,1.22,1.19,1.21
114.10,2.66,1.48,2.71,1.54,-1.69,-1.68,-1.32,0.97,1.03,1.17
115.24,2.79,1.64,2.85,1.70,-1.85,-1.84,-1.42,0.93,0.99,1.15
116.39,3.07,1.96,3.02,1.91,-2.01,-1.97,-1.52,1.06,1.02,1.11
117.55,3.32,2.23,3.31,2.22,-2.15,-2.09,-1.62,1.17,1.16,1.09
118.73,3.47,2.41,3.52,2.46,-2.30,-2.20,-1.70,1.17,1.22,1.06
119.92,3.76,2.71,3.62,2.58,-2.46,-2.31,-1.79,1.30,1.17,1.05
121.12,3.64,2.61,3.67,2.64,-2.62,-2.42,-1.87,1.02,1.05,1.03
122.33,3.65,2.64,3.73,2.72,-2.77,-2.54,-1.94,0.87,0.96,1.01
123.55,3.81,2.81,3.80,2.80,-2.91,-2.66,-2.01,0.90,0.89,1.00
124.79,4.00,3.02,3.95,2.97,-3.03,-2.79,-2.07,0.96,0.91,0.98
126.03,4.08,3.11,4.10,3.13,-3.14,-2.91,-2.13,0.93,0.95,0.97
127.29,4.21,3.26,4.22,3.27,-3.26,-3.04,-2.18,0.95,0.96,0.95
128.57,4.35,3.41,4.37,3.43,-3.38,-3.18,-2.23,0.97,0.99,0.94
129.85,4.48,3.55,4.48,3.55,-3.49,-3.30,-2.27,0.99,0.99,0.92
131.15,4.61,3.70,4.51,3.60,-3.59,-3.43,-2.31,1.02,0.92,0.91
132.46,4.48,3.59,4.54,3.65,-3.66,-3.55,-2.34,0.82,0.88,0.89
133.79,4.49,3.61,4.55,3.68,-3.71,-3.67,-2.37,0.78,0.84,0.88
135.12,4.66,3.80,4.59,3.73,-3.74,-3.78,-2.39,0.92,0.85,0.86
136.48,4.61,3.76,4.64,3.80,-3.76,-3.89,-2.41,0.85,0.88,0.84
137.84,4.67,3.84,4.60,3.78,-3.76,-3.99,-2.43,0.91,0.84,0.82
139.22,4.52,3.71,4.54,3.74,-3.76,-4.08,-2.45,0.76,0.78,0.80
140.61,4.44,3.65,4.52,3.74,-3.75,-4.17,-2.46,0.69,0.77,0.78
142.02,4.54,3.77,4.49,3.73,-3.74,-4.25,-2.47,0.80,0.75,0.77
143.44,4.51,3.77,4.46,3.72,-3.72,-4.32,-2.48,0.79,0.74,0.74
144.87,4.39,3.68,4.41,3.69,-3.70,-4.38,-2.49,0.69,0.71,0.71
146.32,4.28,3.59,4.34,3.65,-3.67,-4.44,-2.49,0.61,0.66,0.68
147.78,4.29,3.64,4.27,3.62,-3.65,-4.49,-2.50,0.64,0.62,0.65
149.26,4.26,3.65,4.21,3.60,-3.61,-4.53,-2.50,0.65,0.60,0.61
150.75,4.10,3.53,4.14,3.58,-3.56,-4.57,-2.51,0.54,0.59,0.57
152.26,4.03,3.52,4.04,3.52,-3.48,-4.59,-2.51,0.54,0.55,0.51
153.78,3.93,3.47,3.89,3.43,-3.37,-4.62,-2.52,0.56,0.53,0.46
155.32,3.74,3.34,3.72,3.32,-3.23,-4.63,-2.52,0.51,0.49,0.40
156.88,3.49,3.15,3.52,3.18,-3.10,-4.64,-2.53,0.39,0.42,0.34
158.44,3.30,3.02,3.31,3.03,-2.99,-4.65,-2.54,0.31,0.33,0.28
160.03,3.15,2.92,3.11,2.88,-2.90,-4.65,-2.54,0.24,0.21,0.23
161.63,2.92,2.73,2.91,2.73,-2.86,-4.64,-2.56,0.06,0.05,0.19
163.24,2.75,2.61,2.71,2.57,-2.88,-4.63,-2.57,-0.13,-0.17,0.14
164.88,2.59,2.48,2.65,2.54,-2.98,-4.62,-2.58,-0.40,-0.34,0.11
166.53,2.69,2.61,2.75,2.67,-3.16,-4.60,-2.60,-0.48,-0.41,0.08
168.19,3.10,3.04,3.04,2.98,-3.41,-4.58,-2.61,-0.31,-0.37,0.06
169.87,3.45,3.40,3.49,3.44,-3.68,-4.55,-2.63,-0.24,-0.19,0.05
171.57,3.97,3.92,3.97,3.92,-3.97,-4.53,-2.65,-0.00,-0.00,0.05
173.29,4.42,4.37,4.37,4.32,-4.24,-4.50,-2.68,0.18,0.13,0.05
175.02,4.70,4.64,4.68,4.62,-4.45,-4.46,-2.70,0.25,0.22,0.06
176.77,4.81,4.73,4.82,4.75,-4.59,-4.43,-2.73,0.22,0.23,0.08
178.54,4.87,4.78,4.86,4.77,-4.68,-4.39,-2.76,0.18,0.18,0.09
180.32,4.84,4.72,4.84,4.73,-4.72,-4.36,-2.80,0.12,0.12,0.12
182.13,4.79,4.66,4.80,4.66,-4.71,-4.32,-2.83,0.08,0.09,0.13
183.95,4.73,4.57,4.75,4.60,-4.65,-4.28,-2.87,0.07,0.09,0.16
185.79,4.71,4.55,4.70,4.54,-4.57,-4.24,-2.91,0.14,0.13,0.16
187.65,4.66,4.49,4.64,4.47,-4.49,-4.19,-2.95,0.17,0.15,0.17
189.52,4.57,4.39,4.57,4.40,-4.42,-4.15,-2.99,0.15,0.15,0.18
191.42,4.50,4.32,4.51,4.34,-4.36,-4.11,-3.04,0.14,0.15,0.17
193.33,4.47,4.29,4.49,4.31,-4.31,-4.06,-3.09,0.16,0.17,0.18
195.27,4.48,4.30,4.46,4.29,-4.27,-4.02,-3.14,0.21,0.19,0.18
197.22,4.46,4.29,4.43,4.25,-4.24,-3.98,-3.19,0.22,0.19,0.17
199.19,4.36,4.19,4.38,4.21,-4.21,-3.93,-3.24,0.15,0.16,0.17
201.18,4.31,4.15,4.33,4.17,-4.20,-3.89,-3.29,0.11,0.13,0.16
203.19,4.31,4.16,4.30,4.16,-4.18,-3.84,-3.35,0.13,0.12,0.15
205.23,4.31,4.17,4.31,4.17,-4.17,-3.80,-3.40,0.14,0.14,0.14
207.28,4.31,4.18,4.30,4.17,-4.16,-3.75,-3.46,0.15,0.14,0.13
209.35,4.29,4.17,4.27,4.16,-4.15,-3.71,-3.52,0.14,0.12,0.12
211.44,4.23,4.13,4.25,4.14,-4.14,-3.67,-3.57,0.09,0.11,0.10
213.56,4.20,4.11,4.21,4.12,-4.12,-3.62,-3.63,0.08,0.09,0.09
215.69,4.20,4.13,4.17,4.09,-4.09,-3.58,-3.68,0.11,0.08,0.07
217.85,4.12,4.05,4.13,4.07,-4.05,-3.54,-3.74,0.06,0.07,0.06
220.03,4.06,4.01,4.07,4.02,-4.01,-3.49,-3.79,0.05,0.06,0.05
222.23,4.01,3.97,4.00,3.96,-3.96,-3.45,-3.84,0.05,0.04,0.04
224.45,3.92,3.89,3.93,3.90,-3.91,-3.41,-3.89,0.01,0.02,0.03
226.70,3.87,3.84,3.86,3.83,-3.84,-3.37,-3.93,0.02,0.01,0.03
228.96,3.79,3.77,3.80,3.78,-3.78,-3.33,-3.97,0.01,0.02,0.02
231.25,3.74,3.72,3.74,3.72,-3.71,-3.29,-4.01,0.03,0.03,0.02
233.57,3.70,3.68,3.67,3.66,-3.63,-3.25,-4.04,0.06,0.04,0.02
235.90,3.59,3.57,3.60,3.58,-3.56,-3.21,-4.07,0.02,0.04,0.02
238.26,3.53,3.50,3.53,3.50,-3.50,-3.17,-4.10,0.03,0.03,0.02
240.64,3.47,3.43,3.47,3.44,-3.45,-3.13,-4.12,0.02,0.02,0.04
243.05,3.43,3.38,3.42,3.37,-3.41,-3.10,-4.13,0.02,0.01,0.04
245.48,3.40,3.35,3.39,3.34,-3.39,-3.06,-4.14,0.01,0.00,0.05
247.93,3.34,3.29,3.39,3.33,-3.37,-3.02,-4.14,-0.03,0.01,0.05
250.41,3.43,3.37,3.41,3.35,-3.37,-2.99,-4.14,0.06,0.04,0.06
252.92,3.46,3.39,3.45,3.38,-3.37,-2.95,-4.13,0.09,0.08,0.06
255.45,3.47,3.41,3.48,3.42,-3.37,-2.92,-4.12,0.10,0.11,0.06
258.00,3.48,3.42,3.47,3.41,-3.36,-2.88,-4.10,0.11,0.11,0.06
260.58,3.44,3.39,3.43,3.38,-3.35,-2.85,-4.07,0.09,0.08,0.05
263.19,3.38,3.33,3.37,3.32,-3.32,-2.82,-4.04,0.05,0.05,0.05
265.82,3.28,3.23,3.32,3.27,-3.29,-2.78,-4.00,-0.01,0.03,0.04
268.48,3.28,3.24,3.27,3.23,-3.24,-2.75,-3.96,0.04,0.03,0.04
271.16,3.24,3.20,3.21,3.18,-3.19,-2.72,-3.91,0.05,0.02,0.04
273.87,3.16,3.13,3.16,3.12,-3.14,-2.69,-3.86,0.02,0.02,0.03
276.61,3.08,3.05,3.10,3.07,-3.09,-2.66,-3.81,-0.01,0.02,0.03
279.38,3.05,3.02,3.07,3.04,-3.03,-2.63,-3.75,0.01,0.04,0.03
282.17,3.07,3.03,3.03,3.00,-2.98,-2.60,-3.69,0.09,0.05,0.03
284.99,3.01,2.97,2.99,2.95,-2.93,-2.57,-3.63,0.08,0.06,0.04
287.84,2.88,2.84,2.93,2.89,-2.88,-2.54,-3.56,0.00,0.05,0.04
290.72,2.89,2.84,2.86,2.82,-2.83,-2.51,-3.50,0.06,0.04,0.05
293.63,2.81,2.76,2.80,2.75,-2.78,-2.48,-3.43,0.03,0.03,0.05
296.57,2.77,2.71,2.77,2.71,-2.73,-2.45,-3.36,0.04,0.04,0.06
299.53,2.71,2.65,2.74,2.68,-2.68,-2.43,-3.29,0.03,0.06,0.06
302.53,2.73,2.66,2.72,2.65,-2.64,-2.40,-3.22,0.09,0.08,0.07
305.55,2.73,2.67,2.67,2.61,-2.61,-2.37,-3.15,0.12,0.06,0.06
308.61,2.59,2.53,2.62,2.56,-2.58,-2.35,-3.08,0.01,0.05,0.06
311.69,2.55,2.49,2.58,2.53,-2.54,-2.32,-3.01,0.01,0.04,0.06
314.81,2.57,2.52,2.57,2.52,-2.51,-2.29,-2.95,0.06,0.06,0.05
317.96,2.59,2.54,2.55,2.51,-2.47,-2.27,-2.88,0.11,0.08,0.05
321.14,2.52,2.49,2.49,2.46,-2.44,-2.24,-2.81,0.08,0.06,0.03
324.35,2.38,2.35,2.43,2.40,-2.40,-2.22,-2.75,-0.03,0.02,0.03
327.59,2.35,2.33,2.36,2.34,-2.37,-2.19,-2.68,-0.02,-0.01,0.02
330.87,2.35,2.34,2.31,2.31,-2.32,-2.17,-2.62,0.02,-0.01,0.01
334.18,2.28,2.28,2.28,2.29,-2.28,-2.15,-2.56,0.00,0.01,-0.00
337.52,2.23,2.24,2.25,2.26,-2.23,-2.12,-2.50,0.00,0.02,-0.01
340.90,2.19,2.20,2.18,2.20,-2.18,-2.10,-2.44,0.01,0.00,-0.02
344.30,2.15,2.18,2.11,2.14,-2.14,-2.08,-2.38,0.00,-0.04,-0.03
347.75,2.01,2.06,2.03,2.07,-2.11,-2.05,-2.33,-0.10,-0.08,-0.05
351.23,1.94,2.00,1.98,2.03,-2.07,-2.03,-2.28,-0.13,-0.09,-0.06
354.74,1.95,2.02,1.96,2.03,-2.03,-2.01,-2.23,-0.08,-0.08,-0.07
358.28,1.98,2.06,1.93,2.02,-2.00,-1.99,-2.18,-0.02,-0.06,-0.08
361.87,1.92,2.01,1.89,1.99,-1.96,-1.97,-2.13,-0.04,-0.07,-0.09
365.49,1.78,1.89,1.83,1.94,-1.93,-1.94,-2.08,-0.15,-0.10,-0.11
369.14,1.78,1.90,1.77,1.90,-1.91,-1.92,-2.04,-0.13,-0.13,-0.13
372.83,1.75,1.89,1.73,1.87,-1.88,-1.90,-2.00,-0.13,-0.15,-0.14
376.56,1.71,1.86,1.70,1.85,-1.86,-1.88,-1.96,-0.15,-0.16,-0.15
380.33,1.64,1.80,1.65,1.81,-1.83,-1.86,-1.92,-0.19,-0.18,-0.16
384.13,1.61,1.78,1.62,1.79,-1.80,-1.84,-1.88,-0.19,-0.18,-0.17
387.97,1.61,1.79,1.60,1.78,-1.77,-1.82,-1.85,-0.17,-0.17,-0.18
391.85,1.60,1.79,1.58,1.77,-1.75,-1.80,-1.81,-0.15,-0.17,-0.19
395.77,1.54,1.74,1.54,1.74,-1.72,-1.78,-1.78,-0.19,-0.19,-0.20
399.73,1.47,1.68,1.49,1.70,-1.70,-1.76,-1.75,-0.23,-0.21,-0.21
403.72,1.43,1.65,1.43,1.66,-1.67,-1.74,-1.72,-0.24,-0.24,-0.22
407.76,1.41,1.65,1.38,1.62,-1.63,-1.72,-1.69,-0.22,-0.25,-0.24
411.84,1.31,1.56,1.34,1.59,-1.59,-1.70,-1.66,-0.28,-0.25,-0.25
415.96,1.29,1.55,1.30,1.57,-1.55,-1.68,-1.64,-0.26,-0.25,-0.27
420.12,1.29,1.55,1.25,1.52,-1.52,-1.66,-1.61,-0.23,-0.26,-0.27
424.32,1.22,1.49,1.20,1.48,-1.48,-1.64,-1.59,-0.26,-0.28,-0.28
428.56,1.13,1.41,1.16,1.43,-1.45,-1.62,-1.56,-0.32,-0.29,-0.28
432.85,1.11,1.38,1.13,1.40,-1.42,-1.61,-1.54,-0.31,-0.29,-0.27
437.18,1.16,1.42,1.13,1.39,-1.39,-1.59,-1.52,-0.23,-0.26,-0.26
441.55,1.15,1.39,1.14,1.38,-1.37,-1.57,-1.49,-0.22,-0.22,-0.24
445.96,1.15,1.37,1.14,1.36,-1.35,-1.55,-1.47,-0.21,-0.21,-0.22
450.42,1.12,1.31,1.13,1.32,-1.35,-1.53,-1.45,-0.23,-0.21,-0.19
454.93,1.15,1.30,1.16,1.31,-1.34,-1.51,-1.43,-0.19,-0.18,-0.15
459.48,1.21,1.32,1.21,1.32,-1.33,-1.49,-1.41,-0.12,-0.12,-0.11
464.07,1.28,1.36,1.26,1.34,-1.32,-1.48,-1.39,-0.04,-0.05,-0.08
468.71,1.30,1.34,1.29,1.33,-1.29,-1.46,-1.37,0.00,-0.00,-0.04
473.40,1.30,1.30,1.30,1.30,-1.27,-1.44,-1.35,0.03,0.03,-0.00
478.13,1.29,1.25,1.30,1.27,-1.25,-1.42,-1.33,0.04,0.05,0.04
482.91,1.30,1.23,1.30,1.23,-1.24,-1.40,-1.31,0.06,0.06,0.07
487.74,1.31,1.21,1.28,1.18,-1.22,-1.39,-1.29,0.09,0.06,0.10
492.62,1.25,1.13,1.27,1.15,-1.20,-1.37,-1.27,0.05,0.07,0.12
497.55,1.26,1.12,1.28,1.14,-1.17,-1.35,-1.25,0.08,0.11,0.14
502.52,1.31,1.16,1.33,1.18,-1.15,-1.33,-1.23,0.15,0.18,0.15
507.55,1.39,1.24,1.35,1.21,-1.14,-1.31,-1.21,0.25,0.21,0.15
