frequency,raw,error,smoothed,error_smoothed,equalization,parametric_eq,fixed_band_eq,equalized_raw,equalized_smoothed,target
20.00,11.67,2.74,11.67,2.75,-2.75,-2.93,-1.61,8.92,8.92,8.93
20.20,11.70,2.79,11.70,2.79,-2.79,-2.95,-1.65,8.91,8.91,8.91
20.40,11.73,2.84,11.73,2.83,-2.83,-2.96,-1.70,8.90,8.90,8.90
20.61,11.76,2.86,11.76,2.87,-2.87,-2.98,-1.74,8.88,8.89,8.89
20.81,11.79,2.92,11.79,2.92,-2.91,-3.00,-1.79,8.88,8.88,8.87
21.02,11.82,2.96,11.82,2.95,-2.95,-3.02,-1.84,8.87,8.87,8.86
21.23,11.85,3.00,11.85,2.99,-2.99,-3.04,-1.89,8.86,8.86,8.85
21.44,11.87,3.01,11.87,3.02,-3.02,-3.05,-1.95,8.85,8.85,8.86
21.66,11.90,3.05,11.90,3.05,-3.05,-3.07,-2.00,8.85,8.85,8.85
21.87,11.92,3.08,11.92,3.08,-3.08,-3.09,-2.06,8.84,8.84,8.84
22.09,11.95,3.12,11.95,3.12,-3.11,-3.11,-2.11,8.84,8.84,8.83
22.31,11.97,3.14,11.97,3.14,-3.13,-3.12,-2.17,8.84,8.84,8.83
22.54,11.99,3.17,11.99,3.16,-3.16,-3.14,-2.23,8.83,8.83,8.82
22.76,12.00,3.17,12.00,3.18,-3.18,-3.16,-2.29,8.82,8.82,8.83
22.99,12.02,3.20,12.02,3.20,-3.20,-3.18,-2.36,8.82,8.82,8.82
23.22,12.03,3.22,12.03,3.22,-3.22,-3.19,-2.42,8.81,8.81,8.81
23.45,12.05,3.24,12.05,3.24,-3.24,-3.21,-2.49,8.81,8.81,8.81
23.69,12.07,3.26,12.07,3.26,-3.26,-3.23,-2.55,8.81,8.80,8.81
23.92,12.09,3.28,12.09,3.29,-3.29,-3.25,-2.62,8.80,8.80,8.81
24.16,12.12,3.31,12.12,3.31,-3.32,-3.26,-2.69,8.80,8.80,8.81
24.40,12.16,3.34,12.16,3.34,-3.35,-3.28,-2.76,8.81,8.81,8.82
24.65,12.19,3.37,12.19,3.38,-3.38,-3.30,-2.83,8.81,8.81,8.82
24.89,12.22,3.42,12.22,3.41,-3.42,-3.31,-2.91,8.80,8.80,8.80
25.14,12.25,3.46,12.25,3.45,-3.45,-3.33,-2.98,8.80,8.80,8.79
25.39,12.27,3.48,12.28,3.49,-3.48,-3.35,-3.05,8.79,8.80,8.79
25.65,12.30,3.52,12.30,3.51,-3.51,-3.37,-3.13,8.79,8.79,8.78
25.91,12.32,3.54,12.32,3.53,-3.53,-3.38,-3.20,8.79,8.79,8.78
26.16,12.33,3.54,12.33,3.55,-3.55,-3.40,-3.27,8.78,8.79,8.79
26.43,12.34,3.56,12.34,3.56,-3.56,-3.42,-3.35,8.78,8.78,8.78
26.69,12.35,3.57,12.34,3.57,-3.56,-3.43,-3.42,8.79,8.78,8.78
26.96,12.34,3.56,12.34,3.57,-3.57,-3.45,-3.49,8.77,8.78,8.78
27.23,12.34,3.57,12.34,3.57,-3.57,-3.47,-3.56,8.77,8.77,8.77
27.50,12.33,3.56,12.33,3.56,-3.56,-3.48,-3.63,8.77,8.77,8.77
27.77,12.32,3.55,12.32,3.55,-3.56,-3.50,-3.70,8.76,8.76,8.77
28.05,12.32,3.55,12.32,3.55,-3.55,-3.52,-3.77,8.77,8.77,8.77
28.33,12.32,3.55,12.32,3.55,-3.55,-3.53,-3.83,8.77,8.77,8.77
28.62,12.32,3.55,12.32,3.55,-3.54,-3.55,-3.89,8.78,8.78,8.77
28.90,12.32,3.54,12.32,3.54,-3.53,-3.57,-3.94,8.79,8.78,8.78
29.19,12.31,3.53,12.31,3.53,-3.53,-3.58,-4.00,8.78,8.78,8.78
29.48,12.30,3.52,12.30,3.52,-3.53,-3.60,-4.05,8.77,8.78,8.78
29.78,12.30,3.53,12.30,3.52,-3.53,-3.62,-4.09,8.77,8.77,8.77
30.08,12.31,3.52,12.31,3.52,-3.53,-3.63,-4.13,8.78,8.77,8.79
30.38,12.32,3.54,12.32,3.54,-3.54,-3.65,-4.17,8.78,8.78,8.78
30.68,12.34,3.56,12.34,3.56,-3.56,-3.67,-4.20,8.78,8.78,8.78
30.99,12.36,3.58,12.36,3.58,-3.58,-3.68,-4.23,8.78,8.78,8.78
31.30,12.39,3.61,12.38,3.61,-3.61,-3.70,-4.25,8.78,8.77,8.78
31.61,12.41,3.64,12.41,3.64,-3.64,-3.72,-4.27,8.77,8.77,8.77
31.93,12.44,3.68,12.44,3.68,-3.68,-3.73,-4.28,8.76,8.76,8.76
32.24,12.48,3.72,12.48,3.72,-3.72,-3.75,-4.29,8.76,8.76,8.76
32.57,12.51,3.76,12.51,3.76,-3.75,-3.77,-4.29,8.76,8.76,8.75
32.89,12.54,3.79,12.54,3.79,-3.79,-3.78,-4.29,8.75,8.75,8.75
33.22,12.57,3.83,12.57,3.83,-3.83,-3.80,-4.29,8.74,8.74,8.74
33.55,12.59,3.85,12.59,3.86,-3.86,-3.82,-4.28,8.73,8.74,8.74
33.89,12.62,3.89,12.62,3.89,-3.89,-3.83,-4.27,8.73,8.73,8.73
34.23,12.64,3.92,12.64,3.92,-3.91,-3.85,-4.26,8.73,8.72,8.72
34.57,12.65,3.94,12.65,3.94,-3.94,-3.87,-4.24,8.71,8.72,8.71
34.92,12.66,3.96,12.66,3.96,-3.95,-3.88,-4.22,8.71,8.71,8.70
35.27,12.67,3.96,12.67,3.97,-3.97,-3.90,-4.20,8.70,8.70,8.71
35.62,12.67,4.00,12.67,3.99,-3.98,-3.92,-4.18,8.69,8.69,8.67
35.97,12.66,3.99,12.66,3.99,-3.99,-3.93,-4.16,8.67,8.67,8.67
36.33,12.66,4.00,12.66,4.00,-4.00,-3.95,-4.13,8.66,8.65,8.66
36.70,12.65,4.01,12.65,4.01,-4.02,-3.97,-4.11,8.63,8.64,8.64
37.06,12.65,4.02,12.65,4.02,-4.03,-3.98,-4.09,8.62,8.62,8.63
37.43,12.65,4.03,12.65,4.04,-4.05,-4.00,-4.07,8.60,8.61,8.62
37.81,12.66,4.06,12.66,4.06,-4.07,-4.02,-4.04,8.59,8.59,8.60
38.19,12.67,4.09,12.67,4.09,-4.09,-4.03,-4.02,8.58,8.58,8.58
38.57,12.67,4.11,12.67,4.11,-4.11,-4.05,-4.00,8.56,8.57,8.56
38.95,12.67,4.13,12.67,4.13,-4.12,-4.07,-3.98,8.55,8.55,8.54
39.34,12.66,4.15,12.66,4.14,-4.14,-4.08,-3.97,8.52,8.52,8.51
39.74,12.65,4.15,12.65,4.15,-4.15,-4.10,-3.95,8.50,8.50,8.50
40.14,12.63,4.16,12.63,4.15,-4.15,-4.12,-3.94,8.48,8.48,8.47
40.54,12.61,4.15,12.61,4.15,-4.15,-4.13,-3.93,8.46,8.46,8.46
40.94,12.58,4.15,12.58,4.14,-4.14,-4.15,-3.92,8.44,8.44,8.43
41.35,12.55,4.13,12.55,4.13,-4.13,-4.17,-3.92,8.42,8.42,8.42
41.76,12.52,4.12,12.52,4.12,-4.12,-4.18,-3.92,8.40,8.40,8.40
42.18,12.49,4.10,12.49,4.11,-4.11,-4.20,-3.92,8.38,8.38,8.39
42.60,12.46,4.10,12.46,4.10,-4.10,-4.22,-3.92,8.36,8.36,8.36
43.03,12.43,4.10,12.43,4.09,-4.09,-4.24,-3.93,8.34,8.34,8.33
43.46,12.40,4.08,12.40,4.09,-4.08,-4.25,-3.94,8.32,8.32,8.32
43.90,12.37,4.08,12.37,4.08,-4.08,-4.27,-3.95,8.29,8.29,8.29
44.33,12.35,4.08,12.35,4.08,-4.08,-4.29,-3.96,8.27,8.27,8.27
44.78,12.33,4.09,12.33,4.08,-4.09,-4.30,-3.98,8.24,8.24,8.24
45.23,12.31,4.08,12.31,4.09,-4.10,-4.32,-4.00,8.21,8.21,8.23
45.68,12.30,4.11,12.30,4.11,-4.12,-4.34,-4.03,8.18,8.18,8.19
46.13,12.30,4.15,12.30,4.15,-4.15,-4.35,-4.06,8.15,8.15,8.15
46.60,12.31,4.19,12.31,4.18,-4.18,-4.37,-4.09,8.13,8.12,8.12
47.06,12.31,4.22,12.31,4.22,-4.22,-4.39,-4.12,8.09,8.10,8.09
47.53,12.32,4.26,12.32,4.26,-4.26,-4.40,-4.16,8.06,8.06,8.06
48.01,12.32,4.31,12.32,4.30,-4.30,-4.42,-4.20,8.02,8.02,8.01
48.49,12.32,4.34,12.32,4.34,-4.34,-4.44,-4.24,7.98,7.98,7.98
48.97,12.32,4.38,12.32,4.38,-4.38,-4.45,-4.28,7.94,7.94,7.94
49.46,12.32,4.41,12.32,4.41,-4.42,-4.47,-4.33,7.90,7.90,7.91
49.96,12.32,4.46,12.32,4.45,-4.45,-4.49,-4.38,7.87,7.86,7.86
50.46,12.32,4.48,12.32,4.49,-4.49,-4.50,-4.43,7.83,7.83,7.84
50.96,12.33,4.52,12.33,4.53,-4.53,-4.52,-4.48,7.80,7.80,7.81
51.47,12.34,4.57,12.34,4.57,-4.57,-4.54,-4.53,7.77,7.77,7.77
51.99,12.35,4.61,12.35,4.61,-4.60,-4.55,-4.59,7.75,7.75,7.74
52.51,12.35,4.64,12.35,4.64,-4.63,-4.57,-4.64,7.72,7.71,7.71
53.03,12.34,4.66,12.34,4.67,-4.66,-4.59,-4.70,7.68,7.68,7.68
53.56,12.33,4.69,12.33,4.69,-4.69,-4.60,-4.75,7.64,7.64,7.64
54.10,12.31,4.71,12.31,4.71,-4.71,-4.62,-4.81,7.60,7.60,7.60
54.64,12.29,4.72,12.29,4.73,-4.72,-4.64,-4.86,7.57,7.56,7.57
55.18,12.26,4.74,12.26,4.74,-4.73,-4.65,-4.92,7.53,7.53,7.52
55.74,12.24,4.76,12.24,4.75,-4.74,-4.67,-4.97,7.50,7.50,7.48
56.29,12.21,4.74,12.21,4.74,-4.74,-4.68,-5.02,7.47,7.47,7.47
56.86,12.17,4.73,12.17,4.74,-4.74,-4.70,-5.07,7.43,7.43,7.44
57.42,12.14,4.74,12.14,4.73,-4.74,-4.72,-5.12,7.40,7.40,7.40
58.00,12.11,4.74,12.11,4.73,-4.74,-4.73,-5.16,7.37,7.37,7.37
58.58,12.09,4.73,12.09,4.73,-4.74,-4.75,-5.20,7.35,7.35,7.36
59.16,12.07,4.74,12.07,4.74,-4.75,-4.76,-5.23,7.32,7.32,7.33
59.76,12.05,4.75,12.05,4.75,-4.76,-4.78,-5.27,7.29,7.29,7.30
60.35,12.03,4.77,12.03,4.77,-4.78,-4.79,-5.29,7.25,7.25,7.26
60.96,12.01,4.79,12.01,4.79,-4.80,-4.81,-5.31,7.21,7.21,7.22
61.57,11.99,4.83,11.99,4.82,-4.82,-4.82,-5.33,7.17,7.17,7.16
62.18,11.97,4.85,11.97,4.85,-4.85,-4.84,-5.34,7.12,7.12,7.12
62.80,11.95,4.87,11.95,4.88,-4.87,-4.85,-5.35,7.08,7.08,7.08
63.43,11.94,4.91,11.94,4.90,-4.89,-4.87,-5.35,7.05,7.05,7.03
64.07,11.92,4.92,11.92,4.92,-4.91,-4.88,-5.35,7.01,7.01,7.00
64.71,11.89,4.93,11.89,4.93,-4.93,-4.90,-5.34,6.96,6.96,6.96
65.35,11.86,4.94,11.86,4.94,-4.94,-4.91,-5.33,6.92,6.92,6.92
66.01,11.83,4.95,11.83,4.94,-4.95,-4.93,-5.31,6.88,6.87,6.88
66.67,11.80,4.95,11.80,4.95,-4.97,-4.94,-5.29,6.83,6.84,6.85
67.33,11.78,4.97,11.78,4.97,-4.98,-4.95,-5.27,6.80,6.80,6.80
68.01,11.76,5.00,11.76,4.99,-4.99,-4.97,-5.24,6.77,6.77,6.76
68.69,11.74,5.02,11.74,5.01,-5.00,-4.98,-5.21,6.74,6.74,6.72
69.37,11.71,5.02,11.71,5.02,-5.01,-4.99,-5.17,6.70,6.69,6.69
70.07,11.68,5.02,11.68,5.03,-5.03,-5.01,-5.14,6.65,6.65,6.66
70.77,11.65,5.04,11.65,5.04,-5.05,-5.02,-5.10,6.60,6.60,6.61
71.48,11.63,5.06,11.63,5.06,-5.07,-5.03,-5.06,6.56,6.56,6.57
72.19,11.60,5.08,11.60,5.08,-5.08,-5.04,-5.02,6.52,6.52,6.52
72.91,11.58,5.09,11.58,5.10,-5.10,-5.06,-4.98,6.48,6.49,6.49
73.64,11.56,5.12,11.56,5.12,-5.11,-5.07,-4.94,6.45,6.45,6.44
74.38,11.54,5.14,11.54,5.13,-5.12,-5.08,-4.90,6.42,6.42,6.40
75.12,11.51,5.14,11.51,5.14,-5.13,-5.09,-4.86,6.38,6.38,6.37
75.87,11.48,5.14,11.48,5.14,-5.13,-5.10,-4.82,6.35,6.35,6.34
76.63,11.44,5.13,11.45,5.13,-5.13,-5.11,-4.78,6.31,6.31,6.31
77.40,11.42,5.14,11.42,5.14,-5.14,-5.12,-4.75,6.28,6.28,6.28
78.17,11.39,5.14,11.39,5.14,-5.14,-5.13,-4.71,6.25,6.25,6.25
78.95,11.37,5.14,11.37,5.14,-5.15,-5.14,-4.68,6.22,6.22,6.23
79.74,11.35,5.15,11.35,5.15,-5.16,-5.15,-4.65,6.19,6.19,6.20
80.54,11.34,5.17,11.34,5.17,-5.19,-5.16,-4.63,6.15,6.16,6.17
81.35,11.34,5.20,11.34,5.20,-5.21,-5.17,-4.60,6.13,6.13,6.14
82.16,11.35,5.24,11.35,5.24,-5.24,-5.18,-4.58,6.11,6.11,6.11
82.98,11.36,5.28,11.36,5.28,-5.27,-5.18,-4.56,6.09,6.08,6.08
83.81,11.36,5.32,11.36,5.32,-5.31,-5.19,-4.55,6.05,6.05,6.04
84.65,11.36,5.35,11.35,5.35,-5.34,-5.20,-4.54,6.02,6.01,6.01
85.50,11.34,5.37,11.35,5.37,-5.37,-5.21,-4.53,5.97,5.98,5.97
86.35,11.33,5.39,11.33,5.39,-5.39,-5.21,-4.53,5.94,5.94,5.94
87.22,11.32,5.41,11.31,5.41,-5.41,-5.22,-4.52,5.91,5.91,5.91
88.09,11.29,5.42,11.29,5.42,-5.42,-5.22,-4.53,5.87,5.88,5.87
88.97,11.26,5.42,11.26,5.43,-5.42,-5.23,-4.53,5.84,5.84,5.84
89.86,11.22,5.43,11.22,5.42,-5.42,-5.23,-4.54,5.80,5.80,5.79
90.76,11.17,5.41,11.17,5.41,-5.42,-5.24,-4.55,5.76,5.76,5.76
91.66,11.13,5.40,11.13,5.40,-5.41,-5.24,-4.57,5.72,5.72,5.73
92.58,11.08,5.39,11.08,5.39,-5.39,-5.24,-4.59,5.68,5.69,5.69
93.51,11.04,5.38,11.04,5.38,-5.38,-5.25,-4.61,5.66,5.66,5.66
94.44,10.99,5.37,10.99,5.37,-5.37,-5.25,-4.64,5.62,5.62,5.62
95.39,10.93,5.36,10.93,5.36,-5.35,-5.25,-4.67,5.58,5.58,5.58
96.34,10.87,5.34,10.87,5.34,-5.34,-5.25,-4.70,5.53,5.53,5.53
97.30,10.81,5.32,10.81,5.32,-5.33,-5.25,-4.73,5.48,5.48,5.49
98.28,10.76,5.30,10.76,5.31,-5.32,-5.25,-4.77,5.44,5.45,5.46
99.26,10.72,5.31,10.72,5.30,-5.30,-5.25,-4.81,5.42,5.42,5.41
100.25,10.67,5.30,10.67,5.30,-5.28,-5.25,-4.85,5.39,5.39,5.37
101.25,10.63,5.28,10.62,5.28,-5.27,-5.25,-4.90,5.36,5.36,5.35
102.27,10.57,5.25,10.57,5.25,-5.25,-5.25,-4.94,5.32,5.32,5.32
103.29,10.51,5.23,10.51,5.23,-5.24,-5.24,-4.99,5.27,5.28,5.28
104.32,10.46,5.20,10.46,5.21,-5.22,-5.24,-5.04,5.24,5.24,5.26
105.37,10.41,5.19,10.41,5.19,-5.20,-5.24,-5.09,5.21,5.22,5.22
106.42,10.37,5.18,10.37,5.18,-5.18,-5.23,-5.14,5.19,5.19,5.19
107.48,10.33,5.17,10.33,5.17,-5.16,-5.23,-5.18,5.17,5.17,5.16
108.56,10.28,5.15,10.28,5.15,-5.14,-5.22,-5.23,5.14,5.14,5.13
109.64,10.22,5.13,10.22,5.13,-5.12,-5.21,-5.28,5.10,5.10,5.09
110.74,10.16,5.10,10.16,5.10,-5.11,-5.21,-5.33,5.05,5.05,5.06
111.85,10.10,5.07,10.11,5.08,-5.09,-5.20,-5.37,5.01,5.01,5.03
112.97,10.06,5.07,10.06,5.07,-5.08,-5.19,-5.41,4.98,4.98,4.99
114.10,10.02,5.06,10.02,5.06,-5.06,-5.18,-5.45,4.96,4.96,4.96
115.24,9.98,5.06,9.98,5.06,-5.05,-5.17,-5.49,4.93,4.93,4.92
116.39,9.93,5.06,9.93,5.05,-5.04,-5.16,-5.52,4.89,4.88,4.87
117.55,9.87,5.02,9.87,5.04,-5.03,-5.15,-5.54,4.84,4.84,4.85
118.73,9.82,5.02,9.82,5.02,-5.02,-5.14,-5.57,4.80,4.80,4.80
119.92,9.78,5.00,9.78,5.00,-5.01,-5.13,-5.58,4.77,4.77,4.78
121.12,9.74,4.99,9.74,4.99,-4.99,-5.12,-5.59,4.75,4.75,4.75
122.33,9.70,4.98,9.70,4.98,-4.97,-5.10,-5.60,4.73,4.73,4.72
123.55,9.65,4.96,9.65,4.96,-4.95,-5.09,-5.60,4.70,4.70,4.69
124.79,9.59,4.93,9.59,4.93,-4.93,-5.07,-5.59,4.66,4.66,4.66
126.03,9.53,4.91,9.53,4.91,-4.92,-5.06,-5.58,4.61,4.62,4.62
127.29,9.48,4.89,9.48,4.89,-4.90,-5.04,-5.56,4.58,4.58,4.59
128.57,9.43,4.87,9.43,4.88,-4.88,-5.02,-5.53,4.55,4.55,4.56
129.85,9.39,4.87,9.39,4.87,-4.87,-5.01,-5.50,4.52,4.52,4.52
131.15,9.35,4.87,9.34,4.86,-4.85,-4.99,-5.47,4.50,4.49,4.48
132.46,9.29,4.85,9.29,4.85,-4.84,-4.97,-5.42,4.45,4.45,4.44
133.79,9.23,4.83,9.23,4.83,-4.82,-4.95,-5.38,4.41,4.41,4.41
135.12,9.18,4.81,9.18,4.80,-4.81,-4.93,-5.32,4.37,4.37,4.37
136.48,9.13,4.78,9.13,4.79,-4.80,-4.91,-5.27,4.33,4.34,4.35
137.84,9.09,4.77,9.09,4.77,-4.78,-4.89,-5.21,4.31,4.31,4.32
139.22,9.04,4.77,9.04,4.76,-4.76,-4.87,-5.14,4.28,4.28,4.27
140.61,8.99,4.74,8.99,4.75,-4.74,-4.84,-5.08,4.25,4.25,4.25
142.02,8.94,4.72,8.94,4.72,-4.72,-4.82,-5.01,4.22,4.22,4.22
143.44,8.89,4.71,8.89,4.70,-4.70,-4.79,-4.94,4.19,4.19,4.19
144.87,8.84,4.67,8.84,4.67,-4.67,-4.77,-4.87,4.17,4.17,4.17
146.32,8.79,4.65,8.79,4.64,-4.65,-4.74,-4.79,4.14,4.14,4.14
147.78,8.74,4.62,8.74,4.62,-4.62,-4.72,-4.72,4.12,4.12,4.12
149.26,8.69,4.59,8.69,4.59,-4.59,-4.69,-4.65,4.10,4.10,4.10
150.75,8.63,4.56,8.63,4.56,-4.55,-4.66,-4.57,4.08,4.08,4.07
152.26,8.57,4.52,8.57,4.52,-4.52,-4.64,-4.50,4.05,4.05,4.05
153.78,8.51,4.48,8.51,4.49,-4.49,-4.61,-4.43,4.02,4.02,4.03
155.32,8.46,4.46,8.46,4.45,-4.46,-4.58,-4.36,4.00,4.00,4.00
156.88,8.40,4.42,8.40,4.42,-4.43,-4.55,-4.29,3.97,3.97,3.98
158.44,8.34,4.40,8.34,4.40,-4.40,-4.52,-4.22,3.94,3.94,3.94
160.03,8.29,4.37,8.29,4.37,-4.37,-4.49,-4.15,3.92,3.92,3.92
161.63,8.24,4.35,8.24,4.35,-4.34,-4.45,-4.09,3.90,3.89,3.89
163.24,8.18,4.33,8.18,4.33,-4.32,-4.42,-4.03,3.86,3.86,3.85
164.88,8.12,4.30,8.12,4.30,-4.29,-4.39,-3.97,3.83,3.82,3.82
166.53,8.05,4.26,8.05,4.26,-4.27,-4.36,-3.91,3.78,3.79,3.79
168.19,7.99,4.23,8.00,4.24,-4.24,-4.32,-3.86,3.75,3.76,3.76
169.87,7.94,4.22,7.94,4.21,-4.21,-4.29,-3.81,3.73,3.73,3.72
171.57,7.89,4.19,7.88,4.19,-4.19,-4.25,-3.76,3.70,3.70,3.70
173.29,7.82,4.16,7.82,4.16,-4.16,-4.22,-3.71,3.66,3.66,3.66
175.02,7.76,4.13,7.76,4.13,-4.13,-4.18,-3.67,3.63,3.63,3.63
176.77,7.70,4.11,7.70,4.11,-4.11,-4.14,-3.63,3.59,3.59,3.59
178.54,7.64,4.07,7.64,4.08,-4.08,-4.11,-3.59,3.56,3.56,3.57
180.32,7.59,4.07,7.59,4.06,-4.06,-4.07,-3.56,3.53,3.53,3.52
182.13,7.53,4.04,7.53,4.03,-4.03,-4.03,-3.52,3.50,3.50,3.49
183.95,7.46,4.00,7.46,4.00,-4.00,-3.99,-3.50,3.46,3.46,3.46
185.79,7.39,3.97,7.39,3.97,-3.98,-3.95,-3.47,3.41,3.42,3.42
187.65,7.33,3.94,7.33,3.95,-3.95,-3.91,-3.45,3.38,3.38,3.39
189.52,7.28,3.93,7.28,3.92,-3.92,-3.87,-3.42,3.36,3.35,3.35
191.42,7.22,3.90,7.22,3.90,-3.90,-3.83,-3.41,3.32,3.32,3.32
193.33,7.16,3.87,7.16,3.87,-3.87,-3.79,-3.39,3.29,3.29,3.29
195.27,7.09,3.84,7.09,3.84,-3.84,-3.75,-3.37,3.25,3.25,3.25
197.22,7.03,3.81,7.03,3.81,-3.81,-3.71,-3.36,3.22,3.22,3.22
199.19,6.98,3.78,6.98,3.78,-3.78,-3.66,-3.35,3.20,3.20,3.20
201.18,6.92,3.76,6.92,3.75,-3.75,-3.62,-3.34,3.17,3.17,3.16
203.19,6.86,3.71,6.86,3.71,-3.71,-3.58,-3.34,3.15,3.15,3.15
205.23,6.80,3.68,6.80,3.67,-3.68,-3.53,-3.33,3.12,3.12,3.12
207.28,6.74,3.63,6.74,3.64,-3.65,-3.49,-3.32,3.09,3.09,3.11
209.35,6.68,3.61,6.69,3.61,-3.61,-3.44,-3.32,3.07,3.07,3.07
211.44,6.64,3.59,6.64,3.58,-3.58,-3.40,-3.32,3.06,3.06,3.05
213.56,6.59,3.55,6.58,3.55,-3.54,-3.35,-3.31,3.05,3.04,3.04
215.69,6.52,3.51,6.52,3.51,-3.51,-3.31,-3.31,3.01,3.02,3.01
217.85,6.46,3.47,6.46,3.47,-3.47,-3.26,-3.31,2.99,2.99,2.99
220.03,6.40,3.43,6.40,3.43,-3.43,-3.22,-3.30,2.97,2.97,2.97
222.23,6.34,3.39,6.34,3.40,-3.39,-3.17,-3.30,2.95,2.95,2.95
224.45,6.29,3.36,6.29,3.36,-3.35,-3.12,-3.29,2.94,2.93,2.93
226.70,6.23,3.31,6.23,3.31,-3.31,-3.08,-3.29,2.92,2.92,2.92
228.96,6.16,3.25,6.16,3.26,-3.26,-3.03,-3.28,2.90,2.90,2.91
231.25,6.10,3.21,6.10,3.21,-3.22,-2.98,-3.27,2.88,2.88,2.89
233.57,6.04,3.16,6.04,3.17,-3.17,-2.93,-3.26,2.87,2.87,2.88
235.90,5.99,3.13,5.99,3.13,-3.12,-2.89,-3.24,2.87,2.87,2.86
238.26,5.93,3.08,5.93,3.07,-3.07,-2.84,-3.22,2.86,2.86,2.85
240.64,5.86,3.00,5.86,3.01,-3.01,-2.79,-3.20,2.85,2.85,2.86
243.05,5.80,2.95,5.80,2.95,-2.96,-2.74,-3.18,2.84,2.84,2.85
245.48,5.73,2.90,5.74,2.90,-2.90,-2.69,-3.15,2.83,2.84,2.83
247.93,5.68,2.85,5.68,2.85,-2.84,-2.64,-3.12,2.84,2.84,2.83
250.41,5.63,2.79,5.62,2.79,-2.78,-2.59,-3.08,2.85,2.84,2.84
252.92,5.56,2.72,5.56,2.72,-2.72,-2.54,-3.04,2.84,2.84,2.84
255.45,5.49,2.66,5.49,2.66,-2.66,-2.49,-3.00,2.83,2.83,2.83
258.00,5.43,2.59,5.43,2.60,-2.60,-2.44,-2.95,2.83,2.83,2.84
260.58,5.37,2.54,5.37,2.54,-2.54,-2.39,-2.90,2.83,2.83,2.83
263.19,5.32,2.49,5.31,2.48,-2.48,-2.34,-2.85,2.84,2.84,2.83
265.82,5.25,2.42,5.25,2.42,-2.41,-2.29,-2.79,2.84,2.84,2.83
268.48,5.18,2.35,5.18,2.35,-2.35,-2.24,-2.73,2.83,2.83,2.83
271.16,5.11,2.28,5.11,2.28,-2.29,-2.18,-2.67,2.82,2.82,2.83
273.87,5.04,2.21,5.05,2.22,-2.22,-2.13,-2.60,2.82,2.82,2.83
276.61,4.99,2.16,4.99,2.16,-2.16,-2.08,-2.53,2.83,2.83,2.83
279.38,4.93,2.12,4.92,2.10,-2.09,-2.03,-2.46,2.84,2.83,2.81
282.17,4.86,2.03,4.86,2.03,-2.03,-1.98,-2.39,2.83,2.83,2.83
284.99,4.79,1.96,4.79,1.96,-1.97,-1.92,-2.31,2.82,2.82,2.83
287.84,4.73,1.89,4.73,1.90,-1.91,-1.87,-2.23,2.82,2.82,2.84
290.72,4.67,1.85,4.67,1.84,-1.84,-1.82,-2.16,2.83,2.83,2.82
293.63,4.62,1.79,4.62,1.78,-1.78,-1.76,-2.08,2.84,2.84,2.83
296.57,4.56,1.71,4.56,1.72,-1.71,-1.71,-2.00,2.85,2.84,2.85
299.53,4.50,1.66,4.50,1.65,-1.65,-1.66,-1.91,2.85,2.85,2.84
302.53,4.44,1.59,4.44,1.59,-1.59,-1.60,-1.83,2.85,2.85,2.85
305.55,4.38,1.52,4.38,1.53,-1.53,-1.55,-1.75,2.85,2.85,2.86
308.61,4.33,1.47,4.33,1.47,-1.47,-1.50,-1.67,2.86,2.86,2.86
311.69,4.28,1.41,4.28,1.41,-1.41,-1.44,-1.58,2.87,2.87,2.87
314.81,4.22,1.34,4.22,1.35,-1.35,-1.39,-1.50,2.87,2.88,2.88
317.96,4.17,1.29,4.17,1.29,-1.28,-1.33,-1.42,2.89,2.89,2.88
321.14,4.12,1.23,4.12,1.23,-1.22,-1.28,-1.33,2.90,2.89,2.89
324.35,4.06,1.17,4.06,1.16,-1.16,-1.23,-1.25,2.90,2.90,2.89
327.59,4.01,1.09,4.01,1.10,-1.11,-1.17,-1.17,2.90,2.90,2.92
330.87,3.95,1.04,3.95,1.04,-1.05,-1.12,-1.08,2.90,2.91,2.91
334.18,3.90,0.99,3.90,0.98,-0.99,-1.06,-1.00,2.91,2.92,2.91
337.52,3.85,0.92,3.85,0.93,-0.92,-1.00,-0.92,2.93,2.93,2.93
340.90,3.81,0.87,3.81,0.87,-0.87,-0.95,-0.84,2.94,2.94,2.94
344.30,3.76,0.82,3.75,0.81,-0.81,-0.89,-0.76,2.95,2.95,2.94
347.75,3.70,0.75,3.70,0.75,-0.75,-0.84,-0.68,2.95,2.95,2.95
351.23,3.64,0.68,3.65,0.68,-0.69,-0.78,-0.60,2.95,2.95,2.96
354.74,3.60,0.62,3.60,0.63,-0.64,-0.72,-0.52,2.96,2.96,2.98
358.28,3.56,0.58,3.56,0.58,-0.58,-0.67,-0.44,2.98,2.98,2.98
361.87,3.51,0.54,3.51,0.53,-0.52,-0.61,-0.36,2.99,2.99,2.97
365.49,3.46,0.47,3.46,0.47,-0.47,-0.55,-0.28,2.99,2.99,2.99
369.14,3.41,0.41,3.41,0.41,-0.41,-0.50,-0.20,3.00,3.00,3.00
372.83,3.36,0.35,3.36,0.35,-0.36,-0.44,-0.12,3.00,3.00,3.01
376.56,3.31,0.30,3.31,0.30,-0.30,-0.38,-0.04,3.01,3.01,3.01
380.33,3.26,0.24,3.26,0.24,-0.24,-0.32,0.03,3.02,3.02,3.02
384.13,3.20,0.18,3.20,0.18,-0.18,-0.27,0.11,3.02,3.03,3.02
387.97,3.15,0.12,3.15,0.11,-0.11,-0.21,0.19,3.04,3.04,3.03
391.85,3.09,0.04,3.09,0.05,-0.05,-0.15,0.26,3.04,3.05,3.05
395.77,3.04,-0.01,3.04,-0.02,0.02,-0.09,0.34,3.06,3.06,3.05
399.73,2.98,-0.08,2.98,-0.09,0.09,-0.03,0.41,3.07,3.07,3.06
403.72,2.92,-0.16,2.92,-0.15,0.16,0.03,0.49,3.08,3.08,3.08
407.76,2.86,-0.23,2.86,-0.23,0.23,0.09,0.56,3.09,3.08,3.09
411.84,2.80,-0.30,2.80,-0.30,0.30,0.15,0.64,3.10,3.09,3.10
415.96,2.73,-0.38,2.74,-0.36,0.37,0.21,0.71,3.10,3.10,3.11
420.12,2.68,-0.42,2.68,-0.43,0.43,0.27,0.78,3.11,3.11,3.10
424.32,2.62,-0.49,2.62,-0.50,0.50,0.33,0.85,3.12,3.12,3.11
428.56,2.56,-0.57,2.56,-0.57,0.57,0.39,0.92,3.13,3.13,3.13
432.85,2.50,-0.65,2.50,-0.64,0.63,0.45,0.99,3.13,3.14,3.15
437.18,2.45,-0.69,2.45,-0.70,0.70,0.51,1.06,3.15,3.14,3.14
441.55,2.40,-0.75,2.39,-0.76,0.76,0.57,1.12,3.16,3.15,3.15
445.96,2.34,-0.82,2.34,-0.81,0.82,0.63,1.19,3.16,3.16,3.16
450.42,2.29,-0.88,2.29,-0.87,0.87,0.69,1.25,3.16,3.17,3.17
454.93,2.25,-0.93,2.25,-0.93,0.93,0.75,1.31,3.18,3.18,3.18
459.48,2.21,-0.98,2.21,-0.98,0.99,0.81,1.37,3.20,3.20,3.19
464.07,2.16,-1.05,2.16,-1.04,1.05,0.88,1.43,3.21,3.21,3.21
468.71,2.11,-1.10,2.11,-1.10,1.10,0.94,1.48,3.21,3.21,3.21
473.40,2.05,-1.17,2.05,-1.17,1.16,1.00,1.53,3.21,3.21,3.22
478.13,2.00,-1.23,2.00,-1.22,1.21,1.06,1.59,3.21,3.22,3.23
482.91,1.96,-1.27,1.96,-1.27,1.27,1.13,1.63,3.23,3.23,3.23
487.74,1.93,-1.31,1.92,-1.32,1.33,1.19,1.68,3.26,3.25,3.24
492.62,1.88,-1.37,1.88,-1.37,1.39,1.25,1.72,3.27,3.27,3.25
497.55,1.83,-1.43,1.83,-1.44,1.44,1.32,1.76,3.27,3.27,3.26
502.52,1.77,-1.50,1.77,-1.50,1.50,1.38,1.80,3.27,3.27,3.27
507.55,1.72,-1.57,1.72,-1.57,1.56,1.45,1.84,3.28,3.28,3.29
512.62,1.67,-1.63,1.67,-1.63,1.62,1.51,1.87,3.29,3.29,3.30
517.75,1.63,-1.69,1.63,-1.69,1.68,1.57,1.90,3.31,3.31,3.32
