frequency,raw,error,smoothed,error_smoothed,equalization,parametric_eq,fixed_band_eq,equalized_raw,equalized_smoothed,target
20.00,-2.82,-4.17,-2.83,-4.18,4.18,3.63,1.17,1.36,1.35,1.36
20.20,-2.82,-4.17,-2.80,-4.15,4.15,3.61,1.21,1.33,1.35,1.36
20.40,-2.76,-4.11,-2.76,-4.12,4.12,3.59,1.25,1.36,1.36,1.35
20.61,-2.73,-4.08,-2.73,-4.09,4.09,3.56,1.28,1.36,1.36,1.35
20.81,-2.70,-4.05,-2.70,-4.05,4.06,3.54,1.32,1.36,1.36,1.35
21.02,-2.67,-4.02,-2.66,-4.02,4.02,3.52,1.36,1.36,1.36,1.35
21.23,-2.63,-3.98,-2.63,-3.98,3.99,3.50,1.40,1.36,1.36,1.35
21.44,-2.58,-3.93,-2.59,-3.94,3.95,3.48,1.45,1.37,1.36,1.35
21.66,-2.56,-3.91,-2.55,-3.91,3.91,3.46,1.49,1.35,1.36,1.35
21.87,-2.52,-3.87,-2.52,-3.87,3.87,3.44,1.54,1.35,1.35,1.35
22.09,-2.49,-3.84,-2.48,-3.83,3.82,3.42,1.58,1.34,1.34,1.35
22.31,-2.43,-3.78,-2.43,-3.78,3.78,3.39,1.63,1.35,1.35,1.35
22.54,-2.38,-3.73,-2.38,-3.73,3.72,3.37,1.68,1.35,1.35,1.35
22.76,-2.32,-3.67,-2.32,-3.67,3.67,3.35,1.73,1.35,1.35,1.35
22.99,-2.26,-3.61,-2.26,-3.61,3.61,3.32,1.78,1.35,1.35,1.35
23.22,-2.19,-3.54,-2.19,-3.54,3.54,3.30,1.83,1.35,1.35,1.35
23.45,-2.14,-3.49,-2.13,-3.48,3.47,3.28,1.88,1.34,1.35,1.35
23.69,-2.06,-3.41,-2.06,-3.41,3.41,3.25,1.94,1.35,1.35,1.35
23.92,-1.98,-3.32,-1.99,-3.34,3.34,3.23,1.99,1.36,1.35,1.35
24.16,-1.93,-3.27,-1.92,-3.27,3.27,3.20,2.05,1.35,1.35,1.35
24.40,-1.86,-3.20,-1.86,-3.21,3.21,3.18,2.11,1.35,1.35,1.35
24.65,-1.81,-3.15,-1.80,-3.15,3.15,3.15,2.17,1.34,1.34,1.35
24.89,-1.74,-3.08,-1.74,-3.09,3.09,3.13,2.22,1.35,1.35,1.35
25.14,-1.69,-3.03,-1.68,-3.03,3.03,3.10,2.28,1.34,1.35,1.35
25.39,-1.63,-2.97,-1.63,-2.97,2.98,3.08,2.34,1.35,1.35,1.34
25.65,-1.58,-2.92,-1.58,-2.93,2.93,3.05,2.40,1.35,1.35,1.34
25.91,-1.55,-2.89,-1.54,-2.88,2.88,3.03,2.46,1.33,1.34,1.34
26.16,-1.49,-2.83,-1.50,-2.84,2.84,3.00,2.52,1.35,1.34,1.34
26.43,-1.46,-2.80,-1.45,-2.80,2.79,2.97,2.58,1.34,1.34,1.34
26.69,-1.42,-2.76,-1.42,-2.76,2.76,2.95,2.63,1.34,1.34,1.34
26.96,-1.38,-2.72,-1.39,-2.73,2.72,2.92,2.69,1.34,1.33,1.34
27.23,-1.37,-2.71,-1.35,-2.69,2.69,2.89,2.74,1.32,1.34,1.34
27.50,-1.32,-2.66,-1.32,-2.66,2.67,2.86,2.79,1.35,1.35,1.34
27.77,-1.29,-2.62,-1.30,-2.63,2.65,2.84,2.84,1.36,1.35,1.34
28.05,-1.28,-2.61,-1.28,-2.61,2.63,2.81,2.89,1.35,1.35,1.34
28.33,-1.28,-2.61,-1.28,-2.61,2.62,2.78,2.94,1.34,1.34,1.34
28.62,-1.28,-2.61,-1.28,-2.61,2.60,2.75,2.98,1.33,1.33,1.34
28.90,-1.28,-2.61,-1.27,-2.60,2.59,2.72,3.02,1.31,1.32,1.33
29.19,-1.26,-2.59,-1.26,-2.59,2.58,2.70,3.05,1.32,1.32,1.33
29.48,-1.23,-2.56,-1.24,-2.57,2.57,2.67,3.08,1.34,1.33,1.33
29.78,-1.23,-2.56,-1.22,-2.55,2.55,2.64,3.11,1.32,1.33,1.33
30.08,-1.20,-2.53,-1.20,-2.53,2.53,2.61,3.13,1.34,1.33,1.33
30.38,-1.18,-2.51,-1.18,-2.51,2.51,2.58,3.15,1.33,1.33,1.33
30.68,-1.16,-2.48,-1.15,-2.48,2.48,2.55,3.16,1.33,1.33,1.33
30.99,-1.14,-2.46,-1.13,-2.46,2.46,2.52,3.17,1.32,1.32,1.33
31.30,-1.10,-2.42,-1.11,-2.43,2.43,2.49,3.17,1.33,1.32,1.32
31.61,-1.09,-2.41,-1.07,-2.40,2.40,2.46,3.16,1.31,1.32,1.32
31.93,-1.04,-2.36,-1.04,-2.36,2.36,2.43,3.15,1.33,1.33,1.32
32.24,-1.00,-2.32,-1.00,-2.32,2.33,2.40,3.14,1.33,1.32,1.32
32.57,-0.97,-2.29,-0.96,-2.28,2.28,2.37,3.12,1.32,1.32,1.32
32.89,-0.93,-2.24,-0.93,-2.24,2.24,2.33,3.10,1.31,1.31,1.32
33.22,-0.89,-2.20,-0.88,-2.20,2.19,2.30,3.07,1.30,1.30,1.31
33.55,-0.83,-2.14,-0.83,-2.14,2.13,2.27,3.04,1.31,1.30,1.31
33.89,-0.77,-2.08,-0.77,-2.08,2.07,2.24,3.00,1.31,1.31,1.31
34.23,-0.70,-2.01,-0.70,-2.01,2.01,2.21,2.96,1.31,1.31,1.31
34.57,-0.64,-1.94,-0.64,-1.95,1.95,2.18,2.92,1.31,1.31,1.31
34.92,-0.58,-1.88,-0.58,-1.88,1.89,2.15,2.87,1.31,1.31,1.31
35.27,-0.52,-1.82,-0.52,-1.82,1.83,2.11,2.82,1.31,1.31,1.30
35.62,-0.46,-1.76,-0.46,-1.76,1.77,2.08,2.77,1.31,1.31,1.30
35.97,-0.41,-1.70,-0.41,-1.71,1.71,2.05,2.72,1.31,1.30,1.30
36.33,-0.37,-1.66,-0.36,-1.66,1.66,2.02,2.66,1.29,1.30,1.30
36.70,-0.32,-1.61,-0.32,-1.61,1.61,1.98,2.61,1.29,1.29,1.29
37.06,-0.27,-1.56,-0.27,-1.56,1.56,1.95,2.55,1.29,1.29,1.29
37.43,-0.23,-1.51,-0.22,-1.51,1.51,1.92,2.49,1.28,1.29,1.29
37.81,-0.18,-1.46,-0.18,-1.46,1.46,1.89,2.43,1.28,1.28,1.29
38.19,-0.13,-1.41,-0.13,-1.41,1.40,1.85,2.37,1.28,1.27,1.28
38.57,-0.09,-1.37,-0.08,-1.36,1.35,1.82,2.31,1.26,1.27,1.28
38.95,-0.03,-1.30,-0.02,-1.30,1.30,1.79,2.25,1.27,1.27,1.28
39.34,0.03,-1.24,0.03,-1.24,1.25,1.76,2.20,1.28,1.28,1.27
39.74,0.09,-1.18,0.09,-1.18,1.20,1.72,2.14,1.29,1.28,1.27
40.14,0.12,-1.14,0.13,-1.14,1.15,1.69,2.08,1.28,1.28,1.27
40.54,0.16,-1.10,0.16,-1.11,1.11,1.66,2.02,1.28,1.27,1.26
40.94,0.17,-1.09,0.18,-1.08,1.08,1.63,1.97,1.25,1.25,1.26
41.35,0.20,-1.05,0.21,-1.05,1.04,1.59,1.91,1.25,1.25,1.25
41.76,0.22,-1.03,0.23,-1.03,1.01,1.56,1.86,1.24,1.24,1.25
42.18,0.26,-0.98,0.25,-0.99,0.99,1.53,1.80,1.25,1.24,1.25
42.60,0.26,-0.98,0.28,-0.97,0.96,1.49,1.75,1.23,1.24,1.24
43.03,0.30,-0.93,0.30,-0.94,0.94,1.46,1.70,1.24,1.24,1.24
43.46,0.31,-0.92,0.31,-0.92,0.93,1.43,1.65,1.24,1.24,1.23
43.90,0.33,-0.90,0.33,-0.90,0.92,1.39,1.60,1.25,1.24,1.23
44.33,0.31,-0.91,0.32,-0.91,0.91,1.36,1.55,1.23,1.23,1.22
44.78,0.31,-0.91,0.30,-0.92,0.92,1.33,1.51,1.23,1.22,1.22
45.23,0.26,-0.95,0.28,-0.93,0.93,1.30,1.46,1.19,1.21,1.21
45.68,0.26,-0.94,0.26,-0.95,0.95,1.26,1.42,1.22,1.21,1.21
46.13,0.22,-0.98,0.22,-0.98,0.98,1.23,1.38,1.20,1.20,1.20
46.60,0.19,-1.00,0.19,-1.01,1.01,1.20,1.34,1.21,1.20,1.20
47.06,0.13,-1.06,0.14,-1.05,1.05,1.17,1.30,1.18,1.19,1.19
47.53,0.10,-1.08,0.10,-1.08,1.08,1.13,1.26,1.18,1.18,1.18
48.01,0.05,-1.12,0.05,-1.12,1.11,1.10,1.22,1.17,1.17,1.18
48.49,0.01,-1.16,0.01,-1.16,1.15,1.07,1.18,1.16,1.16,1.17
48.97,-0.04,-1.20,-0.03,-1.19,1.18,1.04,1.15,1.15,1.15,1.16
49.46,-0.07,-1.22,-0.07,-1.22,1.22,1.01,1.11,1.15,1.16,1.15
49.96,-0.10,-1.24,-0.10,-1.25,1.26,0.97,1.08,1.16,1.16,1.15
50.46,-0.15,-1.29,-0.14,-1.28,1.30,0.94,1.05,1.15,1.16,1.14
50.96,-0.19,-1.32,-0.20,-1.33,1.34,0.91,1.01,1.15,1.14,1.13
51.47,-0.26,-1.38,-0.26,-1.38,1.38,0.88,0.98,1.12,1.12,1.12
51.99,-0.32,-1.43,-0.31,-1.42,1.42,0.85,0.95,1.10,1.11,1.11
52.51,-0.37,-1.47,-0.36,-1.47,1.46,0.82,0.92,1.09,1.09,1.10
53.03,-0.39,-1.48,-0.40,-1.49,1.49,0.78,0.89,1.10,1.09,1.10
53.56,-0.44,-1.52,-0.43,-1.51,1.51,0.75,0.87,1.07,1.09,1.09
54.10,-0.44,-1.51,-0.45,-1.53,1.53,0.72,0.84,1.09,1.07,1.08
54.64,-0.48,-1.54,-0.47,-1.53,1.53,0.69,0.81,1.05,1.06,1.07
55.18,-0.48,-1.53,-0.47,-1.52,1.52,0.66,0.79,1.05,1.05,1.05
55.74,-0.46,-1.50,-0.46,-1.51,1.50,0.63,0.76,1.05,1.04,1.04
56.29,-0.44,-1.47,-0.44,-1.47,1.47,0.60,0.73,1.04,1.03,1.03
56.86,-0.42,-1.44,-0.41,-1.43,1.43,0.57,0.71,1.02,1.02,1.02
57.42,-0.38,-1.38,-0.38,-1.39,1.38,0.54,0.68,1.00,1.00,1.01
58.00,-0.34,-1.33,-0.33,-1.33,1.32,0.51,0.66,0.98,0.99,1.00
58.58,-0.28,-1.26,-0.27,-1.25,1.25,0.48,0.63,0.97,0.98,0.98
59.16,-0.20,-1.17,-0.20,-1.17,1.17,0.45,0.61,0.98,0.97,0.97
59.76,-0.12,-1.07,-0.13,-1.09,1.09,0.42,0.58,0.97,0.96,0.96
60.35,-0.07,-1.01,-0.06,-1.00,1.00,0.39,0.56,0.93,0.94,0.94
60.96,0.01,-0.91,0.02,-0.91,0.91,0.36,0.54,0.92,0.93,0.93
61.57,0.10,-0.81,0.10,-0.82,0.82,0.33,0.51,0.92,0.91,0.91
62.18,0.17,-0.72,0.18,-0.72,0.73,0.30,0.49,0.90,0.90,0.90
62.80,0.25,-0.63,0.25,-0.63,0.64,0.27,0.46,0.89,0.89,0.88
63.43,0.31,-0.55,0.32,-0.55,0.55,0.24,0.44,0.86,0.87,0.86
64.07,0.38,-0.46,0.38,-0.46,0.46,0.21,0.41,0.85,0.85,0.85
64.71,0.44,-0.39,0.44,-0.39,0.38,0.19,0.39,0.83,0.83,0.83
65.35,0.50,-0.31,0.51,-0.30,0.30,0.16,0.36,0.81,0.81,0.81
66.01,0.56,-0.23,0.56,-0.23,0.23,0.13,0.34,0.79,0.79,0.79
66.67,0.62,-0.15,0.62,-0.16,0.16,0.10,0.31,0.78,0.77,0.77
67.33,0.66,-0.09,0.66,-0.09,0.09,0.07,0.29,0.75,0.75,0.75
68.01,0.70,-0.03,0.71,-0.02,0.02,0.04,0.26,0.73,0.73,0.73
68.69,0.75,0.04,0.75,0.04,-0.04,0.02,0.23,0.71,0.71,0.71
69.37,0.79,0.10,0.79,0.10,-0.10,-0.01,0.21,0.69,0.69,0.69
70.07,0.82,0.15,0.82,0.15,-0.15,-0.04,0.18,0.67,0.67,0.67
70.77,0.85,0.21,0.85,0.21,-0.21,-0.07,0.15,0.65,0.65,0.65
71.48,0.87,0.25,0.88,0.26,-0.26,-0.10,0.12,0.62,0.63,0.62
72.19,0.92,0.32,0.90,0.30,-0.30,-0.12,0.10,0.62,0.60,0.60
72.91,0.92,0.35,0.92,0.35,-0.34,-0.15,0.07,0.58,0.58,0.58
73.64,0.92,0.37,0.94,0.39,-0.38,-0.18,0.04,0.54,0.56,0.55
74.38,0.96,0.44,0.95,0.42,-0.42,-0.21,0.01,0.54,0.53,0.53
75.12,0.96,0.46,0.96,0.46,-0.46,-0.23,-0.02,0.50,0.49,0.50
75.87,0.96,0.49,0.97,0.49,-0.50,-0.26,-0.05,0.46,0.47,0.48
76.63,0.96,0.51,0.98,0.53,-0.54,-0.29,-0.08,0.43,0.44,0.45
77.40,1.01,0.59,1.00,0.58,-0.57,-0.31,-0.11,0.44,0.42,0.42
78.17,1.01,0.62,1.01,0.62,-0.61,-0.34,-0.14,0.40,0.40,0.39
78.95,1.01,0.65,1.02,0.65,-0.64,-0.37,-0.17,0.37,0.37,0.36
79.74,1.01,0.68,1.01,0.68,-0.68,-0.39,-0.20,0.34,0.34,0.34
80.54,1.01,0.71,1.01,0.71,-0.71,-0.42,-0.23,0.30,0.30,0.31
81.35,1.01,0.74,1.01,0.74,-0.74,-0.45,-0.26,0.27,0.27,0.28
82.16,1.01,0.77,1.01,0.77,-0.77,-0.47,-0.30,0.24,0.24,0.24
82.98,1.01,0.80,1.01,0.80,-0.80,-0.50,-0.33,0.21,0.21,0.21
83.81,1.01,0.83,1.01,0.83,-0.83,-0.53,-0.36,0.18,0.18,0.18
84.65,1.01,0.86,1.01,0.86,-0.87,-0.55,-0.40,0.15,0.15,0.15
85.50,1.01,0.90,1.01,0.90,-0.90,-0.58,-0.43,0.11,0.11,0.12
86.35,1.01,0.93,1.01,0.93,-0.93,-0.61,-0.47,0.08,0.08,0.08
87.22,1.01,0.96,1.02,0.97,-0.96,-0.63,-0.50,0.05,0.06,0.05
88.09,1.01,1.00,1.01,0.99,-0.99,-0.66,-0.54,0.03,0.02,0.02
88.97,1.01,1.03,1.00,1.02,-1.01,-0.68,-0.57,0.00,-0.01,-0.02
89.86,0.96,1.02,0.98,1.03,-1.03,-0.71,-0.61,-0.07,-0.06,-0.05
90.76,0.96,1.05,0.96,1.04,-1.05,-0.73,-0.65,-0.09,-0.09,-0.09
91.66,0.92,1.05,0.93,1.05,-1.06,-0.76,-0.69,-0.14,-0.13,-0.12
92.58,0.91,1.07,0.91,1.07,-1.06,-0.78,-0.72,-0.15,-0.15,-0.16
93.51,0.87,1.07,0.88,1.07,-1.06,-0.81,-0.76,-0.19,-0.19,-0.20
94.44,0.84,1.08,0.84,1.07,-1.06,-0.83,-0.80,-0.21,-0.22,-0.23
95.39,0.78,1.05,0.78,1.05,-1.05,-0.85,-0.84,-0.26,-0.26,-0.27
96.34,0.72,1.03,0.72,1.03,-1.04,-0.88,-0.88,-0.31,-0.31,-0.31
97.30,0.66,1.01,0.67,1.01,-1.02,-0.90,-0.92,-0.36,-0.35,-0.34
98.28,0.61,1.00,0.62,1.00,-1.00,-0.92,-0.96,-0.39,-0.39,-0.38
99.26,0.57,0.99,0.57,0.99,-0.99,-0.95,-1.00,-0.42,-0.42,-0.42
100.25,0.52,0.98,0.52,0.98,-0.98,-0.97,-1.04,-0.45,-0.45,-0.46
101.25,0.47,0.97,0.47,0.97,-0.97,-0.99,-1.08,-0.50,-0.49,-0.50
102.27,0.43,0.97,0.43,0.96,-0.97,-1.01,-1.12,-0.53,-0.54,-0.53
103.29,0.38,0.96,0.39,0.96,-0.97,-1.03,-1.16,-0.59,-0.58,-0.57
104.32,0.36,0.97,0.36,0.97,-0.98,-1.05,-1.20,-0.61,-0.62,-0.61
105.37,0.34,0.99,0.34,0.99,-0.99,-1.07,-1.24,-0.65,-0.65,-0.65
106.42,0.31,1.00,0.32,1.01,-1.01,-1.09,-1.28,-0.70,-0.69,-0.69
107.48,0.31,1.04,0.31,1.04,-1.04,-1.11,-1.32,-0.72,-0.72,-0.73
108.56,0.31,1.08,0.31,1.07,-1.07,-1.13,-1.35,-0.76,-0.76,-0.76
109.64,0.31,1.12,0.31,1.11,-1.11,-1.15,-1.39,-0.80,-0.80,-0.80
110.74,0.31,1.15,0.32,1.16,-1.16,-1.17,-1.42,-0.85,-0.84,-0.84
111.85,0.31,1.19,0.33,1.20,-1.21,-1.18,-1.45,-0.90,-0.89,-0.88
112.97,0.36,1.28,0.35,1.26,-1.27,-1.20,-1.48,-0.91,-0.92,-0.92
114.10,0.36,1.32,0.37,1.33,-1.33,-1.22,-1.51,-0.97,-0.96,-0.95
115.24,0.40,1.39,0.40,1.39,-1.39,-1.23,-1.53,-0.99,-0.99,-0.99
116.39,0.43,1.46,0.43,1.46,-1.46,-1.24,-1.55,-1.02,-1.03,-1.03
117.55,0.45,1.52,0.46,1.53,-1.52,-1.26,-1.57,-1.07,-1.06,-1.06
118.73,0.50,1.60,0.49,1.59,-1.58,-1.27,-1.59,-1.08,-1.10,-1.10
119.92,0.50,1.64,0.51,1.64,-1.64,-1.28,-1.60,-1.14,-1.14,-1.14
121.12,0.51,1.69,0.52,1.70,-1.70,-1.29,-1.61,-1.18,-1.17,-1.17
122.33,0.54,1.75,0.53,1.74,-1.74,-1.30,-1.62,-1.20,-1.21,-1.21
123.55,0.54,1.79,0.55,1.79,-1.78,-1.31,-1.62,-1.24,-1.24,-1.24
124.79,0.54,1.82,0.54,1.82,-1.82,-1.32,-1.62,-1.28,-1.27,-1.28
126.03,0.54,1.86,0.53,1.84,-1.84,-1.33,-1.62,-1.30,-1.31,-1.31
127.29,0.50,1.85,0.52,1.87,-1.86,-1.34,-1.61,-1.36,-1.34,-1.35
128.57,0.50,1.88,0.50,1.88,-1.87,-1.35,-1.60,-1.37,-1.38,-1.38
129.85,0.47,1.89,0.46,1.88,-1.88,-1.35,-1.59,-1.41,-1.41,-1.41
131.15,0.42,1.87,0.43,1.88,-1.88,-1.36,-1.57,-1.45,-1.44,-1.44
132.46,0.38,1.86,0.39,1.86,-1.86,-1.36,-1.55,-1.48,-1.48,-1.48
133.79,0.34,1.85,0.34,1.85,-1.85,-1.36,-1.53,-1.50,-1.51,-1.51
135.12,0.28,1.82,0.29,1.82,-1.82,-1.37,-1.50,-1.54,-1.54,-1.54
136.48,0.22,1.79,0.22,1.79,-1.79,-1.37,-1.48,-1.57,-1.57,-1.57
137.84,0.15,1.75,0.15,1.75,-1.75,-1.37,-1.44,-1.60,-1.60,-1.60
139.22,0.07,1.70,0.08,1.71,-1.70,-1.37,-1.41,-1.63,-1.63,-1.63
140.61,0.00,1.66,-0.00,1.65,-1.65,-1.37,-1.38,-1.65,-1.65,-1.66
142.02,-0.10,1.59,-0.09,1.59,-1.59,-1.37,-1.34,-1.69,-1.68,-1.68
143.44,-0.19,1.53,-0.19,1.53,-1.52,-1.36,-1.30,-1.71,-1.71,-1.71
144.87,-0.29,1.45,-0.29,1.45,-1.44,-1.36,-1.26,-1.73,-1.74,-1.74
146.32,-0.40,1.37,-0.40,1.37,-1.37,-1.35,-1.22,-1.76,-1.76,-1.77
147.78,-0.51,1.28,-0.51,1.29,-1.28,-1.35,-1.18,-1.79,-1.79,-1.79
149.26,-0.62,1.20,-0.62,1.20,-1.20,-1.34,-1.13,-1.82,-1.82,-1.82
150.75,-0.73,1.11,-0.73,1.12,-1.12,-1.33,-1.09,-1.85,-1.85,-1.84
152.26,-0.84,1.03,-0.83,1.03,-1.04,-1.33,-1.04,-1.88,-1.88,-1.87
153.78,-0.92,0.97,-0.93,0.96,-0.97,-1.32,-1.00,-1.89,-1.90,-1.89
155.32,-1.03,0.89,-1.02,0.90,-0.90,-1.31,-0.95,-1.92,-1.91,-1.91
156.88,-1.10,0.84,-1.10,0.83,-0.83,-1.30,-0.91,-1.92,-1.93,-1.94
158.44,-1.19,0.77,-1.19,0.77,-0.76,-1.28,-0.86,-1.95,-1.95,-1.96
160.03,-1.27,0.71,-1.27,0.71,-0.70,-1.27,-0.82,-1.97,-1.97,-1.98
161.63,-1.35,0.65,-1.35,0.65,-0.64,-1.26,-0.77,-1.99,-1.99,-2.00
163.24,-1.44,0.58,-1.43,0.58,-0.59,-1.25,-0.72,-2.03,-2.02,-2.02
164.88,-1.51,0.53,-1.51,0.53,-0.54,-1.23,-0.68,-2.05,-2.05,-2.04
166.53,-1.58,0.48,-1.57,0.49,-0.51,-1.21,-0.63,-2.08,-2.07,-2.06
168.19,-1.61,0.47,-1.61,0.46,-0.47,-1.20,-0.59,-2.08,-2.09,-2.08
169.87,-1.65,0.45,-1.65,0.45,-0.45,-1.18,-0.54,-2.10,-2.09,-2.10
171.57,-1.68,0.44,-1.68,0.44,-0.43,-1.16,-0.50,-2.11,-2.11,-2.11
173.29,-1.70,0.43,-1.70,0.43,-0.42,-1.14,-0.45,-2.12,-2.12,-2.13
175.02,-1.74,0.41,-1.73,0.42,-0.42,-1.12,-0.41,-2.15,-2.14,-2.15
176.77,-1.74,0.43,-1.75,0.41,-0.41,-1.10,-0.37,-2.15,-2.17,-2.16
178.54,-1.79,0.39,-1.77,0.41,-0.41,-1.08,-0.32,-2.20,-2.18,-2.18
180.32,-1.79,0.41,-1.78,0.41,-0.41,-1.06,-0.28,-2.19,-2.19,-2.19
182.13,-1.79,0.42,-1.80,0.41,-0.41,-1.03,-0.24,-2.19,-2.20,-2.21
183.95,-1.80,0.43,-1.81,0.42,-0.41,-1.01,-0.20,-2.20,-2.21,-2.22
185.79,-1.84,0.40,-1.82,0.41,-0.41,-0.98,-0.15,-2.25,-2.24,-2.24
187.65,-1.84,0.41,-1.84,0.41,-0.42,-0.96,-0.11,-2.26,-2.26,-2.25
189.52,-1.84,0.43,-1.84,0.42,-0.44,-0.93,-0.07,-2.27,-2.28,-2.26
191.42,-1.84,0.44,-1.83,0.45,-0.46,-0.90,-0.03,-2.29,-2.28,-2.28
193.33,-1.81,0.48,-1.82,0.47,-0.48,-0.87,0.01,-2.29,-2.29,-2.29
195.27,-1.79,0.51,-1.79,0.51,-0.51,-0.85,0.05,-2.29,-2.30,-2.30
197.22,-1.79,0.53,-1.77,0.54,-0.54,-0.81,0.09,-2.32,-2.31,-2.31
199.19,-1.74,0.59,-1.75,0.57,-0.57,-0.78,0.13,-2.31,-2.32,-2.32
201.18,-1.74,0.60,-1.73,0.61,-0.60,-0.75,0.17,-2.34,-2.33,-2.33
203.19,-1.70,0.65,-1.71,0.64,-0.64,-0.72,0.21,-2.33,-2.34,-2.35
205.23,-1.70,0.66,-1.69,0.66,-0.67,-0.68,0.25,-2.37,-2.36,-2.36
207.28,-1.68,0.69,-1.67,0.69,-0.70,-0.65,0.29,-2.38,-2.38,-2.36
209.35,-1.65,0.73,-1.66,0.72,-0.73,-0.61,0.32,-2.38,-2.38,-2.37
211.44,-1.65,0.74,-1.63,0.76,-0.75,-0.58,0.36,-2.40,-2.38,-2.38
213.56,-1.60,0.80,-1.61,0.78,-0.77,-0.54,0.40,-2.37,-2.38,-2.39
215.69,-1.60,0.80,-1.61,0.79,-0.78,-0.50,0.44,-2.38,-2.39,-2.40
217.85,-1.63,0.78,-1.61,0.80,-0.79,-0.46,0.48,-2.41,-2.40,-2.41
220.03,-1.65,0.77,-1.64,0.78,-0.78,-0.42,0.51,-2.43,-2.42,-2.42
222.23,-1.65,0.78,-1.66,0.76,-0.76,-0.37,0.55,-2.41,-2.43,-2.42
224.45,-1.70,0.74,-1.69,0.74,-0.74,-0.33,0.59,-2.43,-2.43,-2.43
226.70,-1.74,0.70,-1.74,0.70,-0.69,-0.28,0.62,-2.43,-2.43,-2.44
228.96,-1.81,0.64,-1.80,0.65,-0.64,-0.24,0.66,-2.45,-2.44,-2.45
231.25,-1.86,0.60,-1.86,0.59,-0.58,-0.19,0.69,-2.44,-2.45,-2.45
233.57,-1.95,0.51,-1.94,0.52,-0.52,-0.14,0.73,-2.46,-2.46,-2.46
235.90,-2.02,0.45,-2.03,0.44,-0.44,-0.09,0.76,-2.46,-2.47,-2.47
238.26,-2.13,0.35,-2.12,0.36,-0.36,-0.03,0.80,-2.48,-2.47,-2.47
240.64,-2.21,0.27,-2.21,0.27,-0.27,0.02,0.83,-2.48,-2.48,-2.48
243.05,-2.30,0.19,-2.31,0.18,-0.18,0.08,0.87,-2.48,-2.48,-2.48
245.48,-2.41,0.08,-2.40,0.09,-0.09,0.13,0.90,-2.50,-2.49,-2.49
247.93,-2.50,-0.00,-2.50,-0.01,0.00,0.19,0.94,-2.50,-2.50,-2.49
250.41,-2.60,-0.10,-2.60,-0.10,0.09,0.26,0.97,-2.51,-2.51,-2.50
252.92,-2.69,-0.18,-2.69,-0.18,0.17,0.32,1.00,-2.51,-2.51,-2.50
255.45,-2.78,-0.27,-2.77,-0.27,0.26,0.39,1.04,-2.52,-2.52,-2.51
258.00,-2.86,-0.34,-2.86,-0.35,0.34,0.45,1.07,-2.52,-2.52,-2.51
260.58,-2.94,-0.42,-2.94,-0.42,0.42,0.53,1.10,-2.51,-2.51,-2.52
263.19,-3.03,-0.50,-3.02,-0.50,0.51,0.60,1.14,-2.52,-2.51,-2.52
265.82,-3.10,-0.57,-3.11,-0.59,0.60,0.67,1.17,-2.50,-2.51,-2.53
268.48,-3.22,-0.69,-3.21,-0.68,0.69,0.75,1.20,-2.53,-2.52,-2.53
271.16,-3.33,-0.79,-3.32,-0.79,0.79,0.84,1.24,-2.54,-2.53,-2.53
273.87,-3.44,-0.90,-3.44,-0.90,0.89,0.92,1.27,-2.54,-2.54,-2.54
276.61,-3.55,-1.01,-3.55,-1.01,1.00,1.01,1.31,-2.54,-2.54,-2.54
279.38,-3.66,-1.11,-3.66,-1.12,1.12,1.10,1.34,-2.54,-2.55,-2.54
282.17,-3.79,-1.24,-3.79,-1.24,1.23,1.19,1.38,-2.55,-2.55,-2.55
284.99,-3.92,-1.37,-3.91,-1.36,1.35,1.29,1.41,-2.56,-2.56,-2.55
287.84,-4.03,-1.47,-4.03,-1.48,1.47,1.39,1.45,-2.55,-2.56,-2.55
290.72,-4.16,-1.60,-4.16,-1.60,1.60,1.50,1.49,-2.56,-2.56,-2.56
293.63,-4.29,-1.73,-4.29,-1.73,1.73,1.61,1.53,-2.55,-2.56,-2.56
296.57,-4.43,-1.86,-4.43,-1.87,1.87,1.73,1.57,-2.56,-2.56,-2.56
299.53,-4.58,-2.01,-4.58,-2.01,2.01,1.85,1.61,-2.56,-2.56,-2.57
302.53,-4.73,-2.16,-4.73,-2.16,2.16,1.97,1.65,-2.56,-2.56,-2.57
305.55,-4.89,-2.32,-4.89,-2.32,2.32,2.10,1.70,-2.57,-2.57,-2.57
308.61,-5.05,-2.47,-5.05,-2.48,2.49,2.24,1.74,-2.56,-2.57,-2.57
311.69,-5.24,-2.66,-5.23,-2.65,2.65,2.38,1.79,-2.58,-2.57,-2.57
314.81,-5.40,-2.82,-5.40,-2.83,2.83,2.52,1.83,-2.57,-2.58,-2.58
317.96,-5.59,-3.01,-5.59,-3.01,3.00,2.68,1.88,-2.58,-2.58,-2.58
321.14,-5.77,-3.19,-5.77,-3.18,3.18,2.83,1.93,-2.59,-2.59,-2.58
324.35,-5.95,-3.36,-5.94,-3.36,3.36,3.00,1.99,-2.59,-2.59,-2.58
327.59,-6.12,-3.53,-6.12,-3.53,3.54,3.17,2.04,-2.58,-2.58,-2.58
330.87,-6.29,-3.70,-6.29,-3.71,3.71,3.34,2.10,-2.58,-2.58,-2.59
334.18,-6.47,-3.88,-6.47,-3.88,3.88,3.52,2.16,-2.58,-2.59,-2.59
337.52,-6.66,-4.07,-6.65,-4.06,4.05,3.71,2.22,-2.60,-2.59,-2.59
340.90,-6.82,-4.23,-6.82,-4.22,4.22,3.90,2.28,-2.60,-2.60,-2.59
344.30,-6.97,-4.37,-6.97,-4.38,4.38,4.10,2.34,-2.59,-2.60,-2.59
347.75,-7.13,-4.53,-7.13,-4.53,4.53,4.30,2.41,-2.59,-2.59,-2.59
351.23,-7.28,-4.68,-7.28,-4.68,4.68,4.50,2.47,-2.60,-2.60,-2.60
354.74,-7.43,-4.83,-7.43,-4.83,4.83,4.71,2.54,-2.60,-2.60,-2.60
358.28,-7.57,-4.97,-7.56,-4.96,4.96,4.92,2.62,-2.60,-2.60,-2.60
361.87,-7.70,-5.10,-7.69,-5.09,5.10,5.13,2.69,-2.60,-2.60,-2.60
365.49,-7.81,-5.21,-7.82,-5.22,5.22,5.33,2.77,-2.59,-2.60,-2.60
369.14,-7.95,-5.34,-7.95,-5.35,5.35,5.54,2.84,-2.60,-2.60,-2.60
372.83,-8.08,-5.47,-8.07,-5.46,5.47,5.73,2.92,-2.61,-2.60,-2.60
376.56,-8.19,-5.58,-8.18,-5.57,5.59,5.92,3.00,-2.60,-2.59,-2.61
380.33,-8.27,-5.66,-8.28,-5.67,5.69,6.09,3.09,-2.58,-2.59,-2.61
384.13,-8.38,-5.77,-8.38,-5.77,5.78,6.25,3.17,-2.59,-2.60,-2.61
387.97,-8.49,-5.88,-8.48,-5.87,5.86,6.39,3.26,-2.63,-2.62,-2.61
391.85,-8.60,-5.99,-8.59,-5.98,5.92,6.51,3.34,-2.68,-2.67,-2.61
395.77,-8.68,-6.07,-8.69,-6.08,5.97,6.61,3.43,-2.71,-2.72,-2.61
399.73,-8.79,-6.18,-8.79,-6.18,6.00,6.68,3.52,-2.79,-2.79,-2.61
403.72,-8.88,-6.27,-8.88,-6.27,6.01,6.72,3.61,-2.86,-2.86,-2.61
407.76,-8.96,-6.34,-8.95,-6.34,6.02,6.74,3.70,-2.94,-2.93,-2.61
411.84,-9.01,-6.39,-9.00,-6.39,6.02,6.72,3.79,-2.99,-2.98,-2.61
415.96,-9.02,-6.40,-9.04,-6.42,6.01,6.68,3.88,-3.01,-3.03,-2.61
420.12,-9.07,-6.45,-9.06,-6.44,6.00,6.60,3.97,-3.06,-3.06,-2.62
424.32,-9.07,-6.45,-9.06,-6.44,6.01,6.51,4.06,-3.06,-3.05,-2.62
428.56,-9.04,-6.42,-9.04,-6.42,6.03,6.39,4.14,-3.01,-3.01,-2.62
432.85,-8.99,-6.37,-8.99,-6.37,6.03,6.25,4.22,-2.95,-2.95,-2.62
437.18,-8.92,-6.30,-8.92,-6.30,6.03,6.09,4.30,-2.89,-2.89,-2.62
441.55,-8.83,-6.21,-8.84,-6.22,6.01,5.92,4.38,-2.82,-2.83,-2.62
445.96,-8.75,-6.13,-8.73,-6.11,5.96,5.73,4.45,-2.79,-2.77,-2.62
450.42,-8.60,-5.98,-8.61,-5.99,5.89,5.54,4.52,-2.71,-2.72,-2.62
454.93,-8.46,-5.84,-8.46,-5.84,5.78,5.35,4.58,-2.67,-2.67,-2.62
459.48,-8.29,-5.67,-8.28,-5.66,5.65,5.15,4.64,-2.64,-2.63,-2.62
464.07,-8.09,-5.47,-8.10,-5.47,5.49,4.94,4.69,-2.60,-2.61,-2.62
468.71,-7.90,-5.28,-7.90,-5.27,5.30,4.74,4.73,-2.59,-2.59,-2.62
473.40,-7.70,-5.07,-7.70,-5.07,5.10,4.54,4.76,-2.60,-2.60,-2.62
478.13,-7.49,-4.86,-7.49,-4.87,4.88,4.34,4.78,-2.61,-2.61,-2.62
482.91,-7.29,-4.66,-7.28,-4.66,4.66,4.15,4.80,-2.62,-2.62,-2.62
487.74,-7.07,-4.44,-7.07,-4.45,4.45,3.96,4.80,-2.62,-2.62,-2.62
