frequency,raw,error,smoothed,error_smoothed,equalization,parametric_eq,fixed_band_eq,equalized_raw,equalized_smoothed,target
20.00,-5.55,-6.87,-5.56,-6.87,6.00,6.02,2.42,0.45,0.44,1.32
20.20,-5.54,-6.86,-5.52,-6.84,6.00,6.00,2.49,0.46,0.48,1.32
20.40,-5.47,-6.79,-5.48,-6.80,6.00,5.99,2.56,0.53,0.52,1.32
20.61,-5.43,-6.75,-5.43,-6.75,6.00,5.98,2.64,0.57,0.57,1.32
20.81,-5.38,-6.70,-5.37,-6.69,6.00,5.96,2.71,0.62,0.63,1.32
21.02,-5.32,-6.64,-5.32,-6.63,6.00,5.95,2.79,0.68,0.68,1.32
21.23,-5.25,-6.57,-5.25,-6.57,6.00,5.93,2.87,0.75,0.75,1.31
21.44,-5.19,-6.50,-5.20,-6.51,6.00,5.92,2.96,0.81,0.80,1.31
21.66,-5.15,-6.47,-5.15,-6.46,6.00,5.90,3.04,0.85,0.85,1.31
21.87,-5.10,-6.41,-5.10,-6.41,6.00,5.89,3.13,0.90,0.90,1.31
22.09,-5.05,-6.36,-5.05,-6.36,6.00,5.87,3.22,0.95,0.95,1.31
22.31,-4.99,-6.30,-4.99,-6.30,6.00,5.86,3.31,1.01,1.01,1.31
22.54,-4.93,-6.24,-4.93,-6.24,6.01,5.84,3.41,1.08,1.08,1.31
22.76,-4.87,-6.18,-4.87,-6.19,6.01,5.83,3.50,1.14,1.13,1.31
22.99,-4.82,-6.13,-4.82,-6.14,6.01,5.81,3.60,1.19,1.18,1.31
23.22,-4.78,-6.09,-4.78,-6.09,6.00,5.79,3.71,1.22,1.22,1.31
23.45,-4.73,-6.04,-4.73,-6.04,5.99,5.78,3.81,1.25,1.25,1.31
23.69,-4.68,-5.99,-4.68,-6.00,5.96,5.76,3.92,1.28,1.28,1.31
23.92,-4.64,-5.95,-4.64,-5.95,5.94,5.74,4.03,1.30,1.30,1.31
24.16,-4.59,-5.90,-4.59,-5.90,5.90,5.72,4.14,1.31,1.31,1.31
24.40,-4.54,-5.85,-4.54,-5.85,5.86,5.70,4.25,1.32,1.32,1.31
24.65,-4.50,-5.81,-4.50,-5.80,5.81,5.69,4.36,1.31,1.32,1.31
24.89,-4.45,-5.76,-4.45,-5.76,5.76,5.67,4.48,1.31,1.31,1.31
25.14,-4.40,-5.71,-4.40,-5.71,5.71,5.65,4.60,1.31,1.31,1.31
25.39,-4.36,-5.67,-4.36,-5.66,5.66,5.63,4.71,1.30,1.31,1.31
25.65,-4.31,-5.62,-4.31,-5.61,5.62,5.61,4.83,1.31,1.31,1.31
25.91,-4.26,-5.57,-4.27,-5.57,5.57,5.59,4.95,1.31,1.31,1.30
26.16,-4.22,-5.52,-4.22,-5.53,5.53,5.57,5.07,1.31,1.31,1.30
26.43,-4.19,-5.49,-4.19,-5.49,5.49,5.55,5.19,1.30,1.30,1.30
26.69,-4.15,-5.45,-4.15,-5.45,5.45,5.53,5.30,1.30,1.30,1.30
26.96,-4.11,-5.41,-4.11,-5.41,5.41,5.50,5.42,1.30,1.30,1.30
27.23,-4.07,-5.37,-4.07,-5.37,5.38,5.48,5.53,1.31,1.30,1.30
27.50,-4.04,-5.34,-4.04,-5.34,5.34,5.46,5.64,1.30,1.30,1.30
27.77,-4.01,-5.31,-4.01,-5.31,5.31,5.44,5.75,1.30,1.30,1.30
28.05,-3.98,-5.28,-3.98,-5.28,5.28,5.41,5.85,1.30,1.30,1.30
28.33,-3.95,-5.25,-3.95,-5.24,5.24,5.39,5.95,1.29,1.30,1.30
28.62,-3.91,-5.21,-3.92,-5.22,5.22,5.37,6.04,1.30,1.30,1.30
28.90,-3.89,-5.19,-3.89,-5.18,5.19,5.34,6.12,1.30,1.30,1.30
29.19,-3.87,-5.16,-3.86,-5.16,5.16,5.32,6.20,1.29,1.30,1.29
29.48,-3.83,-5.12,-3.84,-5.13,5.13,5.29,6.27,1.30,1.29,1.29
29.78,-3.82,-5.11,-3.82,-5.11,5.11,5.27,6.33,1.29,1.29,1.29
30.08,-3.79,-5.08,-3.79,-5.08,5.08,5.24,6.38,1.29,1.29,1.29
30.38,-3.77,-5.06,-3.77,-5.06,5.06,5.22,6.43,1.28,1.29,1.29
30.68,-3.73,-5.02,-3.74,-5.03,5.03,5.19,6.46,1.30,1.29,1.29
30.99,-3.73,-5.02,-3.72,-5.01,5.01,5.17,6.49,1.28,1.29,1.29
31.30,-3.69,-4.98,-3.70,-4.98,4.98,5.14,6.50,1.29,1.29,1.29
31.61,-3.68,-4.96,-3.68,-4.96,4.96,5.11,6.50,1.28,1.29,1.28
31.93,-3.65,-4.93,-3.65,-4.94,4.94,5.09,6.50,1.29,1.29,1.28
32.24,-3.63,-4.91,-3.64,-4.92,4.92,5.06,6.48,1.29,1.28,1.28
32.57,-3.63,-4.91,-3.62,-4.90,4.90,5.03,6.45,1.27,1.28,1.28
32.89,-3.59,-4.87,-3.60,-4.88,4.87,5.00,6.42,1.28,1.27,1.28
33.22,-3.59,-4.87,-3.58,-4.86,4.85,4.97,6.37,1.26,1.27,1.28
33.55,-3.54,-4.82,-3.55,-4.83,4.83,4.95,6.33,1.29,1.28,1.27
33.89,-3.54,-4.81,-3.53,-4.80,4.81,4.92,6.26,1.26,1.27,1.27
34.23,-3.50,-4.77,-3.51,-4.78,4.78,4.89,6.20,1.28,1.28,1.27
34.57,-3.49,-4.76,-3.49,-4.76,4.76,4.86,6.13,1.26,1.26,1.27
34.92,-3.46,-4.73,-3.46,-4.73,4.73,4.83,6.05,1.27,1.27,1.27
35.27,-3.45,-4.72,-3.44,-4.71,4.70,4.80,5.97,1.25,1.26,1.26
35.62,-3.40,-4.66,-3.41,-4.67,4.68,4.77,5.88,1.28,1.26,1.26
35.97,-3.40,-4.66,-3.39,-4.65,4.65,4.74,5.80,1.25,1.26,1.26
36.33,-3.35,-4.61,-3.36,-4.62,4.62,4.71,5.71,1.27,1.26,1.26
36.70,-3.35,-4.61,-3.34,-4.60,4.59,4.67,5.61,1.24,1.25,1.25
37.06,-3.31,-4.56,-3.31,-4.57,4.57,4.64,5.52,1.25,1.25,1.25
37.43,-3.29,-4.54,-3.29,-4.54,4.54,4.61,5.42,1.25,1.25,1.25
37.81,-3.26,-4.51,-3.26,-4.51,4.51,4.58,5.33,1.25,1.24,1.25
38.19,-3.23,-4.47,-3.23,-4.48,4.48,4.55,5.24,1.25,1.24,1.24
38.57,-3.22,-4.46,-3.21,-4.45,4.45,4.52,5.14,1.23,1.24,1.24
38.95,-3.17,-4.41,-3.18,-4.42,4.42,4.48,5.05,1.25,1.24,1.24
39.34,-3.17,-4.40,-3.16,-4.39,4.40,4.45,4.96,1.23,1.24,1.23
39.74,-3.13,-4.36,-3.14,-4.37,4.37,4.42,4.87,1.24,1.23,1.23
40.14,-3.12,-4.35,-3.12,-4.35,4.35,4.39,4.79,1.23,1.23,1.23
40.54,-3.11,-4.33,-3.10,-4.33,4.33,4.35,4.70,1.22,1.22,1.22
40.94,-3.08,-4.30,-3.09,-4.31,4.31,4.32,4.62,1.22,1.22,1.22
41.35,-3.08,-4.30,-3.07,-4.28,4.28,4.29,4.54,1.20,1.22,1.22
41.76,-3.04,-4.25,-3.05,-4.26,4.26,4.26,4.46,1.22,1.21,1.21
42.18,-3.03,-4.24,-3.04,-4.24,4.24,4.22,4.39,1.21,1.21,1.21
42.60,-3.03,-4.23,-3.02,-4.22,4.22,4.19,4.32,1.19,1.21,1.20
43.03,-3.00,-4.20,-3.00,-4.20,4.20,4.16,4.25,1.20,1.20,1.20
43.46,-2.98,-4.18,-2.99,-4.18,4.18,4.13,4.19,1.20,1.19,1.19
43.90,-2.98,-4.17,-2.97,-4.16,4.17,4.09,4.13,1.18,1.19,1.19
44.33,-2.96,-4.15,-2.96,-4.15,4.15,4.06,4.07,1.19,1.18,1.18
44.78,-2.94,-4.12,-2.95,-4.13,4.13,4.03,4.01,1.18,1.18,1.18
45.23,-2.94,-4.11,-2.93,-4.10,4.10,4.00,3.96,1.16,1.18,1.17
45.68,-2.91,-4.08,-2.92,-4.09,4.08,3.97,3.91,1.17,1.16,1.17
46.13,-2.89,-4.05,-2.90,-4.06,4.06,3.93,3.87,1.17,1.16,1.16
46.60,-2.89,-4.05,-2.88,-4.03,4.03,3.90,3.82,1.14,1.16,1.16
47.06,-2.84,-3.99,-2.85,-4.00,4.01,3.87,3.78,1.17,1.15,1.15
47.53,-2.84,-3.98,-2.83,-3.98,3.98,3.84,3.75,1.14,1.14,1.14
48.01,-2.80,-3.94,-2.81,-3.95,3.95,3.81,3.71,1.15,1.14,1.14
48.49,-2.80,-3.93,-2.79,-3.92,3.92,3.78,3.68,1.11,1.13,1.13
48.97,-2.75,-3.87,-2.76,-3.88,3.88,3.75,3.65,1.13,1.12,1.12
49.46,-2.74,-3.86,-2.73,-3.85,3.85,3.72,3.63,1.11,1.12,1.12
49.96,-2.70,-3.81,-2.70,-3.81,3.82,3.69,3.60,1.12,1.11,1.11
50.46,-2.68,-3.78,-2.68,-3.78,3.79,3.66,3.58,1.10,1.10,1.10
50.96,-2.66,-3.75,-2.66,-3.75,3.75,3.63,3.56,1.09,1.10,1.09
51.47,-2.64,-3.72,-2.64,-3.72,3.72,3.60,3.54,1.08,1.08,1.08
51.99,-2.61,-3.69,-2.61,-3.69,3.69,3.57,3.52,1.08,1.07,1.08
52.51,-2.60,-3.67,-2.59,-3.66,3.66,3.55,3.51,1.06,1.06,1.07
53.03,-2.56,-3.62,-2.57,-3.63,3.63,3.52,3.49,1.07,1.06,1.06
53.56,-2.56,-3.61,-2.55,-3.60,3.60,3.49,3.48,1.04,1.04,1.05
54.10,-2.52,-3.56,-2.53,-3.56,3.57,3.46,3.47,1.05,1.04,1.04
54.64,-2.52,-3.55,-2.51,-3.53,3.53,3.44,3.46,1.01,1.03,1.03
55.18,-2.47,-3.49,-2.49,-3.50,3.50,3.41,3.44,1.03,1.02,1.02
55.74,-2.47,-3.48,-2.47,-3.47,3.47,3.39,3.43,1.00,1.00,1.00
56.29,-2.46,-3.45,-2.45,-3.44,3.44,3.36,3.42,0.98,0.99,0.99
56.86,-2.42,-3.40,-2.43,-3.41,3.41,3.34,3.41,0.99,0.98,0.98
57.42,-2.42,-3.39,-2.41,-3.38,3.38,3.31,3.40,0.96,0.97,0.97
58.00,-2.38,-3.34,-2.39,-3.35,3.35,3.29,3.38,0.97,0.96,0.96
58.58,-2.38,-3.32,-2.38,-3.32,3.32,3.27,3.37,0.94,0.94,0.94
59.16,-2.37,-3.30,-2.36,-3.29,3.29,3.24,3.35,0.92,0.93,0.93
59.76,-2.33,-3.25,-2.35,-3.27,3.26,3.22,3.33,0.93,0.91,0.92
60.35,-2.33,-3.23,-2.33,-3.23,3.23,3.20,3.32,0.90,0.90,0.90
60.96,-2.33,-3.22,-2.31,-3.20,3.20,3.18,3.30,0.87,0.89,0.89
61.57,-2.28,-3.15,-2.30,-3.17,3.17,3.15,3.27,0.89,0.87,0.87
62.18,-2.28,-3.14,-2.29,-3.14,3.14,3.13,3.25,0.86,0.86,0.86
62.80,-2.28,-3.12,-2.27,-3.11,3.12,3.11,3.22,0.84,0.85,0.84
63.43,-2.27,-3.09,-2.26,-3.09,3.09,3.09,3.19,0.82,0.82,0.82
64.07,-2.24,-3.05,-2.25,-3.06,3.06,3.07,3.16,0.82,0.81,0.81
64.71,-2.24,-3.03,-2.25,-3.04,3.03,3.05,3.13,0.79,0.78,0.79
65.35,-2.24,-3.01,-2.24,-3.01,3.00,3.03,3.09,0.76,0.77,0.77
66.01,-2.24,-2.99,-2.22,-2.98,2.97,3.01,3.06,0.73,0.75,0.75
66.67,-2.19,-2.92,-2.21,-2.94,2.94,2.99,3.02,0.75,0.74,0.73
67.33,-2.19,-2.91,-2.19,-2.91,2.92,2.97,2.98,0.73,0.72,0.71
68.01,-2.19,-2.89,-2.19,-2.88,2.89,2.95,2.94,0.70,0.70,0.69
68.69,-2.19,-2.86,-2.19,-2.86,2.87,2.93,2.90,0.67,0.67,0.67
69.37,-2.19,-2.84,-2.19,-2.84,2.84,2.91,2.85,0.65,0.65,0.65
70.07,-2.19,-2.82,-2.19,-2.82,2.82,2.89,2.81,0.63,0.63,0.63
70.77,-2.19,-2.80,-2.19,-2.80,2.79,2.86,2.76,0.60,0.60,0.61
71.48,-2.19,-2.78,-2.19,-2.78,2.77,2.84,2.71,0.58,0.58,0.59
72.19,-2.19,-2.75,-2.19,-2.75,2.75,2.82,2.67,0.56,0.56,0.56
72.91,-2.19,-2.73,-2.19,-2.73,2.73,2.80,2.62,0.54,0.54,0.54
73.64,-2.19,-2.70,-2.19,-2.70,2.71,2.78,2.57,0.52,0.52,0.51
74.38,-2.19,-2.68,-2.19,-2.68,2.69,2.76,2.53,0.50,0.50,0.49
75.12,-2.20,-2.66,-2.20,-2.66,2.67,2.74,2.48,0.47,0.47,0.46
75.87,-2.21,-2.65,-2.22,-2.65,2.65,2.71,2.43,0.44,0.44,0.44
76.63,-2.24,-2.65,-2.23,-2.64,2.63,2.69,2.39,0.39,0.40,0.41
77.40,-2.24,-2.62,-2.24,-2.62,2.61,2.67,2.34,0.37,0.37,0.38
78.17,-2.24,-2.59,-2.24,-2.60,2.59,2.64,2.30,0.35,0.35,0.35
78.95,-2.24,-2.57,-2.24,-2.57,2.57,2.62,2.26,0.33,0.33,0.33
79.74,-2.24,-2.54,-2.24,-2.54,2.54,2.60,2.21,0.30,0.30,0.30
80.54,-2.24,-2.51,-2.24,-2.51,2.51,2.57,2.17,0.27,0.27,0.27
81.35,-2.24,-2.48,-2.24,-2.48,2.48,2.54,2.13,0.24,0.24,0.24
82.16,-2.24,-2.45,-2.24,-2.45,2.45,2.52,2.09,0.21,0.21,0.21
82.98,-2.24,-2.42,-2.24,-2.42,2.41,2.49,2.05,0.17,0.17,0.18
83.81,-2.24,-2.38,-2.24,-2.38,2.38,2.46,2.02,0.14,0.14,0.14
84.65,-2.24,-2.35,-2.24,-2.35,2.35,2.44,1.98,0.11,0.11,0.11
85.50,-2.24,-2.32,-2.24,-2.32,2.32,2.41,1.95,0.08,0.08,0.08
86.35,-2.24,-2.29,-2.24,-2.28,2.29,2.38,1.92,0.05,0.05,0.05
87.22,-2.24,-2.25,-2.25,-2.26,2.26,2.35,1.89,0.02,0.02,0.01
88.09,-2.25,-2.23,-2.26,-2.23,2.24,2.32,1.86,-0.01,-0.02,-0.02
88.97,-2.28,-2.22,-2.27,-2.21,2.21,2.29,1.83,-0.07,-0.06,-0.06
89.86,-2.28,-2.19,-2.28,-2.19,2.18,2.26,1.80,-0.10,-0.10,-0.09
90.76,-2.28,-2.15,-2.28,-2.16,2.15,2.23,1.78,-0.13,-0.14,-0.13
91.66,-2.28,-2.12,-2.28,-2.12,2.11,2.20,1.75,-0.17,-0.17,-0.16
92.58,-2.28,-2.08,-2.28,-2.08,2.08,2.16,1.73,-0.20,-0.20,-0.20
93.51,-2.28,-2.05,-2.28,-2.04,2.05,2.13,1.71,-0.23,-0.23,-0.24
94.44,-2.28,-2.01,-2.28,-2.01,2.02,2.10,1.69,-0.26,-0.26,-0.27
95.39,-2.28,-1.97,-2.29,-1.98,1.99,2.06,1.67,-0.29,-0.30,-0.31
96.34,-2.30,-1.95,-2.30,-1.96,1.96,2.03,1.65,-0.34,-0.35,-0.35
97.30,-2.33,-1.95,-2.32,-1.94,1.93,1.99,1.63,-0.40,-0.39,-0.38
98.28,-2.33,-1.91,-2.33,-1.91,1.90,1.96,1.62,-0.43,-0.43,-0.42
99.26,-2.33,-1.87,-2.33,-1.87,1.87,1.92,1.60,-0.46,-0.46,-0.46
100.25,-2.33,-1.83,-2.33,-1.83,1.84,1.89,1.59,-0.49,-0.49,-0.50
101.25,-2.33,-1.80,-2.34,-1.80,1.81,1.85,1.58,-0.52,-0.52,-0.54
102.27,-2.35,-1.78,-2.35,-1.78,1.78,1.81,1.56,-0.57,-0.57,-0.57
103.29,-2.38,-1.77,-2.37,-1.76,1.75,1.77,1.55,-0.63,-0.62,-0.61
104.32,-2.38,-1.73,-2.38,-1.73,1.72,1.74,1.54,-0.66,-0.66,-0.65
105.37,-2.38,-1.69,-2.38,-1.70,1.69,1.70,1.53,-0.69,-0.70,-0.69
106.42,-2.38,-1.65,-2.38,-1.65,1.66,1.66,1.52,-0.72,-0.72,-0.73
107.48,-2.38,-1.62,-2.38,-1.61,1.63,1.62,1.51,-0.75,-0.75,-0.76
108.56,-2.38,-1.58,-2.39,-1.59,1.59,1.59,1.50,-0.79,-0.79,-0.80
109.64,-2.40,-1.56,-2.40,-1.56,1.56,1.55,1.49,-0.84,-0.84,-0.84
110.74,-2.42,-1.54,-2.41,-1.53,1.53,1.51,1.48,-0.89,-0.88,-0.88
111.85,-2.42,-1.50,-2.42,-1.50,1.49,1.47,1.47,-0.93,-0.93,-0.92
112.97,-2.42,-1.47,-2.42,-1.47,1.46,1.43,1.46,-0.96,-0.96,-0.95
114.10,-2.42,-1.43,-2.42,-1.43,1.43,1.39,1.45,-1.00,-1.00,-0.99
115.24,-2.42,-1.39,-2.42,-1.39,1.39,1.36,1.44,-1.03,-1.03,-1.03
116.39,-2.42,-1.35,-2.42,-1.35,1.36,1.32,1.43,-1.06,-1.06,-1.07
117.55,-2.42,-1.32,-2.42,-1.31,1.32,1.28,1.42,-1.10,-1.09,-1.10
118.73,-2.42,-1.28,-2.42,-1.28,1.29,1.24,1.41,-1.13,-1.13,-1.14
119.92,-2.42,-1.24,-2.43,-1.26,1.26,1.20,1.40,-1.16,-1.17,-1.18
121.12,-2.45,-1.24,-2.45,-1.24,1.23,1.17,1.38,-1.22,-1.21,-1.21
122.33,-2.47,-1.22,-2.46,-1.22,1.20,1.13,1.37,-1.27,-1.26,-1.25
123.55,-2.47,-1.19,-2.47,-1.19,1.18,1.09,1.35,-1.30,-1.30,-1.28
124.79,-2.47,-1.15,-2.47,-1.16,1.15,1.06,1.33,-1.32,-1.33,-1.32
126.03,-2.47,-1.12,-2.47,-1.12,1.12,1.02,1.32,-1.35,-1.35,-1.35
127.29,-2.47,-1.09,-2.47,-1.08,1.09,0.98,1.30,-1.38,-1.38,-1.38
128.57,-2.47,-1.05,-2.47,-1.05,1.07,0.95,1.28,-1.40,-1.40,-1.42
129.85,-2.47,-1.02,-2.48,-1.03,1.04,0.91,1.26,-1.43,-1.44,-1.45
131.15,-2.49,-1.01,-2.49,-1.01,1.01,0.88,1.23,-1.48,-1.48,-1.48
132.46,-2.52,-1.01,-2.51,-0.99,0.98,0.84,1.21,-1.54,-1.53,-1.52
133.79,-2.52,-0.97,-2.52,-0.97,0.96,0.81,1.19,-1.56,-1.56,-1.55
135.12,-2.52,-0.94,-2.52,-0.95,0.94,0.78,1.16,-1.58,-1.59,-1.58
136.48,-2.52,-0.91,-2.52,-0.91,0.92,0.74,1.14,-1.61,-1.60,-1.61
137.84,-2.52,-0.88,-2.52,-0.88,0.89,0.71,1.11,-1.63,-1.63,-1.64
139.22,-2.52,-0.85,-2.53,-0.86,0.87,0.68,1.08,-1.65,-1.66,-1.67
140.61,-2.53,-0.84,-2.54,-0.84,0.85,0.65,1.05,-1.68,-1.69,-1.70
142.02,-2.56,-0.84,-2.55,-0.83,0.82,0.62,1.02,-1.74,-1.73,-1.72
143.44,-2.56,-0.81,-2.56,-0.81,0.80,0.59,1.00,-1.76,-1.76,-1.75
144.87,-2.56,-0.78,-2.56,-0.79,0.78,0.56,0.97,-1.78,-1.79,-1.78
146.32,-2.56,-0.76,-2.56,-0.76,0.76,0.53,0.94,-1.81,-1.81,-1.80
147.78,-2.56,-0.73,-2.56,-0.73,0.73,0.50,0.91,-1.83,-1.83,-1.83
149.26,-2.56,-0.70,-2.56,-0.70,0.71,0.47,0.88,-1.85,-1.85,-1.86
150.75,-2.56,-0.68,-2.56,-0.68,0.68,0.45,0.85,-1.88,-1.88,-1.88
152.26,-2.56,-0.66,-2.56,-0.66,0.66,0.42,0.82,-1.90,-1.90,-1.90
153.78,-2.56,-0.63,-2.56,-0.63,0.64,0.39,0.79,-1.92,-1.92,-1.93
155.32,-2.56,-0.61,-2.56,-0.61,0.61,0.37,0.75,-1.95,-1.95,-1.95
156.88,-2.56,-0.59,-2.56,-0.59,0.59,0.34,0.72,-1.97,-1.97,-1.97
158.44,-2.56,-0.57,-2.56,-0.57,0.56,0.32,0.69,-2.00,-2.00,-2.00
160.03,-2.56,-0.54,-2.56,-0.54,0.53,0.30,0.66,-2.03,-2.02,-2.02
161.63,-2.56,-0.52,-2.55,-0.51,0.50,0.27,0.63,-2.06,-2.05,-2.04
163.24,-2.52,-0.46,-2.53,-0.48,0.47,0.25,0.60,-2.05,-2.06,-2.06
164.88,-2.52,-0.44,-2.51,-0.43,0.44,0.23,0.58,-2.08,-2.07,-2.08
166.53,-2.49,-0.39,-2.49,-0.39,0.40,0.21,0.55,-2.09,-2.09,-2.10
168.19,-2.47,-0.35,-2.48,-0.37,0.36,0.19,0.52,-2.11,-2.12,-2.12
169.87,-2.47,-0.34,-2.46,-0.33,0.33,0.17,0.49,-2.14,-2.13,-2.13
171.57,-2.46,-0.31,-2.45,-0.30,0.30,0.15,0.46,-2.16,-2.15,-2.15
173.29,-2.42,-0.25,-2.43,-0.27,0.27,0.13,0.43,-2.15,-2.17,-2.17
175.02,-2.42,-0.24,-2.42,-0.24,0.24,0.11,0.40,-2.18,-2.18,-2.19
176.77,-2.42,-0.22,-2.42,-0.22,0.22,0.09,0.38,-2.20,-2.20,-2.20
178.54,-2.42,-0.20,-2.42,-0.20,0.20,0.07,0.35,-2.22,-2.22,-2.22
180.32,-2.42,-0.19,-2.42,-0.19,0.18,0.06,0.32,-2.24,-2.24,-2.23
182.13,-2.42,-0.17,-2.42,-0.17,0.17,0.04,0.29,-2.25,-2.25,-2.25
183.95,-2.42,-0.16,-2.42,-0.16,0.16,0.02,0.27,-2.26,-2.26,-2.26
185.79,-2.42,-0.14,-2.42,-0.14,0.14,0.01,0.24,-2.28,-2.28,-2.28
187.65,-2.42,-0.13,-2.42,-0.13,0.13,-0.01,0.21,-2.29,-2.29,-2.29
189.52,-2.42,-0.12,-2.42,-0.12,0.12,-0.02,0.19,-2.30,-2.30,-2.30
191.42,-2.42,-0.11,-2.42,-0.11,0.11,-0.04,0.16,-2.32,-2.32,-2.32
193.33,-2.42,-0.09,-2.42,-0.09,0.09,-0.05,0.14,-2.33,-2.33,-2.33
195.27,-2.42,-0.08,-2.42,-0.08,0.08,-0.07,0.11,-2.34,-2.34,-2.34
197.22,-2.42,-0.07,-2.42,-0.07,0.07,-0.08,0.09,-2.35,-2.35,-2.35
199.19,-2.42,-0.06,-2.42,-0.06,0.06,-0.09,0.06,-2.36,-2.36,-2.36
201.18,-2.42,-0.05,-2.42,-0.05,0.05,-0.11,0.04,-2.37,-2.37,-2.37
203.19,-2.42,-0.04,-2.42,-0.04,0.03,-0.12,0.01,-2.39,-2.39,-2.38
205.23,-2.42,-0.03,-2.42,-0.03,0.02,-0.13,-0.01,-2.40,-2.40,-2.39
207.28,-2.42,-0.02,-2.41,-0.01,0.01,-0.14,-0.04,-2.41,-2.41,-2.40
209.35,-2.40,0.01,-2.40,0.01,-0.01,-0.16,-0.06,-2.41,-2.41,-2.41
211.44,-2.38,0.04,-2.39,0.03,-0.03,-0.17,-0.08,-2.41,-2.41,-2.42
213.56,-2.38,0.05,-2.38,0.05,-0.04,-0.18,-0.10,-2.43,-2.43,-2.43
215.69,-2.38,0.06,-2.38,0.06,-0.06,-0.19,-0.13,-2.44,-2.44,-2.44
217.85,-2.38,0.07,-2.36,0.08,-0.09,-0.20,-0.15,-2.47,-2.45,-2.45
220.03,-2.33,0.13,-2.35,0.10,-0.11,-0.21,-0.17,-2.44,-2.46,-2.46
222.23,-2.33,0.13,-2.33,0.13,-0.13,-0.22,-0.19,-2.46,-2.46,-2.46
224.45,-2.33,0.14,-2.31,0.16,-0.16,-0.23,-0.21,-2.49,-2.47,-2.47
226.70,-2.28,0.20,-2.30,0.18,-0.19,-0.25,-0.23,-2.47,-2.48,-2.48
228.96,-2.28,0.20,-2.27,0.21,-0.22,-0.26,-0.25,-2.50,-2.49,-2.49
231.25,-2.24,0.25,-2.24,0.25,-0.25,-0.27,-0.27,-2.49,-2.49,-2.49
233.57,-2.22,0.28,-2.22,0.27,-0.28,-0.28,-0.28,-2.50,-2.50,-2.50
235.90,-2.19,0.31,-2.20,0.31,-0.31,-0.29,-0.30,-2.50,-2.50,-2.50
238.26,-2.19,0.32,-2.17,0.34,-0.33,-0.30,-0.32,-2.53,-2.51,-2.51
240.64,-2.14,0.38,-2.16,0.36,-0.36,-0.31,-0.33,-2.50,-2.52,-2.52
243.05,-2.14,0.38,-2.14,0.38,-0.38,-0.32,-0.35,-2.52,-2.52,-2.52
245.48,-2.13,0.40,-2.12,0.41,-0.40,-0.33,-0.36,-2.53,-2.52,-2.53
247.93,-2.10,0.43,-2.11,0.42,-0.42,-0.34,-0.38,-2.52,-2.53,-2.53
250.41,-2.10,0.44,-2.10,0.44,-0.43,-0.35,-0.39,-2.53,-2.54,-2.54
252.92,-2.10,0.44,-2.10,0.44,-0.45,-0.36,-0.40,-2.55,-2.55,-2.54
255.45,-2.10,0.45,-2.10,0.45,-0.46,-0.37,-0.41,-2.56,-2.56,-2.55
258.00,-2.10,0.45,-2.08,0.47,-0.48,-0.38,-0.42,-2.58,-2.56,-2.55
260.58,-2.05,0.51,-2.07,0.49,-0.49,-0.39,-0.43,-2.54,-2.55,-2.56
263.19,-2.05,0.51,-2.05,0.51,-0.50,-0.40,-0.44,-2.55,-2.55,-2.56
265.82,-2.05,0.51,-2.05,0.52,-0.51,-0.41,-0.45,-2.56,-2.55,-2.56
268.48,-2.05,0.52,-2.05,0.52,-0.51,-0.42,-0.45,-2.57,-2.57,-2.57
271.16,-2.05,0.52,-2.05,0.52,-0.52,-0.43,-0.46,-2.57,-2.58,-2.57
273.87,-2.05,0.53,-2.05,0.53,-0.53,-0.44,-0.47,-2.58,-2.58,-2.58
276.61,-2.05,0.53,-2.05,0.53,-0.54,-0.45,-0.47,-2.59,-2.59,-2.58
279.38,-2.04,0.54,-2.04,0.54,-0.55,-0.46,-0.48,-2.59,-2.59,-2.58
282.17,-2.03,0.56,-2.03,0.55,-0.56,-0.47,-0.49,-2.59,-2.59,-2.59
284.99,-2.03,0.56,-2.02,0.57,-0.57,-0.48,-0.49,-2.60,-2.59,-2.59
287.84,-2.01,0.58,-2.01,0.58,-0.58,-0.49,-0.50,-2.59,-2.59,-2.59
290.72,-2.00,0.59,-2.00,0.59,-0.59,-0.50,-0.50,-2.59,-2.59,-2.60
293.63,-2.00,0.60,-2.00,0.60,-0.59,-0.51,-0.51,-2.59,-2.59,-2.60
296.57,-2.00,0.60,-2.00,0.60,-0.60,-0.52,-0.51,-2.60,-2.60,-2.60
299.53,-2.00,0.60,-2.00,0.60,-0.60,-0.53,-0.52,-2.61,-2.61,-2.60
302.53,-2.00,0.61,-2.00,0.61,-0.61,-0.54,-0.52,-2.61,-2.61,-2.61
305.55,-2.00,0.61,-2.00,0.61,-0.61,-0.54,-0.53,-2.61,-2.61,-2.61
308.61,-2.00,0.61,-2.00,0.61,-0.61,-0.55,-0.53,-2.61,-2.61,-2.61
311.69,-2.00,0.61,-2.00,0.61,-0.61,-0.56,-0.54,-2.61,-2.61,-2.61
314.81,-2.00,0.61,-2.00,0.61,-0.61,-0.56,-0.54,-2.62,-2.62,-2.62
317.96,-2.00,0.62,-2.00,0.62,-0.62,-0.57,-0.55,-2.62,-2.62,-2.62
321.14,-2.00,0.62,-2.00,0.62,-0.62,-0.58,-0.55,-2.62,-2.62,-2.62
324.35,-2.00,0.62,-2.00,0.62,-0.62,-0.58,-0.56,-2.62,-2.62,-2.62
327.59,-2.00,0.62,-2.00,0.62,-0.62,-0.59,-0.57,-2.62,-2.62,-2.62
330.87,-2.00,0.62,-2.00,0.62,-0.62,-0.59,-0.58,-2.63,-2.63,-2.63
334.18,-2.00,0.63,-2.00,0.63,-0.63,-0.60,-0.58,-2.63,-2.63,-2.63
337.52,-2.00,0.63,-2.00,0.63,-0.63,-0.60,-0.59,-2.63,-2.63,-2.63
340.90,-2.00,0.63,-2.00,0.63,-0.63,-0.60,-0.60,-2.63,-2.63,-2.63
344.30,-2.00,0.63,-2.00,0.63,-0.63,-0.61,-0.61,-2.63,-2.63,-2.63
347.75,-2.00,0.63,-2.00,0.63,-0.63,-0.61,-0.62,-2.63,-2.63,-2.63
351.23,-2.00,0.63,-2.00,0.64,-0.63,-0.61,-0.63,-2.63,-2.63,-2.63
354.74,-2.00,0.64,-2.00,0.63,-0.62,-0.61,-0.64,-2.63,-2.63,-2.64
358.28,-2.00,0.64,-2.01,0.63,-0.62,-0.62,-0.65,-2.62,-2.63,-2.64
361.87,-2.03,0.61,-2.02,0.62,-0.61,-0.62,-0.67,-2.64,-2.63,-2.64
365.49,-2.03,0.61,-2.04,0.60,-0.61,-0.62,-0.68,-2.64,-2.64,-2.64
369.14,-2.05,0.59,-2.05,0.59,-0.61,-0.62,-0.69,-2.66,-2.66,-2.64
372.83,-2.05,0.59,-2.05,0.59,-0.61,-0.63,-0.71,-2.66,-2.66,-2.64
376.56,-2.05,0.59,-2.04,0.60,-0.61,-0.63,-0.72,-2.66,-2.65,-2.64
380.33,-2.03,0.61,-2.03,0.62,-0.61,-0.63,-0.73,-2.65,-2.64,-2.64
384.13,-2.00,0.65,-2.01,0.63,-0.62,-0.64,-0.75,-2.62,-2.64,-2.65
387.97,-2.00,0.65,-2.00,0.65,-0.64,-0.64,-0.76,-2.64,-2.64,-2.65
391.85,-2.00,0.65,-2.00,0.65,-0.65,-0.64,-0.78,-2.65,-2.65,-2.65
395.77,-2.00,0.65,-2.00,0.65,-0.66,-0.65,-0.80,-2.66,-2.65,-2.65
399.73,-1.99,0.66,-1.98,0.67,-0.67,-0.65,-0.81,-2.66,-2.65,-2.65
403.72,-1.96,0.69,-1.97,0.68,-0.68,-0.66,-0.83,-2.64,-2.65,-2.65
407.76,-1.96,0.69,-1.96,0.69,-0.68,-0.67,-0.85,-2.64,-2.64,-2.65
411.84,-1.96,0.69,-1.96,0.69,-0.69,-0.67,-0.87,-2.65,-2.65,-2.65
415.96,-1.96,0.69,-1.96,0.69,-0.70,-0.68,-0.88,-2.66,-2.66,-2.65
420.12,-1.96,0.69,-1.95,0.71,-0.71,-0.69,-0.90,-2.67,-2.66,-2.65
424.32,-1.92,0.73,-1.93,0.72,-0.72,-0.69,-0.92,-2.64,-2.65,-2.65
428.56,-1.91,0.74,-1.92,0.74,-0.73,-0.70,-0.94,-2.64,-2.65,-2.66
432.85,-1.91,0.75,-1.91,0.75,-0.74,-0.71,-0.96,-2.66,-2.65,-2.66
437.18,-1.91,0.75,-1.90,0.76,-0.76,-0.72,-0.98,-2.67,-2.65,-2.66
441.55,-1.87,0.79,-1.89,0.77,-0.77,-0.73,-0.99,-2.64,-2.66,-2.66
445.96,-1.87,0.79,-1.87,0.79,-0.79,-0.74,-1.01,-2.66,-2.66,-2.66
450.42,-1.87,0.79,-1.85,0.81,-0.81,-0.76,-1.03,-2.68,-2.66,-2.66
454.93,-1.82,0.84,-1.84,0.82,-0.82,-0.77,-1.05,-2.65,-2.66,-2.66
459.48,-1.82,0.84,-1.81,0.84,-0.84,-0.78,-1.06,-2.66,-2.66,-2.66
464.07,-1.80,0.86,-1.80,0.86,-0.86,-0.79,-1.08,-2.66,-2.66,-2.66
468.71,-1.77,0.89,-1.78,0.88,-0.88,-0.81,-1.09,-2.65,-2.66,-2.66
