frequency,raw,error,smoothed,error_smoothed,equalization,parametric_eq,fixed_band_eq,equalized_raw,equalized_smoothed,target
20.00,18.36,12.60,18.36,12.60,-12.60,-12.25,-6.03,5.75,5.76,5.76
20.20,18.35,12.62,18.34,12.62,-12.61,-12.27,-6.18,5.73,5.73,5.73
20.40,18.34,12.63,18.33,12.63,-12.63,-12.29,-6.33,5.71,5.71,5.71
20.61,18.32,12.63,18.32,12.63,-12.64,-12.31,-6.48,5.68,5.68,5.69
20.81,18.31,12.64,18.31,12.64,-12.64,-12.33,-6.64,5.66,5.66,5.67
21.02,18.30,12.65,18.29,12.65,-12.65,-12.34,-6.81,5.64,5.64,5.65
21.23,18.29,12.66,18.28,12.66,-12.66,-12.36,-6.97,5.63,5.62,5.63
21.44,18.27,12.66,18.27,12.66,-12.66,-12.38,-7.15,5.60,5.61,5.61
21.66,18.26,12.67,18.26,12.67,-12.67,-12.39,-7.32,5.59,5.59,5.59
21.87,18.25,12.67,18.24,12.67,-12.67,-12.41,-7.50,5.58,5.57,5.58
22.09,18.23,12.67,18.23,12.67,-12.67,-12.42,-7.69,5.56,5.56,5.56
22.31,18.22,12.67,18.22,12.67,-12.67,-12.43,-7.88,5.55,5.55,5.55
22.54,18.21,12.67,18.20,12.67,-12.67,-12.45,-8.08,5.54,5.53,5.54
22.76,18.19,12.66,18.19,12.66,-12.67,-12.46,-8.28,5.52,5.53,5.53
22.99,18.18,12.66,18.18,12.66,-12.66,-12.47,-8.48,5.52,5.52,5.52
23.22,18.17,12.66,18.16,12.66,-12.66,-12.48,-8.70,5.51,5.51,5.51
23.45,18.15,12.65,18.15,12.65,-12.65,-12.49,-8.91,5.50,5.50,5.50
23.69,18.14,12.65,18.13,12.65,-12.64,-12.50,-9.14,5.49,5.49,5.49
23.92,18.12,12.63,18.12,12.64,-12.64,-12.51,-9.37,5.48,5.48,5.49
24.16,18.11,12.63,18.11,12.63,-12.63,-12.52,-9.60,5.47,5.48,5.48
24.40,18.10,12.62,18.10,12.62,-12.62,-12.53,-9.84,5.47,5.47,5.48
24.65,18.09,12.62,18.09,12.62,-12.62,-12.53,-10.08,5.47,5.47,5.47
24.89,18.08,12.61,18.07,12.61,-12.61,-12.54,-10.33,5.47,5.46,5.47
25.14,18.06,12.60,18.06,12.60,-12.60,-12.55,-10.59,5.45,5.46,5.46
25.39,18.05,12.60,18.04,12.59,-12.59,-12.55,-10.85,5.45,5.45,5.45
25.65,18.03,12.58,18.03,12.59,-12.58,-12.56,-11.11,5.44,5.45,5.45
25.91,18.02,12.58,18.01,12.57,-12.57,-12.56,-11.38,5.44,5.44,5.44
26.16,18.00,12.56,18.00,12.56,-12.56,-12.56,-11.65,5.43,5.44,5.44
26.43,17.98,12.54,17.98,12.55,-12.55,-12.56,-11.93,5.43,5.43,5.44
26.69,17.97,12.54,17.96,12.53,-12.54,-12.57,-12.21,5.43,5.43,5.43
26.96,17.95,12.52,17.95,12.53,-12.53,-12.57,-12.49,5.42,5.42,5.43
27.23,17.94,12.52,17.93,12.51,-12.51,-12.57,-12.76,5.42,5.42,5.42
27.50,17.92,12.50,17.92,12.50,-12.50,-12.57,-13.04,5.41,5.42,5.42
27.77,17.91,12.49,17.91,12.49,-12.49,-12.57,-13.32,5.41,5.41,5.42
28.05,17.90,12.49,17.89,12.48,-12.48,-12.56,-13.58,5.41,5.41,5.41
28.33,17.88,12.47,17.88,12.47,-12.47,-12.56,-13.85,5.40,5.41,5.41
28.62,17.87,12.46,17.86,12.46,-12.46,-12.56,-14.10,5.41,5.40,5.41
28.90,17.85,12.45,17.85,12.45,-12.45,-12.56,-14.34,5.40,5.40,5.40
29.19,17.84,12.44,17.83,12.44,-12.43,-12.55,-14.56,5.40,5.40,5.40
29.48,17.82,12.42,17.82,12.42,-12.42,-12.55,-14.77,5.40,5.40,5.40
29.78,17.80,12.40,17.80,12.40,-12.41,-12.54,-14.95,5.39,5.39,5.40
30.08,17.79,12.39,17.78,12.39,-12.39,-12.54,-15.11,5.39,5.39,5.40
30.38,17.77,12.38,17.77,12.38,-12.38,-12.53,-15.25,5.39,5.39,5.39
30.68,17.76,12.37,17.75,12.37,-12.37,-12.52,-15.35,5.39,5.39,5.39
30.99,17.74,12.35,17.74,12.36,-12.36,-12.51,-15.43,5.38,5.38,5.39
31.30,17.73,12.34,17.73,12.34,-12.34,-12.51,-15.47,5.38,5.38,5.39
31.61,17.72,12.34,17.71,12.33,-12.33,-12.50,-15.49,5.38,5.38,5.38
31.93,17.70,12.32,17.70,12.32,-12.32,-12.49,-15.47,5.37,5.38,5.38
32.24,17.69,12.31,17.69,12.31,-12.31,-12.48,-15.43,5.37,5.37,5.38
32.57,17.68,12.31,17.67,12.30,-12.30,-12.47,-15.36,5.37,5.37,5.37
32.89,17.66,12.29,17.66,12.29,-12.29,-12.45,-15.26,5.36,5.37,5.37
33.22,17.65,12.28,17.64,12.28,-12.28,-12.44,-15.14,5.37,5.37,5.37
33.55,17.63,12.27,17.63,12.26,-12.26,-12.43,-15.01,5.36,5.36,5.36
33.89,17.61,12.25,17.60,12.25,-12.25,-12.41,-14.86,5.36,5.36,5.36
34.23,17.58,12.22,17.58,12.23,-12.23,-12.40,-14.69,5.35,5.35,5.36
34.57,17.56,12.21,17.56,12.21,-12.21,-12.39,-14.52,5.35,5.35,5.35
34.92,17.54,12.19,17.53,12.19,-12.19,-12.37,-14.34,5.35,5.35,5.35
35.27,17.51,12.16,17.51,12.17,-12.16,-12.35,-14.15,5.34,5.34,5.35
35.62,17.49,12.15,17.48,12.14,-12.14,-12.34,-13.96,5.34,5.34,5.34
35.97,17.46,12.12,17.46,12.12,-12.12,-12.32,-13.78,5.33,5.33,5.34
36.33,17.44,12.10,17.44,12.10,-12.10,-12.30,-13.59,5.33,5.33,5.34
36.70,17.42,12.08,17.42,12.08,-12.09,-12.29,-13.40,5.33,5.33,5.34
37.06,17.41,12.07,17.40,12.07,-12.07,-12.27,-13.22,5.34,5.33,5.34
37.43,17.39,12.06,17.38,12.05,-12.06,-12.25,-13.04,5.33,5.33,5.33
37.81,17.37,12.04,17.37,12.04,-12.04,-12.23,-12.86,5.32,5.33,5.33
38.19,17.35,12.02,17.35,12.03,-12.03,-12.21,-12.70,5.32,5.32,5.33
38.57,17.34,12.02,17.33,12.01,-12.02,-12.19,-12.53,5.32,5.32,5.32
38.95,17.32,12.00,17.32,12.00,-12.00,-12.16,-12.38,5.31,5.32,5.32
39.34,17.30,11.99,17.30,11.99,-11.99,-12.14,-12.23,5.31,5.31,5.31
39.74,17.28,11.97,17.27,11.97,-11.97,-12.12,-12.09,5.31,5.31,5.31
40.14,17.25,11.95,17.25,11.95,-11.95,-12.10,-11.95,5.30,5.30,5.30
40.54,17.23,11.93,17.22,11.93,-11.93,-12.07,-11.83,5.30,5.30,5.30
40.94,17.20,11.90,17.20,11.90,-11.90,-12.05,-11.71,5.29,5.30,5.30
41.35,17.18,11.88,17.17,11.88,-11.88,-12.02,-11.59,5.30,5.30,5.30
41.76,17.15,11.85,17.15,11.85,-11.85,-12.00,-11.49,5.30,5.29,5.30
42.18,17.12,11.82,17.12,11.82,-11.83,-11.97,-11.39,5.29,5.29,5.30
42.60,17.10,11.80,17.10,11.80,-11.80,-11.94,-11.31,5.30,5.30,5.30
43.03,17.08,11.77,17.08,11.77,-11.78,-11.92,-11.23,5.30,5.30,5.31
43.46,17.06,11.75,17.06,11.75,-11.75,-11.89,-11.15,5.30,5.30,5.31
43.90,17.04,11.73,17.04,11.73,-11.73,-11.86,-11.09,5.30,5.30,5.31
44.33,17.02,11.71,17.02,11.71,-11.71,-11.83,-11.03,5.31,5.31,5.31
44.78,17.00,11.69,17.00,11.69,-11.69,-11.80,-10.98,5.31,5.31,5.31
45.23,16.98,11.67,16.97,11.67,-11.66,-11.77,-10.94,5.31,5.31,5.31
45.68,16.95,11.64,16.95,11.64,-11.64,-11.74,-10.90,5.31,5.31,5.31
46.13,16.92,11.61,16.92,11.61,-11.61,-11.71,-10.87,5.31,5.31,5.31
46.60,16.89,11.58,16.89,11.58,-11.58,-11.68,-10.85,5.30,5.30,5.31
47.06,16.86,11.55,16.86,11.55,-11.56,-11.65,-10.84,5.30,5.30,5.31
47.53,16.83,11.53,16.83,11.53,-11.53,-11.62,-10.83,5.30,5.30,5.30
48.01,16.80,11.50,16.80,11.50,-11.50,-11.59,-10.83,5.29,5.29,5.30
48.49,16.78,11.48,16.77,11.48,-11.48,-11.55,-10.83,5.30,5.29,5.30
48.97,16.75,11.45,16.75,11.45,-11.45,-11.52,-10.84,5.29,5.29,5.30
49.46,16.73,11.43,16.72,11.43,-11.43,-11.49,-10.86,5.30,5.30,5.30
49.96,16.70,11.40,16.70,11.40,-11.40,-11.45,-10.88,5.30,5.30,5.30
50.46,16.68,11.38,16.67,11.38,-11.37,-11.42,-10.91,5.30,5.30,5.30
50.96,16.65,11.35,16.65,11.35,-11.34,-11.38,-10.94,5.31,5.31,5.30
51.47,16.62,11.31,16.61,11.31,-11.31,-11.35,-10.97,5.31,5.31,5.31
51.99,16.58,11.27,16.58,11.27,-11.27,-11.31,-11.01,5.30,5.30,5.31
52.51,16.54,11.23,16.54,11.23,-11.24,-11.27,-11.05,5.30,5.30,5.31
53.03,16.51,11.20,16.51,11.20,-11.20,-11.24,-11.10,5.30,5.30,5.31
53.56,16.48,11.17,16.48,11.17,-11.17,-11.20,-11.14,5.31,5.31,5.31
54.10,16.45,11.13,16.45,11.13,-11.14,-11.16,-11.19,5.31,5.31,5.32
54.64,16.42,11.10,16.42,11.10,-11.10,-11.12,-11.24,5.31,5.31,5.32
55.18,16.39,11.07,16.39,11.07,-11.07,-11.08,-11.29,5.31,5.32,5.32
55.74,16.36,11.04,16.36,11.04,-11.04,-11.04,-11.33,5.32,5.32,5.32
56.29,16.34,11.01,16.33,11.01,-11.01,-11.01,-11.37,5.33,5.33,5.33
56.86,16.31,10.98,16.30,10.98,-10.97,-10.97,-11.41,5.33,5.33,5.33
57.42,16.27,10.94,16.27,10.94,-10.94,-10.93,-11.45,5.33,5.33,5.33
58.00,16.24,10.90,16.24,10.90,-10.90,-10.88,-11.48,5.33,5.33,5.34
58.58,16.21,10.87,16.20,10.87,-10.87,-10.84,-11.50,5.34,5.33,5.34
59.16,16.17,10.83,16.17,10.83,-10.83,-10.80,-11.51,5.33,5.34,5.34
59.76,16.14,10.79,16.14,10.79,-10.80,-10.76,-11.52,5.34,5.34,5.35
60.35,16.11,10.76,16.10,10.76,-10.76,-10.72,-11.52,5.35,5.34,5.35
60.96,16.07,10.72,16.07,10.72,-10.72,-10.68,-11.51,5.34,5.35,5.35
61.57,16.04,10.69,16.04,10.69,-10.69,-10.63,-11.49,5.35,5.35,5.35
62.18,16.01,10.66,16.00,10.66,-10.66,-10.59,-11.46,5.35,5.35,5.35
62.80,15.97,10.62,15.97,10.62,-10.62,-10.55,-11.42,5.35,5.35,5.35
63.43,15.93,10.58,15.93,10.58,-10.58,-10.50,-11.36,5.34,5.35,5.35
64.07,15.90,10.55,15.89,10.55,-10.55,-10.46,-11.30,5.35,5.35,5.35
64.71,15.86,10.51,15.86,10.51,-10.51,-10.41,-11.23,5.35,5.35,5.35
65.35,15.82,10.47,15.81,10.47,-10.47,-10.37,-11.15,5.35,5.35,5.35
66.01,15.77,10.42,15.77,10.42,-10.43,-10.32,-11.06,5.34,5.34,5.35
66.67,15.73,10.38,15.73,10.38,-10.38,-10.28,-10.96,5.34,5.34,5.35
67.33,15.69,10.34,15.69,10.34,-10.34,-10.23,-10.85,5.35,5.35,5.35
68.01,15.65,10.30,15.64,10.30,-10.29,-10.18,-10.74,5.35,5.35,5.35
68.69,15.60,10.25,15.60,10.25,-10.25,-10.14,-10.62,5.35,5.35,5.35
69.37,15.55,10.20,15.55,10.20,-10.20,-10.09,-10.50,5.35,5.35,5.35
70.07,15.50,10.15,15.50,10.15,-10.15,-10.04,-10.38,5.34,5.34,5.35
70.77,15.45,10.10,15.45,10.10,-10.11,-10.00,-10.25,5.34,5.34,5.35
71.48,15.41,10.05,15.41,10.05,-10.06,-9.95,-10.11,5.35,5.35,5.36
72.19,15.37,10.01,15.37,10.01,-10.01,-9.90,-9.98,5.35,5.35,5.36
72.91,15.33,9.97,15.33,9.97,-9.97,-9.85,-9.85,5.36,5.36,5.36
73.64,15.29,9.93,15.28,9.93,-9.92,-9.80,-9.72,5.36,5.36,5.36
74.38,15.25,9.88,15.24,9.88,-9.88,-9.75,-9.59,5.37,5.36,5.37
75.12,15.20,9.83,15.20,9.83,-9.84,-9.70,-9.46,5.36,5.37,5.37
75.87,15.17,9.79,15.16,9.79,-9.79,-9.65,-9.33,5.37,5.37,5.38
76.63,15.13,9.75,15.12,9.75,-9.75,-9.60,-9.21,5.38,5.37,5.38
77.40,15.09,9.71,15.09,9.71,-9.71,-9.55,-9.09,5.38,5.38,5.38
78.17,15.05,9.66,15.05,9.67,-9.66,-9.50,-8.97,5.39,5.39,5.39
78.95,15.01,9.62,15.01,9.62,-9.62,-9.45,-8.86,5.39,5.39,5.39
79.74,14.97,9.58,14.96,9.57,-9.57,-9.40,-8.75,5.39,5.39,5.39
80.54,14.92,9.52,14.92,9.52,-9.53,-9.35,-8.65,5.39,5.39,5.40
81.35,14.87,9.47,14.87,9.47,-9.48,-9.30,-8.55,5.38,5.39,5.40
82.16,14.83,9.43,14.83,9.43,-9.44,-9.25,-8.45,5.39,5.39,5.40
82.98,14.79,9.39,14.79,9.39,-9.39,-9.19,-8.36,5.40,5.40,5.40
83.81,14.75,9.35,14.75,9.35,-9.34,-9.14,-8.28,5.41,5.41,5.40
84.65,14.71,9.30,14.70,9.30,-9.29,-9.09,-8.20,5.42,5.41,5.41
85.50,14.65,9.24,14.65,9.24,-9.24,-9.04,-8.13,5.41,5.41,5.41
86.35,14.59,9.18,14.59,9.18,-9.19,-8.98,-8.06,5.40,5.40,5.41
87.22,14.53,9.12,14.53,9.13,-9.14,-8.93,-8.00,5.39,5.40,5.41
88.09,14.49,9.08,14.48,9.08,-9.08,-8.88,-7.95,5.40,5.40,5.41
88.97,14.44,9.03,14.44,9.03,-9.03,-8.82,-7.90,5.41,5.41,5.41
89.86,14.40,8.99,14.39,8.98,-8.98,-8.77,-7.86,5.42,5.41,5.41
90.76,14.34,8.93,14.34,8.93,-8.93,-8.71,-7.82,5.41,5.41,5.41
91.66,14.29,8.88,14.29,8.88,-8.88,-8.66,-7.78,5.40,5.40,5.41
92.58,14.24,8.83,14.23,8.83,-8.83,-8.60,-7.76,5.40,5.40,5.41
93.51,14.18,8.77,14.18,8.78,-8.78,-8.55,-7.73,5.39,5.40,5.41
94.44,14.14,8.73,14.13,8.73,-8.73,-8.49,-7.72,5.41,5.41,5.41
95.39,14.09,8.68,14.09,8.68,-8.67,-8.44,-7.70,5.41,5.42,5.41
96.34,14.05,8.64,14.04,8.63,-8.62,-8.38,-7.70,5.43,5.42,5.41
97.30,13.99,8.57,13.98,8.57,-8.57,-8.32,-7.70,5.42,5.42,5.42
98.28,13.92,8.50,13.92,8.51,-8.51,-8.27,-7.70,5.40,5.41,5.42
99.26,13.87,8.45,13.87,8.45,-8.46,-8.21,-7.70,5.41,5.41,5.42
100.25,13.82,8.40,13.81,8.40,-8.41,-8.15,-7.71,5.41,5.40,5.42
101.25,13.77,8.35,13.77,8.35,-8.36,-8.10,-7.73,5.41,5.41,5.42
102.27,13.72,8.30,13.72,8.31,-8.31,-8.04,-7.74,5.41,5.42,5.42
103.29,13.69,8.27,13.68,8.26,-8.26,-7.98,-7.76,5.43,5.43,5.42
104.32,13.65,8.22,13.64,8.22,-8.21,-7.92,-7.78,5.44,5.43,5.43
105.37,13.59,8.16,13.59,8.16,-8.16,-7.86,-7.81,5.43,5.43,5.43
106.42,13.53,8.10,13.53,8.10,-8.10,-7.81,-7.83,5.43,5.43,5.43
107.48,13.48,8.04,13.47,8.04,-8.04,-7.75,-7.86,5.43,5.43,5.44
108.56,13.42,7.98,13.42,7.98,-7.98,-7.69,-7.88,5.43,5.43,5.44
109.64,13.36,7.92,13.36,7.92,-7.92,-7.63,-7.91,5.44,5.44,5.44
110.74,13.30,7.86,13.30,7.86,-7.86,-7.57,-7.93,5.44,5.44,5.44
111.85,13.24,7.80,13.24,7.80,-7.80,-7.51,-7.95,5.44,5.44,5.44
112.97,13.18,7.73,13.17,7.73,-7.73,-7.45,-7.97,5.44,5.44,5.45
114.10,13.11,7.66,13.11,7.67,-7.67,-7.39,-7.99,5.44,5.44,5.45
115.24,13.05,7.60,13.05,7.61,-7.61,-7.33,-8.00,5.44,5.45,5.45
116.39,13.01,7.56,13.00,7.55,-7.55,-7.27,-8.01,5.46,5.45,5.45
117.55,12.95,7.49,12.94,7.49,-7.49,-7.21,-8.01,5.46,5.46,5.46
118.73,12.88,7.42,12.88,7.42,-7.42,-7.15,-8.01,5.45,5.46,5.46
119.92,12.82,7.36,12.81,7.36,-7.36,-7.09,-8.00,5.46,5.45,5.46
121.12,12.75,7.29,12.76,7.30,-7.30,-7.03,-7.98,5.45,5.46,5.46
122.33,12.71,7.24,12.70,7.24,-7.23,-6.97,-7.96,5.47,5.47,5.47
123.55,12.66,7.19,12.64,7.17,-7.17,-6.90,-7.92,5.48,5.47,5.47
124.79,12.58,7.10,12.58,7.11,-7.11,-6.84,-7.88,5.47,5.47,5.48
126.03,12.51,7.03,12.52,7.04,-7.05,-6.78,-7.84,5.46,5.47,5.48
127.29,12.47,6.98,12.46,6.98,-6.98,-6.72,-7.78,5.48,5.48,5.49
128.57,12.42,6.93,12.41,6.92,-6.92,-6.66,-7.72,5.49,5.48,5.49
129.85,12.35,6.86,12.35,6.87,-6.86,-6.59,-7.65,5.48,5.49,5.49
131.15,12.29,6.80,12.29,6.81,-6.80,-6.53,-7.57,5.48,5.49,5.49
132.46,12.25,6.75,12.23,6.74,-6.74,-6.47,-7.48,5.50,5.49,5.50
133.79,12.18,6.68,12.18,6.68,-6.68,-6.40,-7.39,5.49,5.49,5.50
135.12,12.11,6.61,12.12,6.62,-6.62,-6.34,-7.29,5.48,5.49,5.50
136.48,12.07,6.57,12.05,6.56,-6.56,-6.28,-7.19,5.51,5.50,5.50
137.84,11.99,6.49,12.00,6.50,-6.49,-6.21,-7.08,5.50,5.51,5.50
139.22,11.94,6.44,11.92,6.43,-6.42,-6.15,-6.97,5.52,5.51,5.50
140.61,11.86,6.36,11.85,6.35,-6.35,-6.09,-6.85,5.51,5.50,5.50
142.02,11.75,6.24,11.77,6.27,-6.28,-6.02,-6.74,5.47,5.50,5.51
143.44,11.71,6.20,11.70,6.19,-6.20,-5.96,-6.62,5.50,5.50,5.51
144.87,11.64,6.13,11.63,6.12,-6.13,-5.89,-6.49,5.51,5.50,5.51
146.32,11.58,6.06,11.57,6.06,-6.06,-5.83,-6.37,5.52,5.52,5.52
147.78,11.50,5.98,11.50,5.98,-5.98,-5.76,-6.25,5.51,5.52,5.52
149.26,11.44,5.92,11.43,5.91,-5.91,-5.70,-6.12,5.52,5.52,5.52
150.75,11.36,5.83,11.36,5.84,-5.84,-5.63,-6.00,5.52,5.53,5.53
152.26,11.31,5.78,11.30,5.77,-5.77,-5.57,-5.87,5.54,5.53,5.53
153.78,11.23,5.70,11.22,5.69,-5.69,-5.50,-5.75,5.53,5.53,5.53
155.32,11.16,5.62,11.15,5.62,-5.62,-5.44,-5.63,5.54,5.53,5.54
156.88,11.07,5.53,11.08,5.54,-5.55,-5.37,-5.51,5.52,5.53,5.54
158.44,11.02,5.48,11.01,5.47,-5.48,-5.30,-5.40,5.54,5.53,5.54
160.03,10.94,5.40,10.94,5.41,-5.41,-5.24,-5.28,5.52,5.53,5.54
161.63,10.88,5.34,10.88,5.34,-5.34,-5.17,-5.17,5.53,5.54,5.54
163.24,10.83,5.28,10.82,5.27,-5.27,-5.10,-5.06,5.56,5.55,5.55
164.88,10.75,5.20,10.76,5.21,-5.20,-5.04,-4.95,5.55,5.56,5.55
166.53,10.69,5.14,10.68,5.14,-5.12,-4.97,-4.85,5.56,5.56,5.55
168.19,10.62,5.07,10.60,5.05,-5.05,-4.90,-4.75,5.57,5.55,5.55
169.87,10.51,4.95,10.52,4.97,-4.97,-4.84,-4.65,5.54,5.55,5.56
171.57,10.44,4.88,10.44,4.89,-4.89,-4.77,-4.56,5.54,5.55,5.56
173.29,10.38,4.82,10.36,4.80,-4.82,-4.70,-4.47,5.56,5.54,5.56
175.02,10.29,4.73,10.29,4.73,-4.74,-4.63,-4.38,5.55,5.55,5.56
176.77,10.22,4.65,10.22,4.66,-4.66,-4.57,-4.29,5.55,5.56,5.57
178.54,10.16,4.59,10.16,4.59,-4.59,-4.50,-4.21,5.57,5.57,5.57
180.32,10.10,4.53,10.09,4.53,-4.51,-4.43,-4.13,5.58,5.58,5.57
182.13,10.03,4.46,10.02,4.45,-4.44,-4.36,-4.06,5.59,5.58,5.57
183.95,9.93,4.36,9.93,4.37,-4.37,-4.30,-3.98,5.56,5.57,5.57
185.79,9.85,4.28,9.85,4.28,-4.30,-4.23,-3.91,5.55,5.55,5.57
187.65,9.78,4.21,9.78,4.21,-4.23,-4.16,-3.85,5.55,5.55,5.57
189.52,9.72,4.15,9.71,4.15,-4.16,-4.09,-3.78,5.56,5.56,5.57
191.42,9.66,4.09,9.65,4.09,-4.09,-4.02,-3.72,5.57,5.57,5.57
193.33,9.59,4.02,9.59,4.02,-4.02,-3.95,-3.66,5.57,5.57,5.57
195.27,9.53,3.96,9.52,3.96,-3.95,-3.88,-3.61,5.58,5.57,5.57
197.22,9.46,3.89,9.46,3.89,-3.88,-3.82,-3.55,5.57,5.58,5.57
199.19,9.39,3.82,9.39,3.82,-3.81,-3.75,-3.50,5.57,5.57,5.57
201.18,9.32,3.74,9.31,3.74,-3.74,-3.68,-3.45,5.58,5.57,5.58
203.19,9.24,3.66,9.24,3.66,-3.67,-3.61,-3.41,5.57,5.57,5.58
205.23,9.17,3.58,9.17,3.58,-3.59,-3.54,-3.36,5.58,5.58,5.59
207.28,9.10,3.51,9.10,3.51,-3.52,-3.47,-3.32,5.58,5.58,5.59
209.35,9.04,3.45,9.03,3.44,-3.44,-3.40,-3.27,5.59,5.59,5.59
211.44,8.97,3.37,8.96,3.37,-3.37,-3.33,-3.23,5.59,5.59,5.60
213.56,8.90,3.30,8.89,3.30,-3.30,-3.26,-3.19,5.60,5.59,5.60
215.69,8.82,3.22,8.82,3.23,-3.23,-3.19,-3.15,5.58,5.59,5.60
217.85,8.76,3.16,8.76,3.16,-3.16,-3.12,-3.11,5.59,5.60,5.60
220.03,8.71,3.10,8.70,3.10,-3.09,-3.05,-3.07,5.61,5.61,5.61
222.23,8.65,3.04,8.64,3.03,-3.02,-2.99,-3.04,5.62,5.61,5.61
224.45,8.56,2.95,8.56,2.96,-2.95,-2.92,-3.00,5.60,5.61,5.61
226.70,8.49,2.88,8.49,2.88,-2.88,-2.85,-2.96,5.60,5.60,5.61
228.96,8.42,2.80,8.42,2.81,-2.82,-2.78,-2.92,5.60,5.61,5.62
231.25,8.37,2.75,8.36,2.74,-2.75,-2.71,-2.88,5.62,5.61,5.62
233.57,8.31,2.69,8.30,2.68,-2.67,-2.64,-2.84,5.63,5.62,5.62
235.90,8.22,2.59,8.23,2.61,-2.60,-2.57,-2.79,5.61,5.63,5.63
238.26,8.17,2.54,8.16,2.53,-2.53,-2.50,-2.75,5.63,5.63,5.63
240.64,8.10,2.46,8.10,2.46,-2.46,-2.43,-2.70,5.63,5.64,5.64
243.05,8.05,2.40,8.04,2.40,-2.39,-2.36,-2.66,5.65,5.65,5.65
245.48,7.99,2.33,7.98,2.33,-2.33,-2.29,-2.61,5.66,5.65,5.66
247.93,7.91,2.25,7.92,2.26,-2.26,-2.22,-2.56,5.65,5.66,5.66
250.41,7.86,2.19,7.85,2.19,-2.19,-2.15,-2.50,5.66,5.66,5.67
252.92,7.80,2.12,7.80,2.12,-2.13,-2.08,-2.45,5.67,5.67,5.68
255.45,7.75,2.06,7.75,2.06,-2.06,-2.01,-2.39,5.68,5.68,5.69
258.00,7.70,2.01,7.69,2.00,-2.00,-1.94,-2.33,5.69,5.69,5.69
260.58,7.64,1.94,7.64,1.95,-1.94,-1.87,-2.27,5.69,5.70,5.70
263.19,7.59,1.89,7.58,1.89,-1.89,-1.80,-2.20,5.70,5.70,5.70
265.82,7.53,1.83,7.53,1.83,-1.83,-1.73,-2.14,5.70,5.70,5.70
268.48,7.48,1.77,7.47,1.77,-1.77,-1.66,-2.07,5.70,5.70,5.71
271.16,7.43,1.72,7.42,1.71,-1.72,-1.59,-2.00,5.71,5.70,5.71
273.87,7.36,1.65,7.37,1.66,-1.66,-1.52,-1.93,5.70,5.71,5.71
276.61,7.32,1.60,7.32,1.61,-1.60,-1.45,-1.85,5.71,5.72,5.72
279.38,7.28,1.56,7.27,1.55,-1.54,-1.38,-1.78,5.73,5.73,5.72
282.17,7.23,1.50,7.22,1.49,-1.49,-1.31,-1.70,5.74,5.73,5.73
284.99,7.16,1.43,7.15,1.43,-1.43,-1.24,-1.62,5.73,5.72,5.73
287.84,7.08,1.35,7.09,1.36,-1.37,-1.17,-1.55,5.70,5.72,5.73
290.72,7.03,1.30,7.03,1.30,-1.31,-1.10,-1.47,5.71,5.72,5.73
293.63,6.99,1.26,6.98,1.25,-1.25,-1.03,-1.38,5.73,5.72,5.73
296.57,6.93,1.20,6.93,1.20,-1.19,-0.96,-1.30,5.73,5.73,5.73
299.53,6.88,1.14,6.87,1.14,-1.14,-0.89,-1.22,5.74,5.74,5.74
302.53,6.82,1.08,6.82,1.08,-1.08,-0.82,-1.14,5.74,5.74,5.74
305.55,6.76,1.02,6.76,1.02,-1.02,-0.75,-1.05,5.74,5.74,5.74
308.61,6.70,0.95,6.70,0.95,-0.96,-0.68,-0.97,5.74,5.74,5.75
311.69,6.64,0.89,6.64,0.89,-0.89,-0.61,-0.89,5.74,5.75,5.75
314.81,6.59,0.83,6.58,0.83,-0.83,-0.55,-0.80,5.76,5.76,5.76
317.96,6.53,0.77,6.53,0.77,-0.76,-0.48,-0.72,5.76,5.76,5.76
321.14,6.47,0.70,6.46,0.70,-0.70,-0.41,-0.63,5.77,5.76,5.77
324.35,6.39,0.62,6.39,0.63,-0.63,-0.34,-0.55,5.76,5.77,5.77
327.59,6.32,0.55,6.33,0.55,-0.55,-0.27,-0.46,5.76,5.77,5.77
330.87,6.27,0.49,6.26,0.48,-0.48,-0.20,-0.37,5.78,5.78,5.78
334.18,6.20,0.41,6.19,0.41,-0.41,-0.13,-0.29,5.79,5.79,5.79
337.52,6.12,0.33,6.12,0.33,-0.33,-0.06,-0.20,5.78,5.79,5.79
340.90,6.05,0.25,6.04,0.25,-0.26,0.00,-0.12,5.79,5.79,5.80
344.30,5.97,0.17,5.97,0.17,-0.18,0.07,-0.03,5.79,5.79,5.80
347.75,5.90,0.10,5.90,0.10,-0.10,0.14,0.06,5.80,5.80,5.80
351.23,5.83,0.03,5.82,0.02,-0.02,0.21,0.14,5.81,5.80,5.80
354.74,5.76,-0.05,5.75,-0.06,0.06,0.28,0.23,5.82,5.81,5.81
358.28,5.66,-0.15,5.67,-0.14,0.14,0.34,0.32,5.79,5.80,5.81
361.87,5.59,-0.22,5.58,-0.22,0.22,0.41,0.41,5.80,5.80,5.81
365.49,5.51,-0.30,5.51,-0.30,0.30,0.48,0.49,5.80,5.80,5.81
369.14,5.44,-0.37,5.44,-0.37,0.37,0.55,0.58,5.81,5.81,5.81
372.83,5.37,-0.44,5.36,-0.45,0.45,0.61,0.67,5.82,5.81,5.81
376.56,5.28,-0.54,5.28,-0.53,0.53,0.68,0.76,5.80,5.81,5.82
380.33,5.21,-0.61,5.21,-0.60,0.60,0.75,0.85,5.81,5.81,5.82
384.13,5.15,-0.67,5.14,-0.68,0.67,0.82,0.94,5.82,5.81,5.82
387.97,5.08,-0.74,5.07,-0.74,0.74,0.88,1.02,5.82,5.82,5.82
391.85,5.01,-0.82,5.01,-0.82,0.82,0.95,1.11,5.82,5.83,5.83
395.77,4.94,-0.89,4.94,-0.89,0.89,1.02,1.20,5.83,5.83,5.83
399.73,4.88,-0.96,4.87,-0.96,0.96,1.08,1.29,5.84,5.84,5.84
403.72,4.81,-1.03,4.80,-1.04,1.04,1.15,1.38,5.85,5.84,5.84
407.76,4.72,-1.13,4.73,-1.12,1.12,1.21,1.47,5.83,5.84,5.85
411.84,4.65,-1.20,4.65,-1.20,1.20,1.28,1.56,5.84,5.85,5.85
415.96,4.59,-1.27,4.58,-1.28,1.28,1.35,1.65,5.86,5.85,5.86
420.12,4.51,-1.35,4.50,-1.35,1.36,1.41,1.73,5.86,5.86,5.86
424.32,4.42,-1.44,4.42,-1.44,1.44,1.48,1.82,5.85,5.86,5.86
428.56,4.35,-1.52,4.34,-1.52,1.52,1.54,1.90,5.86,5.86,5.87
432.85,4.27,-1.60,4.27,-1.60,1.59,1.61,1.99,5.86,5.86,5.87
437.18,4.19,-1.68,4.20,-1.67,1.67,1.67,2.07,5.86,5.87,5.87
441.55,4.14,-1.73,4.12,-1.74,1.74,1.74,2.15,5.88,5.87,5.87
445.96,4.06,-1.81,4.05,-1.82,1.82,1.80,2.23,5.87,5.87,5.87
450.42,3.97,-1.90,3.98,-1.89,1.89,1.87,2.31,5.85,5.86,5.87
454.93,3.90,-1.97,3.90,-1.96,1.96,1.93,2.39,5.85,5.86,5.87
459.48,3.85,-2.02,3.84,-2.03,2.02,1.99,2.46,5.87,5.86,5.87
