frequency,raw,error,smoothed,error_smoothed,equalization,parametric_eq,fixed_band_eq,equalized_raw,equalized_smoothed,target
20.00,0.05,2.64,0.05,2.64,-2.62,-2.95,-1.76,-2.57,-2.57,-2.59
20.20,0.10,2.71,0.10,2.70,-2.70,-2.98,-1.82,-2.60,-2.60,-2.61
20.40,0.14,2.76,0.14,2.76,-2.77,-3.01,-1.87,-2.63,-2.62,-2.62
20.61,0.19,2.82,0.19,2.82,-2.84,-3.04,-1.92,-2.65,-2.65,-2.63
20.81,0.24,2.89,0.24,2.88,-2.90,-3.06,-1.98,-2.66,-2.66,-2.65
21.02,0.28,2.94,0.28,2.94,-2.96,-3.09,-2.04,-2.68,-2.67,-2.66
21.23,0.33,3.00,0.33,3.00,-3.01,-3.12,-2.10,-2.68,-2.68,-2.67
21.44,0.38,3.06,0.38,3.06,-3.06,-3.15,-2.16,-2.68,-2.68,-2.68
21.66,0.43,3.12,0.43,3.12,-3.11,-3.18,-2.22,-2.68,-2.68,-2.69
21.87,0.48,3.18,0.48,3.17,-3.15,-3.21,-2.29,-2.67,-2.68,-2.70
22.09,0.51,3.21,0.51,3.21,-3.19,-3.23,-2.35,-2.68,-2.68,-2.70
22.31,0.53,3.24,0.53,3.24,-3.22,-3.26,-2.42,-2.69,-2.69,-2.71
22.54,0.54,3.25,0.54,3.25,-3.25,-3.29,-2.49,-2.71,-2.71,-2.71
22.76,0.55,3.27,0.55,3.26,-3.28,-3.32,-2.56,-2.72,-2.73,-2.72
22.99,0.56,3.27,0.57,3.28,-3.30,-3.35,-2.64,-2.74,-2.73,-2.71
23.22,0.60,3.32,0.60,3.31,-3.33,-3.38,-2.71,-2.73,-2.73,-2.72
23.45,0.64,3.36,0.64,3.35,-3.36,-3.40,-2.79,-2.72,-2.72,-2.72
23.69,0.68,3.39,0.68,3.40,-3.40,-3.43,-2.87,-2.72,-2.72,-2.71
23.92,0.73,3.44,0.73,3.44,-3.44,-3.46,-2.95,-2.71,-2.71,-2.71
24.16,0.78,3.48,0.78,3.48,-3.49,-3.49,-3.03,-2.71,-2.71,-2.70
24.40,0.83,3.53,0.83,3.53,-3.53,-3.52,-3.11,-2.70,-2.70,-2.70
24.65,0.88,3.58,0.89,3.58,-3.57,-3.54,-3.20,-2.69,-2.68,-2.70
24.89,0.94,3.64,0.93,3.63,-3.59,-3.57,-3.28,-2.65,-2.66,-2.70
25.14,0.96,3.66,0.96,3.65,-3.62,-3.60,-3.37,-2.66,-2.66,-2.70
25.39,0.96,3.66,0.96,3.66,-3.65,-3.63,-3.46,-2.69,-2.69,-2.70
25.65,0.96,3.65,0.96,3.65,-3.68,-3.65,-3.55,-2.72,-2.72,-2.69
25.91,0.96,3.65,0.97,3.66,-3.71,-3.68,-3.64,-2.75,-2.73,-2.69
26.16,1.00,3.69,1.00,3.70,-3.74,-3.71,-3.72,-2.73,-2.73,-2.69
26.43,1.06,3.76,1.06,3.76,-3.77,-3.74,-3.81,-2.71,-2.71,-2.70
26.69,1.12,3.82,1.12,3.82,-3.80,-3.76,-3.90,-2.68,-2.68,-2.70
26.96,1.18,3.88,1.17,3.87,-3.83,-3.79,-3.99,-2.65,-2.66,-2.70
27.23,1.19,3.89,1.19,3.89,-3.86,-3.82,-4.07,-2.67,-2.67,-2.70
27.50,1.19,3.90,1.20,3.90,-3.88,-3.85,-4.16,-2.69,-2.69,-2.71
27.77,1.19,3.91,1.19,3.91,-3.90,-3.87,-4.24,-2.71,-2.71,-2.72
28.05,1.19,3.91,1.19,3.91,-3.91,-3.90,-4.32,-2.72,-2.72,-2.72
28.33,1.19,3.92,1.19,3.91,-3.93,-3.93,-4.39,-2.74,-2.74,-2.73
28.62,1.19,3.92,1.19,3.92,-3.95,-3.95,-4.47,-2.76,-2.76,-2.73
28.90,1.19,3.93,1.20,3.94,-3.98,-3.98,-4.54,-2.79,-2.78,-2.74
29.19,1.23,3.98,1.24,3.98,-4.01,-4.00,-4.60,-2.78,-2.77,-2.75
29.48,1.30,4.05,1.30,4.05,-4.04,-4.03,-4.66,-2.74,-2.74,-2.75
29.78,1.37,4.13,1.36,4.12,-4.08,-4.06,-4.72,-2.71,-2.72,-2.76
30.08,1.42,4.19,1.41,4.17,-4.13,-4.08,-4.77,-2.71,-2.72,-2.77
30.38,1.42,4.19,1.42,4.19,-4.18,-4.11,-4.82,-2.76,-2.76,-2.77
30.68,1.42,4.20,1.42,4.20,-4.23,-4.13,-4.86,-2.81,-2.81,-2.78
30.99,1.42,4.21,1.44,4.23,-4.28,-4.16,-4.89,-2.86,-2.84,-2.79
31.30,1.49,4.29,1.49,4.29,-4.32,-4.18,-4.92,-2.83,-2.83,-2.80
31.61,1.56,4.36,1.56,4.36,-4.35,-4.21,-4.95,-2.79,-2.80,-2.80
31.93,1.63,4.43,1.62,4.42,-4.38,-4.23,-4.96,-2.75,-2.77,-2.80
32.24,1.65,4.46,1.65,4.45,-4.41,-4.26,-4.98,-2.76,-2.76,-2.81
32.57,1.65,4.46,1.66,4.46,-4.43,-4.28,-4.98,-2.78,-2.78,-2.81
32.89,1.65,4.46,1.65,4.46,-4.45,-4.31,-4.98,-2.80,-2.80,-2.81
33.22,1.65,4.46,1.65,4.45,-4.46,-4.33,-4.98,-2.81,-2.82,-2.81
33.55,1.65,4.45,1.65,4.45,-4.48,-4.36,-4.97,-2.83,-2.83,-2.80
33.89,1.65,4.44,1.66,4.45,-4.49,-4.38,-4.96,-2.84,-2.83,-2.79
34.23,1.69,4.48,1.69,4.48,-4.51,-4.40,-4.95,-2.81,-2.81,-2.79
34.57,1.74,4.52,1.74,4.52,-4.53,-4.43,-4.93,-2.79,-2.79,-2.78
34.92,1.80,4.58,1.79,4.57,-4.55,-4.45,-4.91,-2.75,-2.76,-2.78
35.27,1.83,4.60,1.83,4.60,-4.58,-4.48,-4.88,-2.75,-2.75,-2.77
35.62,1.85,4.62,1.86,4.63,-4.61,-4.50,-4.86,-2.76,-2.75,-2.77
35.97,1.88,4.65,1.87,4.64,-4.63,-4.52,-4.83,-2.75,-2.75,-2.77
36.33,1.88,4.65,1.88,4.65,-4.64,-4.54,-4.80,-2.76,-2.76,-2.77
36.70,1.88,4.65,1.88,4.65,-4.65,-4.57,-4.77,-2.76,-2.76,-2.77
37.06,1.88,4.65,1.88,4.65,-4.65,-4.59,-4.74,-2.76,-2.76,-2.77
37.43,1.88,4.65,1.88,4.65,-4.65,-4.61,-4.72,-2.77,-2.77,-2.77
37.81,1.88,4.66,1.88,4.66,-4.66,-4.63,-4.69,-2.78,-2.78,-2.78
38.19,1.88,4.67,1.87,4.66,-4.68,-4.66,-4.66,-2.80,-2.81,-2.79
38.57,1.88,4.68,1.88,4.68,-4.72,-4.68,-4.64,-2.83,-2.84,-2.80
38.95,1.88,4.69,1.91,4.71,-4.75,-4.70,-4.61,-2.87,-2.85,-2.81
39.34,1.96,4.78,1.96,4.78,-4.80,-4.72,-4.59,-2.84,-2.83,-2.82
39.74,2.04,4.87,2.03,4.86,-4.84,-4.74,-4.57,-2.80,-2.81,-2.83
40.14,2.10,4.95,2.08,4.93,-4.88,-4.76,-4.55,-2.78,-2.80,-2.85
40.54,2.10,4.95,2.11,4.96,-4.92,-4.78,-4.54,-2.82,-2.81,-2.85
40.94,2.10,4.96,2.11,4.96,-4.95,-4.80,-4.53,-2.85,-2.84,-2.86
41.35,2.10,4.96,2.10,4.96,-4.97,-4.82,-4.52,-2.86,-2.86,-2.86
41.76,2.10,4.96,2.10,4.96,-4.97,-4.84,-4.51,-2.87,-2.87,-2.86
42.18,2.10,4.96,2.10,4.96,-4.97,-4.86,-4.51,-2.87,-2.87,-2.86
42.60,2.10,4.96,2.10,4.96,-4.96,-4.88,-4.51,-2.86,-2.86,-2.86
43.03,2.10,4.96,2.10,4.96,-4.95,-4.90,-4.51,-2.85,-2.85,-2.86
43.46,2.10,4.96,2.10,4.96,-4.95,-4.92,-4.52,-2.84,-2.84,-2.86
43.90,2.10,4.95,2.10,4.95,-4.95,-4.94,-4.53,-2.84,-2.85,-2.85
44.33,2.10,4.95,2.10,4.95,-4.95,-4.96,-4.54,-2.85,-2.85,-2.85
44.78,2.10,4.95,2.10,4.95,-4.97,-4.98,-4.56,-2.87,-2.86,-2.85
45.23,2.12,4.96,2.12,4.96,-4.99,-5.00,-4.58,-2.87,-2.87,-2.84
45.68,2.15,4.99,2.15,4.99,-5.02,-5.01,-4.60,-2.87,-2.87,-2.84
46.13,2.19,5.03,2.21,5.04,-5.05,-5.03,-4.63,-2.86,-2.84,-2.84
46.60,2.27,5.11,2.26,5.10,-5.08,-5.05,-4.66,-2.81,-2.82,-2.84
47.06,2.33,5.16,2.31,5.14,-5.11,-5.07,-4.70,-2.78,-2.80,-2.83
47.53,2.33,5.16,2.34,5.16,-5.14,-5.08,-4.73,-2.81,-2.80,-2.83
48.01,2.33,5.16,2.34,5.17,-5.16,-5.10,-4.77,-2.83,-2.82,-2.83
48.49,2.33,5.17,2.33,5.17,-5.17,-5.12,-4.82,-2.84,-2.84,-2.84
48.97,2.33,5.17,2.33,5.17,-5.17,-5.14,-4.86,-2.84,-2.84,-2.84
49.46,2.33,5.16,2.33,5.16,-5.17,-5.15,-4.91,-2.84,-2.84,-2.83
49.96,2.33,5.16,2.33,5.16,-5.16,-5.17,-4.96,-2.83,-2.83,-2.83
50.46,2.33,5.16,2.33,5.16,-5.16,-5.18,-5.02,-2.83,-2.83,-2.83
50.96,2.33,5.16,2.33,5.16,-5.15,-5.20,-5.07,-2.82,-2.82,-2.83
51.47,2.33,5.15,2.33,5.15,-5.15,-5.21,-5.13,-2.82,-2.82,-2.82
51.99,2.33,5.15,2.33,5.15,-5.14,-5.23,-5.18,-2.81,-2.81,-2.82
52.51,2.33,5.15,2.33,5.15,-5.14,-5.24,-5.24,-2.81,-2.81,-2.82
53.03,2.33,5.15,2.33,5.15,-5.15,-5.26,-5.30,-2.81,-2.81,-2.82
53.56,2.33,5.16,2.33,5.15,-5.16,-5.27,-5.36,-2.83,-2.84,-2.83
54.10,2.33,5.16,2.32,5.15,-5.19,-5.29,-5.42,-2.86,-2.87,-2.83
54.64,2.33,5.16,2.34,5.18,-5.22,-5.30,-5.48,-2.89,-2.88,-2.83
55.18,2.37,5.21,2.40,5.24,-5.25,-5.32,-5.54,-2.88,-2.85,-2.84
55.74,2.50,5.33,2.48,5.31,-5.29,-5.33,-5.59,-2.79,-2.81,-2.83
56.29,2.56,5.39,2.54,5.37,-5.32,-5.34,-5.65,-2.76,-2.79,-2.83
56.86,2.56,5.39,2.57,5.40,-5.35,-5.35,-5.70,-2.79,-2.78,-2.83
57.42,2.56,5.39,2.57,5.39,-5.38,-5.37,-5.75,-2.82,-2.81,-2.83
58.00,2.56,5.39,2.56,5.39,-5.40,-5.38,-5.80,-2.84,-2.84,-2.83
58.58,2.56,5.39,2.56,5.39,-5.40,-5.39,-5.84,-2.84,-2.84,-2.83
59.16,2.56,5.39,2.56,5.39,-5.40,-5.40,-5.87,-2.84,-2.84,-2.83
59.76,2.56,5.39,2.56,5.39,-5.39,-5.42,-5.91,-2.83,-2.83,-2.83
60.35,2.56,5.39,2.56,5.39,-5.39,-5.43,-5.93,-2.83,-2.83,-2.83
60.96,2.56,5.39,2.56,5.39,-5.38,-5.44,-5.96,-2.82,-2.82,-2.83
61.57,2.56,5.38,2.56,5.38,-5.38,-5.45,-5.97,-2.82,-2.82,-2.82
62.18,2.56,5.38,2.56,5.38,-5.38,-5.46,-5.99,-2.82,-2.82,-2.82
62.80,2.56,5.38,2.56,5.38,-5.38,-5.47,-5.99,-2.82,-2.82,-2.82
63.43,2.56,5.38,2.56,5.38,-5.38,-5.48,-5.99,-2.82,-2.82,-2.82
64.07,2.56,5.39,2.56,5.39,-5.39,-5.49,-5.99,-2.83,-2.83,-2.83
64.71,2.56,5.39,2.56,5.39,-5.39,-5.50,-5.97,-2.83,-2.83,-2.83
65.35,2.56,5.40,2.56,5.40,-5.40,-5.51,-5.96,-2.84,-2.84,-2.84
66.01,2.56,5.41,2.56,5.41,-5.40,-5.52,-5.94,-2.84,-2.84,-2.85
66.67,2.56,5.41,2.56,5.41,-5.41,-5.53,-5.91,-2.85,-2.85,-2.85
67.33,2.56,5.42,2.56,5.42,-5.41,-5.53,-5.88,-2.85,-2.85,-2.86
68.01,2.56,5.42,2.56,5.42,-5.42,-5.54,-5.85,-2.86,-2.86,-2.86
68.69,2.56,5.42,2.56,5.42,-5.42,-5.55,-5.81,-2.86,-2.86,-2.86
69.37,2.56,5.43,2.56,5.43,-5.43,-5.56,-5.77,-2.87,-2.87,-2.87
70.07,2.56,5.43,2.56,5.43,-5.43,-5.57,-5.73,-2.87,-2.87,-2.87
70.77,2.56,5.44,2.56,5.44,-5.44,-5.57,-5.69,-2.87,-2.87,-2.88
71.48,2.56,5.44,2.56,5.44,-5.44,-5.58,-5.64,-2.88,-2.88,-2.88
72.19,2.56,5.44,2.56,5.44,-5.44,-5.59,-5.60,-2.88,-2.88,-2.88
72.91,2.56,5.45,2.56,5.45,-5.45,-5.59,-5.55,-2.89,-2.89,-2.89
73.64,2.56,5.45,2.56,5.45,-5.44,-5.60,-5.51,-2.88,-2.88,-2.89
74.38,2.56,5.45,2.56,5.45,-5.44,-5.61,-5.46,-2.88,-2.88,-2.89
75.12,2.56,5.45,2.56,5.45,-5.43,-5.61,-5.41,-2.87,-2.87,-2.89
75.87,2.56,5.45,2.56,5.45,-5.44,-5.62,-5.37,-2.88,-2.88,-2.89
76.63,2.56,5.45,2.56,5.45,-5.45,-5.62,-5.33,-2.89,-2.89,-2.89
77.40,2.56,5.44,2.54,5.43,-5.47,-5.63,-5.29,-2.91,-2.92,-2.88
78.17,2.56,5.44,2.56,5.44,-5.49,-5.63,-5.25,-2.93,-2.93,-2.88
78.95,2.56,5.43,2.62,5.49,-5.52,-5.64,-5.21,-2.96,-2.90,-2.87
79.74,2.73,5.60,2.69,5.56,-5.55,-5.64,-5.18,-2.82,-2.85,-2.87
80.54,2.79,5.65,2.76,5.62,-5.58,-5.64,-5.15,-2.79,-2.81,-2.86
81.35,2.79,5.64,2.80,5.66,-5.60,-5.65,-5.12,-2.81,-2.80,-2.85
82.16,2.79,5.64,2.80,5.64,-5.63,-5.65,-5.10,-2.84,-2.83,-2.85
82.98,2.79,5.64,2.79,5.64,-5.65,-5.65,-5.08,-2.85,-2.85,-2.85
83.81,2.79,5.64,2.79,5.64,-5.65,-5.66,-5.06,-2.86,-2.86,-2.85
84.65,2.79,5.64,2.79,5.64,-5.66,-5.66,-5.05,-2.87,-2.87,-2.85
85.50,2.79,5.65,2.79,5.65,-5.65,-5.66,-5.04,-2.86,-2.86,-2.86
86.35,2.79,5.65,2.79,5.65,-5.65,-5.66,-5.03,-2.86,-2.86,-2.86
87.22,2.79,5.66,2.79,5.66,-5.65,-5.67,-5.03,-2.86,-2.86,-2.87
88.09,2.79,5.66,2.79,5.66,-5.66,-5.67,-5.03,-2.87,-2.87,-2.87
88.97,2.79,5.67,2.79,5.67,-5.67,-5.67,-5.04,-2.88,-2.88,-2.88
89.86,2.79,5.67,2.79,5.67,-5.67,-5.67,-5.04,-2.88,-2.88,-2.88
90.76,2.79,5.68,2.79,5.68,-5.68,-5.67,-5.06,-2.89,-2.89,-2.89
91.66,2.79,5.68,2.79,5.68,-5.68,-5.67,-5.07,-2.89,-2.89,-2.89
92.58,2.79,5.69,2.79,5.69,-5.69,-5.67,-5.09,-2.90,-2.90,-2.90
93.51,2.79,5.69,2.79,5.69,-5.69,-5.67,-5.12,-2.90,-2.90,-2.90
94.44,2.79,5.70,2.79,5.70,-5.69,-5.67,-5.14,-2.90,-2.90,-2.91
95.39,2.79,5.70,2.79,5.70,-5.70,-5.67,-5.17,-2.91,-2.91,-2.91
96.34,2.79,5.70,2.79,5.70,-5.70,-5.67,-5.21,-2.91,-2.91,-2.91
97.30,2.79,5.70,2.79,5.70,-5.70,-5.67,-5.25,-2.91,-2.91,-2.91
98.28,2.79,5.71,2.79,5.70,-5.71,-5.67,-5.29,-2.92,-2.92,-2.92
99.26,2.79,5.71,2.79,5.71,-5.71,-5.67,-5.33,-2.92,-2.92,-2.92
100.25,2.79,5.71,2.79,5.71,-5.71,-5.67,-5.37,-2.92,-2.92,-2.92
101.25,2.79,5.72,2.79,5.72,-5.72,-5.67,-5.42,-2.93,-2.93,-2.93
102.27,2.79,5.72,2.79,5.72,-5.72,-5.66,-5.47,-2.93,-2.93,-2.93
103.29,2.79,5.73,2.79,5.73,-5.73,-5.66,-5.52,-2.93,-2.93,-2.94
104.32,2.79,5.73,2.79,5.73,-5.73,-5.66,-5.58,-2.94,-2.94,-2.94
105.37,2.79,5.73,2.79,5.73,-5.73,-5.66,-5.63,-2.94,-2.94,-2.94
106.42,2.79,5.73,2.79,5.73,-5.73,-5.66,-5.68,-2.94,-2.94,-2.94
107.48,2.79,5.73,2.79,5.73,-5.72,-5.65,-5.74,-2.93,-2.93,-2.94
108.56,2.79,5.72,2.79,5.72,-5.72,-5.65,-5.79,-2.93,-2.93,-2.93
109.64,2.79,5.72,2.79,5.72,-5.71,-5.65,-5.85,-2.92,-2.92,-2.93
110.74,2.79,5.71,2.79,5.71,-5.71,-5.64,-5.90,-2.92,-2.92,-2.92
111.85,2.79,5.70,2.79,5.70,-5.70,-5.64,-5.95,-2.91,-2.91,-2.91
112.97,2.79,5.69,2.79,5.69,-5.70,-5.64,-6.00,-2.91,-2.91,-2.90
114.10,2.79,5.69,2.79,5.69,-5.69,-5.63,-6.05,-2.90,-2.90,-2.90
115.24,2.79,5.69,2.79,5.69,-5.69,-5.63,-6.09,-2.90,-2.90,-2.90
116.39,2.79,5.69,2.79,5.69,-5.69,-5.62,-6.13,-2.90,-2.90,-2.90
117.55,2.79,5.69,2.79,5.69,-5.69,-5.62,-6.16,-2.90,-2.90,-2.90
118.73,2.79,5.69,2.79,5.69,-5.69,-5.62,-6.19,-2.90,-2.90,-2.90
119.92,2.79,5.69,2.79,5.69,-5.69,-5.61,-6.22,-2.90,-2.90,-2.90
121.12,2.79,5.69,2.79,5.69,-5.70,-5.61,-6.24,-2.90,-2.90,-2.90
122.33,2.79,5.70,2.79,5.70,-5.70,-5.60,-6.25,-2.91,-2.91,-2.91
123.55,2.79,5.70,2.79,5.70,-5.71,-5.60,-6.26,-2.92,-2.92,-2.91
124.79,2.79,5.71,2.79,5.71,-5.72,-5.59,-6.26,-2.93,-2.93,-2.92
126.03,2.79,5.72,2.79,5.72,-5.72,-5.59,-6.26,-2.93,-2.93,-2.93
127.29,2.79,5.72,2.80,5.73,-5.71,-5.58,-6.25,-2.92,-2.92,-2.93
128.57,2.79,5.73,2.80,5.74,-5.69,-5.57,-6.23,-2.90,-2.89,-2.94
129.85,2.79,5.73,2.77,5.71,-5.67,-5.57,-6.21,-2.88,-2.90,-2.94
131.15,2.74,5.69,2.71,5.66,-5.64,-5.56,-6.19,-2.90,-2.93,-2.95
132.46,2.61,5.57,2.64,5.59,-5.61,-5.56,-6.15,-3.00,-2.97,-2.96
133.79,2.56,5.52,2.58,5.54,-5.58,-5.55,-6.12,-3.02,-3.00,-2.96
135.12,2.56,5.52,2.55,5.51,-5.55,-5.54,-6.08,-2.99,-3.00,-2.96
136.48,2.56,5.52,2.56,5.51,-5.53,-5.54,-6.03,-2.97,-2.98,-2.96
137.84,2.56,5.52,2.56,5.52,-5.52,-5.53,-5.98,-2.96,-2.96,-2.96
139.22,2.56,5.53,2.56,5.53,-5.51,-5.52,-5.93,-2.95,-2.95,-2.97
140.61,2.56,5.53,2.56,5.53,-5.52,-5.52,-5.88,-2.96,-2.96,-2.97
142.02,2.56,5.53,2.56,5.53,-5.52,-5.51,-5.82,-2.96,-2.96,-2.97
143.44,2.56,5.53,2.56,5.53,-5.53,-5.50,-5.76,-2.97,-2.97,-2.97
144.87,2.56,5.54,2.56,5.54,-5.54,-5.49,-5.71,-2.97,-2.97,-2.98
146.32,2.56,5.54,2.56,5.54,-5.54,-5.49,-5.65,-2.98,-2.98,-2.98
147.78,2.56,5.54,2.56,5.54,-5.54,-5.48,-5.59,-2.98,-2.98,-2.98
149.26,2.56,5.54,2.56,5.54,-5.54,-5.47,-5.53,-2.98,-2.98,-2.98
150.75,2.56,5.54,2.56,5.54,-5.54,-5.46,-5.47,-2.98,-2.98,-2.98
152.26,2.56,5.54,2.56,5.54,-5.54,-5.45,-5.42,-2.98,-2.98,-2.98
153.78,2.56,5.55,2.56,5.55,-5.54,-5.45,-5.36,-2.98,-2.98,-2.99
155.32,2.56,5.55,2.56,5.55,-5.54,-5.44,-5.31,-2.98,-2.98,-2.99
156.88,2.56,5.54,2.56,5.54,-5.54,-5.43,-5.26,-2.98,-2.98,-2.98
158.44,2.56,5.54,2.56,5.54,-5.54,-5.42,-5.21,-2.98,-2.98,-2.98
160.03,2.56,5.54,2.56,5.54,-5.54,-5.41,-5.17,-2.98,-2.98,-2.98
161.63,2.56,5.54,2.56,5.54,-5.54,-5.40,-5.12,-2.98,-2.98,-2.98
163.24,2.56,5.54,2.56,5.54,-5.54,-5.39,-5.09,-2.98,-2.98,-2.98
164.88,2.56,5.54,2.56,5.54,-5.54,-5.39,-5.05,-2.98,-2.98,-2.98
166.53,2.56,5.54,2.56,5.54,-5.55,-5.38,-5.02,-2.98,-2.98,-2.98
168.19,2.56,5.53,2.56,5.53,-5.55,-5.37,-4.99,-2.99,-2.99,-2.97
169.87,2.56,5.53,2.56,5.53,-5.54,-5.36,-4.96,-2.98,-2.98,-2.97
171.57,2.56,5.53,2.56,5.53,-5.53,-5.35,-4.94,-2.96,-2.96,-2.97
173.29,2.56,5.53,2.58,5.55,-5.50,-5.34,-4.92,-2.94,-2.92,-2.97
175.02,2.56,5.53,2.56,5.52,-5.47,-5.33,-4.90,-2.91,-2.91,-2.97
176.77,2.56,5.53,2.50,5.47,-5.44,-5.32,-4.89,-2.88,-2.94,-2.97
178.54,2.38,5.35,2.42,5.39,-5.41,-5.31,-4.88,-3.03,-2.98,-2.97
180.32,2.33,5.31,2.36,5.33,-5.38,-5.30,-4.88,-3.05,-3.02,-2.98
182.13,2.33,5.31,2.32,5.30,-5.35,-5.29,-4.88,-3.02,-3.03,-2.98
183.95,2.33,5.32,2.33,5.31,-5.33,-5.28,-4.88,-3.00,-3.00,-2.99
185.79,2.33,5.32,2.33,5.32,-5.31,-5.27,-4.89,-2.98,-2.98,-2.99
187.65,2.33,5.32,2.33,5.32,-5.31,-5.26,-4.90,-2.98,-2.98,-2.99
189.52,2.33,5.33,2.33,5.33,-5.31,-5.25,-4.91,-2.98,-2.98,-3.00
191.42,2.33,5.33,2.33,5.33,-5.32,-5.24,-4.93,-2.99,-2.99,-3.00
193.33,2.33,5.33,2.33,5.33,-5.32,-5.23,-4.95,-2.99,-2.99,-3.00
195.27,2.33,5.33,2.33,5.33,-5.33,-5.22,-4.97,-3.00,-3.00,-3.00
197.22,2.33,5.33,2.33,5.33,-5.33,-5.21,-5.00,-3.00,-3.00,-3.00
199.19,2.33,5.32,2.33,5.32,-5.33,-5.20,-5.03,-3.00,-3.00,-2.99
201.18,2.33,5.32,2.33,5.32,-5.33,-5.18,-5.06,-3.00,-3.00,-2.99
203.19,2.33,5.32,2.33,5.31,-5.33,-5.17,-5.09,-3.00,-3.00,-2.99
205.23,2.33,5.31,2.33,5.31,-5.31,-5.16,-5.12,-2.98,-2.98,-2.98
207.28,2.33,5.31,2.34,5.32,-5.29,-5.15,-5.16,-2.96,-2.94,-2.98
209.35,2.33,5.31,2.33,5.31,-5.26,-5.14,-5.20,-2.93,-2.93,-2.98
211.44,2.33,5.31,2.28,5.26,-5.22,-5.13,-5.23,-2.89,-2.95,-2.98
213.56,2.18,5.16,2.21,5.18,-5.19,-5.12,-5.27,-3.01,-2.98,-2.98
215.69,2.11,5.09,2.14,5.12,-5.16,-5.10,-5.31,-3.05,-3.02,-2.98
217.85,2.10,5.08,2.09,5.07,-5.13,-5.09,-5.35,-3.03,-3.03,-2.98
220.03,2.10,5.08,2.09,5.08,-5.10,-5.08,-5.39,-3.00,-3.01,-2.98
222.23,2.10,5.09,2.10,5.08,-5.08,-5.07,-5.42,-2.98,-2.98,-2.99
224.45,2.10,5.09,2.10,5.09,-5.07,-5.05,-5.46,-2.97,-2.97,-2.99
226.70,2.10,5.09,2.10,5.09,-5.07,-5.04,-5.49,-2.97,-2.97,-2.99
228.96,2.10,5.09,2.10,5.09,-5.08,-5.03,-5.52,-2.98,-2.98,-2.99
231.25,2.10,5.09,2.10,5.09,-5.09,-5.02,-5.54,-2.99,-2.99,-2.99
233.57,2.10,5.10,2.10,5.09,-5.10,-5.00,-5.57,-3.00,-3.00,-3.00
235.90,2.10,5.10,2.10,5.10,-5.11,-4.99,-5.59,-3.01,-3.01,-3.00
238.26,2.10,5.10,2.10,5.10,-5.11,-4.98,-5.60,-3.01,-3.01,-3.00
240.64,2.10,5.11,2.10,5.11,-5.12,-4.96,-5.61,-3.02,-3.02,-3.01
243.05,2.10,5.11,2.10,5.11,-5.11,-4.95,-5.61,-3.01,-3.01,-3.01
245.48,2.10,5.11,2.10,5.11,-5.10,-4.94,-5.61,-3.00,-2.99,-3.01
247.93,2.10,5.11,2.11,5.12,-5.07,-4.92,-5.60,-2.97,-2.96,-3.01
250.41,2.10,5.11,2.08,5.09,-5.05,-4.91,-5.59,-2.95,-2.96,-3.01
252.92,2.06,5.07,2.02,5.03,-5.01,-4.89,-5.57,-2.95,-2.99,-3.01
255.45,1.91,4.92,1.95,4.96,-4.98,-4.88,-5.55,-3.07,-3.03,-3.01
258.00,1.88,4.89,1.89,4.90,-4.95,-4.87,-5.52,-3.07,-3.06,-3.01
260.58,1.88,4.89,1.87,4.88,-4.92,-4.85,-5.49,-3.04,-3.06,-3.01
263.19,1.88,4.89,1.88,4.89,-4.90,-4.84,-5.45,-3.02,-3.02,-3.01
265.82,1.88,4.90,1.88,4.90,-4.88,-4.82,-5.40,-3.00,-3.00,-3.02
268.48,1.88,4.90,1.88,4.90,-4.88,-4.81,-5.35,-3.00,-3.00,-3.02
271.16,1.88,4.90,1.88,4.90,-4.89,-4.79,-5.30,-3.00,-3.00,-3.02
273.87,1.88,4.89,1.88,4.89,-4.90,-4.78,-5.24,-3.02,-3.02,-3.01
276.61,1.88,4.89,1.88,4.89,-4.90,-4.76,-5.18,-3.02,-3.02,-3.01
279.38,1.88,4.89,1.88,4.89,-4.90,-4.74,-5.12,-3.02,-3.02,-3.01
282.17,1.88,4.89,1.88,4.89,-4.89,-4.73,-5.05,-3.01,-3.01,-3.01
284.99,1.88,4.88,1.89,4.89,-4.86,-4.71,-4.99,-2.98,-2.97,-3.00
287.84,1.88,4.88,1.89,4.89,-4.83,-4.70,-4.92,-2.95,-2.95,-3.00
290.72,1.88,4.88,1.84,4.84,-4.80,-4.68,-4.85,-2.92,-2.96,-3.00
293.63,1.77,4.77,1.77,4.77,-4.76,-4.66,-4.78,-2.99,-2.99,-3.00
296.57,1.66,4.65,1.70,4.69,-4.73,-4.64,-4.71,-3.07,-3.03,-2.99
299.53,1.65,4.64,1.65,4.64,-4.70,-4.63,-4.63,-3.05,-3.05,-2.99
302.53,1.65,4.64,1.64,4.63,-4.67,-4.61,-4.56,-3.02,-3.03,-2.99
305.55,1.65,4.64,1.65,4.64,-4.65,-4.59,-4.49,-3.00,-3.00,-2.99
308.61,1.65,4.64,1.65,4.64,-4.63,-4.57,-4.43,-2.98,-2.98,-2.99
311.69,1.65,4.63,1.65,4.63,-4.61,-4.56,-4.36,-2.96,-2.96,-2.98
314.81,1.65,4.63,1.67,4.65,-4.59,-4.54,-4.29,-2.94,-2.93,-2.98
317.96,1.65,4.63,1.64,4.62,-4.57,-4.52,-4.23,-2.92,-2.92,-2.98
321.14,1.64,4.62,1.59,4.56,-4.54,-4.50,-4.17,-2.90,-2.95,-2.98
324.35,1.47,4.45,1.51,4.49,-4.50,-4.48,-4.11,-3.03,-2.99,-2.98
327.59,1.42,4.40,1.44,4.42,-4.47,-4.46,-4.05,-3.05,-3.03,-2.98
330.87,1.42,4.40,1.41,4.39,-4.44,-4.44,-4.00,-3.02,-3.04,-2.98
334.18,1.42,4.40,1.42,4.39,-4.42,-4.42,-3.94,-3.00,-3.01,-2.98
337.52,1.42,4.40,1.42,4.40,-4.40,-4.40,-3.89,-2.98,-2.98,-2.98
340.90,1.42,4.39,1.42,4.39,-4.38,-4.38,-3.85,-2.96,-2.96,-2.97
344.30,1.42,4.39,1.43,4.40,-4.36,-4.36,-3.80,-2.94,-2.93,-2.97
347.75,1.42,4.38,1.43,4.39,-4.33,-4.34,-3.76,-2.91,-2.91,-2.96
351.23,1.42,4.38,1.38,4.34,-4.30,-4.31,-3.72,-2.88,-2.92,-2.96
354.74,1.32,4.28,1.32,4.27,-4.27,-4.29,-3.69,-2.95,-2.95,-2.96
358.28,1.21,4.17,1.25,4.20,-4.24,-4.27,-3.65,-3.03,-2.99,-2.96
361.87,1.19,4.15,1.19,4.15,-4.21,-4.25,-3.62,-3.02,-3.02,-2.96
365.49,1.19,4.15,1.18,4.14,-4.19,-4.22,-3.60,-3.00,-3.01,-2.96
369.14,1.19,4.15,1.19,4.15,-4.16,-4.20,-3.57,-2.97,-2.97,-2.96
372.83,1.19,4.15,1.19,4.15,-4.14,-4.18,-3.55,-2.95,-2.95,-2.96
376.56,1.19,4.15,1.21,4.16,-4.11,-4.15,-3.53,-2.92,-2.91,-2.96
380.33,1.19,4.15,1.19,4.15,-4.09,-4.13,-3.51,-2.90,-2.90,-2.96
384.13,1.19,4.15,1.14,4.10,-4.06,-4.10,-3.50,-2.87,-2.93,-2.96
387.97,1.04,4.01,1.07,4.03,-4.04,-4.08,-3.49,-3.00,-2.98,-2.97
391.85,0.97,3.94,1.00,3.97,-4.02,-4.05,-3.48,-3.05,-3.02,-2.97
395.77,0.96,3.93,0.95,3.93,-3.99,-4.02,-3.47,-3.03,-3.04,-2.97
399.73,0.96,3.94,0.95,3.93,-3.96,-4.00,-3.46,-3.00,-3.01,-2.98
403.72,0.96,3.94,0.96,3.94,-3.93,-3.97,-3.46,-2.97,-2.97,-2.98
407.76,0.96,3.94,0.98,3.96,-3.90,-3.94,-3.46,-2.94,-2.92,-2.98
411.84,0.96,3.94,0.96,3.93,-3.86,-3.91,-3.46,-2.90,-2.91,-2.98
415.96,0.96,3.93,0.90,3.87,-3.84,-3.89,-3.46,-2.88,-2.94,-2.97
420.12,0.79,3.76,0.83,3.80,-3.81,-3.86,-3.46,-3.02,-2.98,-2.97
424.32,0.74,3.70,0.77,3.73,-3.79,-3.83,-3.46,-3.05,-3.02,-2.96
428.56,0.74,3.70,0.73,3.69,-3.76,-3.80,-3.46,-3.02,-3.03,-2.96
432.85,0.74,3.70,0.74,3.69,-3.72,-3.77,-3.47,-2.98,-2.99,-2.96
437.18,0.74,3.70,0.74,3.70,-3.68,-3.73,-3.47,-2.94,-2.94,-2.96
441.55,0.74,3.69,0.76,3.71,-3.65,-3.70,-3.47,-2.91,-2.89,-2.95
445.96,0.74,3.69,0.74,3.68,-3.62,-3.67,-3.48,-2.87,-2.88,-2.95
450.42,0.74,3.68,0.68,3.62,-3.59,-3.64,-3.48,-2.85,-2.91,-2.94
454.93,0.56,3.50,0.60,3.54,-3.56,-3.60,-3.48,-3.00,-2.96,-2.94
459.48,0.51,3.45,0.54,3.47,-3.53,-3.57,-3.48,-3.02,-3.00,-2.94
464.07,0.51,3.44,0.50,3.43,-3.50,-3.53,-3.48,-2.99,-3.00,-2.93
468.71,0.51,3.44,0.51,3.43,-3.46,-3.50,-3.48,-2.95,-2.95,-2.93
