frequency,raw,error,smoothed,error_smoothed,equalization,parametric_eq,fixed_band_eq,equalized_raw,equalized_smoothed,target
20.00,-2.77,-4.40,-2.77,-4.40,4.41,3.60,1.36,1.64,1.65,1.63
20.20,-2.74,-4.37,-2.74,-4.37,4.37,3.59,1.41,1.63,1.63,1.63
20.40,-2.71,-4.34,-2.71,-4.34,4.33,3.58,1.45,1.62,1.62,1.63
20.61,-2.67,-4.30,-2.67,-4.30,4.29,3.56,1.49,1.62,1.61,1.63
20.81,-2.64,-4.27,-2.63,-4.26,4.25,3.55,1.54,1.61,1.61,1.63
21.02,-2.59,-4.22,-2.59,-4.22,4.21,3.54,1.58,1.62,1.62,1.63
21.23,-2.54,-4.17,-2.54,-4.17,4.16,3.53,1.63,1.63,1.62,1.63
21.44,-2.50,-4.12,-2.50,-4.12,4.12,3.51,1.68,1.63,1.63,1.63
21.66,-2.45,-4.08,-2.45,-4.08,4.08,3.50,1.73,1.63,1.63,1.63
21.87,-2.42,-4.04,-2.41,-4.03,4.04,3.49,1.78,1.62,1.63,1.63
22.09,-2.36,-3.98,-2.37,-3.99,4.00,3.47,1.83,1.64,1.63,1.62
22.31,-2.33,-3.95,-2.33,-3.95,3.96,3.46,1.89,1.63,1.63,1.62
22.54,-2.30,-3.92,-2.30,-3.92,3.93,3.44,1.94,1.63,1.63,1.62
22.76,-2.27,-3.89,-2.27,-3.89,3.89,3.43,2.00,1.62,1.62,1.62
22.99,-2.24,-3.86,-2.24,-3.86,3.86,3.42,2.06,1.62,1.62,1.62
23.22,-2.21,-3.83,-2.21,-3.83,3.83,3.40,2.12,1.62,1.62,1.62
23.45,-2.18,-3.80,-2.18,-3.80,3.80,3.39,2.18,1.62,1.62,1.62
23.69,-2.14,-3.76,-2.14,-3.76,3.76,3.37,2.24,1.62,1.62,1.62
23.92,-2.11,-3.73,-2.10,-3.73,3.72,3.36,2.30,1.61,1.62,1.62
24.16,-2.06,-3.68,-2.06,-3.68,3.68,3.35,2.37,1.62,1.62,1.62
24.40,-2.01,-3.63,-2.01,-3.63,3.63,3.33,2.43,1.62,1.62,1.62
24.65,-1.95,-3.57,-1.96,-3.58,3.57,3.32,2.50,1.62,1.62,1.62
24.89,-1.92,-3.54,-1.90,-3.52,3.52,3.30,2.57,1.60,1.62,1.62
25.14,-1.84,-3.46,-1.85,-3.46,3.46,3.29,2.64,1.62,1.62,1.62
25.39,-1.79,-3.41,-1.79,-3.41,3.41,3.27,2.70,1.62,1.62,1.62
25.65,-1.73,-3.35,-1.73,-3.34,3.35,3.26,2.77,1.62,1.62,1.62
25.91,-1.68,-3.30,-1.68,-3.29,3.30,3.24,2.84,1.62,1.62,1.62
26.16,-1.62,-3.23,-1.63,-3.24,3.25,3.23,2.91,1.63,1.62,1.62
26.43,-1.59,-3.20,-1.58,-3.20,3.20,3.21,2.97,1.61,1.62,1.61
26.69,-1.54,-3.15,-1.54,-3.16,3.15,3.20,3.04,1.62,1.61,1.61
26.96,-1.50,-3.11,-1.51,-3.12,3.12,3.18,3.11,1.62,1.61,1.61
27.23,-1.48,-3.09,-1.47,-3.08,3.08,3.17,3.17,1.60,1.62,1.61
27.50,-1.43,-3.04,-1.44,-3.05,3.05,3.15,3.23,1.62,1.62,1.61
27.77,-1.41,-3.02,-1.41,-3.02,3.03,3.13,3.29,1.62,1.61,1.61
28.05,-1.39,-3.00,-1.39,-3.00,3.00,3.12,3.35,1.62,1.61,1.61
28.33,-1.39,-3.00,-1.37,-2.98,2.98,3.10,3.40,1.59,1.61,1.61
28.62,-1.35,-2.96,-1.36,-2.97,2.96,3.09,3.45,1.61,1.60,1.61
28.90,-1.34,-2.95,-1.34,-2.95,2.95,3.07,3.50,1.61,1.60,1.61
29.19,-1.34,-2.94,-1.32,-2.93,2.93,3.05,3.54,1.59,1.60,1.61
29.48,-1.29,-2.89,-1.30,-2.91,2.91,3.04,3.58,1.62,1.60,1.60
29.78,-1.29,-2.89,-1.28,-2.89,2.89,3.02,3.61,1.60,1.60,1.60
30.08,-1.25,-2.85,-1.26,-2.86,2.86,3.01,3.64,1.61,1.61,1.60
30.38,-1.25,-2.85,-1.24,-2.84,2.84,2.99,3.66,1.59,1.60,1.60
30.68,-1.20,-2.80,-1.21,-2.81,2.81,2.97,3.68,1.61,1.60,1.60
30.99,-1.19,-2.79,-1.18,-2.78,2.78,2.96,3.69,1.59,1.60,1.60
31.30,-1.15,-2.75,-1.16,-2.75,2.75,2.94,3.70,1.60,1.59,1.60
31.61,-1.13,-2.72,-1.13,-2.72,2.72,2.92,3.70,1.59,1.59,1.60
31.93,-1.10,-2.69,-1.09,-2.68,2.68,2.91,3.69,1.58,1.59,1.59
32.24,-1.04,-2.63,-1.05,-2.64,2.64,2.89,3.68,1.60,1.59,1.59
32.57,-1.01,-2.60,-1.01,-2.60,2.59,2.87,3.67,1.58,1.59,1.59
32.89,-0.96,-2.55,-0.96,-2.55,2.55,2.86,3.65,1.59,1.59,1.59
33.22,-0.93,-2.52,-0.92,-2.51,2.51,2.84,3.62,1.58,1.59,1.59
33.55,-0.87,-2.45,-0.88,-2.46,2.47,2.82,3.59,1.60,1.59,1.59
33.89,-0.84,-2.42,-0.84,-2.42,2.43,2.80,3.56,1.59,1.59,1.58
34.23,-0.81,-2.39,-0.81,-2.39,2.40,2.79,3.52,1.59,1.59,1.58
34.57,-0.78,-2.36,-0.79,-2.37,2.37,2.77,3.48,1.59,1.58,1.58
34.92,-0.78,-2.36,-0.77,-2.35,2.35,2.75,3.43,1.57,1.57,1.58
35.27,-0.76,-2.33,-0.76,-2.33,2.33,2.73,3.38,1.57,1.57,1.58
35.62,-0.75,-2.32,-0.75,-2.32,2.31,2.72,3.33,1.56,1.57,1.57
35.97,-0.73,-2.30,-0.73,-2.31,2.30,2.70,3.28,1.58,1.57,1.57
36.33,-0.73,-2.30,-0.73,-2.30,2.30,2.68,3.23,1.57,1.57,1.57
36.70,-0.73,-2.30,-0.72,-2.29,2.30,2.66,3.17,1.57,1.58,1.57
37.06,-0.73,-2.29,-0.73,-2.29,2.30,2.65,3.12,1.58,1.58,1.56
37.43,-0.73,-2.29,-0.74,-2.30,2.31,2.63,3.06,1.58,1.57,1.56
37.81,-0.76,-2.32,-0.76,-2.31,2.31,2.61,3.00,1.56,1.56,1.56
38.19,-0.78,-2.33,-0.77,-2.33,2.32,2.59,2.95,1.54,1.55,1.56
38.57,-0.78,-2.33,-0.79,-2.34,2.32,2.58,2.89,1.54,1.53,1.55
38.95,-0.78,-2.33,-0.78,-2.33,2.31,2.56,2.83,1.53,1.54,1.55
39.34,-0.78,-2.32,-0.76,-2.31,2.30,2.54,2.78,1.52,1.54,1.55
39.74,-0.73,-2.27,-0.75,-2.29,2.29,2.52,2.72,1.56,1.54,1.54
40.14,-0.73,-2.27,-0.73,-2.27,2.27,2.50,2.67,1.54,1.54,1.54
40.54,-0.71,-2.24,-0.70,-2.24,2.24,2.48,2.62,1.53,1.54,1.54
40.94,-0.69,-2.22,-0.69,-2.22,2.22,2.47,2.57,1.53,1.53,1.53
41.35,-0.66,-2.19,-0.66,-2.19,2.20,2.45,2.52,1.54,1.54,1.53
41.76,-0.64,-2.16,-0.65,-2.17,2.18,2.43,2.47,1.54,1.54,1.52
42.18,-0.64,-2.16,-0.64,-2.16,2.17,2.41,2.42,1.53,1.53,1.52
42.60,-0.64,-2.15,-0.64,-2.15,2.16,2.39,2.37,1.52,1.52,1.52
43.03,-0.64,-2.15,-0.64,-2.15,2.15,2.37,2.33,1.51,1.51,1.51
43.46,-0.64,-2.15,-0.64,-2.15,2.14,2.35,2.29,1.50,1.50,1.51
43.90,-0.64,-2.14,-0.64,-2.14,2.13,2.34,2.25,1.49,1.49,1.50
44.33,-0.64,-2.14,-0.64,-2.13,2.12,2.32,2.21,1.48,1.48,1.50
44.78,-0.64,-2.13,-0.62,-2.11,2.11,2.30,2.17,1.47,1.48,1.49
45.23,-0.59,-2.08,-0.61,-2.10,2.09,2.28,2.14,1.50,1.48,1.49
45.68,-0.59,-2.07,-0.59,-2.07,2.07,2.26,2.11,1.48,1.48,1.48
46.13,-0.59,-2.06,-0.57,-2.05,2.05,2.24,2.08,1.46,1.48,1.47
46.60,-0.55,-2.02,-0.56,-2.03,2.04,2.22,2.05,1.49,1.47,1.47
47.06,-0.55,-2.01,-0.55,-2.01,2.02,2.20,2.02,1.47,1.47,1.46
47.53,-0.55,-2.00,-0.55,-2.00,2.01,2.18,1.99,1.46,1.46,1.46
48.01,-0.55,-2.00,-0.55,-2.00,1.99,2.16,1.97,1.45,1.45,1.45
48.49,-0.55,-1.99,-0.55,-1.99,1.98,2.14,1.94,1.43,1.43,1.44
48.97,-0.55,-1.98,-0.55,-1.98,1.98,2.12,1.92,1.43,1.43,1.43
49.46,-0.55,-1.98,-0.55,-1.98,1.97,2.10,1.90,1.42,1.42,1.43
49.96,-0.55,-1.97,-0.55,-1.97,1.97,2.08,1.88,1.42,1.42,1.42
50.46,-0.55,-1.96,-0.55,-1.96,1.97,2.06,1.86,1.42,1.42,1.41
50.96,-0.55,-1.95,-0.56,-1.96,1.97,2.04,1.85,1.42,1.42,1.40
51.47,-0.59,-1.98,-0.58,-1.97,1.98,2.01,1.83,1.39,1.40,1.40
51.99,-0.59,-1.98,-0.60,-1.99,1.99,1.99,1.81,1.40,1.38,1.39
52.51,-0.64,-2.02,-0.62,-2.00,2.00,1.97,1.80,1.36,1.37,1.38
53.03,-0.64,-2.01,-0.64,-2.01,2.01,1.95,1.79,1.37,1.37,1.37
53.56,-0.66,-2.02,-0.66,-2.02,2.02,1.93,1.77,1.36,1.36,1.36
54.10,-0.69,-2.04,-0.68,-2.03,2.03,1.90,1.76,1.34,1.35,1.35
54.64,-0.69,-2.03,-0.70,-2.04,2.04,1.88,1.75,1.35,1.34,1.34
55.18,-0.73,-2.06,-0.72,-2.05,2.04,1.86,1.73,1.31,1.32,1.33
55.74,-0.73,-2.05,-0.73,-2.04,2.04,1.84,1.72,1.31,1.31,1.32
56.29,-0.73,-2.03,-0.73,-2.04,2.03,1.81,1.71,1.30,1.30,1.30
56.86,-0.73,-2.02,-0.73,-2.02,2.02,1.79,1.69,1.29,1.29,1.29
57.42,-0.73,-2.01,-0.72,-2.00,2.00,1.77,1.68,1.28,1.28,1.28
58.00,-0.71,-1.98,-0.71,-1.98,1.98,1.74,1.67,1.27,1.27,1.27
58.58,-0.69,-1.94,-0.70,-1.96,1.96,1.72,1.65,1.27,1.26,1.26
59.16,-0.69,-1.93,-0.69,-1.93,1.93,1.69,1.63,1.24,1.24,1.24
59.76,-0.69,-1.92,-0.67,-1.90,1.90,1.67,1.62,1.21,1.22,1.23
60.35,-0.64,-1.85,-0.65,-1.87,1.87,1.64,1.60,1.23,1.21,1.21
60.96,-0.64,-1.84,-0.63,-1.83,1.83,1.62,1.58,1.19,1.20,1.20
61.57,-0.60,-1.78,-0.61,-1.79,1.80,1.59,1.56,1.20,1.19,1.18
62.18,-0.59,-1.76,-0.59,-1.76,1.76,1.56,1.54,1.17,1.16,1.17
62.80,-0.57,-1.72,-0.57,-1.72,1.71,1.54,1.51,1.14,1.15,1.15
63.43,-0.55,-1.68,-0.54,-1.68,1.67,1.51,1.49,1.12,1.13,1.14
64.07,-0.50,-1.62,-0.51,-1.63,1.62,1.48,1.46,1.12,1.12,1.12
64.71,-0.47,-1.57,-0.47,-1.57,1.58,1.45,1.44,1.11,1.11,1.10
65.35,-0.45,-1.53,-0.44,-1.53,1.53,1.42,1.41,1.08,1.09,1.08
66.01,-0.41,-1.47,-0.42,-1.48,1.48,1.40,1.38,1.07,1.07,1.06
66.67,-0.40,-1.44,-0.39,-1.44,1.44,1.37,1.35,1.04,1.05,1.05
67.33,-0.36,-1.38,-0.36,-1.39,1.39,1.34,1.31,1.03,1.02,1.03
68.01,-0.34,-1.34,-0.34,-1.35,1.34,1.31,1.28,1.00,1.00,1.01
68.69,-0.32,-1.30,-0.31,-1.30,1.30,1.28,1.24,0.98,0.99,0.98
69.37,-0.29,-1.25,-0.30,-1.26,1.26,1.25,1.21,0.97,0.96,0.96
70.07,-0.27,-1.21,-0.27,-1.22,1.22,1.21,1.17,0.95,0.94,0.94
70.77,-0.27,-1.19,-0.25,-1.17,1.18,1.18,1.13,0.91,0.92,0.92
71.48,-0.23,-1.13,-0.24,-1.13,1.14,1.15,1.10,0.91,0.90,0.90
72.19,-0.22,-1.09,-0.23,-1.10,1.10,1.12,1.06,0.88,0.87,0.87
72.91,-0.22,-1.07,-0.21,-1.06,1.06,1.08,1.02,0.84,0.85,0.85
73.64,-0.22,-1.04,-0.20,-1.03,1.03,1.05,0.98,0.81,0.82,0.82
74.38,-0.18,-0.98,-0.20,-1.00,0.99,1.02,0.94,0.81,0.79,0.80
75.12,-0.18,-0.95,-0.18,-0.95,0.95,0.98,0.90,0.77,0.77,0.77
75.87,-0.18,-0.93,-0.16,-0.91,0.91,0.95,0.86,0.73,0.75,0.75
76.63,-0.13,-0.85,-0.15,-0.87,0.87,0.91,0.82,0.74,0.72,0.72
77.40,-0.13,-0.82,-0.13,-0.83,0.83,0.87,0.78,0.70,0.69,0.69
78.17,-0.13,-0.79,-0.12,-0.79,0.79,0.84,0.73,0.66,0.66,0.67
78.95,-0.13,-0.77,-0.12,-0.76,0.75,0.80,0.69,0.62,0.63,0.64
79.74,-0.10,-0.71,-0.10,-0.71,0.71,0.76,0.65,0.61,0.61,0.61
80.54,-0.08,-0.66,-0.09,-0.67,0.67,0.73,0.61,0.59,0.59,0.58
81.35,-0.08,-0.63,-0.08,-0.63,0.63,0.69,0.57,0.56,0.56,0.55
82.16,-0.08,-0.60,-0.08,-0.60,0.60,0.65,0.53,0.52,0.52,0.52
82.98,-0.08,-0.57,-0.08,-0.57,0.56,0.61,0.49,0.48,0.48,0.49
83.81,-0.08,-0.53,-0.07,-0.53,0.52,0.57,0.45,0.44,0.45,0.45
84.65,-0.06,-0.48,-0.06,-0.48,0.48,0.53,0.41,0.42,0.42,0.42
85.50,-0.04,-0.43,-0.05,-0.44,0.44,0.49,0.37,0.40,0.40,0.39
86.35,-0.04,-0.40,-0.04,-0.39,0.41,0.45,0.33,0.37,0.37,0.36
87.22,-0.04,-0.36,-0.04,-0.36,0.36,0.41,0.29,0.33,0.33,0.32
88.09,-0.04,-0.33,-0.04,-0.33,0.32,0.37,0.25,0.28,0.28,0.29
88.97,-0.04,-0.29,-0.03,-0.29,0.28,0.32,0.21,0.24,0.24,0.25
89.86,-0.03,-0.25,-0.02,-0.24,0.23,0.28,0.17,0.20,0.21,0.22
90.76,0.01,-0.17,-0.00,-0.19,0.19,0.24,0.14,0.20,0.18,0.18
91.66,0.01,-0.14,0.01,-0.14,0.14,0.20,0.10,0.15,0.15,0.15
92.58,0.01,-0.10,0.02,-0.09,0.09,0.16,0.06,0.10,0.11,0.11
93.51,0.03,-0.05,0.03,-0.04,0.04,0.11,0.02,0.07,0.07,0.08
94.44,0.06,0.02,0.05,0.01,-0.01,0.07,-0.02,0.05,0.04,0.04
95.39,0.06,0.06,0.06,0.06,-0.05,0.03,-0.06,0.01,0.01,0.00
96.34,0.06,0.10,0.07,0.10,-0.09,-0.02,-0.09,-0.03,-0.02,-0.03
97.30,0.06,0.13,0.06,0.14,-0.12,-0.06,-0.13,-0.06,-0.06,-0.07
98.28,0.06,0.17,0.05,0.16,-0.16,-0.10,-0.17,-0.10,-0.10,-0.11
99.26,0.04,0.19,0.04,0.19,-0.19,-0.15,-0.20,-0.15,-0.15,-0.15
100.25,0.01,0.20,0.02,0.21,-0.22,-0.19,-0.24,-0.21,-0.20,-0.19
101.25,0.01,0.23,0.01,0.23,-0.25,-0.24,-0.28,-0.24,-0.24,-0.22
102.27,0.01,0.27,0.01,0.27,-0.28,-0.28,-0.31,-0.27,-0.27,-0.26
103.29,0.01,0.31,0.01,0.31,-0.31,-0.32,-0.35,-0.30,-0.30,-0.30
104.32,0.01,0.35,0.01,0.35,-0.35,-0.37,-0.39,-0.34,-0.34,-0.34
105.37,0.01,0.39,0.01,0.39,-0.39,-0.41,-0.42,-0.37,-0.37,-0.38
106.42,0.01,0.43,0.01,0.43,-0.43,-0.45,-0.46,-0.42,-0.42,-0.42
107.48,0.01,0.46,0.01,0.46,-0.47,-0.50,-0.49,-0.46,-0.46,-0.45
108.56,0.01,0.50,0.01,0.50,-0.51,-0.54,-0.52,-0.49,-0.49,-0.49
109.64,0.01,0.54,0.01,0.54,-0.54,-0.58,-0.56,-0.53,-0.53,-0.53
110.74,0.01,0.58,0.01,0.58,-0.57,-0.62,-0.59,-0.56,-0.56,-0.57
111.85,0.01,0.62,0.01,0.62,-0.61,-0.66,-0.62,-0.60,-0.60,-0.61
112.97,0.01,0.65,-0.00,0.64,-0.64,-0.71,-0.65,-0.63,-0.64,-0.64
114.10,-0.02,0.66,-0.02,0.67,-0.67,-0.75,-0.68,-0.69,-0.68,-0.68
115.24,-0.04,0.68,-0.03,0.69,-0.70,-0.79,-0.71,-0.74,-0.73,-0.72
116.39,-0.04,0.72,-0.04,0.71,-0.73,-0.83,-0.74,-0.76,-0.77,-0.76
117.55,-0.04,0.75,-0.04,0.75,-0.75,-0.87,-0.77,-0.79,-0.79,-0.79
118.73,-0.04,0.79,-0.04,0.79,-0.78,-0.91,-0.79,-0.82,-0.82,-0.83
119.92,-0.04,0.83,-0.05,0.82,-0.81,-0.95,-0.82,-0.85,-0.86,-0.86
121.12,-0.07,0.83,-0.06,0.84,-0.84,-0.99,-0.84,-0.91,-0.90,-0.90
122.33,-0.08,0.86,-0.07,0.86,-0.87,-1.02,-0.87,-0.95,-0.94,-0.94
123.55,-0.08,0.89,-0.08,0.89,-0.90,-1.06,-0.89,-0.98,-0.98,-0.97
124.79,-0.08,0.93,-0.08,0.93,-0.93,-1.10,-0.91,-1.01,-1.01,-1.01
126.03,-0.08,0.96,-0.08,0.96,-0.96,-1.13,-0.93,-1.04,-1.04,-1.04
127.29,-0.08,0.99,-0.08,0.99,-0.99,-1.17,-0.95,-1.07,-1.07,-1.07
128.57,-0.08,1.03,-0.08,1.03,-1.03,-1.21,-0.96,-1.10,-1.10,-1.11
129.85,-0.08,1.06,-0.08,1.06,-1.06,-1.24,-0.98,-1.14,-1.14,-1.14
131.15,-0.08,1.09,-0.08,1.09,-1.09,-1.27,-1.00,-1.17,-1.17,-1.17
132.46,-0.08,1.12,-0.08,1.12,-1.13,-1.31,-1.01,-1.20,-1.20,-1.20
133.79,-0.08,1.16,-0.08,1.16,-1.16,-1.34,-1.02,-1.24,-1.24,-1.24
135.12,-0.08,1.19,-0.08,1.19,-1.19,-1.37,-1.04,-1.27,-1.27,-1.27
136.48,-0.08,1.22,-0.08,1.22,-1.22,-1.40,-1.05,-1.29,-1.29,-1.30
137.84,-0.08,1.25,-0.08,1.25,-1.24,-1.43,-1.06,-1.32,-1.32,-1.33
139.22,-0.08,1.28,-0.08,1.28,-1.27,-1.46,-1.07,-1.35,-1.35,-1.36
140.61,-0.08,1.31,-0.08,1.31,-1.30,-1.49,-1.08,-1.38,-1.38,-1.38
142.02,-0.08,1.33,-0.08,1.33,-1.34,-1.52,-1.10,-1.42,-1.42,-1.41
143.44,-0.08,1.36,-0.08,1.36,-1.37,-1.55,-1.11,-1.45,-1.45,-1.44
144.87,-0.08,1.39,-0.07,1.40,-1.40,-1.57,-1.12,-1.48,-1.47,-1.47
146.32,-0.06,1.43,-0.06,1.43,-1.43,-1.60,-1.13,-1.49,-1.49,-1.49
147.78,-0.04,1.48,-0.05,1.47,-1.47,-1.62,-1.14,-1.51,-1.51,-1.52
149.26,-0.04,1.51,-0.04,1.51,-1.50,-1.65,-1.15,-1.54,-1.54,-1.54
150.75,-0.04,1.53,-0.04,1.53,-1.53,-1.67,-1.16,-1.57,-1.57,-1.57
152.26,-0.04,1.55,-0.04,1.55,-1.56,-1.70,-1.17,-1.60,-1.60,-1.59
153.78,-0.04,1.58,-0.04,1.58,-1.58,-1.72,-1.18,-1.62,-1.62,-1.62
155.32,-0.04,1.60,-0.04,1.60,-1.60,-1.74,-1.20,-1.64,-1.64,-1.64
156.88,-0.04,1.62,-0.04,1.62,-1.62,-1.76,-1.21,-1.65,-1.66,-1.66
158.44,-0.05,1.64,-0.05,1.63,-1.63,-1.78,-1.22,-1.68,-1.68,-1.68
160.03,-0.06,1.65,-0.06,1.64,-1.65,-1.80,-1.24,-1.70,-1.71,-1.71
161.63,-0.08,1.65,-0.07,1.65,-1.66,-1.82,-1.26,-1.74,-1.73,-1.73
163.24,-0.08,1.67,-0.08,1.67,-1.68,-1.84,-1.27,-1.75,-1.75,-1.75
164.88,-0.08,1.69,-0.08,1.69,-1.69,-1.86,-1.29,-1.77,-1.77,-1.77
166.53,-0.08,1.71,-0.08,1.71,-1.70,-1.87,-1.31,-1.78,-1.78,-1.79
168.19,-0.08,1.73,-0.08,1.73,-1.72,-1.89,-1.33,-1.80,-1.80,-1.80
169.87,-0.08,1.74,-0.08,1.74,-1.74,-1.91,-1.35,-1.82,-1.82,-1.82
171.57,-0.08,1.76,-0.08,1.76,-1.76,-1.92,-1.37,-1.84,-1.84,-1.84
173.29,-0.08,1.78,-0.08,1.78,-1.78,-1.94,-1.39,-1.86,-1.86,-1.86
175.02,-0.08,1.80,-0.08,1.79,-1.80,-1.95,-1.42,-1.88,-1.88,-1.87
176.77,-0.08,1.81,-0.07,1.82,-1.82,-1.96,-1.44,-1.90,-1.90,-1.89
178.54,-0.07,1.84,-0.06,1.84,-1.85,-1.98,-1.47,-1.91,-1.91,-1.91
180.32,-0.04,1.88,-0.05,1.87,-1.87,-1.99,-1.50,-1.91,-1.92,-1.92
182.13,-0.04,1.90,-0.04,1.90,-1.89,-2.00,-1.52,-1.93,-1.93,-1.94
183.95,-0.04,1.91,-0.04,1.91,-1.91,-2.01,-1.55,-1.95,-1.94,-1.95
185.79,-0.04,1.93,-0.04,1.93,-1.93,-2.02,-1.58,-1.96,-1.96,-1.96
187.65,-0.04,1.94,-0.04,1.94,-1.94,-2.03,-1.62,-1.98,-1.98,-1.98
189.52,-0.04,1.95,-0.04,1.95,-1.95,-2.04,-1.65,-1.99,-1.99,-1.99
191.42,-0.04,1.96,-0.04,1.96,-1.97,-2.05,-1.68,-2.01,-2.01,-2.00
193.33,-0.04,1.98,-0.04,1.98,-1.98,-2.06,-1.72,-2.02,-2.02,-2.02
195.27,-0.04,1.99,-0.04,1.99,-1.99,-2.07,-1.75,-2.03,-2.03,-2.03
197.22,-0.04,2.00,-0.04,2.00,-2.00,-2.08,-1.79,-2.04,-2.04,-2.04
199.19,-0.04,2.01,-0.04,2.01,-2.01,-2.08,-1.83,-2.05,-2.05,-2.05
201.18,-0.04,2.02,-0.04,2.02,-2.02,-2.09,-1.86,-2.06,-2.06,-2.06
203.19,-0.04,2.03,-0.04,2.03,-2.03,-2.10,-1.90,-2.07,-2.07,-2.07
205.23,-0.04,2.04,-0.04,2.04,-2.04,-2.11,-1.94,-2.08,-2.08,-2.08
207.28,-0.04,2.05,-0.04,2.05,-2.05,-2.11,-1.98,-2.09,-2.09,-2.09
209.35,-0.04,2.06,-0.04,2.06,-2.06,-2.12,-2.02,-2.10,-2.10,-2.10
211.44,-0.04,2.07,-0.04,2.07,-2.07,-2.12,-2.06,-2.11,-2.11,-2.11
213.56,-0.04,2.08,-0.04,2.08,-2.08,-2.13,-2.10,-2.12,-2.12,-2.12
215.69,-0.04,2.09,-0.04,2.09,-2.09,-2.13,-2.13,-2.13,-2.13,-2.13
217.85,-0.04,2.10,-0.04,2.10,-2.10,-2.14,-2.17,-2.14,-2.14,-2.14
220.03,-0.04,2.11,-0.04,2.11,-2.11,-2.14,-2.21,-2.14,-2.14,-2.14
222.23,-0.04,2.11,-0.04,2.11,-2.11,-2.15,-2.25,-2.15,-2.15,-2.15
224.45,-0.04,2.12,-0.04,2.12,-2.12,-2.15,-2.28,-2.16,-2.16,-2.16
226.70,-0.04,2.13,-0.04,2.13,-2.13,-2.16,-2.32,-2.17,-2.17,-2.17
228.96,-0.04,2.13,-0.04,2.13,-2.13,-2.16,-2.35,-2.17,-2.17,-2.17
231.25,-0.04,2.14,-0.04,2.14,-2.14,-2.16,-2.38,-2.18,-2.18,-2.18
233.57,-0.04,2.15,-0.04,2.15,-2.15,-2.17,-2.41,-2.19,-2.19,-2.19
235.90,-0.04,2.15,-0.04,2.15,-2.16,-2.17,-2.44,-2.20,-2.20,-2.19
238.26,-0.04,2.16,-0.04,2.16,-2.17,-2.17,-2.46,-2.21,-2.21,-2.20
240.64,-0.04,2.17,-0.03,2.17,-2.18,-2.18,-2.48,-2.22,-2.21,-2.21
243.05,-0.02,2.19,-0.02,2.19,-2.19,-2.18,-2.51,-2.21,-2.21,-2.21
245.48,-0.01,2.21,-0.01,2.21,-2.20,-2.18,-2.52,-2.21,-2.21,-2.22
247.93,0.01,2.23,0.01,2.23,-2.22,-2.19,-2.54,-2.20,-2.21,-2.22
250.41,0.01,2.24,0.01,2.24,-2.23,-2.19,-2.55,-2.22,-2.22,-2.23
252.92,0.01,2.24,0.01,2.24,-2.24,-2.19,-2.56,-2.23,-2.23,-2.23
255.45,0.01,2.25,0.01,2.25,-2.25,-2.20,-2.57,-2.24,-2.24,-2.24
258.00,0.01,2.25,0.01,2.25,-2.26,-2.20,-2.58,-2.25,-2.26,-2.24
260.58,0.01,2.26,0.02,2.26,-2.27,-2.20,-2.58,-2.26,-2.26,-2.25
263.19,0.02,2.27,0.03,2.28,-2.28,-2.20,-2.58,-2.26,-2.25,-2.25
265.82,0.06,2.31,0.05,2.30,-2.29,-2.21,-2.58,-2.23,-2.25,-2.25
268.48,0.06,2.32,0.06,2.32,-2.30,-2.21,-2.58,-2.24,-2.24,-2.26
271.16,0.06,2.32,0.06,2.33,-2.32,-2.21,-2.57,-2.25,-2.25,-2.26
273.87,0.06,2.33,0.06,2.32,-2.33,-2.22,-2.57,-2.27,-2.27,-2.26
276.61,0.06,2.33,0.06,2.33,-2.34,-2.22,-2.56,-2.28,-2.28,-2.27
279.38,0.06,2.33,0.07,2.34,-2.35,-2.22,-2.55,-2.29,-2.28,-2.27
282.17,0.08,2.36,0.08,2.36,-2.36,-2.23,-2.54,-2.28,-2.28,-2.28
284.99,0.10,2.38,0.09,2.37,-2.37,-2.23,-2.53,-2.27,-2.27,-2.28
287.84,0.10,2.38,0.10,2.38,-2.38,-2.24,-2.52,-2.28,-2.28,-2.28
290.72,0.10,2.39,0.10,2.39,-2.39,-2.24,-2.51,-2.29,-2.29,-2.28
293.63,0.10,2.39,0.11,2.40,-2.40,-2.24,-2.50,-2.30,-2.29,-2.29
296.57,0.14,2.43,0.13,2.42,-2.42,-2.25,-2.49,-2.28,-2.29,-2.29
299.53,0.15,2.44,0.15,2.44,-2.43,-2.25,-2.48,-2.28,-2.28,-2.29
302.53,0.15,2.45,0.15,2.45,-2.44,-2.26,-2.47,-2.29,-2.29,-2.30
305.55,0.15,2.45,0.15,2.45,-2.45,-2.26,-2.46,-2.30,-2.31,-2.30
308.61,0.15,2.45,0.16,2.46,-2.47,-2.27,-2.45,-2.31,-2.31,-2.30
311.69,0.16,2.46,0.17,2.47,-2.48,-2.28,-2.45,-2.31,-2.31,-2.30
314.81,0.20,2.51,0.19,2.49,-2.49,-2.28,-2.44,-2.28,-2.30,-2.30
317.96,0.20,2.51,0.20,2.51,-2.49,-2.29,-2.44,-2.29,-2.30,-2.31
321.14,0.20,2.51,0.20,2.51,-2.51,-2.30,-2.43,-2.31,-2.31,-2.31
324.35,0.20,2.51,0.20,2.51,-2.52,-2.30,-2.43,-2.32,-2.32,-2.31
327.59,0.20,2.51,0.21,2.53,-2.53,-2.31,-2.43,-2.33,-2.32,-2.31
330.87,0.24,2.55,0.22,2.54,-2.55,-2.32,-2.43,-2.30,-2.32,-2.31
334.18,0.24,2.56,0.24,2.56,-2.56,-2.33,-2.43,-2.32,-2.32,-2.32
337.52,0.24,2.56,0.26,2.58,-2.57,-2.33,-2.44,-2.33,-2.31,-2.32
340.90,0.29,2.61,0.27,2.59,-2.59,-2.34,-2.45,-2.30,-2.31,-2.32
344.30,0.29,2.61,0.29,2.61,-2.60,-2.35,-2.45,-2.31,-2.32,-2.32
347.75,0.29,2.61,0.30,2.62,-2.62,-2.36,-2.47,-2.33,-2.32,-2.32
351.23,0.30,2.62,0.31,2.63,-2.64,-2.37,-2.48,-2.34,-2.33,-2.32
354.74,0.34,2.67,0.33,2.65,-2.66,-2.38,-2.49,-2.32,-2.33,-2.33
358.28,0.34,2.67,0.35,2.68,-2.67,-2.39,-2.51,-2.33,-2.32,-2.33
361.87,0.37,2.70,0.36,2.69,-2.69,-2.40,-2.53,-2.32,-2.33,-2.33
365.49,0.38,2.71,0.38,2.71,-2.71,-2.41,-2.55,-2.33,-2.33,-2.33
369.14,0.38,2.71,0.40,2.73,-2.73,-2.43,-2.57,-2.35,-2.33,-2.33
372.83,0.43,2.76,0.41,2.74,-2.74,-2.44,-2.59,-2.31,-2.33,-2.33
376.56,0.43,2.76,0.43,2.76,-2.76,-2.45,-2.62,-2.33,-2.33,-2.33
380.33,0.43,2.76,0.45,2.78,-2.78,-2.46,-2.65,-2.35,-2.33,-2.33
384.13,0.46,2.80,0.46,2.79,-2.79,-2.48,-2.67,-2.33,-2.34,-2.33
387.97,0.48,2.82,0.47,2.80,-2.81,-2.49,-2.70,-2.33,-2.34,-2.34
391.85,0.48,2.82,0.48,2.82,-2.82,-2.50,-2.74,-2.34,-2.34,-2.34
395.77,0.48,2.82,0.50,2.83,-2.83,-2.52,-2.77,-2.35,-2.34,-2.34
399.73,0.52,2.86,0.51,2.85,-2.84,-2.53,-2.80,-2.32,-2.34,-2.34
403.72,0.52,2.86,0.52,2.86,-2.85,-2.55,-2.84,-2.33,-2.34,-2.34
407.76,0.52,2.86,0.52,2.86,-2.86,-2.56,-2.88,-2.34,-2.34,-2.34
411.84,0.52,2.86,0.52,2.86,-2.87,-2.58,-2.91,-2.35,-2.35,-2.34
415.96,0.52,2.86,0.53,2.87,-2.88,-2.59,-2.95,-2.36,-2.35,-2.34
420.12,0.55,2.89,0.54,2.88,-2.88,-2.61,-2.99,-2.33,-2.34,-2.34
424.32,0.55,2.89,0.55,2.89,-2.88,-2.63,-3.03,-2.33,-2.33,-2.34
428.56,0.55,2.89,0.55,2.89,-2.88,-2.64,-3.07,-2.33,-2.33,-2.34
432.85,0.54,2.89,0.54,2.88,-2.88,-2.66,-3.11,-2.34,-2.34,-2.34
437.18,0.52,2.87,0.53,2.87,-2.88,-2.68,-3.14,-2.36,-2.35,-2.35
441.55,0.52,2.87,0.52,2.87,-2.88,-2.69,-3.18,-2.35,-2.35,-2.35
445.96,0.52,2.87,0.52,2.87,-2.87,-2.71,-3.21,-2.35,-2.35,-2.35
450.42,0.52,2.87,0.52,2.87,-2.87,-2.73,-3.25,-2.35,-2.35,-2.35
454.93,0.52,2.87,0.52,2.87,-2.87,-2.75,-3.28,-2.35,-2.35,-2.35
459.48,0.52,2.87,0.52,2.87,-2.87,-2.76,-3.31,-2.35,-2.35,-2.35
464.07,0.52,2.87,0.52,2.87,-2.87,-2.78,-3.34,-2.35,-2.35,-2.35
468.71,0.52,2.87,0.52,2.87,-2.87,-2.80,-3.36,-2.35,-2.35,-2.35
473.40,0.52,2.87,0.52,2.87,-2.87,-2.81,-3.38,-2.35,-2.35,-2.35
478.13,0.52,2.87,0.52,2.87,-2.87,-2.83,-3.40,-2.35,-2.35,-2.35
