frequency,raw,error,smoothed,error_smoothed,equalization,parametric_eq,fixed_band_eq,equalized_raw,equalized_smoothed,target
20.00,2.88,-2.62,2.88,-2.62,2.62,2.40,0.95,5.50,5.50,5.50
20.20,2.92,-2.56,2.93,-2.56,2.56,2.39,0.98,5.48,5.49,5.48
20.40,2.97,-2.50,2.97,-2.51,2.50,2.38,1.01,5.48,5.48,5.47
20.61,3.01,-2.46,3.01,-2.45,2.45,2.37,1.04,5.46,5.46,5.47
20.81,3.05,-2.40,3.05,-2.40,2.40,2.36,1.07,5.46,5.46,5.45
21.02,3.09,-2.35,3.09,-2.35,2.36,2.35,1.10,5.45,5.45,5.44
21.23,3.12,-2.31,3.12,-2.31,2.32,2.33,1.13,5.44,5.44,5.43
21.44,3.15,-2.29,3.15,-2.28,2.28,2.32,1.17,5.43,5.43,5.44
21.66,3.18,-2.25,3.18,-2.24,2.24,2.31,1.20,5.42,5.42,5.43
21.87,3.21,-2.21,3.21,-2.21,2.21,2.30,1.24,5.42,5.42,5.42
22.09,3.23,-2.18,3.23,-2.18,2.18,2.28,1.28,5.41,5.41,5.41
22.31,3.25,-2.15,3.25,-2.15,2.15,2.27,1.32,5.40,5.41,5.41
22.54,3.27,-2.13,3.27,-2.13,2.13,2.26,1.36,5.40,5.40,5.40
22.76,3.29,-2.11,3.29,-2.11,2.11,2.25,1.40,5.40,5.40,5.41
22.99,3.30,-2.09,3.30,-2.09,2.10,2.23,1.44,5.40,5.40,5.40
23.22,3.30,-2.08,3.30,-2.09,2.09,2.22,1.48,5.40,5.40,5.38
23.45,3.30,-2.08,3.30,-2.08,2.09,2.21,1.53,5.40,5.39,5.38
23.69,3.29,-2.09,3.29,-2.09,2.10,2.19,1.57,5.39,5.39,5.38
23.92,3.28,-2.10,3.28,-2.10,2.10,2.18,1.62,5.39,5.39,5.38
24.16,3.27,-2.11,3.27,-2.12,2.11,2.16,1.66,5.38,5.38,5.38
24.40,3.26,-2.13,3.26,-2.12,2.11,2.15,1.71,5.37,5.37,5.39
24.65,3.26,-2.13,3.26,-2.12,2.11,2.13,1.75,5.37,5.37,5.39
24.89,3.27,-2.11,3.27,-2.11,2.10,2.12,1.80,5.37,5.37,5.38
25.14,3.28,-2.09,3.28,-2.09,2.09,2.11,1.85,5.37,5.37,5.37
25.39,3.29,-2.07,3.29,-2.07,2.07,2.09,1.90,5.36,5.37,5.37
25.65,3.31,-2.04,3.31,-2.05,2.05,2.08,1.95,5.36,5.36,5.36
25.91,3.34,-2.01,3.34,-2.02,2.02,2.06,1.99,5.36,5.36,5.35
26.16,3.37,-1.99,3.37,-1.98,1.98,2.05,2.04,5.36,5.36,5.36
26.43,3.40,-1.95,3.40,-1.95,1.95,2.03,2.09,5.35,5.35,5.35
26.69,3.43,-1.92,3.43,-1.92,1.92,2.01,2.13,5.35,5.35,5.35
26.96,3.46,-1.89,3.46,-1.88,1.88,2.00,2.18,5.35,5.35,5.35
27.23,3.49,-1.85,3.49,-1.85,1.85,1.98,2.22,5.34,5.35,5.34
27.50,3.52,-1.82,3.52,-1.82,1.82,1.97,2.26,5.34,5.34,5.34
27.77,3.55,-1.79,3.55,-1.79,1.79,1.95,2.30,5.35,5.34,5.35
28.05,3.57,-1.77,3.57,-1.77,1.77,1.93,2.34,5.34,5.34,5.34
28.33,3.59,-1.75,3.59,-1.75,1.75,1.92,2.38,5.34,5.34,5.34
28.62,3.61,-1.73,3.61,-1.73,1.74,1.90,2.41,5.35,5.35,5.34
28.90,3.62,-1.73,3.62,-1.72,1.73,1.88,2.44,5.35,5.35,5.35
29.19,3.63,-1.72,3.63,-1.72,1.73,1.87,2.47,5.36,5.36,5.35
29.48,3.63,-1.71,3.63,-1.72,1.73,1.85,2.49,5.36,5.35,5.35
29.78,3.62,-1.72,3.62,-1.73,1.73,1.83,2.51,5.35,5.35,5.34
30.08,3.61,-1.75,3.62,-1.74,1.73,1.82,2.53,5.34,5.35,5.36
30.38,3.61,-1.74,3.61,-1.74,1.73,1.80,2.54,5.34,5.34,5.35
30.68,3.61,-1.74,3.61,-1.74,1.73,1.78,2.55,5.35,5.35,5.35
30.99,3.61,-1.73,3.61,-1.73,1.73,1.76,2.55,5.35,5.35,5.35
31.30,3.61,-1.73,3.61,-1.73,1.73,1.75,2.55,5.34,5.34,5.34
31.61,3.61,-1.73,3.61,-1.73,1.73,1.73,2.55,5.34,5.34,5.34
31.93,3.61,-1.72,3.61,-1.72,1.72,1.71,2.54,5.33,5.33,5.33
32.24,3.61,-1.72,3.61,-1.71,1.72,1.69,2.52,5.33,5.33,5.33
32.57,3.61,-1.70,3.61,-1.71,1.71,1.67,2.51,5.32,5.32,5.32
32.89,3.61,-1.70,3.61,-1.70,1.70,1.65,2.49,5.31,5.31,5.31
33.22,3.61,-1.70,3.61,-1.70,1.70,1.64,2.46,5.31,5.31,5.31
33.55,3.61,-1.69,3.61,-1.69,1.69,1.62,2.43,5.30,5.30,5.31
33.89,3.61,-1.68,3.61,-1.68,1.68,1.60,2.40,5.29,5.29,5.29
34.23,3.61,-1.67,3.61,-1.67,1.67,1.58,2.37,5.29,5.29,5.28
34.57,3.61,-1.67,3.61,-1.67,1.67,1.56,2.33,5.28,5.28,5.28
34.92,3.61,-1.65,3.61,-1.66,1.66,1.54,2.29,5.27,5.27,5.27
35.27,3.61,-1.66,3.61,-1.65,1.65,1.52,2.24,5.26,5.26,5.27
35.62,3.61,-1.63,3.61,-1.63,1.63,1.50,2.20,5.25,5.25,5.24
35.97,3.61,-1.62,3.61,-1.62,1.62,1.48,2.15,5.23,5.23,5.23
36.33,3.61,-1.61,3.61,-1.61,1.61,1.46,2.10,5.22,5.22,5.22
36.70,3.61,-1.59,3.61,-1.60,1.60,1.45,2.05,5.21,5.21,5.21
37.06,3.61,-1.58,3.61,-1.58,1.58,1.43,2.00,5.19,5.19,5.19
37.43,3.61,-1.57,3.61,-1.57,1.56,1.41,1.95,5.18,5.18,5.18
37.81,3.61,-1.55,3.61,-1.55,1.55,1.39,1.90,5.16,5.16,5.16
38.19,3.61,-1.53,3.61,-1.53,1.53,1.37,1.85,5.14,5.14,5.14
38.57,3.61,-1.51,3.61,-1.51,1.51,1.35,1.80,5.12,5.12,5.13
38.95,3.61,-1.49,3.61,-1.49,1.49,1.33,1.74,5.10,5.10,5.10
39.34,3.61,-1.46,3.61,-1.47,1.47,1.31,1.69,5.08,5.08,5.08
39.74,3.61,-1.45,3.61,-1.44,1.45,1.29,1.64,5.06,5.06,5.06
40.14,3.61,-1.42,3.61,-1.42,1.43,1.26,1.59,5.04,5.04,5.03
40.54,3.61,-1.41,3.61,-1.40,1.41,1.24,1.54,5.02,5.02,5.02
40.94,3.61,-1.38,3.61,-1.38,1.39,1.22,1.49,5.00,5.00,4.99
41.35,3.61,-1.36,3.61,-1.37,1.37,1.20,1.44,4.98,4.98,4.98
41.76,3.61,-1.35,3.61,-1.35,1.35,1.18,1.39,4.96,4.96,4.96
42.18,3.61,-1.33,3.61,-1.33,1.33,1.16,1.34,4.94,4.94,4.94
42.60,3.61,-1.31,3.61,-1.31,1.30,1.14,1.29,4.92,4.92,4.92
43.03,3.61,-1.28,3.61,-1.28,1.28,1.12,1.24,4.90,4.90,4.89
43.46,3.61,-1.26,3.61,-1.26,1.26,1.10,1.20,4.87,4.87,4.87
43.90,3.61,-1.23,3.61,-1.24,1.24,1.08,1.15,4.85,4.85,4.85
44.33,3.61,-1.22,3.61,-1.21,1.21,1.06,1.11,4.83,4.83,4.83
44.78,3.61,-1.19,3.61,-1.19,1.19,1.04,1.07,4.80,4.80,4.80
45.23,3.61,-1.17,3.61,-1.16,1.16,1.02,1.02,4.77,4.77,4.78
45.68,3.61,-1.13,3.61,-1.13,1.13,0.99,0.98,4.74,4.74,4.74
46.13,3.61,-1.09,3.61,-1.10,1.10,0.97,0.94,4.71,4.71,4.70
46.60,3.61,-1.06,3.61,-1.06,1.07,0.95,0.90,4.68,4.68,4.68
47.06,3.61,-1.03,3.61,-1.03,1.03,0.93,0.86,4.64,4.64,4.65
47.53,3.61,-1.00,3.61,-1.00,0.99,0.91,0.82,4.61,4.61,4.62
48.01,3.61,-0.95,3.61,-0.96,0.96,0.89,0.79,4.57,4.57,4.57
48.49,3.61,-0.92,3.61,-0.92,0.92,0.87,0.75,4.53,4.53,4.53
48.97,3.61,-0.88,3.61,-0.88,0.88,0.85,0.72,4.50,4.50,4.49
49.46,3.61,-0.85,3.61,-0.84,0.85,0.82,0.68,4.46,4.46,4.46
49.96,3.61,-0.80,3.61,-0.81,0.81,0.80,0.65,4.42,4.42,4.41
50.46,3.61,-0.78,3.61,-0.77,0.78,0.78,0.61,4.39,4.39,4.39
50.96,3.61,-0.74,3.61,-0.74,0.74,0.76,0.58,4.36,4.36,4.36
51.47,3.61,-0.71,3.61,-0.71,0.71,0.74,0.55,4.32,4.32,4.32
51.99,3.61,-0.68,3.61,-0.68,0.68,0.72,0.52,4.29,4.29,4.29
52.51,3.61,-0.64,3.61,-0.65,0.64,0.69,0.49,4.26,4.26,4.25
53.03,3.61,-0.62,3.61,-0.61,0.61,0.67,0.46,4.22,4.22,4.23
53.56,3.61,-0.57,3.61,-0.58,0.57,0.65,0.43,4.18,4.18,4.19
54.10,3.61,-0.54,3.61,-0.54,0.53,0.63,0.40,4.14,4.14,4.15
54.64,3.61,-0.50,3.61,-0.50,0.49,0.61,0.37,4.10,4.10,4.11
55.18,3.61,-0.46,3.62,-0.45,0.45,0.58,0.35,4.07,4.07,4.07
55.74,3.62,-0.41,3.62,-0.41,0.42,0.56,0.32,4.04,4.04,4.03
56.29,3.63,-0.38,3.63,-0.38,0.39,0.54,0.29,4.02,4.01,4.01
56.86,3.63,-0.35,3.63,-0.35,0.36,0.52,0.27,3.99,3.99,3.98
57.42,3.62,-0.32,3.62,-0.33,0.34,0.50,0.24,3.96,3.96,3.95
58.00,3.61,-0.30,3.61,-0.31,0.32,0.47,0.22,3.93,3.93,3.92
58.58,3.59,-0.31,3.59,-0.31,0.31,0.45,0.20,3.90,3.90,3.91
59.16,3.57,-0.30,3.57,-0.31,0.30,0.43,0.17,3.87,3.87,3.88
59.76,3.54,-0.30,3.54,-0.30,0.29,0.41,0.15,3.83,3.83,3.85
60.35,3.51,-0.29,3.51,-0.29,0.28,0.38,0.13,3.79,3.79,3.80
60.96,3.48,-0.28,3.48,-0.28,0.27,0.36,0.11,3.75,3.75,3.76
61.57,3.45,-0.26,3.45,-0.26,0.26,0.34,0.09,3.71,3.71,3.71
62.18,3.42,-0.24,3.42,-0.24,0.25,0.32,0.07,3.67,3.67,3.66
62.80,3.39,-0.23,3.39,-0.23,0.23,0.29,0.05,3.63,3.63,3.62
63.43,3.36,-0.21,3.36,-0.21,0.22,0.27,0.03,3.58,3.58,3.57
64.07,3.34,-0.20,3.34,-0.20,0.20,0.25,0.01,3.55,3.54,3.54
64.71,3.31,-0.19,3.31,-0.19,0.19,0.22,-0.01,3.50,3.50,3.50
65.35,3.29,-0.17,3.30,-0.17,0.17,0.20,-0.03,3.46,3.46,3.46
66.01,3.28,-0.14,3.28,-0.15,0.14,0.18,-0.05,3.42,3.42,3.43
66.67,3.27,-0.13,3.27,-0.12,0.11,0.16,-0.06,3.39,3.38,3.40
67.33,3.26,-0.09,3.26,-0.09,0.08,0.13,-0.08,3.34,3.34,3.35
68.01,3.26,-0.05,3.26,-0.04,0.04,0.11,-0.10,3.30,3.30,3.31
68.69,3.27,0.01,3.27,0.00,-0.00,0.09,-0.12,3.27,3.27,3.27
69.37,3.28,0.05,3.28,0.05,-0.05,0.06,-0.13,3.23,3.23,3.23
70.07,3.29,0.09,3.29,0.10,-0.10,0.04,-0.15,3.20,3.20,3.20
70.77,3.30,0.14,3.30,0.14,-0.14,0.01,-0.16,3.16,3.16,3.16
71.48,3.30,0.19,3.30,0.19,-0.18,-0.01,-0.18,3.12,3.12,3.11
72.19,3.30,0.23,3.30,0.23,-0.22,-0.03,-0.20,3.08,3.08,3.07
72.91,3.28,0.25,3.29,0.26,-0.25,-0.06,-0.21,3.03,3.04,3.03
73.64,3.27,0.29,3.27,0.28,-0.28,-0.08,-0.23,3.00,3.00,2.99
74.38,3.25,0.30,3.25,0.30,-0.29,-0.11,-0.25,2.96,2.96,2.95
75.12,3.22,0.30,3.22,0.31,-0.30,-0.13,-0.26,2.92,2.92,2.92
75.87,3.19,0.30,3.19,0.30,-0.31,-0.15,-0.28,2.88,2.89,2.89
76.63,3.16,0.30,3.16,0.30,-0.31,-0.18,-0.30,2.86,2.86,2.86
77.40,3.13,0.30,3.13,0.30,-0.30,-0.20,-0.31,2.83,2.83,2.83
78.17,3.10,0.31,3.10,0.30,-0.30,-0.23,-0.33,2.80,2.80,2.80
78.95,3.07,0.30,3.07,0.30,-0.30,-0.25,-0.35,2.78,2.78,2.77
79.74,3.04,0.29,3.04,0.30,-0.29,-0.28,-0.36,2.75,2.75,2.75
80.54,3.01,0.30,3.01,0.29,-0.30,-0.30,-0.38,2.71,2.72,2.72
81.35,2.99,0.30,2.99,0.30,-0.31,-0.33,-0.40,2.68,2.68,2.69
82.16,2.97,0.31,2.97,0.31,-0.32,-0.35,-0.42,2.65,2.65,2.67
82.98,2.96,0.33,2.96,0.33,-0.34,-0.38,-0.44,2.62,2.62,2.63
83.81,2.96,0.37,2.96,0.36,-0.37,-0.40,-0.46,2.59,2.59,2.59
84.65,2.96,0.40,2.96,0.40,-0.40,-0.43,-0.48,2.56,2.56,2.56
85.50,2.96,0.44,2.96,0.43,-0.43,-0.45,-0.50,2.53,2.54,2.53
86.35,2.96,0.47,2.96,0.47,-0.46,-0.47,-0.52,2.50,2.50,2.50
87.22,2.96,0.50,2.96,0.49,-0.49,-0.50,-0.54,2.48,2.47,2.47
88.09,2.94,0.52,2.94,0.51,-0.51,-0.52,-0.56,2.43,2.44,2.43
88.97,2.92,0.53,2.92,0.53,-0.53,-0.55,-0.59,2.40,2.40,2.40
89.86,2.90,0.55,2.90,0.54,-0.54,-0.57,-0.61,2.36,2.36,2.35
90.76,2.87,0.55,2.87,0.55,-0.55,-0.60,-0.63,2.32,2.33,2.32
91.66,2.84,0.55,2.84,0.55,-0.55,-0.62,-0.66,2.29,2.29,2.29
92.58,2.81,0.56,2.81,0.55,-0.56,-0.65,-0.68,2.25,2.25,2.26
93.51,2.78,0.56,2.78,0.56,-0.56,-0.67,-0.71,2.22,2.22,2.22
94.44,2.75,0.56,2.75,0.57,-0.57,-0.70,-0.73,2.18,2.18,2.19
95.39,2.72,0.58,2.72,0.58,-0.58,-0.72,-0.76,2.14,2.14,2.14
96.34,2.69,0.59,2.69,0.59,-0.59,-0.74,-0.78,2.10,2.10,2.10
97.30,2.66,0.60,2.67,0.60,-0.60,-0.77,-0.81,2.06,2.06,2.06
98.28,2.64,0.61,2.64,0.62,-0.62,-0.79,-0.83,2.02,2.02,2.03
99.26,2.63,0.65,2.63,0.64,-0.64,-0.81,-0.86,1.99,1.99,1.98
100.25,2.61,0.66,2.62,0.66,-0.67,-0.84,-0.89,1.95,1.95,1.95
101.25,2.61,0.68,2.61,0.69,-0.69,-0.86,-0.92,1.92,1.92,1.93
102.27,2.61,0.72,2.61,0.72,-0.72,-0.88,-0.94,1.89,1.89,1.90
103.29,2.62,0.76,2.62,0.76,-0.75,-0.91,-0.97,1.87,1.87,1.86
104.32,2.63,0.79,2.63,0.79,-0.79,-0.93,-1.00,1.85,1.84,1.84
105.37,2.63,0.83,2.63,0.82,-0.82,-0.95,-1.02,1.81,1.81,1.81
106.42,2.63,0.85,2.63,0.85,-0.85,-0.97,-1.05,1.78,1.78,1.78
107.48,2.63,0.89,2.63,0.89,-0.88,-0.99,-1.08,1.75,1.75,1.74
108.56,2.63,0.91,2.63,0.92,-0.92,-1.01,-1.10,1.72,1.72,1.72
109.64,2.63,0.95,2.63,0.95,-0.95,-1.03,-1.13,1.69,1.69,1.68
110.74,2.63,0.98,2.63,0.98,-0.98,-1.05,-1.15,1.65,1.65,1.66
111.85,2.63,1.01,2.63,1.01,-1.01,-1.07,-1.18,1.62,1.62,1.62
112.97,2.63,1.05,2.63,1.04,-1.05,-1.09,-1.20,1.58,1.58,1.58
114.10,2.63,1.07,2.63,1.08,-1.09,-1.11,-1.22,1.54,1.54,1.56
115.24,2.64,1.13,2.64,1.12,-1.13,-1.12,-1.24,1.51,1.51,1.51
116.39,2.64,1.17,2.65,1.17,-1.17,-1.14,-1.26,1.48,1.48,1.47
117.55,2.65,1.21,2.65,1.21,-1.20,-1.16,-1.28,1.45,1.45,1.45
118.73,2.65,1.25,2.65,1.25,-1.24,-1.17,-1.29,1.42,1.42,1.40
119.92,2.65,1.27,2.65,1.27,-1.27,-1.19,-1.31,1.38,1.39,1.38
121.12,2.65,1.30,2.65,1.30,-1.29,-1.21,-1.32,1.36,1.35,1.36
122.33,2.63,1.31,2.64,1.31,-1.32,-1.22,-1.33,1.32,1.32,1.32
123.55,2.62,1.33,2.62,1.33,-1.33,-1.23,-1.34,1.29,1.29,1.29
124.79,2.61,1.34,2.61,1.35,-1.35,-1.25,-1.35,1.26,1.26,1.27
126.03,2.59,1.36,2.59,1.36,-1.36,-1.26,-1.35,1.23,1.24,1.23
127.29,2.57,1.37,2.57,1.37,-1.36,-1.27,-1.36,1.21,1.20,1.20
128.57,2.53,1.36,2.53,1.37,-1.36,-1.28,-1.36,1.17,1.17,1.17
129.85,2.49,1.36,2.50,1.36,-1.36,-1.29,-1.36,1.13,1.14,1.13
131.15,2.45,1.36,2.45,1.35,-1.35,-1.30,-1.36,1.10,1.10,1.09
132.46,2.40,1.35,2.40,1.34,-1.34,-1.31,-1.35,1.07,1.06,1.06
133.79,2.34,1.32,2.35,1.33,-1.32,-1.32,-1.35,1.02,1.03,1.02
135.12,2.29,1.31,2.29,1.30,-1.31,-1.33,-1.34,0.99,0.99,0.98
136.48,2.24,1.27,2.24,1.28,-1.29,-1.34,-1.34,0.95,0.95,0.97
137.84,2.19,1.26,2.20,1.26,-1.28,-1.35,-1.33,0.92,0.92,0.94
139.22,2.15,1.26,2.16,1.26,-1.26,-1.35,-1.32,0.89,0.89,0.89
140.61,2.12,1.25,2.12,1.25,-1.25,-1.36,-1.31,0.87,0.87,0.87
142.02,2.08,1.25,2.08,1.25,-1.24,-1.36,-1.30,0.84,0.84,0.84
143.44,2.04,1.24,2.05,1.23,-1.23,-1.37,-1.29,0.81,0.82,0.81
144.87,2.01,1.22,2.01,1.22,-1.22,-1.37,-1.28,0.80,0.79,0.80
146.32,1.97,1.21,1.98,1.21,-1.21,-1.37,-1.26,0.77,0.77,0.77
147.78,1.94,1.20,1.94,1.19,-1.19,-1.38,-1.25,0.75,0.75,0.75
149.26,1.90,1.18,1.90,1.18,-1.18,-1.38,-1.24,0.72,0.72,0.72
150.75,1.86,1.17,1.87,1.17,-1.17,-1.38,-1.23,0.69,0.69,0.69
152.26,1.83,1.16,1.83,1.16,-1.16,-1.38,-1.21,0.67,0.67,0.68
153.78,1.80,1.15,1.80,1.15,-1.16,-1.38,-1.20,0.64,0.64,0.65
155.32,1.78,1.16,1.78,1.16,-1.16,-1.38,-1.19,0.62,0.62,0.63
156.88,1.76,1.16,1.76,1.16,-1.16,-1.38,-1.18,0.60,0.60,0.60
158.44,1.74,1.17,1.74,1.17,-1.17,-1.38,-1.17,0.57,0.57,0.57
160.03,1.72,1.18,1.72,1.18,-1.18,-1.37,-1.16,0.54,0.54,0.55
161.63,1.70,1.19,1.70,1.19,-1.19,-1.37,-1.15,0.51,0.51,0.51
163.24,1.68,1.21,1.68,1.20,-1.20,-1.37,-1.14,0.48,0.48,0.47
164.88,1.66,1.22,1.66,1.22,-1.22,-1.36,-1.13,0.45,0.45,0.44
166.53,1.64,1.23,1.64,1.23,-1.23,-1.36,-1.12,0.41,0.41,0.41
168.19,1.62,1.24,1.62,1.24,-1.25,-1.36,-1.12,0.37,0.38,0.39
169.87,1.61,1.26,1.61,1.26,-1.26,-1.35,-1.11,0.35,0.35,0.35
171.57,1.59,1.27,1.60,1.28,-1.28,-1.34,-1.10,0.31,0.32,0.32
173.29,1.58,1.30,1.58,1.30,-1.29,-1.34,-1.10,0.29,0.29,0.29
175.02,1.56,1.31,1.56,1.31,-1.30,-1.33,-1.10,0.26,0.26,0.25
176.77,1.53,1.32,1.53,1.32,-1.31,-1.32,-1.09,0.23,0.23,0.22
178.54,1.50,1.31,1.50,1.32,-1.31,-1.32,-1.09,0.19,0.19,0.19
180.32,1.46,1.31,1.46,1.31,-1.31,-1.31,-1.09,0.16,0.16,0.15
182.13,1.42,1.31,1.42,1.30,-1.30,-1.30,-1.09,0.12,0.12,0.12
183.95,1.37,1.29,1.37,1.29,-1.29,-1.29,-1.09,0.08,0.08,0.08
185.79,1.32,1.28,1.33,1.28,-1.29,-1.28,-1.10,0.04,0.04,0.04
187.65,1.28,1.27,1.28,1.27,-1.28,-1.27,-1.10,0.00,0.00,0.01
189.52,1.24,1.27,1.24,1.27,-1.28,-1.26,-1.10,-0.03,-0.03,-0.03
191.42,1.21,1.27,1.21,1.27,-1.27,-1.25,-1.11,-0.06,-0.06,-0.06
193.33,1.17,1.26,1.18,1.27,-1.27,-1.24,-1.11,-0.10,-0.09,-0.09
195.27,1.14,1.27,1.14,1.27,-1.26,-1.23,-1.12,-0.12,-0.12,-0.13
197.22,1.11,1.28,1.11,1.27,-1.26,-1.21,-1.12,-0.14,-0.15,-0.16
199.19,1.07,1.25,1.07,1.26,-1.25,-1.20,-1.13,-0.17,-0.17,-0.18
201.18,1.03,1.25,1.03,1.24,-1.24,-1.19,-1.14,-0.20,-0.21,-0.22
203.19,0.98,1.21,0.99,1.22,-1.22,-1.18,-1.14,-0.24,-0.24,-0.23
205.23,0.94,1.20,0.95,1.20,-1.21,-1.16,-1.15,-0.27,-0.27,-0.26
207.28,0.91,1.19,0.91,1.19,-1.20,-1.15,-1.16,-0.29,-0.29,-0.27
209.35,0.87,1.18,0.88,1.18,-1.18,-1.14,-1.17,-0.31,-0.31,-0.31
211.44,0.84,1.17,0.84,1.17,-1.17,-1.12,-1.18,-0.33,-0.33,-0.33
213.56,0.81,1.16,0.81,1.16,-1.15,-1.11,-1.18,-0.34,-0.35,-0.35
215.69,0.77,1.14,0.77,1.14,-1.14,-1.10,-1.19,-0.36,-0.36,-0.37
217.85,0.73,1.12,0.73,1.12,-1.12,-1.08,-1.20,-0.39,-0.38,-0.39
220.03,0.69,1.11,0.69,1.10,-1.10,-1.07,-1.21,-0.40,-0.41,-0.41
222.23,0.64,1.08,0.64,1.08,-1.07,-1.05,-1.21,-0.43,-0.43,-0.44
224.45,0.59,1.05,0.60,1.05,-1.05,-1.04,-1.22,-0.46,-0.46,-0.46
226.70,0.55,1.02,0.55,1.02,-1.03,-1.02,-1.22,-0.48,-0.48,-0.47
228.96,0.51,0.99,0.51,1.00,-1.01,-1.01,-1.22,-0.50,-0.50,-0.48
231.25,0.48,0.98,0.48,0.98,-0.99,-0.99,-1.22,-0.51,-0.50,-0.50
233.57,0.46,0.97,0.46,0.98,-0.97,-0.97,-1.22,-0.51,-0.51,-0.51
235.90,0.44,0.97,0.44,0.97,-0.95,-0.96,-1.22,-0.51,-0.51,-0.53
238.26,0.42,0.96,0.42,0.95,-0.94,-0.94,-1.22,-0.52,-0.52,-0.54
240.64,0.39,0.92,0.39,0.93,-0.93,-0.93,-1.21,-0.54,-0.53,-0.53
243.05,0.37,0.91,0.37,0.91,-0.92,-0.91,-1.21,-0.55,-0.55,-0.54
245.48,0.35,0.91,0.35,0.90,-0.91,-0.89,-1.20,-0.56,-0.56,-0.56
247.93,0.34,0.91,0.34,0.90,-0.91,-0.87,-1.19,-0.56,-0.56,-0.56
250.41,0.34,0.89,0.34,0.90,-0.90,-0.86,-1.18,-0.56,-0.56,-0.55
252.92,0.34,0.89,0.35,0.90,-0.90,-0.84,-1.16,-0.56,-0.56,-0.55
255.45,0.35,0.91,0.35,0.90,-0.90,-0.82,-1.14,-0.55,-0.55,-0.56
258.00,0.36,0.92,0.36,0.91,-0.91,-0.80,-1.13,-0.55,-0.55,-0.55
260.58,0.36,0.92,0.36,0.92,-0.91,-0.79,-1.10,-0.55,-0.55,-0.56
263.19,0.36,0.92,0.36,0.92,-0.92,-0.77,-1.08,-0.56,-0.55,-0.56
265.82,0.36,0.92,0.36,0.92,-0.92,-0.75,-1.06,-0.56,-0.56,-0.56
268.48,0.36,0.92,0.36,0.92,-0.93,-0.73,-1.03,-0.57,-0.57,-0.56
271.16,0.36,0.93,0.36,0.93,-0.94,-0.71,-1.00,-0.57,-0.57,-0.56
273.87,0.37,0.93,0.37,0.93,-0.94,-0.70,-0.97,-0.57,-0.57,-0.56
276.61,0.37,0.94,0.38,0.94,-0.94,-0.68,-0.94,-0.57,-0.57,-0.57
279.38,0.38,0.96,0.38,0.95,-0.95,-0.66,-0.91,-0.56,-0.57,-0.58
282.17,0.38,0.95,0.38,0.95,-0.95,-0.64,-0.88,-0.56,-0.56,-0.57
284.99,0.38,0.94,0.38,0.95,-0.94,-0.62,-0.84,-0.56,-0.56,-0.56
287.84,0.37,0.93,0.37,0.94,-0.93,-0.60,-0.80,-0.56,-0.56,-0.56
290.72,0.36,0.93,0.36,0.92,-0.92,-0.58,-0.77,-0.56,-0.56,-0.57
293.63,0.34,0.91,0.34,0.90,-0.90,-0.56,-0.73,-0.56,-0.55,-0.56
296.57,0.32,0.87,0.32,0.88,-0.87,-0.54,-0.69,-0.55,-0.55,-0.55
299.53,0.29,0.85,0.29,0.84,-0.85,-0.52,-0.65,-0.55,-0.55,-0.55
302.53,0.26,0.81,0.26,0.81,-0.82,-0.50,-0.61,-0.55,-0.55,-0.55
305.55,0.23,0.77,0.24,0.78,-0.79,-0.48,-0.57,-0.55,-0.55,-0.54
308.61,0.21,0.75,0.21,0.75,-0.75,-0.46,-0.53,-0.54,-0.54,-0.53
311.69,0.19,0.72,0.19,0.72,-0.71,-0.44,-0.49,-0.52,-0.52,-0.53
314.81,0.16,0.68,0.16,0.68,-0.68,-0.42,-0.45,-0.51,-0.51,-0.52
317.96,0.13,0.65,0.13,0.65,-0.64,-0.40,-0.40,-0.50,-0.51,-0.51
321.14,0.09,0.60,0.09,0.60,-0.60,-0.38,-0.36,-0.51,-0.51,-0.51
324.35,0.05,0.56,0.05,0.55,-0.56,-0.36,-0.32,-0.51,-0.51,-0.51
327.59,0.01,0.50,0.01,0.51,-0.52,-0.33,-0.28,-0.51,-0.51,-0.48
330.87,-0.02,0.47,-0.02,0.47,-0.48,-0.31,-0.23,-0.50,-0.50,-0.49
334.18,-0.05,0.44,-0.04,0.44,-0.44,-0.29,-0.19,-0.49,-0.49,-0.49
337.52,-0.07,0.40,-0.07,0.41,-0.41,-0.27,-0.15,-0.47,-0.47,-0.47
340.90,-0.09,0.38,-0.09,0.38,-0.37,-0.24,-0.10,-0.46,-0.46,-0.46
344.30,-0.12,0.34,-0.12,0.34,-0.33,-0.22,-0.06,-0.45,-0.45,-0.46
347.75,-0.15,0.30,-0.15,0.30,-0.29,-0.20,-0.02,-0.44,-0.44,-0.45
351.23,-0.19,0.25,-0.19,0.25,-0.25,-0.17,0.02,-0.43,-0.43,-0.44
354.74,-0.23,0.20,-0.23,0.20,-0.20,-0.15,0.07,-0.42,-0.43,-0.42
358.28,-0.28,0.15,-0.28,0.15,-0.15,-0.12,0.11,-0.42,-0.42,-0.43
361.87,-0.33,0.10,-0.32,0.10,-0.09,-0.10,0.15,-0.42,-0.42,-0.43
365.49,-0.37,0.04,-0.37,0.04,-0.04,-0.07,0.20,-0.41,-0.42,-0.41
369.14,-0.42,-0.02,-0.42,-0.01,0.00,-0.04,0.24,-0.42,-0.41,-0.40
372.83,-0.46,-0.06,-0.46,-0.06,0.04,-0.01,0.29,-0.41,-0.41,-0.39
376.56,-0.49,-0.09,-0.49,-0.09,0.08,0.01,0.33,-0.41,-0.40,-0.40
380.33,-0.51,-0.12,-0.51,-0.12,0.12,0.04,0.37,-0.39,-0.39,-0.39
384.13,-0.52,-0.14,-0.52,-0.14,0.15,0.07,0.42,-0.37,-0.37,-0.38
387.97,-0.54,-0.17,-0.54,-0.17,0.18,0.10,0.46,-0.36,-0.36,-0.37
391.85,-0.56,-0.21,-0.56,-0.20,0.21,0.13,0.50,-0.35,-0.35,-0.35
395.77,-0.58,-0.22,-0.58,-0.23,0.23,0.17,0.55,-0.34,-0.35,-0.35
399.73,-0.61,-0.26,-0.60,-0.26,0.26,0.20,0.59,-0.35,-0.34,-0.34
403.72,-0.63,-0.30,-0.63,-0.30,0.29,0.23,0.63,-0.34,-0.34,-0.33
407.76,-0.65,-0.33,-0.65,-0.33,0.32,0.27,0.67,-0.32,-0.33,-0.32
411.84,-0.67,-0.36,-0.67,-0.36,0.36,0.30,0.71,-0.31,-0.31,-0.31
415.96,-0.69,-0.39,-0.69,-0.38,0.39,0.33,0.75,-0.30,-0.30,-0.30
420.12,-0.71,-0.41,-0.71,-0.41,0.42,0.37,0.80,-0.28,-0.29,-0.30
424.32,-0.74,-0.45,-0.74,-0.45,0.46,0.40,0.83,-0.28,-0.28,-0.29
428.56,-0.77,-0.49,-0.77,-0.49,0.49,0.43,0.87,-0.28,-0.27,-0.27
432.85,-0.80,-0.54,-0.80,-0.53,0.53,0.46,0.91,-0.27,-0.27,-0.25
437.18,-0.83,-0.56,-0.83,-0.57,0.57,0.49,0.95,-0.26,-0.26,-0.27
441.55,-0.86,-0.60,-0.86,-0.60,0.60,0.52,0.98,-0.26,-0.25,-0.26
445.96,-0.88,-0.63,-0.88,-0.63,0.64,0.54,1.02,-0.24,-0.25,-0.25
450.42,-0.91,-0.67,-0.91,-0.67,0.67,0.57,1.05,-0.24,-0.24,-0.24
454.93,-0.93,-0.70,-0.92,-0.70,0.69,0.59,1.08,-0.23,-0.23,-0.23
459.48,-0.94,-0.72,-0.94,-0.72,0.72,0.61,1.11,-0.22,-0.22,-0.22
464.07,-0.95,-0.75,-0.95,-0.74,0.73,0.63,1.13,-0.21,-0.21,-0.20
468.71,-0.96,-0.76,-0.95,-0.75,0.75,0.66,1.16,-0.21,-0.20,-0.20
473.40,-0.95,-0.76,-0.95,-0.76,0.76,0.68,1.18,-0.19,-0.19,-0.19
478.13,-0.95,-0.76,-0.95,-0.76,0.77,0.70,1.20,-0.18,-0.18,-0.18
482.91,-0.94,-0.76,-0.94,-0.77,0.77,0.72,1.22,-0.17,-0.17,-0.17
487.74,-0.94,-0.77,-0.94,-0.77,0.77,0.75,1.23,-0.17,-0.16,-0.16
492.62,-0.93,-0.77,-0.93,-0.77,0.77,0.77,1.24,-0.15,-0.16,-0.15
497.55,-0.93,-0.78,-0.92,-0.78,0.78,0.80,1.25,-0.15,-0.15,-0.15
502.52,-0.92,-0.78,-0.92,-0.78,0.78,0.82,1.26,-0.13,-0.13,-0.14
507.55,-0.91,-0.79,-0.91,-0.79,0.79,0.85,1.26,-0.11,-0.12,-0.12
512.62,-0.91,-0.80,-0.91,-0.80,0.81,0.88,1.27,-0.10,-0.10,-0.11
517.75,-0.91,-0.82,-0.91,-0.82,0.82,0.91,1.27,-0.09,-0.09,-0.09
522.93,-0.92,-0.84,-0.92,-0.84,0.84,0.94,1.26,-0.07,-0.08,-0.08
