frequency,raw,error,smoothed,error_smoothed,equalization,parametric_eq,fixed_band_eq,equalized_raw,equalized_smoothed,target
20.00,6.85,-1.64,6.85,-1.63,1.63,0.94,-0.04,8.48,8.48,8.48
20.20,6.90,-1.57,6.90,-1.57,1.57,0.93,-0.04,8.47,8.47,8.46
20.40,6.94,-1.51,6.94,-1.51,1.51,0.93,-0.04,8.45,8.45,8.45
20.61,6.99,-1.46,6.99,-1.45,1.45,0.92,-0.04,8.44,8.44,8.44
20.81,7.04,-1.38,7.03,-1.39,1.39,0.90,-0.04,8.43,8.42,8.42
21.02,7.08,-1.33,7.08,-1.33,1.33,0.88,-0.04,8.41,8.41,8.41
21.23,7.13,-1.27,7.13,-1.27,1.27,0.85,-0.04,8.40,8.40,8.40
21.44,7.18,-1.21,7.18,-1.21,1.21,0.82,-0.04,8.39,8.39,8.39
21.66,7.23,-1.15,7.23,-1.15,1.15,0.79,-0.04,8.38,8.38,8.38
21.87,7.28,-1.09,7.28,-1.09,1.10,0.75,-0.04,8.38,8.38,8.37
22.09,7.33,-1.04,7.33,-1.04,1.04,0.72,-0.04,8.37,8.37,8.37
22.31,7.38,-0.98,7.38,-0.98,0.98,0.68,-0.04,8.36,8.36,8.36
22.54,7.43,-0.93,7.43,-0.93,0.93,0.64,-0.04,8.36,8.36,8.36
22.76,7.48,-0.87,7.48,-0.88,0.87,0.60,-0.04,8.35,8.35,8.35
22.99,7.53,-0.83,7.53,-0.82,0.82,0.56,-0.04,8.35,8.35,8.36
23.22,7.58,-0.77,7.58,-0.77,0.77,0.52,-0.04,8.35,8.35,8.35
23.45,7.64,-0.71,7.63,-0.72,0.72,0.48,-0.04,8.36,8.35,8.35
23.69,7.69,-0.67,7.69,-0.66,0.66,0.44,-0.04,8.35,8.35,8.36
23.92,7.74,-0.62,7.74,-0.62,0.61,0.40,-0.04,8.35,8.35,8.36
24.16,7.79,-0.58,7.79,-0.57,0.57,0.36,-0.04,8.36,8.35,8.36
24.40,7.84,-0.53,7.84,-0.53,0.53,0.33,-0.04,8.36,8.36,8.36
24.65,7.88,-0.49,7.88,-0.48,0.49,0.29,-0.04,8.37,8.38,8.36
24.89,7.93,-0.43,7.92,-0.44,0.46,0.26,-0.04,8.39,8.39,8.36
25.14,7.96,-0.40,7.95,-0.41,0.43,0.22,-0.04,8.39,8.39,8.36
25.39,7.97,-0.39,7.97,-0.40,0.40,0.19,-0.04,8.37,8.37,8.36
25.65,7.98,-0.39,7.98,-0.39,0.37,0.16,-0.04,8.35,8.35,8.37
25.91,7.99,-0.38,8.00,-0.37,0.33,0.13,-0.04,8.32,8.33,8.37
26.16,8.03,-0.34,8.03,-0.33,0.30,0.10,-0.04,8.33,8.33,8.37
26.43,8.09,-0.27,8.09,-0.27,0.27,0.08,-0.04,8.36,8.36,8.36
26.69,8.15,-0.21,8.15,-0.21,0.24,0.05,-0.04,8.39,8.39,8.36
26.96,8.21,-0.15,8.19,-0.16,0.20,0.02,-0.04,8.41,8.40,8.36
27.23,8.22,-0.14,8.22,-0.13,0.17,-0.00,-0.05,8.39,8.39,8.35
27.50,8.22,-0.13,8.22,-0.13,0.13,-0.03,-0.05,8.35,8.35,8.34
27.77,8.22,-0.11,8.22,-0.11,0.09,-0.05,-0.05,8.31,8.31,8.33
28.05,8.23,-0.10,8.24,-0.08,0.05,-0.07,-0.05,8.27,8.29,8.33
28.33,8.30,-0.02,8.29,-0.03,-0.00,-0.10,-0.06,8.30,8.29,8.32
28.62,8.36,0.04,8.36,0.04,-0.06,-0.12,-0.06,8.30,8.30,8.32
28.90,8.43,0.12,8.43,0.12,-0.12,-0.14,-0.07,8.31,8.31,8.31
29.19,8.49,0.19,8.49,0.19,-0.18,-0.16,-0.07,8.31,8.31,8.30
29.48,8.55,0.25,8.55,0.26,-0.24,-0.18,-0.08,8.30,8.31,8.29
29.78,8.61,0.33,8.60,0.32,-0.30,-0.20,-0.09,8.31,8.31,8.28
30.08,8.65,0.38,8.64,0.36,-0.34,-0.22,-0.10,8.31,8.30,8.27
30.38,8.66,0.39,8.66,0.39,-0.37,-0.24,-0.10,8.29,8.29,8.27
30.68,8.66,0.40,8.67,0.41,-0.40,-0.26,-0.11,8.26,8.27,8.26
30.99,8.67,0.42,8.67,0.42,-0.42,-0.28,-0.12,8.25,8.25,8.25
31.30,8.67,0.43,8.66,0.42,-0.44,-0.30,-0.14,8.23,8.22,8.23
31.61,8.67,0.44,8.67,0.43,-0.47,-0.32,-0.15,8.20,8.19,8.23
31.93,8.67,0.44,8.68,0.46,-0.50,-0.34,-0.16,8.16,8.18,8.23
32.24,8.73,0.51,8.73,0.51,-0.54,-0.36,-0.17,8.19,8.19,8.22
32.57,8.80,0.58,8.80,0.58,-0.57,-0.37,-0.19,8.22,8.23,8.22
32.89,8.88,0.67,8.86,0.65,-0.60,-0.39,-0.20,8.28,8.26,8.21
33.22,8.90,0.69,8.89,0.68,-0.63,-0.41,-0.22,8.27,8.27,8.21
33.55,8.90,0.68,8.91,0.69,-0.65,-0.43,-0.24,8.25,8.26,8.22
33.89,8.90,0.67,8.90,0.68,-0.67,-0.45,-0.25,8.23,8.23,8.23
34.23,8.90,0.68,8.89,0.67,-0.69,-0.47,-0.27,8.21,8.20,8.22
34.57,8.90,0.67,8.89,0.67,-0.71,-0.49,-0.29,8.18,8.18,8.23
34.92,8.90,0.67,8.91,0.68,-0.74,-0.50,-0.31,8.16,8.18,8.23
35.27,8.96,0.72,8.97,0.74,-0.76,-0.52,-0.33,8.20,8.21,8.23
35.62,9.04,0.81,9.04,0.80,-0.79,-0.54,-0.36,8.25,8.25,8.23
35.97,9.12,0.89,9.10,0.87,-0.82,-0.56,-0.38,8.30,8.28,8.23
36.33,9.13,0.90,9.13,0.90,-0.85,-0.58,-0.40,8.28,8.28,8.22
36.70,9.13,0.91,9.14,0.91,-0.88,-0.60,-0.42,8.25,8.25,8.22
37.06,9.13,0.91,9.13,0.91,-0.92,-0.62,-0.45,8.21,8.21,8.22
37.43,9.13,0.91,9.12,0.91,-0.96,-0.64,-0.47,8.17,8.16,8.21
37.81,9.13,0.93,9.14,0.94,-1.00,-0.66,-0.50,8.13,8.14,8.20
38.19,9.17,0.98,9.19,1.00,-1.04,-0.68,-0.53,8.13,8.15,8.19
38.57,9.26,1.09,9.26,1.09,-1.08,-0.70,-0.55,8.18,8.18,8.17
38.95,9.35,1.19,9.32,1.16,-1.13,-0.72,-0.58,8.22,8.19,8.16
39.34,9.36,1.22,9.36,1.22,-1.17,-0.74,-0.61,8.18,8.19,8.14
39.74,9.36,1.23,9.37,1.24,-1.22,-0.76,-0.64,8.14,8.15,8.13
40.14,9.36,1.26,9.36,1.25,-1.25,-0.78,-0.67,8.11,8.11,8.10
40.54,9.36,1.26,9.36,1.26,-1.27,-0.80,-0.70,8.09,8.09,8.10
40.94,9.36,1.28,9.36,1.28,-1.28,-0.82,-0.73,8.08,8.08,8.08
41.35,9.36,1.28,9.36,1.28,-1.28,-0.84,-0.76,8.08,8.08,8.08
41.76,9.36,1.29,9.36,1.29,-1.28,-0.86,-0.79,8.08,8.08,8.07
42.18,9.36,1.29,9.36,1.29,-1.28,-0.89,-0.83,8.08,8.08,8.06
42.60,9.36,1.30,9.36,1.30,-1.30,-0.91,-0.86,8.06,8.06,8.06
43.03,9.36,1.31,9.35,1.30,-1.32,-0.93,-0.90,8.04,8.03,8.05
43.46,9.36,1.31,9.35,1.30,-1.35,-0.95,-0.93,8.01,8.01,8.04
43.90,9.36,1.31,9.38,1.34,-1.38,-0.98,-0.97,7.98,8.00,8.05
44.33,9.43,1.39,9.44,1.40,-1.42,-1.00,-1.00,8.01,8.03,8.04
44.78,9.53,1.50,9.51,1.47,-1.45,-1.03,-1.04,8.08,8.06,8.03
45.23,9.58,1.54,9.56,1.53,-1.49,-1.05,-1.08,8.09,8.08,8.03
45.68,9.58,1.55,9.59,1.56,-1.52,-1.08,-1.12,8.06,8.06,8.03
46.13,9.58,1.56,9.58,1.56,-1.55,-1.10,-1.16,8.03,8.03,8.02
46.60,9.58,1.57,9.58,1.57,-1.57,-1.13,-1.20,8.01,8.01,8.01
47.06,9.58,1.57,9.58,1.57,-1.59,-1.15,-1.24,7.99,7.99,8.01
47.53,9.58,1.58,9.58,1.58,-1.59,-1.18,-1.28,7.98,7.98,8.00
48.01,9.58,1.59,9.58,1.59,-1.60,-1.21,-1.32,7.98,7.98,7.99
48.49,9.58,1.61,9.58,1.60,-1.60,-1.24,-1.36,7.98,7.98,7.97
48.97,9.58,1.62,9.58,1.61,-1.61,-1.26,-1.41,7.97,7.97,7.96
49.46,9.58,1.62,9.58,1.62,-1.62,-1.29,-1.45,7.96,7.96,7.96
49.96,9.58,1.63,9.58,1.63,-1.63,-1.32,-1.49,7.95,7.95,7.95
50.46,9.58,1.64,9.58,1.64,-1.64,-1.35,-1.54,7.94,7.94,7.94
50.96,9.58,1.66,9.58,1.65,-1.65,-1.38,-1.58,7.93,7.93,7.92
51.47,9.58,1.66,9.58,1.66,-1.66,-1.41,-1.63,7.92,7.92,7.92
51.99,9.58,1.67,9.58,1.67,-1.67,-1.44,-1.67,7.90,7.90,7.91
52.51,9.58,1.68,9.58,1.68,-1.69,-1.47,-1.72,7.89,7.89,7.89
53.03,9.58,1.70,9.58,1.70,-1.70,-1.50,-1.76,7.87,7.87,7.88
53.56,9.58,1.72,9.58,1.72,-1.72,-1.53,-1.81,7.86,7.86,7.86
54.10,9.58,1.74,9.58,1.74,-1.74,-1.56,-1.85,7.84,7.84,7.84
54.64,9.58,1.75,9.58,1.76,-1.75,-1.60,-1.90,7.83,7.83,7.82
55.18,9.58,1.78,9.58,1.77,-1.77,-1.63,-1.94,7.81,7.81,7.80
55.74,9.58,1.79,9.58,1.79,-1.79,-1.66,-1.98,7.79,7.79,7.79
56.29,9.58,1.80,9.58,1.80,-1.81,-1.70,-2.02,7.77,7.77,7.77
56.86,9.58,1.82,9.58,1.82,-1.82,-1.73,-2.06,7.76,7.76,7.76
57.42,9.58,1.84,9.58,1.84,-1.84,-1.76,-2.10,7.74,7.74,7.74
58.00,9.58,1.86,9.58,1.86,-1.86,-1.80,-2.14,7.72,7.72,7.72
58.58,9.58,1.88,9.58,1.88,-1.88,-1.83,-2.17,7.70,7.70,7.70
59.16,9.58,1.90,9.58,1.90,-1.90,-1.87,-2.21,7.68,7.68,7.68
59.76,9.58,1.92,9.58,1.92,-1.92,-1.90,-2.24,7.66,7.66,7.66
60.35,9.58,1.94,9.58,1.94,-1.94,-1.93,-2.27,7.64,7.64,7.64
60.96,9.58,1.96,9.58,1.96,-1.96,-1.97,-2.30,7.62,7.62,7.62
61.57,9.58,1.98,9.58,1.98,-1.98,-2.00,-2.33,7.60,7.60,7.60
62.18,9.58,2.00,9.58,2.00,-2.00,-2.04,-2.35,7.58,7.58,7.58
62.80,9.58,2.02,9.58,2.02,-2.03,-2.07,-2.37,7.55,7.55,7.55
63.43,9.58,2.05,9.58,2.05,-2.05,-2.11,-2.39,7.52,7.52,7.53
64.07,9.58,2.08,9.58,2.08,-2.08,-2.15,-2.41,7.49,7.49,7.49
64.71,9.58,2.11,9.58,2.11,-2.11,-2.18,-2.43,7.46,7.46,7.47
65.35,9.58,2.15,9.58,2.15,-2.15,-2.22,-2.45,7.43,7.43,7.43
66.01,9.58,2.19,9.58,2.18,-2.18,-2.25,-2.46,7.40,7.40,7.39
66.67,9.58,2.22,9.58,2.22,-2.22,-2.28,-2.47,7.36,7.36,7.36
67.33,9.58,2.26,9.58,2.25,-2.25,-2.32,-2.48,7.33,7.33,7.32
68.01,9.58,2.29,9.58,2.29,-2.29,-2.35,-2.49,7.29,7.29,7.29
68.69,9.58,2.32,9.58,2.32,-2.32,-2.39,-2.50,7.26,7.26,7.26
69.37,9.58,2.36,9.58,2.36,-2.36,-2.42,-2.51,7.22,7.22,7.22
70.07,9.58,2.39,9.58,2.40,-2.40,-2.46,-2.52,7.18,7.18,7.19
70.77,9.58,2.44,9.58,2.43,-2.44,-2.49,-2.52,7.14,7.14,7.14
71.48,9.58,2.47,9.58,2.47,-2.48,-2.52,-2.53,7.10,7.10,7.11
72.19,9.58,2.51,9.58,2.51,-2.52,-2.55,-2.54,7.05,7.05,7.07
72.91,9.58,2.55,9.58,2.55,-2.56,-2.59,-2.54,7.02,7.02,7.03
73.64,9.58,2.59,9.58,2.59,-2.59,-2.62,-2.55,6.99,6.99,6.99
74.38,9.58,2.63,9.59,2.64,-2.61,-2.65,-2.56,6.97,6.98,6.95
75.12,9.58,2.67,9.58,2.67,-2.62,-2.68,-2.57,6.95,6.96,6.91
75.87,9.58,2.71,9.54,2.67,-2.63,-2.71,-2.57,6.95,6.91,6.87
76.63,9.47,2.64,9.48,2.64,-2.64,-2.74,-2.58,6.83,6.84,6.83
77.40,9.39,2.59,9.41,2.61,-2.64,-2.77,-2.60,6.75,6.77,6.80
78.17,9.36,2.60,9.36,2.60,-2.65,-2.80,-2.61,6.71,6.71,6.76
78.95,9.36,2.64,9.35,2.63,-2.66,-2.83,-2.62,6.70,6.69,6.72
79.74,9.36,2.68,9.36,2.67,-2.68,-2.86,-2.64,6.68,6.68,6.68
80.54,9.36,2.71,9.36,2.71,-2.70,-2.88,-2.66,6.65,6.65,6.64
81.35,9.36,2.75,9.36,2.75,-2.74,-2.91,-2.68,6.61,6.61,6.61
82.16,9.36,2.80,9.36,2.80,-2.80,-2.94,-2.70,6.56,6.56,6.56
82.98,9.36,2.84,9.36,2.84,-2.85,-2.97,-2.72,6.50,6.50,6.51
83.81,9.36,2.89,9.36,2.89,-2.91,-2.99,-2.75,6.45,6.45,6.47
84.65,9.36,2.94,9.36,2.94,-2.95,-3.02,-2.78,6.41,6.41,6.42
85.50,9.36,3.00,9.36,3.00,-2.98,-3.04,-2.81,6.38,6.38,6.36
86.35,9.36,3.05,9.37,3.06,-3.01,-3.07,-2.84,6.35,6.36,6.31
87.22,9.35,3.10,9.33,3.08,-3.03,-3.09,-2.87,6.32,6.29,6.25
88.09,9.29,3.09,9.26,3.06,-3.06,-3.12,-2.91,6.23,6.20,6.20
88.97,9.14,3.01,9.19,3.05,-3.08,-3.14,-2.95,6.06,6.11,6.13
89.86,9.13,3.05,9.13,3.05,-3.10,-3.17,-2.99,6.02,6.03,6.08
90.76,9.13,3.11,9.11,3.10,-3.14,-3.19,-3.03,5.99,5.98,6.02
91.66,9.13,3.16,9.13,3.17,-3.18,-3.22,-3.08,5.95,5.95,5.96
92.58,9.13,3.23,9.13,3.23,-3.23,-3.24,-3.12,5.90,5.90,5.90
93.51,9.13,3.28,9.13,3.29,-3.29,-3.27,-3.17,5.84,5.84,5.84
94.44,9.13,3.35,9.13,3.35,-3.34,-3.29,-3.23,5.79,5.79,5.78
95.39,9.13,3.41,9.13,3.41,-3.39,-3.32,-3.28,5.74,5.75,5.72
96.34,9.13,3.46,9.14,3.47,-3.43,-3.34,-3.34,5.70,5.71,5.67
97.30,9.13,3.52,9.11,3.50,-3.46,-3.36,-3.39,5.67,5.65,5.61
98.28,9.08,3.54,9.04,3.50,-3.49,-3.39,-3.45,5.59,5.55,5.54
99.26,8.93,3.44,8.97,3.48,-3.52,-3.41,-3.51,5.41,5.45,5.49
100.25,8.90,3.47,8.91,3.49,-3.55,-3.44,-3.58,5.35,5.36,5.43
101.25,8.90,3.54,8.89,3.52,-3.57,-3.46,-3.64,5.32,5.31,5.36
102.27,8.90,3.59,8.90,3.60,-3.59,-3.49,-3.70,5.30,5.31,5.30
103.29,8.90,3.66,8.91,3.67,-3.61,-3.51,-3.77,5.29,5.30,5.24
104.32,8.90,3.72,8.88,3.70,-3.64,-3.54,-3.83,5.26,5.24,5.18
105.37,8.84,3.72,8.81,3.69,-3.67,-3.56,-3.90,5.17,5.15,5.12
106.42,8.71,3.65,8.74,3.68,-3.70,-3.59,-3.96,5.01,5.04,5.06
107.48,8.67,3.66,8.68,3.68,-3.73,-3.61,-4.03,4.94,4.95,5.00
108.56,8.67,3.71,8.66,3.70,-3.76,-3.64,-4.09,4.91,4.90,4.96
109.64,8.67,3.77,8.66,3.76,-3.78,-3.67,-4.15,4.89,4.89,4.90
110.74,8.67,3.82,8.67,3.82,-3.80,-3.69,-4.21,4.87,4.88,4.85
111.85,8.67,3.86,8.68,3.88,-3.81,-3.72,-4.27,4.85,4.87,4.80
112.97,8.67,3.91,8.65,3.89,-3.84,-3.74,-4.32,4.83,4.81,4.76
114.10,8.63,3.93,8.58,3.88,-3.87,-3.77,-4.38,4.76,4.71,4.70
115.24,8.45,3.80,8.51,3.86,-3.90,-3.79,-4.42,4.55,4.61,4.64
116.39,8.45,3.86,8.45,3.86,-3.93,-3.82,-4.47,4.52,4.53,4.59
117.55,8.45,3.92,8.43,3.90,-3.95,-3.85,-4.51,4.50,4.48,4.53
118.73,8.45,3.97,8.45,3.97,-3.98,-3.87,-4.54,4.47,4.47,4.48
119.92,8.45,4.02,8.46,4.03,-4.00,-3.90,-4.58,4.45,4.46,4.42
121.12,8.45,4.08,8.46,4.09,-4.02,-3.92,-4.60,4.43,4.43,4.37
122.33,8.45,4.14,8.41,4.10,-4.05,-3.94,-4.62,4.40,4.36,4.31
123.55,8.35,4.10,8.34,4.09,-4.09,-3.97,-4.63,4.26,4.25,4.25
124.79,8.23,4.04,8.27,4.08,-4.12,-3.99,-4.64,4.11,4.15,4.19
126.03,8.22,4.09,8.22,4.09,-4.15,-4.02,-4.64,4.07,4.07,4.13
127.29,8.22,4.14,8.21,4.13,-4.18,-4.04,-4.64,4.04,4.03,4.08
128.57,8.22,4.20,8.22,4.20,-4.20,-4.06,-4.63,4.02,4.01,4.02
129.85,8.22,4.25,8.23,4.27,-4.23,-4.08,-4.62,3.99,4.00,3.97
131.15,8.22,4.31,8.22,4.31,-4.26,-4.10,-4.60,3.96,3.96,3.91
132.46,8.22,4.37,8.17,4.31,-4.28,-4.12,-4.57,3.94,3.89,3.85
133.79,8.08,4.28,8.10,4.29,-4.29,-4.14,-4.54,3.79,3.80,3.80
135.12,7.99,4.23,8.04,4.28,-4.29,-4.16,-4.51,3.70,3.75,3.76
136.48,7.99,4.28,7.98,4.27,-4.28,-4.18,-4.47,3.71,3.70,3.71
137.84,7.99,4.32,7.94,4.28,-4.27,-4.20,-4.43,3.71,3.66,3.67
139.22,7.87,4.26,7.88,4.26,-4.27,-4.21,-4.38,3.60,3.61,3.61
140.61,7.78,4.21,7.81,4.24,-4.27,-4.23,-4.34,3.51,3.53,3.57
142.02,7.76,4.23,7.76,4.23,-4.28,-4.24,-4.29,3.48,3.48,3.52
143.44,7.76,4.28,7.76,4.28,-4.29,-4.25,-4.24,3.47,3.47,3.48
144.87,7.76,4.33,7.77,4.33,-4.29,-4.26,-4.18,3.46,3.47,3.43
146.32,7.76,4.37,7.74,4.35,-4.30,-4.27,-4.13,3.46,3.44,3.39
147.78,7.71,4.36,7.68,4.33,-4.31,-4.28,-4.07,3.40,3.37,3.35
149.26,7.59,4.27,7.61,4.30,-4.31,-4.29,-4.02,3.28,3.30,3.31
150.75,7.53,4.25,7.55,4.28,-4.31,-4.30,-3.96,3.22,3.24,3.28
152.26,7.53,4.29,7.53,4.30,-4.30,-4.30,-3.91,3.23,3.23,3.24
153.78,7.53,4.33,7.50,4.30,-4.29,-4.30,-3.86,3.24,3.21,3.19
155.32,7.48,4.32,7.44,4.28,-4.27,-4.31,-3.80,3.21,3.17,3.16
156.88,7.33,4.19,7.37,4.24,-4.25,-4.30,-3.75,3.08,3.12,3.14
158.44,7.31,4.21,7.33,4.23,-4.23,-4.30,-3.70,3.08,3.10,3.10
160.03,7.31,4.24,7.30,4.23,-4.22,-4.30,-3.66,3.09,3.08,3.07
161.63,7.31,4.27,7.26,4.22,-4.20,-4.29,-3.61,3.11,3.05,3.04
163.24,7.17,4.16,7.19,4.18,-4.19,-4.29,-3.57,2.98,3.00,3.01
164.88,7.08,4.10,7.12,4.14,-4.17,-4.28,-3.52,2.91,2.94,2.98
166.53,7.08,4.13,7.07,4.12,-4.16,-4.27,-3.48,2.92,2.91,2.95
168.19,7.08,4.15,7.08,4.16,-4.15,-4.26,-3.45,2.93,2.93,2.93
169.87,7.08,4.18,7.08,4.18,-4.14,-4.24,-3.41,2.94,2.95,2.90
171.57,7.08,4.20,7.03,4.15,-4.12,-4.23,-3.38,2.96,2.91,2.88
173.29,6.94,4.09,6.96,4.11,-4.10,-4.21,-3.35,2.84,2.85,2.85
175.02,6.85,4.02,6.89,4.07,-4.09,-4.19,-3.32,2.76,2.81,2.82
176.77,6.85,4.05,6.85,4.05,-4.07,-4.17,-3.30,2.78,2.78,2.80
178.54,6.85,4.07,6.81,4.04,-4.04,-4.15,-3.27,2.81,2.77,2.78
180.32,6.77,4.03,6.76,4.01,-4.01,-4.12,-3.26,2.76,2.75,2.74
182.13,6.67,3.95,6.69,3.97,-3.98,-4.10,-3.24,2.69,2.71,2.72
183.95,6.62,3.93,6.65,3.96,-3.95,-4.07,-3.22,2.67,2.70,2.69
185.79,6.62,3.95,6.61,3.94,-3.93,-4.04,-3.21,2.69,2.68,2.67
187.65,6.62,3.97,6.55,3.91,-3.91,-4.01,-3.20,2.71,2.65,2.65
189.52,6.44,3.82,6.48,3.86,-3.88,-3.98,-3.20,2.55,2.60,2.62
191.42,6.39,3.79,6.41,3.82,-3.86,-3.94,-3.19,2.53,2.55,2.60
193.33,6.39,3.81,6.39,3.81,-3.83,-3.91,-3.19,2.56,2.56,2.58
195.27,6.39,3.83,6.39,3.82,-3.79,-3.87,-3.19,2.60,2.59,2.56
197.22,6.39,3.84,6.35,3.80,-3.75,-3.83,-3.19,2.64,2.60,2.54
199.19,6.26,3.72,6.28,3.75,-3.71,-3.79,-3.19,2.55,2.58,2.54
201.18,6.17,3.65,6.19,3.67,-3.66,-3.75,-3.19,2.51,2.53,2.52
203.19,6.12,3.61,6.08,3.57,-3.61,-3.71,-3.20,2.51,2.47,2.51
205.23,6.00,3.50,6.01,3.52,-3.56,-3.67,-3.21,2.44,2.46,2.50
207.28,5.94,3.45,5.97,3.49,-3.50,-3.62,-3.22,2.44,2.48,2.49
209.35,5.94,3.47,5.93,3.46,-3.45,-3.58,-3.22,2.49,2.48,2.47
211.44,5.94,3.48,5.88,3.42,-3.40,-3.53,-3.23,2.53,2.47,2.46
213.56,5.78,3.33,5.81,3.36,-3.37,-3.49,-3.24,2.41,2.44,2.44
215.69,5.71,3.28,5.74,3.31,-3.34,-3.44,-3.25,2.37,2.40,2.43
217.85,5.71,3.29,5.71,3.29,-3.31,-3.39,-3.26,2.40,2.40,2.42
220.03,5.71,3.30,5.71,3.30,-3.28,-3.34,-3.27,2.43,2.43,2.41
222.23,5.71,3.32,5.67,3.28,-3.25,-3.29,-3.27,2.46,2.42,2.39
224.45,5.60,3.22,5.60,3.22,-3.22,-3.24,-3.28,2.38,2.38,2.37
226.70,5.49,3.12,5.53,3.17,-3.18,-3.18,-3.28,2.31,2.35,2.36
228.96,5.48,3.12,5.49,3.14,-3.15,-3.13,-3.28,2.33,2.35,2.35
231.25,5.48,3.13,5.45,3.11,-3.10,-3.08,-3.28,2.37,2.35,2.34
233.57,5.45,3.12,5.39,3.07,-3.05,-3.02,-3.28,2.40,2.34,2.32
235.90,5.26,2.94,5.33,3.02,-3.00,-2.97,-3.27,2.26,2.33,2.31
238.26,5.25,2.94,5.26,2.96,-2.95,-2.92,-3.26,2.29,2.30,2.31
240.64,5.25,2.96,5.18,2.89,-2.91,-2.86,-3.25,2.34,2.27,2.29
243.05,5.10,2.82,5.12,2.84,-2.86,-2.80,-3.23,2.24,2.26,2.28
245.48,5.03,2.76,5.06,2.79,-2.81,-2.75,-3.21,2.22,2.25,2.27
247.93,5.03,2.77,5.03,2.77,-2.77,-2.69,-3.19,2.26,2.26,2.26
250.41,5.03,2.77,5.00,2.75,-2.72,-2.64,-3.16,2.31,2.28,2.26
252.92,4.98,2.73,4.94,2.70,-2.68,-2.58,-3.12,2.30,2.26,2.25
255.45,4.83,2.59,4.87,2.63,-2.64,-2.52,-3.09,2.19,2.23,2.24
258.00,4.80,2.56,4.83,2.59,-2.59,-2.47,-3.05,2.20,2.23,2.24
260.58,4.80,2.57,4.77,2.54,-2.55,-2.41,-3.00,2.25,2.23,2.23
263.19,4.78,2.56,4.72,2.50,-2.49,-2.35,-2.95,2.29,2.22,2.22
265.82,4.59,2.38,4.65,2.44,-2.44,-2.29,-2.90,2.15,2.22,2.21
268.48,4.57,2.37,4.59,2.39,-2.38,-2.24,-2.84,2.18,2.21,2.20
271.16,4.57,2.37,4.52,2.32,-2.33,-2.18,-2.78,2.23,2.19,2.20
273.87,4.49,2.29,4.47,2.27,-2.28,-2.12,-2.72,2.20,2.19,2.20
276.61,4.36,2.16,4.40,2.21,-2.23,-2.06,-2.66,2.13,2.18,2.20
279.38,4.34,2.15,4.36,2.17,-2.16,-2.01,-2.59,2.18,2.19,2.19
282.17,4.34,2.15,4.30,2.11,-2.10,-1.95,-2.52,2.24,2.21,2.19
284.99,4.29,2.10,4.26,2.07,-2.03,-1.89,-2.45,2.26,2.23,2.19
287.84,4.12,1.93,4.18,1.99,-1.96,-1.84,-2.37,2.15,2.21,2.19
290.72,4.11,1.93,4.07,1.89,-1.91,-1.78,-2.30,2.20,2.17,2.18
293.63,4.00,1.82,3.99,1.80,-1.85,-1.72,-2.22,2.14,2.13,2.18
296.57,3.90,1.71,3.93,1.75,-1.80,-1.67,-2.14,2.10,2.13,2.18
299.53,3.89,1.71,3.89,1.71,-1.75,-1.61,-2.06,2.14,2.14,2.18
302.53,3.89,1.71,3.89,1.71,-1.69,-1.55,-1.98,2.20,2.20,2.18
305.55,3.89,1.71,3.86,1.69,-1.63,-1.50,-1.90,2.26,2.23,2.17
308.61,3.83,1.66,3.81,1.64,-1.57,-1.44,-1.82,2.26,2.24,2.17
311.69,3.68,1.50,3.73,1.55,-1.52,-1.38,-1.74,2.16,2.21,2.18
314.81,3.66,1.48,3.62,1.44,-1.47,-1.33,-1.66,2.19,2.15,2.17
317.96,3.52,1.35,3.52,1.35,-1.41,-1.27,-1.58,2.10,2.11,2.17
321.14,3.43,1.26,3.46,1.29,-1.36,-1.22,-1.50,2.07,2.11,2.17
324.35,3.43,1.26,3.43,1.26,-1.30,-1.16,-1.42,2.13,2.13,2.17
327.59,3.43,1.27,3.43,1.26,-1.23,-1.11,-1.34,2.19,2.19,2.16
330.87,3.43,1.27,3.39,1.23,-1.17,-1.05,-1.26,2.25,2.22,2.16
334.18,3.33,1.17,3.34,1.18,-1.12,-1.00,-1.18,2.21,2.22,2.16
337.52,3.21,1.05,3.25,1.09,-1.06,-0.95,-1.10,2.15,2.18,2.16
340.90,3.20,1.03,3.14,0.97,-1.00,-0.89,-1.03,2.20,2.13,2.16
344.30,3.02,0.86,3.05,0.89,-0.94,-0.84,-0.95,2.08,2.11,2.16
347.75,2.97,0.80,3.00,0.84,-0.87,-0.78,-0.87,2.10,2.13,2.17
351.23,2.97,0.80,2.96,0.79,-0.81,-0.73,-0.80,2.16,2.15,2.17
354.74,2.97,0.80,2.92,0.76,-0.75,-0.68,-0.72,2.22,2.18,2.17
358.28,2.86,0.69,2.87,0.70,-0.69,-0.63,-0.65,2.17,2.18,2.16
361.87,2.77,0.61,2.81,0.65,-0.63,-0.57,-0.57,2.14,2.18,2.16
365.49,2.75,0.59,2.74,0.58,-0.57,-0.52,-0.50,2.18,2.17,2.16
369.14,2.73,0.57,2.68,0.52,-0.50,-0.47,-0.43,2.23,2.19,2.16
372.83,2.58,0.42,2.61,0.46,-0.43,-0.42,-0.36,2.15,2.18,2.16
376.56,2.52,0.36,2.51,0.35,-0.36,-0.37,-0.28,2.16,2.15,2.16
380.33,2.43,0.27,2.41,0.26,-0.30,-0.31,-0.21,2.13,2.11,2.15
384.13,2.32,0.17,2.34,0.19,-0.24,-0.26,-0.14,2.08,2.10,2.15
387.97,2.29,0.15,2.30,0.16,-0.18,-0.21,-0.07,2.11,2.12,2.14
391.85,2.29,0.15,2.29,0.15,-0.13,-0.16,-0.00,2.16,2.16,2.14
395.77,2.29,0.15,2.26,0.13,-0.08,-0.11,0.07,2.21,2.18,2.14
399.73,2.23,0.10,2.20,0.07,-0.05,-0.06,0.13,2.18,2.15,2.13
403.72,2.10,-0.03,2.13,0.01,-0.02,-0.01,0.20,2.08,2.11,2.13
407.76,2.06,-0.07,2.07,-0.05,0.01,0.04,0.27,2.07,2.08,2.13
411.84,2.06,-0.07,2.05,-0.08,0.04,0.09,0.33,2.10,2.09,2.12
415.96,2.06,-0.08,2.07,-0.06,0.08,0.14,0.40,2.14,2.15,2.13
420.12,2.06,-0.07,2.05,-0.08,0.12,0.19,0.46,2.18,2.17,2.13
424.32,2.04,-0.10,2.00,-0.14,0.17,0.24,0.53,2.21,2.16,2.14
428.56,1.90,-0.24,1.93,-0.21,0.21,0.29,0.59,2.11,2.14,2.14
432.85,1.84,-0.30,1.88,-0.26,0.26,0.34,0.65,2.10,2.14,2.14
437.18,1.84,-0.30,1.83,-0.31,0.31,0.39,0.71,2.15,2.14,2.14
441.55,1.84,-0.31,1.78,-0.37,0.37,0.43,0.77,2.21,2.15,2.15
445.96,1.68,-0.47,1.71,-0.44,0.44,0.48,0.83,2.11,2.14,2.15
450.42,1.61,-0.55,1.65,-0.50,0.50,0.53,0.89,2.11,2.15,2.16
454.93,1.61,-0.55,1.60,-0.55,0.55,0.58,0.94,2.16,2.15,2.16
459.48,1.61,-0.55,1.57,-0.59,0.60,0.63,0.99,2.21,2.17,2.16
464.07,1.51,-0.66,1.51,-0.65,0.65,0.68,1.05,2.16,2.16,2.16
468.71,1.41,-0.76,1.44,-0.73,0.70,0.72,1.10,2.11,2.14,2.16
473.40,1.38,-0.79,1.39,-0.78,0.75,0.77,1.14,2.13,2.14,2.16
478.13,1.38,-0.79,1.38,-0.79,0.80,0.82,1.19,2.18,2.18,2.17
482.91,1.38,-0.79,1.36,-0.82,0.85,0.87,1.24,2.23,2.20,2.17
487.74,1.33,-0.85,1.30,-0.89,0.90,0.91,1.28,2.23,2.20,2.18
492.62,1.19,-1.00,1.22,-0.96,0.96,0.96,1.32,2.14,2.18,2.19
497.55,1.15,-1.04,1.18,-1.02,1.01,1.01,1.36,2.16,2.19,2.19
502.52,1.15,-1.05,1.13,-1.07,1.07,1.05,1.39,2.21,2.20,2.20
507.55,1.15,-1.06,1.09,-1.12,1.13,1.10,1.43,2.28,2.21,2.21
512.62,0.98,-1.23,1.02,-1.20,1.19,1.15,1.46,2.17,2.21,2.21
517.75,0.92,-1.30,0.96,-1.26,1.26,1.19,1.49,2.18,2.22,2.22
522.93,0.92,-1.31,0.91,-1.32,1.32,1.24,1.52,2.23,2.22,2.23
528.16,0.92,-1.32,0.87,-1.37,1.37,1.29,1.55,2.29,2.24,2.24
533.44,0.80,-1.45,0.81,-1.44,1.44,1.33,1.57,2.24,2.25,2.25
538.77,0.71,-1.55,0.74,-1.51,1.50,1.38,1.60,2.21,2.25,2.26
544.16,0.70,-1.57,0.71,-1.56,1.57,1.42,1.62,2.26,2.27,2.27
549.60,0.70,-1.58,0.68,-1.60,1.62,1.47,1.65,2.32,2.30,2.28
