frequency,raw,error,smoothed,error_smoothed,equalization,parametric_eq,fixed_band_eq,equalized_raw,equalized_smoothed,target
20.00,1.52,-2.50,1.51,-2.51,2.52,2.15,0.53,4.04,4.03,4.02
20.20,1.53,-2.50,1.55,-2.49,2.49,2.13,0.55,4.02,4.03,4.03
20.40,1.58,-2.46,1.58,-2.46,2.45,2.10,0.56,4.04,4.04,4.04
20.61,1.62,-2.43,1.62,-2.43,2.42,2.07,0.58,4.04,4.04,4.05
20.81,1.67,-2.38,1.67,-2.38,2.38,2.05,0.60,4.06,4.05,4.05
21.02,1.72,-2.34,1.72,-2.35,2.35,2.02,0.62,4.07,4.06,4.06
21.23,1.76,-2.31,1.76,-2.31,2.31,1.99,0.64,4.07,4.07,4.07
21.44,1.81,-2.28,1.82,-2.27,2.27,1.96,0.66,4.08,4.08,4.09
21.66,1.86,-2.23,1.86,-2.23,2.23,1.93,0.68,4.09,4.09,4.09
21.87,1.92,-2.18,1.91,-2.19,2.18,1.91,0.70,4.11,4.10,4.10
22.09,1.95,-2.15,1.96,-2.14,2.14,1.88,0.73,4.10,4.10,4.10
22.31,2.00,-2.11,2.01,-2.10,2.10,1.85,0.75,4.10,4.11,4.11
22.54,2.06,-2.05,2.05,-2.06,2.06,1.82,0.77,4.12,4.11,4.11
22.76,2.09,-2.02,2.10,-2.02,2.02,1.79,0.80,4.11,4.11,4.12
22.99,2.14,-1.97,2.14,-1.97,1.97,1.76,0.82,4.12,4.12,4.12
23.22,2.18,-1.93,2.18,-1.94,1.93,1.73,0.85,4.12,4.12,4.12
23.45,2.23,-1.89,2.23,-1.89,1.89,1.70,0.88,4.12,4.12,4.12
23.69,2.27,-1.85,2.27,-1.85,1.85,1.67,0.90,4.12,4.13,4.12
23.92,2.31,-1.81,2.32,-1.81,1.81,1.64,0.93,4.12,4.13,4.12
24.16,2.37,-1.76,2.36,-1.77,1.77,1.61,0.96,4.14,4.13,4.13
24.40,2.40,-1.74,2.41,-1.73,1.73,1.58,0.98,4.13,4.14,4.14
24.65,2.45,-1.69,2.45,-1.69,1.69,1.55,1.01,4.14,4.14,4.14
24.89,2.49,-1.65,2.49,-1.65,1.65,1.52,1.04,4.14,4.14,4.14
25.14,2.52,-1.62,2.53,-1.61,1.61,1.49,1.07,4.13,4.14,4.14
25.39,2.57,-1.56,2.57,-1.57,1.57,1.46,1.10,4.14,4.14,4.14
25.65,2.60,-1.53,2.61,-1.53,1.53,1.43,1.12,4.13,4.14,4.14
25.91,2.65,-1.48,2.65,-1.49,1.49,1.40,1.15,4.14,4.14,4.14
26.16,2.69,-1.45,2.69,-1.45,1.45,1.37,1.18,4.15,4.14,4.14
26.43,2.72,-1.42,2.73,-1.42,1.42,1.34,1.20,4.14,4.14,4.14
26.69,2.76,-1.38,2.76,-1.38,1.38,1.31,1.23,4.14,4.14,4.14
26.96,2.80,-1.34,2.80,-1.34,1.34,1.28,1.25,4.14,4.14,4.14
27.23,2.83,-1.31,2.83,-1.31,1.31,1.25,1.28,4.14,4.14,4.14
27.50,2.87,-1.27,2.87,-1.27,1.27,1.21,1.30,4.14,4.14,4.14
27.77,2.90,-1.24,2.91,-1.24,1.24,1.18,1.32,4.14,4.15,4.15
28.05,2.95,-1.19,2.94,-1.20,1.20,1.15,1.34,4.16,4.15,4.15
28.33,2.97,-1.17,2.97,-1.17,1.17,1.12,1.36,4.14,4.14,4.14
28.62,3.00,-1.14,3.01,-1.14,1.14,1.09,1.37,4.14,4.14,4.14
28.90,3.04,-1.11,3.04,-1.11,1.10,1.06,1.39,4.15,4.14,4.15
29.19,3.08,-1.07,3.08,-1.07,1.07,1.02,1.40,4.15,4.15,4.15
29.48,3.11,-1.03,3.11,-1.04,1.04,0.99,1.41,4.15,4.15,4.15
29.78,3.14,-1.00,3.14,-1.01,1.01,0.96,1.41,4.15,4.15,4.15
30.08,3.17,-0.98,3.17,-0.98,0.98,0.93,1.41,4.15,4.15,4.15
30.38,3.20,-0.94,3.20,-0.94,0.94,0.90,1.41,4.14,4.15,4.14
30.68,3.23,-0.91,3.23,-0.91,0.91,0.87,1.41,4.14,4.14,4.14
30.99,3.26,-0.88,3.26,-0.88,0.88,0.83,1.40,4.14,4.14,4.14
31.30,3.27,-0.86,3.28,-0.85,0.85,0.80,1.39,4.12,4.13,4.14
31.61,3.32,-0.81,3.31,-0.82,0.82,0.77,1.38,4.14,4.13,4.13
31.93,3.34,-0.78,3.35,-0.78,0.78,0.74,1.36,4.13,4.13,4.12
32.24,3.37,-0.76,3.37,-0.75,0.75,0.71,1.35,4.13,4.13,4.13
32.57,3.41,-0.70,3.40,-0.72,0.72,0.67,1.32,4.13,4.12,4.12
32.89,3.41,-0.70,3.43,-0.69,0.69,0.64,1.30,4.10,4.11,4.11
33.22,3.46,-0.65,3.45,-0.66,0.66,0.61,1.27,4.12,4.11,4.11
33.55,3.46,-0.65,3.48,-0.63,0.63,0.58,1.24,4.09,4.10,4.11
33.89,3.51,-0.59,3.51,-0.60,0.60,0.54,1.20,4.11,4.10,4.11
34.23,3.53,-0.56,3.53,-0.57,0.57,0.51,1.17,4.10,4.10,4.09
34.57,3.55,-0.54,3.56,-0.53,0.54,0.48,1.13,4.09,4.09,4.09
34.92,3.57,-0.50,3.57,-0.51,0.51,0.45,1.09,4.08,4.08,4.08
35.27,3.60,-0.48,3.60,-0.48,0.47,0.42,1.04,4.08,4.07,4.08
35.62,3.61,-0.45,3.62,-0.45,0.44,0.39,1.00,4.05,4.06,4.06
35.97,3.65,-0.40,3.64,-0.41,0.41,0.35,0.95,4.06,4.05,4.06
36.33,3.65,-0.39,3.66,-0.38,0.38,0.32,0.90,4.03,4.04,4.04
36.70,3.69,-0.34,3.69,-0.34,0.34,0.29,0.85,4.04,4.03,4.03
37.06,3.69,-0.32,3.71,-0.31,0.31,0.26,0.80,4.00,4.02,4.01
37.43,3.74,-0.26,3.73,-0.27,0.28,0.23,0.75,4.02,4.00,4.00
37.81,3.74,-0.24,3.75,-0.24,0.24,0.19,0.70,3.98,3.99,3.98
38.19,3.75,-0.22,3.76,-0.21,0.21,0.16,0.64,3.96,3.97,3.97
38.57,3.79,-0.16,3.78,-0.18,0.17,0.13,0.59,3.96,3.95,3.96
38.95,3.79,-0.15,3.80,-0.14,0.14,0.10,0.53,3.93,3.94,3.94
39.34,3.82,-0.09,3.81,-0.10,0.10,0.07,0.48,3.93,3.92,3.92
39.74,3.83,-0.07,3.83,-0.07,0.07,0.04,0.42,3.90,3.90,3.90
40.14,3.83,-0.05,3.85,-0.03,0.04,0.01,0.37,3.87,3.89,3.89
40.54,3.88,0.01,3.86,-0.00,0.00,-0.02,0.31,3.88,3.87,3.87
40.94,3.88,0.04,3.88,0.03,-0.03,-0.06,0.25,3.85,3.85,3.84
41.35,3.88,0.05,3.90,0.07,-0.07,-0.09,0.19,3.81,3.83,3.83
41.76,3.90,0.10,3.91,0.10,-0.10,-0.12,0.14,3.80,3.80,3.80
42.18,3.93,0.15,3.92,0.14,-0.14,-0.15,0.08,3.79,3.78,3.78
42.60,3.93,0.17,3.93,0.18,-0.18,-0.18,0.02,3.76,3.76,3.76
43.03,3.93,0.20,3.95,0.22,-0.21,-0.21,-0.04,3.72,3.74,3.73
43.46,3.97,0.27,3.96,0.25,-0.25,-0.24,-0.10,3.72,3.71,3.70
43.90,3.97,0.30,3.97,0.29,-0.29,-0.27,-0.15,3.68,3.68,3.68
44.33,3.97,0.32,3.98,0.33,-0.33,-0.30,-0.21,3.64,3.65,3.65
44.78,3.97,0.35,3.98,0.36,-0.37,-0.33,-0.27,3.61,3.62,3.62
45.23,4.00,0.40,4.00,0.40,-0.40,-0.36,-0.33,3.60,3.59,3.60
45.68,4.02,0.46,4.01,0.45,-0.44,-0.39,-0.39,3.58,3.57,3.56
46.13,4.02,0.50,4.02,0.49,-0.49,-0.42,-0.45,3.53,3.53,3.52
46.60,4.02,0.53,4.02,0.53,-0.53,-0.45,-0.51,3.49,3.49,3.50
47.06,4.02,0.56,4.03,0.57,-0.58,-0.48,-0.57,3.45,3.45,3.47
47.53,4.04,0.61,4.05,0.62,-0.62,-0.51,-0.62,3.42,3.42,3.44
48.01,4.07,0.69,4.06,0.67,-0.67,-0.54,-0.68,3.41,3.39,3.39
48.49,4.07,0.72,4.07,0.72,-0.71,-0.57,-0.74,3.36,3.36,3.36
48.97,4.07,0.76,4.08,0.76,-0.75,-0.60,-0.80,3.32,3.32,3.31
49.46,4.07,0.79,4.07,0.80,-0.79,-0.63,-0.86,3.28,3.28,3.28
49.96,4.07,0.84,4.07,0.84,-0.83,-0.66,-0.92,3.24,3.24,3.23
50.46,4.07,0.87,4.07,0.87,-0.87,-0.69,-0.98,3.20,3.20,3.20
50.96,4.07,0.91,4.07,0.91,-0.91,-0.71,-1.04,3.16,3.16,3.17
51.47,4.07,0.94,4.07,0.94,-0.95,-0.74,-1.09,3.13,3.13,3.13
51.99,4.07,0.98,4.08,0.98,-0.99,-0.77,-1.15,3.09,3.09,3.09
52.51,4.09,1.04,4.09,1.03,-1.03,-0.80,-1.21,3.06,3.06,3.06
53.03,4.09,1.06,4.09,1.07,-1.07,-0.83,-1.26,3.02,3.02,3.03
53.56,4.09,1.11,4.09,1.11,-1.11,-0.86,-1.32,2.98,2.98,2.99
54.10,4.09,1.15,4.10,1.15,-1.16,-0.89,-1.37,2.94,2.94,2.94
54.64,4.10,1.20,4.10,1.20,-1.20,-0.92,-1.42,2.90,2.91,2.90
55.18,4.11,1.25,4.11,1.25,-1.24,-0.95,-1.48,2.88,2.87,2.86
55.74,4.11,1.29,4.11,1.28,-1.27,-0.97,-1.53,2.84,2.83,2.82
56.29,4.09,1.30,4.10,1.31,-1.31,-1.00,-1.58,2.79,2.79,2.79
56.86,4.09,1.33,4.10,1.34,-1.33,-1.03,-1.62,2.76,2.76,2.77
57.42,4.09,1.38,4.09,1.37,-1.36,-1.06,-1.67,2.73,2.73,2.72
58.00,4.09,1.40,4.09,1.39,-1.39,-1.09,-1.71,2.70,2.70,2.69
58.58,4.07,1.40,4.08,1.41,-1.42,-1.12,-1.75,2.66,2.66,2.67
59.16,4.07,1.44,4.07,1.44,-1.45,-1.15,-1.79,2.62,2.62,2.64
59.76,4.07,1.47,4.07,1.47,-1.49,-1.17,-1.83,2.59,2.58,2.61
60.35,4.07,1.52,4.07,1.51,-1.53,-1.20,-1.86,2.55,2.55,2.55
60.96,4.07,1.56,4.07,1.56,-1.57,-1.23,-1.89,2.50,2.50,2.51
61.57,4.07,1.61,4.07,1.61,-1.61,-1.26,-1.92,2.46,2.46,2.46
62.18,4.07,1.67,4.08,1.67,-1.65,-1.29,-1.94,2.42,2.42,2.40
62.80,4.07,1.71,4.07,1.71,-1.69,-1.32,-1.97,2.38,2.38,2.36
63.43,4.07,1.76,4.06,1.74,-1.73,-1.35,-1.99,2.34,2.33,2.32
64.07,4.04,1.76,4.05,1.77,-1.77,-1.37,-2.01,2.27,2.28,2.28
64.71,4.02,1.78,4.03,1.79,-1.80,-1.40,-2.02,2.22,2.23,2.24
65.35,4.02,1.82,4.02,1.81,-1.83,-1.43,-2.03,2.19,2.19,2.21
66.01,4.02,1.85,4.02,1.85,-1.86,-1.46,-2.05,2.16,2.16,2.17
66.67,4.02,1.88,4.02,1.89,-1.89,-1.49,-2.05,2.14,2.14,2.14
67.33,4.02,1.93,4.01,1.92,-1.91,-1.52,-2.06,2.11,2.10,2.09
68.01,4.00,1.95,4.00,1.95,-1.94,-1.55,-2.07,2.06,2.05,2.05
68.69,3.97,1.97,3.98,1.97,-1.98,-1.58,-2.07,2.00,2.01,2.01
69.37,3.97,2.00,3.98,2.00,-2.01,-1.61,-2.07,1.96,1.97,1.97
70.07,3.97,2.04,3.97,2.04,-2.04,-1.64,-2.07,1.93,1.93,1.93
70.77,3.97,2.08,3.96,2.07,-2.07,-1.67,-2.07,1.90,1.88,1.89
71.48,3.93,2.09,3.95,2.10,-2.11,-1.69,-2.07,1.83,1.84,1.84
72.19,3.93,2.13,3.94,2.14,-2.14,-1.72,-2.07,1.79,1.80,1.80
72.91,3.93,2.18,3.93,2.17,-2.17,-1.75,-2.07,1.76,1.76,1.75
73.64,3.93,2.23,3.92,2.21,-2.20,-1.78,-2.06,1.73,1.72,1.71
74.38,3.88,2.21,3.90,2.24,-2.23,-1.81,-2.06,1.66,1.68,1.67
75.12,3.88,2.25,3.88,2.25,-2.25,-1.84,-2.06,1.63,1.63,1.63
75.87,3.88,2.28,3.86,2.26,-2.27,-1.87,-2.06,1.61,1.59,1.60
76.63,3.83,2.27,3.85,2.29,-2.29,-1.90,-2.06,1.54,1.56,1.56
77.40,3.83,2.30,3.84,2.31,-2.31,-1.93,-2.06,1.52,1.52,1.53
78.17,3.83,2.34,3.82,2.33,-2.33,-1.96,-2.06,1.50,1.49,1.49
78.95,3.81,2.35,3.82,2.35,-2.35,-1.99,-2.06,1.47,1.47,1.46
79.74,3.79,2.36,3.80,2.37,-2.36,-2.02,-2.06,1.43,1.44,1.43
80.54,3.79,2.39,3.77,2.38,-2.38,-2.05,-2.06,1.41,1.40,1.40
81.35,3.74,2.38,3.76,2.40,-2.40,-2.08,-2.07,1.35,1.36,1.36
82.16,3.74,2.41,3.74,2.41,-2.41,-2.11,-2.07,1.33,1.33,1.34
82.98,3.74,2.44,3.72,2.42,-2.43,-2.14,-2.08,1.31,1.29,1.30
83.81,3.69,2.43,3.71,2.45,-2.45,-2.17,-2.09,1.24,1.26,1.26
84.65,3.69,2.47,3.69,2.47,-2.46,-2.20,-2.10,1.23,1.23,1.23
85.50,3.69,2.51,3.68,2.49,-2.48,-2.23,-2.11,1.21,1.20,1.19
86.35,3.65,2.49,3.66,2.51,-2.50,-2.26,-2.12,1.15,1.16,1.16
87.22,3.65,2.52,3.64,2.52,-2.52,-2.29,-2.14,1.13,1.12,1.13
88.09,3.61,2.52,3.62,2.53,-2.54,-2.32,-2.16,1.08,1.09,1.09
88.97,3.60,2.55,3.60,2.55,-2.55,-2.35,-2.17,1.05,1.05,1.06
89.86,3.59,2.58,3.58,2.57,-2.57,-2.38,-2.19,1.03,1.02,1.02
90.76,3.55,2.57,3.56,2.58,-2.58,-2.41,-2.22,0.97,0.98,0.98
91.66,3.55,2.61,3.54,2.60,-2.60,-2.44,-2.24,0.96,0.95,0.94
92.58,3.51,2.61,3.52,2.61,-2.61,-2.47,-2.27,0.90,0.91,0.91
93.51,3.51,2.64,3.50,2.63,-2.63,-2.50,-2.29,0.88,0.87,0.87
94.44,3.46,2.62,3.47,2.64,-2.64,-2.52,-2.32,0.82,0.83,0.84
95.39,3.46,2.67,3.45,2.66,-2.66,-2.55,-2.35,0.80,0.79,0.80
96.34,3.42,2.67,3.43,2.67,-2.68,-2.58,-2.38,0.74,0.75,0.75
97.30,3.41,2.70,3.41,2.70,-2.69,-2.61,-2.41,0.72,0.71,0.72
98.28,3.37,2.70,3.38,2.71,-2.71,-2.63,-2.45,0.66,0.67,0.67
99.26,3.37,2.75,3.36,2.73,-2.73,-2.66,-2.48,0.65,0.63,0.62
100.25,3.32,2.73,3.33,2.74,-2.74,-2.68,-2.52,0.58,0.59,0.59
101.25,3.32,2.76,3.31,2.76,-2.75,-2.71,-2.56,0.57,0.56,0.56
102.27,3.28,2.76,3.29,2.76,-2.76,-2.73,-2.59,0.52,0.53,0.53
103.29,3.27,2.78,3.27,2.77,-2.77,-2.76,-2.63,0.50,0.50,0.49
104.32,3.23,2.77,3.24,2.77,-2.78,-2.78,-2.67,0.45,0.46,0.46
105.37,3.21,2.79,3.21,2.78,-2.79,-2.80,-2.71,0.43,0.42,0.43
106.42,3.18,2.78,3.18,2.79,-2.79,-2.82,-2.75,0.39,0.39,0.40
107.48,3.16,2.81,3.16,2.80,-2.80,-2.84,-2.79,0.36,0.36,0.35
108.56,3.14,2.81,3.14,2.81,-2.81,-2.86,-2.83,0.33,0.33,0.33
109.64,3.11,2.82,3.11,2.82,-2.82,-2.88,-2.87,0.29,0.29,0.29
110.74,3.09,2.84,3.09,2.83,-2.83,-2.90,-2.90,0.26,0.26,0.26
111.85,3.05,2.83,3.06,2.84,-2.84,-2.92,-2.94,0.21,0.22,0.22
112.97,3.04,2.86,3.03,2.85,-2.85,-2.93,-2.97,0.19,0.18,0.19
114.10,3.00,2.85,3.00,2.86,-2.86,-2.94,-3.00,0.14,0.14,0.15
115.24,2.96,2.86,2.97,2.87,-2.87,-2.96,-3.03,0.09,0.10,0.11
116.39,2.95,2.89,2.94,2.88,-2.88,-2.97,-3.06,0.07,0.06,0.06
117.55,2.90,2.88,2.91,2.89,-2.89,-2.98,-3.09,0.02,0.03,0.03
118.73,2.89,2.91,2.89,2.90,-2.89,-2.99,-3.11,-0.00,-0.00,-0.02
119.92,2.86,2.91,2.86,2.90,-2.90,-3.00,-3.13,-0.04,-0.04,-0.05
121.12,2.82,2.90,2.83,2.91,-2.90,-3.00,-3.15,-0.08,-0.08,-0.07
122.33,2.79,2.91,2.79,2.90,-2.91,-3.01,-3.17,-0.12,-0.12,-0.12
123.55,2.76,2.91,2.76,2.91,-2.91,-3.01,-3.18,-0.15,-0.15,-0.15
124.79,2.73,2.91,2.73,2.91,-2.92,-3.01,-3.18,-0.19,-0.19,-0.18
126.03,2.70,2.92,2.70,2.92,-2.92,-3.01,-3.19,-0.22,-0.22,-0.22
127.29,2.67,2.93,2.67,2.93,-2.93,-3.01,-3.19,-0.26,-0.26,-0.26
128.57,2.64,2.94,2.64,2.94,-2.94,-3.01,-3.19,-0.30,-0.30,-0.30
129.85,2.61,2.95,2.61,2.95,-2.94,-3.00,-3.19,-0.33,-0.34,-0.34
131.15,2.57,2.95,2.58,2.95,-2.95,-2.99,-3.18,-0.38,-0.37,-0.37
132.46,2.54,2.95,2.54,2.96,-2.95,-2.99,-3.17,-0.41,-0.41,-0.41
133.79,2.51,2.96,2.51,2.96,-2.96,-2.98,-3.16,-0.44,-0.44,-0.45
135.12,2.48,2.97,2.48,2.96,-2.96,-2.97,-3.14,-0.48,-0.48,-0.48
136.48,2.44,2.95,2.44,2.96,-2.96,-2.96,-3.12,-0.52,-0.51,-0.51
137.84,2.40,2.95,2.41,2.95,-2.96,-2.95,-3.10,-0.55,-0.55,-0.54
139.22,2.37,2.96,2.37,2.95,-2.95,-2.94,-3.08,-0.58,-0.59,-0.59
140.61,2.33,2.94,2.33,2.95,-2.95,-2.93,-3.06,-0.62,-0.61,-0.61
142.02,2.30,2.94,2.30,2.95,-2.94,-2.92,-3.04,-0.64,-0.64,-0.64
143.44,2.27,2.95,2.27,2.94,-2.94,-2.91,-3.01,-0.67,-0.67,-0.67
144.87,2.24,2.94,2.24,2.94,-2.93,-2.90,-2.99,-0.69,-0.69,-0.69
146.32,2.20,2.93,2.20,2.93,-2.93,-2.89,-2.96,-0.72,-0.72,-0.72
147.78,2.16,2.91,2.16,2.92,-2.92,-2.88,-2.94,-0.76,-0.76,-0.75
149.26,2.12,2.90,2.13,2.91,-2.91,-2.88,-2.91,-0.79,-0.79,-0.78
150.75,2.09,2.91,2.09,2.90,-2.90,-2.88,-2.89,-0.81,-0.81,-0.82
152.26,2.06,2.90,2.06,2.90,-2.90,-2.88,-2.86,-0.83,-0.84,-0.83
153.78,2.02,2.89,2.02,2.89,-2.89,-2.88,-2.84,-0.87,-0.87,-0.87
155.32,1.98,2.88,1.99,2.88,-2.88,-2.88,-2.82,-0.90,-0.90,-0.89
156.88,1.95,2.88,1.95,2.88,-2.88,-2.89,-2.79,-0.93,-0.93,-0.93
158.44,1.91,2.87,1.91,2.87,-2.87,-2.90,-2.77,-0.96,-0.96,-0.96
160.03,1.88,2.88,1.88,2.87,-2.87,-2.91,-2.76,-0.99,-1.00,-0.99
161.63,1.83,2.86,1.84,2.87,-2.87,-2.92,-2.74,-1.04,-1.03,-1.02
163.24,1.80,2.87,1.81,2.87,-2.87,-2.93,-2.72,-1.06,-1.06,-1.07
164.88,1.77,2.87,1.77,2.87,-2.86,-2.94,-2.71,-1.09,-1.09,-1.10
166.53,1.74,2.88,1.74,2.87,-2.86,-2.95,-2.70,-1.12,-1.13,-1.13
168.19,1.69,2.86,1.70,2.86,-2.86,-2.96,-2.69,-1.17,-1.17,-1.16
169.87,1.65,2.85,1.66,2.86,-2.86,-2.97,-2.68,-1.21,-1.20,-1.20
171.57,1.62,2.86,1.62,2.86,-2.86,-2.98,-2.67,-1.24,-1.24,-1.24
173.29,1.59,2.87,1.59,2.86,-2.86,-2.99,-2.67,-1.27,-1.27,-1.27
175.02,1.55,2.86,1.56,2.87,-2.87,-3.00,-2.67,-1.31,-1.31,-1.31
176.77,1.53,2.88,1.53,2.87,-2.87,-3.01,-2.67,-1.34,-1.34,-1.34
178.54,1.49,2.87,1.49,2.87,-2.87,-3.01,-2.67,-1.38,-1.38,-1.38
180.32,1.46,2.88,1.46,2.87,-2.88,-3.02,-2.67,-1.41,-1.42,-1.42
182.13,1.41,2.87,1.43,2.88,-2.88,-3.02,-2.68,-1.47,-1.45,-1.45
183.95,1.40,2.89,1.39,2.88,-2.88,-3.03,-2.69,-1.48,-1.49,-1.49
185.79,1.37,2.90,1.36,2.89,-2.89,-3.03,-2.70,-1.52,-1.52,-1.53
187.65,1.32,2.88,1.34,2.89,-2.89,-3.03,-2.71,-1.57,-1.56,-1.56
189.52,1.30,2.90,1.30,2.90,-2.89,-3.02,-2.72,-1.59,-1.59,-1.60
191.42,1.27,2.90,1.27,2.90,-2.90,-3.02,-2.74,-1.62,-1.63,-1.63
193.33,1.23,2.90,1.23,2.90,-2.90,-3.02,-2.76,-1.67,-1.67,-1.67
195.27,1.19,2.90,1.20,2.90,-2.90,-3.01,-2.77,-1.71,-1.70,-1.70
197.22,1.16,2.90,1.16,2.90,-2.90,-3.01,-2.80,-1.74,-1.74,-1.74
199.19,1.13,2.90,1.13,2.90,-2.90,-3.00,-2.82,-1.77,-1.77,-1.77
201.18,1.09,2.90,1.10,2.90,-2.90,-2.99,-2.84,-1.81,-1.80,-1.81
203.19,1.07,2.90,1.07,2.90,-2.90,-2.98,-2.86,-1.83,-1.83,-1.83
205.23,1.04,2.90,1.04,2.90,-2.90,-2.97,-2.89,-1.86,-1.86,-1.86
207.28,1.01,2.89,1.01,2.90,-2.90,-2.96,-2.92,-1.89,-1.89,-1.88
209.35,0.99,2.91,0.98,2.90,-2.90,-2.95,-2.94,-1.91,-1.92,-1.92
211.44,0.95,2.89,0.97,2.91,-2.91,-2.93,-2.97,-1.95,-1.94,-1.94
213.56,0.95,2.92,0.95,2.91,-2.91,-2.92,-2.99,-1.96,-1.96,-1.96
215.69,0.95,2.94,0.93,2.92,-2.92,-2.90,-3.02,-1.97,-1.99,-1.99
217.85,0.90,2.91,0.92,2.93,-2.93,-2.89,-3.05,-2.03,-2.02,-2.01
220.03,0.90,2.95,0.90,2.94,-2.95,-2.87,-3.07,-2.05,-2.05,-2.04
222.23,0.90,2.97,0.89,2.96,-2.98,-2.85,-3.09,-2.07,-2.08,-2.07
224.45,0.90,2.99,0.91,2.99,-3.00,-2.84,-3.12,-2.10,-2.09,-2.09
226.70,0.91,3.02,0.92,3.03,-3.03,-2.82,-3.14,-2.12,-2.11,-2.11
228.96,0.95,3.07,0.94,3.06,-3.06,-2.80,-3.16,-2.10,-2.12,-2.12
231.25,0.95,3.09,0.95,3.09,-3.08,-2.78,-3.17,-2.13,-2.13,-2.14
233.57,0.95,3.11,0.96,3.12,-3.11,-2.76,-3.19,-2.16,-2.15,-2.16
235.90,0.95,3.13,0.95,3.13,-3.13,-2.74,-3.20,-2.18,-2.18,-2.18
238.26,0.95,3.15,0.96,3.15,-3.15,-2.72,-3.21,-2.19,-2.19,-2.20
240.64,0.95,3.15,0.95,3.15,-3.15,-2.70,-3.21,-2.20,-2.20,-2.20
243.05,0.95,3.17,0.94,3.16,-3.15,-2.68,-3.21,-2.20,-2.21,-2.22
245.48,0.90,3.14,0.92,3.15,-3.15,-2.65,-3.21,-2.24,-2.23,-2.23
247.93,0.90,3.15,0.89,3.14,-3.14,-2.63,-3.21,-2.23,-2.24,-2.25
250.41,0.86,3.11,0.86,3.12,-3.12,-2.61,-3.20,-2.26,-2.26,-2.25
252.92,0.83,3.09,0.84,3.10,-3.10,-2.59,-3.18,-2.27,-2.26,-2.26
255.45,0.81,3.09,0.80,3.07,-3.08,-2.56,-3.17,-2.26,-2.28,-2.28
258.00,0.76,3.04,0.77,3.05,-3.05,-2.54,-3.15,-2.29,-2.28,-2.28
260.58,0.73,3.02,0.74,3.03,-3.02,-2.52,-3.12,-2.29,-2.29,-2.29
263.19,0.70,3.00,0.70,2.99,-3.00,-2.49,-3.10,-2.30,-2.30,-2.30
265.82,0.67,2.97,0.67,2.97,-2.97,-2.47,-3.07,-2.30,-2.30,-2.30
268.48,0.62,2.93,0.64,2.94,-2.94,-2.45,-3.03,-2.32,-2.31,-2.31
271.16,0.61,2.93,0.60,2.92,-2.92,-2.42,-3.00,-2.31,-2.31,-2.31
273.87,0.57,2.89,0.57,2.89,-2.89,-2.40,-2.96,-2.32,-2.32,-2.32
276.61,0.53,2.86,0.54,2.87,-2.86,-2.37,-2.92,-2.33,-2.32,-2.33
279.38,0.49,2.83,0.50,2.84,-2.83,-2.35,-2.87,-2.34,-2.33,-2.34
282.17,0.48,2.82,0.47,2.80,-2.80,-2.32,-2.83,-2.32,-2.34,-2.34
284.99,0.44,2.77,0.44,2.78,-2.78,-2.30,-2.78,-2.33,-2.33,-2.33
287.84,0.40,2.73,0.41,2.74,-2.75,-2.28,-2.74,-2.34,-2.33,-2.33
290.72,0.39,2.73,0.38,2.71,-2.71,-2.25,-2.69,-2.32,-2.34,-2.34
293.63,0.34,2.68,0.35,2.69,-2.68,-2.23,-2.64,-2.34,-2.33,-2.33
296.57,0.32,2.65,0.32,2.66,-2.65,-2.20,-2.59,-2.33,-2.33,-2.33
299.53,0.30,2.63,0.29,2.62,-2.62,-2.18,-2.54,-2.32,-2.33,-2.33
302.53,0.25,2.58,0.26,2.59,-2.59,-2.15,-2.49,-2.34,-2.33,-2.33
305.55,0.23,2.56,0.23,2.56,-2.56,-2.13,-2.44,-2.33,-2.33,-2.33
308.61,0.20,2.53,0.20,2.52,-2.53,-2.10,-2.39,-2.32,-2.33,-2.32
311.69,0.16,2.49,0.17,2.50,-2.49,-2.08,-2.34,-2.33,-2.32,-2.33
314.81,0.14,2.46,0.14,2.46,-2.46,-2.05,-2.29,-2.32,-2.32,-2.32
317.96,0.11,2.44,0.11,2.44,-2.43,-2.03,-2.24,-2.32,-2.32,-2.32
321.14,0.08,2.40,0.08,2.40,-2.40,-2.00,-2.19,-2.32,-2.32,-2.32
324.35,0.06,2.38,0.06,2.37,-2.37,-1.98,-2.14,-2.31,-2.32,-2.32
327.59,0.02,2.33,0.03,2.34,-2.35,-1.95,-2.10,-2.32,-2.31,-2.30
330.87,0.02,2.33,0.01,2.32,-2.32,-1.93,-2.05,-2.30,-2.30,-2.31
334.18,-0.02,2.29,-0.01,2.29,-2.29,-1.90,-2.01,-2.31,-2.30,-2.31
337.52,-0.03,2.27,-0.04,2.27,-2.26,-1.88,-1.97,-2.29,-2.30,-2.30
340.90,-0.08,2.22,-0.07,2.23,-2.23,-1.86,-1.93,-2.31,-2.30,-2.29
344.30,-0.08,2.21,-0.08,2.20,-2.20,-1.83,-1.89,-2.28,-2.29,-2.29
347.75,-0.12,2.16,-0.11,2.17,-2.17,-1.81,-1.85,-2.29,-2.28,-2.28
351.23,-0.12,2.16,-0.13,2.15,-2.14,-1.78,-1.81,-2.26,-2.27,-2.28
354.74,-0.17,2.10,-0.16,2.11,-2.11,-1.76,-1.78,-2.28,-2.27,-2.26
358.28,-0.17,2.10,-0.18,2.09,-2.08,-1.74,-1.74,-2.25,-2.26,-2.27
361.87,-0.22,2.04,-0.21,2.05,-2.05,-1.71,-1.71,-2.27,-2.26,-2.26
365.49,-0.22,2.03,-0.23,2.02,-2.02,-1.69,-1.68,-2.24,-2.25,-2.25
369.14,-0.26,1.98,-0.25,1.99,-1.99,-1.67,-1.65,-2.25,-2.24,-2.24
372.83,-0.27,1.97,-0.27,1.96,-1.96,-1.64,-1.62,-2.23,-2.23,-2.23
376.56,-0.31,1.93,-0.30,1.93,-1.93,-1.62,-1.59,-2.24,-2.23,-2.23
380.33,-0.33,1.90,-0.33,1.90,-1.90,-1.60,-1.57,-2.23,-2.23,-2.23
384.13,-0.36,1.86,-0.35,1.86,-1.87,-1.57,-1.54,-2.23,-2.22,-2.22
387.97,-0.37,1.84,-0.37,1.84,-1.84,-1.55,-1.52,-2.21,-2.21,-2.21
391.85,-0.40,1.80,-0.40,1.81,-1.81,-1.53,-1.50,-2.20,-2.21,-2.20
395.77,-0.42,1.78,-0.42,1.78,-1.78,-1.51,-1.48,-2.20,-2.19,-2.20
399.73,-0.45,1.75,-0.44,1.75,-1.75,-1.48,-1.46,-2.20,-2.19,-2.19
403.72,-0.45,1.73,-0.46,1.72,-1.72,-1.46,-1.44,-2.17,-2.18,-2.18
407.76,-0.50,1.68,-0.49,1.69,-1.69,-1.44,-1.42,-2.19,-2.18,-2.18
411.84,-0.50,1.67,-0.50,1.66,-1.66,-1.42,-1.40,-2.16,-2.17,-2.17
415.96,-0.54,1.62,-0.53,1.63,-1.63,-1.40,-1.39,-2.17,-2.16,-2.16
420.12,-0.54,1.62,-0.55,1.61,-1.60,-1.38,-1.37,-2.14,-2.15,-2.16
424.32,-0.58,1.57,-0.57,1.58,-1.58,-1.36,-1.36,-2.15,-2.15,-2.15
428.56,-0.59,1.54,-0.59,1.54,-1.55,-1.33,-1.34,-2.13,-2.14,-2.13
432.85,-0.62,1.51,-0.61,1.51,-1.52,-1.31,-1.33,-2.14,-2.13,-2.12
437.18,-0.64,1.49,-0.63,1.49,-1.49,-1.29,-1.32,-2.13,-2.12,-2.12
441.55,-0.64,1.48,-0.65,1.47,-1.46,-1.27,-1.30,-2.10,-2.11,-2.12
445.96,-0.68,1.43,-0.67,1.44,-1.43,-1.25,-1.29,-2.11,-2.10,-2.11
450.42,-0.68,1.42,-0.69,1.41,-1.40,-1.23,-1.28,-2.08,-2.09,-2.10
454.93,-0.73,1.36,-0.71,1.38,-1.37,-1.21,-1.27,-2.10,-2.08,-2.09
459.48,-0.73,1.35,-0.73,1.35,-1.35,-1.19,-1.26,-2.07,-2.07,-2.08
464.07,-0.73,1.33,-0.75,1.31,-1.32,-1.18,-1.25,-2.05,-2.07,-2.06
468.71,-0.78,1.27,-0.76,1.29,-1.30,-1.16,-1.24,-2.08,-2.06,-2.05
473.40,-0.78,1.26,-0.78,1.26,-1.27,-1.14,-1.23,-2.05,-2.05,-2.04
478.13,-0.78,1.25,-0.78,1.25,-1.25,-1.12,-1.22,-2.03,-2.03,-2.03
482.91,-0.78,1.24,-0.78,1.24,-1.24,-1.10,-1.21,-2.01,-2.01,-2.02
487.74,-0.78,1.24,-0.79,1.23,-1.22,-1.08,-1.20,-2.00,-2.01,-2.01
492.62,-0.81,1.20,-0.80,1.20,-1.20,-1.06,-1.19,-2.01,-2.00,-2.00
497.55,-0.82,1.18,-0.81,1.18,-1.19,-1.05,-1.18,-2.00,-2.00,-1.99
502.52,-0.82,1.17,-0.82,1.16,-1.17,-1.03,-1.17,-1.98,-1.99,-1.99
507.55,-0.82,1.15,-0.82,1.15,-1.15,-1.01,-1.15,-1.96,-1.96,-1.97
