frequency,raw,error,smoothed,error_smoothed,equalization,parametric_eq,fixed_band_eq,equalized_raw,equalized_smoothed,target
20.00,13.78,12.24,13.78,12.24,-12.23,-10.11,-5.14,1.55,1.55,1.54
20.20,13.74,12.22,13.74,12.22,-12.22,-10.11,-5.27,1.52,1.52,1.52
20.40,13.70,12.21,13.70,12.21,-12.21,-10.11,-5.40,1.49,1.49,1.49
20.61,13.67,12.20,13.67,12.19,-12.20,-10.10,-5.54,1.48,1.47,1.47
20.81,13.63,12.18,13.63,12.18,-12.18,-10.10,-5.68,1.45,1.45,1.45
21.02,13.59,12.17,13.60,12.17,-12.17,-10.10,-5.83,1.42,1.43,1.42
21.23,13.57,12.17,13.56,12.16,-12.16,-10.10,-5.98,1.41,1.41,1.40
21.44,13.53,12.15,13.53,12.15,-12.14,-10.10,-6.13,1.39,1.38,1.38
21.66,13.49,12.13,13.49,12.13,-12.13,-10.10,-6.29,1.36,1.36,1.36
21.87,13.45,12.11,13.46,12.11,-12.12,-10.10,-6.45,1.33,1.34,1.34
22.09,13.43,12.11,13.42,12.10,-12.11,-10.10,-6.62,1.32,1.32,1.32
22.31,13.39,12.09,13.39,12.09,-12.09,-10.10,-6.79,1.30,1.30,1.30
22.54,13.35,12.08,13.36,12.08,-12.08,-10.10,-6.96,1.28,1.28,1.27
22.76,13.32,12.07,13.31,12.06,-12.06,-10.10,-7.15,1.26,1.26,1.25
22.99,13.27,12.04,13.28,12.04,-12.04,-10.09,-7.33,1.23,1.24,1.23
23.22,13.23,12.02,13.24,12.02,-12.02,-10.09,-7.52,1.21,1.22,1.21
23.45,13.20,12.00,13.19,11.99,-12.00,-10.09,-7.71,1.21,1.20,1.20
23.69,13.15,11.97,13.16,11.97,-11.97,-10.09,-7.91,1.18,1.19,1.18
23.92,13.11,11.94,13.11,11.94,-11.94,-10.09,-8.12,1.17,1.17,1.17
24.16,13.07,11.92,13.07,11.91,-11.91,-10.09,-8.33,1.16,1.15,1.15
24.40,13.02,11.88,13.02,11.88,-11.88,-10.08,-8.54,1.14,1.14,1.14
24.65,12.97,11.84,12.98,11.85,-11.85,-10.08,-8.76,1.13,1.13,1.13
24.89,12.93,11.82,12.93,11.81,-11.81,-10.08,-8.98,1.12,1.12,1.11
25.14,12.88,11.78,12.88,11.78,-11.77,-10.08,-9.20,1.11,1.11,1.10
25.39,12.83,11.74,12.83,11.74,-11.74,-10.08,-9.43,1.09,1.09,1.09
25.65,12.78,11.70,12.78,11.70,-11.70,-10.07,-9.67,1.08,1.08,1.08
25.91,12.73,11.66,12.73,11.66,-11.66,-10.07,-9.90,1.07,1.07,1.07
26.16,12.68,11.62,12.68,11.62,-11.63,-10.07,-10.14,1.06,1.06,1.06
26.43,12.63,11.59,12.63,11.58,-11.59,-10.06,-10.38,1.05,1.04,1.04
26.69,12.58,11.55,12.58,11.55,-11.55,-10.06,-10.62,1.03,1.03,1.03
26.96,12.53,11.51,12.54,11.51,-11.51,-10.06,-10.86,1.02,1.03,1.02
27.23,12.49,11.48,12.48,11.47,-11.47,-10.05,-11.10,1.02,1.01,1.01
27.50,12.43,11.43,12.44,11.43,-11.43,-10.05,-11.34,1.00,1.01,1.00
27.77,12.38,11.38,12.39,11.39,-11.39,-10.05,-11.58,0.99,1.00,1.00
28.05,12.34,11.35,12.33,11.34,-11.34,-10.04,-11.81,1.00,0.99,0.99
28.33,12.28,11.30,12.28,11.30,-11.30,-10.04,-12.03,0.98,0.99,0.98
28.62,12.23,11.25,12.23,11.25,-11.25,-10.03,-12.24,0.98,0.98,0.98
28.90,12.17,11.20,12.17,11.20,-11.20,-10.03,-12.44,0.97,0.97,0.97
29.19,12.12,11.15,12.12,11.15,-11.15,-10.02,-12.63,0.97,0.97,0.97
29.48,12.07,11.11,12.07,11.10,-11.10,-10.02,-12.80,0.97,0.96,0.96
29.78,12.01,11.05,12.01,11.05,-11.05,-10.01,-12.96,0.96,0.96,0.96
30.08,11.96,11.01,11.96,11.00,-11.00,-10.00,-13.08,0.96,0.95,0.95
30.38,11.89,10.94,11.90,10.95,-10.95,-10.00,-13.20,0.94,0.95,0.95
30.68,11.84,10.90,11.84,10.90,-10.90,-9.99,-13.28,0.95,0.95,0.94
30.99,11.78,10.85,11.78,10.84,-10.84,-9.98,-13.35,0.94,0.94,0.93
31.30,11.71,10.78,11.71,10.79,-10.78,-9.97,-13.38,0.94,0.94,0.93
31.61,11.64,10.72,11.64,10.72,-10.71,-9.96,-13.40,0.93,0.93,0.92
31.93,11.56,10.65,11.56,10.65,-10.65,-9.95,-13.38,0.92,0.92,0.91
32.24,11.48,10.57,11.48,10.57,-10.58,-9.94,-13.35,0.90,0.91,0.91
32.57,11.41,10.51,11.41,10.50,-10.51,-9.93,-13.29,0.90,0.90,0.90
32.89,11.32,10.43,11.33,10.43,-10.44,-9.91,-13.21,0.88,0.89,0.89
33.22,11.25,10.37,11.25,10.37,-10.36,-9.90,-13.11,0.89,0.88,0.88
33.55,11.17,10.30,11.17,10.29,-10.29,-9.89,-12.99,0.88,0.87,0.87
33.89,11.08,10.22,11.09,10.22,-10.22,-9.87,-12.86,0.86,0.86,0.86
34.23,11.00,10.15,11.00,10.15,-10.15,-9.85,-12.72,0.85,0.85,0.85
34.57,10.92,10.07,10.92,10.07,-10.07,-9.83,-12.56,0.85,0.85,0.85
34.92,10.84,10.00,10.84,10.00,-10.00,-9.81,-12.40,0.84,0.84,0.84
35.27,10.76,9.93,10.76,9.93,-9.92,-9.79,-12.23,0.84,0.84,0.83
35.62,10.68,9.85,10.68,9.85,-9.85,-9.77,-12.06,0.84,0.83,0.83
35.97,10.59,9.77,10.59,9.77,-9.77,-9.74,-11.88,0.82,0.82,0.82
36.33,10.51,9.69,10.51,9.69,-9.69,-9.71,-11.70,0.82,0.82,0.82
36.70,10.42,9.61,10.42,9.61,-9.62,-9.68,-11.53,0.81,0.81,0.81
37.06,10.34,9.54,10.34,9.53,-9.54,-9.65,-11.35,0.80,0.80,0.80
37.43,10.26,9.46,10.26,9.46,-9.46,-9.61,-11.18,0.80,0.80,0.80
37.81,10.17,9.38,10.17,9.38,-9.38,-9.57,-11.01,0.80,0.80,0.79
38.19,10.09,9.30,10.09,9.29,-9.29,-9.52,-10.84,0.80,0.79,0.79
38.57,9.99,9.21,9.99,9.21,-9.21,-9.47,-10.68,0.78,0.78,0.78
38.95,9.90,9.12,9.90,9.12,-9.12,-9.41,-10.52,0.78,0.78,0.78
39.34,9.81,9.04,9.81,9.04,-9.04,-9.35,-10.37,0.77,0.77,0.77
39.74,9.72,8.95,9.72,8.95,-8.95,-9.28,-10.22,0.78,0.77,0.77
40.14,9.62,8.86,9.62,8.86,-8.86,-9.21,-10.08,0.77,0.77,0.76
40.54,9.52,8.76,9.53,8.77,-8.76,-9.12,-9.95,0.76,0.76,0.76
40.94,9.43,8.68,9.43,8.67,-8.67,-9.03,-9.82,0.76,0.76,0.75
41.35,9.33,8.58,9.33,8.58,-8.58,-8.93,-9.70,0.75,0.75,0.75
41.76,9.23,8.49,9.23,8.49,-8.49,-8.83,-9.58,0.74,0.75,0.74
42.18,9.14,8.40,9.14,8.40,-8.40,-8.72,-9.47,0.74,0.74,0.74
42.60,9.04,8.31,9.04,8.31,-8.31,-8.60,-9.37,0.73,0.73,0.73
43.03,8.95,8.22,8.95,8.22,-8.22,-8.49,-9.27,0.73,0.73,0.73
43.46,8.86,8.14,8.86,8.14,-8.14,-8.37,-9.18,0.72,0.73,0.72
43.90,8.78,8.06,8.78,8.06,-8.05,-8.27,-9.10,0.73,0.72,0.72
44.33,8.70,7.98,8.70,7.98,-7.98,-8.17,-9.02,0.73,0.72,0.72
44.78,8.61,7.90,8.62,7.90,-7.90,-8.10,-8.95,0.71,0.72,0.71
45.23,8.55,7.84,8.54,7.83,-7.83,-8.04,-8.88,0.72,0.72,0.71
45.68,8.47,7.76,8.48,7.77,-7.76,-8.02,-8.82,0.71,0.72,0.71
46.13,8.42,7.71,8.42,7.71,-7.70,-8.02,-8.77,0.72,0.72,0.71
46.60,8.37,7.66,8.37,7.66,-7.65,-8.05,-8.72,0.73,0.72,0.71
47.06,8.33,7.62,8.33,7.62,-7.60,-8.10,-8.68,0.73,0.73,0.71
47.53,8.30,7.59,8.30,7.59,-7.57,-8.17,-8.65,0.73,0.73,0.71
48.01,8.29,7.58,8.29,7.58,-7.57,-8.25,-8.62,0.73,0.72,0.71
48.49,8.30,7.59,8.30,7.59,-7.59,-8.34,-8.59,0.72,0.72,0.71
48.97,8.34,7.63,8.35,7.63,-7.64,-8.43,-8.57,0.70,0.70,0.71
49.46,8.43,7.72,8.43,7.71,-7.74,-8.51,-8.56,0.69,0.68,0.71
49.96,8.56,7.85,8.56,7.85,-7.90,-8.59,-8.54,0.66,0.66,0.71
50.46,8.74,8.03,8.75,8.04,-8.11,-8.66,-8.54,0.63,0.64,0.71
50.96,9.00,8.29,9.01,8.29,-8.38,-8.72,-8.54,0.63,0.63,0.71
51.47,9.32,8.61,9.32,8.61,-8.68,-8.77,-8.54,0.64,0.64,0.71
51.99,9.68,8.97,9.68,8.97,-9.02,-8.82,-8.54,0.66,0.66,0.71
52.51,10.06,9.35,10.06,9.34,-9.36,-8.85,-8.55,0.70,0.70,0.71
53.03,10.41,9.70,10.42,9.70,-9.67,-8.88,-8.56,0.74,0.75,0.71
53.56,10.72,10.01,10.72,10.01,-9.93,-8.90,-8.57,0.79,0.79,0.71
54.10,10.95,10.24,10.93,10.21,-10.11,-8.91,-8.58,0.84,0.82,0.71
54.64,11.02,10.31,11.03,10.31,-10.19,-8.91,-8.60,0.83,0.83,0.71
55.18,10.99,10.28,11.00,10.28,-10.17,-8.90,-8.61,0.82,0.82,0.71
55.74,10.87,10.16,10.85,10.13,-10.05,-8.89,-8.62,0.82,0.80,0.71
56.29,10.59,9.88,10.60,9.89,-9.84,-8.86,-8.64,0.75,0.76,0.71
56.86,10.28,9.57,10.28,9.57,-9.56,-8.84,-8.65,0.72,0.72,0.71
57.42,9.92,9.21,9.92,9.20,-9.25,-8.80,-8.66,0.67,0.68,0.71
58.00,9.56,8.84,9.57,8.85,-8.92,-8.75,-8.67,0.65,0.65,0.72
58.58,9.24,8.52,9.24,8.52,-8.60,-8.70,-8.68,0.64,0.64,0.72
59.16,8.96,8.24,8.97,8.24,-8.31,-8.64,-8.68,0.65,0.65,0.72
59.76,8.73,8.01,8.74,8.01,-8.07,-8.57,-8.68,0.67,0.68,0.72
60.35,8.57,7.84,8.56,7.83,-7.87,-8.49,-8.67,0.71,0.70,0.73
60.96,8.43,7.70,8.43,7.70,-7.71,-8.40,-8.66,0.72,0.72,0.73
61.57,8.33,7.60,8.34,7.60,-7.60,-8.31,-8.65,0.73,0.74,0.73
62.18,8.27,7.54,8.27,7.53,-7.52,-8.22,-8.63,0.75,0.75,0.73
62.80,8.22,7.49,8.22,7.48,-7.47,-8.12,-8.61,0.75,0.75,0.73
63.43,8.18,7.44,8.18,7.45,-7.43,-8.02,-8.58,0.75,0.75,0.74
64.07,8.16,7.42,8.16,7.42,-7.42,-7.93,-8.55,0.74,0.75,0.74
64.71,8.16,7.42,8.16,7.41,-7.41,-7.86,-8.51,0.75,0.74,0.74
65.35,8.16,7.42,8.16,7.42,-7.42,-7.80,-8.47,0.74,0.74,0.74
66.01,8.18,7.44,8.18,7.44,-7.44,-7.76,-8.43,0.74,0.75,0.74
66.67,8.21,7.47,8.21,7.46,-7.46,-7.74,-8.38,0.75,0.74,0.74
67.33,8.24,7.50,8.24,7.50,-7.49,-7.75,-8.32,0.75,0.75,0.74
68.01,8.27,7.53,8.28,7.53,-7.53,-7.77,-8.27,0.74,0.74,0.74
68.69,8.32,7.58,8.32,7.58,-7.57,-7.82,-8.21,0.75,0.75,0.74
69.37,8.36,7.62,8.36,7.62,-7.62,-7.87,-8.15,0.75,0.75,0.74
70.07,8.41,7.67,8.41,7.67,-7.66,-7.92,-8.09,0.75,0.75,0.74
70.77,8.45,7.71,8.45,7.71,-7.71,-7.98,-8.03,0.74,0.75,0.74
71.48,8.50,7.76,8.50,7.75,-7.76,-8.04,-7.97,0.75,0.74,0.74
72.19,8.54,7.80,8.54,7.80,-7.80,-8.09,-7.91,0.74,0.74,0.74
72.91,8.59,7.85,8.59,7.85,-7.85,-8.14,-7.85,0.74,0.74,0.74
73.64,8.64,7.91,8.64,7.90,-7.90,-8.18,-7.79,0.74,0.74,0.73
74.38,8.68,7.95,8.68,7.95,-7.95,-8.21,-7.73,0.73,0.74,0.73
75.12,8.73,8.00,8.73,8.00,-8.00,-8.24,-7.67,0.73,0.73,0.73
75.87,8.77,8.05,8.77,8.05,-8.05,-8.26,-7.62,0.72,0.72,0.72
76.63,8.82,8.10,8.82,8.10,-8.10,-8.28,-7.57,0.72,0.72,0.72
77.40,8.86,8.15,8.87,8.15,-8.16,-8.29,-7.52,0.71,0.71,0.71
78.17,8.91,8.21,8.91,8.21,-8.21,-8.30,-7.47,0.70,0.70,0.70
78.95,8.96,8.27,8.96,8.26,-8.27,-8.30,-7.43,0.70,0.69,0.69
79.74,9.00,8.32,9.01,8.32,-8.32,-8.30,-7.39,0.68,0.68,0.68
80.54,9.05,8.38,9.05,8.38,-8.38,-8.30,-7.36,0.67,0.67,0.67
81.35,9.10,8.44,9.10,8.44,-8.44,-8.29,-7.33,0.66,0.66,0.66
82.16,9.15,8.50,9.15,8.50,-8.49,-8.28,-7.31,0.66,0.66,0.65
82.98,9.19,8.55,9.19,8.55,-8.55,-8.27,-7.29,0.64,0.64,0.64
83.81,9.23,8.60,9.23,8.60,-8.60,-8.25,-7.28,0.63,0.63,0.63
84.65,9.26,8.65,9.27,8.65,-8.65,-8.24,-7.27,0.61,0.62,0.61
85.50,9.31,8.71,9.30,8.70,-8.70,-8.22,-7.26,0.61,0.61,0.60
86.35,9.34,8.74,9.34,8.74,-8.74,-8.21,-7.26,0.60,0.60,0.60
87.22,9.37,8.78,9.38,8.78,-8.79,-8.19,-7.27,0.58,0.59,0.59
88.09,9.41,8.83,9.41,8.83,-8.83,-8.17,-7.28,0.58,0.58,0.58
88.97,9.44,8.87,9.44,8.87,-8.87,-8.15,-7.30,0.58,0.58,0.57
89.86,9.47,8.91,9.47,8.90,-8.90,-8.13,-7.32,0.57,0.57,0.56
90.76,9.49,8.93,9.49,8.93,-8.93,-8.11,-7.35,0.56,0.56,0.56
91.66,9.51,8.96,9.51,8.96,-8.96,-8.09,-7.38,0.55,0.55,0.55
92.58,9.53,8.98,9.53,8.98,-8.98,-8.07,-7.42,0.55,0.55,0.55
93.51,9.54,9.00,9.55,9.00,-9.00,-8.06,-7.46,0.54,0.55,0.54
94.44,9.56,9.02,9.56,9.02,-9.01,-8.04,-7.51,0.55,0.54,0.54
95.39,9.56,9.03,9.56,9.03,-9.03,-8.02,-7.56,0.54,0.54,0.53
96.34,9.56,9.03,9.57,9.03,-9.03,-8.01,-7.62,0.53,0.53,0.53
97.30,9.56,9.04,9.56,9.04,-9.04,-7.99,-7.68,0.52,0.52,0.52
98.28,9.56,9.04,9.56,9.04,-9.04,-7.98,-7.74,0.52,0.52,0.52
99.26,9.54,9.03,9.55,9.03,-9.03,-7.96,-7.81,0.51,0.51,0.51
100.25,9.53,9.03,9.53,9.03,-9.03,-7.95,-7.88,0.51,0.50,0.50
101.25,9.51,9.02,9.51,9.02,-9.01,-7.94,-7.96,0.50,0.50,0.49
102.27,9.48,9.00,9.48,9.00,-9.00,-7.93,-8.04,0.48,0.49,0.48
103.29,9.45,8.98,9.45,8.98,-8.98,-7.92,-8.12,0.48,0.48,0.47
104.32,9.41,8.95,9.42,8.95,-8.95,-7.91,-8.20,0.46,0.46,0.46
105.37,9.38,8.93,9.38,8.92,-8.92,-7.91,-8.29,0.46,0.45,0.45
106.42,9.33,8.89,9.33,8.89,-8.89,-7.90,-8.37,0.44,0.44,0.44
107.48,9.28,8.85,9.29,8.85,-8.85,-7.90,-8.46,0.43,0.43,0.43
108.56,9.24,8.82,9.24,8.82,-8.82,-7.90,-8.54,0.42,0.42,0.42
109.64,9.19,8.78,9.19,8.78,-8.78,-7.90,-8.62,0.41,0.41,0.41
110.74,9.14,8.74,9.14,8.74,-8.74,-7.90,-8.70,0.40,0.40,0.40
111.85,9.09,8.70,9.09,8.70,-8.70,-7.90,-8.78,0.39,0.39,0.39
112.97,9.04,8.66,9.04,8.66,-8.66,-7.91,-8.85,0.38,0.38,0.38
114.10,8.98,8.61,8.99,8.62,-8.62,-7.91,-8.92,0.37,0.37,0.37
115.24,8.94,8.58,8.94,8.57,-8.57,-7.92,-8.97,0.37,0.37,0.36
116.39,8.88,8.53,8.88,8.53,-8.52,-7.92,-9.03,0.36,0.36,0.35
117.55,8.82,8.48,8.82,8.48,-8.48,-7.93,-9.07,0.35,0.35,0.34
118.73,8.76,8.43,8.76,8.43,-8.43,-7.94,-9.11,0.34,0.34,0.33
119.92,8.70,8.37,8.71,8.37,-8.38,-7.94,-9.13,0.33,0.33,0.33
121.12,8.65,8.33,8.65,8.32,-8.32,-7.95,-9.15,0.33,0.32,0.32
122.33,8.59,8.27,8.59,8.27,-8.27,-7.95,-9.14,0.32,0.32,0.32
123.55,8.53,8.22,8.54,8.22,-8.22,-7.96,-9.14,0.31,0.31,0.31
124.79,8.48,8.17,8.48,8.17,-8.17,-7.96,-9.11,0.31,0.31,0.31
126.03,8.43,8.13,8.43,8.12,-8.13,-7.96,-9.08,0.31,0.30,0.30
127.29,8.38,8.08,8.38,8.08,-8.08,-7.96,-9.02,0.30,0.30,0.30
128.57,8.32,8.02,8.33,8.03,-8.03,-7.96,-8.97,0.29,0.30,0.30
129.85,8.28,7.99,8.28,7.98,-7.98,-7.95,-8.89,0.30,0.30,0.29
131.15,8.22,7.93,8.23,7.93,-7.93,-7.94,-8.81,0.29,0.30,0.29
132.46,8.18,7.89,8.18,7.88,-7.88,-7.92,-8.71,0.30,0.30,0.29
133.79,8.12,7.83,8.12,7.83,-7.83,-7.91,-8.61,0.30,0.29,0.29
135.12,8.06,7.77,8.06,7.77,-7.77,-7.88,-8.49,0.29,0.29,0.29
136.48,8.00,7.71,8.00,7.71,-7.71,-7.85,-8.37,0.29,0.29,0.29
137.84,7.94,7.64,7.94,7.64,-7.64,-7.81,-8.24,0.30,0.30,0.30
139.22,7.88,7.58,7.88,7.58,-7.58,-7.77,-8.11,0.31,0.30,0.30
140.61,7.81,7.51,7.81,7.50,-7.50,-7.72,-7.96,0.31,0.31,0.30
142.02,7.74,7.43,7.74,7.43,-7.43,-7.67,-7.82,0.32,0.31,0.31
143.44,7.66,7.34,7.66,7.35,-7.34,-7.60,-7.67,0.32,0.32,0.32
144.87,7.58,7.26,7.58,7.25,-7.26,-7.54,-7.52,0.33,0.33,0.32
146.32,7.50,7.17,7.50,7.16,-7.16,-7.46,-7.36,0.34,0.33,0.33
147.78,7.40,7.06,7.41,7.07,-7.07,-7.38,-7.21,0.34,0.34,0.34
149.26,7.32,6.98,7.31,6.97,-6.96,-7.29,-7.05,0.36,0.35,0.34
150.75,7.21,6.86,7.22,6.86,-6.86,-7.20,-6.90,0.35,0.36,0.35
152.26,7.11,6.75,7.12,6.75,-6.75,-7.09,-6.74,0.36,0.36,0.36
153.78,7.02,6.65,7.01,6.64,-6.64,-6.99,-6.59,0.38,0.37,0.37
155.32,6.91,6.53,6.91,6.53,-6.53,-6.87,-6.44,0.38,0.38,0.38
156.88,6.81,6.42,6.81,6.42,-6.42,-6.75,-6.28,0.39,0.39,0.39
158.44,6.71,6.31,6.71,6.31,-6.31,-6.63,-6.14,0.40,0.40,0.40
160.03,6.62,6.21,6.61,6.20,-6.20,-6.50,-5.99,0.42,0.41,0.41
161.63,6.51,6.09,6.52,6.09,-6.10,-6.37,-5.85,0.41,0.42,0.42
163.24,6.42,5.99,6.43,5.99,-6.00,-6.24,-5.71,0.43,0.43,0.43
164.88,6.34,5.90,6.34,5.89,-5.90,-6.10,-5.57,0.45,0.44,0.44
166.53,6.25,5.80,6.25,5.80,-5.80,-5.97,-5.44,0.46,0.46,0.45
168.19,6.16,5.70,6.16,5.70,-5.70,-5.83,-5.31,0.46,0.46,0.46
169.87,6.07,5.60,6.07,5.60,-5.60,-5.68,-5.18,0.47,0.47,0.47
171.57,5.98,5.51,5.98,5.50,-5.50,-5.54,-5.06,0.48,0.48,0.47
173.29,5.89,5.41,5.89,5.41,-5.41,-5.40,-4.93,0.48,0.49,0.48
175.02,5.80,5.31,5.80,5.31,-5.31,-5.26,-4.82,0.49,0.49,0.49
176.77,5.71,5.22,5.71,5.21,-5.21,-5.12,-4.70,0.50,0.50,0.49
178.54,5.61,5.11,5.61,5.11,-5.11,-4.97,-4.60,0.50,0.50,0.50
180.32,5.51,5.01,5.51,5.01,-5.01,-4.83,-4.49,0.50,0.50,0.50
182.13,5.41,4.91,5.41,4.91,-4.91,-4.70,-4.39,0.50,0.50,0.50
183.95,5.31,4.81,5.31,4.81,-4.81,-4.56,-4.28,0.50,0.50,0.50
185.79,5.21,4.71,5.21,4.71,-4.71,-4.42,-4.19,0.51,0.51,0.50
187.65,5.11,4.61,5.11,4.60,-4.60,-4.29,-4.09,0.51,0.51,0.50
189.52,4.99,4.49,5.00,4.50,-4.49,-4.15,-4.01,0.50,0.51,0.50
191.42,4.89,4.39,4.89,4.38,-4.38,-4.02,-3.92,0.51,0.50,0.50
193.33,4.77,4.27,4.77,4.27,-4.27,-3.90,-3.83,0.50,0.50,0.50
195.27,4.66,4.16,4.66,4.16,-4.16,-3.77,-3.75,0.50,0.50,0.50
197.22,4.53,4.04,4.54,4.04,-4.04,-3.65,-3.67,0.49,0.50,0.49
199.19,4.42,3.93,4.42,3.93,-3.93,-3.52,-3.60,0.50,0.49,0.49
201.18,4.30,3.82,4.29,3.81,-3.81,-3.40,-3.52,0.49,0.49,0.48
203.19,4.16,3.68,4.17,3.69,-3.69,-3.29,-3.45,0.47,0.48,0.48
205.23,4.04,3.57,4.04,3.57,-3.57,-3.17,-3.38,0.47,0.47,0.47
207.28,3.92,3.45,3.92,3.45,-3.45,-3.06,-3.31,0.47,0.47,0.47
209.35,3.79,3.33,3.79,3.33,-3.33,-2.95,-3.25,0.46,0.46,0.46
211.44,3.67,3.22,3.67,3.21,-3.21,-2.84,-3.18,0.46,0.46,0.45
213.56,3.54,3.09,3.54,3.09,-3.10,-2.74,-3.12,0.45,0.45,0.45
215.69,3.42,2.98,3.42,2.98,-2.98,-2.64,-3.06,0.44,0.44,0.44
217.85,3.30,2.86,3.30,2.86,-2.87,-2.54,-3.00,0.43,0.44,0.44
220.03,3.19,2.76,3.19,2.76,-2.75,-2.44,-2.94,0.44,0.44,0.43
222.23,3.08,2.65,3.08,2.65,-2.64,-2.34,-2.88,0.44,0.44,0.43
224.45,2.97,2.54,2.97,2.54,-2.53,-2.25,-2.82,0.44,0.44,0.43
226.70,2.85,2.42,2.85,2.42,-2.42,-2.16,-2.76,0.44,0.44,0.43
228.96,2.74,2.31,2.74,2.31,-2.30,-2.07,-2.71,0.44,0.44,0.43
231.25,2.63,2.20,2.63,2.19,-2.19,-1.98,-2.65,0.44,0.44,0.43
233.57,2.52,2.08,2.52,2.08,-2.08,-1.89,-2.59,0.44,0.44,0.44
235.90,2.42,1.98,2.42,1.98,-1.98,-1.81,-2.53,0.44,0.44,0.44
238.26,2.33,1.88,2.33,1.88,-1.88,-1.73,-2.48,0.45,0.45,0.45
240.64,2.24,1.78,2.24,1.78,-1.79,-1.65,-2.42,0.45,0.45,0.46
243.05,2.16,1.70,2.16,1.70,-1.70,-1.57,-2.36,0.46,0.46,0.46
245.48,2.09,1.62,2.09,1.62,-1.62,-1.49,-2.30,0.47,0.47,0.47
247.93,2.03,1.55,2.03,1.55,-1.55,-1.41,-2.24,0.48,0.48,0.48
250.41,1.98,1.49,1.98,1.49,-1.49,-1.34,-2.18,0.49,0.49,0.49
252.92,1.93,1.44,1.93,1.43,-1.43,-1.27,-2.11,0.50,0.50,0.49
255.45,1.87,1.37,1.88,1.37,-1.38,-1.19,-2.05,0.50,0.50,0.50
258.00,1.83,1.32,1.83,1.32,-1.32,-1.12,-1.99,0.51,0.51,0.51
260.58,1.79,1.28,1.79,1.27,-1.27,-1.05,-1.92,0.52,0.51,0.51
263.19,1.74,1.23,1.74,1.23,-1.22,-0.99,-1.85,0.52,0.52,0.51
265.82,1.69,1.17,1.69,1.17,-1.17,-0.92,-1.78,0.52,0.52,0.52
268.48,1.64,1.12,1.64,1.12,-1.11,-0.85,-1.72,0.53,0.52,0.52
271.16,1.58,1.06,1.58,1.06,-1.06,-0.79,-1.65,0.53,0.53,0.52
273.87,1.52,1.00,1.52,1.00,-1.00,-0.72,-1.57,0.53,0.53,0.52
276.61,1.46,0.93,1.46,0.93,-0.93,-0.66,-1.50,0.53,0.53,0.53
279.38,1.40,0.87,1.40,0.87,-0.86,-0.60,-1.43,0.54,0.53,0.53
282.17,1.33,0.80,1.33,0.79,-0.80,-0.53,-1.36,0.54,0.54,0.53
284.99,1.26,0.72,1.26,0.72,-0.72,-0.47,-1.28,0.54,0.54,0.54
287.84,1.19,0.65,1.19,0.65,-0.65,-0.41,-1.21,0.54,0.54,0.54
290.72,1.13,0.58,1.12,0.57,-0.58,-0.35,-1.13,0.56,0.55,0.55
293.63,1.05,0.50,1.05,0.50,-0.50,-0.29,-1.05,0.55,0.56,0.55
296.57,0.98,0.42,0.98,0.42,-0.42,-0.23,-0.98,0.56,0.56,0.56
299.53,0.91,0.35,0.91,0.34,-0.34,-0.17,-0.90,0.57,0.56,0.56
302.53,0.84,0.27,0.84,0.27,-0.27,-0.11,-0.82,0.58,0.57,0.57
305.55,0.76,0.18,0.77,0.19,-0.19,-0.06,-0.74,0.57,0.58,0.58
308.61,0.70,0.11,0.70,0.11,-0.11,0.00,-0.66,0.60,0.59,0.59
311.69,0.63,0.03,0.63,0.03,-0.03,0.06,-0.58,0.61,0.60,0.60
314.81,0.56,-0.05,0.56,-0.05,0.06,0.12,-0.50,0.62,0.62,0.61
317.96,0.48,-0.14,0.49,-0.14,0.14,0.17,-0.42,0.62,0.62,0.62
321.14,0.42,-0.21,0.42,-0.22,0.22,0.23,-0.34,0.64,0.63,0.63
324.35,0.34,-0.30,0.34,-0.30,0.30,0.29,-0.26,0.64,0.64,0.64
327.59,0.27,-0.38,0.27,-0.38,0.38,0.34,-0.18,0.65,0.65,0.65
330.87,0.20,-0.45,0.20,-0.45,0.45,0.40,-0.09,0.65,0.65,0.65
334.18,0.13,-0.53,0.13,-0.53,0.52,0.46,-0.01,0.66,0.66,0.66
337.52,0.07,-0.59,0.07,-0.60,0.59,0.51,0.07,0.67,0.66,0.66
340.90,0.00,-0.67,0.00,-0.67,0.66,0.57,0.15,0.66,0.66,0.67
344.30,-0.07,-0.74,-0.06,-0.74,0.73,0.63,0.24,0.66,0.67,0.67
347.75,-0.13,-0.80,-0.13,-0.80,0.80,0.68,0.32,0.67,0.68,0.67
351.23,-0.19,-0.86,-0.19,-0.86,0.88,0.74,0.41,0.69,0.68,0.67
354.74,-0.26,-0.93,-0.27,-0.94,0.95,0.80,0.49,0.69,0.68,0.67
358.28,-0.36,-1.02,-0.35,-1.02,1.03,0.86,0.58,0.67,0.68,0.66
361.87,-0.45,-1.11,-0.44,-1.11,1.11,0.91,0.67,0.66,0.66,0.66
365.49,-0.53,-1.19,-0.53,-1.19,1.19,0.97,0.75,0.66,0.66,0.66
369.14,-0.62,-1.28,-0.61,-1.28,1.27,1.03,0.84,0.65,0.66,0.66
372.83,-0.69,-1.35,-0.69,-1.36,1.35,1.08,0.93,0.66,0.66,0.66
376.56,-0.76,-1.43,-0.76,-1.43,1.43,1.14,1.02,0.67,0.67,0.67
380.33,-0.84,-1.51,-0.83,-1.51,1.51,1.20,1.10,0.67,0.67,0.67
384.13,-0.90,-1.57,-0.90,-1.58,1.58,1.26,1.19,0.68,0.68,0.67
387.97,-0.97,-1.65,-0.97,-1.64,1.64,1.31,1.28,0.68,0.68,0.68
391.85,-1.02,-1.70,-1.02,-1.71,1.71,1.37,1.37,0.69,0.69,0.68
395.77,-1.08,-1.77,-1.07,-1.77,1.77,1.43,1.46,0.69,0.69,0.69
399.73,-1.12,-1.82,-1.12,-1.82,1.82,1.48,1.55,0.71,0.70,0.70
403.72,-1.17,-1.87,-1.17,-1.88,1.87,1.54,1.64,0.71,0.71,0.70
407.76,-1.21,-1.92,-1.21,-1.92,1.92,1.59,1.73,0.71,0.71,0.71
411.84,-1.25,-1.97,-1.24,-1.97,1.96,1.65,1.82,0.71,0.72,0.72
415.96,-1.27,-2.00,-1.27,-2.00,2.00,1.70,1.90,0.73,0.73,0.73
420.12,-1.29,-2.02,-1.29,-2.03,2.03,1.76,1.99,0.74,0.74,0.73
424.32,-1.31,-2.05,-1.31,-2.05,2.05,1.81,2.07,0.75,0.74,0.74
428.56,-1.33,-2.08,-1.32,-2.08,2.07,1.86,2.16,0.75,0.75,0.75
432.85,-1.33,-2.09,-1.33,-2.09,2.09,1.91,2.24,0.76,0.76,0.76
437.18,-1.33,-2.10,-1.33,-2.10,2.10,1.96,2.32,0.77,0.77,0.77
441.55,-1.32,-2.10,-1.32,-2.10,2.10,2.01,2.40,0.79,0.78,0.78
445.96,-1.32,-2.11,-1.31,-2.11,2.11,2.06,2.47,0.79,0.79,0.79
450.42,-1.30,-2.10,-1.30,-2.11,2.11,2.10,2.54,0.81,0.80,0.80
454.93,-1.30,-2.11,-1.29,-2.11,2.11,2.15,2.61,0.81,0.81,0.81
459.48,-1.28,-2.10,-1.28,-2.10,2.10,2.19,2.67,0.82,0.82,0.82
464.07,-1.27,-2.10,-1.27,-2.10,2.10,2.23,2.73,0.83,0.83,0.83
468.71,-1.25,-2.09,-1.25,-2.09,2.10,2.27,2.79,0.85,0.84,0.84
473.40,-1.24,-2.09,-1.24,-2.09,2.09,2.30,2.84,0.86,0.86,0.85
478.13,-1.23,-2.09,-1.23,-2.09,2.10,2.34,2.88,0.87,0.87,0.86
482.91,-1.22,-2.10,-1.22,-2.10,2.10,2.37,2.93,0.88,0.88,0.88
487.74,-1.21,-2.10,-1.21,-2.10,2.10,2.40,2.96,0.90,0.90,0.89
492.62,-1.20,-2.11,-1.20,-2.11,2.11,2.42,2.99,0.92,0.91,0.91
497.55,-1.20,-2.12,-1.20,-2.12,2.13,2.45,3.01,0.93,0.93,0.92
502.52,-1.20,-2.14,-1.20,-2.14,2.14,2.47,3.03,0.94,0.94,0.94
507.55,-1.20,-2.16,-1.20,-2.16,2.16,2.48,3.05,0.96,0.96,0.96
