frequency,raw,error,smoothed,error_smoothed,equalization,parametric_eq,fixed_band_eq,equalized_raw,equalized_smoothed,target
20.00,-4.78,-8.18,-4.78,-8.18,6.00,5.71,2.81,1.22,1.22,3.40
20.20,-4.78,-8.17,-4.78,-8.17,6.00,5.73,2.89,1.22,1.22,3.39
20.40,-4.78,-8.16,-4.78,-8.16,6.00,5.75,2.97,1.22,1.22,3.38
20.61,-4.78,-8.16,-4.78,-8.15,6.00,5.77,3.05,1.22,1.22,3.38
20.81,-4.78,-8.14,-4.78,-8.14,6.00,5.79,3.14,1.22,1.22,3.36
21.02,-4.78,-8.14,-4.78,-8.14,6.00,5.81,3.23,1.22,1.22,3.36
21.23,-4.78,-8.14,-4.78,-8.13,6.00,5.82,3.32,1.22,1.22,3.36
21.44,-4.78,-8.14,-4.78,-8.13,6.00,5.84,3.41,1.22,1.22,3.36
21.66,-4.77,-8.12,-4.77,-8.13,6.00,5.86,3.50,1.23,1.23,3.35
21.87,-4.77,-8.11,-4.76,-8.11,6.00,5.87,3.60,1.23,1.24,3.35
22.09,-4.75,-8.09,-4.74,-8.08,6.00,5.89,3.70,1.25,1.26,3.35
22.31,-4.70,-8.04,-4.70,-8.05,6.00,5.90,3.80,1.30,1.30,3.35
22.54,-4.66,-7.99,-4.65,-7.99,6.00,5.92,3.91,1.34,1.35,3.34
22.76,-4.61,-7.95,-4.60,-7.95,6.00,5.93,4.02,1.39,1.40,3.34
22.99,-4.56,-7.90,-4.57,-7.92,6.00,5.95,4.13,1.44,1.43,3.34
23.22,-4.56,-7.90,-4.56,-7.90,6.00,5.96,4.24,1.44,1.44,3.34
23.45,-4.56,-7.90,-4.55,-7.90,6.00,5.98,4.36,1.44,1.45,3.34
23.69,-4.56,-7.91,-4.56,-7.91,6.00,5.99,4.48,1.44,1.44,3.35
23.92,-4.56,-7.91,-4.56,-7.92,6.00,6.00,4.60,1.44,1.44,3.35
24.16,-4.56,-7.93,-4.56,-7.93,6.00,6.01,4.72,1.44,1.44,3.37
24.40,-4.56,-7.94,-4.56,-7.94,6.00,6.03,4.85,1.44,1.44,3.38
24.65,-4.56,-7.94,-4.56,-7.94,6.00,6.04,4.97,1.44,1.44,3.38
24.89,-4.56,-7.94,-4.55,-7.93,6.00,6.05,5.10,1.44,1.45,3.38
25.14,-4.55,-7.92,-4.54,-7.91,6.00,6.06,5.23,1.45,1.46,3.37
25.39,-4.52,-7.89,-4.52,-7.89,6.00,6.07,5.36,1.48,1.48,3.37
25.65,-4.50,-7.87,-4.50,-7.87,6.00,6.08,5.49,1.50,1.50,3.38
25.91,-4.48,-7.85,-4.47,-7.85,6.00,6.09,5.62,1.52,1.53,3.38
26.16,-4.45,-7.82,-4.44,-7.82,6.00,6.10,5.75,1.55,1.56,3.38
26.43,-4.41,-7.78,-4.41,-7.78,6.00,6.11,5.88,1.59,1.59,3.37
26.69,-4.37,-7.74,-4.37,-7.74,6.00,6.11,6.01,1.63,1.63,3.37
26.96,-4.34,-7.71,-4.34,-7.71,6.00,6.12,6.14,1.66,1.66,3.37
27.23,-4.33,-7.69,-4.33,-7.69,6.00,6.13,6.26,1.67,1.67,3.36
27.50,-4.33,-7.69,-4.33,-7.69,6.00,6.14,6.39,1.67,1.67,3.36
27.77,-4.33,-7.69,-4.33,-7.69,6.00,6.14,6.50,1.67,1.67,3.36
28.05,-4.33,-7.69,-4.33,-7.68,6.00,6.15,6.62,1.67,1.67,3.36
28.33,-4.33,-7.68,-4.33,-7.68,6.00,6.16,6.72,1.67,1.67,3.36
28.62,-4.33,-7.67,-4.33,-7.68,6.00,6.16,6.83,1.67,1.67,3.35
28.90,-4.33,-7.67,-4.33,-7.67,6.00,6.17,6.92,1.67,1.67,3.34
29.19,-4.33,-7.66,-4.33,-7.66,6.00,6.17,7.01,1.67,1.67,3.33
29.48,-4.33,-7.66,-4.33,-7.66,6.00,6.17,7.09,1.67,1.67,3.33
29.78,-4.33,-7.65,-4.33,-7.65,6.00,6.18,7.16,1.67,1.67,3.32
30.08,-4.32,-7.65,-4.31,-7.63,6.00,6.18,7.22,1.68,1.69,3.33
30.38,-4.27,-7.57,-4.27,-7.58,6.00,6.18,7.28,1.73,1.73,3.31
30.68,-4.22,-7.51,-4.22,-7.52,6.00,6.19,7.32,1.78,1.78,3.29
30.99,-4.17,-7.45,-4.18,-7.46,6.00,6.19,7.35,1.83,1.82,3.28
31.30,-4.15,-7.43,-4.15,-7.42,6.00,6.19,7.37,1.85,1.85,3.28
31.61,-4.13,-7.41,-4.12,-7.40,6.00,6.19,7.38,1.87,1.88,3.28
31.93,-4.11,-7.36,-4.11,-7.37,6.00,6.19,7.38,1.89,1.89,3.26
32.24,-4.10,-7.35,-4.10,-7.35,6.00,6.19,7.37,1.90,1.90,3.25
32.57,-4.10,-7.34,-4.10,-7.34,6.00,6.19,7.35,1.90,1.90,3.24
32.89,-4.10,-7.34,-4.10,-7.34,6.00,6.19,7.33,1.90,1.90,3.24
33.22,-4.10,-7.34,-4.10,-7.34,6.00,6.19,7.29,1.90,1.90,3.24
33.55,-4.10,-7.34,-4.10,-7.34,6.00,6.19,7.25,1.90,1.90,3.25
33.89,-4.10,-7.35,-4.10,-7.34,6.00,6.19,7.19,1.90,1.90,3.25
34.23,-4.10,-7.34,-4.10,-7.34,6.00,6.19,7.14,1.90,1.90,3.24
34.57,-4.10,-7.33,-4.10,-7.34,6.00,6.18,7.07,1.90,1.90,3.24
34.92,-4.10,-7.33,-4.10,-7.33,6.00,6.18,7.00,1.90,1.90,3.23
35.27,-4.10,-7.34,-4.10,-7.33,6.00,6.18,6.93,1.90,1.90,3.24
35.62,-4.10,-7.32,-4.10,-7.33,6.00,6.17,6.86,1.90,1.90,3.22
35.97,-4.10,-7.32,-4.10,-7.32,6.00,6.17,6.78,1.90,1.90,3.22
36.33,-4.10,-7.31,-4.10,-7.31,6.00,6.17,6.70,1.90,1.90,3.21
36.70,-4.10,-7.30,-4.10,-7.30,6.00,6.16,6.62,1.90,1.90,3.20
37.06,-4.10,-7.28,-4.10,-7.28,6.00,6.16,6.54,1.90,1.90,3.18
37.43,-4.10,-7.26,-4.10,-7.26,6.00,6.15,6.46,1.90,1.90,3.16
37.81,-4.10,-7.24,-4.10,-7.24,6.00,6.14,6.38,1.90,1.90,3.15
38.19,-4.10,-7.22,-4.10,-7.22,6.00,6.14,6.30,1.90,1.90,3.12
38.57,-4.10,-7.19,-4.10,-7.19,6.00,6.13,6.22,1.90,1.90,3.09
38.95,-4.10,-7.16,-4.10,-7.16,6.00,6.12,6.15,1.90,1.90,3.06
39.34,-4.10,-7.13,-4.10,-7.13,6.00,6.11,6.07,1.90,1.90,3.03
39.74,-4.10,-7.10,-4.10,-7.10,6.00,6.11,6.00,1.90,1.90,3.00
40.14,-4.10,-7.07,-4.10,-7.07,6.00,6.10,5.94,1.90,1.90,2.97
40.54,-4.10,-7.04,-4.10,-7.04,6.00,6.09,5.87,1.90,1.90,2.94
40.94,-4.10,-7.02,-4.10,-7.02,6.00,6.08,5.81,1.90,1.90,2.92
41.35,-4.10,-7.00,-4.11,-7.00,6.00,6.07,5.75,1.90,1.89,2.90
41.76,-4.10,-6.97,-4.09,-6.97,6.00,6.06,5.70,1.90,1.91,2.88
42.18,-4.06,-6.92,-4.03,-6.89,6.00,6.05,5.65,1.94,1.97,2.86
42.60,-3.96,-6.79,-3.96,-6.80,6.00,6.04,5.61,2.04,2.04,2.83
43.03,-3.87,-6.68,-3.90,-6.71,6.00,6.03,5.57,2.13,2.10,2.81
43.46,-3.87,-6.65,-3.86,-6.64,6.00,6.02,5.53,2.13,2.14,2.78
43.90,-3.87,-6.62,-3.86,-6.62,6.00,6.01,5.49,2.13,2.14,2.75
44.33,-3.87,-6.60,-3.87,-6.60,6.00,5.99,5.47,2.13,2.13,2.74
44.78,-3.87,-6.58,-3.87,-6.58,6.00,5.98,5.44,2.13,2.13,2.71
45.23,-3.87,-6.56,-3.87,-6.55,6.00,5.97,5.42,2.13,2.13,2.69
45.68,-3.87,-6.52,-3.87,-6.52,6.00,5.96,5.40,2.13,2.13,2.65
46.13,-3.87,-6.49,-3.87,-6.49,6.00,5.95,5.39,2.13,2.13,2.62
46.60,-3.87,-6.46,-3.87,-6.46,6.00,5.93,5.38,2.13,2.13,2.60
47.06,-3.87,-6.43,-3.87,-6.43,6.00,5.92,5.38,2.13,2.13,2.57
47.53,-3.87,-6.40,-3.87,-6.40,6.00,5.91,5.38,2.13,2.13,2.54
48.01,-3.87,-6.35,-3.87,-6.36,6.00,5.90,5.38,2.13,2.13,2.49
48.49,-3.87,-6.32,-3.87,-6.32,6.00,5.88,5.38,2.13,2.13,2.46
48.97,-3.87,-6.27,-3.87,-6.28,6.00,5.87,5.39,2.13,2.13,2.41
49.46,-3.87,-6.24,-3.87,-6.24,6.00,5.86,5.41,2.13,2.13,2.37
49.96,-3.87,-6.19,-3.87,-6.20,6.00,5.85,5.42,2.14,2.14,2.32
50.46,-3.87,-6.17,-3.87,-6.17,6.01,5.83,5.44,2.14,2.14,2.30
50.96,-3.87,-6.14,-3.87,-6.14,6.02,5.82,5.46,2.15,2.15,2.27
51.47,-3.87,-6.10,-3.87,-6.10,6.01,5.81,5.48,2.15,2.15,2.24
51.99,-3.87,-6.07,-3.87,-6.07,6.00,5.80,5.50,2.13,2.13,2.20
52.51,-3.87,-6.03,-3.87,-6.04,5.97,5.79,5.53,2.10,2.10,2.16
53.03,-3.87,-6.00,-3.88,-6.01,5.93,5.77,5.56,2.06,2.05,2.14
53.56,-3.87,-5.95,-3.86,-5.94,5.89,5.76,5.58,2.02,2.03,2.08
54.10,-3.85,-5.88,-3.80,-5.84,5.85,5.75,5.61,2.00,2.05,2.04
54.64,-3.72,-5.71,-3.75,-5.74,5.81,5.73,5.64,2.09,2.06,1.99
55.18,-3.68,-5.62,-3.74,-5.69,5.77,5.71,5.66,2.09,2.02,1.95
55.74,-3.81,-5.72,-3.77,-5.69,5.73,5.70,5.68,1.92,1.96,1.91
56.29,-3.87,-5.75,-3.84,-5.72,5.70,5.67,5.71,1.83,1.86,1.88
56.86,-3.87,-5.72,-3.88,-5.72,5.67,5.65,5.73,1.81,1.80,1.85
57.42,-3.87,-5.67,-3.87,-5.68,5.66,5.62,5.74,1.79,1.79,1.81
58.00,-3.87,-5.64,-3.87,-5.65,5.65,5.59,5.76,1.78,1.78,1.78
58.58,-3.87,-5.62,-3.87,-5.62,5.63,5.56,5.77,1.76,1.76,1.76
59.16,-3.87,-5.60,-3.87,-5.60,5.60,5.53,5.77,1.73,1.73,1.74
59.76,-3.87,-5.57,-3.87,-5.57,5.56,5.49,5.77,1.69,1.69,1.71
60.35,-3.87,-5.52,-3.87,-5.53,5.52,5.45,5.77,1.65,1.65,1.65
60.96,-3.87,-5.48,-3.87,-5.48,5.47,5.41,5.76,1.60,1.60,1.61
61.57,-3.87,-5.43,-3.87,-5.43,5.43,5.37,5.75,1.56,1.56,1.56
62.18,-3.87,-5.37,-3.87,-5.38,5.39,5.33,5.73,1.52,1.52,1.51
62.80,-3.87,-5.33,-3.87,-5.33,5.35,5.29,5.70,1.48,1.48,1.46
63.43,-3.87,-5.28,-3.87,-5.29,5.30,5.25,5.67,1.44,1.44,1.42
64.07,-3.87,-5.25,-3.87,-5.24,5.26,5.21,5.63,1.39,1.39,1.38
64.71,-3.87,-5.20,-3.87,-5.20,5.20,5.17,5.59,1.33,1.33,1.33
65.35,-3.87,-5.15,-3.88,-5.17,5.14,5.12,5.54,1.27,1.26,1.29
66.01,-3.87,-5.12,-3.88,-5.12,5.07,5.08,5.49,1.20,1.19,1.25
66.67,-3.87,-5.08,-3.83,-5.04,4.99,5.04,5.43,1.13,1.16,1.21
67.33,-3.79,-4.94,-3.76,-4.92,4.92,5.00,5.36,1.13,1.15,1.15
68.01,-3.64,-4.75,-3.69,-4.80,4.84,4.96,5.30,1.20,1.15,1.11
68.69,-3.64,-4.71,-3.64,-4.70,4.76,4.92,5.23,1.12,1.12,1.07
69.37,-3.64,-4.66,-3.62,-4.65,4.69,4.88,5.15,1.05,1.06,1.03
70.07,-3.64,-4.62,-3.64,-4.62,4.62,4.84,5.07,0.98,0.98,0.98
70.77,-3.64,-4.58,-3.64,-4.57,4.56,4.80,4.99,0.92,0.92,0.94
71.48,-3.64,-4.52,-3.64,-4.52,4.51,4.76,4.91,0.87,0.87,0.88
72.19,-3.64,-4.48,-3.64,-4.48,4.46,4.72,4.83,0.83,0.83,0.84
72.91,-3.64,-4.43,-3.64,-4.43,4.42,4.68,4.75,0.79,0.79,0.79
73.64,-3.64,-4.38,-3.64,-4.38,4.38,4.64,4.66,0.75,0.75,0.74
74.38,-3.64,-4.33,-3.64,-4.34,4.34,4.60,4.58,0.71,0.71,0.70
75.12,-3.64,-4.30,-3.64,-4.30,4.30,4.55,4.49,0.66,0.66,0.66
75.87,-3.64,-4.27,-3.64,-4.26,4.27,4.51,4.41,0.63,0.63,0.63
76.63,-3.64,-4.23,-3.64,-4.23,4.23,4.47,4.32,0.59,0.59,0.60
77.40,-3.64,-4.20,-3.64,-4.20,4.20,4.43,4.24,0.56,0.56,0.57
78.17,-3.64,-4.16,-3.64,-4.17,4.17,4.39,4.16,0.53,0.53,0.52
78.95,-3.64,-4.15,-3.64,-4.14,4.14,4.34,4.08,0.51,0.51,0.51
79.74,-3.64,-4.11,-3.64,-4.11,4.11,4.30,4.00,0.48,0.48,0.48
80.54,-3.64,-4.09,-3.64,-4.09,4.09,4.26,3.93,0.45,0.45,0.45
81.35,-3.64,-4.05,-3.64,-4.06,4.05,4.22,3.85,0.42,0.42,0.41
82.16,-3.64,-4.04,-3.64,-4.03,4.02,4.17,3.78,0.38,0.38,0.40
82.98,-3.64,-3.99,-3.64,-3.99,3.99,4.13,3.71,0.35,0.35,0.35
83.81,-3.64,-3.95,-3.64,-3.95,3.95,4.09,3.64,0.32,0.32,0.31
84.65,-3.64,-3.91,-3.64,-3.91,3.92,4.04,3.58,0.28,0.28,0.27
85.50,-3.64,-3.87,-3.64,-3.88,3.88,4.00,3.51,0.24,0.24,0.23
86.35,-3.64,-3.84,-3.64,-3.84,3.84,3.95,3.45,0.20,0.20,0.20
87.22,-3.64,-3.80,-3.64,-3.80,3.80,3.91,3.40,0.16,0.16,0.16
88.09,-3.64,-3.76,-3.64,-3.76,3.76,3.86,3.34,0.12,0.12,0.12
88.97,-3.64,-3.72,-3.64,-3.72,3.72,3.82,3.29,0.08,0.08,0.08
89.86,-3.64,-3.67,-3.64,-3.67,3.68,3.77,3.24,0.04,0.04,0.04
90.76,-3.64,-3.63,-3.64,-3.63,3.63,3.73,3.19,-0.00,-0.00,-0.01
91.66,-3.64,-3.59,-3.64,-3.59,3.59,3.68,3.15,-0.05,-0.05,-0.05
92.58,-3.64,-3.54,-3.64,-3.55,3.55,3.64,3.10,-0.09,-0.09,-0.09
93.51,-3.64,-3.51,-3.64,-3.50,3.50,3.59,3.06,-0.13,-0.13,-0.13
94.44,-3.64,-3.46,-3.64,-3.46,3.46,3.55,3.02,-0.18,-0.18,-0.17
95.39,-3.64,-3.42,-3.64,-3.42,3.41,3.50,2.99,-0.22,-0.22,-0.22
96.34,-3.64,-3.37,-3.64,-3.37,3.37,3.45,2.95,-0.27,-0.27,-0.27
97.30,-3.64,-3.32,-3.64,-3.32,3.32,3.41,2.92,-0.32,-0.32,-0.31
98.28,-3.64,-3.28,-3.64,-3.27,3.28,3.36,2.89,-0.36,-0.36,-0.36
99.26,-3.64,-3.22,-3.64,-3.23,3.23,3.31,2.87,-0.41,-0.41,-0.42
100.25,-3.64,-3.18,-3.64,-3.19,3.19,3.26,2.84,-0.45,-0.45,-0.45
101.25,-3.64,-3.16,-3.64,-3.15,3.15,3.22,2.81,-0.49,-0.49,-0.48
102.27,-3.64,-3.11,-3.64,-3.11,3.11,3.17,2.79,-0.53,-0.53,-0.53
103.29,-3.64,-3.06,-3.64,-3.07,3.07,3.12,2.77,-0.57,-0.57,-0.58
104.32,-3.64,-3.03,-3.64,-3.03,3.03,3.08,2.75,-0.61,-0.61,-0.61
105.37,-3.64,-2.99,-3.64,-2.99,3.00,3.03,2.73,-0.64,-0.64,-0.64
106.42,-3.64,-2.97,-3.64,-2.96,2.98,2.98,2.71,-0.66,-0.66,-0.67
107.48,-3.64,-2.92,-3.64,-2.93,2.95,2.93,2.69,-0.69,-0.69,-0.72
108.56,-3.64,-2.90,-3.64,-2.90,2.91,2.88,2.68,-0.73,-0.73,-0.74
109.64,-3.64,-2.87,-3.64,-2.87,2.86,2.84,2.66,-0.78,-0.78,-0.76
110.74,-3.64,-2.84,-3.66,-2.86,2.80,2.79,2.64,-0.83,-0.85,-0.80
111.85,-3.64,-2.81,-3.62,-2.79,2.74,2.74,2.63,-0.90,-0.88,-0.83
112.97,-3.62,-2.76,-3.56,-2.70,2.67,2.69,2.61,-0.94,-0.88,-0.86
114.10,-3.42,-2.53,-3.49,-2.59,2.60,2.65,2.59,-0.82,-0.88,-0.89
115.24,-3.42,-2.48,-3.43,-2.49,2.53,2.60,2.57,-0.88,-0.89,-0.94
116.39,-3.42,-2.42,-3.40,-2.41,2.46,2.55,2.55,-0.95,-0.93,-0.99
117.55,-3.42,-2.39,-3.42,-2.38,2.40,2.50,2.53,-1.02,-1.02,-1.03
118.73,-3.42,-2.34,-3.42,-2.35,2.34,2.46,2.51,-1.07,-1.07,-1.08
119.92,-3.42,-2.31,-3.42,-2.31,2.30,2.41,2.49,-1.12,-1.12,-1.11
121.12,-3.42,-2.28,-3.42,-2.27,2.26,2.36,2.47,-1.16,-1.16,-1.13
122.33,-3.42,-2.23,-3.42,-2.24,2.23,2.31,2.44,-1.19,-1.19,-1.19
123.55,-3.42,-2.20,-3.42,-2.20,2.19,2.27,2.41,-1.23,-1.23,-1.22
124.79,-3.42,-2.15,-3.42,-2.15,2.15,2.22,2.38,-1.27,-1.27,-1.26
126.03,-3.42,-2.10,-3.42,-2.10,2.10,2.17,2.35,-1.31,-1.31,-1.31
127.29,-3.42,-2.05,-3.42,-2.06,2.06,2.13,2.32,-1.36,-1.36,-1.37
128.57,-3.42,-2.01,-3.42,-2.01,2.01,2.08,2.29,-1.41,-1.41,-1.41
129.85,-3.42,-1.97,-3.42,-1.97,1.97,2.03,2.25,-1.45,-1.45,-1.45
131.15,-3.42,-1.92,-3.42,-1.92,1.92,1.99,2.21,-1.49,-1.49,-1.49
132.46,-3.42,-1.87,-3.42,-1.88,1.88,1.94,2.17,-1.54,-1.54,-1.54
133.79,-3.42,-1.84,-3.42,-1.84,1.84,1.89,2.13,-1.58,-1.58,-1.58
135.12,-3.42,-1.80,-3.42,-1.80,1.80,1.85,2.09,-1.61,-1.61,-1.62
136.48,-3.42,-1.77,-3.42,-1.77,1.77,1.80,2.05,-1.65,-1.65,-1.64
137.84,-3.42,-1.74,-3.42,-1.74,1.73,1.76,2.00,-1.69,-1.69,-1.68
139.22,-3.42,-1.70,-3.42,-1.70,1.70,1.71,1.96,-1.72,-1.72,-1.72
140.61,-3.42,-1.66,-3.42,-1.66,1.66,1.67,1.91,-1.75,-1.75,-1.76
142.02,-3.42,-1.63,-3.42,-1.63,1.63,1.62,1.86,-1.79,-1.79,-1.79
143.44,-3.42,-1.60,-3.42,-1.60,1.60,1.58,1.81,-1.82,-1.82,-1.82
144.87,-3.42,-1.57,-3.42,-1.57,1.57,1.54,1.76,-1.85,-1.85,-1.85
146.32,-3.42,-1.54,-3.42,-1.54,1.54,1.49,1.71,-1.88,-1.88,-1.88
147.78,-3.42,-1.51,-3.42,-1.51,1.50,1.45,1.66,-1.91,-1.91,-1.91
149.26,-3.42,-1.48,-3.42,-1.48,1.47,1.41,1.61,-1.94,-1.94,-1.94
150.75,-3.42,-1.44,-3.42,-1.44,1.44,1.36,1.56,-1.97,-1.97,-1.98
152.26,-3.42,-1.41,-3.42,-1.41,1.41,1.32,1.51,-2.00,-2.00,-2.00
153.78,-3.42,-1.38,-3.42,-1.38,1.38,1.28,1.46,-2.04,-2.04,-2.04
155.32,-3.42,-1.35,-3.42,-1.35,1.35,1.24,1.41,-2.07,-2.07,-2.06
156.88,-3.42,-1.32,-3.42,-1.32,1.32,1.20,1.36,-2.10,-2.10,-2.10
158.44,-3.42,-1.29,-3.42,-1.29,1.28,1.16,1.31,-2.13,-2.13,-2.13
160.03,-3.42,-1.25,-3.42,-1.25,1.25,1.12,1.26,-2.17,-2.17,-2.16
161.63,-3.42,-1.22,-3.42,-1.22,1.22,1.08,1.21,-2.20,-2.20,-2.20
163.24,-3.42,-1.18,-3.42,-1.18,1.19,1.04,1.16,-2.23,-2.23,-2.24
164.88,-3.42,-1.15,-3.42,-1.15,1.15,1.00,1.12,-2.26,-2.26,-2.27
166.53,-3.42,-1.11,-3.42,-1.12,1.12,0.96,1.07,-2.30,-2.30,-2.31
168.19,-3.42,-1.09,-3.42,-1.09,1.09,0.92,1.02,-2.33,-2.33,-2.32
169.87,-3.42,-1.06,-3.42,-1.06,1.05,0.89,0.97,-2.36,-2.36,-2.36
171.57,-3.42,-1.02,-3.42,-1.02,1.02,0.85,0.93,-2.40,-2.40,-2.40
173.29,-3.42,-0.98,-3.42,-0.98,0.98,0.81,0.88,-2.44,-2.44,-2.43
175.02,-3.42,-0.95,-3.42,-0.95,0.94,0.78,0.84,-2.47,-2.47,-2.47
176.77,-3.42,-0.90,-3.42,-0.91,0.90,0.74,0.79,-2.51,-2.51,-2.51
178.54,-3.42,-0.87,-3.42,-0.86,0.86,0.71,0.75,-2.55,-2.55,-2.55
180.32,-3.42,-0.82,-3.42,-0.82,0.82,0.67,0.71,-2.59,-2.59,-2.60
182.13,-3.42,-0.78,-3.42,-0.78,0.78,0.64,0.66,-2.63,-2.63,-2.63
183.95,-3.42,-0.74,-3.42,-0.74,0.74,0.60,0.62,-2.67,-2.67,-2.68
185.79,-3.42,-0.70,-3.42,-0.70,0.71,0.57,0.58,-2.71,-2.71,-2.72
187.65,-3.42,-0.67,-3.42,-0.66,0.67,0.54,0.54,-2.74,-2.74,-2.75
189.52,-3.42,-0.62,-3.42,-0.63,0.64,0.50,0.50,-2.78,-2.78,-2.80
191.42,-3.42,-0.59,-3.42,-0.59,0.60,0.47,0.45,-2.82,-2.82,-2.83
193.33,-3.42,-0.55,-3.42,-0.55,0.55,0.44,0.42,-2.87,-2.87,-2.86
195.27,-3.42,-0.52,-3.43,-0.53,0.49,0.41,0.38,-2.92,-2.94,-2.90
197.22,-3.42,-0.48,-3.42,-0.48,0.43,0.38,0.34,-2.98,-2.98,-2.94
199.19,-3.41,-0.45,-3.36,-0.40,0.37,0.35,0.30,-3.04,-2.99,-2.96
201.18,-3.28,-0.28,-3.29,-0.30,0.31,0.32,0.26,-2.97,-2.98,-2.99
203.19,-3.19,-0.17,-3.22,-0.21,0.25,0.29,0.22,-2.94,-2.98,-3.02
205.23,-3.19,-0.14,-3.18,-0.14,0.19,0.27,0.19,-3.00,-2.99,-3.04
207.28,-3.19,-0.13,-3.18,-0.11,0.14,0.24,0.15,-3.05,-3.04,-3.06
209.35,-3.19,-0.10,-3.19,-0.09,0.09,0.21,0.12,-3.10,-3.10,-3.09
211.44,-3.19,-0.06,-3.19,-0.07,0.05,0.19,0.08,-3.14,-3.14,-3.13
213.56,-3.19,-0.04,-3.19,-0.04,0.03,0.16,0.05,-3.16,-3.16,-3.15
215.69,-3.19,-0.02,-3.19,-0.01,0.00,0.14,0.02,-3.18,-3.18,-3.17
217.85,-3.19,0.01,-3.19,0.01,-0.02,0.11,-0.02,-3.21,-3.21,-3.19
220.03,-3.19,0.05,-3.19,0.04,-0.04,0.09,-0.05,-3.23,-3.23,-3.24
222.23,-3.19,0.07,-3.19,0.07,-0.07,0.06,-0.08,-3.25,-3.25,-3.26
224.45,-3.19,0.09,-3.19,0.10,-0.09,0.04,-0.11,-3.28,-3.28,-3.28
226.70,-3.19,0.12,-3.19,0.11,-0.12,0.02,-0.13,-3.30,-3.30,-3.31
228.96,-3.19,0.13,-3.19,0.14,-0.14,-0.00,-0.16,-3.33,-3.33,-3.32
231.25,-3.19,0.15,-3.19,0.16,-0.16,-0.03,-0.19,-3.35,-3.35,-3.34
233.57,-3.19,0.18,-3.19,0.18,-0.18,-0.05,-0.21,-3.37,-3.37,-3.37
235.90,-3.19,0.20,-3.19,0.20,-0.20,-0.07,-0.23,-3.39,-3.39,-3.39
238.26,-3.19,0.22,-3.19,0.22,-0.22,-0.09,-0.25,-3.40,-3.40,-3.41
240.64,-3.19,0.23,-3.19,0.23,-0.23,-0.11,-0.27,-3.42,-3.42,-3.42
243.05,-3.19,0.25,-3.19,0.25,-0.25,-0.12,-0.29,-3.44,-3.44,-3.43
245.48,-3.19,0.27,-3.19,0.26,-0.26,-0.14,-0.31,-3.45,-3.45,-3.45
247.93,-3.19,0.28,-3.19,0.28,-0.27,-0.16,-0.33,-3.46,-3.46,-3.47
250.41,-3.19,0.28,-3.19,0.28,-0.28,-0.18,-0.34,-3.47,-3.47,-3.47
252.92,-3.19,0.29,-3.19,0.29,-0.30,-0.19,-0.35,-3.48,-3.48,-3.48
255.45,-3.19,0.30,-3.19,0.30,-0.31,-0.21,-0.36,-3.49,-3.49,-3.49
258.00,-3.19,0.31,-3.19,0.31,-0.31,-0.23,-0.37,-3.50,-3.50,-3.50
260.58,-3.19,0.33,-3.19,0.32,-0.32,-0.24,-0.38,-3.51,-3.51,-3.51
263.19,-3.19,0.33,-3.19,0.33,-0.33,-0.26,-0.39,-3.52,-3.52,-3.52
265.82,-3.19,0.34,-3.19,0.34,-0.34,-0.27,-0.40,-3.53,-3.53,-3.53
268.48,-3.19,0.34,-3.19,0.34,-0.35,-0.28,-0.40,-3.53,-3.53,-3.53
271.16,-3.19,0.35,-3.19,0.35,-0.35,-0.30,-0.40,-3.54,-3.54,-3.54
273.87,-3.19,0.36,-3.19,0.36,-0.36,-0.31,-0.41,-3.55,-3.55,-3.54
276.61,-3.19,0.36,-3.19,0.36,-0.36,-0.32,-0.41,-3.55,-3.55,-3.55
279.38,-3.19,0.38,-3.19,0.37,-0.36,-0.33,-0.41,-3.55,-3.55,-3.56
282.17,-3.19,0.37,-3.19,0.37,-0.37,-0.35,-0.41,-3.55,-3.55,-3.56
284.99,-3.19,0.36,-3.19,0.37,-0.37,-0.36,-0.41,-3.55,-3.55,-3.55
287.84,-3.19,0.36,-3.19,0.36,-0.36,-0.37,-0.41,-3.55,-3.55,-3.55
290.72,-3.19,0.36,-3.19,0.36,-0.36,-0.38,-0.41,-3.55,-3.55,-3.55
293.63,-3.19,0.36,-3.19,0.36,-0.36,-0.39,-0.40,-3.55,-3.55,-3.55
296.57,-3.19,0.35,-3.19,0.35,-0.36,-0.40,-0.40,-3.54,-3.54,-3.54
299.53,-3.19,0.36,-3.19,0.35,-0.35,-0.41,-0.40,-3.54,-3.54,-3.54
302.53,-3.19,0.35,-3.19,0.35,-0.34,-0.41,-0.39,-3.53,-3.53,-3.54
305.55,-3.19,0.35,-3.19,0.35,-0.33,-0.42,-0.39,-3.52,-3.52,-3.54
308.61,-3.19,0.35,-3.19,0.34,-0.33,-0.43,-0.39,-3.52,-3.52,-3.53
311.69,-3.19,0.34,-3.19,0.34,-0.35,-0.44,-0.38,-3.53,-3.53,-3.53
314.81,-3.19,0.33,-3.20,0.32,-0.37,-0.44,-0.38,-3.55,-3.57,-3.52
317.96,-3.19,0.33,-3.18,0.34,-0.39,-0.45,-0.38,-3.58,-3.57,-3.52
321.14,-3.18,0.34,-3.12,0.40,-0.42,-0.46,-0.37,-3.60,-3.55,-3.52
324.35,-3.01,0.51,-3.05,0.47,-0.46,-0.46,-0.37,-3.46,-3.50,-3.52
327.59,-2.96,0.55,-2.98,0.53,-0.49,-0.47,-0.37,-3.44,-3.47,-3.51
330.87,-2.96,0.56,-2.94,0.57,-0.51,-0.47,-0.36,-3.47,-3.46,-3.51
334.18,-2.96,0.56,-2.95,0.56,-0.53,-0.48,-0.36,-3.49,-3.49,-3.52
337.52,-2.96,0.54,-2.96,0.54,-0.55,-0.48,-0.36,-3.50,-3.50,-3.50
340.90,-2.96,0.53,-2.96,0.53,-0.55,-0.49,-0.36,-3.50,-3.50,-3.49
344.30,-2.96,0.52,-2.96,0.52,-0.54,-0.49,-0.35,-3.50,-3.50,-3.48
347.75,-2.96,0.51,-2.96,0.51,-0.52,-0.50,-0.35,-3.48,-3.48,-3.46
351.23,-2.96,0.51,-2.96,0.50,-0.51,-0.50,-0.35,-3.46,-3.46,-3.47
354.74,-2.96,0.49,-2.96,0.50,-0.50,-0.50,-0.35,-3.45,-3.45,-3.45
358.28,-2.96,0.49,-2.96,0.49,-0.49,-0.51,-0.35,-3.45,-3.45,-3.45
361.87,-2.96,0.48,-2.96,0.48,-0.48,-0.51,-0.35,-3.44,-3.44,-3.44
365.49,-2.96,0.48,-2.96,0.47,-0.48,-0.51,-0.35,-3.43,-3.43,-3.43
369.14,-2.96,0.47,-2.96,0.47,-0.47,-0.51,-0.35,-3.43,-3.43,-3.42
372.83,-2.96,0.46,-2.96,0.47,-0.47,-0.51,-0.35,-3.42,-3.42,-3.42
376.56,-2.96,0.47,-2.96,0.46,-0.46,-0.52,-0.35,-3.42,-3.42,-3.43
380.33,-2.96,0.46,-2.96,0.46,-0.45,-0.52,-0.35,-3.41,-3.41,-3.42
384.13,-2.96,0.45,-2.96,0.45,-0.45,-0.52,-0.35,-3.40,-3.40,-3.41
387.97,-2.96,0.44,-2.96,0.45,-0.44,-0.52,-0.35,-3.40,-3.40,-3.40
391.85,-2.96,0.45,-2.96,0.45,-0.44,-0.52,-0.35,-3.39,-3.39,-3.40
395.77,-2.96,0.45,-2.96,0.44,-0.44,-0.52,-0.36,-3.40,-3.40,-3.40
399.73,-2.96,0.45,-2.97,0.43,-0.46,-0.52,-0.36,-3.42,-3.43,-3.41
403.72,-2.96,0.43,-2.96,0.43,-0.48,-0.52,-0.36,-3.44,-3.44,-3.39
407.76,-2.96,0.43,-2.91,0.47,-0.51,-0.52,-0.36,-3.47,-3.42,-3.39
411.84,-2.83,0.55,-2.84,0.53,-0.53,-0.52,-0.37,-3.36,-3.38,-3.38
415.96,-2.74,0.62,-2.77,0.60,-0.56,-0.52,-0.37,-3.30,-3.33,-3.36
420.12,-2.73,0.63,-2.72,0.63,-0.58,-0.52,-0.37,-3.31,-3.31,-3.36
424.32,-2.73,0.62,-2.72,0.63,-0.60,-0.52,-0.38,-3.33,-3.32,-3.35
428.56,-2.73,0.61,-2.73,0.61,-0.61,-0.52,-0.38,-3.34,-3.34,-3.33
432.85,-2.73,0.60,-2.73,0.60,-0.61,-0.52,-0.39,-3.34,-3.34,-3.32
437.18,-2.73,0.60,-2.73,0.59,-0.60,-0.52,-0.39,-3.33,-3.33,-3.32
441.55,-2.73,0.58,-2.73,0.58,-0.59,-0.52,-0.39,-3.31,-3.31,-3.31
445.96,-2.73,0.57,-2.73,0.57,-0.57,-0.52,-0.40,-3.30,-3.30,-3.30
450.42,-2.73,0.55,-2.73,0.55,-0.55,-0.52,-0.40,-3.28,-3.28,-3.28
454.93,-2.73,0.54,-2.73,0.54,-0.54,-0.52,-0.41,-3.27,-3.27,-3.27
459.48,-2.73,0.53,-2.73,0.53,-0.53,-0.51,-0.41,-3.26,-3.26,-3.26
464.07,-2.73,0.51,-2.73,0.51,-0.51,-0.51,-0.41,-3.24,-3.24,-3.24
468.71,-2.73,0.50,-2.73,0.50,-0.49,-0.51,-0.42,-3.22,-3.22,-3.23
473.40,-2.73,0.48,-2.73,0.49,-0.47,-0.51,-0.42,-3.20,-3.20,-3.21
