frequency,raw,error,smoothed,error_smoothed,equalization,parametric_eq,fixed_band_eq,equalized_raw,equalized_smoothed,target
20.00,-12.24,-18.30,-12.23,-18.29,6.00,5.60,2.67,-6.24,-6.23,6.06
20.20,-12.21,-18.24,-12.21,-18.24,6.00,5.62,2.75,-6.21,-6.21,6.03
20.40,-12.18,-18.19,-12.18,-18.19,6.00,5.64,2.83,-6.18,-6.18,6.01
20.61,-12.15,-18.14,-12.15,-18.13,6.00,5.66,2.91,-6.15,-6.15,5.99
20.81,-12.12,-18.08,-12.11,-18.08,6.00,5.68,2.99,-6.12,-6.11,5.97
21.02,-12.08,-18.02,-12.08,-18.03,6.00,5.69,3.08,-6.08,-6.08,5.95
21.23,-12.04,-17.96,-12.03,-17.96,6.00,5.71,3.17,-6.04,-6.03,5.93
21.44,-11.99,-17.89,-11.99,-17.89,6.00,5.73,3.26,-5.99,-5.99,5.91
21.66,-11.94,-17.82,-11.94,-17.83,6.00,5.75,3.35,-5.94,-5.94,5.89
21.87,-11.89,-17.76,-11.89,-17.76,6.00,5.77,3.45,-5.89,-5.89,5.88
22.09,-11.84,-17.69,-11.83,-17.69,6.00,5.78,3.55,-5.84,-5.83,5.86
22.31,-11.78,-17.62,-11.78,-17.62,6.00,5.80,3.65,-5.78,-5.78,5.85
22.54,-11.72,-17.55,-11.72,-17.55,6.00,5.82,3.75,-5.72,-5.72,5.84
22.76,-11.66,-17.48,-11.65,-17.48,6.00,5.83,3.86,-5.66,-5.65,5.82
22.99,-11.59,-17.40,-11.59,-17.41,6.00,5.85,3.97,-5.59,-5.59,5.81
23.22,-11.53,-17.33,-11.53,-17.33,6.00,5.86,4.08,-5.53,-5.53,5.80
23.45,-11.46,-17.25,-11.45,-17.24,6.00,5.88,4.19,-5.46,-5.45,5.79
23.69,-11.37,-17.15,-11.37,-17.15,6.00,5.89,4.31,-5.37,-5.37,5.78
23.92,-11.26,-17.05,-11.27,-17.05,6.00,5.91,4.43,-5.26,-5.27,5.78
24.16,-11.17,-16.94,-11.16,-16.94,6.00,5.92,4.55,-5.17,-5.16,5.77
24.40,-11.05,-16.83,-11.06,-16.83,6.00,5.94,4.67,-5.05,-5.06,5.77
24.65,-10.96,-16.72,-10.96,-16.72,6.00,5.95,4.79,-4.96,-4.96,5.76
24.89,-10.84,-16.60,-10.84,-16.60,6.00,5.97,4.92,-4.84,-4.84,5.76
25.14,-10.72,-16.47,-10.72,-16.47,6.00,5.98,5.05,-4.72,-4.72,5.75
25.39,-10.58,-16.32,-10.59,-16.33,6.00,5.99,5.18,-4.58,-4.59,5.74
25.65,-10.45,-16.18,-10.45,-16.18,6.00,6.00,5.31,-4.45,-4.45,5.74
25.91,-10.30,-16.03,-10.30,-16.03,6.00,6.02,5.44,-4.30,-4.30,5.73
26.16,-10.14,-15.87,-10.14,-15.87,6.00,6.03,5.57,-4.14,-4.14,5.72
26.43,-9.99,-15.71,-9.98,-15.71,6.00,6.04,5.70,-3.99,-3.98,5.72
26.69,-9.82,-15.53,-9.82,-15.54,6.00,6.05,5.83,-3.82,-3.82,5.71
26.96,-9.66,-15.37,-9.65,-15.36,6.00,6.06,5.95,-3.66,-3.65,5.71
27.23,-9.49,-15.19,-9.49,-15.19,6.00,6.07,6.08,-3.49,-3.49,5.70
27.50,-9.33,-15.03,-9.33,-15.03,6.00,6.09,6.20,-3.33,-3.33,5.70
27.77,-9.17,-14.87,-9.17,-14.87,6.00,6.10,6.32,-3.17,-3.17,5.70
28.05,-9.04,-14.72,-9.03,-14.72,6.00,6.11,6.44,-3.04,-3.03,5.69
28.33,-8.90,-14.58,-8.90,-14.59,6.00,6.12,6.55,-2.90,-2.90,5.69
28.62,-8.78,-14.46,-8.77,-14.45,6.00,6.12,6.65,-2.78,-2.77,5.68
28.90,-8.66,-14.33,-8.66,-14.33,6.00,6.13,6.75,-2.66,-2.66,5.67
29.19,-8.55,-14.22,-8.55,-14.22,6.00,6.14,6.84,-2.55,-2.55,5.67
29.48,-8.45,-14.12,-8.45,-14.12,6.00,6.15,6.92,-2.45,-2.45,5.67
29.78,-8.36,-14.03,-8.36,-14.03,6.00,6.16,7.00,-2.36,-2.36,5.67
30.08,-8.28,-13.94,-8.28,-13.94,6.00,6.17,7.07,-2.28,-2.28,5.67
30.38,-8.20,-13.85,-8.20,-13.86,6.00,6.18,7.12,-2.20,-2.20,5.66
30.68,-8.13,-13.78,-8.12,-13.78,6.00,6.18,7.17,-2.13,-2.12,5.65
30.99,-8.05,-13.70,-8.05,-13.70,6.00,6.19,7.21,-2.05,-2.05,5.65
31.30,-7.98,-13.63,-7.97,-13.62,6.00,6.20,7.24,-1.98,-1.97,5.65
31.61,-7.90,-13.53,-7.90,-13.54,6.00,6.20,7.26,-1.90,-1.90,5.64
31.93,-7.82,-13.45,-7.82,-13.46,6.00,6.21,7.27,-1.82,-1.82,5.64
32.24,-7.73,-13.37,-7.73,-13.36,6.00,6.22,7.27,-1.73,-1.73,5.63
32.57,-7.65,-13.27,-7.64,-13.27,6.00,6.22,7.26,-1.65,-1.64,5.62
32.89,-7.54,-13.16,-7.54,-13.16,6.00,6.23,7.24,-1.54,-1.54,5.62
33.22,-7.44,-13.05,-7.43,-13.05,6.00,6.23,7.22,-1.44,-1.43,5.62
33.55,-7.32,-12.93,-7.33,-12.94,6.00,6.24,7.18,-1.32,-1.33,5.60
33.89,-7.22,-12.82,-7.22,-12.82,6.00,6.24,7.14,-1.22,-1.22,5.60
34.23,-7.12,-12.72,-7.11,-12.71,6.00,6.24,7.10,-1.12,-1.11,5.60
34.57,-7.00,-12.58,-7.00,-12.59,6.00,6.25,7.05,-1.00,-1.00,5.59
34.92,-6.89,-12.47,-6.89,-12.47,6.00,6.25,6.99,-0.89,-0.89,5.58
35.27,-6.77,-12.35,-6.77,-12.34,6.00,6.26,6.93,-0.77,-0.77,5.58
35.62,-6.65,-12.21,-6.65,-12.22,6.00,6.26,6.87,-0.65,-0.65,5.57
35.97,-6.52,-12.09,-6.53,-12.09,6.00,6.26,6.81,-0.52,-0.53,5.56
36.33,-6.41,-11.97,-6.41,-11.97,6.00,6.26,6.74,-0.41,-0.41,5.56
36.70,-6.30,-11.85,-6.29,-11.85,6.00,6.27,6.67,-0.30,-0.29,5.56
37.06,-6.17,-11.73,-6.17,-11.72,6.00,6.27,6.61,-0.17,-0.17,5.55
37.43,-6.04,-11.58,-6.05,-11.60,6.00,6.27,6.54,-0.04,-0.05,5.54
37.81,-5.94,-11.47,-5.94,-11.47,6.00,6.27,6.47,0.06,0.06,5.54
38.19,-5.83,-11.36,-5.83,-11.35,6.00,6.27,6.41,0.17,0.17,5.53
38.57,-5.72,-11.23,-5.72,-11.24,6.00,6.27,6.35,0.28,0.28,5.52
38.95,-5.61,-11.13,-5.61,-11.12,6.00,6.27,6.29,0.39,0.39,5.51
39.34,-5.51,-11.00,-5.51,-11.01,6.00,6.27,6.23,0.49,0.49,5.50
39.74,-5.41,-10.90,-5.41,-10.90,6.00,6.27,6.17,0.59,0.59,5.49
40.14,-5.32,-10.80,-5.31,-10.79,6.00,6.27,6.12,0.68,0.69,5.48
40.54,-5.21,-10.68,-5.21,-10.68,6.00,6.27,6.07,0.79,0.79,5.47
40.94,-5.10,-10.56,-5.10,-10.57,6.00,6.27,6.03,0.90,0.90,5.47
41.35,-5.00,-10.46,-4.99,-10.46,6.00,6.27,5.99,1.00,1.01,5.46
41.76,-4.90,-10.35,-4.90,-10.35,6.00,6.27,5.95,1.10,1.10,5.46
42.18,-4.81,-10.26,-4.80,-10.26,6.00,6.26,5.92,1.19,1.20,5.45
42.60,-4.72,-10.16,-4.71,-10.16,6.00,6.26,5.89,1.28,1.29,5.44
43.03,-4.62,-10.06,-4.62,-10.06,6.00,6.26,5.87,1.38,1.38,5.45
43.46,-4.53,-9.97,-4.53,-9.97,6.00,6.26,5.85,1.47,1.47,5.44
43.90,-4.44,-9.87,-4.43,-9.87,6.00,6.25,5.83,1.56,1.57,5.43
44.33,-4.35,-9.77,-4.35,-9.77,6.00,6.25,5.82,1.65,1.65,5.43
44.78,-4.26,-9.68,-4.26,-9.68,6.00,6.24,5.81,1.74,1.74,5.42
45.23,-4.19,-9.60,-4.18,-9.59,6.00,6.24,5.81,1.81,1.82,5.41
45.68,-4.11,-9.51,-4.11,-9.51,6.00,6.23,5.81,1.89,1.89,5.40
46.13,-4.04,-9.43,-4.04,-9.44,6.00,6.23,5.82,1.96,1.96,5.39
46.60,-3.99,-9.37,-3.98,-9.37,6.00,6.22,5.83,2.01,2.02,5.39
47.06,-3.94,-9.31,-3.93,-9.31,6.00,6.22,5.84,2.06,2.07,5.38
47.53,-3.90,-9.25,-3.90,-9.26,6.00,6.21,5.86,2.10,2.10,5.36
48.01,-3.87,-9.21,-3.87,-9.22,6.00,6.21,5.89,2.13,2.13,5.35
48.49,-3.86,-9.19,-3.86,-9.19,6.00,6.20,5.91,2.14,2.14,5.34
48.97,-3.85,-9.17,-3.85,-9.17,6.00,6.19,5.94,2.15,2.15,5.33
49.46,-3.85,-9.16,-3.84,-9.16,6.00,6.19,5.98,2.15,2.16,5.32
49.96,-3.83,-9.13,-3.83,-9.13,6.00,6.18,6.01,2.17,2.17,5.30
50.46,-3.81,-9.10,-3.81,-9.10,6.00,6.17,6.05,2.19,2.19,5.29
50.96,-3.79,-9.07,-3.79,-9.07,6.00,6.16,6.09,2.21,2.21,5.28
51.47,-3.78,-9.05,-3.77,-9.05,6.00,6.15,6.14,2.22,2.23,5.28
51.99,-3.76,-9.02,-3.76,-9.02,6.00,6.14,6.18,2.24,2.24,5.26
52.51,-3.74,-8.99,-3.74,-8.99,6.00,6.13,6.23,2.26,2.26,5.25
53.03,-3.72,-8.95,-3.72,-8.95,6.00,6.12,6.28,2.28,2.28,5.24
53.56,-3.70,-8.92,-3.70,-8.92,6.00,6.11,6.33,2.30,2.30,5.22
54.10,-3.68,-8.89,-3.67,-8.88,6.00,6.10,6.37,2.32,2.33,5.22
54.64,-3.64,-8.84,-3.64,-8.84,6.00,6.09,6.42,2.36,2.36,5.20
55.18,-3.61,-8.79,-3.60,-8.79,6.00,6.08,6.47,2.39,2.40,5.19
55.74,-3.57,-8.73,-3.57,-8.74,6.00,6.07,6.51,2.43,2.43,5.17
56.29,-3.53,-8.69,-3.53,-8.69,6.00,6.06,6.55,2.47,2.47,5.16
56.86,-3.49,-8.63,-3.49,-8.63,6.00,6.05,6.59,2.51,2.51,5.14
57.42,-3.45,-8.57,-3.44,-8.57,6.00,6.03,6.63,2.55,2.56,5.13
58.00,-3.40,-8.51,-3.40,-8.51,6.00,6.02,6.66,2.60,2.60,5.12
58.58,-3.35,-8.44,-3.35,-8.44,6.00,6.01,6.69,2.65,2.65,5.10
59.16,-3.30,-8.37,-3.30,-8.38,6.00,5.99,6.71,2.70,2.70,5.08
59.76,-3.26,-8.32,-3.26,-8.32,6.00,5.98,6.73,2.74,2.74,5.07
60.35,-3.22,-8.26,-3.21,-8.26,6.00,5.96,6.73,2.78,2.79,5.04
60.96,-3.17,-8.19,-3.16,-8.19,6.00,5.95,6.74,2.83,2.84,5.02
61.57,-3.11,-8.11,-3.11,-8.11,6.00,5.93,6.73,2.89,2.89,5.00
62.18,-3.05,-8.02,-3.05,-8.02,6.00,5.92,6.72,2.95,2.95,4.98
62.80,-2.99,-7.94,-2.98,-7.93,6.00,5.90,6.70,3.01,3.02,4.95
63.43,-2.92,-7.84,-2.92,-7.84,6.00,5.88,6.68,3.08,3.08,4.93
64.07,-2.86,-7.76,-2.86,-7.76,6.00,5.87,6.65,3.14,3.14,4.90
64.71,-2.81,-7.68,-2.80,-7.68,6.00,5.85,6.61,3.19,3.20,4.87
65.35,-2.76,-7.60,-2.76,-7.61,6.00,5.83,6.56,3.24,3.24,4.85
66.01,-2.73,-7.54,-2.73,-7.54,6.00,5.81,6.51,3.27,3.27,4.82
66.67,-2.70,-7.49,-2.70,-7.48,6.00,5.79,6.45,3.30,3.30,4.79
67.33,-2.67,-7.43,-2.67,-7.42,6.00,5.77,6.39,3.33,3.33,4.76
68.01,-2.64,-7.36,-2.63,-7.36,6.00,5.75,6.32,3.36,3.37,4.73
68.69,-2.60,-7.29,-2.60,-7.30,6.00,5.73,6.24,3.40,3.40,4.70
69.37,-2.57,-7.23,-2.57,-7.23,6.00,5.71,6.17,3.43,3.43,4.67
70.07,-2.54,-7.17,-2.53,-7.17,6.00,5.69,6.09,3.46,3.47,4.63
70.77,-2.50,-7.09,-2.50,-7.10,6.00,5.67,6.00,3.50,3.50,4.60
71.48,-2.46,-7.03,-2.46,-7.03,6.00,5.65,5.92,3.54,3.54,4.57
72.19,-2.42,-6.95,-2.42,-6.96,6.00,5.62,5.83,3.58,3.58,4.54
72.91,-2.39,-6.89,-2.38,-6.89,6.00,5.60,5.74,3.61,3.62,4.50
73.64,-2.36,-6.82,-2.35,-6.82,6.00,5.58,5.65,3.64,3.65,4.46
74.38,-2.33,-6.76,-2.33,-6.76,6.00,5.55,5.57,3.67,3.67,4.44
75.12,-2.31,-6.70,-2.31,-6.71,6.00,5.53,5.48,3.69,3.69,4.40
75.87,-2.29,-6.65,-2.28,-6.65,6.00,5.50,5.39,3.71,3.72,4.37
76.63,-2.27,-6.59,-2.27,-6.59,6.00,5.47,5.30,3.73,3.73,4.33
77.40,-2.25,-6.53,-2.25,-6.54,6.00,5.45,5.22,3.75,3.75,4.29
78.17,-2.24,-6.49,-2.23,-6.48,6.00,5.42,5.13,3.76,3.77,4.25
78.95,-2.22,-6.43,-2.21,-6.42,6.00,5.39,5.05,3.79,3.79,4.21
79.74,-2.20,-6.36,-2.19,-6.36,6.01,5.36,4.97,3.81,3.81,4.17
80.54,-2.17,-6.30,-2.17,-6.30,6.01,5.34,4.90,3.85,3.84,4.13
81.35,-2.16,-6.24,-2.15,-6.24,6.01,5.31,4.82,3.86,3.86,4.08
82.16,-2.14,-6.17,-2.14,-6.17,6.01,5.28,4.75,3.87,3.87,4.04
82.98,-2.12,-6.11,-2.12,-6.11,5.99,5.25,4.68,3.88,3.87,3.99
83.81,-2.10,-6.04,-2.09,-6.04,5.97,5.22,4.62,3.87,3.87,3.94
84.65,-2.07,-5.97,-2.07,-5.97,5.93,5.18,4.56,3.86,3.86,3.90
85.50,-2.04,-5.89,-2.04,-5.89,5.88,5.15,4.50,3.84,3.84,3.85
86.35,-2.01,-5.81,-2.01,-5.81,5.82,5.12,4.44,3.81,3.81,3.80
87.22,-1.98,-5.73,-1.98,-5.73,5.75,5.09,4.39,3.77,3.77,3.75
88.09,-1.96,-5.66,-1.96,-5.66,5.67,5.05,4.34,3.72,3.72,3.70
88.97,-1.94,-5.59,-1.93,-5.58,5.59,5.02,4.29,3.66,3.66,3.65
89.86,-1.92,-5.51,-1.91,-5.51,5.51,4.98,4.25,3.59,3.60,3.60
90.76,-1.89,-5.43,-1.89,-5.43,5.43,4.95,4.21,3.54,3.54,3.54
91.66,-1.87,-5.36,-1.86,-5.35,5.35,4.91,4.18,3.49,3.49,3.49
92.58,-1.84,-5.27,-1.84,-5.27,5.28,4.87,4.15,3.44,3.44,3.44
93.51,-1.82,-5.20,-1.82,-5.20,5.20,4.83,4.12,3.39,3.38,3.38
94.44,-1.80,-5.12,-1.80,-5.12,5.13,4.79,4.09,3.33,3.33,3.33
95.39,-1.79,-5.06,-1.78,-5.05,5.05,4.76,4.07,3.26,3.27,3.27
96.34,-1.76,-4.97,-1.76,-4.97,4.97,4.72,4.04,3.21,3.21,3.21
97.30,-1.73,-4.89,-1.73,-4.89,4.88,4.67,4.03,3.16,3.16,3.17
98.28,-1.70,-4.81,-1.70,-4.81,4.80,4.63,4.01,3.10,3.10,3.11
99.26,-1.67,-4.72,-1.67,-4.72,4.72,4.59,4.00,3.05,3.05,3.05
100.25,-1.64,-4.63,-1.64,-4.63,4.63,4.55,3.99,3.00,3.00,3.00
101.25,-1.61,-4.54,-1.61,-4.55,4.55,4.51,3.98,2.94,2.94,2.94
102.27,-1.59,-4.47,-1.58,-4.47,4.47,4.46,3.97,2.88,2.88,2.88
103.29,-1.57,-4.39,-1.56,-4.39,4.39,4.42,3.96,2.83,2.83,2.82
104.32,-1.55,-4.32,-1.55,-4.32,4.33,4.37,3.96,2.78,2.78,2.77
105.37,-1.54,-4.25,-1.54,-4.25,4.26,4.32,3.95,2.73,2.73,2.72
106.42,-1.54,-4.19,-1.53,-4.20,4.21,4.28,3.95,2.67,2.67,2.66
107.48,-1.54,-4.15,-1.54,-4.15,4.16,4.23,3.94,2.62,2.61,2.61
108.56,-1.56,-4.11,-1.55,-4.11,4.10,4.18,3.94,2.55,2.55,2.55
109.64,-1.57,-4.06,-1.57,-4.06,4.05,4.13,3.94,2.49,2.49,2.50
110.74,-1.58,-4.01,-1.57,-4.01,4.00,4.08,3.93,2.42,2.43,2.44
111.85,-1.57,-3.95,-1.57,-3.95,3.94,4.03,3.93,2.38,2.37,2.38
112.97,-1.56,-3.89,-1.56,-3.89,3.88,3.98,3.92,2.32,2.33,2.33
114.10,-1.54,-3.81,-1.54,-3.81,3.81,3.93,3.91,2.28,2.28,2.28
115.24,-1.52,-3.74,-1.52,-3.74,3.74,3.87,3.90,2.22,2.22,2.22
116.39,-1.50,-3.66,-1.49,-3.66,3.66,3.82,3.89,2.17,2.17,2.17
117.55,-1.47,-3.59,-1.47,-3.58,3.58,3.76,3.87,2.11,2.11,2.12
118.73,-1.44,-3.50,-1.44,-3.50,3.50,3.71,3.85,2.06,2.06,2.06
119.92,-1.41,-3.42,-1.40,-3.42,3.42,3.65,3.83,2.01,2.01,2.01
121.12,-1.38,-3.33,-1.37,-3.33,3.34,3.59,3.80,1.96,1.96,1.96
122.33,-1.34,-3.25,-1.34,-3.25,3.26,3.54,3.77,1.92,1.92,1.91
123.55,-1.32,-3.18,-1.31,-3.17,3.18,3.48,3.73,1.87,1.87,1.86
124.79,-1.29,-3.10,-1.29,-3.11,3.11,3.42,3.70,1.82,1.82,1.82
126.03,-1.28,-3.04,-1.27,-3.04,3.04,3.36,3.65,1.76,1.77,1.77
127.29,-1.26,-2.98,-1.26,-2.98,2.97,3.30,3.60,1.72,1.72,1.72
128.57,-1.24,-2.91,-1.24,-2.91,2.91,3.23,3.55,1.68,1.67,1.67
129.85,-1.23,-2.85,-1.22,-2.85,2.85,3.17,3.50,1.62,1.63,1.62
131.15,-1.21,-2.78,-1.21,-2.79,2.79,3.11,3.44,1.58,1.58,1.58
132.46,-1.20,-2.73,-1.20,-2.73,2.73,3.04,3.37,1.53,1.53,1.54
133.79,-1.19,-2.68,-1.18,-2.67,2.67,2.98,3.31,1.48,1.49,1.49
135.12,-1.17,-2.61,-1.17,-2.61,2.61,2.91,3.23,1.44,1.44,1.44
136.48,-1.15,-2.54,-1.15,-2.54,2.54,2.85,3.16,1.40,1.40,1.40
137.84,-1.13,-2.48,-1.13,-2.48,2.48,2.78,3.08,1.35,1.35,1.35
139.22,-1.11,-2.41,-1.10,-2.41,2.41,2.71,3.00,1.30,1.31,1.31
140.61,-1.08,-2.34,-1.08,-2.35,2.34,2.64,2.92,1.26,1.26,1.26
142.02,-1.05,-2.28,-1.04,-2.27,2.26,2.57,2.83,1.22,1.22,1.23
143.44,-1.01,-2.20,-1.00,-2.19,2.19,2.50,2.75,1.18,1.18,1.19
144.87,-0.96,-2.10,-0.96,-2.11,2.11,2.43,2.66,1.15,1.15,1.15
146.32,-0.92,-2.03,-0.92,-2.03,2.03,2.36,2.57,1.11,1.11,1.12
147.78,-0.88,-1.96,-0.87,-1.95,1.95,2.28,2.48,1.08,1.08,1.08
149.26,-0.83,-1.87,-0.83,-1.87,1.88,2.21,2.38,1.06,1.05,1.04
150.75,-0.79,-1.80,-0.79,-1.80,1.81,2.14,2.29,1.02,1.02,1.01
152.26,-0.76,-1.73,-0.76,-1.73,1.74,2.06,2.20,0.99,0.99,0.98
153.78,-0.74,-1.68,-0.74,-1.68,1.68,1.99,2.10,0.94,0.95,0.94
155.32,-0.72,-1.63,-0.71,-1.62,1.62,1.91,2.01,0.90,0.91,0.92
156.88,-0.69,-1.57,-0.69,-1.57,1.56,1.83,1.91,0.87,0.87,0.88
158.44,-0.66,-1.50,-0.66,-1.50,1.50,1.75,1.82,0.84,0.84,0.85
160.03,-0.63,-1.44,-0.62,-1.44,1.44,1.68,1.73,0.81,0.81,0.82
161.63,-0.59,-1.37,-0.59,-1.38,1.38,1.60,1.63,0.79,0.79,0.78
163.24,-0.56,-1.32,-0.55,-1.31,1.31,1.52,1.54,0.76,0.76,0.76
164.88,-0.52,-1.25,-0.52,-1.25,1.25,1.44,1.44,0.73,0.74,0.73
166.53,-0.48,-1.18,-0.48,-1.18,1.19,1.36,1.35,0.71,0.71,0.70
168.19,-0.44,-1.11,-0.44,-1.12,1.12,1.28,1.26,0.69,0.69,0.68
169.87,-0.40,-1.05,-0.40,-1.06,1.06,1.20,1.17,0.66,0.66,0.66
171.57,-0.37,-1.00,-0.36,-0.99,0.99,1.12,1.07,0.62,0.63,0.63
173.29,-0.33,-0.93,-0.32,-0.93,0.92,1.04,0.98,0.59,0.59,0.61
175.02,-0.28,-0.86,-0.28,-0.86,0.84,0.96,0.89,0.57,0.57,0.58
176.77,-0.22,-0.78,-0.21,-0.78,0.77,0.87,0.80,0.55,0.55,0.57
178.54,-0.15,-0.69,-0.15,-0.69,0.69,0.79,0.71,0.54,0.54,0.54
180.32,-0.08,-0.59,-0.08,-0.60,0.61,0.71,0.62,0.53,0.53,0.52
182.13,-0.02,-0.51,-0.02,-0.51,0.53,0.63,0.54,0.51,0.51,0.50
183.95,0.03,-0.44,0.03,-0.44,0.45,0.55,0.45,0.48,0.48,0.47
185.79,0.08,-0.37,0.09,-0.37,0.37,0.47,0.36,0.45,0.45,0.45
187.65,0.13,-0.30,0.14,-0.30,0.29,0.38,0.27,0.43,0.43,0.43
189.52,0.19,-0.22,0.19,-0.22,0.22,0.30,0.19,0.41,0.41,0.41
191.42,0.24,-0.15,0.25,-0.15,0.15,0.22,0.10,0.39,0.39,0.39
193.33,0.30,-0.07,0.30,-0.08,0.08,0.14,0.02,0.38,0.38,0.38
195.27,0.34,-0.01,0.35,-0.01,0.01,0.06,-0.07,0.35,0.36,0.36
197.22,0.40,0.06,0.40,0.06,-0.06,-0.02,-0.15,0.34,0.34,0.34
199.19,0.45,0.13,0.45,0.13,-0.13,-0.10,-0.23,0.33,0.33,0.32
201.18,0.50,0.19,0.51,0.19,-0.19,-0.18,-0.32,0.31,0.31,0.32
203.19,0.56,0.26,0.56,0.26,-0.26,-0.25,-0.40,0.31,0.30,0.30
205.23,0.61,0.32,0.62,0.32,-0.32,-0.33,-0.48,0.29,0.30,0.30
207.28,0.67,0.39,0.67,0.39,-0.39,-0.41,-0.56,0.29,0.28,0.28
209.35,0.72,0.46,0.72,0.45,-0.45,-0.48,-0.64,0.27,0.27,0.27
211.44,0.76,0.50,0.77,0.51,-0.52,-0.56,-0.71,0.25,0.25,0.26
213.56,0.82,0.57,0.82,0.57,-0.58,-0.63,-0.79,0.24,0.24,0.25
215.69,0.87,0.64,0.88,0.64,-0.64,-0.70,-0.86,0.23,0.24,0.24
217.85,0.94,0.72,0.94,0.71,-0.71,-0.77,-0.93,0.24,0.23,0.23
220.03,0.99,0.77,0.99,0.77,-0.77,-0.84,-1.00,0.23,0.23,0.22
222.23,1.04,0.83,1.05,0.84,-0.83,-0.91,-1.07,0.22,0.22,0.21
224.45,1.09,0.89,1.09,0.89,-0.89,-0.97,-1.13,0.21,0.20,0.20
226.70,1.13,0.94,1.13,0.94,-0.95,-1.04,-1.20,0.19,0.19,0.19
228.96,1.17,0.98,1.18,0.99,-1.00,-1.10,-1.26,0.17,0.18,0.19
231.25,1.23,1.05,1.23,1.05,-1.06,-1.16,-1.31,0.18,0.17,0.18
233.57,1.28,1.11,1.29,1.11,-1.11,-1.22,-1.37,0.17,0.17,0.17
235.90,1.34,1.17,1.34,1.17,-1.17,-1.27,-1.42,0.18,0.17,0.17
238.26,1.38,1.22,1.38,1.22,-1.22,-1.33,-1.47,0.17,0.17,0.16
240.64,1.42,1.26,1.43,1.26,-1.26,-1.38,-1.51,0.16,0.16,0.16
243.05,1.47,1.31,1.47,1.31,-1.31,-1.43,-1.55,0.17,0.16,0.17
245.48,1.51,1.35,1.51,1.35,-1.35,-1.48,-1.59,0.17,0.17,0.17
247.93,1.55,1.39,1.55,1.39,-1.38,-1.53,-1.62,0.17,0.17,0.16
250.41,1.58,1.42,1.58,1.42,-1.41,-1.57,-1.65,0.17,0.17,0.16
252.92,1.60,1.44,1.60,1.44,-1.44,-1.61,-1.67,0.17,0.17,0.16
255.45,1.62,1.46,1.62,1.46,-1.47,-1.65,-1.69,0.16,0.16,0.17
258.00,1.64,1.48,1.65,1.48,-1.49,-1.69,-1.71,0.15,0.15,0.16
260.58,1.67,1.51,1.67,1.51,-1.52,-1.72,-1.73,0.15,0.15,0.16
263.19,1.70,1.54,1.70,1.54,-1.55,-1.75,-1.74,0.16,0.16,0.16
265.82,1.73,1.58,1.73,1.58,-1.57,-1.78,-1.75,0.16,0.16,0.15
268.48,1.76,1.61,1.76,1.61,-1.60,-1.81,-1.75,0.16,0.16,0.16
271.16,1.79,1.64,1.79,1.64,-1.63,-1.83,-1.75,0.16,0.16,0.15
273.87,1.81,1.67,1.81,1.66,-1.66,-1.86,-1.75,0.15,0.15,0.15
276.61,1.83,1.68,1.84,1.69,-1.69,-1.88,-1.75,0.14,0.15,0.15
279.38,1.86,1.72,1.86,1.71,-1.72,-1.89,-1.75,0.14,0.14,0.15
282.17,1.89,1.74,1.89,1.74,-1.75,-1.91,-1.74,0.14,0.14,0.15
284.99,1.92,1.78,1.92,1.77,-1.78,-1.92,-1.73,0.15,0.14,0.15
287.84,1.94,1.80,1.95,1.80,-1.81,-1.93,-1.72,0.14,0.14,0.14
290.72,1.97,1.84,1.97,1.83,-1.83,-1.94,-1.71,0.14,0.14,0.14
293.63,1.99,1.86,1.99,1.86,-1.85,-1.95,-1.70,0.14,0.14,0.13
296.57,2.01,1.88,2.01,1.88,-1.87,-1.95,-1.69,0.14,0.14,0.13
299.53,2.02,1.89,2.02,1.89,-1.89,-1.96,-1.68,0.14,0.14,0.14
302.53,2.03,1.90,2.03,1.90,-1.89,-1.96,-1.66,0.14,0.14,0.13
305.55,2.03,1.90,2.03,1.90,-1.90,-1.96,-1.65,0.14,0.14,0.13
308.61,2.03,1.90,2.03,1.90,-1.90,-1.95,-1.64,0.14,0.14,0.14
311.69,2.02,1.89,2.03,1.89,-1.89,-1.95,-1.63,0.13,0.13,0.13
314.81,2.02,1.88,2.02,1.88,-1.89,-1.94,-1.61,0.14,0.13,0.14
317.96,2.01,1.88,2.02,1.88,-1.88,-1.94,-1.60,0.13,0.13,0.14
321.14,2.01,1.87,2.01,1.87,-1.88,-1.93,-1.59,0.14,0.14,0.14
324.35,2.01,1.87,2.01,1.87,-1.87,-1.92,-1.58,0.14,0.14,0.14
327.59,2.01,1.87,2.01,1.87,-1.87,-1.90,-1.57,0.15,0.15,0.14
330.87,2.01,1.87,2.01,1.87,-1.86,-1.89,-1.57,0.15,0.15,0.15
334.18,2.01,1.86,2.01,1.86,-1.86,-1.88,-1.56,0.15,0.15,0.15
337.52,2.01,1.86,2.01,1.86,-1.86,-1.86,-1.55,0.15,0.15,0.15
340.90,2.01,1.85,2.01,1.86,-1.86,-1.84,-1.55,0.16,0.16,0.16
344.30,2.01,1.86,2.01,1.86,-1.86,-1.83,-1.55,0.16,0.16,0.16
347.75,2.01,1.86,2.01,1.86,-1.86,-1.81,-1.54,0.16,0.16,0.16
351.23,2.01,1.86,2.01,1.86,-1.86,-1.79,-1.54,0.16,0.16,0.15
354.74,2.01,1.85,2.01,1.86,-1.85,-1.77,-1.54,0.16,0.16,0.16
358.28,2.01,1.85,2.01,1.85,-1.85,-1.75,-1.55,0.16,0.16,0.16
361.87,2.01,1.86,2.01,1.85,-1.85,-1.73,-1.55,0.16,0.16,0.16
365.49,2.01,1.86,2.01,1.86,-1.86,-1.71,-1.55,0.16,0.16,0.16
369.14,2.01,1.86,2.01,1.86,-1.86,-1.68,-1.56,0.16,0.15,0.15
372.83,2.01,1.86,2.01,1.86,-1.86,-1.66,-1.57,0.15,0.15,0.15
376.56,2.01,1.85,2.02,1.86,-1.87,-1.64,-1.58,0.15,0.15,0.16
380.33,2.02,1.86,2.02,1.86,-1.87,-1.61,-1.58,0.15,0.15,0.16
384.13,2.03,1.87,2.03,1.87,-1.87,-1.59,-1.60,0.16,0.16,0.16
387.97,2.03,1.88,2.04,1.88,-1.87,-1.57,-1.61,0.16,0.17,0.16
391.85,2.04,1.88,2.04,1.88,-1.87,-1.54,-1.62,0.18,0.17,0.17
395.77,2.03,1.87,2.03,1.87,-1.86,-1.52,-1.63,0.17,0.17,0.17
399.73,2.02,1.85,2.02,1.85,-1.85,-1.49,-1.65,0.18,0.18,0.17
403.72,2.00,1.83,2.00,1.83,-1.83,-1.47,-1.66,0.18,0.18,0.17
407.76,1.98,1.80,1.98,1.80,-1.80,-1.44,-1.68,0.18,0.18,0.18
411.84,1.95,1.77,1.95,1.77,-1.77,-1.42,-1.69,0.18,0.18,0.18
415.96,1.92,1.73,1.92,1.74,-1.74,-1.39,-1.71,0.18,0.18,0.19
420.12,1.89,1.70,1.89,1.70,-1.71,-1.37,-1.72,0.19,0.19,0.19
424.32,1.86,1.68,1.86,1.67,-1.67,-1.34,-1.74,0.19,0.19,0.19
428.56,1.83,1.64,1.83,1.64,-1.64,-1.32,-1.75,0.19,0.19,0.20
432.85,1.80,1.61,1.80,1.61,-1.61,-1.29,-1.77,0.20,0.20,0.20
437.18,1.77,1.58,1.77,1.58,-1.58,-1.27,-1.78,0.20,0.20,0.20
441.55,1.74,1.55,1.75,1.55,-1.55,-1.25,-1.80,0.19,0.20,0.19
445.96,1.72,1.53,1.72,1.53,-1.53,-1.22,-1.81,0.20,0.19,0.19
450.42,1.70,1.51,1.70,1.51,-1.51,-1.20,-1.82,0.19,0.19,0.19
454.93,1.68,1.49,1.69,1.49,-1.50,-1.17,-1.83,0.18,0.18,0.19
459.48,1.67,1.48,1.67,1.48,-1.50,-1.15,-1.84,0.18,0.18,0.19
464.07,1.67,1.48,1.68,1.49,-1.50,-1.13,-1.84,0.18,0.18,0.19
468.71,1.68,1.49,1.69,1.50,-1.50,-1.10,-1.85,0.18,0.19,0.19
473.40,1.70,1.51,1.70,1.51,-1.50,-1.08,-1.85,0.20,0.20,0.19
478.13,1.71,1.51,1.71,1.52,-1.50,-1.06,-1.85,0.21,0.21,0.20
482.91,1.71,1.51,1.71,1.52,-1.50,-1.04,-1.84,0.21,0.21,0.20
487.74,1.70,1.51,1.70,1.50,-1.49,-1.02,-1.84,0.21,0.21,0.20
492.62,1.68,1.49,1.68,1.48,-1.48,-0.99,-1.83,0.20,0.20,0.20
497.55,1.66,1.46,1.66,1.46,-1.46,-0.97,-1.82,0.20,0.20,0.21
