frequency,raw,error,smoothed,error_smoothed,equalization,parametric_eq,fixed_band_eq,equalized_raw,equalized_smoothed,target
20.00,-1.75,-3.05,-1.75,-3.06,3.07,3.22,0.71,1.32,1.32,1.30
20.20,-1.73,-3.03,-1.73,-3.03,3.03,3.17,0.73,1.30,1.31,1.30
20.40,-1.70,-3.00,-1.70,-3.00,2.99,3.12,0.75,1.29,1.30,1.30
20.61,-1.67,-2.97,-1.66,-2.97,2.95,3.08,0.77,1.28,1.29,1.30
20.81,-1.62,-2.92,-1.62,-2.92,2.91,3.03,0.80,1.29,1.29,1.30
21.02,-1.57,-2.87,-1.58,-2.88,2.87,2.98,0.82,1.30,1.29,1.30
21.23,-1.54,-2.84,-1.53,-2.84,2.83,2.93,0.85,1.29,1.30,1.30
21.44,-1.49,-2.79,-1.48,-2.79,2.79,2.88,0.88,1.30,1.30,1.30
21.66,-1.43,-2.73,-1.44,-2.74,2.74,2.84,0.90,1.31,1.31,1.30
21.87,-1.38,-2.68,-1.39,-2.69,2.70,2.79,0.93,1.32,1.31,1.30
22.09,-1.35,-2.65,-1.34,-2.64,2.65,2.74,0.96,1.30,1.31,1.30
22.31,-1.30,-2.60,-1.30,-2.60,2.60,2.69,0.99,1.31,1.30,1.30
22.54,-1.26,-2.56,-1.26,-2.56,2.56,2.64,1.02,1.30,1.30,1.30
22.76,-1.22,-2.52,-1.22,-2.52,2.52,2.59,1.05,1.30,1.30,1.30
22.99,-1.17,-2.47,-1.18,-2.48,2.47,2.55,1.08,1.30,1.30,1.30
23.22,-1.13,-2.43,-1.13,-2.43,2.43,2.50,1.12,1.30,1.30,1.30
23.45,-1.09,-2.39,-1.08,-2.39,2.39,2.45,1.15,1.30,1.30,1.30
23.69,-1.03,-2.33,-1.04,-2.34,2.34,2.40,1.18,1.31,1.30,1.30
23.92,-1.00,-2.30,-1.00,-2.30,2.30,2.36,1.22,1.30,1.31,1.30
24.16,-0.95,-2.25,-0.95,-2.26,2.26,2.31,1.25,1.31,1.31,1.30
24.40,-0.92,-2.22,-0.92,-2.22,2.22,2.26,1.29,1.30,1.30,1.30
24.65,-0.87,-2.17,-0.87,-2.18,2.18,2.21,1.32,1.31,1.30,1.30
24.89,-0.84,-2.14,-0.84,-2.14,2.14,2.17,1.36,1.30,1.30,1.30
25.14,-0.79,-2.09,-0.79,-2.10,2.10,2.12,1.40,1.31,1.30,1.30
25.39,-0.76,-2.06,-0.75,-2.06,2.06,2.07,1.43,1.30,1.30,1.30
25.65,-0.71,-2.01,-0.71,-2.02,2.01,2.02,1.47,1.30,1.30,1.30
25.91,-0.67,-1.97,-0.67,-1.97,1.97,1.98,1.50,1.30,1.30,1.30
26.16,-0.63,-1.93,-0.63,-1.93,1.93,1.93,1.54,1.30,1.30,1.30
26.43,-0.58,-1.88,-0.59,-1.89,1.89,1.89,1.58,1.31,1.30,1.30
26.69,-0.55,-1.85,-0.55,-1.85,1.85,1.84,1.61,1.30,1.30,1.30
26.96,-0.50,-1.80,-0.50,-1.80,1.80,1.79,1.64,1.30,1.30,1.30
27.23,-0.46,-1.76,-0.46,-1.76,1.76,1.75,1.67,1.30,1.30,1.30
27.50,-0.41,-1.71,-0.41,-1.72,1.72,1.70,1.71,1.31,1.31,1.30
27.77,-0.38,-1.68,-0.37,-1.68,1.68,1.66,1.73,1.30,1.30,1.30
28.05,-0.33,-1.63,-0.33,-1.64,1.64,1.61,1.76,1.31,1.30,1.30
28.33,-0.30,-1.60,-0.30,-1.60,1.60,1.57,1.79,1.30,1.30,1.30
28.62,-0.26,-1.56,-0.26,-1.56,1.56,1.52,1.81,1.30,1.30,1.30
28.90,-0.22,-1.52,-0.22,-1.53,1.53,1.48,1.83,1.31,1.30,1.30
29.19,-0.19,-1.49,-0.19,-1.49,1.49,1.44,1.85,1.30,1.30,1.30
29.48,-0.15,-1.45,-0.15,-1.45,1.45,1.39,1.86,1.30,1.30,1.30
29.78,-0.11,-1.41,-0.11,-1.42,1.41,1.35,1.88,1.30,1.30,1.30
30.08,-0.08,-1.38,-0.07,-1.38,1.38,1.31,1.89,1.30,1.30,1.30
30.38,-0.03,-1.33,-0.04,-1.34,1.34,1.27,1.89,1.31,1.30,1.30
30.68,-0.00,-1.30,0.00,-1.30,1.30,1.22,1.89,1.30,1.30,1.30
30.99,0.04,-1.26,0.04,-1.26,1.27,1.18,1.89,1.31,1.31,1.30
31.30,0.08,-1.22,0.08,-1.23,1.23,1.14,1.89,1.31,1.30,1.30
31.61,0.11,-1.19,0.11,-1.20,1.19,1.10,1.88,1.30,1.30,1.30
31.93,0.14,-1.16,0.14,-1.16,1.16,1.06,1.87,1.30,1.30,1.30
32.24,0.17,-1.13,0.18,-1.12,1.12,1.02,1.85,1.29,1.30,1.30
32.57,0.23,-1.07,0.22,-1.08,1.08,0.98,1.83,1.31,1.30,1.30
32.89,0.26,-1.04,0.26,-1.05,1.05,0.94,1.81,1.31,1.30,1.30
33.22,0.29,-1.01,0.29,-1.01,1.01,0.90,1.78,1.30,1.31,1.30
33.55,0.32,-0.98,0.33,-0.98,0.97,0.87,1.76,1.29,1.30,1.30
33.89,0.37,-0.93,0.36,-0.94,0.94,0.83,1.72,1.31,1.30,1.30
34.23,0.40,-0.90,0.40,-0.90,0.90,0.79,1.69,1.30,1.30,1.30
34.57,0.43,-0.87,0.44,-0.86,0.87,0.76,1.65,1.30,1.30,1.30
34.92,0.48,-0.82,0.47,-0.83,0.83,0.72,1.61,1.31,1.30,1.30
35.27,0.51,-0.79,0.51,-0.79,0.80,0.68,1.57,1.31,1.31,1.30
35.62,0.54,-0.76,0.54,-0.76,0.76,0.65,1.53,1.30,1.31,1.30
35.97,0.57,-0.73,0.57,-0.73,0.73,0.62,1.49,1.30,1.30,1.30
36.33,0.60,-0.70,0.60,-0.70,0.70,0.58,1.44,1.30,1.30,1.30
36.70,0.63,-0.67,0.63,-0.67,0.67,0.55,1.39,1.30,1.30,1.30
37.06,0.66,-0.64,0.66,-0.64,0.64,0.52,1.34,1.30,1.30,1.30
37.43,0.69,-0.61,0.70,-0.61,0.61,0.48,1.29,1.30,1.30,1.30
37.81,0.74,-0.56,0.73,-0.57,0.58,0.45,1.24,1.32,1.30,1.30
38.19,0.76,-0.54,0.76,-0.54,0.54,0.42,1.19,1.30,1.30,1.30
38.57,0.78,-0.52,0.79,-0.51,0.51,0.39,1.14,1.29,1.30,1.30
38.95,0.82,-0.48,0.82,-0.48,0.48,0.36,1.09,1.30,1.30,1.30
39.34,0.86,-0.44,0.85,-0.45,0.45,0.33,1.04,1.31,1.30,1.30
39.74,0.87,-0.43,0.88,-0.42,0.42,0.30,0.99,1.29,1.30,1.30
40.14,0.91,-0.39,0.91,-0.39,0.39,0.27,0.94,1.30,1.30,1.30
40.54,0.95,-0.35,0.94,-0.36,0.36,0.25,0.88,1.31,1.30,1.30
40.94,0.96,-0.34,0.97,-0.33,0.33,0.22,0.83,1.29,1.30,1.30
41.35,1.00,-0.30,1.00,-0.31,0.31,0.19,0.78,1.31,1.30,1.30
41.76,1.02,-0.28,1.02,-0.28,0.28,0.17,0.73,1.30,1.30,1.30
42.18,1.05,-0.25,1.05,-0.25,0.25,0.14,0.68,1.30,1.30,1.30
42.60,1.08,-0.22,1.08,-0.22,0.22,0.12,0.63,1.30,1.30,1.30
43.03,1.11,-0.19,1.11,-0.19,0.20,0.09,0.58,1.31,1.31,1.30
43.46,1.13,-0.17,1.13,-0.17,0.17,0.07,0.53,1.30,1.30,1.30
43.90,1.17,-0.13,1.16,-0.15,0.14,0.05,0.48,1.31,1.30,1.30
44.33,1.17,-0.13,1.19,-0.12,0.12,0.02,0.43,1.29,1.30,1.30
44.78,1.21,-0.09,1.21,-0.09,0.09,0.00,0.38,1.30,1.30,1.30
45.23,1.26,-0.04,1.24,-0.06,0.06,-0.02,0.33,1.32,1.30,1.30
45.68,1.26,-0.04,1.27,-0.03,0.03,-0.04,0.28,1.29,1.31,1.30
46.13,1.30,-0.00,1.30,-0.01,0.01,-0.06,0.23,1.31,1.30,1.30
46.60,1.32,0.02,1.32,0.02,-0.02,-0.08,0.19,1.30,1.30,1.30
47.06,1.35,0.05,1.35,0.05,-0.05,-0.10,0.14,1.30,1.30,1.30
47.53,1.39,0.09,1.38,0.08,-0.08,-0.12,0.09,1.31,1.30,1.30
48.01,1.41,0.11,1.41,0.11,-0.11,-0.14,0.05,1.30,1.30,1.30
48.49,1.44,0.14,1.44,0.14,-0.14,-0.15,0.00,1.30,1.30,1.30
48.97,1.47,0.17,1.47,0.17,-0.17,-0.17,-0.04,1.30,1.30,1.30
49.46,1.50,0.20,1.50,0.19,-0.20,-0.19,-0.09,1.30,1.30,1.30
49.96,1.52,0.22,1.53,0.23,-0.22,-0.20,-0.13,1.30,1.30,1.30
50.46,1.56,0.26,1.55,0.25,-0.25,-0.22,-0.18,1.31,1.30,1.30
50.96,1.59,0.29,1.58,0.28,-0.28,-0.23,-0.22,1.31,1.30,1.30
51.47,1.60,0.30,1.61,0.31,-0.31,-0.25,-0.26,1.29,1.30,1.30
51.99,1.65,0.35,1.64,0.33,-0.34,-0.26,-0.30,1.31,1.30,1.30
52.51,1.66,0.36,1.67,0.36,-0.37,-0.28,-0.35,1.29,1.30,1.30
53.03,1.69,0.39,1.70,0.39,-0.39,-0.29,-0.39,1.30,1.30,1.30
53.56,1.73,0.43,1.72,0.42,-0.42,-0.31,-0.43,1.31,1.30,1.30
54.10,1.75,0.45,1.75,0.45,-0.45,-0.32,-0.47,1.30,1.31,1.30
54.64,1.78,0.48,1.78,0.48,-0.48,-0.33,-0.51,1.30,1.30,1.30
55.18,1.81,0.51,1.80,0.50,-0.50,-0.34,-0.54,1.31,1.30,1.30
55.74,1.82,0.52,1.83,0.53,-0.53,-0.36,-0.58,1.29,1.30,1.30
56.29,1.86,0.56,1.86,0.56,-0.56,-0.37,-0.61,1.30,1.30,1.30
56.86,1.90,0.60,1.89,0.59,-0.59,-0.38,-0.65,1.31,1.30,1.30
57.42,1.91,0.61,1.92,0.62,-0.61,-0.39,-0.68,1.30,1.31,1.30
58.00,1.95,0.65,1.95,0.64,-0.64,-0.40,-0.71,1.31,1.31,1.30
58.58,1.97,0.67,1.97,0.66,-0.66,-0.42,-0.74,1.31,1.30,1.30
59.16,1.99,0.69,1.99,0.69,-0.69,-0.43,-0.77,1.30,1.30,1.30
59.76,2.01,0.71,2.01,0.71,-0.72,-0.44,-0.80,1.29,1.30,1.30
60.35,2.04,0.74,2.04,0.74,-0.74,-0.45,-0.82,1.30,1.30,1.30
60.96,2.07,0.77,2.07,0.76,-0.76,-0.46,-0.85,1.31,1.30,1.30
61.57,2.08,0.78,2.09,0.79,-0.78,-0.47,-0.87,1.30,1.30,1.30
62.18,2.12,0.82,2.11,0.81,-0.81,-0.48,-0.89,1.31,1.30,1.30
62.80,2.12,0.82,2.13,0.83,-0.83,-0.50,-0.91,1.29,1.30,1.30
63.43,2.16,0.86,2.15,0.85,-0.85,-0.51,-0.93,1.31,1.30,1.30
64.07,2.17,0.87,2.17,0.86,-0.87,-0.52,-0.95,1.30,1.30,1.30
64.71,2.17,0.87,2.19,0.88,-0.88,-0.53,-0.96,1.29,1.31,1.30
65.35,2.21,0.91,2.20,0.90,-0.89,-0.54,-0.97,1.32,1.30,1.30
66.01,2.21,0.91,2.21,0.91,-0.90,-0.55,-0.99,1.31,1.31,1.30
66.67,2.21,0.91,2.21,0.91,-0.91,-0.57,-1.00,1.30,1.30,1.30
67.33,2.21,0.91,2.21,0.91,-0.91,-0.58,-1.01,1.30,1.30,1.30
68.01,2.21,0.91,2.21,0.91,-0.91,-0.59,-1.02,1.30,1.30,1.30
68.69,2.21,0.91,2.21,0.91,-0.91,-0.60,-1.02,1.30,1.30,1.30
69.37,2.21,0.91,2.21,0.90,-0.90,-0.62,-1.03,1.31,1.31,1.30
70.07,2.20,0.90,2.20,0.89,-0.89,-0.63,-1.04,1.31,1.31,1.30
70.77,2.17,0.87,2.18,0.87,-0.87,-0.64,-1.04,1.30,1.31,1.30
71.48,2.16,0.86,2.15,0.85,-0.85,-0.66,-1.05,1.31,1.30,1.30
72.19,2.12,0.82,2.13,0.82,-0.83,-0.67,-1.05,1.29,1.30,1.30
72.91,2.10,0.80,2.10,0.80,-0.80,-0.69,-1.05,1.30,1.30,1.30
73.64,2.07,0.77,2.07,0.77,-0.77,-0.70,-1.06,1.30,1.30,1.30
74.38,2.04,0.74,2.04,0.74,-0.74,-0.72,-1.06,1.30,1.30,1.30
75.12,2.01,0.71,2.01,0.71,-0.71,-0.73,-1.07,1.30,1.30,1.30
75.87,1.98,0.68,1.98,0.68,-0.67,-0.75,-1.07,1.30,1.30,1.30
76.63,1.95,0.65,1.95,0.65,-0.64,-0.77,-1.08,1.31,1.31,1.30
77.40,1.92,0.62,1.92,0.62,-0.61,-0.78,-1.08,1.31,1.31,1.30
78.17,1.89,0.59,1.89,0.59,-0.59,-0.80,-1.09,1.30,1.30,1.30
78.95,1.86,0.56,1.86,0.56,-0.56,-0.82,-1.09,1.30,1.30,1.30
79.74,1.83,0.53,1.84,0.53,-0.54,-0.84,-1.10,1.29,1.30,1.30
80.54,1.82,0.52,1.82,0.52,-0.52,-0.86,-1.11,1.30,1.30,1.30
81.35,1.82,0.52,1.81,0.51,-0.51,-0.88,-1.11,1.31,1.30,1.30
82.16,1.80,0.50,1.81,0.50,-0.50,-0.89,-1.12,1.30,1.31,1.30
82.98,1.80,0.50,1.80,0.50,-0.50,-0.91,-1.13,1.30,1.30,1.30
83.81,1.81,0.51,1.81,0.50,-0.51,-0.94,-1.14,1.30,1.30,1.30
84.65,1.82,0.52,1.82,0.51,-0.52,-0.96,-1.15,1.30,1.30,1.30
85.50,1.83,0.53,1.84,0.53,-0.54,-0.98,-1.16,1.29,1.30,1.30
86.35,1.86,0.56,1.87,0.56,-0.56,-1.00,-1.18,1.30,1.30,1.30
87.22,1.91,0.61,1.90,0.60,-0.60,-1.02,-1.19,1.31,1.30,1.30
88.09,1.94,0.64,1.94,0.64,-0.63,-1.04,-1.20,1.31,1.31,1.30
88.97,1.97,0.67,1.98,0.67,-0.67,-1.07,-1.22,1.30,1.31,1.30
89.86,2.02,0.72,2.02,0.72,-0.72,-1.09,-1.24,1.30,1.30,1.30
90.76,2.07,0.77,2.07,0.76,-0.76,-1.11,-1.25,1.31,1.30,1.30
91.66,2.12,0.82,2.12,0.81,-0.81,-1.14,-1.27,1.31,1.30,1.30
92.58,2.16,0.86,2.16,0.86,-0.87,-1.16,-1.29,1.29,1.30,1.30
93.51,2.22,0.92,2.22,0.91,-0.92,-1.18,-1.31,1.30,1.30,1.30
94.44,2.27,0.97,2.28,0.97,-0.97,-1.21,-1.33,1.30,1.30,1.30
95.39,2.34,1.04,2.34,1.04,-1.03,-1.23,-1.36,1.31,1.31,1.30
96.34,2.40,1.10,2.40,1.09,-1.08,-1.26,-1.38,1.32,1.31,1.30
97.30,2.45,1.15,2.45,1.14,-1.14,-1.28,-1.40,1.31,1.31,1.30
98.28,2.49,1.19,2.49,1.19,-1.19,-1.31,-1.43,1.30,1.30,1.30
99.26,2.53,1.23,2.54,1.23,-1.25,-1.33,-1.45,1.28,1.29,1.30
100.25,2.59,1.29,2.59,1.29,-1.30,-1.36,-1.48,1.29,1.30,1.30
101.25,2.65,1.35,2.65,1.35,-1.34,-1.38,-1.50,1.31,1.31,1.30
102.27,2.71,1.41,2.70,1.40,-1.39,-1.41,-1.53,1.32,1.31,1.30
103.29,2.74,1.44,2.74,1.44,-1.43,-1.43,-1.56,1.31,1.31,1.30
104.32,2.77,1.47,2.78,1.48,-1.47,-1.46,-1.58,1.30,1.31,1.30
105.37,2.82,1.52,2.81,1.51,-1.51,-1.48,-1.61,1.31,1.30,1.30
106.42,2.85,1.55,2.85,1.55,-1.55,-1.51,-1.64,1.30,1.30,1.30
107.48,2.88,1.58,2.88,1.58,-1.58,-1.53,-1.67,1.30,1.30,1.30
108.56,2.91,1.61,2.91,1.61,-1.61,-1.56,-1.69,1.30,1.30,1.30
109.64,2.95,1.65,2.94,1.64,-1.64,-1.58,-1.72,1.31,1.30,1.30
110.74,2.97,1.67,2.97,1.67,-1.67,-1.60,-1.74,1.30,1.30,1.30
111.85,3.00,1.70,3.00,1.70,-1.70,-1.63,-1.77,1.30,1.30,1.30
112.97,3.03,1.73,3.03,1.73,-1.73,-1.65,-1.79,1.30,1.31,1.30
114.10,3.06,1.76,3.05,1.75,-1.75,-1.67,-1.81,1.31,1.31,1.30
115.24,3.08,1.78,3.08,1.77,-1.77,-1.70,-1.83,1.31,1.31,1.30
116.39,3.08,1.78,3.09,1.79,-1.79,-1.72,-1.85,1.29,1.30,1.30
117.55,3.12,1.82,3.11,1.81,-1.81,-1.74,-1.87,1.31,1.30,1.30
118.73,3.12,1.82,3.13,1.83,-1.83,-1.76,-1.89,1.29,1.30,1.30
119.92,3.16,1.86,3.15,1.84,-1.84,-1.78,-1.90,1.32,1.30,1.30
121.12,3.16,1.86,3.16,1.86,-1.86,-1.80,-1.92,1.30,1.30,1.30
122.33,3.16,1.86,3.18,1.88,-1.88,-1.82,-1.93,1.28,1.30,1.30
123.55,3.21,1.91,3.19,1.89,-1.89,-1.84,-1.94,1.32,1.30,1.30
124.79,3.21,1.91,3.21,1.91,-1.91,-1.86,-1.94,1.30,1.30,1.30
126.03,3.21,1.91,3.23,1.93,-1.92,-1.87,-1.95,1.29,1.31,1.30
127.29,3.25,1.95,3.23,1.93,-1.94,-1.89,-1.95,1.31,1.30,1.30
128.57,3.25,1.95,3.25,1.95,-1.95,-1.91,-1.95,1.30,1.30,1.30
129.85,3.25,1.95,3.26,1.96,-1.96,-1.92,-1.95,1.29,1.31,1.30
131.15,3.28,1.98,3.27,1.97,-1.97,-1.94,-1.95,1.31,1.31,1.30
132.46,3.29,1.99,3.29,1.98,-1.98,-1.95,-1.94,1.31,1.31,1.30
133.79,3.29,1.99,3.29,1.99,-1.98,-1.96,-1.94,1.31,1.31,1.30
135.12,3.29,1.99,3.29,1.98,-1.99,-1.97,-1.93,1.30,1.29,1.30
136.48,3.29,1.99,3.29,1.99,-2.00,-1.99,-1.92,1.29,1.29,1.30
137.84,3.29,1.99,3.30,2.00,-2.01,-2.00,-1.91,1.28,1.29,1.30
139.22,3.33,2.03,3.32,2.02,-2.02,-2.01,-1.90,1.31,1.30,1.30
140.61,3.34,2.04,3.33,2.03,-2.02,-2.01,-1.88,1.32,1.31,1.30
142.02,3.34,2.04,3.34,2.04,-2.03,-2.02,-1.87,1.31,1.31,1.30
143.44,3.34,2.04,3.34,2.04,-2.03,-2.03,-1.86,1.31,1.31,1.30
144.87,3.34,2.04,3.34,2.04,-2.04,-2.04,-1.84,1.30,1.30,1.30
146.32,3.34,2.04,3.34,2.04,-2.04,-2.04,-1.83,1.30,1.30,1.30
147.78,3.34,2.04,3.34,2.04,-2.04,-2.05,-1.81,1.30,1.30,1.30
149.26,3.34,2.04,3.34,2.04,-2.04,-2.05,-1.80,1.30,1.30,1.30
150.75,3.34,2.04,3.34,2.04,-2.04,-2.05,-1.78,1.30,1.30,1.30
152.26,3.34,2.04,3.34,2.04,-2.04,-2.06,-1.77,1.30,1.30,1.30
153.78,3.34,2.04,3.34,2.04,-2.04,-2.06,-1.76,1.30,1.30,1.30
155.32,3.34,2.04,3.34,2.04,-2.04,-2.06,-1.75,1.30,1.30,1.30
156.88,3.34,2.04,3.34,2.04,-2.04,-2.06,-1.73,1.30,1.30,1.30
158.44,3.34,2.04,3.34,2.04,-2.04,-2.06,-1.72,1.30,1.30,1.30
160.03,3.34,2.04,3.34,2.04,-2.04,-2.05,-1.71,1.30,1.30,1.30
161.63,3.34,2.04,3.34,2.04,-2.04,-2.05,-1.70,1.30,1.30,1.30
163.24,3.34,2.04,3.34,2.04,-2.04,-2.05,-1.69,1.30,1.30,1.30
164.88,3.34,2.04,3.34,2.04,-2.04,-2.04,-1.69,1.30,1.30,1.30
166.53,3.34,2.04,3.34,2.04,-2.04,-2.04,-1.68,1.30,1.30,1.30
168.19,3.34,2.04,3.34,2.04,-2.03,-2.03,-1.68,1.31,1.31,1.30
169.87,3.34,2.04,3.34,2.04,-2.03,-2.03,-1.67,1.31,1.31,1.30
171.57,3.34,2.04,3.33,2.03,-2.02,-2.02,-1.67,1.32,1.31,1.30
173.29,3.31,2.01,3.31,2.01,-2.01,-2.01,-1.67,1.30,1.30,1.30
175.02,3.29,1.99,3.30,2.00,-2.01,-2.00,-1.67,1.28,1.29,1.30
176.77,3.29,1.99,3.29,1.99,-2.00,-1.99,-1.67,1.29,1.29,1.30
178.54,3.29,1.99,3.29,1.99,-1.99,-1.98,-1.68,1.30,1.29,1.30
180.32,3.29,1.99,3.29,1.99,-1.99,-1.97,-1.68,1.30,1.30,1.30
182.13,3.29,1.99,3.29,1.99,-1.98,-1.96,-1.69,1.31,1.31,1.30
183.95,3.29,1.99,3.29,1.99,-1.98,-1.95,-1.69,1.31,1.31,1.30
185.79,3.29,1.99,3.28,1.98,-1.97,-1.94,-1.70,1.32,1.31,1.30
187.65,3.27,1.97,3.27,1.97,-1.97,-1.93,-1.71,1.30,1.30,1.30
189.52,3.25,1.95,3.26,1.96,-1.96,-1.91,-1.72,1.29,1.29,1.30
191.42,3.25,1.95,3.25,1.95,-1.96,-1.90,-1.73,1.29,1.29,1.30
193.33,3.25,1.95,3.25,1.95,-1.95,-1.88,-1.75,1.30,1.30,1.30
195.27,3.25,1.95,3.25,1.95,-1.94,-1.87,-1.76,1.31,1.31,1.30
197.22,3.25,1.95,3.25,1.95,-1.94,-1.85,-1.78,1.31,1.31,1.30
199.19,3.25,1.95,3.24,1.93,-1.93,-1.84,-1.79,1.32,1.31,1.30
201.18,3.21,1.91,3.22,1.92,-1.93,-1.82,-1.81,1.28,1.30,1.30
203.19,3.21,1.91,3.21,1.91,-1.92,-1.80,-1.82,1.29,1.29,1.30
205.23,3.21,1.91,3.21,1.91,-1.91,-1.79,-1.84,1.30,1.30,1.30
207.28,3.21,1.91,3.21,1.91,-1.90,-1.77,-1.86,1.31,1.31,1.30
209.35,3.21,1.91,3.20,1.89,-1.89,-1.75,-1.88,1.32,1.31,1.30
211.44,3.17,1.87,3.18,1.88,-1.88,-1.73,-1.90,1.29,1.30,1.30
213.56,3.16,1.86,3.17,1.87,-1.87,-1.71,-1.91,1.29,1.30,1.30
215.69,3.16,1.86,3.15,1.85,-1.86,-1.70,-1.93,1.30,1.30,1.30
217.85,3.16,1.86,3.15,1.84,-1.84,-1.68,-1.95,1.32,1.30,1.30
220.03,3.12,1.82,3.14,1.83,-1.83,-1.66,-1.96,1.29,1.31,1.30
222.23,3.12,1.82,3.12,1.81,-1.82,-1.64,-1.98,1.30,1.30,1.30
224.45,3.11,1.81,3.10,1.80,-1.80,-1.62,-1.99,1.31,1.30,1.30
226.70,3.08,1.78,3.09,1.79,-1.79,-1.60,-2.00,1.29,1.31,1.30
228.96,3.08,1.78,3.07,1.77,-1.77,-1.58,-2.01,1.31,1.30,1.30
231.25,3.05,1.75,3.05,1.75,-1.75,-1.56,-2.02,1.30,1.30,1.30
233.57,3.03,1.73,3.04,1.73,-1.73,-1.53,-2.03,1.30,1.30,1.30
235.90,3.03,1.73,3.02,1.72,-1.72,-1.51,-2.03,1.31,1.30,1.30
238.26,2.99,1.69,3.00,1.70,-1.70,-1.49,-2.03,1.29,1.30,1.30
240.64,2.99,1.69,2.98,1.68,-1.68,-1.47,-2.03,1.31,1.31,1.30
243.05,2.95,1.65,2.96,1.65,-1.66,-1.45,-2.03,1.29,1.30,1.30
245.48,2.95,1.65,2.94,1.64,-1.64,-1.43,-2.02,1.31,1.30,1.30
247.93,2.90,1.60,2.91,1.61,-1.61,-1.41,-2.02,1.29,1.30,1.30
250.41,2.90,1.60,2.89,1.59,-1.59,-1.38,-2.00,1.31,1.30,1.30
252.92,2.86,1.56,2.87,1.57,-1.57,-1.36,-1.99,1.29,1.30,1.30
255.45,2.86,1.56,2.85,1.55,-1.54,-1.34,-1.97,1.32,1.31,1.30
258.00,2.82,1.52,2.82,1.52,-1.52,-1.32,-1.95,1.30,1.31,1.30
260.58,2.80,1.50,2.80,1.50,-1.50,-1.29,-1.93,1.30,1.30,1.30
263.19,2.77,1.47,2.77,1.47,-1.47,-1.27,-1.90,1.30,1.30,1.30
265.82,2.74,1.44,2.74,1.44,-1.45,-1.25,-1.87,1.29,1.30,1.30
268.48,2.73,1.43,2.72,1.42,-1.42,-1.23,-1.84,1.31,1.30,1.30
271.16,2.69,1.39,2.70,1.40,-1.40,-1.20,-1.81,1.29,1.30,1.30
273.87,2.69,1.39,2.68,1.37,-1.37,-1.18,-1.77,1.32,1.30,1.30
276.61,2.64,1.34,2.65,1.35,-1.35,-1.16,-1.74,1.29,1.30,1.30
279.38,2.63,1.33,2.63,1.32,-1.32,-1.13,-1.70,1.31,1.30,1.30
282.17,2.60,1.30,2.60,1.30,-1.30,-1.11,-1.66,1.30,1.30,1.30
284.99,2.57,1.27,2.58,1.27,-1.27,-1.09,-1.61,1.30,1.30,1.30
287.84,2.56,1.26,2.55,1.25,-1.25,-1.06,-1.57,1.31,1.30,1.30
290.72,2.51,1.21,2.52,1.22,-1.22,-1.04,-1.52,1.29,1.30,1.30
293.63,2.50,1.20,2.50,1.19,-1.20,-1.02,-1.48,1.30,1.30,1.30
296.57,2.47,1.17,2.47,1.17,-1.17,-1.00,-1.43,1.30,1.30,1.30
299.53,2.45,1.15,2.45,1.15,-1.14,-0.97,-1.38,1.31,1.31,1.30
302.53,2.43,1.13,2.42,1.12,-1.12,-0.95,-1.34,1.31,1.30,1.30
305.55,2.39,1.09,2.40,1.09,-1.09,-0.93,-1.29,1.30,1.30,1.30
308.61,2.37,1.07,2.37,1.07,-1.07,-0.90,-1.24,1.30,1.30,1.30
311.69,2.34,1.04,2.34,1.04,-1.04,-0.88,-1.19,1.30,1.30,1.30
314.81,2.32,1.02,2.32,1.02,-1.02,-0.86,-1.14,1.30,1.30,1.30
317.96,2.30,1.00,2.29,0.99,-0.99,-0.83,-1.09,1.31,1.30,1.30
321.14,2.26,0.96,2.27,0.97,-0.96,-0.81,-1.05,1.30,1.30,1.30
324.35,2.25,0.95,2.24,0.94,-0.94,-0.78,-1.00,1.31,1.30,1.30
327.59,2.21,0.91,2.22,0.91,-0.91,-0.76,-0.95,1.30,1.30,1.30
330.87,2.19,0.89,2.19,0.89,-0.89,-0.74,-0.90,1.30,1.30,1.30
334.18,2.17,0.87,2.16,0.86,-0.86,-0.71,-0.86,1.31,1.30,1.30
337.52,2.13,0.83,2.14,0.84,-0.84,-0.69,-0.81,1.29,1.30,1.30
340.90,2.12,0.82,2.11,0.81,-0.81,-0.67,-0.76,1.31,1.30,1.30
344.30,2.08,0.78,2.09,0.78,-0.78,-0.64,-0.72,1.30,1.30,1.30
347.75,2.06,0.76,2.06,0.76,-0.76,-0.62,-0.67,1.30,1.30,1.30
351.23,2.04,0.74,2.03,0.73,-0.73,-0.60,-0.63,1.31,1.30,1.30
354.74,2.00,0.70,2.01,0.71,-0.71,-0.57,-0.58,1.29,1.30,1.30
358.28,1.99,0.69,1.98,0.68,-0.68,-0.55,-0.54,1.31,1.30,1.30
361.87,1.95,0.65,1.96,0.65,-0.65,-0.52,-0.50,1.30,1.30,1.30
365.49,1.93,0.63,1.93,0.63,-0.63,-0.50,-0.45,1.30,1.30,1.30
369.14,1.91,0.61,1.90,0.60,-0.60,-0.47,-0.41,1.31,1.30,1.30
372.83,1.87,0.57,1.88,0.58,-0.58,-0.45,-0.37,1.29,1.31,1.30
376.56,1.86,0.56,1.85,0.55,-0.55,-0.43,-0.33,1.31,1.30,1.30
380.33,1.82,0.52,1.82,0.52,-0.52,-0.40,-0.29,1.30,1.30,1.30
384.13,1.78,0.48,1.80,0.49,-0.49,-0.38,-0.24,1.29,1.31,1.30
387.97,1.78,0.48,1.76,0.46,-0.46,-0.35,-0.20,1.32,1.30,1.30
391.85,1.73,0.43,1.73,0.43,-0.43,-0.33,-0.16,1.30,1.30,1.30
395.77,1.69,0.39,1.70,0.40,-0.40,-0.30,-0.13,1.29,1.30,1.30
399.73,1.67,0.37,1.67,0.36,-0.37,-0.28,-0.09,1.30,1.30,1.30
403.72,1.63,0.33,1.63,0.33,-0.33,-0.25,-0.05,1.30,1.30,1.30
407.76,1.61,0.31,1.60,0.30,-0.29,-0.22,-0.01,1.32,1.31,1.30
411.84,1.55,0.25,1.56,0.26,-0.25,-0.20,0.03,1.30,1.31,1.30
415.96,1.52,0.22,1.52,0.22,-0.21,-0.17,0.06,1.31,1.31,1.30
420.12,1.47,0.17,1.47,0.17,-0.17,-0.15,0.10,1.30,1.30,1.30
424.32,1.43,0.13,1.42,0.12,-0.12,-0.12,0.13,1.31,1.30,1.30
428.56,1.37,0.07,1.37,0.07,-0.07,-0.09,0.17,1.30,1.30,1.30
432.85,1.32,0.02,1.33,0.02,-0.02,-0.07,0.20,1.30,1.30,1.30
437.18,1.28,-0.02,1.28,-0.03,0.02,-0.04,0.24,1.30,1.30,1.30
441.55,1.24,-0.06,1.23,-0.07,0.07,-0.01,0.27,1.31,1.30,1.30
445.96,1.18,-0.12,1.19,-0.11,0.11,0.01,0.30,1.29,1.30,1.30
450.42,1.15,-0.15,1.14,-0.16,0.16,0.04,0.33,1.31,1.30,1.30
454.93,1.10,-0.20,1.10,-0.20,0.20,0.07,0.36,1.30,1.30,1.30
459.48,1.07,-0.23,1.07,-0.23,0.23,0.10,0.39,1.30,1.30,1.30
464.07,1.04,-0.26,1.03,-0.27,0.27,0.12,0.42,1.31,1.30,1.30
468.71,1.00,-0.30,1.00,-0.30,0.30,0.15,0.44,1.30,1.31,1.30
473.40,0.97,-0.33,0.97,-0.33,0.33,0.18,0.47,1.30,1.30,1.30
478.13,0.95,-0.35,0.94,-0.36,0.36,0.21,0.49,1.31,1.30,1.30
482.91,0.91,-0.39,0.91,-0.39,0.39,0.23,0.52,1.30,1.30,1.30
487.74,0.89,-0.41,0.89,-0.41,0.41,0.26,0.54,1.30,1.30,1.30
492.62,0.87,-0.43,0.87,-0.43,0.43,0.29,0.56,1.30,1.30,1.30
497.55,0.86,-0.44,0.85,-0.45,0.45,0.31,0.58,1.31,1.30,1.30
502.52,0.82,-0.48,0.83,-0.47,0.47,0.34,0.60,1.29,1.30,1.30
507.55,0.82,-0.48,0.82,-0.48,0.48,0.36,0.62,1.30,1.30,1.30
512.62,0.82,-0.48,0.81,-0.49,0.49,0.39,0.63,1.31,1.30,1.30
517.75,0.82,-0.48,0.81,-0.50,0.50,0.41,0.65,1.32,1.31,1.30
522.93,0.78,-0.52,0.79,-0.51,0.51,0.44,0.66,1.29,1.30,1.30
528.16,0.78,-0.52,0.78,-0.52,0.51,0.46,0.67,1.29,1.29,1.30
533.44,0.78,-0.52,0.78,-0.52,0.52,0.48,0.69,1.30,1.30,1.30
538.77,0.78,-0.52,0.78,-0.52,0.53,0.51,0.70,1.31,1.31,1.30
544.16,0.78,-0.52,0.77,-0.53,0.54,0.53,0.71,1.32,1.31,1.30
549.60,0.74,-0.56,0.75,-0.55,0.55,0.55,0.72,1.29,1.31,1.30
