frequency,raw,error,smoothed,error_smoothed,equalization,parametric_eq,fixed_band_eq,equalized_raw,equalized_smoothed,target
20.00,-16.77,-18.15,-16.77,-18.16,6.00,4.72,2.91,-10.77,-10.77,1.38
20.20,-16.64,-18.02,-16.64,-18.02,6.00,4.78,3.00,-10.64,-10.64,1.38
20.40,-16.52,-17.89,-16.51,-17.89,6.00,4.84,3.08,-10.52,-10.51,1.37
20.61,-16.38,-17.76,-16.38,-17.75,6.00,4.91,3.17,-10.38,-10.38,1.37
20.81,-16.24,-17.60,-16.24,-17.61,6.00,4.97,3.26,-10.24,-10.24,1.36
21.02,-16.11,-17.47,-16.11,-17.47,6.00,5.03,3.35,-10.11,-10.11,1.36
21.23,-15.97,-17.32,-15.98,-17.33,6.00,5.09,3.45,-9.97,-9.98,1.35
21.44,-15.85,-17.20,-15.85,-17.20,6.00,5.15,3.55,-9.85,-9.85,1.35
21.66,-15.72,-17.07,-15.72,-17.07,6.00,5.21,3.65,-9.72,-9.72,1.34
21.87,-15.60,-16.94,-15.60,-16.94,6.00,5.27,3.75,-9.60,-9.60,1.34
22.09,-15.47,-16.80,-15.47,-16.81,6.00,5.33,3.86,-9.47,-9.47,1.33
22.31,-15.35,-16.68,-15.35,-16.68,6.00,5.39,3.96,-9.35,-9.35,1.33
22.54,-15.23,-16.57,-15.23,-16.56,6.00,5.45,4.08,-9.23,-9.23,1.33
22.76,-15.10,-16.42,-15.11,-16.43,6.00,5.50,4.19,-9.10,-9.11,1.32
22.99,-14.98,-16.30,-14.98,-16.30,6.00,5.56,4.31,-8.98,-8.98,1.32
23.22,-14.86,-16.17,-14.85,-16.17,6.00,5.61,4.43,-8.86,-8.85,1.31
23.45,-14.72,-16.03,-14.73,-16.04,6.00,5.66,4.55,-8.72,-8.73,1.31
23.69,-14.60,-15.92,-14.60,-15.91,6.00,5.71,4.67,-8.60,-8.60,1.31
23.92,-14.47,-15.77,-14.47,-15.78,6.00,5.76,4.80,-8.47,-8.47,1.30
24.16,-14.34,-15.64,-14.34,-15.65,6.00,5.80,4.93,-8.34,-8.34,1.30
24.40,-14.22,-15.52,-14.22,-15.52,6.00,5.85,5.06,-8.22,-8.22,1.30
24.65,-14.09,-15.40,-14.09,-15.39,6.00,5.89,5.20,-8.09,-8.09,1.30
24.89,-13.96,-15.25,-13.96,-15.26,6.00,5.93,5.33,-7.96,-7.96,1.29
25.14,-13.83,-15.12,-13.83,-15.12,6.00,5.97,5.47,-7.83,-7.83,1.29
25.39,-13.70,-14.99,-13.70,-14.99,6.00,6.00,5.60,-7.70,-7.70,1.29
25.65,-13.57,-14.87,-13.57,-14.86,6.00,6.04,5.74,-7.57,-7.57,1.29
25.91,-13.44,-14.74,-13.44,-14.74,6.00,6.07,5.88,-7.44,-7.44,1.29
26.16,-13.31,-14.60,-13.31,-14.60,6.00,6.10,6.02,-7.31,-7.31,1.29
26.43,-13.18,-14.48,-13.18,-14.47,6.00,6.12,6.16,-7.18,-7.18,1.29
26.69,-13.05,-14.33,-13.05,-14.34,6.00,6.14,6.29,-7.05,-7.05,1.28
26.96,-12.92,-14.21,-12.92,-14.20,6.00,6.16,6.43,-6.92,-6.92,1.28
27.23,-12.78,-14.07,-12.79,-14.07,6.00,6.18,6.56,-6.78,-6.79,1.28
27.50,-12.66,-13.95,-12.66,-13.94,6.00,6.19,6.68,-6.66,-6.66,1.28
27.77,-12.52,-13.80,-12.52,-13.80,6.00,6.20,6.81,-6.52,-6.52,1.28
28.05,-12.39,-13.66,-12.39,-13.67,6.00,6.21,6.93,-6.39,-6.39,1.27
28.33,-12.26,-13.53,-12.26,-13.53,6.00,6.22,7.04,-6.26,-6.26,1.27
28.62,-12.12,-13.40,-12.13,-13.39,6.00,6.22,7.14,-6.12,-6.13,1.27
28.90,-11.99,-13.25,-11.99,-13.26,6.00,6.22,7.24,-5.99,-5.99,1.26
29.19,-11.86,-13.12,-11.86,-13.12,6.00,6.22,7.33,-5.86,-5.86,1.26
29.48,-11.72,-12.98,-11.72,-12.98,6.00,6.21,7.41,-5.72,-5.72,1.26
29.78,-11.58,-12.84,-11.59,-12.84,6.00,6.21,7.48,-5.58,-5.59,1.25
30.08,-11.45,-12.71,-11.45,-12.71,6.00,6.20,7.54,-5.45,-5.45,1.25
30.38,-11.32,-12.58,-11.32,-12.57,6.00,6.19,7.59,-5.32,-5.32,1.25
30.68,-11.18,-12.43,-11.18,-12.43,6.00,6.18,7.62,-5.18,-5.18,1.25
30.99,-11.03,-12.29,-11.04,-12.29,6.00,6.18,7.64,-5.03,-5.04,1.25
31.30,-10.90,-12.16,-10.90,-12.16,6.00,6.17,7.65,-4.90,-4.90,1.25
31.61,-10.76,-12.02,-10.76,-12.02,6.00,6.16,7.65,-4.76,-4.76,1.26
31.93,-10.62,-11.89,-10.62,-11.89,6.00,6.15,7.64,-4.62,-4.62,1.26
32.24,-10.48,-11.74,-10.48,-11.75,6.00,6.14,7.61,-4.48,-4.48,1.26
32.57,-10.34,-11.61,-10.34,-11.60,6.00,6.13,7.58,-4.34,-4.34,1.26
32.89,-10.20,-11.46,-10.20,-11.46,6.00,6.13,7.53,-4.20,-4.20,1.26
33.22,-10.06,-11.32,-10.06,-11.32,6.00,6.12,7.47,-4.06,-4.06,1.26
33.55,-9.92,-11.18,-9.92,-11.18,6.00,6.12,7.40,-3.92,-3.92,1.26
33.89,-9.78,-11.04,-9.78,-11.04,6.00,6.12,7.32,-3.78,-3.78,1.26
34.23,-9.64,-10.90,-9.64,-10.90,6.00,6.11,7.24,-3.64,-3.64,1.25
34.57,-9.49,-10.74,-9.50,-10.75,6.00,6.11,7.15,-3.49,-3.50,1.25
34.92,-9.35,-10.60,-9.35,-10.59,6.00,6.11,7.05,-3.35,-3.35,1.24
35.27,-9.21,-10.45,-9.21,-10.44,6.00,6.11,6.95,-3.21,-3.21,1.23
35.62,-9.06,-10.29,-9.06,-10.29,6.00,6.11,6.84,-3.06,-3.06,1.22
35.97,-8.92,-10.14,-8.92,-10.14,6.00,6.11,6.73,-2.92,-2.92,1.22
36.33,-8.77,-9.98,-8.77,-9.98,6.00,6.11,6.61,-2.77,-2.77,1.21
36.70,-8.64,-9.84,-8.63,-9.83,6.00,6.11,6.50,-2.64,-2.63,1.19
37.06,-8.48,-9.66,-8.49,-9.67,6.00,6.11,6.38,-2.48,-2.49,1.18
37.43,-8.34,-9.51,-8.34,-9.51,6.00,6.11,6.26,-2.34,-2.34,1.17
37.81,-8.20,-9.36,-8.20,-9.36,6.00,6.11,6.15,-2.20,-2.20,1.16
38.19,-8.05,-9.21,-8.05,-9.21,6.00,6.12,6.03,-2.05,-2.05,1.15
38.57,-7.91,-9.06,-7.91,-9.06,6.00,6.12,5.91,-1.91,-1.91,1.15
38.95,-7.76,-8.90,-7.76,-8.90,6.00,6.12,5.80,-1.76,-1.76,1.14
39.34,-7.61,-8.74,-7.61,-8.75,6.00,6.13,5.68,-1.61,-1.61,1.13
39.74,-7.47,-8.61,-7.47,-8.60,6.00,6.14,5.57,-1.47,-1.47,1.13
40.14,-7.32,-8.45,-7.32,-8.45,6.00,6.15,5.46,-1.32,-1.32,1.12
40.54,-7.18,-8.31,-7.18,-8.30,6.00,6.15,5.36,-1.18,-1.18,1.12
40.94,-7.03,-8.15,-7.03,-8.16,6.00,6.16,5.25,-1.03,-1.03,1.12
41.35,-6.89,-8.01,-6.89,-8.01,6.00,6.17,5.15,-0.89,-0.89,1.12
41.76,-6.74,-7.86,-6.74,-7.87,6.00,6.18,5.06,-0.74,-0.74,1.12
42.18,-6.60,-7.72,-6.60,-7.72,6.00,6.18,4.96,-0.60,-0.60,1.12
42.60,-6.45,-7.57,-6.45,-7.58,6.00,6.19,4.87,-0.45,-0.45,1.12
43.03,-6.31,-7.43,-6.31,-7.43,6.00,6.18,4.78,-0.31,-0.31,1.12
43.46,-6.16,-7.28,-6.16,-7.28,6.00,6.17,4.69,-0.16,-0.16,1.12
43.90,-6.01,-7.14,-6.01,-7.14,6.00,6.16,4.61,-0.01,-0.01,1.12
44.33,-5.86,-6.99,-5.86,-6.99,6.00,6.13,4.53,0.14,0.14,1.13
44.78,-5.72,-6.86,-5.72,-6.85,6.01,6.09,4.46,0.29,0.29,1.13
45.23,-5.57,-6.71,-5.57,-6.71,6.02,6.04,4.39,0.45,0.45,1.13
45.68,-5.42,-6.57,-5.42,-6.56,6.03,5.98,4.32,0.61,0.60,1.14
46.13,-5.27,-6.41,-5.27,-6.42,6.02,5.90,4.25,0.75,0.75,1.14
46.60,-5.13,-6.28,-5.13,-6.27,6.00,5.82,4.19,0.87,0.87,1.14
47.06,-4.98,-6.12,-4.98,-6.13,5.96,5.72,4.13,0.98,0.97,1.14
47.53,-4.84,-5.98,-4.84,-5.98,5.89,5.61,4.08,1.05,1.05,1.14
48.01,-4.70,-5.85,-4.70,-5.84,5.81,5.50,4.02,1.11,1.11,1.14
48.49,-4.56,-5.70,-4.56,-5.70,5.71,5.37,3.97,1.14,1.14,1.13
48.97,-4.43,-5.56,-4.43,-5.56,5.58,5.25,3.92,1.15,1.15,1.13
49.46,-4.29,-5.42,-4.29,-5.42,5.45,5.12,3.88,1.16,1.15,1.13
49.96,-4.16,-5.29,-4.15,-5.28,5.30,4.99,3.84,1.14,1.14,1.12
50.46,-4.01,-5.14,-4.02,-5.14,5.15,4.86,3.80,1.14,1.13,1.12
50.96,-3.88,-4.99,-3.88,-5.00,5.00,4.72,3.76,1.12,1.12,1.11
51.47,-3.75,-4.86,-3.75,-4.86,4.86,4.59,3.72,1.11,1.11,1.11
51.99,-3.62,-4.73,-3.62,-4.73,4.73,4.47,3.69,1.10,1.10,1.10
52.51,-3.49,-4.60,-3.49,-4.60,4.59,4.34,3.66,1.10,1.10,1.10
53.03,-3.36,-4.46,-3.36,-4.46,4.46,4.22,3.63,1.10,1.10,1.10
53.56,-3.23,-4.32,-3.23,-4.32,4.33,4.10,3.60,1.10,1.10,1.09
54.10,-3.09,-4.19,-3.10,-4.19,4.20,3.98,3.57,1.11,1.10,1.09
54.64,-2.98,-4.08,-2.98,-4.07,4.08,3.87,3.54,1.10,1.10,1.09
55.18,-2.86,-3.95,-2.86,-3.95,3.95,3.76,3.51,1.09,1.10,1.09
55.74,-2.73,-3.84,-2.74,-3.84,3.83,3.65,3.48,1.10,1.09,1.10
56.29,-2.62,-3.72,-2.62,-3.72,3.72,3.54,3.46,1.10,1.10,1.10
56.86,-2.50,-3.61,-2.50,-3.60,3.60,3.44,3.43,1.10,1.10,1.10
57.42,-2.38,-3.48,-2.38,-3.49,3.49,3.34,3.40,1.11,1.10,1.10
58.00,-2.27,-3.37,-2.27,-3.37,3.38,3.24,3.37,1.10,1.11,1.10
58.58,-2.16,-3.26,-2.16,-3.26,3.27,3.15,3.35,1.11,1.11,1.10
59.16,-2.05,-3.15,-2.05,-3.16,3.16,3.05,3.32,1.11,1.11,1.10
59.76,-1.95,-3.06,-1.95,-3.05,3.06,2.96,3.28,1.10,1.11,1.10
60.35,-1.85,-2.95,-1.85,-2.95,2.95,2.87,3.25,1.10,1.10,1.10
60.96,-1.76,-2.85,-1.76,-2.86,2.86,2.78,3.22,1.10,1.10,1.09
61.57,-1.67,-2.76,-1.67,-2.76,2.76,2.69,3.18,1.09,1.09,1.09
62.18,-1.58,-2.67,-1.58,-2.67,2.67,2.60,3.15,1.09,1.09,1.09
62.80,-1.49,-2.57,-1.49,-2.58,2.58,2.52,3.11,1.09,1.08,1.08
63.43,-1.41,-2.49,-1.41,-2.49,2.49,2.43,3.07,1.08,1.08,1.08
64.07,-1.33,-2.40,-1.33,-2.40,2.40,2.35,3.03,1.07,1.08,1.07
64.71,-1.24,-2.31,-1.25,-2.32,2.32,2.27,2.98,1.08,1.07,1.07
65.35,-1.17,-2.24,-1.17,-2.24,2.24,2.19,2.94,1.07,1.07,1.07
66.01,-1.09,-2.16,-1.09,-2.16,2.16,2.11,2.89,1.07,1.07,1.07
66.67,-1.01,-2.08,-1.01,-2.09,2.09,2.03,2.84,1.08,1.07,1.07
67.33,-0.93,-2.00,-0.94,-2.01,2.01,1.95,2.79,1.08,1.08,1.07
68.01,-0.87,-1.94,-0.87,-1.94,1.94,1.88,2.74,1.07,1.08,1.07
68.69,-0.80,-1.87,-0.80,-1.88,1.87,1.81,2.69,1.07,1.07,1.07
69.37,-0.74,-1.81,-0.74,-1.81,1.81,1.73,2.63,1.07,1.07,1.07
70.07,-0.67,-1.74,-0.67,-1.75,1.74,1.66,2.58,1.07,1.07,1.07
70.77,-0.61,-1.68,-0.61,-1.68,1.68,1.59,2.52,1.07,1.07,1.07
71.48,-0.55,-1.61,-0.55,-1.62,1.62,1.53,2.47,1.07,1.07,1.06
72.19,-0.50,-1.56,-0.50,-1.56,1.56,1.46,2.41,1.06,1.07,1.06
72.91,-0.44,-1.50,-0.44,-1.51,1.51,1.40,2.35,1.07,1.07,1.06
73.64,-0.39,-1.45,-0.39,-1.46,1.46,1.34,2.30,1.07,1.07,1.06
74.38,-0.34,-1.41,-0.34,-1.41,1.41,1.28,2.24,1.07,1.07,1.07
75.12,-0.28,-1.35,-0.29,-1.36,1.36,1.23,2.18,1.08,1.07,1.07
75.87,-0.24,-1.31,-0.24,-1.31,1.31,1.17,2.12,1.07,1.07,1.07
76.63,-0.20,-1.27,-0.20,-1.27,1.27,1.12,2.07,1.07,1.07,1.07
77.40,-0.15,-1.22,-0.15,-1.23,1.23,1.08,2.01,1.08,1.07,1.07
78.17,-0.11,-1.18,-0.11,-1.18,1.18,1.03,1.95,1.07,1.07,1.07
78.95,-0.07,-1.14,-0.07,-1.14,1.14,0.99,1.90,1.07,1.07,1.07
79.74,-0.03,-1.10,-0.03,-1.10,1.10,0.96,1.84,1.07,1.07,1.07
80.54,0.01,-1.06,0.01,-1.07,1.07,0.92,1.79,1.08,1.08,1.07
81.35,0.05,-1.03,0.05,-1.03,1.03,0.89,1.74,1.08,1.08,1.08
82.16,0.09,-0.99,0.09,-1.00,1.00,0.86,1.68,1.09,1.09,1.08
82.98,0.12,-0.96,0.12,-0.97,0.97,0.84,1.63,1.09,1.09,1.08
83.81,0.16,-0.93,0.15,-0.94,0.94,0.81,1.58,1.10,1.09,1.09
84.65,0.18,-0.91,0.18,-0.91,0.91,0.79,1.53,1.09,1.09,1.09
85.50,0.21,-0.88,0.21,-0.89,0.89,0.78,1.48,1.09,1.10,1.09
86.35,0.24,-0.86,0.24,-0.86,0.86,0.76,1.43,1.10,1.10,1.10
87.22,0.26,-0.84,0.26,-0.84,0.84,0.75,1.38,1.10,1.10,1.10
88.09,0.29,-0.81,0.29,-0.82,0.82,0.74,1.34,1.11,1.11,1.10
88.97,0.31,-0.80,0.31,-0.80,0.80,0.73,1.29,1.11,1.11,1.11
89.86,0.33,-0.78,0.33,-0.78,0.78,0.72,1.25,1.11,1.12,1.11
90.76,0.36,-0.76,0.35,-0.77,0.77,0.71,1.20,1.13,1.12,1.12
91.66,0.37,-0.75,0.37,-0.75,0.75,0.71,1.16,1.12,1.12,1.12
92.58,0.39,-0.73,0.39,-0.74,0.73,0.70,1.12,1.12,1.13,1.12
93.51,0.41,-0.72,0.41,-0.72,0.72,0.70,1.07,1.13,1.13,1.13
94.44,0.43,-0.70,0.43,-0.70,0.70,0.70,1.03,1.13,1.13,1.13
95.39,0.45,-0.68,0.45,-0.69,0.69,0.70,0.99,1.14,1.14,1.13
96.34,0.46,-0.67,0.46,-0.67,0.68,0.69,0.96,1.14,1.14,1.13
97.30,0.47,-0.66,0.47,-0.66,0.66,0.69,0.92,1.13,1.13,1.13
98.28,0.48,-0.65,0.48,-0.65,0.65,0.69,0.88,1.13,1.13,1.13
99.26,0.49,-0.63,0.49,-0.64,0.63,0.69,0.84,1.12,1.12,1.12
100.25,0.50,-0.62,0.50,-0.62,0.62,0.69,0.81,1.12,1.12,1.12
101.25,0.51,-0.61,0.51,-0.61,0.61,0.69,0.77,1.12,1.12,1.12
102.27,0.52,-0.59,0.52,-0.60,0.60,0.69,0.74,1.12,1.12,1.11
103.29,0.52,-0.59,0.52,-0.59,0.59,0.69,0.71,1.11,1.12,1.11
104.32,0.52,-0.58,0.52,-0.58,0.59,0.69,0.68,1.11,1.11,1.10
105.37,0.53,-0.57,0.52,-0.58,0.58,0.69,0.64,1.11,1.10,1.10
106.42,0.52,-0.58,0.52,-0.58,0.58,0.69,0.61,1.10,1.10,1.10
107.48,0.52,-0.58,0.52,-0.58,0.58,0.69,0.59,1.10,1.10,1.10
108.56,0.52,-0.57,0.52,-0.58,0.58,0.69,0.56,1.10,1.10,1.09
109.64,0.52,-0.57,0.52,-0.57,0.58,0.69,0.53,1.10,1.10,1.09
110.74,0.52,-0.57,0.52,-0.57,0.58,0.69,0.51,1.10,1.09,1.09
111.85,0.51,-0.57,0.51,-0.58,0.58,0.69,0.48,1.09,1.09,1.08
112.97,0.50,-0.58,0.50,-0.58,0.58,0.69,0.46,1.08,1.08,1.08
114.10,0.49,-0.58,0.49,-0.58,0.58,0.69,0.44,1.07,1.08,1.07
115.24,0.49,-0.58,0.49,-0.58,0.58,0.69,0.42,1.07,1.07,1.07
116.39,0.48,-0.57,0.48,-0.58,0.58,0.69,0.40,1.06,1.06,1.05
117.55,0.46,-0.58,0.46,-0.58,0.58,0.68,0.38,1.04,1.04,1.04
118.73,0.45,-0.58,0.45,-0.58,0.58,0.68,0.37,1.03,1.03,1.03
119.92,0.44,-0.57,0.44,-0.58,0.57,0.68,0.35,1.01,1.01,1.01
121.12,0.43,-0.56,0.43,-0.56,0.57,0.68,0.34,0.99,1.00,0.99
122.33,0.42,-0.55,0.42,-0.56,0.56,0.68,0.33,0.98,0.98,0.97
123.55,0.41,-0.54,0.41,-0.55,0.55,0.68,0.32,0.96,0.95,0.95
124.79,0.39,-0.54,0.39,-0.54,0.53,0.68,0.31,0.92,0.93,0.93
126.03,0.38,-0.52,0.38,-0.53,0.52,0.67,0.30,0.90,0.90,0.90
127.29,0.37,-0.51,0.37,-0.51,0.51,0.67,0.30,0.88,0.88,0.88
128.57,0.36,-0.50,0.36,-0.50,0.50,0.67,0.30,0.86,0.87,0.86
129.85,0.36,-0.48,0.35,-0.49,0.50,0.67,0.29,0.86,0.85,0.84
131.15,0.34,-0.49,0.34,-0.49,0.50,0.67,0.29,0.83,0.84,0.83
132.46,0.33,-0.49,0.33,-0.49,0.50,0.67,0.30,0.82,0.83,0.82
133.79,0.32,-0.49,0.32,-0.50,0.50,0.67,0.30,0.82,0.81,0.81
135.12,0.30,-0.50,0.30,-0.50,0.50,0.67,0.30,0.80,0.81,0.80
136.48,0.29,-0.51,0.29,-0.51,0.51,0.67,0.31,0.80,0.80,0.80
137.84,0.27,-0.52,0.27,-0.52,0.52,0.66,0.32,0.79,0.79,0.79
139.22,0.26,-0.53,0.26,-0.53,0.53,0.66,0.33,0.79,0.79,0.79
140.61,0.25,-0.54,0.25,-0.54,0.54,0.66,0.34,0.79,0.79,0.79
142.02,0.24,-0.55,0.24,-0.56,0.56,0.66,0.35,0.80,0.79,0.79
143.44,0.22,-0.57,0.22,-0.57,0.57,0.66,0.36,0.79,0.80,0.79
144.87,0.21,-0.58,0.21,-0.58,0.59,0.66,0.37,0.80,0.80,0.79
146.32,0.20,-0.59,0.20,-0.60,0.60,0.66,0.38,0.80,0.80,0.79
147.78,0.18,-0.62,0.18,-0.62,0.62,0.66,0.40,0.80,0.80,0.80
149.26,0.17,-0.63,0.17,-0.64,0.63,0.66,0.41,0.80,0.80,0.80
150.75,0.15,-0.65,0.15,-0.65,0.65,0.66,0.43,0.80,0.80,0.80
152.26,0.14,-0.66,0.14,-0.67,0.67,0.67,0.45,0.81,0.80,0.80
153.78,0.12,-0.68,0.12,-0.68,0.68,0.67,0.47,0.80,0.81,0.80
155.32,0.11,-0.69,0.11,-0.70,0.70,0.67,0.49,0.81,0.80,0.80
156.88,0.09,-0.71,0.09,-0.71,0.71,0.67,0.50,0.80,0.80,0.80
158.44,0.07,-0.73,0.07,-0.73,0.73,0.67,0.53,0.80,0.80,0.80
160.03,0.06,-0.74,0.06,-0.75,0.74,0.67,0.55,0.80,0.80,0.80
161.63,0.04,-0.76,0.04,-0.76,0.76,0.68,0.57,0.80,0.80,0.80
163.24,0.03,-0.77,0.03,-0.77,0.78,0.68,0.59,0.81,0.81,0.80
164.88,0.02,-0.78,0.02,-0.79,0.79,0.68,0.61,0.81,0.81,0.80
166.53,-0.00,-0.81,0.00,-0.81,0.81,0.68,0.64,0.81,0.81,0.81
168.19,-0.01,-0.82,-0.01,-0.83,0.83,0.69,0.66,0.82,0.81,0.81
169.87,-0.03,-0.84,-0.03,-0.85,0.84,0.69,0.68,0.81,0.82,0.81
171.57,-0.04,-0.86,-0.04,-0.86,0.86,0.70,0.71,0.82,0.82,0.82
173.29,-0.06,-0.88,-0.06,-0.88,0.88,0.70,0.73,0.82,0.82,0.82
175.02,-0.07,-0.89,-0.07,-0.90,0.90,0.71,0.76,0.83,0.83,0.82
176.77,-0.09,-0.92,-0.09,-0.92,0.92,0.71,0.79,0.83,0.83,0.83
178.54,-0.10,-0.93,-0.10,-0.94,0.94,0.72,0.81,0.84,0.84,0.83
180.32,-0.11,-0.95,-0.12,-0.96,0.96,0.72,0.84,0.84,0.84,0.84
182.13,-0.13,-0.97,-0.13,-0.97,0.97,0.73,0.87,0.84,0.84,0.84
183.95,-0.15,-0.99,-0.14,-0.99,0.99,0.73,0.90,0.84,0.85,0.84
185.79,-0.15,-1.00,-0.16,-1.01,1.01,0.74,0.93,0.86,0.85,0.85
187.65,-0.17,-1.02,-0.17,-1.02,1.02,0.75,0.96,0.85,0.85,0.85
189.52,-0.19,-1.04,-0.18,-1.04,1.04,0.76,0.99,0.85,0.86,0.85
191.42,-0.19,-1.05,-0.20,-1.06,1.06,0.76,1.02,0.87,0.86,0.86
193.33,-0.21,-1.07,-0.21,-1.07,1.07,0.77,1.05,0.86,0.86,0.86
195.27,-0.22,-1.08,-0.22,-1.09,1.09,0.78,1.08,0.87,0.87,0.86
197.22,-0.24,-1.10,-0.24,-1.10,1.11,0.79,1.11,0.86,0.87,0.86
199.19,-0.25,-1.12,-0.25,-1.12,1.12,0.80,1.14,0.87,0.87,0.87
201.18,-0.26,-1.13,-0.27,-1.14,1.14,0.81,1.17,0.87,0.87,0.87
203.19,-0.28,-1.15,-0.28,-1.15,1.15,0.82,1.20,0.87,0.87,0.87
205.23,-0.29,-1.16,-0.29,-1.16,1.16,0.83,1.24,0.87,0.87,0.87
207.28,-0.30,-1.17,-0.31,-1.18,1.18,0.84,1.27,0.88,0.87,0.87
209.35,-0.32,-1.19,-0.32,-1.19,1.19,0.86,1.30,0.87,0.88,0.87
211.44,-0.33,-1.20,-0.33,-1.20,1.21,0.87,1.33,0.87,0.87,0.87
213.56,-0.34,-1.21,-0.35,-1.22,1.22,0.88,1.36,0.88,0.87,0.87
215.69,-0.36,-1.23,-0.36,-1.23,1.23,0.90,1.39,0.87,0.87,0.87
217.85,-0.37,-1.24,-0.37,-1.24,1.24,0.91,1.42,0.87,0.87,0.87
220.03,-0.38,-1.25,-0.38,-1.25,1.25,0.92,1.45,0.87,0.87,0.87
222.23,-0.39,-1.26,-0.39,-1.27,1.27,0.94,1.47,0.88,0.87,0.87
224.45,-0.40,-1.27,-0.40,-1.28,1.28,0.95,1.50,0.88,0.88,0.87
226.70,-0.42,-1.29,-0.41,-1.29,1.29,0.97,1.52,0.87,0.87,0.87
228.96,-0.42,-1.29,-0.43,-1.30,1.30,0.99,1.55,0.88,0.87,0.87
231.25,-0.44,-1.31,-0.44,-1.31,1.31,1.00,1.57,0.87,0.87,0.87
233.57,-0.45,-1.31,-0.45,-1.32,1.32,1.02,1.59,0.87,0.87,0.86
235.90,-0.47,-1.33,-0.47,-1.33,1.33,1.04,1.60,0.86,0.86,0.86
238.26,-0.47,-1.33,-0.48,-1.33,1.34,1.05,1.62,0.87,0.86,0.86
240.64,-0.49,-1.34,-0.49,-1.34,1.35,1.07,1.63,0.85,0.86,0.85
243.05,-0.49,-1.34,-0.50,-1.35,1.35,1.09,1.64,0.86,0.86,0.85
245.48,-0.51,-1.36,-0.51,-1.36,1.36,1.11,1.65,0.85,0.85,0.85
247.93,-0.52,-1.37,-0.52,-1.37,1.37,1.13,1.66,0.85,0.85,0.85
250.41,-0.53,-1.38,-0.53,-1.38,1.38,1.15,1.66,0.85,0.85,0.85
252.92,-0.54,-1.38,-0.54,-1.39,1.39,1.17,1.66,0.85,0.84,0.84
255.45,-0.56,-1.40,-0.55,-1.40,1.40,1.19,1.66,0.84,0.84,0.84
258.00,-0.56,-1.40,-0.56,-1.40,1.40,1.21,1.66,0.84,0.84,0.84
260.58,-0.57,-1.40,-0.57,-1.41,1.41,1.23,1.65,0.84,0.84,0.83
263.19,-0.58,-1.41,-0.58,-1.41,1.41,1.25,1.65,0.83,0.83,0.83
265.82,-0.59,-1.41,-0.59,-1.42,1.42,1.27,1.64,0.83,0.83,0.82
268.48,-0.60,-1.42,-0.60,-1.42,1.42,1.29,1.62,0.82,0.82,0.82
271.16,-0.61,-1.42,-0.61,-1.43,1.43,1.31,1.61,0.82,0.82,0.81
273.87,-0.62,-1.43,-0.62,-1.43,1.43,1.33,1.59,0.81,0.81,0.81
276.61,-0.63,-1.43,-0.63,-1.44,1.44,1.35,1.58,0.81,0.81,0.80
279.38,-0.64,-1.44,-0.64,-1.44,1.44,1.37,1.56,0.80,0.80,0.80
282.17,-0.65,-1.44,-0.65,-1.44,1.44,1.39,1.54,0.79,0.79,0.79
284.99,-0.66,-1.44,-0.66,-1.44,1.44,1.41,1.52,0.78,0.78,0.78
287.84,-0.67,-1.44,-0.67,-1.44,1.44,1.42,1.50,0.77,0.77,0.77
290.72,-0.67,-1.43,-0.67,-1.44,1.44,1.44,1.48,0.77,0.77,0.76
293.63,-0.68,-1.44,-0.68,-1.44,1.44,1.46,1.45,0.76,0.76,0.76
296.57,-0.68,-1.43,-0.68,-1.44,1.44,1.47,1.43,0.76,0.76,0.75
299.53,-0.69,-1.43,-0.69,-1.44,1.44,1.49,1.41,0.75,0.75,0.74
302.53,-0.70,-1.44,-0.70,-1.44,1.44,1.50,1.38,0.74,0.74,0.74
305.55,-0.71,-1.44,-0.71,-1.45,1.44,1.52,1.36,0.73,0.73,0.73
308.61,-0.71,-1.44,-0.71,-1.45,1.45,1.53,1.33,0.73,0.73,0.73
311.69,-0.72,-1.45,-0.72,-1.45,1.45,1.54,1.31,0.73,0.73,0.73
314.81,-0.72,-1.44,-0.72,-1.45,1.45,1.55,1.29,0.73,0.73,0.72
317.96,-0.73,-1.45,-0.73,-1.45,1.45,1.56,1.26,0.72,0.72,0.72
321.14,-0.73,-1.45,-0.73,-1.45,1.45,1.56,1.24,0.72,0.72,0.72
324.35,-0.74,-1.45,-0.74,-1.46,1.45,1.57,1.22,0.71,0.72,0.71
327.59,-0.74,-1.45,-0.74,-1.45,1.46,1.57,1.20,0.71,0.71,0.71
330.87,-0.75,-1.45,-0.75,-1.46,1.46,1.57,1.18,0.70,0.71,0.70
334.18,-0.75,-1.45,-0.75,-1.45,1.45,1.57,1.16,0.70,0.70,0.70
337.52,-0.75,-1.45,-0.75,-1.45,1.45,1.57,1.14,0.70,0.70,0.70
340.90,-0.75,-1.44,-0.75,-1.45,1.45,1.57,1.12,0.70,0.70,0.69
344.30,-0.76,-1.45,-0.76,-1.45,1.45,1.57,1.10,0.69,0.69,0.69
347.75,-0.76,-1.44,-0.76,-1.44,1.44,1.56,1.08,0.68,0.68,0.68
351.23,-0.76,-1.43,-0.76,-1.44,1.44,1.56,1.06,0.68,0.68,0.67
354.74,-0.76,-1.42,-0.76,-1.43,1.43,1.55,1.05,0.67,0.67,0.66
358.28,-0.77,-1.43,-0.77,-1.43,1.43,1.54,1.03,0.66,0.66,0.66
361.87,-0.77,-1.42,-0.77,-1.42,1.42,1.53,1.02,0.65,0.65,0.65
365.49,-0.77,-1.41,-0.77,-1.42,1.41,1.52,1.00,0.64,0.64,0.64
369.14,-0.77,-1.40,-0.77,-1.40,1.40,1.51,0.99,0.63,0.63,0.63
372.83,-0.77,-1.39,-0.77,-1.39,1.40,1.49,0.98,0.62,0.62,0.62
376.56,-0.77,-1.38,-0.77,-1.38,1.39,1.48,0.97,0.62,0.62,0.61
380.33,-0.77,-1.37,-0.77,-1.38,1.38,1.46,0.96,0.61,0.60,0.60
384.13,-0.77,-1.36,-0.77,-1.37,1.37,1.44,0.95,0.60,0.59,0.59
387.97,-0.78,-1.36,-0.78,-1.36,1.36,1.43,0.94,0.58,0.58,0.58
391.85,-0.77,-1.34,-0.78,-1.35,1.35,1.41,0.93,0.58,0.57,0.57
395.77,-0.78,-1.34,-0.78,-1.34,1.34,1.39,0.92,0.56,0.57,0.56
399.73,-0.77,-1.32,-0.78,-1.33,1.34,1.37,0.92,0.57,0.56,0.55
403.72,-0.78,-1.33,-0.78,-1.33,1.33,1.35,0.91,0.55,0.55,0.55
407.76,-0.78,-1.32,-0.78,-1.33,1.32,1.33,0.91,0.54,0.54,0.54
411.84,-0.79,-1.32,-0.78,-1.32,1.32,1.31,0.90,0.52,0.53,0.53
415.96,-0.78,-1.30,-0.78,-1.31,1.31,1.29,0.90,0.53,0.52,0.52
420.12,-0.78,-1.29,-0.79,-1.30,1.30,1.27,0.89,0.52,0.51,0.51
424.32,-0.79,-1.29,-0.79,-1.29,1.29,1.25,0.89,0.50,0.51,0.50
428.56,-0.79,-1.28,-0.79,-1.28,1.28,1.23,0.89,0.49,0.49,0.49
432.85,-0.79,-1.27,-0.79,-1.28,1.27,1.21,0.89,0.48,0.48,0.48
437.18,-0.79,-1.26,-0.79,-1.26,1.26,1.19,0.89,0.47,0.47,0.47
441.55,-0.79,-1.25,-0.79,-1.25,1.25,1.17,0.89,0.46,0.46,0.46
445.96,-0.80,-1.24,-0.80,-1.25,1.24,1.15,0.89,0.44,0.45,0.44
450.42,-0.80,-1.23,-0.80,-1.23,1.23,1.13,0.89,0.43,0.43,0.43
454.93,-0.80,-1.22,-0.80,-1.22,1.22,1.11,0.89,0.42,0.42,0.42
459.48,-0.80,-1.20,-0.80,-1.21,1.21,1.10,0.89,0.41,0.41,0.40
464.07,-0.80,-1.19,-0.80,-1.20,1.20,1.08,0.89,0.39,0.39,0.39
468.71,-0.80,-1.18,-0.80,-1.18,1.18,1.06,0.90,0.38,0.38,0.38
473.40,-0.80,-1.17,-0.80,-1.17,1.17,1.04,0.90,0.37,0.37,0.37
478.13,-0.79,-1.14,-0.80,-1.15,1.15,1.03,0.90,0.36,0.36,0.35
482.91,-0.80,-1.14,-0.80,-1.14,1.14,1.01,0.90,0.34,0.35,0.34
487.74,-0.79,-1.12,-0.79,-1.12,1.13,0.99,0.91,0.34,0.34,0.33
492.62,-0.79,-1.11,-0.79,-1.11,1.11,0.98,0.91,0.32,0.32,0.32
497.55,-0.78,-1.09,-0.79,-1.10,1.10,0.96,0.92,0.32,0.31,0.31
