frequency,raw,error,smoothed,error_smoothed,equalization,parametric_eq,fixed_band_eq,equalized_raw,equalized_smoothed,target
20.00,-6.80,-8.17,-6.80,-8.16,6.00,6.13,2.77,-0.80,-0.80,1.37
20.20,-6.75,-8.12,-6.75,-8.12,6.00,6.12,2.85,-0.75,-0.75,1.37
20.40,-6.71,-8.09,-6.70,-8.08,6.00,6.11,2.93,-0.71,-0.70,1.38
20.61,-6.66,-8.05,-6.66,-8.04,6.00,6.11,3.01,-0.66,-0.66,1.39
20.81,-6.61,-8.00,-6.61,-8.00,6.00,6.10,3.10,-0.61,-0.61,1.39
21.02,-6.57,-7.97,-6.57,-7.96,6.00,6.09,3.19,-0.57,-0.57,1.40
21.23,-6.52,-7.92,-6.52,-7.92,6.00,6.08,3.28,-0.52,-0.52,1.40
21.44,-6.48,-7.88,-6.48,-7.88,6.00,6.07,3.37,-0.48,-0.48,1.41
21.66,-6.43,-7.85,-6.43,-7.84,6.00,6.07,3.47,-0.43,-0.43,1.42
21.87,-6.39,-7.80,-6.38,-7.81,6.00,6.06,3.57,-0.39,-0.38,1.42
22.09,-6.34,-7.76,-6.34,-7.76,6.00,6.05,3.67,-0.34,-0.34,1.43
22.31,-6.29,-7.72,-6.29,-7.72,6.00,6.04,3.77,-0.29,-0.29,1.44
22.54,-6.25,-7.68,-6.24,-7.68,6.00,6.03,3.88,-0.25,-0.24,1.44
22.76,-6.20,-7.64,-6.20,-7.64,6.00,6.03,3.99,-0.20,-0.20,1.44
22.99,-6.15,-7.60,-6.15,-7.61,6.00,6.02,4.10,-0.15,-0.15,1.45
23.22,-6.11,-7.57,-6.10,-7.57,6.00,6.01,4.22,-0.11,-0.10,1.46
23.45,-6.06,-7.53,-6.06,-7.53,6.00,6.01,4.34,-0.06,-0.06,1.47
23.69,-6.01,-7.49,-6.01,-7.50,6.00,6.00,4.46,-0.01,-0.01,1.48
23.92,-5.97,-7.46,-5.96,-7.46,6.00,5.99,4.58,0.03,0.04,1.49
24.16,-5.92,-7.42,-5.92,-7.42,6.00,5.99,4.71,0.08,0.08,1.50
24.40,-5.87,-7.38,-5.87,-7.38,6.00,5.98,4.83,0.13,0.13,1.51
24.65,-5.82,-7.35,-5.82,-7.35,6.00,5.98,4.96,0.18,0.18,1.53
24.89,-5.77,-7.31,-5.77,-7.31,6.00,5.97,5.09,0.23,0.23,1.54
25.14,-5.72,-7.27,-5.72,-7.27,6.00,5.97,5.23,0.28,0.28,1.55
25.39,-5.67,-7.23,-5.67,-7.23,6.00,5.96,5.36,0.33,0.33,1.56
25.65,-5.63,-7.20,-5.63,-7.20,6.00,5.96,5.50,0.37,0.37,1.57
25.91,-5.58,-7.17,-5.58,-7.16,6.00,5.95,5.63,0.42,0.42,1.59
26.16,-5.53,-7.12,-5.53,-7.13,6.00,5.95,5.77,0.47,0.47,1.60
26.43,-5.48,-7.08,-5.48,-7.09,6.00,5.95,5.90,0.52,0.52,1.61
26.69,-5.44,-7.05,-5.44,-7.05,6.00,5.95,6.03,0.56,0.56,1.62
26.96,-5.39,-7.02,-5.39,-7.02,6.00,5.94,6.16,0.61,0.61,1.63
27.23,-5.34,-6.98,-5.34,-6.99,6.00,5.94,6.29,0.66,0.66,1.64
27.50,-5.29,-6.95,-5.29,-6.95,6.00,5.94,6.42,0.71,0.71,1.66
27.77,-5.25,-6.92,-5.24,-6.92,6.00,5.95,6.54,0.75,0.76,1.67
28.05,-5.20,-6.89,-5.20,-6.89,6.00,5.95,6.66,0.80,0.80,1.69
28.33,-5.15,-6.85,-5.15,-6.85,6.00,5.95,6.77,0.85,0.85,1.70
28.62,-5.10,-6.82,-5.10,-6.82,6.00,5.95,6.87,0.90,0.90,1.72
28.90,-5.06,-6.79,-5.05,-6.78,6.00,5.96,6.97,0.94,0.95,1.73
29.19,-5.01,-6.76,-5.01,-6.75,6.00,5.96,7.06,0.99,0.99,1.75
29.48,-4.96,-6.71,-4.96,-6.72,6.00,5.97,7.14,1.04,1.04,1.76
29.78,-4.92,-6.69,-4.91,-6.69,6.00,5.98,7.21,1.08,1.09,1.77
30.08,-4.87,-6.65,-4.87,-6.66,6.00,5.99,7.26,1.13,1.13,1.78
30.38,-4.83,-6.63,-4.83,-6.63,6.00,5.99,7.31,1.17,1.17,1.80
30.68,-4.79,-6.60,-4.79,-6.60,6.00,6.00,7.35,1.21,1.21,1.81
30.99,-4.75,-6.58,-4.75,-6.58,6.00,6.01,7.37,1.25,1.25,1.83
31.30,-4.71,-6.55,-4.71,-6.55,6.00,6.02,7.38,1.29,1.29,1.84
31.61,-4.67,-6.53,-4.67,-6.52,6.00,6.03,7.38,1.33,1.33,1.86
31.93,-4.63,-6.49,-4.63,-6.50,6.00,6.04,7.37,1.37,1.37,1.87
32.24,-4.59,-6.47,-4.58,-6.47,6.00,6.05,7.35,1.41,1.42,1.88
32.57,-4.54,-6.43,-4.54,-6.43,6.00,6.06,7.31,1.46,1.46,1.89
32.89,-4.49,-6.40,-4.49,-6.40,6.00,6.07,7.26,1.51,1.51,1.91
33.22,-4.45,-6.37,-4.45,-6.37,6.00,6.08,7.20,1.55,1.55,1.92
33.55,-4.41,-6.34,-4.41,-6.34,6.00,6.08,7.13,1.59,1.59,1.94
33.89,-4.37,-6.31,-4.37,-6.32,6.00,6.08,7.06,1.63,1.63,1.94
34.23,-4.33,-6.29,-4.33,-6.29,6.00,6.08,6.97,1.67,1.67,1.96
34.57,-4.29,-6.26,-4.29,-6.26,6.00,6.08,6.88,1.71,1.71,1.97
34.92,-4.25,-6.23,-4.25,-6.23,6.01,6.07,6.78,1.76,1.76,1.98
35.27,-4.20,-6.20,-4.20,-6.19,6.01,6.06,6.68,1.81,1.81,2.00
35.62,-4.15,-6.15,-4.15,-6.15,6.01,6.04,6.57,1.86,1.86,2.00
35.97,-4.10,-6.11,-4.10,-6.11,6.01,6.02,6.46,1.91,1.91,2.01
36.33,-4.05,-6.07,-4.05,-6.07,6.00,5.99,6.35,1.95,1.95,2.02
36.70,-4.00,-6.03,-4.00,-6.03,5.98,5.96,6.23,1.98,1.98,2.03
37.06,-3.95,-5.98,-3.95,-5.98,5.96,5.93,6.11,2.01,2.01,2.03
37.43,-3.89,-5.93,-3.89,-5.93,5.92,5.88,6.00,2.04,2.03,2.04
37.81,-3.83,-5.88,-3.83,-5.88,5.88,5.84,5.88,2.05,2.05,2.05
38.19,-3.77,-5.83,-3.77,-5.83,5.84,5.79,5.76,2.07,2.07,2.06
38.57,-3.71,-5.77,-3.71,-5.78,5.78,5.74,5.64,2.07,2.07,2.06
38.95,-3.66,-5.73,-3.65,-5.72,5.72,5.68,5.53,2.07,2.07,2.07
39.34,-3.59,-5.66,-3.59,-5.67,5.66,5.63,5.42,2.08,2.08,2.08
39.74,-3.52,-5.60,-3.52,-5.60,5.60,5.57,5.30,2.08,2.08,2.08
40.14,-3.46,-5.54,-3.46,-5.54,5.54,5.51,5.19,2.08,2.09,2.08
40.54,-3.39,-5.48,-3.39,-5.48,5.48,5.45,5.09,2.09,2.09,2.09
40.94,-3.33,-5.42,-3.33,-5.42,5.42,5.38,4.98,2.09,2.09,2.09
41.35,-3.26,-5.36,-3.26,-5.35,5.35,5.32,4.88,2.09,2.10,2.10
41.76,-3.18,-5.28,-3.18,-5.29,5.28,5.26,4.78,2.11,2.10,2.10
42.18,-3.11,-5.22,-3.11,-5.22,5.21,5.19,4.69,2.11,2.11,2.11
42.60,-3.03,-5.14,-3.03,-5.14,5.14,5.13,4.59,2.12,2.12,2.12
43.03,-2.95,-5.07,-2.95,-5.07,5.07,5.07,4.50,2.12,2.12,2.12
43.46,-2.87,-5.00,-2.87,-5.00,5.00,5.01,4.42,2.13,2.13,2.13
43.90,-2.79,-4.92,-2.79,-4.92,4.93,4.94,4.33,2.14,2.14,2.13
44.33,-2.71,-4.86,-2.71,-4.85,4.85,4.88,4.25,2.14,2.14,2.15
44.78,-2.63,-4.78,-2.63,-4.78,4.78,4.82,4.18,2.15,2.15,2.15
45.23,-2.55,-4.71,-2.55,-4.71,4.71,4.76,4.11,2.16,2.16,2.16
45.68,-2.47,-4.64,-2.47,-4.64,4.64,4.70,4.04,2.17,2.17,2.17
46.13,-2.39,-4.56,-2.39,-4.57,4.57,4.64,3.97,2.18,2.18,2.18
46.60,-2.31,-4.50,-2.31,-4.50,4.50,4.58,3.91,2.19,2.19,2.19
47.06,-2.24,-4.43,-2.23,-4.43,4.43,4.51,3.84,2.19,2.20,2.19
47.53,-2.16,-4.36,-2.16,-4.37,4.37,4.45,3.79,2.21,2.20,2.21
48.01,-2.09,-4.30,-2.09,-4.30,4.30,4.39,3.73,2.21,2.21,2.21
48.49,-2.02,-4.24,-2.01,-4.24,4.23,4.33,3.68,2.22,2.22,2.22
48.97,-1.94,-4.16,-1.94,-4.17,4.17,4.27,3.63,2.23,2.23,2.23
49.46,-1.87,-4.11,-1.87,-4.10,4.10,4.21,3.58,2.23,2.23,2.24
49.96,-1.80,-4.04,-1.80,-4.04,4.04,4.15,3.54,2.24,2.24,2.24
50.46,-1.73,-3.97,-1.73,-3.98,3.97,4.08,3.50,2.24,2.24,2.24
50.96,-1.66,-3.91,-1.66,-3.91,3.91,4.02,3.45,2.25,2.25,2.25
51.47,-1.59,-3.84,-1.59,-3.84,3.85,3.96,3.42,2.26,2.26,2.26
51.99,-1.52,-3.78,-1.52,-3.78,3.79,3.89,3.38,2.27,2.27,2.26
52.51,-1.46,-3.72,-1.46,-3.72,3.73,3.83,3.34,2.27,2.27,2.26
53.03,-1.41,-3.67,-1.41,-3.67,3.67,3.76,3.31,2.26,2.26,2.26
53.56,-1.35,-3.62,-1.35,-3.61,3.61,3.69,3.28,2.26,2.26,2.27
54.10,-1.29,-3.56,-1.29,-3.55,3.54,3.63,3.25,2.26,2.26,2.27
54.64,-1.22,-3.49,-1.22,-3.49,3.48,3.56,3.22,2.26,2.26,2.27
55.18,-1.16,-3.42,-1.16,-3.42,3.42,3.49,3.19,2.26,2.26,2.26
55.74,-1.10,-3.36,-1.10,-3.35,3.36,3.42,3.16,2.26,2.26,2.26
56.29,-1.04,-3.29,-1.04,-3.29,3.30,3.35,3.13,2.26,2.26,2.26
56.86,-0.98,-3.22,-0.98,-3.23,3.23,3.28,3.10,2.25,2.25,2.24
57.42,-0.93,-3.17,-0.93,-3.17,3.17,3.21,3.07,2.24,2.24,2.24
58.00,-0.88,-3.11,-0.88,-3.11,3.11,3.13,3.04,2.23,2.24,2.23
58.58,-0.83,-3.05,-0.83,-3.06,3.05,3.06,3.00,2.23,2.22,2.23
59.16,-0.79,-3.00,-0.79,-3.00,3.00,2.99,2.97,2.21,2.21,2.21
59.76,-0.75,-2.95,-0.74,-2.94,2.94,2.92,2.94,2.19,2.20,2.20
60.35,-0.70,-2.88,-0.70,-2.88,2.88,2.84,2.90,2.18,2.18,2.18
60.96,-0.65,-2.82,-0.65,-2.82,2.82,2.77,2.87,2.17,2.17,2.17
61.57,-0.61,-2.76,-0.61,-2.76,2.76,2.70,2.83,2.15,2.16,2.15
62.18,-0.57,-2.71,-0.56,-2.70,2.70,2.64,2.79,2.13,2.14,2.14
62.80,-0.52,-2.64,-0.52,-2.64,2.64,2.57,2.75,2.13,2.12,2.12
63.43,-0.48,-2.58,-0.48,-2.58,2.59,2.50,2.71,2.11,2.11,2.11
64.07,-0.44,-2.52,-0.44,-2.52,2.53,2.44,2.67,2.09,2.09,2.08
64.71,-0.41,-2.47,-0.41,-2.47,2.47,2.38,2.62,2.07,2.07,2.06
65.35,-0.38,-2.42,-0.37,-2.42,2.42,2.32,2.57,2.04,2.05,2.04
66.01,-0.34,-2.36,-0.34,-2.37,2.37,2.27,2.53,2.03,2.02,2.03
66.67,-0.31,-2.32,-0.31,-2.32,2.31,2.22,2.48,2.00,2.00,2.01
67.33,-0.28,-2.27,-0.28,-2.26,2.26,2.17,2.42,1.98,1.98,1.99
68.01,-0.25,-2.21,-0.24,-2.20,2.20,2.12,2.37,1.95,1.96,1.96
68.69,-0.21,-2.14,-0.21,-2.15,2.14,2.08,2.32,1.94,1.93,1.94
69.37,-0.17,-2.08,-0.17,-2.09,2.09,2.04,2.26,1.92,1.91,1.91
70.07,-0.14,-2.03,-0.13,-2.02,2.03,2.00,2.21,1.89,1.90,1.89
70.77,-0.09,-1.96,-0.10,-1.97,1.97,1.97,2.15,1.88,1.87,1.87
71.48,-0.06,-1.91,-0.06,-1.91,1.91,1.93,2.09,1.85,1.85,1.85
72.19,-0.03,-1.85,-0.02,-1.85,1.85,1.90,2.04,1.82,1.83,1.82
72.91,0.01,-1.80,0.01,-1.80,1.79,1.87,1.98,1.81,1.80,1.81
73.64,0.04,-1.74,0.04,-1.74,1.74,1.84,1.92,1.78,1.79,1.79
74.38,0.08,-1.69,0.08,-1.69,1.69,1.81,1.86,1.78,1.77,1.77
75.12,0.10,-1.64,0.11,-1.64,1.65,1.78,1.80,1.75,1.76,1.75
75.87,0.13,-1.60,0.13,-1.60,1.61,1.75,1.74,1.74,1.74,1.73
76.63,0.15,-1.56,0.15,-1.56,1.57,1.73,1.69,1.72,1.72,1.71
77.40,0.16,-1.53,0.16,-1.53,1.53,1.70,1.63,1.70,1.70,1.69
78.17,0.17,-1.51,0.17,-1.51,1.50,1.67,1.57,1.67,1.67,1.68
78.95,0.18,-1.48,0.18,-1.47,1.46,1.63,1.51,1.64,1.65,1.66
79.74,0.20,-1.44,0.20,-1.43,1.43,1.60,1.46,1.63,1.63,1.64
80.54,0.23,-1.39,0.23,-1.39,1.39,1.57,1.40,1.62,1.62,1.62
81.35,0.25,-1.35,0.25,-1.35,1.35,1.53,1.34,1.60,1.60,1.60
82.16,0.27,-1.31,0.28,-1.30,1.31,1.50,1.29,1.58,1.59,1.58
82.98,0.30,-1.26,0.30,-1.26,1.27,1.46,1.23,1.57,1.56,1.56
83.81,0.32,-1.21,0.32,-1.22,1.22,1.42,1.18,1.54,1.54,1.54
84.65,0.33,-1.18,0.33,-1.18,1.18,1.38,1.13,1.51,1.51,1.51
85.50,0.35,-1.14,0.35,-1.14,1.13,1.34,1.07,1.48,1.48,1.49
86.35,0.37,-1.10,0.38,-1.09,1.08,1.30,1.02,1.46,1.46,1.47
87.22,0.41,-1.03,0.40,-1.04,1.04,1.25,0.97,1.45,1.44,1.44
88.09,0.43,-0.99,0.43,-0.99,0.99,1.21,0.92,1.42,1.42,1.42
88.97,0.46,-0.94,0.46,-0.94,0.94,1.16,0.87,1.40,1.40,1.41
89.86,0.49,-0.89,0.49,-0.89,0.89,1.11,0.82,1.38,1.38,1.38
90.76,0.52,-0.83,0.52,-0.84,0.84,1.06,0.77,1.36,1.36,1.36
91.66,0.54,-0.80,0.54,-0.79,0.80,1.01,0.72,1.34,1.34,1.34
92.58,0.56,-0.75,0.56,-0.75,0.76,0.96,0.67,1.32,1.32,1.31
93.51,0.58,-0.71,0.58,-0.71,0.72,0.90,0.63,1.30,1.30,1.29
94.44,0.58,-0.69,0.59,-0.68,0.69,0.85,0.58,1.27,1.27,1.27
95.39,0.59,-0.65,0.59,-0.66,0.66,0.79,0.53,1.25,1.25,1.24
96.34,0.58,-0.64,0.58,-0.64,0.64,0.74,0.49,1.22,1.22,1.23
97.30,0.58,-0.62,0.58,-0.62,0.62,0.68,0.44,1.20,1.20,1.20
98.28,0.57,-0.60,0.57,-0.60,0.60,0.62,0.40,1.17,1.17,1.17
99.26,0.56,-0.58,0.57,-0.58,0.58,0.57,0.35,1.14,1.15,1.14
100.25,0.56,-0.56,0.56,-0.56,0.56,0.51,0.31,1.12,1.12,1.13
101.25,0.56,-0.54,0.56,-0.54,0.54,0.45,0.27,1.10,1.10,1.10
102.27,0.55,-0.52,0.55,-0.51,0.52,0.39,0.23,1.07,1.07,1.07
103.29,0.55,-0.48,0.55,-0.48,0.49,0.33,0.18,1.04,1.04,1.03
104.32,0.55,-0.45,0.55,-0.45,0.45,0.27,0.14,1.01,1.00,1.00
105.37,0.55,-0.42,0.55,-0.42,0.42,0.21,0.10,0.97,0.97,0.97
106.42,0.55,-0.38,0.56,-0.38,0.37,0.15,0.06,0.92,0.93,0.94
107.48,0.57,-0.33,0.57,-0.33,0.32,0.08,0.02,0.89,0.89,0.90
108.56,0.60,-0.26,0.59,-0.26,0.26,0.02,-0.02,0.86,0.85,0.86
109.64,0.62,-0.20,0.62,-0.20,0.19,-0.04,-0.05,0.82,0.82,0.82
110.74,0.65,-0.13,0.66,-0.13,0.12,-0.10,-0.09,0.78,0.78,0.78
111.85,0.69,-0.05,0.69,-0.05,0.05,-0.16,-0.13,0.74,0.74,0.75
112.97,0.73,0.03,0.73,0.03,-0.03,-0.22,-0.16,0.71,0.70,0.70
114.10,0.76,0.10,0.77,0.11,-0.10,-0.28,-0.20,0.66,0.66,0.66
115.24,0.80,0.19,0.80,0.18,-0.18,-0.34,-0.24,0.62,0.62,0.61
116.39,0.82,0.25,0.82,0.25,-0.25,-0.41,-0.27,0.57,0.57,0.58
117.55,0.84,0.31,0.85,0.32,-0.32,-0.47,-0.30,0.52,0.53,0.53
118.73,0.87,0.38,0.87,0.38,-0.38,-0.53,-0.34,0.49,0.49,0.49
119.92,0.89,0.44,0.89,0.44,-0.43,-0.58,-0.37,0.46,0.46,0.45
121.12,0.90,0.49,0.90,0.49,-0.48,-0.64,-0.40,0.42,0.42,0.41
122.33,0.91,0.54,0.91,0.53,-0.52,-0.70,-0.43,0.39,0.38,0.38
123.55,0.90,0.56,0.90,0.56,-0.56,-0.76,-0.46,0.34,0.34,0.34
124.79,0.90,0.60,0.90,0.59,-0.60,-0.82,-0.49,0.30,0.30,0.31
126.03,0.89,0.62,0.89,0.62,-0.63,-0.87,-0.52,0.26,0.26,0.27
127.29,0.89,0.65,0.89,0.65,-0.66,-0.93,-0.54,0.23,0.23,0.24
128.57,0.89,0.69,0.89,0.69,-0.69,-0.99,-0.57,0.20,0.20,0.20
129.85,0.89,0.72,0.89,0.72,-0.72,-1.04,-0.60,0.17,0.17,0.17
131.15,0.89,0.75,0.89,0.75,-0.75,-1.09,-0.62,0.14,0.14,0.14
132.46,0.89,0.78,0.89,0.78,-0.78,-1.15,-0.65,0.11,0.11,0.11
133.79,0.89,0.81,0.89,0.81,-0.81,-1.20,-0.67,0.08,0.08,0.09
135.12,0.89,0.84,0.89,0.84,-0.84,-1.25,-0.69,0.05,0.05,0.06
136.48,0.89,0.87,0.89,0.87,-0.87,-1.30,-0.72,0.02,0.02,0.02
137.84,0.89,0.90,0.89,0.90,-0.89,-1.35,-0.74,-0.00,-0.00,-0.01
139.22,0.89,0.93,0.89,0.93,-0.92,-1.40,-0.76,-0.03,-0.03,-0.03
140.61,0.89,0.95,0.89,0.95,-0.95,-1.45,-0.79,-0.06,-0.06,-0.06
142.02,0.89,0.97,0.89,0.98,-0.98,-1.49,-0.81,-0.09,-0.09,-0.08
143.44,0.89,1.00,0.89,1.00,-1.00,-1.54,-0.83,-0.11,-0.11,-0.11
144.87,0.89,1.03,0.89,1.03,-1.03,-1.59,-0.86,-0.14,-0.14,-0.14
146.32,0.89,1.06,0.89,1.06,-1.06,-1.63,-0.88,-0.17,-0.17,-0.17
147.78,0.89,1.09,0.89,1.09,-1.09,-1.67,-0.91,-0.19,-0.19,-0.20
149.26,0.89,1.11,0.89,1.11,-1.11,-1.72,-0.93,-0.22,-0.22,-0.22
150.75,0.89,1.14,0.89,1.14,-1.14,-1.76,-0.95,-0.25,-0.25,-0.25
152.26,0.89,1.16,0.89,1.17,-1.17,-1.80,-0.98,-0.28,-0.28,-0.27
153.78,0.89,1.20,0.89,1.19,-1.19,-1.84,-1.01,-0.30,-0.30,-0.31
155.32,0.89,1.22,0.89,1.22,-1.22,-1.88,-1.03,-0.33,-0.33,-0.33
156.88,0.89,1.24,0.89,1.24,-1.24,-1.91,-1.06,-0.35,-0.35,-0.35
158.44,0.89,1.26,0.89,1.27,-1.27,-1.95,-1.09,-0.38,-0.38,-0.37
160.03,0.89,1.30,0.89,1.29,-1.29,-1.99,-1.12,-0.40,-0.40,-0.40
161.63,0.89,1.32,0.89,1.32,-1.32,-2.02,-1.15,-0.43,-0.43,-0.43
163.24,0.89,1.35,0.89,1.34,-1.34,-2.05,-1.18,-0.45,-0.45,-0.46
164.88,0.89,1.37,0.89,1.37,-1.37,-2.09,-1.21,-0.48,-0.48,-0.48
166.53,0.89,1.40,0.89,1.40,-1.40,-2.12,-1.24,-0.51,-0.51,-0.50
168.19,0.89,1.42,0.89,1.42,-1.42,-2.15,-1.28,-0.53,-0.53,-0.53
169.87,0.89,1.45,0.89,1.45,-1.45,-2.18,-1.31,-0.56,-0.56,-0.56
171.57,0.89,1.48,0.89,1.48,-1.48,-2.21,-1.35,-0.59,-0.59,-0.59
173.29,0.89,1.51,0.89,1.51,-1.51,-2.24,-1.39,-0.62,-0.62,-0.62
175.02,0.89,1.53,0.89,1.54,-1.54,-2.26,-1.43,-0.65,-0.65,-0.64
176.77,0.89,1.57,0.89,1.57,-1.57,-2.29,-1.47,-0.68,-0.68,-0.68
178.54,0.89,1.60,0.89,1.60,-1.60,-2.31,-1.51,-0.71,-0.71,-0.71
180.32,0.89,1.63,0.89,1.63,-1.63,-2.34,-1.55,-0.74,-0.74,-0.74
182.13,0.89,1.66,0.89,1.66,-1.66,-2.36,-1.59,-0.77,-0.77,-0.77
183.95,0.89,1.69,0.89,1.69,-1.69,-2.39,-1.64,-0.80,-0.80,-0.80
185.79,0.89,1.73,0.89,1.72,-1.72,-2.41,-1.68,-0.83,-0.83,-0.83
187.65,0.89,1.75,0.89,1.75,-1.75,-2.43,-1.73,-0.86,-0.86,-0.86
189.52,0.89,1.78,0.89,1.78,-1.78,-2.45,-1.78,-0.89,-0.89,-0.89
191.42,0.89,1.81,0.89,1.81,-1.81,-2.47,-1.83,-0.92,-0.92,-0.92
193.33,0.89,1.85,0.89,1.84,-1.84,-2.49,-1.88,-0.95,-0.95,-0.96
195.27,0.89,1.87,0.89,1.87,-1.87,-2.51,-1.93,-0.98,-0.98,-0.98
197.22,0.89,1.90,0.89,1.90,-1.90,-2.52,-1.98,-1.01,-1.01,-1.01
199.19,0.89,1.93,0.89,1.93,-1.94,-2.54,-2.03,-1.04,-1.04,-1.04
201.18,0.89,1.97,0.89,1.97,-1.97,-2.56,-2.08,-1.08,-1.08,-1.08
203.19,0.89,2.00,0.89,2.00,-2.00,-2.57,-2.14,-1.11,-1.11,-1.11
205.23,0.89,2.03,0.89,2.03,-2.03,-2.59,-2.19,-1.14,-1.14,-1.14
207.28,0.89,2.06,0.89,2.06,-2.06,-2.60,-2.24,-1.17,-1.17,-1.17
209.35,0.89,2.09,0.89,2.09,-2.10,-2.61,-2.30,-1.21,-1.21,-1.20
211.44,0.89,2.13,0.89,2.13,-2.13,-2.63,-2.35,-1.24,-1.24,-1.24
213.56,0.89,2.16,0.89,2.16,-2.16,-2.64,-2.40,-1.27,-1.27,-1.27
215.69,0.89,2.20,0.89,2.20,-2.20,-2.65,-2.45,-1.31,-1.31,-1.31
217.85,0.89,2.24,0.89,2.23,-2.23,-2.66,-2.50,-1.34,-1.34,-1.35
220.03,0.89,2.27,0.89,2.27,-2.26,-2.67,-2.55,-1.37,-1.37,-1.37
222.23,0.89,2.29,0.89,2.30,-2.30,-2.68,-2.60,-1.41,-1.41,-1.40
224.45,0.89,2.33,0.89,2.33,-2.33,-2.69,-2.65,-1.44,-1.44,-1.44
226.70,0.89,2.36,0.89,2.36,-2.36,-2.70,-2.69,-1.46,-1.46,-1.47
228.96,0.89,2.38,0.89,2.38,-2.38,-2.70,-2.73,-1.49,-1.49,-1.49
231.25,0.89,2.41,0.89,2.41,-2.41,-2.71,-2.77,-1.52,-1.52,-1.52
233.57,0.89,2.43,0.89,2.43,-2.43,-2.72,-2.81,-1.54,-1.54,-1.54
235.90,0.89,2.45,0.89,2.45,-2.45,-2.72,-2.84,-1.56,-1.56,-1.56
238.26,0.89,2.47,0.89,2.47,-2.47,-2.73,-2.87,-1.58,-1.58,-1.58
240.64,0.89,2.49,0.89,2.49,-2.49,-2.73,-2.90,-1.60,-1.60,-1.59
243.05,0.89,2.50,0.89,2.50,-2.50,-2.74,-2.92,-1.61,-1.61,-1.61
245.48,0.89,2.52,0.89,2.52,-2.52,-2.74,-2.94,-1.63,-1.63,-1.63
247.93,0.89,2.53,0.89,2.53,-2.53,-2.75,-2.95,-1.64,-1.64,-1.64
250.41,0.89,2.55,0.89,2.55,-2.55,-2.75,-2.97,-1.66,-1.66,-1.66
252.92,0.89,2.56,0.89,2.56,-2.56,-2.75,-2.97,-1.67,-1.67,-1.67
255.45,0.89,2.58,0.89,2.58,-2.57,-2.76,-2.98,-1.68,-1.68,-1.69
258.00,0.89,2.59,0.89,2.59,-2.59,-2.76,-2.98,-1.70,-1.70,-1.70
260.58,0.89,2.60,0.89,2.60,-2.60,-2.76,-2.97,-1.71,-1.71,-1.70
263.19,0.89,2.61,0.89,2.61,-2.61,-2.76,-2.97,-1.72,-1.72,-1.72
265.82,0.89,2.62,0.89,2.62,-2.63,-2.76,-2.96,-1.73,-1.73,-1.73
268.48,0.89,2.64,0.89,2.64,-2.64,-2.76,-2.95,-1.75,-1.75,-1.75
271.16,0.89,2.65,0.89,2.65,-2.65,-2.76,-2.93,-1.76,-1.76,-1.76
273.87,0.89,2.67,0.89,2.67,-2.66,-2.76,-2.91,-1.77,-1.77,-1.77
276.61,0.89,2.68,0.89,2.68,-2.68,-2.76,-2.89,-1.79,-1.79,-1.79
279.38,0.89,2.69,0.89,2.69,-2.69,-2.76,-2.87,-1.80,-1.80,-1.80
282.17,0.89,2.71,0.89,2.71,-2.70,-2.76,-2.84,-1.81,-1.81,-1.81
284.99,0.89,2.72,0.89,2.72,-2.72,-2.75,-2.82,-1.83,-1.83,-1.83
287.84,0.89,2.73,0.89,2.73,-2.73,-2.75,-2.79,-1.84,-1.84,-1.84
290.72,0.89,2.74,0.89,2.74,-2.74,-2.75,-2.76,-1.85,-1.85,-1.85
293.63,0.89,2.76,0.89,2.76,-2.76,-2.75,-2.73,-1.87,-1.87,-1.87
296.57,0.89,2.77,0.89,2.77,-2.77,-2.74,-2.70,-1.88,-1.88,-1.88
299.53,0.89,2.78,0.89,2.78,-2.79,-2.74,-2.67,-1.90,-1.90,-1.89
302.53,0.89,2.80,0.90,2.80,-2.81,-2.74,-2.65,-1.92,-1.91,-1.90
305.55,0.90,2.83,0.90,2.82,-2.83,-2.73,-2.62,-1.93,-1.93,-1.93
308.61,0.91,2.85,0.91,2.85,-2.85,-2.73,-2.59,-1.93,-1.94,-1.94
311.69,0.91,2.86,0.91,2.87,-2.86,-2.72,-2.56,-1.95,-1.95,-1.95
314.81,0.91,2.88,0.91,2.88,-2.88,-2.72,-2.53,-1.97,-1.97,-1.97
317.96,0.90,2.89,0.90,2.89,-2.89,-2.71,-2.51,-1.99,-1.99,-1.99
321.14,0.89,2.90,0.89,2.90,-2.90,-2.71,-2.48,-2.01,-2.00,-2.01
324.35,0.88,2.90,0.88,2.90,-2.90,-2.70,-2.46,-2.01,-2.02,-2.02
327.59,0.85,2.89,0.86,2.89,-2.89,-2.69,-2.44,-2.04,-2.03,-2.04
330.87,0.83,2.88,0.82,2.88,-2.88,-2.69,-2.42,-2.05,-2.05,-2.05
334.18,0.78,2.86,0.79,2.86,-2.86,-2.68,-2.40,-2.08,-2.07,-2.07
337.52,0.74,2.83,0.74,2.83,-2.83,-2.67,-2.38,-2.09,-2.09,-2.09
340.90,0.69,2.80,0.69,2.80,-2.80,-2.67,-2.37,-2.10,-2.11,-2.11
344.30,0.63,2.75,0.64,2.76,-2.76,-2.66,-2.36,-2.12,-2.12,-2.12
347.75,0.58,2.72,0.57,2.71,-2.71,-2.65,-2.34,-2.13,-2.13,-2.14
351.23,0.50,2.66,0.50,2.66,-2.66,-2.64,-2.33,-2.15,-2.15,-2.16
354.74,0.43,2.61,0.43,2.61,-2.60,-2.64,-2.33,-2.17,-2.17,-2.17
358.28,0.35,2.55,0.35,2.55,-2.55,-2.63,-2.32,-2.20,-2.20,-2.20
361.87,0.28,2.50,0.28,2.49,-2.50,-2.62,-2.31,-2.21,-2.22,-2.22
365.49,0.20,2.43,0.21,2.44,-2.45,-2.61,-2.31,-2.24,-2.24,-2.23
369.14,0.14,2.39,0.14,2.39,-2.40,-2.60,-2.31,-2.26,-2.26,-2.25
372.83,0.09,2.35,0.09,2.36,-2.36,-2.59,-2.31,-2.27,-2.27,-2.26
376.56,0.05,2.33,0.05,2.33,-2.33,-2.58,-2.32,-2.28,-2.28,-2.28
380.33,0.01,2.31,0.01,2.31,-2.31,-2.57,-2.32,-2.29,-2.30,-2.30
384.13,-0.03,2.28,-0.03,2.29,-2.29,-2.56,-2.33,-2.31,-2.31,-2.31
387.97,-0.06,2.28,-0.06,2.28,-2.27,-2.55,-2.33,-2.33,-2.33,-2.33
391.85,-0.08,2.27,-0.08,2.27,-2.26,-2.54,-2.34,-2.34,-2.34,-2.35
395.77,-0.09,2.27,-0.10,2.26,-2.26,-2.53,-2.35,-2.35,-2.35,-2.36
399.73,-0.11,2.26,-0.11,2.26,-2.26,-2.52,-2.37,-2.37,-2.37,-2.37
403.72,-0.13,2.25,-0.12,2.26,-2.27,-2.51,-2.38,-2.40,-2.39,-2.38
407.76,-0.12,2.27,-0.12,2.27,-2.28,-2.50,-2.39,-2.40,-2.40,-2.39
411.84,-0.11,2.30,-0.11,2.30,-2.30,-2.49,-2.41,-2.41,-2.41,-2.41
415.96,-0.09,2.33,-0.09,2.33,-2.33,-2.47,-2.42,-2.42,-2.42,-2.42
420.12,-0.06,2.37,-0.06,2.37,-2.37,-2.46,-2.44,-2.43,-2.43,-2.43
424.32,-0.03,2.41,-0.03,2.41,-2.41,-2.45,-2.46,-2.44,-2.44,-2.44
428.56,0.00,2.45,0.00,2.46,-2.46,-2.44,-2.47,-2.46,-2.46,-2.45
432.85,0.03,2.50,0.03,2.50,-2.51,-2.43,-2.49,-2.48,-2.47,-2.47
437.18,0.07,2.56,0.07,2.55,-2.56,-2.41,-2.51,-2.49,-2.49,-2.48
441.55,0.11,2.61,0.11,2.61,-2.62,-2.40,-2.52,-2.51,-2.51,-2.49
445.96,0.15,2.67,0.15,2.67,-2.67,-2.39,-2.54,-2.52,-2.52,-2.52
450.42,0.19,2.73,0.19,2.72,-2.72,-2.38,-2.56,-2.53,-2.53,-2.54
454.93,0.22,2.77,0.22,2.77,-2.76,-2.36,-2.57,-2.54,-2.54,-2.55
459.48,0.24,2.81,0.24,2.81,-2.80,-2.35,-2.58,-2.56,-2.56,-2.57
464.07,0.25,2.84,0.25,2.83,-2.83,-2.34,-2.60,-2.58,-2.58,-2.59
468.71,0.24,2.85,0.25,2.85,-2.84,-2.32,-2.61,-2.60,-2.60,-2.61
473.40,0.23,2.85,0.23,2.85,-2.85,-2.31,-2.62,-2.62,-2.62,-2.62
478.13,0.21,2.85,0.21,2.84,-2.84,-2.30,-2.63,-2.63,-2.64,-2.64
482.91,0.17,2.82,0.17,2.83,-2.83,-2.28,-2.63,-2.66,-2.65,-2.65
487.74,0.13,2.80,0.13,2.80,-2.80,-2.27,-2.63,-2.67,-2.67,-2.67
492.62,0.09,2.77,0.09,2.77,-2.77,-2.26,-2.64,-2.68,-2.68,-2.68
497.55,0.04,2.73,0.04,2.73,-2.74,-2.24,-2.64,-2.69,-2.69,-2.69
