frequency,raw,error,smoothed,error_smoothed,equalization,parametric_eq,fixed_band_eq,equalized_raw,equalized_smoothed,target
20.00,2.25,-7.10,2.24,-7.10,6.00,5.61,1.92,8.24,8.24,9.34
20.20,2.33,-7.01,2.33,-7.00,6.00,5.58,1.97,8.33,8.33,9.33
20.40,2.40,-6.92,2.41,-6.91,6.00,5.54,2.03,8.40,8.41,9.31
20.61,2.48,-6.83,2.48,-6.82,6.00,5.51,2.09,8.48,8.48,9.30
20.81,2.56,-6.72,2.56,-6.73,6.00,5.47,2.15,8.56,8.56,9.28
21.02,2.63,-6.64,2.62,-6.65,6.00,5.43,2.22,8.63,8.63,9.27
21.23,2.68,-6.58,2.68,-6.58,6.00,5.40,2.28,8.68,8.68,9.26
21.44,2.72,-6.53,2.72,-6.53,6.00,5.36,2.35,8.72,8.72,9.25
21.66,2.76,-6.47,2.76,-6.48,6.01,5.32,2.42,8.76,8.77,9.23
21.87,2.81,-6.42,2.81,-6.42,6.01,5.28,2.50,8.82,8.82,9.23
22.09,2.87,-6.35,2.88,-6.34,6.01,5.25,2.57,8.88,8.88,9.22
22.31,2.96,-6.25,2.96,-6.25,6.00,5.21,2.65,8.96,8.96,9.21
22.54,3.05,-6.15,3.05,-6.15,5.99,5.17,2.72,9.04,9.04,9.20
22.76,3.14,-6.05,3.14,-6.05,5.98,5.13,2.81,9.11,9.11,9.19
22.99,3.23,-5.96,3.21,-5.97,5.95,5.09,2.89,9.18,9.16,9.19
23.22,3.27,-5.91,3.27,-5.91,5.92,5.05,2.97,9.18,9.19,9.18
23.45,3.32,-5.86,3.32,-5.86,5.87,5.01,3.06,9.19,9.19,9.18
23.69,3.36,-5.82,3.36,-5.82,5.82,4.97,3.14,9.17,9.17,9.17
23.92,3.41,-5.77,3.41,-5.76,5.75,4.93,3.23,9.16,9.17,9.17
24.16,3.48,-5.69,3.48,-5.69,5.68,4.89,3.32,9.16,9.16,9.17
24.40,3.57,-5.60,3.56,-5.61,5.60,4.85,3.42,9.17,9.16,9.17
24.65,3.65,-5.52,3.65,-5.52,5.52,4.81,3.51,9.17,9.17,9.17
24.89,3.74,-5.43,3.74,-5.43,5.44,4.77,3.60,9.18,9.18,9.17
25.14,3.82,-5.35,3.82,-5.35,5.36,4.73,3.70,9.18,9.18,9.17
25.39,3.89,-5.28,3.89,-5.28,5.28,4.69,3.80,9.17,9.17,9.17
25.65,3.96,-5.20,3.96,-5.20,5.21,4.65,3.89,9.17,9.17,9.16
25.91,4.02,-5.14,4.02,-5.13,5.14,4.61,3.99,9.15,9.16,9.16
26.16,4.09,-5.06,4.08,-5.07,5.07,4.57,4.08,9.16,9.15,9.15
26.43,4.14,-5.01,4.14,-5.00,5.00,4.53,4.18,9.14,9.14,9.14
26.69,4.20,-4.94,4.20,-4.94,4.94,4.48,4.27,9.13,9.13,9.13
26.96,4.25,-4.87,4.25,-4.87,4.87,4.44,4.36,9.11,9.12,9.12
27.23,4.32,-4.80,4.32,-4.80,4.79,4.40,4.45,9.11,9.11,9.12
27.50,4.39,-4.72,4.38,-4.73,4.72,4.36,4.54,9.10,9.10,9.11
27.77,4.45,-4.65,4.45,-4.64,4.63,4.32,4.62,9.08,9.09,9.10
28.05,4.53,-4.56,4.53,-4.56,4.55,4.27,4.70,9.08,9.08,9.09
28.33,4.62,-4.47,4.62,-4.47,4.47,4.23,4.77,9.08,9.08,9.08
28.62,4.71,-4.38,4.71,-4.37,4.38,4.19,4.84,9.09,9.09,9.08
28.90,4.80,-4.27,4.79,-4.29,4.30,4.14,4.90,9.10,9.10,9.07
29.19,4.87,-4.21,4.86,-4.21,4.23,4.10,4.96,9.09,9.09,9.08
29.48,4.92,-4.16,4.92,-4.15,4.15,4.06,5.00,9.07,9.08,9.08
29.78,4.98,-4.10,4.98,-4.10,4.08,4.01,5.05,9.06,9.06,9.08
30.08,5.04,-4.04,5.04,-4.04,4.02,3.97,5.08,9.06,9.06,9.07
30.38,5.10,-3.98,5.10,-3.97,3.97,3.93,5.10,9.07,9.08,9.07
30.68,5.16,-3.91,5.16,-3.91,3.93,3.88,5.12,9.09,9.09,9.07
30.99,5.23,-3.84,5.21,-3.86,3.89,3.84,5.12,9.11,9.10,9.07
31.30,5.24,-3.83,5.24,-3.83,3.85,3.79,5.12,9.08,9.08,9.07
31.61,5.25,-3.82,5.25,-3.81,3.80,3.75,5.11,9.05,9.06,9.06
31.93,5.27,-3.79,5.27,-3.78,3.76,3.71,5.09,9.02,9.03,9.06
32.24,5.32,-3.73,5.32,-3.73,3.71,3.66,5.06,9.03,9.03,9.05
32.57,5.38,-3.67,5.38,-3.67,3.66,3.62,5.02,9.03,9.03,9.05
32.89,5.45,-3.60,5.44,-3.60,3.60,3.57,4.98,9.05,9.04,9.04
33.22,5.51,-3.53,5.51,-3.53,3.53,3.53,4.92,9.04,9.04,9.04
33.55,5.58,-3.46,5.58,-3.46,3.46,3.48,4.86,9.04,9.04,9.04
33.89,5.65,-3.38,5.65,-3.38,3.38,3.44,4.79,9.03,9.03,9.03
34.23,5.72,-3.31,5.72,-3.31,3.31,3.39,4.71,9.02,9.02,9.02
34.57,5.78,-3.24,5.78,-3.24,3.24,3.35,4.63,9.02,9.02,9.02
34.92,5.85,-3.17,5.84,-3.18,3.19,3.30,4.54,9.03,9.03,9.02
35.27,5.90,-3.12,5.90,-3.11,3.14,3.26,4.45,9.04,9.04,9.01
35.62,5.94,-3.07,5.94,-3.06,3.09,3.21,4.36,9.03,9.04,9.01
35.97,5.99,-3.01,5.97,-3.03,3.05,3.16,4.26,9.03,9.02,9.00
36.33,5.99,-3.00,5.98,-3.02,3.00,3.12,4.16,8.98,8.97,8.99
36.70,5.99,-3.00,5.99,-2.99,2.94,3.07,4.05,8.93,8.94,8.99
37.06,6.01,-2.98,6.04,-2.94,2.89,3.03,3.95,8.90,8.93,8.98
37.43,6.13,-2.84,6.13,-2.84,2.83,2.98,3.84,8.95,8.96,8.97
37.81,6.26,-2.71,6.23,-2.73,2.76,2.93,3.73,9.02,8.99,8.97
38.19,6.33,-2.62,6.31,-2.64,2.68,2.89,3.62,9.01,8.99,8.95
38.57,6.35,-2.59,6.35,-2.59,2.61,2.84,3.51,8.95,8.96,8.94
38.95,6.37,-2.55,6.39,-2.54,2.53,2.79,3.41,8.90,8.92,8.92
39.34,6.44,-2.48,6.44,-2.47,2.45,2.75,3.30,8.89,8.90,8.92
39.74,6.53,-2.37,6.52,-2.38,2.39,2.70,3.19,8.92,8.90,8.90
40.14,6.59,-2.30,6.58,-2.31,2.32,2.65,3.08,8.91,8.90,8.89
40.54,6.63,-2.24,6.63,-2.25,2.25,2.61,2.98,8.88,8.87,8.87
40.94,6.66,-2.21,6.67,-2.19,2.17,2.56,2.87,8.83,8.84,8.86
41.35,6.73,-2.13,6.72,-2.13,2.10,2.51,2.77,8.82,8.82,8.86
41.76,6.80,-2.05,6.80,-2.05,2.03,2.47,2.67,8.83,8.83,8.85
42.18,6.88,-1.97,6.90,-1.94,1.97,2.42,2.57,8.85,8.88,8.85
42.60,6.99,-1.85,6.99,-1.85,1.92,2.37,2.47,8.91,8.90,8.84
43.03,7.08,-1.75,7.02,-1.82,1.87,2.32,2.37,8.94,8.88,8.83
43.46,7.01,-1.82,7.01,-1.82,1.82,2.28,2.27,8.82,8.82,8.83
43.90,6.95,-1.88,7.01,-1.82,1.77,2.23,2.18,8.72,8.78,8.83
44.33,7.03,-1.79,7.05,-1.77,1.73,2.18,2.09,8.75,8.77,8.82
44.78,7.16,-1.65,7.12,-1.69,1.68,2.13,2.00,8.84,8.80,8.81
45.23,7.21,-1.60,7.18,-1.63,1.64,2.08,1.91,8.85,8.82,8.80
45.68,7.19,-1.61,7.21,-1.59,1.59,2.03,1.82,8.78,8.80,8.79
46.13,7.21,-1.58,7.24,-1.54,1.54,1.99,1.74,8.75,8.79,8.79
46.60,7.31,-1.47,7.30,-1.48,1.49,1.94,1.65,8.80,8.79,8.78
47.06,7.39,-1.38,7.35,-1.42,1.44,1.89,1.57,8.82,8.79,8.77
47.53,7.38,-1.38,7.38,-1.37,1.38,1.84,1.49,8.76,8.77,8.76
48.01,7.38,-1.36,7.40,-1.34,1.33,1.79,1.41,8.71,8.73,8.74
48.49,7.43,-1.30,7.42,-1.30,1.27,1.74,1.33,8.69,8.69,8.73
48.97,7.48,-1.23,7.46,-1.24,1.20,1.69,1.25,8.68,8.67,8.71
49.46,7.52,-1.18,7.52,-1.17,1.15,1.64,1.18,8.67,8.67,8.69
49.96,7.57,-1.11,7.60,-1.08,1.10,1.59,1.11,8.67,8.71,8.68
50.46,7.68,-0.99,7.68,-0.99,1.06,1.54,1.03,8.74,8.74,8.67
50.96,7.79,-0.88,7.71,-0.95,1.01,1.49,0.96,8.80,8.73,8.67
51.47,7.71,-0.95,7.71,-0.95,0.97,1.43,0.89,8.68,8.68,8.65
51.99,7.62,-1.02,7.67,-0.97,0.92,1.38,0.82,8.54,8.59,8.64
52.51,7.67,-0.95,7.66,-0.96,0.87,1.33,0.76,8.54,8.53,8.62
53.03,7.72,-0.88,7.73,-0.87,0.82,1.28,0.69,8.54,8.55,8.60
53.56,7.82,-0.77,7.81,-0.77,0.77,1.23,0.63,8.59,8.59,8.59
54.10,7.91,-0.66,7.86,-0.71,0.73,1.17,0.56,8.64,8.59,8.57
54.64,7.89,-0.67,7.92,-0.64,0.68,1.12,0.50,8.57,8.60,8.56
55.18,7.92,-0.62,7.98,-0.56,0.63,1.07,0.44,8.55,8.61,8.54
55.74,8.06,-0.47,7.99,-0.53,0.56,1.01,0.38,8.62,8.55,8.52
56.29,8.04,-0.47,7.98,-0.52,0.50,0.96,0.32,8.54,8.48,8.50
56.86,7.89,-0.60,7.97,-0.52,0.45,0.90,0.26,8.34,8.42,8.49
57.42,7.95,-0.52,7.98,-0.49,0.41,0.85,0.20,8.36,8.39,8.47
58.00,8.08,-0.37,8.07,-0.38,0.37,0.79,0.14,8.45,8.44,8.45
58.58,8.20,-0.23,8.19,-0.24,0.33,0.73,0.09,8.53,8.52,8.43
59.16,8.27,-0.14,8.24,-0.17,0.27,0.68,0.03,8.54,8.51,8.41
59.76,8.22,-0.17,8.19,-0.20,0.21,0.62,-0.02,8.42,8.39,8.39
60.35,8.14,-0.23,8.14,-0.23,0.14,0.56,-0.07,8.28,8.28,8.37
60.96,8.05,-0.30,8.18,-0.17,0.08,0.51,-0.13,8.13,8.26,8.35
61.57,8.32,-0.01,8.28,-0.05,0.02,0.45,-0.18,8.34,8.31,8.33
62.18,8.50,0.19,8.39,0.08,-0.03,0.39,-0.23,8.47,8.36,8.31
62.80,8.42,0.15,8.45,0.18,-0.09,0.33,-0.28,8.33,8.36,8.27
63.43,8.39,0.14,8.41,0.17,-0.15,0.27,-0.33,8.23,8.26,8.25
64.07,8.39,0.18,8.37,0.16,-0.22,0.21,-0.38,8.17,8.15,8.21
64.71,8.39,0.20,8.44,0.26,-0.28,0.15,-0.43,8.11,8.17,8.18
65.35,8.48,0.33,8.50,0.35,-0.32,0.08,-0.48,8.16,8.18,8.15
66.01,8.65,0.53,8.50,0.39,-0.36,0.02,-0.52,8.29,8.14,8.12
66.67,8.44,0.36,8.50,0.42,-0.41,-0.04,-0.57,8.03,8.10,8.08
67.33,8.41,0.36,8.49,0.45,-0.47,-0.11,-0.62,7.94,8.03,8.05
68.01,8.56,0.55,8.49,0.48,-0.55,-0.17,-0.66,8.01,7.95,8.01
68.69,8.58,0.60,8.55,0.57,-0.63,-0.23,-0.71,7.95,7.92,7.98
69.37,8.59,0.65,8.61,0.68,-0.69,-0.30,-0.76,7.90,7.92,7.94
70.07,8.61,0.70,8.67,0.77,-0.75,-0.37,-0.80,7.86,7.92,7.90
70.77,8.79,0.93,8.73,0.87,-0.80,-0.43,-0.85,7.99,7.93,7.86
71.48,8.79,0.96,8.76,0.94,-0.84,-0.50,-0.90,7.94,7.92,7.82
72.19,8.72,0.94,8.75,0.97,-0.89,-0.57,-0.95,7.83,7.86,7.78
72.91,8.69,0.94,8.68,0.93,-0.94,-0.64,-1.00,7.74,7.73,7.74
73.64,8.63,0.92,8.62,0.91,-1.00,-0.70,-1.04,7.63,7.61,7.71
74.38,8.59,0.92,8.60,0.93,-1.06,-0.77,-1.09,7.52,7.54,7.67
75.12,8.62,0.99,8.66,1.03,-1.13,-0.84,-1.14,7.49,7.53,7.63
75.87,8.77,1.19,8.79,1.20,-1.19,-0.92,-1.19,7.58,7.59,7.58
76.63,8.96,1.42,8.90,1.35,-1.26,-0.99,-1.25,7.70,7.64,7.54
77.40,8.99,1.49,8.95,1.45,-1.33,-1.06,-1.30,7.65,7.62,7.50
78.17,8.89,1.43,8.94,1.48,-1.41,-1.13,-1.35,7.48,7.53,7.46
78.95,8.89,1.47,8.90,1.48,-1.49,-1.20,-1.41,7.40,7.41,7.42
79.74,8.89,1.52,8.88,1.50,-1.56,-1.28,-1.46,7.33,7.32,7.37
80.54,8.89,1.56,8.88,1.55,-1.62,-1.35,-1.52,7.27,7.25,7.33
81.35,8.89,1.60,8.89,1.61,-1.68,-1.42,-1.58,7.21,7.22,7.28
82.16,8.91,1.67,8.95,1.72,-1.73,-1.50,-1.64,7.18,7.22,7.24
82.98,9.03,1.85,9.02,1.84,-1.80,-1.57,-1.70,7.23,7.23,7.18
83.81,9.13,1.99,9.06,1.93,-1.87,-1.65,-1.76,7.26,7.20,7.13
84.65,9.05,1.96,9.06,1.98,-1.93,-1.73,-1.83,7.12,7.14,7.09
85.50,8.99,1.96,9.02,1.99,-1.97,-1.80,-1.89,7.01,7.05,7.03
86.35,8.99,2.01,8.98,2.01,-2.02,-1.88,-1.96,6.97,6.97,6.98
87.22,8.99,2.07,8.98,2.06,-2.06,-1.96,-2.03,6.93,6.92,6.92
88.09,8.99,2.12,9.00,2.13,-2.12,-2.03,-2.10,6.87,6.88,6.87
88.97,8.99,2.18,8.94,2.13,-2.20,-2.11,-2.17,6.79,6.75,6.81
89.86,8.96,2.21,8.92,2.17,-2.28,-2.19,-2.24,6.68,6.64,6.75
90.76,8.84,2.14,9.00,2.31,-2.38,-2.27,-2.32,6.46,6.62,6.69
91.66,9.15,2.52,9.12,2.49,-2.48,-2.34,-2.40,6.67,6.64,6.63
92.58,9.35,2.78,9.23,2.66,-2.58,-2.42,-2.47,6.77,6.65,6.57
93.51,9.29,2.78,9.30,2.79,-2.67,-2.50,-2.55,6.61,6.63,6.50
94.44,9.20,2.76,9.25,2.81,-2.76,-2.58,-2.64,6.43,6.49,6.44
95.39,9.20,2.82,9.19,2.82,-2.85,-2.65,-2.72,6.35,6.34,6.38
96.34,9.19,2.88,9.18,2.88,-2.92,-2.73,-2.80,6.27,6.26,6.31
97.30,9.19,2.95,9.18,2.94,-2.97,-2.81,-2.89,6.22,6.21,6.24
98.28,9.18,3.01,9.17,3.01,-3.02,-2.88,-2.98,6.16,6.16,6.17
99.26,9.16,3.06,9.16,3.07,-3.06,-2.96,-3.06,6.09,6.10,6.10
100.25,9.15,3.13,9.15,3.13,-3.11,-3.04,-3.15,6.04,6.03,6.02
101.25,9.13,3.18,9.13,3.19,-3.17,-3.11,-3.24,5.96,5.96,5.94
102.27,9.12,3.25,9.12,3.25,-3.23,-3.19,-3.33,5.88,5.88,5.87
103.29,9.10,3.31,9.10,3.31,-3.30,-3.26,-3.42,5.79,5.79,5.79
104.32,9.08,3.36,9.07,3.36,-3.39,-3.34,-3.52,5.69,5.69,5.71
105.37,9.06,3.43,9.04,3.41,-3.47,-3.41,-3.61,5.59,5.57,5.63
106.42,9.03,3.48,9.04,3.49,-3.55,-3.49,-3.70,5.48,5.49,5.55
107.48,9.05,3.57,9.11,3.64,-3.63,-3.56,-3.78,5.42,5.48,5.48
108.56,9.20,3.80,9.17,3.77,-3.70,-3.63,-3.87,5.50,5.46,5.40
109.64,9.27,3.94,9.18,3.85,-3.78,-3.70,-3.96,5.49,5.40,5.32
110.74,9.10,3.84,9.14,3.89,-3.85,-3.77,-4.04,5.25,5.29,5.26
111.85,9.03,3.85,9.06,3.88,-3.91,-3.84,-4.13,5.11,5.15,5.18
112.97,9.02,3.90,9.00,3.89,-3.96,-3.91,-4.20,5.06,5.05,5.12
114.10,9.01,3.96,9.01,3.96,-3.98,-3.98,-4.28,5.03,5.03,5.05
115.24,9.01,4.02,9.03,4.04,-3.99,-4.04,-4.35,5.02,5.04,4.99
116.39,9.01,4.09,9.00,4.07,-4.00,-4.11,-4.43,5.01,5.00,4.92
117.55,8.99,4.12,8.92,4.06,-4.02,-4.17,-4.49,4.97,4.90,4.87
118.73,8.79,3.98,8.81,4.01,-4.05,-4.24,-4.55,4.74,4.76,4.80
119.92,8.71,3.96,8.76,4.01,-4.09,-4.30,-4.61,4.62,4.67,4.75
121.12,8.73,4.04,8.78,4.09,-4.13,-4.36,-4.66,4.60,4.64,4.69
122.33,8.91,4.27,8.81,4.17,-4.18,-4.41,-4.70,4.72,4.62,4.64
123.55,8.88,4.28,8.85,4.26,-4.24,-4.47,-4.74,4.63,4.60,4.59
124.79,8.76,4.22,8.88,4.34,-4.32,-4.53,-4.78,4.44,4.56,4.54
126.03,8.94,4.46,8.89,4.40,-4.40,-4.58,-4.81,4.54,4.49,4.48
127.29,8.96,4.52,8.94,4.50,-4.49,-4.64,-4.83,4.47,4.45,4.44
128.57,8.98,4.59,8.99,4.60,-4.56,-4.69,-4.85,4.42,4.43,4.39
129.85,8.98,4.63,8.98,4.64,-4.63,-4.74,-4.87,4.35,4.35,4.34
131.15,8.99,4.69,8.99,4.69,-4.69,-4.79,-4.88,4.30,4.29,4.30
132.46,8.99,4.74,8.99,4.74,-4.75,-4.83,-4.88,4.24,4.24,4.25
133.79,9.00,4.81,9.00,4.80,-4.80,-4.88,-4.88,4.19,4.19,4.19
135.12,9.00,4.85,9.00,4.85,-4.86,-4.92,-4.88,4.14,4.14,4.15
136.48,9.01,4.91,9.01,4.91,-4.92,-4.96,-4.87,4.09,4.09,4.10
137.84,9.01,4.96,9.01,4.96,-4.97,-5.00,-4.86,4.04,4.04,4.05
139.22,9.01,5.00,9.01,5.01,-5.02,-5.04,-4.85,3.99,3.99,4.00
140.61,9.01,5.06,9.01,5.06,-5.06,-5.08,-4.84,3.95,3.95,3.95
142.02,9.01,5.11,9.01,5.11,-5.09,-5.11,-4.82,3.92,3.92,3.90
143.44,9.01,5.16,9.02,5.17,-5.11,-5.15,-4.80,3.90,3.91,3.85
144.87,9.01,5.20,8.99,5.18,-5.14,-5.18,-4.78,3.87,3.85,3.81
146.32,8.97,5.21,8.91,5.15,-5.17,-5.21,-4.77,3.80,3.74,3.76
147.78,8.78,5.08,8.84,5.14,-5.20,-5.24,-4.75,3.58,3.65,3.70
149.26,8.77,5.12,8.81,5.16,-5.22,-5.27,-4.73,3.54,3.59,3.65
150.75,8.88,5.27,8.83,5.23,-5.26,-5.30,-4.71,3.62,3.57,3.60
152.26,8.91,5.35,8.89,5.33,-5.31,-5.32,-4.70,3.60,3.58,3.56
153.78,8.91,5.39,8.92,5.40,-5.37,-5.35,-4.68,3.54,3.55,3.52
155.32,8.91,5.43,8.90,5.43,-5.45,-5.38,-4.67,3.46,3.45,3.48
156.88,8.91,5.47,8.90,5.46,-5.52,-5.40,-4.66,3.39,3.38,3.43
158.44,8.91,5.51,8.96,5.56,-5.57,-5.42,-4.65,3.33,3.38,3.40
160.03,8.99,5.63,9.01,5.65,-5.60,-5.44,-4.64,3.39,3.41,3.36
161.63,9.12,5.80,9.01,5.69,-5.60,-5.47,-4.64,3.52,3.40,3.32
163.24,8.94,5.66,8.98,5.70,-5.59,-5.49,-4.64,3.35,3.39,3.28
164.88,8.81,5.57,8.87,5.64,-5.58,-5.51,-4.65,3.23,3.30,3.24
166.53,8.80,5.60,8.70,5.50,-5.57,-5.53,-4.65,3.23,3.13,3.20
168.19,8.59,5.43,8.60,5.45,-5.55,-5.55,-4.66,3.03,3.05,3.16
169.87,8.45,5.33,8.57,5.45,-5.55,-5.57,-4.67,2.90,3.02,3.12
171.57,8.63,5.54,8.57,5.49,-5.55,-5.59,-4.69,3.07,3.02,3.08
173.29,8.68,5.63,8.64,5.59,-5.58,-5.61,-4.71,3.10,3.06,3.05
175.02,8.67,5.66,8.69,5.67,-5.61,-5.62,-4.74,3.06,3.07,3.01
176.77,8.67,5.68,8.67,5.69,-5.64,-5.64,-4.76,3.02,3.03,2.99
178.54,8.67,5.71,8.67,5.71,-5.67,-5.66,-4.79,3.00,3.00,2.95
180.32,8.67,5.74,8.69,5.76,-5.69,-5.68,-4.83,2.98,3.00,2.93
182.13,8.68,5.77,8.67,5.77,-5.71,-5.69,-4.87,2.96,2.96,2.91
183.95,8.68,5.79,8.59,5.71,-5.74,-5.71,-4.91,2.93,2.84,2.89
185.79,8.47,5.61,8.50,5.64,-5.77,-5.72,-4.95,2.69,2.73,2.85
187.65,8.40,5.55,8.49,5.65,-5.80,-5.73,-5.00,2.60,2.70,2.84
189.52,8.57,5.74,8.58,5.76,-5.81,-5.75,-5.06,2.76,2.77,2.82
191.42,8.78,5.97,8.72,5.91,-5.81,-5.76,-5.11,2.97,2.91,2.80
193.33,8.85,6.06,8.78,5.99,-5.80,-5.77,-5.17,3.04,2.98,2.78
195.27,8.67,5.89,8.72,5.95,-5.80,-5.78,-5.23,2.87,2.93,2.78
197.22,8.58,5.82,8.56,5.80,-5.79,-5.78,-5.30,2.79,2.77,2.76
199.19,8.45,5.71,8.42,5.68,-5.79,-5.79,-5.36,2.66,2.63,2.74
201.18,8.29,5.56,8.38,5.66,-5.79,-5.79,-5.44,2.49,2.59,2.73
203.19,8.40,5.69,8.39,5.68,-5.80,-5.80,-5.51,2.60,2.59,2.71
205.23,8.51,5.81,8.45,5.75,-5.81,-5.80,-5.58,2.70,2.64,2.69
207.28,8.51,5.83,8.50,5.82,-5.82,-5.80,-5.65,2.69,2.68,2.68
209.35,8.51,5.85,8.55,5.89,-5.82,-5.80,-5.73,2.68,2.73,2.65
211.44,8.55,5.91,8.63,5.99,-5.84,-5.80,-5.81,2.71,2.80,2.64
213.56,8.72,6.09,8.60,5.98,-5.85,-5.80,-5.88,2.87,2.75,2.63
215.69,8.62,6.01,8.47,5.87,-5.84,-5.79,-5.96,2.78,2.64,2.60
217.85,8.12,5.53,8.32,5.73,-5.80,-5.79,-6.03,2.31,2.51,2.59
220.03,8.15,5.58,8.19,5.62,-5.76,-5.78,-6.10,2.39,2.43,2.57
222.23,8.25,5.69,8.17,5.62,-5.71,-5.77,-6.17,2.54,2.46,2.56
224.45,8.28,5.73,8.29,5.75,-5.69,-5.77,-6.24,2.59,2.60,2.54
226.70,8.28,5.74,8.28,5.75,-5.69,-5.75,-6.30,2.59,2.60,2.53
228.96,8.29,5.77,8.17,5.64,-5.69,-5.74,-6.36,2.59,2.47,2.52
231.25,8.06,5.54,8.15,5.63,-5.70,-5.73,-6.41,2.36,2.45,2.52
233.57,8.02,5.51,8.21,5.70,-5.69,-5.72,-6.46,2.33,2.52,2.51
235.90,8.46,5.95,8.28,5.77,-5.68,-5.70,-6.50,2.78,2.61,2.51
238.26,8.41,5.90,8.33,5.82,-5.66,-5.69,-6.54,2.74,2.67,2.50
240.64,8.19,5.67,8.21,5.70,-5.66,-5.67,-6.56,2.53,2.55,2.51
243.05,7.99,5.47,7.99,5.48,-5.66,-5.65,-6.58,2.33,2.34,2.52
245.48,7.84,5.32,7.98,5.46,-5.64,-5.63,-6.59,2.20,2.34,2.52
247.93,8.07,5.55,8.08,5.56,-5.60,-5.61,-6.60,2.47,2.48,2.52
250.41,8.35,5.83,8.19,5.67,-5.54,-5.59,-6.59,2.81,2.65,2.52
252.92,8.22,5.69,8.24,5.72,-5.50,-5.57,-6.58,2.72,2.74,2.52
255.45,8.09,5.56,8.11,5.58,-5.50,-5.55,-6.55,2.59,2.61,2.53
258.00,7.97,5.45,7.92,5.40,-5.52,-5.52,-6.52,2.45,2.40,2.52
260.58,7.74,5.23,7.82,5.31,-5.52,-5.50,-6.48,2.22,2.30,2.51
263.19,7.82,5.31,7.86,5.35,-5.49,-5.47,-6.44,2.33,2.37,2.51
265.82,7.96,5.47,7.98,5.49,-5.45,-5.45,-6.38,2.51,2.53,2.49
268.48,8.19,5.70,8.10,5.62,-5.42,-5.42,-6.32,2.76,2.68,2.48
271.16,8.11,5.64,8.05,5.58,-5.41,-5.39,-6.25,2.69,2.63,2.47
273.87,7.87,5.42,7.85,5.39,-5.40,-5.36,-6.18,2.46,2.44,2.45
276.61,7.59,5.14,7.68,5.24,-5.37,-5.33,-6.10,2.22,2.31,2.45
279.38,7.55,5.11,7.71,5.27,-5.33,-5.30,-6.02,2.22,2.37,2.44
282.17,7.88,5.45,7.76,5.33,-5.29,-5.27,-5.94,2.58,2.47,2.43
284.99,7.95,5.53,7.73,5.31,-5.26,-5.24,-5.85,2.69,2.47,2.42
287.84,7.51,5.09,7.61,5.20,-5.23,-5.21,-5.76,2.28,2.39,2.42
290.72,7.32,4.92,7.48,5.08,-5.20,-5.18,-5.67,2.11,2.28,2.40
293.63,7.55,5.15,7.54,5.14,-5.19,-5.14,-5.57,2.36,2.35,2.40
296.57,7.73,5.33,7.70,5.30,-5.18,-5.11,-5.48,2.55,2.52,2.39
299.53,7.88,5.48,7.69,5.30,-5.15,-5.08,-5.38,2.73,2.54,2.40
302.53,7.51,5.11,7.53,5.14,-5.13,-5.04,-5.29,2.38,2.40,2.39
305.55,7.20,4.82,7.38,4.99,-5.10,-5.01,-5.19,2.10,2.28,2.38
308.61,7.33,4.95,7.35,4.97,-5.07,-4.97,-5.10,2.26,2.28,2.38
311.69,7.49,5.11,7.42,5.05,-5.03,-4.93,-5.01,2.46,2.39,2.37
314.81,7.57,5.21,7.42,5.06,-4.98,-4.90,-4.92,2.59,2.44,2.36
317.96,7.25,4.89,7.34,4.98,-4.93,-4.86,-4.83,2.32,2.41,2.36
321.14,7.13,4.77,7.23,4.88,-4.90,-4.82,-4.75,2.22,2.33,2.35
324.35,7.24,4.90,7.16,4.82,-4.89,-4.78,-4.66,2.35,2.27,2.34
327.59,7.18,4.85,7.15,4.81,-4.87,-4.74,-4.58,2.31,2.28,2.33
330.87,7.12,4.79,7.16,4.83,-4.82,-4.70,-4.51,2.30,2.34,2.32
334.18,7.07,4.75,7.14,4.81,-4.76,-4.66,-4.43,2.31,2.38,2.32
337.52,7.20,4.88,7.09,4.77,-4.71,-4.62,-4.36,2.49,2.38,2.32
340.90,7.04,4.73,7.02,4.71,-4.67,-4.58,-4.29,2.37,2.35,2.31
344.30,6.85,4.54,6.93,4.63,-4.63,-4.54,-4.23,2.21,2.30,2.30
347.75,6.84,4.54,6.83,4.53,-4.60,-4.50,-4.16,2.24,2.23,2.30
351.23,6.80,4.51,6.76,4.47,-4.56,-4.46,-4.10,2.24,2.21,2.29
354.74,6.75,4.46,6.74,4.45,-4.51,-4.42,-4.05,2.24,2.23,2.29
358.28,6.68,4.39,6.79,4.50,-4.46,-4.38,-4.00,2.22,2.33,2.29
361.87,6.80,4.51,6.79,4.51,-4.42,-4.33,-3.95,2.37,2.37,2.28
365.49,6.93,4.65,6.70,4.42,-4.38,-4.29,-3.90,2.54,2.31,2.28
369.14,6.51,4.23,6.64,4.36,-4.34,-4.25,-3.86,2.17,2.30,2.28
372.83,6.37,4.09,6.55,4.28,-4.29,-4.21,-3.82,2.08,2.27,2.28
376.56,6.65,4.37,6.42,4.15,-4.21,-4.16,-3.78,2.43,2.21,2.28
380.33,6.43,4.16,6.41,4.15,-4.13,-4.12,-3.74,2.30,2.29,2.26
384.13,6.17,3.90,6.36,4.10,-4.03,-4.07,-3.71,2.13,2.32,2.26
387.97,6.33,4.08,6.19,3.94,-3.95,-4.03,-3.68,2.38,2.24,2.25
391.85,6.14,3.90,6.10,3.85,-3.87,-3.98,-3.65,2.26,2.22,2.24
395.77,5.92,3.69,6.02,3.79,-3.81,-3.94,-3.63,2.11,2.21,2.23
399.73,5.91,3.69,5.91,3.69,-3.75,-3.89,-3.60,2.16,2.16,2.22
403.72,5.90,3.69,5.84,3.64,-3.68,-3.84,-3.58,2.21,2.16,2.21
407.76,5.82,3.63,5.82,3.63,-3.61,-3.80,-3.56,2.21,2.21,2.18
411.84,5.69,3.51,5.75,3.58,-3.54,-3.75,-3.54,2.15,2.21,2.17
415.96,5.73,3.57,5.67,3.51,-3.47,-3.70,-3.53,2.26,2.21,2.16
420.12,5.59,3.44,5.60,3.45,-3.40,-3.65,-3.51,2.19,2.20,2.15
424.32,5.49,3.34,5.47,3.33,-3.32,-3.60,-3.50,2.17,2.15,2.15
428.56,5.36,3.21,5.34,3.19,-3.23,-3.55,-3.48,2.13,2.11,2.15
432.85,5.18,3.02,5.25,3.10,-3.13,-3.50,-3.46,2.05,2.13,2.16
437.18,5.23,3.05,5.20,3.03,-3.02,-3.45,-3.45,2.21,2.18,2.18
441.55,5.20,3.00,5.19,3.00,-2.93,-3.40,-3.43,2.27,2.27,2.20
445.96,5.15,2.92,5.14,2.91,-2.86,-3.35,-3.41,2.29,2.28,2.22
450.42,5.11,2.84,5.00,2.74,-2.80,-3.29,-3.39,2.31,2.20,2.26
454.93,4.86,2.56,5.00,2.70,-2.77,-3.24,-3.37,2.09,2.23,2.30
459.48,4.95,2.60,5.04,2.69,-2.76,-3.19,-3.35,2.19,2.28,2.35
464.07,5.36,2.97,5.12,2.73,-2.77,-3.13,-3.32,2.59,2.36,2.39
468.71,5.19,2.75,5.28,2.84,-2.80,-3.07,-3.29,2.39,2.48,2.44
473.40,5.32,2.83,5.38,2.89,-2.86,-3.02,-3.26,2.46,2.52,2.49
478.13,5.52,2.98,5.42,2.88,-2.94,-2.96,-3.23,2.58,2.48,2.54
482.91,5.54,2.96,5.56,2.98,-3.01,-2.90,-3.19,2.52,2.55,2.58
487.74,5.61,2.99,5.67,3.05,-3.06,-2.84,-3.14,2.55,2.61,2.62
492.62,5.82,3.17,5.77,3.13,-3.08,-2.78,-3.10,2.74,2.69,2.65
497.55,5.85,3.18,5.86,3.19,-3.07,-2.72,-3.05,2.77,2.79,2.67
502.52,5.90,3.21,5.84,3.16,-3.05,-2.66,-2.99,2.85,2.79,2.69
507.55,5.74,3.04,5.73,3.04,-3.02,-2.59,-2.93,2.71,2.71,2.70
512.62,5.55,2.86,5.59,2.90,-2.98,-2.53,-2.87,2.57,2.61,2.68
517.75,5.47,2.78,5.46,2.78,-2.91,-2.47,-2.80,2.56,2.55,2.68
522.93,5.40,2.73,5.43,2.76,-2.82,-2.40,-2.73,2.58,2.60,2.66
528.16,5.40,2.75,5.41,2.77,-2.73,-2.33,-2.65,2.67,2.68,2.64
533.44,5.41,2.80,5.34,2.73,-2.64,-2.27,-2.57,2.77,2.70,2.61
538.77,5.22,2.65,5.21,2.63,-2.57,-2.20,-2.48,2.65,2.63,2.57
544.16,4.99,2.46,5.02,2.49,-2.51,-2.13,-2.40,2.48,2.51,2.53
549.60,4.83,2.34,4.84,2.35,-2.44,-2.06,-2.30,2.39,2.40,2.49
555.10,4.73,2.28,4.74,2.29,-2.36,-1.99,-2.21,2.37,2.38,2.45
