frequency,raw,error,smoothed,error_smoothed,equalization,parametric_eq,fixed_band_eq,equalized_raw,equalized_smoothed,target
20.00,-10.48,-11.82,-10.47,-11.81,6.00,6.62,2.56,-4.48,-4.47,1.35
20.20,-10.39,-11.73,-10.39,-11.74,6.00,6.59,2.63,-4.39,-4.39,1.34
20.40,-10.30,-11.64,-10.31,-11.66,6.00,6.57,2.71,-4.30,-4.31,1.34
20.61,-10.20,-11.55,-10.21,-11.56,6.00,6.54,2.79,-4.20,-4.21,1.35
20.81,-10.11,-11.46,-10.11,-11.46,6.00,6.51,2.87,-4.11,-4.11,1.35
21.02,-10.01,-11.36,-9.98,-11.33,6.00,6.49,2.95,-4.01,-3.98,1.35
21.23,-9.81,-11.16,-9.82,-11.17,6.00,6.46,3.04,-3.81,-3.82,1.35
21.44,-9.62,-10.98,-9.62,-10.98,6.00,6.43,3.13,-3.62,-3.62,1.36
21.66,-9.42,-10.78,-9.41,-10.77,6.00,6.40,3.22,-3.42,-3.41,1.36
21.87,-9.22,-10.58,-9.23,-10.59,6.00,6.37,3.31,-3.22,-3.23,1.36
22.09,-9.06,-10.42,-9.07,-10.43,6.00,6.34,3.40,-3.06,-3.07,1.36
22.31,-8.95,-10.32,-8.94,-10.31,6.00,6.31,3.50,-2.95,-2.94,1.37
22.54,-8.84,-10.20,-8.84,-10.20,6.00,6.28,3.60,-2.84,-2.84,1.36
22.76,-8.73,-10.10,-8.73,-10.10,6.00,6.25,3.71,-2.73,-2.73,1.37
22.99,-8.62,-9.99,-8.61,-9.98,6.00,6.22,3.81,-2.62,-2.61,1.37
23.22,-8.47,-9.84,-8.47,-9.84,6.00,6.19,3.92,-2.47,-2.47,1.37
23.45,-8.32,-9.69,-8.32,-9.69,6.00,6.16,4.03,-2.32,-2.32,1.37
23.69,-8.17,-9.54,-8.17,-9.54,6.00,6.13,4.15,-2.17,-2.17,1.37
23.92,-8.03,-9.40,-8.02,-9.39,6.00,6.10,4.26,-2.03,-2.02,1.38
24.16,-7.87,-9.23,-7.87,-9.24,6.00,6.07,4.38,-1.87,-1.87,1.37
24.40,-7.71,-9.07,-7.71,-9.08,6.00,6.04,4.50,-1.71,-1.71,1.37
24.65,-7.56,-8.93,-7.55,-8.91,6.00,6.00,4.62,-1.56,-1.55,1.37
24.89,-7.40,-8.75,-7.41,-8.76,6.00,5.97,4.74,-1.40,-1.41,1.36
25.14,-7.28,-8.63,-7.28,-8.64,6.00,5.94,4.87,-1.28,-1.28,1.36
25.39,-7.19,-8.53,-7.18,-8.53,6.00,5.90,4.99,-1.19,-1.18,1.34
25.65,-7.10,-8.44,-7.10,-8.44,6.00,5.87,5.12,-1.10,-1.10,1.34
25.91,-7.01,-8.34,-7.00,-8.34,6.00,5.84,5.24,-1.01,-1.00,1.33
26.16,-6.89,-8.22,-6.88,-8.21,6.00,5.80,5.37,-0.89,-0.88,1.33
26.43,-6.75,-8.07,-6.75,-8.07,6.00,5.77,5.49,-0.75,-0.75,1.32
26.69,-6.61,-7.93,-6.60,-7.93,6.00,5.73,5.62,-0.61,-0.60,1.32
26.96,-6.46,-7.78,-6.48,-7.80,6.00,5.70,5.74,-0.46,-0.48,1.32
27.23,-6.37,-7.69,-6.37,-7.68,6.00,5.66,5.86,-0.37,-0.37,1.32
27.50,-6.29,-7.60,-6.29,-7.60,6.00,5.62,5.97,-0.29,-0.29,1.31
27.77,-6.21,-7.51,-6.21,-7.52,6.00,5.59,6.08,-0.21,-0.21,1.31
28.05,-6.13,-7.44,-6.11,-7.43,6.00,5.55,6.19,-0.13,-0.11,1.32
28.33,-6.00,-7.31,-6.00,-7.32,6.00,5.51,6.29,0.00,-0.00,1.32
28.62,-5.87,-7.18,-5.88,-7.19,6.00,5.48,6.39,0.13,0.12,1.31
28.90,-5.74,-7.05,-5.73,-7.04,6.00,5.44,6.47,0.26,0.27,1.31
29.19,-5.57,-6.88,-5.56,-6.87,6.00,5.40,6.56,0.43,0.44,1.31
29.48,-5.37,-6.68,-5.36,-6.68,6.01,5.36,6.62,0.65,0.65,1.31
29.78,-5.18,-6.49,-5.18,-6.49,6.03,5.32,6.69,0.85,0.84,1.31
30.08,-5.02,-6.32,-5.05,-6.35,6.03,5.29,6.74,1.01,0.98,1.30
30.38,-4.96,-6.26,-4.96,-6.26,6.01,5.25,6.78,1.05,1.05,1.30
30.68,-4.91,-6.20,-4.90,-6.19,5.98,5.21,6.80,1.07,1.08,1.30
30.99,-4.85,-6.13,-4.82,-6.11,5.94,5.17,6.82,1.09,1.12,1.29
31.30,-4.69,-5.97,-4.69,-5.97,5.88,5.13,6.83,1.19,1.19,1.28
31.61,-4.53,-5.80,-4.53,-5.81,5.80,5.09,6.82,1.27,1.27,1.27
31.93,-4.37,-5.64,-4.39,-5.65,5.70,5.05,6.80,1.33,1.32,1.27
32.24,-4.27,-5.53,-4.28,-5.54,5.59,5.01,6.77,1.32,1.31,1.26
32.57,-4.20,-5.45,-4.19,-5.45,5.46,4.97,6.73,1.26,1.26,1.25
32.89,-4.12,-5.36,-4.10,-5.35,5.32,4.92,6.68,1.21,1.22,1.25
33.22,-4.00,-5.24,-3.98,-5.22,5.19,4.88,6.62,1.20,1.21,1.24
33.55,-3.84,-5.07,-3.84,-5.07,5.08,4.84,6.55,1.24,1.24,1.23
33.89,-3.69,-4.91,-3.71,-4.93,4.97,4.80,6.47,1.28,1.26,1.22
34.23,-3.60,-4.82,-3.61,-4.82,4.87,4.76,6.38,1.27,1.26,1.22
34.57,-3.55,-4.75,-3.54,-4.75,4.76,4.71,6.29,1.21,1.22,1.21
34.92,-3.49,-4.69,-3.48,-4.68,4.65,4.67,6.19,1.17,1.18,1.20
35.27,-3.40,-4.60,-3.40,-4.60,4.55,4.63,6.08,1.15,1.16,1.20
35.62,-3.30,-4.50,-3.30,-4.50,4.46,4.58,5.97,1.17,1.16,1.20
35.97,-3.20,-4.38,-3.20,-4.39,4.38,4.54,5.85,1.19,1.18,1.19
36.33,-3.11,-4.29,-3.10,-4.29,4.31,4.50,5.74,1.20,1.20,1.19
36.70,-3.03,-4.21,-3.03,-4.21,4.23,4.45,5.62,1.21,1.21,1.18
37.06,-2.96,-4.14,-2.98,-4.16,4.17,4.41,5.50,1.21,1.19,1.18
37.43,-2.96,-4.14,-2.95,-4.13,4.13,4.36,5.37,1.17,1.17,1.18
37.81,-2.96,-4.14,-2.95,-4.13,4.11,4.32,5.25,1.15,1.16,1.19
38.19,-2.96,-4.14,-2.94,-4.12,4.13,4.27,5.13,1.18,1.19,1.18
38.57,-2.96,-4.14,-2.95,-4.13,4.19,4.22,5.01,1.23,1.24,1.18
38.95,-2.96,-4.14,-3.01,-4.18,4.27,4.18,4.89,1.31,1.27,1.18
39.34,-3.12,-4.29,-3.12,-4.30,4.38,4.13,4.77,1.26,1.25,1.17
39.74,-3.30,-4.47,-3.28,-4.45,4.48,4.09,4.65,1.19,1.21,1.17
40.14,-3.45,-4.61,-3.44,-4.61,4.58,4.04,4.53,1.13,1.14,1.17
40.54,-3.54,-4.70,-3.55,-4.71,4.65,3.99,4.41,1.11,1.09,1.16
40.94,-3.63,-4.79,-3.60,-4.76,4.67,3.94,4.30,1.04,1.07,1.16
41.35,-3.58,-4.72,-3.59,-4.74,4.63,3.90,4.19,1.06,1.04,1.14
41.76,-3.51,-4.64,-3.50,-4.63,4.54,3.85,4.08,1.03,1.03,1.13
42.18,-3.36,-4.47,-3.32,-4.44,4.38,3.80,3.98,1.03,1.06,1.12
42.60,-3.09,-4.19,-3.10,-4.20,4.19,3.75,3.87,1.10,1.08,1.10
43.03,-2.83,-3.92,-2.83,-3.92,3.97,3.70,3.77,1.14,1.13,1.09
43.46,-2.59,-3.65,-2.57,-3.64,3.74,3.65,3.68,1.15,1.16,1.06
43.90,-2.34,-3.39,-2.37,-3.42,3.51,3.60,3.58,1.17,1.14,1.05
44.33,-2.20,-3.23,-2.21,-3.24,3.30,3.55,3.49,1.10,1.09,1.03
44.78,-2.10,-3.12,-2.08,-3.10,3.10,3.50,3.40,1.00,1.02,1.02
45.23,-1.98,-2.98,-1.98,-2.98,2.93,3.45,3.31,0.95,0.95,1.00
45.68,-1.85,-2.84,-1.85,-2.84,2.78,3.40,3.23,0.93,0.93,0.99
46.13,-1.71,-2.69,-1.68,-2.67,2.65,3.35,3.15,0.94,0.96,0.98
46.60,-1.53,-2.50,-1.53,-2.50,2.53,3.30,3.07,1.00,1.00,0.98
47.06,-1.37,-2.34,-1.41,-2.38,2.42,3.25,2.99,1.05,1.01,0.97
47.53,-1.34,-2.30,-1.34,-2.30,2.32,3.19,2.92,0.99,0.99,0.96
48.01,-1.32,-2.28,-1.28,-2.24,2.24,3.14,2.84,0.92,0.96,0.97
48.49,-1.23,-2.20,-1.23,-2.19,2.18,3.09,2.78,0.95,0.95,0.97
48.97,-1.14,-2.11,-1.17,-2.14,2.14,3.04,2.71,1.00,0.97,0.97
49.46,-1.14,-2.11,-1.13,-2.11,2.12,2.98,2.64,0.98,0.98,0.97
49.96,-1.14,-2.11,-1.12,-2.10,2.11,2.93,2.58,0.97,0.99,0.98
50.46,-1.14,-2.13,-1.14,-2.12,2.12,2.87,2.52,0.98,0.98,0.99
50.96,-1.14,-2.13,-1.15,-2.14,2.14,2.82,2.46,1.00,0.99,0.99
51.47,-1.19,-2.18,-1.18,-2.17,2.18,2.76,2.40,0.99,0.99,0.99
51.99,-1.24,-2.22,-1.23,-2.22,2.23,2.71,2.34,1.00,1.00,0.98
52.51,-1.31,-2.28,-1.30,-2.28,2.30,2.65,2.29,1.00,1.00,0.97
53.03,-1.38,-2.34,-1.39,-2.35,2.38,2.60,2.23,1.00,0.99,0.97
53.56,-1.49,-2.44,-1.49,-2.45,2.45,2.54,2.18,0.97,0.96,0.96
54.10,-1.61,-2.55,-1.62,-2.56,2.53,2.48,2.13,0.93,0.92,0.95
54.64,-1.74,-2.66,-1.72,-2.65,2.61,2.43,2.08,0.87,0.89,0.93
55.18,-1.82,-2.72,-1.79,-2.69,2.68,2.37,2.03,0.86,0.89,0.90
55.74,-1.82,-2.70,-1.85,-2.73,2.74,2.31,1.98,0.92,0.89,0.88
56.29,-1.89,-2.74,-1.92,-2.77,2.79,2.25,1.93,0.90,0.87,0.85
56.86,-2.02,-2.85,-1.98,-2.81,2.82,2.19,1.88,0.80,0.83,0.83
57.42,-2.05,-2.85,-2.04,-2.84,2.82,2.13,1.83,0.77,0.78,0.80
58.00,-2.05,-2.81,-2.06,-2.82,2.81,2.07,1.79,0.76,0.75,0.77
58.58,-2.05,-2.78,-2.06,-2.79,2.78,2.01,1.74,0.73,0.72,0.73
59.16,-2.05,-2.75,-2.06,-2.76,2.74,1.95,1.69,0.70,0.69,0.70
59.76,-2.05,-2.71,-2.02,-2.68,2.69,1.89,1.64,0.64,0.67,0.67
60.35,-1.97,-2.60,-1.95,-2.58,2.60,1.83,1.59,0.64,0.65,0.63
60.96,-1.83,-2.42,-1.89,-2.49,2.50,1.77,1.54,0.67,0.61,0.60
61.57,-1.82,-2.39,-1.82,-2.38,2.37,1.70,1.49,0.55,0.55,0.57
62.18,-1.78,-2.31,-1.74,-2.27,2.23,1.64,1.44,0.45,0.49,0.54
62.80,-1.63,-2.13,-1.62,-2.12,2.07,1.58,1.38,0.45,0.45,0.50
63.43,-1.45,-1.91,-1.45,-1.92,1.91,1.51,1.33,0.46,0.45,0.46
64.07,-1.26,-1.68,-1.28,-1.71,1.74,1.45,1.28,0.48,0.45,0.43
64.71,-1.14,-1.53,-1.14,-1.53,1.56,1.38,1.22,0.43,0.42,0.39
65.35,-1.03,-1.38,-1.02,-1.37,1.39,1.32,1.16,0.36,0.38,0.35
66.01,-0.91,-1.23,-0.89,-1.21,1.22,1.25,1.11,0.32,0.33,0.32
66.67,-0.76,-1.05,-0.77,-1.07,1.07,1.18,1.05,0.31,0.30,0.29
67.33,-0.65,-0.92,-0.66,-0.93,0.94,1.12,0.99,0.29,0.27,0.27
68.01,-0.58,-0.82,-0.56,-0.81,0.81,1.05,0.93,0.23,0.25,0.24
68.69,-0.48,-0.70,-0.45,-0.68,0.69,0.98,0.87,0.21,0.24,0.22
69.37,-0.35,-0.56,-0.36,-0.57,0.57,0.91,0.81,0.22,0.21,0.21
70.07,-0.23,-0.43,-0.28,-0.47,0.45,0.84,0.74,0.22,0.17,0.20
70.77,-0.23,-0.41,-0.19,-0.38,0.34,0.77,0.68,0.11,0.14,0.19
71.48,-0.12,-0.29,-0.08,-0.26,0.23,0.70,0.62,0.12,0.15,0.17
72.19,0.05,-0.11,0.04,-0.12,0.14,0.63,0.55,0.19,0.19,0.16
72.91,0.21,0.06,0.17,0.01,0.06,0.56,0.49,0.27,0.22,0.16
73.64,0.23,0.09,0.23,0.09,-0.03,0.49,0.42,0.20,0.20,0.14
74.38,0.23,0.11,0.24,0.11,-0.11,0.42,0.35,0.12,0.13,0.13
75.12,0.24,0.13,0.25,0.14,-0.20,0.34,0.29,0.04,0.05,0.11
75.87,0.28,0.20,0.31,0.22,-0.28,0.27,0.22,-0.00,0.02,0.08
76.63,0.40,0.33,0.38,0.31,-0.36,0.20,0.15,0.04,0.02,0.07
77.40,0.48,0.43,0.48,0.43,-0.43,0.12,0.08,0.05,0.05,0.05
78.17,0.55,0.52,0.58,0.55,-0.50,0.05,0.01,0.05,0.08,0.03
78.95,0.68,0.68,0.65,0.64,-0.58,-0.02,-0.06,0.10,0.07,0.00
79.74,0.69,0.71,0.69,0.70,-0.66,-0.10,-0.14,0.03,0.03,-0.01
80.54,0.69,0.73,0.70,0.73,-0.74,-0.17,-0.21,-0.04,-0.04,-0.03
81.35,0.69,0.75,0.69,0.75,-0.80,-0.25,-0.28,-0.10,-0.10,-0.05
82.16,0.71,0.79,0.74,0.81,-0.85,-0.33,-0.35,-0.14,-0.11,-0.08
82.98,0.79,0.89,0.80,0.89,-0.89,-0.40,-0.43,-0.10,-0.10,-0.10
83.81,0.89,1.00,0.86,0.98,-0.95,-0.48,-0.50,-0.05,-0.08,-0.11
84.65,0.91,1.04,0.90,1.03,-1.01,-0.55,-0.58,-0.10,-0.10,-0.13
85.50,0.91,1.06,0.91,1.05,-1.07,-0.63,-0.66,-0.16,-0.17,-0.14
86.35,0.91,1.07,0.94,1.10,-1.14,-0.71,-0.73,-0.22,-0.20,-0.16
87.22,0.96,1.13,1.01,1.17,-1.19,-0.78,-0.81,-0.23,-0.19,-0.17
88.09,1.14,1.33,1.08,1.26,-1.24,-0.86,-0.89,-0.10,-0.16,-0.18
88.97,1.14,1.34,1.14,1.34,-1.28,-0.94,-0.97,-0.14,-0.15,-0.20
89.86,1.14,1.37,1.16,1.38,-1.34,-1.01,-1.05,-0.19,-0.18,-0.22
90.76,1.14,1.38,1.13,1.37,-1.39,-1.09,-1.13,-0.25,-0.26,-0.24
91.66,1.14,1.40,1.14,1.39,-1.45,-1.16,-1.21,-0.31,-0.31,-0.25
92.58,1.14,1.41,1.18,1.45,-1.50,-1.24,-1.30,-0.36,-0.32,-0.27
93.51,1.24,1.53,1.25,1.53,-1.55,-1.32,-1.38,-0.31,-0.30,-0.29
94.44,1.35,1.66,1.32,1.62,-1.59,-1.39,-1.46,-0.24,-0.28,-0.30
95.39,1.37,1.69,1.37,1.69,-1.64,-1.47,-1.55,-0.27,-0.27,-0.32
96.34,1.37,1.71,1.38,1.72,-1.68,-1.54,-1.63,-0.31,-0.30,-0.34
97.30,1.37,1.73,1.37,1.73,-1.72,-1.61,-1.72,-0.35,-0.35,-0.35
98.28,1.37,1.75,1.37,1.75,-1.76,-1.69,-1.81,-0.38,-0.38,-0.37
99.26,1.37,1.76,1.37,1.77,-1.78,-1.76,-1.89,-0.41,-0.41,-0.39
100.25,1.37,1.79,1.37,1.79,-1.80,-1.83,-1.98,-0.42,-0.42,-0.42
101.25,1.37,1.81,1.37,1.81,-1.81,-1.91,-2.07,-0.44,-0.44,-0.44
102.27,1.37,1.84,1.37,1.84,-1.83,-1.98,-2.15,-0.46,-0.46,-0.46
103.29,1.37,1.87,1.37,1.87,-1.85,-2.05,-2.24,-0.48,-0.48,-0.49
104.32,1.37,1.90,1.37,1.90,-1.89,-2.12,-2.32,-0.52,-0.52,-0.53
105.37,1.37,1.94,1.37,1.94,-1.95,-2.19,-2.41,-0.57,-0.57,-0.57
106.42,1.37,1.98,1.36,1.97,-2.01,-2.26,-2.49,-0.64,-0.65,-0.61
107.48,1.37,2.03,1.37,2.03,-2.08,-2.32,-2.57,-0.71,-0.71,-0.66
108.56,1.37,2.09,1.42,2.13,-2.17,-2.39,-2.65,-0.79,-0.74,-0.71
109.64,1.51,2.28,1.50,2.26,-2.25,-2.46,-2.73,-0.74,-0.75,-0.76
110.74,1.60,2.41,1.57,2.38,-2.34,-2.52,-2.81,-0.73,-0.77,-0.81
111.85,1.60,2.46,1.61,2.47,-2.42,-2.58,-2.88,-0.82,-0.81,-0.86
112.97,1.60,2.52,1.61,2.52,-2.50,-2.65,-2.95,-0.90,-0.89,-0.92
114.10,1.60,2.57,1.60,2.57,-2.57,-2.71,-3.01,-0.97,-0.97,-0.96
115.24,1.60,2.61,1.60,2.62,-2.63,-2.77,-3.07,-1.02,-1.02,-1.01
116.39,1.60,2.66,1.60,2.66,-2.67,-2.82,-3.13,-1.07,-1.07,-1.06
117.55,1.60,2.71,1.60,2.70,-2.71,-2.88,-3.18,-1.11,-1.11,-1.10
118.73,1.60,2.74,1.60,2.74,-2.75,-2.94,-3.23,-1.14,-1.14,-1.14
119.92,1.60,2.78,1.60,2.78,-2.78,-2.99,-3.28,-1.18,-1.18,-1.18
121.12,1.60,2.82,1.60,2.82,-2.81,-3.04,-3.31,-1.21,-1.21,-1.21
122.33,1.60,2.85,1.60,2.85,-2.85,-3.09,-3.34,-1.25,-1.25,-1.25
123.55,1.60,2.88,1.60,2.88,-2.88,-3.14,-3.37,-1.28,-1.28,-1.27
124.79,1.60,2.91,1.60,2.91,-2.91,-3.19,-3.39,-1.31,-1.31,-1.31
126.03,1.60,2.93,1.60,2.93,-2.94,-3.24,-3.41,-1.33,-1.33,-1.33
127.29,1.60,2.96,1.60,2.96,-2.96,-3.28,-3.41,-1.36,-1.36,-1.36
128.57,1.60,2.99,1.60,2.99,-2.99,-3.33,-3.42,-1.39,-1.39,-1.39
129.85,1.60,3.01,1.60,3.01,-3.02,-3.37,-3.42,-1.41,-1.41,-1.41
131.15,1.60,3.04,1.60,3.04,-3.04,-3.41,-3.41,-1.44,-1.44,-1.43
132.46,1.60,3.07,1.60,3.07,-3.07,-3.44,-3.40,-1.47,-1.47,-1.47
133.79,1.60,3.10,1.60,3.10,-3.10,-3.48,-3.38,-1.49,-1.49,-1.50
135.12,1.60,3.12,1.60,3.13,-3.12,-3.51,-3.36,-1.52,-1.52,-1.52
136.48,1.60,3.15,1.60,3.15,-3.15,-3.55,-3.33,-1.55,-1.55,-1.55
137.84,1.60,3.18,1.60,3.18,-3.18,-3.58,-3.30,-1.57,-1.57,-1.58
139.22,1.60,3.20,1.60,3.20,-3.20,-3.61,-3.27,-1.60,-1.60,-1.60
140.61,1.60,3.23,1.60,3.23,-3.23,-3.63,-3.23,-1.63,-1.63,-1.63
142.02,1.60,3.26,1.60,3.26,-3.26,-3.66,-3.19,-1.65,-1.65,-1.66
143.44,1.60,3.28,1.60,3.28,-3.29,-3.68,-3.15,-1.68,-1.68,-1.68
144.87,1.60,3.31,1.60,3.31,-3.32,-3.70,-3.11,-1.72,-1.72,-1.71
146.32,1.60,3.35,1.60,3.35,-3.36,-3.72,-3.07,-1.76,-1.76,-1.75
147.78,1.60,3.38,1.60,3.38,-3.40,-3.74,-3.02,-1.80,-1.80,-1.78
149.26,1.60,3.42,1.60,3.42,-3.44,-3.75,-2.98,-1.84,-1.84,-1.82
150.75,1.60,3.46,1.61,3.47,-3.48,-3.76,-2.93,-1.87,-1.87,-1.86
152.26,1.60,3.51,1.61,3.52,-3.50,-3.77,-2.88,-1.90,-1.89,-1.91
153.78,1.60,3.56,1.58,3.54,-3.52,-3.78,-2.84,-1.91,-1.94,-1.96
155.32,1.55,3.56,1.52,3.53,-3.51,-3.79,-2.79,-1.95,-1.99,-2.01
156.88,1.39,3.46,1.45,3.51,-3.47,-3.79,-2.75,-2.08,-2.02,-2.07
158.44,1.37,3.48,1.37,3.48,-3.42,-3.80,-2.70,-2.05,-2.05,-2.11
160.03,1.31,3.46,1.27,3.42,-3.38,-3.80,-2.66,-2.06,-2.10,-2.15
161.63,1.17,3.36,1.16,3.34,-3.34,-3.80,-2.62,-2.16,-2.18,-2.19
163.24,1.00,3.22,1.02,3.24,-3.32,-3.79,-2.58,-2.32,-2.30,-2.22
164.88,0.91,3.16,0.94,3.19,-3.32,-3.79,-2.54,-2.41,-2.38,-2.25
166.53,0.95,3.22,0.96,3.23,-3.35,-3.78,-2.50,-2.40,-2.39,-2.27
168.19,1.07,3.36,1.06,3.35,-3.39,-3.77,-2.46,-2.32,-2.33,-2.29
169.87,1.19,3.49,1.20,3.49,-3.44,-3.76,-2.43,-2.25,-2.24,-2.30
171.57,1.33,3.63,1.30,3.60,-3.51,-3.75,-2.40,-2.17,-2.20,-2.29
173.29,1.37,3.66,1.36,3.66,-3.57,-3.73,-2.36,-2.20,-2.21,-2.29
175.02,1.37,3.66,1.38,3.67,-3.63,-3.71,-2.34,-2.26,-2.24,-2.29
176.77,1.37,3.65,1.38,3.65,-3.66,-3.70,-2.31,-2.29,-2.29,-2.27
178.54,1.37,3.63,1.37,3.63,-3.67,-3.67,-2.28,-2.29,-2.29,-2.26
180.32,1.37,3.62,1.37,3.62,-3.64,-3.65,-2.26,-2.27,-2.27,-2.24
182.13,1.37,3.60,1.39,3.62,-3.61,-3.63,-2.24,-2.23,-2.22,-2.23
183.95,1.37,3.60,1.37,3.59,-3.56,-3.60,-2.22,-2.19,-2.19,-2.22
185.79,1.37,3.59,1.32,3.53,-3.52,-3.57,-2.20,-2.15,-2.20,-2.22
187.65,1.21,3.42,1.25,3.46,-3.47,-3.54,-2.18,-2.26,-2.23,-2.21
189.52,1.15,3.37,1.19,3.40,-3.42,-3.51,-2.17,-2.26,-2.23,-2.21
191.42,1.14,3.36,1.14,3.36,-3.36,-3.47,-2.16,-2.22,-2.22,-2.22
193.33,1.14,3.37,1.10,3.33,-3.31,-3.43,-2.15,-2.16,-2.20,-2.23
195.27,1.04,3.27,1.04,3.27,-3.26,-3.40,-2.14,-2.22,-2.22,-2.23
197.22,0.94,3.18,0.97,3.21,-3.22,-3.36,-2.13,-2.28,-2.25,-2.23
199.19,0.91,3.16,0.92,3.16,-3.20,-3.31,-2.12,-2.29,-2.28,-2.24
201.18,0.91,3.17,0.90,3.16,-3.19,-3.27,-2.11,-2.27,-2.28,-2.25
203.19,0.91,3.18,0.91,3.17,-3.18,-3.22,-2.11,-2.27,-2.27,-2.27
205.23,0.91,3.19,0.91,3.19,-3.19,-3.17,-2.10,-2.28,-2.28,-2.28
207.28,0.91,3.21,0.91,3.21,-3.21,-3.13,-2.10,-2.29,-2.29,-2.30
209.35,0.91,3.23,0.91,3.22,-3.22,-3.07,-2.10,-2.31,-2.31,-2.31
211.44,0.91,3.24,0.91,3.24,-3.23,-3.02,-2.10,-2.32,-2.32,-2.32
213.56,0.91,3.25,0.92,3.26,-3.24,-2.97,-2.09,-2.33,-2.32,-2.34
215.69,0.91,3.26,0.92,3.27,-3.24,-2.91,-2.09,-2.32,-2.32,-2.35
217.85,0.91,3.28,0.88,3.25,-3.22,-2.85,-2.09,-2.31,-2.34,-2.37
220.03,0.82,3.20,0.82,3.20,-3.20,-2.79,-2.09,-2.38,-2.39,-2.38
222.23,0.72,3.12,0.75,3.14,-3.18,-2.73,-2.08,-2.45,-2.43,-2.40
224.45,0.69,3.09,0.71,3.12,-3.14,-2.66,-2.08,-2.45,-2.43,-2.40
226.70,0.69,3.11,0.68,3.10,-3.10,-2.60,-2.07,-2.41,-2.42,-2.42
228.96,0.69,3.12,0.63,3.06,-3.05,-2.53,-2.07,-2.36,-2.42,-2.43
231.25,0.52,2.97,0.57,3.01,-3.00,-2.46,-2.06,-2.48,-2.43,-2.44
233.57,0.46,2.91,0.49,2.94,-2.94,-2.39,-2.05,-2.47,-2.44,-2.45
235.90,0.46,2.92,0.42,2.89,-2.87,-2.32,-2.04,-2.41,-2.45,-2.46
238.26,0.35,2.82,0.35,2.82,-2.80,-2.24,-2.03,-2.45,-2.45,-2.47
240.64,0.25,2.73,0.23,2.71,-2.71,-2.17,-2.01,-2.46,-2.48,-2.48
243.05,0.07,2.56,0.12,2.61,-2.62,-2.09,-1.99,-2.55,-2.50,-2.48
245.48,0.00,2.49,0.02,2.51,-2.53,-2.01,-1.97,-2.53,-2.50,-2.49
247.93,0.00,2.50,-0.06,2.43,-2.43,-1.93,-1.95,-2.43,-2.50,-2.49
250.41,-0.19,2.31,-0.16,2.34,-2.33,-1.85,-1.93,-2.52,-2.50,-2.50
252.92,-0.27,2.24,-0.27,2.23,-2.23,-1.76,-1.90,-2.50,-2.51,-2.50
255.45,-0.42,2.09,-0.39,2.12,-2.13,-1.68,-1.87,-2.55,-2.52,-2.51
258.00,-0.45,2.07,-0.47,2.04,-2.04,-1.59,-1.84,-2.48,-2.51,-2.51
260.58,-0.59,1.93,-0.59,1.93,-1.93,-1.50,-1.80,-2.52,-2.52,-2.52
263.19,-0.69,1.84,-0.71,1.82,-1.82,-1.42,-1.77,-2.51,-2.53,-2.53
265.82,-0.89,1.65,-0.85,1.69,-1.69,-1.33,-1.73,-2.58,-2.54,-2.54
268.48,-0.96,1.58,-0.96,1.59,-1.56,-1.23,-1.69,-2.52,-2.52,-2.54
271.16,-1.09,1.47,-1.11,1.44,-1.43,-1.14,-1.64,-2.52,-2.54,-2.55
273.87,-1.22,1.34,-1.25,1.31,-1.30,-1.05,-1.60,-2.51,-2.55,-2.56
276.61,-1.48,1.08,-1.43,1.14,-1.16,-0.95,-1.55,-2.64,-2.59,-2.56
279.38,-1.58,1.00,-1.59,0.98,-1.02,-0.86,-1.50,-2.59,-2.61,-2.57
282.17,-1.76,0.82,-1.75,0.82,-0.86,-0.76,-1.45,-2.62,-2.61,-2.58
284.99,-1.87,0.71,-1.87,0.71,-0.69,-0.66,-1.40,-2.55,-2.56,-2.58
287.84,-2.04,0.55,-2.01,0.58,-0.51,-0.56,-1.34,-2.55,-2.52,-2.58
290.72,-2.12,0.47,-2.16,0.42,-0.34,-0.47,-1.29,-2.46,-2.50,-2.59
293.63,-2.37,0.22,-2.39,0.20,-0.18,-0.37,-1.23,-2.55,-2.57,-2.59
296.57,-2.63,-0.03,-2.63,-0.03,-0.03,-0.27,-1.18,-2.66,-2.66,-2.59
299.53,-2.89,-0.29,-2.83,-0.23,0.11,-0.17,-1.12,-2.77,-2.72,-2.60
302.53,-2.96,-0.35,-2.94,-0.33,0.26,-0.07,-1.06,-2.70,-2.68,-2.61
305.55,-2.96,-0.35,-2.99,-0.38,0.40,0.03,-1.00,-2.56,-2.59,-2.61
308.61,-3.02,-0.41,-3.04,-0.42,0.52,0.12,-0.94,-2.49,-2.52,-2.61
311.69,-3.17,-0.54,-3.17,-0.55,0.63,0.22,-0.88,-2.54,-2.54,-2.62
314.81,-3.33,-0.69,-3.35,-0.71,0.71,0.31,-0.82,-2.62,-2.64,-2.64
317.96,-3.55,-0.90,-3.51,-0.85,0.79,0.41,-0.76,-2.75,-2.71,-2.65
321.14,-3.64,-0.97,-3.60,-0.93,0.88,0.50,-0.70,-2.76,-2.73,-2.67
324.35,-3.64,-0.95,-3.67,-0.99,0.96,0.59,-0.64,-2.68,-2.71,-2.68
327.59,-3.68,-0.98,-3.71,-1.01,1.05,0.68,-0.58,-2.63,-2.66,-2.70
330.87,-3.82,-1.11,-3.78,-1.08,1.12,0.77,-0.52,-2.69,-2.66,-2.71
334.18,-3.87,-1.15,-3.89,-1.18,1.19,0.85,-0.46,-2.68,-2.70,-2.72
337.52,-4.00,-1.27,-3.99,-1.26,1.25,0.93,-0.40,-2.74,-2.73,-2.73
340.90,-4.08,-1.35,-4.05,-1.31,1.32,1.01,-0.34,-2.76,-2.73,-2.73
344.30,-4.10,-1.35,-4.12,-1.38,1.38,1.08,-0.28,-2.71,-2.74,-2.74
347.75,-4.16,-1.41,-4.19,-1.45,1.45,1.16,-0.22,-2.71,-2.74,-2.75
351.23,-4.29,-1.54,-4.26,-1.51,1.50,1.22,-0.16,-2.79,-2.76,-2.75
354.74,-4.33,-1.58,-4.31,-1.57,1.54,1.29,-0.09,-2.79,-2.78,-2.75
358.28,-4.33,-1.58,-4.34,-1.59,1.56,1.35,-0.03,-2.76,-2.77,-2.75
361.87,-4.33,-1.59,-4.33,-1.59,1.58,1.40,0.03,-2.74,-2.75,-2.74
365.49,-4.33,-1.59,-4.33,-1.58,1.60,1.45,0.09,-2.73,-2.73,-2.74
369.14,-4.33,-1.58,-4.33,-1.59,1.60,1.50,0.15,-2.73,-2.73,-2.74
372.83,-4.33,-1.58,-4.33,-1.59,1.60,1.54,0.21,-2.73,-2.73,-2.74
376.56,-4.33,-1.59,-4.33,-1.59,1.59,1.57,0.27,-2.73,-2.73,-2.74
380.33,-4.33,-1.59,-4.33,-1.59,1.59,1.60,0.33,-2.73,-2.73,-2.74
384.13,-4.33,-1.59,-4.33,-1.59,1.60,1.63,0.39,-2.73,-2.73,-2.74
387.97,-4.33,-1.59,-4.33,-1.59,1.60,1.65,0.45,-2.72,-2.72,-2.74
391.85,-4.33,-1.59,-4.33,-1.59,1.60,1.66,0.51,-2.72,-2.72,-2.74
395.77,-4.33,-1.59,-4.33,-1.59,1.59,1.67,0.57,-2.74,-2.74,-2.74
399.73,-4.33,-1.60,-4.34,-1.61,1.57,1.67,0.63,-2.76,-2.77,-2.73
403.72,-4.33,-1.60,-4.33,-1.60,1.55,1.67,0.68,-2.78,-2.78,-2.73
407.76,-4.33,-1.59,-4.28,-1.55,1.52,1.67,0.74,-2.81,-2.76,-2.73
411.84,-4.19,-1.45,-4.21,-1.47,1.49,1.66,0.80,-2.70,-2.72,-2.73
415.96,-4.11,-1.37,-4.14,-1.40,1.46,1.64,0.85,-2.65,-2.68,-2.73
420.12,-4.10,-1.36,-4.09,-1.36,1.41,1.62,0.91,-2.69,-2.68,-2.74
424.32,-4.10,-1.36,-4.10,-1.37,1.37,1.60,0.96,-2.73,-2.74,-2.74
428.56,-4.10,-1.36,-4.10,-1.36,1.32,1.57,1.01,-2.78,-2.78,-2.74
432.85,-4.10,-1.36,-4.06,-1.32,1.28,1.54,1.06,-2.82,-2.78,-2.74
437.18,-3.99,-1.25,-3.99,-1.25,1.25,1.51,1.10,-2.74,-2.75,-2.74
441.55,-3.90,-1.15,-3.92,-1.18,1.21,1.47,1.15,-2.69,-2.72,-2.75
445.96,-3.87,-1.12,-3.88,-1.13,1.16,1.43,1.19,-2.71,-2.72,-2.75
450.42,-3.87,-1.12,-3.87,-1.12,1.11,1.39,1.23,-2.76,-2.76,-2.75
454.93,-3.87,-1.12,-3.84,-1.09,1.06,1.34,1.26,-2.81,-2.79,-2.75
459.48,-3.82,-1.06,-3.78,-1.03,1.01,1.29,1.30,-2.80,-2.77,-2.76
464.07,-3.67,-0.92,-3.71,-0.96,0.98,1.24,1.32,-2.69,-2.73,-2.75
468.71,-3.64,-0.89,-3.65,-0.90,0.94,1.19,1.35,-2.70,-2.71,-2.75
473.40,-3.64,-0.89,-3.63,-0.88,0.90,1.14,1.37,-2.74,-2.73,-2.75
