frequency,raw,error,smoothed,error_smoothed,equalization,parametric_eq,fixed_band_eq,equalized_raw,equalized_smoothed,target
20.00,-14.50,-20.37,-14.50,-20.37,6.00,6.04,2.63,-8.50,-8.50,5.87
20.20,-14.39,-20.30,-14.39,-20.29,6.00,6.04,2.71,-8.39,-8.39,5.91
20.40,-14.28,-20.22,-14.28,-20.22,6.00,6.04,2.78,-8.28,-8.28,5.95
20.61,-14.16,-20.13,-14.16,-20.14,6.00,6.04,2.86,-8.16,-8.16,5.96
20.81,-14.05,-20.05,-14.05,-20.06,6.00,6.04,2.94,-8.05,-8.05,6.00
21.02,-13.94,-19.98,-13.93,-19.97,6.00,6.04,3.03,-7.94,-7.93,6.04
21.23,-13.82,-19.88,-13.82,-19.89,6.00,6.04,3.11,-7.82,-7.82,6.06
21.44,-13.70,-19.78,-13.70,-19.79,6.00,6.04,3.20,-7.70,-7.70,6.08
21.66,-13.59,-19.69,-13.59,-19.69,6.00,6.04,3.29,-7.59,-7.59,6.10
21.87,-13.47,-19.58,-13.47,-19.59,6.00,6.04,3.39,-7.47,-7.47,6.11
22.09,-13.35,-19.48,-13.35,-19.48,6.00,6.04,3.48,-7.35,-7.35,6.13
22.31,-13.23,-19.37,-13.23,-19.37,6.00,6.04,3.58,-7.23,-7.23,6.14
22.54,-13.11,-19.25,-13.11,-19.26,6.00,6.04,3.68,-7.11,-7.11,6.14
22.76,-12.99,-19.14,-12.99,-19.14,6.00,6.04,3.79,-6.99,-6.99,6.15
22.99,-12.88,-19.03,-12.88,-19.03,6.00,6.04,3.89,-6.88,-6.88,6.15
23.22,-12.76,-18.92,-12.76,-18.92,6.00,6.04,4.00,-6.76,-6.76,6.16
23.45,-12.64,-18.81,-12.64,-18.81,6.00,6.04,4.11,-6.64,-6.64,6.17
23.69,-12.52,-18.70,-12.52,-18.70,6.00,6.04,4.23,-6.52,-6.52,6.18
23.92,-12.40,-18.60,-12.40,-18.60,6.00,6.04,4.34,-6.40,-6.40,6.20
24.16,-12.28,-18.50,-12.28,-18.49,6.00,6.04,4.46,-6.28,-6.28,6.22
24.40,-12.16,-18.39,-12.16,-18.38,6.00,6.04,4.58,-6.16,-6.16,6.23
24.65,-12.03,-18.26,-12.03,-18.27,6.00,6.05,4.71,-6.03,-6.03,6.23
24.89,-11.91,-18.15,-11.91,-18.15,6.00,6.05,4.83,-5.91,-5.91,6.25
25.14,-11.79,-18.04,-11.79,-18.04,6.00,6.05,4.95,-5.79,-5.79,6.26
25.39,-11.67,-17.93,-11.67,-17.93,6.00,6.05,5.08,-5.67,-5.67,6.27
25.65,-11.55,-17.82,-11.55,-17.82,6.00,6.05,5.21,-5.55,-5.55,6.27
25.91,-11.42,-17.71,-11.42,-17.71,6.00,6.05,5.34,-5.42,-5.42,6.28
26.16,-11.30,-17.59,-11.30,-17.59,6.00,6.05,5.46,-5.30,-5.30,6.29
26.43,-11.18,-17.48,-11.18,-17.48,6.00,6.05,5.59,-5.18,-5.18,6.30
26.69,-11.05,-17.37,-11.05,-17.37,6.00,6.05,5.72,-5.05,-5.05,6.32
26.96,-10.93,-17.26,-10.93,-17.26,6.00,6.05,5.84,-4.93,-4.93,6.33
27.23,-10.81,-17.15,-10.81,-17.15,6.00,6.05,5.96,-4.81,-4.81,6.34
27.50,-10.68,-17.04,-10.68,-17.04,6.00,6.05,6.09,-4.68,-4.68,6.36
27.77,-10.56,-16.92,-10.56,-16.92,6.00,6.05,6.20,-4.56,-4.56,6.36
28.05,-10.44,-16.82,-10.44,-16.81,6.00,6.05,6.32,-4.44,-4.44,6.38
28.33,-10.31,-16.69,-10.31,-16.69,6.00,6.05,6.42,-4.31,-4.31,6.38
28.62,-10.19,-16.59,-10.19,-16.58,6.00,6.05,6.53,-4.19,-4.19,6.39
28.90,-10.06,-16.46,-10.06,-16.47,6.00,6.05,6.62,-4.06,-4.06,6.40
29.19,-9.94,-16.35,-9.94,-16.36,6.00,6.05,6.72,-3.94,-3.94,6.41
29.48,-9.82,-16.25,-9.81,-16.24,6.00,6.05,6.80,-3.82,-3.81,6.43
29.78,-9.69,-16.13,-9.69,-16.13,6.00,6.05,6.87,-3.69,-3.69,6.44
30.08,-9.57,-16.02,-9.58,-16.03,6.00,6.05,6.94,-3.57,-3.58,6.45
30.38,-9.46,-15.92,-9.46,-15.92,6.00,6.05,7.00,-3.46,-3.46,6.46
30.68,-9.35,-15.82,-9.35,-15.81,6.00,6.05,7.04,-3.35,-3.35,6.47
30.99,-9.23,-15.71,-9.23,-15.71,6.00,6.05,7.08,-3.23,-3.23,6.48
31.30,-9.12,-15.61,-9.12,-15.61,6.00,6.05,7.11,-3.12,-3.12,6.48
31.61,-9.00,-15.50,-9.00,-15.50,6.00,6.05,7.13,-3.00,-3.00,6.50
31.93,-8.89,-15.39,-8.89,-15.39,6.00,6.05,7.14,-2.89,-2.89,6.50
32.24,-8.77,-15.28,-8.77,-15.28,6.00,6.05,7.14,-2.77,-2.77,6.51
32.57,-8.64,-15.16,-8.65,-15.16,6.00,6.05,7.13,-2.64,-2.65,6.52
32.89,-8.52,-15.06,-8.52,-15.05,6.00,6.05,7.12,-2.52,-2.52,6.54
33.22,-8.40,-14.93,-8.40,-14.93,6.00,6.05,7.09,-2.40,-2.40,6.53
33.55,-8.27,-14.82,-8.27,-14.82,6.00,6.05,7.06,-2.27,-2.27,6.55
33.89,-8.15,-14.70,-8.15,-14.71,6.00,6.04,7.02,-2.15,-2.15,6.55
34.23,-8.03,-14.60,-8.03,-14.59,6.00,6.04,6.97,-2.03,-2.03,6.57
34.57,-7.90,-14.47,-7.90,-14.47,6.00,6.04,6.92,-1.90,-1.90,6.57
34.92,-7.78,-14.36,-7.78,-14.36,6.00,6.04,6.86,-1.78,-1.78,6.58
35.27,-7.66,-14.24,-7.66,-14.24,6.00,6.04,6.80,-1.66,-1.66,6.58
35.62,-7.54,-14.12,-7.54,-14.12,6.00,6.04,6.74,-1.54,-1.54,6.58
35.97,-7.42,-14.00,-7.42,-14.01,6.00,6.04,6.67,-1.42,-1.42,6.58
36.33,-7.30,-13.89,-7.30,-13.88,6.00,6.04,6.61,-1.30,-1.30,6.60
36.70,-7.17,-13.76,-7.17,-13.76,6.00,6.04,6.54,-1.17,-1.17,6.59
37.06,-7.05,-13.63,-7.05,-13.64,6.00,6.04,6.47,-1.05,-1.05,6.58
37.43,-6.93,-13.52,-6.93,-13.52,6.00,6.03,6.40,-0.93,-0.93,6.59
37.81,-6.82,-13.41,-6.82,-13.40,6.00,6.03,6.34,-0.82,-0.82,6.59
38.19,-6.70,-13.28,-6.70,-13.29,6.00,6.03,6.27,-0.70,-0.70,6.58
38.57,-6.59,-13.18,-6.59,-13.17,6.00,6.03,6.21,-0.59,-0.59,6.59
38.95,-6.47,-13.04,-6.47,-13.05,6.00,6.03,6.14,-0.47,-0.47,6.58
39.34,-6.36,-12.93,-6.36,-12.93,6.00,6.02,6.08,-0.36,-0.36,6.57
39.74,-6.24,-12.80,-6.24,-12.80,6.00,6.02,6.03,-0.24,-0.24,6.56
40.14,-6.12,-12.69,-6.12,-12.68,6.00,6.02,5.97,-0.12,-0.12,6.57
40.54,-6.00,-12.55,-6.00,-12.56,6.00,6.02,5.92,-0.00,0.00,6.55
40.94,-5.88,-12.44,-5.88,-12.44,6.00,6.02,5.87,0.12,0.12,6.56
41.35,-5.76,-12.31,-5.76,-12.32,6.00,6.01,5.83,0.24,0.24,6.55
41.76,-5.65,-12.20,-5.65,-12.20,6.00,6.01,5.79,0.35,0.35,6.55
42.18,-5.53,-12.09,-5.53,-12.08,6.00,6.01,5.75,0.47,0.47,6.56
42.60,-5.41,-11.96,-5.41,-11.96,6.00,6.00,5.72,0.59,0.59,6.55
43.03,-5.29,-11.85,-5.29,-11.85,6.00,6.00,5.69,0.71,0.71,6.56
43.46,-5.18,-11.73,-5.18,-11.73,6.00,6.00,5.67,0.82,0.82,6.55
43.90,-5.07,-11.62,-5.07,-11.61,6.00,5.99,5.65,0.93,0.93,6.55
44.33,-4.95,-11.49,-4.95,-11.49,6.00,5.99,5.64,1.05,1.05,6.54
44.78,-4.83,-11.37,-4.83,-11.37,6.00,5.98,5.63,1.17,1.17,6.54
45.23,-4.71,-11.25,-4.71,-11.25,6.00,5.98,5.62,1.29,1.29,6.54
45.68,-4.59,-11.13,-4.59,-11.13,6.00,5.97,5.62,1.41,1.41,6.54
46.13,-4.47,-11.01,-4.47,-11.02,6.00,5.97,5.62,1.53,1.53,6.54
46.60,-4.36,-10.92,-4.36,-10.90,6.00,5.96,5.62,1.64,1.64,6.56
47.06,-4.24,-10.79,-4.24,-10.80,6.00,5.96,5.63,1.76,1.76,6.55
47.53,-4.13,-10.68,-4.13,-10.69,6.00,5.95,5.65,1.87,1.87,6.55
48.01,-4.01,-10.58,-4.01,-10.57,6.00,5.95,5.67,1.99,1.99,6.57
48.49,-3.89,-10.45,-3.89,-10.45,6.00,5.94,5.69,2.11,2.11,6.56
48.97,-3.78,-10.32,-3.78,-10.32,6.00,5.93,5.71,2.22,2.22,6.54
49.46,-3.66,-10.19,-3.66,-10.20,6.00,5.93,5.74,2.34,2.34,6.53
49.96,-3.55,-10.07,-3.55,-10.07,6.00,5.92,5.77,2.45,2.45,6.52
50.46,-3.43,-9.96,-3.43,-9.95,6.00,5.91,5.80,2.57,2.57,6.53
50.96,-3.31,-9.83,-3.31,-9.83,6.00,5.91,5.84,2.69,2.69,6.52
51.47,-3.19,-9.69,-3.19,-9.70,6.00,5.90,5.88,2.81,2.81,6.50
51.99,-3.07,-9.57,-3.07,-9.57,6.00,5.89,5.92,2.93,2.93,6.50
52.51,-2.95,-9.46,-2.95,-9.45,6.00,5.88,5.96,3.05,3.05,6.50
53.03,-2.83,-9.33,-2.83,-9.33,6.00,5.87,6.00,3.17,3.17,6.50
53.56,-2.72,-9.21,-2.72,-9.20,6.00,5.86,6.04,3.28,3.28,6.49
54.10,-2.61,-9.08,-2.61,-9.08,6.00,5.85,6.08,3.39,3.39,6.47
54.64,-2.50,-8.96,-2.50,-8.95,6.00,5.84,6.12,3.50,3.50,6.46
55.18,-2.38,-8.82,-2.38,-8.83,6.00,5.83,6.17,3.62,3.62,6.44
55.74,-2.27,-8.69,-2.27,-8.70,6.00,5.82,6.20,3.73,3.73,6.42
56.29,-2.16,-8.58,-2.16,-8.57,6.00,5.81,6.24,3.84,3.84,6.42
56.86,-2.05,-8.45,-2.05,-8.45,6.00,5.79,6.27,3.95,3.95,6.40
57.42,-1.93,-8.31,-1.93,-8.32,6.00,5.78,6.30,4.07,4.07,6.38
58.00,-1.82,-8.19,-1.82,-8.18,6.00,5.77,6.33,4.18,4.18,6.37
58.58,-1.70,-8.05,-1.70,-8.05,6.00,5.75,6.35,4.30,4.30,6.35
59.16,-1.58,-7.92,-1.58,-7.92,6.00,5.74,6.37,4.42,4.42,6.34
59.76,-1.45,-7.78,-1.46,-7.78,6.00,5.72,6.38,4.55,4.54,6.33
60.35,-1.34,-7.64,-1.34,-7.64,6.00,5.71,6.39,4.66,4.66,6.30
60.96,-1.23,-7.51,-1.23,-7.50,6.00,5.69,6.39,4.77,4.77,6.28
61.57,-1.11,-7.35,-1.11,-7.36,6.00,5.68,6.38,4.89,4.89,6.24
62.18,-1.00,-7.22,-1.00,-7.21,6.00,5.66,6.37,5.00,5.00,6.22
62.80,-0.89,-7.08,-0.89,-7.08,6.00,5.64,6.35,5.11,5.11,6.19
63.43,-0.78,-6.94,-0.79,-6.95,6.00,5.62,6.33,5.22,5.21,6.16
64.07,-0.69,-6.83,-0.68,-6.82,6.00,5.61,6.29,5.31,5.32,6.14
64.71,-0.58,-6.70,-0.58,-6.69,6.01,5.59,6.25,5.43,5.43,6.12
65.35,-0.47,-6.56,-0.47,-6.57,6.02,5.57,6.21,5.55,5.54,6.09
66.01,-0.37,-6.44,-0.37,-6.44,6.02,5.55,6.16,5.65,5.65,6.07
66.67,-0.28,-6.32,-0.28,-6.32,6.01,5.52,6.10,5.73,5.73,6.04
67.33,-0.19,-6.20,-0.19,-6.21,5.99,5.50,6.04,5.80,5.80,6.01
68.01,-0.10,-6.09,-0.10,-6.09,5.96,5.48,5.97,5.86,5.86,5.99
68.69,-0.01,-5.97,-0.01,-5.97,5.91,5.46,5.90,5.90,5.90,5.96
69.37,0.08,-5.86,0.08,-5.86,5.84,5.43,5.83,5.92,5.92,5.94
70.07,0.17,-5.75,0.17,-5.75,5.76,5.41,5.75,5.93,5.93,5.92
70.77,0.25,-5.65,0.25,-5.65,5.67,5.38,5.67,5.92,5.92,5.90
71.48,0.33,-5.54,0.33,-5.55,5.57,5.36,5.59,5.90,5.89,5.87
72.19,0.40,-5.45,0.40,-5.45,5.46,5.33,5.51,5.86,5.86,5.85
72.91,0.48,-5.35,0.48,-5.35,5.35,5.30,5.42,5.83,5.83,5.83
73.64,0.55,-5.25,0.55,-5.25,5.25,5.28,5.33,5.80,5.80,5.80
74.38,0.63,-5.16,0.63,-5.16,5.16,5.25,5.25,5.79,5.79,5.79
75.12,0.71,-5.06,0.71,-5.07,5.07,5.22,5.16,5.78,5.78,5.77
75.87,0.78,-4.98,0.78,-4.98,4.99,5.19,5.08,5.77,5.77,5.77
76.63,0.85,-4.90,0.85,-4.90,4.91,5.16,4.99,5.76,5.75,5.75
77.40,0.91,-4.83,0.91,-4.83,4.83,5.13,4.91,5.74,5.74,5.74
78.17,0.96,-4.76,0.97,-4.76,4.76,5.09,4.83,5.72,5.73,5.72
78.95,1.03,-4.69,1.02,-4.70,4.69,5.06,4.75,5.72,5.72,5.72
79.74,1.08,-4.64,1.08,-4.64,4.63,5.03,4.67,5.71,5.71,5.72
80.54,1.13,-4.58,1.13,-4.57,4.57,4.99,4.59,5.70,5.70,5.71
81.35,1.18,-4.52,1.18,-4.51,4.51,4.96,4.52,5.69,5.69,5.70
82.16,1.24,-4.44,1.24,-4.45,4.45,4.93,4.45,5.69,5.69,5.68
82.98,1.29,-4.39,1.29,-4.39,4.39,4.89,4.38,5.68,5.68,5.68
83.81,1.33,-4.33,1.33,-4.34,4.34,4.85,4.31,5.67,5.67,5.66
84.65,1.37,-4.29,1.37,-4.29,4.29,4.82,4.25,5.66,5.66,5.66
85.50,1.41,-4.25,1.41,-4.24,4.24,4.78,4.19,5.65,5.65,5.66
86.35,1.45,-4.19,1.45,-4.20,4.20,4.74,4.13,5.65,5.64,5.64
87.22,1.48,-4.16,1.48,-4.16,4.16,4.71,4.08,5.63,5.64,5.64
88.09,1.51,-4.12,1.51,-4.12,4.12,4.67,4.03,5.63,5.63,5.63
88.97,1.55,-4.08,1.54,-4.08,4.08,4.63,3.98,5.63,5.62,5.63
89.86,1.57,-4.05,1.57,-4.05,4.05,4.59,3.94,5.62,5.62,5.62
90.76,1.59,-4.01,1.59,-4.02,4.02,4.55,3.89,5.61,5.61,5.60
91.66,1.61,-4.00,1.61,-3.99,3.99,4.51,3.85,5.60,5.60,5.61
92.58,1.63,-3.96,1.63,-3.96,3.96,4.47,3.82,5.59,5.59,5.59
93.51,1.65,-3.94,1.65,-3.95,3.94,4.43,3.78,5.59,5.59,5.59
94.44,1.66,-3.93,1.66,-3.92,3.93,4.39,3.75,5.59,5.59,5.59
95.39,1.67,-3.91,1.67,-3.91,3.91,4.35,3.73,5.58,5.58,5.58
96.34,1.67,-3.88,1.67,-3.89,3.90,4.31,3.70,5.57,5.57,5.55
97.30,1.66,-3.89,1.66,-3.89,3.89,4.26,3.68,5.55,5.55,5.55
98.28,1.65,-3.89,1.65,-3.88,3.88,4.22,3.66,5.53,5.53,5.54
99.26,1.64,-3.88,1.64,-3.88,3.87,4.18,3.64,5.51,5.51,5.52
100.25,1.64,-3.87,1.64,-3.87,3.86,4.14,3.62,5.50,5.50,5.51
101.25,1.64,-3.85,1.64,-3.85,3.85,4.10,3.61,5.49,5.49,5.49
102.27,1.64,-3.84,1.64,-3.83,3.84,4.06,3.60,5.48,5.48,5.48
103.29,1.64,-3.81,1.64,-3.81,3.82,4.02,3.59,5.46,5.46,5.45
104.32,1.64,-3.80,1.64,-3.79,3.80,3.98,3.58,5.44,5.44,5.44
105.37,1.64,-3.77,1.64,-3.77,3.77,3.94,3.57,5.41,5.41,5.41
106.42,1.64,-3.75,1.64,-3.75,3.75,3.90,3.56,5.39,5.39,5.39
107.48,1.64,-3.72,1.64,-3.72,3.72,3.86,3.56,5.36,5.36,5.36
108.56,1.64,-3.69,1.64,-3.69,3.69,3.82,3.55,5.33,5.33,5.33
109.64,1.64,-3.66,1.64,-3.66,3.66,3.78,3.55,5.30,5.29,5.30
110.74,1.64,-3.62,1.64,-3.62,3.62,3.74,3.55,5.26,5.26,5.26
111.85,1.64,-3.59,1.64,-3.58,3.58,3.70,3.54,5.22,5.22,5.23
112.97,1.65,-3.53,1.65,-3.54,3.53,3.67,3.54,5.18,5.18,5.18
114.10,1.65,-3.50,1.65,-3.49,3.49,3.63,3.54,5.14,5.14,5.15
115.24,1.66,-3.45,1.66,-3.45,3.45,3.59,3.53,5.11,5.11,5.11
116.39,1.66,-3.40,1.66,-3.40,3.41,3.56,3.52,5.07,5.07,5.06
117.55,1.66,-3.37,1.66,-3.36,3.37,3.52,3.52,5.03,5.03,5.03
118.73,1.65,-3.33,1.65,-3.33,3.34,3.49,3.51,4.99,4.99,4.98
119.92,1.64,-3.30,1.64,-3.31,3.31,3.46,3.50,4.95,4.95,4.94
121.12,1.61,-3.30,1.62,-3.29,3.30,3.42,3.49,4.91,4.91,4.91
122.33,1.60,-3.27,1.60,-3.28,3.28,3.39,3.48,4.88,4.88,4.87
123.55,1.57,-3.28,1.56,-3.28,3.28,3.36,3.47,4.85,4.84,4.85
124.79,1.53,-3.28,1.53,-3.28,3.27,3.33,3.45,4.80,4.81,4.81
126.03,1.49,-3.29,1.50,-3.28,3.27,3.30,3.43,4.76,4.77,4.78
127.29,1.47,-3.27,1.47,-3.28,3.28,3.28,3.41,4.75,4.74,4.74
128.57,1.44,-3.26,1.43,-3.28,3.28,3.25,3.39,4.72,4.71,4.70
129.85,1.39,-3.29,1.40,-3.28,3.28,3.23,3.37,4.67,4.68,4.68
131.15,1.36,-3.29,1.37,-3.28,3.28,3.20,3.34,4.64,4.65,4.65
132.46,1.35,-3.27,1.34,-3.28,3.27,3.18,3.32,4.62,4.61,4.62
133.79,1.32,-3.28,1.32,-3.27,3.26,3.16,3.29,4.58,4.59,4.60
135.12,1.31,-3.26,1.31,-3.26,3.25,3.14,3.26,4.56,4.56,4.57
136.48,1.31,-3.24,1.31,-3.24,3.23,3.12,3.23,4.54,4.54,4.55
137.84,1.32,-3.21,1.32,-3.20,3.20,3.11,3.20,4.52,4.52,4.53
139.22,1.33,-3.16,1.33,-3.17,3.18,3.09,3.17,4.51,4.51,4.49
140.61,1.33,-3.14,1.33,-3.15,3.16,3.08,3.14,4.49,4.49,4.47
142.02,1.33,-3.14,1.33,-3.13,3.14,3.06,3.11,4.47,4.47,4.47
143.44,1.32,-3.12,1.32,-3.12,3.13,3.05,3.07,4.45,4.44,4.44
144.87,1.29,-3.12,1.30,-3.12,3.12,3.04,3.04,4.41,4.42,4.41
146.32,1.27,-3.11,1.27,-3.12,3.12,3.03,3.01,4.39,4.39,4.38
147.78,1.24,-3.13,1.24,-3.13,3.12,3.02,2.98,4.36,4.36,4.37
149.26,1.21,-3.13,1.21,-3.13,3.13,3.01,2.95,4.34,4.34,4.34
150.75,1.17,-3.14,1.17,-3.14,3.14,3.00,2.91,4.31,4.31,4.31
152.26,1.14,-3.13,1.14,-3.14,3.15,2.99,2.88,4.29,4.28,4.27
153.78,1.10,-3.15,1.10,-3.15,3.15,2.98,2.86,4.25,4.25,4.25
155.32,1.07,-3.15,1.07,-3.15,3.15,2.97,2.83,4.22,4.22,4.22
156.88,1.03,-3.16,1.04,-3.16,3.14,2.96,2.80,4.17,4.18,4.19
158.44,1.02,-3.14,1.02,-3.14,3.13,2.95,2.78,4.15,4.14,4.16
160.03,1.00,-3.12,1.00,-3.12,3.11,2.94,2.75,4.11,4.11,4.12
161.63,1.00,-3.09,1.00,-3.09,3.09,2.93,2.73,4.09,4.09,4.09
163.24,1.00,-3.05,1.00,-3.06,3.06,2.91,2.71,4.06,4.06,4.05
164.88,1.00,-3.03,1.00,-3.03,3.04,2.90,2.69,4.04,4.03,4.03
166.53,0.99,-3.00,0.99,-3.00,3.01,2.89,2.67,4.00,4.00,3.99
168.19,0.99,-2.97,0.99,-2.98,2.98,2.87,2.66,3.97,3.97,3.96
169.87,0.97,-2.95,0.97,-2.95,2.96,2.86,2.64,3.93,3.93,3.92
171.57,0.95,-2.94,0.95,-2.94,2.94,2.84,2.63,3.89,3.89,3.89
173.29,0.92,-2.92,0.92,-2.92,2.92,2.83,2.62,3.84,3.84,3.84
175.02,0.89,-2.91,0.89,-2.91,2.90,2.81,2.61,3.79,3.79,3.80
176.77,0.86,-2.90,0.86,-2.89,2.89,2.80,2.61,3.75,3.75,3.76
178.54,0.84,-2.86,0.84,-2.87,2.87,2.79,2.60,3.71,3.71,3.70
180.32,0.80,-2.86,0.80,-2.85,2.86,2.77,2.60,3.66,3.66,3.66
182.13,0.77,-2.84,0.76,-2.85,2.85,2.76,2.60,3.62,3.62,3.61
183.95,0.71,-2.85,0.72,-2.84,2.85,2.75,2.60,3.56,3.56,3.56
185.79,0.67,-2.84,0.67,-2.84,2.84,2.75,2.60,3.51,3.51,3.51
187.65,0.63,-2.83,0.62,-2.84,2.83,2.74,2.61,3.46,3.46,3.46
189.52,0.58,-2.84,0.58,-2.83,2.83,2.73,2.62,3.41,3.41,3.42
191.42,0.54,-2.83,0.54,-2.83,2.82,2.73,2.62,3.36,3.36,3.37
193.33,0.51,-2.82,0.51,-2.82,2.81,2.72,2.64,3.32,3.32,3.33
195.27,0.49,-2.80,0.49,-2.80,2.80,2.72,2.65,3.29,3.29,3.29
197.22,0.46,-2.78,0.46,-2.78,2.79,2.71,2.66,3.25,3.25,3.24
199.19,0.43,-2.76,0.43,-2.76,2.77,2.71,2.67,3.20,3.20,3.19
201.18,0.40,-2.75,0.40,-2.74,2.75,2.71,2.69,3.15,3.16,3.15
203.19,0.38,-2.73,0.38,-2.74,2.73,2.71,2.71,3.11,3.11,3.11
205.23,0.36,-2.71,0.36,-2.72,2.70,2.71,2.72,3.06,3.06,3.07
207.28,0.34,-2.71,0.35,-2.69,2.67,2.72,2.74,3.01,3.02,3.05
209.35,0.35,-2.65,0.35,-2.65,2.64,2.72,2.76,2.99,2.98,3.00
211.44,0.35,-2.60,0.35,-2.61,2.61,2.72,2.78,2.96,2.95,2.95
213.56,0.35,-2.57,0.35,-2.57,2.57,2.73,2.80,2.92,2.92,2.92
215.69,0.35,-2.54,0.35,-2.53,2.54,2.73,2.82,2.89,2.89,2.89
217.85,0.34,-2.51,0.34,-2.51,2.52,2.74,2.84,2.86,2.86,2.85
220.03,0.33,-2.48,0.33,-2.49,2.50,2.74,2.86,2.83,2.83,2.81
222.23,0.30,-2.49,0.30,-2.49,2.50,2.75,2.88,2.80,2.80,2.79
224.45,0.27,-2.50,0.27,-2.50,2.50,2.76,2.90,2.77,2.77,2.77
226.70,0.23,-2.52,0.23,-2.52,2.51,2.76,2.92,2.74,2.74,2.75
228.96,0.19,-2.53,0.20,-2.53,2.53,2.77,2.94,2.72,2.73,2.72
231.25,0.17,-2.55,0.16,-2.55,2.55,2.78,2.96,2.72,2.71,2.72
233.57,0.13,-2.57,0.13,-2.57,2.57,2.79,2.97,2.70,2.70,2.70
235.90,0.09,-2.60,0.10,-2.59,2.59,2.80,2.98,2.68,2.69,2.69
238.26,0.07,-2.61,0.07,-2.62,2.62,2.81,3.00,2.69,2.68,2.68
240.64,0.04,-2.64,0.04,-2.64,2.63,2.82,3.01,2.67,2.68,2.68
243.05,0.03,-2.66,0.03,-2.66,2.65,2.83,3.01,2.68,2.68,2.69
245.48,0.01,-2.67,0.01,-2.67,2.67,2.84,3.02,2.68,2.68,2.68
247.93,-0.00,-2.69,0.00,-2.68,2.68,2.85,3.02,2.68,2.68,2.69
250.41,0.00,-2.68,0.00,-2.69,2.69,2.86,3.03,2.69,2.69,2.68
252.92,0.01,-2.70,0.01,-2.69,2.69,2.87,3.03,2.70,2.70,2.71
255.45,0.02,-2.70,0.02,-2.70,2.70,2.88,3.02,2.72,2.72,2.72
258.00,0.02,-2.71,0.02,-2.71,2.71,2.90,3.02,2.73,2.73,2.73
260.58,0.02,-2.71,0.02,-2.71,2.72,2.91,3.01,2.74,2.74,2.73
263.19,0.02,-2.73,0.02,-2.72,2.73,2.92,3.00,2.75,2.75,2.75
265.82,0.02,-2.73,0.02,-2.74,2.74,2.93,2.99,2.76,2.76,2.75
268.48,0.02,-2.76,0.02,-2.76,2.75,2.95,2.98,2.77,2.77,2.78
271.16,0.02,-2.78,0.02,-2.77,2.76,2.96,2.97,2.78,2.78,2.80
273.87,0.02,-2.78,0.02,-2.78,2.77,2.97,2.95,2.79,2.79,2.80
276.61,0.03,-2.79,0.03,-2.78,2.78,2.98,2.94,2.81,2.81,2.82
279.38,0.04,-2.79,0.04,-2.79,2.79,3.00,2.92,2.83,2.83,2.83
282.17,0.05,-2.79,0.05,-2.80,2.81,3.01,2.91,2.86,2.85,2.84
284.99,0.04,-2.82,0.04,-2.81,2.82,3.02,2.89,2.86,2.87,2.86
287.84,0.03,-2.84,0.03,-2.84,2.85,3.04,2.87,2.88,2.88,2.87
290.72,0.01,-2.87,0.01,-2.87,2.87,3.05,2.85,2.88,2.88,2.88
293.63,-0.01,-2.90,-0.01,-2.91,2.90,3.06,2.84,2.89,2.89,2.89
296.57,-0.04,-2.95,-0.04,-2.94,2.94,3.08,2.82,2.90,2.90,2.91
299.53,-0.07,-2.98,-0.07,-2.98,2.98,3.09,2.80,2.91,2.92,2.91
302.53,-0.10,-3.02,-0.10,-3.03,3.03,3.10,2.79,2.93,2.93,2.92
305.55,-0.13,-3.07,-0.13,-3.07,3.07,3.12,2.77,2.94,2.94,2.94
308.61,-0.17,-3.12,-0.17,-3.12,3.12,3.13,2.76,2.95,2.95,2.95
311.69,-0.20,-3.17,-0.20,-3.17,3.16,3.14,2.74,2.96,2.97,2.97
314.81,-0.23,-3.21,-0.23,-3.21,3.21,3.16,2.73,2.98,2.98,2.98
317.96,-0.25,-3.24,-0.26,-3.25,3.24,3.17,2.72,2.99,2.99,2.99
321.14,-0.28,-3.28,-0.28,-3.28,3.28,3.18,2.71,3.00,2.99,3.00
324.35,-0.31,-3.32,-0.30,-3.31,3.30,3.20,2.71,2.99,3.00,3.01
327.59,-0.32,-3.34,-0.32,-3.34,3.32,3.21,2.70,3.00,3.01,3.02
330.87,-0.32,-3.34,-0.32,-3.34,3.34,3.22,2.70,3.02,3.02,3.02
334.18,-0.32,-3.35,-0.32,-3.35,3.35,3.23,2.70,3.03,3.03,3.03
337.52,-0.31,-3.34,-0.31,-3.35,3.35,3.25,2.70,3.04,3.04,3.03
340.90,-0.31,-3.36,-0.31,-3.35,3.36,3.26,2.70,3.05,3.05,3.05
344.30,-0.30,-3.35,-0.30,-3.35,3.36,3.27,2.70,3.06,3.05,3.05
347.75,-0.30,-3.36,-0.30,-3.35,3.36,3.28,2.71,3.06,3.06,3.06
351.23,-0.30,-3.35,-0.30,-3.35,3.36,3.29,2.72,3.06,3.06,3.05
354.74,-0.30,-3.35,-0.30,-3.36,3.36,3.31,2.73,3.06,3.06,3.05
358.28,-0.30,-3.36,-0.30,-3.36,3.36,3.32,2.74,3.06,3.06,3.06
361.87,-0.30,-3.36,-0.30,-3.36,3.36,3.33,2.75,3.06,3.06,3.06
365.49,-0.30,-3.36,-0.30,-3.36,3.35,3.34,2.77,3.05,3.05,3.06
369.14,-0.30,-3.35,-0.30,-3.35,3.35,3.35,2.79,3.05,3.05,3.05
372.83,-0.30,-3.35,-0.30,-3.35,3.35,3.36,2.81,3.05,3.05,3.05
376.56,-0.30,-3.34,-0.30,-3.35,3.35,3.37,2.83,3.05,3.05,3.04
380.33,-0.30,-3.35,-0.30,-3.35,3.35,3.38,2.86,3.05,3.05,3.05
384.13,-0.30,-3.34,-0.30,-3.34,3.34,3.39,2.88,3.04,3.04,3.04
387.97,-0.30,-3.34,-0.30,-3.34,3.34,3.40,2.91,3.04,3.04,3.04
391.85,-0.30,-3.33,-0.30,-3.34,3.34,3.41,2.94,3.04,3.04,3.03
395.77,-0.30,-3.34,-0.30,-3.33,3.34,3.42,2.97,3.04,3.04,3.04
399.73,-0.30,-3.33,-0.30,-3.33,3.33,3.43,3.00,3.03,3.03,3.03
403.72,-0.30,-3.33,-0.30,-3.33,3.33,3.44,3.04,3.03,3.03,3.03
407.76,-0.30,-3.33,-0.30,-3.33,3.33,3.45,3.07,3.03,3.03,3.03
411.84,-0.30,-3.34,-0.30,-3.33,3.33,3.46,3.11,3.03,3.03,3.04
415.96,-0.30,-3.34,-0.30,-3.34,3.33,3.46,3.14,3.03,3.03,3.04
420.12,-0.30,-3.33,-0.30,-3.34,3.33,3.47,3.18,3.03,3.03,3.03
424.32,-0.30,-3.33,-0.30,-3.33,3.33,3.48,3.22,3.03,3.03,3.03
428.56,-0.30,-3.32,-0.30,-3.33,3.33,3.49,3.25,3.03,3.03,3.02
432.85,-0.30,-3.32,-0.30,-3.32,3.33,3.49,3.29,3.03,3.03,3.02
437.18,-0.30,-3.32,-0.30,-3.33,3.33,3.50,3.33,3.03,3.03,3.02
441.55,-0.30,-3.33,-0.30,-3.33,3.33,3.51,3.36,3.03,3.03,3.03
445.96,-0.30,-3.33,-0.30,-3.33,3.33,3.51,3.40,3.03,3.03,3.03
450.42,-0.30,-3.32,-0.30,-3.33,3.33,3.52,3.43,3.03,3.03,3.02
454.93,-0.30,-3.33,-0.30,-3.33,3.33,3.52,3.46,3.03,3.03,3.03
459.48,-0.30,-3.33,-0.30,-3.33,3.33,3.53,3.49,3.03,3.03,3.03
464.07,-0.30,-3.33,-0.30,-3.33,3.33,3.54,3.52,3.03,3.03,3.03
468.71,-0.30,-3.34,-0.30,-3.33,3.33,3.54,3.54,3.03,3.03,3.04
473.40,-0.30,-3.33,-0.30,-3.33,3.33,3.54,3.57,3.03,3.03,3.03
478.13,-0.30,-3.34,-0.30,-3.33,3.34,3.55,3.59,3.04,3.04,3.04
482.91,-0.30,-3.34,-0.30,-3.34,3.34,3.55,3.60,3.04,3.04,3.04
487.74,-0.30,-3.34,-0.30,-3.34,3.34,3.56,3.62,3.04,3.04,3.04
492.62,-0.30,-3.35,-0.30,-3.34,3.34,3.56,3.63,3.04,3.04,3.05
497.55,-0.30,-3.34,-0.30,-3.34,3.34,3.56,3.63,3.04,3.04,3.04
502.52,-0.30,-3.35,-0.30,-3.34,3.34,3.56,3.64,3.04,3.04,3.05
507.55,-0.30,-3.33,-0.30,-3.34,3.34,3.57,3.64,3.04,3.04,3.03
