frequency,raw,error,smoothed,error_smoothed,equalization,parametric_eq,fixed_band_eq,equalized_raw,equalized_smoothed,target
20.00,7.14,0.48,7.14,0.48,-0.48,-1.16,-0.64,6.66,6.66,6.65
20.20,7.19,0.56,7.19,0.56,-0.56,-1.16,-0.66,6.63,6.63,6.62
20.40,7.24,0.63,7.23,0.63,-0.63,-1.17,-0.68,6.61,6.60,6.60
20.61,7.28,0.69,7.28,0.70,-0.70,-1.17,-0.70,6.58,6.58,6.58
20.81,7.32,0.75,7.32,0.75,-0.76,-1.18,-0.72,6.56,6.56,6.56
21.02,7.36,0.81,7.35,0.81,-0.82,-1.18,-0.74,6.54,6.54,6.54
21.23,7.39,0.86,7.39,0.87,-0.87,-1.18,-0.76,6.52,6.52,6.52
21.44,7.42,0.92,7.42,0.92,-0.92,-1.19,-0.78,6.50,6.50,6.50
21.66,7.45,0.96,7.44,0.96,-0.96,-1.19,-0.80,6.48,6.48,6.48
21.87,7.47,1.00,7.47,1.00,-1.00,-1.19,-0.82,6.47,6.47,6.47
22.09,7.49,1.04,7.49,1.04,-1.03,-1.20,-0.85,6.45,6.46,6.45
22.31,7.51,1.07,7.50,1.06,-1.06,-1.20,-0.87,6.45,6.44,6.44
22.54,7.52,1.09,7.51,1.09,-1.08,-1.21,-0.90,6.44,6.43,6.43
22.76,7.52,1.10,7.52,1.10,-1.10,-1.21,-0.92,6.42,6.42,6.42
22.99,7.52,1.11,7.51,1.11,-1.11,-1.21,-0.95,6.41,6.41,6.41
23.22,7.51,1.11,7.51,1.11,-1.11,-1.22,-0.98,6.39,6.39,6.40
23.45,7.50,1.11,7.50,1.11,-1.12,-1.22,-1.00,6.38,6.38,6.39
23.69,7.50,1.12,7.50,1.12,-1.12,-1.23,-1.03,6.38,6.38,6.38
23.92,7.50,1.12,7.49,1.12,-1.12,-1.23,-1.06,6.38,6.37,6.37
24.16,7.49,1.12,7.49,1.12,-1.12,-1.24,-1.09,6.37,6.37,6.36
24.40,7.49,1.12,7.48,1.12,-1.12,-1.24,-1.12,6.36,6.36,6.36
24.65,7.48,1.12,7.48,1.12,-1.13,-1.25,-1.15,6.35,6.35,6.35
24.89,7.48,1.13,7.48,1.13,-1.13,-1.25,-1.18,6.34,6.34,6.35
25.14,7.48,1.14,7.48,1.14,-1.14,-1.26,-1.21,6.33,6.33,6.34
25.39,7.49,1.16,7.49,1.15,-1.16,-1.26,-1.24,6.33,6.33,6.33
25.65,7.50,1.17,7.50,1.17,-1.17,-1.27,-1.27,6.32,6.32,6.33
25.91,7.52,1.20,7.52,1.20,-1.20,-1.27,-1.30,6.32,6.32,6.32
26.16,7.54,1.22,7.54,1.22,-1.23,-1.28,-1.33,6.31,6.31,6.32
26.43,7.57,1.25,7.57,1.25,-1.26,-1.28,-1.36,6.31,6.31,6.31
26.69,7.60,1.29,7.60,1.29,-1.29,-1.29,-1.39,6.31,6.31,6.30
26.96,7.63,1.32,7.63,1.33,-1.33,-1.29,-1.42,6.30,6.30,6.30
27.23,7.66,1.37,7.66,1.36,-1.36,-1.30,-1.45,6.29,6.29,6.29
27.50,7.69,1.40,7.69,1.40,-1.40,-1.31,-1.48,6.29,6.29,6.29
27.77,7.72,1.43,7.72,1.43,-1.43,-1.31,-1.51,6.28,6.28,6.29
28.05,7.75,1.47,7.75,1.47,-1.47,-1.32,-1.53,6.28,6.28,6.28
28.33,7.78,1.50,7.77,1.50,-1.50,-1.33,-1.56,6.28,6.28,6.27
28.62,7.80,1.52,7.80,1.53,-1.52,-1.33,-1.59,6.27,6.27,6.27
28.90,7.82,1.55,7.82,1.55,-1.54,-1.34,-1.61,6.27,6.27,6.26
29.19,7.83,1.57,7.83,1.57,-1.56,-1.34,-1.63,6.27,6.27,6.26
29.48,7.84,1.58,7.84,1.58,-1.57,-1.35,-1.65,6.26,6.26,6.26
29.78,7.84,1.58,7.84,1.58,-1.58,-1.36,-1.67,6.26,6.26,6.26
30.08,7.84,1.58,7.83,1.58,-1.58,-1.37,-1.69,6.25,6.25,6.25
30.38,7.83,1.58,7.83,1.58,-1.58,-1.37,-1.71,6.24,6.24,6.24
30.68,7.83,1.59,7.82,1.58,-1.59,-1.38,-1.72,6.24,6.24,6.24
30.99,7.82,1.58,7.82,1.58,-1.59,-1.39,-1.73,6.23,6.23,6.24
31.30,7.82,1.58,7.82,1.58,-1.59,-1.39,-1.74,6.23,6.23,6.24
31.61,7.82,1.59,7.82,1.59,-1.59,-1.40,-1.75,6.23,6.23,6.22
31.93,7.82,1.59,7.82,1.59,-1.59,-1.41,-1.76,6.22,6.22,6.22
32.24,7.82,1.60,7.82,1.60,-1.60,-1.42,-1.76,6.22,6.22,6.22
32.57,7.82,1.61,7.82,1.60,-1.60,-1.43,-1.77,6.21,6.21,6.21
32.89,7.82,1.61,7.82,1.61,-1.61,-1.43,-1.77,6.21,6.21,6.20
33.22,7.82,1.61,7.82,1.62,-1.62,-1.44,-1.77,6.20,6.20,6.20
33.55,7.82,1.63,7.82,1.62,-1.62,-1.45,-1.77,6.19,6.19,6.19
33.89,7.82,1.63,7.82,1.63,-1.63,-1.46,-1.76,6.19,6.19,6.19
34.23,7.82,1.63,7.82,1.64,-1.64,-1.47,-1.76,6.18,6.18,6.18
34.57,7.82,1.65,7.82,1.64,-1.64,-1.48,-1.75,6.17,6.17,6.17
34.92,7.82,1.65,7.82,1.65,-1.65,-1.49,-1.75,6.17,6.17,6.17
35.27,7.82,1.65,7.82,1.66,-1.66,-1.49,-1.74,6.16,6.16,6.16
35.62,7.82,1.67,7.82,1.66,-1.66,-1.50,-1.73,6.15,6.15,6.15
35.97,7.82,1.67,7.82,1.67,-1.67,-1.51,-1.73,6.15,6.15,6.15
36.33,7.82,1.67,7.82,1.67,-1.67,-1.52,-1.72,6.14,6.14,6.14
36.70,7.82,1.68,7.82,1.68,-1.68,-1.53,-1.71,6.14,6.14,6.14
37.06,7.82,1.68,7.82,1.69,-1.69,-1.54,-1.70,6.13,6.13,6.13
37.43,7.82,1.70,7.82,1.69,-1.69,-1.55,-1.69,6.12,6.12,6.12
37.81,7.82,1.70,7.82,1.70,-1.70,-1.56,-1.69,6.12,6.12,6.12
38.19,7.82,1.70,7.82,1.71,-1.71,-1.57,-1.68,6.11,6.11,6.11
38.57,7.82,1.72,7.82,1.72,-1.72,-1.58,-1.67,6.10,6.10,6.10
38.95,7.82,1.72,7.82,1.73,-1.73,-1.59,-1.66,6.09,6.09,6.09
39.34,7.82,1.74,7.82,1.74,-1.74,-1.61,-1.66,6.08,6.08,6.08
39.74,7.82,1.74,7.82,1.75,-1.75,-1.62,-1.65,6.07,6.07,6.07
40.14,7.82,1.76,7.82,1.76,-1.76,-1.63,-1.65,6.06,6.06,6.06
40.54,7.82,1.77,7.82,1.77,-1.76,-1.64,-1.65,6.05,6.05,6.05
40.94,7.82,1.77,7.82,1.77,-1.77,-1.65,-1.64,6.04,6.04,6.04
41.35,7.82,1.78,7.82,1.78,-1.78,-1.66,-1.64,6.04,6.04,6.04
41.76,7.82,1.78,7.82,1.78,-1.78,-1.67,-1.64,6.03,6.03,6.03
42.18,7.82,1.79,7.82,1.79,-1.79,-1.69,-1.64,6.03,6.03,6.03
42.60,7.82,1.80,7.82,1.79,-1.79,-1.70,-1.64,6.02,6.02,6.02
43.03,7.82,1.79,7.82,1.80,-1.80,-1.71,-1.65,6.02,6.02,6.02
43.46,7.82,1.80,7.82,1.80,-1.80,-1.72,-1.65,6.01,6.01,6.01
43.90,7.82,1.81,7.82,1.81,-1.81,-1.74,-1.66,6.01,6.01,6.01
44.33,7.82,1.82,7.82,1.82,-1.82,-1.75,-1.66,6.00,6.00,6.00
44.78,7.82,1.82,7.82,1.82,-1.82,-1.76,-1.67,5.99,5.99,5.99
45.23,7.82,1.83,7.82,1.83,-1.83,-1.78,-1.68,5.98,5.98,5.98
45.68,7.82,1.84,7.82,1.84,-1.84,-1.79,-1.69,5.97,5.97,5.97
46.13,7.82,1.85,7.82,1.85,-1.85,-1.81,-1.70,5.96,5.96,5.97
46.60,7.82,1.86,7.82,1.86,-1.86,-1.82,-1.72,5.95,5.95,5.96
47.06,7.82,1.87,7.82,1.87,-1.87,-1.83,-1.73,5.94,5.94,5.95
47.53,7.82,1.89,7.82,1.89,-1.89,-1.85,-1.75,5.93,5.93,5.93
48.01,7.82,1.90,7.82,1.90,-1.90,-1.86,-1.76,5.92,5.92,5.92
48.49,7.82,1.91,7.82,1.91,-1.91,-1.88,-1.78,5.91,5.91,5.91
48.97,7.82,1.92,7.82,1.92,-1.92,-1.89,-1.80,5.89,5.89,5.89
49.46,7.82,1.93,7.82,1.93,-1.93,-1.91,-1.82,5.88,5.88,5.88
49.96,7.82,1.94,7.82,1.95,-1.94,-1.92,-1.84,5.87,5.87,5.87
50.46,7.82,1.96,7.82,1.96,-1.95,-1.94,-1.86,5.86,5.86,5.86
50.96,7.82,1.97,7.82,1.97,-1.97,-1.96,-1.88,5.85,5.85,5.85
51.47,7.82,1.97,7.82,1.98,-1.98,-1.97,-1.90,5.84,5.84,5.84
51.99,7.82,1.99,7.82,1.99,-1.99,-1.99,-1.93,5.83,5.83,5.83
52.51,7.82,2.00,7.82,2.00,-2.00,-2.00,-1.95,5.82,5.82,5.82
53.03,7.82,2.01,7.82,2.01,-2.01,-2.02,-1.98,5.80,5.80,5.80
53.56,7.82,2.03,7.82,2.03,-2.03,-2.04,-2.00,5.79,5.79,5.79
54.10,7.82,2.03,7.82,2.04,-2.04,-2.06,-2.03,5.78,5.78,5.78
54.64,7.82,2.05,7.82,2.05,-2.05,-2.07,-2.05,5.76,5.76,5.77
55.18,7.82,2.07,7.82,2.07,-2.07,-2.09,-2.08,5.75,5.75,5.75
55.74,7.82,2.08,7.82,2.08,-2.08,-2.11,-2.10,5.74,5.74,5.73
56.29,7.82,2.09,7.82,2.10,-2.09,-2.13,-2.13,5.72,5.72,5.72
56.86,7.82,2.11,7.82,2.11,-2.11,-2.14,-2.15,5.71,5.71,5.71
57.42,7.82,2.13,7.82,2.12,-2.12,-2.16,-2.17,5.69,5.69,5.69
58.00,7.82,2.14,7.82,2.14,-2.14,-2.18,-2.20,5.68,5.68,5.68
58.58,7.82,2.16,7.82,2.16,-2.16,-2.20,-2.22,5.66,5.66,5.66
59.16,7.82,2.18,7.82,2.17,-2.17,-2.22,-2.24,5.64,5.64,5.64
59.76,7.82,2.19,7.82,2.19,-2.19,-2.24,-2.26,5.62,5.62,5.63
60.35,7.82,2.21,7.82,2.21,-2.21,-2.26,-2.28,5.60,5.60,5.61
60.96,7.82,2.23,7.82,2.23,-2.23,-2.28,-2.30,5.58,5.58,5.58
61.57,7.82,2.26,7.82,2.26,-2.26,-2.30,-2.32,5.56,5.56,5.56
62.18,7.82,2.28,7.82,2.28,-2.28,-2.32,-2.33,5.53,5.53,5.54
62.80,7.82,2.30,7.82,2.30,-2.31,-2.34,-2.35,5.51,5.51,5.51
63.43,7.82,2.33,7.82,2.33,-2.34,-2.36,-2.36,5.48,5.48,5.49
64.07,7.83,2.37,7.83,2.37,-2.37,-2.38,-2.37,5.45,5.46,5.46
64.71,7.84,2.40,7.84,2.40,-2.40,-2.40,-2.39,5.43,5.43,5.43
65.35,7.85,2.44,7.84,2.44,-2.43,-2.42,-2.40,5.41,5.41,5.41
66.01,7.85,2.47,7.84,2.47,-2.46,-2.44,-2.41,5.39,5.39,5.38
66.67,7.84,2.49,7.84,2.49,-2.48,-2.47,-2.42,5.35,5.35,5.35
67.33,7.83,2.51,7.82,2.50,-2.50,-2.49,-2.43,5.32,5.32,5.32
68.01,7.81,2.52,7.81,2.52,-2.52,-2.51,-2.43,5.29,5.29,5.29
68.69,7.79,2.53,7.79,2.53,-2.53,-2.53,-2.44,5.26,5.26,5.26
69.37,7.77,2.54,7.76,2.54,-2.54,-2.56,-2.45,5.23,5.23,5.23
70.07,7.74,2.54,7.74,2.54,-2.54,-2.58,-2.46,5.20,5.20,5.19
70.77,7.71,2.55,7.71,2.54,-2.54,-2.60,-2.46,5.16,5.17,5.16
71.48,7.68,2.54,7.67,2.54,-2.54,-2.62,-2.47,5.13,5.13,5.13
72.19,7.64,2.54,7.64,2.54,-2.54,-2.65,-2.48,5.09,5.10,5.10
72.91,7.61,2.54,7.61,2.54,-2.54,-2.67,-2.49,5.06,5.06,5.06
73.64,7.58,2.55,7.58,2.55,-2.55,-2.69,-2.50,5.03,5.03,5.03
74.38,7.56,2.56,7.55,2.56,-2.55,-2.72,-2.51,5.00,5.00,5.00
75.12,7.53,2.57,7.53,2.56,-2.56,-2.74,-2.52,4.96,4.96,4.96
75.87,7.51,2.57,7.51,2.58,-2.58,-2.77,-2.53,4.93,4.92,4.93
76.63,7.49,2.60,7.49,2.60,-2.60,-2.79,-2.54,4.88,4.88,4.89
77.40,7.48,2.63,7.48,2.62,-2.63,-2.82,-2.56,4.85,4.85,4.85
78.17,7.48,2.66,7.48,2.66,-2.66,-2.84,-2.57,4.81,4.81,4.82
78.95,7.48,2.70,7.48,2.70,-2.70,-2.87,-2.59,4.77,4.77,4.78
79.74,7.49,2.75,7.48,2.75,-2.75,-2.89,-2.61,4.74,4.73,4.73
80.54,7.49,2.79,7.49,2.79,-2.80,-2.92,-2.63,4.69,4.69,4.70
81.35,7.50,2.84,7.50,2.84,-2.85,-2.94,-2.65,4.65,4.65,4.65
82.16,7.51,2.90,7.51,2.90,-2.90,-2.97,-2.68,4.61,4.61,4.61
82.98,7.52,2.95,7.51,2.95,-2.95,-2.99,-2.70,4.57,4.57,4.56
83.81,7.52,3.00,7.52,3.00,-2.99,-3.02,-2.73,4.52,4.52,4.51
84.65,7.52,3.04,7.52,3.04,-3.04,-3.04,-2.76,4.48,4.48,4.48
85.50,7.51,3.08,7.51,3.08,-3.08,-3.07,-2.80,4.43,4.43,4.43
86.35,7.50,3.12,7.49,3.11,-3.11,-3.10,-2.83,4.38,4.38,4.38
87.22,7.48,3.15,7.47,3.15,-3.14,-3.12,-2.87,4.33,4.33,4.33
88.09,7.45,3.17,7.45,3.17,-3.17,-3.15,-2.91,4.27,4.28,4.28
88.97,7.43,3.20,7.42,3.20,-3.20,-3.18,-2.95,4.23,4.23,4.23
89.86,7.40,3.22,7.40,3.22,-3.22,-3.21,-2.99,4.18,4.18,4.18
90.76,7.37,3.24,7.37,3.24,-3.24,-3.23,-3.04,4.13,4.13,4.12
91.66,7.34,3.26,7.33,3.26,-3.26,-3.26,-3.09,4.07,4.07,4.07
92.58,7.31,3.29,7.30,3.29,-3.29,-3.29,-3.14,4.02,4.02,4.02
93.51,7.27,3.30,7.27,3.31,-3.31,-3.32,-3.19,3.96,3.96,3.96
94.44,7.25,3.34,7.24,3.33,-3.34,-3.34,-3.24,3.91,3.90,3.91
95.39,7.22,3.36,7.22,3.36,-3.37,-3.37,-3.30,3.85,3.85,3.86
96.34,7.21,3.40,7.21,3.40,-3.40,-3.40,-3.36,3.80,3.80,3.80
97.30,7.20,3.44,7.19,3.44,-3.44,-3.43,-3.42,3.75,3.75,3.76
98.28,7.19,3.49,7.18,3.48,-3.48,-3.46,-3.48,3.70,3.70,3.70
99.26,7.17,3.52,7.17,3.52,-3.53,-3.49,-3.54,3.64,3.64,3.65
100.25,7.16,3.57,7.16,3.57,-3.57,-3.52,-3.61,3.59,3.59,3.59
101.25,7.15,3.61,7.15,3.61,-3.61,-3.54,-3.67,3.54,3.54,3.53
102.27,7.14,3.66,7.13,3.66,-3.65,-3.57,-3.74,3.49,3.49,3.48
103.29,7.12,3.70,7.12,3.69,-3.68,-3.60,-3.81,3.43,3.43,3.42
104.32,7.10,3.72,7.09,3.72,-3.72,-3.63,-3.87,3.38,3.38,3.37
105.37,7.07,3.75,7.07,3.75,-3.75,-3.66,-3.94,3.32,3.32,3.32
106.42,7.04,3.77,7.04,3.77,-3.78,-3.69,-4.01,3.26,3.26,3.26
107.48,7.01,3.79,7.01,3.80,-3.81,-3.72,-4.08,3.20,3.20,3.22
108.56,6.99,3.83,6.99,3.83,-3.83,-3.75,-4.14,3.15,3.15,3.16
109.64,6.97,3.86,6.96,3.86,-3.86,-3.78,-4.21,3.11,3.11,3.10
110.74,6.94,3.89,6.94,3.89,-3.88,-3.81,-4.27,3.06,3.06,3.05
111.85,6.91,3.91,6.90,3.91,-3.90,-3.84,-4.33,3.01,3.00,2.99
112.97,6.87,3.92,6.87,3.93,-3.92,-3.87,-4.39,2.94,2.95,2.95
114.10,6.84,3.95,6.83,3.94,-3.94,-3.90,-4.45,2.89,2.89,2.89
115.24,6.80,3.96,6.80,3.96,-3.97,-3.93,-4.50,2.83,2.83,2.84
116.39,6.77,3.98,6.77,3.98,-3.99,-3.96,-4.55,2.78,2.78,2.78
117.55,6.74,4.00,6.74,4.00,-4.01,-3.99,-4.60,2.72,2.72,2.74
118.73,6.72,4.03,6.72,4.03,-4.04,-4.02,-4.64,2.68,2.68,2.68
119.92,6.70,4.07,6.70,4.06,-4.06,-4.05,-4.68,2.63,2.63,2.63
121.12,6.68,4.10,6.68,4.10,-4.09,-4.08,-4.71,2.59,2.59,2.58
122.33,6.66,4.12,6.65,4.12,-4.11,-4.11,-4.74,2.54,2.54,2.54
123.55,6.63,4.14,6.63,4.14,-4.13,-4.14,-4.76,2.49,2.49,2.48
124.79,6.60,4.15,6.60,4.16,-4.15,-4.17,-4.78,2.44,2.44,2.44
126.03,6.57,4.17,6.56,4.17,-4.17,-4.20,-4.80,2.40,2.40,2.39
127.29,6.53,4.17,6.53,4.18,-4.18,-4.23,-4.80,2.34,2.35,2.35
128.57,6.50,4.19,6.49,4.19,-4.19,-4.26,-4.81,2.30,2.30,2.30
129.85,6.46,4.20,6.46,4.20,-4.21,-4.28,-4.80,2.25,2.25,2.25
131.15,6.43,4.22,6.43,4.22,-4.22,-4.31,-4.80,2.20,2.20,2.21
132.46,6.40,4.23,6.40,4.23,-4.24,-4.34,-4.79,2.16,2.16,2.17
133.79,6.38,4.25,6.38,4.25,-4.25,-4.37,-4.77,2.12,2.12,2.12
135.12,6.36,4.28,6.35,4.28,-4.27,-4.40,-4.75,2.08,2.08,2.08
136.48,6.33,4.30,6.33,4.29,-4.29,-4.43,-4.73,2.04,2.04,2.03
137.84,6.30,4.31,6.30,4.31,-4.31,-4.45,-4.71,1.99,1.99,1.99
139.22,6.27,4.32,6.27,4.33,-4.32,-4.48,-4.68,1.94,1.95,1.94
140.61,6.25,4.35,6.24,4.34,-4.34,-4.51,-4.65,1.91,1.90,1.90
142.02,6.22,4.35,6.22,4.35,-4.36,-4.53,-4.62,1.86,1.86,1.87
143.44,6.20,4.37,6.20,4.37,-4.38,-4.56,-4.59,1.82,1.82,1.83
144.87,6.19,4.40,6.18,4.39,-4.40,-4.58,-4.55,1.79,1.79,1.79
146.32,6.18,4.42,6.17,4.42,-4.42,-4.61,-4.52,1.76,1.75,1.76
147.78,6.17,4.45,6.17,4.45,-4.45,-4.63,-4.48,1.72,1.72,1.72
149.26,6.17,4.49,6.17,4.48,-4.48,-4.66,-4.45,1.69,1.68,1.68
150.75,6.17,4.51,6.17,4.52,-4.52,-4.68,-4.42,1.65,1.65,1.65
152.26,6.18,4.56,6.17,4.56,-4.56,-4.70,-4.39,1.62,1.61,1.62
153.78,6.19,4.60,6.18,4.60,-4.61,-4.72,-4.36,1.58,1.58,1.58
155.32,6.20,4.64,6.20,4.65,-4.66,-4.74,-4.33,1.54,1.54,1.56
156.88,6.23,4.70,6.23,4.70,-4.71,-4.77,-4.30,1.51,1.51,1.52
158.44,6.26,4.77,6.26,4.77,-4.77,-4.78,-4.27,1.49,1.49,1.49
160.03,6.29,4.83,6.29,4.83,-4.82,-4.80,-4.25,1.46,1.46,1.46
161.63,6.32,4.89,6.31,4.88,-4.88,-4.82,-4.23,1.44,1.44,1.43
163.24,6.34,4.93,6.34,4.94,-4.93,-4.84,-4.21,1.41,1.41,1.41
164.88,6.36,4.98,6.35,4.98,-4.98,-4.86,-4.20,1.38,1.38,1.38
166.53,6.37,5.02,6.36,5.02,-5.02,-4.87,-4.18,1.35,1.35,1.35
168.19,6.37,5.05,6.37,5.05,-5.05,-4.89,-4.17,1.32,1.32,1.32
169.87,6.38,5.08,6.37,5.08,-5.08,-4.90,-4.17,1.30,1.30,1.30
171.57,6.38,5.10,6.37,5.10,-5.10,-4.91,-4.16,1.28,1.28,1.27
173.29,6.37,5.12,6.37,5.12,-5.11,-4.92,-4.16,1.25,1.25,1.25
175.02,6.36,5.13,6.35,5.13,-5.13,-4.94,-4.17,1.23,1.23,1.22
176.77,6.34,5.13,6.34,5.13,-5.13,-4.95,-4.17,1.20,1.20,1.21
178.54,6.32,5.13,6.32,5.14,-5.14,-4.95,-4.18,1.18,1.18,1.18
180.32,6.30,5.14,6.30,5.13,-5.14,-4.96,-4.19,1.16,1.16,1.16
182.13,6.28,5.14,6.27,5.14,-5.14,-4.97,-4.21,1.14,1.14,1.14
183.95,6.25,5.13,6.25,5.13,-5.14,-4.98,-4.23,1.11,1.11,1.12
185.79,6.23,5.13,6.23,5.13,-5.14,-4.98,-4.25,1.09,1.09,1.09
187.65,6.21,5.13,6.21,5.13,-5.14,-4.98,-4.27,1.07,1.07,1.07
189.52,6.19,5.13,6.19,5.14,-5.14,-4.99,-4.30,1.05,1.05,1.05
191.42,6.18,5.14,6.17,5.14,-5.14,-4.99,-4.33,1.03,1.03,1.03
193.33,6.16,5.14,6.16,5.14,-5.14,-4.99,-4.36,1.01,1.01,1.01
195.27,6.15,5.15,6.14,5.15,-5.15,-4.99,-4.40,1.00,1.00,1.00
197.22,6.13,5.15,6.13,5.15,-5.15,-4.98,-4.44,0.98,0.98,0.98
199.19,6.11,5.14,6.11,5.14,-5.14,-4.98,-4.48,0.97,0.97,0.96
201.18,6.09,5.13,6.09,5.14,-5.13,-4.98,-4.52,0.95,0.96,0.96
203.19,6.07,5.13,6.06,5.12,-5.12,-4.97,-4.56,0.95,0.95,0.94
205.23,6.04,5.10,6.03,5.10,-5.10,-4.96,-4.61,0.94,0.94,0.93
207.28,6.00,5.08,6.00,5.08,-5.07,-4.96,-4.65,0.92,0.92,0.92
209.35,5.96,5.05,5.96,5.05,-5.05,-4.95,-4.70,0.91,0.91,0.90
211.44,5.92,5.02,5.91,5.02,-5.02,-4.94,-4.75,0.90,0.89,0.90
213.56,5.87,4.98,5.87,4.98,-4.99,-4.93,-4.80,0.88,0.88,0.89
215.69,5.83,4.95,5.83,4.95,-4.96,-4.91,-4.84,0.86,0.86,0.87
217.85,5.79,4.93,5.79,4.92,-4.93,-4.90,-4.89,0.85,0.85,0.86
220.03,5.76,4.90,5.76,4.90,-4.91,-4.89,-4.94,0.85,0.85,0.86
222.23,5.73,4.88,5.73,4.88,-4.88,-4.87,-4.98,0.84,0.84,0.85
224.45,5.70,4.86,5.70,4.86,-4.86,-4.85,-5.02,0.84,0.84,0.83
226.70,5.67,4.84,5.66,4.84,-4.83,-4.84,-5.06,0.84,0.84,0.82
228.96,5.63,4.80,5.63,4.81,-4.80,-4.82,-5.09,0.83,0.83,0.82
231.25,5.59,4.77,5.58,4.77,-4.77,-4.80,-5.12,0.82,0.82,0.81
233.57,5.54,4.73,5.54,4.73,-4.73,-4.78,-5.15,0.80,0.81,0.80
235.90,5.50,4.69,5.49,4.69,-4.70,-4.76,-5.17,0.80,0.79,0.80
238.26,5.45,4.65,5.45,4.66,-4.66,-4.73,-5.19,0.78,0.79,0.79
240.64,5.42,4.62,5.42,4.62,-4.63,-4.71,-5.20,0.79,0.78,0.79
243.05,5.39,4.59,5.38,4.59,-4.60,-4.68,-5.21,0.79,0.79,0.80
245.48,5.36,4.56,5.36,4.57,-4.57,-4.66,-5.21,0.79,0.79,0.80
247.93,5.34,4.55,5.33,4.54,-4.53,-4.63,-5.21,0.80,0.80,0.79
250.41,5.31,4.52,5.31,4.51,-4.50,-4.60,-5.19,0.80,0.80,0.79
252.92,5.28,4.48,5.27,4.48,-4.47,-4.58,-5.18,0.80,0.80,0.79
255.45,5.24,4.44,5.24,4.44,-4.44,-4.55,-5.15,0.79,0.79,0.80
258.00,5.20,4.41,5.20,4.40,-4.41,-4.52,-5.13,0.78,0.79,0.79
260.58,5.16,4.36,5.16,4.37,-4.38,-4.49,-5.09,0.77,0.78,0.79
263.19,5.13,4.34,5.13,4.34,-4.35,-4.46,-5.05,0.77,0.77,0.79
265.82,5.10,4.32,5.10,4.32,-4.32,-4.42,-5.00,0.77,0.78,0.78
268.48,5.08,4.29,5.07,4.30,-4.29,-4.39,-4.95,0.79,0.78,0.78
271.16,5.05,4.27,5.05,4.27,-4.26,-4.36,-4.89,0.79,0.79,0.78
273.87,5.02,4.24,5.01,4.24,-4.22,-4.33,-4.83,0.79,0.79,0.77
276.61,4.98,4.20,4.97,4.20,-4.19,-4.29,-4.77,0.79,0.78,0.78
279.38,4.93,4.16,4.93,4.15,-4.15,-4.26,-4.70,0.78,0.78,0.77
282.17,4.88,4.10,4.88,4.11,-4.11,-4.22,-4.63,0.76,0.77,0.78
284.99,4.84,4.07,4.83,4.06,-4.07,-4.18,-4.56,0.76,0.76,0.77
287.84,4.79,4.02,4.79,4.02,-4.04,-4.15,-4.48,0.75,0.75,0.77
290.72,4.76,3.99,4.76,4.00,-4.01,-4.11,-4.41,0.75,0.75,0.76
293.63,4.73,3.97,4.73,3.97,-3.98,-4.07,-4.33,0.75,0.75,0.76
296.57,4.71,3.95,4.71,3.95,-3.95,-4.04,-4.25,0.76,0.76,0.75
299.53,4.69,3.93,4.68,3.93,-3.92,-4.00,-4.17,0.77,0.77,0.76
302.53,4.66,3.90,4.65,3.90,-3.89,-3.96,-4.10,0.77,0.77,0.75
305.55,4.62,3.87,4.62,3.86,-3.85,-3.92,-4.02,0.76,0.76,0.75
308.61,4.58,3.82,4.58,3.82,-3.82,-3.88,-3.94,0.75,0.75,0.76
311.69,4.54,3.78,4.53,3.78,-3.79,-3.84,-3.87,0.75,0.75,0.75
314.81,4.50,3.74,4.50,3.74,-3.76,-3.80,-3.79,0.74,0.74,0.76
317.96,4.47,3.71,4.47,3.71,-3.72,-3.76,-3.72,0.74,0.75,0.76
321.14,4.45,3.68,4.44,3.68,-3.69,-3.72,-3.64,0.76,0.76,0.76
324.35,4.42,3.66,4.42,3.66,-3.65,-3.68,-3.57,0.76,0.77,0.76
327.59,4.40,3.64,4.39,3.63,-3.61,-3.64,-3.51,0.78,0.78,0.76
330.87,4.36,3.59,4.36,3.59,-3.58,-3.60,-3.44,0.78,0.78,0.76
334.18,4.32,3.54,4.31,3.55,-3.54,-3.56,-3.38,0.78,0.78,0.77
337.52,4.27,3.50,4.27,3.49,-3.50,-3.52,-3.31,0.77,0.77,0.77
340.90,4.22,3.44,4.22,3.44,-3.45,-3.48,-3.25,0.76,0.77,0.78
344.30,4.18,3.40,4.18,3.40,-3.41,-3.44,-3.20,0.76,0.76,0.77
347.75,4.14,3.36,4.14,3.36,-3.37,-3.40,-3.14,0.76,0.76,0.77
351.23,4.11,3.34,4.11,3.33,-3.34,-3.36,-3.09,0.77,0.77,0.77
354.74,4.08,3.30,4.08,3.30,-3.31,-3.32,-3.04,0.77,0.77,0.78
358.28,4.06,3.28,4.05,3.28,-3.28,-3.28,-2.99,0.78,0.78,0.78
361.87,4.03,3.25,4.03,3.25,-3.24,-3.24,-2.94,0.78,0.78,0.77
365.49,4.00,3.22,3.99,3.22,-3.21,-3.19,-2.90,0.79,0.78,0.77
369.14,3.96,3.19,3.96,3.19,-3.18,-3.15,-2.86,0.78,0.78,0.77
372.83,3.92,3.15,3.92,3.15,-3.14,-3.11,-2.82,0.77,0.77,0.77
376.56,3.88,3.10,3.87,3.10,-3.11,-3.07,-2.78,0.77,0.77,0.78
380.33,3.84,3.06,3.83,3.06,-3.08,-3.03,-2.75,0.76,0.76,0.77
384.13,3.80,3.02,3.80,3.03,-3.04,-2.99,-2.72,0.75,0.76,0.77
387.97,3.78,3.00,3.78,3.01,-3.01,-2.95,-2.68,0.76,0.77,0.77
391.85,3.77,2.99,3.76,2.99,-2.98,-2.91,-2.66,0.79,0.78,0.78
395.77,3.75,2.97,3.74,2.96,-2.95,-2.87,-2.63,0.80,0.80,0.78
399.73,3.72,2.93,3.71,2.93,-2.92,-2.83,-2.60,0.80,0.80,0.79
403.72,3.68,2.89,3.68,2.89,-2.88,-2.79,-2.58,0.79,0.79,0.79
407.76,3.64,2.84,3.64,2.84,-2.85,-2.75,-2.56,0.79,0.79,0.79
411.84,3.60,2.80,3.60,2.80,-2.81,-2.71,-2.54,0.78,0.79,0.79
415.96,3.57,2.76,3.57,2.77,-2.77,-2.67,-2.52,0.79,0.79,0.80
420.12,3.54,2.74,3.53,2.73,-2.74,-2.63,-2.50,0.80,0.80,0.80
424.32,3.50,2.70,3.50,2.70,-2.70,-2.59,-2.48,0.80,0.80,0.80
428.56,3.47,2.66,3.47,2.66,-2.66,-2.55,-2.46,0.81,0.81,0.81
432.85,3.44,2.63,3.43,2.63,-2.62,-2.52,-2.44,0.81,0.81,0.81
437.18,3.40,2.59,3.40,2.59,-2.58,-2.48,-2.43,0.81,0.82,0.81
441.55,3.36,2.55,3.35,2.55,-2.54,-2.44,-2.41,0.82,0.81,0.81
445.96,3.31,2.50,3.31,2.50,-2.50,-2.40,-2.39,0.81,0.81,0.80
450.42,3.26,2.45,3.26,2.45,-2.46,-2.36,-2.38,0.80,0.80,0.80
454.93,3.21,2.40,3.21,2.41,-2.41,-2.33,-2.36,0.79,0.79,0.80
459.48,3.17,2.36,3.17,2.36,-2.37,-2.29,-2.34,0.79,0.79,0.80
464.07,3.13,2.33,3.13,2.33,-2.33,-2.25,-2.32,0.80,0.80,0.80
468.71,3.10,2.30,3.09,2.29,-2.29,-2.21,-2.30,0.81,0.80,0.80
473.40,3.06,2.26,3.06,2.25,-2.25,-2.18,-2.28,0.81,0.81,0.80
478.13,3.02,2.21,3.02,2.21,-2.21,-2.14,-2.26,0.80,0.81,0.81
482.91,2.99,2.18,2.98,2.18,-2.17,-2.10,-2.23,0.81,0.81,0.81
487.74,2.95,2.14,2.95,2.14,-2.14,-2.06,-2.21,0.81,0.81,0.81
492.62,2.91,2.10,2.91,2.10,-2.10,-2.03,-2.18,0.81,0.81,0.81
497.55,2.88,2.06,2.87,2.06,-2.06,-1.99,-2.15,0.81,0.81,0.82
502.52,2.84,2.02,2.84,2.03,-2.03,-1.96,-2.12,0.81,0.81,0.82
507.55,2.81,1.99,2.81,1.99,-1.99,-1.92,-2.09,0.82,0.82,0.82
512.62,2.78,1.96,2.77,1.95,-1.95,-1.88,-2.05,0.82,0.82,0.81
517.75,2.74,1.91,2.74,1.92,-1.91,-1.85,-2.02,0.82,0.82,0.82
522.93,2.70,1.87,2.70,1.88,-1.87,-1.81,-1.98,0.82,0.82,0.82
528.16,2.66,1.83,2.66,1.83,-1.83,-1.77,-1.94,0.83,0.83,0.82
533.44,2.62,1.79,2.62,1.79,-1.79,-1.74,-1.90,0.83,0.83,0.82
538.77,2.58,1.74,2.57,1.74,-1.74,-1.70,-1.85,0.83,0.83,0.83
544.16,2.53,1.69,2.53,1.70,-1.70,-1.67,-1.81,0.83,0.83,0.83
