frequency,raw,error,smoothed,error_smoothed,equalization,parametric_eq,fixed_band_eq,equalized_raw,equalized_smoothed,target
20.00,6.51,-0.52,6.53,-0.50,0.64,0.01,-0.65,7.15,7.17,7.03
20.20,6.52,-0.50,6.51,-0.51,0.56,-0.03,-0.66,7.08,7.07,7.02
20.40,6.53,-0.49,6.51,-0.51,0.48,-0.06,-0.68,7.01,6.99,7.02
20.61,6.55,-0.46,6.53,-0.48,0.39,-0.10,-0.70,6.94,6.92,7.01
20.81,6.56,-0.44,6.56,-0.44,0.30,-0.14,-0.72,6.86,6.86,7.00
21.02,6.59,-0.40,6.63,-0.36,0.21,-0.18,-0.73,6.80,6.84,6.99
21.23,6.77,-0.22,6.76,-0.22,0.12,-0.22,-0.75,6.89,6.88,6.99
21.44,6.96,-0.03,6.95,-0.04,0.02,-0.25,-0.77,6.98,6.97,6.99
21.66,7.14,0.15,7.15,0.16,-0.12,-0.29,-0.79,7.02,7.03,6.98
21.87,7.32,0.34,7.31,0.32,-0.25,-0.33,-0.81,7.07,7.06,6.98
22.09,7.44,0.47,7.42,0.44,-0.37,-0.37,-0.83,7.07,7.05,6.97
22.31,7.47,0.50,7.48,0.51,-0.46,-0.41,-0.85,7.00,7.01,6.97
22.54,7.50,0.54,7.51,0.54,-0.53,-0.45,-0.88,6.97,6.98,6.96
22.76,7.52,0.55,7.52,0.56,-0.57,-0.49,-0.90,6.95,6.96,6.97
22.99,7.55,0.58,7.54,0.57,-0.58,-0.53,-0.92,6.97,6.96,6.97
23.22,7.54,0.58,7.54,0.58,-0.58,-0.58,-0.95,6.96,6.96,6.96
23.45,7.53,0.57,7.53,0.57,-0.57,-0.62,-0.97,6.95,6.96,6.96
23.69,7.52,0.56,7.52,0.56,-0.57,-0.66,-1.00,6.94,6.94,6.96
23.92,7.51,0.55,7.52,0.56,-0.58,-0.70,-1.02,6.93,6.94,6.96
24.16,7.53,0.56,7.53,0.57,-0.59,-0.74,-1.05,6.94,6.94,6.97
24.40,7.57,0.59,7.56,0.59,-0.61,-0.78,-1.07,6.96,6.96,6.98
24.65,7.60,0.62,7.60,0.63,-0.62,-0.83,-1.10,6.98,6.98,6.97
24.89,7.64,0.67,7.63,0.66,-0.64,-0.87,-1.13,7.00,6.99,6.97
25.14,7.66,0.70,7.66,0.69,-0.66,-0.91,-1.16,7.00,6.99,6.96
25.39,7.67,0.71,7.67,0.71,-0.68,-0.96,-1.18,6.98,6.98,6.96
25.65,7.68,0.72,7.68,0.72,-0.71,-1.00,-1.21,6.97,6.97,6.96
25.91,7.69,0.73,7.69,0.73,-0.74,-1.04,-1.24,6.95,6.95,6.96
26.16,7.72,0.76,7.73,0.77,-0.78,-1.09,-1.27,6.94,6.94,6.96
26.43,7.78,0.83,7.76,0.81,-0.84,-1.13,-1.30,6.94,6.92,6.95
26.69,7.83,0.88,7.82,0.88,-0.92,-1.18,-1.33,6.91,6.90,6.95
26.96,7.88,0.94,7.90,0.97,-1.01,-1.22,-1.36,6.87,6.89,6.93
27.23,8.01,1.08,8.01,1.08,-1.12,-1.27,-1.39,6.89,6.89,6.92
27.50,8.15,1.23,8.15,1.23,-1.22,-1.31,-1.42,6.93,6.93,6.92
27.77,8.29,1.37,8.29,1.37,-1.32,-1.36,-1.45,6.97,6.97,6.92
28.05,8.42,1.50,8.39,1.47,-1.41,-1.40,-1.49,7.01,6.98,6.92
28.33,8.45,1.53,8.46,1.54,-1.48,-1.45,-1.52,6.97,6.97,6.92
28.62,8.48,1.57,8.49,1.58,-1.54,-1.49,-1.55,6.94,6.95,6.91
28.90,8.51,1.59,8.51,1.59,-1.59,-1.54,-1.58,6.92,6.92,6.91
29.19,8.53,1.62,8.53,1.61,-1.64,-1.58,-1.61,6.89,6.89,6.91
29.48,8.55,1.63,8.54,1.62,-1.69,-1.63,-1.64,6.86,6.85,6.92
29.78,8.57,1.65,8.57,1.65,-1.75,-1.68,-1.67,6.82,6.83,6.92
30.08,8.62,1.69,8.64,1.72,-1.79,-1.72,-1.70,6.83,6.85,6.93
30.38,8.75,1.83,8.76,1.85,-1.82,-1.77,-1.73,6.93,6.94,6.92
30.68,8.88,1.96,8.88,1.97,-1.84,-1.82,-1.76,7.03,7.04,6.91
30.99,9.01,2.11,8.94,2.03,-1.87,-1.86,-1.79,7.13,7.06,6.90
31.30,8.90,2.00,8.88,1.98,-1.91,-1.91,-1.82,6.99,6.97,6.90
31.61,8.77,1.87,8.78,1.89,-1.96,-1.96,-1.85,6.81,6.82,6.90
31.93,8.65,1.77,8.71,1.82,-2.00,-2.00,-1.88,6.65,6.71,6.89
32.24,8.76,1.88,8.78,1.90,-2.04,-2.05,-1.91,6.72,6.74,6.88
32.57,8.93,2.06,8.92,2.05,-2.07,-2.10,-1.93,6.86,6.85,6.87
32.89,9.11,2.25,9.07,2.21,-2.11,-2.15,-1.96,6.99,6.95,6.86
33.22,9.16,2.30,9.14,2.28,-2.17,-2.19,-1.99,6.99,6.97,6.85
33.55,9.14,2.29,9.15,2.30,-2.24,-2.24,-2.02,6.90,6.91,6.85
33.89,9.13,2.28,9.14,2.30,-2.31,-2.29,-2.05,6.82,6.83,6.85
34.23,9.15,2.31,9.16,2.32,-2.36,-2.34,-2.08,6.79,6.80,6.84
34.57,9.20,2.37,9.20,2.36,-2.39,-2.38,-2.11,6.81,6.81,6.83
34.92,9.25,2.43,9.24,2.41,-2.41,-2.43,-2.14,6.84,6.83,6.82
35.27,9.27,2.44,9.26,2.45,-2.43,-2.48,-2.17,6.83,6.83,6.83
35.62,9.28,2.48,9.28,2.48,-2.48,-2.53,-2.20,6.80,6.81,6.80
35.97,9.30,2.51,9.30,2.51,-2.54,-2.58,-2.24,6.76,6.77,6.79
36.33,9.34,2.56,9.33,2.56,-2.60,-2.62,-2.27,6.74,6.74,6.78
36.70,9.38,2.62,9.38,2.62,-2.65,-2.67,-2.31,6.73,6.73,6.76
37.06,9.43,2.68,9.45,2.70,-2.69,-2.72,-2.34,6.74,6.76,6.75
37.43,9.51,2.78,9.52,2.79,-2.72,-2.77,-2.38,6.79,6.80,6.73
37.81,9.58,2.87,9.56,2.85,-2.75,-2.82,-2.42,6.83,6.81,6.71
38.19,9.57,2.88,9.52,2.84,-2.79,-2.87,-2.46,6.78,6.74,6.68
38.57,9.46,2.80,9.46,2.80,-2.84,-2.91,-2.50,6.62,6.62,6.66
38.95,9.35,2.72,9.42,2.79,-2.89,-2.96,-2.54,6.46,6.53,6.63
39.34,9.45,2.84,9.45,2.84,-2.95,-3.01,-2.59,6.50,6.50,6.61
39.74,9.57,2.98,9.54,2.96,-3.01,-3.06,-2.64,6.55,6.53,6.58
40.14,9.67,3.11,9.66,3.11,-3.08,-3.11,-2.69,6.59,6.59,6.56
40.54,9.74,3.20,9.74,3.21,-3.14,-3.16,-2.74,6.60,6.61,6.53
40.94,9.81,3.30,9.80,3.29,-3.20,-3.20,-2.79,6.61,6.60,6.51
41.35,9.82,3.33,9.83,3.34,-3.26,-3.25,-2.85,6.56,6.57,6.49
41.76,9.83,3.36,9.82,3.36,-3.31,-3.30,-2.90,6.52,6.51,6.47
42.18,9.80,3.35,9.77,3.32,-3.36,-3.35,-2.96,6.43,6.40,6.45
42.60,9.73,3.31,9.73,3.30,-3.41,-3.40,-3.03,6.32,6.31,6.42
43.03,9.67,3.27,9.75,3.35,-3.46,-3.44,-3.09,6.21,6.29,6.40
43.46,9.85,3.47,9.84,3.47,-3.52,-3.49,-3.16,6.33,6.33,6.38
43.90,10.02,3.67,9.96,3.61,-3.57,-3.54,-3.23,6.44,6.39,6.35
44.33,10.06,3.74,10.05,3.73,-3.63,-3.59,-3.30,6.43,6.42,6.32
44.78,10.06,3.76,10.07,3.77,-3.69,-3.64,-3.37,6.37,6.38,6.29
45.23,10.05,3.77,10.05,3.78,-3.76,-3.68,-3.45,6.29,6.30,6.28
45.68,10.04,3.80,10.04,3.80,-3.81,-3.73,-3.53,6.22,6.22,6.24
46.13,10.03,3.83,10.02,3.82,-3.86,-3.78,-3.61,6.17,6.16,6.20
46.60,10.01,3.84,10.01,3.84,-3.89,-3.83,-3.69,6.11,6.12,6.17
47.06,10.01,3.87,10.03,3.89,-3.92,-3.87,-3.78,6.09,6.11,6.14
47.53,10.07,3.96,10.07,3.97,-3.95,-3.92,-3.87,6.12,6.12,6.11
48.01,10.13,4.08,10.11,4.05,-3.99,-3.97,-3.95,6.13,6.12,6.05
48.49,10.13,4.11,10.13,4.11,-4.06,-4.02,-4.05,6.07,6.07,6.02
48.97,10.13,4.15,10.09,4.11,-4.14,-4.06,-4.14,5.99,5.95,5.98
49.46,10.06,4.12,10.05,4.11,-4.22,-4.11,-4.24,5.84,5.83,5.94
49.96,10.00,4.11,10.11,4.21,-4.29,-4.16,-4.33,5.70,5.81,5.88
50.46,10.21,4.34,10.22,4.36,-4.37,-4.21,-4.43,5.84,5.85,5.86
50.96,10.45,4.62,10.33,4.51,-4.44,-4.25,-4.53,6.01,5.89,5.83
51.47,10.40,4.60,10.40,4.61,-4.51,-4.30,-4.63,5.89,5.89,5.80
51.99,10.33,4.58,10.38,4.62,-4.57,-4.35,-4.73,5.76,5.80,5.75
52.51,10.33,4.61,10.33,4.61,-4.63,-4.39,-4.84,5.70,5.70,5.72
53.03,10.33,4.64,10.32,4.64,-4.67,-4.44,-4.94,5.65,5.65,5.68
53.56,10.33,4.69,10.33,4.69,-4.70,-4.49,-5.04,5.63,5.63,5.64
54.10,10.33,4.73,10.33,4.74,-4.72,-4.53,-5.14,5.61,5.62,5.59
54.64,10.33,4.77,10.31,4.76,-4.75,-4.58,-5.23,5.58,5.57,5.56
55.18,10.30,4.79,10.27,4.76,-4.79,-4.63,-5.33,5.51,5.49,5.51
55.74,10.23,4.75,10.27,4.79,-4.84,-4.67,-5.43,5.39,5.43,5.48
56.29,10.26,4.81,10.30,4.85,-4.89,-4.72,-5.52,5.37,5.40,5.45
56.86,10.40,4.98,10.35,4.95,-4.94,-4.76,-5.61,5.45,5.41,5.42
57.42,10.43,5.07,10.41,5.04,-4.99,-4.81,-5.69,5.44,5.42,5.36
58.00,10.43,5.09,10.44,5.10,-5.04,-4.86,-5.77,5.38,5.40,5.34
58.58,10.43,5.11,10.43,5.11,-5.10,-4.90,-5.85,5.33,5.34,5.32
59.16,10.43,5.14,10.43,5.14,-5.15,-4.95,-5.92,5.28,5.28,5.29
59.76,10.43,5.17,10.43,5.17,-5.20,-4.99,-5.98,5.23,5.23,5.26
60.35,10.43,5.22,10.43,5.21,-5.24,-5.04,-6.04,5.19,5.19,5.21
60.96,10.43,5.25,10.43,5.26,-5.27,-5.08,-6.09,5.16,5.16,5.18
61.57,10.43,5.31,10.43,5.31,-5.30,-5.13,-6.14,5.13,5.13,5.12
62.18,10.43,5.36,10.43,5.36,-5.34,-5.18,-6.18,5.09,5.09,5.07
62.80,10.43,5.41,10.44,5.42,-5.38,-5.22,-6.22,5.04,5.05,5.01
63.43,10.43,5.46,10.42,5.45,-5.44,-5.27,-6.24,4.99,4.98,4.97
64.07,10.42,5.50,10.38,5.46,-5.49,-5.31,-6.26,4.93,4.89,4.92
64.71,10.34,5.45,10.39,5.51,-5.55,-5.36,-6.28,4.79,4.84,4.89
65.35,10.39,5.55,10.42,5.58,-5.61,-5.40,-6.29,4.78,4.81,4.84
66.01,10.53,5.73,10.47,5.67,-5.67,-5.45,-6.29,4.86,4.80,4.80
66.67,10.53,5.77,10.53,5.77,-5.73,-5.49,-6.29,4.80,4.79,4.76
67.33,10.53,5.83,10.54,5.83,-5.79,-5.53,-6.29,4.74,4.75,4.70
68.01,10.53,5.87,10.53,5.86,-5.85,-5.58,-6.28,4.67,4.67,4.66
68.69,10.53,5.91,10.53,5.91,-5.91,-5.62,-6.26,4.62,4.62,4.62
69.37,10.53,5.95,10.53,5.95,-5.96,-5.67,-6.25,4.56,4.56,4.58
70.07,10.53,6.00,10.53,6.00,-6.01,-5.71,-6.23,4.52,4.52,4.53
70.77,10.53,6.05,10.53,6.04,-6.05,-5.76,-6.20,4.48,4.48,4.48
71.48,10.53,6.09,10.53,6.09,-6.09,-5.80,-6.18,4.43,4.43,4.44
72.19,10.53,6.14,10.53,6.14,-6.14,-5.85,-6.16,4.39,4.39,4.39
72.91,10.53,6.19,10.53,6.19,-6.19,-5.89,-6.13,4.34,4.34,4.34
73.64,10.53,6.24,10.53,6.24,-6.23,-5.93,-6.11,4.30,4.30,4.29
74.38,10.53,6.28,10.53,6.28,-6.27,-5.98,-6.09,4.25,4.25,4.25
75.12,10.53,6.32,10.53,6.31,-6.31,-6.02,-6.06,4.21,4.21,4.21
75.87,10.53,6.34,10.53,6.35,-6.35,-6.06,-6.04,4.17,4.17,4.18
76.63,10.53,6.39,10.53,6.39,-6.39,-6.11,-6.02,4.14,4.14,4.13
77.40,10.53,6.43,10.53,6.43,-6.43,-6.15,-6.00,4.10,4.10,4.10
78.17,10.53,6.47,10.53,6.46,-6.46,-6.20,-5.99,4.07,4.07,4.06
78.95,10.53,6.49,10.53,6.49,-6.49,-6.24,-5.98,4.04,4.04,4.04
79.74,10.53,6.52,10.53,6.53,-6.53,-6.28,-5.97,4.00,4.00,4.01
80.54,10.53,6.56,10.53,6.55,-6.56,-6.32,-5.96,3.97,3.97,3.97
81.35,10.53,6.59,10.53,6.59,-6.59,-6.37,-5.96,3.94,3.94,3.94
82.16,10.53,6.62,10.53,6.62,-6.62,-6.41,-5.96,3.90,3.90,3.91
82.98,10.53,6.66,10.53,6.66,-6.67,-6.45,-5.97,3.86,3.86,3.86
83.81,10.53,6.70,10.53,6.70,-6.71,-6.50,-5.98,3.82,3.82,3.83
84.65,10.53,6.74,10.53,6.74,-6.76,-6.54,-5.99,3.77,3.77,3.79
85.50,10.53,6.78,10.53,6.78,-6.79,-6.58,-6.01,3.74,3.73,3.75
86.35,10.53,6.82,10.52,6.81,-6.82,-6.62,-6.03,3.71,3.71,3.71
87.22,10.53,6.86,10.56,6.89,-6.84,-6.66,-6.06,3.69,3.73,3.67
88.09,10.55,6.92,10.55,6.92,-6.85,-6.70,-6.09,3.70,3.70,3.63
88.97,10.60,7.01,10.49,6.90,-6.86,-6.75,-6.13,3.73,3.62,3.59
89.86,10.33,6.78,10.41,6.86,-6.88,-6.79,-6.17,3.45,3.53,3.55
90.76,10.31,6.80,10.34,6.83,-6.89,-6.83,-6.22,3.42,3.45,3.51
91.66,10.32,6.86,10.30,6.84,-6.90,-6.87,-6.27,3.41,3.39,3.45
92.58,10.34,6.93,10.33,6.92,-6.93,-6.91,-6.32,3.41,3.40,3.41
93.51,10.34,6.97,10.34,6.97,-6.96,-6.95,-6.38,3.38,3.38,3.37
94.44,10.34,7.02,10.34,7.02,-7.01,-6.99,-6.44,3.33,3.33,3.32
95.39,10.33,7.06,10.33,7.06,-7.07,-7.02,-6.51,3.26,3.27,3.27
96.34,10.33,7.11,10.33,7.11,-7.13,-7.06,-6.58,3.20,3.20,3.21
97.30,10.33,7.17,10.33,7.17,-7.19,-7.10,-6.66,3.14,3.14,3.16
98.28,10.33,7.22,10.35,7.25,-7.23,-7.14,-6.74,3.10,3.12,3.10
99.26,10.36,7.32,10.34,7.30,-7.26,-7.18,-6.82,3.10,3.09,3.04
100.25,10.35,7.37,10.30,7.32,-7.27,-7.21,-6.91,3.07,3.03,2.98
101.25,10.21,7.27,10.25,7.31,-7.28,-7.25,-6.99,2.93,2.97,2.94
102.27,10.15,7.27,10.18,7.30,-7.28,-7.29,-7.09,2.86,2.89,2.88
103.29,10.13,7.30,10.09,7.26,-7.29,-7.32,-7.18,2.84,2.80,2.82
104.32,10.05,7.27,10.02,7.25,-7.30,-7.35,-7.28,2.75,2.73,2.78
105.37,9.91,7.20,9.96,7.25,-7.30,-7.39,-7.37,2.60,2.66,2.71
106.42,9.93,7.26,9.93,7.27,-7.32,-7.42,-7.47,2.61,2.61,2.66
107.48,9.95,7.35,9.94,7.34,-7.34,-7.46,-7.57,2.61,2.61,2.60
108.56,9.96,7.41,9.97,7.42,-7.36,-7.49,-7.66,2.60,2.61,2.55
109.64,9.99,7.49,9.93,7.44,-7.38,-7.52,-7.76,2.60,2.55,2.50
110.74,9.86,7.42,9.87,7.43,-7.40,-7.55,-7.85,2.46,2.47,2.44
111.85,9.77,7.37,9.81,7.41,-7.41,-7.58,-7.94,2.36,2.39,2.39
112.97,9.76,7.41,9.76,7.41,-7.42,-7.61,-8.03,2.34,2.34,2.35
114.10,9.75,7.44,9.74,7.44,-7.44,-7.64,-8.11,2.31,2.30,2.30
115.24,9.73,7.49,9.69,7.44,-7.46,-7.67,-8.19,2.27,2.23,2.24
116.39,9.61,7.41,9.62,7.43,-7.49,-7.69,-8.27,2.12,2.14,2.19
117.55,9.55,7.40,9.60,7.45,-7.51,-7.72,-8.33,2.04,2.09,2.15
118.73,9.62,7.51,9.64,7.53,-7.54,-7.75,-8.39,2.08,2.10,2.11
119.92,9.73,7.66,9.69,7.62,-7.56,-7.77,-8.44,2.17,2.13,2.06
121.12,9.76,7.72,9.72,7.68,-7.58,-7.79,-8.49,2.18,2.14,2.04
122.33,9.64,7.64,9.67,7.67,-7.60,-7.82,-8.52,2.04,2.07,2.00
123.55,9.59,7.62,9.56,7.60,-7.62,-7.84,-8.54,1.96,1.94,1.97
124.79,9.49,7.55,9.48,7.55,-7.64,-7.86,-8.56,1.85,1.85,1.94
126.03,9.40,7.50,9.49,7.59,-7.65,-7.88,-8.57,1.75,1.84,1.89
127.29,9.53,7.67,9.50,7.64,-7.65,-7.90,-8.56,1.88,1.85,1.85
128.57,9.59,7.77,9.51,7.69,-7.66,-7.92,-8.55,1.93,1.85,1.82
129.85,9.46,7.67,9.50,7.71,-7.68,-7.94,-8.53,1.78,1.82,1.79
131.15,9.42,7.67,9.45,7.70,-7.70,-7.95,-8.50,1.72,1.74,1.75
132.46,9.43,7.72,9.42,7.71,-7.73,-7.97,-8.46,1.70,1.69,1.71
133.79,9.43,7.76,9.43,7.76,-7.75,-7.98,-8.42,1.68,1.68,1.66
135.12,9.43,7.80,9.41,7.78,-7.76,-8.00,-8.36,1.67,1.65,1.63
136.48,9.37,7.77,9.36,7.77,-7.76,-8.01,-8.31,1.60,1.60,1.59
137.84,9.29,7.73,9.31,7.75,-7.77,-8.02,-8.24,1.52,1.54,1.56
139.22,9.26,7.75,9.27,7.75,-7.77,-8.03,-8.18,1.49,1.50,1.51
140.61,9.24,7.76,9.24,7.77,-7.77,-8.04,-8.11,1.47,1.48,1.48
142.02,9.25,7.81,9.22,7.78,-7.76,-8.05,-8.03,1.49,1.46,1.44
143.44,9.18,7.78,9.18,7.77,-7.76,-8.05,-7.96,1.42,1.42,1.40
144.87,9.12,7.75,9.12,7.76,-7.77,-8.06,-7.88,1.35,1.36,1.37
146.32,9.06,7.73,9.07,7.74,-7.77,-8.07,-7.80,1.29,1.30,1.33
147.78,9.04,7.75,9.05,7.76,-7.77,-8.07,-7.73,1.26,1.27,1.29
149.26,9.04,7.79,9.04,7.78,-7.78,-8.07,-7.65,1.26,1.26,1.25
150.75,9.04,7.83,9.02,7.81,-7.78,-8.08,-7.58,1.26,1.24,1.21
152.26,8.98,7.80,8.98,7.81,-7.78,-8.08,-7.51,1.19,1.20,1.18
153.78,8.93,7.79,8.93,7.79,-7.79,-8.08,-7.43,1.14,1.13,1.13
155.32,8.87,7.76,8.88,7.77,-7.80,-8.08,-7.37,1.07,1.08,1.11
156.88,8.84,7.77,8.85,7.79,-7.80,-8.07,-7.30,1.04,1.05,1.07
158.44,8.84,7.82,8.83,7.81,-7.80,-8.07,-7.24,1.04,1.03,1.02
160.03,8.82,7.84,8.80,7.82,-7.80,-8.07,-7.18,1.01,0.99,0.98
161.63,8.75,7.81,8.75,7.81,-7.81,-8.06,-7.13,0.94,0.94,0.94
163.24,8.68,7.79,8.70,7.80,-7.81,-8.06,-7.08,0.87,0.88,0.89
164.88,8.64,7.79,8.65,7.80,-7.81,-8.05,-7.04,0.83,0.84,0.85
166.53,8.63,7.83,8.61,7.81,-7.81,-8.04,-7.00,0.82,0.81,0.80
168.19,8.57,7.81,8.57,7.81,-7.79,-8.03,-6.96,0.77,0.77,0.76
169.87,8.52,7.81,8.51,7.80,-7.78,-8.02,-6.93,0.74,0.73,0.71
171.57,8.43,7.76,8.44,7.77,-7.77,-8.01,-6.91,0.66,0.68,0.67
173.29,8.39,7.76,8.38,7.75,-7.76,-8.00,-6.89,0.63,0.62,0.63
175.02,8.32,7.73,8.31,7.73,-7.75,-7.98,-6.87,0.57,0.57,0.58
176.77,8.26,7.72,8.26,7.72,-7.74,-7.97,-6.86,0.52,0.52,0.54
178.54,8.21,7.70,8.22,7.72,-7.74,-7.95,-6.86,0.47,0.49,0.51
180.32,8.20,7.74,8.20,7.73,-7.74,-7.94,-6.86,0.46,0.46,0.46
182.13,8.19,7.77,8.18,7.75,-7.74,-7.92,-6.87,0.45,0.44,0.42
183.95,8.15,7.76,8.14,7.76,-7.75,-7.90,-6.87,0.40,0.40,0.39
185.79,8.11,7.76,8.11,7.76,-7.75,-7.88,-6.89,0.35,0.35,0.35
187.65,8.05,7.73,8.07,7.76,-7.76,-7.86,-6.91,0.29,0.31,0.32
189.52,8.06,7.78,8.04,7.76,-7.76,-7.84,-6.94,0.29,0.28,0.28
191.42,8.02,7.76,8.01,7.76,-7.76,-7.82,-6.97,0.26,0.25,0.26
193.33,7.98,7.76,7.98,7.76,-7.76,-7.80,-7.00,0.22,0.22,0.22
195.27,7.93,7.75,7.93,7.75,-7.75,-7.77,-7.04,0.17,0.18,0.18
197.22,7.89,7.75,7.89,7.74,-7.75,-7.75,-7.08,0.14,0.14,0.14
199.19,7.84,7.72,7.84,7.73,-7.74,-7.72,-7.13,0.10,0.11,0.11
201.18,7.81,7.73,7.80,7.72,-7.72,-7.69,-7.18,0.09,0.09,0.08
203.19,7.76,7.71,7.76,7.70,-7.69,-7.67,-7.23,0.07,0.07,0.05
205.23,7.71,7.68,7.71,7.68,-7.66,-7.64,-7.29,0.05,0.05,0.03
207.28,7.65,7.65,7.65,7.66,-7.63,-7.61,-7.34,0.02,0.02,0.00
209.35,7.58,7.62,7.57,7.61,-7.61,-7.58,-7.40,-0.03,-0.04,-0.04
211.44,7.51,7.58,7.46,7.53,-7.60,-7.55,-7.46,-0.09,-0.13,-0.07
213.56,7.36,7.46,7.42,7.51,-7.58,-7.52,-7.52,-0.22,-0.16,-0.10
215.69,7.35,7.47,7.41,7.53,-7.56,-7.48,-7.58,-0.21,-0.16,-0.12
217.85,7.50,7.65,7.41,7.57,-7.55,-7.45,-7.64,-0.05,-0.13,-0.15
220.03,7.42,7.61,7.41,7.59,-7.53,-7.41,-7.70,-0.11,-0.12,-0.19
222.23,7.34,7.55,7.36,7.57,-7.51,-7.38,-7.76,-0.17,-0.15,-0.21
224.45,7.24,7.47,7.25,7.49,-7.48,-7.34,-7.81,-0.24,-0.22,-0.23
226.70,7.19,7.44,7.18,7.43,-7.43,-7.30,-7.86,-0.25,-0.26,-0.25
228.96,7.11,7.37,7.12,7.39,-7.39,-7.27,-7.90,-0.28,-0.26,-0.26
231.25,7.06,7.34,7.06,7.34,-7.34,-7.23,-7.94,-0.28,-0.28,-0.29
233.57,7.02,7.31,6.96,7.26,-7.29,-7.19,-7.98,-0.28,-0.33,-0.30
235.90,6.86,7.17,6.89,7.20,-7.26,-7.15,-8.00,-0.40,-0.37,-0.31
238.26,6.79,7.11,6.86,7.18,-7.23,-7.11,-8.02,-0.44,-0.36,-0.32
240.64,6.90,7.21,6.87,7.19,-7.20,-7.06,-8.03,-0.30,-0.33,-0.31
243.05,6.96,7.28,6.90,7.22,-7.17,-7.02,-8.03,-0.21,-0.27,-0.32
245.48,6.87,7.19,6.89,7.21,-7.15,-6.98,-8.02,-0.28,-0.25,-0.32
247.93,6.82,7.15,6.83,7.15,-7.12,-6.93,-8.01,-0.30,-0.29,-0.33
250.41,6.76,7.07,6.76,7.08,-7.09,-6.89,-7.98,-0.33,-0.33,-0.32
252.92,6.71,7.02,6.69,7.01,-7.05,-6.84,-7.94,-0.34,-0.36,-0.31
255.45,6.64,6.97,6.64,6.97,-7.00,-6.80,-7.89,-0.36,-0.36,-0.33
258.00,6.56,6.90,6.62,6.96,-6.95,-6.75,-7.84,-0.39,-0.33,-0.34
260.58,6.62,6.96,6.56,6.90,-6.90,-6.70,-7.77,-0.28,-0.34,-0.35
263.19,6.56,6.91,6.50,6.85,-6.84,-6.65,-7.70,-0.29,-0.35,-0.35
265.82,6.33,6.69,6.46,6.82,-6.80,-6.60,-7.61,-0.47,-0.34,-0.36
268.48,6.41,6.78,6.37,6.74,-6.75,-6.55,-7.52,-0.34,-0.38,-0.37
271.16,6.39,6.78,6.29,6.67,-6.70,-6.50,-7.42,-0.31,-0.41,-0.39
273.87,6.15,6.54,6.27,6.67,-6.64,-6.45,-7.32,-0.49,-0.38,-0.40
276.61,6.17,6.58,6.18,6.59,-6.59,-6.40,-7.21,-0.42,-0.41,-0.41
279.38,6.21,6.63,6.10,6.52,-6.54,-6.34,-7.09,-0.33,-0.44,-0.43
282.17,6.00,6.42,6.06,6.49,-6.49,-6.29,-6.97,-0.49,-0.42,-0.42
284.99,5.96,6.38,6.00,6.42,-6.44,-6.24,-6.85,-0.48,-0.44,-0.43
287.84,5.99,6.41,5.94,6.37,-6.39,-6.18,-6.73,-0.40,-0.45,-0.42
290.72,5.92,6.35,5.94,6.37,-6.33,-6.13,-6.60,-0.42,-0.39,-0.44
293.63,5.87,6.31,5.86,6.30,-6.27,-6.07,-6.47,-0.40,-0.41,-0.44
296.57,5.84,6.27,5.76,6.20,-6.21,-6.01,-6.34,-0.37,-0.45,-0.43
299.53,5.60,6.03,5.72,6.16,-6.14,-5.95,-6.21,-0.55,-0.42,-0.43
302.53,5.66,6.09,5.66,6.09,-6.07,-5.90,-6.08,-0.41,-0.42,-0.43
305.55,5.70,6.13,5.56,5.99,-6.00,-5.84,-5.95,-0.30,-0.44,-0.44
308.61,5.43,5.86,5.50,5.93,-5.93,-5.78,-5.83,-0.50,-0.44,-0.43
311.69,5.33,5.76,5.40,5.84,-5.86,-5.72,-5.70,-0.53,-0.46,-0.43
314.81,5.39,5.83,5.34,5.78,-5.80,-5.66,-5.58,-0.42,-0.46,-0.44
317.96,5.34,5.78,5.30,5.74,-5.75,-5.60,-5.45,-0.41,-0.45,-0.44
321.14,5.26,5.70,5.25,5.69,-5.69,-5.53,-5.33,-0.43,-0.43,-0.44
324.35,5.11,5.55,5.21,5.65,-5.63,-5.47,-5.22,-0.52,-0.42,-0.45
327.59,5.20,5.64,5.15,5.59,-5.58,-5.41,-5.10,-0.38,-0.43,-0.44
330.87,5.17,5.61,5.09,5.53,-5.53,-5.35,-4.99,-0.36,-0.44,-0.44
334.18,4.94,5.39,5.03,5.48,-5.47,-5.28,-4.88,-0.54,-0.44,-0.45
337.52,4.94,5.39,4.92,5.37,-5.41,-5.22,-4.78,-0.47,-0.48,-0.45
340.90,4.90,5.34,4.87,5.31,-5.33,-5.15,-4.67,-0.43,-0.46,-0.44
344.30,4.80,5.23,4.87,5.31,-5.25,-5.09,-4.58,-0.45,-0.38,-0.43
347.75,4.85,5.28,4.79,5.22,-5.17,-5.02,-4.48,-0.32,-0.38,-0.43
351.23,4.74,5.18,4.67,5.10,-5.10,-4.96,-4.39,-0.36,-0.43,-0.44
354.74,4.48,4.90,4.57,4.99,-5.02,-4.89,-4.30,-0.54,-0.46,-0.42
358.28,4.42,4.84,4.47,4.89,-4.95,-4.82,-4.21,-0.53,-0.49,-0.42
361.87,4.49,4.90,4.42,4.83,-4.88,-4.75,-4.13,-0.39,-0.46,-0.41
365.49,4.42,4.82,4.42,4.83,-4.80,-4.68,-4.05,-0.38,-0.37,-0.41
369.14,4.36,4.76,4.38,4.77,-4.72,-4.62,-3.97,-0.36,-0.34,-0.40
372.83,4.31,4.70,4.28,4.67,-4.65,-4.55,-3.90,-0.34,-0.37,-0.39
376.56,4.19,4.59,4.21,4.60,-4.58,-4.48,-3.83,-0.39,-0.37,-0.40
380.33,4.09,4.48,4.11,4.51,-4.52,-4.41,-3.76,-0.43,-0.41,-0.39
384.13,4.09,4.48,4.01,4.40,-4.46,-4.34,-3.70,-0.37,-0.45,-0.39
387.97,3.90,4.28,3.98,4.36,-4.39,-4.27,-3.63,-0.49,-0.42,-0.39
391.85,3.90,4.29,3.94,4.33,-4.33,-4.19,-3.58,-0.43,-0.39,-0.39
395.77,3.99,4.39,3.85,4.25,-4.27,-4.12,-3.52,-0.28,-0.41,-0.40
399.73,3.78,4.19,3.83,4.24,-4.21,-4.05,-3.46,-0.43,-0.37,-0.41
403.72,3.68,4.08,3.78,4.19,-4.14,-3.98,-3.41,-0.46,-0.36,-0.40
407.76,3.80,4.21,3.67,4.09,-4.08,-3.91,-3.36,-0.28,-0.41,-0.41
411.84,3.61,4.03,3.59,4.02,-4.01,-3.83,-3.31,-0.40,-0.41,-0.42
415.96,3.41,3.83,3.49,3.92,-3.92,-3.76,-3.26,-0.51,-0.43,-0.43
420.12,3.39,3.82,3.37,3.80,-3.83,-3.69,-3.22,-0.44,-0.46,-0.44
424.32,3.33,3.76,3.32,3.74,-3.75,-3.61,-3.17,-0.42,-0.43,-0.43
428.56,3.27,3.68,3.26,3.68,-3.66,-3.54,-3.13,-0.39,-0.40,-0.41
432.85,3.20,3.59,3.19,3.58,-3.58,-3.46,-3.09,-0.38,-0.40,-0.39
437.18,3.10,3.47,3.12,3.49,-3.51,-3.39,-3.05,-0.41,-0.39,-0.37
441.55,3.07,3.41,3.07,3.41,-3.44,-3.31,-3.01,-0.37,-0.36,-0.34
445.96,3.06,3.36,3.07,3.37,-3.36,-3.24,-2.97,-0.30,-0.29,-0.30
450.42,3.07,3.32,3.06,3.32,-3.29,-3.16,-2.93,-0.22,-0.23,-0.25
454.93,3.07,3.27,3.03,3.24,-3.21,-3.09,-2.88,-0.14,-0.18,-0.20
459.48,2.98,3.13,3.02,3.16,-3.14,-3.01,-2.84,-0.17,-0.13,-0.16
464.07,2.95,3.03,2.96,3.05,-3.08,-2.93,-2.80,-0.13,-0.11,-0.09
468.71,3.00,3.03,2.91,2.94,-3.01,-2.86,-2.76,-0.01,-0.10,-0.03
473.40,2.84,2.82,2.94,2.91,-2.93,-2.78,-2.72,-0.09,0.02,0.02
478.13,2.92,2.84,2.96,2.88,-2.84,-2.70,-2.67,0.08,0.12,0.08
482.91,3.09,2.96,2.93,2.80,-2.76,-2.63,-2.63,0.33,0.17,0.13
487.74,2.87,2.69,2.90,2.72,-2.69,-2.55,-2.58,0.18,0.21,0.18
492.62,2.75,2.53,2.82,2.60,-2.62,-2.47,-2.53,0.13,0.20,0.22
497.55,2.75,2.50,2.73,2.48,-2.54,-2.39,-2.48,0.21,0.19,0.25
502.52,2.74,2.46,2.71,2.43,-2.46,-2.31,-2.43,0.28,0.26,0.28
507.55,2.68,2.37,2.69,2.38,-2.36,-2.24,-2.38,0.31,0.32,0.31
