frequency,raw,error,smoothed,error_smoothed,equalization,parametric_eq,fixed_band_eq,equalized_raw,equalized_smoothed,target
20.00,-2.43,-6.93,-2.44,-6.94,6.00,5.75,2.33,3.57,3.56,4.50
20.20,-2.35,-6.86,-2.35,-6.86,6.00,5.78,2.39,3.65,3.65,4.51
20.40,-2.27,-6.79,-2.27,-6.78,6.00,5.82,2.46,3.73,3.73,4.52
20.61,-2.19,-6.71,-2.19,-6.71,6.00,5.85,2.53,3.81,3.81,4.52
20.81,-2.10,-6.63,-2.11,-6.63,6.00,5.89,2.60,3.90,3.89,4.53
21.02,-2.03,-6.56,-2.04,-6.57,6.00,5.92,2.68,3.97,3.96,4.53
21.23,-1.98,-6.52,-1.98,-6.52,6.00,5.94,2.76,4.02,4.02,4.54
21.44,-1.94,-6.48,-1.94,-6.48,6.00,5.97,2.84,4.06,4.06,4.54
21.66,-1.90,-6.44,-1.90,-6.44,6.00,5.99,2.92,4.10,4.10,4.54
21.87,-1.85,-6.39,-1.86,-6.40,6.00,6.01,3.00,4.15,4.14,4.54
22.09,-1.82,-6.37,-1.82,-6.37,6.00,6.02,3.09,4.18,4.18,4.55
22.31,-1.79,-6.34,-1.79,-6.33,6.00,6.04,3.18,4.21,4.21,4.55
22.54,-1.75,-6.29,-1.76,-6.30,6.00,6.05,3.27,4.25,4.25,4.54
22.76,-1.72,-6.25,-1.72,-6.26,6.01,6.05,3.36,4.28,4.28,4.53
22.99,-1.69,-6.22,-1.69,-6.21,6.01,6.06,3.46,4.32,4.32,4.53
23.22,-1.65,-6.18,-1.65,-6.17,6.01,6.06,3.55,4.36,4.36,4.53
23.45,-1.60,-6.12,-1.61,-6.13,6.01,6.06,3.65,4.40,4.40,4.52
23.69,-1.56,-6.08,-1.56,-6.08,5.99,6.06,3.75,4.43,4.43,4.52
23.92,-1.51,-6.03,-1.51,-6.03,5.97,6.05,3.86,4.46,4.46,4.52
24.16,-1.46,-5.98,-1.46,-5.98,5.95,6.04,3.96,4.48,4.48,4.51
24.40,-1.41,-5.93,-1.41,-5.92,5.91,6.03,4.07,4.50,4.51,4.51
24.65,-1.35,-5.87,-1.35,-5.87,5.87,6.01,4.18,4.52,4.52,4.51
24.89,-1.29,-5.81,-1.30,-5.81,5.83,6.00,4.29,4.54,4.53,4.51
25.14,-1.25,-5.76,-1.25,-5.76,5.78,5.98,4.40,4.53,4.53,4.51
25.39,-1.21,-5.71,-1.21,-5.72,5.73,5.96,4.51,4.52,4.52,4.50
25.65,-1.17,-5.67,-1.17,-5.68,5.67,5.93,4.62,4.50,4.50,4.50
25.91,-1.13,-5.63,-1.13,-5.63,5.62,5.90,4.73,4.49,4.49,4.50
26.16,-1.09,-5.59,-1.09,-5.59,5.58,5.88,4.84,4.49,4.49,4.50
26.43,-1.03,-5.53,-1.04,-5.54,5.53,5.84,4.95,4.50,4.50,4.50
26.69,-0.98,-5.48,-0.98,-5.48,5.49,5.81,5.06,4.51,4.51,4.50
26.96,-0.93,-5.43,-0.93,-5.43,5.45,5.78,5.17,4.52,4.51,4.50
27.23,-0.89,-5.39,-0.89,-5.39,5.40,5.74,5.27,4.51,4.51,4.50
27.50,-0.86,-5.36,-0.86,-5.36,5.35,5.70,5.37,4.49,4.49,4.50
27.77,-0.83,-5.33,-0.83,-5.33,5.31,5.66,5.47,4.48,4.48,4.50
28.05,-0.80,-5.30,-0.79,-5.29,5.27,5.62,5.56,4.46,4.47,4.50
28.33,-0.74,-5.24,-0.74,-5.24,5.23,5.57,5.65,4.49,4.49,4.50
28.62,-0.68,-5.18,-0.68,-5.18,5.20,5.53,5.74,4.52,4.52,4.49
28.90,-0.62,-5.13,-0.63,-5.13,5.17,5.48,5.82,4.55,4.54,4.50
29.19,-0.60,-5.11,-0.61,-5.11,5.14,5.43,5.89,4.54,4.53,4.50
29.48,-0.61,-5.11,-0.61,-5.12,5.11,5.38,5.95,4.50,4.50,4.50
29.78,-0.62,-5.13,-0.61,-5.12,5.08,5.34,6.01,4.46,4.47,4.51
30.08,-0.60,-5.11,-0.59,-5.10,5.06,5.29,6.06,4.46,4.47,4.51
30.38,-0.54,-5.05,-0.54,-5.05,5.04,5.23,6.10,4.49,4.49,4.51
30.68,-0.48,-4.99,-0.48,-4.99,5.01,5.18,6.13,4.53,4.53,4.51
30.99,-0.42,-4.93,-0.44,-4.94,4.98,5.13,6.15,4.56,4.54,4.51
31.30,-0.41,-4.92,-0.42,-4.92,4.94,5.08,6.16,4.53,4.53,4.51
31.61,-0.41,-4.92,-0.41,-4.91,4.90,5.02,6.17,4.49,4.49,4.50
31.93,-0.40,-4.91,-0.39,-4.89,4.86,4.97,6.16,4.46,4.47,4.50
32.24,-0.36,-4.85,-0.35,-4.85,4.83,4.92,6.15,4.47,4.48,4.49
32.57,-0.30,-4.79,-0.30,-4.79,4.80,4.86,6.13,4.50,4.50,4.49
32.89,-0.24,-4.73,-0.25,-4.74,4.77,4.81,6.10,4.53,4.52,4.49
33.22,-0.22,-4.70,-0.23,-4.71,4.74,4.76,6.06,4.51,4.50,4.48
33.55,-0.23,-4.71,-0.23,-4.70,4.69,4.70,6.01,4.46,4.46,4.48
33.89,-0.24,-4.71,-0.22,-4.69,4.65,4.65,5.96,4.41,4.43,4.46
34.23,-0.19,-4.65,-0.19,-4.65,4.61,4.60,5.91,4.42,4.43,4.46
34.57,-0.12,-4.58,-0.12,-4.58,4.58,4.55,5.84,4.46,4.45,4.46
34.92,-0.05,-4.51,-0.07,-4.52,4.55,4.49,5.78,4.50,4.49,4.46
35.27,-0.02,-4.48,-0.03,-4.48,4.53,4.44,5.71,4.51,4.50,4.46
35.62,-0.02,-4.48,-0.01,-4.47,4.51,4.39,5.63,4.48,4.49,4.45
35.97,-0.01,-4.46,-0.02,-4.47,4.48,4.34,5.56,4.47,4.46,4.45
36.33,-0.02,-4.47,-0.03,-4.48,4.45,4.29,5.48,4.43,4.42,4.45
36.70,-0.02,-4.47,-0.02,-4.47,4.42,4.25,5.40,4.40,4.40,4.45
37.06,-0.02,-4.47,0.01,-4.44,4.40,4.20,5.32,4.37,4.40,4.45
37.43,0.07,-4.37,0.07,-4.38,4.37,4.15,5.24,4.44,4.44,4.44
37.81,0.16,-4.29,0.14,-4.31,4.34,4.11,5.16,4.49,4.47,4.45
38.19,0.20,-4.25,0.19,-4.26,4.30,4.06,5.08,4.50,4.49,4.45
38.57,0.21,-4.24,0.21,-4.24,4.26,4.02,5.00,4.47,4.48,4.45
38.95,0.22,-4.23,0.22,-4.23,4.22,3.98,4.93,4.44,4.45,4.45
39.34,0.24,-4.21,0.24,-4.21,4.19,3.94,4.85,4.43,4.43,4.45
39.74,0.26,-4.19,0.26,-4.18,4.16,3.90,4.78,4.42,4.43,4.45
40.14,0.30,-4.15,0.30,-4.14,4.14,3.86,4.71,4.44,4.44,4.44
40.54,0.34,-4.10,0.34,-4.10,4.11,3.82,4.64,4.45,4.45,4.44
40.94,0.38,-4.06,0.37,-4.07,4.08,3.79,4.57,4.46,4.44,4.44
41.35,0.39,-4.04,0.38,-4.05,4.04,3.75,4.51,4.43,4.42,4.43
41.76,0.39,-4.03,0.40,-4.02,4.00,3.72,4.45,4.39,4.40,4.42
42.18,0.42,-4.00,0.43,-3.98,3.97,3.69,4.39,4.39,4.40,4.41
42.60,0.48,-3.93,0.47,-3.94,3.95,3.66,4.33,4.42,4.42,4.41
43.03,0.53,-3.88,0.50,-3.90,3.93,3.64,4.28,4.46,4.43,4.41
43.46,0.51,-3.89,0.51,-3.89,3.92,3.61,4.23,4.43,4.43,4.40
43.90,0.49,-3.90,0.50,-3.89,3.91,3.59,4.19,4.40,4.41,4.39
44.33,0.49,-3.90,0.49,-3.90,3.90,3.57,4.14,4.39,4.39,4.38
44.78,0.49,-3.89,0.48,-3.90,3.88,3.56,4.10,4.37,4.36,4.38
45.23,0.48,-3.90,0.46,-3.91,3.86,3.54,4.07,4.34,4.32,4.37
45.68,0.46,-3.91,0.47,-3.90,3.84,3.53,4.03,4.29,4.31,4.37
46.13,0.49,-3.88,0.53,-3.84,3.81,3.52,4.00,4.30,4.34,4.37
46.60,0.62,-3.75,0.61,-3.76,3.78,3.51,3.98,4.39,4.38,4.37
47.06,0.73,-3.64,0.68,-3.69,3.74,3.51,3.95,4.47,4.42,4.37
47.53,0.71,-3.67,0.71,-3.66,3.72,3.51,3.93,4.43,4.43,4.37
48.01,0.69,-3.69,0.71,-3.67,3.70,3.51,3.91,4.39,4.40,4.38
48.49,0.69,-3.69,0.69,-3.69,3.68,3.52,3.90,4.37,4.37,4.38
48.97,0.69,-3.70,0.69,-3.70,3.67,3.53,3.89,4.36,4.36,4.38
49.46,0.69,-3.70,0.69,-3.70,3.68,3.54,3.87,4.36,4.36,4.39
49.96,0.69,-3.71,0.69,-3.71,3.69,3.56,3.87,4.37,4.37,4.40
50.46,0.69,-3.71,0.69,-3.72,3.71,3.58,3.86,4.39,4.39,4.40
50.96,0.69,-3.73,0.70,-3.71,3.73,3.60,3.85,4.42,4.44,4.41
51.47,0.70,-3.72,0.71,-3.71,3.76,3.63,3.85,4.46,4.47,4.42
51.99,0.72,-3.70,0.67,-3.75,3.80,3.66,3.85,4.52,4.47,4.42
52.51,0.61,-3.81,0.61,-3.81,3.83,3.70,3.85,4.44,4.44,4.42
53.03,0.51,-3.91,0.54,-3.89,3.86,3.74,3.85,4.37,4.39,4.42
53.56,0.48,-3.94,0.48,-3.95,3.88,3.78,3.85,4.35,4.35,4.42
54.10,0.47,-3.96,0.47,-3.96,3.88,3.82,3.85,4.35,4.36,4.43
54.64,0.50,-3.93,0.50,-3.93,3.89,3.87,3.85,4.38,4.38,4.43
55.18,0.54,-3.89,0.53,-3.90,3.88,3.92,3.85,4.42,4.41,4.43
55.74,0.57,-3.85,0.58,-3.85,3.88,3.97,3.85,4.44,4.45,4.42
56.29,0.60,-3.82,0.60,-3.82,3.88,4.02,3.85,4.48,4.48,4.42
56.86,0.61,-3.81,0.58,-3.83,3.89,4.08,3.85,4.50,4.48,4.42
57.42,0.53,-3.88,0.53,-3.88,3.93,4.13,3.85,4.46,4.46,4.40
58.00,0.42,-3.97,0.44,-3.96,3.99,4.18,3.84,4.41,4.42,4.39
58.58,0.33,-4.05,0.32,-4.06,4.06,4.22,3.83,4.39,4.38,4.38
59.16,0.22,-4.15,0.21,-4.16,4.14,4.26,3.82,4.35,4.35,4.37
59.76,0.09,-4.26,0.09,-4.26,4.22,4.29,3.81,4.31,4.32,4.35
60.35,-0.00,-4.33,0.00,-4.33,4.30,4.32,3.79,4.29,4.30,4.33
60.96,-0.07,-4.38,-0.05,-4.35,4.35,4.33,3.77,4.28,4.30,4.30
61.57,-0.07,-4.35,-0.09,-4.37,4.38,4.34,3.75,4.31,4.29,4.28
62.18,-0.10,-4.35,-0.14,-4.38,4.38,4.33,3.72,4.28,4.24,4.24
62.80,-0.20,-4.41,-0.18,-4.38,4.35,4.31,3.69,4.15,4.18,4.21
63.43,-0.20,-4.36,-0.18,-4.35,4.30,4.28,3.66,4.10,4.12,4.16
64.07,-0.14,-4.27,-0.13,-4.25,4.23,4.24,3.62,4.08,4.09,4.12
64.71,-0.02,-4.10,-0.04,-4.12,4.14,4.19,3.58,4.11,4.09,4.08
65.35,0.06,-3.98,0.04,-4.00,4.04,4.12,3.53,4.10,4.07,4.04
66.01,0.09,-3.91,0.10,-3.90,3.93,4.05,3.49,4.01,4.03,4.00
66.67,0.16,-3.80,0.17,-3.79,3.80,3.96,3.43,3.96,3.97,3.96
67.33,0.25,-3.68,0.25,-3.67,3.67,3.87,3.38,3.92,3.93,3.93
68.01,0.37,-3.52,0.35,-3.55,3.54,3.77,3.32,3.91,3.88,3.89
68.69,0.43,-3.43,0.42,-3.44,3.41,3.67,3.26,3.84,3.83,3.86
69.37,0.50,-3.33,0.52,-3.31,3.29,3.56,3.20,3.79,3.81,3.83
70.07,0.59,-3.21,0.64,-3.16,3.17,3.46,3.14,3.76,3.81,3.80
70.77,0.81,-2.96,0.75,-3.02,3.05,3.35,3.07,3.86,3.80,3.77
71.48,0.86,-2.88,0.84,-2.90,2.94,3.24,3.01,3.79,3.77,3.74
72.19,0.86,-2.85,0.89,-2.82,2.83,3.13,2.94,3.69,3.72,3.71
72.91,0.92,-2.76,0.92,-2.76,2.73,3.02,2.87,3.65,3.65,3.67
73.64,0.97,-2.67,0.97,-2.67,2.65,2.92,2.80,3.62,3.61,3.64
74.38,1.03,-2.58,1.05,-2.56,2.57,2.82,2.73,3.60,3.62,3.60
75.12,1.10,-2.47,1.09,-2.48,2.50,2.72,2.66,3.60,3.59,3.57
75.87,1.16,-2.36,1.10,-2.42,2.43,2.62,2.59,3.59,3.53,3.52
76.63,1.07,-2.42,1.11,-2.37,2.36,2.53,2.52,3.43,3.47,3.48
77.40,1.08,-2.36,1.12,-2.32,2.30,2.44,2.45,3.37,3.42,3.44
78.17,1.19,-2.21,1.14,-2.25,2.24,2.35,2.38,3.42,3.38,3.40
78.95,1.19,-2.16,1.18,-2.17,2.18,2.27,2.31,3.37,3.37,3.35
79.74,1.19,-2.12,1.20,-2.11,2.14,2.19,2.24,3.33,3.34,3.31
80.54,1.19,-2.07,1.19,-2.07,2.09,2.12,2.17,3.28,3.28,3.26
81.35,1.19,-2.03,1.19,-2.03,2.04,2.05,2.10,3.23,3.23,3.22
82.16,1.19,-1.99,1.18,-1.99,1.98,1.98,2.03,3.17,3.17,3.18
82.98,1.19,-1.95,1.18,-1.95,1.92,1.91,1.97,3.11,3.11,3.14
83.81,1.19,-1.91,1.20,-1.89,1.86,1.85,1.90,3.05,3.06,3.09
84.65,1.24,-1.82,1.24,-1.82,1.79,1.79,1.84,3.03,3.03,3.06
85.50,1.30,-1.72,1.29,-1.72,1.72,1.73,1.78,3.02,3.02,3.02
86.35,1.35,-1.63,1.35,-1.63,1.65,1.67,1.72,3.00,3.00,2.97
87.22,1.39,-1.54,1.38,-1.55,1.58,1.62,1.66,2.97,2.96,2.93
88.09,1.40,-1.49,1.40,-1.49,1.51,1.57,1.60,2.91,2.91,2.88
88.97,1.40,-1.45,1.40,-1.44,1.45,1.52,1.54,2.85,2.85,2.85
89.86,1.40,-1.41,1.40,-1.40,1.40,1.47,1.48,2.80,2.80,2.80
90.76,1.40,-1.36,1.40,-1.36,1.35,1.43,1.43,2.75,2.75,2.76
91.66,1.40,-1.32,1.40,-1.32,1.31,1.39,1.37,2.71,2.71,2.72
92.58,1.40,-1.29,1.40,-1.28,1.28,1.35,1.32,2.67,2.67,2.68
93.51,1.40,-1.24,1.40,-1.24,1.24,1.31,1.27,2.64,2.64,2.64
94.44,1.40,-1.20,1.40,-1.20,1.20,1.27,1.22,2.60,2.60,2.60
95.39,1.40,-1.16,1.40,-1.16,1.16,1.23,1.17,2.56,2.56,2.56
96.34,1.40,-1.12,1.39,-1.13,1.13,1.20,1.12,2.53,2.53,2.52
97.30,1.39,-1.10,1.39,-1.09,1.10,1.16,1.07,2.49,2.49,2.48
98.28,1.38,-1.06,1.38,-1.06,1.07,1.13,1.02,2.45,2.45,2.44
99.26,1.37,-1.03,1.36,-1.03,1.04,1.10,0.98,2.41,2.41,2.40
100.25,1.35,-1.01,1.35,-1.01,1.00,1.07,0.93,2.35,2.35,2.36
101.25,1.33,-0.99,1.33,-0.99,0.96,1.04,0.89,2.29,2.28,2.32
102.27,1.32,-0.95,1.31,-0.96,0.91,1.02,0.85,2.23,2.22,2.27
103.29,1.31,-0.91,1.33,-0.89,0.87,0.99,0.80,2.17,2.20,2.22
104.32,1.35,-0.82,1.37,-0.81,0.82,0.96,0.76,2.17,2.19,2.17
105.37,1.44,-0.69,1.39,-0.74,0.78,0.94,0.72,2.22,2.17,2.13
106.42,1.40,-0.68,1.39,-0.69,0.74,0.91,0.68,2.14,2.13,2.08
107.48,1.33,-0.70,1.35,-0.68,0.71,0.89,0.65,2.03,2.05,2.03
108.56,1.29,-0.70,1.29,-0.69,0.67,0.87,0.61,1.96,1.97,1.98
109.64,1.27,-0.67,1.26,-0.67,0.65,0.85,0.57,1.92,1.91,1.93
110.74,1.25,-0.65,1.24,-0.65,0.63,0.83,0.54,1.88,1.88,1.89
111.85,1.23,-0.63,1.23,-0.62,0.61,0.81,0.51,1.84,1.84,1.86
112.97,1.22,-0.60,1.22,-0.60,0.59,0.79,0.47,1.81,1.81,1.82
114.10,1.22,-0.56,1.22,-0.56,0.57,0.77,0.44,1.78,1.78,1.78
115.24,1.22,-0.53,1.22,-0.53,0.54,0.75,0.41,1.75,1.75,1.75
116.39,1.22,-0.49,1.22,-0.50,0.50,0.73,0.38,1.72,1.72,1.71
117.55,1.22,-0.48,1.22,-0.47,0.47,0.71,0.35,1.69,1.69,1.69
118.73,1.23,-0.44,1.22,-0.44,0.45,0.70,0.33,1.67,1.67,1.67
119.92,1.23,-0.42,1.23,-0.42,0.42,0.68,0.30,1.65,1.65,1.65
121.12,1.24,-0.40,1.24,-0.39,0.39,0.67,0.27,1.63,1.63,1.63
122.33,1.25,-0.37,1.25,-0.37,0.37,0.65,0.25,1.62,1.62,1.62
123.55,1.26,-0.34,1.25,-0.35,0.35,0.64,0.23,1.60,1.60,1.60
124.79,1.26,-0.33,1.26,-0.32,0.33,0.62,0.21,1.58,1.59,1.59
126.03,1.27,-0.30,1.27,-0.30,0.30,0.61,0.18,1.57,1.57,1.57
127.29,1.28,-0.28,1.27,-0.28,0.28,0.59,0.17,1.56,1.56,1.56
128.57,1.28,-0.26,1.28,-0.26,0.26,0.58,0.15,1.54,1.54,1.54
129.85,1.29,-0.24,1.29,-0.24,0.24,0.57,0.13,1.53,1.53,1.53
131.15,1.29,-0.23,1.29,-0.22,0.22,0.56,0.11,1.51,1.51,1.52
132.46,1.30,-0.20,1.30,-0.20,0.20,0.54,0.10,1.50,1.50,1.49
133.79,1.30,-0.18,1.30,-0.18,0.18,0.53,0.08,1.48,1.48,1.48
135.12,1.31,-0.15,1.30,-0.16,0.16,0.52,0.07,1.47,1.46,1.46
136.48,1.31,-0.14,1.31,-0.14,0.14,0.51,0.05,1.45,1.45,1.45
137.84,1.31,-0.12,1.31,-0.12,0.12,0.50,0.04,1.43,1.43,1.43
139.22,1.32,-0.09,1.31,-0.10,0.10,0.49,0.03,1.41,1.41,1.41
140.61,1.32,-0.07,1.32,-0.07,0.07,0.48,0.02,1.39,1.39,1.39
142.02,1.32,-0.05,1.32,-0.05,0.04,0.47,0.01,1.36,1.36,1.37
143.44,1.32,-0.03,1.32,-0.03,0.02,0.46,-0.00,1.33,1.33,1.34
144.87,1.32,0.00,1.32,0.00,-0.01,0.45,-0.01,1.31,1.31,1.32
146.32,1.32,0.03,1.32,0.03,-0.02,0.44,-0.02,1.29,1.29,1.29
147.78,1.32,0.06,1.33,0.08,-0.04,0.43,-0.03,1.28,1.29,1.25
149.26,1.32,0.10,1.32,0.10,-0.06,0.42,-0.04,1.26,1.26,1.22
150.75,1.32,0.15,1.26,0.09,-0.09,0.41,-0.05,1.23,1.18,1.17
152.26,1.19,0.07,1.21,0.09,-0.12,0.41,-0.06,1.07,1.09,1.12
153.78,1.12,0.05,1.17,0.11,-0.16,0.40,-0.07,0.95,1.01,1.06
155.32,1.19,0.19,1.17,0.16,-0.21,0.39,-0.08,0.98,0.95,1.00
156.88,1.22,0.27,1.19,0.25,-0.26,0.38,-0.08,0.95,0.93,0.95
158.44,1.22,0.33,1.23,0.34,-0.32,0.37,-0.09,0.90,0.91,0.89
160.03,1.22,0.38,1.26,0.42,-0.38,0.37,-0.10,0.84,0.88,0.83
161.63,1.30,0.50,1.25,0.46,-0.44,0.36,-0.11,0.86,0.81,0.79
163.24,1.28,0.53,1.25,0.50,-0.49,0.35,-0.12,0.79,0.76,0.74
164.88,1.16,0.44,1.25,0.53,-0.52,0.35,-0.13,0.64,0.72,0.71
166.53,1.27,0.58,1.22,0.54,-0.54,0.34,-0.14,0.72,0.68,0.68
168.19,1.24,0.57,1.22,0.55,-0.55,0.33,-0.14,0.69,0.66,0.67
169.87,1.19,0.53,1.22,0.56,-0.55,0.33,-0.15,0.64,0.67,0.66
171.57,1.19,0.54,1.18,0.53,-0.54,0.32,-0.16,0.65,0.65,0.65
173.29,1.18,0.52,1.18,0.52,-0.52,0.32,-0.17,0.65,0.65,0.65
175.02,1.18,0.51,1.17,0.51,-0.51,0.31,-0.18,0.67,0.67,0.67
176.77,1.17,0.49,1.17,0.49,-0.49,0.30,-0.19,0.68,0.68,0.68
178.54,1.17,0.47,1.17,0.47,-0.47,0.30,-0.20,0.70,0.70,0.69
180.32,1.17,0.45,1.17,0.45,-0.46,0.29,-0.21,0.71,0.71,0.72
182.13,1.18,0.44,1.18,0.44,-0.44,0.29,-0.22,0.73,0.73,0.74
183.95,1.19,0.43,1.19,0.43,-0.44,0.28,-0.24,0.75,0.74,0.76
185.79,1.20,0.43,1.20,0.43,-0.45,0.28,-0.25,0.75,0.76,0.77
187.65,1.22,0.44,1.21,0.44,-0.45,0.27,-0.26,0.77,0.77,0.77
189.52,1.23,0.45,1.23,0.45,-0.45,0.27,-0.27,0.78,0.78,0.78
191.42,1.24,0.46,1.24,0.46,-0.45,0.27,-0.28,0.79,0.79,0.78
193.33,1.26,0.47,1.26,0.48,-0.45,0.26,-0.29,0.80,0.81,0.79
195.27,1.27,0.48,1.28,0.49,-0.46,0.26,-0.31,0.81,0.81,0.78
197.22,1.29,0.51,1.24,0.47,-0.47,0.25,-0.32,0.82,0.78,0.77
199.19,1.21,0.44,1.20,0.43,-0.47,0.25,-0.33,0.74,0.73,0.77
201.18,1.12,0.36,1.19,0.43,-0.46,0.25,-0.34,0.66,0.73,0.76
203.19,1.20,0.45,1.21,0.46,-0.46,0.24,-0.36,0.74,0.75,0.75
205.23,1.31,0.57,1.22,0.48,-0.45,0.24,-0.37,0.86,0.78,0.74
207.28,1.21,0.48,1.21,0.48,-0.44,0.23,-0.38,0.77,0.77,0.73
209.35,1.12,0.39,1.16,0.44,-0.43,0.23,-0.39,0.68,0.73,0.72
211.44,1.11,0.40,1.11,0.40,-0.43,0.23,-0.41,0.68,0.67,0.70
213.56,1.11,0.41,1.10,0.40,-0.43,0.22,-0.42,0.68,0.67,0.70
215.69,1.10,0.42,1.10,0.42,-0.43,0.22,-0.43,0.67,0.67,0.68
217.85,1.10,0.43,1.09,0.43,-0.43,0.22,-0.44,0.67,0.67,0.67
220.03,1.09,0.44,1.09,0.44,-0.43,0.22,-0.45,0.66,0.66,0.65
222.23,1.09,0.44,1.09,0.44,-0.44,0.21,-0.46,0.65,0.65,0.64
224.45,1.09,0.45,1.09,0.45,-0.45,0.21,-0.47,0.63,0.63,0.64
226.70,1.09,0.46,1.09,0.46,-0.47,0.21,-0.48,0.62,0.62,0.63
228.96,1.10,0.47,1.09,0.47,-0.47,0.20,-0.49,0.62,0.62,0.62
231.25,1.10,0.47,1.10,0.48,-0.48,0.20,-0.50,0.62,0.62,0.63
233.57,1.11,0.49,1.12,0.50,-0.48,0.20,-0.50,0.63,0.64,0.62
235.90,1.13,0.50,1.12,0.50,-0.48,0.20,-0.51,0.65,0.64,0.62
238.26,1.14,0.51,1.10,0.47,-0.47,0.20,-0.52,0.66,0.63,0.63
240.64,1.07,0.42,1.10,0.46,-0.46,0.19,-0.52,0.60,0.64,0.64
243.05,1.06,0.41,1.10,0.45,-0.45,0.19,-0.52,0.61,0.65,0.65
245.48,1.17,0.51,1.10,0.44,-0.44,0.19,-0.53,0.73,0.66,0.65
247.93,1.09,0.43,1.09,0.43,-0.43,0.19,-0.53,0.66,0.67,0.66
250.41,1.05,0.38,1.08,0.41,-0.42,0.19,-0.53,0.63,0.66,0.66
252.92,1.05,0.38,1.05,0.38,-0.41,0.18,-0.53,0.64,0.64,0.67
255.45,1.07,0.40,1.06,0.39,-0.41,0.18,-0.53,0.66,0.65,0.66
258.00,1.07,0.41,1.07,0.41,-0.41,0.18,-0.52,0.66,0.66,0.66
260.58,1.08,0.42,1.08,0.42,-0.41,0.18,-0.52,0.67,0.67,0.66
263.19,1.08,0.43,1.08,0.43,-0.42,0.18,-0.51,0.66,0.66,0.65
265.82,1.08,0.43,1.08,0.43,-0.43,0.18,-0.51,0.65,0.65,0.65
268.48,1.08,0.43,1.07,0.43,-0.45,0.18,-0.50,0.63,0.63,0.64
271.16,1.07,0.43,1.07,0.43,-0.45,0.17,-0.49,0.61,0.62,0.64
273.87,1.07,0.43,1.06,0.42,-0.45,0.17,-0.49,0.62,0.62,0.64
276.61,1.07,0.43,1.08,0.45,-0.42,0.17,-0.48,0.65,0.66,0.63
279.38,1.07,0.44,1.11,0.47,-0.39,0.17,-0.47,0.68,0.72,0.63
282.17,1.14,0.50,1.07,0.43,-0.36,0.17,-0.46,0.78,0.71,0.64
284.99,1.04,0.39,0.98,0.34,-0.33,0.17,-0.44,0.71,0.65,0.65
287.84,0.80,0.16,0.89,0.24,-0.30,0.17,-0.43,0.50,0.59,0.64
290.72,0.79,0.14,0.83,0.18,-0.27,0.17,-0.42,0.52,0.56,0.65
293.63,0.90,0.24,0.84,0.19,-0.25,0.17,-0.41,0.65,0.60,0.66
296.57,0.92,0.25,0.91,0.25,-0.24,0.17,-0.40,0.68,0.67,0.66
299.53,0.93,0.27,0.94,0.27,-0.25,0.17,-0.38,0.68,0.69,0.66
302.53,0.94,0.27,0.94,0.27,-0.27,0.17,-0.37,0.67,0.67,0.67
305.55,0.95,0.28,0.94,0.28,-0.29,0.17,-0.36,0.65,0.65,0.67
308.61,0.96,0.29,0.98,0.31,-0.30,0.16,-0.34,0.65,0.67,0.67
311.69,0.99,0.32,1.00,0.34,-0.29,0.16,-0.33,0.69,0.71,0.66
314.81,1.05,0.40,1.01,0.35,-0.27,0.16,-0.32,0.78,0.74,0.65
317.96,0.97,0.32,0.95,0.30,-0.24,0.16,-0.30,0.73,0.71,0.65
321.14,0.86,0.22,0.85,0.21,-0.22,0.16,-0.29,0.64,0.63,0.64
324.35,0.71,0.07,0.75,0.12,-0.20,0.16,-0.28,0.51,0.55,0.64
327.59,0.70,0.07,0.72,0.09,-0.18,0.16,-0.26,0.51,0.53,0.62
330.87,0.75,0.13,0.72,0.10,-0.17,0.16,-0.25,0.58,0.55,0.61
334.18,0.77,0.17,0.76,0.16,-0.16,0.16,-0.24,0.60,0.60,0.60
337.52,0.77,0.18,0.80,0.21,-0.16,0.16,-0.22,0.61,0.64,0.59
340.90,0.84,0.25,0.81,0.22,-0.16,0.16,-0.21,0.68,0.65,0.59
344.30,0.82,0.24,0.78,0.21,-0.16,0.17,-0.20,0.66,0.63,0.58
347.75,0.71,0.15,0.75,0.19,-0.15,0.17,-0.19,0.56,0.60,0.56
351.23,0.67,0.12,0.69,0.14,-0.14,0.17,-0.17,0.53,0.55,0.54
354.74,0.67,0.13,0.62,0.09,-0.13,0.17,-0.16,0.54,0.49,0.53
358.28,0.58,0.06,0.58,0.05,-0.12,0.17,-0.15,0.46,0.46,0.52
361.87,0.51,-0.00,0.55,0.04,-0.11,0.17,-0.14,0.40,0.44,0.51
365.49,0.56,0.07,0.57,0.08,-0.10,0.17,-0.13,0.45,0.47,0.49
369.14,0.63,0.15,0.62,0.14,-0.10,0.17,-0.11,0.53,0.52,0.48
372.83,0.69,0.22,0.63,0.17,-0.09,0.17,-0.10,0.60,0.54,0.47
376.56,0.58,0.12,0.61,0.15,-0.08,0.17,-0.09,0.50,0.53,0.46
380.33,0.52,0.07,0.52,0.08,-0.06,0.17,-0.08,0.46,0.47,0.45
384.13,0.47,0.03,0.44,0.00,-0.04,0.17,-0.07,0.43,0.40,0.44
387.97,0.36,-0.07,0.41,-0.01,-0.01,0.17,-0.06,0.34,0.40,0.42
391.85,0.38,-0.04,0.37,-0.05,0.01,0.18,-0.05,0.39,0.38,0.41
395.77,0.39,-0.02,0.32,-0.09,0.04,0.18,-0.04,0.43,0.36,0.40
399.73,0.26,-0.13,0.31,-0.08,0.07,0.18,-0.03,0.32,0.38,0.39
403.72,0.26,-0.12,0.32,-0.06,0.08,0.18,-0.02,0.34,0.40,0.38
407.76,0.39,0.03,0.33,-0.03,0.09,0.18,-0.01,0.47,0.42,0.36
411.84,0.37,0.02,0.32,-0.03,0.08,0.18,0.00,0.45,0.40,0.35
415.96,0.25,-0.09,0.25,-0.09,0.08,0.18,0.01,0.32,0.33,0.34
420.12,0.15,-0.19,0.19,-0.14,0.07,0.19,0.02,0.22,0.26,0.34
424.32,0.16,-0.17,0.22,-0.11,0.06,0.19,0.03,0.22,0.28,0.33
428.56,0.34,0.01,0.28,-0.05,0.06,0.19,0.04,0.40,0.34,0.33
432.85,0.40,0.06,0.33,-0.00,0.05,0.19,0.05,0.44,0.38,0.34
437.18,0.30,-0.05,0.34,-0.01,0.03,0.19,0.06,0.33,0.37,0.35
441.55,0.31,-0.06,0.32,-0.04,0.02,0.19,0.07,0.32,0.34,0.37
445.96,0.35,-0.04,0.36,-0.03,-0.00,0.20,0.08,0.35,0.36,0.39
450.42,0.44,0.02,0.43,0.01,-0.01,0.20,0.08,0.43,0.42,0.42
454.93,0.52,0.06,0.48,0.02,0.01,0.20,0.09,0.52,0.48,0.45
459.48,0.48,-0.02,0.50,0.01,0.02,0.20,0.10,0.50,0.52,0.49
464.07,0.49,-0.04,0.50,-0.02,0.04,0.20,0.11,0.53,0.54,0.52
468.71,0.51,-0.06,0.50,-0.07,0.05,0.21,0.11,0.56,0.55,0.56
473.40,0.52,-0.09,0.50,-0.10,0.07,0.21,0.12,0.59,0.57,0.60
478.13,0.50,-0.15,0.51,-0.13,0.10,0.21,0.13,0.60,0.61,0.64
482.91,0.51,-0.16,0.54,-0.14,0.15,0.21,0.13,0.65,0.68,0.67
487.74,0.57,-0.13,0.57,-0.13,0.19,0.22,0.14,0.75,0.76,0.70
492.62,0.62,-0.10,0.57,-0.16,0.21,0.22,0.15,0.83,0.78,0.72
497.55,0.54,-0.20,0.53,-0.21,0.23,0.22,0.15,0.76,0.75,0.74
502.52,0.43,-0.32,0.46,-0.29,0.22,0.23,0.16,0.65,0.68,0.75
507.55,0.42,-0.33,0.43,-0.32,0.21,0.23,0.16,0.63,0.65,0.75
512.62,0.46,-0.28,0.47,-0.27,0.20,0.23,0.17,0.66,0.67,0.74
517.75,0.56,-0.16,0.55,-0.18,0.19,0.23,0.17,0.75,0.74,0.72
522.93,0.62,-0.08,0.60,-0.09,0.17,0.24,0.18,0.79,0.77,0.70
528.16,0.61,-0.05,0.61,-0.05,0.14,0.24,0.18,0.75,0.75,0.66
533.44,0.56,-0.05,0.53,-0.09,0.11,0.24,0.19,0.67,0.64,0.61
538.77,0.43,-0.13,0.43,-0.12,0.09,0.25,0.19,0.52,0.53,0.56
544.16,0.31,-0.19,0.38,-0.12,0.09,0.25,0.19,0.39,0.47,0.50
549.60,0.36,-0.08,0.33,-0.10,0.09,0.25,0.20,0.45,0.42,0.44
555.10,0.36,-0.01,0.28,-0.08,0.09,0.26,0.20,0.45,0.38,0.37
560.65,0.18,-0.12,0.21,-0.09,0.10,0.26,0.20,0.27,0.31,0.30
566.25,0.09,-0.14,0.11,-0.12,0.10,0.26,0.21,0.18,0.20,0.23
