frequency,raw,error,smoothed,error_smoothed,equalization,parametric_eq,fixed_band_eq,equalized_raw,equalized_smoothed,target
20.00,-9.72,-6.15,-9.72,-6.15,6.08,5.76,1.39,-3.64,-3.64,-3.57
20.20,-9.66,-6.09,-9.66,-6.09,6.01,5.74,1.43,-3.65,-3.65,-3.57
20.40,-9.60,-6.03,-9.58,-6.01,5.94,5.71,1.47,-3.66,-3.64,-3.57
20.61,-9.49,-5.92,-9.49,-5.92,5.86,5.68,1.51,-3.63,-3.63,-3.57
20.81,-9.38,-5.81,-9.38,-5.81,5.78,5.64,1.56,-3.59,-3.60,-3.57
21.02,-9.27,-5.70,-9.27,-5.70,5.70,5.59,1.60,-3.57,-3.57,-3.56
21.23,-9.16,-5.59,-9.16,-5.60,5.61,5.54,1.65,-3.54,-3.55,-3.56
21.44,-9.07,-5.51,-9.06,-5.50,5.53,5.48,1.70,-3.55,-3.54,-3.56
21.66,-8.97,-5.41,-8.97,-5.41,5.42,5.41,1.75,-3.55,-3.55,-3.56
21.87,-8.87,-5.32,-8.88,-5.32,5.32,5.34,1.80,-3.56,-3.56,-3.56
22.09,-8.80,-5.24,-8.78,-5.22,5.22,5.27,1.85,-3.57,-3.56,-3.56
22.31,-8.68,-5.13,-8.69,-5.13,5.13,5.19,1.91,-3.55,-3.56,-3.56
22.54,-8.58,-5.02,-8.59,-5.04,5.04,5.11,1.96,-3.54,-3.55,-3.55
22.76,-8.52,-4.96,-8.50,-4.95,4.95,5.03,2.02,-3.57,-3.55,-3.55
22.99,-8.41,-4.86,-8.41,-4.86,4.86,4.94,2.08,-3.55,-3.55,-3.55
23.22,-8.32,-4.77,-8.32,-4.77,4.77,4.85,2.14,-3.55,-3.55,-3.55
23.45,-8.24,-4.69,-8.23,-4.68,4.68,4.76,2.20,-3.56,-3.55,-3.55
23.69,-8.13,-4.58,-8.14,-4.59,4.59,4.66,2.26,-3.54,-3.55,-3.55
23.92,-8.06,-4.51,-8.05,-4.50,4.50,4.57,2.32,-3.55,-3.54,-3.55
24.16,-7.96,-4.41,-7.96,-4.41,4.41,4.47,2.39,-3.54,-3.55,-3.54
24.40,-7.87,-4.32,-7.87,-4.33,4.32,4.38,2.45,-3.54,-3.54,-3.54
24.65,-7.79,-4.25,-7.78,-4.24,4.23,4.28,2.52,-3.55,-3.54,-3.54
24.89,-7.68,-4.13,-7.69,-4.15,4.14,4.18,2.58,-3.53,-3.55,-3.54
25.14,-7.61,-4.07,-7.59,-4.06,4.05,4.09,2.65,-3.55,-3.54,-3.54
25.39,-7.50,-3.97,-7.50,-3.96,3.97,3.99,2.72,-3.54,-3.54,-3.54
25.65,-7.40,-3.86,-7.41,-3.87,3.88,3.89,2.78,-3.52,-3.53,-3.54
25.91,-7.33,-3.79,-7.32,-3.78,3.79,3.80,2.85,-3.54,-3.53,-3.53
26.16,-7.23,-3.69,-7.23,-3.70,3.70,3.70,2.91,-3.52,-3.53,-3.53
26.43,-7.16,-3.63,-7.15,-3.62,3.61,3.61,2.98,-3.54,-3.54,-3.53
26.69,-7.05,-3.52,-7.06,-3.53,3.52,3.51,3.04,-3.52,-3.54,-3.53
26.96,-6.99,-3.46,-6.97,-3.44,3.44,3.42,3.10,-3.55,-3.53,-3.53
27.23,-6.88,-3.35,-6.88,-3.35,3.35,3.33,3.16,-3.53,-3.53,-3.53
27.50,-6.79,-3.26,-6.79,-3.26,3.26,3.24,3.22,-3.52,-3.53,-3.53
27.77,-6.70,-3.18,-6.70,-3.17,3.18,3.15,3.27,-3.53,-3.52,-3.53
28.05,-6.61,-3.08,-6.61,-3.09,3.09,3.06,3.32,-3.51,-3.52,-3.52
28.33,-6.54,-3.01,-6.53,-3.01,3.01,2.98,3.37,-3.53,-3.52,-3.52
28.62,-6.45,-2.93,-6.45,-2.93,2.93,2.89,3.41,-3.52,-3.52,-3.52
28.90,-6.37,-2.85,-6.37,-2.85,2.85,2.81,3.45,-3.52,-3.52,-3.52
29.19,-6.30,-2.78,-6.29,-2.77,2.77,2.73,3.48,-3.53,-3.52,-3.52
29.48,-6.20,-2.68,-6.21,-2.69,2.69,2.65,3.51,-3.51,-3.52,-3.52
29.78,-6.14,-2.62,-6.13,-2.61,2.61,2.57,3.53,-3.53,-3.52,-3.52
30.08,-6.04,-2.52,-6.04,-2.53,2.53,2.50,3.54,-3.51,-3.51,-3.51
30.38,-5.97,-2.45,-5.96,-2.45,2.45,2.42,3.55,-3.52,-3.51,-3.51
30.68,-5.88,-2.37,-5.88,-2.37,2.38,2.35,3.56,-3.50,-3.50,-3.51
30.99,-5.81,-2.30,-5.80,-2.29,2.30,2.27,3.55,-3.51,-3.51,-3.51
31.30,-5.73,-2.22,-5.73,-2.22,2.23,2.20,3.54,-3.50,-3.51,-3.51
31.61,-5.67,-2.16,-5.66,-2.16,2.15,2.13,3.52,-3.51,-3.51,-3.51
31.93,-5.60,-2.09,-5.59,-2.08,2.08,2.07,3.50,-3.52,-3.51,-3.51
32.24,-5.52,-2.01,-5.52,-2.01,2.01,2.00,3.47,-3.51,-3.51,-3.50
32.57,-5.44,-1.93,-5.44,-1.94,1.94,1.93,3.43,-3.50,-3.50,-3.50
32.89,-5.38,-1.87,-5.37,-1.87,1.87,1.87,3.39,-3.50,-3.50,-3.50
33.22,-5.31,-1.81,-5.30,-1.80,1.80,1.81,3.34,-3.50,-3.50,-3.50
33.55,-5.23,-1.73,-5.23,-1.73,1.74,1.75,3.28,-3.49,-3.50,-3.50
33.89,-5.17,-1.67,-5.16,-1.67,1.67,1.69,3.22,-3.50,-3.50,-3.50
34.23,-5.10,-1.60,-5.10,-1.60,1.60,1.63,3.16,-3.50,-3.50,-3.50
34.57,-5.04,-1.54,-5.03,-1.54,1.53,1.57,3.09,-3.51,-3.50,-3.49
34.92,-4.97,-1.47,-4.96,-1.47,1.46,1.51,3.01,-3.50,-3.50,-3.49
35.27,-4.89,-1.40,-4.89,-1.40,1.40,1.46,2.93,-3.49,-3.49,-3.49
35.62,-4.81,-1.32,-4.81,-1.32,1.33,1.40,2.85,-3.48,-3.48,-3.49
35.97,-4.76,-1.27,-4.75,-1.26,1.26,1.35,2.77,-3.49,-3.48,-3.49
36.33,-4.68,-1.19,-4.68,-1.20,1.20,1.29,2.68,-3.48,-3.48,-3.49
36.70,-4.63,-1.14,-4.62,-1.14,1.14,1.24,2.60,-3.49,-3.49,-3.49
37.06,-4.57,-1.08,-4.56,-1.07,1.07,1.19,2.50,-3.49,-3.49,-3.49
37.43,-4.50,-1.01,-4.50,-1.02,1.01,1.14,2.41,-3.48,-3.49,-3.48
37.81,-4.44,-0.95,-4.44,-0.96,0.95,1.09,2.32,-3.49,-3.49,-3.48
38.19,-4.39,-0.91,-4.37,-0.89,0.89,1.04,2.23,-3.49,-3.48,-3.48
38.57,-4.31,-0.83,-4.31,-0.83,0.84,0.99,2.13,-3.47,-3.48,-3.48
38.95,-4.25,-0.77,-4.25,-0.78,0.78,0.95,2.04,-3.46,-3.47,-3.48
39.34,-4.21,-0.73,-4.20,-0.72,0.73,0.90,1.94,-3.48,-3.47,-3.48
39.74,-4.16,-0.68,-4.15,-0.68,0.68,0.85,1.85,-3.48,-3.47,-3.48
40.14,-4.11,-0.63,-4.11,-0.63,0.63,0.81,1.75,-3.47,-3.48,-3.47
40.54,-4.06,-0.58,-4.06,-0.59,0.58,0.76,1.66,-3.47,-3.48,-3.47
40.94,-4.02,-0.54,-4.01,-0.54,0.54,0.72,1.56,-3.48,-3.48,-3.47
41.35,-3.97,-0.50,-3.97,-0.50,0.49,0.68,1.47,-3.48,-3.47,-3.47
41.76,-3.92,-0.45,-3.91,-0.44,0.44,0.63,1.38,-3.47,-3.47,-3.47
42.18,-3.86,-0.39,-3.86,-0.39,0.39,0.59,1.28,-3.46,-3.47,-3.47
42.60,-3.81,-0.34,-3.81,-0.34,0.34,0.55,1.19,-3.47,-3.47,-3.47
43.03,-3.76,-0.29,-3.75,-0.29,0.29,0.51,1.10,-3.47,-3.46,-3.46
43.46,-3.70,-0.23,-3.70,-0.24,0.24,0.47,1.01,-3.46,-3.46,-3.46
43.90,-3.65,-0.19,-3.65,-0.19,0.19,0.43,0.92,-3.46,-3.46,-3.46
44.33,-3.60,-0.14,-3.60,-0.14,0.14,0.38,0.83,-3.46,-3.46,-3.46
44.78,-3.56,-0.10,-3.55,-0.09,0.09,0.34,0.74,-3.47,-3.46,-3.46
45.23,-3.50,-0.04,-3.50,-0.04,0.04,0.30,0.65,-3.46,-3.46,-3.46
45.68,-3.45,0.01,-3.45,0.00,-0.01,0.27,0.56,-3.45,-3.46,-3.46
46.13,-3.42,0.04,-3.40,0.05,-0.05,0.23,0.48,-3.47,-3.45,-3.45
46.60,-3.36,0.10,-3.36,0.09,-0.09,0.19,0.39,-3.45,-3.45,-3.45
47.06,-3.32,0.14,-3.32,0.13,-0.13,0.15,0.30,-3.44,-3.45,-3.45
47.53,-3.30,0.15,-3.29,0.17,-0.16,0.11,0.22,-3.46,-3.44,-3.45
48.01,-3.25,0.20,-3.26,0.19,-0.19,0.07,0.14,-3.44,-3.45,-3.45
48.49,-3.24,0.21,-3.23,0.21,-0.22,0.03,0.05,-3.45,-3.45,-3.45
48.97,-3.21,0.24,-3.21,0.24,-0.24,-0.01,-0.03,-3.45,-3.45,-3.45
49.46,-3.20,0.25,-3.19,0.25,-0.26,-0.04,-0.11,-3.46,-3.45,-3.45
49.96,-3.16,0.29,-3.16,0.28,-0.28,-0.08,-0.19,-3.44,-3.44,-3.44
50.46,-3.16,0.29,-3.14,0.30,-0.30,-0.12,-0.27,-3.45,-3.44,-3.44
50.96,-3.11,0.33,-3.12,0.32,-0.31,-0.16,-0.35,-3.42,-3.44,-3.44
51.47,-3.11,0.33,-3.11,0.33,-0.33,-0.20,-0.42,-3.44,-3.44,-3.44
51.99,-3.11,0.33,-3.09,0.35,-0.35,-0.23,-0.50,-3.46,-3.44,-3.44
52.51,-3.07,0.37,-3.08,0.36,-0.37,-0.27,-0.57,-3.44,-3.45,-3.44
53.03,-3.07,0.37,-3.06,0.38,-0.39,-0.31,-0.65,-3.45,-3.44,-3.44
53.56,-3.02,0.42,-3.03,0.41,-0.41,-0.35,-0.72,-3.42,-3.43,-3.43
54.10,-3.02,0.42,-3.00,0.43,-0.42,-0.38,-0.79,-3.44,-3.43,-3.43
54.64,-2.98,0.45,-2.98,0.45,-0.44,-0.42,-0.85,-3.42,-3.43,-3.43
55.18,-2.97,0.46,-2.97,0.46,-0.46,-0.46,-0.92,-3.43,-3.43,-3.43
55.74,-2.97,0.46,-2.95,0.48,-0.47,-0.50,-0.98,-3.44,-3.43,-3.43
56.29,-2.94,0.49,-2.94,0.49,-0.48,-0.53,-1.04,-3.42,-3.43,-3.43
56.86,-2.93,0.50,-2.93,0.49,-0.49,-0.57,-1.10,-3.42,-3.42,-3.43
57.42,-2.93,0.50,-2.92,0.50,-0.49,-0.61,-1.15,-3.42,-3.42,-3.42
58.00,-2.93,0.50,-2.93,0.50,-0.49,-0.65,-1.21,-3.42,-3.42,-3.42
58.58,-2.93,0.50,-2.93,0.50,-0.49,-0.68,-1.25,-3.42,-3.42,-3.42
59.16,-2.93,0.49,-2.93,0.49,-0.49,-0.72,-1.30,-3.41,-3.41,-3.42
59.76,-2.93,0.49,-2.93,0.49,-0.49,-0.76,-1.34,-3.41,-3.42,-3.42
60.35,-2.93,0.49,-2.92,0.49,-0.50,-0.79,-1.38,-3.42,-3.42,-3.42
60.96,-2.92,0.50,-2.91,0.50,-0.51,-0.83,-1.42,-3.43,-3.43,-3.42
61.57,-2.88,0.54,-2.89,0.53,-0.54,-0.86,-1.45,-3.42,-3.43,-3.41
62.18,-2.86,0.56,-2.84,0.57,-0.59,-0.90,-1.47,-3.44,-3.43,-3.41
62.80,-2.78,0.64,-2.78,0.63,-0.65,-0.94,-1.50,-3.42,-3.43,-3.41
63.43,-2.71,0.70,-2.70,0.71,-0.72,-0.97,-1.52,-3.43,-3.42,-3.41
64.07,-2.60,0.81,-2.61,0.80,-0.81,-1.01,-1.53,-3.40,-3.41,-3.41
64.71,-2.52,0.89,-2.51,0.90,-0.90,-1.04,-1.55,-3.42,-3.41,-3.41
65.35,-2.41,1.00,-2.40,1.00,-1.00,-1.07,-1.56,-3.41,-3.40,-3.41
66.01,-2.30,1.11,-2.30,1.10,-1.10,-1.11,-1.56,-3.40,-3.40,-3.41
66.67,-2.20,1.21,-2.20,1.21,-1.20,-1.14,-1.57,-3.39,-3.39,-3.40
67.33,-2.11,1.30,-2.10,1.30,-1.29,-1.17,-1.57,-3.39,-3.39,-3.40
68.01,-2.02,1.38,-2.02,1.38,-1.37,-1.21,-1.56,-3.39,-3.40,-3.40
68.69,-1.96,1.44,-1.95,1.45,-1.44,-1.24,-1.56,-3.40,-3.39,-3.40
69.37,-1.90,1.50,-1.89,1.51,-1.50,-1.27,-1.55,-3.40,-3.39,-3.40
70.07,-1.83,1.57,-1.84,1.56,-1.55,-1.30,-1.54,-3.38,-3.39,-3.40
70.77,-1.81,1.59,-1.80,1.60,-1.59,-1.32,-1.53,-3.40,-3.40,-3.40
71.48,-1.77,1.63,-1.77,1.63,-1.62,-1.35,-1.52,-3.39,-3.39,-3.39
72.19,-1.76,1.64,-1.75,1.65,-1.65,-1.38,-1.51,-3.40,-3.39,-3.39
72.91,-1.72,1.68,-1.73,1.67,-1.66,-1.40,-1.49,-3.38,-3.39,-3.39
73.64,-1.72,1.67,-1.72,1.67,-1.67,-1.43,-1.47,-3.39,-3.39,-3.39
74.38,-1.72,1.67,-1.71,1.68,-1.68,-1.45,-1.46,-3.39,-3.39,-3.39
75.12,-1.72,1.67,-1.72,1.67,-1.68,-1.47,-1.44,-3.39,-3.39,-3.39
75.87,-1.72,1.67,-1.72,1.67,-1.68,-1.49,-1.42,-3.39,-3.39,-3.39
76.63,-1.72,1.67,-1.72,1.67,-1.67,-1.51,-1.40,-3.39,-3.39,-3.38
77.40,-1.72,1.67,-1.71,1.67,-1.67,-1.53,-1.38,-3.38,-3.38,-3.38
78.17,-1.72,1.67,-1.72,1.66,-1.66,-1.55,-1.37,-3.38,-3.38,-3.38
78.95,-1.72,1.66,-1.72,1.66,-1.65,-1.56,-1.35,-3.37,-3.37,-3.38
79.74,-1.74,1.64,-1.73,1.65,-1.65,-1.58,-1.33,-3.38,-3.38,-3.38
80.54,-1.74,1.64,-1.74,1.64,-1.64,-1.59,-1.31,-3.37,-3.38,-3.38
81.35,-1.76,1.62,-1.75,1.62,-1.63,-1.60,-1.30,-3.39,-3.38,-3.38
82.16,-1.76,1.62,-1.76,1.62,-1.62,-1.61,-1.28,-3.38,-3.38,-3.37
82.98,-1.76,1.62,-1.76,1.62,-1.62,-1.61,-1.26,-3.38,-3.38,-3.37
83.81,-1.76,1.62,-1.76,1.62,-1.62,-1.62,-1.25,-3.37,-3.37,-3.37
84.65,-1.76,1.61,-1.76,1.61,-1.61,-1.62,-1.24,-3.37,-3.37,-3.37
85.50,-1.76,1.61,-1.76,1.61,-1.61,-1.63,-1.22,-3.37,-3.37,-3.37
86.35,-1.76,1.61,-1.76,1.61,-1.61,-1.63,-1.21,-3.37,-3.37,-3.37
87.22,-1.76,1.61,-1.76,1.61,-1.61,-1.63,-1.20,-3.37,-3.37,-3.37
88.09,-1.76,1.61,-1.75,1.61,-1.61,-1.63,-1.19,-3.36,-3.36,-3.37
88.97,-1.76,1.61,-1.75,1.61,-1.60,-1.62,-1.18,-3.36,-3.36,-3.36
89.86,-1.76,1.61,-1.76,1.60,-1.59,-1.62,-1.17,-3.35,-3.36,-3.36
90.76,-1.78,1.58,-1.78,1.58,-1.58,-1.61,-1.17,-3.36,-3.36,-3.36
91.66,-1.81,1.55,-1.79,1.57,-1.57,-1.61,-1.16,-3.37,-3.36,-3.36
92.58,-1.81,1.55,-1.81,1.55,-1.55,-1.60,-1.15,-3.36,-3.36,-3.36
93.51,-1.81,1.55,-1.83,1.53,-1.54,-1.59,-1.15,-3.34,-3.36,-3.36
94.44,-1.86,1.50,-1.84,1.52,-1.52,-1.58,-1.15,-3.38,-3.35,-3.36
95.39,-1.86,1.50,-1.86,1.50,-1.50,-1.57,-1.14,-3.36,-3.36,-3.35
96.34,-1.86,1.50,-1.87,1.48,-1.48,-1.55,-1.14,-3.34,-3.35,-3.35
97.30,-1.90,1.46,-1.88,1.47,-1.46,-1.54,-1.14,-3.36,-3.35,-3.35
98.28,-1.90,1.45,-1.91,1.44,-1.44,-1.52,-1.14,-3.34,-3.35,-3.35
99.26,-1.94,1.41,-1.93,1.42,-1.42,-1.51,-1.14,-3.36,-3.35,-3.35
100.25,-1.95,1.40,-1.95,1.40,-1.40,-1.49,-1.14,-3.35,-3.35,-3.35
101.25,-1.97,1.38,-1.97,1.38,-1.38,-1.48,-1.15,-3.35,-3.35,-3.35
102.27,-1.99,1.36,-1.98,1.36,-1.36,-1.46,-1.15,-3.35,-3.34,-3.34
103.29,-1.99,1.36,-2.00,1.34,-1.34,-1.44,-1.15,-3.33,-3.34,-3.34
104.32,-2.03,1.32,-2.01,1.33,-1.32,-1.42,-1.16,-3.35,-3.34,-3.34
105.37,-2.04,1.30,-2.03,1.31,-1.30,-1.40,-1.16,-3.34,-3.34,-3.34
106.42,-2.04,1.30,-2.06,1.28,-1.29,-1.38,-1.16,-3.32,-3.34,-3.34
107.48,-2.09,1.25,-2.07,1.27,-1.27,-1.36,-1.17,-3.36,-3.34,-3.34
108.56,-2.09,1.25,-2.09,1.25,-1.25,-1.34,-1.17,-3.34,-3.34,-3.34
109.64,-2.09,1.25,-2.10,1.23,-1.24,-1.32,-1.18,-3.32,-3.34,-3.34
110.74,-2.13,1.21,-2.11,1.22,-1.22,-1.30,-1.18,-3.35,-3.33,-3.33
111.85,-2.13,1.21,-2.12,1.21,-1.21,-1.28,-1.18,-3.33,-3.33,-3.33
112.97,-2.13,1.20,-2.14,1.19,-1.19,-1.26,-1.19,-3.32,-3.33,-3.33
114.10,-2.15,1.18,-2.15,1.18,-1.18,-1.24,-1.19,-3.32,-3.33,-3.33
115.24,-2.18,1.15,-2.16,1.17,-1.16,-1.22,-1.19,-3.34,-3.32,-3.33
116.39,-2.18,1.15,-2.18,1.15,-1.15,-1.20,-1.20,-3.32,-3.33,-3.33
117.55,-2.18,1.15,-2.20,1.13,-1.13,-1.18,-1.20,-3.31,-3.33,-3.33
118.73,-2.23,1.10,-2.21,1.12,-1.12,-1.16,-1.20,-3.34,-3.32,-3.32
119.92,-2.23,1.10,-2.22,1.10,-1.10,-1.14,-1.20,-3.33,-3.33,-3.32
121.12,-2.23,1.09,-2.24,1.08,-1.09,-1.12,-1.19,-3.31,-3.33,-3.32
122.33,-2.26,1.06,-2.25,1.07,-1.07,-1.10,-1.19,-3.33,-3.32,-3.32
123.55,-2.27,1.05,-2.26,1.06,-1.06,-1.09,-1.19,-3.32,-3.31,-3.32
124.79,-2.27,1.05,-2.27,1.05,-1.04,-1.07,-1.18,-3.31,-3.31,-3.32
126.03,-2.27,1.05,-2.28,1.03,-1.03,-1.05,-1.18,-3.30,-3.31,-3.32
127.29,-2.32,1.00,-2.30,1.02,-1.02,-1.03,-1.17,-3.33,-3.31,-3.31
128.57,-2.32,1.00,-2.31,1.00,-1.00,-1.01,-1.16,-3.32,-3.31,-3.31
129.85,-2.32,1.00,-2.33,0.99,-0.99,-0.99,-1.15,-3.30,-3.31,-3.31
131.15,-2.33,0.98,-2.34,0.97,-0.97,-0.98,-1.14,-3.30,-3.31,-3.31
132.46,-2.37,0.94,-2.35,0.96,-0.96,-0.96,-1.13,-3.32,-3.31,-3.31
133.79,-2.37,0.94,-2.36,0.95,-0.95,-0.94,-1.12,-3.31,-3.31,-3.31
135.12,-2.37,0.94,-2.37,0.93,-0.93,-0.93,-1.11,-3.30,-3.31,-3.31
136.48,-2.37,0.94,-2.38,0.93,-0.92,-0.91,-1.09,-3.29,-3.30,-3.30
137.84,-2.41,0.90,-2.39,0.91,-0.91,-0.90,-1.08,-3.32,-3.31,-3.30
139.22,-2.41,0.90,-2.40,0.90,-0.90,-0.88,-1.06,-3.31,-3.31,-3.30
140.61,-2.41,0.89,-2.41,0.89,-0.89,-0.87,-1.05,-3.30,-3.30,-3.30
142.02,-2.41,0.89,-2.41,0.89,-0.88,-0.85,-1.03,-3.29,-3.29,-3.30
143.44,-2.42,0.88,-2.43,0.87,-0.87,-0.84,-1.01,-3.28,-3.29,-3.30
144.87,-2.46,0.84,-2.44,0.86,-0.85,-0.82,-1.00,-3.31,-3.29,-3.30
146.32,-2.46,0.84,-2.46,0.84,-0.84,-0.81,-0.98,-3.29,-3.30,-3.30
147.78,-2.46,0.84,-2.48,0.82,-0.82,-0.80,-0.96,-3.28,-3.30,-3.29
149.26,-2.51,0.79,-2.49,0.80,-0.81,-0.78,-0.95,-3.31,-3.30,-3.29
150.75,-2.51,0.78,-2.50,0.79,-0.79,-0.77,-0.93,-3.30,-3.29,-3.29
152.26,-2.51,0.78,-2.51,0.78,-0.78,-0.76,-0.91,-3.28,-3.29,-3.29
153.78,-2.51,0.78,-2.52,0.77,-0.77,-0.75,-0.89,-3.27,-3.29,-3.29
155.32,-2.55,0.74,-2.53,0.75,-0.76,-0.74,-0.88,-3.30,-3.29,-3.29
156.88,-2.55,0.74,-2.54,0.74,-0.75,-0.73,-0.86,-3.29,-3.29,-3.29
158.44,-2.55,0.74,-2.55,0.73,-0.74,-0.72,-0.84,-3.29,-3.29,-3.28
160.03,-2.55,0.74,-2.54,0.74,-0.73,-0.71,-0.83,-3.28,-3.27,-3.28
161.63,-2.55,0.73,-2.55,0.73,-0.72,-0.70,-0.81,-3.27,-3.27,-3.28
163.24,-2.56,0.72,-2.57,0.71,-0.71,-0.69,-0.80,-3.27,-3.28,-3.28
164.88,-2.60,0.68,-2.58,0.70,-0.70,-0.68,-0.78,-3.30,-3.28,-3.28
166.53,-2.60,0.68,-2.59,0.69,-0.69,-0.67,-0.77,-3.28,-3.28,-3.28
168.19,-2.60,0.68,-2.60,0.67,-0.67,-0.66,-0.75,-3.27,-3.28,-3.28
169.87,-2.60,0.68,-2.61,0.66,-0.66,-0.65,-0.74,-3.26,-3.27,-3.27
171.57,-2.65,0.63,-2.63,0.64,-0.64,-0.65,-0.73,-3.29,-3.27,-3.27
173.29,-2.65,0.63,-2.64,0.63,-0.63,-0.64,-0.71,-3.28,-3.27,-3.27
175.02,-2.65,0.62,-2.65,0.62,-0.62,-0.63,-0.70,-3.27,-3.27,-3.27
176.77,-2.65,0.62,-2.66,0.61,-0.61,-0.63,-0.69,-3.26,-3.27,-3.27
178.54,-2.68,0.59,-2.67,0.60,-0.60,-0.62,-0.68,-3.28,-3.27,-3.27
180.32,-2.69,0.58,-2.68,0.58,-0.59,-0.61,-0.67,-3.28,-3.27,-3.27
182.13,-2.69,0.58,-2.69,0.58,-0.58,-0.61,-0.66,-3.27,-3.27,-3.26
183.95,-2.69,0.58,-2.68,0.58,-0.57,-0.60,-0.65,-3.26,-3.26,-3.26
185.79,-2.69,0.58,-2.69,0.57,-0.56,-0.60,-0.64,-3.25,-3.25,-3.26
187.65,-2.69,0.57,-2.70,0.56,-0.55,-0.59,-0.63,-3.24,-3.25,-3.26
189.52,-2.73,0.53,-2.72,0.54,-0.55,-0.59,-0.63,-3.27,-3.26,-3.26
191.42,-2.74,0.52,-2.73,0.53,-0.54,-0.58,-0.62,-3.27,-3.27,-3.26
193.33,-2.74,0.52,-2.74,0.52,-0.53,-0.58,-0.61,-3.27,-3.27,-3.26
195.27,-2.74,0.52,-2.74,0.52,-0.52,-0.58,-0.61,-3.25,-3.25,-3.26
197.22,-2.74,0.52,-2.73,0.52,-0.51,-0.57,-0.60,-3.24,-3.24,-3.25
199.19,-2.74,0.52,-2.74,0.51,-0.50,-0.57,-0.59,-3.23,-3.24,-3.25
201.18,-2.76,0.49,-2.76,0.49,-0.49,-0.57,-0.59,-3.24,-3.25,-3.25
203.19,-2.79,0.46,-2.78,0.47,-0.48,-0.56,-0.58,-3.27,-3.26,-3.25
205.23,-2.79,0.46,-2.79,0.46,-0.47,-0.56,-0.58,-3.26,-3.26,-3.25
207.28,-2.79,0.46,-2.79,0.46,-0.47,-0.56,-0.58,-3.25,-3.25,-3.25
209.35,-2.79,0.46,-2.79,0.46,-0.46,-0.56,-0.57,-3.25,-3.25,-3.25
211.44,-2.79,0.46,-2.79,0.46,-0.45,-0.56,-0.57,-3.24,-3.24,-3.24
213.56,-2.79,0.46,-2.79,0.46,-0.45,-0.55,-0.57,-3.24,-3.24,-3.24
215.69,-2.79,0.45,-2.79,0.45,-0.45,-0.55,-0.56,-3.24,-3.24,-3.24
217.85,-2.79,0.45,-2.79,0.45,-0.45,-0.55,-0.56,-3.24,-3.24,-3.24
220.03,-2.79,0.45,-2.79,0.45,-0.45,-0.55,-0.56,-3.24,-3.24,-3.24
222.23,-2.79,0.45,-2.79,0.45,-0.45,-0.55,-0.55,-3.24,-3.24,-3.24
224.45,-2.79,0.45,-2.79,0.45,-0.45,-0.55,-0.55,-3.24,-3.24,-3.24
226.70,-2.79,0.45,-2.79,0.45,-0.45,-0.55,-0.55,-3.23,-3.23,-3.23
228.96,-2.79,0.45,-2.79,0.45,-0.45,-0.55,-0.55,-3.23,-3.23,-3.23
231.25,-2.79,0.45,-2.79,0.45,-0.45,-0.55,-0.54,-3.23,-3.23,-3.23
233.57,-2.79,0.44,-2.79,0.44,-0.44,-0.55,-0.54,-3.23,-3.23,-3.23
235.90,-2.79,0.44,-2.79,0.44,-0.44,-0.56,-0.54,-3.23,-3.23,-3.23
238.26,-2.79,0.44,-2.79,0.44,-0.44,-0.56,-0.54,-3.22,-3.22,-3.23
240.64,-2.79,0.44,-2.79,0.44,-0.44,-0.56,-0.53,-3.22,-3.22,-3.23
243.05,-2.79,0.44,-2.79,0.44,-0.44,-0.56,-0.53,-3.22,-3.22,-3.22
245.48,-2.79,0.44,-2.79,0.43,-0.44,-0.56,-0.53,-3.23,-3.23,-3.22
247.93,-2.79,0.44,-2.79,0.44,-0.44,-0.56,-0.52,-3.23,-3.23,-3.22
250.41,-2.79,0.43,-2.78,0.45,-0.45,-0.57,-0.52,-3.24,-3.22,-3.22
252.92,-2.76,0.46,-2.76,0.46,-0.46,-0.57,-0.52,-3.21,-3.22,-3.22
255.45,-2.74,0.48,-2.74,0.47,-0.46,-0.57,-0.51,-3.20,-3.21,-3.22
258.00,-2.74,0.48,-2.74,0.48,-0.47,-0.58,-0.51,-3.21,-3.21,-3.22
260.58,-2.74,0.48,-2.73,0.48,-0.48,-0.58,-0.51,-3.22,-3.22,-3.22
263.19,-2.74,0.48,-2.72,0.49,-0.50,-0.58,-0.50,-3.23,-3.22,-3.21
265.82,-2.70,0.52,-2.71,0.51,-0.51,-0.59,-0.50,-3.20,-3.21,-3.21
268.48,-2.69,0.52,-2.70,0.52,-0.52,-0.59,-0.49,-3.20,-3.21,-3.21
271.16,-2.69,0.52,-2.68,0.53,-0.52,-0.59,-0.49,-3.21,-3.21,-3.21
273.87,-2.69,0.52,-2.67,0.54,-0.54,-0.60,-0.48,-3.22,-3.21,-3.21
276.61,-2.65,0.56,-2.66,0.55,-0.55,-0.60,-0.48,-3.19,-3.21,-3.21
279.38,-2.65,0.56,-2.65,0.55,-0.56,-0.60,-0.48,-3.20,-3.21,-3.21
282.17,-2.65,0.56,-2.64,0.57,-0.57,-0.61,-0.47,-3.21,-3.20,-3.20
284.99,-2.64,0.57,-2.63,0.58,-0.58,-0.61,-0.47,-3.21,-3.20,-3.20
287.84,-2.60,0.60,-2.61,0.59,-0.59,-0.62,-0.46,-3.18,-3.20,-3.20
290.72,-2.60,0.60,-2.60,0.60,-0.60,-0.62,-0.46,-3.19,-3.20,-3.20
293.63,-2.60,0.60,-2.59,0.61,-0.61,-0.63,-0.45,-3.21,-3.20,-3.20
296.57,-2.60,0.60,-2.58,0.62,-0.62,-0.63,-0.45,-3.22,-3.20,-3.20
299.53,-2.55,0.65,-2.57,0.63,-0.63,-0.64,-0.44,-3.18,-3.20,-3.20
302.53,-2.55,0.65,-2.55,0.65,-0.64,-0.64,-0.44,-3.19,-3.19,-3.19
305.55,-2.55,0.65,-2.53,0.66,-0.66,-0.64,-0.43,-3.20,-3.19,-3.19
308.61,-2.51,0.69,-2.52,0.67,-0.67,-0.65,-0.43,-3.18,-3.20,-3.19
311.69,-2.51,0.68,-2.51,0.68,-0.69,-0.65,-0.43,-3.19,-3.19,-3.19
314.81,-2.51,0.68,-2.49,0.70,-0.70,-0.66,-0.42,-3.21,-3.19,-3.19
317.96,-2.46,0.73,-2.47,0.71,-0.72,-0.66,-0.42,-3.17,-3.19,-3.19
321.14,-2.46,0.73,-2.45,0.74,-0.74,-0.66,-0.41,-3.19,-3.18,-3.19
324.35,-2.43,0.76,-2.43,0.76,-0.75,-0.67,-0.41,-3.18,-3.18,-3.18
327.59,-2.41,0.78,-2.41,0.77,-0.77,-0.67,-0.41,-3.18,-3.19,-3.18
330.87,-2.41,0.78,-2.40,0.79,-0.79,-0.67,-0.41,-3.20,-3.19,-3.18
334.18,-2.37,0.81,-2.38,0.81,-0.81,-0.67,-0.40,-3.18,-3.19,-3.18
337.52,-2.37,0.81,-2.35,0.83,-0.83,-0.67,-0.40,-3.20,-3.18,-3.18
340.90,-2.32,0.86,-2.33,0.85,-0.85,-0.67,-0.40,-3.16,-3.18,-3.18
344.30,-2.32,0.86,-2.32,0.86,-0.86,-0.67,-0.40,-3.18,-3.18,-3.18
347.75,-2.32,0.86,-2.31,0.86,-0.87,-0.66,-0.40,-3.18,-3.18,-3.18
351.23,-2.32,0.86,-2.31,0.86,-0.86,-0.66,-0.39,-3.18,-3.18,-3.17
354.74,-2.32,0.86,-2.31,0.86,-0.85,-0.65,-0.39,-3.17,-3.17,-3.17
358.28,-2.32,0.85,-2.33,0.84,-0.83,-0.65,-0.39,-3.14,-3.16,-3.17
361.87,-2.37,0.80,-2.36,0.81,-0.79,-0.64,-0.39,-3.16,-3.15,-3.17
365.49,-2.42,0.75,-2.41,0.76,-0.74,-0.62,-0.39,-3.16,-3.16,-3.17
369.14,-2.48,0.69,-2.48,0.69,-0.68,-0.61,-0.39,-3.16,-3.16,-3.17
372.83,-2.55,0.62,-2.54,0.62,-0.62,-0.59,-0.39,-3.16,-3.16,-3.17
376.56,-2.63,0.54,-2.62,0.54,-0.54,-0.57,-0.39,-3.17,-3.16,-3.16
380.33,-2.69,0.48,-2.70,0.46,-0.47,-0.55,-0.39,-3.15,-3.17,-3.16
384.13,-2.79,0.38,-2.77,0.39,-0.40,-0.52,-0.39,-3.18,-3.17,-3.16
387.97,-2.85,0.31,-2.84,0.32,-0.33,-0.49,-0.40,-3.17,-3.17,-3.16
391.85,-2.90,0.26,-2.91,0.25,-0.27,-0.46,-0.40,-3.16,-3.17,-3.16
395.77,-2.96,0.20,-2.95,0.21,-0.22,-0.42,-0.40,-3.17,-3.17,-3.16
399.73,-3.00,0.16,-2.99,0.16,-0.17,-0.37,-0.40,-3.17,-3.17,-3.16
403.72,-3.02,0.14,-3.03,0.13,-0.14,-0.33,-0.40,-3.15,-3.16,-3.15
407.76,-3.07,0.09,-3.05,0.10,-0.10,-0.27,-0.41,-3.17,-3.15,-3.15
411.84,-3.07,0.09,-3.08,0.07,-0.07,-0.22,-0.41,-3.14,-3.15,-3.15
415.96,-3.11,0.04,-3.10,0.05,-0.03,-0.15,-0.42,-3.14,-3.14,-3.15
420.12,-3.14,0.01,-3.13,0.01,0.01,-0.09,-0.42,-3.13,-3.13,-3.15
424.32,-3.18,-0.03,-3.18,-0.03,0.05,-0.03,-0.42,-3.13,-3.13,-3.15
428.56,-3.23,-0.08,-3.23,-0.08,0.10,0.04,-0.43,-3.13,-3.13,-3.15
