frequency,raw,error,smoothed,error_smoothed,equalization,parametric_eq,fixed_band_eq,equalized_raw,equalized_smoothed,target
20.00,-4.43,-4.49,-4.43,-4.50,4.54,3.34,0.16,0.11,0.11,0.07
20.20,-4.34,-4.43,-4.34,-4.44,4.44,3.28,0.17,0.10,0.10,0.10
20.40,-4.26,-4.38,-4.23,-4.36,4.34,3.21,0.18,0.08,0.10,0.13
20.61,-4.12,-4.26,-4.11,-4.26,4.23,3.14,0.18,0.11,0.12,0.14
20.81,-3.96,-4.13,-3.97,-4.15,4.12,3.07,0.19,0.16,0.15,0.17
21.02,-3.82,-4.02,-3.82,-4.02,4.00,3.00,0.20,0.19,0.18,0.20
21.23,-3.68,-3.89,-3.67,-3.89,3.89,2.93,0.20,0.21,0.21,0.21
21.44,-3.54,-3.76,-3.53,-3.76,3.76,2.86,0.21,0.23,0.23,0.22
21.66,-3.39,-3.62,-3.39,-3.62,3.63,2.79,0.22,0.24,0.24,0.23
21.87,-3.25,-3.48,-3.25,-3.48,3.49,2.72,0.23,0.25,0.25,0.23
22.09,-3.12,-3.36,-3.11,-3.35,3.36,2.65,0.24,0.24,0.25,0.24
22.31,-2.97,-3.21,-2.98,-3.22,3.22,2.57,0.25,0.26,0.24,0.24
22.54,-2.86,-3.10,-2.85,-3.09,3.09,2.50,0.26,0.23,0.24,0.24
22.76,-2.73,-2.97,-2.72,-2.96,2.96,2.43,0.27,0.23,0.24,0.24
22.99,-2.60,-2.83,-2.60,-2.83,2.83,2.35,0.27,0.23,0.23,0.23
23.22,-2.46,-2.69,-2.47,-2.70,2.70,2.27,0.28,0.24,0.23,0.23
23.45,-2.35,-2.58,-2.34,-2.57,2.57,2.20,0.29,0.23,0.23,0.23
23.69,-2.22,-2.45,-2.22,-2.45,2.45,2.12,0.30,0.23,0.23,0.23
23.92,-2.09,-2.32,-2.10,-2.33,2.32,2.04,0.31,0.24,0.23,0.23
24.16,-1.98,-2.21,-1.97,-2.20,2.20,1.96,0.32,0.22,0.23,0.24
24.40,-1.85,-2.08,-1.84,-2.08,2.08,1.88,0.33,0.23,0.23,0.24
24.65,-1.72,-1.95,-1.72,-1.96,1.96,1.80,0.35,0.24,0.23,0.23
24.89,-1.61,-1.83,-1.61,-1.83,1.84,1.72,0.36,0.23,0.23,0.23
25.14,-1.50,-1.72,-1.49,-1.72,1.72,1.64,0.37,0.23,0.23,0.23
25.39,-1.39,-1.61,-1.38,-1.61,1.61,1.56,0.38,0.23,0.23,0.23
25.65,-1.28,-1.50,-1.28,-1.50,1.50,1.47,0.38,0.22,0.22,0.22
25.91,-1.17,-1.38,-1.18,-1.40,1.40,1.39,0.39,0.23,0.22,0.21
26.16,-1.09,-1.30,-1.08,-1.29,1.29,1.30,0.40,0.21,0.22,0.21
26.43,-0.98,-1.19,-0.98,-1.19,1.19,1.22,0.41,0.21,0.21,0.21
26.69,-0.87,-1.08,-0.88,-1.09,1.09,1.13,0.42,0.22,0.21,0.21
26.96,-0.79,-1.00,-0.78,-0.99,0.98,1.04,0.43,0.19,0.20,0.21
27.23,-0.68,-0.89,-0.68,-0.89,0.88,0.95,0.43,0.20,0.20,0.21
27.50,-0.57,-0.78,-0.57,-0.78,0.77,0.86,0.44,0.20,0.20,0.21
27.77,-0.46,-0.65,-0.46,-0.66,0.66,0.77,0.44,0.20,0.20,0.20
28.05,-0.35,-0.54,-0.34,-0.54,0.55,0.68,0.45,0.20,0.20,0.20
28.33,-0.24,-0.42,-0.24,-0.43,0.44,0.58,0.45,0.20,0.20,0.19
28.62,-0.13,-0.31,-0.14,-0.32,0.33,0.49,0.45,0.20,0.19,0.19
28.90,-0.05,-0.23,-0.03,-0.22,0.22,0.39,0.45,0.17,0.18,0.18
29.19,0.06,-0.11,0.06,-0.12,0.11,0.30,0.45,0.18,0.18,0.17
29.48,0.17,-0.01,0.16,-0.02,0.01,0.20,0.44,0.19,0.17,0.18
29.78,0.25,0.08,0.26,0.09,-0.09,0.11,0.44,0.17,0.17,0.17
30.08,0.34,0.17,0.35,0.18,-0.18,0.01,0.43,0.16,0.17,0.17
30.38,0.45,0.29,0.43,0.27,-0.28,-0.08,0.42,0.17,0.16,0.16
30.68,0.51,0.35,0.52,0.37,-0.37,-0.18,0.41,0.14,0.16,0.16
30.99,0.61,0.47,0.61,0.46,-0.46,-0.27,0.40,0.15,0.15,0.15
31.30,0.69,0.55,0.69,0.54,-0.54,-0.36,0.38,0.15,0.14,0.14
31.61,0.76,0.62,0.76,0.63,-0.62,-0.45,0.37,0.14,0.14,0.14
31.93,0.83,0.70,0.83,0.70,-0.69,-0.53,0.35,0.14,0.14,0.13
32.24,0.89,0.77,0.89,0.77,-0.76,-0.61,0.33,0.13,0.13,0.12
32.57,0.95,0.83,0.95,0.83,-0.82,-0.69,0.30,0.13,0.12,0.12
32.89,0.99,0.88,1.00,0.88,-0.88,-0.76,0.28,0.11,0.11,0.12
33.22,1.04,0.94,1.04,0.94,-0.94,-0.83,0.25,0.10,0.10,0.11
33.55,1.09,0.99,1.09,0.99,-1.00,-0.90,0.22,0.09,0.09,0.10
33.89,1.14,1.05,1.15,1.05,-1.06,-0.96,0.19,0.08,0.08,0.09
34.23,1.20,1.11,1.21,1.12,-1.12,-1.03,0.16,0.08,0.08,0.09
34.57,1.27,1.19,1.26,1.19,-1.18,-1.09,0.13,0.09,0.08,0.08
34.92,1.32,1.26,1.32,1.25,-1.25,-1.15,0.09,0.07,0.07,0.07
35.27,1.37,1.31,1.37,1.31,-1.31,-1.21,0.05,0.06,0.06,0.06
35.62,1.42,1.37,1.42,1.37,-1.37,-1.26,0.02,0.05,0.05,0.05
35.97,1.47,1.43,1.47,1.43,-1.43,-1.32,-0.02,0.04,0.04,0.04
36.33,1.53,1.50,1.52,1.49,-1.49,-1.38,-0.07,0.04,0.03,0.04
36.70,1.56,1.54,1.57,1.55,-1.54,-1.43,-0.11,0.02,0.03,0.02
37.06,1.61,1.60,1.61,1.60,-1.60,-1.49,-0.15,0.02,0.01,0.01
37.43,1.65,1.64,1.65,1.65,-1.65,-1.54,-0.20,0.00,0.00,0.01
37.81,1.69,1.70,1.69,1.70,-1.70,-1.60,-0.24,-0.01,-0.01,-0.00
38.19,1.73,1.75,1.73,1.74,-1.75,-1.66,-0.29,-0.01,-0.01,-0.02
38.57,1.76,1.78,1.77,1.79,-1.79,-1.71,-0.34,-0.03,-0.02,-0.02
38.95,1.81,1.85,1.80,1.84,-1.84,-1.76,-0.39,-0.02,-0.03,-0.03
39.34,1.83,1.88,1.84,1.88,-1.88,-1.82,-0.44,-0.05,-0.04,-0.05
39.74,1.86,1.92,1.87,1.92,-1.92,-1.87,-0.49,-0.06,-0.06,-0.06
40.14,1.90,1.97,1.89,1.96,-1.96,-1.93,-0.54,-0.06,-0.07,-0.06
40.54,1.91,1.99,1.92,2.00,-2.00,-1.98,-0.59,-0.09,-0.08,-0.08
40.94,1.95,2.03,1.95,2.03,-2.03,-2.03,-0.65,-0.08,-0.08,-0.08
41.35,1.98,2.08,1.98,2.07,-2.07,-2.08,-0.70,-0.08,-0.09,-0.09
41.76,2.00,2.10,2.01,2.11,-2.10,-2.13,-0.76,-0.09,-0.09,-0.10
42.18,2.03,2.14,2.03,2.13,-2.13,-2.18,-0.81,-0.09,-0.10,-0.10
42.60,2.04,2.16,2.03,2.15,-2.16,-2.22,-0.87,-0.11,-0.12,-0.12
43.03,2.04,2.16,2.05,2.17,-2.19,-2.27,-0.93,-0.14,-0.14,-0.12
43.46,2.04,2.18,2.06,2.20,-2.21,-2.31,-0.98,-0.17,-0.15,-0.14
43.90,2.09,2.25,2.08,2.23,-2.24,-2.36,-1.04,-0.15,-0.16,-0.16
44.33,2.09,2.27,2.09,2.27,-2.26,-2.40,-1.10,-0.17,-0.17,-0.18
44.78,2.09,2.28,2.10,2.29,-2.28,-2.44,-1.16,-0.18,-0.18,-0.19
45.23,2.09,2.30,2.10,2.30,-2.29,-2.48,-1.22,-0.20,-0.19,-0.21
45.68,2.09,2.31,2.09,2.31,-2.30,-2.51,-1.29,-0.21,-0.21,-0.22
46.13,2.09,2.33,2.08,2.31,-2.31,-2.55,-1.35,-0.22,-0.23,-0.24
46.60,2.04,2.29,2.06,2.31,-2.31,-2.58,-1.41,-0.27,-0.25,-0.24
47.06,2.04,2.30,2.04,2.30,-2.31,-2.61,-1.48,-0.27,-0.27,-0.26
47.53,2.04,2.32,2.02,2.30,-2.31,-2.64,-1.54,-0.27,-0.29,-0.28
48.01,2.00,2.29,2.02,2.31,-2.31,-2.67,-1.61,-0.31,-0.29,-0.28
48.49,2.00,2.31,2.00,2.31,-2.31,-2.69,-1.68,-0.31,-0.31,-0.31
48.97,2.00,2.34,1.99,2.32,-2.32,-2.72,-1.74,-0.32,-0.33,-0.34
49.46,1.95,2.32,1.97,2.33,-2.32,-2.74,-1.81,-0.37,-0.35,-0.36
49.96,1.95,2.34,1.94,2.33,-2.32,-2.76,-1.88,-0.37,-0.38,-0.39
50.46,1.91,2.31,1.92,2.32,-2.33,-2.77,-1.95,-0.41,-0.41,-0.40
50.96,1.90,2.32,1.90,2.32,-2.33,-2.79,-2.01,-0.42,-0.43,-0.42
51.47,1.88,2.33,1.88,2.32,-2.33,-2.80,-2.08,-0.44,-0.44,-0.45
51.99,1.86,2.33,1.87,2.33,-2.33,-2.81,-2.15,-0.47,-0.46,-0.47
52.51,1.86,2.34,1.85,2.33,-2.33,-2.82,-2.21,-0.47,-0.48,-0.47
53.03,1.83,2.33,1.83,2.33,-2.34,-2.83,-2.28,-0.50,-0.50,-0.49
53.56,1.81,2.33,1.82,2.33,-2.34,-2.84,-2.34,-0.53,-0.52,-0.51
54.10,1.81,2.35,1.82,2.35,-2.35,-2.84,-2.41,-0.53,-0.53,-0.53
54.64,1.81,2.37,1.81,2.36,-2.35,-2.84,-2.47,-0.54,-0.55,-0.55
55.18,1.81,2.39,1.80,2.37,-2.36,-2.84,-2.53,-0.55,-0.57,-0.58
55.74,1.76,2.36,1.78,2.37,-2.38,-2.84,-2.59,-0.61,-0.60,-0.60
56.29,1.76,2.37,1.76,2.38,-2.39,-2.84,-2.64,-0.62,-0.62,-0.61
56.86,1.76,2.39,1.76,2.39,-2.40,-2.84,-2.70,-0.63,-0.64,-0.63
57.42,1.76,2.41,1.76,2.41,-2.40,-2.83,-2.75,-0.64,-0.64,-0.65
58.00,1.76,2.43,1.76,2.43,-2.41,-2.82,-2.79,-0.65,-0.65,-0.66
58.58,1.76,2.44,1.75,2.43,-2.42,-2.81,-2.84,-0.66,-0.67,-0.68
59.16,1.74,2.43,1.74,2.43,-2.44,-2.80,-2.88,-0.69,-0.69,-0.69
59.76,1.72,2.43,1.73,2.44,-2.45,-2.79,-2.91,-0.73,-0.72,-0.70
60.35,1.72,2.45,1.72,2.45,-2.47,-2.78,-2.95,-0.74,-0.74,-0.73
60.96,1.72,2.47,1.72,2.47,-2.48,-2.77,-2.97,-0.76,-0.76,-0.74
61.57,1.72,2.50,1.73,2.50,-2.49,-2.75,-3.00,-0.77,-0.77,-0.78
62.18,1.72,2.53,1.72,2.52,-2.51,-2.74,-3.02,-0.78,-0.79,-0.80
62.80,1.72,2.54,1.71,2.53,-2.52,-2.72,-3.03,-0.80,-0.81,-0.82
63.43,1.68,2.53,1.70,2.54,-2.53,-2.70,-3.04,-0.85,-0.84,-0.85
64.07,1.67,2.54,1.68,2.54,-2.54,-2.69,-3.05,-0.87,-0.86,-0.86
64.71,1.67,2.55,1.66,2.54,-2.55,-2.67,-3.05,-0.88,-0.89,-0.88
65.35,1.64,2.54,1.65,2.55,-2.55,-2.65,-3.05,-0.91,-0.91,-0.90
66.01,1.62,2.54,1.63,2.55,-2.55,-2.63,-3.05,-0.93,-0.92,-0.92
66.67,1.62,2.56,1.62,2.55,-2.56,-2.61,-3.04,-0.94,-0.94,-0.94
67.33,1.61,2.57,1.61,2.56,-2.56,-2.59,-3.03,-0.95,-0.95,-0.96
68.01,1.58,2.56,1.59,2.57,-2.57,-2.57,-3.01,-0.98,-0.97,-0.98
68.69,1.58,2.58,1.57,2.57,-2.57,-2.55,-2.99,-0.99,-1.00,-1.00
69.37,1.55,2.57,1.56,2.57,-2.57,-2.53,-2.97,-1.02,-1.02,-1.02
70.07,1.53,2.57,1.54,2.58,-2.58,-2.51,-2.95,-1.04,-1.04,-1.04
70.77,1.53,2.58,1.52,2.58,-2.58,-2.49,-2.92,-1.05,-1.06,-1.05
71.48,1.49,2.57,1.50,2.58,-2.58,-2.47,-2.90,-1.09,-1.08,-1.08
72.19,1.48,2.58,1.48,2.58,-2.58,-2.45,-2.87,-1.10,-1.10,-1.10
72.91,1.45,2.58,1.46,2.58,-2.58,-2.43,-2.84,-1.13,-1.12,-1.12
73.64,1.44,2.59,1.44,2.58,-2.58,-2.41,-2.81,-1.14,-1.14,-1.15
74.38,1.41,2.57,1.41,2.58,-2.58,-2.39,-2.78,-1.16,-1.16,-1.16
75.12,1.39,2.58,1.39,2.58,-2.57,-2.37,-2.75,-1.18,-1.18,-1.19
75.87,1.35,2.56,1.36,2.56,-2.57,-2.35,-2.72,-1.21,-1.21,-1.20
76.63,1.34,2.56,1.33,2.56,-2.56,-2.34,-2.69,-1.22,-1.22,-1.22
77.40,1.30,2.54,1.31,2.55,-2.55,-2.32,-2.66,-1.25,-1.24,-1.24
78.17,1.28,2.55,1.28,2.54,-2.54,-2.30,-2.63,-1.26,-1.26,-1.27
78.95,1.25,2.53,1.24,2.52,-2.53,-2.29,-2.60,-1.27,-1.28,-1.28
79.74,1.20,2.50,1.22,2.51,-2.51,-2.27,-2.57,-1.31,-1.29,-1.29
80.54,1.19,2.51,1.19,2.50,-2.50,-2.26,-2.55,-1.31,-1.31,-1.31
81.35,1.16,2.50,1.15,2.48,-2.48,-2.24,-2.52,-1.32,-1.33,-1.33
82.16,1.11,2.47,1.12,2.47,-2.47,-2.23,-2.50,-1.36,-1.35,-1.35
82.98,1.07,2.44,1.08,2.45,-2.45,-2.22,-2.48,-1.38,-1.38,-1.37
83.81,1.04,2.44,1.04,2.44,-2.44,-2.20,-2.46,-1.39,-1.39,-1.40
84.65,1.01,2.43,1.01,2.42,-2.42,-2.19,-2.44,-1.41,-1.41,-1.42
85.50,0.97,2.41,0.97,2.41,-2.40,-2.18,-2.43,-1.43,-1.44,-1.43
86.35,0.92,2.38,0.93,2.39,-2.39,-2.17,-2.41,-1.47,-1.46,-1.46
87.22,0.89,2.37,0.89,2.37,-2.38,-2.16,-2.40,-1.48,-1.48,-1.48
88.09,0.86,2.37,0.86,2.36,-2.36,-2.15,-2.39,-1.50,-1.50,-1.50
88.97,0.83,2.35,0.83,2.35,-2.35,-2.15,-2.38,-1.51,-1.52,-1.52
89.86,0.78,2.33,0.79,2.33,-2.33,-2.14,-2.37,-1.55,-1.54,-1.54
90.76,0.75,2.33,0.75,2.32,-2.32,-2.13,-2.37,-1.57,-1.57,-1.58
91.66,0.71,2.31,0.71,2.31,-2.31,-2.13,-2.37,-1.59,-1.60,-1.59
92.58,0.67,2.30,0.67,2.30,-2.30,-2.12,-2.36,-1.62,-1.62,-1.63
93.51,0.63,2.28,0.63,2.28,-2.29,-2.12,-2.36,-1.65,-1.65,-1.65
94.44,0.60,2.28,0.60,2.27,-2.28,-2.12,-2.37,-1.67,-1.68,-1.67
95.39,0.55,2.25,0.57,2.27,-2.27,-2.11,-2.37,-1.72,-1.70,-1.70
96.34,0.54,2.28,0.53,2.26,-2.27,-2.11,-2.38,-1.72,-1.74,-1.74
97.30,0.50,2.27,0.50,2.27,-2.26,-2.11,-2.38,-1.76,-1.76,-1.76
98.28,0.46,2.25,0.47,2.27,-2.27,-2.11,-2.39,-1.80,-1.79,-1.79
99.26,0.46,2.28,0.45,2.27,-2.27,-2.11,-2.40,-1.81,-1.82,-1.82
100.25,0.41,2.26,0.42,2.27,-2.27,-2.11,-2.41,-1.86,-1.85,-1.85
101.25,0.41,2.29,0.41,2.28,-2.28,-2.11,-2.42,-1.87,-1.87,-1.88
102.27,0.37,2.28,0.38,2.29,-2.28,-2.11,-2.44,-1.91,-1.91,-1.90
103.29,0.37,2.31,0.36,2.30,-2.29,-2.11,-2.45,-1.92,-1.93,-1.94
104.32,0.32,2.28,0.34,2.30,-2.30,-2.12,-2.47,-1.98,-1.96,-1.96
105.37,0.32,2.31,0.31,2.30,-2.31,-2.12,-2.48,-1.99,-1.99,-1.99
106.42,0.29,2.31,0.29,2.31,-2.32,-2.12,-2.50,-2.03,-2.02,-2.02
107.48,0.27,2.32,0.28,2.33,-2.33,-2.12,-2.51,-2.06,-2.05,-2.05
108.56,0.27,2.36,0.26,2.34,-2.34,-2.13,-2.53,-2.07,-2.08,-2.08
109.64,0.23,2.34,0.24,2.35,-2.35,-2.13,-2.54,-2.12,-2.11,-2.11
110.74,0.23,2.37,0.22,2.37,-2.36,-2.13,-2.56,-2.13,-2.14,-2.14
111.85,0.19,2.36,0.20,2.37,-2.38,-2.14,-2.57,-2.18,-2.18,-2.17
112.97,0.18,2.40,0.18,2.39,-2.39,-2.14,-2.59,-2.21,-2.21,-2.22
114.10,0.15,2.40,0.15,2.40,-2.40,-2.15,-2.60,-2.25,-2.25,-2.24
115.24,0.13,2.41,0.14,2.42,-2.41,-2.15,-2.61,-2.28,-2.28,-2.28
116.39,0.11,2.43,0.11,2.43,-2.43,-2.15,-2.62,-2.31,-2.32,-2.32
117.55,0.09,2.45,0.09,2.44,-2.44,-2.16,-2.62,-2.35,-2.35,-2.35
118.73,0.05,2.44,0.06,2.45,-2.45,-2.16,-2.63,-2.39,-2.39,-2.39
119.92,0.04,2.46,0.04,2.46,-2.46,-2.17,-2.63,-2.41,-2.42,-2.42
121.12,0.01,2.47,0.01,2.46,-2.47,-2.17,-2.64,-2.45,-2.46,-2.45
122.33,-0.01,2.48,-0.01,2.47,-2.47,-2.17,-2.63,-2.48,-2.48,-2.49
123.55,-0.05,2.47,-0.04,2.48,-2.48,-2.18,-2.63,-2.53,-2.52,-2.51
124.79,-0.05,2.50,-0.06,2.49,-2.49,-2.18,-2.63,-2.54,-2.55,-2.55
126.03,-0.09,2.49,-0.08,2.50,-2.50,-2.18,-2.62,-2.59,-2.59,-2.58
127.29,-0.10,2.52,-0.11,2.51,-2.51,-2.18,-2.61,-2.61,-2.62,-2.62
128.57,-0.15,2.51,-0.14,2.52,-2.52,-2.19,-2.60,-2.67,-2.66,-2.66
129.85,-0.15,2.54,-0.16,2.54,-2.53,-2.19,-2.58,-2.68,-2.69,-2.69
131.15,-0.19,2.54,-0.18,2.54,-2.54,-2.19,-2.56,-2.73,-2.72,-2.72
132.46,-0.20,2.56,-0.20,2.55,-2.55,-2.19,-2.54,-2.74,-2.75,-2.76
133.79,-0.24,2.54,-0.23,2.55,-2.55,-2.19,-2.52,-2.79,-2.78,-2.78
135.12,-0.26,2.56,-0.26,2.55,-2.55,-2.19,-2.50,-2.81,-2.81,-2.82
136.48,-0.29,2.55,-0.29,2.55,-2.55,-2.19,-2.47,-2.84,-2.85,-2.84
137.84,-0.33,2.54,-0.32,2.55,-2.55,-2.19,-2.44,-2.88,-2.87,-2.87
139.22,-0.36,2.55,-0.35,2.55,-2.55,-2.19,-2.42,-2.91,-2.90,-2.91
140.61,-0.38,2.56,-0.39,2.54,-2.54,-2.19,-2.39,-2.92,-2.93,-2.94
142.02,-0.42,2.53,-0.41,2.54,-2.54,-2.18,-2.36,-2.96,-2.95,-2.94
143.44,-0.45,2.52,-0.45,2.53,-2.53,-2.18,-2.33,-2.98,-2.98,-2.97
144.87,-0.48,2.52,-0.48,2.52,-2.52,-2.18,-2.29,-3.00,-3.00,-3.00
146.32,-0.51,2.52,-0.51,2.51,-2.51,-2.17,-2.26,-3.02,-3.02,-3.03
147.78,-0.54,2.50,-0.54,2.50,-2.50,-2.17,-2.23,-3.04,-3.04,-3.04
149.26,-0.59,2.48,-0.58,2.49,-2.48,-2.16,-2.20,-3.07,-3.07,-3.07
150.75,-0.63,2.47,-0.63,2.47,-2.47,-2.16,-2.17,-3.10,-3.10,-3.10
152.26,-0.68,2.45,-0.67,2.45,-2.45,-2.15,-2.13,-3.13,-3.13,-3.13
153.78,-0.72,2.43,-0.72,2.43,-2.43,-2.15,-2.10,-3.15,-3.15,-3.15
155.32,-0.77,2.41,-0.77,2.41,-2.41,-2.14,-2.07,-3.18,-3.18,-3.18
156.88,-0.82,2.39,-0.82,2.39,-2.39,-2.13,-2.04,-3.21,-3.21,-3.20
158.44,-0.87,2.37,-0.86,2.37,-2.37,-2.12,-2.01,-3.24,-3.24,-3.24
160.03,-0.91,2.36,-0.91,2.35,-2.35,-2.11,-1.98,-3.26,-3.26,-3.27
161.63,-0.97,2.33,-0.96,2.33,-2.33,-2.10,-1.96,-3.30,-3.29,-3.30
163.24,-1.02,2.31,-1.02,2.31,-2.30,-2.09,-1.93,-3.32,-3.32,-3.33
164.88,-1.07,2.28,-1.07,2.28,-2.28,-2.08,-1.91,-3.35,-3.35,-3.35
166.53,-1.13,2.25,-1.13,2.25,-2.26,-2.07,-1.88,-3.38,-3.38,-3.38
168.19,-1.18,2.23,-1.18,2.23,-2.23,-2.06,-1.86,-3.41,-3.41,-3.41
169.87,-1.23,2.21,-1.23,2.21,-2.21,-2.04,-1.84,-3.44,-3.44,-3.44
171.57,-1.27,2.19,-1.27,2.19,-2.19,-2.03,-1.82,-3.46,-3.46,-3.46
173.29,-1.32,2.17,-1.31,2.18,-2.18,-2.02,-1.80,-3.50,-3.49,-3.49
175.02,-1.35,2.17,-1.36,2.16,-2.17,-2.00,-1.78,-3.52,-3.52,-3.52
176.77,-1.40,2.16,-1.39,2.16,-2.16,-1.99,-1.77,-3.56,-3.55,-3.55
178.54,-1.44,2.15,-1.43,2.16,-2.16,-1.97,-1.75,-3.59,-3.58,-3.59
180.32,-1.45,2.17,-1.46,2.15,-2.15,-1.96,-1.74,-3.60,-3.62,-3.61
182.13,-1.50,2.14,-1.49,2.15,-2.15,-1.94,-1.73,-3.65,-3.64,-3.64
183.95,-1.53,2.15,-1.52,2.15,-2.15,-1.92,-1.72,-3.68,-3.67,-3.67
185.79,-1.54,2.16,-1.55,2.15,-2.15,-1.90,-1.71,-3.68,-3.70,-3.70
187.65,-1.59,2.14,-1.58,2.15,-2.14,-1.89,-1.70,-3.73,-3.72,-3.73
189.52,-1.62,2.14,-1.61,2.14,-2.14,-1.87,-1.69,-3.75,-3.75,-3.75
191.42,-1.64,2.14,-1.65,2.13,-2.13,-1.85,-1.69,-3.77,-3.78,-3.78
193.33,-1.68,2.12,-1.68,2.12,-2.12,-1.83,-1.68,-3.80,-3.80,-3.80
195.27,-1.72,2.10,-1.71,2.11,-2.11,-1.81,-1.68,-3.83,-3.82,-3.82
197.22,-1.75,2.09,-1.75,2.10,-2.10,-1.79,-1.68,-3.85,-3.85,-3.84
199.19,-1.78,2.10,-1.78,2.08,-2.08,-1.77,-1.67,-3.86,-3.87,-3.87
201.18,-1.82,2.07,-1.81,2.07,-2.07,-1.75,-1.67,-3.89,-3.88,-3.88
203.19,-1.84,2.06,-1.84,2.06,-2.06,-1.73,-1.67,-3.90,-3.90,-3.89
205.23,-1.87,2.05,-1.87,2.04,-2.05,-1.71,-1.67,-3.91,-3.91,-3.91
207.28,-1.90,2.02,-1.89,2.03,-2.03,-1.68,-1.68,-3.93,-3.93,-3.91
209.35,-1.92,2.02,-1.92,2.02,-2.02,-1.66,-1.68,-3.94,-3.94,-3.93
211.44,-1.94,2.02,-1.94,2.01,-2.00,-1.64,-1.68,-3.94,-3.94,-3.95
213.56,-1.96,1.99,-1.96,1.99,-1.99,-1.61,-1.68,-3.95,-3.95,-3.95
215.69,-1.98,1.97,-1.98,1.98,-1.98,-1.59,-1.68,-3.95,-3.95,-3.95
217.85,-2.01,1.95,-2.00,1.96,-1.96,-1.57,-1.68,-3.97,-3.96,-3.96
220.03,-2.02,1.95,-2.02,1.94,-1.94,-1.54,-1.69,-3.96,-3.97,-3.97
222.23,-2.06,1.92,-2.05,1.92,-1.92,-1.52,-1.69,-3.98,-3.97,-3.97
224.45,-2.06,1.90,-2.07,1.90,-1.90,-1.49,-1.69,-3.95,-3.96,-3.96
226.70,-2.10,1.86,-2.09,1.87,-1.87,-1.47,-1.69,-3.97,-3.96,-3.96
228.96,-2.10,1.86,-2.11,1.84,-1.84,-1.44,-1.69,-3.94,-3.95,-3.96
231.25,-2.15,1.80,-2.14,1.81,-1.81,-1.42,-1.68,-3.96,-3.95,-3.94
233.57,-2.16,1.78,-2.16,1.78,-1.78,-1.39,-1.68,-3.94,-3.94,-3.94
235.90,-2.19,1.75,-2.19,1.75,-1.75,-1.36,-1.67,-3.94,-3.94,-3.94
238.26,-2.22,1.71,-2.21,1.71,-1.71,-1.34,-1.67,-3.93,-3.93,-3.93
240.64,-2.24,1.68,-2.24,1.68,-1.67,-1.31,-1.66,-3.91,-3.92,-3.92
243.05,-2.28,1.63,-2.27,1.63,-1.64,-1.28,-1.65,-3.91,-3.90,-3.90
245.48,-2.29,1.60,-2.30,1.59,-1.59,-1.25,-1.64,-3.88,-3.89,-3.89
247.93,-2.33,1.55,-2.33,1.55,-1.55,-1.22,-1.62,-3.88,-3.88,-3.87
250.41,-2.36,1.51,-2.36,1.51,-1.50,-1.19,-1.61,-3.86,-3.86,-3.87
252.92,-2.39,1.46,-2.39,1.45,-1.45,-1.17,-1.59,-3.84,-3.84,-3.84
255.45,-2.43,1.39,-2.42,1.40,-1.40,-1.14,-1.57,-3.83,-3.82,-3.82
258.00,-2.45,1.36,-2.46,1.35,-1.35,-1.11,-1.55,-3.80,-3.81,-3.80
260.58,-2.50,1.29,-2.49,1.29,-1.29,-1.07,-1.53,-3.79,-3.78,-3.79
263.19,-2.53,1.23,-2.53,1.24,-1.23,-1.04,-1.50,-3.76,-3.76,-3.76
265.82,-2.56,1.19,-2.57,1.18,-1.18,-1.01,-1.48,-3.73,-3.74,-3.75
268.48,-2.61,1.11,-2.60,1.12,-1.12,-0.98,-1.45,-3.72,-3.72,-3.72
271.16,-2.65,1.05,-2.64,1.05,-1.06,-0.95,-1.42,-3.70,-3.70,-3.69
273.87,-2.68,1.00,-2.69,0.99,-0.99,-0.92,-1.39,-3.67,-3.68,-3.68
276.61,-2.73,0.92,-2.72,0.93,-0.93,-0.88,-1.36,-3.66,-3.66,-3.65
279.38,-2.77,0.87,-2.76,0.87,-0.87,-0.85,-1.32,-3.64,-3.64,-3.63
282.17,-2.80,0.82,-2.80,0.81,-0.81,-0.81,-1.29,-3.61,-3.61,-3.62
284.99,-2.85,0.74,-2.84,0.75,-0.75,-0.78,-1.25,-3.59,-3.59,-3.59
287.84,-2.88,0.70,-2.88,0.69,-0.68,-0.74,-1.21,-3.56,-3.57,-3.57
290.72,-2.94,0.61,-2.93,0.62,-0.62,-0.71,-1.18,-3.56,-3.55,-3.55
293.63,-2.97,0.56,-2.97,0.56,-0.56,-0.67,-1.14,-3.52,-3.53,-3.53
296.57,-3.02,0.48,-3.02,0.49,-0.49,-0.63,-1.10,-3.51,-3.51,-3.50
299.53,-3.06,0.43,-3.06,0.42,-0.42,-0.59,-1.06,-3.48,-3.48,-3.48
302.53,-3.11,0.36,-3.10,0.36,-0.36,-0.55,-1.02,-3.46,-3.46,-3.47
305.55,-3.14,0.29,-3.14,0.30,-0.29,-0.51,-0.98,-3.43,-3.43,-3.43
308.61,-3.17,0.24,-3.18,0.23,-0.23,-0.47,-0.94,-3.40,-3.41,-3.41
311.69,-3.22,0.17,-3.21,0.17,-0.17,-0.43,-0.90,-3.39,-3.38,-3.38
314.81,-3.25,0.10,-3.25,0.11,-0.12,-0.39,-0.86,-3.37,-3.36,-3.35
317.96,-3.27,0.06,-3.27,0.06,-0.07,-0.34,-0.82,-3.34,-3.34,-3.33
321.14,-3.30,0.01,-3.29,0.02,-0.02,-0.30,-0.78,-3.32,-3.31,-3.31
324.35,-3.31,-0.02,-3.31,-0.02,0.03,-0.25,-0.74,-3.28,-3.29,-3.29
327.59,-3.33,-0.06,-3.33,-0.06,0.07,-0.21,-0.70,-3.26,-3.26,-3.26
330.87,-3.36,-0.11,-3.35,-0.11,0.11,-0.16,-0.66,-3.25,-3.24,-3.25
334.18,-3.37,-0.14,-3.37,-0.15,0.15,-0.11,-0.62,-3.22,-3.22,-3.23
337.52,-3.41,-0.20,-3.40,-0.19,0.19,-0.06,-0.58,-3.22,-3.21,-3.21
340.90,-3.41,-0.23,-3.42,-0.23,0.23,-0.01,-0.54,-3.17,-3.18,-3.18
344.30,-3.45,-0.28,-3.44,-0.28,0.28,0.03,-0.50,-3.17,-3.17,-3.16
347.75,-3.45,-0.30,-3.46,-0.32,0.32,0.09,-0.46,-3.13,-3.15,-3.14
351.23,-3.50,-0.37,-3.48,-0.36,0.35,0.14,-0.42,-3.15,-3.13,-3.13
354.74,-3.50,-0.39,-3.50,-0.39,0.39,0.19,-0.38,-3.11,-3.11,-3.11
358.28,-3.50,-0.41,-3.52,-0.43,0.42,0.24,-0.34,-3.08,-3.09,-3.09
361.87,-3.54,-0.47,-3.52,-0.45,0.45,0.29,-0.31,-3.08,-3.07,-3.07
365.49,-3.54,-0.49,-3.53,-0.48,0.48,0.34,-0.27,-3.05,-3.05,-3.05
369.14,-3.54,-0.50,-3.55,-0.51,0.51,0.39,-0.23,-3.03,-3.04,-3.04
372.83,-3.56,-0.53,-3.56,-0.54,0.54,0.44,-0.19,-3.02,-3.02,-3.02
376.56,-3.59,-0.57,-3.58,-0.57,0.57,0.49,-0.16,-3.02,-3.01,-3.01
380.33,-3.59,-0.60,-3.58,-0.59,0.59,0.53,-0.12,-3.00,-2.99,-2.99
384.13,-3.59,-0.61,-3.59,-0.61,0.62,0.58,-0.08,-2.97,-2.98,-2.98
387.97,-3.59,-0.62,-3.60,-0.64,0.64,0.62,-0.05,-2.95,-2.96,-2.97
391.85,-3.64,-0.68,-3.62,-0.67,0.66,0.66,-0.01,-2.98,-2.96,-2.96
395.77,-3.64,-0.70,-3.64,-0.69,0.68,0.69,0.02,-2.95,-2.95,-2.94
399.73,-3.64,-0.71,-3.64,-0.71,0.71,0.73,0.06,-2.93,-2.93,-2.93
403.72,-3.64,-0.72,-3.64,-0.72,0.73,0.76,0.09,-2.91,-2.91,-2.92
407.76,-3.64,-0.73,-3.65,-0.74,0.75,0.78,0.12,-2.89,-2.90,-2.91
411.84,-3.66,-0.76,-3.66,-0.76,0.76,0.80,0.16,-2.89,-2.89,-2.89
415.96,-3.68,-0.79,-3.67,-0.79,0.78,0.82,0.19,-2.90,-2.89,-2.88
420.12,-3.68,-0.80,-3.68,-0.81,0.79,0.83,0.22,-2.89,-2.89,-2.87
424.32,-3.68,-0.81,-3.67,-0.81,0.80,0.84,0.25,-2.88,-2.87,-2.87
428.56,-3.66,-0.80,-3.66,-0.80,0.81,0.85,0.28,-2.85,-2.85,-2.86
432.85,-3.64,-0.79,-3.65,-0.80,0.81,0.84,0.30,-2.83,-2.84,-2.85
437.18,-3.64,-0.80,-3.64,-0.80,0.81,0.84,0.33,-2.83,-2.83,-2.84
441.55,-3.64,-0.82,-3.62,-0.80,0.80,0.83,0.35,-2.84,-2.83,-2.82
445.96,-3.59,-0.78,-3.60,-0.80,0.78,0.81,0.38,-2.80,-2.82,-2.81
450.42,-3.58,-0.78,-3.57,-0.77,0.77,0.79,0.40,-2.81,-2.80,-2.80
454.93,-3.54,-0.76,-3.53,-0.75,0.75,0.77,0.42,-2.78,-2.78,-2.78
459.48,-3.49,-0.72,-3.50,-0.73,0.73,0.74,0.44,-2.75,-2.77,-2.77
