frequency,raw,error,smoothed,error_smoothed,equalization,parametric_eq,fixed_band_eq,equalized_raw,equalized_smoothed,target
20.00,-2.48,-6.71,-2.48,-6.72,6.08,6.05,1.12,3.61,3.61,4.24
20.20,-2.30,-6.54,-2.29,-6.54,6.05,5.94,1.16,3.75,3.75,4.25
20.40,-2.11,-6.37,-2.11,-6.37,6.00,5.83,1.19,3.88,3.88,4.26
20.61,-1.94,-6.20,-1.93,-6.19,5.93,5.71,1.23,3.99,4.00,4.26
20.81,-1.74,-6.01,-1.75,-6.01,5.85,5.59,1.27,4.11,4.10,4.27
21.02,-1.57,-5.83,-1.57,-5.84,5.76,5.46,1.30,4.19,4.19,4.27
21.23,-1.40,-5.67,-1.39,-5.67,5.65,5.33,1.34,4.25,4.26,4.28
21.44,-1.22,-5.50,-1.22,-5.50,5.53,5.20,1.38,4.30,4.30,4.28
21.66,-1.06,-5.33,-1.05,-5.33,5.37,5.06,1.43,4.31,4.31,4.28
21.87,-0.88,-5.16,-0.88,-5.16,5.19,4.93,1.47,4.31,4.31,4.28
22.09,-0.71,-5.00,-0.72,-5.00,5.01,4.79,1.51,4.30,4.29,4.29
22.31,-0.56,-4.85,-0.56,-4.84,4.84,4.66,1.56,4.28,4.28,4.29
22.54,-0.41,-4.68,-0.40,-4.68,4.68,4.53,1.61,4.27,4.27,4.28
22.76,-0.24,-4.51,-0.25,-4.52,4.52,4.40,1.65,4.27,4.27,4.27
22.99,-0.10,-4.36,-0.10,-4.36,4.36,4.27,1.70,4.27,4.27,4.26
23.22,0.05,-4.21,0.05,-4.21,4.21,4.14,1.75,4.26,4.26,4.26
23.45,0.20,-4.06,0.20,-4.06,4.06,4.02,1.81,4.25,4.26,4.25
23.69,0.34,-3.91,0.34,-3.91,3.91,3.90,1.86,4.25,4.26,4.25
23.92,0.49,-3.77,0.48,-3.77,3.77,3.79,1.91,4.26,4.25,4.25
24.16,0.62,-3.64,0.61,-3.64,3.64,3.67,1.97,4.25,4.25,4.25
24.40,0.74,-3.52,0.74,-3.51,3.51,3.56,2.02,4.25,4.25,4.25
24.65,0.86,-3.39,0.86,-3.39,3.39,3.46,2.08,4.25,4.25,4.25
24.89,0.99,-3.27,0.98,-3.27,3.28,3.36,2.13,4.26,4.26,4.25
25.14,1.09,-3.17,1.08,-3.16,3.17,3.26,2.19,4.26,4.25,4.25
25.39,1.18,-3.06,1.18,-3.07,3.07,3.16,2.25,4.25,4.25,4.24
25.65,1.25,-2.99,1.26,-2.98,2.98,3.07,2.31,4.24,4.24,4.24
25.91,1.34,-2.90,1.34,-2.90,2.90,2.98,2.37,4.24,4.24,4.24
26.16,1.43,-2.81,1.42,-2.82,2.82,2.90,2.42,4.24,4.24,4.24
26.43,1.49,-2.74,1.50,-2.74,2.74,2.82,2.48,4.24,4.24,4.24
26.69,1.56,-2.67,1.57,-2.67,2.67,2.74,2.54,4.24,4.24,4.24
26.96,1.63,-2.60,1.63,-2.60,2.60,2.67,2.60,4.23,4.23,4.24
27.23,1.70,-2.53,1.70,-2.53,2.53,2.59,2.65,4.23,4.23,4.24
27.50,1.77,-2.46,1.77,-2.46,2.46,2.53,2.70,4.23,4.23,4.24
27.77,1.84,-2.40,1.84,-2.40,2.39,2.46,2.76,4.22,4.23,4.23
28.05,1.90,-2.33,1.90,-2.33,2.32,2.40,2.81,4.22,4.22,4.23
28.33,1.97,-2.26,1.98,-2.26,2.25,2.34,2.85,4.23,4.23,4.23
28.62,2.04,-2.19,2.05,-2.19,2.19,2.28,2.90,4.24,4.24,4.23
28.90,2.12,-2.12,2.11,-2.13,2.14,2.23,2.94,4.26,4.25,4.24
29.19,2.16,-2.08,2.16,-2.08,2.09,2.18,2.98,4.26,4.26,4.24
29.48,2.19,-2.04,2.20,-2.04,2.05,2.13,3.02,4.25,4.26,4.24
29.78,2.23,-2.01,2.23,-2.01,2.02,2.08,3.05,4.25,4.25,4.25
30.08,2.26,-1.98,2.26,-1.99,1.98,2.04,3.08,4.25,4.24,4.25
30.38,2.28,-1.96,2.28,-1.96,1.95,2.00,3.10,4.24,4.24,4.25
30.68,2.30,-1.94,2.31,-1.94,1.92,1.96,3.12,4.23,4.23,4.25
30.99,2.33,-1.91,2.34,-1.91,1.89,1.92,3.14,4.22,4.23,4.24
31.30,2.37,-1.87,2.38,-1.87,1.86,1.89,3.15,4.23,4.23,4.24
31.61,2.42,-1.82,2.42,-1.82,1.82,1.86,3.15,4.24,4.24,4.24
31.93,2.46,-1.78,2.46,-1.78,1.78,1.83,3.16,4.25,4.24,4.24
32.24,2.49,-1.73,2.49,-1.74,1.75,1.80,3.15,4.24,4.24,4.23
32.57,2.51,-1.71,2.52,-1.71,1.71,1.78,3.15,4.23,4.23,4.23
32.89,2.53,-1.69,2.53,-1.69,1.69,1.76,3.14,4.23,4.23,4.23
33.22,2.54,-1.67,2.54,-1.67,1.68,1.74,3.12,4.23,4.23,4.21
33.55,2.54,-1.67,2.55,-1.66,1.68,1.72,3.11,4.23,4.23,4.21
33.89,2.54,-1.66,2.54,-1.67,1.69,1.70,3.09,4.23,4.23,4.20
34.23,2.51,-1.69,2.51,-1.69,1.70,1.69,3.06,4.21,4.21,4.20
34.57,2.47,-1.72,2.48,-1.72,1.71,1.67,3.04,4.19,4.19,4.20
34.92,2.43,-1.76,2.45,-1.75,1.73,1.66,3.01,4.16,4.17,4.20
35.27,2.43,-1.76,2.43,-1.76,1.74,1.65,2.98,4.17,4.17,4.19
35.62,2.43,-1.76,2.43,-1.76,1.74,1.65,2.94,4.18,4.18,4.19
35.97,2.44,-1.75,2.44,-1.75,1.74,1.64,2.91,4.18,4.18,4.19
36.33,2.44,-1.74,2.44,-1.74,1.74,1.64,2.88,4.18,4.18,4.19
36.70,2.44,-1.74,2.44,-1.74,1.74,1.64,2.84,4.18,4.18,4.19
37.06,2.44,-1.74,2.45,-1.73,1.75,1.64,2.80,4.19,4.20,4.18
37.43,2.44,-1.74,2.45,-1.73,1.77,1.65,2.77,4.21,4.22,4.18
37.81,2.45,-1.73,2.44,-1.74,1.80,1.65,2.73,4.25,4.24,4.19
38.19,2.40,-1.78,2.39,-1.80,1.83,1.66,2.69,4.23,4.21,4.19
38.57,2.31,-1.87,2.31,-1.87,1.86,1.67,2.66,4.17,4.17,4.18
38.95,2.21,-1.98,2.25,-1.94,1.88,1.68,2.62,4.10,4.13,4.19
39.34,2.21,-1.97,2.22,-1.97,1.91,1.70,2.59,4.12,4.13,4.19
39.74,2.23,-1.95,2.22,-1.96,1.93,1.71,2.56,4.17,4.15,4.18
40.14,2.24,-1.94,2.24,-1.94,1.95,1.73,2.52,4.19,4.19,4.18
40.54,2.24,-1.93,2.25,-1.93,1.97,1.75,2.49,4.21,4.21,4.18
40.94,2.24,-1.93,2.23,-1.94,1.98,1.77,2.46,4.22,4.21,4.17
41.35,2.20,-1.97,2.21,-1.96,1.98,1.79,2.44,4.19,4.19,4.17
41.76,2.16,-1.99,2.17,-1.99,2.00,1.82,2.41,4.16,4.16,4.16
42.18,2.12,-2.03,2.12,-2.03,2.02,1.85,2.39,4.14,4.14,4.15
42.60,2.08,-2.06,2.08,-2.07,2.04,1.88,2.36,4.13,4.12,4.15
43.03,2.04,-2.10,2.06,-2.08,2.07,1.91,2.34,4.12,4.13,4.14
43.46,2.04,-2.10,2.05,-2.09,2.10,1.94,2.33,4.14,4.15,4.14
43.90,2.04,-2.08,2.02,-2.11,2.12,1.97,2.31,4.17,4.14,4.13
44.33,1.99,-2.13,1.99,-2.14,2.14,2.01,2.29,4.14,4.13,4.12
44.78,1.92,-2.19,1.94,-2.17,2.16,2.05,2.28,4.08,4.10,4.12
45.23,1.90,-2.21,1.92,-2.19,2.17,2.09,2.27,4.08,4.09,4.11
45.68,1.91,-2.19,1.91,-2.20,2.19,2.13,2.26,4.11,4.10,4.11
46.13,1.91,-2.20,1.90,-2.21,2.21,2.17,2.25,4.12,4.11,4.11
46.60,1.87,-2.23,1.88,-2.23,2.23,2.21,2.25,4.11,4.11,4.10
47.06,1.84,-2.26,1.86,-2.25,2.26,2.26,2.24,4.11,4.12,4.11
47.53,1.83,-2.28,1.84,-2.27,2.29,2.30,2.24,4.13,4.13,4.11
48.01,1.83,-2.28,1.81,-2.31,2.32,2.34,2.24,4.16,4.13,4.12
48.49,1.76,-2.35,1.76,-2.36,2.36,2.39,2.24,4.13,4.12,4.12
48.97,1.68,-2.44,1.71,-2.42,2.40,2.43,2.24,4.09,4.11,4.12
49.46,1.66,-2.46,1.66,-2.47,2.44,2.48,2.25,4.11,4.10,4.13
49.96,1.63,-2.50,1.64,-2.49,2.48,2.52,2.25,4.12,4.12,4.14
50.46,1.63,-2.51,1.64,-2.51,2.51,2.56,2.26,4.15,4.15,4.14
50.96,1.63,-2.52,1.61,-2.55,2.54,2.60,2.26,4.18,4.15,4.15
51.47,1.57,-2.58,1.57,-2.58,2.57,2.64,2.27,4.14,4.14,4.15
51.99,1.52,-2.64,1.56,-2.60,2.60,2.67,2.28,4.11,4.16,4.16
52.51,1.55,-2.60,1.55,-2.60,2.62,2.70,2.29,4.17,4.17,4.16
53.03,1.59,-2.56,1.54,-2.62,2.64,2.73,2.30,4.24,4.19,4.16
53.56,1.50,-2.65,1.51,-2.65,2.67,2.76,2.31,4.17,4.18,4.16
54.10,1.43,-2.73,1.47,-2.70,2.69,2.78,2.31,4.12,4.16,4.17
54.64,1.43,-2.73,1.43,-2.74,2.71,2.80,2.32,4.14,4.13,4.17
55.18,1.43,-2.73,1.43,-2.74,2.72,2.81,2.33,4.15,4.14,4.17
55.74,1.43,-2.72,1.43,-2.73,2.73,2.82,2.34,4.16,4.16,4.16
56.29,1.43,-2.72,1.43,-2.72,2.73,2.82,2.34,4.16,4.16,4.16
56.86,1.43,-2.72,1.43,-2.72,2.73,2.82,2.35,4.16,4.16,4.15
57.42,1.43,-2.71,1.43,-2.71,2.72,2.81,2.35,4.15,4.15,4.14
58.00,1.43,-2.70,1.43,-2.70,2.70,2.80,2.35,4.14,4.14,4.13
58.58,1.43,-2.68,1.43,-2.68,2.69,2.78,2.35,4.12,4.12,4.12
59.16,1.43,-2.67,1.43,-2.67,2.67,2.75,2.35,4.11,4.11,4.10
59.76,1.43,-2.66,1.43,-2.65,2.65,2.72,2.34,4.09,4.09,4.09
60.35,1.43,-2.63,1.43,-2.63,2.63,2.69,2.33,4.07,4.07,4.07
60.96,1.43,-2.61,1.43,-2.61,2.61,2.65,2.32,4.04,4.04,4.04
61.57,1.43,-2.58,1.43,-2.58,2.58,2.61,2.31,4.01,4.01,4.02
62.18,1.43,-2.55,1.43,-2.55,2.54,2.56,2.30,3.98,3.98,3.98
62.80,1.43,-2.51,1.43,-2.51,2.51,2.51,2.28,3.94,3.94,3.95
63.43,1.43,-2.46,1.43,-2.47,2.47,2.45,2.25,3.91,3.91,3.90
64.07,1.43,-2.43,1.43,-2.43,2.43,2.39,2.23,3.87,3.87,3.86
64.71,1.43,-2.38,1.43,-2.38,2.39,2.33,2.20,3.83,3.83,3.82
65.35,1.43,-2.34,1.43,-2.34,2.35,2.27,2.17,3.78,3.78,3.78
66.01,1.43,-2.30,1.43,-2.31,2.30,2.21,2.14,3.73,3.73,3.74
66.67,1.43,-2.26,1.44,-2.26,2.25,2.14,2.10,3.68,3.69,3.70
67.33,1.45,-2.21,1.46,-2.21,2.19,2.07,2.06,3.64,3.65,3.67
68.01,1.50,-2.13,1.49,-2.15,2.13,2.01,2.02,3.63,3.61,3.63
68.69,1.51,-2.08,1.53,-2.07,2.07,1.94,1.98,3.58,3.60,3.60
69.37,1.56,-2.00,1.58,-1.99,2.01,1.87,1.94,3.58,3.59,3.57
70.07,1.63,-1.90,1.61,-1.93,1.96,1.80,1.89,3.59,3.57,3.54
70.77,1.63,-1.87,1.64,-1.87,1.90,1.73,1.84,3.54,3.54,3.50
71.48,1.63,-1.85,1.64,-1.84,1.85,1.66,1.79,3.48,3.49,3.48
72.19,1.63,-1.81,1.63,-1.82,1.79,1.60,1.74,3.43,3.42,3.45
72.91,1.63,-1.78,1.64,-1.77,1.73,1.53,1.69,3.37,3.37,3.41
73.64,1.66,-1.71,1.67,-1.71,1.67,1.46,1.64,3.34,3.34,3.38
74.38,1.71,-1.63,1.72,-1.62,1.61,1.40,1.58,3.33,3.33,3.34
75.12,1.77,-1.53,1.78,-1.53,1.55,1.34,1.53,3.32,3.32,3.31
75.87,1.83,-1.43,1.82,-1.44,1.48,1.28,1.48,3.32,3.30,3.26
76.63,1.84,-1.38,1.84,-1.38,1.41,1.21,1.42,3.26,3.26,3.22
77.40,1.84,-1.33,1.84,-1.33,1.34,1.16,1.37,3.18,3.18,3.17
78.17,1.84,-1.29,1.85,-1.29,1.26,1.10,1.31,3.11,3.11,3.14
78.95,1.84,-1.24,1.87,-1.22,1.19,1.04,1.26,3.04,3.06,3.09
79.74,1.91,-1.13,1.90,-1.15,1.12,0.99,1.20,3.04,3.02,3.05
80.54,1.94,-1.05,1.94,-1.06,1.06,0.93,1.15,3.00,3.00,3.00
81.35,1.97,-0.98,1.99,-0.96,0.99,0.88,1.09,2.97,2.99,2.96
82.16,2.04,-0.87,2.02,-0.89,0.93,0.83,1.04,2.97,2.95,2.92
82.98,2.04,-0.83,2.04,-0.83,0.85,0.78,0.98,2.90,2.90,2.87
83.81,2.04,-0.79,2.05,-0.79,0.78,0.73,0.93,2.83,2.83,2.83
84.65,2.04,-0.75,2.05,-0.74,0.71,0.69,0.88,2.75,2.76,2.80
85.50,2.07,-0.68,2.08,-0.68,0.64,0.64,0.82,2.71,2.71,2.76
86.35,2.12,-0.59,2.12,-0.59,0.57,0.60,0.77,2.69,2.69,2.71
87.22,2.16,-0.50,2.18,-0.49,0.50,0.56,0.72,2.67,2.68,2.67
88.09,2.24,-0.38,2.22,-0.41,0.43,0.52,0.67,2.68,2.65,2.62
88.97,2.24,-0.34,2.24,-0.34,0.36,0.48,0.62,2.61,2.61,2.59
89.86,2.24,-0.30,2.25,-0.29,0.30,0.44,0.57,2.55,2.55,2.54
90.76,2.24,-0.25,2.25,-0.25,0.25,0.40,0.52,2.50,2.50,2.50
91.66,2.24,-0.21,2.25,-0.21,0.21,0.37,0.47,2.46,2.46,2.46
92.58,2.25,-0.17,2.25,-0.16,0.18,0.33,0.42,2.43,2.43,2.42
93.51,2.25,-0.12,2.25,-0.12,0.14,0.30,0.37,2.39,2.39,2.37
94.44,2.25,-0.08,2.24,-0.09,0.08,0.27,0.32,2.34,2.33,2.34
95.39,2.23,-0.06,2.22,-0.08,0.03,0.24,0.28,2.26,2.25,2.30
96.34,2.21,-0.05,2.23,-0.03,-0.03,0.21,0.23,2.18,2.20,2.26
97.30,2.25,0.02,2.29,0.07,-0.10,0.18,0.18,2.15,2.20,2.22
98.28,2.39,0.22,2.36,0.18,-0.16,0.15,0.14,2.24,2.20,2.17
99.26,2.45,0.32,2.41,0.28,-0.22,0.12,0.09,2.23,2.19,2.13
100.25,2.40,0.31,2.42,0.33,-0.28,0.10,0.05,2.12,2.14,2.10
101.25,2.37,0.32,2.39,0.34,-0.34,0.07,0.00,2.03,2.05,2.06
102.27,2.36,0.36,2.36,0.35,-0.39,0.05,-0.04,1.97,1.97,2.01
103.29,2.35,0.40,2.35,0.39,-0.42,0.02,-0.08,1.94,1.93,1.96
104.32,2.33,0.43,2.35,0.43,-0.43,-0.00,-0.13,1.91,1.92,1.91
105.37,2.32,0.46,2.33,0.46,-0.42,-0.02,-0.17,1.90,1.91,1.87
106.42,2.30,0.48,2.28,0.46,-0.41,-0.05,-0.21,1.89,1.87,1.82
107.48,2.21,0.44,2.20,0.43,-0.41,-0.07,-0.25,1.81,1.80,1.77
108.56,2.09,0.37,2.10,0.38,-0.40,-0.09,-0.28,1.69,1.70,1.72
109.64,1.99,0.32,2.02,0.35,-0.40,-0.11,-0.32,1.60,1.62,1.67
110.74,1.97,0.34,1.98,0.35,-0.39,-0.13,-0.36,1.58,1.59,1.63
111.85,1.98,0.39,1.97,0.38,-0.40,-0.14,-0.39,1.59,1.57,1.59
112.97,1.97,0.42,1.97,0.42,-0.42,-0.16,-0.42,1.56,1.56,1.55
114.10,1.96,0.45,1.97,0.45,-0.45,-0.18,-0.46,1.52,1.52,1.52
115.24,1.96,0.48,1.96,0.48,-0.48,-0.20,-0.49,1.48,1.48,1.49
116.39,1.96,0.51,1.96,0.51,-0.51,-0.21,-0.51,1.45,1.45,1.45
117.55,1.96,0.53,1.98,0.55,-0.53,-0.23,-0.54,1.44,1.45,1.43
118.73,1.97,0.57,1.99,0.58,-0.54,-0.24,-0.57,1.44,1.45,1.41
119.92,2.01,0.63,1.97,0.58,-0.54,-0.26,-0.59,1.47,1.43,1.39
121.12,1.93,0.56,1.92,0.55,-0.55,-0.27,-0.61,1.39,1.38,1.37
122.33,1.83,0.48,1.86,0.51,-0.54,-0.29,-0.63,1.29,1.32,1.35
123.55,1.79,0.46,1.81,0.47,-0.53,-0.30,-0.65,1.26,1.28,1.34
124.79,1.81,0.49,1.81,0.48,-0.51,-0.31,-0.66,1.31,1.30,1.32
126.03,1.81,0.51,1.83,0.53,-0.48,-0.33,-0.67,1.33,1.35,1.31
127.29,1.84,0.55,1.82,0.52,-0.46,-0.34,-0.68,1.38,1.35,1.29
128.57,1.80,0.52,1.75,0.47,-0.45,-0.35,-0.69,1.35,1.30,1.28
129.85,1.62,0.36,1.69,0.42,-0.45,-0.36,-0.70,1.18,1.24,1.27
131.15,1.61,0.36,1.63,0.38,-0.44,-0.37,-0.71,1.17,1.19,1.25
132.46,1.63,0.40,1.62,0.38,-0.43,-0.38,-0.71,1.21,1.19,1.23
133.79,1.64,0.43,1.66,0.44,-0.40,-0.39,-0.71,1.24,1.25,1.22
135.12,1.65,0.46,1.65,0.45,-0.38,-0.40,-0.71,1.27,1.26,1.20
136.48,1.64,0.46,1.60,0.42,-0.38,-0.41,-0.71,1.27,1.22,1.19
137.84,1.50,0.34,1.54,0.37,-0.38,-0.42,-0.71,1.13,1.16,1.17
139.22,1.46,0.32,1.48,0.33,-0.38,-0.43,-0.71,1.08,1.10,1.15
140.61,1.46,0.34,1.45,0.32,-0.38,-0.44,-0.70,1.08,1.07,1.13
142.02,1.46,0.36,1.46,0.35,-0.37,-0.45,-0.69,1.09,1.09,1.11
143.44,1.46,0.38,1.47,0.39,-0.36,-0.46,-0.69,1.10,1.11,1.08
144.87,1.46,0.41,1.47,0.42,-0.36,-0.46,-0.68,1.11,1.12,1.05
146.32,1.47,0.45,1.43,0.41,-0.36,-0.47,-0.67,1.11,1.07,1.03
147.78,1.37,0.38,1.37,0.38,-0.37,-0.48,-0.66,1.00,1.00,0.99
149.26,1.27,0.32,1.31,0.35,-0.39,-0.49,-0.65,0.89,0.92,0.96
150.75,1.25,0.34,1.26,0.35,-0.41,-0.49,-0.65,0.85,0.85,0.91
152.26,1.26,0.41,1.25,0.40,-0.43,-0.50,-0.64,0.83,0.82,0.86
153.78,1.26,0.46,1.26,0.46,-0.47,-0.51,-0.63,0.79,0.79,0.80
155.32,1.26,0.53,1.27,0.52,-0.52,-0.51,-0.62,0.74,0.74,0.74
156.88,1.26,0.58,1.26,0.58,-0.58,-0.52,-0.61,0.68,0.68,0.69
158.44,1.26,0.64,1.27,0.64,-0.64,-0.53,-0.60,0.63,0.63,0.62
160.03,1.26,0.69,1.28,0.70,-0.69,-0.53,-0.59,0.58,0.59,0.57
161.63,1.28,0.75,1.28,0.75,-0.72,-0.54,-0.58,0.56,0.56,0.53
163.24,1.28,0.80,1.26,0.77,-0.73,-0.54,-0.57,0.55,0.53,0.48
164.88,1.20,0.75,1.23,0.78,-0.73,-0.55,-0.56,0.47,0.49,0.45
166.53,1.16,0.74,1.16,0.73,-0.73,-0.55,-0.55,0.44,0.43,0.42
168.19,1.10,0.70,1.09,0.68,-0.71,-0.56,-0.54,0.40,0.38,0.40
169.87,1.00,0.61,1.04,0.65,-0.68,-0.56,-0.53,0.32,0.36,0.40
171.57,1.01,0.63,1.01,0.62,-0.65,-0.56,-0.52,0.36,0.36,0.39
173.29,1.02,0.63,1.01,0.61,-0.62,-0.57,-0.52,0.40,0.38,0.39
175.02,1.01,0.61,1.02,0.62,-0.60,-0.57,-0.51,0.41,0.42,0.40
176.77,1.01,0.60,1.01,0.60,-0.58,-0.58,-0.50,0.43,0.43,0.42
178.54,1.01,0.58,1.01,0.58,-0.57,-0.58,-0.50,0.44,0.44,0.43
180.32,1.01,0.56,1.02,0.56,-0.56,-0.58,-0.49,0.45,0.46,0.46
182.13,1.02,0.55,1.02,0.55,-0.55,-0.59,-0.49,0.47,0.47,0.47
183.95,1.03,0.54,1.03,0.54,-0.55,-0.59,-0.48,0.49,0.49,0.50
185.79,1.04,0.54,1.05,0.54,-0.55,-0.59,-0.48,0.50,0.50,0.51
187.65,1.06,0.55,1.06,0.55,-0.55,-0.60,-0.47,0.52,0.51,0.51
189.52,1.07,0.56,1.07,0.56,-0.56,-0.60,-0.47,0.51,0.51,0.52
191.42,1.08,0.57,1.09,0.57,-0.58,-0.60,-0.47,0.51,0.51,0.52
193.33,1.10,0.58,1.10,0.58,-0.59,-0.60,-0.46,0.51,0.51,0.52
195.27,1.11,0.59,1.12,0.60,-0.60,-0.61,-0.46,0.51,0.51,0.52
197.22,1.13,0.62,1.14,0.63,-0.62,-0.61,-0.46,0.52,0.53,0.51
199.19,1.15,0.64,1.16,0.65,-0.62,-0.61,-0.46,0.53,0.54,0.51
201.18,1.18,0.68,1.15,0.65,-0.63,-0.61,-0.46,0.56,0.52,0.50
203.19,1.10,0.61,1.11,0.62,-0.62,-0.61,-0.45,0.48,0.49,0.49
205.23,1.05,0.57,1.08,0.60,-0.61,-0.62,-0.45,0.45,0.47,0.48
207.28,1.05,0.58,1.06,0.59,-0.59,-0.62,-0.45,0.46,0.47,0.47
209.35,1.05,0.59,1.04,0.58,-0.57,-0.62,-0.45,0.48,0.47,0.46
211.44,1.03,0.59,1.00,0.56,-0.56,-0.62,-0.45,0.48,0.45,0.44
213.56,0.93,0.50,0.96,0.53,-0.54,-0.62,-0.45,0.39,0.42,0.43
215.69,0.91,0.50,0.93,0.52,-0.54,-0.62,-0.45,0.38,0.40,0.42
217.85,0.94,0.54,0.92,0.52,-0.54,-0.62,-0.45,0.41,0.38,0.41
220.03,0.93,0.54,0.93,0.54,-0.54,-0.62,-0.46,0.39,0.39,0.39
222.23,0.93,0.55,0.94,0.56,-0.55,-0.63,-0.46,0.38,0.39,0.38
224.45,0.93,0.56,0.93,0.56,-0.56,-0.63,-0.46,0.37,0.37,0.37
226.70,0.93,0.57,0.94,0.57,-0.57,-0.63,-0.46,0.36,0.37,0.37
228.96,0.93,0.57,0.96,0.59,-0.58,-0.63,-0.46,0.36,0.38,0.36
231.25,0.97,0.61,0.96,0.59,-0.57,-0.63,-0.46,0.40,0.38,0.36
233.57,0.97,0.62,0.94,0.58,-0.56,-0.63,-0.46,0.41,0.38,0.36
235.90,0.87,0.51,0.92,0.56,-0.54,-0.63,-0.46,0.33,0.38,0.36
238.26,0.88,0.52,0.89,0.52,-0.52,-0.63,-0.46,0.36,0.37,0.37
240.64,0.90,0.52,0.87,0.49,-0.50,-0.63,-0.46,0.40,0.36,0.38
243.05,0.85,0.47,0.86,0.47,-0.49,-0.63,-0.46,0.37,0.37,0.39
245.48,0.81,0.42,0.84,0.45,-0.48,-0.63,-0.46,0.33,0.36,0.39
247.93,0.84,0.45,0.84,0.44,-0.48,-0.63,-0.46,0.37,0.36,0.40
250.41,0.87,0.47,0.86,0.46,-0.48,-0.63,-0.46,0.40,0.39,0.40
252.92,0.89,0.49,0.90,0.50,-0.48,-0.63,-0.46,0.41,0.42,0.41
255.45,0.91,0.51,0.92,0.52,-0.48,-0.63,-0.46,0.43,0.44,0.40
258.00,0.94,0.55,0.92,0.52,-0.49,-0.62,-0.46,0.46,0.43,0.40
260.58,0.89,0.50,0.89,0.50,-0.49,-0.62,-0.46,0.40,0.41,0.39
263.19,0.84,0.45,0.86,0.47,-0.49,-0.62,-0.46,0.36,0.37,0.39
265.82,0.82,0.44,0.83,0.44,-0.47,-0.62,-0.46,0.35,0.35,0.39
268.48,0.81,0.43,0.82,0.44,-0.45,-0.62,-0.45,0.37,0.37,0.38
271.16,0.81,0.44,0.82,0.44,-0.41,-0.62,-0.45,0.40,0.40,0.38
273.87,0.81,0.44,0.79,0.42,-0.38,-0.62,-0.45,0.43,0.41,0.38
276.61,0.74,0.37,0.75,0.38,-0.35,-0.62,-0.45,0.40,0.40,0.37
279.38,0.68,0.32,0.69,0.32,-0.32,-0.62,-0.45,0.36,0.37,0.37
282.17,0.63,0.26,0.64,0.26,-0.30,-0.62,-0.45,0.34,0.34,0.38
284.99,0.61,0.23,0.62,0.24,-0.27,-0.61,-0.44,0.34,0.35,0.38
287.84,0.62,0.24,0.62,0.24,-0.26,-0.61,-0.44,0.37,0.36,0.38
290.72,0.63,0.25,0.63,0.24,-0.24,-0.61,-0.44,0.39,0.39,0.39
293.63,0.64,0.25,0.65,0.25,-0.24,-0.61,-0.44,0.40,0.40,0.40
296.57,0.66,0.26,0.66,0.26,-0.25,-0.61,-0.44,0.41,0.41,0.40
299.53,0.67,0.27,0.67,0.27,-0.27,-0.61,-0.44,0.40,0.40,0.40
302.53,0.68,0.28,0.69,0.28,-0.28,-0.60,-0.43,0.40,0.40,0.41
305.55,0.69,0.29,0.69,0.29,-0.29,-0.60,-0.43,0.40,0.40,0.41
308.61,0.70,0.30,0.71,0.31,-0.29,-0.60,-0.43,0.41,0.42,0.40
311.69,0.71,0.31,0.72,0.32,-0.29,-0.60,-0.43,0.42,0.42,0.40
314.81,0.72,0.33,0.70,0.31,-0.29,-0.60,-0.43,0.44,0.42,0.39
317.96,0.67,0.29,0.67,0.29,-0.28,-0.59,-0.43,0.39,0.39,0.39
321.14,0.62,0.25,0.64,0.26,-0.28,-0.59,-0.43,0.35,0.36,0.38
324.35,0.61,0.24,0.62,0.24,-0.27,-0.59,-0.43,0.34,0.35,0.37
327.59,0.61,0.25,0.61,0.25,-0.26,-0.59,-0.43,0.35,0.35,0.36
330.87,0.61,0.26,0.61,0.26,-0.26,-0.59,-0.43,0.35,0.35,0.35
334.18,0.61,0.27,0.61,0.27,-0.26,-0.58,-0.44,0.35,0.35,0.34
337.52,0.60,0.28,0.61,0.28,-0.27,-0.58,-0.44,0.34,0.34,0.33
340.90,0.60,0.28,0.60,0.28,-0.28,-0.58,-0.44,0.32,0.32,0.33
344.30,0.60,0.29,0.60,0.29,-0.29,-0.58,-0.44,0.31,0.31,0.32
347.75,0.60,0.31,0.60,0.31,-0.31,-0.57,-0.45,0.30,0.30,0.29
351.23,0.60,0.32,0.61,0.32,-0.32,-0.57,-0.45,0.28,0.28,0.28
354.74,0.61,0.34,0.61,0.34,-0.34,-0.57,-0.45,0.27,0.27,0.27
358.28,0.61,0.35,0.62,0.36,-0.36,-0.56,-0.46,0.26,0.26,0.26
361.87,0.62,0.38,0.62,0.38,-0.38,-0.56,-0.46,0.25,0.24,0.25
365.49,0.62,0.40,0.63,0.40,-0.40,-0.56,-0.46,0.23,0.23,0.23
369.14,0.63,0.42,0.64,0.42,-0.42,-0.56,-0.47,0.22,0.22,0.22
372.83,0.64,0.44,0.64,0.44,-0.44,-0.55,-0.47,0.21,0.21,0.21
376.56,0.65,0.46,0.65,0.46,-0.45,-0.55,-0.48,0.20,0.20,0.20
380.33,0.65,0.47,0.66,0.47,-0.47,-0.55,-0.49,0.18,0.18,0.18
384.13,0.66,0.49,0.66,0.49,-0.49,-0.55,-0.49,0.17,0.17,0.17
387.97,0.66,0.50,0.67,0.50,-0.50,-0.54,-0.50,0.16,0.16,0.16
391.85,0.67,0.52,0.67,0.52,-0.52,-0.54,-0.50,0.16,0.16,0.15
395.77,0.67,0.53,0.67,0.53,-0.53,-0.54,-0.51,0.15,0.15,0.14
399.73,0.67,0.54,0.67,0.55,-0.54,-0.53,-0.52,0.14,0.14,0.13
403.72,0.67,0.56,0.67,0.56,-0.55,-0.53,-0.53,0.12,0.12,0.12
407.76,0.66,0.57,0.66,0.56,-0.57,-0.53,-0.53,0.09,0.09,0.10
411.84,0.66,0.58,0.66,0.57,-0.60,-0.52,-0.54,0.07,0.07,0.09
415.96,0.66,0.59,0.68,0.60,-0.62,-0.52,-0.55,0.05,0.06,0.08
420.12,0.71,0.64,0.71,0.64,-0.64,-0.52,-0.56,0.07,0.07,0.08
424.32,0.76,0.70,0.75,0.68,-0.67,-0.51,-0.56,0.10,0.08,0.07
428.56,0.78,0.72,0.78,0.71,-0.69,-0.51,-0.57,0.09,0.09,0.07
432.85,0.79,0.72,0.80,0.73,-0.72,-0.51,-0.58,0.07,0.08,0.08
437.18,0.82,0.74,0.82,0.74,-0.75,-0.51,-0.59,0.07,0.07,0.08
441.55,0.85,0.75,0.86,0.76,-0.78,-0.50,-0.59,0.08,0.08,0.10
445.96,0.90,0.78,0.90,0.78,-0.79,-0.50,-0.60,0.11,0.11,0.12
450.42,0.95,0.80,0.96,0.81,-0.80,-0.50,-0.61,0.16,0.17,0.15
454.93,1.01,0.82,1.02,0.83,-0.79,-0.49,-0.62,0.22,0.22,0.19
459.48,1.07,0.84,1.05,0.83,-0.79,-0.49,-0.62,0.28,0.26,0.23
464.07,1.06,0.80,1.07,0.80,-0.79,-0.49,-0.63,0.28,0.28,0.26
468.71,1.06,0.76,1.07,0.76,-0.78,-0.48,-0.63,0.28,0.29,0.30
473.40,1.06,0.72,1.08,0.73,-0.77,-0.48,-0.64,0.29,0.31,0.34
478.13,1.10,0.72,1.11,0.73,-0.76,-0.48,-0.65,0.35,0.35,0.38
482.91,1.15,0.74,1.15,0.74,-0.74,-0.47,-0.65,0.41,0.41,0.41
487.74,1.19,0.75,1.19,0.75,-0.74,-0.47,-0.65,0.46,0.46,0.44
492.62,1.22,0.76,1.21,0.75,-0.74,-0.47,-0.66,0.49,0.48,0.46
497.55,1.21,0.74,1.21,0.73,-0.73,-0.47,-0.66,0.48,0.48,0.48
502.52,1.19,0.71,1.20,0.72,-0.73,-0.46,-0.66,0.46,0.47,0.49
507.55,1.19,0.71,1.21,0.72,-0.73,-0.46,-0.67,0.47,0.48,0.49
512.62,1.21,0.74,1.22,0.74,-0.72,-0.46,-0.67,0.50,0.50,0.48
517.75,1.22,0.77,1.19,0.73,-0.70,-0.45,-0.67,0.52,0.48,0.46
522.93,1.13,0.70,1.13,0.70,-0.69,-0.45,-0.67,0.44,0.44,0.44
528.16,1.02,0.63,1.06,0.66,-0.68,-0.45,-0.67,0.34,0.38,0.40
533.44,0.99,0.65,1.00,0.65,-0.67,-0.44,-0.67,0.32,0.33,0.35
538.77,0.96,0.67,0.95,0.66,-0.66,-0.44,-0.67,0.30,0.29,0.30
544.16,0.92,0.69,0.89,0.66,-0.65,-0.44,-0.67,0.27,0.24,0.24
549.60,0.79,0.62,0.82,0.64,-0.64,-0.44,-0.66,0.16,0.18,0.18
555.10,0.72,0.62,0.74,0.63,-0.62,-0.43,-0.66,0.10,0.12,0.11
560.65,0.67,0.64,0.66,0.63,-0.61,-0.43,-0.66,0.06,0.05,0.04
