frequency,raw,error,smoothed,error_smoothed,equalization,parametric_eq,fixed_band_eq,equalized_raw,equalized_smoothed,target
20.00,3.16,5.47,3.16,5.47,-5.47,-5.18,-3.15,-2.31,-2.31,-2.31
20.20,3.17,5.50,3.17,5.51,-5.51,-5.23,-3.23,-2.33,-2.33,-2.33
20.40,3.18,5.54,3.19,5.54,-5.55,-5.29,-3.32,-2.36,-2.36,-2.36
20.61,3.20,5.58,3.20,5.58,-5.59,-5.34,-3.42,-2.38,-2.38,-2.38
20.81,3.22,5.62,3.22,5.63,-5.62,-5.39,-3.51,-2.40,-2.40,-2.40
21.02,3.23,5.66,3.24,5.67,-5.66,-5.45,-3.61,-2.43,-2.42,-2.43
21.23,3.26,5.71,3.26,5.71,-5.71,-5.50,-3.71,-2.44,-2.45,-2.45
21.44,3.27,5.74,3.27,5.75,-5.75,-5.55,-3.81,-2.47,-2.47,-2.47
21.66,3.29,5.78,3.30,5.79,-5.79,-5.61,-3.92,-2.49,-2.49,-2.49
21.87,3.31,5.83,3.32,5.83,-5.83,-5.66,-4.03,-2.52,-2.51,-2.51
22.09,3.34,5.87,3.34,5.87,-5.87,-5.71,-4.14,-2.53,-2.53,-2.53
22.31,3.36,5.91,3.36,5.91,-5.91,-5.76,-4.26,-2.55,-2.55,-2.55
22.54,3.37,5.95,3.38,5.96,-5.96,-5.82,-4.38,-2.58,-2.58,-2.58
22.76,3.40,6.00,3.40,6.00,-6.00,-5.87,-4.50,-2.60,-2.60,-2.60
22.99,3.42,6.04,3.42,6.04,-6.04,-5.92,-4.62,-2.62,-2.62,-2.62
23.22,3.44,6.08,3.45,6.09,-6.08,-5.97,-4.75,-2.64,-2.64,-2.64
23.45,3.47,6.12,3.47,6.12,-6.12,-6.02,-4.88,-2.65,-2.65,-2.65
23.69,3.49,6.16,3.50,6.17,-6.16,-6.07,-5.02,-2.67,-2.67,-2.67
23.92,3.52,6.20,3.52,6.20,-6.20,-6.12,-5.15,-2.68,-2.68,-2.68
24.16,3.54,6.24,3.54,6.24,-6.24,-6.17,-5.29,-2.70,-2.70,-2.70
24.40,3.56,6.27,3.57,6.28,-6.28,-6.22,-5.43,-2.72,-2.71,-2.71
24.65,3.59,6.31,3.59,6.32,-6.32,-6.27,-5.58,-2.72,-2.73,-2.72
24.89,3.61,6.36,3.62,6.35,-6.35,-6.32,-5.72,-2.74,-2.74,-2.74
25.14,3.64,6.39,3.64,6.39,-6.39,-6.37,-5.87,-2.75,-2.75,-2.75
25.39,3.66,6.43,3.67,6.43,-6.43,-6.41,-6.02,-2.76,-2.76,-2.76
25.65,3.69,6.46,3.69,6.46,-6.46,-6.46,-6.17,-2.77,-2.77,-2.77
25.91,3.71,6.49,3.71,6.49,-6.50,-6.50,-6.33,-2.78,-2.78,-2.78
26.16,3.73,6.52,3.74,6.53,-6.53,-6.55,-6.48,-2.80,-2.80,-2.79
26.43,3.75,6.56,3.76,6.56,-6.57,-6.59,-6.63,-2.81,-2.81,-2.81
26.69,3.78,6.60,3.78,6.60,-6.60,-6.64,-6.78,-2.82,-2.82,-2.82
26.96,3.80,6.63,3.81,6.64,-6.64,-6.68,-6.93,-2.83,-2.83,-2.83
27.23,3.83,6.67,3.83,6.67,-6.67,-6.72,-7.08,-2.84,-2.84,-2.84
27.50,3.85,6.70,3.86,6.70,-6.70,-6.76,-7.23,-2.85,-2.85,-2.85
27.77,3.88,6.73,3.88,6.74,-6.74,-6.80,-7.37,-2.85,-2.85,-2.85
28.05,3.91,6.77,3.91,6.77,-6.77,-6.84,-7.51,-2.86,-2.86,-2.86
28.33,3.93,6.80,3.94,6.80,-6.80,-6.88,-7.64,-2.87,-2.86,-2.87
28.62,3.96,6.83,3.96,6.83,-6.83,-6.92,-7.76,-2.87,-2.87,-2.87
28.90,3.98,6.86,3.98,6.86,-6.86,-6.95,-7.88,-2.88,-2.88,-2.88
29.19,4.00,6.88,4.01,6.89,-6.89,-6.99,-7.99,-2.89,-2.89,-2.88
29.48,4.03,6.92,4.03,6.92,-6.92,-7.02,-8.09,-2.89,-2.89,-2.89
29.78,4.06,6.95,4.06,6.95,-6.95,-7.06,-8.19,-2.89,-2.89,-2.89
30.08,4.08,6.98,4.08,6.98,-6.98,-7.09,-8.27,-2.90,-2.90,-2.90
30.38,4.09,6.99,4.10,7.01,-7.01,-7.12,-8.34,-2.91,-2.90,-2.90
30.68,4.12,7.03,4.12,7.03,-7.03,-7.15,-8.40,-2.91,-2.91,-2.91
30.99,4.14,7.06,4.14,7.06,-7.05,-7.18,-8.44,-2.91,-2.91,-2.92
31.30,4.15,7.07,4.16,7.08,-7.07,-7.21,-8.48,-2.92,-2.92,-2.92
31.61,4.16,7.09,4.16,7.10,-7.09,-7.23,-8.50,-2.93,-2.93,-2.93
31.93,4.17,7.11,4.17,7.11,-7.11,-7.26,-8.51,-2.94,-2.94,-2.94
32.24,4.18,7.12,4.18,7.13,-7.13,-7.28,-8.50,-2.95,-2.95,-2.94
32.57,4.19,7.14,4.19,7.14,-7.15,-7.30,-8.49,-2.96,-2.96,-2.95
32.89,4.20,7.16,4.20,7.16,-7.17,-7.32,-8.47,-2.96,-2.96,-2.96
33.22,4.21,7.18,4.21,7.18,-7.18,-7.34,-8.43,-2.97,-2.97,-2.97
33.55,4.22,7.20,4.22,7.20,-7.20,-7.36,-8.39,-2.98,-2.98,-2.98
33.89,4.22,7.21,4.23,7.22,-7.22,-7.38,-8.34,-2.99,-2.99,-2.99
34.23,4.23,7.23,4.23,7.23,-7.23,-7.40,-8.28,-3.00,-3.00,-3.00
34.57,4.24,7.24,4.24,7.24,-7.24,-7.41,-8.21,-3.00,-3.00,-3.00
34.92,4.24,7.25,4.24,7.26,-7.25,-7.42,-8.14,-3.01,-3.01,-3.01
35.27,4.24,7.26,4.25,7.27,-7.27,-7.44,-8.06,-3.02,-3.02,-3.02
35.62,4.25,7.27,4.25,7.27,-7.27,-7.45,-7.98,-3.02,-3.02,-3.02
35.97,4.25,7.28,4.25,7.28,-7.28,-7.45,-7.90,-3.03,-3.03,-3.03
36.33,4.25,7.28,4.25,7.29,-7.29,-7.46,-7.82,-3.04,-3.03,-3.03
36.70,4.25,7.29,4.25,7.29,-7.30,-7.47,-7.73,-3.04,-3.04,-3.04
37.06,4.25,7.30,4.25,7.30,-7.30,-7.47,-7.65,-3.05,-3.05,-3.05
37.43,4.25,7.30,4.25,7.31,-7.31,-7.48,-7.57,-3.05,-3.05,-3.05
37.81,4.25,7.31,4.25,7.31,-7.31,-7.48,-7.48,-3.06,-3.06,-3.06
38.19,4.25,7.31,4.25,7.31,-7.32,-7.48,-7.40,-3.06,-3.06,-3.06
38.57,4.24,7.31,4.25,7.32,-7.32,-7.48,-7.32,-3.08,-3.07,-3.07
38.95,4.25,7.32,4.25,7.32,-7.32,-7.48,-7.25,-3.07,-3.07,-3.07
39.34,4.24,7.32,4.25,7.33,-7.32,-7.47,-7.17,-3.08,-3.08,-3.08
39.74,4.24,7.32,4.24,7.33,-7.33,-7.47,-7.10,-3.08,-3.08,-3.08
40.14,4.24,7.33,4.24,7.33,-7.33,-7.46,-7.04,-3.08,-3.09,-3.09
40.54,4.23,7.32,4.24,7.33,-7.33,-7.46,-6.97,-3.10,-3.09,-3.09
40.94,4.23,7.33,4.23,7.33,-7.33,-7.45,-6.92,-3.10,-3.10,-3.10
41.35,4.22,7.32,4.23,7.33,-7.33,-7.44,-6.86,-3.11,-3.10,-3.10
41.76,4.22,7.33,4.22,7.33,-7.33,-7.43,-6.81,-3.10,-3.11,-3.11
42.18,4.21,7.32,4.21,7.33,-7.33,-7.42,-6.77,-3.11,-3.11,-3.11
42.60,4.20,7.32,4.20,7.32,-7.32,-7.40,-6.73,-3.12,-3.12,-3.12
43.03,4.19,7.31,4.19,7.32,-7.32,-7.39,-6.70,-3.13,-3.13,-3.12
43.46,4.18,7.31,4.19,7.31,-7.32,-7.37,-6.67,-3.13,-3.13,-3.13
43.90,4.18,7.31,4.18,7.31,-7.31,-7.36,-6.64,-3.13,-3.13,-3.13
44.33,4.17,7.30,4.17,7.31,-7.31,-7.34,-6.62,-3.13,-3.13,-3.13
44.78,4.16,7.30,4.16,7.30,-7.30,-7.32,-6.61,-3.14,-3.14,-3.14
45.23,4.15,7.29,4.15,7.29,-7.30,-7.30,-6.60,-3.14,-3.14,-3.14
45.68,4.14,7.28,4.15,7.29,-7.29,-7.28,-6.59,-3.14,-3.14,-3.14
46.13,4.14,7.28,4.14,7.28,-7.28,-7.26,-6.60,-3.14,-3.14,-3.14
46.60,4.13,7.27,4.13,7.27,-7.27,-7.24,-6.60,-3.14,-3.14,-3.14
47.06,4.12,7.26,4.12,7.27,-7.26,-7.22,-6.61,-3.14,-3.14,-3.14
47.53,4.11,7.25,4.11,7.25,-7.25,-7.20,-6.63,-3.14,-3.14,-3.14
48.01,4.10,7.24,4.10,7.24,-7.25,-7.17,-6.64,-3.14,-3.14,-3.14
48.49,4.09,7.23,4.09,7.23,-7.24,-7.15,-6.67,-3.14,-3.14,-3.14
48.97,4.08,7.22,4.08,7.22,-7.23,-7.12,-6.70,-3.14,-3.14,-3.14
49.46,4.07,7.21,4.08,7.22,-7.22,-7.10,-6.73,-3.14,-3.14,-3.14
49.96,4.06,7.20,4.07,7.21,-7.21,-7.07,-6.76,-3.14,-3.14,-3.14
50.46,4.06,7.20,4.06,7.20,-7.20,-7.04,-6.80,-3.13,-3.14,-3.14
50.96,4.04,7.18,4.05,7.19,-7.19,-7.02,-6.84,-3.14,-3.14,-3.14
51.47,4.03,7.17,4.04,7.18,-7.18,-6.99,-6.89,-3.14,-3.14,-3.14
51.99,4.02,7.16,4.02,7.16,-7.17,-6.96,-6.93,-3.14,-3.14,-3.14
52.51,4.01,7.15,4.01,7.15,-7.16,-6.93,-6.98,-3.14,-3.14,-3.14
53.03,4.00,7.14,4.00,7.15,-7.14,-6.90,-7.03,-3.14,-3.14,-3.14
53.56,3.99,7.13,3.99,7.13,-7.13,-6.87,-7.08,-3.14,-3.14,-3.14
54.10,3.98,7.12,3.98,7.12,-7.12,-6.85,-7.13,-3.14,-3.14,-3.14
54.64,3.96,7.10,3.97,7.11,-7.11,-6.82,-7.18,-3.14,-3.14,-3.14
55.18,3.95,7.09,3.95,7.09,-7.10,-6.79,-7.23,-3.14,-3.14,-3.14
55.74,3.94,7.08,3.94,7.08,-7.08,-6.76,-7.28,-3.14,-3.14,-3.14
56.29,3.92,7.06,3.93,7.07,-7.07,-6.73,-7.32,-3.14,-3.14,-3.14
56.86,3.91,7.05,3.91,7.05,-7.05,-6.70,-7.36,-3.14,-3.14,-3.14
57.42,3.90,7.04,3.90,7.04,-7.04,-6.67,-7.40,-3.13,-3.14,-3.14
58.00,3.88,7.01,3.88,7.02,-7.02,-6.64,-7.44,-3.13,-3.13,-3.13
58.58,3.86,6.99,3.87,7.00,-7.00,-6.61,-7.47,-3.14,-3.13,-3.13
59.16,3.85,6.98,3.85,6.98,-6.98,-6.59,-7.50,-3.13,-3.13,-3.13
59.76,3.83,6.96,3.83,6.96,-6.96,-6.56,-7.52,-3.13,-3.13,-3.13
60.35,3.81,6.93,3.81,6.94,-6.94,-6.53,-7.53,-3.12,-3.13,-3.12
60.96,3.78,6.90,3.79,6.91,-6.92,-6.50,-7.54,-3.13,-3.13,-3.12
61.57,3.77,6.89,3.77,6.89,-6.89,-6.48,-7.54,-3.12,-3.12,-3.12
62.18,3.75,6.87,3.75,6.87,-6.87,-6.45,-7.53,-3.11,-3.11,-3.12
62.80,3.73,6.85,3.73,6.85,-6.84,-6.42,-7.51,-3.11,-3.11,-3.12
63.43,3.70,6.81,3.70,6.82,-6.82,-6.40,-7.49,-3.11,-3.11,-3.11
64.07,3.67,6.78,3.68,6.79,-6.79,-6.37,-7.46,-3.12,-3.12,-3.11
64.71,3.65,6.76,3.65,6.76,-6.77,-6.35,-7.43,-3.11,-3.12,-3.11
65.35,3.62,6.73,3.63,6.74,-6.74,-6.32,-7.39,-3.12,-3.11,-3.11
66.01,3.60,6.71,3.60,6.72,-6.71,-6.30,-7.34,-3.11,-3.11,-3.11
66.67,3.58,6.69,3.58,6.69,-6.69,-6.28,-7.28,-3.10,-3.11,-3.11
67.33,3.55,6.66,3.56,6.67,-6.66,-6.26,-7.22,-3.11,-3.11,-3.11
68.01,3.52,6.63,3.53,6.64,-6.64,-6.24,-7.16,-3.11,-3.11,-3.11
68.69,3.50,6.61,3.50,6.61,-6.61,-6.22,-7.09,-3.11,-3.11,-3.11
69.37,3.46,6.57,3.47,6.58,-6.58,-6.20,-7.01,-3.12,-3.11,-3.11
70.07,3.44,6.55,3.44,6.55,-6.55,-6.18,-6.94,-3.11,-3.11,-3.11
70.77,3.41,6.52,3.41,6.52,-6.52,-6.16,-6.86,-3.11,-3.11,-3.11
71.48,3.38,6.49,3.38,6.49,-6.49,-6.14,-6.78,-3.11,-3.11,-3.11
72.19,3.35,6.46,3.35,6.47,-6.47,-6.13,-6.69,-3.11,-3.11,-3.11
72.91,3.32,6.43,3.32,6.44,-6.44,-6.11,-6.61,-3.11,-3.12,-3.11
73.64,3.29,6.41,3.29,6.41,-6.41,-6.10,-6.53,-3.12,-3.12,-3.12
74.38,3.25,6.37,3.26,6.38,-6.38,-6.09,-6.44,-3.13,-3.12,-3.12
75.12,3.23,6.35,3.23,6.36,-6.35,-6.08,-6.36,-3.12,-3.12,-3.12
75.87,3.20,6.33,3.20,6.33,-6.32,-6.06,-6.28,-3.12,-3.13,-3.13
76.63,3.16,6.29,3.16,6.30,-6.30,-6.05,-6.20,-3.13,-3.13,-3.13
77.40,3.12,6.26,3.13,6.27,-6.27,-6.04,-6.13,-3.15,-3.14,-3.14
78.17,3.09,6.24,3.09,6.24,-6.25,-6.04,-6.05,-3.15,-3.15,-3.15
78.95,3.06,6.22,3.06,6.22,-6.22,-6.03,-5.98,-3.16,-3.16,-3.16
79.74,3.02,6.19,3.03,6.20,-6.20,-6.02,-5.91,-3.17,-3.17,-3.17
80.54,2.99,6.17,3.00,6.18,-6.17,-6.02,-5.84,-3.18,-3.18,-3.18
81.35,2.96,6.15,2.96,6.15,-6.15,-6.01,-5.78,-3.19,-3.19,-3.19
82.16,2.93,6.13,2.93,6.13,-6.13,-6.01,-5.72,-3.20,-3.20,-3.20
82.98,2.89,6.10,2.90,6.11,-6.11,-6.00,-5.67,-3.21,-3.21,-3.21
83.81,2.86,6.08,2.86,6.08,-6.08,-6.00,-5.61,-3.22,-3.22,-3.22
84.65,2.81,6.05,2.82,6.06,-6.06,-5.99,-5.56,-3.24,-3.24,-3.24
85.50,2.78,6.03,2.78,6.03,-6.03,-5.99,-5.52,-3.25,-3.25,-3.25
86.35,2.75,6.00,2.75,6.00,-6.01,-5.99,-5.48,-3.25,-3.26,-3.25
87.22,2.71,5.97,2.72,5.98,-5.98,-5.98,-5.44,-3.26,-3.26,-3.26
88.09,2.68,5.95,2.68,5.95,-5.95,-5.98,-5.41,-3.27,-3.27,-3.27
88.97,2.64,5.92,2.64,5.92,-5.92,-5.98,-5.38,-3.28,-3.28,-3.28
89.86,2.60,5.89,2.61,5.90,-5.89,-5.97,-5.36,-3.29,-3.29,-3.29
90.76,2.57,5.86,2.57,5.86,-5.86,-5.97,-5.34,-3.29,-3.29,-3.29
91.66,2.53,5.83,2.54,5.83,-5.84,-5.97,-5.32,-3.30,-3.30,-3.30
92.58,2.50,5.80,2.50,5.80,-5.81,-5.96,-5.31,-3.30,-3.30,-3.30
93.51,2.46,5.77,2.47,5.78,-5.78,-5.95,-5.30,-3.31,-3.31,-3.31
94.44,2.43,5.74,2.43,5.75,-5.75,-5.94,-5.30,-3.31,-3.31,-3.31
95.39,2.40,5.72,2.40,5.72,-5.72,-5.94,-5.30,-3.31,-3.32,-3.32
96.34,2.36,5.68,2.36,5.69,-5.69,-5.92,-5.30,-3.32,-3.32,-3.32
97.30,2.32,5.65,2.33,5.66,-5.66,-5.91,-5.31,-3.33,-3.33,-3.33
98.28,2.29,5.62,2.29,5.63,-5.63,-5.90,-5.32,-3.34,-3.34,-3.33
99.26,2.26,5.60,2.26,5.60,-5.60,-5.88,-5.33,-3.34,-3.34,-3.34
100.25,2.22,5.57,2.23,5.58,-5.58,-5.86,-5.34,-3.35,-3.35,-3.35
101.25,2.19,5.55,2.19,5.55,-5.55,-5.84,-5.36,-3.36,-3.36,-3.36
102.27,2.15,5.52,2.16,5.53,-5.53,-5.82,-5.38,-3.37,-3.37,-3.37
103.29,2.12,5.50,2.12,5.50,-5.50,-5.79,-5.40,-3.38,-3.38,-3.38
104.32,2.08,5.47,2.09,5.48,-5.48,-5.77,-5.42,-3.39,-3.39,-3.39
105.37,2.05,5.45,2.05,5.45,-5.45,-5.74,-5.44,-3.40,-3.40,-3.40
106.42,2.01,5.42,2.01,5.42,-5.43,-5.71,-5.46,-3.41,-3.41,-3.41
107.48,1.97,5.39,1.98,5.40,-5.40,-5.67,-5.49,-3.43,-3.42,-3.42
108.56,1.94,5.37,1.94,5.37,-5.38,-5.63,-5.51,-3.43,-3.43,-3.43
109.64,1.91,5.35,1.91,5.35,-5.35,-5.59,-5.53,-3.44,-3.44,-3.44
110.74,1.88,5.33,1.88,5.33,-5.33,-5.55,-5.55,-3.44,-3.45,-3.45
111.85,1.84,5.30,1.84,5.30,-5.30,-5.51,-5.57,-3.46,-3.46,-3.46
112.97,1.80,5.27,1.81,5.28,-5.28,-5.46,-5.59,-3.48,-3.47,-3.47
114.10,1.77,5.25,1.77,5.25,-5.26,-5.42,-5.60,-3.48,-3.48,-3.48
115.24,1.74,5.23,1.74,5.23,-5.23,-5.37,-5.61,-3.49,-3.49,-3.49
116.39,1.70,5.20,1.71,5.21,-5.21,-5.32,-5.62,-3.50,-3.50,-3.50
117.55,1.67,5.18,1.67,5.18,-5.18,-5.27,-5.62,-3.51,-3.51,-3.51
118.73,1.63,5.15,1.64,5.15,-5.15,-5.22,-5.62,-3.52,-3.51,-3.52
119.92,1.60,5.12,1.60,5.12,-5.12,-5.16,-5.61,-3.52,-3.52,-3.52
121.12,1.56,5.09,1.56,5.09,-5.09,-5.11,-5.60,-3.53,-3.53,-3.53
122.33,1.52,5.05,1.53,5.06,-5.06,-5.06,-5.58,-3.54,-3.54,-3.53
123.55,1.48,5.02,1.49,5.03,-5.03,-5.00,-5.55,-3.54,-3.54,-3.54
124.79,1.45,4.99,1.45,4.99,-5.00,-4.95,-5.52,-3.54,-3.54,-3.54
126.03,1.41,4.96,1.41,4.96,-4.96,-4.90,-5.48,-3.55,-3.55,-3.55
127.29,1.37,4.92,1.38,4.93,-4.93,-4.84,-5.44,-3.55,-3.55,-3.55
128.57,1.33,4.88,1.34,4.89,-4.89,-4.79,-5.39,-3.56,-3.55,-3.55
129.85,1.30,4.86,1.30,4.86,-4.85,-4.74,-5.33,-3.55,-3.56,-3.56
131.15,1.25,4.81,1.26,4.82,-4.81,-4.69,-5.27,-3.56,-3.56,-3.56
132.46,1.21,4.77,1.21,4.77,-4.77,-4.64,-5.20,-3.56,-3.56,-3.56
133.79,1.16,4.72,1.17,4.73,-4.73,-4.59,-5.12,-3.56,-3.56,-3.56
135.12,1.12,4.68,1.12,4.68,-4.68,-4.55,-5.04,-3.56,-3.56,-3.56
136.48,1.07,4.63,1.07,4.63,-4.63,-4.50,-4.96,-3.56,-3.56,-3.56
137.84,1.02,4.57,1.02,4.58,-4.58,-4.45,-4.87,-3.56,-3.56,-3.55
139.22,0.97,4.52,0.97,4.53,-4.53,-4.41,-4.78,-3.55,-3.55,-3.55
140.61,0.92,4.47,0.92,4.47,-4.47,-4.37,-4.68,-3.54,-3.54,-3.55
142.02,0.87,4.41,0.87,4.41,-4.41,-4.32,-4.58,-3.54,-3.54,-3.54
143.44,0.81,4.34,0.81,4.35,-4.35,-4.28,-4.48,-3.54,-3.53,-3.53
144.87,0.75,4.28,0.76,4.28,-4.29,-4.24,-4.38,-3.53,-3.53,-3.53
146.32,0.70,4.22,0.70,4.22,-4.22,-4.19,-4.27,-3.52,-3.52,-3.52
147.78,0.64,4.15,0.64,4.16,-4.16,-4.15,-4.17,-3.51,-3.51,-3.51
149.26,0.58,4.09,0.58,4.09,-4.09,-4.10,-4.06,-3.50,-3.51,-3.51
150.75,0.51,4.01,0.52,4.02,-4.02,-4.05,-3.95,-3.51,-3.50,-3.50
152.26,0.46,3.95,0.46,3.95,-3.95,-3.99,-3.85,-3.49,-3.49,-3.49
153.78,0.39,3.87,0.40,3.88,-3.88,-3.94,-3.74,-3.48,-3.48,-3.48
155.32,0.33,3.80,0.33,3.81,-3.81,-3.88,-3.63,-3.47,-3.47,-3.47
156.88,0.27,3.73,0.27,3.73,-3.73,-3.81,-3.52,-3.46,-3.46,-3.46
158.44,0.20,3.65,0.21,3.66,-3.66,-3.74,-3.42,-3.45,-3.45,-3.45
160.03,0.14,3.58,0.14,3.58,-3.58,-3.67,-3.31,-3.44,-3.44,-3.44
161.63,0.07,3.50,0.08,3.51,-3.51,-3.59,-3.21,-3.43,-3.43,-3.43
163.24,0.01,3.43,0.01,3.43,-3.43,-3.51,-3.11,-3.42,-3.42,-3.42
164.88,-0.06,3.35,-0.05,3.36,-3.36,-3.43,-3.01,-3.41,-3.41,-3.41
166.53,-0.12,3.28,-0.12,3.28,-3.28,-3.34,-2.91,-3.39,-3.40,-3.40
168.19,-0.19,3.20,-0.19,3.20,-3.20,-3.25,-2.81,-3.39,-3.39,-3.39
169.87,-0.27,3.11,-0.26,3.12,-3.12,-3.15,-2.71,-3.39,-3.38,-3.38
171.57,-0.34,3.04,-0.34,3.04,-3.04,-3.06,-2.61,-3.38,-3.38,-3.38
173.29,-0.42,2.95,-0.41,2.96,-2.96,-2.96,-2.52,-3.37,-3.37,-3.37
175.02,-0.49,2.87,-0.49,2.88,-2.87,-2.86,-2.43,-3.36,-3.36,-3.36
176.77,-0.57,2.79,-0.57,2.79,-2.79,-2.76,-2.34,-3.36,-3.36,-3.36
178.54,-0.65,2.70,-0.65,2.71,-2.71,-2.66,-2.25,-3.35,-3.35,-3.35
180.32,-0.74,2.61,-0.73,2.62,-2.62,-2.56,-2.16,-3.36,-3.35,-3.35
182.13,-0.82,2.53,-0.82,2.53,-2.53,-2.46,-2.08,-3.35,-3.35,-3.35
183.95,-0.91,2.44,-0.90,2.45,-2.45,-2.36,-1.99,-3.35,-3.35,-3.35
185.79,-0.99,2.36,-0.99,2.36,-2.36,-2.27,-1.91,-3.34,-3.35,-3.35
187.65,-1.08,2.27,-1.08,2.27,-2.27,-2.18,-1.83,-3.35,-3.35,-3.35
189.52,-1.18,2.17,-1.17,2.18,-2.18,-2.08,-1.75,-3.36,-3.35,-3.35
191.42,-1.26,2.09,-1.26,2.09,-2.09,-1.99,-1.67,-3.35,-3.35,-3.35
193.33,-1.35,2.00,-1.35,2.00,-2.01,-1.91,-1.60,-3.35,-3.35,-3.35
195.27,-1.44,1.91,-1.44,1.92,-1.92,-1.82,-1.52,-3.35,-3.35,-3.35
197.22,-1.53,1.83,-1.52,1.83,-1.83,-1.74,-1.45,-3.36,-3.36,-3.36
199.19,-1.62,1.74,-1.61,1.75,-1.75,-1.66,-1.38,-3.36,-3.36,-3.36
201.18,-1.70,1.67,-1.70,1.66,-1.66,-1.58,-1.31,-3.36,-3.37,-3.37
203.19,-1.80,1.57,-1.79,1.58,-1.58,-1.50,-1.24,-3.38,-3.37,-3.37
205.23,-1.89,1.49,-1.88,1.49,-1.50,-1.43,-1.18,-3.38,-3.38,-3.38
207.28,-1.97,1.41,-1.97,1.41,-1.42,-1.36,-1.12,-3.38,-3.39,-3.38
209.35,-2.06,1.33,-2.05,1.34,-1.34,-1.29,-1.05,-3.40,-3.39,-3.39
211.44,-2.13,1.27,-2.13,1.27,-1.26,-1.23,-0.99,-3.39,-3.40,-3.40
213.56,-2.22,1.18,-2.21,1.19,-1.19,-1.16,-0.94,-3.41,-3.40,-3.40
215.69,-2.29,1.12,-2.29,1.12,-1.12,-1.10,-0.88,-3.41,-3.41,-3.41
217.85,-2.37,1.04,-2.36,1.05,-1.05,-1.04,-0.83,-3.42,-3.41,-3.41
220.03,-2.44,0.98,-2.43,0.98,-0.98,-0.99,-0.77,-3.42,-3.42,-3.42
222.23,-2.50,0.92,-2.50,0.92,-0.92,-0.93,-0.73,-3.42,-3.42,-3.42
224.45,-2.57,0.85,-2.56,0.86,-0.86,-0.88,-0.68,-3.42,-3.42,-3.42
226.70,-2.63,0.79,-2.62,0.80,-0.80,-0.83,-0.63,-3.42,-3.42,-3.42
228.96,-2.68,0.74,-2.68,0.74,-0.74,-0.78,-0.59,-3.42,-3.42,-3.42
231.25,-2.74,0.68,-2.74,0.68,-0.68,-0.74,-0.55,-3.42,-3.42,-3.42
233.57,-2.79,0.62,-2.78,0.63,-0.63,-0.70,-0.52,-3.42,-3.42,-3.41
235.90,-2.83,0.58,-2.83,0.58,-0.58,-0.65,-0.48,-3.41,-3.41,-3.41
238.26,-2.86,0.54,-2.86,0.54,-0.54,-0.61,-0.45,-3.40,-3.40,-3.40
240.64,-2.90,0.49,-2.90,0.50,-0.50,-0.58,-0.43,-3.39,-3.39,-3.39
243.05,-2.93,0.46,-2.93,0.46,-0.46,-0.54,-0.40,-3.38,-3.39,-3.39
245.48,-2.97,0.41,-2.96,0.42,-0.42,-0.51,-0.38,-3.39,-3.38,-3.38
247.93,-2.99,0.38,-2.99,0.39,-0.39,-0.48,-0.36,-3.37,-3.37,-3.37
250.41,-3.01,0.35,-3.01,0.36,-0.35,-0.45,-0.35,-3.36,-3.36,-3.36
252.92,-3.03,0.33,-3.03,0.33,-0.32,-0.42,-0.34,-3.35,-3.35,-3.36
255.45,-3.06,0.29,-3.05,0.30,-0.30,-0.40,-0.33,-3.35,-3.35,-3.35
258.00,-3.08,0.26,-3.07,0.27,-0.27,-0.37,-0.32,-3.35,-3.35,-3.34
260.58,-3.09,0.25,-3.09,0.25,-0.25,-0.35,-0.32,-3.34,-3.34,-3.34
263.19,-3.11,0.23,-3.10,0.23,-0.23,-0.33,-0.32,-3.34,-3.34,-3.34
265.82,-3.12,0.21,-3.12,0.22,-0.22,-0.32,-0.32,-3.33,-3.33,-3.33
268.48,-3.13,0.20,-3.13,0.20,-0.20,-0.30,-0.33,-3.33,-3.33,-3.33
271.16,-3.14,0.19,-3.14,0.19,-0.19,-0.29,-0.34,-3.33,-3.33,-3.33
273.87,-3.15,0.18,-3.15,0.18,-0.18,-0.28,-0.35,-3.32,-3.33,-3.33
276.61,-3.16,0.16,-3.15,0.17,-0.17,-0.27,-0.36,-3.33,-3.32,-3.32
279.38,-3.16,0.16,-3.16,0.16,-0.16,-0.26,-0.38,-3.32,-3.32,-3.32
282.17,-3.16,0.16,-3.16,0.16,-0.16,-0.26,-0.40,-3.32,-3.32,-3.32
284.99,-3.16,0.15,-3.15,0.16,-0.16,-0.25,-0.42,-3.32,-3.31,-3.31
287.84,-3.15,0.16,-3.15,0.16,-0.16,-0.25,-0.44,-3.31,-3.31,-3.31
290.72,-3.14,0.16,-3.13,0.17,-0.17,-0.26,-0.46,-3.31,-3.30,-3.30
293.63,-3.12,0.18,-3.12,0.18,-0.18,-0.26,-0.49,-3.30,-3.30,-3.30
296.57,-3.10,0.19,-3.10,0.20,-0.20,-0.27,-0.52,-3.29,-3.29,-3.29
299.53,-3.08,0.21,-3.07,0.21,-0.21,-0.28,-0.55,-3.29,-3.29,-3.29
302.53,-3.05,0.23,-3.05,0.23,-0.23,-0.29,-0.58,-3.28,-3.28,-3.28
305.55,-3.02,0.25,-3.01,0.26,-0.26,-0.30,-0.61,-3.27,-3.27,-3.27
308.61,-2.98,0.28,-2.98,0.28,-0.28,-0.32,-0.64,-3.26,-3.26,-3.26
311.69,-2.94,0.31,-2.94,0.31,-0.31,-0.33,-0.67,-3.25,-3.25,-3.25
314.81,-2.90,0.34,-2.90,0.34,-0.34,-0.35,-0.71,-3.24,-3.24,-3.24
317.96,-2.86,0.37,-2.86,0.37,-0.37,-0.38,-0.75,-3.23,-3.23,-3.23
321.14,-2.82,0.40,-2.82,0.40,-0.41,-0.40,-0.78,-3.22,-3.22,-3.22
324.35,-2.78,0.43,-2.77,0.44,-0.44,-0.43,-0.82,-3.22,-3.21,-3.21
327.59,-2.73,0.47,-2.73,0.48,-0.48,-0.46,-0.86,-3.20,-3.20,-3.20
330.87,-2.68,0.52,-2.68,0.52,-0.52,-0.49,-0.90,-3.19,-3.20,-3.20
334.18,-2.64,0.55,-2.63,0.56,-0.56,-0.53,-0.94,-3.19,-3.19,-3.19
337.52,-2.59,0.60,-2.59,0.60,-0.60,-0.57,-0.98,-3.18,-3.18,-3.19
340.90,-2.54,0.64,-2.54,0.64,-0.64,-0.61,-1.03,-3.18,-3.18,-3.18
344.30,-2.50,0.68,-2.49,0.69,-0.69,-0.65,-1.07,-3.19,-3.18,-3.18
347.75,-2.45,0.73,-2.44,0.74,-0.74,-0.70,-1.12,-3.19,-3.18,-3.18
351.23,-2.39,0.79,-2.39,0.79,-0.79,-0.75,-1.16,-3.18,-3.18,-3.18
354.74,-2.34,0.84,-2.34,0.85,-0.85,-0.80,-1.21,-3.18,-3.18,-3.18
358.28,-2.29,0.90,-2.28,0.91,-0.90,-0.85,-1.25,-3.19,-3.19,-3.19
361.87,-2.23,0.96,-2.22,0.97,-0.97,-0.91,-1.30,-3.19,-3.19,-3.19
365.49,-2.16,1.03,-2.16,1.03,-1.03,-0.97,-1.35,-3.19,-3.19,-3.19
369.14,-2.10,1.09,-2.09,1.10,-1.10,-1.03,-1.40,-3.19,-3.19,-3.19
372.83,-2.03,1.16,-2.02,1.16,-1.17,-1.09,-1.45,-3.19,-3.19,-3.19
376.56,-1.95,1.23,-1.95,1.23,-1.24,-1.16,-1.50,-3.18,-3.19,-3.18
380.33,-1.88,1.30,-1.87,1.31,-1.31,-1.23,-1.55,-3.18,-3.18,-3.18
384.13,-1.80,1.38,-1.80,1.38,-1.38,-1.30,-1.60,-3.18,-3.18,-3.18
387.97,-1.72,1.45,-1.72,1.46,-1.45,-1.37,-1.66,-3.17,-3.17,-3.17
391.85,-1.64,1.53,-1.64,1.53,-1.53,-1.45,-1.71,-3.17,-3.17,-3.17
395.77,-1.56,1.60,-1.56,1.60,-1.60,-1.53,-1.76,-3.16,-3.16,-3.16
399.73,-1.48,1.67,-1.48,1.68,-1.68,-1.60,-1.82,-3.15,-3.15,-3.15
403.72,-1.40,1.75,-1.40,1.75,-1.75,-1.68,-1.87,-3.15,-3.15,-3.15
407.76,-1.32,1.82,-1.31,1.82,-1.83,-1.76,-1.93,-3.14,-3.14,-3.14
411.84,-1.24,1.89,-1.23,1.90,-1.90,-1.84,-1.98,-3.14,-3.13,-3.13
415.96,-1.15,1.97,-1.15,1.97,-1.97,-1.92,-2.03,-3.12,-3.12,-3.12
420.12,-1.08,2.04,-1.07,2.04,-2.04,-2.00,-2.09,-3.12,-3.12,-3.12
424.32,-1.00,2.11,-1.00,2.11,-2.11,-2.08,-2.14,-3.11,-3.11,-3.11
428.56,-0.93,2.17,-0.92,2.18,-2.18,-2.16,-2.19,-3.11,-3.11,-3.10
432.85,-0.85,2.24,-0.85,2.24,-2.25,-2.23,-2.24,-3.09,-3.09,-3.09
437.18,-0.78,2.30,-0.77,2.31,-2.31,-2.30,-2.29,-3.08,-3.08,-3.08
441.55,-0.70,2.37,-0.70,2.37,-2.36,-2.37,-2.34,-3.06,-3.06,-3.07
445.96,-0.64,2.42,-0.64,2.42,-2.42,-2.43,-2.39,-3.05,-3.05,-3.06
450.42,-0.59,2.46,-0.58,2.47,-2.46,-2.49,-2.43,-3.05,-3.05,-3.05
