frequency,raw,error,smoothed,error_smoothed,equalization,parametric_eq,fixed_band_eq,equalized_raw,equalized_smoothed,target
20.00,-6.57,-3.75,-6.57,-3.75,3.75,4.17,0.77,-2.83,-2.83,-2.83
20.20,-6.50,-3.72,-6.51,-3.72,3.72,4.11,0.80,-2.78,-2.79,-2.79
20.40,-6.44,-3.69,-6.44,-3.69,3.69,4.05,0.82,-2.75,-2.75,-2.75
20.61,-6.37,-3.65,-6.37,-3.65,3.65,3.99,0.85,-2.72,-2.72,-2.73
20.81,-6.30,-3.61,-6.30,-3.62,3.62,3.93,0.88,-2.68,-2.69,-2.69
21.02,-6.23,-3.58,-6.23,-3.58,3.58,3.86,0.91,-2.65,-2.66,-2.65
21.23,-6.16,-3.53,-6.17,-3.54,3.53,3.80,0.93,-2.63,-2.63,-2.63
21.44,-6.10,-3.49,-6.10,-3.49,3.49,3.74,0.96,-2.61,-2.61,-2.61
21.66,-6.03,-3.44,-6.03,-3.44,3.44,3.68,1.00,-2.59,-2.59,-2.59
21.87,-5.96,-3.38,-5.96,-3.39,3.39,3.61,1.03,-2.58,-2.58,-2.58
22.09,-5.89,-3.33,-5.89,-3.33,3.33,3.55,1.06,-2.56,-2.56,-2.56
22.31,-5.82,-3.27,-5.82,-3.27,3.27,3.48,1.09,-2.55,-2.56,-2.55
22.54,-5.76,-3.21,-5.76,-3.21,3.21,3.42,1.13,-2.55,-2.55,-2.55
22.76,-5.69,-3.15,-5.69,-3.15,3.15,3.35,1.16,-2.54,-2.54,-2.54
22.99,-5.62,-3.08,-5.62,-3.08,3.09,3.29,1.20,-2.54,-2.54,-2.54
23.22,-5.55,-3.02,-5.55,-3.02,3.03,3.22,1.23,-2.53,-2.53,-2.53
23.45,-5.48,-2.96,-5.48,-2.96,2.97,3.16,1.27,-2.52,-2.52,-2.52
23.69,-5.41,-2.90,-5.41,-2.90,2.91,3.09,1.31,-2.51,-2.51,-2.51
23.92,-5.34,-2.85,-5.34,-2.85,2.85,3.03,1.35,-2.49,-2.50,-2.49
24.16,-5.27,-2.80,-5.27,-2.79,2.79,2.96,1.39,-2.48,-2.48,-2.47
24.40,-5.20,-2.74,-5.20,-2.73,2.73,2.89,1.43,-2.47,-2.47,-2.46
24.65,-5.13,-2.67,-5.13,-2.67,2.67,2.83,1.47,-2.46,-2.46,-2.47
24.89,-5.06,-2.62,-5.06,-2.61,2.61,2.76,1.51,-2.45,-2.45,-2.45
25.14,-4.99,-2.55,-4.99,-2.55,2.56,2.69,1.55,-2.44,-2.44,-2.44
25.39,-4.92,-2.49,-4.92,-2.50,2.50,2.63,1.59,-2.43,-2.43,-2.43
25.65,-4.85,-2.43,-4.85,-2.44,2.44,2.56,1.63,-2.42,-2.42,-2.42
25.91,-4.79,-2.38,-4.79,-2.38,2.38,2.49,1.67,-2.42,-2.41,-2.41
26.16,-4.71,-2.31,-4.72,-2.32,2.32,2.43,1.71,-2.39,-2.40,-2.40
26.43,-4.64,-2.25,-4.64,-2.26,2.26,2.36,1.75,-2.38,-2.39,-2.39
26.69,-4.57,-2.20,-4.57,-2.20,2.20,2.29,1.78,-2.37,-2.37,-2.37
26.96,-4.50,-2.14,-4.50,-2.14,2.14,2.22,1.82,-2.36,-2.36,-2.36
27.23,-4.43,-2.08,-4.43,-2.08,2.08,2.16,1.85,-2.35,-2.35,-2.35
27.50,-4.36,-2.03,-4.36,-2.02,2.02,2.09,1.89,-2.34,-2.34,-2.33
27.77,-4.29,-1.96,-4.29,-1.96,1.96,2.02,1.92,-2.33,-2.33,-2.33
28.05,-4.22,-1.91,-4.22,-1.90,1.90,1.95,1.95,-2.32,-2.32,-2.32
28.33,-4.15,-1.84,-4.15,-1.84,1.84,1.89,1.97,-2.31,-2.31,-2.32
28.62,-4.08,-1.79,-4.08,-1.78,1.78,1.82,2.00,-2.30,-2.30,-2.30
28.90,-4.01,-1.72,-4.01,-1.72,1.72,1.75,2.02,-2.29,-2.29,-2.29
29.19,-3.94,-1.66,-3.94,-1.67,1.66,1.68,2.04,-2.28,-2.28,-2.28
29.48,-3.87,-1.61,-3.87,-1.61,1.61,1.62,2.05,-2.26,-2.26,-2.26
29.78,-3.80,-1.55,-3.80,-1.55,1.55,1.55,2.06,-2.25,-2.25,-2.25
30.08,-3.73,-1.49,-3.74,-1.49,1.50,1.48,2.06,-2.24,-2.24,-2.24
30.38,-3.67,-1.44,-3.67,-1.44,1.44,1.41,2.07,-2.23,-2.23,-2.23
30.68,-3.61,-1.39,-3.61,-1.39,1.39,1.35,2.06,-2.22,-2.22,-2.23
30.99,-3.55,-1.34,-3.55,-1.34,1.33,1.28,2.06,-2.22,-2.22,-2.22
31.30,-3.49,-1.28,-3.49,-1.29,1.28,1.22,2.05,-2.21,-2.21,-2.21
31.61,-3.42,-1.23,-3.43,-1.23,1.22,1.15,2.03,-2.20,-2.20,-2.19
31.93,-3.36,-1.17,-3.36,-1.17,1.17,1.08,2.01,-2.20,-2.19,-2.19
32.24,-3.29,-1.11,-3.29,-1.11,1.11,1.02,1.99,-2.18,-2.18,-2.18
32.57,-3.22,-1.05,-3.22,-1.05,1.05,0.95,1.96,-2.17,-2.17,-2.17
32.89,-3.15,-1.00,-3.15,-0.99,1.00,0.89,1.92,-2.16,-2.16,-2.16
33.22,-3.09,-0.93,-3.09,-0.94,0.94,0.82,1.89,-2.15,-2.15,-2.16
33.55,-3.02,-0.88,-3.02,-0.88,0.88,0.76,1.85,-2.14,-2.14,-2.14
33.89,-2.96,-0.82,-2.96,-0.83,0.83,0.70,1.80,-2.13,-2.13,-2.14
34.23,-2.90,-0.78,-2.90,-0.77,0.77,0.63,1.75,-2.13,-2.13,-2.12
34.57,-2.84,-0.72,-2.84,-0.72,0.72,0.57,1.70,-2.12,-2.12,-2.12
34.92,-2.78,-0.67,-2.78,-0.67,0.66,0.51,1.65,-2.12,-2.12,-2.12
35.27,-2.72,-0.61,-2.72,-0.61,0.61,0.45,1.59,-2.12,-2.12,-2.11
35.62,-2.66,-0.55,-2.66,-0.55,0.55,0.39,1.53,-2.11,-2.11,-2.11
35.97,-2.59,-0.48,-2.59,-0.49,0.49,0.33,1.47,-2.10,-2.11,-2.11
36.33,-2.53,-0.44,-2.53,-0.42,0.43,0.27,1.41,-2.11,-2.10,-2.10
36.70,-2.46,-0.36,-2.47,-0.36,0.36,0.21,1.34,-2.10,-2.10,-2.10
37.06,-2.40,-0.29,-2.40,-0.30,0.30,0.15,1.27,-2.10,-2.10,-2.11
37.43,-2.34,-0.24,-2.34,-0.23,0.23,0.09,1.20,-2.11,-2.10,-2.10
37.81,-2.27,-0.17,-2.28,-0.17,0.17,0.04,1.13,-2.10,-2.11,-2.11
38.19,-2.21,-0.10,-2.21,-0.11,0.10,-0.02,1.06,-2.11,-2.11,-2.11
38.57,-2.15,-0.05,-2.15,-0.04,0.04,-0.07,0.99,-2.11,-2.11,-2.10
38.95,-2.09,0.02,-2.09,0.02,-0.03,-0.13,0.92,-2.12,-2.12,-2.12
39.34,-2.03,0.09,-2.03,0.09,-0.09,-0.18,0.85,-2.12,-2.12,-2.12
39.74,-1.97,0.16,-1.97,0.16,-0.15,-0.23,0.77,-2.13,-2.12,-2.13
40.14,-1.91,0.21,-1.91,0.22,-0.21,-0.28,0.70,-2.12,-2.13,-2.13
40.54,-1.86,0.28,-1.86,0.27,-0.27,-0.33,0.63,-2.13,-2.13,-2.14
40.94,-1.81,0.32,-1.81,0.32,-0.32,-0.38,0.55,-2.13,-2.13,-2.13
41.35,-1.77,0.37,-1.77,0.37,-0.36,-0.43,0.48,-2.14,-2.13,-2.14
41.76,-1.73,0.41,-1.73,0.41,-0.41,-0.48,0.40,-2.14,-2.14,-2.14
42.18,-1.69,0.44,-1.69,0.44,-0.44,-0.53,0.33,-2.14,-2.14,-2.14
42.60,-1.66,0.48,-1.66,0.48,-0.48,-0.57,0.25,-2.14,-2.14,-2.14
43.03,-1.62,0.51,-1.63,0.51,-0.51,-0.62,0.18,-2.14,-2.14,-2.13
43.46,-1.59,0.55,-1.60,0.54,-0.55,-0.66,0.10,-2.14,-2.14,-2.14
43.90,-1.57,0.57,-1.57,0.58,-0.58,-0.70,0.03,-2.15,-2.15,-2.14
44.33,-1.54,0.61,-1.54,0.61,-0.61,-0.74,-0.05,-2.15,-2.15,-2.15
44.78,-1.51,0.64,-1.52,0.63,-0.64,-0.78,-0.12,-2.15,-2.15,-2.15
45.23,-1.49,0.66,-1.49,0.67,-0.66,-0.82,-0.19,-2.15,-2.15,-2.15
45.68,-1.46,0.69,-1.46,0.69,-0.68,-0.86,-0.27,-2.14,-2.14,-2.15
46.13,-1.43,0.72,-1.44,0.71,-0.70,-0.89,-0.34,-2.14,-2.14,-2.15
46.60,-1.42,0.71,-1.42,0.73,-0.72,-0.93,-0.42,-2.15,-2.14,-2.14
47.06,-1.40,0.74,-1.40,0.74,-0.75,-0.96,-0.49,-2.15,-2.14,-2.14
47.53,-1.37,0.77,-1.38,0.76,-0.77,-1.00,-0.57,-2.14,-2.14,-2.14
48.01,-1.35,0.77,-1.35,0.78,-0.79,-1.03,-0.64,-2.14,-2.14,-2.13
48.49,-1.33,0.80,-1.33,0.80,-0.81,-1.06,-0.71,-2.14,-2.14,-2.13
48.97,-1.31,0.84,-1.31,0.84,-0.83,-1.09,-0.79,-2.15,-2.15,-2.15
49.46,-1.29,0.87,-1.29,0.87,-0.86,-1.11,-0.86,-2.15,-2.15,-2.16
49.96,-1.27,0.90,-1.28,0.89,-0.88,-1.14,-0.93,-2.15,-2.16,-2.17
50.46,-1.26,0.90,-1.26,0.91,-0.90,-1.17,-1.01,-2.17,-2.17,-2.16
50.96,-1.25,0.92,-1.25,0.93,-0.92,-1.19,-1.08,-2.18,-2.18,-2.17
51.47,-1.24,0.95,-1.24,0.94,-0.94,-1.21,-1.15,-2.19,-2.18,-2.19
51.99,-1.22,0.97,-1.22,0.96,-0.97,-1.24,-1.22,-2.19,-2.19,-2.19
52.51,-1.20,0.99,-1.21,0.99,-0.99,-1.26,-1.29,-2.19,-2.19,-2.19
53.03,-1.19,1.00,-1.19,1.01,-1.01,-1.28,-1.36,-2.20,-2.20,-2.20
53.56,-1.17,1.03,-1.17,1.03,-1.04,-1.30,-1.42,-2.21,-2.21,-2.21
54.10,-1.16,1.06,-1.16,1.06,-1.07,-1.32,-1.49,-2.23,-2.23,-2.23
54.64,-1.13,1.10,-1.13,1.10,-1.10,-1.33,-1.55,-2.23,-2.24,-2.24
55.18,-1.11,1.14,-1.11,1.14,-1.14,-1.35,-1.62,-2.25,-2.25,-2.25
55.74,-1.08,1.19,-1.09,1.18,-1.18,-1.36,-1.68,-2.26,-2.26,-2.27
56.29,-1.06,1.21,-1.06,1.22,-1.22,-1.38,-1.74,-2.28,-2.28,-2.27
56.86,-1.03,1.26,-1.03,1.26,-1.26,-1.39,-1.79,-2.29,-2.29,-2.29
57.42,-1.00,1.31,-1.00,1.31,-1.30,-1.41,-1.85,-2.31,-2.31,-2.31
58.00,-0.97,1.35,-0.97,1.35,-1.35,-1.42,-1.90,-2.32,-2.32,-2.33
58.58,-0.95,1.39,-0.95,1.39,-1.39,-1.43,-1.94,-2.34,-2.34,-2.34
59.16,-0.92,1.43,-0.92,1.43,-1.43,-1.44,-1.99,-2.35,-2.35,-2.35
59.76,-0.90,1.46,-0.90,1.47,-1.47,-1.45,-2.03,-2.37,-2.37,-2.37
60.35,-0.88,1.51,-0.88,1.51,-1.51,-1.46,-2.07,-2.40,-2.40,-2.39
60.96,-0.86,1.55,-0.86,1.55,-1.56,-1.47,-2.10,-2.42,-2.42,-2.42
61.57,-0.85,1.60,-0.85,1.60,-1.60,-1.48,-2.13,-2.45,-2.45,-2.45
62.18,-0.83,1.64,-0.84,1.64,-1.64,-1.49,-2.16,-2.47,-2.48,-2.48
62.80,-0.82,1.68,-0.82,1.69,-1.68,-1.50,-2.19,-2.51,-2.50,-2.50
63.43,-0.80,1.73,-0.80,1.73,-1.73,-1.50,-2.21,-2.53,-2.53,-2.53
64.07,-0.78,1.77,-0.79,1.77,-1.77,-1.51,-2.22,-2.55,-2.55,-2.56
64.71,-0.77,1.80,-0.77,1.81,-1.81,-1.52,-2.24,-2.58,-2.58,-2.57
65.35,-0.75,1.85,-0.75,1.84,-1.85,-1.53,-2.25,-2.60,-2.60,-2.60
66.01,-0.74,1.88,-0.74,1.88,-1.89,-1.53,-2.25,-2.63,-2.63,-2.62
66.67,-0.73,1.92,-0.73,1.92,-1.92,-1.54,-2.26,-2.65,-2.65,-2.65
67.33,-0.72,1.96,-0.72,1.95,-1.95,-1.55,-2.26,-2.67,-2.67,-2.68
68.01,-0.71,1.99,-0.71,1.99,-1.98,-1.55,-2.26,-2.69,-2.70,-2.70
68.69,-0.71,2.02,-0.71,2.02,-2.01,-1.56,-2.26,-2.72,-2.72,-2.73
69.37,-0.71,2.04,-0.72,2.04,-2.03,-1.57,-2.25,-2.74,-2.75,-2.75
70.07,-0.72,2.05,-0.72,2.05,-2.05,-1.58,-2.24,-2.77,-2.77,-2.77
70.77,-0.73,2.06,-0.73,2.07,-2.07,-1.58,-2.23,-2.80,-2.80,-2.80
71.48,-0.73,2.09,-0.74,2.08,-2.09,-1.59,-2.22,-2.82,-2.83,-2.82
72.19,-0.74,2.10,-0.74,2.10,-2.11,-1.60,-2.21,-2.85,-2.85,-2.84
72.91,-0.74,2.12,-0.74,2.12,-2.13,-1.61,-2.20,-2.87,-2.87,-2.87
73.64,-0.74,2.15,-0.74,2.14,-2.15,-1.62,-2.19,-2.89,-2.89,-2.89
74.38,-0.74,2.16,-0.74,2.17,-2.17,-1.62,-2.18,-2.91,-2.91,-2.91
75.12,-0.73,2.19,-0.73,2.19,-2.19,-1.63,-2.16,-2.92,-2.92,-2.92
75.87,-0.72,2.20,-0.72,2.21,-2.21,-1.64,-2.15,-2.93,-2.93,-2.93
76.63,-0.71,2.23,-0.71,2.23,-2.22,-1.65,-2.14,-2.94,-2.94,-2.94
77.40,-0.71,2.24,-0.71,2.24,-2.24,-1.67,-2.12,-2.95,-2.95,-2.95
78.17,-0.71,2.26,-0.71,2.25,-2.24,-1.68,-2.11,-2.96,-2.96,-2.97
78.95,-0.72,2.25,-0.72,2.25,-2.25,-1.69,-2.10,-2.97,-2.97,-2.97
79.74,-0.73,2.24,-0.73,2.24,-2.24,-1.70,-2.09,-2.98,-2.98,-2.98
80.54,-0.75,2.23,-0.75,2.24,-2.24,-1.71,-2.08,-2.99,-2.99,-2.99
81.35,-0.77,2.22,-0.77,2.22,-2.23,-1.73,-2.07,-3.00,-3.00,-3.00
82.16,-0.79,2.21,-0.79,2.21,-2.21,-1.74,-2.07,-3.00,-3.01,-3.01
82.98,-0.82,2.19,-0.82,2.20,-2.19,-1.76,-2.06,-3.02,-3.01,-3.01
83.81,-0.84,2.19,-0.85,2.18,-2.17,-1.77,-2.05,-3.02,-3.02,-3.03
84.65,-0.88,2.15,-0.88,2.16,-2.15,-1.79,-2.05,-3.04,-3.03,-3.03
85.50,-0.90,2.13,-0.91,2.13,-2.13,-1.81,-2.05,-3.03,-3.04,-3.04
86.35,-0.93,2.12,-0.94,2.11,-2.11,-1.82,-2.05,-3.04,-3.05,-3.05
87.22,-0.97,2.08,-0.97,2.09,-2.09,-1.84,-2.05,-3.06,-3.05,-3.05
88.09,-0.99,2.07,-1.00,2.06,-2.07,-1.86,-2.05,-3.06,-3.06,-3.07
88.97,-1.02,2.04,-1.02,2.05,-2.05,-1.88,-2.06,-3.07,-3.07,-3.06
89.86,-1.04,2.03,-1.04,2.03,-2.03,-1.90,-2.06,-3.08,-3.08,-3.08
90.76,-1.06,2.03,-1.06,2.02,-2.02,-1.92,-2.07,-3.09,-3.09,-3.09
91.66,-1.07,2.01,-1.07,2.02,-2.02,-1.94,-2.08,-3.09,-3.09,-3.09
92.58,-1.08,2.02,-1.08,2.02,-2.02,-1.96,-2.09,-3.10,-3.10,-3.10
93.51,-1.08,2.02,-1.08,2.02,-2.03,-1.98,-2.10,-3.11,-3.11,-3.10
94.44,-1.08,2.02,-1.08,2.03,-2.03,-2.00,-2.12,-3.12,-3.11,-3.11
95.39,-1.07,2.04,-1.07,2.05,-2.05,-2.03,-2.13,-3.12,-3.12,-3.11
96.34,-1.06,2.08,-1.07,2.07,-2.06,-2.05,-2.15,-3.12,-3.12,-3.14
97.30,-1.06,2.08,-1.06,2.08,-2.07,-2.07,-2.17,-3.14,-3.14,-3.15
98.28,-1.06,2.09,-1.06,2.10,-2.09,-2.09,-2.19,-3.15,-3.15,-3.15
99.26,-1.06,2.11,-1.06,2.11,-2.11,-2.12,-2.21,-3.17,-3.17,-3.17
100.25,-1.06,2.12,-1.06,2.12,-2.13,-2.14,-2.23,-3.19,-3.19,-3.18
101.25,-1.06,2.14,-1.06,2.14,-2.15,-2.17,-2.25,-3.21,-3.21,-3.20
102.27,-1.06,2.15,-1.06,2.16,-2.17,-2.19,-2.28,-3.23,-3.23,-3.22
103.29,-1.05,2.19,-1.06,2.18,-2.19,-2.22,-2.30,-3.24,-3.24,-3.25
104.32,-1.05,2.20,-1.05,2.21,-2.21,-2.24,-2.33,-3.26,-3.26,-3.25
105.37,-1.04,2.24,-1.04,2.24,-2.23,-2.26,-2.35,-3.28,-3.28,-3.28
106.42,-1.04,2.26,-1.05,2.26,-2.25,-2.29,-2.38,-3.30,-3.30,-3.30
107.48,-1.05,2.28,-1.05,2.28,-2.27,-2.31,-2.40,-3.32,-3.32,-3.33
108.56,-1.07,2.29,-1.07,2.29,-2.28,-2.34,-2.43,-3.36,-3.35,-3.37
109.64,-1.09,2.30,-1.09,2.30,-2.29,-2.36,-2.46,-3.39,-3.39,-3.39
110.74,-1.12,2.31,-1.13,2.30,-2.30,-2.39,-2.48,-3.42,-3.43,-3.43
111.85,-1.16,2.30,-1.16,2.31,-2.31,-2.41,-2.51,-3.47,-3.47,-3.46
112.97,-1.20,2.31,-1.20,2.30,-2.31,-2.44,-2.54,-3.51,-3.51,-3.51
114.10,-1.23,2.31,-1.24,2.31,-2.32,-2.46,-2.56,-3.55,-3.55,-3.55
115.24,-1.27,2.31,-1.27,2.32,-2.32,-2.48,-2.58,-3.59,-3.59,-3.58
116.39,-1.29,2.34,-1.30,2.33,-2.33,-2.50,-2.61,-3.62,-3.62,-3.63
117.55,-1.32,2.34,-1.32,2.35,-2.34,-2.53,-2.63,-3.66,-3.66,-3.67
118.73,-1.35,2.36,-1.35,2.36,-2.35,-2.55,-2.65,-3.70,-3.71,-3.71
119.92,-1.38,2.37,-1.38,2.37,-2.37,-2.57,-2.67,-3.75,-3.75,-3.75
121.12,-1.40,2.38,-1.40,2.38,-2.39,-2.59,-2.69,-3.79,-3.79,-3.79
122.33,-1.41,2.41,-1.41,2.41,-2.42,-2.61,-2.70,-3.83,-3.83,-3.82
123.55,-1.41,2.43,-1.41,2.44,-2.45,-2.63,-2.72,-3.86,-3.86,-3.85
124.79,-1.40,2.48,-1.40,2.48,-2.48,-2.65,-2.73,-3.88,-3.88,-3.88
126.03,-1.39,2.52,-1.40,2.52,-2.52,-2.67,-2.74,-3.91,-3.91,-3.91
127.29,-1.39,2.56,-1.39,2.56,-2.55,-2.69,-2.75,-3.94,-3.94,-3.95
128.57,-1.39,2.60,-1.39,2.59,-2.59,-2.70,-2.76,-3.98,-3.98,-3.99
129.85,-1.39,2.62,-1.39,2.63,-2.62,-2.72,-2.77,-4.01,-4.01,-4.01
131.15,-1.39,2.65,-1.39,2.65,-2.65,-2.74,-2.77,-4.04,-4.04,-4.05
132.46,-1.39,2.68,-1.39,2.68,-2.68,-2.75,-2.78,-4.07,-4.07,-4.07
133.79,-1.39,2.70,-1.39,2.70,-2.70,-2.77,-2.78,-4.10,-4.10,-4.09
135.12,-1.39,2.73,-1.39,2.72,-2.73,-2.78,-2.78,-4.12,-4.12,-4.12
136.48,-1.39,2.75,-1.39,2.75,-2.75,-2.79,-2.78,-4.14,-4.14,-4.14
137.84,-1.39,2.77,-1.39,2.78,-2.78,-2.81,-2.78,-4.17,-4.17,-4.16
139.22,-1.39,2.81,-1.39,2.80,-2.80,-2.82,-2.78,-4.19,-4.19,-4.20
140.61,-1.39,2.83,-1.39,2.82,-2.83,-2.84,-2.78,-4.22,-4.22,-4.22
142.02,-1.38,2.84,-1.39,2.85,-2.85,-2.85,-2.78,-4.24,-4.24,-4.23
143.44,-1.38,2.87,-1.38,2.88,-2.88,-2.86,-2.78,-4.26,-4.26,-4.25
144.87,-1.37,2.91,-1.37,2.91,-2.91,-2.88,-2.77,-4.28,-4.28,-4.28
146.32,-1.37,2.94,-1.37,2.93,-2.93,-2.89,-2.77,-4.30,-4.30,-4.31
147.78,-1.37,2.95,-1.37,2.95,-2.95,-2.91,-2.77,-4.33,-4.33,-4.32
149.26,-1.38,2.97,-1.38,2.97,-2.97,-2.93,-2.77,-4.35,-4.35,-4.35
150.75,-1.39,2.99,-1.39,2.99,-2.99,-2.94,-2.78,-4.38,-4.38,-4.38
152.26,-1.40,3.02,-1.41,3.01,-3.00,-2.96,-2.78,-4.40,-4.40,-4.42
153.78,-1.43,3.01,-1.43,3.01,-3.00,-2.98,-2.78,-4.44,-4.44,-4.44
155.32,-1.46,3.01,-1.46,3.01,-3.01,-3.01,-2.79,-4.47,-4.47,-4.47
156.88,-1.50,3.00,-1.50,3.00,-3.01,-3.03,-2.79,-4.51,-4.51,-4.50
158.44,-1.52,3.01,-1.53,3.00,-3.01,-3.05,-2.80,-4.53,-4.54,-4.53
160.03,-1.57,3.00,-1.56,3.00,-3.01,-3.08,-2.81,-4.58,-4.57,-4.57
161.63,-1.59,3.01,-1.60,3.01,-3.00,-3.10,-2.82,-4.60,-4.60,-4.60
163.24,-1.62,3.02,-1.63,3.01,-3.00,-3.13,-2.84,-4.63,-4.63,-4.64
164.88,-1.66,3.00,-1.66,3.01,-3.01,-3.16,-2.85,-4.67,-4.66,-4.66
166.53,-1.68,3.02,-1.68,3.02,-3.02,-3.19,-2.87,-4.70,-4.70,-4.70
168.19,-1.70,3.03,-1.71,3.02,-3.03,-3.22,-2.89,-4.74,-4.74,-4.73
169.87,-1.72,3.05,-1.72,3.05,-3.06,-3.25,-2.91,-4.78,-4.78,-4.77
171.57,-1.73,3.07,-1.73,3.08,-3.09,-3.28,-2.94,-4.82,-4.82,-4.81
173.29,-1.73,3.12,-1.73,3.12,-3.12,-3.31,-2.96,-4.86,-4.86,-4.85
175.02,-1.72,3.17,-1.73,3.17,-3.17,-3.34,-2.99,-4.89,-4.89,-4.89
176.77,-1.72,3.21,-1.72,3.22,-3.21,-3.37,-3.02,-4.94,-4.93,-4.94
178.54,-1.71,3.28,-1.71,3.27,-3.27,-3.40,-3.06,-4.98,-4.98,-4.99
180.32,-1.71,3.32,-1.71,3.32,-3.32,-3.43,-3.09,-5.03,-5.03,-5.04
182.13,-1.71,3.37,-1.71,3.37,-3.37,-3.46,-3.13,-5.08,-5.08,-5.08
183.95,-1.71,3.42,-1.71,3.42,-3.42,-3.49,-3.17,-5.13,-5.13,-5.14
185.79,-1.71,3.47,-1.71,3.47,-3.47,-3.53,-3.21,-5.18,-5.18,-5.18
187.65,-1.71,3.52,-1.71,3.52,-3.52,-3.56,-3.26,-5.23,-5.23,-5.23
189.52,-1.71,3.56,-1.71,3.56,-3.56,-3.59,-3.30,-5.27,-5.27,-5.28
191.42,-1.71,3.61,-1.71,3.61,-3.61,-3.62,-3.35,-5.32,-5.32,-5.32
193.33,-1.71,3.65,-1.71,3.65,-3.65,-3.65,-3.40,-5.37,-5.37,-5.36
195.27,-1.71,3.69,-1.71,3.69,-3.70,-3.68,-3.46,-5.41,-5.41,-5.40
197.22,-1.71,3.74,-1.71,3.74,-3.74,-3.70,-3.51,-5.45,-5.45,-5.45
199.19,-1.71,3.79,-1.71,3.79,-3.78,-3.73,-3.56,-5.50,-5.50,-5.51
201.18,-1.71,3.83,-1.71,3.83,-3.83,-3.76,-3.62,-5.54,-5.54,-5.55
203.19,-1.71,3.86,-1.71,3.87,-3.87,-3.79,-3.68,-5.58,-5.58,-5.58
205.23,-1.71,3.90,-1.71,3.90,-3.91,-3.82,-3.74,-5.62,-5.62,-5.62
207.28,-1.71,3.93,-1.71,3.94,-3.95,-3.85,-3.80,-5.66,-5.66,-5.65
209.35,-1.71,3.98,-1.71,3.99,-3.99,-3.87,-3.86,-5.70,-5.70,-5.70
211.44,-1.71,4.03,-1.71,4.02,-4.02,-3.90,-3.92,-5.74,-5.74,-5.75
213.56,-1.71,4.06,-1.71,4.06,-4.06,-3.93,-3.98,-5.77,-5.77,-5.77
215.69,-1.71,4.09,-1.71,4.10,-4.10,-3.96,-4.04,-5.81,-5.81,-5.80
217.85,-1.71,4.13,-1.71,4.13,-4.13,-3.98,-4.09,-5.84,-5.84,-5.84
220.03,-1.71,4.17,-1.71,4.16,-4.16,-4.01,-4.15,-5.87,-5.87,-5.88
222.23,-1.71,4.19,-1.71,4.19,-4.19,-4.04,-4.21,-5.90,-5.90,-5.91
224.45,-1.71,4.21,-1.71,4.22,-4.21,-4.06,-4.26,-5.93,-5.93,-5.92
226.70,-1.71,4.23,-1.71,4.23,-4.23,-4.09,-4.31,-5.95,-5.95,-5.94
228.96,-1.71,4.26,-1.71,4.25,-4.25,-4.11,-4.36,-5.96,-5.96,-5.97
231.25,-1.71,4.26,-1.71,4.27,-4.27,-4.14,-4.40,-5.98,-5.98,-5.98
233.57,-1.71,4.28,-1.71,4.28,-4.28,-4.16,-4.44,-5.99,-5.99,-5.99
235.90,-1.71,4.29,-1.71,4.29,-4.29,-4.19,-4.48,-6.00,-6.00,-6.00
238.26,-1.71,4.30,-1.71,4.30,-4.30,-4.21,-4.52,-6.01,-6.01,-6.01
240.64,-1.71,4.30,-1.71,4.30,-4.30,-4.23,-4.54,-6.01,-6.01,-6.01
243.05,-1.71,4.29,-1.71,4.30,-4.30,-4.25,-4.57,-6.01,-6.01,-6.01
245.48,-1.71,4.30,-1.71,4.30,-4.29,-4.27,-4.59,-6.00,-6.00,-6.01
247.93,-1.71,4.29,-1.72,4.29,-4.28,-4.29,-4.60,-5.99,-6.00,-6.01
250.41,-1.72,4.29,-1.72,4.28,-4.27,-4.31,-4.61,-5.99,-5.99,-6.01
252.92,-1.73,4.25,-1.73,4.26,-4.26,-4.32,-4.62,-5.99,-5.99,-5.99
255.45,-1.73,4.24,-1.73,4.24,-4.25,-4.33,-4.62,-5.98,-5.99,-5.97
258.00,-1.73,4.23,-1.73,4.23,-4.25,-4.35,-4.61,-5.98,-5.98,-5.97
260.58,-1.72,4.24,-1.72,4.24,-4.24,-4.36,-4.60,-5.97,-5.97,-5.96
263.19,-1.71,4.23,-1.70,4.24,-4.25,-4.36,-4.59,-5.96,-5.95,-5.94
265.82,-1.67,4.27,-1.68,4.25,-4.25,-4.37,-4.57,-5.92,-5.93,-5.94
268.48,-1.65,4.26,-1.65,4.26,-4.26,-4.37,-4.55,-5.92,-5.92,-5.91
271.16,-1.62,4.27,-1.62,4.28,-4.28,-4.38,-4.52,-5.90,-5.90,-5.90
273.87,-1.58,4.31,-1.59,4.30,-4.30,-4.38,-4.49,-5.88,-5.89,-5.89
276.61,-1.55,4.32,-1.55,4.32,-4.32,-4.37,-4.46,-5.87,-5.87,-5.87
279.38,-1.52,4.34,-1.52,4.34,-4.34,-4.37,-4.42,-5.86,-5.86,-5.87
282.17,-1.49,4.36,-1.49,4.36,-4.36,-4.37,-4.38,-5.85,-5.85,-5.85
284.99,-1.46,4.37,-1.46,4.38,-4.38,-4.36,-4.35,-5.84,-5.84,-5.83
287.84,-1.42,4.40,-1.43,4.40,-4.39,-4.35,-4.30,-5.82,-5.82,-5.83
290.72,-1.40,4.41,-1.40,4.41,-4.41,-4.35,-4.26,-5.81,-5.81,-5.81
293.63,-1.38,4.42,-1.38,4.42,-4.41,-4.34,-4.22,-5.79,-5.79,-5.80
296.57,-1.37,4.41,-1.37,4.42,-4.41,-4.33,-4.18,-5.78,-5.78,-5.78
299.53,-1.36,4.42,-1.37,4.41,-4.40,-4.32,-4.14,-5.76,-5.77,-5.78
302.53,-1.37,4.40,-1.37,4.40,-4.39,-4.31,-4.10,-5.76,-5.76,-5.77
305.55,-1.38,4.37,-1.38,4.38,-4.38,-4.30,-4.06,-5.76,-5.76,-5.75
308.61,-1.38,4.36,-1.39,4.36,-4.36,-4.28,-4.02,-5.74,-5.75,-5.74
311.69,-1.39,4.33,-1.39,4.34,-4.34,-4.27,-3.98,-5.74,-5.73,-5.73
314.81,-1.39,4.32,-1.39,4.32,-4.33,-4.26,-3.94,-5.72,-5.72,-5.71
317.96,-1.39,4.31,-1.39,4.31,-4.31,-4.25,-3.91,-5.70,-5.71,-5.70
321.14,-1.39,4.30,-1.39,4.30,-4.30,-4.24,-3.87,-5.69,-5.69,-5.69
324.35,-1.39,4.29,-1.39,4.29,-4.29,-4.23,-3.84,-5.68,-5.68,-5.69
327.59,-1.39,4.28,-1.39,4.28,-4.28,-4.22,-3.81,-5.67,-5.67,-5.68
330.87,-1.39,4.28,-1.39,4.28,-4.28,-4.21,-3.79,-5.67,-5.67,-5.67
334.18,-1.39,4.27,-1.39,4.27,-4.27,-4.20,-3.76,-5.67,-5.67,-5.66
337.52,-1.39,4.27,-1.39,4.27,-4.27,-4.19,-3.74,-5.67,-5.66,-5.66
340.90,-1.38,4.26,-1.38,4.27,-4.27,-4.18,-3.72,-5.66,-5.66,-5.64
344.30,-1.37,4.27,-1.37,4.27,-4.27,-4.17,-3.70,-5.64,-5.64,-5.65
347.75,-1.36,4.27,-1.36,4.27,-4.27,-4.16,-3.69,-5.63,-5.64,-5.64
351.23,-1.36,4.28,-1.36,4.27,-4.27,-4.15,-3.68,-5.63,-5.63,-5.64
354.74,-1.37,4.27,-1.37,4.27,-4.26,-4.14,-3.67,-5.63,-5.63,-5.64
358.28,-1.38,4.25,-1.38,4.25,-4.25,-4.13,-3.66,-5.63,-5.63,-5.63
361.87,-1.39,4.24,-1.40,4.24,-4.23,-4.12,-3.66,-5.63,-5.63,-5.63
365.49,-1.42,4.21,-1.42,4.22,-4.21,-4.11,-3.66,-5.63,-5.63,-5.63
369.14,-1.45,4.19,-1.45,4.19,-4.19,-4.10,-3.66,-5.64,-5.64,-5.64
372.83,-1.48,4.16,-1.49,4.16,-4.16,-4.09,-3.67,-5.64,-5.64,-5.65
376.56,-1.52,4.13,-1.52,4.13,-4.13,-4.08,-3.68,-5.65,-5.64,-5.65
380.33,-1.55,4.09,-1.55,4.09,-4.10,-4.07,-3.69,-5.65,-5.65,-5.64
384.13,-1.58,4.07,-1.59,4.06,-4.07,-4.06,-3.70,-5.65,-5.66,-5.65
387.97,-1.62,4.03,-1.62,4.03,-4.04,-4.05,-3.72,-5.66,-5.66,-5.65
391.85,-1.64,4.02,-1.64,4.01,-4.02,-4.04,-3.73,-5.66,-5.66,-5.66
395.77,-1.66,3.99,-1.67,3.99,-4.00,-4.03,-3.75,-5.66,-5.66,-5.65
399.73,-1.68,3.98,-1.68,3.98,-3.98,-4.02,-3.78,-5.66,-5.66,-5.66
403.72,-1.70,3.96,-1.70,3.96,-3.96,-4.01,-3.80,-5.67,-5.66,-5.66
407.76,-1.71,3.95,-1.71,3.95,-3.95,-3.99,-3.83,-5.66,-5.66,-5.66
411.84,-1.72,3.93,-1.73,3.93,-3.94,-3.98,-3.85,-5.66,-5.66,-5.66
415.96,-1.74,3.91,-1.74,3.92,-3.92,-3.96,-3.88,-5.66,-5.66,-5.66
420.12,-1.75,3.90,-1.75,3.90,-3.90,-3.94,-3.91,-5.66,-5.66,-5.66
424.32,-1.77,3.89,-1.77,3.89,-3.88,-3.92,-3.94,-5.66,-5.66,-5.66
428.56,-1.79,3.88,-1.80,3.87,-3.86,-3.91,-3.98,-5.65,-5.66,-5.67
