frequency,raw,error,smoothed,error_smoothed,equalization,parametric_eq,fixed_band_eq,equalized_raw,equalized_smoothed,target
20.00,-18.59,-20.76,-18.59,-20.75,6.00,5.11,2.88,-12.59,-12.59,2.17
20.20,-18.48,-20.64,-18.48,-20.64,6.00,5.15,2.96,-12.48,-12.48,2.16
20.40,-18.37,-20.53,-18.37,-20.52,6.00,5.19,3.05,-12.37,-12.37,2.16
20.61,-18.25,-20.40,-18.25,-20.40,6.00,5.24,3.13,-12.25,-12.25,2.15
20.81,-18.13,-20.28,-18.13,-20.28,6.00,5.28,3.22,-12.13,-12.13,2.15
21.02,-18.01,-20.16,-18.01,-20.15,6.00,5.32,3.32,-12.01,-12.01,2.15
21.23,-17.88,-20.01,-17.88,-20.01,6.00,5.37,3.41,-11.88,-11.88,2.13
21.44,-17.76,-19.86,-17.76,-19.87,6.00,5.41,3.51,-11.76,-11.76,2.11
21.66,-17.64,-19.73,-17.64,-19.72,6.00,5.45,3.61,-11.64,-11.64,2.09
21.87,-17.52,-19.57,-17.52,-19.58,6.00,5.49,3.72,-11.52,-11.52,2.05
22.09,-17.39,-19.42,-17.39,-19.43,6.00,5.53,3.82,-11.39,-11.39,2.03
22.31,-17.27,-19.28,-17.27,-19.28,6.00,5.57,3.93,-11.27,-11.27,2.01
22.54,-17.14,-19.13,-17.14,-19.12,6.00,5.61,4.05,-11.14,-11.14,1.98
22.76,-17.01,-18.96,-17.01,-18.96,6.00,5.65,4.16,-11.01,-11.01,1.95
22.99,-16.87,-18.79,-16.87,-18.80,6.00,5.69,4.28,-10.87,-10.87,1.92
23.22,-16.74,-18.63,-16.74,-18.63,6.00,5.73,4.40,-10.74,-10.74,1.89
23.45,-16.59,-18.46,-16.59,-18.47,6.00,5.77,4.52,-10.59,-10.59,1.87
23.69,-16.45,-18.31,-16.45,-18.30,6.00,5.80,4.65,-10.45,-10.45,1.85
23.92,-16.30,-18.13,-16.30,-18.13,6.00,5.84,4.78,-10.30,-10.30,1.83
24.16,-16.15,-17.97,-16.16,-17.98,6.00,5.87,4.91,-10.15,-10.16,1.82
24.40,-16.02,-17.82,-16.01,-17.81,6.00,5.91,5.05,-10.02,-10.01,1.80
24.65,-15.87,-17.65,-15.87,-17.65,6.00,5.94,5.18,-9.87,-9.87,1.78
24.89,-15.72,-17.48,-15.72,-17.48,6.00,5.97,5.32,-9.72,-9.72,1.76
25.14,-15.57,-17.31,-15.57,-17.31,6.00,6.00,5.46,-9.57,-9.57,1.74
25.39,-15.42,-17.14,-15.42,-17.14,6.00,6.03,5.60,-9.42,-9.42,1.72
25.65,-15.28,-16.99,-15.28,-16.98,6.00,6.06,5.74,-9.28,-9.28,1.71
25.91,-15.13,-16.81,-15.13,-16.81,6.00,6.09,5.88,-9.13,-9.13,1.68
26.16,-14.98,-16.64,-14.98,-16.64,6.00,6.12,6.03,-8.98,-8.98,1.67
26.43,-14.82,-16.47,-14.82,-16.47,6.00,6.14,6.17,-8.82,-8.82,1.65
26.69,-14.67,-16.31,-14.67,-16.31,6.00,6.17,6.31,-8.67,-8.67,1.64
26.96,-14.52,-16.14,-14.52,-16.14,6.00,6.19,6.45,-8.52,-8.52,1.62
27.23,-14.36,-15.97,-14.36,-15.97,6.00,6.21,6.58,-8.36,-8.36,1.61
27.50,-14.21,-15.80,-14.21,-15.79,6.00,6.23,6.72,-8.21,-8.21,1.58
27.77,-14.05,-15.61,-14.05,-15.62,6.00,6.25,6.85,-8.05,-8.05,1.56
28.05,-13.89,-15.44,-13.89,-15.44,6.00,6.27,6.97,-7.89,-7.89,1.55
28.33,-13.74,-15.26,-13.73,-15.26,6.00,6.28,7.09,-7.74,-7.73,1.52
28.62,-13.57,-15.08,-13.58,-15.09,6.00,6.30,7.20,-7.57,-7.58,1.51
28.90,-13.41,-14.92,-13.41,-14.92,6.00,6.31,7.30,-7.41,-7.41,1.51
29.19,-13.26,-14.75,-13.25,-14.74,6.00,6.32,7.39,-7.26,-7.25,1.49
29.48,-13.08,-14.57,-13.09,-14.57,6.00,6.33,7.48,-7.08,-7.09,1.49
29.78,-12.92,-14.39,-12.92,-14.39,6.00,6.33,7.55,-6.92,-6.92,1.47
30.08,-12.75,-14.21,-12.75,-14.21,6.00,6.34,7.61,-6.75,-6.75,1.46
30.38,-12.59,-14.03,-12.59,-14.02,6.00,6.34,7.66,-6.59,-6.59,1.44
30.68,-12.42,-13.83,-12.42,-13.84,6.00,6.34,7.70,-6.42,-6.42,1.41
30.99,-12.25,-13.65,-12.26,-13.66,6.00,6.34,7.72,-6.25,-6.26,1.39
31.30,-12.10,-13.48,-12.10,-13.48,6.00,6.34,7.73,-6.10,-6.10,1.38
31.61,-11.94,-13.31,-11.94,-13.30,6.00,6.34,7.72,-5.94,-5.94,1.37
31.93,-11.78,-13.12,-11.78,-13.13,6.00,6.33,7.71,-5.78,-5.78,1.34
32.24,-11.63,-12.95,-11.62,-12.95,6.00,6.32,7.67,-5.63,-5.62,1.32
32.57,-11.46,-12.76,-11.47,-12.76,6.00,6.31,7.63,-5.46,-5.47,1.30
32.89,-11.31,-12.59,-11.30,-12.58,6.00,6.29,7.57,-5.31,-5.30,1.29
33.22,-11.14,-12.39,-11.14,-12.40,6.00,6.28,7.51,-5.14,-5.14,1.25
33.55,-10.98,-12.22,-10.98,-12.22,6.00,6.26,7.43,-4.98,-4.98,1.24
33.89,-10.82,-12.03,-10.82,-12.03,6.00,6.24,7.34,-4.82,-4.82,1.21
34.23,-10.65,-11.85,-10.65,-11.85,6.00,6.22,7.24,-4.65,-4.65,1.20
34.57,-10.49,-11.66,-10.49,-11.66,6.00,6.20,7.14,-4.49,-4.49,1.17
34.92,-10.33,-11.48,-10.33,-11.48,6.00,6.17,7.03,-4.33,-4.33,1.15
35.27,-10.17,-11.31,-10.17,-11.30,6.00,6.15,6.91,-4.17,-4.17,1.13
35.62,-10.00,-11.11,-10.01,-11.11,6.00,6.12,6.79,-4.00,-4.01,1.11
35.97,-9.85,-10.93,-9.84,-10.93,6.00,6.09,6.66,-3.85,-3.84,1.08
36.33,-9.68,-10.75,-9.68,-10.75,6.00,6.06,6.53,-3.68,-3.68,1.07
36.70,-9.53,-10.58,-9.52,-10.56,6.00,6.03,6.40,-3.53,-3.52,1.04
37.06,-9.36,-10.37,-9.36,-10.38,6.00,6.00,6.26,-3.36,-3.36,1.01
37.43,-9.20,-10.20,-9.20,-10.20,6.00,5.97,6.13,-3.20,-3.20,1.00
37.81,-9.04,-10.02,-9.04,-10.02,6.00,5.94,5.99,-3.04,-3.04,0.98
38.19,-8.88,-9.84,-8.88,-9.84,6.00,5.91,5.86,-2.88,-2.88,0.95
38.57,-8.72,-9.66,-8.72,-9.66,6.00,5.88,5.72,-2.72,-2.72,0.94
38.95,-8.56,-9.48,-8.56,-9.47,6.00,5.85,5.59,-2.56,-2.56,0.92
39.34,-8.39,-9.28,-8.39,-9.29,6.00,5.83,5.46,-2.39,-2.39,0.90
39.74,-8.23,-9.09,-8.23,-9.10,6.00,5.80,5.33,-2.23,-2.23,0.86
40.14,-8.07,-8.92,-8.07,-8.92,6.00,5.78,5.20,-2.07,-2.07,0.85
40.54,-7.91,-8.74,-7.91,-8.74,6.00,5.76,5.07,-1.91,-1.91,0.83
40.94,-7.74,-8.55,-7.74,-8.55,6.00,5.74,4.95,-1.74,-1.74,0.81
41.35,-7.58,-8.37,-7.58,-8.37,6.00,5.72,4.83,-1.58,-1.58,0.79
41.76,-7.42,-8.19,-7.42,-8.19,6.00,5.71,4.71,-1.42,-1.42,0.78
42.18,-7.26,-8.02,-7.26,-8.02,6.00,5.69,4.59,-1.26,-1.26,0.76
42.60,-7.10,-7.84,-7.10,-7.84,6.00,5.68,4.48,-1.10,-1.10,0.74
43.03,-6.94,-7.67,-6.94,-7.66,6.00,5.67,4.37,-0.94,-0.94,0.73
43.46,-6.77,-7.48,-6.77,-7.47,6.00,5.66,4.26,-0.77,-0.77,0.71
43.90,-6.60,-7.28,-6.60,-7.28,6.00,5.65,4.16,-0.60,-0.60,0.67
44.33,-6.44,-7.09,-6.44,-7.09,6.01,5.65,4.06,-0.43,-0.43,0.65
44.78,-6.28,-6.92,-6.28,-6.91,6.02,5.64,3.96,-0.26,-0.26,0.63
45.23,-6.12,-6.73,-6.12,-6.73,6.03,5.63,3.87,-0.09,-0.09,0.61
45.68,-5.96,-6.56,-5.96,-6.55,6.03,5.63,3.77,0.07,0.07,0.59
46.13,-5.80,-6.37,-5.80,-6.38,6.01,5.62,3.69,0.21,0.21,0.57
46.60,-5.64,-6.20,-5.64,-6.20,5.97,5.60,3.60,0.33,0.33,0.56
47.06,-5.49,-6.04,-5.49,-6.03,5.90,5.58,3.52,0.41,0.41,0.55
47.53,-5.33,-5.86,-5.34,-5.87,5.81,5.56,3.44,0.48,0.47,0.53
48.01,-5.19,-5.71,-5.19,-5.70,5.69,5.52,3.36,0.50,0.50,0.51
48.49,-5.04,-5.53,-5.04,-5.53,5.55,5.48,3.28,0.51,0.51,0.49
48.97,-4.89,-5.35,-4.89,-5.36,5.39,5.42,3.21,0.50,0.49,0.46
49.46,-4.75,-5.18,-4.75,-5.18,5.21,5.35,3.14,0.46,0.46,0.43
49.96,-4.61,-5.02,-4.60,-5.02,5.04,5.26,3.07,0.42,0.43,0.41
50.46,-4.46,-4.85,-4.46,-4.85,4.86,5.16,3.00,0.40,0.40,0.39
50.96,-4.32,-4.69,-4.32,-4.69,4.70,5.04,2.94,0.38,0.37,0.37
51.47,-4.19,-4.53,-4.19,-4.53,4.54,4.91,2.88,0.35,0.35,0.34
51.99,-4.05,-4.38,-4.05,-4.38,4.38,4.77,2.82,0.33,0.33,0.32
52.51,-3.92,-4.24,-3.92,-4.23,4.22,4.63,2.76,0.30,0.31,0.32
53.03,-3.78,-4.08,-3.78,-4.07,4.07,4.48,2.70,0.29,0.29,0.30
53.56,-3.65,-3.92,-3.65,-3.92,3.92,4.32,2.65,0.27,0.27,0.27
54.10,-3.51,-3.76,-3.52,-3.76,3.77,4.16,2.59,0.25,0.25,0.25
54.64,-3.39,-3.62,-3.39,-3.61,3.62,4.00,2.54,0.22,0.23,0.23
55.18,-3.26,-3.47,-3.26,-3.47,3.47,3.84,2.48,0.21,0.21,0.21
55.74,-3.13,-3.32,-3.13,-3.32,3.32,3.68,2.43,0.19,0.19,0.19
56.29,-3.01,-3.17,-3.01,-3.17,3.18,3.52,2.38,0.17,0.17,0.17
56.86,-2.89,-3.03,-2.89,-3.03,3.04,3.36,2.33,0.15,0.15,0.14
57.42,-2.77,-2.89,-2.77,-2.90,2.90,3.21,2.28,0.13,0.13,0.12
58.00,-2.65,-2.76,-2.65,-2.76,2.76,3.05,2.23,0.11,0.11,0.11
58.58,-2.54,-2.64,-2.54,-2.63,2.63,2.90,2.18,0.09,0.10,0.10
59.16,-2.42,-2.50,-2.42,-2.50,2.50,2.75,2.13,0.08,0.08,0.08
59.76,-2.31,-2.37,-2.31,-2.37,2.37,2.61,2.08,0.06,0.06,0.06
60.35,-2.20,-2.24,-2.20,-2.24,2.24,2.46,2.02,0.04,0.03,0.04
60.96,-2.10,-2.12,-2.09,-2.11,2.10,2.31,1.97,0.00,0.01,0.02
61.57,-1.98,-1.97,-1.98,-1.97,1.97,2.17,1.92,-0.01,-0.01,-0.01
62.18,-1.87,-1.83,-1.87,-1.84,1.84,2.03,1.87,-0.03,-0.03,-0.04
62.80,-1.76,-1.70,-1.76,-1.70,1.71,1.89,1.81,-0.05,-0.05,-0.06
63.43,-1.65,-1.57,-1.65,-1.57,1.57,1.75,1.76,-0.08,-0.08,-0.08
64.07,-1.54,-1.44,-1.54,-1.44,1.44,1.61,1.70,-0.10,-0.10,-0.10
64.71,-1.42,-1.30,-1.42,-1.30,1.30,1.47,1.65,-0.12,-0.12,-0.12
65.35,-1.30,-1.17,-1.30,-1.17,1.16,1.34,1.59,-0.14,-0.14,-0.13
66.01,-1.18,-1.03,-1.18,-1.02,1.02,1.20,1.53,-0.16,-0.15,-0.15
66.67,-1.05,-0.88,-1.05,-0.88,0.88,1.07,1.47,-0.17,-0.17,-0.17
67.33,-0.93,-0.74,-0.93,-0.74,0.74,0.94,1.41,-0.19,-0.19,-0.19
68.01,-0.81,-0.60,-0.81,-0.59,0.60,0.81,1.35,-0.21,-0.21,-0.21
68.69,-0.68,-0.45,-0.68,-0.45,0.45,0.68,1.29,-0.23,-0.23,-0.23
69.37,-0.56,-0.31,-0.56,-0.31,0.31,0.55,1.23,-0.25,-0.25,-0.25
70.07,-0.44,-0.16,-0.44,-0.17,0.17,0.43,1.17,-0.27,-0.27,-0.28
70.77,-0.32,-0.03,-0.32,-0.03,0.03,0.30,1.10,-0.29,-0.29,-0.29
71.48,-0.20,0.11,-0.20,0.11,-0.11,0.18,1.04,-0.31,-0.32,-0.31
72.19,-0.09,0.24,-0.09,0.25,-0.25,0.06,0.97,-0.34,-0.34,-0.33
72.91,0.02,0.39,0.02,0.38,-0.38,-0.06,0.91,-0.36,-0.36,-0.37
73.64,0.13,0.52,0.13,0.52,-0.51,-0.18,0.84,-0.38,-0.39,-0.39
74.38,0.22,0.63,0.23,0.64,-0.64,-0.29,0.78,-0.42,-0.41,-0.41
75.12,0.33,0.77,0.33,0.76,-0.76,-0.41,0.71,-0.43,-0.43,-0.43
75.87,0.42,0.88,0.42,0.87,-0.88,-0.52,0.64,-0.46,-0.46,-0.46
76.63,0.50,0.98,0.50,0.99,-0.99,-0.63,0.58,-0.49,-0.49,-0.48
77.40,0.58,1.09,0.58,1.09,-1.09,-0.73,0.51,-0.51,-0.51,-0.51
78.17,0.66,1.20,0.66,1.20,-1.20,-0.83,0.44,-0.54,-0.54,-0.54
78.95,0.74,1.30,0.73,1.30,-1.30,-0.93,0.37,-0.56,-0.56,-0.56
79.74,0.80,1.38,0.80,1.39,-1.39,-1.03,0.30,-0.59,-0.59,-0.58
80.54,0.86,1.47,0.86,1.48,-1.48,-1.13,0.23,-0.62,-0.62,-0.61
81.35,0.92,1.56,0.92,1.56,-1.56,-1.22,0.16,-0.64,-0.65,-0.64
82.16,0.97,1.65,0.97,1.64,-1.64,-1.30,0.09,-0.67,-0.67,-0.68
82.98,1.01,1.71,1.01,1.72,-1.71,-1.39,0.02,-0.70,-0.70,-0.70
83.81,1.05,1.79,1.05,1.78,-1.78,-1.47,-0.05,-0.73,-0.73,-0.74
84.65,1.07,1.84,1.07,1.84,-1.84,-1.55,-0.12,-0.77,-0.77,-0.77
85.50,1.10,1.90,1.10,1.90,-1.89,-1.62,-0.19,-0.79,-0.80,-0.80
86.35,1.11,1.94,1.11,1.94,-1.94,-1.69,-0.26,-0.83,-0.83,-0.83
87.22,1.12,1.98,1.12,1.99,-1.99,-1.76,-0.34,-0.87,-0.86,-0.86
88.09,1.13,2.03,1.13,2.02,-2.02,-1.83,-0.41,-0.89,-0.90,-0.90
88.97,1.13,2.05,1.13,2.06,-2.06,-1.89,-0.48,-0.93,-0.92,-0.92
89.86,1.13,2.08,1.13,2.08,-2.08,-1.94,-0.56,-0.95,-0.95,-0.95
90.76,1.12,2.12,1.12,2.11,-2.11,-2.00,-0.63,-0.99,-0.99,-1.00
91.66,1.10,2.12,1.10,2.13,-2.13,-2.05,-0.71,-1.03,-1.03,-1.02
92.58,1.08,2.15,1.08,2.14,-2.14,-2.09,-0.78,-1.06,-1.06,-1.07
93.51,1.06,2.15,1.06,2.15,-2.16,-2.13,-0.86,-1.10,-1.10,-1.09
94.44,1.04,2.16,1.04,2.16,-2.17,-2.17,-0.93,-1.13,-1.13,-1.12
95.39,1.01,2.17,1.01,2.17,-2.17,-2.21,-1.01,-1.16,-1.17,-1.16
96.34,0.97,2.18,0.97,2.18,-2.18,-2.24,-1.09,-1.21,-1.21,-1.21
97.30,0.93,2.18,0.93,2.18,-2.18,-2.27,-1.16,-1.25,-1.25,-1.25
98.28,0.90,2.19,0.90,2.18,-2.18,-2.29,-1.24,-1.28,-1.29,-1.29
99.26,0.85,2.18,0.85,2.18,-2.18,-2.31,-1.32,-1.33,-1.32,-1.33
100.25,0.81,2.18,0.81,2.17,-2.17,-2.33,-1.40,-1.36,-1.37,-1.37
101.25,0.75,2.15,0.75,2.16,-2.16,-2.35,-1.47,-1.41,-1.41,-1.40
102.27,0.70,2.14,0.70,2.15,-2.15,-2.36,-1.55,-1.45,-1.45,-1.44
103.29,0.64,2.14,0.64,2.14,-2.13,-2.37,-1.62,-1.49,-1.49,-1.50
104.32,0.58,2.11,0.58,2.12,-2.11,-2.38,-1.70,-1.53,-1.53,-1.53
105.37,0.52,2.10,0.51,2.09,-2.09,-2.38,-1.77,-1.57,-1.58,-1.58
106.42,0.44,2.06,0.45,2.07,-2.07,-2.38,-1.85,-1.63,-1.62,-1.62
107.48,0.38,2.04,0.38,2.04,-2.05,-2.38,-1.92,-1.67,-1.67,-1.66
108.56,0.31,2.03,0.31,2.02,-2.03,-2.38,-1.99,-1.72,-1.72,-1.72
109.64,0.24,2.00,0.24,2.00,-2.00,-2.38,-2.05,-1.77,-1.76,-1.76
110.74,0.18,1.99,0.18,1.98,-1.99,-2.37,-2.12,-1.81,-1.81,-1.81
111.85,0.11,1.96,0.11,1.97,-1.97,-2.36,-2.18,-1.86,-1.86,-1.85
112.97,0.05,1.97,0.05,1.96,-1.96,-2.35,-2.24,-1.91,-1.91,-1.92
114.10,-0.01,1.94,-0.01,1.95,-1.95,-2.34,-2.30,-1.96,-1.96,-1.95
115.24,-0.06,1.94,-0.06,1.94,-1.94,-2.32,-2.35,-2.00,-2.00,-2.00
116.39,-0.11,1.94,-0.11,1.94,-1.94,-2.31,-2.40,-2.05,-2.05,-2.05
117.55,-0.17,1.93,-0.16,1.93,-1.93,-2.29,-2.44,-2.10,-2.10,-2.10
118.73,-0.21,1.94,-0.21,1.93,-1.93,-2.27,-2.48,-2.14,-2.14,-2.15
119.92,-0.26,1.92,-0.26,1.93,-1.93,-2.25,-2.52,-2.19,-2.19,-2.18
121.12,-0.31,1.92,-0.31,1.93,-1.92,-2.23,-2.55,-2.23,-2.23,-2.23
122.33,-0.35,1.93,-0.35,1.92,-1.92,-2.21,-2.58,-2.27,-2.27,-2.28
123.55,-0.40,1.91,-0.40,1.91,-1.91,-2.19,-2.60,-2.31,-2.31,-2.31
124.79,-0.45,1.90,-0.45,1.90,-1.91,-2.16,-2.61,-2.36,-2.35,-2.35
126.03,-0.50,1.89,-0.50,1.89,-1.90,-2.14,-2.62,-2.40,-2.40,-2.39
127.29,-0.55,1.89,-0.55,1.89,-1.89,-2.11,-2.63,-2.44,-2.44,-2.44
128.57,-0.60,1.88,-0.60,1.88,-1.88,-2.09,-2.63,-2.48,-2.48,-2.48
129.85,-0.64,1.88,-0.65,1.88,-1.87,-2.06,-2.63,-2.51,-2.52,-2.52
131.15,-0.70,1.86,-0.70,1.86,-1.86,-2.04,-2.62,-2.56,-2.55,-2.56
132.46,-0.75,1.84,-0.75,1.84,-1.84,-2.01,-2.60,-2.59,-2.59,-2.59
133.79,-0.80,1.82,-0.80,1.82,-1.82,-1.98,-2.58,-2.62,-2.63,-2.62
135.12,-0.86,1.80,-0.86,1.80,-1.80,-1.95,-2.56,-2.66,-2.66,-2.66
136.48,-0.91,1.77,-0.91,1.78,-1.77,-1.93,-2.54,-2.68,-2.69,-2.68
137.84,-0.97,1.74,-0.97,1.75,-1.75,-1.90,-2.51,-2.72,-2.71,-2.71
139.22,-1.02,1.72,-1.02,1.72,-1.72,-1.87,-2.47,-2.74,-2.74,-2.74
140.61,-1.08,1.69,-1.08,1.69,-1.69,-1.84,-2.44,-2.77,-2.76,-2.77
142.02,-1.13,1.65,-1.13,1.66,-1.66,-1.82,-2.40,-2.79,-2.79,-2.78
143.44,-1.18,1.63,-1.18,1.63,-1.63,-1.79,-2.36,-2.81,-2.81,-2.81
144.87,-1.23,1.60,-1.23,1.60,-1.60,-1.76,-2.32,-2.83,-2.83,-2.83
146.32,-1.27,1.57,-1.27,1.57,-1.58,-1.73,-2.27,-2.85,-2.85,-2.84
147.78,-1.31,1.55,-1.31,1.55,-1.56,-1.70,-2.23,-2.87,-2.87,-2.86
149.26,-1.34,1.54,-1.34,1.54,-1.54,-1.68,-2.18,-2.88,-2.88,-2.88
150.75,-1.38,1.53,-1.38,1.53,-1.53,-1.65,-2.14,-2.91,-2.90,-2.91
152.26,-1.41,1.52,-1.41,1.52,-1.52,-1.62,-2.09,-2.93,-2.92,-2.93
153.78,-1.43,1.51,-1.43,1.51,-1.51,-1.60,-2.04,-2.94,-2.94,-2.94
155.32,-1.46,1.50,-1.46,1.50,-1.50,-1.57,-2.00,-2.96,-2.96,-2.96
156.88,-1.48,1.49,-1.48,1.49,-1.50,-1.55,-1.95,-2.98,-2.98,-2.97
158.44,-1.51,1.49,-1.51,1.49,-1.49,-1.52,-1.90,-3.00,-3.00,-3.00
160.03,-1.53,1.49,-1.53,1.49,-1.49,-1.50,-1.86,-3.02,-3.02,-3.02
161.63,-1.56,1.49,-1.56,1.48,-1.48,-1.47,-1.81,-3.04,-3.04,-3.05
163.24,-1.59,1.48,-1.59,1.48,-1.47,-1.45,-1.76,-3.06,-3.06,-3.07
164.88,-1.62,1.46,-1.62,1.46,-1.46,-1.43,-1.72,-3.08,-3.08,-3.08
166.53,-1.65,1.45,-1.65,1.45,-1.45,-1.41,-1.68,-3.10,-3.10,-3.10
168.19,-1.69,1.44,-1.69,1.44,-1.43,-1.39,-1.64,-3.12,-3.12,-3.13
169.87,-1.73,1.42,-1.73,1.42,-1.42,-1.37,-1.59,-3.15,-3.15,-3.15
171.57,-1.76,1.41,-1.77,1.40,-1.41,-1.35,-1.55,-3.17,-3.17,-3.17
173.29,-1.81,1.38,-1.80,1.39,-1.39,-1.33,-1.52,-3.20,-3.20,-3.19
175.02,-1.84,1.38,-1.84,1.38,-1.38,-1.31,-1.48,-3.22,-3.22,-3.22
176.77,-1.88,1.37,-1.88,1.37,-1.37,-1.30,-1.44,-3.25,-3.25,-3.25
178.54,-1.92,1.37,-1.92,1.36,-1.36,-1.28,-1.41,-3.28,-3.28,-3.29
180.32,-1.96,1.35,-1.96,1.35,-1.35,-1.27,-1.37,-3.31,-3.31,-3.31
182.13,-2.00,1.34,-2.00,1.34,-1.35,-1.26,-1.34,-3.35,-3.35,-3.34
183.95,-2.04,1.34,-2.04,1.34,-1.34,-1.26,-1.31,-3.38,-3.38,-3.38
185.79,-2.07,1.34,-2.07,1.34,-1.34,-1.25,-1.28,-3.41,-3.41,-3.41
187.65,-2.10,1.34,-2.10,1.33,-1.33,-1.25,-1.25,-3.43,-3.44,-3.44
189.52,-2.14,1.32,-2.14,1.33,-1.33,-1.25,-1.22,-3.47,-3.46,-3.46
191.42,-2.17,1.32,-2.17,1.32,-1.32,-1.25,-1.19,-3.49,-3.49,-3.49
193.33,-2.20,1.32,-2.20,1.31,-1.32,-1.25,-1.17,-3.52,-3.52,-3.52
195.27,-2.24,1.31,-2.24,1.31,-1.31,-1.26,-1.14,-3.55,-3.55,-3.55
197.22,-2.27,1.30,-2.27,1.31,-1.30,-1.27,-1.12,-3.57,-3.57,-3.57
199.19,-2.30,1.31,-2.30,1.30,-1.30,-1.28,-1.09,-3.60,-3.60,-3.61
201.18,-2.33,1.29,-2.33,1.29,-1.29,-1.28,-1.07,-3.62,-3.62,-3.62
203.19,-2.37,1.27,-2.37,1.28,-1.28,-1.29,-1.05,-3.65,-3.65,-3.64
205.23,-2.41,1.26,-2.40,1.26,-1.26,-1.28,-1.03,-3.67,-3.67,-3.67
207.28,-2.43,1.24,-2.44,1.25,-1.25,-1.27,-1.01,-3.68,-3.69,-3.67
209.35,-2.47,1.23,-2.47,1.24,-1.24,-1.25,-0.99,-3.71,-3.70,-3.70
211.44,-2.49,1.24,-2.49,1.22,-1.22,-1.23,-0.97,-3.71,-3.71,-3.73
213.56,-2.53,1.21,-2.53,1.21,-1.20,-1.19,-0.95,-3.73,-3.73,-3.74
215.69,-2.56,1.18,-2.56,1.18,-1.18,-1.15,-0.94,-3.74,-3.75,-3.74
217.85,-2.60,1.15,-2.59,1.16,-1.16,-1.10,-0.92,-3.76,-3.76,-3.75
220.03,-2.62,1.14,-2.62,1.14,-1.14,-1.06,-0.90,-3.76,-3.76,-3.76
222.23,-2.64,1.13,-2.65,1.12,-1.11,-1.01,-0.89,-3.75,-3.76,-3.77
224.45,-2.67,1.09,-2.67,1.09,-1.08,-0.96,-0.87,-3.75,-3.75,-3.76
226.70,-2.70,1.05,-2.70,1.06,-1.05,-0.92,-0.85,-3.75,-3.75,-3.75
228.96,-2.72,1.03,-2.73,1.02,-1.02,-0.88,-0.84,-3.74,-3.75,-3.75
231.25,-2.76,0.98,-2.75,0.98,-0.99,-0.84,-0.82,-3.75,-3.75,-3.74
233.57,-2.78,0.95,-2.78,0.95,-0.96,-0.80,-0.81,-3.74,-3.74,-3.73
235.90,-2.80,0.92,-2.80,0.92,-0.92,-0.76,-0.79,-3.72,-3.72,-3.72
238.26,-2.82,0.89,-2.82,0.89,-0.89,-0.73,-0.77,-3.71,-3.70,-3.71
240.64,-2.84,0.85,-2.84,0.86,-0.85,-0.70,-0.76,-3.69,-3.69,-3.69
243.05,-2.85,0.82,-2.86,0.81,-0.81,-0.67,-0.74,-3.66,-3.67,-3.67
245.48,-2.88,0.77,-2.88,0.77,-0.78,-0.64,-0.72,-3.66,-3.65,-3.65
247.93,-2.90,0.73,-2.90,0.74,-0.74,-0.62,-0.71,-3.64,-3.63,-3.63
250.41,-2.91,0.71,-2.92,0.69,-0.70,-0.60,-0.69,-3.61,-3.61,-3.62
252.92,-2.93,0.65,-2.93,0.66,-0.66,-0.57,-0.67,-3.59,-3.59,-3.58
255.45,-2.95,0.61,-2.95,0.62,-0.62,-0.55,-0.65,-3.57,-3.56,-3.56
258.00,-2.96,0.58,-2.96,0.58,-0.58,-0.53,-0.64,-3.54,-3.54,-3.54
260.58,-2.97,0.55,-2.97,0.54,-0.54,-0.51,-0.62,-3.51,-3.51,-3.52
263.19,-2.99,0.50,-2.99,0.50,-0.50,-0.49,-0.60,-3.49,-3.49,-3.49
265.82,-3.01,0.46,-3.01,0.46,-0.46,-0.47,-0.58,-3.47,-3.47,-3.47
268.48,-3.02,0.42,-3.02,0.42,-0.42,-0.45,-0.56,-3.44,-3.45,-3.44
271.16,-3.03,0.38,-3.03,0.38,-0.39,-0.44,-0.54,-3.42,-3.42,-3.41
273.87,-3.04,0.36,-3.04,0.35,-0.36,-0.42,-0.52,-3.40,-3.40,-3.40
276.61,-3.04,0.33,-3.04,0.33,-0.33,-0.40,-0.49,-3.37,-3.37,-3.37
279.38,-3.04,0.31,-3.04,0.31,-0.31,-0.39,-0.47,-3.35,-3.35,-3.35
282.17,-3.04,0.28,-3.04,0.29,-0.29,-0.37,-0.45,-3.33,-3.33,-3.32
284.99,-3.03,0.27,-3.03,0.27,-0.27,-0.36,-0.43,-3.30,-3.30,-3.30
287.84,-3.02,0.25,-3.02,0.25,-0.26,-0.34,-0.41,-3.28,-3.28,-3.27
290.72,-2.99,0.25,-2.99,0.25,-0.26,-0.33,-0.38,-3.25,-3.25,-3.24
293.63,-2.97,0.25,-2.97,0.25,-0.25,-0.32,-0.36,-3.22,-3.22,-3.22
296.57,-2.94,0.25,-2.94,0.25,-0.25,-0.30,-0.34,-3.19,-3.19,-3.19
299.53,-2.92,0.24,-2.92,0.25,-0.24,-0.29,-0.32,-3.16,-3.16,-3.16
302.53,-2.89,0.25,-2.89,0.24,-0.24,-0.28,-0.29,-3.13,-3.13,-3.14
305.55,-2.87,0.23,-2.87,0.24,-0.23,-0.26,-0.27,-3.10,-3.09,-3.10
308.61,-2.84,0.23,-2.84,0.22,-0.21,-0.25,-0.24,-3.05,-3.06,-3.07
311.69,-2.83,0.20,-2.83,0.20,-0.20,-0.24,-0.22,-3.03,-3.03,-3.03
314.81,-2.81,0.17,-2.81,0.18,-0.18,-0.23,-0.20,-2.99,-2.99,-2.98
317.96,-2.81,0.15,-2.81,0.15,-0.16,-0.21,-0.17,-2.97,-2.96,-2.96
321.14,-2.80,0.14,-2.80,0.13,-0.13,-0.20,-0.15,-2.93,-2.93,-2.94
324.35,-2.80,0.11,-2.80,0.11,-0.11,-0.19,-0.12,-2.91,-2.91,-2.91
327.59,-2.80,0.08,-2.80,0.08,-0.08,-0.18,-0.10,-2.88,-2.88,-2.88
330.87,-2.80,0.05,-2.80,0.05,-0.06,-0.17,-0.08,-2.86,-2.86,-2.85
334.18,-2.80,0.03,-2.80,0.03,-0.03,-0.16,-0.05,-2.83,-2.83,-2.83
337.52,-2.80,0.01,-2.80,0.01,-0.00,-0.15,-0.03,-2.80,-2.81,-2.81
340.90,-2.81,-0.03,-2.81,-0.02,0.03,-0.14,-0.00,-2.78,-2.78,-2.78
344.30,-2.82,-0.05,-2.82,-0.05,0.05,-0.13,0.02,-2.77,-2.76,-2.77
347.75,-2.83,-0.08,-2.83,-0.08,0.08,-0.11,0.05,-2.75,-2.75,-2.75
351.23,-2.84,-0.11,-2.84,-0.11,0.11,-0.10,0.07,-2.73,-2.73,-2.73
354.74,-2.85,-0.14,-2.85,-0.14,0.14,-0.09,0.10,-2.71,-2.71,-2.71
358.28,-2.86,-0.17,-2.86,-0.17,0.17,-0.08,0.12,-2.69,-2.69,-2.69
361.87,-2.87,-0.20,-2.87,-0.20,0.19,-0.07,0.15,-2.68,-2.68,-2.67
365.49,-2.88,-0.23,-2.88,-0.22,0.21,-0.06,0.17,-2.67,-2.66,-2.65
369.14,-2.88,-0.24,-2.88,-0.23,0.23,-0.05,0.20,-2.65,-2.64,-2.64
372.83,-2.87,-0.24,-2.87,-0.25,0.25,-0.04,0.22,-2.62,-2.63,-2.63
376.56,-2.86,-0.24,-2.86,-0.25,0.26,-0.04,0.25,-2.60,-2.61,-2.62
380.33,-2.86,-0.27,-2.85,-0.27,0.26,-0.03,0.27,-2.60,-2.59,-2.59
384.13,-2.84,-0.27,-2.84,-0.27,0.27,-0.02,0.30,-2.57,-2.57,-2.57
387.97,-2.83,-0.28,-2.83,-0.28,0.27,-0.01,0.32,-2.56,-2.56,-2.55
391.85,-2.81,-0.27,-2.81,-0.28,0.28,0.00,0.35,-2.53,-2.53,-2.54
395.77,-2.80,-0.29,-2.79,-0.28,0.28,0.01,0.38,-2.52,-2.51,-2.51
399.73,-2.77,-0.28,-2.78,-0.28,0.29,0.02,0.40,-2.48,-2.49,-2.49
403.72,-2.76,-0.29,-2.76,-0.29,0.30,0.03,0.43,-2.46,-2.47,-2.47
407.76,-2.75,-0.30,-2.75,-0.30,0.30,0.04,0.45,-2.45,-2.45,-2.45
411.84,-2.74,-0.32,-2.74,-0.31,0.31,0.05,0.47,-2.43,-2.43,-2.42
415.96,-2.72,-0.32,-2.72,-0.32,0.31,0.06,0.50,-2.41,-2.41,-2.40
420.12,-2.70,-0.32,-2.70,-0.32,0.32,0.06,0.52,-2.38,-2.39,-2.38
424.32,-2.69,-0.33,-2.69,-0.32,0.32,0.07,0.54,-2.37,-2.37,-2.36
428.56,-2.67,-0.32,-2.67,-0.32,0.32,0.08,0.57,-2.35,-2.35,-2.35
432.85,-2.65,-0.32,-2.65,-0.33,0.32,0.09,0.59,-2.33,-2.33,-2.33
