frequency,raw,error,smoothed,error_smoothed,equalization,parametric_eq,fixed_band_eq,equalized_raw,equalized_smoothed,target
20.00,4.50,0.91,4.50,0.91,-0.91,-2.39,-0.97,3.59,3.59,3.59
20.20,4.57,0.98,4.57,0.98,-0.98,-2.40,-1.00,3.59,3.59,3.59
20.40,4.65,1.05,4.65,1.05,-1.05,-2.40,-1.02,3.60,3.60,3.60
20.61,4.72,1.12,4.72,1.13,-1.12,-2.40,-1.05,3.59,3.60,3.60
20.81,4.80,1.20,4.80,1.20,-1.19,-2.41,-1.08,3.61,3.60,3.60
21.02,4.87,1.27,4.87,1.26,-1.26,-2.41,-1.12,3.61,3.61,3.60
21.23,4.93,1.32,4.93,1.33,-1.32,-2.41,-1.15,3.61,3.61,3.61
21.44,5.00,1.38,5.00,1.38,-1.39,-2.41,-1.18,3.61,3.61,3.62
21.66,5.06,1.44,5.06,1.44,-1.45,-2.42,-1.22,3.61,3.62,3.62
21.87,5.13,1.50,5.13,1.51,-1.51,-2.42,-1.25,3.62,3.62,3.63
22.09,5.19,1.57,5.19,1.57,-1.56,-2.42,-1.29,3.63,3.62,3.62
22.31,5.24,1.62,5.25,1.62,-1.62,-2.43,-1.32,3.62,3.62,3.63
22.54,5.30,1.68,5.30,1.68,-1.68,-2.43,-1.36,3.62,3.62,3.61
22.76,5.35,1.73,5.35,1.73,-1.73,-2.43,-1.40,3.62,3.62,3.62
22.99,5.40,1.78,5.40,1.78,-1.79,-2.44,-1.44,3.61,3.62,3.62
23.22,5.45,1.84,5.45,1.83,-1.84,-2.44,-1.48,3.61,3.61,3.61
23.45,5.50,1.89,5.50,1.89,-1.88,-2.44,-1.52,3.62,3.61,3.61
23.69,5.54,1.93,5.54,1.94,-1.93,-2.45,-1.56,3.61,3.62,3.61
23.92,5.59,1.98,5.59,1.98,-1.97,-2.45,-1.61,3.62,3.62,3.61
24.16,5.63,2.02,5.63,2.01,-2.01,-2.46,-1.65,3.62,3.61,3.61
24.40,5.66,2.04,5.66,2.05,-2.05,-2.46,-1.70,3.61,3.61,3.62
24.65,5.69,2.07,5.70,2.08,-2.08,-2.46,-1.74,3.60,3.61,3.62
24.89,5.73,2.11,5.73,2.11,-2.12,-2.47,-1.79,3.61,3.61,3.62
25.14,5.76,2.15,5.76,2.15,-2.15,-2.47,-1.84,3.61,3.61,3.61
25.39,5.78,2.18,5.78,2.18,-2.17,-2.47,-1.88,3.61,3.61,3.60
25.65,5.81,2.21,5.81,2.20,-2.20,-2.48,-1.93,3.61,3.61,3.60
25.91,5.83,2.23,5.83,2.22,-2.22,-2.48,-1.98,3.61,3.60,3.60
26.16,5.85,2.24,5.85,2.24,-2.25,-2.49,-2.02,3.60,3.60,3.61
26.43,5.87,2.26,5.87,2.26,-2.27,-2.49,-2.07,3.60,3.60,3.61
26.69,5.89,2.29,5.89,2.29,-2.29,-2.50,-2.12,3.60,3.60,3.60
26.96,5.91,2.31,5.91,2.31,-2.31,-2.50,-2.16,3.60,3.60,3.60
27.23,5.93,2.33,5.93,2.33,-2.33,-2.50,-2.21,3.60,3.60,3.60
27.50,5.94,2.34,5.95,2.35,-2.34,-2.51,-2.25,3.60,3.60,3.60
27.77,5.96,2.36,5.96,2.36,-2.36,-2.51,-2.30,3.60,3.60,3.60
28.05,5.98,2.38,5.97,2.38,-2.38,-2.52,-2.34,3.60,3.60,3.60
28.33,5.98,2.39,5.99,2.39,-2.39,-2.52,-2.38,3.59,3.60,3.59
28.62,6.00,2.41,5.99,2.40,-2.40,-2.53,-2.42,3.60,3.59,3.59
28.90,6.00,2.40,6.00,2.41,-2.41,-2.53,-2.46,3.59,3.59,3.60
29.19,6.01,2.41,6.01,2.42,-2.42,-2.54,-2.49,3.59,3.59,3.60
29.48,6.02,2.44,6.02,2.43,-2.43,-2.54,-2.53,3.59,3.59,3.58
29.78,6.03,2.45,6.03,2.44,-2.44,-2.55,-2.56,3.59,3.59,3.58
30.08,6.03,2.44,6.03,2.45,-2.44,-2.55,-2.59,3.59,3.59,3.59
30.38,6.03,2.45,6.03,2.45,-2.45,-2.56,-2.61,3.58,3.58,3.58
30.68,6.03,2.44,6.03,2.45,-2.45,-2.56,-2.63,3.58,3.58,3.59
30.99,6.04,2.46,6.04,2.45,-2.46,-2.57,-2.66,3.58,3.58,3.58
31.30,6.04,2.46,6.04,2.46,-2.46,-2.57,-2.67,3.58,3.58,3.58
31.61,6.05,2.46,6.05,2.46,-2.46,-2.58,-2.69,3.59,3.58,3.59
31.93,6.05,2.47,6.05,2.47,-2.47,-2.58,-2.70,3.58,3.59,3.58
32.24,6.06,2.47,6.06,2.47,-2.47,-2.59,-2.71,3.59,3.59,3.59
32.57,6.06,2.48,6.06,2.48,-2.47,-2.60,-2.72,3.58,3.59,3.58
32.89,6.06,2.48,6.06,2.48,-2.48,-2.60,-2.72,3.58,3.58,3.58
33.22,6.07,2.49,6.06,2.48,-2.49,-2.61,-2.72,3.58,3.58,3.58
33.55,6.06,2.49,6.07,2.49,-2.49,-2.61,-2.73,3.57,3.57,3.57
33.89,6.07,2.50,6.07,2.50,-2.50,-2.62,-2.72,3.57,3.56,3.57
34.23,6.07,2.51,6.07,2.51,-2.51,-2.63,-2.72,3.56,3.56,3.56
34.57,6.08,2.53,6.08,2.53,-2.53,-2.63,-2.72,3.55,3.55,3.55
34.92,6.08,2.55,6.08,2.55,-2.54,-2.64,-2.71,3.54,3.54,3.53
35.27,6.08,2.55,6.08,2.56,-2.56,-2.65,-2.70,3.52,3.52,3.53
35.62,6.08,2.58,6.08,2.57,-2.58,-2.65,-2.70,3.50,3.50,3.50
35.97,6.07,2.59,6.07,2.59,-2.60,-2.66,-2.69,3.47,3.48,3.48
36.33,6.07,2.61,6.07,2.61,-2.61,-2.66,-2.68,3.46,3.46,3.46
36.70,6.07,2.64,6.07,2.63,-2.63,-2.67,-2.67,3.44,3.44,3.43
37.06,6.07,2.66,6.07,2.66,-2.65,-2.68,-2.66,3.42,3.41,3.41
37.43,6.06,2.67,6.06,2.68,-2.67,-2.69,-2.66,3.39,3.39,3.39
37.81,6.06,2.70,6.06,2.69,-2.69,-2.69,-2.65,3.37,3.36,3.36
38.19,6.05,2.70,6.05,2.71,-2.71,-2.70,-2.64,3.34,3.34,3.35
38.57,6.05,2.73,6.05,2.73,-2.73,-2.71,-2.64,3.32,3.32,3.32
38.95,6.05,2.75,6.05,2.75,-2.75,-2.71,-2.63,3.30,3.30,3.30
39.34,6.04,2.77,6.04,2.77,-2.77,-2.72,-2.63,3.27,3.28,3.27
39.74,6.04,2.79,6.04,2.79,-2.78,-2.73,-2.63,3.26,3.25,3.25
40.14,6.03,2.80,6.03,2.80,-2.80,-2.74,-2.63,3.23,3.23,3.23
40.54,6.02,2.80,6.02,2.81,-2.81,-2.74,-2.63,3.21,3.21,3.22
40.94,6.02,2.83,6.02,2.82,-2.83,-2.75,-2.63,3.19,3.19,3.19
41.35,6.01,2.84,6.01,2.84,-2.84,-2.76,-2.63,3.17,3.17,3.17
41.76,6.00,2.85,6.00,2.85,-2.85,-2.77,-2.64,3.15,3.15,3.15
42.18,5.99,2.86,5.99,2.86,-2.86,-2.77,-2.65,3.13,3.13,3.13
42.60,5.97,2.86,5.97,2.87,-2.87,-2.78,-2.66,3.10,3.11,3.11
43.03,5.96,2.87,5.96,2.87,-2.87,-2.79,-2.67,3.09,3.09,3.09
43.46,5.95,2.89,5.95,2.88,-2.88,-2.80,-2.69,3.07,3.07,3.06
43.90,5.93,2.89,5.93,2.89,-2.89,-2.81,-2.70,3.04,3.04,3.04
44.33,5.91,2.89,5.91,2.89,-2.89,-2.81,-2.72,3.02,3.02,3.02
44.78,5.89,2.89,5.89,2.89,-2.90,-2.82,-2.74,2.99,3.00,3.00
45.23,5.88,2.89,5.88,2.90,-2.90,-2.83,-2.77,2.98,2.98,2.99
45.68,5.86,2.91,5.86,2.91,-2.91,-2.84,-2.79,2.95,2.95,2.95
46.13,5.85,2.93,5.84,2.92,-2.92,-2.85,-2.82,2.93,2.93,2.92
46.60,5.82,2.93,5.82,2.93,-2.92,-2.86,-2.85,2.90,2.90,2.89
47.06,5.80,2.93,5.80,2.93,-2.93,-2.87,-2.88,2.87,2.87,2.87
47.53,5.78,2.94,5.78,2.94,-2.95,-2.87,-2.91,2.83,2.83,2.84
48.01,5.75,2.96,5.75,2.95,-2.96,-2.88,-2.95,2.79,2.80,2.79
48.49,5.73,2.97,5.73,2.97,-2.97,-2.89,-2.98,2.76,2.76,2.76
48.97,5.71,2.99,5.71,2.99,-2.98,-2.90,-3.02,2.73,2.72,2.72
49.46,5.68,2.99,5.68,3.00,-3.00,-2.91,-3.06,2.68,2.69,2.69
49.96,5.66,3.03,5.65,3.02,-3.01,-2.92,-3.10,2.65,2.64,2.63
50.46,5.62,3.02,5.62,3.03,-3.02,-2.93,-3.14,2.60,2.60,2.60
50.96,5.59,3.03,5.59,3.03,-3.03,-2.94,-3.18,2.56,2.56,2.56
51.47,5.57,3.04,5.57,3.04,-3.04,-2.95,-3.23,2.53,2.52,2.53
51.99,5.54,3.05,5.54,3.05,-3.05,-2.96,-3.27,2.49,2.49,2.49
52.51,5.52,3.07,5.51,3.06,-3.06,-2.97,-3.32,2.46,2.45,2.45
53.03,5.48,3.06,5.48,3.07,-3.07,-2.98,-3.36,2.41,2.41,2.42
53.56,5.45,3.08,5.45,3.08,-3.08,-2.99,-3.40,2.37,2.37,2.37
54.10,5.42,3.09,5.42,3.09,-3.09,-2.99,-3.45,2.33,2.33,2.33
54.64,5.38,3.09,5.39,3.10,-3.09,-3.00,-3.49,2.29,2.30,2.29
55.18,5.36,3.10,5.35,3.10,-3.10,-3.01,-3.53,2.26,2.26,2.26
55.74,5.32,3.10,5.32,3.10,-3.10,-3.02,-3.57,2.22,2.22,2.22
56.29,5.29,3.10,5.29,3.10,-3.10,-3.03,-3.61,2.19,2.19,2.19
56.86,5.25,3.08,5.25,3.09,-3.09,-3.04,-3.64,2.16,2.16,2.17
57.42,5.22,3.10,5.22,3.09,-3.09,-3.05,-3.68,2.13,2.14,2.12
58.00,5.19,3.10,5.19,3.09,-3.08,-3.06,-3.71,2.11,2.11,2.09
58.58,5.16,3.09,5.15,3.08,-3.08,-3.07,-3.73,2.08,2.08,2.07
59.16,5.11,3.07,5.12,3.07,-3.08,-3.08,-3.76,2.03,2.04,2.04
59.76,5.08,3.07,5.08,3.07,-3.08,-3.09,-3.77,2.00,1.99,2.01
60.35,5.04,3.08,5.04,3.08,-3.09,-3.10,-3.79,1.95,1.95,1.96
60.96,5.01,3.09,5.01,3.10,-3.10,-3.11,-3.80,1.91,1.91,1.92
61.57,4.98,3.12,4.98,3.12,-3.11,-3.12,-3.81,1.87,1.86,1.86
62.18,4.94,3.14,4.94,3.14,-3.13,-3.13,-3.81,1.81,1.82,1.80
62.80,4.91,3.15,4.91,3.15,-3.14,-3.14,-3.81,1.77,1.77,1.76
63.43,4.87,3.16,4.87,3.16,-3.15,-3.15,-3.80,1.72,1.72,1.71
64.07,4.84,3.16,4.84,3.16,-3.16,-3.16,-3.79,1.68,1.68,1.68
64.71,4.81,3.17,4.81,3.17,-3.17,-3.17,-3.77,1.64,1.63,1.64
65.35,4.77,3.18,4.78,3.18,-3.18,-3.18,-3.75,1.59,1.60,1.59
66.01,4.74,3.19,4.74,3.18,-3.18,-3.18,-3.73,1.56,1.56,1.55
66.67,4.71,3.18,4.70,3.18,-3.19,-3.19,-3.70,1.52,1.52,1.53
67.33,4.66,3.18,4.67,3.19,-3.19,-3.20,-3.67,1.47,1.48,1.48
68.01,4.63,3.19,4.63,3.20,-3.19,-3.21,-3.63,1.44,1.44,1.44
68.69,4.60,3.21,4.60,3.20,-3.20,-3.22,-3.60,1.40,1.40,1.39
69.37,4.57,3.21,4.57,3.20,-3.20,-3.22,-3.56,1.36,1.36,1.36
70.07,4.53,3.20,4.53,3.21,-3.21,-3.23,-3.51,1.32,1.32,1.33
70.77,4.50,3.21,4.50,3.21,-3.22,-3.23,-3.47,1.28,1.28,1.29
71.48,4.47,3.23,4.47,3.22,-3.23,-3.24,-3.42,1.24,1.24,1.24
72.19,4.43,3.23,4.43,3.24,-3.24,-3.24,-3.37,1.19,1.19,1.20
72.91,4.40,3.25,4.40,3.25,-3.25,-3.25,-3.32,1.15,1.15,1.15
73.64,4.36,3.26,4.36,3.26,-3.25,-3.25,-3.27,1.11,1.11,1.10
74.38,4.33,3.26,4.33,3.26,-3.26,-3.25,-3.22,1.07,1.07,1.07
75.12,4.30,3.27,4.30,3.27,-3.27,-3.25,-3.17,1.03,1.03,1.03
75.87,4.26,3.26,4.26,3.27,-3.27,-3.25,-3.12,0.99,1.00,1.00
76.63,4.23,3.27,4.23,3.27,-3.27,-3.25,-3.07,0.96,0.96,0.96
77.40,4.19,3.25,4.19,3.26,-3.26,-3.25,-3.02,0.93,0.93,0.94
78.17,4.16,3.27,4.16,3.26,-3.26,-3.25,-2.98,0.90,0.90,0.89
78.95,4.12,3.25,4.12,3.25,-3.25,-3.24,-2.93,0.87,0.87,0.87
79.74,4.09,3.24,4.08,3.24,-3.24,-3.24,-2.88,0.85,0.84,0.85
80.54,4.04,3.23,4.05,3.23,-3.23,-3.23,-2.84,0.81,0.81,0.81
81.35,4.01,3.23,4.01,3.22,-3.22,-3.23,-2.79,0.79,0.78,0.78
82.16,3.97,3.21,3.97,3.21,-3.22,-3.22,-2.75,0.75,0.75,0.76
82.98,3.93,3.20,3.94,3.21,-3.21,-3.21,-2.71,0.72,0.73,0.73
83.81,3.90,3.20,3.90,3.20,-3.20,-3.20,-2.67,0.70,0.70,0.70
84.65,3.86,3.20,3.86,3.19,-3.19,-3.19,-2.63,0.67,0.67,0.66
85.50,3.81,3.18,3.82,3.18,-3.18,-3.17,-2.60,0.63,0.64,0.63
86.35,3.78,3.17,3.77,3.17,-3.17,-3.16,-2.57,0.61,0.61,0.60
87.22,3.73,3.15,3.73,3.15,-3.15,-3.14,-2.53,0.58,0.58,0.58
88.09,3.69,3.15,3.69,3.14,-3.14,-3.12,-2.50,0.55,0.55,0.54
88.97,3.64,3.12,3.64,3.12,-3.12,-3.11,-2.48,0.52,0.52,0.52
89.86,3.60,3.12,3.59,3.11,-3.11,-3.09,-2.45,0.49,0.49,0.48
90.76,3.54,3.08,3.54,3.09,-3.09,-3.07,-2.43,0.45,0.46,0.46
91.66,3.49,3.07,3.49,3.07,-3.07,-3.05,-2.41,0.42,0.42,0.42
92.58,3.44,3.05,3.44,3.05,-3.05,-3.02,-2.39,0.39,0.39,0.39
93.51,3.39,3.03,3.39,3.03,-3.03,-3.00,-2.37,0.36,0.36,0.36
94.44,3.34,3.00,3.34,3.01,-3.01,-2.98,-2.35,0.33,0.33,0.34
95.39,3.28,2.99,3.28,2.99,-2.99,-2.95,-2.34,0.29,0.29,0.29
96.34,3.22,2.97,3.22,2.97,-2.97,-2.93,-2.32,0.25,0.25,0.25
97.30,3.16,2.95,3.16,2.95,-2.95,-2.90,-2.31,0.21,0.21,0.21
98.28,3.11,2.94,3.10,2.94,-2.93,-2.87,-2.30,0.18,0.17,0.17
99.26,3.04,2.92,3.04,2.92,-2.91,-2.85,-2.29,0.13,0.13,0.12
100.25,2.98,2.89,2.98,2.89,-2.88,-2.82,-2.29,0.10,0.10,0.09
101.25,2.91,2.85,2.91,2.85,-2.85,-2.79,-2.28,0.06,0.05,0.06
102.27,2.84,2.82,2.84,2.82,-2.82,-2.76,-2.28,0.02,0.02,0.02
103.29,2.77,2.78,2.77,2.78,-2.79,-2.73,-2.27,-0.02,-0.02,-0.01
104.32,2.70,2.75,2.70,2.75,-2.75,-2.70,-2.27,-0.05,-0.05,-0.05
105.37,2.63,2.72,2.63,2.71,-2.71,-2.67,-2.27,-0.08,-0.08,-0.09
106.42,2.56,2.67,2.56,2.68,-2.67,-2.64,-2.27,-0.11,-0.11,-0.11
107.48,2.48,2.64,2.48,2.63,-2.63,-2.61,-2.27,-0.15,-0.15,-0.16
108.56,2.40,2.58,2.40,2.59,-2.59,-2.58,-2.27,-0.19,-0.19,-0.18
109.64,2.32,2.54,2.32,2.54,-2.54,-2.55,-2.27,-0.22,-0.22,-0.22
110.74,2.24,2.50,2.24,2.50,-2.50,-2.52,-2.27,-0.26,-0.26,-0.26
111.85,2.17,2.46,2.16,2.46,-2.46,-2.49,-2.27,-0.29,-0.29,-0.29
112.97,2.08,2.42,2.08,2.42,-2.42,-2.46,-2.27,-0.34,-0.33,-0.34
114.10,2.00,2.37,2.00,2.38,-2.38,-2.42,-2.27,-0.38,-0.38,-0.37
115.24,1.91,2.34,1.91,2.34,-2.34,-2.39,-2.27,-0.43,-0.43,-0.43
116.39,1.82,2.30,1.82,2.30,-2.30,-2.36,-2.26,-0.48,-0.48,-0.48
117.55,1.74,2.28,1.74,2.27,-2.27,-2.33,-2.26,-0.53,-0.53,-0.54
118.73,1.65,2.24,1.65,2.24,-2.23,-2.30,-2.26,-0.58,-0.59,-0.59
119.92,1.56,2.20,1.56,2.20,-2.20,-2.27,-2.25,-0.64,-0.64,-0.64
121.12,1.47,2.16,1.47,2.16,-2.17,-2.23,-2.25,-0.70,-0.69,-0.69
122.33,1.39,2.14,1.39,2.13,-2.14,-2.20,-2.24,-0.75,-0.75,-0.75
123.55,1.30,2.10,1.30,2.10,-2.11,-2.17,-2.23,-0.81,-0.81,-0.80
124.79,1.22,2.08,1.21,2.08,-2.08,-2.14,-2.22,-0.86,-0.86,-0.86
126.03,1.12,2.04,1.13,2.05,-2.05,-2.10,-2.21,-0.93,-0.92,-0.92
127.29,1.04,2.02,1.04,2.02,-2.02,-2.07,-2.20,-0.98,-0.98,-0.98
128.57,0.96,2.00,0.96,2.00,-2.00,-2.04,-2.19,-1.04,-1.04,-1.04
129.85,0.87,1.97,0.87,1.97,-1.97,-2.01,-2.17,-1.10,-1.10,-1.10
131.15,0.79,1.95,0.79,1.94,-1.94,-1.97,-2.16,-1.15,-1.15,-1.16
132.46,0.70,1.91,0.70,1.91,-1.91,-1.94,-2.14,-1.21,-1.20,-1.21
133.79,0.62,1.87,0.62,1.87,-1.87,-1.91,-2.12,-1.25,-1.25,-1.25
135.12,0.55,1.85,0.55,1.84,-1.84,-1.88,-2.10,-1.29,-1.29,-1.30
136.48,0.47,1.79,0.47,1.80,-1.80,-1.84,-2.08,-1.33,-1.33,-1.32
137.84,0.40,1.77,0.40,1.77,-1.77,-1.81,-2.06,-1.37,-1.37,-1.37
139.22,0.33,1.74,0.33,1.73,-1.73,-1.78,-2.04,-1.40,-1.40,-1.41
140.61,0.25,1.68,0.26,1.70,-1.69,-1.75,-2.02,-1.44,-1.43,-1.43
142.02,0.19,1.66,0.19,1.66,-1.65,-1.71,-1.99,-1.46,-1.46,-1.47
143.44,0.13,1.63,0.12,1.62,-1.62,-1.68,-1.97,-1.49,-1.49,-1.50
144.87,0.06,1.58,0.06,1.58,-1.58,-1.65,-1.95,-1.52,-1.52,-1.52
146.32,-0.00,1.55,0.00,1.55,-1.55,-1.62,-1.92,-1.55,-1.55,-1.55
147.78,-0.06,1.52,-0.06,1.52,-1.52,-1.59,-1.90,-1.58,-1.58,-1.58
149.26,-0.11,1.49,-0.11,1.49,-1.49,-1.56,-1.88,-1.60,-1.60,-1.60
150.75,-0.17,1.47,-0.17,1.47,-1.46,-1.53,-1.86,-1.63,-1.63,-1.64
152.26,-0.22,1.44,-0.22,1.44,-1.44,-1.50,-1.84,-1.66,-1.66,-1.66
153.78,-0.27,1.42,-0.27,1.42,-1.42,-1.47,-1.81,-1.69,-1.69,-1.69
155.32,-0.31,1.41,-0.31,1.41,-1.41,-1.44,-1.79,-1.72,-1.72,-1.72
156.88,-0.36,1.39,-0.36,1.40,-1.40,-1.41,-1.77,-1.76,-1.75,-1.75
158.44,-0.40,1.39,-0.40,1.39,-1.39,-1.39,-1.76,-1.79,-1.79,-1.79
160.03,-0.44,1.39,-0.44,1.38,-1.38,-1.36,-1.74,-1.82,-1.83,-1.83
161.63,-0.49,1.37,-0.48,1.38,-1.38,-1.34,-1.72,-1.87,-1.87,-1.86
163.24,-0.52,1.38,-0.52,1.38,-1.38,-1.32,-1.71,-1.90,-1.90,-1.90
164.88,-0.55,1.39,-0.55,1.39,-1.38,-1.29,-1.69,-1.93,-1.94,-1.94
166.53,-0.58,1.40,-0.58,1.39,-1.39,-1.27,-1.68,-1.97,-1.97,-1.98
168.19,-0.62,1.39,-0.62,1.39,-1.39,-1.26,-1.67,-2.01,-2.01,-2.01
169.87,-0.66,1.38,-0.65,1.39,-1.39,-1.24,-1.65,-2.05,-2.04,-2.04
171.57,-0.69,1.38,-0.69,1.38,-1.38,-1.23,-1.64,-2.07,-2.08,-2.07
173.29,-0.72,1.39,-0.73,1.38,-1.38,-1.21,-1.64,-2.10,-2.11,-2.11
175.02,-0.77,1.37,-0.77,1.37,-1.37,-1.21,-1.63,-2.14,-2.14,-2.14
176.77,-0.81,1.37,-0.81,1.36,-1.36,-1.20,-1.62,-2.17,-2.17,-2.18
178.54,-0.86,1.34,-0.86,1.35,-1.35,-1.19,-1.62,-2.21,-2.21,-2.20
180.32,-0.90,1.34,-0.91,1.33,-1.33,-1.18,-1.61,-2.23,-2.24,-2.24
182.13,-0.97,1.31,-0.96,1.31,-1.31,-1.18,-1.61,-2.28,-2.27,-2.28
183.95,-1.02,1.29,-1.02,1.29,-1.29,-1.18,-1.61,-2.31,-2.30,-2.31
185.79,-1.07,1.27,-1.08,1.27,-1.26,-1.18,-1.61,-2.33,-2.34,-2.34
187.65,-1.13,1.24,-1.13,1.24,-1.24,-1.18,-1.61,-2.37,-2.37,-2.37
189.52,-1.20,1.21,-1.19,1.21,-1.21,-1.19,-1.61,-2.41,-2.41,-2.41
191.42,-1.25,1.18,-1.25,1.18,-1.19,-1.19,-1.61,-2.44,-2.44,-2.43
193.33,-1.30,1.17,-1.31,1.17,-1.17,-1.20,-1.62,-2.47,-2.48,-2.47
195.27,-1.36,1.15,-1.35,1.15,-1.15,-1.20,-1.62,-2.51,-2.51,-2.51
197.22,-1.40,1.14,-1.40,1.14,-1.14,-1.21,-1.63,-2.54,-2.54,-2.55
199.19,-1.44,1.13,-1.44,1.13,-1.13,-1.22,-1.64,-2.57,-2.57,-2.57
201.18,-1.48,1.12,-1.48,1.12,-1.12,-1.23,-1.64,-2.60,-2.60,-2.60
203.19,-1.51,1.11,-1.51,1.11,-1.11,-1.24,-1.65,-2.62,-2.63,-2.62
205.23,-1.55,1.10,-1.54,1.11,-1.11,-1.25,-1.66,-2.66,-2.65,-2.65
207.28,-1.57,1.11,-1.57,1.11,-1.11,-1.26,-1.67,-2.68,-2.68,-2.68
209.35,-1.60,1.11,-1.60,1.10,-1.10,-1.27,-1.68,-2.70,-2.71,-2.71
211.44,-1.63,1.10,-1.63,1.11,-1.11,-1.28,-1.69,-2.74,-2.73,-2.73
213.56,-1.65,1.11,-1.65,1.11,-1.11,-1.29,-1.70,-2.76,-2.76,-2.76
215.69,-1.67,1.11,-1.67,1.11,-1.11,-1.31,-1.70,-2.78,-2.78,-2.78
217.85,-1.69,1.11,-1.69,1.12,-1.12,-1.32,-1.71,-2.81,-2.81,-2.80
220.03,-1.70,1.14,-1.70,1.13,-1.13,-1.33,-1.72,-2.83,-2.83,-2.84
222.23,-1.72,1.14,-1.72,1.14,-1.13,-1.34,-1.73,-2.85,-2.85,-2.86
224.45,-1.73,1.15,-1.73,1.15,-1.14,-1.35,-1.74,-2.87,-2.88,-2.88
226.70,-1.75,1.15,-1.74,1.15,-1.16,-1.36,-1.74,-2.91,-2.90,-2.90
228.96,-1.75,1.16,-1.75,1.16,-1.17,-1.37,-1.75,-2.92,-2.92,-2.91
231.25,-1.75,1.18,-1.76,1.18,-1.18,-1.38,-1.75,-2.93,-2.94,-2.93
233.57,-1.76,1.19,-1.76,1.20,-1.20,-1.39,-1.75,-2.96,-2.96,-2.95
235.90,-1.76,1.22,-1.76,1.22,-1.21,-1.39,-1.75,-2.97,-2.97,-2.98
238.26,-1.76,1.24,-1.76,1.23,-1.23,-1.40,-1.75,-2.99,-2.99,-3.00
240.64,-1.76,1.24,-1.76,1.25,-1.25,-1.41,-1.75,-3.01,-3.00,-3.00
243.05,-1.75,1.27,-1.76,1.26,-1.26,-1.42,-1.74,-3.01,-3.02,-3.02
245.48,-1.76,1.28,-1.76,1.28,-1.28,-1.42,-1.73,-3.04,-3.04,-3.04
247.93,-1.76,1.30,-1.76,1.30,-1.30,-1.43,-1.72,-3.06,-3.05,-3.06
250.41,-1.75,1.31,-1.75,1.31,-1.31,-1.43,-1.71,-3.06,-3.06,-3.06
252.92,-1.75,1.32,-1.75,1.33,-1.33,-1.44,-1.70,-3.08,-3.07,-3.07
255.45,-1.74,1.35,-1.74,1.34,-1.34,-1.44,-1.68,-3.08,-3.09,-3.09
258.00,-1.74,1.36,-1.74,1.36,-1.36,-1.45,-1.67,-3.10,-3.10,-3.10
260.58,-1.73,1.37,-1.73,1.38,-1.38,-1.45,-1.64,-3.11,-3.10,-3.10
263.19,-1.72,1.40,-1.72,1.39,-1.39,-1.45,-1.62,-3.11,-3.12,-3.12
265.82,-1.71,1.41,-1.71,1.41,-1.41,-1.46,-1.60,-3.12,-3.12,-3.12
268.48,-1.71,1.43,-1.71,1.43,-1.43,-1.46,-1.57,-3.14,-3.14,-3.14
271.16,-1.70,1.45,-1.70,1.45,-1.45,-1.46,-1.55,-3.15,-3.15,-3.15
273.87,-1.70,1.46,-1.70,1.47,-1.47,-1.46,-1.52,-3.17,-3.17,-3.16
276.61,-1.68,1.50,-1.69,1.49,-1.49,-1.46,-1.49,-3.17,-3.18,-3.18
279.38,-1.68,1.51,-1.67,1.52,-1.51,-1.46,-1.46,-3.19,-3.19,-3.19
282.17,-1.66,1.54,-1.66,1.53,-1.53,-1.46,-1.42,-3.19,-3.20,-3.20
284.99,-1.65,1.55,-1.65,1.55,-1.55,-1.46,-1.39,-3.20,-3.20,-3.20
287.84,-1.64,1.56,-1.64,1.57,-1.57,-1.46,-1.35,-3.21,-3.21,-3.20
290.72,-1.62,1.60,-1.62,1.59,-1.59,-1.46,-1.32,-3.21,-3.22,-3.22
293.63,-1.61,1.62,-1.61,1.61,-1.61,-1.46,-1.28,-3.22,-3.22,-3.23
296.57,-1.60,1.63,-1.60,1.63,-1.63,-1.45,-1.24,-3.23,-3.23,-3.23
299.53,-1.59,1.65,-1.59,1.65,-1.65,-1.45,-1.21,-3.24,-3.23,-3.24
302.53,-1.58,1.66,-1.58,1.66,-1.66,-1.45,-1.17,-3.24,-3.24,-3.24
305.55,-1.56,1.68,-1.57,1.67,-1.68,-1.44,-1.13,-3.24,-3.24,-3.24
308.61,-1.56,1.68,-1.55,1.69,-1.69,-1.44,-1.09,-3.25,-3.24,-3.24
311.69,-1.54,1.70,-1.54,1.70,-1.70,-1.43,-1.06,-3.24,-3.24,-3.24
314.81,-1.53,1.71,-1.53,1.71,-1.71,-1.43,-1.02,-3.24,-3.24,-3.24
317.96,-1.52,1.73,-1.52,1.73,-1.72,-1.42,-0.98,-3.24,-3.24,-3.25
321.14,-1.51,1.73,-1.51,1.73,-1.73,-1.41,-0.94,-3.24,-3.24,-3.24
324.35,-1.51,1.73,-1.51,1.73,-1.73,-1.41,-0.90,-3.24,-3.24,-3.24
327.59,-1.50,1.73,-1.50,1.73,-1.74,-1.40,-0.87,-3.24,-3.24,-3.23
330.87,-1.50,1.74,-1.50,1.74,-1.74,-1.39,-0.83,-3.24,-3.24,-3.24
334.18,-1.49,1.75,-1.49,1.74,-1.74,-1.38,-0.79,-3.23,-3.23,-3.24
337.52,-1.49,1.74,-1.49,1.75,-1.74,-1.37,-0.76,-3.23,-3.23,-3.23
340.90,-1.49,1.74,-1.49,1.74,-1.74,-1.36,-0.72,-3.23,-3.23,-3.23
344.30,-1.50,1.73,-1.50,1.73,-1.73,-1.35,-0.69,-3.23,-3.23,-3.23
347.75,-1.50,1.72,-1.50,1.73,-1.73,-1.34,-0.65,-3.23,-3.23,-3.22
351.23,-1.50,1.73,-1.50,1.72,-1.72,-1.33,-0.62,-3.22,-3.23,-3.23
354.74,-1.51,1.71,-1.51,1.72,-1.72,-1.31,-0.58,-3.23,-3.22,-3.22
358.28,-1.52,1.71,-1.52,1.71,-1.71,-1.30,-0.55,-3.23,-3.22,-3.23
361.87,-1.52,1.71,-1.53,1.70,-1.70,-1.29,-0.52,-3.22,-3.22,-3.23
365.49,-1.54,1.68,-1.54,1.69,-1.69,-1.27,-0.48,-3.23,-3.22,-3.22
369.14,-1.56,1.66,-1.56,1.67,-1.67,-1.25,-0.45,-3.23,-3.23,-3.22
372.83,-1.57,1.66,-1.58,1.65,-1.65,-1.24,-0.42,-3.22,-3.23,-3.23
376.56,-1.60,1.64,-1.60,1.64,-1.63,-1.22,-0.39,-3.23,-3.23,-3.24
380.33,-1.62,1.61,-1.62,1.61,-1.61,-1.20,-0.36,-3.23,-3.23,-3.23
384.13,-1.64,1.59,-1.64,1.58,-1.58,-1.18,-0.33,-3.22,-3.23,-3.23
387.97,-1.67,1.55,-1.67,1.55,-1.55,-1.16,-0.30,-3.22,-3.23,-3.22
391.85,-1.71,1.51,-1.70,1.52,-1.52,-1.14,-0.27,-3.23,-3.22,-3.22
395.77,-1.74,1.49,-1.74,1.48,-1.48,-1.11,-0.24,-3.22,-3.22,-3.23
399.73,-1.77,1.45,-1.77,1.44,-1.45,-1.09,-0.21,-3.22,-3.22,-3.22
403.72,-1.81,1.40,-1.81,1.40,-1.40,-1.06,-0.18,-3.21,-3.21,-3.21
407.76,-1.85,1.36,-1.85,1.36,-1.36,-1.04,-0.15,-3.21,-3.21,-3.21
411.84,-1.89,1.32,-1.89,1.31,-1.31,-1.01,-0.13,-3.20,-3.21,-3.21
415.96,-1.94,1.26,-1.94,1.27,-1.27,-0.98,-0.10,-3.21,-3.21,-3.20
420.12,-1.99,1.22,-1.99,1.22,-1.22,-0.95,-0.07,-3.21,-3.21,-3.21
424.32,-2.05,1.16,-2.04,1.16,-1.16,-0.92,-0.05,-3.21,-3.21,-3.21
428.56,-2.10,1.10,-2.10,1.10,-1.11,-0.88,-0.02,-3.21,-3.21,-3.20
432.85,-2.15,1.05,-2.16,1.04,-1.05,-0.85,0.00,-3.20,-3.21,-3.20
437.18,-2.22,0.99,-2.21,0.99,-0.99,-0.81,0.02,-3.21,-3.20,-3.21
441.55,-2.28,0.93,-2.28,0.93,-0.92,-0.77,0.05,-3.20,-3.20,-3.21
445.96,-2.35,0.86,-2.35,0.86,-0.85,-0.73,0.07,-3.20,-3.21,-3.21
450.42,-2.43,0.78,-2.43,0.79,-0.78,-0.69,0.09,-3.21,-3.21,-3.21
454.93,-2.50,0.71,-2.50,0.71,-0.71,-0.65,0.11,-3.21,-3.21,-3.21
459.48,-2.58,0.63,-2.58,0.63,-0.63,-0.60,0.13,-3.21,-3.21,-3.21
464.07,-2.66,0.54,-2.66,0.54,-0.55,-0.55,0.14,-3.21,-3.20,-3.20
468.71,-2.74,0.45,-2.74,0.46,-0.46,-0.50,0.16,-3.20,-3.20,-3.19
473.40,-2.82,0.37,-2.82,0.37,-0.38,-0.44,0.17,-3.20,-3.20,-3.19
478.13,-2.91,0.28,-2.91,0.29,-0.29,-0.39,0.19,-3.20,-3.19,-3.20
482.91,-2.99,0.21,-2.99,0.20,-0.20,-0.33,0.20,-3.19,-3.20,-3.20
487.74,-3.08,0.12,-3.08,0.11,-0.11,-0.27,0.21,-3.19,-3.19,-3.20
