frequency,raw
20.00,-8.07
20.20,-7.95
20.40,-7.84
20.61,-7.72
20.81,-7.61
21.02,-7.49
21.23,-7.37
21.44,-7.25
21.66,-7.12
21.87,-6.99
22.09,-6.87
22.31,-6.74
22.54,-6.60
22.76,-6.46
22.99,-6.33
23.22,-6.19
23.45,-6.07
23.69,-5.94
23.92,-5.82
24.16,-5.71
24.40,-5.60
24.65,-5.50
24.89,-5.38
25.14,-5.26
25.39,-5.12
25.65,-4.98
25.91,-4.84
26.16,-4.74
26.43,-4.66
26.69,-4.57
26.96,-4.48
27.23,-4.36
27.50,-4.22
27.77,-4.08
28.05,-3.96
28.33,-3.88
28.62,-3.80
28.90,-3.73
29.19,-3.62
29.48,-3.50
29.78,-3.37
30.08,-3.25
30.38,-3.17
30.68,-3.09
30.99,-3.00
31.30,-2.88
31.61,-2.77
31.93,-2.66
32.24,-2.57
32.57,-2.51
32.89,-2.44
33.22,-2.37
33.55,-2.28
33.89,-2.21
34.23,-2.12
34.57,-2.04
34.92,-1.96
35.27,-1.85
35.62,-1.74
35.97,-1.64
36.33,-1.58
36.70,-1.52
37.06,-1.47
37.43,-1.40
37.81,-1.33
38.19,-1.30
38.57,-1.28
38.95,-1.25
39.34,-1.19
39.74,-1.12
40.14,-1.05
40.54,-0.97
40.94,-0.89
41.35,-0.80
41.76,-0.72
42.18,-0.65
42.60,-0.59
43.03,-0.54
43.46,-0.47
43.90,-0.42
44.33,-0.36
44.78,-0.29
45.23,-0.22
45.68,-0.17
46.13,-0.12
46.60,-0.08
47.06,-0.05
47.53,-0.06
48.01,-0.07
48.49,0.02
48.97,0.10
49.46,0.10
49.96,0.08
50.46,0.07
50.96,0.06
51.47,0.14
51.99,0.24
52.51,0.23
53.03,0.22
53.56,0.27
54.10,0.32
54.64,0.36
55.18,0.39
55.74,0.38
56.29,0.38
56.86,0.37
57.42,0.37
58.00,0.37
58.58,0.49
59.16,0.57
59.76,0.58
60.35,0.59
60.96,0.60
61.57,0.61
62.18,0.63
62.80,0.65
63.43,0.64
64.07,0.61
64.71,0.63
65.35,0.62
66.01,0.57
66.67,0.52
67.33,0.48
68.01,0.46
68.69,0.41
69.37,0.37
70.07,0.36
70.77,0.36
71.48,0.30
72.19,0.24
72.91,0.25
73.64,0.27
74.38,0.32
75.12,0.38
75.87,0.43
76.63,0.46
77.40,0.48
78.17,0.50
78.95,0.51
79.74,0.43
80.54,0.42
81.35,0.46
82.16,0.48
82.98,0.52
83.81,0.49
84.65,0.43
85.50,0.42
86.35,0.40
87.22,0.31
88.09,0.23
88.97,0.27
89.86,0.18
90.76,0.09
91.66,0.05
92.58,-0.00
93.51,-0.01
94.44,-0.02
95.39,-0.06
96.34,-0.11
97.30,-0.11
98.28,-0.12
99.26,-0.12
100.25,-0.10
101.25,-0.06
102.27,-0.05
103.29,-0.01
104.32,0.03
105.37,0.07
106.42,0.10
107.48,0.12
108.56,0.16
109.64,0.16
110.74,0.14
111.85,0.12
112.97,0.12
114.10,0.11
115.24,0.10
116.39,0.11
117.55,0.15
118.73,0.26
119.92,0.27
121.12,0.27
122.33,0.26
123.55,0.25
124.79,0.23
126.03,0.22
127.29,0.21
128.57,0.19
129.85,0.12
131.15,0.07
132.46,0.06
133.79,0.05
135.12,0.04
136.48,0.03
137.84,0.02
139.22,0.01
140.61,0.01
142.02,0.01
143.44,0.01
144.87,0.01
146.32,0.01
147.78,0.01
149.26,0.02
150.75,0.04
152.26,0.05
153.78,0.02
155.32,0.04
156.88,0.11
158.44,0.11
160.03,-0.02
161.63,-0.02
163.24,-0.00
164.88,-0.05
166.53,-0.10
168.19,-0.09
169.87,-0.08
171.57,-0.15
173.29,-0.29
175.02,-0.35
176.77,-0.40
178.54,-0.49
180.32,-0.65
182.13,-0.79
183.95,-0.87
185.79,-1.03
187.65,-1.13
189.52,-1.27
191.42,-1.37
193.33,-1.47
195.27,-1.59
197.22,-1.66
199.19,-1.73
201.18,-1.79
203.19,-1.81
205.23,-1.76
207.28,-1.67
209.35,-1.56
211.44,-1.49
213.56,-1.40
215.69,-1.30
217.85,-1.28
220.03,-1.21
222.23,-1.15
224.45,-1.09
226.70,-1.06
228.96,-0.96
231.25,-0.95
233.57,-0.96
235.90,-0.96
238.26,-0.95
240.64,-0.95
243.05,-0.95
245.48,-0.94
247.93,-0.92
250.41,-0.91
252.92,-0.89
255.45,-0.88
258.00,-0.88
260.58,-1.00
263.19,-1.07
265.82,-1.07
268.48,-1.07
271.16,-1.06
273.87,-1.07
276.61,-1.07
279.38,-1.08
282.17,-1.08
284.99,-1.08
287.84,-1.07
290.72,-1.05
293.63,-1.17
296.57,-1.27
299.53,-1.26
302.53,-1.24
305.55,-1.23
308.61,-1.28
311.69,-1.32
314.81,-1.38
317.96,-1.39
321.14,-1.38
324.35,-1.38
327.59,-1.37
330.87,-1.35
334.18,-1.34
337.52,-1.41
340.90,-1.43
344.30,-1.43
347.75,-1.42
351.23,-1.41
354.74,-1.47
358.28,-1.46
361.87,-1.49
365.49,-1.52
369.14,-1.52
372.83,-1.43
376.56,-1.37
380.33,-1.35
384.13,-1.34
387.97,-1.32
391.85,-1.30
395.77,-1.33
399.73,-1.37
403.72,-1.37
407.76,-1.35
411.84,-1.35
415.96,-1.34
420.12,-1.32
424.32,-1.31
428.56,-1.36
432.85,-1.39
437.18,-1.38
441.55,-1.37
445.96,-1.34
450.42,-1.32
454.93,-1.29
459.48,-1.27
464.07,-1.24
468.71,-1.23
473.40,-1.20
478.13,-1.18
482.91,-1.16
487.74,-1.15
492.62,-1.13
497.55,-1.13
502.52,-1.11
507.55,-1.09
512.62,-1.06
517.75,-1.04
522.93,-1.01
528.16,-0.98
533.44,-0.94
538.77,-0.92
544.16,-0.90
549.60,-0.88
555.10,-0.87
560.65,-0.85
566.25,-0.83
571.92,-0.80
577.64,-0.78
583.41,-0.74
589.25,-0.71
595.14,-0.68
601.09,-0.66
607.10,-0.72
613.17,-0.79
619.30,-0.90
625.50,-1.15
631.75,-1.29
638.07,-1.45
644.45,-1.61
650.89,-1.72
657.40,-1.67
663.98,-1.55
670.62,-1.43
677.32,-1.35
684.10,-1.29
690.94,-1.15
697.85,-1.02
704.83,-0.94
711.87,-0.91
718.99,-0.91
726.18,-0.81
733.44,-0.71
740.78,-0.68
748.19,-0.67
755.67,-0.66
763.23,-0.66
770.86,-0.64
778.57,-0.64
786.35,-0.56
794.22,-0.49
802.16,-0.42
810.18,-0.39
818.28,-0.39
826.46,-0.40
834.73,-0.41
843.08,-0.37
851.51,-0.35
860.02,-0.36
868.62,-0.30
877.31,-0.30
886.08,-0.27
894.94,-0.25
903.89,-0.24
912.93,-0.26
922.06,-0.25
931.28,-0.11
940.59,-0.09
950.00,-0.10
959.50,-0.09
969.09,-0.01
978.78,0.03
988.57,0.06
998.46,0.08
1008.44,0.12
1018.53,0.31
1028.71,0.39
1039.00,0.43
1049.39,0.55
1059.88,0.65
1070.48,0.75
1081.19,0.80
1092.00,0.86
1102.92,0.98
1113.95,1.04
1125.09,1.08
1136.34,1.13
1147.70,1.18
1159.18,1.24
1170.77,1.30
1182.48,1.38
1194.30,1.47
1206.25,1.55
1218.31,1.66
1230.49,1.78
1242.80,1.84
1255.22,1.92
1267.78,2.00
1280.45,2.10
1293.26,2.24
1306.19,2.40
1319.25,2.55
1332.45,2.64
1345.77,2.74
1359.23,2.84
1372.82,3.00
1386.55,3.09
1400.41,3.22
1414.42,3.37
1428.56,3.51
1442.85,3.66
1457.28,3.79
1471.85,3.84
1486.57,3.94
1501.43,4.04
1516.45,4.14
1531.61,4.31
1546.93,4.41
1562.40,4.47
1578.02,4.58
1593.80,4.68
1609.74,4.75
1625.84,4.74
1642.10,4.77
1658.52,4.87
1675.10,4.99
1691.85,5.17
1708.77,5.42
1725.86,5.63
1743.12,5.82
1760.55,5.95
1778.15,6.07
1795.94,6.23
1813.90,6.57
1832.03,6.77
1850.36,6.93
1868.86,7.15
1887.55,7.33
1906.42,7.57
1925.49,7.86
1944.74,8.03
1964.19,8.12
1983.83,8.24
2003.67,8.43
2023.71,8.72
2043.94,9.00
2064.38,9.21
2085.03,9.44
2105.88,9.65
2126.94,9.85
2148.20,10.02
2169.69,10.13
2191.38,10.31
2213.30,10.44
2235.43,10.57
2257.78,10.80
2280.36,11.02
2303.17,11.22
2326.20,11.43
2349.46,11.65
2372.95,11.86
2396.68,11.99
2420.65,12.03
2444.86,12.07
2469.31,12.12
2494.00,12.18
2518.94,12.14
2544.13,12.05
2569.57,12.02
2595.27,12.05
2621.22,12.13
2647.43,12.25
2673.90,12.39
2700.64,12.56
2727.65,12.66
2754.93,12.72
2782.48,12.73
2810.30,12.70
2838.40,12.66
2866.79,12.64
2895.46,12.44
2924.41,12.31
2953.65,12.34
2983.19,12.34
3013.02,12.07
3043.15,11.83
3073.58,11.70
3104.32,11.64
3135.36,11.49
3166.72,11.20
3198.38,11.24
3230.37,11.31
3262.67,11.05
3295.30,10.83
3328.25,10.83
3361.53,10.72
3395.15,10.58
3429.10,10.38
3463.39,9.90
3498.03,9.71
3533.01,9.64
3568.34,9.56
3604.02,9.52
3640.06,9.21
3676.46,8.93
3713.22,8.51
3750.36,7.98
3787.86,7.75
3825.74,7.64
3864.00,7.56
3902.64,7.54
3941.66,7.37
3981.08,7.26
4020.89,7.42
4061.10,7.63
4101.71,7.72
4142.73,7.67
4184.15,7.58
4226.00,7.71
4268.26,7.75
4310.94,7.87
4354.05,7.89
4397.59,7.98
4441.56,8.54
4485.98,9.01
4530.84,9.72
4576.15,10.36
4621.91,10.63
4668.13,10.88
4714.81,11.02
4761.96,10.89
4809.58,10.84
4857.67,10.65
4906.25,10.37
4955.31,10.26
5004.87,10.19
5054.91,10.38
5105.46,11.01
5156.52,11.53
5208.08,12.30
5260.16,12.81
5312.77,13.11
5365.89,13.47
5419.55,13.85
5473.75,14.26
5528.49,14.41
5583.77,14.14
5639.61,13.76
5696.00,13.42
5752.96,12.98
5810.49,12.53
5868.60,12.27
5927.28,11.94
5986.56,11.66
6046.42,11.32
6106.89,10.96
6167.96,10.73
6229.64,10.49
6291.93,10.00
6354.85,9.37
6418.40,8.58
6482.58,7.85
6547.41,7.16
6612.88,6.41
6679.01,5.82
6745.80,5.34
6813.26,4.89
6881.39,4.59
6950.21,4.69
7019.71,5.35
7089.91,5.88
7160.81,6.61
7232.41,7.38
7304.74,8.25
7377.79,9.03
7451.56,9.81
7526.08,10.48
7601.34,10.96
7677.35,11.33
7754.13,11.80
7831.67,12.31
7909.98,12.47
7989.08,12.71
8068.98,12.76
8149.67,12.63
8231.16,12.26
8313.47,11.53
8396.61,10.79
8480.57,10.01
8565.38,8.92
8651.03,7.97
8737.54,7.50
8824.92,7.33
8913.17,6.61
9002.30,5.60
9092.32,4.48
9183.25,3.21
9275.08,2.16
9367.83,1.47
9461.51,0.96
9556.12,0.70
9651.68,0.76
9748.20,1.48
9845.68,2.73
9944.14,3.73
10043.58,4.73
10144.02,5.84
10245.46,6.86
10347.91,7.66
10451.39,8.13
10555.91,7.96
10661.46,7.92
10768.08,7.72
10875.76,7.28
10984.52,6.97
11094.36,6.52
11205.31,5.13
11317.36,3.51
11430.53,2.18
11544.84,1.35
11660.29,1.09
11776.89,0.92
11894.66,0.12
12013.60,-1.19
12133.74,-2.18
12255.08,-2.61
12377.63,-2.58
12501.41,-2.97
12626.42,-3.74
12752.68,-3.55
12880.21,-2.82
13009.01,-2.60
13139.10,-2.14
13270.49,-1.15
13403.20,-0.90
13537.23,0.26
13672.60,1.48
13809.33,2.02
13947.42,2.30
14086.90,2.53
14227.77,3.03
14370.04,3.69
14513.74,3.99
14658.88,4.50
14805.47,4.99
14953.52,4.64
15103.06,3.24
15254.09,0.02
15406.63,-1.86
15560.70,-3.66
15716.30,-4.71
15873.47,-5.62
16032.20,-7.08
16192.52,-8.60
16354.45,-8.81
16517.99,-8.10
16683.17,-6.47
16850.01,-5.62
17018.51,-5.05
17188.69,-5.19
17360.58,-5.93
17534.18,-6.69
17709.53,-7.26
17886.62,-7.87
18065.49,-8.13
18246.14,-8.60
18428.60,-9.18
18612.89,-9.00
18799.02,-8.47
18987.01,-7.21
19176.88,-7.63
19368.65,-8.64
19562.33,-9.88
19757.96,-11.62
19955.54,-13.28
