frequency,raw,error,smoothed,error_smoothed,equalization,parametric_eq,fixed_band_eq,equalized_raw,equalized_smoothed,target
20.00,-2.89,-4.83,-2.89,-4.83,4.83,4.62,0.78,1.93,1.93,1.94
20.20,-2.80,-4.71,-2.80,-4.71,4.71,4.56,0.81,1.91,1.91,1.91
20.40,-2.71,-4.60,-2.71,-4.60,4.60,4.50,0.83,1.89,1.89,1.89
20.61,-2.63,-4.49,-2.63,-4.49,4.49,4.44,0.86,1.87,1.87,1.87
20.81,-2.54,-4.39,-2.54,-4.39,4.38,4.37,0.88,1.84,1.84,1.85
21.02,-2.45,-4.28,-2.46,-4.28,4.28,4.30,0.91,1.82,1.82,1.83
21.23,-2.37,-4.18,-2.37,-4.18,4.17,4.22,0.94,1.80,1.80,1.81
21.44,-2.28,-4.07,-2.29,-4.07,4.07,4.15,0.97,1.79,1.78,1.79
21.66,-2.20,-3.97,-2.20,-3.97,3.97,4.07,1.00,1.77,1.77,1.77
21.87,-2.12,-3.88,-2.12,-3.87,3.87,3.99,1.03,1.75,1.76,1.76
22.09,-2.03,-3.77,-2.04,-3.77,3.78,3.91,1.06,1.75,1.74,1.74
22.31,-1.95,-3.68,-1.95,-3.68,3.68,3.83,1.10,1.73,1.73,1.73
22.54,-1.88,-3.59,-1.88,-3.59,3.59,3.75,1.13,1.72,1.72,1.72
22.76,-1.80,-3.51,-1.80,-3.51,3.50,3.66,1.17,1.70,1.70,1.71
22.99,-1.72,-3.42,-1.72,-3.42,3.41,3.58,1.20,1.69,1.69,1.70
23.22,-1.64,-3.33,-1.64,-3.33,3.33,3.49,1.24,1.68,1.68,1.69
23.45,-1.56,-3.24,-1.56,-3.24,3.24,3.40,1.27,1.68,1.68,1.68
23.69,-1.49,-3.15,-1.49,-3.16,3.16,3.32,1.31,1.67,1.67,1.67
23.92,-1.41,-3.08,-1.41,-3.08,3.08,3.23,1.35,1.67,1.66,1.67
24.16,-1.34,-3.00,-1.34,-3.00,3.00,3.14,1.39,1.65,1.66,1.66
24.40,-1.26,-2.92,-1.26,-2.92,2.92,3.05,1.43,1.65,1.65,1.66
24.65,-1.18,-2.83,-1.19,-2.84,2.84,2.96,1.47,1.65,1.65,1.65
24.89,-1.12,-2.77,-1.12,-2.76,2.76,2.88,1.51,1.64,1.64,1.65
25.14,-1.05,-2.69,-1.05,-2.68,2.68,2.79,1.55,1.63,1.64,1.64
25.39,-0.97,-2.61,-0.97,-2.61,2.60,2.70,1.58,1.63,1.63,1.64
25.65,-0.88,-2.51,-0.89,-2.52,2.52,2.62,1.62,1.64,1.63,1.63
25.91,-0.82,-2.45,-0.82,-2.45,2.45,2.53,1.66,1.62,1.62,1.63
26.16,-0.75,-2.37,-0.75,-2.37,2.37,2.44,1.70,1.61,1.62,1.62
26.43,-0.68,-2.29,-0.67,-2.29,2.29,2.36,1.74,1.61,1.61,1.62
26.69,-0.59,-2.20,-0.59,-2.20,2.21,2.27,1.77,1.61,1.61,1.61
26.96,-0.51,-2.12,-0.52,-2.12,2.12,2.19,1.81,1.61,1.61,1.61
27.23,-0.44,-2.05,-0.44,-2.05,2.04,2.11,1.84,1.60,1.60,1.61
27.50,-0.37,-1.97,-0.37,-1.97,1.96,2.03,1.87,1.59,1.60,1.60
27.77,-0.29,-1.89,-0.29,-1.89,1.89,1.94,1.90,1.59,1.59,1.60
28.05,-0.21,-1.80,-0.22,-1.81,1.81,1.86,1.92,1.60,1.59,1.59
28.33,-0.14,-1.73,-0.14,-1.73,1.73,1.78,1.95,1.59,1.59,1.59
28.62,-0.07,-1.66,-0.07,-1.66,1.66,1.70,1.97,1.58,1.59,1.59
28.90,-0.00,-1.58,-0.01,-1.59,1.59,1.63,1.98,1.58,1.58,1.58
29.19,0.06,-1.52,0.06,-1.52,1.52,1.55,2.00,1.57,1.58,1.58
29.48,0.13,-1.45,0.13,-1.45,1.45,1.47,2.01,1.57,1.58,1.58
29.78,0.20,-1.38,0.20,-1.38,1.38,1.39,2.01,1.58,1.58,1.58
30.08,0.27,-1.31,0.26,-1.31,1.31,1.32,2.01,1.58,1.58,1.58
30.38,0.33,-1.25,0.32,-1.25,1.25,1.25,2.01,1.57,1.57,1.58
30.68,0.39,-1.18,0.39,-1.18,1.18,1.17,2.00,1.57,1.57,1.57
30.99,0.45,-1.12,0.45,-1.11,1.11,1.10,1.99,1.56,1.57,1.57
31.30,0.53,-1.04,0.52,-1.04,1.05,1.03,1.97,1.57,1.57,1.57
31.61,0.59,-0.98,0.58,-0.98,0.98,0.96,1.95,1.57,1.56,1.57
31.93,0.65,-0.91,0.64,-0.91,0.91,0.88,1.92,1.56,1.56,1.56
32.24,0.70,-0.86,0.70,-0.85,0.85,0.81,1.89,1.54,1.55,1.56
32.57,0.77,-0.78,0.77,-0.78,0.78,0.75,1.85,1.55,1.55,1.55
32.89,0.84,-0.71,0.84,-0.71,0.71,0.68,1.81,1.55,1.55,1.55
33.22,0.91,-0.64,0.90,-0.64,0.64,0.61,1.77,1.55,1.55,1.55
33.55,0.97,-0.58,0.97,-0.58,0.58,0.54,1.72,1.54,1.54,1.55
33.89,1.03,-0.51,1.03,-0.51,0.51,0.48,1.66,1.53,1.53,1.54
34.23,1.09,-0.45,1.09,-0.44,0.44,0.41,1.61,1.52,1.53,1.54
34.57,1.17,-0.36,1.16,-0.36,0.37,0.34,1.54,1.54,1.53,1.53
34.92,1.24,-0.29,1.23,-0.30,0.30,0.28,1.48,1.54,1.53,1.53
35.27,1.30,-0.23,1.29,-0.23,0.23,0.22,1.41,1.53,1.53,1.53
35.62,1.35,-0.18,1.35,-0.17,0.17,0.15,1.34,1.52,1.52,1.53
35.97,1.41,-0.11,1.41,-0.11,0.10,0.09,1.27,1.51,1.52,1.52
36.33,1.48,-0.04,1.48,-0.04,0.04,0.03,1.19,1.52,1.52,1.52
36.70,1.55,0.03,1.54,0.03,-0.02,-0.04,1.12,1.52,1.52,1.52
37.06,1.61,0.09,1.60,0.09,-0.08,-0.10,1.04,1.52,1.52,1.52
37.43,1.66,0.14,1.66,0.14,-0.15,-0.16,0.96,1.51,1.51,1.52
37.81,1.71,0.20,1.71,0.21,-0.21,-0.22,0.87,1.50,1.50,1.51
38.19,1.78,0.27,1.78,0.27,-0.27,-0.28,0.79,1.50,1.50,1.51
38.57,1.85,0.35,1.84,0.34,-0.34,-0.34,0.70,1.51,1.50,1.50
38.95,1.90,0.40,1.90,0.40,-0.40,-0.40,0.62,1.50,1.50,1.50
39.34,1.95,0.46,1.95,0.46,-0.47,-0.46,0.53,1.48,1.49,1.49
39.74,2.01,0.52,2.01,0.52,-0.53,-0.51,0.44,1.48,1.48,1.49
40.14,2.08,0.59,2.07,0.59,-0.60,-0.57,0.36,1.48,1.48,1.49
40.54,2.15,0.67,2.14,0.66,-0.66,-0.63,0.27,1.49,1.48,1.48
40.94,2.21,0.73,2.21,0.73,-0.72,-0.69,0.18,1.48,1.48,1.48
41.35,2.27,0.79,2.27,0.79,-0.79,-0.74,0.09,1.48,1.48,1.48
41.76,2.33,0.85,2.33,0.85,-0.85,-0.80,-0.00,1.48,1.48,1.48
42.18,2.39,0.90,2.39,0.91,-0.91,-0.86,-0.09,1.47,1.48,1.49
42.60,2.46,0.97,2.46,0.97,-0.97,-0.91,-0.18,1.48,1.48,1.49
43.03,2.53,1.04,2.52,1.04,-1.03,-0.97,-0.28,1.49,1.49,1.49
43.46,2.59,1.10,2.58,1.10,-1.09,-1.02,-0.37,1.50,1.49,1.49
43.90,2.64,1.15,2.64,1.15,-1.15,-1.08,-0.46,1.49,1.49,1.49
44.33,2.70,1.20,2.70,1.20,-1.21,-1.13,-0.55,1.49,1.49,1.50
44.78,2.76,1.26,2.75,1.26,-1.27,-1.18,-0.65,1.49,1.49,1.50
45.23,2.82,1.32,2.82,1.32,-1.32,-1.24,-0.74,1.49,1.49,1.50
45.68,2.88,1.38,2.88,1.38,-1.38,-1.29,-0.83,1.49,1.49,1.50
46.13,2.94,1.44,2.93,1.44,-1.44,-1.34,-0.93,1.50,1.50,1.50
46.60,2.99,1.50,2.99,1.50,-1.50,-1.40,-1.02,1.49,1.49,1.49
47.06,3.05,1.56,3.04,1.56,-1.55,-1.45,-1.11,1.49,1.49,1.49
47.53,3.10,1.61,3.10,1.61,-1.61,-1.50,-1.21,1.48,1.48,1.49
48.01,3.15,1.66,3.15,1.66,-1.67,-1.55,-1.30,1.48,1.48,1.49
48.49,3.20,1.72,3.20,1.72,-1.72,-1.61,-1.40,1.47,1.47,1.48
48.97,3.25,1.77,3.25,1.77,-1.78,-1.66,-1.49,1.47,1.47,1.48
49.46,3.31,1.83,3.31,1.83,-1.82,-1.71,-1.59,1.48,1.48,1.48
49.96,3.36,1.88,3.36,1.88,-1.87,-1.76,-1.68,1.49,1.49,1.48
50.46,3.42,1.93,3.41,1.92,-1.92,-1.81,-1.78,1.50,1.49,1.49
50.96,3.45,1.96,3.45,1.96,-1.96,-1.86,-1.87,1.49,1.49,1.49
51.47,3.48,1.99,3.48,1.99,-2.00,-1.91,-1.96,1.48,1.48,1.49
51.99,3.52,2.03,3.52,2.03,-2.04,-1.96,-2.06,1.47,1.48,1.49
52.51,3.57,2.07,3.57,2.07,-2.08,-2.01,-2.15,1.49,1.49,1.50
53.03,3.62,2.12,3.61,2.12,-2.12,-2.05,-2.24,1.50,1.50,1.50
53.56,3.66,2.16,3.66,2.16,-2.15,-2.10,-2.33,1.50,1.50,1.50
54.10,3.70,2.20,3.70,2.20,-2.19,-2.15,-2.41,1.50,1.50,1.50
54.64,3.74,2.24,3.73,2.23,-2.23,-2.20,-2.50,1.51,1.50,1.50
55.18,3.77,2.26,3.77,2.27,-2.27,-2.24,-2.58,1.50,1.50,1.51
55.74,3.81,2.30,3.81,2.30,-2.31,-2.29,-2.66,1.50,1.50,1.51
56.29,3.85,2.34,3.85,2.34,-2.34,-2.34,-2.74,1.50,1.50,1.51
56.86,3.90,2.38,3.89,2.38,-2.38,-2.38,-2.82,1.52,1.51,1.52
57.42,3.94,2.42,3.94,2.42,-2.42,-2.43,-2.89,1.52,1.52,1.52
58.00,3.98,2.46,3.98,2.46,-2.46,-2.47,-2.96,1.52,1.52,1.52
58.58,4.02,2.50,4.02,2.50,-2.49,-2.52,-3.02,1.52,1.52,1.52
59.16,4.06,2.53,4.06,2.53,-2.53,-2.56,-3.08,1.52,1.52,1.53
59.76,4.10,2.57,4.10,2.57,-2.57,-2.60,-3.14,1.52,1.52,1.53
60.35,4.14,2.61,4.14,2.61,-2.61,-2.65,-3.19,1.52,1.53,1.53
60.96,4.19,2.65,4.19,2.65,-2.66,-2.69,-3.24,1.53,1.53,1.54
61.57,4.24,2.70,4.23,2.70,-2.70,-2.73,-3.28,1.54,1.53,1.54
62.18,4.28,2.74,4.28,2.74,-2.74,-2.77,-3.32,1.53,1.54,1.54
62.80,4.33,2.79,4.32,2.79,-2.79,-2.81,-3.35,1.54,1.54,1.54
63.43,4.37,2.83,4.37,2.83,-2.83,-2.85,-3.38,1.53,1.53,1.54
64.07,4.41,2.87,4.41,2.87,-2.87,-2.89,-3.41,1.53,1.54,1.54
64.71,4.46,2.92,4.45,2.92,-2.92,-2.93,-3.43,1.54,1.54,1.54
65.35,4.50,2.96,4.50,2.96,-2.95,-2.97,-3.44,1.54,1.54,1.54
66.01,4.54,3.00,4.53,3.00,-2.99,-3.01,-3.45,1.54,1.54,1.54
66.67,4.57,3.03,4.57,3.03,-3.03,-3.04,-3.46,1.54,1.54,1.54
67.33,4.60,3.06,4.60,3.06,-3.06,-3.08,-3.47,1.53,1.53,1.54
68.01,4.63,3.09,4.63,3.09,-3.10,-3.12,-3.47,1.53,1.53,1.54
68.69,4.67,3.13,4.66,3.13,-3.14,-3.15,-3.46,1.53,1.53,1.54
69.37,4.70,3.16,4.70,3.16,-3.17,-3.19,-3.46,1.53,1.53,1.54
70.07,4.74,3.20,4.74,3.20,-3.20,-3.22,-3.45,1.54,1.54,1.54
70.77,4.78,3.24,4.78,3.24,-3.23,-3.25,-3.44,1.55,1.55,1.54
71.48,4.82,3.28,4.81,3.27,-3.26,-3.28,-3.43,1.56,1.55,1.54
72.19,4.84,3.29,4.84,3.30,-3.28,-3.32,-3.42,1.55,1.55,1.55
72.91,4.86,3.31,4.86,3.31,-3.31,-3.35,-3.41,1.55,1.55,1.55
73.64,4.88,3.33,4.88,3.33,-3.34,-3.38,-3.40,1.54,1.54,1.55
74.38,4.90,3.34,4.90,3.35,-3.36,-3.41,-3.38,1.53,1.54,1.56
75.12,4.94,3.38,4.94,3.38,-3.39,-3.44,-3.37,1.55,1.55,1.56
75.87,4.98,3.42,4.97,3.42,-3.42,-3.46,-3.36,1.56,1.55,1.56
76.63,5.02,3.45,5.02,3.45,-3.45,-3.49,-3.35,1.56,1.56,1.57
77.40,5.06,3.49,5.06,3.49,-3.48,-3.52,-3.34,1.57,1.57,1.57
78.17,5.10,3.52,5.10,3.52,-3.52,-3.54,-3.33,1.58,1.58,1.58
78.95,5.14,3.56,5.13,3.56,-3.55,-3.57,-3.32,1.58,1.58,1.58
79.74,5.17,3.59,5.17,3.59,-3.58,-3.59,-3.32,1.58,1.58,1.58
80.54,5.20,3.61,5.19,3.61,-3.61,-3.62,-3.31,1.58,1.58,1.59
81.35,5.22,3.63,5.22,3.63,-3.64,-3.64,-3.31,1.58,1.58,1.59
82.16,5.25,3.66,5.25,3.66,-3.66,-3.66,-3.31,1.59,1.58,1.59
82.98,5.27,3.68,5.27,3.68,-3.68,-3.68,-3.31,1.59,1.59,1.59
83.81,5.30,3.71,5.29,3.70,-3.70,-3.70,-3.32,1.60,1.59,1.59
84.65,5.31,3.72,5.31,3.72,-3.71,-3.73,-3.32,1.60,1.60,1.59
85.50,5.32,3.72,5.32,3.72,-3.72,-3.74,-3.33,1.59,1.59,1.60
86.35,5.33,3.73,5.33,3.73,-3.73,-3.76,-3.34,1.59,1.59,1.60
87.22,5.34,3.74,5.34,3.74,-3.74,-3.78,-3.36,1.59,1.59,1.60
88.09,5.36,3.76,5.35,3.76,-3.76,-3.80,-3.37,1.60,1.60,1.60
88.97,5.37,3.77,5.36,3.77,-3.77,-3.82,-3.39,1.60,1.60,1.60
89.86,5.38,3.78,5.38,3.78,-3.78,-3.83,-3.42,1.59,1.59,1.60
90.76,5.39,3.79,5.39,3.80,-3.80,-3.85,-3.44,1.58,1.59,1.60
91.66,5.42,3.82,5.42,3.82,-3.83,-3.87,-3.47,1.59,1.59,1.60
92.58,5.45,3.85,5.44,3.85,-3.85,-3.88,-3.50,1.59,1.59,1.60
93.51,5.48,3.88,5.48,3.88,-3.88,-3.90,-3.53,1.60,1.60,1.60
94.44,5.51,3.91,5.51,3.91,-3.91,-3.91,-3.57,1.60,1.60,1.60
95.39,5.54,3.94,5.54,3.94,-3.94,-3.92,-3.60,1.60,1.60,1.60
96.34,5.57,3.97,5.57,3.97,-3.97,-3.94,-3.64,1.60,1.60,1.60
97.30,5.60,3.99,5.60,3.99,-4.00,-3.95,-3.68,1.60,1.60,1.61
98.28,5.63,4.02,5.62,4.02,-4.02,-3.96,-3.73,1.60,1.60,1.61
99.26,5.65,4.04,5.65,4.04,-4.04,-3.97,-3.77,1.60,1.61,1.61
100.25,5.67,4.06,5.67,4.06,-4.06,-3.99,-3.82,1.61,1.61,1.61
101.25,5.68,4.07,5.68,4.07,-4.06,-4.00,-3.87,1.61,1.61,1.61
102.27,5.69,4.08,5.69,4.08,-4.07,-4.01,-3.92,1.62,1.62,1.61
103.29,5.69,4.08,5.68,4.07,-4.06,-4.02,-3.97,1.62,1.62,1.61
104.32,5.68,4.06,5.67,4.06,-4.05,-4.03,-4.02,1.62,1.62,1.62
105.37,5.66,4.04,5.66,4.04,-4.05,-4.04,-4.08,1.61,1.61,1.62
106.42,5.65,4.03,5.65,4.03,-4.04,-4.05,-4.13,1.61,1.61,1.62
107.48,5.64,4.01,5.64,4.02,-4.03,-4.06,-4.18,1.60,1.61,1.63
108.56,5.65,4.02,5.64,4.02,-4.03,-4.07,-4.23,1.62,1.61,1.63
109.64,5.66,4.03,5.66,4.03,-4.03,-4.07,-4.28,1.62,1.62,1.63
110.74,5.68,4.05,5.68,4.05,-4.05,-4.08,-4.33,1.63,1.63,1.63
111.85,5.70,4.06,5.70,4.07,-4.06,-4.09,-4.38,1.63,1.63,1.64
112.97,5.73,4.09,5.72,4.09,-4.09,-4.10,-4.43,1.64,1.64,1.64
114.10,5.75,4.11,5.75,4.11,-4.11,-4.11,-4.47,1.63,1.63,1.64
115.24,5.78,4.14,5.78,4.14,-4.14,-4.12,-4.51,1.63,1.64,1.64
116.39,5.81,4.17,5.81,4.17,-4.17,-4.12,-4.55,1.64,1.64,1.64
117.55,5.85,4.20,5.84,4.20,-4.20,-4.13,-4.59,1.65,1.65,1.65
118.73,5.88,4.23,5.88,4.23,-4.23,-4.14,-4.62,1.65,1.65,1.65
119.92,5.91,4.26,5.90,4.26,-4.25,-4.15,-4.64,1.65,1.65,1.65
121.12,5.93,4.27,5.93,4.28,-4.28,-4.15,-4.66,1.65,1.65,1.66
122.33,5.96,4.30,5.95,4.30,-4.30,-4.16,-4.68,1.66,1.66,1.66
123.55,5.98,4.31,5.98,4.31,-4.31,-4.17,-4.69,1.66,1.66,1.67
124.79,6.00,4.33,6.00,4.33,-4.32,-4.17,-4.70,1.67,1.67,1.67
126.03,6.01,4.34,6.01,4.34,-4.33,-4.18,-4.70,1.68,1.68,1.67
127.29,6.02,4.34,6.01,4.34,-4.33,-4.19,-4.70,1.68,1.68,1.68
128.57,6.02,4.34,6.01,4.34,-4.33,-4.19,-4.69,1.69,1.68,1.68
129.85,6.01,4.32,6.01,4.32,-4.33,-4.20,-4.68,1.68,1.68,1.69
131.15,6.00,4.31,6.00,4.31,-4.32,-4.21,-4.67,1.68,1.68,1.69
132.46,5.99,4.30,5.99,4.30,-4.31,-4.21,-4.65,1.67,1.68,1.69
133.79,5.99,4.30,5.99,4.30,-4.30,-4.22,-4.62,1.68,1.68,1.69
135.12,5.99,4.30,5.99,4.30,-4.30,-4.22,-4.59,1.69,1.69,1.69
136.48,5.99,4.30,5.99,4.30,-4.30,-4.23,-4.56,1.69,1.69,1.69
137.84,5.99,4.29,5.99,4.29,-4.29,-4.24,-4.53,1.69,1.69,1.70
139.22,5.99,4.29,5.99,4.29,-4.29,-4.24,-4.49,1.69,1.69,1.70
140.61,5.99,4.29,5.99,4.29,-4.29,-4.25,-4.45,1.70,1.70,1.70
142.02,5.99,4.29,5.99,4.29,-4.29,-4.25,-4.41,1.70,1.70,1.70
143.44,5.99,4.29,5.99,4.29,-4.29,-4.26,-4.37,1.70,1.70,1.70
144.87,5.99,4.28,5.99,4.28,-4.28,-4.26,-4.33,1.70,1.70,1.71
146.32,5.99,4.28,5.99,4.28,-4.28,-4.27,-4.29,1.71,1.71,1.71
147.78,5.99,4.28,5.99,4.28,-4.28,-4.27,-4.24,1.71,1.71,1.71
149.26,5.99,4.27,5.99,4.27,-4.27,-4.28,-4.20,1.71,1.71,1.72
150.75,5.99,4.27,5.99,4.27,-4.27,-4.28,-4.16,1.72,1.72,1.72
152.26,5.99,4.27,5.99,4.27,-4.27,-4.29,-4.12,1.72,1.72,1.72
153.78,5.99,4.26,5.99,4.26,-4.26,-4.29,-4.08,1.72,1.72,1.73
155.32,5.99,4.26,5.99,4.26,-4.26,-4.29,-4.04,1.73,1.73,1.73
156.88,5.99,4.26,5.99,4.26,-4.26,-4.30,-4.00,1.73,1.73,1.73
158.44,5.99,4.25,5.99,4.25,-4.26,-4.30,-3.96,1.73,1.73,1.74
160.03,5.99,4.25,5.99,4.25,-4.25,-4.30,-3.93,1.73,1.73,1.74
161.63,5.99,4.25,5.99,4.25,-4.25,-4.30,-3.90,1.74,1.74,1.74
163.24,5.99,4.25,5.99,4.25,-4.25,-4.31,-3.87,1.74,1.74,1.74
164.88,5.99,4.25,5.99,4.25,-4.25,-4.31,-3.84,1.74,1.74,1.74
166.53,5.99,4.24,5.99,4.24,-4.24,-4.31,-3.82,1.74,1.74,1.75
168.19,5.99,4.24,5.99,4.24,-4.24,-4.31,-3.79,1.75,1.75,1.75
169.87,5.99,4.24,5.99,4.24,-4.24,-4.31,-3.77,1.75,1.75,1.75
171.57,5.99,4.23,5.99,4.23,-4.23,-4.31,-3.76,1.75,1.75,1.76
173.29,5.99,4.23,5.99,4.23,-4.23,-4.31,-3.74,1.76,1.76,1.76
175.02,5.99,4.23,5.99,4.23,-4.23,-4.31,-3.73,1.76,1.76,1.76
176.77,5.99,4.23,5.99,4.23,-4.23,-4.31,-3.73,1.76,1.76,1.76
178.54,5.99,4.22,5.99,4.22,-4.22,-4.31,-3.72,1.76,1.76,1.77
180.32,5.99,4.22,5.99,4.22,-4.22,-4.30,-3.72,1.76,1.76,1.77
182.13,5.99,4.22,5.99,4.22,-4.22,-4.30,-3.72,1.76,1.76,1.77
183.95,5.99,4.22,5.99,4.22,-4.23,-4.30,-3.72,1.76,1.76,1.77
185.79,5.99,4.23,5.99,4.23,-4.23,-4.29,-3.73,1.76,1.76,1.76
187.65,5.99,4.23,5.99,4.23,-4.23,-4.29,-3.74,1.76,1.76,1.76
189.52,5.99,4.23,5.99,4.23,-4.23,-4.28,-3.75,1.76,1.76,1.76
191.42,5.99,4.23,5.99,4.23,-4.22,-4.28,-3.77,1.76,1.76,1.76
193.33,5.99,4.22,5.99,4.22,-4.22,-4.27,-3.78,1.76,1.76,1.77
195.27,5.99,4.22,5.99,4.22,-4.22,-4.26,-3.80,1.76,1.76,1.77
197.22,5.99,4.22,5.99,4.22,-4.22,-4.26,-3.82,1.76,1.76,1.77
199.19,5.99,4.22,5.99,4.22,-4.23,-4.25,-3.85,1.76,1.76,1.77
201.18,6.00,4.22,5.99,4.22,-4.23,-4.24,-3.87,1.77,1.77,1.78
203.19,6.00,4.22,6.00,4.22,-4.23,-4.23,-3.90,1.77,1.77,1.78
205.23,6.01,4.23,6.01,4.23,-4.23,-4.22,-3.92,1.78,1.78,1.78
207.28,6.02,4.23,6.01,4.23,-4.22,-4.21,-3.95,1.79,1.79,1.79
209.35,6.01,4.22,6.01,4.22,-4.22,-4.19,-3.98,1.79,1.79,1.79
211.44,6.00,4.21,6.00,4.21,-4.21,-4.18,-4.01,1.79,1.79,1.79
213.56,5.99,4.19,5.98,4.19,-4.19,-4.17,-4.04,1.80,1.79,1.80
215.69,5.97,4.17,5.97,4.17,-4.17,-4.15,-4.07,1.80,1.80,1.80
217.85,5.95,4.15,5.94,4.15,-4.15,-4.14,-4.10,1.80,1.80,1.80
220.03,5.92,4.12,5.92,4.12,-4.12,-4.12,-4.13,1.80,1.80,1.80
222.23,5.89,4.08,5.89,4.08,-4.09,-4.10,-4.16,1.80,1.80,1.81
224.45,5.86,4.05,5.86,4.05,-4.05,-4.09,-4.18,1.80,1.80,1.81
226.70,5.83,4.02,5.83,4.02,-4.02,-4.07,-4.21,1.81,1.81,1.81
228.96,5.80,3.99,5.80,3.99,-3.98,-4.05,-4.23,1.81,1.81,1.81
231.25,5.77,3.95,5.76,3.95,-3.95,-4.03,-4.25,1.81,1.81,1.82
233.57,5.74,3.92,5.74,3.92,-3.92,-4.01,-4.26,1.82,1.82,1.82
235.90,5.71,3.88,5.71,3.89,-3.89,-3.99,-4.28,1.81,1.82,1.83
238.26,5.70,3.87,5.69,3.86,-3.87,-3.97,-4.28,1.83,1.82,1.83
240.64,5.68,3.84,5.68,3.84,-3.85,-3.94,-4.29,1.83,1.83,1.84
243.05,5.67,3.82,5.67,3.83,-3.83,-3.92,-4.29,1.84,1.84,1.85
245.48,5.67,3.82,5.66,3.81,-3.81,-3.90,-4.28,1.85,1.85,1.85
247.93,5.66,3.80,5.66,3.80,-3.80,-3.87,-4.28,1.86,1.86,1.86
250.41,5.65,3.78,5.65,3.79,-3.78,-3.84,-4.26,1.86,1.87,1.87
252.92,5.65,3.77,5.64,3.77,-3.76,-3.82,-4.24,1.88,1.88,1.88
255.45,5.63,3.75,5.63,3.75,-3.74,-3.79,-4.22,1.89,1.89,1.88
258.00,5.61,3.72,5.61,3.72,-3.71,-3.76,-4.19,1.89,1.89,1.89
260.58,5.58,3.69,5.58,3.69,-3.68,-3.74,-4.16,1.89,1.89,1.89
263.19,5.55,3.65,5.55,3.65,-3.65,-3.71,-4.12,1.89,1.89,1.90
265.82,5.52,3.62,5.52,3.62,-3.62,-3.68,-4.08,1.90,1.89,1.90
268.48,5.49,3.58,5.49,3.58,-3.59,-3.65,-4.04,1.90,1.90,1.91
271.16,5.46,3.55,5.46,3.55,-3.56,-3.62,-3.99,1.90,1.90,1.91
273.87,5.44,3.53,5.43,3.52,-3.53,-3.58,-3.94,1.91,1.90,1.91
276.61,5.41,3.49,5.41,3.50,-3.50,-3.55,-3.88,1.91,1.91,1.92
279.38,5.40,3.48,5.39,3.48,-3.48,-3.52,-3.82,1.92,1.92,1.92
282.17,5.38,3.46,5.37,3.45,-3.45,-3.49,-3.77,1.92,1.92,1.92
284.99,5.36,3.43,5.36,3.43,-3.43,-3.45,-3.70,1.92,1.92,1.93
287.84,5.34,3.41,5.34,3.41,-3.41,-3.42,-3.64,1.92,1.92,1.93
290.72,5.32,3.39,5.32,3.39,-3.39,-3.39,-3.58,1.92,1.92,1.93
293.63,5.30,3.37,5.30,3.37,-3.37,-3.35,-3.51,1.93,1.93,1.93
296.57,5.28,3.35,5.28,3.35,-3.35,-3.32,-3.45,1.93,1.93,1.93
299.53,5.26,3.33,5.26,3.33,-3.32,-3.28,-3.38,1.93,1.93,1.93
302.53,5.24,3.30,5.23,3.30,-3.30,-3.25,-3.32,1.94,1.93,1.94
305.55,5.21,3.27,5.21,3.27,-3.27,-3.21,-3.25,1.93,1.94,1.94
308.61,5.19,3.24,5.19,3.24,-3.24,-3.17,-3.19,1.94,1.94,1.95
311.69,5.17,3.22,5.16,3.22,-3.21,-3.14,-3.12,1.95,1.95,1.95
314.81,5.14,3.18,5.14,3.18,-3.18,-3.10,-3.06,1.96,1.96,1.96
317.96,5.11,3.15,5.10,3.15,-3.14,-3.06,-3.00,1.96,1.96,1.96
321.14,5.07,3.10,5.07,3.11,-3.10,-3.02,-2.94,1.96,1.97,1.97
324.35,5.04,3.07,5.03,3.07,-3.07,-2.99,-2.88,1.97,1.97,1.97
327.59,5.00,3.03,4.99,3.03,-3.03,-2.95,-2.82,1.97,1.96,1.97
330.87,4.96,2.98,4.96,2.99,-2.99,-2.91,-2.77,1.96,1.97,1.98
334.18,4.93,2.95,4.93,2.95,-2.96,-2.87,-2.71,1.97,1.97,1.98
337.52,4.91,2.92,4.91,2.92,-2.93,-2.83,-2.66,1.98,1.98,1.99
340.90,4.89,2.89,4.88,2.89,-2.89,-2.79,-2.61,2.00,1.99,2.00
344.30,4.86,2.86,4.86,2.86,-2.85,-2.75,-2.56,2.00,2.00,2.00
347.75,4.83,2.83,4.83,2.83,-2.82,-2.71,-2.51,2.01,2.01,2.00
351.23,4.79,2.79,4.79,2.79,-2.78,-2.67,-2.47,2.01,2.01,2.00
354.74,4.75,2.74,4.74,2.74,-2.73,-2.64,-2.42,2.01,2.01,2.01
358.28,4.70,2.69,4.70,2.69,-2.69,-2.60,-2.38,2.01,2.01,2.01
361.87,4.65,2.64,4.65,2.64,-2.65,-2.56,-2.34,2.00,2.00,2.01
365.49,4.61,2.60,4.60,2.60,-2.60,-2.52,-2.31,2.00,2.00,2.01
369.14,4.56,2.55,4.56,2.55,-2.57,-2.48,-2.27,1.99,1.99,2.01
372.83,4.53,2.52,4.53,2.52,-2.53,-2.44,-2.24,2.00,2.00,2.01
376.56,4.50,2.48,4.50,2.49,-2.50,-2.40,-2.20,2.00,2.00,2.02
380.33,4.49,2.47,4.48,2.47,-2.47,-2.36,-2.17,2.02,2.02,2.02
384.13,4.47,2.45,4.46,2.45,-2.44,-2.32,-2.14,2.03,2.03,2.02
387.97,4.45,2.43,4.44,2.42,-2.41,-2.28,-2.12,2.04,2.04,2.02
391.85,4.41,2.38,4.41,2.39,-2.37,-2.24,-2.09,2.03,2.04,2.03
395.77,4.38,2.35,4.37,2.35,-2.34,-2.20,-2.07,2.03,2.03,2.03
399.73,4.34,2.30,4.34,2.30,-2.31,-2.16,-2.04,2.02,2.02,2.04
403.72,4.31,2.27,4.31,2.27,-2.28,-2.12,-2.02,2.02,2.02,2.04
407.76,4.28,2.23,4.28,2.23,-2.25,-2.08,-2.00,2.03,2.03,2.05
411.84,4.26,2.21,4.26,2.21,-2.22,-2.04,-1.98,2.04,2.04,2.05
415.96,4.25,2.19,4.24,2.19,-2.18,-2.00,-1.96,2.06,2.06,2.06
420.12,4.23,2.17,4.22,2.17,-2.15,-1.96,-1.94,2.07,2.07,2.06
424.32,4.20,2.14,4.19,2.13,-2.12,-1.92,-1.92,2.08,2.08,2.06
428.56,4.15,2.08,4.15,2.09,-2.08,-1.88,-1.91,2.06,2.07,2.07
432.85,4.11,2.04,4.10,2.04,-2.04,-1.84,-1.89,2.06,2.06,2.07
437.18,4.06,1.99,4.06,1.99,-2.00,-1.80,-1.87,2.05,2.06,2.07
441.55,4.02,1.95,4.02,1.96,-1.96,-1.76,-1.85,2.06,2.06,2.07
445.96,3.99,1.92,3.98,1.92,-1.92,-1.72,-1.84,2.07,2.06,2.07
450.42,3.95,1.88,3.94,1.88,-1.87,-1.68,-1.82,2.07,2.07,2.07
454.93,3.90,1.83,3.90,1.83,-1.83,-1.64,-1.80,2.06,2.07,2.07
459.48,3.86,1.79,3.86,1.79,-1.79,-1.61,-1.78,2.06,2.06,2.07
464.07,3.82,1.75,3.82,1.75,-1.75,-1.57,-1.76,2.06,2.06,2.07
468.71,3.78,1.71,3.78,1.71,-1.71,-1.53,-1.73,2.07,2.07,2.07
473.40,3.74,1.67,3.74,1.67,-1.66,-1.49,-1.71,2.07,2.07,2.07
478.13,3.70,1.62,3.69,1.62,-1.61,-1.45,-1.69,2.08,2.08,2.08
482.91,3.65,1.57,3.65,1.57,-1.57,-1.41,-1.66,2.08,2.08,2.08
487.74,3.60,1.52,3.60,1.52,-1.52,-1.37,-1.63,2.08,2.08,2.08
492.62,3.55,1.47,3.54,1.47,-1.47,-1.33,-1.60,2.07,2.07,2.08
497.55,3.50,1.41,3.50,1.41,-1.43,-1.29,-1.57,2.07,2.07,2.09
502.52,3.45,1.36,3.45,1.37,-1.38,-1.26,-1.54,2.07,2.08,2.09
507.55,3.42,1.33,3.42,1.33,-1.33,-1.22,-1.50,2.09,2.09,2.09
512.62,3.39,1.30,3.38,1.29,-1.28,-1.18,-1.46,2.11,2.10,2.09
517.75,3.34,1.24,3.34,1.24,-1.23,-1.14,-1.42,2.10,2.11,2.10
522.93,3.29,1.19,3.28,1.19,-1.18,-1.10,-1.38,2.10,2.10,2.10
528.16,3.23,1.13,3.23,1.13,-1.14,-1.06,-1.34,2.09,2.09,2.10
533.44,3.18,1.08,3.18,1.08,-1.09,-1.02,-1.30,2.09,2.09,2.10
538.77,3.13,1.02,3.13,1.03,-1.04,-0.99,-1.25,2.09,2.09,2.11
544.16,3.09,0.98,3.09,0.98,-0.98,-0.95,-1.20,2.10,2.10,2.11
549.60,3.05,0.94,3.04,0.94,-0.93,-0.91,-1.15,2.11,2.11,2.11
555.10,3.00,0.89,3.00,0.89,-0.88,-0.87,-1.10,2.12,2.12,2.11
560.65,2.95,0.84,2.94,0.84,-0.83,-0.83,-1.05,2.12,2.11,2.11
566.25,2.89,0.78,2.89,0.78,-0.78,-0.79,-0.99,2.11,2.11,2.11
571.92,2.83,0.71,2.83,0.72,-0.73,-0.75,-0.94,2.10,2.10,2.12
577.64,2.78,0.66,2.78,0.66,-0.67,-0.71,-0.88,2.10,2.11,2.12
583.41,2.74,0.62,2.74,0.62,-0.62,-0.67,-0.82,2.12,2.12,2.12
589.25,2.70,0.57,2.69,0.57,-0.56,-0.63,-0.77,2.13,2.13,2.13
595.14,2.65,0.52,2.64,0.52,-0.51,-0.59,-0.71,2.13,2.13,2.13
601.09,2.59,0.46,2.59,0.46,-0.46,-0.55,-0.65,2.12,2.13,2.13
607.10,2.54,0.41,2.54,0.41,-0.41,-0.51,-0.59,2.13,2.12,2.13
613.17,2.49,0.35,2.49,0.35,-0.36,-0.47,-0.52,2.13,2.13,2.14
619.30,2.44,0.30,2.44,0.31,-0.31,-0.43,-0.46,2.13,2.13,2.14
625.50,2.40,0.26,2.39,0.26,-0.25,-0.39,-0.40,2.14,2.14,2.14
631.75,2.35,0.21,2.34,0.20,-0.20,-0.35,-0.34,2.15,2.15,2.14
638.07,2.29,0.14,2.29,0.15,-0.14,-0.31,-0.27,2.14,2.15,2.15
644.45,2.23,0.08,2.23,0.09,-0.09,-0.27,-0.21,2.14,2.14,2.15
650.89,2.18,0.03,2.18,0.03,-0.03,-0.23,-0.15,2.15,2.14,2.15
657.40,2.13,-0.03,2.12,-0.03,0.03,-0.18,-0.08,2.15,2.15,2.16
663.98,2.07,-0.09,2.07,-0.09,0.08,-0.14,-0.02,2.15,2.15,2.16
670.62,2.02,-0.14,2.01,-0.14,0.14,-0.10,0.05,2.16,2.16,2.16
677.32,1.96,-0.20,1.96,-0.20,0.20,-0.05,0.11,2.16,2.16,2.16
684.10,1.90,-0.26,1.90,-0.26,0.26,-0.01,0.18,2.16,2.16,2.16
690.94,1.85,-0.31,1.84,-0.32,0.32,0.03,0.24,2.16,2.16,2.16
697.85,1.79,-0.38,1.78,-0.38,0.38,0.08,0.31,2.16,2.16,2.17
704.83,1.73,-0.44,1.73,-0.44,0.44,0.12,0.38,2.16,2.16,2.17
711.87,1.67,-0.50,1.67,-0.50,0.49,0.17,0.44,2.16,2.16,2.17
718.99,1.62,-0.55,1.61,-0.55,0.55,0.22,0.51,2.17,2.16,2.17
726.18,1.56,-0.61,1.56,-0.61,0.61,0.26,0.58,2.17,2.17,2.17
733.44,1.50,-0.67,1.50,-0.67,0.67,0.31,0.65,2.16,2.17,2.17
740.78,1.45,-0.72,1.45,-0.72,0.73,0.36,0.72,2.17,2.17,2.17
748.19,1.40,-0.78,1.39,-0.78,0.78,0.41,0.78,2.18,2.18,2.18
755.67,1.34,-0.84,1.34,-0.84,0.84,0.46,0.85,2.18,2.18,2.18
763.23,1.29,-0.89,1.28,-0.89,0.89,0.51,0.92,2.18,2.18,2.18
770.86,1.23,-0.95,1.22,-0.95,0.95,0.56,0.99,2.17,2.17,2.18
778.57,1.17,-1.01,1.17,-1.01,1.00,0.61,1.06,2.16,2.17,2.18
786.35,1.12,-1.06,1.12,-1.06,1.05,0.66,1.13,2.16,2.17,2.18
794.22,1.08,-1.10,1.08,-1.10,1.10,0.71,1.20,2.17,2.17,2.18
802.16,1.04,-1.13,1.04,-1.13,1.14,0.76,1.27,2.18,2.18,2.17
810.18,1.00,-1.17,0.99,-1.18,1.19,0.82,1.34,2.18,2.18,2.17
818.28,0.94,-1.23,0.94,-1.23,1.23,0.87,1.41,2.16,2.16,2.17
826.46,0.89,-1.28,0.89,-1.27,1.27,0.93,1.48,2.15,2.15,2.17
834.73,0.84,-1.32,0.84,-1.31,1.30,0.99,1.55,2.14,2.15,2.16
843.08,0.81,-1.34,0.80,-1.35,1.34,1.04,1.61,2.15,2.15,2.15
851.51,0.77,-1.38,0.76,-1.38,1.38,1.10,1.68,2.15,2.15,2.15
860.02,0.72,-1.42,0.71,-1.42,1.43,1.16,1.75,2.14,2.14,2.14
868.62,0.66,-1.46,0.66,-1.46,1.47,1.22,1.81,2.13,2.13,2.12
877.31,0.60,-1.51,0.60,-1.51,1.52,1.28,1.87,2.11,2.11,2.11
886.08,0.54,-1.56,0.54,-1.56,1.56,1.34,1.94,2.10,2.10,2.10
894.94,0.49,-1.61,0.49,-1.62,1.61,1.40,1.99,2.10,2.10,2.10
903.89,0.45,-1.69,0.45,-1.67,1.67,1.46,2.05,2.11,2.11,2.14
912.93,0.41,-1.72,0.40,-1.73,1.73,1.53,2.11,2.13,2.13,2.13
922.06,0.36,-1.77,0.36,-1.79,1.78,1.59,2.16,2.14,2.14,2.13
931.28,0.31,-1.86,0.31,-1.83,1.84,1.65,2.21,2.15,2.15,2.17
940.59,0.26,-1.88,0.25,-1.89,1.90,1.71,2.25,2.15,2.15,2.14
950.00,0.21,-1.93,0.21,-1.95,1.95,1.78,2.30,2.15,2.15,2.14
959.50,0.16,-2.01,0.16,-2.01,2.00,1.84,2.34,2.15,2.16,2.17
969.09,0.13,-2.08,0.12,-2.06,2.04,1.91,2.37,2.17,2.17,2.21
978.78,0.09,-2.10,0.08,-2.10,2.09,1.97,2.41,2.18,2.17,2.19
988.57,0.05,-2.11,0.05,-2.13,2.13,2.03,2.43,2.18,2.18,2.16
998.46,0.01,-2.17,0.00,-2.17,2.18,2.09,2.46,2.18,2.18,2.18
1008.44,-0.03,-2.22,-0.03,-2.21,2.22,2.16,2.48,2.18,2.19,2.19
1018.53,-0.06,-2.26,-0.06,-2.26,2.26,2.22,2.50,2.20,2.20,2.20
1028.71,-0.08,-2.29,-0.08,-2.29,2.30,2.28,2.51,2.22,2.22,2.21
1039.00,-0.10,-2.34,-0.11,-2.34,2.35,2.33,2.52,2.25,2.24,2.24
1049.39,-0.12,-2.39,-0.13,-2.39,2.40,2.39,2.53,2.27,2.27,2.27
1059.88,-0.15,-2.46,-0.15,-2.44,2.44,2.44,2.54,2.29,2.29,2.31
1070.48,-0.17,-2.48,-0.17,-2.49,2.48,2.49,2.54,2.31,2.31,2.31
1081.19,-0.18,-2.51,-0.19,-2.53,2.52,2.54,2.54,2.33,2.33,2.33
1092.00,-0.19,-2.58,-0.19,-2.55,2.55,2.59,2.53,2.35,2.35,2.39
1102.92,-0.19,-2.56,-0.19,-2.58,2.57,2.63,2.53,2.37,2.37,2.37
1113.95,-0.19,-2.58,-0.19,-2.59,2.58,2.66,2.52,2.39,2.39,2.39
1125.09,-0.19,-2.62,-0.19,-2.60,2.59,2.70,2.51,2.40,2.40,2.43
1136.34,-0.19,-2.60,-0.19,-2.61,2.61,2.72,2.50,2.41,2.41,2.41
1147.70,-0.19,-2.60,-0.20,-2.61,2.62,2.74,2.49,2.42,2.42,2.41
1159.18,-0.19,-2.61,-0.19,-2.60,2.63,2.76,2.47,2.44,2.44,2.42
1170.77,-0.18,-2.62,-0.18,-2.62,2.64,2.77,2.46,2.46,2.46,2.44
1182.48,-0.16,-2.64,-0.17,-2.65,2.65,2.78,2.44,2.49,2.48,2.48
1194.30,-0.14,-2.68,-0.15,-2.68,2.66,2.77,2.43,2.51,2.51,2.54
1206.25,-0.12,-2.71,-0.12,-2.69,2.66,2.77,2.42,2.54,2.54,2.59
1218.31,-0.09,-2.68,-0.09,-2.69,2.67,2.75,2.40,2.57,2.57,2.59
1230.49,-0.06,-2.66,-0.06,-2.68,2.67,2.73,2.39,2.61,2.61,2.60
1242.80,-0.03,-2.69,-0.03,-2.66,2.68,2.71,2.38,2.64,2.64,2.66
1255.22,-0.00,-2.65,-0.00,-2.66,2.68,2.69,2.37,2.68,2.68,2.65
1267.78,0.03,-2.65,0.02,-2.67,2.68,2.67,2.36,2.71,2.71,2.68
1280.45,0.05,-2.70,0.05,-2.67,2.69,2.64,2.35,2.74,2.74,2.75
1293.26,0.07,-2.68,0.07,-2.70,2.70,2.63,2.34,2.76,2.76,2.75
1306.19,0.09,-2.71,0.09,-2.72,2.71,2.62,2.33,2.79,2.80,2.80
1319.25,0.12,-2.76,0.12,-2.73,2.72,2.61,2.33,2.83,2.83,2.88
1332.45,0.15,-2.74,0.15,-2.74,2.72,2.62,2.32,2.87,2.87,2.89
1345.77,0.18,-2.73,0.18,-2.74,2.73,2.63,2.32,2.91,2.91,2.91
1359.23,0.21,-2.72,0.20,-2.72,2.73,2.66,2.32,2.94,2.94,2.93
1372.82,0.23,-2.73,0.23,-2.73,2.74,2.69,2.33,2.96,2.96,2.96
1386.55,0.25,-2.73,0.25,-2.73,2.74,2.72,2.33,2.98,2.98,2.98
1400.41,0.27,-2.74,0.27,-2.74,2.74,2.76,2.34,3.01,3.01,3.01
1414.42,0.30,-2.74,0.29,-2.74,2.74,2.80,2.34,3.04,3.04,3.04
1428.56,0.32,-2.75,0.32,-2.75,2.75,2.84,2.35,3.07,3.07,3.07
1442.85,0.34,-2.77,0.34,-2.77,2.77,2.87,2.36,3.10,3.11,3.11
1457.28,0.37,-2.79,0.37,-2.79,2.78,2.91,2.38,3.15,3.15,3.16
1471.85,0.40,-2.80,0.40,-2.80,2.80,2.94,2.39,3.20,3.20,3.20
1486.57,0.43,-2.82,0.43,-2.82,2.82,2.97,2.41,3.25,3.25,3.25
1501.43,0.46,-2.84,0.46,-2.84,2.84,2.99,2.43,3.30,3.30,3.30
1516.45,0.49,-2.86,0.48,-2.86,2.87,3.01,2.45,3.35,3.35,3.35
1531.61,0.52,-2.89,0.51,-2.89,2.89,3.03,2.47,3.41,3.40,3.41
1546.93,0.54,-2.92,0.54,-2.91,2.91,3.04,2.50,3.45,3.46,3.46
1562.40,0.58,-2.93,0.57,-2.94,2.94,3.06,2.52,3.52,3.51,3.51
1578.02,0.61,-2.96,0.60,-2.96,2.96,3.06,2.55,3.57,3.56,3.57
1593.80,0.64,-2.98,0.64,-2.98,2.98,3.07,2.58,3.62,3.62,3.62
1609.74,0.67,-3.01,0.67,-3.01,3.00,3.07,2.61,3.66,3.67,3.68
1625.84,0.72,-3.02,0.72,-3.02,3.01,3.08,2.64,3.72,3.72,3.74
1642.10,0.77,-3.02,0.77,-3.02,3.01,3.07,2.67,3.78,3.78,3.79
1658.52,0.84,-3.01,0.83,-3.02,3.01,3.07,2.70,3.85,3.84,3.85
1675.10,0.89,-3.02,0.89,-3.01,3.01,3.07,2.73,3.90,3.90,3.91
1691.85,0.96,-3.00,0.96,-3.00,3.00,3.06,2.76,3.96,3.96,3.96
1708.77,1.03,-2.99,1.02,-2.99,3.00,3.05,2.79,4.02,4.02,4.02
1725.86,1.10,-2.98,1.09,-2.98,2.99,3.04,2.82,4.08,4.08,4.08
1743.12,1.16,-2.97,1.16,-2.97,2.98,3.03,2.85,4.13,4.14,4.13
1760.55,1.22,-2.97,1.22,-2.97,2.97,3.01,2.87,4.19,4.19,4.19
1778.15,1.29,-2.96,1.28,-2.96,2.96,2.99,2.90,4.25,4.24,4.25
1795.94,1.35,-2.96,1.35,-2.96,2.95,2.97,2.92,4.30,4.30,4.31
1813.90,1.42,-2.95,1.42,-2.95,2.95,2.95,2.94,4.36,4.36,4.37
1832.03,1.50,-2.93,1.49,-2.93,2.93,2.93,2.96,4.43,4.43,4.43
1850.36,1.57,-2.92,1.57,-2.92,2.92,2.90,2.97,4.49,4.49,4.49
1868.86,1.65,-2.90,1.64,-2.90,2.90,2.87,2.99,4.55,4.54,4.55
1887.55,1.73,-2.88,1.72,-2.88,2.87,2.83,2.99,4.60,4.60,4.61
1906.42,1.81,-2.86,1.81,-2.85,2.85,2.79,3.00,4.65,4.66,4.67
1925.49,1.91,-2.81,1.91,-2.81,2.81,2.76,3.00,4.72,4.72,4.72
1944.74,2.01,-2.77,2.00,-2.77,2.78,2.71,2.99,4.78,4.78,4.78
1964.19,2.11,-2.73,2.10,-2.73,2.74,2.67,2.98,4.84,4.84,4.84
1983.83,2.21,-2.69,2.21,-2.69,2.69,2.62,2.96,4.90,4.90,4.90
2003.67,2.31,-2.64,2.31,-2.64,2.63,2.57,2.94,4.94,4.95,4.95
2023.71,2.43,-2.58,2.42,-2.59,2.57,2.52,2.92,5.00,4.99,5.01
2043.94,2.53,-2.54,2.53,-2.53,2.51,2.46,2.89,5.04,5.04,5.07
2064.38,2.63,-2.48,2.63,-2.46,2.45,2.41,2.85,5.08,5.08,5.11
2085.03,2.74,-2.36,2.73,-2.38,2.39,2.35,2.81,5.12,5.12,5.10
2105.88,2.84,-2.29,2.84,-2.29,2.33,2.29,2.76,5.16,5.17,5.13
2126.94,2.95,-2.23,2.94,-2.23,2.26,2.23,2.71,5.21,5.20,5.18
2148.20,3.05,-2.19,3.04,-2.19,2.20,2.17,2.66,5.24,5.24,5.24
2169.69,3.14,-2.15,3.14,-2.15,2.13,2.11,2.60,5.27,5.27,5.29
2191.38,3.24,-2.10,3.24,-2.10,2.07,2.05,2.54,5.31,5.31,5.34
2213.30,3.35,-2.04,3.34,-2.02,2.01,1.99,2.47,5.35,5.35,5.39
2235.43,3.45,-1.93,3.45,-1.94,1.94,1.93,2.40,5.39,5.39,5.38
2257.78,3.55,-1.84,3.54,-1.86,1.87,1.87,2.33,5.42,5.41,5.39
2280.36,3.64,-1.80,3.64,-1.80,1.80,1.81,2.26,5.43,5.44,5.44
2303.17,3.74,-1.75,3.74,-1.72,1.72,1.75,2.18,5.46,5.47,5.49
2326.20,3.85,-1.65,3.84,-1.65,1.65,1.68,2.10,5.50,5.49,5.50
2349.46,3.95,-1.54,3.94,-1.57,1.58,1.62,2.02,5.52,5.52,5.49
2372.95,4.04,-1.50,4.04,-1.50,1.51,1.56,1.93,5.54,5.55,5.54
2396.68,4.13,-1.46,4.13,-1.44,1.44,1.51,1.85,5.56,5.57,5.59
2420.65,4.23,-1.40,4.22,-1.38,1.37,1.45,1.76,5.60,5.59,5.63
2444.86,4.32,-1.29,4.32,-1.31,1.30,1.39,1.67,5.62,5.62,5.61
2469.31,4.41,-1.23,4.41,-1.23,1.24,1.33,1.59,5.64,5.64,5.64
2494.00,4.50,-1.18,4.49,-1.16,1.17,1.27,1.50,5.67,5.66,5.68
2518.94,4.58,-1.08,4.57,-1.11,1.11,1.22,1.41,5.68,5.68,5.66
2544.13,4.65,-1.05,4.65,-1.05,1.05,1.16,1.32,5.69,5.69,5.70
2569.57,4.72,-1.01,4.71,-0.99,0.99,1.11,1.23,5.70,5.70,5.73
2595.27,4.78,-0.93,4.78,-0.93,0.93,1.05,1.14,5.71,5.71,5.71
2621.22,4.83,-0.86,4.83,-0.88,0.88,1.00,1.05,5.71,5.71,5.69
2647.43,4.88,-0.82,4.87,-0.83,0.84,0.94,0.96,5.71,5.71,5.70
2673.90,4.91,-0.83,4.91,-0.80,0.80,0.89,0.87,5.70,5.71,5.74
2700.64,4.95,-0.77,4.95,-0.76,0.76,0.83,0.78,5.71,5.71,5.72
2727.65,4.98,-0.71,4.98,-0.72,0.73,0.78,0.69,5.70,5.70,5.69
2754.93,5.01,-0.66,5.00,-0.68,0.70,0.73,0.60,5.70,5.70,5.67
2782.48,5.02,-0.68,5.02,-0.66,0.67,0.67,0.51,5.68,5.68,5.70
2810.30,5.03,-0.66,5.03,-0.65,0.63,0.62,0.42,5.66,5.66,5.69
2838.40,5.04,-0.61,5.03,-0.62,0.60,0.56,0.33,5.64,5.64,5.65
2866.79,5.04,-0.57,5.04,-0.57,0.57,0.51,0.24,5.61,5.61,5.61
2895.46,5.04,-0.53,5.04,-0.53,0.54,0.45,0.15,5.57,5.57,5.57
2924.41,5.04,-0.49,5.03,-0.49,0.50,0.39,0.06,5.54,5.53,5.53
2953.65,5.03,-0.45,5.03,-0.45,0.46,0.34,-0.03,5.48,5.48,5.48
2983.19,5.02,-0.41,5.02,-0.41,0.40,0.28,-0.12,5.42,5.42,5.43
3013.02,5.02,-0.36,5.02,-0.36,0.35,0.22,-0.21,5.36,5.36,5.38
3043.15,5.02,-0.31,5.02,-0.31,0.29,0.16,-0.30,5.30,5.30,5.33
3073.58,5.02,-0.25,5.02,-0.24,0.23,0.10,-0.39,5.25,5.25,5.27
3104.32,5.02,-0.16,5.01,-0.15,0.17,0.04,-0.47,5.18,5.18,5.18
3135.36,5.01,-0.05,5.00,-0.07,0.10,-0.02,-0.56,5.11,5.11,5.06
3166.72,5.00,-0.01,5.00,-0.01,0.03,-0.09,-0.65,5.03,5.03,5.01
3198.38,4.99,0.04,4.99,0.04,-0.04,-0.16,-0.74,4.95,4.95,4.95
3230.37,5.00,0.10,4.99,0.10,-0.12,-0.22,-0.82,4.88,4.88,4.90
3262.67,5.00,0.16,5.00,0.18,-0.20,-0.29,-0.91,4.80,4.80,4.84
3295.30,5.01,0.27,5.01,0.26,-0.28,-0.37,-0.99,4.73,4.73,4.74
3328.25,5.02,0.38,5.02,0.36,-0.37,-0.44,-1.08,4.65,4.65,4.64
3361.53,5.04,0.45,5.04,0.47,-0.47,-0.51,-1.16,4.57,4.57,4.59
3395.15,5.07,0.58,5.07,0.58,-0.58,-0.59,-1.23,4.49,4.49,4.49
3429.10,5.11,0.71,5.10,0.69,-0.69,-0.67,-1.31,4.42,4.41,4.40
3463.39,5.15,0.79,5.14,0.81,-0.81,-0.75,-1.38,4.34,4.34,4.36
3498.03,5.19,0.93,5.19,0.92,-0.92,-0.84,-1.45,4.26,4.27,4.26
3533.01,5.24,1.05,5.24,1.04,-1.04,-0.92,-1.52,4.20,4.20,4.19
3568.34,5.30,1.14,5.30,1.17,-1.16,-1.01,-1.58,4.14,4.13,4.16
3604.02,5.36,1.29,5.36,1.28,-1.28,-1.10,-1.64,4.08,4.08,4.07
3640.06,5.43,1.41,5.42,1.39,-1.40,-1.20,-1.70,4.03,4.02,4.02
3676.46,5.49,1.48,5.49,1.51,-1.51,-1.29,-1.74,3.97,3.98,4.01
3713.22,5.56,1.62,5.56,1.62,-1.62,-1.39,-1.79,3.93,3.94,3.94
3750.36,5.64,1.75,5.63,1.73,-1.73,-1.48,-1.82,3.90,3.90,3.89
3787.86,5.71,1.84,5.71,1.84,-1.83,-1.58,-1.85,3.87,3.87,3.87
3825.74,5.78,1.93,5.78,1.93,-1.93,-1.68,-1.87,3.85,3.85,3.85
3864.00,5.85,2.01,5.84,2.01,-2.02,-1.78,-1.89,3.83,3.83,3.84
3902.64,5.91,2.08,5.91,2.09,-2.09,-1.88,-1.90,3.82,3.82,3.83
3941.66,5.98,2.17,5.97,2.17,-2.16,-1.97,-1.89,3.82,3.82,3.81
3981.08,6.04,2.24,6.04,2.23,-2.21,-2.07,-1.89,3.83,3.82,3.80
4020.89,6.10,2.28,6.10,2.27,-2.26,-2.16,-1.87,3.84,3.84,3.82
4061.10,6.16,2.27,6.16,2.29,-2.30,-2.24,-1.84,3.85,3.86,3.89
4101.71,6.22,2.32,6.21,2.32,-2.34,-2.33,-1.81,3.88,3.87,3.90
4142.73,6.26,2.35,6.26,2.35,-2.37,-2.40,-1.77,3.88,3.89,3.91
4184.15,6.30,2.38,6.30,2.38,-2.40,-2.46,-1.71,3.90,3.91,3.92
4226.00,6.34,2.41,6.33,2.41,-2.41,-2.52,-1.66,3.93,3.92,3.93
4268.26,6.36,2.43,6.35,2.43,-2.41,-2.56,-1.59,3.94,3.94,3.93
4310.94,6.36,2.43,6.36,2.43,-2.41,-2.59,-1.52,3.95,3.95,3.93
4354.05,6.35,2.42,6.35,2.41,-2.39,-2.60,-1.44,3.96,3.96,3.93
4397.59,6.34,2.37,6.33,2.36,-2.36,-2.59,-1.35,3.98,3.97,3.97
4441.56,6.29,2.29,6.28,2.30,-2.32,-2.56,-1.26,3.97,3.97,4.00
4485.98,6.22,2.24,6.21,2.24,-2.26,-2.51,-1.16,3.95,3.95,3.98
4530.84,6.12,2.18,6.12,2.18,-2.20,-2.44,-1.06,3.92,3.92,3.94
4576.15,6.01,2.12,6.01,2.12,-2.13,-2.35,-0.95,3.88,3.88,3.89
4621.91,5.88,2.04,5.87,2.04,-2.04,-2.23,-0.84,3.84,3.83,3.84
4668.13,5.72,1.95,5.72,1.95,-1.94,-2.09,-0.72,3.77,3.78,3.77
4714.81,5.55,1.85,5.54,1.85,-1.84,-1.92,-0.60,3.71,3.71,3.70
4761.96,5.34,1.72,5.34,1.72,-1.71,-1.73,-0.48,3.63,3.62,3.62
4809.58,5.11,1.57,5.10,1.57,-1.57,-1.52,-0.35,3.54,3.54,3.54
4857.67,4.84,1.39,4.84,1.40,-1.40,-1.29,-0.23,3.43,3.44,3.45
4906.25,4.57,1.22,4.56,1.21,-1.22,-1.04,-0.09,3.35,3.34,3.35
4955.31,4.26,1.01,4.26,1.01,-1.01,-0.77,0.04,3.25,3.25,3.25
5004.87,3.93,0.78,3.93,0.79,-0.78,-0.49,0.17,3.15,3.15,3.15
5054.91,3.58,0.54,3.57,0.53,-0.53,-0.19,0.31,3.05,3.04,3.04
5105.46,3.20,0.26,3.19,0.26,-0.26,0.12,0.45,2.94,2.94,2.94
5156.52,2.79,-0.04,2.79,-0.04,0.04,0.43,0.59,2.83,2.83,2.83
5208.08,2.37,-0.36,2.37,-0.36,0.36,0.76,0.73,2.73,2.73,2.73
5260.16,1.93,-0.69,1.92,-0.69,0.70,1.09,0.87,2.63,2.62,2.62
5312.77,1.47,-1.05,1.46,-1.05,1.07,1.42,1.02,2.53,2.53,2.52
5365.89,0.98,-1.44,0.98,-1.43,1.45,1.75,1.17,2.42,2.42,2.42
5419.55,0.48,-1.83,0.47,-1.83,1.85,2.08,1.32,2.32,2.32,2.31
5473.75,-0.05,-2.25,-0.05,-2.25,2.26,2.42,1.47,2.20,2.20,2.20
5528.49,-0.58,-2.67,-0.59,-2.67,2.67,2.74,1.62,2.09,2.08,2.09
5583.77,-1.13,-3.10,-1.13,-3.10,3.09,3.06,1.77,1.96,1.96,1.97
5639.61,-1.67,-3.52,-1.68,-3.51,3.51,3.38,1.93,1.83,1.83,1.85
5696.00,-2.21,-3.92,-2.22,-3.92,3.92,3.68,2.09,1.70,1.70,1.71
5752.96,-2.75,-4.31,-2.76,-4.30,4.31,3.98,2.25,1.56,1.56,1.56
5810.49,-3.28,-4.68,-3.29,-4.67,4.69,4.26,2.41,1.41,1.40,1.40
5868.60,-3.81,-5.03,-3.82,-5.02,5.03,4.52,2.58,1.21,1.21,1.22
5927.28,-4.33,-5.36,-4.33,-5.33,5.32,4.77,2.74,0.98,0.99,1.03
5986.56,-4.83,-5.65,-4.83,-5.60,5.56,5.01,2.91,0.72,0.73,0.82
6046.42,-5.32,-5.88,-5.30,-5.82,5.75,5.22,3.09,0.42,0.44,0.56
6106.89,-5.77,-6.06,-5.76,-6.00,5.88,5.42,3.26,0.11,0.12,0.29
6167.96,-6.23,-6.23,-6.20,-6.15,5.98,5.60,3.44,-0.26,-0.22,-0.00
6229.64,-6.67,-6.41,-6.61,-6.28,6.03,5.75,3.62,-0.65,-0.59,-0.26
6291.93,-7.09,-6.56,-7.00,-6.39,6.05,5.89,3.81,-1.05,-0.96,-0.53
6354.85,-7.48,-6.68,-7.36,-6.47,6.04,6.00,4.00,-1.44,-1.31,-0.80
6418.40,-7.85,-6.77,-7.67,-6.50,6.03,6.10,4.19,-1.82,-1.64,-1.08
6482.58,-8.20,-6.83,-7.95,-6.50,6.01,6.18,4.38,-2.19,-1.94,-1.37
6547.41,-8.54,-6.87,-8.20,-6.48,6.00,6.24,4.58,-2.54,-2.20,-1.67
6612.88,-8.89,-6.92,-8.42,-6.43,6.00,6.28,4.77,-2.89,-2.42,-1.97
6679.01,-9.23,-6.95,-8.61,-6.38,6.01,6.31,4.97,-3.23,-2.60,-2.28
6745.80,-9.58,-6.98,-8.76,-6.31,6.01,6.32,5.17,-3.57,-2.75,-2.60
6813.26,-9.91,-6.99,-8.86,-6.24,6.00,6.32,5.38,-3.91,-2.86,-2.92
6881.39,-10.24,-6.99,-8.92,-6.15,5.99,6.32,5.58,-4.25,-2.93,-3.25
6950.21,-10.56,-6.96,-8.94,-6.07,5.98,6.30,5.78,-4.59,-2.96,-3.60
7019.71,-10.87,-6.92,-8.92,-6.00,5.95,6.28,5.98,-4.92,-2.96,-3.95
7089.91,-11.17,-6.85,-8.87,-5.94,5.93,6.25,6.18,-5.24,-2.94,-4.32
7160.81,-11.45,-6.74,-8.81,-5.89,5.91,6.21,6.37,-5.55,-2.90,-4.71
7232.41,-11.72,-6.62,-8.74,-5.86,5.89,6.18,6.56,-5.84,-2.85,-5.10
7304.74,-11.96,-6.40,-8.66,-5.84,5.87,6.14,6.74,-6.09,-2.78,-5.56
7377.79,-12.17,-6.18,-8.57,-5.85,5.87,6.10,6.92,-6.31,-2.71,-5.99
7451.56,-12.36,-5.99,-8.49,-5.86,5.87,6.05,7.08,-6.49,-2.62,-6.37
7526.08,-12.53,-5.79,-8.42,-5.89,5.89,6.01,7.23,-6.65,-2.53,-6.74
7601.34,-12.67,-5.59,-8.35,-5.91,5.91,5.97,7.37,-6.77,-2.44,-7.08
7677.35,-12.79,-5.41,-8.28,-5.94,5.93,5.93,7.49,-6.86,-2.34,-7.38
7754.13,-12.87,-5.26,-8.21,-5.97,5.96,5.89,7.59,-6.92,-2.25,-7.61
7831.67,-12.91,-5.13,-8.14,-5.99,5.97,5.85,7.68,-6.94,-2.16,-7.78
7909.98,-12.92,-5.04,-8.07,-6.00,5.99,5.82,7.74,-6.93,-2.08,-7.88
7989.08,-12.92,-5.02,-8.00,-6.01,6.00,5.79,7.79,-6.92,-2.00,-7.90
8068.98,-12.89,-5.04,-7.93,-6.02,6.01,5.75,7.81,-6.89,-1.92,-7.85
8149.67,-12.84,-5.14,-7.85,-6.02,6.01,5.73,7.80,-6.84,-1.85,-7.70
8231.16,-12.76,-5.28,-7.78,-6.02,6.01,5.70,7.78,-6.76,-1.78,-7.48
8313.47,-12.65,-5.47,-7.71,-6.01,6.00,5.68,7.74,-6.65,-1.71,-7.18
8396.61,-12.50,-5.67,-7.63,-6.00,5.99,5.66,7.67,-6.51,-1.64,-6.83
8480.57,-12.32,-5.85,-7.56,-5.99,5.98,5.64,7.59,-6.34,-1.57,-6.47
8565.38,-12.11,-6.11,-7.48,-5.97,5.97,5.62,7.49,-6.14,-1.51,-6.00
8651.03,-11.87,-6.38,-7.41,-5.96,5.96,5.61,7.38,-5.91,-1.45,-5.49
8737.54,-11.59,-6.64,-7.33,-5.94,5.94,5.60,7.25,-5.65,-1.38,-4.95
8824.92,-11.28,-6.87,-7.24,-5.92,5.92,5.59,7.11,-5.36,-1.32,-4.41
8913.17,-10.93,-7.07,-7.16,-5.90,5.90,5.59,6.97,-5.04,-1.26,-3.86
9002.30,-10.55,-7.22,-7.07,-5.87,5.87,5.58,6.81,-4.68,-1.20,-3.33
9092.32,-10.13,-7.31,-6.99,-5.84,5.84,5.58,6.66,-4.29,-1.14,-2.82
9183.25,-9.67,-7.29,-6.90,-5.81,5.81,5.58,6.50,-3.86,-1.09,-2.38
9275.08,-9.20,-7.21,-6.81,-5.78,5.78,5.59,6.33,-3.42,-1.03,-1.99
9367.83,-8.70,-7.12,-6.72,-5.74,5.74,5.59,6.17,-2.96,-0.98,-1.58
9461.51,-8.18,-7.01,-6.64,-5.71,5.70,5.60,6.01,-2.48,-0.94,-1.17
9556.12,-7.65,-6.87,-6.55,-5.67,5.65,5.61,5.85,-2.00,-0.90,-0.78
9651.68,-7.10,-6.69,-6.47,-5.63,5.61,5.62,5.70,-1.50,-0.86,-0.41
9748.20,-6.56,-6.44,-6.38,-5.58,5.57,5.63,5.54,-1.00,-0.82,-0.12
9845.68,-6.02,-6.20,-6.30,-5.54,5.53,5.64,5.40,-0.49,-0.77,0.18
9944.14,-5.49,-6.00,-6.23,-5.49,5.52,5.66,5.25,0.02,-0.71,0.51
10043.58,-4.97,-5.77,-6.15,-5.44,5.51,5.67,5.12,0.54,-0.64,0.80
10144.02,-4.47,-5.55,-6.29,-5.49,5.52,5.69,4.98,1.04,-0.77,1.08
10245.46,-4.00,-5.36,-6.42,-5.54,5.54,5.70,4.86,1.54,-0.88,1.36
10347.91,-3.58,-5.25,-6.56,-5.59,5.58,5.72,4.74,2.00,-0.98,1.67
10451.39,-3.18,-5.15,-6.71,-5.65,5.63,5.74,4.63,2.45,-1.08,1.97
10555.91,-2.82,-5.08,-6.86,-5.70,5.69,5.76,4.52,2.87,-1.16,2.26
10661.46,-2.48,-4.97,-7.01,-5.75,5.76,5.78,4.42,3.27,-1.25,2.49
10768.08,-2.19,-4.94,-7.17,-5.81,5.82,5.80,4.33,3.63,-1.35,2.75
10875.76,-1.93,-4.94,-7.33,-5.87,5.87,5.82,4.25,3.94,-1.46,3.01
10984.52,-1.72,-4.91,-7.50,-5.92,5.91,5.84,4.17,4.19,-1.58,3.19
11094.36,-1.52,-4.93,-7.67,-5.98,5.95,5.87,4.10,4.43,-1.72,3.41
11205.31,-1.34,-4.96,-7.84,-6.04,5.98,5.89,4.04,4.63,-1.87,3.62
11317.36,-1.18,-4.97,-8.02,-6.10,6.00,5.91,3.98,4.81,-2.03,3.79
11430.53,-1.05,-4.92,-8.21,-6.17,6.01,5.93,3.93,4.95,-2.20,3.87
11544.84,-0.95,-4.89,-8.39,-6.23,6.01,5.95,3.89,5.06,-2.38,3.94
11660.29,-0.87,-4.89,-8.59,-6.29,6.01,5.97,3.86,5.14,-2.58,4.02
11776.89,-0.83,-4.82,-8.79,-6.36,6.01,5.99,3.84,5.17,-2.78,3.99
11894.66,-0.81,-4.77,-8.99,-6.43,6.00,6.01,3.83,5.19,-2.99,3.96
12013.60,-0.83,-4.73,-9.19,-6.49,6.00,6.03,3.82,5.17,-3.19,3.90
12133.74,-0.90,-4.63,-9.40,-6.56,6.00,6.05,3.82,5.10,-3.40,3.73
12255.08,-0.99,-4.54,-9.62,-6.63,6.00,6.06,3.84,5.01,-3.62,3.55
12377.63,-1.12,-4.45,-9.84,-6.70,6.00,6.08,3.86,4.88,-3.84,3.33
12501.41,-1.30,-4.37,-10.06,-6.78,6.00,6.09,3.89,4.70,-4.06,3.07
12626.42,-1.51,-4.30,-10.29,-6.85,6.00,6.10,3.93,4.49,-4.29,2.79
12752.68,-1.75,-4.22,-10.52,-6.92,6.00,6.11,3.99,4.25,-4.52,2.47
12880.21,-2.01,-4.08,-10.76,-7.00,6.00,6.12,4.06,3.99,-4.76,2.07
13009.01,-2.29,-3.98,-11.00,-7.08,6.00,6.12,4.14,3.71,-5.00,1.69
13139.10,-2.59,-3.88,-11.24,-7.15,6.00,6.12,4.23,3.41,-5.24,1.29
13270.49,-2.94,-3.77,-11.49,-7.23,6.00,6.12,4.34,3.06,-5.49,0.83
13403.20,-3.31,-3.73,-11.75,-7.31,6.00,6.12,4.46,2.69,-5.75,0.42
13537.23,-3.73,-3.69,-12.01,-7.39,6.00,6.11,4.60,2.27,-6.01,-0.04
13672.60,-4.21,-3.67,-12.27,-7.48,6.00,6.10,4.76,1.79,-6.27,-0.54
13809.33,-4.74,-3.75,-12.54,-7.56,6.00,6.08,4.93,1.26,-6.54,-0.99
13947.42,-5.35,-3.85,-12.81,-7.64,6.00,6.06,5.13,0.65,-6.81,-1.50
14086.90,-6.04,-4.00,-13.08,-7.73,6.00,6.04,5.35,-0.04,-7.08,-2.04
14227.77,-6.81,-4.28,-13.36,-7.82,6.00,6.02,5.59,-0.81,-7.36,-2.53
14370.04,-7.67,-4.59,-13.65,-7.90,6.00,6.00,5.85,-1.67,-7.65,-3.08
14513.74,-8.61,-4.95,-13.94,-7.99,6.00,5.97,6.14,-2.61,-7.94,-3.66
14658.88,-9.61,-5.36,-14.23,-8.08,6.00,5.94,6.45,-3.61,-8.23,-4.25
14805.47,-10.66,-5.83,-14.53,-8.17,6.00,5.92,6.78,-4.66,-8.53,-4.83
14953.52,-11.74,-6.35,-14.83,-8.27,6.00,5.90,7.13,-5.74,-8.83,-5.39
15103.06,-12.83,-6.89,-15.14,-8.36,6.00,5.89,7.49,-6.83,-9.14,-5.94
15254.09,-13.93,-7.47,-15.45,-8.45,6.00,5.88,7.85,-7.93,-9.45,-6.46
15406.63,-15.00,-8.02,-15.76,-8.55,6.00,5.88,8.19,-9.00,-9.76,-6.98
15560.70,-16.02,-8.48,-16.08,-8.64,6.00,5.90,8.49,-10.02,-10.08,-7.54
15716.30,-16.98,-8.90,-16.41,-8.74,6.00,5.92,8.73,-10.98,-10.41,-8.08
15873.47,-17.87,-9.31,-16.74,-8.84,6.00,5.96,8.87,-11.87,-10.74,-8.56
16032.20,-18.69,-9.71,-17.07,-8.94,6.00,6.00,8.88,-12.69,-11.07,-8.98
16192.52,-19.43,-9.99,-17.41,-9.04,6.00,6.04,8.76,-13.43,-11.41,-9.44
16354.45,-20.09,-10.21,-17.75,-9.14,6.00,6.09,8.49,-14.09,-11.75,-9.88
16517.99,-20.69,-10.38,-18.09,-9.25,6.00,6.13,8.09,-14.69,-12.09,-10.31
16683.17,-21.24,-10.56,-18.44,-9.35,6.00,6.17,7.61,-15.24,-12.44,-10.68
16850.01,-21.78,-10.66,-18.80,-9.46,6.00,6.21,7.05,-15.78,-12.80,-11.12
17018.51,-22.32,-10.72,-19.16,-9.56,6.00,6.23,6.47,-16.32,-13.16,-11.60
17188.69,-22.89,-10.78,-19.52,-9.67,6.00,6.24,5.88,-16.89,-13.52,-12.11
17360.58,-23.49,-10.89,-19.89,-9.78,6.00,6.23,5.30,-17.49,-13.89,-12.60
17534.18,-24.13,-11.03,-20.26,-9.89,6.00,6.22,4.75,-18.13,-14.26,-13.10
17709.53,-24.81,-11.18,-20.64,-10.00,6.00,6.18,4.22,-18.81,-14.64,-13.63
17886.62,-25.50,-11.36,-21.02,-10.11,6.00,6.13,3.74,-19.50,-15.02,-14.14
18065.49,-26.13,-11.59,-21.40,-10.23,6.00,6.07,3.29,-20.13,-15.40,-14.54
18246.14,-26.75,-11.87,-21.79,-10.34,6.00,5.98,2.88,-20.75,-15.79,-14.88
18428.60,-27.38,-12.10,-22.19,-10.46,6.00,5.87,2.51,-21.38,-16.19,-15.28
18612.89,-28.01,-12.35,-22.58,-10.57,6.00,5.75,2.18,-22.01,-16.58,-15.66
18799.02,-28.64,-12.62,-22.99,-10.69,6.00,5.59,1.88,-22.64,-16.99,-16.02
18987.01,-29.27,-12.90,-23.39,-10.81,6.00,5.42,1.61,-23.27,-17.39,-16.37
19176.88,-29.91,-13.23,-23.81,-10.93,6.00,5.21,1.36,-23.91,-17.81,-16.68
19368.65,-30.54,-13.58,-24.22,-11.05,6.00,4.97,1.15,-24.54,-18.22,-16.96
19562.33,-31.18,-13.95,-24.64,-11.17,6.00,4.70,0.96,-25.18,-18.64,-17.23
19757.96,-31.82,-14.37,-25.07,-11.30,6.00,4.40,0.79,-25.82,-19.07,-17.45
19955.54,-32.46,-14.77,-25.50,-11.42,6.00,4.06,0.64,-26.46,-19.50,-17.69
