frequency,raw,error,smoothed,error_smoothed,equalization,parametric_eq,fixed_band_eq,equalized_raw,equalized_smoothed,target
20.00,-2.89,-4.85,-2.89,-4.85,4.85,4.33,0.70,1.96,1.96,1.96
20.20,-2.80,-4.73,-2.80,-4.73,4.73,4.27,0.73,1.93,1.93,1.93
20.40,-2.71,-4.62,-2.71,-4.62,4.62,4.21,0.75,1.91,1.91,1.91
20.61,-2.63,-4.51,-2.63,-4.51,4.51,4.14,0.78,1.89,1.89,1.89
20.81,-2.54,-4.41,-2.54,-4.41,4.40,4.07,0.81,1.86,1.86,1.87
21.02,-2.45,-4.30,-2.46,-4.30,4.30,4.00,0.84,1.84,1.84,1.85
21.23,-2.37,-4.20,-2.37,-4.20,4.19,3.93,0.86,1.82,1.82,1.83
21.44,-2.28,-4.09,-2.29,-4.09,4.09,3.86,0.89,1.81,1.80,1.81
21.66,-2.20,-3.99,-2.20,-3.99,3.99,3.78,0.93,1.79,1.79,1.79
21.87,-2.12,-3.90,-2.12,-3.89,3.89,3.71,0.96,1.77,1.78,1.78
22.09,-2.03,-3.79,-2.04,-3.79,3.80,3.63,0.99,1.77,1.76,1.76
22.31,-1.95,-3.70,-1.95,-3.70,3.70,3.55,1.02,1.75,1.75,1.75
22.54,-1.88,-3.61,-1.88,-3.61,3.61,3.47,1.06,1.74,1.74,1.74
22.76,-1.80,-3.53,-1.80,-3.53,3.52,3.39,1.09,1.72,1.72,1.73
22.99,-1.72,-3.44,-1.72,-3.44,3.43,3.31,1.13,1.71,1.71,1.72
23.22,-1.64,-3.35,-1.64,-3.35,3.35,3.22,1.16,1.70,1.70,1.71
23.45,-1.56,-3.26,-1.56,-3.26,3.26,3.14,1.20,1.70,1.70,1.70
23.69,-1.49,-3.17,-1.49,-3.18,3.18,3.06,1.24,1.70,1.69,1.69
23.92,-1.41,-3.10,-1.41,-3.10,3.10,2.98,1.28,1.69,1.69,1.69
24.16,-1.34,-3.02,-1.34,-3.02,3.02,2.89,1.32,1.67,1.68,1.68
24.40,-1.26,-2.94,-1.26,-2.94,2.94,2.81,1.36,1.67,1.67,1.68
24.65,-1.18,-2.85,-1.19,-2.86,2.86,2.73,1.40,1.67,1.67,1.67
24.89,-1.12,-2.79,-1.12,-2.78,2.78,2.64,1.44,1.66,1.66,1.67
25.14,-1.05,-2.71,-1.05,-2.70,2.70,2.56,1.48,1.65,1.65,1.66
25.39,-0.97,-2.62,-0.97,-2.62,2.62,2.48,1.52,1.65,1.65,1.65
25.65,-0.88,-2.53,-0.89,-2.54,2.54,2.40,1.56,1.66,1.65,1.65
25.91,-0.82,-2.46,-0.82,-2.46,2.46,2.32,1.60,1.64,1.64,1.64
26.16,-0.75,-2.39,-0.75,-2.39,2.38,2.24,1.64,1.63,1.63,1.64
26.43,-0.68,-2.31,-0.67,-2.31,2.30,2.16,1.68,1.63,1.63,1.64
26.69,-0.59,-2.22,-0.59,-2.22,2.22,2.08,1.71,1.63,1.63,1.63
26.96,-0.51,-2.14,-0.52,-2.14,2.14,2.00,1.75,1.63,1.62,1.63
27.23,-0.44,-2.06,-0.44,-2.06,2.06,1.92,1.78,1.62,1.62,1.62
27.50,-0.37,-1.99,-0.37,-1.99,1.98,1.84,1.82,1.61,1.61,1.62
27.77,-0.29,-1.91,-0.29,-1.91,1.91,1.77,1.85,1.61,1.61,1.62
28.05,-0.21,-1.82,-0.22,-1.83,1.83,1.69,1.87,1.61,1.61,1.61
28.33,-0.14,-1.75,-0.14,-1.75,1.75,1.62,1.90,1.61,1.61,1.61
28.62,-0.07,-1.68,-0.07,-1.68,1.68,1.54,1.92,1.60,1.61,1.61
28.90,-0.00,-1.60,-0.01,-1.61,1.61,1.47,1.94,1.60,1.60,1.60
29.19,0.06,-1.54,0.06,-1.54,1.54,1.39,1.96,1.59,1.60,1.60
29.48,0.13,-1.47,0.13,-1.47,1.47,1.32,1.97,1.59,1.60,1.60
29.78,0.20,-1.40,0.20,-1.40,1.40,1.25,1.98,1.59,1.59,1.60
30.08,0.27,-1.33,0.26,-1.33,1.33,1.18,1.98,1.60,1.59,1.60
30.38,0.33,-1.26,0.32,-1.27,1.26,1.11,1.98,1.59,1.59,1.59
30.68,0.39,-1.20,0.39,-1.20,1.20,1.04,1.97,1.58,1.59,1.59
30.99,0.45,-1.14,0.45,-1.13,1.13,0.97,1.96,1.58,1.58,1.59
31.30,0.53,-1.06,0.52,-1.06,1.07,0.90,1.95,1.59,1.59,1.59
31.61,0.59,-0.99,0.58,-1.00,1.00,0.83,1.92,1.59,1.58,1.58
31.93,0.65,-0.93,0.64,-0.93,0.93,0.77,1.90,1.58,1.58,1.58
32.24,0.70,-0.88,0.70,-0.87,0.87,0.70,1.87,1.56,1.57,1.58
32.57,0.77,-0.80,0.77,-0.80,0.80,0.64,1.84,1.56,1.57,1.57
32.89,0.84,-0.73,0.84,-0.73,0.73,0.57,1.80,1.57,1.57,1.57
33.22,0.91,-0.66,0.90,-0.66,0.66,0.51,1.75,1.57,1.57,1.57
33.55,0.97,-0.59,0.97,-0.60,0.59,0.44,1.70,1.56,1.56,1.56
33.89,1.03,-0.53,1.03,-0.53,0.53,0.38,1.65,1.55,1.55,1.56
34.23,1.09,-0.47,1.09,-0.46,0.46,0.31,1.60,1.54,1.55,1.56
34.57,1.17,-0.38,1.16,-0.39,0.39,0.25,1.54,1.55,1.55,1.55
34.92,1.24,-0.31,1.23,-0.32,0.32,0.19,1.47,1.56,1.55,1.55
35.27,1.30,-0.25,1.29,-0.25,0.25,0.13,1.41,1.55,1.55,1.55
35.62,1.35,-0.19,1.35,-0.19,0.19,0.07,1.34,1.53,1.54,1.54
35.97,1.41,-0.13,1.41,-0.13,0.12,0.01,1.27,1.53,1.53,1.54
36.33,1.48,-0.06,1.48,-0.06,0.06,-0.05,1.19,1.54,1.54,1.54
36.70,1.55,0.01,1.54,0.01,-0.00,-0.11,1.12,1.54,1.54,1.54
37.06,1.61,0.07,1.60,0.07,-0.07,-0.17,1.04,1.54,1.54,1.54
37.43,1.66,0.13,1.66,0.13,-0.13,-0.23,0.96,1.53,1.53,1.53
37.81,1.71,0.18,1.71,0.19,-0.19,-0.29,0.88,1.52,1.52,1.53
38.19,1.78,0.25,1.78,0.25,-0.25,-0.34,0.80,1.52,1.52,1.53
38.57,1.85,0.33,1.84,0.32,-0.32,-0.40,0.71,1.53,1.52,1.52
38.95,1.90,0.38,1.90,0.38,-0.38,-0.46,0.63,1.52,1.51,1.52
39.34,1.95,0.44,1.95,0.44,-0.45,-0.52,0.54,1.50,1.50,1.51
39.74,2.01,0.50,2.01,0.51,-0.51,-0.57,0.45,1.49,1.50,1.51
40.14,2.08,0.58,2.07,0.58,-0.58,-0.63,0.37,1.50,1.50,1.50
40.54,2.15,0.65,2.14,0.65,-0.64,-0.68,0.28,1.50,1.50,1.50
40.94,2.21,0.71,2.21,0.71,-0.71,-0.74,0.19,1.50,1.50,1.50
41.35,2.27,0.77,2.27,0.77,-0.77,-0.79,0.10,1.50,1.50,1.50
41.76,2.33,0.83,2.33,0.83,-0.83,-0.85,0.01,1.49,1.49,1.50
42.18,2.39,0.89,2.39,0.89,-0.90,-0.90,-0.08,1.49,1.49,1.50
42.60,2.46,0.96,2.46,0.96,-0.96,-0.96,-0.17,1.50,1.50,1.50
43.03,2.53,1.02,2.52,1.02,-1.02,-1.01,-0.26,1.51,1.51,1.51
43.46,2.59,1.08,2.58,1.08,-1.08,-1.06,-0.35,1.51,1.51,1.51
43.90,2.64,1.13,2.64,1.13,-1.13,-1.12,-0.45,1.50,1.51,1.51
44.33,2.70,1.19,2.70,1.19,-1.19,-1.17,-0.54,1.50,1.50,1.51
44.78,2.76,1.25,2.75,1.25,-1.25,-1.22,-0.63,1.50,1.50,1.51
45.23,2.82,1.31,2.82,1.31,-1.31,-1.27,-0.73,1.50,1.51,1.51
45.68,2.88,1.37,2.88,1.37,-1.37,-1.33,-0.82,1.51,1.51,1.51
46.13,2.94,1.43,2.93,1.43,-1.43,-1.38,-0.91,1.51,1.51,1.51
46.60,2.99,1.48,2.99,1.48,-1.48,-1.43,-1.01,1.50,1.51,1.51
47.06,3.05,1.54,3.04,1.54,-1.54,-1.48,-1.10,1.51,1.50,1.51
47.53,3.10,1.60,3.10,1.60,-1.60,-1.53,-1.20,1.50,1.50,1.50
48.01,3.15,1.65,3.15,1.65,-1.65,-1.58,-1.29,1.49,1.49,1.50
48.49,3.20,1.70,3.20,1.70,-1.71,-1.63,-1.39,1.49,1.49,1.50
48.97,3.25,1.75,3.25,1.75,-1.76,-1.68,-1.48,1.49,1.49,1.50
49.46,3.31,1.81,3.31,1.81,-1.81,-1.73,-1.58,1.50,1.50,1.50
49.96,3.36,1.86,3.36,1.86,-1.85,-1.78,-1.67,1.50,1.51,1.50
50.46,3.42,1.92,3.41,1.91,-1.90,-1.83,-1.77,1.52,1.51,1.50
50.96,3.45,1.95,3.45,1.95,-1.94,-1.88,-1.86,1.50,1.50,1.50
51.47,3.48,1.97,3.48,1.98,-1.99,-1.93,-1.96,1.49,1.50,1.51
51.99,3.52,2.01,3.52,2.01,-2.03,-1.97,-2.05,1.49,1.49,1.51
52.51,3.57,2.06,3.57,2.06,-2.07,-2.02,-2.14,1.50,1.50,1.51
53.03,3.62,2.11,3.61,2.11,-2.10,-2.07,-2.24,1.51,1.51,1.51
53.56,3.66,2.15,3.66,2.15,-2.14,-2.12,-2.33,1.52,1.52,1.51
54.10,3.70,2.18,3.70,2.18,-2.18,-2.16,-2.41,1.52,1.52,1.52
54.64,3.74,2.22,3.73,2.22,-2.22,-2.21,-2.50,1.52,1.52,1.52
55.18,3.77,2.25,3.77,2.25,-2.26,-2.25,-2.58,1.51,1.51,1.52
55.74,3.81,2.29,3.81,2.29,-2.29,-2.30,-2.67,1.51,1.51,1.52
56.29,3.85,2.32,3.85,2.33,-2.33,-2.35,-2.75,1.52,1.52,1.53
56.86,3.90,2.37,3.89,2.37,-2.37,-2.39,-2.82,1.53,1.53,1.53
57.42,3.94,2.41,3.94,2.41,-2.40,-2.43,-2.90,1.53,1.53,1.53
58.00,3.98,2.44,3.98,2.45,-2.44,-2.48,-2.96,1.54,1.54,1.54
58.58,4.02,2.48,4.02,2.48,-2.48,-2.52,-3.03,1.54,1.54,1.54
59.16,4.06,2.52,4.06,2.51,-2.52,-2.56,-3.09,1.54,1.54,1.54
59.76,4.10,2.55,4.10,2.55,-2.56,-2.61,-3.15,1.54,1.54,1.55
60.35,4.14,2.59,4.14,2.59,-2.60,-2.65,-3.20,1.54,1.54,1.55
60.96,4.19,2.64,4.19,2.64,-2.64,-2.69,-3.25,1.54,1.54,1.55
61.57,4.24,2.69,4.23,2.69,-2.69,-2.73,-3.29,1.55,1.55,1.55
62.18,4.28,2.73,4.28,2.73,-2.73,-2.77,-3.33,1.55,1.55,1.55
62.80,4.33,2.78,4.32,2.78,-2.78,-2.81,-3.37,1.55,1.55,1.55
63.43,4.37,2.82,4.37,2.82,-2.82,-2.85,-3.40,1.55,1.55,1.55
64.07,4.41,2.86,4.41,2.86,-2.86,-2.89,-3.42,1.54,1.55,1.55
64.71,4.46,2.91,4.45,2.91,-2.91,-2.93,-3.44,1.55,1.55,1.55
65.35,4.50,2.95,4.50,2.95,-2.94,-2.97,-3.46,1.55,1.55,1.55
66.01,4.54,2.99,4.53,2.99,-2.98,-3.00,-3.47,1.55,1.55,1.55
66.67,4.57,3.02,4.57,3.02,-3.02,-3.04,-3.48,1.55,1.55,1.55
67.33,4.60,3.05,4.60,3.05,-3.05,-3.07,-3.48,1.54,1.54,1.55
68.01,4.63,3.08,4.63,3.08,-3.09,-3.11,-3.48,1.54,1.54,1.55
68.69,4.67,3.12,4.66,3.12,-3.12,-3.14,-3.48,1.54,1.54,1.55
69.37,4.70,3.15,4.70,3.15,-3.16,-3.18,-3.47,1.54,1.54,1.55
70.07,4.74,3.19,4.74,3.19,-3.19,-3.21,-3.47,1.55,1.55,1.55
70.77,4.78,3.23,4.78,3.23,-3.22,-3.24,-3.46,1.56,1.56,1.55
71.48,4.82,3.26,4.81,3.26,-3.25,-3.27,-3.45,1.57,1.56,1.56
72.19,4.84,3.28,4.84,3.28,-3.27,-3.31,-3.43,1.56,1.57,1.56
72.91,4.86,3.30,4.86,3.30,-3.30,-3.34,-3.42,1.56,1.56,1.56
73.64,4.88,3.32,4.88,3.32,-3.32,-3.36,-3.41,1.55,1.55,1.56
74.38,4.90,3.33,4.90,3.34,-3.35,-3.39,-3.40,1.55,1.55,1.57
75.12,4.94,3.37,4.94,3.37,-3.38,-3.42,-3.38,1.56,1.56,1.57
75.87,4.98,3.40,4.97,3.40,-3.41,-3.45,-3.37,1.57,1.57,1.58
76.63,5.02,3.44,5.02,3.44,-3.44,-3.48,-3.36,1.58,1.58,1.58
77.40,5.06,3.48,5.06,3.48,-3.47,-3.50,-3.35,1.58,1.58,1.58
78.17,5.10,3.51,5.10,3.51,-3.51,-3.53,-3.34,1.59,1.59,1.59
78.95,5.14,3.55,5.13,3.55,-3.54,-3.55,-3.33,1.59,1.59,1.59
79.74,5.17,3.58,5.17,3.58,-3.57,-3.58,-3.32,1.59,1.59,1.59
80.54,5.20,3.60,5.19,3.60,-3.60,-3.60,-3.32,1.59,1.59,1.60
81.35,5.22,3.62,5.22,3.62,-3.63,-3.62,-3.32,1.59,1.59,1.60
82.16,5.25,3.65,5.25,3.65,-3.65,-3.65,-3.32,1.60,1.60,1.60
82.98,5.27,3.67,5.27,3.67,-3.67,-3.67,-3.32,1.60,1.60,1.60
83.81,5.30,3.70,5.29,3.69,-3.68,-3.69,-3.32,1.61,1.61,1.60
84.65,5.31,3.70,5.31,3.70,-3.70,-3.71,-3.33,1.61,1.61,1.61
85.50,5.32,3.71,5.32,3.71,-3.71,-3.73,-3.33,1.60,1.61,1.61
86.35,5.33,3.72,5.33,3.72,-3.72,-3.75,-3.35,1.60,1.60,1.61
87.22,5.34,3.73,5.34,3.73,-3.73,-3.76,-3.36,1.60,1.61,1.61
88.09,5.36,3.75,5.35,3.75,-3.74,-3.78,-3.38,1.61,1.61,1.61
88.97,5.37,3.76,5.36,3.76,-3.76,-3.80,-3.39,1.61,1.61,1.61
89.86,5.38,3.77,5.38,3.77,-3.77,-3.81,-3.42,1.60,1.60,1.61
90.76,5.39,3.78,5.39,3.79,-3.79,-3.83,-3.44,1.59,1.60,1.61
91.66,5.42,3.81,5.42,3.81,-3.82,-3.85,-3.47,1.60,1.60,1.61
92.58,5.45,3.84,5.44,3.84,-3.84,-3.86,-3.50,1.60,1.60,1.61
93.51,5.48,3.87,5.48,3.87,-3.87,-3.88,-3.53,1.61,1.61,1.61
94.44,5.51,3.90,5.51,3.90,-3.90,-3.89,-3.56,1.61,1.61,1.61
95.39,5.54,3.93,5.54,3.93,-3.93,-3.90,-3.60,1.61,1.61,1.61
96.34,5.57,3.96,5.57,3.96,-3.96,-3.92,-3.64,1.61,1.61,1.61
97.30,5.60,3.98,5.60,3.98,-3.99,-3.93,-3.68,1.61,1.61,1.62
98.28,5.63,4.01,5.62,4.01,-4.01,-3.94,-3.72,1.62,1.61,1.62
99.26,5.65,4.03,5.65,4.03,-4.03,-3.95,-3.77,1.61,1.62,1.62
100.25,5.67,4.05,5.67,4.05,-4.05,-3.96,-3.81,1.62,1.62,1.62
101.25,5.68,4.06,5.68,4.06,-4.05,-3.98,-3.86,1.62,1.62,1.62
102.27,5.69,4.07,5.69,4.07,-4.05,-3.99,-3.91,1.63,1.63,1.62
103.29,5.69,4.07,5.68,4.06,-4.05,-4.00,-3.96,1.64,1.63,1.62
104.32,5.68,4.05,5.67,4.05,-4.04,-4.01,-4.01,1.63,1.63,1.63
105.37,5.66,4.03,5.66,4.03,-4.04,-4.02,-4.06,1.62,1.62,1.63
106.42,5.65,4.02,5.65,4.02,-4.03,-4.03,-4.12,1.62,1.62,1.63
107.48,5.64,4.00,5.64,4.01,-4.02,-4.04,-4.17,1.61,1.62,1.64
108.56,5.65,4.01,5.64,4.01,-4.02,-4.04,-4.22,1.62,1.62,1.64
109.64,5.66,4.02,5.66,4.02,-4.03,-4.05,-4.27,1.63,1.63,1.64
110.74,5.68,4.04,5.68,4.04,-4.04,-4.06,-4.32,1.64,1.64,1.64
111.85,5.70,4.06,5.70,4.06,-4.05,-4.07,-4.37,1.64,1.64,1.64
112.97,5.73,4.08,5.72,4.08,-4.08,-4.08,-4.41,1.65,1.64,1.65
114.10,5.75,4.10,5.75,4.10,-4.10,-4.09,-4.46,1.64,1.64,1.65
115.24,5.78,4.13,5.78,4.13,-4.13,-4.09,-4.50,1.64,1.64,1.65
116.39,5.81,4.16,5.81,4.16,-4.16,-4.10,-4.53,1.64,1.65,1.65
117.55,5.85,4.19,5.84,4.19,-4.19,-4.11,-4.57,1.66,1.65,1.66
118.73,5.88,4.22,5.88,4.22,-4.22,-4.12,-4.60,1.66,1.66,1.66
119.92,5.91,4.25,5.90,4.25,-4.24,-4.12,-4.62,1.66,1.66,1.66
121.12,5.93,4.27,5.93,4.27,-4.27,-4.13,-4.64,1.66,1.66,1.66
122.33,5.96,4.29,5.95,4.29,-4.29,-4.14,-4.66,1.67,1.66,1.67
123.55,5.98,4.31,5.98,4.31,-4.31,-4.15,-4.67,1.67,1.67,1.67
124.79,6.00,4.32,6.00,4.32,-4.32,-4.15,-4.68,1.68,1.68,1.68
126.03,6.01,4.33,6.01,4.33,-4.32,-4.16,-4.68,1.68,1.68,1.68
127.29,6.02,4.33,6.01,4.33,-4.32,-4.17,-4.68,1.69,1.69,1.69
128.57,6.02,4.33,6.01,4.33,-4.32,-4.17,-4.67,1.69,1.69,1.69
129.85,6.01,4.32,6.01,4.32,-4.32,-4.18,-4.66,1.69,1.69,1.69
131.15,6.00,4.31,6.00,4.31,-4.31,-4.19,-4.65,1.68,1.69,1.69
132.46,5.99,4.29,5.99,4.30,-4.30,-4.19,-4.63,1.68,1.68,1.70
133.79,5.99,4.29,5.99,4.29,-4.30,-4.20,-4.60,1.69,1.69,1.70
135.12,5.99,4.29,5.99,4.29,-4.29,-4.21,-4.57,1.69,1.69,1.70
136.48,5.99,4.29,5.99,4.29,-4.29,-4.21,-4.54,1.70,1.70,1.70
137.84,5.99,4.29,5.99,4.29,-4.29,-4.22,-4.51,1.70,1.70,1.70
139.22,5.99,4.29,5.99,4.29,-4.29,-4.22,-4.47,1.70,1.70,1.70
140.61,5.99,4.29,5.99,4.29,-4.28,-4.23,-4.43,1.70,1.70,1.70
142.02,5.99,4.28,5.99,4.28,-4.28,-4.24,-4.39,1.70,1.70,1.71
143.44,5.99,4.28,5.99,4.28,-4.28,-4.24,-4.35,1.71,1.71,1.71
144.87,5.99,4.28,5.99,4.28,-4.28,-4.25,-4.31,1.71,1.71,1.71
146.32,5.99,4.27,5.99,4.27,-4.27,-4.25,-4.27,1.71,1.71,1.72
147.78,5.99,4.27,5.99,4.27,-4.27,-4.26,-4.22,1.72,1.72,1.72
149.26,5.99,4.27,5.99,4.27,-4.27,-4.26,-4.18,1.72,1.72,1.72
150.75,5.99,4.26,5.99,4.26,-4.26,-4.27,-4.14,1.72,1.72,1.73
152.26,5.99,4.26,5.99,4.26,-4.26,-4.27,-4.10,1.73,1.73,1.73
153.78,5.99,4.26,5.99,4.26,-4.26,-4.28,-4.06,1.73,1.73,1.73
155.32,5.99,4.25,5.99,4.25,-4.25,-4.28,-4.02,1.73,1.73,1.74
156.88,5.99,4.25,5.99,4.25,-4.25,-4.28,-3.98,1.73,1.73,1.74
158.44,5.99,4.25,5.99,4.25,-4.25,-4.29,-3.94,1.74,1.74,1.74
160.03,5.99,4.25,5.99,4.25,-4.25,-4.29,-3.91,1.74,1.74,1.74
161.63,5.99,4.25,5.99,4.25,-4.25,-4.29,-3.88,1.74,1.74,1.74
163.24,5.99,4.24,5.99,4.24,-4.24,-4.30,-3.85,1.74,1.74,1.75
164.88,5.99,4.24,5.99,4.24,-4.24,-4.30,-3.82,1.74,1.74,1.75
166.53,5.99,4.24,5.99,4.24,-4.24,-4.30,-3.80,1.75,1.75,1.75
168.19,5.99,4.24,5.99,4.24,-4.24,-4.30,-3.78,1.75,1.75,1.75
169.87,5.99,4.23,5.99,4.23,-4.23,-4.30,-3.76,1.75,1.75,1.76
171.57,5.99,4.23,5.99,4.23,-4.23,-4.30,-3.74,1.76,1.76,1.76
173.29,5.99,4.23,5.99,4.23,-4.23,-4.30,-3.73,1.76,1.76,1.76
175.02,5.99,4.23,5.99,4.23,-4.23,-4.30,-3.72,1.76,1.76,1.76
176.77,5.99,4.22,5.99,4.22,-4.22,-4.30,-3.71,1.76,1.76,1.77
178.54,5.99,4.22,5.99,4.22,-4.22,-4.30,-3.70,1.76,1.76,1.77
180.32,5.99,4.22,5.99,4.22,-4.22,-4.30,-3.70,1.77,1.77,1.77
182.13,5.99,4.22,5.99,4.22,-4.22,-4.30,-3.70,1.77,1.77,1.77
183.95,5.99,4.22,5.99,4.22,-4.22,-4.29,-3.71,1.77,1.77,1.77
185.79,5.99,4.22,5.99,4.22,-4.22,-4.29,-3.71,1.77,1.77,1.77
187.65,5.99,4.22,5.99,4.22,-4.22,-4.28,-3.72,1.77,1.77,1.77
189.52,5.99,4.22,5.99,4.22,-4.22,-4.28,-3.73,1.77,1.77,1.77
191.42,5.99,4.22,5.99,4.22,-4.22,-4.27,-3.75,1.77,1.77,1.77
193.33,5.99,4.22,5.99,4.22,-4.22,-4.27,-3.76,1.77,1.77,1.77
195.27,5.99,4.22,5.99,4.22,-4.22,-4.26,-3.78,1.77,1.77,1.77
197.22,5.99,4.22,5.99,4.22,-4.22,-4.25,-3.80,1.76,1.77,1.77
199.19,5.99,4.22,5.99,4.22,-4.22,-4.25,-3.83,1.76,1.77,1.77
201.18,6.00,4.22,5.99,4.22,-4.22,-4.24,-3.85,1.77,1.77,1.78
203.19,6.00,4.22,6.00,4.22,-4.22,-4.23,-3.88,1.77,1.78,1.78
205.23,6.01,4.22,6.01,4.22,-4.22,-4.22,-3.90,1.78,1.78,1.79
207.28,6.02,4.23,6.01,4.22,-4.22,-4.21,-3.93,1.80,1.79,1.79
209.35,6.01,4.22,6.01,4.22,-4.21,-4.20,-3.96,1.79,1.80,1.79
211.44,6.00,4.20,6.00,4.21,-4.20,-4.18,-3.99,1.79,1.80,1.80
213.56,5.99,4.19,5.98,4.19,-4.19,-4.17,-4.02,1.80,1.80,1.80
215.69,5.97,4.17,5.97,4.17,-4.17,-4.16,-4.05,1.80,1.80,1.80
217.85,5.95,4.15,5.94,4.14,-4.14,-4.14,-4.08,1.80,1.80,1.80
220.03,5.92,4.11,5.92,4.11,-4.11,-4.12,-4.11,1.80,1.80,1.81
222.23,5.89,4.08,5.89,4.08,-4.08,-4.11,-4.14,1.80,1.80,1.81
224.45,5.86,4.05,5.86,4.05,-4.05,-4.09,-4.16,1.81,1.81,1.81
226.70,5.83,4.02,5.83,4.02,-4.02,-4.07,-4.19,1.81,1.81,1.81
228.96,5.80,3.98,5.80,3.98,-3.98,-4.05,-4.21,1.81,1.81,1.82
231.25,5.77,3.95,5.76,3.95,-3.95,-4.04,-4.23,1.82,1.81,1.82
233.57,5.74,3.92,5.74,3.92,-3.92,-4.02,-4.24,1.82,1.82,1.82
235.90,5.71,3.88,5.71,3.89,-3.89,-3.99,-4.25,1.81,1.82,1.83
238.26,5.70,3.87,5.69,3.86,-3.87,-3.97,-4.26,1.83,1.82,1.83
240.64,5.68,3.84,5.68,3.84,-3.85,-3.95,-4.27,1.83,1.83,1.84
243.05,5.67,3.82,5.67,3.83,-3.83,-3.93,-4.27,1.84,1.84,1.85
245.48,5.67,3.81,5.66,3.81,-3.81,-3.90,-4.26,1.85,1.85,1.86
247.93,5.66,3.80,5.66,3.80,-3.80,-3.88,-4.25,1.86,1.86,1.86
250.41,5.65,3.78,5.65,3.78,-3.78,-3.85,-4.24,1.87,1.87,1.87
252.92,5.65,3.77,5.64,3.77,-3.76,-3.83,-4.22,1.89,1.88,1.88
255.45,5.63,3.74,5.63,3.74,-3.74,-3.80,-4.20,1.89,1.89,1.89
258.00,5.61,3.72,5.61,3.72,-3.71,-3.77,-4.17,1.90,1.90,1.89
260.58,5.58,3.68,5.58,3.68,-3.68,-3.74,-4.14,1.89,1.90,1.90
263.19,5.55,3.65,5.55,3.65,-3.65,-3.72,-4.10,1.90,1.90,1.90
265.82,5.52,3.62,5.52,3.61,-3.62,-3.69,-4.06,1.90,1.90,1.90
268.48,5.49,3.58,5.49,3.58,-3.59,-3.66,-4.02,1.90,1.90,1.91
271.16,5.46,3.55,5.46,3.55,-3.56,-3.63,-3.97,1.90,1.90,1.91
273.87,5.44,3.53,5.43,3.52,-3.53,-3.59,-3.92,1.91,1.91,1.91
276.61,5.41,3.49,5.41,3.50,-3.50,-3.56,-3.86,1.91,1.91,1.92
279.38,5.40,3.48,5.39,3.47,-3.48,-3.53,-3.81,1.92,1.92,1.92
282.17,5.38,3.45,5.37,3.45,-3.45,-3.50,-3.75,1.92,1.92,1.93
284.99,5.36,3.43,5.36,3.43,-3.43,-3.46,-3.69,1.93,1.93,1.93
287.84,5.34,3.41,5.34,3.41,-3.41,-3.43,-3.62,1.93,1.93,1.93
290.72,5.32,3.39,5.32,3.39,-3.39,-3.40,-3.56,1.93,1.93,1.93
293.63,5.30,3.37,5.30,3.37,-3.37,-3.36,-3.50,1.93,1.93,1.93
296.57,5.28,3.35,5.28,3.35,-3.35,-3.33,-3.43,1.93,1.93,1.93
299.53,5.26,3.32,5.26,3.32,-3.32,-3.29,-3.37,1.93,1.93,1.94
302.53,5.24,3.30,5.23,3.30,-3.30,-3.26,-3.30,1.94,1.93,1.94
305.55,5.21,3.27,5.21,3.27,-3.27,-3.22,-3.24,1.93,1.94,1.94
308.61,5.19,3.24,5.19,3.24,-3.24,-3.18,-3.17,1.94,1.94,1.95
311.69,5.17,3.22,5.16,3.22,-3.21,-3.15,-3.11,1.95,1.95,1.95
314.81,5.14,3.18,5.14,3.18,-3.18,-3.11,-3.05,1.96,1.96,1.96
317.96,5.11,3.15,5.10,3.15,-3.14,-3.07,-2.98,1.97,1.96,1.96
321.14,5.07,3.10,5.07,3.11,-3.10,-3.03,-2.92,1.96,1.97,1.97
324.35,5.04,3.07,5.03,3.07,-3.07,-3.00,-2.87,1.97,1.97,1.97
327.59,5.00,3.03,4.99,3.02,-3.03,-2.96,-2.81,1.97,1.97,1.97
330.87,4.96,2.98,4.96,2.98,-2.99,-2.92,-2.75,1.96,1.97,1.98
334.18,4.93,2.94,4.93,2.95,-2.96,-2.88,-2.70,1.97,1.97,1.99
337.52,4.91,2.92,4.91,2.92,-2.92,-2.84,-2.65,1.98,1.98,1.99
340.90,4.89,2.89,4.88,2.89,-2.89,-2.80,-2.60,2.00,1.99,2.00
344.30,4.86,2.86,4.86,2.86,-2.85,-2.76,-2.55,2.00,2.00,2.00
347.75,4.83,2.83,4.83,2.83,-2.82,-2.72,-2.50,2.01,2.01,2.00
351.23,4.79,2.79,4.79,2.79,-2.78,-2.68,-2.46,2.01,2.01,2.00
354.74,4.75,2.74,4.74,2.74,-2.73,-2.65,-2.41,2.01,2.01,2.01
358.28,4.70,2.69,4.70,2.69,-2.69,-2.61,-2.37,2.01,2.01,2.01
361.87,4.65,2.64,4.65,2.64,-2.65,-2.57,-2.33,2.00,2.00,2.01
365.49,4.61,2.60,4.60,2.60,-2.60,-2.53,-2.30,2.00,2.00,2.01
369.14,4.56,2.55,4.56,2.55,-2.56,-2.49,-2.26,1.99,1.99,2.01
372.83,4.53,2.52,4.53,2.52,-2.53,-2.45,-2.23,2.00,2.00,2.01
376.56,4.50,2.48,4.50,2.49,-2.50,-2.41,-2.19,2.00,2.00,2.02
380.33,4.49,2.47,4.48,2.47,-2.47,-2.37,-2.16,2.02,2.02,2.02
384.13,4.47,2.45,4.46,2.45,-2.44,-2.33,-2.14,2.03,2.03,2.02
387.97,4.45,2.43,4.44,2.42,-2.41,-2.29,-2.11,2.04,2.04,2.02
391.85,4.41,2.38,4.41,2.39,-2.37,-2.25,-2.08,2.03,2.04,2.03
395.77,4.38,2.35,4.37,2.35,-2.34,-2.21,-2.06,2.03,2.03,2.03
399.73,4.34,2.30,4.34,2.30,-2.31,-2.17,-2.04,2.02,2.02,2.04
403.72,4.31,2.27,4.31,2.27,-2.28,-2.13,-2.01,2.02,2.02,2.04
407.76,4.28,2.23,4.28,2.23,-2.25,-2.09,-1.99,2.03,2.03,2.05
411.84,4.26,2.21,4.26,2.21,-2.22,-2.05,-1.97,2.04,2.04,2.05
415.96,4.25,2.19,4.24,2.19,-2.18,-2.01,-1.95,2.06,2.06,2.06
420.12,4.23,2.17,4.22,2.17,-2.15,-1.97,-1.94,2.08,2.07,2.06
424.32,4.20,2.14,4.19,2.13,-2.12,-1.93,-1.92,2.08,2.08,2.06
428.56,4.15,2.08,4.15,2.09,-2.08,-1.89,-1.90,2.06,2.07,2.07
432.85,4.11,2.04,4.10,2.04,-2.04,-1.85,-1.88,2.06,2.06,2.07
437.18,4.06,1.99,4.06,1.99,-2.00,-1.81,-1.87,2.05,2.06,2.07
441.55,4.02,1.95,4.02,1.95,-1.96,-1.77,-1.85,2.06,2.06,2.07
445.96,3.99,1.92,3.98,1.92,-1.92,-1.74,-1.83,2.07,2.06,2.07
450.42,3.95,1.88,3.94,1.88,-1.87,-1.70,-1.81,2.07,2.07,2.07
454.93,3.90,1.83,3.90,1.83,-1.83,-1.66,-1.79,2.06,2.07,2.07
459.48,3.86,1.79,3.86,1.79,-1.79,-1.62,-1.77,2.06,2.06,2.07
464.07,3.82,1.75,3.82,1.75,-1.75,-1.58,-1.75,2.06,2.06,2.07
468.71,3.78,1.71,3.78,1.71,-1.71,-1.54,-1.73,2.07,2.07,2.07
473.40,3.74,1.67,3.74,1.67,-1.66,-1.50,-1.71,2.07,2.07,2.07
478.13,3.70,1.62,3.69,1.62,-1.61,-1.46,-1.68,2.08,2.08,2.08
482.91,3.65,1.57,3.65,1.57,-1.57,-1.42,-1.66,2.08,2.08,2.08
487.74,3.60,1.52,3.60,1.52,-1.52,-1.39,-1.63,2.08,2.08,2.08
492.62,3.55,1.47,3.54,1.46,-1.47,-1.35,-1.60,2.07,2.07,2.08
497.55,3.50,1.41,3.50,1.41,-1.42,-1.31,-1.57,2.07,2.07,2.09
502.52,3.45,1.36,3.45,1.37,-1.38,-1.27,-1.53,2.07,2.08,2.09
507.55,3.42,1.33,3.42,1.33,-1.33,-1.23,-1.50,2.09,2.09,2.09
512.62,3.39,1.30,3.38,1.29,-1.28,-1.19,-1.46,2.11,2.10,2.09
517.75,3.34,1.24,3.34,1.24,-1.23,-1.16,-1.42,2.11,2.11,2.10
522.93,3.29,1.19,3.28,1.19,-1.18,-1.12,-1.38,2.10,2.10,2.10
528.16,3.23,1.13,3.23,1.13,-1.14,-1.08,-1.34,2.09,2.09,2.10
533.44,3.18,1.08,3.18,1.08,-1.09,-1.04,-1.29,2.09,2.09,2.10
538.77,3.13,1.02,3.13,1.03,-1.04,-1.00,-1.25,2.09,2.09,2.11
544.16,3.09,0.98,3.09,0.98,-0.98,-0.96,-1.20,2.10,2.10,2.11
549.60,3.05,0.94,3.04,0.94,-0.93,-0.93,-1.15,2.12,2.11,2.11
555.10,3.00,0.89,3.00,0.89,-0.88,-0.89,-1.10,2.12,2.12,2.11
560.65,2.95,0.84,2.94,0.84,-0.83,-0.85,-1.04,2.12,2.12,2.11
566.25,2.89,0.78,2.89,0.78,-0.78,-0.81,-0.99,2.11,2.11,2.11
571.92,2.83,0.71,2.83,0.72,-0.73,-0.77,-0.94,2.10,2.10,2.12
577.64,2.78,0.66,2.78,0.66,-0.67,-0.73,-0.88,2.10,2.11,2.12
583.41,2.74,0.62,2.74,0.62,-0.62,-0.69,-0.82,2.12,2.12,2.12
589.25,2.70,0.58,2.69,0.57,-0.57,-0.65,-0.76,2.13,2.13,2.12
595.14,2.65,0.52,2.64,0.52,-0.51,-0.61,-0.71,2.13,2.13,2.13
601.09,2.59,0.46,2.59,0.46,-0.46,-0.57,-0.65,2.12,2.13,2.13
607.10,2.54,0.41,2.54,0.41,-0.41,-0.54,-0.59,2.12,2.12,2.13
613.17,2.49,0.35,2.49,0.35,-0.36,-0.50,-0.52,2.13,2.13,2.14
619.30,2.44,0.30,2.44,0.31,-0.31,-0.46,-0.46,2.13,2.13,2.14
625.50,2.40,0.26,2.39,0.26,-0.25,-0.41,-0.40,2.14,2.14,2.14
631.75,2.35,0.21,2.34,0.20,-0.20,-0.37,-0.34,2.15,2.15,2.14
638.07,2.29,0.14,2.29,0.14,-0.14,-0.33,-0.28,2.14,2.15,2.15
644.45,2.23,0.08,2.23,0.09,-0.09,-0.29,-0.21,2.14,2.14,2.15
650.89,2.18,0.03,2.18,0.03,-0.03,-0.25,-0.15,2.14,2.14,2.15
657.40,2.13,-0.02,2.12,-0.03,0.03,-0.21,-0.08,2.15,2.15,2.15
663.98,2.07,-0.09,2.07,-0.08,0.08,-0.17,-0.02,2.15,2.15,2.16
670.62,2.02,-0.14,2.01,-0.14,0.14,-0.12,0.05,2.16,2.15,2.16
677.32,1.96,-0.20,1.96,-0.20,0.20,-0.08,0.11,2.16,2.16,2.16
684.10,1.90,-0.26,1.90,-0.25,0.26,-0.04,0.18,2.15,2.16,2.16
690.94,1.85,-0.31,1.84,-0.31,0.32,0.01,0.24,2.16,2.16,2.16
697.85,1.79,-0.37,1.78,-0.37,0.38,0.05,0.31,2.16,2.16,2.16
704.83,1.73,-0.44,1.73,-0.44,0.44,0.09,0.37,2.16,2.16,2.17
711.87,1.67,-0.50,1.67,-0.50,0.49,0.14,0.44,2.16,2.16,2.17
718.99,1.62,-0.55,1.61,-0.56,0.55,0.19,0.51,2.17,2.16,2.17
726.18,1.56,-0.61,1.56,-0.61,0.61,0.23,0.58,2.16,2.16,2.17
733.44,1.50,-0.67,1.50,-0.67,0.67,0.28,0.64,2.16,2.17,2.17
740.78,1.45,-0.72,1.45,-0.72,0.72,0.33,0.71,2.17,2.17,2.17
748.19,1.40,-0.77,1.39,-0.77,0.78,0.37,0.78,2.18,2.17,2.17
755.67,1.34,-0.83,1.34,-0.83,0.84,0.42,0.85,2.17,2.18,2.17
763.23,1.29,-0.89,1.28,-0.89,0.89,0.47,0.92,2.18,2.17,2.18
770.86,1.23,-0.95,1.22,-0.95,0.94,0.52,0.99,2.17,2.17,2.18
778.57,1.17,-1.01,1.17,-1.01,1.00,0.57,1.06,2.16,2.17,2.18
786.35,1.12,-1.06,1.12,-1.05,1.05,0.63,1.13,2.16,2.17,2.18
794.22,1.08,-1.09,1.08,-1.09,1.10,0.68,1.20,2.17,2.17,2.17
802.16,1.04,-1.13,1.04,-1.13,1.14,0.73,1.27,2.18,2.18,2.17
810.18,1.00,-1.17,0.99,-1.17,1.18,0.78,1.33,2.18,2.17,2.17
818.28,0.94,-1.23,0.94,-1.23,1.22,0.84,1.40,2.16,2.16,2.17
826.46,0.89,-1.27,0.89,-1.27,1.26,0.90,1.47,2.15,2.15,2.16
834.73,0.84,-1.32,0.84,-1.31,1.30,0.95,1.54,2.14,2.14,2.16
843.08,0.81,-1.34,0.80,-1.34,1.34,1.01,1.61,2.15,2.14,2.15
851.51,0.77,-1.37,0.76,-1.37,1.38,1.07,1.67,2.15,2.14,2.14
860.02,0.72,-1.41,0.71,-1.41,1.42,1.13,1.74,2.14,2.14,2.13
868.62,0.66,-1.46,0.66,-1.46,1.47,1.19,1.80,2.12,2.12,2.12
877.31,0.60,-1.51,0.60,-1.50,1.51,1.25,1.87,2.11,2.11,2.11
886.08,0.54,-1.55,0.54,-1.56,1.56,1.31,1.93,2.10,2.10,2.09
894.94,0.49,-1.61,0.49,-1.62,1.61,1.37,1.99,2.10,2.10,2.10
903.89,0.45,-1.69,0.45,-1.67,1.67,1.43,2.04,2.11,2.11,2.14
912.93,0.41,-1.72,0.40,-1.73,1.73,1.50,2.10,2.13,2.13,2.13
922.06,0.36,-1.77,0.36,-1.79,1.78,1.56,2.15,2.14,2.14,2.13
931.28,0.31,-1.86,0.31,-1.83,1.84,1.63,2.20,2.15,2.15,2.17
940.59,0.26,-1.88,0.25,-1.89,1.89,1.69,2.25,2.15,2.15,2.14
950.00,0.21,-1.93,0.21,-1.95,1.95,1.76,2.29,2.15,2.15,2.14
959.50,0.16,-2.01,0.16,-2.00,1.99,1.82,2.33,2.15,2.16,2.17
969.09,0.13,-2.07,0.12,-2.06,2.04,1.89,2.36,2.17,2.16,2.20
978.78,0.09,-2.10,0.08,-2.09,2.09,1.96,2.40,2.17,2.17,2.19
988.57,0.05,-2.10,0.05,-2.12,2.13,2.02,2.43,2.18,2.18,2.15
998.46,0.01,-2.16,0.00,-2.16,2.17,2.09,2.45,2.18,2.18,2.17
1008.44,-0.03,-2.22,-0.03,-2.21,2.21,2.16,2.47,2.18,2.18,2.19
1018.53,-0.06,-2.26,-0.06,-2.25,2.26,2.23,2.49,2.19,2.19,2.20
1028.71,-0.08,-2.28,-0.08,-2.29,2.30,2.29,2.50,2.22,2.22,2.20
1039.00,-0.10,-2.34,-0.11,-2.34,2.35,2.36,2.52,2.24,2.24,2.24
1049.39,-0.12,-2.39,-0.13,-2.39,2.39,2.42,2.52,2.27,2.26,2.27
1059.88,-0.15,-2.45,-0.15,-2.44,2.44,2.49,2.53,2.28,2.29,2.30
1070.48,-0.17,-2.47,-0.17,-2.48,2.48,2.55,2.53,2.30,2.31,2.30
1081.19,-0.18,-2.51,-0.19,-2.52,2.51,2.61,2.53,2.33,2.33,2.33
1092.00,-0.19,-2.58,-0.19,-2.55,2.54,2.67,2.52,2.35,2.35,2.39
1102.92,-0.19,-2.56,-0.19,-2.58,2.56,2.73,2.52,2.37,2.37,2.37
1113.95,-0.19,-2.58,-0.19,-2.59,2.58,2.78,2.51,2.39,2.38,2.39
1125.09,-0.19,-2.62,-0.19,-2.59,2.59,2.84,2.50,2.40,2.40,2.43
1136.34,-0.19,-2.59,-0.19,-2.60,2.60,2.89,2.49,2.41,2.41,2.40
1147.70,-0.19,-2.59,-0.20,-2.60,2.61,2.93,2.48,2.42,2.42,2.40
1159.18,-0.19,-2.61,-0.19,-2.60,2.63,2.98,2.46,2.43,2.43,2.42
1170.77,-0.18,-2.61,-0.18,-2.62,2.64,3.02,2.45,2.45,2.45,2.43
1182.48,-0.16,-2.64,-0.17,-2.65,2.64,3.06,2.44,2.48,2.48,2.48
1194.30,-0.14,-2.67,-0.15,-2.67,2.65,3.09,2.42,2.51,2.51,2.53
1206.25,-0.12,-2.71,-0.12,-2.68,2.66,3.13,2.41,2.54,2.54,2.59
1218.31,-0.09,-2.67,-0.09,-2.68,2.66,3.15,2.39,2.57,2.57,2.58
1230.49,-0.06,-2.66,-0.06,-2.67,2.67,3.18,2.38,2.60,2.60,2.60
1242.80,-0.03,-2.68,-0.03,-2.66,2.67,3.20,2.37,2.64,2.64,2.65
1255.22,-0.00,-2.65,-0.00,-2.66,2.68,3.21,2.36,2.67,2.67,2.65
1267.78,0.03,-2.65,0.02,-2.66,2.68,3.22,2.35,2.71,2.70,2.68
1280.45,0.05,-2.69,0.05,-2.67,2.69,3.23,2.34,2.73,2.73,2.74
1293.26,0.07,-2.68,0.07,-2.69,2.70,3.24,2.33,2.76,2.76,2.75
1306.19,0.09,-2.71,0.09,-2.72,2.70,3.24,2.32,2.79,2.79,2.80
1319.25,0.12,-2.75,0.12,-2.73,2.71,3.23,2.32,2.83,2.83,2.87
1332.45,0.15,-2.74,0.15,-2.74,2.72,3.23,2.32,2.87,2.87,2.89
1345.77,0.18,-2.73,0.18,-2.73,2.73,3.22,2.31,2.90,2.90,2.91
1359.23,0.21,-2.72,0.20,-2.72,2.73,3.20,2.32,2.93,2.93,2.93
1372.82,0.23,-2.72,0.23,-2.72,2.73,3.19,2.32,2.96,2.96,2.95
1386.55,0.25,-2.72,0.25,-2.72,2.73,3.17,2.32,2.98,2.98,2.97
1400.41,0.27,-2.73,0.27,-2.73,2.73,3.15,2.33,3.00,3.00,3.00
1414.42,0.30,-2.73,0.29,-2.74,2.74,3.13,2.34,3.04,3.03,3.03
1428.56,0.32,-2.75,0.32,-2.75,2.75,3.10,2.35,3.07,3.06,3.07
1442.85,0.34,-2.77,0.34,-2.76,2.76,3.08,2.36,3.10,3.10,3.11
1457.28,0.37,-2.78,0.37,-2.78,2.78,3.05,2.37,3.15,3.15,3.15
1471.85,0.40,-2.80,0.40,-2.80,2.80,3.03,2.39,3.20,3.19,3.20
1486.57,0.43,-2.82,0.43,-2.82,2.82,3.00,2.40,3.25,3.25,3.25
1501.43,0.46,-2.84,0.46,-2.84,2.84,2.97,2.42,3.30,3.30,3.30
1516.45,0.49,-2.86,0.48,-2.86,2.86,2.95,2.44,3.35,3.35,3.35
1531.61,0.52,-2.88,0.51,-2.89,2.89,2.92,2.47,3.40,3.40,3.40
1546.93,0.54,-2.92,0.54,-2.91,2.91,2.90,2.49,3.45,3.45,3.46
1562.40,0.58,-2.93,0.57,-2.93,2.94,2.87,2.52,3.51,3.51,3.51
1578.02,0.61,-2.95,0.60,-2.96,2.96,2.85,2.54,3.56,3.56,3.56
1593.80,0.64,-2.98,0.64,-2.98,2.98,2.83,2.57,3.61,3.61,3.62
1609.74,0.67,-3.00,0.67,-3.00,2.99,2.81,2.60,3.66,3.66,3.67
1625.84,0.72,-3.01,0.72,-3.01,3.00,2.80,2.63,3.72,3.72,3.73
1642.10,0.77,-3.02,0.77,-3.02,3.01,2.78,2.66,3.78,3.78,3.79
1658.52,0.84,-3.01,0.83,-3.01,3.01,2.77,2.69,3.85,3.84,3.85
1675.10,0.89,-3.01,0.89,-3.01,3.01,2.77,2.72,3.89,3.90,3.90
1691.85,0.96,-3.00,0.96,-3.00,3.00,2.76,2.75,3.96,3.96,3.96
1708.77,1.03,-2.99,1.02,-2.99,2.99,2.76,2.78,4.02,4.02,4.02
1725.86,1.10,-2.97,1.09,-2.98,2.98,2.76,2.81,4.08,4.08,4.07
1743.12,1.16,-2.97,1.16,-2.97,2.97,2.77,2.84,4.13,4.13,4.13
1760.55,1.22,-2.96,1.22,-2.96,2.96,2.78,2.86,4.18,4.18,4.18
1778.15,1.29,-2.95,1.28,-2.96,2.95,2.79,2.89,4.24,4.24,4.24
1795.94,1.35,-2.95,1.35,-2.95,2.95,2.80,2.91,4.29,4.29,4.30
1813.90,1.42,-2.94,1.42,-2.94,2.94,2.81,2.93,4.35,4.36,4.36
1832.03,1.50,-2.92,1.49,-2.92,2.92,2.83,2.95,4.42,4.42,4.42
1850.36,1.57,-2.91,1.57,-2.91,2.91,2.84,2.97,4.48,4.48,4.48
1868.86,1.65,-2.89,1.64,-2.89,2.89,2.85,2.98,4.54,4.54,4.54
1887.55,1.73,-2.87,1.72,-2.87,2.87,2.86,2.98,4.59,4.59,4.60
1906.42,1.81,-2.85,1.81,-2.84,2.84,2.86,2.99,4.65,4.65,4.66
1925.49,1.91,-2.81,1.91,-2.81,2.81,2.86,2.99,4.72,4.71,4.72
1944.74,2.01,-2.77,2.00,-2.77,2.77,2.84,2.98,4.78,4.78,4.78
1964.19,2.11,-2.73,2.10,-2.73,2.73,2.82,2.97,4.84,4.84,4.84
1983.83,2.21,-2.68,2.21,-2.68,2.69,2.79,2.95,4.89,4.90,4.89
2003.67,2.31,-2.64,2.31,-2.63,2.63,2.75,2.93,4.94,4.95,4.95
2023.71,2.43,-2.58,2.42,-2.59,2.57,2.70,2.91,5.00,4.99,5.01
2043.94,2.53,-2.53,2.53,-2.53,2.51,2.64,2.88,5.04,5.04,5.06
2064.38,2.63,-2.48,2.63,-2.46,2.45,2.57,2.84,5.07,5.08,5.11
2085.03,2.74,-2.36,2.73,-2.38,2.39,2.50,2.80,5.12,5.12,5.10
2105.88,2.84,-2.29,2.84,-2.30,2.32,2.42,2.76,5.16,5.16,5.13
2126.94,2.95,-2.23,2.94,-2.23,2.26,2.33,2.71,5.20,5.20,5.18
2148.20,3.05,-2.18,3.04,-2.18,2.19,2.25,2.65,5.24,5.23,5.23
2169.69,3.14,-2.14,3.14,-2.14,2.13,2.16,2.59,5.26,5.27,5.28
2191.38,3.24,-2.09,3.24,-2.09,2.06,2.07,2.53,5.30,5.30,5.33
2213.30,3.35,-2.03,3.34,-2.01,2.00,1.98,2.47,5.34,5.34,5.38
2235.43,3.45,-1.92,3.45,-1.93,1.93,1.89,2.40,5.38,5.38,5.37
2257.78,3.55,-1.83,3.54,-1.85,1.86,1.81,2.32,5.41,5.40,5.38
2280.36,3.64,-1.79,3.64,-1.79,1.79,1.72,2.25,5.43,5.43,5.43
2303.17,3.74,-1.74,3.74,-1.72,1.72,1.64,2.17,5.45,5.46,5.48
2326.20,3.85,-1.65,3.84,-1.64,1.64,1.57,2.09,5.49,5.49,5.50
2349.46,3.95,-1.53,3.94,-1.56,1.57,1.49,2.01,5.52,5.51,5.48
2372.95,4.04,-1.49,4.04,-1.50,1.50,1.42,1.93,5.54,5.54,5.53
2396.68,4.13,-1.46,4.13,-1.44,1.44,1.35,1.84,5.56,5.57,5.59
2420.65,4.23,-1.40,4.22,-1.38,1.37,1.28,1.76,5.59,5.59,5.63
2444.86,4.32,-1.29,4.32,-1.31,1.30,1.22,1.67,5.62,5.62,5.61
2469.31,4.41,-1.23,4.41,-1.23,1.23,1.16,1.58,5.64,5.64,5.64
2494.00,4.50,-1.18,4.49,-1.16,1.17,1.10,1.50,5.67,5.66,5.68
2518.94,4.58,-1.08,4.57,-1.10,1.11,1.04,1.41,5.68,5.68,5.66
2544.13,4.65,-1.05,4.65,-1.05,1.04,0.99,1.32,5.69,5.69,5.70
2569.57,4.72,-1.00,4.71,-0.99,0.99,0.93,1.23,5.70,5.70,5.72
2595.27,4.78,-0.93,4.78,-0.93,0.93,0.88,1.14,5.71,5.71,5.71
2621.22,4.83,-0.86,4.83,-0.88,0.88,0.83,1.05,5.71,5.71,5.69
2647.43,4.88,-0.82,4.87,-0.83,0.84,0.78,0.96,5.71,5.71,5.70
2673.90,4.91,-0.83,4.91,-0.80,0.80,0.73,0.87,5.70,5.71,5.74
2700.64,4.95,-0.76,4.95,-0.76,0.76,0.68,0.78,5.70,5.71,5.71
2727.65,4.98,-0.71,4.98,-0.71,0.73,0.63,0.69,5.70,5.70,5.69
2754.93,5.01,-0.65,5.00,-0.68,0.69,0.58,0.60,5.70,5.70,5.66
2782.48,5.02,-0.68,5.02,-0.66,0.66,0.53,0.51,5.68,5.68,5.70
2810.30,5.03,-0.66,5.03,-0.64,0.63,0.48,0.42,5.66,5.66,5.69
2838.40,5.04,-0.61,5.03,-0.62,0.60,0.44,0.33,5.64,5.63,5.65
2866.79,5.04,-0.57,5.04,-0.57,0.57,0.39,0.24,5.60,5.60,5.61
2895.46,5.04,-0.53,5.04,-0.53,0.53,0.34,0.15,5.57,5.57,5.57
2924.41,5.04,-0.48,5.03,-0.48,0.49,0.29,0.06,5.53,5.53,5.52
2953.65,5.03,-0.44,5.03,-0.44,0.45,0.24,-0.03,5.48,5.48,5.47
2983.19,5.02,-0.40,5.02,-0.40,0.40,0.19,-0.12,5.41,5.42,5.42
3013.02,5.02,-0.35,5.02,-0.35,0.34,0.14,-0.20,5.36,5.36,5.37
3043.15,5.02,-0.30,5.02,-0.30,0.28,0.09,-0.29,5.30,5.30,5.32
3073.58,5.02,-0.25,5.02,-0.23,0.22,0.03,-0.38,5.24,5.24,5.27
3104.32,5.02,-0.16,5.01,-0.15,0.16,-0.02,-0.47,5.18,5.18,5.18
3135.36,5.01,-0.05,5.00,-0.08,0.10,-0.08,-0.56,5.11,5.11,5.06
3166.72,5.00,-0.01,5.00,-0.01,0.03,-0.14,-0.64,5.03,5.03,5.01
3198.38,4.99,0.04,4.99,0.04,-0.04,-0.20,-0.73,4.95,4.95,4.95
3230.37,5.00,0.10,4.99,0.10,-0.11,-0.26,-0.82,4.88,4.88,4.90
3262.67,5.00,0.16,5.00,0.18,-0.19,-0.32,-0.90,4.80,4.80,4.84
3295.30,5.01,0.27,5.01,0.26,-0.28,-0.39,-0.99,4.73,4.73,4.74
3328.25,5.02,0.38,5.02,0.36,-0.37,-0.45,-1.07,4.64,4.65,4.64
3361.53,5.04,0.45,5.04,0.48,-0.47,-0.52,-1.15,4.57,4.57,4.59
3395.15,5.07,0.59,5.07,0.58,-0.58,-0.59,-1.23,4.49,4.49,4.48
3429.10,5.11,0.71,5.10,0.69,-0.69,-0.67,-1.30,4.41,4.41,4.40
3463.39,5.15,0.80,5.14,0.82,-0.81,-0.74,-1.38,4.34,4.33,4.35
3498.03,5.19,0.93,5.19,0.93,-0.93,-0.82,-1.45,4.26,4.26,4.26
3533.01,5.24,1.06,5.24,1.04,-1.04,-0.90,-1.51,4.19,4.19,4.18
3568.34,5.30,1.14,5.30,1.17,-1.16,-0.99,-1.57,4.13,4.13,4.16
3604.02,5.36,1.29,5.36,1.28,-1.28,-1.07,-1.63,4.08,4.08,4.07
3640.06,5.43,1.41,5.42,1.39,-1.40,-1.16,-1.69,4.03,4.02,4.02
3676.46,5.49,1.48,5.49,1.51,-1.51,-1.25,-1.73,3.97,3.98,4.01
3713.22,5.56,1.62,5.56,1.62,-1.62,-1.35,-1.78,3.93,3.94,3.94
3750.36,5.64,1.75,5.63,1.73,-1.73,-1.44,-1.81,3.91,3.90,3.89
3787.86,5.71,1.84,5.71,1.84,-1.83,-1.54,-1.84,3.87,3.87,3.87
3825.74,5.78,1.93,5.78,1.93,-1.93,-1.64,-1.86,3.85,3.85,3.85
3864.00,5.85,2.01,5.84,2.01,-2.02,-1.73,-1.88,3.83,3.83,3.84
3902.64,5.91,2.08,5.91,2.09,-2.09,-1.83,-1.88,3.82,3.82,3.83
3941.66,5.98,2.17,5.97,2.17,-2.16,-1.93,-1.88,3.82,3.82,3.81
3981.08,6.04,2.24,6.04,2.23,-2.21,-2.02,-1.87,3.83,3.82,3.80
4020.89,6.10,2.28,6.10,2.27,-2.26,-2.12,-1.86,3.84,3.84,3.82
4061.10,6.16,2.27,6.16,2.29,-2.30,-2.21,-1.83,3.85,3.86,3.89
4101.71,6.22,2.32,6.21,2.32,-2.34,-2.29,-1.80,3.88,3.87,3.90
4142.73,6.26,2.35,6.26,2.35,-2.37,-2.36,-1.75,3.89,3.89,3.91
4184.15,6.30,2.38,6.30,2.39,-2.39,-2.43,-1.70,3.90,3.91,3.92
4226.00,6.34,2.41,6.33,2.41,-2.41,-2.49,-1.64,3.93,3.93,3.93
4268.26,6.36,2.43,6.35,2.43,-2.41,-2.53,-1.58,3.95,3.94,3.93
4310.94,6.36,2.42,6.36,2.43,-2.40,-2.57,-1.51,3.95,3.96,3.94
4354.05,6.35,2.42,6.35,2.41,-2.39,-2.58,-1.43,3.96,3.97,3.93
4397.59,6.34,2.37,6.33,2.36,-2.36,-2.58,-1.34,3.98,3.97,3.97
4441.56,6.29,2.29,6.28,2.31,-2.32,-2.55,-1.25,3.97,3.97,4.00
4485.98,6.22,2.24,6.21,2.24,-2.26,-2.51,-1.15,3.95,3.95,3.98
4530.84,6.12,2.18,6.12,2.18,-2.20,-2.44,-1.05,3.92,3.92,3.94
4576.15,6.01,2.12,6.01,2.12,-2.12,-2.35,-0.94,3.88,3.88,3.89
4621.91,5.88,2.04,5.87,2.04,-2.04,-2.24,-0.83,3.84,3.83,3.84
4668.13,5.72,1.95,5.72,1.95,-1.94,-2.10,-0.71,3.77,3.78,3.77
4714.81,5.55,1.85,5.54,1.85,-1.84,-1.93,-0.59,3.71,3.71,3.70
4761.96,5.34,1.72,5.34,1.72,-1.71,-1.75,-0.47,3.62,3.62,3.62
4809.58,5.11,1.57,5.10,1.57,-1.57,-1.54,-0.35,3.54,3.53,3.54
4857.67,4.84,1.40,4.84,1.40,-1.41,-1.31,-0.22,3.43,3.44,3.44
4906.25,4.57,1.22,4.56,1.22,-1.22,-1.06,-0.09,3.35,3.34,3.35
4955.31,4.26,1.01,4.26,1.01,-1.01,-0.80,0.04,3.24,3.24,3.25
5004.87,3.93,0.79,3.93,0.79,-0.78,-0.52,0.18,3.14,3.15,3.14
5054.91,3.58,0.54,3.57,0.54,-0.53,-0.23,0.32,3.04,3.04,3.04
5105.46,3.20,0.27,3.19,0.26,-0.26,0.08,0.45,2.94,2.94,2.93
5156.52,2.79,-0.04,2.79,-0.04,0.04,0.39,0.59,2.83,2.83,2.83
5208.08,2.37,-0.36,2.37,-0.36,0.36,0.72,0.74,2.73,2.73,2.73
5260.16,1.93,-0.70,1.92,-0.70,0.71,1.05,0.88,2.63,2.63,2.63
5312.77,1.47,-1.06,1.46,-1.06,1.07,1.38,1.02,2.54,2.53,2.53
5365.89,0.98,-1.44,0.98,-1.44,1.46,1.71,1.17,2.43,2.43,2.42
5419.55,0.48,-1.84,0.47,-1.84,1.86,2.05,1.32,2.33,2.33,2.32
5473.75,-0.05,-2.26,-0.05,-2.26,2.27,2.39,1.47,2.21,2.21,2.21
5528.49,-0.58,-2.68,-0.59,-2.68,2.68,2.72,1.62,2.10,2.09,2.10
5583.77,-1.13,-3.11,-1.13,-3.10,3.10,3.05,1.77,1.97,1.97,1.98
5639.61,-1.67,-3.52,-1.68,-3.52,3.52,3.37,1.93,1.84,1.84,1.85
5696.00,-2.21,-3.93,-2.22,-3.92,3.92,3.69,2.09,1.71,1.70,1.72
5752.96,-2.75,-4.32,-2.76,-4.31,4.32,3.99,2.25,1.57,1.57,1.57
5810.49,-3.28,-4.69,-3.29,-4.68,4.70,4.29,2.41,1.41,1.41,1.41
5868.60,-3.81,-5.04,-3.82,-5.02,5.03,4.57,2.58,1.22,1.22,1.23
5927.28,-4.33,-5.36,-4.33,-5.34,5.32,4.83,2.74,0.99,0.99,1.03
5986.56,-4.83,-5.65,-4.83,-5.61,5.56,5.08,2.91,0.73,0.73,0.82
6046.42,-5.32,-5.89,-5.30,-5.83,5.75,5.31,3.09,0.43,0.45,0.57
6106.89,-5.77,-6.07,-5.76,-6.00,5.89,5.51,3.26,0.11,0.13,0.30
6167.96,-6.23,-6.24,-6.20,-6.16,5.98,5.70,3.44,-0.26,-0.22,0.01
6229.64,-6.67,-6.41,-6.61,-6.29,6.03,5.86,3.62,-0.64,-0.58,-0.26
6291.93,-7.09,-6.57,-7.00,-6.40,6.05,6.00,3.81,-1.05,-0.96,-0.52
6354.85,-7.48,-6.68,-7.36,-6.47,6.04,6.11,3.99,-1.44,-1.31,-0.80
6418.40,-7.85,-6.77,-7.67,-6.50,6.03,6.21,4.18,-1.82,-1.64,-1.08
6482.58,-8.20,-6.83,-7.95,-6.50,6.01,6.28,4.38,-2.19,-1.94,-1.37
6547.41,-8.54,-6.87,-8.20,-6.48,6.00,6.33,4.57,-2.54,-2.20,-1.67
6612.88,-8.89,-6.92,-8.42,-6.43,6.00,6.36,4.77,-2.89,-2.42,-1.97
6679.01,-9.23,-6.95,-8.61,-6.38,6.01,6.37,4.97,-3.23,-2.60,-2.28
6745.80,-9.58,-6.98,-8.76,-6.31,6.01,6.37,5.17,-3.58,-2.75,-2.60
6813.26,-9.91,-6.99,-8.86,-6.23,6.00,6.35,5.37,-3.91,-2.86,-2.92
6881.39,-10.24,-6.98,-8.92,-6.15,5.99,6.33,5.57,-4.25,-2.93,-3.26
6950.21,-10.56,-6.96,-8.94,-6.07,5.97,6.29,5.77,-4.59,-2.96,-3.60
7019.71,-10.87,-6.91,-8.92,-6.00,5.95,6.25,5.97,-4.92,-2.97,-3.96
7089.91,-11.17,-6.84,-8.87,-5.94,5.93,6.21,6.17,-5.24,-2.94,-4.33
7160.81,-11.45,-6.74,-8.81,-5.89,5.91,6.16,6.36,-5.55,-2.90,-4.71
7232.41,-11.72,-6.62,-8.74,-5.86,5.89,6.10,6.55,-5.84,-2.85,-5.10
7304.74,-11.96,-6.40,-8.66,-5.85,5.88,6.05,6.74,-6.09,-2.78,-5.56
7377.79,-12.17,-6.18,-8.57,-5.85,5.87,5.99,6.91,-6.30,-2.70,-5.99
7451.56,-12.36,-5.99,-8.49,-5.86,5.87,5.94,7.07,-6.49,-2.62,-6.37
7526.08,-12.53,-5.79,-8.42,-5.89,5.89,5.89,7.22,-6.65,-2.53,-6.74
7601.34,-12.67,-5.59,-8.35,-5.92,5.91,5.84,7.36,-6.76,-2.44,-7.08
7677.35,-12.79,-5.42,-8.28,-5.94,5.93,5.79,7.48,-6.86,-2.34,-7.37
7754.13,-12.87,-5.27,-8.21,-5.97,5.96,5.75,7.58,-6.92,-2.25,-7.60
7831.67,-12.91,-5.14,-8.14,-5.99,5.98,5.71,7.67,-6.94,-2.16,-7.77
7909.98,-12.92,-5.05,-8.07,-6.01,5.99,5.67,7.73,-6.93,-2.08,-7.87
7989.08,-12.92,-5.02,-8.00,-6.02,6.00,5.63,7.77,-6.92,-2.00,-7.90
8068.98,-12.89,-5.05,-7.93,-6.02,6.01,5.60,7.79,-6.89,-1.92,-7.84
8149.67,-12.84,-5.14,-7.85,-6.03,6.01,5.58,7.79,-6.84,-1.85,-7.70
8231.16,-12.76,-5.28,-7.78,-6.02,6.01,5.55,7.77,-6.76,-1.78,-7.48
8313.47,-12.65,-5.47,-7.71,-6.02,6.00,5.53,7.72,-6.65,-1.71,-7.18
8396.61,-12.50,-5.66,-7.63,-6.01,6.00,5.51,7.66,-6.51,-1.64,-6.84
8480.57,-12.32,-5.84,-7.56,-5.99,5.99,5.50,7.58,-6.34,-1.57,-6.48
8565.38,-12.11,-6.10,-7.48,-5.98,5.98,5.49,7.48,-6.14,-1.51,-6.01
8651.03,-11.87,-6.37,-7.41,-5.96,5.96,5.48,7.36,-5.91,-1.44,-5.50
8737.54,-11.59,-6.63,-7.33,-5.95,5.95,5.48,7.24,-5.65,-1.38,-4.96
8824.92,-11.28,-6.86,-7.24,-5.93,5.93,5.48,7.10,-5.36,-1.32,-4.42
8913.17,-10.93,-7.05,-7.16,-5.90,5.91,5.48,6.96,-5.03,-1.26,-3.88
9002.30,-10.55,-7.20,-7.07,-5.88,5.88,5.48,6.80,-4.67,-1.19,-3.35
9092.32,-10.13,-7.29,-6.99,-5.85,5.85,5.49,6.65,-4.28,-1.14,-2.84
9183.25,-9.67,-7.28,-6.90,-5.82,5.82,5.49,6.49,-3.85,-1.08,-2.39
9275.08,-9.20,-7.20,-6.81,-5.79,5.79,5.51,6.33,-3.41,-1.02,-2.00
9367.83,-8.70,-7.11,-6.72,-5.75,5.75,5.52,6.16,-2.95,-0.97,-1.59
9461.51,-8.18,-7.00,-6.64,-5.72,5.71,5.53,6.00,-2.47,-0.93,-1.18
9556.12,-7.65,-6.86,-6.55,-5.68,5.66,5.55,5.84,-1.99,-0.89,-0.79
9651.68,-7.10,-6.68,-6.47,-5.64,5.62,5.57,5.69,-1.49,-0.85,-0.42
9748.20,-6.56,-6.44,-6.38,-5.59,5.58,5.59,5.54,-0.99,-0.81,-0.12
9845.68,-6.02,-6.20,-6.30,-5.55,5.54,5.61,5.39,-0.48,-0.76,0.18
9944.14,-5.49,-6.00,-6.23,-5.50,5.52,5.64,5.25,0.03,-0.70,0.51
10043.58,-4.97,-5.77,-6.15,-5.45,5.52,5.66,5.11,0.54,-0.64,0.80
10144.02,-4.47,-5.56,-6.29,-5.50,5.53,5.69,4.98,1.05,-0.76,1.09
10245.46,-4.00,-5.37,-6.42,-5.55,5.55,5.71,4.85,1.55,-0.87,1.37
10347.91,-3.58,-5.26,-6.56,-5.60,5.59,5.74,4.73,2.00,-0.97,1.68
10451.39,-3.18,-5.17,-6.71,-5.65,5.64,5.77,4.62,2.46,-1.07,1.99
10555.91,-2.82,-5.10,-6.86,-5.71,5.70,5.80,4.52,2.88,-1.15,2.28
10661.46,-2.48,-4.99,-7.01,-5.76,5.77,5.83,4.42,3.28,-1.24,2.51
10768.08,-2.19,-4.96,-7.17,-5.82,5.83,5.87,4.33,3.63,-1.34,2.77
10875.76,-1.93,-4.96,-7.33,-5.87,5.88,5.90,4.24,3.94,-1.45,3.03
10984.52,-1.72,-4.94,-7.50,-5.93,5.92,5.93,4.16,4.20,-1.58,3.22
11094.36,-1.52,-4.96,-7.67,-5.99,5.95,5.97,4.09,4.43,-1.71,3.44
11205.31,-1.34,-4.99,-7.84,-6.05,5.98,6.00,4.03,4.64,-1.86,3.65
11317.36,-1.18,-5.00,-8.02,-6.11,6.00,6.04,3.98,4.81,-2.02,3.82
11430.53,-1.05,-4.95,-8.21,-6.17,6.01,6.07,3.93,4.95,-2.20,3.90
11544.84,-0.95,-4.92,-8.39,-6.24,6.01,6.11,3.89,5.06,-2.38,3.97
11660.29,-0.87,-4.92,-8.59,-6.30,6.01,6.15,3.86,5.14,-2.58,4.05
11776.89,-0.83,-4.85,-8.79,-6.37,6.00,6.18,3.84,5.17,-2.78,4.02
11894.66,-0.81,-4.79,-8.99,-6.43,6.00,6.22,3.82,5.19,-2.99,3.98
12013.60,-0.83,-4.76,-9.19,-6.50,6.00,6.26,3.82,5.17,-3.19,3.93
12133.74,-0.90,-4.66,-9.40,-6.57,6.00,6.29,3.82,5.10,-3.40,3.76
12255.08,-0.99,-4.56,-9.62,-6.64,6.00,6.33,3.83,5.01,-3.62,3.57
12377.63,-1.12,-4.47,-9.84,-6.71,6.00,6.37,3.86,4.88,-3.84,3.35
12501.41,-1.30,-4.39,-10.06,-6.78,6.00,6.40,3.89,4.70,-4.06,3.09
12626.42,-1.51,-4.33,-10.29,-6.86,6.00,6.44,3.93,4.49,-4.29,2.82
12752.68,-1.75,-4.24,-10.52,-6.93,6.00,6.47,3.99,4.25,-4.52,2.49
12880.21,-2.01,-4.10,-10.76,-7.01,6.00,6.51,4.05,3.99,-4.76,2.09
13009.01,-2.29,-4.01,-11.00,-7.08,6.00,6.54,4.13,3.71,-5.00,1.72
13139.10,-2.59,-3.90,-11.24,-7.16,6.00,6.58,4.23,3.41,-5.24,1.31
13270.49,-2.94,-3.79,-11.49,-7.24,6.00,6.61,4.33,3.06,-5.49,0.85
13403.20,-3.31,-3.74,-11.75,-7.32,6.00,6.64,4.46,2.69,-5.75,0.43
13537.23,-3.73,-3.70,-12.01,-7.40,6.00,6.67,4.60,2.27,-6.01,-0.03
13672.60,-4.21,-3.68,-12.27,-7.48,6.00,6.70,4.75,1.79,-6.27,-0.53
13809.33,-4.74,-3.75,-12.54,-7.56,6.00,6.73,4.93,1.26,-6.54,-0.99
13947.42,-5.35,-3.86,-12.81,-7.65,6.00,6.76,5.13,0.65,-6.81,-1.49
14086.90,-6.04,-4.00,-13.08,-7.73,6.00,6.79,5.34,-0.04,-7.08,-2.04
14227.77,-6.81,-4.28,-13.36,-7.82,6.00,6.81,5.59,-0.81,-7.36,-2.53
14370.04,-7.67,-4.59,-13.65,-7.91,6.00,6.83,5.85,-1.67,-7.65,-3.08
14513.74,-8.61,-4.95,-13.94,-8.00,6.00,6.86,6.14,-2.61,-7.94,-3.66
14658.88,-9.61,-5.37,-14.23,-8.09,6.00,6.88,6.45,-3.61,-8.23,-4.24
14805.47,-10.66,-5.84,-14.53,-8.18,6.00,6.89,6.78,-4.66,-8.53,-4.82
14953.52,-11.74,-6.36,-14.83,-8.27,6.00,6.91,7.13,-5.74,-8.83,-5.38
15103.06,-12.83,-6.90,-15.14,-8.36,6.00,6.92,7.49,-6.83,-9.14,-5.93
15254.09,-13.93,-7.49,-15.45,-8.46,6.00,6.93,7.85,-7.93,-9.45,-6.44
15406.63,-15.00,-8.03,-15.76,-8.55,6.00,6.94,8.19,-9.00,-9.76,-6.97
15560.70,-16.02,-8.49,-16.08,-8.65,6.00,6.94,8.49,-10.02,-10.08,-7.53
15716.30,-16.98,-8.91,-16.41,-8.75,6.00,6.94,8.73,-10.98,-10.41,-8.07
15873.47,-17.87,-9.32,-16.74,-8.84,6.00,6.94,8.87,-11.87,-10.74,-8.55
16032.20,-18.69,-9.72,-17.07,-8.94,6.00,6.93,8.88,-12.69,-11.07,-8.97
16192.52,-19.43,-10.00,-17.41,-9.04,6.00,6.92,8.75,-13.43,-11.41,-9.43
16354.45,-20.09,-10.21,-17.75,-9.15,6.00,6.90,8.49,-14.09,-11.75,-9.88
16517.99,-20.69,-10.38,-18.09,-9.25,6.00,6.88,8.09,-14.69,-12.09,-10.31
16683.17,-21.24,-10.55,-18.44,-9.35,6.00,6.85,7.60,-15.24,-12.44,-10.69
16850.01,-21.78,-10.65,-18.80,-9.46,6.00,6.82,7.05,-15.78,-12.80,-11.13
17018.51,-22.32,-10.70,-19.16,-9.57,6.00,6.77,6.47,-16.32,-13.16,-11.62
17188.69,-22.89,-10.75,-19.52,-9.67,6.00,6.72,5.88,-16.89,-13.52,-12.14
17360.58,-23.49,-10.86,-19.89,-9.78,6.00,6.66,5.30,-17.49,-13.89,-12.63
17534.18,-24.13,-11.00,-20.26,-9.89,6.00,6.59,4.75,-18.13,-14.26,-13.13
17709.53,-24.81,-11.15,-20.64,-10.00,6.00,6.51,4.22,-18.81,-14.64,-13.66
17886.62,-25.50,-11.33,-21.02,-10.11,6.00,6.42,3.74,-19.50,-15.02,-14.17
18065.49,-26.13,-11.56,-21.40,-10.23,6.00,6.32,3.29,-20.13,-15.40,-14.57
18246.14,-26.75,-11.84,-21.79,-10.34,6.00,6.20,2.88,-20.75,-15.79,-14.91
18428.60,-27.38,-12.08,-22.19,-10.46,6.00,6.06,2.51,-21.38,-16.19,-15.30
18612.89,-28.01,-12.33,-22.58,-10.57,6.00,5.90,2.18,-22.01,-16.58,-15.68
18799.02,-28.64,-12.60,-22.99,-10.69,6.00,5.73,1.88,-22.64,-16.99,-16.04
18987.01,-29.27,-12.89,-23.39,-10.81,6.00,5.53,1.61,-23.27,-17.39,-16.38
19176.88,-29.91,-13.23,-23.81,-10.93,6.00,5.30,1.36,-23.91,-17.81,-16.68
19368.65,-30.54,-13.58,-24.22,-11.05,6.00,5.05,1.15,-24.54,-18.22,-16.96
19562.33,-31.18,-13.97,-24.64,-11.17,6.00,4.76,0.96,-25.18,-18.64,-17.21
19757.96,-31.82,-14.39,-25.07,-11.29,6.00,4.45,0.79,-25.82,-19.07,-17.43
19955.54,-32.46,-14.81,-25.50,-11.42,6.00,4.09,0.64,-26.46,-19.50,-17.65
