frequency,raw,error,smoothed,error_smoothed,equalization,parametric_eq,fixed_band_eq,equalized_raw,equalized_smoothed,target
20.00,-41.27,-27.81,-41.27,-27.81,6.00,5.74,2.72,-35.27,-35.27,-13.46
20.20,-41.05,-27.68,-41.05,-27.68,6.00,5.76,2.80,-35.05,-35.05,-13.37
20.40,-40.83,-27.55,-40.83,-27.55,6.00,5.77,2.88,-34.83,-34.83,-13.28
20.61,-40.61,-27.40,-40.61,-27.41,6.00,5.78,2.96,-34.61,-34.61,-13.21
20.81,-40.39,-27.27,-40.39,-27.27,6.00,5.79,3.05,-34.39,-34.39,-13.12
21.02,-40.17,-27.13,-40.17,-27.12,6.00,5.80,3.13,-34.17,-34.17,-13.04
21.23,-39.95,-26.97,-39.95,-26.97,6.00,5.81,3.22,-33.95,-33.95,-12.98
21.44,-39.73,-26.81,-39.73,-26.82,6.00,5.82,3.31,-33.73,-33.73,-12.92
21.66,-39.51,-26.66,-39.51,-26.66,6.00,5.82,3.41,-33.51,-33.51,-12.85
21.87,-39.30,-26.50,-39.29,-26.50,6.00,5.82,3.50,-33.30,-33.29,-12.80
22.09,-39.08,-26.33,-39.08,-26.33,6.00,5.82,3.60,-33.08,-33.08,-12.75
22.31,-38.86,-26.16,-38.86,-26.16,6.00,5.82,3.71,-32.86,-32.86,-12.70
22.54,-38.64,-25.99,-38.64,-25.99,6.00,5.82,3.81,-32.64,-32.64,-12.65
22.76,-38.42,-25.81,-38.42,-25.81,6.00,5.82,3.92,-32.42,-32.42,-12.61
22.99,-38.20,-25.63,-38.20,-25.63,6.00,5.82,4.03,-32.20,-32.20,-12.57
23.22,-37.98,-25.45,-37.98,-25.45,6.00,5.82,4.14,-31.98,-31.98,-12.53
23.45,-37.77,-25.29,-37.77,-25.28,6.00,5.81,4.25,-31.77,-31.77,-12.48
23.69,-37.55,-25.11,-37.55,-25.11,6.00,5.81,4.37,-31.55,-31.55,-12.44
23.92,-37.34,-24.93,-37.33,-24.94,6.00,5.81,4.49,-31.34,-31.33,-12.40
24.16,-37.12,-24.77,-37.12,-24.77,6.00,5.80,4.61,-31.12,-31.12,-12.35
24.40,-36.91,-24.59,-36.91,-24.59,6.00,5.80,4.73,-30.91,-30.91,-12.31
24.65,-36.70,-24.42,-36.69,-24.41,6.00,5.80,4.86,-30.70,-30.69,-12.28
24.89,-36.48,-24.23,-36.48,-24.24,6.00,5.80,4.99,-30.48,-30.48,-12.24
25.14,-36.27,-24.06,-36.27,-24.06,6.00,5.79,5.11,-30.27,-30.27,-12.20
25.39,-36.06,-23.89,-36.06,-23.89,6.00,5.79,5.24,-30.06,-30.06,-12.16
25.65,-35.85,-23.72,-35.85,-23.72,6.00,5.79,5.37,-29.85,-29.85,-12.13
25.91,-35.64,-23.55,-35.64,-23.55,6.00,5.79,5.50,-29.64,-29.64,-12.10
26.16,-35.43,-23.37,-35.43,-23.37,6.00,5.79,5.63,-29.43,-29.43,-12.06
26.43,-35.22,-23.19,-35.22,-23.20,6.00,5.78,5.76,-29.22,-29.22,-12.03
26.69,-35.02,-23.03,-35.02,-23.03,6.00,5.78,5.89,-29.02,-29.02,-11.99
26.96,-34.81,-22.86,-34.81,-22.86,6.00,5.78,6.02,-28.81,-28.81,-11.95
27.23,-34.61,-22.69,-34.61,-22.69,6.00,5.78,6.14,-28.61,-28.61,-11.92
27.50,-34.41,-22.53,-34.41,-22.53,6.00,5.78,6.26,-28.41,-28.41,-11.88
27.77,-34.21,-22.36,-34.21,-22.36,6.00,5.79,6.38,-28.21,-28.21,-11.85
28.05,-34.01,-22.20,-34.01,-22.19,6.00,5.79,6.49,-28.01,-28.01,-11.81
28.33,-33.82,-22.03,-33.82,-22.03,6.00,5.79,6.60,-27.82,-27.82,-11.79
28.62,-33.63,-21.88,-33.63,-21.88,6.00,5.79,6.71,-27.63,-27.63,-11.75
28.90,-33.44,-21.72,-33.44,-21.72,6.00,5.79,6.80,-27.44,-27.44,-11.71
29.19,-33.25,-21.56,-33.25,-21.57,6.00,5.80,6.89,-27.25,-27.25,-11.68
29.48,-33.06,-21.42,-33.06,-21.42,6.00,5.80,6.97,-27.06,-27.06,-11.64
29.78,-32.88,-21.26,-32.88,-21.27,6.00,5.80,7.05,-26.88,-26.88,-11.62
30.08,-32.70,-21.12,-32.70,-21.13,6.00,5.81,7.11,-26.70,-26.70,-11.58
30.38,-32.53,-20.98,-32.53,-20.98,6.00,5.81,7.17,-26.53,-26.53,-11.55
30.68,-32.36,-20.85,-32.36,-20.84,6.00,5.82,7.21,-26.36,-26.36,-11.51
30.99,-32.19,-20.70,-32.19,-20.71,6.00,5.82,7.25,-26.19,-26.19,-11.49
31.30,-32.03,-20.58,-32.03,-20.58,6.00,5.83,7.27,-26.03,-26.03,-11.45
31.61,-31.87,-20.45,-31.87,-20.45,6.00,5.83,7.29,-25.87,-25.87,-11.42
31.93,-31.72,-20.33,-31.72,-20.32,6.00,5.84,7.29,-25.72,-25.72,-11.40
32.24,-31.57,-20.19,-31.57,-20.20,6.00,5.84,7.29,-25.57,-25.57,-11.38
32.57,-31.42,-20.07,-31.42,-20.08,6.00,5.85,7.28,-25.42,-25.42,-11.35
32.89,-31.28,-19.97,-31.28,-19.96,6.00,5.86,7.25,-25.28,-25.28,-11.31
33.22,-31.14,-19.85,-31.14,-19.85,6.00,5.86,7.22,-25.14,-25.14,-11.29
33.55,-31.00,-19.73,-31.00,-19.73,6.00,5.87,7.18,-25.00,-25.00,-11.27
33.89,-30.86,-19.61,-30.86,-19.61,6.00,5.87,7.14,-24.86,-24.86,-11.25
34.23,-30.73,-19.50,-30.73,-19.50,6.00,5.88,7.09,-24.73,-24.73,-11.23
34.57,-30.60,-19.39,-30.60,-19.39,6.00,5.89,7.03,-24.60,-24.60,-11.21
34.92,-30.47,-19.27,-30.47,-19.28,6.00,5.90,6.97,-24.47,-24.47,-11.20
35.27,-30.35,-19.18,-30.35,-19.17,6.00,5.90,6.90,-24.35,-24.35,-11.17
35.62,-30.22,-19.06,-30.22,-19.06,6.00,5.91,6.83,-24.22,-24.22,-11.16
35.97,-30.10,-18.94,-30.10,-18.95,6.00,5.92,6.76,-24.10,-24.10,-11.15
36.33,-29.98,-18.84,-29.98,-18.84,6.00,5.92,6.69,-23.98,-23.98,-11.14
36.70,-29.87,-18.74,-29.86,-18.73,6.00,5.93,6.61,-23.87,-23.86,-11.13
37.06,-29.75,-18.63,-29.75,-18.63,6.00,5.94,6.54,-23.75,-23.75,-11.12
37.43,-29.63,-18.52,-29.63,-18.52,6.00,5.94,6.46,-23.63,-23.63,-11.10
37.81,-29.52,-18.42,-29.52,-18.42,6.00,5.95,6.39,-23.52,-23.52,-11.10
38.19,-29.41,-18.32,-29.41,-18.32,6.00,5.96,6.31,-23.41,-23.41,-11.09
38.57,-29.30,-18.22,-29.30,-18.21,6.00,5.97,6.24,-23.30,-23.30,-11.08
38.95,-29.19,-18.10,-29.19,-18.10,6.00,5.97,6.17,-23.19,-23.19,-11.09
39.34,-29.08,-17.99,-29.07,-17.99,6.00,5.98,6.10,-23.08,-23.07,-11.09
39.74,-28.96,-17.88,-28.96,-17.87,6.00,5.99,6.04,-22.96,-22.96,-11.08
40.14,-28.84,-17.76,-28.84,-17.76,6.00,5.99,5.98,-22.84,-22.84,-11.08
40.54,-28.73,-17.64,-28.73,-17.64,6.00,6.00,5.92,-22.73,-22.73,-11.09
40.94,-28.62,-17.54,-28.62,-17.53,6.00,6.01,5.86,-22.62,-22.62,-11.08
41.35,-28.50,-17.41,-28.50,-17.42,6.00,6.01,5.81,-22.50,-22.50,-11.08
41.76,-28.39,-17.31,-28.39,-17.31,6.00,6.02,5.76,-22.39,-22.39,-11.08
42.18,-28.27,-17.20,-28.27,-17.20,6.00,6.02,5.71,-22.27,-22.27,-11.07
42.60,-28.16,-17.08,-28.15,-17.08,6.00,6.03,5.67,-22.16,-22.15,-11.08
43.03,-28.04,-16.97,-28.04,-16.96,6.00,6.04,5.63,-22.04,-22.04,-11.07
43.46,-27.92,-16.84,-27.92,-16.84,6.00,6.04,5.60,-21.92,-21.92,-11.08
43.90,-27.81,-16.72,-27.81,-16.72,6.00,6.05,5.57,-21.81,-21.81,-11.09
44.33,-27.70,-16.60,-27.70,-16.61,6.00,6.05,5.55,-21.70,-21.70,-11.09
44.78,-27.59,-16.49,-27.59,-16.49,6.00,6.06,5.53,-21.59,-21.59,-11.10
45.23,-27.48,-16.38,-27.48,-16.37,6.00,6.06,5.51,-21.48,-21.48,-11.10
45.68,-27.36,-16.25,-27.36,-16.25,6.00,6.07,5.50,-21.36,-21.36,-11.11
46.13,-27.25,-16.13,-27.25,-16.13,6.00,6.07,5.49,-21.25,-21.25,-11.12
46.60,-27.13,-16.02,-27.13,-16.02,6.00,6.08,5.48,-21.13,-21.13,-11.11
47.06,-27.01,-15.90,-27.01,-15.90,6.00,6.08,5.48,-21.01,-21.01,-11.11
47.53,-26.90,-15.79,-26.90,-15.79,6.00,6.09,5.48,-20.90,-20.90,-11.11
48.01,-26.78,-15.68,-26.78,-15.67,6.00,6.09,5.49,-20.78,-20.78,-11.10
48.49,-26.67,-15.55,-26.67,-15.56,6.00,6.10,5.50,-20.67,-20.67,-11.12
48.97,-26.56,-15.44,-26.56,-15.43,6.00,6.10,5.51,-20.56,-20.56,-11.12
49.46,-26.45,-15.32,-26.45,-15.32,6.00,6.10,5.53,-20.45,-20.45,-11.13
49.96,-26.34,-15.20,-26.34,-15.22,6.00,6.11,5.55,-20.34,-20.34,-11.14
50.46,-26.25,-15.13,-26.25,-15.12,6.00,6.11,5.57,-20.25,-20.25,-11.12
50.96,-26.16,-15.05,-26.16,-15.04,6.00,6.11,5.59,-20.16,-20.16,-11.11
51.47,-26.07,-14.95,-26.07,-14.95,6.00,6.11,5.62,-20.07,-20.07,-11.12
51.99,-25.98,-14.87,-25.98,-14.88,6.00,6.12,5.65,-19.98,-19.98,-11.11
52.51,-25.91,-14.81,-25.91,-14.81,6.00,6.12,5.68,-19.91,-19.91,-11.10
53.03,-25.85,-14.76,-25.85,-14.75,6.00,6.12,5.72,-19.85,-19.85,-11.09
53.56,-25.79,-14.70,-25.79,-14.70,6.00,6.12,5.75,-19.79,-19.79,-11.09
54.10,-25.73,-14.64,-25.73,-14.65,6.00,6.13,5.78,-19.73,-19.73,-11.09
54.64,-25.68,-14.60,-25.68,-14.60,6.00,6.13,5.82,-19.68,-19.68,-11.08
55.18,-25.64,-14.56,-25.63,-14.56,6.00,6.13,5.85,-19.64,-19.63,-11.08
55.74,-25.59,-14.51,-25.60,-14.52,6.00,6.13,5.89,-19.59,-19.60,-11.08
56.29,-25.56,-14.48,-25.56,-14.48,6.00,6.13,5.92,-19.56,-19.56,-11.08
56.86,-25.53,-14.45,-25.52,-14.44,6.00,6.13,5.96,-19.53,-19.52,-11.08
57.42,-25.49,-14.40,-25.49,-14.40,6.00,6.13,5.99,-19.49,-19.49,-11.09
58.00,-25.46,-14.36,-25.46,-14.36,6.00,6.13,6.02,-19.46,-19.46,-11.09
58.58,-25.43,-14.33,-25.43,-14.33,6.00,6.13,6.04,-19.43,-19.43,-11.10
59.16,-25.40,-14.30,-25.40,-14.30,6.00,6.13,6.07,-19.40,-19.40,-11.10
59.76,-25.38,-14.27,-25.38,-14.27,6.00,6.13,6.09,-19.38,-19.38,-11.10
60.35,-25.36,-14.24,-25.36,-14.24,6.00,6.13,6.11,-19.36,-19.36,-11.12
60.96,-25.34,-14.21,-25.34,-14.20,6.00,6.13,6.12,-19.34,-19.34,-11.13
61.57,-25.32,-14.16,-25.32,-14.16,6.00,6.12,6.13,-19.32,-19.32,-11.16
62.18,-25.29,-14.11,-25.30,-14.12,6.00,6.12,6.14,-19.29,-19.30,-11.18
62.80,-25.28,-14.09,-25.28,-14.08,6.00,6.12,6.15,-19.28,-19.28,-11.19
63.43,-25.26,-14.04,-25.26,-14.05,6.00,6.12,6.15,-19.26,-19.26,-11.22
64.07,-25.24,-14.02,-25.24,-14.02,6.00,6.11,6.14,-19.24,-19.24,-11.22
64.71,-25.22,-13.99,-25.22,-13.99,6.00,6.11,6.14,-19.22,-19.22,-11.23
65.35,-25.20,-13.96,-25.20,-13.96,6.00,6.11,6.13,-19.20,-19.20,-11.24
66.01,-25.19,-13.94,-25.19,-13.94,6.00,6.10,6.11,-19.19,-19.19,-11.25
66.67,-25.18,-13.92,-25.18,-13.93,6.00,6.10,6.10,-19.18,-19.18,-11.26
67.33,-25.18,-13.92,-25.18,-13.92,6.00,6.10,6.08,-19.18,-19.18,-11.26
68.01,-25.17,-13.91,-25.17,-13.92,6.00,6.09,6.06,-19.17,-19.17,-11.26
68.69,-25.18,-13.92,-25.17,-13.92,6.00,6.09,6.03,-19.18,-19.17,-11.26
69.37,-25.18,-13.92,-25.18,-13.92,6.00,6.08,6.01,-19.18,-19.18,-11.26
70.07,-25.19,-13.93,-25.19,-13.94,6.00,6.08,5.99,-19.19,-19.19,-11.26
70.77,-25.21,-13.96,-25.21,-13.95,6.00,6.07,5.96,-19.21,-19.21,-11.25
71.48,-25.23,-13.97,-25.23,-13.98,6.00,6.07,5.93,-19.23,-19.23,-11.26
72.19,-25.26,-14.00,-25.26,-14.00,6.00,6.06,5.91,-19.26,-19.26,-11.26
72.91,-25.28,-14.02,-25.28,-14.02,6.00,6.05,5.88,-19.28,-19.28,-11.26
73.64,-25.31,-14.03,-25.31,-14.03,6.00,6.05,5.86,-19.31,-19.31,-11.28
74.38,-25.33,-14.06,-25.33,-14.05,6.00,6.04,5.83,-19.33,-19.33,-11.27
75.12,-25.35,-14.07,-25.35,-14.08,6.00,6.03,5.81,-19.35,-19.35,-11.28
75.87,-25.38,-14.10,-25.38,-14.10,6.00,6.03,5.79,-19.38,-19.38,-11.28
76.63,-25.42,-14.14,-25.41,-14.13,6.00,6.02,5.78,-19.42,-19.41,-11.28
77.40,-25.44,-14.16,-25.44,-14.16,6.00,6.01,5.76,-19.44,-19.44,-11.28
78.17,-25.47,-14.18,-25.47,-14.19,6.00,6.00,5.75,-19.47,-19.47,-11.29
78.95,-25.50,-14.22,-25.50,-14.22,6.00,5.99,5.74,-19.50,-19.50,-11.28
79.74,-25.54,-14.27,-25.54,-14.27,6.00,5.98,5.74,-19.54,-19.54,-11.27
80.54,-25.57,-14.31,-25.57,-14.31,6.00,5.98,5.73,-19.57,-19.57,-11.26
81.35,-25.60,-14.35,-25.60,-14.35,6.00,5.97,5.74,-19.60,-19.60,-11.25
82.16,-25.63,-14.39,-25.63,-14.40,6.00,5.96,5.74,-19.63,-19.63,-11.24
82.98,-25.67,-14.46,-25.67,-14.45,6.00,5.95,5.75,-19.67,-19.67,-11.21
83.81,-25.71,-14.51,-25.71,-14.51,6.00,5.94,5.76,-19.71,-19.71,-11.20
84.65,-25.76,-14.56,-25.76,-14.57,6.00,5.93,5.78,-19.76,-19.76,-11.20
85.50,-25.81,-14.65,-25.81,-14.65,6.00,5.91,5.80,-19.81,-19.81,-11.16
86.35,-25.88,-14.74,-25.88,-14.73,6.00,5.90,5.83,-19.88,-19.88,-11.14
87.22,-25.95,-14.82,-25.95,-14.82,6.00,5.89,5.86,-19.95,-19.95,-11.13
88.09,-26.03,-14.91,-26.03,-14.92,6.00,5.88,5.90,-20.03,-20.03,-11.12
88.97,-26.12,-15.02,-26.12,-15.01,6.00,5.87,5.94,-20.12,-20.12,-11.10
89.86,-26.21,-15.11,-26.21,-15.11,6.00,5.86,5.98,-20.21,-20.21,-11.09
90.76,-26.30,-15.20,-26.29,-15.20,6.00,5.84,6.03,-20.30,-20.29,-11.10
91.66,-26.38,-15.29,-26.38,-15.28,6.00,5.83,6.08,-20.38,-20.38,-11.09
92.58,-26.46,-15.36,-26.46,-15.37,6.00,5.82,6.14,-20.46,-20.46,-11.10
93.51,-26.56,-15.46,-26.56,-15.46,6.00,5.81,6.20,-20.56,-20.56,-11.10
94.44,-26.66,-15.55,-26.66,-15.55,6.00,5.79,6.27,-20.66,-20.66,-11.11
95.39,-26.77,-15.64,-26.77,-15.64,6.00,5.78,6.34,-20.77,-20.77,-11.13
96.34,-26.87,-15.71,-26.87,-15.71,6.00,5.77,6.41,-20.87,-20.87,-11.15
97.30,-26.97,-15.79,-26.97,-15.79,6.00,5.75,6.49,-20.97,-20.97,-11.18
98.28,-27.07,-15.86,-27.08,-15.86,6.00,5.74,6.57,-21.07,-21.08,-11.21
99.26,-27.19,-15.95,-27.19,-15.95,6.00,5.72,6.65,-21.19,-21.19,-11.24
100.25,-27.32,-16.04,-27.32,-16.04,6.00,5.71,6.74,-21.32,-21.32,-11.28
101.25,-27.44,-16.12,-27.44,-16.12,6.00,5.70,6.83,-21.44,-21.44,-11.32
102.27,-27.55,-16.20,-27.53,-16.18,6.00,5.68,6.92,-21.55,-21.53,-11.35
103.29,-27.61,-16.21,-27.62,-16.22,6.00,5.67,7.02,-21.61,-21.62,-11.40
104.32,-27.69,-16.26,-27.70,-16.27,6.00,5.65,7.11,-21.69,-21.70,-11.43
105.37,-27.80,-16.33,-27.80,-16.33,6.00,5.64,7.21,-21.80,-21.80,-11.47
106.42,-27.92,-16.42,-27.91,-16.41,6.00,5.62,7.30,-21.92,-21.91,-11.50
107.48,-28.03,-16.49,-28.04,-16.50,6.00,5.61,7.40,-22.03,-22.04,-11.54
108.56,-28.16,-16.58,-28.16,-16.59,6.00,5.60,7.49,-22.16,-22.16,-11.57
109.64,-28.29,-16.68,-28.29,-16.68,6.00,5.58,7.58,-22.29,-22.29,-11.61
110.74,-28.41,-16.77,-28.41,-16.76,6.00,5.57,7.66,-22.41,-22.41,-11.64
111.85,-28.52,-16.86,-28.52,-16.85,6.00,5.56,7.75,-22.52,-22.52,-11.66
112.97,-28.63,-16.92,-28.64,-16.93,6.00,5.54,7.82,-22.63,-22.64,-11.71
114.10,-28.74,-17.01,-28.74,-17.01,6.00,5.53,7.89,-22.74,-22.74,-11.73
115.24,-28.85,-17.09,-28.83,-17.07,6.00,5.52,7.95,-22.85,-22.83,-11.76
116.39,-28.90,-17.12,-28.91,-17.13,6.00,5.51,8.01,-22.90,-22.91,-11.78
117.55,-28.97,-17.17,-28.98,-17.18,6.00,5.50,8.05,-22.97,-22.98,-11.80
118.73,-29.05,-17.23,-29.05,-17.24,6.00,5.49,8.08,-23.05,-23.05,-11.82
119.92,-29.14,-17.31,-29.14,-17.30,6.00,5.48,8.10,-23.14,-23.14,-11.83
121.12,-29.22,-17.37,-29.21,-17.36,6.00,5.47,8.10,-23.22,-23.21,-11.84
122.33,-29.26,-17.40,-29.27,-17.41,6.00,5.46,8.10,-23.26,-23.27,-11.86
123.55,-29.31,-17.44,-29.31,-17.44,6.00,5.46,8.07,-23.31,-23.31,-11.87
124.79,-29.35,-17.47,-29.35,-17.47,6.00,5.45,8.04,-23.35,-23.35,-11.88
126.03,-29.39,-17.49,-29.38,-17.49,6.00,5.45,7.99,-23.39,-23.38,-11.90
127.29,-29.40,-17.50,-29.39,-17.49,6.00,5.45,7.92,-23.40,-23.39,-11.90
128.57,-29.39,-17.46,-29.40,-17.48,6.00,5.45,7.84,-23.39,-23.40,-11.93
129.85,-29.40,-17.46,-29.40,-17.46,6.00,5.45,7.74,-23.40,-23.40,-11.94
131.15,-29.40,-17.45,-29.40,-17.45,6.00,5.46,7.63,-23.40,-23.40,-11.95
132.46,-29.39,-17.42,-29.38,-17.42,6.00,5.46,7.51,-23.39,-23.38,-11.96
133.79,-29.35,-17.38,-29.35,-17.37,6.00,5.47,7.38,-23.35,-23.35,-11.97
135.12,-29.29,-17.29,-29.30,-17.31,6.00,5.49,7.23,-23.29,-23.30,-12.00
136.48,-29.24,-17.24,-29.23,-17.23,6.00,5.50,7.08,-23.24,-23.23,-12.00
137.84,-29.15,-17.13,-29.16,-17.14,6.00,5.52,6.91,-23.15,-23.16,-12.02
139.22,-29.07,-17.02,-29.05,-17.01,6.00,5.55,6.74,-23.07,-23.05,-12.05
140.61,-28.94,-16.87,-28.93,-16.86,6.00,5.58,6.56,-22.94,-22.93,-12.07
142.02,-28.74,-16.66,-28.77,-16.69,6.00,5.61,6.37,-22.74,-22.77,-12.08
143.44,-28.62,-16.53,-28.60,-16.50,6.00,5.64,6.18,-22.62,-22.60,-12.09
144.87,-28.41,-16.29,-28.42,-16.30,6.00,5.69,5.99,-22.41,-22.42,-12.12
146.32,-28.26,-16.11,-28.25,-16.11,6.00,5.73,5.79,-22.26,-22.25,-12.15
147.78,-28.03,-15.87,-28.03,-15.87,6.00,5.79,5.59,-22.03,-22.03,-12.15
149.26,-27.83,-15.65,-27.82,-15.64,6.00,5.84,5.39,-21.83,-21.82,-12.18
150.75,-27.57,-15.34,-27.58,-15.36,6.00,5.90,5.18,-21.57,-21.58,-12.23
152.26,-27.35,-15.10,-27.34,-15.09,6.00,5.97,4.98,-21.35,-21.34,-12.25
153.78,-27.05,-14.78,-27.06,-14.78,6.00,6.04,4.77,-21.05,-21.06,-12.27
155.32,-26.80,-14.49,-26.79,-14.48,6.00,6.12,4.57,-20.80,-20.79,-12.31
156.88,-26.45,-14.12,-26.47,-14.14,6.00,6.19,4.37,-20.45,-20.47,-12.33
158.44,-26.20,-13.84,-26.15,-13.79,6.00,6.27,4.16,-20.20,-20.15,-12.36
160.03,-25.79,-13.39,-25.84,-13.45,6.00,6.35,3.96,-19.79,-19.84,-12.40
161.63,-25.53,-13.10,-25.53,-13.10,6.00,6.42,3.76,-19.53,-19.53,-12.43
163.24,-25.26,-12.79,-25.20,-12.74,6.00,6.49,3.56,-19.26,-19.20,-12.46
164.88,-24.84,-12.36,-24.89,-12.40,6.00,6.54,3.36,-18.84,-18.89,-12.48
166.53,-24.52,-12.01,-24.53,-12.01,6.00,6.59,3.17,-18.52,-18.53,-12.51
168.19,-24.22,-11.67,-24.15,-11.61,6.00,6.61,2.97,-18.22,-18.15,-12.55
169.87,-23.75,-11.18,-23.81,-11.23,6.00,6.62,2.78,-17.75,-17.81,-12.57
171.57,-23.41,-10.81,-23.42,-10.82,6.00,6.60,2.59,-17.41,-17.42,-12.60
173.29,-23.09,-10.47,-23.02,-10.40,6.00,6.55,2.40,-17.09,-17.02,-12.62
175.02,-22.60,-9.96,-22.65,-10.00,6.00,6.48,2.21,-16.60,-16.65,-12.64
176.77,-22.27,-9.59,-22.28,-9.61,6.00,6.38,2.02,-16.27,-16.28,-12.68
178.54,-21.95,-9.25,-21.95,-9.25,6.00,6.24,1.84,-15.95,-15.95,-12.70
180.32,-21.62,-8.90,-21.61,-8.89,6.00,6.08,1.65,-15.62,-15.61,-12.72
182.13,-21.28,-8.56,-21.22,-8.49,6.03,5.90,1.47,-15.25,-15.19,-12.72
183.95,-20.75,-8.00,-20.81,-8.06,6.07,5.69,1.29,-14.68,-14.74,-12.75
185.79,-20.38,-7.62,-20.39,-7.63,6.09,5.46,1.11,-14.29,-14.30,-12.76
187.65,-20.00,-7.23,-19.98,-7.21,6.07,5.22,0.94,-13.93,-13.91,-12.77
189.52,-19.61,-6.82,-19.60,-6.82,6.01,4.97,0.76,-13.60,-13.59,-12.79
191.42,-19.20,-6.40,-19.20,-6.40,5.89,4.71,0.59,-13.31,-13.31,-12.80
193.33,-18.79,-5.98,-18.79,-5.98,5.70,4.44,0.41,-13.09,-13.09,-12.81
195.27,-18.38,-5.56,-18.38,-5.55,5.44,4.18,0.24,-12.94,-12.93,-12.82
197.22,-17.95,-5.12,-17.95,-5.11,5.11,3.91,0.07,-12.84,-12.84,-12.83
199.19,-17.52,-4.65,-17.52,-4.66,4.71,3.64,-0.10,-12.81,-12.80,-12.87
201.18,-17.07,-4.20,-17.06,-4.19,4.26,3.37,-0.26,-12.81,-12.81,-12.87
203.19,-16.59,-3.71,-16.59,-3.71,3.75,3.11,-0.43,-12.84,-12.84,-12.88
205.23,-16.11,-3.21,-16.11,-3.22,3.22,2.85,-0.60,-12.89,-12.88,-12.90
207.28,-15.62,-2.72,-15.62,-2.72,2.70,2.59,-0.76,-12.92,-12.92,-12.90
209.35,-15.14,-2.22,-15.14,-2.22,2.22,2.34,-0.92,-12.92,-12.92,-12.91
211.44,-14.66,-1.73,-14.66,-1.74,1.75,2.09,-1.08,-12.91,-12.91,-12.93
213.56,-14.21,-1.28,-14.19,-1.26,1.30,1.84,-1.24,-12.91,-12.89,-12.93
215.69,-13.77,-0.84,-13.77,-0.84,0.88,1.60,-1.39,-12.89,-12.89,-12.93
217.85,-13.37,-0.43,-13.41,-0.47,0.49,1.35,-1.55,-12.88,-12.92,-12.94
220.03,-13.12,-0.16,-13.09,-0.14,0.14,1.12,-1.70,-12.98,-12.95,-12.96
222.23,-12.83,0.13,-12.80,0.15,-0.17,0.88,-1.85,-13.00,-12.97,-12.96
224.45,-12.51,0.44,-12.52,0.44,-0.45,0.64,-2.00,-12.95,-12.96,-12.95
226.70,-12.24,0.72,-12.25,0.71,-0.68,0.41,-2.14,-12.92,-12.93,-12.96
228.96,-12.01,0.96,-12.03,0.93,-0.89,0.17,-2.28,-12.90,-12.92,-12.96
231.25,-11.88,1.08,-11.86,1.10,-1.07,-0.06,-2.42,-12.95,-12.94,-12.96
233.57,-11.73,1.24,-11.72,1.25,-1.24,-0.29,-2.55,-12.97,-12.96,-12.97
235.90,-11.57,1.40,-11.58,1.39,-1.40,-0.53,-2.69,-12.97,-12.98,-12.97
238.26,-11.45,1.54,-11.44,1.54,-1.55,-0.76,-2.82,-13.00,-13.00,-12.99
240.64,-11.30,1.68,-11.31,1.68,-1.71,-1.00,-2.94,-13.01,-13.02,-12.98
243.05,-11.16,1.83,-11.15,1.84,-1.87,-1.24,-3.06,-13.03,-13.02,-12.99
245.48,-10.97,2.02,-10.96,2.03,-2.05,-1.48,-3.18,-13.02,-13.01,-12.98
247.93,-10.72,2.27,-10.74,2.25,-2.26,-1.72,-3.30,-12.98,-13.00,-12.99
250.41,-10.52,2.48,-10.49,2.49,-2.48,-1.97,-3.41,-13.00,-12.98,-12.99
252.92,-10.23,2.75,-10.25,2.73,-2.73,-2.22,-3.52,-12.95,-12.97,-12.98
255.45,-9.98,2.98,-9.99,2.98,-2.99,-2.47,-3.62,-12.97,-12.97,-12.96
258.00,-9.73,3.23,-9.70,3.25,-3.27,-2.72,-3.72,-13.00,-12.97,-12.96
260.58,-9.38,3.57,-9.39,3.55,-3.56,-2.98,-3.82,-12.94,-12.96,-12.95
263.19,-9.08,3.85,-9.06,3.87,-3.87,-3.24,-3.92,-12.95,-12.93,-12.93
265.82,-8.69,4.23,-8.73,4.19,-4.18,-3.51,-4.01,-12.87,-12.91,-12.92
268.48,-8.40,4.50,-8.39,4.51,-4.50,-3.78,-4.10,-12.90,-12.90,-12.90
271.16,-8.09,4.80,-8.04,4.84,-4.83,-4.06,-4.19,-12.92,-12.88,-12.89
273.87,-7.66,5.21,-7.69,5.17,-5.17,-4.34,-4.28,-12.83,-12.86,-12.87
276.61,-7.33,5.52,-7.33,5.53,-5.51,-4.62,-4.37,-12.84,-12.84,-12.85
279.38,-6.99,5.86,-6.99,5.85,-5.86,-4.92,-4.45,-12.85,-12.85,-12.85
282.17,-6.66,6.18,-6.66,6.18,-6.20,-5.21,-4.54,-12.86,-12.86,-12.84
284.99,-6.33,6.48,-6.29,6.53,-6.55,-5.52,-4.62,-12.88,-12.84,-12.81
287.84,-5.88,6.93,-5.91,6.90,-6.90,-5.83,-4.71,-12.78,-12.81,-12.80
290.72,-5.52,7.27,-5.53,7.26,-7.24,-6.14,-4.79,-12.76,-12.77,-12.79
293.63,-5.17,7.60,-5.16,7.61,-7.58,-6.47,-4.88,-12.75,-12.74,-12.77
296.57,-4.83,7.91,-4.83,7.92,-7.91,-6.80,-4.97,-12.74,-12.74,-12.74
299.53,-4.50,8.24,-4.50,8.23,-8.23,-7.13,-5.06,-12.73,-12.73,-12.73
302.53,-4.17,8.55,-4.17,8.54,-8.54,-7.48,-5.15,-12.71,-12.71,-12.72
305.55,-3.85,8.83,-3.84,8.85,-8.84,-7.83,-5.24,-12.68,-12.67,-12.68
308.61,-3.52,9.14,-3.52,9.14,-9.13,-8.18,-5.34,-12.65,-12.65,-12.66
311.69,-3.19,9.44,-3.21,9.41,-9.42,-8.55,-5.44,-12.61,-12.63,-12.63
314.81,-2.93,9.67,-2.91,9.69,-9.71,-8.92,-5.54,-12.64,-12.62,-12.60
317.96,-2.61,9.97,-2.60,9.97,-10.01,-9.29,-5.64,-12.62,-12.61,-12.58
321.14,-2.27,10.28,-2.27,10.28,-10.31,-9.67,-5.75,-12.58,-12.58,-12.55
324.35,-1.93,10.60,-1.93,10.60,-10.61,-10.05,-5.86,-12.53,-12.53,-12.53
327.59,-1.57,10.93,-1.60,10.91,-10.90,-10.44,-5.97,-12.47,-12.50,-12.50
330.87,-1.29,11.19,-1.27,11.21,-11.20,-10.82,-6.09,-12.49,-12.47,-12.47
