frequency,raw,error,smoothed,error_smoothed,equalization,parametric_eq,fixed_band_eq,equalized_raw,equalized_smoothed,target
20.00,-14.38,-15.31,-14.38,-15.31,6.00,5.86,2.69,-8.38,-8.38,0.93
20.20,-14.20,-15.13,-14.20,-15.13,6.00,5.87,2.77,-8.20,-8.20,0.93
20.40,-14.03,-14.97,-14.03,-14.97,6.00,5.88,2.85,-8.03,-8.03,0.94
20.61,-13.86,-14.81,-13.86,-14.81,6.00,5.89,2.93,-7.86,-7.86,0.95
20.81,-13.70,-14.65,-13.70,-14.65,6.00,5.89,3.01,-7.70,-7.70,0.95
21.02,-13.54,-14.50,-13.54,-14.50,6.00,5.90,3.10,-7.54,-7.54,0.96
21.23,-13.39,-14.35,-13.39,-14.35,6.00,5.91,3.19,-7.39,-7.39,0.96
21.44,-13.24,-14.21,-13.24,-14.21,6.00,5.92,3.29,-7.24,-7.24,0.97
21.66,-13.09,-14.07,-13.09,-14.06,6.00,5.92,3.38,-7.09,-7.09,0.98
21.87,-12.95,-13.93,-12.95,-13.93,6.00,5.93,3.48,-6.95,-6.95,0.98
22.09,-12.82,-13.81,-12.82,-13.80,6.00,5.94,3.58,-6.82,-6.82,0.99
22.31,-12.69,-13.68,-12.69,-13.68,6.00,5.94,3.68,-6.69,-6.69,1.00
22.54,-12.56,-13.56,-12.56,-13.56,6.00,5.95,3.79,-6.56,-6.56,1.00
22.76,-12.43,-13.44,-12.44,-13.44,6.00,5.95,3.90,-6.43,-6.44,1.01
22.99,-12.32,-13.34,-12.32,-13.34,6.00,5.96,4.01,-6.32,-6.32,1.02
23.22,-12.22,-13.25,-12.21,-13.24,6.00,5.96,4.13,-6.22,-6.21,1.03
23.45,-12.11,-13.14,-12.11,-13.14,6.00,5.97,4.24,-6.11,-6.11,1.03
23.69,-12.00,-13.05,-12.00,-13.05,6.00,5.97,4.36,-6.00,-6.00,1.04
23.92,-11.90,-12.95,-11.90,-12.95,6.00,5.98,4.49,-5.90,-5.90,1.05
24.16,-11.81,-12.87,-11.80,-12.87,6.00,5.98,4.61,-5.81,-5.80,1.06
24.40,-11.71,-12.78,-11.71,-12.79,6.00,5.99,4.74,-5.71,-5.71,1.07
24.65,-11.62,-12.71,-11.62,-12.71,6.00,5.99,4.87,-5.62,-5.62,1.09
24.89,-11.53,-12.63,-11.53,-12.63,6.00,5.99,5.00,-5.53,-5.53,1.10
25.14,-11.43,-12.54,-11.43,-12.54,6.00,6.00,5.13,-5.43,-5.43,1.11
25.39,-11.33,-12.45,-11.33,-12.45,6.00,6.00,5.27,-5.33,-5.33,1.12
25.65,-11.22,-12.35,-11.22,-12.35,6.00,6.00,5.40,-5.22,-5.22,1.13
25.91,-11.10,-12.25,-11.11,-12.25,6.00,6.01,5.54,-5.10,-5.11,1.15
26.16,-10.99,-12.15,-10.99,-12.15,6.00,6.01,5.68,-4.99,-4.99,1.16
26.43,-10.87,-12.04,-10.87,-12.04,6.00,6.01,5.81,-4.87,-4.87,1.17
26.69,-10.74,-11.92,-10.74,-11.92,6.00,6.01,5.95,-4.74,-4.74,1.18
26.96,-10.61,-11.81,-10.61,-11.81,6.00,6.02,6.08,-4.61,-4.61,1.20
27.23,-10.48,-11.69,-10.48,-11.69,6.00,6.02,6.21,-4.48,-4.48,1.21
27.50,-10.34,-11.57,-10.34,-11.57,6.00,6.02,6.34,-4.34,-4.34,1.23
27.77,-10.21,-11.44,-10.21,-11.45,6.00,6.02,6.47,-4.21,-4.21,1.24
28.05,-10.09,-11.34,-10.08,-11.34,6.00,6.02,6.59,-4.09,-4.08,1.25
28.33,-9.96,-11.22,-9.96,-11.22,6.00,6.02,6.71,-3.96,-3.96,1.26
28.62,-9.83,-11.11,-9.83,-11.11,6.00,6.02,6.82,-3.83,-3.83,1.28
28.90,-9.71,-11.00,-9.71,-11.00,6.00,6.02,6.93,-3.71,-3.71,1.29
29.19,-9.59,-10.90,-9.59,-10.90,6.00,6.03,7.02,-3.59,-3.59,1.31
29.48,-9.48,-10.80,-9.48,-10.80,6.00,6.03,7.11,-3.48,-3.48,1.32
29.78,-9.37,-10.71,-9.37,-10.71,6.00,6.03,7.20,-3.37,-3.37,1.34
30.08,-9.26,-10.61,-9.26,-10.61,6.00,6.03,7.27,-3.26,-3.26,1.35
30.38,-9.16,-10.53,-9.16,-10.53,6.00,6.03,7.33,-3.16,-3.16,1.37
30.68,-9.07,-10.45,-9.07,-10.45,6.00,6.02,7.38,-3.07,-3.07,1.38
30.99,-8.98,-10.38,-8.98,-10.37,6.00,6.02,7.42,-2.98,-2.98,1.39
31.30,-8.88,-10.28,-8.88,-10.29,6.00,6.02,7.45,-2.88,-2.88,1.40
31.61,-8.79,-10.21,-8.79,-10.21,6.00,6.02,7.47,-2.79,-2.79,1.42
31.93,-8.70,-10.13,-8.71,-10.14,6.00,6.02,7.48,-2.70,-2.71,1.43
32.24,-8.63,-10.08,-8.63,-10.08,6.00,6.02,7.48,-2.63,-2.63,1.45
32.57,-8.56,-10.02,-8.56,-10.02,6.00,6.02,7.47,-2.56,-2.56,1.46
32.89,-8.49,-9.97,-8.48,-9.96,6.00,6.02,7.45,-2.49,-2.48,1.48
33.22,-8.41,-9.90,-8.42,-9.90,6.00,6.02,7.42,-2.41,-2.42,1.49
33.55,-8.35,-9.85,-8.35,-9.85,6.00,6.01,7.38,-2.35,-2.35,1.50
33.89,-8.30,-9.81,-8.29,-9.81,6.00,6.01,7.34,-2.30,-2.29,1.51
34.23,-8.23,-9.76,-8.23,-9.76,6.00,6.01,7.29,-2.23,-2.23,1.53
34.57,-8.17,-9.71,-8.17,-9.71,6.00,6.01,7.23,-2.17,-2.17,1.54
34.92,-8.11,-9.66,-8.11,-9.66,6.00,6.00,7.17,-2.11,-2.11,1.55
35.27,-8.05,-9.62,-8.04,-9.61,6.00,6.00,7.10,-2.05,-2.04,1.56
35.62,-7.97,-9.54,-7.98,-9.55,6.00,6.00,7.03,-1.97,-1.98,1.57
35.97,-7.91,-9.49,-7.91,-9.49,6.00,6.00,6.95,-1.91,-1.91,1.58
36.33,-7.84,-9.43,-7.84,-9.43,6.00,5.99,6.88,-1.84,-1.84,1.59
36.70,-7.77,-9.37,-7.77,-9.36,6.00,5.99,6.80,-1.77,-1.77,1.60
37.06,-7.69,-9.29,-7.69,-9.29,6.00,5.99,6.73,-1.69,-1.69,1.60
37.43,-7.61,-9.22,-7.61,-9.23,6.00,5.99,6.65,-1.61,-1.61,1.61
37.81,-7.54,-9.16,-7.54,-9.16,6.00,5.98,6.57,-1.54,-1.54,1.62
38.19,-7.46,-9.09,-7.46,-9.09,6.00,5.98,6.50,-1.46,-1.46,1.63
38.57,-7.38,-9.01,-7.38,-9.01,6.00,5.98,6.42,-1.38,-1.38,1.63
38.95,-7.29,-8.93,-7.29,-8.93,6.00,5.97,6.35,-1.29,-1.29,1.64
39.34,-7.20,-8.85,-7.21,-8.86,6.00,5.97,6.29,-1.20,-1.21,1.65
39.74,-7.13,-8.79,-7.13,-8.78,6.00,5.97,6.22,-1.13,-1.13,1.65
40.14,-7.06,-8.71,-7.05,-8.71,6.00,5.96,6.16,-1.06,-1.05,1.65
40.54,-6.97,-8.63,-6.97,-8.63,6.00,5.96,6.10,-0.97,-0.97,1.66
40.94,-6.89,-8.55,-6.90,-8.56,6.00,5.96,6.04,-0.89,-0.90,1.66
41.35,-6.82,-8.49,-6.82,-8.49,6.00,5.96,5.99,-0.82,-0.82,1.67
41.76,-6.76,-8.44,-6.75,-8.43,6.00,5.95,5.94,-0.76,-0.75,1.68
42.18,-6.67,-8.35,-6.67,-8.36,6.00,5.95,5.90,-0.67,-0.67,1.68
42.60,-6.59,-8.28,-6.60,-8.28,6.00,5.95,5.86,-0.59,-0.60,1.69
43.03,-6.52,-8.22,-6.52,-8.21,6.00,5.95,5.83,-0.52,-0.52,1.70
43.46,-6.44,-8.14,-6.44,-8.14,6.00,5.94,5.79,-0.44,-0.44,1.70
43.90,-6.36,-8.07,-6.36,-8.07,6.00,5.94,5.77,-0.36,-0.36,1.71
44.33,-6.28,-8.00,-6.28,-8.00,6.00,5.94,5.75,-0.28,-0.28,1.72
44.78,-6.20,-7.93,-6.20,-7.93,6.00,5.94,5.73,-0.20,-0.20,1.73
45.23,-6.12,-7.85,-6.13,-7.86,6.00,5.94,5.72,-0.12,-0.13,1.73
45.68,-6.06,-7.81,-6.05,-7.80,6.00,5.93,5.71,-0.06,-0.05,1.75
46.13,-5.98,-7.73,-5.98,-7.73,6.00,5.93,5.70,0.02,0.02,1.75
46.60,-5.90,-7.67,-5.90,-7.67,6.00,5.93,5.70,0.10,0.10,1.76
47.06,-5.83,-7.60,-5.83,-7.60,6.00,5.93,5.71,0.17,0.17,1.77
47.53,-5.76,-7.54,-5.76,-7.54,6.00,5.93,5.71,0.24,0.24,1.78
48.01,-5.69,-7.48,-5.69,-7.48,6.00,5.93,5.72,0.31,0.31,1.79
48.49,-5.63,-7.43,-5.63,-7.43,6.00,5.93,5.74,0.37,0.37,1.80
48.97,-5.56,-7.36,-5.56,-7.37,6.00,5.94,5.76,0.44,0.44,1.80
49.46,-5.50,-7.32,-5.50,-7.31,6.00,5.94,5.78,0.50,0.50,1.82
49.96,-5.43,-7.25,-5.43,-7.25,6.00,5.94,5.80,0.57,0.57,1.82
50.46,-5.36,-7.18,-5.36,-7.19,6.00,5.94,5.83,0.64,0.64,1.82
50.96,-5.30,-7.13,-5.30,-7.13,6.00,5.95,5.86,0.70,0.70,1.83
51.47,-5.24,-7.08,-5.24,-7.07,6.00,5.95,5.90,0.76,0.76,1.84
51.99,-5.18,-7.02,-5.18,-7.02,6.00,5.95,5.93,0.82,0.82,1.84
52.51,-5.13,-6.97,-5.13,-6.97,6.00,5.96,5.96,0.87,0.87,1.84
53.03,-5.08,-6.92,-5.08,-6.92,6.00,5.96,6.00,0.92,0.92,1.84
53.56,-5.03,-6.88,-5.03,-6.88,6.00,5.97,6.04,0.97,0.97,1.85
54.10,-4.99,-6.84,-4.98,-6.83,6.00,5.97,6.08,1.01,1.02,1.85
54.64,-4.93,-6.78,-4.93,-6.78,6.00,5.97,6.11,1.07,1.07,1.85
55.18,-4.88,-6.72,-4.88,-6.73,6.00,5.98,6.15,1.12,1.12,1.84
55.74,-4.84,-6.68,-4.84,-6.68,6.00,5.98,6.18,1.16,1.16,1.84
56.29,-4.81,-6.65,-4.81,-6.65,6.00,5.99,6.22,1.19,1.19,1.84
56.86,-4.79,-6.62,-4.78,-6.61,6.00,5.99,6.25,1.21,1.22,1.83
57.42,-4.75,-6.57,-4.75,-6.58,6.00,5.99,6.27,1.25,1.25,1.82
58.00,-4.72,-6.53,-4.72,-6.54,6.00,5.99,6.30,1.28,1.28,1.81
58.58,-4.69,-6.50,-4.69,-6.49,6.00,5.99,6.32,1.31,1.31,1.81
59.16,-4.65,-6.44,-4.65,-6.45,6.00,5.99,6.33,1.35,1.35,1.80
59.76,-4.61,-6.39,-4.61,-6.39,6.00,5.99,6.34,1.39,1.39,1.78
60.35,-4.57,-6.34,-4.57,-6.34,6.00,5.98,6.35,1.43,1.43,1.77
60.96,-4.52,-6.27,-4.52,-6.27,6.00,5.97,6.34,1.48,1.48,1.75
61.57,-4.48,-6.22,-4.48,-6.21,6.01,5.96,6.34,1.53,1.53,1.74
62.18,-4.43,-6.15,-4.43,-6.16,6.01,5.95,6.32,1.58,1.58,1.72
62.80,-4.40,-6.11,-4.40,-6.11,6.01,5.93,6.30,1.61,1.60,1.71
63.43,-4.38,-6.07,-4.38,-6.07,6.00,5.91,6.28,1.62,1.62,1.69
64.07,-4.36,-6.02,-4.36,-6.03,5.98,5.89,6.24,1.62,1.62,1.66
64.71,-4.34,-5.99,-4.34,-5.98,5.96,5.86,6.21,1.61,1.62,1.65
65.35,-4.31,-5.94,-4.31,-5.93,5.92,5.83,6.16,1.61,1.61,1.63
66.01,-4.27,-5.88,-4.27,-5.88,5.88,5.80,6.11,1.61,1.61,1.61
66.67,-4.23,-5.82,-4.23,-5.82,5.82,5.77,6.06,1.59,1.59,1.59
67.33,-4.19,-5.76,-4.19,-5.76,5.77,5.73,6.00,1.58,1.58,1.57
68.01,-4.16,-5.70,-4.16,-5.70,5.71,5.69,5.93,1.55,1.56,1.54
68.69,-4.12,-5.64,-4.12,-5.64,5.65,5.65,5.86,1.53,1.53,1.52
69.37,-4.09,-5.59,-4.09,-5.59,5.60,5.61,5.79,1.51,1.51,1.50
70.07,-4.07,-5.55,-4.07,-5.55,5.55,5.57,5.71,1.48,1.48,1.48
70.77,-4.05,-5.50,-4.05,-5.50,5.50,5.52,5.64,1.45,1.46,1.45
71.48,-4.03,-5.46,-4.03,-5.46,5.46,5.47,5.56,1.43,1.43,1.43
72.19,-4.01,-5.42,-4.01,-5.42,5.41,5.43,5.48,1.40,1.40,1.41
72.91,-3.99,-5.38,-3.99,-5.38,5.37,5.38,5.39,1.38,1.38,1.39
73.64,-3.96,-5.33,-3.96,-5.33,5.32,5.33,5.31,1.36,1.36,1.37
74.38,-3.93,-5.28,-3.93,-5.28,5.27,5.28,5.23,1.34,1.35,1.35
75.12,-3.89,-5.22,-3.89,-5.22,5.23,5.23,5.15,1.34,1.34,1.33
75.87,-3.86,-5.17,-3.86,-5.17,5.18,5.19,5.06,1.32,1.32,1.31
76.63,-3.83,-5.12,-3.83,-5.12,5.13,5.14,4.98,1.30,1.30,1.29
77.40,-3.81,-5.09,-3.81,-5.09,5.09,5.09,4.90,1.28,1.28,1.28
78.17,-3.79,-5.05,-3.79,-5.05,5.04,5.04,4.82,1.25,1.25,1.26
78.95,-3.77,-5.01,-3.77,-5.01,5.00,4.99,4.75,1.23,1.23,1.24
79.74,-3.74,-4.96,-3.74,-4.96,4.95,4.95,4.67,1.21,1.21,1.22
80.54,-3.71,-4.91,-3.71,-4.91,4.90,4.90,4.60,1.19,1.19,1.20
81.35,-3.68,-4.86,-3.68,-4.86,4.85,4.86,4.53,1.17,1.18,1.18
82.16,-3.65,-4.81,-3.65,-4.81,4.81,4.81,4.47,1.16,1.16,1.16
82.98,-3.62,-4.75,-3.62,-4.76,4.76,4.77,4.40,1.14,1.14,1.13
83.81,-3.60,-4.71,-3.60,-4.71,4.72,4.72,4.34,1.12,1.12,1.11
84.65,-3.58,-4.67,-3.58,-4.67,4.68,4.68,4.28,1.10,1.10,1.09
85.50,-3.57,-4.64,-3.57,-4.64,4.65,4.64,4.23,1.08,1.07,1.07
86.35,-3.57,-4.61,-3.57,-4.61,4.62,4.59,4.17,1.05,1.05,1.04
87.22,-3.57,-4.59,-3.57,-4.59,4.60,4.55,4.12,1.03,1.03,1.02
88.09,-3.58,-4.57,-3.58,-4.58,4.58,4.51,4.08,1.00,1.00,0.99
88.97,-3.60,-4.58,-3.60,-4.57,4.57,4.47,4.03,0.97,0.97,0.98
89.86,-3.61,-4.56,-3.61,-4.56,4.55,4.43,3.99,0.94,0.94,0.95
90.76,-3.61,-4.54,-3.61,-4.54,4.53,4.39,3.96,0.92,0.92,0.93
91.66,-3.61,-4.52,-3.61,-4.51,4.50,4.35,3.92,0.89,0.90,0.91
92.58,-3.59,-4.47,-3.59,-4.47,4.47,4.31,3.89,0.88,0.88,0.88
93.51,-3.57,-4.43,-3.57,-4.43,4.43,4.27,3.86,0.86,0.86,0.85
94.44,-3.55,-4.39,-3.55,-4.38,4.39,4.23,3.84,0.84,0.84,0.84
95.39,-3.52,-4.33,-3.52,-4.34,4.34,4.20,3.81,0.82,0.81,0.81
96.34,-3.50,-4.29,-3.50,-4.29,4.28,4.16,3.79,0.78,0.79,0.79
97.30,-3.47,-4.23,-3.47,-4.23,4.23,4.12,3.78,0.76,0.76,0.76
98.28,-3.43,-4.16,-3.43,-4.17,4.17,4.08,3.76,0.74,0.74,0.73
99.26,-3.40,-4.11,-3.40,-4.11,4.11,4.05,3.75,0.71,0.71,0.71
100.25,-3.37,-4.06,-3.37,-4.05,4.05,4.01,3.74,0.68,0.68,0.69
101.25,-3.34,-4.00,-3.34,-4.00,4.00,3.97,3.73,0.66,0.65,0.66
102.27,-3.32,-3.95,-3.32,-3.94,3.94,3.94,3.72,0.62,0.62,0.63
103.29,-3.29,-3.88,-3.29,-3.88,3.89,3.90,3.71,0.60,0.59,0.59
104.32,-3.27,-3.83,-3.27,-3.83,3.83,3.87,3.71,0.56,0.56,0.56
105.37,-3.26,-3.79,-3.26,-3.78,3.79,3.83,3.71,0.53,0.53,0.53
106.42,-3.25,-3.74,-3.25,-3.74,3.74,3.80,3.70,0.49,0.49,0.49
107.48,-3.24,-3.69,-3.25,-3.70,3.70,3.76,3.70,0.46,0.46,0.45
108.56,-3.25,-3.66,-3.25,-3.66,3.66,3.73,3.70,0.41,0.42,0.41
109.64,-3.25,-3.62,-3.25,-3.63,3.63,3.69,3.70,0.38,0.37,0.37
110.74,-3.26,-3.59,-3.26,-3.59,3.59,3.66,3.70,0.33,0.33,0.33
111.85,-3.27,-3.56,-3.27,-3.56,3.55,3.63,3.70,0.28,0.29,0.29
112.97,-3.27,-3.52,-3.27,-3.52,3.51,3.59,3.70,0.24,0.24,0.25
114.10,-3.27,-3.48,-3.27,-3.48,3.47,3.56,3.69,0.20,0.20,0.21
115.24,-3.27,-3.43,-3.27,-3.43,3.43,3.53,3.69,0.16,0.16,0.16
116.39,-3.27,-3.39,-3.27,-3.39,3.38,3.49,3.68,0.11,0.11,0.12
117.55,-3.27,-3.34,-3.27,-3.34,3.34,3.46,3.68,0.07,0.07,0.07
118.73,-3.26,-3.30,-3.26,-3.29,3.29,3.43,3.67,0.03,0.03,0.04
119.92,-3.25,-3.24,-3.25,-3.24,3.24,3.40,3.66,-0.01,-0.01,-0.01
121.12,-3.24,-3.19,-3.24,-3.19,3.20,3.36,3.64,-0.04,-0.04,-0.05
122.33,-3.24,-3.16,-3.24,-3.16,3.17,3.33,3.63,-0.07,-0.08,-0.08
123.55,-3.25,-3.13,-3.25,-3.13,3.13,3.30,3.61,-0.12,-0.11,-0.12
124.79,-3.26,-3.10,-3.26,-3.11,3.11,3.27,3.59,-0.15,-0.15,-0.16
126.03,-3.28,-3.09,-3.28,-3.09,3.09,3.24,3.56,-0.19,-0.19,-0.19
127.29,-3.30,-3.07,-3.30,-3.07,3.07,3.21,3.54,-0.23,-0.23,-0.23
128.57,-3.32,-3.06,-3.32,-3.06,3.06,3.18,3.51,-0.26,-0.26,-0.26
129.85,-3.35,-3.06,-3.35,-3.06,3.06,3.15,3.48,-0.29,-0.29,-0.29
131.15,-3.38,-3.05,-3.38,-3.05,3.06,3.12,3.45,-0.32,-0.32,-0.33
132.46,-3.41,-3.05,-3.41,-3.06,3.05,3.09,3.41,-0.36,-0.36,-0.36
133.79,-3.44,-3.06,-3.44,-3.06,3.06,3.06,3.37,-0.38,-0.38,-0.38
135.12,-3.47,-3.06,-3.47,-3.06,3.06,3.03,3.33,-0.41,-0.41,-0.41
136.48,-3.50,-3.06,-3.50,-3.06,3.06,3.00,3.29,-0.44,-0.44,-0.44
137.84,-3.53,-3.06,-3.53,-3.06,3.06,2.97,3.25,-0.47,-0.47,-0.47
139.22,-3.56,-3.06,-3.56,-3.06,3.06,2.94,3.20,-0.50,-0.50,-0.50
140.61,-3.58,-3.05,-3.58,-3.05,3.05,2.91,3.16,-0.53,-0.53,-0.53
142.02,-3.60,-3.05,-3.60,-3.05,3.04,2.88,3.11,-0.56,-0.56,-0.55
143.44,-3.61,-3.03,-3.61,-3.03,3.02,2.86,3.06,-0.59,-0.59,-0.58
144.87,-3.61,-3.00,-3.61,-3.00,3.00,2.83,3.01,-0.61,-0.62,-0.61
146.32,-3.61,-2.97,-3.61,-2.97,2.97,2.80,2.96,-0.64,-0.64,-0.64
147.78,-3.60,-2.93,-3.60,-2.93,2.94,2.77,2.92,-0.66,-0.66,-0.67
149.26,-3.60,-2.91,-3.60,-2.90,2.91,2.75,2.87,-0.69,-0.69,-0.69
150.75,-3.59,-2.87,-3.59,-2.87,2.88,2.72,2.82,-0.71,-0.71,-0.72
152.26,-3.59,-2.85,-3.59,-2.84,2.85,2.69,2.77,-0.74,-0.74,-0.74
153.78,-3.59,-2.81,-3.59,-2.82,2.82,2.67,2.72,-0.77,-0.77,-0.78
155.32,-3.59,-2.79,-3.59,-2.79,2.79,2.64,2.68,-0.80,-0.80,-0.80
156.88,-3.59,-2.77,-3.59,-2.77,2.77,2.62,2.63,-0.82,-0.82,-0.82
158.44,-3.59,-2.74,-3.59,-2.74,2.74,2.59,2.59,-0.85,-0.85,-0.85
160.03,-3.59,-2.71,-3.59,-2.72,2.72,2.57,2.55,-0.87,-0.87,-0.88
161.63,-3.59,-2.69,-3.59,-2.69,2.69,2.54,2.50,-0.90,-0.90,-0.90
163.24,-3.59,-2.66,-3.59,-2.67,2.67,2.52,2.46,-0.92,-0.92,-0.93
164.88,-3.59,-2.64,-3.59,-2.64,2.64,2.49,2.42,-0.95,-0.95,-0.95
166.53,-3.59,-2.61,-3.59,-2.61,2.61,2.47,2.39,-0.98,-0.98,-0.98
168.19,-3.59,-2.58,-3.59,-2.59,2.59,2.44,2.35,-1.00,-1.00,-1.01
169.87,-3.59,-2.56,-3.59,-2.56,2.56,2.42,2.32,-1.03,-1.03,-1.03
171.57,-3.59,-2.53,-3.59,-2.53,2.53,2.40,2.28,-1.06,-1.06,-1.06
173.29,-3.59,-2.50,-3.59,-2.50,2.50,2.38,2.25,-1.09,-1.09,-1.09
175.02,-3.59,-2.48,-3.59,-2.47,2.47,2.35,2.22,-1.12,-1.12,-1.11
176.77,-3.59,-2.44,-3.59,-2.44,2.44,2.33,2.20,-1.15,-1.15,-1.15
178.54,-3.59,-2.41,-3.59,-2.41,2.41,2.31,2.17,-1.18,-1.18,-1.18
180.32,-3.59,-2.38,-3.59,-2.38,2.38,2.29,2.14,-1.21,-1.21,-1.21
182.13,-3.59,-2.35,-3.59,-2.35,2.35,2.27,2.12,-1.24,-1.24,-1.24
183.95,-3.59,-2.32,-3.59,-2.32,2.32,2.24,2.10,-1.27,-1.27,-1.27
185.79,-3.59,-2.29,-3.59,-2.29,2.29,2.22,2.08,-1.30,-1.30,-1.30
187.65,-3.59,-2.26,-3.59,-2.26,2.26,2.20,2.06,-1.33,-1.33,-1.33
189.52,-3.59,-2.23,-3.59,-2.23,2.23,2.18,2.05,-1.36,-1.36,-1.36
191.42,-3.59,-2.20,-3.59,-2.20,2.20,2.16,2.03,-1.39,-1.39,-1.39
193.33,-3.59,-2.16,-3.59,-2.17,2.17,2.14,2.02,-1.42,-1.42,-1.43
195.27,-3.59,-2.14,-3.59,-2.14,2.14,2.12,2.00,-1.45,-1.45,-1.45
197.22,-3.59,-2.11,-3.59,-2.11,2.11,2.10,1.99,-1.48,-1.48,-1.48
199.19,-3.59,-2.08,-3.59,-2.08,2.08,2.09,1.98,-1.51,-1.51,-1.51
201.18,-3.59,-2.04,-3.59,-2.04,2.05,2.07,1.97,-1.54,-1.54,-1.55
203.19,-3.59,-2.01,-3.59,-2.01,2.01,2.05,1.97,-1.58,-1.58,-1.58
205.23,-3.59,-1.98,-3.59,-1.98,1.98,2.03,1.96,-1.61,-1.61,-1.61
207.28,-3.59,-1.95,-3.59,-1.95,1.95,2.01,1.95,-1.64,-1.64,-1.64
209.35,-3.59,-1.92,-3.59,-1.92,1.92,2.00,1.95,-1.67,-1.67,-1.67
211.44,-3.59,-1.88,-3.59,-1.89,1.88,1.98,1.94,-1.71,-1.71,-1.71
213.56,-3.59,-1.85,-3.59,-1.85,1.85,1.96,1.94,-1.74,-1.74,-1.74
215.69,-3.59,-1.82,-3.59,-1.81,1.82,1.94,1.93,-1.77,-1.77,-1.77
217.85,-3.59,-1.78,-3.59,-1.78,1.78,1.93,1.93,-1.81,-1.81,-1.81
220.03,-3.59,-1.75,-3.59,-1.75,1.75,1.91,1.93,-1.84,-1.84,-1.84
222.23,-3.59,-1.72,-3.59,-1.72,1.72,1.90,1.92,-1.87,-1.87,-1.87
224.45,-3.59,-1.69,-3.59,-1.69,1.69,1.88,1.92,-1.90,-1.90,-1.90
226.70,-3.59,-1.66,-3.59,-1.66,1.66,1.86,1.92,-1.93,-1.93,-1.93
228.96,-3.59,-1.63,-3.59,-1.63,1.63,1.85,1.91,-1.96,-1.96,-1.96
231.25,-3.59,-1.61,-3.59,-1.60,1.60,1.83,1.91,-1.99,-1.99,-1.98
233.57,-3.58,-1.58,-3.58,-1.58,1.57,1.82,1.90,-2.01,-2.01,-2.00
235.90,-3.57,-1.54,-3.57,-1.55,1.55,1.80,1.89,-2.02,-2.02,-2.03
238.26,-3.57,-1.53,-3.57,-1.53,1.53,1.79,1.88,-2.04,-2.04,-2.04
240.64,-3.57,-1.51,-3.57,-1.51,1.52,1.77,1.88,-2.05,-2.05,-2.06
243.05,-3.57,-1.50,-3.57,-1.50,1.51,1.76,1.87,-2.06,-2.07,-2.07
245.48,-3.59,-1.50,-3.59,-1.50,1.50,1.74,1.85,-2.09,-2.09,-2.09
247.93,-3.60,-1.50,-3.60,-1.50,1.50,1.73,1.84,-2.10,-2.10,-2.10
250.41,-3.63,-1.51,-3.63,-1.51,1.51,1.72,1.83,-2.12,-2.12,-2.12
252.92,-3.65,-1.52,-3.65,-1.52,1.52,1.70,1.81,-2.13,-2.13,-2.13
255.45,-3.68,-1.53,-3.68,-1.53,1.53,1.69,1.80,-2.15,-2.15,-2.15
258.00,-3.71,-1.55,-3.71,-1.55,1.55,1.67,1.78,-2.16,-2.16,-2.16
260.58,-3.74,-1.57,-3.74,-1.57,1.57,1.66,1.76,-2.17,-2.17,-2.17
263.19,-3.77,-1.59,-3.77,-1.59,1.59,1.65,1.74,-2.18,-2.18,-2.18
265.82,-3.80,-1.61,-3.80,-1.61,1.61,1.63,1.72,-2.19,-2.19,-2.19
268.48,-3.83,-1.62,-3.83,-1.62,1.63,1.62,1.70,-2.20,-2.21,-2.21
271.16,-3.86,-1.64,-3.86,-1.64,1.64,1.61,1.67,-2.22,-2.22,-2.22
273.87,-3.89,-1.66,-3.89,-1.65,1.65,1.60,1.65,-2.24,-2.24,-2.23
276.61,-3.91,-1.66,-3.91,-1.66,1.66,1.58,1.62,-2.25,-2.25,-2.25
279.38,-3.92,-1.66,-3.92,-1.66,1.66,1.57,1.60,-2.26,-2.26,-2.26
282.17,-3.93,-1.66,-3.93,-1.66,1.65,1.56,1.57,-2.28,-2.28,-2.27
284.99,-3.94,-1.65,-3.94,-1.65,1.65,1.54,1.55,-2.29,-2.29,-2.29
287.84,-3.94,-1.64,-3.94,-1.64,1.63,1.53,1.52,-2.31,-2.30,-2.30
290.72,-3.93,-1.62,-3.93,-1.62,1.62,1.52,1.49,-2.31,-2.31,-2.31
293.63,-3.92,-1.60,-3.92,-1.60,1.60,1.50,1.46,-2.32,-2.32,-2.32
296.57,-3.91,-1.57,-3.91,-1.58,1.58,1.49,1.44,-2.33,-2.33,-2.34
299.53,-3.91,-1.56,-3.91,-1.56,1.57,1.48,1.41,-2.34,-2.34,-2.35
302.53,-3.91,-1.55,-3.91,-1.54,1.55,1.46,1.38,-2.36,-2.36,-2.36
305.55,-3.91,-1.53,-3.91,-1.53,1.53,1.45,1.36,-2.38,-2.38,-2.38
308.61,-3.91,-1.51,-3.91,-1.51,1.51,1.44,1.33,-2.40,-2.40,-2.40
311.69,-3.91,-1.50,-3.91,-1.50,1.50,1.43,1.31,-2.41,-2.41,-2.41
314.81,-3.91,-1.48,-3.91,-1.48,1.48,1.41,1.28,-2.43,-2.43,-2.43
317.96,-3.91,-1.47,-3.91,-1.47,1.47,1.40,1.26,-2.44,-2.44,-2.44
321.14,-3.91,-1.45,-3.91,-1.45,1.45,1.38,1.23,-2.46,-2.46,-2.46
324.35,-3.91,-1.44,-3.91,-1.43,1.43,1.37,1.21,-2.48,-2.48,-2.47
327.59,-3.91,-1.41,-3.91,-1.42,1.42,1.36,1.19,-2.49,-2.49,-2.50
330.87,-3.91,-1.40,-3.91,-1.40,1.40,1.34,1.17,-2.51,-2.51,-2.51
334.18,-3.91,-1.38,-3.91,-1.38,1.38,1.33,1.15,-2.53,-2.53,-2.53
337.52,-3.91,-1.37,-3.91,-1.37,1.37,1.31,1.13,-2.54,-2.54,-2.54
340.90,-3.91,-1.35,-3.91,-1.35,1.35,1.30,1.11,-2.56,-2.56,-2.56
344.30,-3.91,-1.34,-3.91,-1.33,1.33,1.28,1.09,-2.58,-2.58,-2.57
347.75,-3.91,-1.31,-3.91,-1.31,1.31,1.27,1.07,-2.60,-2.60,-2.60
351.23,-3.91,-1.29,-3.91,-1.30,1.30,1.25,1.05,-2.61,-2.61,-2.62
354.74,-3.91,-1.28,-3.91,-1.28,1.28,1.24,1.04,-2.63,-2.63,-2.63
358.28,-3.91,-1.26,-3.91,-1.26,1.26,1.22,1.02,-2.65,-2.65,-2.65
361.87,-3.91,-1.24,-3.91,-1.24,1.24,1.21,1.01,-2.67,-2.67,-2.67
365.49,-3.91,-1.23,-3.91,-1.23,1.23,1.19,1.00,-2.68,-2.68,-2.68
369.14,-3.91,-1.21,-3.91,-1.21,1.21,1.17,0.98,-2.70,-2.70,-2.70
372.83,-3.91,-1.20,-3.91,-1.19,1.19,1.15,0.97,-2.72,-2.72,-2.71
376.56,-3.91,-1.18,-3.91,-1.18,1.17,1.14,0.96,-2.74,-2.74,-2.73
380.33,-3.91,-1.15,-3.91,-1.16,1.16,1.12,0.95,-2.75,-2.75,-2.76
384.13,-3.91,-1.14,-3.91,-1.14,1.14,1.10,0.94,-2.77,-2.77,-2.77
387.97,-3.91,-1.12,-3.91,-1.13,1.13,1.08,0.93,-2.78,-2.78,-2.79
391.85,-3.91,-1.11,-3.91,-1.11,1.11,1.06,0.92,-2.80,-2.80,-2.80
395.77,-3.91,-1.10,-3.91,-1.10,1.10,1.04,0.92,-2.81,-2.81,-2.81
399.73,-3.91,-1.09,-3.91,-1.09,1.09,1.02,0.91,-2.82,-2.82,-2.82
403.72,-3.91,-1.08,-3.91,-1.08,1.08,1.00,0.90,-2.83,-2.83,-2.83
407.76,-3.92,-1.08,-3.92,-1.07,1.08,0.98,0.89,-2.84,-2.84,-2.84
411.84,-3.92,-1.06,-3.92,-1.06,1.07,0.96,0.88,-2.85,-2.85,-2.86
415.96,-3.93,-1.06,-3.93,-1.06,1.06,0.94,0.88,-2.87,-2.87,-2.87
420.12,-3.93,-1.05,-3.93,-1.05,1.05,0.91,0.87,-2.88,-2.88,-2.88
424.32,-3.93,-1.04,-3.93,-1.04,1.03,0.89,0.86,-2.90,-2.90,-2.89
428.56,-3.93,-1.03,-3.93,-1.02,1.01,0.87,0.85,-2.92,-2.91,-2.90
432.85,-3.92,-1.00,-3.92,-1.00,0.99,0.84,0.84,-2.93,-2.93,-2.92
437.18,-3.90,-0.97,-3.90,-0.97,0.96,0.82,0.83,-2.94,-2.94,-2.93
441.55,-3.88,-0.93,-3.88,-0.93,0.92,0.79,0.82,-2.96,-2.95,-2.95
445.96,-3.85,-0.88,-3.85,-0.89,0.88,0.76,0.81,-2.97,-2.97,-2.97
450.42,-3.82,-0.83,-3.82,-0.84,0.84,0.74,0.80,-2.98,-2.98,-2.99
454.93,-3.79,-0.79,-3.79,-0.79,0.80,0.71,0.78,-2.99,-2.99,-3.00
459.48,-3.76,-0.74,-3.76,-0.75,0.75,0.68,0.77,-3.01,-3.01,-3.02
