frequency,raw,error,smoothed,error_smoothed,equalization,parametric_eq,fixed_band_eq,equalized_raw,equalized_smoothed,target
20.00,-5.92,-1.68,-5.91,-1.68,1.70,-0.68,-0.30,-4.22,-4.21,-4.24
20.20,-5.88,-1.68,-5.88,-1.68,1.69,-0.68,-0.30,-4.19,-4.19,-4.20
20.40,-5.83,-1.66,-5.84,-1.67,1.67,-0.68,-0.31,-4.15,-4.16,-4.17
20.61,-5.79,-1.65,-5.79,-1.66,1.65,-0.68,-0.32,-4.14,-4.14,-4.14
20.81,-5.74,-1.63,-5.74,-1.64,1.61,-0.68,-0.33,-4.13,-4.13,-4.11
21.02,-5.69,-1.61,-5.67,-1.59,1.56,-0.69,-0.34,-4.13,-4.11,-4.08
21.23,-5.59,-1.53,-5.59,-1.53,1.50,-0.69,-0.35,-4.08,-4.08,-4.06
21.44,-5.48,-1.43,-5.49,-1.44,1.44,-0.69,-0.36,-4.04,-4.05,-4.05
21.66,-5.38,-1.34,-5.38,-1.34,1.35,-0.69,-0.37,-4.03,-4.03,-4.04
21.87,-5.28,-1.25,-5.27,-1.25,1.26,-0.69,-0.38,-4.02,-4.02,-4.03
22.09,-5.17,-1.15,-5.17,-1.15,1.16,-0.69,-0.39,-4.01,-4.02,-4.02
22.31,-5.07,-1.06,-5.06,-1.05,1.05,-0.70,-0.41,-4.02,-4.01,-4.01
22.54,-4.96,-0.95,-4.96,-0.95,0.94,-0.70,-0.42,-4.02,-4.01,-4.01
22.76,-4.85,-0.84,-4.85,-0.84,0.84,-0.70,-0.43,-4.01,-4.01,-4.01
22.99,-4.74,-0.73,-4.74,-0.74,0.74,-0.70,-0.44,-4.00,-4.01,-4.01
23.22,-4.65,-0.65,-4.64,-0.64,0.64,-0.71,-0.46,-4.01,-4.00,-4.00
23.45,-4.55,-0.55,-4.55,-0.55,0.55,-0.71,-0.47,-3.99,-3.99,-4.00
23.69,-4.46,-0.47,-4.45,-0.46,0.47,-0.71,-0.48,-3.99,-3.98,-3.99
23.92,-4.36,-0.37,-4.37,-0.38,0.40,-0.71,-0.49,-3.96,-3.97,-3.99
24.16,-4.30,-0.31,-4.30,-0.31,0.33,-0.72,-0.51,-3.97,-3.97,-3.98
24.40,-4.25,-0.26,-4.25,-0.26,0.26,-0.72,-0.52,-3.98,-3.98,-3.98
24.65,-4.21,-0.21,-4.20,-0.22,0.20,-0.72,-0.54,-4.01,-4.00,-3.99
24.89,-4.16,-0.16,-4.15,-0.16,0.14,-0.72,-0.55,-4.02,-4.01,-3.99
25.14,-4.10,-0.10,-4.09,-0.10,0.08,-0.73,-0.57,-4.02,-4.02,-4.00
25.39,-4.03,-0.02,-4.03,-0.03,0.02,-0.73,-0.58,-4.01,-4.01,-4.01
25.65,-3.96,0.05,-3.96,0.05,-0.05,-0.73,-0.59,-4.01,-4.01,-4.01
25.91,-3.90,0.12,-3.90,0.12,-0.11,-0.74,-0.61,-4.01,-4.01,-4.02
26.16,-3.84,0.19,-3.84,0.18,-0.17,-0.74,-0.62,-4.01,-4.01,-4.03
26.43,-3.80,0.23,-3.80,0.24,-0.23,-0.75,-0.64,-4.03,-4.02,-4.03
26.69,-3.76,0.28,-3.75,0.28,-0.28,-0.75,-0.65,-4.04,-4.03,-4.04
26.96,-3.72,0.32,-3.72,0.32,-0.32,-0.76,-0.67,-4.04,-4.04,-4.04
27.23,-3.69,0.36,-3.69,0.36,-0.36,-0.76,-0.68,-4.04,-4.05,-4.05
27.50,-3.67,0.38,-3.67,0.39,-0.38,-0.77,-0.69,-4.05,-4.05,-4.05
27.77,-3.66,0.42,-3.65,0.41,-0.40,-0.77,-0.71,-4.06,-4.05,-4.07
28.05,-3.64,0.44,-3.64,0.43,-0.42,-0.78,-0.72,-4.06,-4.06,-4.07
28.33,-3.64,0.45,-3.64,0.44,-0.45,-0.78,-0.73,-4.08,-4.09,-4.08
28.62,-3.64,0.46,-3.64,0.45,-0.48,-0.79,-0.75,-4.11,-4.12,-4.10
28.90,-3.64,0.46,-3.63,0.47,-0.51,-0.80,-0.76,-4.15,-4.14,-4.10
29.19,-3.60,0.51,-3.59,0.51,-0.55,-0.80,-0.77,-4.14,-4.14,-4.11
29.48,-3.53,0.57,-3.53,0.57,-0.58,-0.81,-0.78,-4.11,-4.11,-4.10
29.78,-3.47,0.64,-3.47,0.64,-0.62,-0.82,-0.79,-4.08,-4.09,-4.11
30.08,-3.42,0.70,-3.43,0.69,-0.64,-0.83,-0.80,-4.06,-4.07,-4.12
30.38,-3.42,0.71,-3.41,0.71,-0.67,-0.84,-0.80,-4.08,-4.08,-4.13
30.68,-3.42,0.72,-3.41,0.72,-0.69,-0.85,-0.81,-4.10,-4.10,-4.13
30.99,-3.42,0.73,-3.42,0.72,-0.71,-0.86,-0.82,-4.13,-4.13,-4.14
31.30,-3.42,0.73,-3.43,0.72,-0.74,-0.87,-0.82,-4.16,-4.17,-4.15
31.61,-3.42,0.73,-3.43,0.73,-0.79,-0.88,-0.83,-4.20,-4.21,-4.15
31.93,-3.42,0.74,-3.39,0.78,-0.84,-0.89,-0.83,-4.26,-4.23,-4.16
32.24,-3.31,0.87,-3.30,0.87,-0.92,-0.91,-0.83,-4.23,-4.22,-4.18
32.57,-3.17,1.01,-3.18,1.00,-1.01,-0.92,-0.83,-4.18,-4.19,-4.18
32.89,-3.03,1.15,-3.04,1.14,-1.11,-0.93,-0.83,-4.14,-4.15,-4.17
33.22,-2.92,1.27,-2.92,1.26,-1.22,-0.95,-0.83,-4.14,-4.15,-4.19
33.55,-2.84,1.35,-2.83,1.36,-1.33,-0.97,-0.83,-4.17,-4.16,-4.19
33.89,-2.76,1.44,-2.76,1.44,-1.43,-0.98,-0.83,-4.19,-4.19,-4.20
34.23,-2.69,1.51,-2.69,1.51,-1.51,-1.00,-0.83,-4.20,-4.20,-4.20
34.57,-2.64,1.58,-2.63,1.58,-1.58,-1.02,-0.83,-4.22,-4.21,-4.21
34.92,-2.58,1.64,-2.58,1.63,-1.64,-1.04,-0.83,-4.21,-4.22,-4.22
35.27,-2.55,1.67,-2.55,1.67,-1.68,-1.06,-0.82,-4.23,-4.23,-4.22
35.62,-2.53,1.70,-2.52,1.70,-1.71,-1.09,-0.82,-4.23,-4.23,-4.23
35.97,-2.51,1.72,-2.51,1.72,-1.72,-1.11,-0.82,-4.23,-4.23,-4.23
36.33,-2.51,1.73,-2.50,1.74,-1.72,-1.13,-0.82,-4.23,-4.22,-4.23
36.70,-2.51,1.74,-2.51,1.74,-1.70,-1.16,-0.81,-4.21,-4.21,-4.25
37.06,-2.52,1.74,-2.55,1.71,-1.68,-1.18,-0.81,-4.20,-4.23,-4.26
37.43,-2.61,1.65,-2.61,1.66,-1.66,-1.21,-0.81,-4.27,-4.26,-4.26
37.81,-2.69,1.59,-2.67,1.60,-1.63,-1.23,-0.80,-4.32,-4.30,-4.28
38.19,-2.73,1.56,-2.72,1.56,-1.61,-1.26,-0.80,-4.34,-4.33,-4.29
38.57,-2.73,1.56,-2.73,1.56,-1.60,-1.28,-0.80,-4.33,-4.33,-4.29
38.95,-2.73,1.58,-2.73,1.58,-1.59,-1.31,-0.80,-4.32,-4.32,-4.30
39.34,-2.73,1.59,-2.73,1.59,-1.59,-1.33,-0.79,-4.32,-4.32,-4.32
39.74,-2.73,1.60,-2.73,1.60,-1.59,-1.35,-0.79,-4.31,-4.31,-4.33
40.14,-2.73,1.60,-2.72,1.61,-1.58,-1.37,-0.79,-4.31,-4.30,-4.32
40.54,-2.73,1.61,-2.72,1.61,-1.57,-1.39,-0.79,-4.30,-4.30,-4.34
40.94,-2.73,1.61,-2.75,1.59,-1.56,-1.40,-0.79,-4.29,-4.31,-4.34
41.35,-2.81,1.55,-2.82,1.54,-1.53,-1.41,-0.79,-4.34,-4.35,-4.36
41.76,-2.91,1.45,-2.89,1.48,-1.50,-1.41,-0.79,-4.41,-4.39,-4.36
42.18,-2.96,1.42,-2.94,1.44,-1.46,-1.41,-0.80,-4.42,-4.39,-4.37
42.60,-2.96,1.43,-2.96,1.42,-1.42,-1.41,-0.80,-4.38,-4.38,-4.39
43.03,-2.97,1.43,-3.01,1.40,-1.38,-1.40,-0.80,-4.35,-4.39,-4.40
43.46,-3.07,1.36,-3.07,1.36,-1.36,-1.39,-0.81,-4.42,-4.42,-4.43
43.90,-3.17,1.30,-3.14,1.32,-1.34,-1.38,-0.81,-4.51,-4.48,-4.46
44.33,-3.19,1.30,-3.19,1.30,-1.34,-1.36,-0.81,-4.52,-4.52,-4.49
44.78,-3.19,1.32,-3.20,1.32,-1.34,-1.34,-0.82,-4.53,-4.54,-4.51
45.23,-3.19,1.35,-3.19,1.35,-1.35,-1.32,-0.83,-4.54,-4.54,-4.54
45.68,-3.19,1.38,-3.19,1.37,-1.37,-1.29,-0.83,-4.55,-4.55,-4.56
46.13,-3.19,1.39,-3.19,1.39,-1.38,-1.27,-0.84,-4.57,-4.57,-4.58
46.60,-3.19,1.40,-3.19,1.40,-1.40,-1.24,-0.85,-4.59,-4.59,-4.59
47.06,-3.19,1.41,-3.18,1.42,-1.41,-1.21,-0.86,-4.59,-4.59,-4.60
47.53,-3.19,1.43,-3.18,1.43,-1.40,-1.19,-0.87,-4.59,-4.59,-4.62
48.01,-3.19,1.43,-3.21,1.41,-1.39,-1.16,-0.88,-4.58,-4.60,-4.61
48.49,-3.25,1.37,-3.25,1.38,-1.37,-1.13,-0.89,-4.61,-4.61,-4.62
48.97,-3.32,1.32,-3.31,1.33,-1.33,-1.11,-0.90,-4.65,-4.64,-4.64
49.46,-3.37,1.28,-3.37,1.27,-1.29,-1.08,-0.91,-4.66,-4.66,-4.65
49.96,-3.42,1.23,-3.40,1.24,-1.24,-1.06,-0.92,-4.66,-4.65,-4.64
50.46,-3.44,1.19,-3.44,1.20,-1.20,-1.03,-0.93,-4.63,-4.63,-4.63
50.96,-3.46,1.17,-3.49,1.14,-1.14,-1.01,-0.94,-4.60,-4.63,-4.63
51.47,-3.55,1.09,-3.55,1.09,-1.09,-0.99,-0.96,-4.64,-4.64,-4.64
51.99,-3.64,1.01,-3.59,1.05,-1.04,-0.97,-0.97,-4.68,-4.64,-4.65
52.51,-3.64,1.01,-3.64,1.01,-1.00,-0.95,-0.98,-4.64,-4.64,-4.65
53.03,-3.65,1.02,-3.70,0.97,-0.97,-0.93,-0.99,-4.62,-4.67,-4.67
53.56,-3.77,0.92,-3.76,0.92,-0.94,-0.91,-1.00,-4.71,-4.70,-4.68
54.10,-3.87,0.84,-3.83,0.88,-0.91,-0.90,-1.02,-4.78,-4.74,-4.70
54.64,-3.87,0.87,-3.87,0.87,-0.89,-0.88,-1.03,-4.76,-4.76,-4.74
55.18,-3.87,0.90,-3.87,0.90,-0.87,-0.86,-1.04,-4.74,-4.74,-4.77
55.74,-3.87,0.93,-3.89,0.90,-0.86,-0.85,-1.05,-4.73,-4.75,-4.80
56.29,-3.94,0.88,-3.96,0.86,-0.85,-0.84,-1.06,-4.79,-4.81,-4.82
56.86,-4.07,0.78,-4.03,0.82,-0.84,-0.82,-1.07,-4.91,-4.87,-4.85
57.42,-4.10,0.79,-4.08,0.81,-0.83,-0.81,-1.07,-4.93,-4.92,-4.89
58.00,-4.10,0.83,-4.10,0.83,-0.82,-0.80,-1.08,-4.92,-4.92,-4.93
58.58,-4.10,0.86,-4.12,0.84,-0.81,-0.79,-1.09,-4.91,-4.93,-4.96
59.16,-4.14,0.84,-4.17,0.82,-0.80,-0.77,-1.09,-4.94,-4.97,-4.98
59.76,-4.27,0.75,-4.24,0.78,-0.79,-0.76,-1.09,-5.06,-5.03,-5.02
60.35,-4.32,0.74,-4.30,0.76,-0.79,-0.75,-1.09,-5.11,-5.09,-5.06
60.96,-4.33,0.77,-4.32,0.78,-0.78,-0.74,-1.09,-5.11,-5.10,-5.09
61.57,-4.33,0.82,-4.35,0.79,-0.77,-0.73,-1.09,-5.10,-5.12,-5.15
62.18,-4.37,0.82,-4.41,0.78,-0.76,-0.72,-1.09,-5.13,-5.17,-5.19
62.80,-4.52,0.70,-4.48,0.75,-0.75,-0.72,-1.08,-5.27,-5.22,-5.22
63.43,-4.56,0.71,-4.54,0.73,-0.74,-0.71,-1.08,-5.30,-5.27,-5.27
64.07,-4.56,0.74,-4.58,0.72,-0.73,-0.70,-1.07,-5.28,-5.30,-5.29
64.71,-4.60,0.73,-4.62,0.72,-0.71,-0.69,-1.06,-5.31,-5.33,-5.33
65.35,-4.67,0.69,-4.68,0.69,-0.68,-0.68,-1.05,-5.35,-5.36,-5.36
66.01,-4.78,0.62,-4.74,0.66,-0.65,-0.67,-1.03,-5.43,-5.39,-5.40
66.67,-4.78,0.64,-4.78,0.64,-0.63,-0.67,-1.02,-5.40,-5.41,-5.42
67.33,-4.81,0.64,-4.83,0.61,-0.60,-0.66,-1.01,-5.41,-5.43,-5.45
68.01,-4.88,0.59,-4.88,0.58,-0.58,-0.65,-0.99,-5.45,-5.46,-5.47
68.69,-4.97,0.52,-4.95,0.54,-0.55,-0.64,-0.97,-5.52,-5.50,-5.49
69.37,-5.01,0.50,-5.00,0.51,-0.54,-0.64,-0.95,-5.55,-5.54,-5.51
70.07,-5.01,0.52,-5.01,0.51,-0.54,-0.63,-0.93,-5.54,-5.55,-5.53
70.77,-5.01,0.54,-5.01,0.53,-0.54,-0.62,-0.91,-5.55,-5.55,-5.54
71.48,-5.01,0.55,-5.01,0.55,-0.55,-0.62,-0.89,-5.56,-5.56,-5.56
72.19,-5.01,0.57,-5.01,0.57,-0.56,-0.61,-0.87,-5.57,-5.57,-5.58
72.91,-5.01,0.60,-5.01,0.59,-0.59,-0.60,-0.84,-5.60,-5.60,-5.60
73.64,-5.01,0.62,-5.01,0.62,-0.61,-0.60,-0.82,-5.62,-5.62,-5.63
74.38,-5.01,0.64,-5.01,0.64,-0.64,-0.59,-0.80,-5.65,-5.65,-5.64
75.12,-5.01,0.66,-5.01,0.66,-0.66,-0.58,-0.77,-5.67,-5.67,-5.67
75.87,-5.01,0.69,-5.01,0.68,-0.68,-0.58,-0.75,-5.69,-5.69,-5.70
76.63,-5.01,0.70,-5.01,0.71,-0.71,-0.57,-0.73,-5.71,-5.71,-5.71
77.40,-5.01,0.72,-5.01,0.72,-0.73,-0.56,-0.70,-5.74,-5.74,-5.73
78.17,-5.01,0.74,-5.01,0.73,-0.75,-0.56,-0.68,-5.75,-5.75,-5.75
78.95,-5.01,0.74,-5.01,0.74,-0.75,-0.55,-0.65,-5.76,-5.76,-5.75
79.74,-5.01,0.75,-5.01,0.75,-0.75,-0.54,-0.63,-5.76,-5.76,-5.76
80.54,-5.01,0.76,-5.00,0.76,-0.73,-0.54,-0.60,-5.74,-5.73,-5.76
81.35,-5.01,0.76,-5.01,0.76,-0.71,-0.53,-0.58,-5.71,-5.72,-5.77
82.16,-5.03,0.74,-5.05,0.71,-0.68,-0.53,-0.55,-5.70,-5.73,-5.77
82.98,-5.12,0.64,-5.12,0.64,-0.64,-0.52,-0.53,-5.76,-5.76,-5.76
83.81,-5.22,0.54,-5.19,0.57,-0.61,-0.51,-0.51,-5.83,-5.80,-5.76
84.65,-5.24,0.51,-5.23,0.51,-0.57,-0.51,-0.48,-5.81,-5.81,-5.75
85.50,-5.24,0.50,-5.25,0.49,-0.53,-0.50,-0.46,-5.77,-5.78,-5.73
86.35,-5.24,0.49,-5.24,0.49,-0.49,-0.49,-0.44,-5.72,-5.73,-5.73
87.22,-5.24,0.47,-5.22,0.49,-0.44,-0.49,-0.41,-5.68,-5.66,-5.71
88.09,-5.24,0.47,-5.24,0.46,-0.40,-0.48,-0.39,-5.64,-5.64,-5.70
88.97,-5.24,0.45,-5.29,0.40,-0.36,-0.47,-0.37,-5.60,-5.65,-5.69
89.86,-5.39,0.29,-5.36,0.32,-0.33,-0.47,-0.35,-5.71,-5.69,-5.67
90.76,-5.46,0.22,-5.43,0.24,-0.29,-0.46,-0.33,-5.75,-5.72,-5.68
91.66,-5.47,0.20,-5.48,0.19,-0.26,-0.45,-0.31,-5.73,-5.74,-5.66
92.58,-5.47,0.20,-5.47,0.19,-0.22,-0.45,-0.29,-5.69,-5.70,-5.67
93.51,-5.47,0.19,-5.47,0.19,-0.19,-0.44,-0.26,-5.65,-5.65,-5.66
94.44,-5.47,0.19,-5.46,0.20,-0.15,-0.43,-0.24,-5.62,-5.61,-5.65
95.39,-5.47,0.19,-5.47,0.18,-0.13,-0.43,-0.22,-5.60,-5.60,-5.66
96.34,-5.50,0.17,-5.53,0.13,-0.11,-0.42,-0.20,-5.61,-5.64,-5.67
97.30,-5.61,0.06,-5.60,0.07,-0.09,-0.41,-0.19,-5.69,-5.69,-5.67
98.28,-5.70,-0.02,-5.67,0.01,-0.06,-0.41,-0.17,-5.75,-5.72,-5.67
99.26,-5.70,-0.02,-5.70,-0.02,-0.02,-0.40,-0.15,-5.72,-5.72,-5.68
100.25,-5.70,-0.01,-5.70,-0.01,0.02,-0.39,-0.13,-5.67,-5.67,-5.69
101.25,-5.70,-0.00,-5.71,-0.01,0.06,-0.39,-0.11,-5.64,-5.64,-5.70
102.27,-5.73,-0.02,-5.76,-0.05,0.08,-0.38,-0.09,-5.64,-5.67,-5.71
103.29,-5.84,-0.10,-5.83,-0.10,0.09,-0.37,-0.08,-5.75,-5.73,-5.73
104.32,-5.92,-0.17,-5.89,-0.14,0.09,-0.37,-0.06,-5.83,-5.80,-5.75
105.37,-5.92,-0.14,-5.92,-0.14,0.08,-0.36,-0.04,-5.84,-5.84,-5.78
106.42,-5.92,-0.11,-5.93,-0.11,0.08,-0.35,-0.03,-5.84,-5.85,-5.81
107.48,-5.92,-0.06,-5.92,-0.06,0.07,-0.35,-0.01,-5.84,-5.84,-5.86
108.56,-5.92,-0.01,-5.90,0.00,0.06,-0.34,0.00,-5.85,-5.84,-5.91
109.64,-5.92,0.03,-5.93,0.02,0.04,-0.33,0.02,-5.87,-5.88,-5.94
110.74,-5.93,0.06,-5.99,0.00,0.02,-0.33,0.03,-5.91,-5.97,-5.99
111.85,-6.12,-0.09,-6.06,-0.03,-0.01,-0.32,0.05,-6.12,-6.07,-6.03
112.97,-6.15,-0.05,-6.13,-0.04,-0.02,-0.31,0.06,-6.17,-6.15,-6.10
114.10,-6.15,-0.01,-6.16,-0.02,-0.02,-0.31,0.07,-6.17,-6.19,-6.13
115.24,-6.15,0.04,-6.14,0.06,-0.02,-0.30,0.08,-6.17,-6.16,-6.19
116.39,-6.15,0.09,-6.15,0.09,-0.03,-0.29,0.09,-6.17,-6.18,-6.24
117.55,-6.16,0.13,-6.21,0.07,-0.03,-0.29,0.10,-6.19,-6.24,-6.29
118.73,-6.32,0.00,-6.28,0.04,-0.04,-0.28,0.11,-6.36,-6.33,-6.32
119.92,-6.38,-0.03,-6.35,0.00,-0.05,-0.28,0.12,-6.42,-6.40,-6.35
121.12,-6.38,0.01,-6.39,-0.01,-0.04,-0.27,0.13,-6.42,-6.43,-6.38
122.33,-6.38,0.03,-6.37,0.04,-0.02,-0.27,0.13,-6.40,-6.39,-6.41
123.55,-6.38,0.05,-6.38,0.05,-0.00,-0.26,0.14,-6.38,-6.38,-6.42
124.79,-6.38,0.07,-6.43,0.02,0.01,-0.25,0.14,-6.37,-6.42,-6.45
126.03,-6.53,-0.05,-6.50,-0.03,0.02,-0.25,0.15,-6.51,-6.48,-6.47
127.29,-6.58,-0.09,-6.56,-0.07,0.03,-0.24,0.15,-6.55,-6.54,-6.49
128.57,-6.61,-0.09,-6.61,-0.09,0.05,-0.24,0.15,-6.56,-6.56,-6.52
129.85,-6.61,-0.06,-6.60,-0.06,0.07,-0.23,0.15,-6.54,-6.53,-6.54
131.15,-6.61,-0.04,-6.61,-0.04,0.10,-0.23,0.16,-6.51,-6.51,-6.57
132.46,-6.61,-0.02,-6.66,-0.07,0.11,-0.22,0.16,-6.49,-6.55,-6.59
133.79,-6.75,-0.15,-6.73,-0.13,0.12,-0.22,0.15,-6.63,-6.61,-6.60
135.12,-6.84,-0.21,-6.80,-0.18,0.12,-0.21,0.15,-6.71,-6.68,-6.63
136.48,-6.84,-0.20,-6.85,-0.20,0.13,-0.21,0.15,-6.70,-6.71,-6.64
137.84,-6.84,-0.17,-6.84,-0.16,0.15,-0.20,0.15,-6.69,-6.69,-6.67
139.22,-6.84,-0.13,-6.84,-0.14,0.18,-0.20,0.15,-6.66,-6.66,-6.71
140.61,-6.84,-0.11,-6.88,-0.15,0.21,-0.20,0.14,-6.63,-6.67,-6.73
142.02,-6.95,-0.21,-6.92,-0.18,0.24,-0.19,0.14,-6.71,-6.69,-6.74
143.44,-7.03,-0.26,-7.01,-0.24,0.26,-0.19,0.13,-6.76,-6.74,-6.76
144.87,-7.06,-0.27,-7.11,-0.32,0.29,-0.18,0.13,-6.77,-6.82,-6.79
146.32,-7.21,-0.38,-7.19,-0.37,0.32,-0.18,0.12,-6.89,-6.87,-6.83
147.78,-7.29,-0.44,-7.26,-0.40,0.35,-0.18,0.12,-6.93,-6.90,-6.85
149.26,-7.29,-0.40,-7.28,-0.39,0.38,-0.17,0.11,-6.91,-6.91,-6.89
150.75,-7.29,-0.35,-7.30,-0.36,0.39,-0.17,0.10,-6.90,-6.91,-6.94
152.26,-7.30,-0.30,-7.35,-0.35,0.39,-0.16,0.10,-6.91,-6.96,-7.00
153.78,-7.45,-0.39,-7.42,-0.36,0.37,-0.16,0.09,-7.08,-7.05,-7.06
155.32,-7.51,-0.38,-7.48,-0.37,0.35,-0.16,0.08,-7.16,-7.14,-7.12
156.88,-7.52,-0.34,-7.53,-0.34,0.32,-0.16,0.08,-7.20,-7.21,-7.18
158.44,-7.52,-0.28,-7.52,-0.28,0.28,-0.15,0.07,-7.24,-7.24,-7.24
160.03,-7.52,-0.22,-7.52,-0.22,0.24,-0.15,0.06,-7.28,-7.28,-7.30
161.63,-7.52,-0.18,-7.52,-0.18,0.18,-0.15,0.05,-7.33,-7.34,-7.34
163.24,-7.52,-0.13,-7.53,-0.14,0.12,-0.14,0.05,-7.40,-7.41,-7.39
164.88,-7.52,-0.10,-7.51,-0.08,0.04,-0.14,0.04,-7.48,-7.46,-7.42
166.53,-7.48,-0.03,-7.45,0.00,-0.03,-0.14,0.03,-7.51,-7.48,-7.45
168.19,-7.36,0.12,-7.38,0.10,-0.10,-0.14,0.02,-7.46,-7.47,-7.48
169.87,-7.29,0.21,-7.31,0.18,-0.14,-0.13,0.02,-7.43,-7.46,-7.50
171.57,-7.29,0.22,-7.28,0.22,-0.17,-0.13,0.01,-7.46,-7.45,-7.50
173.29,-7.29,0.21,-7.26,0.24,-0.17,-0.13,0.00,-7.46,-7.44,-7.50
175.02,-7.29,0.21,-7.29,0.21,-0.16,-0.13,-0.00,-7.45,-7.46,-7.50
176.77,-7.29,0.22,-7.35,0.15,-0.14,-0.13,-0.01,-7.42,-7.49,-7.50
178.54,-7.47,0.03,-7.42,0.07,-0.10,-0.13,-0.02,-7.57,-7.52,-7.50
180.32,-7.52,-0.02,-7.49,0.00,-0.06,-0.12,-0.03,-7.57,-7.55,-7.49
182.13,-7.52,-0.03,-7.53,-0.04,-0.02,-0.12,-0.03,-7.54,-7.55,-7.49
183.95,-7.52,-0.02,-7.52,-0.03,0.01,-0.12,-0.04,-7.51,-7.52,-7.49
185.79,-7.52,-0.03,-7.52,-0.02,0.02,-0.12,-0.05,-7.50,-7.50,-7.49
187.65,-7.52,-0.01,-7.52,-0.01,0.02,-0.12,-0.05,-7.50,-7.50,-7.51
189.52,-7.52,0.01,-7.52,0.00,0.01,-0.12,-0.06,-7.51,-7.51,-7.52
191.42,-7.52,0.02,-7.52,0.02,-0.01,-0.12,-0.07,-7.53,-7.53,-7.54
193.33,-7.52,0.03,-7.52,0.03,-0.03,-0.12,-0.07,-7.55,-7.55,-7.55
195.27,-7.52,0.04,-7.52,0.04,-0.05,-0.11,-0.08,-7.56,-7.56,-7.56
197.22,-7.52,0.06,-7.52,0.06,-0.06,-0.11,-0.09,-7.58,-7.58,-7.57
199.19,-7.52,0.09,-7.52,0.08,-0.08,-0.11,-0.09,-7.60,-7.60,-7.60
201.18,-7.52,0.10,-7.52,0.10,-0.09,-0.11,-0.10,-7.61,-7.61,-7.62
203.19,-7.52,0.11,-7.52,0.11,-0.11,-0.11,-0.11,-7.63,-7.63,-7.63
205.23,-7.52,0.13,-7.52,0.12,-0.13,-0.11,-0.11,-7.65,-7.65,-7.65
207.28,-7.52,0.14,-7.52,0.14,-0.14,-0.11,-0.12,-7.66,-7.66,-7.66
209.35,-7.52,0.16,-7.52,0.16,-0.16,-0.11,-0.12,-7.68,-7.68,-7.67
211.44,-7.52,0.19,-7.52,0.18,-0.18,-0.11,-0.13,-7.69,-7.69,-7.70
213.56,-7.52,0.20,-7.52,0.19,-0.19,-0.11,-0.14,-7.71,-7.71,-7.71
215.69,-7.52,0.19,-7.52,0.20,-0.20,-0.11,-0.14,-7.72,-7.72,-7.71
217.85,-7.52,0.21,-7.52,0.21,-0.22,-0.11,-0.15,-7.74,-7.74,-7.73
220.03,-7.52,0.23,-7.52,0.23,-0.23,-0.11,-0.15,-7.75,-7.75,-7.75
222.23,-7.52,0.25,-7.52,0.24,-0.24,-0.11,-0.16,-7.75,-7.75,-7.77
224.45,-7.52,0.25,-7.52,0.25,-0.24,-0.11,-0.16,-7.76,-7.76,-7.76
226.70,-7.52,0.25,-7.52,0.25,-0.25,-0.11,-0.17,-7.77,-7.77,-7.77
228.96,-7.52,0.25,-7.52,0.25,-0.25,-0.11,-0.17,-7.77,-7.77,-7.77
231.25,-7.52,0.25,-7.52,0.25,-0.26,-0.11,-0.17,-7.77,-7.77,-7.76
233.57,-7.52,0.25,-7.52,0.25,-0.26,-0.11,-0.18,-7.77,-7.77,-7.77
235.90,-7.52,0.26,-7.52,0.26,-0.25,-0.12,-0.18,-7.77,-7.77,-7.78
238.26,-7.52,0.25,-7.52,0.26,-0.25,-0.12,-0.18,-7.77,-7.77,-7.77
240.64,-7.52,0.25,-7.52,0.25,-0.25,-0.12,-0.18,-7.77,-7.77,-7.77
243.05,-7.52,0.24,-7.52,0.24,-0.25,-0.12,-0.18,-7.76,-7.76,-7.75
245.48,-7.52,0.22,-7.52,0.22,-0.24,-0.12,-0.19,-7.76,-7.76,-7.74
247.93,-7.52,0.21,-7.52,0.21,-0.22,-0.12,-0.19,-7.74,-7.74,-7.72
250.41,-7.52,0.20,-7.52,0.20,-0.19,-0.12,-0.19,-7.71,-7.71,-7.72
252.92,-7.52,0.18,-7.50,0.19,-0.16,-0.12,-0.19,-7.67,-7.66,-7.69
255.45,-7.52,0.15,-7.52,0.16,-0.11,-0.12,-0.19,-7.62,-7.62,-7.67
258.00,-7.52,0.14,-7.57,0.09,-0.05,-0.13,-0.19,-7.57,-7.62,-7.65
260.58,-7.66,-0.01,-7.64,0.00,0.01,-0.13,-0.18,-7.65,-7.63,-7.65
263.19,-7.74,-0.11,-7.71,-0.08,0.06,-0.13,-0.18,-7.68,-7.65,-7.62
265.82,-7.75,-0.14,-7.75,-0.15,0.10,-0.13,-0.18,-7.65,-7.66,-7.61
268.48,-7.75,-0.16,-7.77,-0.18,0.12,-0.13,-0.18,-7.63,-7.65,-7.59
271.16,-7.75,-0.18,-7.75,-0.18,0.13,-0.14,-0.17,-7.61,-7.62,-7.56
273.87,-7.75,-0.20,-7.70,-0.16,0.13,-0.14,-0.17,-7.61,-7.57,-7.55
276.61,-7.62,-0.10,-7.63,-0.11,0.12,-0.14,-0.17,-7.49,-7.51,-7.52
279.38,-7.54,-0.03,-7.56,-0.06,0.11,-0.14,-0.16,-7.43,-7.46,-7.51
282.17,-7.52,-0.04,-7.52,-0.04,0.09,-0.14,-0.16,-7.42,-7.42,-7.48
284.99,-7.52,-0.07,-7.51,-0.06,0.09,-0.15,-0.15,-7.43,-7.42,-7.45
287.84,-7.52,-0.09,-7.52,-0.09,0.10,-0.15,-0.15,-7.42,-7.42,-7.42
290.72,-7.52,-0.12,-7.52,-0.12,0.12,-0.15,-0.14,-7.40,-7.40,-7.40
293.63,-7.52,-0.14,-7.52,-0.15,0.14,-0.15,-0.14,-7.38,-7.38,-7.38
296.57,-7.52,-0.17,-7.52,-0.17,0.16,-0.16,-0.13,-7.36,-7.36,-7.34
299.53,-7.52,-0.19,-7.52,-0.20,0.17,-0.16,-0.13,-7.34,-7.35,-7.33
302.53,-7.52,-0.20,-7.53,-0.22,0.17,-0.16,-0.12,-7.34,-7.36,-7.32
305.55,-7.52,-0.24,-7.49,-0.20,0.16,-0.17,-0.11,-7.35,-7.33,-7.28
308.61,-7.46,-0.18,-7.43,-0.16,0.15,-0.17,-0.11,-7.31,-7.28,-7.27
311.69,-7.31,-0.06,-7.35,-0.11,0.13,-0.17,-0.10,-7.18,-7.23,-7.25
314.81,-7.29,-0.06,-7.30,-0.06,0.11,-0.18,-0.09,-7.18,-7.19,-7.23
317.96,-7.29,-0.07,-7.27,-0.05,0.09,-0.18,-0.09,-7.19,-7.18,-7.22
321.14,-7.29,-0.07,-7.29,-0.07,0.08,-0.18,-0.08,-7.20,-7.20,-7.22
324.35,-7.29,-0.06,-7.29,-0.07,0.08,-0.19,-0.07,-7.21,-7.21,-7.22
327.59,-7.29,-0.08,-7.29,-0.08,0.08,-0.19,-0.06,-7.21,-7.21,-7.21
330.87,-7.29,-0.09,-7.29,-0.09,0.07,-0.19,-0.05,-7.21,-7.21,-7.20
334.18,-7.29,-0.09,-7.30,-0.11,0.07,-0.20,-0.04,-7.22,-7.24,-7.20
337.52,-7.29,-0.11,-7.28,-0.10,0.05,-0.20,-0.04,-7.24,-7.23,-7.18
340.90,-7.29,-0.13,-7.23,-0.06,0.04,-0.21,-0.03,-7.25,-7.19,-7.16
344.30,-7.11,0.04,-7.15,-0.01,0.02,-0.21,-0.02,-7.08,-7.13,-7.14
347.75,-7.06,0.07,-7.08,0.04,0.01,-0.22,-0.01,-7.04,-7.07,-7.13
351.23,-7.06,0.05,-7.04,0.06,0.01,-0.22,0.00,-7.05,-7.04,-7.11
354.74,-7.06,0.03,-7.05,0.03,-0.00,-0.23,0.01,-7.06,-7.06,-7.09
358.28,-7.06,0.00,-7.06,0.00,-0.02,-0.23,0.02,-7.07,-7.08,-7.06
361.87,-7.06,-0.02,-7.07,-0.03,-0.03,-0.24,0.03,-7.08,-7.10,-7.04
365.49,-7.06,-0.05,-7.05,-0.03,-0.03,-0.24,0.04,-7.09,-7.08,-7.01
369.14,-7.04,-0.03,-6.99,0.01,-0.04,-0.25,0.05,-7.07,-7.03,-7.00
372.83,-6.90,0.09,-6.93,0.06,-0.04,-0.26,0.06,-6.94,-6.97,-6.98
376.56,-6.84,0.13,-6.86,0.10,-0.05,-0.26,0.07,-6.88,-6.91,-6.97
380.33,-6.84,0.10,-6.83,0.11,-0.06,-0.27,0.08,-6.89,-6.88,-6.94
384.13,-6.84,0.08,-6.83,0.09,-0.07,-0.27,0.09,-6.90,-6.90,-6.92
387.97,-6.84,0.08,-6.84,0.08,-0.08,-0.28,0.10,-6.92,-6.92,-6.92
391.85,-6.84,0.07,-6.85,0.06,-0.09,-0.29,0.11,-6.93,-6.94,-6.91
395.77,-6.84,0.05,-6.84,0.05,-0.11,-0.30,0.12,-6.95,-6.95,-6.89
399.73,-6.84,0.04,-6.81,0.08,-0.12,-0.30,0.13,-6.96,-6.93,-6.88
403.72,-6.75,0.12,-6.74,0.13,-0.14,-0.31,0.14,-6.89,-6.88,-6.87
407.76,-6.64,0.23,-6.67,0.19,-0.17,-0.32,0.14,-6.80,-6.83,-6.86
411.84,-6.61,0.25,-6.61,0.24,-0.19,-0.33,0.15,-6.79,-6.80,-6.85
415.96,-6.61,0.24,-6.60,0.25,-0.20,-0.33,0.16,-6.81,-6.80,-6.84
420.12,-6.61,0.23,-6.60,0.23,-0.21,-0.34,0.16,-6.82,-6.82,-6.84
