frequency,raw,error,smoothed,error_smoothed,equalization,parametric_eq,fixed_band_eq,equalized_raw,equalized_smoothed,target
20.00,-11.61,-9.67,-11.62,-9.68,6.00,5.65,1.56,-5.61,-5.62,-1.94
20.20,-11.52,-9.58,-11.52,-9.58,6.00,5.75,1.61,-5.52,-5.52,-1.94
20.40,-11.41,-9.47,-11.40,-9.46,6.00,5.84,1.66,-5.41,-5.40,-1.94
20.61,-11.25,-9.32,-11.25,-9.32,6.00,5.92,1.71,-5.25,-5.25,-1.93
20.81,-11.08,-9.15,-11.08,-9.15,6.00,5.99,1.76,-5.08,-5.08,-1.93
21.02,-10.89,-8.96,-10.89,-8.96,6.00,6.04,1.81,-4.89,-4.89,-1.93
21.23,-10.69,-8.76,-10.70,-8.77,6.00,6.08,1.86,-4.69,-4.70,-1.93
21.44,-10.52,-8.59,-10.50,-8.57,6.00,6.11,1.92,-4.52,-4.50,-1.93
21.66,-10.30,-8.38,-10.30,-8.37,6.00,6.12,1.97,-4.30,-4.30,-1.93
21.87,-10.08,-8.15,-10.10,-8.17,6.00,6.11,2.03,-4.08,-4.10,-1.93
22.09,-9.91,-7.98,-9.90,-7.98,6.00,6.08,2.09,-3.91,-3.90,-1.92
22.31,-9.72,-7.79,-9.72,-7.80,6.00,6.05,2.15,-3.72,-3.72,-1.92
22.54,-9.54,-7.62,-9.55,-7.62,6.00,5.99,2.22,-3.54,-3.55,-1.92
22.76,-9.37,-7.45,-9.35,-7.43,6.00,5.93,2.28,-3.37,-3.35,-1.92
22.99,-9.16,-7.24,-9.17,-7.25,6.01,5.85,2.35,-3.15,-3.16,-1.92
23.22,-8.96,-7.04,-8.98,-7.06,6.02,5.76,2.42,-2.94,-2.95,-1.92
23.45,-8.79,-6.87,-8.77,-6.86,6.03,5.66,2.49,-2.75,-2.74,-1.92
23.69,-8.57,-6.66,-8.57,-6.65,6.03,5.56,2.56,-2.54,-2.53,-1.91
23.92,-8.35,-6.43,-8.36,-6.45,6.01,5.44,2.63,-2.34,-2.35,-1.91
24.16,-8.14,-6.23,-8.15,-6.24,5.96,5.32,2.70,-2.18,-2.19,-1.91
24.40,-7.97,-6.06,-7.95,-6.04,5.89,5.20,2.78,-2.08,-2.06,-1.91
24.65,-7.76,-5.85,-7.77,-5.86,5.79,5.07,2.85,-1.97,-1.97,-1.91
24.89,-7.58,-5.67,-7.58,-5.67,5.67,4.94,2.93,-1.91,-1.91,-1.91
25.14,-7.39,-5.48,-7.39,-5.48,5.51,4.81,3.01,-1.88,-1.88,-1.91
25.39,-7.21,-5.30,-7.21,-5.30,5.33,4.68,3.08,-1.87,-1.87,-1.91
25.65,-7.02,-5.12,-7.02,-5.12,5.14,4.55,3.16,-1.88,-1.88,-1.90
25.91,-6.83,-4.93,-6.83,-4.93,4.93,4.42,3.24,-1.90,-1.90,-1.90
26.16,-6.63,-4.73,-6.63,-4.73,4.72,4.29,3.31,-1.91,-1.91,-1.90
26.43,-6.43,-4.53,-6.43,-4.53,4.52,4.16,3.39,-1.91,-1.90,-1.90
26.69,-6.22,-4.32,-6.23,-4.33,4.33,4.04,3.47,-1.89,-1.90,-1.90
26.96,-6.04,-4.15,-6.04,-4.14,4.15,3.92,3.54,-1.90,-1.89,-1.90
27.23,-5.85,-3.96,-5.85,-3.96,3.96,3.80,3.61,-1.89,-1.89,-1.90
27.50,-5.68,-3.79,-5.68,-3.79,3.80,3.69,3.68,-1.89,-1.89,-1.89
27.77,-5.52,-3.63,-5.52,-3.63,3.64,3.58,3.75,-1.88,-1.88,-1.89
28.05,-5.38,-3.49,-5.38,-3.49,3.50,3.47,3.81,-1.88,-1.88,-1.89
28.33,-5.25,-3.36,-5.25,-3.36,3.37,3.37,3.87,-1.88,-1.88,-1.89
28.62,-5.13,-3.24,-5.14,-3.25,3.25,3.27,3.93,-1.88,-1.88,-1.89
28.90,-5.04,-3.15,-5.03,-3.14,3.15,3.18,3.98,-1.89,-1.89,-1.89
29.19,-4.93,-3.04,-4.94,-3.06,3.05,3.08,4.02,-1.88,-1.89,-1.89
29.48,-4.86,-2.98,-4.86,-2.97,2.96,3.00,4.07,-1.90,-1.89,-1.88
29.78,-4.78,-2.90,-4.78,-2.89,2.89,2.91,4.10,-1.90,-1.89,-1.88
30.08,-4.69,-2.81,-4.70,-2.82,2.81,2.83,4.13,-1.88,-1.88,-1.88
30.38,-4.63,-2.75,-4.62,-2.74,2.75,2.75,4.16,-1.88,-1.87,-1.88
30.68,-4.55,-2.67,-4.56,-2.68,2.69,2.68,4.17,-1.86,-1.87,-1.88
30.99,-4.50,-2.62,-4.51,-2.63,2.63,2.61,4.19,-1.87,-1.88,-1.88
31.30,-4.46,-2.58,-4.45,-2.58,2.58,2.54,4.19,-1.89,-1.88,-1.88
31.61,-4.41,-2.54,-4.41,-2.53,2.53,2.48,4.19,-1.89,-1.88,-1.87
31.93,-4.35,-2.48,-4.36,-2.48,2.48,2.42,4.18,-1.87,-1.88,-1.87
32.24,-4.30,-2.43,-4.30,-2.43,2.43,2.36,4.17,-1.87,-1.87,-1.87
32.57,-4.26,-2.39,-4.25,-2.38,2.39,2.30,4.15,-1.87,-1.87,-1.87
32.89,-4.21,-2.34,-4.21,-2.34,2.34,2.25,4.12,-1.87,-1.87,-1.87
33.22,-4.16,-2.29,-4.17,-2.30,2.30,2.20,4.09,-1.86,-1.87,-1.87
33.55,-4.13,-2.26,-4.12,-2.25,2.25,2.15,4.06,-1.88,-1.87,-1.87
33.89,-4.07,-2.21,-4.07,-2.21,2.21,2.11,4.01,-1.86,-1.87,-1.87
34.23,-4.02,-2.16,-4.03,-2.16,2.16,2.06,3.97,-1.86,-1.86,-1.86
34.57,-3.99,-2.13,-3.98,-2.12,2.12,2.02,3.92,-1.87,-1.86,-1.86
34.92,-3.93,-2.07,-3.94,-2.08,2.08,1.99,3.87,-1.85,-1.86,-1.86
35.27,-3.90,-2.04,-3.90,-2.04,2.04,1.95,3.81,-1.86,-1.86,-1.86
35.62,-3.85,-1.99,-3.85,-2.00,2.00,1.92,3.75,-1.85,-1.86,-1.86
35.97,-3.82,-1.96,-3.82,-1.96,1.96,1.89,3.69,-1.86,-1.86,-1.86
36.33,-3.78,-1.92,-3.78,-1.93,1.93,1.86,3.63,-1.85,-1.85,-1.86
36.70,-3.75,-1.90,-3.75,-1.89,1.90,1.83,3.57,-1.85,-1.85,-1.85
37.06,-3.72,-1.87,-3.72,-1.87,1.87,1.80,3.50,-1.85,-1.85,-1.85
37.43,-3.69,-1.84,-3.70,-1.84,1.84,1.78,3.44,-1.85,-1.85,-1.85
37.81,-3.68,-1.83,-3.67,-1.82,1.82,1.76,3.37,-1.86,-1.85,-1.85
38.19,-3.64,-1.79,-3.65,-1.80,1.79,1.74,3.31,-1.85,-1.86,-1.85
38.57,-3.62,-1.77,-3.62,-1.77,1.77,1.72,3.24,-1.86,-1.85,-1.85
38.95,-3.59,-1.74,-3.59,-1.74,1.74,1.70,3.18,-1.85,-1.85,-1.85
39.34,-3.55,-1.71,-3.56,-1.71,1.72,1.69,3.12,-1.83,-1.84,-1.84
39.74,-3.53,-1.69,-3.53,-1.69,1.69,1.67,3.05,-1.84,-1.84,-1.84
40.14,-3.50,-1.66,-3.51,-1.67,1.67,1.66,2.99,-1.83,-1.84,-1.84
40.54,-3.50,-1.66,-3.49,-1.65,1.64,1.65,2.93,-1.86,-1.85,-1.84
40.94,-3.46,-1.62,-3.47,-1.63,1.62,1.64,2.87,-1.84,-1.84,-1.84
41.35,-3.45,-1.61,-3.45,-1.61,1.60,1.64,2.82,-1.85,-1.84,-1.84
41.76,-3.42,-1.58,-3.42,-1.59,1.58,1.63,2.76,-1.84,-1.84,-1.84
42.18,-3.41,-1.58,-3.41,-1.58,1.56,1.62,2.71,-1.85,-1.85,-1.83
42.60,-3.41,-1.58,-3.41,-1.58,1.56,1.62,2.66,-1.85,-1.85,-1.83
43.03,-3.41,-1.58,-3.40,-1.57,1.57,1.62,2.61,-1.84,-1.83,-1.83
43.46,-3.41,-1.58,-3.40,-1.57,1.61,1.62,2.56,-1.81,-1.79,-1.83
43.90,-3.39,-1.56,-3.42,-1.59,1.65,1.62,2.52,-1.74,-1.77,-1.83
44.33,-3.49,-1.66,-3.49,-1.66,1.72,1.62,2.47,-1.78,-1.77,-1.83
44.78,-3.59,-1.76,-3.59,-1.77,1.79,1.62,2.43,-1.80,-1.81,-1.83
45.23,-3.72,-1.89,-3.72,-1.89,1.86,1.62,2.39,-1.86,-1.86,-1.83
45.68,-3.82,-2.00,-3.80,-1.98,1.93,1.63,2.35,-1.89,-1.87,-1.82
46.13,-3.87,-2.05,-3.86,-2.04,2.00,1.63,2.32,-1.88,-1.87,-1.82
46.60,-3.87,-2.05,-3.89,-2.07,2.04,1.64,2.28,-1.83,-1.85,-1.82
47.06,-3.91,-2.09,-3.90,-2.08,2.07,1.65,2.25,-1.84,-1.83,-1.82
47.53,-3.90,-2.08,-3.90,-2.08,2.07,1.65,2.22,-1.83,-1.82,-1.82
48.01,-3.87,-2.05,-3.88,-2.06,2.06,1.66,2.19,-1.81,-1.82,-1.82
48.49,-3.85,-2.04,-3.85,-2.03,2.03,1.67,2.17,-1.82,-1.82,-1.82
48.97,-3.81,-2.00,-3.81,-2.00,1.99,1.68,2.14,-1.82,-1.82,-1.81
49.46,-3.78,-1.97,-3.77,-1.96,1.96,1.70,2.12,-1.82,-1.81,-1.81
49.96,-3.73,-1.92,-3.73,-1.92,1.94,1.71,2.10,-1.79,-1.79,-1.81
50.46,-3.71,-1.90,-3.71,-1.90,1.93,1.72,2.08,-1.78,-1.78,-1.81
50.96,-3.69,-1.88,-3.70,-1.89,1.93,1.73,2.06,-1.76,-1.78,-1.81
51.47,-3.72,-1.91,-3.72,-1.91,1.94,1.75,2.04,-1.78,-1.78,-1.81
51.99,-3.76,-1.95,-3.75,-1.94,1.96,1.76,2.02,-1.80,-1.79,-1.81
52.51,-3.78,-1.98,-3.79,-1.98,1.98,1.78,2.00,-1.80,-1.80,-1.80
53.03,-3.82,-2.02,-3.82,-2.02,2.01,1.79,1.99,-1.81,-1.82,-1.80
53.56,-3.85,-2.05,-3.85,-2.05,2.02,1.80,1.97,-1.83,-1.83,-1.80
54.10,-3.87,-2.07,-3.86,-2.06,2.02,1.82,1.96,-1.85,-1.84,-1.80
54.64,-3.85,-2.05,-3.85,-2.05,2.01,1.83,1.95,-1.84,-1.84,-1.80
55.18,-3.80,-2.00,-3.81,-2.01,1.98,1.85,1.93,-1.82,-1.82,-1.80
55.74,-3.75,-1.95,-3.75,-1.95,1.94,1.86,1.92,-1.81,-1.80,-1.80
56.29,-3.68,-1.89,-3.68,-1.89,1.90,1.88,1.91,-1.78,-1.78,-1.80
56.86,-3.62,-1.83,-3.62,-1.83,1.86,1.89,1.90,-1.77,-1.77,-1.79
57.42,-3.57,-1.78,-3.58,-1.78,1.81,1.90,1.88,-1.76,-1.76,-1.79
58.00,-3.55,-1.76,-3.55,-1.76,1.78,1.91,1.87,-1.77,-1.77,-1.79
58.58,-3.55,-1.76,-3.55,-1.76,1.76,1.93,1.86,-1.79,-1.79,-1.79
59.16,-3.55,-1.76,-3.55,-1.76,1.76,1.94,1.84,-1.79,-1.79,-1.79
59.76,-3.55,-1.76,-3.55,-1.77,1.76,1.95,1.83,-1.79,-1.79,-1.79
60.35,-3.55,-1.77,-3.56,-1.77,1.78,1.95,1.81,-1.77,-1.78,-1.79
60.96,-3.59,-1.81,-3.58,-1.79,1.81,1.96,1.80,-1.78,-1.77,-1.78
61.57,-3.59,-1.81,-3.61,-1.82,1.83,1.97,1.78,-1.76,-1.77,-1.78
62.18,-3.64,-1.86,-3.64,-1.86,1.85,1.97,1.76,-1.79,-1.78,-1.78
62.80,-3.67,-1.89,-3.67,-1.89,1.87,1.97,1.74,-1.80,-1.80,-1.78
63.43,-3.69,-1.91,-3.69,-1.91,1.88,1.98,1.72,-1.81,-1.80,-1.78
64.07,-3.69,-1.91,-3.68,-1.90,1.88,1.98,1.70,-1.81,-1.80,-1.78
64.71,-3.64,-1.87,-3.66,-1.89,1.88,1.98,1.68,-1.77,-1.79,-1.78
65.35,-3.64,-1.87,-3.63,-1.86,1.86,1.97,1.66,-1.78,-1.77,-1.77
66.01,-3.60,-1.83,-3.60,-1.82,1.83,1.97,1.64,-1.77,-1.77,-1.77
66.67,-3.56,-1.79,-3.57,-1.80,1.80,1.96,1.61,-1.77,-1.77,-1.77
67.33,-3.53,-1.76,-3.53,-1.76,1.76,1.95,1.59,-1.77,-1.77,-1.77
68.01,-3.50,-1.73,-3.49,-1.73,1.73,1.94,1.56,-1.77,-1.77,-1.77
68.69,-3.45,-1.68,-3.46,-1.69,1.70,1.93,1.54,-1.75,-1.76,-1.77
69.37,-3.44,-1.67,-3.43,-1.67,1.68,1.92,1.51,-1.76,-1.75,-1.77
70.07,-3.41,-1.65,-3.42,-1.65,1.66,1.90,1.49,-1.75,-1.75,-1.76
70.77,-3.41,-1.65,-3.41,-1.65,1.65,1.89,1.46,-1.76,-1.76,-1.76
71.48,-3.41,-1.65,-3.41,-1.65,1.65,1.87,1.43,-1.76,-1.76,-1.76
72.19,-3.41,-1.65,-3.41,-1.65,1.64,1.85,1.40,-1.77,-1.77,-1.76
72.91,-3.41,-1.65,-3.41,-1.65,1.65,1.83,1.38,-1.76,-1.76,-1.76
73.64,-3.41,-1.65,-3.41,-1.65,1.65,1.81,1.35,-1.76,-1.76,-1.76
74.38,-3.41,-1.65,-3.41,-1.65,1.65,1.78,1.32,-1.76,-1.76,-1.76
75.12,-3.41,-1.66,-3.41,-1.66,1.66,1.76,1.29,-1.76,-1.76,-1.76
75.87,-3.41,-1.66,-3.41,-1.66,1.66,1.73,1.27,-1.75,-1.75,-1.75
76.63,-3.41,-1.66,-3.41,-1.66,1.66,1.71,1.24,-1.75,-1.75,-1.75
77.40,-3.41,-1.66,-3.41,-1.66,1.66,1.68,1.21,-1.75,-1.75,-1.75
78.17,-3.41,-1.66,-3.41,-1.66,1.66,1.65,1.19,-1.75,-1.75,-1.75
78.95,-3.41,-1.66,-3.41,-1.66,1.66,1.62,1.16,-1.75,-1.75,-1.75
79.74,-3.41,-1.66,-3.41,-1.66,1.67,1.59,1.14,-1.75,-1.75,-1.75
80.54,-3.41,-1.67,-3.41,-1.67,1.67,1.57,1.11,-1.74,-1.74,-1.75
81.35,-3.41,-1.67,-3.41,-1.67,1.67,1.54,1.09,-1.74,-1.74,-1.74
82.16,-3.41,-1.67,-3.41,-1.67,1.67,1.51,1.07,-1.74,-1.74,-1.74
82.98,-3.41,-1.67,-3.41,-1.67,1.67,1.47,1.04,-1.74,-1.74,-1.74
83.81,-3.41,-1.67,-3.42,-1.68,1.67,1.44,1.02,-1.74,-1.75,-1.74
84.65,-3.41,-1.67,-3.41,-1.67,1.66,1.41,1.00,-1.75,-1.75,-1.74
85.50,-3.41,-1.67,-3.39,-1.66,1.65,1.38,0.98,-1.76,-1.74,-1.74
86.35,-3.36,-1.62,-3.38,-1.64,1.64,1.35,0.96,-1.72,-1.74,-1.74
87.22,-3.36,-1.63,-3.36,-1.63,1.62,1.32,0.94,-1.74,-1.74,-1.73
88.09,-3.35,-1.62,-3.33,-1.60,1.61,1.29,0.92,-1.75,-1.73,-1.73
88.97,-3.31,-1.58,-3.31,-1.58,1.59,1.26,0.91,-1.72,-1.72,-1.73
89.86,-3.27,-1.54,-3.29,-1.55,1.57,1.23,0.89,-1.70,-1.71,-1.73
90.76,-3.27,-1.54,-3.27,-1.54,1.56,1.20,0.87,-1.71,-1.71,-1.73
91.66,-3.27,-1.54,-3.27,-1.54,1.54,1.17,0.86,-1.73,-1.73,-1.73
92.58,-3.27,-1.54,-3.27,-1.54,1.52,1.14,0.84,-1.75,-1.75,-1.73
93.51,-3.25,-1.53,-3.25,-1.52,1.51,1.11,0.83,-1.74,-1.74,-1.72
94.44,-3.22,-1.50,-3.22,-1.49,1.49,1.09,0.82,-1.73,-1.73,-1.72
95.39,-3.17,-1.45,-3.18,-1.46,1.47,1.06,0.80,-1.70,-1.71,-1.72
96.34,-3.16,-1.44,-3.16,-1.44,1.45,1.03,0.79,-1.71,-1.70,-1.72
97.30,-3.13,-1.41,-3.14,-1.42,1.43,1.00,0.78,-1.71,-1.71,-1.72
98.28,-3.13,-1.41,-3.12,-1.41,1.39,0.98,0.77,-1.74,-1.73,-1.72
99.26,-3.09,-1.37,-3.09,-1.38,1.36,0.95,0.76,-1.73,-1.73,-1.72
100.25,-3.06,-1.35,-3.05,-1.34,1.32,0.93,0.75,-1.74,-1.73,-1.72
101.25,-2.99,-1.28,-3.00,-1.28,1.28,0.90,0.74,-1.71,-1.71,-1.71
102.27,-2.95,-1.24,-2.95,-1.23,1.25,0.88,0.73,-1.71,-1.70,-1.71
103.29,-2.89,-1.18,-2.90,-1.19,1.20,0.85,0.72,-1.69,-1.70,-1.71
104.32,-2.86,-1.15,-2.86,-1.15,1.16,0.83,0.71,-1.70,-1.70,-1.71
105.37,-2.82,-1.11,-2.82,-1.11,1.11,0.80,0.70,-1.71,-1.71,-1.71
106.42,-2.78,-1.07,-2.78,-1.07,1.07,0.78,0.69,-1.71,-1.71,-1.71
107.48,-2.73,-1.03,-2.73,-1.03,1.02,0.76,0.68,-1.71,-1.71,-1.71
108.56,-2.68,-0.98,-2.68,-0.98,0.97,0.74,0.68,-1.71,-1.71,-1.70
109.64,-2.64,-0.94,-2.63,-0.93,0.92,0.72,0.67,-1.72,-1.71,-1.70
110.74,-2.57,-0.87,-2.57,-0.87,0.87,0.69,0.66,-1.70,-1.70,-1.70
111.85,-2.51,-0.81,-2.51,-0.81,0.81,0.67,0.65,-1.70,-1.70,-1.70
112.97,-2.45,-0.75,-2.45,-0.75,0.75,0.65,0.65,-1.70,-1.70,-1.70
114.10,-2.39,-0.69,-2.39,-0.69,0.69,0.63,0.64,-1.70,-1.70,-1.70
115.24,-2.32,-0.63,-2.32,-0.63,0.63,0.61,0.63,-1.69,-1.70,-1.70
116.39,-2.26,-0.57,-2.26,-0.57,0.57,0.59,0.62,-1.69,-1.69,-1.69
117.55,-2.20,-0.51,-2.20,-0.51,0.51,0.58,0.62,-1.69,-1.69,-1.69
118.73,-2.14,-0.45,-2.14,-0.45,0.45,0.56,0.61,-1.69,-1.69,-1.69
119.92,-2.08,-0.39,-2.08,-0.39,0.40,0.54,0.60,-1.68,-1.69,-1.69
121.12,-2.03,-0.34,-2.03,-0.35,0.35,0.52,0.59,-1.68,-1.69,-1.69
122.33,-1.99,-0.30,-1.98,-0.30,0.30,0.50,0.58,-1.69,-1.69,-1.69
123.55,-1.94,-0.25,-1.94,-0.25,0.25,0.49,0.58,-1.69,-1.69,-1.69
124.79,-1.88,-0.20,-1.89,-0.21,0.20,0.47,0.57,-1.68,-1.69,-1.68
126.03,-1.85,-0.17,-1.84,-0.16,0.16,0.45,0.56,-1.69,-1.68,-1.68
127.29,-1.80,-0.12,-1.80,-0.12,0.12,0.44,0.55,-1.68,-1.68,-1.68
128.57,-1.75,-0.07,-1.76,-0.08,0.07,0.42,0.54,-1.68,-1.68,-1.68
129.85,-1.71,-0.03,-1.71,-0.04,0.03,0.41,0.53,-1.68,-1.68,-1.68
131.15,-1.68,-0.00,-1.67,0.01,-0.01,0.39,0.52,-1.69,-1.68,-1.68
132.46,-1.64,0.04,-1.64,0.04,-0.04,0.37,0.50,-1.68,-1.68,-1.68
133.79,-1.59,0.08,-1.60,0.07,-0.07,0.36,0.49,-1.66,-1.67,-1.68
135.12,-1.59,0.08,-1.57,0.10,-0.09,0.34,0.48,-1.68,-1.67,-1.67
136.48,-1.54,0.13,-1.55,0.12,-0.11,0.33,0.47,-1.65,-1.67,-1.67
137.84,-1.54,0.13,-1.54,0.13,-0.13,0.31,0.46,-1.67,-1.67,-1.67
139.22,-1.54,0.13,-1.54,0.13,-0.14,0.30,0.44,-1.68,-1.67,-1.67
140.61,-1.54,0.13,-1.54,0.13,-0.14,0.29,0.43,-1.68,-1.67,-1.67
142.02,-1.54,0.13,-1.54,0.13,-0.13,0.27,0.42,-1.67,-1.67,-1.67
143.44,-1.54,0.12,-1.54,0.12,-0.11,0.26,0.40,-1.65,-1.66,-1.67
144.87,-1.56,0.10,-1.56,0.10,-0.09,0.24,0.39,-1.65,-1.65,-1.66
146.32,-1.59,0.07,-1.59,0.07,-0.06,0.23,0.38,-1.65,-1.65,-1.66
147.78,-1.64,0.02,-1.63,0.03,-0.02,0.21,0.36,-1.66,-1.66,-1.66
149.26,-1.67,-0.01,-1.67,-0.01,0.01,0.20,0.35,-1.66,-1.66,-1.66
150.75,-1.71,-0.05,-1.71,-0.05,0.05,0.19,0.34,-1.66,-1.66,-1.66
152.26,-1.75,-0.09,-1.75,-0.10,0.09,0.17,0.32,-1.66,-1.67,-1.66
153.78,-1.79,-0.13,-1.79,-0.13,0.12,0.16,0.31,-1.67,-1.67,-1.66
155.32,-1.82,-0.17,-1.81,-0.16,0.14,0.14,0.30,-1.68,-1.67,-1.65
156.88,-1.82,-0.17,-1.82,-0.17,0.16,0.13,0.28,-1.66,-1.66,-1.65
158.44,-1.82,-0.17,-1.82,-0.17,0.17,0.12,0.27,-1.65,-1.65,-1.65
160.03,-1.82,-0.17,-1.82,-0.17,0.18,0.10,0.26,-1.64,-1.64,-1.65
161.63,-1.82,-0.17,-1.82,-0.18,0.18,0.09,0.24,-1.65,-1.65,-1.65
163.24,-1.82,-0.17,-1.82,-0.17,0.17,0.07,0.23,-1.65,-1.65,-1.65
164.88,-1.82,-0.17,-1.81,-0.16,0.16,0.06,0.22,-1.66,-1.64,-1.65
166.53,-1.78,-0.14,-1.79,-0.15,0.15,0.04,0.20,-1.63,-1.64,-1.64
168.19,-1.78,-0.14,-1.78,-0.14,0.15,0.03,0.19,-1.64,-1.64,-1.64
169.87,-1.78,-0.14,-1.78,-0.14,0.14,0.02,0.18,-1.64,-1.64,-1.64
171.57,-1.78,-0.14,-1.77,-0.13,0.13,0.00,0.17,-1.65,-1.64,-1.64
173.29,-1.76,-0.12,-1.76,-0.12,0.12,-0.01,0.15,-1.64,-1.64,-1.64
175.02,-1.73,-0.09,-1.74,-0.10,0.11,-0.03,0.14,-1.62,-1.63,-1.64
176.77,-1.73,-0.09,-1.73,-0.10,0.10,-0.04,0.13,-1.63,-1.63,-1.64
178.54,-1.73,-0.10,-1.73,-0.09,0.09,-0.06,0.11,-1.64,-1.63,-1.64
180.32,-1.73,-0.10,-1.71,-0.08,0.08,-0.07,0.10,-1.65,-1.63,-1.63
182.13,-1.68,-0.05,-1.70,-0.07,0.07,-0.09,0.09,-1.61,-1.63,-1.63
183.95,-1.68,-0.05,-1.68,-0.05,0.05,-0.10,0.08,-1.63,-1.63,-1.63
185.79,-1.68,-0.05,-1.67,-0.04,0.03,-0.12,0.07,-1.65,-1.64,-1.63
187.65,-1.65,-0.02,-1.65,-0.02,0.01,-0.13,0.05,-1.64,-1.64,-1.63
189.52,-1.62,0.01,-1.62,0.01,-0.01,-0.15,0.04,-1.63,-1.63,-1.63
191.42,-1.57,0.05,-1.58,0.05,-0.04,-0.16,0.03,-1.61,-1.62,-1.63
193.33,-1.54,0.08,-1.54,0.08,-0.07,-0.18,0.02,-1.61,-1.61,-1.62
195.27,-1.51,0.11,-1.52,0.11,-0.10,-0.19,0.01,-1.61,-1.62,-1.62
197.22,-1.50,0.12,-1.50,0.13,-0.13,-0.21,-0.01,-1.63,-1.63,-1.62
199.19,-1.47,0.15,-1.46,0.16,-0.16,-0.22,-0.02,-1.63,-1.63,-1.62
201.18,-1.43,0.19,-1.43,0.19,-0.19,-0.23,-0.03,-1.63,-1.63,-1.62
203.19,-1.38,0.24,-1.39,0.23,-0.22,-0.25,-0.04,-1.61,-1.61,-1.62
205.23,-1.36,0.26,-1.36,0.26,-0.25,-0.26,-0.05,-1.61,-1.61,-1.62
207.28,-1.32,0.29,-1.33,0.29,-0.28,-0.27,-0.06,-1.60,-1.61,-1.61
209.35,-1.31,0.30,-1.30,0.31,-0.31,-0.28,-0.08,-1.62,-1.61,-1.61
211.44,-1.26,0.35,-1.27,0.34,-0.34,-0.29,-0.09,-1.60,-1.61,-1.61
213.56,-1.25,0.36,-1.25,0.36,-0.37,-0.30,-0.10,-1.62,-1.62,-1.61
215.69,-1.22,0.39,-1.22,0.39,-0.39,-0.31,-0.11,-1.62,-1.61,-1.61
217.85,-1.19,0.42,-1.20,0.41,-0.42,-0.31,-0.12,-1.61,-1.62,-1.61
220.03,-1.17,0.44,-1.17,0.43,-0.44,-0.32,-0.13,-1.61,-1.61,-1.61
222.23,-1.17,0.43,-1.15,0.45,-0.45,-0.33,-0.14,-1.62,-1.60,-1.60
224.45,-1.12,0.48,-1.13,0.47,-0.46,-0.33,-0.15,-1.58,-1.59,-1.60
226.70,-1.12,0.48,-1.13,0.48,-0.46,-0.33,-0.16,-1.58,-1.59,-1.60
228.96,-1.12,0.48,-1.13,0.47,-0.46,-0.33,-0.17,-1.58,-1.59,-1.60
231.25,-1.17,0.43,-1.15,0.45,-0.45,-0.34,-0.18,-1.62,-1.60,-1.60
233.57,-1.17,0.43,-1.17,0.43,-0.44,-0.34,-0.19,-1.61,-1.61,-1.60
235.90,-1.17,0.43,-1.19,0.40,-0.42,-0.33,-0.19,-1.59,-1.61,-1.60
238.26,-1.22,0.37,-1.20,0.39,-0.40,-0.33,-0.20,-1.62,-1.60,-1.60
240.64,-1.22,0.37,-1.22,0.37,-0.38,-0.33,-0.21,-1.60,-1.60,-1.59
243.05,-1.22,0.37,-1.23,0.36,-0.36,-0.33,-0.22,-1.58,-1.59,-1.59
245.48,-1.26,0.33,-1.25,0.34,-0.33,-0.32,-0.22,-1.59,-1.58,-1.59
247.93,-1.26,0.33,-1.27,0.32,-0.31,-0.32,-0.23,-1.57,-1.58,-1.59
250.41,-1.31,0.28,-1.30,0.29,-0.29,-0.31,-0.24,-1.60,-1.59,-1.59
252.92,-1.31,0.28,-1.32,0.27,-0.27,-0.31,-0.24,-1.58,-1.59,-1.59
255.45,-1.36,0.22,-1.35,0.23,-0.24,-0.30,-0.25,-1.60,-1.59,-1.59
258.00,-1.36,0.22,-1.37,0.21,-0.22,-0.30,-0.25,-1.58,-1.59,-1.58
260.58,-1.40,0.18,-1.39,0.20,-0.20,-0.29,-0.26,-1.60,-1.58,-1.58
263.19,-1.40,0.18,-1.40,0.18,-0.17,-0.28,-0.26,-1.58,-1.58,-1.58
265.82,-1.40,0.18,-1.42,0.16,-0.16,-0.28,-0.27,-1.56,-1.58,-1.58
268.48,-1.45,0.13,-1.43,0.14,-0.14,-0.27,-0.27,-1.59,-1.58,-1.58
271.16,-1.45,0.13,-1.45,0.13,-0.13,-0.26,-0.28,-1.58,-1.58,-1.58
273.87,-1.45,0.13,-1.46,0.12,-0.13,-0.26,-0.28,-1.58,-1.58,-1.58
276.61,-1.45,0.12,-1.45,0.12,-0.12,-0.25,-0.28,-1.57,-1.57,-1.57
279.38,-1.45,0.12,-1.46,0.12,-0.12,-0.24,-0.29,-1.57,-1.58,-1.57
282.17,-1.45,0.12,-1.45,0.12,-0.13,-0.24,-0.29,-1.58,-1.58,-1.57
284.99,-1.45,0.12,-1.43,0.14,-0.14,-0.23,-0.29,-1.59,-1.57,-1.57
287.84,-1.40,0.17,-1.42,0.15,-0.15,-0.22,-0.30,-1.55,-1.57,-1.57
290.72,-1.40,0.17,-1.40,0.17,-0.16,-0.22,-0.30,-1.57,-1.57,-1.57
293.63,-1.40,0.17,-1.38,0.18,-0.18,-0.21,-0.30,-1.58,-1.56,-1.57
296.57,-1.36,0.20,-1.37,0.19,-0.18,-0.20,-0.31,-1.54,-1.56,-1.56
299.53,-1.36,0.20,-1.36,0.20,-0.19,-0.20,-0.31,-1.55,-1.55,-1.56
302.53,-1.36,0.20,-1.36,0.21,-0.20,-0.19,-0.31,-1.56,-1.55,-1.56
305.55,-1.36,0.20,-1.36,0.20,-0.20,-0.18,-0.32,-1.56,-1.56,-1.56
308.61,-1.36,0.20,-1.36,0.20,-0.20,-0.18,-0.32,-1.56,-1.56,-1.56
311.69,-1.36,0.20,-1.37,0.19,-0.21,-0.17,-0.32,-1.57,-1.57,-1.56
314.81,-1.36,0.20,-1.36,0.20,-0.21,-0.16,-0.33,-1.57,-1.57,-1.56
317.96,-1.36,0.19,-1.34,0.21,-0.21,-0.16,-0.33,-1.58,-1.56,-1.56
321.14,-1.31,0.24,-1.33,0.23,-0.22,-0.15,-0.33,-1.53,-1.55,-1.55
324.35,-1.31,0.24,-1.31,0.24,-0.23,-0.14,-0.34,-1.55,-1.55,-1.55
327.59,-1.31,0.24,-1.31,0.24,-0.25,-0.14,-0.34,-1.56,-1.56,-1.55
330.87,-1.31,0.24,-1.30,0.25,-0.26,-0.13,-0.35,-1.57,-1.56,-1.55
334.18,-1.29,0.26,-1.28,0.26,-0.26,-0.12,-0.35,-1.55,-1.55,-1.55
337.52,-1.26,0.29,-1.27,0.28,-0.27,-0.11,-0.36,-1.53,-1.54,-1.55
340.90,-1.26,0.28,-1.27,0.28,-0.26,-0.10,-0.36,-1.52,-1.53,-1.55
344.30,-1.29,0.25,-1.28,0.26,-0.25,-0.09,-0.37,-1.55,-1.54,-1.54
347.75,-1.31,0.23,-1.31,0.24,-0.24,-0.08,-0.37,-1.55,-1.55,-1.54
351.23,-1.32,0.22,-1.33,0.21,-0.22,-0.07,-0.38,-1.54,-1.55,-1.54
354.74,-1.36,0.18,-1.35,0.19,-0.19,-0.05,-0.39,-1.55,-1.54,-1.54
358.28,-1.38,0.16,-1.38,0.16,-0.15,-0.04,-0.39,-1.53,-1.53,-1.54
361.87,-1.41,0.13,-1.42,0.12,-0.11,-0.02,-0.40,-1.52,-1.53,-1.54
365.49,-1.46,0.08,-1.46,0.07,-0.06,-0.00,-0.41,-1.52,-1.52,-1.54
369.14,-1.52,0.01,-1.52,0.02,-0.01,0.02,-0.42,-1.53,-1.53,-1.53
372.83,-1.58,-0.05,-1.58,-0.05,0.03,0.04,-0.42,-1.55,-1.54,-1.53
376.56,-1.63,-0.10,-1.63,-0.10,0.09,0.06,-0.43,-1.55,-1.55,-1.53
380.33,-1.68,-0.15,-1.67,-0.14,0.14,0.09,-0.44,-1.54,-1.54,-1.53
384.13,-1.71,-0.18,-1.71,-0.18,0.19,0.12,-0.45,-1.52,-1.53,-1.53
387.97,-1.74,-0.21,-1.75,-0.22,0.23,0.15,-0.46,-1.51,-1.52,-1.53
391.85,-1.80,-0.27,-1.79,-0.27,0.27,0.19,-0.47,-1.53,-1.52,-1.53
395.77,-1.83,-0.31,-1.83,-0.31,0.31,0.22,-0.48,-1.52,-1.52,-1.52
399.73,-1.87,-0.35,-1.87,-0.35,0.34,0.26,-0.49,-1.53,-1.53,-1.52
403.72,-1.89,-0.37,-1.89,-0.37,0.36,0.30,-0.50,-1.53,-1.53,-1.52
407.76,-1.92,-0.40,-1.91,-0.39,0.39,0.34,-0.51,-1.54,-1.53,-1.52
411.84,-1.92,-0.40,-1.92,-0.40,0.40,0.38,-0.52,-1.52,-1.52,-1.52
415.96,-1.92,-0.40,-1.92,-0.41,0.42,0.41,-0.53,-1.51,-1.51,-1.52
420.12,-1.92,-0.40,-1.92,-0.40,0.42,0.44,-0.54,-1.50,-1.50,-1.52
424.32,-1.92,-0.41,-1.92,-0.41,0.42,0.45,-0.55,-1.50,-1.51,-1.52
428.56,-1.92,-0.41,-1.92,-0.41,0.40,0.45,-0.56,-1.52,-1.52,-1.51
432.85,-1.92,-0.41,-1.91,-0.40,0.38,0.44,-0.57,-1.54,-1.53,-1.51
437.18,-1.88,-0.37,-1.88,-0.37,0.35,0.41,-0.58,-1.53,-1.53,-1.51
