frequency,raw,error,smoothed,error_smoothed,equalization,parametric_eq,fixed_band_eq,equalized_raw,equalized_smoothed,target
20.00,-5.17,-3.26,-5.16,-3.25,3.29,0.80,0.72,-1.88,-1.87,-1.91
20.20,-5.15,-3.25,-5.15,-3.25,3.27,0.80,0.74,-1.88,-1.88,-1.90
20.40,-5.13,-3.24,-5.14,-3.24,3.24,0.80,0.76,-1.89,-1.90,-1.89
20.61,-5.11,-3.22,-5.11,-3.23,3.21,0.80,0.79,-1.90,-1.91,-1.89
20.81,-5.10,-3.22,-5.09,-3.21,3.17,0.80,0.81,-1.93,-1.92,-1.88
21.02,-5.07,-3.19,-5.05,-3.17,3.13,0.80,0.83,-1.94,-1.92,-1.88
21.23,-4.99,-3.12,-4.99,-3.11,3.08,0.79,0.86,-1.91,-1.91,-1.87
21.44,-4.89,-3.02,-4.90,-3.03,3.03,0.79,0.89,-1.87,-1.87,-1.87
21.66,-4.82,-2.95,-4.81,-2.94,2.96,0.79,0.91,-1.86,-1.85,-1.87
21.87,-4.72,-2.85,-4.73,-2.86,2.89,0.79,0.94,-1.84,-1.84,-1.87
22.09,-4.65,-2.79,-4.66,-2.80,2.82,0.79,0.97,-1.84,-1.84,-1.86
22.31,-4.60,-2.74,-4.60,-2.74,2.75,0.79,1.00,-1.86,-1.85,-1.86
22.54,-4.56,-2.69,-4.55,-2.68,2.68,0.79,1.03,-1.87,-1.87,-1.87
22.76,-4.50,-2.63,-4.51,-2.63,2.63,0.79,1.06,-1.88,-1.88,-1.88
22.99,-4.46,-2.58,-4.46,-2.58,2.57,0.79,1.09,-1.88,-1.89,-1.88
23.22,-4.42,-2.54,-4.41,-2.53,2.52,0.79,1.12,-1.89,-1.89,-1.88
23.45,-4.37,-2.48,-4.37,-2.48,2.48,0.79,1.16,-1.89,-1.89,-1.89
23.69,-4.32,-2.43,-4.32,-2.43,2.43,0.79,1.19,-1.88,-1.89,-1.89
23.92,-4.27,-2.38,-4.27,-2.38,2.39,0.78,1.22,-1.88,-1.88,-1.89
24.16,-4.22,-2.34,-4.23,-2.34,2.35,0.78,1.26,-1.88,-1.88,-1.89
24.40,-4.18,-2.30,-4.19,-2.30,2.30,0.78,1.29,-1.89,-1.89,-1.89
24.65,-4.16,-2.27,-4.15,-2.26,2.25,0.78,1.33,-1.91,-1.90,-1.89
24.89,-4.11,-2.22,-4.11,-2.22,2.20,0.78,1.37,-1.92,-1.91,-1.89
25.14,-4.05,-2.16,-4.06,-2.16,2.14,0.78,1.40,-1.91,-1.91,-1.89
25.39,-3.99,-2.09,-3.99,-2.10,2.09,0.78,1.44,-1.90,-1.90,-1.90
25.65,-3.94,-2.04,-3.93,-2.03,2.04,0.78,1.47,-1.90,-1.89,-1.90
25.91,-3.87,-1.97,-3.87,-1.97,1.99,0.78,1.51,-1.88,-1.89,-1.90
26.16,-3.83,-1.93,-3.83,-1.93,1.95,0.77,1.55,-1.88,-1.89,-1.90
26.43,-3.81,-1.91,-3.80,-1.90,1.91,0.77,1.58,-1.89,-1.88,-1.90
26.69,-3.78,-1.88,-3.77,-1.87,1.89,0.77,1.62,-1.88,-1.88,-1.90
26.96,-3.75,-1.85,-3.76,-1.86,1.87,0.77,1.65,-1.87,-1.88,-1.90
27.23,-3.75,-1.85,-3.75,-1.85,1.86,0.77,1.68,-1.89,-1.89,-1.90
27.50,-3.76,-1.86,-3.76,-1.86,1.84,0.77,1.71,-1.91,-1.92,-1.90
27.77,-3.76,-1.86,-3.75,-1.86,1.82,0.77,1.74,-1.94,-1.94,-1.90
28.05,-3.74,-1.85,-3.73,-1.82,1.78,0.76,1.77,-1.96,-1.94,-1.90
28.33,-3.66,-1.76,-3.67,-1.77,1.74,0.76,1.80,-1.92,-1.93,-1.90
28.62,-3.59,-1.69,-3.59,-1.70,1.69,0.76,1.82,-1.89,-1.90,-1.90
28.90,-3.52,-1.63,-3.52,-1.62,1.64,0.76,1.85,-1.87,-1.88,-1.89
29.19,-3.46,-1.57,-3.46,-1.57,1.59,0.76,1.87,-1.86,-1.87,-1.89
29.48,-3.41,-1.53,-3.41,-1.52,1.55,0.76,1.88,-1.86,-1.86,-1.89
29.78,-3.37,-1.49,-3.37,-1.49,1.52,0.75,1.90,-1.85,-1.85,-1.88
30.08,-3.34,-1.46,-3.35,-1.47,1.49,0.75,1.91,-1.84,-1.85,-1.88
30.38,-3.35,-1.47,-3.34,-1.47,1.48,0.75,1.92,-1.87,-1.87,-1.88
30.68,-3.35,-1.47,-3.35,-1.47,1.46,0.75,1.93,-1.89,-1.89,-1.88
30.99,-3.36,-1.48,-3.34,-1.46,1.42,0.75,1.93,-1.93,-1.92,-1.88
31.30,-3.31,-1.43,-3.31,-1.43,1.38,0.74,1.93,-1.93,-1.93,-1.88
31.61,-3.26,-1.38,-3.26,-1.38,1.33,0.74,1.92,-1.93,-1.93,-1.88
31.93,-3.20,-1.32,-3.19,-1.30,1.28,0.74,1.92,-1.92,-1.91,-1.88
32.24,-3.10,-1.21,-3.09,-1.21,1.23,0.74,1.91,-1.88,-1.87,-1.89
32.57,-3.01,-1.12,-3.00,-1.11,1.18,0.74,1.89,-1.83,-1.82,-1.89
32.89,-2.91,-1.02,-2.94,-1.04,1.13,0.73,1.88,-1.78,-1.81,-1.89
33.22,-2.92,-1.02,-2.93,-1.03,1.08,0.73,1.86,-1.84,-1.85,-1.90
33.55,-2.97,-1.07,-2.96,-1.06,1.03,0.73,1.84,-1.93,-1.93,-1.90
33.89,-3.02,-1.11,-2.98,-1.08,1.00,0.73,1.81,-2.02,-1.99,-1.91
34.23,-2.97,-1.06,-2.95,-1.04,0.97,0.72,1.79,-2.00,-1.98,-1.91
34.57,-2.86,-0.95,-2.86,-0.95,0.94,0.72,1.76,-1.91,-1.92,-1.91
34.92,-2.76,-0.85,-2.78,-0.87,0.92,0.72,1.73,-1.84,-1.87,-1.91
35.27,-2.74,-0.83,-2.74,-0.83,0.88,0.71,1.69,-1.85,-1.86,-1.91
35.62,-2.75,-0.84,-2.74,-0.83,0.85,0.71,1.66,-1.90,-1.89,-1.91
35.97,-2.75,-0.85,-2.74,-0.83,0.81,0.71,1.62,-1.94,-1.92,-1.91
36.33,-2.71,-0.81,-2.71,-0.80,0.79,0.70,1.59,-1.93,-1.92,-1.91
36.70,-2.68,-0.77,-2.68,-0.77,0.77,0.70,1.55,-1.90,-1.91,-1.91
37.06,-2.65,-0.74,-2.66,-0.75,0.76,0.70,1.51,-1.89,-1.90,-1.91
37.43,-2.65,-0.74,-2.65,-0.74,0.74,0.69,1.47,-1.91,-1.91,-1.91
37.81,-2.65,-0.75,-2.64,-0.73,0.71,0.69,1.43,-1.93,-1.92,-1.90
38.19,-2.62,-0.72,-2.60,-0.70,0.68,0.69,1.39,-1.94,-1.92,-1.90
38.57,-2.56,-0.66,-2.56,-0.66,0.65,0.68,1.35,-1.90,-1.91,-1.90
38.95,-2.50,-0.61,-2.51,-0.62,0.63,0.68,1.31,-1.87,-1.88,-1.89
39.34,-2.48,-0.59,-2.47,-0.58,0.61,0.67,1.27,-1.87,-1.86,-1.89
39.74,-2.46,-0.57,-2.45,-0.57,0.60,0.67,1.23,-1.86,-1.86,-1.89
40.14,-2.45,-0.56,-2.45,-0.56,0.58,0.67,1.19,-1.86,-1.86,-1.89
40.54,-2.45,-0.56,-2.44,-0.55,0.57,0.66,1.15,-1.88,-1.88,-1.89
40.94,-2.45,-0.56,-2.45,-0.56,0.54,0.66,1.11,-1.90,-1.91,-1.89
41.35,-2.46,-0.57,-2.47,-0.57,0.52,0.65,1.07,-1.94,-1.95,-1.89
41.76,-2.46,-0.57,-2.45,-0.56,0.49,0.65,1.03,-1.98,-1.96,-1.90
42.18,-2.42,-0.52,-2.39,-0.49,0.46,0.64,0.99,-1.97,-1.93,-1.90
42.60,-2.29,-0.39,-2.30,-0.40,0.42,0.64,0.96,-1.87,-1.88,-1.90
43.03,-2.19,-0.29,-2.23,-0.33,0.39,0.63,0.92,-1.79,-1.84,-1.90
43.46,-2.22,-0.32,-2.21,-0.30,0.36,0.62,0.88,-1.86,-1.84,-1.90
43.90,-2.24,-0.33,-2.22,-0.31,0.33,0.62,0.85,-1.90,-1.89,-1.91
44.33,-2.25,-0.34,-2.24,-0.33,0.32,0.61,0.81,-1.93,-1.93,-1.91
44.78,-2.25,-0.34,-2.25,-0.34,0.31,0.60,0.78,-1.93,-1.93,-1.91
45.23,-2.25,-0.34,-2.25,-0.34,0.32,0.60,0.75,-1.92,-1.92,-1.91
45.68,-2.25,-0.34,-2.25,-0.34,0.34,0.59,0.71,-1.90,-1.90,-1.91
46.13,-2.25,-0.35,-2.24,-0.34,0.36,0.58,0.68,-1.89,-1.88,-1.90
46.60,-2.25,-0.35,-2.24,-0.35,0.37,0.58,0.65,-1.88,-1.88,-1.90
47.06,-2.25,-0.36,-2.26,-0.38,0.36,0.57,0.62,-1.88,-1.90,-1.89
47.53,-2.28,-0.40,-2.28,-0.40,0.36,0.56,0.59,-1.92,-1.92,-1.88
48.01,-2.31,-0.44,-2.26,-0.39,0.36,0.55,0.56,-1.95,-1.91,-1.87
48.49,-2.23,-0.37,-2.23,-0.37,0.35,0.54,0.53,-1.87,-1.87,-1.86
48.97,-2.15,-0.30,-2.18,-0.33,0.35,0.53,0.50,-1.79,-1.83,-1.85
49.46,-2.15,-0.31,-2.14,-0.30,0.35,0.52,0.47,-1.79,-1.79,-1.84
49.96,-2.15,-0.33,-2.14,-0.32,0.35,0.51,0.45,-1.80,-1.79,-1.82
50.46,-2.15,-0.34,-2.15,-0.34,0.34,0.50,0.42,-1.80,-1.80,-1.81
50.96,-2.15,-0.36,-2.15,-0.36,0.33,0.49,0.39,-1.81,-1.82,-1.79
51.47,-2.15,-0.37,-2.15,-0.37,0.33,0.48,0.37,-1.81,-1.82,-1.78
51.99,-2.15,-0.38,-2.13,-0.36,0.33,0.47,0.34,-1.81,-1.80,-1.77
52.51,-2.10,-0.34,-2.10,-0.34,0.34,0.46,0.32,-1.76,-1.76,-1.76
53.03,-2.06,-0.31,-2.07,-0.32,0.34,0.45,0.29,-1.71,-1.72,-1.75
53.56,-2.05,-0.31,-2.04,-0.31,0.34,0.43,0.27,-1.70,-1.70,-1.74
54.10,-2.04,-0.32,-2.04,-0.31,0.34,0.42,0.25,-1.69,-1.69,-1.72
54.64,-2.05,-0.34,-2.05,-0.34,0.34,0.41,0.23,-1.71,-1.71,-1.71
55.18,-2.06,-0.36,-2.07,-0.37,0.33,0.39,0.20,-1.72,-1.74,-1.70
55.74,-2.09,-0.39,-2.06,-0.37,0.33,0.38,0.18,-1.76,-1.74,-1.70
56.29,-2.05,-0.37,-2.03,-0.35,0.32,0.36,0.16,-1.74,-1.71,-1.69
56.86,-1.97,-0.29,-1.99,-0.31,0.31,0.34,0.14,-1.65,-1.68,-1.68
57.42,-1.95,-0.27,-1.95,-0.27,0.31,0.33,0.12,-1.64,-1.65,-1.68
58.00,-1.95,-0.27,-1.94,-0.26,0.30,0.31,0.11,-1.64,-1.64,-1.68
58.58,-1.95,-0.27,-1.94,-0.26,0.29,0.29,0.09,-1.65,-1.65,-1.68
59.16,-1.95,-0.27,-1.94,-0.26,0.28,0.27,0.07,-1.67,-1.67,-1.68
59.76,-1.95,-0.27,-1.96,-0.28,0.26,0.25,0.05,-1.69,-1.70,-1.68
60.35,-1.96,-0.27,-1.97,-0.28,0.23,0.23,0.04,-1.73,-1.74,-1.69
60.96,-1.99,-0.29,-1.95,-0.25,0.19,0.21,0.02,-1.79,-1.76,-1.70
61.57,-1.91,-0.20,-1.90,-0.19,0.15,0.19,0.00,-1.75,-1.75,-1.71
62.18,-1.82,-0.09,-1.82,-0.09,0.10,0.17,-0.01,-1.71,-1.72,-1.73
62.80,-1.74,0.01,-1.76,-0.00,0.05,0.15,-0.02,-1.68,-1.70,-1.75
63.43,-1.73,0.05,-1.73,0.05,0.00,0.12,-0.04,-1.72,-1.73,-1.78
64.07,-1.75,0.05,-1.73,0.07,-0.05,0.10,-0.05,-1.79,-1.78,-1.80
64.71,-1.75,0.08,-1.74,0.08,-0.09,0.07,-0.06,-1.83,-1.83,-1.83
65.35,-1.75,0.10,-1.75,0.10,-0.12,0.04,-0.08,-1.86,-1.86,-1.85
66.01,-1.75,0.12,-1.75,0.12,-0.13,0.02,-0.09,-1.88,-1.88,-1.87
66.67,-1.75,0.14,-1.75,0.14,-0.14,-0.01,-0.10,-1.88,-1.88,-1.89
67.33,-1.75,0.15,-1.74,0.16,-0.14,-0.04,-0.11,-1.89,-1.89,-1.90
68.01,-1.75,0.17,-1.75,0.17,-0.16,-0.07,-0.12,-1.90,-1.90,-1.92
68.69,-1.75,0.18,-1.76,0.17,-0.18,-0.10,-0.13,-1.92,-1.94,-1.93
69.37,-1.77,0.17,-1.76,0.18,-0.21,-0.13,-0.14,-1.97,-1.97,-1.94
70.07,-1.78,0.17,-1.74,0.21,-0.24,-0.17,-0.15,-2.02,-1.98,-1.95
70.77,-1.68,0.28,-1.71,0.25,-0.28,-0.20,-0.16,-1.96,-1.99,-1.96
71.48,-1.65,0.31,-1.65,0.32,-0.32,-0.23,-0.17,-1.97,-1.97,-1.96
72.19,-1.62,0.35,-1.58,0.39,-0.36,-0.27,-0.18,-1.98,-1.94,-1.97
72.91,-1.52,0.46,-1.54,0.44,-0.40,-0.30,-0.19,-1.92,-1.94,-1.98
73.64,-1.51,0.48,-1.52,0.47,-0.44,-0.34,-0.20,-1.94,-1.95,-1.99
74.38,-1.53,0.47,-1.52,0.48,-0.47,-0.37,-0.21,-1.99,-1.98,-2.00
75.12,-1.55,0.46,-1.54,0.48,-0.49,-0.41,-0.22,-2.03,-2.02,-2.01
75.87,-1.55,0.48,-1.55,0.48,-0.50,-0.44,-0.23,-2.05,-2.05,-2.03
76.63,-1.55,0.49,-1.55,0.49,-0.51,-0.47,-0.24,-2.05,-2.06,-2.04
77.40,-1.55,0.51,-1.55,0.51,-0.51,-0.51,-0.25,-2.06,-2.06,-2.06
78.17,-1.55,0.52,-1.54,0.53,-0.52,-0.54,-0.26,-2.06,-2.06,-2.07
78.95,-1.55,0.54,-1.54,0.54,-0.53,-0.57,-0.27,-2.08,-2.08,-2.09
79.74,-1.55,0.55,-1.55,0.55,-0.55,-0.60,-0.28,-2.10,-2.10,-2.10
80.54,-1.56,0.56,-1.57,0.55,-0.58,-0.63,-0.29,-2.13,-2.14,-2.12
81.35,-1.57,0.56,-1.56,0.57,-0.60,-0.66,-0.31,-2.17,-2.16,-2.13
82.16,-1.57,0.57,-1.53,0.62,-0.63,-0.68,-0.32,-2.19,-2.15,-2.14
82.98,-1.45,0.70,-1.49,0.66,-0.65,-0.70,-0.33,-2.10,-2.14,-2.15
83.81,-1.45,0.71,-1.45,0.71,-0.68,-0.72,-0.34,-2.12,-2.13,-2.16
84.65,-1.45,0.71,-1.43,0.73,-0.70,-0.74,-0.35,-2.15,-2.14,-2.16
85.50,-1.45,0.72,-1.45,0.72,-0.72,-0.76,-0.37,-2.17,-2.17,-2.17
86.35,-1.45,0.73,-1.45,0.73,-0.74,-0.77,-0.38,-2.19,-2.19,-2.18
87.22,-1.45,0.74,-1.45,0.74,-0.75,-0.78,-0.40,-2.20,-2.20,-2.19
88.09,-1.45,0.75,-1.44,0.75,-0.76,-0.78,-0.41,-2.21,-2.21,-2.20
88.97,-1.45,0.75,-1.44,0.76,-0.77,-0.79,-0.42,-2.21,-2.21,-2.20
89.86,-1.44,0.77,-1.44,0.77,-0.77,-0.79,-0.44,-2.21,-2.21,-2.21
90.76,-1.44,0.78,-1.44,0.78,-0.78,-0.78,-0.45,-2.21,-2.21,-2.22
91.66,-1.44,0.78,-1.43,0.79,-0.79,-0.78,-0.47,-2.23,-2.22,-2.22
92.58,-1.44,0.78,-1.44,0.79,-0.80,-0.77,-0.49,-2.23,-2.23,-2.22
93.51,-1.44,0.79,-1.44,0.79,-0.80,-0.76,-0.50,-2.24,-2.24,-2.23
94.44,-1.44,0.79,-1.43,0.79,-0.80,-0.75,-0.52,-2.23,-2.23,-2.23
95.39,-1.44,0.79,-1.43,0.80,-0.78,-0.73,-0.54,-2.22,-2.21,-2.23
96.34,-1.44,0.79,-1.43,0.80,-0.76,-0.72,-0.55,-2.20,-2.19,-2.23
97.30,-1.45,0.78,-1.46,0.77,-0.74,-0.70,-0.57,-2.18,-2.20,-2.23
98.28,-1.50,0.74,-1.52,0.72,-0.72,-0.68,-0.59,-2.21,-2.24,-2.24
99.26,-1.62,0.62,-1.57,0.67,-0.70,-0.66,-0.61,-2.32,-2.27,-2.24
100.25,-1.62,0.62,-1.61,0.63,-0.68,-0.64,-0.62,-2.30,-2.29,-2.24
101.25,-1.61,0.63,-1.62,0.62,-0.66,-0.61,-0.64,-2.27,-2.29,-2.24
102.27,-1.62,0.63,-1.61,0.64,-0.64,-0.59,-0.66,-2.25,-2.25,-2.25
103.29,-1.63,0.63,-1.62,0.64,-0.61,-0.57,-0.68,-2.23,-2.22,-2.26
104.32,-1.64,0.63,-1.63,0.64,-0.57,-0.54,-0.69,-2.21,-2.20,-2.27
105.37,-1.66,0.61,-1.68,0.60,-0.54,-0.52,-0.71,-2.19,-2.21,-2.27
106.42,-1.75,0.53,-1.76,0.52,-0.50,-0.50,-0.72,-2.25,-2.26,-2.28
107.48,-1.88,0.41,-1.86,0.43,-0.46,-0.47,-0.74,-2.34,-2.32,-2.29
108.56,-1.97,0.33,-1.94,0.36,-0.42,-0.45,-0.75,-2.38,-2.36,-2.30
109.64,-1.99,0.32,-1.99,0.32,-0.37,-0.43,-0.77,-2.36,-2.36,-2.31
110.74,-2.00,0.31,-2.00,0.31,-0.33,-0.41,-0.78,-2.32,-2.33,-2.31
111.85,-2.01,0.30,-2.00,0.31,-0.29,-0.38,-0.79,-2.29,-2.29,-2.31
112.97,-2.02,0.29,-2.02,0.29,-0.25,-0.36,-0.80,-2.27,-2.27,-2.31
114.10,-2.04,0.27,-2.05,0.26,-0.22,-0.34,-0.81,-2.26,-2.27,-2.31
115.24,-2.10,0.20,-2.10,0.20,-0.19,-0.32,-0.81,-2.28,-2.29,-2.30
116.39,-2.17,0.13,-2.16,0.14,-0.15,-0.30,-0.82,-2.31,-2.31,-2.30
117.55,-2.22,0.06,-2.19,0.09,-0.11,-0.28,-0.82,-2.32,-2.30,-2.28
118.73,-2.22,0.05,-2.22,0.05,-0.06,-0.26,-0.82,-2.28,-2.28,-2.27
119.92,-2.21,0.04,-2.24,0.00,-0.02,-0.25,-0.82,-2.22,-2.26,-2.25
121.12,-2.29,-0.06,-2.27,-0.04,0.03,-0.23,-0.82,-2.26,-2.24,-2.23
122.33,-2.31,-0.10,-2.27,-0.06,0.07,-0.21,-0.81,-2.23,-2.19,-2.21
123.55,-2.27,-0.08,-2.28,-0.09,0.11,-0.20,-0.80,-2.15,-2.17,-2.19
124.79,-2.24,-0.07,-2.29,-0.12,0.15,-0.18,-0.79,-2.09,-2.14,-2.17
126.03,-2.36,-0.21,-2.32,-0.17,0.18,-0.17,-0.78,-2.17,-2.13,-2.15
127.29,-2.37,-0.24,-2.35,-0.22,0.21,-0.15,-0.76,-2.16,-2.14,-2.13
128.57,-2.36,-0.25,-2.38,-0.27,0.22,-0.14,-0.74,-2.13,-2.15,-2.11
129.85,-2.36,-0.27,-2.35,-0.26,0.23,-0.12,-0.72,-2.13,-2.12,-2.09
131.15,-2.34,-0.27,-2.30,-0.22,0.22,-0.11,-0.70,-2.11,-2.07,-2.07
132.46,-2.23,-0.17,-2.28,-0.22,0.21,-0.10,-0.67,-2.02,-2.07,-2.06
133.79,-2.20,-0.16,-2.23,-0.19,0.19,-0.09,-0.65,-2.00,-2.04,-2.04
135.12,-2.27,-0.24,-2.16,-0.13,0.17,-0.07,-0.62,-2.11,-1.99,-2.03
136.48,-2.07,-0.06,-2.10,-0.09,0.13,-0.06,-0.58,-1.94,-1.97,-2.01
137.84,-1.98,0.02,-2.06,-0.06,0.09,-0.05,-0.55,-1.89,-1.98,-2.00
139.22,-2.05,-0.06,-2.02,-0.03,0.03,-0.04,-0.51,-2.01,-1.99,-1.99
140.61,-2.08,-0.10,-2.01,-0.03,-0.03,-0.03,-0.48,-2.10,-2.04,-1.98
142.02,-1.93,0.04,-1.95,0.02,-0.10,-0.02,-0.44,-2.02,-2.05,-1.97
143.44,-1.81,0.16,-1.82,0.15,-0.17,-0.01,-0.40,-1.98,-1.99,-1.97
144.87,-1.72,0.25,-1.68,0.29,-0.25,0.00,-0.35,-1.97,-1.93,-1.97
146.32,-1.56,0.41,-1.59,0.38,-0.34,0.01,-0.31,-1.89,-1.93,-1.97
147.78,-1.51,0.47,-1.52,0.46,-0.43,0.03,-0.27,-1.94,-1.95,-1.98
149.26,-1.50,0.49,-1.47,0.52,-0.53,0.04,-0.22,-2.02,-2.00,-1.99
150.75,-1.45,0.56,-1.44,0.57,-0.61,0.05,-0.17,-2.06,-2.06,-2.01
152.26,-1.41,0.63,-1.39,0.65,-0.68,0.06,-0.13,-2.09,-2.07,-2.04
153.78,-1.34,0.73,-1.34,0.73,-0.72,0.07,-0.08,-2.06,-2.07,-2.07
155.32,-1.32,0.79,-1.34,0.77,-0.74,0.08,-0.03,-2.06,-2.08,-2.11
156.88,-1.37,0.77,-1.35,0.79,-0.74,0.09,0.02,-2.10,-2.09,-2.14
158.44,-1.45,0.73,-1.43,0.75,-0.71,0.10,0.07,-2.15,-2.13,-2.18
160.03,-1.50,0.71,-1.53,0.68,-0.65,0.11,0.13,-2.14,-2.18,-2.21
161.63,-1.68,0.55,-1.67,0.57,-0.55,0.12,0.18,-2.23,-2.22,-2.23
163.24,-1.83,0.43,-1.81,0.45,-0.43,0.13,0.23,-2.25,-2.23,-2.26
164.88,-1.98,0.29,-1.96,0.31,-0.29,0.14,0.29,-2.26,-2.25,-2.27
166.53,-2.08,0.20,-2.12,0.16,-0.16,0.15,0.34,-2.23,-2.28,-2.28
168.19,-2.27,0.01,-2.27,0.01,-0.04,0.17,0.39,-2.30,-2.31,-2.28
169.87,-2.44,-0.17,-2.39,-0.12,0.05,0.18,0.45,-2.38,-2.34,-2.27
171.57,-2.46,-0.20,-2.46,-0.20,0.12,0.19,0.51,-2.33,-2.34,-2.26
173.29,-2.45,-0.21,-2.45,-0.21,0.16,0.20,0.56,-2.29,-2.29,-2.24
175.02,-2.39,-0.18,-2.37,-0.16,0.17,0.22,0.62,-2.22,-2.21,-2.21
176.77,-2.29,-0.11,-2.30,-0.12,0.14,0.23,0.68,-2.14,-2.15,-2.18
178.54,-2.20,-0.05,-2.22,-0.07,0.10,0.25,0.74,-2.10,-2.12,-2.15
180.32,-2.16,-0.05,-2.14,-0.03,0.04,0.26,0.79,-2.12,-2.10,-2.11
182.13,-2.09,-0.01,-2.05,0.02,-0.03,0.28,0.85,-2.12,-2.08,-2.08
183.95,-1.94,0.10,-1.96,0.09,-0.10,0.29,0.91,-2.03,-2.06,-2.04
185.79,-1.85,0.17,-1.86,0.16,-0.16,0.31,0.97,-2.00,-2.02,-2.02
187.65,-1.80,0.20,-1.78,0.22,-0.21,0.33,1.03,-2.00,-1.99,-2.00
189.52,-1.73,0.25,-1.73,0.25,-0.24,0.35,1.09,-1.97,-1.97,-1.98
191.42,-1.70,0.27,-1.70,0.27,-0.26,0.37,1.15,-1.95,-1.95,-1.97
193.33,-1.68,0.27,-1.65,0.30,-0.25,0.39,1.22,-1.93,-1.91,-1.95
195.27,-1.65,0.29,-1.65,0.29,-0.24,0.41,1.28,-1.88,-1.89,-1.94
197.22,-1.65,0.29,-1.70,0.23,-0.22,0.43,1.34,-1.86,-1.92,-1.94
199.19,-1.80,0.13,-1.77,0.17,-0.20,0.45,1.40,-1.99,-1.96,-1.93
201.18,-1.87,0.06,-1.83,0.10,-0.17,0.48,1.46,-2.04,-2.00,-1.93
203.19,-1.85,0.08,-1.86,0.07,-0.14,0.50,1.53,-1.99,-2.00,-1.93
205.23,-1.83,0.10,-1.84,0.09,-0.11,0.53,1.59,-1.94,-1.95,-1.93
207.28,-1.83,0.10,-1.81,0.12,-0.09,0.56,1.65,-1.91,-1.89,-1.93
209.35,-1.82,0.11,-1.82,0.12,-0.06,0.59,1.71,-1.88,-1.88,-1.93
211.44,-1.82,0.12,-1.87,0.06,-0.04,0.63,1.77,-1.85,-1.91,-1.94
213.56,-1.98,-0.04,-1.94,0.00,-0.01,0.66,1.82,-1.98,-1.94,-1.94
215.69,-2.06,-0.11,-2.01,-0.06,0.04,0.70,1.88,-2.01,-1.97,-1.95
217.85,-2.05,-0.10,-2.08,-0.13,0.11,0.74,1.94,-1.93,-1.97,-1.95
220.03,-2.13,-0.17,-2.13,-0.17,0.20,0.78,1.99,-1.93,-1.93,-1.96
222.23,-2.23,-0.27,-2.21,-0.25,0.29,0.82,2.04,-1.94,-1.93,-1.96
224.45,-2.33,-0.37,-2.35,-0.39,0.38,0.87,2.09,-1.94,-1.97,-1.96
226.70,-2.49,-0.53,-2.48,-0.52,0.49,0.92,2.14,-1.99,-1.98,-1.96
228.96,-2.64,-0.68,-2.58,-0.62,0.61,0.97,2.18,-2.02,-1.97,-1.96
231.25,-2.66,-0.71,-2.69,-0.73,0.74,1.03,2.22,-1.91,-1.94,-1.95
233.57,-2.77,-0.82,-2.80,-0.85,0.88,1.09,2.26,-1.89,-1.92,-1.95
235.90,-2.95,-1.01,-2.94,-1.00,1.01,1.16,2.30,-1.93,-1.92,-1.94
238.26,-3.12,-1.19,-3.10,-1.18,1.15,1.23,2.33,-1.97,-1.96,-1.93
240.64,-3.26,-1.35,-3.25,-1.33,1.29,1.31,2.36,-1.97,-1.96,-1.91
243.05,-3.36,-1.46,-3.35,-1.45,1.43,1.38,2.38,-1.92,-1.92,-1.90
245.48,-3.46,-1.57,-3.46,-1.57,1.59,1.47,2.40,-1.87,-1.87,-1.89
247.93,-3.56,-1.68,-3.59,-1.71,1.75,1.56,2.41,-1.81,-1.85,-1.88
250.41,-3.77,-1.90,-3.75,-1.89,1.91,1.66,2.42,-1.85,-1.84,-1.87
252.92,-3.97,-2.11,-3.93,-2.07,2.08,1.77,2.43,-1.89,-1.85,-1.86
255.45,-4.11,-2.25,-4.13,-2.27,2.25,1.88,2.43,-1.85,-1.87,-1.86
258.00,-4.31,-2.45,-4.31,-2.45,2.44,2.00,2.43,-1.87,-1.87,-1.86
260.58,-4.52,-2.66,-4.50,-2.64,2.64,2.13,2.43,-1.88,-1.87,-1.86
263.19,-4.71,-2.85,-4.70,-2.84,2.84,2.26,2.42,-1.86,-1.86,-1.86
265.82,-4.90,-3.04,-4.89,-3.03,3.05,2.41,2.41,-1.85,-1.84,-1.86
268.48,-5.08,-3.22,-5.08,-3.22,3.25,2.56,2.39,-1.83,-1.84,-1.86
271.16,-5.28,-3.42,-5.31,-3.45,3.45,2.73,2.37,-1.83,-1.86,-1.86
273.87,-5.55,-3.69,-5.53,-3.67,3.65,2.89,2.35,-1.89,-1.88,-1.86
276.61,-5.77,-3.91,-5.73,-3.87,3.86,3.07,2.33,-1.90,-1.87,-1.86
279.38,-5.90,-4.04,-5.91,-4.06,4.07,3.25,2.30,-1.83,-1.84,-1.86
282.17,-6.06,-4.21,-6.07,-4.22,4.27,3.43,2.27,-1.79,-1.80,-1.85
284.99,-6.24,-4.40,-6.24,-4.39,4.44,3.62,2.24,-1.79,-1.79,-1.84
287.84,-6.42,-4.58,-6.43,-4.59,4.59,3.80,2.21,-1.83,-1.84,-1.84
290.72,-6.60,-4.77,-6.60,-4.77,4.69,3.98,2.17,-1.90,-1.91,-1.83
293.63,-6.74,-4.92,-6.69,-4.87,4.77,4.14,2.14,-1.97,-1.92,-1.82
296.57,-6.72,-4.91,-6.70,-4.89,4.82,4.30,2.10,-1.90,-1.88,-1.81
299.53,-6.62,-4.81,-6.63,-4.83,4.83,4.43,2.06,-1.79,-1.80,-1.81
302.53,-6.53,-4.73,-6.55,-4.75,4.81,4.54,2.03,-1.71,-1.74,-1.80
305.55,-6.50,-4.70,-6.50,-4.70,4.76,4.61,1.99,-1.73,-1.73,-1.80
308.61,-6.47,-4.67,-6.46,-4.66,4.69,4.66,1.96,-1.78,-1.77,-1.80
311.69,-6.43,-4.63,-6.42,-4.62,4.60,4.67,1.92,-1.83,-1.82,-1.80
314.81,-6.35,-4.54,-6.33,-4.53,4.50,4.64,1.88,-1.85,-1.84,-1.81
317.96,-6.23,-4.42,-6.23,-4.42,4.39,4.58,1.85,-1.83,-1.83,-1.81
321.14,-6.09,-4.27,-6.11,-4.29,4.28,4.49,1.81,-1.80,-1.82,-1.82
324.35,-6.00,-4.18,-5.98,-4.16,4.17,4.37,1.78,-1.83,-1.81,-1.82
327.59,-5.87,-4.04,-5.86,-4.03,4.04,4.22,1.75,-1.82,-1.82,-1.83
330.87,-5.72,-3.88,-5.73,-3.89,3.91,4.06,1.71,-1.81,-1.82,-1.84
334.18,-5.61,-3.76,-5.60,-3.75,3.77,3.89,1.68,-1.84,-1.83,-1.85
337.52,-5.48,-3.62,-5.48,-3.63,3.63,3.70,1.65,-1.85,-1.86,-1.86
340.90,-5.39,-3.53,-5.37,-3.51,3.49,3.51,1.63,-1.90,-1.88,-1.86
344.30,-5.25,-3.38,-5.25,-3.38,3.35,3.32,1.60,-1.89,-1.90,-1.87
347.75,-5.13,-3.24,-5.13,-3.24,3.22,3.13,1.57,-1.90,-1.90,-1.89
351.23,-5.00,-3.10,-4.98,-3.08,3.10,2.95,1.55,-1.90,-1.88,-1.90
354.74,-4.86,-2.95,-4.84,-2.93,2.98,2.77,1.52,-1.88,-1.87,-1.91
358.28,-4.70,-2.78,-4.75,-2.83,2.86,2.60,1.50,-1.84,-1.89,-1.92
361.87,-4.67,-2.74,-4.67,-2.74,2.74,2.43,1.48,-1.93,-1.93,-1.93
365.49,-4.65,-2.70,-4.59,-2.65,2.62,2.28,1.46,-2.02,-1.97,-1.95
369.14,-4.51,-2.55,-4.51,-2.55,2.51,2.13,1.44,-2.00,-2.00,-1.96
372.83,-4.38,-2.41,-4.39,-2.42,2.41,1.99,1.42,-1.97,-1.99,-1.97
376.56,-4.28,-2.30,-4.27,-2.29,2.31,1.86,1.41,-1.97,-1.96,-1.98
380.33,-4.18,-2.19,-4.18,-2.19,2.21,1.73,1.39,-1.97,-1.97,-1.99
384.13,-4.11,-2.11,-4.10,-2.10,2.12,1.62,1.38,-1.99,-1.99,-2.00
387.97,-4.04,-2.03,-4.02,-2.01,2.03,1.51,1.36,-2.01,-2.00,-2.01
391.85,-3.95,-1.93,-3.96,-1.94,1.94,1.41,1.35,-2.00,-2.02,-2.02
395.77,-3.91,-1.88,-3.90,-1.88,1.87,1.31,1.34,-2.03,-2.03,-2.03
399.73,-3.87,-1.83,-3.84,-1.80,1.81,1.22,1.33,-2.05,-2.03,-2.04
403.72,-3.79,-1.74,-3.80,-1.74,1.75,1.13,1.32,-2.04,-2.05,-2.05
407.76,-3.74,-1.67,-3.76,-1.69,1.69,1.05,1.31,-2.05,-2.07,-2.07
411.84,-3.73,-1.65,-3.71,-1.64,1.62,0.98,1.30,-2.10,-2.09,-2.08
415.96,-3.70,-1.61,-3.66,-1.58,1.56,0.91,1.30,-2.13,-2.10,-2.09
420.12,-3.58,-1.49,-3.60,-1.50,1.50,0.84,1.29,-2.08,-2.10,-2.09
424.32,-3.51,-1.41,-3.51,-1.41,1.43,0.78,1.28,-2.08,-2.08,-2.10
428.56,-3.44,-1.34,-3.43,-1.33,1.35,0.72,1.27,-2.08,-2.08,-2.10
432.85,-3.36,-1.27,-3.36,-1.27,1.27,0.66,1.26,-2.09,-2.09,-2.09
437.18,-3.28,-1.20,-3.28,-1.20,1.18,0.61,1.26,-2.10,-2.11,-2.08
