frequency,raw,error,smoothed,error_smoothed,equalization,parametric_eq,fixed_band_eq,equalized_raw,equalized_smoothed,target
20.00,-2.02,-5.76,-2.02,-5.76,5.82,5.54,2.23,3.79,3.80,3.73
20.20,-1.98,-5.73,-1.99,-5.73,5.75,5.53,2.29,3.76,3.76,3.74
20.40,-1.94,-5.70,-1.95,-5.70,5.68,5.52,2.36,3.74,3.73,3.75
20.61,-1.90,-5.66,-1.91,-5.66,5.62,5.51,2.42,3.72,3.72,3.75
20.81,-1.86,-5.63,-1.86,-5.62,5.57,5.50,2.49,3.71,3.71,3.76
21.02,-1.81,-5.58,-1.81,-5.58,5.52,5.49,2.56,3.71,3.72,3.76
21.23,-1.74,-5.52,-1.75,-5.52,5.48,5.47,2.64,3.74,3.73,3.77
21.44,-1.68,-5.46,-1.68,-5.45,5.45,5.46,2.71,3.76,3.77,3.77
21.66,-1.61,-5.39,-1.61,-5.38,5.41,5.44,2.79,3.80,3.80,3.77
21.87,-1.54,-5.32,-1.56,-5.33,5.39,5.42,2.87,3.84,3.83,3.77
22.09,-1.52,-5.31,-1.54,-5.32,5.37,5.40,2.95,3.85,3.83,3.78
22.31,-1.55,-5.34,-1.55,-5.33,5.36,5.39,3.04,3.81,3.81,3.78
22.54,-1.59,-5.36,-1.59,-5.37,5.36,5.37,3.12,3.76,3.76,3.77
22.76,-1.62,-5.39,-1.63,-5.40,5.35,5.34,3.21,3.73,3.72,3.76
22.99,-1.66,-5.42,-1.64,-5.40,5.34,5.32,3.30,3.68,3.71,3.76
23.22,-1.61,-5.37,-1.61,-5.37,5.33,5.30,3.40,3.71,3.71,3.76
23.45,-1.55,-5.30,-1.56,-5.32,5.30,5.28,3.49,3.75,3.74,3.75
23.69,-1.49,-5.24,-1.50,-5.25,5.26,5.25,3.59,3.76,3.76,3.75
23.92,-1.44,-5.19,-1.44,-5.19,5.20,5.23,3.69,3.76,3.76,3.75
24.16,-1.39,-5.14,-1.40,-5.14,5.15,5.20,3.79,3.76,3.76,3.75
24.40,-1.35,-5.10,-1.35,-5.10,5.11,5.18,3.89,3.75,3.76,3.75
24.65,-1.30,-5.05,-1.30,-5.05,5.07,5.15,3.99,3.77,3.77,3.75
24.89,-1.26,-5.01,-1.27,-5.02,5.05,5.13,4.10,3.79,3.78,3.75
25.14,-1.25,-5.00,-1.26,-5.01,5.04,5.10,4.20,3.79,3.78,3.75
25.39,-1.28,-5.02,-1.28,-5.02,5.04,5.07,4.31,3.75,3.75,3.74
25.65,-1.31,-5.05,-1.31,-5.05,5.03,5.05,4.42,3.71,3.72,3.74
25.91,-1.33,-5.07,-1.32,-5.06,5.02,5.02,4.53,3.68,3.69,3.74
26.16,-1.30,-5.04,-1.30,-5.04,4.99,4.99,4.63,3.69,3.69,3.73
26.43,-1.25,-4.99,-1.26,-4.99,4.96,4.96,4.74,3.70,3.70,3.73
26.69,-1.19,-4.93,-1.20,-4.93,4.91,4.94,4.84,3.72,3.72,3.73
26.96,-1.13,-4.87,-1.14,-4.87,4.86,4.91,4.95,3.73,3.73,3.73
27.23,-1.07,-4.81,-1.07,-4.80,4.81,4.88,5.05,3.74,3.74,3.73
27.50,-1.01,-4.75,-1.01,-4.74,4.77,4.85,5.15,3.75,3.76,3.73
27.77,-0.95,-4.68,-0.95,-4.69,4.74,4.83,5.24,3.79,3.78,3.73
28.05,-0.91,-4.64,-0.94,-4.67,4.72,4.80,5.34,3.81,3.79,3.73
28.33,-0.95,-4.68,-0.96,-4.69,4.71,4.77,5.42,3.76,3.76,3.73
28.62,-1.00,-4.73,-1.00,-4.73,4.71,4.75,5.51,3.71,3.71,3.73
28.90,-1.04,-4.78,-1.03,-4.76,4.71,4.72,5.58,3.67,3.68,3.74
29.19,-1.03,-4.77,-1.03,-4.76,4.71,4.69,5.65,3.67,3.68,3.74
29.48,-0.99,-4.73,-1.00,-4.74,4.70,4.67,5.72,3.71,3.71,3.74
29.78,-0.94,-4.69,-0.95,-4.69,4.70,4.64,5.77,3.75,3.74,3.74
30.08,-0.91,-4.66,-0.92,-4.66,4.68,4.62,5.82,3.77,3.77,3.74
30.38,-0.89,-4.64,-0.89,-4.64,4.67,4.59,5.87,3.78,3.78,3.74
30.68,-0.88,-4.63,-0.88,-4.62,4.66,4.57,5.90,3.77,3.78,3.74
30.99,-0.86,-4.60,-0.87,-4.62,4.64,4.54,5.92,3.78,3.77,3.74
31.30,-0.88,-4.62,-0.89,-4.63,4.62,4.52,5.94,3.74,3.74,3.74
31.61,-0.90,-4.64,-0.91,-4.64,4.61,4.50,5.95,3.70,3.70,3.74
31.93,-0.92,-4.66,-0.91,-4.64,4.59,4.48,5.95,3.66,3.68,3.74
32.24,-0.88,-4.61,-0.87,-4.60,4.56,4.45,5.94,3.68,3.69,3.73
32.57,-0.80,-4.53,-0.81,-4.53,4.53,4.43,5.92,3.73,3.72,3.72
32.89,-0.73,-4.46,-0.75,-4.47,4.50,4.41,5.89,3.77,3.75,3.72
33.22,-0.71,-4.42,-0.72,-4.43,4.47,4.39,5.86,3.76,3.75,3.71
33.55,-0.71,-4.42,-0.71,-4.41,4.44,4.37,5.82,3.73,3.73,3.71
33.89,-0.71,-4.41,-0.71,-4.41,4.42,4.36,5.78,3.70,3.71,3.70
34.23,-0.71,-4.41,-0.71,-4.41,4.40,4.34,5.73,3.69,3.69,3.70
34.57,-0.71,-4.41,-0.71,-4.41,4.40,4.32,5.67,3.68,3.68,3.69
34.92,-0.71,-4.41,-0.71,-4.41,4.40,4.31,5.62,3.68,3.68,3.69
35.27,-0.71,-4.40,-0.71,-4.40,4.40,4.29,5.55,3.69,3.69,3.69
35.62,-0.71,-4.40,-0.71,-4.40,4.41,4.27,5.49,3.69,3.69,3.69
35.97,-0.71,-4.40,-0.71,-4.40,4.41,4.26,5.42,3.70,3.70,3.69
36.33,-0.71,-4.40,-0.71,-4.40,4.42,4.25,5.35,3.70,3.70,3.68
36.70,-0.71,-4.40,-0.71,-4.39,4.41,4.24,5.28,3.69,3.69,3.68
37.06,-0.71,-4.39,-0.72,-4.40,4.39,4.22,5.21,3.67,3.67,3.68
37.43,-0.71,-4.39,-0.73,-4.41,4.36,4.21,5.14,3.64,3.63,3.68
37.81,-0.72,-4.41,-0.71,-4.39,4.32,4.20,5.06,3.60,3.62,3.68
38.19,-0.66,-4.35,-0.64,-4.32,4.29,4.19,4.99,3.62,3.65,3.68
38.57,-0.54,-4.22,-0.55,-4.23,4.25,4.18,4.92,3.71,3.71,3.68
38.95,-0.42,-4.11,-0.47,-4.15,4.22,4.18,4.85,3.80,3.75,3.69
39.34,-0.44,-4.13,-0.45,-4.13,4.20,4.17,4.79,3.75,3.75,3.68
39.74,-0.48,-4.16,-0.47,-4.15,4.17,4.16,4.72,3.69,3.71,3.68
40.14,-0.51,-4.19,-0.50,-4.18,4.16,4.16,4.66,3.65,3.66,3.68
40.54,-0.51,-4.19,-0.52,-4.19,4.16,4.15,4.60,3.64,3.64,3.67
40.94,-0.51,-4.18,-0.52,-4.19,4.16,4.15,4.54,3.65,3.64,3.67
41.35,-0.51,-4.18,-0.51,-4.18,4.17,4.14,4.49,3.66,3.66,3.67
41.76,-0.51,-4.17,-0.51,-4.17,4.17,4.14,4.44,3.66,3.66,3.65
42.18,-0.51,-4.16,-0.51,-4.16,4.17,4.14,4.39,3.66,3.66,3.65
42.60,-0.51,-4.16,-0.51,-4.16,4.16,4.14,4.34,3.65,3.65,3.64
43.03,-0.51,-4.15,-0.51,-4.15,4.15,4.13,4.30,3.64,3.64,3.64
43.46,-0.51,-4.15,-0.51,-4.15,4.14,4.13,4.26,3.63,3.63,3.64
43.90,-0.51,-4.14,-0.51,-4.14,4.14,4.13,4.23,3.62,3.62,3.62
44.33,-0.51,-4.13,-0.51,-4.13,4.13,4.13,4.19,3.62,3.62,3.62
44.78,-0.51,-4.13,-0.51,-4.12,4.13,4.13,4.16,3.61,3.61,3.61
45.23,-0.51,-4.12,-0.51,-4.12,4.12,4.13,4.14,3.61,3.61,3.61
45.68,-0.51,-4.12,-0.51,-4.12,4.12,4.13,4.12,3.61,3.61,3.60
46.13,-0.51,-4.12,-0.51,-4.12,4.12,4.14,4.10,3.60,3.60,3.61
46.60,-0.51,-4.11,-0.51,-4.12,4.12,4.14,4.08,3.60,3.60,3.60
47.06,-0.51,-4.12,-0.51,-4.12,4.12,4.14,4.07,3.60,3.60,3.60
47.53,-0.51,-4.12,-0.51,-4.12,4.12,4.14,4.06,3.61,3.61,3.61
48.01,-0.51,-4.13,-0.51,-4.13,4.12,4.14,4.05,3.61,3.61,3.61
48.49,-0.51,-4.13,-0.51,-4.13,4.13,4.14,4.04,3.62,3.62,3.62
48.97,-0.51,-4.13,-0.51,-4.13,4.13,4.14,4.04,3.62,3.62,3.62
49.46,-0.51,-4.14,-0.51,-4.14,4.14,4.14,4.04,3.63,3.63,3.62
49.96,-0.51,-4.15,-0.51,-4.15,4.15,4.15,4.04,3.63,3.63,3.63
50.46,-0.51,-4.15,-0.51,-4.15,4.15,4.15,4.05,3.64,3.64,3.64
50.96,-0.51,-4.16,-0.51,-4.16,4.16,4.15,4.05,3.64,3.64,3.65
51.47,-0.51,-4.16,-0.51,-4.16,4.16,4.15,4.06,3.65,3.65,3.65
51.99,-0.51,-4.17,-0.51,-4.17,4.17,4.15,4.07,3.65,3.65,3.65
52.51,-0.51,-4.17,-0.51,-4.17,4.17,4.14,4.08,3.66,3.66,3.65
53.03,-0.51,-4.17,-0.51,-4.17,4.17,4.14,4.09,3.66,3.66,3.65
53.56,-0.51,-4.17,-0.51,-4.17,4.17,4.14,4.11,3.66,3.66,3.65
54.10,-0.51,-4.18,-0.51,-4.18,4.18,4.14,4.12,3.66,3.66,3.66
54.64,-0.51,-4.18,-0.51,-4.18,4.18,4.13,4.13,3.66,3.66,3.66
55.18,-0.51,-4.18,-0.51,-4.18,4.17,4.12,4.14,3.66,3.66,3.66
55.74,-0.51,-4.17,-0.51,-4.17,4.17,4.12,4.15,3.66,3.66,3.65
56.29,-0.51,-4.17,-0.51,-4.17,4.17,4.11,4.16,3.65,3.65,3.65
56.86,-0.51,-4.16,-0.51,-4.16,4.16,4.10,4.17,3.65,3.65,3.65
57.42,-0.51,-4.15,-0.51,-4.15,4.15,4.09,4.18,3.64,3.64,3.64
58.00,-0.51,-4.14,-0.51,-4.14,4.14,4.08,4.18,3.63,3.63,3.63
58.58,-0.51,-4.13,-0.51,-4.13,4.13,4.07,4.18,3.62,3.62,3.61
59.16,-0.51,-4.11,-0.51,-4.11,4.12,4.06,4.18,3.60,3.60,3.60
59.76,-0.51,-4.10,-0.51,-4.10,4.10,4.04,4.18,3.58,3.58,3.59
60.35,-0.51,-4.08,-0.51,-4.08,4.08,4.02,4.17,3.56,3.56,3.56
60.96,-0.51,-4.05,-0.51,-4.05,4.05,4.01,4.16,3.54,3.54,3.54
61.57,-0.51,-4.03,-0.51,-4.03,4.02,3.99,4.15,3.51,3.51,3.51
62.18,-0.51,-3.99,-0.51,-3.99,3.99,3.97,4.13,3.47,3.47,3.48
62.80,-0.51,-3.96,-0.51,-3.95,3.95,3.94,4.11,3.44,3.44,3.44
63.43,-0.51,-3.91,-0.51,-3.91,3.91,3.92,4.08,3.40,3.40,3.40
64.07,-0.51,-3.87,-0.51,-3.87,3.87,3.90,4.05,3.36,3.36,3.36
64.71,-0.51,-3.83,-0.51,-3.83,3.83,3.87,4.02,3.32,3.32,3.31
65.35,-0.51,-3.79,-0.51,-3.79,3.79,3.84,3.98,3.28,3.28,3.27
66.01,-0.51,-3.75,-0.51,-3.75,3.75,3.81,3.94,3.24,3.24,3.23
66.67,-0.51,-3.71,-0.51,-3.71,3.71,3.78,3.90,3.20,3.20,3.20
67.33,-0.51,-3.68,-0.51,-3.68,3.67,3.75,3.86,3.15,3.15,3.17
68.01,-0.51,-3.64,-0.51,-3.64,3.63,3.72,3.81,3.11,3.11,3.13
68.69,-0.51,-3.61,-0.51,-3.61,3.59,3.69,3.75,3.08,3.08,3.10
69.37,-0.50,-3.57,-0.49,-3.56,3.57,3.65,3.70,3.07,3.08,3.06
70.07,-0.49,-3.53,-0.47,-3.51,3.56,3.61,3.65,3.06,3.08,3.03
70.77,-0.44,-3.44,-0.49,-3.49,3.54,3.58,3.59,3.10,3.05,3.00
71.48,-0.51,-3.49,-0.53,-3.50,3.52,3.54,3.53,3.00,2.99,2.98
72.19,-0.61,-3.56,-0.58,-3.52,3.49,3.50,3.47,2.87,2.91,2.94
72.91,-0.61,-3.52,-0.62,-3.53,3.45,3.46,3.41,2.84,2.83,2.91
73.64,-0.61,-3.49,-0.61,-3.49,3.41,3.42,3.35,2.80,2.80,2.87
74.38,-0.57,-3.41,-0.55,-3.39,3.38,3.38,3.29,2.80,2.83,2.84
75.12,-0.49,-3.30,-0.50,-3.30,3.34,3.34,3.23,2.85,2.84,2.80
75.87,-0.42,-3.18,-0.46,-3.22,3.30,3.29,3.16,2.87,2.83,2.76
76.63,-0.47,-3.19,-0.46,-3.18,3.25,3.25,3.10,2.77,2.78,2.72
77.40,-0.51,-3.18,-0.50,-3.17,3.19,3.21,3.04,2.67,2.69,2.67
78.17,-0.52,-3.16,-0.55,-3.18,3.13,3.16,2.99,2.61,2.58,2.63
78.95,-0.59,-3.18,-0.56,-3.15,3.08,3.12,2.93,2.48,2.52,2.58
79.74,-0.55,-3.10,-0.53,-3.07,3.03,3.07,2.87,2.48,2.50,2.54
80.54,-0.46,-2.96,-0.49,-2.98,2.98,3.03,2.81,2.51,2.49,2.49
81.35,-0.41,-2.87,-0.43,-2.88,2.92,2.98,2.76,2.51,2.49,2.45
82.16,-0.41,-2.83,-0.41,-2.82,2.86,2.94,2.71,2.45,2.46,2.41
82.98,-0.41,-2.78,-0.41,-2.78,2.80,2.89,2.66,2.39,2.39,2.37
83.81,-0.41,-2.74,-0.41,-2.75,2.74,2.84,2.61,2.33,2.33,2.33
84.65,-0.41,-2.71,-0.41,-2.71,2.69,2.80,2.56,2.28,2.28,2.29
85.50,-0.41,-2.67,-0.41,-2.67,2.65,2.75,2.51,2.23,2.23,2.25
86.35,-0.41,-2.62,-0.41,-2.62,2.60,2.71,2.47,2.19,2.19,2.21
87.22,-0.41,-2.58,-0.41,-2.58,2.57,2.66,2.43,2.15,2.15,2.16
88.09,-0.41,-2.53,-0.41,-2.53,2.53,2.62,2.39,2.12,2.12,2.12
88.97,-0.41,-2.50,-0.41,-2.49,2.50,2.57,2.35,2.09,2.09,2.08
89.86,-0.41,-2.45,-0.42,-2.45,2.48,2.53,2.31,2.07,2.07,2.04
90.76,-0.43,-2.43,-0.44,-2.44,2.48,2.48,2.27,2.04,2.03,1.99
91.66,-0.48,-2.44,-0.49,-2.45,2.47,2.44,2.24,1.99,1.98,1.95
92.58,-0.56,-2.48,-0.55,-2.46,2.47,2.40,2.21,1.90,1.92,1.92
93.51,-0.60,-2.47,-0.59,-2.47,2.45,2.35,2.18,1.85,1.86,1.87
94.44,-0.61,-2.45,-0.63,-2.46,2.42,2.31,2.15,1.81,1.79,1.83
95.39,-0.63,-2.43,-0.66,-2.45,2.38,2.27,2.12,1.75,1.72,1.79
96.34,-0.67,-2.43,-0.64,-2.40,2.33,2.23,2.10,1.66,1.69,1.76
97.30,-0.63,-2.35,-0.57,-2.29,2.27,2.19,2.07,1.64,1.70,1.72
98.28,-0.44,-2.11,-0.49,-2.16,2.20,2.14,2.05,1.76,1.72,1.67
99.26,-0.37,-2.00,-0.43,-2.06,2.14,2.10,2.03,1.76,1.71,1.63
100.25,-0.44,-2.04,-0.42,-2.01,2.07,2.06,2.01,1.63,1.66,1.59
101.25,-0.48,-2.04,-0.46,-2.01,2.02,2.03,1.99,1.53,1.56,1.55
102.27,-0.49,-2.00,-0.50,-2.00,1.97,1.99,1.97,1.48,1.48,1.50
103.29,-0.50,-1.96,-0.51,-1.96,1.94,1.95,1.96,1.44,1.43,1.45
104.32,-0.52,-1.93,-0.52,-1.93,1.92,1.91,1.94,1.40,1.40,1.40
105.37,-0.54,-1.91,-0.55,-1.91,1.91,1.87,1.93,1.36,1.36,1.37
106.42,-0.57,-1.89,-0.57,-1.89,1.89,1.84,1.91,1.31,1.32,1.32
107.48,-0.59,-1.86,-0.60,-1.86,1.86,1.80,1.90,1.27,1.26,1.27
108.56,-0.62,-1.84,-0.62,-1.84,1.83,1.77,1.88,1.20,1.21,1.22
109.64,-0.64,-1.81,-0.64,-1.81,1.80,1.73,1.87,1.16,1.16,1.17
110.74,-0.65,-1.78,-0.66,-1.79,1.78,1.70,1.86,1.13,1.13,1.13
111.85,-0.67,-1.76,-0.67,-1.76,1.77,1.66,1.84,1.10,1.10,1.09
112.97,-0.68,-1.73,-0.67,-1.72,1.76,1.63,1.83,1.08,1.09,1.05
114.10,-0.69,-1.71,-0.70,-1.71,1.75,1.60,1.82,1.05,1.05,1.01
115.24,-0.71,-1.70,-0.76,-1.74,1.73,1.57,1.80,1.02,0.97,0.98
116.39,-0.83,-1.78,-0.82,-1.77,1.72,1.53,1.79,0.88,0.89,0.95
117.55,-0.89,-1.82,-0.83,-1.76,1.71,1.50,1.77,0.81,0.88,0.93
118.73,-0.82,-1.73,-0.81,-1.71,1.70,1.47,1.76,0.87,0.89,0.90
119.92,-0.68,-1.57,-0.77,-1.66,1.69,1.44,1.74,1.01,0.92,0.88
121.12,-0.78,-1.65,-0.76,-1.62,1.69,1.41,1.72,0.90,0.93,0.87
122.33,-0.80,-1.65,-0.79,-1.64,1.67,1.39,1.71,0.87,0.89,0.85
123.55,-0.82,-1.66,-0.83,-1.67,1.65,1.36,1.69,0.83,0.82,0.84
124.79,-0.84,-1.66,-0.84,-1.66,1.63,1.33,1.67,0.78,0.79,0.82
126.03,-0.84,-1.65,-0.84,-1.65,1.60,1.30,1.64,0.76,0.76,0.80
127.29,-0.82,-1.61,-0.83,-1.62,1.58,1.28,1.62,0.75,0.74,0.79
128.57,-0.81,-1.59,-0.80,-1.57,1.55,1.25,1.60,0.74,0.75,0.78
129.85,-0.74,-1.51,-0.74,-1.50,1.53,1.22,1.57,0.78,0.79,0.76
131.15,-0.69,-1.44,-0.69,-1.44,1.50,1.20,1.54,0.81,0.81,0.75
132.46,-0.64,-1.37,-0.69,-1.42,1.48,1.17,1.52,0.83,0.79,0.73
133.79,-0.73,-1.45,-0.73,-1.44,1.47,1.15,1.49,0.73,0.74,0.72
135.12,-0.80,-1.50,-0.77,-1.47,1.45,1.13,1.46,0.65,0.68,0.69
136.48,-0.80,-1.49,-0.81,-1.49,1.45,1.10,1.43,0.64,0.64,0.68
137.84,-0.79,-1.46,-0.80,-1.47,1.44,1.08,1.40,0.64,0.63,0.66
139.22,-0.79,-1.44,-0.80,-1.44,1.43,1.06,1.37,0.63,0.63,0.64
140.61,-0.79,-1.42,-0.80,-1.43,1.41,1.04,1.33,0.62,0.61,0.62
142.02,-0.79,-1.40,-0.77,-1.37,1.38,1.02,1.30,0.59,0.61,0.61
143.44,-0.76,-1.34,-0.73,-1.31,1.34,1.00,1.27,0.58,0.61,0.58
144.87,-0.64,-1.19,-0.72,-1.27,1.29,0.97,1.23,0.64,0.56,0.55
146.32,-0.71,-1.24,-0.72,-1.24,1.23,0.95,1.20,0.51,0.51,0.52
147.78,-0.78,-1.27,-0.70,-1.19,1.17,0.93,1.16,0.38,0.46,0.49
149.26,-0.66,-1.12,-0.68,-1.13,1.10,0.92,1.13,0.44,0.42,0.45
150.75,-0.59,-1.00,-0.63,-1.03,1.03,0.90,1.09,0.44,0.41,0.41
152.26,-0.59,-0.95,-0.59,-0.94,0.97,0.88,1.06,0.37,0.38,0.35
153.78,-0.59,-0.89,-0.59,-0.88,0.90,0.86,1.02,0.31,0.31,0.30
155.32,-0.59,-0.83,-0.59,-0.83,0.83,0.84,0.99,0.24,0.24,0.23
156.88,-0.59,-0.78,-0.59,-0.77,0.77,0.83,0.95,0.17,0.17,0.18
158.44,-0.59,-0.71,-0.59,-0.72,0.71,0.81,0.92,0.12,0.12,0.12
160.03,-0.59,-0.66,-0.59,-0.66,0.66,0.79,0.88,0.06,0.06,0.07
161.63,-0.59,-0.62,-0.59,-0.62,0.62,0.77,0.85,0.02,0.02,0.03
163.24,-0.59,-0.57,-0.59,-0.58,0.59,0.76,0.82,-0.01,-0.01,-0.02
164.88,-0.59,-0.54,-0.60,-0.54,0.56,0.74,0.78,-0.04,-0.04,-0.05
166.53,-0.60,-0.52,-0.60,-0.52,0.53,0.73,0.75,-0.07,-0.07,-0.08
168.19,-0.60,-0.50,-0.61,-0.51,0.51,0.71,0.72,-0.09,-0.09,-0.10
169.87,-0.61,-0.51,-0.61,-0.50,0.50,0.70,0.68,-0.11,-0.11,-0.11
171.57,-0.62,-0.51,-0.64,-0.52,0.50,0.68,0.65,-0.13,-0.14,-0.12
173.29,-0.62,-0.51,-0.61,-0.50,0.50,0.67,0.62,-0.13,-0.12,-0.11
175.02,-0.63,-0.53,-0.57,-0.47,0.50,0.66,0.59,-0.14,-0.08,-0.10
176.77,-0.47,-0.39,-0.56,-0.48,0.50,0.64,0.56,0.02,-0.07,-0.09
178.54,-0.54,-0.47,-0.56,-0.49,0.49,0.63,0.53,-0.05,-0.07,-0.07
180.32,-0.61,-0.57,-0.53,-0.49,0.48,0.62,0.50,-0.13,-0.06,-0.05
182.13,-0.51,-0.48,-0.52,-0.49,0.45,0.60,0.47,-0.06,-0.06,-0.03
183.95,-0.41,-0.41,-0.46,-0.45,0.42,0.59,0.44,0.01,-0.04,-0.01
185.79,-0.40,-0.40,-0.41,-0.41,0.39,0.58,0.41,-0.02,-0.02,0.00
187.65,-0.39,-0.40,-0.36,-0.37,0.35,0.57,0.38,-0.04,-0.00,0.01
189.52,-0.31,-0.33,-0.30,-0.31,0.33,0.55,0.35,0.01,0.03,0.01
191.42,-0.19,-0.21,-0.23,-0.25,0.30,0.54,0.32,0.11,0.07,0.01
193.33,-0.17,-0.19,-0.19,-0.21,0.28,0.53,0.30,0.11,0.09,0.02
195.27,-0.21,-0.23,-0.20,-0.21,0.26,0.52,0.27,0.04,0.06,0.02
197.22,-0.23,-0.24,-0.25,-0.26,0.23,0.51,0.24,-0.00,-0.02,0.01
199.19,-0.28,-0.29,-0.27,-0.27,0.20,0.50,0.21,-0.08,-0.07,0.01
201.18,-0.28,-0.28,-0.24,-0.24,0.16,0.49,0.19,-0.12,-0.08,-0.00
203.19,-0.16,-0.15,-0.19,-0.18,0.12,0.48,0.16,-0.04,-0.07,-0.01
205.23,-0.09,-0.07,-0.10,-0.08,0.09,0.47,0.14,-0.01,-0.01,-0.02
207.28,-0.04,-0.01,-0.01,0.02,0.04,0.46,0.11,0.00,0.03,-0.03
209.35,0.07,0.11,0.03,0.08,-0.00,0.45,0.09,0.06,0.03,-0.04
211.44,0.07,0.13,0.05,0.10,-0.06,0.44,0.07,0.01,-0.01,-0.06
213.56,0.01,0.08,0.03,0.10,-0.10,0.43,0.04,-0.10,-0.07,-0.07
215.69,-0.00,0.08,-0.01,0.08,-0.14,0.42,0.02,-0.15,-0.15,-0.09
217.85,-0.00,0.09,-0.00,0.10,-0.17,0.41,-0.00,-0.17,-0.17,-0.10
220.03,0.02,0.13,0.06,0.17,-0.18,0.40,-0.02,-0.16,-0.12,-0.11
222.23,0.14,0.26,0.10,0.23,-0.19,0.40,-0.04,-0.05,-0.08,-0.12
224.45,0.18,0.31,0.13,0.26,-0.20,0.39,-0.06,-0.03,-0.07,-0.13
226.70,0.10,0.23,0.13,0.27,-0.22,0.38,-0.08,-0.13,-0.09,-0.14
228.96,0.10,0.24,0.10,0.24,-0.26,0.37,-0.09,-0.16,-0.15,-0.14
231.25,0.10,0.24,0.08,0.22,-0.29,0.36,-0.11,-0.19,-0.21,-0.14
233.57,0.11,0.25,0.10,0.25,-0.31,0.36,-0.12,-0.21,-0.21,-0.15
235.90,0.12,0.26,0.17,0.31,-0.33,0.35,-0.14,-0.22,-0.16,-0.14
238.26,0.26,0.39,0.25,0.38,-0.35,0.34,-0.15,-0.10,-0.10,-0.14
240.64,0.38,0.50,0.31,0.43,-0.38,0.33,-0.16,-0.00,-0.07,-0.12
243.05,0.32,0.43,0.33,0.45,-0.40,0.33,-0.17,-0.09,-0.07,-0.12
245.48,0.29,0.40,0.32,0.43,-0.43,0.32,-0.18,-0.14,-0.11,-0.11
247.93,0.32,0.42,0.31,0.41,-0.45,0.31,-0.19,-0.13,-0.14,-0.11
250.41,0.34,0.44,0.33,0.43,-0.46,0.31,-0.19,-0.12,-0.13,-0.10
252.92,0.35,0.44,0.35,0.45,-0.46,0.30,-0.20,-0.12,-0.11,-0.10
255.45,0.37,0.47,0.36,0.47,-0.47,0.29,-0.20,-0.10,-0.10,-0.10
258.00,0.38,0.48,0.37,0.48,-0.47,0.29,-0.20,-0.10,-0.10,-0.11
260.58,0.38,0.49,0.38,0.49,-0.49,0.28,-0.20,-0.11,-0.11,-0.11
263.19,0.38,0.49,0.38,0.49,-0.50,0.27,-0.20,-0.12,-0.12,-0.11
265.82,0.38,0.49,0.38,0.49,-0.49,0.27,-0.20,-0.12,-0.12,-0.12
268.48,0.38,0.50,0.38,0.50,-0.48,0.26,-0.19,-0.11,-0.10,-0.12
271.16,0.37,0.49,0.37,0.50,-0.47,0.26,-0.19,-0.10,-0.10,-0.12
273.87,0.37,0.49,0.35,0.48,-0.45,0.25,-0.18,-0.09,-0.11,-0.13
276.61,0.30,0.43,0.30,0.43,-0.44,0.24,-0.18,-0.14,-0.14,-0.13
279.38,0.25,0.38,0.24,0.37,-0.42,0.24,-0.17,-0.17,-0.18,-0.13
282.17,0.19,0.31,0.20,0.32,-0.39,0.23,-0.16,-0.20,-0.19,-0.13
284.99,0.18,0.30,0.24,0.36,-0.35,0.23,-0.15,-0.18,-0.12,-0.12
287.84,0.26,0.38,0.24,0.36,-0.31,0.22,-0.14,-0.06,-0.07,-0.12
290.72,0.33,0.44,0.18,0.30,-0.26,0.22,-0.13,0.06,-0.08,-0.12
293.63,0.03,0.13,0.13,0.24,-0.20,0.21,-0.12,-0.18,-0.08,-0.11
296.57,-0.04,0.06,0.04,0.15,-0.14,0.21,-0.11,-0.18,-0.10,-0.10
299.53,0.07,0.17,-0.04,0.06,-0.08,0.20,-0.10,-0.01,-0.12,-0.10
302.53,-0.08,0.01,-0.11,-0.01,-0.01,0.20,-0.09,-0.09,-0.11,-0.10
305.55,-0.22,-0.13,-0.21,-0.11,0.08,0.19,-0.07,-0.15,-0.13,-0.10
308.61,-0.38,-0.28,-0.30,-0.20,0.16,0.19,-0.06,-0.22,-0.14,-0.10
311.69,-0.30,-0.20,-0.33,-0.23,0.24,0.19,-0.05,-0.06,-0.09,-0.10
314.81,-0.32,-0.21,-0.38,-0.27,0.31,0.18,-0.03,-0.01,-0.07,-0.11
317.96,-0.45,-0.34,-0.46,-0.34,0.38,0.18,-0.02,-0.08,-0.08,-0.12
321.14,-0.62,-0.50,-0.60,-0.47,0.45,0.17,-0.01,-0.18,-0.15,-0.13
324.35,-0.72,-0.59,-0.70,-0.57,0.53,0.17,0.01,-0.20,-0.17,-0.13
327.59,-0.77,-0.63,-0.77,-0.63,0.61,0.16,0.02,-0.16,-0.16,-0.14
330.87,-0.77,-0.62,-0.80,-0.65,0.70,0.16,0.04,-0.08,-0.10,-0.15
334.18,-0.89,-0.73,-0.87,-0.70,0.78,0.16,0.05,-0.11,-0.08,-0.16
337.52,-0.93,-0.76,-1.00,-0.83,0.85,0.15,0.07,-0.08,-0.15,-0.18
340.90,-1.14,-0.97,-1.15,-0.97,0.91,0.15,0.08,-0.24,-0.24,-0.18
344.30,-1.31,-1.13,-1.23,-1.04,0.95,0.14,0.10,-0.36,-0.28,-0.19
347.75,-1.27,-1.06,-1.25,-1.05,0.99,0.14,0.11,-0.28,-0.26,-0.21
351.23,-1.17,-0.95,-1.23,-1.01,1.03,0.14,0.12,-0.15,-0.20,-0.22
354.74,-1.17,-0.94,-1.22,-0.99,1.05,0.13,0.14,-0.12,-0.17,-0.23
358.28,-1.29,-1.05,-1.26,-1.01,1.06,0.13,0.15,-0.24,-0.20,-0.24
361.87,-1.33,-1.08,-1.31,-1.05,1.05,0.13,0.17,-0.29,-0.27,-0.25
365.49,-1.32,-1.05,-1.33,-1.06,1.03,0.12,0.18,-0.30,-0.31,-0.28
369.14,-1.31,-1.03,-1.32,-1.04,1.01,0.12,0.20,-0.30,-0.31,-0.29
372.83,-1.31,-1.02,-1.31,-1.01,1.01,0.12,0.21,-0.31,-0.30,-0.30
376.56,-1.30,-1.00,-1.30,-1.00,1.01,0.11,0.23,-0.30,-0.30,-0.31
380.33,-1.29,-0.97,-1.30,-0.98,1.00,0.11,0.25,-0.29,-0.30,-0.32
384.13,-1.29,-0.96,-1.28,-0.95,0.99,0.11,0.26,-0.31,-0.30,-0.33
387.97,-1.28,-0.94,-1.29,-0.95,0.97,0.10,0.28,-0.31,-0.32,-0.34
391.85,-1.28,-0.93,-1.32,-0.97,0.95,0.10,0.29,-0.33,-0.37,-0.35
395.77,-1.35,-0.99,-1.34,-0.98,0.94,0.10,0.31,-0.41,-0.40,-0.36
399.73,-1.38,-1.01,-1.32,-0.94,0.92,0.09,0.32,-0.46,-0.40,-0.37
403.72,-1.24,-0.86,-1.28,-0.90,0.89,0.09,0.34,-0.35,-0.39,-0.38
407.76,-1.19,-0.79,-1.25,-0.84,0.85,0.09,0.35,-0.34,-0.39,-0.41
411.84,-1.24,-0.83,-1.21,-0.80,0.80,0.09,0.36,-0.44,-0.41,-0.42
415.96,-1.22,-0.80,-1.19,-0.76,0.74,0.08,0.38,-0.48,-0.44,-0.43
420.12,-1.11,-0.69,-1.14,-0.71,0.69,0.08,0.39,-0.43,-0.45,-0.43
424.32,-1.04,-0.61,-1.06,-0.62,0.63,0.08,0.41,-0.41,-0.43,-0.44
428.56,-0.99,-0.56,-0.98,-0.55,0.58,0.07,0.42,-0.41,-0.40,-0.44
432.85,-0.92,-0.50,-0.91,-0.48,0.52,0.07,0.44,-0.40,-0.39,-0.43
437.18,-0.84,-0.42,-0.85,-0.44,0.46,0.07,0.45,-0.39,-0.40,-0.42
441.55,-0.79,-0.39,-0.83,-0.43,0.39,0.07,0.46,-0.40,-0.44,-0.40
445.96,-0.78,-0.40,-0.77,-0.39,0.32,0.07,0.47,-0.46,-0.45,-0.38
450.42,-0.75,-0.40,-0.65,-0.31,0.26,0.06,0.49,-0.49,-0.39,-0.35
454.93,-0.45,-0.14,-0.51,-0.20,0.20,0.06,0.50,-0.25,-0.31,-0.31
459.48,-0.31,-0.04,-0.37,-0.10,0.15,0.06,0.51,-0.17,-0.22,-0.27
464.07,-0.30,-0.06,-0.27,-0.03,0.10,0.06,0.52,-0.20,-0.17,-0.24
468.71,-0.26,-0.06,-0.24,-0.04,0.07,0.06,0.53,-0.20,-0.18,-0.20
473.40,-0.19,-0.03,-0.20,-0.04,0.04,0.06,0.54,-0.16,-0.16,-0.16
478.13,-0.14,-0.02,-0.14,-0.01,0.02,0.05,0.55,-0.13,-0.12,-0.12
482.91,-0.09,-0.00,-0.12,-0.02,0.00,0.05,0.55,-0.09,-0.12,-0.09
487.74,-0.07,-0.01,-0.10,-0.04,-0.01,0.05,0.56,-0.08,-0.11,-0.06
492.62,-0.14,-0.10,-0.06,-0.02,-0.02,0.05,0.57,-0.16,-0.08,-0.04
497.55,-0.00,0.02,-0.02,0.01,-0.03,0.05,0.57,-0.03,-0.04,-0.02
