frequency,raw,error,smoothed,error_smoothed,equalization,parametric_eq,fixed_band_eq,equalized_raw,equalized_smoothed,target
20.00,2.55,0.55,2.55,0.55,-0.55,-0.96,-0.88,2.00,2.00,2.00
20.20,2.61,0.57,2.61,0.57,-0.57,-0.98,-0.91,2.04,2.04,2.04
20.40,2.67,0.59,2.67,0.60,-0.60,-0.99,-0.93,2.07,2.07,2.08
20.61,2.73,0.63,2.73,0.62,-0.62,-1.01,-0.96,2.11,2.11,2.10
20.81,2.79,0.65,2.79,0.65,-0.65,-1.03,-0.99,2.14,2.14,2.14
21.02,2.85,0.67,2.85,0.68,-0.68,-1.05,-1.02,2.17,2.17,2.18
21.23,2.91,0.71,2.91,0.71,-0.72,-1.06,-1.04,2.19,2.19,2.20
21.44,2.97,0.75,2.97,0.75,-0.75,-1.08,-1.07,2.22,2.22,2.22
21.66,3.03,0.79,3.03,0.80,-0.79,-1.10,-1.10,2.24,2.24,2.24
21.87,3.09,0.84,3.09,0.84,-0.84,-1.12,-1.13,2.25,2.25,2.25
22.09,3.14,0.88,3.14,0.88,-0.88,-1.14,-1.17,2.26,2.26,2.27
22.31,3.20,0.93,3.20,0.93,-0.93,-1.16,-1.20,2.27,2.27,2.28
22.54,3.26,0.98,3.26,0.98,-0.98,-1.18,-1.23,2.27,2.28,2.27
22.76,3.32,1.04,3.32,1.04,-1.04,-1.20,-1.27,2.29,2.28,2.28
22.99,3.38,1.10,3.38,1.09,-1.08,-1.22,-1.30,2.30,2.29,2.28
23.22,3.43,1.14,3.43,1.14,-1.13,-1.24,-1.34,2.30,2.30,2.29
23.45,3.49,1.19,3.49,1.19,-1.18,-1.26,-1.38,2.31,2.31,2.30
23.69,3.55,1.24,3.55,1.23,-1.23,-1.28,-1.41,2.32,2.32,2.31
23.92,3.60,1.27,3.60,1.27,-1.27,-1.30,-1.45,2.33,2.33,2.33
24.16,3.66,1.31,3.66,1.31,-1.32,-1.32,-1.49,2.34,2.34,2.35
24.40,3.71,1.35,3.71,1.35,-1.36,-1.34,-1.53,2.35,2.35,2.36
24.65,3.77,1.41,3.77,1.40,-1.40,-1.37,-1.57,2.37,2.37,2.36
24.89,3.83,1.45,3.83,1.45,-1.45,-1.39,-1.61,2.38,2.38,2.38
25.14,3.88,1.49,3.88,1.49,-1.49,-1.41,-1.65,2.39,2.39,2.39
25.39,3.93,1.53,3.93,1.53,-1.53,-1.43,-1.69,2.40,2.40,2.40
25.65,3.99,1.58,3.99,1.58,-1.58,-1.46,-1.74,2.41,2.41,2.41
25.91,4.04,1.62,4.04,1.62,-1.62,-1.48,-1.78,2.42,2.42,2.42
26.16,4.09,1.66,4.09,1.66,-1.66,-1.50,-1.82,2.43,2.43,2.43
26.43,4.14,1.70,4.14,1.70,-1.70,-1.52,-1.86,2.44,2.44,2.44
26.69,4.19,1.73,4.19,1.74,-1.74,-1.55,-1.90,2.45,2.45,2.46
26.96,4.24,1.77,4.24,1.77,-1.77,-1.57,-1.94,2.46,2.47,2.47
27.23,4.29,1.81,4.29,1.81,-1.81,-1.60,-1.98,2.48,2.48,2.48
27.50,4.34,1.84,4.34,1.85,-1.85,-1.62,-2.02,2.49,2.49,2.49
27.77,4.38,1.89,4.38,1.88,-1.88,-1.64,-2.05,2.50,2.50,2.49
28.05,4.43,1.92,4.43,1.92,-1.92,-1.67,-2.09,2.51,2.51,2.51
28.33,4.47,1.96,4.47,1.95,-1.95,-1.69,-2.12,2.52,2.52,2.51
28.62,4.52,1.99,4.52,1.99,-1.99,-1.72,-2.16,2.53,2.53,2.53
28.90,4.56,2.02,4.56,2.02,-2.02,-1.74,-2.19,2.54,2.54,2.54
29.19,4.61,2.06,4.61,2.05,-2.05,-1.76,-2.21,2.56,2.56,2.55
29.48,4.65,2.08,4.65,2.08,-2.08,-1.79,-2.24,2.57,2.56,2.57
29.78,4.69,2.11,4.69,2.11,-2.12,-1.81,-2.26,2.57,2.57,2.58
30.08,4.73,2.14,4.73,2.14,-2.15,-1.84,-2.29,2.58,2.58,2.59
30.38,4.78,2.18,4.78,2.18,-2.19,-1.86,-2.30,2.59,2.59,2.60
30.68,4.83,2.23,4.83,2.23,-2.22,-1.89,-2.32,2.61,2.60,2.60
30.99,4.88,2.27,4.88,2.26,-2.26,-1.91,-2.33,2.62,2.62,2.61
31.30,4.92,2.30,4.92,2.30,-2.29,-1.94,-2.35,2.63,2.63,2.62
31.61,4.96,2.32,4.96,2.33,-2.32,-1.96,-2.35,2.64,2.64,2.64
31.93,5.00,2.36,5.00,2.36,-2.35,-1.99,-2.36,2.65,2.65,2.64
32.24,5.03,2.38,5.03,2.38,-2.38,-2.01,-2.36,2.65,2.65,2.65
32.57,5.06,2.40,5.06,2.40,-2.40,-2.04,-2.36,2.66,2.66,2.66
32.89,5.08,2.40,5.08,2.41,-2.41,-2.06,-2.36,2.67,2.67,2.68
33.22,5.10,2.43,5.10,2.42,-2.42,-2.08,-2.36,2.68,2.68,2.67
33.55,5.12,2.43,5.12,2.43,-2.43,-2.11,-2.35,2.69,2.69,2.69
33.89,5.14,2.45,5.14,2.44,-2.44,-2.13,-2.34,2.70,2.70,2.69
34.23,5.15,2.44,5.15,2.45,-2.45,-2.16,-2.33,2.70,2.70,2.71
34.57,5.16,2.45,5.16,2.45,-2.45,-2.18,-2.32,2.71,2.71,2.71
34.92,5.17,2.45,5.17,2.45,-2.45,-2.20,-2.31,2.72,2.71,2.72
35.27,5.17,2.45,5.17,2.46,-2.46,-2.23,-2.29,2.71,2.72,2.72
35.62,5.18,2.46,5.18,2.45,-2.45,-2.25,-2.28,2.73,2.72,2.72
35.97,5.18,2.46,5.18,2.45,-2.45,-2.27,-2.27,2.73,2.73,2.72
36.33,5.17,2.43,5.18,2.45,-2.44,-2.29,-2.25,2.73,2.73,2.74
36.70,5.17,2.43,5.17,2.44,-2.43,-2.32,-2.23,2.74,2.74,2.74
37.06,5.16,2.44,5.16,2.43,-2.42,-2.34,-2.22,2.74,2.74,2.72
37.43,5.14,2.41,5.14,2.41,-2.41,-2.36,-2.20,2.73,2.73,2.73
37.81,5.12,2.39,5.12,2.39,-2.39,-2.38,-2.19,2.73,2.73,2.73
38.19,5.10,2.38,5.10,2.37,-2.38,-2.40,-2.17,2.72,2.72,2.73
38.57,5.09,2.36,5.09,2.36,-2.37,-2.42,-2.16,2.72,2.72,2.73
38.95,5.07,2.35,5.07,2.35,-2.36,-2.44,-2.14,2.71,2.72,2.72
39.34,5.06,2.34,5.06,2.35,-2.35,-2.46,-2.13,2.71,2.72,2.72
39.74,5.05,2.35,5.05,2.34,-2.34,-2.48,-2.12,2.71,2.71,2.70
40.14,5.04,2.33,5.04,2.33,-2.33,-2.49,-2.11,2.71,2.71,2.71
40.54,5.02,2.32,5.02,2.32,-2.32,-2.51,-2.10,2.70,2.71,2.70
40.94,5.01,2.31,5.01,2.31,-2.31,-2.53,-2.09,2.70,2.70,2.70
41.35,5.00,2.30,5.00,2.30,-2.30,-2.54,-2.09,2.70,2.70,2.70
41.76,4.99,2.29,4.99,2.29,-2.29,-2.56,-2.08,2.70,2.70,2.70
42.18,4.98,2.28,4.98,2.28,-2.28,-2.57,-2.08,2.70,2.70,2.70
42.60,4.97,2.27,4.97,2.27,-2.27,-2.59,-2.08,2.70,2.70,2.70
43.03,4.96,2.26,4.96,2.26,-2.27,-2.60,-2.08,2.69,2.69,2.70
43.46,4.96,2.26,4.96,2.26,-2.27,-2.61,-2.08,2.69,2.69,2.70
43.90,4.96,2.27,4.96,2.26,-2.27,-2.62,-2.08,2.69,2.69,2.69
44.33,4.96,2.27,4.96,2.27,-2.27,-2.63,-2.09,2.69,2.69,2.69
44.78,4.96,2.27,4.96,2.27,-2.27,-2.64,-2.09,2.69,2.69,2.69
45.23,4.96,2.27,4.96,2.28,-2.27,-2.65,-2.10,2.69,2.69,2.69
45.68,4.97,2.29,4.97,2.28,-2.27,-2.66,-2.11,2.70,2.69,2.68
46.13,4.97,2.28,4.97,2.28,-2.28,-2.67,-2.12,2.69,2.70,2.69
46.60,4.98,2.28,4.98,2.29,-2.28,-2.68,-2.13,2.70,2.70,2.70
47.06,4.99,2.29,4.99,2.29,-2.29,-2.68,-2.15,2.70,2.70,2.70
47.53,5.00,2.30,5.00,2.29,-2.30,-2.69,-2.16,2.70,2.70,2.70
48.01,5.01,2.29,5.01,2.30,-2.31,-2.69,-2.18,2.70,2.70,2.72
48.49,5.02,2.31,5.02,2.32,-2.33,-2.69,-2.20,2.69,2.70,2.71
48.97,5.04,2.35,5.04,2.34,-2.35,-2.69,-2.22,2.69,2.69,2.69
49.46,5.06,2.38,5.06,2.38,-2.37,-2.70,-2.24,2.69,2.68,2.68
49.96,5.08,2.41,5.08,2.40,-2.40,-2.70,-2.26,2.68,2.68,2.67
50.46,5.10,2.42,5.10,2.43,-2.43,-2.70,-2.29,2.67,2.67,2.68
50.96,5.13,2.46,5.13,2.46,-2.46,-2.69,-2.31,2.67,2.67,2.67
51.47,5.15,2.50,5.15,2.49,-2.49,-2.69,-2.34,2.66,2.67,2.65
51.99,5.18,2.52,5.17,2.52,-2.51,-2.69,-2.36,2.67,2.66,2.66
52.51,5.19,2.53,5.19,2.54,-2.54,-2.68,-2.39,2.65,2.65,2.66
53.03,5.20,2.55,5.20,2.56,-2.56,-2.68,-2.41,2.64,2.65,2.65
53.56,5.21,2.57,5.21,2.57,-2.57,-2.67,-2.44,2.64,2.63,2.64
54.10,5.21,2.59,5.21,2.59,-2.59,-2.66,-2.46,2.62,2.62,2.62
54.64,5.20,2.59,5.21,2.60,-2.59,-2.66,-2.49,2.61,2.61,2.61
55.18,5.20,2.60,5.20,2.60,-2.60,-2.65,-2.51,2.60,2.60,2.60
55.74,5.19,2.61,5.19,2.60,-2.60,-2.64,-2.54,2.59,2.59,2.58
56.29,5.17,2.59,5.17,2.60,-2.60,-2.63,-2.56,2.57,2.57,2.58
56.86,5.15,2.60,5.15,2.60,-2.60,-2.62,-2.58,2.55,2.55,2.55
57.42,5.13,2.60,5.13,2.59,-2.59,-2.60,-2.60,2.54,2.54,2.53
58.00,5.10,2.58,5.10,2.58,-2.58,-2.59,-2.62,2.52,2.52,2.52
58.58,5.08,2.57,5.08,2.58,-2.58,-2.58,-2.63,2.50,2.51,2.51
59.16,5.07,2.58,5.07,2.57,-2.58,-2.56,-2.65,2.49,2.49,2.49
59.76,5.05,2.57,5.05,2.57,-2.58,-2.55,-2.66,2.47,2.47,2.48
60.35,5.03,2.57,5.03,2.57,-2.58,-2.53,-2.67,2.45,2.45,2.46
60.96,5.01,2.58,5.01,2.58,-2.59,-2.52,-2.67,2.42,2.42,2.43
61.57,4.99,2.59,4.99,2.59,-2.59,-2.50,-2.68,2.40,2.40,2.40
62.18,4.98,2.61,4.98,2.61,-2.60,-2.48,-2.68,2.38,2.37,2.37
62.80,4.96,2.61,4.96,2.62,-2.61,-2.46,-2.67,2.35,2.35,2.35
63.43,4.95,2.63,4.95,2.63,-2.62,-2.44,-2.67,2.33,2.33,2.32
64.07,4.93,2.64,4.93,2.64,-2.63,-2.42,-2.66,2.30,2.30,2.29
64.71,4.91,2.64,4.91,2.64,-2.64,-2.40,-2.65,2.27,2.27,2.27
65.35,4.89,2.64,4.89,2.64,-2.64,-2.38,-2.64,2.25,2.24,2.25
66.01,4.86,2.63,4.87,2.64,-2.65,-2.36,-2.62,2.21,2.22,2.23
66.67,4.85,2.65,4.85,2.65,-2.65,-2.34,-2.60,2.20,2.19,2.20
67.33,4.83,2.66,4.83,2.66,-2.66,-2.32,-2.58,2.17,2.17,2.17
68.01,4.81,2.66,4.81,2.67,-2.66,-2.29,-2.56,2.15,2.15,2.15
68.69,4.79,2.67,4.79,2.67,-2.67,-2.27,-2.54,2.12,2.12,2.12
69.37,4.77,2.67,4.77,2.67,-2.67,-2.25,-2.51,2.09,2.10,2.10
70.07,4.75,2.67,4.75,2.68,-2.68,-2.22,-2.48,2.07,2.07,2.08
70.77,4.73,2.68,4.73,2.68,-2.68,-2.20,-2.46,2.05,2.05,2.05
71.48,4.70,2.67,4.70,2.67,-2.67,-2.18,-2.43,2.03,2.03,2.03
72.19,4.67,2.66,4.67,2.66,-2.66,-2.15,-2.40,2.01,2.01,2.01
72.91,4.63,2.65,4.62,2.64,-2.64,-2.13,-2.37,1.99,1.99,1.98
73.64,4.57,2.61,4.58,2.62,-2.62,-2.10,-2.34,1.95,1.96,1.96
74.38,4.53,2.59,4.53,2.59,-2.58,-2.08,-2.30,1.95,1.94,1.94
75.12,4.48,2.55,4.48,2.55,-2.55,-2.05,-2.27,1.93,1.93,1.93
75.87,4.42,2.50,4.42,2.50,-2.51,-2.03,-2.24,1.91,1.92,1.92
76.63,4.36,2.46,4.36,2.46,-2.46,-2.00,-2.21,1.90,1.90,1.90
77.40,4.30,2.41,4.30,2.41,-2.41,-1.98,-2.19,1.89,1.89,1.89
78.17,4.24,2.36,4.24,2.35,-2.36,-1.95,-2.16,1.88,1.88,1.88
78.95,4.17,2.29,4.17,2.30,-2.30,-1.92,-2.13,1.87,1.87,1.88
79.74,4.11,2.24,4.11,2.24,-2.25,-1.90,-2.10,1.86,1.86,1.87
80.54,4.05,2.19,4.05,2.19,-2.19,-1.87,-2.08,1.86,1.85,1.86
81.35,3.98,2.13,3.98,2.14,-2.14,-1.85,-2.05,1.84,1.85,1.85
82.16,3.92,2.08,3.92,2.08,-2.08,-1.82,-2.03,1.84,1.84,1.84
82.98,3.85,2.02,3.85,2.02,-2.02,-1.80,-2.01,1.83,1.83,1.83
83.81,3.78,1.97,3.78,1.96,-1.96,-1.77,-1.99,1.82,1.82,1.81
84.65,3.70,1.89,3.70,1.89,-1.89,-1.74,-1.97,1.81,1.81,1.81
85.50,3.63,1.83,3.63,1.83,-1.83,-1.72,-1.95,1.80,1.80,1.80
86.35,3.55,1.76,3.55,1.76,-1.76,-1.69,-1.94,1.79,1.79,1.79
87.22,3.48,1.69,3.48,1.70,-1.70,-1.67,-1.92,1.78,1.78,1.79
88.09,3.41,1.64,3.41,1.63,-1.63,-1.64,-1.91,1.78,1.77,1.77
88.97,3.34,1.56,3.34,1.57,-1.57,-1.62,-1.90,1.77,1.77,1.78
89.86,3.27,1.51,3.27,1.51,-1.51,-1.60,-1.89,1.76,1.76,1.76
90.76,3.20,1.46,3.20,1.45,-1.45,-1.57,-1.88,1.75,1.75,1.74
91.66,3.13,1.38,3.13,1.39,-1.39,-1.55,-1.87,1.74,1.74,1.75
92.58,3.07,1.34,3.07,1.33,-1.33,-1.52,-1.87,1.74,1.74,1.73
93.51,3.00,1.27,3.00,1.27,-1.27,-1.50,-1.87,1.73,1.73,1.73
94.44,2.94,1.21,2.94,1.21,-1.21,-1.48,-1.86,1.72,1.72,1.73
95.39,2.87,1.15,2.87,1.16,-1.16,-1.46,-1.86,1.71,1.71,1.72
96.34,2.80,1.11,2.80,1.10,-1.10,-1.43,-1.86,1.70,1.70,1.69
97.30,2.73,1.05,2.74,1.06,-1.05,-1.41,-1.86,1.68,1.69,1.68
98.28,2.68,1.01,2.68,1.01,-1.00,-1.39,-1.87,1.68,1.67,1.67
99.26,2.62,0.97,2.61,0.96,-0.96,-1.37,-1.87,1.66,1.66,1.65
100.25,2.55,0.90,2.55,0.91,-0.91,-1.35,-1.87,1.64,1.63,1.64
101.25,2.48,0.85,2.49,0.86,-0.87,-1.33,-1.88,1.61,1.61,1.63
102.27,2.43,0.82,2.44,0.83,-0.83,-1.31,-1.88,1.60,1.60,1.61
103.29,2.39,0.81,2.39,0.81,-0.79,-1.29,-1.89,1.60,1.60,1.58
104.32,2.35,0.78,2.34,0.77,-0.76,-1.27,-1.90,1.59,1.58,1.57
105.37,2.27,0.73,2.27,0.73,-0.72,-1.26,-1.90,1.55,1.55,1.54
106.42,2.20,0.68,2.21,0.69,-0.69,-1.24,-1.91,1.51,1.52,1.52
107.48,2.14,0.65,2.14,0.65,-0.66,-1.22,-1.91,1.48,1.48,1.49
108.56,2.09,0.64,2.09,0.63,-0.64,-1.21,-1.92,1.45,1.44,1.45
109.64,2.04,0.62,2.04,0.62,-0.63,-1.20,-1.92,1.41,1.41,1.42
110.74,2.00,0.62,2.00,0.62,-0.62,-1.18,-1.93,1.38,1.38,1.38
111.85,1.97,0.62,1.97,0.62,-0.63,-1.17,-1.93,1.34,1.34,1.35
112.97,1.95,0.65,1.95,0.64,-0.64,-1.16,-1.93,1.31,1.31,1.30
114.10,1.94,0.67,1.93,0.67,-0.67,-1.15,-1.93,1.27,1.27,1.27
115.24,1.92,0.69,1.92,0.70,-0.70,-1.14,-1.92,1.22,1.22,1.23
116.39,1.91,0.73,1.91,0.73,-0.74,-1.13,-1.92,1.17,1.18,1.18
117.55,1.91,0.77,1.91,0.77,-0.77,-1.12,-1.91,1.14,1.13,1.14
118.73,1.91,0.82,1.91,0.82,-0.81,-1.12,-1.90,1.10,1.10,1.09
119.92,1.92,0.86,1.92,0.86,-0.85,-1.11,-1.89,1.07,1.07,1.06
121.12,1.93,0.91,1.93,0.91,-0.89,-1.11,-1.87,1.04,1.04,1.02
122.33,1.93,0.95,1.93,0.94,-0.93,-1.11,-1.85,1.00,1.00,0.98
123.55,1.92,0.96,1.92,0.96,-0.96,-1.11,-1.83,0.96,0.96,0.96
124.79,1.91,0.99,1.91,0.99,-1.00,-1.11,-1.81,0.91,0.91,0.92
126.03,1.90,1.01,1.91,1.02,-1.03,-1.11,-1.78,0.87,0.88,0.89
127.29,1.91,1.06,1.91,1.06,-1.07,-1.12,-1.75,0.84,0.84,0.85
128.57,1.92,1.11,1.92,1.10,-1.10,-1.12,-1.71,0.82,0.81,0.81
129.85,1.93,1.14,1.93,1.15,-1.15,-1.13,-1.67,0.78,0.79,0.79
131.15,1.96,1.21,1.95,1.20,-1.20,-1.15,-1.63,0.76,0.75,0.75
132.46,1.97,1.24,1.98,1.25,-1.25,-1.16,-1.59,0.72,0.73,0.73
133.79,2.00,1.29,2.01,1.30,-1.30,-1.18,-1.54,0.70,0.70,0.71
135.12,2.05,1.37,2.04,1.36,-1.36,-1.20,-1.49,0.69,0.68,0.68
136.48,2.07,1.41,2.08,1.42,-1.42,-1.22,-1.44,0.65,0.66,0.66
137.84,2.11,1.47,2.11,1.48,-1.48,-1.24,-1.39,0.63,0.63,0.64
139.22,2.14,1.54,2.14,1.54,-1.54,-1.27,-1.33,0.60,0.60,0.60
140.61,2.17,1.59,2.17,1.59,-1.59,-1.30,-1.27,0.58,0.58,0.58
142.02,2.21,1.64,2.21,1.65,-1.65,-1.34,-1.21,0.56,0.56,0.57
143.44,2.23,1.69,2.24,1.70,-1.70,-1.37,-1.14,0.53,0.54,0.54
144.87,2.27,1.76,2.26,1.75,-1.74,-1.41,-1.08,0.53,0.52,0.51
146.32,2.28,1.79,2.28,1.79,-1.78,-1.46,-1.01,0.50,0.50,0.49
147.78,2.29,1.82,2.29,1.82,-1.81,-1.50,-0.95,0.48,0.47,0.47
149.26,2.28,1.84,2.28,1.84,-1.84,-1.55,-0.88,0.44,0.44,0.44
150.75,2.26,1.85,2.27,1.85,-1.86,-1.59,-0.81,0.40,0.41,0.41
152.26,2.25,1.87,2.25,1.87,-1.87,-1.64,-0.74,0.38,0.38,0.38
153.78,2.22,1.87,2.22,1.88,-1.87,-1.69,-0.66,0.35,0.35,0.35
155.32,2.20,1.88,2.20,1.87,-1.87,-1.74,-0.59,0.33,0.32,0.32
156.88,2.16,1.86,2.16,1.87,-1.87,-1.78,-0.52,0.29,0.29,0.30
158.44,2.12,1.86,2.12,1.86,-1.87,-1.82,-0.44,0.25,0.25,0.26
160.03,2.07,1.85,2.08,1.85,-1.86,-1.86,-0.37,0.21,0.22,0.22
161.63,2.03,1.84,2.03,1.84,-1.84,-1.89,-0.30,0.19,0.19,0.19
163.24,1.99,1.84,1.98,1.83,-1.82,-1.92,-0.22,0.17,0.16,0.15
164.88,1.93,1.80,1.93,1.81,-1.80,-1.93,-0.14,0.13,0.14,0.13
166.53,1.87,1.78,1.87,1.77,-1.77,-1.94,-0.07,0.10,0.10,0.09
168.19,1.80,1.74,1.79,1.73,-1.74,-1.93,0.01,0.06,0.05,0.06
169.87,1.71,1.68,1.72,1.70,-1.71,-1.91,0.08,0.00,0.01,0.03
171.57,1.64,1.65,1.64,1.66,-1.67,-1.87,0.16,-0.03,-0.03,-0.01
173.29,1.58,1.64,1.57,1.62,-1.63,-1.83,0.24,-0.05,-0.07,-0.06
175.02,1.48,1.58,1.49,1.58,-1.59,-1.77,0.32,-0.11,-0.10,-0.10
176.77,1.39,1.53,1.39,1.54,-1.54,-1.69,0.39,-0.15,-0.14,-0.14
178.54,1.30,1.50,1.30,1.49,-1.48,-1.61,0.47,-0.18,-0.18,-0.20
180.32,1.19,1.43,1.19,1.43,-1.41,-1.51,0.55,-0.22,-0.22,-0.24
182.13,1.08,1.37,1.06,1.35,-1.33,-1.40,0.63,-0.25,-0.28,-0.29
183.95,0.89,1.23,0.91,1.25,-1.25,-1.29,0.71,-0.36,-0.34,-0.34
185.79,0.75,1.14,0.76,1.14,-1.15,-1.17,0.79,-0.40,-0.40,-0.39
187.65,0.61,1.05,0.60,1.04,-1.05,-1.04,0.87,-0.44,-0.45,-0.44
189.52,0.46,0.94,0.46,0.94,-0.94,-0.91,0.95,-0.48,-0.48,-0.48
191.42,0.31,0.83,0.31,0.83,-0.83,-0.77,1.03,-0.52,-0.52,-0.52
193.33,0.15,0.72,0.15,0.72,-0.72,-0.64,1.11,-0.57,-0.57,-0.57
195.27,-0.01,0.60,-0.01,0.60,-0.60,-0.50,1.19,-0.61,-0.61,-0.61
197.22,-0.18,0.48,-0.18,0.48,-0.48,-0.36,1.27,-0.66,-0.66,-0.66
199.19,-0.35,0.36,-0.34,0.36,-0.36,-0.23,1.35,-0.71,-0.70,-0.71
201.18,-0.50,0.25,-0.51,0.24,-0.24,-0.09,1.43,-0.74,-0.74,-0.75
203.19,-0.67,0.11,-0.67,0.11,-0.11,0.04,1.51,-0.78,-0.79,-0.78
205.23,-0.84,-0.02,-0.84,-0.02,0.01,0.18,1.59,-0.83,-0.82,-0.82
207.28,-1.01,-0.16,-1.00,-0.15,0.14,0.31,1.67,-0.87,-0.86,-0.85
209.35,-1.16,-0.26,-1.16,-0.26,0.27,0.44,1.74,-0.89,-0.90,-0.90
211.44,-1.32,-0.37,-1.33,-0.39,0.39,0.56,1.82,-0.93,-0.94,-0.95
213.56,-1.49,-0.51,-1.50,-0.52,0.51,0.69,1.90,-0.98,-0.98,-0.98
215.69,-1.67,-0.66,-1.66,-0.65,0.64,0.81,1.97,-1.03,-1.02,-1.01
217.85,-1.83,-0.79,-1.81,-0.77,0.76,0.94,2.05,-1.07,-1.05,-1.04
220.03,-1.94,-0.86,-1.96,-0.88,0.89,1.06,2.12,-1.05,-1.07,-1.08
222.23,-2.09,-0.98,-2.10,-1.00,1.02,1.18,2.19,-1.07,-1.09,-1.11
224.45,-2.27,-1.14,-2.27,-1.14,1.15,1.29,2.26,-1.12,-1.12,-1.13
226.70,-2.44,-1.30,-2.43,-1.29,1.28,1.41,2.32,-1.16,-1.16,-1.14
228.96,-2.60,-1.43,-2.58,-1.42,1.41,1.52,2.38,-1.19,-1.18,-1.17
231.25,-2.71,-1.53,-2.73,-1.55,1.54,1.64,2.44,-1.17,-1.19,-1.18
233.57,-2.86,-1.67,-2.86,-1.67,1.68,1.75,2.50,-1.18,-1.19,-1.19
235.90,-3.02,-1.82,-3.01,-1.81,1.82,1.87,2.55,-1.20,-1.19,-1.20
238.26,-3.15,-1.94,-3.16,-1.95,1.96,1.98,2.60,-1.19,-1.20,-1.21
240.64,-3.31,-2.10,-3.30,-2.09,2.10,2.09,2.65,-1.21,-1.19,-1.21
243.05,-3.44,-2.24,-3.45,-2.24,2.25,2.20,2.69,-1.19,-1.20,-1.20
245.48,-3.59,-2.38,-3.60,-2.40,2.40,2.31,2.73,-1.19,-1.21,-1.21
247.93,-3.78,-2.58,-3.76,-2.55,2.55,2.42,2.77,-1.23,-1.21,-1.20
250.41,-3.90,-2.69,-3.91,-2.71,2.69,2.53,2.80,-1.21,-1.22,-1.21
252.92,-4.05,-2.87,-4.04,-2.85,2.84,2.64,2.82,-1.21,-1.20,-1.18
255.45,-4.15,-2.98,-4.15,-2.98,2.98,2.75,2.85,-1.17,-1.18,-1.17
258.00,-4.26,-3.10,-4.27,-3.11,3.11,2.86,2.87,-1.15,-1.16,-1.16
260.58,-4.39,-3.23,-4.38,-3.23,3.24,2.97,2.88,-1.15,-1.15,-1.16
263.19,-4.49,-3.35,-4.50,-3.35,3.36,3.08,2.89,-1.13,-1.14,-1.14
265.82,-4.61,-3.48,-4.60,-3.47,3.47,3.19,2.90,-1.14,-1.13,-1.13
268.48,-4.69,-3.58,-4.69,-3.58,3.58,3.30,2.91,-1.11,-1.11,-1.11
271.16,-4.78,-3.69,-4.79,-3.69,3.69,3.41,2.91,-1.09,-1.10,-1.09
273.87,-4.88,-3.80,-4.87,-3.79,3.79,3.52,2.91,-1.09,-1.08,-1.09
276.61,-4.96,-3.89,-4.96,-3.89,3.89,3.62,2.91,-1.07,-1.07,-1.07
279.38,-5.03,-3.97,-5.03,-3.97,3.98,3.73,2.91,-1.05,-1.05,-1.06
282.17,-5.10,-4.06,-5.10,-4.06,4.06,3.83,2.90,-1.04,-1.04,-1.04
284.99,-5.17,-4.14,-5.17,-4.14,4.14,3.94,2.90,-1.03,-1.03,-1.03
287.84,-5.25,-4.23,-5.24,-4.22,4.22,4.04,2.89,-1.03,-1.02,-1.02
290.72,-5.30,-4.30,-5.30,-4.30,4.29,4.14,2.88,-1.01,-1.01,-1.00
293.63,-5.35,-4.35,-5.35,-4.36,4.35,4.24,2.87,-1.00,-1.00,-1.00
296.57,-5.39,-4.41,-5.39,-4.41,4.42,4.33,2.86,-0.97,-0.98,-0.98
299.53,-5.44,-4.47,-5.44,-4.47,4.48,4.42,2.86,-0.96,-0.96,-0.97
302.53,-5.49,-4.53,-5.49,-4.53,4.53,4.51,2.85,-0.96,-0.95,-0.96
305.55,-5.53,-4.59,-5.53,-4.58,4.59,4.60,2.84,-0.94,-0.95,-0.94
308.61,-5.57,-4.63,-5.57,-4.64,4.64,4.68,2.83,-0.93,-0.94,-0.94
311.69,-5.61,-4.69,-5.61,-4.69,4.68,4.75,2.83,-0.93,-0.92,-0.92
314.81,-5.64,-4.74,-5.64,-4.74,4.73,4.83,2.82,-0.91,-0.91,-0.90
317.96,-5.67,-4.78,-5.67,-4.78,4.78,4.89,2.82,-0.89,-0.89,-0.89
321.14,-5.70,-4.82,-5.70,-4.82,4.82,4.96,2.82,-0.88,-0.88,-0.88
324.35,-5.73,-4.85,-5.73,-4.86,4.86,5.01,2.82,-0.87,-0.87,-0.88
327.59,-5.77,-4.90,-5.76,-4.90,4.91,5.06,2.82,-0.86,-0.86,-0.87
330.87,-5.79,-4.93,-5.80,-4.93,4.94,5.10,2.83,-0.85,-0.85,-0.86
334.18,-5.82,-4.97,-5.83,-4.97,4.98,5.14,2.84,-0.84,-0.85,-0.85
337.52,-5.86,-5.01,-5.85,-5.01,5.00,5.17,2.84,-0.86,-0.85,-0.85
340.90,-5.87,-5.04,-5.87,-5.03,5.02,5.20,2.86,-0.85,-0.85,-0.83
344.30,-5.88,-5.04,-5.88,-5.05,5.03,5.21,2.87,-0.85,-0.85,-0.84
347.75,-5.87,-5.04,-5.87,-5.04,5.03,5.22,2.88,-0.84,-0.84,-0.83
351.23,-5.85,-5.02,-5.85,-5.02,5.01,5.22,2.90,-0.84,-0.84,-0.83
354.74,-5.81,-4.98,-5.82,-4.99,4.99,5.22,2.92,-0.82,-0.83,-0.83
358.28,-5.78,-4.96,-5.78,-4.95,4.96,5.20,2.94,-0.82,-0.82,-0.82
361.87,-5.74,-4.92,-5.74,-4.92,4.92,5.19,2.97,-0.82,-0.81,-0.82
365.49,-5.70,-4.88,-5.71,-4.88,4.89,5.16,3.00,-0.81,-0.82,-0.82
369.14,-5.67,-4.84,-5.67,-4.84,4.85,5.13,3.03,-0.82,-0.82,-0.83
372.83,-5.65,-4.82,-5.64,-4.81,4.82,5.09,3.06,-0.83,-0.83,-0.83
376.56,-5.61,-4.77,-5.62,-4.78,4.78,5.04,3.09,-0.83,-0.83,-0.84
380.33,-5.59,-4.76,-5.59,-4.76,4.76,4.99,3.13,-0.83,-0.84,-0.83
384.13,-5.57,-4.73,-5.57,-4.73,4.73,4.94,3.16,-0.84,-0.84,-0.84
387.97,-5.55,-4.71,-5.55,-4.71,4.71,4.88,3.20,-0.84,-0.84,-0.84
391.85,-5.52,-4.67,-5.52,-4.68,4.68,4.82,3.25,-0.84,-0.84,-0.85
395.77,-5.50,-4.66,-5.50,-4.66,4.66,4.75,3.29,-0.84,-0.84,-0.84
399.73,-5.48,-4.63,-5.48,-4.63,4.64,4.67,3.33,-0.84,-0.84,-0.85
403.72,-5.47,-4.62,-5.46,-4.61,4.61,4.60,3.38,-0.86,-0.85,-0.85
407.76,-5.44,-4.59,-5.44,-4.59,4.58,4.52,3.42,-0.86,-0.86,-0.85
411.84,-5.40,-4.56,-5.40,-4.56,4.55,4.44,3.47,-0.85,-0.86,-0.84
415.96,-5.36,-4.52,-5.36,-4.52,4.50,4.36,3.52,-0.86,-0.85,-0.84
420.12,-5.31,-4.47,-5.31,-4.47,4.45,4.28,3.57,-0.86,-0.85,-0.84
424.32,-5.25,-4.41,-5.25,-4.40,4.40,4.19,3.61,-0.85,-0.85,-0.84
428.56,-5.19,-4.33,-5.19,-4.33,4.34,4.10,3.66,-0.85,-0.85,-0.86
432.85,-5.12,-4.26,-5.12,-4.27,4.27,4.02,3.70,-0.85,-0.85,-0.86
437.18,-5.05,-4.19,-5.05,-4.20,4.21,3.93,3.75,-0.84,-0.85,-0.86
441.55,-4.99,-4.14,-4.99,-4.13,4.14,3.84,3.79,-0.85,-0.85,-0.85
445.96,-4.92,-4.07,-4.92,-4.07,4.07,3.75,3.83,-0.85,-0.85,-0.85
450.42,-4.85,-3.99,-4.86,-4.01,4.00,3.66,3.86,-0.85,-0.85,-0.86
454.93,-4.79,-3.94,-4.79,-3.93,3.93,3.57,3.90,-0.86,-0.85,-0.85
459.48,-4.72,-3.87,-4.72,-3.87,3.87,3.49,3.93,-0.85,-0.85,-0.85
464.07,-4.64,-3.79,-4.65,-3.80,3.80,3.40,3.95,-0.84,-0.85,-0.85
468.71,-4.58,-3.74,-4.57,-3.72,3.73,3.31,3.97,-0.85,-0.84,-0.84
473.40,-4.49,-3.64,-4.50,-3.65,3.66,3.23,3.99,-0.83,-0.84,-0.85
478.13,-4.42,-3.58,-4.43,-3.58,3.59,3.14,4.00,-0.83,-0.84,-0.84
482.91,-4.36,-3.52,-4.35,-3.51,3.51,3.06,4.00,-0.85,-0.84,-0.84
487.74,-4.28,-3.44,-4.28,-3.44,3.43,2.98,4.00,-0.85,-0.84,-0.84
492.62,-4.19,-3.36,-4.20,-3.36,3.35,2.90,3.99,-0.84,-0.84,-0.83
497.55,-4.11,-3.27,-4.11,-3.27,3.27,2.82,3.98,-0.84,-0.84,-0.84
502.52,-4.02,-3.19,-4.02,-3.18,3.18,2.74,3.96,-0.84,-0.84,-0.83
507.55,-3.93,-3.09,-3.93,-3.09,3.09,2.66,3.93,-0.84,-0.84,-0.84
512.62,-3.83,-2.99,-3.83,-2.99,2.99,2.58,3.90,-0.84,-0.84,-0.84
