frequency,raw,error,smoothed,error_smoothed,equalization,parametric_eq,fixed_band_eq,equalized_raw,equalized_smoothed,target
20.00,6.07,10.75,6.07,10.75,-10.74,-11.22,-3.87,-4.68,-4.68,-4.68
20.20,6.01,10.71,6.01,10.71,-10.71,-11.15,-3.97,-4.70,-4.70,-4.70
20.40,5.95,10.68,5.95,10.67,-10.68,-11.07,-4.08,-4.73,-4.73,-4.73
20.61,5.89,10.64,5.89,10.64,-10.64,-10.99,-4.19,-4.75,-4.75,-4.75
20.81,5.83,10.60,5.83,10.60,-10.60,-10.91,-4.30,-4.77,-4.77,-4.77
21.02,5.77,10.57,5.77,10.56,-10.56,-10.84,-4.42,-4.79,-4.79,-4.80
21.23,5.71,10.53,5.71,10.52,-10.52,-10.76,-4.54,-4.81,-4.81,-4.82
21.44,5.64,10.48,5.64,10.48,-10.47,-10.68,-4.66,-4.84,-4.83,-4.84
21.66,5.57,10.43,5.57,10.43,-10.43,-10.60,-4.79,-4.86,-4.86,-4.86
21.87,5.50,10.38,5.50,10.38,-10.38,-10.52,-4.92,-4.88,-4.88,-4.88
22.09,5.43,10.33,5.43,10.33,-10.33,-10.44,-5.05,-4.90,-4.90,-4.90
22.31,5.36,10.28,5.36,10.28,-10.28,-10.36,-5.19,-4.92,-4.92,-4.92
22.54,5.28,10.23,5.28,10.23,-10.23,-10.28,-5.33,-4.95,-4.94,-4.95
22.76,5.21,10.18,5.21,10.17,-10.17,-10.20,-5.48,-4.96,-4.97,-4.97
22.99,5.13,10.12,5.13,10.12,-10.12,-10.12,-5.63,-4.99,-4.99,-4.99
23.22,5.05,10.06,5.05,10.06,-10.06,-10.04,-5.78,-5.01,-5.01,-5.01
23.45,4.98,10.00,4.98,10.00,-10.00,-9.96,-5.93,-5.02,-5.02,-5.02
23.69,4.90,9.94,4.90,9.94,-9.94,-9.88,-6.09,-5.04,-5.03,-5.04
23.92,4.83,9.88,4.82,9.88,-9.87,-9.80,-6.26,-5.05,-5.05,-5.05
24.16,4.75,9.82,4.75,9.81,-9.81,-9.72,-6.42,-5.06,-5.07,-5.07
24.40,4.66,9.74,4.67,9.74,-9.75,-9.64,-6.59,-5.09,-5.08,-5.08
24.65,4.59,9.68,4.59,9.68,-9.68,-9.56,-6.77,-5.09,-5.09,-5.09
24.89,4.51,9.62,4.51,9.61,-9.61,-9.47,-6.94,-5.10,-5.11,-5.11
25.14,4.43,9.55,4.43,9.55,-9.55,-9.39,-7.12,-5.12,-5.12,-5.12
25.39,4.35,9.48,4.35,9.48,-9.48,-9.31,-7.30,-5.13,-5.13,-5.13
25.65,4.27,9.41,4.27,9.41,-9.41,-9.23,-7.48,-5.14,-5.14,-5.14
25.91,4.19,9.34,4.19,9.34,-9.34,-9.15,-7.67,-5.15,-5.15,-5.15
26.16,4.11,9.27,4.11,9.27,-9.27,-9.06,-7.85,-5.16,-5.16,-5.16
26.43,4.02,9.20,4.02,9.20,-9.20,-8.98,-8.04,-5.18,-5.17,-5.18
26.69,3.94,9.13,3.94,9.12,-9.12,-8.90,-8.22,-5.18,-5.18,-5.19
26.96,3.85,9.05,3.85,9.05,-9.04,-8.82,-8.40,-5.19,-5.19,-5.20
27.23,3.76,8.97,3.76,8.97,-8.97,-8.73,-8.58,-5.21,-5.21,-5.21
27.50,3.67,8.89,3.67,8.88,-8.88,-8.65,-8.76,-5.21,-5.21,-5.22
27.77,3.58,8.80,3.58,8.80,-8.80,-8.57,-8.93,-5.22,-5.22,-5.22
28.05,3.49,8.72,3.49,8.71,-8.72,-8.48,-9.10,-5.23,-5.23,-5.23
28.33,3.39,8.63,3.40,8.63,-8.63,-8.40,-9.26,-5.24,-5.23,-5.24
28.62,3.31,8.55,3.30,8.54,-8.54,-8.31,-9.41,-5.23,-5.24,-5.24
28.90,3.21,8.46,3.21,8.45,-8.46,-8.23,-9.54,-5.25,-5.25,-5.25
29.19,3.11,8.36,3.12,8.37,-8.37,-8.15,-9.67,-5.26,-5.25,-5.25
29.48,3.03,8.29,3.03,8.28,-8.28,-8.06,-9.78,-5.25,-5.26,-5.26
29.78,2.94,8.20,2.93,8.19,-8.19,-7.98,-9.88,-5.25,-5.26,-5.26
30.08,2.84,8.11,2.84,8.11,-8.11,-7.89,-9.96,-5.27,-5.27,-5.27
30.38,2.74,8.01,2.75,8.02,-8.02,-7.81,-10.03,-5.28,-5.27,-5.27
30.68,2.65,7.93,2.65,7.93,-7.93,-7.72,-10.06,-5.28,-5.28,-5.28
30.99,2.56,7.85,2.55,7.84,-7.83,-7.64,-10.09,-5.27,-5.28,-5.29
31.30,2.45,7.74,2.45,7.75,-7.74,-7.56,-10.09,-5.29,-5.29,-5.29
31.61,2.35,7.65,2.35,7.65,-7.65,-7.47,-10.08,-5.30,-5.30,-5.30
31.93,2.25,7.56,2.25,7.55,-7.55,-7.39,-10.04,-5.30,-5.30,-5.31
32.24,2.14,7.45,2.14,7.45,-7.45,-7.30,-9.99,-5.32,-5.31,-5.31
32.57,2.04,7.36,2.04,7.36,-7.36,-7.22,-9.91,-5.32,-5.32,-5.32
32.89,1.93,7.26,1.93,7.26,-7.26,-7.13,-9.82,-5.33,-5.33,-5.33
33.22,1.83,7.17,1.83,7.16,-7.17,-7.04,-9.71,-5.34,-5.34,-5.34
33.55,1.72,7.07,1.72,7.07,-7.07,-6.96,-9.59,-5.35,-5.35,-5.35
33.89,1.62,6.98,1.62,6.98,-6.97,-6.87,-9.45,-5.36,-5.35,-5.36
34.23,1.52,6.89,1.52,6.88,-6.88,-6.79,-9.30,-5.36,-5.36,-5.37
34.57,1.42,6.79,1.42,6.79,-6.78,-6.70,-9.14,-5.37,-5.37,-5.37
34.92,1.31,6.69,1.31,6.69,-6.69,-6.62,-8.98,-5.38,-5.38,-5.38
35.27,1.21,6.60,1.21,6.59,-6.60,-6.53,-8.80,-5.39,-5.39,-5.39
35.62,1.11,6.50,1.11,6.50,-6.50,-6.45,-8.62,-5.39,-5.39,-5.39
35.97,1.01,6.41,1.01,6.41,-6.41,-6.36,-8.44,-5.40,-5.40,-5.40
36.33,0.92,6.32,0.92,6.32,-6.32,-6.28,-8.25,-5.40,-5.40,-5.40
36.70,0.82,6.23,0.82,6.23,-6.23,-6.19,-8.06,-5.41,-5.41,-5.41
37.06,0.73,6.15,0.73,6.14,-6.14,-6.11,-7.87,-5.41,-5.41,-5.42
37.43,0.63,6.05,0.63,6.05,-6.05,-6.02,-7.67,-5.42,-5.42,-5.42
37.81,0.53,5.96,0.53,5.96,-5.96,-5.94,-7.48,-5.43,-5.43,-5.43
38.19,0.44,5.87,0.44,5.87,-5.87,-5.85,-7.29,-5.43,-5.43,-5.43
38.57,0.34,5.78,0.34,5.78,-5.78,-5.77,-7.10,-5.44,-5.44,-5.44
38.95,0.25,5.69,0.25,5.69,-5.69,-5.68,-6.92,-5.44,-5.44,-5.44
39.34,0.15,5.60,0.15,5.60,-5.60,-5.60,-6.73,-5.45,-5.44,-5.45
39.74,0.06,5.51,0.06,5.51,-5.50,-5.51,-6.55,-5.45,-5.45,-5.45
40.14,-0.04,5.42,-0.04,5.41,-5.42,-5.43,-6.37,-5.45,-5.46,-5.46
40.54,-0.14,5.32,-0.14,5.32,-5.33,-5.34,-6.19,-5.47,-5.46,-5.46
40.94,-0.23,5.24,-0.23,5.23,-5.24,-5.26,-6.02,-5.47,-5.47,-5.47
41.35,-0.32,5.15,-0.32,5.15,-5.15,-5.17,-5.85,-5.47,-5.47,-5.47
41.76,-0.41,5.07,-0.41,5.06,-5.06,-5.09,-5.68,-5.47,-5.47,-5.48
42.18,-0.50,4.98,-0.50,4.97,-4.97,-5.00,-5.52,-5.48,-5.48,-5.48
42.60,-0.60,4.89,-0.60,4.89,-4.89,-4.92,-5.36,-5.49,-5.49,-5.49
43.03,-0.69,4.80,-0.69,4.80,-4.80,-4.84,-5.20,-5.49,-5.49,-5.49
43.46,-0.78,4.72,-0.78,4.71,-4.71,-4.75,-5.05,-5.50,-5.50,-5.50
43.90,-0.87,4.63,-0.87,4.63,-4.63,-4.67,-4.90,-5.50,-5.50,-5.50
44.33,-0.96,4.54,-0.96,4.54,-4.54,-4.59,-4.75,-5.50,-5.50,-5.50
44.78,-1.05,4.46,-1.05,4.45,-4.45,-4.50,-4.61,-5.50,-5.51,-5.51
45.23,-1.14,4.37,-1.14,4.37,-4.37,-4.42,-4.47,-5.51,-5.51,-5.51
45.68,-1.23,4.28,-1.23,4.28,-4.28,-4.34,-4.33,-5.51,-5.51,-5.51
46.13,-1.31,4.20,-1.31,4.19,-4.19,-4.25,-4.20,-5.50,-5.51,-5.51
46.60,-1.40,4.11,-1.40,4.11,-4.10,-4.17,-4.07,-5.50,-5.51,-5.51
47.06,-1.49,4.02,-1.49,4.02,-4.02,-4.09,-3.94,-5.51,-5.51,-5.51
47.53,-1.58,3.93,-1.58,3.93,-3.93,-4.01,-3.82,-5.51,-5.51,-5.51
48.01,-1.67,3.84,-1.67,3.84,-3.84,-3.93,-3.70,-5.51,-5.51,-5.51
48.49,-1.75,3.76,-1.75,3.75,-3.75,-3.84,-3.58,-5.50,-5.51,-5.51
48.97,-1.84,3.67,-1.84,3.66,-3.67,-3.76,-3.47,-5.51,-5.51,-5.51
49.46,-1.93,3.58,-1.93,3.58,-3.58,-3.68,-3.36,-5.51,-5.51,-5.51
49.96,-2.02,3.49,-2.01,3.49,-3.49,-3.60,-3.25,-5.51,-5.51,-5.51
50.46,-2.09,3.42,-2.10,3.41,-3.41,-3.52,-3.14,-5.50,-5.51,-5.51
50.96,-2.18,3.33,-2.18,3.33,-3.32,-3.44,-3.04,-5.51,-5.51,-5.51
51.47,-2.27,3.24,-2.27,3.24,-3.24,-3.36,-2.93,-5.51,-5.51,-5.51
51.99,-2.35,3.16,-2.35,3.15,-3.16,-3.28,-2.84,-5.51,-5.51,-5.51
52.51,-2.44,3.07,-2.44,3.07,-3.07,-3.20,-2.74,-5.51,-5.51,-5.51
53.03,-2.52,2.99,-2.52,2.99,-2.99,-3.12,-2.64,-5.51,-5.51,-5.51
53.56,-2.60,2.91,-2.60,2.91,-2.91,-3.05,-2.55,-5.51,-5.51,-5.51
54.10,-2.68,2.83,-2.68,2.82,-2.82,-2.97,-2.46,-5.50,-5.51,-5.51
54.64,-2.77,2.74,-2.77,2.74,-2.74,-2.89,-2.37,-5.51,-5.51,-5.51
55.18,-2.85,2.66,-2.85,2.66,-2.66,-2.81,-2.29,-5.51,-5.51,-5.51
55.74,-2.93,2.58,-2.93,2.58,-2.58,-2.73,-2.20,-5.51,-5.51,-5.51
56.29,-3.01,2.50,-3.01,2.50,-2.50,-2.66,-2.12,-5.51,-5.51,-5.51
56.86,-3.09,2.42,-3.09,2.42,-2.41,-2.58,-2.04,-5.50,-5.50,-5.51
57.42,-3.17,2.34,-3.17,2.33,-2.33,-2.50,-1.96,-5.50,-5.50,-5.51
58.00,-3.25,2.25,-3.25,2.25,-2.25,-2.43,-1.88,-5.50,-5.50,-5.50
58.58,-3.34,2.16,-3.34,2.16,-2.16,-2.35,-1.81,-5.51,-5.50,-5.50
59.16,-3.41,2.09,-3.42,2.08,-2.08,-2.27,-1.73,-5.49,-5.50,-5.50
59.76,-3.50,2.00,-3.50,2.00,-2.00,-2.20,-1.66,-5.50,-5.49,-5.50
60.35,-3.57,1.92,-3.58,1.91,-1.92,-2.12,-1.59,-5.49,-5.49,-5.49
60.96,-3.66,1.83,-3.66,1.83,-1.83,-2.05,-1.52,-5.49,-5.49,-5.49
61.57,-3.74,1.75,-3.74,1.75,-1.75,-1.97,-1.45,-5.49,-5.49,-5.49
62.18,-3.81,1.68,-3.82,1.67,-1.67,-1.90,-1.38,-5.48,-5.49,-5.49
62.80,-3.89,1.60,-3.89,1.59,-1.59,-1.82,-1.32,-5.48,-5.48,-5.49
63.43,-3.97,1.51,-3.97,1.51,-1.51,-1.75,-1.25,-5.48,-5.48,-5.48
64.07,-4.05,1.43,-4.05,1.43,-1.43,-1.67,-1.19,-5.48,-5.48,-5.48
64.71,-4.12,1.36,-4.13,1.35,-1.35,-1.60,-1.13,-5.48,-5.48,-5.48
65.35,-4.20,1.28,-4.20,1.28,-1.28,-1.53,-1.07,-5.48,-5.48,-5.48
66.01,-4.28,1.20,-4.28,1.20,-1.20,-1.45,-1.01,-5.48,-5.48,-5.48
66.67,-4.35,1.13,-4.35,1.13,-1.13,-1.38,-0.95,-5.48,-5.48,-5.48
67.33,-4.42,1.06,-4.42,1.05,-1.05,-1.31,-0.89,-5.47,-5.48,-5.48
68.01,-4.50,0.98,-4.50,0.98,-0.98,-1.23,-0.83,-5.48,-5.48,-5.48
68.69,-4.57,0.91,-4.57,0.90,-0.90,-1.16,-0.78,-5.47,-5.48,-5.48
69.37,-4.65,0.83,-4.65,0.83,-0.83,-1.09,-0.72,-5.48,-5.48,-5.48
70.07,-4.72,0.76,-4.72,0.76,-0.76,-1.01,-0.67,-5.48,-5.48,-5.48
70.77,-4.79,0.69,-4.79,0.69,-0.68,-0.94,-0.61,-5.48,-5.48,-5.48
71.48,-4.86,0.62,-4.86,0.61,-0.61,-0.87,-0.56,-5.47,-5.48,-5.48
72.19,-4.94,0.54,-4.94,0.54,-0.54,-0.80,-0.50,-5.48,-5.48,-5.48
72.91,-5.01,0.47,-5.01,0.47,-0.47,-0.72,-0.45,-5.48,-5.48,-5.48
73.64,-5.08,0.41,-5.08,0.40,-0.40,-0.65,-0.40,-5.48,-5.48,-5.49
74.38,-5.15,0.34,-5.15,0.34,-0.33,-0.58,-0.34,-5.49,-5.49,-5.49
75.12,-5.22,0.27,-5.22,0.27,-0.27,-0.51,-0.29,-5.49,-5.49,-5.49
75.87,-5.29,0.21,-5.29,0.20,-0.20,-0.44,-0.24,-5.50,-5.50,-5.50
76.63,-5.36,0.14,-5.36,0.14,-0.14,-0.36,-0.19,-5.50,-5.50,-5.50
77.40,-5.43,0.08,-5.43,0.08,-0.08,-0.29,-0.13,-5.51,-5.51,-5.51
78.17,-5.49,0.03,-5.50,0.02,-0.02,-0.22,-0.08,-5.51,-5.52,-5.52
78.95,-5.56,-0.03,-5.56,-0.03,0.03,-0.15,-0.03,-5.53,-5.53,-5.53
79.74,-5.63,-0.09,-5.63,-0.09,0.09,-0.08,0.02,-5.54,-5.54,-5.54
80.54,-5.69,-0.14,-5.69,-0.14,0.14,-0.01,0.08,-5.55,-5.55,-5.55
81.35,-5.75,-0.19,-5.75,-0.19,0.20,0.07,0.13,-5.56,-5.56,-5.56
82.16,-5.81,-0.24,-5.81,-0.25,0.25,0.14,0.19,-5.56,-5.57,-5.57
82.98,-5.88,-0.30,-5.88,-0.30,0.30,0.21,0.24,-5.58,-5.58,-5.58
83.81,-5.94,-0.35,-5.94,-0.35,0.35,0.28,0.29,-5.59,-5.59,-5.59
84.65,-6.01,-0.40,-6.01,-0.40,0.40,0.35,0.35,-5.61,-5.60,-5.61
85.50,-6.07,-0.45,-6.07,-0.46,0.46,0.42,0.41,-5.61,-5.61,-5.62
86.35,-6.13,-0.51,-6.13,-0.51,0.51,0.49,0.46,-5.62,-5.62,-5.62
87.22,-6.19,-0.56,-6.19,-0.56,0.56,0.56,0.52,-5.63,-5.63,-5.63
88.09,-6.25,-0.61,-6.25,-0.61,0.61,0.63,0.58,-5.64,-5.64,-5.64
88.97,-6.31,-0.66,-6.31,-0.66,0.67,0.70,0.63,-5.64,-5.64,-5.65
89.86,-6.37,-0.71,-6.37,-0.72,0.72,0.77,0.69,-5.65,-5.65,-5.66
90.76,-6.43,-0.77,-6.43,-0.77,0.77,0.84,0.75,-5.66,-5.66,-5.66
91.66,-6.49,-0.82,-6.49,-0.83,0.82,0.91,0.81,-5.67,-5.67,-5.67
92.58,-6.55,-0.88,-6.55,-0.88,0.88,0.98,0.87,-5.68,-5.67,-5.67
93.51,-6.61,-0.93,-6.60,-0.93,0.93,1.05,0.93,-5.68,-5.68,-5.68
94.44,-6.65,-0.97,-6.66,-0.98,0.98,1.12,0.99,-5.67,-5.68,-5.68
95.39,-6.71,-1.02,-6.71,-1.03,1.03,1.19,1.06,-5.68,-5.68,-5.69
96.34,-6.77,-1.08,-6.77,-1.08,1.08,1.26,1.12,-5.69,-5.69,-5.69
97.30,-6.83,-1.13,-6.83,-1.13,1.13,1.33,1.18,-5.70,-5.70,-5.70
98.28,-6.88,-1.18,-6.88,-1.18,1.18,1.40,1.25,-5.70,-5.71,-5.70
99.26,-6.94,-1.23,-6.94,-1.23,1.23,1.47,1.31,-5.72,-5.71,-5.71
100.25,-6.99,-1.27,-6.99,-1.27,1.27,1.53,1.38,-5.72,-5.72,-5.72
101.25,-7.04,-1.31,-7.05,-1.32,1.32,1.60,1.44,-5.72,-5.73,-5.73
102.27,-7.10,-1.36,-7.10,-1.36,1.36,1.67,1.50,-5.74,-5.73,-5.74
103.29,-7.15,-1.40,-7.15,-1.40,1.41,1.74,1.57,-5.74,-5.74,-5.75
104.32,-7.20,-1.44,-7.21,-1.45,1.45,1.80,1.63,-5.75,-5.76,-5.76
105.37,-7.26,-1.49,-7.26,-1.49,1.49,1.87,1.70,-5.77,-5.77,-5.77
106.42,-7.32,-1.54,-7.32,-1.54,1.54,1.94,1.76,-5.78,-5.78,-5.78
107.48,-7.37,-1.58,-7.37,-1.58,1.58,2.00,1.83,-5.79,-5.79,-5.79
108.56,-7.42,-1.62,-7.42,-1.62,1.62,2.07,1.89,-5.80,-5.80,-5.80
109.64,-7.47,-1.66,-7.47,-1.66,1.66,2.14,1.95,-5.81,-5.81,-5.81
110.74,-7.52,-1.70,-7.52,-1.70,1.70,2.20,2.01,-5.82,-5.82,-5.82
111.85,-7.57,-1.74,-7.57,-1.74,1.74,2.27,2.07,-5.83,-5.83,-5.83
112.97,-7.62,-1.78,-7.62,-1.79,1.78,2.33,2.13,-5.84,-5.84,-5.84
114.10,-7.68,-1.83,-7.67,-1.83,1.82,2.39,2.19,-5.86,-5.85,-5.85
115.24,-7.72,-1.86,-7.72,-1.87,1.87,2.46,2.24,-5.85,-5.86,-5.86
116.39,-7.77,-1.90,-7.78,-1.91,1.91,2.52,2.29,-5.86,-5.87,-5.87
117.55,-7.83,-1.95,-7.83,-1.95,1.95,2.58,2.35,-5.88,-5.88,-5.88
118.73,-7.88,-1.99,-7.88,-1.99,2.00,2.64,2.39,-5.89,-5.88,-5.89
119.92,-7.93,-2.04,-7.93,-2.04,2.04,2.70,2.44,-5.89,-5.89,-5.89
121.12,-7.98,-2.08,-7.98,-2.09,2.09,2.76,2.48,-5.89,-5.89,-5.90
122.33,-8.03,-2.13,-8.03,-2.13,2.13,2.82,2.52,-5.90,-5.90,-5.90
123.55,-8.09,-2.18,-8.09,-2.18,2.18,2.88,2.56,-5.91,-5.91,-5.91
124.79,-8.14,-2.23,-8.14,-2.23,2.23,2.94,2.60,-5.91,-5.91,-5.91
126.03,-8.19,-2.27,-8.19,-2.28,2.27,3.00,2.63,-5.92,-5.92,-5.92
127.29,-8.24,-2.32,-8.24,-2.32,2.32,3.06,2.66,-5.92,-5.92,-5.92
128.57,-8.29,-2.37,-8.29,-2.37,2.37,3.11,2.69,-5.92,-5.92,-5.92
129.85,-8.34,-2.41,-8.34,-2.42,2.42,3.17,2.72,-5.92,-5.92,-5.93
131.15,-8.39,-2.46,-8.39,-2.46,2.47,3.22,2.74,-5.93,-5.92,-5.93
132.46,-8.44,-2.51,-8.44,-2.51,2.52,3.28,2.76,-5.93,-5.93,-5.93
133.79,-8.49,-2.56,-8.49,-2.57,2.57,3.33,2.78,-5.92,-5.93,-5.93
135.12,-8.55,-2.62,-8.55,-2.62,2.62,3.38,2.80,-5.93,-5.93,-5.93
136.48,-8.60,-2.67,-8.60,-2.67,2.67,3.44,2.82,-5.93,-5.93,-5.93
137.84,-8.65,-2.73,-8.65,-2.73,2.73,3.49,2.83,-5.92,-5.92,-5.92
139.22,-8.70,-2.78,-8.70,-2.78,2.78,3.54,2.85,-5.92,-5.92,-5.92
140.61,-8.76,-2.84,-8.75,-2.84,2.84,3.58,2.86,-5.92,-5.91,-5.92
142.02,-8.80,-2.89,-8.81,-2.90,2.90,3.63,2.88,-5.90,-5.91,-5.91
143.44,-8.86,-2.96,-8.86,-2.96,2.96,3.68,2.89,-5.90,-5.90,-5.90
144.87,-8.91,-3.01,-8.91,-3.02,3.02,3.73,2.90,-5.90,-5.89,-5.90
146.32,-8.96,-3.07,-8.96,-3.08,3.08,3.77,2.91,-5.89,-5.89,-5.89
147.78,-9.02,-3.14,-9.02,-3.14,3.14,3.81,2.93,-5.88,-5.88,-5.88
149.26,-9.07,-3.19,-9.07,-3.20,3.20,3.86,2.94,-5.87,-5.88,-5.88
150.75,-9.13,-3.26,-9.13,-3.26,3.26,3.90,2.95,-5.87,-5.87,-5.87
152.26,-9.19,-3.33,-9.19,-3.33,3.33,3.94,2.97,-5.86,-5.86,-5.86
153.78,-9.24,-3.39,-9.24,-3.40,3.40,3.98,2.99,-5.84,-5.85,-5.85
155.32,-9.30,-3.46,-9.30,-3.46,3.47,4.02,3.01,-5.84,-5.84,-5.84
156.88,-9.36,-3.53,-9.36,-3.53,3.54,4.05,3.03,-5.82,-5.83,-5.83
158.44,-9.43,-3.61,-9.43,-3.61,3.61,4.09,3.05,-5.82,-5.82,-5.82
160.03,-9.49,-3.68,-9.49,-3.69,3.68,4.12,3.07,-5.81,-5.81,-5.81
161.63,-9.56,-3.76,-9.56,-3.76,3.76,4.16,3.10,-5.80,-5.80,-5.80
163.24,-9.63,-3.84,-9.63,-3.84,3.84,4.19,3.12,-5.79,-5.79,-5.79
164.88,-9.69,-3.91,-9.70,-3.92,3.92,4.22,3.16,-5.77,-5.78,-5.78
166.53,-9.77,-4.00,-9.77,-4.00,4.01,4.25,3.19,-5.77,-5.77,-5.77
168.19,-9.85,-4.09,-9.85,-4.09,4.09,4.28,3.22,-5.76,-5.76,-5.76
169.87,-9.94,-4.19,-9.94,-4.19,4.19,4.30,3.26,-5.76,-5.75,-5.75
171.57,-10.02,-4.27,-10.02,-4.28,4.28,4.33,3.30,-5.74,-5.74,-5.75
173.29,-10.12,-4.38,-10.12,-4.38,4.39,4.35,3.34,-5.73,-5.73,-5.74
175.02,-10.21,-4.48,-10.22,-4.48,4.50,4.38,3.39,-5.71,-5.72,-5.73
176.77,-10.32,-4.59,-10.32,-4.60,4.61,4.40,3.44,-5.71,-5.71,-5.73
178.54,-10.43,-4.71,-10.43,-4.71,4.72,4.42,3.49,-5.71,-5.71,-5.72
180.32,-10.54,-4.82,-10.55,-4.83,4.83,4.44,3.54,-5.71,-5.71,-5.72
182.13,-10.66,-4.94,-10.66,-4.94,4.94,4.46,3.60,-5.72,-5.72,-5.72
183.95,-10.76,-5.04,-10.76,-5.04,5.03,4.47,3.66,-5.73,-5.73,-5.72
185.79,-10.84,-5.12,-10.85,-5.13,5.11,4.49,3.72,-5.73,-5.74,-5.72
187.65,-10.91,-5.19,-10.91,-5.19,5.17,4.50,3.78,-5.74,-5.74,-5.72
189.52,-10.95,-5.23,-10.94,-5.23,5.20,4.51,3.85,-5.75,-5.74,-5.72
191.42,-10.95,-5.23,-10.95,-5.24,5.22,4.53,3.92,-5.73,-5.74,-5.72
193.33,-10.94,-5.22,-10.94,-5.23,5.21,4.54,3.99,-5.73,-5.73,-5.72
195.27,-10.92,-5.20,-10.92,-5.20,5.19,4.55,4.06,-5.73,-5.73,-5.72
197.22,-10.89,-5.16,-10.88,-5.16,5.16,4.55,4.14,-5.73,-5.72,-5.73
199.19,-10.84,-5.11,-10.85,-5.12,5.13,4.56,4.21,-5.71,-5.71,-5.73
201.18,-10.81,-5.07,-10.82,-5.08,5.11,4.56,4.29,-5.70,-5.71,-5.74
203.19,-10.80,-5.06,-10.80,-5.06,5.08,4.57,4.37,-5.72,-5.71,-5.74
205.23,-10.80,-5.05,-10.80,-5.05,5.07,4.57,4.45,-5.73,-5.73,-5.75
207.28,-10.80,-5.05,-10.81,-5.06,5.07,4.57,4.54,-5.73,-5.74,-5.75
209.35,-10.83,-5.07,-10.83,-5.07,5.07,4.57,4.62,-5.76,-5.76,-5.76
211.44,-10.84,-5.07,-10.84,-5.08,5.07,4.57,4.70,-5.77,-5.77,-5.77
213.56,-10.86,-5.09,-10.86,-5.09,5.08,4.57,4.78,-5.79,-5.78,-5.77
215.69,-10.86,-5.08,-10.87,-5.09,5.08,4.57,4.86,-5.78,-5.79,-5.78
217.85,-10.87,-5.09,-10.86,-5.08,5.07,4.56,4.94,-5.80,-5.79,-5.78
220.03,-10.85,-5.06,-10.85,-5.07,5.06,4.56,5.02,-5.79,-5.79,-5.79
222.23,-10.83,-5.04,-10.83,-5.05,5.04,4.55,5.10,-5.79,-5.79,-5.79
224.45,-10.81,-5.02,-10.81,-5.02,5.02,4.54,5.17,-5.79,-5.79,-5.79
226.70,-10.78,-4.99,-10.78,-4.99,5.00,4.54,5.24,-5.79,-5.79,-5.79
228.96,-10.75,-4.96,-10.75,-4.96,4.97,4.53,5.31,-5.78,-5.78,-5.79
231.25,-10.72,-4.93,-10.72,-4.94,4.94,4.52,5.37,-5.78,-5.78,-5.79
233.57,-10.69,-4.91,-10.69,-4.91,4.91,4.51,5.43,-5.78,-5.78,-5.78
235.90,-10.66,-4.88,-10.66,-4.89,4.89,4.49,5.47,-5.77,-5.77,-5.78
238.26,-10.63,-4.86,-10.63,-4.86,4.86,4.48,5.52,-5.77,-5.77,-5.77
240.64,-10.60,-4.84,-10.60,-4.84,4.84,4.47,5.56,-5.76,-5.76,-5.76
243.05,-10.56,-4.80,-10.57,-4.81,4.81,4.45,5.59,-5.75,-5.76,-5.76
245.48,-10.54,-4.79,-10.54,-4.79,4.79,4.44,5.62,-5.75,-5.75,-5.75
247.93,-10.50,-4.76,-10.50,-4.76,4.76,4.42,5.64,-5.74,-5.74,-5.74
250.41,-10.46,-4.73,-10.46,-4.73,4.73,4.41,5.65,-5.73,-5.73,-5.73
252.92,-10.42,-4.69,-10.43,-4.70,4.70,4.39,5.66,-5.72,-5.72,-5.73
255.45,-10.40,-4.68,-10.39,-4.67,4.67,4.37,5.65,-5.73,-5.72,-5.72
258.00,-10.35,-4.64,-10.35,-4.64,4.64,4.36,5.65,-5.71,-5.71,-5.71
260.58,-10.31,-4.60,-10.32,-4.61,4.61,4.34,5.63,-5.70,-5.71,-5.71
263.19,-10.28,-4.57,-10.28,-4.57,4.57,4.32,5.61,-5.71,-5.70,-5.71
265.82,-10.24,-4.54,-10.24,-4.54,4.54,4.30,5.58,-5.70,-5.70,-5.70
268.48,-10.21,-4.51,-10.21,-4.51,4.50,4.28,5.55,-5.71,-5.70,-5.70
271.16,-10.16,-4.46,-10.17,-4.47,4.47,4.26,5.51,-5.69,-5.70,-5.70
273.87,-10.13,-4.43,-10.13,-4.43,4.43,4.24,5.47,-5.70,-5.70,-5.70
276.61,-10.09,-4.40,-10.09,-4.40,4.40,4.22,5.43,-5.69,-5.69,-5.69
279.38,-10.05,-4.36,-10.05,-4.36,4.36,4.20,5.38,-5.69,-5.69,-5.69
282.17,-10.01,-4.32,-10.01,-4.33,4.33,4.18,5.33,-5.68,-5.69,-5.69
284.99,-9.98,-4.30,-9.98,-4.30,4.30,4.16,5.27,-5.68,-5.68,-5.68
287.84,-9.95,-4.27,-9.95,-4.27,4.27,4.14,5.21,-5.68,-5.68,-5.68
290.72,-9.91,-4.24,-9.92,-4.25,4.25,4.12,5.16,-5.67,-5.67,-5.67
293.63,-9.89,-4.22,-9.89,-4.22,4.23,4.10,5.10,-5.66,-5.66,-5.67
296.57,-9.87,-4.21,-9.87,-4.21,4.22,4.08,5.04,-5.65,-5.65,-5.66
299.53,-9.86,-4.20,-9.86,-4.21,4.21,4.06,4.98,-5.65,-5.65,-5.66
302.53,-9.86,-4.21,-9.86,-4.21,4.22,4.04,4.92,-5.64,-5.64,-5.65
305.55,-9.87,-4.23,-9.87,-4.23,4.23,4.02,4.87,-5.64,-5.64,-5.64
308.61,-9.87,-4.24,-9.87,-4.25,4.25,4.00,4.81,-5.62,-5.63,-5.63
311.69,-9.89,-4.27,-9.89,-4.27,4.27,3.98,4.76,-5.62,-5.62,-5.62
314.81,-9.90,-4.29,-9.91,-4.30,4.30,3.96,4.70,-5.60,-5.60,-5.61
317.96,-9.93,-4.33,-9.93,-4.33,4.33,3.94,4.65,-5.60,-5.60,-5.60
321.14,-9.94,-4.35,-9.94,-4.36,4.35,3.93,4.61,-5.59,-5.59,-5.59
324.35,-9.96,-4.38,-9.96,-4.38,4.38,3.91,4.56,-5.58,-5.58,-5.58
327.59,-9.97,-4.40,-9.97,-4.40,4.39,3.89,4.52,-5.58,-5.58,-5.57
330.87,-9.97,-4.40,-9.98,-4.41,4.40,3.87,4.48,-5.57,-5.57,-5.57
334.18,-9.98,-4.42,-9.97,-4.41,4.41,3.86,4.44,-5.58,-5.57,-5.56
337.52,-9.96,-4.40,-9.96,-4.41,4.40,3.84,4.41,-5.56,-5.56,-5.56
340.90,-9.94,-4.39,-9.95,-4.39,4.38,3.83,4.38,-5.56,-5.56,-5.55
344.30,-9.92,-4.37,-9.92,-4.37,4.36,3.81,4.36,-5.56,-5.55,-5.55
347.75,-9.89,-4.34,-9.89,-4.34,4.34,3.80,4.33,-5.55,-5.54,-5.55
351.23,-9.85,-4.30,-9.85,-4.31,4.32,3.79,4.31,-5.53,-5.54,-5.55
354.74,-9.82,-4.27,-9.83,-4.28,4.29,3.77,4.30,-5.53,-5.54,-5.55
358.28,-9.82,-4.26,-9.82,-4.26,4.27,3.76,4.28,-5.55,-5.54,-5.56
361.87,-9.81,-4.25,-9.81,-4.25,4.25,3.75,4.28,-5.56,-5.55,-5.56
365.49,-9.79,-4.23,-9.80,-4.24,4.23,3.74,4.27,-5.56,-5.56,-5.56
369.14,-9.78,-4.22,-9.78,-4.22,4.21,3.73,4.27,-5.57,-5.56,-5.56
372.83,-9.76,-4.20,-9.76,-4.20,4.20,3.73,4.27,-5.56,-5.56,-5.56
376.56,-9.73,-4.18,-9.73,-4.18,4.18,3.72,4.27,-5.55,-5.55,-5.55
380.33,-9.71,-4.16,-9.71,-4.16,4.16,3.72,4.28,-5.55,-5.55,-5.55
384.13,-9.68,-4.13,-9.68,-4.14,4.14,3.71,4.29,-5.54,-5.54,-5.55
387.97,-9.66,-4.12,-9.66,-4.12,4.12,3.71,4.30,-5.54,-5.54,-5.54
391.85,-9.63,-4.09,-9.63,-4.10,4.10,3.71,4.31,-5.53,-5.53,-5.54
395.77,-9.61,-4.08,-9.61,-4.08,4.08,3.70,4.33,-5.53,-5.53,-5.53
399.73,-9.57,-4.05,-9.58,-4.05,4.05,3.70,4.35,-5.52,-5.52,-5.52
403.72,-9.55,-4.03,-9.55,-4.04,4.03,3.70,4.37,-5.52,-5.52,-5.52
407.76,-9.52,-4.01,-9.52,-4.01,4.01,3.71,4.39,-5.51,-5.51,-5.51
411.84,-9.49,-3.99,-9.49,-3.99,3.99,3.71,4.41,-5.50,-5.50,-5.50
415.96,-9.45,-3.96,-9.46,-3.97,3.97,3.71,4.44,-5.48,-5.49,-5.49
420.12,-9.43,-3.94,-9.43,-3.94,3.95,3.72,4.46,-5.48,-5.48,-5.49
424.32,-9.40,-3.92,-9.40,-3.92,3.93,3.73,4.49,-5.47,-5.47,-5.48
428.56,-9.37,-3.90,-9.37,-3.90,3.91,3.73,4.51,-5.46,-5.47,-5.47
432.85,-9.34,-3.88,-9.34,-3.88,3.88,3.74,4.53,-5.46,-5.45,-5.46
