frequency,raw,error,smoothed,error_smoothed,equalization,parametric_eq,fixed_band_eq,equalized_raw,equalized_smoothed,target
20.00,8.17,6.76,8.17,6.76,-6.76,-6.35,-3.08,1.41,1.41,1.42
20.20,8.14,6.74,8.14,6.73,-6.73,-6.39,-3.17,1.41,1.41,1.41
20.40,8.11,6.71,8.11,6.71,-6.71,-6.42,-3.25,1.41,1.41,1.41
20.61,8.08,6.69,8.08,6.69,-6.68,-6.45,-3.34,1.40,1.40,1.40
20.81,8.06,6.67,8.06,6.66,-6.66,-6.48,-3.44,1.40,1.39,1.39
21.02,8.02,6.63,8.03,6.64,-6.64,-6.51,-3.53,1.38,1.38,1.39
21.23,8.00,6.63,8.00,6.62,-6.63,-6.53,-3.63,1.37,1.37,1.37
21.44,7.97,6.62,7.97,6.62,-6.62,-6.55,-3.73,1.35,1.35,1.35
21.66,7.94,6.61,7.94,6.61,-6.61,-6.57,-3.83,1.33,1.33,1.33
21.87,7.91,6.61,7.92,6.61,-6.61,-6.59,-3.94,1.31,1.31,1.30
22.09,7.89,6.61,7.89,6.60,-6.61,-6.61,-4.05,1.29,1.28,1.28
22.31,7.86,6.60,7.86,6.60,-6.61,-6.62,-4.16,1.26,1.26,1.26
22.54,7.83,6.60,7.84,6.60,-6.61,-6.63,-4.28,1.22,1.23,1.23
22.76,7.81,6.61,7.81,6.61,-6.61,-6.64,-4.39,1.20,1.20,1.20
22.99,7.79,6.62,7.79,6.62,-6.61,-6.65,-4.52,1.18,1.17,1.17
23.22,7.76,6.62,7.77,6.62,-6.61,-6.66,-4.64,1.15,1.15,1.14
23.45,7.74,6.62,7.74,6.62,-6.61,-6.66,-4.77,1.13,1.13,1.12
23.69,7.71,6.61,7.72,6.62,-6.61,-6.66,-4.90,1.10,1.11,1.10
23.92,7.69,6.61,7.69,6.61,-6.61,-6.67,-5.03,1.09,1.09,1.08
24.16,7.67,6.60,7.66,6.60,-6.60,-6.66,-5.16,1.07,1.07,1.07
24.40,7.63,6.58,7.64,6.59,-6.59,-6.66,-5.30,1.04,1.05,1.05
24.65,7.60,6.57,7.61,6.58,-6.58,-6.66,-5.44,1.02,1.02,1.03
24.89,7.58,6.57,7.58,6.57,-6.57,-6.65,-5.58,1.01,1.00,1.01
25.14,7.55,6.56,7.55,6.57,-6.57,-6.64,-5.72,0.99,0.99,0.99
25.39,7.53,6.56,7.53,6.56,-6.56,-6.63,-5.87,0.97,0.97,0.97
25.65,7.50,6.55,7.50,6.55,-6.55,-6.62,-6.01,0.95,0.95,0.96
25.91,7.48,6.56,7.48,6.55,-6.55,-6.61,-6.16,0.94,0.93,0.93
26.16,7.45,6.54,7.46,6.54,-6.54,-6.59,-6.30,0.91,0.92,0.92
26.43,7.43,6.54,7.43,6.54,-6.53,-6.58,-6.45,0.90,0.90,0.90
26.69,7.41,6.53,7.41,6.53,-6.52,-6.56,-6.59,0.89,0.89,0.88
26.96,7.38,6.52,7.39,6.52,-6.52,-6.54,-6.73,0.87,0.87,0.86
27.23,7.36,6.51,7.36,6.51,-6.51,-6.53,-6.87,0.85,0.85,0.85
27.50,7.32,6.49,7.33,6.50,-6.50,-6.51,-7.01,0.82,0.83,0.83
27.77,7.30,6.49,7.30,6.49,-6.49,-6.49,-7.14,0.81,0.81,0.81
28.05,7.28,6.48,7.28,6.49,-6.49,-6.47,-7.27,0.80,0.79,0.80
28.33,7.25,6.48,7.26,6.48,-6.48,-6.44,-7.39,0.78,0.78,0.77
28.62,7.24,6.48,7.24,6.47,-6.47,-6.42,-7.51,0.78,0.77,0.76
28.90,7.21,6.45,7.21,6.46,-6.46,-6.40,-7.61,0.75,0.75,0.76
29.19,7.18,6.45,7.19,6.45,-6.45,-6.38,-7.71,0.73,0.74,0.74
29.48,7.17,6.44,7.17,6.43,-6.44,-6.35,-7.80,0.73,0.73,0.74
29.78,7.14,6.43,7.15,6.43,-6.43,-6.33,-7.88,0.71,0.72,0.72
30.08,7.12,6.42,7.12,6.42,-6.42,-6.31,-7.95,0.70,0.70,0.70
30.38,7.09,6.41,7.09,6.41,-6.41,-6.28,-8.01,0.68,0.69,0.68
30.68,7.06,6.40,7.07,6.40,-6.40,-6.26,-8.05,0.66,0.67,0.66
30.99,7.04,6.40,7.04,6.39,-6.39,-6.23,-8.08,0.65,0.65,0.64
31.30,7.00,6.37,7.01,6.38,-6.38,-6.21,-8.10,0.62,0.63,0.63
31.61,6.98,6.36,6.98,6.37,-6.37,-6.19,-8.11,0.62,0.61,0.62
31.93,6.94,6.36,6.95,6.35,-6.36,-6.16,-8.11,0.59,0.59,0.59
32.24,6.91,6.35,6.91,6.35,-6.35,-6.14,-8.09,0.57,0.57,0.57
32.57,6.88,6.34,6.88,6.34,-6.34,-6.11,-8.06,0.55,0.55,0.55
32.89,6.85,6.32,6.85,6.32,-6.33,-6.09,-8.02,0.53,0.53,0.53
33.22,6.82,6.32,6.82,6.32,-6.32,-6.07,-7.97,0.51,0.51,0.50
33.55,6.79,6.30,6.79,6.30,-6.31,-6.05,-7.92,0.49,0.48,0.49
33.89,6.76,6.30,6.76,6.30,-6.30,-6.03,-7.85,0.47,0.46,0.46
34.23,6.72,6.28,6.73,6.29,-6.29,-6.01,-7.78,0.44,0.44,0.45
34.57,6.70,6.29,6.70,6.28,-6.28,-5.99,-7.69,0.43,0.42,0.42
34.92,6.66,6.27,6.67,6.27,-6.27,-5.97,-7.61,0.40,0.40,0.39
35.27,6.63,6.25,6.63,6.26,-6.26,-5.95,-7.52,0.38,0.38,0.38
35.62,6.60,6.24,6.60,6.24,-6.25,-5.93,-7.42,0.36,0.35,0.36
35.97,6.56,6.24,6.57,6.23,-6.24,-5.91,-7.33,0.33,0.33,0.33
36.33,6.54,6.23,6.54,6.23,-6.23,-5.90,-7.23,0.32,0.31,0.31
36.70,6.50,6.21,6.51,6.22,-6.21,-5.88,-7.13,0.29,0.29,0.29
37.06,6.47,6.21,6.47,6.21,-6.20,-5.87,-7.03,0.27,0.27,0.26
37.43,6.44,6.19,6.44,6.20,-6.19,-5.85,-6.93,0.25,0.25,0.25
37.81,6.40,6.18,6.41,6.18,-6.18,-5.84,-6.83,0.22,0.23,0.23
38.19,6.37,6.17,6.37,6.16,-6.17,-5.83,-6.73,0.21,0.20,0.20
38.57,6.33,6.14,6.33,6.15,-6.15,-5.82,-6.63,0.18,0.18,0.19
38.95,6.30,6.14,6.30,6.14,-6.14,-5.81,-6.54,0.16,0.16,0.17
39.34,6.26,6.12,6.27,6.12,-6.12,-5.80,-6.44,0.14,0.14,0.14
39.74,6.23,6.12,6.23,6.11,-6.11,-5.79,-6.36,0.12,0.12,0.11
40.14,6.19,6.10,6.19,6.10,-6.10,-5.78,-6.27,0.10,0.10,0.10
40.54,6.15,6.08,6.16,6.08,-6.08,-5.78,-6.19,0.07,0.08,0.07
40.94,6.12,6.06,6.12,6.06,-6.06,-5.77,-6.11,0.06,0.06,0.06
41.35,6.08,6.05,6.09,6.04,-6.04,-5.77,-6.03,0.04,0.04,0.04
41.76,6.05,6.03,6.05,6.03,-6.02,-5.76,-5.96,0.03,0.03,0.02
42.18,6.01,6.00,6.01,6.01,-6.00,-5.76,-5.90,0.01,0.01,0.01
42.60,5.97,5.99,5.97,5.98,-5.98,-5.76,-5.83,-0.01,-0.01,-0.01
43.03,5.93,5.95,5.93,5.96,-5.97,-5.75,-5.78,-0.03,-0.03,-0.02
43.46,5.89,5.94,5.90,5.94,-5.95,-5.75,-5.72,-0.06,-0.05,-0.04
43.90,5.86,5.94,5.86,5.93,-5.93,-5.75,-5.67,-0.07,-0.07,-0.08
44.33,5.82,5.92,5.82,5.92,-5.92,-5.75,-5.63,-0.10,-0.10,-0.10
44.78,5.78,5.90,5.79,5.91,-5.90,-5.75,-5.58,-0.12,-0.12,-0.12
45.23,5.75,5.90,5.75,5.89,-5.89,-5.75,-5.55,-0.14,-0.14,-0.14
45.68,5.71,5.87,5.72,5.88,-5.88,-5.75,-5.51,-0.16,-0.16,-0.16
46.13,5.69,5.88,5.69,5.86,-5.86,-5.75,-5.48,-0.17,-0.17,-0.18
46.60,5.65,5.84,5.65,5.85,-5.84,-5.75,-5.46,-0.19,-0.19,-0.19
47.06,5.62,5.83,5.63,5.83,-5.83,-5.75,-5.44,-0.21,-0.20,-0.20
47.53,5.59,5.81,5.59,5.81,-5.82,-5.76,-5.42,-0.22,-0.22,-0.22
48.01,5.56,5.80,5.56,5.80,-5.80,-5.76,-5.41,-0.24,-0.24,-0.24
48.49,5.52,5.79,5.53,5.79,-5.79,-5.76,-5.40,-0.27,-0.27,-0.26
48.97,5.49,5.78,5.49,5.78,-5.79,-5.76,-5.39,-0.29,-0.29,-0.29
49.46,5.46,5.78,5.46,5.78,-5.78,-5.76,-5.39,-0.32,-0.32,-0.32
49.96,5.43,5.78,5.44,5.78,-5.77,-5.76,-5.39,-0.34,-0.34,-0.34
50.46,5.41,5.78,5.41,5.77,-5.77,-5.76,-5.40,-0.36,-0.36,-0.36
50.96,5.38,5.76,5.38,5.77,-5.76,-5.75,-5.40,-0.38,-0.38,-0.38
51.47,5.35,5.76,5.35,5.76,-5.76,-5.75,-5.41,-0.40,-0.40,-0.41
51.99,5.32,5.75,5.33,5.75,-5.75,-5.75,-5.42,-0.43,-0.42,-0.43
52.51,5.30,5.74,5.30,5.74,-5.74,-5.75,-5.43,-0.44,-0.44,-0.44
53.03,5.27,5.73,5.27,5.73,-5.74,-5.74,-5.45,-0.46,-0.46,-0.45
53.56,5.24,5.73,5.25,5.73,-5.73,-5.73,-5.46,-0.48,-0.48,-0.48
54.10,5.22,5.73,5.22,5.72,-5.72,-5.73,-5.48,-0.50,-0.50,-0.50
54.64,5.18,5.71,5.19,5.72,-5.71,-5.72,-5.50,-0.53,-0.52,-0.52
55.18,5.16,5.71,5.16,5.70,-5.71,-5.71,-5.51,-0.54,-0.55,-0.54
55.74,5.13,5.70,5.13,5.69,-5.70,-5.70,-5.53,-0.56,-0.57,-0.57
56.29,5.09,5.68,5.10,5.69,-5.69,-5.68,-5.55,-0.59,-0.59,-0.59
56.86,5.07,5.68,5.07,5.68,-5.67,-5.67,-5.56,-0.60,-0.60,-0.61
57.42,5.04,5.67,5.04,5.67,-5.66,-5.65,-5.58,-0.62,-0.62,-0.63
58.00,5.00,5.65,5.01,5.65,-5.65,-5.64,-5.59,-0.64,-0.64,-0.64
58.58,4.97,5.63,4.97,5.63,-5.63,-5.62,-5.60,-0.66,-0.66,-0.66
59.16,4.94,5.61,4.94,5.61,-5.61,-5.60,-5.61,-0.67,-0.68,-0.67
59.76,4.89,5.59,4.90,5.59,-5.60,-5.58,-5.61,-0.70,-0.70,-0.69
60.35,4.86,5.58,4.86,5.57,-5.58,-5.55,-5.62,-0.72,-0.72,-0.72
60.96,4.82,5.55,4.82,5.56,-5.56,-5.53,-5.62,-0.74,-0.74,-0.73
61.57,4.78,5.55,4.78,5.55,-5.54,-5.50,-5.61,-0.76,-0.76,-0.77
62.18,4.74,5.53,4.74,5.53,-5.53,-5.47,-5.61,-0.78,-0.78,-0.79
62.80,4.70,5.51,4.70,5.51,-5.50,-5.45,-5.60,-0.80,-0.81,-0.81
63.43,4.65,5.49,4.65,5.48,-5.48,-5.42,-5.58,-0.83,-0.83,-0.83
64.07,4.60,5.45,4.61,5.46,-5.46,-5.38,-5.57,-0.85,-0.85,-0.85
64.71,4.56,5.43,4.56,5.43,-5.43,-5.35,-5.55,-0.87,-0.87,-0.87
65.35,4.51,5.40,4.51,5.40,-5.40,-5.32,-5.53,-0.89,-0.89,-0.89
66.01,4.46,5.37,4.46,5.37,-5.37,-5.28,-5.50,-0.91,-0.90,-0.90
66.67,4.41,5.34,4.41,5.34,-5.34,-5.25,-5.47,-0.92,-0.92,-0.92
67.33,4.36,5.31,4.36,5.30,-5.30,-5.21,-5.44,-0.94,-0.94,-0.94
68.01,4.30,5.27,4.31,5.27,-5.27,-5.17,-5.41,-0.97,-0.96,-0.96
68.69,4.25,5.24,4.25,5.24,-5.23,-5.14,-5.37,-0.98,-0.98,-0.98
69.37,4.19,5.20,4.19,5.20,-5.20,-5.10,-5.34,-1.01,-1.00,-1.01
70.07,4.14,5.17,4.14,5.17,-5.16,-5.06,-5.30,-1.02,-1.02,-1.03
70.77,4.08,5.12,4.08,5.13,-5.13,-5.02,-5.27,-1.05,-1.05,-1.04
71.48,4.03,5.10,4.03,5.09,-5.09,-4.98,-5.23,-1.06,-1.07,-1.06
72.19,3.96,5.05,3.97,5.06,-5.06,-4.94,-5.19,-1.10,-1.09,-1.09
72.91,3.91,5.03,3.91,5.03,-5.02,-4.91,-5.15,-1.11,-1.11,-1.12
73.64,3.85,5.00,3.85,4.99,-4.99,-4.87,-5.12,-1.13,-1.14,-1.15
74.38,3.78,4.94,3.79,4.96,-4.95,-4.83,-5.08,-1.17,-1.16,-1.16
75.12,3.73,4.92,3.73,4.92,-4.92,-4.80,-5.05,-1.18,-1.19,-1.19
75.87,3.67,4.89,3.67,4.88,-4.88,-4.76,-5.01,-1.21,-1.21,-1.21
76.63,3.61,4.84,3.61,4.85,-4.85,-4.72,-4.98,-1.24,-1.24,-1.23
77.40,3.55,4.81,3.56,4.82,-4.82,-4.69,-4.96,-1.26,-1.26,-1.26
78.17,3.50,4.80,3.50,4.79,-4.79,-4.66,-4.93,-1.28,-1.29,-1.30
78.95,3.44,4.76,3.44,4.76,-4.76,-4.63,-4.91,-1.31,-1.31,-1.32
79.74,3.39,4.73,3.39,4.73,-4.73,-4.60,-4.89,-1.34,-1.34,-1.33
80.54,3.33,4.70,3.34,4.70,-4.71,-4.57,-4.87,-1.37,-1.37,-1.36
81.35,3.29,4.69,3.29,4.68,-4.69,-4.54,-4.85,-1.39,-1.40,-1.40
82.16,3.24,4.67,3.25,4.67,-4.67,-4.52,-4.84,-1.43,-1.42,-1.43
82.98,3.20,4.65,3.20,4.66,-4.66,-4.50,-4.83,-1.45,-1.45,-1.45
83.81,3.16,4.65,3.16,4.65,-4.64,-4.47,-4.83,-1.48,-1.49,-1.49
84.65,3.11,4.64,3.12,4.64,-4.64,-4.46,-4.83,-1.53,-1.52,-1.52
85.50,3.08,4.63,3.08,4.63,-4.63,-4.44,-4.83,-1.55,-1.55,-1.55
86.35,3.05,4.63,3.05,4.63,-4.64,-4.43,-4.84,-1.58,-1.58,-1.58
87.22,3.02,4.64,3.03,4.64,-4.64,-4.41,-4.85,-1.62,-1.61,-1.62
88.09,3.00,4.65,3.00,4.65,-4.65,-4.41,-4.86,-1.64,-1.65,-1.65
88.97,2.98,4.66,2.98,4.66,-4.66,-4.40,-4.88,-1.68,-1.68,-1.68
89.86,2.96,4.66,2.97,4.67,-4.67,-4.40,-4.90,-1.71,-1.71,-1.70
90.76,2.95,4.70,2.95,4.69,-4.69,-4.40,-4.92,-1.74,-1.74,-1.75
91.66,2.94,4.72,2.94,4.72,-4.72,-4.40,-4.95,-1.78,-1.78,-1.77
92.58,2.93,4.75,2.94,4.75,-4.75,-4.41,-4.98,-1.82,-1.81,-1.82
93.51,2.93,4.77,2.93,4.78,-4.78,-4.42,-5.02,-1.85,-1.85,-1.84
94.44,2.94,4.82,2.94,4.82,-4.82,-4.43,-5.05,-1.88,-1.88,-1.88
95.39,2.94,4.86,2.94,4.86,-4.86,-4.45,-5.10,-1.92,-1.92,-1.91
96.34,2.95,4.92,2.95,4.91,-4.91,-4.47,-5.14,-1.96,-1.96,-1.96
97.30,2.95,4.95,2.96,4.96,-4.96,-4.49,-5.19,-2.00,-2.00,-2.00
98.28,2.97,5.01,2.97,5.01,-5.01,-4.52,-5.24,-2.03,-2.04,-2.04
99.26,2.98,5.06,2.98,5.06,-5.06,-4.55,-5.29,-2.08,-2.08,-2.08
100.25,2.99,5.11,2.99,5.11,-5.11,-4.59,-5.35,-2.12,-2.12,-2.12
101.25,3.00,5.16,3.00,5.16,-5.16,-4.63,-5.40,-2.16,-2.16,-2.16
102.27,3.01,5.21,3.01,5.21,-5.22,-4.67,-5.46,-2.20,-2.20,-2.20
103.29,3.02,5.28,3.02,5.27,-5.27,-4.72,-5.52,-2.24,-2.24,-2.26
104.32,3.03,5.32,3.03,5.32,-5.32,-4.77,-5.58,-2.28,-2.28,-2.28
105.37,3.04,5.38,3.04,5.37,-5.37,-4.83,-5.64,-2.32,-2.33,-2.33
106.42,3.03,5.41,3.04,5.41,-5.42,-4.89,-5.70,-2.38,-2.38,-2.37
107.48,3.04,5.46,3.04,5.46,-5.46,-4.95,-5.77,-2.42,-2.42,-2.41
108.56,3.04,5.51,3.04,5.51,-5.51,-5.02,-5.82,-2.47,-2.47,-2.47
109.64,3.04,5.55,3.04,5.56,-5.56,-5.09,-5.88,-2.51,-2.51,-2.51
110.74,3.04,5.60,3.04,5.60,-5.60,-5.16,-5.94,-2.56,-2.56,-2.56
111.85,3.03,5.63,3.03,5.64,-5.64,-5.23,-5.99,-2.61,-2.61,-2.60
112.97,3.02,5.69,3.02,5.68,-5.68,-5.31,-6.04,-2.66,-2.66,-2.67
114.10,3.00,5.71,3.01,5.72,-5.72,-5.39,-6.08,-2.71,-2.71,-2.71
115.24,2.99,5.75,2.99,5.75,-5.75,-5.46,-6.12,-2.75,-2.76,-2.75
116.39,2.97,5.78,2.97,5.77,-5.77,-5.54,-6.16,-2.80,-2.80,-2.80
117.55,2.94,5.79,2.95,5.80,-5.79,-5.62,-6.19,-2.85,-2.85,-2.85
118.73,2.91,5.81,2.91,5.81,-5.81,-5.69,-6.21,-2.89,-2.89,-2.90
119.92,2.88,5.82,2.88,5.82,-5.82,-5.76,-6.22,-2.93,-2.94,-2.93
121.12,2.84,5.82,2.84,5.83,-5.82,-5.82,-6.23,-2.98,-2.98,-2.98
122.33,2.80,5.83,2.80,5.82,-5.82,-5.88,-6.23,-3.02,-3.02,-3.03
123.55,2.75,5.82,2.75,5.82,-5.82,-5.94,-6.22,-3.07,-3.07,-3.06
124.79,2.70,5.80,2.70,5.81,-5.81,-5.98,-6.20,-3.11,-3.11,-3.10
126.03,2.65,5.80,2.65,5.80,-5.80,-6.02,-6.18,-3.15,-3.15,-3.14
127.29,2.60,5.79,2.60,5.79,-5.79,-6.05,-6.14,-3.19,-3.19,-3.19
128.57,2.54,5.78,2.54,5.78,-5.77,-6.06,-6.10,-3.23,-3.23,-3.23
129.85,2.48,5.76,2.48,5.76,-5.75,-6.07,-6.05,-3.27,-3.27,-3.28
131.15,2.42,5.73,2.42,5.73,-5.73,-6.06,-5.99,-3.30,-3.31,-3.31
132.46,2.35,5.69,2.35,5.70,-5.70,-6.05,-5.92,-3.34,-3.34,-3.34
133.79,2.28,5.66,2.28,5.66,-5.66,-6.01,-5.85,-3.38,-3.38,-3.37
135.12,2.21,5.63,2.21,5.62,-5.62,-5.97,-5.77,-3.41,-3.41,-3.42
136.48,2.13,5.57,2.13,5.57,-5.57,-5.92,-5.68,-3.44,-3.44,-3.44
137.84,2.05,5.52,2.06,5.53,-5.52,-5.86,-5.59,-3.47,-3.47,-3.47
139.22,1.98,5.48,1.98,5.47,-5.47,-5.78,-5.49,-3.49,-3.49,-3.50
140.61,1.89,5.42,1.90,5.42,-5.41,-5.70,-5.39,-3.52,-3.52,-3.53
142.02,1.81,5.35,1.81,5.35,-5.35,-5.61,-5.28,-3.54,-3.54,-3.53
143.44,1.73,5.29,1.73,5.29,-5.29,-5.51,-5.17,-3.56,-3.56,-3.56
144.87,1.64,5.22,1.65,5.22,-5.23,-5.41,-5.06,-3.58,-3.58,-3.58
146.32,1.56,5.16,1.56,5.16,-5.16,-5.31,-4.95,-3.59,-3.60,-3.60
147.78,1.47,5.08,1.47,5.08,-5.09,-5.20,-4.84,-3.61,-3.62,-3.61
149.26,1.38,5.01,1.38,5.01,-5.02,-5.09,-4.72,-3.63,-3.63,-3.63
150.75,1.28,4.95,1.29,4.94,-4.94,-4.98,-4.61,-3.66,-3.65,-3.66
152.26,1.19,4.87,1.19,4.87,-4.87,-4.87,-4.49,-3.67,-3.67,-3.68
153.78,1.10,4.79,1.10,4.79,-4.79,-4.76,-4.37,-3.69,-3.69,-3.69
155.32,1.00,4.72,1.00,4.71,-4.71,-4.66,-4.26,-3.71,-3.71,-3.71
156.88,0.90,4.63,0.90,4.63,-4.64,-4.55,-4.15,-3.74,-3.73,-3.73
158.44,0.80,4.55,0.81,4.56,-4.56,-4.45,-4.03,-3.76,-3.76,-3.75
160.03,0.71,4.48,0.71,4.48,-4.48,-4.36,-3.92,-3.77,-3.78,-3.77
161.63,0.61,4.41,0.61,4.41,-4.41,-4.27,-3.81,-3.79,-3.79,-3.80
163.24,0.51,4.33,0.52,4.33,-4.33,-4.18,-3.70,-3.82,-3.81,-3.82
164.88,0.42,4.25,0.42,4.25,-4.25,-4.10,-3.59,-3.83,-3.83,-3.83
166.53,0.32,4.17,0.32,4.17,-4.17,-4.02,-3.49,-3.85,-3.85,-3.85
168.19,0.21,4.09,0.22,4.09,-4.09,-3.95,-3.39,-3.88,-3.87,-3.88
169.87,0.11,4.01,0.11,4.01,-4.01,-3.89,-3.29,-3.90,-3.90,-3.90
171.57,0.01,3.94,0.01,3.93,-3.93,-3.82,-3.19,-3.92,-3.92,-3.92
173.29,-0.10,3.84,-0.09,3.85,-3.85,-3.76,-3.09,-3.95,-3.95,-3.94
175.02,-0.20,3.77,-0.20,3.77,-3.78,-3.71,-3.00,-3.97,-3.98,-3.97
176.77,-0.31,3.70,-0.30,3.70,-3.70,-3.65,-2.90,-4.01,-4.00,-4.00
178.54,-0.41,3.63,-0.41,3.62,-3.62,-3.60,-2.81,-4.03,-4.03,-4.04
180.32,-0.52,3.55,-0.52,3.55,-3.55,-3.55,-2.72,-4.06,-4.07,-4.07
182.13,-0.63,3.46,-0.63,3.47,-3.47,-3.50,-2.64,-4.10,-4.10,-4.09
183.95,-0.74,3.40,-0.73,3.40,-3.39,-3.44,-2.55,-4.13,-4.13,-4.13
185.79,-0.84,3.32,-0.84,3.32,-3.32,-3.39,-2.47,-4.15,-4.16,-4.16
187.65,-0.95,3.24,-0.95,3.24,-3.24,-3.33,-2.39,-4.18,-4.19,-4.19
189.52,-1.07,3.15,-1.06,3.16,-3.16,-3.26,-2.32,-4.23,-4.22,-4.21
191.42,-1.17,3.08,-1.17,3.08,-3.08,-3.19,-2.24,-4.25,-4.25,-4.25
193.33,-1.27,3.00,-1.27,3.00,-3.00,-3.11,-2.17,-4.27,-4.27,-4.27
195.27,-1.38,2.92,-1.38,2.92,-2.92,-3.02,-2.09,-4.30,-4.30,-4.30
197.22,-1.50,2.82,-1.49,2.84,-2.84,-2.93,-2.02,-4.33,-4.32,-4.32
199.19,-1.60,2.77,-1.60,2.75,-2.75,-2.83,-1.96,-4.35,-4.35,-4.36
201.18,-1.70,2.68,-1.71,2.67,-2.67,-2.73,-1.89,-4.37,-4.38,-4.37
203.19,-1.82,2.58,-1.81,2.59,-2.59,-2.62,-1.82,-4.40,-4.40,-4.39
205.23,-1.92,2.51,-1.92,2.50,-2.50,-2.51,-1.76,-4.42,-4.42,-4.42
207.28,-2.02,2.41,-2.02,2.41,-2.42,-2.40,-1.70,-4.43,-4.44,-4.42
209.35,-2.13,2.32,-2.12,2.33,-2.33,-2.28,-1.64,-4.46,-4.45,-4.45
211.44,-2.23,2.25,-2.23,2.24,-2.24,-2.16,-1.58,-4.47,-4.47,-4.48
213.56,-2.33,2.16,-2.33,2.16,-2.16,-2.05,-1.52,-4.49,-4.49,-4.49
215.69,-2.43,2.06,-2.43,2.07,-2.07,-1.93,-1.46,-4.50,-4.50,-4.49
217.85,-2.53,1.98,-2.52,1.98,-1.98,-1.81,-1.41,-4.51,-4.51,-4.51
220.03,-2.62,1.90,-2.62,1.89,-1.89,-1.70,-1.35,-4.51,-4.51,-4.51
222.23,-2.71,1.81,-2.71,1.80,-1.80,-1.59,-1.30,-4.51,-4.51,-4.52
224.45,-2.81,1.70,-2.80,1.71,-1.71,-1.48,-1.25,-4.51,-4.51,-4.51
226.70,-2.90,1.61,-2.90,1.61,-1.61,-1.38,-1.20,-4.51,-4.51,-4.50
228.96,-2.99,1.51,-2.99,1.51,-1.51,-1.27,-1.15,-4.50,-4.50,-4.50
231.25,-3.09,1.40,-3.08,1.41,-1.41,-1.18,-1.10,-4.50,-4.49,-4.49
233.57,-3.18,1.31,-3.18,1.31,-1.31,-1.08,-1.05,-4.48,-4.48,-4.48
235.90,-3.27,1.20,-3.27,1.20,-1.20,-0.99,-1.00,-4.46,-4.47,-4.47
238.26,-3.37,1.10,-3.37,1.10,-1.08,-0.90,-0.96,-4.45,-4.45,-4.47
240.64,-3.47,0.97,-3.47,0.98,-0.97,-0.82,-0.91,-4.44,-4.44,-4.44
243.05,-3.57,0.86,-3.57,0.85,-0.85,-0.73,-0.86,-4.42,-4.42,-4.43
245.48,-3.68,0.72,-3.67,0.73,-0.73,-0.65,-0.82,-4.41,-4.40,-4.40
247.93,-3.78,0.60,-3.78,0.61,-0.61,-0.58,-0.78,-4.38,-4.38,-4.38
250.41,-3.88,0.49,-3.88,0.48,-0.49,-0.50,-0.73,-4.36,-4.36,-4.37
252.92,-3.97,0.37,-3.97,0.37,-0.37,-0.43,-0.69,-4.34,-4.34,-4.34
255.45,-4.07,0.24,-4.06,0.25,-0.26,-0.36,-0.65,-4.33,-4.32,-4.31
258.00,-4.15,0.15,-4.15,0.14,-0.15,-0.30,-0.60,-4.30,-4.30,-4.29
260.58,-4.22,0.05,-4.22,0.05,-0.06,-0.23,-0.56,-4.27,-4.27,-4.27
263.19,-4.29,-0.04,-4.28,-0.04,0.04,-0.17,-0.52,-4.25,-4.25,-4.24
265.82,-4.34,-0.11,-4.34,-0.12,0.12,-0.11,-0.48,-4.21,-4.22,-4.23
268.48,-4.40,-0.21,-4.39,-0.20,0.20,-0.06,-0.44,-4.20,-4.19,-4.19
271.16,-4.44,-0.27,-4.44,-0.28,0.28,0.00,-0.39,-4.16,-4.17,-4.16
273.87,-4.50,-0.35,-4.49,-0.35,0.35,0.06,-0.35,-4.15,-4.14,-4.15
276.61,-4.54,-0.42,-4.54,-0.41,0.42,0.11,-0.31,-4.12,-4.12,-4.12
279.38,-4.58,-0.47,-4.58,-0.48,0.48,0.16,-0.27,-4.10,-4.10,-4.10
282.17,-4.62,-0.54,-4.62,-0.54,0.54,0.21,-0.23,-4.07,-4.07,-4.08
284.99,-4.66,-0.61,-4.65,-0.60,0.60,0.26,-0.19,-4.05,-4.05,-4.05
287.84,-4.69,-0.66,-4.69,-0.66,0.66,0.31,-0.15,-4.03,-4.02,-4.02
290.72,-4.71,-0.71,-4.71,-0.72,0.71,0.35,-0.11,-3.99,-4.00,-4.00
293.63,-4.74,-0.77,-4.73,-0.77,0.77,0.40,-0.06,-3.97,-3.97,-3.97
296.57,-4.76,-0.82,-4.76,-0.82,0.82,0.44,-0.02,-3.94,-3.94,-3.94
299.53,-4.78,-0.86,-4.78,-0.86,0.87,0.48,0.02,-3.91,-3.91,-3.91
302.53,-4.80,-0.90,-4.79,-0.91,0.91,0.52,0.06,-3.88,-3.88,-3.89
305.55,-4.81,-0.96,-4.81,-0.95,0.96,0.56,0.11,-3.85,-3.85,-3.85
308.61,-4.81,-0.99,-4.81,-1.00,1.00,0.60,0.15,-3.81,-3.82,-3.82
311.69,-4.82,-1.04,-4.82,-1.04,1.03,0.64,0.19,-3.78,-3.78,-3.78
314.81,-4.82,-1.08,-4.82,-1.07,1.07,0.68,0.24,-3.75,-3.75,-3.73
317.96,-4.82,-1.10,-4.82,-1.10,1.10,0.72,0.28,-3.72,-3.72,-3.71
321.14,-4.81,-1.12,-4.81,-1.12,1.12,0.75,0.33,-3.69,-3.69,-3.69
324.35,-4.80,-1.14,-4.80,-1.14,1.14,0.79,0.37,-3.65,-3.66,-3.66
327.59,-4.79,-1.16,-4.79,-1.16,1.16,0.82,0.42,-3.63,-3.63,-3.63
330.87,-4.78,-1.18,-4.78,-1.17,1.17,0.86,0.46,-3.61,-3.61,-3.60
334.18,-4.77,-1.18,-4.76,-1.18,1.18,0.89,0.51,-3.59,-3.58,-3.58
337.52,-4.75,-1.18,-4.75,-1.19,1.19,0.92,0.56,-3.56,-3.56,-3.56
340.90,-4.73,-1.19,-4.73,-1.19,1.19,0.96,0.61,-3.54,-3.54,-3.54
344.30,-4.72,-1.20,-4.72,-1.20,1.20,0.99,0.66,-3.52,-3.52,-3.52
347.75,-4.71,-1.21,-4.70,-1.20,1.21,1.02,0.71,-3.50,-3.49,-3.50
351.23,-4.69,-1.21,-4.69,-1.21,1.22,1.05,0.76,-3.47,-3.47,-3.48
354.74,-4.68,-1.22,-4.68,-1.22,1.23,1.08,0.81,-3.45,-3.45,-3.46
358.28,-4.68,-1.23,-4.68,-1.23,1.24,1.10,0.86,-3.44,-3.44,-3.44
361.87,-4.68,-1.25,-4.68,-1.25,1.25,1.13,0.91,-3.43,-3.43,-3.42
365.49,-4.68,-1.27,-4.67,-1.27,1.26,1.16,0.97,-3.42,-3.42,-3.40
369.14,-4.67,-1.27,-4.66,-1.27,1.27,1.19,1.02,-3.40,-3.40,-3.40
372.83,-4.65,-1.27,-4.65,-1.27,1.27,1.21,1.08,-3.38,-3.38,-3.38
376.56,-4.63,-1.26,-4.63,-1.27,1.27,1.24,1.13,-3.35,-3.36,-3.37
380.33,-4.62,-1.28,-4.61,-1.27,1.27,1.26,1.19,-3.35,-3.34,-3.34
384.13,-4.59,-1.27,-4.59,-1.27,1.27,1.29,1.25,-3.32,-3.32,-3.32
387.97,-4.57,-1.27,-4.57,-1.26,1.26,1.31,1.30,-3.31,-3.31,-3.30
391.85,-4.54,-1.25,-4.54,-1.25,1.25,1.33,1.36,-3.29,-3.28,-3.29
395.77,-4.51,-1.25,-4.51,-1.24,1.24,1.35,1.42,-3.26,-3.26,-3.26
399.73,-4.47,-1.22,-4.47,-1.23,1.23,1.38,1.48,-3.23,-3.24,-3.24
403.72,-4.45,-1.22,-4.45,-1.22,1.22,1.40,1.53,-3.22,-3.22,-3.22
407.76,-4.42,-1.21,-4.42,-1.21,1.21,1.42,1.59,-3.20,-3.20,-3.20
411.84,-4.39,-1.21,-4.38,-1.21,1.20,1.44,1.65,-3.18,-3.18,-3.17
415.96,-4.35,-1.19,-4.35,-1.19,1.19,1.46,1.71,-3.16,-3.16,-3.16
420.12,-4.32,-1.18,-4.32,-1.18,1.18,1.47,1.76,-3.14,-3.14,-3.14
424.32,-4.29,-1.17,-4.29,-1.17,1.17,1.49,1.82,-3.12,-3.12,-3.12
428.56,-4.26,-1.16,-4.26,-1.16,1.16,1.51,1.87,-3.10,-3.10,-3.10
432.85,-4.23,-1.15,-4.23,-1.15,1.15,1.53,1.92,-3.08,-3.08,-3.08
437.18,-4.20,-1.15,-4.19,-1.14,1.14,1.54,1.97,-3.05,-3.05,-3.05
441.55,-4.16,-1.14,-4.16,-1.14,1.14,1.56,2.02,-3.01,-3.02,-3.02
445.96,-4.14,-1.14,-4.14,-1.14,1.15,1.57,2.06,-2.99,-2.99,-3.00
450.42,-4.12,-1.14,-4.12,-1.15,1.16,1.59,2.11,-2.96,-2.96,-2.98
454.93,-4.12,-1.18,-4.11,-1.17,1.17,1.60,2.14,-2.95,-2.94,-2.94
459.48,-4.11,-1.19,-4.11,-1.19,1.19,1.61,2.18,-2.92,-2.92,-2.92
464.07,-4.11,-1.22,-4.11,-1.22,1.21,1.62,2.21,-2.89,-2.89,-2.89
468.71,-4.11,-1.25,-4.11,-1.24,1.24,1.64,2.24,-2.87,-2.86,-2.86
473.40,-4.11,-1.28,-4.11,-1.27,1.27,1.65,2.26,-2.83,-2.83,-2.83
