frequency,raw,error,smoothed,error_smoothed,equalization,parametric_eq,fixed_band_eq,equalized_raw,equalized_smoothed,target
20.00,8.57,6.99,8.57,6.98,-6.99,-6.09,-2.61,1.58,1.58,1.58
20.20,8.52,6.94,8.52,6.94,-6.94,-6.09,-2.69,1.58,1.58,1.58
20.40,8.47,6.90,8.47,6.89,-6.89,-6.09,-2.76,1.58,1.58,1.57
20.61,8.42,6.85,8.42,6.85,-6.84,-6.09,-2.84,1.58,1.58,1.57
20.81,8.37,6.81,8.37,6.80,-6.80,-6.09,-2.92,1.57,1.57,1.56
21.02,8.32,6.76,8.32,6.75,-6.75,-6.10,-3.01,1.57,1.57,1.56
21.23,8.26,6.71,8.26,6.71,-6.71,-6.10,-3.09,1.55,1.56,1.55
21.44,8.21,6.66,8.21,6.66,-6.66,-6.10,-3.18,1.55,1.55,1.55
21.66,8.16,6.62,8.16,6.61,-6.62,-6.10,-3.27,1.54,1.54,1.54
21.87,8.11,6.57,8.11,6.57,-6.57,-6.10,-3.36,1.53,1.54,1.54
22.09,8.07,6.54,8.07,6.53,-6.53,-6.10,-3.46,1.54,1.54,1.53
22.31,8.03,6.50,8.03,6.49,-6.49,-6.11,-3.56,1.53,1.53,1.53
22.54,7.99,6.46,7.99,6.46,-6.46,-6.11,-3.65,1.53,1.53,1.53
22.76,7.95,6.43,7.95,6.42,-6.42,-6.11,-3.76,1.53,1.53,1.52
22.99,7.91,6.39,7.91,6.39,-6.39,-6.11,-3.86,1.52,1.52,1.52
23.22,7.87,6.36,7.87,6.35,-6.35,-6.11,-3.97,1.52,1.52,1.51
23.45,7.83,6.32,7.83,6.32,-6.32,-6.11,-4.08,1.51,1.51,1.51
23.69,7.80,6.29,7.80,6.29,-6.28,-6.12,-4.19,1.52,1.51,1.51
23.92,7.76,6.26,7.76,6.25,-6.25,-6.12,-4.31,1.51,1.51,1.50
24.16,7.73,6.23,7.72,6.22,-6.22,-6.12,-4.43,1.51,1.51,1.50
24.40,7.68,6.18,7.68,6.18,-6.19,-6.12,-4.55,1.49,1.50,1.50
24.65,7.65,6.15,7.65,6.15,-6.16,-6.12,-4.67,1.49,1.50,1.50
24.89,7.62,6.13,7.62,6.12,-6.13,-6.12,-4.79,1.49,1.49,1.49
25.14,7.60,6.11,7.60,6.10,-6.10,-6.13,-4.91,1.50,1.49,1.49
25.39,7.57,6.08,7.57,6.08,-6.08,-6.13,-5.04,1.49,1.50,1.49
25.65,7.55,6.06,7.55,6.06,-6.06,-6.13,-5.17,1.49,1.50,1.49
25.91,7.53,6.04,7.53,6.03,-6.04,-6.13,-5.29,1.50,1.49,1.49
26.16,7.51,6.02,7.51,6.02,-6.02,-6.14,-5.42,1.49,1.49,1.49
26.43,7.49,6.00,7.49,6.00,-6.00,-6.14,-5.55,1.49,1.49,1.49
26.69,7.47,5.99,7.47,5.98,-5.98,-6.14,-5.67,1.49,1.49,1.48
26.96,7.45,5.97,7.45,5.97,-5.97,-6.14,-5.80,1.48,1.49,1.48
27.23,7.44,5.96,7.43,5.95,-5.95,-6.14,-5.92,1.49,1.48,1.48
27.50,7.42,5.94,7.42,5.94,-5.94,-6.15,-6.04,1.48,1.48,1.48
27.77,7.40,5.92,7.41,5.93,-5.93,-6.15,-6.15,1.47,1.48,1.48
28.05,7.40,5.93,7.39,5.91,-5.92,-6.15,-6.27,1.48,1.48,1.47
28.33,7.38,5.91,7.38,5.91,-5.91,-6.15,-6.38,1.47,1.47,1.47
28.62,7.37,5.90,7.37,5.90,-5.90,-6.16,-6.48,1.47,1.47,1.47
28.90,7.36,5.90,7.36,5.89,-5.89,-6.16,-6.58,1.47,1.47,1.46
29.19,7.35,5.89,7.35,5.88,-5.88,-6.16,-6.67,1.47,1.46,1.46
29.48,7.33,5.87,7.34,5.88,-5.88,-6.17,-6.75,1.45,1.46,1.46
29.78,7.33,5.88,7.33,5.87,-5.87,-6.17,-6.83,1.46,1.46,1.45
30.08,7.32,5.87,7.32,5.86,-5.86,-6.17,-6.90,1.46,1.46,1.45
30.38,7.31,5.86,7.31,5.86,-5.85,-6.17,-6.96,1.46,1.46,1.45
30.68,7.30,5.85,7.30,5.85,-5.85,-6.18,-7.01,1.45,1.45,1.45
30.99,7.29,5.84,7.29,5.84,-5.84,-6.18,-7.06,1.45,1.45,1.45
31.30,7.29,5.84,7.29,5.83,-5.84,-6.18,-7.09,1.45,1.45,1.45
31.61,7.29,5.83,7.29,5.83,-5.83,-6.19,-7.11,1.46,1.46,1.46
31.93,7.29,5.83,7.29,5.83,-5.83,-6.19,-7.13,1.46,1.46,1.46
32.24,7.29,5.83,7.29,5.83,-5.82,-6.19,-7.13,1.47,1.47,1.46
32.57,7.29,5.83,7.29,5.83,-5.82,-6.20,-7.13,1.47,1.47,1.46
32.89,7.29,5.83,7.29,5.83,-5.82,-6.20,-7.12,1.47,1.47,1.46
33.22,7.29,5.83,7.29,5.83,-5.83,-6.20,-7.10,1.46,1.46,1.46
33.55,7.29,5.83,7.29,5.83,-5.83,-6.21,-7.08,1.46,1.46,1.46
33.89,7.30,5.84,7.30,5.83,-5.84,-6.21,-7.05,1.46,1.46,1.46
34.23,7.30,5.85,7.30,5.85,-5.85,-6.21,-7.01,1.45,1.46,1.45
34.57,7.31,5.86,7.31,5.86,-5.86,-6.22,-6.97,1.45,1.45,1.45
34.92,7.32,5.88,7.32,5.87,-5.87,-6.22,-6.92,1.45,1.45,1.44
35.27,7.32,5.89,7.32,5.89,-5.88,-6.22,-6.87,1.44,1.44,1.43
35.62,7.33,5.91,7.33,5.90,-5.90,-6.23,-6.82,1.43,1.43,1.42
35.97,7.33,5.91,7.33,5.91,-5.92,-6.23,-6.77,1.41,1.42,1.42
36.33,7.34,5.93,7.34,5.93,-5.94,-6.24,-6.71,1.40,1.40,1.41
36.70,7.35,5.96,7.35,5.95,-5.95,-6.24,-6.65,1.39,1.39,1.39
37.06,7.36,5.98,7.36,5.98,-5.97,-6.24,-6.60,1.39,1.39,1.38
37.43,7.37,6.00,7.37,6.00,-6.00,-6.25,-6.54,1.37,1.38,1.37
37.81,7.39,6.03,7.38,6.02,-6.02,-6.25,-6.48,1.37,1.37,1.36
38.19,7.39,6.04,7.40,6.04,-6.04,-6.26,-6.43,1.35,1.36,1.35
38.57,7.41,6.06,7.41,6.06,-6.06,-6.26,-6.38,1.35,1.35,1.35
38.95,7.42,6.08,7.42,6.07,-6.08,-6.27,-6.33,1.34,1.34,1.34
39.34,7.43,6.10,7.43,6.10,-6.09,-6.27,-6.28,1.34,1.34,1.33
39.74,7.44,6.11,7.44,6.11,-6.11,-6.28,-6.24,1.33,1.33,1.33
40.14,7.46,6.14,7.45,6.13,-6.13,-6.28,-6.20,1.33,1.33,1.32
40.54,7.46,6.14,7.47,6.14,-6.14,-6.29,-6.16,1.32,1.32,1.32
40.94,7.48,6.16,7.48,6.16,-6.16,-6.29,-6.13,1.32,1.32,1.32
41.35,7.50,6.18,7.50,6.17,-6.17,-6.29,-6.10,1.33,1.32,1.32
41.76,7.51,6.19,7.51,6.19,-6.19,-6.30,-6.07,1.32,1.32,1.32
42.18,7.53,6.21,7.53,6.20,-6.20,-6.30,-6.05,1.33,1.32,1.32
42.60,7.54,6.22,7.54,6.22,-6.22,-6.31,-6.03,1.32,1.32,1.32
43.03,7.56,6.24,7.56,6.24,-6.23,-6.32,-6.02,1.33,1.33,1.32
43.46,7.57,6.25,7.57,6.25,-6.24,-6.32,-6.01,1.33,1.33,1.32
43.90,7.59,6.27,7.59,6.26,-6.26,-6.33,-6.01,1.33,1.33,1.32
44.33,7.60,6.27,7.60,6.27,-6.27,-6.33,-6.01,1.33,1.33,1.33
44.78,7.61,6.28,7.61,6.28,-6.28,-6.34,-6.01,1.33,1.33,1.33
45.23,7.63,6.30,7.63,6.29,-6.29,-6.34,-6.02,1.34,1.33,1.33
45.68,7.64,6.30,7.65,6.30,-6.31,-6.35,-6.04,1.33,1.34,1.34
46.13,7.67,6.33,7.66,6.32,-6.32,-6.35,-6.06,1.35,1.34,1.34
46.60,7.68,6.34,7.68,6.34,-6.33,-6.36,-6.08,1.34,1.35,1.34
47.06,7.70,6.36,7.70,6.35,-6.35,-6.36,-6.11,1.35,1.35,1.34
47.53,7.71,6.37,7.71,6.37,-6.37,-6.37,-6.14,1.34,1.34,1.34
48.01,7.72,6.38,7.72,6.38,-6.38,-6.38,-6.17,1.34,1.34,1.34
48.49,7.74,6.41,7.74,6.40,-6.40,-6.38,-6.21,1.34,1.33,1.33
48.97,7.75,6.42,7.75,6.42,-6.42,-6.39,-6.26,1.33,1.33,1.33
49.46,7.77,6.44,7.77,6.44,-6.44,-6.39,-6.30,1.33,1.33,1.33
49.96,7.79,6.47,7.78,6.46,-6.46,-6.40,-6.35,1.33,1.33,1.32
50.46,7.79,6.47,7.80,6.47,-6.47,-6.40,-6.41,1.32,1.32,1.32
50.96,7.81,6.50,7.81,6.49,-6.49,-6.41,-6.46,1.32,1.32,1.31
51.47,7.82,6.51,7.82,6.51,-6.51,-6.42,-6.52,1.31,1.31,1.31
51.99,7.84,6.54,7.84,6.53,-6.53,-6.42,-6.58,1.31,1.31,1.30
52.51,7.85,6.55,7.85,6.54,-6.55,-6.43,-6.64,1.30,1.30,1.30
53.03,7.86,6.56,7.86,6.56,-6.56,-6.43,-6.70,1.30,1.30,1.30
53.56,7.87,6.58,7.87,6.57,-6.57,-6.44,-6.76,1.29,1.30,1.29
54.10,7.89,6.60,7.88,6.59,-6.59,-6.44,-6.82,1.30,1.30,1.29
54.64,7.89,6.60,7.90,6.60,-6.60,-6.45,-6.89,1.29,1.30,1.29
55.18,7.91,6.62,7.91,6.61,-6.61,-6.46,-6.94,1.30,1.30,1.29
55.74,7.92,6.62,7.92,6.62,-6.62,-6.46,-7.00,1.30,1.30,1.30
56.29,7.93,6.63,7.93,6.63,-6.63,-6.47,-7.05,1.30,1.30,1.30
56.86,7.94,6.64,7.94,6.64,-6.64,-6.47,-7.11,1.30,1.30,1.30
57.42,7.95,6.65,7.95,6.65,-6.65,-6.48,-7.15,1.30,1.30,1.30
58.00,7.96,6.66,7.96,6.66,-6.65,-6.48,-7.19,1.31,1.31,1.30
58.58,7.97,6.67,7.97,6.66,-6.66,-6.49,-7.23,1.31,1.31,1.30
59.16,7.97,6.67,7.97,6.67,-6.67,-6.49,-7.26,1.30,1.30,1.30
59.76,7.98,6.68,7.98,6.67,-6.68,-6.50,-7.28,1.30,1.30,1.30
60.35,7.98,6.68,7.98,6.68,-6.68,-6.50,-7.30,1.30,1.30,1.30
60.96,7.99,6.70,7.99,6.69,-6.69,-6.50,-7.31,1.30,1.30,1.29
61.57,7.99,6.70,7.99,6.70,-6.70,-6.51,-7.31,1.29,1.29,1.29
62.18,7.99,6.70,7.99,6.70,-6.70,-6.51,-7.30,1.28,1.29,1.29
62.80,8.00,6.72,8.00,6.71,-6.71,-6.51,-7.28,1.29,1.29,1.28
63.43,8.00,6.72,8.00,6.72,-6.72,-6.52,-7.26,1.28,1.28,1.28
64.07,8.00,6.73,8.00,6.72,-6.72,-6.52,-7.22,1.28,1.28,1.27
64.71,8.00,6.73,8.00,6.72,-6.72,-6.52,-7.18,1.28,1.28,1.27
65.35,7.99,6.72,7.99,6.72,-6.72,-6.52,-7.13,1.27,1.27,1.27
66.01,7.99,6.72,7.99,6.72,-6.72,-6.52,-7.08,1.27,1.27,1.27
66.67,7.99,6.72,7.99,6.71,-6.71,-6.53,-7.02,1.28,1.27,1.27
67.33,7.98,6.71,7.98,6.71,-6.71,-6.53,-6.95,1.27,1.27,1.27
68.01,7.98,6.71,7.98,6.70,-6.70,-6.52,-6.87,1.28,1.27,1.27
68.69,7.97,6.70,7.97,6.70,-6.70,-6.52,-6.79,1.27,1.27,1.27
69.37,7.96,6.69,7.96,6.69,-6.69,-6.52,-6.71,1.27,1.27,1.27
70.07,7.95,6.68,7.95,6.68,-6.68,-6.52,-6.62,1.27,1.27,1.27
70.77,7.94,6.67,7.94,6.67,-6.67,-6.52,-6.53,1.27,1.27,1.27
71.48,7.93,6.67,7.93,6.66,-6.66,-6.51,-6.43,1.27,1.27,1.26
72.19,7.91,6.65,7.91,6.65,-6.64,-6.51,-6.33,1.27,1.27,1.26
72.91,7.90,6.64,7.90,6.63,-6.63,-6.50,-6.24,1.27,1.27,1.26
73.64,7.88,6.62,7.88,6.61,-6.61,-6.49,-6.14,1.27,1.27,1.26
74.38,7.86,6.59,7.86,6.59,-6.59,-6.49,-6.04,1.26,1.27,1.27
75.12,7.84,6.57,7.84,6.57,-6.58,-6.48,-5.94,1.26,1.27,1.27
75.87,7.83,6.56,7.83,6.55,-6.55,-6.47,-5.84,1.28,1.27,1.27
76.63,7.81,6.54,7.81,6.53,-6.53,-6.46,-5.75,1.28,1.28,1.27
77.40,7.78,6.51,7.78,6.51,-6.51,-6.44,-5.65,1.27,1.28,1.27
78.17,7.76,6.49,7.76,6.48,-6.48,-6.43,-5.56,1.28,1.28,1.27
78.95,7.73,6.46,7.73,6.46,-6.46,-6.41,-5.47,1.27,1.27,1.27
79.74,7.70,6.43,7.70,6.43,-6.43,-6.40,-5.38,1.27,1.28,1.27
80.54,7.67,6.40,7.67,6.40,-6.40,-6.38,-5.29,1.27,1.28,1.27
81.35,7.65,6.37,7.64,6.36,-6.36,-6.36,-5.21,1.29,1.28,1.28
82.16,7.61,6.33,7.61,6.33,-6.33,-6.33,-5.13,1.28,1.28,1.28
82.98,7.57,6.29,7.58,6.29,-6.29,-6.31,-5.05,1.28,1.29,1.28
83.81,7.55,6.26,7.54,6.25,-6.25,-6.28,-4.98,1.30,1.29,1.29
84.65,7.51,6.22,7.51,6.21,-6.21,-6.26,-4.91,1.30,1.30,1.29
85.50,7.46,6.17,7.47,6.17,-6.17,-6.23,-4.84,1.29,1.30,1.29
86.35,7.43,6.13,7.42,6.13,-6.13,-6.19,-4.78,1.30,1.30,1.30
87.22,7.38,6.08,7.38,6.08,-6.08,-6.16,-4.72,1.30,1.30,1.30
88.09,7.34,6.04,7.34,6.03,-6.03,-6.12,-4.66,1.31,1.31,1.30
88.97,7.29,5.98,7.29,5.98,-5.98,-6.08,-4.61,1.31,1.31,1.31
89.86,7.25,5.94,7.25,5.93,-5.93,-6.04,-4.56,1.32,1.32,1.31
90.76,7.20,5.88,7.20,5.88,-5.88,-6.00,-4.52,1.32,1.32,1.32
91.66,7.15,5.83,7.15,5.83,-5.83,-5.95,-4.47,1.32,1.33,1.32
92.58,7.10,5.78,7.10,5.77,-5.77,-5.90,-4.44,1.33,1.33,1.32
93.51,7.04,5.71,7.04,5.71,-5.71,-5.85,-4.40,1.33,1.33,1.33
94.44,6.99,5.66,6.99,5.66,-5.65,-5.80,-4.37,1.33,1.33,1.33
95.39,6.93,5.60,6.93,5.59,-5.60,-5.74,-4.34,1.33,1.33,1.33
96.34,6.87,5.54,6.87,5.54,-5.54,-5.68,-4.31,1.33,1.33,1.33
97.30,6.80,5.47,6.81,5.47,-5.47,-5.62,-4.29,1.33,1.33,1.33
98.28,6.75,5.42,6.74,5.41,-5.41,-5.56,-4.27,1.34,1.33,1.33
99.26,6.67,5.35,6.68,5.35,-5.35,-5.49,-4.25,1.32,1.33,1.32
100.25,6.61,5.29,6.61,5.28,-5.28,-5.42,-4.23,1.33,1.32,1.32
101.25,6.54,5.22,6.54,5.21,-5.22,-5.35,-4.22,1.32,1.32,1.32
102.27,6.46,5.15,6.47,5.15,-5.15,-5.27,-4.21,1.31,1.32,1.31
103.29,6.39,5.08,6.39,5.08,-5.08,-5.19,-4.20,1.31,1.31,1.31
104.32,6.32,5.02,6.32,5.01,-5.01,-5.11,-4.19,1.31,1.31,1.30
105.37,6.24,4.94,6.24,4.93,-4.93,-5.03,-4.18,1.31,1.31,1.30
106.42,6.16,4.86,6.16,4.86,-4.85,-4.95,-4.17,1.31,1.31,1.30
107.48,6.07,4.77,6.07,4.77,-4.77,-4.86,-4.16,1.30,1.30,1.30
108.56,5.99,4.70,5.99,4.69,-4.69,-4.77,-4.16,1.30,1.29,1.29
109.64,5.90,4.61,5.90,4.61,-4.61,-4.68,-4.15,1.29,1.29,1.29
110.74,5.81,4.52,5.81,4.52,-4.52,-4.59,-4.14,1.29,1.29,1.29
111.85,5.73,4.45,5.73,4.44,-4.44,-4.49,-4.13,1.29,1.29,1.28
112.97,5.64,4.36,5.64,4.36,-4.35,-4.39,-4.12,1.29,1.29,1.28
114.10,5.55,4.28,5.55,4.27,-4.27,-4.30,-4.11,1.28,1.28,1.27
115.24,5.44,4.17,5.45,4.18,-4.18,-4.20,-4.09,1.26,1.27,1.27
116.39,5.35,4.10,5.35,4.09,-4.09,-4.09,-4.07,1.26,1.25,1.25
117.55,5.25,4.01,5.25,4.00,-4.01,-3.99,-4.05,1.24,1.24,1.24
118.73,5.15,3.92,5.15,3.92,-3.92,-3.89,-4.03,1.23,1.23,1.23
119.92,5.05,3.84,5.05,3.84,-3.84,-3.78,-4.00,1.21,1.21,1.21
121.12,4.95,3.76,4.95,3.75,-3.75,-3.68,-3.97,1.20,1.20,1.19
122.33,4.84,3.67,4.84,3.67,-3.67,-3.57,-3.94,1.17,1.17,1.17
123.55,4.74,3.59,4.74,3.58,-3.59,-3.46,-3.90,1.15,1.15,1.15
124.79,4.63,3.50,4.63,3.50,-3.50,-3.36,-3.85,1.13,1.13,1.13
126.03,4.52,3.42,4.52,3.42,-3.42,-3.25,-3.81,1.10,1.11,1.10
127.29,4.41,3.33,4.41,3.33,-3.33,-3.14,-3.76,1.08,1.09,1.08
128.57,4.31,3.25,4.30,3.24,-3.23,-3.03,-3.70,1.08,1.07,1.06
129.85,4.19,3.15,4.19,3.15,-3.14,-2.92,-3.64,1.05,1.05,1.04
131.15,4.08,3.05,4.08,3.04,-3.04,-2.82,-3.58,1.04,1.03,1.03
132.46,3.96,2.94,3.96,2.94,-2.94,-2.71,-3.51,1.02,1.02,1.02
133.79,3.85,2.84,3.85,2.84,-2.84,-2.60,-3.43,1.01,1.01,1.01
135.12,3.74,2.74,3.74,2.73,-2.73,-2.49,-3.36,1.01,1.01,1.00
136.48,3.63,2.63,3.63,2.63,-2.62,-2.39,-3.28,1.01,1.00,1.00
137.84,3.51,2.52,3.51,2.52,-2.52,-2.28,-3.19,0.99,1.00,0.99
139.22,3.40,2.41,3.40,2.40,-2.40,-2.18,-3.11,1.00,0.99,0.99
140.61,3.28,2.29,3.28,2.29,-2.29,-2.07,-3.02,0.99,0.99,0.99
142.02,3.17,2.18,3.17,2.18,-2.18,-1.97,-2.93,0.99,0.99,0.99
143.44,3.06,2.07,3.06,2.06,-2.06,-1.87,-2.84,1.00,1.00,0.99
144.87,2.94,1.95,2.94,1.95,-1.94,-1.77,-2.74,1.00,1.00,0.99
146.32,2.83,1.84,2.83,1.83,-1.83,-1.67,-2.65,1.00,1.00,0.99
147.78,2.71,1.71,2.71,1.71,-1.71,-1.57,-2.55,1.00,1.00,1.00
149.26,2.60,1.60,2.60,1.59,-1.60,-1.47,-2.45,1.00,1.00,1.00
150.75,2.48,1.48,2.49,1.48,-1.48,-1.37,-2.35,0.99,1.00,1.00
152.26,2.38,1.38,2.38,1.37,-1.37,-1.28,-2.25,1.01,1.00,1.00
153.78,2.27,1.27,2.27,1.26,-1.26,-1.19,-2.15,1.01,1.00,1.00
155.32,2.16,1.16,2.16,1.16,-1.16,-1.10,-2.05,1.00,1.01,1.00
156.88,2.05,1.05,2.05,1.05,-1.05,-1.00,-1.95,1.00,1.00,1.00
158.44,1.95,0.95,1.95,0.95,-0.95,-0.92,-1.85,1.00,1.00,1.00
160.03,1.85,0.85,1.85,0.84,-0.85,-0.83,-1.75,1.00,1.00,1.00
161.63,1.75,0.75,1.75,0.75,-0.75,-0.74,-1.65,1.00,1.00,1.00
163.24,1.65,0.65,1.65,0.65,-0.65,-0.66,-1.55,1.00,1.01,1.00
164.88,1.56,0.56,1.56,0.55,-0.55,-0.58,-1.45,1.01,1.01,1.00
166.53,1.47,0.46,1.47,0.46,-0.46,-0.50,-1.35,1.01,1.01,1.01
168.19,1.37,0.36,1.38,0.36,-0.36,-0.42,-1.26,1.01,1.01,1.01
169.87,1.29,0.28,1.29,0.27,-0.27,-0.34,-1.16,1.02,1.01,1.01
171.57,1.20,0.18,1.20,0.18,-0.18,-0.27,-1.06,1.02,1.02,1.02
173.29,1.12,0.10,1.12,0.10,-0.09,-0.19,-0.96,1.03,1.03,1.02
175.02,1.04,0.02,1.04,0.01,-0.01,-0.12,-0.86,1.03,1.03,1.02
176.77,0.96,-0.07,0.96,-0.07,0.07,-0.05,-0.77,1.03,1.03,1.03
178.54,0.88,-0.15,0.88,-0.15,0.15,0.02,-0.67,1.03,1.04,1.03
180.32,0.81,-0.23,0.81,-0.24,0.23,0.09,-0.58,1.04,1.04,1.04
182.13,0.73,-0.31,0.73,-0.31,0.31,0.15,-0.48,1.04,1.04,1.04
183.95,0.66,-0.38,0.66,-0.39,0.38,0.21,-0.39,1.04,1.05,1.04
185.79,0.60,-0.45,0.60,-0.45,0.45,0.27,-0.29,1.05,1.05,1.05
187.65,0.53,-0.52,0.53,-0.52,0.52,0.33,-0.20,1.05,1.06,1.05
189.52,0.47,-0.58,0.47,-0.59,0.59,0.39,-0.11,1.06,1.06,1.05
191.42,0.41,-0.65,0.41,-0.65,0.65,0.45,-0.01,1.06,1.06,1.06
193.33,0.35,-0.71,0.35,-0.71,0.71,0.50,0.08,1.06,1.06,1.06
195.27,0.29,-0.77,0.29,-0.77,0.77,0.55,0.17,1.06,1.06,1.06
197.22,0.25,-0.81,0.24,-0.82,0.82,0.61,0.26,1.07,1.07,1.06
199.19,0.19,-0.88,0.20,-0.87,0.88,0.65,0.35,1.07,1.07,1.07
201.18,0.15,-0.92,0.15,-0.92,0.92,0.70,0.44,1.07,1.07,1.07
203.19,0.11,-0.96,0.11,-0.97,0.97,0.75,0.52,1.08,1.07,1.07
205.23,0.06,-1.01,0.07,-1.01,1.01,0.79,0.61,1.07,1.07,1.07
207.28,0.03,-1.04,0.03,-1.05,1.05,0.83,0.69,1.08,1.07,1.07
209.35,-0.01,-1.08,-0.01,-1.08,1.08,0.87,0.78,1.07,1.07,1.07
211.44,-0.04,-1.11,-0.04,-1.11,1.12,0.91,0.86,1.08,1.08,1.07
213.56,-0.07,-1.14,-0.07,-1.15,1.15,0.95,0.94,1.08,1.07,1.07
215.69,-0.10,-1.17,-0.10,-1.17,1.17,0.99,1.02,1.07,1.07,1.07
217.85,-0.13,-1.20,-0.13,-1.20,1.20,1.02,1.09,1.07,1.07,1.07
220.03,-0.15,-1.22,-0.15,-1.22,1.23,1.05,1.17,1.08,1.08,1.07
222.23,-0.17,-1.24,-0.17,-1.25,1.25,1.08,1.24,1.08,1.08,1.07
224.45,-0.19,-1.26,-0.19,-1.27,1.27,1.11,1.31,1.08,1.07,1.07
226.70,-0.22,-1.29,-0.21,-1.29,1.29,1.14,1.37,1.07,1.07,1.07
228.96,-0.23,-1.30,-0.23,-1.30,1.30,1.16,1.44,1.07,1.07,1.07
231.25,-0.24,-1.31,-0.24,-1.32,1.31,1.19,1.49,1.07,1.07,1.07
233.57,-0.26,-1.32,-0.25,-1.32,1.32,1.21,1.55,1.06,1.07,1.06
235.90,-0.26,-1.32,-0.26,-1.33,1.33,1.23,1.60,1.07,1.06,1.06
238.26,-0.27,-1.33,-0.27,-1.33,1.33,1.25,1.65,1.06,1.06,1.06
240.64,-0.28,-1.33,-0.28,-1.33,1.34,1.27,1.69,1.06,1.06,1.05
243.05,-0.28,-1.33,-0.28,-1.34,1.34,1.28,1.73,1.06,1.06,1.05
245.48,-0.28,-1.33,-0.28,-1.34,1.34,1.30,1.76,1.06,1.05,1.05
247.93,-0.29,-1.34,-0.28,-1.34,1.34,1.31,1.79,1.05,1.05,1.05
250.41,-0.28,-1.33,-0.28,-1.33,1.33,1.32,1.81,1.05,1.05,1.05
252.92,-0.28,-1.32,-0.28,-1.33,1.33,1.33,1.83,1.05,1.05,1.04
255.45,-0.28,-1.32,-0.28,-1.32,1.32,1.34,1.84,1.04,1.04,1.04
258.00,-0.27,-1.31,-0.27,-1.31,1.31,1.34,1.86,1.04,1.04,1.04
260.58,-0.27,-1.30,-0.27,-1.30,1.30,1.35,1.86,1.03,1.04,1.03
263.19,-0.26,-1.29,-0.26,-1.29,1.29,1.35,1.86,1.03,1.03,1.03
265.82,-0.25,-1.27,-0.25,-1.28,1.28,1.35,1.86,1.03,1.03,1.02
268.48,-0.24,-1.26,-0.24,-1.26,1.27,1.35,1.85,1.03,1.02,1.02
271.16,-0.23,-1.24,-0.23,-1.25,1.25,1.35,1.84,1.02,1.02,1.01
273.87,-0.23,-1.24,-0.22,-1.24,1.23,1.34,1.83,1.00,1.01,1.01
276.61,-0.21,-1.21,-0.21,-1.22,1.22,1.34,1.81,1.01,1.00,1.00
279.38,-0.20,-1.20,-0.20,-1.20,1.20,1.33,1.80,1.00,1.00,1.00
282.17,-0.18,-1.17,-0.18,-1.18,1.18,1.32,1.77,1.00,0.99,0.99
284.99,-0.17,-1.15,-0.17,-1.15,1.16,1.31,1.75,0.99,0.99,0.98
287.84,-0.16,-1.13,-0.16,-1.13,1.13,1.30,1.72,0.97,0.98,0.97
290.72,-0.14,-1.10,-0.14,-1.11,1.11,1.29,1.70,0.97,0.97,0.96
293.63,-0.13,-1.09,-0.13,-1.09,1.09,1.27,1.67,0.96,0.96,0.96
296.57,-0.11,-1.06,-0.11,-1.07,1.07,1.26,1.64,0.95,0.95,0.95
299.53,-0.10,-1.04,-0.10,-1.04,1.04,1.24,1.61,0.94,0.95,0.94
302.53,-0.08,-1.02,-0.08,-1.02,1.02,1.22,1.57,0.94,0.94,0.94
305.55,-0.06,-0.99,-0.06,-1.00,1.00,1.20,1.54,0.94,0.94,0.93
308.61,-0.05,-0.98,-0.05,-0.98,0.99,1.18,1.51,0.93,0.94,0.93
311.69,-0.04,-0.97,-0.04,-0.97,0.97,1.16,1.48,0.93,0.93,0.93
314.81,-0.02,-0.94,-0.02,-0.95,0.95,1.13,1.44,0.93,0.92,0.92
317.96,-0.01,-0.93,-0.01,-0.93,0.93,1.11,1.41,0.92,0.92,0.92
321.14,0.01,-0.91,0.01,-0.91,0.91,1.08,1.38,0.92,0.92,0.92
324.35,0.02,-0.89,0.02,-0.89,0.89,1.05,1.35,0.91,0.92,0.91
327.59,0.04,-0.87,0.04,-0.87,0.88,1.02,1.31,0.92,0.91,0.91
330.87,0.05,-0.85,0.05,-0.86,0.86,1.00,1.28,0.91,0.91,0.90
334.18,0.07,-0.83,0.07,-0.84,0.84,0.96,1.25,0.91,0.91,0.90
337.52,0.08,-0.82,0.08,-0.82,0.82,0.93,1.22,0.90,0.90,0.90
340.90,0.10,-0.79,0.10,-0.80,0.80,0.90,1.19,0.90,0.89,0.89
344.30,0.11,-0.78,0.11,-0.78,0.78,0.87,1.16,0.89,0.89,0.89
347.75,0.12,-0.76,0.12,-0.76,0.76,0.84,1.14,0.88,0.88,0.88
351.23,0.14,-0.73,0.14,-0.74,0.74,0.80,1.11,0.88,0.87,0.87
354.74,0.15,-0.71,0.15,-0.72,0.72,0.77,1.08,0.87,0.87,0.86
358.28,0.16,-0.70,0.16,-0.70,0.70,0.74,1.06,0.86,0.86,0.86
361.87,0.18,-0.67,0.17,-0.68,0.68,0.70,1.04,0.86,0.85,0.85
365.49,0.18,-0.66,0.18,-0.66,0.66,0.67,1.01,0.84,0.84,0.84
369.14,0.19,-0.64,0.19,-0.64,0.64,0.64,0.99,0.83,0.83,0.83
372.83,0.21,-0.61,0.20,-0.62,0.62,0.60,0.97,0.83,0.82,0.82
376.56,0.21,-0.60,0.21,-0.60,0.60,0.57,0.95,0.81,0.82,0.81
380.33,0.22,-0.58,0.22,-0.58,0.58,0.54,0.93,0.80,0.80,0.80
384.13,0.23,-0.56,0.23,-0.57,0.57,0.51,0.91,0.80,0.79,0.79
387.97,0.23,-0.55,0.23,-0.55,0.55,0.48,0.89,0.78,0.78,0.78
391.85,0.24,-0.53,0.24,-0.53,0.53,0.46,0.88,0.77,0.78,0.77
395.77,0.25,-0.51,0.25,-0.52,0.52,0.43,0.86,0.77,0.77,0.76
399.73,0.25,-0.50,0.25,-0.51,0.51,0.41,0.85,0.76,0.76,0.75
403.72,0.25,-0.50,0.25,-0.50,0.50,0.39,0.83,0.75,0.75,0.75
407.76,0.26,-0.48,0.26,-0.49,0.48,0.37,0.82,0.74,0.74,0.74
411.84,0.26,-0.47,0.26,-0.48,0.47,0.35,0.81,0.73,0.73,0.73
415.96,0.26,-0.46,0.26,-0.47,0.47,0.34,0.80,0.73,0.72,0.72
420.12,0.25,-0.46,0.25,-0.46,0.46,0.33,0.79,0.71,0.71,0.71
424.32,0.25,-0.45,0.25,-0.45,0.45,0.32,0.78,0.70,0.71,0.70
428.56,0.25,-0.44,0.24,-0.45,0.45,0.31,0.77,0.70,0.69,0.69
432.85,0.24,-0.44,0.24,-0.45,0.45,0.31,0.76,0.69,0.68,0.68
437.18,0.22,-0.45,0.23,-0.45,0.45,0.31,0.75,0.67,0.67,0.67
441.55,0.22,-0.44,0.21,-0.45,0.45,0.31,0.75,0.67,0.66,0.66
445.96,0.20,-0.44,0.20,-0.45,0.45,0.32,0.74,0.65,0.65,0.64
450.42,0.18,-0.45,0.18,-0.45,0.45,0.32,0.74,0.63,0.64,0.63
454.93,0.16,-0.46,0.16,-0.46,0.46,0.34,0.73,0.62,0.62,0.62
459.48,0.14,-0.46,0.14,-0.47,0.47,0.35,0.73,0.61,0.61,0.60
464.07,0.12,-0.47,0.12,-0.48,0.48,0.37,0.73,0.60,0.59,0.59
468.71,0.09,-0.49,0.09,-0.49,0.49,0.39,0.73,0.58,0.58,0.58
473.40,0.07,-0.50,0.07,-0.50,0.50,0.41,0.73,0.57,0.57,0.57
478.13,0.05,-0.50,0.05,-0.51,0.51,0.44,0.73,0.56,0.56,0.55
482.91,0.03,-0.51,0.03,-0.51,0.52,0.47,0.73,0.55,0.55,0.54
487.74,0.01,-0.52,0.01,-0.53,0.53,0.50,0.73,0.54,0.54,0.53
492.62,-0.02,-0.54,-0.02,-0.54,0.54,0.53,0.73,0.52,0.52,0.52
497.55,-0.04,-0.55,-0.04,-0.55,0.55,0.57,0.74,0.51,0.51,0.51
502.52,-0.06,-0.56,-0.06,-0.56,0.56,0.61,0.74,0.50,0.50,0.50
507.55,-0.09,-0.57,-0.08,-0.57,0.57,0.65,0.75,0.48,0.49,0.48
512.62,-0.10,-0.57,-0.10,-0.58,0.58,0.69,0.75,0.48,0.48,0.47
517.75,-0.12,-0.58,-0.13,-0.59,0.59,0.73,0.76,0.47,0.47,0.46
522.93,-0.16,-0.61,-0.15,-0.60,0.60,0.78,0.77,0.44,0.46,0.45
528.16,-0.17,-0.61,-0.18,-0.62,0.62,0.82,0.78,0.45,0.44,0.44
533.44,-0.20,-0.63,-0.20,-0.63,0.63,0.87,0.79,0.43,0.43,0.43
538.77,-0.23,-0.65,-0.23,-0.65,0.65,0.92,0.80,0.42,0.43,0.42
544.16,-0.26,-0.67,-0.26,-0.68,0.68,0.97,0.81,0.42,0.42,0.41
