frequency,raw,error,smoothed,error_smoothed,equalization,parametric_eq,fixed_band_eq,equalized_raw,equalized_smoothed,target
20.00,-2.87,-7.93,-2.87,-7.93,6.00,5.00,1.25,3.13,3.13,5.06
20.20,-2.85,-7.91,-2.84,-7.91,6.00,5.10,1.31,3.15,3.16,5.06
20.40,-2.82,-7.89,-2.82,-7.90,6.00,5.20,1.36,3.18,3.18,5.07
20.61,-2.80,-7.88,-2.80,-7.88,6.00,5.30,1.42,3.20,3.20,5.08
20.81,-2.77,-7.85,-2.77,-7.86,6.00,5.40,1.48,3.23,3.23,5.08
21.02,-2.75,-7.84,-2.74,-7.83,6.00,5.50,1.54,3.25,3.26,5.09
21.23,-2.71,-7.80,-2.70,-7.80,6.00,5.60,1.60,3.29,3.30,5.09
21.44,-2.66,-7.76,-2.66,-7.76,6.00,5.70,1.66,3.34,3.34,5.10
21.66,-2.62,-7.73,-2.62,-7.73,6.00,5.80,1.73,3.38,3.38,5.11
21.87,-2.58,-7.69,-2.58,-7.69,6.00,5.89,1.80,3.42,3.42,5.11
22.09,-2.54,-7.66,-2.53,-7.65,6.00,5.99,1.87,3.46,3.47,5.12
22.31,-2.48,-7.61,-2.48,-7.60,6.00,6.08,1.95,3.52,3.52,5.13
22.54,-2.42,-7.55,-2.42,-7.56,6.00,6.16,2.03,3.58,3.58,5.13
22.76,-2.37,-7.51,-2.36,-7.50,6.00,6.24,2.10,3.63,3.64,5.14
22.99,-2.31,-7.46,-2.30,-7.45,6.00,6.32,2.19,3.69,3.70,5.15
23.22,-2.24,-7.40,-2.24,-7.40,6.00,6.39,2.27,3.76,3.76,5.16
23.45,-2.17,-7.34,-2.17,-7.34,6.00,6.45,2.36,3.83,3.83,5.17
23.69,-2.10,-7.28,-2.10,-7.27,6.00,6.50,2.44,3.90,3.90,5.18
23.92,-2.02,-7.20,-2.02,-7.20,6.00,6.54,2.53,3.98,3.98,5.19
24.16,-1.94,-7.13,-1.93,-7.13,6.00,6.58,2.63,4.06,4.07,5.20
24.40,-1.84,-7.04,-1.84,-7.05,6.00,6.60,2.72,4.16,4.16,5.21
24.65,-1.75,-6.97,-1.75,-6.97,6.00,6.61,2.82,4.25,4.25,5.23
24.89,-1.65,-6.89,-1.65,-6.89,6.00,6.61,2.91,4.35,4.35,5.24
25.14,-1.55,-6.79,-1.55,-6.79,6.00,6.60,3.01,4.45,4.45,5.25
25.39,-1.43,-6.69,-1.44,-6.70,6.01,6.57,3.11,4.57,4.57,5.26
25.65,-1.33,-6.59,-1.32,-6.59,6.02,6.52,3.21,4.69,4.70,5.27
25.91,-1.21,-6.49,-1.20,-6.49,6.03,6.46,3.30,4.82,4.82,5.28
26.16,-1.07,-6.37,-1.08,-6.37,6.02,6.39,3.40,4.95,4.94,5.29
26.43,-0.95,-6.25,-0.95,-6.25,6.01,6.29,3.50,5.06,5.06,5.30
26.69,-0.82,-6.13,-0.82,-6.13,5.97,6.19,3.59,5.15,5.15,5.31
26.96,-0.68,-6.01,-0.68,-6.00,5.91,6.06,3.68,5.24,5.24,5.33
27.23,-0.53,-5.87,-0.53,-5.87,5.83,5.92,3.76,5.30,5.31,5.34
27.50,-0.37,-5.73,-0.37,-5.73,5.73,5.76,3.84,5.36,5.35,5.36
27.77,-0.21,-5.58,-0.21,-5.59,5.60,5.59,3.91,5.39,5.39,5.37
28.05,-0.06,-5.45,-0.05,-5.43,5.46,5.41,3.98,5.40,5.41,5.39
28.33,0.13,-5.26,0.13,-5.27,5.29,5.21,4.04,5.43,5.42,5.40
28.62,0.31,-5.11,0.31,-5.11,5.12,5.00,4.08,5.43,5.43,5.42
28.90,0.49,-4.93,0.50,-4.93,4.94,4.78,4.12,5.43,5.44,5.43
29.19,0.69,-4.75,0.69,-4.75,4.75,4.55,4.14,5.45,5.45,5.45
29.48,0.90,-4.55,0.89,-4.56,4.56,4.30,4.15,5.47,5.46,5.45
29.78,1.10,-4.37,1.11,-4.37,4.36,4.05,4.14,5.46,5.47,5.47
30.08,1.32,-4.16,1.33,-4.15,4.15,3.79,4.12,5.47,5.48,5.48
30.38,1.58,-3.92,1.57,-3.93,3.92,3.52,4.08,5.50,5.49,5.50
30.68,1.83,-3.68,1.83,-3.68,3.68,3.25,4.02,5.51,5.51,5.51
30.99,2.09,-3.44,2.10,-3.43,3.43,2.97,3.94,5.52,5.53,5.53
31.30,2.38,-3.16,2.38,-3.16,3.16,2.69,3.84,5.54,5.54,5.54
31.61,2.68,-2.87,2.68,-2.88,2.88,2.40,3.72,5.56,5.55,5.56
31.93,2.98,-2.59,2.99,-2.58,2.58,2.10,3.59,5.56,5.57,5.57
32.24,3.31,-2.28,3.30,-2.28,2.28,1.81,3.43,5.59,5.58,5.58
32.57,3.63,-1.96,3.63,-1.97,1.97,1.51,3.26,5.60,5.59,5.59
32.89,3.96,-1.66,3.96,-1.65,1.65,1.21,3.07,5.61,5.61,5.61
33.22,4.29,-1.33,4.30,-1.32,1.32,0.91,2.86,5.62,5.62,5.62
33.55,4.65,-0.99,4.64,-0.99,0.99,0.60,2.64,5.64,5.64,5.64
33.89,4.99,-0.65,4.99,-0.66,0.66,0.30,2.40,5.65,5.65,5.65
34.23,5.34,-0.32,5.34,-0.32,0.32,-0.01,2.15,5.67,5.67,5.66
34.57,5.69,0.02,5.69,0.02,-0.02,-0.32,1.89,5.68,5.68,5.67
34.92,6.04,0.36,6.04,0.36,-0.36,-0.63,1.62,5.68,5.69,5.68
35.27,6.40,0.70,6.40,0.70,-0.70,-0.94,1.34,5.70,5.69,5.70
35.62,6.75,1.04,6.75,1.04,-1.05,-1.25,1.05,5.70,5.70,5.71
35.97,7.11,1.39,7.11,1.39,-1.39,-1.56,0.76,5.71,5.72,5.72
36.33,7.47,1.74,7.46,1.74,-1.74,-1.87,0.45,5.73,5.73,5.72
36.70,7.82,2.09,7.82,2.09,-2.09,-2.19,0.15,5.73,5.74,5.73
37.06,8.18,2.44,8.18,2.44,-2.44,-2.50,-0.16,5.74,5.74,5.74
37.43,8.54,2.79,8.53,2.79,-2.79,-2.81,-0.48,5.75,5.75,5.75
37.81,8.88,3.13,8.89,3.13,-3.14,-3.13,-0.79,5.75,5.75,5.75
38.19,9.24,3.48,9.24,3.48,-3.49,-3.44,-1.11,5.75,5.75,5.76
38.57,9.60,3.83,9.61,3.84,-3.84,-3.76,-1.43,5.76,5.76,5.77
38.95,9.98,4.20,9.97,4.20,-4.19,-4.08,-1.76,5.78,5.78,5.78
39.34,10.34,4.55,10.34,4.55,-4.55,-4.39,-2.08,5.79,5.79,5.78
39.74,10.69,4.90,10.69,4.91,-4.90,-4.71,-2.41,5.79,5.79,5.79
40.14,11.05,5.26,11.05,5.26,-5.26,-5.03,-2.74,5.79,5.79,5.79
40.54,11.40,5.61,11.40,5.61,-5.61,-5.35,-3.07,5.79,5.79,5.79
40.94,11.76,5.97,11.76,5.97,-5.97,-5.67,-3.40,5.80,5.80,5.80
41.35,12.12,6.32,12.12,6.32,-6.32,-6.00,-3.73,5.80,5.80,5.81
41.76,12.49,6.68,12.49,6.68,-6.68,-6.32,-4.07,5.81,5.81,5.81
42.18,12.85,7.03,12.85,7.03,-7.03,-6.65,-4.40,5.82,5.82,5.82
42.60,13.21,7.38,13.20,7.38,-7.38,-6.98,-4.74,5.83,5.83,5.82
43.03,13.55,7.72,13.56,7.73,-7.73,-7.31,-5.08,5.83,5.83,5.83
43.46,13.91,8.08,13.91,8.07,-8.07,-7.64,-5.42,5.84,5.84,5.84
43.90,14.26,8.42,14.26,8.42,-8.41,-7.97,-5.76,5.85,5.85,5.84
44.33,14.61,8.75,14.61,8.75,-8.75,-8.31,-6.11,5.85,5.85,5.86
44.78,14.95,9.09,14.95,9.09,-9.09,-8.65,-6.45,5.86,5.86,5.86
45.23,15.29,9.42,15.30,9.43,-9.43,-8.99,-6.80,5.86,5.87,5.87
45.68,15.64,9.76,15.64,9.76,-9.76,-9.33,-7.16,5.88,5.88,5.88
46.13,15.99,10.10,15.98,10.09,-10.09,-9.68,-7.51,5.89,5.89,5.89
46.60,16.32,10.42,16.32,10.43,-10.43,-10.02,-7.88,5.89,5.89,5.90
47.06,16.66,10.76,16.67,10.76,-10.76,-10.37,-8.24,5.90,5.90,5.90
47.53,17.01,11.10,17.01,11.10,-11.10,-10.73,-8.61,5.91,5.91,5.92
48.01,17.37,11.45,17.37,11.44,-11.44,-11.08,-8.99,5.93,5.92,5.92
48.49,17.71,11.78,17.72,11.78,-11.78,-11.44,-9.37,5.93,5.93,5.93
48.97,18.07,12.13,18.07,12.12,-12.13,-11.80,-9.75,5.94,5.94,5.94
49.46,18.41,12.46,18.42,12.47,-12.48,-12.16,-10.14,5.94,5.94,5.95
49.96,18.77,12.82,18.77,12.82,-12.82,-12.53,-10.54,5.95,5.95,5.95
50.46,19.12,13.17,19.12,13.16,-13.17,-12.89,-10.95,5.95,5.95,5.96
50.96,19.47,13.51,19.48,13.51,-13.52,-13.26,-11.36,5.96,5.96,5.97
51.47,19.82,13.85,19.82,13.85,-13.85,-13.62,-11.78,5.97,5.97,5.97
51.99,20.16,14.19,20.16,14.19,-14.18,-13.98,-12.21,5.98,5.98,5.97
52.51,20.48,14.51,20.48,14.51,-14.50,-14.34,-12.65,5.98,5.98,5.97
53.03,20.80,14.83,20.79,14.82,-14.81,-14.70,-13.09,6.00,5.99,5.97
53.56,21.07,15.09,21.08,15.10,-15.10,-15.04,-13.54,5.98,5.98,5.98
54.10,21.35,15.37,21.35,15.37,-15.37,-15.38,-14.00,5.98,5.98,5.98
54.64,21.60,15.62,21.60,15.62,-15.63,-15.71,-14.47,5.98,5.98,5.98
55.18,21.84,15.87,21.84,15.86,-15.86,-16.03,-14.94,5.98,5.98,5.97
55.74,22.05,16.08,22.05,16.08,-16.08,-16.33,-15.41,5.97,5.97,5.97
56.29,22.24,16.27,22.25,16.28,-16.28,-16.61,-15.89,5.97,5.97,5.97
56.86,22.42,16.46,22.42,16.46,-16.46,-16.86,-16.37,5.97,5.97,5.96
57.42,22.57,16.62,22.58,16.62,-16.61,-17.09,-16.84,5.96,5.96,5.96
58.00,22.71,16.77,22.70,16.76,-16.75,-17.29,-17.30,5.96,5.95,5.95
58.58,22.80,16.86,22.81,16.87,-16.87,-17.46,-17.74,5.94,5.94,5.94
59.16,22.89,16.96,22.89,16.96,-16.96,-17.60,-18.15,5.93,5.93,5.93
59.76,22.95,17.04,22.95,17.04,-17.04,-17.70,-18.53,5.91,5.92,5.92
60.35,22.99,17.09,23.00,17.09,-17.09,-17.76,-18.86,5.90,5.90,5.90
60.96,23.02,17.14,23.02,17.13,-17.13,-17.79,-19.14,5.89,5.89,5.89
61.57,23.01,17.14,23.02,17.15,-17.15,-17.78,-19.34,5.87,5.87,5.87
62.18,23.00,17.15,23.00,17.15,-17.15,-17.73,-19.47,5.86,5.86,5.86
62.80,22.97,17.13,22.97,17.13,-17.13,-17.66,-19.53,5.84,5.84,5.84
63.43,22.91,17.09,22.92,17.09,-17.09,-17.56,-19.50,5.82,5.82,5.82
64.07,22.84,17.05,22.84,17.04,-17.04,-17.44,-19.40,5.80,5.80,5.80
64.71,22.75,16.97,22.76,16.97,-16.97,-17.29,-19.24,5.78,5.78,5.78
65.35,22.65,16.89,22.65,16.89,-16.89,-17.13,-19.02,5.77,5.76,5.76
66.01,22.53,16.79,22.53,16.79,-16.79,-16.95,-18.75,5.74,5.74,5.74
66.67,22.39,16.67,22.40,16.67,-16.68,-16.76,-18.44,5.71,5.72,5.72
67.33,22.25,16.55,22.25,16.55,-16.56,-16.56,-18.11,5.69,5.70,5.70
68.01,22.10,16.43,22.10,16.42,-16.42,-16.36,-17.77,5.68,5.67,5.67
68.69,21.93,16.28,21.93,16.28,-16.28,-16.15,-17.41,5.65,5.65,5.65
69.37,21.75,16.12,21.76,16.13,-16.12,-15.94,-17.05,5.63,5.64,5.63
70.07,21.57,15.96,21.57,15.96,-15.96,-15.74,-16.68,5.62,5.61,5.61
70.77,21.37,15.78,21.37,15.78,-15.78,-15.53,-16.32,5.60,5.59,5.59
71.48,21.15,15.59,21.16,15.59,-15.59,-15.32,-15.97,5.57,5.57,5.57
72.19,20.93,15.39,20.93,15.39,-15.39,-15.12,-15.62,5.55,5.55,5.54
72.91,20.70,15.17,20.70,15.17,-15.18,-14.92,-15.28,5.53,5.52,5.53
73.64,20.46,14.96,20.46,14.96,-14.96,-14.72,-14.95,5.50,5.50,5.50
74.38,20.21,14.73,20.22,14.73,-14.73,-14.52,-14.63,5.48,5.48,5.49
75.12,19.97,14.51,19.97,14.50,-14.51,-14.32,-14.32,5.47,5.46,5.46
75.87,19.71,14.27,19.72,14.27,-14.27,-14.13,-14.02,5.44,5.44,5.44
76.63,19.46,14.03,19.46,14.04,-14.04,-13.93,-13.73,5.43,5.43,5.43
77.40,19.21,13.80,19.21,13.80,-13.80,-13.73,-13.45,5.42,5.41,5.41
78.17,18.95,13.56,18.95,13.56,-13.56,-13.53,-13.18,5.39,5.39,5.39
78.95,18.69,13.32,18.69,13.32,-13.32,-13.32,-12.92,5.37,5.37,5.37
79.74,18.43,13.08,18.44,13.08,-13.08,-13.11,-12.67,5.35,5.36,5.35
80.54,18.18,12.85,18.18,12.84,-12.84,-12.90,-12.42,5.34,5.33,5.33
81.35,17.92,12.61,17.92,12.61,-12.61,-12.68,-12.19,5.31,5.31,5.31
82.16,17.66,12.37,17.67,12.38,-12.38,-12.46,-11.96,5.28,5.29,5.29
82.98,17.42,12.15,17.42,12.15,-12.16,-12.25,-11.74,5.27,5.26,5.27
83.81,17.18,11.94,17.18,11.94,-11.94,-12.03,-11.53,5.24,5.24,5.25
84.65,16.95,11.73,16.95,11.73,-11.73,-11.82,-11.32,5.22,5.22,5.22
85.50,16.73,11.53,16.73,11.53,-11.53,-11.60,-11.13,5.20,5.20,5.20
86.35,16.51,11.34,16.51,11.34,-11.34,-11.40,-10.93,5.17,5.17,5.18
87.22,16.30,11.15,16.31,11.15,-11.16,-11.19,-10.75,5.15,5.15,5.15
88.09,16.10,10.98,16.11,10.98,-10.98,-10.99,-10.57,5.12,5.13,5.13
88.97,15.92,10.81,15.92,10.81,-10.82,-10.80,-10.40,5.11,5.11,5.11
89.86,15.74,10.66,15.74,10.65,-10.66,-10.61,-10.24,5.09,5.08,5.09
90.76,15.56,10.50,15.56,10.50,-10.50,-10.43,-10.07,5.06,5.06,5.06
91.66,15.38,10.34,15.39,10.35,-10.35,-10.25,-9.92,5.03,5.04,5.04
92.58,15.22,10.21,15.22,10.21,-10.21,-10.07,-9.77,5.02,5.02,5.02
93.51,15.06,10.07,15.06,10.07,-10.06,-9.90,-9.63,5.00,5.00,4.99
94.44,14.89,9.92,14.89,9.92,-9.91,-9.73,-9.49,4.98,4.98,4.97
95.39,14.71,9.77,14.71,9.76,-9.75,-9.57,-9.35,4.96,4.96,4.94
96.34,14.52,9.60,14.52,9.60,-9.59,-9.41,-9.22,4.93,4.93,4.93
97.30,14.33,9.44,14.34,9.44,-9.43,-9.25,-9.10,4.91,4.91,4.90
98.28,14.14,9.28,14.14,9.27,-9.27,-9.10,-8.97,4.88,4.88,4.87
99.26,13.95,9.11,13.95,9.10,-9.11,-8.94,-8.86,4.84,4.84,4.84
100.25,13.75,8.93,13.74,8.92,-8.96,-8.80,-8.74,4.80,4.79,4.82
101.25,13.54,8.75,13.55,8.76,-8.81,-8.65,-8.63,4.74,4.75,4.79
102.27,13.36,8.60,13.39,8.63,-8.66,-8.51,-8.52,4.71,4.74,4.76
103.29,13.26,8.54,13.25,8.52,-8.51,-8.37,-8.42,4.75,4.74,4.72
104.32,13.12,8.43,13.10,8.40,-8.36,-8.23,-8.32,4.76,4.74,4.69
105.37,12.91,8.25,12.92,8.26,-8.21,-8.09,-8.22,4.70,4.70,4.66
106.42,12.69,8.07,12.70,8.07,-8.06,-7.96,-8.13,4.63,4.64,4.62
107.48,12.47,7.89,12.48,7.89,-7.90,-7.83,-8.03,4.57,4.58,4.59
108.56,12.27,7.73,12.27,7.72,-7.74,-7.70,-7.94,4.53,4.53,4.55
109.64,12.07,7.57,12.07,7.56,-7.57,-7.57,-7.85,4.50,4.50,4.51
110.74,11.87,7.41,11.88,7.41,-7.41,-7.45,-7.76,4.46,4.47,4.47
111.85,11.68,7.25,11.68,7.25,-7.26,-7.33,-7.67,4.43,4.43,4.43
112.97,11.49,7.11,11.48,7.10,-7.11,-7.20,-7.59,4.38,4.37,4.38
114.10,11.28,6.94,11.29,6.95,-6.97,-7.09,-7.50,4.31,4.32,4.34
115.24,11.10,6.81,11.13,6.84,-6.84,-6.97,-7.42,4.27,4.29,4.29
116.39,10.99,6.74,10.98,6.72,-6.71,-6.85,-7.34,4.28,4.27,4.26
117.55,10.85,6.64,10.83,6.62,-6.59,-6.74,-7.25,4.26,4.23,4.21
118.73,10.65,6.48,10.66,6.49,-6.48,-6.63,-7.17,4.17,4.18,4.17
119.92,10.48,6.36,10.49,6.37,-6.38,-6.52,-7.09,4.10,4.11,4.12
121.12,10.33,6.25,10.35,6.27,-6.29,-6.41,-7.00,4.05,4.07,4.09
122.33,10.25,6.20,10.24,6.19,-6.20,-6.31,-6.92,4.05,4.04,4.05
123.55,10.15,6.14,10.13,6.12,-6.12,-6.20,-6.83,4.03,4.01,4.01
124.79,10.02,6.04,10.03,6.05,-6.04,-6.10,-6.75,3.98,3.98,3.98
126.03,9.89,5.95,9.92,5.98,-5.98,-6.00,-6.66,3.92,3.94,3.94
127.29,9.83,5.92,9.82,5.91,-5.91,-5.91,-6.58,3.92,3.91,3.91
128.57,9.74,5.87,9.73,5.85,-5.85,-5.81,-6.49,3.89,3.87,3.88
129.85,9.63,5.79,9.64,5.80,-5.79,-5.72,-6.40,3.84,3.85,3.84
131.15,9.52,5.71,9.54,5.73,-5.72,-5.64,-6.31,3.80,3.82,3.81
132.46,9.46,5.69,9.44,5.66,-5.66,-5.55,-6.22,3.81,3.78,3.78
133.79,9.34,5.59,9.34,5.59,-5.59,-5.47,-6.14,3.76,3.75,3.75
135.12,9.20,5.48,9.23,5.51,-5.51,-5.39,-6.05,3.69,3.72,3.72
136.48,9.14,5.45,9.12,5.43,-5.43,-5.31,-5.96,3.71,3.69,3.69
137.84,9.01,5.35,9.02,5.36,-5.35,-5.24,-5.87,3.66,3.67,3.66
139.22,8.92,5.29,8.92,5.28,-5.27,-5.17,-5.78,3.65,3.64,3.63
140.61,8.81,5.21,8.80,5.19,-5.19,-5.10,-5.69,3.62,3.61,3.60
142.02,8.66,5.08,8.69,5.11,-5.12,-5.04,-5.60,3.54,3.57,3.58
143.44,8.60,5.05,8.59,5.03,-5.05,-4.98,-5.51,3.56,3.54,3.56
144.87,8.48,4.95,8.49,4.97,-4.98,-4.93,-5.42,3.51,3.52,3.53
146.32,8.42,4.93,8.41,4.92,-4.91,-4.87,-5.34,3.51,3.50,3.49
147.78,8.32,4.86,8.32,4.86,-4.85,-4.82,-5.25,3.47,3.47,3.47
149.26,8.24,4.80,8.25,4.81,-4.80,-4.78,-5.17,3.44,3.45,3.44
150.75,8.16,4.75,8.16,4.75,-4.76,-4.73,-5.08,3.41,3.41,3.42
152.26,8.10,4.71,8.10,4.71,-4.71,-4.70,-5.00,3.39,3.38,3.39
153.78,8.02,4.67,8.03,4.67,-4.67,-4.66,-4.92,3.35,3.36,3.36
155.32,7.98,4.65,7.97,4.64,-4.64,-4.63,-4.84,3.35,3.34,3.33
156.88,7.91,4.60,7.92,4.61,-4.60,-4.60,-4.76,3.31,3.31,3.31
158.44,7.86,4.57,7.86,4.57,-4.57,-4.57,-4.69,3.29,3.29,3.29
160.03,7.80,4.55,7.81,4.55,-4.54,-4.55,-4.62,3.26,3.26,3.26
161.63,7.75,4.52,7.75,4.52,-4.52,-4.53,-4.54,3.23,3.23,3.24
163.24,7.71,4.51,7.71,4.50,-4.50,-4.51,-4.47,3.22,3.21,3.21
164.88,7.65,4.47,7.66,4.48,-4.48,-4.49,-4.40,3.18,3.19,3.19
166.53,7.62,4.47,7.62,4.46,-4.46,-4.48,-4.34,3.16,3.16,3.16
168.19,7.58,4.45,7.58,4.45,-4.45,-4.47,-4.27,3.14,3.13,3.13
169.87,7.53,4.43,7.54,4.44,-4.44,-4.47,-4.21,3.09,3.10,3.10
171.57,7.50,4.43,7.51,4.43,-4.44,-4.46,-4.15,3.07,3.07,3.07
173.29,7.48,4.44,7.48,4.43,-4.44,-4.46,-4.09,3.05,3.04,3.05
175.02,7.45,4.43,7.46,4.44,-4.44,-4.46,-4.04,3.01,3.01,3.02
176.77,7.43,4.45,7.44,4.45,-4.45,-4.46,-3.98,2.98,2.98,2.98
178.54,7.42,4.47,7.42,4.47,-4.47,-4.46,-3.93,2.96,2.96,2.96
180.32,7.41,4.49,7.41,4.49,-4.48,-4.47,-3.88,2.93,2.93,2.92
182.13,7.40,4.50,7.40,4.51,-4.50,-4.47,-3.83,2.90,2.90,2.90
183.95,7.38,4.52,7.39,4.52,-4.52,-4.48,-3.79,2.86,2.86,2.86
185.79,7.37,4.54,7.37,4.54,-4.54,-4.49,-3.74,2.83,2.83,2.83
187.65,7.35,4.55,7.36,4.56,-4.56,-4.49,-3.70,2.79,2.80,2.81
189.52,7.35,4.58,7.35,4.58,-4.58,-4.50,-3.66,2.78,2.77,2.77
191.42,7.34,4.60,7.34,4.59,-4.59,-4.50,-3.62,2.75,2.75,2.74
193.33,7.31,4.60,7.32,4.60,-4.60,-4.50,-3.58,2.72,2.72,2.71
195.27,7.28,4.60,7.29,4.60,-4.60,-4.50,-3.55,2.68,2.69,2.69
197.22,7.25,4.60,7.25,4.59,-4.59,-4.50,-3.51,2.66,2.65,2.66
199.19,7.20,4.58,7.21,4.58,-4.58,-4.49,-3.48,2.62,2.62,2.63
201.18,7.15,4.57,7.15,4.56,-4.56,-4.48,-3.45,2.59,2.59,2.58
203.19,7.09,4.54,7.09,4.54,-4.53,-4.46,-3.42,2.56,2.56,2.55
205.23,7.02,4.50,7.03,4.50,-4.50,-4.44,-3.39,2.53,2.53,2.52
207.28,6.95,4.46,6.95,4.46,-4.45,-4.40,-3.36,2.50,2.50,2.50
209.35,6.87,4.41,6.87,4.40,-4.41,-4.37,-3.33,2.46,2.46,2.47
211.44,6.77,4.35,6.78,4.35,-4.36,-4.32,-3.30,2.42,2.42,2.43
213.56,6.68,4.28,6.68,4.29,-4.30,-4.27,-3.28,2.39,2.38,2.40
215.69,6.58,4.22,6.58,4.22,-4.23,-4.21,-3.25,2.35,2.35,2.36
217.85,6.48,4.16,6.49,4.16,-4.15,-4.15,-3.23,2.33,2.34,2.32
220.03,6.38,4.09,6.38,4.09,-4.07,-4.08,-3.20,2.32,2.31,2.29
222.23,6.27,4.01,6.26,4.00,-3.98,-4.00,-3.17,2.29,2.28,2.27
224.45,6.12,3.89,6.12,3.88,-3.88,-3.92,-3.15,2.24,2.24,2.23
226.70,5.96,3.76,5.97,3.77,-3.78,-3.83,-3.12,2.18,2.19,2.20
228.96,5.81,3.64,5.84,3.66,-3.67,-3.73,-3.10,2.14,2.16,2.18
231.25,5.72,3.57,5.70,3.55,-3.56,-3.63,-3.07,2.16,2.14,2.15
233.57,5.59,3.46,5.58,3.45,-3.45,-3.53,-3.04,2.14,2.13,2.13
235.90,5.43,3.33,5.45,3.34,-3.34,-3.43,-3.01,2.10,2.12,2.11
238.26,5.33,3.24,5.32,3.23,-3.22,-3.32,-2.98,2.11,2.10,2.09
240.64,5.19,3.12,5.20,3.12,-3.11,-3.22,-2.95,2.08,2.09,2.08
243.05,5.08,3.02,5.07,3.01,-3.01,-3.11,-2.91,2.08,2.07,2.06
245.48,4.95,2.91,4.95,2.90,-2.90,-3.00,-2.88,2.05,2.04,2.05
247.93,4.80,2.77,4.82,2.79,-2.81,-2.89,-2.84,2.00,2.02,2.03
250.41,4.72,2.71,4.71,2.69,-2.71,-2.78,-2.80,2.01,2.00,2.02
252.92,4.60,2.60,4.61,2.61,-2.62,-2.67,-2.76,1.98,1.99,2.00
255.45,4.53,2.55,4.53,2.54,-2.54,-2.57,-2.72,1.99,1.99,1.99
258.00,4.45,2.48,4.45,2.47,-2.46,-2.46,-2.67,1.99,1.99,1.97
260.58,4.36,2.39,4.37,2.40,-2.39,-2.36,-2.63,1.97,1.98,1.97
263.19,4.28,2.33,4.28,2.32,-2.32,-2.26,-2.58,1.96,1.95,1.96
265.82,4.18,2.24,4.19,2.25,-2.25,-2.16,-2.53,1.93,1.94,1.94
268.48,4.10,2.18,4.11,2.18,-2.19,-2.06,-2.48,1.91,1.92,1.93
271.16,4.04,2.13,4.03,2.12,-2.12,-1.96,-2.43,1.92,1.91,1.91
273.87,3.95,2.05,3.95,2.05,-2.05,-1.87,-2.38,1.90,1.90,1.90
276.61,3.86,1.98,3.87,1.98,-1.98,-1.78,-2.32,1.88,1.89,1.89
279.38,3.79,1.92,3.79,1.92,-1.91,-1.69,-2.27,1.88,1.88,1.87
282.17,3.70,1.84,3.71,1.84,-1.83,-1.60,-2.21,1.87,1.87,1.86
284.99,3.62,1.77,3.61,1.77,-1.75,-1.51,-2.15,1.87,1.86,1.85
287.84,3.50,1.67,3.51,1.67,-1.66,-1.43,-2.10,1.84,1.84,1.84
290.72,3.39,1.57,3.39,1.57,-1.57,-1.35,-2.04,1.82,1.83,1.82
293.63,3.27,1.46,3.28,1.47,-1.47,-1.27,-1.98,1.80,1.81,1.81
296.57,3.16,1.37,3.16,1.36,-1.37,-1.20,-1.92,1.80,1.79,1.80
299.53,3.04,1.26,3.04,1.26,-1.26,-1.12,-1.86,1.78,1.78,1.79
302.53,2.92,1.15,2.92,1.15,-1.15,-1.05,-1.80,1.77,1.77,1.77
305.55,2.80,1.05,2.80,1.04,-1.05,-0.98,-1.74,1.76,1.75,1.75
308.61,2.67,0.93,2.68,0.94,-0.94,-0.91,-1.68,1.73,1.74,1.74
311.69,2.55,0.83,2.56,0.84,-0.83,-0.84,-1.62,1.72,1.73,1.73
314.81,2.45,0.75,2.44,0.74,-0.73,-0.78,-1.56,1.73,1.72,1.70
317.96,2.33,0.64,2.33,0.64,-0.63,-0.72,-1.50,1.70,1.70,1.69
321.14,2.20,0.53,2.20,0.53,-0.53,-0.66,-1.45,1.67,1.67,1.67
324.35,2.08,0.42,2.09,0.43,-0.45,-0.60,-1.39,1.64,1.64,1.66
327.59,1.98,0.35,1.99,0.36,-0.37,-0.54,-1.33,1.61,1.63,1.64
330.87,1.92,0.30,1.91,0.29,-0.30,-0.49,-1.27,1.63,1.62,1.63
334.18,1.85,0.25,1.84,0.24,-0.23,-0.44,-1.21,1.62,1.61,1.60
337.52,1.76,0.17,1.77,0.18,-0.18,-0.39,-1.16,1.58,1.60,1.59
340.90,1.71,0.14,1.71,0.13,-0.13,-0.34,-1.10,1.58,1.58,1.57
344.30,1.64,0.08,1.65,0.09,-0.09,-0.29,-1.04,1.55,1.56,1.56
347.75,1.60,0.06,1.60,0.06,-0.05,-0.25,-0.99,1.55,1.55,1.54
351.23,1.54,0.03,1.54,0.02,-0.02,-0.20,-0.93,1.53,1.52,1.52
354.74,1.48,-0.02,1.49,-0.01,0.02,-0.16,-0.88,1.50,1.50,1.51
358.28,1.43,-0.05,1.44,-0.05,0.04,-0.12,-0.82,1.48,1.48,1.49
361.87,1.40,-0.06,1.40,-0.07,0.07,-0.09,-0.77,1.47,1.46,1.46
365.49,1.36,-0.09,1.37,-0.09,0.08,-0.05,-0.71,1.45,1.45,1.45
369.14,1.33,-0.10,1.34,-0.10,0.10,-0.02,-0.66,1.43,1.44,1.43
372.83,1.31,-0.11,1.31,-0.11,0.11,0.01,-0.61,1.43,1.42,1.42
376.56,1.28,-0.12,1.28,-0.12,0.12,0.04,-0.55,1.41,1.41,1.40
380.33,1.26,-0.12,1.26,-0.12,0.13,0.07,-0.50,1.39,1.39,1.38
384.13,1.23,-0.14,1.24,-0.13,0.13,0.09,-0.45,1.36,1.36,1.37
387.97,1.22,-0.12,1.22,-0.13,0.12,0.12,-0.40,1.34,1.34,1.35
391.85,1.21,-0.12,1.21,-0.12,0.11,0.14,-0.35,1.32,1.32,1.34
395.77,1.21,-0.11,1.22,-0.11,0.10,0.16,-0.30,1.31,1.31,1.33
399.73,1.22,-0.09,1.23,-0.09,0.08,0.18,-0.25,1.30,1.31,1.32
403.72,1.24,-0.06,1.24,-0.06,0.06,0.20,-0.20,1.31,1.30,1.30
407.76,1.25,-0.04,1.25,-0.04,0.05,0.22,-0.15,1.30,1.30,1.29
411.84,1.26,-0.01,1.26,-0.02,0.03,0.23,-0.10,1.30,1.29,1.27
415.96,1.25,-0.01,1.25,-0.01,0.02,0.24,-0.05,1.28,1.28,1.26
420.12,1.23,-0.02,1.24,-0.02,0.02,0.26,-0.01,1.25,1.26,1.25
424.32,1.21,-0.03,1.21,-0.03,0.03,0.27,0.04,1.24,1.24,1.24
428.56,1.19,-0.04,1.19,-0.04,0.04,0.28,0.08,1.23,1.23,1.23
432.85,1.16,-0.05,1.16,-0.05,0.05,0.29,0.13,1.21,1.22,1.21
437.18,1.13,-0.07,1.13,-0.07,0.07,0.29,0.17,1.20,1.20,1.20
441.55,1.10,-0.09,1.10,-0.09,0.08,0.30,0.21,1.19,1.18,1.19
445.96,1.06,-0.11,1.06,-0.11,0.10,0.31,0.25,1.16,1.16,1.17
450.42,1.02,-0.13,1.03,-0.12,0.11,0.31,0.29,1.13,1.14,1.15
454.93,1.00,-0.13,1.00,-0.13,0.12,0.31,0.32,1.13,1.13,1.14
459.48,0.98,-0.13,0.98,-0.13,0.13,0.32,0.36,1.12,1.12,1.12
464.07,0.96,-0.13,0.96,-0.14,0.14,0.32,0.39,1.11,1.11,1.10
468.71,0.94,-0.13,0.94,-0.14,0.15,0.32,0.42,1.09,1.09,1.08
473.40,0.90,-0.16,0.91,-0.16,0.15,0.32,0.45,1.06,1.06,1.07
478.13,0.88,-0.16,0.88,-0.17,0.16,0.32,0.48,1.04,1.04,1.05
482.91,0.85,-0.18,0.86,-0.18,0.16,0.32,0.50,1.02,1.02,1.04
487.74,0.84,-0.17,0.84,-0.17,0.17,0.32,0.52,1.02,1.02,1.02
492.62,0.82,-0.18,0.83,-0.18,0.19,0.32,0.54,1.01,1.01,1.00
497.55,0.81,-0.18,0.81,-0.19,0.20,0.31,0.56,1.01,1.01,0.99
