frequency,raw,error,smoothed,error_smoothed,equalization,parametric_eq,fixed_band_eq,equalized_raw,equalized_smoothed,target
20.00,-6.10,-7.71,-6.10,-7.71,6.00,6.09,2.76,-0.10,-0.10,1.61
20.20,-6.05,-7.65,-6.05,-7.65,6.00,6.09,2.84,-0.05,-0.05,1.60
20.40,-6.01,-7.60,-6.01,-7.60,6.00,6.08,2.92,-0.01,-0.01,1.59
20.61,-5.96,-7.55,-5.96,-7.54,6.00,6.08,3.00,0.04,0.04,1.59
20.81,-5.91,-7.48,-5.91,-7.49,6.00,6.07,3.09,0.09,0.09,1.57
21.02,-5.87,-7.44,-5.87,-7.44,6.00,6.07,3.18,0.13,0.13,1.57
21.23,-5.82,-7.39,-5.82,-7.39,6.00,6.06,3.27,0.18,0.18,1.57
21.44,-5.77,-7.34,-5.77,-7.33,6.00,6.06,3.36,0.23,0.23,1.57
21.66,-5.72,-7.28,-5.72,-7.28,6.00,6.05,3.45,0.28,0.28,1.56
21.87,-5.67,-7.23,-5.67,-7.23,6.00,6.05,3.55,0.33,0.33,1.56
22.09,-5.64,-7.20,-5.64,-7.20,6.00,6.04,3.65,0.36,0.36,1.56
22.31,-5.63,-7.19,-5.63,-7.18,6.00,6.04,3.76,0.37,0.37,1.56
22.54,-5.62,-7.16,-5.62,-7.17,6.00,6.03,3.87,0.38,0.38,1.55
22.76,-5.61,-7.16,-5.61,-7.16,6.00,6.03,3.98,0.39,0.39,1.55
22.99,-5.60,-7.15,-5.59,-7.14,6.00,6.02,4.09,0.40,0.41,1.55
23.22,-5.56,-7.11,-5.56,-7.12,6.00,6.02,4.20,0.44,0.44,1.55
23.45,-5.52,-7.07,-5.52,-7.07,6.00,6.01,4.32,0.48,0.48,1.55
23.69,-5.48,-7.04,-5.47,-7.03,6.00,6.01,4.44,0.52,0.53,1.56
23.92,-5.43,-6.99,-5.44,-7.01,6.00,6.01,4.56,0.57,0.56,1.56
24.16,-5.42,-7.00,-5.42,-7.00,6.00,6.00,4.69,0.58,0.58,1.58
24.40,-5.42,-7.01,-5.42,-7.00,6.00,6.00,4.81,0.58,0.58,1.59
24.65,-5.42,-7.01,-5.42,-7.01,6.00,6.00,4.94,0.58,0.58,1.59
24.89,-5.42,-7.01,-5.41,-7.00,6.00,5.99,5.07,0.58,0.59,1.59
25.14,-5.39,-6.96,-5.38,-6.96,6.00,5.99,5.21,0.61,0.62,1.58
25.39,-5.33,-6.90,-5.33,-6.91,6.00,5.99,5.34,0.67,0.67,1.58
25.65,-5.27,-6.85,-5.27,-6.85,6.00,5.99,5.47,0.73,0.73,1.58
25.91,-5.21,-6.79,-5.22,-6.80,6.00,5.99,5.61,0.79,0.78,1.58
26.16,-5.19,-6.77,-5.19,-6.78,6.00,5.98,5.74,0.81,0.81,1.58
26.43,-5.19,-6.77,-5.19,-6.77,6.00,5.98,5.88,0.81,0.81,1.58
26.69,-5.19,-6.77,-5.19,-6.77,6.00,5.98,6.01,0.81,0.81,1.58
26.96,-5.19,-6.77,-5.18,-6.75,6.00,5.98,6.14,0.81,0.82,1.58
27.23,-5.14,-6.71,-5.13,-6.71,6.00,5.98,6.27,0.86,0.87,1.57
27.50,-5.07,-6.64,-5.07,-6.64,6.00,5.98,6.40,0.93,0.93,1.57
27.77,-5.01,-6.57,-5.01,-6.58,6.00,5.98,6.52,0.99,0.99,1.56
28.05,-4.96,-6.52,-4.97,-6.53,6.00,5.99,6.63,1.04,1.03,1.56
28.33,-4.96,-6.52,-4.96,-6.52,6.00,5.99,6.74,1.04,1.04,1.56
28.62,-4.96,-6.51,-4.95,-6.51,6.00,5.99,6.85,1.04,1.05,1.55
28.90,-4.96,-6.51,-4.96,-6.51,6.00,5.99,6.95,1.04,1.04,1.55
29.19,-4.96,-6.50,-4.96,-6.50,6.00,5.99,7.04,1.04,1.04,1.54
29.48,-4.96,-6.49,-4.96,-6.50,6.00,6.00,7.12,1.04,1.04,1.54
29.78,-4.96,-6.48,-4.96,-6.49,6.00,6.00,7.19,1.04,1.04,1.52
30.08,-4.94,-6.47,-4.93,-6.45,6.00,6.00,7.25,1.06,1.07,1.53
30.38,-4.87,-6.38,-4.87,-6.38,6.00,6.01,7.30,1.13,1.13,1.51
30.68,-4.80,-6.30,-4.80,-6.30,6.00,6.01,7.34,1.20,1.20,1.50
30.99,-4.73,-6.22,-4.75,-6.24,6.00,6.01,7.37,1.27,1.25,1.49
31.30,-4.73,-6.21,-4.73,-6.21,6.00,6.02,7.38,1.27,1.27,1.48
31.61,-4.73,-6.21,-4.72,-6.20,6.00,6.02,7.39,1.27,1.28,1.48
31.93,-4.73,-6.19,-4.73,-6.19,6.00,6.02,7.38,1.27,1.27,1.46
32.24,-4.73,-6.19,-4.73,-6.18,6.00,6.02,7.37,1.27,1.27,1.46
32.57,-4.73,-6.17,-4.73,-6.17,6.00,6.02,7.33,1.27,1.27,1.44
32.89,-4.73,-6.17,-4.73,-6.17,6.00,6.02,7.29,1.28,1.28,1.44
33.22,-4.73,-6.17,-4.73,-6.18,6.01,6.01,7.24,1.28,1.27,1.44
33.55,-4.73,-6.18,-4.73,-6.18,6.00,6.01,7.18,1.27,1.27,1.45
33.89,-4.73,-6.18,-4.72,-6.16,6.00,6.00,7.11,1.27,1.28,1.45
34.23,-4.68,-6.12,-4.67,-6.11,5.99,5.99,7.04,1.31,1.32,1.44
34.57,-4.60,-6.04,-4.60,-6.04,5.98,5.98,6.96,1.38,1.38,1.44
34.92,-4.52,-5.95,-4.54,-5.97,5.97,5.96,6.87,1.45,1.43,1.43
35.27,-4.50,-5.94,-4.50,-5.93,5.95,5.95,6.78,1.45,1.45,1.44
35.62,-4.50,-5.92,-4.49,-5.92,5.94,5.93,6.68,1.44,1.45,1.42
35.97,-4.50,-5.92,-4.50,-5.92,5.93,5.90,6.58,1.43,1.44,1.42
36.33,-4.50,-5.91,-4.50,-5.91,5.92,5.88,6.48,1.42,1.42,1.41
36.70,-4.50,-5.89,-4.50,-5.90,5.90,5.85,6.37,1.40,1.40,1.40
37.06,-4.50,-5.88,-4.50,-5.88,5.87,5.82,6.27,1.37,1.37,1.38
37.43,-4.50,-5.86,-4.51,-5.87,5.83,5.79,6.16,1.33,1.32,1.36
37.81,-4.50,-5.84,-4.49,-5.83,5.78,5.76,6.06,1.28,1.29,1.34
38.19,-4.46,-5.78,-4.44,-5.76,5.73,5.72,5.95,1.27,1.29,1.32
38.57,-4.37,-5.65,-4.37,-5.66,5.67,5.69,5.85,1.30,1.29,1.28
38.95,-4.29,-5.55,-4.31,-5.57,5.61,5.65,5.74,1.32,1.29,1.26
39.34,-4.28,-5.50,-4.28,-5.50,5.55,5.61,5.64,1.27,1.27,1.22
39.74,-4.28,-5.48,-4.27,-5.47,5.49,5.57,5.54,1.21,1.22,1.20
40.14,-4.28,-5.44,-4.28,-5.44,5.45,5.53,5.45,1.17,1.17,1.16
40.54,-4.28,-5.42,-4.28,-5.42,5.41,5.49,5.35,1.13,1.13,1.14
40.94,-4.28,-5.39,-4.28,-5.39,5.38,5.45,5.26,1.11,1.11,1.11
41.35,-4.28,-5.37,-4.28,-5.37,5.36,5.41,5.18,1.08,1.08,1.10
41.76,-4.28,-5.35,-4.28,-5.35,5.35,5.37,5.09,1.07,1.07,1.07
42.18,-4.28,-5.33,-4.28,-5.33,5.33,5.33,5.01,1.05,1.05,1.05
42.60,-4.28,-5.31,-4.28,-5.30,5.31,5.29,4.93,1.03,1.03,1.03
43.03,-4.28,-5.28,-4.28,-5.28,5.29,5.24,4.86,1.01,1.01,1.00
43.46,-4.28,-5.25,-4.28,-5.25,5.26,5.20,4.79,0.99,0.99,0.97
43.90,-4.28,-5.22,-4.28,-5.23,5.24,5.16,4.72,0.96,0.96,0.94
44.33,-4.28,-5.21,-4.28,-5.21,5.20,5.12,4.66,0.92,0.92,0.93
44.78,-4.28,-5.18,-4.28,-5.18,5.16,5.08,4.60,0.88,0.88,0.90
45.23,-4.26,-5.14,-4.26,-5.14,5.10,5.04,4.54,0.84,0.84,0.88
45.68,-4.23,-5.07,-4.23,-5.07,5.04,5.00,4.49,0.82,0.82,0.84
46.13,-4.19,-5.00,-4.17,-4.99,4.98,4.96,4.44,0.79,0.81,0.81
46.60,-4.11,-4.89,-4.12,-4.90,4.92,4.91,4.39,0.81,0.80,0.78
47.06,-4.05,-4.80,-4.07,-4.82,4.85,4.87,4.35,0.80,0.78,0.75
47.53,-4.05,-4.77,-4.04,-4.76,4.79,4.83,4.31,0.74,0.74,0.72
48.01,-4.05,-4.72,-4.04,-4.72,4.73,4.79,4.28,0.68,0.69,0.67
48.49,-4.05,-4.69,-4.05,-4.69,4.68,4.75,4.24,0.63,0.63,0.64
48.97,-4.05,-4.64,-4.05,-4.64,4.64,4.70,4.21,0.59,0.59,0.59
49.46,-4.05,-4.61,-4.05,-4.60,4.60,4.66,4.18,0.55,0.55,0.56
49.96,-4.05,-4.56,-4.05,-4.57,4.57,4.62,4.16,0.52,0.52,0.51
50.46,-4.05,-4.54,-4.05,-4.53,4.54,4.57,4.14,0.49,0.49,0.49
50.96,-4.05,-4.50,-4.05,-4.50,4.50,4.53,4.11,0.45,0.45,0.45
51.47,-4.05,-4.47,-4.05,-4.47,4.47,4.49,4.10,0.42,0.42,0.42
51.99,-4.05,-4.44,-4.05,-4.44,4.43,4.44,4.08,0.38,0.38,0.39
52.51,-4.05,-4.39,-4.05,-4.40,4.39,4.39,4.06,0.34,0.34,0.34
53.03,-4.05,-4.37,-4.05,-4.36,4.36,4.35,4.05,0.31,0.31,0.32
53.56,-4.05,-4.31,-4.05,-4.32,4.32,4.30,4.03,0.27,0.27,0.26
54.10,-4.05,-4.27,-4.05,-4.27,4.28,4.25,4.02,0.23,0.23,0.22
54.64,-4.05,-4.22,-4.05,-4.22,4.24,4.20,4.01,0.19,0.19,0.17
55.18,-4.05,-4.18,-4.05,-4.18,4.19,4.16,4.00,0.14,0.14,0.13
55.74,-4.05,-4.14,-4.06,-4.15,4.13,4.11,3.98,0.08,0.07,0.09
56.29,-4.05,-4.11,-4.06,-4.12,4.06,4.06,3.97,0.01,0.01,0.06
56.86,-4.05,-4.08,-4.01,-4.03,4.00,4.00,3.96,-0.05,-0.01,0.03
57.42,-3.95,-3.93,-3.94,-3.93,3.93,3.95,3.94,-0.01,-0.01,-0.02
58.00,-3.82,-3.78,-3.87,-3.83,3.87,3.90,3.93,0.05,0.00,-0.04
58.58,-3.82,-3.75,-3.82,-3.75,3.81,3.85,3.91,-0.01,-0.01,-0.06
59.16,-3.82,-3.73,-3.81,-3.72,3.74,3.79,3.89,-0.08,-0.06,-0.09
59.76,-3.82,-3.70,-3.82,-3.70,3.68,3.74,3.87,-0.13,-0.13,-0.12
60.35,-3.82,-3.65,-3.82,-3.66,3.63,3.69,3.84,-0.19,-0.19,-0.17
60.96,-3.82,-3.61,-3.82,-3.61,3.59,3.63,3.82,-0.23,-0.23,-0.21
61.57,-3.82,-3.56,-3.82,-3.55,3.55,3.58,3.79,-0.27,-0.27,-0.26
62.18,-3.82,-3.50,-3.82,-3.50,3.51,3.52,3.76,-0.31,-0.31,-0.32
62.80,-3.82,-3.46,-3.82,-3.46,3.47,3.47,3.72,-0.35,-0.35,-0.36
63.43,-3.82,-3.41,-3.82,-3.41,3.42,3.41,3.68,-0.40,-0.40,-0.41
64.07,-3.82,-3.38,-3.82,-3.37,3.37,3.36,3.64,-0.45,-0.45,-0.44
64.71,-3.82,-3.33,-3.82,-3.33,3.33,3.31,3.60,-0.49,-0.49,-0.49
65.35,-3.82,-3.28,-3.82,-3.29,3.28,3.25,3.55,-0.54,-0.54,-0.54
66.01,-3.82,-3.24,-3.82,-3.24,3.24,3.20,3.50,-0.58,-0.58,-0.57
66.67,-3.82,-3.21,-3.82,-3.20,3.20,3.15,3.45,-0.62,-0.62,-0.61
67.33,-3.82,-3.15,-3.82,-3.15,3.15,3.10,3.40,-0.67,-0.67,-0.67
68.01,-3.82,-3.11,-3.82,-3.11,3.11,3.05,3.34,-0.71,-0.71,-0.71
68.69,-3.82,-3.06,-3.82,-3.06,3.07,3.00,3.28,-0.75,-0.75,-0.76
69.37,-3.82,-3.02,-3.82,-3.02,3.02,2.95,3.22,-0.80,-0.80,-0.80
70.07,-3.82,-2.98,-3.82,-2.98,2.97,2.91,3.16,-0.85,-0.85,-0.84
70.77,-3.82,-2.94,-3.82,-2.93,2.93,2.86,3.10,-0.89,-0.89,-0.88
71.48,-3.82,-2.88,-3.82,-2.88,2.88,2.82,3.04,-0.94,-0.94,-0.94
72.19,-3.82,-2.84,-3.82,-2.84,2.83,2.78,2.97,-0.98,-0.98,-0.98
72.91,-3.82,-2.79,-3.82,-2.79,2.79,2.74,2.91,-1.03,-1.03,-1.03
73.64,-3.82,-2.74,-3.82,-2.74,2.75,2.70,2.84,-1.07,-1.07,-1.08
74.38,-3.82,-2.70,-3.82,-2.70,2.70,2.66,2.78,-1.12,-1.12,-1.12
75.12,-3.82,-2.66,-3.82,-2.66,2.66,2.62,2.71,-1.16,-1.16,-1.16
75.87,-3.82,-2.63,-3.82,-2.63,2.63,2.58,2.65,-1.19,-1.19,-1.19
76.63,-3.82,-2.60,-3.82,-2.59,2.59,2.55,2.58,-1.23,-1.23,-1.22
77.40,-3.82,-2.57,-3.82,-2.56,2.56,2.51,2.52,-1.26,-1.26,-1.25
78.17,-3.82,-2.52,-3.82,-2.53,2.54,2.47,2.45,-1.28,-1.28,-1.29
78.95,-3.82,-2.51,-3.82,-2.51,2.51,2.44,2.39,-1.31,-1.31,-1.31
79.74,-3.82,-2.48,-3.82,-2.48,2.48,2.40,2.33,-1.34,-1.34,-1.34
80.54,-3.82,-2.45,-3.82,-2.45,2.45,2.37,2.27,-1.37,-1.37,-1.36
81.35,-3.82,-2.42,-3.82,-2.43,2.42,2.33,2.21,-1.40,-1.40,-1.40
82.16,-3.82,-2.40,-3.82,-2.39,2.40,2.30,2.15,-1.42,-1.42,-1.42
82.98,-3.82,-2.36,-3.82,-2.36,2.37,2.26,2.09,-1.45,-1.45,-1.46
83.81,-3.82,-2.32,-3.82,-2.32,2.34,2.22,2.03,-1.48,-1.48,-1.50
84.65,-3.82,-2.28,-3.82,-2.28,2.29,2.19,1.98,-1.53,-1.53,-1.54
85.50,-3.82,-2.24,-3.82,-2.25,2.23,2.15,1.92,-1.59,-1.59,-1.58
86.35,-3.82,-2.21,-3.83,-2.22,2.17,2.11,1.87,-1.65,-1.66,-1.60
87.22,-3.81,-2.17,-3.79,-2.14,2.10,2.07,1.82,-1.71,-1.69,-1.64
88.09,-3.75,-2.06,-3.72,-2.04,2.02,2.03,1.77,-1.73,-1.70,-1.68
88.97,-3.60,-1.87,-3.65,-1.92,1.95,1.99,1.72,-1.65,-1.70,-1.73
89.86,-3.59,-1.82,-3.59,-1.83,1.88,1.95,1.67,-1.71,-1.72,-1.77
90.76,-3.59,-1.78,-3.58,-1.77,1.81,1.91,1.62,-1.78,-1.77,-1.81
91.66,-3.59,-1.74,-3.59,-1.74,1.74,1.87,1.58,-1.84,-1.84,-1.85
92.58,-3.59,-1.69,-3.59,-1.70,1.69,1.83,1.53,-1.90,-1.90,-1.90
93.51,-3.59,-1.66,-3.59,-1.66,1.64,1.78,1.49,-1.95,-1.95,-1.93
94.44,-3.59,-1.62,-3.59,-1.62,1.60,1.74,1.45,-1.99,-1.99,-1.97
95.39,-3.59,-1.57,-3.59,-1.57,1.56,1.70,1.41,-2.03,-2.03,-2.02
96.34,-3.59,-1.53,-3.59,-1.53,1.52,1.65,1.37,-2.06,-2.06,-2.06
97.30,-3.59,-1.48,-3.59,-1.48,1.48,1.61,1.33,-2.11,-2.11,-2.11
98.28,-3.59,-1.44,-3.59,-1.43,1.44,1.56,1.29,-2.15,-2.15,-2.15
99.26,-3.59,-1.38,-3.59,-1.39,1.39,1.51,1.26,-2.20,-2.20,-2.21
100.25,-3.59,-1.35,-3.59,-1.35,1.35,1.47,1.22,-2.24,-2.24,-2.24
101.25,-3.59,-1.32,-3.59,-1.31,1.31,1.42,1.19,-2.28,-2.28,-2.27
102.27,-3.59,-1.27,-3.59,-1.27,1.27,1.38,1.15,-2.32,-2.32,-2.32
103.29,-3.59,-1.23,-3.59,-1.23,1.23,1.33,1.12,-2.36,-2.36,-2.36
104.32,-3.59,-1.20,-3.59,-1.20,1.20,1.28,1.09,-2.39,-2.39,-2.39
105.37,-3.59,-1.16,-3.59,-1.16,1.17,1.24,1.06,-2.42,-2.42,-2.42
106.42,-3.59,-1.14,-3.59,-1.13,1.13,1.19,1.03,-2.45,-2.45,-2.45
107.48,-3.59,-1.09,-3.59,-1.10,1.10,1.14,1.00,-2.48,-2.48,-2.50
108.56,-3.59,-1.08,-3.59,-1.07,1.08,1.10,0.97,-2.51,-2.51,-2.51
109.64,-3.59,-1.05,-3.59,-1.04,1.05,1.05,0.94,-2.54,-2.54,-2.54
110.74,-3.59,-1.01,-3.59,-1.02,1.02,1.01,0.91,-2.57,-2.57,-2.58
111.85,-3.59,-0.99,-3.59,-0.99,0.98,0.96,0.88,-2.60,-2.60,-2.60
112.97,-3.59,-0.96,-3.59,-0.96,0.95,0.92,0.85,-2.64,-2.64,-2.63
114.10,-3.59,-0.93,-3.59,-0.92,0.91,0.87,0.83,-2.67,-2.67,-2.66
115.24,-3.59,-0.88,-3.59,-0.88,0.88,0.83,0.80,-2.71,-2.71,-2.71
116.39,-3.59,-0.83,-3.59,-0.83,0.84,0.79,0.77,-2.75,-2.75,-2.76
117.55,-3.59,-0.79,-3.59,-0.79,0.80,0.74,0.75,-2.79,-2.79,-2.80
118.73,-3.59,-0.75,-3.59,-0.75,0.76,0.70,0.72,-2.83,-2.83,-2.84
119.92,-3.59,-0.72,-3.59,-0.72,0.72,0.66,0.69,-2.87,-2.87,-2.87
121.12,-3.59,-0.69,-3.59,-0.68,0.68,0.62,0.66,-2.91,-2.91,-2.90
122.33,-3.59,-0.64,-3.59,-0.65,0.64,0.58,0.64,-2.95,-2.95,-2.95
123.55,-3.59,-0.61,-3.59,-0.61,0.60,0.55,0.61,-2.99,-2.99,-2.98
124.79,-3.59,-0.57,-3.59,-0.56,0.56,0.51,0.58,-3.03,-3.03,-3.02
126.03,-3.59,-0.52,-3.59,-0.52,0.52,0.47,0.56,-3.07,-3.07,-3.07
127.29,-3.59,-0.47,-3.59,-0.47,0.47,0.44,0.53,-3.12,-3.12,-3.12
128.57,-3.59,-0.43,-3.59,-0.43,0.43,0.40,0.50,-3.16,-3.16,-3.16
129.85,-3.59,-0.39,-3.59,-0.39,0.39,0.37,0.47,-3.20,-3.20,-3.20
131.15,-3.59,-0.34,-3.59,-0.34,0.34,0.34,0.44,-3.25,-3.25,-3.25
132.46,-3.59,-0.29,-3.59,-0.30,0.30,0.30,0.41,-3.29,-3.29,-3.29
133.79,-3.59,-0.26,-3.59,-0.26,0.26,0.27,0.39,-3.33,-3.33,-3.33
135.12,-3.59,-0.22,-3.59,-0.23,0.23,0.24,0.36,-3.36,-3.36,-3.37
136.48,-3.59,-0.20,-3.59,-0.19,0.19,0.21,0.33,-3.40,-3.40,-3.39
137.84,-3.59,-0.16,-3.59,-0.16,0.15,0.18,0.30,-3.43,-3.43,-3.43
139.22,-3.59,-0.12,-3.59,-0.12,0.12,0.14,0.27,-3.47,-3.47,-3.47
140.61,-3.59,-0.09,-3.59,-0.09,0.09,0.11,0.24,-3.50,-3.50,-3.50
142.02,-3.59,-0.05,-3.59,-0.05,0.06,0.08,0.21,-3.53,-3.53,-3.53
143.44,-3.59,-0.02,-3.59,-0.02,0.03,0.05,0.18,-3.56,-3.56,-3.57
144.87,-3.59,0.01,-3.59,0.01,-0.01,0.01,0.14,-3.60,-3.60,-3.60
146.32,-3.59,0.04,-3.59,0.04,-0.04,-0.02,0.11,-3.63,-3.63,-3.63
147.78,-3.59,0.07,-3.59,0.07,-0.07,-0.05,0.08,-3.66,-3.66,-3.65
149.26,-3.59,0.09,-3.59,0.10,-0.10,-0.09,0.05,-3.69,-3.69,-3.68
150.75,-3.59,0.13,-3.59,0.13,-0.13,-0.12,0.02,-3.72,-3.72,-3.72
152.26,-3.59,0.16,-3.59,0.16,-0.16,-0.16,-0.02,-3.75,-3.75,-3.75
153.78,-3.59,0.19,-3.59,0.19,-0.19,-0.20,-0.05,-3.78,-3.78,-3.78
155.32,-3.59,0.22,-3.59,0.22,-0.22,-0.24,-0.08,-3.81,-3.81,-3.81
156.88,-3.59,0.25,-3.59,0.25,-0.25,-0.28,-0.12,-3.84,-3.84,-3.84
158.44,-3.59,0.28,-3.59,0.28,-0.29,-0.32,-0.15,-3.87,-3.87,-3.87
160.03,-3.59,0.32,-3.59,0.32,-0.32,-0.36,-0.19,-3.91,-3.91,-3.91
161.63,-3.59,0.35,-3.59,0.35,-0.35,-0.40,-0.22,-3.94,-3.94,-3.94
163.24,-3.59,0.39,-3.59,0.39,-0.38,-0.44,-0.26,-3.97,-3.97,-3.98
164.88,-3.59,0.42,-3.59,0.42,-0.42,-0.48,-0.29,-4.01,-4.01,-4.01
166.53,-3.59,0.46,-3.59,0.45,-0.45,-0.52,-0.33,-4.04,-4.04,-4.05
168.19,-3.59,0.48,-3.59,0.48,-0.48,-0.56,-0.37,-4.07,-4.07,-4.07
169.87,-3.59,0.51,-3.59,0.51,-0.52,-0.60,-0.40,-4.11,-4.11,-4.10
171.57,-3.59,0.55,-3.59,0.55,-0.55,-0.64,-0.44,-4.14,-4.14,-4.14
173.29,-3.59,0.59,-3.59,0.59,-0.59,-0.69,-0.48,-4.18,-4.18,-4.18
175.02,-3.59,0.62,-3.59,0.62,-0.63,-0.72,-0.52,-4.22,-4.22,-4.21
176.77,-3.59,0.67,-3.59,0.66,-0.67,-0.76,-0.55,-4.25,-4.25,-4.26
178.54,-3.59,0.70,-3.59,0.71,-0.71,-0.80,-0.59,-4.29,-4.29,-4.29
180.32,-3.59,0.75,-3.59,0.75,-0.75,-0.84,-0.63,-4.34,-4.34,-4.34
182.13,-3.59,0.79,-3.59,0.79,-0.79,-0.87,-0.67,-4.38,-4.38,-4.38
183.95,-3.59,0.83,-3.59,0.83,-0.83,-0.91,-0.72,-4.42,-4.42,-4.42
185.79,-3.59,0.87,-3.59,0.87,-0.87,-0.94,-0.76,-4.46,-4.46,-4.46
187.65,-3.59,0.90,-3.59,0.91,-0.91,-0.98,-0.80,-4.50,-4.50,-4.49
189.52,-3.59,0.95,-3.59,0.94,-0.95,-1.01,-0.84,-4.54,-4.54,-4.54
191.42,-3.59,0.98,-3.59,0.98,-0.98,-1.04,-0.88,-4.57,-4.57,-4.57
193.33,-3.59,1.02,-3.59,1.02,-1.02,-1.07,-0.93,-4.61,-4.61,-4.61
195.27,-3.59,1.06,-3.59,1.06,-1.05,-1.10,-0.97,-4.64,-4.64,-4.65
197.22,-3.59,1.09,-3.59,1.09,-1.09,-1.13,-1.01,-4.68,-4.68,-4.68
199.19,-3.59,1.11,-3.59,1.12,-1.12,-1.15,-1.06,-4.71,-4.71,-4.70
201.18,-3.59,1.15,-3.59,1.15,-1.15,-1.18,-1.10,-4.73,-4.73,-4.74
203.19,-3.59,1.17,-3.59,1.17,-1.17,-1.20,-1.14,-4.76,-4.76,-4.76
205.23,-3.59,1.20,-3.59,1.20,-1.20,-1.22,-1.19,-4.79,-4.79,-4.79
207.28,-3.59,1.22,-3.59,1.22,-1.23,-1.25,-1.23,-4.82,-4.82,-4.80
209.35,-3.59,1.25,-3.59,1.25,-1.25,-1.27,-1.27,-4.84,-4.84,-4.84
211.44,-3.59,1.28,-3.59,1.28,-1.28,-1.29,-1.31,-4.87,-4.87,-4.87
213.56,-3.59,1.31,-3.59,1.31,-1.31,-1.31,-1.36,-4.90,-4.90,-4.90
215.69,-3.59,1.33,-3.59,1.33,-1.33,-1.33,-1.40,-4.92,-4.92,-4.92
217.85,-3.59,1.35,-3.59,1.36,-1.36,-1.34,-1.44,-4.95,-4.95,-4.94
220.03,-3.59,1.40,-3.59,1.39,-1.39,-1.36,-1.48,-4.98,-4.98,-4.99
222.23,-3.59,1.42,-3.59,1.42,-1.41,-1.37,-1.51,-5.00,-5.00,-5.01
224.45,-3.59,1.44,-3.59,1.44,-1.44,-1.39,-1.55,-5.03,-5.03,-5.03
226.70,-3.59,1.47,-3.59,1.46,-1.46,-1.40,-1.59,-5.05,-5.05,-5.06
228.96,-3.59,1.48,-3.59,1.48,-1.49,-1.42,-1.62,-5.08,-5.08,-5.07
231.25,-3.59,1.50,-3.59,1.51,-1.51,-1.43,-1.65,-5.10,-5.10,-5.09
233.57,-3.59,1.53,-3.59,1.53,-1.53,-1.44,-1.68,-5.12,-5.12,-5.12
235.90,-3.59,1.55,-3.59,1.55,-1.55,-1.45,-1.71,-5.14,-5.14,-5.14
238.26,-3.59,1.57,-3.59,1.57,-1.57,-1.46,-1.73,-5.16,-5.16,-5.16
240.64,-3.59,1.58,-3.59,1.58,-1.58,-1.47,-1.75,-5.17,-5.17,-5.17
243.05,-3.59,1.60,-3.59,1.60,-1.60,-1.48,-1.77,-5.19,-5.19,-5.19
245.48,-3.59,1.62,-3.59,1.62,-1.61,-1.49,-1.79,-5.20,-5.20,-5.21
247.93,-3.59,1.64,-3.59,1.63,-1.63,-1.50,-1.81,-5.22,-5.22,-5.22
250.41,-3.59,1.63,-3.59,1.64,-1.64,-1.50,-1.82,-5.23,-5.23,-5.22
252.92,-3.59,1.64,-3.59,1.64,-1.65,-1.51,-1.83,-5.24,-5.24,-5.23
255.45,-3.59,1.66,-3.59,1.65,-1.66,-1.52,-1.83,-5.25,-5.25,-5.25
258.00,-3.59,1.67,-3.59,1.67,-1.67,-1.52,-1.84,-5.26,-5.26,-5.25
260.58,-3.59,1.68,-3.59,1.68,-1.68,-1.53,-1.84,-5.27,-5.27,-5.27
263.19,-3.59,1.69,-3.59,1.69,-1.69,-1.53,-1.84,-5.28,-5.28,-5.28
265.82,-3.59,1.69,-3.59,1.70,-1.69,-1.54,-1.83,-5.28,-5.28,-5.28
268.48,-3.59,1.70,-3.59,1.70,-1.70,-1.54,-1.83,-5.29,-5.29,-5.29
271.16,-3.59,1.71,-3.59,1.71,-1.71,-1.54,-1.82,-5.30,-5.30,-5.30
273.87,-3.59,1.71,-3.59,1.71,-1.72,-1.55,-1.81,-5.31,-5.31,-5.30
276.61,-3.59,1.72,-3.59,1.72,-1.72,-1.55,-1.80,-5.31,-5.31,-5.31
279.38,-3.59,1.73,-3.59,1.73,-1.72,-1.55,-1.78,-5.31,-5.31,-5.32
282.17,-3.59,1.73,-3.59,1.73,-1.72,-1.55,-1.77,-5.31,-5.31,-5.32
284.99,-3.59,1.72,-3.59,1.73,-1.72,-1.55,-1.75,-5.31,-5.31,-5.31
287.84,-3.59,1.72,-3.59,1.72,-1.72,-1.56,-1.74,-5.31,-5.31,-5.31
290.72,-3.59,1.72,-3.59,1.72,-1.72,-1.56,-1.72,-5.31,-5.31,-5.31
293.63,-3.59,1.72,-3.59,1.72,-1.72,-1.56,-1.70,-5.31,-5.31,-5.31
296.57,-3.59,1.71,-3.59,1.71,-1.72,-1.56,-1.69,-5.31,-5.31,-5.30
299.53,-3.59,1.72,-3.59,1.71,-1.71,-1.56,-1.67,-5.30,-5.30,-5.30
302.53,-3.59,1.71,-3.59,1.71,-1.71,-1.56,-1.65,-5.30,-5.30,-5.30
305.55,-3.59,1.71,-3.59,1.71,-1.71,-1.56,-1.63,-5.30,-5.30,-5.30
308.61,-3.59,1.71,-3.59,1.71,-1.70,-1.56,-1.61,-5.29,-5.29,-5.30
311.69,-3.59,1.70,-3.59,1.70,-1.70,-1.56,-1.60,-5.29,-5.29,-5.29
314.81,-3.59,1.69,-3.59,1.70,-1.70,-1.55,-1.58,-5.29,-5.29,-5.28
317.96,-3.59,1.70,-3.59,1.69,-1.70,-1.55,-1.56,-5.29,-5.29,-5.29
321.14,-3.59,1.69,-3.59,1.69,-1.69,-1.55,-1.55,-5.28,-5.28,-5.28
324.35,-3.59,1.69,-3.59,1.69,-1.69,-1.55,-1.53,-5.28,-5.28,-5.28
327.59,-3.59,1.69,-3.59,1.69,-1.69,-1.55,-1.52,-5.28,-5.28,-5.28
330.87,-3.59,1.69,-3.59,1.69,-1.69,-1.54,-1.50,-5.27,-5.27,-5.28
334.18,-3.59,1.69,-3.59,1.68,-1.68,-1.54,-1.49,-5.27,-5.27,-5.28
337.52,-3.59,1.67,-3.59,1.68,-1.67,-1.54,-1.48,-5.26,-5.26,-5.26
340.90,-3.59,1.67,-3.59,1.67,-1.67,-1.54,-1.47,-5.26,-5.26,-5.26
344.30,-3.59,1.66,-3.59,1.66,-1.66,-1.53,-1.46,-5.25,-5.25,-5.25
347.75,-3.59,1.64,-3.59,1.65,-1.65,-1.53,-1.45,-5.24,-5.24,-5.23
351.23,-3.59,1.64,-3.59,1.64,-1.64,-1.53,-1.44,-5.23,-5.23,-5.23
354.74,-3.59,1.63,-3.59,1.63,-1.63,-1.52,-1.44,-5.22,-5.22,-5.22
358.28,-3.59,1.63,-3.59,1.63,-1.62,-1.52,-1.43,-5.21,-5.21,-5.22
361.87,-3.59,1.62,-3.59,1.62,-1.62,-1.52,-1.43,-5.21,-5.21,-5.21
365.49,-3.59,1.61,-3.59,1.61,-1.61,-1.51,-1.42,-5.20,-5.20,-5.20
369.14,-3.59,1.60,-3.59,1.60,-1.61,-1.51,-1.42,-5.20,-5.20,-5.19
372.83,-3.59,1.60,-3.59,1.60,-1.60,-1.51,-1.42,-5.19,-5.19,-5.19
376.56,-3.59,1.61,-3.59,1.60,-1.60,-1.50,-1.42,-5.19,-5.19,-5.20
380.33,-3.59,1.60,-3.59,1.60,-1.60,-1.50,-1.42,-5.19,-5.19,-5.19
384.13,-3.59,1.59,-3.59,1.59,-1.59,-1.50,-1.43,-5.18,-5.18,-5.18
387.97,-3.59,1.58,-3.59,1.59,-1.58,-1.49,-1.43,-5.17,-5.17,-5.17
391.85,-3.59,1.58,-3.59,1.59,-1.57,-1.49,-1.43,-5.16,-5.16,-5.17
395.77,-3.59,1.59,-3.59,1.58,-1.57,-1.48,-1.44,-5.16,-5.16,-5.17
399.73,-3.59,1.59,-3.59,1.58,-1.57,-1.48,-1.45,-5.16,-5.16,-5.18
403.72,-3.59,1.57,-3.59,1.58,-1.58,-1.48,-1.45,-5.17,-5.17,-5.16
407.76,-3.59,1.57,-3.61,1.55,-1.59,-1.47,-1.46,-5.18,-5.20,-5.16
411.84,-3.59,1.56,-3.59,1.56,-1.62,-1.47,-1.47,-5.20,-5.20,-5.15
415.96,-3.59,1.54,-3.53,1.61,-1.64,-1.47,-1.48,-5.23,-5.17,-5.13
420.12,-3.41,1.72,-3.45,1.68,-1.67,-1.46,-1.49,-5.08,-5.12,-5.13
424.32,-3.36,1.76,-3.38,1.73,-1.69,-1.46,-1.50,-5.05,-5.07,-5.12
428.56,-3.36,1.75,-3.34,1.77,-1.71,-1.45,-1.51,-5.07,-5.06,-5.10
432.85,-3.36,1.74,-3.35,1.74,-1.73,-1.45,-1.52,-5.09,-5.08,-5.10
437.18,-3.36,1.74,-3.36,1.73,-1.74,-1.45,-1.53,-5.10,-5.10,-5.10
441.55,-3.36,1.72,-3.36,1.72,-1.73,-1.44,-1.54,-5.09,-5.09,-5.08
445.96,-3.36,1.71,-3.36,1.71,-1.72,-1.44,-1.56,-5.08,-5.08,-5.07
450.42,-3.36,1.69,-3.36,1.69,-1.70,-1.44,-1.57,-5.06,-5.06,-5.05
454.93,-3.36,1.68,-3.36,1.68,-1.68,-1.43,-1.58,-5.04,-5.04,-5.04
459.48,-3.36,1.67,-3.36,1.67,-1.67,-1.43,-1.59,-5.03,-5.03,-5.03
