frequency,raw,error,smoothed,error_smoothed,equalization,parametric_eq,fixed_band_eq,equalized_raw,equalized_smoothed,target
20.00,1.18,2.94,1.19,2.95,-2.93,-2.44,-1.98,-1.75,-1.75,-1.76
20.20,1.15,2.90,1.14,2.90,-2.89,-2.49,-2.04,-1.74,-1.75,-1.75
20.40,1.12,2.86,1.11,2.86,-2.85,-2.54,-2.10,-1.74,-1.75,-1.74
20.61,1.09,2.83,1.08,2.82,-2.83,-2.58,-2.16,-1.74,-1.75,-1.74
20.81,1.07,2.80,1.06,2.80,-2.82,-2.63,-2.22,-1.75,-1.76,-1.73
21.02,1.04,2.77,1.06,2.79,-2.82,-2.68,-2.29,-1.78,-1.76,-1.73
21.23,1.09,2.81,1.08,2.81,-2.83,-2.73,-2.36,-1.74,-1.74,-1.72
21.44,1.13,2.85,1.12,2.85,-2.85,-2.78,-2.43,-1.72,-1.73,-1.72
21.66,1.17,2.89,1.17,2.89,-2.88,-2.83,-2.50,-1.72,-1.71,-1.72
21.87,1.22,2.94,1.22,2.94,-2.93,-2.89,-2.57,-1.71,-1.72,-1.72
22.09,1.27,2.98,1.27,2.99,-2.99,-2.94,-2.65,-1.72,-1.72,-1.71
22.31,1.33,3.04,1.33,3.05,-3.05,-2.99,-2.73,-1.73,-1.72,-1.71
22.54,1.40,3.12,1.40,3.12,-3.12,-3.05,-2.81,-1.72,-1.72,-1.72
22.76,1.46,3.19,1.46,3.19,-3.18,-3.10,-2.89,-1.73,-1.72,-1.73
22.99,1.53,3.26,1.52,3.26,-3.25,-3.16,-2.97,-1.72,-1.72,-1.73
23.22,1.58,3.31,1.58,3.32,-3.31,-3.21,-3.06,-1.73,-1.73,-1.73
23.45,1.63,3.37,1.63,3.37,-3.36,-3.27,-3.15,-1.73,-1.73,-1.74
23.69,1.68,3.42,1.68,3.42,-3.41,-3.33,-3.24,-1.73,-1.73,-1.74
23.92,1.72,3.46,1.72,3.47,-3.45,-3.39,-3.33,-1.73,-1.73,-1.74
24.16,1.77,3.51,1.77,3.51,-3.50,-3.45,-3.42,-1.73,-1.73,-1.74
24.40,1.81,3.55,1.80,3.55,-3.55,-3.50,-3.52,-1.74,-1.75,-1.74
24.65,1.85,3.59,1.84,3.59,-3.62,-3.56,-3.61,-1.77,-1.77,-1.74
24.89,1.89,3.63,1.90,3.65,-3.70,-3.62,-3.71,-1.81,-1.79,-1.74
25.14,1.98,3.72,1.99,3.73,-3.78,-3.68,-3.81,-1.80,-1.79,-1.74
25.39,2.10,3.85,2.10,3.85,-3.86,-3.74,-3.91,-1.76,-1.76,-1.75
25.65,2.22,3.97,2.22,3.97,-3.94,-3.80,-4.01,-1.73,-1.72,-1.75
25.91,2.34,4.09,2.32,4.08,-4.02,-3.86,-4.11,-1.69,-1.70,-1.75
26.16,2.40,4.15,2.39,4.15,-4.10,-3.93,-4.21,-1.70,-1.71,-1.75
26.43,2.43,4.18,2.43,4.19,-4.16,-3.99,-4.31,-1.73,-1.73,-1.75
26.69,2.46,4.21,2.46,4.21,-4.22,-4.05,-4.41,-1.76,-1.76,-1.75
26.96,2.49,4.24,2.49,4.24,-4.27,-4.11,-4.51,-1.78,-1.78,-1.75
27.23,2.53,4.28,2.53,4.29,-4.32,-4.17,-4.61,-1.79,-1.79,-1.75
27.50,2.59,4.34,2.58,4.33,-4.37,-4.23,-4.70,-1.79,-1.79,-1.75
27.77,2.64,4.39,2.64,4.39,-4.43,-4.29,-4.80,-1.79,-1.79,-1.75
28.05,2.69,4.44,2.69,4.45,-4.47,-4.35,-4.89,-1.78,-1.77,-1.75
28.33,2.76,4.51,2.77,4.52,-4.49,-4.41,-4.97,-1.73,-1.72,-1.75
28.62,2.83,4.58,2.84,4.59,-4.49,-4.47,-5.06,-1.66,-1.65,-1.75
28.90,2.91,4.65,2.87,4.62,-4.49,-4.53,-5.14,-1.58,-1.62,-1.74
29.19,2.86,4.60,2.84,4.58,-4.51,-4.58,-5.21,-1.66,-1.68,-1.74
29.48,2.75,4.49,2.73,4.47,-4.56,-4.64,-5.28,-1.81,-1.83,-1.74
29.78,2.64,4.37,2.66,4.39,-4.61,-4.70,-5.34,-1.97,-1.96,-1.73
30.08,2.62,4.35,2.69,4.43,-4.65,-4.75,-5.39,-2.03,-1.96,-1.73
30.38,2.87,4.61,2.90,4.63,-4.68,-4.80,-5.44,-1.80,-1.78,-1.73
30.68,3.14,4.87,3.13,4.87,-4.69,-4.86,-5.49,-1.55,-1.56,-1.73
30.99,3.40,5.13,3.27,5.01,-4.71,-4.91,-5.52,-1.32,-1.44,-1.73
31.30,3.22,4.95,3.21,4.94,-4.74,-4.96,-5.55,-1.52,-1.54,-1.73
31.61,3.01,4.74,3.04,4.77,-4.78,-5.01,-5.57,-1.77,-1.75,-1.73
31.93,2.81,4.54,2.88,4.62,-4.82,-5.05,-5.59,-2.01,-1.94,-1.73
32.24,2.87,4.61,2.89,4.63,-4.84,-5.10,-5.60,-1.97,-1.96,-1.74
32.57,3.02,4.76,2.99,4.74,-4.85,-5.14,-5.60,-1.84,-1.86,-1.74
32.89,3.16,4.90,3.14,4.88,-4.86,-5.18,-5.59,-1.70,-1.72,-1.74
33.22,3.25,5.00,3.25,5.00,-4.88,-5.22,-5.58,-1.63,-1.62,-1.75
33.55,3.31,5.06,3.32,5.08,-4.93,-5.26,-5.56,-1.62,-1.60,-1.75
33.89,3.37,5.13,3.35,5.11,-5.01,-5.30,-5.54,-1.64,-1.66,-1.76
34.23,3.34,5.10,3.31,5.07,-5.10,-5.33,-5.51,-1.76,-1.79,-1.76
34.57,3.26,5.02,3.25,5.02,-5.17,-5.36,-5.48,-1.91,-1.91,-1.76
34.92,3.19,4.95,3.26,5.02,-5.21,-5.39,-5.45,-2.02,-1.95,-1.76
35.27,3.36,5.12,3.41,5.17,-5.23,-5.42,-5.41,-1.87,-1.82,-1.76
35.62,3.61,5.37,3.60,5.37,-5.24,-5.44,-5.37,-1.63,-1.64,-1.76
35.97,3.86,5.62,3.72,5.48,-5.26,-5.46,-5.33,-1.40,-1.54,-1.76
36.33,3.68,5.44,3.66,5.42,-5.29,-5.48,-5.29,-1.61,-1.63,-1.76
36.70,3.47,5.23,3.52,5.28,-5.32,-5.50,-5.25,-1.85,-1.81,-1.76
37.06,3.32,5.08,3.41,5.17,-5.35,-5.51,-5.20,-2.03,-1.93,-1.76
37.43,3.47,5.23,3.46,5.22,-5.35,-5.52,-5.16,-1.88,-1.90,-1.76
37.81,3.61,5.36,3.57,5.32,-5.35,-5.53,-5.12,-1.74,-1.78,-1.75
38.19,3.69,5.44,3.67,5.42,-5.35,-5.54,-5.07,-1.66,-1.68,-1.75
38.57,3.69,5.44,3.70,5.45,-5.37,-5.55,-5.03,-1.68,-1.68,-1.75
38.95,3.69,5.43,3.70,5.45,-5.42,-5.55,-4.99,-1.73,-1.72,-1.74
39.34,3.71,5.45,3.70,5.45,-5.47,-5.55,-4.96,-1.76,-1.77,-1.74
39.74,3.73,5.47,3.73,5.47,-5.51,-5.55,-4.92,-1.78,-1.78,-1.74
40.14,3.77,5.51,3.78,5.52,-5.53,-5.55,-4.89,-1.76,-1.75,-1.74
40.54,3.83,5.57,3.83,5.57,-5.54,-5.54,-4.86,-1.71,-1.71,-1.74
40.94,3.88,5.62,3.85,5.59,-5.56,-5.54,-4.83,-1.68,-1.71,-1.74
41.35,3.85,5.59,3.84,5.59,-5.59,-5.53,-4.81,-1.74,-1.75,-1.74
41.76,3.81,5.56,3.83,5.58,-5.62,-5.52,-4.79,-1.81,-1.79,-1.75
42.18,3.83,5.58,3.85,5.60,-5.66,-5.51,-4.77,-1.83,-1.80,-1.75
42.60,3.91,5.66,3.90,5.66,-5.68,-5.50,-4.75,-1.78,-1.78,-1.75
43.03,3.99,5.74,3.96,5.71,-5.70,-5.49,-4.74,-1.71,-1.74,-1.75
43.46,3.99,5.74,3.99,5.75,-5.71,-5.48,-4.74,-1.72,-1.71,-1.75
43.90,3.99,5.75,4.00,5.76,-5.70,-5.46,-4.73,-1.71,-1.70,-1.76
44.33,3.99,5.75,4.00,5.76,-5.70,-5.45,-4.73,-1.71,-1.70,-1.76
44.78,3.99,5.75,3.97,5.73,-5.70,-5.43,-4.73,-1.71,-1.73,-1.76
45.23,3.93,5.69,3.89,5.65,-5.70,-5.42,-4.74,-1.77,-1.81,-1.76
45.68,3.81,5.57,3.84,5.60,-5.70,-5.41,-4.75,-1.89,-1.86,-1.76
46.13,3.78,5.53,3.85,5.61,-5.70,-5.39,-4.77,-1.92,-1.85,-1.75
46.60,3.95,5.70,3.93,5.68,-5.71,-5.38,-4.78,-1.77,-1.79,-1.75
47.06,4.09,5.83,4.03,5.77,-5.73,-5.37,-4.80,-1.64,-1.70,-1.74
47.53,4.09,5.82,4.10,5.83,-5.75,-5.36,-4.83,-1.66,-1.65,-1.73
48.01,4.09,5.81,4.10,5.83,-5.77,-5.35,-4.85,-1.68,-1.66,-1.72
48.49,4.09,5.80,4.09,5.80,-5.79,-5.34,-4.89,-1.70,-1.70,-1.71
48.97,4.09,5.79,4.09,5.79,-5.80,-5.33,-4.92,-1.72,-1.72,-1.70
49.46,4.09,5.78,4.09,5.78,-5.81,-5.33,-4.95,-1.72,-1.72,-1.69
49.96,4.09,5.76,4.08,5.76,-5.81,-5.33,-4.99,-1.72,-1.73,-1.67
50.46,4.09,5.75,4.08,5.74,-5.79,-5.33,-5.03,-1.70,-1.71,-1.66
50.96,4.09,5.73,4.14,5.78,-5.77,-5.33,-5.08,-1.68,-1.63,-1.64
51.47,4.18,5.81,4.19,5.82,-5.76,-5.33,-5.12,-1.59,-1.58,-1.63
51.99,4.28,5.90,4.18,5.80,-5.76,-5.34,-5.17,-1.48,-1.58,-1.62
52.51,4.13,5.74,4.13,5.75,-5.75,-5.35,-5.21,-1.62,-1.61,-1.61
53.03,3.99,5.59,4.07,5.67,-5.72,-5.37,-5.26,-1.73,-1.65,-1.60
53.56,4.04,5.63,4.03,5.62,-5.68,-5.38,-5.31,-1.64,-1.64,-1.59
54.10,4.08,5.65,4.07,5.65,-5.61,-5.40,-5.35,-1.53,-1.54,-1.57
54.64,4.10,5.66,4.08,5.64,-5.54,-5.43,-5.40,-1.44,-1.46,-1.56
55.18,4.04,5.59,3.98,5.54,-5.46,-5.46,-5.45,-1.42,-1.48,-1.55
55.74,3.82,5.37,3.85,5.40,-5.40,-5.49,-5.49,-1.58,-1.55,-1.55
56.29,3.70,5.24,3.74,5.28,-5.35,-5.52,-5.53,-1.66,-1.62,-1.54
56.86,3.69,5.22,3.68,5.22,-5.33,-5.55,-5.57,-1.64,-1.64,-1.53
57.42,3.72,5.25,3.71,5.24,-5.31,-5.59,-5.61,-1.59,-1.60,-1.53
58.00,3.76,5.29,3.75,5.29,-5.31,-5.63,-5.65,-1.55,-1.56,-1.53
58.58,3.81,5.34,3.81,5.35,-5.33,-5.68,-5.68,-1.52,-1.52,-1.53
59.16,3.87,5.40,3.88,5.41,-5.37,-5.72,-5.70,-1.50,-1.49,-1.53
59.76,3.96,5.49,3.94,5.48,-5.43,-5.76,-5.72,-1.47,-1.49,-1.53
60.35,3.99,5.53,3.98,5.52,-5.49,-5.80,-5.74,-1.50,-1.51,-1.54
60.96,3.99,5.54,3.99,5.55,-5.55,-5.84,-5.75,-1.56,-1.55,-1.55
61.57,3.99,5.55,3.99,5.55,-5.60,-5.88,-5.76,-1.61,-1.61,-1.56
62.18,3.99,5.57,3.99,5.58,-5.63,-5.91,-5.76,-1.64,-1.64,-1.58
62.80,4.01,5.61,4.04,5.64,-5.65,-5.93,-5.75,-1.65,-1.62,-1.60
63.43,4.07,5.70,4.07,5.70,-5.66,-5.95,-5.74,-1.59,-1.59,-1.63
64.07,4.13,5.78,4.05,5.71,-5.65,-5.96,-5.73,-1.52,-1.59,-1.65
64.71,3.98,5.66,4.02,5.70,-5.62,-5.96,-5.71,-1.64,-1.60,-1.68
65.35,3.90,5.60,3.93,5.64,-5.60,-5.95,-5.68,-1.70,-1.66,-1.70
66.01,3.89,5.61,3.81,5.53,-5.57,-5.93,-5.65,-1.68,-1.76,-1.72
66.67,3.69,5.43,3.73,5.47,-5.53,-5.89,-5.61,-1.85,-1.81,-1.74
67.33,3.62,5.37,3.67,5.43,-5.50,-5.84,-5.57,-1.88,-1.82,-1.75
68.01,3.69,5.46,3.65,5.42,-5.46,-5.79,-5.53,-1.77,-1.81,-1.77
68.69,3.69,5.47,3.68,5.46,-5.44,-5.72,-5.48,-1.75,-1.76,-1.78
69.37,3.69,5.48,3.70,5.50,-5.44,-5.64,-5.43,-1.75,-1.74,-1.79
70.07,3.69,5.49,3.69,5.49,-5.46,-5.55,-5.38,-1.77,-1.77,-1.80
70.77,3.69,5.50,3.64,5.45,-5.49,-5.46,-5.32,-1.80,-1.84,-1.81
71.48,3.62,5.43,3.65,5.47,-5.52,-5.35,-5.27,-1.90,-1.86,-1.81
72.19,3.61,5.43,3.69,5.51,-5.54,-5.25,-5.21,-1.93,-1.86,-1.82
72.91,3.82,5.65,3.73,5.56,-5.56,-5.13,-5.15,-1.75,-1.83,-1.83
73.64,3.79,5.63,3.78,5.62,-5.58,-5.02,-5.09,-1.79,-1.80,-1.84
74.38,3.75,5.60,3.77,5.63,-5.59,-4.90,-5.04,-1.84,-1.81,-1.85
75.12,3.73,5.59,3.72,5.59,-5.59,-4.79,-4.98,-1.86,-1.87,-1.86
75.87,3.68,5.56,3.70,5.58,-5.58,-4.67,-4.92,-1.90,-1.88,-1.88
76.63,3.68,5.57,3.66,5.55,-5.56,-4.56,-4.87,-1.88,-1.90,-1.89
77.40,3.61,5.52,3.59,5.50,-5.51,-4.44,-4.81,-1.90,-1.92,-1.91
78.17,3.49,5.41,3.51,5.43,-5.45,-4.33,-4.76,-1.96,-1.94,-1.92
78.95,3.39,5.33,3.41,5.36,-5.36,-4.22,-4.71,-1.98,-1.95,-1.94
79.74,3.34,5.29,3.31,5.27,-5.27,-4.11,-4.67,-1.93,-1.95,-1.95
80.54,3.21,5.18,3.20,5.17,-5.15,-4.01,-4.62,-1.94,-1.95,-1.97
81.35,3.03,5.01,3.04,5.02,-5.00,-3.91,-4.58,-1.97,-1.96,-1.98
82.16,2.85,4.84,2.85,4.85,-4.83,-3.81,-4.54,-1.98,-1.98,-1.99
82.98,2.64,4.64,2.65,4.66,-4.63,-3.71,-4.50,-2.00,-1.98,-2.00
83.81,2.45,4.46,2.43,4.44,-4.42,-3.61,-4.47,-1.97,-1.98,-2.01
84.65,2.19,4.20,2.17,4.18,-4.18,-3.51,-4.44,-1.99,-2.01,-2.01
85.50,1.88,3.90,1.89,3.92,-3.93,-3.41,-4.41,-2.05,-2.03,-2.02
86.35,1.59,3.62,1.62,3.66,-3.67,-3.31,-4.39,-2.08,-2.05,-2.03
87.22,1.37,3.41,1.34,3.39,-3.41,-3.21,-4.37,-2.04,-2.07,-2.04
88.09,1.12,3.17,1.09,3.14,-3.16,-3.10,-4.35,-2.04,-2.07,-2.05
88.97,0.79,2.84,0.85,2.90,-2.90,-2.99,-4.34,-2.12,-2.06,-2.05
89.86,0.61,2.67,0.60,2.66,-2.66,-2.87,-4.33,-2.05,-2.06,-2.06
90.76,0.40,2.47,0.36,2.43,-2.42,-2.73,-4.32,-2.02,-2.06,-2.07
91.66,0.13,2.20,0.16,2.23,-2.20,-2.57,-4.32,-2.07,-2.04,-2.07
92.58,-0.07,2.00,-0.06,2.01,-2.00,-2.40,-4.32,-2.07,-2.06,-2.07
93.51,-0.25,1.83,-0.28,1.80,-1.81,-2.20,-4.32,-2.06,-2.10,-2.08
94.44,-0.47,1.61,-0.47,1.61,-1.64,-1.98,-4.32,-2.12,-2.12,-2.08
95.39,-0.67,1.41,-0.63,1.45,-1.49,-1.73,-4.33,-2.16,-2.12,-2.08
96.34,-0.74,1.34,-0.74,1.34,-1.35,-1.48,-4.34,-2.09,-2.09,-2.08
97.30,-0.79,1.29,-0.80,1.28,-1.23,-1.24,-4.36,-2.02,-2.03,-2.08
98.28,-0.85,1.24,-0.87,1.22,-1.14,-1.06,-4.37,-1.99,-2.01,-2.09
99.26,-0.95,1.14,-0.96,1.13,-1.10,-0.98,-4.39,-2.05,-2.06,-2.09
100.25,-1.06,1.03,-1.05,1.04,-1.09,-1.03,-4.41,-2.15,-2.14,-2.09
101.25,-1.08,1.01,-1.07,1.03,-1.12,-1.19,-4.44,-2.20,-2.19,-2.09
102.27,-1.02,1.08,-0.99,1.11,-1.20,-1.42,-4.46,-2.22,-2.19,-2.10
103.29,-0.81,1.30,-0.83,1.28,-1.31,-1.68,-4.49,-2.12,-2.14,-2.11
104.32,-0.62,1.50,-0.64,1.48,-1.46,-1.93,-4.51,-2.09,-2.10,-2.12
105.37,-0.43,1.69,-0.43,1.70,-1.66,-2.17,-4.54,-2.10,-2.10,-2.12
106.42,-0.22,1.91,-0.22,1.91,-1.90,-2.38,-4.57,-2.12,-2.12,-2.13
107.48,-0.01,2.13,0.02,2.16,-2.15,-2.56,-4.60,-2.17,-2.14,-2.14
108.56,0.28,2.43,0.25,2.40,-2.41,-2.72,-4.63,-2.14,-2.16,-2.15
109.64,0.54,2.70,0.52,2.68,-2.67,-2.85,-4.66,-2.13,-2.15,-2.16
110.74,0.72,2.88,0.80,2.96,-2.93,-2.98,-4.68,-2.21,-2.13,-2.16
111.85,1.11,3.27,1.05,3.22,-3.19,-3.09,-4.71,-2.08,-2.13,-2.16
112.97,1.32,3.48,1.27,3.44,-3.44,-3.20,-4.73,-2.13,-2.17,-2.16
114.10,1.47,3.63,1.50,3.67,-3.70,-3.30,-4.75,-2.23,-2.19,-2.16
115.24,1.68,3.83,1.74,3.89,-3.94,-3.39,-4.77,-2.26,-2.20,-2.15
116.39,2.03,4.18,2.01,4.16,-4.16,-3.48,-4.79,-2.14,-2.16,-2.15
117.55,2.32,4.45,2.26,4.40,-4.37,-3.57,-4.80,-2.05,-2.11,-2.13
118.73,2.48,4.60,2.48,4.61,-4.56,-3.66,-4.81,-2.08,-2.08,-2.12
119.92,2.60,4.70,2.66,4.77,-4.73,-3.74,-4.82,-2.13,-2.07,-2.10
121.12,2.86,4.94,2.82,4.91,-4.88,-3.83,-4.82,-2.02,-2.06,-2.08
122.33,3.00,5.06,2.96,5.03,-5.01,-3.92,-4.81,-2.01,-2.05,-2.06
123.55,3.07,5.11,3.09,5.13,-5.13,-4.01,-4.81,-2.06,-2.05,-2.04
124.79,3.15,5.17,3.17,5.20,-5.24,-4.10,-4.79,-2.09,-2.06,-2.02
126.03,3.30,5.30,3.28,5.29,-5.34,-4.19,-4.77,-2.04,-2.06,-2.00
127.29,3.41,5.39,3.41,5.40,-5.43,-4.28,-4.75,-2.02,-2.02,-1.98
128.57,3.54,5.50,3.54,5.50,-5.51,-4.37,-4.72,-1.97,-1.97,-1.96
129.85,3.67,5.61,3.67,5.62,-5.58,-4.47,-4.69,-1.91,-1.91,-1.94
131.15,3.77,5.69,3.80,5.72,-5.65,-4.56,-4.66,-1.88,-1.85,-1.92
132.46,3.91,5.82,3.84,5.75,-5.71,-4.65,-4.61,-1.80,-1.86,-1.91
133.79,3.88,5.77,3.86,5.75,-5.75,-4.74,-4.57,-1.88,-1.90,-1.89
135.12,3.78,5.66,3.86,5.74,-5.79,-4.84,-4.52,-2.01,-1.92,-1.88
136.48,3.90,5.76,3.89,5.76,-5.81,-4.93,-4.47,-1.91,-1.92,-1.86
137.84,3.99,5.84,3.98,5.83,-5.84,-5.02,-4.41,-1.85,-1.86,-1.85
139.22,4.07,5.91,4.04,5.88,-5.87,-5.10,-4.36,-1.80,-1.83,-1.84
140.61,4.09,5.92,4.04,5.88,-5.90,-5.18,-4.30,-1.81,-1.86,-1.83
142.02,3.98,5.80,4.06,5.89,-5.93,-5.26,-4.23,-1.95,-1.86,-1.82
143.44,4.09,5.91,4.10,5.93,-5.94,-5.33,-4.17,-1.85,-1.84,-1.82
144.87,4.21,6.03,4.17,5.99,-5.94,-5.40,-4.11,-1.74,-1.78,-1.82
146.32,4.21,6.03,4.20,6.03,-5.94,-5.46,-4.04,-1.73,-1.73,-1.82
147.78,4.15,5.98,4.12,5.95,-5.92,-5.52,-3.97,-1.77,-1.80,-1.83
149.26,3.99,5.83,3.97,5.81,-5.89,-5.56,-3.91,-1.90,-1.93,-1.84
150.75,3.79,5.65,3.87,5.73,-5.84,-5.60,-3.84,-2.06,-1.97,-1.86
152.26,3.76,5.65,3.82,5.71,-5.76,-5.62,-3.78,-2.00,-1.95,-1.89
153.78,3.85,5.77,3.74,5.67,-5.63,-5.64,-3.71,-1.78,-1.89,-1.92
155.32,3.65,5.61,3.61,5.57,-5.45,-5.65,-3.65,-1.80,-1.84,-1.96
156.88,3.31,5.30,3.39,5.39,-5.22,-5.64,-3.58,-1.91,-1.83,-1.99
158.44,3.06,5.09,3.05,5.08,-4.95,-5.63,-3.52,-1.89,-1.90,-2.03
160.03,2.77,4.83,2.70,4.76,-4.66,-5.60,-3.46,-1.90,-1.96,-2.06
161.63,2.29,4.37,2.33,4.42,-4.38,-5.56,-3.40,-2.09,-2.05,-2.08
163.24,1.97,4.08,1.94,4.05,-4.13,-5.52,-3.35,-2.16,-2.20,-2.11
164.88,1.61,3.73,1.62,3.75,-3.95,-5.46,-3.29,-2.34,-2.33,-2.12
166.53,1.42,3.55,1.46,3.60,-3.87,-5.40,-3.24,-2.45,-2.40,-2.13
168.19,1.47,3.60,1.46,3.59,-3.87,-5.33,-3.19,-2.40,-2.41,-2.13
169.87,1.63,3.75,1.65,3.77,-3.95,-5.25,-3.14,-2.32,-2.31,-2.12
171.57,1.95,4.06,1.97,4.08,-4.10,-5.16,-3.09,-2.15,-2.12,-2.11
173.29,2.33,4.42,2.32,4.41,-4.28,-5.07,-3.05,-1.95,-1.96,-2.09
175.02,2.67,4.73,2.60,4.67,-4.48,-4.97,-3.01,-1.81,-1.88,-2.06
176.77,2.78,4.81,2.77,4.80,-4.67,-4.87,-2.97,-1.89,-1.90,-2.03
178.54,2.81,4.81,2.84,4.84,-4.81,-4.76,-2.93,-2.01,-1.97,-2.00
180.32,2.87,4.83,2.90,4.87,-4.90,-4.66,-2.89,-2.03,-2.00,-1.96
182.13,2.97,4.90,2.97,4.90,-4.94,-4.55,-2.86,-1.97,-1.97,-1.93
183.95,3.08,4.97,3.03,4.93,-4.95,-4.44,-2.83,-1.87,-1.91,-1.89
185.79,3.04,4.91,3.04,4.92,-4.91,-4.32,-2.80,-1.88,-1.87,-1.87
187.65,3.00,4.85,3.01,4.86,-4.85,-4.21,-2.77,-1.85,-1.84,-1.85
189.52,2.94,4.77,2.95,4.79,-4.77,-4.10,-2.75,-1.83,-1.81,-1.83
191.42,2.90,4.72,2.89,4.71,-4.67,-3.99,-2.72,-1.77,-1.77,-1.82
193.33,2.82,4.62,2.80,4.60,-4.55,-3.88,-2.70,-1.74,-1.76,-1.80
195.27,2.66,4.45,2.65,4.45,-4.43,-3.78,-2.68,-1.77,-1.78,-1.79
197.22,2.47,4.26,2.47,4.26,-4.31,-3.67,-2.67,-1.84,-1.84,-1.79
199.19,2.30,4.08,2.32,4.11,-4.20,-3.57,-2.65,-1.90,-1.88,-1.78
201.18,2.21,3.99,2.23,4.02,-4.09,-3.46,-2.64,-1.88,-1.86,-1.78
203.19,2.20,3.98,2.19,3.97,-3.99,-3.36,-2.62,-1.79,-1.80,-1.78
205.23,2.17,3.95,2.15,3.93,-3.90,-3.27,-2.61,-1.73,-1.76,-1.78
207.28,2.08,3.86,2.07,3.85,-3.82,-3.17,-2.60,-1.74,-1.75,-1.78
209.35,1.96,3.74,1.97,3.76,-3.74,-3.08,-2.59,-1.78,-1.76,-1.78
211.44,1.85,3.64,1.87,3.66,-3.65,-2.99,-2.58,-1.80,-1.78,-1.79
213.56,1.78,3.57,1.76,3.55,-3.54,-2.91,-2.58,-1.76,-1.78,-1.79
215.69,1.64,3.44,1.63,3.43,-3.41,-2.82,-2.57,-1.77,-1.78,-1.80
217.85,1.48,3.28,1.48,3.28,-3.27,-2.74,-2.56,-1.79,-1.79,-1.80
220.03,1.30,3.11,1.31,3.12,-3.12,-2.66,-2.56,-1.82,-1.80,-1.81
222.23,1.14,2.95,1.14,2.96,-2.96,-2.59,-2.55,-1.82,-1.82,-1.81
224.45,1.01,2.82,0.97,2.78,-2.80,-2.52,-2.54,-1.80,-1.83,-1.81
226.70,0.79,2.60,0.81,2.62,-2.64,-2.44,-2.54,-1.85,-1.83,-1.81
228.96,0.65,2.46,0.68,2.49,-2.49,-2.38,-2.53,-1.84,-1.80,-1.81
231.25,0.58,2.38,0.57,2.38,-2.35,-2.31,-2.52,-1.77,-1.78,-1.80
233.57,0.50,2.30,0.44,2.25,-2.24,-2.25,-2.52,-1.74,-1.80,-1.80
235.90,0.33,2.12,0.32,2.11,-2.15,-2.19,-2.51,-1.82,-1.83,-1.79
238.26,0.14,1.92,0.22,2.01,-2.08,-2.13,-2.50,-1.94,-1.86,-1.78
240.64,0.20,1.96,0.19,1.96,-2.02,-2.07,-2.49,-1.82,-1.83,-1.76
243.05,0.25,2.00,0.22,1.97,-1.97,-2.02,-2.47,-1.72,-1.75,-1.75
245.48,0.25,1.99,0.25,1.99,-1.92,-1.96,-2.46,-1.67,-1.67,-1.74
247.93,0.23,1.96,0.22,1.95,-1.87,-1.91,-2.45,-1.64,-1.65,-1.73
250.41,0.17,1.89,0.16,1.88,-1.83,-1.87,-2.43,-1.66,-1.68,-1.72
252.92,0.07,1.78,0.08,1.80,-1.80,-1.82,-2.41,-1.73,-1.72,-1.71
255.45,-0.01,1.70,-0.01,1.71,-1.76,-1.78,-2.39,-1.77,-1.76,-1.71
258.00,-0.06,1.65,-0.08,1.64,-1.71,-1.73,-2.37,-1.77,-1.78,-1.71
260.58,-0.13,1.58,-0.10,1.62,-1.65,-1.69,-2.35,-1.78,-1.75,-1.71
263.19,-0.12,1.59,-0.11,1.60,-1.59,-1.65,-2.33,-1.71,-1.70,-1.71
265.82,-0.08,1.63,-0.13,1.59,-1.53,-1.61,-2.30,-1.62,-1.66,-1.71
268.48,-0.19,1.52,-0.18,1.54,-1.48,-1.58,-2.28,-1.67,-1.66,-1.71
271.16,-0.25,1.46,-0.27,1.45,-1.42,-1.54,-2.25,-1.67,-1.69,-1.71
273.87,-0.39,1.32,-0.36,1.36,-1.36,-1.51,-2.22,-1.75,-1.72,-1.71
276.61,-0.44,1.27,-0.44,1.27,-1.29,-1.48,-2.19,-1.74,-1.74,-1.71
279.38,-0.48,1.23,-0.52,1.19,-1.22,-1.45,-2.16,-1.70,-1.74,-1.71
282.17,-0.61,1.09,-0.56,1.14,-1.15,-1.42,-2.14,-1.76,-1.71,-1.70
284.99,-0.60,1.09,-0.61,1.08,-1.08,-1.39,-2.11,-1.68,-1.70,-1.69
287.84,-0.63,1.06,-0.67,1.02,-1.02,-1.36,-2.07,-1.65,-1.69,-1.69
290.72,-0.72,0.96,-0.69,1.00,-0.98,-1.34,-2.04,-1.70,-1.66,-1.68
293.63,-0.76,0.91,-0.73,0.94,-0.94,-1.31,-2.01,-1.70,-1.67,-1.67
296.57,-0.70,0.96,-0.78,0.89,-0.90,-1.29,-1.98,-1.60,-1.68,-1.66
299.53,-0.84,0.82,-0.82,0.84,-0.86,-1.27,-1.95,-1.70,-1.68,-1.66
302.53,-0.88,0.77,-0.83,0.82,-0.82,-1.25,-1.92,-1.70,-1.65,-1.65
305.55,-0.85,0.80,-0.84,0.81,-0.79,-1.23,-1.89,-1.64,-1.63,-1.65
308.61,-0.77,0.88,-0.84,0.81,-0.77,-1.21,-1.87,-1.54,-1.61,-1.65
311.69,-0.88,0.77,-0.90,0.75,-0.76,-1.19,-1.84,-1.64,-1.66,-1.65
314.81,-1.00,0.66,-0.96,0.70,-0.76,-1.17,-1.81,-1.76,-1.72,-1.66
317.96,-1.03,0.63,-0.97,0.69,-0.76,-1.16,-1.78,-1.79,-1.73,-1.66
321.14,-0.89,0.78,-0.91,0.76,-0.76,-1.14,-1.76,-1.65,-1.67,-1.67
324.35,-0.80,0.87,-0.86,0.82,-0.76,-1.13,-1.73,-1.56,-1.62,-1.67
327.59,-0.85,0.83,-0.85,0.83,-0.76,-1.11,-1.71,-1.61,-1.62,-1.68
330.87,-0.93,0.76,-0.90,0.79,-0.77,-1.10,-1.68,-1.70,-1.67,-1.69
334.18,-0.96,0.74,-0.95,0.75,-0.78,-1.09,-1.66,-1.74,-1.73,-1.70
337.52,-0.96,0.75,-0.97,0.74,-0.79,-1.08,-1.64,-1.75,-1.76,-1.71
340.90,-0.96,0.75,-0.96,0.76,-0.78,-1.07,-1.62,-1.74,-1.74,-1.71
344.30,-0.96,0.76,-0.94,0.78,-0.77,-1.06,-1.60,-1.73,-1.71,-1.72
347.75,-0.93,0.81,-0.95,0.79,-0.76,-1.05,-1.59,-1.69,-1.70,-1.74
351.23,-0.94,0.81,-0.97,0.78,-0.75,-1.05,-1.57,-1.69,-1.72,-1.75
354.74,-1.03,0.73,-1.01,0.76,-0.75,-1.04,-1.55,-1.79,-1.76,-1.76
358.28,-1.05,0.72,-1.04,0.73,-0.75,-1.03,-1.54,-1.81,-1.80,-1.77
361.87,-1.05,0.73,-1.06,0.73,-0.75,-1.03,-1.53,-1.81,-1.81,-1.78
365.49,-1.04,0.76,-1.05,0.75,-0.76,-1.03,-1.51,-1.80,-1.80,-1.80
369.14,-1.04,0.77,-1.04,0.77,-0.77,-1.02,-1.50,-1.81,-1.81,-1.81
372.83,-1.03,0.79,-1.04,0.78,-0.79,-1.02,-1.49,-1.82,-1.83,-1.82
376.56,-1.03,0.80,-1.03,0.80,-0.82,-1.02,-1.49,-1.85,-1.85,-1.83
380.33,-1.03,0.81,-1.00,0.84,-0.85,-1.02,-1.48,-1.88,-1.86,-1.84
384.13,-0.95,0.90,-0.96,0.89,-0.89,-1.02,-1.47,-1.84,-1.85,-1.85
387.97,-0.91,0.95,-0.93,0.94,-0.92,-1.02,-1.47,-1.83,-1.84,-1.86
391.85,-0.90,0.97,-0.90,0.97,-0.95,-1.02,-1.46,-1.85,-1.85,-1.87
395.77,-0.90,0.98,-0.90,0.98,-0.97,-1.02,-1.46,-1.87,-1.87,-1.88
399.73,-0.90,0.99,-0.90,0.99,-1.00,-1.03,-1.45,-1.90,-1.90,-1.89
403.72,-0.90,1.00,-0.90,1.01,-1.01,-1.03,-1.45,-1.91,-1.91,-1.90
407.76,-0.90,1.02,-0.90,1.02,-1.02,-1.04,-1.45,-1.92,-1.93,-1.92
411.84,-0.90,1.03,-0.90,1.03,-1.03,-1.05,-1.45,-1.93,-1.93,-1.93
415.96,-0.91,1.03,-0.91,1.04,-1.03,-1.05,-1.45,-1.94,-1.94,-1.94
420.12,-0.90,1.04,-0.90,1.04,-1.03,-1.06,-1.45,-1.94,-1.94,-1.94
424.32,-0.90,1.05,-0.90,1.05,-1.04,-1.07,-1.45,-1.95,-1.95,-1.95
428.56,-0.89,1.06,-0.89,1.06,-1.06,-1.08,-1.45,-1.95,-1.95,-1.95
432.85,-0.88,1.06,-0.88,1.06,-1.08,-1.09,-1.45,-1.96,-1.96,-1.94
437.18,-0.85,1.08,-0.85,1.08,-1.11,-1.11,-1.46,-1.96,-1.96,-1.93
441.55,-0.81,1.10,-0.79,1.12,-1.14,-1.12,-1.46,-1.95,-1.93,-1.91
445.96,-0.72,1.17,-0.71,1.18,-1.17,-1.14,-1.46,-1.90,-1.89,-1.89
450.42,-0.60,1.26,-0.63,1.23,-1.21,-1.15,-1.46,-1.81,-1.84,-1.86
454.93,-0.56,1.26,-0.55,1.27,-1.24,-1.17,-1.47,-1.80,-1.79,-1.82
