frequency,raw,error,smoothed,error_smoothed,equalization,parametric_eq,fixed_band_eq,equalized_raw,equalized_smoothed,target
20.00,3.61,-2.44,3.61,-2.44,2.43,2.19,0.43,6.04,6.04,6.05
20.20,3.65,-2.40,3.65,-2.39,2.39,2.16,0.44,6.04,6.05,6.05
20.40,3.70,-2.35,3.70,-2.35,2.36,2.13,0.45,6.06,6.05,6.06
20.61,3.74,-2.32,3.74,-2.31,2.32,2.10,0.47,6.06,6.06,6.05
20.81,3.78,-2.27,3.78,-2.27,2.28,2.07,0.49,6.06,6.06,6.05
21.02,3.83,-2.22,3.82,-2.23,2.24,2.04,0.50,6.07,6.06,6.05
21.23,3.86,-2.20,3.86,-2.20,2.20,2.00,0.52,6.06,6.06,6.06
21.44,3.90,-2.17,3.91,-2.17,2.16,1.97,0.54,6.06,6.07,6.07
21.66,3.95,-2.12,3.95,-2.13,2.12,1.94,0.56,6.07,6.07,6.07
21.87,3.99,-2.09,3.99,-2.09,2.08,1.91,0.57,6.07,6.07,6.08
22.09,4.03,-2.04,4.04,-2.04,2.04,1.88,0.59,6.07,6.08,6.07
22.31,4.08,-2.00,4.08,-2.00,2.00,1.85,0.61,6.08,6.08,6.08
22.54,4.12,-1.95,4.12,-1.96,1.96,1.81,0.63,6.08,6.08,6.07
22.76,4.16,-1.92,4.16,-1.91,1.91,1.78,0.66,6.07,6.07,6.08
22.99,4.20,-1.88,4.20,-1.87,1.87,1.75,0.68,6.07,6.07,6.08
23.22,4.25,-1.82,4.25,-1.82,1.82,1.72,0.70,6.08,6.07,6.07
23.45,4.29,-1.78,4.29,-1.78,1.78,1.68,0.72,6.08,6.07,6.07
23.69,4.33,-1.74,4.33,-1.74,1.75,1.65,0.74,6.08,6.07,6.07
23.92,4.36,-1.70,4.36,-1.70,1.71,1.61,0.77,6.07,6.07,6.07
24.16,4.40,-1.66,4.40,-1.67,1.67,1.58,0.79,6.07,6.07,6.06
24.40,4.43,-1.64,4.43,-1.64,1.63,1.55,0.81,6.06,6.06,6.07
24.65,4.47,-1.60,4.47,-1.60,1.59,1.51,0.84,6.06,6.07,6.07
24.89,4.51,-1.56,4.51,-1.56,1.56,1.48,0.86,6.07,6.07,6.07
25.14,4.55,-1.51,4.55,-1.52,1.52,1.44,0.88,6.07,6.07,6.06
25.39,4.58,-1.48,4.58,-1.48,1.48,1.41,0.91,6.06,6.06,6.06
25.65,4.62,-1.44,4.62,-1.44,1.44,1.37,0.93,6.06,6.06,6.06
25.91,4.66,-1.40,4.66,-1.40,1.40,1.34,0.95,6.06,6.06,6.06
26.16,4.70,-1.37,4.70,-1.37,1.36,1.30,0.98,6.06,6.06,6.07
26.43,4.73,-1.34,4.73,-1.33,1.32,1.26,1.00,6.06,6.06,6.07
26.69,4.77,-1.28,4.77,-1.29,1.29,1.23,1.02,6.06,6.06,6.05
26.96,4.81,-1.24,4.81,-1.25,1.25,1.19,1.04,6.06,6.06,6.05
27.23,4.84,-1.21,4.84,-1.21,1.21,1.15,1.06,6.06,6.06,6.05
27.50,4.87,-1.18,4.88,-1.18,1.18,1.12,1.08,6.05,6.05,6.05
27.77,4.91,-1.15,4.91,-1.15,1.14,1.08,1.09,6.05,6.05,6.06
28.05,4.95,-1.11,4.95,-1.11,1.10,1.04,1.11,6.06,6.05,6.06
28.33,4.98,-1.07,4.98,-1.07,1.07,1.01,1.12,6.05,6.05,6.05
28.62,5.02,-1.02,5.02,-1.03,1.03,0.97,1.13,6.05,6.05,6.04
28.90,5.05,-1.00,5.05,-1.00,0.99,0.93,1.14,6.04,6.05,6.05
29.19,5.09,-0.96,5.09,-0.96,0.96,0.89,1.15,6.05,6.05,6.05
29.48,5.12,-0.92,5.12,-0.92,0.92,0.85,1.15,6.04,6.04,6.04
29.78,5.16,-0.88,5.16,-0.88,0.89,0.82,1.15,6.05,6.04,6.04
30.08,5.19,-0.86,5.19,-0.85,0.85,0.78,1.15,6.04,6.04,6.05
30.38,5.22,-0.81,5.22,-0.82,0.82,0.74,1.15,6.04,6.04,6.03
30.68,5.25,-0.79,5.25,-0.79,0.79,0.70,1.14,6.04,6.04,6.04
30.99,5.28,-0.76,5.28,-0.76,0.76,0.66,1.13,6.04,6.04,6.04
31.30,5.31,-0.73,5.31,-0.73,0.73,0.62,1.11,6.04,6.04,6.04
31.61,5.34,-0.71,5.34,-0.70,0.70,0.58,1.10,6.04,6.04,6.05
31.93,5.37,-0.66,5.37,-0.67,0.67,0.54,1.08,6.04,6.04,6.03
32.24,5.41,-0.63,5.41,-0.63,0.63,0.50,1.05,6.04,6.04,6.04
32.57,5.44,-0.60,5.44,-0.60,0.60,0.46,1.03,6.04,6.04,6.04
32.89,5.47,-0.56,5.47,-0.56,0.57,0.42,1.00,6.04,6.04,6.04
33.22,5.50,-0.53,5.50,-0.53,0.53,0.38,0.97,6.03,6.03,6.03
33.55,5.53,-0.50,5.53,-0.50,0.50,0.34,0.93,6.03,6.03,6.03
33.89,5.56,-0.47,5.56,-0.46,0.46,0.30,0.89,6.02,6.02,6.03
34.23,5.59,-0.42,5.59,-0.42,0.42,0.26,0.85,6.01,6.01,6.01
34.57,5.63,-0.37,5.62,-0.38,0.38,0.22,0.81,6.01,6.00,6.00
34.92,5.65,-0.34,5.65,-0.34,0.34,0.18,0.77,5.99,5.99,5.99
35.27,5.68,-0.30,5.68,-0.29,0.29,0.14,0.72,5.98,5.98,5.98
35.62,5.71,-0.24,5.71,-0.25,0.25,0.10,0.67,5.96,5.96,5.95
35.97,5.73,-0.21,5.73,-0.20,0.20,0.06,0.62,5.93,5.93,5.94
36.33,5.76,-0.15,5.76,-0.15,0.15,0.02,0.57,5.91,5.91,5.91
36.70,5.78,-0.11,5.78,-0.11,0.10,-0.02,0.51,5.89,5.89,5.89
37.06,5.81,-0.05,5.81,-0.05,0.05,-0.06,0.46,5.87,5.87,5.87
37.43,5.84,-0.00,5.84,-0.00,0.01,-0.10,0.40,5.85,5.84,5.84
37.81,5.87,0.05,5.87,0.05,-0.05,-0.15,0.35,5.83,5.82,5.82
38.19,5.89,0.09,5.89,0.09,-0.09,-0.19,0.29,5.80,5.80,5.80
38.57,5.92,0.14,5.92,0.14,-0.14,-0.23,0.23,5.78,5.78,5.78
38.95,5.94,0.19,5.94,0.19,-0.19,-0.27,0.17,5.75,5.75,5.75
39.34,5.97,0.24,5.97,0.24,-0.24,-0.31,0.11,5.73,5.73,5.73
39.74,5.99,0.29,5.99,0.28,-0.28,-0.35,0.05,5.71,5.71,5.70
40.14,6.02,0.33,6.02,0.33,-0.33,-0.40,-0.02,5.69,5.69,5.69
40.54,6.03,0.36,6.04,0.37,-0.37,-0.44,-0.08,5.66,5.67,5.67
40.94,6.07,0.42,6.06,0.42,-0.42,-0.48,-0.14,5.65,5.65,5.65
41.35,6.09,0.46,6.09,0.46,-0.46,-0.52,-0.21,5.63,5.63,5.63
41.76,6.11,0.51,6.11,0.51,-0.51,-0.57,-0.27,5.60,5.61,5.60
42.18,6.14,0.55,6.13,0.55,-0.55,-0.61,-0.33,5.59,5.58,5.59
42.60,6.15,0.59,6.16,0.59,-0.59,-0.65,-0.40,5.56,5.56,5.56
43.03,6.18,0.64,6.18,0.64,-0.64,-0.69,-0.47,5.54,5.54,5.54
43.46,6.20,0.68,6.20,0.68,-0.68,-0.74,-0.53,5.52,5.52,5.52
43.90,6.22,0.72,6.22,0.73,-0.72,-0.78,-0.60,5.50,5.50,5.50
44.33,6.24,0.77,6.24,0.76,-0.76,-0.82,-0.66,5.48,5.48,5.47
44.78,6.26,0.81,6.26,0.80,-0.81,-0.87,-0.73,5.45,5.45,5.45
45.23,6.28,0.84,6.28,0.85,-0.85,-0.91,-0.80,5.43,5.43,5.44
45.68,6.30,0.89,6.30,0.89,-0.90,-0.96,-0.87,5.40,5.41,5.41
46.13,6.33,0.95,6.33,0.95,-0.94,-1.00,-0.94,5.39,5.38,5.38
46.60,6.34,0.99,6.35,0.99,-0.99,-1.04,-1.00,5.35,5.36,5.35
47.06,6.37,1.04,6.37,1.04,-1.04,-1.09,-1.07,5.33,5.32,5.33
47.53,6.38,1.08,6.38,1.09,-1.09,-1.13,-1.14,5.29,5.29,5.30
48.01,6.40,1.15,6.40,1.15,-1.15,-1.18,-1.21,5.25,5.25,5.25
48.49,6.42,1.20,6.42,1.20,-1.20,-1.22,-1.28,5.22,5.21,5.22
48.97,6.43,1.25,6.43,1.26,-1.26,-1.27,-1.35,5.17,5.18,5.18
49.46,6.45,1.31,6.45,1.32,-1.31,-1.31,-1.42,5.14,5.14,5.14
49.96,6.47,1.39,6.47,1.37,-1.37,-1.36,-1.49,5.10,5.10,5.08
50.46,6.48,1.43,6.48,1.43,-1.43,-1.41,-1.56,5.05,5.06,5.05
50.96,6.50,1.48,6.50,1.49,-1.48,-1.45,-1.63,5.02,5.02,5.02
51.47,6.52,1.54,6.52,1.54,-1.54,-1.50,-1.71,4.98,4.98,4.99
51.99,6.53,1.59,6.53,1.59,-1.59,-1.55,-1.77,4.94,4.94,4.94
52.51,6.55,1.64,6.55,1.64,-1.65,-1.60,-1.84,4.90,4.90,4.91
53.03,6.56,1.69,6.56,1.70,-1.70,-1.64,-1.91,4.86,4.86,4.87
53.56,6.58,1.75,6.58,1.75,-1.75,-1.69,-1.98,4.83,4.83,4.83
54.10,6.60,1.82,6.60,1.81,-1.81,-1.74,-2.05,4.79,4.79,4.78
54.64,6.61,1.86,6.61,1.86,-1.86,-1.79,-2.11,4.75,4.75,4.75
55.18,6.62,1.91,6.62,1.91,-1.91,-1.84,-2.18,4.71,4.71,4.71
55.74,6.63,1.96,6.63,1.96,-1.96,-1.89,-2.24,4.67,4.68,4.67
56.29,6.65,2.00,6.65,2.00,-2.00,-1.94,-2.30,4.65,4.65,4.65
56.86,6.66,2.03,6.66,2.04,-2.04,-1.99,-2.36,4.62,4.62,4.63
57.42,6.67,2.09,6.68,2.09,-2.08,-2.04,-2.42,4.59,4.59,4.58
58.00,6.69,2.14,6.69,2.13,-2.13,-2.09,-2.48,4.56,4.56,4.55
58.58,6.70,2.17,6.70,2.17,-2.17,-2.15,-2.53,4.53,4.53,4.53
59.16,6.70,2.20,6.71,2.21,-2.22,-2.20,-2.58,4.48,4.49,4.50
59.76,6.72,2.25,6.72,2.25,-2.27,-2.25,-2.63,4.45,4.45,4.47
60.35,6.73,2.31,6.73,2.31,-2.32,-2.30,-2.68,4.41,4.41,4.42
60.96,6.74,2.37,6.74,2.37,-2.38,-2.36,-2.72,4.36,4.37,4.37
61.57,6.75,2.44,6.75,2.44,-2.43,-2.41,-2.76,4.32,4.32,4.31
62.18,6.76,2.50,6.76,2.50,-2.49,-2.46,-2.79,4.27,4.27,4.26
62.80,6.77,2.56,6.77,2.56,-2.55,-2.52,-2.83,4.22,4.22,4.21
63.43,6.78,2.61,6.78,2.61,-2.60,-2.57,-2.86,4.18,4.18,4.17
64.07,6.79,2.66,6.79,2.66,-2.66,-2.62,-2.89,4.13,4.13,4.13
64.71,6.80,2.71,6.80,2.71,-2.71,-2.67,-2.91,4.09,4.09,4.10
65.35,6.80,2.75,6.81,2.76,-2.76,-2.73,-2.93,4.04,4.05,4.05
66.01,6.82,2.81,6.82,2.80,-2.81,-2.78,-2.95,4.01,4.01,4.01
66.67,6.83,2.85,6.83,2.85,-2.85,-2.83,-2.97,3.98,3.97,3.98
67.33,6.83,2.90,6.84,2.90,-2.90,-2.88,-2.99,3.93,3.94,3.93
68.01,6.84,2.95,6.84,2.95,-2.95,-2.93,-3.00,3.90,3.90,3.89
68.69,6.85,3.00,6.85,3.00,-2.99,-2.97,-3.01,3.86,3.86,3.85
69.37,6.85,3.03,6.85,3.04,-3.04,-3.02,-3.03,3.81,3.82,3.82
70.07,6.86,3.08,6.86,3.08,-3.08,-3.06,-3.03,3.78,3.78,3.78
70.77,6.86,3.12,6.86,3.12,-3.13,-3.11,-3.04,3.73,3.73,3.74
71.48,6.87,3.17,6.87,3.17,-3.18,-3.15,-3.05,3.69,3.69,3.70
72.19,6.87,3.22,6.87,3.22,-3.22,-3.19,-3.06,3.65,3.65,3.65
72.91,6.88,3.28,6.88,3.27,-3.27,-3.23,-3.07,3.61,3.61,3.60
73.64,6.88,3.32,6.88,3.32,-3.32,-3.27,-3.08,3.56,3.56,3.56
74.38,6.88,3.36,6.88,3.36,-3.36,-3.31,-3.09,3.52,3.52,3.52
75.12,6.89,3.41,6.89,3.41,-3.40,-3.35,-3.09,3.49,3.48,3.48
75.87,6.89,3.44,6.89,3.44,-3.44,-3.38,-3.10,3.45,3.45,3.45
76.63,6.90,3.49,6.90,3.48,-3.48,-3.42,-3.12,3.42,3.42,3.41
77.40,6.90,3.51,6.90,3.51,-3.51,-3.45,-3.13,3.39,3.39,3.39
78.17,6.90,3.55,6.90,3.54,-3.54,-3.49,-3.14,3.36,3.36,3.35
78.95,6.89,3.56,6.90,3.57,-3.57,-3.52,-3.16,3.32,3.33,3.33
79.74,6.90,3.60,6.90,3.60,-3.60,-3.56,-3.17,3.30,3.30,3.30
80.54,6.90,3.63,6.90,3.63,-3.63,-3.59,-3.19,3.27,3.27,3.27
81.35,6.90,3.67,6.90,3.66,-3.66,-3.63,-3.22,3.24,3.24,3.23
82.16,6.90,3.68,6.90,3.69,-3.69,-3.66,-3.24,3.21,3.21,3.22
82.98,6.90,3.72,6.90,3.72,-3.72,-3.69,-3.26,3.18,3.18,3.18
83.81,6.91,3.76,6.91,3.75,-3.75,-3.73,-3.29,3.16,3.15,3.16
84.65,6.91,3.79,6.91,3.79,-3.78,-3.76,-3.32,3.13,3.13,3.12
85.50,6.90,3.81,6.91,3.82,-3.81,-3.79,-3.36,3.09,3.10,3.09
86.35,6.91,3.85,6.90,3.84,-3.84,-3.83,-3.39,3.07,3.06,3.06
87.22,6.90,3.86,6.90,3.87,-3.87,-3.86,-3.43,3.03,3.03,3.04
88.09,6.90,3.90,6.90,3.90,-3.90,-3.90,-3.47,3.00,3.00,3.00
88.97,6.90,3.92,6.90,3.92,-3.93,-3.93,-3.51,2.97,2.97,2.98
89.86,6.90,3.96,6.90,3.96,-3.96,-3.97,-3.56,2.94,2.94,2.94
90.76,6.90,3.99,6.90,3.99,-3.99,-4.00,-3.61,2.91,2.91,2.92
91.66,6.90,4.03,6.90,4.02,-4.01,-4.04,-3.66,2.89,2.88,2.87
92.58,6.89,4.04,6.89,4.05,-4.04,-4.07,-3.71,2.85,2.85,2.85
93.51,6.89,4.07,6.89,4.07,-4.07,-4.11,-3.77,2.82,2.82,2.82
94.44,6.89,4.10,6.89,4.10,-4.11,-4.14,-3.83,2.78,2.78,2.79
95.39,6.88,4.13,6.88,4.13,-4.14,-4.17,-3.89,2.74,2.74,2.75
96.34,6.87,4.17,6.87,4.16,-4.17,-4.21,-3.96,2.70,2.70,2.70
97.30,6.86,4.19,6.86,4.20,-4.20,-4.24,-4.02,2.66,2.66,2.67
98.28,6.86,4.24,6.86,4.24,-4.23,-4.28,-4.09,2.63,2.63,2.62
99.26,6.85,4.27,6.85,4.27,-4.27,-4.31,-4.16,2.59,2.59,2.58
100.25,6.85,4.31,6.85,4.30,-4.30,-4.34,-4.23,2.55,2.55,2.54
101.25,6.83,4.32,6.84,4.33,-4.33,-4.38,-4.30,2.51,2.51,2.51
102.27,6.83,4.35,6.83,4.35,-4.35,-4.41,-4.38,2.48,2.48,2.48
103.29,6.82,4.38,6.82,4.38,-4.38,-4.44,-4.45,2.44,2.44,2.44
104.32,6.81,4.40,6.81,4.40,-4.40,-4.47,-4.53,2.41,2.41,2.41
105.37,6.80,4.43,6.80,4.43,-4.43,-4.50,-4.61,2.37,2.37,2.37
106.42,6.79,4.45,6.79,4.45,-4.45,-4.53,-4.68,2.34,2.34,2.34
107.48,6.78,4.48,6.78,4.48,-4.48,-4.56,-4.76,2.30,2.30,2.30
108.56,6.77,4.50,6.77,4.50,-4.50,-4.59,-4.83,2.27,2.27,2.27
109.64,6.76,4.53,6.76,4.53,-4.53,-4.62,-4.91,2.23,2.23,2.23
110.74,6.75,4.55,6.75,4.55,-4.55,-4.65,-4.98,2.20,2.20,2.20
111.85,6.74,4.58,6.74,4.58,-4.58,-4.67,-5.05,2.16,2.16,2.16
112.97,6.73,4.61,6.73,4.61,-4.61,-4.70,-5.12,2.12,2.12,2.12
114.10,6.72,4.64,6.72,4.64,-4.65,-4.73,-5.19,2.08,2.07,2.08
115.24,6.70,4.67,6.71,4.68,-4.68,-4.75,-5.25,2.02,2.03,2.03
116.39,6.69,4.72,6.69,4.72,-4.72,-4.78,-5.31,1.97,1.97,1.97
117.55,6.68,4.76,6.68,4.76,-4.75,-4.80,-5.36,1.93,1.92,1.92
118.73,6.66,4.80,6.66,4.80,-4.79,-4.83,-5.41,1.87,1.87,1.87
119.92,6.65,4.84,6.65,4.83,-4.83,-4.85,-5.46,1.82,1.82,1.81
121.12,6.63,4.86,6.63,4.87,-4.87,-4.88,-5.50,1.76,1.76,1.77
122.33,6.62,4.91,6.62,4.91,-4.91,-4.90,-5.53,1.71,1.71,1.71
123.55,6.60,4.95,6.60,4.95,-4.95,-4.93,-5.56,1.65,1.65,1.66
124.79,6.59,5.00,6.59,4.99,-5.00,-4.95,-5.58,1.60,1.59,1.59
126.03,6.57,5.04,6.57,5.04,-5.04,-4.98,-5.60,1.53,1.53,1.53
127.29,6.55,5.08,6.55,5.08,-5.08,-5.00,-5.61,1.47,1.47,1.47
128.57,6.53,5.12,6.53,5.12,-5.12,-5.03,-5.62,1.41,1.41,1.41
129.85,6.51,5.16,6.51,5.16,-5.16,-5.06,-5.62,1.35,1.36,1.36
131.15,6.50,5.20,6.49,5.19,-5.19,-5.09,-5.62,1.31,1.30,1.30
132.46,6.47,5.22,6.48,5.23,-5.22,-5.12,-5.61,1.25,1.25,1.25
133.79,6.46,5.26,6.46,5.25,-5.25,-5.14,-5.60,1.21,1.21,1.20
135.12,6.44,5.28,6.44,5.28,-5.28,-5.18,-5.58,1.16,1.16,1.16
136.48,6.42,5.29,6.42,5.30,-5.30,-5.21,-5.56,1.12,1.12,1.13
137.84,6.41,5.32,6.41,5.32,-5.32,-5.24,-5.54,1.09,1.09,1.09
139.22,6.39,5.35,6.39,5.34,-5.34,-5.27,-5.51,1.05,1.05,1.04
140.61,6.37,5.35,6.37,5.36,-5.35,-5.30,-5.48,1.02,1.02,1.02
142.02,6.36,5.37,6.36,5.37,-5.37,-5.33,-5.45,0.99,0.99,0.99
143.44,6.34,5.38,6.34,5.38,-5.38,-5.37,-5.42,0.96,0.96,0.96
144.87,6.32,5.38,6.33,5.39,-5.40,-5.40,-5.39,0.92,0.93,0.94
146.32,6.32,5.41,6.32,5.41,-5.41,-5.43,-5.36,0.91,0.91,0.91
147.78,6.31,5.43,6.30,5.43,-5.43,-5.47,-5.33,0.88,0.88,0.88
149.26,6.29,5.44,6.30,5.45,-5.44,-5.50,-5.30,0.85,0.85,0.85
150.75,6.28,5.47,6.28,5.46,-5.46,-5.53,-5.27,0.82,0.82,0.81
152.26,6.28,5.48,6.27,5.48,-5.48,-5.56,-5.24,0.80,0.79,0.80
153.78,6.26,5.50,6.27,5.50,-5.50,-5.60,-5.21,0.76,0.76,0.76
155.32,6.26,5.52,6.26,5.52,-5.53,-5.63,-5.19,0.73,0.73,0.74
156.88,6.25,5.55,6.25,5.55,-5.55,-5.66,-5.16,0.70,0.70,0.70
158.44,6.25,5.59,6.25,5.58,-5.58,-5.69,-5.14,0.67,0.67,0.66
160.03,6.24,5.61,6.24,5.61,-5.61,-5.72,-5.12,0.63,0.63,0.63
161.63,6.23,5.63,6.23,5.64,-5.64,-5.74,-5.11,0.59,0.59,0.60
163.24,6.22,5.66,6.22,5.67,-5.67,-5.77,-5.10,0.55,0.56,0.56
164.88,6.22,5.70,6.22,5.70,-5.70,-5.79,-5.09,0.52,0.52,0.52
166.53,6.21,5.73,6.21,5.73,-5.73,-5.82,-5.09,0.49,0.49,0.48
168.19,6.20,5.75,6.20,5.75,-5.75,-5.84,-5.09,0.45,0.45,0.45
169.87,6.19,5.78,6.19,5.78,-5.78,-5.86,-5.09,0.41,0.41,0.41
171.57,6.18,5.80,6.18,5.80,-5.80,-5.88,-5.09,0.38,0.38,0.38
173.29,6.18,5.83,6.18,5.83,-5.83,-5.90,-5.10,0.35,0.35,0.35
175.02,6.16,5.85,6.17,5.85,-5.85,-5.92,-5.12,0.31,0.31,0.31
176.77,6.16,5.88,6.16,5.88,-5.87,-5.94,-5.14,0.29,0.28,0.28
178.54,6.14,5.89,6.15,5.90,-5.90,-5.95,-5.16,0.24,0.25,0.25
180.32,6.14,5.93,6.14,5.92,-5.92,-5.97,-5.18,0.22,0.22,0.21
182.13,6.12,5.94,6.12,5.94,-5.94,-5.98,-5.22,0.18,0.18,0.18
183.95,6.11,5.96,6.11,5.97,-5.96,-5.99,-5.25,0.15,0.15,0.15
185.79,6.10,5.99,6.10,5.99,-5.99,-6.00,-5.29,0.11,0.11,0.12
187.65,6.09,6.01,6.09,6.01,-6.01,-6.02,-5.33,0.08,0.08,0.08
189.52,6.08,6.04,6.08,6.03,-6.03,-6.02,-5.37,0.05,0.05,0.04
191.42,6.07,6.05,6.07,6.05,-6.06,-6.03,-5.42,0.02,0.01,0.03
193.33,6.06,6.07,6.06,6.07,-6.08,-6.04,-5.47,-0.02,-0.02,-0.01
195.27,6.04,6.09,6.05,6.10,-6.10,-6.05,-5.53,-0.06,-0.05,-0.05
197.22,6.04,6.13,6.03,6.12,-6.12,-6.05,-5.59,-0.07,-0.08,-0.09
199.19,6.02,6.14,6.02,6.14,-6.13,-6.06,-5.64,-0.11,-0.11,-0.12
201.18,6.00,6.14,6.00,6.15,-6.15,-6.06,-5.71,-0.14,-0.14,-0.14
203.19,5.99,6.16,5.99,6.16,-6.16,-6.06,-5.77,-0.17,-0.17,-0.17
205.23,5.96,6.16,5.97,6.16,-6.16,-6.06,-5.84,-0.20,-0.20,-0.20
207.28,5.95,6.17,5.94,6.17,-6.17,-6.06,-5.91,-0.22,-0.23,-0.22
209.35,5.91,6.17,5.92,6.17,-6.17,-6.06,-5.98,-0.26,-0.25,-0.25
211.44,5.89,6.17,5.89,6.17,-6.17,-6.06,-6.05,-0.28,-0.28,-0.28
213.56,5.87,6.17,5.87,6.17,-6.17,-6.06,-6.12,-0.30,-0.30,-0.30
215.69,5.84,6.17,5.84,6.16,-6.16,-6.06,-6.19,-0.32,-0.33,-0.33
217.85,5.80,6.15,5.81,6.16,-6.16,-6.06,-6.25,-0.36,-0.35,-0.35
220.03,5.77,6.15,5.77,6.15,-6.15,-6.05,-6.32,-0.38,-0.38,-0.38
222.23,5.74,6.14,5.74,6.14,-6.14,-6.05,-6.38,-0.40,-0.40,-0.40
224.45,5.70,6.13,5.70,6.13,-6.12,-6.04,-6.44,-0.42,-0.42,-0.42
226.70,5.66,6.11,5.67,6.11,-6.11,-6.03,-6.50,-0.45,-0.44,-0.45
228.96,5.63,6.09,5.63,6.09,-6.09,-6.02,-6.55,-0.46,-0.46,-0.46
231.25,5.60,6.08,5.59,6.07,-6.07,-6.01,-6.60,-0.47,-0.48,-0.48
233.57,5.55,6.05,5.55,6.06,-6.06,-6.00,-6.64,-0.50,-0.50,-0.50
235.90,5.51,6.04,5.52,6.04,-6.04,-5.99,-6.68,-0.52,-0.52,-0.53
238.26,5.48,6.03,5.48,6.02,-6.01,-5.98,-6.71,-0.53,-0.54,-0.55
240.64,5.44,5.99,5.44,5.99,-5.99,-5.97,-6.72,-0.55,-0.55,-0.54
243.05,5.40,5.96,5.40,5.97,-5.97,-5.95,-6.74,-0.57,-0.57,-0.56
245.48,5.36,5.94,5.36,5.94,-5.94,-5.93,-6.74,-0.58,-0.58,-0.58
247.93,5.32,5.92,5.32,5.92,-5.92,-5.92,-6.74,-0.60,-0.60,-0.60
250.41,5.28,5.89,5.28,5.89,-5.89,-5.90,-6.72,-0.61,-0.61,-0.61
252.92,5.24,5.86,5.24,5.86,-5.86,-5.88,-6.70,-0.62,-0.62,-0.62
255.45,5.20,5.83,5.20,5.83,-5.83,-5.86,-6.67,-0.63,-0.63,-0.63
258.00,5.16,5.80,5.16,5.80,-5.80,-5.83,-6.64,-0.64,-0.64,-0.64
260.58,5.12,5.77,5.12,5.77,-5.77,-5.81,-6.59,-0.65,-0.65,-0.65
263.19,5.08,5.74,5.08,5.74,-5.74,-5.78,-6.53,-0.66,-0.66,-0.66
265.82,5.04,5.71,5.04,5.71,-5.71,-5.76,-6.47,-0.67,-0.67,-0.67
268.48,4.99,5.68,4.99,5.68,-5.68,-5.73,-6.40,-0.69,-0.69,-0.69
271.16,4.95,5.64,4.95,5.65,-5.65,-5.70,-6.32,-0.70,-0.70,-0.69
273.87,4.91,5.62,4.91,5.62,-5.62,-5.66,-6.24,-0.71,-0.71,-0.71
276.61,4.87,5.59,4.87,5.59,-5.59,-5.63,-6.15,-0.71,-0.72,-0.72
279.38,4.82,5.56,4.82,5.56,-5.55,-5.60,-6.06,-0.73,-0.73,-0.74
282.17,4.78,5.52,4.78,5.52,-5.52,-5.56,-5.97,-0.74,-0.74,-0.74
284.99,4.73,5.48,4.73,5.48,-5.49,-5.52,-5.87,-0.76,-0.75,-0.75
287.84,4.69,5.43,4.69,5.44,-5.45,-5.48,-5.77,-0.76,-0.76,-0.74
290.72,4.65,5.42,4.65,5.41,-5.41,-5.44,-5.66,-0.76,-0.76,-0.77
293.63,4.61,5.38,4.61,5.38,-5.37,-5.40,-5.56,-0.76,-0.76,-0.77
296.57,4.56,5.34,4.56,5.34,-5.33,-5.36,-5.45,-0.77,-0.77,-0.78
299.53,4.51,5.29,4.51,5.29,-5.29,-5.31,-5.35,-0.78,-0.78,-0.78
302.53,4.46,5.24,4.46,5.25,-5.25,-5.27,-5.24,-0.79,-0.78,-0.78
305.55,4.42,5.21,4.42,5.20,-5.21,-5.22,-5.14,-0.78,-0.79,-0.79
308.61,4.37,5.15,4.37,5.16,-5.16,-5.17,-5.03,-0.79,-0.79,-0.78
311.69,4.32,5.11,4.32,5.11,-5.11,-5.12,-4.93,-0.79,-0.79,-0.78
314.81,4.28,5.07,4.28,5.06,-5.06,-5.07,-4.83,-0.78,-0.79,-0.79
317.96,4.23,5.02,4.23,5.02,-5.02,-5.02,-4.73,-0.78,-0.78,-0.79
321.14,4.18,4.97,4.18,4.97,-4.97,-4.97,-4.63,-0.79,-0.78,-0.78
324.35,4.13,4.92,4.13,4.91,-4.92,-4.92,-4.53,-0.79,-0.79,-0.79
327.59,4.08,4.85,4.08,4.86,-4.86,-4.87,-4.44,-0.78,-0.78,-0.77
330.87,4.03,4.81,4.03,4.81,-4.81,-4.81,-4.35,-0.78,-0.78,-0.78
334.18,3.98,4.77,3.98,4.76,-4.76,-4.76,-4.26,-0.78,-0.78,-0.79
337.52,3.93,4.71,3.93,4.71,-4.71,-4.71,-4.18,-0.78,-0.78,-0.78
340.90,3.88,4.65,3.88,4.65,-4.65,-4.65,-4.09,-0.77,-0.78,-0.77
344.30,3.82,4.59,3.83,4.60,-4.60,-4.60,-4.01,-0.78,-0.77,-0.77
347.75,3.77,4.54,3.78,4.55,-4.55,-4.54,-3.94,-0.78,-0.77,-0.77
351.23,3.73,4.51,3.72,4.49,-4.49,-4.48,-3.86,-0.76,-0.77,-0.78
354.74,3.67,4.43,3.67,4.44,-4.44,-4.43,-3.79,-0.77,-0.77,-0.76
358.28,3.61,4.38,3.62,4.39,-4.39,-4.37,-3.72,-0.78,-0.77,-0.77
361.87,3.57,4.35,3.56,4.33,-4.33,-4.31,-3.66,-0.76,-0.77,-0.77
365.49,3.51,4.28,3.51,4.28,-4.28,-4.26,-3.60,-0.77,-0.77,-0.77
369.14,3.45,4.22,3.45,4.23,-4.23,-4.20,-3.54,-0.78,-0.77,-0.77
372.83,3.40,4.17,3.40,4.17,-4.17,-4.14,-3.48,-0.77,-0.78,-0.77
376.56,3.34,4.12,3.34,4.12,-4.12,-4.08,-3.43,-0.78,-0.78,-0.78
380.33,3.29,4.06,3.29,4.07,-4.06,-4.03,-3.38,-0.77,-0.77,-0.77
384.13,3.23,4.01,3.23,4.01,-4.00,-3.97,-3.33,-0.77,-0.77,-0.78
387.97,3.18,3.95,3.18,3.95,-3.95,-3.91,-3.28,-0.77,-0.77,-0.77
391.85,3.12,3.89,3.12,3.89,-3.89,-3.85,-3.24,-0.77,-0.77,-0.77
395.77,3.06,3.83,3.06,3.83,-3.83,-3.79,-3.19,-0.77,-0.76,-0.77
399.73,3.00,3.76,3.00,3.76,-3.77,-3.73,-3.15,-0.76,-0.77,-0.76
403.72,2.94,3.69,2.94,3.70,-3.70,-3.67,-3.12,-0.76,-0.76,-0.75
407.76,2.88,3.63,2.88,3.64,-3.64,-3.61,-3.08,-0.76,-0.76,-0.75
411.84,2.83,3.59,2.83,3.58,-3.58,-3.55,-3.05,-0.75,-0.75,-0.76
415.96,2.77,3.52,2.77,3.52,-3.52,-3.49,-3.01,-0.75,-0.75,-0.75
420.12,2.70,3.46,2.71,3.46,-3.45,-3.43,-2.98,-0.75,-0.75,-0.76
424.32,2.64,3.40,2.64,3.39,-3.39,-3.36,-2.95,-0.75,-0.75,-0.76
428.56,2.58,3.32,2.58,3.33,-3.33,-3.30,-2.92,-0.75,-0.75,-0.74
432.85,2.52,3.26,2.52,3.26,-3.27,-3.24,-2.89,-0.75,-0.75,-0.74
437.18,2.45,3.20,2.45,3.20,-3.20,-3.18,-2.86,-0.75,-0.75,-0.75
441.55,2.39,3.14,2.39,3.14,-3.14,-3.11,-2.83,-0.75,-0.75,-0.75
445.96,2.32,3.07,2.32,3.08,-3.07,-3.05,-2.81,-0.75,-0.75,-0.75
450.42,2.25,3.01,2.25,3.01,-3.01,-2.99,-2.78,-0.76,-0.75,-0.75
454.93,2.19,2.95,2.19,2.94,-2.94,-2.92,-2.75,-0.75,-0.75,-0.76
459.48,2.12,2.88,2.12,2.87,-2.87,-2.86,-2.72,-0.75,-0.75,-0.76
464.07,2.05,2.80,2.06,2.80,-2.80,-2.80,-2.69,-0.75,-0.75,-0.75
468.71,1.99,2.73,1.99,2.73,-2.73,-2.73,-2.65,-0.74,-0.75,-0.74
473.40,1.92,2.66,1.92,2.66,-2.67,-2.67,-2.62,-0.74,-0.74,-0.74
478.13,1.85,2.59,1.85,2.59,-2.60,-2.60,-2.59,-0.75,-0.74,-0.74
482.91,1.79,2.53,1.79,2.53,-2.53,-2.53,-2.55,-0.74,-0.74,-0.74
487.74,1.72,2.46,1.72,2.46,-2.46,-2.47,-2.51,-0.74,-0.74,-0.74
492.62,1.65,2.39,1.65,2.40,-2.39,-2.40,-2.47,-0.74,-0.74,-0.74
497.55,1.59,2.33,1.58,2.32,-2.32,-2.33,-2.43,-0.73,-0.74,-0.74
502.52,1.51,2.25,1.51,2.25,-2.25,-2.27,-2.38,-0.74,-0.74,-0.74
507.55,1.44,2.17,1.45,2.18,-2.18,-2.20,-2.34,-0.74,-0.74,-0.73
512.62,1.38,2.11,1.37,2.11,-2.11,-2.13,-2.29,-0.73,-0.73,-0.73
517.75,1.31,2.04,1.31,2.04,-2.04,-2.06,-2.24,-0.73,-0.73,-0.72
522.93,1.23,1.96,1.24,1.96,-1.96,-1.99,-2.19,-0.73,-0.73,-0.73
