frequency,raw,error,smoothed,error_smoothed,equalization,parametric_eq,fixed_band_eq,equalized_raw,equalized_smoothed,target
20.00,-8.04,-13.49,-8.05,-13.50,6.00,5.58,2.87,-2.04,-2.05,5.45
20.20,-7.85,-13.33,-7.84,-13.33,6.00,5.61,2.95,-1.85,-1.84,5.49
20.40,-7.66,-13.19,-7.65,-13.17,6.00,5.63,3.04,-1.66,-1.65,5.53
20.61,-7.48,-13.03,-7.47,-13.03,6.00,5.65,3.12,-1.48,-1.47,5.55
20.81,-7.29,-12.88,-7.29,-12.88,6.00,5.68,3.21,-1.29,-1.29,5.59
21.02,-7.12,-12.74,-7.14,-12.76,6.00,5.70,3.31,-1.12,-1.14,5.63
21.23,-7.03,-12.66,-7.02,-12.66,6.00,5.73,3.40,-1.03,-1.02,5.64
21.44,-6.93,-12.59,-6.93,-12.58,6.00,5.75,3.50,-0.93,-0.93,5.66
21.66,-6.85,-12.51,-6.85,-12.51,6.00,5.77,3.60,-0.85,-0.85,5.67
21.87,-6.75,-12.42,-6.75,-12.42,6.00,5.80,3.70,-0.75,-0.75,5.67
22.09,-6.65,-12.33,-6.66,-12.33,6.00,5.82,3.80,-0.65,-0.66,5.68
22.31,-6.55,-12.23,-6.55,-12.23,6.00,5.85,3.91,-0.55,-0.55,5.68
22.54,-6.45,-12.12,-6.45,-12.12,6.00,5.87,4.02,-0.45,-0.45,5.68
22.76,-6.33,-12.00,-6.34,-12.00,6.00,5.90,4.14,-0.33,-0.34,5.66
22.99,-6.23,-11.88,-6.22,-11.88,6.00,5.92,4.26,-0.23,-0.22,5.65
23.22,-6.11,-11.76,-6.10,-11.75,6.00,5.94,4.38,-0.11,-0.10,5.65
23.45,-5.97,-11.62,-5.98,-11.63,6.00,5.97,4.50,0.03,0.02,5.64
23.69,-5.86,-11.50,-5.85,-11.50,6.00,5.99,4.62,0.14,0.15,5.64
23.92,-5.72,-11.37,-5.72,-11.37,6.00,6.01,4.75,0.28,0.28,5.64
24.16,-5.58,-11.24,-5.58,-11.23,6.00,6.04,4.88,0.42,0.42,5.65
24.40,-5.43,-11.08,-5.43,-11.08,6.00,6.06,5.01,0.57,0.57,5.65
24.65,-5.30,-10.94,-5.29,-10.93,6.00,6.08,5.15,0.70,0.71,5.64
24.89,-5.14,-10.78,-5.16,-10.80,6.00,6.10,5.28,0.86,0.84,5.64
25.14,-5.04,-10.68,-5.05,-10.69,6.00,6.12,5.42,0.96,0.95,5.64
25.39,-4.97,-10.61,-4.97,-10.61,6.00,6.14,5.56,1.03,1.03,5.64
25.65,-4.91,-10.53,-4.91,-10.53,6.00,6.16,5.70,1.09,1.09,5.63
25.91,-4.84,-10.45,-4.82,-10.45,6.00,6.18,5.84,1.16,1.18,5.62
26.16,-4.72,-10.34,-4.72,-10.34,6.00,6.19,5.98,1.28,1.28,5.62
26.43,-4.60,-10.21,-4.60,-10.22,6.00,6.21,6.12,1.40,1.40,5.62
26.69,-4.48,-10.09,-4.48,-10.09,6.00,6.22,6.26,1.52,1.52,5.62
26.96,-4.35,-9.95,-4.35,-9.96,6.00,6.23,6.39,1.65,1.65,5.60
27.23,-4.22,-9.82,-4.21,-9.82,6.00,6.25,6.53,1.78,1.79,5.60
27.50,-4.08,-9.68,-4.07,-9.67,6.00,6.26,6.66,1.92,1.93,5.60
27.77,-3.93,-9.53,-3.94,-9.53,6.00,6.26,6.78,2.07,2.06,5.59
28.05,-3.81,-9.40,-3.82,-9.41,6.00,6.27,6.90,2.19,2.18,5.59
28.33,-3.73,-9.31,-3.73,-9.31,6.00,6.27,7.01,2.27,2.27,5.58
28.62,-3.64,-9.22,-3.64,-9.22,6.00,6.28,7.12,2.36,2.36,5.58
28.90,-3.55,-9.13,-3.53,-9.11,6.00,6.28,7.22,2.45,2.47,5.58
29.19,-3.40,-8.97,-3.39,-8.97,6.00,6.28,7.31,2.60,2.61,5.58
29.48,-3.20,-8.79,-3.20,-8.79,6.00,6.27,7.38,2.80,2.80,5.59
29.78,-3.02,-8.59,-3.02,-8.60,6.00,6.27,7.45,2.98,2.98,5.57
30.08,-2.86,-8.44,-2.88,-8.46,6.00,6.26,7.51,3.14,3.12,5.58
30.38,-2.80,-8.36,-2.79,-8.36,6.00,6.25,7.55,3.20,3.21,5.56
30.68,-2.74,-8.30,-2.73,-8.29,6.00,6.23,7.58,3.26,3.27,5.56
30.99,-2.68,-8.23,-2.68,-8.23,6.00,6.22,7.60,3.32,3.32,5.55
31.30,-2.62,-8.16,-2.62,-8.17,6.00,6.20,7.59,3.38,3.38,5.55
31.61,-2.56,-8.10,-2.56,-8.10,6.00,6.18,7.58,3.44,3.44,5.55
31.93,-2.50,-8.02,-2.47,-8.00,6.00,6.15,7.55,3.50,3.53,5.53
32.24,-2.35,-7.87,-2.35,-7.87,6.00,6.13,7.52,3.65,3.65,5.51
32.57,-2.20,-7.71,-2.20,-7.70,6.00,6.10,7.46,3.80,3.80,5.51
32.89,-2.02,-7.53,-2.04,-7.53,6.00,6.06,7.40,3.98,3.96,5.50
33.22,-1.89,-7.36,-1.89,-7.37,6.00,6.03,7.32,4.11,4.11,5.48
33.55,-1.76,-7.24,-1.76,-7.23,6.00,5.99,7.23,4.24,4.24,5.48
33.89,-1.64,-7.09,-1.64,-7.10,6.00,5.95,7.13,4.36,4.36,5.46
34.23,-1.52,-6.97,-1.52,-6.97,6.00,5.91,7.02,4.48,4.48,5.45
34.57,-1.41,-6.84,-1.41,-6.84,6.00,5.86,6.90,4.60,4.60,5.43
34.92,-1.30,-6.72,-1.29,-6.72,6.02,5.81,6.78,4.72,4.72,5.42
35.27,-1.19,-6.60,-1.19,-6.60,6.02,5.76,6.65,4.84,4.84,5.42
35.62,-1.08,-6.47,-1.08,-6.48,6.02,5.70,6.52,4.94,4.94,5.39
35.97,-0.97,-6.36,-0.97,-6.36,6.00,5.65,6.38,5.02,5.03,5.38
36.33,-0.85,-6.23,-0.85,-6.23,5.96,5.59,6.24,5.11,5.11,5.38
36.70,-0.73,-6.09,-0.73,-6.10,5.92,5.52,6.09,5.20,5.19,5.37
37.06,-0.59,-5.95,-0.58,-5.94,5.88,5.46,5.94,5.28,5.30,5.36
37.43,-0.44,-5.81,-0.43,-5.78,5.83,5.39,5.79,5.38,5.40,5.36
37.81,-0.29,-5.64,-0.31,-5.66,5.76,5.32,5.65,5.48,5.45,5.35
38.19,-0.23,-5.56,-0.27,-5.61,5.68,5.25,5.50,5.46,5.42,5.34
38.57,-0.26,-5.60,-0.25,-5.59,5.59,5.18,5.35,5.33,5.33,5.34
38.95,-0.29,-5.62,-0.23,-5.56,5.48,5.10,5.20,5.19,5.25,5.33
39.34,-0.13,-5.46,-0.14,-5.46,5.37,5.03,5.05,5.23,5.23,5.33
39.74,0.03,-5.28,0.02,-5.30,5.26,4.95,4.91,5.29,5.27,5.31
40.14,0.20,-5.11,0.20,-5.12,5.15,4.87,4.77,5.35,5.34,5.31
40.54,0.33,-4.97,0.34,-4.97,5.02,4.79,4.62,5.36,5.36,5.31
40.94,0.47,-4.83,0.46,-4.84,4.89,4.70,4.49,5.37,5.35,5.30
41.35,0.55,-4.73,0.55,-4.74,4.75,4.62,4.35,5.31,5.31,5.29
41.76,0.64,-4.64,0.64,-4.64,4.63,4.53,4.21,5.26,5.27,5.28
42.18,0.72,-4.55,0.74,-4.53,4.51,4.45,4.08,5.23,5.24,5.27
42.60,0.85,-4.41,0.84,-4.42,4.40,4.36,3.95,5.24,5.24,5.26
43.03,0.96,-4.29,0.95,-4.30,4.29,4.27,3.83,5.26,5.24,5.25
43.46,1.04,-4.18,1.05,-4.18,4.19,4.18,3.70,5.23,5.23,5.23
43.90,1.12,-4.08,1.13,-4.08,4.08,4.09,3.58,5.20,5.21,5.20
44.33,1.22,-3.97,1.22,-3.97,3.97,4.00,3.46,5.19,5.19,5.19
44.78,1.30,-3.86,1.30,-3.86,3.87,3.91,3.34,5.17,5.17,5.16
45.23,1.38,-3.76,1.38,-3.77,3.78,3.82,3.23,5.16,5.16,5.15
45.68,1.45,-3.68,1.46,-3.67,3.69,3.73,3.12,5.14,5.14,5.13
46.13,1.53,-3.59,1.53,-3.59,3.60,3.64,3.01,5.13,5.13,5.12
46.60,1.60,-3.51,1.60,-3.51,3.52,3.55,2.90,5.12,5.12,5.11
47.06,1.67,-3.43,1.67,-3.43,3.42,3.46,2.80,5.09,5.09,5.10
47.53,1.75,-3.34,1.75,-3.34,3.32,3.36,2.70,5.07,5.07,5.10
48.01,1.83,-3.26,1.84,-3.25,3.21,3.27,2.60,5.04,5.05,5.09
48.49,1.94,-3.13,1.94,-3.13,3.09,3.18,2.50,5.04,5.03,5.07
48.97,2.06,-3.00,2.07,-2.99,2.98,3.09,2.41,5.03,5.05,5.06
49.46,2.21,-2.84,2.21,-2.84,2.86,3.00,2.31,5.06,5.07,5.05
49.96,2.36,-2.67,2.33,-2.71,2.74,2.91,2.22,5.11,5.08,5.03
50.46,2.42,-2.62,2.43,-2.61,2.65,2.82,2.13,5.07,5.08,5.04
50.96,2.48,-2.55,2.50,-2.54,2.57,2.72,2.05,5.05,5.07,5.04
51.47,2.54,-2.48,2.55,-2.48,2.50,2.63,1.96,5.04,5.05,5.03
51.99,2.60,-2.41,2.60,-2.42,2.44,2.54,1.88,5.04,5.04,5.02
52.51,2.63,-2.38,2.63,-2.39,2.39,2.46,1.80,5.02,5.02,5.02
53.03,2.66,-2.36,2.63,-2.39,2.34,2.37,1.72,5.00,4.96,5.02
53.56,2.63,-2.38,2.66,-2.36,2.29,2.28,1.65,4.92,4.94,5.01
54.10,2.66,-2.34,2.77,-2.24,2.23,2.19,1.57,4.89,4.99,5.00
54.64,2.92,-2.08,2.86,-2.13,2.15,2.10,1.50,5.08,5.02,5.00
55.18,3.05,-1.94,2.92,-2.07,2.08,2.02,1.42,5.13,5.00,4.99
55.74,2.90,-2.08,2.99,-1.99,2.00,1.93,1.35,4.89,4.99,4.98
56.29,2.96,-2.02,3.05,-1.92,1.91,1.85,1.29,4.86,4.96,4.98
56.86,3.23,-1.72,3.14,-1.82,1.82,1.76,1.22,5.05,4.95,4.95
57.42,3.28,-1.66,3.25,-1.70,1.73,1.68,1.15,5.02,4.98,4.94
58.00,3.26,-1.67,3.28,-1.65,1.66,1.59,1.09,4.92,4.94,4.93
58.58,3.28,-1.63,3.32,-1.60,1.58,1.51,1.03,4.86,4.89,4.92
59.16,3.36,-1.55,3.42,-1.48,1.48,1.43,0.97,4.84,4.91,4.90
59.76,3.59,-1.29,3.48,-1.40,1.39,1.35,0.91,4.98,4.87,4.88
60.35,3.59,-1.26,3.53,-1.33,1.30,1.26,0.85,4.89,4.83,4.86
60.96,3.44,-1.40,3.61,-1.21,1.21,1.18,0.79,4.64,4.82,4.83
61.57,3.69,-1.09,3.67,-1.12,1.12,1.10,0.73,4.81,4.79,4.79
62.18,3.87,-0.88,3.75,-1.00,1.02,1.03,0.68,4.90,4.78,4.75
62.80,3.79,-0.92,3.84,-0.87,0.93,0.95,0.63,4.72,4.76,4.71
63.43,3.80,-0.87,3.84,-0.83,0.84,0.87,0.57,4.64,4.68,4.68
64.07,3.87,-0.77,3.86,-0.78,0.74,0.79,0.52,4.62,4.60,4.64
64.71,3.93,-0.67,3.93,-0.67,0.65,0.72,0.47,4.59,4.58,4.60
65.35,4.00,-0.57,4.00,-0.57,0.57,0.64,0.42,4.57,4.57,4.57
66.01,4.06,-0.47,4.07,-0.47,0.48,0.57,0.38,4.54,4.55,4.54
66.67,4.13,-0.36,4.12,-0.38,0.39,0.49,0.33,4.53,4.52,4.50
67.33,4.17,-0.29,4.17,-0.29,0.30,0.42,0.28,4.47,4.47,4.47
68.01,4.20,-0.22,4.22,-0.21,0.19,0.34,0.23,4.40,4.41,4.43
68.69,4.26,-0.12,4.26,-0.12,0.10,0.27,0.19,4.36,4.36,4.39
69.37,4.32,-0.02,4.32,-0.03,0.01,0.20,0.14,4.34,4.33,4.35
70.07,4.37,0.07,4.38,0.08,-0.06,0.13,0.10,4.31,4.32,4.30
70.77,4.44,0.17,4.45,0.18,-0.13,0.06,0.06,4.31,4.32,4.27
71.48,4.50,0.28,4.49,0.26,-0.21,-0.01,0.01,4.30,4.28,4.23
72.19,4.52,0.34,4.48,0.30,-0.29,-0.08,-0.03,4.23,4.19,4.18
72.91,4.43,0.30,4.46,0.32,-0.38,-0.15,-0.08,4.05,4.08,4.13
73.64,4.42,0.34,4.47,0.39,-0.47,-0.22,-0.12,3.96,4.01,4.09
74.38,4.52,0.48,4.52,0.48,-0.54,-0.29,-0.16,3.98,3.97,4.04
75.12,4.67,0.68,4.63,0.63,-0.62,-0.35,-0.21,4.06,4.02,4.00
75.87,4.69,0.73,4.75,0.79,-0.70,-0.42,-0.25,3.99,4.05,3.96
76.63,4.83,0.91,4.77,0.85,-0.78,-0.48,-0.29,4.06,3.99,3.92
77.40,4.79,0.91,4.75,0.86,-0.86,-0.55,-0.34,3.94,3.89,3.88
78.17,4.64,0.80,4.74,0.89,-0.92,-0.61,-0.38,3.72,3.82,3.85
78.95,4.73,0.92,4.75,0.93,-0.97,-0.68,-0.43,3.76,3.77,3.82
79.74,4.84,1.05,4.80,1.01,-1.02,-0.74,-0.47,3.82,3.78,3.79
80.54,4.87,1.11,4.87,1.11,-1.07,-0.80,-0.52,3.81,3.81,3.76
81.35,4.87,1.14,4.86,1.13,-1.12,-0.87,-0.57,3.75,3.74,3.73
82.16,4.86,1.17,4.85,1.14,-1.19,-0.93,-0.61,3.67,3.65,3.70
82.98,4.80,1.13,4.88,1.21,-1.27,-0.99,-0.66,3.54,3.61,3.68
83.81,4.95,1.32,4.95,1.31,-1.34,-1.05,-0.71,3.62,3.61,3.64
84.65,5.08,1.48,5.03,1.42,-1.40,-1.11,-0.76,3.68,3.63,3.60
85.50,5.10,1.52,5.10,1.52,-1.45,-1.17,-0.81,3.65,3.64,3.58
86.35,5.07,1.53,5.10,1.55,-1.50,-1.23,-0.86,3.58,3.60,3.55
87.22,5.07,1.56,5.08,1.56,-1.54,-1.28,-0.91,3.53,3.54,3.51
88.09,5.07,1.59,5.08,1.59,-1.58,-1.34,-0.96,3.50,3.50,3.48
88.97,5.07,1.62,5.05,1.60,-1.61,-1.40,-1.02,3.46,3.44,3.46
89.86,5.04,1.62,5.03,1.61,-1.65,-1.45,-1.07,3.39,3.38,3.42
90.76,4.97,1.59,5.03,1.65,-1.70,-1.51,-1.13,3.27,3.33,3.39
91.66,5.07,1.71,5.06,1.71,-1.77,-1.56,-1.18,3.31,3.30,3.36
92.58,5.16,1.84,5.12,1.80,-1.84,-1.62,-1.24,3.33,3.28,3.32
93.51,5.18,1.89,5.23,1.93,-1.91,-1.67,-1.30,3.27,3.32,3.30
94.44,5.28,2.01,5.30,2.03,-1.98,-1.72,-1.36,3.31,3.33,3.27
95.39,5.40,2.16,5.34,2.10,-2.04,-1.77,-1.42,3.37,3.31,3.24
96.34,5.35,2.15,5.35,2.14,-2.08,-1.82,-1.48,3.27,3.27,3.21
97.30,5.27,2.09,5.31,2.13,-2.12,-1.87,-1.54,3.16,3.20,3.18
98.28,5.26,2.11,5.26,2.11,-2.14,-1.92,-1.60,3.13,3.12,3.15
99.26,5.24,2.11,5.24,2.11,-2.14,-1.97,-1.66,3.10,3.09,3.13
100.25,5.22,2.12,5.22,2.12,-2.14,-2.02,-1.72,3.08,3.08,3.11
101.25,5.20,2.13,5.21,2.13,-2.15,-2.06,-1.78,3.06,3.06,3.08
102.27,5.19,2.14,5.19,2.15,-2.15,-2.11,-1.85,3.05,3.05,3.05
103.29,5.18,2.18,5.18,2.17,-2.16,-2.15,-1.91,3.03,3.03,3.00
104.32,5.16,2.18,5.16,2.19,-2.17,-2.20,-1.97,2.99,2.99,2.98
105.37,5.14,2.20,5.14,2.20,-2.19,-2.24,-2.03,2.95,2.95,2.94
106.42,5.11,2.20,5.12,2.20,-2.21,-2.28,-2.09,2.90,2.90,2.92
107.48,5.09,2.22,5.09,2.21,-2.23,-2.32,-2.15,2.86,2.85,2.88
108.56,5.06,2.22,5.06,2.22,-2.25,-2.36,-2.21,2.81,2.81,2.84
109.64,5.04,2.24,5.07,2.26,-2.26,-2.40,-2.27,2.78,2.81,2.80
110.74,5.05,2.28,5.08,2.31,-2.27,-2.44,-2.33,2.79,2.81,2.77
111.85,5.12,2.38,5.06,2.32,-2.27,-2.48,-2.38,2.85,2.79,2.75
112.97,5.02,2.33,5.01,2.30,-2.28,-2.51,-2.43,2.74,2.73,2.70
114.10,4.89,2.21,4.95,2.27,-2.29,-2.55,-2.48,2.61,2.66,2.68
115.24,4.89,2.25,4.89,2.25,-2.29,-2.58,-2.53,2.60,2.60,2.64
116.39,4.89,2.28,4.88,2.27,-2.30,-2.61,-2.57,2.59,2.58,2.62
117.55,4.89,2.30,4.90,2.31,-2.31,-2.64,-2.61,2.58,2.59,2.59
118.73,4.90,2.34,4.90,2.33,-2.32,-2.67,-2.65,2.58,2.58,2.56
119.92,4.91,2.36,4.91,2.36,-2.34,-2.70,-2.68,2.57,2.57,2.56
121.12,4.91,2.38,4.92,2.38,-2.37,-2.73,-2.72,2.54,2.55,2.53
122.33,4.92,2.41,4.93,2.41,-2.41,-2.76,-2.74,2.52,2.52,2.52
123.55,4.93,2.42,4.93,2.43,-2.44,-2.78,-2.76,2.49,2.49,2.51
124.79,4.94,2.46,4.94,2.45,-2.47,-2.81,-2.78,2.47,2.46,2.49
126.03,4.94,2.47,4.94,2.47,-2.50,-2.83,-2.80,2.44,2.44,2.47
127.29,4.95,2.50,4.98,2.53,-2.52,-2.85,-2.81,2.43,2.46,2.46
128.57,5.00,2.57,5.01,2.57,-2.53,-2.87,-2.82,2.47,2.47,2.43
129.85,5.06,2.64,5.00,2.58,-2.53,-2.89,-2.82,2.53,2.47,2.42
131.15,4.94,2.53,4.97,2.56,-2.53,-2.91,-2.82,2.42,2.44,2.41
132.46,4.89,2.50,4.93,2.53,-2.51,-2.93,-2.81,2.38,2.42,2.40
133.79,4.88,2.49,4.87,2.48,-2.49,-2.94,-2.81,2.39,2.37,2.40
135.12,4.87,2.51,4.82,2.45,-2.47,-2.96,-2.79,2.40,2.35,2.37
136.48,4.73,2.37,4.78,2.42,-2.46,-2.97,-2.78,2.28,2.33,2.36
137.84,4.73,2.39,4.75,2.42,-2.45,-2.98,-2.77,2.29,2.31,2.35
139.22,4.77,2.46,4.75,2.43,-2.45,-2.99,-2.75,2.32,2.30,2.32
140.61,4.79,2.50,4.79,2.48,-2.47,-3.00,-2.73,2.32,2.31,2.30
142.02,4.79,2.50,4.79,2.50,-2.50,-3.01,-2.71,2.30,2.30,2.30
143.44,4.79,2.51,4.80,2.52,-2.52,-3.02,-2.69,2.27,2.28,2.28
144.87,4.79,2.54,4.83,2.57,-2.54,-3.02,-2.66,2.25,2.28,2.25
146.32,4.86,2.64,4.83,2.60,-2.56,-3.03,-2.64,2.30,2.27,2.23
147.78,4.84,2.64,4.81,2.61,-2.59,-3.03,-2.61,2.26,2.23,2.20
149.26,4.74,2.58,4.77,2.61,-2.61,-3.04,-2.59,2.14,2.16,2.17
150.75,4.69,2.58,4.71,2.60,-2.64,-3.04,-2.56,2.06,2.08,2.11
152.26,4.69,2.63,4.69,2.62,-2.67,-3.04,-2.54,2.02,2.01,2.07
153.78,4.69,2.68,4.69,2.68,-2.71,-3.04,-2.51,1.99,1.98,2.01
155.32,4.69,2.74,4.70,2.74,-2.74,-3.04,-2.49,1.95,1.95,1.95
156.88,4.69,2.80,4.70,2.81,-2.78,-3.03,-2.47,1.92,1.92,1.90
158.44,4.69,2.87,4.69,2.86,-2.81,-3.03,-2.45,1.88,1.87,1.83
160.03,4.66,2.90,4.66,2.89,-2.85,-3.03,-2.43,1.82,1.81,1.77
161.63,4.60,2.89,4.60,2.89,-2.87,-3.02,-2.41,1.73,1.73,1.71
163.24,4.53,2.88,4.54,2.88,-2.89,-3.01,-2.39,1.64,1.65,1.65
164.88,4.48,2.86,4.50,2.88,-2.91,-3.01,-2.37,1.57,1.59,1.62
166.53,4.48,2.90,4.48,2.89,-2.92,-3.00,-2.36,1.56,1.55,1.59
168.19,4.47,2.92,4.47,2.92,-2.94,-2.99,-2.34,1.54,1.53,1.56
169.87,4.47,2.95,4.47,2.94,-2.95,-2.98,-2.33,1.53,1.52,1.53
171.57,4.46,2.95,4.48,2.96,-2.95,-2.97,-2.32,1.51,1.52,1.51
173.29,4.47,2.97,4.49,2.99,-2.96,-2.96,-2.32,1.52,1.54,1.50
175.02,4.52,3.03,4.48,2.99,-2.95,-2.94,-2.31,1.57,1.53,1.50
176.77,4.46,2.97,4.45,2.96,-2.94,-2.93,-2.31,1.53,1.52,1.49
178.54,4.37,2.89,4.40,2.91,-2.91,-2.91,-2.30,1.47,1.50,1.49
180.32,4.35,2.85,4.37,2.87,-2.88,-2.90,-2.30,1.47,1.49,1.50
182.13,4.35,2.85,4.35,2.85,-2.86,-2.88,-2.31,1.50,1.49,1.51
183.95,4.36,2.86,4.32,2.82,-2.84,-2.87,-2.31,1.53,1.48,1.50
185.79,4.26,2.77,4.28,2.79,-2.83,-2.85,-2.31,1.44,1.46,1.50
187.65,4.23,2.75,4.27,2.78,-2.82,-2.83,-2.32,1.41,1.45,1.48
189.52,4.28,2.80,4.29,2.82,-2.82,-2.81,-2.33,1.46,1.47,1.48
191.42,4.36,2.90,4.34,2.87,-2.83,-2.79,-2.34,1.53,1.51,1.47
193.33,4.38,2.93,4.35,2.89,-2.85,-2.77,-2.35,1.54,1.50,1.46
195.27,4.30,2.86,4.32,2.88,-2.86,-2.75,-2.37,1.44,1.46,1.44
197.22,4.26,2.84,4.29,2.87,-2.88,-2.73,-2.38,1.38,1.40,1.42
199.19,4.27,2.87,4.27,2.86,-2.90,-2.71,-2.40,1.37,1.36,1.40
201.18,4.28,2.89,4.27,2.89,-2.92,-2.69,-2.41,1.37,1.36,1.39
203.19,4.28,2.91,4.30,2.93,-2.92,-2.66,-2.43,1.36,1.37,1.38
205.23,4.30,2.96,4.31,2.95,-2.93,-2.64,-2.45,1.38,1.38,1.35
207.28,4.33,2.99,4.30,2.96,-2.93,-2.62,-2.47,1.40,1.37,1.35
209.35,4.26,2.94,4.27,2.94,-2.93,-2.59,-2.49,1.34,1.34,1.32
211.44,4.19,2.89,4.23,2.92,-2.91,-2.57,-2.51,1.28,1.31,1.30
213.56,4.18,2.89,4.18,2.89,-2.89,-2.54,-2.53,1.29,1.29,1.29
215.69,4.17,2.89,4.15,2.86,-2.86,-2.52,-2.55,1.31,1.28,1.28
217.85,4.09,2.82,4.10,2.83,-2.83,-2.49,-2.57,1.26,1.27,1.27
220.03,4.03,2.78,4.04,2.78,-2.80,-2.47,-2.58,1.24,1.24,1.26
222.23,3.98,2.74,3.99,2.73,-2.77,-2.44,-2.60,1.22,1.22,1.25
224.45,3.96,2.70,3.99,2.73,-2.74,-2.41,-2.62,1.23,1.25,1.26
226.70,3.99,2.73,3.98,2.72,-2.71,-2.38,-2.63,1.29,1.27,1.26
228.96,4.00,2.74,3.96,2.69,-2.68,-2.36,-2.64,1.33,1.28,1.27
231.25,3.90,2.62,3.93,2.66,-2.64,-2.33,-2.65,1.26,1.29,1.28
233.57,3.88,2.59,3.91,2.62,-2.61,-2.30,-2.66,1.27,1.30,1.29
235.90,3.91,2.61,3.89,2.58,-2.58,-2.27,-2.66,1.33,1.31,1.31
238.26,3.91,2.58,3.89,2.55,-2.55,-2.24,-2.67,1.36,1.33,1.33
240.64,3.84,2.49,3.87,2.51,-2.52,-2.21,-2.67,1.32,1.35,1.36
243.05,3.84,2.45,3.85,2.47,-2.50,-2.18,-2.66,1.35,1.36,1.39
245.48,3.86,2.45,3.86,2.45,-2.47,-2.15,-2.65,1.39,1.39,1.42
247.93,3.89,2.45,3.90,2.46,-2.45,-2.12,-2.64,1.44,1.45,1.44
250.41,3.91,2.46,3.91,2.45,-2.43,-2.09,-2.63,1.49,1.48,1.45
252.92,3.92,2.43,3.91,2.42,-2.40,-2.06,-2.61,1.52,1.50,1.49
255.45,3.87,2.36,3.89,2.38,-2.38,-2.03,-2.59,1.50,1.51,1.52
258.00,3.85,2.32,3.87,2.34,-2.34,-2.00,-2.57,1.52,1.53,1.53
260.58,3.85,2.31,3.85,2.30,-2.29,-1.97,-2.54,1.56,1.56,1.55
263.19,3.84,2.27,3.82,2.26,-2.24,-1.94,-2.51,1.61,1.59,1.57
265.82,3.77,2.19,3.78,2.19,-2.17,-1.91,-2.47,1.60,1.60,1.59
268.48,3.71,2.10,3.73,2.11,-2.11,-1.88,-2.44,1.60,1.62,1.61
271.16,3.66,2.02,3.67,2.03,-2.05,-1.85,-2.39,1.62,1.62,1.64
273.87,3.64,1.99,3.62,1.96,-1.98,-1.82,-2.35,1.66,1.64,1.66
276.61,3.57,1.89,3.58,1.90,-1.92,-1.78,-2.31,1.65,1.66,1.68
279.38,3.54,1.83,3.56,1.85,-1.86,-1.75,-2.26,1.68,1.70,1.71
282.17,3.54,1.82,3.54,1.81,-1.80,-1.72,-2.21,1.74,1.74,1.73
284.99,3.54,1.78,3.52,1.76,-1.75,-1.69,-2.16,1.79,1.77,1.76
287.84,3.49,1.70,3.50,1.71,-1.70,-1.66,-2.11,1.79,1.80,1.79
290.72,3.44,1.62,3.47,1.65,-1.64,-1.63,-2.05,1.80,1.83,1.83
293.63,3.47,1.62,3.46,1.60,-1.59,-1.59,-2.00,1.89,1.87,1.85
296.57,3.44,1.55,3.44,1.55,-1.53,-1.56,-1.95,1.91,1.90,1.89
299.53,3.41,1.51,3.40,1.49,-1.48,-1.53,-1.89,1.93,1.92,1.91
302.53,3.33,1.40,3.36,1.41,-1.44,-1.50,-1.83,1.90,1.92,1.94
305.55,3.32,1.35,3.33,1.37,-1.40,-1.46,-1.78,1.93,1.93,1.97
308.61,3.33,1.34,3.32,1.33,-1.36,-1.43,-1.72,1.98,1.96,1.99
311.69,3.33,1.32,3.34,1.33,-1.32,-1.40,-1.66,2.01,2.02,2.01
314.81,3.34,1.30,3.35,1.31,-1.29,-1.37,-1.61,2.05,2.06,2.05
317.96,3.36,1.31,3.34,1.28,-1.26,-1.33,-1.55,2.11,2.08,2.06
321.14,3.30,1.23,3.31,1.24,-1.22,-1.30,-1.50,2.08,2.09,2.07
324.35,3.25,1.17,3.28,1.19,-1.18,-1.27,-1.44,2.07,2.09,2.08
327.59,3.24,1.14,3.23,1.14,-1.14,-1.23,-1.39,2.11,2.10,2.10
330.87,3.20,1.10,3.20,1.09,-1.08,-1.20,-1.33,2.12,2.11,2.11
334.18,3.14,1.03,3.15,1.03,-1.03,-1.17,-1.28,2.12,2.12,2.12
337.52,3.09,0.97,3.10,0.97,-0.97,-1.13,-1.23,2.13,2.13,2.12
340.90,3.04,0.90,3.05,0.91,-0.91,-1.10,-1.18,2.13,2.13,2.14
344.30,3.01,0.86,3.00,0.85,-0.86,-1.07,-1.13,2.15,2.14,2.15
347.75,2.95,0.79,2.97,0.81,-0.82,-1.03,-1.08,2.13,2.15,2.16
351.23,2.93,0.77,2.94,0.78,-0.78,-1.00,-1.03,2.15,2.16,2.17
354.74,2.93,0.77,2.91,0.74,-0.75,-0.97,-0.98,2.19,2.17,2.17
358.28,2.89,0.72,2.89,0.72,-0.72,-0.93,-0.93,2.18,2.17,2.18
361.87,2.85,0.68,2.87,0.70,-0.69,-0.90,-0.88,2.16,2.18,2.17
365.49,2.85,0.67,2.86,0.68,-0.67,-0.87,-0.84,2.18,2.19,2.18
369.14,2.86,0.68,2.84,0.66,-0.65,-0.83,-0.79,2.21,2.19,2.18
372.83,2.82,0.64,2.82,0.64,-0.64,-0.80,-0.75,2.19,2.19,2.18
376.56,2.78,0.61,2.80,0.62,-0.63,-0.76,-0.70,2.15,2.17,2.18
380.33,2.78,0.59,2.79,0.60,-0.63,-0.73,-0.66,2.16,2.16,2.20
384.13,2.79,0.61,2.79,0.60,-0.62,-0.69,-0.62,2.17,2.17,2.19
387.97,2.79,0.61,2.80,0.61,-0.61,-0.66,-0.58,2.18,2.19,2.19
391.85,2.79,0.61,2.80,0.61,-0.59,-0.62,-0.54,2.20,2.21,2.18
395.77,2.80,0.61,2.81,0.62,-0.57,-0.59,-0.50,2.23,2.23,2.19
399.73,2.79,0.60,2.78,0.59,-0.55,-0.55,-0.46,2.24,2.23,2.19
403.72,2.74,0.56,2.72,0.54,-0.52,-0.52,-0.42,2.22,2.20,2.18
407.76,2.63,0.45,2.66,0.47,-0.49,-0.48,-0.38,2.14,2.16,2.18
411.84,2.58,0.39,2.60,0.42,-0.46,-0.45,-0.34,2.12,2.14,2.19
415.96,2.58,0.40,2.58,0.40,-0.43,-0.41,-0.30,2.16,2.15,2.18
420.12,2.58,0.41,2.58,0.40,-0.40,-0.38,-0.27,2.19,2.18,2.18
424.32,2.59,0.41,2.57,0.39,-0.38,-0.34,-0.23,2.22,2.20,2.19
428.56,2.54,0.36,2.55,0.36,-0.36,-0.30,-0.19,2.19,2.19,2.19
432.85,2.52,0.32,2.54,0.33,-0.34,-0.27,-0.16,2.18,2.20,2.21
437.18,2.54,0.32,2.55,0.32,-0.32,-0.23,-0.12,2.22,2.23,2.23
441.55,2.58,0.32,2.58,0.32,-0.30,-0.19,-0.09,2.29,2.28,2.27
445.96,2.61,0.32,2.58,0.29,-0.27,-0.16,-0.06,2.35,2.31,2.30
450.42,2.56,0.24,2.58,0.24,-0.24,-0.12,-0.02,2.33,2.34,2.32
454.93,2.54,0.16,2.58,0.20,-0.21,-0.08,0.01,2.34,2.37,2.38
459.48,2.59,0.17,2.58,0.15,-0.18,-0.04,0.04,2.42,2.40,2.42
464.07,2.62,0.14,2.61,0.12,-0.14,-0.00,0.08,2.48,2.46,2.48
468.71,2.61,0.08,2.64,0.11,-0.11,0.04,0.11,2.50,2.53,2.53
473.40,2.66,0.08,2.66,0.08,-0.07,0.08,0.14,2.59,2.59,2.58
478.13,2.70,0.07,2.68,0.05,-0.03,0.12,0.17,2.67,2.64,2.63
482.91,2.66,-0.01,2.69,0.01,0.01,0.16,0.20,2.67,2.69,2.67
487.74,2.67,-0.05,2.67,-0.04,0.05,0.20,0.24,2.73,2.73,2.72
492.62,2.66,-0.10,2.66,-0.10,0.11,0.24,0.27,2.77,2.77,2.76
497.55,2.63,-0.16,2.64,-0.16,0.16,0.28,0.30,2.79,2.80,2.79
502.52,2.61,-0.21,2.58,-0.24,0.21,0.32,0.33,2.83,2.79,2.82
507.55,2.50,-0.32,2.54,-0.29,0.27,0.36,0.36,2.77,2.81,2.83
512.62,2.48,-0.35,2.52,-0.32,0.31,0.40,0.39,2.80,2.83,2.84
517.75,2.53,-0.31,2.47,-0.37,0.36,0.45,0.42,2.89,2.83,2.85
522.93,2.43,-0.40,2.42,-0.42,0.41,0.49,0.45,2.85,2.83,2.84
528.16,2.29,-0.51,2.37,-0.45,0.48,0.53,0.48,2.77,2.84,2.81
533.44,2.28,-0.50,2.29,-0.49,0.53,0.58,0.51,2.81,2.82,2.79
538.77,2.29,-0.45,2.21,-0.54,0.58,0.62,0.54,2.87,2.79,2.75
