frequency,raw,error,smoothed,error_smoothed,equalization,parametric_eq,fixed_band_eq,equalized_raw,equalized_smoothed,target
20.00,-1.94,-9.69,-1.94,-9.69,6.00,5.63,2.56,4.06,4.06,7.75
20.20,-1.85,-9.58,-1.85,-9.58,6.00,5.68,2.63,4.15,4.15,7.73
20.40,-1.77,-9.46,-1.77,-9.47,6.00,5.74,2.71,4.23,4.23,7.70
20.61,-1.68,-9.36,-1.68,-9.36,6.00,5.79,2.79,4.32,4.32,7.68
20.81,-1.59,-9.24,-1.59,-9.24,6.00,5.84,2.86,4.41,4.41,7.65
21.02,-1.51,-9.13,-1.51,-9.13,6.00,5.89,2.95,4.49,4.49,7.62
21.23,-1.42,-9.02,-1.42,-9.03,6.00,5.93,3.03,4.58,4.58,7.60
21.44,-1.34,-8.92,-1.34,-8.92,6.00,5.97,3.12,4.66,4.66,7.58
21.66,-1.25,-8.82,-1.25,-8.82,6.00,6.02,3.20,4.75,4.75,7.56
21.87,-1.17,-8.71,-1.17,-8.71,6.00,6.05,3.30,4.83,4.83,7.54
22.09,-1.08,-8.60,-1.08,-8.61,6.00,6.09,3.39,4.92,4.92,7.52
22.31,-1.00,-8.50,-1.00,-8.50,6.00,6.12,3.49,5.00,5.00,7.50
22.54,-0.92,-8.39,-0.92,-8.39,6.00,6.15,3.58,5.08,5.08,7.47
22.76,-0.83,-8.28,-0.84,-8.29,6.00,6.17,3.69,5.17,5.16,7.45
22.99,-0.75,-8.18,-0.75,-8.18,6.00,6.19,3.79,5.25,5.25,7.43
23.22,-0.67,-8.08,-0.66,-8.08,6.00,6.21,3.89,5.33,5.34,7.41
23.45,-0.57,-7.97,-0.58,-7.98,6.00,6.23,4.00,5.43,5.42,7.40
23.69,-0.49,-7.87,-0.49,-7.87,6.00,6.24,4.11,5.51,5.51,7.38
23.92,-0.41,-7.78,-0.41,-7.77,6.00,6.25,4.22,5.59,5.59,7.37
24.16,-0.32,-7.67,-0.33,-7.68,6.00,6.25,4.34,5.68,5.67,7.35
24.40,-0.25,-7.59,-0.24,-7.58,6.00,6.25,4.46,5.75,5.76,7.34
24.65,-0.16,-7.49,-0.16,-7.49,6.00,6.25,4.57,5.84,5.84,7.33
24.89,-0.08,-7.39,-0.08,-7.39,6.00,6.24,4.69,5.92,5.92,7.31
25.14,0.01,-7.29,0.01,-7.29,6.00,6.23,4.81,6.01,6.01,7.30
25.39,0.09,-7.20,0.09,-7.19,6.00,6.22,4.93,6.09,6.09,7.29
25.65,0.18,-7.10,0.18,-7.10,6.00,6.20,5.05,6.18,6.18,7.28
25.91,0.26,-7.01,0.26,-7.00,6.00,6.18,5.17,6.26,6.26,7.27
26.16,0.35,-6.90,0.35,-6.91,6.00,6.15,5.29,6.35,6.35,7.26
26.43,0.43,-6.81,0.43,-6.81,6.00,6.12,5.41,6.43,6.43,7.24
26.69,0.51,-6.71,0.51,-6.71,6.00,6.09,5.53,6.51,6.51,7.22
26.96,0.59,-6.63,0.59,-6.62,6.00,6.05,5.65,6.59,6.59,7.21
27.23,0.67,-6.53,0.67,-6.54,6.00,6.02,5.76,6.67,6.67,7.20
27.50,0.74,-6.45,0.74,-6.45,6.01,5.97,5.87,6.75,6.75,7.19
27.77,0.82,-6.37,0.82,-6.37,6.02,5.93,5.97,6.84,6.84,7.19
28.05,0.90,-6.28,0.90,-6.28,6.02,5.88,6.07,6.92,6.91,7.18
28.33,0.97,-6.20,0.97,-6.20,6.01,5.83,6.16,6.98,6.98,7.17
28.62,1.05,-6.12,1.05,-6.12,5.99,5.78,6.25,7.04,7.04,7.17
28.90,1.12,-6.04,1.12,-6.04,5.96,5.72,6.33,7.08,7.08,7.16
29.19,1.20,-5.96,1.20,-5.96,5.92,5.66,6.40,7.12,7.12,7.16
29.48,1.28,-5.87,1.28,-5.87,5.86,5.60,6.46,7.14,7.14,7.15
29.78,1.36,-5.79,1.36,-5.78,5.79,5.54,6.51,7.15,7.15,7.15
30.08,1.44,-5.70,1.44,-5.70,5.71,5.47,6.54,7.15,7.15,7.14
30.38,1.52,-5.62,1.52,-5.61,5.63,5.40,6.57,7.14,7.14,7.13
30.68,1.60,-5.52,1.60,-5.52,5.53,5.34,6.59,7.13,7.13,7.12
30.99,1.68,-5.43,1.68,-5.44,5.44,5.26,6.59,7.12,7.12,7.11
31.30,1.76,-5.35,1.76,-5.35,5.35,5.19,6.58,7.11,7.11,7.11
31.61,1.84,-5.26,1.84,-5.26,5.27,5.12,6.56,7.11,7.10,7.10
31.93,1.91,-5.18,1.91,-5.18,5.18,5.04,6.53,7.09,7.09,7.09
32.24,1.99,-5.10,1.99,-5.09,5.09,4.97,6.49,7.08,7.08,7.09
32.57,2.07,-5.01,2.07,-5.01,5.00,4.89,6.43,7.07,7.07,7.08
32.89,2.15,-4.91,2.15,-4.91,4.91,4.81,6.37,7.06,7.06,7.06
33.22,2.24,-4.81,2.24,-4.82,4.81,4.73,6.29,7.05,7.05,7.05
33.55,2.32,-4.72,2.32,-4.72,4.72,4.65,6.21,7.04,7.04,7.04
33.89,2.41,-4.62,2.41,-4.62,4.62,4.57,6.11,7.03,7.03,7.03
34.23,2.50,-4.52,2.50,-4.52,4.52,4.49,6.01,7.02,7.02,7.02
34.57,2.59,-4.43,2.59,-4.42,4.43,4.41,5.90,7.02,7.02,7.02
34.92,2.67,-4.33,2.67,-4.33,4.33,4.33,5.78,7.00,7.01,7.00
35.27,2.76,-4.23,2.76,-4.24,4.24,4.25,5.66,7.00,7.00,6.99
35.62,2.84,-4.15,2.84,-4.15,4.15,4.17,5.54,6.99,6.99,6.99
35.97,2.92,-4.06,2.92,-4.06,4.06,4.08,5.41,6.98,6.98,6.98
36.33,3.01,-3.96,3.00,-3.97,3.97,4.00,5.28,6.98,6.97,6.98
36.70,3.08,-3.88,3.09,-3.88,3.88,3.92,5.14,6.95,6.96,6.96
37.06,3.17,-3.78,3.17,-3.79,3.79,3.84,5.00,6.96,6.95,6.95
37.43,3.25,-3.70,3.25,-3.70,3.69,3.76,4.86,6.95,6.95,6.95
37.81,3.33,-3.61,3.33,-3.60,3.60,3.67,4.73,6.93,6.94,6.94
38.19,3.42,-3.51,3.41,-3.52,3.52,3.59,4.59,6.93,6.93,6.93
38.57,3.49,-3.43,3.50,-3.43,3.43,3.51,4.45,6.92,6.92,6.92
38.95,3.58,-3.34,3.58,-3.34,3.34,3.43,4.31,6.92,6.92,6.92
39.34,3.66,-3.24,3.66,-3.25,3.25,3.35,4.17,6.91,6.91,6.90
39.74,3.73,-3.17,3.73,-3.17,3.17,3.26,4.03,6.89,6.90,6.90
40.14,3.81,-3.08,3.81,-3.08,3.08,3.18,3.90,6.89,6.89,6.89
40.54,3.88,-3.01,3.88,-3.00,3.00,3.10,3.76,6.88,6.88,6.88
40.94,3.96,-2.91,3.96,-2.91,2.92,3.02,3.63,6.88,6.88,6.87
41.35,4.03,-2.84,4.03,-2.84,2.84,2.94,3.50,6.87,6.87,6.87
41.76,4.10,-2.75,4.10,-2.76,2.76,2.86,3.37,6.86,6.86,6.85
42.18,4.16,-2.69,4.16,-2.68,2.68,2.79,3.24,6.84,6.85,6.85
42.60,4.23,-2.61,4.23,-2.61,2.61,2.71,3.12,6.84,6.83,6.84
43.03,4.29,-2.54,4.29,-2.54,2.53,2.63,2.99,6.82,6.83,6.83
43.46,4.36,-2.46,4.36,-2.46,2.46,2.55,2.87,6.82,6.82,6.82
43.90,4.44,-2.37,4.43,-2.38,2.38,2.48,2.75,6.82,6.81,6.81
44.33,4.50,-2.31,4.50,-2.30,2.30,2.40,2.63,6.80,6.81,6.81
44.78,4.56,-2.23,4.57,-2.23,2.23,2.32,2.52,6.79,6.80,6.79
45.23,4.64,-2.15,4.63,-2.16,2.16,2.25,2.41,6.79,6.79,6.79
45.68,4.70,-2.08,4.70,-2.08,2.08,2.17,2.29,6.78,6.79,6.78
46.13,4.77,-2.01,4.77,-2.01,2.01,2.10,2.19,6.78,6.78,6.78
46.60,4.83,-1.94,4.83,-1.94,1.94,2.02,2.08,6.77,6.77,6.77
47.06,4.89,-1.88,4.89,-1.87,1.88,1.95,1.97,6.77,6.77,6.77
47.53,4.95,-1.81,4.95,-1.81,1.81,1.88,1.87,6.76,6.76,6.76
48.01,5.01,-1.74,5.01,-1.74,1.74,1.80,1.77,6.75,6.75,6.75
48.49,5.07,-1.68,5.07,-1.68,1.67,1.73,1.67,6.74,6.74,6.75
48.97,5.13,-1.61,5.13,-1.61,1.61,1.66,1.57,6.74,6.74,6.74
49.46,5.19,-1.54,5.19,-1.54,1.54,1.59,1.47,6.73,6.73,6.73
49.96,5.25,-1.48,5.25,-1.48,1.48,1.52,1.38,6.73,6.73,6.73
50.46,5.31,-1.41,5.31,-1.41,1.41,1.45,1.29,6.72,6.72,6.72
50.96,5.37,-1.34,5.37,-1.34,1.34,1.38,1.19,6.71,6.71,6.71
51.47,5.43,-1.27,5.43,-1.28,1.27,1.31,1.10,6.71,6.70,6.70
51.99,5.48,-1.21,5.48,-1.21,1.21,1.24,1.02,6.69,6.69,6.69
52.51,5.54,-1.15,5.54,-1.14,1.14,1.17,0.93,6.68,6.68,6.68
53.03,5.60,-1.08,5.60,-1.08,1.08,1.10,0.84,6.68,6.68,6.68
53.56,5.66,-1.01,5.66,-1.01,1.01,1.03,0.76,6.67,6.67,6.67
54.10,5.72,-0.94,5.72,-0.94,0.94,0.97,0.68,6.66,6.66,6.66
54.64,5.77,-0.88,5.77,-0.88,0.88,0.90,0.60,6.65,6.65,6.65
55.18,5.82,-0.82,5.82,-0.81,0.81,0.83,0.52,6.63,6.63,6.64
55.74,5.88,-0.75,5.88,-0.75,0.74,0.77,0.44,6.62,6.62,6.62
56.29,5.93,-0.68,5.93,-0.68,0.68,0.70,0.37,6.61,6.61,6.61
56.86,5.99,-0.61,5.99,-0.61,0.61,0.63,0.30,6.60,6.60,6.60
57.42,6.05,-0.54,6.05,-0.55,0.55,0.57,0.22,6.60,6.60,6.59
58.00,6.10,-0.49,6.10,-0.48,0.49,0.50,0.15,6.59,6.59,6.59
58.58,6.15,-0.43,6.15,-0.42,0.42,0.44,0.09,6.57,6.58,6.58
59.16,6.21,-0.35,6.20,-0.36,0.36,0.37,0.02,6.57,6.56,6.56
59.76,6.25,-0.30,6.25,-0.30,0.30,0.31,-0.04,6.54,6.55,6.55
60.35,6.31,-0.23,6.31,-0.24,0.23,0.25,-0.11,6.54,6.54,6.54
60.96,6.35,-0.18,6.36,-0.17,0.17,0.18,-0.17,6.52,6.52,6.53
61.57,6.41,-0.10,6.41,-0.11,0.11,0.12,-0.23,6.52,6.52,6.51
62.18,6.46,-0.04,6.46,-0.04,0.04,0.06,-0.29,6.50,6.50,6.50
62.80,6.51,0.03,6.51,0.02,-0.02,-0.01,-0.34,6.49,6.49,6.48
63.43,6.55,0.07,6.55,0.08,-0.08,-0.07,-0.40,6.47,6.47,6.48
64.07,6.60,0.14,6.60,0.14,-0.14,-0.13,-0.45,6.46,6.46,6.46
64.71,6.65,0.21,6.65,0.20,-0.21,-0.19,-0.50,6.44,6.44,6.44
65.35,6.69,0.27,6.69,0.27,-0.27,-0.26,-0.55,6.42,6.42,6.42
66.01,6.73,0.32,6.74,0.33,-0.33,-0.32,-0.60,6.40,6.41,6.41
66.67,6.78,0.39,6.78,0.39,-0.39,-0.38,-0.65,6.39,6.39,6.39
67.33,6.82,0.45,6.82,0.45,-0.45,-0.44,-0.69,6.37,6.37,6.37
68.01,6.85,0.50,6.85,0.51,-0.51,-0.50,-0.74,6.34,6.35,6.35
68.69,6.89,0.56,6.89,0.57,-0.57,-0.56,-0.78,6.32,6.32,6.33
69.37,6.93,0.63,6.93,0.62,-0.63,-0.62,-0.83,6.30,6.30,6.31
70.07,6.97,0.69,6.97,0.68,-0.68,-0.68,-0.87,6.29,6.28,6.28
70.77,7.00,0.74,7.00,0.74,-0.74,-0.74,-0.92,6.26,6.26,6.26
71.48,7.04,0.80,7.04,0.80,-0.80,-0.80,-0.96,6.24,6.24,6.24
72.19,7.07,0.86,7.07,0.86,-0.86,-0.86,-1.00,6.21,6.21,6.21
72.91,7.10,0.91,7.10,0.91,-0.91,-0.92,-1.05,6.19,6.19,6.19
73.64,7.13,0.97,7.13,0.97,-0.97,-0.98,-1.09,6.16,6.16,6.16
74.38,7.15,1.02,7.16,1.03,-1.03,-1.04,-1.14,6.12,6.13,6.13
75.12,7.19,1.09,7.18,1.08,-1.08,-1.10,-1.18,6.11,6.10,6.10
75.87,7.21,1.14,7.21,1.14,-1.14,-1.16,-1.23,6.07,6.07,6.07
76.63,7.23,1.19,7.23,1.19,-1.20,-1.22,-1.27,6.03,6.04,6.04
77.40,7.25,1.25,7.25,1.25,-1.25,-1.28,-1.32,6.00,6.00,6.00
78.17,7.28,1.32,7.28,1.31,-1.31,-1.33,-1.37,5.97,5.96,5.96
78.95,7.30,1.38,7.30,1.37,-1.37,-1.39,-1.42,5.93,5.93,5.92
79.74,7.32,1.43,7.32,1.43,-1.43,-1.45,-1.47,5.89,5.89,5.89
80.54,7.33,1.48,7.34,1.49,-1.49,-1.50,-1.52,5.84,5.84,5.85
81.35,7.36,1.56,7.35,1.55,-1.55,-1.56,-1.57,5.81,5.80,5.80
82.16,7.37,1.61,7.37,1.61,-1.61,-1.62,-1.63,5.76,5.76,5.76
82.98,7.39,1.67,7.39,1.67,-1.67,-1.67,-1.68,5.72,5.72,5.72
83.81,7.40,1.72,7.40,1.72,-1.72,-1.73,-1.74,5.68,5.68,5.68
84.65,7.41,1.78,7.41,1.78,-1.78,-1.78,-1.80,5.63,5.63,5.63
85.50,7.42,1.84,7.42,1.83,-1.83,-1.83,-1.86,5.59,5.59,5.58
86.35,7.43,1.88,7.43,1.89,-1.89,-1.89,-1.92,5.54,5.54,5.55
87.22,7.44,1.94,7.44,1.94,-1.94,-1.94,-1.98,5.50,5.50,5.50
88.09,7.45,1.99,7.45,1.99,-1.99,-1.99,-2.05,5.46,5.46,5.46
88.97,7.46,2.05,7.46,2.04,-2.04,-2.04,-2.12,5.42,5.42,5.41
89.86,7.46,2.09,7.46,2.09,-2.09,-2.09,-2.19,5.37,5.38,5.37
90.76,7.47,2.14,7.47,2.14,-2.14,-2.14,-2.26,5.33,5.33,5.33
91.66,7.47,2.18,7.47,2.18,-2.18,-2.19,-2.33,5.29,5.29,5.29
92.58,7.47,2.22,7.47,2.22,-2.23,-2.24,-2.40,5.24,5.24,5.25
93.51,7.47,2.27,7.47,2.27,-2.27,-2.29,-2.48,5.20,5.20,5.20
94.44,7.48,2.32,7.48,2.32,-2.31,-2.34,-2.56,5.17,5.16,5.16
95.39,7.48,2.36,7.48,2.36,-2.36,-2.38,-2.64,5.12,5.12,5.12
96.34,7.48,2.40,7.48,2.40,-2.40,-2.43,-2.72,5.08,5.08,5.08
97.30,7.47,2.44,7.47,2.44,-2.44,-2.47,-2.80,5.03,5.03,5.03
98.28,7.47,2.48,7.47,2.48,-2.49,-2.51,-2.88,4.98,4.99,4.99
99.26,7.47,2.53,7.47,2.52,-2.53,-2.56,-2.97,4.94,4.94,4.94
100.25,7.46,2.57,7.46,2.57,-2.57,-2.60,-3.05,4.89,4.89,4.89
101.25,7.45,2.61,7.45,2.61,-2.61,-2.64,-3.13,4.84,4.84,4.84
102.27,7.45,2.66,7.45,2.65,-2.65,-2.67,-3.22,4.80,4.80,4.79
103.29,7.44,2.69,7.44,2.70,-2.69,-2.71,-3.30,4.75,4.75,4.75
104.32,7.43,2.73,7.43,2.73,-2.73,-2.75,-3.39,4.70,4.70,4.70
105.37,7.42,2.77,7.42,2.77,-2.77,-2.78,-3.47,4.65,4.65,4.65
106.42,7.40,2.80,7.40,2.81,-2.81,-2.81,-3.55,4.59,4.60,4.60
107.48,7.39,2.84,7.39,2.84,-2.84,-2.84,-3.63,4.55,4.55,4.55
108.56,7.38,2.88,7.38,2.88,-2.88,-2.87,-3.71,4.50,4.50,4.50
109.64,7.36,2.91,7.36,2.91,-2.91,-2.90,-3.78,4.45,4.45,4.45
110.74,7.34,2.94,7.34,2.94,-2.94,-2.93,-3.85,4.40,4.40,4.40
111.85,7.32,2.97,7.32,2.97,-2.97,-2.95,-3.92,4.35,4.35,4.35
112.97,7.30,3.00,7.30,3.00,-3.00,-2.98,-3.98,4.30,4.30,4.30
114.10,7.28,3.03,7.28,3.03,-3.03,-3.00,-4.04,4.25,4.25,4.25
115.24,7.26,3.05,7.26,3.05,-3.05,-3.02,-4.09,4.21,4.21,4.21
116.39,7.24,3.08,7.24,3.08,-3.08,-3.03,-4.14,4.16,4.16,4.16
117.55,7.21,3.10,7.21,3.10,-3.09,-3.05,-4.18,4.12,4.12,4.11
118.73,7.18,3.12,7.18,3.12,-3.11,-3.06,-4.21,4.07,4.07,4.06
119.92,7.15,3.12,7.15,3.12,-3.13,-3.07,-4.23,4.02,4.02,4.03
121.12,7.11,3.13,7.11,3.13,-3.14,-3.08,-4.24,3.97,3.98,3.98
122.33,7.08,3.14,7.08,3.14,-3.15,-3.09,-4.25,3.94,3.94,3.94
123.55,7.05,3.15,7.05,3.15,-3.15,-3.10,-4.25,3.90,3.90,3.90
124.79,7.01,3.15,7.01,3.16,-3.16,-3.10,-4.23,3.85,3.86,3.86
126.03,6.98,3.16,6.98,3.16,-3.16,-3.10,-4.21,3.82,3.82,3.82
127.29,6.94,3.16,6.94,3.16,-3.16,-3.10,-4.18,3.78,3.78,3.78
128.57,6.90,3.15,6.90,3.16,-3.16,-3.10,-4.14,3.74,3.74,3.75
129.85,6.86,3.16,6.86,3.15,-3.15,-3.09,-4.09,3.71,3.71,3.70
131.15,6.81,3.14,6.81,3.14,-3.14,-3.09,-4.03,3.67,3.67,3.67
132.46,6.77,3.13,6.77,3.13,-3.13,-3.08,-3.97,3.64,3.64,3.64
133.79,6.72,3.11,6.72,3.11,-3.11,-3.07,-3.89,3.61,3.61,3.61
135.12,6.67,3.09,6.67,3.09,-3.09,-3.05,-3.81,3.58,3.58,3.57
136.48,6.61,3.07,6.61,3.07,-3.07,-3.04,-3.73,3.54,3.55,3.54
137.84,6.56,3.04,6.56,3.04,-3.04,-3.02,-3.63,3.52,3.52,3.52
139.22,6.51,3.02,6.51,3.01,-3.01,-3.00,-3.53,3.50,3.49,3.49
140.61,6.45,2.98,6.45,2.98,-2.99,-2.98,-3.42,3.46,3.47,3.46
142.02,6.40,2.95,6.40,2.96,-2.96,-2.96,-3.31,3.44,3.44,3.45
143.44,6.35,2.92,6.35,2.92,-2.93,-2.93,-3.20,3.42,3.42,3.43
144.87,6.30,2.90,6.30,2.89,-2.90,-2.90,-3.08,3.40,3.40,3.40
146.32,6.25,2.87,6.25,2.87,-2.87,-2.87,-2.96,3.38,3.38,3.38
147.78,6.20,2.83,6.20,2.84,-2.84,-2.84,-2.83,3.36,3.37,3.37
149.26,6.16,2.82,6.15,2.81,-2.81,-2.81,-2.71,3.35,3.35,3.34
150.75,6.10,2.77,6.10,2.77,-2.77,-2.77,-2.58,3.33,3.33,3.33
152.26,6.05,2.74,6.05,2.74,-2.74,-2.73,-2.45,3.31,3.31,3.31
153.78,6.00,2.70,6.00,2.70,-2.70,-2.70,-2.32,3.30,3.30,3.30
155.32,5.95,2.66,5.95,2.66,-2.66,-2.65,-2.18,3.29,3.29,3.29
156.88,5.90,2.63,5.90,2.62,-2.62,-2.61,-2.05,3.28,3.28,3.27
158.44,5.84,2.58,5.84,2.58,-2.58,-2.57,-1.92,3.26,3.26,3.26
160.03,5.79,2.54,5.78,2.53,-2.53,-2.52,-1.78,3.26,3.25,3.25
161.63,5.72,2.48,5.72,2.48,-2.49,-2.47,-1.65,3.23,3.24,3.24
163.24,5.66,2.43,5.67,2.44,-2.44,-2.42,-1.51,3.22,3.23,3.23
164.88,5.61,2.39,5.60,2.38,-2.38,-2.37,-1.38,3.23,3.22,3.22
166.53,5.54,2.33,5.54,2.33,-2.33,-2.31,-1.24,3.21,3.21,3.21
168.19,5.47,2.27,5.47,2.27,-2.27,-2.26,-1.11,3.20,3.20,3.20
169.87,5.40,2.21,5.40,2.21,-2.21,-2.20,-0.97,3.19,3.19,3.19
171.57,5.33,2.15,5.33,2.15,-2.15,-2.14,-0.84,3.18,3.18,3.18
173.29,5.25,2.08,5.25,2.08,-2.09,-2.08,-0.71,3.16,3.17,3.17
175.02,5.18,2.02,5.18,2.02,-2.02,-2.02,-0.58,3.16,3.16,3.16
176.77,5.10,1.95,5.10,1.95,-1.95,-1.95,-0.44,3.15,3.15,3.15
178.54,5.03,1.89,5.03,1.89,-1.89,-1.89,-0.31,3.14,3.14,3.14
180.32,4.94,1.81,4.94,1.82,-1.82,-1.82,-0.18,3.12,3.12,3.13
182.13,4.86,1.75,4.86,1.75,-1.75,-1.75,-0.05,3.11,3.11,3.11
183.95,4.77,1.67,4.77,1.68,-1.68,-1.68,0.08,3.09,3.10,3.10
185.79,4.69,1.61,4.69,1.60,-1.60,-1.61,0.21,3.09,3.09,3.08
187.65,4.60,1.53,4.60,1.53,-1.53,-1.53,0.34,3.08,3.07,3.07
189.52,4.50,1.44,4.50,1.45,-1.45,-1.45,0.47,3.05,3.06,3.06
191.42,4.41,1.37,4.41,1.36,-1.37,-1.38,0.60,3.04,3.04,3.04
193.33,4.31,1.28,4.31,1.28,-1.28,-1.30,0.73,3.03,3.03,3.03
195.27,4.21,1.19,4.21,1.19,-1.20,-1.21,0.86,3.01,3.02,3.02
197.22,4.11,1.11,4.11,1.11,-1.11,-1.13,0.99,3.00,3.00,3.00
199.19,4.01,1.02,4.01,1.02,-1.02,-1.04,1.11,2.99,2.99,2.99
201.18,3.90,0.93,3.90,0.93,-0.93,-0.95,1.24,2.97,2.97,2.97
203.19,3.79,0.83,3.79,0.83,-0.83,-0.86,1.36,2.96,2.96,2.96
205.23,3.67,0.73,3.68,0.74,-0.74,-0.76,1.48,2.93,2.94,2.94
207.28,3.57,0.64,3.56,0.64,-0.64,-0.67,1.60,2.93,2.92,2.93
209.35,3.44,0.53,3.45,0.54,-0.54,-0.57,1.72,2.90,2.91,2.91
211.44,3.33,0.44,3.33,0.43,-0.43,-0.47,1.84,2.90,2.90,2.89
213.56,3.20,0.32,3.20,0.32,-0.32,-0.36,1.96,2.88,2.88,2.88
215.69,3.08,0.22,3.08,0.21,-0.21,-0.25,2.07,2.87,2.86,2.86
217.85,2.94,0.09,2.95,0.10,-0.10,-0.14,2.18,2.84,2.85,2.85
220.03,2.82,-0.02,2.82,-0.02,0.02,-0.03,2.29,2.84,2.84,2.84
222.23,2.69,-0.14,2.69,-0.14,0.14,0.09,2.39,2.83,2.83,2.83
224.45,2.55,-0.27,2.55,-0.27,0.27,0.21,2.49,2.82,2.83,2.82
226.70,2.41,-0.41,2.41,-0.40,0.41,0.34,2.58,2.82,2.82,2.82
228.96,2.27,-0.54,2.27,-0.54,0.54,0.47,2.67,2.81,2.81,2.81
231.25,2.12,-0.68,2.12,-0.68,0.68,0.60,2.76,2.80,2.80,2.80
233.57,1.97,-0.84,1.97,-0.83,0.83,0.74,2.84,2.80,2.80,2.81
235.90,1.82,-0.98,1.82,-0.98,0.98,0.88,2.91,2.80,2.80,2.80
238.26,1.67,-1.13,1.67,-1.14,1.13,1.03,2.98,2.80,2.80,2.80
240.64,1.51,-1.30,1.51,-1.29,1.29,1.18,3.04,2.80,2.81,2.81
243.05,1.36,-1.44,1.35,-1.45,1.45,1.34,3.10,2.81,2.81,2.80
245.48,1.19,-1.62,1.19,-1.62,1.62,1.50,3.15,2.81,2.81,2.81
247.93,1.02,-1.79,1.03,-1.79,1.79,1.67,3.19,2.81,2.81,2.81
250.41,0.86,-1.96,0.85,-1.96,1.96,1.84,3.23,2.82,2.81,2.82
252.92,0.68,-2.13,0.68,-2.14,2.14,2.02,3.26,2.82,2.82,2.81
255.45,0.49,-2.33,0.50,-2.32,2.32,2.20,3.28,2.81,2.82,2.82
258.00,0.31,-2.52,0.31,-2.51,2.51,2.39,3.30,2.82,2.82,2.83
260.58,0.12,-2.70,0.12,-2.71,2.71,2.59,3.31,2.83,2.82,2.82
263.19,-0.09,-2.91,-0.08,-2.91,2.91,2.79,3.31,2.82,2.82,2.82
265.82,-0.29,-3.11,-0.29,-3.11,3.12,3.00,3.31,2.83,2.82,2.82
268.48,-0.51,-3.33,-0.51,-3.33,3.33,3.21,3.30,2.82,2.82,2.82
271.16,-0.73,-3.55,-0.73,-3.55,3.55,3.43,3.29,2.82,2.82,2.82
273.87,-0.97,-3.78,-0.96,-3.78,3.78,3.65,3.27,2.81,2.82,2.81
276.61,-1.20,-4.02,-1.20,-4.02,4.02,3.88,3.25,2.82,2.82,2.82
279.38,-1.44,-4.26,-1.44,-4.26,4.26,4.11,3.23,2.82,2.82,2.82
282.17,-1.69,-4.50,-1.69,-4.51,4.53,4.34,3.20,2.84,2.84,2.81
284.99,-1.94,-4.76,-1.94,-4.76,4.80,4.57,3.17,2.86,2.86,2.82
287.84,-2.20,-5.02,-2.20,-5.02,5.07,4.80,3.14,2.87,2.87,2.82
290.72,-2.45,-5.28,-2.45,-5.28,5.31,5.03,3.10,2.86,2.86,2.83
293.63,-2.72,-5.54,-2.72,-5.54,5.53,5.25,3.06,2.81,2.81,2.82
296.57,-2.98,-5.81,-2.98,-5.81,5.71,5.46,3.03,2.73,2.72,2.83
299.53,-3.25,-6.08,-3.25,-6.08,5.85,5.67,2.99,2.60,2.60,2.83
302.53,-3.51,-6.35,-3.51,-6.35,5.95,5.85,2.95,2.44,2.44,2.84
305.55,-3.78,-6.62,-3.78,-6.62,6.01,6.02,2.91,2.23,2.24,2.84
308.61,-4.03,-6.88,-4.03,-6.88,6.05,6.17,2.87,2.02,2.01,2.85
311.69,-4.28,-7.14,-4.28,-7.14,6.05,6.30,2.83,1.77,1.77,2.86
314.81,-4.51,-7.38,-4.51,-7.38,6.03,6.40,2.79,1.52,1.52,2.87
317.96,-4.72,-7.60,-4.72,-7.60,6.01,6.48,2.75,1.29,1.29,2.88
321.14,-4.89,-7.77,-4.89,-7.78,6.00,6.52,2.71,1.11,1.11,2.88
324.35,-5.03,-7.92,-5.02,-7.91,6.00,6.54,2.68,0.97,0.98,2.89
327.59,-5.09,-7.99,-5.09,-7.99,6.00,6.52,2.64,0.91,0.91,2.90
330.87,-5.10,-8.00,-5.10,-8.00,6.00,6.48,2.61,0.90,0.90,2.90
334.18,-5.06,-7.97,-5.04,-7.95,6.00,6.41,2.58,0.94,0.96,2.91
337.52,-4.92,-7.83,-4.93,-7.84,6.00,6.32,2.55,1.08,1.07,2.91
340.90,-4.76,-7.67,-4.76,-7.67,6.00,6.20,2.52,1.24,1.24,2.91
344.30,-4.56,-7.47,-4.55,-7.46,6.02,6.07,2.49,1.46,1.47,2.91
347.75,-4.32,-7.23,-4.32,-7.23,6.04,5.92,2.47,1.72,1.71,2.91
351.23,-4.06,-6.97,-4.07,-6.98,6.04,5.77,2.44,1.98,1.97,2.91
354.74,-3.81,-6.72,-3.80,-6.71,6.02,5.60,2.42,2.21,2.22,2.91
358.28,-3.54,-6.44,-3.54,-6.44,5.98,5.42,2.40,2.45,2.44,2.90
361.87,-3.29,-6.19,-3.29,-6.19,5.92,5.25,2.39,2.63,2.62,2.90
365.49,-3.05,-5.95,-3.05,-5.95,5.82,5.07,2.37,2.77,2.77,2.90
369.14,-2.83,-5.72,-2.83,-5.72,5.69,4.89,2.36,2.86,2.86,2.89
372.83,-2.62,-5.51,-2.62,-5.51,5.53,4.71,2.35,2.91,2.92,2.89
376.56,-2.41,-5.31,-2.41,-5.31,5.35,4.54,2.34,2.94,2.94,2.90
380.33,-2.21,-5.11,-2.21,-5.11,5.15,4.36,2.33,2.94,2.94,2.90
384.13,-2.01,-4.91,-2.01,-4.92,4.94,4.20,2.32,2.93,2.93,2.90
387.97,-1.82,-4.73,-1.82,-4.72,4.73,4.03,2.32,2.91,2.91,2.91
391.85,-1.62,-4.53,-1.62,-4.53,4.53,3.88,2.31,2.91,2.91,2.91
395.77,-1.42,-4.34,-1.42,-4.34,4.33,3.72,2.31,2.91,2.91,2.92
399.73,-1.22,-4.15,-1.22,-4.14,4.14,3.58,2.31,2.92,2.92,2.93
403.72,-1.02,-3.95,-1.02,-3.95,3.95,3.44,2.32,2.93,2.93,2.93
407.76,-0.83,-3.77,-0.83,-3.77,3.76,3.30,2.32,2.93,2.93,2.94
411.84,-0.64,-3.59,-0.63,-3.58,3.58,3.17,2.32,2.94,2.94,2.95
415.96,-0.44,-3.39,-0.44,-3.39,3.39,3.05,2.33,2.95,2.95,2.95
420.12,-0.25,-3.20,-0.25,-3.21,3.21,2.93,2.34,2.96,2.96,2.95
424.32,-0.07,-3.03,-0.07,-3.04,3.04,2.81,2.34,2.97,2.97,2.96
428.56,0.10,-2.87,0.10,-2.87,2.87,2.70,2.35,2.97,2.97,2.97
432.85,0.27,-2.71,0.27,-2.71,2.71,2.60,2.36,2.98,2.98,2.98
437.18,0.44,-2.55,0.44,-2.55,2.56,2.50,2.37,3.00,2.99,2.99
441.55,0.60,-2.40,0.60,-2.41,2.41,2.40,2.38,3.01,3.01,3.00
445.96,0.74,-2.27,0.74,-2.27,2.27,2.30,2.39,3.01,3.01,3.01
450.42,0.88,-2.14,0.88,-2.14,2.14,2.21,2.41,3.02,3.02,3.02
454.93,1.01,-2.02,1.02,-2.01,2.01,2.12,2.42,3.02,3.03,3.03
459.48,1.15,-1.89,1.14,-1.90,1.89,2.03,2.43,3.04,3.04,3.04
464.07,1.27,-1.78,1.27,-1.78,1.78,1.94,2.44,3.05,3.05,3.05
468.71,1.38,-1.68,1.39,-1.67,1.67,1.86,2.45,3.05,3.06,3.06
473.40,1.50,-1.57,1.50,-1.57,1.57,1.77,2.46,3.07,3.07,3.07
478.13,1.61,-1.47,1.61,-1.47,1.47,1.68,2.47,3.08,3.08,3.08
482.91,1.71,-1.39,1.71,-1.38,1.38,1.60,2.48,3.09,3.10,3.10
487.74,1.81,-1.30,1.81,-1.30,1.30,1.51,2.48,3.11,3.11,3.11
492.62,1.91,-1.22,1.90,-1.22,1.22,1.42,2.49,3.13,3.13,3.13
497.55,1.99,-1.15,1.99,-1.15,1.15,1.33,2.50,3.14,3.14,3.14
502.52,2.06,-1.10,2.07,-1.09,1.09,1.23,2.50,3.15,3.16,3.16
507.55,2.14,-1.04,2.14,-1.04,1.04,1.14,2.51,3.18,3.17,3.18
512.62,2.20,-1.00,2.20,-0.99,0.99,1.05,2.51,3.19,3.19,3.20
517.75,2.26,-0.95,2.26,-0.95,0.95,0.97,2.51,3.21,3.21,3.21
522.93,2.30,-0.93,2.30,-0.92,0.92,0.90,2.52,3.22,3.23,3.23
528.16,2.34,-0.91,2.34,-0.90,0.90,0.84,2.52,3.24,3.24,3.25
533.44,2.38,-0.88,2.38,-0.88,0.88,0.79,2.52,3.26,3.26,3.26
538.77,2.40,-0.87,2.40,-0.87,0.87,0.77,2.52,3.27,3.27,3.27
544.16,2.42,-0.86,2.42,-0.87,0.87,0.77,2.52,3.29,3.29,3.28
549.60,2.42,-0.87,2.42,-0.87,0.87,0.79,2.52,3.29,3.30,3.29
555.10,2.42,-0.88,2.42,-0.89,0.89,0.82,2.52,3.31,3.30,3.30
