frequency,raw,error,smoothed,error_smoothed,equalization,parametric_eq,fixed_band_eq,equalized_raw,equalized_smoothed,target
20.00,2.79,-0.73,2.79,-0.74,0.70,0.27,0.02,3.49,3.48,3.52
20.20,2.84,-0.68,2.84,-0.68,0.67,0.26,0.02,3.51,3.51,3.52
20.40,2.88,-0.64,2.89,-0.64,0.64,0.25,0.02,3.53,3.54,3.52
20.61,2.93,-0.60,2.94,-0.60,0.62,0.23,0.02,3.55,3.55,3.53
20.81,2.98,-0.55,2.98,-0.55,0.59,0.22,0.02,3.58,3.57,3.53
21.02,3.02,-0.51,3.01,-0.53,0.57,0.21,0.02,3.59,3.58,3.53
21.23,3.02,-0.51,3.02,-0.51,0.54,0.20,0.02,3.57,3.57,3.53
21.44,3.02,-0.52,3.02,-0.52,0.52,0.18,0.02,3.54,3.54,3.54
21.66,3.02,-0.52,3.02,-0.52,0.50,0.17,0.02,3.53,3.52,3.54
21.87,3.02,-0.52,3.03,-0.52,0.48,0.16,0.02,3.51,3.51,3.54
22.09,3.04,-0.50,3.05,-0.50,0.46,0.15,0.02,3.50,3.51,3.54
22.31,3.09,-0.46,3.09,-0.46,0.44,0.14,0.02,3.53,3.52,3.55
22.54,3.14,-0.40,3.14,-0.41,0.41,0.12,0.02,3.55,3.55,3.54
22.76,3.19,-0.36,3.19,-0.36,0.38,0.11,0.02,3.57,3.57,3.55
22.99,3.24,-0.31,3.23,-0.32,0.35,0.10,0.02,3.59,3.58,3.55
23.22,3.24,-0.31,3.24,-0.31,0.33,0.09,0.02,3.57,3.57,3.55
23.45,3.24,-0.31,3.25,-0.31,0.32,0.08,0.02,3.56,3.56,3.55
23.69,3.24,-0.31,3.24,-0.31,0.31,0.07,0.02,3.55,3.55,3.55
23.92,3.24,-0.32,3.24,-0.31,0.31,0.06,0.02,3.55,3.55,3.56
24.16,3.24,-0.31,3.24,-0.31,0.31,0.05,0.02,3.55,3.55,3.55
24.40,3.24,-0.31,3.24,-0.31,0.30,0.04,0.02,3.55,3.54,3.55
24.65,3.24,-0.31,3.24,-0.31,0.29,0.03,0.02,3.53,3.52,3.55
24.89,3.24,-0.30,3.25,-0.29,0.26,0.02,0.02,3.50,3.51,3.54
25.14,3.27,-0.27,3.28,-0.26,0.23,0.01,0.02,3.50,3.50,3.54
25.39,3.33,-0.19,3.33,-0.20,0.19,0.00,0.02,3.52,3.52,3.53
25.65,3.39,-0.14,3.39,-0.13,0.15,-0.00,0.02,3.54,3.54,3.53
25.91,3.45,-0.07,3.44,-0.08,0.11,-0.01,0.02,3.56,3.55,3.52
26.16,3.47,-0.04,3.47,-0.05,0.08,-0.02,0.01,3.55,3.54,3.51
26.43,3.47,-0.03,3.48,-0.03,0.05,-0.03,0.01,3.52,3.52,3.50
26.69,3.47,-0.03,3.47,-0.03,0.03,-0.04,0.01,3.50,3.50,3.50
26.96,3.47,-0.03,3.47,-0.03,0.02,-0.05,0.01,3.49,3.49,3.50
27.23,3.47,-0.03,3.47,-0.03,0.02,-0.06,0.01,3.49,3.49,3.50
27.50,3.47,-0.02,3.47,-0.02,0.03,-0.06,0.01,3.50,3.50,3.49
27.77,3.47,-0.02,3.47,-0.02,0.04,-0.07,0.01,3.51,3.51,3.49
28.05,3.47,-0.03,3.47,-0.03,0.04,-0.08,0.00,3.51,3.51,3.50
28.33,3.47,-0.03,3.47,-0.03,0.03,-0.09,0.00,3.50,3.49,3.50
28.62,3.47,-0.03,3.47,-0.03,0.01,-0.09,-0.00,3.48,3.47,3.50
28.90,3.47,-0.03,3.48,-0.02,-0.02,-0.10,-0.01,3.45,3.46,3.50
29.19,3.51,0.01,3.52,0.02,-0.05,-0.11,-0.01,3.46,3.47,3.50
29.48,3.58,0.09,3.58,0.09,-0.09,-0.12,-0.01,3.49,3.49,3.50
29.78,3.65,0.16,3.64,0.15,-0.12,-0.13,-0.02,3.53,3.52,3.49
30.08,3.70,0.22,3.69,0.20,-0.16,-0.13,-0.02,3.54,3.53,3.48
30.38,3.70,0.22,3.70,0.22,-0.19,-0.14,-0.03,3.51,3.51,3.48
30.68,3.70,0.22,3.71,0.23,-0.22,-0.15,-0.03,3.48,3.49,3.48
30.99,3.70,0.23,3.70,0.23,-0.24,-0.16,-0.04,3.46,3.46,3.47
31.30,3.70,0.23,3.70,0.23,-0.25,-0.16,-0.04,3.45,3.45,3.47
31.61,3.70,0.24,3.70,0.24,-0.25,-0.17,-0.05,3.45,3.45,3.46
31.93,3.70,0.24,3.70,0.25,-0.25,-0.18,-0.06,3.45,3.45,3.46
32.24,3.70,0.26,3.70,0.26,-0.26,-0.18,-0.06,3.45,3.45,3.45
32.57,3.70,0.27,3.70,0.26,-0.26,-0.19,-0.07,3.44,3.44,3.43
32.89,3.70,0.27,3.70,0.27,-0.26,-0.20,-0.08,3.44,3.44,3.43
33.22,3.70,0.27,3.70,0.27,-0.27,-0.21,-0.09,3.44,3.44,3.43
33.55,3.70,0.28,3.70,0.28,-0.27,-0.21,-0.10,3.43,3.43,3.42
33.89,3.70,0.29,3.70,0.29,-0.28,-0.22,-0.11,3.42,3.42,3.41
34.23,3.70,0.29,3.70,0.29,-0.30,-0.23,-0.11,3.40,3.39,3.41
34.57,3.70,0.31,3.70,0.30,-0.33,-0.24,-0.12,3.37,3.37,3.39
34.92,3.70,0.31,3.72,0.32,-0.37,-0.24,-0.13,3.34,3.35,3.39
35.27,3.76,0.37,3.77,0.38,-0.40,-0.25,-0.14,3.36,3.37,3.39
35.62,3.84,0.45,3.83,0.45,-0.44,-0.26,-0.15,3.40,3.39,3.39
35.97,3.91,0.53,3.89,0.51,-0.48,-0.27,-0.17,3.43,3.41,3.38
36.33,3.92,0.55,3.93,0.55,-0.51,-0.28,-0.18,3.41,3.41,3.37
36.70,3.93,0.56,3.93,0.56,-0.54,-0.28,-0.19,3.39,3.39,3.37
37.06,3.93,0.56,3.93,0.56,-0.56,-0.29,-0.20,3.37,3.37,3.37
37.43,3.93,0.56,3.93,0.56,-0.57,-0.30,-0.21,3.36,3.36,3.37
37.81,3.93,0.56,3.93,0.56,-0.57,-0.31,-0.22,3.36,3.36,3.37
38.19,3.93,0.56,3.93,0.56,-0.57,-0.32,-0.24,3.36,3.36,3.37
38.57,3.93,0.56,3.93,0.56,-0.57,-0.32,-0.25,3.37,3.37,3.37
38.95,3.93,0.56,3.93,0.56,-0.56,-0.33,-0.26,3.37,3.37,3.37
39.34,3.93,0.57,3.93,0.57,-0.56,-0.34,-0.27,3.37,3.37,3.36
39.74,3.93,0.57,3.93,0.57,-0.57,-0.35,-0.29,3.36,3.36,3.36
40.14,3.93,0.57,3.93,0.57,-0.57,-0.36,-0.30,3.36,3.36,3.36
40.54,3.93,0.58,3.93,0.58,-0.58,-0.37,-0.31,3.35,3.35,3.35
40.94,3.93,0.58,3.93,0.58,-0.59,-0.37,-0.33,3.34,3.34,3.35
41.35,3.93,0.59,3.93,0.59,-0.60,-0.38,-0.34,3.33,3.33,3.34
41.76,3.93,0.61,3.93,0.61,-0.61,-0.39,-0.36,3.32,3.32,3.32
42.18,3.93,0.62,3.93,0.62,-0.62,-0.40,-0.37,3.31,3.31,3.31
42.60,3.93,0.64,3.93,0.64,-0.64,-0.41,-0.39,3.29,3.29,3.29
43.03,3.93,0.65,3.93,0.65,-0.65,-0.42,-0.40,3.28,3.28,3.28
43.46,3.93,0.67,3.93,0.67,-0.67,-0.43,-0.42,3.26,3.26,3.26
43.90,3.93,0.69,3.93,0.69,-0.69,-0.44,-0.44,3.24,3.24,3.24
44.33,3.93,0.70,3.93,0.70,-0.70,-0.45,-0.45,3.23,3.23,3.23
44.78,3.93,0.72,3.93,0.72,-0.72,-0.46,-0.47,3.21,3.21,3.21
45.23,3.93,0.73,3.93,0.73,-0.73,-0.47,-0.49,3.20,3.20,3.20
45.68,3.93,0.75,3.93,0.75,-0.74,-0.48,-0.50,3.19,3.19,3.18
46.13,3.93,0.75,3.93,0.75,-0.75,-0.49,-0.52,3.18,3.18,3.18
46.60,3.93,0.76,3.93,0.76,-0.76,-0.50,-0.54,3.17,3.17,3.17
47.06,3.93,0.77,3.93,0.77,-0.77,-0.51,-0.56,3.17,3.17,3.16
47.53,3.93,0.77,3.93,0.77,-0.77,-0.52,-0.58,3.16,3.16,3.16
48.01,3.93,0.77,3.93,0.77,-0.77,-0.53,-0.60,3.16,3.16,3.16
48.49,3.93,0.77,3.93,0.77,-0.76,-0.54,-0.62,3.17,3.17,3.17
48.97,3.93,0.76,3.93,0.76,-0.76,-0.55,-0.63,3.17,3.17,3.17
49.46,3.93,0.76,3.93,0.76,-0.76,-0.56,-0.65,3.17,3.17,3.17
49.96,3.93,0.76,3.93,0.75,-0.75,-0.57,-0.67,3.18,3.18,3.17
50.46,3.93,0.74,3.93,0.75,-0.75,-0.58,-0.69,3.18,3.18,3.19
50.96,3.93,0.74,3.93,0.74,-0.75,-0.59,-0.71,3.18,3.18,3.19
51.47,3.93,0.74,3.93,0.74,-0.75,-0.61,-0.74,3.18,3.18,3.19
51.99,3.93,0.75,3.93,0.75,-0.75,-0.62,-0.76,3.18,3.18,3.18
52.51,3.93,0.76,3.93,0.76,-0.75,-0.63,-0.78,3.18,3.18,3.17
53.03,3.93,0.77,3.93,0.77,-0.76,-0.64,-0.80,3.17,3.17,3.16
53.56,3.93,0.78,3.93,0.78,-0.77,-0.65,-0.82,3.16,3.16,3.15
54.10,3.93,0.79,3.93,0.79,-0.79,-0.67,-0.84,3.14,3.14,3.15
54.64,3.93,0.81,3.93,0.80,-0.81,-0.68,-0.86,3.12,3.12,3.13
55.18,3.93,0.83,3.93,0.83,-0.83,-0.69,-0.88,3.10,3.10,3.10
55.74,3.93,0.85,3.93,0.85,-0.85,-0.70,-0.90,3.08,3.08,3.08
56.29,3.93,0.88,3.93,0.87,-0.87,-0.72,-0.91,3.06,3.06,3.05
56.86,3.93,0.90,3.93,0.90,-0.90,-0.73,-0.93,3.03,3.03,3.03
57.42,3.93,0.93,3.93,0.93,-0.93,-0.74,-0.95,3.00,3.00,3.00
58.00,3.93,0.96,3.93,0.96,-0.96,-0.76,-0.97,2.97,2.97,2.97
58.58,3.93,1.00,3.93,1.00,-1.00,-0.77,-0.98,2.93,2.93,2.93
59.16,3.93,1.03,3.93,1.03,-1.03,-0.78,-1.00,2.90,2.90,2.90
59.76,3.93,1.06,3.93,1.06,-1.06,-0.80,-1.02,2.87,2.87,2.87
60.35,3.93,1.10,3.93,1.10,-1.09,-0.81,-1.03,2.84,2.84,2.83
60.96,3.93,1.13,3.93,1.13,-1.13,-0.82,-1.04,2.80,2.80,2.80
61.57,3.93,1.16,3.93,1.16,-1.16,-0.84,-1.06,2.77,2.77,2.77
62.18,3.93,1.19,3.93,1.19,-1.20,-0.85,-1.07,2.73,2.73,2.74
62.80,3.93,1.23,3.93,1.23,-1.24,-0.87,-1.08,2.69,2.69,2.70
63.43,3.93,1.27,3.93,1.27,-1.28,-0.88,-1.09,2.65,2.65,2.67
64.07,3.93,1.30,3.93,1.30,-1.32,-0.90,-1.10,2.62,2.62,2.63
64.71,3.93,1.34,3.93,1.34,-1.35,-0.91,-1.11,2.58,2.58,2.59
65.35,3.93,1.38,3.93,1.38,-1.37,-0.93,-1.12,2.56,2.56,2.55
66.01,3.93,1.41,3.94,1.41,-1.38,-0.94,-1.13,2.55,2.55,2.52
66.67,3.93,1.44,3.93,1.43,-1.39,-0.96,-1.13,2.54,2.54,2.50
67.33,3.90,1.42,3.89,1.42,-1.39,-0.97,-1.14,2.51,2.50,2.48
68.01,3.83,1.39,3.82,1.38,-1.38,-0.99,-1.15,2.45,2.44,2.45
68.69,3.74,1.32,3.76,1.33,-1.37,-1.01,-1.15,2.37,2.39,2.43
69.37,3.70,1.29,3.71,1.30,-1.35,-1.02,-1.16,2.36,2.37,2.41
70.07,3.70,1.30,3.70,1.30,-1.31,-1.04,-1.17,2.39,2.38,2.40
70.77,3.70,1.31,3.71,1.32,-1.28,-1.05,-1.17,2.42,2.43,2.39
71.48,3.70,1.32,3.68,1.30,-1.26,-1.07,-1.18,2.44,2.42,2.38
72.19,3.65,1.29,3.61,1.25,-1.23,-1.09,-1.18,2.42,2.38,2.36
72.91,3.49,1.13,3.54,1.19,-1.21,-1.10,-1.19,2.28,2.33,2.36
73.64,3.47,1.13,3.48,1.14,-1.18,-1.12,-1.19,2.29,2.30,2.34
74.38,3.47,1.14,3.46,1.13,-1.15,-1.14,-1.20,2.32,2.31,2.33
75.12,3.46,1.15,3.45,1.14,-1.12,-1.15,-1.21,2.34,2.33,2.31
75.87,3.42,1.13,3.39,1.10,-1.08,-1.17,-1.22,2.34,2.31,2.29
76.63,3.30,1.03,3.32,1.05,-1.05,-1.19,-1.22,2.25,2.27,2.27
77.40,3.24,0.99,3.28,1.03,-1.03,-1.21,-1.23,2.21,2.25,2.25
78.17,3.24,1.01,3.23,1.00,-1.00,-1.22,-1.24,2.24,2.23,2.23
78.95,3.24,1.04,3.18,0.97,-0.96,-1.24,-1.25,2.28,2.22,2.20
79.74,3.08,0.90,3.12,0.93,-0.92,-1.26,-1.26,2.16,2.20,2.18
80.54,3.02,0.86,3.06,0.89,-0.88,-1.27,-1.28,2.14,2.18,2.16
81.35,3.02,0.88,3.01,0.86,-0.86,-1.29,-1.29,2.16,2.15,2.14
82.16,3.00,0.88,2.95,0.83,-0.85,-1.31,-1.30,2.15,2.11,2.12
82.98,2.91,0.81,2.91,0.80,-0.85,-1.33,-1.32,2.06,2.06,2.10
83.81,2.81,0.72,2.89,0.81,-0.86,-1.35,-1.34,1.95,2.03,2.09
84.65,2.94,0.88,2.92,0.85,-0.88,-1.36,-1.35,2.06,2.04,2.07
85.50,3.02,0.97,2.98,0.93,-0.90,-1.38,-1.37,2.12,2.07,2.05
86.35,3.02,0.98,3.03,0.99,-0.93,-1.40,-1.39,2.09,2.10,2.04
87.22,3.02,1.00,3.03,1.00,-0.96,-1.42,-1.41,2.06,2.07,2.02
88.09,3.02,1.01,3.02,1.01,-0.99,-1.43,-1.43,2.03,2.03,2.01
88.97,3.02,1.03,3.02,1.03,-1.03,-1.45,-1.46,1.99,1.99,1.99
89.86,3.02,1.05,3.01,1.04,-1.07,-1.47,-1.48,1.95,1.94,1.97
90.76,3.02,1.07,3.02,1.06,-1.11,-1.49,-1.51,1.91,1.90,1.95
91.66,3.02,1.09,3.05,1.11,-1.16,-1.50,-1.53,1.87,1.89,1.93
92.58,3.10,1.18,3.11,1.19,-1.20,-1.52,-1.56,1.90,1.91,1.92
93.51,3.20,1.30,3.18,1.28,-1.25,-1.54,-1.59,1.95,1.93,1.90
94.44,3.24,1.36,3.23,1.35,-1.30,-1.55,-1.62,1.94,1.93,1.88
95.39,3.24,1.38,3.25,1.38,-1.35,-1.57,-1.65,1.89,1.90,1.86
96.34,3.24,1.39,3.24,1.40,-1.39,-1.59,-1.68,1.85,1.86,1.85
97.30,3.24,1.41,3.24,1.41,-1.42,-1.60,-1.72,1.82,1.82,1.83
98.28,3.24,1.43,3.24,1.43,-1.44,-1.62,-1.75,1.80,1.80,1.81
99.26,3.24,1.45,3.24,1.45,-1.46,-1.64,-1.78,1.78,1.78,1.79
100.25,3.24,1.48,3.24,1.48,-1.48,-1.65,-1.82,1.76,1.76,1.76
101.25,3.24,1.50,3.24,1.50,-1.50,-1.67,-1.85,1.74,1.74,1.74
102.27,3.24,1.53,3.24,1.53,-1.53,-1.68,-1.89,1.71,1.71,1.71
103.29,3.24,1.56,3.24,1.56,-1.57,-1.70,-1.92,1.67,1.67,1.68
104.32,3.24,1.60,3.24,1.59,-1.61,-1.71,-1.96,1.63,1.63,1.64
105.37,3.24,1.64,3.24,1.63,-1.65,-1.73,-1.99,1.59,1.59,1.61
106.42,3.24,1.67,3.24,1.68,-1.69,-1.74,-2.02,1.55,1.55,1.57
107.48,3.24,1.72,3.24,1.73,-1.72,-1.75,-2.06,1.52,1.52,1.52
108.56,3.24,1.78,3.26,1.80,-1.75,-1.77,-2.09,1.49,1.51,1.46
109.64,3.24,1.83,3.23,1.83,-1.77,-1.78,-2.12,1.47,1.46,1.41
110.74,3.24,1.88,3.18,1.82,-1.79,-1.79,-2.15,1.45,1.38,1.36
111.85,3.05,1.74,3.10,1.80,-1.81,-1.80,-2.17,1.24,1.29,1.31
112.97,3.02,1.77,3.04,1.79,-1.84,-1.82,-2.20,1.18,1.20,1.25
114.10,3.02,1.82,3.00,1.80,-1.86,-1.83,-2.22,1.16,1.14,1.20
115.24,3.02,1.87,3.02,1.87,-1.89,-1.84,-2.24,1.13,1.13,1.15
116.39,3.02,1.91,3.02,1.91,-1.92,-1.85,-2.26,1.10,1.10,1.11
117.55,3.02,1.96,3.02,1.96,-1.94,-1.85,-2.27,1.08,1.08,1.06
118.73,3.02,2.00,3.03,2.01,-1.96,-1.86,-2.28,1.06,1.07,1.02
119.92,3.02,2.04,3.02,2.04,-1.97,-1.87,-2.29,1.05,1.04,0.98
121.12,3.01,2.06,2.96,2.02,-1.99,-1.88,-2.29,1.02,0.98,0.95
122.33,2.87,1.96,2.89,1.98,-1.99,-1.88,-2.29,0.88,0.90,0.91
123.55,2.79,1.91,2.82,1.94,-1.99,-1.89,-2.29,0.80,0.83,0.89
124.79,2.79,1.94,2.78,1.93,-1.99,-1.89,-2.28,0.80,0.79,0.85
126.03,2.79,1.97,2.78,1.96,-1.99,-1.90,-2.27,0.80,0.79,0.82
127.29,2.79,1.99,2.80,2.00,-1.98,-1.90,-2.25,0.81,0.82,0.80
128.57,2.79,2.02,2.80,2.03,-1.98,-1.90,-2.23,0.81,0.82,0.77
129.85,2.79,2.05,2.77,2.03,-1.98,-1.90,-2.21,0.81,0.79,0.74
131.15,2.74,2.02,2.71,2.00,-1.98,-1.90,-2.18,0.76,0.73,0.72
132.46,2.61,1.92,2.64,1.95,-1.98,-1.90,-2.15,0.63,0.66,0.69
133.79,2.56,1.91,2.58,1.92,-1.97,-1.90,-2.11,0.59,0.61,0.66
135.12,2.56,1.93,2.56,1.93,-1.95,-1.89,-2.07,0.61,0.61,0.63
136.48,2.56,1.96,2.56,1.96,-1.93,-1.89,-2.03,0.63,0.63,0.60
137.84,2.56,1.99,2.52,1.94,-1.91,-1.88,-1.99,0.65,0.61,0.57
139.22,2.44,1.89,2.45,1.90,-1.89,-1.88,-1.94,0.55,0.56,0.55
140.61,2.35,1.83,2.38,1.86,-1.88,-1.87,-1.89,0.47,0.50,0.52
142.02,2.33,1.84,2.34,1.85,-1.86,-1.86,-1.84,0.47,0.49,0.50
143.44,2.33,1.86,2.32,1.86,-1.84,-1.85,-1.78,0.49,0.48,0.47
144.87,2.33,1.89,2.27,1.84,-1.82,-1.84,-1.73,0.51,0.45,0.44
146.32,2.18,1.78,2.20,1.80,-1.81,-1.83,-1.67,0.37,0.40,0.40
147.78,2.10,1.73,2.14,1.77,-1.80,-1.81,-1.61,0.31,0.34,0.37
149.26,2.10,1.77,2.10,1.77,-1.79,-1.80,-1.55,0.31,0.31,0.33
150.75,2.10,1.81,2.09,1.80,-1.79,-1.78,-1.49,0.31,0.30,0.29
152.26,2.09,1.85,2.05,1.81,-1.79,-1.76,-1.43,0.30,0.25,0.24
153.78,1.95,1.76,1.98,1.79,-1.80,-1.75,-1.37,0.16,0.18,0.19
155.32,1.89,1.76,1.92,1.78,-1.80,-1.72,-1.31,0.09,0.12,0.14
156.88,1.88,1.80,1.88,1.80,-1.80,-1.70,-1.24,0.08,0.08,0.08
158.44,1.88,1.84,1.85,1.81,-1.79,-1.68,-1.18,0.09,0.06,0.04
160.03,1.81,1.81,1.79,1.79,-1.77,-1.65,-1.12,0.04,0.02,-0.00
161.63,1.68,1.72,1.73,1.77,-1.74,-1.63,-1.06,-0.06,-0.01,-0.04
163.24,1.65,1.72,1.66,1.73,-1.71,-1.60,-0.99,-0.06,-0.06,-0.07
164.88,1.65,1.75,1.58,1.68,-1.69,-1.57,-0.93,-0.04,-0.11,-0.10
166.53,1.47,1.59,1.51,1.63,-1.66,-1.54,-0.87,-0.19,-0.15,-0.12
168.19,1.42,1.56,1.45,1.58,-1.63,-1.51,-0.81,-0.21,-0.19,-0.14
169.87,1.42,1.57,1.41,1.55,-1.60,-1.47,-0.75,-0.18,-0.19,-0.15
171.57,1.42,1.57,1.42,1.56,-1.56,-1.44,-0.69,-0.14,-0.15,-0.15
173.29,1.42,1.56,1.44,1.58,-1.53,-1.40,-0.63,-0.11,-0.09,-0.14
175.02,1.42,1.56,1.42,1.55,-1.49,-1.36,-0.57,-0.07,-0.08,-0.14
176.77,1.42,1.55,1.36,1.48,-1.46,-1.32,-0.51,-0.04,-0.10,-0.13
178.54,1.24,1.35,1.28,1.40,-1.42,-1.28,-0.45,-0.18,-0.13,-0.11
180.32,1.19,1.29,1.22,1.31,-1.37,-1.24,-0.39,-0.18,-0.15,-0.10
182.13,1.19,1.27,1.19,1.27,-1.31,-1.19,-0.33,-0.12,-0.12,-0.08
183.95,1.19,1.27,1.18,1.26,-1.24,-1.15,-0.27,-0.05,-0.06,-0.07
185.79,1.19,1.26,1.14,1.21,-1.17,-1.10,-0.21,0.02,-0.03,-0.07
187.65,1.03,1.09,1.07,1.14,-1.11,-1.05,-0.16,-0.08,-0.03,-0.06
189.52,0.97,1.04,0.98,1.04,-1.05,-1.00,-0.10,-0.08,-0.07,-0.06
191.42,0.91,0.98,0.88,0.95,-0.98,-0.95,-0.04,-0.07,-0.11,-0.07
193.33,0.79,0.87,0.82,0.90,-0.91,-0.89,0.01,-0.12,-0.09,-0.08
195.27,0.74,0.82,0.76,0.84,-0.83,-0.84,0.07,-0.09,-0.07,-0.08
197.22,0.74,0.82,0.69,0.77,-0.76,-0.78,0.12,-0.02,-0.07,-0.08
199.19,0.60,0.69,0.62,0.71,-0.69,-0.72,0.18,-0.09,-0.07,-0.09
201.18,0.51,0.61,0.53,0.63,-0.63,-0.66,0.23,-0.12,-0.10,-0.10
203.19,0.46,0.57,0.43,0.54,-0.58,-0.60,0.29,-0.12,-0.16,-0.11
205.23,0.34,0.47,0.35,0.48,-0.53,-0.54,0.34,-0.19,-0.17,-0.12
207.28,0.28,0.42,0.32,0.46,-0.47,-0.47,0.39,-0.19,-0.15,-0.14
209.35,0.28,0.44,0.27,0.43,-0.41,-0.41,0.44,-0.12,-0.13,-0.16
211.44,0.28,0.45,0.24,0.41,-0.34,-0.34,0.49,-0.06,-0.11,-0.17
213.56,0.12,0.31,0.14,0.33,-0.28,-0.27,0.54,-0.16,-0.14,-0.19
215.69,0.05,0.25,0.01,0.21,-0.23,-0.21,0.59,-0.18,-0.22,-0.20
217.85,-0.16,0.06,-0.10,0.12,-0.17,-0.14,0.64,-0.33,-0.27,-0.22
220.03,-0.18,0.04,-0.16,0.06,-0.10,-0.06,0.69,-0.28,-0.27,-0.22
222.23,-0.18,0.06,-0.24,0.00,-0.03,0.01,0.73,-0.21,-0.26,-0.24
224.45,-0.28,-0.03,-0.27,-0.02,0.05,0.08,0.78,-0.23,-0.22,-0.25
226.70,-0.39,-0.12,-0.35,-0.09,0.13,0.16,0.82,-0.26,-0.22,-0.27
228.96,-0.40,-0.13,-0.44,-0.17,0.20,0.23,0.86,-0.20,-0.24,-0.27
231.25,-0.57,-0.28,-0.56,-0.28,0.27,0.31,0.90,-0.30,-0.29,-0.29
233.57,-0.66,-0.36,-0.69,-0.39,0.36,0.39,0.94,-0.30,-0.33,-0.30
235.90,-0.85,-0.55,-0.79,-0.48,0.45,0.46,0.98,-0.40,-0.33,-0.30
238.26,-0.86,-0.54,-0.84,-0.53,0.55,0.54,1.01,-0.31,-0.30,-0.32
240.64,-0.86,-0.54,-0.94,-0.61,0.64,0.62,1.05,-0.22,-0.30,-0.32
243.05,-1.02,-0.69,-1.05,-0.72,0.72,0.70,1.08,-0.30,-0.33,-0.33
245.48,-1.25,-0.92,-1.18,-0.85,0.80,0.78,1.11,-0.45,-0.38,-0.33
247.93,-1.31,-0.97,-1.28,-0.94,0.90,0.86,1.14,-0.41,-0.39,-0.34
250.41,-1.31,-0.97,-1.34,-0.99,1.00,0.95,1.17,-0.31,-0.33,-0.34
252.92,-1.36,-1.01,-1.38,-1.04,1.12,1.03,1.19,-0.24,-0.26,-0.35
255.45,-1.51,-1.16,-1.52,-1.17,1.25,1.11,1.21,-0.26,-0.27,-0.35
258.00,-1.68,-1.32,-1.68,-1.33,1.37,1.19,1.24,-0.31,-0.32,-0.36
260.58,-1.91,-1.55,-1.88,-1.51,1.48,1.27,1.26,-0.43,-0.40,-0.36
263.19,-2.00,-1.63,-2.04,-1.67,1.59,1.35,1.27,-0.41,-0.46,-0.37
265.82,-2.20,-1.82,-2.15,-1.77,1.70,1.43,1.29,-0.50,-0.46,-0.38
268.48,-2.23,-1.85,-2.21,-1.83,1.80,1.52,1.31,-0.43,-0.41,-0.38
271.16,-2.23,-1.83,-2.28,-1.89,1.90,1.60,1.32,-0.33,-0.38,-0.39
273.87,-2.31,-1.91,-2.31,-1.91,1.98,1.67,1.33,-0.33,-0.33,-0.40
276.61,-2.43,-2.03,-2.39,-1.99,2.05,1.75,1.35,-0.38,-0.35,-0.40
279.38,-2.45,-2.03,-2.50,-2.09,2.10,1.83,1.36,-0.35,-0.40,-0.41
282.17,-2.62,-2.20,-2.59,-2.18,2.15,1.91,1.37,-0.47,-0.45,-0.42
284.99,-2.68,-2.26,-2.65,-2.23,2.19,1.98,1.38,-0.49,-0.47,-0.42
287.84,-2.68,-2.26,-2.69,-2.27,2.22,2.06,1.39,-0.46,-0.47,-0.42
290.72,-2.68,-2.25,-2.68,-2.26,2.24,2.13,1.40,-0.44,-0.45,-0.43
293.63,-2.68,-2.25,-2.68,-2.25,2.25,2.20,1.41,-0.43,-0.43,-0.43
296.57,-2.68,-2.25,-2.68,-2.25,2.26,2.27,1.42,-0.42,-0.42,-0.43
299.53,-2.68,-2.25,-2.67,-2.24,2.27,2.33,1.43,-0.41,-0.41,-0.43
302.53,-2.68,-2.23,-2.67,-2.23,2.27,2.40,1.44,-0.41,-0.39,-0.45
305.55,-2.68,-2.23,-2.70,-2.26,2.29,2.46,1.45,-0.39,-0.41,-0.45
308.61,-2.74,-2.29,-2.77,-2.32,2.32,2.52,1.46,-0.42,-0.45,-0.45
311.69,-2.89,-2.43,-2.84,-2.38,2.35,2.58,1.48,-0.54,-0.49,-0.46
314.81,-2.91,-2.44,-2.89,-2.41,2.39,2.63,1.49,-0.52,-0.49,-0.47
317.96,-2.91,-2.42,-2.93,-2.44,2.43,2.69,1.51,-0.47,-0.49,-0.49
321.14,-2.92,-2.41,-2.98,-2.47,2.48,2.74,1.52,-0.44,-0.50,-0.51
324.35,-3.09,-2.57,-3.05,-2.53,2.53,2.78,1.54,-0.56,-0.52,-0.52
327.59,-3.14,-2.61,-3.10,-2.57,2.57,2.82,1.56,-0.56,-0.53,-0.53
330.87,-3.14,-2.60,-3.15,-2.61,2.62,2.86,1.57,-0.52,-0.53,-0.54
334.18,-3.14,-2.59,-3.19,-2.64,2.66,2.90,1.59,-0.48,-0.53,-0.55
337.52,-3.27,-2.70,-3.25,-2.69,2.70,2.93,1.62,-0.57,-0.55,-0.57
340.90,-3.35,-2.78,-3.32,-2.75,2.73,2.96,1.64,-0.62,-0.59,-0.57
344.30,-3.37,-2.79,-3.37,-2.80,2.75,2.99,1.66,-0.62,-0.62,-0.58
347.75,-3.37,-2.79,-3.38,-2.80,2.77,3.01,1.69,-0.60,-0.61,-0.58
351.23,-3.37,-2.79,-3.37,-2.79,2.78,3.03,1.72,-0.59,-0.59,-0.58
354.74,-3.37,-2.79,-3.37,-2.79,2.79,3.05,1.74,-0.58,-0.58,-0.58
358.28,-3.37,-2.79,-3.37,-2.79,2.81,3.06,1.77,-0.56,-0.56,-0.58
361.87,-3.37,-2.79,-3.36,-2.78,2.83,3.07,1.81,-0.54,-0.53,-0.57
365.49,-3.37,-2.79,-3.38,-2.80,2.85,3.08,1.84,-0.52,-0.53,-0.58
369.14,-3.39,-2.81,-3.43,-2.86,2.88,3.08,1.87,-0.51,-0.55,-0.58
372.83,-3.53,-2.95,-3.50,-2.93,2.92,3.08,1.91,-0.61,-0.58,-0.58
376.56,-3.59,-3.02,-3.56,-2.99,2.96,3.07,1.94,-0.63,-0.60,-0.57
380.33,-3.59,-3.02,-3.60,-3.03,2.99,3.07,1.98,-0.60,-0.61,-0.57
384.13,-3.59,-3.02,-3.59,-3.03,3.01,3.06,2.02,-0.58,-0.58,-0.57
387.97,-3.59,-3.02,-3.59,-3.02,3.01,3.04,2.06,-0.58,-0.58,-0.57
391.85,-3.59,-3.02,-3.60,-3.03,3.00,3.03,2.10,-0.59,-0.60,-0.57
395.77,-3.59,-3.02,-3.57,-3.00,2.97,3.01,2.14,-0.62,-0.60,-0.57
399.73,-3.53,-2.97,-3.51,-2.94,2.93,2.99,2.19,-0.60,-0.57,-0.56
403.72,-3.41,-2.84,-3.44,-2.87,2.89,2.96,2.23,-0.51,-0.54,-0.56
407.76,-3.37,-2.80,-3.38,-2.82,2.86,2.94,2.27,-0.51,-0.52,-0.57
411.84,-3.37,-2.80,-3.36,-2.79,2.83,2.91,2.32,-0.54,-0.53,-0.57
415.96,-3.37,-2.80,-3.37,-2.80,2.81,2.88,2.36,-0.56,-0.55,-0.57
420.12,-3.37,-2.80,-3.37,-2.80,2.79,2.85,2.40,-0.57,-0.57,-0.57
424.32,-3.37,-2.80,-3.37,-2.80,2.79,2.81,2.45,-0.58,-0.58,-0.57
428.56,-3.37,-2.80,-3.37,-2.80,2.80,2.78,2.49,-0.57,-0.57,-0.57
432.85,-3.37,-2.80,-3.37,-2.80,2.81,2.74,2.53,-0.56,-0.56,-0.57
437.18,-3.37,-2.80,-3.37,-2.80,2.81,2.70,2.57,-0.56,-0.56,-0.57
441.55,-3.37,-2.79,-3.37,-2.79,2.80,2.66,2.60,-0.57,-0.57,-0.58
445.96,-3.37,-2.79,-3.37,-2.80,2.78,2.62,2.64,-0.59,-0.60,-0.58
450.42,-3.37,-2.79,-3.38,-2.80,2.75,2.58,2.67,-0.62,-0.63,-0.58
454.93,-3.37,-2.79,-3.35,-2.76,2.73,2.54,2.70,-0.64,-0.62,-0.58
459.48,-3.32,-2.73,-3.28,-2.70,2.70,2.49,2.73,-0.62,-0.59,-0.59
464.07,-3.17,-2.59,-3.21,-2.63,2.66,2.45,2.75,-0.51,-0.55,-0.58
468.71,-3.14,-2.56,-3.15,-2.57,2.62,2.40,2.77,-0.52,-0.53,-0.58
473.40,-3.14,-2.56,-3.13,-2.55,2.58,2.36,2.78,-0.56,-0.55,-0.58
478.13,-3.14,-2.56,-3.15,-2.57,2.54,2.31,2.80,-0.60,-0.60,-0.58
482.91,-3.14,-2.57,-3.12,-2.54,2.50,2.26,2.80,-0.64,-0.62,-0.57
487.74,-3.09,-2.52,-3.06,-2.49,2.47,2.21,2.80,-0.62,-0.59,-0.57
492.62,-2.95,-2.39,-2.98,-2.42,2.43,2.17,2.80,-0.52,-0.56,-0.56
497.55,-2.91,-2.35,-2.94,-2.38,2.39,2.12,2.79,-0.52,-0.55,-0.56
502.52,-2.91,-2.35,-2.90,-2.34,2.35,2.07,2.78,-0.56,-0.55,-0.55
507.55,-2.91,-2.36,-2.85,-2.30,2.29,2.02,2.76,-0.62,-0.55,-0.54
512.62,-2.74,-2.19,-2.78,-2.23,2.24,1.97,2.74,-0.50,-0.54,-0.55
