frequency,raw,error,smoothed,error_smoothed,equalization,parametric_eq,fixed_band_eq,equalized_raw,equalized_smoothed,target
20.00,-14.99,-16.06,-14.99,-16.06,6.00,5.73,2.70,-8.99,-8.99,1.06
20.20,-14.88,-16.01,-14.88,-16.01,6.00,5.75,2.77,-8.88,-8.88,1.12
20.40,-14.77,-15.95,-14.78,-15.95,6.00,5.78,2.85,-8.77,-8.78,1.17
20.61,-14.67,-15.91,-14.67,-15.90,6.00,5.80,2.93,-8.67,-8.67,1.23
20.81,-14.56,-15.85,-14.56,-15.85,6.00,5.82,3.01,-8.56,-8.56,1.28
21.02,-14.45,-15.80,-14.45,-15.79,6.00,5.84,3.10,-8.45,-8.45,1.34
21.23,-14.34,-15.74,-14.34,-15.73,6.00,5.86,3.18,-8.34,-8.34,1.39
21.44,-14.23,-15.67,-14.23,-15.68,6.00,5.88,3.27,-8.23,-8.23,1.44
21.66,-14.12,-15.62,-14.12,-15.61,6.00,5.90,3.36,-8.12,-8.12,1.49
21.87,-14.01,-15.55,-14.01,-15.55,6.00,5.92,3.46,-8.01,-8.01,1.54
22.09,-13.90,-15.49,-13.90,-15.49,6.00,5.94,3.56,-7.90,-7.90,1.59
22.31,-13.79,-15.43,-13.79,-15.43,6.00,5.96,3.66,-7.79,-7.79,1.64
22.54,-13.68,-15.36,-13.68,-15.37,6.00,5.98,3.76,-7.68,-7.68,1.68
22.76,-13.57,-15.30,-13.57,-15.30,6.00,5.99,3.86,-7.57,-7.57,1.73
22.99,-13.46,-15.23,-13.46,-15.23,6.00,6.01,3.97,-7.46,-7.46,1.77
23.22,-13.34,-15.16,-13.35,-15.16,6.00,6.02,4.08,-7.34,-7.35,1.82
23.45,-13.23,-15.09,-13.23,-15.10,6.00,6.04,4.19,-7.23,-7.23,1.86
23.69,-13.12,-15.03,-13.12,-15.03,6.00,6.05,4.31,-7.12,-7.12,1.91
23.92,-13.01,-14.96,-13.01,-14.96,6.00,6.06,4.42,-7.01,-7.01,1.95
24.16,-12.89,-14.89,-12.90,-14.89,6.00,6.07,4.54,-6.89,-6.90,2.00
24.40,-12.78,-14.82,-12.78,-14.82,6.00,6.08,4.66,-6.78,-6.78,2.04
24.65,-12.67,-14.75,-12.67,-14.75,6.00,6.09,4.78,-6.67,-6.67,2.08
24.89,-12.56,-14.68,-12.56,-14.68,6.00,6.10,4.91,-6.56,-6.56,2.12
25.14,-12.44,-14.60,-12.45,-14.60,6.00,6.11,5.03,-6.44,-6.45,2.16
25.39,-12.33,-14.53,-12.33,-14.53,6.00,6.12,5.16,-6.33,-6.33,2.20
25.65,-12.22,-14.46,-12.22,-14.45,6.00,6.13,5.29,-6.22,-6.22,2.24
25.91,-12.10,-14.38,-12.11,-14.38,6.00,6.13,5.41,-6.10,-6.11,2.27
26.16,-11.99,-14.31,-11.99,-14.30,6.00,6.14,5.54,-5.99,-5.99,2.32
26.43,-11.88,-14.23,-11.88,-14.23,6.00,6.15,5.67,-5.88,-5.88,2.34
26.69,-11.77,-14.16,-11.77,-14.16,6.00,6.15,5.79,-5.77,-5.77,2.38
26.96,-11.66,-14.09,-11.66,-14.08,6.00,6.15,5.91,-5.66,-5.66,2.42
27.23,-11.54,-14.00,-11.55,-14.00,6.00,6.16,6.04,-5.54,-5.55,2.45
27.50,-11.43,-13.92,-11.43,-13.92,6.00,6.16,6.15,-5.43,-5.43,2.49
27.77,-11.31,-13.84,-11.31,-13.84,6.00,6.16,6.27,-5.31,-5.31,2.53
28.05,-11.20,-13.76,-11.20,-13.77,6.00,6.16,6.38,-5.20,-5.20,2.56
28.33,-11.09,-13.69,-11.09,-13.69,6.00,6.16,6.49,-5.09,-5.09,2.60
28.62,-10.98,-13.62,-10.98,-13.62,6.00,6.16,6.59,-4.98,-4.98,2.64
28.90,-10.87,-13.55,-10.87,-13.55,6.00,6.16,6.68,-4.87,-4.87,2.68
29.19,-10.76,-13.47,-10.76,-13.47,6.00,6.16,6.77,-4.76,-4.76,2.71
29.48,-10.65,-13.40,-10.65,-13.39,6.00,6.16,6.85,-4.65,-4.65,2.75
29.78,-10.53,-13.32,-10.54,-13.32,6.00,6.16,6.92,-4.53,-4.54,2.78
30.08,-10.43,-13.25,-10.43,-13.25,6.00,6.16,6.99,-4.43,-4.43,2.81
30.38,-10.33,-13.19,-10.33,-13.19,6.00,6.15,7.04,-4.33,-4.33,2.85
30.68,-10.24,-13.12,-10.24,-13.12,6.00,6.15,7.09,-4.24,-4.24,2.88
30.99,-10.14,-13.06,-10.14,-13.06,6.00,6.15,7.12,-4.14,-4.14,2.92
31.30,-10.04,-12.99,-10.04,-12.99,6.00,6.14,7.15,-4.04,-4.04,2.95
31.61,-9.93,-12.91,-9.94,-12.91,6.00,6.14,7.17,-3.93,-3.94,2.98
31.93,-9.83,-12.84,-9.83,-12.84,6.00,6.13,7.18,-3.83,-3.83,3.01
32.24,-9.72,-12.76,-9.72,-12.76,6.00,6.12,7.18,-3.72,-3.72,3.04
32.57,-9.62,-12.69,-9.62,-12.68,6.00,6.12,7.17,-3.62,-3.62,3.06
32.89,-9.51,-12.60,-9.51,-12.61,6.00,6.11,7.15,-3.51,-3.51,3.09
33.22,-9.41,-12.52,-9.41,-12.53,6.00,6.10,7.12,-3.41,-3.41,3.11
33.55,-9.31,-12.45,-9.31,-12.44,6.00,6.09,7.09,-3.31,-3.31,3.14
33.89,-9.20,-12.36,-9.21,-12.36,6.00,6.09,7.05,-3.20,-3.21,3.16
34.23,-9.10,-12.28,-9.10,-12.28,6.00,6.08,7.01,-3.10,-3.10,3.18
34.57,-9.00,-12.21,-9.00,-12.20,6.00,6.07,6.96,-3.00,-3.00,3.20
34.92,-8.90,-12.13,-8.90,-12.12,6.00,6.06,6.90,-2.90,-2.90,3.22
35.27,-8.80,-12.04,-8.80,-12.05,6.00,6.05,6.85,-2.80,-2.80,3.24
35.62,-8.70,-11.96,-8.70,-11.96,6.00,6.04,6.79,-2.70,-2.70,3.26
35.97,-8.60,-11.88,-8.60,-11.87,6.00,6.03,6.73,-2.60,-2.60,3.28
36.33,-8.49,-11.78,-8.49,-11.78,6.00,6.02,6.66,-2.49,-2.49,3.28
36.70,-8.39,-11.69,-8.39,-11.69,6.00,6.01,6.60,-2.39,-2.39,3.30
37.06,-8.28,-11.60,-8.28,-11.60,6.00,6.00,6.53,-2.28,-2.28,3.32
37.43,-8.18,-11.51,-8.18,-11.51,6.00,5.99,6.47,-2.18,-2.18,3.33
37.81,-8.08,-11.43,-8.08,-11.42,6.00,5.98,6.41,-2.08,-2.08,3.34
38.19,-7.98,-11.33,-7.98,-11.33,6.00,5.97,6.34,-1.98,-1.98,3.35
38.57,-7.88,-11.24,-7.88,-11.24,6.00,5.96,6.29,-1.88,-1.88,3.36
38.95,-7.77,-11.14,-7.78,-11.14,6.00,5.95,6.23,-1.77,-1.78,3.37
39.34,-7.67,-11.04,-7.67,-11.05,6.00,5.94,6.17,-1.67,-1.67,3.37
39.74,-7.57,-10.95,-7.57,-10.94,6.00,5.92,6.12,-1.57,-1.57,3.38
40.14,-7.46,-10.84,-7.46,-10.84,6.00,5.91,6.07,-1.46,-1.46,3.38
40.54,-7.35,-10.74,-7.36,-10.74,6.00,5.90,6.03,-1.35,-1.36,3.38
40.94,-7.25,-10.64,-7.25,-10.64,6.00,5.89,5.98,-1.25,-1.25,3.39
41.35,-7.15,-10.54,-7.15,-10.54,6.00,5.88,5.95,-1.15,-1.15,3.39
41.76,-7.05,-10.44,-7.05,-10.44,6.00,5.87,5.91,-1.05,-1.05,3.39
42.18,-6.94,-10.33,-6.94,-10.33,6.00,5.86,5.88,-0.94,-0.94,3.39
42.60,-6.84,-10.24,-6.84,-10.23,6.00,5.85,5.85,-0.84,-0.84,3.39
43.03,-6.73,-10.12,-6.73,-10.13,6.00,5.84,5.83,-0.73,-0.73,3.39
43.46,-6.63,-10.03,-6.63,-10.02,6.00,5.83,5.81,-0.63,-0.63,3.40
43.90,-6.52,-9.91,-6.52,-9.92,6.00,5.82,5.80,-0.52,-0.52,3.39
44.33,-6.42,-9.82,-6.42,-9.81,6.00,5.81,5.79,-0.42,-0.42,3.40
44.78,-6.31,-9.70,-6.32,-9.71,6.00,5.80,5.79,-0.31,-0.32,3.39
45.23,-6.21,-9.61,-6.21,-9.61,6.00,5.79,5.79,-0.21,-0.21,3.40
45.68,-6.11,-9.50,-6.11,-9.50,6.00,5.78,5.79,-0.11,-0.11,3.39
46.13,-6.01,-9.40,-6.01,-9.40,6.00,5.77,5.80,-0.01,-0.01,3.39
46.60,-5.91,-9.30,-5.91,-9.30,6.00,5.76,5.81,0.09,0.09,3.39
47.06,-5.82,-9.21,-5.82,-9.21,6.00,5.75,5.83,0.18,0.18,3.38
47.53,-5.73,-9.11,-5.73,-9.11,6.00,5.74,5.85,0.27,0.27,3.38
48.01,-5.64,-9.02,-5.64,-9.02,6.00,5.74,5.87,0.36,0.36,3.38
48.49,-5.55,-8.93,-5.55,-8.93,6.00,5.73,5.90,0.45,0.45,3.38
48.97,-5.46,-8.83,-5.47,-8.84,6.00,5.72,5.93,0.54,0.53,3.37
49.46,-5.39,-8.76,-5.39,-8.76,6.00,5.72,5.97,0.61,0.61,3.37
49.96,-5.33,-8.70,-5.33,-8.69,6.00,5.72,6.00,0.67,0.67,3.36
50.46,-5.26,-8.63,-5.27,-8.63,6.00,5.71,6.05,0.74,0.73,3.37
50.96,-5.20,-8.56,-5.21,-8.57,6.00,5.71,6.09,0.80,0.79,3.36
51.47,-5.15,-8.51,-5.15,-8.50,6.00,5.71,6.13,0.85,0.85,3.36
51.99,-5.09,-8.44,-5.09,-8.44,6.00,5.70,6.18,0.91,0.91,3.35
52.51,-5.04,-8.39,-5.04,-8.39,6.00,5.70,6.23,0.96,0.96,3.34
53.03,-5.00,-8.35,-5.01,-8.35,6.00,5.70,6.28,1.00,0.99,3.34
53.56,-4.98,-8.32,-4.98,-8.31,6.00,5.71,6.33,1.02,1.02,3.33
54.10,-4.96,-8.29,-4.96,-8.29,6.00,5.71,6.38,1.04,1.04,3.32
54.64,-4.95,-8.27,-4.95,-8.27,6.00,5.71,6.42,1.05,1.05,3.31
55.18,-4.94,-8.25,-4.94,-8.24,6.00,5.72,6.47,1.06,1.06,3.30
55.74,-4.93,-8.23,-4.93,-8.23,6.00,5.72,6.52,1.07,1.07,3.29
56.29,-4.93,-8.20,-4.93,-8.21,6.00,5.73,6.56,1.07,1.07,3.27
56.86,-4.94,-8.20,-4.94,-8.20,6.00,5.74,6.60,1.06,1.06,3.26
57.42,-4.95,-8.19,-4.95,-8.19,6.00,5.75,6.64,1.05,1.05,3.24
58.00,-4.97,-8.19,-4.97,-8.19,6.00,5.76,6.67,1.03,1.03,3.22
58.58,-4.99,-8.19,-4.99,-8.19,6.00,5.77,6.70,1.01,1.01,3.19
59.16,-5.02,-8.19,-5.02,-8.19,6.00,5.79,6.72,0.98,0.98,3.17
59.76,-5.05,-8.20,-5.05,-8.20,6.00,5.80,6.74,0.95,0.95,3.15
60.35,-5.08,-8.20,-5.09,-8.20,6.00,5.82,6.75,0.92,0.91,3.11
60.96,-5.12,-8.21,-5.12,-8.21,6.00,5.84,6.75,0.88,0.88,3.09
61.57,-5.15,-8.22,-5.15,-8.21,6.00,5.86,6.75,0.85,0.85,3.06
62.18,-5.17,-8.20,-5.17,-8.21,6.00,5.88,6.74,0.83,0.83,3.03
62.80,-5.19,-8.19,-5.19,-8.19,6.00,5.91,6.72,0.81,0.81,3.00
63.43,-5.20,-8.18,-5.20,-8.18,6.00,5.93,6.69,0.80,0.80,2.98
64.07,-5.21,-8.16,-5.21,-8.16,6.00,5.96,6.66,0.79,0.79,2.95
64.71,-5.22,-8.14,-5.22,-8.14,6.00,5.98,6.62,0.78,0.78,2.92
65.35,-5.22,-8.13,-5.23,-8.13,6.00,6.01,6.58,0.78,0.77,2.90
66.01,-5.23,-8.12,-5.23,-8.11,6.00,6.04,6.53,0.77,0.77,2.88
66.67,-5.23,-8.10,-5.23,-8.10,6.00,6.07,6.47,0.77,0.77,2.87
67.33,-5.23,-8.08,-5.23,-8.08,6.00,6.09,6.41,0.77,0.77,2.85
68.01,-5.22,-8.06,-5.22,-8.06,6.00,6.12,6.34,0.78,0.78,2.84
68.69,-5.20,-8.03,-5.20,-8.03,6.00,6.15,6.27,0.80,0.80,2.82
69.37,-5.17,-7.99,-5.17,-7.99,6.00,6.17,6.19,0.83,0.83,2.81
70.07,-5.14,-7.94,-5.14,-7.94,6.00,6.20,6.12,0.86,0.86,2.80
70.77,-5.10,-7.89,-5.10,-7.90,6.00,6.22,6.03,0.90,0.90,2.79
71.48,-5.06,-7.85,-5.06,-7.85,6.00,6.24,5.95,0.94,0.94,2.79
72.19,-5.02,-7.79,-5.02,-7.79,6.00,6.25,5.86,0.98,0.98,2.77
72.91,-4.98,-7.74,-4.98,-7.74,6.00,6.26,5.78,1.02,1.02,2.76
73.64,-4.93,-7.68,-4.94,-7.68,6.00,6.27,5.69,1.07,1.06,2.74
74.38,-4.89,-7.62,-4.89,-7.62,6.00,6.27,5.60,1.11,1.11,2.73
75.12,-4.85,-7.56,-4.85,-7.56,6.00,6.26,5.52,1.15,1.15,2.71
75.87,-4.81,-7.51,-4.81,-7.51,6.00,6.25,5.43,1.19,1.19,2.70
76.63,-4.76,-7.44,-4.77,-7.44,6.00,6.24,5.35,1.24,1.23,2.68
77.40,-4.72,-7.37,-4.72,-7.37,6.00,6.22,5.27,1.28,1.28,2.65
78.17,-4.67,-7.30,-4.67,-7.31,6.00,6.19,5.18,1.33,1.33,2.63
78.95,-4.62,-7.24,-4.62,-7.24,6.00,6.15,5.11,1.38,1.38,2.61
79.74,-4.57,-7.17,-4.57,-7.16,6.00,6.11,5.03,1.43,1.43,2.59
80.54,-4.51,-7.09,-4.51,-7.09,6.00,6.07,4.95,1.49,1.49,2.57
81.35,-4.44,-7.00,-4.44,-6.99,6.00,6.01,4.88,1.56,1.56,2.55
82.16,-4.36,-6.89,-4.36,-6.89,6.00,5.96,4.82,1.64,1.64,2.53
82.98,-4.27,-6.78,-4.28,-6.79,6.00,5.90,4.75,1.73,1.72,2.51
83.81,-4.20,-6.70,-4.20,-6.69,6.00,5.83,4.69,1.80,1.81,2.50
84.65,-4.11,-6.60,-4.12,-6.60,6.01,5.77,4.63,1.90,1.90,2.48
85.50,-4.03,-6.50,-4.04,-6.51,6.02,5.70,4.57,1.99,1.98,2.47
86.35,-3.95,-6.41,-3.95,-6.41,6.02,5.63,4.52,2.07,2.07,2.46
87.22,-3.86,-6.31,-3.86,-6.30,6.01,5.55,4.47,2.15,2.15,2.44
88.09,-3.76,-6.19,-3.76,-6.19,5.99,5.48,4.42,2.23,2.23,2.43
88.97,-3.65,-6.07,-3.66,-6.07,5.95,5.41,4.38,2.30,2.29,2.41
89.86,-3.55,-5.95,-3.55,-5.95,5.89,5.33,4.34,2.34,2.34,2.40
90.76,-3.45,-5.83,-3.45,-5.84,5.82,5.26,4.31,2.37,2.37,2.38
91.66,-3.36,-5.73,-3.36,-5.72,5.73,5.18,4.28,2.37,2.37,2.36
92.58,-3.26,-5.61,-3.26,-5.61,5.63,5.11,4.25,2.37,2.37,2.35
93.51,-3.16,-5.48,-3.17,-5.49,5.51,5.04,4.22,2.35,2.35,2.32
94.44,-3.07,-5.37,-3.07,-5.37,5.39,4.96,4.20,2.31,2.31,2.30
95.39,-2.98,-5.26,-2.98,-5.26,5.26,4.89,4.18,2.27,2.28,2.27
96.34,-2.89,-5.14,-2.89,-5.14,5.13,4.82,4.16,2.24,2.24,2.25
97.30,-2.80,-5.01,-2.80,-5.01,5.00,4.76,4.15,2.20,2.20,2.21
98.28,-2.71,-4.89,-2.71,-4.89,4.88,4.69,4.13,2.17,2.17,2.18
99.26,-2.62,-4.76,-2.62,-4.76,4.76,4.63,4.12,2.14,2.14,2.14
100.25,-2.53,-4.63,-2.53,-4.63,4.64,4.56,4.12,2.11,2.11,2.10
101.25,-2.44,-4.50,-2.45,-4.51,4.53,4.50,4.11,2.08,2.08,2.06
102.27,-2.37,-4.40,-2.38,-4.40,4.42,4.44,4.11,2.05,2.04,2.02
103.29,-2.33,-4.32,-2.33,-4.31,4.32,4.38,4.11,1.98,1.99,1.98
104.32,-2.29,-4.23,-2.28,-4.22,4.22,4.32,4.11,1.93,1.94,1.93
105.37,-2.23,-4.13,-2.24,-4.13,4.12,4.27,4.11,1.89,1.88,1.89
106.42,-2.19,-4.04,-2.20,-4.04,4.04,4.21,4.11,1.84,1.84,1.85
107.48,-2.16,-3.97,-2.15,-3.96,3.95,4.16,4.11,1.79,1.80,1.81
108.56,-2.11,-3.87,-2.11,-3.87,3.87,4.10,4.11,1.75,1.75,1.76
109.64,-2.06,-3.78,-2.07,-3.78,3.79,4.05,4.11,1.72,1.72,1.72
110.74,-2.03,-3.70,-2.03,-3.70,3.71,4.00,4.11,1.67,1.68,1.67
111.85,-1.99,-3.62,-1.99,-3.62,3.63,3.95,4.11,1.64,1.63,1.63
112.97,-1.96,-3.55,-1.96,-3.55,3.55,3.90,4.11,1.59,1.59,1.59
114.10,-1.93,-3.48,-1.93,-3.48,3.48,3.86,4.11,1.55,1.55,1.55
115.24,-1.90,-3.42,-1.91,-3.42,3.42,3.81,4.11,1.51,1.51,1.51
116.39,-1.88,-3.36,-1.88,-3.36,3.35,3.77,4.10,1.47,1.47,1.48
117.55,-1.85,-3.30,-1.85,-3.30,3.30,3.72,4.09,1.44,1.44,1.45
118.73,-1.82,-3.23,-1.82,-3.23,3.24,3.68,4.08,1.42,1.42,1.41
119.92,-1.79,-3.18,-1.80,-3.18,3.19,3.63,4.07,1.40,1.39,1.38
121.12,-1.77,-3.13,-1.78,-3.14,3.14,3.59,4.05,1.37,1.36,1.36
122.33,-1.76,-3.10,-1.76,-3.10,3.09,3.55,4.03,1.33,1.33,1.34
123.55,-1.74,-3.06,-1.74,-3.05,3.05,3.51,4.00,1.31,1.31,1.32
124.79,-1.71,-3.00,-1.71,-3.01,3.01,3.47,3.97,1.29,1.29,1.29
126.03,-1.68,-2.96,-1.69,-2.96,2.97,3.43,3.94,1.28,1.28,1.27
127.29,-1.67,-2.92,-1.67,-2.92,2.93,3.39,3.91,1.25,1.26,1.25
128.57,-1.65,-2.89,-1.65,-2.88,2.88,3.35,3.87,1.23,1.23,1.24
129.85,-1.62,-2.83,-1.63,-2.84,2.84,3.31,3.82,1.21,1.21,1.21
131.15,-1.60,-2.80,-1.60,-2.80,2.79,3.27,3.78,1.19,1.19,1.20
132.46,-1.57,-2.75,-1.57,-2.75,2.74,3.24,3.73,1.17,1.17,1.18
133.79,-1.54,-2.70,-1.54,-2.69,2.69,3.20,3.67,1.15,1.15,1.16
135.12,-1.49,-2.63,-1.50,-2.63,2.64,3.16,3.61,1.15,1.14,1.13
136.48,-1.47,-2.59,-1.47,-2.58,2.58,3.13,3.55,1.11,1.12,1.11
137.84,-1.43,-2.52,-1.44,-2.53,2.53,3.09,3.49,1.10,1.09,1.09
139.22,-1.42,-2.49,-1.42,-2.48,2.48,3.06,3.43,1.06,1.07,1.06
140.61,-1.40,-2.45,-1.40,-2.44,2.44,3.02,3.36,1.04,1.04,1.04
142.02,-1.37,-2.39,-1.38,-2.40,2.40,2.99,3.29,1.03,1.02,1.02
143.44,-1.36,-2.36,-1.37,-2.36,2.36,2.95,3.23,1.00,1.00,1.00
144.87,-1.36,-2.33,-1.36,-2.33,2.33,2.92,3.15,0.97,0.97,0.97
146.32,-1.36,-2.31,-1.36,-2.31,2.31,2.89,3.08,0.95,0.95,0.94
147.78,-1.36,-2.29,-1.37,-2.29,2.29,2.86,3.01,0.92,0.92,0.93
149.26,-1.37,-2.27,-1.37,-2.27,2.27,2.83,2.94,0.90,0.90,0.90
150.75,-1.38,-2.26,-1.38,-2.26,2.26,2.80,2.87,0.87,0.87,0.88
152.26,-1.39,-2.24,-1.40,-2.25,2.25,2.77,2.79,0.86,0.85,0.85
153.78,-1.42,-2.25,-1.41,-2.25,2.24,2.74,2.72,0.82,0.83,0.83
155.32,-1.43,-2.25,-1.43,-2.24,2.25,2.71,2.65,0.81,0.81,0.81
156.88,-1.45,-2.24,-1.46,-2.25,2.25,2.68,2.58,0.80,0.80,0.79
158.44,-1.48,-2.25,-1.49,-2.26,2.26,2.65,2.51,0.78,0.78,0.77
160.03,-1.53,-2.28,-1.53,-2.28,2.28,2.63,2.44,0.75,0.76,0.75
161.63,-1.57,-2.31,-1.57,-2.30,2.30,2.61,2.37,0.73,0.73,0.74
163.24,-1.61,-2.33,-1.62,-2.34,2.33,2.58,2.30,0.72,0.71,0.72
164.88,-1.67,-2.37,-1.67,-2.37,2.37,2.56,2.24,0.69,0.70,0.70
166.53,-1.72,-2.41,-1.72,-2.40,2.40,2.54,2.17,0.68,0.69,0.69
168.19,-1.76,-2.43,-1.77,-2.44,2.45,2.53,2.11,0.68,0.67,0.67
169.87,-1.83,-2.48,-1.83,-2.48,2.49,2.51,2.04,0.66,0.66,0.65
171.57,-1.89,-2.54,-1.89,-2.53,2.53,2.50,1.98,0.64,0.64,0.64
173.29,-1.94,-2.58,-1.95,-2.58,2.58,2.49,1.92,0.64,0.63,0.64
175.02,-2.01,-2.64,-2.00,-2.63,2.63,2.49,1.86,0.61,0.62,0.63
176.77,-2.05,-2.67,-2.05,-2.68,2.68,2.49,1.81,0.62,0.62,0.61
178.54,-2.10,-2.72,-2.10,-2.72,2.72,2.49,1.75,0.62,0.62,0.62
180.32,-2.14,-2.76,-2.15,-2.76,2.77,2.50,1.69,0.63,0.62,0.61
182.13,-2.19,-2.80,-2.20,-2.81,2.81,2.52,1.64,0.62,0.61,0.61
183.95,-2.26,-2.87,-2.25,-2.86,2.85,2.54,1.59,0.59,0.60,0.60
185.79,-2.29,-2.90,-2.29,-2.90,2.89,2.57,1.54,0.59,0.60,0.61
187.65,-2.31,-2.92,-2.32,-2.92,2.92,2.60,1.49,0.61,0.60,0.61
189.52,-2.33,-2.94,-2.33,-2.94,2.95,2.64,1.44,0.61,0.61,0.60
191.42,-2.35,-2.95,-2.36,-2.96,2.97,2.69,1.39,0.62,0.61,0.60
193.33,-2.38,-2.98,-2.38,-2.98,2.98,2.75,1.35,0.60,0.60,0.60
195.27,-2.40,-3.00,-2.40,-3.00,2.99,2.81,1.30,0.59,0.59,0.60
197.22,-2.40,-3.00,-2.40,-3.00,2.99,2.87,1.26,0.59,0.59,0.60
199.19,-2.39,-2.99,-2.40,-2.99,2.99,2.93,1.22,0.59,0.59,0.60
201.18,-2.38,-2.97,-2.38,-2.97,2.97,2.98,1.17,0.59,0.59,0.59
203.19,-2.37,-2.96,-2.37,-2.95,2.95,3.01,1.13,0.58,0.58,0.59
205.23,-2.34,-2.92,-2.34,-2.92,2.92,3.03,1.09,0.58,0.58,0.58
207.28,-2.31,-2.88,-2.31,-2.88,2.88,3.02,1.05,0.57,0.57,0.57
209.35,-2.27,-2.84,-2.27,-2.83,2.84,2.98,1.02,0.56,0.57,0.57
211.44,-2.22,-2.78,-2.22,-2.78,2.78,2.91,0.98,0.56,0.56,0.56
213.56,-2.16,-2.71,-2.16,-2.72,2.72,2.81,0.94,0.56,0.56,0.55
215.69,-2.10,-2.65,-2.10,-2.65,2.65,2.68,0.91,0.55,0.55,0.55
217.85,-2.02,-2.57,-2.03,-2.57,2.57,2.54,0.87,0.54,0.54,0.54
220.03,-1.95,-2.49,-1.95,-2.49,2.47,2.38,0.84,0.52,0.52,0.54
222.23,-1.86,-2.39,-1.86,-2.38,2.37,2.21,0.80,0.51,0.51,0.53
224.45,-1.74,-2.26,-1.74,-2.26,2.26,2.04,0.77,0.52,0.52,0.52
226.70,-1.62,-2.14,-1.62,-2.13,2.14,1.87,0.74,0.52,0.52,0.51
228.96,-1.47,-1.98,-1.49,-2.00,2.01,1.71,0.70,0.54,0.52,0.51
231.25,-1.37,-1.87,-1.37,-1.86,1.88,1.56,0.67,0.50,0.51,0.50
233.57,-1.25,-1.74,-1.24,-1.73,1.73,1.41,0.64,0.48,0.49,0.48
235.90,-1.10,-1.58,-1.11,-1.59,1.58,1.26,0.61,0.48,0.47,0.48
238.26,-0.98,-1.45,-0.97,-1.44,1.43,1.13,0.58,0.44,0.46,0.46
240.64,-0.81,-1.27,-0.83,-1.28,1.27,1.00,0.55,0.45,0.44,0.46
243.05,-0.68,-1.12,-0.67,-1.11,1.10,0.88,0.52,0.42,0.43,0.44
245.48,-0.52,-0.95,-0.51,-0.94,0.94,0.76,0.49,0.42,0.43,0.43
247.93,-0.32,-0.74,-0.35,-0.76,0.78,0.65,0.46,0.45,0.43,0.42
250.41,-0.19,-0.60,-0.18,-0.59,0.61,0.54,0.43,0.42,0.43,0.41
252.92,-0.03,-0.44,-0.04,-0.44,0.45,0.43,0.40,0.42,0.41,0.40
255.45,0.10,-0.29,0.10,-0.29,0.29,0.33,0.37,0.39,0.39,0.39
258.00,0.22,-0.17,0.23,-0.15,0.14,0.23,0.34,0.36,0.37,0.38
260.58,0.39,0.02,0.37,-0.00,-0.01,0.14,0.31,0.38,0.36,0.37
263.19,0.51,0.14,0.52,0.15,-0.16,0.04,0.28,0.35,0.36,0.37
265.82,0.67,0.31,0.66,0.30,-0.30,-0.05,0.25,0.37,0.36,0.36
268.48,0.80,0.45,0.79,0.44,-0.44,-0.14,0.22,0.36,0.35,0.35
271.16,0.91,0.56,0.93,0.58,-0.57,-0.23,0.19,0.33,0.35,0.34
273.87,1.06,0.73,1.05,0.72,-0.71,-0.31,0.16,0.35,0.34,0.33
276.61,1.17,0.85,1.16,0.84,-0.83,-0.40,0.13,0.33,0.33,0.32
279.38,1.27,0.95,1.27,0.95,-0.96,-0.49,0.10,0.31,0.31,0.32
282.17,1.36,1.06,1.36,1.06,-1.08,-0.57,0.07,0.28,0.28,0.30
284.99,1.46,1.17,1.47,1.18,-1.20,-0.65,0.04,0.26,0.27,0.29
287.84,1.59,1.31,1.58,1.30,-1.30,-0.73,0.01,0.28,0.27,0.28
290.72,1.69,1.42,1.69,1.42,-1.41,-0.81,-0.02,0.28,0.28,0.26
293.63,1.78,1.53,1.78,1.52,-1.50,-0.89,-0.05,0.27,0.27,0.25
296.57,1.85,1.61,1.85,1.61,-1.60,-0.97,-0.08,0.25,0.25,0.24
299.53,1.91,1.68,1.91,1.68,-1.68,-1.05,-0.11,0.23,0.23,0.23
302.53,1.97,1.75,1.97,1.75,-1.76,-1.12,-0.15,0.20,0.21,0.21
305.55,2.03,1.83,2.03,1.83,-1.84,-1.20,-0.18,0.19,0.19,0.20
308.61,2.09,1.90,2.09,1.90,-1.91,-1.27,-0.21,0.18,0.18,0.19
311.69,2.15,1.97,2.15,1.97,-1.98,-1.34,-0.24,0.17,0.17,0.18
314.81,2.20,2.03,2.20,2.04,-2.04,-1.41,-0.28,0.16,0.16,0.17
317.96,2.26,2.10,2.26,2.10,-2.10,-1.48,-0.31,0.16,0.15,0.15
321.14,2.31,2.16,2.31,2.16,-2.15,-1.54,-0.35,0.15,0.15,0.15
324.35,2.35,2.21,2.35,2.21,-2.20,-1.61,-0.38,0.15,0.15,0.14
327.59,2.39,2.25,2.38,2.25,-2.23,-1.67,-0.42,0.16,0.15,0.14
330.87,2.40,2.27,2.40,2.27,-2.25,-1.73,-0.45,0.14,0.14,0.13
334.18,2.40,2.27,2.40,2.27,-2.27,-1.79,-0.49,0.13,0.13,0.13
337.52,2.39,2.26,2.39,2.27,-2.28,-1.84,-0.52,0.11,0.11,0.12
340.90,2.38,2.27,2.38,2.26,-2.28,-1.89,-0.56,0.10,0.10,0.11
344.30,2.37,2.26,2.37,2.26,-2.27,-1.94,-0.60,0.10,0.10,0.11
347.75,2.36,2.25,2.36,2.25,-2.25,-1.99,-0.64,0.11,0.11,0.11
351.23,2.35,2.24,2.35,2.24,-2.23,-2.03,-0.68,0.12,0.12,0.11
354.74,2.33,2.22,2.32,2.22,-2.20,-2.07,-0.72,0.13,0.12,0.11
358.28,2.29,2.18,2.29,2.18,-2.17,-2.11,-0.76,0.12,0.12,0.11
361.87,2.24,2.13,2.24,2.14,-2.13,-2.14,-0.80,0.11,0.11,0.11
365.49,2.19,2.08,2.19,2.09,-2.09,-2.18,-0.84,0.10,0.10,0.10
369.14,2.15,2.04,2.15,2.04,-2.05,-2.20,-0.89,0.09,0.09,0.10
372.83,2.11,2.00,2.11,2.00,-2.02,-2.23,-0.93,0.09,0.09,0.11
376.56,2.07,1.96,2.07,1.97,-1.98,-2.25,-0.97,0.08,0.09,0.11
380.33,2.05,1.95,2.05,1.94,-1.95,-2.27,-1.02,0.10,0.10,0.10
384.13,2.03,1.93,2.03,1.93,-1.92,-2.28,-1.06,0.10,0.11,0.10
387.97,2.02,1.92,2.01,1.91,-1.90,-2.29,-1.11,0.12,0.11,0.10
391.85,1.98,1.88,1.98,1.88,-1.87,-2.30,-1.15,0.11,0.11,0.10
395.77,1.94,1.84,1.94,1.84,-1.83,-2.30,-1.20,0.10,0.11,0.10
399.73,1.89,1.80,1.89,1.80,-1.80,-2.30,-1.24,0.09,0.09,0.09
403.72,1.85,1.76,1.84,1.76,-1.76,-2.30,-1.29,0.09,0.08,0.09
407.76,1.80,1.72,1.80,1.72,-1.72,-2.30,-1.33,0.08,0.07,0.07
411.84,1.75,1.67,1.75,1.68,-1.69,-2.29,-1.38,0.06,0.06,0.07
415.96,1.71,1.64,1.71,1.64,-1.65,-2.28,-1.43,0.05,0.05,0.06
420.12,1.67,1.61,1.67,1.62,-1.63,-2.26,-1.47,0.04,0.04,0.05
424.32,1.64,1.61,1.64,1.60,-1.61,-2.25,-1.52,0.03,0.03,0.03
428.56,1.62,1.60,1.62,1.59,-1.59,-2.23,-1.56,0.03,0.03,0.02
432.85,1.60,1.59,1.59,1.59,-1.58,-2.21,-1.60,0.02,0.01,0.01
437.18,1.57,1.58,1.57,1.58,-1.57,-2.19,-1.64,-0.00,-0.00,-0.01
441.55,1.55,1.58,1.55,1.57,-1.57,-2.17,-1.68,-0.02,-0.03,-0.03
445.96,1.53,1.57,1.53,1.57,-1.58,-2.14,-1.72,-0.05,-0.05,-0.04
450.42,1.51,1.57,1.51,1.57,-1.58,-2.11,-1.76,-0.08,-0.07,-0.06
454.93,1.51,1.59,1.51,1.58,-1.59,-2.09,-1.79,-0.09,-0.09,-0.08
459.48,1.51,1.60,1.51,1.60,-1.61,-2.06,-1.83,-0.10,-0.10,-0.09
464.07,1.52,1.63,1.52,1.63,-1.62,-2.03,-1.86,-0.11,-0.11,-0.11
468.71,1.53,1.65,1.52,1.65,-1.64,-1.99,-1.89,-0.11,-0.12,-0.12
473.40,1.53,1.67,1.53,1.67,-1.66,-1.96,-1.91,-0.13,-0.13,-0.14
478.13,1.53,1.68,1.53,1.68,-1.68,-1.93,-1.93,-0.15,-0.15,-0.15
482.91,1.53,1.69,1.53,1.69,-1.70,-1.90,-1.95,-0.17,-0.17,-0.16
487.74,1.53,1.70,1.53,1.70,-1.71,-1.86,-1.97,-0.19,-0.19,-0.17
