frequency,raw
20.00,-2.40
20.20,-2.31
20.40,-2.23
20.61,-2.15
20.81,-2.07
21.02,-1.99
21.23,-1.95
21.44,-1.90
21.66,-1.85
21.87,-1.81
22.09,-1.76
22.31,-1.70
22.54,-1.64
22.76,-1.58
22.99,-1.52
23.22,-1.45
23.45,-1.39
23.69,-1.32
23.92,-1.26
24.16,-1.19
24.40,-1.12
24.65,-1.05
24.89,-0.97
25.14,-0.91
25.39,-0.86
25.65,-0.81
25.91,-0.76
26.16,-0.73
26.43,-0.71
26.69,-0.69
26.96,-0.66
27.23,-0.62
27.50,-0.57
27.77,-0.52
28.05,-0.47
28.33,-0.41
28.62,-0.36
28.90,-0.30
29.19,-0.25
29.48,-0.21
29.78,-0.17
30.08,-0.12
30.38,-0.07
30.68,-0.02
30.99,0.03
31.30,0.09
31.61,0.14
31.93,0.19
32.24,0.24
32.57,0.28
32.89,0.34
33.22,0.35
33.55,0.36
33.89,0.36
34.23,0.42
34.57,0.48
34.92,0.55
35.27,0.58
35.62,0.58
35.97,0.58
36.33,0.61
36.70,0.64
37.06,0.68
37.43,0.75
37.81,0.82
38.19,0.84
38.57,0.85
38.95,0.86
39.34,0.86
39.74,0.86
40.14,0.87
40.54,0.91
40.94,0.94
41.35,1.00
41.76,1.04
42.18,1.06
42.60,1.07
43.03,1.07
43.46,1.12
43.90,1.16
44.33,1.17
44.78,1.17
45.23,1.17
45.68,1.17
46.13,1.17
46.60,1.17
47.06,1.17
47.53,1.21
48.01,1.25
48.49,1.24
48.97,1.23
49.46,1.27
49.96,1.30
50.46,1.29
50.96,1.28
51.47,1.27
51.99,1.26
52.51,1.25
53.03,1.24
53.56,1.23
54.10,1.22
54.64,1.21
55.18,1.22
55.74,1.26
56.29,1.28
56.86,1.27
57.42,1.27
58.00,1.27
58.58,1.27
59.16,1.27
59.76,1.28
60.35,1.29
60.96,1.30
61.57,1.31
62.18,1.33
62.80,1.35
63.43,1.38
64.07,1.41
64.71,1.43
65.35,1.46
66.01,1.48
66.67,1.50
67.33,1.51
68.01,1.53
68.69,1.54
69.37,1.55
70.07,1.57
70.77,1.57
71.48,1.58
72.19,1.59
72.91,1.60
73.64,1.61
74.38,1.63
75.12,1.64
75.87,1.65
76.63,1.67
77.40,1.68
78.17,1.67
78.95,1.63
79.74,1.64
80.54,1.60
81.35,1.58
82.16,1.59
82.98,1.60
83.81,1.61
84.65,1.62
85.50,1.63
86.35,1.64
87.22,1.65
88.09,1.66
88.97,1.67
89.86,1.68
90.76,1.69
91.66,1.70
92.58,1.70
93.51,1.71
94.44,1.71
95.39,1.71
96.34,1.71
97.30,1.70
98.28,1.66
99.26,1.58
100.25,1.51
101.25,1.46
102.27,1.46
103.29,1.46
104.32,1.45
105.37,1.44
106.42,1.42
107.48,1.41
108.56,1.39
109.64,1.38
110.74,1.34
111.85,1.26
112.97,1.25
114.10,1.24
115.24,1.22
116.39,1.16
117.55,1.12
118.73,1.12
119.92,1.10
121.12,1.05
122.33,1.00
123.55,0.98
124.79,0.96
126.03,0.88
127.29,0.85
128.57,0.81
129.85,0.73
131.15,0.72
132.46,0.70
133.79,0.70
135.12,0.68
136.48,0.67
137.84,0.66
139.22,0.66
140.61,0.66
142.02,0.65
143.44,0.65
144.87,0.65
146.32,0.65
147.78,0.66
149.26,0.65
150.75,0.61
152.26,0.62
153.78,0.64
155.32,0.69
156.88,0.82
158.44,0.87
160.03,0.90
161.63,0.93
163.24,0.95
164.88,0.96
166.53,0.97
168.19,0.95
169.87,0.89
171.57,0.75
173.29,0.62
175.02,0.50
176.77,0.43
178.54,0.33
180.32,0.30
182.13,0.27
183.95,0.25
185.79,0.23
187.65,0.23
189.52,0.22
191.42,0.22
193.33,0.23
195.27,0.24
197.22,0.25
199.19,0.25
201.18,0.26
203.19,0.26
205.23,0.26
207.28,0.26
209.35,0.26
211.44,0.21
213.56,0.17
215.69,0.10
217.85,0.10
220.03,0.09
222.23,0.10
224.45,0.10
226.70,0.10
228.96,0.10
231.25,0.03
233.57,0.01
235.90,-0.01
238.26,-0.06
240.64,-0.13
243.05,-0.15
245.48,-0.15
247.93,-0.13
250.41,-0.28
252.92,-0.30
255.45,-0.33
258.00,-0.38
260.58,-0.39
263.19,-0.43
265.82,-0.47
268.48,-0.57
271.16,-0.66
273.87,-0.74
276.61,-0.80
279.38,-0.87
282.17,-0.92
284.99,-1.00
287.84,-1.18
290.72,-1.32
293.63,-1.40
296.57,-1.51
299.53,-1.64
302.53,-1.73
305.55,-1.75
308.61,-1.78
311.69,-1.97
314.81,-2.13
317.96,-2.17
321.14,-2.11
324.35,-2.08
327.59,-1.93
330.87,-2.12
334.18,-2.28
337.52,-2.36
340.90,-2.25
344.30,-2.17
347.75,-2.24
351.23,-2.34
354.74,-2.40
358.28,-2.37
361.87,-2.49
365.49,-2.46
369.14,-2.43
372.83,-2.47
376.56,-2.43
380.33,-2.47
384.13,-2.52
387.97,-2.44
391.85,-2.47
395.77,-2.49
399.73,-2.48
403.72,-2.47
407.76,-2.46
411.84,-2.46
415.96,-2.46
420.12,-2.38
424.32,-2.33
428.56,-2.31
432.85,-2.31
437.18,-2.29
441.55,-2.27
445.96,-2.25
450.42,-2.23
454.93,-2.20
459.48,-2.18
464.07,-2.15
468.71,-2.13
473.40,-2.11
478.13,-2.08
482.91,-2.07
487.74,-2.06
492.62,-2.04
497.55,-2.03
502.52,-2.02
507.55,-2.00
512.62,-1.97
517.75,-1.94
522.93,-1.92
528.16,-1.94
533.44,-1.91
538.77,-1.85
544.16,-1.81
549.60,-1.79
555.10,-1.78
560.65,-1.76
566.25,-1.74
571.92,-1.71
577.64,-1.69
583.41,-1.65
589.25,-1.62
595.14,-1.59
601.09,-1.57
607.10,-1.54
613.17,-1.52
619.30,-1.50
625.50,-1.49
631.75,-1.48
638.07,-1.47
644.45,-1.40
650.89,-1.37
657.40,-1.36
663.98,-1.35
670.62,-1.32
677.32,-1.30
684.10,-1.28
690.94,-1.19
697.85,-1.15
704.83,-1.06
711.87,-1.03
718.99,-1.03
726.18,-1.02
733.44,-1.02
740.78,-0.98
748.19,-0.85
755.67,-0.78
763.23,-0.70
770.86,-0.67
778.57,-0.67
786.35,-0.63
794.22,-0.56
802.16,-0.47
810.18,-0.36
818.28,-0.29
826.46,-0.25
834.73,-0.25
843.08,-0.26
851.51,-0.24
860.02,-0.21
868.62,-0.17
877.31,-0.09
886.08,-0.07
894.94,-0.07
903.89,-0.02
912.93,-0.01
922.06,-0.03
931.28,-0.04
940.59,0.02
950.00,0.05
959.50,0.04
969.09,0.05
978.78,0.07
988.57,0.09
998.46,0.09
1008.44,0.02
1018.53,0.04
1028.71,-0.00
1039.00,-0.05
1049.39,-0.19
1059.88,-0.29
1070.48,-0.31
1081.19,-0.19
1092.00,-0.06
1102.92,-0.03
1113.95,-0.01
1125.09,0.03
1136.34,0.09
1147.70,0.14
1159.18,0.19
1170.77,0.30
1182.48,0.37
1194.30,0.27
1206.25,0.28
1218.31,0.46
1230.49,0.60
1242.80,0.61
1255.22,0.69
1267.78,0.68
1280.45,0.76
1293.26,0.94
1306.19,1.06
1319.25,1.06
1332.45,1.11
1345.77,1.24
1359.23,1.30
1372.82,1.40
1386.55,1.48
1400.41,1.57
1414.42,1.79
1428.56,1.92
1442.85,2.02
1457.28,2.11
1471.85,2.18
1486.57,2.26
1501.43,2.35
1516.45,2.44
1531.61,2.53
1546.93,2.61
1562.40,2.67
1578.02,2.79
1593.80,2.89
1609.74,3.03
1625.84,3.11
1642.10,3.22
1658.52,3.32
1675.10,3.42
1691.85,3.55
1708.77,3.65
1725.86,3.73
1743.12,3.83
1760.55,3.93
1778.15,4.05
1795.94,4.17
1813.90,4.27
1832.03,4.37
1850.36,4.46
1868.86,4.55
1887.55,4.65
1906.42,4.71
1925.49,4.74
1944.74,4.79
1964.19,4.86
1983.83,4.95
2003.67,4.99
2023.71,5.01
2043.94,5.01
2064.38,5.02
2085.03,5.25
2105.88,5.48
2126.94,5.58
2148.20,5.61
2169.69,5.55
2191.38,5.63
2213.30,5.93
2235.43,6.21
2257.78,6.45
2280.36,6.76
2303.17,6.90
2326.20,7.13
2349.46,7.34
2372.95,7.50
2396.68,7.87
2420.65,8.19
2444.86,8.35
2469.31,8.44
2494.00,8.44
2518.94,8.46
2544.13,8.56
2569.57,8.63
2595.27,8.63
2621.22,8.59
2647.43,8.58
2673.90,8.60
2700.64,8.60
2727.65,8.45
2754.93,8.34
2782.48,8.24
2810.30,7.90
2838.40,7.65
2866.79,7.32
2895.46,7.06
2924.41,6.65
2953.65,6.05
2983.19,5.49
3013.02,4.61
3043.15,4.02
3073.58,3.63
3104.32,3.26
3135.36,2.95
3166.72,2.63
3198.38,2.49
3230.37,2.46
3262.67,2.51
3295.30,2.70
3328.25,2.88
3361.53,2.99
3395.15,3.17
3429.10,3.41
3463.39,3.64
3498.03,3.96
3533.01,4.22
3568.34,4.46
3604.02,4.81
3640.06,5.09
3676.46,5.30
3713.22,5.50
3750.36,5.70
3787.86,6.02
3825.74,6.32
3864.00,6.54
3902.64,6.76
3941.66,6.98
3981.08,7.23
4020.89,7.38
4061.10,7.37
4101.71,7.16
4142.73,6.92
4184.15,6.68
4226.00,6.51
4268.26,6.46
4310.94,6.30
4354.05,6.14
4397.59,5.89
4441.56,5.85
4485.98,5.79
4530.84,5.80
4576.15,5.84
4621.91,5.81
4668.13,5.77
4714.81,5.75
4761.96,5.66
4809.58,5.76
4857.67,6.05
4906.25,6.27
4955.31,6.39
5004.87,6.61
5054.91,6.70
5105.46,6.67
5156.52,6.63
5208.08,6.53
5260.16,6.49
5312.77,6.46
5365.89,6.28
5419.55,6.19
5473.75,6.19
5528.49,6.17
5583.77,6.16
5639.61,6.29
5696.00,6.35
5752.96,6.38
5810.49,6.40
5868.60,6.45
5927.28,6.42
5986.56,6.52
6046.42,6.44
6106.89,6.26
6167.96,5.96
6229.64,5.35
6291.93,4.67
6354.85,3.97
6418.40,3.08
6482.58,1.95
6547.41,0.71
6612.88,-0.27
6679.01,-1.36
6745.80,-2.31
6813.26,-3.64
6881.39,-4.61
6950.21,-5.74
7019.71,-6.05
7089.91,-6.15
7160.81,-6.36
7232.41,-6.57
7304.74,-6.37
7377.79,-5.87
7451.56,-5.44
7526.08,-4.83
7601.34,-4.31
7677.35,-3.60
7754.13,-3.14
7831.67,-2.44
7909.98,-1.68
7989.08,-1.44
8068.98,-1.53
8149.67,-1.57
8231.16,-1.48
8313.47,-1.40
8396.61,-1.27
8480.57,-1.34
8565.38,-2.31
8651.03,-3.48
8737.54,-5.07
8824.92,-5.61
8913.17,-5.75
9002.30,-6.28
9092.32,-6.55
9183.25,-6.69
9275.08,-7.29
9367.83,-7.84
9461.51,-8.06
9556.12,-8.00
9651.68,-7.60
9748.20,-7.07
9845.68,-6.41
9944.14,-5.73
10043.58,-5.23
10144.02,-4.74
10245.46,-4.15
10347.91,-3.53
10451.39,-2.68
10555.91,-1.78
10661.46,-1.20
10768.08,-0.96
10875.76,-0.91
10984.52,-1.00
11094.36,-1.56
11205.31,-2.10
11317.36,-2.66
11430.53,-3.27
11544.84,-3.81
11660.29,-4.30
11776.89,-4.64
11894.66,-4.70
12013.60,-5.54
12133.74,-6.57
12255.08,-7.24
12377.63,-8.21
12501.41,-8.90
12626.42,-10.18
12752.68,-11.43
12880.21,-12.92
13009.01,-14.46
13139.10,-14.96
13270.49,-15.11
13403.20,-15.61
13537.23,-16.67
13672.60,-15.86
13809.33,-14.20
13947.42,-12.10
14086.90,-9.53
14227.77,-7.90
14370.04,-6.31
14513.74,-4.67
14658.88,-3.62
14805.47,-3.18
14953.52,-3.00
15103.06,-3.38
15254.09,-4.36
15406.63,-5.14
15560.70,-5.83
15716.30,-6.14
15873.47,-6.42
16032.20,-6.45
16192.52,-6.41
16354.45,-6.10
16517.99,-5.53
16683.17,-5.41
16850.01,-5.59
17018.51,-6.11
17188.69,-7.41
17360.58,-8.98
17534.18,-10.91
17709.53,-12.81
17886.62,-14.68
18065.49,-15.99
18246.14,-17.02
18428.60,-17.76
18612.89,-18.35
18799.02,-18.98
18987.01,-19.34
19176.88,-20.85
19368.65,-23.57
19562.33,-25.85
19757.96,-28.08
19955.54,-30.64
