frequency,raw,error,smoothed,error_smoothed,equalization,parametric_eq,fixed_band_eq,equalized_raw,equalized_smoothed,target
20.00,9.36,10.14,9.36,10.14,-10.15,-9.33,-4.62,-0.78,-0.78,-0.78
20.20,9.36,10.17,9.36,10.17,-10.17,-9.37,-4.74,-0.81,-0.81,-0.81
20.40,9.36,10.19,9.36,10.19,-10.19,-9.41,-4.86,-0.83,-0.83,-0.83
20.61,9.36,10.21,9.36,10.21,-10.21,-9.46,-4.99,-0.85,-0.85,-0.85
20.81,9.36,10.23,9.36,10.23,-10.23,-9.50,-5.12,-0.87,-0.87,-0.87
21.02,9.36,10.25,9.36,10.25,-10.25,-9.56,-5.26,-0.89,-0.89,-0.89
21.23,9.36,10.27,9.36,10.27,-10.27,-9.62,-5.40,-0.91,-0.91,-0.91
21.44,9.36,10.29,9.36,10.29,-10.29,-9.69,-5.54,-0.93,-0.93,-0.93
21.66,9.36,10.31,9.36,10.31,-10.31,-9.76,-5.69,-0.94,-0.94,-0.95
21.87,9.36,10.32,9.36,10.33,-10.33,-9.85,-5.84,-0.96,-0.96,-0.96
22.09,9.36,10.34,9.36,10.34,-10.34,-9.94,-5.99,-0.98,-0.98,-0.98
22.31,9.36,10.35,9.37,10.35,-10.36,-10.05,-6.15,-1.00,-0.99,-0.99
22.54,9.37,10.37,9.37,10.37,-10.38,-10.16,-6.31,-1.00,-1.00,-1.00
22.76,9.37,10.38,9.38,10.39,-10.39,-10.29,-6.48,-1.02,-1.01,-1.01
22.99,9.38,10.40,9.38,10.40,-10.40,-10.42,-6.65,-1.02,-1.02,-1.02
23.22,9.38,10.41,9.38,10.41,-10.41,-10.56,-6.83,-1.03,-1.03,-1.03
23.45,9.38,10.42,9.38,10.42,-10.41,-10.70,-7.01,-1.03,-1.03,-1.04
23.69,9.37,10.42,9.38,10.42,-10.41,-10.84,-7.19,-1.04,-1.04,-1.05
23.92,9.36,10.41,9.36,10.41,-10.41,-10.97,-7.38,-1.04,-1.04,-1.05
24.16,9.34,10.40,9.34,10.40,-10.39,-11.06,-7.57,-1.05,-1.05,-1.06
24.40,9.31,10.37,9.32,10.38,-10.38,-11.15,-7.77,-1.06,-1.06,-1.06
24.65,9.28,10.35,9.29,10.35,-10.36,-11.17,-7.97,-1.07,-1.07,-1.07
24.89,9.26,10.33,9.26,10.33,-10.33,-11.19,-8.17,-1.07,-1.07,-1.07
25.14,9.23,10.31,9.23,10.31,-10.31,-11.14,-8.38,-1.08,-1.08,-1.08
25.39,9.19,10.28,9.20,10.28,-10.29,-11.08,-8.59,-1.09,-1.09,-1.09
25.65,9.16,10.25,9.17,10.26,-10.26,-10.97,-8.81,-1.10,-1.10,-1.09
25.91,9.14,10.24,9.14,10.24,-10.24,-10.86,-9.02,-1.10,-1.10,-1.10
26.16,9.12,10.22,9.12,10.22,-10.22,-10.74,-9.24,-1.10,-1.10,-1.10
26.43,9.10,10.20,9.10,10.21,-10.20,-10.61,-9.46,-1.10,-1.10,-1.10
26.69,9.08,10.19,9.08,10.19,-10.19,-10.49,-9.68,-1.10,-1.10,-1.11
26.96,9.06,10.17,9.06,10.17,-10.17,-10.37,-9.90,-1.11,-1.11,-1.11
27.23,9.03,10.15,9.04,10.15,-10.15,-10.27,-10.11,-1.12,-1.12,-1.12
27.50,9.01,10.13,9.02,10.13,-10.13,-10.17,-10.33,-1.12,-1.12,-1.12
27.77,8.99,10.11,8.99,10.12,-10.12,-10.09,-10.54,-1.12,-1.12,-1.12
28.05,8.97,10.10,8.97,10.10,-10.09,-10.01,-10.74,-1.12,-1.12,-1.13
28.33,8.94,10.07,8.95,10.08,-10.07,-9.95,-10.94,-1.13,-1.13,-1.13
28.62,8.92,10.05,8.92,10.05,-10.05,-9.89,-11.13,-1.13,-1.13,-1.13
28.90,8.89,10.03,8.89,10.03,-10.03,-9.85,-11.30,-1.14,-1.13,-1.14
29.19,8.86,10.00,8.87,10.01,-10.01,-9.80,-11.47,-1.14,-1.14,-1.14
29.48,8.84,9.98,8.84,9.98,-9.98,-9.77,-11.62,-1.14,-1.14,-1.14
29.78,8.81,9.95,8.82,9.96,-9.96,-9.74,-11.76,-1.14,-1.14,-1.14
30.08,8.79,9.93,8.79,9.94,-9.93,-9.72,-11.87,-1.14,-1.14,-1.14
30.38,8.77,9.92,8.77,9.91,-9.91,-9.71,-11.97,-1.14,-1.14,-1.15
30.68,8.74,9.89,8.74,9.89,-9.89,-9.69,-12.04,-1.14,-1.14,-1.15
30.99,8.71,9.86,8.72,9.87,-9.87,-9.68,-12.11,-1.15,-1.15,-1.15
31.30,8.69,9.84,8.69,9.84,-9.85,-9.67,-12.14,-1.15,-1.16,-1.15
31.61,8.66,9.82,8.67,9.82,-9.83,-9.67,-12.16,-1.17,-1.16,-1.16
31.93,8.64,9.80,8.64,9.80,-9.81,-9.66,-12.14,-1.17,-1.17,-1.16
32.24,8.62,9.78,8.63,9.79,-9.79,-9.66,-12.12,-1.17,-1.17,-1.16
32.57,8.61,9.78,8.61,9.78,-9.77,-9.65,-12.06,-1.16,-1.16,-1.17
32.89,8.59,9.76,8.59,9.76,-9.75,-9.65,-12.00,-1.16,-1.16,-1.17
33.22,8.56,9.73,8.56,9.74,-9.72,-9.64,-11.91,-1.16,-1.16,-1.17
33.55,8.52,9.70,8.53,9.70,-9.69,-9.63,-11.81,-1.17,-1.17,-1.18
33.89,8.48,9.66,8.48,9.66,-9.66,-9.62,-11.70,-1.17,-1.18,-1.18
34.23,8.43,9.61,8.43,9.62,-9.62,-9.61,-11.58,-1.18,-1.18,-1.18
34.57,8.38,9.57,8.39,9.57,-9.58,-9.59,-11.44,-1.20,-1.19,-1.19
34.92,8.34,9.53,8.34,9.53,-9.54,-9.57,-11.30,-1.20,-1.20,-1.19
35.27,8.30,9.49,8.30,9.50,-9.50,-9.55,-11.15,-1.20,-1.20,-1.19
35.62,8.26,9.46,8.27,9.46,-9.47,-9.52,-11.00,-1.20,-1.20,-1.20
35.97,8.23,9.43,8.23,9.43,-9.43,-9.50,-10.84,-1.20,-1.20,-1.20
36.33,8.20,9.40,8.20,9.40,-9.40,-9.46,-10.69,-1.20,-1.20,-1.20
36.70,8.17,9.37,8.17,9.37,-9.37,-9.43,-10.53,-1.19,-1.19,-1.20
37.06,8.14,9.34,8.14,9.34,-9.33,-9.40,-10.37,-1.19,-1.19,-1.20
37.43,8.10,9.31,8.10,9.31,-9.30,-9.36,-10.22,-1.20,-1.20,-1.21
37.81,8.06,9.27,8.06,9.27,-9.27,-9.32,-10.06,-1.20,-1.21,-1.21
38.19,8.01,9.22,8.02,9.23,-9.24,-9.28,-9.91,-1.22,-1.22,-1.21
38.57,7.97,9.19,7.98,9.19,-9.21,-9.24,-9.77,-1.23,-1.23,-1.22
38.95,7.94,9.16,7.94,9.17,-9.18,-9.20,-9.63,-1.24,-1.24,-1.22
39.34,7.92,9.15,7.92,9.15,-9.15,-9.16,-9.49,-1.23,-1.23,-1.23
39.74,7.89,9.12,7.90,9.13,-9.12,-9.12,-9.36,-1.23,-1.23,-1.23
40.14,7.87,9.11,7.87,9.11,-9.09,-9.08,-9.23,-1.22,-1.22,-1.24
40.54,7.84,9.08,7.84,9.08,-9.06,-9.04,-9.11,-1.22,-1.22,-1.24
40.94,7.80,9.04,7.80,9.04,-9.03,-9.00,-8.99,-1.23,-1.23,-1.24
41.35,7.75,8.99,7.76,9.00,-9.00,-8.96,-8.88,-1.24,-1.24,-1.24
41.76,7.71,8.95,7.71,8.95,-8.96,-8.92,-8.77,-1.25,-1.25,-1.24
42.18,7.67,8.91,7.67,8.91,-8.92,-8.88,-8.67,-1.25,-1.25,-1.24
42.60,7.63,8.87,7.64,8.87,-8.88,-8.84,-8.58,-1.25,-1.25,-1.24
43.03,7.61,8.84,7.61,8.84,-8.85,-8.80,-8.49,-1.24,-1.24,-1.23
43.46,7.58,8.81,7.59,8.81,-8.81,-8.76,-8.41,-1.23,-1.23,-1.23
43.90,7.56,8.79,7.56,8.79,-8.78,-8.73,-8.34,-1.22,-1.22,-1.23
44.33,7.52,8.75,7.53,8.76,-8.75,-8.69,-8.27,-1.23,-1.22,-1.23
44.78,7.49,8.72,7.49,8.72,-8.72,-8.65,-8.21,-1.22,-1.22,-1.23
45.23,7.45,8.68,7.45,8.68,-8.68,-8.62,-8.15,-1.23,-1.23,-1.23
45.68,7.41,8.64,7.42,8.65,-8.65,-8.58,-8.10,-1.23,-1.23,-1.23
46.13,7.37,8.60,7.38,8.60,-8.61,-8.54,-8.05,-1.23,-1.23,-1.23
46.60,7.34,8.57,7.34,8.57,-8.57,-8.51,-8.01,-1.23,-1.23,-1.23
47.06,7.29,8.52,7.30,8.53,-8.53,-8.47,-7.98,-1.24,-1.23,-1.23
47.53,7.25,8.49,7.26,8.49,-8.49,-8.43,-7.95,-1.24,-1.24,-1.24
48.01,7.21,8.45,7.21,8.45,-8.45,-8.40,-7.93,-1.24,-1.24,-1.24
48.49,7.17,8.41,7.17,8.41,-8.41,-8.36,-7.91,-1.24,-1.24,-1.24
48.97,7.13,8.37,7.13,8.37,-8.37,-8.32,-7.89,-1.23,-1.23,-1.24
49.46,7.08,8.32,7.09,8.33,-8.32,-8.28,-7.88,-1.24,-1.23,-1.24
49.96,7.04,8.28,7.04,8.28,-8.27,-8.25,-7.87,-1.23,-1.24,-1.24
50.46,6.98,8.22,6.99,8.22,-8.23,-8.21,-7.87,-1.24,-1.24,-1.24
50.96,6.93,8.17,6.94,8.17,-8.18,-8.17,-7.87,-1.24,-1.24,-1.24
51.47,6.88,8.11,6.89,8.12,-8.13,-8.13,-7.88,-1.24,-1.24,-1.23
51.99,6.84,8.07,6.84,8.07,-8.08,-8.09,-7.88,-1.23,-1.23,-1.23
52.51,6.79,8.02,6.80,8.03,-8.02,-8.04,-7.89,-1.23,-1.22,-1.23
53.03,6.75,7.98,6.75,7.98,-7.97,-8.00,-7.90,-1.22,-1.22,-1.23
53.56,6.70,7.93,6.70,7.92,-7.92,-7.96,-7.92,-1.21,-1.22,-1.23
54.10,6.64,7.86,6.64,7.86,-7.86,-7.91,-7.93,-1.22,-1.22,-1.22
54.64,6.57,7.79,6.58,7.80,-7.81,-7.87,-7.94,-1.24,-1.23,-1.22
55.18,6.52,7.74,6.52,7.74,-7.75,-7.82,-7.95,-1.23,-1.23,-1.22
55.74,6.47,7.69,6.48,7.69,-7.70,-7.77,-7.96,-1.22,-1.22,-1.22
56.29,6.43,7.64,6.43,7.64,-7.64,-7.72,-7.97,-1.20,-1.21,-1.21
56.86,6.38,7.59,6.38,7.59,-7.58,-7.67,-7.98,-1.19,-1.19,-1.21
57.42,6.32,7.53,6.32,7.53,-7.52,-7.62,-7.98,-1.19,-1.19,-1.21
58.00,6.26,7.46,6.26,7.46,-7.46,-7.57,-7.98,-1.20,-1.20,-1.20
58.58,6.19,7.39,6.20,7.39,-7.40,-7.52,-7.98,-1.21,-1.21,-1.20
59.16,6.13,7.33,6.14,7.33,-7.35,-7.46,-7.97,-1.22,-1.21,-1.20
59.76,6.09,7.28,6.09,7.28,-7.30,-7.41,-7.95,-1.20,-1.20,-1.19
60.35,6.05,7.24,6.05,7.24,-7.25,-7.35,-7.93,-1.19,-1.19,-1.19
60.96,6.01,7.20,6.01,7.20,-7.20,-7.29,-7.91,-1.19,-1.19,-1.19
61.57,5.97,7.16,5.97,7.16,-7.16,-7.23,-7.87,-1.18,-1.19,-1.19
62.18,5.92,7.11,5.93,7.12,-7.12,-7.17,-7.83,-1.19,-1.19,-1.19
62.80,5.88,7.07,5.89,7.07,-7.07,-7.11,-7.79,-1.19,-1.19,-1.19
63.43,5.84,7.03,5.84,7.03,-7.03,-7.05,-7.73,-1.18,-1.18,-1.19
64.07,5.80,6.99,5.80,6.99,-6.98,-6.99,-7.67,-1.18,-1.18,-1.19
64.71,5.75,6.94,5.75,6.94,-6.93,-6.93,-7.60,-1.18,-1.18,-1.19
65.35,5.69,6.88,5.69,6.88,-6.88,-6.86,-7.53,-1.19,-1.19,-1.19
66.01,5.63,6.82,5.63,6.82,-6.83,-6.80,-7.45,-1.20,-1.20,-1.19
66.67,5.57,6.76,5.58,6.77,-6.78,-6.74,-7.36,-1.21,-1.20,-1.19
67.33,5.53,6.72,5.53,6.72,-6.73,-6.67,-7.27,-1.19,-1.20,-1.19
68.01,5.48,6.67,5.48,6.67,-6.67,-6.61,-7.17,-1.19,-1.19,-1.19
68.69,5.43,6.62,5.44,6.62,-6.62,-6.55,-7.07,-1.18,-1.18,-1.19
69.37,5.38,6.57,5.38,6.57,-6.56,-6.48,-6.97,-1.18,-1.18,-1.19
70.07,5.32,6.51,5.33,6.51,-6.50,-6.42,-6.86,-1.18,-1.18,-1.19
70.77,5.26,6.45,5.27,6.45,-6.44,-6.36,-6.75,-1.18,-1.18,-1.19
71.48,5.20,6.38,5.20,6.38,-6.38,-6.30,-6.63,-1.18,-1.18,-1.18
72.19,5.13,6.31,5.13,6.31,-6.32,-6.24,-6.52,-1.19,-1.19,-1.18
72.91,5.06,6.24,5.07,6.24,-6.25,-6.18,-6.40,-1.19,-1.19,-1.18
73.64,5.00,6.18,5.01,6.18,-6.19,-6.12,-6.29,-1.18,-1.18,-1.18
74.38,4.95,6.12,4.95,6.12,-6.12,-6.06,-6.17,-1.17,-1.17,-1.17
75.12,4.90,6.07,4.90,6.06,-6.06,-6.01,-6.06,-1.16,-1.16,-1.17
75.87,4.83,5.99,4.84,6.00,-6.00,-5.95,-5.94,-1.16,-1.16,-1.16
76.63,4.77,5.93,4.78,5.93,-5.93,-5.90,-5.83,-1.16,-1.16,-1.16
77.40,4.71,5.87,4.72,5.87,-5.87,-5.85,-5.72,-1.16,-1.16,-1.16
78.17,4.66,5.81,4.66,5.81,-5.81,-5.80,-5.61,-1.15,-1.15,-1.15
78.95,4.60,5.75,4.60,5.75,-5.75,-5.75,-5.50,-1.14,-1.14,-1.15
79.74,4.54,5.69,4.54,5.69,-5.69,-5.70,-5.39,-1.14,-1.14,-1.15
80.54,4.48,5.62,4.48,5.62,-5.63,-5.65,-5.29,-1.14,-1.14,-1.14
81.35,4.42,5.56,4.42,5.56,-5.57,-5.60,-5.19,-1.14,-1.15,-1.14
82.16,4.36,5.50,4.37,5.51,-5.51,-5.55,-5.09,-1.15,-1.14,-1.14
82.98,4.31,5.45,4.32,5.45,-5.46,-5.50,-5.00,-1.14,-1.14,-1.14
83.81,4.27,5.41,4.27,5.40,-5.40,-5.45,-4.90,-1.13,-1.13,-1.14
84.65,4.21,5.34,4.22,5.35,-5.35,-5.40,-4.82,-1.13,-1.13,-1.13
85.50,4.16,5.29,4.17,5.29,-5.29,-5.35,-4.73,-1.13,-1.12,-1.13
86.35,4.11,5.24,4.11,5.24,-5.23,-5.30,-4.65,-1.12,-1.12,-1.13
87.22,4.05,5.18,4.05,5.18,-5.18,-5.25,-4.57,-1.12,-1.12,-1.13
88.09,3.99,5.12,3.99,5.12,-5.12,-5.20,-4.49,-1.13,-1.13,-1.13
88.97,3.93,5.06,3.93,5.06,-5.07,-5.15,-4.42,-1.13,-1.13,-1.13
89.86,3.87,5.00,3.88,5.00,-5.01,-5.09,-4.35,-1.14,-1.14,-1.13
90.76,3.82,4.95,3.82,4.95,-4.96,-5.04,-4.28,-1.13,-1.13,-1.13
91.66,3.77,4.90,3.78,4.90,-4.90,-4.99,-4.22,-1.13,-1.13,-1.13
92.58,3.73,4.86,3.73,4.86,-4.85,-4.93,-4.16,-1.12,-1.13,-1.13
93.51,3.67,4.80,3.68,4.80,-4.80,-4.88,-4.10,-1.13,-1.13,-1.13
94.44,3.62,4.75,3.63,4.76,-4.75,-4.82,-4.05,-1.13,-1.13,-1.13
95.39,3.57,4.70,3.58,4.70,-4.70,-4.76,-4.00,-1.13,-1.13,-1.13
96.34,3.53,4.66,3.53,4.66,-4.66,-4.70,-3.95,-1.12,-1.13,-1.13
97.30,3.48,4.60,3.48,4.60,-4.61,-4.64,-3.90,-1.12,-1.12,-1.12
98.28,3.43,4.55,3.44,4.55,-4.56,-4.58,-3.86,-1.12,-1.12,-1.12
99.26,3.38,4.50,3.39,4.51,-4.51,-4.52,-3.82,-1.12,-1.12,-1.12
100.25,3.34,4.46,3.34,4.46,-4.46,-4.46,-3.78,-1.11,-1.12,-1.12
101.25,3.29,4.41,3.29,4.41,-4.41,-4.40,-3.74,-1.11,-1.11,-1.12
102.27,3.23,4.35,3.24,4.36,-4.35,-4.33,-3.71,-1.12,-1.11,-1.12
103.29,3.18,4.30,3.18,4.30,-4.29,-4.27,-3.68,-1.11,-1.11,-1.12
104.32,3.12,4.23,3.12,4.24,-4.23,-4.21,-3.65,-1.11,-1.11,-1.11
105.37,3.06,4.17,3.07,4.17,-4.17,-4.14,-3.62,-1.11,-1.11,-1.11
106.42,3.00,4.11,3.00,4.11,-4.11,-4.08,-3.59,-1.11,-1.11,-1.11
107.48,2.94,4.04,2.94,4.04,-4.04,-4.01,-3.56,-1.10,-1.10,-1.10
108.56,2.87,3.97,2.88,3.98,-3.98,-3.95,-3.53,-1.11,-1.10,-1.10
109.64,2.81,3.91,2.81,3.91,-3.92,-3.88,-3.51,-1.10,-1.10,-1.10
110.74,2.75,3.85,2.75,3.85,-3.85,-3.82,-3.48,-1.10,-1.10,-1.10
111.85,2.69,3.79,2.70,3.79,-3.79,-3.75,-3.46,-1.10,-1.09,-1.10
112.97,2.64,3.73,2.64,3.73,-3.73,-3.69,-3.43,-1.08,-1.09,-1.09
114.10,2.58,3.67,2.58,3.67,-3.67,-3.62,-3.40,-1.08,-1.09,-1.09
115.24,2.51,3.60,2.52,3.60,-3.61,-3.56,-3.38,-1.09,-1.09,-1.09
116.39,2.45,3.54,2.46,3.54,-3.55,-3.49,-3.35,-1.09,-1.09,-1.09
117.55,2.40,3.48,2.40,3.48,-3.49,-3.43,-3.32,-1.08,-1.09,-1.08
118.73,2.35,3.43,2.35,3.43,-3.43,-3.36,-3.29,-1.07,-1.08,-1.08
119.92,2.29,3.37,2.29,3.37,-3.37,-3.30,-3.26,-1.07,-1.07,-1.08
121.12,2.23,3.31,2.23,3.31,-3.31,-3.23,-3.23,-1.07,-1.07,-1.08
122.33,2.17,3.24,2.17,3.25,-3.25,-3.17,-3.19,-1.07,-1.07,-1.07
123.55,2.11,3.18,2.12,3.18,-3.18,-3.11,-3.16,-1.07,-1.07,-1.07
124.79,2.06,3.12,2.06,3.12,-3.12,-3.04,-3.12,-1.06,-1.06,-1.06
126.03,2.00,3.06,2.00,3.06,-3.06,-2.98,-3.08,-1.05,-1.05,-1.06
127.29,1.94,2.99,1.94,2.99,-2.99,-2.92,-3.04,-1.05,-1.05,-1.05
128.57,1.87,2.92,1.88,2.93,-2.93,-2.86,-2.99,-1.06,-1.05,-1.05
129.85,1.81,2.86,1.81,2.86,-2.87,-2.80,-2.95,-1.05,-1.05,-1.05
131.15,1.75,2.80,1.76,2.80,-2.80,-2.74,-2.90,-1.05,-1.05,-1.05
132.46,1.70,2.74,1.70,2.74,-2.74,-2.68,-2.85,-1.04,-1.04,-1.04
133.79,1.64,2.68,1.64,2.68,-2.68,-2.62,-2.80,-1.03,-1.04,-1.04
135.12,1.58,2.62,1.58,2.62,-2.62,-2.56,-2.75,-1.04,-1.04,-1.04
136.48,1.51,2.55,1.52,2.56,-2.56,-2.50,-2.70,-1.05,-1.04,-1.04
137.84,1.45,2.49,1.46,2.50,-2.50,-2.45,-2.64,-1.05,-1.04,-1.04
139.22,1.40,2.44,1.40,2.44,-2.44,-2.39,-2.58,-1.04,-1.04,-1.04
140.61,1.35,2.39,1.35,2.39,-2.39,-2.34,-2.53,-1.03,-1.03,-1.04
142.02,1.30,2.33,1.30,2.33,-2.33,-2.28,-2.47,-1.02,-1.03,-1.03
143.44,1.24,2.27,1.24,2.27,-2.27,-2.23,-2.41,-1.03,-1.03,-1.03
144.87,1.18,2.21,1.19,2.21,-2.21,-2.17,-2.35,-1.03,-1.03,-1.03
146.32,1.13,2.15,1.13,2.15,-2.15,-2.12,-2.29,-1.02,-1.02,-1.02
147.78,1.07,2.09,1.08,2.10,-2.10,-2.07,-2.23,-1.02,-1.02,-1.02
149.26,1.02,2.04,1.02,2.04,-2.04,-2.01,-2.17,-1.01,-1.01,-1.02
150.75,0.96,1.97,0.96,1.98,-1.97,-1.96,-2.11,-1.01,-1.01,-1.01
152.26,0.90,1.91,0.91,1.91,-1.91,-1.91,-2.05,-1.01,-1.01,-1.01
153.78,0.84,1.85,0.85,1.85,-1.85,-1.86,-1.99,-1.01,-1.00,-1.01
155.32,0.79,1.79,0.79,1.79,-1.79,-1.81,-1.94,-0.99,-1.00,-1.00
156.88,0.73,1.73,0.73,1.73,-1.72,-1.76,-1.88,-0.99,-0.99,-1.00
158.44,0.66,1.66,0.67,1.66,-1.67,-1.71,-1.82,-1.00,-1.00,-1.00
160.03,0.60,1.60,0.60,1.60,-1.61,-1.66,-1.76,-1.01,-1.01,-1.00
161.63,0.54,1.54,0.55,1.54,-1.56,-1.61,-1.70,-1.01,-1.01,-1.00
163.24,0.50,1.49,0.51,1.50,-1.51,-1.56,-1.65,-1.00,-1.00,-0.99
164.88,0.47,1.46,0.47,1.46,-1.46,-1.51,-1.59,-0.98,-0.99,-0.99
166.53,0.43,1.42,0.43,1.42,-1.41,-1.47,-1.54,-0.98,-0.98,-0.99
168.19,0.39,1.38,0.39,1.38,-1.37,-1.42,-1.48,-0.98,-0.98,-0.99
169.87,0.35,1.33,0.35,1.34,-1.33,-1.37,-1.43,-0.98,-0.98,-0.98
171.57,0.31,1.29,0.32,1.30,-1.29,-1.33,-1.38,-0.98,-0.98,-0.98
173.29,0.28,1.26,0.28,1.26,-1.26,-1.28,-1.33,-0.97,-0.98,-0.98
175.02,0.24,1.22,0.25,1.22,-1.22,-1.24,-1.28,-0.97,-0.97,-0.98
176.77,0.21,1.18,0.21,1.18,-1.18,-1.19,-1.23,-0.97,-0.97,-0.97
178.54,0.17,1.14,0.18,1.14,-1.15,-1.15,-1.18,-0.97,-0.97,-0.97
180.32,0.14,1.11,0.14,1.11,-1.12,-1.10,-1.13,-0.97,-0.97,-0.97
182.13,0.11,1.08,0.12,1.08,-1.09,-1.06,-1.08,-0.98,-0.97,-0.97
183.95,0.09,1.06,0.09,1.06,-1.06,-1.02,-1.04,-0.97,-0.97,-0.97
185.79,0.07,1.04,0.07,1.04,-1.04,-0.98,-0.99,-0.97,-0.97,-0.97
187.65,0.05,1.02,0.05,1.02,-1.02,-0.94,-0.95,-0.96,-0.96,-0.97
189.52,0.03,1.00,0.03,1.00,-1.00,-0.90,-0.90,-0.96,-0.96,-0.97
191.42,0.01,0.98,0.01,0.98,-0.98,-0.86,-0.86,-0.96,-0.96,-0.97
193.33,-0.02,0.95,-0.01,0.95,-0.96,-0.82,-0.82,-0.97,-0.97,-0.97
195.27,-0.04,0.93,-0.04,0.93,-0.94,-0.78,-0.77,-0.97,-0.98,-0.97
197.22,-0.07,0.90,-0.06,0.91,-0.92,-0.74,-0.73,-0.98,-0.98,-0.97
199.19,-0.08,0.89,-0.08,0.89,-0.90,-0.70,-0.69,-0.97,-0.97,-0.97
201.18,-0.10,0.86,-0.09,0.87,-0.87,-0.67,-0.65,-0.97,-0.96,-0.96
203.19,-0.10,0.86,-0.10,0.85,-0.85,-0.63,-0.61,-0.94,-0.95,-0.96
205.23,-0.12,0.83,-0.12,0.83,-0.82,-0.60,-0.58,-0.93,-0.94,-0.95
207.28,-0.16,0.79,-0.15,0.80,-0.78,-0.56,-0.54,-0.94,-0.94,-0.95
209.35,-0.20,0.75,-0.20,0.75,-0.74,-0.53,-0.50,-0.94,-0.94,-0.95
211.44,-0.25,0.69,-0.25,0.70,-0.70,-0.50,-0.46,-0.95,-0.95,-0.94
213.56,-0.30,0.64,-0.29,0.65,-0.65,-0.46,-0.43,-0.95,-0.95,-0.94
215.69,-0.34,0.60,-0.34,0.60,-0.60,-0.43,-0.39,-0.94,-0.94,-0.94
217.85,-0.39,0.55,-0.39,0.55,-0.55,-0.40,-0.36,-0.93,-0.93,-0.94
220.03,-0.44,0.49,-0.44,0.50,-0.49,-0.37,-0.33,-0.93,-0.93,-0.93
222.23,-0.49,0.44,-0.49,0.44,-0.44,-0.34,-0.29,-0.92,-0.93,-0.93
224.45,-0.55,0.38,-0.54,0.38,-0.38,-0.31,-0.26,-0.93,-0.93,-0.93
226.70,-0.60,0.33,-0.60,0.33,-0.33,-0.28,-0.23,-0.92,-0.93,-0.93
228.96,-0.66,0.26,-0.65,0.27,-0.27,-0.25,-0.20,-0.93,-0.92,-0.92
231.25,-0.70,0.22,-0.70,0.22,-0.22,-0.23,-0.17,-0.91,-0.92,-0.92
233.57,-0.75,0.17,-0.75,0.17,-0.17,-0.20,-0.14,-0.91,-0.91,-0.92
235.90,-0.80,0.11,-0.79,0.12,-0.12,-0.17,-0.11,-0.91,-0.91,-0.91
238.26,-0.84,0.07,-0.84,0.07,-0.07,-0.14,-0.08,-0.91,-0.91,-0.91
240.64,-0.88,0.02,-0.88,0.02,-0.03,-0.12,-0.06,-0.91,-0.91,-0.90
243.05,-0.91,-0.02,-0.91,-0.02,0.01,-0.09,-0.03,-0.90,-0.90,-0.89
245.48,-0.94,-0.06,-0.93,-0.05,0.04,-0.06,-0.01,-0.90,-0.89,-0.88
247.93,-0.95,-0.07,-0.95,-0.07,0.07,-0.04,0.02,-0.87,-0.87,-0.88
250.41,-0.96,-0.09,-0.96,-0.09,0.10,-0.01,0.04,-0.85,-0.86,-0.87
252.92,-0.98,-0.12,-0.98,-0.12,0.13,0.01,0.06,-0.84,-0.85,-0.86
255.45,-1.01,-0.16,-1.01,-0.15,0.16,0.04,0.09,-0.85,-0.85,-0.85
258.00,-1.04,-0.19,-1.04,-0.19,0.19,0.06,0.11,-0.85,-0.85,-0.85
260.58,-1.07,-0.23,-1.06,-0.22,0.21,0.09,0.13,-0.85,-0.85,-0.84
263.19,-1.09,-0.25,-1.09,-0.25,0.24,0.11,0.15,-0.84,-0.84,-0.84
265.82,-1.11,-0.27,-1.11,-0.27,0.27,0.13,0.17,-0.83,-0.83,-0.84
268.48,-1.13,-0.30,-1.13,-0.30,0.30,0.16,0.19,-0.82,-0.83,-0.83
271.16,-1.16,-0.33,-1.16,-0.33,0.33,0.18,0.20,-0.82,-0.82,-0.83
273.87,-1.19,-0.36,-1.19,-0.36,0.36,0.21,0.22,-0.83,-0.82,-0.83
276.61,-1.22,-0.40,-1.21,-0.39,0.39,0.23,0.24,-0.83,-0.83,-0.82
279.38,-1.24,-0.42,-1.24,-0.42,0.42,0.25,0.26,-0.82,-0.82,-0.82
282.17,-1.26,-0.45,-1.26,-0.45,0.44,0.28,0.27,-0.81,-0.81,-0.81
284.99,-1.28,-0.47,-1.28,-0.47,0.47,0.30,0.29,-0.81,-0.81,-0.81
287.84,-1.31,-0.50,-1.30,-0.49,0.50,0.33,0.31,-0.81,-0.81,-0.81
290.72,-1.33,-0.52,-1.33,-0.52,0.52,0.35,0.33,-0.81,-0.81,-0.81
293.63,-1.35,-0.54,-1.35,-0.54,0.54,0.37,0.34,-0.80,-0.81,-0.81
296.57,-1.38,-0.57,-1.37,-0.57,0.57,0.40,0.36,-0.81,-0.81,-0.81
299.53,-1.40,-0.60,-1.40,-0.59,0.59,0.42,0.38,-0.81,-0.81,-0.80
302.53,-1.42,-0.62,-1.42,-0.62,0.62,0.45,0.39,-0.80,-0.80,-0.80
305.55,-1.44,-0.64,-1.44,-0.64,0.64,0.47,0.41,-0.79,-0.79,-0.80
308.61,-1.46,-0.67,-1.46,-0.67,0.67,0.50,0.43,-0.78,-0.78,-0.79
311.69,-1.49,-0.70,-1.49,-0.70,0.71,0.52,0.45,-0.78,-0.78,-0.79
314.81,-1.52,-0.74,-1.52,-0.73,0.74,0.55,0.46,-0.78,-0.78,-0.78
317.96,-1.55,-0.77,-1.55,-0.77,0.77,0.57,0.48,-0.78,-0.78,-0.78
321.14,-1.58,-0.81,-1.58,-0.80,0.80,0.60,0.50,-0.77,-0.77,-0.77
324.35,-1.61,-0.84,-1.60,-0.83,0.84,0.62,0.52,-0.77,-0.77,-0.77
327.59,-1.63,-0.86,-1.63,-0.86,0.86,0.65,0.54,-0.76,-0.76,-0.77
330.87,-1.65,-0.89,-1.65,-0.89,0.89,0.67,0.56,-0.76,-0.76,-0.76
334.18,-1.67,-0.92,-1.66,-0.91,0.91,0.70,0.59,-0.76,-0.76,-0.75
337.52,-1.68,-0.93,-1.68,-0.93,0.92,0.72,0.61,-0.76,-0.76,-0.75
340.90,-1.68,-0.94,-1.68,-0.94,0.92,0.75,0.63,-0.75,-0.76,-0.74
344.30,-1.68,-0.94,-1.67,-0.93,0.92,0.78,0.65,-0.75,-0.75,-0.74
347.75,-1.66,-0.92,-1.66,-0.92,0.92,0.80,0.68,-0.73,-0.74,-0.74
351.23,-1.65,-0.91,-1.65,-0.91,0.92,0.83,0.70,-0.73,-0.73,-0.74
354.74,-1.64,-0.91,-1.64,-0.91,0.92,0.85,0.73,-0.71,-0.72,-0.73
358.28,-1.65,-0.92,-1.64,-0.92,0.92,0.88,0.75,-0.72,-0.72,-0.73
361.87,-1.66,-0.93,-1.66,-0.93,0.93,0.91,0.78,-0.72,-0.72,-0.73
365.49,-1.68,-0.95,-1.68,-0.95,0.95,0.93,0.81,-0.73,-0.73,-0.73
369.14,-1.70,-0.97,-1.70,-0.97,0.97,0.96,0.83,-0.73,-0.73,-0.73
372.83,-1.73,-1.00,-1.72,-1.00,1.00,0.98,0.86,-0.73,-0.72,-0.73
376.56,-1.75,-1.03,-1.75,-1.03,1.03,1.01,0.89,-0.72,-0.72,-0.72
380.33,-1.78,-1.06,-1.78,-1.06,1.06,1.03,0.92,-0.72,-0.72,-0.72
384.13,-1.82,-1.10,-1.81,-1.09,1.09,1.06,0.95,-0.72,-0.72,-0.72
387.97,-1.85,-1.13,-1.85,-1.13,1.13,1.08,0.98,-0.72,-0.72,-0.72
391.85,-1.88,-1.17,-1.88,-1.17,1.17,1.11,1.01,-0.71,-0.71,-0.71
395.77,-1.91,-1.20,-1.91,-1.20,1.20,1.13,1.04,-0.71,-0.71,-0.71
399.73,-1.94,-1.24,-1.93,-1.23,1.23,1.15,1.07,-0.70,-0.70,-0.70
403.72,-1.96,-1.26,-1.96,-1.26,1.26,1.18,1.10,-0.70,-0.70,-0.70
407.76,-1.98,-1.29,-1.98,-1.29,1.28,1.20,1.13,-0.69,-0.69,-0.69
411.84,-2.00,-1.31,-1.99,-1.31,1.30,1.22,1.17,-0.69,-0.69,-0.69
415.96,-2.01,-1.33,-2.00,-1.32,1.32,1.24,1.20,-0.69,-0.69,-0.68
420.12,-2.01,-1.33,-2.01,-1.33,1.32,1.25,1.23,-0.68,-0.69,-0.68
424.32,-2.01,-1.33,-2.00,-1.33,1.33,1.27,1.26,-0.68,-0.68,-0.68
428.56,-2.00,-1.33,-2.00,-1.32,1.33,1.29,1.29,-0.67,-0.67,-0.67
432.85,-1.99,-1.32,-1.99,-1.32,1.32,1.30,1.31,-0.66,-0.67,-0.67
437.18,-1.99,-1.32,-1.99,-1.32,1.32,1.32,1.34,-0.66,-0.66,-0.67
441.55,-1.99,-1.32,-1.99,-1.32,1.32,1.33,1.37,-0.67,-0.66,-0.67
445.96,-1.99,-1.32,-1.99,-1.32,1.32,1.34,1.39,-0.67,-0.66,-0.67
