frequency,raw,error,smoothed,error_smoothed,equalization,parametric_eq,fixed_band_eq,equalized_raw,equalized_smoothed,target
20.00,-15.01,-15.58,-15.01,-15.58,6.00,6.04,2.79,-9.01,-9.01,0.57
20.20,-14.82,-15.43,-14.81,-15.43,6.00,6.05,2.87,-8.82,-8.81,0.61
20.40,-14.64,-15.29,-14.63,-15.27,6.00,6.05,2.96,-8.64,-8.63,0.65
20.61,-14.45,-15.12,-14.44,-15.12,6.00,6.05,3.04,-8.45,-8.44,0.67
20.81,-14.27,-14.98,-14.26,-14.98,6.00,6.05,3.13,-8.27,-8.26,0.71
21.02,-14.09,-14.84,-14.10,-14.84,6.00,6.06,3.22,-8.09,-8.10,0.75
21.23,-13.97,-14.73,-13.96,-14.73,6.00,6.06,3.32,-7.97,-7.96,0.76
21.44,-13.85,-14.63,-13.85,-14.63,6.00,6.06,3.42,-7.85,-7.85,0.78
21.66,-13.74,-14.53,-13.74,-14.53,6.00,6.06,3.52,-7.74,-7.74,0.79
21.87,-13.61,-14.40,-13.60,-14.40,6.00,6.06,3.62,-7.61,-7.60,0.79
22.09,-13.44,-14.24,-13.43,-14.23,6.00,6.05,3.72,-7.44,-7.43,0.80
22.31,-13.21,-14.01,-13.22,-14.02,6.00,6.05,3.83,-7.21,-7.22,0.80
22.54,-12.98,-13.78,-12.97,-13.76,6.00,6.05,3.94,-6.98,-6.97,0.80
22.76,-12.75,-13.53,-12.74,-13.52,6.00,6.05,4.06,-6.75,-6.74,0.79
22.99,-12.51,-13.28,-12.56,-13.34,6.00,6.05,4.18,-6.51,-6.56,0.78
23.22,-12.46,-13.23,-12.45,-13.22,6.00,6.04,4.30,-6.46,-6.45,0.78
23.45,-12.42,-13.18,-12.40,-13.17,6.00,6.04,4.42,-6.42,-6.40,0.77
23.69,-12.38,-13.14,-12.38,-13.15,6.00,6.03,4.54,-6.38,-6.38,0.77
23.92,-12.34,-13.10,-12.33,-13.10,6.00,6.03,4.67,-6.34,-6.33,0.77
24.16,-12.26,-13.03,-12.26,-13.03,6.00,6.03,4.80,-6.26,-6.26,0.78
24.40,-12.17,-12.94,-12.16,-12.93,6.00,6.02,4.93,-6.17,-6.16,0.77
24.65,-12.07,-12.83,-12.06,-12.83,6.00,6.02,5.07,-6.07,-6.06,0.76
24.89,-11.97,-12.73,-11.98,-12.75,6.00,6.01,5.21,-5.97,-5.98,0.76
25.14,-11.92,-12.68,-11.93,-12.69,6.00,6.01,5.34,-5.92,-5.93,0.76
25.39,-11.91,-12.67,-11.90,-12.66,6.00,6.00,5.48,-5.91,-5.90,0.76
25.65,-11.90,-12.65,-11.89,-12.64,6.00,6.00,5.63,-5.90,-5.89,0.75
25.91,-11.88,-12.62,-11.87,-12.62,6.00,5.99,5.77,-5.88,-5.87,0.74
26.16,-11.84,-12.58,-11.84,-12.58,6.00,5.99,5.91,-5.84,-5.84,0.74
26.43,-11.79,-12.53,-11.80,-12.54,6.00,5.98,6.05,-5.79,-5.80,0.74
26.69,-11.73,-12.47,-11.74,-12.47,6.00,5.98,6.19,-5.73,-5.74,0.74
26.96,-11.67,-12.40,-11.64,-12.37,6.00,5.97,6.33,-5.67,-5.64,0.73
27.23,-11.49,-12.22,-11.49,-12.22,6.00,5.97,6.46,-5.49,-5.49,0.73
27.50,-11.30,-12.03,-11.31,-12.03,6.00,5.97,6.60,-5.30,-5.31,0.73
27.77,-11.09,-11.81,-11.10,-11.82,6.00,5.96,6.73,-5.09,-5.10,0.72
28.05,-10.91,-11.62,-10.91,-11.62,6.00,5.96,6.85,-4.91,-4.91,0.72
28.33,-10.72,-11.42,-10.71,-11.42,6.00,5.95,6.97,-4.72,-4.71,0.71
28.62,-10.54,-11.24,-10.53,-11.23,6.00,5.95,7.08,-4.54,-4.53,0.70
28.90,-10.35,-11.05,-10.37,-11.08,6.00,5.95,7.18,-4.35,-4.37,0.70
29.19,-10.26,-10.96,-10.26,-10.97,6.00,5.95,7.28,-4.26,-4.26,0.70
29.48,-10.20,-10.91,-10.19,-10.90,6.00,5.95,7.37,-4.20,-4.19,0.71
29.78,-10.15,-10.85,-10.14,-10.85,6.00,5.95,7.44,-4.15,-4.14,0.70
30.08,-10.10,-10.81,-10.10,-10.80,6.00,5.95,7.51,-4.10,-4.10,0.71
30.38,-10.05,-10.74,-10.06,-10.76,6.00,5.95,7.56,-4.05,-4.06,0.69
30.68,-10.01,-10.70,-10.01,-10.70,6.00,5.95,7.60,-4.01,-4.01,0.69
30.99,-9.96,-10.63,-9.92,-10.60,6.00,5.95,7.63,-3.96,-3.92,0.68
31.30,-9.77,-10.45,-9.77,-10.44,6.00,5.95,7.65,-3.77,-3.77,0.68
31.61,-9.58,-10.25,-9.59,-10.25,6.00,5.96,7.66,-3.58,-3.59,0.67
31.93,-9.39,-10.04,-9.41,-10.07,6.00,5.96,7.65,-3.39,-3.41,0.65
32.24,-9.29,-9.93,-9.28,-9.93,6.00,5.97,7.63,-3.29,-3.28,0.64
32.57,-9.21,-9.85,-9.19,-9.83,6.00,5.97,7.60,-3.21,-3.19,0.64
32.89,-9.14,-9.77,-9.15,-9.78,6.00,5.98,7.56,-3.14,-3.15,0.63
33.22,-9.13,-9.73,-9.15,-9.76,6.00,5.99,7.50,-3.13,-3.15,0.61
33.55,-9.15,-9.75,-9.16,-9.76,6.00,6.00,7.44,-3.15,-3.16,0.61
33.89,-9.16,-9.74,-9.10,-9.69,6.00,6.01,7.37,-3.16,-3.10,0.58
34.23,-8.97,-9.55,-8.94,-9.51,6.00,6.02,7.29,-2.97,-2.94,0.58
34.57,-8.68,-9.24,-8.69,-9.25,6.00,6.03,7.20,-2.68,-2.69,0.56
34.92,-8.38,-8.93,-8.43,-8.98,6.00,6.05,7.11,-2.38,-2.43,0.55
35.27,-8.23,-8.78,-8.24,-8.77,6.00,6.06,7.01,-2.23,-2.24,0.55
35.62,-8.14,-8.66,-8.11,-8.64,6.00,6.07,6.91,-2.14,-2.11,0.52
35.97,-8.04,-8.55,-8.05,-8.57,6.00,6.09,6.81,-2.04,-2.05,0.51
36.33,-7.99,-8.50,-8.00,-8.50,6.00,6.10,6.70,-1.99,-2.00,0.51
36.70,-7.95,-8.45,-7.94,-8.44,6.00,6.12,6.59,-1.95,-1.94,0.50
37.06,-7.88,-8.36,-7.85,-8.34,6.00,6.13,6.48,-1.88,-1.85,0.49
37.43,-7.71,-8.21,-7.72,-8.20,6.00,6.14,6.37,-1.71,-1.72,0.49
37.81,-7.56,-8.04,-7.58,-8.06,6.00,6.16,6.26,-1.56,-1.58,0.48
38.19,-7.44,-7.91,-7.45,-7.92,6.00,6.17,6.15,-1.44,-1.45,0.47
38.57,-7.37,-7.84,-7.36,-7.83,6.00,6.18,6.04,-1.37,-1.36,0.48
38.95,-7.29,-7.75,-7.29,-7.76,6.00,6.19,5.94,-1.29,-1.29,0.46
39.34,-7.25,-7.71,-7.24,-7.70,6.00,6.20,5.83,-1.25,-1.24,0.46
39.74,-7.21,-7.65,-7.20,-7.65,6.00,6.20,5.73,-1.21,-1.20,0.45
40.14,-7.18,-7.62,-7.21,-7.66,6.00,6.21,5.63,-1.18,-1.21,0.44
40.54,-7.19,-7.63,-7.20,-7.64,6.00,6.21,5.54,-1.19,-1.20,0.44
40.94,-7.20,-7.63,-7.12,-7.55,6.00,6.20,5.44,-1.20,-1.12,0.44
41.35,-6.97,-7.39,-6.95,-7.37,6.00,6.19,5.35,-0.97,-0.95,0.42
41.76,-6.70,-7.10,-6.74,-7.16,6.00,6.18,5.27,-0.70,-0.74,0.41
42.18,-6.53,-6.93,-6.57,-6.98,6.00,6.16,5.18,-0.53,-0.57,0.41
42.60,-6.49,-6.88,-6.47,-6.87,6.00,6.14,5.11,-0.49,-0.47,0.39
43.03,-6.44,-6.82,-6.40,-6.78,6.00,6.11,5.03,-0.44,-0.40,0.39
43.46,-6.28,-6.64,-6.29,-6.65,6.00,6.08,4.96,-0.28,-0.29,0.36
43.90,-6.13,-6.47,-6.11,-6.45,6.01,6.04,4.89,-0.12,-0.10,0.34
44.33,-5.94,-6.26,-5.91,-6.23,6.03,6.00,4.83,0.09,0.12,0.32
44.78,-5.75,-6.05,-5.81,-6.11,6.03,5.95,4.77,0.28,0.22,0.30
45.23,-5.75,-6.03,-5.83,-6.11,6.01,5.89,4.71,0.26,0.18,0.28
45.68,-5.95,-6.21,-5.90,-6.17,5.98,5.83,4.66,0.04,0.08,0.27
46.13,-6.04,-6.29,-5.95,-6.20,5.96,5.77,4.61,-0.08,0.01,0.25
46.60,-5.85,-6.10,-5.87,-6.12,5.92,5.70,4.56,0.07,0.05,0.25
47.06,-5.66,-5.90,-5.64,-5.88,5.87,5.63,4.52,0.21,0.23,0.24
47.53,-5.44,-5.67,-5.42,-5.66,5.78,5.55,4.48,0.34,0.36,0.23
48.01,-5.23,-5.46,-5.40,-5.62,5.66,5.47,4.44,0.44,0.26,0.23
48.49,-5.41,-5.62,-5.42,-5.63,5.53,5.38,4.41,0.13,0.12,0.21
48.97,-5.58,-5.78,-5.32,-5.52,5.40,5.30,4.38,-0.18,0.08,0.20
49.46,-5.14,-5.33,-5.13,-5.32,5.27,5.21,4.35,0.12,0.13,0.19
49.96,-4.67,-4.84,-4.89,-5.07,5.14,5.12,4.33,0.47,0.25,0.17
50.46,-4.71,-4.89,-4.71,-4.89,5.05,5.02,4.31,0.34,0.34,0.18
50.96,-4.80,-4.97,-4.68,-4.85,4.96,4.93,4.29,0.16,0.28,0.18
51.47,-4.69,-4.85,-4.68,-4.85,4.85,4.83,4.27,0.16,0.16,0.17
51.99,-4.56,-4.72,-4.63,-4.79,4.74,4.74,4.25,0.18,0.11,0.16
52.51,-4.57,-4.73,-4.56,-4.72,4.65,4.64,4.24,0.08,0.08,0.16
53.03,-4.56,-4.72,-4.52,-4.68,4.58,4.55,4.22,0.02,0.06,0.16
53.56,-4.43,-4.58,-4.42,-4.57,4.52,4.45,4.21,0.10,0.11,0.15
54.10,-4.28,-4.42,-4.22,-4.37,4.45,4.35,4.20,0.18,0.23,0.14
54.64,-4.03,-4.17,-4.10,-4.23,4.36,4.26,4.18,0.33,0.26,0.14
55.18,-3.95,-4.08,-4.09,-4.22,4.25,4.17,4.17,0.30,0.16,0.13
55.74,-4.20,-4.33,-4.08,-4.21,4.14,4.07,4.16,-0.06,0.06,0.12
56.29,-4.17,-4.28,-4.06,-4.17,4.05,3.98,4.14,-0.11,-0.01,0.12
56.86,-3.86,-3.96,-3.95,-4.05,3.97,3.89,4.13,0.11,0.02,0.10
57.42,-3.74,-3.82,-3.76,-3.85,3.91,3.80,4.11,0.18,0.15,0.09
58.00,-3.68,-3.75,-3.64,-3.71,3.86,3.71,4.09,0.18,0.22,0.07
58.58,-3.62,-3.68,-3.65,-3.71,3.79,3.62,4.07,0.17,0.14,0.06
59.16,-3.63,-3.68,-3.70,-3.74,3.71,3.54,4.04,0.08,0.01,0.05
59.76,-3.81,-3.83,-3.71,-3.73,3.64,3.45,4.02,-0.17,-0.07,0.02
60.35,-3.74,-3.73,-3.67,-3.67,3.57,3.37,3.99,-0.16,-0.10,-0.00
60.96,-3.50,-3.47,-3.59,-3.56,3.52,3.28,3.95,0.03,-0.07,-0.03
61.57,-3.48,-3.41,-3.49,-3.42,3.48,3.20,3.91,0.00,-0.01,-0.07
62.18,-3.48,-3.37,-3.46,-3.35,3.42,3.12,3.87,-0.05,-0.03,-0.11
62.80,-3.48,-3.34,-3.48,-3.33,3.36,3.04,3.83,-0.12,-0.12,-0.14
63.43,-3.48,-3.30,-3.48,-3.30,3.30,2.96,3.78,-0.18,-0.18,-0.18
64.07,-3.48,-3.26,-3.48,-3.26,3.25,2.89,3.73,-0.22,-0.22,-0.21
64.71,-3.48,-3.22,-3.48,-3.23,3.23,2.81,3.67,-0.25,-0.25,-0.25
65.35,-3.48,-3.20,-3.48,-3.19,3.21,2.73,3.61,-0.27,-0.27,-0.28
66.01,-3.48,-3.16,-3.48,-3.16,3.17,2.66,3.55,-0.30,-0.30,-0.32
66.67,-3.48,-3.12,-3.48,-3.13,3.12,2.58,3.49,-0.35,-0.36,-0.36
67.33,-3.48,-3.09,-3.48,-3.09,3.06,2.51,3.42,-0.42,-0.42,-0.39
68.01,-3.48,-3.05,-3.46,-3.03,2.98,2.44,3.34,-0.49,-0.48,-0.43
68.69,-3.41,-2.94,-3.43,-2.96,2.90,2.37,3.27,-0.51,-0.53,-0.47
69.37,-3.34,-2.83,-3.31,-2.80,2.80,2.30,3.19,-0.54,-0.51,-0.51
70.07,-3.25,-2.70,-3.17,-2.62,2.68,2.23,3.11,-0.57,-0.49,-0.55
70.77,-2.96,-2.37,-3.14,-2.56,2.56,2.16,3.03,-0.39,-0.58,-0.58
71.48,-3.10,-2.47,-3.09,-2.46,2.46,2.09,2.95,-0.64,-0.63,-0.63
72.19,-3.25,-2.58,-3.02,-2.35,2.36,2.02,2.86,-0.88,-0.66,-0.67
72.91,-2.86,-2.13,-2.98,-2.25,2.28,1.95,2.77,-0.57,-0.69,-0.73
73.64,-2.83,-2.06,-2.91,-2.14,2.21,1.88,2.69,-0.61,-0.70,-0.77
74.38,-2.92,-2.10,-2.89,-2.07,2.15,1.82,2.60,-0.77,-0.74,-0.82
75.12,-3.04,-2.18,-2.98,-2.12,2.07,1.75,2.51,-0.97,-0.90,-0.86
75.87,-2.95,-2.05,-3.00,-2.10,1.98,1.68,2.42,-0.97,-1.02,-0.90
76.63,-2.96,-2.02,-2.90,-1.96,1.87,1.61,2.33,-1.08,-1.02,-0.93
77.40,-2.80,-1.82,-2.78,-1.81,1.77,1.55,2.24,-1.02,-1.01,-0.97
78.17,-2.55,-1.54,-2.66,-1.65,1.67,1.48,2.15,-0.88,-0.99,-1.01
78.95,-2.63,-1.59,-2.51,-1.47,1.56,1.42,2.07,-1.07,-0.95,-1.04
79.74,-2.39,-1.32,-2.41,-1.34,1.43,1.35,1.98,-0.96,-0.98,-1.07
80.54,-2.30,-1.20,-2.36,-1.25,1.29,1.29,1.89,-1.01,-1.07,-1.10
81.35,-2.31,-1.18,-2.31,-1.18,1.16,1.22,1.80,-1.15,-1.15,-1.13
82.16,-2.32,-1.16,-2.29,-1.13,1.05,1.16,1.72,-1.27,-1.24,-1.16
82.98,-2.26,-1.07,-2.19,-1.00,0.93,1.10,1.63,-1.32,-1.25,-1.18
83.81,-2.00,-0.77,-2.03,-0.81,0.81,1.04,1.54,-1.18,-1.22,-1.23
84.65,-1.85,-0.59,-1.90,-0.64,0.69,0.98,1.46,-1.16,-1.21,-1.26
85.50,-1.81,-0.53,-1.84,-0.55,0.55,0.92,1.38,-1.25,-1.28,-1.28
86.35,-1.84,-0.52,-1.80,-0.49,0.43,0.86,1.29,-1.41,-1.37,-1.32
87.22,-1.80,-0.45,-1.70,-0.35,0.32,0.81,1.21,-1.47,-1.37,-1.35
88.09,-1.54,-0.15,-1.58,-0.20,0.23,0.76,1.13,-1.31,-1.35,-1.39
88.97,-1.39,0.02,-1.50,-0.08,0.17,0.71,1.05,-1.22,-1.33,-1.41
89.86,-1.55,-0.10,-1.51,-0.06,0.12,0.66,0.97,-1.43,-1.39,-1.45
90.76,-1.64,-0.15,-1.60,-0.12,0.09,0.63,0.89,-1.55,-1.51,-1.48
91.66,-1.68,-0.17,-1.68,-0.17,0.08,0.59,0.81,-1.60,-1.60,-1.51
92.58,-1.71,-0.16,-1.69,-0.15,0.11,0.57,0.73,-1.60,-1.58,-1.55
93.51,-1.71,-0.13,-1.72,-0.15,0.17,0.55,0.66,-1.53,-1.54,-1.57
94.44,-1.77,-0.17,-1.80,-0.19,0.27,0.54,0.58,-1.50,-1.52,-1.60
95.39,-1.94,-0.31,-1.93,-0.30,0.39,0.54,0.50,-1.55,-1.54,-1.63
96.34,-2.14,-0.47,-2.13,-0.46,0.51,0.55,0.43,-1.63,-1.62,-1.67
97.30,-2.34,-0.64,-2.35,-0.65,0.63,0.58,0.36,-1.70,-1.71,-1.70
98.28,-2.57,-0.84,-2.56,-0.84,0.77,0.63,0.28,-1.80,-1.79,-1.72
99.26,-2.74,-0.99,-2.73,-0.98,0.90,0.69,0.21,-1.83,-1.83,-1.74
100.25,-2.89,-1.12,-2.87,-1.10,1.04,0.77,0.14,-1.85,-1.83,-1.77
101.25,-2.95,-1.15,-2.96,-1.16,1.16,0.87,0.07,-1.79,-1.81,-1.80
102.27,-3.06,-1.23,-3.05,-1.22,1.26,0.99,-0.00,-1.79,-1.79,-1.83
103.29,-3.15,-1.27,-3.17,-1.30,1.36,1.12,-0.07,-1.79,-1.81,-1.88
104.32,-3.30,-1.40,-3.30,-1.40,1.45,1.27,-0.14,-1.85,-1.86,-1.90
105.37,-3.49,-1.55,-3.43,-1.50,1.52,1.42,-0.21,-1.96,-1.91,-1.94
106.42,-3.53,-1.56,-3.57,-1.60,1.59,1.57,-0.27,-1.94,-1.98,-1.97
107.48,-3.67,-1.66,-3.68,-1.67,1.63,1.70,-0.34,-2.04,-2.04,-2.01
108.56,-3.78,-1.73,-3.74,-1.69,1.65,1.80,-0.40,-2.12,-2.09,-2.05
109.64,-3.78,-1.69,-3.79,-1.71,1.64,1.85,-0.46,-2.14,-2.15,-2.09
110.74,-3.76,-1.64,-3.76,-1.65,1.60,1.85,-0.52,-2.16,-2.16,-2.11
111.85,-3.72,-1.57,-3.69,-1.54,1.54,1.79,-0.58,-2.18,-2.16,-2.14
112.97,-3.60,-1.40,-3.61,-1.42,1.46,1.67,-0.64,-2.14,-2.15,-2.19
114.10,-3.51,-1.30,-3.52,-1.31,1.36,1.51,-0.69,-2.15,-2.17,-2.21
115.24,-3.44,-1.19,-3.44,-1.19,1.25,1.31,-0.74,-2.19,-2.19,-2.25
116.39,-3.40,-1.12,-3.37,-1.09,1.13,1.09,-0.79,-2.27,-2.24,-2.28
117.55,-3.29,-0.98,-3.34,-1.03,1.01,0.87,-0.84,-2.28,-2.33,-2.31
118.73,-3.26,-0.92,-3.26,-0.93,0.88,0.65,-0.89,-2.37,-2.37,-2.33
119.92,-3.22,-0.88,-3.13,-0.78,0.75,0.43,-0.93,-2.47,-2.38,-2.34
121.12,-2.92,-0.55,-2.97,-0.61,0.60,0.23,-0.98,-2.32,-2.37,-2.37
122.33,-2.76,-0.38,-2.80,-0.42,0.42,0.04,-1.02,-2.33,-2.37,-2.38
123.55,-2.64,-0.25,-2.63,-0.24,0.23,-0.13,-1.05,-2.40,-2.40,-2.39
124.79,-2.52,-0.10,-2.48,-0.07,0.03,-0.30,-1.09,-2.49,-2.45,-2.41
126.03,-2.30,0.13,-2.27,0.15,-0.18,-0.45,-1.12,-2.47,-2.45,-2.43
127.29,-2.02,0.43,-2.04,0.41,-0.38,-0.59,-1.15,-2.40,-2.42,-2.44
128.57,-1.80,0.67,-1.82,0.64,-0.58,-0.72,-1.18,-2.38,-2.41,-2.47
129.85,-1.65,0.83,-1.66,0.82,-0.78,-0.84,-1.21,-2.42,-2.44,-2.48
131.15,-1.55,0.95,-1.52,0.97,-0.97,-0.95,-1.23,-2.52,-2.49,-2.49
132.46,-1.39,1.12,-1.37,1.14,-1.16,-1.06,-1.25,-2.55,-2.53,-2.51
133.79,-1.19,1.32,-1.21,1.31,-1.35,-1.17,-1.27,-2.53,-2.55,-2.51
135.12,-1.04,1.50,-1.05,1.48,-1.51,-1.27,-1.29,-2.55,-2.56,-2.54
136.48,-0.91,1.63,-0.89,1.65,-1.66,-1.37,-1.31,-2.57,-2.56,-2.54
137.84,-0.78,1.78,-0.74,1.83,-1.80,-1.47,-1.32,-2.58,-2.54,-2.56
139.22,-0.56,2.03,-0.59,1.99,-1.94,-1.57,-1.34,-2.49,-2.53,-2.59
140.61,-0.46,2.15,-0.48,2.12,-2.07,-1.67,-1.35,-2.52,-2.55,-2.61
142.02,-0.44,2.17,-0.43,2.19,-2.19,-1.77,-1.36,-2.62,-2.61,-2.61
143.44,-0.40,2.23,-0.39,2.25,-2.29,-1.87,-1.38,-2.69,-2.67,-2.63
144.87,-0.35,2.31,-0.32,2.33,-2.38,-1.97,-1.39,-2.73,-2.70,-2.65
146.32,-0.21,2.47,-0.23,2.45,-2.46,-2.07,-1.40,-2.67,-2.69,-2.68
147.78,-0.14,2.57,-0.14,2.57,-2.55,-2.17,-1.41,-2.68,-2.68,-2.71
149.26,-0.08,2.67,-0.08,2.66,-2.63,-2.28,-1.42,-2.71,-2.71,-2.74
150.75,-0.06,2.74,-0.08,2.71,-2.72,-2.38,-1.43,-2.78,-2.80,-2.80
152.26,-0.10,2.74,-0.08,2.77,-2.81,-2.49,-1.44,-2.90,-2.88,-2.84
153.78,-0.09,2.81,-0.04,2.86,-2.89,-2.59,-1.46,-2.97,-2.93,-2.90
155.32,0.02,2.98,0.00,2.96,-2.96,-2.70,-1.47,-2.93,-2.95,-2.96
156.88,0.07,3.08,0.03,3.05,-3.01,-2.81,-1.48,-2.93,-2.98,-3.01
158.44,0.00,3.09,0.01,3.09,-3.04,-2.92,-1.50,-3.04,-3.03,-3.08
160.03,-0.07,3.08,-0.05,3.10,-3.07,-3.03,-1.51,-3.13,-3.11,-3.14
161.63,-0.11,3.09,-0.09,3.11,-3.08,-3.14,-1.53,-3.19,-3.17,-3.20
163.24,-0.12,3.14,-0.13,3.12,-3.09,-3.25,-1.54,-3.21,-3.22,-3.26
164.88,-0.16,3.13,-0.18,3.10,-3.11,-3.35,-1.56,-3.27,-3.30,-3.29
166.53,-0.24,3.09,-0.24,3.08,-3.15,-3.46,-1.58,-3.38,-3.39,-3.32
168.19,-0.31,3.05,-0.26,3.09,-3.20,-3.56,-1.60,-3.51,-3.46,-3.35
169.87,-0.23,3.15,-0.21,3.17,-3.26,-3.65,-1.62,-3.49,-3.48,-3.38
171.57,-0.07,3.33,-0.09,3.31,-3.33,-3.74,-1.65,-3.40,-3.42,-3.40
173.29,0.05,3.46,0.07,3.48,-3.41,-3.82,-1.67,-3.35,-3.33,-3.41
175.02,0.20,3.62,0.18,3.60,-3.48,-3.90,-1.70,-3.28,-3.30,-3.41
176.77,0.26,3.68,0.21,3.63,-3.56,-3.97,-1.72,-3.30,-3.35,-3.42
178.54,0.19,3.62,0.22,3.64,-3.64,-4.03,-1.75,-3.44,-3.42,-3.42
180.32,0.17,3.58,0.22,3.63,-3.69,-4.08,-1.78,-3.52,-3.47,-3.41
182.13,0.26,3.67,0.25,3.66,-3.72,-4.11,-1.81,-3.46,-3.47,-3.40
183.95,0.34,3.75,0.32,3.73,-3.73,-4.14,-1.85,-3.39,-3.41,-3.41
185.79,0.35,3.77,0.36,3.77,-3.74,-4.16,-1.88,-3.39,-3.38,-3.41
187.65,0.37,3.80,0.34,3.76,-3.74,-4.16,-1.92,-3.37,-3.40,-3.43
189.52,0.29,3.72,0.32,3.75,-3.75,-4.15,-1.95,-3.45,-3.43,-3.43
191.42,0.26,3.70,0.29,3.74,-3.74,-4.13,-1.99,-3.48,-3.45,-3.44
193.33,0.30,3.76,0.26,3.72,-3.73,-4.10,-2.03,-3.42,-3.46,-3.45
195.27,0.24,3.71,0.25,3.72,-3.70,-4.06,-2.07,-3.45,-3.45,-3.46
197.22,0.18,3.67,0.19,3.68,-3.66,-4.01,-2.11,-3.47,-3.46,-3.49
199.19,0.14,3.65,0.11,3.61,-3.62,-3.96,-2.15,-3.48,-3.51,-3.51
201.18,0.03,3.55,0.07,3.59,-3.59,-3.89,-2.20,-3.55,-3.52,-3.52
203.19,-0.01,3.52,0.01,3.54,-3.56,-3.81,-2.24,-3.57,-3.55,-3.53
205.23,0.02,3.58,-0.06,3.48,-3.53,-3.73,-2.28,-3.51,-3.59,-3.56
207.28,-0.15,3.41,-0.09,3.48,-3.50,-3.65,-2.33,-3.64,-3.59,-3.56
209.35,-0.17,3.42,-0.10,3.48,-3.47,-3.56,-2.37,-3.64,-3.57,-3.59
211.44,-0.05,3.56,-0.13,3.47,-3.45,-3.47,-2.41,-3.50,-3.58,-3.61
213.56,-0.12,3.50,-0.14,3.48,-3.45,-3.37,-2.46,-3.56,-3.59,-3.61
215.69,-0.23,3.40,-0.18,3.44,-3.44,-3.28,-2.50,-3.67,-3.63,-3.62
217.85,-0.25,3.38,-0.25,3.38,-3.44,-3.18,-2.54,-3.69,-3.69,-3.63
220.03,-0.26,3.39,-0.26,3.39,-3.44,-3.08,-2.58,-3.69,-3.70,-3.65
222.23,-0.26,3.40,-0.22,3.43,-3.42,-2.99,-2.62,-3.68,-3.64,-3.66
224.45,-0.19,3.46,-0.22,3.43,-3.39,-2.89,-2.65,-3.58,-3.61,-3.64
226.70,-0.20,3.44,-0.25,3.39,-3.35,-2.80,-2.69,-3.54,-3.59,-3.64
228.96,-0.36,3.28,-0.30,3.33,-3.28,-2.70,-2.72,-3.64,-3.58,-3.64
231.25,-0.41,3.22,-0.39,3.23,-3.20,-2.61,-2.75,-3.61,-3.59,-3.62
233.57,-0.45,3.16,-0.47,3.14,-3.11,-2.52,-2.77,-3.56,-3.58,-3.61
235.90,-0.56,3.04,-0.57,3.02,-3.02,-2.43,-2.79,-3.57,-3.59,-3.59
238.26,-0.68,2.89,-0.70,2.87,-2.92,-2.35,-2.81,-3.60,-3.62,-3.57
240.64,-0.85,2.70,-0.79,2.75,-2.84,-2.26,-2.83,-3.68,-3.63,-3.55
243.05,-0.85,2.66,-0.82,2.69,-2.76,-2.18,-2.84,-3.61,-3.58,-3.51
245.48,-0.78,2.71,-0.80,2.68,-2.71,-2.11,-2.84,-3.48,-3.51,-3.49
247.93,-0.75,2.71,-0.78,2.68,-2.65,-2.03,-2.85,-3.40,-3.43,-3.46
250.41,-0.81,2.64,-0.80,2.64,-2.59,-1.96,-2.84,-3.40,-3.39,-3.45
252.92,-0.86,2.55,-0.84,2.58,-2.54,-1.89,-2.84,-3.39,-3.37,-3.41
255.45,-0.88,2.51,-0.87,2.52,-2.48,-1.82,-2.83,-3.36,-3.35,-3.39
258.00,-0.91,2.46,-0.92,2.45,-2.42,-1.75,-2.81,-3.33,-3.34,-3.37
260.58,-0.98,2.38,-1.03,2.32,-2.35,-1.69,-2.79,-3.33,-3.38,-3.35
263.19,-1.14,2.19,-1.13,2.20,-2.27,-1.63,-2.77,-3.41,-3.40,-3.33
265.82,-1.29,2.02,-1.17,2.14,-2.19,-1.57,-2.74,-3.47,-3.36,-3.31
268.48,-1.16,2.13,-1.20,2.08,-2.10,-1.51,-2.71,-3.25,-3.30,-3.29
271.16,-1.13,2.13,-1.22,2.05,-2.00,-1.46,-2.68,-3.13,-3.22,-3.26
273.87,-1.33,1.91,-1.26,1.98,-1.90,-1.40,-2.64,-3.23,-3.16,-3.24
276.61,-1.39,1.83,-1.38,1.83,-1.79,-1.35,-2.60,-3.18,-3.18,-3.22
279.38,-1.50,1.69,-1.52,1.67,-1.68,-1.29,-2.56,-3.17,-3.20,-3.19
282.17,-1.64,1.53,-1.64,1.53,-1.55,-1.24,-2.52,-3.18,-3.18,-3.17
284.99,-1.78,1.36,-1.74,1.40,-1.40,-1.19,-2.47,-3.18,-3.14,-3.13
287.84,-1.85,1.26,-1.83,1.27,-1.26,-1.14,-2.42,-3.11,-3.09,-3.11
290.72,-1.87,1.20,-1.93,1.14,-1.13,-1.09,-2.37,-3.00,-3.06,-3.07
293.63,-2.05,1.00,-2.04,1.00,-1.02,-1.04,-2.32,-3.07,-3.06,-3.04
296.57,-2.19,0.82,-2.15,0.87,-0.93,-0.99,-2.27,-3.11,-3.07,-3.00
299.53,-2.22,0.77,-2.20,0.78,-0.85,-0.94,-2.22,-3.07,-3.05,-2.99
302.53,-2.19,0.77,-2.20,0.75,-0.77,-0.89,-2.16,-2.96,-2.97,-2.96
305.55,-2.16,0.76,-2.19,0.74,-0.70,-0.83,-2.11,-2.86,-2.89,-2.92
308.61,-2.23,0.68,-2.21,0.70,-0.63,-0.78,-2.06,-2.86,-2.84,-2.90
311.69,-2.26,0.63,-2.26,0.62,-0.56,-0.72,-2.00,-2.82,-2.82,-2.89
314.81,-2.32,0.53,-2.34,0.52,-0.50,-0.66,-1.95,-2.82,-2.84,-2.85
317.96,-2.42,0.42,-2.42,0.41,-0.43,-0.59,-1.90,-2.85,-2.85,-2.84
321.14,-2.53,0.29,-2.50,0.32,-0.36,-0.52,-1.84,-2.88,-2.86,-2.82
324.35,-2.58,0.24,-2.56,0.25,-0.28,-0.45,-1.79,-2.86,-2.84,-2.81
327.59,-2.57,0.23,-2.60,0.20,-0.21,-0.38,-1.74,-2.78,-2.81,-2.79
330.87,-2.62,0.17,-2.63,0.16,-0.15,-0.30,-1.69,-2.77,-2.78,-2.79
334.18,-2.68,0.10,-2.66,0.12,-0.11,-0.23,-1.64,-2.78,-2.77,-2.78
337.52,-2.70,0.07,-2.69,0.07,-0.07,-0.16,-1.59,-2.77,-2.77,-2.77
340.90,-2.70,0.05,-2.70,0.05,-0.05,-0.10,-1.55,-2.75,-2.75,-2.75
344.30,-2.70,0.05,-2.70,0.04,-0.04,-0.05,-1.50,-2.73,-2.74,-2.74
347.75,-2.70,0.04,-2.70,0.03,-0.04,-0.01,-1.45,-2.73,-2.73,-2.73
351.23,-2.70,0.03,-2.70,0.02,-0.04,0.01,-1.41,-2.74,-2.75,-2.72
354.74,-2.69,0.04,-2.68,0.04,-0.06,0.01,-1.37,-2.75,-2.75,-2.73
358.28,-2.67,0.05,-2.63,0.09,-0.09,-0.01,-1.32,-2.76,-2.73,-2.72
361.87,-2.56,0.16,-2.59,0.12,-0.13,-0.04,-1.28,-2.68,-2.72,-2.72
365.49,-2.52,0.19,-2.55,0.16,-0.16,-0.09,-1.24,-2.68,-2.71,-2.71
369.14,-2.56,0.15,-2.49,0.23,-0.20,-0.14,-1.20,-2.76,-2.68,-2.71
372.83,-2.44,0.27,-2.45,0.26,-0.23,-0.19,-1.16,-2.67,-2.69,-2.71
376.56,-2.37,0.35,-2.43,0.28,-0.27,-0.24,-1.13,-2.63,-2.69,-2.71
380.33,-2.44,0.26,-2.42,0.29,-0.29,-0.29,-1.09,-2.73,-2.71,-2.69
384.13,-2.44,0.27,-2.40,0.30,-0.31,-0.34,-1.05,-2.75,-2.71,-2.70
387.97,-2.40,0.31,-2.37,0.33,-0.33,-0.38,-1.02,-2.73,-2.70,-2.71
391.85,-2.27,0.44,-2.35,0.35,-0.35,-0.42,-0.99,-2.61,-2.70,-2.71
395.77,-2.35,0.35,-2.34,0.36,-0.35,-0.46,-0.96,-2.70,-2.70,-2.70
399.73,-2.42,0.28,-2.33,0.38,-0.37,-0.49,-0.93,-2.79,-2.69,-2.70
403.72,-2.29,0.42,-2.32,0.38,-0.39,-0.52,-0.90,-2.67,-2.71,-2.71
407.76,-2.24,0.47,-2.30,0.41,-0.41,-0.55,-0.87,-2.65,-2.71,-2.71
411.84,-2.30,0.40,-2.28,0.43,-0.44,-0.57,-0.84,-2.74,-2.72,-2.70
415.96,-2.32,0.39,-2.27,0.44,-0.47,-0.60,-0.81,-2.79,-2.74,-2.71
420.12,-2.23,0.48,-2.23,0.48,-0.50,-0.62,-0.79,-2.73,-2.74,-2.71
424.32,-2.14,0.56,-2.17,0.53,-0.53,-0.64,-0.76,-2.67,-2.70,-2.70
428.56,-2.12,0.58,-2.11,0.58,-0.55,-0.65,-0.74,-2.67,-2.66,-2.70
432.85,-2.11,0.58,-2.07,0.61,-0.56,-0.67,-0.72,-2.67,-2.64,-2.68
437.18,-2.04,0.63,-2.06,0.60,-0.56,-0.69,-0.70,-2.60,-2.62,-2.66
