frequency,raw,error,smoothed,error_smoothed,equalization,parametric_eq,fixed_band_eq,equalized_raw,equalized_smoothed,target
20.00,-3.96,-1.78,-3.96,-1.77,1.77,1.27,-1.06,-2.19,-2.19,-2.18
20.20,-3.83,-1.63,-3.84,-1.63,1.62,1.21,-1.09,-2.21,-2.21,-2.20
20.40,-3.72,-1.48,-3.71,-1.48,1.48,1.14,-1.12,-2.24,-2.23,-2.23
20.61,-3.59,-1.34,-3.59,-1.34,1.34,1.07,-1.15,-2.25,-2.25,-2.25
20.81,-3.47,-1.19,-3.47,-1.19,1.20,1.01,-1.18,-2.27,-2.27,-2.27
21.02,-3.36,-1.06,-3.35,-1.05,1.07,0.94,-1.21,-2.29,-2.29,-2.30
21.23,-3.24,-0.92,-3.25,-0.92,0.93,0.87,-1.25,-2.31,-2.32,-2.32
21.44,-3.14,-0.79,-3.14,-0.79,0.80,0.79,-1.28,-2.34,-2.34,-2.34
21.66,-3.04,-0.68,-3.03,-0.67,0.67,0.72,-1.31,-2.38,-2.37,-2.36
21.87,-2.93,-0.54,-2.93,-0.54,0.54,0.65,-1.35,-2.39,-2.39,-2.38
22.09,-2.82,-0.41,-2.82,-0.42,0.41,0.57,-1.39,-2.41,-2.41,-2.40
22.31,-2.71,-0.28,-2.71,-0.28,0.28,0.49,-1.42,-2.43,-2.43,-2.42
22.54,-2.61,-0.16,-2.61,-0.15,0.15,0.41,-1.46,-2.46,-2.45,-2.45
22.76,-2.50,-0.02,-2.50,-0.02,0.03,0.33,-1.50,-2.47,-2.47,-2.47
22.99,-2.39,0.10,-2.39,0.10,-0.10,0.25,-1.54,-2.49,-2.49,-2.49
23.22,-2.29,0.22,-2.29,0.22,-0.22,0.17,-1.58,-2.51,-2.51,-2.51
23.45,-2.19,0.34,-2.19,0.34,-0.34,0.09,-1.63,-2.52,-2.52,-2.52
23.69,-2.09,0.45,-2.09,0.45,-0.45,0.00,-1.67,-2.54,-2.54,-2.54
23.92,-2.00,0.56,-2.00,0.56,-0.56,-0.09,-1.71,-2.56,-2.56,-2.55
24.16,-1.91,0.67,-1.91,0.66,-0.66,-0.17,-1.76,-2.57,-2.57,-2.57
24.40,-1.83,0.76,-1.83,0.76,-0.76,-0.26,-1.81,-2.59,-2.59,-2.58
24.65,-1.74,0.85,-1.74,0.86,-0.86,-0.36,-1.85,-2.60,-2.60,-2.59
24.89,-1.66,0.96,-1.66,0.95,-0.95,-0.45,-1.90,-2.61,-2.61,-2.61
25.14,-1.58,1.05,-1.58,1.05,-1.04,-0.54,-1.95,-2.62,-2.62,-2.62
25.39,-1.50,1.14,-1.50,1.14,-1.13,-0.64,-2.00,-2.63,-2.63,-2.63
25.65,-1.42,1.22,-1.42,1.22,-1.23,-0.74,-2.05,-2.65,-2.65,-2.64
25.91,-1.34,1.31,-1.34,1.31,-1.32,-0.83,-2.10,-2.66,-2.66,-2.65
26.16,-1.26,1.41,-1.26,1.41,-1.41,-0.94,-2.15,-2.67,-2.67,-2.66
26.43,-1.18,1.50,-1.18,1.50,-1.51,-1.04,-2.21,-2.69,-2.69,-2.68
26.69,-1.09,1.60,-1.09,1.60,-1.61,-1.14,-2.26,-2.70,-2.69,-2.69
26.96,-1.00,1.70,-1.00,1.71,-1.70,-1.25,-2.31,-2.71,-2.71,-2.70
27.23,-0.90,1.81,-0.91,1.81,-1.81,-1.35,-2.36,-2.71,-2.71,-2.71
27.50,-0.82,1.90,-0.81,1.91,-1.91,-1.46,-2.42,-2.73,-2.72,-2.72
27.77,-0.72,2.01,-0.72,2.01,-2.01,-1.58,-2.47,-2.73,-2.73,-2.72
28.05,-0.62,2.11,-0.62,2.11,-2.11,-1.69,-2.52,-2.73,-2.73,-2.73
28.33,-0.53,2.22,-0.53,2.21,-2.21,-1.80,-2.57,-2.74,-2.74,-2.74
28.62,-0.43,2.31,-0.44,2.31,-2.31,-1.92,-2.63,-2.74,-2.74,-2.74
28.90,-0.35,2.40,-0.35,2.40,-2.40,-2.04,-2.68,-2.75,-2.75,-2.75
29.19,-0.26,2.49,-0.26,2.50,-2.50,-2.16,-2.73,-2.76,-2.76,-2.75
29.48,-0.17,2.60,-0.17,2.60,-2.60,-2.28,-2.78,-2.77,-2.76,-2.76
29.78,-0.07,2.69,-0.07,2.69,-2.69,-2.40,-2.83,-2.76,-2.77,-2.76
30.08,0.02,2.79,0.02,2.79,-2.79,-2.52,-2.88,-2.77,-2.77,-2.77
30.38,0.11,2.88,0.11,2.89,-2.89,-2.65,-2.92,-2.78,-2.78,-2.77
30.68,0.21,2.99,0.21,2.99,-2.99,-2.77,-2.97,-2.79,-2.79,-2.78
30.99,0.31,3.10,0.31,3.10,-3.10,-2.90,-3.02,-2.79,-2.79,-2.79
31.30,0.41,3.20,0.41,3.21,-3.20,-3.03,-3.06,-2.80,-2.80,-2.79
31.61,0.51,3.31,0.51,3.31,-3.31,-3.15,-3.11,-2.80,-2.80,-2.80
31.93,0.61,3.42,0.61,3.42,-3.42,-3.28,-3.15,-2.81,-2.81,-2.81
32.24,0.71,3.53,0.71,3.53,-3.53,-3.41,-3.19,-2.82,-2.82,-2.81
32.57,0.81,3.63,0.81,3.64,-3.64,-3.53,-3.23,-2.83,-2.83,-2.82
32.89,0.91,3.75,0.91,3.75,-3.75,-3.66,-3.28,-2.84,-2.83,-2.83
33.22,1.02,3.86,1.01,3.86,-3.86,-3.78,-3.32,-2.84,-2.84,-2.84
33.55,1.11,3.97,1.11,3.97,-3.97,-3.90,-3.36,-2.86,-2.85,-2.85
33.89,1.21,4.07,1.21,4.08,-4.08,-4.02,-3.40,-2.87,-2.86,-2.86
34.23,1.31,4.18,1.31,4.18,-4.18,-4.14,-3.44,-2.87,-2.87,-2.87
34.57,1.42,4.29,1.41,4.29,-4.29,-4.26,-3.48,-2.87,-2.88,-2.87
34.92,1.51,4.39,1.51,4.40,-4.40,-4.37,-3.52,-2.89,-2.88,-2.88
35.27,1.61,4.50,1.61,4.50,-4.50,-4.48,-3.56,-2.89,-2.89,-2.89
35.62,1.71,4.60,1.71,4.60,-4.61,-4.58,-3.60,-2.90,-2.90,-2.89
35.97,1.80,4.71,1.80,4.70,-4.71,-4.68,-3.65,-2.91,-2.90,-2.90
36.33,1.90,4.81,1.90,4.81,-4.81,-4.78,-3.69,-2.91,-2.91,-2.90
36.70,1.99,4.90,1.99,4.91,-4.91,-4.88,-3.73,-2.92,-2.91,-2.91
37.06,2.09,5.02,2.09,5.01,-5.01,-4.97,-3.78,-2.92,-2.92,-2.92
37.43,2.18,5.11,2.18,5.10,-5.10,-5.05,-3.83,-2.92,-2.92,-2.92
37.81,2.26,5.19,2.26,5.20,-5.20,-5.14,-3.88,-2.94,-2.93,-2.93
38.19,2.35,5.28,2.35,5.28,-5.29,-5.22,-3.93,-2.94,-2.94,-2.93
38.57,2.43,5.37,2.43,5.37,-5.37,-5.30,-3.99,-2.94,-2.94,-2.94
38.95,2.51,5.46,2.51,5.46,-5.46,-5.37,-4.05,-2.95,-2.95,-2.94
39.34,2.59,5.55,2.59,5.54,-5.54,-5.44,-4.11,-2.95,-2.95,-2.95
39.74,2.66,5.61,2.66,5.62,-5.62,-5.52,-4.17,-2.96,-2.96,-2.95
40.14,2.73,5.69,2.73,5.69,-5.69,-5.59,-4.23,-2.96,-2.96,-2.96
40.54,2.79,5.75,2.79,5.76,-5.76,-5.65,-4.30,-2.97,-2.97,-2.96
40.94,2.86,5.83,2.86,5.83,-5.83,-5.72,-4.37,-2.97,-2.97,-2.97
41.35,2.91,5.88,2.91,5.89,-5.89,-5.79,-4.45,-2.98,-2.97,-2.97
41.76,2.97,5.95,2.97,5.95,-5.95,-5.86,-4.53,-2.98,-2.98,-2.98
42.18,3.02,6.00,3.02,6.00,-6.00,-5.92,-4.61,-2.98,-2.99,-2.98
42.60,3.06,6.05,3.06,6.06,-6.06,-5.99,-4.69,-3.00,-2.99,-2.99
43.03,3.11,6.10,3.11,6.11,-6.11,-6.06,-4.78,-3.00,-3.00,-2.99
43.46,3.15,6.15,3.15,6.15,-6.16,-6.13,-4.87,-3.01,-3.00,-3.00
43.90,3.20,6.20,3.20,6.20,-6.20,-6.20,-4.97,-3.00,-3.01,-3.00
44.33,3.24,6.24,3.24,6.25,-6.25,-6.27,-5.06,-3.01,-3.01,-3.00
44.78,3.28,6.29,3.28,6.29,-6.29,-6.34,-5.17,-3.01,-3.01,-3.01
45.23,3.32,6.33,3.32,6.34,-6.33,-6.41,-5.27,-3.01,-3.01,-3.01
45.68,3.36,6.37,3.36,6.38,-6.37,-6.48,-5.38,-3.02,-3.01,-3.01
46.13,3.41,6.42,3.40,6.42,-6.42,-6.55,-5.49,-3.01,-3.01,-3.01
46.60,3.44,6.45,3.44,6.46,-6.46,-6.63,-5.61,-3.02,-3.01,-3.01
47.06,3.48,6.49,3.48,6.50,-6.50,-6.70,-5.73,-3.02,-3.01,-3.01
47.53,3.52,6.53,3.52,6.54,-6.54,-6.78,-5.86,-3.02,-3.02,-3.01
48.01,3.57,6.58,3.57,6.58,-6.58,-6.86,-5.98,-3.01,-3.02,-3.01
48.49,3.61,6.62,3.61,6.63,-6.63,-6.93,-6.11,-3.02,-3.01,-3.01
48.97,3.66,6.67,3.66,6.67,-6.68,-7.01,-6.25,-3.02,-3.02,-3.01
49.46,3.71,6.72,3.71,6.72,-6.73,-7.09,-6.38,-3.02,-3.02,-3.01
49.96,3.76,6.77,3.77,6.78,-6.78,-7.16,-6.52,-3.02,-3.02,-3.01
50.46,3.83,6.84,3.83,6.84,-6.84,-7.24,-6.66,-3.01,-3.01,-3.01
50.96,3.89,6.90,3.89,6.90,-6.90,-7.32,-6.81,-3.01,-3.01,-3.01
51.47,3.95,6.96,3.95,6.96,-6.96,-7.39,-6.95,-3.01,-3.01,-3.01
51.99,4.01,7.02,4.01,7.03,-7.03,-7.47,-7.10,-3.02,-3.02,-3.01
52.51,4.08,7.09,4.08,7.09,-7.10,-7.54,-7.24,-3.02,-3.02,-3.01
53.03,4.15,7.16,4.15,7.16,-7.17,-7.62,-7.39,-3.02,-3.02,-3.01
53.56,4.22,7.23,4.22,7.24,-7.24,-7.69,-7.54,-3.02,-3.01,-3.01
54.10,4.30,7.31,4.29,7.31,-7.31,-7.76,-7.68,-3.01,-3.01,-3.01
54.64,4.36,7.37,4.36,7.38,-7.37,-7.83,-7.83,-3.01,-3.01,-3.01
55.18,4.43,7.44,4.43,7.45,-7.44,-7.90,-7.97,-3.01,-3.01,-3.01
55.74,4.50,7.51,4.50,7.51,-7.51,-7.96,-8.11,-3.01,-3.02,-3.01
56.29,4.56,7.57,4.56,7.58,-7.58,-8.03,-8.24,-3.02,-3.01,-3.01
56.86,4.63,7.64,4.63,7.64,-7.64,-8.09,-8.37,-3.01,-3.01,-3.01
57.42,4.70,7.71,4.70,7.71,-7.71,-8.14,-8.49,-3.01,-3.01,-3.01
58.00,4.76,7.76,4.76,7.77,-7.77,-8.20,-8.61,-3.01,-3.01,-3.00
58.58,4.82,7.82,4.82,7.83,-7.83,-8.25,-8.72,-3.01,-3.00,-3.00
59.16,4.89,7.89,4.88,7.89,-7.89,-8.30,-8.81,-3.00,-3.00,-3.00
59.76,4.94,7.94,4.94,7.94,-7.95,-8.35,-8.91,-3.01,-3.00,-3.00
60.35,5.00,7.99,5.00,8.00,-8.00,-8.39,-8.99,-3.00,-3.00,-2.99
60.96,5.06,8.05,5.06,8.05,-8.06,-8.43,-9.06,-3.00,-3.00,-2.99
61.57,5.11,8.10,5.11,8.11,-8.11,-8.47,-9.11,-3.00,-2.99,-2.99
62.18,5.17,8.16,5.17,8.16,-8.16,-8.50,-9.16,-2.99,-2.99,-2.99
62.80,5.22,8.21,5.22,8.21,-8.21,-8.53,-9.20,-2.98,-2.99,-2.99
63.43,5.27,8.25,5.27,8.25,-8.25,-8.56,-9.22,-2.98,-2.99,-2.98
64.07,5.30,8.28,5.31,8.29,-8.29,-8.59,-9.24,-2.99,-2.99,-2.98
64.71,5.35,8.33,5.35,8.33,-8.33,-8.61,-9.24,-2.99,-2.99,-2.98
65.35,5.39,8.37,5.39,8.37,-8.37,-8.63,-9.23,-2.98,-2.99,-2.98
66.01,5.42,8.40,5.43,8.41,-8.41,-8.65,-9.22,-2.99,-2.98,-2.98
66.67,5.46,8.44,5.46,8.44,-8.44,-8.66,-9.19,-2.98,-2.98,-2.98
67.33,5.50,8.48,5.49,8.48,-8.48,-8.67,-9.16,-2.98,-2.98,-2.98
68.01,5.52,8.50,5.53,8.51,-8.51,-8.68,-9.12,-2.99,-2.98,-2.98
68.69,5.56,8.54,5.56,8.54,-8.54,-8.69,-9.07,-2.98,-2.98,-2.98
69.37,5.58,8.56,5.58,8.57,-8.57,-8.69,-9.02,-2.99,-2.99,-2.98
70.07,5.61,8.59,5.61,8.59,-8.59,-8.69,-8.96,-2.98,-2.98,-2.98
70.77,5.63,8.61,5.63,8.62,-8.62,-8.69,-8.90,-2.99,-2.99,-2.98
71.48,5.66,8.64,5.66,8.64,-8.64,-8.69,-8.84,-2.98,-2.98,-2.98
72.19,5.67,8.65,5.68,8.66,-8.66,-8.69,-8.77,-2.99,-2.98,-2.98
72.91,5.70,8.68,5.69,8.68,-8.68,-8.69,-8.71,-2.98,-2.99,-2.98
73.64,5.71,8.70,5.71,8.70,-8.70,-8.68,-8.64,-2.99,-2.99,-2.99
74.38,5.72,8.71,5.73,8.72,-8.72,-8.67,-8.58,-3.00,-2.99,-2.99
75.12,5.75,8.74,5.74,8.74,-8.74,-8.67,-8.51,-2.99,-3.00,-2.99
75.87,5.76,8.76,5.76,8.76,-8.76,-8.66,-8.45,-3.00,-3.00,-3.00
76.63,5.77,8.77,5.77,8.78,-8.78,-8.65,-8.39,-3.01,-3.00,-3.00
77.40,5.78,8.79,5.78,8.79,-8.79,-8.64,-8.34,-3.01,-3.02,-3.01
78.17,5.78,8.80,5.78,8.81,-8.81,-8.64,-8.28,-3.03,-3.03,-3.02
78.95,5.79,8.82,5.79,8.82,-8.83,-8.63,-8.24,-3.04,-3.04,-3.03
79.74,5.80,8.84,5.80,8.84,-8.84,-8.62,-8.19,-3.04,-3.05,-3.04
80.54,5.80,8.85,5.80,8.86,-8.86,-8.61,-8.15,-3.06,-3.05,-3.05
81.35,5.81,8.87,5.81,8.87,-8.87,-8.60,-8.12,-3.06,-3.06,-3.06
82.16,5.81,8.88,5.81,8.88,-8.88,-8.59,-8.08,-3.07,-3.07,-3.07
82.98,5.81,8.89,5.81,8.90,-8.90,-8.59,-8.06,-3.09,-3.08,-3.08
83.81,5.81,8.90,5.81,8.91,-8.90,-8.58,-8.04,-3.09,-3.10,-3.09
84.65,5.80,8.91,5.80,8.91,-8.91,-8.57,-8.03,-3.11,-3.11,-3.11
85.50,5.80,8.92,5.80,8.92,-8.92,-8.57,-8.02,-3.12,-3.12,-3.12
86.35,5.80,8.92,5.80,8.93,-8.93,-8.56,-8.01,-3.13,-3.13,-3.12
87.22,5.79,8.92,5.79,8.93,-8.93,-8.56,-8.02,-3.14,-3.14,-3.13
88.09,5.79,8.93,5.79,8.93,-8.93,-8.56,-8.03,-3.14,-3.14,-3.14
88.97,5.78,8.93,5.78,8.93,-8.93,-8.56,-8.04,-3.15,-3.15,-3.15
89.86,5.77,8.93,5.77,8.94,-8.93,-8.55,-8.06,-3.16,-3.16,-3.16
90.76,5.77,8.93,5.77,8.93,-8.93,-8.55,-8.09,-3.16,-3.17,-3.16
91.66,5.76,8.93,5.76,8.93,-8.93,-8.56,-8.12,-3.17,-3.17,-3.17
92.58,5.75,8.92,5.75,8.93,-8.93,-8.56,-8.16,-3.18,-3.18,-3.17
93.51,5.75,8.93,5.75,8.93,-8.93,-8.56,-8.20,-3.18,-3.18,-3.18
94.44,5.75,8.93,5.75,8.93,-8.93,-8.57,-8.25,-3.18,-3.19,-3.18
95.39,5.74,8.93,5.74,8.93,-8.93,-8.57,-8.31,-3.19,-3.19,-3.19
96.34,5.73,8.92,5.73,8.93,-8.93,-8.58,-8.37,-3.20,-3.20,-3.19
97.30,5.73,8.93,5.73,8.93,-8.93,-8.59,-8.44,-3.20,-3.20,-3.20
98.28,5.73,8.93,5.73,8.93,-8.94,-8.60,-8.51,-3.21,-3.21,-3.20
99.26,5.72,8.93,5.72,8.94,-8.94,-8.61,-8.58,-3.22,-3.22,-3.21
100.25,5.72,8.94,5.72,8.94,-8.94,-8.62,-8.66,-3.22,-3.22,-3.22
101.25,5.71,8.94,5.71,8.95,-8.95,-8.63,-8.74,-3.24,-3.23,-3.23
102.27,5.71,8.95,5.71,8.95,-8.95,-8.65,-8.83,-3.24,-3.24,-3.24
103.29,5.70,8.95,5.70,8.96,-8.96,-8.66,-8.92,-3.26,-3.25,-3.25
104.32,5.70,8.96,5.70,8.96,-8.96,-8.68,-9.01,-3.26,-3.26,-3.26
105.37,5.70,8.97,5.69,8.97,-8.97,-8.69,-9.11,-3.27,-3.27,-3.27
106.42,5.68,8.96,5.69,8.97,-8.97,-8.71,-9.20,-3.29,-3.29,-3.28
107.48,5.68,8.97,5.68,8.98,-8.98,-8.73,-9.30,-3.30,-3.30,-3.29
108.56,5.68,8.98,5.68,8.98,-8.98,-8.75,-9.40,-3.30,-3.31,-3.30
109.64,5.68,8.99,5.68,8.99,-8.99,-8.77,-9.49,-3.31,-3.31,-3.31
110.74,5.67,8.99,5.67,9.00,-9.00,-8.79,-9.59,-3.33,-3.32,-3.32
111.85,5.67,9.00,5.67,9.00,-9.00,-8.81,-9.68,-3.33,-3.34,-3.33
112.97,5.66,9.00,5.66,9.00,-9.01,-8.83,-9.76,-3.35,-3.35,-3.34
114.10,5.65,9.00,5.66,9.01,-9.01,-8.85,-9.84,-3.36,-3.36,-3.35
115.24,5.66,9.02,5.65,9.02,-9.02,-8.87,-9.92,-3.36,-3.36,-3.36
116.39,5.65,9.02,5.65,9.02,-9.02,-8.89,-9.99,-3.37,-3.37,-3.37
117.55,5.64,9.02,5.64,9.03,-9.02,-8.91,-10.05,-3.38,-3.38,-3.38
118.73,5.63,9.02,5.63,9.02,-9.02,-8.93,-10.10,-3.39,-3.39,-3.39
119.92,5.62,9.01,5.62,9.02,-9.02,-8.95,-10.14,-3.40,-3.40,-3.39
121.12,5.61,9.01,5.61,9.01,-9.02,-8.97,-10.17,-3.41,-3.41,-3.40
122.33,5.60,9.00,5.60,9.01,-9.01,-8.99,-10.19,-3.41,-3.41,-3.40
123.55,5.59,9.00,5.59,9.01,-9.01,-9.01,-10.20,-3.42,-3.41,-3.41
124.79,5.59,9.00,5.59,9.00,-9.00,-9.03,-10.20,-3.41,-3.42,-3.41
126.03,5.58,9.00,5.58,9.00,-9.00,-9.05,-10.18,-3.42,-3.42,-3.42
127.29,5.57,8.99,5.57,9.00,-9.00,-9.07,-10.15,-3.43,-3.42,-3.42
128.57,5.56,8.98,5.56,8.99,-8.99,-9.09,-10.11,-3.43,-3.43,-3.42
129.85,5.56,8.99,5.55,8.98,-8.98,-9.10,-10.06,-3.42,-3.43,-3.43
131.15,5.54,8.97,5.54,8.98,-8.98,-9.12,-9.99,-3.44,-3.43,-3.43
132.46,5.53,8.96,5.53,8.97,-8.97,-9.13,-9.92,-3.44,-3.43,-3.43
133.79,5.52,8.95,5.52,8.96,-8.95,-9.14,-9.84,-3.43,-3.43,-3.43
135.12,5.51,8.94,5.51,8.94,-8.94,-9.15,-9.75,-3.43,-3.43,-3.43
136.48,5.50,8.93,5.50,8.93,-8.93,-9.16,-9.65,-3.43,-3.43,-3.43
137.84,5.48,8.90,5.48,8.91,-8.91,-9.17,-9.54,-3.43,-3.43,-3.42
139.22,5.47,8.89,5.47,8.90,-8.90,-9.17,-9.43,-3.43,-3.42,-3.42
140.61,5.46,8.88,5.46,8.88,-8.88,-9.17,-9.31,-3.42,-3.42,-3.42
142.02,5.45,8.86,5.45,8.86,-8.86,-9.18,-9.19,-3.41,-3.42,-3.41
143.44,5.43,8.83,5.43,8.84,-8.84,-9.18,-9.07,-3.41,-3.41,-3.40
144.87,5.42,8.82,5.42,8.82,-8.83,-9.17,-8.95,-3.41,-3.40,-3.40
146.32,5.42,8.81,5.41,8.81,-8.81,-9.17,-8.82,-3.39,-3.40,-3.39
147.78,5.40,8.78,5.40,8.79,-8.79,-9.16,-8.70,-3.39,-3.39,-3.38
149.26,5.39,8.77,5.39,8.77,-8.77,-9.15,-8.57,-3.38,-3.38,-3.38
150.75,5.38,8.75,5.38,8.75,-8.75,-9.14,-8.45,-3.37,-3.37,-3.37
152.26,5.37,8.73,5.37,8.74,-8.73,-9.12,-8.33,-3.36,-3.36,-3.36
153.78,5.36,8.71,5.36,8.72,-8.71,-9.10,-8.21,-3.35,-3.35,-3.35
155.32,5.35,8.69,5.35,8.69,-8.69,-9.09,-8.09,-3.34,-3.34,-3.34
156.88,5.34,8.67,5.34,8.67,-8.67,-9.06,-7.98,-3.33,-3.33,-3.33
158.44,5.32,8.64,5.33,8.65,-8.65,-9.04,-7.87,-3.33,-3.32,-3.32
160.03,5.32,8.63,5.31,8.63,-8.63,-9.01,-7.77,-3.31,-3.32,-3.31
161.63,5.30,8.60,5.30,8.61,-8.61,-8.98,-7.67,-3.31,-3.31,-3.30
163.24,5.29,8.58,5.29,8.59,-8.59,-8.95,-7.57,-3.30,-3.29,-3.29
164.88,5.28,8.56,5.28,8.56,-8.56,-8.91,-7.48,-3.28,-3.29,-3.28
166.53,5.27,8.54,5.27,8.54,-8.54,-8.88,-7.40,-3.27,-3.27,-3.27
168.19,5.25,8.51,5.25,8.52,-8.52,-8.84,-7.32,-3.27,-3.26,-3.26
169.87,5.24,8.49,5.24,8.50,-8.49,-8.80,-7.24,-3.25,-3.26,-3.25
171.57,5.22,8.47,5.22,8.47,-8.47,-8.75,-7.17,-3.25,-3.25,-3.25
173.29,5.20,8.44,5.20,8.45,-8.44,-8.71,-7.10,-3.24,-3.24,-3.24
175.02,5.18,8.41,5.18,8.42,-8.42,-8.66,-7.04,-3.24,-3.24,-3.23
176.77,5.16,8.39,5.16,8.39,-8.39,-8.61,-6.99,-3.23,-3.23,-3.23
178.54,5.13,8.35,5.13,8.36,-8.36,-8.56,-6.94,-3.23,-3.23,-3.22
180.32,5.11,8.33,5.11,8.33,-8.33,-8.51,-6.89,-3.22,-3.23,-3.22
182.13,5.08,8.30,5.08,8.30,-8.30,-8.46,-6.85,-3.22,-3.23,-3.22
183.95,5.04,8.26,5.05,8.27,-8.27,-8.40,-6.81,-3.23,-3.22,-3.22
185.79,5.02,8.24,5.02,8.24,-8.24,-8.34,-6.78,-3.22,-3.22,-3.22
187.65,4.99,8.21,4.98,8.21,-8.21,-8.29,-6.76,-3.22,-3.22,-3.22
189.52,4.94,8.16,4.95,8.18,-8.17,-8.23,-6.74,-3.23,-3.22,-3.22
191.42,4.92,8.14,4.92,8.14,-8.14,-8.17,-6.72,-3.22,-3.22,-3.22
193.33,4.88,8.10,4.88,8.10,-8.10,-8.11,-6.71,-3.22,-3.23,-3.22
195.27,4.84,8.06,4.84,8.07,-8.07,-8.05,-6.70,-3.23,-3.23,-3.22
197.22,4.79,8.02,4.80,8.03,-8.03,-7.99,-6.70,-3.24,-3.23,-3.23
199.19,4.76,7.99,4.76,7.99,-7.99,-7.93,-6.70,-3.23,-3.24,-3.23
201.18,4.72,7.96,4.72,7.96,-7.96,-7.88,-6.70,-3.24,-3.24,-3.24
203.19,4.67,7.91,4.68,7.92,-7.92,-7.82,-6.70,-3.25,-3.25,-3.24
205.23,4.63,7.88,4.63,7.88,-7.88,-7.76,-6.71,-3.25,-3.25,-3.25
207.28,4.59,7.84,4.59,7.84,-7.85,-7.71,-6.72,-3.26,-3.26,-3.25
209.35,4.54,7.80,4.54,7.81,-7.81,-7.65,-6.74,-3.27,-3.26,-3.26
211.44,4.50,7.77,4.50,7.77,-7.77,-7.60,-6.75,-3.27,-3.27,-3.27
213.56,4.45,7.72,4.45,7.73,-7.73,-7.55,-6.77,-3.28,-3.28,-3.27
215.69,4.40,7.68,4.40,7.68,-7.68,-7.50,-6.78,-3.28,-3.28,-3.28
217.85,4.34,7.62,4.34,7.63,-7.63,-7.45,-6.80,-3.29,-3.29,-3.28
220.03,4.29,7.58,4.29,7.58,-7.58,-7.40,-6.82,-3.29,-3.29,-3.29
222.23,4.23,7.52,4.23,7.52,-7.52,-7.36,-6.83,-3.29,-3.29,-3.29
224.45,4.17,7.46,4.17,7.46,-7.46,-7.31,-6.84,-3.29,-3.29,-3.29
226.70,4.10,7.39,4.10,7.40,-7.40,-7.27,-6.85,-3.30,-3.29,-3.29
228.96,4.04,7.33,4.03,7.33,-7.33,-7.23,-6.86,-3.29,-3.29,-3.29
231.25,3.96,7.25,3.96,7.25,-7.25,-7.18,-6.87,-3.29,-3.29,-3.29
233.57,3.88,7.16,3.88,7.17,-7.17,-7.14,-6.87,-3.29,-3.29,-3.28
235.90,3.80,7.08,3.80,7.08,-7.09,-7.09,-6.87,-3.29,-3.29,-3.28
238.26,3.73,7.00,3.73,7.00,-7.00,-7.03,-6.86,-3.27,-3.27,-3.27
240.64,3.64,6.90,3.64,6.91,-6.91,-6.97,-6.84,-3.27,-3.27,-3.26
243.05,3.56,6.82,3.56,6.82,-6.81,-6.90,-6.83,-3.25,-3.26,-3.26
245.48,3.46,6.71,3.46,6.72,-6.72,-6.82,-6.80,-3.26,-3.25,-3.25
247.93,3.37,6.61,3.37,6.62,-6.62,-6.73,-6.77,-3.25,-3.25,-3.24
250.41,3.28,6.51,3.28,6.51,-6.52,-6.63,-6.73,-3.24,-3.24,-3.23
252.92,3.18,6.41,3.18,6.41,-6.41,-6.52,-6.69,-3.23,-3.23,-3.23
255.45,3.08,6.30,3.08,6.31,-6.31,-6.41,-6.64,-3.23,-3.23,-3.22
258.00,2.98,6.19,2.98,6.20,-6.20,-6.28,-6.58,-3.22,-3.22,-3.21
260.58,2.89,6.10,2.88,6.10,-6.10,-6.16,-6.52,-3.21,-3.21,-3.21
263.19,2.78,5.99,2.78,5.99,-5.99,-6.02,-6.45,-3.21,-3.21,-3.21
265.82,2.67,5.87,2.68,5.88,-5.88,-5.89,-6.38,-3.21,-3.21,-3.20
268.48,2.57,5.77,2.57,5.77,-5.77,-5.75,-6.30,-3.20,-3.21,-3.20
271.16,2.46,5.66,2.46,5.66,-5.66,-5.61,-6.21,-3.20,-3.20,-3.20
273.87,2.35,5.55,2.35,5.55,-5.55,-5.47,-6.13,-3.20,-3.20,-3.20
276.61,2.24,5.43,2.24,5.44,-5.43,-5.34,-6.03,-3.19,-3.20,-3.19
279.38,2.12,5.31,2.12,5.31,-5.32,-5.20,-5.94,-3.20,-3.20,-3.19
282.17,2.00,5.19,2.00,5.19,-5.19,-5.07,-5.84,-3.19,-3.19,-3.19
284.99,1.88,5.06,1.88,5.07,-5.07,-4.94,-5.74,-3.19,-3.19,-3.18
287.84,1.76,4.94,1.76,4.94,-4.94,-4.81,-5.64,-3.18,-3.18,-3.18
290.72,1.64,4.81,1.64,4.81,-4.81,-4.68,-5.54,-3.17,-3.17,-3.17
293.63,1.51,4.68,1.51,4.68,-4.68,-4.55,-5.43,-3.17,-3.17,-3.17
296.57,1.37,4.53,1.38,4.54,-4.54,-4.42,-5.33,-3.17,-3.16,-3.16
299.53,1.24,4.40,1.24,4.40,-4.39,-4.29,-5.22,-3.15,-3.16,-3.16
302.53,1.10,4.25,1.10,4.25,-4.25,-4.17,-5.12,-3.15,-3.15,-3.15
305.55,0.95,4.09,0.96,4.10,-4.10,-4.04,-5.02,-3.15,-3.15,-3.14
308.61,0.82,3.95,0.82,3.95,-3.95,-3.91,-4.91,-3.13,-3.14,-3.13
311.69,0.68,3.80,0.68,3.81,-3.81,-3.79,-4.81,-3.13,-3.12,-3.12
314.81,0.55,3.66,0.55,3.66,-3.66,-3.66,-4.71,-3.11,-3.11,-3.11
317.96,0.41,3.51,0.41,3.51,-3.52,-3.53,-4.61,-3.11,-3.11,-3.10
321.14,0.28,3.37,0.28,3.37,-3.38,-3.41,-4.52,-3.10,-3.10,-3.09
324.35,0.15,3.23,0.15,3.24,-3.24,-3.28,-4.42,-3.09,-3.09,-3.08
327.59,0.04,3.11,0.03,3.11,-3.12,-3.16,-4.33,-3.08,-3.08,-3.07
330.87,-0.08,2.99,-0.08,2.99,-2.99,-3.04,-4.24,-3.07,-3.07,-3.07
334.18,-0.19,2.87,-0.18,2.88,-2.88,-2.92,-4.16,-3.07,-3.06,-3.06
337.52,-0.28,2.78,-0.29,2.77,-2.77,-2.81,-4.07,-3.05,-3.06,-3.06
340.90,-0.39,2.66,-0.39,2.67,-2.67,-2.70,-3.99,-3.06,-3.05,-3.05
344.30,-0.48,2.57,-0.48,2.58,-2.57,-2.60,-3.91,-3.05,-3.05,-3.05
347.75,-0.57,2.48,-0.57,2.48,-2.48,-2.50,-3.83,-3.05,-3.05,-3.05
351.23,-0.65,2.40,-0.65,2.40,-2.40,-2.42,-3.76,-3.05,-3.05,-3.05
354.74,-0.73,2.32,-0.73,2.33,-2.33,-2.35,-3.69,-3.06,-3.06,-3.05
358.28,-0.80,2.26,-0.80,2.26,-2.27,-2.28,-3.62,-3.07,-3.07,-3.06
361.87,-0.85,2.21,-0.85,2.21,-2.22,-2.23,-3.56,-3.07,-3.07,-3.06
365.49,-0.89,2.17,-0.89,2.18,-2.18,-2.20,-3.49,-3.07,-3.07,-3.06
369.14,-0.91,2.15,-0.91,2.15,-2.16,-2.17,-3.43,-3.07,-3.07,-3.06
372.83,-0.92,2.14,-0.92,2.14,-2.14,-2.16,-3.37,-3.06,-3.06,-3.06
376.56,-0.91,2.14,-0.91,2.15,-2.14,-2.16,-3.32,-3.05,-3.06,-3.05
380.33,-0.90,2.15,-0.90,2.16,-2.16,-2.18,-3.27,-3.06,-3.05,-3.05
384.13,-0.87,2.18,-0.87,2.18,-2.18,-2.20,-3.22,-3.05,-3.05,-3.05
387.97,-0.84,2.20,-0.84,2.21,-2.21,-2.23,-3.17,-3.05,-3.05,-3.04
391.85,-0.79,2.25,-0.79,2.25,-2.26,-2.27,-3.12,-3.05,-3.04,-3.04
395.77,-0.73,2.30,-0.73,2.30,-2.31,-2.32,-3.08,-3.04,-3.04,-3.03
399.73,-0.66,2.36,-0.66,2.37,-2.37,-2.37,-3.04,-3.03,-3.03,-3.02
403.72,-0.59,2.43,-0.59,2.43,-2.43,-2.42,-3.00,-3.02,-3.02,-3.02
407.76,-0.51,2.50,-0.51,2.50,-2.50,-2.48,-2.96,-3.01,-3.01,-3.01
411.84,-0.43,2.57,-0.43,2.58,-2.58,-2.55,-2.93,-3.01,-3.01,-3.00
415.96,-0.34,2.65,-0.34,2.66,-2.66,-2.61,-2.89,-3.00,-3.00,-2.99
420.12,-0.25,2.74,-0.25,2.74,-2.74,-2.68,-2.86,-2.99,-2.99,-2.99
424.32,-0.17,2.81,-0.17,2.82,-2.82,-2.75,-2.83,-2.99,-2.99,-2.98
428.56,-0.08,2.89,-0.08,2.89,-2.90,-2.82,-2.80,-2.98,-2.98,-2.97
432.85,-0.00,2.96,0.00,2.97,-2.97,-2.89,-2.77,-2.97,-2.97,-2.96
437.18,0.08,3.03,0.08,3.04,-3.03,-2.97,-2.75,-2.95,-2.95,-2.95
441.55,0.16,3.10,0.16,3.10,-3.09,-3.04,-2.72,-2.93,-2.93,-2.94
445.96,0.22,3.15,0.22,3.15,-3.14,-3.10,-2.70,-2.92,-2.92,-2.93
450.42,0.26,3.18,0.26,3.18,-3.17,-3.16,-2.67,-2.91,-2.92,-2.92
454.93,0.28,3.19,0.29,3.20,-3.20,-3.22,-2.65,-2.92,-2.92,-2.91
