frequency,raw,error,smoothed,error_smoothed,equalization,parametric_eq,fixed_band_eq,equalized_raw,equalized_smoothed,target
20.00,12.23,5.28,12.23,5.28,-5.28,-5.31,-2.22,6.95,6.95,6.95
20.20,12.21,5.28,12.22,5.28,-5.28,-5.30,-2.29,6.93,6.94,6.93
20.40,12.19,5.27,12.20,5.27,-5.27,-5.28,-2.35,6.92,6.92,6.92
20.61,12.18,5.26,12.18,5.27,-5.27,-5.27,-2.42,6.92,6.91,6.92
20.81,12.16,5.26,12.16,5.26,-5.26,-5.26,-2.49,6.90,6.90,6.90
21.02,12.14,5.25,12.14,5.25,-5.25,-5.25,-2.56,6.89,6.89,6.89
21.23,12.12,5.24,12.12,5.24,-5.24,-5.23,-2.63,6.88,6.88,6.88
21.44,12.10,5.22,12.11,5.23,-5.23,-5.22,-2.71,6.87,6.88,6.89
21.66,12.09,5.22,12.09,5.21,-5.22,-5.21,-2.78,6.88,6.87,6.88
21.87,12.07,5.21,12.07,5.20,-5.20,-5.19,-2.86,6.87,6.87,6.87
22.09,12.05,5.20,12.06,5.20,-5.19,-5.18,-2.95,6.87,6.87,6.86
22.31,12.03,5.18,12.03,5.18,-5.17,-5.16,-3.03,6.86,6.86,6.86
22.54,12.00,5.16,12.00,5.15,-5.15,-5.15,-3.12,6.85,6.85,6.85
22.76,11.97,5.12,11.98,5.13,-5.13,-5.13,-3.20,6.84,6.85,6.86
22.99,11.95,5.11,11.95,5.11,-5.11,-5.12,-3.29,6.84,6.84,6.85
23.22,11.92,5.09,11.93,5.09,-5.09,-5.10,-3.39,6.83,6.84,6.83
23.45,11.90,5.07,11.90,5.07,-5.07,-5.09,-3.48,6.84,6.84,6.83
23.69,11.88,5.05,11.88,5.05,-5.05,-5.07,-3.58,6.84,6.84,6.83
23.92,11.86,5.03,11.86,5.03,-5.03,-5.06,-3.68,6.83,6.84,6.83
24.16,11.84,5.01,11.85,5.01,-5.01,-5.04,-3.78,6.83,6.83,6.83
24.40,11.83,4.99,11.83,4.99,-5.00,-5.02,-3.88,6.84,6.83,6.84
24.65,11.81,4.97,11.82,4.98,-4.98,-5.01,-3.99,6.83,6.83,6.84
24.89,11.80,4.97,11.80,4.97,-4.97,-4.99,-4.09,6.83,6.83,6.83
25.14,11.78,4.96,11.79,4.96,-4.96,-4.98,-4.20,6.82,6.82,6.82
25.39,11.77,4.96,11.77,4.96,-4.95,-4.96,-4.30,6.82,6.82,6.82
25.65,11.75,4.95,11.76,4.95,-4.94,-4.95,-4.41,6.81,6.82,6.81
25.91,11.74,4.94,11.74,4.93,-4.93,-4.93,-4.52,6.81,6.81,6.81
26.16,11.73,4.92,11.73,4.92,-4.92,-4.92,-4.63,6.81,6.81,6.82
26.43,11.71,4.91,11.72,4.91,-4.91,-4.90,-4.74,6.80,6.80,6.81
26.69,11.70,4.90,11.70,4.90,-4.90,-4.89,-4.84,6.80,6.80,6.80
26.96,11.69,4.89,11.69,4.89,-4.89,-4.88,-4.95,6.80,6.80,6.80
27.23,11.67,4.88,11.68,4.88,-4.88,-4.86,-5.05,6.80,6.80,6.79
27.50,11.66,4.87,11.66,4.87,-4.86,-4.85,-5.15,6.80,6.80,6.79
27.77,11.64,4.84,11.65,4.85,-4.85,-4.83,-5.25,6.79,6.80,6.80
28.05,11.63,4.84,11.63,4.84,-4.84,-4.82,-5.34,6.80,6.80,6.80
28.33,11.62,4.83,11.62,4.82,-4.82,-4.81,-5.43,6.80,6.80,6.80
28.62,11.60,4.81,11.61,4.81,-4.81,-4.80,-5.51,6.80,6.80,6.80
28.90,11.59,4.79,11.59,4.79,-4.79,-4.78,-5.59,6.80,6.80,6.80
29.19,11.57,4.77,11.58,4.78,-4.77,-4.77,-5.67,6.80,6.80,6.80
29.48,11.56,4.76,11.56,4.76,-4.76,-4.76,-5.73,6.80,6.80,6.80
29.78,11.55,4.75,11.55,4.74,-4.74,-4.75,-5.79,6.81,6.81,6.80
30.08,11.53,4.72,11.54,4.73,-4.73,-4.74,-5.84,6.81,6.81,6.82
30.38,11.52,4.72,11.52,4.71,-4.72,-4.73,-5.89,6.81,6.81,6.81
30.68,11.50,4.70,11.51,4.70,-4.70,-4.72,-5.92,6.80,6.80,6.80
30.99,11.49,4.69,11.49,4.69,-4.69,-4.71,-5.95,6.80,6.80,6.80
31.30,11.48,4.68,11.48,4.68,-4.68,-4.70,-5.97,6.80,6.80,6.80
31.61,11.46,4.66,11.47,4.67,-4.67,-4.69,-5.98,6.79,6.80,6.80
31.93,11.45,4.67,11.45,4.66,-4.66,-4.68,-5.98,6.79,6.79,6.79
32.24,11.43,4.65,11.44,4.65,-4.65,-4.67,-5.98,6.78,6.78,6.79
32.57,11.42,4.65,11.42,4.65,-4.64,-4.66,-5.96,6.78,6.78,6.77
32.89,11.40,4.63,11.41,4.63,-4.64,-4.65,-5.94,6.77,6.77,6.77
33.22,11.39,4.63,11.39,4.63,-4.63,-4.64,-5.91,6.77,6.77,6.77
33.55,11.38,4.62,11.38,4.62,-4.62,-4.63,-5.88,6.77,6.76,6.77
33.89,11.36,4.61,11.37,4.61,-4.61,-4.63,-5.84,6.75,6.76,6.75
34.23,11.35,4.61,11.35,4.61,-4.61,-4.62,-5.79,6.75,6.75,6.74
34.57,11.33,4.60,11.34,4.60,-4.60,-4.61,-5.74,6.73,6.73,6.74
34.92,11.32,4.60,11.32,4.60,-4.60,-4.60,-5.69,6.72,6.72,6.72
35.27,11.31,4.58,11.31,4.59,-4.60,-4.60,-5.63,6.71,6.71,6.73
35.62,11.30,4.61,11.30,4.60,-4.60,-4.59,-5.57,6.70,6.70,6.70
35.97,11.29,4.60,11.29,4.60,-4.60,-4.58,-5.50,6.69,6.70,6.70
36.33,11.28,4.60,11.29,4.61,-4.60,-4.58,-5.44,6.69,6.69,6.68
36.70,11.27,4.61,11.27,4.60,-4.59,-4.57,-5.37,6.68,6.68,6.67
37.06,11.25,4.60,11.25,4.60,-4.59,-4.57,-5.31,6.66,6.66,6.65
37.43,11.22,4.58,11.23,4.58,-4.58,-4.56,-5.24,6.64,6.64,6.64
37.81,11.19,4.57,11.19,4.57,-4.57,-4.56,-5.17,6.62,6.62,6.63
38.19,11.16,4.56,11.16,4.56,-4.56,-4.55,-5.11,6.60,6.60,6.60
38.57,11.13,4.55,11.13,4.55,-4.55,-4.55,-5.04,6.58,6.58,6.59
38.95,11.10,4.54,11.10,4.54,-4.54,-4.54,-4.98,6.56,6.56,6.56
39.34,11.07,4.53,11.07,4.53,-4.54,-4.54,-4.92,6.54,6.54,6.54
39.74,11.04,4.52,11.05,4.53,-4.53,-4.53,-4.86,6.52,6.52,6.52
40.14,11.02,4.52,11.02,4.52,-4.52,-4.53,-4.81,6.50,6.50,6.50
40.54,11.00,4.52,11.00,4.52,-4.51,-4.53,-4.75,6.49,6.49,6.48
40.94,10.97,4.51,10.97,4.51,-4.50,-4.52,-4.70,6.47,6.47,6.46
41.35,10.94,4.50,10.94,4.50,-4.50,-4.52,-4.65,6.45,6.45,6.44
41.76,10.91,4.49,10.91,4.49,-4.49,-4.51,-4.61,6.43,6.43,6.43
42.18,10.88,4.47,10.88,4.48,-4.48,-4.51,-4.57,6.40,6.40,6.41
42.60,10.85,4.47,10.85,4.47,-4.48,-4.51,-4.53,6.38,6.38,6.38
43.03,10.82,4.47,10.83,4.46,-4.47,-4.50,-4.49,6.35,6.36,6.36
43.46,10.80,4.46,10.80,4.46,-4.47,-4.50,-4.46,6.34,6.34,6.34
43.90,10.78,4.47,10.78,4.47,-4.47,-4.50,-4.43,6.32,6.32,6.31
44.33,10.76,4.47,10.77,4.47,-4.47,-4.49,-4.41,6.30,6.30,6.30
44.78,10.74,4.47,10.74,4.47,-4.46,-4.49,-4.39,6.28,6.28,6.27
45.23,10.71,4.46,10.71,4.47,-4.46,-4.49,-4.37,6.25,6.25,6.25
45.68,10.67,4.46,10.68,4.46,-4.45,-4.49,-4.36,6.22,6.22,6.21
46.13,10.63,4.46,10.63,4.45,-4.45,-4.48,-4.35,6.19,6.19,6.17
46.60,10.59,4.45,10.59,4.44,-4.44,-4.48,-4.34,6.15,6.15,6.15
47.06,10.54,4.43,10.55,4.43,-4.44,-4.48,-4.33,6.11,6.11,6.12
47.53,10.50,4.42,10.50,4.42,-4.44,-4.47,-4.33,6.07,6.07,6.09
48.01,10.46,4.43,10.47,4.42,-4.44,-4.47,-4.33,6.03,6.03,6.04
48.49,10.43,4.43,10.44,4.43,-4.44,-4.47,-4.34,5.99,6.00,6.01
48.97,10.41,4.45,10.41,4.45,-4.44,-4.46,-4.35,5.97,5.97,5.97
49.46,10.39,4.46,10.39,4.46,-4.45,-4.46,-4.36,5.94,5.94,5.94
49.96,10.36,4.48,10.36,4.47,-4.45,-4.46,-4.37,5.91,5.91,5.88
50.46,10.33,4.47,10.33,4.47,-4.46,-4.45,-4.38,5.88,5.87,5.86
50.96,10.28,4.45,10.29,4.46,-4.46,-4.45,-4.40,5.83,5.83,5.83
51.47,10.24,4.45,10.25,4.45,-4.46,-4.45,-4.42,5.79,5.79,5.80
51.99,10.21,4.45,10.21,4.44,-4.45,-4.44,-4.44,5.76,5.76,5.76
52.51,10.17,4.44,10.18,4.44,-4.45,-4.44,-4.46,5.73,5.73,5.73
53.03,10.14,4.44,10.14,4.44,-4.44,-4.44,-4.48,5.70,5.70,5.71
53.56,10.10,4.44,10.10,4.44,-4.44,-4.43,-4.50,5.66,5.67,5.66
54.10,10.06,4.44,10.06,4.44,-4.43,-4.43,-4.52,5.63,5.63,5.63
54.64,10.02,4.43,10.02,4.44,-4.43,-4.42,-4.55,5.59,5.59,5.59
55.18,9.97,4.43,9.98,4.43,-4.42,-4.42,-4.57,5.55,5.55,5.55
55.74,9.93,4.42,9.93,4.41,-4.41,-4.41,-4.59,5.52,5.52,5.51
56.29,9.88,4.39,9.89,4.40,-4.40,-4.41,-4.61,5.49,5.49,5.49
56.86,9.84,4.38,9.85,4.39,-4.38,-4.40,-4.63,5.46,5.46,5.46
57.42,9.80,4.38,9.80,4.37,-4.37,-4.40,-4.65,5.44,5.44,5.43
58.00,9.76,4.37,9.76,4.36,-4.35,-4.39,-4.66,5.41,5.41,5.40
58.58,9.71,4.33,9.72,4.34,-4.34,-4.39,-4.67,5.37,5.38,5.39
59.16,9.67,4.32,9.67,4.32,-4.33,-4.38,-4.68,5.34,5.34,5.36
59.76,9.63,4.31,9.64,4.31,-4.33,-4.38,-4.69,5.31,5.31,5.33
60.35,9.60,4.32,9.60,4.32,-4.32,-4.37,-4.69,5.28,5.28,5.28
60.96,9.56,4.32,9.57,4.33,-4.33,-4.37,-4.69,5.24,5.24,5.24
61.57,9.53,4.34,9.53,4.34,-4.33,-4.36,-4.69,5.20,5.20,5.19
62.18,9.49,4.35,9.49,4.34,-4.34,-4.35,-4.68,5.16,5.15,5.15
62.80,9.44,4.34,9.45,4.35,-4.34,-4.35,-4.67,5.10,5.10,5.10
63.43,9.40,4.35,9.40,4.35,-4.35,-4.34,-4.65,5.06,5.06,5.06
64.07,9.36,4.34,9.37,4.35,-4.35,-4.33,-4.63,5.02,5.02,5.02
64.71,9.33,4.35,9.33,4.35,-4.35,-4.32,-4.60,4.99,4.99,4.98
65.35,9.29,4.35,9.29,4.34,-4.34,-4.32,-4.58,4.96,4.95,4.95
66.01,9.24,4.34,9.25,4.33,-4.33,-4.31,-4.55,4.92,4.92,4.91
66.67,9.19,4.31,9.19,4.32,-4.31,-4.30,-4.51,4.88,4.88,4.88
67.33,9.13,4.30,9.13,4.30,-4.30,-4.29,-4.47,4.83,4.83,4.83
68.01,9.07,4.28,9.07,4.28,-4.29,-4.28,-4.43,4.79,4.79,4.79
68.69,9.01,4.27,9.02,4.27,-4.27,-4.27,-4.39,4.74,4.74,4.75
69.37,8.96,4.25,8.97,4.25,-4.26,-4.26,-4.34,4.70,4.70,4.72
70.07,8.92,4.24,8.92,4.25,-4.25,-4.25,-4.30,4.67,4.67,4.68
70.77,8.88,4.24,8.88,4.25,-4.24,-4.24,-4.25,4.64,4.64,4.64
71.48,8.84,4.25,8.84,4.24,-4.23,-4.23,-4.20,4.61,4.60,4.59
72.19,8.78,4.23,8.78,4.23,-4.23,-4.22,-4.15,4.56,4.56,4.55
72.91,8.72,4.21,8.73,4.22,-4.22,-4.21,-4.10,4.50,4.50,4.51
73.64,8.67,4.21,8.68,4.21,-4.22,-4.20,-4.05,4.46,4.46,4.47
74.38,8.63,4.21,8.64,4.21,-4.21,-4.19,-4.00,4.43,4.43,4.43
75.12,8.60,4.21,8.60,4.20,-4.20,-4.18,-3.94,4.41,4.40,4.40
75.87,8.56,4.20,8.56,4.19,-4.19,-4.16,-3.90,4.38,4.37,4.37
76.63,8.51,4.18,8.51,4.18,-4.17,-4.15,-3.85,4.34,4.34,4.34
77.40,8.46,4.16,8.46,4.16,-4.16,-4.14,-3.80,4.30,4.30,4.31
78.17,8.41,4.14,8.42,4.14,-4.15,-4.12,-3.75,4.27,4.27,4.27
78.95,8.37,4.12,8.38,4.13,-4.13,-4.11,-3.71,4.24,4.25,4.25
79.74,8.34,4.12,8.34,4.12,-4.11,-4.10,-3.67,4.23,4.23,4.23
80.54,8.29,4.10,8.29,4.10,-4.09,-4.08,-3.63,4.20,4.20,4.19
81.35,8.24,4.08,8.24,4.08,-4.07,-4.07,-3.59,4.17,4.17,4.17
82.16,8.18,4.04,8.18,4.05,-4.05,-4.05,-3.55,4.13,4.13,4.14
82.98,8.12,4.02,8.12,4.02,-4.03,-4.04,-3.52,4.09,4.10,4.10
83.81,8.06,4.00,8.07,4.00,-4.01,-4.02,-3.49,4.06,4.06,4.06
84.65,8.01,3.98,8.01,3.98,-3.98,-4.01,-3.46,4.03,4.03,4.04
85.50,7.96,3.97,7.96,3.96,-3.96,-3.99,-3.43,4.00,4.00,4.00
86.35,7.91,3.95,7.91,3.95,-3.94,-3.98,-3.40,3.97,3.97,3.97
87.22,7.85,3.92,7.85,3.92,-3.92,-3.96,-3.38,3.93,3.93,3.93
88.09,7.79,3.90,7.80,3.90,-3.90,-3.94,-3.36,3.89,3.89,3.89
88.97,7.73,3.87,7.74,3.88,-3.88,-3.93,-3.35,3.85,3.86,3.86
89.86,7.68,3.87,7.68,3.86,-3.86,-3.91,-3.33,3.82,3.82,3.82
90.76,7.62,3.84,7.63,3.84,-3.84,-3.89,-3.32,3.78,3.79,3.78
91.66,7.57,3.82,7.57,3.82,-3.82,-3.87,-3.31,3.75,3.75,3.75
92.58,7.52,3.81,7.52,3.80,-3.80,-3.85,-3.31,3.72,3.72,3.72
93.51,7.46,3.78,7.47,3.78,-3.79,-3.84,-3.30,3.67,3.68,3.68
94.44,7.41,3.77,7.41,3.77,-3.78,-3.82,-3.30,3.64,3.64,3.65
95.39,7.35,3.75,7.36,3.76,-3.76,-3.80,-3.30,3.59,3.59,3.60
96.34,7.31,3.76,7.31,3.75,-3.75,-3.78,-3.30,3.56,3.56,3.55
97.30,7.26,3.75,7.26,3.75,-3.74,-3.76,-3.31,3.52,3.52,3.52
98.28,7.21,3.73,7.21,3.74,-3.73,-3.74,-3.32,3.48,3.48,3.48
99.26,7.16,3.73,7.16,3.73,-3.72,-3.72,-3.32,3.44,3.44,3.43
100.25,7.11,3.72,7.11,3.71,-3.71,-3.70,-3.33,3.41,3.41,3.40
101.25,7.06,3.68,7.06,3.69,-3.69,-3.67,-3.35,3.37,3.37,3.38
102.27,7.01,3.67,7.01,3.67,-3.67,-3.65,-3.36,3.34,3.34,3.34
103.29,6.96,3.66,6.96,3.65,-3.65,-3.63,-3.37,3.31,3.31,3.30
104.32,6.91,3.63,6.91,3.63,-3.63,-3.61,-3.39,3.28,3.28,3.29
105.37,6.85,3.61,6.86,3.61,-3.61,-3.59,-3.40,3.25,3.25,3.25
106.42,6.80,3.58,6.80,3.58,-3.59,-3.56,-3.42,3.22,3.21,3.22
107.48,6.74,3.56,6.75,3.56,-3.57,-3.54,-3.44,3.18,3.18,3.18
108.56,6.69,3.54,6.70,3.54,-3.54,-3.52,-3.45,3.15,3.15,3.15
109.64,6.64,3.53,6.64,3.52,-3.52,-3.50,-3.47,3.12,3.12,3.12
110.74,6.59,3.50,6.59,3.51,-3.50,-3.47,-3.48,3.09,3.09,3.09
111.85,6.53,3.48,6.54,3.49,-3.48,-3.45,-3.50,3.05,3.06,3.05
112.97,6.48,3.47,6.48,3.46,-3.46,-3.42,-3.51,3.02,3.02,3.01
114.10,6.42,3.44,6.42,3.44,-3.44,-3.40,-3.52,2.98,2.98,2.99
115.24,6.35,3.41,6.36,3.41,-3.42,-3.38,-3.53,2.94,2.94,2.94
116.39,6.29,3.40,6.29,3.39,-3.39,-3.35,-3.54,2.90,2.90,2.90
117.55,6.23,3.36,6.24,3.37,-3.37,-3.33,-3.54,2.86,2.87,2.87
118.73,6.18,3.36,6.18,3.35,-3.34,-3.30,-3.54,2.84,2.84,2.83
119.92,6.12,3.32,6.12,3.32,-3.32,-3.28,-3.54,2.81,2.81,2.80
121.12,6.06,3.29,6.06,3.29,-3.29,-3.25,-3.54,2.77,2.77,2.78
122.33,6.00,3.26,6.00,3.26,-3.26,-3.22,-3.53,2.74,2.74,2.74
123.55,5.94,3.23,5.94,3.23,-3.24,-3.20,-3.52,2.71,2.71,2.71
124.79,5.88,3.20,5.89,3.21,-3.21,-3.17,-3.51,2.68,2.68,2.69
126.03,5.83,3.19,5.83,3.18,-3.18,-3.15,-3.49,2.66,2.65,2.65
127.29,5.77,3.16,5.77,3.15,-3.15,-3.12,-3.47,2.62,2.62,2.62
128.57,5.70,3.12,5.70,3.12,-3.12,-3.09,-3.45,2.58,2.58,2.58
129.85,5.63,3.09,5.64,3.09,-3.10,-3.07,-3.42,2.54,2.54,2.54
131.15,5.57,3.07,5.57,3.07,-3.07,-3.04,-3.39,2.50,2.50,2.51
132.46,5.51,3.05,5.52,3.05,-3.05,-3.01,-3.36,2.47,2.47,2.47
133.79,5.46,3.03,5.46,3.03,-3.02,-2.98,-3.32,2.44,2.44,2.43
135.12,5.40,3.01,5.40,3.00,-3.00,-2.96,-3.28,2.41,2.40,2.39
136.48,5.33,2.96,5.34,2.97,-2.97,-2.93,-3.24,2.36,2.37,2.38
137.84,5.27,2.93,5.28,2.94,-2.95,-2.90,-3.20,2.33,2.33,2.34
139.22,5.22,2.93,5.22,2.92,-2.92,-2.87,-3.15,2.31,2.31,2.30
140.61,5.17,2.90,5.17,2.90,-2.89,-2.84,-3.10,2.29,2.28,2.27
142.02,5.10,2.86,5.10,2.86,-2.85,-2.82,-3.05,2.25,2.25,2.24
143.44,5.03,2.82,5.04,2.82,-2.82,-2.79,-3.00,2.21,2.22,2.21
144.87,4.97,2.77,4.97,2.78,-2.79,-2.76,-2.95,2.19,2.19,2.20
146.32,4.91,2.74,4.92,2.75,-2.75,-2.73,-2.90,2.16,2.16,2.17
147.78,4.86,2.71,4.86,2.72,-2.72,-2.70,-2.85,2.15,2.15,2.15
149.26,4.81,2.69,4.81,2.69,-2.68,-2.67,-2.79,2.13,2.12,2.12
150.75,4.74,2.65,4.75,2.65,-2.65,-2.64,-2.74,2.10,2.10,2.09
152.26,4.68,2.61,4.69,2.61,-2.61,-2.61,-2.69,2.07,2.07,2.08
153.78,4.62,2.57,4.63,2.58,-2.58,-2.58,-2.64,2.05,2.05,2.05
155.32,4.57,2.55,4.57,2.54,-2.54,-2.55,-2.59,2.03,2.03,2.03
156.88,4.51,2.51,4.51,2.51,-2.51,-2.53,-2.54,2.01,2.00,2.00
158.44,4.44,2.47,4.44,2.47,-2.47,-2.50,-2.49,1.97,1.97,1.97
160.03,4.37,2.43,4.38,2.43,-2.44,-2.47,-2.44,1.93,1.94,1.95
161.63,4.31,2.40,4.31,2.40,-2.40,-2.44,-2.39,1.91,1.91,1.92
163.24,4.25,2.38,4.25,2.38,-2.37,-2.41,-2.35,1.88,1.88,1.87
164.88,4.19,2.35,4.19,2.34,-2.34,-2.38,-2.30,1.86,1.85,1.84
166.53,4.12,2.31,4.12,2.31,-2.30,-2.35,-2.26,1.82,1.82,1.82
168.19,4.04,2.26,4.05,2.27,-2.27,-2.32,-2.22,1.77,1.78,1.79
169.87,3.98,2.23,3.98,2.23,-2.24,-2.29,-2.17,1.75,1.75,1.75
171.57,3.92,2.20,3.92,2.20,-2.20,-2.26,-2.14,1.72,1.72,1.72
173.29,3.86,2.18,3.86,2.18,-2.17,-2.23,-2.10,1.69,1.69,1.69
175.02,3.79,2.14,3.79,2.14,-2.14,-2.20,-2.06,1.66,1.66,1.65
176.77,3.72,2.11,3.72,2.10,-2.10,-2.17,-2.03,1.62,1.62,1.62
178.54,3.65,2.06,3.65,2.07,-2.07,-2.14,-2.00,1.58,1.58,1.59
180.32,3.58,2.03,3.59,2.03,-2.04,-2.11,-1.96,1.54,1.55,1.55
182.13,3.52,2.01,3.52,2.01,-2.01,-2.08,-1.93,1.51,1.51,1.52
183.95,3.46,1.98,3.46,1.98,-1.98,-2.05,-1.91,1.49,1.49,1.49
185.79,3.39,1.95,3.39,1.95,-1.94,-2.02,-1.88,1.45,1.45,1.44
187.65,3.32,1.91,3.32,1.91,-1.91,-1.99,-1.85,1.42,1.42,1.41
189.52,3.24,1.87,3.25,1.87,-1.87,-1.96,-1.83,1.37,1.38,1.37
191.42,3.17,1.83,3.17,1.83,-1.83,-1.93,-1.81,1.34,1.34,1.35
193.33,3.10,1.79,3.10,1.79,-1.79,-1.90,-1.79,1.31,1.31,1.32
195.27,3.02,1.75,3.02,1.74,-1.75,-1.87,-1.77,1.28,1.28,1.28
197.22,2.94,1.70,2.95,1.70,-1.70,-1.83,-1.75,1.24,1.25,1.24
199.19,2.87,1.65,2.87,1.66,-1.65,-1.80,-1.73,1.22,1.22,1.22
201.18,2.80,1.62,2.80,1.61,-1.60,-1.77,-1.71,1.20,1.20,1.19
203.19,2.72,1.55,2.72,1.55,-1.55,-1.74,-1.70,1.17,1.17,1.17
205.23,2.64,1.50,2.64,1.49,-1.49,-1.71,-1.68,1.15,1.15,1.15
207.28,2.55,1.42,2.56,1.43,-1.43,-1.68,-1.67,1.12,1.13,1.13
209.35,2.47,1.38,2.48,1.37,-1.37,-1.65,-1.65,1.11,1.11,1.10
211.44,2.39,1.32,2.39,1.31,-1.31,-1.62,-1.64,1.09,1.09,1.07
213.56,2.31,1.25,2.31,1.25,-1.24,-1.59,-1.63,1.07,1.06,1.06
215.69,2.21,1.18,2.22,1.18,-1.18,-1.56,-1.62,1.03,1.04,1.04
217.85,2.13,1.12,2.14,1.12,-1.13,-1.53,-1.60,1.00,1.01,1.02
220.03,2.07,1.08,2.07,1.08,-1.08,-1.50,-1.59,0.99,0.99,0.99
222.23,2.01,1.04,2.01,1.04,-1.05,-1.47,-1.58,0.97,0.97,0.97
224.45,1.96,1.01,1.97,1.01,-1.02,-1.44,-1.56,0.95,0.95,0.95
226.70,1.93,0.99,1.93,0.99,-1.00,-1.41,-1.55,0.94,0.94,0.94
228.96,1.91,0.98,1.91,0.99,-0.99,-1.38,-1.54,0.92,0.92,0.93
231.25,1.90,0.99,1.90,0.99,-0.99,-1.35,-1.52,0.91,0.91,0.91
233.57,1.90,1.00,1.90,1.00,-1.00,-1.32,-1.51,0.90,0.89,0.90
235.90,1.90,1.02,1.91,1.02,-1.03,-1.29,-1.49,0.88,0.88,0.88
238.26,1.92,1.05,1.93,1.05,-1.05,-1.26,-1.47,0.87,0.87,0.87
240.64,1.96,1.08,1.96,1.08,-1.09,-1.23,-1.45,0.88,0.87,0.88
243.05,1.99,1.12,1.99,1.12,-1.12,-1.20,-1.43,0.87,0.87,0.88
245.48,2.02,1.17,2.03,1.16,-1.16,-1.17,-1.41,0.86,0.87,0.86
247.93,2.06,1.21,2.06,1.20,-1.20,-1.14,-1.39,0.87,0.87,0.85
250.41,2.09,1.23,2.09,1.24,-1.23,-1.11,-1.36,0.87,0.87,0.86
252.92,2.12,1.26,2.12,1.26,-1.25,-1.08,-1.33,0.87,0.87,0.87
255.45,2.14,1.28,2.14,1.28,-1.28,-1.05,-1.31,0.87,0.87,0.86
258.00,2.15,1.29,2.16,1.30,-1.29,-1.02,-1.28,0.86,0.86,0.86
260.58,2.16,1.31,2.16,1.30,-1.30,-0.99,-1.25,0.86,0.86,0.86
263.19,2.16,1.30,2.16,1.31,-1.31,-0.96,-1.21,0.85,0.86,0.86
265.82,2.16,1.31,2.16,1.31,-1.31,-0.93,-1.18,0.85,0.85,0.85
268.48,2.16,1.31,2.16,1.31,-1.31,-0.90,-1.14,0.85,0.85,0.86
271.16,2.16,1.31,2.16,1.31,-1.31,-0.87,-1.11,0.85,0.85,0.85
273.87,2.16,1.31,2.16,1.31,-1.31,-0.84,-1.07,0.85,0.85,0.86
276.61,2.15,1.30,2.15,1.31,-1.31,-0.81,-1.03,0.85,0.85,0.85
279.38,2.14,1.31,2.15,1.30,-1.30,-0.78,-0.99,0.85,0.85,0.84
282.17,2.13,1.28,2.14,1.28,-1.28,-0.75,-0.95,0.85,0.85,0.85
284.99,2.12,1.27,2.12,1.27,-1.26,-0.72,-0.91,0.86,0.86,0.86
287.84,2.10,1.24,2.10,1.25,-1.24,-0.69,-0.86,0.87,0.86,0.86
290.72,2.07,1.22,2.07,1.22,-1.21,-0.66,-0.82,0.87,0.87,0.85
293.63,2.03,1.18,2.03,1.17,-1.17,-0.63,-0.78,0.87,0.86,0.86
296.57,1.98,1.11,1.99,1.12,-1.12,-0.60,-0.73,0.86,0.86,0.87
299.53,1.93,1.07,1.94,1.07,-1.07,-0.57,-0.68,0.86,0.86,0.87
302.53,1.89,1.02,1.89,1.02,-1.02,-0.53,-0.64,0.87,0.87,0.87
305.55,1.84,0.96,1.84,0.96,-0.96,-0.50,-0.59,0.88,0.88,0.88
308.61,1.79,0.91,1.79,0.90,-0.90,-0.47,-0.55,0.89,0.89,0.89
311.69,1.73,0.84,1.74,0.84,-0.84,-0.44,-0.50,0.90,0.90,0.89
314.81,1.68,0.78,1.68,0.78,-0.78,-0.41,-0.45,0.91,0.90,0.90
317.96,1.62,0.72,1.62,0.72,-0.72,-0.38,-0.40,0.91,0.90,0.91
321.14,1.56,0.65,1.57,0.65,-0.66,-0.35,-0.36,0.90,0.91,0.92
324.35,1.51,0.60,1.51,0.59,-0.60,-0.32,-0.31,0.91,0.91,0.91
327.59,1.46,0.52,1.47,0.54,-0.55,-0.28,-0.26,0.92,0.92,0.94
330.87,1.43,0.50,1.43,0.49,-0.49,-0.25,-0.21,0.94,0.94,0.94
334.18,1.39,0.46,1.39,0.45,-0.44,-0.22,-0.16,0.96,0.95,0.94
337.52,1.34,0.39,1.34,0.39,-0.39,-0.19,-0.11,0.96,0.95,0.95
340.90,1.29,0.33,1.29,0.34,-0.34,-0.16,-0.07,0.95,0.96,0.96
344.30,1.24,0.28,1.25,0.28,-0.29,-0.13,-0.02,0.95,0.96,0.97
347.75,1.21,0.24,1.21,0.23,-0.24,-0.09,0.03,0.98,0.98,0.98
351.23,1.17,0.19,1.17,0.18,-0.18,-0.06,0.08,0.99,0.99,0.98
354.74,1.13,0.13,1.13,0.13,-0.12,-0.03,0.13,1.01,1.01,1.00
358.28,1.07,0.07,1.07,0.07,-0.06,0.01,0.18,1.01,1.01,1.00
361.87,1.01,0.01,1.01,0.01,-0.00,0.04,0.23,1.01,1.01,1.00
365.49,0.95,-0.06,0.95,-0.06,0.06,0.07,0.28,1.01,1.01,1.02
369.14,0.89,-0.13,0.90,-0.13,0.12,0.11,0.33,1.01,1.01,1.03
372.83,0.84,-0.19,0.84,-0.19,0.18,0.14,0.38,1.02,1.02,1.03
376.56,0.79,-0.24,0.80,-0.24,0.23,0.17,0.43,1.03,1.03,1.03
380.33,0.75,-0.29,0.75,-0.29,0.29,0.21,0.48,1.04,1.04,1.04
384.13,0.71,-0.34,0.71,-0.34,0.34,0.24,0.53,1.06,1.05,1.05
387.97,0.67,-0.38,0.67,-0.39,0.39,0.28,0.58,1.07,1.07,1.06
391.85,0.63,-0.44,0.63,-0.44,0.44,0.31,0.63,1.07,1.07,1.08
395.77,0.59,-0.48,0.59,-0.49,0.49,0.35,0.68,1.08,1.08,1.08
399.73,0.55,-0.53,0.55,-0.54,0.54,0.38,0.73,1.09,1.09,1.08
403.72,0.51,-0.59,0.52,-0.58,0.58,0.42,0.78,1.10,1.10,1.10
407.76,0.48,-0.63,0.48,-0.63,0.63,0.45,0.83,1.11,1.11,1.11
411.84,0.44,-0.68,0.45,-0.68,0.67,0.49,0.88,1.11,1.11,1.12
415.96,0.41,-0.72,0.41,-0.71,0.71,0.53,0.93,1.12,1.12,1.13
420.12,0.38,-0.75,0.39,-0.75,0.74,0.56,0.97,1.13,1.13,1.13
424.32,0.36,-0.78,0.36,-0.78,0.78,0.60,1.02,1.14,1.14,1.14
428.56,0.34,-0.81,0.34,-0.81,0.81,0.64,1.07,1.16,1.16,1.16
432.85,0.32,-0.85,0.32,-0.85,0.85,0.67,1.12,1.17,1.17,1.18
437.18,0.29,-0.87,0.29,-0.88,0.89,0.71,1.16,1.18,1.18,1.17
441.55,0.25,-0.92,0.26,-0.92,0.93,0.75,1.20,1.19,1.19,1.18
445.96,0.21,-0.97,0.21,-0.97,0.98,0.79,1.25,1.19,1.19,1.18
450.42,0.17,-1.02,0.17,-1.02,1.02,0.83,1.29,1.20,1.19,1.19
454.93,0.12,-1.08,0.13,-1.08,1.07,0.87,1.33,1.20,1.20,1.20
459.48,0.08,-1.13,0.09,-1.13,1.12,0.91,1.37,1.20,1.20,1.21
464.07,0.05,-1.18,0.05,-1.17,1.16,0.95,1.40,1.22,1.21,1.23
468.71,0.02,-1.21,0.03,-1.21,1.20,0.98,1.44,1.23,1.23,1.23
473.40,0.00,-1.24,0.00,-1.24,1.24,1.02,1.47,1.25,1.25,1.24
478.13,-0.03,-1.28,-0.02,-1.27,1.28,1.06,1.50,1.26,1.26,1.25
482.91,-0.05,-1.31,-0.05,-1.31,1.32,1.11,1.53,1.27,1.27,1.26
487.74,-0.08,-1.35,-0.08,-1.34,1.35,1.15,1.55,1.27,1.27,1.27
492.62,-0.10,-1.37,-0.10,-1.38,1.38,1.19,1.58,1.28,1.28,1.28
497.55,-0.13,-1.41,-0.12,-1.41,1.40,1.23,1.60,1.28,1.28,1.29
502.52,-0.14,-1.43,-0.14,-1.44,1.43,1.27,1.61,1.29,1.29,1.30
507.55,-0.15,-1.46,-0.14,-1.46,1.45,1.31,1.63,1.30,1.30,1.32
512.62,-0.14,-1.46,-0.14,-1.47,1.46,1.35,1.64,1.32,1.32,1.33
517.75,-0.14,-1.48,-0.13,-1.48,1.47,1.39,1.66,1.34,1.34,1.35
522.93,-0.13,-1.48,-0.13,-1.48,1.49,1.43,1.67,1.36,1.36,1.36
528.16,-0.13,-1.49,-0.13,-1.49,1.50,1.47,1.67,1.38,1.38,1.37
