frequency,raw,error,smoothed,error_smoothed,equalization,parametric_eq,fixed_band_eq,equalized_raw,equalized_smoothed,target
20.00,-2.70,0.40,-2.70,0.40,-0.40,-1.38,-0.65,-3.10,-3.10,-3.10
20.20,-2.67,0.46,-2.67,0.45,-0.45,-1.38,-0.67,-3.13,-3.13,-3.13
20.40,-2.65,0.50,-2.65,0.50,-0.50,-1.38,-0.69,-3.15,-3.15,-3.15
20.61,-2.62,0.55,-2.62,0.55,-0.55,-1.38,-0.71,-3.17,-3.17,-3.17
20.81,-2.59,0.60,-2.59,0.60,-0.60,-1.39,-0.73,-3.19,-3.19,-3.19
21.02,-2.57,0.64,-2.57,0.64,-0.64,-1.39,-0.75,-3.21,-3.21,-3.21
21.23,-2.54,0.69,-2.54,0.69,-0.69,-1.39,-0.78,-3.23,-3.23,-3.23
21.44,-2.52,0.73,-2.52,0.73,-0.73,-1.39,-0.80,-3.25,-3.25,-3.25
21.66,-2.50,0.77,-2.50,0.77,-0.77,-1.39,-0.82,-3.27,-3.27,-3.27
21.87,-2.47,0.81,-2.47,0.81,-0.81,-1.40,-0.85,-3.28,-3.29,-3.28
22.09,-2.45,0.85,-2.45,0.85,-0.85,-1.40,-0.87,-3.30,-3.30,-3.30
22.31,-2.43,0.88,-2.43,0.89,-0.89,-1.40,-0.90,-3.32,-3.31,-3.31
22.54,-2.40,0.92,-2.40,0.92,-0.92,-1.40,-0.92,-3.32,-3.32,-3.32
22.76,-2.37,0.96,-2.37,0.96,-0.96,-1.41,-0.95,-3.33,-3.33,-3.33
22.99,-2.35,0.99,-2.35,0.99,-0.99,-1.41,-0.98,-3.34,-3.34,-3.34
23.22,-2.33,1.02,-2.33,1.02,-1.02,-1.41,-1.01,-3.35,-3.35,-3.35
23.45,-2.32,1.04,-2.32,1.04,-1.04,-1.41,-1.03,-3.36,-3.36,-3.36
23.69,-2.30,1.07,-2.30,1.07,-1.06,-1.41,-1.06,-3.36,-3.36,-3.37
23.92,-2.29,1.08,-2.29,1.09,-1.08,-1.42,-1.09,-3.37,-3.37,-3.37
24.16,-2.27,1.11,-2.27,1.11,-1.10,-1.42,-1.12,-3.37,-3.38,-3.38
24.40,-2.26,1.12,-2.26,1.12,-1.13,-1.42,-1.15,-3.39,-3.39,-3.38
24.65,-2.25,1.14,-2.25,1.14,-1.15,-1.42,-1.18,-3.40,-3.40,-3.39
24.89,-2.23,1.16,-2.23,1.17,-1.18,-1.43,-1.22,-3.41,-3.40,-3.39
25.14,-2.20,1.20,-2.20,1.20,-1.21,-1.43,-1.25,-3.41,-3.41,-3.40
25.39,-2.17,1.24,-2.17,1.24,-1.24,-1.43,-1.28,-3.41,-3.41,-3.41
25.65,-2.14,1.27,-2.14,1.27,-1.27,-1.44,-1.31,-3.41,-3.41,-3.41
25.91,-2.11,1.31,-2.11,1.31,-1.30,-1.44,-1.34,-3.42,-3.41,-3.42
26.16,-2.08,1.34,-2.08,1.34,-1.34,-1.44,-1.38,-3.42,-3.42,-3.42
26.43,-2.05,1.37,-2.05,1.37,-1.37,-1.44,-1.41,-3.42,-3.42,-3.42
26.69,-2.03,1.40,-2.03,1.40,-1.39,-1.45,-1.44,-3.42,-3.42,-3.43
26.96,-2.01,1.42,-2.01,1.42,-1.42,-1.45,-1.47,-3.43,-3.43,-3.43
27.23,-2.00,1.44,-2.00,1.44,-1.44,-1.45,-1.50,-3.44,-3.44,-3.44
27.50,-1.99,1.45,-1.99,1.45,-1.46,-1.46,-1.53,-3.45,-3.44,-3.44
27.77,-1.97,1.47,-1.97,1.47,-1.47,-1.46,-1.56,-3.44,-3.45,-3.44
28.05,-1.96,1.49,-1.96,1.49,-1.49,-1.46,-1.59,-3.45,-3.45,-3.45
28.33,-1.94,1.51,-1.94,1.51,-1.51,-1.47,-1.61,-3.45,-3.45,-3.45
28.62,-1.92,1.53,-1.93,1.53,-1.53,-1.47,-1.64,-3.45,-3.46,-3.45
28.90,-1.91,1.55,-1.90,1.55,-1.56,-1.47,-1.66,-3.47,-3.46,-3.46
29.19,-1.88,1.58,-1.88,1.58,-1.58,-1.48,-1.69,-3.46,-3.46,-3.46
29.48,-1.85,1.61,-1.85,1.61,-1.61,-1.48,-1.71,-3.46,-3.47,-3.46
29.78,-1.82,1.64,-1.82,1.64,-1.64,-1.49,-1.73,-3.46,-3.46,-3.46
30.08,-1.79,1.67,-1.79,1.67,-1.67,-1.49,-1.74,-3.47,-3.47,-3.46
30.38,-1.76,1.71,-1.76,1.71,-1.71,-1.49,-1.76,-3.47,-3.47,-3.47
30.68,-1.73,1.74,-1.73,1.74,-1.74,-1.50,-1.77,-3.47,-3.47,-3.47
30.99,-1.70,1.77,-1.70,1.77,-1.77,-1.50,-1.78,-3.47,-3.47,-3.47
31.30,-1.68,1.79,-1.68,1.80,-1.80,-1.51,-1.79,-3.48,-3.47,-3.47
31.61,-1.66,1.82,-1.66,1.82,-1.82,-1.51,-1.80,-3.48,-3.48,-3.48
31.93,-1.64,1.84,-1.64,1.84,-1.84,-1.51,-1.80,-3.48,-3.48,-3.48
32.24,-1.63,1.85,-1.63,1.86,-1.85,-1.52,-1.81,-3.48,-3.48,-3.48
32.57,-1.62,1.87,-1.62,1.87,-1.86,-1.52,-1.81,-3.48,-3.48,-3.49
32.89,-1.62,1.87,-1.62,1.87,-1.86,-1.53,-1.81,-3.48,-3.48,-3.49
33.22,-1.63,1.86,-1.63,1.87,-1.86,-1.53,-1.80,-3.49,-3.49,-3.49
33.55,-1.64,1.86,-1.64,1.86,-1.86,-1.54,-1.80,-3.50,-3.50,-3.50
33.89,-1.65,1.85,-1.65,1.85,-1.86,-1.54,-1.79,-3.51,-3.51,-3.50
34.23,-1.65,1.85,-1.65,1.85,-1.86,-1.55,-1.79,-3.51,-3.51,-3.50
34.57,-1.65,1.86,-1.65,1.86,-1.86,-1.55,-1.78,-3.51,-3.51,-3.51
34.92,-1.65,1.86,-1.65,1.86,-1.86,-1.56,-1.77,-3.51,-3.51,-3.51
35.27,-1.65,1.86,-1.65,1.87,-1.86,-1.56,-1.76,-3.51,-3.51,-3.51
35.62,-1.65,1.87,-1.65,1.87,-1.86,-1.57,-1.75,-3.52,-3.52,-3.52
35.97,-1.65,1.87,-1.65,1.87,-1.87,-1.57,-1.73,-3.52,-3.52,-3.52
36.33,-1.65,1.87,-1.65,1.87,-1.87,-1.58,-1.72,-3.52,-3.52,-3.52
36.70,-1.65,1.87,-1.65,1.87,-1.87,-1.58,-1.71,-3.52,-3.52,-3.52
37.06,-1.65,1.87,-1.65,1.87,-1.88,-1.59,-1.70,-3.53,-3.53,-3.52
37.43,-1.65,1.88,-1.65,1.88,-1.88,-1.59,-1.69,-3.53,-3.53,-3.53
37.81,-1.65,1.88,-1.65,1.88,-1.88,-1.60,-1.67,-3.53,-3.53,-3.53
38.19,-1.65,1.88,-1.65,1.88,-1.88,-1.60,-1.66,-3.54,-3.54,-3.53
38.57,-1.65,1.89,-1.65,1.89,-1.89,-1.61,-1.65,-3.54,-3.54,-3.54
38.95,-1.65,1.89,-1.65,1.89,-1.89,-1.62,-1.64,-3.54,-3.54,-3.54
39.34,-1.65,1.90,-1.65,1.90,-1.90,-1.62,-1.63,-3.55,-3.55,-3.55
39.74,-1.65,1.90,-1.65,1.90,-1.90,-1.63,-1.62,-3.55,-3.55,-3.55
40.14,-1.65,1.91,-1.65,1.91,-1.91,-1.63,-1.61,-3.56,-3.56,-3.56
40.54,-1.65,1.91,-1.65,1.91,-1.91,-1.64,-1.60,-3.56,-3.56,-3.56
40.94,-1.65,1.91,-1.65,1.91,-1.91,-1.65,-1.59,-3.56,-3.56,-3.56
41.35,-1.65,1.91,-1.65,1.91,-1.91,-1.65,-1.59,-3.56,-3.56,-3.56
41.76,-1.65,1.91,-1.65,1.91,-1.91,-1.66,-1.58,-3.56,-3.56,-3.56
42.18,-1.65,1.91,-1.65,1.91,-1.91,-1.67,-1.58,-3.56,-3.56,-3.56
42.60,-1.65,1.91,-1.65,1.91,-1.91,-1.67,-1.58,-3.56,-3.56,-3.56
43.03,-1.65,1.90,-1.65,1.90,-1.91,-1.68,-1.58,-3.56,-3.56,-3.55
43.46,-1.65,1.90,-1.65,1.90,-1.90,-1.69,-1.57,-3.56,-3.56,-3.55
43.90,-1.65,1.90,-1.65,1.90,-1.90,-1.69,-1.58,-3.55,-3.55,-3.55
44.33,-1.65,1.90,-1.65,1.90,-1.90,-1.70,-1.58,-3.55,-3.55,-3.55
44.78,-1.65,1.90,-1.65,1.90,-1.90,-1.71,-1.58,-3.55,-3.55,-3.55
45.23,-1.65,1.90,-1.65,1.90,-1.89,-1.71,-1.59,-3.55,-3.54,-3.55
45.68,-1.65,1.90,-1.65,1.90,-1.89,-1.72,-1.59,-3.54,-3.54,-3.55
46.13,-1.65,1.90,-1.66,1.90,-1.89,-1.73,-1.60,-3.54,-3.55,-3.55
46.60,-1.66,1.89,-1.66,1.89,-1.90,-1.74,-1.61,-3.56,-3.56,-3.55
47.06,-1.67,1.88,-1.66,1.89,-1.90,-1.74,-1.62,-3.57,-3.57,-3.55
47.53,-1.66,1.90,-1.66,1.90,-1.91,-1.75,-1.63,-3.57,-3.57,-3.56
48.01,-1.64,1.92,-1.65,1.91,-1.92,-1.76,-1.64,-3.56,-3.57,-3.56
48.49,-1.63,1.93,-1.63,1.94,-1.93,-1.77,-1.65,-3.56,-3.56,-3.56
48.97,-1.61,1.95,-1.61,1.95,-1.95,-1.77,-1.66,-3.56,-3.56,-3.56
49.46,-1.59,1.97,-1.59,1.97,-1.96,-1.78,-1.68,-3.55,-3.55,-3.56
49.96,-1.58,1.98,-1.58,1.98,-1.97,-1.79,-1.69,-3.55,-3.55,-3.56
50.46,-1.57,1.99,-1.57,1.99,-1.98,-1.80,-1.71,-3.55,-3.56,-3.56
50.96,-1.57,1.99,-1.57,1.99,-1.99,-1.81,-1.73,-3.56,-3.56,-3.56
51.47,-1.56,1.99,-1.56,1.99,-1.99,-1.81,-1.74,-3.56,-3.56,-3.55
51.99,-1.56,1.99,-1.56,1.99,-2.00,-1.82,-1.76,-3.56,-3.56,-3.55
52.51,-1.56,1.99,-1.56,1.99,-1.99,-1.83,-1.78,-3.55,-3.55,-3.55
53.03,-1.56,1.99,-1.56,1.99,-1.99,-1.84,-1.80,-3.55,-3.55,-3.55
53.56,-1.56,1.99,-1.56,1.98,-1.98,-1.85,-1.81,-3.54,-3.55,-3.55
54.10,-1.57,1.97,-1.57,1.97,-1.97,-1.85,-1.83,-3.54,-3.54,-3.54
54.64,-1.58,1.96,-1.58,1.96,-1.96,-1.86,-1.85,-3.54,-3.54,-3.54
55.18,-1.59,1.95,-1.59,1.95,-1.95,-1.87,-1.87,-3.54,-3.54,-3.54
55.74,-1.60,1.94,-1.60,1.93,-1.93,-1.88,-1.88,-3.53,-3.53,-3.54
56.29,-1.62,1.91,-1.62,1.92,-1.91,-1.88,-1.90,-3.53,-3.53,-3.53
56.86,-1.64,1.89,-1.64,1.89,-1.90,-1.89,-1.92,-3.54,-3.53,-3.53
57.42,-1.65,1.88,-1.66,1.87,-1.88,-1.90,-1.93,-3.53,-3.54,-3.53
58.00,-1.67,1.85,-1.67,1.86,-1.87,-1.91,-1.94,-3.54,-3.54,-3.52
58.58,-1.67,1.85,-1.67,1.85,-1.86,-1.92,-1.95,-3.53,-3.53,-3.52
59.16,-1.66,1.86,-1.66,1.85,-1.86,-1.92,-1.97,-3.52,-3.52,-3.52
59.76,-1.65,1.86,-1.65,1.86,-1.86,-1.93,-1.97,-3.51,-3.51,-3.51
60.35,-1.65,1.86,-1.65,1.86,-1.86,-1.94,-1.98,-3.51,-3.51,-3.51
60.96,-1.65,1.86,-1.65,1.86,-1.86,-1.95,-1.99,-3.51,-3.51,-3.51
61.57,-1.65,1.86,-1.65,1.86,-1.86,-1.95,-1.99,-3.51,-3.51,-3.51
62.18,-1.65,1.86,-1.65,1.86,-1.86,-1.96,-1.99,-3.51,-3.51,-3.51
62.80,-1.65,1.86,-1.65,1.86,-1.86,-1.97,-1.99,-3.51,-3.51,-3.51
63.43,-1.65,1.86,-1.65,1.86,-1.86,-1.97,-1.99,-3.51,-3.51,-3.51
64.07,-1.65,1.86,-1.65,1.86,-1.86,-1.98,-1.99,-3.51,-3.51,-3.51
64.71,-1.65,1.86,-1.65,1.86,-1.86,-1.99,-1.98,-3.51,-3.51,-3.51
65.35,-1.65,1.86,-1.65,1.86,-1.86,-1.99,-1.98,-3.51,-3.51,-3.51
66.01,-1.65,1.86,-1.65,1.86,-1.86,-2.00,-1.97,-3.51,-3.51,-3.51
66.67,-1.65,1.86,-1.65,1.86,-1.86,-2.00,-1.96,-3.51,-3.51,-3.51
67.33,-1.65,1.86,-1.65,1.86,-1.86,-2.01,-1.95,-3.51,-3.51,-3.51
68.01,-1.65,1.86,-1.65,1.86,-1.86,-2.01,-1.93,-3.51,-3.51,-3.51
68.69,-1.65,1.86,-1.65,1.86,-1.86,-2.02,-1.92,-3.51,-3.51,-3.51
69.37,-1.65,1.86,-1.65,1.86,-1.86,-2.02,-1.91,-3.51,-3.51,-3.51
70.07,-1.65,1.86,-1.65,1.86,-1.86,-2.02,-1.89,-3.51,-3.51,-3.51
70.77,-1.65,1.86,-1.65,1.86,-1.86,-2.03,-1.87,-3.51,-3.51,-3.51
71.48,-1.65,1.85,-1.65,1.85,-1.86,-2.03,-1.86,-3.51,-3.51,-3.50
72.19,-1.65,1.85,-1.65,1.85,-1.85,-2.03,-1.84,-3.50,-3.50,-3.50
72.91,-1.65,1.85,-1.65,1.85,-1.85,-2.04,-1.82,-3.50,-3.50,-3.50
73.64,-1.65,1.85,-1.65,1.85,-1.85,-2.04,-1.80,-3.50,-3.50,-3.50
74.38,-1.65,1.84,-1.65,1.84,-1.84,-2.04,-1.79,-3.49,-3.49,-3.49
75.12,-1.65,1.84,-1.65,1.84,-1.84,-2.04,-1.77,-3.49,-3.49,-3.49
75.87,-1.65,1.83,-1.65,1.83,-1.84,-2.04,-1.75,-3.49,-3.49,-3.48
76.63,-1.65,1.83,-1.65,1.83,-1.83,-2.04,-1.74,-3.48,-3.48,-3.48
77.40,-1.65,1.83,-1.65,1.83,-1.83,-2.04,-1.72,-3.48,-3.48,-3.48
78.17,-1.65,1.82,-1.65,1.83,-1.82,-2.04,-1.71,-3.47,-3.47,-3.47
78.95,-1.65,1.82,-1.65,1.82,-1.82,-2.04,-1.69,-3.47,-3.47,-3.47
79.74,-1.65,1.82,-1.65,1.82,-1.82,-2.03,-1.68,-3.47,-3.47,-3.47
80.54,-1.65,1.81,-1.65,1.81,-1.82,-2.03,-1.66,-3.47,-3.47,-3.46
81.35,-1.65,1.81,-1.65,1.81,-1.81,-2.03,-1.65,-3.46,-3.46,-3.46
82.16,-1.65,1.81,-1.65,1.81,-1.81,-2.02,-1.64,-3.46,-3.46,-3.46
82.98,-1.65,1.81,-1.65,1.81,-1.81,-2.02,-1.63,-3.46,-3.46,-3.46
83.81,-1.65,1.81,-1.65,1.81,-1.81,-2.01,-1.62,-3.46,-3.46,-3.46
84.65,-1.65,1.80,-1.65,1.80,-1.80,-2.01,-1.62,-3.46,-3.46,-3.45
85.50,-1.65,1.80,-1.65,1.80,-1.80,-2.00,-1.61,-3.45,-3.45,-3.45
86.35,-1.65,1.80,-1.65,1.80,-1.80,-2.00,-1.60,-3.45,-3.45,-3.45
87.22,-1.65,1.80,-1.65,1.80,-1.80,-1.99,-1.60,-3.45,-3.45,-3.45
88.09,-1.65,1.80,-1.65,1.80,-1.80,-1.98,-1.60,-3.45,-3.45,-3.45
88.97,-1.65,1.80,-1.65,1.80,-1.80,-1.97,-1.60,-3.45,-3.45,-3.45
89.86,-1.65,1.80,-1.65,1.80,-1.80,-1.96,-1.60,-3.45,-3.45,-3.45
90.76,-1.65,1.80,-1.65,1.80,-1.80,-1.95,-1.60,-3.45,-3.45,-3.45
91.66,-1.65,1.80,-1.65,1.80,-1.80,-1.94,-1.60,-3.45,-3.45,-3.45
92.58,-1.65,1.80,-1.65,1.80,-1.80,-1.93,-1.60,-3.45,-3.45,-3.45
93.51,-1.65,1.80,-1.65,1.80,-1.80,-1.92,-1.61,-3.45,-3.45,-3.45
94.44,-1.65,1.80,-1.65,1.80,-1.80,-1.90,-1.61,-3.45,-3.45,-3.45
95.39,-1.65,1.80,-1.65,1.80,-1.80,-1.89,-1.62,-3.45,-3.45,-3.45
96.34,-1.65,1.80,-1.65,1.80,-1.80,-1.88,-1.63,-3.45,-3.45,-3.45
97.30,-1.65,1.79,-1.65,1.79,-1.79,-1.86,-1.64,-3.44,-3.44,-3.44
98.28,-1.65,1.79,-1.65,1.79,-1.79,-1.85,-1.65,-3.44,-3.44,-3.44
99.26,-1.65,1.79,-1.65,1.79,-1.79,-1.83,-1.66,-3.44,-3.45,-3.44
100.25,-1.65,1.79,-1.65,1.79,-1.80,-1.81,-1.67,-3.45,-3.45,-3.44
101.25,-1.65,1.79,-1.65,1.79,-1.80,-1.80,-1.68,-3.45,-3.45,-3.44
102.27,-1.64,1.80,-1.64,1.80,-1.80,-1.78,-1.69,-3.44,-3.45,-3.44
103.29,-1.64,1.80,-1.64,1.80,-1.80,-1.76,-1.70,-3.44,-3.44,-3.44
104.32,-1.63,1.80,-1.63,1.81,-1.80,-1.75,-1.72,-3.43,-3.43,-3.43
105.37,-1.62,1.81,-1.62,1.81,-1.80,-1.73,-1.73,-3.42,-3.43,-3.43
106.42,-1.62,1.81,-1.62,1.80,-1.80,-1.71,-1.74,-3.42,-3.42,-3.43
107.48,-1.63,1.79,-1.63,1.79,-1.79,-1.69,-1.76,-3.42,-3.42,-3.42
108.56,-1.65,1.77,-1.65,1.77,-1.77,-1.67,-1.77,-3.42,-3.42,-3.42
109.64,-1.67,1.75,-1.67,1.75,-1.75,-1.65,-1.78,-3.42,-3.42,-3.42
110.74,-1.69,1.73,-1.69,1.73,-1.73,-1.63,-1.79,-3.42,-3.42,-3.42
111.85,-1.72,1.70,-1.72,1.70,-1.70,-1.61,-1.80,-3.42,-3.42,-3.42
112.97,-1.74,1.67,-1.74,1.67,-1.67,-1.59,-1.81,-3.41,-3.41,-3.41
114.10,-1.77,1.64,-1.77,1.64,-1.64,-1.57,-1.82,-3.41,-3.41,-3.41
115.24,-1.81,1.60,-1.81,1.60,-1.60,-1.55,-1.83,-3.41,-3.41,-3.41
116.39,-1.84,1.57,-1.84,1.57,-1.57,-1.53,-1.84,-3.41,-3.41,-3.41
117.55,-1.87,1.53,-1.87,1.53,-1.54,-1.51,-1.84,-3.41,-3.41,-3.40
118.73,-1.90,1.50,-1.90,1.50,-1.50,-1.49,-1.84,-3.41,-3.40,-3.40
119.92,-1.92,1.48,-1.93,1.47,-1.47,-1.47,-1.84,-3.40,-3.40,-3.40
121.12,-1.95,1.45,-1.95,1.45,-1.45,-1.44,-1.84,-3.40,-3.40,-3.40
122.33,-1.97,1.42,-1.97,1.43,-1.43,-1.42,-1.84,-3.40,-3.40,-3.39
123.55,-1.98,1.41,-1.98,1.41,-1.41,-1.40,-1.83,-3.39,-3.39,-3.39
124.79,-1.99,1.39,-1.99,1.39,-1.40,-1.38,-1.82,-3.39,-3.39,-3.38
126.03,-1.99,1.39,-1.99,1.39,-1.39,-1.36,-1.81,-3.38,-3.39,-3.38
127.29,-1.99,1.38,-1.99,1.39,-1.39,-1.34,-1.80,-3.38,-3.38,-3.37
128.57,-1.98,1.39,-1.98,1.39,-1.39,-1.32,-1.79,-3.37,-3.37,-3.37
129.85,-1.97,1.40,-1.97,1.40,-1.39,-1.30,-1.77,-3.36,-3.36,-3.37
131.15,-1.97,1.40,-1.97,1.40,-1.39,-1.28,-1.75,-3.36,-3.36,-3.37
132.46,-1.97,1.39,-1.97,1.40,-1.39,-1.26,-1.73,-3.36,-3.36,-3.36
133.79,-1.97,1.39,-1.97,1.39,-1.40,-1.23,-1.71,-3.37,-3.37,-3.36
135.12,-1.97,1.39,-1.97,1.39,-1.40,-1.21,-1.68,-3.37,-3.37,-3.36
136.48,-1.97,1.39,-1.97,1.39,-1.40,-1.19,-1.66,-3.37,-3.37,-3.36
137.84,-1.96,1.40,-1.96,1.40,-1.40,-1.17,-1.63,-3.36,-3.36,-3.36
139.22,-1.95,1.41,-1.95,1.41,-1.40,-1.15,-1.60,-3.36,-3.36,-3.36
140.61,-1.95,1.41,-1.95,1.41,-1.40,-1.14,-1.57,-3.35,-3.35,-3.36
142.02,-1.95,1.40,-1.95,1.40,-1.40,-1.12,-1.54,-3.35,-3.35,-3.35
143.44,-1.96,1.39,-1.96,1.39,-1.39,-1.10,-1.50,-3.35,-3.35,-3.35
144.87,-1.97,1.38,-1.97,1.37,-1.37,-1.08,-1.47,-3.34,-3.35,-3.35
146.32,-1.99,1.35,-1.99,1.35,-1.35,-1.06,-1.44,-3.34,-3.34,-3.34
147.78,-2.02,1.32,-2.02,1.33,-1.33,-1.04,-1.40,-3.35,-3.34,-3.34
149.26,-2.04,1.30,-2.04,1.29,-1.30,-1.02,-1.37,-3.34,-3.34,-3.34
150.75,-2.07,1.26,-2.07,1.27,-1.26,-1.01,-1.33,-3.33,-3.33,-3.33
152.26,-2.10,1.23,-2.10,1.23,-1.23,-0.99,-1.30,-3.33,-3.33,-3.33
153.78,-2.13,1.20,-2.13,1.19,-1.19,-0.97,-1.26,-3.32,-3.33,-3.33
155.32,-2.17,1.15,-2.17,1.16,-1.16,-0.96,-1.22,-3.33,-3.33,-3.32
156.88,-2.20,1.12,-2.20,1.12,-1.13,-0.94,-1.19,-3.33,-3.33,-3.32
158.44,-2.23,1.09,-2.23,1.09,-1.09,-0.92,-1.15,-3.32,-3.32,-3.32
160.03,-2.25,1.07,-2.25,1.07,-1.07,-0.91,-1.12,-3.32,-3.32,-3.32
161.63,-2.27,1.05,-2.27,1.05,-1.04,-0.89,-1.08,-3.31,-3.32,-3.32
163.24,-2.29,1.02,-2.29,1.02,-1.03,-0.88,-1.05,-3.32,-3.32,-3.31
164.88,-2.31,1.00,-2.31,1.00,-1.02,-0.86,-1.01,-3.33,-3.32,-3.31
166.53,-2.32,0.99,-2.32,0.99,-1.01,-0.85,-0.98,-3.33,-3.33,-3.31
168.19,-2.31,1.00,-2.31,1.00,-1.01,-0.83,-0.95,-3.32,-3.32,-3.31
169.87,-2.30,1.00,-2.30,1.01,-1.01,-0.82,-0.91,-3.31,-3.31,-3.30
171.57,-2.28,1.02,-2.29,1.02,-1.01,-0.80,-0.88,-3.29,-3.29,-3.30
173.29,-2.28,1.02,-2.28,1.02,-1.01,-0.79,-0.85,-3.29,-3.29,-3.30
175.02,-2.28,1.02,-2.28,1.02,-1.00,-0.78,-0.82,-3.28,-3.28,-3.30
176.77,-2.29,1.00,-2.29,1.00,-0.99,-0.77,-0.79,-3.28,-3.29,-3.29
178.54,-2.31,0.98,-2.31,0.98,-0.98,-0.75,-0.76,-3.29,-3.29,-3.29
180.32,-2.34,0.95,-2.34,0.95,-0.96,-0.74,-0.73,-3.30,-3.29,-3.29
182.13,-2.36,0.93,-2.36,0.93,-0.93,-0.73,-0.70,-3.29,-3.29,-3.29
183.95,-2.39,0.90,-2.39,0.90,-0.90,-0.72,-0.67,-3.29,-3.29,-3.29
185.79,-2.42,0.87,-2.42,0.87,-0.87,-0.71,-0.64,-3.29,-3.29,-3.29
187.65,-2.45,0.84,-2.45,0.84,-0.84,-0.70,-0.61,-3.29,-3.29,-3.29
189.52,-2.48,0.81,-2.48,0.81,-0.81,-0.68,-0.59,-3.29,-3.29,-3.29
191.42,-2.51,0.78,-2.51,0.78,-0.78,-0.67,-0.56,-3.29,-3.29,-3.29
193.33,-2.54,0.75,-2.54,0.75,-0.75,-0.66,-0.54,-3.29,-3.29,-3.29
195.27,-2.57,0.72,-2.57,0.72,-0.72,-0.65,-0.51,-3.29,-3.29,-3.29
197.22,-2.59,0.70,-2.59,0.70,-0.70,-0.64,-0.49,-3.29,-3.29,-3.29
199.19,-2.61,0.68,-2.61,0.68,-0.68,-0.64,-0.46,-3.29,-3.29,-3.29
201.18,-2.63,0.65,-2.63,0.66,-0.66,-0.63,-0.44,-3.29,-3.29,-3.28
203.19,-2.64,0.64,-2.64,0.64,-0.65,-0.62,-0.42,-3.29,-3.29,-3.28
205.23,-2.64,0.63,-2.64,0.63,-0.64,-0.61,-0.40,-3.28,-3.28,-3.27
207.28,-2.64,0.63,-2.64,0.63,-0.64,-0.60,-0.37,-3.28,-3.27,-3.27
209.35,-2.63,0.64,-2.63,0.64,-0.63,-0.59,-0.35,-3.26,-3.26,-3.27
211.44,-2.62,0.64,-2.62,0.64,-0.63,-0.58,-0.33,-3.25,-3.26,-3.26
213.56,-2.62,0.64,-2.62,0.64,-0.64,-0.57,-0.32,-3.26,-3.26,-3.26
215.69,-2.62,0.64,-2.62,0.64,-0.64,-0.57,-0.30,-3.26,-3.26,-3.26
217.85,-2.62,0.64,-2.62,0.64,-0.64,-0.56,-0.28,-3.26,-3.26,-3.26
220.03,-2.62,0.63,-2.62,0.63,-0.63,-0.55,-0.27,-3.26,-3.26,-3.25
222.23,-2.62,0.63,-2.62,0.63,-0.63,-0.54,-0.25,-3.25,-3.25,-3.25
224.45,-2.62,0.63,-2.62,0.63,-0.63,-0.54,-0.24,-3.25,-3.25,-3.25
226.70,-2.62,0.63,-2.62,0.63,-0.63,-0.53,-0.22,-3.25,-3.25,-3.25
228.96,-2.62,0.62,-2.62,0.62,-0.63,-0.52,-0.21,-3.25,-3.25,-3.24
231.25,-2.62,0.62,-2.62,0.62,-0.63,-0.51,-0.20,-3.25,-3.25,-3.24
233.57,-2.61,0.63,-2.61,0.63,-0.63,-0.50,-0.19,-3.24,-3.24,-3.24
235.90,-2.60,0.63,-2.60,0.63,-0.63,-0.50,-0.19,-3.23,-3.23,-3.23
238.26,-2.60,0.63,-2.60,0.63,-0.62,-0.49,-0.18,-3.22,-3.22,-3.23
240.64,-2.60,0.62,-2.60,0.62,-0.62,-0.48,-0.18,-3.22,-3.22,-3.22
243.05,-2.60,0.61,-2.60,0.61,-0.60,-0.47,-0.17,-3.20,-3.21,-3.21
245.48,-2.62,0.58,-2.62,0.59,-0.58,-0.46,-0.17,-3.20,-3.20,-3.20
247.93,-2.63,0.57,-2.63,0.56,-0.56,-0.46,-0.17,-3.19,-3.19,-3.20
250.41,-2.66,0.53,-2.66,0.53,-0.53,-0.45,-0.17,-3.19,-3.19,-3.19
252.92,-2.68,0.50,-2.68,0.50,-0.50,-0.44,-0.17,-3.18,-3.18,-3.18
255.45,-2.71,0.46,-2.71,0.46,-0.47,-0.43,-0.18,-3.18,-3.18,-3.17
258.00,-2.74,0.43,-2.74,0.43,-0.43,-0.42,-0.18,-3.17,-3.17,-3.17
260.58,-2.77,0.39,-2.77,0.39,-0.40,-0.41,-0.19,-3.17,-3.17,-3.16
263.19,-2.80,0.36,-2.80,0.36,-0.36,-0.40,-0.20,-3.16,-3.16,-3.16
265.82,-2.83,0.33,-2.83,0.33,-0.33,-0.39,-0.21,-3.16,-3.16,-3.16
268.48,-2.86,0.29,-2.86,0.30,-0.29,-0.37,-0.22,-3.15,-3.15,-3.15
271.16,-2.89,0.26,-2.89,0.26,-0.26,-0.36,-0.23,-3.15,-3.15,-3.15
273.87,-2.91,0.24,-2.92,0.23,-0.23,-0.35,-0.25,-3.14,-3.15,-3.15
276.61,-2.94,0.20,-2.94,0.21,-0.21,-0.34,-0.26,-3.15,-3.15,-3.14
279.38,-2.95,0.19,-2.95,0.19,-0.19,-0.32,-0.28,-3.14,-3.14,-3.14
282.17,-2.96,0.17,-2.96,0.17,-0.18,-0.31,-0.30,-3.14,-3.14,-3.13
284.99,-2.97,0.16,-2.97,0.16,-0.17,-0.29,-0.31,-3.15,-3.14,-3.13
287.84,-2.97,0.16,-2.97,0.16,-0.17,-0.28,-0.33,-3.14,-3.14,-3.13
290.72,-2.96,0.17,-2.96,0.17,-0.17,-0.27,-0.35,-3.13,-3.13,-3.13
293.63,-2.95,0.18,-2.95,0.18,-0.17,-0.25,-0.38,-3.12,-3.12,-3.13
296.57,-2.94,0.19,-2.94,0.19,-0.17,-0.24,-0.40,-3.11,-3.11,-3.13
299.53,-2.94,0.18,-2.94,0.18,-0.17,-0.23,-0.42,-3.11,-3.11,-3.12
302.53,-2.95,0.17,-2.95,0.17,-0.16,-0.22,-0.45,-3.11,-3.11,-3.12
305.55,-2.96,0.16,-2.96,0.16,-0.16,-0.22,-0.47,-3.12,-3.12,-3.12
308.61,-2.97,0.14,-2.97,0.15,-0.15,-0.22,-0.50,-3.12,-3.12,-3.11
311.69,-2.97,0.14,-2.97,0.14,-0.15,-0.22,-0.52,-3.12,-3.12,-3.11
314.81,-2.96,0.14,-2.96,0.14,-0.15,-0.22,-0.55,-3.11,-3.11,-3.10
317.96,-2.95,0.15,-2.95,0.15,-0.16,-0.23,-0.58,-3.11,-3.11,-3.10
321.14,-2.93,0.16,-2.93,0.16,-0.17,-0.24,-0.61,-3.10,-3.10,-3.09
324.35,-2.91,0.18,-2.91,0.18,-0.18,-0.25,-0.64,-3.09,-3.09,-3.09
327.59,-2.88,0.21,-2.88,0.21,-0.20,-0.27,-0.67,-3.08,-3.08,-3.09
330.87,-2.85,0.23,-2.86,0.23,-0.22,-0.29,-0.70,-3.07,-3.07,-3.08
334.18,-2.83,0.24,-2.83,0.24,-0.24,-0.32,-0.73,-3.07,-3.07,-3.07
337.52,-2.81,0.26,-2.81,0.26,-0.26,-0.35,-0.76,-3.07,-3.07,-3.07
340.90,-2.78,0.28,-2.78,0.28,-0.29,-0.37,-0.80,-3.07,-3.07,-3.06
344.30,-2.75,0.31,-2.75,0.31,-0.32,-0.40,-0.83,-3.07,-3.07,-3.06
347.75,-2.72,0.34,-2.72,0.34,-0.35,-0.44,-0.86,-3.07,-3.07,-3.06
351.23,-2.68,0.38,-2.68,0.38,-0.38,-0.47,-0.90,-3.06,-3.06,-3.06
354.74,-2.64,0.41,-2.64,0.42,-0.41,-0.50,-0.93,-3.06,-3.05,-3.05
358.28,-2.59,0.46,-2.60,0.46,-0.45,-0.53,-0.97,-3.04,-3.05,-3.05
361.87,-2.56,0.49,-2.56,0.49,-0.48,-0.56,-1.01,-3.04,-3.04,-3.05
365.49,-2.53,0.52,-2.53,0.52,-0.51,-0.60,-1.05,-3.05,-3.04,-3.05
369.14,-2.50,0.55,-2.50,0.55,-0.55,-0.63,-1.08,-3.05,-3.05,-3.05
372.83,-2.47,0.58,-2.47,0.58,-0.58,-0.66,-1.12,-3.05,-3.05,-3.05
376.56,-2.44,0.60,-2.44,0.60,-0.61,-0.69,-1.16,-3.05,-3.05,-3.04
380.33,-2.41,0.63,-2.41,0.63,-0.64,-0.72,-1.20,-3.05,-3.05,-3.04
384.13,-2.37,0.67,-2.37,0.67,-0.68,-0.75,-1.24,-3.05,-3.05,-3.04
387.97,-2.33,0.71,-2.33,0.71,-0.71,-0.78,-1.28,-3.04,-3.04,-3.04
391.85,-2.28,0.75,-2.28,0.75,-0.75,-0.81,-1.33,-3.03,-3.03,-3.03
395.77,-2.24,0.79,-2.24,0.79,-0.79,-0.85,-1.37,-3.03,-3.03,-3.03
399.73,-2.19,0.83,-2.19,0.83,-0.83,-0.88,-1.41,-3.02,-3.02,-3.02
403.72,-2.14,0.88,-2.14,0.88,-0.87,-0.91,-1.45,-3.01,-3.01,-3.02
407.76,-2.09,0.92,-2.09,0.92,-0.91,-0.94,-1.50,-3.00,-3.01,-3.01
411.84,-2.05,0.96,-2.05,0.96,-0.96,-0.97,-1.54,-3.01,-3.01,-3.01
415.96,-2.01,0.99,-2.01,0.99,-1.00,-1.00,-1.58,-3.01,-3.01,-3.00
420.12,-1.97,1.03,-1.96,1.04,-1.05,-1.03,-1.62,-3.02,-3.01,-3.00
424.32,-1.91,1.09,-1.91,1.09,-1.10,-1.06,-1.67,-3.01,-3.00,-3.00
