frequency,raw,error,smoothed,error_smoothed,equalization,parametric_eq,fixed_band_eq,equalized_raw,equalized_smoothed,target
20.00,-2.70,0.42,-2.70,0.42,-0.42,-0.92,-0.69,-3.12,-3.12,-3.12
20.20,-2.67,0.48,-2.67,0.47,-0.47,-0.94,-0.71,-3.15,-3.15,-3.15
20.40,-2.65,0.52,-2.65,0.52,-0.52,-0.95,-0.73,-3.17,-3.17,-3.17
20.61,-2.62,0.57,-2.62,0.57,-0.57,-0.96,-0.75,-3.19,-3.19,-3.19
20.81,-2.59,0.62,-2.59,0.62,-0.62,-0.97,-0.77,-3.21,-3.21,-3.21
21.02,-2.57,0.66,-2.57,0.67,-0.66,-0.99,-0.80,-3.23,-3.23,-3.23
21.23,-2.54,0.71,-2.54,0.71,-0.71,-1.00,-0.82,-3.25,-3.25,-3.25
21.44,-2.52,0.75,-2.52,0.75,-0.75,-1.01,-0.84,-3.27,-3.27,-3.27
21.66,-2.50,0.79,-2.50,0.79,-0.79,-1.03,-0.87,-3.29,-3.29,-3.29
21.87,-2.47,0.83,-2.47,0.83,-0.83,-1.04,-0.89,-3.30,-3.31,-3.30
22.09,-2.45,0.87,-2.45,0.87,-0.87,-1.06,-0.92,-3.32,-3.32,-3.32
22.31,-2.43,0.90,-2.43,0.91,-0.91,-1.07,-0.95,-3.34,-3.33,-3.33
22.54,-2.40,0.94,-2.40,0.94,-0.94,-1.08,-0.98,-3.34,-3.34,-3.34
22.76,-2.37,0.98,-2.37,0.98,-0.98,-1.10,-1.00,-3.35,-3.35,-3.35
22.99,-2.35,1.01,-2.35,1.01,-1.01,-1.11,-1.03,-3.36,-3.36,-3.36
23.22,-2.33,1.04,-2.33,1.04,-1.04,-1.13,-1.06,-3.37,-3.37,-3.37
23.45,-2.32,1.06,-2.32,1.06,-1.06,-1.14,-1.09,-3.38,-3.38,-3.38
23.69,-2.30,1.09,-2.30,1.09,-1.08,-1.15,-1.12,-3.38,-3.39,-3.39
23.92,-2.29,1.10,-2.29,1.11,-1.10,-1.17,-1.16,-3.39,-3.39,-3.39
24.16,-2.27,1.13,-2.27,1.13,-1.12,-1.18,-1.19,-3.40,-3.40,-3.40
24.40,-2.26,1.14,-2.26,1.14,-1.15,-1.20,-1.22,-3.41,-3.41,-3.40
24.65,-2.25,1.16,-2.25,1.16,-1.17,-1.21,-1.25,-3.42,-3.42,-3.41
24.89,-2.23,1.18,-2.23,1.19,-1.20,-1.23,-1.29,-3.43,-3.42,-3.41
25.14,-2.20,1.22,-2.20,1.22,-1.22,-1.24,-1.32,-3.42,-3.43,-3.42
25.39,-2.17,1.25,-2.17,1.25,-1.26,-1.25,-1.35,-3.43,-3.43,-3.42
25.65,-2.14,1.29,-2.14,1.29,-1.29,-1.27,-1.39,-3.43,-3.43,-3.43
25.91,-2.11,1.32,-2.11,1.32,-1.32,-1.28,-1.42,-3.43,-3.43,-3.43
26.16,-2.08,1.36,-2.08,1.36,-1.35,-1.30,-1.46,-3.43,-3.43,-3.44
26.43,-2.05,1.39,-2.05,1.39,-1.38,-1.31,-1.49,-3.43,-3.44,-3.44
26.69,-2.03,1.42,-2.03,1.42,-1.41,-1.33,-1.52,-3.44,-3.44,-3.45
26.96,-2.01,1.44,-2.01,1.44,-1.43,-1.34,-1.56,-3.45,-3.45,-3.45
27.23,-2.00,1.45,-2.00,1.46,-1.46,-1.36,-1.59,-3.46,-3.46,-3.45
27.50,-1.99,1.47,-1.99,1.47,-1.47,-1.37,-1.62,-3.47,-3.46,-3.46
27.77,-1.97,1.49,-1.97,1.49,-1.49,-1.39,-1.65,-3.46,-3.47,-3.46
28.05,-1.96,1.51,-1.96,1.51,-1.51,-1.40,-1.68,-3.47,-3.47,-3.47
28.33,-1.94,1.53,-1.94,1.53,-1.53,-1.41,-1.71,-3.47,-3.47,-3.47
28.62,-1.92,1.55,-1.93,1.55,-1.55,-1.43,-1.74,-3.47,-3.48,-3.47
28.90,-1.91,1.57,-1.90,1.57,-1.58,-1.44,-1.76,-3.49,-3.48,-3.48
29.19,-1.88,1.60,-1.88,1.60,-1.60,-1.46,-1.79,-3.48,-3.48,-3.48
29.48,-1.85,1.63,-1.85,1.63,-1.63,-1.47,-1.81,-3.48,-3.49,-3.48
29.78,-1.82,1.66,-1.82,1.66,-1.66,-1.49,-1.83,-3.48,-3.48,-3.48
30.08,-1.79,1.69,-1.79,1.69,-1.69,-1.50,-1.85,-3.48,-3.48,-3.48
30.38,-1.76,1.72,-1.76,1.73,-1.72,-1.52,-1.87,-3.49,-3.48,-3.48
30.68,-1.73,1.76,-1.73,1.76,-1.76,-1.53,-1.88,-3.49,-3.49,-3.49
30.99,-1.70,1.79,-1.70,1.79,-1.79,-1.54,-1.89,-3.49,-3.49,-3.49
31.30,-1.68,1.81,-1.68,1.81,-1.81,-1.56,-1.90,-3.49,-3.49,-3.49
31.61,-1.66,1.83,-1.66,1.83,-1.84,-1.57,-1.91,-3.50,-3.50,-3.49
31.93,-1.64,1.86,-1.64,1.86,-1.85,-1.59,-1.91,-3.50,-3.50,-3.50
32.24,-1.63,1.87,-1.63,1.88,-1.87,-1.60,-1.92,-3.50,-3.50,-3.50
32.57,-1.62,1.89,-1.62,1.89,-1.88,-1.61,-1.92,-3.50,-3.50,-3.51
32.89,-1.62,1.89,-1.62,1.89,-1.88,-1.63,-1.92,-3.50,-3.50,-3.51
33.22,-1.63,1.88,-1.63,1.88,-1.88,-1.64,-1.92,-3.51,-3.51,-3.51
33.55,-1.64,1.87,-1.64,1.87,-1.88,-1.66,-1.91,-3.52,-3.52,-3.51
33.89,-1.65,1.87,-1.65,1.87,-1.88,-1.67,-1.91,-3.53,-3.53,-3.52
34.23,-1.65,1.87,-1.65,1.87,-1.88,-1.68,-1.90,-3.53,-3.53,-3.52
34.57,-1.65,1.88,-1.65,1.88,-1.88,-1.69,-1.89,-3.53,-3.53,-3.53
34.92,-1.65,1.88,-1.65,1.88,-1.88,-1.71,-1.88,-3.53,-3.53,-3.53
35.27,-1.65,1.88,-1.65,1.88,-1.88,-1.72,-1.87,-3.53,-3.53,-3.53
35.62,-1.65,1.88,-1.65,1.88,-1.88,-1.73,-1.86,-3.53,-3.53,-3.53
35.97,-1.65,1.89,-1.65,1.89,-1.89,-1.75,-1.85,-3.54,-3.54,-3.54
36.33,-1.65,1.89,-1.65,1.89,-1.89,-1.76,-1.84,-3.54,-3.54,-3.54
36.70,-1.65,1.89,-1.65,1.89,-1.89,-1.77,-1.82,-3.54,-3.54,-3.54
37.06,-1.65,1.89,-1.65,1.89,-1.89,-1.78,-1.81,-3.54,-3.54,-3.54
37.43,-1.65,1.89,-1.65,1.89,-1.90,-1.79,-1.80,-3.55,-3.55,-3.54
37.81,-1.65,1.90,-1.65,1.90,-1.90,-1.81,-1.79,-3.55,-3.55,-3.55
38.19,-1.65,1.90,-1.65,1.90,-1.90,-1.82,-1.77,-3.55,-3.55,-3.55
38.57,-1.65,1.91,-1.65,1.91,-1.91,-1.83,-1.76,-3.56,-3.56,-3.56
38.95,-1.65,1.91,-1.65,1.91,-1.91,-1.84,-1.75,-3.56,-3.56,-3.56
39.34,-1.65,1.92,-1.65,1.92,-1.92,-1.85,-1.74,-3.57,-3.57,-3.57
39.74,-1.65,1.92,-1.65,1.92,-1.92,-1.86,-1.73,-3.57,-3.57,-3.57
40.14,-1.65,1.92,-1.65,1.93,-1.93,-1.87,-1.72,-3.58,-3.58,-3.57
40.54,-1.65,1.93,-1.65,1.93,-1.93,-1.88,-1.72,-3.58,-3.58,-3.58
40.94,-1.65,1.93,-1.65,1.93,-1.93,-1.89,-1.71,-3.58,-3.58,-3.58
41.35,-1.65,1.93,-1.65,1.93,-1.93,-1.90,-1.70,-3.58,-3.58,-3.58
41.76,-1.65,1.93,-1.65,1.93,-1.93,-1.91,-1.70,-3.58,-3.58,-3.58
42.18,-1.65,1.92,-1.65,1.92,-1.93,-1.92,-1.70,-3.58,-3.58,-3.57
42.60,-1.65,1.92,-1.65,1.92,-1.92,-1.93,-1.70,-3.57,-3.57,-3.57
43.03,-1.65,1.92,-1.65,1.92,-1.92,-1.94,-1.70,-3.57,-3.57,-3.57
43.46,-1.65,1.92,-1.65,1.92,-1.92,-1.95,-1.70,-3.57,-3.57,-3.57
43.90,-1.65,1.92,-1.65,1.92,-1.92,-1.96,-1.70,-3.57,-3.57,-3.57
44.33,-1.65,1.91,-1.65,1.91,-1.91,-1.96,-1.70,-3.57,-3.57,-3.56
44.78,-1.65,1.91,-1.65,1.91,-1.91,-1.97,-1.71,-3.56,-3.56,-3.56
45.23,-1.65,1.91,-1.65,1.91,-1.91,-1.98,-1.71,-3.56,-3.56,-3.56
45.68,-1.65,1.91,-1.65,1.91,-1.91,-1.99,-1.72,-3.56,-3.56,-3.56
46.13,-1.65,1.91,-1.66,1.91,-1.91,-1.99,-1.73,-3.56,-3.56,-3.56
46.60,-1.66,1.91,-1.66,1.91,-1.91,-2.00,-1.74,-3.57,-3.57,-3.57
47.06,-1.67,1.90,-1.66,1.91,-1.92,-2.01,-1.75,-3.59,-3.58,-3.57
47.53,-1.66,1.91,-1.66,1.91,-1.93,-2.01,-1.76,-3.59,-3.59,-3.57
48.01,-1.64,1.93,-1.65,1.93,-1.94,-2.02,-1.78,-3.58,-3.58,-3.57
48.49,-1.63,1.95,-1.63,1.95,-1.95,-2.02,-1.79,-3.58,-3.58,-3.58
48.97,-1.61,1.97,-1.61,1.97,-1.96,-2.03,-1.81,-3.58,-3.57,-3.58
49.46,-1.59,1.99,-1.59,1.99,-1.98,-2.03,-1.82,-3.57,-3.57,-3.58
49.96,-1.58,2.00,-1.58,2.00,-1.99,-2.04,-1.84,-3.57,-3.57,-3.58
50.46,-1.57,2.00,-1.57,2.00,-2.00,-2.04,-1.86,-3.57,-3.57,-3.57
50.96,-1.57,2.00,-1.57,2.01,-2.01,-2.05,-1.88,-3.58,-3.57,-3.57
51.47,-1.56,2.01,-1.56,2.01,-2.01,-2.05,-1.90,-3.57,-3.57,-3.57
51.99,-1.56,2.01,-1.56,2.01,-2.01,-2.05,-1.92,-3.57,-3.57,-3.57
52.51,-1.56,2.00,-1.56,2.01,-2.01,-2.06,-1.94,-3.57,-3.57,-3.56
53.03,-1.56,2.00,-1.56,2.00,-2.00,-2.06,-1.96,-3.56,-3.56,-3.56
53.56,-1.56,2.00,-1.56,2.00,-2.00,-2.06,-1.98,-3.56,-3.56,-3.56
54.10,-1.57,1.99,-1.57,1.99,-1.99,-2.06,-2.00,-3.56,-3.56,-3.56
54.64,-1.58,1.98,-1.58,1.98,-1.97,-2.07,-2.02,-3.56,-3.55,-3.56
55.18,-1.59,1.96,-1.59,1.97,-1.96,-2.07,-2.04,-3.55,-3.55,-3.55
55.74,-1.60,1.95,-1.60,1.95,-1.94,-2.07,-2.06,-3.54,-3.55,-3.55
56.29,-1.62,1.93,-1.62,1.93,-1.93,-2.07,-2.08,-3.55,-3.55,-3.55
56.86,-1.64,1.90,-1.64,1.91,-1.91,-2.07,-2.10,-3.55,-3.55,-3.54
57.42,-1.65,1.89,-1.66,1.89,-1.90,-2.07,-2.11,-3.55,-3.55,-3.54
58.00,-1.67,1.87,-1.67,1.87,-1.89,-2.07,-2.13,-3.56,-3.55,-3.54
58.58,-1.67,1.87,-1.67,1.87,-1.88,-2.07,-2.14,-3.55,-3.55,-3.54
59.16,-1.66,1.87,-1.66,1.87,-1.87,-2.07,-2.15,-3.53,-3.54,-3.53
59.76,-1.65,1.88,-1.65,1.88,-1.87,-2.07,-2.16,-3.52,-3.53,-3.53
60.35,-1.65,1.88,-1.65,1.88,-1.87,-2.07,-2.17,-3.52,-3.52,-3.53
60.96,-1.65,1.87,-1.65,1.88,-1.87,-2.06,-2.17,-3.52,-3.52,-3.52
61.57,-1.65,1.87,-1.65,1.87,-1.87,-2.06,-2.18,-3.52,-3.52,-3.52
62.18,-1.65,1.87,-1.65,1.87,-1.87,-2.06,-2.18,-3.52,-3.52,-3.52
62.80,-1.65,1.87,-1.65,1.87,-1.87,-2.06,-2.18,-3.52,-3.52,-3.52
63.43,-1.65,1.87,-1.65,1.87,-1.87,-2.05,-2.18,-3.52,-3.52,-3.52
64.07,-1.65,1.87,-1.65,1.87,-1.87,-2.05,-2.17,-3.52,-3.52,-3.52
64.71,-1.65,1.87,-1.65,1.87,-1.87,-2.05,-2.16,-3.52,-3.52,-3.52
65.35,-1.65,1.87,-1.65,1.87,-1.87,-2.04,-2.16,-3.52,-3.52,-3.52
66.01,-1.65,1.87,-1.65,1.87,-1.87,-2.04,-2.15,-3.52,-3.52,-3.52
66.67,-1.65,1.87,-1.65,1.87,-1.87,-2.03,-2.13,-3.52,-3.52,-3.52
67.33,-1.65,1.87,-1.65,1.87,-1.87,-2.03,-2.12,-3.52,-3.52,-3.52
68.01,-1.65,1.87,-1.65,1.87,-1.87,-2.02,-2.10,-3.52,-3.52,-3.52
68.69,-1.65,1.87,-1.65,1.87,-1.87,-2.02,-2.09,-3.52,-3.52,-3.52
69.37,-1.65,1.87,-1.65,1.87,-1.87,-2.01,-2.07,-3.52,-3.52,-3.52
70.07,-1.65,1.87,-1.65,1.87,-1.87,-2.01,-2.05,-3.52,-3.52,-3.52
70.77,-1.65,1.87,-1.65,1.87,-1.87,-2.00,-2.03,-3.52,-3.52,-3.52
71.48,-1.65,1.87,-1.65,1.87,-1.87,-1.99,-2.01,-3.52,-3.52,-3.52
72.19,-1.65,1.86,-1.65,1.87,-1.86,-1.99,-1.99,-3.52,-3.52,-3.51
72.91,-1.65,1.86,-1.65,1.86,-1.86,-1.98,-1.96,-3.51,-3.51,-3.51
73.64,-1.65,1.86,-1.65,1.86,-1.86,-1.97,-1.94,-3.51,-3.51,-3.51
74.38,-1.65,1.85,-1.65,1.86,-1.86,-1.96,-1.92,-3.51,-3.51,-3.50
75.12,-1.65,1.85,-1.65,1.85,-1.85,-1.96,-1.90,-3.50,-3.50,-3.50
75.87,-1.65,1.85,-1.65,1.85,-1.85,-1.95,-1.88,-3.50,-3.50,-3.50
76.63,-1.65,1.84,-1.65,1.84,-1.84,-1.94,-1.85,-3.49,-3.49,-3.49
77.40,-1.65,1.84,-1.65,1.84,-1.84,-1.93,-1.83,-3.49,-3.49,-3.49
78.17,-1.65,1.83,-1.65,1.83,-1.83,-1.92,-1.81,-3.49,-3.49,-3.48
78.95,-1.65,1.83,-1.65,1.83,-1.83,-1.91,-1.79,-3.48,-3.48,-3.48
79.74,-1.65,1.83,-1.65,1.83,-1.83,-1.90,-1.78,-3.48,-3.48,-3.48
80.54,-1.65,1.82,-1.65,1.82,-1.83,-1.89,-1.76,-3.48,-3.48,-3.47
81.35,-1.65,1.82,-1.65,1.82,-1.82,-1.88,-1.74,-3.47,-3.47,-3.47
82.16,-1.65,1.82,-1.65,1.82,-1.82,-1.87,-1.73,-3.47,-3.47,-3.47
82.98,-1.65,1.82,-1.65,1.82,-1.82,-1.86,-1.71,-3.47,-3.47,-3.47
83.81,-1.65,1.82,-1.65,1.82,-1.82,-1.85,-1.70,-3.47,-3.47,-3.47
84.65,-1.65,1.82,-1.65,1.82,-1.82,-1.84,-1.69,-3.47,-3.47,-3.47
85.50,-1.65,1.81,-1.65,1.81,-1.81,-1.83,-1.67,-3.47,-3.47,-3.46
86.35,-1.65,1.81,-1.65,1.81,-1.81,-1.82,-1.66,-3.46,-3.46,-3.46
87.22,-1.65,1.81,-1.65,1.81,-1.81,-1.81,-1.66,-3.46,-3.46,-3.46
88.09,-1.65,1.81,-1.65,1.81,-1.81,-1.80,-1.65,-3.46,-3.46,-3.46
88.97,-1.65,1.81,-1.65,1.81,-1.81,-1.78,-1.64,-3.46,-3.46,-3.46
89.86,-1.65,1.81,-1.65,1.81,-1.81,-1.77,-1.64,-3.46,-3.46,-3.46
90.76,-1.65,1.81,-1.65,1.81,-1.81,-1.76,-1.63,-3.46,-3.46,-3.46
91.66,-1.65,1.81,-1.65,1.81,-1.81,-1.75,-1.63,-3.46,-3.46,-3.46
92.58,-1.65,1.81,-1.65,1.81,-1.81,-1.74,-1.63,-3.46,-3.46,-3.46
93.51,-1.65,1.81,-1.65,1.81,-1.81,-1.72,-1.63,-3.46,-3.46,-3.46
94.44,-1.65,1.81,-1.65,1.81,-1.81,-1.71,-1.63,-3.46,-3.46,-3.46
95.39,-1.65,1.81,-1.65,1.81,-1.81,-1.70,-1.64,-3.46,-3.46,-3.46
96.34,-1.65,1.81,-1.65,1.81,-1.81,-1.69,-1.64,-3.46,-3.46,-3.46
97.30,-1.65,1.80,-1.65,1.80,-1.80,-1.67,-1.64,-3.46,-3.46,-3.45
98.28,-1.65,1.80,-1.65,1.80,-1.80,-1.66,-1.65,-3.45,-3.45,-3.45
99.26,-1.65,1.80,-1.65,1.80,-1.80,-1.65,-1.65,-3.45,-3.46,-3.45
100.25,-1.65,1.80,-1.65,1.80,-1.81,-1.63,-1.66,-3.46,-3.46,-3.45
101.25,-1.65,1.80,-1.65,1.80,-1.81,-1.62,-1.67,-3.46,-3.46,-3.45
102.27,-1.64,1.81,-1.64,1.81,-1.81,-1.61,-1.68,-3.45,-3.46,-3.45
103.29,-1.64,1.81,-1.64,1.81,-1.81,-1.59,-1.69,-3.45,-3.45,-3.45
104.32,-1.63,1.81,-1.63,1.82,-1.81,-1.58,-1.70,-3.45,-3.44,-3.44
105.37,-1.62,1.82,-1.62,1.82,-1.81,-1.57,-1.71,-3.43,-3.44,-3.44
106.42,-1.62,1.82,-1.62,1.81,-1.81,-1.55,-1.72,-3.43,-3.43,-3.44
107.48,-1.63,1.80,-1.63,1.80,-1.80,-1.54,-1.72,-3.43,-3.43,-3.43
108.56,-1.65,1.78,-1.65,1.78,-1.78,-1.53,-1.73,-3.43,-3.43,-3.43
109.64,-1.67,1.76,-1.67,1.76,-1.76,-1.51,-1.74,-3.43,-3.43,-3.43
110.74,-1.69,1.74,-1.69,1.74,-1.74,-1.50,-1.75,-3.43,-3.43,-3.43
111.85,-1.72,1.70,-1.72,1.71,-1.71,-1.48,-1.76,-3.43,-3.43,-3.42
112.97,-1.74,1.68,-1.74,1.68,-1.68,-1.47,-1.77,-3.42,-3.42,-3.42
114.10,-1.77,1.65,-1.77,1.65,-1.65,-1.46,-1.77,-3.42,-3.42,-3.42
115.24,-1.81,1.61,-1.81,1.62,-1.61,-1.44,-1.78,-3.42,-3.42,-3.42
116.39,-1.84,1.58,-1.84,1.58,-1.58,-1.43,-1.78,-3.42,-3.42,-3.42
117.55,-1.87,1.54,-1.87,1.54,-1.55,-1.41,-1.78,-3.42,-3.42,-3.41
118.73,-1.90,1.51,-1.90,1.51,-1.51,-1.40,-1.78,-3.41,-3.41,-3.41
119.92,-1.92,1.49,-1.93,1.48,-1.48,-1.39,-1.78,-3.40,-3.41,-3.41
121.12,-1.95,1.45,-1.95,1.46,-1.46,-1.37,-1.78,-3.41,-3.41,-3.40
122.33,-1.97,1.43,-1.97,1.43,-1.44,-1.36,-1.77,-3.41,-3.40,-3.40
123.55,-1.98,1.41,-1.98,1.41,-1.42,-1.34,-1.77,-3.40,-3.40,-3.39
124.79,-1.99,1.40,-1.99,1.40,-1.41,-1.33,-1.76,-3.40,-3.40,-3.39
126.03,-1.99,1.40,-1.99,1.40,-1.40,-1.32,-1.75,-3.39,-3.39,-3.39
127.29,-1.99,1.39,-1.99,1.40,-1.40,-1.30,-1.74,-3.39,-3.38,-3.38
128.57,-1.98,1.40,-1.98,1.40,-1.39,-1.29,-1.72,-3.38,-3.38,-3.38
129.85,-1.97,1.40,-1.97,1.40,-1.40,-1.28,-1.70,-3.37,-3.37,-3.37
131.15,-1.97,1.40,-1.97,1.40,-1.40,-1.26,-1.68,-3.37,-3.37,-3.37
132.46,-1.97,1.40,-1.97,1.40,-1.40,-1.25,-1.66,-3.37,-3.37,-3.37
133.79,-1.97,1.40,-1.97,1.40,-1.40,-1.23,-1.64,-3.37,-3.37,-3.37
135.12,-1.97,1.40,-1.97,1.40,-1.41,-1.22,-1.62,-3.38,-3.38,-3.37
136.48,-1.97,1.40,-1.97,1.40,-1.41,-1.21,-1.59,-3.38,-3.37,-3.37
137.84,-1.96,1.40,-1.96,1.40,-1.41,-1.19,-1.57,-3.37,-3.37,-3.36
139.22,-1.95,1.41,-1.95,1.41,-1.41,-1.18,-1.54,-3.36,-3.36,-3.36
140.61,-1.95,1.41,-1.95,1.41,-1.41,-1.17,-1.51,-3.36,-3.36,-3.36
142.02,-1.95,1.41,-1.95,1.41,-1.40,-1.15,-1.48,-3.35,-3.35,-3.36
143.44,-1.96,1.40,-1.96,1.40,-1.39,-1.14,-1.45,-3.35,-3.35,-3.36
144.87,-1.97,1.38,-1.97,1.38,-1.38,-1.13,-1.42,-3.35,-3.35,-3.35
146.32,-1.99,1.36,-1.99,1.36,-1.36,-1.12,-1.38,-3.35,-3.35,-3.35
147.78,-2.02,1.33,-2.02,1.33,-1.33,-1.10,-1.35,-3.35,-3.35,-3.35
149.26,-2.04,1.30,-2.04,1.30,-1.30,-1.09,-1.32,-3.34,-3.35,-3.34
150.75,-2.07,1.27,-2.07,1.27,-1.27,-1.08,-1.28,-3.34,-3.34,-3.34
152.26,-2.10,1.24,-2.10,1.24,-1.23,-1.07,-1.25,-3.34,-3.34,-3.34
153.78,-2.13,1.20,-2.13,1.20,-1.20,-1.05,-1.21,-3.33,-3.33,-3.33
155.32,-2.17,1.16,-2.17,1.16,-1.17,-1.04,-1.18,-3.34,-3.33,-3.33
156.88,-2.20,1.13,-2.20,1.13,-1.13,-1.03,-1.15,-3.33,-3.33,-3.33
158.44,-2.23,1.09,-2.23,1.10,-1.10,-1.02,-1.11,-3.33,-3.33,-3.32
160.03,-2.25,1.07,-2.25,1.07,-1.07,-1.01,-1.08,-3.32,-3.32,-3.32
161.63,-2.27,1.05,-2.27,1.05,-1.05,-0.99,-1.05,-3.32,-3.32,-3.32
163.24,-2.29,1.03,-2.29,1.03,-1.03,-0.98,-1.02,-3.32,-3.32,-3.32
164.88,-2.31,1.01,-2.31,1.01,-1.02,-0.97,-0.98,-3.33,-3.33,-3.32
166.53,-2.32,0.99,-2.32,1.00,-1.01,-0.96,-0.95,-3.33,-3.33,-3.31
168.19,-2.31,1.00,-2.31,1.00,-1.01,-0.95,-0.92,-3.32,-3.32,-3.31
169.87,-2.30,1.01,-2.30,1.01,-1.01,-0.94,-0.89,-3.31,-3.31,-3.31
171.57,-2.28,1.02,-2.29,1.02,-1.01,-0.93,-0.86,-3.29,-3.30,-3.30
173.29,-2.28,1.02,-2.28,1.02,-1.01,-0.92,-0.83,-3.29,-3.29,-3.30
175.02,-2.28,1.02,-2.28,1.02,-1.00,-0.90,-0.80,-3.28,-3.28,-3.30
176.77,-2.29,1.01,-2.29,1.00,-0.99,-0.89,-0.77,-3.29,-3.29,-3.30
178.54,-2.31,0.98,-2.31,0.98,-0.98,-0.88,-0.74,-3.29,-3.29,-3.29
180.32,-2.34,0.95,-2.34,0.96,-0.96,-0.87,-0.71,-3.30,-3.30,-3.29
182.13,-2.36,0.93,-2.36,0.93,-0.94,-0.86,-0.69,-3.30,-3.30,-3.29
183.95,-2.39,0.90,-2.39,0.90,-0.91,-0.85,-0.66,-3.30,-3.30,-3.29
185.79,-2.42,0.88,-2.42,0.88,-0.88,-0.84,-0.63,-3.30,-3.30,-3.30
187.65,-2.45,0.85,-2.45,0.85,-0.85,-0.83,-0.61,-3.30,-3.30,-3.30
189.52,-2.48,0.82,-2.48,0.82,-0.82,-0.83,-0.58,-3.30,-3.30,-3.30
191.42,-2.51,0.79,-2.51,0.79,-0.79,-0.82,-0.56,-3.30,-3.30,-3.30
193.33,-2.54,0.75,-2.54,0.75,-0.76,-0.81,-0.54,-3.30,-3.30,-3.29
195.27,-2.57,0.72,-2.57,0.73,-0.73,-0.80,-0.51,-3.30,-3.29,-3.29
197.22,-2.59,0.70,-2.59,0.70,-0.70,-0.79,-0.49,-3.29,-3.29,-3.29
199.19,-2.61,0.68,-2.61,0.68,-0.68,-0.78,-0.47,-3.29,-3.29,-3.29
201.18,-2.63,0.65,-2.63,0.66,-0.66,-0.77,-0.45,-3.29,-3.29,-3.28
203.19,-2.64,0.64,-2.64,0.64,-0.65,-0.76,-0.43,-3.29,-3.29,-3.28
205.23,-2.64,0.64,-2.64,0.63,-0.64,-0.76,-0.41,-3.28,-3.29,-3.28
207.28,-2.64,0.63,-2.64,0.64,-0.64,-0.75,-0.39,-3.28,-3.28,-3.27
209.35,-2.63,0.64,-2.63,0.64,-0.64,-0.74,-0.37,-3.27,-3.27,-3.27
211.44,-2.62,0.65,-2.62,0.64,-0.64,-0.73,-0.35,-3.26,-3.26,-3.27
213.56,-2.62,0.64,-2.62,0.64,-0.64,-0.73,-0.33,-3.26,-3.26,-3.26
215.69,-2.62,0.64,-2.62,0.64,-0.64,-0.72,-0.32,-3.26,-3.26,-3.26
217.85,-2.62,0.64,-2.62,0.64,-0.64,-0.71,-0.30,-3.26,-3.26,-3.26
220.03,-2.62,0.64,-2.62,0.64,-0.64,-0.71,-0.29,-3.26,-3.26,-3.26
222.23,-2.62,0.63,-2.62,0.63,-0.64,-0.70,-0.28,-3.26,-3.26,-3.25
224.45,-2.62,0.63,-2.62,0.63,-0.63,-0.69,-0.26,-3.25,-3.25,-3.25
226.70,-2.62,0.63,-2.62,0.63,-0.63,-0.69,-0.25,-3.25,-3.25,-3.25
228.96,-2.62,0.63,-2.62,0.63,-0.63,-0.68,-0.24,-3.25,-3.25,-3.25
231.25,-2.62,0.62,-2.62,0.63,-0.63,-0.68,-0.23,-3.25,-3.25,-3.24
233.57,-2.61,0.63,-2.61,0.63,-0.63,-0.67,-0.23,-3.24,-3.24,-3.24
235.90,-2.60,0.63,-2.60,0.63,-0.63,-0.67,-0.22,-3.23,-3.23,-3.23
238.26,-2.60,0.63,-2.60,0.63,-0.63,-0.66,-0.21,-3.23,-3.22,-3.23
240.64,-2.60,0.62,-2.60,0.62,-0.62,-0.66,-0.21,-3.22,-3.22,-3.22
243.05,-2.60,0.61,-2.60,0.61,-0.60,-0.65,-0.21,-3.20,-3.21,-3.21
245.48,-2.62,0.59,-2.62,0.59,-0.59,-0.65,-0.21,-3.21,-3.20,-3.21
247.93,-2.63,0.57,-2.63,0.57,-0.56,-0.64,-0.21,-3.19,-3.20,-3.20
250.41,-2.66,0.53,-2.66,0.54,-0.54,-0.64,-0.21,-3.20,-3.19,-3.19
252.92,-2.68,0.50,-2.68,0.50,-0.50,-0.64,-0.21,-3.19,-3.19,-3.18
255.45,-2.71,0.47,-2.71,0.47,-0.47,-0.63,-0.22,-3.18,-3.18,-3.18
258.00,-2.74,0.43,-2.74,0.43,-0.43,-0.63,-0.22,-3.18,-3.17,-3.17
260.58,-2.77,0.40,-2.77,0.40,-0.40,-0.63,-0.23,-3.17,-3.17,-3.17
263.19,-2.80,0.36,-2.80,0.36,-0.36,-0.63,-0.24,-3.16,-3.16,-3.16
265.82,-2.83,0.33,-2.83,0.33,-0.33,-0.62,-0.25,-3.16,-3.16,-3.16
268.48,-2.86,0.29,-2.86,0.29,-0.29,-0.62,-0.26,-3.15,-3.15,-3.15
271.16,-2.89,0.26,-2.89,0.26,-0.26,-0.62,-0.28,-3.15,-3.15,-3.15
273.87,-2.91,0.24,-2.92,0.23,-0.23,-0.62,-0.29,-3.15,-3.15,-3.15
276.61,-2.94,0.20,-2.94,0.21,-0.21,-0.62,-0.31,-3.15,-3.15,-3.14
279.38,-2.95,0.19,-2.95,0.19,-0.19,-0.62,-0.32,-3.14,-3.15,-3.14
282.17,-2.96,0.18,-2.96,0.17,-0.18,-0.62,-0.34,-3.14,-3.15,-3.14
284.99,-2.97,0.16,-2.97,0.17,-0.18,-0.62,-0.36,-3.15,-3.14,-3.13
287.84,-2.97,0.16,-2.97,0.16,-0.17,-0.62,-0.38,-3.14,-3.14,-3.13
290.72,-2.96,0.17,-2.96,0.17,-0.17,-0.62,-0.40,-3.13,-3.13,-3.13
293.63,-2.95,0.18,-2.95,0.18,-0.17,-0.62,-0.42,-3.12,-3.12,-3.13
296.57,-2.94,0.19,-2.94,0.19,-0.17,-0.62,-0.45,-3.11,-3.11,-3.13
299.53,-2.94,0.19,-2.94,0.19,-0.17,-0.62,-0.47,-3.11,-3.11,-3.13
302.53,-2.95,0.17,-2.95,0.17,-0.16,-0.62,-0.49,-3.12,-3.11,-3.12
305.55,-2.96,0.16,-2.96,0.16,-0.16,-0.62,-0.52,-3.12,-3.12,-3.12
308.61,-2.97,0.14,-2.97,0.15,-0.15,-0.63,-0.55,-3.13,-3.12,-3.11
311.69,-2.97,0.14,-2.97,0.14,-0.15,-0.63,-0.57,-3.12,-3.12,-3.11
314.81,-2.96,0.14,-2.96,0.14,-0.15,-0.63,-0.60,-3.11,-3.11,-3.10
317.96,-2.95,0.15,-2.95,0.15,-0.16,-0.64,-0.63,-3.11,-3.11,-3.10
321.14,-2.93,0.16,-2.93,0.16,-0.17,-0.64,-0.66,-3.10,-3.10,-3.09
324.35,-2.91,0.18,-2.91,0.18,-0.18,-0.65,-0.69,-3.09,-3.09,-3.09
327.59,-2.88,0.21,-2.88,0.21,-0.20,-0.65,-0.72,-3.08,-3.08,-3.09
330.87,-2.85,0.23,-2.86,0.23,-0.22,-0.66,-0.75,-3.07,-3.07,-3.08
334.18,-2.83,0.25,-2.83,0.25,-0.24,-0.66,-0.78,-3.07,-3.07,-3.08
337.52,-2.81,0.26,-2.81,0.26,-0.27,-0.67,-0.82,-3.08,-3.07,-3.07
340.90,-2.78,0.28,-2.78,0.28,-0.29,-0.68,-0.85,-3.07,-3.07,-3.06
344.30,-2.75,0.31,-2.75,0.31,-0.32,-0.68,-0.88,-3.07,-3.07,-3.06
347.75,-2.72,0.34,-2.72,0.34,-0.35,-0.69,-0.92,-3.07,-3.07,-3.06
351.23,-2.68,0.38,-2.68,0.38,-0.38,-0.70,-0.96,-3.06,-3.06,-3.06
354.74,-2.64,0.41,-2.64,0.42,-0.41,-0.71,-0.99,-3.06,-3.05,-3.05
358.28,-2.59,0.46,-2.60,0.46,-0.45,-0.72,-1.03,-3.04,-3.05,-3.05
361.87,-2.56,0.49,-2.56,0.49,-0.48,-0.73,-1.07,-3.04,-3.04,-3.05
365.49,-2.53,0.52,-2.53,0.52,-0.52,-0.74,-1.11,-3.05,-3.04,-3.05
369.14,-2.50,0.55,-2.50,0.55,-0.55,-0.76,-1.15,-3.05,-3.05,-3.05
372.83,-2.47,0.58,-2.47,0.58,-0.58,-0.77,-1.19,-3.05,-3.05,-3.05
376.56,-2.44,0.60,-2.44,0.60,-0.61,-0.78,-1.23,-3.05,-3.05,-3.04
380.33,-2.41,0.63,-2.41,0.63,-0.64,-0.80,-1.27,-3.05,-3.05,-3.04
384.13,-2.37,0.67,-2.37,0.67,-0.68,-0.81,-1.31,-3.05,-3.05,-3.04
387.97,-2.33,0.71,-2.33,0.71,-0.71,-0.83,-1.35,-3.04,-3.04,-3.04
391.85,-2.28,0.75,-2.28,0.75,-0.75,-0.85,-1.40,-3.03,-3.04,-3.03
395.77,-2.24,0.79,-2.24,0.79,-0.79,-0.86,-1.44,-3.03,-3.03,-3.03
399.73,-2.19,0.83,-2.19,0.83,-0.83,-0.88,-1.48,-3.02,-3.02,-3.02
403.72,-2.14,0.88,-2.14,0.88,-0.87,-0.90,-1.53,-3.01,-3.01,-3.02
407.76,-2.09,0.92,-2.09,0.92,-0.91,-0.93,-1.57,-3.00,-3.01,-3.01
411.84,-2.05,0.96,-2.05,0.96,-0.96,-0.95,-1.62,-3.01,-3.01,-3.01
415.96,-2.01,0.99,-2.01,0.99,-1.00,-0.97,-1.66,-3.01,-3.01,-3.00
420.12,-1.97,1.03,-1.96,1.04,-1.05,-1.00,-1.70,-3.02,-3.01,-3.00
424.32,-1.91,1.09,-1.91,1.09,-1.10,-1.02,-1.75,-3.01,-3.01,-3.00
