frequency,raw,error,smoothed,error_smoothed,equalization,parametric_eq,fixed_band_eq,equalized_raw,equalized_smoothed,target
20.00,14.19,7.20,14.19,7.21,-7.21,-7.29,-3.01,6.98,6.98,6.99
20.20,14.17,7.19,14.17,7.19,-7.19,-7.28,-3.09,6.98,6.98,6.98
20.40,14.14,7.16,14.14,7.17,-7.17,-7.27,-3.17,6.97,6.98,6.98
20.61,14.12,7.16,14.12,7.15,-7.15,-7.27,-3.26,6.97,6.97,6.97
20.81,14.10,7.14,14.10,7.13,-7.13,-7.26,-3.35,6.97,6.96,6.97
21.02,14.07,7.11,14.07,7.12,-7.12,-7.25,-3.45,6.95,6.95,6.97
21.23,14.05,7.11,14.05,7.10,-7.11,-7.24,-3.54,6.94,6.94,6.94
21.44,14.02,7.10,14.02,7.10,-7.10,-7.23,-3.64,6.92,6.92,6.92
21.66,14.00,7.10,14.00,7.10,-7.09,-7.22,-3.74,6.91,6.90,6.90
21.87,13.97,7.10,13.97,7.10,-7.09,-7.20,-3.85,6.88,6.88,6.87
22.09,13.95,7.10,13.95,7.09,-7.09,-7.19,-3.95,6.86,6.86,6.85
22.31,13.92,7.09,13.92,7.09,-7.09,-7.17,-4.06,6.83,6.83,6.83
22.54,13.88,7.08,13.89,7.08,-7.09,-7.16,-4.18,6.79,6.80,6.80
22.76,13.86,7.09,13.86,7.09,-7.09,-7.14,-4.29,6.77,6.77,6.77
22.99,13.83,7.09,13.83,7.09,-7.09,-7.12,-4.41,6.74,6.74,6.74
23.22,13.80,7.09,13.80,7.09,-7.08,-7.11,-4.53,6.72,6.72,6.71
23.45,13.77,7.08,13.77,7.08,-7.07,-7.09,-4.65,6.70,6.70,6.69
23.69,13.74,7.07,13.74,7.07,-7.06,-7.07,-4.78,6.68,6.68,6.67
23.92,13.71,7.06,13.71,7.05,-7.05,-7.05,-4.91,6.66,6.66,6.65
24.16,13.67,7.03,13.67,7.03,-7.04,-7.03,-5.04,6.63,6.63,6.64
24.40,13.63,7.01,13.63,7.01,-7.02,-7.00,-5.17,6.61,6.61,6.62
24.65,13.60,7.00,13.60,7.00,-7.00,-6.98,-5.31,6.60,6.59,6.60
24.89,13.56,6.98,13.56,6.99,-6.99,-6.96,-5.44,6.57,6.58,6.58
25.14,13.53,6.97,13.53,6.97,-6.97,-6.93,-5.58,6.56,6.56,6.56
25.39,13.49,6.95,13.49,6.95,-6.95,-6.91,-5.72,6.54,6.54,6.54
25.65,13.45,6.92,13.45,6.93,-6.93,-6.89,-5.86,6.52,6.52,6.53
25.91,13.42,6.92,13.42,6.92,-6.91,-6.86,-6.00,6.51,6.50,6.50
26.16,13.38,6.89,13.38,6.90,-6.89,-6.83,-6.14,6.49,6.49,6.49
26.43,13.34,6.88,13.34,6.87,-6.87,-6.81,-6.28,6.47,6.47,6.47
26.69,13.30,6.85,13.30,6.85,-6.85,-6.78,-6.42,6.45,6.45,6.46
26.96,13.26,6.83,13.26,6.82,-6.83,-6.75,-6.55,6.43,6.43,6.43
27.23,13.22,6.80,13.22,6.80,-6.80,-6.72,-6.69,6.42,6.42,6.42
27.50,13.18,6.78,13.18,6.78,-6.78,-6.70,-6.82,6.40,6.40,6.40
27.77,13.14,6.76,13.14,6.75,-6.75,-6.67,-6.94,6.39,6.39,6.38
28.05,13.10,6.73,13.10,6.73,-6.73,-6.64,-7.06,6.37,6.37,6.37
28.33,13.05,6.71,13.05,6.71,-6.70,-6.61,-7.18,6.35,6.36,6.34
28.62,13.01,6.68,13.01,6.67,-6.67,-6.58,-7.29,6.34,6.34,6.33
28.90,12.96,6.63,12.96,6.64,-6.64,-6.55,-7.39,6.32,6.32,6.33
29.19,12.91,6.60,12.92,6.60,-6.61,-6.51,-7.48,6.30,6.31,6.31
29.48,12.88,6.57,12.87,6.57,-6.58,-6.48,-7.56,6.30,6.30,6.31
29.78,12.83,6.54,12.83,6.54,-6.55,-6.45,-7.64,6.29,6.28,6.29
30.08,12.78,6.51,12.78,6.51,-6.51,-6.42,-7.70,6.27,6.27,6.28
30.38,12.73,6.48,12.74,6.48,-6.48,-6.39,-7.75,6.25,6.25,6.25
30.68,12.69,6.46,12.69,6.45,-6.45,-6.35,-7.78,6.24,6.24,6.23
30.99,12.64,6.43,12.64,6.42,-6.41,-6.32,-7.81,6.23,6.22,6.21
31.30,12.58,6.38,12.58,6.38,-6.38,-6.29,-7.82,6.20,6.20,6.20
31.61,12.52,6.33,12.52,6.34,-6.34,-6.25,-7.82,6.18,6.18,6.19
31.93,12.46,6.30,12.46,6.30,-6.30,-6.22,-7.81,6.16,6.16,6.16
32.24,12.40,6.26,12.40,6.26,-6.26,-6.18,-7.79,6.14,6.14,6.14
32.57,12.34,6.23,12.34,6.22,-6.22,-6.15,-7.75,6.12,6.12,6.12
32.89,12.28,6.18,12.28,6.18,-6.18,-6.11,-7.71,6.10,6.10,6.10
33.22,12.22,6.15,12.22,6.14,-6.14,-6.08,-7.65,6.08,6.08,6.07
33.55,12.16,6.10,12.16,6.10,-6.11,-6.04,-7.58,6.05,6.05,6.06
33.89,12.10,6.07,12.10,6.07,-6.07,-6.01,-7.51,6.03,6.04,6.03
34.23,12.04,6.02,12.04,6.03,-6.03,-5.97,-7.43,6.02,6.01,6.02
34.57,11.98,5.99,11.98,5.99,-5.99,-5.93,-7.34,5.99,5.99,5.99
34.92,11.91,5.95,11.92,5.95,-5.95,-5.90,-7.24,5.97,5.97,5.96
35.27,11.85,5.90,11.85,5.90,-5.91,-5.86,-7.14,5.95,5.95,5.95
35.62,11.79,5.86,11.79,5.86,-5.86,-5.83,-7.03,5.93,5.92,5.93
35.97,11.72,5.82,11.73,5.82,-5.82,-5.79,-6.92,5.90,5.90,5.90
36.33,11.67,5.78,11.66,5.78,-5.78,-5.75,-6.81,5.89,5.88,5.89
36.70,11.60,5.74,11.60,5.74,-5.74,-5.71,-6.70,5.86,5.86,5.86
37.06,11.54,5.71,11.54,5.70,-5.70,-5.68,-6.58,5.84,5.84,5.83
37.43,11.48,5.66,11.48,5.66,-5.66,-5.64,-6.47,5.82,5.82,5.82
37.81,11.41,5.61,11.42,5.62,-5.62,-5.60,-6.35,5.79,5.80,5.80
38.19,11.36,5.59,11.35,5.58,-5.58,-5.56,-6.24,5.78,5.78,5.77
38.57,11.29,5.53,11.29,5.54,-5.54,-5.53,-6.12,5.75,5.76,5.76
38.95,11.23,5.49,11.23,5.50,-5.50,-5.49,-6.01,5.73,5.73,5.74
39.34,11.17,5.46,11.17,5.45,-5.46,-5.45,-5.90,5.71,5.71,5.71
39.74,11.10,5.42,11.10,5.42,-5.41,-5.41,-5.79,5.69,5.69,5.68
40.14,11.04,5.37,11.04,5.37,-5.37,-5.37,-5.69,5.67,5.67,5.67
40.54,10.97,5.33,10.98,5.33,-5.33,-5.34,-5.58,5.64,5.65,5.65
40.94,10.92,5.29,10.92,5.29,-5.29,-5.30,-5.48,5.63,5.63,5.63
41.35,10.85,5.24,10.86,5.24,-5.24,-5.26,-5.39,5.61,5.61,5.61
41.76,10.80,5.21,10.79,5.20,-5.20,-5.22,-5.29,5.60,5.60,5.59
42.18,10.73,5.15,10.73,5.15,-5.15,-5.18,-5.20,5.58,5.58,5.58
42.60,10.67,5.11,10.67,5.11,-5.11,-5.14,-5.11,5.56,5.56,5.56
43.03,10.61,5.06,10.61,5.06,-5.07,-5.11,-5.03,5.54,5.54,5.55
43.46,10.55,5.02,10.55,5.03,-5.03,-5.07,-4.95,5.52,5.52,5.53
43.90,10.49,5.00,10.49,4.99,-4.99,-5.03,-4.87,5.50,5.50,5.49
44.33,10.43,4.96,10.43,4.96,-4.95,-4.99,-4.80,5.48,5.47,5.47
44.78,10.36,4.91,10.37,4.92,-4.91,-4.95,-4.73,5.45,5.45,5.45
45.23,10.31,4.88,10.31,4.88,-4.88,-4.91,-4.66,5.44,5.43,5.43
45.68,10.25,4.84,10.25,4.84,-4.84,-4.88,-4.60,5.42,5.41,5.41
46.13,10.19,4.80,10.19,4.80,-4.79,-4.84,-4.54,5.40,5.40,5.39
46.60,10.13,4.75,10.13,4.75,-4.75,-4.80,-4.48,5.38,5.38,5.38
47.06,10.08,4.71,10.08,4.71,-4.71,-4.76,-4.43,5.37,5.36,5.37
47.53,10.02,4.67,10.02,4.67,-4.67,-4.72,-4.38,5.35,5.35,5.35
48.01,9.96,4.63,9.96,4.63,-4.64,-4.69,-4.33,5.33,5.33,5.33
48.49,9.90,4.59,9.90,4.59,-4.60,-4.65,-4.29,5.30,5.30,5.31
48.97,9.84,4.56,9.84,4.56,-4.56,-4.61,-4.25,5.28,5.28,5.28
49.46,9.78,4.53,9.78,4.53,-4.53,-4.58,-4.21,5.25,5.25,5.25
49.96,9.73,4.51,9.73,4.50,-4.50,-4.54,-4.17,5.23,5.23,5.23
50.46,9.68,4.47,9.68,4.47,-4.46,-4.50,-4.14,5.22,5.21,5.21
50.96,9.62,4.43,9.62,4.44,-4.43,-4.46,-4.11,5.19,5.19,5.19
51.47,9.56,4.40,9.56,4.40,-4.40,-4.43,-4.08,5.16,5.17,5.16
51.99,9.51,4.37,9.51,4.36,-4.36,-4.39,-4.06,5.15,5.14,5.14
52.51,9.45,4.32,9.45,4.32,-4.33,-4.36,-4.04,5.12,5.13,5.13
53.03,9.40,4.28,9.40,4.29,-4.29,-4.32,-4.01,5.11,5.11,5.12
53.56,9.35,4.26,9.35,4.26,-4.26,-4.28,-3.99,5.09,5.09,5.09
54.10,9.30,4.23,9.30,4.23,-4.23,-4.25,-3.97,5.07,5.07,5.07
54.64,9.24,4.19,9.25,4.20,-4.20,-4.21,-3.96,5.04,5.05,5.05
55.18,9.19,4.16,9.19,4.16,-4.17,-4.18,-3.94,5.02,5.02,5.03
55.74,9.14,4.14,9.14,4.13,-4.14,-4.15,-3.92,5.01,5.00,5.01
56.29,9.08,4.10,9.09,4.10,-4.10,-4.11,-3.91,4.98,4.98,4.98
56.86,9.04,4.08,9.04,4.08,-4.07,-4.08,-3.89,4.97,4.97,4.96
57.42,8.99,4.05,8.99,4.05,-4.04,-4.04,-3.88,4.95,4.95,4.94
58.00,8.94,4.01,8.94,4.01,-4.01,-4.01,-3.86,4.93,4.93,4.93
58.58,8.89,3.98,8.89,3.98,-3.98,-3.98,-3.84,4.91,4.91,4.92
59.16,8.84,3.94,8.84,3.94,-3.95,-3.95,-3.83,4.89,4.90,4.90
59.76,8.79,3.91,8.79,3.91,-3.92,-3.92,-3.81,4.88,4.87,4.88
60.35,8.74,3.89,8.74,3.88,-3.89,-3.88,-3.79,4.85,4.85,4.85
60.96,8.68,3.84,8.69,3.86,-3.86,-3.85,-3.78,4.82,4.83,4.84
61.57,8.64,3.84,8.64,3.83,-3.83,-3.82,-3.76,4.81,4.81,4.81
62.18,8.59,3.81,8.59,3.81,-3.80,-3.79,-3.74,4.79,4.79,4.78
62.80,8.54,3.78,8.54,3.78,-3.77,-3.76,-3.71,4.77,4.77,4.76
63.43,8.49,3.75,8.49,3.75,-3.74,-3.73,-3.69,4.75,4.74,4.74
64.07,8.43,3.71,8.44,3.72,-3.71,-3.70,-3.67,4.72,4.72,4.72
64.71,8.39,3.69,8.38,3.68,-3.68,-3.68,-3.64,4.71,4.70,4.70
65.35,8.33,3.65,8.33,3.65,-3.65,-3.65,-3.62,4.68,4.68,4.68
66.01,8.28,3.61,8.29,3.62,-3.62,-3.62,-3.59,4.66,4.66,4.67
66.67,8.24,3.59,8.24,3.59,-3.59,-3.59,-3.56,4.65,4.65,4.65
67.33,8.19,3.56,8.19,3.56,-3.56,-3.57,-3.53,4.63,4.63,4.63
68.01,8.14,3.53,8.14,3.53,-3.53,-3.54,-3.50,4.61,4.61,4.61
68.69,8.09,3.50,8.09,3.51,-3.50,-3.52,-3.48,4.59,4.59,4.59
69.37,8.04,3.48,8.04,3.48,-3.48,-3.49,-3.45,4.56,4.57,4.57
70.07,8.00,3.46,8.00,3.45,-3.45,-3.47,-3.42,4.55,4.55,4.54
70.77,7.95,3.42,7.95,3.42,-3.43,-3.45,-3.39,4.52,4.53,4.53
71.48,7.91,3.40,7.91,3.40,-3.40,-3.42,-3.36,4.51,4.50,4.51
72.19,7.86,3.38,7.86,3.38,-3.38,-3.40,-3.33,4.48,4.48,4.48
72.91,7.81,3.36,7.81,3.36,-3.36,-3.38,-3.30,4.45,4.46,4.45
73.64,7.77,3.35,7.77,3.34,-3.34,-3.36,-3.27,4.44,4.43,4.43
74.38,7.72,3.31,7.72,3.32,-3.31,-3.34,-3.24,4.41,4.41,4.41
75.12,7.68,3.30,7.68,3.29,-3.29,-3.32,-3.22,4.39,4.38,4.38
75.87,7.63,3.27,7.63,3.27,-3.27,-3.30,-3.19,4.36,4.36,4.36
76.63,7.59,3.25,7.59,3.25,-3.25,-3.28,-3.17,4.34,4.33,4.34
77.40,7.54,3.23,7.54,3.23,-3.24,-3.27,-3.15,4.31,4.31,4.31
78.17,7.50,3.23,7.50,3.22,-3.22,-3.25,-3.13,4.28,4.28,4.27
78.95,7.46,3.21,7.46,3.20,-3.20,-3.23,-3.11,4.26,4.26,4.26
79.74,7.42,3.18,7.42,3.19,-3.19,-3.22,-3.09,4.23,4.23,4.24
80.54,7.37,3.17,7.38,3.17,-3.18,-3.20,-3.08,4.20,4.20,4.21
81.35,7.34,3.17,7.34,3.16,-3.16,-3.19,-3.06,4.18,4.17,4.17
82.16,7.30,3.16,7.30,3.15,-3.15,-3.18,-3.05,4.15,4.15,4.14
82.98,7.26,3.14,7.26,3.15,-3.14,-3.17,-3.04,4.12,4.12,4.12
83.81,7.22,3.14,7.22,3.14,-3.13,-3.15,-3.04,4.09,4.08,4.08
84.65,7.17,3.12,7.18,3.13,-3.13,-3.14,-3.03,4.05,4.05,4.05
85.50,7.14,3.12,7.14,3.12,-3.12,-3.13,-3.03,4.02,4.02,4.02
86.35,7.10,3.11,7.10,3.11,-3.11,-3.12,-3.03,3.99,3.99,3.99
87.22,7.05,3.10,7.06,3.10,-3.10,-3.12,-3.03,3.95,3.96,3.95
88.09,7.02,3.10,7.02,3.09,-3.09,-3.11,-3.04,3.93,3.92,3.92
88.97,6.98,3.09,6.98,3.09,-3.09,-3.10,-3.04,3.89,3.89,3.89
89.86,6.94,3.07,6.95,3.08,-3.08,-3.10,-3.05,3.86,3.86,3.87
90.76,6.91,3.09,6.91,3.08,-3.08,-3.09,-3.06,3.83,3.83,3.82
91.66,6.87,3.07,6.87,3.08,-3.08,-3.09,-3.07,3.79,3.79,3.80
92.58,6.83,3.08,6.83,3.08,-3.08,-3.09,-3.09,3.76,3.76,3.75
93.51,6.80,3.07,6.80,3.07,-3.08,-3.08,-3.11,3.72,3.72,3.73
94.44,6.77,3.08,6.77,3.08,-3.08,-3.08,-3.13,3.69,3.69,3.69
95.39,6.74,3.08,6.74,3.08,-3.09,-3.08,-3.15,3.66,3.65,3.66
96.34,6.70,3.09,6.70,3.09,-3.09,-3.08,-3.17,3.61,3.61,3.61
97.30,6.67,3.10,6.67,3.10,-3.10,-3.08,-3.20,3.57,3.57,3.57
98.28,6.64,3.11,6.64,3.11,-3.11,-3.09,-3.22,3.53,3.53,3.53
99.26,6.61,3.12,6.61,3.12,-3.12,-3.09,-3.25,3.49,3.50,3.49
100.25,6.58,3.13,6.58,3.13,-3.13,-3.09,-3.28,3.45,3.45,3.45
101.25,6.55,3.14,6.55,3.14,-3.14,-3.10,-3.31,3.41,3.41,3.41
102.27,6.51,3.14,6.51,3.14,-3.15,-3.10,-3.34,3.36,3.37,3.37
103.29,6.48,3.17,6.48,3.16,-3.16,-3.11,-3.38,3.32,3.33,3.32
104.32,6.45,3.16,6.45,3.17,-3.17,-3.12,-3.41,3.28,3.28,3.29
105.37,6.43,3.19,6.42,3.18,-3.18,-3.13,-3.45,3.25,3.24,3.24
106.42,6.39,3.19,6.39,3.20,-3.20,-3.14,-3.48,3.19,3.20,3.20
107.48,6.36,3.20,6.37,3.21,-3.22,-3.15,-3.51,3.15,3.15,3.16
108.56,6.34,3.24,6.34,3.23,-3.23,-3.16,-3.55,3.11,3.10,3.10
109.64,6.31,3.25,6.31,3.25,-3.25,-3.17,-3.58,3.06,3.06,3.06
110.74,6.28,3.27,6.28,3.27,-3.27,-3.19,-3.62,3.01,3.01,3.01
111.85,6.26,3.29,6.26,3.29,-3.30,-3.20,-3.65,2.97,2.96,2.97
112.97,6.23,3.33,6.23,3.32,-3.32,-3.21,-3.68,2.91,2.91,2.90
114.10,6.20,3.34,6.21,3.34,-3.34,-3.23,-3.71,2.86,2.86,2.86
115.24,6.18,3.36,6.18,3.36,-3.36,-3.25,-3.73,2.82,2.81,2.82
116.39,6.15,3.38,6.15,3.38,-3.38,-3.26,-3.76,2.77,2.77,2.77
117.55,6.12,3.40,6.12,3.40,-3.40,-3.28,-3.78,2.72,2.72,2.72
118.73,6.10,3.43,6.10,3.42,-3.42,-3.30,-3.80,2.68,2.68,2.67
119.92,6.07,3.44,6.07,3.44,-3.44,-3.32,-3.81,2.63,2.63,2.64
121.12,6.04,3.45,6.05,3.46,-3.45,-3.34,-3.83,2.59,2.59,2.59
122.33,6.02,3.48,6.02,3.47,-3.47,-3.36,-3.84,2.55,2.55,2.54
123.55,5.99,3.48,5.99,3.48,-3.49,-3.38,-3.84,2.51,2.51,2.51
124.79,5.96,3.49,5.96,3.50,-3.50,-3.40,-3.84,2.46,2.46,2.47
126.03,5.94,3.51,5.94,3.51,-3.52,-3.43,-3.84,2.42,2.42,2.43
127.29,5.91,3.53,5.91,3.53,-3.53,-3.45,-3.84,2.38,2.38,2.38
128.57,5.89,3.55,5.89,3.55,-3.55,-3.47,-3.83,2.34,2.34,2.34
129.85,5.87,3.58,5.87,3.57,-3.56,-3.49,-3.82,2.31,2.30,2.29
131.15,5.84,3.58,5.84,3.58,-3.58,-3.52,-3.81,2.26,2.26,2.26
132.46,5.82,3.59,5.82,3.60,-3.59,-3.54,-3.79,2.23,2.23,2.23
133.79,5.80,3.60,5.80,3.61,-3.61,-3.56,-3.77,2.20,2.19,2.20
135.12,5.78,3.63,5.78,3.61,-3.62,-3.58,-3.75,2.16,2.16,2.16
136.48,5.75,3.62,5.75,3.62,-3.63,-3.61,-3.72,2.12,2.13,2.13
137.84,5.73,3.63,5.73,3.63,-3.63,-3.63,-3.70,2.10,2.10,2.10
139.22,5.72,3.65,5.72,3.64,-3.64,-3.65,-3.67,2.08,2.08,2.07
140.61,5.70,3.66,5.70,3.65,-3.65,-3.67,-3.64,2.05,2.06,2.05
142.02,5.69,3.65,5.69,3.66,-3.65,-3.69,-3.61,2.04,2.03,2.04
143.44,5.67,3.66,5.67,3.66,-3.66,-3.71,-3.57,2.01,2.01,2.01
144.87,5.65,3.66,5.66,3.66,-3.67,-3.73,-3.54,1.98,1.99,1.99
146.32,5.65,3.68,5.64,3.67,-3.67,-3.75,-3.51,1.98,1.97,1.97
147.78,5.63,3.67,5.63,3.67,-3.68,-3.76,-3.48,1.95,1.96,1.96
149.26,5.62,3.68,5.62,3.68,-3.68,-3.77,-3.44,1.94,1.94,1.94
150.75,5.60,3.69,5.60,3.69,-3.69,-3.79,-3.41,1.91,1.92,1.91
152.26,5.59,3.70,5.59,3.70,-3.69,-3.80,-3.38,1.90,1.90,1.89
153.78,5.58,3.70,5.58,3.71,-3.70,-3.81,-3.35,1.88,1.88,1.88
155.32,5.57,3.71,5.57,3.71,-3.71,-3.82,-3.32,1.86,1.86,1.86
156.88,5.56,3.72,5.56,3.72,-3.72,-3.82,-3.30,1.84,1.84,1.84
158.44,5.54,3.72,5.55,3.73,-3.73,-3.83,-3.27,1.81,1.82,1.82
160.03,5.54,3.74,5.54,3.74,-3.74,-3.83,-3.25,1.80,1.80,1.80
161.63,5.53,3.76,5.53,3.76,-3.75,-3.84,-3.23,1.78,1.78,1.77
163.24,5.52,3.77,5.52,3.77,-3.77,-3.84,-3.21,1.75,1.76,1.75
164.88,5.52,3.78,5.52,3.78,-3.78,-3.84,-3.19,1.74,1.74,1.74
166.53,5.51,3.79,5.51,3.80,-3.80,-3.85,-3.17,1.71,1.72,1.72
168.19,5.51,3.82,5.51,3.81,-3.81,-3.85,-3.16,1.70,1.69,1.69
169.87,5.50,3.83,5.50,3.83,-3.83,-3.85,-3.15,1.67,1.67,1.67
171.57,5.49,3.84,5.49,3.84,-3.84,-3.86,-3.14,1.65,1.65,1.65
173.29,5.48,3.85,5.48,3.85,-3.86,-3.87,-3.13,1.62,1.62,1.63
175.02,5.47,3.87,5.47,3.87,-3.87,-3.87,-3.13,1.60,1.60,1.60
176.77,5.45,3.88,5.45,3.88,-3.88,-3.88,-3.13,1.57,1.57,1.57
178.54,5.43,3.90,5.43,3.89,-3.89,-3.89,-3.13,1.54,1.54,1.53
180.32,5.40,3.90,5.40,3.90,-3.89,-3.91,-3.14,1.51,1.51,1.51
182.13,5.37,3.89,5.37,3.89,-3.89,-3.92,-3.14,1.48,1.47,1.48
183.95,5.33,3.89,5.34,3.89,-3.89,-3.94,-3.15,1.44,1.44,1.44
185.79,5.30,3.89,5.30,3.89,-3.89,-3.95,-3.16,1.41,1.41,1.41
187.65,5.27,3.89,5.26,3.88,-3.88,-3.96,-3.17,1.39,1.38,1.38
189.52,5.22,3.86,5.23,3.87,-3.88,-3.98,-3.19,1.34,1.35,1.36
191.42,5.19,3.87,5.19,3.87,-3.87,-3.99,-3.21,1.32,1.32,1.32
193.33,5.16,3.86,5.16,3.85,-3.86,-4.00,-3.23,1.30,1.29,1.30
195.27,5.12,3.85,5.12,3.85,-3.85,-4.01,-3.25,1.27,1.27,1.27
197.22,5.08,3.83,5.09,3.84,-3.84,-4.01,-3.27,1.24,1.25,1.25
199.19,5.05,3.84,5.05,3.83,-3.83,-4.01,-3.29,1.22,1.22,1.21
201.18,5.02,3.82,5.01,3.82,-3.82,-4.01,-3.32,1.20,1.20,1.20
203.19,4.97,3.79,4.98,3.81,-3.80,-4.00,-3.35,1.17,1.18,1.18
205.23,4.94,3.79,4.94,3.78,-3.79,-3.98,-3.37,1.15,1.15,1.15
207.28,4.91,3.76,4.90,3.77,-3.77,-3.97,-3.40,1.14,1.13,1.15
209.35,4.86,3.74,4.87,3.75,-3.75,-3.95,-3.43,1.11,1.12,1.12
211.44,4.83,3.74,4.83,3.73,-3.73,-3.92,-3.45,1.10,1.10,1.09
213.56,4.79,3.71,4.79,3.71,-3.70,-3.89,-3.48,1.09,1.08,1.08
215.69,4.75,3.67,4.75,3.68,-3.68,-3.85,-3.51,1.07,1.07,1.08
217.85,4.71,3.65,4.71,3.65,-3.65,-3.81,-3.53,1.06,1.06,1.06
220.03,4.67,3.61,4.67,3.62,-3.61,-3.77,-3.55,1.06,1.06,1.06
222.23,4.64,3.59,4.64,3.58,-3.58,-3.72,-3.57,1.06,1.06,1.05
224.45,4.60,3.54,4.60,3.54,-3.54,-3.67,-3.59,1.07,1.06,1.06
226.70,4.55,3.49,4.56,3.49,-3.49,-3.61,-3.60,1.06,1.07,1.07
228.96,4.52,3.45,4.51,3.44,-3.45,-3.56,-3.61,1.07,1.07,1.07
231.25,4.47,3.39,4.47,3.39,-3.40,-3.49,-3.61,1.07,1.07,1.08
233.57,4.43,3.34,4.43,3.34,-3.35,-3.43,-3.62,1.08,1.09,1.09
235.90,4.39,3.29,4.39,3.29,-3.29,-3.36,-3.61,1.10,1.10,1.10
238.26,4.35,3.25,4.35,3.24,-3.24,-3.29,-3.60,1.11,1.11,1.10
240.64,4.31,3.18,4.31,3.18,-3.18,-3.22,-3.59,1.13,1.13,1.13
243.05,4.27,3.13,4.27,3.12,-3.12,-3.14,-3.56,1.15,1.15,1.14
245.48,4.22,3.05,4.22,3.06,-3.06,-3.06,-3.54,1.16,1.17,1.17
247.93,4.18,2.99,4.18,3.00,-2.99,-2.98,-3.50,1.19,1.19,1.19
250.41,4.14,2.94,4.14,2.93,-2.93,-2.90,-3.46,1.21,1.21,1.20
252.92,4.09,2.86,4.09,2.86,-2.86,-2.82,-3.41,1.23,1.23,1.23
255.45,4.04,2.78,4.05,2.79,-2.79,-2.74,-3.36,1.25,1.25,1.26
258.00,4.00,2.72,4.00,2.72,-2.72,-2.65,-3.30,1.28,1.28,1.28
260.58,3.96,2.66,3.95,2.65,-2.65,-2.56,-3.23,1.31,1.30,1.30
263.19,3.90,2.57,3.90,2.58,-2.58,-2.48,-3.16,1.32,1.33,1.33
265.82,3.85,2.51,3.85,2.50,-2.50,-2.39,-3.08,1.35,1.35,1.34
268.48,3.80,2.42,3.80,2.43,-2.43,-2.30,-2.99,1.37,1.37,1.38
271.16,3.76,2.35,3.75,2.35,-2.35,-2.21,-2.90,1.41,1.40,1.41
273.87,3.70,2.28,3.70,2.27,-2.28,-2.11,-2.80,1.42,1.43,1.42
276.61,3.64,2.19,3.65,2.20,-2.20,-2.02,-2.70,1.44,1.45,1.45
279.38,3.59,2.12,3.59,2.12,-2.12,-1.93,-2.60,1.47,1.47,1.47
282.17,3.53,2.04,3.53,2.04,-2.03,-1.84,-2.49,1.50,1.50,1.49
284.99,3.47,1.95,3.47,1.95,-1.95,-1.74,-2.37,1.52,1.52,1.52
287.84,3.41,1.86,3.41,1.86,-1.87,-1.65,-2.26,1.55,1.55,1.55
290.72,3.35,1.78,3.35,1.78,-1.78,-1.56,-2.14,1.57,1.57,1.58
293.63,3.29,1.69,3.29,1.68,-1.69,-1.46,-2.01,1.61,1.60,1.60
296.57,3.22,1.59,3.22,1.59,-1.59,-1.37,-1.89,1.63,1.63,1.63
299.53,3.15,1.49,3.15,1.50,-1.49,-1.27,-1.76,1.66,1.66,1.66
302.53,3.08,1.41,3.08,1.40,-1.39,-1.17,-1.63,1.69,1.69,1.68
305.55,3.01,1.29,3.01,1.30,-1.29,-1.08,-1.50,1.72,1.72,1.72
308.61,2.94,1.19,2.94,1.19,-1.18,-0.98,-1.37,1.76,1.76,1.75
311.69,2.87,1.08,2.87,1.07,-1.08,-0.88,-1.24,1.79,1.79,1.79
314.81,2.79,0.95,2.79,0.97,-0.97,-0.79,-1.10,1.82,1.83,1.84
317.96,2.71,0.86,2.71,0.85,-0.85,-0.69,-0.97,1.86,1.86,1.86
321.14,2.63,0.75,2.63,0.74,-0.74,-0.59,-0.83,1.89,1.88,1.88
324.35,2.54,0.63,2.54,0.63,-0.63,-0.49,-0.70,1.91,1.91,1.91
327.59,2.46,0.52,2.46,0.52,-0.52,-0.39,-0.56,1.94,1.94,1.94
330.87,2.38,0.41,2.38,0.41,-0.41,-0.29,-0.42,1.97,1.96,1.97
334.18,2.29,0.30,2.29,0.31,-0.31,-0.18,-0.28,1.98,1.99,1.99
337.52,2.21,0.21,2.21,0.20,-0.20,-0.08,-0.14,2.01,2.00,2.01
340.90,2.12,0.09,2.12,0.09,-0.10,0.02,-0.00,2.02,2.02,2.03
344.30,2.03,-0.02,2.03,-0.02,0.01,0.13,0.13,2.04,2.05,2.05
347.75,1.94,-0.13,1.95,-0.12,0.13,0.24,0.27,2.07,2.08,2.07
351.23,1.86,-0.23,1.86,-0.23,0.25,0.34,0.42,2.11,2.11,2.09
354.74,1.76,-0.35,1.75,-0.36,0.38,0.45,0.56,2.14,2.13,2.11
358.28,1.62,-0.51,1.63,-0.50,0.51,0.57,0.70,2.14,2.14,2.13
361.87,1.49,-0.66,1.49,-0.66,0.65,0.68,0.84,2.14,2.14,2.15
365.49,1.35,-0.81,1.35,-0.81,0.80,0.80,0.98,2.15,2.15,2.17
369.14,1.22,-0.95,1.22,-0.95,0.95,0.92,1.12,2.17,2.17,2.17
372.83,1.09,-1.10,1.09,-1.10,1.10,1.04,1.26,2.19,2.19,2.19
376.56,0.97,-1.23,0.97,-1.24,1.24,1.17,1.41,2.21,2.21,2.20
380.33,0.84,-1.39,0.84,-1.39,1.39,1.30,1.55,2.23,2.23,2.23
384.13,0.72,-1.53,0.72,-1.53,1.53,1.43,1.69,2.25,2.25,2.25
387.97,0.60,-1.67,0.60,-1.67,1.66,1.57,1.84,2.27,2.26,2.27
391.85,0.48,-1.80,0.48,-1.80,1.80,1.71,1.98,2.28,2.28,2.28
395.77,0.37,-1.94,0.37,-1.93,1.93,1.85,2.12,2.30,2.31,2.31
399.73,0.27,-2.06,0.27,-2.06,2.06,2.00,2.27,2.34,2.33,2.33
403.72,0.16,-2.19,0.16,-2.19,2.19,2.14,2.41,2.35,2.35,2.35
407.76,0.05,-2.32,0.05,-2.32,2.31,2.29,2.55,2.36,2.37,2.37
411.84,-0.05,-2.44,-0.05,-2.44,2.43,2.44,2.69,2.38,2.39,2.40
415.96,-0.14,-2.55,-0.14,-2.56,2.55,2.58,2.83,2.41,2.41,2.42
420.12,-0.23,-2.66,-0.23,-2.67,2.67,2.72,2.97,2.44,2.44,2.43
424.32,-0.32,-2.77,-0.32,-2.77,2.78,2.85,3.11,2.46,2.46,2.45
428.56,-0.41,-2.88,-0.41,-2.88,2.89,2.96,3.24,2.48,2.48,2.47
432.85,-0.50,-2.99,-0.49,-2.99,3.00,3.07,3.37,2.50,2.50,2.49
437.18,-0.57,-3.09,-0.58,-3.10,3.09,3.16,3.50,2.52,2.52,2.52
441.55,-0.65,-3.20,-0.65,-3.20,3.18,3.24,3.63,2.54,2.54,2.55
445.96,-0.72,-3.29,-0.71,-3.28,3.27,3.31,3.75,2.55,2.56,2.57
450.42,-0.76,-3.35,-0.76,-3.36,3.35,3.37,3.86,2.59,2.59,2.59
454.93,-0.80,-3.43,-0.80,-3.42,3.42,3.42,3.98,2.62,2.62,2.63
459.48,-0.82,-3.47,-0.83,-3.48,3.49,3.47,4.08,2.67,2.66,2.65
464.07,-0.86,-3.54,-0.86,-3.54,3.55,3.51,4.18,2.69,2.69,2.68
468.71,-0.89,-3.60,-0.89,-3.60,3.60,3.55,4.28,2.71,2.71,2.71
473.40,-0.92,-3.66,-0.92,-3.66,3.65,3.60,4.36,2.74,2.74,2.74
478.13,-0.94,-3.71,-0.94,-3.71,3.71,3.64,4.44,2.77,2.76,2.77
482.91,-0.97,-3.76,-0.97,-3.76,3.76,3.69,4.51,2.79,2.79,2.79
487.74,-0.99,-3.81,-0.99,-3.81,3.81,3.74,4.58,2.82,2.82,2.82
492.62,-1.01,-3.86,-1.01,-3.86,3.86,3.79,4.63,2.85,2.85,2.85
497.55,-1.03,-3.91,-1.03,-3.91,3.91,3.84,4.68,2.88,2.88,2.88
502.52,-1.06,-3.97,-1.05,-3.96,3.95,3.90,4.72,2.89,2.90,2.91
507.55,-1.07,-4.00,-1.07,-4.00,4.00,3.96,4.75,2.93,2.93,2.93
512.62,-1.09,-4.04,-1.09,-4.04,4.04,4.02,4.77,2.95,2.95,2.95
517.75,-1.11,-4.09,-1.11,-4.08,4.08,4.08,4.78,2.98,2.98,2.98
522.93,-1.13,-4.14,-1.12,-4.13,4.13,4.14,4.79,3.00,3.00,3.01
528.16,-1.14,-4.16,-1.14,-4.17,4.17,4.21,4.79,3.03,3.03,3.03
