frequency,raw,error,smoothed,error_smoothed,equalization,parametric_eq,fixed_band_eq,equalized_raw,equalized_smoothed,target
20.00,-6.16,-5.59,-6.17,-5.60,5.50,5.49,1.46,-0.66,-0.67,-0.57
20.20,-6.06,-5.53,-6.05,-5.52,5.49,5.46,1.51,-0.57,-0.56,-0.53
20.40,-5.95,-5.47,-5.94,-5.45,5.47,5.42,1.56,-0.48,-0.47,-0.49
20.61,-5.85,-5.38,-5.84,-5.38,5.44,5.38,1.60,-0.40,-0.40,-0.47
20.81,-5.74,-5.32,-5.75,-5.32,5.41,5.34,1.65,-0.33,-0.33,-0.43
21.02,-5.66,-5.27,-5.68,-5.28,5.38,5.30,1.70,-0.28,-0.30,-0.39
21.23,-5.65,-5.27,-5.64,-5.27,5.33,5.26,1.76,-0.31,-0.31,-0.38
21.44,-5.64,-5.28,-5.63,-5.27,5.28,5.21,1.81,-0.36,-0.35,-0.36
21.66,-5.63,-5.28,-5.63,-5.28,5.24,5.16,1.86,-0.38,-0.39,-0.35
21.87,-5.61,-5.27,-5.60,-5.26,5.20,5.11,1.92,-0.42,-0.40,-0.35
22.09,-5.54,-5.20,-5.53,-5.19,5.13,5.06,1.98,-0.41,-0.40,-0.34
22.31,-5.41,-5.07,-5.42,-5.08,5.04,5.01,2.04,-0.37,-0.38,-0.34
22.54,-5.28,-4.94,-5.28,-4.94,4.93,4.96,2.10,-0.35,-0.35,-0.34
22.76,-5.13,-4.78,-5.14,-4.79,4.80,4.90,2.17,-0.34,-0.34,-0.35
22.99,-5.01,-4.65,-5.00,-4.65,4.65,4.85,2.23,-0.35,-0.35,-0.36
23.22,-4.88,-4.52,-4.88,-4.51,4.52,4.79,2.30,-0.36,-0.36,-0.36
23.45,-4.75,-4.38,-4.75,-4.38,4.40,4.73,2.36,-0.36,-0.35,-0.37
23.69,-4.64,-4.27,-4.62,-4.25,4.30,4.67,2.43,-0.34,-0.33,-0.37
23.92,-4.52,-4.14,-4.54,-4.17,4.23,4.61,2.50,-0.29,-0.31,-0.37
24.16,-4.49,-4.12,-4.50,-4.13,4.18,4.55,2.58,-0.30,-0.32,-0.36
24.40,-4.52,-4.15,-4.50,-4.14,4.16,4.49,2.65,-0.36,-0.35,-0.36
24.65,-4.54,-4.16,-4.53,-4.16,4.14,4.43,2.72,-0.39,-0.39,-0.37
24.89,-4.56,-4.18,-4.55,-4.18,4.14,4.37,2.80,-0.41,-0.41,-0.37
25.14,-4.56,-4.18,-4.55,-4.17,4.15,4.30,2.87,-0.41,-0.40,-0.37
25.39,-4.54,-4.16,-4.54,-4.16,4.15,4.24,2.94,-0.39,-0.39,-0.37
25.65,-4.52,-4.13,-4.52,-4.14,4.14,4.18,3.02,-0.38,-0.39,-0.39
25.91,-4.51,-4.11,-4.50,-4.10,4.12,4.11,3.09,-0.39,-0.38,-0.40
26.16,-4.46,-4.07,-4.46,-4.06,4.07,4.05,3.17,-0.39,-0.39,-0.40
26.43,-4.41,-4.01,-4.42,-4.02,4.02,3.99,3.24,-0.39,-0.40,-0.40
26.69,-4.36,-3.96,-4.36,-3.96,3.95,3.92,3.31,-0.41,-0.42,-0.40
26.96,-4.31,-3.90,-4.29,-3.88,3.86,3.86,3.38,-0.45,-0.43,-0.41
27.23,-4.19,-3.78,-4.19,-3.78,3.74,3.80,3.45,-0.44,-0.44,-0.41
27.50,-4.06,-3.65,-4.06,-3.65,3.61,3.73,3.52,-0.44,-0.45,-0.41
27.77,-3.92,-3.50,-3.93,-3.51,3.48,3.67,3.58,-0.45,-0.45,-0.42
28.05,-3.79,-3.37,-3.79,-3.37,3.35,3.61,3.64,-0.44,-0.44,-0.42
28.33,-3.65,-3.22,-3.64,-3.21,3.25,3.55,3.70,-0.41,-0.40,-0.43
28.62,-3.52,-3.08,-3.50,-3.07,3.17,3.48,3.75,-0.35,-0.34,-0.43
28.90,-3.38,-2.94,-3.41,-2.98,3.10,3.42,3.80,-0.27,-0.31,-0.43
29.19,-3.38,-2.94,-3.40,-2.97,3.05,3.36,3.84,-0.32,-0.34,-0.43
29.48,-3.46,-3.03,-3.46,-3.03,3.01,3.30,3.88,-0.45,-0.44,-0.43
29.78,-3.53,-3.10,-3.52,-3.09,2.97,3.24,3.91,-0.56,-0.55,-0.44
30.08,-3.56,-3.13,-3.52,-3.08,2.94,3.18,3.94,-0.62,-0.58,-0.43
30.38,-3.43,-2.98,-3.42,-2.98,2.90,3.12,3.95,-0.52,-0.52,-0.45
30.68,-3.29,-2.84,-3.29,-2.84,2.86,3.06,3.97,-0.42,-0.43,-0.45
30.99,-3.15,-2.69,-3.18,-2.72,2.80,3.00,3.97,-0.34,-0.38,-0.46
31.30,-3.13,-2.66,-3.13,-2.66,2.73,2.94,3.97,-0.40,-0.40,-0.46
31.61,-3.12,-2.65,-3.11,-2.63,2.65,2.88,3.96,-0.46,-0.45,-0.46
31.93,-3.11,-2.62,-3.10,-2.62,2.59,2.82,3.95,-0.51,-0.50,-0.48
32.24,-3.06,-2.57,-3.06,-2.57,2.55,2.76,3.92,-0.51,-0.51,-0.50
32.57,-3.02,-2.52,-3.01,-2.51,2.53,2.71,3.89,-0.49,-0.48,-0.50
32.89,-2.97,-2.46,-2.98,-2.47,2.51,2.65,3.86,-0.45,-0.47,-0.51
33.22,-2.97,-2.44,-2.98,-2.46,2.49,2.60,3.82,-0.48,-0.50,-0.53
33.55,-3.01,-2.47,-3.01,-2.47,2.45,2.54,3.77,-0.56,-0.56,-0.53
33.89,-3.05,-2.49,-3.01,-2.47,2.40,2.49,3.72,-0.65,-0.61,-0.55
34.23,-2.99,-2.43,-2.97,-2.41,2.35,2.43,3.66,-0.64,-0.62,-0.56
34.57,-2.88,-2.30,-2.89,-2.31,2.29,2.38,3.60,-0.58,-0.59,-0.58
34.92,-2.78,-2.19,-2.79,-2.21,2.23,2.33,3.53,-0.54,-0.56,-0.59
35.27,-2.72,-2.13,-2.72,-2.12,2.17,2.27,3.46,-0.55,-0.55,-0.59
35.62,-2.69,-2.07,-2.68,-2.07,2.10,2.22,3.39,-0.59,-0.58,-0.61
35.97,-2.65,-2.02,-2.65,-2.03,2.03,2.17,3.31,-0.62,-0.62,-0.62
36.33,-2.62,-1.99,-2.61,-1.98,1.97,2.12,3.23,-0.65,-0.65,-0.63
36.70,-2.58,-1.94,-2.58,-1.94,1.92,2.07,3.15,-0.65,-0.65,-0.64
37.06,-2.54,-1.88,-2.54,-1.89,1.89,2.02,3.07,-0.65,-0.65,-0.65
37.43,-2.50,-1.86,-2.50,-1.84,1.87,1.97,2.99,-0.64,-0.63,-0.64
37.81,-2.47,-1.81,-2.47,-1.82,1.85,1.92,2.91,-0.61,-0.62,-0.66
38.19,-2.46,-1.79,-2.47,-1.81,1.83,1.87,2.82,-0.62,-0.64,-0.67
38.57,-2.48,-1.81,-2.47,-1.81,1.81,1.82,2.74,-0.67,-0.67,-0.66
38.95,-2.50,-1.82,-2.48,-1.81,1.77,1.78,2.65,-0.72,-0.71,-0.68
39.34,-2.47,-1.79,-2.47,-1.79,1.73,1.73,2.57,-0.73,-0.74,-0.68
39.74,-2.43,-1.73,-2.43,-1.74,1.69,1.68,2.48,-0.74,-0.74,-0.69
40.14,-2.37,-1.67,-2.35,-1.65,1.64,1.64,2.40,-0.73,-0.71,-0.69
40.54,-2.26,-1.56,-2.26,-1.56,1.58,1.59,2.31,-0.67,-0.68,-0.70
40.94,-2.16,-1.45,-2.18,-1.48,1.52,1.55,2.23,-0.63,-0.66,-0.70
41.35,-2.14,-1.42,-2.14,-1.43,1.46,1.50,2.15,-0.67,-0.68,-0.71
41.76,-2.14,-1.41,-2.12,-1.40,1.41,1.46,2.07,-0.72,-0.71,-0.73
42.18,-2.12,-1.38,-2.10,-1.36,1.37,1.42,1.99,-0.74,-0.73,-0.73
42.60,-2.06,-1.32,-2.07,-1.32,1.33,1.37,1.91,-0.73,-0.73,-0.75
43.03,-2.02,-1.26,-2.05,-1.29,1.29,1.33,1.84,-0.73,-0.76,-0.75
43.46,-2.04,-1.26,-2.04,-1.26,1.24,1.29,1.76,-0.80,-0.80,-0.78
43.90,-2.06,-1.26,-2.02,-1.23,1.17,1.25,1.69,-0.88,-0.85,-0.80
44.33,-1.98,-1.17,-1.98,-1.16,1.10,1.20,1.61,-0.88,-0.88,-0.81
44.78,-1.89,-1.05,-1.89,-1.06,1.03,1.16,1.54,-0.86,-0.86,-0.84
45.23,-1.79,-0.93,-1.78,-0.93,0.96,1.12,1.47,-0.83,-0.82,-0.85
45.68,-1.70,-0.83,-1.70,-0.83,0.90,1.08,1.40,-0.80,-0.80,-0.87
46.13,-1.64,-0.75,-1.66,-0.78,0.85,1.04,1.33,-0.79,-0.82,-0.89
46.60,-1.67,-0.77,-1.66,-0.77,0.81,1.00,1.27,-0.86,-0.85,-0.89
47.06,-1.70,-0.80,-1.66,-0.77,0.77,0.96,1.20,-0.92,-0.89,-0.90
47.53,-1.67,-0.76,-1.67,-0.76,0.74,0.92,1.14,-0.93,-0.93,-0.90
48.01,-1.64,-0.73,-1.67,-0.76,0.70,0.88,1.08,-0.93,-0.97,-0.91
48.49,-1.67,-0.74,-1.67,-0.75,0.67,0.85,1.01,-0.99,-1.00,-0.93
48.97,-1.69,-0.75,-1.63,-0.68,0.64,0.81,0.95,-1.05,-0.98,-0.94
49.46,-1.55,-0.61,-1.55,-0.60,0.62,0.77,0.89,-0.94,-0.93,-0.95
49.96,-1.40,-0.43,-1.46,-0.50,0.59,0.73,0.83,-0.81,-0.87,-0.97
50.46,-1.41,-0.45,-1.40,-0.44,0.55,0.70,0.78,-0.86,-0.86,-0.95
50.96,-1.44,-0.47,-1.44,-0.47,0.50,0.66,0.72,-0.93,-0.94,-0.96
51.47,-1.49,-0.51,-1.49,-0.52,0.46,0.62,0.67,-1.03,-1.04,-0.97
51.99,-1.54,-0.57,-1.49,-0.52,0.42,0.58,0.61,-1.13,-1.08,-0.98
52.51,-1.44,-0.46,-1.44,-0.46,0.39,0.55,0.56,-1.05,-1.05,-0.98
53.03,-1.33,-0.35,-1.32,-0.34,0.36,0.51,0.50,-0.96,-0.96,-0.98
53.56,-1.22,-0.23,-1.22,-0.24,0.33,0.47,0.45,-0.89,-0.89,-0.99
54.10,-1.14,-0.14,-1.21,-0.22,0.28,0.44,0.40,-0.85,-0.93,-1.00
54.64,-1.26,-0.27,-1.23,-0.23,0.23,0.40,0.35,-1.03,-1.00,-1.00
55.18,-1.31,-0.31,-1.24,-0.24,0.19,0.37,0.30,-1.13,-1.06,-1.01
55.74,-1.20,-0.18,-1.23,-0.21,0.16,0.33,0.26,-1.04,-1.07,-1.02
56.29,-1.14,-0.12,-1.17,-0.14,0.15,0.30,0.21,-0.99,-1.02,-1.02
56.86,-1.14,-0.10,-1.12,-0.08,0.14,0.26,0.16,-0.99,-0.98,-1.04
57.42,-1.14,-0.08,-1.13,-0.08,0.13,0.23,0.12,-1.00,-1.00,-1.05
58.00,-1.14,-0.07,-1.16,-0.10,0.11,0.19,0.07,-1.02,-1.05,-1.06
58.58,-1.20,-0.12,-1.19,-0.11,0.08,0.15,0.03,-1.12,-1.11,-1.08
59.16,-1.23,-0.13,-1.20,-0.11,0.05,0.12,-0.01,-1.18,-1.16,-1.09
59.76,-1.19,-0.07,-1.18,-0.07,0.01,0.08,-0.06,-1.17,-1.17,-1.11
60.35,-1.13,0.01,-1.12,0.01,-0.03,0.05,-0.10,-1.15,-1.15,-1.14
60.96,-1.05,0.12,-1.07,0.10,-0.07,0.01,-0.14,-1.12,-1.14,-1.16
61.57,-1.04,0.17,-1.04,0.17,-0.13,-0.02,-0.18,-1.16,-1.16,-1.21
62.18,-1.04,0.21,-1.03,0.21,-0.19,-0.06,-0.22,-1.23,-1.22,-1.24
62.80,-1.04,0.24,-1.04,0.24,-0.26,-0.09,-0.26,-1.29,-1.29,-1.28
63.43,-1.04,0.28,-1.04,0.28,-0.31,-0.13,-0.29,-1.35,-1.35,-1.32
64.07,-1.04,0.32,-1.03,0.32,-0.36,-0.16,-0.33,-1.39,-1.39,-1.35
64.71,-1.02,0.37,-1.01,0.37,-0.38,-0.20,-0.37,-1.40,-1.40,-1.39
65.35,-1.01,0.41,-1.00,0.42,-0.39,-0.23,-0.40,-1.40,-1.40,-1.42
66.01,-1.01,0.45,-1.02,0.44,-0.39,-0.27,-0.44,-1.40,-1.41,-1.46
66.67,-1.08,0.42,-1.09,0.40,-0.37,-0.30,-0.47,-1.44,-1.45,-1.50
67.33,-1.19,0.34,-1.19,0.34,-0.32,-0.34,-0.51,-1.51,-1.51,-1.53
68.01,-1.33,0.23,-1.31,0.26,-0.26,-0.37,-0.54,-1.59,-1.57,-1.57
68.69,-1.43,0.18,-1.44,0.16,-0.17,-0.41,-0.58,-1.59,-1.61,-1.61
69.37,-1.57,0.08,-1.57,0.07,-0.06,-0.44,-0.61,-1.62,-1.63,-1.65
70.07,-1.74,-0.05,-1.71,-0.02,0.06,-0.48,-0.65,-1.67,-1.65,-1.69
70.77,-1.84,-0.11,-1.87,-0.14,0.17,-0.51,-0.68,-1.67,-1.70,-1.72
71.48,-2.00,-0.24,-2.01,-0.25,0.26,-0.55,-0.72,-1.75,-1.75,-1.76
72.19,-2.18,-0.37,-2.15,-0.34,0.31,-0.59,-0.75,-1.87,-1.84,-1.81
72.91,-2.23,-0.36,-2.26,-0.40,0.31,-0.62,-0.79,-1.91,-1.94,-1.86
73.64,-2.31,-0.40,-2.28,-0.37,0.27,-0.66,-0.82,-2.03,-2.01,-1.91
74.38,-2.25,-0.29,-2.22,-0.26,0.18,-0.70,-0.86,-2.06,-2.03,-1.95
75.12,-2.06,-0.07,-2.10,-0.10,0.05,-0.73,-0.90,-2.02,-2.05,-2.00
75.87,-1.92,0.11,-1.92,0.12,-0.12,-0.77,-0.93,-2.04,-2.04,-2.04
76.63,-1.74,0.33,-1.72,0.36,-0.30,-0.81,-0.97,-2.05,-2.02,-2.07
77.40,-1.54,0.57,-1.55,0.56,-0.49,-0.85,-1.01,-2.03,-2.04,-2.11
78.17,-1.37,0.78,-1.41,0.73,-0.67,-0.88,-1.05,-2.03,-2.08,-2.15
78.95,-1.34,0.83,-1.30,0.88,-0.82,-0.92,-1.09,-2.17,-2.12,-2.18
79.74,-1.22,0.98,-1.21,1.00,-0.96,-0.96,-1.13,-2.18,-2.17,-2.21
80.54,-1.13,1.11,-1.18,1.06,-1.07,-1.00,-1.17,-2.19,-2.25,-2.24
81.35,-1.13,1.14,-1.13,1.14,-1.16,-1.04,-1.22,-2.29,-2.29,-2.27
82.16,-1.18,1.12,-1.10,1.20,-1.24,-1.08,-1.26,-2.42,-2.34,-2.30
82.98,-1.00,1.33,-1.05,1.28,-1.32,-1.12,-1.31,-2.31,-2.36,-2.32
83.81,-0.98,1.39,-0.96,1.40,-1.40,-1.16,-1.35,-2.37,-2.36,-2.36
84.65,-0.89,1.51,-0.89,1.50,-1.48,-1.20,-1.40,-2.37,-2.37,-2.40
85.50,-0.85,1.57,-0.86,1.56,-1.57,-1.24,-1.45,-2.42,-2.43,-2.42
86.35,-0.84,1.62,-0.81,1.64,-1.67,-1.28,-1.50,-2.50,-2.48,-2.45
87.22,-0.77,1.72,-0.76,1.73,-1.76,-1.32,-1.55,-2.52,-2.52,-2.49
88.09,-0.70,1.83,-0.70,1.82,-1.84,-1.36,-1.60,-2.53,-2.54,-2.52
88.97,-0.64,1.91,-0.65,1.91,-1.90,-1.40,-1.66,-2.54,-2.55,-2.55
89.86,-0.63,1.96,-0.62,1.96,-1.95,-1.44,-1.71,-2.57,-2.56,-2.58
90.76,-0.63,1.99,-0.63,1.99,-1.96,-1.49,-1.77,-2.59,-2.59,-2.62
91.66,-0.67,1.98,-0.67,1.98,-1.94,-1.53,-1.83,-2.61,-2.61,-2.65
92.58,-0.75,1.94,-0.75,1.93,-1.88,-1.57,-1.89,-2.62,-2.63,-2.68
93.51,-0.87,1.85,-0.87,1.84,-1.78,-1.62,-1.95,-2.64,-2.65,-2.71
94.44,-1.04,1.70,-1.03,1.71,-1.65,-1.66,-2.01,-2.68,-2.68,-2.74
95.39,-1.21,1.55,-1.22,1.55,-1.51,-1.70,-2.07,-2.72,-2.73,-2.77
96.34,-1.41,1.40,-1.43,1.37,-1.38,-1.75,-2.13,-2.79,-2.81,-2.80
97.30,-1.64,1.20,-1.63,1.20,-1.28,-1.79,-2.20,-2.91,-2.91,-2.83
98.28,-1.79,1.07,-1.75,1.11,-1.22,-1.84,-2.26,-3.01,-2.97,-2.86
99.26,-1.80,1.09,-1.78,1.10,-1.21,-1.89,-2.33,-3.01,-2.99,-2.88
100.25,-1.70,1.21,-1.73,1.18,-1.26,-1.93,-2.40,-2.95,-2.99,-2.91
101.25,-1.61,1.33,-1.61,1.32,-1.36,-1.98,-2.47,-2.96,-2.97,-2.94
102.27,-1.51,1.46,-1.47,1.51,-1.50,-2.03,-2.53,-3.00,-2.96,-2.97
103.29,-1.30,1.72,-1.30,1.71,-1.67,-2.08,-2.60,-2.96,-2.97,-3.02
104.32,-1.11,1.93,-1.13,1.91,-1.85,-2.12,-2.67,-2.95,-2.98,-3.04
105.37,-0.98,2.10,-0.99,2.08,-2.03,-2.17,-2.74,-3.00,-3.02,-3.08
106.42,-0.91,2.20,-0.90,2.21,-2.19,-2.22,-2.81,-3.09,-3.08,-3.11
107.48,-0.85,2.30,-0.81,2.34,-2.32,-2.27,-2.87,-3.17,-3.13,-3.14
108.56,-0.73,2.46,-0.74,2.45,-2.44,-2.32,-2.94,-3.16,-3.18,-3.18
109.64,-0.64,2.59,-0.67,2.55,-2.54,-2.37,-3.00,-3.17,-3.21,-3.22
110.74,-0.66,2.60,-0.63,2.62,-2.62,-2.42,-3.07,-3.27,-3.25,-3.25
111.85,-0.61,2.68,-0.61,2.68,-2.69,-2.47,-3.13,-3.30,-3.30,-3.28
112.97,-0.60,2.73,-0.58,2.75,-2.76,-2.52,-3.19,-3.36,-3.34,-3.33
114.10,-0.51,2.84,-0.53,2.82,-2.84,-2.58,-3.25,-3.34,-3.37,-3.35
115.24,-0.50,2.89,-0.50,2.89,-2.90,-2.63,-3.30,-3.40,-3.40,-3.39
116.39,-0.47,2.95,-0.46,2.96,-2.97,-2.68,-3.35,-3.43,-3.42,-3.42
117.55,-0.43,3.02,-0.41,3.03,-3.03,-2.73,-3.40,-3.45,-3.44,-3.44
118.73,-0.35,3.12,-0.35,3.11,-3.09,-2.79,-3.44,-3.43,-3.44,-3.47
119.92,-0.29,3.19,-0.31,3.18,-3.15,-2.84,-3.48,-3.44,-3.46,-3.48
121.12,-0.29,3.22,-0.28,3.22,-3.21,-2.90,-3.52,-3.50,-3.49,-3.50
122.33,-0.28,3.24,-0.27,3.25,-3.27,-2.95,-3.55,-3.55,-3.54,-3.52
123.55,-0.26,3.27,-0.24,3.29,-3.33,-3.00,-3.58,-3.58,-3.57,-3.53
124.79,-0.19,3.37,-0.19,3.36,-3.39,-3.06,-3.61,-3.57,-3.58,-3.55
126.03,-0.13,3.44,-0.13,3.44,-3.44,-3.11,-3.63,-3.56,-3.57,-3.57
127.29,-0.08,3.51,-0.08,3.51,-3.49,-3.17,-3.65,-3.56,-3.56,-3.58
128.57,-0.04,3.57,-0.04,3.56,-3.53,-3.22,-3.66,-3.56,-3.57,-3.61
129.85,-0.04,3.58,-0.03,3.59,-3.56,-3.28,-3.67,-3.59,-3.59,-3.62
131.15,-0.03,3.61,-0.02,3.61,-3.58,-3.34,-3.67,-3.60,-3.60,-3.63
132.46,-0.03,3.62,-0.02,3.62,-3.60,-3.39,-3.67,-3.63,-3.62,-3.64
133.79,-0.02,3.63,-0.02,3.63,-3.63,-3.45,-3.67,-3.65,-3.65,-3.65
135.12,-0.03,3.65,-0.06,3.61,-3.67,-3.50,-3.67,-3.69,-3.72,-3.68
136.48,-0.08,3.60,-0.07,3.62,-3.71,-3.56,-3.66,-3.79,-3.78,-3.68
137.84,-0.09,3.61,-0.01,3.69,-3.76,-3.61,-3.65,-3.84,-3.77,-3.70
139.22,0.09,3.82,0.09,3.81,-3.81,-3.67,-3.63,-3.71,-3.72,-3.73
140.61,0.25,4.00,0.20,3.94,-3.86,-3.72,-3.62,-3.61,-3.66,-3.75
142.02,0.27,4.02,0.26,4.01,-3.91,-3.78,-3.61,-3.64,-3.66,-3.75
143.44,0.21,3.98,0.24,4.01,-3.96,-3.83,-3.59,-3.75,-3.72,-3.76
144.87,0.19,3.99,0.21,3.99,-4.01,-3.89,-3.57,-3.81,-3.80,-3.79
146.32,0.19,4.01,0.19,4.00,-4.05,-3.94,-3.55,-3.85,-3.86,-3.82
147.78,0.19,4.04,0.19,4.04,-4.08,-3.99,-3.54,-3.88,-3.88,-3.84
149.26,0.19,4.07,0.19,4.08,-4.11,-4.05,-3.52,-3.91,-3.91,-3.88
150.75,0.19,4.13,0.19,4.12,-4.14,-4.10,-3.50,-3.95,-3.95,-3.93
152.26,0.19,4.17,0.19,4.18,-4.19,-4.15,-3.49,-4.00,-4.00,-3.98
153.78,0.19,4.23,0.20,4.23,-4.25,-4.20,-3.47,-4.05,-4.05,-4.03
155.32,0.19,4.29,0.20,4.29,-4.29,-4.25,-3.46,-4.09,-4.09,-4.10
156.88,0.19,4.34,0.19,4.34,-4.31,-4.30,-3.45,-4.12,-4.12,-4.15
158.44,0.15,4.38,0.15,4.37,-4.31,-4.35,-3.43,-4.15,-4.16,-4.22
160.03,0.09,4.38,0.09,4.37,-4.29,-4.39,-3.43,-4.20,-4.20,-4.28
161.63,-0.02,4.32,-0.02,4.32,-4.26,-4.44,-3.42,-4.28,-4.28,-4.33
163.24,-0.13,4.27,-0.14,4.24,-4.24,-4.48,-3.42,-4.36,-4.38,-4.39
164.88,-0.28,4.15,-0.26,4.16,-4.22,-4.52,-3.41,-4.50,-4.49,-4.42
166.53,-0.37,4.10,-0.36,4.11,-4.23,-4.56,-3.41,-4.59,-4.58,-4.46
168.19,-0.37,4.13,-0.36,4.13,-4.24,-4.60,-3.42,-4.61,-4.60,-4.49
169.87,-0.34,4.18,-0.28,4.24,-4.28,-4.64,-3.42,-4.61,-4.56,-4.52
171.57,-0.14,4.40,-0.19,4.34,-4.32,-4.68,-3.43,-4.46,-4.51,-4.54
173.29,-0.06,4.49,-0.09,4.46,-4.38,-4.71,-3.44,-4.44,-4.47,-4.54
175.02,-0.08,4.48,-0.00,4.55,-4.45,-4.74,-3.46,-4.53,-4.46,-4.55
176.77,0.06,4.62,0.01,4.56,-4.53,-4.77,-3.47,-4.46,-4.52,-4.56
178.54,0.03,4.60,0.01,4.57,-4.58,-4.80,-3.49,-4.55,-4.58,-4.56
180.32,-0.03,4.52,0.04,4.59,-4.62,-4.83,-3.51,-4.65,-4.58,-4.55
182.13,0.06,4.61,0.07,4.62,-4.65,-4.85,-3.54,-4.59,-4.58,-4.54
183.95,0.17,4.72,0.14,4.68,-4.68,-4.87,-3.56,-4.50,-4.54,-4.55
185.79,0.18,4.73,0.19,4.74,-4.70,-4.89,-3.59,-4.52,-4.52,-4.55
187.65,0.19,4.76,0.17,4.73,-4.73,-4.90,-3.63,-4.54,-4.56,-4.56
189.52,0.14,4.71,0.16,4.73,-4.77,-4.92,-3.66,-4.63,-4.61,-4.57
191.42,0.14,4.72,0.21,4.79,-4.80,-4.93,-3.70,-4.66,-4.60,-4.58
193.33,0.28,4.88,0.26,4.84,-4.83,-4.93,-3.74,-4.54,-4.57,-4.59
195.27,0.35,4.96,0.28,4.89,-4.85,-4.94,-3.78,-4.50,-4.57,-4.60
197.22,0.25,4.88,0.28,4.91,-4.87,-4.94,-3.82,-4.62,-4.59,-4.62
199.19,0.21,4.86,0.26,4.90,-4.90,-4.94,-3.87,-4.69,-4.64,-4.64
201.18,0.26,4.92,0.25,4.91,-4.94,-4.93,-3.91,-4.68,-4.69,-4.66
203.19,0.29,4.96,0.25,4.92,-4.98,-4.92,-3.96,-4.68,-4.73,-4.67
205.23,0.25,4.95,0.27,4.95,-5.00,-4.91,-4.01,-4.74,-4.73,-4.70
207.28,0.24,4.94,0.32,5.02,-5.01,-4.90,-4.06,-4.77,-4.69,-4.70
209.35,0.38,5.11,0.36,5.08,-5.03,-4.88,-4.11,-4.64,-4.67,-4.72
211.44,0.44,5.19,0.35,5.09,-5.03,-4.86,-4.15,-4.59,-4.68,-4.74
213.56,0.26,5.02,0.31,5.06,-5.02,-4.83,-4.20,-4.75,-4.71,-4.75
215.69,0.16,4.92,0.23,4.99,-5.00,-4.80,-4.25,-4.83,-4.77,-4.76
217.85,0.21,4.98,0.16,4.93,-4.96,-4.77,-4.29,-4.75,-4.80,-4.77
220.03,0.12,4.91,0.13,4.92,-4.92,-4.74,-4.34,-4.80,-4.79,-4.79
222.23,0.07,4.87,0.08,4.87,-4.88,-4.70,-4.38,-4.80,-4.80,-4.79
224.45,0.03,4.81,0.00,4.79,-4.84,-4.66,-4.41,-4.80,-4.84,-4.78
226.70,-0.07,4.71,-0.03,4.75,-4.80,-4.61,-4.45,-4.86,-4.82,-4.78
228.96,-0.07,4.71,-0.02,4.75,-4.75,-4.57,-4.48,-4.82,-4.78,-4.77
231.25,0.01,4.77,-0.04,4.72,-4.70,-4.51,-4.50,-4.69,-4.74,-4.76
233.57,-0.02,4.73,-0.05,4.70,-4.64,-4.46,-4.52,-4.65,-4.69,-4.75
235.90,-0.17,4.57,-0.11,4.62,-4.55,-4.40,-4.53,-4.72,-4.66,-4.73
238.26,-0.19,4.52,-0.21,4.50,-4.47,-4.34,-4.54,-4.65,-4.68,-4.71
240.64,-0.30,4.39,-0.31,4.37,-4.37,-4.28,-4.54,-4.67,-4.68,-4.68
243.05,-0.42,4.23,-0.39,4.26,-4.28,-4.21,-4.54,-4.70,-4.67,-4.65
245.48,-0.50,4.13,-0.50,4.13,-4.19,-4.14,-4.52,-4.69,-4.69,-4.62
247.93,-0.56,4.04,-0.58,4.03,-4.11,-4.07,-4.50,-4.67,-4.69,-4.60
250.41,-0.64,3.95,-0.59,3.98,-4.03,-3.99,-4.47,-4.67,-4.63,-4.58
252.92,-0.62,3.93,-0.60,3.95,-3.95,-3.91,-4.43,-4.57,-4.55,-4.55
255.45,-0.55,3.98,-0.61,3.92,-3.87,-3.83,-4.39,-4.42,-4.48,-4.52
258.00,-0.65,3.86,-0.63,3.87,-3.78,-3.75,-4.34,-4.42,-4.41,-4.51
260.58,-0.74,3.76,-0.71,3.78,-3.68,-3.66,-4.28,-4.41,-4.39,-4.49
263.19,-0.83,3.64,-0.86,3.61,-3.58,-3.57,-4.21,-4.40,-4.44,-4.47
265.82,-0.98,3.47,-1.01,3.43,-3.47,-3.48,-4.14,-4.45,-4.49,-4.45
268.48,-1.22,3.21,-1.15,3.27,-3.36,-3.38,-4.06,-4.58,-4.52,-4.42
271.16,-1.26,3.14,-1.24,3.16,-3.26,-3.29,-3.97,-4.51,-4.49,-4.40
273.87,-1.26,3.12,-1.26,3.11,-3.15,-3.19,-3.88,-4.41,-4.42,-4.38
276.61,-1.23,3.13,-1.26,3.09,-3.06,-3.08,-3.79,-4.29,-4.33,-4.35
279.38,-1.31,3.02,-1.29,3.04,-2.98,-2.98,-3.68,-4.29,-4.28,-4.33
282.17,-1.37,2.94,-1.35,2.95,-2.91,-2.87,-3.58,-4.28,-4.27,-4.31
284.99,-1.42,2.86,-1.43,2.84,-2.84,-2.76,-3.47,-4.25,-4.27,-4.27
287.84,-1.51,2.74,-1.49,2.75,-2.76,-2.65,-3.36,-4.26,-4.25,-4.24
290.72,-1.57,2.64,-1.56,2.65,-2.66,-2.53,-3.24,-4.22,-4.22,-4.21
293.63,-1.63,2.55,-1.64,2.53,-2.54,-2.42,-3.12,-4.17,-4.19,-4.18
296.57,-1.72,2.43,-1.73,2.42,-2.42,-2.30,-3.00,-4.13,-4.15,-4.14
299.53,-1.87,2.26,-1.82,2.30,-2.28,-2.17,-2.88,-4.15,-4.11,-4.12
302.53,-1.93,2.17,-1.93,2.16,-2.14,-2.05,-2.75,-4.07,-4.08,-4.10
305.55,-2.03,2.03,-2.07,2.00,-1.99,-1.92,-2.63,-4.02,-4.06,-4.06
308.61,-2.23,1.82,-2.21,1.83,-1.83,-1.80,-2.50,-4.05,-4.04,-4.04
311.69,-2.41,1.62,-2.37,1.65,-1.65,-1.66,-2.37,-4.06,-4.02,-4.02
314.81,-2.51,1.48,-2.51,1.48,-1.47,-1.53,-2.24,-3.98,-3.98,-3.99
317.96,-2.64,1.34,-2.66,1.31,-1.29,-1.40,-2.12,-3.93,-3.95,-3.98
321.14,-2.83,1.13,-2.84,1.12,-1.11,-1.26,-1.99,-3.94,-3.95,-3.96
324.35,-3.07,0.89,-3.04,0.91,-0.93,-1.12,-1.86,-4.00,-3.97,-3.95
327.59,-3.24,0.70,-3.21,0.72,-0.76,-0.98,-1.73,-4.00,-3.98,-3.93
330.87,-3.34,0.59,-3.35,0.58,-0.60,-0.84,-1.60,-3.93,-3.94,-3.92
334.18,-3.46,0.46,-3.45,0.46,-0.44,-0.70,-1.48,-3.90,-3.90,-3.92
337.52,-3.57,0.34,-3.59,0.32,-0.30,-0.55,-1.35,-3.86,-3.88,-3.91
340.90,-3.73,0.16,-3.73,0.16,-0.16,-0.41,-1.22,-3.89,-3.89,-3.89
344.30,-3.90,-0.02,-3.87,0.01,-0.04,-0.26,-1.10,-3.93,-3.90,-3.88
347.75,-3.98,-0.10,-3.97,-0.10,0.08,-0.11,-0.97,-3.89,-3.89,-3.87
351.23,-4.06,-0.19,-4.06,-0.19,0.20,0.03,-0.85,-3.86,-3.86,-3.86
354.74,-4.13,-0.26,-4.17,-0.31,0.33,0.18,-0.72,-3.80,-3.84,-3.86
358.28,-4.31,-0.45,-4.30,-0.44,0.46,0.33,-0.60,-3.84,-3.83,-3.85
361.87,-4.46,-0.60,-4.41,-0.56,0.59,0.47,-0.47,-3.86,-3.82,-3.86
365.49,-4.52,-0.67,-4.51,-0.67,0.70,0.62,-0.35,-3.82,-3.82,-3.85
369.14,-4.59,-0.74,-4.65,-0.80,0.78,0.76,-0.23,-3.80,-3.86,-3.85
372.83,-4.77,-0.92,-4.80,-0.95,0.87,0.90,-0.10,-3.90,-3.93,-3.85
376.56,-5.01,-1.16,-4.92,-1.08,0.95,1.04,0.02,-4.05,-3.97,-3.85
380.33,-5.00,-1.16,-4.95,-1.11,1.05,1.17,0.14,-3.95,-3.91,-3.83
384.13,-4.90,-1.05,-4.91,-1.07,1.14,1.30,0.26,-3.75,-3.76,-3.84
387.97,-4.83,-0.98,-4.89,-1.05,1.24,1.42,0.38,-3.58,-3.65,-3.84
391.85,-4.99,-1.14,-5.04,-1.20,1.34,1.54,0.50,-3.65,-3.71,-3.84
395.77,-5.30,-1.46,-5.30,-1.47,1.43,1.65,0.61,-3.86,-3.87,-3.83
399.73,-5.63,-1.79,-5.50,-1.66,1.54,1.75,0.73,-4.09,-3.96,-3.84
403.72,-5.65,-1.80,-5.59,-1.75,1.65,1.85,0.84,-3.99,-3.94,-3.85
407.76,-5.49,-1.64,-5.64,-1.80,1.78,1.94,0.96,-3.71,-3.86,-3.85
411.84,-5.68,-1.84,-5.69,-1.84,1.90,2.01,1.07,-3.77,-3.79,-3.84
415.96,-5.88,-2.03,-5.78,-1.93,2.01,2.08,1.18,-3.87,-3.77,-3.85
420.12,-5.91,-2.06,-5.91,-2.07,2.08,2.14,1.28,-3.83,-3.84,-3.85
424.32,-5.93,-2.09,-6.02,-2.17,2.13,2.19,1.39,-3.79,-3.88,-3.84
428.56,-6.10,-2.26,-6.03,-2.19,2.18,2.23,1.49,-3.91,-3.84,-3.84
432.85,-6.15,-2.33,-6.08,-2.26,2.23,2.26,1.59,-3.91,-3.84,-3.82
437.18,-5.93,-2.13,-6.08,-2.29,2.27,2.28,1.68,-3.66,-3.81,-3.80
