frequency,raw,error,smoothed,error_smoothed,equalization,parametric_eq,fixed_band_eq,equalized_raw,equalized_smoothed,target
20.00,-3.90,-3.99,-3.89,-3.98,4.10,4.13,1.15,0.20,0.21,0.09
20.20,-3.89,-4.02,-3.89,-4.03,4.07,4.09,1.19,0.18,0.17,0.13
20.40,-3.87,-4.04,-3.89,-4.06,4.04,4.05,1.22,0.17,0.15,0.17
20.61,-3.86,-4.05,-3.87,-4.07,4.00,4.00,1.26,0.14,0.13,0.19
20.81,-3.85,-4.08,-3.85,-4.08,3.97,3.96,1.30,0.12,0.12,0.23
21.02,-3.82,-4.09,-3.79,-4.06,3.93,3.92,1.34,0.11,0.14,0.27
21.23,-3.70,-3.98,-3.70,-3.99,3.90,3.88,1.38,0.20,0.19,0.28
21.44,-3.57,-3.87,-3.57,-3.88,3.86,3.84,1.42,0.29,0.28,0.30
21.66,-3.45,-3.76,-3.43,-3.74,3.79,3.79,1.46,0.34,0.36,0.31
21.87,-3.32,-3.63,-3.33,-3.65,3.73,3.75,1.51,0.42,0.40,0.31
22.09,-3.26,-3.58,-3.28,-3.60,3.69,3.71,1.55,0.43,0.41,0.32
22.31,-3.29,-3.61,-3.28,-3.60,3.65,3.66,1.60,0.36,0.37,0.32
22.54,-3.32,-3.64,-3.32,-3.64,3.63,3.62,1.65,0.31,0.31,0.32
22.76,-3.36,-3.67,-3.36,-3.67,3.63,3.58,1.70,0.27,0.27,0.31
22.99,-3.39,-3.69,-3.37,-3.67,3.63,3.53,1.75,0.24,0.26,0.30
23.22,-3.36,-3.66,-3.36,-3.65,3.63,3.49,1.80,0.27,0.27,0.30
23.45,-3.32,-3.61,-3.33,-3.62,3.61,3.45,1.85,0.29,0.28,0.29
23.69,-3.28,-3.57,-3.29,-3.58,3.57,3.40,1.91,0.29,0.28,0.29
23.92,-3.25,-3.54,-3.24,-3.53,3.51,3.36,1.96,0.27,0.28,0.29
24.16,-3.18,-3.47,-3.17,-3.46,3.44,3.31,2.02,0.26,0.27,0.30
24.40,-3.08,-3.37,-3.08,-3.38,3.36,3.27,2.08,0.29,0.28,0.30
24.65,-2.99,-3.27,-2.99,-3.28,3.28,3.23,2.13,0.29,0.30,0.29
24.89,-2.90,-3.18,-2.90,-3.19,3.20,3.18,2.19,0.31,0.30,0.29
25.14,-2.83,-3.11,-2.84,-3.12,3.14,3.14,2.25,0.31,0.30,0.28
25.39,-2.79,-3.07,-2.78,-3.06,3.08,3.09,2.31,0.30,0.30,0.28
25.65,-2.75,-3.02,-2.74,-3.01,3.05,3.05,2.36,0.30,0.31,0.27
25.91,-2.70,-2.96,-2.71,-2.98,3.03,3.01,2.42,0.33,0.31,0.26
26.16,-2.70,-2.96,-2.70,-2.97,3.00,2.96,2.48,0.31,0.30,0.26
26.43,-2.72,-2.98,-2.73,-2.99,2.97,2.92,2.54,0.26,0.25,0.26
26.69,-2.75,-3.01,-2.75,-3.01,2.94,2.87,2.59,0.19,0.18,0.26
26.96,-2.77,-3.02,-2.73,-2.99,2.89,2.83,2.65,0.12,0.16,0.25
27.23,-2.66,-2.91,-2.66,-2.91,2.84,2.78,2.70,0.18,0.18,0.25
27.50,-2.53,-2.78,-2.53,-2.77,2.79,2.74,2.75,0.26,0.26,0.25
27.77,-2.40,-2.63,-2.40,-2.64,2.73,2.70,2.80,0.33,0.32,0.24
28.05,-2.30,-2.53,-2.33,-2.56,2.66,2.65,2.85,0.36,0.33,0.24
28.33,-2.31,-2.53,-2.31,-2.53,2.58,2.61,2.89,0.28,0.28,0.23
28.62,-2.31,-2.53,-2.31,-2.53,2.50,2.56,2.93,0.19,0.19,0.22
28.90,-2.32,-2.54,-2.29,-2.52,2.42,2.52,2.96,0.10,0.13,0.22
29.19,-2.23,-2.45,-2.21,-2.44,2.35,2.48,3.00,0.12,0.13,0.22
29.48,-2.09,-2.32,-2.09,-2.32,2.28,2.43,3.03,0.19,0.19,0.23
29.78,-1.95,-2.17,-1.96,-2.19,2.21,2.39,3.05,0.26,0.25,0.22
30.08,-1.85,-2.08,-1.87,-2.09,2.16,2.34,3.07,0.31,0.28,0.23
30.38,-1.84,-2.05,-1.82,-2.04,2.11,2.30,3.08,0.27,0.29,0.21
30.68,-1.83,-2.03,-1.82,-2.02,2.09,2.26,3.09,0.26,0.27,0.21
30.99,-1.82,-2.01,-1.84,-2.04,2.08,2.22,3.09,0.26,0.24,0.19
31.30,-1.89,-2.08,-1.89,-2.09,2.09,2.17,3.09,0.21,0.20,0.19
31.61,-1.96,-2.15,-1.95,-2.14,2.11,2.13,3.08,0.15,0.16,0.19
31.93,-2.02,-2.19,-2.00,-2.17,2.12,2.09,3.07,0.10,0.12,0.17
32.24,-2.01,-2.17,-2.01,-2.17,2.11,2.05,3.05,0.10,0.10,0.16
32.57,-1.97,-2.13,-1.98,-2.13,2.07,2.00,3.03,0.10,0.09,0.16
32.89,-1.93,-2.07,-1.92,-2.06,2.02,1.96,3.00,0.09,0.10,0.15
33.22,-1.84,-1.96,-1.82,-1.95,1.95,1.92,2.97,0.11,0.12,0.12
33.55,-1.72,-1.84,-1.72,-1.84,1.87,1.88,2.93,0.16,0.15,0.12
33.89,-1.61,-1.71,-1.63,-1.73,1.80,1.84,2.89,0.19,0.17,0.10
34.23,-1.57,-1.67,-1.58,-1.67,1.73,1.80,2.84,0.16,0.16,0.10
34.57,-1.57,-1.64,-1.56,-1.64,1.68,1.76,2.79,0.11,0.12,0.08
34.92,-1.57,-1.63,-1.56,-1.63,1.63,1.72,2.74,0.06,0.07,0.06
35.27,-1.56,-1.62,-1.57,-1.62,1.59,1.68,2.69,0.03,0.02,0.06
35.62,-1.56,-1.60,-1.56,-1.61,1.55,1.64,2.63,-0.00,-0.01,0.04
35.97,-1.56,-1.58,-1.54,-1.57,1.52,1.60,2.57,-0.03,-0.01,0.03
36.33,-1.50,-1.52,-1.49,-1.51,1.50,1.56,2.51,0.00,0.01,0.02
36.70,-1.43,-1.44,-1.43,-1.45,1.47,1.52,2.44,0.04,0.04,0.01
37.06,-1.37,-1.37,-1.39,-1.40,1.45,1.48,2.38,0.08,0.06,0.00
37.43,-1.38,-1.39,-1.37,-1.37,1.42,1.44,2.31,0.04,0.05,0.01
37.81,-1.38,-1.37,-1.38,-1.37,1.39,1.40,2.24,0.01,0.01,-0.01
38.19,-1.39,-1.37,-1.40,-1.39,1.35,1.36,2.18,-0.04,-0.05,-0.02
38.57,-1.40,-1.39,-1.40,-1.38,1.31,1.33,2.11,-0.08,-0.09,-0.01
38.95,-1.40,-1.37,-1.37,-1.35,1.28,1.29,2.04,-0.12,-0.09,-0.02
39.34,-1.31,-1.28,-1.30,-1.27,1.25,1.25,1.97,-0.06,-0.05,-0.03
39.74,-1.21,-1.17,-1.23,-1.19,1.23,1.22,1.90,0.02,0.00,-0.04
40.14,-1.15,-1.10,-1.16,-1.12,1.21,1.18,1.84,0.06,0.04,-0.04
40.54,-1.16,-1.11,-1.15,-1.10,1.18,1.15,1.77,0.02,0.03,-0.05
40.94,-1.17,-1.12,-1.18,-1.12,1.15,1.11,1.70,-0.02,-0.03,-0.05
41.35,-1.22,-1.15,-1.23,-1.16,1.11,1.08,1.64,-0.10,-0.11,-0.07
41.76,-1.27,-1.19,-1.25,-1.17,1.08,1.04,1.57,-0.19,-0.16,-0.08
42.18,-1.24,-1.15,-1.21,-1.12,1.05,1.01,1.51,-0.19,-0.16,-0.08
42.60,-1.13,-1.03,-1.13,-1.04,1.02,0.97,1.45,-0.11,-0.12,-0.10
43.03,-1.02,-0.92,-1.05,-0.94,0.98,0.94,1.39,-0.04,-0.07,-0.10
43.46,-1.00,-0.87,-0.99,-0.86,0.93,0.91,1.32,-0.07,-0.06,-0.13
43.90,-0.98,-0.83,-0.98,-0.83,0.87,0.87,1.27,-0.11,-0.11,-0.15
44.33,-0.98,-0.81,-0.99,-0.82,0.82,0.84,1.21,-0.16,-0.17,-0.17
44.78,-1.00,-0.81,-0.99,-0.80,0.78,0.81,1.15,-0.22,-0.21,-0.19
45.23,-0.99,-0.78,-0.98,-0.77,0.75,0.78,1.09,-0.24,-0.23,-0.21
45.68,-0.95,-0.72,-0.95,-0.73,0.73,0.75,1.03,-0.22,-0.23,-0.22
46.13,-0.92,-0.68,-0.93,-0.69,0.71,0.72,0.98,-0.21,-0.22,-0.24
46.60,-0.92,-0.67,-0.92,-0.67,0.69,0.69,0.93,-0.23,-0.23,-0.25
47.06,-0.92,-0.67,-0.92,-0.66,0.66,0.66,0.87,-0.26,-0.26,-0.25
47.53,-0.91,-0.65,-0.91,-0.65,0.63,0.63,0.82,-0.28,-0.28,-0.26
48.01,-0.90,-0.63,-0.89,-0.62,0.60,0.60,0.77,-0.30,-0.29,-0.26
48.49,-0.86,-0.58,-0.86,-0.58,0.57,0.57,0.72,-0.29,-0.28,-0.28
48.97,-0.82,-0.52,-0.84,-0.54,0.55,0.54,0.67,-0.27,-0.29,-0.30
49.46,-0.82,-0.51,-0.82,-0.51,0.52,0.51,0.62,-0.30,-0.30,-0.31
49.96,-0.82,-0.49,-0.80,-0.49,0.49,0.48,0.57,-0.33,-0.31,-0.32
50.46,-0.79,-0.48,-0.78,-0.47,0.47,0.45,0.53,-0.32,-0.31,-0.31
50.96,-0.75,-0.43,-0.77,-0.44,0.46,0.43,0.48,-0.29,-0.31,-0.32
51.47,-0.76,-0.43,-0.76,-0.43,0.45,0.40,0.44,-0.31,-0.31,-0.33
51.99,-0.77,-0.43,-0.76,-0.43,0.44,0.37,0.39,-0.32,-0.31,-0.34
52.51,-0.77,-0.43,-0.77,-0.43,0.43,0.35,0.35,-0.33,-0.34,-0.34
53.03,-0.77,-0.43,-0.78,-0.44,0.42,0.32,0.30,-0.35,-0.36,-0.34
53.56,-0.79,-0.44,-0.78,-0.44,0.40,0.29,0.26,-0.39,-0.39,-0.35
54.10,-0.79,-0.43,-0.76,-0.41,0.37,0.27,0.22,-0.41,-0.39,-0.36
54.64,-0.71,-0.35,-0.72,-0.36,0.35,0.24,0.18,-0.36,-0.37,-0.36
55.18,-0.65,-0.28,-0.66,-0.30,0.32,0.22,0.14,-0.33,-0.34,-0.37
55.74,-0.62,-0.24,-0.62,-0.25,0.29,0.19,0.10,-0.33,-0.34,-0.38
56.29,-0.61,-0.23,-0.61,-0.23,0.25,0.17,0.07,-0.36,-0.36,-0.38
56.86,-0.62,-0.22,-0.61,-0.21,0.22,0.14,0.03,-0.40,-0.39,-0.40
57.42,-0.62,-0.21,-0.62,-0.21,0.20,0.12,-0.01,-0.42,-0.42,-0.41
58.00,-0.62,-0.19,-0.62,-0.20,0.18,0.09,-0.04,-0.44,-0.44,-0.43
58.58,-0.62,-0.18,-0.62,-0.18,0.17,0.07,-0.08,-0.45,-0.45,-0.44
59.16,-0.62,-0.17,-0.61,-0.15,0.16,0.04,-0.11,-0.46,-0.45,-0.45
59.76,-0.60,-0.12,-0.60,-0.13,0.14,0.02,-0.14,-0.46,-0.46,-0.48
60.35,-0.60,-0.10,-0.61,-0.11,0.12,-0.01,-0.17,-0.48,-0.49,-0.50
60.96,-0.62,-0.09,-0.63,-0.10,0.08,-0.03,-0.20,-0.53,-0.55,-0.52
61.57,-0.66,-0.09,-0.64,-0.08,0.05,-0.06,-0.23,-0.61,-0.60,-0.57
62.18,-0.66,-0.05,-0.63,-0.03,0.01,-0.08,-0.26,-0.65,-0.63,-0.61
62.80,-0.59,0.05,-0.61,0.03,-0.04,-0.11,-0.29,-0.62,-0.64,-0.64
63.43,-0.57,0.11,-0.58,0.10,-0.08,-0.13,-0.32,-0.65,-0.66,-0.68
64.07,-0.57,0.15,-0.56,0.15,-0.13,-0.16,-0.35,-0.69,-0.69,-0.71
64.71,-0.57,0.18,-0.57,0.18,-0.17,-0.18,-0.37,-0.74,-0.74,-0.75
65.35,-0.57,0.21,-0.57,0.22,-0.22,-0.21,-0.40,-0.78,-0.78,-0.78
66.01,-0.57,0.25,-0.57,0.25,-0.25,-0.23,-0.42,-0.82,-0.82,-0.82
66.67,-0.57,0.29,-0.57,0.29,-0.29,-0.26,-0.45,-0.86,-0.86,-0.86
67.33,-0.57,0.32,-0.57,0.32,-0.32,-0.28,-0.47,-0.89,-0.89,-0.89
68.01,-0.57,0.36,-0.57,0.36,-0.36,-0.31,-0.50,-0.93,-0.93,-0.93
68.69,-0.57,0.40,-0.58,0.39,-0.40,-0.34,-0.52,-0.97,-0.98,-0.97
69.37,-0.58,0.43,-0.58,0.43,-0.44,-0.36,-0.54,-1.02,-1.02,-1.01
70.07,-0.60,0.45,-0.57,0.48,-0.48,-0.39,-0.56,-1.08,-1.05,-1.05
70.77,-0.54,0.55,-0.55,0.54,-0.53,-0.42,-0.59,-1.07,-1.07,-1.08
71.48,-0.52,0.61,-0.54,0.59,-0.57,-0.44,-0.61,-1.09,-1.11,-1.13
72.19,-0.54,0.63,-0.55,0.63,-0.62,-0.47,-0.63,-1.16,-1.16,-1.17
72.91,-0.60,0.63,-0.57,0.65,-0.66,-0.50,-0.66,-1.26,-1.23,-1.22
73.64,-0.58,0.69,-0.58,0.69,-0.71,-0.53,-0.68,-1.29,-1.29,-1.27
74.38,-0.57,0.75,-0.58,0.74,-0.75,-0.55,-0.70,-1.31,-1.32,-1.31
75.12,-0.57,0.79,-0.56,0.79,-0.78,-0.58,-0.72,-1.35,-1.34,-1.36
75.87,-0.57,0.83,-0.56,0.83,-0.81,-0.61,-0.75,-1.38,-1.38,-1.40
76.63,-0.57,0.86,-0.57,0.86,-0.84,-0.64,-0.77,-1.41,-1.42,-1.43
77.40,-0.59,0.88,-0.60,0.87,-0.87,-0.67,-0.80,-1.46,-1.47,-1.47
78.17,-0.63,0.88,-0.62,0.88,-0.90,-0.70,-0.82,-1.53,-1.52,-1.51
78.95,-0.65,0.89,-0.63,0.90,-0.92,-0.73,-0.85,-1.57,-1.55,-1.54
79.74,-0.63,0.94,-0.63,0.94,-0.94,-0.76,-0.87,-1.56,-1.57,-1.57
80.54,-0.62,0.98,-0.62,0.97,-0.95,-0.79,-0.90,-1.57,-1.58,-1.60
81.35,-0.63,1.00,-0.65,0.98,-0.97,-0.83,-0.93,-1.60,-1.62,-1.63
82.16,-0.67,0.99,-0.67,0.98,-1.00,-0.86,-0.96,-1.66,-1.67,-1.66
82.98,-0.73,0.95,-0.68,1.01,-1.02,-0.89,-0.98,-1.75,-1.70,-1.68
83.81,-0.66,1.06,-0.68,1.04,-1.04,-0.92,-1.01,-1.70,-1.72,-1.72
84.65,-0.65,1.10,-0.68,1.07,-1.06,-0.96,-1.05,-1.71,-1.74,-1.75
85.50,-0.69,1.09,-0.68,1.10,-1.08,-0.99,-1.08,-1.77,-1.76,-1.77
86.35,-0.72,1.09,-0.71,1.10,-1.11,-1.02,-1.11,-1.82,-1.81,-1.81
87.22,-0.72,1.12,-0.72,1.12,-1.13,-1.06,-1.14,-1.85,-1.85,-1.84
88.09,-0.72,1.16,-0.72,1.15,-1.16,-1.09,-1.18,-1.88,-1.88,-1.87
88.97,-0.72,1.18,-0.71,1.19,-1.19,-1.13,-1.21,-1.90,-1.90,-1.90
89.86,-0.71,1.23,-0.71,1.22,-1.21,-1.16,-1.25,-1.92,-1.93,-1.93
90.76,-0.71,1.26,-0.72,1.25,-1.25,-1.20,-1.29,-1.95,-1.97,-1.97
91.66,-0.73,1.27,-0.73,1.27,-1.28,-1.23,-1.32,-2.01,-2.01,-2.00
92.58,-0.74,1.29,-0.72,1.31,-1.32,-1.27,-1.36,-2.06,-2.04,-2.03
93.51,-0.70,1.36,-0.70,1.36,-1.36,-1.30,-1.40,-2.06,-2.06,-2.06
94.44,-0.66,1.43,-0.68,1.41,-1.40,-1.34,-1.44,-2.06,-2.08,-2.08
95.39,-0.67,1.44,-0.67,1.44,-1.45,-1.38,-1.48,-2.12,-2.12,-2.11
96.34,-0.68,1.47,-0.67,1.48,-1.49,-1.41,-1.53,-2.17,-2.16,-2.15
97.30,-0.67,1.51,-0.64,1.53,-1.53,-1.45,-1.57,-2.20,-2.18,-2.18
98.28,-0.60,1.60,-0.62,1.59,-1.57,-1.49,-1.61,-2.17,-2.19,-2.20
99.26,-0.58,1.64,-0.60,1.63,-1.60,-1.52,-1.66,-2.18,-2.20,-2.22
100.25,-0.61,1.64,-0.60,1.65,-1.63,-1.56,-1.70,-2.24,-2.23,-2.25
101.25,-0.63,1.65,-0.62,1.66,-1.66,-1.60,-1.75,-2.29,-2.28,-2.28
102.27,-0.64,1.67,-0.64,1.67,-1.69,-1.63,-1.79,-2.33,-2.33,-2.31
103.29,-0.65,1.71,-0.66,1.69,-1.71,-1.67,-1.84,-2.36,-2.37,-2.35
104.32,-0.67,1.70,-0.66,1.72,-1.72,-1.71,-1.88,-2.39,-2.38,-2.37
105.37,-0.68,1.73,-0.66,1.75,-1.74,-1.74,-1.93,-2.41,-2.40,-2.41
106.42,-0.65,1.79,-0.67,1.77,-1.75,-1.78,-1.97,-2.39,-2.42,-2.44
107.48,-0.69,1.79,-0.70,1.78,-1.76,-1.81,-2.02,-2.45,-2.46,-2.48
108.56,-0.76,1.76,-0.74,1.78,-1.77,-1.85,-2.06,-2.53,-2.51,-2.52
109.64,-0.79,1.77,-0.79,1.76,-1.78,-1.89,-2.11,-2.57,-2.56,-2.55
110.74,-0.81,1.77,-0.81,1.77,-1.79,-1.92,-2.15,-2.60,-2.60,-2.58
111.85,-0.83,1.78,-0.83,1.79,-1.80,-1.96,-2.19,-2.63,-2.63,-2.61
112.97,-0.84,1.82,-0.84,1.81,-1.81,-1.99,-2.23,-2.65,-2.65,-2.66
114.10,-0.84,1.84,-0.84,1.84,-1.83,-2.03,-2.27,-2.67,-2.68,-2.67
115.24,-0.85,1.86,-0.85,1.87,-1.86,-2.06,-2.30,-2.70,-2.70,-2.71
116.39,-0.85,1.89,-0.85,1.89,-1.89,-2.09,-2.34,-2.74,-2.73,-2.74
117.55,-0.84,1.93,-0.84,1.92,-1.92,-2.13,-2.37,-2.76,-2.77,-2.77
118.73,-0.84,1.95,-0.84,1.94,-1.96,-2.16,-2.40,-2.80,-2.80,-2.79
119.92,-0.83,1.97,-0.83,1.98,-2.00,-2.19,-2.43,-2.83,-2.82,-2.80
121.12,-0.82,2.01,-0.79,2.03,-2.03,-2.22,-2.45,-2.85,-2.82,-2.82
122.33,-0.74,2.10,-0.76,2.08,-2.07,-2.25,-2.47,-2.80,-2.82,-2.84
123.55,-0.71,2.14,-0.73,2.12,-2.10,-2.28,-2.49,-2.81,-2.83,-2.84
124.79,-0.74,2.13,-0.72,2.14,-2.13,-2.31,-2.51,-2.87,-2.85,-2.87
126.03,-0.74,2.15,-0.73,2.15,-2.15,-2.34,-2.53,-2.89,-2.89,-2.88
127.29,-0.73,2.17,-0.73,2.17,-2.18,-2.37,-2.54,-2.91,-2.91,-2.90
128.57,-0.73,2.19,-0.73,2.19,-2.20,-2.40,-2.54,-2.93,-2.92,-2.92
129.85,-0.72,2.22,-0.72,2.21,-2.21,-2.43,-2.55,-2.93,-2.93,-2.93
131.15,-0.72,2.23,-0.72,2.23,-2.23,-2.46,-2.55,-2.95,-2.94,-2.95
132.46,-0.71,2.25,-0.71,2.25,-2.24,-2.48,-2.55,-2.95,-2.95,-2.96
133.79,-0.71,2.25,-0.71,2.26,-2.26,-2.51,-2.55,-2.97,-2.97,-2.96
135.12,-0.70,2.29,-0.70,2.28,-2.28,-2.53,-2.55,-2.98,-2.98,-2.99
136.48,-0.70,2.29,-0.70,2.30,-2.30,-2.56,-2.55,-3.00,-3.00,-2.99
137.84,-0.70,2.31,-0.70,2.32,-2.32,-2.58,-2.54,-3.01,-3.01,-3.01
139.22,-0.70,2.34,-0.70,2.34,-2.33,-2.60,-2.53,-3.03,-3.03,-3.04
140.61,-0.70,2.36,-0.69,2.35,-2.35,-2.62,-2.52,-3.05,-3.04,-3.06
142.02,-0.69,2.37,-0.69,2.37,-2.37,-2.64,-2.51,-3.05,-3.06,-3.06
143.44,-0.69,2.39,-0.69,2.39,-2.39,-2.66,-2.50,-3.07,-3.07,-3.07
144.87,-0.69,2.41,-0.69,2.41,-2.41,-2.68,-2.49,-3.10,-3.10,-3.10
146.32,-0.70,2.43,-0.69,2.43,-2.43,-2.70,-2.48,-3.13,-3.13,-3.13
147.78,-0.70,2.45,-0.70,2.46,-2.47,-2.72,-2.47,-3.16,-3.16,-3.15
149.26,-0.70,2.49,-0.70,2.49,-2.50,-2.74,-2.46,-3.20,-3.20,-3.19
150.75,-0.70,2.54,-0.70,2.54,-2.55,-2.76,-2.44,-3.25,-3.25,-3.24
152.26,-0.70,2.59,-0.70,2.59,-2.60,-2.77,-2.43,-3.30,-3.30,-3.29
153.78,-0.70,2.64,-0.69,2.65,-2.65,-2.79,-2.42,-3.35,-3.35,-3.34
155.32,-0.69,2.72,-0.69,2.71,-2.71,-2.80,-2.42,-3.40,-3.40,-3.40
156.88,-0.69,2.77,-0.69,2.78,-2.76,-2.82,-2.41,-3.45,-3.45,-3.46
158.44,-0.69,2.84,-0.70,2.82,-2.81,-2.83,-2.40,-3.50,-3.51,-3.53
160.03,-0.72,2.87,-0.71,2.87,-2.86,-2.84,-2.40,-3.58,-3.58,-3.59
161.63,-0.75,2.89,-0.73,2.91,-2.90,-2.85,-2.39,-3.65,-3.63,-3.64
163.24,-0.74,2.96,-0.75,2.94,-2.93,-2.86,-2.39,-3.67,-3.69,-3.70
164.88,-0.77,2.96,-0.77,2.96,-2.96,-2.87,-2.39,-3.73,-3.74,-3.73
166.53,-0.80,2.97,-0.80,2.97,-2.99,-2.88,-2.39,-3.79,-3.78,-3.77
168.19,-0.81,2.99,-0.80,3.00,-3.01,-2.89,-2.39,-3.82,-3.81,-3.80
169.87,-0.82,3.01,-0.79,3.03,-3.03,-2.90,-2.39,-3.85,-3.82,-3.83
171.57,-0.75,3.10,-0.79,3.05,-3.05,-2.91,-2.40,-3.79,-3.84,-3.84
173.29,-0.79,3.06,-0.79,3.06,-3.06,-2.92,-2.41,-3.85,-3.85,-3.85
175.02,-0.83,3.03,-0.78,3.08,-3.08,-2.92,-2.42,-3.90,-3.86,-3.86
176.77,-0.76,3.11,-0.78,3.09,-3.09,-2.93,-2.43,-3.85,-3.87,-3.86
178.54,-0.74,3.13,-0.75,3.11,-3.10,-2.94,-2.44,-3.84,-3.86,-3.87
180.32,-0.74,3.12,-0.73,3.13,-3.12,-2.94,-2.46,-3.86,-3.85,-3.86
182.13,-0.73,3.12,-0.73,3.13,-3.13,-2.95,-2.47,-3.86,-3.86,-3.85
183.95,-0.72,3.14,-0.72,3.13,-3.14,-2.95,-2.49,-3.86,-3.86,-3.85
185.79,-0.71,3.15,-0.70,3.15,-3.16,-2.96,-2.51,-3.87,-3.86,-3.86
187.65,-0.69,3.18,-0.69,3.18,-3.18,-2.96,-2.54,-3.87,-3.87,-3.87
189.52,-0.68,3.20,-0.68,3.20,-3.20,-2.96,-2.56,-3.88,-3.88,-3.88
191.42,-0.67,3.22,-0.66,3.22,-3.23,-2.96,-2.59,-3.89,-3.89,-3.89
193.33,-0.65,3.25,-0.65,3.25,-3.25,-2.97,-2.61,-3.90,-3.90,-3.90
195.27,-0.64,3.27,-0.64,3.28,-3.28,-2.97,-2.64,-3.92,-3.92,-3.91
197.22,-0.62,3.32,-0.62,3.31,-3.31,-2.97,-2.67,-3.93,-3.93,-3.93
199.19,-0.61,3.35,-0.61,3.34,-3.33,-2.97,-2.70,-3.94,-3.94,-3.95
201.18,-0.60,3.37,-0.60,3.37,-3.36,-2.97,-2.74,-3.96,-3.96,-3.97
203.19,-0.60,3.38,-0.60,3.38,-3.38,-2.97,-2.77,-3.98,-3.98,-3.98
205.23,-0.60,3.41,-0.60,3.40,-3.40,-2.97,-2.81,-4.00,-4.00,-4.01
207.28,-0.60,3.41,-0.60,3.42,-3.42,-2.97,-2.84,-4.02,-4.02,-4.01
209.35,-0.60,3.44,-0.60,3.44,-3.43,-2.97,-2.88,-4.03,-4.03,-4.04
211.44,-0.60,3.46,-0.60,3.45,-3.45,-2.97,-2.91,-4.05,-4.05,-4.05
213.56,-0.61,3.46,-0.60,3.46,-3.46,-2.97,-2.95,-4.07,-4.06,-4.06
215.69,-0.61,3.46,-0.61,3.47,-3.47,-2.97,-2.98,-4.07,-4.07,-4.07
217.85,-0.61,3.47,-0.61,3.47,-3.47,-2.97,-3.02,-4.08,-4.09,-4.08
220.03,-0.62,3.48,-0.61,3.48,-3.48,-2.97,-3.05,-4.10,-4.09,-4.10
222.23,-0.62,3.49,-0.62,3.48,-3.48,-2.96,-3.09,-4.10,-4.10,-4.11
224.45,-0.62,3.48,-0.62,3.48,-3.48,-2.96,-3.12,-4.10,-4.10,-4.09
226.70,-0.62,3.47,-0.62,3.48,-3.48,-2.96,-3.15,-4.10,-4.09,-4.09
228.96,-0.61,3.48,-0.61,3.47,-3.48,-2.96,-3.18,-4.09,-4.09,-4.09
231.25,-0.61,3.47,-0.61,3.47,-3.48,-2.96,-3.21,-4.08,-4.08,-4.07
233.57,-0.60,3.46,-0.60,3.47,-3.47,-2.95,-3.23,-4.07,-4.07,-4.06
235.90,-0.58,3.47,-0.58,3.46,-3.46,-2.95,-3.26,-4.04,-4.04,-4.05
238.26,-0.57,3.45,-0.56,3.47,-3.45,-2.95,-3.28,-4.02,-4.01,-4.02
240.64,-0.54,3.46,-0.54,3.45,-3.44,-2.94,-3.29,-3.98,-3.98,-4.00
243.05,-0.52,3.45,-0.54,3.43,-3.43,-2.94,-3.31,-3.94,-3.96,-3.96
245.48,-0.55,3.39,-0.53,3.41,-3.42,-2.94,-3.32,-3.96,-3.95,-3.94
247.93,-0.54,3.38,-0.53,3.38,-3.41,-2.93,-3.33,-3.95,-3.94,-3.92
250.41,-0.52,3.38,-0.53,3.37,-3.40,-2.93,-3.33,-3.92,-3.93,-3.90
252.92,-0.51,3.36,-0.50,3.37,-3.38,-2.93,-3.33,-3.89,-3.88,-3.87
255.45,-0.48,3.36,-0.47,3.37,-3.37,-2.92,-3.33,-3.84,-3.84,-3.84
258.00,-0.44,3.39,-0.46,3.36,-3.34,-2.92,-3.33,-3.77,-3.80,-3.82
260.58,-0.47,3.34,-0.46,3.35,-3.30,-2.91,-3.32,-3.77,-3.76,-3.81
263.19,-0.51,3.27,-0.49,3.30,-3.25,-2.91,-3.31,-3.76,-3.75,-3.78
265.82,-0.51,3.26,-0.55,3.21,-3.20,-2.91,-3.29,-3.71,-3.75,-3.77
268.48,-0.63,3.11,-0.60,3.14,-3.15,-2.90,-3.28,-3.78,-3.75,-3.74
271.16,-0.67,3.05,-0.66,3.06,-3.09,-2.90,-3.26,-3.76,-3.75,-3.71
273.87,-0.69,3.01,-0.70,3.00,-3.04,-2.89,-3.24,-3.73,-3.74,-3.70
276.61,-0.71,2.96,-0.70,2.97,-2.99,-2.89,-3.21,-3.70,-3.69,-3.67
279.38,-0.70,2.95,-0.70,2.95,-2.95,-2.88,-3.19,-3.65,-3.65,-3.65
282.17,-0.69,2.94,-0.69,2.93,-2.93,-2.88,-3.16,-3.62,-3.62,-3.63
284.99,-0.68,2.91,-0.69,2.91,-2.91,-2.87,-3.14,-3.59,-3.59,-3.59
287.84,-0.68,2.89,-0.67,2.89,-2.89,-2.87,-3.11,-3.57,-3.56,-3.56
290.72,-0.67,2.86,-0.65,2.88,-2.87,-2.86,-3.08,-3.54,-3.51,-3.53
293.63,-0.62,2.88,-0.63,2.87,-2.85,-2.86,-3.05,-3.47,-3.48,-3.50
296.57,-0.59,2.88,-0.62,2.85,-2.82,-2.85,-3.03,-3.41,-3.45,-3.46
299.53,-0.66,2.79,-0.64,2.81,-2.80,-2.85,-3.00,-3.46,-3.44,-3.45
302.53,-0.67,2.75,-0.66,2.75,-2.78,-2.84,-2.97,-3.45,-3.44,-3.42
305.55,-0.66,2.72,-0.65,2.74,-2.76,-2.83,-2.94,-3.42,-3.41,-3.38
308.61,-0.64,2.73,-0.62,2.74,-2.75,-2.83,-2.92,-3.38,-3.37,-3.36
311.69,-0.57,2.78,-0.61,2.73,-2.74,-2.82,-2.89,-3.31,-3.35,-3.35
314.81,-0.60,2.71,-0.60,2.72,-2.73,-2.82,-2.87,-3.33,-3.33,-3.31
317.96,-0.61,2.69,-0.57,2.73,-2.73,-2.81,-2.85,-3.33,-3.30,-3.30
321.14,-0.55,2.73,-0.55,2.74,-2.72,-2.80,-2.83,-3.27,-3.27,-3.28
324.35,-0.49,2.79,-0.52,2.75,-2.72,-2.80,-2.81,-3.20,-3.24,-3.27
327.59,-0.52,2.74,-0.53,2.73,-2.71,-2.79,-2.79,-3.22,-3.23,-3.26
330.87,-0.58,2.67,-0.55,2.69,-2.69,-2.79,-2.78,-3.27,-3.25,-3.25
334.18,-0.59,2.65,-0.59,2.65,-2.68,-2.78,-2.76,-3.26,-3.27,-3.24
337.52,-0.59,2.64,-0.59,2.64,-2.66,-2.78,-2.75,-3.25,-3.25,-3.23
340.90,-0.59,2.62,-0.57,2.64,-2.64,-2.77,-2.74,-3.23,-3.21,-3.21
344.30,-0.55,2.66,-0.58,2.63,-2.62,-2.77,-2.73,-3.17,-3.20,-3.20
347.75,-0.58,2.62,-0.58,2.61,-2.61,-2.76,-2.73,-3.18,-3.19,-3.20
351.23,-0.62,2.57,-0.59,2.60,-2.60,-2.76,-2.72,-3.22,-3.19,-3.19
354.74,-0.60,2.59,-0.60,2.58,-2.60,-2.76,-2.72,-3.19,-3.20,-3.19
358.28,-0.59,2.59,-0.59,2.59,-2.59,-2.76,-2.72,-3.18,-3.19,-3.18
361.87,-0.58,2.60,-0.58,2.60,-2.59,-2.76,-2.72,-3.17,-3.17,-3.18
365.49,-0.57,2.60,-0.57,2.60,-2.59,-2.76,-2.73,-3.16,-3.17,-3.17
369.14,-0.57,2.61,-0.56,2.61,-2.60,-2.76,-2.74,-3.17,-3.17,-3.17
372.83,-0.56,2.62,-0.56,2.61,-2.62,-2.76,-2.75,-3.18,-3.18,-3.17
376.56,-0.55,2.63,-0.55,2.62,-2.64,-2.76,-2.76,-3.19,-3.19,-3.18
380.33,-0.54,2.62,-0.53,2.64,-2.66,-2.76,-2.77,-3.20,-3.19,-3.16
384.13,-0.49,2.68,-0.50,2.67,-2.68,-2.77,-2.78,-3.17,-3.18,-3.17
387.97,-0.47,2.70,-0.47,2.70,-2.70,-2.77,-2.80,-3.17,-3.17,-3.17
391.85,-0.44,2.73,-0.43,2.73,-2.72,-2.77,-2.82,-3.15,-3.15,-3.17
395.77,-0.42,2.74,-0.41,2.75,-2.73,-2.78,-2.84,-3.15,-3.14,-3.16
399.73,-0.39,2.77,-0.41,2.76,-2.74,-2.79,-2.86,-3.13,-3.15,-3.16
403.72,-0.42,2.75,-0.43,2.74,-2.74,-2.79,-2.88,-3.15,-3.16,-3.17
407.76,-0.47,2.71,-0.44,2.73,-2.73,-2.80,-2.90,-3.20,-3.17,-3.17
411.84,-0.47,2.70,-0.46,2.71,-2.71,-2.80,-2.93,-3.18,-3.18,-3.16
415.96,-0.46,2.72,-0.48,2.69,-2.69,-2.81,-2.95,-3.15,-3.18,-3.18
420.12,-0.50,2.68,-0.50,2.68,-2.67,-2.82,-2.98,-3.17,-3.17,-3.18
424.32,-0.53,2.64,-0.51,2.66,-2.66,-2.82,-3.00,-3.19,-3.17,-3.17
428.56,-0.52,2.65,-0.52,2.64,-2.65,-2.83,-3.03,-3.17,-3.17,-3.17
432.85,-0.51,2.64,-0.51,2.64,-2.65,-2.84,-3.05,-3.15,-3.15,-3.15
437.18,-0.48,2.65,-0.49,2.63,-2.65,-2.84,-3.08,-3.13,-3.14,-3.13
441.55,-0.46,2.63,-0.45,2.64,-2.66,-2.85,-3.10,-3.12,-3.12,-3.09
