frequency,raw,error,smoothed,error_smoothed,equalization,parametric_eq,fixed_band_eq,equalized_raw,equalized_smoothed,target
20.00,4.20,1.89,4.20,1.90,-1.90,-1.90,-1.16,2.30,2.30,2.30
20.20,4.21,1.93,4.21,1.93,-1.93,-1.92,-1.19,2.28,2.28,2.27
20.40,4.22,1.97,4.21,1.96,-1.96,-1.94,-1.23,2.26,2.25,2.25
20.61,4.22,1.98,4.22,1.99,-1.99,-1.96,-1.27,2.23,2.23,2.23
20.81,4.23,2.02,4.23,2.02,-2.02,-1.98,-1.30,2.21,2.21,2.21
21.02,4.24,2.04,4.24,2.04,-2.05,-2.01,-1.34,2.19,2.19,2.19
21.23,4.25,2.07,4.25,2.08,-2.08,-2.03,-1.38,2.17,2.17,2.17
21.44,4.26,2.11,4.26,2.10,-2.10,-2.05,-1.42,2.15,2.15,2.15
21.66,4.27,2.13,4.27,2.13,-2.13,-2.07,-1.46,2.13,2.13,2.13
21.87,4.28,2.16,4.28,2.16,-2.16,-2.09,-1.51,2.12,2.12,2.12
22.09,4.29,2.19,4.29,2.19,-2.19,-2.11,-1.55,2.10,2.11,2.10
22.31,4.31,2.22,4.30,2.21,-2.21,-2.13,-1.60,2.10,2.09,2.09
22.54,4.32,2.23,4.32,2.24,-2.23,-2.15,-1.64,2.08,2.08,2.08
22.76,4.33,2.26,4.33,2.26,-2.26,-2.17,-1.69,2.07,2.07,2.07
22.99,4.34,2.27,4.34,2.27,-2.28,-2.19,-1.74,2.06,2.06,2.06
23.22,4.35,2.29,4.35,2.30,-2.30,-2.21,-1.79,2.05,2.05,2.05
23.45,4.36,2.32,4.36,2.32,-2.31,-2.23,-1.84,2.04,2.05,2.04
23.69,4.37,2.33,4.37,2.33,-2.33,-2.25,-1.90,2.04,2.04,2.03
23.92,4.38,2.35,4.37,2.34,-2.34,-2.27,-1.95,2.03,2.03,2.03
24.16,4.38,2.35,4.38,2.36,-2.36,-2.29,-2.00,2.02,2.02,2.02
24.40,4.39,2.37,4.39,2.37,-2.37,-2.31,-2.06,2.01,2.02,2.02
24.65,4.40,2.38,4.40,2.38,-2.39,-2.32,-2.11,2.01,2.01,2.01
24.89,4.41,2.40,4.41,2.40,-2.40,-2.34,-2.17,2.01,2.01,2.01
25.14,4.42,2.42,4.42,2.42,-2.42,-2.36,-2.23,2.00,2.00,2.00
25.39,4.43,2.44,4.43,2.43,-2.43,-2.38,-2.28,2.00,2.00,1.99
25.65,4.44,2.44,4.44,2.45,-2.44,-2.39,-2.34,1.99,1.99,1.99
25.91,4.45,2.46,4.45,2.46,-2.46,-2.41,-2.40,1.99,1.99,1.98
26.16,4.46,2.47,4.45,2.47,-2.47,-2.42,-2.46,1.99,1.98,1.98
26.43,4.46,2.47,4.46,2.48,-2.48,-2.44,-2.51,1.97,1.98,1.98
26.69,4.47,2.49,4.47,2.49,-2.50,-2.45,-2.57,1.97,1.97,1.97
26.96,4.48,2.50,4.48,2.51,-2.51,-2.47,-2.62,1.97,1.97,1.97
27.23,4.49,2.52,4.49,2.52,-2.52,-2.48,-2.68,1.97,1.97,1.96
27.50,4.50,2.53,4.49,2.53,-2.53,-2.50,-2.73,1.97,1.96,1.96
27.77,4.50,2.54,4.50,2.54,-2.54,-2.51,-2.78,1.96,1.96,1.96
28.05,4.51,2.55,4.51,2.55,-2.55,-2.52,-2.83,1.95,1.95,1.95
28.33,4.52,2.56,4.51,2.56,-2.56,-2.54,-2.88,1.95,1.95,1.95
28.62,4.52,2.56,4.52,2.57,-2.57,-2.55,-2.92,1.95,1.95,1.95
28.90,4.53,2.58,4.53,2.58,-2.58,-2.56,-2.96,1.95,1.95,1.94
29.19,4.54,2.59,4.53,2.59,-2.59,-2.57,-3.00,1.95,1.94,1.94
29.48,4.54,2.59,4.54,2.60,-2.60,-2.58,-3.04,1.94,1.94,1.94
29.78,4.55,2.60,4.55,2.61,-2.61,-2.59,-3.07,1.94,1.94,1.94
30.08,4.56,2.61,4.56,2.62,-2.62,-2.60,-3.09,1.94,1.94,1.94
30.38,4.57,2.63,4.56,2.63,-2.63,-2.61,-3.12,1.94,1.94,1.93
30.68,4.57,2.63,4.57,2.64,-2.64,-2.62,-3.14,1.93,1.93,1.93
30.99,4.58,2.64,4.58,2.65,-2.65,-2.63,-3.15,1.93,1.93,1.93
31.30,4.59,2.65,4.59,2.66,-2.66,-2.64,-3.17,1.93,1.93,1.93
31.61,4.60,2.67,4.60,2.67,-2.67,-2.65,-3.17,1.93,1.93,1.92
31.93,4.61,2.68,4.60,2.68,-2.68,-2.66,-3.18,1.93,1.92,1.92
32.24,4.61,2.69,4.61,2.69,-2.69,-2.66,-3.18,1.91,1.92,1.92
32.57,4.62,2.70,4.62,2.70,-2.70,-2.67,-3.17,1.91,1.91,1.91
32.89,4.63,2.71,4.62,2.71,-2.71,-2.68,-3.16,1.92,1.91,1.91
33.22,4.63,2.71,4.63,2.72,-2.72,-2.68,-3.15,1.91,1.91,1.91
33.55,4.64,2.73,4.63,2.73,-2.73,-2.69,-3.14,1.91,1.91,1.90
33.89,4.64,2.73,4.64,2.73,-2.73,-2.69,-3.12,1.90,1.90,1.90
34.23,4.64,2.73,4.64,2.74,-2.74,-2.70,-3.10,1.90,1.90,1.90
34.57,4.64,2.74,4.64,2.74,-2.74,-2.70,-3.08,1.89,1.89,1.89
34.92,4.64,2.74,4.64,2.74,-2.75,-2.71,-3.05,1.89,1.89,1.89
35.27,4.64,2.74,4.64,2.75,-2.75,-2.71,-3.03,1.89,1.89,1.89
35.62,4.64,2.75,4.64,2.75,-2.75,-2.71,-3.00,1.89,1.89,1.88
35.97,4.64,2.75,4.63,2.75,-2.75,-2.72,-2.97,1.89,1.89,1.88
36.33,4.63,2.74,4.63,2.75,-2.75,-2.72,-2.94,1.88,1.88,1.88
36.70,4.63,2.74,4.62,2.74,-2.75,-2.72,-2.91,1.88,1.88,1.88
37.06,4.62,2.74,4.62,2.74,-2.74,-2.72,-2.88,1.87,1.87,1.88
37.43,4.62,2.74,4.62,2.74,-2.74,-2.73,-2.85,1.87,1.87,1.87
37.81,4.62,2.74,4.62,2.74,-2.75,-2.73,-2.82,1.87,1.87,1.87
38.19,4.62,2.74,4.62,2.75,-2.75,-2.73,-2.79,1.87,1.87,1.87
38.57,4.62,2.75,4.62,2.75,-2.75,-2.73,-2.76,1.86,1.86,1.86
38.95,4.62,2.76,4.62,2.76,-2.76,-2.73,-2.73,1.86,1.86,1.86
39.34,4.62,2.76,4.62,2.76,-2.76,-2.73,-2.70,1.85,1.85,1.85
39.74,4.62,2.76,4.62,2.77,-2.77,-2.73,-2.68,1.85,1.85,1.85
40.14,4.62,2.77,4.62,2.77,-2.77,-2.73,-2.65,1.85,1.85,1.84
40.54,4.62,2.77,4.62,2.77,-2.77,-2.73,-2.63,1.84,1.84,1.84
40.94,4.62,2.77,4.62,2.78,-2.77,-2.73,-2.61,1.84,1.84,1.84
41.35,4.62,2.77,4.62,2.77,-2.78,-2.72,-2.59,1.84,1.84,1.84
41.76,4.62,2.77,4.62,2.78,-2.77,-2.72,-2.57,1.84,1.84,1.84
42.18,4.62,2.77,4.62,2.77,-2.77,-2.72,-2.55,1.84,1.84,1.84
42.60,4.62,2.77,4.62,2.77,-2.77,-2.72,-2.54,1.85,1.85,1.84
43.03,4.62,2.76,4.62,2.77,-2.77,-2.72,-2.53,1.85,1.85,1.85
43.46,4.62,2.76,4.62,2.77,-2.77,-2.72,-2.52,1.85,1.85,1.85
43.90,4.62,2.76,4.62,2.76,-2.77,-2.71,-2.51,1.85,1.85,1.85
44.33,4.62,2.76,4.62,2.76,-2.76,-2.71,-2.50,1.85,1.85,1.85
44.78,4.62,2.76,4.62,2.76,-2.76,-2.71,-2.50,1.85,1.85,1.85
45.23,4.62,2.76,4.62,2.76,-2.76,-2.70,-2.49,1.85,1.85,1.85
45.68,4.62,2.76,4.62,2.76,-2.76,-2.70,-2.49,1.85,1.85,1.85
46.13,4.62,2.76,4.62,2.76,-2.77,-2.70,-2.49,1.85,1.85,1.85
46.60,4.62,2.76,4.62,2.77,-2.77,-2.69,-2.50,1.85,1.85,1.85
47.06,4.62,2.76,4.62,2.77,-2.77,-2.69,-2.50,1.85,1.85,1.85
47.53,4.62,2.77,4.62,2.77,-2.77,-2.69,-2.51,1.85,1.85,1.84
48.01,4.62,2.77,4.62,2.77,-2.77,-2.68,-2.52,1.85,1.85,1.84
48.49,4.62,2.77,4.62,2.78,-2.77,-2.68,-2.53,1.84,1.84,1.84
48.97,4.62,2.77,4.62,2.77,-2.77,-2.67,-2.54,1.84,1.84,1.84
49.46,4.62,2.77,4.62,2.77,-2.78,-2.67,-2.55,1.84,1.84,1.84
49.96,4.62,2.77,4.62,2.78,-2.78,-2.67,-2.56,1.84,1.84,1.84
50.46,4.62,2.77,4.62,2.78,-2.78,-2.66,-2.58,1.84,1.84,1.84
50.96,4.63,2.78,4.62,2.78,-2.78,-2.66,-2.60,1.85,1.84,1.84
51.47,4.63,2.77,4.63,2.78,-2.78,-2.65,-2.61,1.85,1.85,1.85
51.99,4.64,2.78,4.64,2.78,-2.78,-2.65,-2.63,1.85,1.85,1.85
52.51,4.64,2.78,4.64,2.78,-2.78,-2.64,-2.65,1.86,1.85,1.85
53.03,4.64,2.78,4.64,2.78,-2.78,-2.64,-2.67,1.86,1.86,1.85
53.56,4.63,2.77,4.63,2.77,-2.78,-2.63,-2.69,1.85,1.85,1.85
54.10,4.63,2.76,4.62,2.77,-2.77,-2.63,-2.71,1.86,1.86,1.86
54.64,4.62,2.75,4.62,2.76,-2.76,-2.62,-2.73,1.86,1.86,1.86
55.18,4.62,2.75,4.61,2.75,-2.75,-2.62,-2.75,1.87,1.86,1.86
55.74,4.61,2.74,4.60,2.74,-2.74,-2.61,-2.77,1.87,1.87,1.86
56.29,4.59,2.71,4.59,2.72,-2.72,-2.61,-2.78,1.86,1.87,1.87
56.86,4.58,2.70,4.58,2.71,-2.71,-2.60,-2.80,1.87,1.87,1.87
57.42,4.57,2.69,4.56,2.69,-2.69,-2.59,-2.81,1.88,1.88,1.87
58.00,4.55,2.66,4.55,2.67,-2.67,-2.59,-2.83,1.88,1.88,1.88
58.58,4.53,2.64,4.53,2.65,-2.64,-2.58,-2.84,1.88,1.88,1.88
59.16,4.51,2.62,4.51,2.62,-2.62,-2.58,-2.85,1.88,1.88,1.88
59.76,4.49,2.60,4.49,2.60,-2.60,-2.57,-2.85,1.89,1.89,1.89
60.35,4.47,2.57,4.47,2.58,-2.58,-2.56,-2.86,1.89,1.89,1.89
60.96,4.45,2.56,4.45,2.55,-2.55,-2.56,-2.86,1.89,1.89,1.89
61.57,4.43,2.54,4.42,2.53,-2.53,-2.55,-2.86,1.89,1.89,1.89
62.18,4.40,2.50,4.40,2.51,-2.51,-2.55,-2.86,1.89,1.89,1.89
62.80,4.39,2.49,4.38,2.49,-2.49,-2.54,-2.85,1.90,1.89,1.89
63.43,4.37,2.47,4.37,2.47,-2.47,-2.53,-2.84,1.90,1.89,1.89
64.07,4.35,2.46,4.35,2.45,-2.45,-2.53,-2.83,1.89,1.89,1.89
64.71,4.33,2.43,4.33,2.43,-2.44,-2.52,-2.82,1.89,1.89,1.89
65.35,4.31,2.41,4.31,2.42,-2.42,-2.51,-2.80,1.89,1.89,1.89
66.01,4.30,2.40,4.30,2.40,-2.41,-2.51,-2.79,1.89,1.89,1.89
66.67,4.29,2.39,4.28,2.39,-2.39,-2.50,-2.77,1.89,1.89,1.89
67.33,4.28,2.38,4.28,2.38,-2.39,-2.50,-2.74,1.89,1.89,1.89
68.01,4.27,2.37,4.27,2.38,-2.38,-2.49,-2.72,1.89,1.89,1.89
68.69,4.27,2.37,4.27,2.37,-2.38,-2.48,-2.69,1.89,1.89,1.89
69.37,4.27,2.37,4.27,2.38,-2.38,-2.48,-2.67,1.89,1.89,1.89
70.07,4.27,2.37,4.27,2.38,-2.38,-2.47,-2.64,1.89,1.89,1.89
70.77,4.28,2.38,4.27,2.38,-2.38,-2.46,-2.61,1.90,1.90,1.89
71.48,4.28,2.37,4.28,2.38,-2.38,-2.45,-2.58,1.90,1.90,1.90
72.19,4.29,2.38,4.28,2.38,-2.38,-2.45,-2.55,1.91,1.90,1.90
72.91,4.29,2.38,4.29,2.38,-2.38,-2.44,-2.52,1.91,1.91,1.90
73.64,4.29,2.38,4.29,2.38,-2.38,-2.43,-2.48,1.91,1.91,1.90
74.38,4.29,2.37,4.29,2.38,-2.38,-2.43,-2.45,1.91,1.91,1.91
75.12,4.29,2.37,4.29,2.37,-2.37,-2.42,-2.42,1.91,1.91,1.91
75.87,4.29,2.36,4.29,2.37,-2.37,-2.41,-2.39,1.92,1.92,1.92
76.63,4.29,2.36,4.29,2.36,-2.37,-2.41,-2.36,1.92,1.92,1.92
77.40,4.29,2.36,4.29,2.36,-2.36,-2.40,-2.33,1.93,1.93,1.92
78.17,4.29,2.35,4.29,2.36,-2.36,-2.39,-2.30,1.93,1.93,1.93
78.95,4.29,2.35,4.29,2.35,-2.35,-2.38,-2.27,1.93,1.93,1.93
79.74,4.29,2.35,4.29,2.35,-2.35,-2.38,-2.25,1.94,1.94,1.93
80.54,4.29,2.34,4.29,2.35,-2.35,-2.37,-2.22,1.94,1.94,1.94
81.35,4.29,2.34,4.29,2.35,-2.35,-2.36,-2.20,1.94,1.94,1.94
82.16,4.29,2.34,4.29,2.34,-2.34,-2.35,-2.17,1.94,1.94,1.94
82.98,4.29,2.34,4.29,2.34,-2.34,-2.34,-2.15,1.94,1.94,1.94
83.81,4.29,2.34,4.29,2.34,-2.34,-2.34,-2.13,1.95,1.95,1.94
84.65,4.29,2.33,4.29,2.34,-2.34,-2.33,-2.11,1.95,1.95,1.95
85.50,4.29,2.33,4.29,2.34,-2.34,-2.32,-2.09,1.95,1.95,1.95
86.35,4.29,2.33,4.29,2.33,-2.34,-2.31,-2.08,1.95,1.95,1.95
87.22,4.29,2.33,4.29,2.33,-2.33,-2.30,-2.06,1.95,1.95,1.95
88.09,4.29,2.33,4.29,2.33,-2.33,-2.30,-2.05,1.95,1.95,1.95
88.97,4.29,2.33,4.29,2.33,-2.33,-2.29,-2.04,1.95,1.95,1.95
89.86,4.29,2.33,4.29,2.33,-2.33,-2.28,-2.03,1.95,1.95,1.95
90.76,4.29,2.33,4.29,2.33,-2.34,-2.27,-2.02,1.95,1.95,1.95
91.66,4.29,2.33,4.29,2.34,-2.34,-2.26,-2.01,1.95,1.95,1.95
92.58,4.29,2.33,4.29,2.34,-2.34,-2.25,-2.01,1.95,1.95,1.95
93.51,4.30,2.34,4.29,2.34,-2.34,-2.24,-2.01,1.95,1.95,1.95
94.44,4.30,2.34,4.30,2.35,-2.35,-2.24,-2.00,1.95,1.95,1.95
95.39,4.30,2.34,4.30,2.35,-2.35,-2.23,-2.00,1.95,1.95,1.95
96.34,4.31,2.35,4.30,2.35,-2.35,-2.22,-2.00,1.96,1.96,1.95
97.30,4.31,2.34,4.30,2.35,-2.34,-2.21,-2.01,1.97,1.96,1.96
98.28,4.30,2.33,4.30,2.34,-2.33,-2.20,-2.01,1.97,1.97,1.96
99.26,4.29,2.32,4.28,2.32,-2.32,-2.19,-2.01,1.97,1.96,1.96
100.25,4.27,2.30,4.26,2.30,-2.30,-2.18,-2.02,1.96,1.96,1.96
101.25,4.24,2.27,4.24,2.28,-2.28,-2.17,-2.03,1.95,1.96,1.96
102.27,4.22,2.25,4.22,2.26,-2.26,-2.16,-2.03,1.96,1.96,1.96
103.29,4.20,2.23,4.20,2.23,-2.23,-2.15,-2.04,1.97,1.97,1.96
104.32,4.18,2.20,4.17,2.21,-2.20,-2.14,-2.05,1.98,1.97,1.97
105.37,4.15,2.18,4.14,2.17,-2.17,-2.13,-2.06,1.98,1.98,1.97
106.42,4.11,2.13,4.11,2.13,-2.13,-2.12,-2.07,1.98,1.98,1.97
107.48,4.08,2.09,4.07,2.10,-2.09,-2.11,-2.08,1.98,1.98,1.98
108.56,4.04,2.05,4.04,2.06,-2.06,-2.10,-2.09,1.98,1.98,1.98
109.64,4.01,2.02,4.01,2.02,-2.03,-2.09,-2.10,1.98,1.98,1.98
110.74,3.98,1.99,3.98,2.00,-2.00,-2.08,-2.10,1.98,1.98,1.98
111.85,3.96,1.97,3.96,1.97,-1.98,-2.07,-2.11,1.98,1.98,1.98
112.97,3.95,1.95,3.94,1.96,-1.97,-2.06,-2.12,1.98,1.98,1.99
114.10,3.94,1.94,3.94,1.95,-1.96,-2.05,-2.13,1.98,1.99,1.99
115.24,3.95,1.95,3.95,1.95,-1.95,-2.04,-2.13,1.99,1.99,1.99
116.39,3.96,1.96,3.95,1.96,-1.95,-2.03,-2.14,2.00,2.00,1.99
117.55,3.96,1.95,3.96,1.96,-1.96,-2.01,-2.14,2.00,2.00,2.00
118.73,3.97,1.96,3.96,1.96,-1.96,-2.00,-2.14,2.01,2.00,2.00
119.92,3.97,1.96,3.97,1.96,-1.97,-1.99,-2.14,2.00,2.00,2.00
121.12,3.97,1.96,3.97,1.97,-1.97,-1.98,-2.14,2.00,2.00,2.00
122.33,3.98,1.96,3.98,1.97,-1.97,-1.97,-2.13,2.01,2.01,2.01
123.55,3.99,1.97,3.98,1.97,-1.97,-1.96,-2.13,2.02,2.02,2.01
124.79,3.99,1.96,3.98,1.96,-1.96,-1.94,-2.12,2.03,2.02,2.02
126.03,3.98,1.95,3.98,1.96,-1.95,-1.93,-2.11,2.03,2.03,2.02
127.29,3.97,1.93,3.97,1.94,-1.94,-1.92,-2.10,2.03,2.03,2.03
128.57,3.96,1.92,3.95,1.92,-1.92,-1.91,-2.09,2.04,2.03,2.03
129.85,3.93,1.89,3.93,1.90,-1.89,-1.90,-2.07,2.04,2.04,2.03
131.15,3.90,1.86,3.90,1.87,-1.86,-1.88,-2.05,2.03,2.04,2.03
132.46,3.88,1.83,3.87,1.83,-1.83,-1.87,-2.03,2.05,2.04,2.04
133.79,3.84,1.80,3.84,1.80,-1.80,-1.86,-2.01,2.04,2.04,2.04
135.12,3.80,1.75,3.80,1.76,-1.76,-1.84,-1.99,2.04,2.04,2.04
136.48,3.77,1.72,3.76,1.72,-1.73,-1.83,-1.96,2.04,2.04,2.04
137.84,3.73,1.68,3.73,1.69,-1.69,-1.82,-1.94,2.04,2.04,2.04
139.22,3.71,1.66,3.70,1.66,-1.66,-1.81,-1.91,2.05,2.04,2.04
140.61,3.68,1.63,3.68,1.63,-1.63,-1.79,-1.89,2.05,2.05,2.04
142.02,3.65,1.59,3.65,1.60,-1.61,-1.78,-1.86,2.04,2.05,2.05
143.44,3.64,1.58,3.63,1.58,-1.59,-1.76,-1.83,2.05,2.04,2.05
144.87,3.62,1.56,3.62,1.56,-1.57,-1.75,-1.80,2.04,2.05,2.05
146.32,3.62,1.55,3.62,1.56,-1.57,-1.74,-1.77,2.05,2.05,2.06
147.78,3.62,1.55,3.62,1.56,-1.56,-1.72,-1.74,2.06,2.06,2.06
149.26,3.63,1.56,3.63,1.56,-1.56,-1.71,-1.71,2.07,2.07,2.06
150.75,3.64,1.56,3.63,1.57,-1.56,-1.69,-1.68,2.08,2.08,2.07
152.26,3.64,1.56,3.64,1.57,-1.56,-1.68,-1.65,2.08,2.08,2.07
153.78,3.64,1.56,3.64,1.56,-1.56,-1.66,-1.62,2.08,2.08,2.07
155.32,3.64,1.55,3.64,1.56,-1.56,-1.65,-1.59,2.08,2.08,2.08
156.88,3.64,1.55,3.64,1.56,-1.56,-1.63,-1.56,2.08,2.08,2.08
158.44,3.64,1.55,3.64,1.55,-1.56,-1.62,-1.53,2.08,2.08,2.08
160.03,3.64,1.55,3.64,1.55,-1.55,-1.60,-1.51,2.08,2.08,2.08
161.63,3.64,1.55,3.64,1.55,-1.55,-1.59,-1.48,2.09,2.09,2.08
163.24,3.64,1.54,3.64,1.55,-1.55,-1.57,-1.45,2.09,2.09,2.09
164.88,3.64,1.54,3.64,1.55,-1.55,-1.56,-1.43,2.09,2.09,2.09
166.53,3.64,1.54,3.64,1.54,-1.54,-1.54,-1.40,2.09,2.09,2.09
168.19,3.64,1.54,3.64,1.54,-1.54,-1.53,-1.38,2.10,2.10,2.09
169.87,3.64,1.53,3.64,1.54,-1.54,-1.51,-1.36,2.10,2.10,2.10
171.57,3.64,1.53,3.64,1.54,-1.54,-1.49,-1.34,2.10,2.10,2.10
173.29,3.64,1.53,3.64,1.53,-1.54,-1.48,-1.32,2.10,2.10,2.10
175.02,3.64,1.53,3.64,1.53,-1.54,-1.46,-1.30,2.10,2.10,2.10
176.77,3.65,1.53,3.64,1.54,-1.54,-1.44,-1.28,2.11,2.10,2.11
178.54,3.65,1.53,3.65,1.54,-1.54,-1.43,-1.26,2.11,2.11,2.11
180.32,3.66,1.54,3.66,1.54,-1.54,-1.41,-1.25,2.11,2.11,2.11
182.13,3.66,1.54,3.66,1.54,-1.54,-1.39,-1.23,2.11,2.11,2.11
183.95,3.66,1.54,3.66,1.54,-1.54,-1.37,-1.22,2.12,2.12,2.11
185.79,3.65,1.53,3.65,1.54,-1.53,-1.36,-1.20,2.12,2.12,2.11
187.65,3.64,1.52,3.64,1.52,-1.52,-1.34,-1.19,2.12,2.12,2.11
189.52,3.62,1.50,3.62,1.51,-1.50,-1.32,-1.18,2.11,2.11,2.11
191.42,3.60,1.48,3.59,1.48,-1.48,-1.30,-1.17,2.12,2.11,2.11
193.33,3.57,1.45,3.57,1.46,-1.45,-1.29,-1.16,2.11,2.11,2.11
195.27,3.54,1.42,3.54,1.43,-1.42,-1.27,-1.15,2.11,2.11,2.11
197.22,3.51,1.39,3.51,1.39,-1.39,-1.25,-1.14,2.12,2.12,2.11
199.19,3.48,1.36,3.47,1.36,-1.36,-1.23,-1.13,2.12,2.12,2.11
201.18,3.44,1.31,3.44,1.32,-1.32,-1.21,-1.13,2.12,2.12,2.12
203.19,3.41,1.28,3.41,1.28,-1.28,-1.19,-1.12,2.12,2.12,2.12
205.23,3.38,1.24,3.38,1.25,-1.25,-1.18,-1.11,2.12,2.13,2.13
207.28,3.36,1.22,3.36,1.22,-1.22,-1.16,-1.11,2.13,2.13,2.13
209.35,3.34,1.20,3.33,1.20,-1.20,-1.14,-1.10,2.13,2.13,2.13
211.44,3.32,1.17,3.32,1.18,-1.19,-1.12,-1.10,2.13,2.13,2.14
213.56,3.30,1.15,3.31,1.16,-1.18,-1.10,-1.09,2.12,2.13,2.14
215.69,3.31,1.16,3.31,1.16,-1.17,-1.08,-1.09,2.13,2.13,2.14
217.85,3.32,1.17,3.32,1.17,-1.17,-1.06,-1.08,2.14,2.14,2.14
220.03,3.33,1.17,3.33,1.18,-1.17,-1.04,-1.07,2.16,2.16,2.15
222.23,3.34,1.18,3.33,1.18,-1.17,-1.02,-1.07,2.17,2.17,2.15
224.45,3.33,1.17,3.33,1.17,-1.16,-1.00,-1.06,2.17,2.17,2.15
226.70,3.32,1.16,3.31,1.16,-1.15,-0.98,-1.06,2.17,2.16,2.15
228.96,3.29,1.12,3.29,1.13,-1.13,-0.96,-1.05,2.15,2.16,2.16
231.25,3.27,1.10,3.27,1.11,-1.11,-0.94,-1.04,2.16,2.16,2.16
233.57,3.25,1.08,3.24,1.07,-1.08,-0.92,-1.03,2.17,2.16,2.16
235.90,3.21,1.03,3.21,1.04,-1.04,-0.90,-1.02,2.17,2.17,2.17
238.26,3.18,1.00,3.18,1.00,-1.00,-0.88,-1.01,2.18,2.18,2.17
240.64,3.15,0.96,3.14,0.96,-0.96,-0.85,-1.00,2.19,2.18,2.18
243.05,3.11,0.91,3.11,0.92,-0.92,-0.83,-0.99,2.19,2.19,2.19
245.48,3.08,0.87,3.07,0.88,-0.88,-0.81,-0.97,2.19,2.19,2.20
247.93,3.04,0.83,3.04,0.84,-0.85,-0.79,-0.96,2.19,2.20,2.20
250.41,3.03,0.81,3.02,0.81,-0.82,-0.77,-0.94,2.21,2.20,2.21
252.92,3.01,0.78,3.01,0.79,-0.79,-0.75,-0.92,2.21,2.21,2.22
255.45,3.00,0.76,3.00,0.77,-0.77,-0.72,-0.90,2.23,2.23,2.23
258.00,2.99,0.75,2.99,0.75,-0.75,-0.70,-0.88,2.23,2.23,2.23
260.58,2.98,0.73,2.98,0.74,-0.74,-0.68,-0.86,2.24,2.24,2.24
263.19,2.97,0.72,2.96,0.72,-0.72,-0.66,-0.84,2.25,2.25,2.24
265.82,2.95,0.70,2.95,0.70,-0.70,-0.64,-0.81,2.25,2.25,2.24
268.48,2.93,0.67,2.93,0.68,-0.67,-0.61,-0.78,2.26,2.26,2.25
271.16,2.91,0.65,2.90,0.65,-0.64,-0.59,-0.76,2.26,2.26,2.25
273.87,2.87,0.61,2.87,0.62,-0.61,-0.57,-0.73,2.25,2.26,2.25
276.61,2.84,0.57,2.84,0.58,-0.58,-0.54,-0.70,2.26,2.26,2.26
279.38,2.81,0.54,2.80,0.54,-0.55,-0.52,-0.67,2.26,2.26,2.26
282.17,2.78,0.50,2.78,0.51,-0.51,-0.50,-0.64,2.26,2.26,2.27
284.99,2.75,0.47,2.75,0.48,-0.48,-0.47,-0.61,2.26,2.27,2.27
287.84,2.73,0.45,2.72,0.45,-0.45,-0.45,-0.58,2.27,2.27,2.27
290.72,2.70,0.42,2.70,0.43,-0.43,-0.42,-0.54,2.27,2.27,2.27
293.63,2.68,0.40,2.67,0.40,-0.40,-0.40,-0.51,2.28,2.27,2.27
296.57,2.65,0.37,2.65,0.37,-0.37,-0.38,-0.47,2.27,2.27,2.27
299.53,2.63,0.34,2.63,0.35,-0.35,-0.35,-0.44,2.28,2.28,2.28
302.53,2.61,0.32,2.61,0.32,-0.33,-0.33,-0.40,2.28,2.28,2.28
305.55,2.59,0.30,2.59,0.30,-0.30,-0.30,-0.37,2.29,2.28,2.28
308.61,2.57,0.27,2.56,0.27,-0.28,-0.28,-0.33,2.29,2.29,2.29
311.69,2.54,0.24,2.54,0.25,-0.25,-0.25,-0.30,2.29,2.29,2.29
314.81,2.52,0.21,2.52,0.22,-0.22,-0.23,-0.26,2.30,2.30,2.30
317.96,2.50,0.19,2.49,0.19,-0.18,-0.20,-0.22,2.31,2.31,2.30
321.14,2.47,0.15,2.46,0.16,-0.15,-0.18,-0.19,2.32,2.32,2.31
324.35,2.43,0.11,2.43,0.12,-0.11,-0.15,-0.15,2.32,2.32,2.31
327.59,2.39,0.07,2.39,0.07,-0.07,-0.12,-0.11,2.32,2.32,2.31
330.87,2.35,0.02,2.35,0.02,-0.02,-0.10,-0.07,2.32,2.32,2.32
334.18,2.31,-0.03,2.31,-0.02,0.02,-0.07,-0.04,2.32,2.32,2.33
337.52,2.27,-0.07,2.27,-0.07,0.05,-0.04,0.00,2.32,2.32,2.33
340.90,2.24,-0.11,2.24,-0.10,0.09,-0.02,0.04,2.33,2.33,2.34
344.30,2.21,-0.14,2.21,-0.13,0.12,0.01,0.08,2.33,2.33,2.34
347.75,2.19,-0.16,2.19,-0.16,0.16,0.04,0.11,2.34,2.34,2.34
351.23,2.17,-0.18,2.17,-0.18,0.19,0.06,0.15,2.35,2.35,2.34
354.74,2.15,-0.21,2.14,-0.21,0.22,0.09,0.19,2.37,2.36,2.35
358.28,2.11,-0.25,2.11,-0.24,0.25,0.12,0.23,2.36,2.36,2.35
361.87,2.07,-0.29,2.07,-0.28,0.29,0.15,0.27,2.36,2.36,2.35
365.49,2.03,-0.33,2.03,-0.32,0.33,0.17,0.31,2.35,2.35,2.35
369.14,1.99,-0.37,1.99,-0.37,0.36,0.20,0.35,2.35,2.35,2.35
372.83,1.95,-0.41,1.95,-0.41,0.40,0.23,0.39,2.35,2.35,2.35
376.56,1.91,-0.46,1.91,-0.45,0.44,0.26,0.42,2.34,2.35,2.36
380.33,1.89,-0.48,1.88,-0.48,0.47,0.29,0.46,2.36,2.35,2.36
384.13,1.86,-0.51,1.86,-0.51,0.50,0.32,0.50,2.36,2.36,2.36
387.97,1.84,-0.53,1.84,-0.53,0.53,0.35,0.54,2.37,2.37,2.36
391.85,1.82,-0.56,1.82,-0.55,0.56,0.38,0.58,2.38,2.38,2.37
395.77,1.80,-0.58,1.79,-0.58,0.59,0.41,0.62,2.39,2.38,2.37
399.73,1.77,-0.62,1.76,-0.62,0.62,0.44,0.66,2.39,2.39,2.38
403.72,1.73,-0.66,1.73,-0.65,0.65,0.47,0.70,2.38,2.39,2.38
407.76,1.70,-0.70,1.70,-0.69,0.69,0.50,0.74,2.39,2.39,2.39
411.84,1.67,-0.73,1.67,-0.73,0.72,0.53,0.78,2.39,2.39,2.39
415.96,1.64,-0.77,1.64,-0.76,0.76,0.56,0.82,2.40,2.40,2.40
420.12,1.61,-0.80,1.61,-0.79,0.79,0.59,0.86,2.40,2.40,2.40
424.32,1.58,-0.83,1.58,-0.83,0.82,0.62,0.90,2.40,2.41,2.40
428.56,1.56,-0.86,1.55,-0.86,0.85,0.65,0.94,2.41,2.41,2.41
432.85,1.53,-0.89,1.53,-0.89,0.88,0.69,0.98,2.41,2.41,2.41
437.18,1.50,-0.92,1.50,-0.91,0.91,0.72,1.01,2.41,2.41,2.41
441.55,1.48,-0.94,1.48,-0.94,0.94,0.75,1.05,2.41,2.41,2.41
445.96,1.46,-0.96,1.45,-0.96,0.97,0.78,1.09,2.42,2.42,2.41
450.42,1.42,-1.00,1.42,-0.99,0.99,0.81,1.12,2.41,2.42,2.41
454.93,1.40,-1.02,1.39,-1.02,1.02,0.85,1.16,2.42,2.41,2.41
459.48,1.36,-1.06,1.36,-1.05,1.05,0.88,1.19,2.41,2.41,2.41
464.07,1.33,-1.09,1.33,-1.08,1.08,0.91,1.22,2.41,2.41,2.41
468.71,1.30,-1.12,1.30,-1.12,1.11,0.95,1.25,2.41,2.41,2.41
473.40,1.27,-1.15,1.27,-1.15,1.14,0.98,1.28,2.41,2.41,2.41
478.13,1.25,-1.18,1.24,-1.17,1.17,1.01,1.31,2.42,2.42,2.42
482.91,1.22,-1.21,1.22,-1.20,1.20,1.05,1.34,2.42,2.42,2.42
487.74,1.20,-1.23,1.19,-1.23,1.23,1.08,1.37,2.43,2.42,2.42
492.62,1.17,-1.26,1.17,-1.26,1.26,1.12,1.39,2.42,2.43,2.42
497.55,1.15,-1.29,1.14,-1.28,1.29,1.15,1.42,2.43,2.43,2.43
502.52,1.12,-1.32,1.12,-1.31,1.32,1.19,1.44,2.44,2.44,2.43
507.55,1.09,-1.35,1.09,-1.35,1.35,1.22,1.46,2.44,2.44,2.43
512.62,1.06,-1.38,1.05,-1.38,1.38,1.26,1.48,2.44,2.44,2.43
517.75,1.02,-1.43,1.02,-1.42,1.42,1.29,1.50,2.43,2.44,2.44
522.93,0.99,-1.46,0.99,-1.45,1.45,1.33,1.52,2.43,2.44,2.44
528.16,0.96,-1.49,0.96,-1.49,1.48,1.36,1.53,2.43,2.44,2.44
533.44,0.94,-1.51,0.93,-1.51,1.51,1.40,1.55,2.44,2.44,2.44
538.77,0.91,-1.55,0.91,-1.54,1.53,1.43,1.56,2.44,2.44,2.45
544.16,0.89,-1.57,0.89,-1.56,1.56,1.47,1.58,2.45,2.45,2.45
549.60,0.87,-1.59,0.86,-1.59,1.59,1.50,1.59,2.46,2.46,2.45
