frequency,raw,error,smoothed,error_smoothed,equalization,parametric_eq,fixed_band_eq,equalized_raw,equalized_smoothed,target
20.00,-0.35,-4.31,-0.35,-4.31,4.32,4.05,1.84,3.97,3.97,3.96
20.20,-0.32,-4.27,-0.32,-4.27,4.27,4.05,1.89,3.96,3.96,3.95
20.40,-0.30,-4.25,-0.29,-4.24,4.24,4.04,1.95,3.94,3.94,3.95
20.61,-0.27,-4.21,-0.27,-4.21,4.20,4.03,2.00,3.93,3.94,3.94
20.81,-0.24,-4.17,-0.24,-4.17,4.17,4.02,2.06,3.93,3.93,3.93
21.02,-0.22,-4.14,-0.22,-4.14,4.14,4.02,2.12,3.92,3.92,3.92
21.23,-0.20,-4.12,-0.20,-4.12,4.11,4.01,2.18,3.92,3.92,3.92
21.44,-0.18,-4.11,-0.17,-4.10,4.09,4.00,2.24,3.91,3.92,3.93
21.66,-0.15,-4.07,-0.15,-4.07,4.07,3.99,2.30,3.92,3.92,3.92
21.87,-0.13,-4.05,-0.13,-4.05,4.05,3.98,2.37,3.93,3.92,3.92
22.09,-0.12,-4.03,-0.12,-4.03,4.04,3.97,2.43,3.92,3.92,3.91
22.31,-0.12,-4.02,-0.12,-4.02,4.03,3.96,2.50,3.91,3.91,3.91
22.54,-0.12,-4.01,-0.12,-4.02,4.02,3.95,2.57,3.90,3.90,3.90
22.76,-0.12,-4.02,-0.12,-4.02,4.01,3.94,2.64,3.90,3.90,3.91
22.99,-0.12,-4.02,-0.11,-4.02,4.01,3.93,2.72,3.89,3.89,3.91
23.22,-0.11,-4.00,-0.11,-4.01,4.01,3.91,2.79,3.90,3.89,3.90
23.45,-0.11,-4.00,-0.10,-4.00,4.00,3.90,2.87,3.89,3.90,3.90
23.69,-0.10,-3.99,-0.10,-3.99,4.00,3.89,2.95,3.90,3.90,3.89
23.92,-0.09,-3.98,-0.09,-3.99,3.99,3.88,3.03,3.90,3.90,3.89
24.16,-0.08,-3.98,-0.08,-3.98,3.98,3.87,3.11,3.90,3.90,3.90
24.40,-0.07,-3.98,-0.06,-3.97,3.97,3.86,3.19,3.90,3.90,3.91
24.65,-0.05,-3.96,-0.05,-3.96,3.96,3.84,3.27,3.91,3.91,3.91
24.89,-0.04,-3.95,-0.04,-3.95,3.95,3.83,3.36,3.92,3.92,3.91
25.14,-0.03,-3.93,-0.03,-3.93,3.95,3.82,3.44,3.92,3.92,3.90
25.39,-0.03,-3.93,-0.03,-3.93,3.93,3.81,3.53,3.91,3.91,3.90
25.65,-0.03,-3.93,-0.03,-3.93,3.92,3.80,3.61,3.89,3.89,3.90
25.91,-0.03,-3.93,-0.02,-3.92,3.90,3.78,3.70,3.87,3.88,3.90
26.16,-0.01,-3.90,-0.01,-3.90,3.88,3.77,3.78,3.88,3.87,3.90
26.43,0.01,-3.87,0.02,-3.87,3.86,3.76,3.86,3.88,3.88,3.89
26.69,0.04,-3.84,0.04,-3.84,3.85,3.75,3.95,3.89,3.89,3.89
26.96,0.07,-3.80,0.06,-3.81,3.83,3.73,4.03,3.90,3.89,3.87
27.23,0.07,-3.79,0.07,-3.79,3.81,3.72,4.10,3.88,3.88,3.86
27.50,0.07,-3.79,0.08,-3.79,3.79,3.71,4.18,3.87,3.87,3.86
27.77,0.07,-3.79,0.07,-3.79,3.78,3.70,4.25,3.86,3.86,3.86
28.05,0.07,-3.79,0.07,-3.79,3.78,3.69,4.32,3.85,3.85,3.86
28.33,0.07,-3.79,0.07,-3.78,3.78,3.67,4.39,3.85,3.85,3.86
28.62,0.07,-3.77,0.07,-3.78,3.79,3.66,4.45,3.86,3.86,3.85
28.90,0.07,-3.78,0.07,-3.78,3.79,3.65,4.50,3.86,3.86,3.86
29.19,0.07,-3.78,0.07,-3.78,3.79,3.64,4.55,3.86,3.86,3.85
29.48,0.07,-3.79,0.07,-3.79,3.78,3.63,4.60,3.85,3.85,3.86
29.78,0.07,-3.79,0.07,-3.79,3.77,3.62,4.64,3.85,3.85,3.86
30.08,0.08,-3.79,0.08,-3.78,3.76,3.61,4.67,3.84,3.84,3.87
30.38,0.10,-3.76,0.11,-3.75,3.74,3.59,4.69,3.85,3.85,3.86
30.68,0.13,-3.72,0.13,-3.72,3.73,3.58,4.71,3.86,3.86,3.86
30.99,0.16,-3.68,0.15,-3.69,3.71,3.57,4.72,3.87,3.86,3.84
31.30,0.16,-3.68,0.17,-3.67,3.69,3.56,4.73,3.85,3.86,3.84
31.61,0.17,-3.67,0.17,-3.66,3.67,3.55,4.72,3.84,3.84,3.84
31.93,0.17,-3.66,0.17,-3.66,3.66,3.54,4.71,3.83,3.83,3.83
32.24,0.17,-3.65,0.17,-3.65,3.65,3.53,4.70,3.82,3.82,3.83
32.57,0.17,-3.64,0.17,-3.64,3.64,3.51,4.67,3.81,3.81,3.81
32.89,0.17,-3.63,0.17,-3.63,3.63,3.50,4.64,3.81,3.81,3.80
33.22,0.17,-3.63,0.17,-3.63,3.63,3.49,4.61,3.80,3.80,3.80
33.55,0.17,-3.62,0.17,-3.62,3.62,3.48,4.57,3.80,3.80,3.80
33.89,0.17,-3.62,0.17,-3.62,3.62,3.47,4.52,3.79,3.79,3.79
34.23,0.17,-3.61,0.17,-3.61,3.61,3.45,4.47,3.78,3.78,3.78
34.57,0.17,-3.61,0.17,-3.61,3.60,3.44,4.41,3.78,3.78,3.78
34.92,0.17,-3.59,0.17,-3.60,3.60,3.43,4.35,3.77,3.77,3.77
35.27,0.17,-3.60,0.17,-3.59,3.59,3.42,4.29,3.76,3.76,3.77
35.62,0.17,-3.58,0.17,-3.58,3.58,3.40,4.22,3.75,3.75,3.75
35.97,0.17,-3.56,0.17,-3.57,3.57,3.39,4.16,3.74,3.74,3.74
36.33,0.17,-3.55,0.17,-3.55,3.55,3.38,4.09,3.73,3.73,3.72
36.70,0.17,-3.54,0.17,-3.54,3.54,3.36,4.01,3.71,3.71,3.71
37.06,0.17,-3.52,0.17,-3.52,3.52,3.35,3.94,3.69,3.69,3.70
37.43,0.17,-3.51,0.17,-3.51,3.50,3.33,3.87,3.68,3.68,3.68
37.81,0.17,-3.49,0.17,-3.49,3.48,3.32,3.80,3.66,3.66,3.66
38.19,0.17,-3.46,0.17,-3.46,3.46,3.30,3.72,3.63,3.63,3.63
38.57,0.17,-3.44,0.17,-3.44,3.44,3.28,3.65,3.61,3.61,3.61
38.95,0.17,-3.41,0.17,-3.41,3.41,3.27,3.58,3.59,3.59,3.59
39.34,0.17,-3.39,0.17,-3.39,3.39,3.25,3.51,3.56,3.56,3.56
39.74,0.17,-3.36,0.17,-3.36,3.36,3.23,3.44,3.54,3.54,3.54
40.14,0.17,-3.34,0.17,-3.34,3.34,3.21,3.37,3.51,3.51,3.51
40.54,0.17,-3.31,0.17,-3.31,3.32,3.19,3.31,3.49,3.49,3.49
40.94,0.17,-3.29,0.17,-3.29,3.29,3.17,3.24,3.47,3.47,3.46
41.35,0.17,-3.27,0.17,-3.27,3.27,3.15,3.18,3.44,3.44,3.44
41.76,0.17,-3.25,0.17,-3.25,3.25,3.13,3.12,3.42,3.42,3.42
42.18,0.17,-3.23,0.17,-3.23,3.23,3.11,3.06,3.40,3.40,3.40
42.60,0.17,-3.20,0.17,-3.20,3.20,3.09,3.01,3.38,3.38,3.38
43.03,0.17,-3.18,0.17,-3.18,3.18,3.06,2.95,3.35,3.35,3.35
43.46,0.17,-3.16,0.17,-3.16,3.16,3.04,2.90,3.33,3.33,3.33
43.90,0.17,-3.13,0.17,-3.13,3.13,3.01,2.85,3.31,3.31,3.31
44.33,0.17,-3.11,0.17,-3.11,3.11,2.99,2.80,3.28,3.28,3.28
44.78,0.17,-3.08,0.17,-3.08,3.08,2.96,2.76,3.25,3.25,3.25
45.23,0.17,-3.06,0.17,-3.05,3.05,2.93,2.71,3.22,3.22,3.23
45.68,0.17,-3.02,0.17,-3.02,3.02,2.91,2.67,3.20,3.20,3.19
46.13,0.17,-2.98,0.17,-2.99,2.99,2.88,2.64,3.16,3.16,3.16
46.60,0.17,-2.95,0.17,-2.96,2.96,2.85,2.60,3.13,3.13,3.13
47.06,0.17,-2.93,0.17,-2.92,2.92,2.82,2.57,3.09,3.09,3.10
47.53,0.17,-2.90,0.17,-2.89,2.88,2.79,2.53,3.06,3.06,3.07
48.01,0.17,-2.84,0.17,-2.85,2.84,2.76,2.50,3.02,3.02,3.01
48.49,0.17,-2.81,0.17,-2.81,2.80,2.73,2.47,2.98,2.98,2.98
48.97,0.17,-2.77,0.17,-2.76,2.77,2.69,2.45,2.94,2.94,2.94
49.46,0.17,-2.72,0.17,-2.72,2.73,2.66,2.42,2.90,2.90,2.90
49.96,0.17,-2.67,0.17,-2.68,2.69,2.63,2.40,2.86,2.86,2.85
50.46,0.17,-2.65,0.17,-2.65,2.65,2.60,2.38,2.83,2.83,2.82
50.96,0.17,-2.62,0.17,-2.62,2.62,2.56,2.36,2.79,2.79,2.79
51.47,0.17,-2.59,0.17,-2.58,2.58,2.53,2.34,2.75,2.75,2.76
51.99,0.17,-2.54,0.17,-2.55,2.54,2.49,2.32,2.72,2.72,2.72
52.51,0.17,-2.51,0.17,-2.51,2.51,2.46,2.31,2.68,2.68,2.68
53.03,0.17,-2.48,0.17,-2.47,2.47,2.42,2.29,2.64,2.64,2.65
53.56,0.17,-2.43,0.17,-2.43,2.43,2.39,2.27,2.60,2.60,2.60
54.10,0.17,-2.39,0.17,-2.39,2.39,2.35,2.26,2.56,2.56,2.56
54.64,0.17,-2.35,0.17,-2.35,2.35,2.31,2.25,2.52,2.52,2.52
55.18,0.17,-2.30,0.17,-2.31,2.31,2.28,2.23,2.48,2.48,2.48
55.74,0.17,-2.27,0.17,-2.27,2.27,2.24,2.22,2.44,2.44,2.44
56.29,0.17,-2.24,0.17,-2.24,2.23,2.20,2.20,2.41,2.41,2.41
56.86,0.17,-2.21,0.17,-2.20,2.20,2.16,2.19,2.37,2.37,2.39
57.42,0.17,-2.15,0.17,-2.17,2.17,2.13,2.17,2.34,2.34,2.33
58.00,0.17,-2.14,0.17,-2.14,2.14,2.09,2.16,2.32,2.32,2.31
58.58,0.17,-2.12,0.18,-2.11,2.12,2.05,2.14,2.30,2.30,2.29
59.16,0.17,-2.09,0.18,-2.08,2.10,2.02,2.13,2.28,2.28,2.26
59.76,0.17,-2.05,0.15,-2.07,2.08,1.98,2.11,2.26,2.23,2.23
60.35,0.12,-2.05,0.11,-2.07,2.06,1.94,2.09,2.18,2.17,2.18
60.96,0.04,-2.10,0.08,-2.06,2.03,1.90,2.07,2.08,2.11,2.14
61.57,0.05,-2.04,0.06,-2.03,2.00,1.87,2.04,2.05,2.06,2.09
62.18,0.07,-1.96,0.06,-1.98,1.97,1.83,2.02,2.04,2.02,2.04
62.80,0.07,-1.91,0.07,-1.91,1.93,1.79,2.00,2.00,2.00,1.98
63.43,0.07,-1.86,0.07,-1.86,1.88,1.76,1.97,1.96,1.96,1.94
64.07,0.07,-1.82,0.07,-1.82,1.84,1.72,1.94,1.91,1.91,1.89
64.71,0.07,-1.78,0.07,-1.78,1.78,1.68,1.91,1.86,1.86,1.86
65.35,0.07,-1.74,0.07,-1.74,1.73,1.65,1.88,1.81,1.81,1.81
66.01,0.07,-1.70,0.07,-1.70,1.68,1.61,1.85,1.76,1.76,1.77
66.67,0.07,-1.66,0.07,-1.65,1.64,1.57,1.81,1.71,1.71,1.73
67.33,0.07,-1.60,0.07,-1.60,1.60,1.54,1.78,1.67,1.67,1.67
68.01,0.07,-1.56,0.08,-1.55,1.56,1.50,1.74,1.64,1.65,1.63
68.69,0.09,-1.50,0.09,-1.50,1.53,1.47,1.70,1.62,1.61,1.59
69.37,0.08,-1.46,0.07,-1.47,1.49,1.43,1.66,1.58,1.57,1.55
70.07,0.04,-1.45,0.04,-1.46,1.46,1.40,1.62,1.51,1.50,1.49
70.77,-0.01,-1.46,0.00,-1.45,1.43,1.36,1.58,1.42,1.43,1.45
71.48,-0.03,-1.43,-0.02,-1.43,1.40,1.33,1.54,1.37,1.38,1.41
72.19,-0.03,-1.39,-0.03,-1.39,1.36,1.29,1.50,1.34,1.33,1.36
72.91,-0.03,-1.33,-0.03,-1.34,1.33,1.26,1.46,1.30,1.30,1.30
73.64,-0.03,-1.28,-0.03,-1.29,1.29,1.23,1.42,1.26,1.26,1.26
74.38,-0.03,-1.25,-0.03,-1.25,1.25,1.19,1.37,1.23,1.23,1.22
75.12,-0.03,-1.21,-0.02,-1.20,1.22,1.16,1.33,1.19,1.20,1.18
75.87,-0.03,-1.18,-0.02,-1.17,1.19,1.13,1.29,1.16,1.17,1.15
76.63,-0.03,-1.13,-0.04,-1.14,1.17,1.10,1.24,1.14,1.13,1.10
77.40,-0.07,-1.13,-0.08,-1.14,1.15,1.06,1.20,1.08,1.07,1.07
78.17,-0.13,-1.15,-0.11,-1.14,1.13,1.03,1.16,1.00,1.01,1.03
78.95,-0.15,-1.15,-0.13,-1.13,1.11,1.00,1.12,0.96,0.97,1.00
79.74,-0.13,-1.09,-0.14,-1.10,1.08,0.97,1.07,0.96,0.95,0.97
80.54,-0.12,-1.05,-0.12,-1.06,1.06,0.94,1.03,0.94,0.93,0.93
81.35,-0.12,-1.01,-0.12,-1.02,1.02,0.91,0.99,0.90,0.91,0.90
82.16,-0.12,-0.99,-0.12,-0.98,0.98,0.88,0.95,0.86,0.86,0.87
82.98,-0.12,-0.94,-0.12,-0.94,0.94,0.85,0.91,0.82,0.82,0.82
83.81,-0.12,-0.90,-0.12,-0.90,0.90,0.82,0.87,0.78,0.78,0.79
84.65,-0.12,-0.86,-0.11,-0.86,0.87,0.79,0.83,0.75,0.76,0.75
85.50,-0.11,-0.81,-0.10,-0.81,0.83,0.76,0.79,0.73,0.73,0.71
86.35,-0.10,-0.76,-0.12,-0.78,0.80,0.73,0.75,0.71,0.69,0.67
87.22,-0.14,-0.76,-0.15,-0.78,0.78,0.70,0.71,0.64,0.62,0.63
88.09,-0.22,-0.80,-0.19,-0.77,0.75,0.67,0.68,0.53,0.56,0.58
88.97,-0.22,-0.76,-0.21,-0.76,0.73,0.64,0.64,0.51,0.51,0.54
89.86,-0.21,-0.71,-0.21,-0.71,0.71,0.61,0.60,0.50,0.50,0.50
90.76,-0.21,-0.66,-0.21,-0.66,0.69,0.59,0.57,0.48,0.48,0.46
91.66,-0.21,-0.61,-0.23,-0.64,0.67,0.56,0.53,0.46,0.43,0.40
92.58,-0.28,-0.63,-0.28,-0.63,0.64,0.53,0.49,0.36,0.36,0.36
93.51,-0.34,-0.65,-0.31,-0.62,0.60,0.50,0.46,0.26,0.29,0.31
94.44,-0.33,-0.59,-0.33,-0.59,0.56,0.47,0.43,0.23,0.23,0.27
95.39,-0.31,-0.52,-0.32,-0.53,0.51,0.45,0.39,0.20,0.19,0.21
96.34,-0.31,-0.46,-0.31,-0.47,0.46,0.42,0.36,0.16,0.15,0.16
97.30,-0.32,-0.42,-0.32,-0.41,0.42,0.39,0.32,0.10,0.10,0.10
98.28,-0.33,-0.37,-0.32,-0.36,0.37,0.37,0.29,0.04,0.05,0.04
99.26,-0.33,-0.30,-0.32,-0.29,0.33,0.34,0.26,0.00,0.01,-0.03
100.25,-0.32,-0.23,-0.34,-0.26,0.29,0.31,0.23,-0.03,-0.05,-0.08
101.25,-0.36,-0.23,-0.38,-0.24,0.26,0.29,0.20,-0.10,-0.12,-0.13
102.27,-0.47,-0.28,-0.43,-0.25,0.23,0.26,0.17,-0.24,-0.20,-0.19
103.29,-0.49,-0.24,-0.49,-0.25,0.21,0.23,0.14,-0.27,-0.27,-0.25
104.32,-0.52,-0.22,-0.52,-0.22,0.20,0.21,0.11,-0.31,-0.31,-0.29
105.37,-0.54,-0.18,-0.53,-0.18,0.20,0.18,0.08,-0.34,-0.33,-0.36
106.42,-0.56,-0.15,-0.58,-0.16,0.19,0.16,0.05,-0.37,-0.39,-0.41
107.48,-0.63,-0.15,-0.64,-0.16,0.17,0.13,0.02,-0.45,-0.46,-0.48
108.56,-0.72,-0.19,-0.70,-0.17,0.15,0.10,-0.01,-0.56,-0.54,-0.52
109.64,-0.75,-0.16,-0.74,-0.16,0.13,0.08,-0.04,-0.62,-0.62,-0.58
110.74,-0.76,-0.12,-0.77,-0.13,0.10,0.05,-0.07,-0.66,-0.67,-0.64
111.85,-0.77,-0.08,-0.77,-0.08,0.07,0.03,-0.09,-0.69,-0.69,-0.69
112.97,-0.78,-0.04,-0.76,-0.03,0.04,0.00,-0.12,-0.73,-0.72,-0.73
114.10,-0.76,0.02,-0.77,0.02,0.01,-0.03,-0.14,-0.75,-0.76,-0.78
115.24,-0.77,0.08,-0.79,0.05,-0.03,-0.05,-0.17,-0.80,-0.82,-0.85
116.39,-0.84,0.06,-0.83,0.07,-0.07,-0.08,-0.19,-0.91,-0.89,-0.89
117.55,-0.88,0.06,-0.86,0.08,-0.10,-0.10,-0.22,-0.98,-0.96,-0.94
118.73,-0.87,0.12,-0.87,0.11,-0.12,-0.13,-0.24,-0.99,-0.99,-0.98
119.92,-0.86,0.17,-0.86,0.16,-0.14,-0.15,-0.26,-1.00,-1.00,-1.03
121.12,-0.86,0.19,-0.87,0.19,-0.17,-0.18,-0.29,-1.02,-1.03,-1.05
122.33,-0.89,0.21,-0.90,0.20,-0.20,-0.21,-0.31,-1.08,-1.09,-1.10
123.55,-0.94,0.19,-0.92,0.20,-0.23,-0.23,-0.33,-1.17,-1.15,-1.13
124.79,-0.96,0.20,-0.94,0.23,-0.26,-0.26,-0.35,-1.22,-1.20,-1.16
126.03,-0.92,0.29,-0.93,0.27,-0.29,-0.28,-0.37,-1.21,-1.23,-1.20
127.29,-0.91,0.34,-0.90,0.34,-0.32,-0.31,-0.39,-1.23,-1.22,-1.24
128.57,-0.89,0.40,-0.88,0.40,-0.35,-0.33,-0.40,-1.24,-1.24,-1.28
129.85,-0.87,0.45,-0.90,0.41,-0.38,-0.36,-0.42,-1.25,-1.29,-1.31
131.15,-0.95,0.41,-0.93,0.42,-0.42,-0.39,-0.44,-1.37,-1.35,-1.35
132.46,-0.98,0.41,-0.96,0.43,-0.46,-0.41,-0.46,-1.43,-1.42,-1.39
133.79,-0.98,0.46,-0.98,0.45,-0.49,-0.44,-0.47,-1.46,-1.47,-1.44
135.12,-0.98,0.50,-0.98,0.49,-0.51,-0.46,-0.49,-1.49,-1.49,-1.48
136.48,-0.98,0.53,-0.97,0.54,-0.54,-0.49,-0.51,-1.52,-1.51,-1.51
137.84,-0.97,0.58,-0.96,0.59,-0.56,-0.52,-0.52,-1.53,-1.53,-1.55
139.22,-0.97,0.63,-0.97,0.62,-0.59,-0.54,-0.54,-1.56,-1.56,-1.60
140.61,-0.97,0.66,-1.00,0.63,-0.62,-0.57,-0.55,-1.59,-1.62,-1.62
142.02,-1.05,0.62,-1.03,0.64,-0.65,-0.60,-0.57,-1.69,-1.68,-1.67
143.44,-1.09,0.62,-1.05,0.65,-0.66,-0.62,-0.58,-1.75,-1.71,-1.71
144.87,-1.05,0.69,-1.07,0.68,-0.68,-0.65,-0.60,-1.73,-1.75,-1.74
146.32,-1.05,0.73,-1.08,0.70,-0.69,-0.68,-0.61,-1.74,-1.77,-1.78
147.78,-1.12,0.70,-1.10,0.72,-0.71,-0.70,-0.63,-1.83,-1.81,-1.82
149.26,-1.15,0.71,-1.14,0.72,-0.73,-0.73,-0.64,-1.88,-1.87,-1.86
150.75,-1.16,0.75,-1.16,0.74,-0.76,-0.76,-0.66,-1.92,-1.92,-1.90
152.26,-1.16,0.77,-1.16,0.78,-0.79,-0.78,-0.68,-1.95,-1.95,-1.93
153.78,-1.16,0.82,-1.16,0.81,-0.82,-0.81,-0.69,-1.97,-1.98,-1.98
155.32,-1.16,0.85,-1.15,0.86,-0.85,-0.84,-0.71,-2.00,-2.00,-2.00
156.88,-1.16,0.89,-1.16,0.89,-0.87,-0.86,-0.73,-2.03,-2.03,-2.05
158.44,-1.16,0.93,-1.18,0.91,-0.89,-0.89,-0.75,-2.05,-2.08,-2.09
160.03,-1.23,0.91,-1.20,0.93,-0.92,-0.92,-0.77,-2.14,-2.12,-2.13
161.63,-1.25,0.93,-1.24,0.94,-0.93,-0.95,-0.79,-2.18,-2.17,-2.17
163.24,-1.25,0.98,-1.28,0.95,-0.95,-0.97,-0.81,-2.20,-2.22,-2.22
164.88,-1.32,0.95,-1.31,0.96,-0.96,-1.00,-0.83,-2.28,-2.27,-2.26
166.53,-1.35,0.97,-1.34,0.97,-0.98,-1.03,-0.85,-2.33,-2.32,-2.31
168.19,-1.37,0.98,-1.37,0.99,-1.00,-1.05,-0.87,-2.37,-2.37,-2.35
169.87,-1.38,1.02,-1.38,1.02,-1.03,-1.08,-0.90,-2.41,-2.41,-2.40
171.57,-1.38,1.07,-1.38,1.06,-1.07,-1.10,-0.92,-2.44,-2.45,-2.45
173.29,-1.39,1.10,-1.39,1.10,-1.10,-1.13,-0.94,-2.49,-2.49,-2.48
175.02,-1.40,1.13,-1.39,1.13,-1.14,-1.16,-0.97,-2.54,-2.53,-2.53
176.77,-1.40,1.18,-1.39,1.17,-1.17,-1.18,-1.00,-2.56,-2.56,-2.57
178.54,-1.40,1.21,-1.39,1.22,-1.19,-1.21,-1.02,-2.59,-2.58,-2.61
180.32,-1.39,1.26,-1.40,1.25,-1.21,-1.23,-1.05,-2.60,-2.61,-2.65
182.13,-1.43,1.26,-1.44,1.25,-1.23,-1.26,-1.08,-2.66,-2.66,-2.69
183.95,-1.48,1.25,-1.49,1.24,-1.25,-1.28,-1.11,-2.72,-2.73,-2.72
185.79,-1.56,1.21,-1.53,1.23,-1.26,-1.31,-1.14,-2.82,-2.79,-2.76
187.65,-1.55,1.25,-1.55,1.25,-1.29,-1.33,-1.17,-2.83,-2.83,-2.79
189.52,-1.53,1.31,-1.54,1.29,-1.32,-1.36,-1.20,-2.84,-2.85,-2.83
191.42,-1.52,1.34,-1.52,1.34,-1.35,-1.38,-1.24,-2.87,-2.87,-2.85
193.33,-1.50,1.40,-1.50,1.40,-1.39,-1.40,-1.27,-2.89,-2.89,-2.89
195.27,-1.49,1.44,-1.48,1.44,-1.44,-1.43,-1.30,-2.93,-2.92,-2.93
197.22,-1.47,1.50,-1.47,1.50,-1.49,-1.45,-1.34,-2.95,-2.95,-2.97
199.19,-1.46,1.54,-1.45,1.55,-1.53,-1.47,-1.37,-2.98,-2.98,-2.99
201.18,-1.45,1.58,-1.45,1.58,-1.56,-1.49,-1.41,-3.00,-3.01,-3.03
203.19,-1.45,1.61,-1.47,1.59,-1.58,-1.51,-1.44,-3.02,-3.04,-3.06
205.23,-1.51,1.57,-1.50,1.59,-1.59,-1.53,-1.48,-3.09,-3.08,-3.08
207.28,-1.54,1.57,-1.52,1.59,-1.59,-1.55,-1.51,-3.13,-3.11,-3.11
209.35,-1.55,1.60,-1.55,1.59,-1.59,-1.57,-1.55,-3.14,-3.15,-3.15
211.44,-1.56,1.62,-1.59,1.59,-1.60,-1.59,-1.58,-3.15,-3.18,-3.17
213.56,-1.65,1.56,-1.62,1.58,-1.60,-1.61,-1.62,-3.25,-3.22,-3.21
215.69,-1.67,1.56,-1.65,1.58,-1.61,-1.62,-1.65,-3.27,-3.26,-3.23
217.85,-1.66,1.60,-1.67,1.59,-1.61,-1.64,-1.68,-3.27,-3.28,-3.25
220.03,-1.66,1.64,-1.65,1.64,-1.62,-1.65,-1.71,-3.27,-3.27,-3.29
222.23,-1.65,1.67,-1.65,1.66,-1.62,-1.67,-1.75,-3.27,-3.28,-3.32
224.45,-1.65,1.69,-1.68,1.66,-1.63,-1.68,-1.77,-3.28,-3.31,-3.34
226.70,-1.74,1.62,-1.71,1.65,-1.64,-1.69,-1.80,-3.38,-3.35,-3.36
228.96,-1.75,1.62,-1.74,1.63,-1.66,-1.70,-1.83,-3.40,-3.40,-3.37
231.25,-1.75,1.64,-1.75,1.63,-1.67,-1.71,-1.85,-3.42,-3.42,-3.39
233.57,-1.74,1.66,-1.74,1.67,-1.68,-1.72,-1.87,-3.42,-3.42,-3.40
235.90,-1.72,1.70,-1.72,1.69,-1.70,-1.73,-1.89,-3.41,-3.42,-3.42
238.26,-1.71,1.72,-1.71,1.71,-1.71,-1.74,-1.91,-3.42,-3.41,-3.43
240.64,-1.69,1.73,-1.69,1.74,-1.72,-1.75,-1.92,-3.41,-3.41,-3.41
243.05,-1.68,1.75,-1.67,1.75,-1.72,-1.75,-1.94,-3.40,-3.40,-3.42
245.48,-1.66,1.76,-1.66,1.76,-1.72,-1.76,-1.95,-3.38,-3.39,-3.42
247.93,-1.68,1.75,-1.68,1.74,-1.72,-1.76,-1.95,-3.40,-3.40,-3.43
250.41,-1.71,1.71,-1.72,1.70,-1.71,-1.76,-1.95,-3.41,-3.42,-3.42
252.92,-1.78,1.64,-1.75,1.67,-1.70,-1.76,-1.95,-3.47,-3.45,-3.41
255.45,-1.77,1.66,-1.77,1.66,-1.69,-1.76,-1.95,-3.46,-3.46,-3.43
258.00,-1.77,1.67,-1.77,1.66,-1.68,-1.76,-1.95,-3.45,-3.45,-3.44
260.58,-1.76,1.69,-1.76,1.68,-1.68,-1.76,-1.94,-3.44,-3.44,-3.44
263.19,-1.76,1.69,-1.76,1.69,-1.69,-1.76,-1.93,-3.45,-3.45,-3.45
265.82,-1.76,1.70,-1.76,1.70,-1.70,-1.76,-1.92,-3.45,-3.45,-3.45
268.48,-1.76,1.71,-1.76,1.71,-1.70,-1.75,-1.90,-3.46,-3.46,-3.47
271.16,-1.77,1.72,-1.76,1.72,-1.71,-1.75,-1.88,-3.47,-3.46,-3.49
273.87,-1.77,1.72,-1.77,1.72,-1.71,-1.74,-1.86,-3.47,-3.48,-3.49
276.61,-1.79,1.72,-1.80,1.70,-1.70,-1.73,-1.84,-3.49,-3.50,-3.51
279.38,-1.85,1.67,-1.83,1.68,-1.69,-1.73,-1.82,-3.54,-3.53,-3.52
282.17,-1.87,1.65,-1.85,1.66,-1.68,-1.72,-1.79,-3.55,-3.54,-3.52
284.99,-1.86,1.66,-1.86,1.66,-1.67,-1.71,-1.77,-3.53,-3.53,-3.52
287.84,-1.85,1.67,-1.86,1.66,-1.66,-1.70,-1.74,-3.51,-3.52,-3.51
290.72,-1.86,1.67,-1.87,1.65,-1.64,-1.69,-1.71,-3.50,-3.52,-3.53
293.63,-1.91,1.63,-1.89,1.64,-1.63,-1.68,-1.68,-3.54,-3.52,-3.53
296.57,-1.92,1.61,-1.90,1.63,-1.62,-1.66,-1.65,-3.54,-3.52,-3.53
299.53,-1.90,1.62,-1.92,1.61,-1.61,-1.65,-1.62,-3.51,-3.52,-3.52
302.53,-1.92,1.61,-1.93,1.60,-1.60,-1.64,-1.59,-3.52,-3.52,-3.52
305.55,-1.96,1.57,-1.94,1.58,-1.59,-1.62,-1.56,-3.55,-3.53,-3.53
308.61,-1.96,1.56,-1.96,1.57,-1.58,-1.61,-1.53,-3.54,-3.54,-3.52
311.69,-1.96,1.57,-1.96,1.57,-1.58,-1.59,-1.50,-3.54,-3.54,-3.52
314.81,-1.95,1.58,-1.95,1.58,-1.58,-1.58,-1.47,-3.53,-3.53,-3.53
317.96,-1.95,1.58,-1.95,1.58,-1.58,-1.56,-1.44,-3.53,-3.53,-3.53
321.14,-1.95,1.59,-1.94,1.59,-1.57,-1.55,-1.41,-3.52,-3.51,-3.53
324.35,-1.95,1.59,-1.95,1.59,-1.56,-1.53,-1.39,-3.51,-3.51,-3.54
327.59,-1.95,1.58,-1.96,1.57,-1.55,-1.51,-1.36,-3.50,-3.52,-3.53
330.87,-2.00,1.53,-1.99,1.54,-1.54,-1.50,-1.33,-3.53,-3.53,-3.53
334.18,-2.04,1.51,-2.03,1.51,-1.52,-1.48,-1.31,-3.56,-3.55,-3.54
337.52,-2.05,1.49,-2.05,1.48,-1.51,-1.46,-1.28,-3.56,-3.56,-3.54
340.90,-2.06,1.47,-2.06,1.47,-1.50,-1.44,-1.26,-3.55,-3.56,-3.53
344.30,-2.06,1.46,-2.06,1.47,-1.48,-1.42,-1.23,-3.54,-3.54,-3.52
347.75,-2.06,1.47,-2.05,1.47,-1.47,-1.41,-1.21,-3.52,-3.52,-3.52
351.23,-2.05,1.48,-2.05,1.47,-1.45,-1.39,-1.19,-3.49,-3.49,-3.52
354.74,-2.05,1.46,-2.05,1.46,-1.42,-1.37,-1.17,-3.47,-3.47,-3.51
358.28,-2.07,1.44,-2.08,1.43,-1.40,-1.35,-1.15,-3.46,-3.47,-3.51
361.87,-2.12,1.38,-2.12,1.38,-1.37,-1.33,-1.13,-3.49,-3.49,-3.50
365.49,-2.18,1.31,-2.17,1.32,-1.35,-1.31,-1.11,-3.53,-3.52,-3.49
369.14,-2.21,1.28,-2.20,1.29,-1.33,-1.30,-1.09,-3.53,-3.52,-3.48
372.83,-2.21,1.27,-2.21,1.27,-1.30,-1.28,-1.08,-3.51,-3.51,-3.47
376.56,-2.20,1.29,-2.20,1.28,-1.29,-1.26,-1.06,-3.48,-3.49,-3.49
380.33,-2.20,1.28,-2.19,1.29,-1.27,-1.24,-1.05,-3.47,-3.46,-3.48
384.13,-2.19,1.29,-2.18,1.29,-1.26,-1.22,-1.03,-3.45,-3.45,-3.48
387.97,-2.19,1.28,-2.19,1.28,-1.26,-1.20,-1.02,-3.44,-3.45,-3.47
391.85,-2.20,1.27,-2.21,1.26,-1.26,-1.19,-1.01,-3.45,-3.47,-3.47
395.77,-2.26,1.23,-2.24,1.24,-1.25,-1.17,-1.00,-3.51,-3.49,-3.48
399.73,-2.28,1.22,-2.27,1.22,-1.24,-1.15,-0.99,-3.52,-3.51,-3.49
403.72,-2.28,1.21,-2.28,1.21,-1.23,-1.13,-0.98,-3.50,-3.51,-3.48
407.76,-2.28,1.22,-2.28,1.22,-1.21,-1.12,-0.97,-3.49,-3.49,-3.50
411.84,-2.29,1.22,-2.29,1.22,-1.19,-1.10,-0.96,-3.48,-3.48,-3.51
415.96,-2.29,1.22,-2.31,1.20,-1.18,-1.08,-0.95,-3.47,-3.49,-3.51
420.12,-2.36,1.16,-2.34,1.17,-1.17,-1.06,-0.95,-3.52,-3.51,-3.52
424.32,-2.38,1.13,-2.37,1.14,-1.16,-1.05,-0.94,-3.54,-3.52,-3.51
428.56,-2.37,1.12,-2.38,1.12,-1.15,-1.03,-0.93,-3.52,-3.52,-3.49
432.85,-2.36,1.11,-2.35,1.12,-1.14,-1.02,-0.93,-3.50,-3.49,-3.47
437.18,-2.33,1.13,-2.33,1.13,-1.13,-1.00,-0.92,-3.46,-3.45,-3.45
441.55,-2.29,1.14,-2.28,1.14,-1.12,-0.98,-0.92,-3.41,-3.40,-3.42
445.96,-2.25,1.14,-2.25,1.13,-1.11,-0.97,-0.91,-3.36,-3.36,-3.38
450.42,-2.21,1.13,-2.23,1.11,-1.10,-0.95,-0.91,-3.31,-3.33,-3.33
454.93,-2.22,1.07,-2.19,1.09,-1.09,-0.94,-0.90,-3.31,-3.29,-3.29
459.48,-2.17,1.07,-2.16,1.07,-1.07,-0.93,-0.90,-3.24,-3.23,-3.24
464.07,-2.11,1.06,-2.13,1.04,-1.05,-0.91,-0.90,-3.15,-3.17,-3.17
468.71,-2.09,1.02,-2.09,1.03,-1.01,-0.90,-0.89,-3.10,-3.10,-3.11
473.40,-2.08,0.98,-2.06,0.99,-0.98,-0.88,-0.89,-3.06,-3.04,-3.06
478.13,-2.03,0.97,-2.05,0.95,-0.95,-0.87,-0.88,-2.98,-3.00,-3.00
482.91,-2.04,0.91,-2.03,0.91,-0.92,-0.86,-0.88,-2.96,-2.96,-2.95
