frequency,raw,error,smoothed,error_smoothed,equalization,parametric_eq,fixed_band_eq,equalized_raw,equalized_smoothed,target
20.00,5.71,2.92,5.71,2.92,-2.92,-3.15,-2.05,2.79,2.79,2.79
20.20,5.79,2.96,5.79,2.96,-2.96,-3.19,-2.11,2.83,2.83,2.83
20.40,5.87,3.00,5.87,3.01,-3.00,-3.22,-2.17,2.87,2.86,2.87
20.61,5.95,3.06,5.95,3.05,-3.05,-3.26,-2.24,2.90,2.90,2.89
20.81,6.02,3.09,6.02,3.09,-3.09,-3.29,-2.30,2.93,2.93,2.93
21.02,6.10,3.13,6.10,3.14,-3.14,-3.33,-2.37,2.96,2.96,2.97
21.23,6.17,3.18,6.17,3.18,-3.19,-3.37,-2.44,2.98,2.98,2.99
21.44,6.24,3.23,6.24,3.23,-3.24,-3.40,-2.51,3.00,3.00,3.01
21.66,6.31,3.28,6.31,3.29,-3.29,-3.44,-2.59,3.02,3.02,3.03
21.87,6.38,3.34,6.38,3.34,-3.34,-3.48,-2.66,3.04,3.04,3.04
22.09,6.45,3.39,6.45,3.40,-3.40,-3.51,-2.74,3.05,3.05,3.06
22.31,6.52,3.46,6.52,3.46,-3.45,-3.55,-2.82,3.07,3.07,3.07
22.54,6.58,3.51,6.58,3.51,-3.51,-3.59,-2.90,3.07,3.07,3.07
22.76,6.64,3.57,6.64,3.56,-3.57,-3.62,-2.99,3.07,3.07,3.07
22.99,6.69,3.62,6.69,3.62,-3.62,-3.66,-3.08,3.07,3.07,3.07
23.22,6.75,3.67,6.75,3.67,-3.67,-3.69,-3.17,3.08,3.08,3.08
23.45,6.82,3.73,6.82,3.73,-3.72,-3.73,-3.26,3.10,3.10,3.09
23.69,6.89,3.79,6.89,3.78,-3.77,-3.77,-3.35,3.12,3.12,3.10
23.92,6.95,3.83,6.95,3.82,-3.82,-3.80,-3.45,3.13,3.13,3.12
24.16,7.00,3.86,7.00,3.86,-3.87,-3.84,-3.54,3.13,3.13,3.14
24.40,7.05,3.90,7.05,3.91,-3.92,-3.88,-3.64,3.14,3.14,3.15
24.65,7.11,3.96,7.11,3.95,-3.96,-3.91,-3.74,3.15,3.15,3.15
24.89,7.18,4.01,7.18,4.01,-4.01,-3.95,-3.84,3.17,3.17,3.17
25.14,7.24,4.06,7.24,4.06,-4.06,-3.98,-3.94,3.19,3.19,3.18
25.39,7.30,4.11,7.30,4.11,-4.10,-4.02,-4.05,3.20,3.20,3.19
25.65,7.35,4.15,7.35,4.15,-4.15,-4.05,-4.15,3.20,3.20,3.20
25.91,7.40,4.19,7.40,4.20,-4.19,-4.09,-4.26,3.21,3.21,3.21
26.16,7.46,4.24,7.46,4.24,-4.24,-4.12,-4.36,3.22,3.22,3.22
26.43,7.51,4.28,7.51,4.28,-4.28,-4.16,-4.47,3.23,3.23,3.23
26.69,7.56,4.31,7.56,4.32,-4.33,-4.19,-4.57,3.23,3.24,3.25
26.96,7.62,4.36,7.62,4.36,-4.37,-4.23,-4.67,3.25,3.25,3.26
27.23,7.68,4.41,7.68,4.41,-4.41,-4.26,-4.77,3.27,3.27,3.27
27.50,7.74,4.45,7.74,4.46,-4.45,-4.30,-4.87,3.29,3.29,3.29
27.77,7.79,4.51,7.79,4.50,-4.49,-4.33,-4.97,3.30,3.30,3.28
28.05,7.84,4.54,7.84,4.54,-4.53,-4.36,-5.06,3.31,3.31,3.30
28.33,7.87,4.57,7.87,4.56,-4.56,-4.40,-5.15,3.31,3.31,3.30
28.62,7.91,4.59,7.91,4.59,-4.60,-4.43,-5.23,3.31,3.31,3.32
28.90,7.95,4.62,7.95,4.62,-4.63,-4.46,-5.31,3.32,3.32,3.33
29.19,8.00,4.66,8.00,4.66,-4.66,-4.49,-5.39,3.34,3.34,3.34
29.48,8.05,4.69,8.05,4.69,-4.69,-4.52,-5.46,3.36,3.36,3.36
29.78,8.09,4.72,8.09,4.72,-4.72,-4.56,-5.52,3.37,3.37,3.37
30.08,8.12,4.74,8.12,4.75,-4.74,-4.59,-5.58,3.38,3.38,3.38
30.38,8.16,4.77,8.16,4.77,-4.77,-4.62,-5.63,3.39,3.39,3.39
30.68,8.19,4.79,8.19,4.80,-4.79,-4.65,-5.67,3.40,3.40,3.40
30.99,8.23,4.83,8.23,4.82,-4.82,-4.68,-5.70,3.41,3.41,3.40
31.30,8.26,4.85,8.26,4.84,-4.84,-4.71,-5.73,3.41,3.41,3.41
31.61,8.29,4.86,8.29,4.87,-4.87,-4.74,-5.74,3.42,3.42,3.43
31.93,8.33,4.90,8.33,4.89,-4.90,-4.76,-5.76,3.43,3.42,3.43
32.24,8.36,4.92,8.37,4.92,-4.93,-4.79,-5.76,3.43,3.43,3.44
32.57,8.41,4.96,8.41,4.96,-4.97,-4.82,-5.75,3.44,3.44,3.45
32.89,8.46,4.99,8.46,5.00,-5.00,-4.85,-5.74,3.46,3.46,3.47
33.22,8.50,5.04,8.50,5.03,-5.03,-4.87,-5.73,3.47,3.47,3.46
33.55,8.55,5.07,8.55,5.07,-5.06,-4.90,-5.70,3.49,3.48,3.48
33.89,8.58,5.10,8.58,5.10,-5.09,-4.93,-5.67,3.49,3.49,3.48
34.23,8.62,5.12,8.62,5.12,-5.11,-4.95,-5.64,3.51,3.50,3.50
34.57,8.64,5.14,8.64,5.14,-5.13,-4.97,-5.60,3.51,3.51,3.50
34.92,8.66,5.15,8.66,5.15,-5.15,-5.00,-5.56,3.51,3.51,3.51
35.27,8.67,5.16,8.67,5.16,-5.17,-5.02,-5.51,3.50,3.51,3.51
35.62,8.69,5.18,8.69,5.17,-5.18,-5.04,-5.46,3.51,3.51,3.51
35.97,8.70,5.19,8.70,5.18,-5.19,-5.07,-5.41,3.51,3.51,3.51
36.33,8.72,5.19,8.72,5.21,-5.21,-5.09,-5.36,3.51,3.52,3.53
36.70,8.75,5.22,8.75,5.22,-5.22,-5.11,-5.31,3.53,3.52,3.53
37.06,8.77,5.26,8.77,5.24,-5.24,-5.13,-5.26,3.53,3.53,3.51
37.43,8.78,5.26,8.78,5.27,-5.26,-5.15,-5.20,3.52,3.53,3.52
37.81,8.80,5.28,8.80,5.28,-5.28,-5.17,-5.15,3.52,3.52,3.52
38.19,8.82,5.30,8.82,5.30,-5.31,-5.19,-5.10,3.51,3.51,3.52
38.57,8.84,5.32,8.84,5.33,-5.34,-5.20,-5.05,3.50,3.51,3.52
38.95,8.87,5.36,8.87,5.36,-5.37,-5.22,-5.00,3.50,3.50,3.51
39.34,8.90,5.39,8.90,5.40,-5.40,-5.24,-4.95,3.50,3.51,3.51
39.74,8.94,5.45,8.94,5.44,-5.43,-5.25,-4.90,3.51,3.50,3.49
40.14,8.97,5.47,8.97,5.47,-5.47,-5.27,-4.86,3.50,3.50,3.50
40.54,8.99,5.50,9.00,5.50,-5.50,-5.28,-4.82,3.49,3.49,3.49
40.94,9.02,5.53,9.02,5.53,-5.53,-5.29,-4.78,3.49,3.49,3.49
41.35,9.05,5.56,9.05,5.56,-5.56,-5.31,-4.75,3.49,3.48,3.49
41.76,9.07,5.58,9.07,5.58,-5.58,-5.32,-4.72,3.49,3.49,3.49
42.18,9.09,5.60,9.09,5.60,-5.60,-5.33,-4.69,3.49,3.50,3.49
42.60,9.11,5.62,9.11,5.61,-5.60,-5.34,-4.66,3.51,3.50,3.49
43.03,9.11,5.62,9.11,5.61,-5.61,-5.35,-4.64,3.50,3.50,3.49
43.46,9.09,5.60,9.09,5.60,-5.60,-5.36,-4.62,3.49,3.49,3.49
43.90,9.07,5.58,9.07,5.58,-5.59,-5.36,-4.61,3.48,3.48,3.49
44.33,9.04,5.56,9.04,5.56,-5.57,-5.37,-4.60,3.47,3.47,3.48
44.78,9.02,5.54,9.02,5.54,-5.54,-5.38,-4.59,3.48,3.47,3.48
45.23,8.99,5.51,8.99,5.52,-5.51,-5.38,-4.59,3.48,3.48,3.48
45.68,8.97,5.49,8.97,5.49,-5.48,-5.39,-4.59,3.49,3.49,3.48
46.13,8.94,5.46,8.94,5.45,-5.45,-5.39,-4.59,3.49,3.49,3.48
46.60,8.90,5.41,8.90,5.42,-5.41,-5.39,-4.60,3.49,3.49,3.49
47.06,8.87,5.38,8.87,5.38,-5.38,-5.40,-4.61,3.49,3.49,3.49
47.53,8.84,5.35,8.84,5.34,-5.35,-5.40,-4.62,3.49,3.49,3.49
48.01,8.81,5.30,8.81,5.31,-5.32,-5.40,-4.64,3.49,3.49,3.51
48.49,8.79,5.29,8.79,5.29,-5.30,-5.40,-4.66,3.49,3.49,3.50
48.97,8.76,5.28,8.76,5.28,-5.28,-5.40,-4.68,3.48,3.48,3.48
49.46,8.74,5.26,8.74,5.27,-5.27,-5.40,-4.71,3.47,3.47,3.48
49.96,8.73,5.27,8.73,5.26,-5.27,-5.39,-4.74,3.47,3.46,3.46
50.46,8.72,5.25,8.72,5.26,-5.27,-5.39,-4.77,3.45,3.45,3.47
50.96,8.72,5.26,8.72,5.27,-5.27,-5.38,-4.80,3.45,3.45,3.46
51.47,8.73,5.29,8.73,5.28,-5.28,-5.38,-4.83,3.45,3.45,3.44
51.99,8.75,5.30,8.75,5.30,-5.29,-5.37,-4.87,3.46,3.46,3.45
52.51,8.76,5.31,8.75,5.31,-5.30,-5.37,-4.90,3.46,3.46,3.45
53.03,8.75,5.31,8.75,5.31,-5.31,-5.36,-4.94,3.44,3.45,3.44
53.56,8.74,5.31,8.74,5.31,-5.31,-5.35,-4.98,3.43,3.43,3.43
54.10,8.72,5.31,8.72,5.31,-5.31,-5.34,-5.02,3.41,3.41,3.41
54.64,8.70,5.30,8.70,5.30,-5.31,-5.33,-5.06,3.39,3.39,3.40
55.18,8.68,5.29,8.68,5.30,-5.30,-5.32,-5.10,3.38,3.38,3.39
55.74,8.67,5.30,8.66,5.29,-5.29,-5.31,-5.13,3.38,3.37,3.37
56.29,8.64,5.27,8.64,5.28,-5.28,-5.29,-5.17,3.36,3.36,3.37
56.86,8.61,5.27,8.61,5.27,-5.26,-5.28,-5.20,3.35,3.35,3.34
57.42,8.57,5.25,8.57,5.24,-5.24,-5.26,-5.23,3.33,3.34,3.32
58.00,8.53,5.22,8.53,5.22,-5.21,-5.25,-5.26,3.32,3.32,3.31
58.58,8.48,5.18,8.48,5.18,-5.18,-5.23,-5.29,3.30,3.30,3.30
59.16,8.43,5.15,8.43,5.15,-5.16,-5.21,-5.31,3.27,3.28,3.28
59.76,8.39,5.12,8.39,5.12,-5.13,-5.20,-5.33,3.26,3.26,3.27
60.35,8.35,5.10,8.35,5.10,-5.11,-5.18,-5.35,3.24,3.24,3.25
60.96,8.31,5.09,8.31,5.09,-5.09,-5.15,-5.36,3.22,3.22,3.22
61.57,8.26,5.07,8.26,5.07,-5.07,-5.13,-5.36,3.19,3.19,3.19
62.18,8.21,5.05,8.22,5.06,-5.06,-5.11,-5.37,3.15,3.16,3.16
62.80,8.18,5.04,8.18,5.04,-5.04,-5.09,-5.37,3.14,3.14,3.14
63.43,8.14,5.03,8.14,5.03,-5.02,-5.06,-5.36,3.12,3.12,3.11
64.07,8.10,5.02,8.10,5.01,-5.00,-5.03,-5.35,3.10,3.09,3.08
64.71,8.05,4.99,8.05,4.99,-4.98,-5.01,-5.33,3.07,3.07,3.06
65.35,7.99,4.95,7.99,4.96,-4.95,-4.98,-5.31,3.04,3.04,3.04
66.01,7.94,4.92,7.94,4.92,-4.93,-4.95,-5.29,3.01,3.01,3.02
66.67,7.88,4.89,7.88,4.89,-4.90,-4.92,-5.26,2.98,2.98,2.99
67.33,7.82,4.86,7.82,4.86,-4.86,-4.88,-5.23,2.96,2.96,2.96
68.01,7.76,4.82,7.76,4.83,-4.83,-4.85,-5.20,2.93,2.93,2.94
68.69,7.71,4.80,7.71,4.80,-4.79,-4.81,-5.16,2.92,2.91,2.91
69.37,7.65,4.76,7.65,4.76,-4.76,-4.78,-5.12,2.89,2.89,2.89
70.07,7.59,4.72,7.59,4.72,-4.72,-4.74,-5.08,2.87,2.87,2.87
70.77,7.52,4.68,7.52,4.68,-4.68,-4.70,-5.04,2.84,2.84,2.84
71.48,7.45,4.63,7.45,4.63,-4.63,-4.66,-4.99,2.82,2.82,2.82
72.19,7.38,4.58,7.38,4.58,-4.59,-4.62,-4.95,2.79,2.79,2.80
72.91,7.31,4.54,7.31,4.54,-4.54,-4.58,-4.91,2.77,2.77,2.77
73.64,7.25,4.50,7.25,4.50,-4.50,-4.54,-4.86,2.75,2.75,2.75
74.38,7.19,4.46,7.19,4.46,-4.45,-4.50,-4.82,2.74,2.74,2.73
75.12,7.13,4.41,7.13,4.41,-4.40,-4.47,-4.77,2.73,2.72,2.72
75.87,7.06,4.35,7.07,4.36,-4.36,-4.43,-4.73,2.70,2.70,2.71
76.63,7.01,4.32,7.01,4.32,-4.32,-4.40,-4.69,2.69,2.69,2.69
77.40,6.96,4.28,6.96,4.28,-4.28,-4.38,-4.65,2.68,2.68,2.68
78.17,6.92,4.25,6.92,4.25,-4.25,-4.36,-4.62,2.67,2.67,2.67
78.95,6.88,4.21,6.88,4.22,-4.22,-4.34,-4.58,2.66,2.66,2.67
79.74,6.85,4.19,6.85,4.19,-4.19,-4.32,-4.55,2.65,2.65,2.66
80.54,6.82,4.17,6.82,4.17,-4.18,-4.31,-4.52,2.64,2.64,2.65
81.35,6.80,4.16,6.80,4.16,-4.17,-4.30,-4.49,2.63,2.64,2.64
82.16,6.79,4.16,6.79,4.16,-4.16,-4.30,-4.47,2.63,2.63,2.63
82.98,6.78,4.16,6.78,4.16,-4.16,-4.29,-4.45,2.62,2.62,2.62
83.81,6.77,4.17,6.77,4.16,-4.17,-4.29,-4.43,2.60,2.61,2.60
84.65,6.77,4.17,6.77,4.17,-4.17,-4.29,-4.41,2.60,2.60,2.60
85.50,6.77,4.17,6.77,4.18,-4.18,-4.28,-4.40,2.59,2.59,2.60
86.35,6.78,4.20,6.78,4.20,-4.19,-4.28,-4.39,2.59,2.59,2.58
87.22,6.79,4.21,6.79,4.21,-4.21,-4.28,-4.38,2.58,2.58,2.58
88.09,6.79,4.23,6.79,4.22,-4.22,-4.27,-4.38,2.57,2.57,2.56
88.97,6.79,4.22,6.79,4.23,-4.23,-4.27,-4.38,2.56,2.56,2.57
89.86,6.79,4.24,6.79,4.24,-4.24,-4.27,-4.39,2.55,2.55,2.55
90.76,6.79,4.26,6.79,4.25,-4.25,-4.27,-4.39,2.54,2.54,2.53
91.66,6.79,4.25,6.79,4.26,-4.25,-4.26,-4.41,2.54,2.54,2.54
92.58,6.79,4.27,6.79,4.26,-4.26,-4.26,-4.42,2.53,2.53,2.52
93.51,6.79,4.27,6.79,4.27,-4.27,-4.26,-4.44,2.52,2.52,2.52
94.44,6.79,4.27,6.79,4.28,-4.28,-4.25,-4.46,2.51,2.51,2.52
95.39,6.79,4.28,6.79,4.29,-4.29,-4.25,-4.48,2.50,2.50,2.51
96.34,6.79,4.31,6.79,4.30,-4.30,-4.25,-4.51,2.49,2.49,2.48
97.30,6.79,4.32,6.79,4.32,-4.31,-4.25,-4.53,2.48,2.48,2.47
98.28,6.79,4.33,6.79,4.33,-4.33,-4.26,-4.57,2.46,2.46,2.46
99.26,6.79,4.35,6.79,4.34,-4.34,-4.26,-4.60,2.45,2.45,2.44
100.25,6.79,4.35,6.79,4.36,-4.36,-4.27,-4.64,2.43,2.43,2.44
101.25,6.79,4.37,6.79,4.37,-4.38,-4.28,-4.67,2.41,2.41,2.42
102.27,6.79,4.39,6.79,4.39,-4.40,-4.29,-4.71,2.39,2.39,2.40
103.29,6.79,4.42,6.79,4.42,-4.42,-4.30,-4.75,2.37,2.37,2.37
104.32,6.80,4.44,6.80,4.44,-4.45,-4.32,-4.79,2.35,2.35,2.36
105.37,6.80,4.47,6.80,4.47,-4.48,-4.34,-4.84,2.32,2.33,2.33
106.42,6.81,4.50,6.81,4.50,-4.50,-4.36,-4.88,2.31,2.31,2.31
107.48,6.82,4.54,6.81,4.54,-4.53,-4.39,-4.92,2.29,2.28,2.28
108.56,6.81,4.57,6.81,4.57,-4.56,-4.42,-4.96,2.25,2.25,2.24
109.64,6.80,4.59,6.80,4.59,-4.58,-4.45,-5.01,2.22,2.22,2.21
110.74,6.78,4.61,6.78,4.61,-4.60,-4.49,-5.05,2.18,2.18,2.17
111.85,6.76,4.62,6.76,4.62,-4.62,-4.53,-5.08,2.14,2.14,2.14
112.97,6.73,4.64,6.73,4.64,-4.64,-4.57,-5.12,2.09,2.10,2.09
114.10,6.71,4.65,6.71,4.65,-4.65,-4.62,-5.15,2.06,2.05,2.06
115.24,6.68,4.66,6.68,4.66,-4.67,-4.67,-5.18,2.01,2.01,2.02
116.39,6.65,4.68,6.65,4.68,-4.68,-4.71,-5.21,1.97,1.97,1.97
117.55,6.62,4.69,6.62,4.69,-4.70,-4.75,-5.23,1.92,1.93,1.93
118.73,6.60,4.72,6.60,4.71,-4.71,-4.79,-5.25,1.89,1.89,1.88
119.92,6.58,4.73,6.58,4.73,-4.72,-4.83,-5.26,1.86,1.86,1.85
121.12,6.55,4.74,6.55,4.74,-4.72,-4.85,-5.27,1.83,1.82,1.81
122.33,6.51,4.74,6.51,4.74,-4.73,-4.87,-5.28,1.78,1.78,1.77
123.55,6.48,4.73,6.48,4.73,-4.74,-4.87,-5.27,1.74,1.74,1.75
124.79,6.44,4.73,6.44,4.73,-4.75,-4.87,-5.27,1.69,1.70,1.71
126.03,6.41,4.73,6.41,4.74,-4.75,-4.85,-5.25,1.66,1.66,1.68
127.29,6.39,4.75,6.39,4.75,-4.76,-4.82,-5.23,1.63,1.63,1.64
128.57,6.37,4.77,6.37,4.76,-4.76,-4.78,-5.21,1.61,1.61,1.60
129.85,6.35,4.77,6.35,4.78,-4.76,-4.74,-5.18,1.59,1.59,1.58
131.15,6.32,4.78,6.32,4.77,-4.76,-4.69,-5.14,1.56,1.56,1.54
132.46,6.28,4.76,6.28,4.76,-4.75,-4.65,-5.10,1.53,1.53,1.52
133.79,6.23,4.73,6.23,4.74,-4.74,-4.60,-5.05,1.49,1.49,1.50
135.12,6.18,4.71,6.18,4.71,-4.72,-4.55,-5.00,1.46,1.46,1.47
136.48,6.14,4.69,6.14,4.69,-4.70,-4.50,-4.95,1.44,1.44,1.45
137.84,6.10,4.67,6.10,4.68,-4.67,-4.46,-4.89,1.43,1.42,1.43
139.22,6.05,4.66,6.05,4.66,-4.65,-4.43,-4.83,1.40,1.40,1.39
140.61,6.00,4.63,6.00,4.62,-4.62,-4.39,-4.77,1.38,1.38,1.37
142.02,5.94,4.58,5.94,4.59,-4.60,-4.37,-4.70,1.34,1.35,1.36
143.44,5.89,4.56,5.89,4.56,-4.57,-4.35,-4.64,1.32,1.32,1.33
144.87,5.85,4.55,5.85,4.54,-4.55,-4.34,-4.57,1.30,1.30,1.30
146.32,5.81,4.53,5.81,4.53,-4.53,-4.33,-4.50,1.28,1.28,1.28
147.78,5.77,4.51,5.77,4.51,-4.51,-4.33,-4.43,1.26,1.26,1.26
149.26,5.73,4.50,5.73,4.50,-4.49,-4.33,-4.36,1.24,1.24,1.23
150.75,5.69,4.49,5.69,4.48,-4.48,-4.34,-4.29,1.21,1.21,1.20
152.26,5.64,4.47,5.64,4.47,-4.47,-4.36,-4.22,1.17,1.17,1.17
153.78,5.59,4.45,5.59,4.45,-4.45,-4.38,-4.15,1.14,1.14,1.14
155.32,5.55,4.44,5.55,4.44,-4.44,-4.41,-4.08,1.11,1.11,1.11
156.88,5.51,4.42,5.51,4.43,-4.43,-4.44,-4.02,1.08,1.08,1.09
158.44,5.47,4.42,5.47,4.42,-4.42,-4.47,-3.95,1.05,1.05,1.05
160.03,5.43,4.42,5.43,4.41,-4.41,-4.51,-3.89,1.02,1.02,1.01
161.63,5.39,4.41,5.39,4.41,-4.40,-4.55,-3.83,0.99,0.99,0.98
163.24,5.35,4.41,5.35,4.40,-4.40,-4.60,-3.77,0.95,0.95,0.94
164.88,5.31,4.39,5.31,4.39,-4.39,-4.64,-3.71,0.92,0.92,0.92
166.53,5.26,4.38,5.26,4.38,-4.38,-4.69,-3.66,0.88,0.88,0.88
168.19,5.22,4.37,5.22,4.37,-4.37,-4.74,-3.61,0.85,0.85,0.85
169.87,5.18,4.36,5.18,4.36,-4.36,-4.79,-3.56,0.82,0.82,0.82
171.57,5.14,4.36,5.14,4.36,-4.36,-4.84,-3.51,0.78,0.78,0.78
173.29,5.09,4.36,5.09,4.35,-4.35,-4.89,-3.47,0.74,0.74,0.73
175.02,5.04,4.35,5.04,4.35,-4.35,-4.94,-3.43,0.69,0.69,0.69
176.77,5.00,4.35,5.00,4.35,-4.36,-4.98,-3.39,0.64,0.64,0.65
178.54,4.96,4.37,4.96,4.36,-4.37,-5.01,-3.35,0.59,0.59,0.59
180.32,4.93,4.38,4.93,4.39,-4.39,-5.05,-3.32,0.54,0.54,0.55
182.13,4.91,4.41,4.91,4.41,-4.41,-5.07,-3.28,0.50,0.50,0.50
183.95,4.90,4.45,4.89,4.44,-4.43,-5.09,-3.26,0.47,0.46,0.45
185.79,4.87,4.47,4.87,4.47,-4.46,-5.10,-3.23,0.41,0.41,0.40
187.65,4.85,4.50,4.85,4.50,-4.49,-5.10,-3.20,0.36,0.36,0.35
189.52,4.84,4.53,4.84,4.53,-4.53,-5.10,-3.18,0.31,0.31,0.31
191.42,4.83,4.56,4.83,4.56,-4.57,-5.08,-3.16,0.26,0.25,0.27
193.33,4.82,4.60,4.82,4.60,-4.62,-5.06,-3.15,0.20,0.21,0.22
195.27,4.83,4.65,4.83,4.65,-4.66,-5.03,-3.13,0.17,0.17,0.18
197.22,4.84,4.71,4.84,4.71,-4.71,-4.99,-3.12,0.13,0.13,0.13
199.19,4.86,4.78,4.86,4.77,-4.76,-4.95,-3.11,0.10,0.10,0.08
201.18,4.87,4.83,4.87,4.83,-4.81,-4.90,-3.10,0.06,0.06,0.04
203.19,4.87,4.86,4.87,4.86,-4.85,-4.85,-3.09,0.02,0.01,0.01
205.23,4.86,4.89,4.86,4.89,-4.90,-4.80,-3.08,-0.04,-0.03,-0.03
207.28,4.85,4.91,4.85,4.92,-4.93,-4.75,-3.07,-0.08,-0.08,-0.06
209.35,4.85,4.96,4.84,4.96,-4.96,-4.69,-3.07,-0.11,-0.11,-0.11
211.44,4.83,4.99,4.83,4.98,-4.98,-4.65,-3.06,-0.15,-0.15,-0.16
213.56,4.81,5.00,4.81,5.00,-4.99,-4.61,-3.06,-0.18,-0.18,-0.19
215.69,4.78,5.00,4.78,5.00,-5.00,-4.57,-3.06,-0.22,-0.22,-0.22
217.85,4.74,4.99,4.74,5.00,-5.00,-4.55,-3.05,-0.26,-0.26,-0.25
220.03,4.70,4.99,4.70,4.99,-4.99,-4.53,-3.05,-0.29,-0.29,-0.29
222.23,4.65,4.97,4.65,4.97,-4.97,-4.52,-3.05,-0.32,-0.31,-0.32
224.45,4.60,4.94,4.60,4.94,-4.93,-4.53,-3.04,-0.33,-0.33,-0.34
226.70,4.53,4.88,4.53,4.89,-4.88,-4.54,-3.04,-0.35,-0.35,-0.35
228.96,4.46,4.84,4.45,4.83,-4.82,-4.56,-3.03,-0.36,-0.37,-0.38
231.25,4.36,4.75,4.36,4.75,-4.75,-4.57,-3.02,-0.39,-0.39,-0.39
233.57,4.26,4.66,4.26,4.66,-4.67,-4.59,-3.01,-0.41,-0.40,-0.40
235.90,4.15,4.56,4.15,4.56,-4.57,-4.58,-3.00,-0.42,-0.41,-0.41
238.26,4.04,4.46,4.03,4.45,-4.45,-4.56,-2.98,-0.41,-0.42,-0.42
240.64,3.90,4.32,3.90,4.32,-4.32,-4.50,-2.97,-0.42,-0.42,-0.42
243.05,3.76,4.17,3.76,4.18,-4.17,-4.41,-2.95,-0.41,-0.41,-0.41
245.48,3.60,4.02,3.60,4.02,-4.01,-4.27,-2.93,-0.41,-0.41,-0.42
247.93,3.44,3.85,3.43,3.85,-3.84,-4.09,-2.90,-0.40,-0.40,-0.41
250.41,3.25,3.67,3.25,3.66,-3.65,-3.87,-2.88,-0.40,-0.40,-0.42
252.92,3.05,3.44,3.05,3.45,-3.45,-3.62,-2.85,-0.40,-0.40,-0.39
255.45,2.84,3.22,2.84,3.23,-3.24,-3.35,-2.81,-0.40,-0.39,-0.38
258.00,2.64,3.01,2.64,3.01,-3.02,-3.07,-2.78,-0.38,-0.38,-0.37
260.58,2.43,2.80,2.43,2.79,-2.79,-2.79,-2.74,-0.36,-0.36,-0.37
263.19,2.22,2.57,2.22,2.57,-2.56,-2.51,-2.70,-0.34,-0.34,-0.35
265.82,2.00,2.34,2.00,2.34,-2.33,-2.24,-2.66,-0.33,-0.34,-0.34
268.48,1.78,2.10,1.78,2.10,-2.11,-1.98,-2.61,-0.33,-0.33,-0.32
271.16,1.56,1.86,1.57,1.87,-1.88,-1.73,-2.56,-0.32,-0.32,-0.30
273.87,1.36,1.65,1.36,1.65,-1.66,-1.49,-2.51,-0.30,-0.30,-0.29
276.61,1.16,1.44,1.16,1.44,-1.44,-1.27,-2.46,-0.28,-0.28,-0.28
279.38,0.96,1.23,0.96,1.23,-1.22,-1.06,-2.41,-0.26,-0.26,-0.27
282.17,0.77,1.02,0.77,1.02,-1.02,-0.86,-2.35,-0.25,-0.25,-0.25
284.99,0.58,0.82,0.58,0.82,-0.82,-0.67,-2.30,-0.24,-0.24,-0.24
287.84,0.39,0.62,0.39,0.62,-0.62,-0.50,-2.24,-0.23,-0.23,-0.23
290.72,0.21,0.42,0.22,0.43,-0.44,-0.33,-2.18,-0.23,-0.22,-0.21
293.63,0.06,0.27,0.05,0.26,-0.26,-0.18,-2.12,-0.20,-0.21,-0.21
296.57,-0.10,0.09,-0.10,0.09,-0.09,-0.03,-2.06,-0.19,-0.19,-0.19
299.53,-0.25,-0.07,-0.25,-0.07,0.07,0.11,-2.00,-0.18,-0.17,-0.18
302.53,-0.39,-0.22,-0.39,-0.22,0.23,0.24,-1.94,-0.16,-0.16,-0.17
305.55,-0.52,-0.37,-0.52,-0.36,0.37,0.36,-1.88,-0.15,-0.15,-0.15
308.61,-0.65,-0.50,-0.65,-0.51,0.51,0.47,-1.82,-0.14,-0.14,-0.15
311.69,-0.77,-0.64,-0.77,-0.64,0.64,0.57,-1.76,-0.13,-0.13,-0.13
314.81,-0.88,-0.77,-0.88,-0.76,0.75,0.67,-1.70,-0.13,-0.12,-0.11
317.96,-0.97,-0.87,-0.97,-0.87,0.86,0.76,-1.64,-0.11,-0.11,-0.10
321.14,-1.05,-0.96,-1.05,-0.96,0.95,0.84,-1.58,-0.10,-0.10,-0.09
324.35,-1.12,-1.03,-1.12,-1.03,1.03,0.91,-1.52,-0.09,-0.09,-0.09
327.59,-1.18,-1.10,-1.18,-1.10,1.10,0.97,-1.46,-0.08,-0.08,-0.08
330.87,-1.23,-1.16,-1.23,-1.16,1.16,1.03,-1.41,-0.07,-0.07,-0.07
334.18,-1.27,-1.21,-1.27,-1.20,1.21,1.08,-1.35,-0.06,-0.06,-0.06
337.52,-1.29,-1.23,-1.30,-1.24,1.25,1.12,-1.29,-0.04,-0.05,-0.06
340.90,-1.32,-1.28,-1.32,-1.27,1.28,1.15,-1.24,-0.04,-0.04,-0.04
344.30,-1.34,-1.29,-1.34,-1.30,1.30,1.17,-1.18,-0.04,-0.04,-0.05
347.75,-1.36,-1.32,-1.36,-1.32,1.32,1.19,-1.13,-0.04,-0.04,-0.04
351.23,-1.36,-1.32,-1.36,-1.33,1.32,1.20,-1.07,-0.04,-0.04,-0.04
354.74,-1.36,-1.32,-1.36,-1.33,1.32,1.20,-1.02,-0.04,-0.04,-0.04
358.28,-1.36,-1.33,-1.36,-1.32,1.31,1.20,-0.97,-0.05,-0.04,-0.03
361.87,-1.34,-1.31,-1.34,-1.30,1.29,1.18,-0.92,-0.05,-0.04,-0.03
365.49,-1.30,-1.27,-1.30,-1.27,1.27,1.17,-0.87,-0.03,-0.03,-0.03
369.14,-1.26,-1.22,-1.26,-1.22,1.23,1.14,-0.82,-0.03,-0.03,-0.04
372.83,-1.22,-1.18,-1.22,-1.18,1.19,1.11,-0.77,-0.03,-0.03,-0.04
376.56,-1.19,-1.14,-1.19,-1.14,1.14,1.08,-0.72,-0.05,-0.04,-0.05
380.33,-1.14,-1.10,-1.14,-1.09,1.09,1.04,-0.67,-0.05,-0.05,-0.04
384.13,-1.08,-1.03,-1.08,-1.03,1.03,1.00,-0.62,-0.05,-0.05,-0.05
387.97,-1.01,-0.96,-1.02,-0.97,0.96,0.96,-0.58,-0.05,-0.05,-0.05
391.85,-0.95,-0.89,-0.95,-0.90,0.90,0.91,-0.53,-0.05,-0.06,-0.06
395.77,-0.89,-0.84,-0.88,-0.83,0.82,0.85,-0.49,-0.07,-0.06,-0.05
399.73,-0.81,-0.75,-0.81,-0.75,0.75,0.80,-0.44,-0.06,-0.06,-0.06
403.72,-0.73,-0.67,-0.73,-0.67,0.68,0.74,-0.40,-0.05,-0.06,-0.06
407.76,-0.65,-0.59,-0.65,-0.59,0.60,0.68,-0.36,-0.05,-0.05,-0.06
411.84,-0.57,-0.52,-0.57,-0.52,0.52,0.62,-0.32,-0.05,-0.05,-0.05
415.96,-0.50,-0.45,-0.50,-0.45,0.45,0.56,-0.28,-0.05,-0.05,-0.05
420.12,-0.44,-0.39,-0.44,-0.38,0.38,0.50,-0.24,-0.06,-0.06,-0.05
424.32,-0.37,-0.32,-0.37,-0.31,0.31,0.43,-0.20,-0.06,-0.06,-0.05
428.56,-0.30,-0.24,-0.30,-0.24,0.24,0.37,-0.16,-0.06,-0.06,-0.06
432.85,-0.23,-0.16,-0.23,-0.17,0.17,0.31,-0.13,-0.06,-0.06,-0.07
437.18,-0.16,-0.09,-0.16,-0.10,0.10,0.24,-0.09,-0.06,-0.06,-0.07
441.55,-0.10,-0.04,-0.10,-0.04,0.04,0.18,-0.06,-0.06,-0.06,-0.06
445.96,-0.04,0.02,-0.04,0.02,-0.02,0.11,-0.02,-0.06,-0.06,-0.06
450.42,0.02,0.09,0.02,0.08,-0.08,0.05,0.01,-0.06,-0.06,-0.07
454.93,0.07,0.13,0.07,0.13,-0.13,-0.02,0.04,-0.06,-0.06,-0.06
459.48,0.12,0.18,0.12,0.18,-0.18,-0.08,0.06,-0.06,-0.06,-0.06
464.07,0.17,0.23,0.17,0.22,-0.23,-0.14,0.09,-0.06,-0.06,-0.06
468.71,0.21,0.26,0.21,0.27,-0.27,-0.20,0.12,-0.06,-0.06,-0.05
473.40,0.26,0.32,0.26,0.32,-0.32,-0.26,0.14,-0.06,-0.06,-0.06
478.13,0.31,0.36,0.31,0.36,-0.36,-0.32,0.16,-0.05,-0.05,-0.05
482.91,0.36,0.41,0.36,0.41,-0.40,-0.38,0.18,-0.04,-0.05,-0.05
487.74,0.39,0.44,0.40,0.45,-0.44,-0.43,0.20,-0.05,-0.04,-0.05
492.62,0.44,0.48,0.44,0.48,-0.48,-0.49,0.21,-0.04,-0.04,-0.04
497.55,0.47,0.52,0.47,0.51,-0.51,-0.54,0.23,-0.04,-0.04,-0.05
502.52,0.50,0.54,0.50,0.55,-0.54,-0.59,0.24,-0.04,-0.04,-0.04
507.55,0.52,0.57,0.52,0.57,-0.56,-0.63,0.25,-0.04,-0.05,-0.05
512.62,0.54,0.59,0.54,0.59,-0.59,-0.67,0.26,-0.05,-0.05,-0.05
517.75,0.56,0.60,0.56,0.61,-0.62,-0.72,0.26,-0.06,-0.06,-0.04
