frequency,raw,error,smoothed,error_smoothed,equalization,parametric_eq,fixed_band_eq,equalized_raw,equalized_smoothed,target
20.00,9.50,1.57,9.50,1.56,-1.56,-1.69,-1.04,7.94,7.93,7.93
20.20,9.52,1.58,9.53,1.59,-1.59,-1.71,-1.07,7.93,7.94,7.94
20.40,9.56,1.61,9.56,1.61,-1.62,-1.73,-1.10,7.95,7.95,7.95
20.61,9.59,1.63,9.60,1.64,-1.64,-1.74,-1.13,7.95,7.95,7.96
20.81,9.64,1.68,9.63,1.67,-1.67,-1.76,-1.16,7.97,7.97,7.96
21.02,9.67,1.70,9.67,1.70,-1.70,-1.78,-1.19,7.97,7.97,7.97
21.23,9.70,1.72,9.71,1.73,-1.72,-1.80,-1.23,7.98,7.98,7.98
21.44,9.74,1.74,9.74,1.75,-1.75,-1.82,-1.26,7.99,7.99,8.00
21.66,9.78,1.78,9.78,1.78,-1.78,-1.84,-1.30,8.00,8.00,8.00
21.87,9.81,1.81,9.81,1.80,-1.81,-1.86,-1.33,8.00,8.00,8.01
22.09,9.84,1.84,9.84,1.84,-1.84,-1.88,-1.37,8.00,8.01,8.01
22.31,9.87,1.86,9.88,1.87,-1.87,-1.89,-1.41,8.01,8.01,8.01
22.54,9.92,1.91,9.91,1.90,-1.90,-1.91,-1.45,8.02,8.02,8.01
22.76,9.95,1.93,9.95,1.93,-1.93,-1.94,-1.49,8.02,8.02,8.02
22.99,9.98,1.96,9.98,1.96,-1.96,-1.96,-1.53,8.02,8.02,8.02
23.22,10.01,1.99,10.01,1.99,-1.99,-1.98,-1.57,8.02,8.02,8.02
23.45,10.04,2.01,10.05,2.02,-2.02,-2.00,-1.61,8.02,8.03,8.03
23.69,10.09,2.06,10.08,2.05,-2.04,-2.02,-1.66,8.05,8.04,8.03
23.92,10.11,2.08,10.11,2.08,-2.07,-2.04,-1.70,8.04,8.04,8.03
24.16,10.13,2.09,10.13,2.10,-2.09,-2.06,-1.75,8.04,8.04,8.04
24.40,10.16,2.11,10.15,2.11,-2.12,-2.08,-1.79,8.04,8.03,8.05
24.65,10.17,2.12,10.19,2.14,-2.15,-2.11,-1.84,8.02,8.04,8.05
24.89,10.22,2.18,10.21,2.17,-2.17,-2.13,-1.89,8.05,8.04,8.05
25.14,10.25,2.21,10.24,2.20,-2.20,-2.15,-1.94,8.05,8.04,8.04
25.39,10.26,2.22,10.28,2.23,-2.22,-2.17,-1.99,8.04,8.05,8.04
25.65,10.30,2.26,10.30,2.26,-2.25,-2.20,-2.03,8.05,8.05,8.04
25.91,10.34,2.30,10.33,2.29,-2.28,-2.22,-2.08,8.06,8.05,8.04
26.16,10.35,2.30,10.36,2.31,-2.31,-2.25,-2.13,8.04,8.05,8.05
26.43,10.39,2.34,10.38,2.33,-2.34,-2.27,-2.18,8.05,8.04,8.05
26.69,10.39,2.34,10.40,2.35,-2.36,-2.30,-2.23,8.03,8.04,8.05
26.96,10.43,2.38,10.43,2.39,-2.39,-2.32,-2.28,8.04,8.04,8.05
27.23,10.47,2.42,10.46,2.42,-2.42,-2.35,-2.33,8.05,8.05,8.05
27.50,10.50,2.46,10.50,2.45,-2.44,-2.37,-2.38,8.06,8.06,8.04
27.77,10.52,2.47,10.53,2.48,-2.47,-2.40,-2.43,8.05,8.05,8.05
28.05,10.56,2.51,10.55,2.50,-2.50,-2.42,-2.47,8.06,8.05,8.05
28.33,10.57,2.52,10.58,2.53,-2.53,-2.45,-2.52,8.04,8.05,8.05
28.62,10.61,2.56,10.61,2.56,-2.56,-2.47,-2.56,8.05,8.05,8.05
28.90,10.65,2.59,10.65,2.59,-2.60,-2.50,-2.60,8.06,8.05,8.06
29.19,10.68,2.63,10.68,2.63,-2.63,-2.53,-2.65,8.05,8.06,8.06
29.48,10.72,2.67,10.72,2.66,-2.66,-2.56,-2.68,8.06,8.06,8.05
29.78,10.74,2.69,10.75,2.69,-2.69,-2.58,-2.72,8.05,8.06,8.05
30.08,10.78,2.72,10.77,2.72,-2.72,-2.61,-2.76,8.06,8.05,8.06
30.38,10.80,2.75,10.80,2.75,-2.75,-2.64,-2.79,8.05,8.05,8.05
30.68,10.82,2.77,10.83,2.78,-2.77,-2.67,-2.82,8.05,8.05,8.05
30.99,10.85,2.81,10.85,2.80,-2.80,-2.70,-2.85,8.05,8.05,8.04
31.30,10.87,2.83,10.86,2.82,-2.82,-2.73,-2.88,8.05,8.04,8.04
31.61,10.87,2.83,10.87,2.84,-2.84,-2.75,-2.90,8.03,8.04,8.04
31.93,10.87,2.84,10.88,2.85,-2.86,-2.78,-2.92,8.01,8.02,8.03
32.24,10.91,2.88,10.90,2.87,-2.88,-2.81,-2.94,8.03,8.02,8.03
32.57,10.91,2.89,10.92,2.89,-2.90,-2.84,-2.96,8.01,8.02,8.02
32.89,10.95,2.93,10.95,2.93,-2.92,-2.87,-2.98,8.03,8.02,8.02
33.22,10.96,2.94,10.97,2.95,-2.95,-2.90,-2.99,8.01,8.02,8.02
33.55,11.00,2.99,10.99,2.98,-2.97,-2.93,-3.01,8.03,8.02,8.01
33.89,11.00,2.99,11.01,3.00,-3.00,-2.97,-3.02,8.01,8.02,8.01
34.23,11.04,3.04,11.03,3.03,-3.02,-3.00,-3.03,8.02,8.00,8.00
34.57,11.04,3.05,11.04,3.04,-3.05,-3.03,-3.04,7.99,7.98,8.00
34.92,11.04,3.06,11.06,3.07,-3.08,-3.06,-3.05,7.96,7.98,7.98
35.27,11.08,3.09,11.08,3.10,-3.11,-3.09,-3.06,7.97,7.96,7.99
35.62,11.12,3.16,11.11,3.14,-3.14,-3.12,-3.07,7.98,7.97,7.97
35.97,11.13,3.17,11.14,3.18,-3.17,-3.16,-3.07,7.96,7.97,7.96
36.33,11.17,3.22,11.16,3.22,-3.20,-3.19,-3.08,7.97,7.97,7.95
36.70,11.17,3.24,11.17,3.24,-3.22,-3.22,-3.09,7.95,7.95,7.93
37.06,11.18,3.26,11.18,3.26,-3.25,-3.25,-3.10,7.93,7.93,7.92
37.43,11.17,3.27,11.17,3.27,-3.28,-3.29,-3.11,7.90,7.90,7.91
37.81,11.17,3.28,11.18,3.29,-3.30,-3.32,-3.12,7.87,7.88,7.89
38.19,11.20,3.32,11.19,3.31,-3.33,-3.35,-3.14,7.87,7.86,7.88
38.57,11.21,3.35,11.21,3.35,-3.36,-3.39,-3.15,7.85,7.85,7.86
38.95,11.22,3.37,11.23,3.39,-3.39,-3.42,-3.16,7.83,7.84,7.85
39.34,11.26,3.44,11.25,3.42,-3.42,-3.46,-3.18,7.84,7.83,7.82
39.74,11.26,3.45,11.27,3.46,-3.45,-3.49,-3.20,7.81,7.82,7.81
40.14,11.30,3.51,11.29,3.50,-3.49,-3.52,-3.22,7.81,7.80,7.79
40.54,11.30,3.52,11.30,3.53,-3.52,-3.56,-3.24,7.78,7.78,7.78
40.94,11.30,3.55,11.30,3.55,-3.55,-3.59,-3.27,7.75,7.75,7.75
41.35,11.30,3.57,11.30,3.57,-3.58,-3.63,-3.30,7.72,7.72,7.73
41.76,11.30,3.59,11.31,3.60,-3.61,-3.66,-3.33,7.69,7.70,7.71
42.18,11.33,3.64,11.32,3.64,-3.64,-3.70,-3.36,7.69,7.69,7.69
42.60,11.34,3.68,11.34,3.67,-3.67,-3.74,-3.39,7.68,7.67,7.66
43.03,11.34,3.70,11.34,3.70,-3.70,-3.77,-3.43,7.64,7.65,7.64
43.46,11.34,3.73,11.34,3.73,-3.73,-3.81,-3.47,7.61,7.61,7.61
43.90,11.34,3.76,11.35,3.76,-3.77,-3.84,-3.51,7.57,7.58,7.58
44.33,11.35,3.80,11.36,3.80,-3.81,-3.88,-3.56,7.54,7.55,7.55
44.78,11.39,3.86,11.37,3.84,-3.85,-3.91,-3.61,7.54,7.52,7.53
45.23,11.39,3.88,11.39,3.89,-3.89,-3.95,-3.66,7.50,7.50,7.51
45.68,11.39,3.92,11.41,3.94,-3.93,-3.99,-3.71,7.46,7.48,7.47
46.13,11.43,4.00,11.42,3.98,-3.97,-4.02,-3.77,7.46,7.44,7.43
46.60,11.43,4.03,11.43,4.03,-4.02,-4.06,-3.82,7.42,7.41,7.40
47.06,11.43,4.06,11.43,4.06,-4.06,-4.10,-3.88,7.37,7.38,7.37
47.53,11.43,4.09,11.43,4.09,-4.10,-4.13,-3.95,7.33,7.33,7.34
48.01,11.43,4.14,11.43,4.13,-4.14,-4.17,-4.01,7.29,7.29,7.29
48.49,11.43,4.17,11.44,4.18,-4.19,-4.21,-4.08,7.25,7.25,7.26
48.97,11.45,4.23,11.45,4.23,-4.23,-4.24,-4.15,7.22,7.22,7.22
49.46,11.47,4.28,11.46,4.28,-4.28,-4.28,-4.22,7.19,7.18,7.19
49.96,11.47,4.33,11.47,4.33,-4.33,-4.32,-4.30,7.14,7.14,7.14
50.46,11.47,4.37,11.48,4.38,-4.38,-4.35,-4.37,7.09,7.11,7.11
50.96,11.50,4.43,11.50,4.43,-4.42,-4.39,-4.45,7.08,7.07,7.07
51.47,11.52,4.48,11.51,4.48,-4.47,-4.43,-4.53,7.05,7.04,7.04
51.99,11.52,4.52,11.52,4.52,-4.51,-4.46,-4.60,7.01,7.01,7.00
52.51,11.52,4.56,11.52,4.56,-4.56,-4.50,-4.68,6.96,6.96,6.96
53.03,11.52,4.58,11.52,4.59,-4.60,-4.54,-4.76,6.92,6.92,6.94
53.56,11.52,4.63,11.52,4.63,-4.64,-4.57,-4.84,6.88,6.88,6.89
54.10,11.52,4.67,11.52,4.67,-4.68,-4.61,-4.92,6.85,6.85,6.85
54.64,11.52,4.71,11.52,4.72,-4.71,-4.65,-5.00,6.81,6.81,6.81
55.18,11.52,4.76,11.52,4.76,-4.74,-4.68,-5.07,6.78,6.78,6.76
55.74,11.52,4.79,11.51,4.78,-4.77,-4.72,-5.15,6.75,6.74,6.73
56.29,11.50,4.80,11.50,4.80,-4.80,-4.76,-5.22,6.70,6.70,6.70
56.86,11.47,4.80,11.48,4.82,-4.82,-4.79,-5.29,6.65,6.66,6.67
57.42,11.47,4.85,11.47,4.84,-4.85,-4.83,-5.36,6.62,6.62,6.62
58.00,11.47,4.88,11.47,4.87,-4.87,-4.87,-5.42,6.60,6.60,6.59
58.58,11.47,4.90,11.47,4.90,-4.89,-4.90,-5.48,6.58,6.58,6.57
59.16,11.47,4.93,11.47,4.92,-4.92,-4.94,-5.53,6.55,6.54,6.54
59.76,11.45,4.94,11.46,4.95,-4.95,-4.97,-5.58,6.50,6.50,6.51
60.35,11.45,4.99,11.45,4.98,-4.99,-5.01,-5.63,6.46,6.45,6.46
60.96,11.43,5.01,11.44,5.02,-5.03,-5.04,-5.66,6.40,6.41,6.42
61.57,11.43,5.07,11.43,5.07,-5.07,-5.08,-5.70,6.36,6.36,6.37
62.18,11.43,5.12,11.43,5.11,-5.11,-5.11,-5.73,6.32,6.32,6.31
62.80,11.43,5.16,11.43,5.17,-5.16,-5.15,-5.75,6.28,6.28,6.27
63.43,11.43,5.21,11.43,5.21,-5.20,-5.18,-5.77,6.23,6.23,6.22
64.07,11.43,5.25,11.43,5.25,-5.24,-5.22,-5.78,6.19,6.19,6.19
64.71,11.43,5.28,11.43,5.28,-5.28,-5.25,-5.79,6.15,6.15,6.15
65.35,11.43,5.32,11.43,5.32,-5.32,-5.29,-5.79,6.11,6.11,6.11
66.01,11.43,5.36,11.43,5.35,-5.36,-5.32,-5.78,6.07,6.07,6.07
66.67,11.43,5.39,11.43,5.39,-5.40,-5.35,-5.78,6.03,6.03,6.04
67.33,11.43,5.44,11.43,5.43,-5.44,-5.39,-5.76,5.99,5.99,5.99
68.01,11.43,5.48,11.43,5.47,-5.48,-5.42,-5.75,5.96,5.96,5.95
68.69,11.43,5.52,11.43,5.52,-5.51,-5.45,-5.73,5.92,5.92,5.91
69.37,11.43,5.55,11.43,5.55,-5.55,-5.49,-5.71,5.89,5.89,5.88
70.07,11.43,5.59,11.43,5.59,-5.58,-5.52,-5.68,5.85,5.85,5.84
70.77,11.41,5.62,11.41,5.61,-5.61,-5.55,-5.66,5.80,5.80,5.79
71.48,11.39,5.64,11.38,5.63,-5.64,-5.58,-5.63,5.75,5.74,5.75
72.19,11.35,5.65,11.36,5.66,-5.67,-5.61,-5.60,5.68,5.69,5.71
72.91,11.34,5.68,11.35,5.69,-5.69,-5.64,-5.58,5.65,5.65,5.66
73.64,11.34,5.73,11.34,5.72,-5.72,-5.67,-5.55,5.62,5.62,5.61
74.38,11.34,5.77,11.33,5.76,-5.75,-5.70,-5.52,5.59,5.58,5.57
75.12,11.32,5.78,11.32,5.78,-5.78,-5.73,-5.49,5.54,5.54,5.54
75.87,11.30,5.79,11.31,5.80,-5.81,-5.76,-5.47,5.49,5.50,5.51
76.63,11.30,5.83,11.30,5.83,-5.84,-5.79,-5.45,5.46,5.46,5.47
77.40,11.30,5.87,11.30,5.87,-5.87,-5.82,-5.42,5.43,5.44,5.44
78.17,11.30,5.91,11.30,5.90,-5.89,-5.85,-5.40,5.41,5.41,5.39
78.95,11.30,5.93,11.29,5.92,-5.92,-5.88,-5.39,5.39,5.37,5.37
79.74,11.26,5.92,11.27,5.94,-5.94,-5.91,-5.37,5.32,5.34,5.34
80.54,11.26,5.96,11.27,5.96,-5.96,-5.93,-5.36,5.30,5.31,5.30
81.35,11.26,5.99,11.25,5.98,-5.98,-5.96,-5.36,5.28,5.27,5.27
82.16,11.26,6.02,11.24,6.00,-6.01,-5.99,-5.35,5.25,5.24,5.24
82.98,11.21,6.00,11.23,6.02,-6.03,-6.01,-5.35,5.18,5.20,5.21
83.81,11.21,6.04,11.22,6.05,-6.05,-6.04,-5.36,5.16,5.16,5.17
84.65,11.21,6.08,11.21,6.08,-6.08,-6.06,-5.36,5.13,5.13,5.13
85.50,11.21,6.12,11.21,6.11,-6.10,-6.09,-5.37,5.11,5.11,5.09
86.35,11.19,6.13,11.19,6.13,-6.12,-6.11,-5.39,5.08,5.07,5.06
87.22,11.17,6.14,11.17,6.14,-6.13,-6.13,-5.41,5.04,5.04,5.03
88.09,11.14,6.15,11.14,6.15,-6.15,-6.16,-5.43,4.99,5.00,4.99
88.97,11.13,6.17,11.12,6.16,-6.16,-6.18,-5.46,4.97,4.96,4.96
89.86,11.08,6.16,11.09,6.17,-6.18,-6.20,-5.49,4.90,4.92,4.92
90.76,11.08,6.19,11.07,6.19,-6.19,-6.22,-5.52,4.89,4.88,4.89
91.66,11.04,6.19,11.05,6.20,-6.20,-6.25,-5.56,4.84,4.84,4.85
92.58,11.04,6.23,11.03,6.22,-6.22,-6.27,-5.61,4.82,4.81,4.81
93.51,11.01,6.23,11.02,6.24,-6.24,-6.29,-5.65,4.77,4.78,4.78
94.44,11.00,6.25,11.00,6.26,-6.26,-6.31,-5.70,4.74,4.74,4.75
95.39,10.99,6.29,10.98,6.28,-6.28,-6.33,-5.76,4.71,4.70,4.70
96.34,10.95,6.29,10.96,6.30,-6.30,-6.34,-5.82,4.65,4.66,4.66
97.30,10.93,6.31,10.93,6.31,-6.32,-6.36,-5.88,4.61,4.61,4.62
98.28,10.91,6.33,10.91,6.33,-6.33,-6.38,-5.94,4.58,4.57,4.58
99.26,10.87,6.34,10.88,6.35,-6.35,-6.40,-6.01,4.52,4.54,4.53
100.25,10.87,6.38,10.86,6.36,-6.36,-6.41,-6.08,4.51,4.50,4.49
101.25,10.83,6.36,10.84,6.38,-6.36,-6.43,-6.15,4.47,4.47,4.47
102.27,10.82,6.39,10.81,6.38,-6.37,-6.45,-6.23,4.45,4.44,4.43
103.29,10.78,6.38,10.78,6.38,-6.38,-6.46,-6.31,4.40,4.40,4.40
104.32,10.74,6.37,10.75,6.38,-6.38,-6.48,-6.39,4.36,4.36,4.37
105.37,10.71,6.38,10.71,6.38,-6.39,-6.49,-6.47,4.32,4.32,4.33
106.42,10.69,6.38,10.69,6.39,-6.40,-6.50,-6.55,4.29,4.29,4.31
107.48,10.67,6.41,10.67,6.40,-6.41,-6.52,-6.63,4.26,4.26,4.26
108.56,10.65,6.42,10.66,6.43,-6.43,-6.53,-6.71,4.23,4.23,4.23
109.64,10.65,6.45,10.65,6.45,-6.44,-6.54,-6.79,4.21,4.21,4.20
110.74,10.64,6.48,10.63,6.47,-6.46,-6.55,-6.86,4.18,4.17,4.16
111.85,10.61,6.48,10.62,6.49,-6.48,-6.56,-6.94,4.13,4.14,4.13
112.97,10.59,6.50,10.59,6.50,-6.50,-6.57,-7.01,4.09,4.09,4.09
114.10,10.56,6.50,10.56,6.51,-6.52,-6.58,-7.08,4.04,4.04,4.06
115.24,10.53,6.52,10.54,6.53,-6.53,-6.59,-7.14,4.00,4.01,4.01
116.39,10.52,6.55,10.52,6.55,-6.55,-6.60,-7.20,3.97,3.97,3.97
117.55,10.51,6.58,10.50,6.57,-6.56,-6.61,-7.25,3.95,3.94,3.93
118.73,10.48,6.59,10.48,6.59,-6.58,-6.62,-7.30,3.90,3.90,3.89
119.92,10.45,6.60,10.46,6.60,-6.60,-6.63,-7.33,3.86,3.86,3.86
121.12,10.43,6.60,10.43,6.60,-6.61,-6.63,-7.37,3.82,3.82,3.83
122.33,10.41,6.62,10.41,6.62,-6.63,-6.64,-7.39,3.78,3.79,3.79
123.55,10.39,6.63,10.40,6.64,-6.64,-6.64,-7.41,3.75,3.76,3.76
124.79,10.39,6.66,10.38,6.65,-6.65,-6.65,-7.42,3.74,3.72,3.73
126.03,10.35,6.66,10.36,6.67,-6.67,-6.65,-7.42,3.68,3.69,3.69
127.29,10.32,6.67,10.33,6.68,-6.68,-6.66,-7.41,3.65,3.65,3.65
128.57,10.30,6.69,10.30,6.69,-6.68,-6.66,-7.40,3.62,3.61,3.61
129.85,10.26,6.69,10.26,6.69,-6.69,-6.66,-7.37,3.58,3.58,3.57
131.15,10.23,6.70,10.22,6.69,-6.69,-6.67,-7.35,3.55,3.54,3.53
132.46,10.17,6.68,10.18,6.69,-6.68,-6.67,-7.31,3.49,3.50,3.49
133.79,10.14,6.68,10.13,6.68,-6.68,-6.67,-7.27,3.46,3.46,3.46
135.12,10.09,6.67,10.09,6.66,-6.67,-6.67,-7.22,3.42,3.41,3.42
136.48,10.04,6.64,10.05,6.66,-6.67,-6.67,-7.16,3.37,3.38,3.40
137.84,10.01,6.65,10.02,6.66,-6.66,-6.67,-7.10,3.35,3.35,3.36
139.22,10.00,6.68,9.99,6.66,-6.66,-6.67,-7.04,3.34,3.33,3.32
140.61,9.95,6.66,9.96,6.66,-6.65,-6.67,-6.98,3.30,3.30,3.30
142.02,9.92,6.66,9.92,6.65,-6.65,-6.67,-6.91,3.27,3.27,3.26
143.44,9.87,6.64,9.88,6.64,-6.64,-6.66,-6.84,3.23,3.24,3.23
144.87,9.84,6.63,9.84,6.63,-6.63,-6.66,-6.77,3.21,3.21,3.21
146.32,9.81,6.63,9.80,6.62,-6.62,-6.66,-6.70,3.19,3.18,3.18
147.78,9.76,6.61,9.77,6.61,-6.61,-6.65,-6.62,3.15,3.16,3.15
149.26,9.72,6.60,9.72,6.60,-6.60,-6.65,-6.55,3.12,3.12,3.13
150.75,9.68,6.59,9.68,6.58,-6.58,-6.64,-6.48,3.10,3.09,3.09
152.26,9.63,6.56,9.64,6.57,-6.57,-6.64,-6.41,3.06,3.07,3.07
153.78,9.60,6.56,9.60,6.56,-6.56,-6.63,-6.35,3.04,3.04,3.04
155.32,9.57,6.56,9.56,6.55,-6.56,-6.62,-6.28,3.02,3.01,3.01
156.88,9.52,6.54,9.52,6.55,-6.55,-6.62,-6.22,2.97,2.98,2.98
158.44,9.48,6.54,9.49,6.54,-6.54,-6.61,-6.16,2.94,2.94,2.95
160.03,9.45,6.54,9.45,6.54,-6.54,-6.60,-6.10,2.91,2.91,2.91
161.63,9.42,6.54,9.41,6.53,-6.53,-6.59,-6.05,2.89,2.88,2.88
163.24,9.37,6.53,9.38,6.53,-6.53,-6.58,-6.00,2.84,2.85,2.84
164.88,9.33,6.52,9.33,6.52,-6.52,-6.57,-5.96,2.81,2.81,2.81
166.53,9.29,6.52,9.29,6.51,-6.51,-6.56,-5.91,2.78,2.77,2.77
168.19,9.24,6.50,9.25,6.51,-6.50,-6.54,-5.88,2.74,2.74,2.74
169.87,9.20,6.50,9.20,6.50,-6.49,-6.53,-5.84,2.71,2.71,2.71
171.57,9.16,6.49,9.16,6.49,-6.48,-6.52,-5.81,2.68,2.67,2.67
173.29,9.10,6.47,9.11,6.47,-6.47,-6.50,-5.79,2.63,2.63,2.63
175.02,9.06,6.46,9.06,6.46,-6.46,-6.49,-5.77,2.60,2.59,2.60
176.77,9.00,6.44,9.01,6.45,-6.45,-6.47,-5.75,2.55,2.55,2.56
178.54,8.97,6.44,8.97,6.44,-6.45,-6.46,-5.74,2.53,2.52,2.53
180.32,8.92,6.44,8.93,6.44,-6.44,-6.44,-5.73,2.49,2.49,2.49
182.13,8.89,6.44,8.89,6.43,-6.43,-6.42,-5.73,2.47,2.46,2.45
183.95,8.84,6.42,8.84,6.42,-6.41,-6.41,-5.73,2.43,2.43,2.42
185.79,8.79,6.41,8.79,6.41,-6.40,-6.39,-5.74,2.39,2.39,2.38
187.65,8.74,6.39,8.74,6.39,-6.39,-6.37,-5.74,2.35,2.34,2.35
189.52,8.69,6.38,8.69,6.38,-6.39,-6.35,-5.76,2.30,2.31,2.31
191.42,8.64,6.36,8.65,6.37,-6.38,-6.33,-5.77,2.26,2.27,2.28
193.33,8.61,6.37,8.60,6.36,-6.37,-6.31,-5.80,2.24,2.23,2.24
195.27,8.55,6.35,8.56,6.36,-6.36,-6.28,-5.82,2.19,2.20,2.20
197.22,8.52,6.36,8.52,6.35,-6.35,-6.26,-5.85,2.17,2.17,2.16
199.19,8.49,6.35,8.48,6.35,-6.34,-6.24,-5.88,2.15,2.14,2.14
201.18,8.44,6.34,8.45,6.35,-6.33,-6.21,-5.91,2.11,2.11,2.10
203.19,8.41,6.34,8.40,6.33,-6.32,-6.19,-5.95,2.09,2.08,2.07
205.23,8.35,6.30,8.35,6.30,-6.30,-6.16,-5.99,2.05,2.05,2.05
207.28,8.29,6.27,8.30,6.28,-6.28,-6.14,-6.02,2.01,2.02,2.02
209.35,8.25,6.26,8.25,6.26,-6.26,-6.11,-6.07,1.99,1.99,1.99
211.44,8.20,6.24,8.20,6.23,-6.23,-6.08,-6.11,1.97,1.97,1.96
213.56,8.15,6.21,8.15,6.21,-6.21,-6.06,-6.15,1.94,1.94,1.94
215.69,8.09,6.17,8.09,6.17,-6.18,-6.03,-6.19,1.91,1.91,1.92
217.85,8.03,6.14,8.04,6.15,-6.15,-6.00,-6.23,1.88,1.89,1.90
220.03,7.99,6.13,7.99,6.12,-6.12,-5.97,-6.27,1.87,1.87,1.86
222.23,7.94,6.10,7.94,6.10,-6.09,-5.94,-6.31,1.85,1.85,1.84
224.45,7.89,6.07,7.89,6.07,-6.06,-5.90,-6.34,1.83,1.82,1.82
226.70,7.83,6.03,7.83,6.03,-6.03,-5.87,-6.38,1.80,1.80,1.80
228.96,7.77,5.98,7.78,5.99,-6.00,-5.84,-6.41,1.77,1.77,1.79
231.25,7.73,5.96,7.73,5.96,-5.97,-5.81,-6.43,1.76,1.76,1.77
233.57,7.68,5.93,7.68,5.94,-5.93,-5.77,-6.45,1.75,1.75,1.75
235.90,7.64,5.91,7.64,5.91,-5.90,-5.74,-6.46,1.75,1.74,1.73
238.26,7.58,5.87,7.58,5.87,-5.86,-5.70,-6.47,1.73,1.73,1.71
240.64,7.52,5.81,7.52,5.82,-5.81,-5.66,-6.47,1.71,1.71,1.71
243.05,7.46,5.77,7.46,5.77,-5.77,-5.63,-6.46,1.69,1.69,1.69
245.48,7.40,5.73,7.40,5.72,-5.73,-5.59,-6.45,1.67,1.66,1.67
247.93,7.34,5.69,7.34,5.68,-5.69,-5.55,-6.43,1.65,1.65,1.65
250.41,7.29,5.63,7.30,5.65,-5.65,-5.51,-6.40,1.64,1.64,1.66
252.92,7.26,5.61,7.25,5.61,-5.61,-5.47,-6.36,1.65,1.64,1.65
255.45,7.21,5.58,7.21,5.57,-5.57,-5.43,-6.32,1.64,1.64,1.63
258.00,7.16,5.54,7.17,5.54,-5.53,-5.39,-6.27,1.63,1.63,1.62
260.58,7.12,5.50,7.12,5.50,-5.49,-5.35,-6.20,1.63,1.62,1.62
263.19,7.07,5.46,7.07,5.46,-5.45,-5.30,-6.14,1.62,1.62,1.61
265.82,7.01,5.41,7.01,5.41,-5.40,-5.26,-6.06,1.61,1.61,1.60
268.48,6.95,5.35,6.95,5.35,-5.35,-5.21,-5.99,1.60,1.60,1.60
271.16,6.89,5.30,6.89,5.29,-5.30,-5.17,-5.90,1.59,1.59,1.59
273.87,6.82,5.23,6.83,5.24,-5.25,-5.12,-5.81,1.57,1.58,1.59
276.61,6.77,5.19,6.77,5.19,-5.19,-5.08,-5.71,1.58,1.58,1.58
279.38,6.71,5.14,6.71,5.14,-5.13,-5.03,-5.61,1.58,1.58,1.57
282.17,6.65,5.08,6.65,5.08,-5.08,-4.98,-5.51,1.58,1.58,1.57
284.99,6.59,5.01,6.59,5.02,-5.02,-4.93,-5.40,1.57,1.57,1.58
287.84,6.53,4.95,6.53,4.96,-4.96,-4.88,-5.29,1.57,1.57,1.58
290.72,6.47,4.90,6.47,4.90,-4.90,-4.83,-5.18,1.57,1.57,1.57
293.63,6.41,4.84,6.41,4.84,-4.84,-4.78,-5.07,1.57,1.57,1.57
296.57,6.34,4.76,6.35,4.77,-4.77,-4.73,-4.96,1.57,1.57,1.58
299.53,6.29,4.72,6.29,4.71,-4.71,-4.68,-4.84,1.58,1.58,1.57
302.53,6.23,4.65,6.23,4.65,-4.65,-4.63,-4.73,1.58,1.58,1.58
305.55,6.17,4.59,6.17,4.59,-4.59,-4.57,-4.61,1.58,1.58,1.58
308.61,6.10,4.52,6.10,4.52,-4.53,-4.52,-4.50,1.57,1.58,1.58
311.69,6.04,4.46,6.04,4.46,-4.47,-4.47,-4.39,1.57,1.58,1.58
314.81,5.99,4.41,5.99,4.40,-4.40,-4.41,-4.28,1.59,1.58,1.59
317.96,5.93,4.35,5.93,4.35,-4.34,-4.35,-4.17,1.59,1.59,1.58
321.14,5.87,4.28,5.87,4.28,-4.28,-4.30,-4.06,1.59,1.59,1.59
324.35,5.81,4.22,5.81,4.22,-4.22,-4.24,-3.95,1.59,1.59,1.59
327.59,5.75,4.15,5.75,4.15,-4.16,-4.18,-3.85,1.59,1.59,1.60
330.87,5.69,4.09,5.69,4.09,-4.09,-4.12,-3.75,1.60,1.60,1.60
334.18,5.63,4.03,5.63,4.03,-4.03,-4.06,-3.65,1.60,1.60,1.60
337.52,5.57,3.97,5.57,3.97,-3.96,-4.00,-3.55,1.61,1.61,1.60
340.90,5.51,3.90,5.51,3.90,-3.89,-3.94,-3.45,1.62,1.62,1.61
344.30,5.44,3.82,5.44,3.82,-3.82,-3.88,-3.36,1.62,1.62,1.62
347.75,5.37,3.74,5.37,3.75,-3.75,-3.82,-3.27,1.62,1.62,1.63
351.23,5.30,3.68,5.30,3.67,-3.67,-3.76,-3.18,1.63,1.63,1.63
354.74,5.23,3.59,5.23,3.60,-3.60,-3.69,-3.09,1.63,1.63,1.64
358.28,5.17,3.53,5.17,3.53,-3.53,-3.63,-3.01,1.64,1.64,1.64
361.87,5.10,3.45,5.11,3.46,-3.46,-3.56,-2.92,1.65,1.65,1.65
365.49,5.05,3.39,5.04,3.38,-3.38,-3.50,-2.85,1.67,1.65,1.66
369.14,4.97,3.31,4.98,3.32,-3.32,-3.43,-2.77,1.65,1.66,1.67
372.83,4.91,3.24,4.92,3.25,-3.25,-3.37,-2.69,1.66,1.67,1.67
376.56,4.87,3.20,4.85,3.18,-3.18,-3.30,-2.62,1.69,1.67,1.67
380.33,4.78,3.10,4.80,3.12,-3.11,-3.23,-2.55,1.67,1.68,1.68
384.13,4.74,3.05,4.73,3.05,-3.04,-3.16,-2.48,1.70,1.69,1.69
387.97,4.67,2.97,4.67,2.98,-2.97,-3.09,-2.41,1.70,1.70,1.70
391.85,4.61,2.91,4.61,2.91,-2.90,-3.03,-2.35,1.71,1.71,1.71
395.77,4.55,2.85,4.54,2.83,-2.83,-2.96,-2.29,1.72,1.71,1.70
399.73,4.47,2.76,4.48,2.76,-2.76,-2.88,-2.22,1.71,1.71,1.71
403.72,4.41,2.68,4.41,2.69,-2.69,-2.81,-2.16,1.72,1.72,1.73
407.76,4.35,2.62,4.35,2.62,-2.62,-2.74,-2.11,1.73,1.73,1.73
411.84,4.29,2.55,4.29,2.55,-2.55,-2.67,-2.05,1.74,1.74,1.74
415.96,4.23,2.48,4.23,2.49,-2.48,-2.60,-1.99,1.75,1.75,1.75
420.12,4.17,2.42,4.17,2.42,-2.42,-2.52,-1.94,1.75,1.75,1.75
424.32,4.11,2.36,4.11,2.35,-2.35,-2.45,-1.89,1.76,1.76,1.76
428.56,4.05,2.28,4.06,2.29,-2.29,-2.38,-1.84,1.76,1.77,1.77
432.85,4.00,2.22,4.00,2.22,-2.23,-2.30,-1.78,1.77,1.78,1.78
437.18,3.96,2.18,3.95,2.16,-2.17,-2.23,-1.73,1.80,1.78,1.78
441.55,3.89,2.10,3.89,2.10,-2.10,-2.15,-1.69,1.79,1.79,1.79
445.96,3.83,2.03,3.84,2.04,-2.04,-2.08,-1.64,1.79,1.80,1.80
450.42,3.78,1.97,3.78,1.97,-1.97,-2.00,-1.59,1.81,1.81,1.81
454.93,3.74,1.92,3.73,1.91,-1.90,-1.92,-1.54,1.84,1.83,1.82
459.48,3.66,1.83,3.67,1.84,-1.83,-1.84,-1.49,1.83,1.84,1.83
464.07,3.61,1.76,3.61,1.76,-1.76,-1.77,-1.44,1.85,1.85,1.85
468.71,3.53,1.68,3.53,1.68,-1.68,-1.69,-1.40,1.85,1.85,1.86
473.40,3.47,1.61,3.47,1.60,-1.61,-1.61,-1.35,1.86,1.86,1.87
478.13,3.39,1.52,3.40,1.52,-1.53,-1.53,-1.30,1.86,1.86,1.87
482.91,3.33,1.45,3.33,1.45,-1.46,-1.45,-1.25,1.87,1.88,1.88
487.74,3.27,1.38,3.27,1.38,-1.38,-1.37,-1.21,1.89,1.89,1.89
492.62,3.21,1.31,3.21,1.31,-1.31,-1.29,-1.16,1.91,1.91,1.90
497.55,3.15,1.24,3.15,1.24,-1.23,-1.21,-1.11,1.92,1.92,1.91
502.52,3.09,1.17,3.09,1.17,-1.15,-1.13,-1.06,1.94,1.93,1.92
507.55,3.02,1.08,3.02,1.08,-1.08,-1.05,-1.01,1.94,1.94,1.94
512.62,2.95,1.00,2.95,1.00,-1.00,-0.97,-0.96,1.95,1.95,1.95
