frequency,raw,error,smoothed,error_smoothed,equalization,parametric_eq,fixed_band_eq,equalized_raw,equalized_smoothed,target
20.00,-8.25,-13.60,-8.25,-13.60,6.00,5.89,2.71,-2.25,-2.25,5.36
20.20,-8.18,-13.53,-8.18,-13.54,6.00,5.90,2.78,-2.18,-2.18,5.36
20.40,-8.11,-13.47,-8.10,-13.47,6.00,5.90,2.87,-2.11,-2.10,5.37
20.61,-8.04,-13.41,-8.03,-13.41,6.00,5.90,2.95,-2.04,-2.03,5.38
20.81,-7.96,-13.33,-7.96,-13.34,6.00,5.91,3.03,-1.96,-1.96,5.38
21.02,-7.89,-13.27,-7.89,-13.27,6.00,5.91,3.12,-1.89,-1.89,5.38
21.23,-7.82,-13.20,-7.81,-13.20,6.00,5.92,3.21,-1.82,-1.81,5.38
21.44,-7.74,-13.13,-7.74,-13.13,6.00,5.92,3.31,-1.74,-1.74,5.39
21.66,-7.67,-13.07,-7.66,-13.06,6.00,5.92,3.40,-1.67,-1.66,5.40
21.87,-7.59,-12.99,-7.59,-13.00,6.00,5.93,3.50,-1.59,-1.59,5.40
22.09,-7.52,-12.93,-7.52,-12.93,6.00,5.93,3.60,-1.52,-1.52,5.41
22.31,-7.45,-12.87,-7.44,-12.86,6.00,5.94,3.71,-1.45,-1.44,5.42
22.54,-7.38,-12.80,-7.37,-12.80,6.00,5.94,3.81,-1.38,-1.37,5.42
22.76,-7.30,-12.73,-7.30,-12.73,6.00,5.94,3.92,-1.30,-1.30,5.43
22.99,-7.23,-12.67,-7.23,-12.67,6.00,5.95,4.04,-1.23,-1.23,5.44
23.22,-7.16,-12.61,-7.15,-12.60,6.00,5.95,4.15,-1.16,-1.15,5.45
23.45,-7.08,-12.54,-7.08,-12.54,6.00,5.96,4.27,-1.08,-1.08,5.46
23.69,-7.01,-12.48,-7.00,-12.47,6.00,5.96,4.39,-1.01,-1.00,5.47
23.92,-6.93,-12.41,-6.93,-12.41,6.00,5.96,4.51,-0.93,-0.93,5.48
24.16,-6.86,-12.35,-6.86,-12.35,6.00,5.97,4.64,-0.86,-0.86,5.49
24.40,-6.78,-12.29,-6.78,-12.28,6.00,5.97,4.77,-0.78,-0.78,5.50
24.65,-6.71,-12.23,-6.71,-12.23,6.00,5.98,4.90,-0.71,-0.71,5.52
24.89,-6.63,-12.16,-6.64,-12.17,6.00,5.98,5.03,-0.63,-0.64,5.53
25.14,-6.57,-12.10,-6.56,-12.10,6.00,5.98,5.16,-0.57,-0.56,5.54
25.39,-6.48,-12.03,-6.49,-12.04,6.00,5.99,5.30,-0.48,-0.49,5.55
25.65,-6.41,-11.96,-6.41,-11.97,6.00,5.99,5.43,-0.41,-0.41,5.56
25.91,-6.34,-11.91,-6.33,-11.91,6.00,6.00,5.57,-0.34,-0.33,5.58
26.16,-6.26,-11.84,-6.26,-11.84,6.00,6.00,5.71,-0.26,-0.26,5.59
26.43,-6.19,-11.78,-6.19,-11.78,6.00,6.00,5.84,-0.19,-0.19,5.60
26.69,-6.12,-11.72,-6.12,-11.72,6.00,6.01,5.98,-0.12,-0.12,5.61
26.96,-6.05,-11.67,-6.05,-11.67,6.00,6.01,6.11,-0.05,-0.05,5.62
27.23,-5.98,-11.61,-5.97,-11.61,6.00,6.02,6.24,0.02,0.03,5.63
27.50,-5.90,-11.55,-5.90,-11.55,6.00,6.02,6.37,0.10,0.10,5.65
27.77,-5.83,-11.49,-5.83,-11.49,6.00,6.02,6.50,0.17,0.17,5.66
28.05,-5.76,-11.44,-5.76,-11.44,6.00,6.03,6.62,0.24,0.24,5.68
28.33,-5.69,-11.38,-5.69,-11.38,6.00,6.03,6.74,0.31,0.31,5.69
28.62,-5.62,-11.33,-5.61,-11.32,6.00,6.04,6.85,0.38,0.39,5.71
28.90,-5.54,-11.26,-5.54,-11.26,6.00,6.04,6.96,0.46,0.46,5.72
29.19,-5.47,-11.20,-5.47,-11.20,6.00,6.04,7.06,0.53,0.53,5.74
29.48,-5.40,-11.14,-5.39,-11.14,6.00,6.05,7.15,0.60,0.61,5.75
29.78,-5.33,-11.09,-5.33,-11.09,6.00,6.05,7.23,0.67,0.67,5.77
30.08,-5.26,-11.03,-5.26,-11.04,6.00,6.06,7.30,0.74,0.74,5.78
30.38,-5.20,-10.99,-5.20,-10.99,6.00,6.06,7.37,0.80,0.80,5.79
30.68,-5.14,-10.94,-5.13,-10.94,6.00,6.06,7.42,0.86,0.87,5.80
30.99,-5.07,-10.89,-5.07,-10.89,6.00,6.07,7.46,0.93,0.93,5.82
31.30,-5.01,-10.84,-5.00,-10.84,6.00,6.07,7.49,0.99,1.00,5.83
31.61,-4.94,-10.79,-4.94,-10.79,6.00,6.08,7.51,1.06,1.06,5.85
31.93,-4.88,-10.74,-4.88,-10.74,6.00,6.08,7.52,1.12,1.12,5.86
32.24,-4.82,-10.69,-4.82,-10.69,6.00,6.08,7.52,1.18,1.18,5.88
32.57,-4.76,-10.64,-4.76,-10.64,6.00,6.09,7.51,1.24,1.24,5.89
32.89,-4.70,-10.60,-4.70,-10.60,6.00,6.09,7.49,1.30,1.30,5.90
33.22,-4.64,-10.55,-4.63,-10.55,6.00,6.10,7.46,1.36,1.37,5.91
33.55,-4.57,-10.50,-4.57,-10.50,6.00,6.10,7.43,1.43,1.43,5.93
33.89,-4.51,-10.45,-4.51,-10.45,6.00,6.10,7.38,1.49,1.49,5.94
34.23,-4.45,-10.40,-4.44,-10.40,6.00,6.11,7.33,1.55,1.56,5.96
34.57,-4.38,-10.34,-4.38,-10.35,6.00,6.11,7.27,1.62,1.62,5.97
34.92,-4.32,-10.29,-4.31,-10.29,6.00,6.11,7.21,1.68,1.69,5.97
35.27,-4.25,-10.24,-4.25,-10.24,6.00,6.12,7.14,1.75,1.75,5.99
35.62,-4.19,-10.19,-4.19,-10.19,6.00,6.12,7.07,1.81,1.81,6.00
35.97,-4.13,-10.13,-4.13,-10.14,6.00,6.13,7.00,1.87,1.87,6.01
36.33,-4.08,-10.09,-4.07,-10.09,6.00,6.13,6.92,1.92,1.93,6.02
36.70,-4.02,-10.04,-4.02,-10.04,6.00,6.13,6.85,1.98,1.98,6.02
37.06,-3.96,-9.99,-3.96,-9.99,6.00,6.14,6.77,2.04,2.04,6.03
37.43,-3.90,-9.93,-3.90,-9.94,6.00,6.14,6.70,2.10,2.10,6.04
37.81,-3.84,-9.88,-3.84,-9.88,6.00,6.14,6.62,2.16,2.16,6.05
38.19,-3.78,-9.83,-3.77,-9.83,6.00,6.15,6.55,2.22,2.23,6.05
38.57,-3.71,-9.77,-3.71,-9.77,6.00,6.15,6.47,2.29,2.29,6.06
38.95,-3.65,-9.71,-3.65,-9.72,6.00,6.15,6.40,2.35,2.35,6.07
39.34,-3.59,-9.66,-3.58,-9.66,6.00,6.16,6.33,2.41,2.42,6.07
39.74,-3.53,-9.61,-3.53,-9.60,6.00,6.16,6.27,2.47,2.47,6.08
40.14,-3.47,-9.55,-3.47,-9.55,6.00,6.16,6.21,2.53,2.53,6.08
40.54,-3.41,-9.49,-3.41,-9.49,6.00,6.17,6.15,2.59,2.59,6.08
40.94,-3.35,-9.44,-3.35,-9.44,6.00,6.17,6.09,2.65,2.65,6.09
41.35,-3.30,-9.39,-3.29,-9.39,6.00,6.17,6.04,2.70,2.71,6.10
41.76,-3.25,-9.35,-3.24,-9.35,6.00,6.17,5.99,2.75,2.76,6.10
42.18,-3.20,-9.31,-3.20,-9.31,6.00,6.18,5.95,2.80,2.80,6.11
42.60,-3.16,-9.27,-3.16,-9.27,6.00,6.18,5.91,2.84,2.84,6.12
43.03,-3.12,-9.24,-3.11,-9.24,6.00,6.18,5.88,2.88,2.89,6.12
43.46,-3.08,-9.20,-3.08,-9.20,6.00,6.19,5.85,2.92,2.92,6.13
43.90,-3.04,-9.17,-3.04,-9.18,6.00,6.19,5.82,2.96,2.96,6.13
44.33,-3.01,-9.15,-3.00,-9.15,6.00,6.19,5.80,2.99,3.00,6.15
44.78,-2.98,-9.13,-2.97,-9.13,6.00,6.19,5.78,3.02,3.03,6.15
45.23,-2.95,-9.10,-2.95,-9.11,6.00,6.19,5.77,3.05,3.05,6.16
45.68,-2.93,-9.10,-2.92,-9.10,6.00,6.20,5.76,3.07,3.08,6.17
46.13,-2.91,-9.08,-2.91,-9.09,6.00,6.20,5.75,3.09,3.09,6.18
46.60,-2.89,-9.08,-2.89,-9.08,6.00,6.20,5.75,3.11,3.11,6.19
47.06,-2.88,-9.07,-2.87,-9.07,6.00,6.20,5.76,3.12,3.13,6.20
47.53,-2.86,-9.07,-2.86,-9.07,6.00,6.20,5.76,3.14,3.14,6.21
48.01,-2.85,-9.06,-2.85,-9.06,6.00,6.21,5.78,3.15,3.15,6.21
48.49,-2.85,-9.07,-2.84,-9.07,6.00,6.21,5.79,3.15,3.16,6.23
48.97,-2.84,-9.07,-2.84,-9.07,6.00,6.21,5.81,3.16,3.16,6.23
49.46,-2.84,-9.08,-2.84,-9.08,6.00,6.21,5.83,3.16,3.16,6.24
49.96,-2.84,-9.08,-2.84,-9.08,6.00,6.21,5.86,3.16,3.16,6.25
50.46,-2.85,-9.09,-2.85,-9.10,6.00,6.21,5.89,3.15,3.15,6.25
50.96,-2.87,-9.13,-2.86,-9.12,6.00,6.21,5.92,3.13,3.14,6.26
51.47,-2.88,-9.14,-2.88,-9.14,6.00,6.21,5.95,3.12,3.12,6.26
51.99,-2.90,-9.16,-2.90,-9.16,6.00,6.21,5.99,3.10,3.10,6.26
52.51,-2.93,-9.19,-2.93,-9.19,6.00,6.22,6.02,3.07,3.07,6.26
53.03,-2.96,-9.22,-2.95,-9.22,6.00,6.22,6.06,3.04,3.05,6.27
53.56,-2.97,-9.24,-2.97,-9.24,6.00,6.22,6.10,3.03,3.03,6.28
54.10,-2.98,-9.25,-2.98,-9.26,6.00,6.22,6.14,3.02,3.02,6.28
54.64,-3.01,-9.28,-3.00,-9.28,6.00,6.22,6.18,2.99,3.00,6.28
55.18,-3.03,-9.29,-3.03,-9.30,6.00,6.22,6.22,2.97,2.97,6.27
55.74,-3.06,-9.32,-3.05,-9.32,6.00,6.22,6.26,2.94,2.95,6.27
56.29,-3.08,-9.34,-3.08,-9.34,6.00,6.21,6.29,2.92,2.92,6.26
56.86,-3.10,-9.35,-3.10,-9.36,6.00,6.21,6.33,2.90,2.90,6.25
57.42,-3.13,-9.38,-3.12,-9.37,6.00,6.21,6.36,2.87,2.88,6.25
58.00,-3.15,-9.38,-3.15,-9.39,6.00,6.21,6.39,2.85,2.85,6.24
58.58,-3.17,-9.40,-3.17,-9.40,6.00,6.21,6.42,2.83,2.83,6.24
59.16,-3.20,-9.42,-3.19,-9.42,6.00,6.21,6.44,2.80,2.81,6.22
59.76,-3.23,-9.43,-3.22,-9.43,6.00,6.21,6.46,2.77,2.78,6.21
60.35,-3.26,-9.45,-3.26,-9.46,6.00,6.21,6.47,2.74,2.74,6.19
60.96,-3.31,-9.49,-3.31,-9.49,6.00,6.21,6.48,2.69,2.69,6.18
61.57,-3.37,-9.53,-3.36,-9.53,6.00,6.20,6.49,2.63,2.64,6.16
62.18,-3.43,-9.58,-3.43,-9.58,6.00,6.20,6.49,2.57,2.57,6.15
62.80,-3.51,-9.64,-3.50,-9.63,6.00,6.20,6.48,2.49,2.50,6.13
63.43,-3.58,-9.69,-3.58,-9.69,6.00,6.20,6.47,2.42,2.42,6.12
64.07,-3.66,-9.75,-3.66,-9.76,6.00,6.19,6.46,2.34,2.34,6.09
64.71,-3.76,-9.83,-3.75,-9.83,6.00,6.19,6.44,2.24,2.25,6.07
65.35,-3.86,-9.91,-3.85,-9.91,6.00,6.19,6.41,2.14,2.15,6.05
66.01,-3.96,-9.99,-3.96,-10.00,6.00,6.18,6.38,2.04,2.04,6.04
66.67,-4.07,-10.08,-4.06,-10.08,6.00,6.18,6.35,1.93,1.94,6.02
67.33,-4.17,-10.16,-4.17,-10.16,6.00,6.18,6.31,1.83,1.83,6.00
68.01,-4.28,-10.24,-4.28,-10.25,6.00,6.17,6.27,1.72,1.72,5.97
68.69,-4.40,-10.34,-4.39,-10.34,6.00,6.17,6.23,1.60,1.61,5.95
69.37,-4.52,-10.44,-4.52,-10.44,6.00,6.16,6.19,1.48,1.48,5.93
70.07,-4.64,-10.54,-4.64,-10.54,6.00,6.16,6.14,1.36,1.36,5.90
70.77,-4.77,-10.65,-4.77,-10.65,6.00,6.16,6.09,1.23,1.23,5.88
71.48,-4.89,-10.74,-4.89,-10.74,6.00,6.15,6.04,1.11,1.11,5.86
72.19,-5.00,-10.83,-4.99,-10.83,6.00,6.15,5.99,1.00,1.01,5.83
72.91,-5.09,-10.91,-5.08,-10.90,6.00,6.14,5.94,0.91,0.92,5.82
73.64,-5.15,-10.94,-5.15,-10.95,6.00,6.14,5.89,0.85,0.85,5.80
74.38,-5.20,-10.98,-5.20,-10.98,6.00,6.13,5.84,0.80,0.80,5.78
75.12,-5.24,-10.99,-5.23,-10.99,6.00,6.12,5.79,0.76,0.77,5.75
75.87,-5.25,-10.98,-5.25,-10.98,6.00,6.12,5.74,0.75,0.75,5.74
76.63,-5.24,-10.96,-5.24,-10.96,6.00,6.11,5.70,0.76,0.76,5.72
77.40,-5.21,-10.91,-5.20,-10.91,6.00,6.11,5.66,0.79,0.80,5.70
78.17,-5.15,-10.83,-5.15,-10.83,6.00,6.10,5.62,0.85,0.85,5.68
78.95,-5.07,-10.73,-5.07,-10.73,6.00,6.09,5.58,0.93,0.93,5.67
79.74,-4.97,-10.61,-4.97,-10.61,6.00,6.09,5.54,1.03,1.03,5.65
80.54,-4.86,-10.48,-4.86,-10.48,6.00,6.08,5.51,1.14,1.14,5.63
81.35,-4.73,-10.33,-4.73,-10.33,6.00,6.07,5.48,1.27,1.27,5.60
82.16,-4.60,-10.18,-4.59,-10.17,6.00,6.07,5.46,1.40,1.41,5.58
82.98,-4.44,-10.00,-4.44,-10.00,6.00,6.06,5.44,1.56,1.56,5.56
83.81,-4.28,-9.82,-4.27,-9.81,6.00,6.05,5.42,1.72,1.73,5.54
84.65,-4.10,-9.61,-4.10,-9.62,6.00,6.05,5.41,1.90,1.90,5.52
85.50,-3.93,-9.42,-3.93,-9.42,6.00,6.04,5.40,2.07,2.07,5.49
86.35,-3.76,-9.23,-3.75,-9.22,6.00,6.03,5.39,2.24,2.25,5.47
87.22,-3.59,-9.03,-3.59,-9.04,6.00,6.02,5.39,2.41,2.41,5.44
88.09,-3.44,-8.86,-3.44,-8.86,6.00,6.02,5.39,2.56,2.56,5.42
88.97,-3.30,-8.70,-3.29,-8.70,6.00,6.01,5.40,2.70,2.71,5.40
89.86,-3.17,-8.55,-3.17,-8.55,6.00,6.00,5.41,2.83,2.83,5.38
90.76,-3.05,-8.40,-3.05,-8.41,6.00,6.00,5.42,2.95,2.95,5.35
91.66,-2.95,-8.28,-2.94,-8.28,6.00,5.99,5.44,3.05,3.06,5.34
92.58,-2.85,-8.16,-2.84,-8.15,6.00,5.98,5.46,3.15,3.16,5.31
93.51,-2.75,-8.03,-2.75,-8.03,6.00,5.98,5.49,3.25,3.25,5.28
94.44,-2.66,-7.92,-2.66,-7.92,6.00,5.97,5.52,3.34,3.34,5.26
95.39,-2.59,-7.82,-2.59,-7.83,6.00,5.96,5.55,3.41,3.41,5.24
96.34,-2.53,-7.74,-2.53,-7.74,6.00,5.96,5.59,3.47,3.47,5.22
97.30,-2.48,-7.67,-2.48,-7.66,6.00,5.95,5.63,3.52,3.52,5.19
98.28,-2.44,-7.60,-2.43,-7.60,6.00,5.94,5.67,3.56,3.57,5.16
99.26,-2.40,-7.53,-2.40,-7.54,6.00,5.94,5.71,3.60,3.60,5.13
100.25,-2.38,-7.49,-2.37,-7.48,6.00,5.93,5.76,3.62,3.63,5.11
101.25,-2.36,-7.44,-2.36,-7.44,6.00,5.93,5.81,3.64,3.64,5.08
102.27,-2.35,-7.40,-2.35,-7.40,6.00,5.93,5.87,3.65,3.65,5.05
103.29,-2.35,-7.36,-2.35,-7.36,6.00,5.92,5.92,3.65,3.65,5.02
104.32,-2.35,-7.33,-2.34,-7.33,6.00,5.92,5.98,3.65,3.66,4.99
105.37,-2.34,-7.29,-2.33,-7.29,6.00,5.92,6.03,3.66,3.67,4.96
106.42,-2.33,-7.24,-2.33,-7.25,6.00,5.92,6.09,3.67,3.67,4.92
107.48,-2.34,-7.21,-2.34,-7.22,6.00,5.92,6.15,3.66,3.66,4.88
108.56,-2.36,-7.19,-2.35,-7.19,6.00,5.92,6.21,3.64,3.65,4.84
109.64,-2.37,-7.17,-2.37,-7.17,6.00,5.93,6.26,3.63,3.63,4.80
110.74,-2.38,-7.14,-2.38,-7.14,6.00,5.93,6.31,3.62,3.62,4.76
111.85,-2.38,-7.10,-2.37,-7.09,6.00,5.93,6.37,3.62,3.63,4.72
112.97,-2.37,-7.04,-2.36,-7.04,6.00,5.94,6.41,3.63,3.64,4.67
114.10,-2.35,-6.98,-2.35,-6.98,6.00,5.95,6.46,3.65,3.65,4.63
115.24,-2.33,-6.91,-2.33,-6.92,6.00,5.96,6.50,3.67,3.67,4.59
116.39,-2.31,-6.85,-2.30,-6.85,6.00,5.96,6.54,3.69,3.70,4.55
117.55,-2.28,-6.78,-2.28,-6.78,6.00,5.97,6.57,3.72,3.72,4.50
118.73,-2.25,-6.71,-2.24,-6.70,6.00,5.99,6.59,3.75,3.76,4.46
119.92,-2.21,-6.62,-2.21,-6.63,6.00,6.00,6.61,3.79,3.79,4.42
121.12,-2.18,-6.56,-2.18,-6.56,6.00,6.01,6.62,3.82,3.82,4.38
122.33,-2.16,-6.50,-2.15,-6.49,6.00,6.01,6.63,3.84,3.85,4.34
123.55,-2.13,-6.43,-2.13,-6.43,6.00,6.02,6.62,3.88,3.88,4.31
124.79,-2.10,-6.37,-2.09,-6.37,6.01,6.03,6.61,3.91,3.91,4.27
126.03,-2.06,-6.29,-2.06,-6.30,6.01,6.03,6.60,3.95,3.95,4.24
127.29,-2.03,-6.23,-2.03,-6.23,6.01,6.03,6.57,3.98,3.98,4.20
128.57,-2.00,-6.16,-1.99,-6.16,6.00,6.02,6.54,4.01,4.02,4.17
129.85,-1.95,-6.08,-1.95,-6.09,5.99,6.01,6.50,4.05,4.04,4.13
131.15,-1.92,-6.02,-1.92,-6.02,5.97,5.99,6.45,4.05,4.05,4.10
132.46,-1.90,-5.96,-1.89,-5.96,5.94,5.97,6.39,4.04,4.05,4.07
133.79,-1.87,-5.91,-1.87,-5.91,5.90,5.94,6.33,4.03,4.03,4.05
135.12,-1.84,-5.85,-1.83,-5.85,5.85,5.90,6.27,4.01,4.02,4.02
136.48,-1.81,-5.79,-1.80,-5.79,5.80,5.86,6.20,3.99,4.00,3.98
137.84,-1.77,-5.72,-1.78,-5.73,5.75,5.82,6.12,3.98,3.97,3.95
139.22,-1.76,-5.68,-1.75,-5.68,5.69,5.77,6.04,3.94,3.94,3.92
140.61,-1.74,-5.63,-1.73,-5.63,5.64,5.72,5.96,3.91,3.91,3.90
142.02,-1.72,-5.59,-1.72,-5.59,5.60,5.66,5.87,3.88,3.88,3.88
143.44,-1.71,-5.55,-1.71,-5.56,5.56,5.61,5.78,3.85,3.85,3.85
144.87,-1.71,-5.53,-1.70,-5.52,5.52,5.55,5.69,3.81,3.82,3.82
146.32,-1.70,-5.48,-1.70,-5.49,5.48,5.49,5.60,3.79,3.78,3.78
147.78,-1.69,-5.44,-1.69,-5.45,5.44,5.44,5.51,3.76,3.75,3.76
149.26,-1.68,-5.41,-1.67,-5.40,5.40,5.38,5.41,3.72,3.73,3.73
150.75,-1.65,-5.35,-1.65,-5.36,5.35,5.32,5.32,3.70,3.70,3.71
152.26,-1.63,-5.31,-1.62,-5.30,5.30,5.27,5.23,3.67,3.67,3.68
153.78,-1.59,-5.24,-1.59,-5.24,5.24,5.22,5.14,3.65,3.65,3.65
155.32,-1.56,-5.18,-1.56,-5.18,5.18,5.17,5.05,3.63,3.63,3.63
156.88,-1.52,-5.12,-1.52,-5.12,5.12,5.12,4.96,3.61,3.61,3.60
158.44,-1.49,-5.07,-1.48,-5.06,5.06,5.07,4.87,3.58,3.58,3.58
160.03,-1.45,-5.00,-1.45,-5.01,5.01,5.02,4.79,3.56,3.55,3.55
161.63,-1.43,-4.96,-1.43,-4.95,4.95,4.97,4.71,3.53,3.53,3.53
163.24,-1.41,-4.91,-1.40,-4.90,4.90,4.93,4.63,3.50,3.50,3.50
164.88,-1.38,-4.86,-1.38,-4.86,4.86,4.88,4.55,3.48,3.48,3.48
166.53,-1.36,-4.81,-1.36,-4.81,4.82,4.84,4.48,3.46,3.46,3.45
168.19,-1.36,-4.78,-1.35,-4.78,4.79,4.80,4.41,3.43,3.43,3.42
169.87,-1.36,-4.75,-1.36,-4.75,4.76,4.76,4.34,3.40,3.40,3.39
171.57,-1.37,-4.73,-1.37,-4.73,4.73,4.72,4.27,3.36,3.36,3.37
173.29,-1.38,-4.71,-1.37,-4.71,4.70,4.68,4.21,3.33,3.33,3.34
175.02,-1.38,-4.69,-1.38,-4.69,4.68,4.64,4.15,3.30,3.30,3.31
176.77,-1.38,-4.65,-1.38,-4.66,4.65,4.60,4.09,3.27,3.27,3.28
178.54,-1.38,-4.63,-1.38,-4.62,4.62,4.56,4.04,3.25,3.25,3.25
180.32,-1.38,-4.59,-1.38,-4.59,4.59,4.52,3.99,3.22,3.22,3.22
182.13,-1.38,-4.57,-1.38,-4.56,4.56,4.49,3.94,3.19,3.19,3.19
183.95,-1.38,-4.53,-1.38,-4.53,4.53,4.45,3.90,3.16,3.16,3.16
185.79,-1.38,-4.50,-1.38,-4.50,4.50,4.41,3.86,3.13,3.13,3.12
187.65,-1.38,-4.48,-1.38,-4.47,4.48,4.38,3.82,3.10,3.10,3.10
189.52,-1.38,-4.44,-1.38,-4.44,4.45,4.34,3.78,3.07,3.07,3.07
191.42,-1.39,-4.42,-1.38,-4.42,4.42,4.31,3.75,3.04,3.04,3.03
193.33,-1.39,-4.39,-1.39,-4.39,4.40,4.27,3.72,3.01,3.01,3.00
195.27,-1.40,-4.38,-1.39,-4.37,4.37,4.24,3.69,2.97,2.97,2.98
197.22,-1.40,-4.35,-1.40,-4.34,4.34,4.20,3.67,2.94,2.94,2.95
199.19,-1.40,-4.31,-1.40,-4.31,4.30,4.17,3.64,2.91,2.91,2.92
201.18,-1.39,-4.26,-1.39,-4.27,4.26,4.13,3.62,2.88,2.88,2.88
203.19,-1.38,-4.22,-1.37,-4.22,4.22,4.10,3.60,2.84,2.84,2.85
205.23,-1.35,-4.16,-1.35,-4.17,4.16,4.07,3.59,2.82,2.81,2.82
207.28,-1.33,-4.11,-1.32,-4.11,4.11,4.03,3.57,2.78,2.78,2.79
209.35,-1.29,-4.04,-1.29,-4.05,4.04,4.00,3.56,2.76,2.75,2.76
211.44,-1.26,-3.98,-1.26,-3.98,3.98,3.96,3.54,2.72,2.72,2.72
213.56,-1.23,-3.92,-1.22,-3.91,3.91,3.93,3.53,2.68,2.69,2.69
215.69,-1.19,-3.84,-1.19,-3.84,3.84,3.89,3.52,2.65,2.65,2.65
217.85,-1.15,-3.76,-1.15,-3.77,3.77,3.86,3.51,2.63,2.62,2.61
220.03,-1.13,-3.71,-1.12,-3.71,3.71,3.83,3.50,2.59,2.59,2.59
222.23,-1.10,-3.66,-1.10,-3.65,3.66,3.79,3.49,2.56,2.56,2.56
224.45,-1.08,-3.60,-1.08,-3.60,3.61,3.76,3.49,2.53,2.53,2.52
226.70,-1.06,-3.55,-1.06,-3.56,3.57,3.72,3.48,2.51,2.51,2.50
228.96,-1.06,-3.53,-1.06,-3.52,3.53,3.69,3.47,2.48,2.48,2.47
231.25,-1.06,-3.50,-1.05,-3.50,3.50,3.65,3.46,2.44,2.45,2.44
233.57,-1.06,-3.48,-1.05,-3.48,3.47,3.61,3.44,2.41,2.42,2.43
235.90,-1.05,-3.45,-1.05,-3.45,3.44,3.58,3.43,2.40,2.39,2.40
238.26,-1.04,-3.42,-1.04,-3.42,3.41,3.54,3.42,2.38,2.38,2.38
240.64,-1.02,-3.39,-1.02,-3.39,3.38,3.50,3.40,2.36,2.36,2.37
243.05,-1.00,-3.35,-0.99,-3.35,3.35,3.47,3.39,2.35,2.35,2.35
245.48,-0.97,-3.30,-0.97,-3.31,3.31,3.43,3.37,2.34,2.34,2.34
247.93,-0.94,-3.26,-0.94,-3.26,3.27,3.39,3.35,2.33,2.33,2.32
250.41,-0.92,-3.22,-0.91,-3.22,3.22,3.35,3.33,2.30,2.31,2.31
252.92,-0.88,-3.17,-0.88,-3.17,3.17,3.31,3.30,2.30,2.29,2.29
255.45,-0.85,-3.13,-0.85,-3.13,3.12,3.27,3.28,2.28,2.28,2.28
258.00,-0.81,-3.07,-0.81,-3.08,3.07,3.23,3.25,2.26,2.26,2.27
260.58,-0.77,-3.03,-0.76,-3.02,3.02,3.19,3.22,2.25,2.25,2.26
263.19,-0.72,-2.96,-0.72,-2.96,2.96,3.14,3.19,2.25,2.25,2.25
265.82,-0.67,-2.90,-0.67,-2.91,2.91,3.10,3.16,2.24,2.24,2.23
268.48,-0.64,-2.86,-0.63,-2.85,2.86,3.05,3.13,2.22,2.23,2.22
271.16,-0.60,-2.80,-0.59,-2.80,2.81,3.01,3.09,2.21,2.21,2.21
273.87,-0.56,-2.75,-0.56,-2.76,2.76,2.96,3.05,2.20,2.20,2.19
276.61,-0.54,-2.72,-0.54,-2.72,2.71,2.91,3.02,2.18,2.18,2.18
279.38,-0.52,-2.68,-0.51,-2.68,2.67,2.86,2.98,2.16,2.16,2.17
282.17,-0.49,-2.64,-0.49,-2.64,2.64,2.80,2.94,2.15,2.15,2.15
284.99,-0.46,-2.60,-0.46,-2.60,2.60,2.75,2.90,2.15,2.14,2.14
287.84,-0.44,-2.56,-0.44,-2.57,2.58,2.69,2.86,2.14,2.14,2.13
290.72,-0.43,-2.54,-0.42,-2.54,2.55,2.64,2.82,2.12,2.12,2.12
293.63,-0.42,-2.52,-0.42,-2.52,2.52,2.58,2.79,2.11,2.11,2.10
296.57,-0.41,-2.50,-0.41,-2.50,2.50,2.52,2.75,2.09,2.09,2.09
299.53,-0.40,-2.47,-0.40,-2.47,2.47,2.46,2.71,2.07,2.07,2.08
302.53,-0.39,-2.45,-0.38,-2.45,2.44,2.40,2.67,2.05,2.06,2.07
305.55,-0.37,-2.41,-0.37,-2.41,2.41,2.34,2.63,2.04,2.04,2.04
308.61,-0.35,-2.38,-0.35,-2.38,2.37,2.28,2.60,2.03,2.03,2.03
311.69,-0.32,-2.34,-0.32,-2.34,2.33,2.22,2.56,2.02,2.01,2.02
314.81,-0.30,-2.29,-0.29,-2.29,2.29,2.16,2.53,1.99,2.00,2.00
317.96,-0.26,-2.24,-0.26,-2.24,2.24,2.10,2.50,1.99,1.98,1.99
321.14,-0.23,-2.19,-0.23,-2.19,2.19,2.05,2.46,1.97,1.97,1.96
324.35,-0.20,-2.15,-0.19,-2.14,2.14,2.01,2.43,1.95,1.95,1.95
327.59,-0.16,-2.09,-0.16,-2.10,2.09,1.96,2.41,1.94,1.93,1.93
330.87,-0.14,-2.05,-0.13,-2.05,2.05,1.93,2.38,1.91,1.92,1.92
334.18,-0.11,-2.00,-0.10,-2.00,2.01,1.90,2.35,1.90,1.90,1.90
337.52,-0.08,-1.96,-0.08,-1.97,1.97,1.88,2.33,1.90,1.89,1.89
340.90,-0.07,-1.93,-0.06,-1.93,1.94,1.86,2.31,1.87,1.88,1.86
344.30,-0.06,-1.91,-0.06,-1.91,1.92,1.85,2.29,1.86,1.86,1.85
347.75,-0.06,-1.89,-0.06,-1.89,1.89,1.85,2.27,1.84,1.83,1.83
351.23,-0.07,-1.88,-0.07,-1.88,1.88,1.85,2.25,1.81,1.81,1.81
354.74,-0.08,-1.88,-0.07,-1.87,1.86,1.85,2.23,1.79,1.79,1.80
358.28,-0.08,-1.85,-0.08,-1.85,1.85,1.86,2.22,1.77,1.77,1.78
361.87,-0.08,-1.83,-0.08,-1.84,1.83,1.87,2.21,1.76,1.76,1.76
365.49,-0.08,-1.82,-0.08,-1.82,1.82,1.89,2.20,1.74,1.74,1.75
369.14,-0.08,-1.80,-0.08,-1.80,1.80,1.90,2.19,1.72,1.72,1.72
372.83,-0.08,-1.79,-0.08,-1.79,1.78,1.92,2.18,1.70,1.70,1.71
376.56,-0.08,-1.77,-0.07,-1.77,1.76,1.93,2.17,1.68,1.69,1.69
380.33,-0.07,-1.74,-0.07,-1.74,1.74,1.94,2.17,1.67,1.67,1.67
384.13,-0.06,-1.72,-0.06,-1.72,1.72,1.96,2.17,1.67,1.66,1.66
387.97,-0.06,-1.70,-0.06,-1.70,1.71,1.97,2.16,1.65,1.65,1.64
391.85,-0.07,-1.70,-0.06,-1.69,1.70,1.98,2.16,1.63,1.64,1.63
395.77,-0.08,-1.69,-0.07,-1.69,1.69,1.98,2.17,1.62,1.62,1.62
399.73,-0.09,-1.69,-0.09,-1.70,1.69,1.99,2.17,1.61,1.60,1.61
403.72,-0.11,-1.70,-0.11,-1.70,1.70,2.00,2.17,1.59,1.59,1.60
407.76,-0.13,-1.71,-0.13,-1.71,1.71,2.00,2.17,1.58,1.58,1.59
411.84,-0.16,-1.72,-0.16,-1.72,1.73,2.00,2.18,1.57,1.57,1.57
415.96,-0.19,-1.74,-0.19,-1.74,1.75,2.00,2.18,1.56,1.56,1.55
420.12,-0.23,-1.77,-0.23,-1.77,1.77,2.00,2.19,1.55,1.55,1.54
424.32,-0.27,-1.80,-0.27,-1.80,1.80,2.00,2.19,1.53,1.53,1.53
428.56,-0.32,-1.84,-0.32,-1.84,1.83,2.00,2.20,1.51,1.52,1.52
432.85,-0.37,-1.87,-0.36,-1.87,1.87,1.99,2.21,1.50,1.50,1.50
437.18,-0.41,-1.90,-0.41,-1.90,1.90,1.98,2.21,1.50,1.49,1.49
441.55,-0.46,-1.94,-0.46,-1.93,1.94,1.98,2.22,1.48,1.48,1.48
445.96,-0.51,-1.97,-0.51,-1.97,1.98,1.97,2.22,1.47,1.46,1.46
450.42,-0.58,-2.02,-0.57,-2.02,2.01,1.96,2.23,1.44,1.44,1.44
454.93,-0.63,-2.06,-0.63,-2.06,2.05,1.95,2.23,1.43,1.42,1.43
459.48,-0.69,-2.10,-0.68,-2.09,2.09,1.94,2.23,1.41,1.41,1.41
464.07,-0.74,-2.13,-0.74,-2.13,2.13,1.93,2.23,1.39,1.39,1.39
468.71,-0.79,-2.16,-0.79,-2.16,2.17,1.92,2.23,1.38,1.38,1.37
473.40,-0.85,-2.20,-0.84,-2.20,2.20,1.91,2.23,1.36,1.36,1.36
478.13,-0.90,-2.23,-0.90,-2.24,2.23,1.90,2.22,1.34,1.34,1.34
482.91,-0.95,-2.27,-0.94,-2.27,2.26,1.88,2.22,1.31,1.32,1.33
487.74,-0.98,-2.28,-0.98,-2.29,2.28,1.87,2.21,1.31,1.31,1.31
492.62,-1.01,-2.30,-1.01,-2.30,2.30,1.86,2.20,1.30,1.30,1.30
497.55,-1.03,-2.31,-1.03,-2.31,2.32,1.84,2.19,1.29,1.29,1.29
