frequency,raw,error,smoothed,error_smoothed,equalization,parametric_eq,fixed_band_eq,equalized_raw,equalized_smoothed,target
20.00,-3.66,-8.33,-3.66,-8.33,6.00,5.64,2.79,2.34,2.34,4.68
20.20,-3.61,-8.26,-3.61,-8.27,6.00,5.66,2.86,2.39,2.39,4.66
20.40,-3.57,-8.21,-3.56,-8.21,6.00,5.69,2.94,2.43,2.44,4.65
20.61,-3.52,-8.16,-3.52,-8.15,6.00,5.71,3.03,2.48,2.48,4.64
20.81,-3.47,-8.08,-3.47,-8.09,6.00,5.73,3.11,2.53,2.53,4.62
21.02,-3.43,-8.03,-3.42,-8.03,6.00,5.75,3.20,2.57,2.58,4.61
21.23,-3.38,-7.97,-3.38,-7.97,6.00,5.78,3.29,2.62,2.62,4.60
21.44,-3.33,-7.91,-3.33,-7.91,6.00,5.80,3.39,2.67,2.67,4.59
21.66,-3.28,-7.85,-3.27,-7.85,6.00,5.82,3.48,2.72,2.73,4.58
21.87,-3.23,-7.79,-3.23,-7.80,6.00,5.84,3.58,2.77,2.77,4.57
22.09,-3.20,-7.76,-3.20,-7.77,6.00,5.86,3.68,2.80,2.80,4.56
22.31,-3.20,-7.75,-3.19,-7.75,6.00,5.88,3.79,2.80,2.81,4.55
22.54,-3.20,-7.75,-3.20,-7.75,6.00,5.90,3.89,2.80,2.80,4.55
22.76,-3.20,-7.74,-3.20,-7.75,6.00,5.91,4.00,2.80,2.80,4.54
22.99,-3.20,-7.75,-3.18,-7.73,6.00,5.93,4.12,2.80,2.82,4.55
23.22,-3.15,-7.69,-3.15,-7.69,6.00,5.95,4.23,2.85,2.85,4.54
23.45,-3.09,-7.63,-3.09,-7.64,6.00,5.97,4.35,2.91,2.91,4.54
23.69,-3.04,-7.59,-3.03,-7.58,6.00,5.98,4.47,2.96,2.97,4.55
23.92,-2.99,-7.54,-2.99,-7.55,6.00,6.00,4.59,3.01,3.01,4.55
24.16,-2.97,-7.53,-2.97,-7.53,6.00,6.01,4.72,3.03,3.03,4.56
24.40,-2.97,-7.53,-2.96,-7.52,6.00,6.03,4.85,3.03,3.04,4.56
24.65,-2.97,-7.52,-2.97,-7.53,6.00,6.04,4.98,3.03,3.03,4.56
24.89,-2.97,-7.52,-2.96,-7.52,6.00,6.06,5.11,3.03,3.04,4.56
25.14,-2.96,-7.51,-2.95,-7.51,6.00,6.07,5.24,3.04,3.05,4.56
25.39,-2.94,-7.49,-2.94,-7.50,6.00,6.08,5.37,3.06,3.06,4.56
25.65,-2.92,-7.48,-2.92,-7.48,6.00,6.09,5.51,3.08,3.08,4.57
25.91,-2.90,-7.46,-2.89,-7.46,6.00,6.10,5.65,3.10,3.11,4.56
26.16,-2.87,-7.43,-2.86,-7.42,6.00,6.12,5.78,3.13,3.14,4.56
26.43,-2.83,-7.38,-2.83,-7.38,6.00,6.13,5.92,3.17,3.17,4.55
26.69,-2.79,-7.34,-2.79,-7.34,6.00,6.14,6.05,3.21,3.21,4.55
26.96,-2.76,-7.31,-2.76,-7.31,6.00,6.14,6.18,3.24,3.24,4.55
27.23,-2.75,-7.30,-2.75,-7.29,6.00,6.15,6.31,3.25,3.25,4.55
27.50,-2.75,-7.28,-2.75,-7.29,6.00,6.16,6.44,3.25,3.25,4.54
27.77,-2.75,-7.27,-2.74,-7.27,6.00,6.17,6.57,3.25,3.26,4.53
28.05,-2.74,-7.26,-2.72,-7.24,6.00,6.17,6.69,3.26,3.28,4.53
28.33,-2.67,-7.18,-2.67,-7.19,6.00,6.18,6.80,3.33,3.33,4.51
28.62,-2.61,-7.12,-2.60,-7.11,6.00,6.19,6.91,3.39,3.40,4.51
28.90,-2.54,-7.04,-2.55,-7.05,6.00,6.19,7.01,3.46,3.45,4.50
29.19,-2.52,-7.01,-2.52,-7.02,6.00,6.20,7.10,3.48,3.48,4.49
29.48,-2.52,-7.01,-2.51,-7.00,6.00,6.20,7.19,3.48,3.49,4.49
29.78,-2.52,-6.99,-2.51,-6.99,6.00,6.20,7.27,3.48,3.49,4.48
30.08,-2.52,-6.98,-2.52,-6.99,6.00,6.20,7.33,3.48,3.48,4.47
30.38,-2.52,-6.98,-2.52,-6.98,6.00,6.21,7.39,3.48,3.48,4.46
30.68,-2.52,-6.97,-2.52,-6.97,6.00,6.21,7.43,3.48,3.48,4.45
30.99,-2.52,-6.96,-2.50,-6.94,6.00,6.21,7.47,3.48,3.50,4.44
31.30,-2.45,-6.88,-2.45,-6.88,6.00,6.21,7.49,3.55,3.55,4.43
31.61,-2.38,-6.80,-2.38,-6.81,6.00,6.21,7.50,3.62,3.62,4.43
31.93,-2.31,-6.73,-2.32,-6.74,6.00,6.21,7.50,3.69,3.68,4.43
32.24,-2.29,-6.70,-2.29,-6.71,6.00,6.20,7.49,3.71,3.71,4.41
32.57,-2.29,-6.70,-2.28,-6.69,6.00,6.20,7.47,3.71,3.72,4.41
32.89,-2.29,-6.69,-2.28,-6.69,6.00,6.20,7.44,3.71,3.72,4.41
33.22,-2.29,-6.69,-2.29,-6.70,6.00,6.19,7.40,3.71,3.71,4.41
33.55,-2.29,-6.70,-2.29,-6.70,6.00,6.19,7.35,3.71,3.71,4.41
33.89,-2.29,-6.71,-2.28,-6.69,6.00,6.18,7.29,3.71,3.72,4.42
34.23,-2.25,-6.66,-2.24,-6.66,6.00,6.18,7.22,3.75,3.76,4.42
34.57,-2.20,-6.62,-2.20,-6.62,6.00,6.17,7.15,3.80,3.80,4.43
34.92,-2.14,-6.56,-2.15,-6.57,6.00,6.16,7.08,3.86,3.85,4.42
35.27,-2.11,-6.54,-2.11,-6.53,6.00,6.16,7.00,3.89,3.89,4.43
35.62,-2.09,-6.51,-2.08,-6.50,6.00,6.15,6.91,3.91,3.92,4.43
35.97,-2.06,-6.48,-2.06,-6.49,6.00,6.14,6.83,3.94,3.94,4.42
36.33,-2.06,-6.48,-2.06,-6.48,6.00,6.13,6.74,3.94,3.94,4.42
36.70,-2.06,-6.47,-2.05,-6.47,6.00,6.12,6.65,3.94,3.95,4.42
37.06,-2.06,-6.47,-2.06,-6.47,6.00,6.11,6.56,3.94,3.94,4.41
37.43,-2.06,-6.46,-2.06,-6.47,6.00,6.10,6.47,3.94,3.94,4.41
37.81,-2.06,-6.45,-2.05,-6.44,6.00,6.08,6.38,3.94,3.95,4.39
38.19,-2.02,-6.40,-2.00,-6.38,6.00,6.07,6.29,3.98,4.00,4.38
38.57,-1.93,-6.29,-1.93,-6.29,6.00,6.06,6.20,4.07,4.07,4.37
38.95,-1.84,-6.19,-1.86,-6.22,6.00,6.04,6.12,4.16,4.14,4.35
39.34,-1.83,-6.16,-1.83,-6.16,6.00,6.03,6.03,4.17,4.17,4.34
39.74,-1.83,-6.15,-1.82,-6.14,6.00,6.01,5.95,4.17,4.18,4.32
40.14,-1.83,-6.12,-1.83,-6.13,6.00,5.99,5.88,4.17,4.17,4.30
40.54,-1.83,-6.12,-1.83,-6.12,6.00,5.98,5.80,4.18,4.18,4.29
40.94,-1.83,-6.10,-1.83,-6.10,6.01,5.96,5.73,4.18,4.18,4.28
41.35,-1.83,-6.10,-1.83,-6.10,6.01,5.94,5.67,4.18,4.18,4.27
41.76,-1.83,-6.09,-1.83,-6.09,6.01,5.92,5.60,4.18,4.18,4.27
42.18,-1.83,-6.09,-1.83,-6.09,6.00,5.90,5.54,4.17,4.16,4.26
42.60,-1.83,-6.08,-1.83,-6.08,5.98,5.88,5.49,4.15,4.15,4.25
43.03,-1.82,-6.06,-1.79,-6.03,5.96,5.86,5.44,4.14,4.17,4.25
43.46,-1.73,-5.97,-1.72,-5.97,5.93,5.84,5.39,4.21,4.21,4.24
43.90,-1.63,-5.87,-1.66,-5.89,5.91,5.82,5.35,4.29,4.26,4.24
44.33,-1.61,-5.84,-1.61,-5.84,5.89,5.79,5.31,4.29,4.29,4.24
44.78,-1.61,-5.83,-1.60,-5.83,5.88,5.77,5.28,4.27,4.28,4.23
45.23,-1.61,-5.84,-1.60,-5.83,5.85,5.74,5.25,4.25,4.25,4.23
45.68,-1.61,-5.83,-1.61,-5.83,5.82,5.72,5.22,4.22,4.22,4.22
46.13,-1.61,-5.82,-1.62,-5.83,5.79,5.69,5.20,4.18,4.17,4.21
46.60,-1.61,-5.81,-1.61,-5.82,5.75,5.67,5.18,4.15,4.15,4.20
47.06,-1.60,-5.80,-1.56,-5.76,5.72,5.64,5.16,4.12,4.16,4.20
47.53,-1.49,-5.68,-1.49,-5.68,5.68,5.61,5.15,4.19,4.19,4.20
48.01,-1.38,-5.56,-1.42,-5.60,5.64,5.58,5.15,4.26,4.22,4.19
48.49,-1.38,-5.54,-1.37,-5.54,5.59,5.55,5.14,4.22,4.22,4.17
48.97,-1.38,-5.53,-1.37,-5.52,5.56,5.52,5.14,4.18,4.19,4.15
49.46,-1.38,-5.53,-1.38,-5.53,5.53,5.49,5.14,4.16,4.16,4.15
49.96,-1.38,-5.52,-1.38,-5.52,5.52,5.46,5.15,4.14,4.14,4.14
50.46,-1.38,-5.51,-1.38,-5.51,5.50,5.43,5.16,4.13,4.13,4.13
50.96,-1.38,-5.49,-1.38,-5.50,5.49,5.40,5.17,4.11,4.11,4.12
51.47,-1.38,-5.49,-1.38,-5.49,5.47,5.36,5.18,4.10,4.10,4.12
51.99,-1.38,-5.48,-1.39,-5.49,5.45,5.33,5.19,4.08,4.07,4.10
52.51,-1.38,-5.47,-1.37,-5.46,5.43,5.29,5.21,4.05,4.05,4.09
53.03,-1.37,-5.44,-1.31,-5.39,5.39,5.26,5.22,4.03,4.08,4.08
53.56,-1.25,-5.30,-1.26,-5.32,5.35,5.22,5.24,4.10,4.09,4.05
54.10,-1.17,-5.20,-1.25,-5.29,5.31,5.19,5.25,4.14,4.05,4.04
54.64,-1.30,-5.32,-1.26,-5.27,5.27,5.15,5.27,3.98,4.02,4.02
55.18,-1.34,-5.33,-1.26,-5.26,5.25,5.11,5.28,3.92,3.99,3.99
55.74,-1.21,-5.19,-1.23,-5.21,5.24,5.07,5.30,4.03,4.01,3.99
56.29,-1.15,-5.12,-1.17,-5.14,5.22,5.03,5.31,4.07,4.05,3.97
56.86,-1.15,-5.10,-1.19,-5.14,5.18,4.99,5.32,4.04,3.99,3.95
57.42,-1.25,-5.18,-1.26,-5.19,5.13,4.95,5.32,3.88,3.87,3.93
58.00,-1.38,-5.29,-1.30,-5.21,5.06,4.91,5.33,3.68,3.76,3.91
58.58,-1.24,-5.13,-1.22,-5.12,4.99,4.87,5.33,3.75,3.77,3.90
59.16,-1.06,-4.94,-1.04,-4.92,4.92,4.83,5.32,3.86,3.88,3.87
59.76,-0.81,-4.66,-0.88,-4.74,4.86,4.78,5.31,4.05,3.97,3.85
60.35,-0.78,-4.61,-0.83,-4.66,4.79,4.74,5.30,4.02,3.97,3.83
60.96,-0.91,-4.72,-0.84,-4.66,4.73,4.70,5.28,3.83,3.89,3.81
61.57,-0.92,-4.71,-0.90,-4.70,4.68,4.65,5.25,3.76,3.78,3.80
62.18,-0.92,-4.69,-0.93,-4.70,4.65,4.61,5.22,3.73,3.72,3.77
62.80,-0.92,-4.67,-0.92,-4.67,4.64,4.56,5.18,3.72,3.72,3.75
63.43,-0.92,-4.64,-0.92,-4.64,4.63,4.51,5.14,3.71,3.71,3.72
64.07,-0.92,-4.60,-0.92,-4.61,4.61,4.47,5.09,3.69,3.69,3.69
64.71,-0.92,-4.58,-0.93,-4.59,4.56,4.42,5.04,3.64,3.63,3.66
65.35,-0.92,-4.54,-0.92,-4.54,4.50,4.37,4.98,3.58,3.58,3.62
66.01,-0.92,-4.50,-0.86,-4.45,4.42,4.32,4.92,3.51,3.56,3.59
66.67,-0.77,-4.32,-0.79,-4.34,4.35,4.27,4.85,3.59,3.56,3.56
67.33,-0.69,-4.20,-0.72,-4.24,4.28,4.22,4.77,3.60,3.56,3.52
68.01,-0.69,-4.17,-0.68,-4.16,4.22,4.17,4.69,3.53,3.54,3.49
68.69,-0.69,-4.14,-0.68,-4.13,4.15,4.12,4.61,3.47,3.48,3.46
69.37,-0.69,-4.10,-0.69,-4.10,4.10,4.07,4.52,3.41,3.41,3.41
70.07,-0.69,-4.07,-0.69,-4.06,4.05,4.02,4.44,3.37,3.37,3.38
70.77,-0.69,-4.02,-0.69,-4.03,4.02,3.96,4.34,3.33,3.33,3.34
71.48,-0.69,-3.99,-0.69,-3.99,3.99,3.91,4.25,3.30,3.30,3.30
72.19,-0.69,-3.95,-0.69,-3.95,3.96,3.86,4.15,3.27,3.27,3.27
72.91,-0.69,-3.91,-0.69,-3.91,3.92,3.80,4.06,3.23,3.23,3.22
73.64,-0.69,-3.87,-0.69,-3.87,3.86,3.75,3.96,3.17,3.17,3.18
74.38,-0.69,-3.83,-0.69,-3.84,3.80,3.69,3.86,3.11,3.11,3.14
75.12,-0.68,-3.78,-0.67,-3.77,3.73,3.64,3.76,3.05,3.06,3.11
75.87,-0.64,-3.70,-0.61,-3.68,3.66,3.58,3.66,3.02,3.05,3.07
76.63,-0.53,-3.55,-0.54,-3.57,3.59,3.52,3.56,3.06,3.05,3.03
77.40,-0.47,-3.46,-0.49,-3.48,3.52,3.47,3.46,3.05,3.03,2.99
78.17,-0.47,-3.42,-0.46,-3.41,3.45,3.41,3.36,2.99,3.00,2.95
78.95,-0.47,-3.38,-0.46,-3.38,3.39,3.35,3.26,2.93,2.93,2.92
79.74,-0.47,-3.34,-0.47,-3.34,3.34,3.29,3.17,2.87,2.87,2.87
80.54,-0.47,-3.31,-0.47,-3.31,3.29,3.23,3.07,2.83,2.83,2.84
81.35,-0.47,-3.27,-0.47,-3.27,3.26,3.18,2.97,2.79,2.79,2.80
82.16,-0.47,-3.22,-0.47,-3.22,3.22,3.12,2.88,2.76,2.76,2.76
82.98,-0.47,-3.18,-0.47,-3.18,3.19,3.06,2.79,2.72,2.72,2.71
83.81,-0.47,-3.13,-0.47,-3.13,3.14,3.00,2.70,2.67,2.67,2.66
84.65,-0.47,-3.08,-0.47,-3.08,3.08,2.93,2.61,2.61,2.61,2.61
85.50,-0.47,-3.02,-0.47,-3.03,3.01,2.87,2.52,2.54,2.54,2.55
86.35,-0.47,-2.97,-0.47,-2.98,2.93,2.81,2.44,2.46,2.45,2.50
87.22,-0.46,-2.90,-0.43,-2.88,2.84,2.75,2.35,2.38,2.40,2.44
88.09,-0.40,-2.79,-0.37,-2.76,2.75,2.69,2.27,2.35,2.38,2.39
88.97,-0.25,-2.58,-0.29,-2.63,2.66,2.63,2.19,2.41,2.36,2.33
89.86,-0.24,-2.51,-0.24,-2.52,2.56,2.56,2.11,2.33,2.32,2.28
90.76,-0.24,-2.45,-0.22,-2.44,2.48,2.50,2.04,2.24,2.25,2.21
91.66,-0.24,-2.39,-0.24,-2.39,2.40,2.44,1.96,2.16,2.16,2.16
92.58,-0.24,-2.33,-0.24,-2.33,2.32,2.38,1.89,2.09,2.09,2.09
93.51,-0.24,-2.28,-0.24,-2.27,2.26,2.31,1.81,2.02,2.02,2.04
94.44,-0.24,-2.21,-0.24,-2.21,2.20,2.25,1.74,1.97,1.97,1.97
95.39,-0.24,-2.15,-0.24,-2.16,2.15,2.18,1.68,1.91,1.91,1.92
96.34,-0.24,-2.10,-0.24,-2.10,2.10,2.12,1.61,1.86,1.86,1.86
97.30,-0.24,-2.04,-0.24,-2.04,2.04,2.06,1.54,1.81,1.81,1.81
98.28,-0.24,-1.97,-0.24,-1.98,1.99,1.99,1.48,1.75,1.75,1.74
99.26,-0.24,-1.92,-0.24,-1.92,1.93,1.93,1.41,1.69,1.69,1.68
100.25,-0.24,-1.86,-0.24,-1.86,1.86,1.86,1.35,1.63,1.63,1.62
101.25,-0.24,-1.79,-0.24,-1.80,1.79,1.80,1.29,1.55,1.54,1.56
102.27,-0.24,-1.74,-0.25,-1.74,1.70,1.73,1.23,1.46,1.45,1.50
103.29,-0.24,-1.67,-0.22,-1.65,1.61,1.67,1.17,1.37,1.39,1.43
104.32,-0.19,-1.56,-0.16,-1.53,1.51,1.61,1.12,1.33,1.35,1.37
105.37,-0.07,-1.38,-0.09,-1.40,1.42,1.54,1.06,1.35,1.33,1.32
106.42,-0.01,-1.26,-0.03,-1.29,1.33,1.48,1.01,1.33,1.30,1.26
107.48,-0.01,-1.21,0.00,-1.20,1.25,1.41,0.96,1.24,1.25,1.20
108.56,-0.01,-1.16,-0.00,-1.15,1.17,1.35,0.90,1.16,1.17,1.15
109.64,-0.01,-1.10,-0.01,-1.10,1.10,1.28,0.85,1.09,1.09,1.09
110.74,-0.01,-1.05,-0.01,-1.05,1.04,1.22,0.80,1.03,1.03,1.05
111.85,-0.01,-1.01,-0.01,-1.01,0.99,1.15,0.75,0.98,0.98,1.00
112.97,-0.01,-0.96,-0.01,-0.96,0.94,1.09,0.71,0.94,0.94,0.95
114.10,-0.01,-0.90,-0.01,-0.90,0.90,1.03,0.66,0.89,0.89,0.90
115.24,-0.01,-0.85,-0.01,-0.85,0.85,0.96,0.62,0.84,0.84,0.84
116.39,-0.01,-0.79,-0.01,-0.79,0.79,0.90,0.57,0.79,0.79,0.78
117.55,-0.01,-0.73,-0.01,-0.73,0.74,0.83,0.53,0.73,0.73,0.73
118.73,-0.01,-0.68,-0.01,-0.68,0.68,0.77,0.49,0.67,0.67,0.67
119.92,-0.01,-0.62,-0.01,-0.62,0.62,0.71,0.45,0.62,0.62,0.62
121.12,-0.01,-0.57,-0.01,-0.57,0.57,0.65,0.41,0.56,0.56,0.56
122.33,-0.01,-0.51,-0.01,-0.51,0.52,0.58,0.37,0.51,0.51,0.50
123.55,-0.01,-0.45,-0.01,-0.45,0.46,0.52,0.33,0.46,0.46,0.45
124.79,-0.01,-0.39,-0.01,-0.39,0.41,0.46,0.29,0.40,0.40,0.39
126.03,-0.01,-0.33,-0.01,-0.33,0.34,0.40,0.26,0.34,0.34,0.32
127.29,-0.01,-0.28,-0.01,-0.28,0.27,0.34,0.22,0.26,0.26,0.27
128.57,-0.01,-0.22,-0.02,-0.23,0.19,0.28,0.19,0.18,0.17,0.21
129.85,-0.01,-0.17,0.01,-0.15,0.10,0.22,0.15,0.09,0.11,0.16
131.15,0.04,-0.06,0.07,-0.03,0.01,0.16,0.12,0.06,0.09,0.10
132.46,0.17,0.13,0.14,0.10,-0.07,0.10,0.09,0.10,0.07,0.05
133.79,0.22,0.23,0.21,0.21,-0.16,0.04,0.06,0.07,0.05,-0.00
135.12,0.22,0.27,0.23,0.28,-0.24,-0.02,0.03,-0.01,-0.00,-0.05
136.48,0.22,0.32,0.23,0.32,-0.31,-0.08,-0.00,-0.09,-0.08,-0.09
137.84,0.22,0.36,0.22,0.37,-0.38,-0.13,-0.03,-0.15,-0.15,-0.14
139.22,0.22,0.42,0.22,0.41,-0.43,-0.19,-0.06,-0.21,-0.21,-0.19
140.61,0.22,0.46,0.22,0.46,-0.47,-0.25,-0.09,-0.25,-0.25,-0.24
142.02,0.22,0.50,0.22,0.51,-0.51,-0.30,-0.12,-0.29,-0.29,-0.28
143.44,0.22,0.55,0.22,0.55,-0.55,-0.36,-0.15,-0.33,-0.33,-0.32
144.87,0.22,0.60,0.22,0.59,-0.59,-0.41,-0.18,-0.37,-0.37,-0.37
146.32,0.22,0.64,0.22,0.64,-0.63,-0.46,-0.21,-0.41,-0.41,-0.41
147.78,0.22,0.68,0.22,0.68,-0.68,-0.51,-0.24,-0.45,-0.45,-0.45
149.26,0.22,0.71,0.22,0.71,-0.72,-0.57,-0.27,-0.49,-0.49,-0.49
150.75,0.22,0.75,0.22,0.75,-0.75,-0.62,-0.30,-0.53,-0.53,-0.53
152.26,0.22,0.79,0.22,0.79,-0.79,-0.67,-0.32,-0.57,-0.57,-0.56
153.78,0.22,0.83,0.22,0.83,-0.83,-0.72,-0.35,-0.60,-0.60,-0.61
155.32,0.22,0.87,0.22,0.87,-0.86,-0.76,-0.38,-0.64,-0.64,-0.65
156.88,0.22,0.89,0.22,0.90,-0.90,-0.81,-0.41,-0.67,-0.67,-0.67
158.44,0.22,0.93,0.22,0.93,-0.93,-0.86,-0.44,-0.71,-0.71,-0.70
160.03,0.22,0.96,0.22,0.96,-0.96,-0.90,-0.48,-0.74,-0.74,-0.74
161.63,0.22,0.99,0.22,0.99,-0.99,-0.95,-0.51,-0.77,-0.77,-0.77
163.24,0.22,1.02,0.22,1.02,-1.02,-0.99,-0.54,-0.80,-0.80,-0.80
164.88,0.22,1.05,0.22,1.05,-1.05,-1.04,-0.57,-0.82,-0.82,-0.83
166.53,0.22,1.08,0.22,1.08,-1.08,-1.08,-0.60,-0.85,-0.85,-0.86
168.19,0.22,1.10,0.22,1.10,-1.10,-1.12,-0.64,-0.88,-0.88,-0.88
169.87,0.22,1.13,0.22,1.13,-1.13,-1.16,-0.67,-0.90,-0.90,-0.90
171.57,0.22,1.15,0.22,1.15,-1.15,-1.20,-0.71,-0.93,-0.93,-0.93
173.29,0.22,1.18,0.22,1.18,-1.18,-1.24,-0.74,-0.96,-0.96,-0.96
175.02,0.22,1.20,0.22,1.20,-1.21,-1.27,-0.78,-0.98,-0.98,-0.98
176.77,0.22,1.23,0.22,1.23,-1.23,-1.31,-0.82,-1.01,-1.01,-1.01
178.54,0.22,1.25,0.22,1.26,-1.26,-1.35,-0.85,-1.03,-1.03,-1.03
180.32,0.22,1.29,0.22,1.28,-1.28,-1.38,-0.89,-1.06,-1.06,-1.06
182.13,0.22,1.31,0.22,1.31,-1.31,-1.41,-0.93,-1.09,-1.09,-1.08
183.95,0.22,1.34,0.22,1.34,-1.34,-1.44,-0.97,-1.11,-1.11,-1.12
185.79,0.22,1.36,0.22,1.36,-1.36,-1.48,-1.01,-1.14,-1.14,-1.14
187.65,0.22,1.38,0.22,1.39,-1.39,-1.51,-1.05,-1.16,-1.16,-1.16
189.52,0.22,1.41,0.22,1.41,-1.41,-1.53,-1.10,-1.18,-1.18,-1.19
191.42,0.22,1.43,0.22,1.43,-1.43,-1.56,-1.14,-1.21,-1.21,-1.21
193.33,0.22,1.45,0.22,1.45,-1.45,-1.59,-1.18,-1.22,-1.22,-1.23
195.27,0.22,1.47,0.22,1.47,-1.47,-1.61,-1.23,-1.24,-1.24,-1.24
197.22,0.22,1.48,0.22,1.48,-1.48,-1.64,-1.27,-1.26,-1.26,-1.26
199.19,0.22,1.49,0.22,1.50,-1.50,-1.66,-1.31,-1.27,-1.27,-1.27
201.18,0.22,1.51,0.22,1.51,-1.51,-1.69,-1.36,-1.28,-1.28,-1.28
203.19,0.22,1.52,0.22,1.52,-1.52,-1.71,-1.40,-1.30,-1.30,-1.30
205.23,0.22,1.53,0.22,1.53,-1.53,-1.73,-1.45,-1.31,-1.31,-1.31
207.28,0.22,1.54,0.22,1.54,-1.55,-1.75,-1.49,-1.32,-1.32,-1.32
209.35,0.22,1.56,0.22,1.56,-1.56,-1.77,-1.54,-1.33,-1.33,-1.33
211.44,0.22,1.57,0.22,1.57,-1.57,-1.78,-1.58,-1.35,-1.35,-1.35
213.56,0.22,1.58,0.22,1.58,-1.58,-1.80,-1.63,-1.36,-1.36,-1.36
215.69,0.22,1.60,0.22,1.60,-1.60,-1.81,-1.67,-1.37,-1.37,-1.37
217.85,0.22,1.61,0.22,1.61,-1.61,-1.83,-1.71,-1.39,-1.39,-1.39
220.03,0.22,1.62,0.22,1.63,-1.62,-1.84,-1.75,-1.40,-1.40,-1.40
222.23,0.22,1.64,0.22,1.64,-1.64,-1.85,-1.79,-1.41,-1.41,-1.42
224.45,0.22,1.65,0.22,1.65,-1.65,-1.87,-1.83,-1.43,-1.43,-1.43
226.70,0.22,1.66,0.22,1.67,-1.66,-1.88,-1.86,-1.44,-1.44,-1.44
228.96,0.22,1.68,0.22,1.68,-1.68,-1.89,-1.90,-1.45,-1.45,-1.45
231.25,0.22,1.69,0.22,1.69,-1.69,-1.89,-1.93,-1.47,-1.47,-1.46
233.57,0.22,1.70,0.22,1.70,-1.70,-1.90,-1.96,-1.48,-1.48,-1.48
235.90,0.22,1.71,0.22,1.71,-1.71,-1.91,-1.99,-1.49,-1.49,-1.49
238.26,0.22,1.72,0.22,1.73,-1.73,-1.92,-2.01,-1.50,-1.50,-1.50
240.64,0.22,1.74,0.22,1.74,-1.74,-1.92,-2.03,-1.51,-1.51,-1.52
243.05,0.22,1.75,0.22,1.75,-1.75,-1.92,-2.05,-1.52,-1.52,-1.53
245.48,0.22,1.76,0.22,1.76,-1.76,-1.93,-2.07,-1.53,-1.53,-1.53
247.93,0.22,1.77,0.22,1.77,-1.77,-1.93,-2.08,-1.54,-1.54,-1.54
250.41,0.22,1.77,0.22,1.77,-1.77,-1.93,-2.09,-1.55,-1.55,-1.55
252.92,0.22,1.78,0.22,1.78,-1.78,-1.93,-2.09,-1.56,-1.56,-1.56
255.45,0.22,1.79,0.22,1.79,-1.79,-1.93,-2.10,-1.56,-1.56,-1.56
258.00,0.22,1.79,0.22,1.79,-1.80,-1.93,-2.10,-1.57,-1.57,-1.57
260.58,0.22,1.80,0.22,1.80,-1.80,-1.93,-2.10,-1.58,-1.58,-1.58
263.19,0.22,1.81,0.22,1.81,-1.81,-1.93,-2.09,-1.59,-1.59,-1.58
265.82,0.22,1.82,0.22,1.82,-1.82,-1.93,-2.08,-1.59,-1.59,-1.60
268.48,0.22,1.83,0.22,1.83,-1.83,-1.93,-2.07,-1.60,-1.60,-1.60
271.16,0.22,1.83,0.22,1.83,-1.84,-1.92,-2.06,-1.61,-1.61,-1.61
273.87,0.22,1.83,0.22,1.83,-1.85,-1.92,-2.04,-1.62,-1.62,-1.60
276.61,0.22,1.83,0.22,1.84,-1.85,-1.91,-2.02,-1.63,-1.63,-1.61
279.38,0.22,1.84,0.22,1.84,-1.84,-1.91,-2.01,-1.62,-1.62,-1.61
282.17,0.22,1.84,0.23,1.85,-1.83,-1.90,-1.99,-1.60,-1.60,-1.62
284.99,0.22,1.84,0.23,1.85,-1.80,-1.90,-1.96,-1.58,-1.57,-1.61
287.84,0.22,1.84,0.20,1.82,-1.77,-1.89,-1.94,-1.55,-1.58,-1.62
290.72,0.15,1.78,0.13,1.75,-1.74,-1.88,-1.92,-1.59,-1.61,-1.62
293.63,0.01,1.64,0.06,1.68,-1.71,-1.88,-1.89,-1.69,-1.65,-1.63
296.57,-0.01,1.61,0.00,1.62,-1.68,-1.87,-1.87,-1.68,-1.68,-1.62
299.53,-0.01,1.62,-0.02,1.61,-1.64,-1.86,-1.84,-1.65,-1.66,-1.62
302.53,-0.01,1.62,-0.01,1.62,-1.61,-1.85,-1.82,-1.62,-1.62,-1.63
305.55,-0.01,1.63,-0.01,1.62,-1.60,-1.84,-1.79,-1.60,-1.60,-1.63
308.61,-0.01,1.63,-0.01,1.62,-1.60,-1.83,-1.77,-1.60,-1.60,-1.63
311.69,-0.01,1.62,-0.01,1.62,-1.62,-1.83,-1.74,-1.63,-1.63,-1.63
314.81,-0.01,1.62,-0.02,1.61,-1.65,-1.82,-1.72,-1.66,-1.67,-1.63
317.96,-0.01,1.63,0.00,1.63,-1.69,-1.81,-1.70,-1.69,-1.69,-1.63
321.14,0.00,1.64,0.06,1.70,-1.72,-1.80,-1.67,-1.72,-1.66,-1.64
324.35,0.17,1.81,0.13,1.77,-1.76,-1.79,-1.65,-1.59,-1.63,-1.64
327.59,0.22,1.87,0.20,1.84,-1.80,-1.78,-1.63,-1.57,-1.60,-1.64
330.87,0.22,1.87,0.24,1.88,-1.83,-1.77,-1.61,-1.61,-1.59,-1.64
334.18,0.22,1.87,0.23,1.87,-1.86,-1.76,-1.59,-1.64,-1.63,-1.65
337.52,0.22,1.87,0.22,1.87,-1.89,-1.74,-1.58,-1.66,-1.66,-1.65
340.90,0.22,1.87,0.22,1.87,-1.89,-1.73,-1.56,-1.67,-1.67,-1.64
344.30,0.22,1.87,0.22,1.86,-1.88,-1.72,-1.54,-1.66,-1.66,-1.64
347.75,0.22,1.86,0.23,1.87,-1.85,-1.71,-1.53,-1.63,-1.62,-1.64
351.23,0.22,1.86,0.23,1.87,-1.82,-1.70,-1.52,-1.60,-1.59,-1.64
354.74,0.22,1.86,0.19,1.82,-1.79,-1.69,-1.50,-1.56,-1.60,-1.64
358.28,0.11,1.75,0.12,1.76,-1.75,-1.68,-1.49,-1.64,-1.64,-1.64
361.87,0.02,1.67,0.05,1.69,-1.72,-1.67,-1.48,-1.70,-1.67,-1.64
365.49,-0.01,1.64,-0.00,1.64,-1.69,-1.66,-1.48,-1.70,-1.69,-1.64
369.14,-0.01,1.64,-0.01,1.63,-1.66,-1.65,-1.47,-1.67,-1.68,-1.65
372.83,-0.01,1.64,-0.01,1.64,-1.64,-1.65,-1.46,-1.65,-1.65,-1.65
376.56,-0.01,1.64,-0.01,1.64,-1.63,-1.64,-1.46,-1.64,-1.64,-1.65
380.33,-0.01,1.64,-0.01,1.65,-1.63,-1.63,-1.46,-1.64,-1.64,-1.65
384.13,-0.01,1.65,-0.01,1.65,-1.64,-1.62,-1.45,-1.65,-1.65,-1.65
387.97,-0.01,1.66,-0.01,1.65,-1.65,-1.61,-1.45,-1.66,-1.66,-1.66
391.85,-0.01,1.66,-0.01,1.66,-1.66,-1.60,-1.45,-1.67,-1.67,-1.66
395.77,-0.01,1.66,-0.01,1.66,-1.66,-1.60,-1.45,-1.67,-1.67,-1.67
399.73,-0.01,1.67,-0.01,1.67,-1.67,-1.59,-1.45,-1.67,-1.67,-1.68
403.72,-0.01,1.67,-0.01,1.67,-1.67,-1.58,-1.46,-1.67,-1.67,-1.68
407.76,-0.01,1.67,-0.01,1.67,-1.67,-1.58,-1.46,-1.68,-1.68,-1.68
411.84,-0.01,1.67,-0.01,1.67,-1.67,-1.57,-1.46,-1.68,-1.68,-1.68
415.96,-0.01,1.67,-0.01,1.67,-1.68,-1.57,-1.47,-1.69,-1.69,-1.67
420.12,-0.01,1.67,-0.01,1.66,-1.68,-1.56,-1.47,-1.69,-1.69,-1.67
424.32,-0.01,1.66,-0.01,1.66,-1.68,-1.56,-1.48,-1.68,-1.68,-1.66
428.56,-0.01,1.66,-0.01,1.66,-1.66,-1.55,-1.48,-1.66,-1.66,-1.66
432.85,-0.01,1.66,0.01,1.67,-1.63,-1.55,-1.48,-1.64,-1.62,-1.67
437.18,-0.01,1.66,-0.01,1.66,-1.60,-1.54,-1.49,-1.61,-1.61,-1.67
441.55,-0.01,1.65,-0.06,1.60,-1.56,-1.54,-1.49,-1.57,-1.63,-1.66
445.96,-0.17,1.49,-0.14,1.52,-1.53,-1.53,-1.50,-1.69,-1.66,-1.66
450.42,-0.24,1.41,-0.21,1.45,-1.49,-1.53,-1.50,-1.73,-1.70,-1.65
454.93,-0.24,1.41,-0.25,1.40,-1.46,-1.52,-1.50,-1.69,-1.70,-1.65
459.48,-0.24,1.41,-0.24,1.40,-1.43,-1.51,-1.50,-1.66,-1.67,-1.65
464.07,-0.24,1.40,-0.24,1.41,-1.40,-1.50,-1.50,-1.64,-1.64,-1.64
468.71,-0.24,1.40,-0.24,1.40,-1.39,-1.49,-1.50,-1.63,-1.63,-1.64
473.40,-0.24,1.41,-0.24,1.40,-1.39,-1.48,-1.50,-1.62,-1.62,-1.64
478.13,-0.24,1.40,-0.24,1.40,-1.39,-1.46,-1.50,-1.62,-1.62,-1.63
482.91,-0.24,1.40,-0.24,1.39,-1.39,-1.45,-1.49,-1.63,-1.63,-1.63
487.74,-0.24,1.39,-0.24,1.39,-1.39,-1.43,-1.49,-1.62,-1.62,-1.62
492.62,-0.24,1.38,-0.24,1.38,-1.39,-1.41,-1.48,-1.62,-1.62,-1.61
