frequency,raw,error,smoothed,error_smoothed,equalization,parametric_eq,fixed_band_eq,equalized_raw,equalized_smoothed,target
20.00,-8.41,-10.24,-8.42,-10.25,6.00,4.92,2.75,-2.41,-2.42,1.83
20.20,-8.37,-10.20,-8.37,-10.19,6.00,4.98,2.83,-2.37,-2.37,1.83
20.40,-8.32,-10.15,-8.30,-10.13,6.00,5.04,2.91,-2.32,-2.30,1.83
20.61,-8.22,-10.06,-8.24,-10.07,6.00,5.10,2.99,-2.22,-2.24,1.83
20.81,-8.16,-9.99,-8.15,-9.99,6.00,5.16,3.08,-2.16,-2.15,1.83
21.02,-8.07,-9.91,-8.07,-9.91,6.00,5.22,3.17,-2.07,-2.07,1.83
21.23,-8.00,-9.84,-8.01,-9.84,6.00,5.28,3.26,-2.00,-2.01,1.84
21.44,-7.94,-9.78,-7.94,-9.78,6.00,5.34,3.35,-1.94,-1.94,1.84
21.66,-7.89,-9.73,-7.89,-9.72,6.00,5.40,3.44,-1.89,-1.89,1.84
21.87,-7.82,-9.66,-7.82,-9.66,6.00,5.45,3.54,-1.82,-1.82,1.84
22.09,-7.75,-9.59,-7.75,-9.59,6.00,5.51,3.64,-1.75,-1.75,1.84
22.31,-7.66,-9.50,-7.66,-9.50,6.00,5.57,3.75,-1.66,-1.66,1.84
22.54,-7.56,-9.40,-7.57,-9.41,6.00,5.62,3.85,-1.56,-1.57,1.84
22.76,-7.47,-9.31,-7.47,-9.31,6.00,5.67,3.96,-1.47,-1.47,1.84
22.99,-7.37,-9.22,-7.37,-9.21,6.00,5.72,4.07,-1.37,-1.37,1.84
23.22,-7.27,-9.12,-7.27,-9.11,6.00,5.77,4.19,-1.27,-1.27,1.84
23.45,-7.16,-9.01,-7.17,-9.01,6.00,5.82,4.30,-1.16,-1.17,1.85
23.69,-7.06,-8.91,-7.06,-8.91,6.00,5.87,4.42,-1.06,-1.06,1.85
23.92,-6.98,-8.83,-6.97,-8.82,6.00,5.92,4.55,-0.98,-0.97,1.85
24.16,-6.87,-8.72,-6.88,-8.73,6.00,5.96,4.67,-0.87,-0.88,1.85
24.40,-6.81,-8.66,-6.81,-8.66,6.00,6.00,4.80,-0.81,-0.81,1.85
24.65,-6.73,-8.58,-6.73,-8.58,6.00,6.05,4.92,-0.73,-0.73,1.85
24.89,-6.67,-8.52,-6.67,-8.52,6.00,6.09,5.05,-0.67,-0.67,1.85
25.14,-6.60,-8.45,-6.60,-8.45,6.00,6.12,5.19,-0.60,-0.60,1.85
25.39,-6.53,-8.38,-6.53,-8.39,6.00,6.16,5.32,-0.53,-0.53,1.85
25.65,-6.46,-8.32,-6.47,-8.32,6.00,6.19,5.45,-0.46,-0.47,1.85
25.91,-6.41,-8.27,-6.40,-8.26,6.00,6.22,5.59,-0.41,-0.40,1.85
26.16,-6.33,-8.19,-6.34,-8.19,6.00,6.25,5.72,-0.33,-0.34,1.86
26.43,-6.27,-8.13,-6.27,-8.13,6.00,6.28,5.85,-0.27,-0.27,1.86
26.69,-6.21,-8.07,-6.20,-8.06,6.00,6.30,5.98,-0.21,-0.20,1.86
26.96,-6.13,-7.99,-6.13,-7.99,6.00,6.32,6.11,-0.13,-0.13,1.86
27.23,-6.06,-7.92,-6.06,-7.92,6.00,6.34,6.24,-0.06,-0.06,1.86
27.50,-5.99,-7.85,-6.00,-7.86,6.00,6.36,6.37,0.01,0.00,1.86
27.77,-5.94,-7.80,-5.94,-7.80,6.00,6.38,6.49,0.06,0.06,1.86
28.05,-5.87,-7.73,-5.87,-7.73,6.00,6.39,6.60,0.13,0.13,1.86
28.33,-5.81,-7.67,-5.81,-7.67,6.00,6.40,6.71,0.19,0.19,1.86
28.62,-5.73,-7.59,-5.74,-7.60,6.00,6.40,6.82,0.27,0.26,1.86
28.90,-5.67,-7.53,-5.67,-7.53,6.00,6.41,6.92,0.33,0.33,1.86
29.19,-5.59,-7.45,-5.60,-7.46,6.00,6.41,7.01,0.41,0.40,1.86
29.48,-5.53,-7.39,-5.53,-7.40,6.00,6.41,7.09,0.47,0.47,1.86
29.78,-5.47,-7.34,-5.47,-7.33,6.00,6.40,7.16,0.53,0.53,1.86
30.08,-5.41,-7.28,-5.41,-7.27,6.00,6.40,7.22,0.59,0.59,1.86
30.38,-5.34,-7.21,-5.34,-7.21,6.00,6.39,7.27,0.66,0.66,1.86
30.68,-5.27,-7.14,-5.27,-7.14,6.00,6.38,7.31,0.73,0.73,1.86
30.99,-5.20,-7.07,-5.21,-7.07,6.00,6.36,7.34,0.80,0.79,1.86
31.30,-5.14,-7.01,-5.14,-7.00,6.00,6.35,7.35,0.86,0.86,1.86
31.61,-5.07,-6.94,-5.07,-6.94,6.00,6.33,7.36,0.93,0.93,1.86
31.93,-5.00,-6.87,-5.00,-6.86,6.00,6.31,7.35,1.00,1.00,1.87
32.24,-4.92,-6.79,-4.93,-6.79,6.00,6.28,7.33,1.08,1.07,1.87
32.57,-4.85,-6.72,-4.85,-6.72,6.00,6.26,7.30,1.15,1.15,1.87
32.89,-4.78,-6.65,-4.78,-6.64,6.00,6.23,7.27,1.22,1.22,1.86
33.22,-4.70,-6.57,-4.70,-6.57,6.00,6.20,7.22,1.30,1.30,1.86
33.55,-4.63,-6.50,-4.63,-6.49,6.00,6.17,7.16,1.37,1.37,1.86
33.89,-4.54,-6.41,-4.55,-6.41,6.00,6.13,7.09,1.46,1.45,1.86
34.23,-4.48,-6.35,-4.48,-6.34,6.01,6.09,7.02,1.52,1.53,1.86
34.57,-4.41,-6.28,-4.41,-6.27,6.01,6.06,6.94,1.60,1.60,1.86
34.92,-4.34,-6.21,-4.35,-6.21,6.01,6.02,6.85,1.67,1.66,1.86
35.27,-4.28,-6.15,-4.28,-6.14,6.00,5.98,6.76,1.72,1.72,1.86
35.62,-4.22,-6.08,-4.22,-6.09,5.99,5.93,6.67,1.77,1.77,1.86
35.97,-4.17,-6.03,-4.17,-6.03,5.97,5.89,6.57,1.80,1.80,1.86
36.33,-4.12,-5.98,-4.12,-5.98,5.95,5.84,6.47,1.83,1.83,1.86
36.70,-4.06,-5.92,-4.06,-5.92,5.92,5.79,6.37,1.85,1.85,1.86
37.06,-4.01,-5.87,-4.01,-5.87,5.88,5.75,6.27,1.87,1.87,1.86
37.43,-3.96,-5.82,-3.96,-5.82,5.83,5.70,6.16,1.87,1.87,1.86
37.81,-3.91,-5.77,-3.91,-5.77,5.78,5.65,6.06,1.87,1.87,1.86
38.19,-3.87,-5.73,-3.87,-5.72,5.73,5.60,5.96,1.86,1.86,1.85
38.57,-3.82,-5.68,-3.83,-5.68,5.68,5.54,5.86,1.86,1.86,1.85
38.95,-3.79,-5.64,-3.79,-5.64,5.63,5.49,5.76,1.84,1.85,1.85
39.34,-3.74,-5.59,-3.74,-5.59,5.59,5.44,5.66,1.85,1.85,1.85
39.74,-3.69,-5.54,-3.69,-5.54,5.54,5.38,5.56,1.85,1.84,1.85
40.14,-3.64,-5.49,-3.64,-5.49,5.49,5.33,5.47,1.85,1.84,1.85
40.54,-3.59,-5.44,-3.59,-5.44,5.43,5.27,5.38,1.84,1.84,1.84
40.94,-3.54,-5.38,-3.54,-5.38,5.38,5.22,5.29,1.84,1.84,1.84
41.35,-3.47,-5.31,-3.48,-5.32,5.32,5.16,5.21,1.85,1.84,1.84
41.76,-3.43,-5.27,-3.42,-5.26,5.26,5.11,5.13,1.83,1.84,1.84
42.18,-3.37,-5.21,-3.37,-5.21,5.20,5.05,5.05,1.83,1.84,1.84
42.60,-3.31,-5.14,-3.32,-5.15,5.14,5.00,4.98,1.83,1.83,1.83
43.03,-3.26,-5.09,-3.26,-5.09,5.09,4.94,4.91,1.82,1.83,1.83
43.46,-3.20,-5.03,-3.20,-5.03,5.03,4.89,4.84,1.83,1.83,1.83
43.90,-3.14,-4.97,-3.14,-4.97,4.97,4.84,4.78,1.83,1.83,1.82
44.33,-3.08,-4.90,-3.09,-4.91,4.92,4.78,4.72,1.84,1.83,1.82
44.78,-3.04,-4.86,-3.04,-4.86,4.86,4.73,4.66,1.82,1.82,1.82
45.23,-3.00,-4.82,-3.00,-4.81,4.81,4.67,4.61,1.81,1.81,1.81
45.68,-2.95,-4.76,-2.95,-4.76,4.76,4.62,4.56,1.80,1.80,1.81
46.13,-2.90,-4.71,-2.91,-4.71,4.70,4.57,4.51,1.80,1.80,1.81
46.60,-2.86,-4.66,-2.85,-4.66,4.65,4.52,4.47,1.79,1.80,1.80
47.06,-2.80,-4.60,-2.80,-4.60,4.60,4.47,4.43,1.80,1.80,1.80
47.53,-2.74,-4.53,-2.75,-4.54,4.55,4.42,4.40,1.80,1.80,1.79
48.01,-2.69,-4.48,-2.70,-4.48,4.49,4.37,4.36,1.80,1.80,1.79
48.49,-2.66,-4.44,-2.65,-4.43,4.44,4.32,4.33,1.78,1.79,1.78
48.97,-2.61,-4.39,-2.61,-4.39,4.38,4.27,4.31,1.77,1.77,1.78
49.46,-2.56,-4.33,-2.57,-4.34,4.33,4.23,4.28,1.77,1.76,1.77
49.96,-2.52,-4.29,-2.52,-4.28,4.27,4.18,4.26,1.75,1.75,1.76
50.46,-2.47,-4.23,-2.47,-4.22,4.22,4.14,4.24,1.75,1.75,1.76
50.96,-2.41,-4.16,-2.41,-4.17,4.16,4.09,4.23,1.75,1.75,1.75
51.47,-2.35,-4.10,-2.36,-4.11,4.11,4.05,4.21,1.76,1.75,1.75
51.99,-2.32,-4.06,-2.31,-4.05,4.06,4.01,4.20,1.74,1.75,1.74
52.51,-2.27,-4.00,-2.27,-4.00,4.01,3.97,4.18,1.74,1.74,1.73
53.03,-2.24,-3.96,-2.25,-3.97,3.97,3.93,4.17,1.73,1.72,1.72
53.56,-2.21,-3.93,-2.21,-3.93,3.93,3.89,4.16,1.72,1.72,1.71
54.10,-2.20,-3.91,-2.19,-3.90,3.89,3.86,4.15,1.69,1.70,1.71
54.64,-2.15,-3.85,-2.16,-3.86,3.86,3.82,4.14,1.71,1.69,1.70
55.18,-2.15,-3.84,-2.14,-3.83,3.83,3.79,4.13,1.68,1.69,1.69
55.74,-2.11,-3.79,-2.12,-3.80,3.80,3.76,4.12,1.69,1.68,1.68
56.29,-2.11,-3.78,-2.11,-3.78,3.78,3.72,4.11,1.67,1.67,1.67
56.86,-2.11,-3.77,-2.09,-3.75,3.76,3.69,4.10,1.65,1.67,1.66
57.42,-2.07,-3.72,-2.09,-3.74,3.75,3.67,4.08,1.68,1.66,1.65
58.00,-2.07,-3.71,-2.09,-3.72,3.73,3.64,4.07,1.66,1.65,1.64
58.58,-2.11,-3.74,-2.10,-3.72,3.72,3.61,4.05,1.61,1.62,1.63
59.16,-2.11,-3.73,-2.11,-3.72,3.71,3.59,4.03,1.60,1.60,1.61
59.76,-2.11,-3.71,-2.10,-3.70,3.69,3.56,4.00,1.58,1.59,1.60
60.35,-2.07,-3.66,-2.09,-3.68,3.68,3.54,3.98,1.61,1.59,1.59
60.96,-2.07,-3.65,-2.08,-3.65,3.66,3.52,3.95,1.58,1.58,1.58
61.57,-2.07,-3.63,-2.06,-3.63,3.63,3.50,3.92,1.56,1.57,1.56
62.18,-2.06,-3.61,-2.05,-3.60,3.60,3.48,3.88,1.54,1.54,1.55
62.80,-2.02,-3.56,-2.03,-3.56,3.56,3.46,3.84,1.54,1.53,1.53
63.43,-2.00,-3.52,-2.00,-3.52,3.52,3.44,3.80,1.52,1.52,1.52
64.07,-1.97,-3.48,-1.97,-3.47,3.47,3.42,3.75,1.50,1.50,1.50
64.71,-1.94,-3.43,-1.94,-3.43,3.43,3.40,3.70,1.48,1.49,1.49
65.35,-1.89,-3.36,-1.90,-3.37,3.37,3.38,3.65,1.48,1.47,1.47
66.01,-1.86,-3.32,-1.86,-3.31,3.31,3.36,3.59,1.45,1.45,1.45
66.67,-1.81,-3.25,-1.82,-3.25,3.25,3.35,3.53,1.44,1.43,1.44
67.33,-1.78,-3.20,-1.77,-3.19,3.18,3.33,3.47,1.40,1.41,1.42
68.01,-1.72,-3.12,-1.72,-3.12,3.12,3.31,3.40,1.39,1.40,1.40
68.69,-1.66,-3.04,-1.67,-3.05,3.05,3.29,3.34,1.39,1.38,1.38
69.37,-1.61,-2.97,-1.61,-2.97,2.98,3.27,3.27,1.36,1.36,1.36
70.07,-1.57,-2.91,-1.57,-2.91,2.90,3.24,3.19,1.33,1.34,1.34
70.77,-1.52,-2.84,-1.52,-2.84,2.83,3.22,3.12,1.31,1.31,1.32
71.48,-1.48,-2.78,-1.48,-2.78,2.76,3.20,3.05,1.28,1.28,1.30
72.19,-1.44,-2.72,-1.44,-2.71,2.70,3.17,2.97,1.26,1.26,1.27
72.91,-1.41,-2.66,-1.40,-2.65,2.65,3.14,2.89,1.24,1.25,1.25
73.64,-1.37,-2.60,-1.38,-2.60,2.62,3.11,2.81,1.25,1.25,1.23
74.38,-1.37,-2.58,-1.38,-2.58,2.61,3.07,2.73,1.24,1.23,1.20
75.12,-1.41,-2.59,-1.41,-2.59,2.63,3.04,2.65,1.22,1.22,1.18
75.87,-1.49,-2.65,-1.48,-2.64,2.67,3.00,2.58,1.18,1.18,1.15
76.63,-1.57,-2.70,-1.58,-2.71,2.73,2.96,2.50,1.16,1.15,1.13
77.40,-1.70,-2.80,-1.70,-2.80,2.82,2.91,2.42,1.11,1.12,1.10
78.17,-1.82,-2.90,-1.83,-2.90,2.91,2.87,2.34,1.09,1.08,1.07
78.95,-1.97,-3.02,-1.96,-3.01,3.01,2.82,2.26,1.04,1.05,1.05
79.74,-2.08,-3.10,-2.09,-3.10,3.10,2.77,2.18,1.02,1.01,1.02
80.54,-2.19,-3.18,-2.20,-3.19,3.17,2.71,2.11,0.97,0.97,0.99
81.35,-2.27,-3.23,-2.27,-3.23,3.20,2.65,2.03,0.93,0.93,0.96
82.16,-2.32,-3.25,-2.31,-3.24,3.19,2.59,1.95,0.87,0.88,0.93
82.98,-2.30,-3.20,-2.30,-3.20,3.15,2.53,1.88,0.85,0.85,0.90
83.81,-2.24,-3.11,-2.23,-3.10,3.07,2.46,1.81,0.83,0.83,0.87
84.65,-2.12,-2.96,-2.13,-2.97,2.95,2.40,1.73,0.83,0.83,0.84
85.50,-1.99,-2.80,-1.99,-2.80,2.81,2.33,1.66,0.81,0.81,0.81
86.35,-1.85,-2.63,-1.85,-2.62,2.64,2.26,1.59,0.79,0.79,0.77
87.22,-1.70,-2.44,-1.71,-2.45,2.47,2.18,1.52,0.77,0.76,0.74
88.09,-1.57,-2.28,-1.56,-2.27,2.29,2.11,1.46,0.72,0.73,0.71
88.97,-1.43,-2.11,-1.43,-2.11,2.12,2.03,1.39,0.69,0.69,0.67
89.86,-1.30,-1.94,-1.31,-1.95,1.97,1.96,1.32,0.66,0.65,0.64
90.76,-1.21,-1.82,-1.21,-1.81,1.82,1.88,1.26,0.61,0.62,0.60
91.66,-1.12,-1.69,-1.12,-1.69,1.70,1.80,1.19,0.57,0.58,0.57
92.58,-1.04,-1.58,-1.04,-1.58,1.58,1.73,1.13,0.54,0.54,0.53
93.51,-0.97,-1.47,-0.98,-1.47,1.47,1.65,1.07,0.50,0.50,0.50
94.44,-0.92,-1.38,-0.92,-1.38,1.38,1.57,1.01,0.46,0.46,0.46
95.39,-0.87,-1.30,-0.87,-1.30,1.29,1.49,0.95,0.42,0.42,0.42
96.34,-0.83,-1.22,-0.83,-1.22,1.21,1.41,0.89,0.38,0.38,0.39
97.30,-0.78,-1.13,-0.79,-1.14,1.13,1.34,0.83,0.35,0.35,0.35
98.28,-0.75,-1.07,-0.75,-1.07,1.06,1.26,0.77,0.31,0.31,0.31
99.26,-0.72,-1.00,-0.71,-0.99,0.99,1.19,0.71,0.27,0.27,0.28
100.25,-0.68,-0.92,-0.68,-0.92,0.92,1.11,0.66,0.24,0.24,0.24
101.25,-0.64,-0.84,-0.65,-0.85,0.85,1.04,0.60,0.21,0.20,0.20
102.27,-0.63,-0.79,-0.62,-0.79,0.79,0.96,0.55,0.16,0.17,0.16
103.29,-0.59,-0.72,-0.60,-0.72,0.73,0.89,0.50,0.14,0.13,0.12
104.32,-0.59,-0.68,-0.58,-0.67,0.67,0.82,0.45,0.08,0.09,0.09
105.37,-0.55,-0.60,-0.57,-0.61,0.61,0.75,0.40,0.06,0.05,0.05
106.42,-0.55,-0.56,-0.55,-0.56,0.56,0.68,0.35,0.01,0.01,0.01
107.48,-0.55,-0.52,-0.54,-0.51,0.51,0.61,0.30,-0.05,-0.03,-0.03
108.56,-0.51,-0.45,-0.53,-0.46,0.45,0.55,0.25,-0.06,-0.07,-0.07
109.64,-0.51,-0.41,-0.50,-0.40,0.40,0.48,0.20,-0.11,-0.10,-0.10
110.74,-0.48,-0.34,-0.49,-0.34,0.35,0.42,0.16,-0.14,-0.14,-0.14
111.85,-0.46,-0.28,-0.47,-0.29,0.29,0.36,0.11,-0.17,-0.17,-0.18
112.97,-0.46,-0.25,-0.45,-0.23,0.24,0.30,0.07,-0.22,-0.21,-0.22
114.10,-0.42,-0.17,-0.44,-0.18,0.19,0.24,0.03,-0.24,-0.25,-0.25
115.24,-0.42,-0.13,-0.42,-0.13,0.13,0.18,-0.01,-0.29,-0.29,-0.29
116.39,-0.42,-0.10,-0.41,-0.08,0.08,0.12,-0.05,-0.34,-0.33,-0.33
117.55,-0.38,-0.02,-0.39,-0.03,0.02,0.06,-0.09,-0.36,-0.37,-0.36
118.73,-0.38,0.02,-0.37,0.03,-0.03,0.01,-0.12,-0.41,-0.40,-0.40
119.92,-0.33,0.10,-0.34,0.09,-0.09,-0.04,-0.16,-0.42,-0.43,-0.43
121.12,-0.33,0.14,-0.32,0.14,-0.14,-0.10,-0.19,-0.48,-0.47,-0.47
122.33,-0.29,0.21,-0.30,0.21,-0.20,-0.15,-0.22,-0.49,-0.50,-0.50
123.55,-0.29,0.25,-0.28,0.26,-0.26,-0.20,-0.25,-0.55,-0.54,-0.54
124.79,-0.25,0.32,-0.26,0.31,-0.31,-0.24,-0.28,-0.56,-0.57,-0.57
126.03,-0.25,0.36,-0.25,0.36,-0.36,-0.29,-0.31,-0.61,-0.61,-0.61
127.29,-0.23,0.41,-0.22,0.42,-0.41,-0.34,-0.33,-0.64,-0.63,-0.64
128.57,-0.20,0.47,-0.21,0.46,-0.46,-0.38,-0.36,-0.66,-0.67,-0.67
129.85,-0.20,0.50,-0.20,0.50,-0.50,-0.43,-0.38,-0.70,-0.70,-0.70
131.15,-0.20,0.53,-0.19,0.55,-0.55,-0.47,-0.41,-0.75,-0.74,-0.74
132.46,-0.18,0.59,-0.18,0.58,-0.59,-0.51,-0.43,-0.77,-0.77,-0.77
133.79,-0.16,0.64,-0.17,0.63,-0.63,-0.55,-0.45,-0.79,-0.80,-0.80
135.12,-0.16,0.67,-0.15,0.68,-0.68,-0.59,-0.47,-0.84,-0.83,-0.83
136.48,-0.13,0.73,-0.14,0.72,-0.72,-0.63,-0.48,-0.85,-0.86,-0.86
137.84,-0.12,0.76,-0.13,0.76,-0.76,-0.67,-0.50,-0.88,-0.89,-0.89
139.22,-0.12,0.79,-0.11,0.80,-0.80,-0.70,-0.52,-0.92,-0.92,-0.91
140.61,-0.11,0.83,-0.10,0.84,-0.84,-0.74,-0.53,-0.95,-0.94,-0.94
142.02,-0.07,0.90,-0.09,0.88,-0.88,-0.77,-0.55,-0.95,-0.96,-0.97
143.44,-0.07,0.92,-0.07,0.92,-0.91,-0.80,-0.56,-0.99,-0.99,-1.00
144.87,-0.07,0.95,-0.07,0.95,-0.95,-0.84,-0.58,-1.02,-1.02,-1.02
146.32,-0.07,0.98,-0.07,0.98,-0.98,-0.87,-0.59,-1.05,-1.05,-1.05
147.78,-0.07,1.00,-0.07,1.00,-1.01,-0.90,-0.61,-1.08,-1.08,-1.07
149.26,-0.06,1.04,-0.06,1.03,-1.04,-0.93,-0.62,-1.11,-1.11,-1.10
150.75,-0.05,1.07,-0.05,1.07,-1.07,-0.96,-0.64,-1.13,-1.13,-1.12
152.26,-0.04,1.10,-0.04,1.10,-1.10,-0.99,-0.65,-1.14,-1.14,-1.14
153.78,-0.03,1.13,-0.03,1.13,-1.13,-1.01,-0.67,-1.16,-1.16,-1.17
155.32,-0.03,1.16,-0.03,1.16,-1.15,-1.04,-0.68,-1.18,-1.18,-1.19
156.88,-0.03,1.18,-0.03,1.18,-1.17,-1.06,-0.70,-1.20,-1.20,-1.21
158.44,-0.03,1.20,-0.04,1.19,-1.19,-1.09,-0.71,-1.22,-1.23,-1.23
160.03,-0.05,1.20,-0.05,1.20,-1.20,-1.11,-0.73,-1.26,-1.26,-1.25
161.63,-0.07,1.20,-0.06,1.20,-1.22,-1.14,-0.74,-1.29,-1.28,-1.27
163.24,-0.07,1.22,-0.07,1.22,-1.23,-1.16,-0.76,-1.30,-1.30,-1.29
164.88,-0.07,1.23,-0.07,1.24,-1.24,-1.18,-0.78,-1.31,-1.31,-1.31
166.53,-0.07,1.25,-0.07,1.25,-1.25,-1.20,-0.80,-1.32,-1.32,-1.32
168.19,-0.07,1.27,-0.08,1.26,-1.25,-1.22,-0.82,-1.32,-1.33,-1.34
169.87,-0.10,1.26,-0.10,1.26,-1.25,-1.24,-0.84,-1.35,-1.35,-1.36
171.57,-0.12,1.25,-0.12,1.26,-1.25,-1.26,-0.86,-1.37,-1.37,-1.37
173.29,-0.14,1.25,-0.15,1.24,-1.24,-1.28,-0.88,-1.38,-1.39,-1.39
175.02,-0.17,1.23,-0.17,1.23,-1.23,-1.29,-0.90,-1.40,-1.40,-1.41
176.77,-0.20,1.22,-0.20,1.22,-1.22,-1.31,-0.92,-1.43,-1.43,-1.42
178.54,-0.23,1.20,-0.23,1.20,-1.22,-1.33,-0.95,-1.45,-1.45,-1.43
180.32,-0.25,1.20,-0.25,1.20,-1.21,-1.34,-0.97,-1.46,-1.46,-1.45
182.13,-0.25,1.21,-0.25,1.21,-1.21,-1.36,-0.99,-1.46,-1.47,-1.46
183.95,-0.25,1.22,-0.25,1.22,-1.22,-1.37,-1.02,-1.47,-1.47,-1.47
185.79,-0.25,1.23,-0.25,1.23,-1.23,-1.38,-1.05,-1.48,-1.48,-1.49
187.65,-0.25,1.25,-0.25,1.24,-1.24,-1.40,-1.07,-1.49,-1.50,-1.50
189.52,-0.25,1.26,-0.25,1.26,-1.26,-1.41,-1.10,-1.51,-1.51,-1.51
191.42,-0.25,1.27,-0.24,1.28,-1.28,-1.42,-1.13,-1.53,-1.53,-1.52
193.33,-0.23,1.30,-0.23,1.30,-1.31,-1.43,-1.16,-1.54,-1.54,-1.53
195.27,-0.20,1.34,-0.21,1.33,-1.33,-1.44,-1.19,-1.54,-1.55,-1.54
197.22,-0.20,1.35,-0.19,1.36,-1.36,-1.45,-1.22,-1.56,-1.55,-1.55
199.19,-0.16,1.40,-0.17,1.39,-1.39,-1.46,-1.25,-1.55,-1.56,-1.56
201.18,-0.16,1.41,-0.15,1.42,-1.41,-1.47,-1.28,-1.58,-1.57,-1.57
203.19,-0.12,1.46,-0.13,1.45,-1.44,-1.48,-1.31,-1.56,-1.57,-1.58
205.23,-0.12,1.47,-0.12,1.46,-1.46,-1.49,-1.35,-1.58,-1.58,-1.59
207.28,-0.12,1.47,-0.12,1.48,-1.47,-1.49,-1.38,-1.59,-1.59,-1.60
209.35,-0.12,1.48,-0.12,1.48,-1.49,-1.50,-1.41,-1.61,-1.61,-1.60
211.44,-0.12,1.49,-0.12,1.49,-1.50,-1.51,-1.44,-1.62,-1.62,-1.61
213.56,-0.12,1.50,-0.12,1.50,-1.50,-1.51,-1.47,-1.63,-1.63,-1.62
215.69,-0.12,1.50,-0.12,1.50,-1.51,-1.52,-1.50,-1.63,-1.63,-1.63
217.85,-0.12,1.51,-0.12,1.51,-1.51,-1.52,-1.53,-1.63,-1.63,-1.63
220.03,-0.12,1.52,-0.12,1.52,-1.51,-1.53,-1.56,-1.63,-1.63,-1.64
222.23,-0.12,1.52,-0.12,1.52,-1.51,-1.53,-1.59,-1.63,-1.64,-1.64
224.45,-0.12,1.53,-0.14,1.52,-1.51,-1.54,-1.62,-1.63,-1.65,-1.65
226.70,-0.16,1.49,-0.15,1.51,-1.51,-1.54,-1.64,-1.67,-1.66,-1.66
228.96,-0.16,1.50,-0.16,1.50,-1.51,-1.54,-1.67,-1.67,-1.67,-1.66
231.25,-0.16,1.50,-0.17,1.50,-1.51,-1.55,-1.69,-1.67,-1.68,-1.67
233.57,-0.16,1.51,-0.16,1.51,-1.51,-1.55,-1.71,-1.67,-1.67,-1.67
235.90,-0.16,1.51,-0.16,1.51,-1.51,-1.55,-1.73,-1.68,-1.68,-1.68
238.26,-0.16,1.52,-0.16,1.52,-1.52,-1.55,-1.75,-1.68,-1.68,-1.68
240.64,-0.16,1.52,-0.16,1.52,-1.52,-1.55,-1.76,-1.68,-1.68,-1.68
243.05,-0.16,1.53,-0.16,1.53,-1.53,-1.55,-1.77,-1.69,-1.69,-1.69
245.48,-0.16,1.53,-0.16,1.53,-1.53,-1.55,-1.78,-1.69,-1.69,-1.69
247.93,-0.16,1.53,-0.16,1.54,-1.53,-1.55,-1.79,-1.69,-1.69,-1.70
250.41,-0.16,1.54,-0.16,1.54,-1.53,-1.55,-1.80,-1.69,-1.69,-1.70
252.92,-0.16,1.54,-0.18,1.53,-1.52,-1.55,-1.80,-1.69,-1.70,-1.70
255.45,-0.20,1.50,-0.19,1.52,-1.52,-1.55,-1.80,-1.72,-1.71,-1.71
258.00,-0.20,1.51,-0.20,1.51,-1.52,-1.55,-1.80,-1.72,-1.72,-1.71
260.58,-0.20,1.51,-0.21,1.51,-1.52,-1.55,-1.79,-1.72,-1.72,-1.71
263.19,-0.20,1.51,-0.20,1.51,-1.52,-1.55,-1.79,-1.72,-1.72,-1.71
265.82,-0.20,1.51,-0.20,1.51,-1.52,-1.55,-1.78,-1.72,-1.72,-1.72
268.48,-0.20,1.52,-0.20,1.52,-1.52,-1.54,-1.77,-1.72,-1.72,-1.72
271.16,-0.20,1.52,-0.20,1.52,-1.52,-1.54,-1.75,-1.72,-1.72,-1.72
273.87,-0.20,1.52,-0.20,1.52,-1.51,-1.54,-1.74,-1.72,-1.71,-1.72
276.61,-0.20,1.52,-0.20,1.52,-1.51,-1.54,-1.72,-1.71,-1.71,-1.72
279.38,-0.20,1.52,-0.22,1.51,-1.50,-1.53,-1.71,-1.71,-1.72,-1.73
282.17,-0.24,1.49,-0.23,1.50,-1.50,-1.53,-1.69,-1.74,-1.73,-1.73
284.99,-0.25,1.48,-0.25,1.48,-1.49,-1.53,-1.67,-1.74,-1.74,-1.73
287.84,-0.25,1.48,-0.26,1.48,-1.49,-1.52,-1.65,-1.74,-1.74,-1.73
290.72,-0.25,1.48,-0.25,1.48,-1.48,-1.52,-1.63,-1.73,-1.74,-1.73
293.63,-0.25,1.48,-0.25,1.48,-1.48,-1.51,-1.60,-1.73,-1.73,-1.73
296.57,-0.25,1.48,-0.25,1.48,-1.48,-1.51,-1.58,-1.73,-1.73,-1.73
299.53,-0.25,1.48,-0.25,1.48,-1.48,-1.51,-1.56,-1.73,-1.73,-1.74
302.53,-0.25,1.48,-0.25,1.48,-1.48,-1.50,-1.54,-1.74,-1.74,-1.74
305.55,-0.25,1.49,-0.25,1.49,-1.49,-1.50,-1.51,-1.74,-1.74,-1.74
308.61,-0.25,1.49,-0.25,1.49,-1.49,-1.49,-1.49,-1.74,-1.74,-1.74
311.69,-0.25,1.49,-0.25,1.49,-1.49,-1.49,-1.47,-1.74,-1.74,-1.74
314.81,-0.25,1.49,-0.25,1.49,-1.48,-1.48,-1.45,-1.74,-1.73,-1.74
317.96,-0.25,1.49,-0.25,1.49,-1.48,-1.48,-1.43,-1.73,-1.73,-1.74
321.14,-0.25,1.49,-0.26,1.48,-1.47,-1.47,-1.41,-1.72,-1.73,-1.74
324.35,-0.29,1.45,-0.28,1.46,-1.46,-1.47,-1.39,-1.75,-1.74,-1.74
327.59,-0.29,1.45,-0.30,1.44,-1.45,-1.46,-1.37,-1.74,-1.74,-1.74
330.87,-0.31,1.43,-0.32,1.43,-1.43,-1.45,-1.35,-1.75,-1.75,-1.74
334.18,-0.33,1.41,-0.32,1.42,-1.42,-1.45,-1.33,-1.75,-1.74,-1.74
337.52,-0.33,1.41,-0.33,1.41,-1.41,-1.44,-1.32,-1.74,-1.75,-1.74
340.90,-0.33,1.41,-0.34,1.40,-1.40,-1.44,-1.30,-1.74,-1.74,-1.74
344.30,-0.35,1.39,-0.35,1.40,-1.40,-1.43,-1.29,-1.75,-1.74,-1.74
347.75,-0.35,1.39,-0.35,1.39,-1.39,-1.43,-1.27,-1.74,-1.74,-1.74
351.23,-0.35,1.39,-0.35,1.39,-1.39,-1.42,-1.26,-1.74,-1.74,-1.74
354.74,-0.35,1.39,-0.35,1.39,-1.38,-1.41,-1.25,-1.73,-1.74,-1.74
358.28,-0.35,1.39,-0.36,1.38,-1.38,-1.41,-1.24,-1.73,-1.74,-1.74
361.87,-0.38,1.36,-0.37,1.37,-1.37,-1.40,-1.23,-1.75,-1.74,-1.74
365.49,-0.38,1.36,-0.38,1.36,-1.36,-1.40,-1.22,-1.74,-1.74,-1.74
369.14,-0.38,1.36,-0.38,1.36,-1.35,-1.39,-1.21,-1.74,-1.74,-1.74
372.83,-0.38,1.36,-0.39,1.35,-1.35,-1.39,-1.20,-1.73,-1.73,-1.74
376.56,-0.39,1.35,-0.40,1.34,-1.34,-1.38,-1.20,-1.73,-1.74,-1.74
380.33,-0.42,1.32,-0.41,1.33,-1.33,-1.37,-1.19,-1.75,-1.74,-1.74
384.13,-0.42,1.32,-0.42,1.32,-1.32,-1.37,-1.19,-1.75,-1.75,-1.74
387.97,-0.42,1.32,-0.42,1.31,-1.32,-1.36,-1.19,-1.74,-1.74,-1.74
391.85,-0.42,1.31,-0.42,1.31,-1.32,-1.36,-1.18,-1.74,-1.74,-1.74
395.77,-0.42,1.31,-0.42,1.31,-1.31,-1.35,-1.18,-1.73,-1.73,-1.74
399.73,-0.42,1.31,-0.42,1.31,-1.31,-1.35,-1.18,-1.73,-1.73,-1.74
403.72,-0.42,1.31,-0.42,1.31,-1.31,-1.34,-1.18,-1.73,-1.73,-1.73
407.76,-0.42,1.31,-0.42,1.31,-1.31,-1.34,-1.18,-1.73,-1.73,-1.73
411.84,-0.42,1.31,-0.42,1.31,-1.31,-1.33,-1.18,-1.73,-1.73,-1.73
415.96,-0.42,1.31,-0.42,1.31,-1.31,-1.33,-1.19,-1.73,-1.73,-1.73
420.12,-0.42,1.31,-0.42,1.31,-1.31,-1.32,-1.19,-1.73,-1.73,-1.73
424.32,-0.42,1.31,-0.42,1.31,-1.31,-1.32,-1.19,-1.73,-1.73,-1.73
428.56,-0.42,1.31,-0.42,1.31,-1.31,-1.31,-1.20,-1.73,-1.73,-1.73
432.85,-0.42,1.31,-0.42,1.31,-1.31,-1.31,-1.20,-1.73,-1.73,-1.73
437.18,-0.42,1.31,-0.42,1.31,-1.31,-1.30,-1.21,-1.73,-1.73,-1.73
441.55,-0.42,1.31,-0.42,1.31,-1.31,-1.30,-1.21,-1.73,-1.73,-1.73
445.96,-0.42,1.31,-0.42,1.31,-1.31,-1.30,-1.22,-1.73,-1.73,-1.73
450.42,-0.42,1.30,-0.42,1.30,-1.31,-1.29,-1.22,-1.73,-1.73,-1.73
454.93,-0.42,1.30,-0.42,1.30,-1.30,-1.29,-1.23,-1.73,-1.73,-1.72
459.48,-0.42,1.30,-0.42,1.30,-1.30,-1.29,-1.23,-1.72,-1.72,-1.72
464.07,-0.42,1.30,-0.42,1.31,-1.30,-1.28,-1.24,-1.72,-1.71,-1.72
