frequency,raw
20.00,3.31
20.20,3.35
20.40,3.39
20.61,3.42
20.81,3.46
21.02,3.49
21.23,3.53
21.44,3.57
21.66,3.60
21.87,3.63
22.09,3.67
22.31,3.69
22.54,3.72
22.76,3.74
22.99,3.77
23.22,3.79
23.45,3.82
23.69,3.84
23.92,3.86
24.16,3.88
24.40,3.90
24.65,3.93
24.89,3.94
25.14,3.97
25.39,3.99
25.65,4.01
25.91,4.03
26.16,4.05
26.43,4.06
26.69,4.08
26.96,4.10
27.23,4.12
27.50,4.14
27.77,4.16
28.05,4.18
28.33,4.20
28.62,4.21
28.90,4.24
29.19,4.25
29.48,4.26
29.78,4.27
30.08,4.28
30.38,4.31
30.68,4.32
30.99,4.33
31.30,4.34
31.61,4.36
31.93,4.38
32.24,4.39
32.57,4.41
32.89,4.43
33.22,4.44
33.55,4.46
33.89,4.47
34.23,4.48
34.57,4.50
34.92,4.51
35.27,4.52
35.62,4.53
35.97,4.54
36.33,4.55
36.70,4.56
37.06,4.57
37.43,4.59
37.81,4.60
38.19,4.61
38.57,4.63
38.95,4.64
39.34,4.66
39.74,4.66
40.14,4.68
40.54,4.69
40.94,4.69
41.35,4.69
41.76,4.70
42.18,4.70
42.60,4.70
43.03,4.69
43.46,4.69
43.90,4.68
44.33,4.68
44.78,4.67
45.23,4.67
45.68,4.67
46.13,4.67
46.60,4.67
47.06,4.67
47.53,4.68
48.01,4.68
48.49,4.68
48.97,4.68
49.46,4.68
49.96,4.68
50.46,4.68
50.96,4.68
51.47,4.67
51.99,4.67
52.51,4.67
53.03,4.67
53.56,4.67
54.10,4.66
54.64,4.66
55.18,4.66
55.74,4.66
56.29,4.65
56.86,4.65
57.42,4.65
58.00,4.64
58.58,4.65
59.16,4.65
59.76,4.65
60.35,4.65
60.96,4.65
61.57,4.64
62.18,4.64
62.80,4.63
63.43,4.62
64.07,4.61
64.71,4.60
65.35,4.58
66.01,4.56
66.67,4.53
67.33,4.51
68.01,4.49
68.69,4.47
69.37,4.44
70.07,4.42
70.77,4.40
71.48,4.37
72.19,4.34
72.91,4.32
73.64,4.31
74.38,4.28
75.12,4.27
75.87,4.25
76.63,4.25
77.40,4.25
78.17,4.24
78.95,4.26
79.74,4.27
80.54,4.28
81.35,4.28
82.16,4.27
82.98,4.26
83.81,4.24
84.65,4.22
85.50,4.20
86.35,4.17
87.22,4.14
88.09,4.12
88.97,4.08
89.86,4.05
90.76,4.02
91.66,3.99
92.58,3.97
93.51,3.95
94.44,3.94
95.39,3.93
96.34,3.92
97.30,3.90
98.28,3.89
99.26,3.88
100.25,3.86
101.25,3.84
102.27,3.81
103.29,3.79
104.32,3.76
105.37,3.73
106.42,3.69
107.48,3.65
108.56,3.61
109.64,3.59
110.74,3.57
111.85,3.56
112.97,3.55
114.10,3.56
115.24,3.56
116.39,3.55
117.55,3.53
118.73,3.51
119.92,3.48
121.12,3.45
122.33,3.41
123.55,3.38
124.79,3.34
126.03,3.31
127.29,3.28
128.57,3.26
129.85,3.22
131.15,3.18
132.46,3.15
133.79,3.12
135.12,3.08
136.48,3.07
137.84,3.03
139.22,3.01
140.61,2.99
142.02,2.94
143.44,2.93
144.87,2.89
146.32,2.85
147.78,2.82
149.26,2.79
150.75,2.75
152.26,2.73
153.78,2.70
155.32,2.68
156.88,2.64
158.44,2.62
160.03,2.58
161.63,2.55
163.24,2.51
164.88,2.45
166.53,2.42
168.19,2.39
169.87,2.35
171.57,2.33
173.29,2.31
175.02,2.26
176.77,2.21
178.54,2.16
180.32,2.12
182.13,2.08
183.95,2.02
185.79,1.98
187.65,1.94
189.52,1.90
191.42,1.86
193.33,1.81
195.27,1.76
197.22,1.71
199.19,1.67
201.18,1.62
203.19,1.59
205.23,1.55
207.28,1.52
209.35,1.48
211.44,1.42
213.56,1.39
215.69,1.35
217.85,1.32
220.03,1.29
222.23,1.26
224.45,1.21
226.70,1.16
228.96,1.09
231.25,1.06
233.57,1.01
235.90,0.94
238.26,0.90
240.64,0.84
243.05,0.79
245.48,0.73
247.93,0.67
250.41,0.63
252.92,0.56
255.45,0.51
258.00,0.47
260.58,0.41
263.19,0.37
265.82,0.31
268.48,0.27
271.16,0.23
273.87,0.19
276.61,0.15
279.38,0.13
282.17,0.08
284.99,0.04
287.84,-0.03
290.72,-0.07
293.63,-0.11
296.57,-0.14
299.53,-0.18
302.53,-0.21
305.55,-0.24
308.61,-0.27
311.69,-0.30
314.81,-0.32
317.96,-0.32
321.14,-0.33
324.35,-0.34
327.59,-0.34
330.87,-0.36
334.18,-0.38
337.52,-0.41
340.90,-0.43
344.30,-0.46
347.75,-0.50
351.23,-0.54
354.74,-0.59
358.28,-0.66
361.87,-0.71
365.49,-0.76
369.14,-0.80
372.83,-0.84
376.56,-0.89
380.33,-0.93
384.13,-0.97
387.97,-1.02
391.85,-1.08
395.77,-1.12
399.73,-1.17
403.72,-1.20
407.76,-1.25
411.84,-1.29
415.96,-1.34
420.12,-1.39
424.32,-1.44
428.56,-1.49
432.85,-1.53
437.18,-1.56
441.55,-1.59
445.96,-1.62
450.42,-1.66
454.93,-1.70
459.48,-1.75
464.07,-1.80
468.71,-1.84
473.40,-1.88
478.13,-1.91
482.91,-1.94
487.74,-1.95
492.62,-1.99
497.55,-2.05
502.52,-2.09
507.55,-2.14
512.62,-2.18
517.75,-2.22
522.93,-2.25
528.16,-2.26
533.44,-2.28
538.77,-2.33
544.16,-2.37
549.60,-2.42
555.10,-2.46
560.65,-2.50
566.25,-2.54
571.92,-2.58
577.64,-2.61
583.41,-2.64
589.25,-2.66
595.14,-2.70
601.09,-2.72
607.10,-2.74
613.17,-2.76
619.30,-2.79
625.50,-2.82
631.75,-2.84
638.07,-2.87
644.45,-2.89
650.89,-2.92
657.40,-2.95
663.98,-3.00
670.62,-3.03
677.32,-3.06
684.10,-3.09
690.94,-3.12
697.85,-3.13
704.83,-3.15
711.87,-3.15
718.99,-3.14
726.18,-3.14
733.44,-3.13
740.78,-3.13
748.19,-3.13
755.67,-3.13
763.23,-3.14
770.86,-3.14
778.57,-3.14
786.35,-3.14
794.22,-3.13
802.16,-3.14
810.18,-3.15
818.28,-3.15
826.46,-3.14
834.73,-3.13
843.08,-3.09
851.51,-3.06
860.02,-3.03
868.62,-3.00
877.31,-2.96
886.08,-2.92
894.94,-2.86
903.89,-2.79
912.93,-2.72
922.06,-2.65
931.28,-2.58
940.59,-2.50
950.00,-2.41
959.50,-2.33
969.09,-2.25
978.78,-2.16
988.57,-2.06
998.46,-1.95
1008.44,-1.83
1018.53,-1.70
1028.71,-1.58
1039.00,-1.45
1049.39,-1.32
1059.88,-1.19
1070.48,-1.06
1081.19,-0.93
1092.00,-0.77
1102.92,-0.61
1113.95,-0.46
1125.09,-0.31
1136.34,-0.16
1147.70,0.01
1159.18,0.17
1170.77,0.34
1182.48,0.51
1194.30,0.67
1206.25,0.85
1218.31,1.02
1230.49,1.19
1242.80,1.35
1255.22,1.52
1267.78,1.69
1280.45,1.86
1293.26,2.02
1306.19,2.18
1319.25,2.34
1332.45,2.50
1345.77,2.65
1359.23,2.81
1372.82,2.96
1386.55,3.11
1400.41,3.28
1414.42,3.45
1428.56,3.61
1442.85,3.77
1457.28,3.94
1471.85,4.11
1486.57,4.27
1501.43,4.42
1516.45,4.57
1531.61,4.75
1546.93,4.93
1562.40,5.08
1578.02,5.24
1593.80,5.40
1609.74,5.57
1625.84,5.74
1642.10,5.91
1658.52,6.08
1675.10,6.24
1691.85,6.42
1708.77,6.59
1725.86,6.77
1743.12,6.95
1760.55,7.12
1778.15,7.30
1795.94,7.46
1813.90,7.62
1832.03,7.77
1850.36,7.93
1868.86,8.09
1887.55,8.22
1906.42,8.35
1925.49,8.48
1944.74,8.60
1964.19,8.71
1983.83,8.80
2003.67,8.88
2023.71,8.96
2043.94,9.03
2064.38,9.09
2085.03,9.13
2105.88,9.17
2126.94,9.21
2148.20,9.21
2169.69,9.21
2191.38,9.20
2213.30,9.16
2235.43,9.13
2257.78,9.09
2280.36,9.03
2303.17,8.95
2326.20,8.85
2349.46,8.74
2372.95,8.61
2396.68,8.47
2420.65,8.30
2444.86,8.13
2469.31,7.96
2494.00,7.77
2518.94,7.59
2544.13,7.39
2569.57,7.19
2595.27,6.99
2621.22,6.79
2647.43,6.59
2673.90,6.37
2700.64,6.16
2727.65,5.94
2754.93,5.72
2782.48,5.51
2810.30,5.30
2838.40,5.10
2866.79,4.90
2895.46,4.71
2924.41,4.53
2953.65,4.34
2983.19,4.16
3013.02,3.99
3043.15,3.82
3073.58,3.67
3104.32,3.54
3135.36,3.41
3166.72,3.29
3198.38,3.18
3230.37,3.07
3262.67,2.97
3295.30,2.88
3328.25,2.81
3361.53,2.74
3395.15,2.70
3429.10,2.67
3463.39,2.67
3498.03,2.67
3533.01,2.68
3568.34,2.70
3604.02,2.74
3640.06,2.82
3676.46,2.90
3713.22,2.99
3750.36,3.11
3787.86,3.22
3825.74,3.34
3864.00,3.47
3902.64,3.61
3941.66,3.77
3981.08,3.92
4020.89,4.08
4061.10,4.24
4101.71,4.39
4142.73,4.56
4184.15,4.74
4226.00,4.90
4268.26,5.07
4310.94,5.23
4354.05,5.40
4397.59,5.57
4441.56,5.73
4485.98,5.89
4530.84,6.04
4576.15,6.18
4621.91,6.30
4668.13,6.42
4714.81,6.54
4761.96,6.63
4809.58,6.71
4857.67,6.76
4906.25,6.78
4955.31,6.79
5004.87,6.76
5054.91,6.73
5105.46,6.66
5156.52,6.56
5208.08,6.42
5260.16,6.26
5312.77,6.05
5365.89,5.80
5419.55,5.54
5473.75,5.25
5528.49,4.94
5583.77,4.59
5639.61,4.22
5696.00,3.83
5752.96,3.41
5810.49,2.98
5868.60,2.54
5927.28,2.07
5986.56,1.61
6046.42,1.18
6106.89,0.73
6167.96,0.33
6229.64,-0.09
6291.93,-0.50
6354.85,-0.90
6418.40,-1.26
6482.58,-1.60
6547.41,-1.91
6612.88,-2.20
6679.01,-2.48
6745.80,-2.74
6813.26,-3.00
6881.39,-3.23
6950.21,-3.45
7019.71,-3.64
7089.91,-3.79
7160.81,-3.93
7232.41,-4.03
7304.74,-4.12
7377.79,-4.19
7451.56,-4.26
7526.08,-4.31
7601.34,-4.38
7677.35,-4.46
7754.13,-4.59
7831.67,-4.75
7909.98,-4.97
7989.08,-5.26
8068.98,-5.63
8149.67,-6.06
8231.16,-6.55
8313.47,-7.11
8396.61,-7.70
8480.57,-8.37
8565.38,-9.05
8651.03,-9.75
8737.54,-10.44
8824.92,-11.12
8913.17,-11.76
9002.30,-12.35
9092.32,-12.88
9183.25,-13.34
9275.08,-13.71
9367.83,-13.99
9461.51,-14.21
9556.12,-14.34
9651.68,-14.37
9748.20,-14.31
9845.68,-14.17
9944.14,-13.91
10043.58,-13.56
10144.02,-13.15
10245.46,-12.66
10347.91,-12.16
10451.39,-11.62
10555.91,-11.06
10661.46,-10.54
10768.08,-10.03
10875.76,-9.57
10984.52,-9.16
11094.36,-8.80
11205.31,-8.51
11317.36,-8.25
11430.53,-8.04
11544.84,-7.87
11660.29,-7.72
11776.89,-7.62
11894.66,-7.51
12013.60,-7.39
12133.74,-7.24
12255.08,-7.09
12377.63,-6.92
12501.41,-6.75
12626.42,-6.60
12752.68,-6.44
12880.21,-6.32
13009.01,-6.21
13139.10,-6.17
13270.49,-6.17
13403.20,-6.21
13537.23,-6.29
13672.60,-6.39
13809.33,-6.52
13947.42,-6.69
14086.90,-6.90
14227.77,-7.17
14370.04,-7.50
14513.74,-7.94
14658.88,-8.47
14805.47,-9.12
14953.52,-9.90
15103.06,-10.82
15254.09,-11.87
15406.63,-13.03
15560.70,-14.29
15716.30,-15.63
15873.47,-17.01
16032.20,-18.44
16192.52,-19.85
16354.45,-21.22
16517.99,-22.53
16683.17,-23.73
16850.01,-24.80
17018.51,-25.73
17188.69,-26.52
17360.58,-27.18
17534.18,-27.76
17709.53,-28.30
17886.62,-28.80
18065.49,-29.31
18246.14,-29.77
18428.60,-30.18
18612.89,-30.53
18799.02,-30.84
18987.01,-31.07
19176.88,-31.28
19368.65,-31.41
19562.33,-31.50
19757.96,-31.53
19955.54,-31.51
