frequency,raw,error,smoothed,error_smoothed,equalization,parametric_eq,fixed_band_eq,equalized_raw,equalized_smoothed,target
20.00,-9.00,-12.33,-9.00,-12.32,6.00,5.38,2.70,-3.00,-3.00,3.33
20.20,-8.88,-12.25,-8.89,-12.25,6.00,5.43,2.78,-2.88,-2.89,3.37
20.40,-8.76,-12.17,-8.77,-12.17,6.00,5.49,2.86,-2.76,-2.77,3.41
20.61,-8.64,-12.07,-8.64,-12.08,6.00,5.54,2.94,-2.64,-2.64,3.43
20.81,-8.52,-11.99,-8.52,-11.99,6.00,5.59,3.02,-2.52,-2.52,3.47
21.02,-8.39,-11.90,-8.39,-11.88,6.00,5.64,3.11,-2.39,-2.39,3.51
21.23,-8.24,-11.76,-8.24,-11.76,6.00,5.69,3.20,-2.24,-2.24,3.51
21.44,-8.08,-11.62,-8.08,-11.62,6.00,5.74,3.29,-2.08,-2.08,3.53
21.66,-7.93,-11.48,-7.92,-11.46,6.00,5.78,3.39,-1.93,-1.92,3.54
21.87,-7.77,-11.31,-7.78,-11.33,6.00,5.83,3.48,-1.77,-1.78,3.54
22.09,-7.66,-11.22,-7.67,-11.23,6.00,5.87,3.58,-1.66,-1.67,3.55
22.31,-7.60,-11.16,-7.60,-11.15,6.00,5.92,3.69,-1.60,-1.60,3.55
22.54,-7.55,-11.11,-7.55,-11.10,6.00,5.96,3.79,-1.55,-1.55,3.55
22.76,-7.50,-11.04,-7.50,-11.05,6.00,6.00,3.90,-1.50,-1.50,3.54
22.99,-7.44,-10.98,-7.43,-10.96,6.00,6.04,4.01,-1.44,-1.43,3.53
23.22,-7.32,-10.85,-7.32,-10.85,6.00,6.07,4.12,-1.32,-1.32,3.53
23.45,-7.19,-10.71,-7.20,-10.72,6.00,6.11,4.24,-1.19,-1.20,3.52
23.69,-7.07,-10.60,-7.07,-10.59,6.00,6.14,4.36,-1.07,-1.07,3.52
23.92,-6.94,-10.46,-6.96,-10.48,6.00,6.17,4.48,-0.94,-0.96,3.52
24.16,-6.88,-10.41,-6.89,-10.41,6.00,6.20,4.60,-0.88,-0.89,3.53
24.40,-6.84,-10.37,-6.85,-10.37,6.00,6.22,4.72,-0.84,-0.85,3.53
24.65,-6.81,-10.33,-6.82,-10.34,6.00,6.25,4.85,-0.81,-0.82,3.52
24.89,-6.77,-10.29,-6.75,-10.27,6.00,6.27,4.98,-0.77,-0.75,3.52
25.14,-6.64,-10.16,-6.62,-10.14,6.00,6.29,5.11,-0.64,-0.62,3.52
25.39,-6.42,-9.94,-6.43,-9.95,6.00,6.30,5.23,-0.42,-0.43,3.52
25.65,-6.21,-9.72,-6.21,-9.72,6.00,6.32,5.37,-0.21,-0.21,3.51
25.91,-6.01,-9.50,-6.02,-9.52,6.00,6.33,5.50,-0.01,-0.02,3.50
26.16,-5.84,-9.34,-5.85,-9.35,6.00,6.34,5.63,0.16,0.15,3.50
26.43,-5.72,-9.22,-5.71,-9.21,6.00,6.34,5.75,0.28,0.29,3.50
26.69,-5.59,-9.09,-5.59,-9.08,6.00,6.34,5.88,0.41,0.41,3.50
26.96,-5.47,-8.96,-5.48,-8.97,6.00,6.34,6.01,0.53,0.52,3.48
27.23,-5.36,-8.85,-5.36,-8.84,6.00,6.34,6.13,0.64,0.64,3.48
27.50,-5.24,-8.73,-5.25,-8.73,6.00,6.33,6.25,0.76,0.75,3.48
27.77,-5.13,-8.60,-5.13,-8.61,6.00,6.32,6.36,0.87,0.87,3.47
28.05,-5.02,-8.49,-5.01,-8.48,6.00,6.31,6.47,0.98,0.99,3.47
28.33,-4.88,-8.34,-4.89,-8.35,6.00,6.29,6.57,1.12,1.11,3.46
28.62,-4.75,-8.21,-4.75,-8.21,6.00,6.27,6.67,1.25,1.25,3.46
28.90,-4.62,-8.08,-4.62,-8.08,6.00,6.25,6.76,1.38,1.38,3.46
29.19,-4.49,-7.95,-4.49,-7.95,6.00,6.22,6.84,1.51,1.51,3.46
29.48,-4.37,-7.84,-4.37,-7.83,6.00,6.19,6.90,1.63,1.63,3.47
29.78,-4.24,-7.70,-4.25,-7.71,6.00,6.16,6.96,1.76,1.75,3.46
30.08,-4.13,-7.60,-4.14,-7.60,6.00,6.12,7.01,1.87,1.86,3.47
30.38,-4.04,-7.49,-4.05,-7.49,6.00,6.08,7.04,1.96,1.95,3.44
30.68,-3.95,-7.40,-3.95,-7.39,6.00,6.04,7.06,2.05,2.05,3.44
30.99,-3.85,-7.29,-3.84,-7.28,6.00,6.00,7.07,2.15,2.16,3.43
31.30,-3.71,-7.14,-3.71,-7.14,6.00,5.95,7.06,2.29,2.29,3.43
31.61,-3.56,-6.99,-3.56,-6.99,6.00,5.90,7.04,2.44,2.44,3.43
31.93,-3.41,-6.82,-3.43,-6.84,6.00,5.85,7.01,2.59,2.57,3.41
32.24,-3.30,-6.70,-3.30,-6.70,6.01,5.79,6.96,2.71,2.71,3.40
32.57,-3.20,-6.60,-3.19,-6.58,6.03,5.73,6.90,2.82,2.83,3.40
32.89,-3.09,-6.48,-3.10,-6.48,6.04,5.67,6.83,2.94,2.94,3.38
33.22,-3.00,-6.36,-3.01,-6.38,6.03,5.61,6.75,3.03,3.02,3.36
33.55,-2.92,-6.28,-2.92,-6.28,6.00,5.54,6.66,3.08,3.08,3.36
33.89,-2.83,-6.17,-2.82,-6.16,5.94,5.48,6.56,3.11,3.13,3.34
34.23,-2.68,-6.02,-2.68,-6.01,5.86,5.41,6.45,3.18,3.19,3.34
34.57,-2.50,-5.82,-2.51,-5.83,5.76,5.33,6.33,3.26,3.25,3.32
34.92,-2.32,-5.63,-2.33,-5.64,5.65,5.26,6.20,3.33,3.32,3.30
35.27,-2.17,-5.48,-2.17,-5.46,5.53,5.18,6.07,3.35,3.36,3.30
35.62,-2.03,-5.31,-2.03,-5.31,5.40,5.10,5.93,3.37,3.37,3.28
35.97,-1.89,-5.16,-1.92,-5.19,5.26,5.02,5.79,3.37,3.35,3.27
36.33,-1.83,-5.10,-1.84,-5.10,5.12,4.94,5.64,3.29,3.29,3.27
36.70,-1.77,-5.03,-1.76,-5.02,4.98,4.86,5.49,3.20,3.22,3.25
37.06,-1.69,-4.93,-1.67,-4.92,4.84,4.77,5.34,3.15,3.17,3.24
37.43,-1.54,-4.79,-1.55,-4.79,4.71,4.68,5.19,3.17,3.16,3.25
37.81,-1.38,-4.62,-1.39,-4.62,4.58,4.59,5.03,3.20,3.19,3.24
38.19,-1.21,-4.44,-1.19,-4.43,4.46,4.50,4.88,3.24,3.26,3.22
38.57,-1.03,-4.26,-1.02,-4.25,4.33,4.40,4.72,3.30,3.31,3.23
38.95,-0.84,-4.06,-0.90,-4.12,4.20,4.31,4.57,3.36,3.30,3.22
39.34,-0.83,-4.05,-0.84,-4.06,4.09,4.21,4.42,3.26,3.24,3.21
39.74,-0.84,-4.04,-0.82,-4.02,3.99,4.11,4.26,3.15,3.18,3.20
40.14,-0.80,-4.00,-0.76,-3.96,3.91,4.01,4.11,3.11,3.16,3.20
40.54,-0.64,-3.84,-0.65,-3.84,3.84,3.91,3.96,3.20,3.19,3.20
40.94,-0.49,-3.68,-0.55,-3.74,3.76,3.80,3.81,3.27,3.21,3.19
41.35,-0.47,-3.65,-0.49,-3.67,3.66,3.70,3.66,3.19,3.18,3.18
41.76,-0.47,-3.64,-0.44,-3.61,3.55,3.59,3.52,3.08,3.11,3.16
42.18,-0.38,-3.54,-0.34,-3.50,3.42,3.48,3.37,3.04,3.09,3.16
42.60,-0.16,-3.31,-0.17,-3.32,3.29,3.37,3.23,3.13,3.12,3.15
43.03,0.05,-3.09,0.02,-3.11,3.15,3.26,3.09,3.20,3.17,3.14
43.46,0.18,-2.94,0.19,-2.93,3.00,3.15,2.95,3.18,3.19,3.12
43.90,0.31,-2.79,0.28,-2.82,2.84,3.04,2.82,3.15,3.12,3.09
44.33,0.36,-2.72,0.34,-2.74,2.70,2.92,2.69,3.05,3.04,3.08
44.78,0.39,-2.67,0.44,-2.62,2.57,2.81,2.55,2.96,3.01,3.05
45.23,0.54,-2.50,0.60,-2.44,2.47,2.70,2.42,3.01,3.07,3.04
45.68,0.80,-2.23,0.75,-2.27,2.38,2.59,2.30,3.17,3.13,3.02
46.13,0.93,-2.08,0.80,-2.21,2.28,2.47,2.17,3.21,3.08,3.01
46.60,0.77,-2.23,0.79,-2.21,2.18,2.36,2.05,2.95,2.97,3.00
47.06,0.66,-2.34,0.80,-2.20,2.07,2.25,1.92,2.73,2.87,3.00
47.53,0.91,-2.08,0.89,-2.10,1.97,2.14,1.80,2.88,2.86,2.99
48.01,1.16,-1.83,1.10,-1.88,1.88,2.03,1.68,3.03,2.97,2.98
48.49,1.28,-1.69,1.29,-1.68,1.79,1.92,1.57,3.07,3.08,2.97
48.97,1.39,-1.56,1.37,-1.58,1.70,1.81,1.45,3.08,3.06,2.95
49.46,1.41,-1.54,1.41,-1.53,1.58,1.70,1.34,2.99,2.98,2.94
49.96,1.42,-1.51,1.44,-1.50,1.45,1.60,1.23,2.87,2.89,2.93
50.46,1.50,-1.44,1.49,-1.44,1.33,1.49,1.12,2.83,2.83,2.94
50.96,1.59,-1.34,1.61,-1.31,1.23,1.39,1.01,2.82,2.85,2.93
51.47,1.77,-1.15,1.76,-1.16,1.15,1.28,0.91,2.92,2.92,2.92
51.99,1.94,-0.98,1.92,-1.00,1.08,1.18,0.80,3.02,3.00,2.91
52.51,2.03,-0.89,2.03,-0.88,1.00,1.08,0.70,3.02,3.03,2.91
53.03,2.11,-0.81,2.06,-0.85,0.91,0.97,0.60,3.02,2.97,2.92
53.56,2.05,-0.86,2.06,-0.85,0.82,0.87,0.50,2.87,2.88,2.91
54.10,2.03,-0.87,2.07,-0.83,0.74,0.77,0.41,2.77,2.82,2.90
54.64,2.14,-0.76,2.13,-0.76,0.67,0.68,0.31,2.80,2.80,2.90
55.18,2.26,-0.63,2.25,-0.63,0.60,0.58,0.22,2.86,2.86,2.89
55.74,2.39,-0.49,2.38,-0.50,0.54,0.48,0.13,2.92,2.91,2.88
56.29,2.48,-0.40,2.47,-0.40,0.45,0.39,0.05,2.93,2.92,2.87
56.86,2.54,-0.32,2.55,-0.31,0.36,0.30,-0.04,2.90,2.91,2.85
57.42,2.59,-0.25,2.59,-0.25,0.26,0.20,-0.12,2.85,2.85,2.84
58.00,2.65,-0.18,2.59,-0.23,0.18,0.11,-0.20,2.83,2.77,2.83
58.58,2.62,-0.20,2.66,-0.15,0.11,0.02,-0.28,2.72,2.77,2.82
59.16,2.68,-0.12,2.79,-0.01,0.04,-0.07,-0.35,2.72,2.82,2.80
59.76,2.99,0.21,2.85,0.07,-0.04,-0.15,-0.42,2.94,2.81,2.78
60.35,2.99,0.23,2.90,0.15,-0.13,-0.24,-0.49,2.86,2.77,2.75
60.96,2.78,0.05,2.93,0.20,-0.22,-0.33,-0.55,2.56,2.71,2.73
61.57,2.93,0.24,2.93,0.24,-0.31,-0.41,-0.62,2.62,2.63,2.69
62.18,3.07,0.42,3.01,0.36,-0.39,-0.49,-0.68,2.68,2.62,2.65
62.80,3.13,0.51,3.15,0.53,-0.46,-0.58,-0.73,2.66,2.68,2.61
63.43,3.19,0.61,3.19,0.61,-0.55,-0.66,-0.79,2.64,2.64,2.58
64.07,3.24,0.70,3.18,0.64,-0.64,-0.74,-0.84,2.60,2.54,2.54
64.71,3.14,0.64,3.19,0.68,-0.72,-0.82,-0.89,2.41,2.46,2.50
65.35,3.18,0.70,3.23,0.76,-0.81,-0.89,-0.93,2.37,2.42,2.47
66.01,3.35,0.91,3.30,0.86,-0.89,-0.97,-0.98,2.46,2.41,2.44
66.67,3.42,1.02,3.42,1.02,-0.97,-1.05,-1.02,2.45,2.45,2.40
67.33,3.48,1.11,3.48,1.12,-1.06,-1.12,-1.06,2.42,2.42,2.37
68.01,3.54,1.21,3.48,1.15,-1.16,-1.19,-1.10,2.38,2.31,2.33
68.69,3.45,1.16,3.49,1.20,-1.26,-1.26,-1.14,2.18,2.23,2.29
69.37,3.50,1.25,3.56,1.32,-1.36,-1.34,-1.17,2.14,2.21,2.25
70.07,3.68,1.47,3.67,1.46,-1.45,-1.40,-1.21,2.23,2.22,2.20
70.77,3.84,1.67,3.75,1.58,-1.53,-1.47,-1.24,2.30,2.22,2.17
71.48,3.79,1.66,3.78,1.65,-1.61,-1.54,-1.27,2.18,2.17,2.13
72.19,3.69,1.60,3.77,1.68,-1.68,-1.61,-1.30,2.00,2.08,2.08
72.91,3.77,1.74,3.76,1.73,-1.75,-1.67,-1.34,2.02,2.01,2.03
73.64,3.83,1.84,3.81,1.82,-1.82,-1.74,-1.37,2.01,1.99,1.99
74.38,3.86,1.92,3.86,1.92,-1.88,-1.80,-1.40,1.97,1.97,1.94
75.12,3.86,1.96,3.84,1.94,-1.96,-1.86,-1.43,1.90,1.89,1.89
75.87,3.85,1.99,3.81,1.96,-2.03,-1.92,-1.46,1.81,1.78,1.86
76.63,3.78,1.96,3.86,2.05,-2.11,-1.98,-1.49,1.67,1.75,1.82
77.40,3.92,2.13,3.96,2.18,-2.19,-2.04,-1.53,1.73,1.77,1.78
78.17,4.17,2.42,4.05,2.31,-2.26,-2.10,-1.56,1.91,1.79,1.74
78.95,4.12,2.40,4.12,2.41,-2.32,-2.15,-1.59,1.80,1.80,1.72
79.74,4.08,2.39,4.11,2.43,-2.37,-2.21,-1.63,1.70,1.74,1.69
80.54,4.06,2.40,4.06,2.41,-2.42,-2.26,-1.66,1.64,1.64,1.66
81.35,4.06,2.43,4.05,2.43,-2.45,-2.32,-1.70,1.61,1.60,1.62
82.16,4.06,2.46,4.06,2.47,-2.47,-2.37,-1.74,1.59,1.59,1.59
82.98,4.06,2.49,4.06,2.49,-2.48,-2.42,-1.78,1.57,1.57,1.57
83.81,4.06,2.53,4.03,2.49,-2.51,-2.47,-1.82,1.55,1.52,1.53
84.65,3.99,2.49,4.00,2.50,-2.54,-2.52,-1.87,1.45,1.46,1.50
85.50,3.98,2.50,4.02,2.55,-2.59,-2.57,-1.91,1.39,1.43,1.47
86.35,4.06,2.62,4.06,2.62,-2.64,-2.61,-1.96,1.42,1.42,1.44
87.22,4.16,2.75,4.12,2.71,-2.69,-2.66,-2.00,1.47,1.43,1.40
88.09,4.16,2.79,4.16,2.79,-2.74,-2.70,-2.05,1.41,1.42,1.37
88.97,4.16,2.81,4.17,2.83,-2.80,-2.75,-2.11,1.36,1.37,1.34
89.86,4.16,2.85,4.16,2.85,-2.85,-2.79,-2.16,1.31,1.31,1.31
90.76,4.16,2.88,4.16,2.88,-2.89,-2.83,-2.21,1.26,1.27,1.27
91.66,4.17,2.92,4.16,2.92,-2.93,-2.87,-2.27,1.24,1.23,1.25
92.58,4.17,2.96,4.17,2.96,-2.96,-2.91,-2.33,1.21,1.21,1.21
93.51,4.17,2.99,4.17,2.98,-2.99,-2.95,-2.39,1.18,1.18,1.18
94.44,4.17,3.01,4.16,3.01,-3.01,-2.99,-2.45,1.15,1.15,1.15
95.39,4.16,3.03,4.16,3.04,-3.04,-3.03,-2.51,1.12,1.12,1.13
96.34,4.16,3.07,4.16,3.07,-3.06,-3.06,-2.58,1.09,1.10,1.09
97.30,4.16,3.10,4.15,3.09,-3.08,-3.10,-2.64,1.07,1.07,1.06
98.28,4.15,3.12,4.15,3.11,-3.10,-3.13,-2.71,1.05,1.04,1.03
99.26,4.13,3.12,4.13,3.12,-3.12,-3.16,-2.78,1.01,1.01,1.01
100.25,4.11,3.12,4.11,3.12,-3.13,-3.20,-2.85,0.97,0.98,0.98
101.25,4.09,3.13,4.09,3.14,-3.15,-3.23,-2.92,0.94,0.95,0.95
102.27,4.08,3.15,4.08,3.16,-3.16,-3.26,-2.99,0.92,0.92,0.92
103.29,4.07,3.19,4.06,3.18,-3.18,-3.29,-3.06,0.89,0.89,0.88
104.32,4.05,3.19,4.05,3.20,-3.20,-3.31,-3.13,0.85,0.85,0.86
105.37,4.03,3.21,4.02,3.20,-3.22,-3.34,-3.20,0.81,0.80,0.82
106.42,4.00,3.21,4.00,3.21,-3.23,-3.37,-3.27,0.76,0.76,0.79
107.48,3.98,3.23,4.00,3.25,-3.24,-3.39,-3.34,0.73,0.76,0.75
108.56,3.99,3.28,4.00,3.29,-3.25,-3.42,-3.41,0.74,0.75,0.71
109.64,4.02,3.35,3.96,3.29,-3.25,-3.44,-3.48,0.77,0.71,0.67
110.74,3.90,3.26,3.91,3.27,-3.25,-3.46,-3.54,0.65,0.66,0.64
111.85,3.81,3.20,3.84,3.23,-3.25,-3.48,-3.60,0.55,0.59,0.61
112.97,3.79,3.22,3.78,3.21,-3.26,-3.51,-3.66,0.53,0.53,0.56
114.10,3.78,3.23,3.77,3.23,-3.27,-3.53,-3.72,0.51,0.51,0.54
115.24,3.78,3.27,3.78,3.27,-3.28,-3.54,-3.78,0.50,0.50,0.51
116.39,3.78,3.30,3.78,3.30,-3.30,-3.56,-3.83,0.48,0.48,0.48
117.55,3.78,3.33,3.78,3.33,-3.33,-3.58,-3.87,0.45,0.46,0.45
118.73,3.79,3.36,3.79,3.36,-3.36,-3.60,-3.91,0.43,0.43,0.42
119.92,3.80,3.38,3.79,3.39,-3.38,-3.61,-3.95,0.41,0.41,0.42
121.12,3.80,3.41,3.81,3.41,-3.40,-3.63,-3.98,0.39,0.40,0.39
122.33,3.81,3.43,3.81,3.43,-3.41,-3.64,-4.01,0.40,0.40,0.37
123.55,3.82,3.45,3.80,3.44,-3.41,-3.66,-4.03,0.41,0.39,0.37
124.79,3.77,3.43,3.77,3.43,-3.41,-3.67,-4.05,0.36,0.36,0.34
126.03,3.73,3.40,3.72,3.40,-3.40,-3.68,-4.06,0.33,0.32,0.33
127.29,3.67,3.36,3.68,3.37,-3.39,-3.69,-4.07,0.27,0.28,0.31
128.57,3.65,3.36,3.65,3.36,-3.39,-3.70,-4.07,0.26,0.26,0.29
129.85,3.65,3.37,3.65,3.37,-3.39,-3.71,-4.07,0.25,0.25,0.27
131.15,3.66,3.40,3.65,3.39,-3.40,-3.72,-4.06,0.25,0.25,0.26
132.46,3.66,3.41,3.66,3.41,-3.41,-3.73,-4.04,0.24,0.24,0.25
133.79,3.67,3.42,3.68,3.44,-3.43,-3.73,-4.03,0.24,0.25,0.25
135.12,3.68,3.46,3.69,3.47,-3.44,-3.74,-4.00,0.24,0.25,0.22
136.48,3.73,3.51,3.69,3.48,-3.46,-3.74,-3.98,0.27,0.24,0.21
137.84,3.67,3.47,3.66,3.48,-3.46,-3.75,-3.95,0.21,0.20,0.19
139.22,3.61,3.44,3.63,3.45,-3.46,-3.75,-3.92,0.15,0.17,0.16
140.61,3.58,3.43,3.58,3.43,-3.45,-3.76,-3.88,0.13,0.14,0.15
142.02,3.58,3.43,3.58,3.45,-3.44,-3.76,-3.85,0.14,0.15,0.15
143.44,3.58,3.45,3.57,3.45,-3.43,-3.76,-3.81,0.15,0.14,0.13
144.87,3.58,3.48,3.53,3.43,-3.43,-3.76,-3.77,0.15,0.10,0.10
146.32,3.46,3.38,3.48,3.40,-3.44,-3.76,-3.73,0.02,0.04,0.07
147.78,3.42,3.37,3.46,3.41,-3.45,-3.76,-3.69,-0.03,0.01,0.05
149.26,3.46,3.44,3.47,3.46,-3.47,-3.76,-3.65,-0.01,-0.00,0.01
150.75,3.53,3.57,3.49,3.52,-3.50,-3.76,-3.61,0.03,-0.01,-0.04
152.26,3.50,3.58,3.47,3.56,-3.53,-3.76,-3.57,-0.03,-0.06,-0.09
153.78,3.40,3.54,3.43,3.57,-3.57,-3.76,-3.53,-0.18,-0.14,-0.14
155.32,3.38,3.58,3.39,3.59,-3.62,-3.75,-3.49,-0.24,-0.23,-0.20
156.88,3.38,3.63,3.37,3.64,-3.66,-3.75,-3.45,-0.29,-0.29,-0.26
158.44,3.38,3.71,3.38,3.70,-3.69,-3.74,-3.41,-0.32,-0.32,-0.33
160.03,3.38,3.77,3.37,3.76,-3.72,-3.74,-3.38,-0.34,-0.35,-0.39
161.63,3.34,3.78,3.33,3.78,-3.74,-3.73,-3.35,-0.40,-0.40,-0.44
163.24,3.29,3.79,3.28,3.77,-3.75,-3.73,-3.32,-0.47,-0.47,-0.50
164.88,3.21,3.74,3.22,3.76,-3.77,-3.72,-3.29,-0.56,-0.54,-0.53
166.53,3.18,3.75,3.18,3.75,-3.78,-3.71,-3.26,-0.60,-0.60,-0.57
168.19,3.16,3.76,3.16,3.75,-3.78,-3.70,-3.24,-0.62,-0.63,-0.60
169.87,3.15,3.77,3.15,3.77,-3.79,-3.69,-3.21,-0.64,-0.64,-0.63
171.57,3.15,3.79,3.14,3.79,-3.80,-3.69,-3.19,-0.65,-0.65,-0.64
173.29,3.14,3.79,3.13,3.79,-3.80,-3.68,-3.18,-0.66,-0.66,-0.65
175.02,3.14,3.80,3.14,3.80,-3.79,-3.66,-3.16,-0.66,-0.65,-0.66
176.77,3.13,3.79,3.15,3.82,-3.78,-3.65,-3.15,-0.65,-0.63,-0.66
178.54,3.18,3.85,3.15,3.82,-3.76,-3.64,-3.14,-0.58,-0.60,-0.67
180.32,3.14,3.79,3.12,3.78,-3.73,-3.63,-3.13,-0.59,-0.61,-0.65
182.13,3.06,3.71,3.05,3.70,-3.70,-3.62,-3.13,-0.64,-0.65,-0.65
183.95,2.95,3.60,2.97,3.62,-3.68,-3.60,-3.12,-0.73,-0.71,-0.65
185.79,2.91,3.56,2.94,3.60,-3.67,-3.59,-3.12,-0.76,-0.73,-0.66
187.65,2.97,3.64,2.94,3.61,-3.66,-3.58,-3.13,-0.69,-0.72,-0.67
189.52,2.99,3.66,2.97,3.65,-3.67,-3.56,-3.13,-0.68,-0.69,-0.67
191.42,3.00,3.68,3.00,3.69,-3.68,-3.55,-3.14,-0.68,-0.67,-0.69
193.33,3.02,3.72,3.03,3.73,-3.70,-3.53,-3.15,-0.68,-0.66,-0.70
195.27,3.06,3.77,3.05,3.77,-3.73,-3.52,-3.16,-0.67,-0.67,-0.71
197.22,3.09,3.82,3.05,3.78,-3.75,-3.50,-3.17,-0.66,-0.70,-0.73
199.19,3.01,3.76,3.02,3.77,-3.77,-3.48,-3.19,-0.76,-0.74,-0.75
201.18,2.97,3.73,2.99,3.75,-3.77,-3.47,-3.20,-0.81,-0.79,-0.76
203.19,2.97,3.74,2.96,3.74,-3.77,-3.45,-3.22,-0.80,-0.81,-0.77
205.23,2.97,3.77,2.97,3.76,-3.76,-3.43,-3.24,-0.80,-0.79,-0.80
207.28,2.97,3.77,2.95,3.76,-3.75,-3.41,-3.26,-0.79,-0.80,-0.80
209.35,2.94,3.77,2.92,3.75,-3.74,-3.40,-3.28,-0.80,-0.82,-0.83
211.44,2.85,3.70,2.89,3.74,-3.72,-3.38,-3.30,-0.87,-0.83,-0.85
213.56,2.87,3.73,2.86,3.72,-3.71,-3.36,-3.32,-0.84,-0.85,-0.86
215.69,2.86,3.72,2.82,3.69,-3.70,-3.34,-3.34,-0.84,-0.88,-0.87
217.85,2.77,3.64,2.79,3.67,-3.69,-3.32,-3.36,-0.92,-0.90,-0.88
220.03,2.75,3.64,2.75,3.64,-3.68,-3.30,-3.38,-0.93,-0.92,-0.89
222.23,2.75,3.65,2.74,3.63,-3.66,-3.28,-3.40,-0.91,-0.92,-0.90
224.45,2.75,3.63,2.77,3.66,-3.64,-3.25,-3.42,-0.89,-0.88,-0.89
226.70,2.78,3.66,2.77,3.65,-3.62,-3.23,-3.43,-0.84,-0.85,-0.88
228.96,2.79,3.67,2.75,3.63,-3.59,-3.21,-3.45,-0.80,-0.84,-0.88
231.25,2.69,3.55,2.72,3.59,-3.56,-3.19,-3.46,-0.87,-0.84,-0.87
233.57,2.67,3.52,2.66,3.51,-3.53,-3.17,-3.47,-0.86,-0.87,-0.85
235.90,2.62,3.46,2.61,3.45,-3.49,-3.15,-3.48,-0.87,-0.88,-0.84
238.26,2.57,3.38,2.61,3.43,-3.45,-3.12,-3.48,-0.88,-0.83,-0.82
240.64,2.63,3.42,2.61,3.40,-3.40,-3.10,-3.48,-0.78,-0.79,-0.79
243.05,2.65,3.40,2.61,3.37,-3.37,-3.08,-3.48,-0.72,-0.76,-0.76
245.48,2.59,3.32,2.61,3.34,-3.34,-3.05,-3.48,-0.75,-0.73,-0.73
247.93,2.58,3.28,2.60,3.31,-3.31,-3.03,-3.47,-0.74,-0.71,-0.71
250.41,2.60,3.29,2.59,3.28,-3.29,-3.01,-3.45,-0.69,-0.69,-0.69
252.92,2.63,3.28,2.60,3.25,-3.25,-2.98,-3.44,-0.62,-0.65,-0.66
255.45,2.57,3.20,2.59,3.22,-3.20,-2.96,-3.42,-0.63,-0.61,-0.63
258.00,2.55,3.16,2.56,3.18,-3.14,-2.93,-3.39,-0.60,-0.58,-0.61
260.58,2.54,3.14,2.51,3.11,-3.09,-2.91,-3.37,-0.55,-0.58,-0.60
263.19,2.47,3.04,2.45,3.03,-3.03,-2.88,-3.34,-0.57,-0.58,-0.57
265.82,2.36,2.91,2.39,2.94,-2.97,-2.86,-3.30,-0.62,-0.59,-0.56
268.48,2.33,2.86,2.34,2.87,-2.91,-2.83,-3.26,-0.58,-0.57,-0.53
271.16,2.33,2.83,2.32,2.83,-2.84,-2.81,-3.22,-0.51,-0.52,-0.50
273.87,2.33,2.81,2.32,2.80,-2.77,-2.78,-3.18,-0.45,-0.45,-0.49
276.61,2.30,2.76,2.29,2.75,-2.71,-2.76,-3.14,-0.42,-0.43,-0.46
279.38,2.24,2.67,2.23,2.67,-2.66,-2.73,-3.09,-0.42,-0.43,-0.43
282.17,2.16,2.57,2.17,2.58,-2.60,-2.70,-3.04,-0.45,-0.43,-0.42
284.99,2.13,2.51,2.14,2.52,-2.55,-2.68,-2.99,-0.42,-0.41,-0.38
287.84,2.14,2.49,2.13,2.48,-2.49,-2.65,-2.94,-0.36,-0.36,-0.35
290.72,2.15,2.46,2.12,2.44,-2.44,-2.63,-2.89,-0.29,-0.31,-0.31
293.63,2.11,2.39,2.12,2.40,-2.38,-2.60,-2.84,-0.27,-0.26,-0.29
296.57,2.07,2.32,2.09,2.35,-2.33,-2.57,-2.78,-0.26,-0.24,-0.25
299.53,2.10,2.33,2.06,2.29,-2.29,-2.55,-2.73,-0.19,-0.23,-0.23
302.53,2.03,2.23,2.04,2.24,-2.25,-2.52,-2.67,-0.22,-0.21,-0.20
305.55,2.01,2.17,2.02,2.20,-2.21,-2.49,-2.62,-0.20,-0.19,-0.17
308.61,2.02,2.17,2.01,2.16,-2.18,-2.47,-2.57,-0.16,-0.17,-0.15
311.69,2.02,2.15,2.02,2.14,-2.15,-2.44,-2.52,-0.13,-0.13,-0.13
314.81,2.03,2.12,2.03,2.13,-2.13,-2.41,-2.46,-0.10,-0.10,-0.09
317.96,2.03,2.11,2.03,2.11,-2.11,-2.39,-2.41,-0.08,-0.08,-0.08
321.14,2.03,2.09,2.03,2.10,-2.08,-2.36,-2.36,-0.06,-0.05,-0.07
324.35,2.03,2.09,2.03,2.09,-2.06,-2.33,-2.32,-0.03,-0.03,-0.06
327.59,2.03,2.07,2.01,2.05,-2.04,-2.30,-2.27,-0.01,-0.02,-0.04
330.87,1.99,2.02,1.98,2.01,-2.01,-2.28,-2.22,-0.02,-0.03,-0.03
334.18,1.93,1.95,1.95,1.97,-1.98,-2.25,-2.18,-0.06,-0.04,-0.02
337.52,1.92,1.93,1.92,1.93,-1.96,-2.22,-2.13,-0.04,-0.04,-0.01
340.90,1.92,1.91,1.91,1.91,-1.93,-2.20,-2.09,-0.01,-0.02,0.00
344.30,1.92,1.90,1.92,1.91,-1.91,-2.17,-2.05,0.01,0.02,0.01
347.75,1.92,1.90,1.91,1.89,-1.88,-2.14,-2.01,0.04,0.03,0.02
351.23,1.91,1.88,1.89,1.86,-1.85,-2.12,-1.97,0.06,0.04,0.03
354.74,1.85,1.82,1.87,1.83,-1.82,-2.09,-1.94,0.03,0.05,0.03
358.28,1.83,1.79,1.83,1.80,-1.78,-2.06,-1.90,0.04,0.05,0.04
361.87,1.82,1.78,1.80,1.76,-1.75,-2.03,-1.87,0.07,0.05,0.04
365.49,1.76,1.71,1.76,1.71,-1.71,-2.01,-1.84,0.04,0.04,0.05
369.14,1.71,1.66,1.71,1.67,-1.68,-1.98,-1.81,0.02,0.02,0.04
372.83,1.66,1.61,1.67,1.62,-1.66,-1.95,-1.78,-0.00,0.01,0.04
376.56,1.66,1.61,1.66,1.61,-1.64,-1.93,-1.76,0.02,0.02,0.04
380.33,1.67,1.61,1.66,1.61,-1.62,-1.90,-1.73,0.05,0.05,0.06
384.13,1.68,1.63,1.68,1.63,-1.60,-1.87,-1.71,0.08,0.08,0.05
387.97,1.68,1.63,1.67,1.62,-1.59,-1.85,-1.68,0.09,0.09,0.05
391.85,1.67,1.62,1.65,1.59,-1.57,-1.82,-1.66,0.09,0.07,0.05
395.77,1.60,1.54,1.61,1.56,-1.57,-1.79,-1.64,0.03,0.05,0.06
399.73,1.58,1.52,1.59,1.53,-1.56,-1.77,-1.62,0.02,0.03,0.06
403.72,1.58,1.53,1.57,1.52,-1.55,-1.74,-1.60,0.03,0.03,0.05
407.76,1.58,1.53,1.58,1.53,-1.54,-1.71,-1.59,0.04,0.04,0.05
411.84,1.58,1.52,1.57,1.53,-1.52,-1.69,-1.57,0.06,0.05,0.06
415.96,1.57,1.52,1.58,1.53,-1.51,-1.66,-1.55,0.06,0.07,0.05
420.12,1.57,1.52,1.57,1.52,-1.50,-1.64,-1.54,0.07,0.07,0.04
424.32,1.58,1.52,1.55,1.51,-1.49,-1.61,-1.52,0.09,0.06,0.05
428.56,1.53,1.47,1.53,1.48,-1.49,-1.58,-1.51,0.04,0.05,0.05
432.85,1.51,1.43,1.52,1.45,-1.48,-1.56,-1.50,0.03,0.04,0.07
437.18,1.53,1.44,1.53,1.43,-1.46,-1.53,-1.48,0.06,0.06,0.09
441.55,1.57,1.44,1.57,1.44,-1.45,-1.51,-1.47,0.12,0.12,0.13
445.96,1.61,1.45,1.62,1.46,-1.43,-1.48,-1.46,0.18,0.19,0.16
450.42,1.67,1.48,1.65,1.45,-1.41,-1.45,-1.44,0.26,0.24,0.19
454.93,1.68,1.43,1.65,1.41,-1.39,-1.43,-1.43,0.29,0.27,0.25
459.48,1.62,1.33,1.65,1.35,-1.37,-1.40,-1.41,0.25,0.28,0.29
464.07,1.64,1.29,1.65,1.30,-1.34,-1.38,-1.40,0.30,0.31,0.35
468.71,1.69,1.29,1.69,1.29,-1.32,-1.35,-1.39,0.37,0.38,0.40
473.40,1.76,1.31,1.74,1.29,-1.29,-1.33,-1.37,0.47,0.45,0.45
478.13,1.79,1.29,1.77,1.27,-1.26,-1.30,-1.35,0.53,0.51,0.50
482.91,1.76,1.22,1.78,1.24,-1.23,-1.28,-1.34,0.53,0.55,0.54
487.74,1.79,1.20,1.81,1.22,-1.20,-1.25,-1.32,0.58,0.60,0.59
492.62,1.84,1.21,1.82,1.19,-1.18,-1.23,-1.30,0.65,0.64,0.63
497.55,1.86,1.20,1.82,1.16,-1.17,-1.20,-1.28,0.69,0.66,0.66
502.52,1.79,1.10,1.81,1.13,-1.15,-1.18,-1.26,0.64,0.66,0.69
507.55,1.78,1.08,1.80,1.10,-1.13,-1.15,-1.24,0.65,0.67,0.70
512.62,1.82,1.11,1.80,1.09,-1.11,-1.13,-1.21,0.70,0.69,0.71
