frequency,raw,error,smoothed,error_smoothed,equalization,parametric_eq,fixed_band_eq,equalized_raw,equalized_smoothed,target
20.00,-15.75,-14.12,-15.75,-14.12,6.00,6.75,2.76,-9.75,-9.75,-1.63
20.20,-15.60,-13.97,-15.59,-13.97,6.00,6.73,2.84,-9.60,-9.59,-1.63
20.40,-15.44,-13.82,-15.44,-13.82,6.00,6.71,2.92,-9.44,-9.44,-1.62
20.61,-15.29,-13.68,-15.29,-13.68,6.00,6.69,3.00,-9.29,-9.29,-1.61
20.81,-15.14,-13.53,-15.13,-13.53,6.00,6.67,3.09,-9.14,-9.13,-1.61
21.02,-14.98,-13.38,-14.98,-13.38,6.00,6.65,3.18,-8.98,-8.98,-1.60
21.23,-14.83,-13.23,-14.83,-13.23,6.00,6.62,3.27,-8.83,-8.83,-1.60
21.44,-14.67,-13.08,-14.67,-13.08,6.00,6.60,3.36,-8.67,-8.67,-1.59
21.66,-14.52,-12.94,-14.51,-12.93,6.00,6.58,3.46,-8.52,-8.51,-1.58
21.87,-14.35,-12.78,-14.35,-12.78,6.00,6.56,3.56,-8.35,-8.35,-1.58
22.09,-14.20,-12.63,-14.20,-12.63,6.00,6.53,3.66,-8.20,-8.20,-1.57
22.31,-14.04,-12.48,-14.04,-12.48,6.00,6.51,3.77,-8.04,-8.04,-1.56
22.54,-13.89,-12.33,-13.88,-12.33,6.00,6.48,3.87,-7.89,-7.88,-1.56
22.76,-13.73,-12.18,-13.73,-12.18,6.00,6.46,3.98,-7.73,-7.73,-1.55
22.99,-13.57,-12.03,-13.57,-12.03,6.00,6.43,4.10,-7.57,-7.57,-1.54
23.22,-13.40,-11.87,-13.40,-11.87,6.00,6.40,4.21,-7.40,-7.40,-1.53
23.45,-13.24,-11.72,-13.24,-11.72,6.00,6.37,4.33,-7.24,-7.24,-1.52
23.69,-13.08,-11.57,-13.07,-11.57,6.00,6.35,4.45,-7.08,-7.07,-1.51
23.92,-12.91,-11.41,-12.91,-11.41,6.00,6.32,4.57,-6.91,-6.91,-1.50
24.16,-12.75,-11.26,-12.74,-11.26,6.00,6.29,4.70,-6.75,-6.74,-1.49
24.40,-12.58,-11.10,-12.58,-11.10,6.00,6.26,4.83,-6.58,-6.58,-1.48
24.65,-12.42,-10.96,-12.41,-10.95,6.00,6.23,4.96,-6.42,-6.41,-1.46
24.89,-12.24,-10.80,-12.25,-10.80,6.00,6.19,5.09,-6.24,-6.25,-1.45
25.14,-12.08,-10.64,-12.08,-10.64,6.00,6.16,5.22,-6.08,-6.08,-1.44
25.39,-11.91,-10.49,-11.91,-10.49,6.00,6.13,5.36,-5.91,-5.91,-1.43
25.65,-11.75,-10.33,-11.75,-10.33,6.00,6.09,5.49,-5.75,-5.75,-1.42
25.91,-11.58,-10.18,-11.58,-10.18,6.00,6.06,5.63,-5.58,-5.58,-1.40
26.16,-11.40,-10.02,-11.41,-10.02,6.00,6.02,5.76,-5.40,-5.41,-1.39
26.43,-11.24,-9.86,-11.24,-9.86,6.00,5.99,5.89,-5.24,-5.24,-1.38
26.69,-11.07,-9.70,-11.07,-9.70,6.00,5.95,6.02,-5.07,-5.07,-1.37
26.96,-10.90,-9.55,-10.90,-9.55,6.00,5.91,6.15,-4.90,-4.90,-1.35
27.23,-10.73,-9.39,-10.73,-9.39,6.00,5.87,6.28,-4.73,-4.73,-1.34
27.50,-10.55,-9.23,-10.55,-9.23,6.00,5.83,6.40,-4.55,-4.55,-1.32
27.77,-10.38,-9.07,-10.38,-9.07,6.00,5.79,6.52,-4.38,-4.38,-1.31
28.05,-10.21,-8.92,-10.21,-8.92,6.00,5.75,6.63,-4.21,-4.21,-1.29
28.33,-10.04,-8.76,-10.03,-8.76,6.00,5.71,6.73,-4.04,-4.03,-1.28
28.62,-9.86,-8.60,-9.86,-8.60,6.00,5.66,6.83,-3.86,-3.86,-1.26
28.90,-9.69,-8.44,-9.69,-8.44,6.00,5.62,6.92,-3.69,-3.69,-1.25
29.19,-9.52,-8.29,-9.51,-8.28,6.00,5.57,7.00,-3.52,-3.51,-1.23
29.48,-9.34,-8.12,-9.34,-8.13,6.00,5.53,7.06,-3.34,-3.34,-1.22
29.78,-9.17,-7.97,-9.17,-7.97,6.00,5.48,7.12,-3.17,-3.17,-1.20
30.08,-8.99,-7.80,-8.99,-7.80,6.00,5.43,7.15,-2.99,-2.99,-1.19
30.38,-8.80,-7.63,-8.80,-7.63,6.00,5.38,7.18,-2.80,-2.80,-1.17
30.68,-8.62,-7.46,-8.62,-7.46,6.00,5.33,7.19,-2.62,-2.62,-1.16
30.99,-8.43,-7.29,-8.43,-7.29,6.00,5.27,7.19,-2.43,-2.43,-1.14
31.30,-8.25,-7.12,-8.25,-7.12,6.00,5.22,7.17,-2.25,-2.25,-1.13
31.61,-8.06,-6.95,-8.06,-6.95,6.01,5.16,7.14,-2.05,-2.05,-1.11
31.93,-7.88,-6.78,-7.88,-6.78,6.02,5.11,7.09,-1.86,-1.85,-1.10
32.24,-7.70,-6.62,-7.70,-6.62,6.03,5.05,7.03,-1.66,-1.67,-1.08
32.57,-7.53,-6.46,-7.52,-6.46,6.02,4.99,6.95,-1.51,-1.50,-1.07
32.89,-7.35,-6.30,-7.35,-6.30,6.00,4.93,6.86,-1.35,-1.35,-1.05
33.22,-7.18,-6.14,-7.18,-6.14,5.95,4.86,6.75,-1.22,-1.23,-1.04
33.55,-7.01,-5.99,-7.01,-5.99,5.88,4.80,6.64,-1.12,-1.12,-1.02
33.89,-6.84,-5.83,-6.83,-5.83,5.79,4.73,6.50,-1.05,-1.04,-1.01
34.23,-6.66,-5.67,-6.66,-5.67,5.67,4.67,6.37,-0.98,-0.99,-0.99
34.57,-6.49,-5.51,-6.49,-5.51,5.54,4.60,6.22,-0.95,-0.95,-0.98
34.92,-6.32,-5.35,-6.32,-5.36,5.39,4.53,6.06,-0.93,-0.93,-0.97
35.27,-6.16,-5.21,-6.15,-5.20,5.23,4.46,5.90,-0.93,-0.93,-0.95
35.62,-5.99,-5.05,-5.99,-5.05,5.06,4.38,5.73,-0.93,-0.93,-0.94
35.97,-5.83,-4.90,-5.83,-4.90,4.90,4.31,5.55,-0.92,-0.93,-0.93
36.33,-5.68,-4.76,-5.67,-4.75,4.75,4.23,5.38,-0.92,-0.92,-0.92
36.70,-5.52,-4.61,-5.52,-4.61,4.61,4.15,5.19,-0.91,-0.91,-0.91
37.06,-5.36,-4.46,-5.36,-4.46,4.46,4.07,5.01,-0.89,-0.90,-0.90
37.43,-5.21,-4.32,-5.21,-4.32,4.32,3.98,4.82,-0.88,-0.88,-0.89
37.81,-5.06,-4.18,-5.06,-4.18,4.18,3.90,4.63,-0.88,-0.87,-0.88
38.19,-4.91,-4.04,-4.91,-4.04,4.05,3.81,4.43,-0.86,-0.86,-0.87
38.57,-4.77,-3.91,-4.77,-3.91,3.91,3.72,4.24,-0.86,-0.86,-0.86
38.95,-4.63,-3.78,-4.63,-3.78,3.78,3.63,4.05,-0.85,-0.85,-0.85
39.34,-4.49,-3.65,-4.49,-3.65,3.65,3.54,3.86,-0.84,-0.84,-0.84
39.74,-4.35,-3.52,-4.35,-3.52,3.52,3.44,3.67,-0.83,-0.83,-0.83
40.14,-4.21,-3.38,-4.21,-3.39,3.38,3.34,3.47,-0.83,-0.83,-0.83
40.54,-4.07,-3.25,-4.07,-3.25,3.25,3.24,3.28,-0.82,-0.82,-0.82
40.94,-3.93,-3.12,-3.92,-3.12,3.12,3.14,3.09,-0.81,-0.81,-0.81
41.35,-3.78,-2.98,-3.78,-2.98,2.98,3.03,2.90,-0.80,-0.80,-0.80
41.76,-3.63,-2.84,-3.63,-2.84,2.84,2.92,2.71,-0.79,-0.79,-0.79
42.18,-3.48,-2.70,-3.48,-2.70,2.70,2.81,2.53,-0.78,-0.78,-0.78
42.60,-3.33,-2.56,-3.32,-2.56,2.56,2.70,2.34,-0.77,-0.77,-0.77
43.03,-3.17,-2.41,-3.17,-2.41,2.41,2.58,2.16,-0.76,-0.76,-0.76
43.46,-3.01,-2.26,-3.01,-2.26,2.26,2.47,1.97,-0.74,-0.75,-0.75
43.90,-2.85,-2.11,-2.84,-2.11,2.11,2.34,1.79,-0.74,-0.73,-0.74
44.33,-2.68,-1.96,-2.68,-1.96,1.96,2.22,1.61,-0.72,-0.72,-0.72
44.78,-2.51,-1.80,-2.51,-1.80,1.80,2.10,1.43,-0.71,-0.71,-0.71
45.23,-2.34,-1.64,-2.34,-1.64,1.64,1.97,1.25,-0.70,-0.69,-0.70
45.68,-2.16,-1.48,-2.16,-1.48,1.48,1.84,1.07,-0.68,-0.68,-0.68
46.13,-1.98,-1.31,-1.98,-1.31,1.31,1.70,0.89,-0.66,-0.66,-0.67
46.60,-1.79,-1.14,-1.79,-1.14,1.14,1.56,0.72,-0.65,-0.65,-0.65
47.06,-1.61,-0.97,-1.61,-0.97,0.97,1.43,0.54,-0.64,-0.64,-0.64
47.53,-1.42,-0.80,-1.42,-0.80,0.79,1.28,0.37,-0.63,-0.63,-0.62
48.01,-1.23,-0.62,-1.22,-0.62,0.61,1.14,0.20,-0.62,-0.61,-0.61
48.49,-1.02,-0.43,-1.02,-0.43,0.43,0.99,0.02,-0.59,-0.59,-0.59
48.97,-0.82,-0.24,-0.82,-0.25,0.25,0.84,-0.15,-0.57,-0.57,-0.58
49.46,-0.63,-0.07,-0.63,-0.06,0.07,0.69,-0.31,-0.56,-0.56,-0.56
49.96,-0.44,0.11,-0.44,0.11,-0.11,0.54,-0.48,-0.55,-0.54,-0.55
50.46,-0.25,0.29,-0.25,0.28,-0.28,0.38,-0.65,-0.53,-0.53,-0.54
50.96,-0.07,0.45,-0.07,0.45,-0.45,0.22,-0.81,-0.51,-0.52,-0.52
51.47,0.10,0.61,0.10,0.61,-0.61,0.06,-0.97,-0.51,-0.50,-0.51
51.99,0.27,0.77,0.27,0.76,-0.76,-0.10,-1.13,-0.49,-0.50,-0.50
52.51,0.42,0.91,0.43,0.91,-0.91,-0.27,-1.28,-0.49,-0.49,-0.49
53.03,0.58,1.06,0.58,1.06,-1.06,-0.43,-1.44,-0.48,-0.48,-0.48
53.56,0.73,1.19,0.73,1.19,-1.20,-0.60,-1.59,-0.47,-0.47,-0.46
54.10,0.88,1.33,0.88,1.33,-1.33,-0.77,-1.73,-0.45,-0.45,-0.45
54.64,1.02,1.46,1.02,1.46,-1.46,-0.93,-1.87,-0.44,-0.44,-0.44
55.18,1.15,1.59,1.15,1.59,-1.58,-1.10,-2.01,-0.43,-0.43,-0.44
55.74,1.27,1.70,1.28,1.70,-1.69,-1.27,-2.14,-0.42,-0.42,-0.43
56.29,1.39,1.81,1.39,1.81,-1.80,-1.43,-2.27,-0.41,-0.41,-0.42
56.86,1.49,1.91,1.49,1.90,-1.90,-1.60,-2.39,-0.41,-0.41,-0.42
57.42,1.58,1.99,1.59,1.99,-2.00,-1.76,-2.50,-0.41,-0.41,-0.41
58.00,1.67,2.08,1.67,2.08,-2.08,-1.92,-2.61,-0.41,-0.41,-0.41
58.58,1.76,2.16,1.76,2.16,-2.17,-2.08,-2.71,-0.41,-0.41,-0.40
59.16,1.84,2.24,1.85,2.24,-2.25,-2.23,-2.80,-0.41,-0.40,-0.40
59.76,1.93,2.33,1.93,2.33,-2.33,-2.38,-2.89,-0.40,-0.40,-0.40
60.35,2.01,2.41,2.01,2.41,-2.40,-2.52,-2.96,-0.39,-0.40,-0.40
60.96,2.08,2.48,2.08,2.48,-2.48,-2.65,-3.03,-0.40,-0.39,-0.40
61.57,2.15,2.55,2.15,2.55,-2.55,-2.78,-3.09,-0.40,-0.40,-0.40
62.18,2.22,2.62,2.22,2.62,-2.62,-2.91,-3.14,-0.40,-0.40,-0.40
62.80,2.28,2.68,2.28,2.68,-2.68,-3.02,-3.18,-0.40,-0.40,-0.40
63.43,2.34,2.74,2.34,2.75,-2.74,-3.12,-3.21,-0.40,-0.40,-0.40
64.07,2.40,2.81,2.40,2.80,-2.80,-3.22,-3.23,-0.40,-0.40,-0.41
64.71,2.45,2.86,2.45,2.86,-2.85,-3.30,-3.25,-0.40,-0.40,-0.41
65.35,2.49,2.90,2.50,2.90,-2.90,-3.37,-3.25,-0.41,-0.41,-0.41
66.01,2.54,2.95,2.54,2.94,-2.95,-3.44,-3.25,-0.41,-0.41,-0.41
66.67,2.57,2.98,2.58,2.98,-2.99,-3.49,-3.24,-0.42,-0.41,-0.41
67.33,2.61,3.02,2.61,3.02,-3.02,-3.53,-3.22,-0.41,-0.41,-0.41
68.01,2.64,3.06,2.64,3.06,-3.06,-3.56,-3.20,-0.41,-0.41,-0.42
68.69,2.67,3.09,2.67,3.09,-3.08,-3.57,-3.16,-0.41,-0.41,-0.42
69.37,2.69,3.11,2.69,3.11,-3.10,-3.58,-3.13,-0.41,-0.41,-0.42
70.07,2.70,3.12,2.71,3.12,-3.12,-3.57,-3.09,-0.42,-0.41,-0.42
70.77,2.72,3.14,2.72,3.13,-3.14,-3.56,-3.04,-0.42,-0.42,-0.42
71.48,2.72,3.14,2.73,3.14,-3.15,-3.53,-2.99,-0.43,-0.43,-0.42
72.19,2.73,3.15,2.74,3.15,-3.16,-3.50,-2.94,-0.43,-0.42,-0.42
72.91,2.75,3.16,2.75,3.16,-3.17,-3.45,-2.88,-0.41,-0.42,-0.41
73.64,2.76,3.17,2.76,3.17,-3.17,-3.40,-2.82,-0.40,-0.40,-0.41
74.38,2.77,3.17,2.77,3.17,-3.16,-3.35,-2.76,-0.39,-0.39,-0.40
75.12,2.78,3.18,2.77,3.17,-3.16,-3.28,-2.70,-0.38,-0.38,-0.40
75.87,2.76,3.15,2.77,3.15,-3.15,-3.21,-2.63,-0.39,-0.38,-0.39
76.63,2.75,3.13,2.75,3.13,-3.13,-3.14,-2.57,-0.38,-0.38,-0.38
77.40,2.73,3.10,2.74,3.10,-3.11,-3.06,-2.50,-0.38,-0.38,-0.37
78.17,2.72,3.08,2.72,3.08,-3.09,-2.98,-2.44,-0.36,-0.36,-0.36
78.95,2.71,3.06,2.71,3.06,-3.06,-2.90,-2.37,-0.35,-0.35,-0.35
79.74,2.69,3.03,2.69,3.03,-3.02,-2.81,-2.31,-0.33,-0.33,-0.34
80.54,2.66,2.99,2.66,2.99,-2.99,-2.72,-2.24,-0.33,-0.33,-0.33
81.35,2.63,2.95,2.63,2.95,-2.95,-2.64,-2.18,-0.32,-0.32,-0.32
82.16,2.59,2.90,2.60,2.91,-2.91,-2.55,-2.11,-0.31,-0.31,-0.31
82.98,2.56,2.86,2.56,2.86,-2.86,-2.46,-2.05,-0.29,-0.30,-0.30
83.81,2.52,2.81,2.52,2.80,-2.80,-2.37,-1.99,-0.28,-0.29,-0.29
84.65,2.46,2.74,2.47,2.74,-2.74,-2.28,-1.93,-0.28,-0.28,-0.28
85.50,2.41,2.68,2.41,2.68,-2.68,-2.20,-1.87,-0.27,-0.27,-0.27
86.35,2.35,2.61,2.35,2.61,-2.61,-2.11,-1.81,-0.26,-0.26,-0.26
87.22,2.29,2.54,2.29,2.54,-2.54,-2.03,-1.75,-0.24,-0.24,-0.25
88.09,2.23,2.47,2.23,2.46,-2.46,-1.95,-1.70,-0.23,-0.23,-0.24
88.97,2.16,2.38,2.16,2.38,-2.38,-1.87,-1.65,-0.22,-0.22,-0.22
89.86,2.08,2.29,2.08,2.29,-2.30,-1.79,-1.59,-0.22,-0.22,-0.21
90.76,2.01,2.21,2.01,2.21,-2.22,-1.72,-1.54,-0.21,-0.20,-0.20
91.66,1.94,2.12,1.95,2.13,-2.13,-1.64,-1.49,-0.19,-0.18,-0.18
92.58,1.89,2.06,1.89,2.05,-2.05,-1.58,-1.45,-0.16,-0.16,-0.17
93.51,1.82,1.98,1.82,1.97,-1.96,-1.51,-1.40,-0.14,-0.14,-0.16
94.44,1.74,1.88,1.75,1.89,-1.88,-1.44,-1.35,-0.14,-0.13,-0.14
95.39,1.67,1.80,1.67,1.79,-1.79,-1.38,-1.31,-0.12,-0.12,-0.13
96.34,1.59,1.70,1.59,1.70,-1.71,-1.32,-1.27,-0.12,-0.11,-0.11
97.30,1.52,1.62,1.53,1.63,-1.63,-1.26,-1.23,-0.10,-0.10,-0.10
98.28,1.46,1.55,1.46,1.55,-1.55,-1.21,-1.19,-0.08,-0.09,-0.09
99.26,1.40,1.48,1.40,1.47,-1.47,-1.16,-1.15,-0.07,-0.08,-0.08
100.25,1.33,1.39,1.33,1.39,-1.40,-1.11,-1.11,-0.07,-0.07,-0.06
101.25,1.27,1.32,1.28,1.32,-1.34,-1.06,-1.07,-0.07,-0.06,-0.05
102.27,1.22,1.26,1.23,1.27,-1.28,-1.01,-1.04,-0.05,-0.04,-0.04
103.29,1.20,1.24,1.20,1.23,-1.22,-0.97,-1.01,-0.02,-0.02,-0.04
104.32,1.16,1.19,1.15,1.18,-1.16,-0.93,-0.97,-0.00,-0.01,-0.03
105.37,1.10,1.12,1.10,1.12,-1.11,-0.89,-0.94,-0.01,-0.01,-0.02
106.42,1.04,1.06,1.05,1.06,-1.06,-0.86,-0.91,-0.02,-0.02,-0.02
107.48,0.99,1.01,0.99,1.01,-1.02,-0.82,-0.88,-0.03,-0.03,-0.02
108.56,0.95,0.97,0.95,0.97,-0.98,-0.79,-0.86,-0.03,-0.03,-0.02
109.64,0.91,0.93,0.91,0.93,-0.94,-0.76,-0.83,-0.03,-0.02,-0.02
110.74,0.88,0.90,0.88,0.90,-0.90,-0.73,-0.80,-0.02,-0.02,-0.02
111.85,0.85,0.87,0.85,0.87,-0.87,-0.70,-0.78,-0.02,-0.02,-0.02
112.97,0.82,0.85,0.82,0.85,-0.84,-0.68,-0.75,-0.02,-0.02,-0.03
114.10,0.79,0.82,0.79,0.82,-0.81,-0.66,-0.73,-0.02,-0.03,-0.03
115.24,0.75,0.79,0.76,0.79,-0.79,-0.64,-0.71,-0.04,-0.03,-0.04
116.39,0.72,0.76,0.72,0.76,-0.76,-0.61,-0.69,-0.04,-0.04,-0.04
117.55,0.69,0.74,0.69,0.74,-0.74,-0.60,-0.67,-0.04,-0.04,-0.05
118.73,0.66,0.71,0.66,0.71,-0.71,-0.58,-0.65,-0.04,-0.05,-0.05
119.92,0.62,0.68,0.63,0.68,-0.68,-0.56,-0.63,-0.06,-0.05,-0.06
121.12,0.59,0.65,0.60,0.65,-0.65,-0.54,-0.61,-0.06,-0.05,-0.06
122.33,0.57,0.63,0.57,0.63,-0.63,-0.53,-0.59,-0.05,-0.06,-0.06
123.55,0.54,0.60,0.54,0.60,-0.60,-0.51,-0.58,-0.06,-0.06,-0.06
124.79,0.51,0.57,0.52,0.57,-0.58,-0.50,-0.56,-0.07,-0.06,-0.06
126.03,0.49,0.55,0.50,0.55,-0.56,-0.49,-0.55,-0.07,-0.06,-0.06
127.29,0.48,0.54,0.48,0.54,-0.54,-0.48,-0.53,-0.06,-0.06,-0.06
128.57,0.47,0.53,0.47,0.52,-0.52,-0.46,-0.52,-0.05,-0.06,-0.06
129.85,0.45,0.51,0.45,0.51,-0.51,-0.45,-0.51,-0.06,-0.05,-0.06
131.15,0.43,0.49,0.44,0.49,-0.49,-0.44,-0.49,-0.06,-0.05,-0.06
132.46,0.42,0.48,0.42,0.47,-0.47,-0.43,-0.48,-0.05,-0.05,-0.06
133.79,0.40,0.45,0.40,0.45,-0.45,-0.42,-0.47,-0.05,-0.05,-0.05
135.12,0.38,0.43,0.38,0.43,-0.43,-0.41,-0.46,-0.05,-0.04,-0.05
136.48,0.36,0.41,0.36,0.40,-0.40,-0.40,-0.45,-0.04,-0.04,-0.05
137.84,0.32,0.37,0.33,0.38,-0.36,-0.39,-0.44,-0.04,-0.04,-0.05
139.22,0.29,0.34,0.29,0.34,-0.33,-0.37,-0.43,-0.04,-0.04,-0.05
140.61,0.26,0.31,0.26,0.30,-0.30,-0.36,-0.42,-0.03,-0.04,-0.05
142.02,0.21,0.25,0.22,0.26,-0.26,-0.35,-0.42,-0.05,-0.04,-0.04
143.44,0.19,0.23,0.19,0.22,-0.24,-0.34,-0.41,-0.04,-0.05,-0.04
144.87,0.15,0.19,0.16,0.20,-0.21,-0.32,-0.40,-0.06,-0.06,-0.04
146.32,0.14,0.19,0.14,0.19,-0.20,-0.31,-0.40,-0.06,-0.06,-0.05
147.78,0.13,0.18,0.13,0.18,-0.19,-0.30,-0.39,-0.06,-0.06,-0.05
149.26,0.13,0.18,0.13,0.18,-0.18,-0.28,-0.39,-0.05,-0.05,-0.05
150.75,0.13,0.18,0.13,0.18,-0.18,-0.27,-0.38,-0.04,-0.04,-0.05
152.26,0.13,0.18,0.13,0.18,-0.17,-0.25,-0.38,-0.04,-0.04,-0.05
153.78,0.12,0.18,0.12,0.18,-0.17,-0.23,-0.37,-0.04,-0.04,-0.06
155.32,0.11,0.17,0.11,0.16,-0.15,-0.22,-0.37,-0.04,-0.05,-0.06
156.88,0.08,0.14,0.09,0.14,-0.14,-0.20,-0.36,-0.06,-0.05,-0.06
158.44,0.06,0.12,0.06,0.12,-0.12,-0.19,-0.36,-0.05,-0.06,-0.06
160.03,0.02,0.09,0.03,0.09,-0.09,-0.17,-0.36,-0.07,-0.06,-0.07
161.63,-0.01,0.06,-0.01,0.06,-0.06,-0.16,-0.35,-0.07,-0.07,-0.07
163.24,-0.04,0.04,-0.04,0.03,-0.03,-0.14,-0.35,-0.07,-0.08,-0.08
164.88,-0.08,-0.00,-0.07,0.01,-0.01,-0.14,-0.35,-0.08,-0.08,-0.08
166.53,-0.11,-0.02,-0.11,-0.02,0.02,-0.13,-0.35,-0.09,-0.09,-0.09
168.19,-0.14,-0.04,-0.14,-0.04,0.04,-0.12,-0.35,-0.10,-0.10,-0.10
169.87,-0.17,-0.06,-0.16,-0.06,0.06,-0.12,-0.35,-0.11,-0.11,-0.11
171.57,-0.19,-0.07,-0.19,-0.07,0.07,-0.12,-0.34,-0.12,-0.12,-0.12
173.29,-0.20,-0.07,-0.20,-0.08,0.07,-0.12,-0.34,-0.13,-0.14,-0.13
175.02,-0.22,-0.08,-0.21,-0.07,0.06,-0.13,-0.34,-0.15,-0.15,-0.14
176.77,-0.22,-0.06,-0.21,-0.06,0.05,-0.14,-0.34,-0.16,-0.16,-0.16
178.54,-0.21,-0.04,-0.21,-0.04,0.04,-0.15,-0.34,-0.17,-0.17,-0.17
180.32,-0.20,-0.01,-0.20,-0.01,0.02,-0.16,-0.34,-0.18,-0.18,-0.19
182.13,-0.19,0.01,-0.19,0.01,-0.00,-0.17,-0.34,-0.19,-0.19,-0.20
183.95,-0.19,0.03,-0.19,0.03,-0.02,-0.19,-0.34,-0.21,-0.21,-0.22
185.79,-0.19,0.05,-0.19,0.05,-0.04,-0.20,-0.35,-0.23,-0.23,-0.24
187.65,-0.19,0.06,-0.19,0.06,-0.06,-0.22,-0.35,-0.25,-0.25,-0.25
189.52,-0.19,0.08,-0.19,0.08,-0.08,-0.23,-0.35,-0.27,-0.27,-0.27
191.42,-0.19,0.10,-0.19,0.10,-0.10,-0.25,-0.35,-0.29,-0.29,-0.29
193.33,-0.19,0.12,-0.19,0.12,-0.12,-0.26,-0.35,-0.30,-0.30,-0.31
195.27,-0.19,0.13,-0.19,0.13,-0.13,-0.27,-0.35,-0.32,-0.32,-0.32
197.22,-0.19,0.15,-0.19,0.15,-0.15,-0.29,-0.36,-0.34,-0.34,-0.34
199.19,-0.19,0.17,-0.19,0.17,-0.17,-0.30,-0.36,-0.36,-0.36,-0.36
201.18,-0.19,0.20,-0.19,0.20,-0.19,-0.31,-0.36,-0.38,-0.38,-0.39
203.19,-0.19,0.22,-0.19,0.22,-0.22,-0.32,-0.36,-0.40,-0.40,-0.41
205.23,-0.19,0.24,-0.19,0.24,-0.24,-0.33,-0.37,-0.43,-0.43,-0.43
207.28,-0.19,0.26,-0.19,0.26,-0.26,-0.34,-0.37,-0.45,-0.45,-0.45
209.35,-0.19,0.28,-0.19,0.28,-0.29,-0.34,-0.37,-0.47,-0.47,-0.47
211.44,-0.19,0.31,-0.19,0.31,-0.31,-0.35,-0.37,-0.50,-0.50,-0.50
213.56,-0.19,0.33,-0.19,0.33,-0.33,-0.36,-0.38,-0.52,-0.52,-0.52
215.69,-0.19,0.36,-0.19,0.36,-0.36,-0.36,-0.38,-0.55,-0.55,-0.55
217.85,-0.19,0.39,-0.19,0.38,-0.38,-0.37,-0.38,-0.57,-0.57,-0.58
220.03,-0.19,0.41,-0.19,0.41,-0.41,-0.37,-0.39,-0.60,-0.60,-0.60
222.23,-0.19,0.43,-0.19,0.43,-0.43,-0.37,-0.39,-0.62,-0.62,-0.62
224.45,-0.19,0.46,-0.19,0.46,-0.46,-0.38,-0.39,-0.64,-0.64,-0.65
226.70,-0.19,0.48,-0.19,0.48,-0.48,-0.38,-0.40,-0.67,-0.67,-0.67
228.96,-0.19,0.50,-0.19,0.50,-0.50,-0.38,-0.40,-0.69,-0.69,-0.69
231.25,-0.19,0.52,-0.19,0.52,-0.52,-0.38,-0.40,-0.70,-0.70,-0.71
233.57,-0.19,0.53,-0.19,0.53,-0.53,-0.38,-0.40,-0.72,-0.72,-0.72
235.90,-0.19,0.55,-0.19,0.55,-0.55,-0.38,-0.41,-0.73,-0.73,-0.74
238.26,-0.19,0.56,-0.19,0.56,-0.56,-0.38,-0.41,-0.75,-0.75,-0.75
240.64,-0.19,0.57,-0.19,0.57,-0.57,-0.38,-0.41,-0.76,-0.76,-0.76
243.05,-0.19,0.58,-0.19,0.58,-0.58,-0.38,-0.41,-0.77,-0.77,-0.77
245.48,-0.19,0.59,-0.19,0.59,-0.59,-0.38,-0.42,-0.78,-0.78,-0.78
247.93,-0.19,0.60,-0.19,0.60,-0.60,-0.38,-0.42,-0.79,-0.79,-0.79
250.41,-0.19,0.61,-0.19,0.61,-0.61,-0.38,-0.42,-0.80,-0.80,-0.80
252.92,-0.19,0.62,-0.19,0.62,-0.62,-0.38,-0.42,-0.81,-0.81,-0.81
255.45,-0.19,0.63,-0.19,0.63,-0.63,-0.38,-0.42,-0.81,-0.81,-0.82
258.00,-0.19,0.64,-0.19,0.64,-0.64,-0.37,-0.42,-0.82,-0.82,-0.83
260.58,-0.19,0.64,-0.19,0.64,-0.64,-0.37,-0.42,-0.83,-0.83,-0.83
263.19,-0.19,0.65,-0.19,0.65,-0.65,-0.37,-0.43,-0.84,-0.84,-0.84
265.82,-0.19,0.66,-0.19,0.66,-0.66,-0.37,-0.43,-0.85,-0.85,-0.85
268.48,-0.19,0.67,-0.19,0.67,-0.67,-0.37,-0.43,-0.86,-0.86,-0.86
271.16,-0.19,0.68,-0.19,0.68,-0.68,-0.36,-0.43,-0.87,-0.87,-0.87
273.87,-0.19,0.69,-0.19,0.69,-0.69,-0.36,-0.43,-0.88,-0.88,-0.88
276.61,-0.19,0.70,-0.19,0.70,-0.71,-0.36,-0.43,-0.89,-0.89,-0.89
279.38,-0.19,0.71,-0.18,0.71,-0.72,-0.36,-0.43,-0.91,-0.90,-0.90
282.17,-0.18,0.73,-0.18,0.73,-0.73,-0.35,-0.43,-0.91,-0.91,-0.91
284.99,-0.17,0.75,-0.17,0.75,-0.74,-0.35,-0.43,-0.91,-0.91,-0.92
287.84,-0.17,0.76,-0.17,0.76,-0.75,-0.35,-0.43,-0.92,-0.92,-0.93
290.72,-0.18,0.76,-0.17,0.76,-0.75,-0.35,-0.43,-0.93,-0.93,-0.94
293.63,-0.19,0.76,-0.19,0.76,-0.75,-0.34,-0.43,-0.94,-0.94,-0.95
296.57,-0.21,0.75,-0.21,0.75,-0.74,-0.34,-0.43,-0.95,-0.95,-0.96
299.53,-0.24,0.73,-0.24,0.73,-0.73,-0.34,-0.43,-0.97,-0.97,-0.97
302.53,-0.27,0.71,-0.27,0.71,-0.72,-0.34,-0.43,-0.98,-0.98,-0.98
305.55,-0.30,0.70,-0.30,0.69,-0.70,-0.33,-0.44,-0.99,-1.00,-1.00
308.61,-0.33,0.68,-0.33,0.68,-0.68,-0.33,-0.44,-1.00,-1.01,-1.01
311.69,-0.37,0.65,-0.36,0.66,-0.66,-0.33,-0.44,-1.02,-1.02,-1.02
314.81,-0.40,0.64,-0.40,0.64,-0.64,-0.33,-0.44,-1.03,-1.03,-1.04
317.96,-0.43,0.62,-0.43,0.62,-0.62,-0.32,-0.44,-1.05,-1.05,-1.05
321.14,-0.46,0.61,-0.46,0.61,-0.60,-0.32,-0.45,-1.06,-1.06,-1.07
324.35,-0.49,0.59,-0.49,0.59,-0.59,-0.32,-0.45,-1.08,-1.08,-1.08
327.59,-0.52,0.58,-0.51,0.58,-0.59,-0.32,-0.45,-1.11,-1.10,-1.10
330.87,-0.53,0.58,-0.53,0.58,-0.59,-0.32,-0.45,-1.12,-1.12,-1.11
334.18,-0.54,0.59,-0.54,0.59,-0.60,-0.31,-0.46,-1.14,-1.13,-1.13
337.52,-0.54,0.60,-0.53,0.60,-0.61,-0.31,-0.46,-1.15,-1.14,-1.14
340.90,-0.53,0.63,-0.53,0.63,-0.62,-0.31,-0.47,-1.15,-1.15,-1.16
344.30,-0.52,0.65,-0.52,0.65,-0.64,-0.31,-0.47,-1.16,-1.16,-1.17
347.75,-0.52,0.67,-0.52,0.67,-0.66,-0.31,-0.47,-1.18,-1.18,-1.19
351.23,-0.52,0.69,-0.52,0.69,-0.68,-0.31,-0.48,-1.20,-1.20,-1.21
354.74,-0.52,0.70,-0.52,0.70,-0.70,-0.31,-0.49,-1.22,-1.22,-1.22
358.28,-0.52,0.72,-0.52,0.72,-0.72,-0.31,-0.49,-1.24,-1.24,-1.24
361.87,-0.52,0.74,-0.52,0.74,-0.74,-0.30,-0.50,-1.25,-1.25,-1.26
365.49,-0.52,0.75,-0.52,0.75,-0.75,-0.30,-0.50,-1.27,-1.27,-1.27
369.14,-0.52,0.77,-0.52,0.77,-0.77,-0.30,-0.51,-1.29,-1.29,-1.29
372.83,-0.52,0.78,-0.51,0.79,-0.80,-0.30,-0.52,-1.31,-1.31,-1.30
376.56,-0.51,0.81,-0.51,0.81,-0.82,-0.30,-0.53,-1.32,-1.32,-1.32
380.33,-0.50,0.84,-0.50,0.83,-0.83,-0.30,-0.53,-1.33,-1.33,-1.34
384.13,-0.50,0.85,-0.49,0.86,-0.85,-0.30,-0.54,-1.35,-1.34,-1.35
387.97,-0.49,0.88,-0.49,0.87,-0.86,-0.30,-0.55,-1.35,-1.36,-1.37
391.85,-0.50,0.88,-0.50,0.88,-0.87,-0.31,-0.56,-1.37,-1.37,-1.38
395.77,-0.51,0.88,-0.51,0.88,-0.88,-0.31,-0.57,-1.39,-1.38,-1.39
399.73,-0.52,0.88,-0.52,0.87,-0.88,-0.31,-0.58,-1.40,-1.40,-1.40
403.72,-0.55,0.86,-0.54,0.86,-0.87,-0.31,-0.59,-1.42,-1.41,-1.41
407.76,-0.57,0.85,-0.56,0.86,-0.86,-0.31,-0.60,-1.43,-1.42,-1.42
411.84,-0.59,0.85,-0.59,0.84,-0.84,-0.31,-0.61,-1.43,-1.43,-1.44
415.96,-0.62,0.83,-0.62,0.83,-0.82,-0.32,-0.62,-1.43,-1.44,-1.45
420.12,-0.66,0.80,-0.66,0.80,-0.79,-0.32,-0.63,-1.45,-1.45,-1.46
424.32,-0.71,0.76,-0.71,0.76,-0.76,-0.32,-0.64,-1.47,-1.47,-1.47
428.56,-0.76,0.72,-0.76,0.72,-0.73,-0.33,-0.65,-1.48,-1.48,-1.48
432.85,-0.81,0.69,-0.81,0.69,-0.69,-0.33,-0.66,-1.50,-1.50,-1.50
437.18,-0.86,0.65,-0.86,0.65,-0.66,-0.33,-0.67,-1.52,-1.51,-1.51
