frequency,raw,error,smoothed,error_smoothed,equalization,parametric_eq,fixed_band_eq,equalized_raw,equalized_smoothed,target
20.00,1.16,1.92,1.16,1.92,-1.92,-2.07,-1.13,-0.77,-0.77,-0.77
20.20,1.16,1.95,1.16,1.95,-1.95,-2.08,-1.17,-0.79,-0.79,-0.80
20.40,1.16,1.97,1.16,1.97,-1.97,-2.09,-1.20,-0.82,-0.82,-0.82
20.61,1.16,1.99,1.16,1.99,-1.99,-2.10,-1.23,-0.84,-0.84,-0.84
20.81,1.16,2.01,1.16,2.01,-2.02,-2.12,-1.27,-0.86,-0.86,-0.86
21.02,1.16,2.03,1.16,2.03,-2.04,-2.13,-1.31,-0.88,-0.88,-0.88
21.23,1.16,2.05,1.16,2.05,-2.05,-2.14,-1.35,-0.90,-0.90,-0.90
21.44,1.16,2.07,1.16,2.07,-2.07,-2.16,-1.38,-0.92,-0.92,-0.92
21.66,1.16,2.09,1.16,2.09,-2.09,-2.17,-1.42,-0.93,-0.93,-0.94
21.87,1.16,2.10,1.16,2.11,-2.10,-2.18,-1.47,-0.95,-0.95,-0.95
22.09,1.16,2.12,1.16,2.12,-2.12,-2.20,-1.51,-0.96,-0.96,-0.97
22.31,1.16,2.13,1.16,2.13,-2.13,-2.21,-1.55,-0.97,-0.97,-0.98
22.54,1.16,2.14,1.16,2.14,-2.14,-2.22,-1.60,-0.98,-0.98,-0.99
22.76,1.16,2.15,1.15,2.15,-2.14,-2.24,-1.64,-0.99,-0.99,-1.00
22.99,1.15,2.15,1.15,2.15,-2.15,-2.25,-1.69,-1.00,-1.00,-1.01
23.22,1.14,2.15,1.14,2.15,-2.16,-2.26,-1.74,-1.02,-1.02,-1.02
23.45,1.14,2.16,1.13,2.16,-2.17,-2.28,-1.79,-1.03,-1.03,-1.03
23.69,1.14,2.17,1.14,2.17,-2.18,-2.29,-1.84,-1.04,-1.04,-1.04
23.92,1.16,2.19,1.15,2.19,-2.19,-2.31,-1.89,-1.04,-1.04,-1.04
24.16,1.17,2.21,1.17,2.21,-2.22,-2.32,-1.94,-1.05,-1.05,-1.05
24.40,1.19,2.23,1.19,2.24,-2.24,-2.33,-1.99,-1.06,-1.05,-1.05
24.65,1.22,2.27,1.21,2.27,-2.27,-2.35,-2.04,-1.06,-1.06,-1.06
24.89,1.25,2.30,1.24,2.30,-2.30,-2.36,-2.10,-1.06,-1.06,-1.06
25.14,1.28,2.34,1.28,2.34,-2.34,-2.38,-2.15,-1.06,-1.06,-1.07
25.39,1.31,2.38,1.31,2.38,-2.38,-2.39,-2.21,-1.07,-1.07,-1.08
25.65,1.34,2.41,1.34,2.42,-2.41,-2.41,-2.26,-1.08,-1.08,-1.08
25.91,1.36,2.45,1.37,2.45,-2.45,-2.42,-2.32,-1.08,-1.08,-1.09
26.16,1.40,2.48,1.39,2.48,-2.48,-2.43,-2.37,-1.09,-1.09,-1.09
26.43,1.42,2.51,1.42,2.51,-2.51,-2.45,-2.42,-1.09,-1.09,-1.09
26.69,1.45,2.54,1.45,2.54,-2.54,-2.46,-2.48,-1.10,-1.09,-1.10
26.96,1.48,2.57,1.47,2.57,-2.57,-2.48,-2.53,-1.09,-1.10,-1.10
27.23,1.49,2.59,1.49,2.59,-2.58,-2.49,-2.58,-1.10,-1.10,-1.11
27.50,1.50,2.60,1.50,2.60,-2.60,-2.51,-2.63,-1.10,-1.10,-1.11
27.77,1.51,2.61,1.50,2.61,-2.61,-2.52,-2.68,-1.10,-1.10,-1.11
28.05,1.51,2.62,1.50,2.61,-2.61,-2.53,-2.73,-1.11,-1.11,-1.12
28.33,1.50,2.61,1.50,2.61,-2.61,-2.55,-2.77,-1.12,-1.12,-1.12
28.62,1.49,2.60,1.49,2.61,-2.61,-2.56,-2.82,-1.13,-1.13,-1.12
28.90,1.49,2.61,1.48,2.61,-2.61,-2.58,-2.86,-1.13,-1.13,-1.13
29.19,1.49,2.61,1.48,2.61,-2.61,-2.59,-2.90,-1.13,-1.13,-1.13
29.48,1.49,2.61,1.49,2.61,-2.61,-2.60,-2.93,-1.13,-1.13,-1.13
29.78,1.49,2.61,1.49,2.61,-2.61,-2.62,-2.96,-1.13,-1.13,-1.13
30.08,1.49,2.61,1.49,2.61,-2.61,-2.63,-2.99,-1.13,-1.13,-1.13
30.38,1.49,2.62,1.49,2.62,-2.62,-2.65,-3.01,-1.13,-1.13,-1.14
30.68,1.49,2.62,1.49,2.62,-2.62,-2.66,-3.04,-1.13,-1.13,-1.14
30.99,1.49,2.62,1.49,2.62,-2.62,-2.67,-3.05,-1.14,-1.14,-1.14
31.30,1.49,2.62,1.49,2.62,-2.63,-2.69,-3.07,-1.14,-1.14,-1.14
31.61,1.49,2.63,1.49,2.63,-2.63,-2.70,-3.08,-1.14,-1.14,-1.15
31.93,1.49,2.63,1.49,2.63,-2.63,-2.71,-3.08,-1.15,-1.15,-1.15
32.24,1.49,2.63,1.49,2.64,-2.64,-2.73,-3.09,-1.15,-1.15,-1.15
32.57,1.49,2.64,1.49,2.64,-2.64,-2.74,-3.09,-1.15,-1.15,-1.16
32.89,1.49,2.64,1.49,2.64,-2.64,-2.75,-3.08,-1.15,-1.15,-1.16
33.22,1.49,2.64,1.48,2.65,-2.64,-2.76,-3.08,-1.16,-1.16,-1.16
33.55,1.49,2.65,1.48,2.64,-2.64,-2.78,-3.07,-1.15,-1.16,-1.17
33.89,1.48,2.64,1.48,2.65,-2.64,-2.79,-3.06,-1.16,-1.16,-1.17
34.23,1.48,2.64,1.47,2.64,-2.64,-2.80,-3.04,-1.16,-1.17,-1.17
34.57,1.47,2.64,1.46,2.64,-2.64,-2.81,-3.03,-1.17,-1.17,-1.18
34.92,1.46,2.63,1.46,2.64,-2.64,-2.82,-3.01,-1.19,-1.18,-1.18
35.27,1.47,2.64,1.46,2.64,-2.65,-2.83,-2.99,-1.18,-1.19,-1.18
35.62,1.47,2.65,1.47,2.65,-2.66,-2.85,-2.97,-1.19,-1.19,-1.19
35.97,1.49,2.67,1.48,2.67,-2.67,-2.86,-2.95,-1.19,-1.19,-1.19
36.33,1.51,2.69,1.50,2.69,-2.69,-2.87,-2.92,-1.19,-1.19,-1.19
36.70,1.53,2.71,1.53,2.71,-2.72,-2.88,-2.90,-1.19,-1.19,-1.19
37.06,1.56,2.74,1.56,2.74,-2.74,-2.89,-2.88,-1.19,-1.19,-1.19
37.43,1.59,2.78,1.58,2.78,-2.78,-2.90,-2.85,-1.19,-1.19,-1.20
37.81,1.62,2.81,1.62,2.81,-2.81,-2.91,-2.83,-1.20,-1.20,-1.20
38.19,1.65,2.84,1.65,2.84,-2.85,-2.92,-2.81,-1.20,-1.20,-1.20
38.57,1.68,2.88,1.68,2.88,-2.88,-2.93,-2.79,-1.21,-1.21,-1.21
38.95,1.71,2.91,1.71,2.91,-2.92,-2.94,-2.76,-1.21,-1.21,-1.21
39.34,1.74,2.95,1.74,2.95,-2.95,-2.95,-2.74,-1.21,-1.21,-1.22
39.74,1.77,2.98,1.76,2.98,-2.98,-2.95,-2.73,-1.21,-1.22,-1.22
40.14,1.79,3.01,1.79,3.01,-3.00,-2.96,-2.71,-1.22,-1.22,-1.23
40.54,1.81,3.03,1.80,3.03,-3.02,-2.97,-2.69,-1.22,-1.22,-1.23
40.94,1.82,3.04,1.82,3.04,-3.04,-2.98,-2.68,-1.22,-1.22,-1.23
41.35,1.83,3.05,1.82,3.05,-3.04,-2.98,-2.67,-1.22,-1.22,-1.23
41.76,1.83,3.05,1.83,3.05,-3.05,-2.99,-2.66,-1.22,-1.22,-1.23
42.18,1.83,3.05,1.82,3.05,-3.05,-3.00,-2.65,-1.22,-1.22,-1.23
42.60,1.82,3.04,1.82,3.04,-3.04,-3.01,-2.64,-1.23,-1.23,-1.23
43.03,1.81,3.02,1.81,3.03,-3.04,-3.01,-2.63,-1.23,-1.23,-1.22
43.46,1.81,3.02,1.80,3.02,-3.03,-3.02,-2.63,-1.22,-1.23,-1.22
43.90,1.81,3.02,1.80,3.02,-3.03,-3.02,-2.63,-1.22,-1.22,-1.22
44.33,1.81,3.02,1.81,3.02,-3.02,-3.03,-2.63,-1.22,-1.22,-1.22
44.78,1.81,3.02,1.81,3.02,-3.02,-3.03,-2.63,-1.21,-1.21,-1.22
45.23,1.81,3.02,1.81,3.02,-3.02,-3.04,-2.64,-1.21,-1.21,-1.22
45.68,1.81,3.02,1.81,3.02,-3.02,-3.04,-2.64,-1.21,-1.21,-1.22
46.13,1.81,3.02,1.81,3.02,-3.02,-3.04,-2.65,-1.22,-1.22,-1.22
46.60,1.81,3.02,1.81,3.02,-3.02,-3.05,-2.66,-1.22,-1.22,-1.22
47.06,1.81,3.02,1.81,3.02,-3.03,-3.05,-2.68,-1.22,-1.22,-1.22
47.53,1.81,3.03,1.81,3.03,-3.03,-3.05,-2.69,-1.22,-1.22,-1.23
48.01,1.81,3.03,1.81,3.03,-3.03,-3.06,-2.71,-1.22,-1.22,-1.23
48.49,1.81,3.03,1.81,3.03,-3.03,-3.06,-2.73,-1.23,-1.23,-1.23
48.97,1.81,3.03,1.81,3.03,-3.03,-3.06,-2.74,-1.23,-1.23,-1.23
49.46,1.81,3.03,1.81,3.03,-3.03,-3.06,-2.77,-1.23,-1.23,-1.23
49.96,1.81,3.03,1.81,3.03,-3.03,-3.06,-2.79,-1.23,-1.23,-1.23
50.46,1.81,3.03,1.81,3.03,-3.03,-3.06,-2.81,-1.22,-1.22,-1.23
50.96,1.81,3.03,1.81,3.03,-3.03,-3.06,-2.84,-1.22,-1.22,-1.23
51.47,1.81,3.02,1.81,3.02,-3.03,-3.06,-2.86,-1.22,-1.22,-1.22
51.99,1.81,3.02,1.81,3.02,-3.02,-3.06,-2.89,-1.22,-1.22,-1.22
52.51,1.81,3.02,1.81,3.02,-3.02,-3.06,-2.91,-1.22,-1.22,-1.22
53.03,1.81,3.02,1.81,3.02,-3.02,-3.06,-2.94,-1.21,-1.21,-1.22
53.56,1.81,3.02,1.81,3.02,-3.02,-3.06,-2.97,-1.21,-1.21,-1.22
54.10,1.81,3.01,1.81,3.01,-3.02,-3.06,-3.00,-1.21,-1.21,-1.21
54.64,1.81,3.01,1.81,3.01,-3.01,-3.06,-3.02,-1.21,-1.21,-1.21
55.18,1.81,3.01,1.81,3.01,-3.01,-3.05,-3.05,-1.21,-1.21,-1.21
55.74,1.81,3.01,1.81,3.01,-3.01,-3.05,-3.07,-1.20,-1.20,-1.21
56.29,1.81,3.00,1.81,3.01,-3.00,-3.05,-3.10,-1.20,-1.20,-1.20
56.86,1.81,3.00,1.81,3.00,-3.00,-3.05,-3.12,-1.20,-1.20,-1.20
57.42,1.81,3.00,1.81,3.00,-3.00,-3.04,-3.14,-1.19,-1.19,-1.20
58.00,1.81,2.99,1.81,3.00,-2.99,-3.04,-3.16,-1.19,-1.19,-1.19
58.58,1.81,2.99,1.81,2.99,-2.99,-3.03,-3.18,-1.19,-1.19,-1.19
59.16,1.81,2.99,1.81,2.99,-2.99,-3.03,-3.19,-1.18,-1.18,-1.19
59.76,1.81,2.98,1.81,2.98,-2.99,-3.02,-3.20,-1.18,-1.18,-1.18
60.35,1.81,2.98,1.81,2.98,-2.98,-3.02,-3.21,-1.18,-1.18,-1.18
60.96,1.81,2.98,1.81,2.98,-2.98,-3.01,-3.22,-1.18,-1.18,-1.18
61.57,1.81,2.98,1.81,2.98,-2.98,-3.01,-3.22,-1.18,-1.18,-1.18
62.18,1.81,2.98,1.81,2.98,-2.98,-3.00,-3.23,-1.18,-1.18,-1.18
62.80,1.81,2.98,1.81,2.98,-2.98,-3.00,-3.22,-1.17,-1.17,-1.18
63.43,1.81,2.98,1.81,2.98,-2.98,-2.99,-3.22,-1.17,-1.17,-1.18
64.07,1.81,2.98,1.81,2.98,-2.98,-2.98,-3.21,-1.17,-1.17,-1.18
64.71,1.81,2.98,1.81,2.98,-2.98,-2.98,-3.20,-1.18,-1.18,-1.18
65.35,1.81,2.98,1.80,2.98,-2.98,-2.97,-3.18,-1.18,-1.18,-1.18
66.01,1.81,2.98,1.80,2.98,-2.99,-2.96,-3.17,-1.18,-1.18,-1.18
66.67,1.81,2.98,1.81,2.99,-2.99,-2.95,-3.15,-1.19,-1.18,-1.18
67.33,1.82,2.99,1.82,2.99,-3.00,-2.95,-3.13,-1.18,-1.18,-1.18
68.01,1.83,3.00,1.82,3.00,-3.00,-2.94,-3.10,-1.17,-1.17,-1.18
68.69,1.83,3.00,1.83,3.00,-3.00,-2.93,-3.08,-1.17,-1.17,-1.18
69.37,1.83,3.00,1.82,3.00,-2.99,-2.92,-3.05,-1.17,-1.17,-1.18
70.07,1.82,2.99,1.81,2.99,-2.98,-2.91,-3.02,-1.17,-1.17,-1.18
70.77,1.80,2.97,1.80,2.97,-2.97,-2.90,-2.99,-1.17,-1.17,-1.18
71.48,1.78,2.94,1.78,2.95,-2.95,-2.89,-2.96,-1.17,-1.17,-1.17
72.19,1.76,2.92,1.75,2.92,-2.92,-2.89,-2.93,-1.17,-1.17,-1.17
72.91,1.73,2.89,1.73,2.89,-2.89,-2.88,-2.89,-1.17,-1.17,-1.17
73.64,1.70,2.86,1.70,2.86,-2.86,-2.87,-2.86,-1.16,-1.16,-1.17
74.38,1.67,2.82,1.67,2.82,-2.82,-2.86,-2.83,-1.16,-1.16,-1.16
75.12,1.64,2.79,1.64,2.79,-2.79,-2.85,-2.80,-1.15,-1.15,-1.16
75.87,1.61,2.75,1.60,2.75,-2.75,-2.84,-2.76,-1.15,-1.15,-1.15
76.63,1.58,2.72,1.58,2.72,-2.72,-2.83,-2.73,-1.15,-1.14,-1.15
77.40,1.55,2.69,1.55,2.69,-2.69,-2.82,-2.70,-1.14,-1.14,-1.15
78.17,1.53,2.66,1.52,2.66,-2.66,-2.81,-2.67,-1.13,-1.14,-1.14
78.95,1.50,2.63,1.50,2.63,-2.63,-2.80,-2.64,-1.14,-1.14,-1.14
79.74,1.48,2.61,1.48,2.61,-2.62,-2.79,-2.62,-1.14,-1.14,-1.14
80.54,1.47,2.59,1.46,2.59,-2.60,-2.78,-2.59,-1.14,-1.14,-1.13
81.35,1.46,2.58,1.46,2.58,-2.59,-2.77,-2.57,-1.14,-1.14,-1.13
82.16,1.46,2.58,1.46,2.58,-2.59,-2.76,-2.54,-1.13,-1.13,-1.13
82.98,1.47,2.59,1.46,2.59,-2.59,-2.75,-2.52,-1.12,-1.12,-1.13
83.81,1.48,2.60,1.47,2.60,-2.59,-2.74,-2.50,-1.11,-1.12,-1.13
84.65,1.49,2.60,1.48,2.60,-2.59,-2.73,-2.48,-1.11,-1.11,-1.12
85.50,1.49,2.60,1.49,2.60,-2.60,-2.72,-2.47,-1.11,-1.11,-1.12
86.35,1.49,2.60,1.49,2.60,-2.60,-2.71,-2.45,-1.12,-1.11,-1.12
87.22,1.49,2.60,1.49,2.60,-2.60,-2.70,-2.44,-1.12,-1.12,-1.12
88.09,1.49,2.60,1.49,2.60,-2.60,-2.69,-2.43,-1.12,-1.12,-1.12
88.97,1.49,2.60,1.49,2.60,-2.60,-2.68,-2.42,-1.12,-1.12,-1.12
89.86,1.49,2.60,1.49,2.60,-2.60,-2.67,-2.41,-1.12,-1.12,-1.12
90.76,1.49,2.60,1.49,2.60,-2.60,-2.66,-2.41,-1.12,-1.12,-1.12
91.66,1.49,2.60,1.49,2.60,-2.60,-2.65,-2.41,-1.12,-1.12,-1.12
92.58,1.49,2.60,1.49,2.60,-2.60,-2.64,-2.40,-1.12,-1.12,-1.12
93.51,1.49,2.60,1.49,2.60,-2.60,-2.63,-2.41,-1.12,-1.12,-1.12
94.44,1.49,2.60,1.49,2.60,-2.60,-2.62,-2.41,-1.11,-1.11,-1.12
95.39,1.49,2.60,1.49,2.60,-2.60,-2.61,-2.41,-1.11,-1.11,-1.12
96.34,1.49,2.60,1.49,2.60,-2.60,-2.60,-2.42,-1.11,-1.11,-1.12
97.30,1.49,2.59,1.49,2.59,-2.60,-2.59,-2.42,-1.11,-1.11,-1.11
98.28,1.49,2.59,1.49,2.59,-2.59,-2.58,-2.43,-1.11,-1.11,-1.11
99.26,1.49,2.59,1.49,2.59,-2.59,-2.58,-2.44,-1.11,-1.11,-1.11
100.25,1.49,2.59,1.49,2.59,-2.59,-2.57,-2.45,-1.11,-1.11,-1.11
101.25,1.49,2.59,1.49,2.59,-2.59,-2.56,-2.46,-1.10,-1.10,-1.11
102.27,1.49,2.59,1.49,2.59,-2.59,-2.55,-2.48,-1.10,-1.10,-1.11
103.29,1.49,2.59,1.49,2.59,-2.59,-2.54,-2.49,-1.10,-1.10,-1.11
104.32,1.49,2.58,1.49,2.59,-2.58,-2.54,-2.50,-1.10,-1.10,-1.10
105.37,1.49,2.58,1.49,2.58,-2.58,-2.53,-2.52,-1.10,-1.10,-1.10
106.42,1.49,2.58,1.49,2.58,-2.58,-2.52,-2.53,-1.09,-1.09,-1.10
107.48,1.49,2.57,1.49,2.57,-2.58,-2.51,-2.55,-1.09,-1.09,-1.09
108.56,1.49,2.57,1.48,2.57,-2.58,-2.51,-2.57,-1.09,-1.09,-1.09
109.64,1.49,2.57,1.49,2.57,-2.58,-2.50,-2.58,-1.09,-1.09,-1.09
110.74,1.49,2.57,1.49,2.57,-2.58,-2.49,-2.60,-1.09,-1.09,-1.09
111.85,1.50,2.58,1.49,2.58,-2.58,-2.49,-2.61,-1.08,-1.09,-1.09
112.97,1.50,2.57,1.50,2.58,-2.58,-2.48,-2.62,-1.08,-1.08,-1.08
114.10,1.51,2.58,1.50,2.58,-2.58,-2.48,-2.63,-1.07,-1.07,-1.08
115.24,1.51,2.58,1.50,2.58,-2.57,-2.47,-2.65,-1.06,-1.07,-1.08
116.39,1.50,2.57,1.49,2.57,-2.56,-2.46,-2.66,-1.06,-1.07,-1.08
117.55,1.48,2.54,1.48,2.55,-2.55,-2.46,-2.66,-1.07,-1.07,-1.07
118.73,1.46,2.52,1.46,2.52,-2.53,-2.45,-2.67,-1.07,-1.07,-1.07
119.92,1.44,2.50,1.44,2.50,-2.50,-2.45,-2.67,-1.07,-1.07,-1.07
121.12,1.42,2.48,1.41,2.48,-2.47,-2.44,-2.68,-1.06,-1.06,-1.07
122.33,1.39,2.44,1.39,2.45,-2.44,-2.44,-2.68,-1.05,-1.05,-1.06
123.55,1.36,2.41,1.36,2.41,-2.41,-2.44,-2.67,-1.05,-1.05,-1.06
124.79,1.33,2.37,1.32,2.37,-2.37,-2.43,-2.67,-1.05,-1.05,-1.05
126.03,1.29,2.33,1.29,2.33,-2.34,-2.43,-2.66,-1.05,-1.05,-1.05
127.29,1.26,2.29,1.26,2.30,-2.30,-2.43,-2.65,-1.05,-1.04,-1.04
128.57,1.24,2.27,1.23,2.27,-2.27,-2.42,-2.64,-1.03,-1.04,-1.04
129.85,1.21,2.24,1.21,2.24,-2.24,-2.42,-2.63,-1.04,-1.03,-1.04
131.15,1.19,2.22,1.18,2.22,-2.22,-2.42,-2.61,-1.03,-1.03,-1.04
132.46,1.17,2.19,1.16,2.19,-2.20,-2.41,-2.59,-1.03,-1.03,-1.03
133.79,1.15,2.17,1.15,2.17,-2.18,-2.41,-2.57,-1.03,-1.03,-1.03
135.12,1.14,2.16,1.14,2.16,-2.17,-2.41,-2.55,-1.03,-1.03,-1.03
136.48,1.14,2.16,1.13,2.16,-2.16,-2.40,-2.53,-1.02,-1.02,-1.03
137.84,1.14,2.16,1.13,2.16,-2.15,-2.40,-2.50,-1.02,-1.02,-1.03
139.22,1.13,2.15,1.13,2.15,-2.15,-2.40,-2.48,-1.02,-1.02,-1.03
140.61,1.13,2.15,1.13,2.15,-2.15,-2.40,-2.45,-1.03,-1.02,-1.03
142.02,1.14,2.15,1.13,2.15,-2.16,-2.40,-2.42,-1.02,-1.02,-1.02
143.44,1.15,2.16,1.15,2.16,-2.17,-2.39,-2.39,-1.02,-1.02,-1.02
144.87,1.17,2.18,1.16,2.17,-2.18,-2.39,-2.36,-1.01,-1.02,-1.02
146.32,1.18,2.18,1.18,2.19,-2.19,-2.39,-2.33,-1.02,-1.01,-1.01
147.78,1.21,2.21,1.20,2.21,-2.21,-2.39,-2.30,-1.01,-1.01,-1.01
149.26,1.24,2.24,1.23,2.23,-2.23,-2.38,-2.27,-1.00,-1.00,-1.01
150.75,1.26,2.25,1.26,2.26,-2.26,-2.38,-2.24,-1.00,-1.00,-1.00
152.26,1.29,2.28,1.29,2.29,-2.29,-2.38,-2.22,-1.00,-1.00,-1.00
153.78,1.33,2.32,1.32,2.31,-2.31,-2.38,-2.19,-0.99,-0.99,-1.00
155.32,1.36,2.34,1.36,2.35,-2.34,-2.37,-2.16,-0.99,-0.99,-0.99
156.88,1.39,2.37,1.39,2.37,-2.37,-2.37,-2.13,-0.99,-0.99,-0.99
158.44,1.42,2.40,1.41,2.40,-2.40,-2.37,-2.11,-0.99,-0.99,-0.99
160.03,1.44,2.42,1.44,2.42,-2.43,-2.36,-2.08,-0.99,-0.99,-0.99
161.63,1.47,2.45,1.46,2.45,-2.45,-2.36,-2.06,-0.99,-0.99,-0.99
163.24,1.49,2.46,1.49,2.47,-2.47,-2.36,-2.04,-0.98,-0.98,-0.98
164.88,1.52,2.49,1.51,2.49,-2.48,-2.35,-2.01,-0.97,-0.97,-0.98
166.53,1.53,2.50,1.52,2.50,-2.49,-2.35,-1.99,-0.96,-0.96,-0.98
168.19,1.53,2.50,1.53,2.50,-2.49,-2.34,-1.98,-0.96,-0.96,-0.98
169.87,1.52,2.48,1.51,2.48,-2.48,-2.34,-1.96,-0.96,-0.96,-0.97
171.57,1.50,2.46,1.49,2.46,-2.46,-2.33,-1.94,-0.96,-0.97,-0.97
173.29,1.47,2.43,1.47,2.43,-2.44,-2.33,-1.93,-0.97,-0.97,-0.97
175.02,1.45,2.41,1.44,2.41,-2.41,-2.32,-1.92,-0.96,-0.97,-0.97
176.77,1.42,2.37,1.41,2.37,-2.38,-2.31,-1.90,-0.96,-0.96,-0.96
178.54,1.39,2.34,1.39,2.34,-2.35,-2.30,-1.89,-0.96,-0.96,-0.96
180.32,1.36,2.31,1.36,2.31,-2.31,-2.30,-1.88,-0.96,-0.96,-0.96
182.13,1.33,2.28,1.33,2.28,-2.28,-2.29,-1.88,-0.96,-0.96,-0.96
183.95,1.30,2.25,1.30,2.25,-2.25,-2.28,-1.87,-0.95,-0.95,-0.96
185.79,1.27,2.22,1.26,2.22,-2.22,-2.27,-1.87,-0.95,-0.95,-0.96
187.65,1.24,2.19,1.23,2.19,-2.19,-2.26,-1.86,-0.96,-0.96,-0.96
189.52,1.21,2.16,1.21,2.16,-2.16,-2.25,-1.86,-0.96,-0.96,-0.96
191.42,1.19,2.14,1.18,2.14,-2.14,-2.24,-1.86,-0.96,-0.96,-0.96
193.33,1.17,2.12,1.16,2.12,-2.12,-2.22,-1.86,-0.96,-0.96,-0.96
195.27,1.15,2.10,1.15,2.10,-2.11,-2.21,-1.86,-0.96,-0.96,-0.96
197.22,1.14,2.09,1.14,2.09,-2.10,-2.20,-1.87,-0.96,-0.96,-0.96
199.19,1.14,2.09,1.13,2.09,-2.09,-2.19,-1.87,-0.96,-0.96,-0.96
201.18,1.14,2.08,1.14,2.09,-2.09,-2.17,-1.88,-0.95,-0.95,-0.95
203.19,1.15,2.09,1.15,2.09,-2.09,-2.16,-1.88,-0.94,-0.94,-0.95
205.23,1.16,2.09,1.15,2.09,-2.09,-2.14,-1.89,-0.94,-0.94,-0.94
207.28,1.17,2.10,1.16,2.10,-2.10,-2.12,-1.89,-0.93,-0.94,-0.94
209.35,1.17,2.10,1.17,2.10,-2.10,-2.11,-1.90,-0.94,-0.93,-0.94
211.44,1.18,2.10,1.18,2.11,-2.10,-2.09,-1.91,-0.93,-0.93,-0.93
213.56,1.19,2.11,1.18,2.11,-2.10,-2.07,-1.92,-0.92,-0.92,-0.93
215.69,1.18,2.10,1.18,2.10,-2.10,-2.06,-1.92,-0.92,-0.92,-0.93
217.85,1.17,2.09,1.17,2.09,-2.09,-2.04,-1.93,-0.92,-0.92,-0.93
220.03,1.16,2.07,1.15,2.07,-2.07,-2.02,-1.94,-0.92,-0.92,-0.92
222.23,1.14,2.05,1.13,2.05,-2.05,-2.00,-1.95,-0.91,-0.92,-0.92
224.45,1.11,2.02,1.11,2.02,-2.02,-1.98,-1.95,-0.92,-0.91,-0.92
226.70,1.09,2.00,1.08,2.00,-2.00,-1.96,-1.96,-0.91,-0.91,-0.92
228.96,1.06,1.96,1.05,1.96,-1.96,-1.94,-1.96,-0.91,-0.91,-0.91
231.25,1.03,1.93,1.02,1.93,-1.93,-1.92,-1.96,-0.90,-0.90,-0.91
233.57,0.99,1.89,0.99,1.89,-1.89,-1.90,-1.97,-0.90,-0.90,-0.91
235.90,0.96,1.85,0.95,1.85,-1.85,-1.87,-1.97,-0.90,-0.90,-0.90
238.26,0.93,1.82,0.92,1.82,-1.82,-1.85,-1.97,-0.89,-0.90,-0.90
240.64,0.90,1.78,0.90,1.78,-1.79,-1.83,-1.96,-0.89,-0.89,-0.89
243.05,0.88,1.75,0.87,1.75,-1.76,-1.81,-1.96,-0.88,-0.88,-0.88
245.48,0.86,1.72,0.86,1.73,-1.73,-1.78,-1.95,-0.88,-0.88,-0.87
247.93,0.85,1.71,0.84,1.71,-1.71,-1.76,-1.94,-0.87,-0.87,-0.87
250.41,0.84,1.69,0.84,1.69,-1.70,-1.74,-1.93,-0.86,-0.86,-0.86
252.92,0.84,1.68,0.83,1.68,-1.68,-1.72,-1.92,-0.85,-0.85,-0.85
255.45,0.84,1.67,0.83,1.67,-1.67,-1.69,-1.91,-0.84,-0.84,-0.84
258.00,0.83,1.66,0.83,1.66,-1.66,-1.67,-1.89,-0.84,-0.83,-0.84
260.58,0.83,1.65,0.82,1.65,-1.65,-1.65,-1.87,-0.82,-0.82,-0.83
263.19,0.82,1.64,0.81,1.64,-1.63,-1.62,-1.85,-0.81,-0.82,-0.83
265.82,0.80,1.62,0.79,1.62,-1.61,-1.60,-1.83,-0.81,-0.81,-0.83
268.48,0.77,1.58,0.77,1.59,-1.58,-1.57,-1.81,-0.82,-0.81,-0.82
271.16,0.74,1.55,0.74,1.55,-1.55,-1.55,-1.78,-0.82,-0.82,-0.82
273.87,0.71,1.52,0.71,1.52,-1.52,-1.53,-1.76,-0.81,-0.81,-0.82
276.61,0.68,1.48,0.68,1.48,-1.48,-1.50,-1.73,-0.81,-0.81,-0.81
279.38,0.65,1.45,0.65,1.45,-1.45,-1.48,-1.70,-0.80,-0.80,-0.81
282.17,0.62,1.41,0.61,1.41,-1.41,-1.46,-1.67,-0.80,-0.80,-0.80
284.99,0.59,1.38,0.58,1.38,-1.38,-1.43,-1.64,-0.80,-0.80,-0.80
287.84,0.56,1.35,0.56,1.35,-1.35,-1.41,-1.61,-0.80,-0.80,-0.80
290.72,0.54,1.33,0.53,1.33,-1.33,-1.39,-1.58,-0.79,-0.80,-0.80
293.63,0.52,1.31,0.51,1.31,-1.31,-1.36,-1.54,-0.80,-0.80,-0.80
296.57,0.50,1.29,0.50,1.29,-1.30,-1.34,-1.51,-0.81,-0.80,-0.80
299.53,0.49,1.27,0.49,1.28,-1.29,-1.32,-1.48,-0.81,-0.80,-0.79
302.53,0.50,1.28,0.49,1.28,-1.29,-1.30,-1.44,-0.80,-0.80,-0.79
305.55,0.51,1.29,0.51,1.29,-1.29,-1.27,-1.41,-0.79,-0.78,-0.79
308.61,0.53,1.30,0.52,1.30,-1.29,-1.25,-1.38,-0.77,-0.77,-0.78
311.69,0.53,1.30,0.53,1.30,-1.29,-1.23,-1.35,-0.76,-0.76,-0.78
314.81,0.53,1.29,0.52,1.29,-1.28,-1.21,-1.31,-0.76,-0.76,-0.77
317.96,0.52,1.28,0.51,1.28,-1.27,-1.19,-1.28,-0.76,-0.76,-0.77
321.14,0.50,1.25,0.50,1.26,-1.25,-1.17,-1.25,-0.76,-0.75,-0.76
324.35,0.48,1.23,0.47,1.23,-1.23,-1.15,-1.22,-0.75,-0.75,-0.76
327.59,0.45,1.20,0.45,1.20,-1.20,-1.13,-1.19,-0.75,-0.75,-0.76
330.87,0.42,1.16,0.42,1.16,-1.16,-1.11,-1.16,-0.75,-0.75,-0.75
334.18,0.39,1.12,0.39,1.12,-1.13,-1.09,-1.13,-0.74,-0.74,-0.74
337.52,0.36,1.09,0.36,1.09,-1.09,-1.07,-1.10,-0.74,-0.74,-0.74
340.90,0.33,1.05,0.33,1.05,-1.06,-1.05,-1.07,-0.73,-0.73,-0.73
344.30,0.30,1.02,0.29,1.02,-1.02,-1.03,-1.05,-0.73,-0.73,-0.73
347.75,0.27,0.99,0.26,0.99,-0.99,-1.01,-1.02,-0.72,-0.72,-0.73
351.23,0.24,0.96,0.24,0.96,-0.96,-0.99,-0.99,-0.72,-0.72,-0.73
354.74,0.22,0.93,0.21,0.93,-0.93,-0.97,-0.97,-0.72,-0.72,-0.72
358.28,0.20,0.91,0.19,0.91,-0.91,-0.95,-0.94,-0.72,-0.72,-0.72
361.87,0.18,0.89,0.18,0.89,-0.90,-0.94,-0.92,-0.72,-0.72,-0.72
365.49,0.17,0.88,0.17,0.88,-0.89,-0.92,-0.90,-0.72,-0.72,-0.72
369.14,0.17,0.88,0.16,0.88,-0.88,-0.90,-0.88,-0.72,-0.72,-0.72
372.83,0.17,0.88,0.17,0.88,-0.88,-0.88,-0.85,-0.72,-0.71,-0.72
376.56,0.18,0.88,0.17,0.88,-0.88,-0.87,-0.83,-0.71,-0.71,-0.71
380.33,0.18,0.88,0.18,0.89,-0.89,-0.85,-0.81,-0.71,-0.71,-0.71
384.13,0.19,0.89,0.19,0.89,-0.89,-0.83,-0.79,-0.71,-0.71,-0.71
387.97,0.20,0.90,0.19,0.90,-0.90,-0.82,-0.78,-0.70,-0.70,-0.71
391.85,0.21,0.90,0.20,0.90,-0.90,-0.80,-0.76,-0.69,-0.69,-0.70
395.77,0.21,0.90,0.21,0.90,-0.89,-0.79,-0.74,-0.69,-0.69,-0.70
399.73,0.21,0.89,0.20,0.89,-0.89,-0.77,-0.72,-0.68,-0.68,-0.69
403.72,0.20,0.88,0.19,0.88,-0.87,-0.76,-0.71,-0.68,-0.68,-0.69
407.76,0.18,0.85,0.18,0.86,-0.85,-0.74,-0.69,-0.68,-0.68,-0.68
411.84,0.16,0.83,0.16,0.83,-0.83,-0.73,-0.68,-0.67,-0.67,-0.68
415.96,0.14,0.80,0.13,0.80,-0.80,-0.72,-0.66,-0.67,-0.67,-0.67
420.12,0.11,0.77,0.11,0.77,-0.77,-0.70,-0.65,-0.67,-0.67,-0.67
424.32,0.08,0.74,0.08,0.74,-0.74,-0.69,-0.64,-0.66,-0.66,-0.67
428.56,0.05,0.70,0.05,0.70,-0.71,-0.68,-0.62,-0.66,-0.66,-0.66
432.85,0.02,0.67,0.02,0.67,-0.67,-0.66,-0.61,-0.66,-0.66,-0.66
437.18,-0.01,0.64,-0.02,0.64,-0.64,-0.65,-0.60,-0.66,-0.66,-0.66
441.55,-0.04,0.61,-0.04,0.61,-0.61,-0.64,-0.59,-0.65,-0.65,-0.66
445.96,-0.07,0.58,-0.07,0.58,-0.58,-0.63,-0.58,-0.66,-0.65,-0.66
450.42,-0.09,0.56,-0.10,0.56,-0.56,-0.61,-0.57,-0.65,-0.66,-0.66
454.93,-0.12,0.53,-0.12,0.53,-0.54,-0.60,-0.56,-0.66,-0.66,-0.66
459.48,-0.14,0.51,-0.14,0.51,-0.52,-0.59,-0.55,-0.66,-0.66,-0.66
464.07,-0.15,0.50,-0.16,0.50,-0.51,-0.58,-0.54,-0.66,-0.66,-0.66
