frequency,raw,error,smoothed,error_smoothed,equalization,parametric_eq,fixed_band_eq,equalized_raw,equalized_smoothed,target
20.00,-13.41,-12.96,-13.41,-12.96,6.00,5.73,2.80,-7.41,-7.41,-0.45
20.20,-13.27,-12.86,-13.27,-12.86,6.00,5.76,2.87,-7.27,-7.27,-0.41
20.40,-13.13,-12.76,-13.13,-12.75,6.00,5.79,2.95,-7.13,-7.13,-0.37
20.61,-12.99,-12.64,-12.99,-12.65,6.00,5.81,3.04,-6.99,-6.99,-0.35
20.81,-12.85,-12.54,-12.85,-12.54,6.00,5.84,3.12,-6.85,-6.85,-0.31
21.02,-12.71,-12.44,-12.71,-12.43,6.00,5.86,3.21,-6.71,-6.71,-0.27
21.23,-12.58,-12.32,-12.58,-12.32,6.00,5.89,3.30,-6.58,-6.58,-0.26
21.44,-12.46,-12.21,-12.45,-12.21,6.00,5.91,3.39,-6.46,-6.45,-0.24
21.66,-12.33,-12.10,-12.33,-12.09,6.00,5.93,3.49,-6.33,-6.33,-0.23
21.87,-12.20,-11.96,-12.20,-11.97,6.00,5.95,3.59,-6.20,-6.20,-0.23
22.09,-12.09,-11.86,-12.09,-11.87,6.00,5.97,3.69,-6.09,-6.09,-0.22
22.31,-11.99,-11.76,-11.99,-11.76,6.00,5.99,3.79,-5.99,-5.99,-0.22
22.54,-11.90,-11.68,-11.89,-11.67,6.00,6.01,3.90,-5.90,-5.89,-0.22
22.76,-11.80,-11.56,-11.80,-11.57,6.00,6.03,4.01,-5.80,-5.80,-0.23
22.99,-11.70,-11.45,-11.70,-11.46,6.00,6.04,4.12,-5.70,-5.70,-0.24
23.22,-11.59,-11.34,-11.59,-11.34,6.00,6.06,4.23,-5.59,-5.59,-0.24
23.45,-11.48,-11.22,-11.48,-11.23,6.00,6.07,4.35,-5.48,-5.48,-0.26
23.69,-11.36,-11.10,-11.36,-11.11,6.00,6.08,4.47,-5.36,-5.36,-0.26
23.92,-11.25,-10.99,-11.24,-10.99,6.00,6.10,4.59,-5.25,-5.24,-0.26
24.16,-11.11,-10.86,-11.11,-10.86,6.00,6.11,4.72,-5.11,-5.11,-0.25
24.40,-10.96,-10.71,-10.96,-10.71,6.00,6.12,4.84,-4.96,-4.96,-0.25
24.65,-10.82,-10.56,-10.81,-10.56,6.00,6.12,4.97,-4.82,-4.81,-0.26
24.89,-10.67,-10.41,-10.68,-10.42,6.00,6.13,5.10,-4.67,-4.68,-0.26
25.14,-10.57,-10.31,-10.57,-10.31,6.00,6.14,5.23,-4.57,-4.57,-0.26
25.39,-10.49,-10.23,-10.49,-10.23,6.00,6.14,5.36,-4.49,-4.49,-0.26
25.65,-10.42,-10.15,-10.42,-10.15,6.00,6.15,5.49,-4.42,-4.42,-0.27
25.91,-10.35,-10.07,-10.34,-10.06,6.00,6.15,5.63,-4.35,-4.34,-0.28
26.16,-10.24,-9.96,-10.24,-9.96,6.00,6.15,5.76,-4.24,-4.24,-0.28
26.43,-10.12,-9.84,-10.12,-9.84,6.00,6.15,5.89,-4.12,-4.12,-0.28
26.69,-9.99,-9.71,-9.99,-9.71,6.00,6.15,6.02,-3.99,-3.99,-0.28
26.96,-9.87,-9.58,-9.88,-9.59,6.00,6.15,6.15,-3.87,-3.88,-0.29
27.23,-9.77,-9.48,-9.77,-9.47,6.00,6.15,6.28,-3.77,-3.77,-0.29
27.50,-9.67,-9.38,-9.67,-9.38,6.00,6.14,6.40,-3.67,-3.67,-0.29
27.77,-9.58,-9.27,-9.58,-9.27,6.00,6.14,6.52,-3.58,-3.58,-0.30
28.05,-9.48,-9.17,-9.47,-9.16,6.00,6.13,6.64,-3.48,-3.47,-0.31
28.33,-9.36,-9.04,-9.36,-9.05,6.00,6.13,6.75,-3.36,-3.36,-0.32
28.62,-9.24,-8.92,-9.24,-8.92,6.00,6.12,6.85,-3.24,-3.24,-0.32
28.90,-9.12,-8.80,-9.12,-8.80,6.00,6.11,6.95,-3.12,-3.12,-0.32
29.19,-9.01,-8.69,-9.01,-8.69,6.00,6.10,7.03,-3.01,-3.01,-0.32
29.48,-8.90,-8.59,-8.89,-8.58,6.00,6.09,7.11,-2.90,-2.89,-0.31
29.78,-8.78,-8.46,-8.78,-8.47,6.00,6.07,7.18,-2.78,-2.78,-0.32
30.08,-8.68,-8.37,-8.68,-8.36,6.00,6.06,7.24,-2.68,-2.68,-0.31
30.38,-8.59,-8.26,-8.58,-8.26,6.00,6.05,7.29,-2.59,-2.58,-0.33
30.68,-8.50,-8.16,-8.49,-8.16,6.00,6.03,7.33,-2.50,-2.49,-0.33
30.99,-8.40,-8.05,-8.41,-8.07,6.00,6.02,7.35,-2.40,-2.41,-0.34
31.30,-8.33,-7.98,-8.33,-7.99,6.00,6.00,7.37,-2.33,-2.33,-0.35
31.61,-8.26,-7.91,-8.26,-7.90,6.00,5.98,7.37,-2.26,-2.26,-0.35
31.93,-8.19,-7.82,-8.18,-7.81,6.00,5.96,7.36,-2.19,-2.18,-0.37
32.24,-8.08,-7.70,-8.07,-7.70,6.00,5.94,7.34,-2.08,-2.07,-0.38
32.57,-7.96,-7.58,-7.96,-7.57,6.00,5.92,7.31,-1.96,-1.96,-0.38
32.89,-7.84,-7.44,-7.85,-7.45,6.00,5.90,7.27,-1.84,-1.85,-0.39
33.22,-7.75,-7.33,-7.76,-7.35,6.00,5.87,7.21,-1.75,-1.76,-0.41
33.55,-7.68,-7.26,-7.67,-7.25,6.00,5.85,7.15,-1.68,-1.67,-0.42
33.89,-7.60,-7.16,-7.59,-7.16,6.00,5.83,7.08,-1.60,-1.59,-0.44
34.23,-7.49,-7.05,-7.48,-7.03,6.00,5.80,7.00,-1.49,-1.48,-0.44
34.57,-7.36,-6.90,-7.36,-6.90,6.00,5.77,6.92,-1.36,-1.36,-0.46
34.92,-7.22,-6.75,-7.24,-6.77,6.00,5.75,6.83,-1.22,-1.24,-0.47
35.27,-7.14,-6.66,-7.14,-6.66,6.00,5.72,6.74,-1.14,-1.14,-0.47
35.62,-7.07,-6.57,-7.06,-6.57,6.00,5.69,6.64,-1.07,-1.06,-0.50
35.97,-7.00,-6.49,-7.00,-6.49,6.00,5.66,6.54,-0.99,-0.99,-0.51
36.33,-6.93,-6.42,-6.93,-6.42,6.01,5.63,6.43,-0.92,-0.92,-0.51
36.70,-6.87,-6.35,-6.87,-6.35,6.01,5.60,6.32,-0.85,-0.85,-0.52
37.06,-6.81,-6.27,-6.80,-6.27,6.01,5.57,6.22,-0.79,-0.78,-0.54
37.43,-6.72,-6.19,-6.72,-6.18,6.00,5.54,6.11,-0.71,-0.71,-0.53
37.81,-6.63,-6.09,-6.64,-6.10,5.99,5.51,6.00,-0.64,-0.65,-0.54
38.19,-6.56,-6.01,-6.56,-6.01,5.96,5.48,5.89,-0.60,-0.60,-0.55
38.57,-6.49,-5.94,-6.49,-5.93,5.91,5.44,5.78,-0.58,-0.58,-0.55
38.95,-6.42,-5.86,-6.42,-5.86,5.85,5.41,5.68,-0.57,-0.56,-0.56
39.34,-6.34,-5.78,-6.34,-5.78,5.78,5.37,5.57,-0.56,-0.57,-0.56
39.74,-6.27,-5.69,-6.27,-5.69,5.70,5.34,5.47,-0.57,-0.57,-0.58
40.14,-6.19,-5.61,-6.18,-5.60,5.61,5.30,5.37,-0.58,-0.57,-0.58
40.54,-6.09,-5.51,-6.09,-5.51,5.52,5.27,5.28,-0.57,-0.57,-0.58
40.94,-5.99,-5.40,-6.00,-5.41,5.43,5.23,5.18,-0.56,-0.57,-0.59
41.35,-5.93,-5.33,-5.93,-5.33,5.35,5.20,5.09,-0.58,-0.58,-0.60
41.76,-5.88,-5.27,-5.87,-5.26,5.26,5.16,5.00,-0.61,-0.61,-0.61
42.18,-5.82,-5.20,-5.81,-5.20,5.18,5.12,4.92,-0.64,-0.63,-0.62
42.60,-5.75,-5.12,-5.75,-5.12,5.11,5.08,4.84,-0.64,-0.64,-0.63
43.03,-5.68,-5.04,-5.68,-5.04,5.04,5.05,4.76,-0.64,-0.64,-0.63
43.46,-5.62,-4.96,-5.62,-4.96,4.97,5.01,4.68,-0.65,-0.65,-0.66
43.90,-5.56,-4.88,-5.57,-4.89,4.90,4.97,4.61,-0.66,-0.67,-0.68
44.33,-5.53,-4.83,-5.53,-4.83,4.83,4.93,4.54,-0.69,-0.69,-0.70
44.78,-5.50,-4.78,-5.49,-4.77,4.77,4.89,4.48,-0.73,-0.72,-0.72
45.23,-5.46,-4.72,-5.46,-4.72,4.71,4.85,4.42,-0.75,-0.75,-0.74
45.68,-5.41,-4.66,-5.41,-4.66,4.65,4.82,4.36,-0.75,-0.76,-0.75
46.13,-5.37,-4.60,-5.37,-4.60,4.60,4.78,4.30,-0.77,-0.77,-0.77
46.60,-5.32,-4.54,-5.32,-4.54,4.54,4.74,4.25,-0.78,-0.78,-0.77
47.06,-5.27,-4.49,-5.27,-4.49,4.48,4.70,4.20,-0.78,-0.79,-0.78
47.53,-5.23,-4.44,-5.23,-4.44,4.43,4.66,4.16,-0.80,-0.79,-0.79
48.01,-5.18,-4.39,-5.17,-4.38,4.38,4.62,4.12,-0.80,-0.79,-0.79
48.49,-5.13,-4.32,-5.13,-4.32,4.34,4.58,4.08,-0.79,-0.79,-0.81
48.97,-5.08,-4.25,-5.10,-4.27,4.29,4.54,4.04,-0.79,-0.81,-0.83
49.46,-5.08,-4.24,-5.08,-4.24,4.24,4.50,4.01,-0.83,-0.83,-0.83
49.96,-5.08,-4.23,-5.06,-4.22,4.20,4.46,3.98,-0.88,-0.86,-0.85
50.46,-5.03,-4.19,-5.03,-4.19,4.16,4.42,3.95,-0.87,-0.87,-0.84
50.96,-4.98,-4.13,-4.98,-4.13,4.12,4.38,3.92,-0.85,-0.85,-0.85
51.47,-4.93,-4.07,-4.93,-4.07,4.09,4.34,3.90,-0.84,-0.84,-0.85
51.99,-4.88,-4.02,-4.90,-4.04,4.05,4.30,3.88,-0.83,-0.85,-0.86
52.51,-4.88,-4.02,-4.88,-4.02,4.02,4.26,3.86,-0.86,-0.86,-0.86
53.03,-4.88,-4.02,-4.85,-3.99,3.98,4.23,3.84,-0.90,-0.87,-0.86
53.56,-4.82,-3.95,-4.82,-3.95,3.95,4.19,3.82,-0.87,-0.87,-0.87
54.10,-4.77,-3.89,-4.79,-3.91,3.92,4.15,3.81,-0.85,-0.87,-0.88
54.64,-4.77,-3.89,-4.77,-3.88,3.89,4.11,3.79,-0.87,-0.87,-0.88
55.18,-4.77,-3.88,-4.77,-3.88,3.87,4.07,3.78,-0.90,-0.90,-0.89
55.74,-4.77,-3.87,-4.76,-3.86,3.84,4.03,3.77,-0.93,-0.92,-0.90
56.29,-4.74,-3.84,-4.73,-3.82,3.81,3.99,3.76,-0.93,-0.92,-0.90
56.86,-4.68,-3.75,-4.70,-3.77,3.78,3.96,3.74,-0.90,-0.91,-0.92
57.42,-4.67,-3.73,-4.67,-3.74,3.76,3.92,3.73,-0.91,-0.91,-0.94
58.00,-4.67,-3.72,-4.66,-3.71,3.73,3.88,3.72,-0.93,-0.93,-0.95
58.58,-4.67,-3.71,-4.67,-3.71,3.71,3.84,3.71,-0.96,-0.96,-0.96
59.16,-4.67,-3.69,-4.67,-3.69,3.68,3.81,3.69,-0.98,-0.98,-0.97
59.76,-4.67,-3.67,-4.67,-3.67,3.66,3.77,3.68,-1.01,-1.01,-1.00
60.35,-4.67,-3.65,-4.67,-3.65,3.63,3.73,3.66,-1.03,-1.03,-1.02
60.96,-4.67,-3.62,-4.67,-3.62,3.61,3.70,3.65,-1.06,-1.06,-1.05
61.57,-4.67,-3.58,-4.67,-3.58,3.57,3.66,3.63,-1.09,-1.09,-1.09
62.18,-4.67,-3.54,-4.67,-3.54,3.54,3.63,3.61,-1.13,-1.13,-1.13
62.80,-4.67,-3.50,-4.67,-3.50,3.50,3.59,3.59,-1.16,-1.16,-1.16
63.43,-4.67,-3.47,-4.67,-3.47,3.48,3.56,3.57,-1.19,-1.19,-1.20
64.07,-4.67,-3.43,-4.67,-3.43,3.45,3.52,3.55,-1.22,-1.21,-1.24
64.71,-4.67,-3.39,-4.67,-3.40,3.43,3.49,3.52,-1.24,-1.24,-1.27
65.35,-4.69,-3.39,-4.69,-3.39,3.41,3.46,3.50,-1.28,-1.29,-1.30
66.01,-4.73,-3.39,-4.73,-3.39,3.37,3.42,3.47,-1.35,-1.35,-1.34
66.67,-4.76,-3.38,-4.76,-3.39,3.34,3.39,3.45,-1.42,-1.42,-1.38
67.33,-4.78,-3.37,-4.77,-3.36,3.30,3.36,3.42,-1.48,-1.47,-1.41
68.01,-4.77,-3.32,-4.74,-3.29,3.26,3.33,3.39,-1.50,-1.48,-1.45
68.69,-4.69,-3.20,-4.70,-3.21,3.23,3.30,3.36,-1.46,-1.48,-1.49
69.37,-4.66,-3.13,-4.67,-3.14,3.19,3.27,3.33,-1.47,-1.48,-1.53
70.07,-4.67,-3.10,-4.67,-3.10,3.15,3.24,3.30,-1.52,-1.52,-1.57
70.77,-4.72,-3.11,-4.71,-3.11,3.12,3.21,3.28,-1.60,-1.59,-1.61
71.48,-4.77,-3.12,-4.77,-3.12,3.10,3.18,3.25,-1.67,-1.67,-1.65
72.19,-4.82,-3.13,-4.81,-3.11,3.09,3.15,3.22,-1.72,-1.72,-1.69
72.91,-4.86,-3.11,-4.84,-3.10,3.10,3.12,3.19,-1.76,-1.74,-1.75
73.64,-4.86,-3.07,-4.89,-3.10,3.11,3.09,3.16,-1.75,-1.79,-1.79
74.38,-4.94,-3.10,-4.95,-3.12,3.12,3.07,3.13,-1.82,-1.83,-1.84
75.12,-5.07,-3.19,-5.02,-3.14,3.14,3.04,3.11,-1.93,-1.88,-1.88
75.87,-5.07,-3.15,-5.08,-3.16,3.16,3.02,3.08,-1.91,-1.93,-1.92
76.63,-5.12,-3.16,-5.13,-3.17,3.18,2.99,3.06,-1.94,-1.95,-1.96
77.40,-5.18,-3.18,-5.17,-3.18,3.20,2.97,3.04,-1.98,-1.97,-1.99
78.17,-5.24,-3.21,-5.24,-3.21,3.22,2.94,3.02,-2.02,-2.02,-2.03
78.95,-5.30,-3.24,-5.30,-3.24,3.23,2.92,3.00,-2.07,-2.07,-2.06
79.74,-5.36,-3.27,-5.35,-3.26,3.24,2.90,2.98,-2.12,-2.11,-2.09
80.54,-5.38,-3.26,-5.37,-3.25,3.24,2.87,2.97,-2.14,-2.14,-2.12
81.35,-5.38,-3.23,-5.38,-3.23,3.22,2.85,2.95,-2.15,-2.16,-2.15
82.16,-5.38,-3.20,-5.38,-3.20,3.20,2.83,2.94,-2.18,-2.18,-2.18
82.98,-5.38,-3.17,-5.38,-3.17,3.17,2.81,2.93,-2.21,-2.21,-2.21
83.81,-5.38,-3.13,-5.38,-3.14,3.12,2.79,2.92,-2.26,-2.26,-2.25
84.65,-5.38,-3.10,-5.36,-3.09,3.07,2.77,2.92,-2.30,-2.29,-2.28
85.50,-5.34,-3.03,-5.33,-3.02,3.02,2.76,2.92,-2.32,-2.31,-2.30
86.35,-5.28,-2.94,-5.29,-2.96,2.97,2.74,2.92,-2.31,-2.32,-2.34
87.22,-5.26,-2.89,-5.27,-2.90,2.92,2.72,2.92,-2.33,-2.35,-2.37
88.09,-5.28,-2.87,-5.27,-2.86,2.88,2.71,2.92,-2.40,-2.39,-2.41
88.97,-5.28,-2.85,-5.27,-2.84,2.84,2.69,2.93,-2.44,-2.44,-2.43
89.86,-5.27,-2.80,-5.27,-2.81,2.80,2.68,2.93,-2.47,-2.48,-2.47
90.76,-5.27,-2.76,-5.27,-2.77,2.76,2.67,2.94,-2.51,-2.51,-2.50
91.66,-5.27,-2.74,-5.27,-2.73,2.73,2.65,2.96,-2.54,-2.54,-2.53
92.58,-5.27,-2.70,-5.27,-2.70,2.70,2.64,2.97,-2.57,-2.57,-2.57
93.51,-5.27,-2.67,-5.27,-2.67,2.67,2.63,2.99,-2.60,-2.60,-2.59
94.44,-5.27,-2.65,-5.27,-2.64,2.64,2.62,3.00,-2.63,-2.63,-2.62
95.39,-5.27,-2.62,-5.27,-2.61,2.61,2.61,3.02,-2.66,-2.66,-2.65
96.34,-5.27,-2.58,-5.27,-2.59,2.58,2.60,3.05,-2.69,-2.69,-2.69
97.30,-5.28,-2.56,-5.28,-2.56,2.57,2.60,3.07,-2.71,-2.71,-2.72
98.28,-5.29,-2.54,-5.28,-2.54,2.56,2.59,3.09,-2.73,-2.72,-2.75
99.26,-5.30,-2.53,-5.30,-2.53,2.56,2.58,3.12,-2.74,-2.75,-2.76
100.25,-5.33,-2.53,-5.34,-2.55,2.56,2.58,3.15,-2.77,-2.79,-2.79
101.25,-5.40,-2.58,-5.40,-2.57,2.57,2.57,3.18,-2.83,-2.83,-2.82
102.27,-5.48,-2.63,-5.45,-2.60,2.58,2.57,3.21,-2.89,-2.87,-2.85
103.29,-5.50,-2.60,-5.51,-2.62,2.60,2.57,3.24,-2.89,-2.90,-2.90
104.32,-5.54,-2.62,-5.55,-2.62,2.62,2.57,3.27,-2.91,-2.92,-2.92
105.37,-5.61,-2.65,-5.59,-2.63,2.64,2.57,3.30,-2.97,-2.95,-2.96
106.42,-5.63,-2.64,-5.65,-2.66,2.65,2.57,3.33,-2.97,-3.00,-2.99
107.48,-5.71,-2.68,-5.72,-2.69,2.67,2.57,3.36,-3.04,-3.05,-3.03
108.56,-5.80,-2.73,-5.77,-2.70,2.69,2.57,3.39,-3.11,-3.09,-3.07
109.64,-5.82,-2.71,-5.79,-2.69,2.70,2.58,3.42,-3.12,-3.09,-3.11
110.74,-5.81,-2.67,-5.82,-2.68,2.72,2.58,3.45,-3.09,-3.10,-3.14
111.85,-5.82,-2.65,-5.89,-2.72,2.74,2.59,3.48,-3.08,-3.15,-3.17
112.97,-6.01,-2.79,-5.97,-2.76,2.75,2.59,3.50,-3.25,-3.22,-3.21
114.10,-6.09,-2.86,-6.04,-2.80,2.77,2.60,3.53,-3.32,-3.27,-3.23
115.24,-6.06,-2.79,-6.07,-2.80,2.78,2.61,3.55,-3.28,-3.29,-3.27
116.39,-6.06,-2.76,-6.09,-2.79,2.80,2.62,3.56,-3.26,-3.29,-3.30
117.55,-6.11,-2.78,-6.13,-2.81,2.82,2.63,3.58,-3.29,-3.31,-3.33
118.73,-6.23,-2.87,-6.18,-2.83,2.84,2.64,3.59,-3.39,-3.34,-3.35
119.92,-6.24,-2.88,-6.22,-2.85,2.86,2.66,3.60,-3.38,-3.36,-3.36
121.12,-6.21,-2.82,-6.24,-2.86,2.88,2.67,3.60,-3.33,-3.37,-3.39
122.33,-6.26,-2.85,-6.29,-2.89,2.90,2.69,3.60,-3.36,-3.39,-3.40
123.55,-6.37,-2.96,-6.35,-2.93,2.93,2.70,3.60,-3.44,-3.43,-3.41
124.79,-6.45,-3.01,-6.40,-2.97,2.95,2.72,3.59,-3.50,-3.45,-3.44
126.03,-6.41,-2.96,-6.42,-2.97,2.96,2.74,3.58,-3.45,-3.46,-3.45
127.29,-6.40,-2.93,-6.44,-2.97,2.96,2.76,3.56,-3.44,-3.48,-3.47
128.57,-6.46,-2.97,-6.46,-2.98,2.96,2.78,3.54,-3.49,-3.50,-3.49
129.85,-6.54,-3.04,-6.50,-2.99,2.97,2.80,3.52,-3.57,-3.53,-3.50
131.15,-6.50,-2.98,-6.49,-2.98,2.97,2.82,3.49,-3.53,-3.52,-3.52
132.46,-6.46,-2.93,-6.46,-2.93,2.98,2.84,3.46,-3.48,-3.48,-3.53
133.79,-6.42,-2.89,-6.46,-2.93,2.99,2.87,3.42,-3.43,-3.48,-3.53
135.12,-6.51,-2.95,-6.53,-2.98,3.00,2.89,3.38,-3.51,-3.53,-3.56
136.48,-6.67,-3.11,-6.62,-3.05,3.02,2.92,3.34,-3.65,-3.60,-3.56
137.84,-6.70,-3.12,-6.67,-3.08,3.04,2.95,3.30,-3.66,-3.63,-3.58
139.22,-6.68,-3.07,-6.70,-3.09,3.06,2.97,3.25,-3.62,-3.64,-3.61
140.61,-6.66,-3.03,-6.71,-3.09,3.10,3.00,3.20,-3.56,-3.61,-3.63
142.02,-6.79,-3.16,-6.72,-3.08,3.13,3.03,3.15,-3.66,-3.59,-3.63
143.44,-6.77,-3.12,-6.77,-3.12,3.16,3.06,3.10,-3.61,-3.61,-3.65
144.87,-6.77,-3.09,-6.85,-3.18,3.18,3.09,3.04,-3.59,-3.67,-3.68
146.32,-6.95,-3.25,-6.91,-3.22,3.19,3.12,2.99,-3.76,-3.72,-3.70
147.78,-7.03,-3.30,-6.97,-3.23,3.20,3.15,2.94,-3.83,-3.77,-3.73
149.26,-6.99,-3.22,-7.00,-3.24,3.20,3.18,2.88,-3.79,-3.80,-3.76
150.75,-6.96,-3.14,-7.03,-3.22,3.19,3.22,2.82,-3.77,-3.84,-3.82
152.26,-7.09,-3.23,-7.06,-3.20,3.17,3.25,2.77,-3.92,-3.89,-3.86
153.78,-7.16,-3.24,-7.09,-3.17,3.16,3.28,2.71,-4.00,-3.93,-3.92
155.32,-7.09,-3.11,-7.11,-3.14,3.15,3.31,2.66,-3.93,-3.96,-3.98
156.88,-7.10,-3.07,-7.15,-3.11,3.17,3.34,2.61,-3.92,-3.97,-4.03
158.44,-7.23,-3.12,-7.23,-3.12,3.22,3.37,2.55,-4.01,-4.01,-4.11
160.03,-7.40,-3.23,-7.35,-3.19,3.27,3.40,2.50,-4.13,-4.08,-4.17
161.63,-7.51,-3.29,-7.53,-3.31,3.33,3.43,2.45,-4.18,-4.20,-4.22
163.24,-7.65,-3.37,-7.71,-3.44,3.39,3.46,2.40,-4.26,-4.32,-4.28
164.88,-7.93,-3.62,-7.86,-3.54,3.45,3.48,2.35,-4.48,-4.41,-4.31
166.53,-7.98,-3.63,-7.94,-3.59,3.49,3.51,2.31,-4.49,-4.45,-4.35
168.19,-7.92,-3.54,-7.95,-3.58,3.51,3.53,2.26,-4.41,-4.44,-4.38
169.87,-7.89,-3.49,-7.91,-3.51,3.52,3.55,2.22,-4.36,-4.38,-4.40
171.57,-7.90,-3.48,-7.89,-3.47,3.53,3.57,2.18,-4.37,-4.36,-4.42
173.29,-7.90,-3.47,-7.90,-3.47,3.52,3.59,2.14,-4.37,-4.37,-4.43
175.02,-7.91,-3.47,-7.89,-3.45,3.52,3.61,2.10,-4.39,-4.37,-4.43
176.77,-7.91,-3.47,-7.91,-3.47,3.51,3.62,2.06,-4.40,-4.40,-4.44
178.54,-7.91,-3.46,-7.98,-3.54,3.52,3.63,2.03,-4.39,-4.46,-4.45
180.32,-8.08,-3.65,-8.03,-3.60,3.54,3.63,1.99,-4.54,-4.49,-4.43
182.13,-8.12,-3.69,-8.06,-3.63,3.57,3.63,1.96,-4.55,-4.49,-4.43
183.95,-8.00,-3.57,-8.03,-3.60,3.59,3.63,1.93,-4.41,-4.44,-4.43
185.79,-7.98,-3.54,-7.99,-3.56,3.60,3.62,1.90,-4.37,-4.39,-4.43
187.65,-7.97,-3.52,-8.02,-3.58,3.62,3.61,1.87,-4.35,-4.40,-4.45
189.52,-8.11,-3.66,-8.09,-3.63,3.63,3.60,1.85,-4.48,-4.46,-4.45
191.42,-8.18,-3.72,-8.11,-3.64,3.63,3.58,1.82,-4.55,-4.48,-4.46
193.33,-8.08,-3.60,-8.09,-3.61,3.63,3.55,1.80,-4.45,-4.46,-4.48
195.27,-8.01,-3.52,-8.07,-3.58,3.61,3.52,1.77,-4.40,-4.46,-4.49
197.22,-8.06,-3.55,-8.11,-3.60,3.58,3.49,1.75,-4.48,-4.53,-4.51
199.19,-8.21,-3.68,-8.12,-3.60,3.53,3.44,1.73,-4.68,-4.59,-4.53
201.18,-8.16,-3.62,-8.08,-3.54,3.47,3.40,1.71,-4.69,-4.61,-4.54
203.19,-7.88,-3.33,-8.01,-3.45,3.41,3.35,1.70,-4.47,-4.60,-4.55
205.23,-7.88,-3.30,-7.87,-3.30,3.35,3.29,1.68,-4.53,-4.52,-4.58
207.28,-7.88,-3.30,-7.78,-3.20,3.29,3.22,1.66,-4.59,-4.49,-4.58
209.35,-7.70,-3.09,-7.78,-3.17,3.24,3.16,1.64,-4.46,-4.54,-4.61
211.44,-7.75,-3.12,-7.78,-3.16,3.19,3.08,1.63,-4.56,-4.59,-4.63
213.56,-7.85,-3.21,-7.80,-3.16,3.15,3.00,1.61,-4.70,-4.65,-4.64
215.69,-7.84,-3.19,-7.82,-3.18,3.14,2.92,1.60,-4.70,-4.69,-4.64
217.85,-7.79,-3.14,-7.77,-3.12,3.13,2.82,1.58,-4.66,-4.65,-4.65
220.03,-7.70,-3.03,-7.73,-3.06,3.10,2.73,1.56,-4.59,-4.63,-4.67
222.23,-7.66,-2.98,-7.72,-3.05,3.05,2.63,1.55,-4.60,-4.66,-4.68
224.45,-7.75,-3.08,-7.68,-3.01,2.97,2.52,1.53,-4.78,-4.71,-4.66
226.70,-7.64,-2.98,-7.61,-2.95,2.86,2.42,1.51,-4.78,-4.75,-4.66
228.96,-7.43,-2.77,-7.46,-2.81,2.72,2.30,1.49,-4.71,-4.74,-4.66
231.25,-7.23,-2.58,-7.22,-2.58,2.56,2.19,1.47,-4.67,-4.66,-4.64
233.57,-7.00,-2.37,-6.98,-2.35,2.38,2.07,1.45,-4.62,-4.60,-4.63
235.90,-6.72,-2.10,-6.75,-2.14,2.19,1.94,1.43,-4.53,-4.57,-4.62
238.26,-6.54,-1.95,-6.54,-1.94,1.98,1.82,1.40,-4.56,-4.56,-4.59
240.64,-6.35,-1.78,-6.33,-1.77,1.78,1.69,1.37,-4.57,-4.55,-4.57
243.05,-6.14,-1.61,-6.14,-1.60,1.60,1.56,1.35,-4.54,-4.54,-4.53
245.48,-5.93,-1.42,-5.92,-1.41,1.43,1.43,1.32,-4.50,-4.50,-4.51
247.93,-5.73,-1.24,-5.74,-1.26,1.28,1.29,1.28,-4.45,-4.47,-4.48
250.41,-5.56,-1.09,-5.59,-1.12,1.13,1.16,1.25,-4.42,-4.45,-4.47
252.92,-5.49,-1.06,-5.45,-1.01,1.00,1.02,1.21,-4.48,-4.44,-4.43
255.45,-5.31,-0.90,-5.32,-0.91,0.89,0.88,1.17,-4.42,-4.43,-4.41
258.00,-5.18,-0.79,-5.18,-0.79,0.79,0.74,1.13,-4.39,-4.39,-4.39
260.58,-5.04,-0.66,-5.03,-0.65,0.69,0.61,1.09,-4.35,-4.33,-4.38
263.19,-4.90,-0.55,-4.92,-0.56,0.60,0.47,1.05,-4.30,-4.32,-4.35
265.82,-4.80,-0.47,-4.83,-0.50,0.50,0.33,1.00,-4.29,-4.32,-4.33
268.48,-4.77,-0.46,-4.74,-0.43,0.40,0.20,0.95,-4.36,-4.33,-4.31
271.16,-4.65,-0.37,-4.63,-0.35,0.30,0.06,0.90,-4.35,-4.34,-4.28
273.87,-4.48,-0.21,-4.49,-0.23,0.18,-0.08,0.85,-4.30,-4.30,-4.26
276.61,-4.31,-0.07,-4.31,-0.07,0.06,-0.21,0.79,-4.24,-4.24,-4.24
279.38,-4.12,0.09,-4.13,0.09,-0.06,-0.34,0.74,-4.18,-4.19,-4.21
282.17,-3.96,0.23,-3.96,0.22,-0.20,-0.47,0.68,-4.16,-4.17,-4.19
284.99,-3.80,0.36,-3.79,0.36,-0.35,-0.60,0.62,-4.15,-4.14,-4.16
287.84,-3.64,0.49,-3.63,0.50,-0.50,-0.73,0.56,-4.14,-4.13,-4.13
290.72,-3.44,0.65,-3.45,0.64,-0.65,-0.85,0.50,-4.09,-4.10,-4.09
293.63,-3.28,0.79,-3.27,0.79,-0.80,-0.97,0.43,-4.08,-4.07,-4.06
296.57,-3.08,0.95,-3.08,0.95,-0.95,-1.09,0.37,-4.03,-4.03,-4.03
299.53,-2.91,1.10,-2.91,1.10,-1.10,-1.21,0.30,-4.00,-4.00,-4.01
302.53,-2.73,1.25,-2.73,1.24,-1.25,-1.32,0.24,-3.97,-3.98,-3.98
305.55,-2.56,1.39,-2.56,1.39,-1.40,-1.43,0.17,-3.95,-3.96,-3.94
308.61,-2.41,1.52,-2.39,1.54,-1.54,-1.54,0.10,-3.95,-3.93,-3.93
311.69,-2.21,1.70,-2.22,1.68,-1.68,-1.65,0.03,-3.89,-3.90,-3.91
314.81,-2.05,1.82,-2.05,1.82,-1.81,-1.75,-0.04,-3.86,-3.86,-3.87
317.96,-1.91,1.95,-1.91,1.95,-1.93,-1.85,-0.11,-3.84,-3.84,-3.86
321.14,-1.78,2.06,-1.78,2.06,-2.04,-1.94,-0.18,-3.82,-3.82,-3.84
324.35,-1.68,2.16,-1.66,2.17,-2.15,-2.04,-0.25,-3.83,-3.82,-3.83
327.59,-1.55,2.27,-1.57,2.25,-2.26,-2.13,-0.32,-3.81,-3.83,-3.82
330.87,-1.47,2.34,-1.49,2.32,-2.36,-2.21,-0.39,-3.83,-3.85,-3.81
334.18,-1.43,2.37,-1.39,2.41,-2.44,-2.29,-0.47,-3.87,-3.83,-3.80
337.52,-1.29,2.50,-1.26,2.53,-2.53,-2.37,-0.54,-3.82,-3.78,-3.79
340.90,-1.09,2.68,-1.12,2.65,-2.61,-2.45,-0.62,-3.70,-3.74,-3.77
344.30,-0.98,2.79,-1.03,2.73,-2.70,-2.52,-0.69,-3.68,-3.73,-3.76
347.75,-1.00,2.76,-0.98,2.78,-2.78,-2.59,-0.77,-3.78,-3.76,-3.76
351.23,-0.98,2.77,-0.92,2.83,-2.87,-2.65,-0.85,-3.85,-3.79,-3.75
354.74,-0.83,2.92,-0.84,2.91,-2.95,-2.71,-0.93,-3.77,-3.78,-3.75
358.28,-0.69,3.05,-0.72,3.02,-3.02,-2.77,-1.01,-3.70,-3.74,-3.74
361.87,-0.63,3.11,-0.63,3.11,-3.08,-2.82,-1.09,-3.71,-3.71,-3.74
365.49,-0.58,3.15,-0.57,3.16,-3.14,-2.87,-1.17,-3.72,-3.71,-3.73
369.14,-0.55,3.18,-0.53,3.21,-3.20,-2.92,-1.25,-3.75,-3.72,-3.73
372.83,-0.47,3.26,-0.49,3.25,-3.25,-2.96,-1.33,-3.72,-3.74,-3.73
376.56,-0.43,3.31,-0.44,3.28,-3.30,-3.00,-1.41,-3.73,-3.74,-3.73
380.33,-0.43,3.29,-0.40,3.33,-3.34,-3.04,-1.50,-3.76,-3.73,-3.72
384.13,-0.36,3.37,-0.36,3.36,-3.36,-3.07,-1.58,-3.72,-3.73,-3.73
387.97,-0.32,3.41,-0.33,3.39,-3.39,-3.10,-1.66,-3.71,-3.72,-3.73
391.85,-0.31,3.42,-0.31,3.42,-3.41,-3.13,-1.75,-3.72,-3.71,-3.73
395.77,-0.31,3.41,-0.31,3.42,-3.42,-3.15,-1.83,-3.73,-3.72,-3.72
399.73,-0.31,3.41,-0.30,3.42,-3.42,-3.17,-1.92,-3.73,-3.72,-3.72
403.72,-0.31,3.42,-0.30,3.42,-3.41,-3.18,-2.00,-3.72,-3.72,-3.73
407.76,-0.31,3.42,-0.32,3.40,-3.39,-3.20,-2.09,-3.70,-3.72,-3.73
411.84,-0.35,3.37,-0.35,3.38,-3.37,-3.21,-2.17,-3.72,-3.72,-3.72
415.96,-0.41,3.32,-0.39,3.34,-3.34,-3.21,-2.25,-3.74,-3.73,-3.73
420.12,-0.42,3.31,-0.44,3.29,-3.30,-3.22,-2.34,-3.72,-3.74,-3.73
424.32,-0.48,3.24,-0.47,3.26,-3.27,-3.22,-2.42,-3.74,-3.73,-3.72
428.56,-0.50,3.23,-0.50,3.22,-3.23,-3.21,-2.50,-3.73,-3.73,-3.72
432.85,-0.51,3.20,-0.52,3.18,-3.20,-3.21,-2.58,-3.71,-3.73,-3.70
