frequency,raw,error,smoothed,error_smoothed,equalization,parametric_eq,fixed_band_eq,equalized_raw,equalized_smoothed,target
20.00,-5.24,-9.13,-5.24,-9.12,6.00,6.01,2.81,0.76,0.76,3.89
20.20,-5.19,-9.08,-5.19,-9.08,6.00,6.01,2.89,0.81,0.81,3.89
20.40,-5.15,-9.03,-5.15,-9.04,6.00,6.02,2.97,0.85,0.85,3.89
20.61,-5.10,-9.00,-5.10,-8.99,6.00,6.03,3.05,0.90,0.90,3.89
20.81,-5.05,-8.94,-5.05,-8.95,6.00,6.03,3.14,0.95,0.95,3.89
21.02,-5.01,-8.90,-5.00,-8.90,6.00,6.04,3.22,0.99,1.00,3.89
21.23,-4.95,-8.84,-4.95,-8.85,6.00,6.04,3.31,1.05,1.05,3.89
21.44,-4.90,-8.80,-4.90,-8.80,6.00,6.04,3.41,1.10,1.10,3.90
21.66,-4.85,-8.75,-4.85,-8.75,6.00,6.04,3.50,1.15,1.15,3.90
21.87,-4.80,-8.70,-4.80,-8.70,6.00,6.04,3.60,1.20,1.20,3.90
22.09,-4.75,-8.65,-4.75,-8.66,6.00,6.04,3.70,1.25,1.25,3.90
22.31,-4.70,-8.61,-4.70,-8.61,6.00,6.04,3.81,1.30,1.30,3.91
22.54,-4.66,-8.56,-4.66,-8.57,6.00,6.04,3.91,1.34,1.34,3.90
22.76,-4.61,-8.52,-4.61,-8.52,6.00,6.03,4.02,1.39,1.39,3.91
22.99,-4.56,-8.47,-4.56,-8.47,6.00,6.03,4.13,1.44,1.44,3.91
23.22,-4.51,-8.42,-4.51,-8.42,6.00,6.03,4.25,1.49,1.49,3.91
23.45,-4.45,-8.36,-4.45,-8.37,6.00,6.02,4.36,1.55,1.55,3.91
23.69,-4.40,-8.31,-4.40,-8.31,6.00,6.02,4.48,1.60,1.60,3.91
23.92,-4.35,-8.27,-4.35,-8.26,6.00,6.02,4.61,1.65,1.65,3.92
24.16,-4.29,-8.20,-4.29,-8.21,6.00,6.01,4.73,1.71,1.71,3.91
24.40,-4.24,-8.15,-4.23,-8.14,6.00,6.01,4.86,1.76,1.77,3.91
24.65,-4.18,-8.09,-4.18,-8.08,6.00,6.00,4.98,1.82,1.82,3.91
24.89,-4.12,-8.02,-4.13,-8.03,6.00,6.00,5.11,1.88,1.87,3.90
25.14,-4.10,-8.00,-4.10,-8.00,6.00,5.99,5.24,1.90,1.90,3.90
25.39,-4.10,-7.99,-4.10,-7.99,6.00,5.99,5.38,1.90,1.90,3.89
25.65,-4.10,-7.99,-4.10,-7.99,6.00,5.98,5.51,1.90,1.90,3.89
25.91,-4.10,-7.98,-4.08,-7.96,6.00,5.97,5.64,1.90,1.92,3.88
26.16,-4.03,-7.90,-4.02,-7.90,6.00,5.97,5.78,1.97,1.98,3.88
26.43,-3.93,-7.80,-3.94,-7.80,6.00,5.96,5.91,2.07,2.06,3.87
26.69,-3.83,-7.69,-3.83,-7.70,6.00,5.96,6.04,2.17,2.17,3.86
26.96,-3.73,-7.59,-3.74,-7.60,6.00,5.96,6.17,2.27,2.26,3.86
27.23,-3.65,-7.51,-3.65,-7.51,6.00,5.95,6.30,2.35,2.35,3.86
27.50,-3.57,-7.42,-3.57,-7.42,6.00,5.95,6.43,2.43,2.43,3.85
27.77,-3.50,-7.35,-3.50,-7.35,6.00,5.94,6.55,2.50,2.50,3.85
28.05,-3.44,-7.30,-3.45,-7.31,6.00,5.94,6.66,2.56,2.55,3.86
28.33,-3.43,-7.29,-3.43,-7.29,6.00,5.94,6.78,2.57,2.57,3.86
28.62,-3.43,-7.29,-3.42,-7.28,6.00,5.93,6.88,2.57,2.58,3.86
28.90,-3.42,-7.28,-3.43,-7.29,6.00,5.93,6.98,2.58,2.57,3.86
29.19,-3.44,-7.30,-3.44,-7.30,6.00,5.93,7.07,2.56,2.56,3.86
29.48,-3.46,-7.32,-3.47,-7.33,6.00,5.93,7.16,2.54,2.53,3.86
29.78,-3.48,-7.34,-3.48,-7.33,6.00,5.93,7.23,2.52,2.52,3.86
30.08,-3.46,-7.31,-3.42,-7.27,6.00,5.93,7.29,2.54,2.58,3.84
30.38,-3.29,-7.14,-3.28,-7.13,6.00,5.92,7.35,2.71,2.72,3.84
30.68,-3.13,-6.97,-3.13,-6.97,6.00,5.92,7.39,2.87,2.87,3.84
30.99,-2.97,-6.80,-3.03,-6.87,6.00,5.93,7.43,3.03,2.97,3.83
31.30,-3.03,-6.86,-3.03,-6.86,6.00,5.93,7.45,2.97,2.97,3.83
31.61,-3.10,-6.92,-3.09,-6.91,6.00,5.93,7.46,2.90,2.91,3.82
31.93,-3.17,-6.99,-3.14,-6.95,6.00,5.93,7.46,2.83,2.86,3.82
32.24,-3.13,-6.94,-3.12,-6.93,6.00,5.93,7.45,2.87,2.88,3.81
32.57,-3.06,-6.86,-3.06,-6.86,6.00,5.93,7.43,2.94,2.94,3.79
32.89,-2.98,-6.77,-3.00,-6.79,6.00,5.94,7.40,3.02,3.00,3.79
33.22,-2.96,-6.75,-2.97,-6.75,6.00,5.94,7.37,3.04,3.03,3.79
33.55,-2.96,-6.74,-2.96,-6.74,6.00,5.94,7.32,3.04,3.04,3.78
33.89,-2.96,-6.73,-2.95,-6.72,6.00,5.95,7.27,3.04,3.05,3.77
34.23,-2.92,-6.69,-2.92,-6.68,6.00,5.95,7.21,3.08,3.08,3.77
34.57,-2.87,-6.62,-2.87,-6.63,6.00,5.96,7.14,3.13,3.13,3.75
34.92,-2.81,-6.56,-2.82,-6.57,6.00,5.96,7.07,3.19,3.18,3.75
35.27,-2.78,-6.53,-2.78,-6.53,6.00,5.96,7.00,3.22,3.22,3.75
35.62,-2.76,-6.51,-2.76,-6.50,6.00,5.97,6.92,3.24,3.24,3.75
35.97,-2.74,-6.48,-2.75,-6.49,6.00,5.97,6.84,3.26,3.25,3.74
36.33,-2.74,-6.47,-2.75,-6.48,6.00,5.98,6.75,3.26,3.25,3.73
36.70,-2.74,-6.47,-2.74,-6.47,6.00,5.98,6.67,3.26,3.26,3.73
37.06,-2.73,-6.46,-2.70,-6.43,6.00,5.99,6.59,3.27,3.30,3.73
37.43,-2.64,-6.37,-2.64,-6.37,6.00,6.00,6.50,3.36,3.36,3.73
37.81,-2.55,-6.29,-2.57,-6.30,6.00,6.00,6.42,3.45,3.43,3.74
38.19,-2.51,-6.24,-2.53,-6.26,6.00,6.00,6.34,3.49,3.47,3.73
38.57,-2.51,-6.24,-2.51,-6.24,6.00,6.01,6.26,3.49,3.49,3.73
38.95,-2.51,-6.24,-2.48,-6.21,6.00,6.01,6.18,3.49,3.52,3.73
39.34,-2.43,-6.15,-2.42,-6.15,6.00,6.02,6.10,3.57,3.58,3.72
39.74,-2.34,-6.06,-2.35,-6.07,6.00,6.02,6.03,3.66,3.64,3.72
40.14,-2.28,-6.00,-2.30,-6.02,6.00,6.02,5.96,3.71,3.70,3.72
40.54,-2.28,-5.99,-2.27,-5.99,5.99,6.03,5.89,3.71,3.72,3.71
40.94,-2.28,-5.99,-2.27,-5.98,5.98,6.03,5.83,3.70,3.71,3.71
41.35,-2.28,-5.98,-2.28,-5.98,5.97,6.03,5.77,3.69,3.69,3.70
41.76,-2.28,-5.96,-2.28,-5.96,5.96,6.03,5.71,3.68,3.68,3.68
42.18,-2.28,-5.95,-2.28,-5.95,5.95,6.03,5.66,3.67,3.67,3.67
42.60,-2.28,-5.94,-2.28,-5.94,5.93,6.03,5.61,3.65,3.65,3.66
43.03,-2.28,-5.92,-2.28,-5.92,5.91,6.03,5.56,3.63,3.63,3.64
43.46,-2.28,-5.90,-2.28,-5.90,5.89,6.03,5.52,3.61,3.61,3.62
43.90,-2.28,-5.88,-2.28,-5.88,5.87,6.03,5.49,3.59,3.59,3.60
44.33,-2.28,-5.87,-2.28,-5.87,5.86,6.02,5.46,3.58,3.58,3.59
44.78,-2.28,-5.85,-2.28,-5.85,5.86,6.02,5.43,3.58,3.58,3.57
45.23,-2.28,-5.84,-2.27,-5.83,5.87,6.01,5.41,3.59,3.60,3.56
45.68,-2.28,-5.82,-2.29,-5.83,5.88,6.00,5.39,3.60,3.59,3.54
46.13,-2.31,-5.85,-2.34,-5.88,5.90,5.99,5.37,3.59,3.56,3.54
46.60,-2.42,-5.95,-2.41,-5.94,5.92,5.99,5.36,3.50,3.51,3.53
47.06,-2.51,-6.04,-2.48,-6.00,5.95,5.97,5.35,3.44,3.47,3.53
47.53,-2.53,-6.05,-2.53,-6.05,5.97,5.96,5.35,3.44,3.44,3.52
48.01,-2.55,-6.07,-2.58,-6.11,5.99,5.95,5.35,3.44,3.41,3.52
48.49,-2.64,-6.17,-2.64,-6.17,6.00,5.93,5.35,3.37,3.36,3.53
48.97,-2.73,-6.26,-2.71,-6.24,6.02,5.92,5.36,3.29,3.30,3.53
49.46,-2.74,-6.27,-2.75,-6.28,6.02,5.90,5.37,3.28,3.27,3.53
49.96,-2.74,-6.27,-2.71,-6.25,6.02,5.88,5.38,3.28,3.31,3.53
50.46,-2.63,-6.18,-2.63,-6.18,6.01,5.86,5.40,3.38,3.38,3.55
50.96,-2.52,-6.07,-2.57,-6.12,5.99,5.84,5.41,3.47,3.42,3.55
51.47,-2.51,-6.06,-2.51,-6.06,5.97,5.82,5.43,3.46,3.46,3.55
51.99,-2.51,-6.05,-2.45,-6.00,5.94,5.79,5.45,3.43,3.49,3.54
52.51,-2.39,-5.93,-2.39,-5.93,5.91,5.77,5.48,3.52,3.52,3.53
53.03,-2.28,-5.80,-2.32,-5.85,5.88,5.74,5.50,3.60,3.55,3.52
53.56,-2.28,-5.80,-2.27,-5.79,5.84,5.71,5.52,3.56,3.57,3.52
54.10,-2.28,-5.79,-2.27,-5.77,5.80,5.68,5.55,3.52,3.53,3.51
54.64,-2.28,-5.77,-2.28,-5.77,5.77,5.65,5.57,3.49,3.49,3.49
55.18,-2.28,-5.75,-2.28,-5.75,5.74,5.62,5.59,3.46,3.46,3.47
55.74,-2.28,-5.72,-2.28,-5.72,5.71,5.58,5.62,3.43,3.43,3.44
56.29,-2.28,-5.69,-2.28,-5.70,5.69,5.55,5.64,3.41,3.41,3.41
56.86,-2.28,-5.67,-2.28,-5.67,5.67,5.51,5.65,3.39,3.39,3.39
57.42,-2.28,-5.64,-2.28,-5.64,5.65,5.48,5.67,3.37,3.37,3.36
58.00,-2.28,-5.61,-2.28,-5.61,5.62,5.44,5.68,3.34,3.34,3.33
58.58,-2.28,-5.57,-2.28,-5.57,5.59,5.40,5.69,3.31,3.31,3.29
59.16,-2.28,-5.54,-2.28,-5.54,5.55,5.36,5.69,3.27,3.27,3.26
59.76,-2.28,-5.51,-2.29,-5.52,5.50,5.32,5.69,3.22,3.21,3.23
60.35,-2.28,-5.47,-2.28,-5.48,5.44,5.27,5.68,3.16,3.16,3.19
60.96,-2.28,-5.44,-2.23,-5.39,5.37,5.23,5.67,3.09,3.14,3.16
61.57,-2.15,-5.28,-2.17,-5.30,5.29,5.19,5.66,3.14,3.12,3.13
62.18,-2.05,-5.15,-2.10,-5.20,5.19,5.14,5.64,3.14,3.09,3.10
62.80,-2.05,-5.11,-2.01,-5.07,5.07,5.10,5.61,3.02,3.07,3.06
63.43,-1.95,-4.98,-1.94,-4.96,4.95,5.05,5.57,3.01,3.02,3.03
64.07,-1.82,-4.81,-1.86,-4.85,4.84,5.01,5.54,3.02,2.97,2.99
64.71,-1.78,-4.73,-1.76,-4.71,4.73,4.96,5.49,2.95,2.97,2.95
65.35,-1.71,-4.62,-1.69,-4.60,4.63,4.91,5.44,2.92,2.95,2.91
66.01,-1.60,-4.49,-1.64,-4.52,4.55,4.87,5.39,2.95,2.91,2.89
66.67,-1.60,-4.46,-1.60,-4.46,4.49,4.82,5.33,2.89,2.89,2.86
67.33,-1.60,-4.44,-1.59,-4.42,4.44,4.77,5.26,2.84,2.85,2.84
68.01,-1.60,-4.41,-1.60,-4.41,4.40,4.72,5.19,2.80,2.80,2.81
68.69,-1.60,-4.39,-1.60,-4.39,4.36,4.67,5.12,2.76,2.76,2.79
69.37,-1.60,-4.37,-1.60,-4.37,4.34,4.63,5.05,2.74,2.74,2.77
70.07,-1.60,-4.36,-1.60,-4.36,4.33,4.58,4.97,2.73,2.73,2.76
70.77,-1.60,-4.35,-1.60,-4.35,4.34,4.53,4.89,2.74,2.74,2.75
71.48,-1.60,-4.34,-1.59,-4.32,4.36,4.48,4.80,2.76,2.78,2.74
72.19,-1.60,-4.32,-1.59,-4.32,4.40,4.44,4.72,2.80,2.81,2.72
72.91,-1.60,-4.32,-1.64,-4.36,4.44,4.39,4.64,2.84,2.80,2.72
73.64,-1.74,-4.45,-1.74,-4.45,4.49,4.34,4.55,2.75,2.74,2.70
74.38,-1.88,-4.57,-1.88,-4.57,4.52,4.30,4.46,2.64,2.65,2.69
75.12,-2.00,-4.67,-1.98,-4.65,4.55,4.25,4.38,2.55,2.56,2.67
75.87,-2.04,-4.69,-2.00,-4.65,4.56,4.21,4.29,2.52,2.56,2.65
76.63,-1.94,-4.57,-1.95,-4.58,4.55,4.16,4.21,2.61,2.59,2.63
77.40,-1.85,-4.46,-1.89,-4.50,4.51,4.12,4.12,2.66,2.61,2.61
78.17,-1.82,-4.41,-1.82,-4.41,4.44,4.07,4.04,2.62,2.62,2.59
78.95,-1.82,-4.38,-1.76,-4.33,4.35,4.03,3.96,2.53,2.60,2.56
79.74,-1.66,-4.20,-1.69,-4.24,4.25,3.99,3.88,2.59,2.56,2.54
80.54,-1.60,-4.12,-1.64,-4.16,4.15,3.95,3.80,2.55,2.51,2.52
81.35,-1.59,-4.09,-1.56,-4.06,4.07,3.91,3.72,2.48,2.51,2.50
82.16,-1.55,-4.03,-1.50,-3.98,3.99,3.87,3.65,2.44,2.50,2.48
82.98,-1.37,-3.83,-1.43,-3.89,3.93,3.83,3.57,2.56,2.50,2.46
83.81,-1.37,-3.82,-1.37,-3.82,3.87,3.79,3.50,2.50,2.49,2.45
84.65,-1.37,-3.80,-1.36,-3.79,3.80,3.75,3.43,2.43,2.44,2.43
85.50,-1.37,-3.78,-1.38,-3.80,3.74,3.71,3.37,2.37,2.35,2.41
86.35,-1.37,-3.77,-1.34,-3.74,3.69,3.67,3.30,2.32,2.34,2.40
87.22,-1.32,-3.70,-1.28,-3.66,3.64,3.64,3.24,2.32,2.36,2.38
88.09,-1.14,-3.51,-1.20,-3.57,3.60,3.60,3.18,2.46,2.40,2.37
88.97,-1.14,-3.49,-1.14,-3.49,3.55,3.56,3.13,2.41,2.41,2.35
89.86,-1.14,-3.47,-1.12,-3.45,3.50,3.53,3.07,2.36,2.38,2.33
90.76,-1.14,-3.45,-1.15,-3.46,3.44,3.49,3.02,2.30,2.29,2.31
91.66,-1.14,-3.44,-1.15,-3.44,3.38,3.45,2.97,2.24,2.24,2.30
92.58,-1.14,-3.42,-1.10,-3.38,3.33,3.42,2.92,2.19,2.22,2.28
93.51,-1.04,-3.30,-1.04,-3.30,3.28,3.38,2.88,2.24,2.24,2.26
94.44,-0.93,-3.17,-0.96,-3.21,3.23,3.34,2.84,2.30,2.27,2.24
95.39,-0.91,-3.14,-0.91,-3.14,3.19,3.30,2.80,2.28,2.28,2.23
96.34,-0.91,-3.12,-0.90,-3.11,3.14,3.26,2.76,2.23,2.24,2.21
97.30,-0.91,-3.10,-0.91,-3.10,3.10,3.22,2.72,2.19,2.19,2.19
98.28,-0.91,-3.08,-0.91,-3.08,3.07,3.17,2.69,2.16,2.16,2.17
99.26,-0.91,-3.06,-0.91,-3.06,3.05,3.13,2.65,2.14,2.14,2.15
100.25,-0.91,-3.03,-0.91,-3.04,3.03,3.09,2.62,2.12,2.12,2.12
101.25,-0.91,-3.01,-0.91,-3.01,3.01,3.04,2.59,2.10,2.10,2.10
102.27,-0.91,-2.98,-0.91,-2.98,2.98,2.99,2.56,2.07,2.07,2.07
103.29,-0.91,-2.95,-0.91,-2.95,2.95,2.94,2.54,2.04,2.04,2.04
104.32,-0.91,-2.92,-0.91,-2.92,2.91,2.89,2.51,2.00,2.00,2.01
105.37,-0.91,-2.88,-0.91,-2.88,2.87,2.84,2.49,1.96,1.96,1.97
106.42,-0.91,-2.84,-0.91,-2.83,2.83,2.79,2.47,1.92,1.92,1.93
107.48,-0.91,-2.79,-0.91,-2.78,2.78,2.74,2.44,1.87,1.87,1.88
108.56,-0.91,-2.73,-0.91,-2.73,2.73,2.69,2.42,1.82,1.82,1.82
109.64,-0.91,-2.68,-0.91,-2.68,2.69,2.64,2.40,1.78,1.78,1.77
110.74,-0.91,-2.63,-0.91,-2.63,2.64,2.59,2.38,1.73,1.73,1.72
111.85,-0.91,-2.58,-0.91,-2.58,2.59,2.53,2.36,1.68,1.68,1.67
112.97,-0.91,-2.52,-0.91,-2.53,2.54,2.48,2.34,1.63,1.63,1.61
114.10,-0.91,-2.47,-0.91,-2.47,2.47,2.43,2.32,1.56,1.56,1.56
115.24,-0.91,-2.43,-0.92,-2.44,2.40,2.38,2.30,1.49,1.47,1.52
116.39,-0.91,-2.38,-0.90,-2.37,2.32,2.33,2.28,1.41,1.42,1.47
117.55,-0.90,-2.32,-0.85,-2.27,2.24,2.28,2.26,1.34,1.40,1.42
118.73,-0.74,-2.12,-0.77,-2.16,2.17,2.23,2.24,1.43,1.39,1.38
119.92,-0.68,-2.03,-0.71,-2.05,2.10,2.19,2.21,1.42,1.39,1.34
121.12,-0.68,-1.99,-0.67,-1.98,2.03,2.14,2.19,1.35,1.36,1.31
122.33,-0.68,-1.95,-0.67,-1.95,1.97,2.09,2.17,1.29,1.29,1.27
123.55,-0.68,-1.93,-0.68,-1.92,1.92,2.05,2.14,1.24,1.24,1.25
124.79,-0.68,-1.89,-0.68,-1.89,1.88,2.00,2.12,1.20,1.20,1.21
126.03,-0.68,-1.87,-0.68,-1.87,1.85,1.96,2.09,1.17,1.17,1.19
127.29,-0.68,-1.84,-0.68,-1.84,1.83,1.92,2.06,1.15,1.15,1.16
128.57,-0.68,-1.81,-0.68,-1.81,1.81,1.88,2.03,1.13,1.13,1.13
129.85,-0.68,-1.78,-0.68,-1.78,1.78,1.84,2.01,1.10,1.10,1.10
131.15,-0.68,-1.76,-0.68,-1.76,1.76,1.80,1.97,1.08,1.08,1.08
132.46,-0.68,-1.73,-0.68,-1.73,1.73,1.76,1.94,1.05,1.05,1.05
133.79,-0.68,-1.70,-0.68,-1.70,1.70,1.72,1.91,1.02,1.02,1.02
135.12,-0.68,-1.67,-0.68,-1.67,1.67,1.68,1.88,0.99,0.99,0.99
136.48,-0.68,-1.64,-0.68,-1.64,1.65,1.65,1.84,0.97,0.97,0.96
137.84,-0.68,-1.61,-0.68,-1.62,1.62,1.61,1.81,0.94,0.94,0.93
139.22,-0.68,-1.59,-0.68,-1.59,1.59,1.58,1.77,0.91,0.91,0.91
140.61,-0.68,-1.56,-0.68,-1.56,1.56,1.55,1.74,0.88,0.88,0.88
142.02,-0.68,-1.54,-0.68,-1.54,1.54,1.51,1.70,0.86,0.86,0.86
143.44,-0.68,-1.51,-0.68,-1.51,1.51,1.48,1.67,0.83,0.83,0.83
144.87,-0.68,-1.48,-0.68,-1.48,1.48,1.45,1.63,0.80,0.80,0.80
146.32,-0.68,-1.44,-0.68,-1.45,1.44,1.42,1.59,0.76,0.76,0.76
147.78,-0.68,-1.41,-0.68,-1.41,1.41,1.39,1.56,0.73,0.73,0.73
149.26,-0.68,-1.37,-0.68,-1.37,1.37,1.36,1.52,0.69,0.69,0.69
150.75,-0.68,-1.33,-0.68,-1.33,1.32,1.33,1.49,0.64,0.64,0.65
152.26,-0.68,-1.28,-0.68,-1.28,1.27,1.31,1.45,0.59,0.59,0.60
153.78,-0.68,-1.23,-0.68,-1.23,1.23,1.28,1.41,0.55,0.55,0.55
155.32,-0.68,-1.18,-0.68,-1.18,1.18,1.25,1.38,0.50,0.50,0.50
156.88,-0.68,-1.12,-0.68,-1.13,1.14,1.23,1.34,0.46,0.46,0.44
158.44,-0.68,-1.08,-0.68,-1.08,1.10,1.20,1.31,0.42,0.42,0.40
160.03,-0.68,-1.04,-0.68,-1.04,1.05,1.18,1.28,0.37,0.37,0.36
161.63,-0.68,-1.00,-0.68,-1.00,0.99,1.15,1.24,0.31,0.31,0.32
163.24,-0.68,-0.97,-0.69,-0.98,0.94,1.13,1.21,0.26,0.25,0.29
164.88,-0.68,-0.94,-0.67,-0.93,0.88,1.11,1.18,0.20,0.22,0.26
166.53,-0.64,-0.88,-0.61,-0.85,0.83,1.08,1.15,0.19,0.22,0.24
168.19,-0.53,-0.75,-0.55,-0.77,0.78,1.06,1.11,0.25,0.24,0.22
169.87,-0.46,-0.67,-0.48,-0.70,0.74,1.04,1.08,0.28,0.26,0.21
171.57,-0.46,-0.68,-0.45,-0.67,0.71,1.02,1.05,0.25,0.26,0.22
173.29,-0.46,-0.68,-0.45,-0.67,0.69,1.00,1.03,0.23,0.24,0.22
175.02,-0.46,-0.68,-0.46,-0.68,0.68,0.98,1.00,0.22,0.22,0.22
176.77,-0.46,-0.70,-0.46,-0.69,0.68,0.96,0.97,0.22,0.22,0.24
178.54,-0.46,-0.71,-0.46,-0.71,0.70,0.94,0.94,0.24,0.24,0.25
180.32,-0.46,-0.72,-0.46,-0.73,0.71,0.92,0.92,0.25,0.25,0.26
182.13,-0.46,-0.74,-0.46,-0.74,0.73,0.90,0.89,0.27,0.27,0.28
183.95,-0.46,-0.75,-0.46,-0.75,0.74,0.89,0.87,0.28,0.28,0.29
185.79,-0.46,-0.75,-0.46,-0.75,0.75,0.87,0.84,0.29,0.29,0.29
187.65,-0.46,-0.76,-0.46,-0.76,0.75,0.85,0.82,0.29,0.29,0.30
189.52,-0.46,-0.76,-0.46,-0.76,0.75,0.83,0.80,0.29,0.29,0.30
191.42,-0.46,-0.75,-0.46,-0.75,0.75,0.82,0.77,0.29,0.29,0.29
193.33,-0.46,-0.74,-0.46,-0.75,0.75,0.80,0.75,0.29,0.29,0.28
195.27,-0.46,-0.74,-0.46,-0.74,0.74,0.79,0.73,0.28,0.28,0.28
197.22,-0.46,-0.74,-0.46,-0.73,0.74,0.77,0.71,0.28,0.28,0.28
199.19,-0.46,-0.73,-0.46,-0.73,0.73,0.75,0.69,0.27,0.27,0.27
201.18,-0.46,-0.72,-0.46,-0.72,0.72,0.74,0.67,0.26,0.26,0.26
203.19,-0.46,-0.71,-0.46,-0.71,0.70,0.73,0.65,0.24,0.24,0.25
205.23,-0.46,-0.70,-0.46,-0.69,0.69,0.71,0.63,0.23,0.23,0.24
207.28,-0.46,-0.68,-0.46,-0.68,0.68,0.70,0.62,0.22,0.22,0.22
209.35,-0.46,-0.66,-0.46,-0.66,0.66,0.68,0.60,0.20,0.20,0.20
211.44,-0.46,-0.65,-0.46,-0.65,0.65,0.67,0.58,0.19,0.19,0.19
213.56,-0.46,-0.63,-0.46,-0.63,0.63,0.66,0.57,0.17,0.17,0.17
215.69,-0.46,-0.62,-0.46,-0.62,0.62,0.65,0.55,0.16,0.16,0.16
217.85,-0.46,-0.60,-0.46,-0.61,0.61,0.63,0.53,0.15,0.15,0.14
220.03,-0.46,-0.60,-0.46,-0.59,0.59,0.62,0.52,0.13,0.13,0.14
222.23,-0.46,-0.58,-0.46,-0.58,0.58,0.61,0.51,0.12,0.12,0.12
224.45,-0.46,-0.57,-0.46,-0.57,0.57,0.60,0.49,0.11,0.11,0.11
226.70,-0.46,-0.55,-0.46,-0.56,0.56,0.59,0.48,0.10,0.10,0.09
228.96,-0.46,-0.55,-0.46,-0.55,0.55,0.57,0.47,0.09,0.09,0.09
231.25,-0.46,-0.53,-0.46,-0.54,0.54,0.56,0.46,0.08,0.08,0.07
233.57,-0.46,-0.53,-0.46,-0.53,0.53,0.55,0.44,0.07,0.07,0.07
235.90,-0.46,-0.52,-0.46,-0.52,0.52,0.54,0.43,0.06,0.06,0.06
238.26,-0.46,-0.50,-0.46,-0.51,0.51,0.53,0.42,0.05,0.05,0.04
240.64,-0.46,-0.50,-0.46,-0.50,0.50,0.52,0.41,0.04,0.04,0.04
243.05,-0.46,-0.49,-0.46,-0.49,0.49,0.51,0.40,0.03,0.03,0.03
245.48,-0.46,-0.49,-0.46,-0.49,0.49,0.50,0.39,0.03,0.03,0.03
247.93,-0.46,-0.48,-0.46,-0.48,0.48,0.49,0.39,0.02,0.02,0.02
250.41,-0.46,-0.48,-0.46,-0.48,0.48,0.48,0.38,0.02,0.02,0.02
252.92,-0.46,-0.47,-0.46,-0.47,0.47,0.48,0.37,0.01,0.01,0.01
255.45,-0.46,-0.47,-0.46,-0.47,0.47,0.47,0.36,0.01,0.01,0.01
258.00,-0.46,-0.46,-0.46,-0.46,0.46,0.46,0.36,0.00,0.00,0.00
260.58,-0.46,-0.46,-0.46,-0.46,0.46,0.45,0.35,-0.00,-0.00,0.00
263.19,-0.46,-0.45,-0.46,-0.45,0.45,0.44,0.35,-0.01,-0.01,-0.01
265.82,-0.46,-0.44,-0.46,-0.44,0.44,0.43,0.34,-0.02,-0.02,-0.02
268.48,-0.46,-0.44,-0.46,-0.44,0.44,0.43,0.34,-0.02,-0.02,-0.02
271.16,-0.46,-0.43,-0.46,-0.43,0.43,0.42,0.33,-0.03,-0.03,-0.03
273.87,-0.46,-0.42,-0.46,-0.42,0.42,0.41,0.33,-0.04,-0.04,-0.04
276.61,-0.46,-0.42,-0.46,-0.41,0.42,0.40,0.32,-0.04,-0.04,-0.04
279.38,-0.46,-0.41,-0.46,-0.41,0.41,0.40,0.32,-0.05,-0.05,-0.05
282.17,-0.46,-0.40,-0.46,-0.40,0.41,0.39,0.32,-0.05,-0.05,-0.06
284.99,-0.46,-0.40,-0.46,-0.40,0.40,0.38,0.32,-0.06,-0.06,-0.06
287.84,-0.46,-0.40,-0.46,-0.40,0.40,0.38,0.31,-0.06,-0.06,-0.06
290.72,-0.46,-0.39,-0.46,-0.39,0.39,0.37,0.31,-0.07,-0.07,-0.07
293.63,-0.46,-0.39,-0.46,-0.39,0.39,0.37,0.31,-0.07,-0.07,-0.07
296.57,-0.46,-0.39,-0.46,-0.39,0.39,0.36,0.31,-0.07,-0.07,-0.07
299.53,-0.46,-0.39,-0.46,-0.38,0.38,0.35,0.31,-0.08,-0.08,-0.07
302.53,-0.46,-0.37,-0.46,-0.38,0.38,0.35,0.31,-0.08,-0.08,-0.09
305.55,-0.46,-0.37,-0.46,-0.37,0.37,0.34,0.31,-0.09,-0.09,-0.09
308.61,-0.46,-0.37,-0.46,-0.37,0.36,0.34,0.31,-0.10,-0.10,-0.09
311.69,-0.46,-0.36,-0.46,-0.36,0.35,0.33,0.31,-0.11,-0.11,-0.10
314.81,-0.46,-0.35,-0.46,-0.35,0.34,0.33,0.31,-0.12,-0.12,-0.11
317.96,-0.46,-0.33,-0.46,-0.33,0.33,0.32,0.31,-0.13,-0.13,-0.13
321.14,-0.46,-0.31,-0.46,-0.32,0.32,0.32,0.31,-0.14,-0.14,-0.15
324.35,-0.46,-0.30,-0.46,-0.30,0.30,0.31,0.32,-0.16,-0.16,-0.16
327.59,-0.46,-0.29,-0.46,-0.29,0.29,0.31,0.32,-0.17,-0.17,-0.17
330.87,-0.46,-0.28,-0.46,-0.28,0.28,0.31,0.32,-0.18,-0.18,-0.18
334.18,-0.46,-0.27,-0.46,-0.27,0.27,0.30,0.32,-0.19,-0.19,-0.19
337.52,-0.46,-0.25,-0.46,-0.26,0.26,0.30,0.32,-0.20,-0.20,-0.21
340.90,-0.46,-0.25,-0.46,-0.25,0.25,0.30,0.33,-0.21,-0.21,-0.21
344.30,-0.46,-0.24,-0.46,-0.24,0.25,0.29,0.33,-0.21,-0.21,-0.22
347.75,-0.46,-0.24,-0.46,-0.24,0.24,0.29,0.33,-0.22,-0.22,-0.22
351.23,-0.46,-0.24,-0.46,-0.24,0.24,0.29,0.34,-0.22,-0.22,-0.22
354.74,-0.46,-0.24,-0.46,-0.24,0.24,0.29,0.34,-0.22,-0.22,-0.22
358.28,-0.46,-0.24,-0.46,-0.24,0.24,0.28,0.34,-0.22,-0.22,-0.22
361.87,-0.46,-0.25,-0.46,-0.24,0.24,0.28,0.35,-0.22,-0.22,-0.21
365.49,-0.46,-0.24,-0.46,-0.24,0.24,0.28,0.35,-0.22,-0.22,-0.22
369.14,-0.46,-0.24,-0.46,-0.25,0.24,0.28,0.36,-0.22,-0.22,-0.22
372.83,-0.46,-0.24,-0.46,-0.25,0.25,0.28,0.36,-0.21,-0.21,-0.22
376.56,-0.46,-0.25,-0.46,-0.25,0.25,0.28,0.37,-0.21,-0.21,-0.21
380.33,-0.46,-0.25,-0.46,-0.25,0.25,0.28,0.37,-0.21,-0.21,-0.21
384.13,-0.46,-0.25,-0.46,-0.25,0.25,0.28,0.38,-0.21,-0.21,-0.21
387.97,-0.46,-0.25,-0.46,-0.25,0.25,0.28,0.38,-0.21,-0.21,-0.21
391.85,-0.46,-0.25,-0.46,-0.25,0.25,0.29,0.39,-0.21,-0.21,-0.21
395.77,-0.46,-0.25,-0.46,-0.25,0.25,0.29,0.39,-0.21,-0.21,-0.21
399.73,-0.46,-0.26,-0.46,-0.25,0.25,0.29,0.40,-0.21,-0.21,-0.20
403.72,-0.46,-0.26,-0.46,-0.26,0.25,0.30,0.41,-0.21,-0.21,-0.20
407.76,-0.46,-0.26,-0.46,-0.26,0.25,0.30,0.41,-0.21,-0.21,-0.20
411.84,-0.46,-0.25,-0.46,-0.25,0.25,0.31,0.42,-0.21,-0.21,-0.21
415.96,-0.46,-0.25,-0.46,-0.25,0.24,0.31,0.42,-0.22,-0.22,-0.21
420.12,-0.46,-0.25,-0.46,-0.25,0.24,0.32,0.43,-0.22,-0.22,-0.21
424.32,-0.46,-0.25,-0.46,-0.25,0.24,0.33,0.43,-0.22,-0.22,-0.21
428.56,-0.46,-0.25,-0.46,-0.25,0.25,0.34,0.44,-0.21,-0.21,-0.21
432.85,-0.46,-0.25,-0.44,-0.24,0.27,0.36,0.44,-0.19,-0.18,-0.21
437.18,-0.46,-0.25,-0.46,-0.25,0.29,0.37,0.45,-0.17,-0.18,-0.21
441.55,-0.46,-0.24,-0.52,-0.30,0.32,0.39,0.45,-0.14,-0.20,-0.22
445.96,-0.62,-0.40,-0.59,-0.37,0.36,0.40,0.46,-0.26,-0.23,-0.22
450.42,-0.68,-0.46,-0.64,-0.42,0.41,0.43,0.46,-0.27,-0.24,-0.22
454.93,-0.68,-0.46,-0.69,-0.46,0.46,0.45,0.47,-0.22,-0.23,-0.22
459.48,-0.68,-0.45,-0.72,-0.50,0.52,0.48,0.47,-0.16,-0.20,-0.23
464.07,-0.78,-0.56,-0.78,-0.56,0.57,0.50,0.47,-0.21,-0.21,-0.22
468.71,-0.88,-0.66,-0.85,-0.63,0.61,0.54,0.47,-0.27,-0.24,-0.22
473.40,-0.91,-0.69,-0.90,-0.68,0.65,0.57,0.47,-0.26,-0.26,-0.22
478.13,-0.91,-0.69,-0.92,-0.70,0.67,0.60,0.48,-0.24,-0.24,-0.22
482.91,-0.91,-0.70,-0.91,-0.70,0.70,0.63,0.48,-0.21,-0.21,-0.21
487.74,-0.91,-0.70,-0.91,-0.70,0.72,0.66,0.47,-0.19,-0.19,-0.21
492.62,-0.91,-0.71,-0.91,-0.70,0.73,0.69,0.47,-0.18,-0.18,-0.20
497.55,-0.91,-0.71,-0.91,-0.71,0.73,0.70,0.47,-0.18,-0.18,-0.20
502.52,-0.91,-0.72,-0.91,-0.72,0.71,0.71,0.47,-0.20,-0.20,-0.19
