frequency,raw,error,smoothed,error_smoothed,equalization,parametric_eq,fixed_band_eq,equalized_raw,equalized_smoothed,target
20.00,-2.51,-2.83,-2.51,-2.83,2.85,0.10,-0.02,0.34,0.34,0.32
20.20,-2.42,-2.74,-2.42,-2.74,2.74,0.10,-0.02,0.32,0.33,0.32
20.40,-2.32,-2.64,-2.32,-2.65,2.64,0.09,-0.02,0.32,0.32,0.32
20.61,-2.23,-2.56,-2.23,-2.56,2.54,0.09,-0.02,0.31,0.32,0.33
20.81,-2.13,-2.46,-2.13,-2.46,2.45,0.08,-0.02,0.32,0.32,0.33
21.02,-2.04,-2.37,-2.04,-2.37,2.36,0.08,-0.02,0.32,0.32,0.33
21.23,-1.94,-2.27,-1.94,-2.27,2.27,0.07,-0.02,0.33,0.33,0.33
21.44,-1.85,-2.19,-1.85,-2.18,2.18,0.07,-0.01,0.33,0.33,0.34
21.66,-1.75,-2.09,-1.75,-2.09,2.09,0.06,-0.01,0.34,0.35,0.34
21.87,-1.66,-2.00,-1.66,-2.00,2.01,0.05,-0.01,0.36,0.36,0.34
22.09,-1.57,-1.91,-1.58,-1.92,1.94,0.05,-0.01,0.37,0.36,0.34
22.31,-1.51,-1.86,-1.51,-1.85,1.86,0.04,-0.01,0.36,0.36,0.35
22.54,-1.45,-1.79,-1.45,-1.79,1.79,0.03,-0.01,0.34,0.34,0.34
22.76,-1.39,-1.74,-1.39,-1.73,1.72,0.03,-0.01,0.33,0.33,0.35
22.99,-1.32,-1.67,-1.31,-1.66,1.64,0.02,-0.01,0.32,0.33,0.35
23.22,-1.23,-1.58,-1.23,-1.58,1.56,0.01,-0.00,0.33,0.33,0.35
23.45,-1.13,-1.48,-1.14,-1.48,1.48,0.01,-0.00,0.35,0.34,0.35
23.69,-1.04,-1.39,-1.04,-1.39,1.38,-0.00,-0.00,0.34,0.35,0.35
23.92,-0.94,-1.29,-0.94,-1.29,1.28,-0.01,-0.00,0.35,0.35,0.35
24.16,-0.84,-1.18,-0.84,-1.19,1.18,-0.02,0.00,0.34,0.34,0.34
24.40,-0.74,-1.08,-0.74,-1.08,1.08,-0.02,0.00,0.34,0.34,0.34
24.65,-0.64,-0.98,-0.63,-0.97,0.98,-0.03,0.00,0.34,0.35,0.34
24.89,-0.53,-0.86,-0.54,-0.87,0.88,-0.04,0.00,0.35,0.35,0.33
25.14,-0.45,-0.78,-0.45,-0.78,0.80,-0.05,0.00,0.35,0.34,0.33
25.39,-0.39,-0.71,-0.38,-0.70,0.71,-0.06,0.01,0.33,0.33,0.32
25.65,-0.32,-0.64,-0.32,-0.64,0.64,-0.07,0.01,0.32,0.33,0.32
25.91,-0.25,-0.56,-0.26,-0.57,0.58,-0.08,0.01,0.33,0.32,0.31
26.16,-0.20,-0.51,-0.20,-0.51,0.51,-0.09,0.01,0.31,0.31,0.31
26.43,-0.16,-0.46,-0.16,-0.46,0.45,-0.10,0.01,0.29,0.29,0.30
26.69,-0.11,-0.41,-0.11,-0.41,0.39,-0.11,0.00,0.28,0.27,0.30
26.96,-0.07,-0.37,-0.06,-0.36,0.33,-0.12,0.00,0.26,0.27,0.30
27.23,-0.00,-0.30,0.00,-0.29,0.27,-0.13,0.00,0.27,0.28,0.30
27.50,0.08,-0.21,0.08,-0.21,0.22,-0.14,0.00,0.30,0.30,0.29
27.77,0.15,-0.13,0.15,-0.14,0.18,-0.15,-0.00,0.33,0.33,0.28
28.05,0.21,-0.08,0.20,-0.09,0.14,-0.16,-0.00,0.35,0.33,0.29
28.33,0.22,-0.07,0.22,-0.07,0.10,-0.17,-0.01,0.32,0.31,0.29
28.62,0.22,-0.07,0.22,-0.07,0.06,-0.18,-0.01,0.28,0.28,0.29
28.90,0.23,-0.06,0.24,-0.05,0.02,-0.20,-0.02,0.25,0.26,0.29
29.19,0.27,-0.02,0.28,-0.01,-0.02,-0.21,-0.02,0.25,0.25,0.29
29.48,0.34,0.05,0.34,0.05,-0.07,-0.22,-0.03,0.27,0.27,0.29
29.78,0.41,0.12,0.41,0.12,-0.12,-0.24,-0.04,0.29,0.28,0.29
30.08,0.48,0.20,0.48,0.20,-0.19,-0.25,-0.05,0.29,0.29,0.28
30.38,0.54,0.26,0.54,0.27,-0.27,-0.26,-0.05,0.27,0.28,0.27
30.68,0.61,0.34,0.61,0.34,-0.35,-0.28,-0.06,0.26,0.26,0.27
30.99,0.68,0.42,0.68,0.41,-0.42,-0.30,-0.08,0.26,0.26,0.26
31.30,0.75,0.49,0.75,0.50,-0.49,-0.31,-0.09,0.26,0.27,0.26
31.61,0.82,0.57,0.82,0.57,-0.54,-0.33,-0.10,0.28,0.28,0.25
31.93,0.89,0.64,0.88,0.63,-0.60,-0.35,-0.11,0.29,0.28,0.25
32.24,0.91,0.67,0.90,0.67,-0.65,-0.36,-0.13,0.26,0.25,0.24
32.57,0.91,0.69,0.91,0.68,-0.70,-0.38,-0.15,0.21,0.21,0.22
32.89,0.91,0.69,0.93,0.70,-0.75,-0.40,-0.16,0.16,0.18,0.22
33.22,0.96,0.74,0.97,0.75,-0.79,-0.42,-0.18,0.17,0.18,0.22
33.55,1.04,0.83,1.04,0.83,-0.83,-0.44,-0.20,0.21,0.20,0.21
33.89,1.11,0.91,1.10,0.90,-0.87,-0.46,-0.22,0.24,0.23,0.20
34.23,1.14,0.94,1.13,0.94,-0.90,-0.48,-0.24,0.24,0.23,0.20
34.57,1.14,0.96,1.15,0.96,-0.93,-0.51,-0.26,0.21,0.22,0.18
34.92,1.14,0.96,1.14,0.96,-0.95,-0.53,-0.29,0.19,0.19,0.18
35.27,1.14,0.96,1.14,0.96,-0.96,-0.56,-0.31,0.18,0.17,0.18
35.62,1.14,0.96,1.14,0.97,-0.98,-0.58,-0.33,0.16,0.16,0.18
35.97,1.14,0.98,1.14,0.97,-0.99,-0.61,-0.36,0.15,0.15,0.16
36.33,1.15,0.99,1.14,0.98,-1.01,-0.64,-0.38,0.14,0.14,0.16
36.70,1.16,1.00,1.16,1.00,-1.03,-0.67,-0.41,0.13,0.13,0.16
37.06,1.18,1.02,1.20,1.04,-1.07,-0.70,-0.44,0.11,0.13,0.16
37.43,1.26,1.11,1.26,1.10,-1.10,-0.73,-0.47,0.16,0.16,0.15
37.81,1.33,1.17,1.32,1.16,-1.14,-0.77,-0.50,0.19,0.18,0.16
38.19,1.37,1.21,1.36,1.20,-1.17,-0.80,-0.53,0.20,0.19,0.16
38.57,1.37,1.21,1.37,1.22,-1.19,-0.84,-0.56,0.18,0.18,0.16
38.95,1.37,1.22,1.37,1.22,-1.21,-0.88,-0.59,0.16,0.16,0.15
39.34,1.37,1.22,1.37,1.22,-1.23,-0.92,-0.62,0.14,0.14,0.15
39.74,1.37,1.22,1.37,1.22,-1.23,-0.96,-0.65,0.14,0.14,0.15
40.14,1.37,1.23,1.37,1.23,-1.23,-1.00,-0.69,0.14,0.14,0.14
40.54,1.37,1.23,1.37,1.23,-1.23,-1.05,-0.72,0.14,0.14,0.14
40.94,1.37,1.23,1.37,1.24,-1.23,-1.10,-0.76,0.14,0.14,0.14
41.35,1.37,1.25,1.37,1.25,-1.24,-1.14,-0.79,0.13,0.13,0.12
41.76,1.37,1.26,1.37,1.26,-1.26,-1.19,-0.83,0.11,0.11,0.11
42.18,1.37,1.28,1.36,1.27,-1.30,-1.24,-0.87,0.07,0.06,0.09
42.60,1.37,1.29,1.37,1.29,-1.34,-1.29,-0.90,0.03,0.03,0.08
43.03,1.38,1.32,1.41,1.35,-1.39,-1.35,-0.94,-0.01,0.02,0.06
43.46,1.48,1.44,1.48,1.44,-1.44,-1.40,-0.98,0.04,0.04,0.04
43.90,1.58,1.55,1.55,1.52,-1.49,-1.45,-1.02,0.09,0.06,0.02
44.33,1.60,1.59,1.60,1.59,-1.54,-1.49,-1.06,0.06,0.06,0.01
44.78,1.60,1.61,1.61,1.61,-1.58,-1.54,-1.10,0.02,0.03,-0.01
45.23,1.60,1.62,1.60,1.62,-1.62,-1.58,-1.15,-0.02,-0.02,-0.02
45.68,1.60,1.64,1.60,1.63,-1.64,-1.62,-1.19,-0.04,-0.04,-0.04
46.13,1.60,1.64,1.60,1.64,-1.66,-1.66,-1.23,-0.06,-0.06,-0.04
46.60,1.60,1.65,1.60,1.65,-1.66,-1.69,-1.28,-0.06,-0.06,-0.05
47.06,1.60,1.65,1.60,1.65,-1.66,-1.72,-1.32,-0.06,-0.06,-0.05
47.53,1.60,1.66,1.60,1.66,-1.66,-1.74,-1.37,-0.06,-0.06,-0.06
48.01,1.60,1.66,1.60,1.66,-1.66,-1.76,-1.42,-0.06,-0.06,-0.06
48.49,1.60,1.65,1.60,1.66,-1.65,-1.77,-1.46,-0.05,-0.05,-0.05
48.97,1.60,1.65,1.60,1.65,-1.65,-1.77,-1.51,-0.05,-0.05,-0.05
49.46,1.60,1.65,1.60,1.65,-1.65,-1.77,-1.56,-0.05,-0.05,-0.05
49.96,1.60,1.65,1.60,1.64,-1.64,-1.77,-1.61,-0.04,-0.04,-0.05
50.46,1.60,1.63,1.60,1.64,-1.64,-1.77,-1.66,-0.04,-0.04,-0.03
50.96,1.60,1.63,1.60,1.63,-1.64,-1.76,-1.71,-0.04,-0.04,-0.03
51.47,1.60,1.63,1.60,1.63,-1.64,-1.75,-1.76,-0.04,-0.04,-0.03
51.99,1.60,1.64,1.60,1.64,-1.64,-1.74,-1.80,-0.04,-0.04,-0.04
52.51,1.60,1.65,1.60,1.65,-1.65,-1.73,-1.85,-0.05,-0.05,-0.05
53.03,1.60,1.66,1.60,1.66,-1.65,-1.71,-1.90,-0.05,-0.05,-0.06
53.56,1.60,1.67,1.60,1.67,-1.67,-1.70,-1.95,-0.07,-0.07,-0.07
54.10,1.60,1.68,1.60,1.68,-1.68,-1.69,-2.00,-0.08,-0.08,-0.08
54.64,1.60,1.70,1.60,1.70,-1.70,-1.69,-2.04,-0.10,-0.10,-0.10
55.18,1.60,1.72,1.60,1.72,-1.72,-1.68,-2.09,-0.12,-0.12,-0.12
55.74,1.60,1.74,1.60,1.74,-1.74,-1.67,-2.14,-0.14,-0.14,-0.14
56.29,1.60,1.77,1.60,1.77,-1.77,-1.67,-2.18,-0.17,-0.17,-0.17
56.86,1.60,1.79,1.60,1.80,-1.80,-1.67,-2.22,-0.20,-0.20,-0.19
57.42,1.60,1.83,1.60,1.83,-1.83,-1.67,-2.26,-0.23,-0.23,-0.23
58.00,1.60,1.86,1.60,1.86,-1.86,-1.67,-2.30,-0.26,-0.26,-0.26
58.58,1.60,1.89,1.60,1.89,-1.89,-1.67,-2.34,-0.29,-0.29,-0.29
59.16,1.60,1.92,1.60,1.92,-1.92,-1.68,-2.37,-0.32,-0.32,-0.32
59.76,1.60,1.96,1.60,1.96,-1.96,-1.68,-2.40,-0.36,-0.36,-0.36
60.35,1.60,1.99,1.60,1.99,-1.99,-1.69,-2.43,-0.39,-0.39,-0.39
60.96,1.60,2.03,1.60,2.02,-2.02,-1.70,-2.46,-0.42,-0.42,-0.43
61.57,1.60,2.05,1.60,2.06,-2.06,-1.71,-2.48,-0.46,-0.46,-0.45
62.18,1.60,2.09,1.60,2.09,-2.09,-1.73,-2.51,-0.49,-0.49,-0.49
62.80,1.60,2.12,1.60,2.12,-2.13,-1.74,-2.53,-0.53,-0.53,-0.52
63.43,1.60,2.16,1.60,2.16,-2.16,-1.76,-2.54,-0.56,-0.56,-0.56
64.07,1.60,2.20,1.60,2.20,-2.20,-1.77,-2.56,-0.60,-0.60,-0.60
64.71,1.60,2.24,1.60,2.24,-2.23,-1.79,-2.57,-0.63,-0.63,-0.64
65.35,1.60,2.27,1.60,2.27,-2.27,-1.81,-2.58,-0.67,-0.67,-0.67
66.01,1.60,2.30,1.60,2.30,-2.30,-1.83,-2.59,-0.70,-0.70,-0.70
66.67,1.60,2.33,1.60,2.33,-2.34,-1.85,-2.59,-0.74,-0.74,-0.73
67.33,1.60,2.35,1.60,2.36,-2.37,-1.88,-2.60,-0.77,-0.77,-0.75
68.01,1.60,2.38,1.60,2.38,-2.39,-1.90,-2.60,-0.79,-0.79,-0.78
68.69,1.60,2.40,1.60,2.40,-2.40,-1.92,-2.60,-0.80,-0.80,-0.80
69.37,1.60,2.41,1.61,2.42,-2.38,-1.95,-2.60,-0.78,-0.77,-0.81
70.07,1.60,2.42,1.61,2.43,-2.37,-1.98,-2.59,-0.77,-0.76,-0.82
70.77,1.60,2.44,1.56,2.40,-2.34,-2.00,-2.59,-0.74,-0.79,-0.84
71.48,1.49,2.34,1.49,2.34,-2.33,-2.03,-2.59,-0.84,-0.84,-0.85
72.19,1.37,2.23,1.41,2.27,-2.32,-2.06,-2.58,-0.95,-0.91,-0.86
72.91,1.37,2.24,1.36,2.23,-2.33,-2.09,-2.58,-0.96,-0.97,-0.87
73.64,1.37,2.25,1.38,2.26,-2.34,-2.12,-2.58,-0.97,-0.96,-0.88
74.38,1.43,2.33,1.45,2.35,-2.37,-2.15,-2.57,-0.94,-0.92,-0.90
75.12,1.55,2.46,1.52,2.44,-2.41,-2.18,-2.57,-0.86,-0.88,-0.91
75.87,1.59,2.53,1.58,2.52,-2.45,-2.22,-2.57,-0.86,-0.87,-0.94
76.63,1.60,2.56,1.61,2.56,-2.51,-2.25,-2.56,-0.91,-0.90,-0.96
77.40,1.60,2.57,1.60,2.58,-2.56,-2.28,-2.56,-0.96,-0.96,-0.97
78.17,1.60,2.59,1.60,2.59,-2.60,-2.32,-2.56,-1.00,-1.00,-0.99
78.95,1.60,2.62,1.60,2.62,-2.63,-2.35,-2.56,-1.03,-1.03,-1.02
79.74,1.60,2.64,1.60,2.64,-2.66,-2.39,-2.56,-1.06,-1.06,-1.04
80.54,1.60,2.66,1.60,2.66,-2.68,-2.42,-2.57,-1.08,-1.08,-1.06
81.35,1.60,2.68,1.60,2.68,-2.69,-2.46,-2.57,-1.09,-1.09,-1.08
82.16,1.60,2.70,1.60,2.70,-2.70,-2.50,-2.58,-1.10,-1.10,-1.10
82.98,1.60,2.72,1.61,2.72,-2.71,-2.54,-2.59,-1.11,-1.10,-1.12
83.81,1.60,2.73,1.61,2.74,-2.70,-2.57,-2.60,-1.10,-1.09,-1.13
84.65,1.60,2.75,1.58,2.73,-2.68,-2.61,-2.61,-1.08,-1.10,-1.15
85.50,1.54,2.71,1.52,2.69,-2.67,-2.65,-2.63,-1.13,-1.15,-1.17
86.35,1.43,2.61,1.45,2.63,-2.65,-2.69,-2.64,-1.22,-1.20,-1.18
87.22,1.37,2.56,1.39,2.58,-2.63,-2.73,-2.66,-1.26,-1.24,-1.19
88.09,1.37,2.58,1.36,2.57,-2.62,-2.77,-2.68,-1.25,-1.25,-1.21
88.97,1.37,2.59,1.36,2.59,-2.61,-2.81,-2.70,-1.24,-1.24,-1.22
89.86,1.37,2.62,1.37,2.61,-2.61,-2.85,-2.73,-1.24,-1.24,-1.25
90.76,1.37,2.63,1.37,2.63,-2.63,-2.90,-2.76,-1.26,-1.26,-1.26
91.66,1.37,2.65,1.37,2.65,-2.65,-2.94,-2.78,-1.28,-1.28,-1.28
92.58,1.37,2.66,1.37,2.66,-2.67,-2.98,-2.81,-1.30,-1.30,-1.29
93.51,1.37,2.68,1.37,2.68,-2.67,-3.02,-2.85,-1.30,-1.30,-1.31
94.44,1.37,2.70,1.38,2.71,-2.67,-3.06,-2.88,-1.30,-1.29,-1.33
95.39,1.37,2.71,1.36,2.70,-2.65,-3.11,-2.92,-1.28,-1.30,-1.34
96.34,1.33,2.69,1.30,2.66,-2.64,-3.15,-2.96,-1.31,-1.34,-1.36
97.30,1.22,2.60,1.23,2.61,-2.62,-3.19,-2.99,-1.40,-1.39,-1.38
98.28,1.14,2.54,1.17,2.56,-2.61,-3.24,-3.04,-1.47,-1.44,-1.40
99.26,1.14,2.55,1.13,2.55,-2.60,-3.28,-3.08,-1.46,-1.46,-1.41
100.25,1.14,2.58,1.13,2.57,-2.59,-3.32,-3.12,-1.45,-1.46,-1.44
101.25,1.14,2.60,1.14,2.60,-2.60,-3.37,-3.17,-1.46,-1.46,-1.46
102.27,1.14,2.63,1.14,2.63,-2.62,-3.41,-3.22,-1.48,-1.48,-1.49
103.29,1.14,2.66,1.14,2.66,-2.65,-3.46,-3.26,-1.51,-1.51,-1.52
104.32,1.14,2.69,1.14,2.69,-2.69,-3.50,-3.31,-1.55,-1.55,-1.55
105.37,1.14,2.73,1.14,2.73,-2.73,-3.55,-3.36,-1.59,-1.59,-1.59
106.42,1.14,2.77,1.14,2.77,-2.77,-3.59,-3.41,-1.63,-1.63,-1.63
107.48,1.14,2.82,1.14,2.82,-2.81,-3.63,-3.46,-1.67,-1.67,-1.68
108.56,1.14,2.88,1.14,2.87,-2.86,-3.68,-3.51,-1.72,-1.72,-1.74
109.64,1.14,2.93,1.14,2.92,-2.93,-3.72,-3.56,-1.79,-1.79,-1.79
110.74,1.14,2.97,1.12,2.96,-3.01,-3.77,-3.60,-1.87,-1.89,-1.83
111.85,1.14,3.02,1.16,3.04,-3.09,-3.81,-3.65,-1.95,-1.94,-1.88
112.97,1.16,3.10,1.22,3.16,-3.18,-3.85,-3.70,-2.02,-1.96,-1.94
114.10,1.37,3.36,1.30,3.29,-3.26,-3.90,-3.74,-1.89,-1.96,-1.99
115.24,1.37,3.40,1.36,3.40,-3.33,-3.94,-3.78,-1.96,-1.97,-2.03
116.39,1.37,3.45,1.39,3.47,-3.40,-3.98,-3.82,-2.03,-2.01,-2.08
117.55,1.37,3.50,1.37,3.50,-3.47,-4.02,-3.86,-2.10,-2.10,-2.13
118.73,1.37,3.53,1.37,3.54,-3.54,-4.07,-3.90,-2.17,-2.17,-2.16
119.92,1.37,3.57,1.36,3.56,-3.61,-4.11,-3.93,-2.24,-2.24,-2.20
121.12,1.37,3.61,1.36,3.60,-3.66,-4.15,-3.96,-2.29,-2.30,-2.24
122.33,1.37,3.64,1.41,3.68,-3.72,-4.19,-3.99,-2.35,-2.31,-2.27
123.55,1.47,3.77,1.48,3.78,-3.78,-4.23,-4.01,-2.31,-2.30,-2.30
124.79,1.59,3.92,1.55,3.88,-3.84,-4.27,-4.03,-2.25,-2.30,-2.33
126.03,1.60,3.96,1.60,3.96,-3.90,-4.31,-4.05,-2.30,-2.30,-2.36
127.29,1.60,3.98,1.61,3.99,-3.95,-4.35,-4.07,-2.35,-2.34,-2.38
128.57,1.60,4.01,1.60,4.01,-4.00,-4.39,-4.08,-2.40,-2.40,-2.41
129.85,1.60,4.04,1.60,4.04,-4.04,-4.43,-4.09,-2.44,-2.44,-2.44
131.15,1.60,4.06,1.60,4.06,-4.07,-4.47,-4.10,-2.47,-2.47,-2.46
132.46,1.60,4.09,1.60,4.08,-4.11,-4.50,-4.10,-2.51,-2.52,-2.49
133.79,1.60,4.12,1.59,4.11,-4.16,-4.54,-4.10,-2.56,-2.57,-2.52
135.12,1.60,4.14,1.62,4.17,-4.21,-4.57,-4.10,-2.61,-2.59,-2.54
136.48,1.65,4.22,1.68,4.26,-4.27,-4.61,-4.10,-2.62,-2.58,-2.57
137.84,1.80,4.40,1.75,4.35,-4.33,-4.64,-4.10,-2.53,-2.57,-2.60
139.22,1.82,4.44,1.81,4.44,-4.39,-4.67,-4.09,-2.57,-2.58,-2.62
140.61,1.82,4.47,1.83,4.48,-4.44,-4.70,-4.09,-2.62,-2.61,-2.65
142.02,1.82,4.50,1.82,4.50,-4.49,-4.74,-4.08,-2.67,-2.67,-2.68
143.44,1.82,4.53,1.82,4.53,-4.54,-4.76,-4.08,-2.72,-2.72,-2.71
144.87,1.82,4.55,1.82,4.56,-4.57,-4.79,-4.07,-2.75,-2.75,-2.73
146.32,1.82,4.59,1.82,4.59,-4.60,-4.82,-4.07,-2.78,-2.78,-2.77
147.78,1.82,4.63,1.82,4.62,-4.63,-4.85,-4.06,-2.81,-2.81,-2.81
149.26,1.82,4.66,1.82,4.66,-4.67,-4.87,-4.06,-2.85,-2.85,-2.84
150.75,1.82,4.71,1.82,4.70,-4.71,-4.90,-4.05,-2.89,-2.89,-2.89
152.26,1.82,4.75,1.82,4.75,-4.76,-4.92,-4.05,-2.94,-2.94,-2.93
153.78,1.82,4.80,1.82,4.80,-4.81,-4.94,-4.05,-2.99,-2.99,-2.98
155.32,1.82,4.86,1.82,4.86,-4.85,-4.97,-4.05,-3.03,-3.03,-3.04
156.88,1.82,4.91,1.82,4.91,-4.90,-4.99,-4.06,-3.08,-3.08,-3.09
158.44,1.82,4.95,1.82,4.95,-4.95,-5.00,-4.06,-3.13,-3.13,-3.13
160.03,1.82,4.99,1.82,4.99,-4.99,-5.02,-4.07,-3.17,-3.17,-3.17
161.63,1.82,5.03,1.82,5.03,-5.02,-5.04,-4.08,-3.20,-3.20,-3.21
163.24,1.82,5.06,1.82,5.06,-5.05,-5.05,-4.10,-3.23,-3.23,-3.24
164.88,1.82,5.09,1.82,5.09,-5.08,-5.07,-4.11,-3.26,-3.26,-3.27
166.53,1.82,5.11,1.82,5.11,-5.11,-5.08,-4.13,-3.29,-3.29,-3.29
168.19,1.82,5.13,1.81,5.12,-5.15,-5.09,-4.16,-3.33,-3.34,-3.31
169.87,1.82,5.14,1.82,5.13,-5.19,-5.10,-4.18,-3.37,-3.37,-3.32
171.57,1.82,5.14,1.87,5.19,-5.22,-5.11,-4.21,-3.40,-3.35,-3.32
173.29,1.96,5.27,1.94,5.26,-5.25,-5.11,-4.24,-3.29,-3.31,-3.31
175.02,2.05,5.36,2.01,5.32,-5.28,-5.12,-4.28,-3.23,-3.27,-3.31
176.77,2.05,5.35,2.06,5.36,-5.31,-5.12,-4.32,-3.26,-3.25,-3.30
178.54,2.05,5.33,2.06,5.34,-5.33,-5.12,-4.36,-3.28,-3.27,-3.28
180.32,2.05,5.32,2.05,5.32,-5.34,-5.13,-4.40,-3.29,-3.29,-3.27
182.13,2.05,5.30,2.05,5.31,-5.32,-5.13,-4.45,-3.27,-3.27,-3.25
183.95,2.05,5.30,2.07,5.31,-5.29,-5.12,-4.50,-3.24,-3.22,-3.25
185.79,2.05,5.29,2.05,5.29,-5.25,-5.12,-4.56,-3.20,-3.20,-3.24
187.65,2.05,5.28,1.99,5.22,-5.20,-5.12,-4.62,-3.15,-3.21,-3.23
189.52,1.87,5.11,1.91,5.15,-5.16,-5.11,-4.68,-3.29,-3.25,-3.24
191.42,1.82,5.06,1.85,5.09,-5.13,-5.10,-4.74,-3.31,-3.29,-3.24
193.33,1.82,5.07,1.81,5.05,-5.11,-5.10,-4.81,-3.29,-3.30,-3.25
195.27,1.82,5.07,1.82,5.07,-5.08,-5.09,-4.88,-3.26,-3.27,-3.25
197.22,1.82,5.08,1.82,5.08,-5.07,-5.07,-4.95,-3.25,-3.25,-3.26
199.19,1.82,5.09,1.82,5.09,-5.07,-5.06,-5.02,-3.25,-3.25,-3.27
201.18,1.82,5.10,1.82,5.10,-5.09,-5.05,-5.10,-3.27,-3.27,-3.28
203.19,1.82,5.11,1.82,5.11,-5.12,-5.03,-5.17,-3.30,-3.30,-3.29
205.23,1.82,5.12,1.82,5.12,-5.14,-5.02,-5.25,-3.32,-3.32,-3.30
207.28,1.82,5.14,1.82,5.14,-5.15,-5.00,-5.33,-3.33,-3.33,-3.32
209.35,1.82,5.16,1.82,5.15,-5.15,-4.98,-5.41,-3.33,-3.33,-3.34
211.44,1.82,5.17,1.84,5.19,-5.14,-4.96,-5.49,-3.32,-3.30,-3.35
213.56,1.82,5.19,1.81,5.18,-5.13,-4.94,-5.57,-3.31,-3.32,-3.37
215.69,1.82,5.19,1.75,5.13,-5.12,-4.92,-5.65,-3.30,-3.37,-3.37
217.85,1.62,5.01,1.68,5.07,-5.10,-4.90,-5.72,-3.48,-3.42,-3.39
220.03,1.60,5.00,1.62,5.02,-5.08,-4.87,-5.80,-3.48,-3.46,-3.40
222.23,1.60,5.02,1.58,5.00,-5.05,-4.85,-5.87,-3.45,-3.47,-3.42
224.45,1.60,5.03,1.61,5.04,-5.01,-4.82,-5.93,-3.41,-3.40,-3.43
226.70,1.60,5.04,1.60,5.04,-4.98,-4.79,-5.99,-3.38,-3.38,-3.44
228.96,1.60,5.05,1.54,4.99,-4.95,-4.76,-6.05,-3.35,-3.41,-3.45
231.25,1.43,4.90,1.47,4.93,-4.93,-4.74,-6.10,-3.50,-3.46,-3.47
233.57,1.37,4.84,1.40,4.87,-4.91,-4.71,-6.15,-3.54,-3.51,-3.47
235.90,1.37,4.85,1.36,4.84,-4.89,-4.67,-6.18,-3.52,-3.54,-3.48
238.26,1.37,4.87,1.36,4.86,-4.88,-4.64,-6.22,-3.51,-3.51,-3.50
240.64,1.37,4.87,1.37,4.87,-4.86,-4.61,-6.24,-3.49,-3.49,-3.50
243.05,1.37,4.88,1.37,4.88,-4.86,-4.58,-6.25,-3.49,-3.49,-3.51
245.48,1.37,4.88,1.37,4.88,-4.87,-4.54,-6.25,-3.50,-3.50,-3.51
247.93,1.37,4.89,1.37,4.89,-4.88,-4.51,-6.25,-3.51,-3.51,-3.52
250.41,1.37,4.89,1.37,4.89,-4.90,-4.47,-6.23,-3.53,-3.53,-3.52
252.92,1.37,4.90,1.37,4.90,-4.91,-4.44,-6.21,-3.54,-3.54,-3.53
255.45,1.37,4.90,1.37,4.90,-4.92,-4.40,-6.17,-3.55,-3.55,-3.53
258.00,1.37,4.91,1.37,4.91,-4.92,-4.36,-6.13,-3.55,-3.55,-3.54
260.58,1.37,4.91,1.38,4.92,-4.90,-4.33,-6.08,-3.53,-3.53,-3.54
263.19,1.37,4.93,1.38,4.93,-4.88,-4.29,-6.02,-3.51,-3.51,-3.56
265.82,1.37,4.93,1.35,4.91,-4.86,-4.25,-5.95,-3.49,-3.51,-3.56
268.48,1.31,4.87,1.28,4.85,-4.84,-4.21,-5.87,-3.53,-3.55,-3.56
271.16,1.18,4.76,1.21,4.79,-4.82,-4.17,-5.78,-3.64,-3.60,-3.58
273.87,1.14,4.72,1.15,4.74,-4.80,-4.13,-5.69,-3.66,-3.64,-3.58
276.61,1.14,4.72,1.13,4.72,-4.77,-4.09,-5.60,-3.63,-3.64,-3.58
279.38,1.14,4.74,1.14,4.73,-4.75,-4.05,-5.49,-3.61,-3.61,-3.60
282.17,1.14,4.74,1.15,4.75,-4.72,-4.01,-5.39,-3.58,-3.57,-3.60
284.99,1.14,4.74,1.15,4.76,-4.69,-3.97,-5.27,-3.55,-3.54,-3.60
287.84,1.14,4.75,1.11,4.72,-4.66,-3.93,-5.16,-3.52,-3.55,-3.61
290.72,1.07,4.68,1.05,4.66,-4.64,-3.89,-5.04,-3.57,-3.59,-3.61
293.63,0.93,4.54,0.97,4.59,-4.62,-3.84,-4.92,-3.69,-3.64,-3.61
296.57,0.91,4.53,0.92,4.53,-4.60,-3.80,-4.80,-3.69,-3.68,-3.62
299.53,0.91,4.53,0.90,4.52,-4.57,-3.76,-4.68,-3.66,-3.68,-3.62
302.53,0.91,4.54,0.91,4.54,-4.55,-3.72,-4.56,-3.64,-3.64,-3.63
305.55,0.91,4.54,0.91,4.54,-4.53,-3.67,-4.43,-3.62,-3.62,-3.63
308.61,0.91,4.55,0.92,4.56,-4.52,-3.63,-4.31,-3.61,-3.59,-3.64
311.69,0.91,4.56,0.91,4.56,-4.51,-3.59,-4.18,-3.60,-3.59,-3.65
314.81,0.91,4.57,0.86,4.52,-4.50,-3.55,-4.06,-3.59,-3.64,-3.66
317.96,0.77,4.44,0.79,4.46,-4.49,-3.50,-3.94,-3.72,-3.70,-3.67
321.14,0.68,4.37,0.72,4.41,-4.46,-3.46,-3.82,-3.78,-3.74,-3.69
324.35,0.68,4.39,0.68,4.39,-4.43,-3.42,-3.70,-3.75,-3.75,-3.71
327.59,0.68,4.40,0.68,4.40,-4.38,-3.38,-3.58,-3.70,-3.71,-3.72
330.87,0.68,4.41,0.64,4.37,-4.34,-3.33,-3.47,-3.66,-3.69,-3.73
334.18,0.58,4.32,0.59,4.33,-4.29,-3.29,-3.35,-3.71,-3.69,-3.74
337.52,0.47,4.22,0.50,4.25,-4.24,-3.25,-3.24,-3.77,-3.73,-3.75
340.90,0.45,4.21,0.39,4.15,-4.18,-3.21,-3.13,-3.73,-3.79,-3.76
344.30,0.28,4.05,0.32,4.08,-4.11,-3.17,-3.02,-3.83,-3.79,-3.77
347.75,0.23,4.00,0.26,4.03,-4.04,-3.12,-2.91,-3.81,-3.78,-3.77
351.23,0.23,4.00,0.18,3.95,-3.96,-3.08,-2.81,-3.73,-3.78,-3.77
354.74,0.13,3.90,0.14,3.91,-3.89,-3.04,-2.71,-3.76,-3.75,-3.77
358.28,0.02,3.79,0.05,3.82,-3.81,-3.00,-2.60,-3.79,-3.76,-3.77
361.87,0.00,3.76,-0.05,3.71,-3.74,-2.96,-2.51,-3.74,-3.79,-3.76
365.49,-0.16,3.61,-0.13,3.63,-3.65,-2.91,-2.41,-3.81,-3.79,-3.77
369.14,-0.22,3.55,-0.18,3.59,-3.57,-2.87,-2.31,-3.79,-3.74,-3.77
372.83,-0.23,3.54,-0.25,3.51,-3.48,-2.83,-2.22,-3.71,-3.73,-3.77
376.56,-0.28,3.48,-0.35,3.41,-3.39,-2.79,-2.13,-3.67,-3.74,-3.76
380.33,-0.52,3.24,-0.49,3.28,-3.29,-2.75,-2.04,-3.81,-3.78,-3.76
384.13,-0.66,3.10,-0.60,3.16,-3.20,-2.71,-1.95,-3.86,-3.80,-3.76
387.97,-0.68,3.08,-0.69,3.07,-3.10,-2.67,-1.87,-3.78,-3.79,-3.76
391.85,-0.69,3.07,-0.75,3.02,-2.99,-2.63,-1.79,-3.68,-3.73,-3.76
395.77,-0.85,2.91,-0.84,2.92,-2.88,-2.59,-1.71,-3.73,-3.72,-3.76
399.73,-0.97,2.78,-0.96,2.80,-2.77,-2.55,-1.63,-3.74,-3.73,-3.75
403.72,-1.10,2.66,-1.08,2.68,-2.68,-2.51,-1.55,-3.78,-3.76,-3.76
407.76,-1.14,2.62,-1.18,2.58,-2.60,-2.47,-1.48,-3.74,-3.78,-3.76
411.84,-1.27,2.49,-1.27,2.49,-2.54,-2.43,-1.40,-3.81,-3.80,-3.76
415.96,-1.36,2.40,-1.33,2.43,-2.47,-2.39,-1.33,-3.83,-3.80,-3.76
420.12,-1.37,2.39,-1.37,2.38,-2.42,-2.35,-1.26,-3.79,-3.79,-3.76
424.32,-1.37,2.39,-1.37,2.39,-2.37,-2.31,-1.20,-3.74,-3.74,-3.76
428.56,-1.37,2.39,-1.37,2.39,-2.34,-2.27,-1.14,-3.71,-3.70,-3.76
432.85,-1.37,2.39,-1.41,2.36,-2.31,-2.23,-1.07,-3.68,-3.71,-3.76
437.18,-1.47,2.29,-1.47,2.29,-2.29,-2.19,-1.02,-3.76,-3.76,-3.76
441.55,-1.57,2.20,-1.54,2.23,-2.26,-2.15,-0.96,-3.83,-3.80,-3.77
445.96,-1.60,2.17,-1.59,2.18,-2.23,-2.11,-0.91,-3.83,-3.82,-3.77
450.42,-1.60,2.17,-1.60,2.18,-2.19,-2.07,-0.86,-3.79,-3.79,-3.77
454.93,-1.60,2.17,-1.60,2.18,-2.15,-2.03,-0.81,-3.75,-3.75,-3.77
459.48,-1.60,2.18,-1.63,2.15,-2.12,-1.99,-0.77,-3.72,-3.75,-3.78
464.07,-1.69,2.08,-1.69,2.08,-2.09,-1.95,-0.73,-3.78,-3.78,-3.77
468.71,-1.79,1.99,-1.76,2.02,-2.05,-1.91,-0.69,-3.84,-3.81,-3.78
473.40,-1.82,1.96,-1.81,1.97,-2.00,-1.87,-0.66,-3.82,-3.81,-3.78
