frequency,raw,error,smoothed,error_smoothed,equalization,parametric_eq,fixed_band_eq,equalized_raw,equalized_smoothed,target
20.00,-2.84,0.54,-2.83,0.55,-0.54,0.81,0.17,-3.38,-3.37,-3.38
20.20,-2.84,0.54,-2.86,0.52,-0.51,0.81,0.17,-3.36,-3.38,-3.38
20.40,-2.90,0.48,-2.90,0.49,-0.49,0.81,0.18,-3.39,-3.38,-3.38
20.61,-2.93,0.45,-2.93,0.45,-0.46,0.81,0.18,-3.39,-3.39,-3.38
20.81,-2.96,0.42,-2.96,0.42,-0.43,0.81,0.19,-3.40,-3.40,-3.38
21.02,-2.98,0.40,-2.99,0.39,-0.41,0.81,0.19,-3.39,-3.39,-3.38
21.23,-3.02,0.36,-3.01,0.37,-0.38,0.81,0.20,-3.40,-3.39,-3.38
21.44,-3.03,0.35,-3.04,0.35,-0.35,0.82,0.20,-3.38,-3.38,-3.38
21.66,-3.06,0.32,-3.06,0.32,-0.32,0.82,0.21,-3.38,-3.38,-3.38
21.87,-3.08,0.30,-3.09,0.29,-0.29,0.82,0.21,-3.37,-3.38,-3.38
22.09,-3.12,0.26,-3.12,0.26,-0.26,0.82,0.22,-3.38,-3.38,-3.38
22.31,-3.15,0.23,-3.15,0.23,-0.22,0.82,0.23,-3.37,-3.37,-3.38
22.54,-3.19,0.19,-3.20,0.19,-0.18,0.82,0.23,-3.37,-3.37,-3.38
22.76,-3.24,0.14,-3.24,0.14,-0.13,0.82,0.24,-3.38,-3.38,-3.38
22.99,-3.29,0.09,-3.30,0.09,-0.09,0.82,0.24,-3.38,-3.38,-3.38
23.22,-3.35,0.03,-3.35,0.03,-0.03,0.82,0.25,-3.39,-3.38,-3.38
23.45,-3.40,-0.02,-3.40,-0.02,0.02,0.83,0.26,-3.39,-3.38,-3.38
23.69,-3.44,-0.06,-3.45,-0.07,0.07,0.83,0.27,-3.38,-3.38,-3.38
23.92,-3.49,-0.11,-3.49,-0.11,0.11,0.83,0.27,-3.38,-3.38,-3.38
24.16,-3.54,-0.16,-3.54,-0.15,0.15,0.83,0.28,-3.39,-3.38,-3.38
24.40,-3.57,-0.19,-3.58,-0.20,0.19,0.83,0.29,-3.39,-3.39,-3.38
24.65,-3.60,-0.22,-3.61,-0.22,0.21,0.83,0.29,-3.39,-3.39,-3.38
24.89,-3.63,-0.25,-3.62,-0.24,0.23,0.84,0.30,-3.40,-3.39,-3.38
25.14,-3.63,-0.25,-3.63,-0.25,0.24,0.84,0.31,-3.39,-3.39,-3.38
25.39,-3.63,-0.25,-3.64,-0.25,0.25,0.84,0.32,-3.38,-3.38,-3.38
25.65,-3.63,-0.25,-3.63,-0.25,0.26,0.84,0.33,-3.37,-3.37,-3.38
25.91,-3.63,-0.25,-3.63,-0.25,0.27,0.84,0.33,-3.37,-3.36,-3.38
26.16,-3.63,-0.25,-3.64,-0.26,0.28,0.85,0.34,-3.36,-3.36,-3.38
26.43,-3.64,-0.26,-3.65,-0.27,0.29,0.85,0.35,-3.36,-3.36,-3.38
26.69,-3.68,-0.30,-3.67,-0.29,0.30,0.85,0.36,-3.39,-3.37,-3.38
26.96,-3.68,-0.30,-3.69,-0.31,0.30,0.85,0.37,-3.38,-3.39,-3.38
27.23,-3.71,-0.33,-3.71,-0.33,0.31,0.86,0.38,-3.40,-3.40,-3.38
27.50,-3.71,-0.33,-3.70,-0.32,0.30,0.86,0.39,-3.41,-3.40,-3.38
27.77,-3.68,-0.30,-3.69,-0.31,0.29,0.86,0.39,-3.39,-3.40,-3.38
28.05,-3.66,-0.28,-3.66,-0.28,0.27,0.86,0.40,-3.39,-3.39,-3.38
28.33,-3.62,-0.24,-3.62,-0.24,0.24,0.87,0.41,-3.39,-3.39,-3.38
28.62,-3.58,-0.20,-3.58,-0.20,0.20,0.87,0.42,-3.39,-3.39,-3.38
28.90,-3.54,-0.16,-3.53,-0.15,0.15,0.87,0.43,-3.39,-3.38,-3.38
29.19,-3.48,-0.10,-3.49,-0.11,0.11,0.88,0.44,-3.37,-3.38,-3.38
29.48,-3.45,-0.07,-3.46,-0.07,0.08,0.88,0.45,-3.37,-3.38,-3.38
29.78,-3.44,-0.06,-3.42,-0.04,0.05,0.88,0.46,-3.39,-3.37,-3.38
30.08,-3.40,-0.02,-3.42,-0.03,0.04,0.89,0.47,-3.37,-3.38,-3.38
30.38,-3.40,-0.02,-3.42,-0.03,0.04,0.89,0.48,-3.36,-3.38,-3.38
30.68,-3.45,-0.07,-3.43,-0.05,0.06,0.90,0.49,-3.39,-3.37,-3.38
30.99,-3.46,-0.08,-3.47,-0.09,0.10,0.90,0.49,-3.36,-3.37,-3.38
31.30,-3.51,-0.13,-3.52,-0.14,0.16,0.91,0.50,-3.36,-3.36,-3.38
31.61,-3.59,-0.21,-3.59,-0.21,0.23,0.91,0.51,-3.36,-3.36,-3.38
31.93,-3.68,-0.30,-3.69,-0.31,0.31,0.92,0.52,-3.37,-3.37,-3.38
32.24,-3.79,-0.41,-3.79,-0.41,0.40,0.92,0.53,-3.39,-3.39,-3.38
32.57,-3.90,-0.52,-3.90,-0.51,0.50,0.93,0.54,-3.40,-3.40,-3.38
32.89,-3.98,-0.60,-4.00,-0.61,0.59,0.94,0.55,-3.39,-3.40,-3.38
33.22,-4.09,-0.71,-4.08,-0.70,0.68,0.94,0.56,-3.41,-3.40,-3.38
33.55,-4.15,-0.77,-4.16,-0.77,0.76,0.95,0.57,-3.39,-3.39,-3.38
33.89,-4.22,-0.84,-4.23,-0.84,0.84,0.96,0.58,-3.38,-3.39,-3.38
34.23,-4.28,-0.90,-4.28,-0.90,0.91,0.97,0.59,-3.38,-3.38,-3.38
34.57,-4.34,-0.96,-4.34,-0.96,0.97,0.97,0.60,-3.38,-3.37,-3.38
34.92,-4.38,-1.00,-4.39,-1.01,1.02,0.98,0.61,-3.36,-3.37,-3.38
35.27,-4.44,-1.06,-4.44,-1.06,1.07,0.99,0.62,-3.37,-3.37,-3.38
35.62,-4.50,-1.12,-4.49,-1.11,1.11,1.00,0.63,-3.39,-3.38,-3.38
35.97,-4.52,-1.14,-4.53,-1.15,1.14,1.01,0.64,-3.38,-3.39,-3.38
36.33,-4.56,-1.18,-4.56,-1.18,1.16,1.03,0.65,-3.40,-3.40,-3.38
36.70,-4.57,-1.19,-4.57,-1.19,1.17,1.04,0.67,-3.40,-3.40,-3.38
37.06,-4.57,-1.19,-4.57,-1.19,1.16,1.05,0.68,-3.41,-3.41,-3.38
37.43,-4.55,-1.17,-4.55,-1.17,1.15,1.06,0.69,-3.40,-3.40,-3.38
37.81,-4.52,-1.14,-4.52,-1.14,1.14,1.08,0.70,-3.39,-3.38,-3.38
38.19,-4.48,-1.10,-4.49,-1.11,1.12,1.10,0.72,-3.36,-3.37,-3.38
38.57,-4.47,-1.09,-4.47,-1.09,1.12,1.11,0.73,-3.36,-3.35,-3.38
38.95,-4.47,-1.09,-4.47,-1.09,1.12,1.13,0.75,-3.35,-3.35,-3.38
39.34,-4.48,-1.10,-4.49,-1.11,1.14,1.15,0.77,-3.34,-3.36,-3.38
39.74,-4.54,-1.16,-4.54,-1.15,1.17,1.17,0.78,-3.37,-3.36,-3.38
40.14,-4.59,-1.21,-4.59,-1.21,1.22,1.19,0.80,-3.38,-3.38,-3.38
40.54,-4.66,-1.28,-4.66,-1.28,1.27,1.21,0.82,-3.39,-3.39,-3.38
40.94,-4.72,-1.34,-4.72,-1.34,1.33,1.24,0.84,-3.40,-3.40,-3.38
41.35,-4.78,-1.40,-4.78,-1.40,1.38,1.27,0.86,-3.40,-3.40,-3.38
41.76,-4.83,-1.45,-4.83,-1.45,1.43,1.29,0.88,-3.40,-3.40,-3.38
42.18,-4.87,-1.49,-4.87,-1.49,1.48,1.33,0.90,-3.40,-3.40,-3.38
42.60,-4.90,-1.52,-4.91,-1.52,1.52,1.36,0.92,-3.39,-3.39,-3.38
43.03,-4.94,-1.56,-4.94,-1.56,1.56,1.39,0.94,-3.39,-3.38,-3.38
43.46,-4.96,-1.58,-4.97,-1.59,1.60,1.43,0.97,-3.37,-3.38,-3.38
43.90,-5.01,-1.63,-5.01,-1.63,1.64,1.47,0.99,-3.37,-3.37,-3.38
44.33,-5.05,-1.67,-5.05,-1.67,1.69,1.51,1.02,-3.36,-3.36,-3.38
44.78,-5.10,-1.72,-5.11,-1.73,1.74,1.56,1.04,-3.36,-3.37,-3.38
45.23,-5.18,-1.80,-5.18,-1.80,1.80,1.60,1.07,-3.38,-3.37,-3.38
45.68,-5.25,-1.87,-5.25,-1.87,1.87,1.65,1.10,-3.38,-3.39,-3.38
46.13,-5.33,-1.95,-5.33,-1.95,1.93,1.71,1.12,-3.40,-3.39,-3.38
46.60,-5.39,-2.01,-5.40,-2.01,2.00,1.76,1.15,-3.39,-3.40,-3.38
47.06,-5.45,-2.07,-5.46,-2.07,2.06,1.82,1.18,-3.39,-3.39,-3.38
47.53,-5.51,-2.13,-5.51,-2.12,2.12,1.88,1.21,-3.39,-3.38,-3.38
48.01,-5.55,-2.17,-5.56,-2.18,2.18,1.94,1.24,-3.38,-3.38,-3.38
48.49,-5.60,-2.22,-5.61,-2.22,2.23,2.00,1.28,-3.37,-3.38,-3.38
48.97,-5.66,-2.28,-5.65,-2.27,2.28,2.07,1.31,-3.38,-3.37,-3.38
49.46,-5.69,-2.31,-5.70,-2.32,2.33,2.13,1.34,-3.37,-3.38,-3.38
49.96,-5.74,-2.36,-5.75,-2.37,2.37,2.20,1.37,-3.37,-3.38,-3.38
50.46,-5.80,-2.42,-5.79,-2.41,2.41,2.26,1.40,-3.39,-3.38,-3.38
50.96,-5.83,-2.45,-5.84,-2.45,2.45,2.32,1.44,-3.38,-3.39,-3.38
51.47,-5.87,-2.49,-5.87,-2.49,2.48,2.37,1.47,-3.39,-3.39,-3.38
51.99,-5.89,-2.51,-5.90,-2.52,2.51,2.42,1.50,-3.38,-3.39,-3.38
52.51,-5.92,-2.54,-5.92,-2.53,2.53,2.46,1.53,-3.39,-3.39,-3.38
53.03,-5.92,-2.54,-5.92,-2.54,2.54,2.49,1.57,-3.38,-3.38,-3.38
53.56,-5.92,-2.54,-5.93,-2.54,2.55,2.51,1.60,-3.37,-3.38,-3.38
54.10,-5.92,-2.54,-5.93,-2.55,2.55,2.52,1.63,-3.37,-3.38,-3.38
54.64,-5.92,-2.54,-5.92,-2.54,2.54,2.52,1.65,-3.38,-3.38,-3.38
55.18,-5.92,-2.54,-5.91,-2.53,2.52,2.51,1.68,-3.40,-3.39,-3.38
55.74,-5.87,-2.49,-5.89,-2.51,2.50,2.48,1.71,-3.37,-3.39,-3.38
56.29,-5.86,-2.48,-5.86,-2.47,2.47,2.44,1.73,-3.39,-3.39,-3.38
56.86,-5.82,-2.44,-5.82,-2.44,2.44,2.40,1.75,-3.39,-3.38,-3.38
57.42,-5.77,-2.39,-5.78,-2.40,2.40,2.34,1.77,-3.38,-3.38,-3.38
58.00,-5.73,-2.35,-5.72,-2.34,2.35,2.27,1.79,-3.38,-3.38,-3.38
58.58,-5.66,-2.28,-5.67,-2.29,2.30,2.20,1.80,-3.37,-3.37,-3.38
59.16,-5.61,-2.23,-5.61,-2.23,2.24,2.12,1.81,-3.37,-3.38,-3.38
59.76,-5.55,-2.17,-5.56,-2.17,2.17,2.04,1.82,-3.38,-3.38,-3.38
60.35,-5.50,-2.12,-5.50,-2.11,2.10,1.96,1.83,-3.40,-3.39,-3.38
60.96,-5.42,-2.04,-5.42,-2.04,2.03,1.87,1.83,-3.40,-3.39,-3.38
61.57,-5.33,-1.95,-5.34,-1.96,1.95,1.79,1.83,-3.39,-3.39,-3.38
62.18,-5.24,-1.86,-5.25,-1.86,1.86,1.70,1.82,-3.38,-3.38,-3.38
62.80,-5.16,-1.78,-5.15,-1.77,1.77,1.62,1.81,-3.39,-3.38,-3.38
63.43,-5.05,-1.67,-5.06,-1.68,1.68,1.53,1.80,-3.37,-3.38,-3.38
64.07,-4.96,-1.58,-4.96,-1.58,1.59,1.45,1.79,-3.37,-3.38,-3.38
64.71,-4.88,-1.50,-4.87,-1.49,1.50,1.37,1.77,-3.39,-3.38,-3.38
65.35,-4.77,-1.39,-4.79,-1.40,1.41,1.29,1.74,-3.37,-3.38,-3.38
66.01,-4.71,-1.33,-4.70,-1.32,1.32,1.21,1.72,-3.40,-3.38,-3.38
66.67,-4.60,-1.22,-4.61,-1.23,1.23,1.14,1.69,-3.37,-3.38,-3.38
67.33,-4.53,-1.15,-4.53,-1.15,1.15,1.07,1.66,-3.38,-3.38,-3.38
68.01,-4.45,-1.07,-4.45,-1.07,1.07,1.00,1.62,-3.38,-3.38,-3.38
68.69,-4.37,-0.99,-4.38,-0.99,0.99,0.93,1.59,-3.38,-3.38,-3.38
69.37,-4.30,-0.92,-4.30,-0.92,0.92,0.86,1.55,-3.38,-3.38,-3.38
70.07,-4.22,-0.84,-4.23,-0.85,0.85,0.79,1.50,-3.37,-3.38,-3.38
70.77,-4.16,-0.78,-4.16,-0.78,0.78,0.73,1.46,-3.38,-3.38,-3.38
71.48,-4.09,-0.71,-4.10,-0.71,0.72,0.66,1.41,-3.38,-3.38,-3.38
72.19,-4.03,-0.65,-4.04,-0.65,0.66,0.60,1.37,-3.38,-3.38,-3.38
72.91,-3.98,-0.60,-3.98,-0.59,0.59,0.54,1.32,-3.39,-3.38,-3.38
73.64,-3.91,-0.53,-3.92,-0.53,0.53,0.48,1.27,-3.38,-3.39,-3.38
74.38,-3.85,-0.47,-3.85,-0.47,0.47,0.42,1.22,-3.39,-3.39,-3.38
75.12,-3.78,-0.40,-3.78,-0.40,0.40,0.36,1.16,-3.38,-3.38,-3.38
75.87,-3.71,-0.33,-3.72,-0.33,0.33,0.30,1.11,-3.39,-3.39,-3.38
76.63,-3.64,-0.26,-3.64,-0.26,0.25,0.24,1.06,-3.39,-3.39,-3.38
77.40,-3.56,-0.18,-3.56,-0.18,0.17,0.18,1.00,-3.39,-3.39,-3.38
78.17,-3.46,-0.08,-3.47,-0.09,0.09,0.12,0.95,-3.37,-3.39,-3.38
78.95,-3.40,-0.02,-3.39,-0.01,0.01,0.06,0.89,-3.40,-3.38,-3.38
79.74,-3.29,0.09,-3.30,0.08,-0.08,-0.00,0.84,-3.37,-3.38,-3.38
80.54,-3.22,0.16,-3.22,0.16,-0.16,-0.06,0.78,-3.38,-3.38,-3.38
81.35,-3.12,0.26,-3.14,0.25,-0.24,-0.12,0.72,-3.36,-3.38,-3.38
82.16,-3.07,0.31,-3.06,0.32,-0.32,-0.18,0.67,-3.39,-3.38,-3.38
82.98,-2.99,0.39,-2.99,0.39,-0.39,-0.24,0.61,-3.38,-3.38,-3.38
83.81,-2.91,0.47,-2.93,0.46,-0.46,-0.31,0.56,-3.37,-3.38,-3.38
84.65,-2.87,0.51,-2.86,0.52,-0.52,-0.37,0.50,-3.39,-3.38,-3.38
85.50,-2.80,0.58,-2.81,0.58,-0.58,-0.43,0.45,-3.38,-3.38,-3.38
86.35,-2.75,0.63,-2.75,0.63,-0.63,-0.49,0.39,-3.38,-3.38,-3.38
87.22,-2.70,0.68,-2.70,0.68,-0.68,-0.54,0.34,-3.38,-3.38,-3.38
88.09,-2.65,0.73,-2.66,0.72,-0.73,-0.60,0.28,-3.38,-3.38,-3.38
88.97,-2.61,0.77,-2.61,0.77,-0.77,-0.66,0.23,-3.38,-3.38,-3.38
89.86,-2.58,0.80,-2.58,0.81,-0.81,-0.71,0.17,-3.39,-3.38,-3.38
90.76,-2.52,0.86,-2.54,0.84,-0.84,-0.76,0.12,-3.37,-3.38,-3.38
91.66,-2.52,0.86,-2.51,0.87,-0.88,-0.81,0.06,-3.40,-3.38,-3.38
92.58,-2.47,0.91,-2.48,0.91,-0.90,-0.86,0.01,-3.38,-3.38,-3.38
93.51,-2.45,0.93,-2.45,0.93,-0.93,-0.90,-0.04,-3.38,-3.38,-3.38
94.44,-2.42,0.96,-2.43,0.95,-0.95,-0.94,-0.10,-3.37,-3.38,-3.38
95.39,-2.42,0.96,-2.41,0.97,-0.97,-0.97,-0.15,-3.39,-3.38,-3.38
96.34,-2.39,0.99,-2.40,0.99,-0.98,-1.00,-0.20,-3.37,-3.38,-3.38
97.30,-2.38,1.00,-2.39,0.99,-0.99,-1.03,-0.25,-3.37,-3.38,-3.38
98.28,-2.38,1.00,-2.38,1.00,-1.00,-1.05,-0.31,-3.38,-3.38,-3.38
99.26,-2.38,1.00,-2.38,1.00,-1.00,-1.07,-0.36,-3.39,-3.38,-3.38
100.25,-2.38,1.00,-2.38,1.00,-1.00,-1.07,-0.41,-3.39,-3.39,-3.38
101.25,-2.38,1.00,-2.38,1.00,-1.00,-1.08,-0.46,-3.39,-3.39,-3.38
102.27,-2.38,1.00,-2.38,1.00,-1.00,-1.08,-0.51,-3.39,-3.39,-3.38
103.29,-2.38,1.00,-2.38,1.00,-1.00,-1.08,-0.56,-3.38,-3.38,-3.38
104.32,-2.38,1.00,-2.38,1.00,-0.99,-1.06,-0.60,-3.38,-3.38,-3.38
105.37,-2.38,1.00,-2.39,0.99,-0.99,-1.05,-0.65,-3.37,-3.38,-3.38
106.42,-2.40,0.98,-2.40,0.98,-0.98,-1.03,-0.69,-3.39,-3.39,-3.38
107.48,-2.42,0.96,-2.41,0.97,-0.97,-1.01,-0.74,-3.40,-3.39,-3.38
108.56,-2.42,0.96,-2.42,0.96,-0.96,-0.99,-0.78,-3.38,-3.38,-3.38
109.64,-2.42,0.96,-2.43,0.95,-0.95,-0.96,-0.82,-3.37,-3.38,-3.38
110.74,-2.44,0.94,-2.44,0.94,-0.93,-0.93,-0.86,-3.38,-3.37,-3.38
111.85,-2.47,0.91,-2.46,0.92,-0.92,-0.90,-0.90,-3.39,-3.38,-3.38
112.97,-2.47,0.91,-2.49,0.89,-0.90,-0.87,-0.94,-3.37,-3.39,-3.38
114.10,-2.52,0.86,-2.51,0.87,-0.88,-0.84,-0.97,-3.40,-3.39,-3.38
115.24,-2.52,0.86,-2.52,0.86,-0.86,-0.80,-1.00,-3.38,-3.38,-3.38
116.39,-2.54,0.84,-2.55,0.83,-0.84,-0.77,-1.03,-3.38,-3.38,-3.38
117.55,-2.56,0.82,-2.57,0.82,-0.81,-0.73,-1.06,-3.38,-3.38,-3.38
118.73,-2.60,0.78,-2.59,0.79,-0.79,-0.70,-1.08,-3.39,-3.38,-3.38
119.92,-2.61,0.77,-2.62,0.77,-0.77,-0.66,-1.10,-3.38,-3.38,-3.38
121.12,-2.64,0.74,-2.64,0.74,-0.74,-0.63,-1.12,-3.38,-3.38,-3.38
122.33,-2.66,0.72,-2.67,0.72,-0.71,-0.60,-1.13,-3.38,-3.38,-3.38
123.55,-2.70,0.68,-2.69,0.69,-0.69,-0.56,-1.14,-3.39,-3.38,-3.38
124.79,-2.71,0.67,-2.72,0.66,-0.66,-0.53,-1.15,-3.37,-3.38,-3.38
126.03,-2.75,0.63,-2.76,0.62,-0.63,-0.50,-1.16,-3.38,-3.38,-3.38
127.29,-2.80,0.58,-2.79,0.60,-0.60,-0.47,-1.16,-3.40,-3.38,-3.38
128.57,-2.81,0.57,-2.82,0.56,-0.56,-0.44,-1.16,-3.38,-3.39,-3.38
129.85,-2.84,0.54,-2.85,0.53,-0.53,-0.41,-1.15,-3.38,-3.38,-3.38
131.15,-2.89,0.49,-2.88,0.50,-0.50,-0.38,-1.15,-3.39,-3.38,-3.38
132.46,-2.90,0.48,-2.91,0.47,-0.47,-0.36,-1.13,-3.37,-3.38,-3.38
133.79,-2.94,0.44,-2.95,0.43,-0.43,-0.33,-1.12,-3.38,-3.38,-3.38
135.12,-2.98,0.40,-2.98,0.40,-0.40,-0.31,-1.11,-3.39,-3.38,-3.38
136.48,-3.02,0.36,-3.01,0.37,-0.37,-0.28,-1.09,-3.39,-3.38,-3.38
137.84,-3.03,0.35,-3.05,0.34,-0.34,-0.26,-1.07,-3.37,-3.38,-3.38
139.22,-3.08,0.30,-3.08,0.30,-0.30,-0.24,-1.05,-3.39,-3.38,-3.38
140.61,-3.11,0.27,-3.11,0.27,-0.27,-0.22,-1.02,-3.39,-3.38,-3.38
142.02,-3.14,0.24,-3.15,0.24,-0.24,-0.19,-1.00,-3.38,-3.39,-3.38
143.44,-3.17,0.21,-3.17,0.21,-0.21,-0.17,-0.97,-3.38,-3.38,-3.38
144.87,-3.20,0.18,-3.20,0.18,-0.18,-0.15,-0.94,-3.38,-3.38,-3.38
146.32,-3.22,0.16,-3.23,0.15,-0.15,-0.14,-0.91,-3.37,-3.38,-3.38
147.78,-3.26,0.12,-3.26,0.12,-0.12,-0.12,-0.88,-3.38,-3.38,-3.38
149.26,-3.30,0.08,-3.29,0.09,-0.09,-0.10,-0.84,-3.39,-3.38,-3.38
150.75,-3.31,0.07,-3.33,0.06,-0.06,-0.08,-0.81,-3.37,-3.39,-3.38
152.26,-3.36,0.02,-3.35,0.03,-0.03,-0.06,-0.78,-3.39,-3.38,-3.38
153.78,-3.37,0.01,-3.38,0.00,-0.00,-0.05,-0.74,-3.38,-3.38,-3.38
155.32,-3.40,-0.02,-3.40,-0.02,0.02,-0.03,-0.71,-3.38,-3.38,-3.38
156.88,-3.43,-0.05,-3.43,-0.05,0.05,-0.01,-0.67,-3.38,-3.38,-3.38
158.44,-3.45,-0.07,-3.46,-0.08,0.07,0.00,-0.63,-3.38,-3.38,-3.38
160.03,-3.49,-0.11,-3.48,-0.10,0.10,0.02,-0.60,-3.39,-3.38,-3.38
161.63,-3.49,-0.11,-3.50,-0.12,0.12,0.04,-0.56,-3.37,-3.38,-3.38
163.24,-3.53,-0.15,-3.53,-0.15,0.15,0.05,-0.53,-3.38,-3.38,-3.38
164.88,-3.54,-0.16,-3.55,-0.17,0.17,0.07,-0.49,-3.37,-3.38,-3.38
166.53,-3.59,-0.21,-3.58,-0.20,0.20,0.08,-0.45,-3.40,-3.39,-3.38
168.19,-3.59,-0.21,-3.60,-0.22,0.22,0.10,-0.42,-3.38,-3.38,-3.38
169.87,-3.63,-0.25,-3.63,-0.24,0.24,0.11,-0.38,-3.39,-3.39,-3.38
171.57,-3.63,-0.25,-3.64,-0.26,0.26,0.13,-0.35,-3.37,-3.38,-3.38
173.29,-3.67,-0.29,-3.66,-0.28,0.28,0.14,-0.31,-3.39,-3.38,-3.38
175.02,-3.68,-0.30,-3.68,-0.30,0.30,0.16,-0.27,-3.38,-3.38,-3.38
176.77,-3.69,-0.31,-3.70,-0.32,0.32,0.17,-0.24,-3.37,-3.38,-3.38
178.54,-3.73,-0.35,-3.72,-0.34,0.34,0.19,-0.20,-3.39,-3.38,-3.38
180.32,-3.73,-0.35,-3.75,-0.36,0.36,0.20,-0.17,-3.37,-3.39,-3.38
182.13,-3.77,-0.39,-3.76,-0.38,0.38,0.22,-0.13,-3.40,-3.39,-3.38
183.95,-3.77,-0.39,-3.77,-0.39,0.39,0.24,-0.10,-3.38,-3.38,-3.38
185.79,-3.77,-0.39,-3.79,-0.41,0.40,0.25,-0.06,-3.37,-3.38,-3.38
187.65,-3.80,-0.42,-3.80,-0.42,0.42,0.27,-0.03,-3.38,-3.38,-3.38
189.52,-3.82,-0.44,-3.81,-0.43,0.43,0.28,0.00,-3.39,-3.38,-3.38
191.42,-3.82,-0.44,-3.82,-0.44,0.44,0.30,0.04,-3.38,-3.38,-3.38
193.33,-3.82,-0.44,-3.83,-0.45,0.46,0.31,0.07,-3.37,-3.38,-3.38
195.27,-3.84,-0.46,-3.85,-0.46,0.47,0.33,0.10,-3.38,-3.38,-3.38
197.22,-3.87,-0.49,-3.86,-0.48,0.48,0.34,0.14,-3.40,-3.39,-3.38
199.19,-3.87,-0.49,-3.87,-0.49,0.48,0.36,0.17,-3.39,-3.39,-3.38
201.18,-3.87,-0.49,-3.87,-0.49,0.49,0.37,0.20,-3.38,-3.38,-3.38
203.19,-3.87,-0.49,-3.87,-0.49,0.50,0.39,0.23,-3.37,-3.38,-3.38
205.23,-3.87,-0.49,-3.88,-0.50,0.50,0.40,0.26,-3.37,-3.38,-3.38
207.28,-3.89,-0.51,-3.89,-0.51,0.51,0.42,0.29,-3.39,-3.38,-3.38
209.35,-3.89,-0.51,-3.89,-0.51,0.51,0.43,0.32,-3.39,-3.39,-3.38
211.44,-3.89,-0.51,-3.89,-0.51,0.51,0.44,0.35,-3.39,-3.39,-3.38
213.56,-3.88,-0.50,-3.88,-0.50,0.50,0.46,0.38,-3.38,-3.38,-3.38
215.69,-3.87,-0.49,-3.88,-0.50,0.50,0.47,0.41,-3.38,-3.38,-3.38
217.85,-3.87,-0.49,-3.87,-0.49,0.49,0.48,0.43,-3.39,-3.38,-3.38
220.03,-3.87,-0.49,-3.86,-0.48,0.48,0.49,0.46,-3.40,-3.38,-3.38
222.23,-3.83,-0.45,-3.85,-0.47,0.46,0.50,0.48,-3.37,-3.39,-3.38
224.45,-3.82,-0.44,-3.83,-0.44,0.44,0.51,0.50,-3.38,-3.38,-3.38
226.70,-3.82,-0.44,-3.80,-0.42,0.43,0.52,0.52,-3.40,-3.38,-3.38
228.96,-3.77,-0.39,-3.79,-0.41,0.41,0.53,0.54,-3.36,-3.38,-3.38
231.25,-3.77,-0.39,-3.77,-0.39,0.39,0.53,0.56,-3.38,-3.38,-3.38
233.57,-3.75,-0.37,-3.75,-0.37,0.37,0.54,0.58,-3.38,-3.38,-3.38
235.90,-3.73,-0.35,-3.74,-0.36,0.35,0.54,0.59,-3.38,-3.39,-3.38
238.26,-3.73,-0.35,-3.72,-0.33,0.33,0.54,0.60,-3.40,-3.38,-3.38
240.64,-3.68,-0.30,-3.70,-0.32,0.31,0.54,0.61,-3.37,-3.39,-3.38
243.05,-3.68,-0.30,-3.68,-0.30,0.29,0.54,0.62,-3.39,-3.39,-3.38
245.48,-3.67,-0.29,-3.66,-0.28,0.28,0.54,0.62,-3.40,-3.38,-3.38
247.93,-3.63,-0.25,-3.65,-0.26,0.26,0.54,0.63,-3.37,-3.38,-3.38
250.41,-3.63,-0.25,-3.63,-0.25,0.25,0.54,0.63,-3.38,-3.38,-3.38
252.92,-3.63,-0.25,-3.63,-0.24,0.25,0.53,0.63,-3.38,-3.38,-3.38
255.45,-3.63,-0.25,-3.63,-0.25,0.25,0.52,0.62,-3.38,-3.38,-3.38
258.00,-3.63,-0.25,-3.64,-0.26,0.27,0.51,0.62,-3.36,-3.37,-3.38
260.58,-3.66,-0.28,-3.66,-0.28,0.29,0.50,0.61,-3.37,-3.37,-3.38
263.19,-3.69,-0.31,-3.69,-0.31,0.32,0.49,0.60,-3.37,-3.37,-3.38
265.82,-3.73,-0.35,-3.74,-0.35,0.36,0.48,0.59,-3.37,-3.37,-3.38
268.48,-3.78,-0.40,-3.78,-0.40,0.40,0.46,0.58,-3.38,-3.38,-3.38
271.16,-3.82,-0.44,-3.83,-0.44,0.44,0.45,0.56,-3.38,-3.39,-3.38
273.87,-3.86,-0.48,-3.87,-0.48,0.47,0.43,0.55,-3.39,-3.39,-3.38
276.61,-3.90,-0.52,-3.90,-0.52,0.50,0.41,0.53,-3.41,-3.40,-3.38
279.38,-3.91,-0.53,-3.91,-0.53,0.51,0.39,0.51,-3.40,-3.40,-3.38
282.17,-3.91,-0.53,-3.91,-0.53,0.51,0.37,0.49,-3.40,-3.40,-3.38
284.99,-3.88,-0.50,-3.89,-0.51,0.50,0.35,0.47,-3.38,-3.39,-3.38
287.84,-3.87,-0.49,-3.86,-0.48,0.48,0.33,0.44,-3.39,-3.38,-3.38
290.72,-3.82,-0.44,-3.83,-0.45,0.46,0.30,0.42,-3.37,-3.37,-3.38
293.63,-3.79,-0.41,-3.80,-0.42,0.42,0.28,0.39,-3.37,-3.38,-3.38
296.57,-3.76,-0.38,-3.76,-0.38,0.38,0.26,0.37,-3.38,-3.38,-3.38
299.53,-3.73,-0.35,-3.73,-0.34,0.34,0.23,0.34,-3.39,-3.38,-3.38
302.53,-3.68,-0.30,-3.69,-0.30,0.31,0.20,0.31,-3.38,-3.38,-3.38
305.55,-3.64,-0.26,-3.65,-0.27,0.27,0.18,0.28,-3.37,-3.38,-3.38
308.61,-3.61,-0.23,-3.61,-0.23,0.23,0.15,0.26,-3.38,-3.38,-3.38
311.69,-3.58,-0.20,-3.58,-0.20,0.20,0.12,0.23,-3.38,-3.38,-3.38
314.81,-3.54,-0.16,-3.55,-0.17,0.17,0.10,0.20,-3.37,-3.38,-3.38
317.96,-3.52,-0.14,-3.52,-0.14,0.14,0.07,0.17,-3.39,-3.38,-3.38
321.14,-3.49,-0.11,-3.49,-0.11,0.11,0.04,0.14,-3.39,-3.38,-3.38
324.35,-3.45,-0.07,-3.46,-0.08,0.07,0.01,0.11,-3.38,-3.39,-3.38
327.59,-3.42,-0.04,-3.43,-0.05,0.04,-0.01,0.08,-3.38,-3.39,-3.38
330.87,-3.40,-0.02,-3.39,-0.01,0.01,-0.04,0.05,-3.39,-3.38,-3.38
334.18,-3.36,0.02,-3.36,0.02,-0.02,-0.07,0.02,-3.38,-3.38,-3.38
337.52,-3.31,0.07,-3.33,0.05,-0.05,-0.10,-0.01,-3.37,-3.38,-3.38
340.90,-3.30,0.08,-3.29,0.09,-0.09,-0.13,-0.05,-3.39,-3.38,-3.38
344.30,-3.26,0.12,-3.26,0.12,-0.12,-0.15,-0.08,-3.38,-3.38,-3.38
347.75,-3.22,0.16,-3.24,0.15,-0.15,-0.18,-0.11,-3.37,-3.39,-3.38
351.23,-3.21,0.17,-3.20,0.18,-0.18,-0.21,-0.14,-3.40,-3.38,-3.38
354.74,-3.17,0.21,-3.17,0.21,-0.21,-0.24,-0.17,-3.39,-3.38,-3.38
358.28,-3.12,0.26,-3.14,0.24,-0.25,-0.27,-0.20,-3.37,-3.38,-3.38
361.87,-3.10,0.28,-3.10,0.28,-0.28,-0.29,-0.23,-3.38,-3.38,-3.38
365.49,-3.08,0.30,-3.07,0.31,-0.31,-0.32,-0.26,-3.39,-3.38,-3.38
369.14,-3.03,0.35,-3.04,0.34,-0.34,-0.35,-0.29,-3.37,-3.38,-3.38
372.83,-3.00,0.38,-3.01,0.38,-0.37,-0.38,-0.33,-3.38,-3.38,-3.38
376.56,-2.98,0.40,-2.98,0.41,-0.40,-0.40,-0.36,-3.39,-3.38,-3.38
380.33,-2.94,0.44,-2.95,0.43,-0.43,-0.43,-0.39,-3.37,-3.38,-3.38
384.13,-2.93,0.45,-2.93,0.46,-0.46,-0.46,-0.42,-3.39,-3.38,-3.38
387.97,-2.89,0.49,-2.90,0.48,-0.49,-0.49,-0.45,-3.38,-3.39,-3.38
391.85,-2.87,0.51,-2.87,0.51,-0.51,-0.51,-0.48,-3.39,-3.38,-3.38
395.77,-2.84,0.54,-2.84,0.54,-0.54,-0.54,-0.52,-3.38,-3.38,-3.38
399.73,-2.80,0.58,-2.81,0.57,-0.57,-0.57,-0.55,-3.37,-3.38,-3.38
403.72,-2.80,0.58,-2.79,0.59,-0.59,-0.60,-0.58,-3.39,-3.38,-3.38
407.76,-2.75,0.63,-2.76,0.62,-0.62,-0.62,-0.61,-3.37,-3.38,-3.38
411.84,-2.75,0.63,-2.74,0.64,-0.64,-0.65,-0.64,-3.39,-3.38,-3.38
415.96,-2.70,0.68,-2.72,0.67,-0.67,-0.68,-0.67,-3.37,-3.38,-3.38
420.12,-2.70,0.68,-2.69,0.69,-0.69,-0.71,-0.71,-3.40,-3.39,-3.38
424.32,-2.66,0.72,-2.66,0.72,-0.72,-0.73,-0.74,-3.38,-3.38,-3.38
428.56,-2.63,0.75,-2.64,0.74,-0.75,-0.76,-0.77,-3.38,-3.38,-3.38
432.85,-2.61,0.77,-2.61,0.77,-0.77,-0.79,-0.80,-3.39,-3.38,-3.38
437.18,-2.57,0.81,-2.58,0.80,-0.80,-0.82,-0.83,-3.37,-3.38,-3.38
