frequency,raw,error,smoothed,error_smoothed,equalization,parametric_eq,fixed_band_eq,equalized_raw,equalized_smoothed,target
20.00,-1.44,-1.69,-1.44,-1.69,1.69,1.07,0.03,0.25,0.25,0.25
20.20,-1.42,-1.65,-1.42,-1.64,1.64,1.05,0.04,0.22,0.22,0.23
20.40,-1.40,-1.60,-1.40,-1.60,1.59,1.03,0.04,0.19,0.20,0.20
20.61,-1.37,-1.55,-1.37,-1.55,1.54,1.01,0.04,0.17,0.17,0.18
20.81,-1.33,-1.49,-1.34,-1.49,1.49,0.98,0.04,0.16,0.15,0.16
21.02,-1.31,-1.44,-1.31,-1.44,1.44,0.96,0.05,0.13,0.14,0.13
21.23,-1.28,-1.39,-1.28,-1.39,1.39,0.94,0.05,0.11,0.11,0.11
21.44,-1.25,-1.34,-1.26,-1.34,1.34,0.92,0.05,0.09,0.09,0.09
21.66,-1.23,-1.30,-1.23,-1.29,1.29,0.89,0.06,0.06,0.06,0.07
21.87,-1.20,-1.25,-1.20,-1.25,1.24,0.87,0.06,0.04,0.04,0.05
22.09,-1.17,-1.20,-1.17,-1.20,1.19,0.84,0.06,0.02,0.02,0.03
22.31,-1.14,-1.15,-1.14,-1.14,1.14,0.82,0.07,-0.00,-0.00,0.01
22.54,-1.11,-1.09,-1.11,-1.09,1.09,0.80,0.07,-0.02,-0.02,-0.02
22.76,-1.07,-1.03,-1.08,-1.03,1.04,0.77,0.07,-0.04,-0.04,-0.04
22.99,-1.04,-0.98,-1.04,-0.98,0.98,0.75,0.08,-0.06,-0.06,-0.06
23.22,-1.01,-0.93,-1.01,-0.93,0.93,0.72,0.08,-0.09,-0.08,-0.08
23.45,-0.97,-0.88,-0.97,-0.88,0.87,0.69,0.08,-0.10,-0.10,-0.09
23.69,-0.93,-0.82,-0.93,-0.82,0.82,0.67,0.09,-0.11,-0.11,-0.11
23.92,-0.89,-0.77,-0.89,-0.77,0.77,0.64,0.09,-0.12,-0.12,-0.12
24.16,-0.85,-0.71,-0.86,-0.72,0.72,0.61,0.10,-0.13,-0.14,-0.14
24.40,-0.83,-0.68,-0.82,-0.67,0.67,0.59,0.10,-0.16,-0.15,-0.15
24.65,-0.79,-0.63,-0.79,-0.62,0.62,0.56,0.10,-0.17,-0.17,-0.16
24.89,-0.75,-0.57,-0.76,-0.58,0.57,0.53,0.11,-0.18,-0.18,-0.18
25.14,-0.72,-0.53,-0.72,-0.53,0.53,0.50,0.11,-0.19,-0.19,-0.19
25.39,-0.68,-0.48,-0.68,-0.48,0.48,0.48,0.12,-0.20,-0.20,-0.20
25.65,-0.65,-0.44,-0.65,-0.44,0.43,0.45,0.12,-0.22,-0.21,-0.21
25.91,-0.61,-0.39,-0.62,-0.39,0.39,0.42,0.12,-0.22,-0.23,-0.22
26.16,-0.58,-0.35,-0.58,-0.34,0.34,0.39,0.12,-0.24,-0.24,-0.23
26.43,-0.55,-0.30,-0.55,-0.30,0.30,0.36,0.13,-0.26,-0.25,-0.25
26.69,-0.51,-0.25,-0.52,-0.25,0.25,0.33,0.13,-0.26,-0.26,-0.26
26.96,-0.48,-0.21,-0.48,-0.20,0.21,0.30,0.13,-0.28,-0.27,-0.27
27.23,-0.44,-0.16,-0.45,-0.16,0.16,0.27,0.13,-0.28,-0.28,-0.28
27.50,-0.41,-0.12,-0.41,-0.12,0.12,0.24,0.13,-0.29,-0.29,-0.29
27.77,-0.37,-0.08,-0.37,-0.07,0.07,0.21,0.13,-0.30,-0.30,-0.29
28.05,-0.33,-0.03,-0.34,-0.03,0.03,0.18,0.13,-0.30,-0.31,-0.30
28.33,-0.30,0.01,-0.30,0.01,-0.01,0.14,0.13,-0.31,-0.31,-0.31
28.62,-0.26,0.05,-0.26,0.05,-0.05,0.11,0.12,-0.32,-0.32,-0.31
28.90,-0.22,0.10,-0.23,0.10,-0.10,0.08,0.12,-0.32,-0.32,-0.32
29.19,-0.19,0.13,-0.19,0.14,-0.14,0.05,0.11,-0.33,-0.33,-0.32
29.48,-0.15,0.18,-0.15,0.18,-0.18,0.01,0.11,-0.33,-0.33,-0.33
29.78,-0.12,0.21,-0.12,0.22,-0.22,-0.02,0.10,-0.34,-0.34,-0.33
30.08,-0.08,0.26,-0.09,0.25,-0.25,-0.05,0.09,-0.34,-0.34,-0.34
30.38,-0.06,0.28,-0.06,0.29,-0.29,-0.09,0.08,-0.35,-0.35,-0.34
30.68,-0.02,0.33,-0.03,0.33,-0.33,-0.12,0.07,-0.35,-0.35,-0.35
30.99,0.01,0.37,0.00,0.36,-0.36,-0.15,0.06,-0.36,-0.36,-0.36
31.30,0.03,0.39,0.03,0.40,-0.40,-0.19,0.05,-0.37,-0.37,-0.36
31.61,0.06,0.43,0.05,0.43,-0.43,-0.22,0.03,-0.37,-0.38,-0.37
31.93,0.08,0.46,0.08,0.46,-0.46,-0.26,0.01,-0.39,-0.38,-0.38
32.24,0.11,0.49,0.11,0.50,-0.50,-0.29,-0.00,-0.39,-0.39,-0.38
32.57,0.14,0.53,0.14,0.53,-0.53,-0.33,-0.02,-0.39,-0.40,-0.39
32.89,0.16,0.56,0.16,0.56,-0.56,-0.37,-0.04,-0.41,-0.40,-0.40
33.22,0.19,0.60,0.18,0.60,-0.60,-0.40,-0.07,-0.41,-0.41,-0.41
33.55,0.20,0.62,0.20,0.63,-0.63,-0.44,-0.09,-0.43,-0.42,-0.42
33.89,0.23,0.66,0.23,0.66,-0.66,-0.47,-0.11,-0.43,-0.43,-0.43
34.23,0.25,0.69,0.25,0.69,-0.69,-0.51,-0.14,-0.44,-0.44,-0.44
34.57,0.28,0.72,0.27,0.72,-0.72,-0.55,-0.17,-0.44,-0.45,-0.44
34.92,0.30,0.75,0.30,0.75,-0.75,-0.58,-0.19,-0.45,-0.45,-0.45
35.27,0.32,0.78,0.32,0.78,-0.78,-0.62,-0.22,-0.46,-0.46,-0.46
35.62,0.35,0.81,0.34,0.81,-0.81,-0.66,-0.25,-0.46,-0.47,-0.46
35.97,0.37,0.84,0.37,0.84,-0.84,-0.70,-0.28,-0.47,-0.47,-0.47
36.33,0.40,0.87,0.39,0.87,-0.87,-0.73,-0.32,-0.48,-0.48,-0.47
36.70,0.42,0.90,0.42,0.90,-0.91,-0.77,-0.35,-0.49,-0.49,-0.48
37.06,0.45,0.94,0.45,0.94,-0.94,-0.81,-0.38,-0.49,-0.49,-0.49
37.43,0.48,0.97,0.48,0.97,-0.97,-0.85,-0.42,-0.50,-0.50,-0.49
37.81,0.51,1.01,0.51,1.01,-1.01,-0.89,-0.46,-0.50,-0.50,-0.50
38.19,0.54,1.04,0.54,1.04,-1.04,-0.92,-0.49,-0.51,-0.51,-0.50
38.57,0.57,1.08,0.57,1.08,-1.08,-0.96,-0.53,-0.51,-0.51,-0.51
38.95,0.60,1.11,0.60,1.11,-1.11,-1.00,-0.57,-0.51,-0.52,-0.51
39.34,0.63,1.15,0.63,1.15,-1.15,-1.04,-0.61,-0.52,-0.52,-0.52
39.74,0.66,1.18,0.66,1.18,-1.18,-1.08,-0.65,-0.53,-0.53,-0.52
40.14,0.69,1.22,0.68,1.22,-1.22,-1.12,-0.69,-0.53,-0.53,-0.53
40.54,0.71,1.24,0.71,1.25,-1.25,-1.16,-0.73,-0.55,-0.54,-0.53
40.94,0.75,1.29,0.75,1.29,-1.29,-1.20,-0.78,-0.54,-0.55,-0.54
41.35,0.78,1.32,0.78,1.33,-1.33,-1.23,-0.82,-0.55,-0.55,-0.54
41.76,0.82,1.37,0.82,1.37,-1.36,-1.27,-0.86,-0.55,-0.55,-0.55
42.18,0.85,1.40,0.85,1.40,-1.40,-1.31,-0.91,-0.55,-0.55,-0.55
42.60,0.88,1.44,0.88,1.44,-1.44,-1.35,-0.96,-0.56,-0.56,-0.56
43.03,0.91,1.47,0.91,1.47,-1.48,-1.39,-1.00,-0.57,-0.57,-0.56
43.46,0.94,1.51,0.94,1.51,-1.51,-1.43,-1.05,-0.58,-0.57,-0.57
43.90,0.98,1.55,0.98,1.55,-1.55,-1.47,-1.10,-0.57,-0.58,-0.57
44.33,1.02,1.59,1.01,1.59,-1.59,-1.51,-1.15,-0.57,-0.58,-0.57
44.78,1.04,1.62,1.04,1.62,-1.62,-1.55,-1.20,-0.59,-0.58,-0.58
45.23,1.08,1.66,1.08,1.66,-1.66,-1.59,-1.25,-0.58,-0.58,-0.58
45.68,1.11,1.69,1.11,1.69,-1.69,-1.62,-1.30,-0.59,-0.59,-0.58
46.13,1.15,1.73,1.15,1.73,-1.73,-1.66,-1.36,-0.58,-0.58,-0.58
46.60,1.18,1.76,1.18,1.76,-1.76,-1.70,-1.41,-0.58,-0.58,-0.58
47.06,1.21,1.79,1.21,1.79,-1.79,-1.74,-1.46,-0.58,-0.58,-0.58
47.53,1.24,1.82,1.24,1.82,-1.82,-1.78,-1.52,-0.58,-0.58,-0.58
48.01,1.27,1.85,1.27,1.85,-1.85,-1.82,-1.58,-0.58,-0.58,-0.58
48.49,1.30,1.88,1.29,1.88,-1.88,-1.85,-1.63,-0.58,-0.59,-0.58
48.97,1.32,1.90,1.32,1.90,-1.91,-1.89,-1.69,-0.59,-0.59,-0.58
49.46,1.35,1.93,1.35,1.93,-1.94,-1.93,-1.75,-0.59,-0.59,-0.58
49.96,1.38,1.96,1.38,1.96,-1.97,-1.97,-1.80,-0.59,-0.59,-0.58
50.46,1.42,2.00,1.41,2.00,-1.99,-2.00,-1.86,-0.58,-0.58,-0.58
50.96,1.44,2.02,1.44,2.02,-2.02,-2.04,-1.92,-0.58,-0.58,-0.58
51.47,1.47,2.05,1.47,2.05,-2.05,-2.08,-1.98,-0.58,-0.58,-0.58
51.99,1.49,2.07,1.49,2.07,-2.07,-2.11,-2.04,-0.59,-0.59,-0.58
52.51,1.52,2.10,1.51,2.10,-2.10,-2.15,-2.09,-0.58,-0.59,-0.58
53.03,1.54,2.12,1.54,2.13,-2.13,-2.18,-2.15,-0.59,-0.59,-0.58
53.56,1.57,2.15,1.57,2.15,-2.15,-2.22,-2.21,-0.59,-0.59,-0.58
54.10,1.60,2.18,1.59,2.18,-2.18,-2.25,-2.26,-0.58,-0.58,-0.58
54.64,1.62,2.20,1.62,2.20,-2.20,-2.29,-2.32,-0.59,-0.58,-0.58
55.18,1.65,2.23,1.64,2.23,-2.23,-2.32,-2.37,-0.58,-0.59,-0.58
55.74,1.67,2.25,1.67,2.26,-2.26,-2.36,-2.42,-0.59,-0.59,-0.58
56.29,1.70,2.28,1.70,2.28,-2.28,-2.39,-2.48,-0.58,-0.58,-0.58
56.86,1.73,2.31,1.72,2.31,-2.31,-2.42,-2.52,-0.58,-0.58,-0.58
57.42,1.75,2.33,1.75,2.33,-2.33,-2.46,-2.57,-0.58,-0.58,-0.58
58.00,1.78,2.35,1.78,2.35,-2.35,-2.49,-2.61,-0.58,-0.58,-0.57
58.58,1.80,2.37,1.80,2.38,-2.38,-2.52,-2.65,-0.58,-0.58,-0.57
59.16,1.83,2.40,1.83,2.40,-2.40,-2.55,-2.69,-0.57,-0.57,-0.57
59.76,1.85,2.42,1.85,2.42,-2.42,-2.58,-2.73,-0.58,-0.57,-0.57
60.35,1.88,2.44,1.87,2.44,-2.45,-2.61,-2.76,-0.57,-0.57,-0.56
60.96,1.90,2.46,1.90,2.47,-2.47,-2.64,-2.79,-0.57,-0.57,-0.56
61.57,1.93,2.49,1.93,2.49,-2.49,-2.67,-2.82,-0.56,-0.56,-0.56
62.18,1.96,2.52,1.95,2.52,-2.51,-2.70,-2.84,-0.55,-0.56,-0.56
62.80,1.98,2.54,1.98,2.54,-2.53,-2.73,-2.86,-0.56,-0.56,-0.56
63.43,2.00,2.55,2.00,2.56,-2.56,-2.76,-2.87,-0.56,-0.56,-0.55
64.07,2.02,2.57,2.02,2.58,-2.58,-2.79,-2.88,-0.56,-0.56,-0.55
64.71,2.05,2.60,2.04,2.60,-2.60,-2.81,-2.89,-0.55,-0.56,-0.55
65.35,2.07,2.62,2.07,2.62,-2.62,-2.84,-2.90,-0.56,-0.56,-0.55
66.01,2.09,2.64,2.09,2.65,-2.65,-2.87,-2.90,-0.56,-0.55,-0.55
66.67,2.12,2.67,2.12,2.67,-2.67,-2.89,-2.90,-0.55,-0.55,-0.55
67.33,2.15,2.70,2.14,2.70,-2.69,-2.92,-2.90,-0.54,-0.55,-0.55
68.01,2.16,2.71,2.16,2.72,-2.71,-2.94,-2.90,-0.56,-0.55,-0.55
68.69,2.19,2.74,2.18,2.74,-2.74,-2.97,-2.89,-0.55,-0.56,-0.55
69.37,2.20,2.75,2.20,2.75,-2.76,-2.99,-2.88,-0.56,-0.56,-0.55
70.07,2.22,2.77,2.22,2.78,-2.78,-3.01,-2.87,-0.56,-0.55,-0.55
70.77,2.25,2.80,2.24,2.80,-2.80,-3.03,-2.86,-0.55,-0.55,-0.55
71.48,2.27,2.82,2.26,2.82,-2.82,-3.05,-2.85,-0.55,-0.55,-0.55
72.19,2.28,2.83,2.28,2.84,-2.84,-3.08,-2.84,-0.56,-0.55,-0.55
72.91,2.30,2.85,2.30,2.86,-2.86,-3.10,-2.83,-0.56,-0.56,-0.55
73.64,2.32,2.88,2.31,2.87,-2.88,-3.12,-2.81,-0.56,-0.56,-0.56
74.38,2.33,2.89,2.33,2.90,-2.90,-3.13,-2.80,-0.57,-0.56,-0.56
75.12,2.35,2.91,2.35,2.92,-2.92,-3.15,-2.79,-0.57,-0.57,-0.56
75.87,2.37,2.94,2.36,2.93,-2.94,-3.17,-2.77,-0.57,-0.57,-0.57
76.63,2.38,2.95,2.38,2.96,-2.96,-3.19,-2.76,-0.58,-0.58,-0.57
77.40,2.40,2.98,2.40,2.98,-2.98,-3.21,-2.75,-0.58,-0.58,-0.58
78.17,2.41,3.00,2.41,3.00,-3.00,-3.22,-2.74,-0.60,-0.59,-0.59
78.95,2.43,3.03,2.42,3.03,-3.03,-3.24,-2.73,-0.60,-0.60,-0.60
79.74,2.44,3.05,2.44,3.05,-3.05,-3.25,-2.72,-0.61,-0.62,-0.61
80.54,2.45,3.07,2.45,3.08,-3.08,-3.27,-2.72,-0.63,-0.63,-0.62
81.35,2.47,3.10,2.47,3.10,-3.10,-3.28,-2.71,-0.64,-0.64,-0.63
82.16,2.49,3.13,2.48,3.13,-3.13,-3.30,-2.71,-0.64,-0.64,-0.64
82.98,2.50,3.15,2.50,3.15,-3.15,-3.31,-2.71,-0.65,-0.65,-0.65
83.81,2.51,3.17,2.51,3.18,-3.17,-3.32,-2.71,-0.67,-0.67,-0.66
84.65,2.52,3.20,2.52,3.20,-3.20,-3.33,-2.72,-0.68,-0.68,-0.68
85.50,2.53,3.22,2.53,3.22,-3.22,-3.35,-2.72,-0.69,-0.69,-0.69
86.35,2.55,3.24,2.54,3.24,-3.24,-3.36,-2.73,-0.69,-0.70,-0.69
87.22,2.55,3.25,2.55,3.26,-3.26,-3.37,-2.74,-0.71,-0.71,-0.70
88.09,2.57,3.28,2.57,3.28,-3.28,-3.38,-2.75,-0.71,-0.72,-0.71
88.97,2.58,3.30,2.58,3.30,-3.30,-3.39,-2.76,-0.72,-0.72,-0.72
89.86,2.59,3.32,2.59,3.32,-3.32,-3.40,-2.78,-0.73,-0.73,-0.73
90.76,2.60,3.33,2.60,3.34,-3.33,-3.41,-2.80,-0.74,-0.73,-0.73
91.66,2.61,3.35,2.61,3.35,-3.35,-3.41,-2.82,-0.74,-0.74,-0.74
92.58,2.62,3.36,2.61,3.36,-3.36,-3.42,-2.84,-0.75,-0.75,-0.74
93.51,2.62,3.37,2.63,3.38,-3.38,-3.43,-2.86,-0.76,-0.75,-0.75
94.44,2.64,3.39,2.63,3.39,-3.39,-3.44,-2.89,-0.75,-0.76,-0.75
95.39,2.65,3.41,2.64,3.41,-3.40,-3.44,-2.92,-0.76,-0.76,-0.76
96.34,2.65,3.41,2.65,3.42,-3.42,-3.45,-2.95,-0.77,-0.77,-0.76
97.30,2.66,3.43,2.66,3.43,-3.43,-3.46,-2.98,-0.77,-0.77,-0.77
98.28,2.67,3.44,2.67,3.44,-3.45,-3.46,-3.01,-0.78,-0.78,-0.77
99.26,2.68,3.46,2.68,3.46,-3.46,-3.47,-3.05,-0.78,-0.79,-0.78
100.25,2.68,3.47,2.68,3.47,-3.47,-3.47,-3.09,-0.80,-0.79,-0.79
101.25,2.69,3.49,2.68,3.49,-3.49,-3.48,-3.12,-0.80,-0.80,-0.80
102.27,2.69,3.50,2.69,3.50,-3.50,-3.48,-3.16,-0.81,-0.81,-0.81
103.29,2.69,3.51,2.69,3.52,-3.51,-3.49,-3.20,-0.83,-0.82,-0.82
104.32,2.70,3.53,2.69,3.53,-3.53,-3.49,-3.24,-0.83,-0.83,-0.83
105.37,2.70,3.54,2.69,3.54,-3.54,-3.50,-3.28,-0.84,-0.85,-0.84
106.42,2.69,3.54,2.69,3.55,-3.55,-3.50,-3.32,-0.86,-0.85,-0.85
107.48,2.69,3.55,2.69,3.56,-3.56,-3.51,-3.36,-0.87,-0.87,-0.86
108.56,2.70,3.57,2.69,3.56,-3.57,-3.51,-3.40,-0.87,-0.88,-0.87
109.64,2.69,3.57,2.69,3.58,-3.57,-3.51,-3.43,-0.89,-0.88,-0.88
110.74,2.69,3.58,2.69,3.58,-3.58,-3.52,-3.47,-0.89,-0.89,-0.89
111.85,2.69,3.59,2.68,3.59,-3.59,-3.52,-3.51,-0.90,-0.91,-0.90
112.97,2.68,3.59,2.68,3.59,-3.59,-3.52,-3.54,-0.92,-0.92,-0.91
114.10,2.67,3.59,2.67,3.60,-3.60,-3.53,-3.57,-0.93,-0.92,-0.92
115.24,2.67,3.60,2.66,3.60,-3.60,-3.53,-3.60,-0.93,-0.93,-0.93
116.39,2.66,3.60,2.65,3.60,-3.60,-3.53,-3.63,-0.94,-0.94,-0.94
117.55,2.64,3.59,2.64,3.60,-3.59,-3.53,-3.65,-0.95,-0.95,-0.95
118.73,2.63,3.59,2.63,3.59,-3.59,-3.53,-3.67,-0.96,-0.96,-0.96
119.92,2.61,3.57,2.61,3.58,-3.58,-3.53,-3.69,-0.97,-0.97,-0.96
121.12,2.60,3.57,2.59,3.57,-3.57,-3.53,-3.70,-0.97,-0.97,-0.97
122.33,2.58,3.55,2.58,3.55,-3.56,-3.52,-3.71,-0.98,-0.98,-0.97
123.55,2.56,3.54,2.56,3.54,-3.54,-3.52,-3.71,-0.99,-0.98,-0.98
124.79,2.55,3.53,2.54,3.53,-3.53,-3.51,-3.71,-0.98,-0.99,-0.98
126.03,2.53,3.52,2.53,3.52,-3.52,-3.51,-3.71,-0.99,-0.99,-0.99
127.29,2.51,3.50,2.51,3.50,-3.51,-3.50,-3.70,-1.00,-1.00,-0.99
128.57,2.49,3.48,2.49,3.49,-3.49,-3.49,-3.69,-1.00,-1.00,-0.99
129.85,2.48,3.48,2.47,3.48,-3.48,-3.47,-3.67,-1.00,-1.00,-1.00
131.15,2.46,3.46,2.46,3.46,-3.46,-3.46,-3.65,-1.00,-1.00,-1.00
132.46,2.44,3.44,2.44,3.44,-3.44,-3.44,-3.63,-1.00,-1.00,-1.00
133.79,2.42,3.42,2.42,3.42,-3.42,-3.42,-3.60,-1.00,-1.00,-1.00
135.12,2.40,3.40,2.39,3.40,-3.40,-3.40,-3.57,-1.00,-1.00,-1.00
136.48,2.37,3.37,2.37,3.37,-3.37,-3.37,-3.54,-1.01,-1.00,-1.00
137.84,2.35,3.34,2.35,3.35,-3.35,-3.35,-3.50,-1.00,-1.00,-0.99
139.22,2.33,3.32,2.33,3.32,-3.32,-3.32,-3.47,-1.00,-1.00,-0.99
140.61,2.31,3.30,2.31,3.30,-3.30,-3.29,-3.43,-0.99,-0.99,-0.99
142.02,2.29,3.27,2.28,3.27,-3.27,-3.26,-3.38,-0.98,-0.98,-0.98
143.44,2.26,3.23,2.26,3.24,-3.24,-3.23,-3.34,-0.98,-0.98,-0.97
144.87,2.24,3.21,2.24,3.21,-3.21,-3.19,-3.30,-0.97,-0.97,-0.97
146.32,2.22,3.18,2.21,3.18,-3.18,-3.16,-3.25,-0.96,-0.96,-0.96
147.78,2.19,3.14,2.19,3.15,-3.14,-3.12,-3.21,-0.96,-0.96,-0.95
149.26,2.16,3.11,2.16,3.11,-3.11,-3.09,-3.16,-0.95,-0.95,-0.95
150.75,2.13,3.07,2.13,3.07,-3.07,-3.05,-3.12,-0.94,-0.94,-0.94
152.26,2.10,3.03,2.10,3.03,-3.03,-3.01,-3.07,-0.94,-0.94,-0.93
153.78,2.07,2.99,2.07,2.99,-2.99,-2.97,-3.03,-0.93,-0.92,-0.92
155.32,2.04,2.95,2.04,2.95,-2.95,-2.93,-2.98,-0.91,-0.91,-0.91
156.88,2.01,2.91,2.01,2.91,-2.91,-2.90,-2.94,-0.90,-0.90,-0.90
158.44,1.97,2.86,1.97,2.86,-2.87,-2.86,-2.90,-0.90,-0.90,-0.89
160.03,1.94,2.82,1.93,2.82,-2.82,-2.82,-2.86,-0.88,-0.89,-0.88
161.63,1.90,2.77,1.90,2.78,-2.78,-2.78,-2.82,-0.88,-0.88,-0.87
163.24,1.87,2.73,1.87,2.73,-2.73,-2.74,-2.78,-0.86,-0.86,-0.86
164.88,1.84,2.69,1.83,2.69,-2.69,-2.69,-2.75,-0.85,-0.85,-0.85
166.53,1.80,2.64,1.80,2.64,-2.64,-2.65,-2.71,-0.84,-0.84,-0.84
168.19,1.76,2.59,1.76,2.59,-2.59,-2.61,-2.68,-0.84,-0.84,-0.83
169.87,1.72,2.54,1.72,2.55,-2.55,-2.57,-2.65,-0.83,-0.83,-0.82
171.57,1.68,2.50,1.68,2.50,-2.50,-2.53,-2.62,-0.82,-0.82,-0.82
173.29,1.64,2.45,1.64,2.45,-2.45,-2.48,-2.59,-0.81,-0.81,-0.81
175.02,1.60,2.40,1.60,2.40,-2.40,-2.44,-2.57,-0.80,-0.81,-0.80
176.77,1.55,2.35,1.55,2.35,-2.35,-2.39,-2.55,-0.81,-0.80,-0.80
178.54,1.51,2.30,1.51,2.30,-2.30,-2.34,-2.53,-0.80,-0.80,-0.79
180.32,1.46,2.25,1.46,2.25,-2.25,-2.30,-2.51,-0.80,-0.80,-0.79
182.13,1.41,2.20,1.41,2.20,-2.20,-2.24,-2.49,-0.80,-0.79,-0.79
183.95,1.36,2.15,1.36,2.15,-2.15,-2.19,-2.47,-0.79,-0.79,-0.79
185.79,1.31,2.10,1.31,2.10,-2.10,-2.14,-2.46,-0.79,-0.79,-0.79
187.65,1.26,2.05,1.25,2.05,-2.05,-2.08,-2.45,-0.79,-0.79,-0.79
189.52,1.19,1.98,1.20,1.99,-1.99,-2.03,-2.44,-0.80,-0.79,-0.79
191.42,1.15,1.94,1.14,1.94,-1.94,-1.97,-2.43,-0.79,-0.79,-0.79
193.33,1.09,1.88,1.09,1.88,-1.88,-1.90,-2.43,-0.79,-0.79,-0.79
195.27,1.03,1.82,1.03,1.82,-1.82,-1.84,-2.42,-0.79,-0.80,-0.79
197.22,0.96,1.76,0.96,1.76,-1.76,-1.77,-2.42,-0.81,-0.80,-0.80
199.19,0.90,1.70,0.90,1.71,-1.71,-1.71,-2.42,-0.81,-0.81,-0.80
201.18,0.85,1.66,0.84,1.65,-1.65,-1.64,-2.42,-0.80,-0.81,-0.81
203.19,0.78,1.59,0.78,1.59,-1.59,-1.57,-2.42,-0.82,-0.82,-0.81
205.23,0.71,1.53,0.71,1.54,-1.54,-1.51,-2.42,-0.83,-0.82,-0.82
207.28,0.66,1.48,0.65,1.48,-1.48,-1.45,-2.42,-0.83,-0.83,-0.82
209.35,0.60,1.43,0.60,1.43,-1.43,-1.39,-2.43,-0.83,-0.83,-0.83
211.44,0.55,1.39,0.54,1.39,-1.38,-1.34,-2.43,-0.83,-0.84,-0.84
213.56,0.49,1.33,0.49,1.34,-1.33,-1.31,-2.44,-0.85,-0.85,-0.84
215.69,0.44,1.29,0.44,1.29,-1.29,-1.28,-2.44,-0.85,-0.86,-0.85
217.85,0.39,1.24,0.39,1.25,-1.25,-1.26,-2.44,-0.87,-0.86,-0.85
220.03,0.36,1.22,0.36,1.22,-1.22,-1.26,-2.45,-0.86,-0.86,-0.86
222.23,0.34,1.20,0.33,1.19,-1.19,-1.27,-2.45,-0.86,-0.86,-0.86
224.45,0.31,1.17,0.31,1.17,-1.17,-1.28,-2.45,-0.86,-0.86,-0.86
226.70,0.29,1.15,0.30,1.16,-1.16,-1.31,-2.46,-0.87,-0.86,-0.86
228.96,0.30,1.16,0.29,1.15,-1.16,-1.35,-2.46,-0.86,-0.87,-0.86
231.25,0.30,1.16,0.30,1.16,-1.16,-1.39,-2.46,-0.86,-0.86,-0.86
233.57,0.32,1.17,0.32,1.18,-1.18,-1.43,-2.46,-0.86,-0.86,-0.85
235.90,0.35,1.20,0.35,1.20,-1.20,-1.48,-2.45,-0.86,-0.85,-0.85
238.26,0.40,1.24,0.39,1.24,-1.24,-1.52,-2.45,-0.84,-0.85,-0.84
240.64,0.45,1.28,0.45,1.29,-1.29,-1.57,-2.44,-0.84,-0.84,-0.83
243.05,0.52,1.35,0.52,1.35,-1.35,-1.62,-2.43,-0.83,-0.83,-0.83
245.48,0.60,1.42,0.60,1.42,-1.42,-1.67,-2.42,-0.83,-0.83,-0.82
247.93,0.69,1.50,0.69,1.51,-1.51,-1.72,-2.40,-0.82,-0.82,-0.81
250.41,0.80,1.60,0.80,1.60,-1.61,-1.76,-2.39,-0.81,-0.81,-0.80
252.92,0.92,1.72,0.91,1.71,-1.72,-1.81,-2.37,-0.80,-0.81,-0.80
255.45,1.04,1.83,1.04,1.84,-1.84,-1.87,-2.35,-0.80,-0.80,-0.79
258.00,1.18,1.96,1.18,1.97,-1.97,-1.92,-2.33,-0.79,-0.79,-0.78
260.58,1.33,2.11,1.32,2.11,-2.11,-1.98,-2.30,-0.78,-0.79,-0.78
263.19,1.47,2.25,1.47,2.25,-2.25,-2.03,-2.27,-0.79,-0.78,-0.78
265.82,1.63,2.40,1.62,2.40,-2.40,-2.10,-2.24,-0.78,-0.78,-0.77
268.48,1.78,2.55,1.78,2.55,-2.55,-2.16,-2.21,-0.78,-0.78,-0.77
271.16,1.93,2.70,1.93,2.70,-2.70,-2.23,-2.18,-0.78,-0.77,-0.77
273.87,2.08,2.85,2.08,2.85,-2.85,-2.31,-2.14,-0.77,-0.77,-0.77
276.61,2.23,2.99,2.23,2.99,-2.99,-2.39,-2.11,-0.77,-0.77,-0.76
279.38,2.37,3.13,2.36,3.13,-3.13,-2.47,-2.07,-0.76,-0.77,-0.76
282.17,2.49,3.25,2.49,3.25,-3.26,-2.56,-2.03,-0.77,-0.76,-0.76
284.99,2.61,3.36,2.61,3.36,-3.37,-2.65,-1.99,-0.76,-0.76,-0.75
287.84,2.71,3.46,2.71,3.46,-3.46,-2.74,-1.95,-0.76,-0.75,-0.75
290.72,2.80,3.54,2.80,3.55,-3.54,-2.83,-1.91,-0.74,-0.74,-0.74
293.63,2.87,3.61,2.86,3.60,-3.59,-2.92,-1.86,-0.72,-0.73,-0.74
296.57,2.90,3.63,2.90,3.63,-3.61,-3.00,-1.82,-0.72,-0.72,-0.73
299.53,2.90,3.63,2.90,3.63,-3.61,-3.08,-1.78,-0.71,-0.71,-0.73
302.53,2.88,3.60,2.87,3.60,-3.58,-3.14,-1.73,-0.71,-0.71,-0.72
305.55,2.83,3.54,2.83,3.54,-3.53,-3.18,-1.69,-0.70,-0.70,-0.71
308.61,2.76,3.46,2.76,3.46,-3.46,-3.21,-1.65,-0.70,-0.70,-0.70
311.69,2.68,3.37,2.67,3.37,-3.37,-3.21,-1.60,-0.69,-0.70,-0.69
314.81,2.58,3.26,2.58,3.26,-3.27,-3.19,-1.56,-0.69,-0.69,-0.68
317.96,2.48,3.15,2.48,3.16,-3.17,-3.15,-1.52,-0.69,-0.68,-0.67
321.14,2.39,3.05,2.38,3.05,-3.06,-3.09,-1.48,-0.67,-0.68,-0.66
324.35,2.29,2.94,2.29,2.95,-2.96,-3.01,-1.44,-0.68,-0.67,-0.65
327.59,2.21,2.85,2.21,2.86,-2.87,-2.92,-1.40,-0.66,-0.66,-0.64
330.87,2.14,2.78,2.13,2.78,-2.79,-2.81,-1.36,-0.65,-0.65,-0.64
334.18,2.07,2.70,2.07,2.71,-2.71,-2.70,-1.32,-0.64,-0.64,-0.63
337.52,2.01,2.64,2.01,2.64,-2.64,-2.58,-1.28,-0.63,-0.63,-0.63
340.90,1.95,2.57,1.94,2.57,-2.57,-2.47,-1.24,-0.62,-0.63,-0.62
344.30,1.88,2.50,1.88,2.50,-2.50,-2.35,-1.20,-0.62,-0.62,-0.62
347.75,1.81,2.43,1.81,2.44,-2.43,-2.24,-1.17,-0.62,-0.62,-0.62
351.23,1.75,2.37,1.74,2.37,-2.36,-2.13,-1.13,-0.61,-0.62,-0.62
354.74,1.67,2.29,1.66,2.29,-2.29,-2.03,-1.10,-0.62,-0.62,-0.62
358.28,1.58,2.21,1.58,2.21,-2.21,-1.93,-1.06,-0.63,-0.63,-0.63
361.87,1.49,2.12,1.49,2.12,-2.12,-1.84,-1.03,-0.64,-0.63,-0.63
365.49,1.40,2.03,1.40,2.04,-2.04,-1.75,-1.00,-0.64,-0.64,-0.63
369.14,1.32,1.95,1.31,1.95,-1.95,-1.67,-0.97,-0.63,-0.63,-0.63
372.83,1.23,1.86,1.23,1.86,-1.86,-1.60,-0.94,-0.63,-0.63,-0.63
376.56,1.14,1.76,1.14,1.77,-1.77,-1.53,-0.91,-0.63,-0.63,-0.62
380.33,1.05,1.67,1.05,1.68,-1.68,-1.46,-0.88,-0.63,-0.62,-0.62
384.13,0.97,1.59,0.96,1.58,-1.58,-1.40,-0.85,-0.62,-0.62,-0.62
387.97,0.88,1.49,0.88,1.49,-1.49,-1.34,-0.83,-0.62,-0.62,-0.61
391.85,0.79,1.40,0.79,1.40,-1.40,-1.29,-0.80,-0.61,-0.61,-0.61
395.77,0.71,1.31,0.71,1.31,-1.31,-1.24,-0.77,-0.61,-0.60,-0.60
399.73,0.64,1.23,0.63,1.23,-1.23,-1.19,-0.75,-0.59,-0.60,-0.59
403.72,0.55,1.14,0.55,1.14,-1.14,-1.15,-0.72,-0.60,-0.59,-0.59
407.76,0.48,1.06,0.48,1.06,-1.06,-1.11,-0.70,-0.59,-0.59,-0.58
411.84,0.41,0.98,0.41,0.98,-0.99,-1.07,-0.68,-0.58,-0.58,-0.57
415.96,0.35,0.91,0.35,0.91,-0.92,-1.03,-0.66,-0.57,-0.57,-0.56
420.12,0.29,0.85,0.29,0.85,-0.85,-0.99,-0.64,-0.56,-0.56,-0.56
424.32,0.23,0.78,0.23,0.78,-0.78,-0.96,-0.62,-0.56,-0.55,-0.55
428.56,0.18,0.72,0.18,0.72,-0.72,-0.93,-0.60,-0.55,-0.55,-0.54
432.85,0.13,0.66,0.13,0.67,-0.67,-0.90,-0.58,-0.54,-0.54,-0.53
437.18,0.09,0.61,0.09,0.61,-0.61,-0.87,-0.56,-0.52,-0.52,-0.52
441.55,0.06,0.57,0.05,0.56,-0.56,-0.85,-0.55,-0.50,-0.51,-0.51
445.96,0.01,0.51,0.01,0.52,-0.51,-0.82,-0.53,-0.51,-0.50,-0.50
450.42,-0.02,0.47,-0.02,0.47,-0.47,-0.80,-0.52,-0.49,-0.49,-0.49
454.93,-0.06,0.42,-0.06,0.43,-0.43,-0.77,-0.50,-0.49,-0.49,-0.48
459.48,-0.08,0.39,-0.09,0.39,-0.39,-0.75,-0.49,-0.47,-0.48,-0.47
464.07,-0.11,0.35,-0.11,0.35,-0.36,-0.73,-0.48,-0.47,-0.47,-0.46
