frequency,raw,error,smoothed,error_smoothed,equalization,parametric_eq,fixed_band_eq,equalized_raw,equalized_smoothed,target
20.00,-6.84,-4.46,-6.84,-4.46,4.47,4.41,0.26,-2.37,-2.37,-2.38
20.20,-6.73,-4.36,-6.73,-4.36,4.36,4.35,0.27,-2.37,-2.37,-2.37
20.40,-6.62,-4.26,-6.62,-4.26,4.25,4.28,0.29,-2.37,-2.37,-2.36
20.61,-6.51,-4.15,-6.51,-4.15,4.14,4.21,0.30,-2.37,-2.37,-2.36
20.81,-6.40,-4.05,-6.40,-4.05,4.03,4.14,0.31,-2.37,-2.37,-2.35
21.02,-6.29,-3.94,-6.29,-3.94,3.93,4.06,0.33,-2.37,-2.36,-2.35
21.23,-6.17,-3.83,-6.17,-3.83,3.82,3.97,0.34,-2.35,-2.35,-2.34
21.44,-6.06,-3.72,-6.06,-3.71,3.71,3.89,0.36,-2.35,-2.34,-2.34
21.66,-5.94,-3.60,-5.94,-3.60,3.61,3.80,0.37,-2.33,-2.33,-2.34
21.87,-5.83,-3.49,-5.83,-3.49,3.51,3.70,0.39,-2.32,-2.32,-2.34
22.09,-5.72,-3.39,-5.73,-3.39,3.41,3.61,0.40,-2.32,-2.32,-2.33
22.31,-5.64,-3.31,-5.64,-3.30,3.30,3.51,0.42,-2.34,-2.33,-2.33
22.54,-5.55,-3.21,-5.55,-3.21,3.20,3.41,0.44,-2.35,-2.35,-2.34
22.76,-5.46,-3.11,-5.46,-3.11,3.10,3.31,0.46,-2.37,-2.37,-2.35
22.99,-5.37,-3.02,-5.36,-3.01,2.99,3.21,0.48,-2.38,-2.38,-2.35
23.22,-5.25,-2.90,-5.25,-2.89,2.88,3.10,0.49,-2.37,-2.38,-2.35
23.45,-5.13,-2.77,-5.13,-2.77,2.77,2.99,0.51,-2.36,-2.36,-2.36
23.69,-5.00,-2.64,-5.00,-2.64,2.65,2.89,0.53,-2.35,-2.35,-2.36
23.92,-4.88,-2.52,-4.89,-2.52,2.54,2.78,0.55,-2.34,-2.35,-2.36
24.16,-4.77,-2.41,-4.78,-2.41,2.43,2.67,0.57,-2.34,-2.35,-2.36
24.40,-4.68,-2.32,-4.68,-2.31,2.32,2.56,0.59,-2.36,-2.36,-2.36
24.65,-4.58,-2.22,-4.58,-2.22,2.21,2.45,0.61,-2.37,-2.37,-2.36
24.89,-4.48,-2.12,-4.48,-2.12,2.10,2.34,0.63,-2.38,-2.38,-2.36
25.14,-4.38,-2.02,-4.38,-2.01,2.00,2.23,0.65,-2.38,-2.38,-2.36
25.39,-4.28,-1.91,-4.28,-1.91,1.90,2.12,0.67,-2.38,-2.37,-2.37
25.65,-4.17,-1.80,-4.17,-1.80,1.80,2.01,0.69,-2.37,-2.37,-2.37
25.91,-4.07,-1.70,-4.07,-1.70,1.71,1.90,0.71,-2.37,-2.37,-2.37
26.16,-3.97,-1.60,-3.98,-1.60,1.61,1.79,0.73,-2.36,-2.37,-2.37
26.43,-3.88,-1.51,-3.88,-1.51,1.51,1.68,0.74,-2.37,-2.37,-2.37
26.69,-3.79,-1.42,-3.79,-1.41,1.42,1.58,0.76,-2.38,-2.37,-2.37
26.96,-3.69,-1.32,-3.70,-1.32,1.32,1.47,0.77,-2.37,-2.37,-2.37
27.23,-3.60,-1.23,-3.60,-1.23,1.22,1.36,0.79,-2.38,-2.38,-2.37
27.50,-3.50,-1.13,-3.51,-1.13,1.12,1.26,0.80,-2.38,-2.39,-2.37
27.77,-3.41,-1.04,-3.41,-1.04,1.02,1.15,0.81,-2.39,-2.39,-2.37
28.05,-3.31,-0.94,-3.30,-0.93,0.91,1.05,0.81,-2.40,-2.39,-2.37
28.33,-3.19,-0.82,-3.19,-0.81,0.81,0.94,0.82,-2.38,-2.38,-2.37
28.62,-3.06,-0.69,-3.06,-0.69,0.71,0.84,0.82,-2.35,-2.35,-2.37
28.90,-2.94,-0.58,-2.95,-0.58,0.62,0.74,0.82,-2.33,-2.34,-2.36
29.19,-2.85,-0.49,-2.86,-0.49,0.52,0.63,0.82,-2.34,-2.34,-2.36
29.48,-2.78,-0.42,-2.78,-0.42,0.41,0.53,0.81,-2.37,-2.37,-2.36
29.78,-2.70,-0.35,-2.70,-0.35,0.31,0.43,0.80,-2.39,-2.39,-2.35
30.08,-2.62,-0.27,-2.61,-0.25,0.22,0.33,0.78,-2.41,-2.39,-2.35
30.38,-2.49,-0.14,-2.49,-0.14,0.12,0.23,0.77,-2.37,-2.37,-2.35
30.68,-2.36,-0.01,-2.37,-0.01,0.03,0.14,0.75,-2.33,-2.34,-2.35
30.99,-2.23,0.12,-2.25,0.11,-0.07,0.04,0.72,-2.30,-2.32,-2.35
31.30,-2.16,0.19,-2.16,0.19,-0.16,-0.06,0.69,-2.33,-2.33,-2.35
31.61,-2.09,0.26,-2.09,0.26,-0.26,-0.15,0.66,-2.35,-2.35,-2.35
31.93,-2.03,0.32,-2.02,0.34,-0.36,-0.25,0.62,-2.39,-2.38,-2.35
32.24,-1.93,0.43,-1.93,0.43,-0.45,-0.34,0.58,-2.38,-2.38,-2.36
32.57,-1.83,0.53,-1.83,0.53,-0.54,-0.44,0.53,-2.37,-2.37,-2.36
32.89,-1.73,0.63,-1.73,0.63,-0.62,-0.53,0.48,-2.35,-2.36,-2.36
33.22,-1.64,0.73,-1.65,0.72,-0.72,-0.62,0.43,-2.36,-2.36,-2.37
33.55,-1.56,0.81,-1.56,0.82,-0.82,-0.71,0.37,-2.38,-2.38,-2.37
33.89,-1.48,0.90,-1.47,0.91,-0.92,-0.80,0.31,-2.40,-2.39,-2.38
34.23,-1.37,1.01,-1.37,1.01,-1.03,-0.89,0.24,-2.40,-2.40,-2.38
34.57,-1.26,1.12,-1.27,1.12,-1.13,-0.98,0.17,-2.39,-2.40,-2.38
34.92,-1.15,1.23,-1.15,1.23,-1.23,-1.07,0.10,-2.39,-2.39,-2.38
35.27,-1.04,1.34,-1.04,1.35,-1.33,-1.16,0.03,-2.38,-2.37,-2.38
35.62,-0.93,1.45,-0.93,1.45,-1.43,-1.25,-0.05,-2.36,-2.36,-2.38
35.97,-0.82,1.56,-0.84,1.55,-1.53,-1.34,-0.13,-2.35,-2.36,-2.38
36.33,-0.76,1.62,-0.76,1.62,-1.62,-1.42,-0.21,-2.38,-2.38,-2.38
36.70,-0.70,1.68,-0.70,1.69,-1.71,-1.51,-0.30,-2.41,-2.40,-2.38
37.06,-0.63,1.75,-0.62,1.77,-1.79,-1.60,-0.39,-2.42,-2.40,-2.38
37.43,-0.52,1.86,-0.52,1.86,-1.86,-1.68,-0.48,-2.38,-2.38,-2.38
37.81,-0.41,1.96,-0.42,1.96,-1.93,-1.77,-0.57,-2.35,-2.36,-2.37
38.19,-0.33,2.04,-0.34,2.03,-2.01,-1.85,-0.66,-2.34,-2.35,-2.37
38.57,-0.28,2.09,-0.28,2.09,-2.09,-1.93,-0.76,-2.37,-2.37,-2.37
38.95,-0.23,2.13,-0.21,2.15,-2.17,-2.02,-0.86,-2.41,-2.39,-2.36
39.34,-0.13,2.23,-0.13,2.23,-2.26,-2.10,-0.96,-2.39,-2.39,-2.36
39.74,-0.02,2.34,-0.03,2.33,-2.35,-2.18,-1.06,-2.37,-2.38,-2.36
40.14,0.08,2.44,0.08,2.44,-2.44,-2.26,-1.16,-2.36,-2.36,-2.36
40.54,0.18,2.54,0.18,2.54,-2.53,-2.35,-1.27,-2.35,-2.35,-2.36
40.94,0.28,2.64,0.27,2.64,-2.63,-2.43,-1.37,-2.35,-2.36,-2.36
41.35,0.36,2.72,0.36,2.73,-2.73,-2.51,-1.48,-2.37,-2.37,-2.36
41.76,0.44,2.81,0.45,2.82,-2.83,-2.59,-1.59,-2.39,-2.38,-2.37
42.18,0.54,2.91,0.54,2.92,-2.92,-2.67,-1.70,-2.38,-2.38,-2.37
42.60,0.64,3.01,0.64,3.01,-3.01,-2.75,-1.81,-2.37,-2.37,-2.37
43.03,0.74,3.11,0.73,3.10,-3.08,-2.83,-1.93,-2.35,-2.36,-2.37
43.46,0.80,3.17,0.80,3.18,-3.16,-2.90,-2.04,-2.36,-2.36,-2.37
43.90,0.86,3.24,0.86,3.24,-3.23,-2.98,-2.16,-2.37,-2.37,-2.38
44.33,0.91,3.29,0.91,3.29,-3.30,-3.06,-2.28,-2.39,-2.39,-2.38
44.78,0.97,3.35,0.97,3.35,-3.37,-3.14,-2.40,-2.40,-2.40,-2.38
45.23,1.03,3.41,1.03,3.41,-3.44,-3.21,-2.52,-2.41,-2.42,-2.38
45.68,1.10,3.48,1.10,3.48,-3.51,-3.29,-2.65,-2.41,-2.41,-2.38
46.13,1.18,3.55,1.19,3.57,-3.58,-3.36,-2.77,-2.40,-2.38,-2.37
46.60,1.30,3.67,1.29,3.67,-3.65,-3.44,-2.90,-2.35,-2.35,-2.37
47.06,1.41,3.77,1.38,3.75,-3.71,-3.51,-3.03,-2.31,-2.33,-2.36
47.53,1.45,3.80,1.45,3.81,-3.78,-3.59,-3.16,-2.33,-2.33,-2.35
48.01,1.50,3.84,1.50,3.84,-3.85,-3.66,-3.29,-2.35,-2.35,-2.34
48.49,1.55,3.88,1.54,3.88,-3.91,-3.73,-3.42,-2.36,-2.36,-2.33
48.97,1.60,3.92,1.61,3.94,-3.96,-3.80,-3.55,-2.36,-2.35,-2.32
49.46,1.69,4.00,1.69,4.00,-4.01,-3.87,-3.69,-2.32,-2.32,-2.31
49.96,1.79,4.08,1.77,4.07,-4.06,-3.94,-3.82,-2.27,-2.29,-2.29
50.46,1.85,4.13,1.85,4.13,-4.11,-4.01,-3.96,-2.26,-2.26,-2.28
50.96,1.90,4.16,1.90,4.17,-4.16,-4.08,-4.09,-2.27,-2.26,-2.26
51.47,1.96,4.21,1.96,4.21,-4.22,-4.15,-4.23,-2.27,-2.27,-2.25
51.99,2.02,4.26,2.02,4.26,-4.28,-4.22,-4.37,-2.26,-2.26,-2.24
52.51,2.09,4.32,2.09,4.32,-4.34,-4.28,-4.50,-2.25,-2.25,-2.23
53.03,2.16,4.38,2.16,4.38,-4.38,-4.35,-4.63,-2.23,-2.23,-2.22
53.56,2.23,4.44,2.23,4.44,-4.43,-4.41,-4.77,-2.20,-2.20,-2.21
54.10,2.30,4.49,2.30,4.50,-4.47,-4.48,-4.90,-2.17,-2.17,-2.19
54.64,2.36,4.54,2.35,4.54,-4.51,-4.54,-5.03,-2.15,-2.16,-2.18
55.18,2.40,4.57,2.38,4.56,-4.55,-4.60,-5.15,-2.15,-2.17,-2.17
55.74,2.40,4.57,2.41,4.58,-4.59,-4.66,-5.27,-2.19,-2.18,-2.17
56.29,2.43,4.59,2.44,4.60,-4.62,-4.72,-5.39,-2.19,-2.18,-2.16
56.86,2.49,4.64,2.48,4.64,-4.66,-4.78,-5.50,-2.18,-2.18,-2.15
57.42,2.54,4.69,2.54,4.69,-4.71,-4.84,-5.61,-2.17,-2.17,-2.15
58.00,2.60,4.75,2.60,4.75,-4.76,-4.90,-5.71,-2.16,-2.16,-2.15
58.58,2.66,4.81,2.66,4.81,-4.81,-4.95,-5.80,-2.16,-2.15,-2.15
59.16,2.73,4.88,2.72,4.88,-4.87,-5.01,-5.89,-2.14,-2.15,-2.15
59.76,2.79,4.94,2.79,4.95,-4.93,-5.06,-5.97,-2.14,-2.14,-2.15
60.35,2.85,5.01,2.85,5.01,-4.99,-5.11,-6.04,-2.14,-2.14,-2.16
60.96,2.91,5.08,2.89,5.06,-5.05,-5.16,-6.11,-2.14,-2.17,-2.17
61.57,2.91,5.09,2.91,5.10,-5.11,-5.21,-6.16,-2.21,-2.20,-2.18
62.18,2.93,5.13,2.94,5.15,-5.17,-5.26,-6.21,-2.25,-2.23,-2.20
62.80,2.99,5.21,2.99,5.22,-5.23,-5.31,-6.25,-2.25,-2.24,-2.22
63.43,3.05,5.30,3.04,5.29,-5.29,-5.36,-6.28,-2.25,-2.25,-2.25
64.07,3.11,5.38,3.09,5.36,-5.35,-5.40,-6.30,-2.25,-2.27,-2.27
64.71,3.11,5.41,3.13,5.43,-5.41,-5.45,-6.31,-2.30,-2.29,-2.30
65.35,3.15,5.47,3.16,5.48,-5.47,-5.49,-6.31,-2.32,-2.32,-2.32
66.01,3.21,5.55,3.18,5.53,-5.53,-5.53,-6.31,-2.32,-2.35,-2.34
66.67,3.21,5.57,3.22,5.58,-5.59,-5.57,-6.30,-2.38,-2.37,-2.36
67.33,3.24,5.61,3.25,5.63,-5.64,-5.61,-6.28,-2.40,-2.39,-2.37
68.01,3.30,5.69,3.28,5.67,-5.68,-5.65,-6.26,-2.38,-2.40,-2.39
68.69,3.31,5.71,3.32,5.72,-5.72,-5.68,-6.23,-2.41,-2.40,-2.40
69.37,3.35,5.76,3.36,5.78,-5.76,-5.72,-6.19,-2.41,-2.40,-2.41
70.07,3.41,5.83,3.39,5.81,-5.80,-5.75,-6.16,-2.39,-2.41,-2.42
70.77,3.41,5.84,3.40,5.84,-5.83,-5.78,-6.12,-2.42,-2.43,-2.43
71.48,3.41,5.84,3.42,5.85,-5.86,-5.82,-6.07,-2.45,-2.44,-2.43
72.19,3.42,5.86,3.43,5.88,-5.89,-5.85,-6.03,-2.47,-2.46,-2.44
72.91,3.47,5.92,3.46,5.92,-5.92,-5.87,-5.98,-2.45,-2.46,-2.45
73.64,3.50,5.96,3.49,5.95,-5.95,-5.90,-5.93,-2.45,-2.46,-2.46
74.38,3.51,5.98,3.50,5.98,-5.97,-5.93,-5.89,-2.47,-2.47,-2.47
75.12,3.51,5.99,3.51,6.00,-6.01,-5.95,-5.84,-2.50,-2.50,-2.48
75.87,3.51,6.01,3.53,6.03,-6.04,-5.98,-5.79,-2.53,-2.51,-2.50
76.63,3.57,6.08,3.56,6.08,-6.08,-6.00,-5.75,-2.51,-2.52,-2.51
77.40,3.61,6.14,3.59,6.12,-6.12,-6.02,-5.70,-2.51,-2.53,-2.53
78.17,3.61,6.15,3.61,6.16,-6.16,-6.04,-5.66,-2.55,-2.55,-2.54
78.95,3.61,6.17,3.63,6.19,-6.20,-6.06,-5.62,-2.59,-2.57,-2.56
79.74,3.65,6.22,3.65,6.23,-6.23,-6.08,-5.59,-2.58,-2.58,-2.57
80.54,3.69,6.28,3.68,6.27,-6.26,-6.10,-5.55,-2.58,-2.59,-2.59
81.35,3.71,6.31,3.70,6.31,-6.29,-6.11,-5.52,-2.58,-2.59,-2.60
82.16,3.71,6.32,3.71,6.33,-6.31,-6.13,-5.49,-2.60,-2.60,-2.61
82.98,3.71,6.33,3.71,6.33,-6.33,-6.14,-5.47,-2.62,-2.62,-2.62
83.81,3.71,6.34,3.71,6.34,-6.34,-6.15,-5.45,-2.64,-2.64,-2.63
84.65,3.71,6.34,3.71,6.35,-6.35,-6.16,-5.44,-2.65,-2.65,-2.63
85.50,3.71,6.35,3.71,6.35,-6.36,-6.17,-5.42,-2.65,-2.65,-2.64
86.35,3.71,6.36,3.71,6.36,-6.37,-6.18,-5.42,-2.66,-2.66,-2.65
87.22,3.71,6.37,3.71,6.37,-6.37,-6.19,-5.41,-2.67,-2.67,-2.66
88.09,3.71,6.38,3.71,6.38,-6.38,-6.20,-5.41,-2.67,-2.67,-2.67
88.97,3.71,6.38,3.71,6.39,-6.39,-6.20,-5.42,-2.68,-2.68,-2.67
89.86,3.72,6.40,3.71,6.40,-6.40,-6.21,-5.42,-2.68,-2.68,-2.68
90.76,3.72,6.41,3.72,6.41,-6.41,-6.21,-5.44,-2.69,-2.69,-2.69
91.66,3.72,6.41,3.72,6.41,-6.41,-6.22,-5.45,-2.69,-2.69,-2.69
92.58,3.72,6.41,3.72,6.42,-6.42,-6.22,-5.47,-2.70,-2.70,-2.69
93.51,3.72,6.42,3.72,6.42,-6.42,-6.22,-5.50,-2.70,-2.70,-2.70
94.44,3.72,6.42,3.72,6.42,-6.43,-6.22,-5.53,-2.71,-2.71,-2.70
95.39,3.72,6.42,3.72,6.42,-6.43,-6.22,-5.56,-2.71,-2.71,-2.70
96.34,3.71,6.41,3.71,6.42,-6.42,-6.22,-5.60,-2.72,-2.71,-2.70
97.30,3.71,6.41,3.71,6.41,-6.41,-6.22,-5.63,-2.71,-2.71,-2.70
98.28,3.70,6.41,3.70,6.41,-6.40,-6.21,-5.68,-2.70,-2.70,-2.71
99.26,3.68,6.39,3.68,6.40,-6.38,-6.21,-5.72,-2.70,-2.69,-2.71
100.25,3.66,6.37,3.65,6.36,-6.34,-6.21,-5.77,-2.69,-2.70,-2.71
101.25,3.61,6.32,3.60,6.32,-6.31,-6.20,-5.82,-2.70,-2.71,-2.71
102.27,3.53,6.25,3.54,6.27,-6.27,-6.19,-5.87,-2.74,-2.72,-2.72
103.29,3.49,6.22,3.48,6.22,-6.23,-6.19,-5.93,-2.74,-2.75,-2.73
104.32,3.44,6.18,3.43,6.17,-6.19,-6.18,-5.99,-2.75,-2.76,-2.74
105.37,3.38,6.12,3.39,6.14,-6.15,-6.17,-6.04,-2.77,-2.76,-2.74
106.42,3.36,6.11,3.35,6.11,-6.12,-6.16,-6.10,-2.76,-2.77,-2.75
107.48,3.33,6.09,3.33,6.09,-6.10,-6.15,-6.16,-2.77,-2.77,-2.76
108.56,3.31,6.08,3.31,6.08,-6.08,-6.14,-6.22,-2.77,-2.77,-2.77
109.64,3.29,6.07,3.29,6.07,-6.06,-6.13,-6.27,-2.77,-2.77,-2.78
110.74,3.27,6.05,3.27,6.05,-6.05,-6.12,-6.33,-2.78,-2.78,-2.78
111.85,3.25,6.03,3.25,6.04,-6.04,-6.11,-6.38,-2.79,-2.79,-2.78
112.97,3.24,6.02,3.24,6.02,-6.03,-6.09,-6.43,-2.79,-2.79,-2.78
114.10,3.23,6.01,3.23,6.01,-6.02,-6.08,-6.48,-2.79,-2.79,-2.78
115.24,3.23,6.00,3.23,6.01,-6.01,-6.06,-6.52,-2.78,-2.78,-2.77
116.39,3.23,6.00,3.23,6.00,-6.00,-6.05,-6.56,-2.78,-2.77,-2.77
117.55,3.24,5.99,3.23,5.99,-5.99,-6.03,-6.59,-2.76,-2.76,-2.75
118.73,3.24,5.98,3.24,5.99,-5.98,-6.02,-6.62,-2.75,-2.74,-2.74
119.92,3.25,5.97,3.25,5.98,-5.97,-6.00,-6.64,-2.72,-2.72,-2.72
121.12,3.26,5.96,3.25,5.96,-5.95,-5.98,-6.65,-2.69,-2.70,-2.70
122.33,3.25,5.93,3.24,5.92,-5.92,-5.96,-6.66,-2.67,-2.68,-2.68
123.55,3.21,5.87,3.22,5.88,-5.87,-5.94,-6.66,-2.67,-2.65,-2.66
124.79,3.18,5.82,3.20,5.84,-5.82,-5.92,-6.65,-2.65,-2.63,-2.64
126.03,3.19,5.81,3.16,5.79,-5.77,-5.90,-6.63,-2.58,-2.61,-2.62
127.29,3.13,5.73,3.12,5.72,-5.72,-5.88,-6.61,-2.59,-2.60,-2.60
128.57,3.06,5.64,3.07,5.65,-5.66,-5.86,-6.58,-2.61,-2.60,-2.58
129.85,3.00,5.56,3.02,5.58,-5.62,-5.84,-6.55,-2.62,-2.60,-2.56
131.15,3.01,5.55,3.00,5.55,-5.58,-5.82,-6.50,-2.57,-2.58,-2.54
132.46,3.01,5.54,3.00,5.54,-5.55,-5.79,-6.45,-2.54,-2.55,-2.53
133.79,3.02,5.53,3.01,5.53,-5.53,-5.77,-6.39,-2.51,-2.51,-2.51
135.12,3.02,5.52,3.02,5.52,-5.51,-5.74,-6.33,-2.50,-2.50,-2.50
136.48,3.02,5.50,3.02,5.51,-5.50,-5.72,-6.27,-2.48,-2.48,-2.48
137.84,3.03,5.50,3.03,5.50,-5.49,-5.69,-6.19,-2.46,-2.46,-2.47
139.22,3.03,5.49,3.03,5.49,-5.47,-5.67,-6.12,-2.44,-2.44,-2.46
140.61,3.03,5.48,3.02,5.47,-5.45,-5.64,-6.04,-2.43,-2.44,-2.45
142.02,3.00,5.44,2.99,5.44,-5.44,-5.61,-5.96,-2.44,-2.45,-2.44
143.44,2.95,5.39,2.96,5.40,-5.42,-5.59,-5.87,-2.47,-2.46,-2.44
144.87,2.93,5.37,2.93,5.38,-5.41,-5.56,-5.79,-2.48,-2.47,-2.44
146.32,2.93,5.37,2.92,5.37,-5.40,-5.53,-5.70,-2.47,-2.47,-2.44
147.78,2.93,5.38,2.93,5.38,-5.38,-5.50,-5.62,-2.45,-2.45,-2.45
149.26,2.93,5.39,2.93,5.40,-5.37,-5.47,-5.53,-2.44,-2.44,-2.46
150.75,2.93,5.41,2.91,5.40,-5.37,-5.44,-5.44,-2.44,-2.45,-2.48
152.26,2.87,5.38,2.87,5.38,-5.37,-5.41,-5.36,-2.50,-2.49,-2.51
153.78,2.82,5.36,2.82,5.36,-5.37,-5.38,-5.27,-2.55,-2.56,-2.54
155.32,2.76,5.34,2.76,5.35,-5.38,-5.35,-5.19,-2.63,-2.62,-2.58
156.88,2.73,5.34,2.74,5.35,-5.40,-5.32,-5.11,-2.67,-2.66,-2.61
158.44,2.73,5.38,2.72,5.38,-5.41,-5.29,-5.03,-2.68,-2.69,-2.65
160.03,2.73,5.41,2.73,5.41,-5.42,-5.25,-4.95,-2.69,-2.69,-2.68
161.63,2.73,5.43,2.73,5.44,-5.41,-5.22,-4.87,-2.69,-2.68,-2.70
163.24,2.73,5.46,2.73,5.46,-5.40,-5.19,-4.80,-2.67,-2.68,-2.73
164.88,2.70,5.44,2.69,5.44,-5.38,-5.15,-4.73,-2.68,-2.69,-2.74
166.53,2.64,5.39,2.62,5.37,-5.34,-5.12,-4.66,-2.71,-2.73,-2.75
168.19,2.52,5.27,2.52,5.28,-5.29,-5.09,-4.60,-2.77,-2.77,-2.75
169.87,2.42,5.16,2.45,5.20,-5.23,-5.05,-4.54,-2.81,-2.78,-2.74
171.57,2.40,5.13,2.40,5.13,-5.16,-5.02,-4.48,-2.76,-2.76,-2.73
173.29,2.39,5.10,2.37,5.08,-5.09,-4.98,-4.43,-2.70,-2.72,-2.71
175.02,2.35,5.03,2.34,5.03,-5.02,-4.95,-4.38,-2.67,-2.68,-2.68
176.77,2.29,4.94,2.31,4.96,-4.96,-4.91,-4.33,-2.67,-2.65,-2.65
178.54,2.28,4.90,2.29,4.91,-4.90,-4.88,-4.29,-2.62,-2.61,-2.62
180.32,2.29,4.87,2.28,4.86,-4.85,-4.84,-4.24,-2.56,-2.58,-2.58
182.13,2.28,4.83,2.26,4.81,-4.81,-4.80,-4.21,-2.53,-2.55,-2.55
183.95,2.24,4.75,2.24,4.76,-4.77,-4.77,-4.17,-2.54,-2.53,-2.51
185.79,2.21,4.70,2.22,4.72,-4.75,-4.73,-4.14,-2.54,-2.52,-2.49
187.65,2.23,4.70,2.22,4.69,-4.73,-4.70,-4.11,-2.50,-2.50,-2.47
189.52,2.24,4.69,2.23,4.69,-4.71,-4.66,-4.09,-2.47,-2.47,-2.45
191.42,2.25,4.69,2.25,4.69,-4.68,-4.62,-4.06,-2.44,-2.43,-2.44
193.33,2.27,4.69,2.27,4.70,-4.66,-4.58,-4.04,-2.40,-2.39,-2.42
195.27,2.28,4.69,2.27,4.69,-4.64,-4.55,-4.03,-2.37,-2.37,-2.41
197.22,2.27,4.68,2.24,4.65,-4.63,-4.51,-4.01,-2.36,-2.39,-2.41
199.19,2.17,4.57,2.19,4.59,-4.61,-4.47,-4.00,-2.44,-2.42,-2.40
201.18,2.12,4.52,2.14,4.54,-4.58,-4.44,-3.99,-2.47,-2.45,-2.40
203.19,2.12,4.52,2.11,4.52,-4.55,-4.40,-3.98,-2.44,-2.44,-2.40
205.23,2.12,4.52,2.12,4.52,-4.52,-4.36,-3.98,-2.40,-2.40,-2.40
207.28,2.12,4.52,2.11,4.52,-4.49,-4.32,-3.97,-2.37,-2.37,-2.40
209.35,2.10,4.50,2.09,4.49,-4.46,-4.29,-3.97,-2.36,-2.37,-2.40
211.44,2.04,4.45,2.03,4.45,-4.43,-4.25,-3.97,-2.40,-2.40,-2.41
213.56,1.97,4.38,1.98,4.39,-4.41,-4.21,-3.97,-2.44,-2.43,-2.41
215.69,1.92,4.34,1.93,4.35,-4.39,-4.18,-3.97,-2.47,-2.46,-2.42
217.85,1.91,4.33,1.91,4.34,-4.36,-4.14,-3.97,-2.45,-2.45,-2.42
220.03,1.90,4.33,1.90,4.33,-4.33,-4.10,-3.97,-2.43,-2.43,-2.43
222.23,1.90,4.33,1.87,4.31,-4.29,-4.06,-3.97,-2.40,-2.42,-2.43
224.45,1.83,4.26,1.85,4.28,-4.26,-4.03,-3.97,-2.44,-2.42,-2.43
226.70,1.80,4.23,1.81,4.25,-4.23,-3.99,-3.97,-2.43,-2.42,-2.43
228.96,1.80,4.23,1.77,4.21,-4.20,-3.95,-3.97,-2.40,-2.43,-2.43
231.25,1.73,4.15,1.73,4.16,-4.16,-3.92,-3.97,-2.44,-2.43,-2.42
233.57,1.69,4.11,1.69,4.11,-4.12,-3.88,-3.97,-2.43,-2.44,-2.42
235.90,1.63,4.04,1.65,4.07,-4.08,-3.85,-3.96,-2.45,-2.43,-2.41
238.26,1.65,4.05,1.64,4.04,-4.04,-3.81,-3.96,-2.39,-2.40,-2.40
240.64,1.63,4.01,1.61,4.00,-4.00,-3.77,-3.95,-2.37,-2.39,-2.38
243.05,1.59,3.96,1.59,3.96,-3.96,-3.74,-3.94,-2.37,-2.37,-2.37
245.48,1.53,3.89,1.55,3.92,-3.92,-3.70,-3.92,-2.39,-2.36,-2.36
247.93,1.53,3.88,1.52,3.88,-3.87,-3.67,-3.91,-2.35,-2.35,-2.35
250.41,1.51,3.85,1.49,3.84,-3.83,-3.63,-3.89,-2.33,-2.34,-2.34
252.92,1.46,3.79,1.46,3.80,-3.79,-3.60,-3.87,-2.34,-2.33,-2.33
255.45,1.41,3.74,1.41,3.74,-3.75,-3.56,-3.85,-2.34,-2.34,-2.33
258.00,1.37,3.70,1.35,3.69,-3.70,-3.53,-3.83,-2.33,-2.35,-2.33
260.58,1.29,3.62,1.32,3.65,-3.65,-3.49,-3.80,-2.36,-2.33,-2.33
263.19,1.28,3.61,1.29,3.62,-3.60,-3.46,-3.77,-2.32,-2.31,-2.33
265.82,1.28,3.61,1.25,3.58,-3.55,-3.42,-3.74,-2.28,-2.31,-2.33
268.48,1.20,3.53,1.18,3.51,-3.51,-3.39,-3.70,-2.32,-2.34,-2.33
271.16,1.09,3.42,1.10,3.44,-3.47,-3.36,-3.67,-2.38,-2.37,-2.33
273.87,1.01,3.34,1.06,3.39,-3.43,-3.32,-3.63,-2.43,-2.38,-2.33
276.61,1.08,3.41,1.06,3.39,-3.40,-3.29,-3.59,-2.32,-2.34,-2.33
279.38,1.09,3.42,1.07,3.40,-3.37,-3.25,-3.55,-2.28,-2.30,-2.33
282.17,1.08,3.40,1.06,3.38,-3.35,-3.22,-3.51,-2.27,-2.29,-2.32
284.99,1.00,3.31,0.99,3.31,-3.33,-3.19,-3.47,-2.33,-2.34,-2.31
287.84,0.93,3.24,0.96,3.28,-3.32,-3.15,-3.43,-2.39,-2.35,-2.31
290.72,0.94,3.24,0.98,3.28,-3.30,-3.12,-3.39,-2.36,-2.32,-2.30
293.63,1.04,3.33,0.98,3.28,-3.27,-3.08,-3.35,-2.23,-2.29,-2.29
296.57,1.02,3.30,0.97,3.26,-3.23,-3.04,-3.31,-2.21,-2.26,-2.28
299.53,0.85,3.13,0.93,3.22,-3.18,-3.01,-3.27,-2.33,-2.25,-2.28
302.53,0.88,3.15,0.87,3.14,-3.13,-2.97,-3.23,-2.26,-2.27,-2.27
305.55,0.84,3.11,0.79,3.07,-3.08,-2.93,-3.19,-2.24,-2.28,-2.27
308.61,0.72,2.99,0.73,3.01,-3.00,-2.89,-3.15,-2.28,-2.27,-2.27
311.69,0.61,2.88,0.64,2.91,-2.92,-2.85,-3.12,-2.31,-2.28,-2.27
314.81,0.56,2.84,0.54,2.83,-2.83,-2.80,-3.08,-2.27,-2.29,-2.28
317.96,0.48,2.76,0.47,2.76,-2.75,-2.75,-3.05,-2.27,-2.28,-2.28
321.14,0.37,2.66,0.37,2.66,-2.67,-2.70,-3.02,-2.30,-2.30,-2.29
324.35,0.28,2.57,0.24,2.54,-2.59,-2.65,-2.99,-2.32,-2.35,-2.29
327.59,0.11,2.41,0.16,2.47,-2.51,-2.58,-2.96,-2.40,-2.35,-2.30
330.87,0.08,2.39,0.11,2.43,-2.41,-2.52,-2.93,-2.34,-2.30,-2.31
334.18,0.12,2.44,0.05,2.37,-2.31,-2.44,-2.91,-2.20,-2.26,-2.32
337.52,-0.02,2.31,-0.06,2.27,-2.21,-2.36,-2.88,-2.23,-2.26,-2.33
340.90,-0.24,2.09,-0.21,2.13,-2.09,-2.26,-2.86,-2.34,-2.30,-2.33
344.30,-0.43,1.91,-0.38,1.97,-1.99,-2.15,-2.84,-2.42,-2.37,-2.34
347.75,-0.49,1.87,-0.54,1.82,-1.88,-2.03,-2.83,-2.37,-2.42,-2.36
351.23,-0.65,1.72,-0.67,1.71,-1.77,-1.89,-2.81,-2.42,-2.44,-2.37
354.74,-0.82,1.56,-0.77,1.62,-1.64,-1.74,-2.80,-2.47,-2.41,-2.38
358.28,-0.86,1.53,-0.87,1.53,-1.50,-1.58,-2.79,-2.36,-2.36,-2.39
361.87,-0.92,1.48,-0.94,1.47,-1.35,-1.41,-2.78,-2.27,-2.29,-2.40
365.49,-1.04,1.38,-1.04,1.38,-1.23,-1.25,-2.77,-2.27,-2.27,-2.42
369.14,-1.18,1.25,-1.20,1.24,-1.13,-1.12,-2.77,-2.32,-2.33,-2.43
372.83,-1.40,1.04,-1.41,1.04,-1.08,-1.03,-2.77,-2.48,-2.49,-2.44
376.56,-1.57,0.88,-1.60,0.86,-1.07,-1.01,-2.77,-2.64,-2.67,-2.45
380.33,-1.76,0.70,-1.69,0.78,-1.11,-1.06,-2.77,-2.88,-2.80,-2.46
384.13,-1.65,0.82,-1.65,0.82,-1.21,-1.21,-2.77,-2.86,-2.86,-2.47
387.97,-1.43,1.05,-1.43,1.06,-1.37,-1.42,-2.78,-2.80,-2.79,-2.48
391.85,-1.17,1.32,-1.10,1.39,-1.57,-1.69,-2.78,-2.75,-2.68,-2.49
395.77,-0.75,1.75,-0.86,1.64,-1.83,-1.98,-2.79,-2.58,-2.69,-2.50
399.73,-0.70,1.81,-0.81,1.71,-2.12,-2.28,-2.80,-2.82,-2.93,-2.51
403.72,-0.83,1.69,-0.81,1.72,-2.42,-2.57,-2.81,-3.26,-3.23,-2.52
407.76,-0.95,1.59,-0.78,1.76,-2.73,-2.85,-2.82,-3.68,-3.51,-2.54
411.84,-0.46,2.09,-0.51,2.04,-3.01,-3.10,-2.84,-3.47,-3.52,-2.55
415.96,-0.03,2.53,0.03,2.59,-3.26,-3.32,-2.85,-3.30,-3.23,-2.56
420.12,0.66,3.22,0.66,3.23,-3.49,-3.50,-2.87,-2.83,-2.83,-2.56
424.32,1.25,3.82,1.12,3.69,-3.67,-3.65,-2.88,-2.42,-2.55,-2.57
428.56,1.42,3.99,1.41,3.98,-3.80,-3.75,-2.90,-2.38,-2.39,-2.57
432.85,1.43,3.99,1.47,4.04,-3.88,-3.82,-2.92,-2.45,-2.41,-2.56
437.18,1.40,3.95,1.40,3.96,-3.91,-3.85,-2.93,-2.51,-2.51,-2.55
441.55,1.35,3.88,1.33,3.87,-3.90,-3.85,-2.95,-2.56,-2.57,-2.53
445.96,1.25,3.76,1.28,3.79,-3.86,-3.83,-2.96,-2.62,-2.59,-2.51
450.42,1.23,3.71,1.23,3.71,-3.80,-3.78,-2.98,-2.57,-2.57,-2.48
454.93,1.23,3.67,1.20,3.65,-3.72,-3.73,-2.99,-2.49,-2.51,-2.44
459.48,1.20,3.60,1.21,3.62,-3.64,-3.66,-3.01,-2.44,-2.43,-2.40
