frequency,raw,error,smoothed,error_smoothed,equalization,parametric_eq,fixed_band_eq,equalized_raw,equalized_smoothed,target
20.00,-4.32,-0.01,-4.33,-0.01,0.03,-0.95,-0.48,-4.29,-4.30,-4.31
20.20,-4.31,0.00,-4.30,0.01,-0.01,-0.95,-0.50,-4.32,-4.31,-4.31
20.40,-4.28,0.03,-4.28,0.04,-0.04,-0.95,-0.51,-4.33,-4.32,-4.31
20.61,-4.24,0.07,-4.25,0.07,-0.08,-0.96,-0.53,-4.32,-4.32,-4.31
20.81,-4.20,0.11,-4.21,0.11,-0.12,-0.96,-0.54,-4.32,-4.32,-4.31
21.02,-4.17,0.14,-4.17,0.15,-0.15,-0.96,-0.56,-4.32,-4.32,-4.31
21.23,-4.13,0.18,-4.13,0.19,-0.19,-0.97,-0.57,-4.32,-4.32,-4.31
21.44,-4.08,0.23,-4.09,0.22,-0.22,-0.97,-0.59,-4.31,-4.31,-4.31
21.66,-4.05,0.26,-4.05,0.27,-0.26,-0.97,-0.61,-4.32,-4.31,-4.31
21.87,-4.01,0.30,-4.01,0.31,-0.30,-0.98,-0.63,-4.31,-4.31,-4.31
22.09,-3.96,0.35,-3.97,0.34,-0.34,-0.98,-0.64,-4.30,-4.31,-4.31
22.31,-3.94,0.37,-3.94,0.38,-0.38,-0.98,-0.66,-4.32,-4.31,-4.31
22.54,-3.90,0.41,-3.90,0.41,-0.41,-0.99,-0.68,-4.31,-4.32,-4.31
22.76,-3.87,0.44,-3.88,0.44,-0.45,-0.99,-0.70,-4.32,-4.32,-4.31
22.99,-3.84,0.47,-3.84,0.48,-0.48,-1.00,-0.72,-4.32,-4.32,-4.31
23.22,-3.80,0.51,-3.80,0.52,-0.51,-1.00,-0.74,-4.32,-4.31,-4.31
23.45,-3.75,0.56,-3.77,0.55,-0.55,-1.00,-0.76,-4.30,-4.31,-4.31
23.69,-3.73,0.58,-3.73,0.58,-0.58,-1.01,-0.78,-4.31,-4.31,-4.31
23.92,-3.71,0.60,-3.70,0.62,-0.61,-1.01,-0.81,-4.33,-4.31,-4.31
24.16,-3.66,0.65,-3.67,0.64,-0.65,-1.02,-0.83,-4.31,-4.32,-4.31
24.40,-3.63,0.68,-3.63,0.68,-0.68,-1.02,-0.85,-4.31,-4.31,-4.31
24.65,-3.61,0.70,-3.61,0.71,-0.70,-1.03,-0.87,-4.32,-4.31,-4.31
24.89,-3.57,0.74,-3.58,0.73,-0.73,-1.03,-0.90,-4.31,-4.31,-4.31
25.14,-3.56,0.75,-3.55,0.76,-0.76,-1.04,-0.92,-4.32,-4.31,-4.31
25.39,-3.52,0.79,-3.53,0.78,-0.79,-1.04,-0.94,-4.31,-4.32,-4.31
25.65,-3.50,0.81,-3.50,0.81,-0.82,-1.05,-0.97,-4.32,-4.32,-4.31
25.91,-3.48,0.83,-3.47,0.84,-0.84,-1.06,-0.99,-4.33,-4.32,-4.31
26.16,-3.43,0.88,-3.44,0.87,-0.87,-1.06,-1.01,-4.30,-4.31,-4.31
26.43,-3.42,0.89,-3.41,0.90,-0.90,-1.07,-1.04,-4.32,-4.31,-4.31
26.69,-3.38,0.93,-3.39,0.93,-0.92,-1.07,-1.06,-4.31,-4.31,-4.31
26.96,-3.36,0.95,-3.36,0.95,-0.95,-1.08,-1.08,-4.31,-4.31,-4.31
27.23,-3.34,0.97,-3.34,0.98,-0.98,-1.09,-1.10,-4.32,-4.31,-4.31
27.50,-3.30,1.01,-3.31,1.00,-1.00,-1.09,-1.13,-4.31,-4.32,-4.31
27.77,-3.29,1.02,-3.29,1.03,-1.03,-1.10,-1.15,-4.32,-4.31,-4.31
28.05,-3.26,1.05,-3.26,1.05,-1.05,-1.11,-1.17,-4.31,-4.31,-4.31
28.33,-3.24,1.07,-3.24,1.07,-1.07,-1.12,-1.19,-4.31,-4.31,-4.31
28.62,-3.21,1.10,-3.22,1.10,-1.09,-1.12,-1.21,-4.31,-4.31,-4.31
28.90,-3.20,1.11,-3.20,1.12,-1.12,-1.13,-1.22,-4.32,-4.31,-4.31
29.19,-3.18,1.13,-3.18,1.13,-1.14,-1.14,-1.24,-4.32,-4.32,-4.31
29.48,-3.15,1.16,-3.16,1.15,-1.16,-1.15,-1.26,-4.31,-4.32,-4.31
29.78,-3.15,1.16,-3.14,1.17,-1.18,-1.16,-1.27,-4.33,-4.32,-4.31
30.08,-3.10,1.21,-3.11,1.20,-1.20,-1.17,-1.28,-4.30,-4.31,-4.31
30.38,-3.10,1.21,-3.09,1.22,-1.22,-1.18,-1.30,-4.32,-4.31,-4.31
30.68,-3.06,1.25,-3.08,1.24,-1.24,-1.19,-1.31,-4.30,-4.31,-4.31
30.99,-3.06,1.25,-3.06,1.25,-1.25,-1.20,-1.31,-4.32,-4.31,-4.31
31.30,-3.06,1.25,-3.04,1.27,-1.27,-1.21,-1.32,-4.33,-4.31,-4.31
31.61,-3.01,1.30,-3.03,1.28,-1.29,-1.22,-1.33,-4.30,-4.32,-4.31
31.93,-3.01,1.30,-3.01,1.30,-1.30,-1.23,-1.33,-4.32,-4.32,-4.31
32.24,-3.01,1.30,-2.99,1.32,-1.32,-1.24,-1.33,-4.33,-4.31,-4.31
32.57,-2.96,1.35,-2.98,1.33,-1.33,-1.25,-1.33,-4.30,-4.32,-4.31
32.89,-2.96,1.35,-2.96,1.35,-1.35,-1.26,-1.34,-4.31,-4.31,-4.31
33.22,-2.96,1.35,-2.94,1.37,-1.36,-1.27,-1.33,-4.33,-4.31,-4.31
33.55,-2.92,1.39,-2.94,1.38,-1.38,-1.29,-1.33,-4.30,-4.32,-4.31
33.89,-2.92,1.39,-2.92,1.39,-1.39,-1.30,-1.33,-4.31,-4.32,-4.31
34.23,-2.92,1.39,-2.91,1.41,-1.40,-1.31,-1.32,-4.33,-4.31,-4.31
34.57,-2.89,1.42,-2.90,1.42,-1.42,-1.32,-1.32,-4.31,-4.31,-4.31
34.92,-2.87,1.44,-2.88,1.43,-1.43,-1.34,-1.31,-4.30,-4.31,-4.31
35.27,-2.87,1.44,-2.87,1.44,-1.44,-1.35,-1.31,-4.31,-4.32,-4.31
35.62,-2.87,1.44,-2.87,1.45,-1.45,-1.37,-1.30,-4.33,-4.32,-4.31
35.97,-2.86,1.45,-2.85,1.46,-1.46,-1.38,-1.29,-4.33,-4.32,-4.31
36.33,-2.82,1.49,-2.84,1.48,-1.47,-1.39,-1.28,-4.30,-4.31,-4.31
36.70,-2.82,1.49,-2.82,1.49,-1.48,-1.41,-1.27,-4.31,-4.31,-4.31
37.06,-2.82,1.49,-2.82,1.49,-1.49,-1.42,-1.27,-4.32,-4.32,-4.31
37.43,-2.82,1.49,-2.82,1.49,-1.50,-1.44,-1.26,-4.32,-4.32,-4.31
37.81,-2.82,1.49,-2.81,1.51,-1.51,-1.45,-1.25,-4.33,-4.32,-4.31
38.19,-2.78,1.53,-2.80,1.52,-1.51,-1.46,-1.24,-4.30,-4.31,-4.31
38.57,-2.78,1.53,-2.78,1.53,-1.52,-1.48,-1.23,-4.30,-4.30,-4.31
38.95,-2.78,1.53,-2.78,1.54,-1.53,-1.49,-1.23,-4.31,-4.30,-4.31
39.34,-2.78,1.53,-2.78,1.53,-1.53,-1.50,-1.22,-4.32,-4.32,-4.31
39.74,-2.78,1.53,-2.78,1.53,-1.54,-1.52,-1.22,-4.33,-4.33,-4.31
40.14,-2.78,1.53,-2.77,1.54,-1.55,-1.53,-1.21,-4.33,-4.32,-4.31
40.54,-2.76,1.55,-2.76,1.56,-1.56,-1.54,-1.20,-4.32,-4.32,-4.31
40.94,-2.73,1.58,-2.74,1.57,-1.56,-1.55,-1.20,-4.29,-4.30,-4.31
41.35,-2.73,1.58,-2.73,1.58,-1.57,-1.56,-1.20,-4.30,-4.30,-4.31
41.76,-2.73,1.58,-2.73,1.58,-1.58,-1.57,-1.19,-4.31,-4.30,-4.31
42.18,-2.73,1.58,-2.73,1.58,-1.58,-1.58,-1.19,-4.32,-4.32,-4.31
42.60,-2.73,1.58,-2.73,1.58,-1.59,-1.59,-1.19,-4.32,-4.33,-4.31
43.03,-2.73,1.58,-2.72,1.59,-1.60,-1.59,-1.19,-4.33,-4.32,-4.31
43.46,-2.71,1.60,-2.71,1.61,-1.61,-1.60,-1.19,-4.32,-4.31,-4.31
43.90,-2.68,1.63,-2.69,1.62,-1.61,-1.61,-1.19,-4.30,-4.31,-4.31
44.33,-2.68,1.63,-2.68,1.63,-1.62,-1.61,-1.20,-4.31,-4.31,-4.31
44.78,-2.68,1.63,-2.67,1.64,-1.64,-1.62,-1.20,-4.32,-4.31,-4.31
45.23,-2.67,1.64,-2.67,1.65,-1.65,-1.62,-1.20,-4.32,-4.31,-4.31
45.68,-2.64,1.67,-2.66,1.66,-1.66,-1.63,-1.21,-4.31,-4.32,-4.31
46.13,-2.64,1.67,-2.64,1.67,-1.68,-1.63,-1.22,-4.32,-4.32,-4.31
46.60,-2.64,1.67,-2.62,1.69,-1.69,-1.63,-1.22,-4.33,-4.31,-4.31
47.06,-2.59,1.72,-2.61,1.70,-1.71,-1.64,-1.23,-4.30,-4.32,-4.31
47.53,-2.59,1.72,-2.59,1.72,-1.72,-1.64,-1.24,-4.32,-4.31,-4.31
48.01,-2.58,1.73,-2.57,1.75,-1.74,-1.64,-1.25,-4.32,-4.31,-4.31
48.49,-2.54,1.77,-2.56,1.76,-1.76,-1.64,-1.26,-4.30,-4.31,-4.31
48.97,-2.54,1.77,-2.54,1.78,-1.77,-1.65,-1.27,-4.31,-4.31,-4.31
49.46,-2.53,1.78,-2.52,1.79,-1.79,-1.65,-1.28,-4.32,-4.31,-4.31
49.96,-2.50,1.81,-2.51,1.80,-1.80,-1.65,-1.29,-4.30,-4.32,-4.31
50.46,-2.50,1.81,-2.50,1.81,-1.82,-1.65,-1.31,-4.32,-4.32,-4.31
50.96,-2.50,1.81,-2.49,1.82,-1.83,-1.66,-1.32,-4.33,-4.32,-4.31
51.47,-2.48,1.83,-2.48,1.84,-1.84,-1.66,-1.34,-4.32,-4.32,-4.31
51.99,-2.45,1.86,-2.46,1.85,-1.85,-1.66,-1.35,-4.30,-4.31,-4.31
52.51,-2.45,1.86,-2.45,1.86,-1.86,-1.67,-1.37,-4.31,-4.31,-4.31
53.03,-2.45,1.86,-2.45,1.86,-1.86,-1.67,-1.38,-4.31,-4.31,-4.31
53.56,-2.45,1.86,-2.45,1.86,-1.86,-1.68,-1.40,-4.31,-4.31,-4.31
54.10,-2.45,1.86,-2.45,1.87,-1.86,-1.68,-1.41,-4.31,-4.31,-4.31
54.64,-2.45,1.86,-2.45,1.86,-1.85,-1.69,-1.43,-4.31,-4.31,-4.31
55.18,-2.45,1.86,-2.47,1.85,-1.85,-1.69,-1.45,-4.30,-4.31,-4.31
55.74,-2.50,1.81,-2.48,1.83,-1.83,-1.70,-1.46,-4.34,-4.32,-4.31
56.29,-2.50,1.81,-2.50,1.82,-1.82,-1.71,-1.48,-4.32,-4.32,-4.31
56.86,-2.50,1.81,-2.51,1.80,-1.81,-1.71,-1.49,-4.31,-4.32,-4.31
57.42,-2.51,1.80,-2.52,1.80,-1.79,-1.72,-1.51,-4.31,-4.31,-4.31
58.00,-2.54,1.77,-2.53,1.78,-1.78,-1.73,-1.52,-4.32,-4.31,-4.31
58.58,-2.54,1.77,-2.55,1.76,-1.76,-1.74,-1.54,-4.30,-4.31,-4.31
59.16,-2.57,1.74,-2.57,1.75,-1.74,-1.75,-1.55,-4.32,-4.31,-4.31
59.76,-2.59,1.72,-2.59,1.73,-1.73,-1.76,-1.57,-4.32,-4.31,-4.31
60.35,-2.59,1.72,-2.61,1.71,-1.71,-1.77,-1.58,-4.30,-4.31,-4.31
60.96,-2.64,1.67,-2.63,1.68,-1.69,-1.78,-1.59,-4.33,-4.32,-4.31
61.57,-2.64,1.67,-2.65,1.66,-1.67,-1.79,-1.60,-4.31,-4.32,-4.31
62.18,-2.68,1.63,-2.67,1.65,-1.65,-1.80,-1.61,-4.33,-4.32,-4.31
62.80,-2.68,1.63,-2.68,1.63,-1.63,-1.81,-1.62,-4.31,-4.31,-4.31
63.43,-2.68,1.63,-2.70,1.61,-1.61,-1.82,-1.63,-4.29,-4.31,-4.31
64.07,-2.73,1.58,-2.71,1.60,-1.59,-1.83,-1.64,-4.33,-4.31,-4.31
64.71,-2.73,1.58,-2.73,1.58,-1.58,-1.84,-1.65,-4.31,-4.31,-4.31
65.35,-2.73,1.58,-2.75,1.56,-1.57,-1.86,-1.65,-4.30,-4.32,-4.31
66.01,-2.77,1.54,-2.76,1.55,-1.55,-1.87,-1.66,-4.32,-4.32,-4.31
66.67,-2.78,1.53,-2.78,1.54,-1.54,-1.88,-1.67,-4.32,-4.32,-4.31
67.33,-2.78,1.53,-2.79,1.53,-1.53,-1.90,-1.67,-4.32,-4.32,-4.31
68.01,-2.78,1.53,-2.78,1.53,-1.53,-1.91,-1.68,-4.31,-4.31,-4.31
68.69,-2.78,1.53,-2.78,1.53,-1.53,-1.93,-1.68,-4.31,-4.31,-4.31
69.37,-2.78,1.53,-2.79,1.53,-1.53,-1.94,-1.69,-4.31,-4.32,-4.31
70.07,-2.78,1.53,-2.78,1.53,-1.54,-1.96,-1.69,-4.32,-4.32,-4.31
70.77,-2.78,1.53,-2.77,1.55,-1.55,-1.97,-1.70,-4.33,-4.32,-4.31
71.48,-2.73,1.58,-2.75,1.56,-1.57,-1.99,-1.70,-4.30,-4.32,-4.31
72.19,-2.73,1.58,-2.73,1.59,-1.59,-2.01,-1.71,-4.32,-4.31,-4.31
72.91,-2.70,1.61,-2.70,1.61,-1.61,-2.02,-1.71,-4.31,-4.31,-4.31
73.64,-2.68,1.63,-2.68,1.63,-1.64,-2.04,-1.72,-4.32,-4.32,-4.31
74.38,-2.64,1.67,-2.64,1.67,-1.67,-2.06,-1.73,-4.31,-4.31,-4.31
75.12,-2.61,1.70,-2.61,1.70,-1.70,-2.07,-1.74,-4.32,-4.31,-4.31
75.87,-2.57,1.74,-2.58,1.74,-1.74,-2.09,-1.74,-4.31,-4.31,-4.31
76.63,-2.54,1.77,-2.54,1.78,-1.77,-2.11,-1.75,-4.31,-4.31,-4.31
77.40,-2.50,1.81,-2.50,1.81,-1.81,-2.13,-1.76,-4.31,-4.31,-4.31
78.17,-2.46,1.85,-2.47,1.85,-1.84,-2.15,-1.78,-4.31,-4.31,-4.31
78.95,-2.43,1.88,-2.43,1.88,-1.88,-2.17,-1.79,-4.31,-4.31,-4.31
79.74,-2.40,1.91,-2.40,1.92,-1.92,-2.18,-1.80,-4.32,-4.32,-4.31
80.54,-2.36,1.95,-2.36,1.95,-1.96,-2.20,-1.82,-4.32,-4.32,-4.31
81.35,-2.31,2.00,-2.32,1.99,-2.00,-2.22,-1.83,-4.31,-4.32,-4.31
82.16,-2.28,2.03,-2.28,2.04,-2.04,-2.24,-1.85,-4.32,-4.31,-4.31
82.98,-2.24,2.07,-2.24,2.08,-2.08,-2.26,-1.87,-4.32,-4.31,-4.31
83.81,-2.19,2.12,-2.20,2.12,-2.12,-2.28,-1.89,-4.31,-4.31,-4.31
84.65,-2.15,2.16,-2.15,2.16,-2.16,-2.30,-1.91,-4.31,-4.31,-4.31
85.50,-2.11,2.20,-2.11,2.20,-2.20,-2.32,-1.94,-4.31,-4.31,-4.31
86.35,-2.08,2.23,-2.07,2.24,-2.24,-2.34,-1.96,-4.32,-4.31,-4.31
87.22,-2.03,2.28,-2.04,2.28,-2.28,-2.36,-1.99,-4.31,-4.32,-4.31
88.09,-1.99,2.32,-1.99,2.32,-2.32,-2.39,-2.02,-4.31,-4.31,-4.31
88.97,-1.96,2.35,-1.96,2.36,-2.36,-2.41,-2.05,-4.32,-4.31,-4.31
89.86,-1.91,2.40,-1.92,2.39,-2.39,-2.43,-2.08,-4.31,-4.32,-4.31
90.76,-1.89,2.42,-1.88,2.43,-2.43,-2.45,-2.11,-4.32,-4.31,-4.31
91.66,-1.84,2.47,-1.85,2.46,-2.46,-2.47,-2.15,-4.31,-4.31,-4.31
92.58,-1.81,2.50,-1.82,2.50,-2.50,-2.49,-2.19,-4.31,-4.31,-4.31
93.51,-1.80,2.51,-1.79,2.52,-2.52,-2.51,-2.22,-4.33,-4.31,-4.31
94.44,-1.75,2.56,-1.77,2.55,-2.55,-2.53,-2.26,-4.30,-4.31,-4.31
95.39,-1.75,2.56,-1.74,2.57,-2.57,-2.55,-2.30,-4.32,-4.31,-4.31
96.34,-1.71,2.60,-1.72,2.59,-2.59,-2.57,-2.35,-4.30,-4.31,-4.31
97.30,-1.70,2.61,-1.71,2.61,-2.61,-2.59,-2.39,-4.31,-4.31,-4.31
98.28,-1.70,2.61,-1.69,2.63,-2.63,-2.61,-2.43,-4.33,-4.31,-4.31
99.26,-1.66,2.65,-1.68,2.63,-2.64,-2.63,-2.48,-4.30,-4.32,-4.31
100.25,-1.66,2.65,-1.66,2.65,-2.66,-2.65,-2.52,-4.32,-4.32,-4.31
101.25,-1.66,2.65,-1.64,2.67,-2.67,-2.67,-2.57,-4.33,-4.31,-4.31
102.27,-1.61,2.70,-1.63,2.68,-2.69,-2.69,-2.62,-4.30,-4.32,-4.31
103.29,-1.61,2.70,-1.62,2.70,-2.70,-2.71,-2.66,-4.31,-4.32,-4.31
104.32,-1.61,2.70,-1.60,2.71,-2.71,-2.73,-2.71,-4.32,-4.31,-4.31
105.37,-1.59,2.72,-1.59,2.73,-2.72,-2.75,-2.76,-4.32,-4.31,-4.31
106.42,-1.56,2.75,-1.57,2.74,-2.74,-2.76,-2.81,-4.30,-4.31,-4.31
107.48,-1.56,2.75,-1.56,2.75,-2.75,-2.78,-2.85,-4.31,-4.31,-4.31
108.56,-1.56,2.75,-1.56,2.76,-2.76,-2.80,-2.90,-4.32,-4.32,-4.31
109.64,-1.56,2.75,-1.55,2.76,-2.77,-2.81,-2.94,-4.33,-4.32,-4.31
110.74,-1.53,2.78,-1.54,2.78,-2.78,-2.83,-2.98,-4.31,-4.32,-4.31
111.85,-1.52,2.79,-1.53,2.79,-2.78,-2.84,-3.02,-4.30,-4.31,-4.31
112.97,-1.52,2.79,-1.52,2.79,-2.79,-2.85,-3.06,-4.31,-4.31,-4.31
114.10,-1.52,2.79,-1.52,2.79,-2.79,-2.87,-3.10,-4.31,-4.31,-4.31
115.24,-1.52,2.79,-1.52,2.79,-2.79,-2.88,-3.13,-4.31,-4.31,-4.31
116.39,-1.52,2.79,-1.52,2.79,-2.79,-2.89,-3.16,-4.31,-4.31,-4.31
117.55,-1.52,2.79,-1.52,2.79,-2.80,-2.90,-3.19,-4.32,-4.32,-4.31
118.73,-1.52,2.79,-1.52,2.79,-2.80,-2.91,-3.21,-4.32,-4.32,-4.31
119.92,-1.52,2.79,-1.52,2.79,-2.80,-2.92,-3.23,-4.33,-4.32,-4.31
121.12,-1.51,2.80,-1.51,2.81,-2.81,-2.93,-3.25,-4.32,-4.32,-4.31
122.33,-1.49,2.82,-1.49,2.82,-2.82,-2.93,-3.26,-4.31,-4.31,-4.31
123.55,-1.47,2.84,-1.48,2.84,-2.83,-2.94,-3.26,-4.30,-4.31,-4.31
124.79,-1.47,2.84,-1.47,2.84,-2.83,-2.94,-3.26,-4.31,-4.30,-4.31
126.03,-1.47,2.84,-1.47,2.84,-2.84,-2.95,-3.26,-4.31,-4.31,-4.31
127.29,-1.47,2.84,-1.47,2.84,-2.84,-2.95,-3.26,-4.31,-4.31,-4.31
128.57,-1.47,2.84,-1.47,2.84,-2.84,-2.95,-3.25,-4.32,-4.32,-4.31
129.85,-1.47,2.84,-1.47,2.84,-2.84,-2.95,-3.23,-4.32,-4.32,-4.31
131.15,-1.47,2.84,-1.47,2.84,-2.84,-2.95,-3.21,-4.32,-4.32,-4.31
132.46,-1.47,2.84,-1.47,2.84,-2.85,-2.94,-3.19,-4.32,-4.32,-4.31
133.79,-1.47,2.84,-1.47,2.84,-2.84,-2.94,-3.16,-4.32,-4.32,-4.31
135.12,-1.47,2.84,-1.47,2.84,-2.84,-2.94,-3.13,-4.32,-4.32,-4.31
136.48,-1.47,2.84,-1.47,2.84,-2.84,-2.93,-3.10,-4.31,-4.31,-4.31
137.84,-1.47,2.84,-1.47,2.84,-2.84,-2.92,-3.06,-4.31,-4.31,-4.31
139.22,-1.47,2.84,-1.48,2.84,-2.83,-2.91,-3.03,-4.30,-4.31,-4.31
140.61,-1.48,2.83,-1.49,2.82,-2.82,-2.90,-2.98,-4.31,-4.31,-4.31
142.02,-1.51,2.80,-1.51,2.81,-2.82,-2.89,-2.94,-4.33,-4.32,-4.31
143.44,-1.52,2.79,-1.52,2.80,-2.81,-2.88,-2.90,-4.33,-4.33,-4.31
144.87,-1.52,2.79,-1.52,2.79,-2.80,-2.86,-2.85,-4.32,-4.32,-4.31
146.32,-1.52,2.79,-1.53,2.79,-2.79,-2.85,-2.80,-4.31,-4.31,-4.31
147.78,-1.52,2.79,-1.54,2.78,-2.77,-2.83,-2.76,-4.30,-4.31,-4.31
149.26,-1.56,2.75,-1.55,2.77,-2.76,-2.81,-2.71,-4.33,-4.31,-4.31
150.75,-1.56,2.75,-1.56,2.75,-2.75,-2.79,-2.66,-4.31,-4.31,-4.31
152.26,-1.56,2.75,-1.58,2.73,-2.74,-2.77,-2.61,-4.30,-4.32,-4.31
153.78,-1.60,2.71,-1.59,2.73,-2.72,-2.75,-2.56,-4.32,-4.31,-4.31
155.32,-1.61,2.70,-1.61,2.70,-2.70,-2.73,-2.52,-4.32,-4.31,-4.31
156.88,-1.61,2.70,-1.63,2.68,-2.69,-2.70,-2.47,-4.30,-4.32,-4.31
158.44,-1.66,2.65,-1.65,2.67,-2.67,-2.68,-2.42,-4.33,-4.32,-4.31
160.03,-1.66,2.65,-1.67,2.65,-2.65,-2.65,-2.38,-4.31,-4.32,-4.31
161.63,-1.68,2.63,-1.68,2.63,-2.63,-2.62,-2.34,-4.31,-4.31,-4.31
163.24,-1.70,2.61,-1.70,2.62,-2.61,-2.60,-2.29,-4.31,-4.31,-4.31
164.88,-1.70,2.61,-1.72,2.60,-2.59,-2.57,-2.25,-4.29,-4.31,-4.31
166.53,-1.75,2.56,-1.74,2.58,-2.57,-2.54,-2.21,-4.33,-4.31,-4.31
168.19,-1.75,2.56,-1.76,2.55,-2.55,-2.51,-2.17,-4.31,-4.31,-4.31
169.87,-1.79,2.52,-1.79,2.53,-2.53,-2.48,-2.14,-4.33,-4.32,-4.31
171.57,-1.80,2.51,-1.80,2.51,-2.51,-2.44,-2.10,-4.32,-4.32,-4.31
173.29,-1.82,2.49,-1.82,2.49,-2.49,-2.41,-2.07,-4.32,-4.31,-4.31
175.02,-1.84,2.47,-1.84,2.48,-2.47,-2.38,-2.03,-4.32,-4.31,-4.31
176.77,-1.84,2.47,-1.86,2.45,-2.45,-2.35,-2.00,-4.30,-4.31,-4.31
178.54,-1.89,2.42,-1.87,2.44,-2.44,-2.31,-1.97,-4.33,-4.31,-4.31
180.32,-1.89,2.42,-1.89,2.42,-2.42,-2.28,-1.95,-4.31,-4.31,-4.31
182.13,-1.89,2.42,-1.91,2.40,-2.41,-2.24,-1.92,-4.30,-4.32,-4.31
183.95,-1.94,2.37,-1.92,2.39,-2.39,-2.20,-1.90,-4.33,-4.32,-4.31
185.79,-1.94,2.37,-1.94,2.38,-2.38,-2.17,-1.87,-4.32,-4.32,-4.31
187.65,-1.94,2.37,-1.95,2.36,-2.36,-2.13,-1.85,-4.31,-4.32,-4.31
189.52,-1.96,2.35,-1.96,2.36,-2.35,-2.09,-1.83,-4.31,-4.31,-4.31
191.42,-1.98,2.33,-1.98,2.34,-2.33,-2.06,-1.81,-4.32,-4.31,-4.31
193.33,-1.98,2.33,-1.99,2.32,-2.32,-2.02,-1.80,-4.30,-4.31,-4.31
195.27,-2.02,2.29,-2.01,2.30,-2.30,-1.98,-1.78,-4.32,-4.31,-4.31
197.22,-2.03,2.28,-2.03,2.28,-2.28,-1.94,-1.76,-4.31,-4.31,-4.31
199.19,-2.06,2.25,-2.06,2.25,-2.25,-1.91,-1.75,-4.32,-4.32,-4.31
201.18,-2.08,2.23,-2.09,2.23,-2.23,-1.87,-1.74,-4.31,-4.31,-4.31
203.19,-2.12,2.19,-2.12,2.20,-2.20,-1.83,-1.72,-4.32,-4.31,-4.31
205.23,-2.15,2.16,-2.15,2.16,-2.16,-1.79,-1.71,-4.32,-4.32,-4.31
207.28,-2.18,2.13,-2.19,2.12,-2.13,-1.75,-1.70,-4.31,-4.32,-4.31
209.35,-2.24,2.07,-2.23,2.08,-2.09,-1.71,-1.69,-4.33,-4.32,-4.31
211.44,-2.27,2.04,-2.28,2.04,-2.04,-1.67,-1.68,-4.32,-4.32,-4.31
213.56,-2.32,1.99,-2.32,1.99,-2.00,-1.63,-1.67,-4.32,-4.32,-4.31
215.69,-2.37,1.94,-2.37,1.94,-1.94,-1.60,-1.65,-4.31,-4.31,-4.31
217.85,-2.43,1.88,-2.43,1.88,-1.88,-1.56,-1.64,-4.31,-4.31,-4.31
220.03,-2.51,1.80,-2.51,1.81,-1.80,-1.52,-1.63,-4.31,-4.31,-4.31
222.23,-2.58,1.73,-2.59,1.72,-1.72,-1.48,-1.62,-4.30,-4.31,-4.31
224.45,-2.69,1.62,-2.68,1.63,-1.62,-1.44,-1.60,-4.31,-4.30,-4.31
226.70,-2.78,1.53,-2.79,1.52,-1.50,-1.40,-1.59,-4.29,-4.30,-4.31
228.96,-2.91,1.40,-2.92,1.40,-1.38,-1.36,-1.57,-4.29,-4.30,-4.31
231.25,-3.05,1.26,-3.05,1.27,-1.25,-1.32,-1.55,-4.31,-4.30,-4.31
233.57,-3.19,1.12,-3.19,1.12,-1.12,-1.28,-1.54,-4.31,-4.32,-4.31
235.90,-3.33,0.98,-3.33,0.98,-0.99,-1.24,-1.51,-4.33,-4.33,-4.31
238.26,-3.46,0.85,-3.46,0.86,-0.87,-1.21,-1.49,-4.34,-4.33,-4.31
240.64,-3.56,0.75,-3.57,0.75,-0.77,-1.17,-1.46,-4.33,-4.33,-4.31
243.05,-3.66,0.65,-3.66,0.66,-0.67,-1.13,-1.44,-4.33,-4.33,-4.31
245.48,-3.73,0.58,-3.72,0.59,-0.59,-1.09,-1.41,-4.33,-4.32,-4.31
247.93,-3.77,0.54,-3.78,0.54,-0.53,-1.05,-1.37,-4.31,-4.31,-4.31
250.41,-3.80,0.51,-3.81,0.50,-0.49,-1.01,-1.34,-4.30,-4.31,-4.31
252.92,-3.85,0.46,-3.84,0.47,-0.47,-0.97,-1.30,-4.32,-4.31,-4.31
255.45,-3.85,0.46,-3.86,0.46,-0.47,-0.93,-1.26,-4.32,-4.32,-4.31
258.00,-3.85,0.46,-3.85,0.46,-0.48,-0.89,-1.21,-4.33,-4.33,-4.31
260.58,-3.82,0.49,-3.82,0.49,-0.51,-0.86,-1.17,-4.33,-4.33,-4.31
263.19,-3.78,0.53,-3.78,0.53,-0.54,-0.82,-1.12,-4.33,-4.33,-4.31
265.82,-3.73,0.58,-3.73,0.59,-0.59,-0.78,-1.07,-4.32,-4.32,-4.31
268.48,-3.67,0.64,-3.67,0.64,-0.64,-0.74,-1.01,-4.31,-4.31,-4.31
271.16,-3.61,0.70,-3.62,0.70,-0.68,-0.70,-0.96,-4.30,-4.30,-4.31
273.87,-3.57,0.74,-3.57,0.74,-0.73,-0.66,-0.90,-4.30,-4.30,-4.31
276.61,-3.54,0.77,-3.54,0.77,-0.76,-0.62,-0.84,-4.30,-4.30,-4.31
279.38,-3.52,0.79,-3.52,0.79,-0.78,-0.58,-0.78,-4.30,-4.30,-4.31
282.17,-3.52,0.79,-3.52,0.79,-0.78,-0.54,-0.71,-4.31,-4.31,-4.31
284.99,-3.53,0.78,-3.54,0.78,-0.78,-0.50,-0.64,-4.31,-4.32,-4.31
287.84,-3.57,0.74,-3.56,0.75,-0.76,-0.46,-0.57,-4.33,-4.32,-4.31
290.72,-3.59,0.72,-3.59,0.72,-0.73,-0.42,-0.50,-4.33,-4.33,-4.31
293.63,-3.62,0.69,-3.63,0.68,-0.69,-0.38,-0.43,-4.32,-4.32,-4.31
296.57,-3.68,0.63,-3.67,0.64,-0.64,-0.33,-0.36,-4.32,-4.32,-4.31
299.53,-3.73,0.58,-3.73,0.58,-0.57,-0.29,-0.28,-4.31,-4.31,-4.31
302.53,-3.81,0.50,-3.81,0.50,-0.49,-0.25,-0.21,-4.30,-4.30,-4.31
305.55,-3.90,0.41,-3.91,0.41,-0.38,-0.21,-0.13,-4.28,-4.29,-4.31
308.61,-4.03,0.28,-4.03,0.29,-0.26,-0.16,-0.05,-4.29,-4.28,-4.31
311.69,-4.16,0.15,-4.17,0.15,-0.11,-0.12,0.03,-4.28,-4.28,-4.31
314.81,-4.32,-0.01,-4.33,-0.01,0.04,-0.08,0.11,-4.29,-4.29,-4.31
317.96,-4.50,-0.19,-4.50,-0.18,0.19,-0.03,0.19,-4.31,-4.31,-4.31
321.14,-4.66,-0.35,-4.66,-0.35,0.33,0.01,0.27,-4.33,-4.33,-4.31
324.35,-4.81,-0.50,-4.81,-0.50,0.45,0.06,0.36,-4.36,-4.36,-4.31
327.59,-4.92,-0.61,-4.92,-0.61,0.55,0.11,0.44,-4.37,-4.37,-4.31
330.87,-5.00,-0.69,-4.99,-0.68,0.62,0.16,0.53,-4.38,-4.37,-4.31
334.18,-5.01,-0.70,-5.01,-0.70,0.66,0.21,0.61,-4.35,-4.35,-4.31
337.52,-5.01,-0.70,-5.00,-0.69,0.69,0.26,0.70,-4.32,-4.31,-4.31
340.90,-4.97,-0.66,-4.99,-0.67,0.70,0.31,0.79,-4.27,-4.29,-4.31
344.30,-4.97,-0.66,-4.99,-0.67,0.70,0.36,0.88,-4.27,-4.28,-4.31
347.75,-5.01,-0.70,-4.99,-0.68,0.71,0.41,0.97,-4.30,-4.28,-4.31
351.23,-5.02,-0.71,-5.03,-0.71,0.73,0.46,1.06,-4.29,-4.29,-4.31
354.74,-5.05,-0.74,-5.07,-0.75,0.77,0.52,1.15,-4.29,-4.30,-4.31
358.28,-5.13,-0.82,-5.12,-0.81,0.82,0.58,1.24,-4.31,-4.30,-4.31
361.87,-5.18,-0.87,-5.19,-0.88,0.88,0.63,1.34,-4.30,-4.31,-4.31
365.49,-5.28,-0.97,-5.27,-0.96,0.96,0.69,1.43,-4.32,-4.31,-4.31
369.14,-5.34,-1.03,-5.35,-1.04,1.04,0.75,1.53,-4.31,-4.32,-4.31
372.83,-5.45,-1.14,-5.44,-1.13,1.11,0.82,1.63,-4.34,-4.33,-4.31
376.56,-5.51,-1.20,-5.52,-1.20,1.19,0.88,1.72,-4.32,-4.33,-4.31
380.33,-5.59,-1.28,-5.59,-1.28,1.26,0.95,1.82,-4.33,-4.33,-4.31
384.13,-5.65,-1.34,-5.65,-1.33,1.32,1.01,1.92,-4.33,-4.32,-4.31
387.97,-5.70,-1.39,-5.70,-1.39,1.38,1.08,2.02,-4.32,-4.32,-4.31
391.85,-5.74,-1.43,-5.75,-1.44,1.44,1.15,2.12,-4.30,-4.31,-4.31
395.77,-5.80,-1.49,-5.80,-1.49,1.50,1.23,2.22,-4.30,-4.30,-4.31
399.73,-5.86,-1.55,-5.86,-1.55,1.55,1.30,2.31,-4.31,-4.31,-4.31
403.72,-5.92,-1.61,-5.92,-1.61,1.61,1.38,2.41,-4.31,-4.31,-4.31
407.76,-5.98,-1.67,-5.99,-1.67,1.67,1.46,2.51,-4.31,-4.32,-4.31
411.84,-6.05,-1.74,-6.05,-1.73,1.73,1.54,2.61,-4.32,-4.32,-4.31
415.96,-6.11,-1.80,-6.11,-1.80,1.80,1.62,2.71,-4.32,-4.31,-4.31
420.12,-6.17,-1.86,-6.18,-1.86,1.86,1.70,2.80,-4.31,-4.32,-4.31
424.32,-6.24,-1.93,-6.24,-1.93,1.93,1.79,2.89,-4.31,-4.31,-4.31
