frequency,raw,error,smoothed,error_smoothed,equalization,parametric_eq,fixed_band_eq,equalized_raw,equalized_smoothed,target
20.00,3.30,-0.72,3.30,-0.72,0.73,0.74,-0.09,4.03,4.04,4.03
20.20,3.33,-0.68,3.33,-0.69,0.69,0.72,-0.09,4.03,4.02,4.02
20.40,3.35,-0.66,3.35,-0.66,0.66,0.69,-0.09,4.01,4.01,4.02
20.61,3.38,-0.62,3.38,-0.62,0.62,0.67,-0.10,4.00,4.00,4.01
20.81,3.40,-0.59,3.40,-0.59,0.58,0.64,-0.10,3.99,3.99,4.00
21.02,3.43,-0.55,3.43,-0.56,0.55,0.62,-0.10,3.98,3.98,3.98
21.23,3.46,-0.52,3.47,-0.52,0.51,0.59,-0.10,3.98,3.98,3.98
21.44,3.50,-0.49,3.50,-0.48,0.48,0.57,-0.10,3.98,3.98,3.99
21.66,3.54,-0.44,3.54,-0.45,0.45,0.54,-0.10,3.99,3.99,3.98
21.87,3.57,-0.41,3.57,-0.41,0.42,0.52,-0.10,3.99,3.99,3.98
22.09,3.60,-0.37,3.60,-0.37,0.39,0.49,-0.10,3.99,3.99,3.97
22.31,3.62,-0.35,3.62,-0.35,0.36,0.46,-0.10,3.98,3.98,3.97
22.54,3.63,-0.33,3.63,-0.33,0.33,0.44,-0.11,3.96,3.96,3.96
22.76,3.65,-0.32,3.65,-0.32,0.29,0.41,-0.11,3.94,3.94,3.97
22.99,3.67,-0.30,3.68,-0.28,0.25,0.38,-0.11,3.93,3.93,3.97
23.22,3.72,-0.24,3.72,-0.24,0.22,0.36,-0.11,3.94,3.94,3.96
23.45,3.77,-0.19,3.77,-0.18,0.19,0.33,-0.11,3.96,3.97,3.96
23.69,3.82,-0.14,3.83,-0.13,0.17,0.30,-0.11,3.99,3.99,3.96
23.92,3.87,-0.08,3.86,-0.10,0.15,0.27,-0.11,4.02,4.01,3.96
24.16,3.87,-0.09,3.87,-0.09,0.13,0.25,-0.12,4.00,4.00,3.97
24.40,3.86,-0.11,3.86,-0.11,0.11,0.22,-0.12,3.97,3.97,3.97
24.65,3.85,-0.12,3.85,-0.12,0.09,0.19,-0.12,3.94,3.94,3.97
24.89,3.84,-0.13,3.85,-0.12,0.07,0.16,-0.12,3.91,3.92,3.97
25.14,3.87,-0.09,3.88,-0.09,0.04,0.13,-0.12,3.92,3.92,3.96
25.39,3.93,-0.03,3.93,-0.03,0.02,0.10,-0.13,3.95,3.95,3.96
25.65,3.99,0.03,3.99,0.03,-0.02,0.07,-0.13,3.97,3.97,3.96
25.91,4.05,0.09,4.05,0.09,-0.06,0.05,-0.13,3.99,3.99,3.96
26.16,4.08,0.13,4.08,0.12,-0.09,0.02,-0.14,3.99,3.98,3.96
26.43,4.09,0.15,4.09,0.14,-0.12,-0.01,-0.14,3.97,3.97,3.95
26.69,4.09,0.15,4.10,0.16,-0.15,-0.04,-0.14,3.95,3.95,3.95
26.96,4.10,0.17,4.10,0.17,-0.16,-0.07,-0.15,3.94,3.94,3.93
27.23,4.10,0.18,4.10,0.17,-0.18,-0.10,-0.15,3.92,3.92,3.92
27.50,4.10,0.18,4.10,0.18,-0.20,-0.13,-0.16,3.91,3.91,3.92
27.77,4.11,0.19,4.11,0.19,-0.22,-0.16,-0.16,3.89,3.89,3.92
28.05,4.12,0.20,4.13,0.22,-0.24,-0.19,-0.17,3.88,3.89,3.92
28.33,4.17,0.26,4.18,0.26,-0.27,-0.22,-0.18,3.90,3.90,3.92
28.62,4.23,0.33,4.23,0.32,-0.30,-0.25,-0.19,3.93,3.93,3.91
28.90,4.28,0.37,4.28,0.36,-0.33,-0.28,-0.19,3.95,3.94,3.91
29.19,4.31,0.40,4.30,0.39,-0.37,-0.31,-0.20,3.95,3.94,3.91
29.48,4.31,0.39,4.32,0.40,-0.40,-0.35,-0.21,3.91,3.92,3.92
29.78,4.32,0.40,4.33,0.41,-0.43,-0.38,-0.22,3.90,3.90,3.92
30.08,4.34,0.42,4.34,0.42,-0.45,-0.41,-0.24,3.90,3.90,3.93
30.38,4.37,0.46,4.37,0.45,-0.46,-0.44,-0.25,3.91,3.91,3.91
30.68,4.39,0.48,4.40,0.49,-0.47,-0.47,-0.26,3.92,3.93,3.91
30.99,4.42,0.52,4.41,0.50,-0.48,-0.50,-0.28,3.95,3.93,3.90
31.30,4.40,0.50,4.40,0.50,-0.48,-0.53,-0.29,3.92,3.92,3.90
31.61,4.38,0.49,4.38,0.49,-0.49,-0.56,-0.31,3.89,3.89,3.90
31.93,4.36,0.48,4.37,0.48,-0.50,-0.60,-0.32,3.86,3.87,3.88
32.24,4.36,0.48,4.37,0.49,-0.51,-0.63,-0.34,3.85,3.86,3.88
32.57,4.38,0.51,4.38,0.51,-0.52,-0.66,-0.36,3.86,3.86,3.87
32.89,4.40,0.55,4.40,0.54,-0.53,-0.69,-0.38,3.87,3.87,3.86
33.22,4.42,0.57,4.42,0.56,-0.55,-0.72,-0.40,3.87,3.86,3.85
33.55,4.43,0.58,4.43,0.58,-0.59,-0.75,-0.43,3.85,3.84,3.85
33.89,4.44,0.59,4.45,0.61,-0.63,-0.79,-0.45,3.82,3.83,3.85
34.23,4.48,0.65,4.49,0.65,-0.67,-0.82,-0.47,3.82,3.82,3.84
34.57,4.53,0.70,4.53,0.70,-0.71,-0.85,-0.50,3.83,3.83,3.83
34.92,4.58,0.76,4.58,0.75,-0.74,-0.88,-0.52,3.84,3.84,3.82
35.27,4.61,0.79,4.61,0.79,-0.77,-0.91,-0.55,3.85,3.84,3.83
35.62,4.62,0.82,4.63,0.83,-0.79,-0.95,-0.58,3.83,3.84,3.80
35.97,4.64,0.85,4.63,0.84,-0.82,-0.98,-0.61,3.83,3.82,3.79
36.33,4.62,0.85,4.61,0.84,-0.84,-1.01,-0.64,3.78,3.77,3.77
36.70,4.59,0.83,4.60,0.84,-0.87,-1.04,-0.67,3.73,3.73,3.76
37.06,4.58,0.84,4.60,0.85,-0.89,-1.07,-0.70,3.69,3.70,3.75
37.43,4.62,0.89,4.62,0.89,-0.92,-1.11,-0.73,3.70,3.70,3.73
37.81,4.66,0.95,4.66,0.95,-0.95,-1.14,-0.77,3.71,3.71,3.71
38.19,4.70,1.02,4.70,1.02,-0.99,-1.17,-0.80,3.71,3.71,3.68
38.57,4.73,1.07,4.73,1.07,-1.04,-1.20,-0.84,3.69,3.69,3.66
38.95,4.75,1.12,4.74,1.11,-1.09,-1.23,-0.87,3.66,3.65,3.63
39.34,4.74,1.13,4.73,1.12,-1.15,-1.27,-0.91,3.60,3.59,3.61
39.74,4.72,1.14,4.73,1.15,-1.19,-1.30,-0.95,3.53,3.54,3.58
40.14,4.73,1.17,4.77,1.21,-1.23,-1.33,-0.99,3.50,3.54,3.56
40.54,4.82,1.29,4.82,1.29,-1.26,-1.36,-1.03,3.56,3.56,3.53
40.94,4.90,1.40,4.85,1.34,-1.29,-1.39,-1.07,3.62,3.57,3.51
41.35,4.85,1.36,4.84,1.35,-1.32,-1.42,-1.11,3.54,3.53,3.49
41.76,4.77,1.31,4.80,1.33,-1.34,-1.46,-1.15,3.43,3.46,3.46
42.18,4.75,1.30,4.77,1.33,-1.37,-1.49,-1.20,3.38,3.40,3.45
42.60,4.79,1.37,4.78,1.36,-1.40,-1.52,-1.24,3.39,3.39,3.42
43.03,4.83,1.44,4.81,1.42,-1.42,-1.55,-1.29,3.41,3.39,3.39
43.46,4.83,1.46,4.84,1.46,-1.45,-1.58,-1.33,3.38,3.39,3.38
43.90,4.84,1.49,4.85,1.50,-1.48,-1.61,-1.38,3.36,3.36,3.35
44.33,4.85,1.53,4.85,1.53,-1.53,-1.65,-1.43,3.33,3.32,3.32
44.78,4.86,1.57,4.86,1.57,-1.57,-1.68,-1.48,3.29,3.29,3.29
45.23,4.87,1.60,4.88,1.61,-1.61,-1.71,-1.53,3.26,3.27,3.28
45.68,4.89,1.66,4.89,1.65,-1.64,-1.74,-1.59,3.25,3.24,3.24
46.13,4.89,1.69,4.89,1.69,-1.68,-1.77,-1.64,3.22,3.22,3.20
46.60,4.89,1.72,4.89,1.72,-1.71,-1.80,-1.69,3.18,3.18,3.17
47.06,4.88,1.74,4.88,1.74,-1.75,-1.83,-1.75,3.13,3.13,3.14
47.53,4.87,1.76,4.87,1.77,-1.79,-1.87,-1.80,3.08,3.08,3.11
48.01,4.87,1.82,4.88,1.82,-1.83,-1.90,-1.86,3.04,3.04,3.05
48.49,4.88,1.86,4.88,1.87,-1.87,-1.93,-1.92,3.01,3.01,3.02
48.97,4.90,1.93,4.90,1.92,-1.91,-1.96,-1.98,2.99,2.98,2.98
49.46,4.90,1.97,4.90,1.97,-1.95,-1.99,-2.04,2.95,2.95,2.94
49.96,4.90,2.02,4.90,2.01,-1.99,-2.02,-2.10,2.91,2.91,2.88
50.46,4.89,2.03,4.89,2.04,-2.03,-2.05,-2.16,2.87,2.87,2.86
50.96,4.89,2.06,4.90,2.07,-2.06,-2.08,-2.22,2.83,2.83,2.83
51.47,4.89,2.10,4.90,2.10,-2.11,-2.11,-2.28,2.79,2.79,2.80
51.99,4.90,2.15,4.88,2.13,-2.15,-2.14,-2.34,2.75,2.73,2.75
52.51,4.88,2.16,4.88,2.16,-2.20,-2.17,-2.40,2.69,2.68,2.72
53.03,4.86,2.18,4.90,2.22,-2.24,-2.21,-2.46,2.62,2.66,2.68
53.56,4.94,2.30,4.93,2.29,-2.29,-2.24,-2.52,2.65,2.65,2.64
54.10,5.00,2.41,4.96,2.37,-2.33,-2.27,-2.58,2.67,2.63,2.59
54.64,4.96,2.40,4.98,2.42,-2.38,-2.30,-2.63,2.58,2.60,2.56
55.18,4.94,2.43,4.96,2.45,-2.43,-2.33,-2.69,2.51,2.53,2.51
55.74,4.94,2.47,4.93,2.45,-2.47,-2.36,-2.75,2.47,2.46,2.47
56.29,4.92,2.48,4.91,2.47,-2.50,-2.39,-2.80,2.42,2.41,2.45
56.86,4.88,2.46,4.92,2.51,-2.53,-2.42,-2.85,2.36,2.39,2.42
57.42,4.92,2.56,4.94,2.56,-2.54,-2.45,-2.90,2.38,2.39,2.36
58.00,4.99,2.65,4.95,2.61,-2.56,-2.48,-2.95,2.43,2.39,2.34
58.58,4.94,2.62,4.93,2.62,-2.58,-2.51,-2.99,2.36,2.35,2.32
59.16,4.88,2.59,4.89,2.60,-2.61,-2.54,-3.03,2.27,2.27,2.29
59.76,4.82,2.56,4.85,2.60,-2.65,-2.57,-3.07,2.17,2.20,2.26
60.35,4.84,2.64,4.85,2.64,-2.68,-2.60,-3.11,2.16,2.17,2.21
60.96,4.90,2.73,4.87,2.70,-2.72,-2.63,-3.14,2.18,2.15,2.17
61.57,4.89,2.77,4.90,2.78,-2.76,-2.66,-3.17,2.13,2.14,2.12
62.18,4.89,2.82,4.92,2.85,-2.81,-2.69,-3.20,2.09,2.11,2.07
62.80,4.93,2.92,4.89,2.88,-2.86,-2.72,-3.22,2.07,2.03,2.01
63.43,4.88,2.91,4.88,2.91,-2.91,-2.75,-3.24,1.97,1.97,1.97
64.07,4.81,2.89,4.86,2.94,-2.95,-2.78,-3.26,1.86,1.92,1.92
64.71,4.87,2.99,4.86,2.98,-2.98,-2.81,-3.27,1.89,1.88,1.89
65.35,4.88,3.04,4.86,3.02,-3.00,-2.84,-3.28,1.88,1.86,1.84
66.01,4.85,3.05,4.85,3.05,-3.03,-2.87,-3.29,1.83,1.82,1.80
66.67,4.80,3.04,4.82,3.06,-3.06,-2.90,-3.29,1.74,1.76,1.76
67.33,4.78,3.08,4.78,3.07,-3.10,-2.93,-3.29,1.68,1.68,1.70
68.01,4.77,3.11,4.75,3.09,-3.14,-2.96,-3.29,1.63,1.61,1.66
68.69,4.73,3.11,4.77,3.16,-3.19,-2.99,-3.29,1.54,1.59,1.62
69.37,4.78,3.21,4.80,3.23,-3.23,-3.02,-3.29,1.55,1.57,1.58
70.07,4.89,3.37,4.83,3.30,-3.27,-3.05,-3.28,1.62,1.56,1.53
70.77,4.82,3.34,4.84,3.36,-3.31,-3.08,-3.28,1.52,1.54,1.48
71.48,4.80,3.37,4.82,3.39,-3.34,-3.11,-3.27,1.46,1.48,1.44
72.19,4.79,3.40,4.77,3.38,-3.37,-3.14,-3.26,1.42,1.40,1.39
72.91,4.73,3.40,4.73,3.39,-3.40,-3.17,-3.26,1.33,1.33,1.34
73.64,4.67,3.38,4.68,3.39,-3.42,-3.20,-3.25,1.25,1.25,1.29
74.38,4.64,3.39,4.65,3.40,-3.44,-3.23,-3.24,1.20,1.21,1.25
75.12,4.64,3.43,4.66,3.45,-3.47,-3.26,-3.23,1.18,1.20,1.21
75.87,4.71,3.53,4.68,3.50,-3.49,-3.29,-3.23,1.22,1.19,1.18
76.63,4.69,3.56,4.69,3.55,-3.53,-3.32,-3.22,1.17,1.16,1.13
77.40,4.66,3.56,4.67,3.57,-3.56,-3.35,-3.22,1.10,1.11,1.10
78.17,4.65,3.59,4.65,3.58,-3.59,-3.38,-3.21,1.07,1.06,1.06
78.95,4.63,3.59,4.65,3.61,-3.61,-3.41,-3.21,1.02,1.04,1.04
79.74,4.65,3.65,4.66,3.66,-3.63,-3.44,-3.21,1.02,1.03,1.00
80.54,4.67,3.70,4.63,3.66,-3.65,-3.47,-3.22,1.02,0.98,0.97
81.35,4.61,3.68,4.60,3.66,-3.67,-3.50,-3.22,0.94,0.92,0.94
82.16,4.50,3.59,4.56,3.66,-3.69,-3.53,-3.23,0.81,0.87,0.91
82.98,4.56,3.70,4.55,3.69,-3.71,-3.56,-3.24,0.85,0.84,0.86
83.81,4.58,3.76,4.57,3.74,-3.73,-3.59,-3.25,0.85,0.84,0.83
84.65,4.58,3.79,4.57,3.78,-3.75,-3.62,-3.26,0.84,0.82,0.79
85.50,4.53,3.78,4.53,3.78,-3.76,-3.65,-3.28,0.77,0.77,0.75
86.35,4.47,3.76,4.49,3.78,-3.78,-3.68,-3.29,0.69,0.71,0.71
87.22,4.45,3.78,4.46,3.79,-3.80,-3.71,-3.31,0.65,0.66,0.67
88.09,4.45,3.82,4.45,3.82,-3.82,-3.73,-3.34,0.63,0.63,0.63
88.97,4.44,3.85,4.43,3.84,-3.84,-3.76,-3.36,0.60,0.59,0.59
89.86,4.41,3.86,4.41,3.86,-3.86,-3.79,-3.39,0.55,0.55,0.55
90.76,4.35,3.85,4.39,3.88,-3.89,-3.82,-3.42,0.47,0.50,0.51
91.66,4.38,3.93,4.37,3.91,-3.92,-3.85,-3.46,0.46,0.45,0.45
92.58,4.37,3.96,4.36,3.94,-3.95,-3.88,-3.49,0.42,0.40,0.41
93.51,4.34,3.98,4.35,3.99,-3.99,-3.91,-3.53,0.36,0.37,0.37
94.44,4.32,4.00,4.34,4.02,-4.01,-3.93,-3.57,0.31,0.32,0.32
95.39,4.33,4.06,4.32,4.06,-4.04,-3.96,-3.61,0.29,0.28,0.27
96.34,4.31,4.10,4.30,4.09,-4.07,-3.99,-3.66,0.25,0.24,0.21
97.30,4.26,4.10,4.26,4.10,-4.09,-4.02,-3.71,0.17,0.17,0.16
98.28,4.20,4.10,4.21,4.11,-4.12,-4.04,-3.75,0.09,0.09,0.10
99.26,4.14,4.10,4.16,4.11,-4.14,-4.07,-3.81,0.00,0.02,0.04
100.25,4.13,4.15,4.12,4.14,-4.16,-4.10,-3.86,-0.02,-0.03,-0.02
101.25,4.09,4.16,4.10,4.17,-4.17,-4.12,-3.91,-0.08,-0.07,-0.06
102.27,4.08,4.20,4.08,4.20,-4.19,-4.15,-3.97,-0.11,-0.11,-0.12
103.29,4.05,4.23,4.05,4.22,-4.20,-4.17,-4.02,-0.15,-0.16,-0.18
104.32,4.01,4.24,4.01,4.24,-4.22,-4.20,-4.08,-0.21,-0.22,-0.22
105.37,3.95,4.24,3.95,4.23,-4.24,-4.22,-4.14,-0.28,-0.29,-0.29
106.42,3.88,4.22,3.89,4.23,-4.25,-4.24,-4.20,-0.36,-0.36,-0.34
107.48,3.83,4.23,3.85,4.25,-4.25,-4.27,-4.25,-0.42,-0.40,-0.40
108.56,3.82,4.27,3.82,4.27,-4.26,-4.29,-4.31,-0.44,-0.44,-0.45
109.64,3.80,4.31,3.77,4.28,-4.26,-4.31,-4.37,-0.46,-0.49,-0.50
110.74,3.71,4.27,3.71,4.27,-4.27,-4.33,-4.42,-0.56,-0.56,-0.56
111.85,3.63,4.24,3.66,4.26,-4.28,-4.35,-4.48,-0.65,-0.62,-0.61
112.97,3.61,4.26,3.63,4.28,-4.29,-4.37,-4.53,-0.68,-0.66,-0.65
114.10,3.62,4.32,3.61,4.31,-4.30,-4.39,-4.58,-0.68,-0.70,-0.70
115.24,3.61,4.37,3.57,4.33,-4.32,-4.41,-4.62,-0.71,-0.75,-0.76
116.39,3.51,4.32,3.53,4.34,-4.34,-4.43,-4.67,-0.83,-0.81,-0.81
117.55,3.46,4.31,3.50,4.35,-4.37,-4.45,-4.71,-0.90,-0.87,-0.85
118.73,3.50,4.40,3.48,4.38,-4.39,-4.47,-4.74,-0.89,-0.91,-0.89
119.92,3.50,4.44,3.49,4.43,-4.42,-4.48,-4.77,-0.92,-0.92,-0.94
121.12,3.49,4.45,3.50,4.46,-4.44,-4.50,-4.80,-0.95,-0.95,-0.96
122.33,3.48,4.48,3.48,4.48,-4.47,-4.52,-4.83,-0.98,-0.99,-1.00
123.55,3.45,4.49,3.46,4.49,-4.49,-4.53,-4.85,-1.04,-1.03,-1.03
124.79,3.43,4.50,3.44,4.50,-4.51,-4.55,-4.86,-1.08,-1.07,-1.07
126.03,3.41,4.52,3.42,4.52,-4.52,-4.56,-4.87,-1.11,-1.11,-1.11
127.29,3.40,4.55,3.40,4.54,-4.54,-4.58,-4.87,-1.13,-1.14,-1.15
128.57,3.37,4.56,3.37,4.55,-4.54,-4.59,-4.87,-1.17,-1.18,-1.19
129.85,3.34,4.56,3.34,4.55,-4.56,-4.60,-4.87,-1.21,-1.22,-1.21
131.15,3.29,4.54,3.31,4.56,-4.57,-4.62,-4.86,-1.28,-1.26,-1.25
132.46,3.28,4.57,3.28,4.57,-4.58,-4.63,-4.85,-1.30,-1.30,-1.29
133.79,3.26,4.60,3.26,4.59,-4.60,-4.64,-4.83,-1.33,-1.34,-1.34
135.12,3.23,4.60,3.24,4.61,-4.61,-4.65,-4.81,-1.37,-1.37,-1.37
136.48,3.21,4.62,3.21,4.62,-4.62,-4.67,-4.79,-1.40,-1.40,-1.41
137.84,3.19,4.63,3.19,4.63,-4.62,-4.68,-4.76,-1.43,-1.44,-1.44
139.22,3.15,4.65,3.15,4.64,-4.62,-4.69,-4.74,-1.47,-1.47,-1.49
140.61,3.11,4.63,3.11,4.64,-4.63,-4.71,-4.71,-1.51,-1.51,-1.52
142.02,3.07,4.63,3.07,4.64,-4.63,-4.72,-4.67,-1.56,-1.55,-1.56
143.44,3.03,4.63,3.03,4.62,-4.63,-4.73,-4.64,-1.60,-1.61,-1.60
144.87,2.99,4.62,2.98,4.61,-4.64,-4.74,-4.61,-1.65,-1.66,-1.63
146.32,2.93,4.60,2.95,4.62,-4.65,-4.75,-4.58,-1.72,-1.70,-1.67
147.78,2.92,4.63,2.94,4.65,-4.66,-4.76,-4.54,-1.74,-1.72,-1.71
149.26,2.97,4.72,2.94,4.69,-4.68,-4.78,-4.51,-1.71,-1.74,-1.75
150.75,2.94,4.74,2.93,4.72,-4.70,-4.79,-4.48,-1.76,-1.77,-1.79
152.26,2.89,4.71,2.90,4.73,-4.72,-4.80,-4.45,-1.82,-1.81,-1.82
153.78,2.85,4.72,2.88,4.74,-4.73,-4.81,-4.42,-1.88,-1.86,-1.87
155.32,2.86,4.75,2.85,4.74,-4.74,-4.82,-4.39,-1.88,-1.90,-1.89
156.88,2.84,4.78,2.82,4.76,-4.75,-4.82,-4.36,-1.91,-1.93,-1.94
158.44,2.76,4.74,2.78,4.76,-4.75,-4.83,-4.34,-1.99,-1.97,-1.98
160.03,2.73,4.75,2.74,4.76,-4.76,-4.84,-4.32,-2.02,-2.02,-2.02
161.63,2.69,4.75,2.68,4.75,-4.76,-4.85,-4.30,-2.07,-2.07,-2.06
163.24,2.65,4.76,2.64,4.75,-4.76,-4.85,-4.28,-2.11,-2.12,-2.11
164.88,2.58,4.73,2.60,4.76,-4.76,-4.86,-4.27,-2.18,-2.16,-2.15
166.53,2.56,4.76,2.57,4.77,-4.77,-4.86,-4.26,-2.20,-2.19,-2.20
168.19,2.56,4.80,2.54,4.78,-4.77,-4.87,-4.25,-2.21,-2.24,-2.24
169.87,2.50,4.79,2.50,4.78,-4.78,-4.87,-4.25,-2.28,-2.29,-2.29
171.57,2.43,4.77,2.45,4.78,-4.79,-4.87,-4.25,-2.36,-2.34,-2.33
173.29,2.40,4.77,2.42,4.79,-4.80,-4.87,-4.25,-2.40,-2.38,-2.37
175.02,2.40,4.82,2.39,4.81,-4.80,-4.87,-4.25,-2.40,-2.41,-2.42
176.77,2.39,4.85,2.36,4.82,-4.80,-4.87,-4.26,-2.41,-2.44,-2.46
178.54,2.30,4.80,2.32,4.82,-4.80,-4.87,-4.27,-2.50,-2.48,-2.49
180.32,2.26,4.80,2.27,4.81,-4.81,-4.87,-4.28,-2.55,-2.53,-2.54
182.13,2.24,4.82,2.22,4.80,-4.81,-4.87,-4.30,-2.57,-2.59,-2.58
183.95,2.19,4.80,2.19,4.81,-4.82,-4.86,-4.32,-2.63,-2.63,-2.61
185.79,2.15,4.81,2.16,4.82,-4.84,-4.86,-4.35,-2.68,-2.67,-2.65
187.65,2.14,4.83,2.15,4.84,-4.85,-4.86,-4.37,-2.71,-2.70,-2.68
189.52,2.16,4.89,2.15,4.87,-4.87,-4.85,-4.41,-2.71,-2.72,-2.72
191.42,2.15,4.90,2.15,4.90,-4.89,-4.84,-4.44,-2.74,-2.74,-2.74
193.33,2.13,4.92,2.13,4.92,-4.91,-4.84,-4.47,-2.78,-2.78,-2.78
195.27,2.10,4.92,2.12,4.93,-4.93,-4.83,-4.51,-2.82,-2.81,-2.82
197.22,2.10,4.96,2.09,4.95,-4.94,-4.82,-4.55,-2.83,-2.84,-2.86
199.19,2.07,4.96,2.06,4.95,-4.94,-4.81,-4.60,-2.87,-2.88,-2.89
201.18,2.02,4.95,2.04,4.96,-4.94,-4.80,-4.64,-2.92,-2.91,-2.92
203.19,1.99,4.94,1.99,4.94,-4.94,-4.79,-4.69,-2.95,-2.95,-2.95
205.23,1.96,4.94,1.94,4.92,-4.94,-4.78,-4.74,-2.98,-3.00,-2.97
207.28,1.89,4.89,1.91,4.91,-4.94,-4.77,-4.79,-3.04,-3.03,-3.00
209.35,1.86,4.91,1.88,4.92,-4.93,-4.76,-4.84,-3.06,-3.05,-3.04
211.44,1.87,4.94,1.86,4.93,-4.91,-4.75,-4.89,-3.04,-3.05,-3.07
213.56,1.84,4.94,1.83,4.93,-4.90,-4.74,-4.94,-3.06,-3.07,-3.10
215.69,1.79,4.92,1.78,4.91,-4.89,-4.72,-4.99,-3.10,-3.11,-3.13
217.85,1.70,4.85,1.72,4.87,-4.88,-4.71,-5.04,-3.18,-3.16,-3.15
220.03,1.65,4.84,1.66,4.84,-4.86,-4.69,-5.08,-3.21,-3.21,-3.19
222.23,1.61,4.82,1.62,4.83,-4.85,-4.68,-5.13,-3.23,-3.23,-3.21
224.45,1.59,4.83,1.59,4.82,-4.83,-4.66,-5.17,-3.24,-3.24,-3.23
226.70,1.57,4.83,1.56,4.82,-4.81,-4.65,-5.21,-3.24,-3.25,-3.25
228.96,1.53,4.80,1.54,4.81,-4.80,-4.63,-5.25,-3.26,-3.25,-3.27
231.25,1.51,4.80,1.51,4.79,-4.79,-4.61,-5.28,-3.27,-3.28,-3.29
233.57,1.48,4.78,1.46,4.76,-4.77,-4.60,-5.32,-3.29,-3.31,-3.30
235.90,1.41,4.73,1.44,4.75,-4.76,-4.58,-5.34,-3.35,-3.32,-3.32
238.26,1.41,4.74,1.43,4.75,-4.75,-4.56,-5.36,-3.33,-3.32,-3.33
240.64,1.44,4.76,1.42,4.74,-4.73,-4.54,-5.37,-3.29,-3.31,-3.31
243.05,1.42,4.75,1.40,4.73,-4.71,-4.52,-5.38,-3.29,-3.31,-3.32
245.48,1.35,4.67,1.38,4.70,-4.70,-4.50,-5.38,-3.35,-3.32,-3.32
247.93,1.34,4.67,1.35,4.67,-4.69,-4.48,-5.38,-3.34,-3.34,-3.33
250.41,1.34,4.66,1.34,4.66,-4.67,-4.46,-5.37,-3.33,-3.33,-3.32
252.92,1.35,4.67,1.34,4.66,-4.66,-4.44,-5.35,-3.30,-3.32,-3.31
255.45,1.32,4.65,1.31,4.64,-4.64,-4.42,-5.33,-3.32,-3.32,-3.33
258.00,1.26,4.60,1.28,4.62,-4.62,-4.40,-5.30,-3.35,-3.33,-3.34
260.58,1.25,4.60,1.25,4.60,-4.59,-4.37,-5.26,-3.34,-3.34,-3.35
263.19,1.23,4.58,1.23,4.58,-4.57,-4.35,-5.22,-3.34,-3.34,-3.35
265.82,1.20,4.56,1.19,4.55,-4.54,-4.33,-5.18,-3.34,-3.35,-3.36
268.48,1.13,4.51,1.13,4.51,-4.51,-4.30,-5.13,-3.38,-3.38,-3.38
271.16,1.07,4.46,1.08,4.47,-4.48,-4.28,-5.07,-3.40,-3.39,-3.39
273.87,1.02,4.42,1.04,4.44,-4.45,-4.26,-5.01,-3.42,-3.40,-3.40
276.61,1.03,4.44,1.00,4.42,-4.42,-4.23,-4.94,-3.39,-3.41,-3.41
279.38,0.97,4.40,0.97,4.39,-4.39,-4.21,-4.87,-3.42,-3.43,-3.43
282.17,0.91,4.33,0.93,4.35,-4.37,-4.18,-4.80,-3.46,-3.44,-3.42
284.99,0.89,4.32,0.91,4.33,-4.35,-4.16,-4.73,-3.45,-3.44,-3.43
287.84,0.90,4.32,0.90,4.33,-4.32,-4.13,-4.65,-3.42,-3.42,-3.42
290.72,0.92,4.36,0.90,4.33,-4.30,-4.11,-4.58,-3.38,-3.41,-3.44
293.63,0.86,4.30,0.86,4.30,-4.28,-4.08,-4.50,-3.42,-3.41,-3.44
296.57,0.81,4.25,0.82,4.25,-4.26,-4.05,-4.42,-3.44,-3.44,-3.44
299.53,0.76,4.19,0.77,4.21,-4.23,-4.03,-4.34,-3.47,-3.46,-3.43
302.53,0.75,4.19,0.75,4.19,-4.20,-4.00,-4.26,-3.45,-3.45,-3.43
305.55,0.74,4.18,0.74,4.17,-4.17,-3.97,-4.18,-3.43,-3.43,-3.44
308.61,0.73,4.16,0.72,4.15,-4.14,-3.94,-4.11,-3.41,-3.42,-3.43
311.69,0.68,4.12,0.68,4.12,-4.11,-3.92,-4.03,-3.42,-3.42,-3.43
314.81,0.63,4.07,0.64,4.08,-4.07,-3.89,-3.95,-3.44,-3.43,-3.44
317.96,0.60,4.04,0.60,4.04,-4.04,-3.86,-3.88,-3.44,-3.44,-3.44
321.14,0.57,4.02,0.56,4.00,-4.01,-3.83,-3.80,-3.44,-3.45,-3.44
324.35,0.51,3.96,0.52,3.96,-3.97,-3.80,-3.73,-3.46,-3.46,-3.45
327.59,0.47,3.91,0.48,3.92,-3.94,-3.77,-3.66,-3.46,-3.46,-3.44
330.87,0.44,3.89,0.45,3.89,-3.90,-3.74,-3.60,-3.46,-3.45,-3.44
334.18,0.42,3.88,0.42,3.87,-3.86,-3.72,-3.53,-3.44,-3.44,-3.46
337.52,0.40,3.85,0.40,3.84,-3.82,-3.69,-3.47,-3.42,-3.42,-3.45
340.90,0.35,3.79,0.36,3.80,-3.79,-3.66,-3.41,-3.43,-3.43,-3.44
344.30,0.32,3.76,0.31,3.75,-3.75,-3.63,-3.35,-3.43,-3.44,-3.43
347.75,0.25,3.69,0.26,3.69,-3.72,-3.60,-3.30,-3.46,-3.46,-3.44
351.23,0.21,3.65,0.23,3.66,-3.68,-3.57,-3.24,-3.47,-3.45,-3.44
354.74,0.20,3.62,0.21,3.64,-3.64,-3.54,-3.19,-3.44,-3.43,-3.42
358.28,0.21,3.63,0.20,3.62,-3.60,-3.51,-3.15,-3.39,-3.40,-3.42
361.87,0.19,3.61,0.18,3.59,-3.56,-3.47,-3.10,-3.37,-3.39,-3.41
365.49,0.13,3.54,0.13,3.54,-3.53,-3.44,-3.06,-3.40,-3.40,-3.41
369.14,0.07,3.47,0.08,3.48,-3.50,-3.41,-3.02,-3.43,-3.42,-3.40
372.83,0.03,3.42,0.05,3.45,-3.47,-3.38,-2.98,-3.44,-3.42,-3.39
376.56,0.04,3.44,0.04,3.43,-3.44,-3.35,-2.94,-3.39,-3.40,-3.40
380.33,0.04,3.44,0.02,3.42,-3.40,-3.32,-2.91,-3.36,-3.38,-3.39
384.13,-0.01,3.39,-0.00,3.39,-3.37,-3.29,-2.88,-3.38,-3.37,-3.39
387.97,-0.05,3.34,-0.05,3.34,-3.34,-3.26,-2.85,-3.39,-3.39,-3.39
391.85,-0.09,3.30,-0.09,3.31,-3.32,-3.23,-2.82,-3.41,-3.41,-3.39
395.77,-0.13,3.27,-0.12,3.28,-3.29,-3.19,-2.79,-3.42,-3.41,-3.40
399.73,-0.14,3.27,-0.15,3.25,-3.26,-3.16,-2.77,-3.40,-3.41,-3.41
403.72,-0.19,3.21,-0.17,3.24,-3.22,-3.13,-2.75,-3.41,-3.40,-3.40
407.76,-0.21,3.21,-0.20,3.21,-3.19,-3.10,-2.73,-3.39,-3.39,-3.41
411.84,-0.23,3.20,-0.25,3.17,-3.15,-3.07,-2.71,-3.38,-3.41,-3.42
415.96,-0.31,3.12,-0.31,3.12,-3.12,-3.03,-2.69,-3.43,-3.43,-3.43
420.12,-0.39,3.05,-0.37,3.07,-3.08,-3.00,-2.67,-3.47,-3.45,-3.44
424.32,-0.41,3.02,-0.40,3.03,-3.05,-2.97,-2.66,-3.46,-3.45,-3.43
428.56,-0.40,3.01,-0.40,3.01,-3.02,-2.94,-2.64,-3.41,-3.42,-3.41
432.85,-0.38,3.01,-0.40,2.99,-2.98,-2.91,-2.63,-3.36,-3.39,-3.39
437.18,-0.42,2.95,-0.41,2.96,-2.95,-2.87,-2.62,-3.37,-3.36,-3.37
441.55,-0.44,2.90,-0.42,2.92,-2.92,-2.84,-2.60,-3.36,-3.34,-3.34
445.96,-0.41,2.90,-0.41,2.89,-2.90,-2.81,-2.59,-3.30,-3.31,-3.30
450.42,-0.38,2.88,-0.39,2.87,-2.87,-2.78,-2.58,-3.25,-3.25,-3.25
454.93,-0.36,2.85,-0.36,2.85,-2.84,-2.75,-2.57,-3.20,-3.20,-3.21
459.48,-0.35,2.81,-0.35,2.80,-2.80,-2.71,-2.55,-3.15,-3.15,-3.16
464.07,-0.33,2.76,-0.33,2.77,-2.77,-2.68,-2.54,-3.10,-3.09,-3.09
468.71,-0.31,2.72,-0.29,2.74,-2.73,-2.65,-2.53,-3.04,-3.03,-3.03
473.40,-0.26,2.72,-0.27,2.71,-2.70,-2.62,-2.51,-2.96,-2.97,-2.98
478.13,-0.24,2.68,-0.25,2.67,-2.66,-2.59,-2.50,-2.90,-2.92,-2.92
482.91,-0.26,2.61,-0.25,2.62,-2.63,-2.55,-2.48,-2.88,-2.87,-2.87
487.74,-0.26,2.56,-0.25,2.57,-2.59,-2.52,-2.46,-2.84,-2.83,-2.82
492.62,-0.24,2.54,-0.23,2.55,-2.55,-2.49,-2.44,-2.79,-2.78,-2.78
497.55,-0.22,2.53,-0.22,2.52,-2.51,-2.46,-2.42,-2.73,-2.74,-2.75
