frequency,raw,error,smoothed,error_smoothed,equalization,parametric_eq,fixed_band_eq,equalized_raw,equalized_smoothed,target
20.00,12.81,9.85,12.81,9.85,-9.84,-9.57,-4.64,2.96,2.96,2.96
20.20,12.80,9.87,12.80,9.87,-9.86,-9.60,-4.76,2.93,2.94,2.93
20.40,12.80,9.89,12.79,9.88,-9.88,-9.63,-4.88,2.92,2.91,2.91
20.61,12.79,9.90,12.79,9.90,-9.90,-9.66,-5.01,2.89,2.89,2.89
20.81,12.78,9.91,12.78,9.91,-9.91,-9.69,-5.14,2.87,2.87,2.87
21.02,12.77,9.92,12.77,9.92,-9.92,-9.71,-5.28,2.84,2.85,2.85
21.23,12.77,9.94,12.77,9.93,-9.93,-9.74,-5.42,2.83,2.83,2.83
21.44,12.76,9.95,12.76,9.94,-9.94,-9.76,-5.56,2.81,2.81,2.81
21.66,12.75,9.96,12.75,9.95,-9.95,-9.79,-5.71,2.80,2.80,2.79
21.87,12.74,9.96,12.74,9.96,-9.96,-9.81,-5.86,2.78,2.78,2.78
22.09,12.73,9.97,12.73,9.96,-9.96,-9.83,-6.02,2.77,2.77,2.76
22.31,12.72,9.97,12.72,9.96,-9.96,-9.85,-6.18,2.75,2.75,2.75
22.54,12.71,9.97,12.71,9.96,-9.96,-9.87,-6.34,2.74,2.74,2.74
22.76,12.69,9.96,12.69,9.96,-9.96,-9.89,-6.51,2.73,2.73,2.73
22.99,12.68,9.96,12.68,9.96,-9.96,-9.91,-6.69,2.72,2.72,2.72
23.22,12.67,9.96,12.67,9.96,-9.96,-9.92,-6.86,2.71,2.71,2.71
23.45,12.66,9.96,12.66,9.95,-9.95,-9.94,-7.05,2.71,2.70,2.70
23.69,12.64,9.95,12.64,9.95,-9.95,-9.95,-7.23,2.69,2.70,2.69
23.92,12.63,9.94,12.63,9.94,-9.94,-9.96,-7.42,2.69,2.69,2.69
24.16,12.62,9.94,12.62,9.93,-9.93,-9.97,-7.62,2.68,2.68,2.68
24.40,12.61,9.93,12.61,9.93,-9.93,-9.98,-7.82,2.68,2.68,2.68
24.65,12.60,9.93,12.60,9.92,-9.92,-9.99,-8.02,2.68,2.67,2.67
24.89,12.59,9.92,12.58,9.92,-9.92,-10.00,-8.23,2.67,2.67,2.67
25.14,12.57,9.91,12.57,9.91,-9.91,-10.01,-8.44,2.66,2.66,2.66
25.39,12.56,9.91,12.56,9.90,-9.90,-10.01,-8.65,2.65,2.66,2.65
25.65,12.55,9.90,12.55,9.90,-9.90,-10.01,-8.86,2.65,2.65,2.65
25.91,12.54,9.90,12.54,9.89,-9.89,-10.02,-9.08,2.65,2.65,2.64
26.16,12.53,9.89,12.53,9.88,-9.88,-10.02,-9.30,2.65,2.64,2.64
26.43,12.51,9.87,12.51,9.87,-9.88,-10.02,-9.52,2.63,2.64,2.64
26.69,12.50,9.87,12.50,9.86,-9.87,-10.02,-9.74,2.63,2.63,2.63
26.96,12.49,9.86,12.49,9.86,-9.86,-10.01,-9.96,2.63,2.63,2.63
27.23,12.48,9.86,12.48,9.85,-9.85,-10.01,-10.18,2.63,2.63,2.62
27.50,12.47,9.85,12.47,9.85,-9.84,-10.01,-10.40,2.63,2.62,2.62
27.77,12.46,9.84,12.46,9.84,-9.84,-10.00,-10.61,2.62,2.62,2.62
28.05,12.44,9.83,12.44,9.82,-9.83,-9.99,-10.82,2.61,2.61,2.61
28.33,12.43,9.82,12.43,9.82,-9.82,-9.98,-11.01,2.61,2.61,2.61
28.62,12.42,9.81,12.42,9.81,-9.81,-9.98,-11.20,2.61,2.61,2.61
28.90,12.41,9.81,12.41,9.80,-9.80,-9.97,-11.38,2.61,2.61,2.60
29.19,12.40,9.80,12.40,9.79,-9.79,-9.95,-11.55,2.61,2.61,2.60
29.48,12.38,9.78,12.38,9.78,-9.78,-9.94,-11.70,2.60,2.60,2.60
29.78,12.37,9.77,12.37,9.77,-9.77,-9.93,-11.83,2.60,2.60,2.60
30.08,12.36,9.76,12.36,9.76,-9.76,-9.91,-11.95,2.60,2.60,2.60
30.38,12.35,9.76,12.35,9.75,-9.75,-9.90,-12.05,2.60,2.60,2.59
30.68,12.34,9.75,12.34,9.74,-9.74,-9.88,-12.12,2.60,2.60,2.59
30.99,12.33,9.74,12.33,9.73,-9.73,-9.87,-12.18,2.60,2.59,2.59
31.30,12.31,9.72,12.31,9.72,-9.72,-9.85,-12.21,2.58,2.59,2.59
31.61,12.30,9.72,12.30,9.71,-9.72,-9.83,-12.23,2.58,2.58,2.58
31.93,12.29,9.71,12.29,9.71,-9.71,-9.82,-12.22,2.58,2.58,2.58
32.24,12.28,9.70,12.28,9.70,-9.70,-9.80,-12.19,2.58,2.58,2.58
32.57,12.27,9.70,12.27,9.69,-9.69,-9.78,-12.14,2.58,2.58,2.57
32.89,12.25,9.68,12.25,9.68,-9.68,-9.76,-12.08,2.57,2.57,2.57
33.22,12.24,9.67,12.24,9.67,-9.67,-9.74,-11.99,2.57,2.57,2.57
33.55,12.23,9.67,12.23,9.66,-9.66,-9.72,-11.90,2.57,2.57,2.56
33.89,12.22,9.66,12.22,9.65,-9.65,-9.70,-11.79,2.57,2.56,2.56
34.23,12.20,9.64,12.20,9.64,-9.64,-9.68,-11.67,2.56,2.56,2.56
34.57,12.19,9.64,12.19,9.63,-9.63,-9.66,-11.54,2.55,2.55,2.55
34.92,12.18,9.63,12.18,9.63,-9.63,-9.63,-11.40,2.55,2.55,2.55
35.27,12.17,9.62,12.17,9.62,-9.63,-9.61,-11.26,2.54,2.54,2.55
35.62,12.17,9.63,12.17,9.62,-9.62,-9.59,-11.12,2.54,2.54,2.54
35.97,12.16,9.62,12.16,9.62,-9.62,-9.57,-10.97,2.53,2.54,2.54
36.33,12.17,9.63,12.17,9.62,-9.62,-9.55,-10.82,2.54,2.54,2.54
36.70,12.17,9.63,12.17,9.63,-9.62,-9.53,-10.67,2.54,2.54,2.54
37.06,12.17,9.63,12.17,9.63,-9.62,-9.51,-10.53,2.54,2.54,2.54
37.43,12.16,9.63,12.16,9.62,-9.62,-9.49,-10.38,2.54,2.54,2.53
37.81,12.15,9.62,12.15,9.62,-9.61,-9.47,-10.24,2.54,2.54,2.53
38.19,12.14,9.61,12.14,9.61,-9.60,-9.45,-10.10,2.54,2.53,2.53
38.57,12.12,9.60,12.12,9.59,-9.59,-9.43,-9.97,2.53,2.53,2.52
38.95,12.09,9.57,12.09,9.57,-9.57,-9.40,-9.83,2.51,2.52,2.52
39.34,12.06,9.55,12.06,9.55,-9.56,-9.38,-9.71,2.50,2.51,2.51
39.74,12.04,9.53,12.04,9.53,-9.53,-9.36,-9.59,2.50,2.50,2.51
40.14,12.02,9.52,12.02,9.51,-9.51,-9.34,-9.47,2.51,2.51,2.50
40.54,11.99,9.49,11.99,9.49,-9.48,-9.32,-9.36,2.51,2.51,2.50
40.94,11.97,9.47,11.96,9.46,-9.45,-9.30,-9.26,2.51,2.51,2.50
41.35,11.93,9.43,11.93,9.43,-9.42,-9.28,-9.16,2.50,2.51,2.50
41.76,11.90,9.40,11.89,9.39,-9.39,-9.26,-9.07,2.51,2.50,2.50
42.18,11.85,9.35,11.85,9.35,-9.35,-9.24,-8.99,2.49,2.50,2.50
42.60,11.82,9.32,11.82,9.31,-9.32,-9.22,-8.91,2.50,2.50,2.50
43.03,11.79,9.28,11.78,9.27,-9.28,-9.20,-8.84,2.51,2.50,2.51
43.46,11.75,9.24,11.75,9.24,-9.24,-9.18,-8.77,2.51,2.51,2.51
43.90,11.72,9.21,11.72,9.20,-9.20,-9.16,-8.72,2.51,2.51,2.51
44.33,11.68,9.17,11.68,9.16,-9.17,-9.14,-8.66,2.51,2.51,2.51
44.78,11.64,9.13,11.64,9.13,-9.13,-9.12,-8.62,2.51,2.51,2.51
45.23,11.60,9.09,11.60,9.09,-9.09,-9.10,-8.58,2.51,2.51,2.51
45.68,11.57,9.06,11.56,9.05,-9.05,-9.08,-8.54,2.52,2.52,2.51
46.13,11.52,9.01,11.52,9.01,-9.00,-9.06,-8.51,2.52,2.52,2.51
46.60,11.47,8.96,11.47,8.96,-8.95,-9.04,-8.49,2.52,2.52,2.51
47.06,11.41,8.90,11.41,8.90,-8.90,-9.01,-8.48,2.51,2.51,2.51
47.53,11.35,8.85,11.35,8.84,-8.84,-8.99,-8.47,2.50,2.51,2.50
48.01,11.29,8.79,11.29,8.78,-8.79,-8.97,-8.46,2.50,2.50,2.50
48.49,11.23,8.73,11.23,8.73,-8.73,-8.94,-8.46,2.50,2.50,2.50
48.97,11.18,8.68,11.18,8.67,-8.68,-8.92,-8.47,2.50,2.50,2.50
49.46,11.13,8.63,11.13,8.63,-8.62,-8.90,-8.48,2.50,2.50,2.50
49.96,11.08,8.58,11.08,8.58,-8.57,-8.87,-8.49,2.50,2.51,2.50
50.46,11.04,8.54,11.03,8.53,-8.53,-8.85,-8.51,2.51,2.51,2.50
50.96,10.99,8.49,10.99,8.48,-8.49,-8.82,-8.53,2.50,2.50,2.50
51.47,10.95,8.44,10.95,8.44,-8.45,-8.79,-8.56,2.50,2.50,2.51
51.99,10.92,8.41,10.92,8.40,-8.41,-8.77,-8.58,2.50,2.50,2.51
52.51,10.89,8.38,10.89,8.38,-8.38,-8.74,-8.61,2.50,2.51,2.51
53.03,10.88,8.37,10.88,8.37,-8.36,-8.71,-8.65,2.52,2.52,2.51
53.56,10.87,8.36,10.86,8.35,-8.34,-8.68,-8.68,2.53,2.52,2.51
54.10,10.85,8.33,10.85,8.33,-8.33,-8.65,-8.71,2.52,2.52,2.52
54.64,10.83,8.31,10.84,8.31,-8.32,-8.62,-8.75,2.51,2.52,2.52
55.18,10.83,8.31,10.83,8.30,-8.31,-8.59,-8.78,2.52,2.52,2.52
55.74,10.83,8.31,10.83,8.30,-8.31,-8.56,-8.82,2.52,2.52,2.52
56.29,10.83,8.30,10.83,8.30,-8.30,-8.53,-8.85,2.52,2.53,2.53
56.86,10.84,8.31,10.84,8.31,-8.30,-8.50,-8.87,2.54,2.54,2.53
57.42,10.85,8.32,10.84,8.31,-8.30,-8.47,-8.90,2.55,2.54,2.53
58.00,10.85,8.31,10.85,8.31,-8.30,-8.44,-8.92,2.55,2.55,2.54
58.58,10.85,8.31,10.85,8.31,-8.30,-8.40,-8.93,2.55,2.55,2.54
59.16,10.85,8.31,10.85,8.30,-8.31,-8.37,-8.94,2.54,2.54,2.54
59.76,10.85,8.30,10.85,8.30,-8.31,-8.34,-8.94,2.54,2.54,2.55
60.35,10.85,8.30,10.85,8.30,-8.31,-8.30,-8.94,2.54,2.54,2.55
60.96,10.86,8.31,10.86,8.30,-8.31,-8.27,-8.93,2.55,2.55,2.55
61.57,10.87,8.32,10.87,8.31,-8.31,-8.23,-8.91,2.56,2.56,2.55
62.18,10.87,8.32,10.87,8.32,-8.31,-8.20,-8.88,2.56,2.56,2.55
62.80,10.87,8.32,10.87,8.31,-8.31,-8.16,-8.84,2.56,2.56,2.55
63.43,10.86,8.31,10.86,8.30,-8.30,-8.12,-8.80,2.55,2.55,2.55
64.07,10.84,8.29,10.84,8.29,-8.29,-8.09,-8.75,2.54,2.55,2.55
64.71,10.83,8.28,10.83,8.28,-8.28,-8.05,-8.69,2.55,2.55,2.55
65.35,10.82,8.27,10.81,8.26,-8.26,-8.01,-8.62,2.56,2.55,2.55
66.01,10.79,8.24,10.79,8.24,-8.23,-7.98,-8.55,2.56,2.56,2.55
66.67,10.76,8.21,10.76,8.21,-8.20,-7.94,-8.47,2.56,2.56,2.55
67.33,10.72,8.17,10.72,8.17,-8.17,-7.90,-8.38,2.55,2.55,2.55
68.01,10.68,8.13,10.68,8.12,-8.13,-7.86,-8.29,2.55,2.55,2.55
68.69,10.63,8.08,10.63,8.08,-8.08,-7.82,-8.19,2.55,2.55,2.55
69.37,10.58,8.03,10.58,8.03,-8.03,-7.78,-8.09,2.55,2.55,2.55
70.07,10.54,7.99,10.54,7.98,-7.98,-7.74,-7.99,2.56,2.56,2.55
70.77,10.49,7.94,10.49,7.93,-7.93,-7.70,-7.88,2.56,2.56,2.55
71.48,10.44,7.88,10.44,7.88,-7.87,-7.66,-7.77,2.57,2.56,2.56
72.19,10.38,7.82,10.38,7.82,-7.82,-7.62,-7.66,2.56,2.56,2.56
72.91,10.32,7.76,10.32,7.76,-7.77,-7.58,-7.55,2.55,2.55,2.56
73.64,10.27,7.71,10.27,7.71,-7.71,-7.54,-7.44,2.55,2.56,2.56
74.38,10.23,7.66,10.23,7.66,-7.66,-7.50,-7.33,2.57,2.57,2.57
75.12,10.19,7.62,10.19,7.61,-7.61,-7.45,-7.22,2.58,2.58,2.57
75.87,10.15,7.57,10.15,7.57,-7.56,-7.41,-7.12,2.59,2.59,2.58
76.63,10.10,7.52,10.10,7.52,-7.51,-7.37,-7.01,2.59,2.59,2.58
77.40,10.05,7.47,10.05,7.46,-7.46,-7.33,-6.91,2.58,2.58,2.58
78.17,10.00,7.41,10.00,7.41,-7.42,-7.28,-6.81,2.58,2.58,2.59
78.95,9.95,7.36,9.95,7.36,-7.36,-7.24,-6.71,2.58,2.59,2.59
79.74,9.91,7.32,9.91,7.31,-7.31,-7.20,-6.61,2.60,2.60,2.59
80.54,9.87,7.27,9.87,7.27,-7.26,-7.15,-6.52,2.61,2.61,2.60
81.35,9.82,7.22,9.81,7.21,-7.20,-7.11,-6.43,2.61,2.61,2.60
82.16,9.76,7.16,9.76,7.15,-7.15,-7.06,-6.35,2.61,2.61,2.60
82.98,9.69,7.09,9.70,7.09,-7.10,-7.02,-6.27,2.59,2.60,2.60
83.81,9.64,7.04,9.64,7.03,-7.04,-6.97,-6.19,2.60,2.60,2.60
84.65,9.59,6.98,9.59,6.98,-6.98,-6.93,-6.12,2.60,2.60,2.61
85.50,9.54,6.93,9.54,6.93,-6.93,-6.88,-6.05,2.61,2.61,2.61
86.35,9.49,6.88,9.49,6.88,-6.87,-6.84,-5.99,2.62,2.62,2.61
87.22,9.44,6.83,9.43,6.82,-6.82,-6.79,-5.93,2.62,2.61,2.61
88.09,9.38,6.77,9.38,6.77,-6.77,-6.75,-5.88,2.61,2.61,2.61
88.97,9.32,6.71,9.33,6.71,-6.71,-6.70,-5.83,2.60,2.61,2.61
89.86,9.28,6.67,9.27,6.66,-6.66,-6.65,-5.78,2.62,2.61,2.61
90.76,9.22,6.61,9.22,6.61,-6.61,-6.61,-5.74,2.61,2.61,2.61
91.66,9.17,6.56,9.17,6.56,-6.55,-6.56,-5.70,2.61,2.62,2.61
92.58,9.12,6.51,9.11,6.50,-6.50,-6.51,-5.67,2.62,2.61,2.61
93.51,9.06,6.45,9.06,6.45,-6.45,-6.46,-5.64,2.61,2.61,2.61
94.44,9.00,6.39,9.00,6.39,-6.39,-6.41,-5.61,2.61,2.61,2.61
95.39,8.95,6.34,8.95,6.34,-6.34,-6.37,-5.59,2.61,2.61,2.61
96.34,8.90,6.29,8.90,6.28,-6.29,-6.32,-5.57,2.61,2.62,2.61
97.30,8.86,6.24,8.85,6.23,-6.23,-6.27,-5.56,2.63,2.62,2.62
98.28,8.80,6.18,8.80,6.18,-6.18,-6.22,-5.54,2.62,2.62,2.62
99.26,8.75,6.13,8.75,6.12,-6.12,-6.17,-5.54,2.62,2.62,2.62
100.25,8.69,6.07,8.69,6.07,-6.07,-6.12,-5.53,2.62,2.62,2.62
101.25,8.64,6.02,8.64,6.02,-6.02,-6.07,-5.53,2.62,2.62,2.62
102.27,8.59,5.97,8.58,5.96,-5.96,-6.02,-5.53,2.63,2.62,2.62
103.29,8.53,5.91,8.53,5.91,-5.91,-5.97,-5.53,2.62,2.63,2.62
104.32,8.48,5.85,8.48,5.85,-5.85,-5.92,-5.53,2.63,2.63,2.63
105.37,8.43,5.80,8.43,5.79,-5.80,-5.86,-5.54,2.63,2.63,2.63
106.42,8.38,5.75,8.38,5.74,-5.74,-5.81,-5.54,2.64,2.63,2.63
107.48,8.32,5.68,8.32,5.68,-5.68,-5.76,-5.55,2.63,2.64,2.64
108.56,8.27,5.63,8.27,5.63,-5.63,-5.71,-5.55,2.64,2.64,2.64
109.64,8.22,5.58,8.22,5.57,-5.57,-5.65,-5.56,2.65,2.64,2.64
110.74,8.16,5.52,8.16,5.52,-5.51,-5.60,-5.56,2.64,2.65,2.64
111.85,8.11,5.47,8.11,5.46,-5.46,-5.54,-5.57,2.65,2.65,2.64
112.97,8.05,5.40,8.05,5.40,-5.40,-5.49,-5.57,2.65,2.65,2.65
114.10,7.99,5.34,7.99,5.34,-5.34,-5.44,-5.57,2.65,2.65,2.65
115.24,7.93,5.28,7.93,5.28,-5.28,-5.38,-5.56,2.65,2.65,2.65
116.39,7.88,5.23,7.88,5.22,-5.22,-5.32,-5.56,2.66,2.65,2.65
117.55,7.82,5.16,7.82,5.16,-5.16,-5.27,-5.55,2.66,2.66,2.66
118.73,7.77,5.11,7.77,5.11,-5.10,-5.21,-5.53,2.66,2.66,2.66
119.92,7.71,5.05,7.71,5.05,-5.04,-5.15,-5.51,2.66,2.67,2.66
121.12,7.66,5.00,7.66,4.99,-4.99,-5.10,-5.49,2.67,2.67,2.66
122.33,7.60,4.93,7.60,4.93,-4.93,-5.04,-5.46,2.67,2.67,2.67
123.55,7.54,4.87,7.54,4.87,-4.87,-4.98,-5.43,2.67,2.67,2.67
124.79,7.48,4.80,7.49,4.80,-4.81,-4.92,-5.39,2.67,2.68,2.68
126.03,7.44,4.76,7.43,4.75,-4.75,-4.86,-5.34,2.69,2.68,2.68
127.29,7.38,4.69,7.38,4.69,-4.69,-4.80,-5.29,2.69,2.69,2.69
128.57,7.32,4.63,7.32,4.63,-4.63,-4.74,-5.24,2.69,2.69,2.69
129.85,7.26,4.57,7.26,4.56,-4.57,-4.68,-5.18,2.69,2.69,2.69
131.15,7.20,4.51,7.20,4.51,-4.51,-4.62,-5.11,2.69,2.70,2.69
132.46,7.15,4.45,7.15,4.45,-4.45,-4.56,-5.04,2.70,2.70,2.70
133.79,7.09,4.39,7.09,4.39,-4.38,-4.49,-4.96,2.70,2.70,2.70
135.12,7.03,4.33,7.03,4.32,-4.32,-4.43,-4.89,2.71,2.70,2.70
136.48,6.96,4.26,6.96,4.25,-4.26,-4.37,-4.80,2.70,2.70,2.70
137.84,6.89,4.19,6.89,4.19,-4.19,-4.30,-4.71,2.70,2.70,2.70
139.22,6.83,4.13,6.83,4.13,-4.13,-4.24,-4.62,2.70,2.70,2.70
140.61,6.78,4.08,6.77,4.07,-4.06,-4.18,-4.53,2.72,2.71,2.70
142.02,6.71,4.00,6.71,4.00,-4.00,-4.11,-4.44,2.71,2.71,2.71
143.44,6.64,3.93,6.64,3.93,-3.93,-4.04,-4.34,2.71,2.71,2.71
144.87,6.57,3.86,6.57,3.85,-3.86,-3.98,-4.24,2.71,2.71,2.71
146.32,6.51,3.79,6.51,3.79,-3.79,-3.91,-4.14,2.72,2.72,2.72
147.78,6.45,3.73,6.45,3.73,-3.72,-3.85,-4.04,2.73,2.73,2.72
149.26,6.39,3.67,6.38,3.66,-3.65,-3.78,-3.94,2.73,2.73,2.72
150.75,6.32,3.59,6.31,3.59,-3.59,-3.71,-3.83,2.73,2.73,2.73
152.26,6.24,3.51,6.25,3.51,-3.52,-3.64,-3.73,2.72,2.73,2.73
153.78,6.18,3.45,6.18,3.45,-3.45,-3.57,-3.63,2.73,2.73,2.73
155.32,6.13,3.39,6.12,3.38,-3.39,-3.50,-3.53,2.74,2.74,2.74
156.88,6.07,3.33,6.06,3.32,-3.32,-3.44,-3.43,2.75,2.74,2.74
158.44,6.00,3.26,6.00,3.26,-3.25,-3.37,-3.33,2.74,2.75,2.74
160.03,5.93,3.19,5.93,3.19,-3.19,-3.30,-3.23,2.74,2.74,2.74
161.63,5.87,3.13,5.87,3.12,-3.12,-3.23,-3.13,2.75,2.75,2.74
163.24,5.81,3.06,5.81,3.06,-3.06,-3.15,-3.04,2.75,2.75,2.75
164.88,5.75,3.00,5.74,2.99,-2.99,-3.08,-2.94,2.76,2.75,2.75
166.53,5.68,2.93,5.67,2.92,-2.92,-3.01,-2.85,2.76,2.75,2.75
168.19,5.60,2.85,5.61,2.85,-2.86,-2.94,-2.76,2.74,2.75,2.75
169.87,5.54,2.78,5.54,2.78,-2.79,-2.87,-2.67,2.75,2.75,2.76
171.57,5.49,2.73,5.48,2.72,-2.72,-2.80,-2.58,2.77,2.76,2.76
173.29,5.43,2.67,5.43,2.66,-2.65,-2.72,-2.49,2.77,2.77,2.76
175.02,5.36,2.60,5.36,2.59,-2.59,-2.65,-2.41,2.77,2.77,2.76
176.77,5.29,2.52,5.29,2.52,-2.52,-2.58,-2.33,2.77,2.77,2.77
178.54,5.22,2.45,5.22,2.45,-2.46,-2.51,-2.24,2.76,2.77,2.77
180.32,5.17,2.40,5.16,2.39,-2.39,-2.43,-2.17,2.78,2.77,2.77
182.13,5.10,2.33,5.10,2.33,-2.32,-2.36,-2.09,2.77,2.77,2.77
183.95,5.04,2.27,5.03,2.26,-2.26,-2.28,-2.01,2.78,2.77,2.77
185.79,4.96,2.19,4.96,2.19,-2.20,-2.21,-1.94,2.76,2.77,2.77
187.65,4.90,2.13,4.90,2.13,-2.13,-2.14,-1.86,2.77,2.77,2.77
189.52,4.84,2.07,4.84,2.07,-2.07,-2.06,-1.79,2.77,2.77,2.77
191.42,4.79,2.02,4.78,2.01,-2.01,-1.99,-1.72,2.78,2.78,2.77
193.33,4.72,1.95,4.72,1.94,-1.94,-1.92,-1.65,2.78,2.78,2.77
195.27,4.65,1.88,4.65,1.88,-1.88,-1.84,-1.59,2.77,2.77,2.77
197.22,4.58,1.81,4.58,1.81,-1.81,-1.77,-1.52,2.77,2.77,2.77
199.19,4.52,1.75,4.52,1.74,-1.74,-1.69,-1.46,2.78,2.78,2.77
201.18,4.46,1.68,4.45,1.67,-1.67,-1.62,-1.39,2.79,2.78,2.78
203.19,4.39,1.61,4.39,1.60,-1.60,-1.55,-1.33,2.78,2.78,2.78
205.23,4.32,1.53,4.32,1.53,-1.54,-1.47,-1.27,2.78,2.78,2.79
207.28,4.25,1.46,4.25,1.46,-1.47,-1.40,-1.21,2.78,2.79,2.79
209.35,4.20,1.41,4.20,1.40,-1.40,-1.32,-1.15,2.80,2.80,2.79
211.44,4.14,1.34,4.14,1.34,-1.33,-1.25,-1.10,2.81,2.81,2.80
213.56,4.08,1.28,4.07,1.27,-1.26,-1.18,-1.04,2.81,2.81,2.80
215.69,4.00,1.20,4.00,1.20,-1.20,-1.10,-0.98,2.80,2.80,2.80
217.85,3.93,1.13,3.93,1.13,-1.13,-1.03,-0.93,2.80,2.80,2.80
220.03,3.87,1.06,3.87,1.06,-1.07,-0.96,-0.88,2.80,2.80,2.81
222.23,3.82,1.01,3.81,1.00,-1.00,-0.89,-0.82,2.82,2.81,2.81
224.45,3.76,0.95,3.75,0.94,-0.94,-0.81,-0.77,2.82,2.82,2.81
226.70,3.69,0.88,3.69,0.87,-0.87,-0.74,-0.72,2.82,2.82,2.81
228.96,3.62,0.80,3.62,0.80,-0.81,-0.67,-0.67,2.81,2.81,2.82
231.25,3.56,0.74,3.56,0.74,-0.74,-0.60,-0.62,2.81,2.82,2.82
233.57,3.51,0.69,3.51,0.68,-0.68,-0.53,-0.57,2.83,2.83,2.82
235.90,3.46,0.63,3.45,0.62,-0.61,-0.46,-0.52,2.84,2.84,2.83
238.26,3.39,0.56,3.39,0.55,-0.55,-0.39,-0.47,2.84,2.84,2.83
240.64,3.32,0.48,3.32,0.48,-0.48,-0.32,-0.42,2.84,2.84,2.84
243.05,3.26,0.41,3.26,0.41,-0.41,-0.25,-0.37,2.84,2.85,2.85
245.48,3.21,0.35,3.21,0.35,-0.35,-0.18,-0.32,2.86,2.86,2.86
247.93,3.15,0.29,3.15,0.28,-0.28,-0.11,-0.28,2.87,2.87,2.86
250.41,3.09,0.22,3.09,0.21,-0.21,-0.04,-0.23,2.88,2.88,2.87
252.92,3.02,0.14,3.02,0.14,-0.14,0.03,-0.18,2.88,2.88,2.88
255.45,2.95,0.06,2.95,0.06,-0.07,0.10,-0.14,2.88,2.89,2.89
258.00,2.89,-0.00,2.89,-0.01,0.00,0.16,-0.09,2.89,2.89,2.89
260.58,2.84,-0.06,2.83,-0.07,0.07,0.23,-0.04,2.91,2.90,2.90
263.19,2.77,-0.13,2.77,-0.13,0.14,0.30,0.00,2.90,2.91,2.90
265.82,2.71,-0.19,2.70,-0.20,0.20,0.36,0.05,2.91,2.90,2.90
268.48,2.64,-0.27,2.64,-0.27,0.26,0.43,0.10,2.90,2.90,2.91
271.16,2.58,-0.33,2.59,-0.33,0.32,0.49,0.15,2.90,2.91,2.91
273.87,2.54,-0.37,2.53,-0.38,0.38,0.56,0.19,2.92,2.92,2.91
276.61,2.49,-0.43,2.48,-0.44,0.44,0.62,0.24,2.93,2.93,2.92
279.38,2.43,-0.49,2.43,-0.50,0.50,0.69,0.29,2.93,2.93,2.92
282.17,2.37,-0.56,2.37,-0.56,0.56,0.75,0.34,2.93,2.93,2.93
284.99,2.32,-0.61,2.31,-0.62,0.62,0.81,0.39,2.93,2.93,2.93
287.84,2.26,-0.67,2.26,-0.68,0.67,0.87,0.43,2.93,2.93,2.93
290.72,2.20,-0.73,2.20,-0.73,0.72,0.93,0.48,2.92,2.93,2.93
293.63,2.15,-0.78,2.15,-0.79,0.78,0.99,0.53,2.93,2.93,2.93
296.57,2.10,-0.83,2.10,-0.83,0.83,1.05,0.59,2.93,2.93,2.93
299.53,2.06,-0.88,2.06,-0.88,0.89,1.11,0.64,2.94,2.94,2.94
302.53,2.02,-0.92,2.02,-0.93,0.94,1.17,0.69,2.96,2.95,2.94
305.55,1.97,-0.97,1.97,-0.98,0.99,1.23,0.74,2.96,2.95,2.94
308.61,1.91,-1.04,1.91,-1.04,1.04,1.29,0.80,2.95,2.95,2.95
311.69,1.85,-1.10,1.85,-1.10,1.10,1.34,0.85,2.94,2.95,2.95
314.81,1.80,-1.16,1.80,-1.16,1.15,1.40,0.91,2.95,2.95,2.96
317.96,1.76,-1.20,1.76,-1.21,1.20,1.45,0.96,2.96,2.96,2.96
321.14,1.72,-1.25,1.71,-1.26,1.26,1.51,1.02,2.98,2.97,2.97
324.35,1.67,-1.30,1.67,-1.31,1.31,1.56,1.08,2.98,2.98,2.97
327.59,1.61,-1.36,1.61,-1.37,1.37,1.62,1.14,2.97,2.98,2.97
330.87,1.56,-1.42,1.56,-1.42,1.42,1.67,1.20,2.98,2.98,2.98
334.18,1.51,-1.48,1.51,-1.48,1.47,1.72,1.26,2.98,2.99,2.99
337.52,1.47,-1.52,1.47,-1.53,1.53,1.77,1.32,3.00,3.00,2.99
340.90,1.42,-1.58,1.42,-1.58,1.59,1.83,1.39,3.01,3.01,3.00
344.30,1.36,-1.64,1.36,-1.64,1.65,1.88,1.45,3.01,3.01,3.00
347.75,1.30,-1.70,1.30,-1.71,1.71,1.93,1.52,3.01,3.00,3.00
351.23,1.23,-1.77,1.24,-1.77,1.77,1.97,1.59,2.99,3.00,3.00
354.74,1.18,-1.83,1.18,-1.83,1.82,2.02,1.66,3.00,3.00,3.01
358.28,1.13,-1.88,1.12,-1.89,1.88,2.07,1.73,3.01,3.01,3.01
361.87,1.07,-1.94,1.07,-1.94,1.95,2.12,1.80,3.01,3.02,3.01
365.49,1.02,-1.99,1.02,-2.00,2.00,2.16,1.88,3.02,3.02,3.01
369.14,0.96,-2.05,0.96,-2.06,2.06,2.21,1.95,3.02,3.02,3.01
372.83,0.90,-2.11,0.90,-2.12,2.11,2.25,2.03,3.01,3.01,3.01
376.56,0.84,-2.18,0.84,-2.18,2.17,2.30,2.10,3.01,3.01,3.02
380.33,0.79,-2.23,0.79,-2.23,2.22,2.34,2.18,3.01,3.01,3.02
384.13,0.75,-2.27,0.75,-2.28,2.27,2.39,2.26,3.02,3.02,3.02
387.97,0.71,-2.31,0.71,-2.32,2.32,2.43,2.34,3.03,3.03,3.02
391.85,0.67,-2.36,0.67,-2.36,2.37,2.47,2.43,3.04,3.04,3.03
395.77,0.62,-2.41,0.62,-2.42,2.42,2.51,2.51,3.04,3.04,3.03
399.73,0.57,-2.47,0.57,-2.47,2.47,2.55,2.59,3.04,3.04,3.04
403.72,0.52,-2.52,0.52,-2.52,2.51,2.59,2.68,3.03,3.04,3.04
407.76,0.48,-2.57,0.48,-2.57,2.56,2.63,2.76,3.04,3.04,3.05
411.84,0.45,-2.60,0.45,-2.61,2.61,2.67,2.84,3.06,3.06,3.05
415.96,0.41,-2.65,0.41,-2.65,2.66,2.71,2.93,3.07,3.07,3.06
420.12,0.37,-2.69,0.37,-2.70,2.70,2.74,3.01,3.07,3.07,3.06
424.32,0.32,-2.74,0.32,-2.75,2.75,2.78,3.09,3.07,3.07,3.06
428.56,0.27,-2.80,0.27,-2.80,2.79,2.81,3.18,3.06,3.06,3.07
432.85,0.23,-2.84,0.23,-2.84,2.83,2.85,3.26,3.06,3.06,3.07
437.18,0.19,-2.88,0.19,-2.88,2.88,2.88,3.34,3.07,3.07,3.07
441.55,0.16,-2.91,0.16,-2.92,2.92,2.92,3.41,3.08,3.08,3.07
445.96,0.12,-2.95,0.12,-2.96,2.97,2.95,3.49,3.09,3.08,3.07
450.42,0.07,-3.00,0.07,-3.00,3.01,2.98,3.56,3.08,3.08,3.07
454.93,0.02,-3.05,0.02,-3.06,3.06,3.01,3.63,3.08,3.08,3.07
459.48,-0.04,-3.11,-0.04,-3.11,3.11,3.05,3.69,3.07,3.07,3.07
464.07,-0.09,-3.16,-0.09,-3.16,3.16,3.08,3.76,3.07,3.07,3.07
468.71,-0.14,-3.21,-0.14,-3.21,3.21,3.11,3.81,3.06,3.07,3.07
473.40,-0.18,-3.25,-0.18,-3.26,3.25,3.14,3.87,3.07,3.07,3.07
478.13,-0.22,-3.30,-0.22,-3.30,3.30,3.16,3.91,3.08,3.08,3.08
482.91,-0.26,-3.34,-0.26,-3.34,3.34,3.19,3.96,3.08,3.08,3.08
487.74,-0.30,-3.38,-0.30,-3.39,3.39,3.22,3.99,3.09,3.09,3.08
492.62,-0.34,-3.42,-0.34,-3.43,3.43,3.25,4.03,3.09,3.09,3.08
497.55,-0.38,-3.47,-0.38,-3.47,3.47,3.27,4.05,3.09,3.09,3.09
502.52,-0.42,-3.51,-0.42,-3.51,3.51,3.30,4.07,3.09,3.09,3.09
507.55,-0.46,-3.55,-0.46,-3.56,3.56,3.32,4.09,3.09,3.09,3.09
512.62,-0.50,-3.59,-0.50,-3.60,3.60,3.35,4.10,3.10,3.10,3.09
517.75,-0.54,-3.64,-0.54,-3.64,3.64,3.37,4.10,3.10,3.10,3.10
522.93,-0.58,-3.68,-0.58,-3.68,3.68,3.39,4.10,3.10,3.10,3.10
