frequency,raw,error,smoothed,error_smoothed,equalization,parametric_eq,fixed_band_eq,equalized_raw,equalized_smoothed,target
20.00,-3.43,-6.58,-3.42,-6.57,5.96,6.76,1.76,2.54,2.54,3.15
20.20,-3.39,-6.53,-3.39,-6.54,5.99,6.69,1.81,2.60,2.60,3.14
20.40,-3.36,-6.50,-3.36,-6.50,6.01,6.62,1.86,2.65,2.65,3.14
20.61,-3.33,-6.46,-3.33,-6.46,6.02,6.54,1.92,2.69,2.69,3.13
20.81,-3.30,-6.43,-3.30,-6.43,6.03,6.47,1.98,2.73,2.73,3.13
21.02,-3.27,-6.40,-3.26,-6.39,6.03,6.40,2.04,2.76,2.76,3.13
21.23,-3.23,-6.34,-3.23,-6.34,6.02,6.33,2.10,2.80,2.80,3.11
21.44,-3.19,-6.27,-3.19,-6.28,6.02,6.25,2.16,2.83,2.83,3.09
21.66,-3.15,-6.22,-3.15,-6.21,6.01,6.18,2.23,2.86,2.86,3.07
21.87,-3.11,-6.14,-3.10,-6.14,5.99,6.10,2.29,2.89,2.90,3.04
22.09,-3.05,-6.06,-3.05,-6.07,5.97,6.03,2.36,2.92,2.92,3.02
22.31,-2.99,-5.98,-2.99,-5.98,5.93,5.96,2.43,2.95,2.94,3.00
22.54,-2.94,-5.90,-2.94,-5.90,5.88,5.88,2.50,2.95,2.95,2.97
22.76,-2.89,-5.82,-2.89,-5.82,5.83,5.81,2.58,2.94,2.94,2.94
22.99,-2.84,-5.74,-2.84,-5.75,5.77,5.73,2.65,2.93,2.93,2.91
23.22,-2.80,-5.67,-2.80,-5.67,5.70,5.66,2.73,2.90,2.90,2.88
23.45,-2.76,-5.61,-2.76,-5.61,5.63,5.58,2.81,2.87,2.87,2.85
23.69,-2.72,-5.55,-2.72,-5.55,5.56,5.51,2.89,2.84,2.84,2.83
23.92,-2.68,-5.49,-2.68,-5.49,5.50,5.43,2.97,2.82,2.82,2.81
24.16,-2.64,-5.44,-2.64,-5.44,5.44,5.36,3.06,2.80,2.80,2.80
24.40,-2.61,-5.39,-2.60,-5.39,5.38,5.28,3.14,2.77,2.77,2.78
24.65,-2.57,-5.33,-2.56,-5.33,5.32,5.21,3.23,2.75,2.75,2.76
24.89,-2.52,-5.26,-2.52,-5.26,5.25,5.13,3.31,2.74,2.74,2.74
25.14,-2.47,-5.19,-2.47,-5.19,5.19,5.06,3.40,2.72,2.72,2.72
25.39,-2.42,-5.12,-2.42,-5.12,5.12,4.98,3.49,2.70,2.70,2.70
25.65,-2.37,-5.06,-2.36,-5.05,5.05,4.91,3.58,2.68,2.68,2.69
25.91,-2.31,-4.97,-2.31,-4.97,4.98,4.83,3.67,2.67,2.67,2.66
26.16,-2.26,-4.90,-2.26,-4.90,4.91,4.76,3.75,2.65,2.65,2.65
26.43,-2.20,-4.83,-2.20,-4.83,4.83,4.68,3.84,2.64,2.63,2.63
26.69,-2.15,-4.76,-2.14,-4.76,4.76,4.61,3.92,2.61,2.62,2.62
26.96,-2.09,-4.68,-2.09,-4.69,4.69,4.53,4.01,2.60,2.60,2.60
27.23,-2.04,-4.62,-2.04,-4.62,4.62,4.46,4.09,2.58,2.58,2.59
27.50,-1.99,-4.55,-1.98,-4.55,4.54,4.38,4.17,2.56,2.56,2.56
27.77,-1.93,-4.47,-1.93,-4.47,4.47,4.31,4.24,2.54,2.54,2.54
28.05,-1.87,-4.40,-1.87,-4.39,4.40,4.23,4.31,2.53,2.53,2.53
28.33,-1.82,-4.32,-1.81,-4.32,4.32,4.16,4.38,2.51,2.51,2.50
28.62,-1.75,-4.24,-1.75,-4.25,4.25,4.08,4.44,2.50,2.50,2.49
28.90,-1.70,-4.19,-1.69,-4.18,4.18,4.01,4.50,2.48,2.48,2.49
29.19,-1.64,-4.11,-1.63,-4.11,4.11,3.93,4.55,2.47,2.47,2.47
29.48,-1.57,-4.03,-1.57,-4.04,4.03,3.86,4.59,2.47,2.46,2.47
29.78,-1.52,-3.96,-1.52,-3.96,3.96,3.78,4.63,2.45,2.45,2.45
30.08,-1.46,-3.89,-1.46,-3.90,3.90,3.71,4.65,2.44,2.43,2.44
30.38,-1.42,-3.83,-1.41,-3.82,3.83,3.64,4.68,2.41,2.42,2.41
30.68,-1.36,-3.75,-1.36,-3.75,3.76,3.56,4.69,2.40,2.40,2.39
30.99,-1.31,-3.68,-1.31,-3.69,3.69,3.49,4.70,2.38,2.38,2.37
31.30,-1.27,-3.63,-1.26,-3.62,3.62,3.42,4.69,2.35,2.36,2.36
31.61,-1.21,-3.56,-1.21,-3.55,3.55,3.35,4.68,2.34,2.34,2.35
31.93,-1.16,-3.47,-1.16,-3.48,3.47,3.27,4.66,2.32,2.31,2.32
32.24,-1.11,-3.40,-1.10,-3.40,3.40,3.20,4.63,2.29,2.29,2.29
32.57,-1.05,-3.32,-1.05,-3.32,3.32,3.13,4.60,2.27,2.27,2.27
32.89,-0.99,-3.25,-0.98,-3.24,3.24,3.06,4.55,2.25,2.25,2.26
33.22,-0.92,-3.15,-0.92,-3.15,3.16,2.99,4.50,2.24,2.24,2.23
33.55,-0.86,-3.07,-0.86,-3.07,3.07,2.92,4.44,2.22,2.21,2.22
33.89,-0.80,-2.98,-0.79,-2.99,2.99,2.85,4.38,2.19,2.19,2.19
34.23,-0.74,-2.91,-0.73,-2.90,2.90,2.78,4.31,2.17,2.17,2.17
34.57,-0.67,-2.81,-0.67,-2.82,2.82,2.71,4.23,2.15,2.15,2.14
34.92,-0.62,-2.74,-0.61,-2.74,2.74,2.64,4.15,2.12,2.13,2.12
35.27,-0.56,-2.67,-0.56,-2.66,2.66,2.57,4.06,2.10,2.10,2.11
35.62,-0.50,-2.58,-0.50,-2.58,2.58,2.51,3.98,2.08,2.08,2.09
35.97,-0.45,-2.50,-0.44,-2.51,2.50,2.44,3.88,2.06,2.06,2.05
36.33,-0.39,-2.43,-0.39,-2.43,2.43,2.37,3.79,2.04,2.04,2.04
36.70,-0.34,-2.36,-0.34,-2.35,2.36,2.31,3.69,2.02,2.02,2.02
37.06,-0.29,-2.27,-0.29,-2.28,2.28,2.24,3.59,2.00,2.00,1.99
37.43,-0.24,-2.21,-0.24,-2.21,2.21,2.18,3.49,1.98,1.98,1.97
37.81,-0.20,-2.15,-0.19,-2.14,2.15,2.11,3.39,1.95,1.95,1.95
38.19,-0.15,-2.08,-0.15,-2.08,2.08,2.05,3.29,1.93,1.93,1.93
38.57,-0.11,-2.02,-0.10,-2.02,2.01,1.99,3.18,1.90,1.90,1.91
38.95,-0.06,-1.95,-0.06,-1.95,1.94,1.93,3.08,1.88,1.88,1.89
39.34,-0.01,-1.87,-0.01,-1.87,1.87,1.86,2.98,1.86,1.86,1.87
39.74,0.04,-1.79,0.04,-1.80,1.80,1.80,2.87,1.84,1.84,1.84
40.14,0.09,-1.73,0.09,-1.73,1.73,1.74,2.77,1.83,1.82,1.82
40.54,0.13,-1.67,0.14,-1.66,1.67,1.69,2.67,1.80,1.80,1.80
40.94,0.18,-1.60,0.18,-1.60,1.60,1.63,2.57,1.79,1.78,1.78
41.35,0.22,-1.54,0.23,-1.54,1.54,1.57,2.47,1.76,1.77,1.76
41.76,0.27,-1.47,0.27,-1.47,1.48,1.52,2.38,1.75,1.75,1.75
42.18,0.31,-1.42,0.31,-1.42,1.42,1.46,2.28,1.73,1.73,1.73
42.60,0.34,-1.36,0.35,-1.37,1.36,1.41,2.18,1.71,1.71,1.71
43.03,0.38,-1.32,0.38,-1.32,1.31,1.35,2.09,1.69,1.69,1.70
43.46,0.41,-1.27,0.42,-1.25,1.25,1.30,2.00,1.66,1.67,1.68
43.90,0.46,-1.18,0.46,-1.19,1.19,1.25,1.91,1.65,1.65,1.64
44.33,0.49,-1.13,0.49,-1.13,1.13,1.20,1.82,1.63,1.63,1.62
44.78,0.52,-1.08,0.53,-1.07,1.08,1.15,1.73,1.60,1.60,1.60
45.23,0.56,-1.02,0.56,-1.02,1.02,1.10,1.64,1.58,1.58,1.58
45.68,0.59,-0.97,0.60,-0.96,0.96,1.05,1.56,1.56,1.56,1.56
46.13,0.63,-0.90,0.63,-0.91,0.91,1.00,1.47,1.54,1.54,1.54
46.60,0.67,-0.86,0.67,-0.86,0.86,0.96,1.39,1.53,1.53,1.53
47.06,0.70,-0.81,0.71,-0.81,0.81,0.91,1.31,1.51,1.51,1.51
47.53,0.74,-0.76,0.74,-0.76,0.75,0.86,1.23,1.50,1.50,1.50
48.01,0.77,-0.71,0.77,-0.71,0.70,0.82,1.15,1.48,1.48,1.48
48.49,0.80,-0.65,0.80,-0.65,0.65,0.78,1.08,1.46,1.45,1.45
48.97,0.82,-0.60,0.82,-0.61,0.60,0.74,1.00,1.43,1.43,1.43
49.46,0.84,-0.56,0.85,-0.55,0.56,0.69,0.93,1.40,1.40,1.40
49.96,0.86,-0.51,0.87,-0.51,0.51,0.65,0.85,1.38,1.38,1.37
50.46,0.89,-0.46,0.89,-0.47,0.47,0.62,0.78,1.37,1.36,1.35
50.96,0.90,-0.43,0.90,-0.43,0.43,0.58,0.71,1.34,1.34,1.34
51.47,0.91,-0.39,0.92,-0.39,0.40,0.54,0.64,1.31,1.31,1.31
51.99,0.93,-0.36,0.93,-0.36,0.36,0.50,0.58,1.29,1.29,1.29
52.51,0.94,-0.34,0.94,-0.33,0.32,0.46,0.51,1.27,1.27,1.28
53.03,0.96,-0.30,0.96,-0.29,0.29,0.43,0.44,1.25,1.25,1.26
53.56,0.97,-0.26,0.98,-0.26,0.26,0.39,0.38,1.23,1.23,1.23
54.10,1.00,-0.21,0.99,-0.22,0.22,0.36,0.32,1.22,1.21,1.21
54.64,1.00,-0.19,1.01,-0.18,0.18,0.33,0.26,1.19,1.19,1.19
55.18,1.02,-0.15,1.02,-0.15,0.15,0.29,0.20,1.17,1.17,1.17
55.74,1.03,-0.12,1.03,-0.12,0.11,0.26,0.14,1.15,1.15,1.15
56.29,1.04,-0.08,1.05,-0.08,0.08,0.23,0.09,1.12,1.13,1.13
56.86,1.06,-0.04,1.06,-0.05,0.05,0.20,0.03,1.11,1.11,1.11
57.42,1.07,-0.01,1.07,-0.01,0.02,0.17,-0.02,1.09,1.09,1.08
58.00,1.08,0.01,1.09,0.01,-0.01,0.14,-0.07,1.07,1.07,1.07
58.58,1.09,0.04,1.10,0.04,-0.04,0.11,-0.12,1.05,1.06,1.06
59.16,1.11,0.07,1.11,0.07,-0.07,0.08,-0.17,1.04,1.04,1.04
59.76,1.11,0.09,1.12,0.09,-0.10,0.05,-0.22,1.01,1.02,1.02
60.35,1.12,0.13,1.12,0.12,-0.13,0.02,-0.26,1.00,0.99,1.00
60.96,1.12,0.14,1.13,0.15,-0.16,-0.01,-0.30,0.97,0.97,0.98
61.57,1.13,0.19,1.13,0.18,-0.18,-0.04,-0.34,0.95,0.95,0.95
62.18,1.14,0.22,1.14,0.22,-0.21,-0.07,-0.38,0.93,0.93,0.92
62.80,1.14,0.24,1.14,0.24,-0.23,-0.10,-0.42,0.91,0.91,0.90
63.43,1.14,0.26,1.14,0.26,-0.25,-0.13,-0.46,0.89,0.89,0.88
64.07,1.13,0.27,1.14,0.28,-0.27,-0.15,-0.49,0.86,0.86,0.86
64.71,1.13,0.29,1.13,0.29,-0.29,-0.18,-0.52,0.84,0.84,0.84
65.35,1.13,0.31,1.13,0.30,-0.31,-0.21,-0.56,0.82,0.82,0.83
66.01,1.12,0.32,1.13,0.32,-0.33,-0.24,-0.59,0.80,0.80,0.81
66.67,1.13,0.34,1.13,0.34,-0.34,-0.27,-0.61,0.79,0.79,0.79
67.33,1.13,0.36,1.13,0.36,-0.36,-0.30,-0.64,0.77,0.77,0.77
68.01,1.12,0.37,1.13,0.38,-0.38,-0.33,-0.67,0.74,0.75,0.75
68.69,1.13,0.41,1.13,0.40,-0.40,-0.35,-0.69,0.73,0.73,0.73
69.37,1.13,0.43,1.13,0.42,-0.42,-0.38,-0.72,0.71,0.71,0.71
70.07,1.13,0.45,1.13,0.45,-0.45,-0.41,-0.74,0.69,0.69,0.68
70.77,1.13,0.46,1.14,0.47,-0.47,-0.44,-0.76,0.66,0.66,0.67
71.48,1.14,0.49,1.14,0.49,-0.50,-0.47,-0.79,0.65,0.64,0.65
72.19,1.14,0.52,1.15,0.52,-0.52,-0.50,-0.81,0.62,0.62,0.63
72.91,1.15,0.56,1.15,0.55,-0.55,-0.53,-0.83,0.60,0.60,0.59
73.64,1.15,0.59,1.15,0.58,-0.57,-0.56,-0.85,0.58,0.58,0.57
74.38,1.15,0.60,1.15,0.61,-0.60,-0.60,-0.87,0.55,0.55,0.55
75.12,1.15,0.63,1.15,0.63,-0.63,-0.63,-0.90,0.53,0.53,0.53
75.87,1.15,0.65,1.15,0.65,-0.65,-0.66,-0.92,0.50,0.50,0.50
76.63,1.15,0.67,1.15,0.67,-0.68,-0.69,-0.94,0.48,0.48,0.48
77.40,1.15,0.70,1.15,0.70,-0.70,-0.72,-0.96,0.45,0.45,0.46
78.17,1.15,0.73,1.15,0.73,-0.73,-0.76,-0.99,0.43,0.43,0.42
78.95,1.15,0.75,1.15,0.75,-0.75,-0.79,-1.01,0.40,0.40,0.40
79.74,1.15,0.77,1.15,0.78,-0.78,-0.83,-1.03,0.37,0.37,0.38
80.54,1.15,0.80,1.16,0.81,-0.81,-0.86,-1.06,0.34,0.35,0.35
81.35,1.16,0.84,1.16,0.84,-0.84,-0.89,-1.09,0.32,0.32,0.32
82.16,1.16,0.87,1.16,0.87,-0.87,-0.93,-1.11,0.29,0.30,0.29
82.98,1.16,0.89,1.16,0.90,-0.90,-0.97,-1.14,0.26,0.26,0.27
83.81,1.16,0.94,1.16,0.93,-0.93,-1.00,-1.17,0.23,0.23,0.23
84.65,1.15,0.96,1.16,0.96,-0.96,-1.04,-1.20,0.19,0.20,0.20
85.50,1.16,0.99,1.16,0.99,-0.99,-1.08,-1.23,0.17,0.17,0.17
86.35,1.16,1.02,1.16,1.02,-1.02,-1.11,-1.26,0.14,0.14,0.14
87.22,1.15,1.05,1.16,1.05,-1.05,-1.15,-1.29,0.10,0.11,0.11
88.09,1.16,1.09,1.16,1.08,-1.08,-1.19,-1.33,0.08,0.08,0.07
88.97,1.15,1.11,1.15,1.11,-1.11,-1.23,-1.36,0.04,0.04,0.05
89.86,1.15,1.13,1.15,1.14,-1.14,-1.27,-1.40,0.01,0.01,0.02
90.76,1.15,1.18,1.15,1.17,-1.17,-1.31,-1.43,-0.02,-0.02,-0.02
91.66,1.15,1.20,1.15,1.21,-1.20,-1.35,-1.47,-0.05,-0.05,-0.05
92.58,1.15,1.25,1.15,1.24,-1.24,-1.39,-1.51,-0.08,-0.08,-0.09
93.51,1.15,1.26,1.16,1.27,-1.27,-1.43,-1.55,-0.12,-0.12,-0.11
94.44,1.16,1.31,1.16,1.31,-1.31,-1.47,-1.59,-0.15,-0.15,-0.15
95.39,1.15,1.34,1.15,1.34,-1.35,-1.51,-1.63,-0.19,-0.19,-0.18
96.34,1.15,1.39,1.15,1.38,-1.38,-1.55,-1.68,-0.23,-0.23,-0.23
97.30,1.15,1.42,1.16,1.42,-1.42,-1.59,-1.72,-0.27,-0.27,-0.27
98.28,1.16,1.47,1.16,1.47,-1.46,-1.63,-1.77,-0.30,-0.30,-0.31
99.26,1.16,1.51,1.16,1.51,-1.50,-1.67,-1.81,-0.34,-0.34,-0.34
100.25,1.16,1.55,1.16,1.54,-1.55,-1.71,-1.86,-0.38,-0.38,-0.38
101.25,1.16,1.58,1.16,1.59,-1.59,-1.75,-1.90,-0.42,-0.42,-0.42
102.27,1.16,1.62,1.16,1.63,-1.63,-1.79,-1.95,-0.47,-0.47,-0.46
103.29,1.16,1.68,1.16,1.67,-1.67,-1.83,-2.00,-0.51,-0.50,-0.52
104.32,1.16,1.71,1.16,1.71,-1.71,-1.87,-2.04,-0.55,-0.55,-0.55
105.37,1.16,1.76,1.16,1.75,-1.75,-1.92,-2.09,-0.59,-0.59,-0.59
106.42,1.15,1.79,1.16,1.79,-1.80,-1.96,-2.14,-0.64,-0.64,-0.63
107.48,1.16,1.83,1.16,1.84,-1.84,-2.00,-2.19,-0.68,-0.68,-0.67
108.56,1.16,1.89,1.16,1.88,-1.89,-2.04,-2.23,-0.72,-0.72,-0.73
109.64,1.16,1.93,1.16,1.93,-1.93,-2.08,-2.28,-0.77,-0.77,-0.77
110.74,1.16,1.98,1.16,1.98,-1.98,-2.12,-2.32,-0.81,-0.81,-0.82
111.85,1.16,2.02,1.16,2.02,-2.03,-2.16,-2.36,-0.86,-0.86,-0.85
112.97,1.16,2.08,1.16,2.07,-2.07,-2.19,-2.40,-0.91,-0.91,-0.92
114.10,1.15,2.11,1.16,2.12,-2.12,-2.23,-2.44,-0.97,-0.96,-0.96
115.24,1.16,2.17,1.16,2.17,-2.17,-2.27,-2.48,-1.00,-1.01,-1.01
116.39,1.16,2.22,1.16,2.21,-2.21,-2.31,-2.51,-1.05,-1.05,-1.05
117.55,1.15,2.25,1.16,2.26,-2.25,-2.35,-2.54,-1.10,-1.10,-1.10
118.73,1.15,2.30,1.15,2.30,-2.29,-2.38,-2.57,-1.14,-1.14,-1.15
119.92,1.15,2.33,1.15,2.33,-2.33,-2.42,-2.60,-1.18,-1.19,-1.18
121.12,1.14,2.37,1.15,2.37,-2.37,-2.46,-2.63,-1.23,-1.23,-1.23
122.33,1.14,2.42,1.14,2.41,-2.41,-2.49,-2.65,-1.27,-1.27,-1.27
123.55,1.14,2.45,1.14,2.45,-2.45,-2.52,-2.66,-1.31,-1.31,-1.31
124.79,1.14,2.49,1.14,2.49,-2.49,-2.56,-2.68,-1.35,-1.35,-1.34
126.03,1.13,2.52,1.14,2.52,-2.53,-2.59,-2.69,-1.40,-1.39,-1.39
127.29,1.13,2.56,1.13,2.57,-2.57,-2.62,-2.70,-1.43,-1.43,-1.43
128.57,1.13,2.61,1.13,2.61,-2.60,-2.65,-2.70,-1.47,-1.47,-1.47
129.85,1.13,2.65,1.13,2.64,-2.64,-2.68,-2.71,-1.51,-1.51,-1.52
131.15,1.12,2.67,1.13,2.68,-2.67,-2.71,-2.71,-1.55,-1.54,-1.55
132.46,1.12,2.70,1.12,2.71,-2.70,-2.74,-2.70,-1.58,-1.58,-1.58
133.79,1.12,2.74,1.12,2.73,-2.73,-2.77,-2.70,-1.61,-1.62,-1.61
135.12,1.11,2.77,1.11,2.76,-2.76,-2.80,-2.69,-1.65,-1.65,-1.65
136.48,1.10,2.78,1.11,2.78,-2.79,-2.82,-2.68,-1.68,-1.68,-1.67
137.84,1.10,2.81,1.10,2.81,-2.81,-2.85,-2.67,-1.71,-1.71,-1.70
139.22,1.10,2.84,1.10,2.83,-2.83,-2.87,-2.66,-1.73,-1.73,-1.73
140.61,1.10,2.86,1.10,2.86,-2.85,-2.89,-2.64,-1.75,-1.75,-1.76
142.02,1.10,2.87,1.10,2.88,-2.87,-2.92,-2.63,-1.77,-1.77,-1.77
143.44,1.09,2.89,1.10,2.89,-2.89,-2.94,-2.61,-1.80,-1.79,-1.80
144.87,1.09,2.91,1.09,2.91,-2.91,-2.95,-2.59,-1.81,-1.81,-1.81
146.32,1.09,2.92,1.09,2.92,-2.92,-2.97,-2.57,-1.83,-1.83,-1.83
147.78,1.08,2.93,1.09,2.93,-2.94,-2.99,-2.56,-1.85,-1.85,-1.85
149.26,1.08,2.94,1.08,2.95,-2.95,-3.00,-2.54,-1.87,-1.87,-1.86
150.75,1.07,2.97,1.07,2.96,-2.96,-3.02,-2.52,-1.89,-1.89,-1.90
152.26,1.07,2.98,1.07,2.98,-2.98,-3.03,-2.50,-1.90,-1.91,-1.91
153.78,1.06,2.99,1.07,3.00,-2.99,-3.05,-2.49,-1.93,-1.92,-1.92
155.32,1.06,3.01,1.06,3.00,-3.00,-3.06,-2.47,-1.94,-1.94,-1.95
156.88,1.05,3.01,1.05,3.01,-3.01,-3.07,-2.46,-1.96,-1.96,-1.96
158.44,1.03,3.01,1.04,3.02,-3.03,-3.07,-2.45,-1.99,-1.99,-1.98
160.03,1.03,3.04,1.03,3.03,-3.04,-3.08,-2.43,-2.00,-2.01,-2.00
161.63,1.01,3.05,1.01,3.04,-3.04,-3.09,-2.42,-2.03,-2.03,-2.03
163.24,1.00,3.06,1.01,3.05,-3.05,-3.09,-2.41,-2.05,-2.05,-2.05
164.88,0.99,3.06,0.99,3.06,-3.06,-3.09,-2.41,-2.06,-2.06,-2.06
166.53,0.98,3.07,0.98,3.06,-3.06,-3.10,-2.40,-2.08,-2.08,-2.08
168.19,0.96,3.07,0.96,3.07,-3.07,-3.10,-2.40,-2.11,-2.11,-2.11
169.87,0.93,3.06,0.94,3.07,-3.07,-3.10,-2.40,-2.14,-2.13,-2.13
171.57,0.92,3.08,0.92,3.07,-3.08,-3.09,-2.40,-2.15,-2.16,-2.16
173.29,0.89,3.07,0.90,3.07,-3.08,-3.09,-2.40,-2.19,-2.18,-2.17
175.02,0.88,3.08,0.88,3.08,-3.08,-3.09,-2.40,-2.20,-2.21,-2.20
176.77,0.85,3.09,0.86,3.09,-3.09,-3.08,-2.41,-2.24,-2.23,-2.24
178.54,0.83,3.11,0.83,3.10,-3.10,-3.07,-2.42,-2.26,-2.26,-2.27
180.32,0.80,3.10,0.80,3.10,-3.10,-3.07,-2.43,-2.30,-2.30,-2.30
182.13,0.77,3.10,0.77,3.10,-3.11,-3.06,-2.44,-2.33,-2.33,-2.32
183.95,0.74,3.11,0.75,3.11,-3.11,-3.05,-2.45,-2.37,-2.36,-2.37
185.79,0.72,3.11,0.72,3.11,-3.12,-3.03,-2.47,-2.39,-2.39,-2.39
187.65,0.70,3.13,0.70,3.12,-3.12,-3.02,-2.49,-2.41,-2.42,-2.43
189.52,0.66,3.11,0.67,3.12,-3.12,-3.01,-2.50,-2.46,-2.45,-2.45
191.42,0.64,3.12,0.64,3.12,-3.12,-2.99,-2.52,-2.48,-2.48,-2.48
193.33,0.61,3.12,0.61,3.11,-3.12,-2.97,-2.55,-2.51,-2.51,-2.50
195.27,0.58,3.12,0.58,3.12,-3.12,-2.96,-2.57,-2.53,-2.54,-2.54
197.22,0.54,3.10,0.55,3.11,-3.11,-2.94,-2.60,-2.57,-2.56,-2.56
199.19,0.52,3.12,0.52,3.11,-3.10,-2.92,-2.62,-2.58,-2.58,-2.60
201.18,0.49,3.10,0.48,3.10,-3.09,-2.90,-2.65,-2.60,-2.61,-2.61
203.19,0.44,3.07,0.45,3.08,-3.08,-2.87,-2.67,-2.64,-2.63,-2.63
205.23,0.41,3.07,0.41,3.06,-3.07,-2.85,-2.70,-2.66,-2.66,-2.66
207.28,0.38,3.04,0.38,3.05,-3.05,-2.83,-2.73,-2.67,-2.68,-2.66
209.35,0.34,3.03,0.35,3.04,-3.04,-2.80,-2.76,-2.69,-2.69,-2.69
211.44,0.31,3.03,0.31,3.02,-3.02,-2.77,-2.79,-2.70,-2.71,-2.72
213.56,0.27,3.00,0.27,3.00,-2.99,-2.75,-2.81,-2.72,-2.72,-2.73
215.69,0.23,2.96,0.23,2.97,-2.97,-2.72,-2.84,-2.74,-2.73,-2.73
217.85,0.19,2.94,0.20,2.94,-2.94,-2.69,-2.87,-2.75,-2.75,-2.74
220.03,0.16,2.91,0.16,2.91,-2.91,-2.66,-2.89,-2.75,-2.75,-2.75
222.23,0.12,2.88,0.13,2.88,-2.88,-2.63,-2.91,-2.75,-2.75,-2.76
224.45,0.09,2.84,0.09,2.84,-2.84,-2.59,-2.93,-2.74,-2.75,-2.75
226.70,0.05,2.80,0.05,2.80,-2.80,-2.56,-2.95,-2.74,-2.74,-2.74
228.96,0.01,2.75,0.01,2.75,-2.75,-2.53,-2.97,-2.74,-2.74,-2.74
231.25,-0.03,2.70,-0.03,2.70,-2.71,-2.49,-2.98,-2.74,-2.74,-2.73
233.57,-0.07,2.66,-0.06,2.66,-2.66,-2.46,-2.99,-2.73,-2.73,-2.72
235.90,-0.10,2.61,-0.10,2.61,-2.61,-2.42,-2.99,-2.71,-2.71,-2.71
238.26,-0.14,2.57,-0.14,2.57,-2.56,-2.38,-2.99,-2.70,-2.70,-2.71
240.64,-0.18,2.51,-0.17,2.51,-2.51,-2.35,-2.98,-2.68,-2.68,-2.68
243.05,-0.21,2.46,-0.21,2.45,-2.45,-2.31,-2.98,-2.66,-2.66,-2.67
245.48,-0.26,2.39,-0.25,2.39,-2.39,-2.27,-2.96,-2.65,-2.65,-2.64
247.93,-0.30,2.32,-0.29,2.33,-2.33,-2.23,-2.94,-2.63,-2.63,-2.62
250.41,-0.34,2.28,-0.34,2.26,-2.27,-2.19,-2.92,-2.60,-2.61,-2.61
252.92,-0.38,2.20,-0.38,2.20,-2.20,-2.14,-2.89,-2.58,-2.58,-2.58
255.45,-0.43,2.13,-0.42,2.14,-2.13,-2.10,-2.86,-2.56,-2.56,-2.55
258.00,-0.47,2.07,-0.47,2.06,-2.07,-2.06,-2.82,-2.53,-2.54,-2.54
260.58,-0.52,2.00,-0.52,2.00,-1.99,-2.02,-2.77,-2.51,-2.51,-2.51
263.19,-0.57,1.92,-0.56,1.93,-1.92,-1.97,-2.73,-2.49,-2.49,-2.49
265.82,-0.61,1.86,-0.61,1.85,-1.85,-1.93,-2.67,-2.46,-2.46,-2.47
268.48,-0.67,1.77,-0.66,1.78,-1.77,-1.88,-2.62,-2.44,-2.44,-2.43
271.16,-0.71,1.70,-0.71,1.70,-1.70,-1.83,-2.55,-2.41,-2.41,-2.41
273.87,-0.77,1.63,-0.76,1.62,-1.62,-1.79,-2.49,-2.39,-2.39,-2.39
276.61,-0.82,1.55,-0.81,1.56,-1.55,-1.74,-2.42,-2.37,-2.36,-2.37
279.38,-0.86,1.49,-0.86,1.48,-1.48,-1.69,-2.35,-2.34,-2.34,-2.35
282.17,-0.91,1.42,-0.91,1.41,-1.41,-1.64,-2.27,-2.32,-2.32,-2.32
284.99,-0.95,1.35,-0.94,1.35,-1.35,-1.59,-2.19,-2.30,-2.30,-2.30
287.84,-0.98,1.29,-0.98,1.29,-1.30,-1.54,-2.11,-2.28,-2.28,-2.27
290.72,-0.99,1.25,-0.99,1.25,-1.27,-1.49,-2.03,-2.25,-2.26,-2.24
293.63,-1.00,1.22,-0.99,1.22,-1.24,-1.44,-1.94,-2.23,-2.23,-2.21
296.57,-0.98,1.21,-0.98,1.21,-1.22,-1.39,-1.86,-2.20,-2.20,-2.19
299.53,-0.96,1.20,-0.96,1.20,-1.21,-1.34,-1.77,-2.17,-2.17,-2.16
302.53,-0.93,1.22,-0.92,1.21,-1.21,-1.29,-1.68,-2.13,-2.13,-2.14
305.55,-0.89,1.21,-0.89,1.21,-1.21,-1.24,-1.59,-2.10,-2.10,-2.09
308.61,-0.85,1.22,-0.85,1.22,-1.21,-1.18,-1.50,-2.06,-2.06,-2.07
311.69,-0.81,1.22,-0.81,1.22,-1.21,-1.13,-1.41,-2.02,-2.02,-2.03
314.81,-0.78,1.20,-0.78,1.21,-1.21,-1.07,-1.31,-1.99,-1.99,-1.98
317.96,-0.76,1.21,-0.75,1.21,-1.20,-1.02,-1.22,-1.96,-1.95,-1.96
321.14,-0.74,1.20,-0.74,1.19,-1.19,-0.96,-1.13,-1.92,-1.93,-1.94
324.35,-0.74,1.17,-0.74,1.17,-1.17,-0.91,-1.04,-1.90,-1.91,-1.91
327.59,-0.75,1.13,-0.74,1.14,-1.14,-0.85,-0.94,-1.89,-1.88,-1.88
330.87,-0.76,1.09,-0.75,1.10,-1.11,-0.79,-0.85,-1.86,-1.86,-1.85
334.18,-0.77,1.07,-0.77,1.06,-1.07,-0.73,-0.76,-1.83,-1.84,-1.83
337.52,-0.79,1.03,-0.79,1.02,-1.02,-0.68,-0.66,-1.80,-1.81,-1.81
340.90,-0.83,0.96,-0.82,0.97,-0.96,-0.62,-0.57,-1.79,-1.78,-1.79
344.30,-0.87,0.90,-0.87,0.90,-0.89,-0.56,-0.48,-1.76,-1.76,-1.77
347.75,-0.93,0.82,-0.92,0.82,-0.82,-0.50,-0.38,-1.74,-1.74,-1.75
351.23,-0.99,0.74,-0.99,0.74,-0.73,-0.44,-0.29,-1.72,-1.72,-1.73
354.74,-1.07,0.65,-1.07,0.64,-0.64,-0.38,-0.20,-1.70,-1.71,-1.71
358.28,-1.16,0.54,-1.16,0.54,-0.54,-0.32,-0.11,-1.69,-1.69,-1.69
361.87,-1.25,0.43,-1.25,0.43,-0.43,-0.26,-0.02,-1.68,-1.68,-1.67
365.49,-1.35,0.31,-1.35,0.31,-0.32,-0.19,0.08,-1.67,-1.67,-1.66
369.14,-1.44,0.21,-1.44,0.21,-0.21,-0.13,0.17,-1.65,-1.65,-1.65
372.83,-1.54,0.09,-1.53,0.10,-0.10,-0.07,0.26,-1.64,-1.63,-1.63
376.56,-1.62,0.00,-1.62,-0.01,0.01,-0.01,0.35,-1.61,-1.61,-1.62
380.33,-1.71,-0.12,-1.71,-0.11,0.11,0.06,0.44,-1.59,-1.59,-1.59
384.13,-1.79,-0.22,-1.79,-0.22,0.22,0.12,0.53,-1.57,-1.57,-1.57
387.97,-1.88,-0.32,-1.88,-0.32,0.32,0.19,0.62,-1.56,-1.56,-1.55
391.85,-1.96,-0.41,-1.96,-0.42,0.42,0.25,0.71,-1.54,-1.54,-1.54
395.77,-2.04,-0.52,-2.04,-0.52,0.52,0.32,0.80,-1.52,-1.52,-1.51
399.73,-2.11,-0.61,-2.11,-0.61,0.62,0.38,0.89,-1.49,-1.49,-1.50
403.72,-2.19,-0.71,-2.19,-0.71,0.71,0.45,0.98,-1.48,-1.47,-1.48
407.76,-2.26,-0.80,-2.26,-0.80,0.80,0.52,1.07,-1.45,-1.45,-1.46
411.84,-2.33,-0.90,-2.33,-0.89,0.89,0.58,1.15,-1.43,-1.43,-1.43
415.96,-2.39,-0.98,-2.39,-0.98,0.98,0.65,1.24,-1.41,-1.41,-1.41
420.12,-2.45,-1.06,-2.45,-1.06,1.06,0.72,1.32,-1.39,-1.39,-1.39
424.32,-2.51,-1.14,-2.51,-1.13,1.13,0.78,1.40,-1.37,-1.37,-1.37
428.56,-2.56,-1.21,-2.56,-1.20,1.20,0.85,1.48,-1.36,-1.36,-1.35
432.85,-2.60,-1.27,-2.60,-1.27,1.26,0.92,1.56,-1.33,-1.33,-1.33
437.18,-2.63,-1.32,-2.63,-1.32,1.32,0.99,1.64,-1.31,-1.31,-1.30
441.55,-2.65,-1.37,-2.65,-1.37,1.37,1.05,1.71,-1.28,-1.28,-1.27
445.96,-2.68,-1.42,-2.67,-1.42,1.42,1.12,1.78,-1.26,-1.25,-1.25
450.42,-2.69,-1.45,-2.69,-1.46,1.46,1.19,1.85,-1.22,-1.22,-1.23
454.93,-2.71,-1.51,-2.71,-1.50,1.51,1.26,1.91,-1.20,-1.20,-1.19
459.48,-2.72,-1.54,-2.72,-1.55,1.55,1.32,1.97,-1.16,-1.17,-1.18
464.07,-2.74,-1.59,-2.74,-1.59,1.60,1.39,2.03,-1.14,-1.14,-1.15
468.71,-2.76,-1.64,-2.75,-1.64,1.64,1.46,2.08,-1.12,-1.11,-1.12
473.40,-2.78,-1.69,-2.78,-1.69,1.69,1.52,2.13,-1.09,-1.09,-1.09
478.13,-2.79,-1.73,-2.79,-1.73,1.73,1.59,2.17,-1.06,-1.06,-1.06
482.91,-2.82,-1.78,-2.81,-1.78,1.78,1.65,2.21,-1.04,-1.03,-1.04
487.74,-2.83,-1.82,-2.83,-1.82,1.82,1.72,2.25,-1.00,-1.00,-1.01
