frequency,raw,error,smoothed,error_smoothed,equalization,parametric_eq,fixed_band_eq,equalized_raw,equalized_smoothed,target
20.00,8.95,5.56,8.95,5.55,-5.56,-5.50,-2.54,3.39,3.39,3.40
20.20,8.97,5.59,8.97,5.58,-5.59,-5.50,-2.61,3.38,3.38,3.38
20.40,8.99,5.61,8.99,5.61,-5.61,-5.51,-2.69,3.38,3.38,3.38
20.61,9.01,5.64,9.01,5.64,-5.64,-5.51,-2.76,3.37,3.38,3.37
20.81,9.03,5.67,9.03,5.67,-5.66,-5.52,-2.84,3.38,3.38,3.36
21.02,9.05,5.70,9.05,5.69,-5.67,-5.52,-2.92,3.38,3.37,3.35
21.23,9.05,5.70,9.05,5.70,-5.69,-5.53,-3.00,3.36,3.37,3.35
21.44,9.05,5.69,9.05,5.70,-5.70,-5.53,-3.09,3.35,3.35,3.36
21.66,9.05,5.70,9.05,5.70,-5.70,-5.54,-3.17,3.35,3.35,3.35
21.87,9.05,5.70,9.05,5.70,-5.71,-5.54,-3.26,3.34,3.34,3.35
22.09,9.05,5.71,9.05,5.71,-5.71,-5.55,-3.36,3.34,3.34,3.34
22.31,9.05,5.71,9.05,5.71,-5.71,-5.55,-3.45,3.34,3.34,3.34
22.54,9.05,5.72,9.05,5.71,-5.71,-5.56,-3.55,3.34,3.34,3.33
22.76,9.05,5.71,9.05,5.71,-5.72,-5.56,-3.65,3.33,3.33,3.34
22.99,9.05,5.71,9.05,5.72,-5.72,-5.56,-3.75,3.33,3.33,3.34
23.22,9.05,5.72,9.05,5.72,-5.72,-5.57,-3.85,3.33,3.33,3.33
23.45,9.05,5.72,9.05,5.72,-5.72,-5.57,-3.96,3.33,3.33,3.33
23.69,9.05,5.72,9.05,5.72,-5.72,-5.58,-4.07,3.33,3.33,3.33
23.92,9.05,5.72,9.05,5.72,-5.72,-5.58,-4.18,3.33,3.33,3.33
24.16,9.05,5.71,9.05,5.71,-5.71,-5.59,-4.29,3.34,3.34,3.34
24.40,9.05,5.71,9.05,5.71,-5.71,-5.59,-4.41,3.34,3.34,3.35
24.65,9.05,5.71,9.05,5.71,-5.71,-5.59,-4.52,3.34,3.34,3.34
24.89,9.05,5.71,9.05,5.71,-5.71,-5.60,-4.64,3.34,3.34,3.34
25.14,9.05,5.72,9.05,5.71,-5.71,-5.60,-4.76,3.34,3.34,3.33
25.39,9.05,5.72,9.05,5.72,-5.71,-5.60,-4.88,3.34,3.34,3.33
25.65,9.05,5.72,9.05,5.72,-5.72,-5.61,-5.00,3.33,3.33,3.33
25.91,9.05,5.72,9.05,5.72,-5.72,-5.61,-5.12,3.33,3.33,3.33
26.16,9.05,5.72,9.05,5.72,-5.73,-5.62,-5.24,3.32,3.32,3.33
26.43,9.05,5.73,9.05,5.73,-5.73,-5.62,-5.37,3.32,3.32,3.32
26.69,9.05,5.73,9.05,5.74,-5.74,-5.62,-5.49,3.31,3.31,3.32
26.96,9.05,5.74,9.05,5.74,-5.74,-5.63,-5.60,3.31,3.31,3.31
27.23,9.05,5.75,9.05,5.75,-5.75,-5.63,-5.72,3.30,3.30,3.30
27.50,9.05,5.76,9.05,5.76,-5.76,-5.63,-5.83,3.29,3.29,3.29
27.77,9.05,5.76,9.05,5.76,-5.77,-5.64,-5.95,3.28,3.28,3.29
28.05,9.05,5.76,9.05,5.76,-5.77,-5.64,-6.05,3.28,3.28,3.29
28.33,9.06,5.77,9.06,5.77,-5.77,-5.64,-6.15,3.29,3.29,3.29
28.62,9.06,5.78,9.07,5.78,-5.77,-5.65,-6.25,3.29,3.30,3.28
28.90,9.07,5.78,9.06,5.78,-5.76,-5.65,-6.34,3.32,3.31,3.29
29.19,9.05,5.76,9.05,5.76,-5.74,-5.65,-6.43,3.31,3.31,3.29
29.48,9.01,5.71,9.02,5.72,-5.71,-5.66,-6.51,3.30,3.31,3.30
29.78,8.98,5.69,8.98,5.68,-5.68,-5.66,-6.58,3.30,3.30,3.29
30.08,8.94,5.64,8.94,5.64,-5.65,-5.66,-6.64,3.29,3.29,3.30
30.38,8.90,5.61,8.90,5.61,-5.62,-5.67,-6.69,3.28,3.28,3.29
30.68,8.87,5.58,8.87,5.58,-5.60,-5.67,-6.74,3.27,3.27,3.29
30.99,8.83,5.55,8.84,5.56,-5.58,-5.67,-6.77,3.25,3.26,3.28
31.30,8.84,5.57,8.84,5.56,-5.57,-5.68,-6.80,3.27,3.26,3.28
31.61,8.84,5.57,8.84,5.57,-5.57,-5.68,-6.82,3.27,3.27,3.27
31.93,8.85,5.59,8.85,5.58,-5.58,-5.68,-6.83,3.27,3.27,3.26
32.24,8.85,5.59,8.85,5.59,-5.58,-5.69,-6.82,3.27,3.27,3.26
32.57,8.85,5.60,8.85,5.61,-5.60,-5.69,-6.82,3.26,3.26,3.25
32.89,8.85,5.62,8.85,5.61,-5.61,-5.69,-6.80,3.24,3.24,3.23
33.22,8.85,5.62,8.85,5.62,-5.62,-5.70,-6.77,3.23,3.23,3.23
33.55,8.85,5.62,8.85,5.62,-5.64,-5.70,-6.74,3.22,3.21,3.23
33.89,8.85,5.62,8.85,5.63,-5.64,-5.70,-6.71,3.21,3.21,3.23
34.23,8.85,5.64,8.86,5.64,-5.64,-5.71,-6.66,3.22,3.22,3.21
34.57,8.86,5.65,8.87,5.65,-5.63,-5.71,-6.61,3.24,3.24,3.21
34.92,8.87,5.67,8.85,5.65,-5.61,-5.71,-6.56,3.26,3.24,3.20
35.27,8.82,5.62,8.81,5.62,-5.59,-5.72,-6.50,3.23,3.22,3.21
35.62,8.75,5.57,8.75,5.57,-5.57,-5.72,-6.45,3.18,3.18,3.18
35.97,8.68,5.51,8.70,5.53,-5.56,-5.72,-6.38,3.12,3.14,3.17
36.33,8.67,5.51,8.67,5.51,-5.54,-5.72,-6.32,3.13,3.13,3.16
36.70,8.66,5.52,8.65,5.51,-5.53,-5.73,-6.26,3.13,3.12,3.14
37.06,8.65,5.52,8.65,5.52,-5.53,-5.73,-6.19,3.12,3.12,3.13
37.43,8.65,5.54,8.65,5.54,-5.54,-5.73,-6.13,3.11,3.11,3.11
37.81,8.65,5.56,8.65,5.56,-5.56,-5.74,-6.07,3.09,3.09,3.09
38.19,8.65,5.58,8.65,5.58,-5.59,-5.74,-6.01,3.06,3.07,3.07
38.57,8.65,5.61,8.65,5.61,-5.61,-5.74,-5.95,3.04,3.04,3.04
38.95,8.65,5.63,8.65,5.63,-5.62,-5.75,-5.89,3.03,3.03,3.02
39.34,8.64,5.65,8.65,5.65,-5.62,-5.75,-5.83,3.02,3.02,2.99
39.74,8.63,5.66,8.63,5.66,-5.62,-5.75,-5.78,3.01,3.00,2.97
40.14,8.60,5.66,8.58,5.64,-5.62,-5.75,-5.73,2.98,2.96,2.94
40.54,8.52,5.60,8.52,5.61,-5.61,-5.76,-5.68,2.91,2.91,2.92
40.94,8.45,5.56,8.47,5.58,-5.61,-5.76,-5.64,2.84,2.86,2.89
41.35,8.44,5.56,8.44,5.57,-5.61,-5.76,-5.60,2.83,2.83,2.88
41.76,8.44,5.59,8.43,5.58,-5.61,-5.77,-5.56,2.83,2.83,2.85
42.18,8.44,5.61,8.44,5.61,-5.61,-5.77,-5.53,2.83,2.83,2.84
42.60,8.44,5.63,8.44,5.63,-5.61,-5.77,-5.50,2.83,2.83,2.81
43.03,8.44,5.66,8.43,5.65,-5.61,-5.78,-5.48,2.83,2.82,2.78
43.46,8.41,5.65,8.41,5.65,-5.62,-5.78,-5.46,2.79,2.80,2.77
43.90,8.38,5.64,8.38,5.64,-5.62,-5.78,-5.44,2.76,2.75,2.74
44.33,8.33,5.62,8.32,5.61,-5.62,-5.79,-5.43,2.71,2.70,2.71
44.78,8.27,5.59,8.28,5.59,-5.62,-5.79,-5.42,2.65,2.66,2.68
45.23,8.24,5.58,8.25,5.59,-5.62,-5.79,-5.41,2.62,2.63,2.67
45.68,8.24,5.61,8.24,5.61,-5.63,-5.79,-5.41,2.62,2.61,2.63
46.13,8.24,5.65,8.24,5.64,-5.63,-5.80,-5.42,2.61,2.61,2.59
46.60,8.23,5.67,8.23,5.67,-5.65,-5.80,-5.43,2.58,2.59,2.56
47.06,8.22,5.69,8.21,5.68,-5.67,-5.80,-5.44,2.55,2.54,2.53
47.53,8.17,5.67,8.17,5.68,-5.69,-5.81,-5.45,2.48,2.49,2.50
48.01,8.12,5.68,8.14,5.69,-5.70,-5.81,-5.47,2.42,2.44,2.44
48.49,8.12,5.71,8.12,5.71,-5.71,-5.81,-5.50,2.41,2.41,2.41
48.97,8.11,5.74,8.10,5.74,-5.72,-5.82,-5.52,2.39,2.38,2.37
49.46,8.08,5.75,8.08,5.75,-5.73,-5.82,-5.55,2.35,2.35,2.33
49.96,8.04,5.76,8.03,5.74,-5.74,-5.82,-5.58,2.30,2.29,2.28
50.46,7.98,5.72,7.98,5.72,-5.75,-5.83,-5.62,2.23,2.23,2.26
50.96,7.92,5.70,7.96,5.74,-5.76,-5.83,-5.66,2.16,2.20,2.22
51.47,7.95,5.76,7.95,5.76,-5.76,-5.83,-5.70,2.19,2.19,2.19
51.99,7.98,5.83,7.94,5.79,-5.77,-5.84,-5.74,2.21,2.17,2.15
52.51,7.91,5.80,7.91,5.80,-5.77,-5.84,-5.78,2.14,2.14,2.12
53.03,7.84,5.76,7.86,5.79,-5.78,-5.84,-5.82,2.06,2.08,2.08
53.56,7.81,5.77,7.81,5.77,-5.80,-5.85,-5.87,2.01,2.01,2.04
54.10,7.78,5.79,7.77,5.78,-5.81,-5.85,-5.92,1.97,1.96,1.99
54.64,7.75,5.79,7.75,5.80,-5.81,-5.85,-5.96,1.94,1.94,1.96
55.18,7.72,5.81,7.74,5.83,-5.81,-5.86,-6.01,1.91,1.92,1.91
55.74,7.73,5.86,7.72,5.84,-5.81,-5.86,-6.05,1.92,1.91,1.87
56.29,7.71,5.86,7.70,5.86,-5.81,-5.86,-6.09,1.90,1.89,1.85
56.86,7.65,5.83,7.64,5.84,-5.82,-5.87,-6.13,1.83,1.82,1.82
57.42,7.58,5.82,7.58,5.80,-5.83,-5.87,-6.17,1.75,1.75,1.76
58.00,7.50,5.76,7.53,5.78,-5.84,-5.87,-6.21,1.66,1.69,1.74
58.58,7.51,5.79,7.52,5.80,-5.84,-5.88,-6.24,1.67,1.68,1.72
59.16,7.53,5.84,7.54,5.84,-5.84,-5.88,-6.26,1.69,1.69,1.69
59.76,7.57,5.91,7.55,5.89,-5.85,-5.88,-6.29,1.72,1.70,1.66
60.35,7.53,5.92,7.52,5.90,-5.86,-5.89,-6.31,1.67,1.66,1.61
60.96,7.45,5.87,7.46,5.89,-5.87,-5.89,-6.32,1.58,1.59,1.58
61.57,7.38,5.86,7.39,5.87,-5.88,-5.89,-6.33,1.50,1.50,1.52
62.18,7.32,5.85,7.33,5.86,-5.89,-5.90,-6.34,1.43,1.44,1.47
62.80,7.31,5.89,7.30,5.88,-5.90,-5.90,-6.34,1.41,1.40,1.42
63.43,7.27,5.90,7.27,5.90,-5.91,-5.90,-6.33,1.37,1.37,1.37
64.07,7.24,5.92,7.25,5.93,-5.91,-5.91,-6.32,1.33,1.34,1.33
64.71,7.23,5.94,7.22,5.93,-5.92,-5.91,-6.31,1.31,1.29,1.29
65.35,7.19,5.95,7.18,5.94,-5.93,-5.91,-6.28,1.26,1.25,1.24
66.01,7.13,5.93,7.15,5.95,-5.94,-5.92,-6.26,1.19,1.21,1.20
66.67,7.12,5.96,7.12,5.96,-5.95,-5.92,-6.23,1.17,1.17,1.16
67.33,7.09,5.99,7.08,5.97,-5.96,-5.92,-6.20,1.13,1.11,1.10
68.01,7.04,5.98,7.02,5.96,-5.97,-5.93,-6.16,1.07,1.05,1.06
68.69,6.94,5.92,6.97,5.95,-5.98,-5.93,-6.12,0.96,0.98,1.02
69.37,6.92,5.94,6.94,5.97,-5.99,-5.94,-6.08,0.93,0.95,0.98
70.07,6.95,6.02,6.95,6.02,-6.00,-5.94,-6.04,0.95,0.94,0.93
70.77,6.97,6.09,6.95,6.06,-6.01,-5.94,-5.99,0.96,0.93,0.88
71.48,6.91,6.07,6.89,6.06,-6.03,-5.95,-5.95,0.88,0.86,0.84
72.19,6.81,6.02,6.81,6.02,-6.04,-5.95,-5.90,0.77,0.77,0.79
72.91,6.70,5.96,6.75,6.01,-6.04,-5.95,-5.85,0.66,0.70,0.74
73.64,6.72,6.03,6.73,6.04,-6.05,-5.96,-5.81,0.67,0.69,0.69
74.38,6.75,6.10,6.72,6.07,-6.05,-5.96,-5.76,0.70,0.67,0.65
75.12,6.74,6.13,6.69,6.08,-6.05,-5.96,-5.71,0.69,0.64,0.61
75.87,6.59,6.01,6.62,6.05,-6.06,-5.97,-5.67,0.53,0.57,0.58
76.63,6.53,6.00,6.56,6.03,-6.06,-5.97,-5.63,0.47,0.50,0.53
77.40,6.54,6.04,6.54,6.04,-6.06,-5.97,-5.59,0.48,0.48,0.50
78.17,6.56,6.10,6.55,6.09,-6.05,-5.98,-5.55,0.51,0.50,0.46
78.95,6.54,6.11,6.52,6.09,-6.04,-5.98,-5.52,0.50,0.48,0.43
79.74,6.46,6.06,6.45,6.05,-6.04,-5.98,-5.49,0.42,0.41,0.40
80.54,6.35,5.99,6.37,6.00,-6.04,-5.99,-5.46,0.31,0.34,0.37
81.35,6.30,5.97,6.33,5.99,-6.04,-5.99,-5.43,0.26,0.29,0.33
82.16,6.32,6.02,6.32,6.02,-6.04,-5.99,-5.41,0.28,0.28,0.30
82.98,6.33,6.07,6.31,6.05,-6.04,-6.00,-5.39,0.29,0.27,0.26
83.81,6.29,6.07,6.28,6.06,-6.03,-6.00,-5.38,0.26,0.24,0.22
84.65,6.21,6.03,6.22,6.04,-6.03,-6.00,-5.36,0.18,0.19,0.18
85.50,6.15,6.01,6.18,6.04,-6.03,-6.01,-5.36,0.12,0.14,0.14
86.35,6.14,6.04,6.15,6.05,-6.04,-6.01,-5.35,0.11,0.12,0.10
87.22,6.15,6.09,6.10,6.04,-6.03,-6.02,-5.35,0.12,0.07,0.06
88.09,6.06,6.04,6.04,6.02,-6.03,-6.02,-5.36,0.03,0.01,0.02
88.97,5.90,5.93,5.97,5.99,-6.02,-6.02,-5.37,-0.12,-0.05,-0.03
89.86,5.92,5.99,5.93,6.00,-6.02,-6.02,-5.38,-0.10,-0.09,-0.07
90.76,5.94,6.05,5.92,6.03,-6.02,-6.03,-5.40,-0.08,-0.10,-0.11
91.66,5.94,6.11,5.89,6.06,-6.03,-6.03,-5.42,-0.09,-0.14,-0.17
92.58,5.81,6.02,5.83,6.04,-6.04,-6.03,-5.44,-0.23,-0.21,-0.21
93.51,5.73,5.99,5.77,6.03,-6.05,-6.04,-5.47,-0.32,-0.28,-0.25
94.44,5.74,6.04,5.74,6.05,-6.07,-6.04,-5.50,-0.33,-0.33,-0.30
95.39,5.76,6.12,5.74,6.09,-6.09,-6.04,-5.54,-0.32,-0.35,-0.36
96.34,5.73,6.14,5.71,6.12,-6.09,-6.05,-5.58,-0.36,-0.38,-0.41
97.30,5.63,6.10,5.65,6.12,-6.09,-6.05,-5.62,-0.46,-0.45,-0.47
98.28,5.58,6.11,5.57,6.10,-6.09,-6.05,-5.66,-0.51,-0.52,-0.53
99.26,5.48,6.07,5.51,6.10,-6.09,-6.06,-5.71,-0.61,-0.59,-0.59
100.25,5.47,6.12,5.45,6.09,-6.10,-6.06,-5.76,-0.63,-0.65,-0.65
101.25,5.39,6.09,5.38,6.08,-6.10,-6.06,-5.82,-0.71,-0.72,-0.70
102.27,5.30,6.06,5.31,6.06,-6.09,-6.06,-5.87,-0.79,-0.78,-0.75
103.29,5.24,6.05,5.25,6.06,-6.09,-6.07,-5.93,-0.85,-0.84,-0.81
104.32,5.20,6.06,5.22,6.09,-6.09,-6.07,-5.99,-0.88,-0.86,-0.86
105.37,5.21,6.14,5.20,6.13,-6.09,-6.07,-6.05,-0.88,-0.88,-0.93
106.42,5.19,6.17,5.14,6.12,-6.09,-6.07,-6.11,-0.90,-0.95,-0.98
107.48,5.05,6.09,5.05,6.09,-6.08,-6.08,-6.17,-1.03,-1.04,-1.04
108.56,4.90,5.99,4.95,6.04,-6.08,-6.08,-6.23,-1.17,-1.13,-1.09
109.64,4.88,6.03,4.90,6.05,-6.07,-6.08,-6.29,-1.19,-1.17,-1.15
110.74,4.89,6.10,4.87,6.07,-6.06,-6.08,-6.35,-1.17,-1.19,-1.21
111.85,4.88,6.13,4.82,6.07,-6.05,-6.09,-6.41,-1.17,-1.24,-1.25
112.97,4.70,6.00,4.74,6.04,-6.05,-6.09,-6.46,-1.34,-1.31,-1.30
114.10,4.62,5.97,4.67,6.02,-6.05,-6.09,-6.51,-1.43,-1.38,-1.35
115.24,4.65,6.06,4.63,6.04,-6.06,-6.09,-6.56,-1.41,-1.42,-1.41
116.39,4.64,6.10,4.61,6.07,-6.06,-6.09,-6.61,-1.42,-1.45,-1.46
117.55,4.59,6.10,4.57,6.08,-6.06,-6.09,-6.65,-1.47,-1.50,-1.51
118.73,4.47,6.02,4.52,6.06,-6.06,-6.10,-6.68,-1.59,-1.55,-1.55
119.92,4.46,6.06,4.49,6.08,-6.06,-6.10,-6.71,-1.60,-1.58,-1.59
121.12,4.50,6.12,4.46,6.09,-6.07,-6.10,-6.74,-1.57,-1.61,-1.62
122.33,4.45,6.11,4.42,6.08,-6.07,-6.10,-6.75,-1.62,-1.65,-1.66
123.55,4.33,6.03,4.35,6.04,-6.07,-6.10,-6.77,-1.74,-1.72,-1.70
124.79,4.25,5.98,4.30,6.03,-6.06,-6.10,-6.77,-1.81,-1.76,-1.73
126.03,4.29,6.06,4.29,6.06,-6.06,-6.10,-6.77,-1.77,-1.77,-1.77
127.29,4.32,6.13,4.28,6.09,-6.07,-6.11,-6.76,-1.75,-1.79,-1.81
128.57,4.28,6.13,4.24,6.08,-6.07,-6.11,-6.75,-1.79,-1.84,-1.85
129.85,4.11,5.99,4.17,6.05,-6.07,-6.11,-6.73,-1.96,-1.90,-1.88
131.15,4.10,6.02,4.13,6.05,-6.08,-6.11,-6.70,-1.97,-1.94,-1.92
132.46,4.14,6.10,4.13,6.09,-6.08,-6.11,-6.67,-1.94,-1.95,-1.96
133.79,4.17,6.18,4.13,6.13,-6.09,-6.11,-6.64,-1.92,-1.96,-2.01
135.12,4.09,6.13,4.07,6.11,-6.10,-6.11,-6.60,-2.01,-2.03,-2.04
136.48,3.95,6.03,3.99,6.07,-6.10,-6.11,-6.55,-2.15,-2.11,-2.08
137.84,3.92,6.03,3.95,6.06,-6.10,-6.11,-6.50,-2.18,-2.16,-2.11
139.22,3.95,6.12,3.95,6.11,-6.11,-6.11,-6.45,-2.16,-2.15,-2.17
140.61,3.98,6.17,3.95,6.15,-6.11,-6.11,-6.40,-2.12,-2.15,-2.19
142.02,3.94,6.17,3.89,6.13,-6.10,-6.11,-6.34,-2.16,-2.21,-2.23
143.44,3.77,6.05,3.82,6.09,-6.10,-6.11,-6.29,-2.33,-2.28,-2.28
144.87,3.71,6.02,3.76,6.07,-6.10,-6.11,-6.23,-2.39,-2.34,-2.31
146.32,3.76,6.11,3.73,6.08,-6.10,-6.11,-6.17,-2.34,-2.36,-2.35
147.78,3.75,6.14,3.72,6.10,-6.09,-6.11,-6.11,-2.34,-2.38,-2.39
149.26,3.67,6.10,3.66,6.09,-6.08,-6.10,-6.05,-2.41,-2.41,-2.42
150.75,3.56,6.03,3.61,6.07,-6.06,-6.10,-6.00,-2.50,-2.45,-2.47
152.26,3.55,6.05,3.56,6.07,-6.05,-6.10,-5.94,-2.50,-2.49,-2.50
153.78,3.57,6.11,3.53,6.06,-6.05,-6.10,-5.89,-2.48,-2.52,-2.54
155.32,3.48,6.05,3.47,6.05,-6.05,-6.10,-5.84,-2.56,-2.57,-2.57
156.88,3.38,5.99,3.40,6.01,-6.05,-6.10,-5.79,-2.67,-2.65,-2.61
158.44,3.32,5.98,3.34,5.99,-6.05,-6.10,-5.74,-2.73,-2.71,-2.66
160.03,3.33,6.03,3.33,6.03,-6.06,-6.09,-5.70,-2.73,-2.73,-2.70
161.63,3.35,6.09,3.34,6.09,-6.08,-6.09,-5.66,-2.73,-2.73,-2.74
163.24,3.36,6.15,3.34,6.13,-6.09,-6.09,-5.62,-2.73,-2.75,-2.79
164.88,3.29,6.12,3.30,6.13,-6.09,-6.09,-5.59,-2.80,-2.79,-2.83
166.53,3.24,6.12,3.24,6.12,-6.09,-6.08,-5.56,-2.85,-2.85,-2.88
168.19,3.16,6.08,3.17,6.10,-6.09,-6.08,-5.54,-2.93,-2.91,-2.92
169.87,3.12,6.09,3.12,6.09,-6.08,-6.08,-5.51,-2.96,-2.96,-2.97
171.57,3.06,6.07,3.05,6.06,-6.07,-6.07,-5.50,-3.00,-3.02,-3.01
173.29,2.99,6.04,2.97,6.02,-6.05,-6.07,-5.48,-3.06,-3.08,-3.05
175.02,2.88,5.98,2.91,6.01,-6.05,-6.07,-5.47,-3.17,-3.13,-3.09
176.77,2.86,6.00,2.89,6.02,-6.05,-6.06,-5.47,-3.19,-3.16,-3.14
178.54,2.91,6.08,2.87,6.05,-6.05,-6.06,-5.47,-3.14,-3.18,-3.17
180.32,2.88,6.10,2.87,6.09,-6.06,-6.06,-5.47,-3.18,-3.19,-3.22
182.13,2.83,6.09,2.85,6.10,-6.07,-6.05,-5.48,-3.24,-3.22,-3.26
183.95,2.81,6.10,2.80,6.10,-6.08,-6.05,-5.49,-3.27,-3.28,-3.29
185.79,2.76,6.09,2.76,6.09,-6.09,-6.04,-5.50,-3.33,-3.33,-3.33
187.65,2.73,6.09,2.72,6.08,-6.10,-6.04,-5.52,-3.37,-3.38,-3.36
189.52,2.67,6.07,2.69,6.08,-6.11,-6.03,-5.54,-3.44,-3.42,-3.40
191.42,2.66,6.08,2.67,6.10,-6.11,-6.03,-5.57,-3.45,-3.44,-3.42
193.33,2.68,6.14,2.66,6.12,-6.12,-6.02,-5.60,-3.43,-3.45,-3.46
195.27,2.65,6.15,2.65,6.14,-6.12,-6.02,-5.63,-3.47,-3.48,-3.50
197.22,2.61,6.15,2.61,6.14,-6.13,-6.01,-5.67,-3.52,-3.53,-3.53
199.19,2.55,6.11,2.56,6.13,-6.14,-6.01,-5.71,-3.58,-3.57,-3.56
201.18,2.52,6.12,2.54,6.13,-6.14,-6.00,-5.75,-3.61,-3.60,-3.60
203.19,2.53,6.15,2.52,6.14,-6.13,-5.99,-5.79,-3.60,-3.61,-3.62
205.23,2.51,6.16,2.49,6.15,-6.13,-5.99,-5.84,-3.62,-3.64,-3.65
207.28,2.45,6.12,2.45,6.13,-6.13,-5.98,-5.89,-3.68,-3.68,-3.67
209.35,2.38,6.10,2.39,6.10,-6.12,-5.97,-5.93,-3.74,-3.73,-3.72
211.44,2.34,6.08,2.34,6.09,-6.11,-5.97,-5.98,-3.77,-3.77,-3.74
213.56,2.32,6.10,2.34,6.11,-6.10,-5.96,-6.04,-3.78,-3.76,-3.77
215.69,2.32,6.12,2.32,6.12,-6.08,-5.95,-6.09,-3.76,-3.76,-3.80
217.85,2.33,6.15,2.28,6.10,-6.07,-5.95,-6.14,-3.74,-3.80,-3.82
220.03,2.19,6.05,2.21,6.06,-6.07,-5.94,-6.19,-3.88,-3.86,-3.86
222.23,2.11,5.99,2.14,6.03,-6.06,-5.93,-6.23,-3.95,-3.92,-3.88
224.45,2.10,6.01,2.10,6.00,-6.05,-5.92,-6.28,-3.95,-3.96,-3.90
226.70,2.11,6.04,2.10,6.03,-6.04,-5.91,-6.32,-3.93,-3.94,-3.92
228.96,2.11,6.05,2.13,6.07,-6.03,-5.90,-6.36,-3.91,-3.89,-3.94
231.25,2.13,6.09,2.11,6.06,-6.02,-5.89,-6.40,-3.88,-3.90,-3.96
233.57,2.11,6.08,2.06,6.03,-6.01,-5.89,-6.43,-3.90,-3.95,-3.96
235.90,1.94,5.92,2.00,5.98,-6.00,-5.88,-6.46,-4.06,-4.00,-3.98
238.26,1.94,5.93,1.97,5.95,-5.99,-5.87,-6.48,-4.05,-4.02,-3.99
240.64,1.98,5.96,1.96,5.94,-5.97,-5.86,-6.50,-3.99,-4.01,-3.98
243.05,2.00,5.99,1.97,5.96,-5.94,-5.85,-6.51,-3.94,-3.97,-3.99
245.48,1.94,5.93,1.97,5.95,-5.92,-5.84,-6.52,-3.98,-3.96,-3.99
247.93,1.93,5.93,1.93,5.92,-5.91,-5.83,-6.51,-3.98,-3.98,-4.00
250.41,1.91,5.89,1.89,5.88,-5.90,-5.82,-6.51,-3.99,-4.01,-3.98
252.92,1.85,5.83,1.88,5.87,-5.89,-5.81,-6.49,-4.04,-4.00,-3.98
255.45,1.87,5.87,1.88,5.87,-5.88,-5.79,-6.47,-4.00,-4.00,-4.00
258.00,1.90,5.90,1.87,5.87,-5.87,-5.78,-6.44,-3.96,-4.00,-4.00
260.58,1.85,5.86,1.85,5.86,-5.85,-5.77,-6.41,-4.00,-4.00,-4.01
263.19,1.80,5.82,1.82,5.84,-5.84,-5.76,-6.37,-4.04,-4.02,-4.02
265.82,1.79,5.81,1.80,5.82,-5.83,-5.75,-6.33,-4.04,-4.03,-4.02
268.48,1.79,5.83,1.78,5.82,-5.81,-5.73,-6.28,-4.02,-4.02,-4.04
271.16,1.78,5.83,1.76,5.81,-5.79,-5.72,-6.22,-4.00,-4.02,-4.05
273.87,1.71,5.77,1.72,5.78,-5.77,-5.71,-6.16,-4.06,-4.05,-4.06
276.61,1.66,5.73,1.66,5.73,-5.75,-5.70,-6.10,-4.09,-4.09,-4.07
279.38,1.59,5.68,1.61,5.69,-5.73,-5.68,-6.03,-4.13,-4.12,-4.09
282.17,1.58,5.66,1.59,5.67,-5.70,-5.67,-5.97,-4.12,-4.12,-4.08
284.99,1.59,5.68,1.60,5.68,-5.67,-5.66,-5.90,-4.08,-4.08,-4.09
287.84,1.60,5.68,1.60,5.69,-5.65,-5.64,-5.82,-4.05,-4.05,-4.08
290.72,1.61,5.71,1.57,5.66,-5.63,-5.63,-5.75,-4.02,-4.06,-4.10
293.63,1.49,5.59,1.51,5.61,-5.61,-5.61,-5.68,-4.12,-4.10,-4.10
296.57,1.44,5.54,1.46,5.56,-5.59,-5.60,-5.61,-4.15,-4.13,-4.09
299.53,1.44,5.53,1.44,5.54,-5.57,-5.58,-5.53,-4.13,-4.13,-4.09
302.53,1.46,5.55,1.45,5.54,-5.55,-5.57,-5.46,-4.08,-4.09,-4.09
305.55,1.47,5.57,1.45,5.54,-5.52,-5.55,-5.39,-4.05,-4.07,-4.09
308.61,1.41,5.50,1.43,5.52,-5.49,-5.54,-5.32,-4.08,-4.07,-4.09
311.69,1.38,5.47,1.39,5.48,-5.47,-5.52,-5.25,-4.09,-4.08,-4.09
314.81,1.36,5.46,1.35,5.44,-5.45,-5.50,-5.19,-4.09,-4.10,-4.09
317.96,1.31,5.41,1.32,5.42,-5.43,-5.49,-5.12,-4.11,-4.10,-4.10
321.14,1.29,5.39,1.30,5.40,-5.40,-5.47,-5.06,-4.11,-4.10,-4.10
324.35,1.29,5.39,1.27,5.37,-5.37,-5.45,-5.01,-4.08,-4.10,-4.10
327.59,1.25,5.35,1.24,5.34,-5.35,-5.44,-4.95,-4.10,-4.11,-4.10
330.87,1.20,5.30,1.21,5.32,-5.33,-5.42,-4.90,-4.13,-4.12,-4.10
334.18,1.18,5.29,1.19,5.29,-5.30,-5.40,-4.85,-4.12,-4.12,-4.11
337.52,1.18,5.28,1.18,5.28,-5.27,-5.38,-4.81,-4.09,-4.09,-4.10
340.90,1.18,5.28,1.18,5.27,-5.24,-5.36,-4.76,-4.06,-4.07,-4.10
344.30,1.16,5.25,1.15,5.24,-5.21,-5.34,-4.73,-4.05,-4.06,-4.09
347.75,1.10,5.19,1.10,5.19,-5.18,-5.32,-4.69,-4.08,-4.08,-4.09
351.23,1.03,5.12,1.04,5.12,-5.14,-5.30,-4.66,-4.11,-4.10,-4.09
354.74,0.99,5.06,1.00,5.08,-5.11,-5.28,-4.63,-4.12,-4.11,-4.07
358.28,0.98,5.06,0.99,5.06,-5.07,-5.26,-4.61,-4.09,-4.08,-4.07
361.87,0.99,5.06,0.99,5.05,-5.04,-5.24,-4.59,-4.05,-4.06,-4.07
365.49,1.00,5.06,0.97,5.03,-5.02,-5.22,-4.57,-4.02,-4.05,-4.06
369.14,0.93,4.98,0.95,5.00,-5.01,-5.20,-4.56,-4.08,-4.06,-4.05
372.83,0.91,4.95,0.93,4.97,-5.00,-5.18,-4.55,-4.09,-4.07,-4.04
376.56,0.92,4.97,0.91,4.96,-4.98,-5.16,-4.54,-4.06,-4.07,-4.05
380.33,0.93,4.98,0.93,4.98,-4.96,-5.14,-4.53,-4.03,-4.03,-4.04
384.13,0.93,4.98,0.94,4.98,-4.94,-5.11,-4.53,-4.01,-4.00,-4.05
387.97,0.94,4.98,0.91,4.95,-4.91,-5.09,-4.54,-3.97,-4.00,-4.04
391.85,0.87,4.91,0.86,4.90,-4.89,-5.07,-4.54,-4.02,-4.03,-4.04
395.77,0.77,4.82,0.80,4.85,-4.87,-5.05,-4.55,-4.10,-4.07,-4.05
399.73,0.74,4.80,0.75,4.80,-4.85,-5.02,-4.56,-4.11,-4.10,-4.06
403.72,0.74,4.79,0.73,4.79,-4.83,-5.00,-4.57,-4.09,-4.10,-4.05
407.76,0.74,4.80,0.74,4.80,-4.80,-4.97,-4.58,-4.06,-4.07,-4.06
411.84,0.73,4.80,0.73,4.81,-4.78,-4.95,-4.60,-4.05,-4.04,-4.07
415.96,0.73,4.81,0.72,4.80,-4.75,-4.92,-4.61,-4.02,-4.03,-4.08
420.12,0.68,4.77,0.68,4.77,-4.73,-4.90,-4.63,-4.05,-4.04,-4.09
424.32,0.65,4.73,0.64,4.71,-4.71,-4.87,-4.65,-4.06,-4.07,-4.08
428.56,0.58,4.64,0.60,4.66,-4.69,-4.85,-4.67,-4.11,-4.10,-4.06
432.85,0.57,4.61,0.58,4.62,-4.67,-4.82,-4.69,-4.10,-4.09,-4.04
437.18,0.59,4.61,0.59,4.60,-4.64,-4.79,-4.71,-4.05,-4.06,-4.02
441.55,0.62,4.61,0.63,4.61,-4.61,-4.77,-4.73,-3.99,-3.99,-3.99
445.96,0.67,4.62,0.68,4.63,-4.58,-4.74,-4.74,-3.91,-3.90,-3.95
450.42,0.72,4.62,0.71,4.61,-4.56,-4.71,-4.76,-3.84,-3.85,-3.90
454.93,0.74,4.59,0.71,4.57,-4.54,-4.68,-4.77,-3.80,-3.83,-3.85
459.48,0.68,4.48,0.71,4.50,-4.52,-4.65,-4.78,-3.84,-3.81,-3.80
464.07,0.70,4.43,0.71,4.45,-4.50,-4.62,-4.79,-3.80,-3.78,-3.73
468.71,0.75,4.43,0.75,4.43,-4.47,-4.59,-4.80,-3.72,-3.72,-3.67
473.40,0.82,4.45,0.81,4.43,-4.44,-4.56,-4.80,-3.62,-3.63,-3.62
478.13,0.87,4.44,0.88,4.44,-4.42,-4.53,-4.80,-3.55,-3.54,-3.57
482.91,0.92,4.44,0.91,4.43,-4.40,-4.50,-4.79,-3.48,-3.49,-3.52
487.74,0.94,4.41,0.93,4.39,-4.38,-4.47,-4.78,-3.44,-3.46,-3.47
492.62,0.91,4.34,0.93,4.36,-4.37,-4.44,-4.77,-3.45,-3.44,-3.43
497.55,0.92,4.32,0.93,4.32,-4.34,-4.41,-4.75,-3.42,-3.41,-3.40
502.52,0.94,4.31,0.95,4.31,-4.30,-4.38,-4.72,-3.36,-3.35,-3.37
