frequency,raw,error,smoothed,error_smoothed,equalization,parametric_eq,fixed_band_eq,equalized_raw,equalized_smoothed,target
20.00,-5.91,-7.98,-5.92,-7.99,6.00,6.30,2.67,0.09,0.08,2.07
20.20,-5.91,-7.98,-5.89,-7.96,6.00,6.29,2.75,0.09,0.11,2.07
20.40,-5.85,-7.92,-5.85,-7.92,6.00,6.28,2.83,0.15,0.15,2.07
20.61,-5.81,-7.88,-5.81,-7.87,6.00,6.27,2.91,0.19,0.19,2.07
20.81,-5.74,-7.81,-5.75,-7.82,6.00,6.26,2.99,0.26,0.25,2.07
21.02,-5.70,-7.77,-5.70,-7.77,6.00,6.25,3.08,0.30,0.30,2.07
21.23,-5.65,-7.72,-5.65,-7.71,6.00,6.24,3.17,0.35,0.35,2.07
21.44,-5.60,-7.67,-5.59,-7.66,6.00,6.23,3.26,0.40,0.41,2.07
21.66,-5.53,-7.60,-5.54,-7.60,6.00,6.22,3.35,0.47,0.46,2.07
21.87,-5.47,-7.54,-5.47,-7.54,6.00,6.21,3.45,0.53,0.53,2.07
22.09,-5.42,-7.48,-5.41,-7.48,6.00,6.19,3.55,0.58,0.59,2.06
22.31,-5.35,-7.41,-5.35,-7.42,6.00,6.18,3.65,0.65,0.65,2.06
22.54,-5.29,-7.36,-5.30,-7.36,6.00,6.17,3.75,0.71,0.70,2.06
22.76,-5.25,-7.31,-5.25,-7.31,6.00,6.16,3.86,0.75,0.75,2.06
22.99,-5.20,-7.26,-5.21,-7.27,6.00,6.14,3.97,0.80,0.79,2.06
23.22,-5.17,-7.23,-5.17,-7.23,6.00,6.13,4.08,0.83,0.83,2.06
23.45,-5.14,-7.20,-5.13,-7.19,6.00,6.12,4.19,0.86,0.87,2.06
23.69,-5.09,-7.15,-5.09,-7.16,6.00,6.10,4.31,0.91,0.91,2.06
23.92,-5.05,-7.11,-5.06,-7.12,6.00,6.09,4.43,0.95,0.94,2.06
24.16,-5.02,-7.08,-5.02,-7.08,6.00,6.08,4.55,0.98,0.98,2.06
24.40,-4.99,-7.05,-4.98,-7.04,6.00,6.06,4.67,1.01,1.02,2.06
24.65,-4.94,-7.00,-4.94,-7.00,6.00,6.05,4.80,1.06,1.06,2.06
24.89,-4.90,-6.96,-4.91,-6.97,6.00,6.03,4.93,1.10,1.09,2.06
25.14,-4.87,-6.93,-4.87,-6.93,6.00,6.02,5.06,1.13,1.13,2.06
25.39,-4.84,-6.90,-4.83,-6.89,6.00,6.00,5.18,1.16,1.17,2.06
25.65,-4.79,-6.85,-4.80,-6.86,6.00,5.98,5.31,1.21,1.20,2.06
25.91,-4.76,-6.82,-4.76,-6.82,6.00,5.97,5.45,1.24,1.24,2.06
26.16,-4.74,-6.80,-4.73,-6.79,6.00,5.95,5.58,1.26,1.27,2.06
26.43,-4.70,-6.76,-4.71,-6.76,6.00,5.93,5.71,1.30,1.29,2.05
26.69,-4.69,-6.74,-4.68,-6.74,6.00,5.92,5.83,1.31,1.32,2.05
26.96,-4.65,-6.70,-4.65,-6.71,6.00,5.90,5.96,1.35,1.35,2.05
27.23,-4.62,-6.67,-4.62,-6.68,6.00,5.88,6.08,1.38,1.38,2.05
27.50,-4.60,-6.65,-4.60,-6.65,6.00,5.86,6.21,1.40,1.40,2.05
27.77,-4.57,-6.62,-4.57,-6.63,6.00,5.84,6.32,1.43,1.43,2.05
28.05,-4.56,-6.61,-4.55,-6.60,6.00,5.82,6.44,1.44,1.45,2.05
28.33,-4.52,-6.57,-4.53,-6.58,6.00,5.81,6.54,1.48,1.47,2.05
28.62,-4.51,-6.56,-4.50,-6.55,6.00,5.79,6.65,1.49,1.50,2.05
28.90,-4.46,-6.51,-4.47,-6.51,6.00,5.76,6.74,1.54,1.53,2.05
29.19,-4.43,-6.48,-4.44,-6.48,6.00,5.74,6.83,1.57,1.56,2.05
29.48,-4.42,-6.46,-4.41,-6.45,6.00,5.72,6.90,1.58,1.59,2.04
29.78,-4.37,-6.41,-4.38,-6.42,6.00,5.70,6.97,1.63,1.62,2.04
30.08,-4.34,-6.38,-4.35,-6.39,6.00,5.68,7.02,1.66,1.65,2.04
30.38,-4.31,-6.35,-4.31,-6.35,6.00,5.66,7.07,1.69,1.69,2.04
30.68,-4.27,-6.31,-4.27,-6.31,6.01,5.63,7.11,1.73,1.74,2.04
30.99,-4.22,-6.26,-4.22,-6.26,6.01,5.61,7.13,1.79,1.79,2.04
31.30,-4.17,-6.21,-4.17,-6.21,6.01,5.59,7.14,1.84,1.84,2.04
31.61,-4.11,-6.15,-4.12,-6.15,6.01,5.56,7.15,1.90,1.89,2.04
31.93,-4.07,-6.11,-4.07,-6.10,6.00,5.54,7.13,1.93,1.93,2.03
32.24,-4.02,-6.05,-4.02,-6.05,5.98,5.51,7.12,1.96,1.96,2.03
32.57,-3.97,-6.00,-3.96,-5.99,5.95,5.49,7.08,1.98,1.99,2.03
32.89,-3.89,-5.92,-3.90,-5.93,5.91,5.46,7.04,2.02,2.01,2.03
33.22,-3.83,-5.86,-3.83,-5.86,5.85,5.43,6.99,2.02,2.02,2.03
33.55,-3.76,-5.79,-3.75,-5.78,5.79,5.41,6.93,2.03,2.04,2.03
33.89,-3.68,-5.70,-3.68,-5.71,5.72,5.38,6.85,2.04,2.04,2.02
34.23,-3.61,-5.63,-3.62,-5.64,5.65,5.35,6.78,2.04,2.04,2.02
34.57,-3.55,-5.57,-3.55,-5.57,5.58,5.32,6.69,2.03,2.03,2.02
34.92,-3.49,-5.51,-3.49,-5.50,5.51,5.29,6.60,2.01,2.02,2.02
35.27,-3.42,-5.44,-3.43,-5.44,5.44,5.26,6.51,2.02,2.01,2.02
35.62,-3.36,-5.37,-3.36,-5.37,5.37,5.23,6.41,2.01,2.01,2.01
35.97,-3.30,-5.31,-3.30,-5.31,5.31,5.20,6.30,2.01,2.01,2.01
36.33,-3.23,-5.24,-3.23,-5.24,5.24,5.17,6.20,2.01,2.01,2.01
36.70,-3.17,-5.18,-3.17,-5.17,5.18,5.14,6.09,2.01,2.01,2.01
37.06,-3.10,-5.10,-3.10,-5.11,5.11,5.11,5.98,2.01,2.01,2.00
37.43,-3.04,-5.04,-3.05,-5.05,5.05,5.07,5.87,2.01,2.00,2.00
37.81,-2.99,-4.99,-2.99,-4.98,4.98,5.04,5.76,1.99,2.00,2.00
38.19,-2.93,-4.93,-2.93,-4.92,4.92,5.00,5.65,1.99,1.99,2.00
38.57,-2.86,-4.85,-2.87,-4.86,4.85,4.97,5.55,1.99,1.99,1.99
38.95,-2.80,-4.79,-2.80,-4.79,4.79,4.94,5.44,1.99,1.99,1.99
39.34,-2.74,-4.73,-2.74,-4.72,4.72,4.90,5.33,1.98,1.98,1.99
39.74,-2.67,-4.65,-2.67,-4.66,4.65,4.86,5.23,1.98,1.98,1.98
40.14,-2.61,-4.59,-2.61,-4.59,4.59,4.83,5.13,1.98,1.98,1.98
40.54,-2.55,-4.53,-2.55,-4.52,4.53,4.79,5.03,1.98,1.98,1.98
40.94,-2.49,-4.46,-2.49,-4.46,4.47,4.75,4.93,1.98,1.98,1.97
41.35,-2.44,-4.41,-2.44,-4.41,4.42,4.71,4.84,1.98,1.97,1.97
41.76,-2.40,-4.36,-2.40,-4.36,4.37,4.67,4.75,1.97,1.97,1.96
42.18,-2.37,-4.33,-2.36,-4.32,4.33,4.63,4.66,1.96,1.96,1.96
42.60,-2.32,-4.28,-2.33,-4.29,4.29,4.59,4.58,1.97,1.96,1.96
43.03,-2.31,-4.26,-2.30,-4.25,4.25,4.55,4.50,1.94,1.95,1.95
43.46,-2.27,-4.22,-2.28,-4.22,4.22,4.51,4.42,1.95,1.95,1.95
43.90,-2.26,-4.20,-2.26,-4.20,4.19,4.47,4.34,1.93,1.93,1.94
44.33,-2.23,-4.17,-2.23,-4.17,4.16,4.43,4.27,1.93,1.93,1.94
44.78,-2.21,-4.14,-2.21,-4.14,4.13,4.39,4.20,1.92,1.93,1.93
45.23,-2.18,-4.11,-2.18,-4.10,4.10,4.34,4.14,1.92,1.93,1.93
45.68,-2.14,-4.06,-2.15,-4.07,4.08,4.30,4.08,1.94,1.92,1.92
46.13,-2.13,-4.04,-2.13,-4.04,4.05,4.26,4.02,1.92,1.92,1.91
46.60,-2.11,-4.02,-2.11,-4.02,4.02,4.21,3.96,1.91,1.91,1.91
47.06,-2.09,-3.99,-2.09,-4.00,3.99,4.17,3.91,1.90,1.90,1.90
47.53,-2.09,-3.99,-2.07,-3.97,3.97,4.12,3.86,1.88,1.89,1.90
48.01,-2.04,-3.93,-2.06,-3.95,3.94,4.08,3.82,1.90,1.88,1.89
48.49,-2.04,-3.92,-2.04,-3.92,3.92,4.03,3.77,1.88,1.88,1.88
48.97,-2.04,-3.92,-2.02,-3.89,3.90,3.99,3.73,1.86,1.88,1.87
49.46,-1.99,-3.86,-2.01,-3.88,3.88,3.94,3.69,1.89,1.87,1.87
49.96,-1.99,-3.85,-2.00,-3.86,3.86,3.89,3.66,1.87,1.86,1.86
50.46,-1.99,-3.84,-1.98,-3.83,3.84,3.85,3.62,1.85,1.86,1.85
50.96,-1.98,-3.82,-1.97,-3.82,3.82,3.80,3.59,1.84,1.84,1.84
51.47,-1.95,-3.79,-1.96,-3.80,3.80,3.75,3.56,1.85,1.84,1.84
51.99,-1.95,-3.78,-1.95,-3.78,3.78,3.70,3.53,1.83,1.83,1.83
52.51,-1.95,-3.77,-1.94,-3.76,3.76,3.66,3.51,1.81,1.82,1.82
53.03,-1.92,-3.73,-1.93,-3.74,3.73,3.61,3.48,1.81,1.80,1.81
53.56,-1.90,-3.70,-1.91,-3.71,3.70,3.56,3.46,1.80,1.79,1.80
54.10,-1.89,-3.68,-1.88,-3.67,3.67,3.51,3.43,1.78,1.79,1.79
54.64,-1.85,-3.63,-1.85,-3.63,3.63,3.47,3.41,1.77,1.77,1.78
55.18,-1.81,-3.58,-1.82,-3.58,3.58,3.42,3.39,1.77,1.76,1.77
55.74,-1.78,-3.54,-1.77,-3.53,3.53,3.37,3.37,1.75,1.75,1.76
56.29,-1.72,-3.47,-1.73,-3.47,3.47,3.33,3.35,1.75,1.74,1.74
56.86,-1.67,-3.40,-1.67,-3.41,3.40,3.28,3.33,1.73,1.73,1.73
57.42,-1.62,-3.34,-1.61,-3.33,3.34,3.23,3.30,1.72,1.72,1.72
58.00,-1.55,-3.26,-1.56,-3.27,3.27,3.19,3.28,1.72,1.71,1.71
58.58,-1.50,-3.20,-1.50,-3.20,3.19,3.14,3.26,1.69,1.69,1.70
59.16,-1.45,-3.13,-1.44,-3.12,3.12,3.09,3.23,1.67,1.68,1.68
59.76,-1.38,-3.05,-1.38,-3.05,3.05,3.05,3.21,1.67,1.67,1.67
60.35,-1.32,-2.97,-1.32,-2.98,2.98,3.00,3.18,1.66,1.66,1.65
60.96,-1.27,-2.91,-1.27,-2.91,2.92,2.96,3.15,1.64,1.65,1.64
61.57,-1.22,-2.84,-1.22,-2.85,2.85,2.91,3.12,1.63,1.63,1.62
62.18,-1.18,-2.79,-1.18,-2.79,2.79,2.87,3.09,1.61,1.61,1.61
62.80,-1.15,-2.74,-1.14,-2.74,2.73,2.83,3.06,1.58,1.59,1.59
63.43,-1.11,-2.69,-1.11,-2.68,2.68,2.79,3.02,1.57,1.57,1.58
64.07,-1.06,-2.62,-1.07,-2.63,2.63,2.74,2.99,1.57,1.56,1.56
64.71,-1.05,-2.59,-1.04,-2.58,2.58,2.70,2.95,1.53,1.54,1.54
65.35,-1.01,-2.53,-1.02,-2.54,2.54,2.66,2.91,1.53,1.53,1.52
66.01,-1.01,-2.52,-1.00,-2.50,2.51,2.62,2.87,1.49,1.51,1.50
66.67,-0.97,-2.46,-0.98,-2.47,2.47,2.58,2.82,1.50,1.49,1.49
67.33,-0.97,-2.44,-0.97,-2.44,2.44,2.54,2.78,1.47,1.47,1.47
68.01,-0.97,-2.42,-0.97,-2.41,2.42,2.50,2.73,1.45,1.45,1.45
68.69,-0.97,-2.40,-0.97,-2.40,2.39,2.46,2.69,1.42,1.42,1.42
69.37,-0.97,-2.37,-0.97,-2.37,2.37,2.43,2.64,1.40,1.40,1.40
70.07,-0.97,-2.35,-0.97,-2.35,2.35,2.39,2.59,1.38,1.38,1.38
70.77,-0.97,-2.33,-0.97,-2.33,2.33,2.35,2.54,1.36,1.36,1.36
71.48,-0.97,-2.31,-0.97,-2.31,2.30,2.32,2.49,1.33,1.33,1.34
72.19,-0.97,-2.28,-0.97,-2.28,2.28,2.28,2.44,1.31,1.31,1.31
72.91,-0.97,-2.26,-0.97,-2.26,2.26,2.25,2.39,1.29,1.29,1.29
73.64,-0.97,-2.24,-0.97,-2.24,2.24,2.21,2.34,1.26,1.26,1.26
74.38,-0.97,-2.21,-0.97,-2.21,2.21,2.18,2.28,1.24,1.25,1.24
75.12,-0.97,-2.18,-0.97,-2.18,2.19,2.15,2.23,1.22,1.22,1.21
75.87,-0.97,-2.16,-0.98,-2.17,2.17,2.12,2.18,1.20,1.19,1.19
76.63,-0.99,-2.15,-0.99,-2.15,2.15,2.08,2.13,1.16,1.16,1.16
77.40,-1.01,-2.14,-1.00,-2.14,2.13,2.05,2.08,1.12,1.13,1.13
78.17,-1.01,-2.12,-1.01,-2.12,2.11,2.02,2.04,1.10,1.10,1.11
78.95,-1.01,-2.09,-1.01,-2.09,2.08,1.99,1.99,1.07,1.07,1.08
79.74,-1.01,-2.06,-1.01,-2.06,2.06,1.96,1.94,1.05,1.05,1.05
80.54,-1.01,-2.03,-1.01,-2.03,2.03,1.93,1.89,1.02,1.02,1.02
81.35,-1.01,-2.00,-1.01,-2.00,2.00,1.90,1.85,0.99,0.99,0.99
82.16,-1.01,-1.97,-1.01,-1.97,1.97,1.87,1.80,0.96,0.96,0.96
82.98,-1.01,-1.94,-1.01,-1.94,1.94,1.84,1.76,0.93,0.93,0.93
83.81,-1.01,-1.91,-1.01,-1.91,1.91,1.81,1.72,0.89,0.89,0.89
84.65,-1.01,-1.87,-1.01,-1.87,1.87,1.78,1.68,0.86,0.86,0.86
85.50,-1.01,-1.84,-1.01,-1.84,1.84,1.75,1.64,0.83,0.83,0.83
86.35,-1.01,-1.81,-1.01,-1.81,1.80,1.72,1.60,0.79,0.79,0.80
87.22,-1.01,-1.77,-1.01,-1.77,1.77,1.70,1.56,0.76,0.76,0.76
88.09,-1.01,-1.74,-1.01,-1.74,1.74,1.67,1.52,0.73,0.73,0.73
88.97,-1.01,-1.71,-1.01,-1.70,1.71,1.64,1.49,0.70,0.70,0.69
89.86,-1.01,-1.67,-1.01,-1.67,1.68,1.61,1.45,0.67,0.67,0.66
90.76,-1.01,-1.63,-1.02,-1.65,1.65,1.58,1.42,0.64,0.63,0.62
91.66,-1.04,-1.63,-1.04,-1.63,1.62,1.55,1.39,0.58,0.59,0.59
92.58,-1.06,-1.61,-1.05,-1.61,1.60,1.52,1.35,0.54,0.54,0.55
93.51,-1.06,-1.58,-1.06,-1.58,1.57,1.49,1.32,0.51,0.50,0.52
94.44,-1.06,-1.54,-1.06,-1.54,1.54,1.46,1.29,0.48,0.47,0.48
95.39,-1.06,-1.50,-1.06,-1.50,1.50,1.43,1.27,0.44,0.44,0.44
96.34,-1.06,-1.47,-1.06,-1.47,1.47,1.40,1.24,0.41,0.41,0.41
97.30,-1.06,-1.43,-1.06,-1.43,1.43,1.38,1.21,0.37,0.37,0.37
98.28,-1.06,-1.39,-1.06,-1.39,1.39,1.35,1.19,0.33,0.33,0.33
99.26,-1.06,-1.35,-1.06,-1.35,1.35,1.32,1.16,0.29,0.29,0.29
100.25,-1.06,-1.32,-1.06,-1.31,1.32,1.29,1.14,0.26,0.26,0.25
101.25,-1.06,-1.28,-1.06,-1.28,1.29,1.26,1.11,0.23,0.23,0.22
102.27,-1.06,-1.24,-1.07,-1.25,1.25,1.23,1.09,0.19,0.18,0.18
103.29,-1.09,-1.23,-1.09,-1.23,1.22,1.20,1.07,0.13,0.14,0.14
104.32,-1.11,-1.21,-1.10,-1.20,1.20,1.17,1.05,0.09,0.09,0.10
105.37,-1.11,-1.17,-1.11,-1.17,1.17,1.14,1.03,0.06,0.06,0.06
106.42,-1.11,-1.14,-1.11,-1.14,1.14,1.10,1.01,0.03,0.03,0.02
107.48,-1.11,-1.10,-1.12,-1.11,1.11,1.07,0.99,0.00,-0.01,-0.01
108.56,-1.15,-1.10,-1.14,-1.09,1.08,1.04,0.97,-0.07,-0.05,-0.05
109.64,-1.15,-1.06,-1.15,-1.06,1.05,1.01,0.95,-0.10,-0.10,-0.09
110.74,-1.15,-1.02,-1.15,-1.03,1.02,0.98,0.93,-0.13,-0.14,-0.13
111.85,-1.15,-0.98,-1.15,-0.98,0.98,0.95,0.91,-0.17,-0.17,-0.17
112.97,-1.15,-0.95,-1.15,-0.95,0.95,0.92,0.89,-0.20,-0.20,-0.20
114.10,-1.15,-0.91,-1.15,-0.91,0.91,0.89,0.87,-0.24,-0.24,-0.24
115.24,-1.15,-0.87,-1.15,-0.87,0.87,0.86,0.85,-0.28,-0.28,-0.28
116.39,-1.15,-0.84,-1.15,-0.84,0.84,0.83,0.83,-0.31,-0.31,-0.32
117.55,-1.15,-0.80,-1.15,-0.80,0.80,0.80,0.82,-0.35,-0.35,-0.35
118.73,-1.15,-0.76,-1.15,-0.76,0.76,0.77,0.80,-0.39,-0.39,-0.39
119.92,-1.15,-0.73,-1.15,-0.73,0.73,0.74,0.78,-0.42,-0.42,-0.42
121.12,-1.15,-0.69,-1.15,-0.69,0.69,0.71,0.76,-0.46,-0.46,-0.46
122.33,-1.15,-0.65,-1.15,-0.65,0.65,0.68,0.74,-0.50,-0.50,-0.50
123.55,-1.15,-0.62,-1.15,-0.62,0.62,0.65,0.72,-0.53,-0.53,-0.53
124.79,-1.15,-0.59,-1.15,-0.59,0.59,0.62,0.70,-0.57,-0.57,-0.57
126.03,-1.15,-0.55,-1.15,-0.55,0.55,0.59,0.68,-0.60,-0.60,-0.60
127.29,-1.15,-0.52,-1.15,-0.52,0.52,0.56,0.66,-0.63,-0.63,-0.63
128.57,-1.15,-0.48,-1.15,-0.48,0.48,0.54,0.64,-0.67,-0.67,-0.67
129.85,-1.15,-0.45,-1.15,-0.45,0.45,0.51,0.62,-0.70,-0.70,-0.70
131.15,-1.15,-0.42,-1.15,-0.42,0.42,0.48,0.60,-0.73,-0.73,-0.73
132.46,-1.15,-0.39,-1.15,-0.39,0.39,0.45,0.58,-0.76,-0.76,-0.76
133.79,-1.15,-0.36,-1.15,-0.36,0.35,0.43,0.55,-0.80,-0.80,-0.80
135.12,-1.15,-0.32,-1.15,-0.32,0.32,0.40,0.53,-0.83,-0.83,-0.83
136.48,-1.15,-0.29,-1.15,-0.29,0.29,0.37,0.51,-0.86,-0.86,-0.86
137.84,-1.15,-0.26,-1.15,-0.26,0.26,0.35,0.49,-0.89,-0.89,-0.89
139.22,-1.15,-0.24,-1.15,-0.24,0.23,0.32,0.46,-0.92,-0.92,-0.92
140.61,-1.15,-0.21,-1.15,-0.20,0.21,0.30,0.44,-0.94,-0.94,-0.94
142.02,-1.15,-0.18,-1.15,-0.18,0.19,0.27,0.41,-0.96,-0.96,-0.97
143.44,-1.15,-0.15,-1.16,-0.16,0.17,0.25,0.39,-0.98,-0.99,-1.00
144.87,-1.18,-0.15,-1.17,-0.14,0.15,0.22,0.37,-1.03,-1.02,-1.03
146.32,-1.18,-0.13,-1.19,-0.13,0.13,0.20,0.34,-1.05,-1.06,-1.05
147.78,-1.20,-0.12,-1.20,-0.12,0.11,0.18,0.32,-1.09,-1.09,-1.08
149.26,-1.20,-0.10,-1.20,-0.10,0.09,0.16,0.29,-1.11,-1.11,-1.10
150.75,-1.20,-0.07,-1.20,-0.07,0.07,0.14,0.27,-1.13,-1.13,-1.13
152.26,-1.20,-0.05,-1.20,-0.05,0.05,0.11,0.24,-1.15,-1.15,-1.15
153.78,-1.20,-0.02,-1.20,-0.02,0.03,0.09,0.21,-1.17,-1.17,-1.18
155.32,-1.20,-0.00,-1.20,-0.00,0.00,0.07,0.19,-1.20,-1.20,-1.20
156.88,-1.20,0.02,-1.20,0.02,-0.02,0.05,0.16,-1.22,-1.22,-1.22
158.44,-1.20,0.04,-1.20,0.04,-0.04,0.03,0.14,-1.24,-1.24,-1.24
160.03,-1.20,0.06,-1.20,0.06,-0.06,0.01,0.11,-1.27,-1.27,-1.27
161.63,-1.20,0.09,-1.20,0.09,-0.09,-0.00,0.08,-1.29,-1.29,-1.29
163.24,-1.20,0.11,-1.20,0.11,-0.11,-0.02,0.06,-1.31,-1.31,-1.31
164.88,-1.20,0.13,-1.20,0.13,-0.13,-0.04,0.03,-1.33,-1.33,-1.33
166.53,-1.20,0.15,-1.20,0.15,-0.15,-0.06,0.00,-1.35,-1.35,-1.35
168.19,-1.20,0.16,-1.20,0.16,-0.16,-0.07,-0.02,-1.36,-1.36,-1.36
169.87,-1.20,0.18,-1.20,0.18,-0.18,-0.09,-0.05,-1.38,-1.38,-1.38
171.57,-1.20,0.20,-1.20,0.20,-0.20,-0.11,-0.08,-1.40,-1.40,-1.40
173.29,-1.20,0.22,-1.20,0.22,-0.22,-0.12,-0.10,-1.42,-1.42,-1.42
175.02,-1.20,0.23,-1.20,0.23,-0.23,-0.14,-0.13,-1.43,-1.43,-1.43
176.77,-1.20,0.25,-1.20,0.25,-0.25,-0.15,-0.16,-1.45,-1.45,-1.45
178.54,-1.20,0.27,-1.20,0.27,-0.27,-0.17,-0.19,-1.47,-1.47,-1.47
180.32,-1.20,0.28,-1.20,0.28,-0.28,-0.18,-0.22,-1.48,-1.48,-1.48
182.13,-1.20,0.30,-1.20,0.30,-0.30,-0.20,-0.24,-1.50,-1.50,-1.50
183.95,-1.20,0.31,-1.20,0.31,-0.31,-0.21,-0.27,-1.51,-1.51,-1.51
185.79,-1.20,0.32,-1.20,0.32,-0.33,-0.22,-0.30,-1.53,-1.53,-1.52
187.65,-1.20,0.34,-1.20,0.34,-0.34,-0.24,-0.33,-1.54,-1.54,-1.54
189.52,-1.20,0.35,-1.20,0.35,-0.35,-0.25,-0.36,-1.55,-1.55,-1.55
191.42,-1.20,0.36,-1.20,0.36,-0.35,-0.26,-0.39,-1.56,-1.55,-1.56
193.33,-1.20,0.38,-1.21,0.37,-0.36,-0.28,-0.42,-1.56,-1.57,-1.58
195.27,-1.22,0.37,-1.22,0.37,-0.36,-0.29,-0.45,-1.59,-1.59,-1.59
197.22,-1.24,0.36,-1.24,0.36,-0.37,-0.30,-0.48,-1.61,-1.61,-1.60
199.19,-1.25,0.36,-1.25,0.36,-0.37,-0.31,-0.50,-1.62,-1.62,-1.61
201.18,-1.25,0.37,-1.25,0.37,-0.38,-0.32,-0.53,-1.63,-1.63,-1.62
203.19,-1.25,0.38,-1.25,0.38,-0.38,-0.34,-0.56,-1.63,-1.63,-1.63
205.23,-1.25,0.39,-1.25,0.39,-0.39,-0.35,-0.59,-1.64,-1.64,-1.64
207.28,-1.25,0.40,-1.25,0.40,-0.40,-0.36,-0.62,-1.65,-1.65,-1.65
209.35,-1.25,0.41,-1.25,0.41,-0.41,-0.37,-0.65,-1.66,-1.66,-1.66
211.44,-1.25,0.42,-1.25,0.42,-0.42,-0.38,-0.68,-1.67,-1.67,-1.67
213.56,-1.25,0.43,-1.25,0.43,-0.43,-0.40,-0.70,-1.68,-1.68,-1.68
215.69,-1.25,0.44,-1.25,0.44,-0.44,-0.41,-0.73,-1.69,-1.69,-1.69
217.85,-1.25,0.45,-1.25,0.45,-0.45,-0.42,-0.76,-1.70,-1.70,-1.70
220.03,-1.25,0.45,-1.25,0.45,-0.45,-0.43,-0.78,-1.70,-1.70,-1.70
222.23,-1.25,0.46,-1.25,0.46,-0.46,-0.44,-0.81,-1.71,-1.71,-1.71
224.45,-1.25,0.47,-1.25,0.47,-0.47,-0.46,-0.83,-1.72,-1.72,-1.72
226.70,-1.25,0.48,-1.25,0.48,-0.48,-0.47,-0.85,-1.73,-1.73,-1.73
228.96,-1.25,0.48,-1.25,0.48,-0.48,-0.48,-0.87,-1.73,-1.73,-1.73
231.25,-1.25,0.49,-1.25,0.49,-0.49,-0.49,-0.89,-1.74,-1.74,-1.74
233.57,-1.25,0.50,-1.25,0.50,-0.50,-0.51,-0.91,-1.75,-1.75,-1.75
235.90,-1.25,0.50,-1.25,0.50,-0.50,-0.52,-0.93,-1.75,-1.75,-1.75
238.26,-1.25,0.51,-1.25,0.51,-0.51,-0.53,-0.95,-1.76,-1.76,-1.76
240.64,-1.25,0.51,-1.25,0.51,-0.51,-0.55,-0.96,-1.77,-1.77,-1.77
243.05,-1.25,0.52,-1.25,0.52,-0.52,-0.56,-0.97,-1.77,-1.77,-1.77
245.48,-1.25,0.53,-1.25,0.53,-0.52,-0.58,-0.98,-1.77,-1.77,-1.78
247.93,-1.25,0.53,-1.25,0.53,-0.53,-0.59,-0.99,-1.78,-1.78,-1.78
250.41,-1.25,0.54,-1.25,0.54,-0.53,-0.61,-1.00,-1.78,-1.78,-1.79
252.92,-1.25,0.54,-1.25,0.54,-0.54,-0.63,-1.00,-1.79,-1.79,-1.79
255.45,-1.25,0.55,-1.26,0.54,-0.55,-0.64,-1.01,-1.80,-1.80,-1.80
258.00,-1.25,0.55,-1.25,0.55,-0.56,-0.66,-1.01,-1.81,-1.81,-1.80
260.58,-1.25,0.55,-1.23,0.57,-0.57,-0.68,-1.01,-1.82,-1.80,-1.81
263.19,-1.20,0.61,-1.22,0.59,-0.59,-0.70,-1.01,-1.79,-1.81,-1.81
265.82,-1.20,0.61,-1.20,0.61,-0.61,-0.72,-1.00,-1.81,-1.81,-1.81
268.48,-1.20,0.62,-1.18,0.64,-0.63,-0.74,-1.00,-1.83,-1.81,-1.82
271.16,-1.15,0.67,-1.16,0.66,-0.66,-0.76,-0.99,-1.82,-1.83,-1.82
273.87,-1.13,0.69,-1.13,0.69,-0.70,-0.79,-0.98,-1.83,-1.83,-1.82
276.61,-1.10,0.73,-1.09,0.74,-0.74,-0.81,-0.98,-1.84,-1.83,-1.83
279.38,-1.05,0.78,-1.05,0.78,-0.78,-0.83,-0.97,-1.83,-1.84,-1.83
282.17,-1.00,0.83,-1.01,0.83,-0.83,-0.86,-0.96,-1.83,-1.84,-1.84
284.99,-0.96,0.88,-0.96,0.88,-0.88,-0.88,-0.94,-1.84,-1.84,-1.84
287.84,-0.91,0.93,-0.91,0.93,-0.93,-0.91,-0.93,-1.84,-1.84,-1.84
290.72,-0.86,0.98,-0.86,0.98,-0.98,-0.94,-0.92,-1.84,-1.84,-1.84
293.63,-0.82,1.03,-0.82,1.03,-1.02,-0.97,-0.91,-1.84,-1.84,-1.85
296.57,-0.78,1.07,-0.78,1.07,-1.07,-0.99,-0.89,-1.85,-1.85,-1.85
299.53,-0.74,1.11,-0.75,1.11,-1.11,-1.02,-0.88,-1.85,-1.85,-1.85
302.53,-0.71,1.14,-0.71,1.15,-1.14,-1.05,-0.87,-1.85,-1.85,-1.85
305.55,-0.69,1.17,-0.68,1.18,-1.18,-1.08,-0.85,-1.87,-1.86,-1.86
308.61,-0.64,1.22,-0.65,1.21,-1.20,-1.12,-0.84,-1.84,-1.86,-1.86
311.69,-0.64,1.22,-0.63,1.23,-1.23,-1.15,-0.82,-1.87,-1.86,-1.86
314.81,-0.60,1.26,-0.61,1.25,-1.25,-1.18,-0.81,-1.85,-1.87,-1.86
317.96,-0.60,1.27,-0.60,1.27,-1.27,-1.21,-0.80,-1.87,-1.87,-1.87
321.14,-0.60,1.27,-0.58,1.29,-1.29,-1.24,-0.78,-1.89,-1.87,-1.87
324.35,-0.55,1.32,-0.57,1.30,-1.30,-1.27,-0.77,-1.85,-1.87,-1.87
327.59,-0.55,1.32,-0.55,1.32,-1.31,-1.30,-0.76,-1.86,-1.87,-1.87
330.87,-0.55,1.32,-0.55,1.33,-1.32,-1.32,-0.75,-1.87,-1.87,-1.87
334.18,-0.55,1.33,-0.55,1.33,-1.32,-1.35,-0.73,-1.87,-1.87,-1.88
337.52,-0.55,1.33,-0.55,1.33,-1.33,-1.37,-0.72,-1.88,-1.88,-1.88
340.90,-0.55,1.33,-0.55,1.33,-1.33,-1.39,-0.71,-1.88,-1.88,-1.88
344.30,-0.55,1.33,-0.55,1.33,-1.33,-1.41,-0.70,-1.88,-1.88,-1.88
347.75,-0.55,1.33,-0.55,1.33,-1.33,-1.42,-0.69,-1.89,-1.89,-1.88
351.23,-0.55,1.33,-0.55,1.33,-1.34,-1.43,-0.68,-1.89,-1.89,-1.88
354.74,-0.55,1.33,-0.54,1.34,-1.35,-1.44,-0.67,-1.90,-1.89,-1.88
358.28,-0.53,1.36,-0.53,1.36,-1.36,-1.45,-0.67,-1.89,-1.88,-1.89
361.87,-0.50,1.39,-0.51,1.37,-1.37,-1.45,-0.66,-1.87,-1.88,-1.89
365.49,-0.50,1.39,-0.50,1.39,-1.38,-1.45,-0.65,-1.88,-1.88,-1.89
369.14,-0.50,1.39,-0.49,1.40,-1.40,-1.44,-0.64,-1.90,-1.89,-1.89
372.83,-0.47,1.42,-0.48,1.41,-1.42,-1.43,-0.64,-1.89,-1.90,-1.89
376.56,-0.46,1.43,-0.46,1.43,-1.44,-1.42,-0.63,-1.90,-1.90,-1.89
380.33,-0.43,1.46,-0.43,1.47,-1.47,-1.40,-0.63,-1.90,-1.90,-1.89
384.13,-0.40,1.49,-0.40,1.49,-1.50,-1.38,-0.62,-1.90,-1.90,-1.89
387.97,-0.36,1.53,-0.37,1.53,-1.53,-1.36,-0.62,-1.89,-1.90,-1.90
391.85,-0.34,1.56,-0.33,1.56,-1.56,-1.34,-0.62,-1.90,-1.89,-1.90
395.77,-0.31,1.59,-0.31,1.59,-1.59,-1.31,-0.61,-1.90,-1.90,-1.90
399.73,-0.27,1.63,-0.28,1.62,-1.62,-1.29,-0.61,-1.89,-1.90,-1.90
403.72,-0.27,1.63,-0.25,1.65,-1.64,-1.26,-0.61,-1.91,-1.89,-1.90
407.76,-0.22,1.68,-0.23,1.67,-1.66,-1.23,-0.61,-1.88,-1.90,-1.90
411.84,-0.22,1.68,-0.22,1.68,-1.68,-1.20,-0.61,-1.90,-1.90,-1.90
415.96,-0.22,1.68,-0.22,1.69,-1.69,-1.17,-0.61,-1.91,-1.90,-1.90
420.12,-0.22,1.68,-0.22,1.68,-1.69,-1.14,-0.61,-1.91,-1.91,-1.90
424.32,-0.22,1.68,-0.22,1.68,-1.69,-1.11,-0.61,-1.91,-1.91,-1.90
428.56,-0.22,1.68,-0.22,1.68,-1.68,-1.08,-0.61,-1.90,-1.90,-1.90
432.85,-0.24,1.66,-0.24,1.66,-1.66,-1.05,-0.61,-1.90,-1.90,-1.90
437.18,-0.27,1.63,-0.27,1.63,-1.63,-1.02,-0.61,-1.90,-1.90,-1.91
441.55,-0.32,1.59,-0.31,1.59,-1.59,-0.99,-0.61,-1.91,-1.91,-1.91
445.96,-0.36,1.55,-0.36,1.54,-1.55,-0.96,-0.62,-1.91,-1.91,-1.91
450.42,-0.42,1.49,-0.42,1.49,-1.49,-0.93,-0.62,-1.91,-1.91,-1.91
454.93,-0.48,1.43,-0.49,1.42,-1.42,-0.91,-0.62,-1.90,-1.91,-1.91
459.48,-0.57,1.34,-0.57,1.34,-1.34,-0.88,-0.62,-1.91,-1.91,-1.91
464.07,-0.67,1.24,-0.66,1.25,-1.24,-0.86,-0.63,-1.91,-1.90,-1.91
468.71,-0.76,1.15,-0.77,1.14,-1.13,-0.84,-0.63,-1.89,-1.91,-1.91
473.40,-0.89,1.02,-0.89,1.02,-1.01,-0.81,-0.63,-1.90,-1.90,-1.91
