frequency,raw
20.00,4.08
20.20,4.12
20.40,4.14
20.61,4.18
20.81,4.21
21.02,4.25
21.23,4.37
21.44,4.49
21.66,4.61
21.87,4.74
22.09,4.80
22.31,4.78
22.54,4.78
22.76,4.77
22.99,4.75
23.22,4.81
23.45,4.86
23.69,4.92
23.92,4.97
24.16,5.04
24.40,5.12
24.65,5.19
24.89,5.28
25.14,5.30
25.39,5.29
25.65,5.29
25.91,5.28
26.16,5.30
26.43,5.33
26.69,5.36
26.96,5.40
27.23,5.44
27.50,5.47
27.77,5.50
28.05,5.54
28.33,5.57
28.62,5.60
28.90,5.64
29.19,5.67
29.48,5.70
29.78,5.73
30.08,5.79
30.38,5.93
30.68,6.06
30.99,6.19
31.30,6.21
31.61,6.21
31.93,6.21
32.24,6.19
32.57,6.15
32.89,6.12
33.22,6.16
33.55,6.24
33.89,6.32
34.23,6.34
34.57,6.33
34.92,6.32
35.27,6.36
35.62,6.41
35.97,6.46
36.33,6.46
36.70,6.46
37.06,6.46
37.43,6.43
37.81,6.41
38.19,6.42
38.57,6.48
38.95,6.54
39.34,6.55
39.74,6.55
40.14,6.55
40.54,6.55
40.94,6.55
41.35,6.56
41.76,6.56
42.18,6.56
42.60,6.57
43.03,6.57
43.46,6.58
43.90,6.58
44.33,6.58
44.78,6.58
45.23,6.58
45.68,6.58
46.13,6.58
46.60,6.58
47.06,6.58
47.53,6.67
48.01,6.75
48.49,6.70
48.97,6.64
49.46,6.63
49.96,6.61
50.46,6.52
50.96,6.43
51.47,6.44
51.99,6.47
52.51,6.46
53.03,6.45
53.56,6.44
54.10,6.43
54.64,6.42
55.18,6.41
55.74,6.40
56.29,6.40
56.86,6.39
57.42,6.37
58.00,6.35
58.58,6.26
59.16,6.21
59.76,6.28
60.35,6.31
60.96,6.32
61.57,6.33
62.18,6.35
62.80,6.37
63.43,6.40
64.07,6.43
64.71,6.45
65.35,6.48
66.01,6.50
66.67,6.52
67.33,6.53
68.01,6.55
68.69,6.43
69.37,6.40
70.07,6.44
70.77,6.48
71.48,6.50
72.19,6.51
72.91,6.52
73.64,6.53
74.38,6.55
75.12,6.56
75.87,6.58
76.63,6.76
77.40,6.81
78.17,6.73
78.95,6.74
79.74,6.76
80.54,6.77
81.35,6.76
82.16,6.68
82.98,6.53
83.81,6.69
84.65,6.73
85.50,6.74
86.35,6.75
87.22,6.76
88.09,6.77
88.97,6.79
89.86,6.79
90.76,6.80
91.66,6.74
92.58,6.59
93.51,6.65
94.44,6.84
95.39,6.82
96.34,6.65
97.30,6.62
98.28,6.52
99.26,6.30
100.25,6.34
101.25,6.46
102.27,6.38
103.29,6.30
104.32,6.28
105.37,6.34
106.42,6.33
107.48,6.31
108.56,6.30
109.64,6.29
110.74,6.27
111.85,6.06
112.97,6.03
114.10,6.24
115.24,6.33
116.39,6.32
117.55,6.32
118.73,6.31
119.92,6.30
121.12,6.30
122.33,6.29
123.55,6.27
124.79,6.26
126.03,6.25
127.29,6.23
128.57,6.22
129.85,6.21
131.15,6.20
132.46,6.19
133.79,6.18
135.12,6.15
136.48,5.99
137.84,6.13
139.22,6.03
140.61,5.94
142.02,5.93
143.44,5.70
144.87,5.67
146.32,5.78
147.78,5.84
149.26,5.85
150.75,5.91
152.26,5.98
153.78,6.06
155.32,6.30
156.88,6.55
158.44,6.54
160.03,6.39
161.63,6.52
163.24,6.55
164.88,6.39
166.53,6.23
168.19,5.95
169.87,5.68
171.57,5.74
173.29,5.61
175.02,5.62
176.77,5.88
178.54,5.93
180.32,5.96
182.13,6.14
183.95,6.16
185.79,5.80
187.65,5.86
189.52,6.04
191.42,6.09
193.33,6.26
195.27,6.38
197.22,6.34
199.19,6.39
201.18,6.44
203.19,6.25
205.23,6.13
207.28,6.13
209.35,6.14
211.44,6.15
213.56,6.15
215.69,6.15
217.85,6.34
220.03,6.23
222.23,6.11
224.45,6.19
226.70,6.21
228.96,6.07
231.25,6.13
233.57,6.07
235.90,5.91
238.26,5.83
240.64,5.64
243.05,5.44
245.48,5.43
247.93,5.31
250.41,5.16
252.92,5.17
255.45,4.96
258.00,4.76
260.58,4.61
263.19,4.47
265.82,4.37
268.48,4.24
271.16,4.14
273.87,4.06
276.61,4.09
279.38,4.07
282.17,3.98
284.99,3.92
287.84,3.91
290.72,4.04
293.63,4.06
296.57,4.16
299.53,4.17
302.53,4.23
305.55,4.39
308.61,4.47
311.69,4.57
314.81,4.64
317.96,4.70
321.14,4.74
324.35,4.79
327.59,4.81
330.87,4.73
334.18,4.68
337.52,4.61
340.90,4.60
344.30,4.55
347.75,4.52
351.23,4.53
354.74,4.59
358.28,4.66
361.87,4.68
365.49,4.70
369.14,4.68
372.83,4.65
376.56,4.66
380.33,4.65
384.13,4.58
387.97,4.52
391.85,4.41
395.77,4.25
399.73,4.11
403.72,3.93
407.76,3.69
411.84,3.48
415.96,3.30
420.12,3.12
424.32,2.92
428.56,2.68
432.85,2.49
437.18,2.35
441.55,2.19
445.96,2.05
450.42,1.93
454.93,1.77
459.48,1.65
464.07,1.50
468.71,1.28
473.40,1.14
478.13,1.02
482.91,0.84
487.74,0.58
492.62,0.34
497.55,0.19
502.52,0.03
507.55,-0.18
512.62,-0.37
517.75,-0.55
522.93,-0.77
528.16,-0.92
533.44,-1.09
538.77,-1.30
544.16,-1.44
549.60,-1.60
555.10,-1.87
560.65,-2.08
566.25,-2.20
571.92,-2.30
577.64,-2.46
583.41,-2.62
589.25,-2.74
595.14,-2.80
601.09,-2.80
607.10,-2.86
613.17,-2.91
619.30,-2.98
625.50,-3.04
631.75,-3.09
638.07,-3.10
644.45,-3.05
650.89,-2.99
657.40,-2.91
663.98,-2.81
670.62,-2.64
677.32,-2.61
684.10,-2.56
690.94,-2.38
697.85,-2.21
704.83,-2.10
711.87,-1.95
718.99,-1.80
726.18,-1.60
733.44,-1.38
740.78,-1.21
748.19,-1.10
755.67,-0.95
763.23,-0.80
770.86,-0.67
778.57,-0.53
786.35,-0.35
794.22,-0.15
802.16,0.05
810.18,0.23
818.28,0.38
826.46,0.49
834.73,0.57
843.08,0.61
851.51,0.72
860.02,0.76
868.62,0.83
877.31,0.89
886.08,0.95
894.94,0.97
903.89,0.96
912.93,0.94
922.06,0.89
931.28,0.83
940.59,0.81
950.00,0.69
959.50,0.58
969.09,0.50
978.78,0.34
988.57,0.21
998.46,0.10
1008.44,-0.03
1018.53,-0.21
1028.71,-0.34
1039.00,-0.49
1049.39,-0.67
1059.88,-0.79
1070.48,-1.03
1081.19,-1.34
1092.00,-1.49
1102.92,-1.62
1113.95,-1.93
1125.09,-2.15
1136.34,-2.28
1147.70,-2.46
1159.18,-2.81
1170.77,-3.12
1182.48,-3.35
1194.30,-3.47
1206.25,-3.73
1218.31,-3.91
1230.49,-4.08
1242.80,-4.30
1255.22,-4.40
1267.78,-4.59
1280.45,-4.90
1293.26,-5.01
1306.19,-4.99
1319.25,-5.12
1332.45,-5.20
1345.77,-5.16
1359.23,-5.10
1372.82,-5.12
1386.55,-4.98
1400.41,-4.95
1414.42,-5.07
1428.56,-5.11
1442.85,-5.12
1457.28,-4.93
1471.85,-4.58
1486.57,-4.34
1501.43,-4.31
1516.45,-4.47
1531.61,-4.64
1546.93,-4.66
1562.40,-4.68
1578.02,-4.67
1593.80,-4.81
1609.74,-4.85
1625.84,-4.65
1642.10,-4.66
1658.52,-4.68
1675.10,-4.70
1691.85,-4.64
1708.77,-4.67
1725.86,-4.70
1743.12,-4.68
1760.55,-4.59
1778.15,-4.38
1795.94,-4.15
1813.90,-3.95
1832.03,-3.76
1850.36,-3.71
1868.86,-3.68
1887.55,-3.67
1906.42,-3.56
1925.49,-3.38
1944.74,-3.19
1964.19,-3.00
1983.83,-2.85
2003.67,-2.64
2023.71,-2.35
2043.94,-2.09
2064.38,-1.85
2085.03,-1.69
2105.88,-1.53
2126.94,-1.44
2148.20,-1.56
2169.69,-1.31
2191.38,-1.02
2213.30,-0.95
2235.43,-0.94
2257.78,-0.93
2280.36,-0.86
2303.17,-0.62
2326.20,-0.32
2349.46,-0.05
2372.95,0.14
2396.68,0.20
2420.65,0.44
2444.86,1.01
2469.31,1.58
2494.00,2.09
2518.94,2.27
2544.13,2.20
2569.57,2.94
2595.27,3.35
2621.22,3.38
2647.43,3.98
2673.90,4.63
2700.64,5.01
2727.65,5.08
2754.93,5.41
2782.48,5.63
2810.30,5.65
2838.40,6.14
2866.79,6.25
2895.46,6.08
2924.41,5.72
2953.65,5.15
2983.19,4.80
3013.02,4.18
3043.15,3.38
3073.58,2.90
3104.32,2.59
3135.36,2.25
3166.72,1.99
3198.38,1.65
3230.37,1.39
3262.67,1.45
3295.30,1.70
3328.25,1.94
3361.53,3.12
3395.15,3.54
3429.10,2.83
3463.39,2.02
3498.03,2.23
3533.01,3.18
3568.34,4.63
3604.02,4.56
3640.06,4.67
3676.46,5.16
3713.22,4.94
3750.36,4.33
3787.86,3.40
3825.74,3.06
3864.00,3.45
3902.64,3.79
3941.66,3.62
3981.08,3.19
4020.89,2.72
4061.10,2.05
4101.71,1.48
4142.73,1.06
4184.15,0.74
4226.00,0.30
4268.26,-0.20
4310.94,-0.51
4354.05,-0.71
4397.59,-0.90
4441.56,-1.04
4485.98,-1.14
4530.84,-1.23
4576.15,-1.22
4621.91,-1.21
4668.13,-1.10
4714.81,-0.82
4761.96,-0.46
4809.58,-0.11
4857.67,0.31
4906.25,0.65
4955.31,1.06
5004.87,1.42
5054.91,1.57
5105.46,1.59
5156.52,1.58
5208.08,1.78
5260.16,2.09
5312.77,2.59
5365.89,3.08
5419.55,3.29
5473.75,3.30
5528.49,2.98
5583.77,2.59
5639.61,2.19
5696.00,1.76
5752.96,1.05
5810.49,0.77
5868.60,0.67
5927.28,0.85
5986.56,0.84
6046.42,0.68
6106.89,0.52
6167.96,-0.16
6229.64,-1.48
6291.93,-1.96
6354.85,-1.90
6418.40,-1.76
6482.58,-1.76
6547.41,-1.82
6612.88,-1.83
6679.01,-2.04
6745.80,-2.64
6813.26,-2.81
6881.39,-2.84
6950.21,-2.89
7019.71,-3.04
7089.91,-3.09
7160.81,-2.87
7232.41,-2.73
7304.74,-2.84
7377.79,-3.06
7451.56,-3.71
7526.08,-4.38
7601.34,-5.11
7677.35,-6.34
7754.13,-7.51
7831.67,-8.41
7909.98,-9.07
7989.08,-9.59
8068.98,-10.36
8149.67,-11.34
8231.16,-12.67
8313.47,-12.46
8396.61,-12.26
8480.57,-12.43
8565.38,-13.02
8651.03,-13.71
8737.54,-14.56
8824.92,-15.66
8913.17,-16.72
9002.30,-17.24
9092.32,-17.21
9183.25,-18.64
9275.08,-19.61
9367.83,-19.40
9461.51,-18.60
9556.12,-17.25
9651.68,-15.74
9748.20,-14.25
9845.68,-12.59
9944.14,-11.25
10043.58,-9.95
10144.02,-9.32
10245.46,-9.16
10347.91,-9.10
10451.39,-9.40
10555.91,-9.50
10661.46,-9.35
10768.08,-8.98
10875.76,-8.28
10984.52,-7.92
11094.36,-7.57
11205.31,-6.70
11317.36,-5.42
11430.53,-4.81
11544.84,-4.76
11660.29,-4.80
11776.89,-5.02
11894.66,-5.24
12013.60,-5.54
12133.74,-5.87
12255.08,-6.38
12377.63,-7.03
12501.41,-7.73
12626.42,-8.79
12752.68,-9.41
12880.21,-9.51
13009.01,-9.56
13139.10,-9.01
13270.49,-8.55
13403.20,-7.92
13537.23,-7.00
13672.60,-6.17
13809.33,-5.97
13947.42,-6.32
14086.90,-6.99
14227.77,-7.63
14370.04,-8.54
14513.74,-9.74
14658.88,-10.76
14805.47,-11.62
14953.52,-12.61
15103.06,-13.73
15254.09,-13.51
15406.63,-12.65
15560.70,-11.12
15716.30,-9.71
15873.47,-8.41
16032.20,-8.65
16192.52,-8.94
16354.45,-9.16
16517.99,-9.91
16683.17,-9.83
16850.01,-9.59
17018.51,-9.26
17188.69,-9.36
17360.58,-9.79
17534.18,-10.84
17709.53,-12.09
17886.62,-13.09
18065.49,-13.74
18246.14,-14.32
18428.60,-14.77
18612.89,-14.87
18799.02,-14.80
18987.01,-15.62
19176.88,-16.53
19368.65,-17.69
19562.33,-18.98
19757.96,-20.23
19955.54,-21.19
