frequency,raw,error,smoothed,error_smoothed,equalization,parametric_eq,fixed_band_eq,equalized_raw,equalized_smoothed,target
20.00,4.56,-0.32,4.57,-0.32,0.33,-0.10,-1.00,4.89,4.89,4.89
20.20,4.61,-0.25,4.61,-0.26,0.26,-0.16,-1.03,4.87,4.86,4.87
20.40,4.64,-0.19,4.65,-0.19,0.19,-0.21,-1.06,4.83,4.84,4.84
20.61,4.69,-0.13,4.70,-0.12,0.12,-0.26,-1.09,4.81,4.81,4.82
20.81,4.75,-0.04,4.75,-0.05,0.05,-0.32,-1.12,4.80,4.79,4.80
21.02,4.79,0.03,4.80,0.03,-0.03,-0.37,-1.15,4.77,4.77,4.77
21.23,4.85,0.11,4.85,0.10,-0.10,-0.43,-1.19,4.76,4.75,4.75
21.44,4.90,0.18,4.90,0.18,-0.17,-0.48,-1.22,4.73,4.73,4.73
21.66,4.95,0.25,4.95,0.25,-0.25,-0.54,-1.26,4.70,4.71,4.71
21.87,5.00,0.32,5.01,0.32,-0.33,-0.59,-1.29,4.68,4.68,4.69
22.09,5.06,0.40,5.06,0.40,-0.41,-0.65,-1.33,4.66,4.66,4.67
22.31,5.12,0.48,5.12,0.48,-0.48,-0.70,-1.37,4.64,4.64,4.64
22.54,5.17,0.56,5.18,0.56,-0.56,-0.76,-1.41,4.61,4.62,4.61
22.76,5.24,0.65,5.24,0.65,-0.64,-0.81,-1.45,4.60,4.60,4.59
22.99,5.30,0.73,5.30,0.73,-0.72,-0.87,-1.49,4.58,4.58,4.57
23.22,5.35,0.80,5.36,0.80,-0.80,-0.92,-1.53,4.55,4.56,4.55
23.45,5.41,0.87,5.41,0.87,-0.88,-0.98,-1.57,4.54,4.54,4.54
23.69,5.47,0.95,5.47,0.95,-0.95,-1.04,-1.62,4.52,4.52,4.52
23.92,5.53,1.02,5.53,1.02,-1.02,-1.09,-1.66,4.51,4.51,4.51
24.16,5.59,1.10,5.59,1.10,-1.10,-1.15,-1.71,4.50,4.49,4.49
24.40,5.64,1.16,5.65,1.17,-1.17,-1.20,-1.76,4.48,4.48,4.48
24.65,5.70,1.23,5.70,1.24,-1.24,-1.26,-1.80,4.46,4.46,4.47
24.89,5.76,1.32,5.76,1.31,-1.31,-1.31,-1.85,4.45,4.45,4.45
25.14,5.82,1.39,5.82,1.39,-1.38,-1.37,-1.90,4.44,4.44,4.44
25.39,5.88,1.46,5.88,1.46,-1.46,-1.42,-1.95,4.43,4.43,4.43
25.65,5.94,1.53,5.94,1.53,-1.53,-1.48,-2.00,4.41,4.42,4.42
25.91,6.00,1.60,6.00,1.60,-1.60,-1.53,-2.05,4.40,4.40,4.41
26.16,6.06,1.67,6.06,1.67,-1.67,-1.59,-2.10,4.39,4.39,4.40
26.43,6.12,1.75,6.12,1.75,-1.74,-1.64,-2.14,4.38,4.38,4.38
26.69,6.18,1.82,6.18,1.82,-1.81,-1.70,-2.19,4.37,4.37,4.36
26.96,6.24,1.89,6.24,1.89,-1.88,-1.75,-2.24,4.36,4.36,4.35
27.23,6.29,1.95,6.29,1.95,-1.95,-1.80,-2.29,4.34,4.34,4.34
27.50,6.34,2.01,6.35,2.01,-2.02,-1.86,-2.33,4.33,4.33,4.33
27.77,6.40,2.07,6.41,2.08,-2.08,-1.91,-2.38,4.32,4.32,4.33
28.05,6.47,2.15,6.47,2.15,-2.15,-1.96,-2.42,4.33,4.32,4.32
28.33,6.52,2.21,6.53,2.21,-2.21,-2.01,-2.46,4.31,4.32,4.31
28.62,6.58,2.27,6.58,2.28,-2.27,-2.07,-2.50,4.31,4.31,4.31
28.90,6.63,2.34,6.63,2.33,-2.34,-2.12,-2.54,4.30,4.30,4.30
29.19,6.68,2.39,6.69,2.39,-2.40,-2.17,-2.58,4.29,4.29,4.30
29.48,6.74,2.46,6.74,2.46,-2.46,-2.22,-2.61,4.29,4.29,4.29
29.78,6.80,2.52,6.80,2.52,-2.52,-2.27,-2.64,4.29,4.28,4.28
30.08,6.85,2.58,6.85,2.57,-2.57,-2.32,-2.67,4.28,4.28,4.27
30.38,6.89,2.62,6.90,2.63,-2.63,-2.37,-2.70,4.26,4.27,4.27
30.68,6.94,2.68,6.94,2.68,-2.68,-2.42,-2.72,4.26,4.26,4.26
30.99,6.99,2.74,6.99,2.74,-2.74,-2.46,-2.74,4.26,4.25,4.25
31.30,7.03,2.79,7.03,2.79,-2.78,-2.51,-2.75,4.25,4.25,4.25
31.61,7.07,2.84,7.07,2.83,-2.83,-2.56,-2.77,4.24,4.24,4.24
31.93,7.10,2.88,7.10,2.88,-2.88,-2.60,-2.78,4.23,4.23,4.22
32.24,7.13,2.91,7.14,2.92,-2.92,-2.65,-2.78,4.21,4.22,4.22
32.57,7.17,2.96,7.17,2.96,-2.96,-2.69,-2.79,4.21,4.21,4.21
32.89,7.20,3.00,7.20,3.00,-3.01,-2.74,-2.79,4.20,4.20,4.20
33.22,7.23,3.05,7.23,3.05,-3.05,-2.78,-2.79,4.19,4.19,4.19
33.55,7.26,3.09,7.26,3.09,-3.08,-2.82,-2.79,4.18,4.18,4.18
33.89,7.28,3.12,7.29,3.12,-3.12,-2.86,-2.78,4.16,4.17,4.16
34.23,7.31,3.16,7.31,3.16,-3.16,-2.90,-2.78,4.16,4.16,4.15
34.57,7.34,3.19,7.34,3.19,-3.19,-2.94,-2.77,4.15,4.15,4.15
34.92,7.36,3.23,7.36,3.23,-3.22,-2.98,-2.76,4.14,4.14,4.14
35.27,7.38,3.26,7.38,3.26,-3.25,-3.02,-2.75,4.13,4.13,4.13
35.62,7.40,3.28,7.40,3.28,-3.28,-3.05,-2.74,4.12,4.12,4.12
35.97,7.42,3.31,7.42,3.31,-3.31,-3.09,-2.72,4.11,4.11,4.11
36.33,7.44,3.33,7.44,3.34,-3.34,-3.12,-2.71,4.11,4.11,4.11
36.70,7.45,3.36,7.46,3.36,-3.36,-3.15,-2.70,4.09,4.10,4.10
37.06,7.47,3.39,7.47,3.38,-3.38,-3.19,-2.68,4.09,4.09,4.08
37.43,7.48,3.40,7.48,3.41,-3.41,-3.22,-2.67,4.08,4.08,4.08
37.81,7.49,3.43,7.50,3.43,-3.43,-3.25,-2.66,4.07,4.07,4.07
38.19,7.51,3.45,7.51,3.44,-3.44,-3.28,-2.65,4.07,4.06,4.07
38.57,7.51,3.46,7.52,3.46,-3.46,-3.30,-2.64,4.05,4.06,4.05
38.95,7.52,3.47,7.53,3.48,-3.48,-3.33,-2.63,4.05,4.05,4.05
39.34,7.53,3.50,7.53,3.49,-3.49,-3.35,-2.62,4.04,4.04,4.04
39.74,7.53,3.50,7.53,3.50,-3.50,-3.38,-2.61,4.03,4.03,4.03
40.14,7.53,3.51,7.54,3.51,-3.52,-3.40,-2.60,4.02,4.02,4.02
40.54,7.53,3.52,7.54,3.52,-3.53,-3.42,-2.60,4.01,4.01,4.02
40.94,7.54,3.54,7.54,3.53,-3.53,-3.44,-2.60,4.01,4.00,4.00
41.35,7.53,3.54,7.54,3.54,-3.54,-3.46,-2.60,3.99,4.00,4.00
41.76,7.54,3.56,7.54,3.55,-3.55,-3.48,-2.60,3.99,3.99,3.98
42.18,7.53,3.55,7.53,3.56,-3.56,-3.49,-2.60,3.98,3.98,3.98
42.60,7.52,3.56,7.53,3.56,-3.56,-3.51,-2.60,3.96,3.97,3.97
43.03,7.52,3.56,7.52,3.56,-3.56,-3.52,-2.61,3.96,3.96,3.96
43.46,7.51,3.57,7.52,3.57,-3.57,-3.53,-2.62,3.95,3.95,3.95
43.90,7.51,3.57,7.51,3.57,-3.57,-3.54,-2.63,3.94,3.94,3.94
44.33,7.50,3.57,7.50,3.57,-3.57,-3.55,-2.64,3.93,3.93,3.94
44.78,7.49,3.57,7.49,3.57,-3.57,-3.56,-2.66,3.92,3.93,3.92
45.23,7.48,3.57,7.48,3.57,-3.57,-3.57,-2.67,3.92,3.92,3.92
45.68,7.47,3.56,7.47,3.57,-3.56,-3.57,-2.69,3.91,3.91,3.91
46.13,7.46,3.56,7.46,3.56,-3.56,-3.58,-2.71,3.90,3.90,3.90
46.60,7.45,3.56,7.45,3.55,-3.55,-3.58,-2.74,3.90,3.90,3.90
47.06,7.43,3.54,7.44,3.55,-3.54,-3.58,-2.76,3.89,3.89,3.89
47.53,7.42,3.54,7.42,3.54,-3.53,-3.58,-2.79,3.89,3.89,3.89
48.01,7.40,3.52,7.40,3.52,-3.52,-3.58,-2.82,3.88,3.88,3.88
48.49,7.38,3.51,7.38,3.51,-3.51,-3.58,-2.85,3.87,3.87,3.87
48.97,7.36,3.50,7.36,3.50,-3.50,-3.57,-2.88,3.86,3.86,3.87
49.46,7.34,3.49,7.35,3.49,-3.49,-3.57,-2.91,3.85,3.86,3.86
49.96,7.32,3.47,7.33,3.48,-3.48,-3.56,-2.94,3.85,3.85,3.85
50.46,7.31,3.47,7.31,3.46,-3.46,-3.55,-2.98,3.85,3.84,3.84
50.96,7.28,3.45,7.29,3.45,-3.45,-3.55,-3.02,3.83,3.84,3.83
51.47,7.26,3.44,7.26,3.44,-3.44,-3.54,-3.05,3.83,3.83,3.83
51.99,7.24,3.43,7.24,3.42,-3.43,-3.53,-3.09,3.82,3.81,3.82
52.51,7.21,3.41,7.22,3.41,-3.41,-3.51,-3.13,3.80,3.81,3.81
53.03,7.19,3.40,7.20,3.40,-3.40,-3.50,-3.17,3.80,3.80,3.80
53.56,7.17,3.38,7.17,3.38,-3.38,-3.49,-3.21,3.79,3.79,3.79
54.10,7.15,3.38,7.15,3.37,-3.37,-3.47,-3.24,3.79,3.78,3.78
54.64,7.11,3.35,7.12,3.35,-3.35,-3.46,-3.28,3.76,3.77,3.77
55.18,7.08,3.33,7.09,3.33,-3.33,-3.44,-3.32,3.75,3.75,3.76
55.74,7.06,3.32,7.06,3.31,-3.31,-3.42,-3.35,3.75,3.74,3.75
56.29,7.02,3.29,7.03,3.30,-3.30,-3.41,-3.38,3.73,3.74,3.74
56.86,7.00,3.28,7.00,3.28,-3.27,-3.39,-3.41,3.73,3.73,3.72
57.42,6.97,3.26,6.97,3.25,-3.25,-3.37,-3.44,3.72,3.72,3.71
58.00,6.93,3.23,6.94,3.23,-3.23,-3.35,-3.47,3.71,3.71,3.71
58.58,6.89,3.20,6.90,3.20,-3.20,-3.32,-3.49,3.69,3.69,3.70
59.16,6.86,3.18,6.86,3.18,-3.18,-3.30,-3.51,3.68,3.68,3.68
59.76,6.82,3.16,6.82,3.15,-3.15,-3.28,-3.52,3.67,3.67,3.67
60.35,6.78,3.12,6.78,3.12,-3.12,-3.26,-3.53,3.66,3.66,3.66
60.96,6.73,3.08,6.74,3.09,-3.10,-3.23,-3.54,3.64,3.65,3.65
61.57,6.70,3.07,6.70,3.07,-3.07,-3.21,-3.55,3.64,3.64,3.63
62.18,6.66,3.04,6.66,3.04,-3.04,-3.18,-3.55,3.63,3.62,3.62
62.80,6.61,3.01,6.61,3.01,-3.00,-3.16,-3.54,3.61,3.61,3.60
63.43,6.56,2.97,6.57,2.97,-2.97,-3.13,-3.54,3.59,3.59,3.60
64.07,6.51,2.93,6.52,2.94,-2.94,-3.11,-3.52,3.57,3.58,3.58
64.71,6.47,2.91,6.47,2.90,-2.91,-3.08,-3.51,3.57,3.56,3.56
65.35,6.41,2.87,6.42,2.87,-2.87,-3.05,-3.49,3.54,3.54,3.54
66.01,6.36,2.84,6.37,2.84,-2.84,-3.03,-3.46,3.52,3.53,3.52
66.67,6.31,2.81,6.31,2.81,-2.81,-3.00,-3.44,3.51,3.51,3.51
67.33,6.26,2.78,6.26,2.78,-2.77,-2.97,-3.41,3.49,3.49,3.49
68.01,6.20,2.74,6.21,2.74,-2.74,-2.95,-3.37,3.46,3.47,3.47
68.69,6.15,2.71,6.15,2.71,-2.71,-2.92,-3.34,3.45,3.45,3.45
69.37,6.09,2.67,6.10,2.67,-2.67,-2.89,-3.30,3.42,3.42,3.42
70.07,6.04,2.64,6.04,2.64,-2.64,-2.86,-3.26,3.40,3.40,3.40
70.77,5.98,2.60,5.99,2.61,-2.61,-2.84,-3.21,3.38,3.38,3.38
71.48,5.93,2.58,5.93,2.57,-2.57,-2.81,-3.17,3.36,3.36,3.36
72.19,5.87,2.54,5.88,2.54,-2.54,-2.78,-3.12,3.33,3.33,3.33
72.91,5.82,2.51,5.82,2.51,-2.51,-2.76,-3.08,3.31,3.31,3.31
73.64,5.76,2.49,5.76,2.48,-2.48,-2.73,-3.03,3.28,3.28,3.28
74.38,5.70,2.45,5.71,2.46,-2.46,-2.70,-2.98,3.25,3.25,3.25
75.12,5.65,2.43,5.65,2.43,-2.43,-2.68,-2.94,3.22,3.22,3.22
75.87,5.59,2.41,5.60,2.40,-2.41,-2.65,-2.89,3.19,3.19,3.19
76.63,5.54,2.38,5.54,2.38,-2.38,-2.62,-2.84,3.16,3.16,3.16
77.40,5.48,2.36,5.49,2.36,-2.37,-2.60,-2.80,3.12,3.12,3.12
78.17,5.43,2.35,5.43,2.35,-2.35,-2.57,-2.75,3.08,3.09,3.09
78.95,5.38,2.34,5.38,2.33,-2.34,-2.54,-2.71,3.05,3.05,3.05
79.74,5.33,2.33,5.33,2.33,-2.32,-2.52,-2.67,3.01,3.01,3.01
80.54,5.28,2.31,5.29,2.32,-2.32,-2.49,-2.62,2.97,2.97,2.97
81.35,5.24,2.32,5.24,2.31,-2.31,-2.47,-2.58,2.93,2.93,2.93
82.16,5.19,2.31,5.19,2.30,-2.31,-2.45,-2.54,2.89,2.89,2.89
82.98,5.14,2.30,5.15,2.30,-2.30,-2.42,-2.51,2.84,2.85,2.85
83.81,5.10,2.30,5.10,2.30,-2.30,-2.40,-2.47,2.80,2.80,2.81
84.65,5.05,2.30,5.06,2.30,-2.30,-2.37,-2.44,2.76,2.76,2.75
85.50,5.01,2.30,5.01,2.30,-2.30,-2.35,-2.41,2.72,2.71,2.71
86.35,4.97,2.30,4.97,2.30,-2.30,-2.33,-2.38,2.67,2.67,2.68
87.22,4.92,2.29,4.93,2.30,-2.30,-2.31,-2.35,2.62,2.63,2.63
88.09,4.89,2.30,4.89,2.30,-2.30,-2.28,-2.32,2.59,2.59,2.59
88.97,4.85,2.31,4.85,2.31,-2.30,-2.26,-2.30,2.55,2.55,2.54
89.86,4.81,2.31,4.81,2.31,-2.31,-2.24,-2.27,2.51,2.51,2.50
90.76,4.77,2.31,4.77,2.31,-2.31,-2.22,-2.25,2.46,2.46,2.46
91.66,4.73,2.31,4.73,2.31,-2.32,-2.20,-2.23,2.42,2.42,2.42
92.58,4.69,2.31,4.70,2.32,-2.32,-2.18,-2.21,2.37,2.38,2.38
93.51,4.66,2.33,4.66,2.33,-2.32,-2.16,-2.20,2.34,2.34,2.34
94.44,4.63,2.33,4.63,2.33,-2.33,-2.14,-2.18,2.30,2.30,2.30
95.39,4.59,2.34,4.59,2.34,-2.34,-2.12,-2.17,2.26,2.26,2.25
96.34,4.55,2.34,4.56,2.34,-2.34,-2.10,-2.16,2.21,2.21,2.22
97.30,4.51,2.35,4.52,2.35,-2.35,-2.08,-2.15,2.16,2.17,2.17
98.28,4.48,2.35,4.48,2.35,-2.36,-2.06,-2.14,2.13,2.12,2.13
99.26,4.44,2.36,4.44,2.36,-2.36,-2.04,-2.13,2.08,2.08,2.08
100.25,4.40,2.37,4.41,2.37,-2.37,-2.02,-2.13,2.03,2.04,2.03
101.25,4.36,2.38,4.36,2.38,-2.38,-2.00,-2.12,1.99,1.99,1.99
102.27,4.32,2.39,4.32,2.38,-2.38,-1.98,-2.12,1.94,1.94,1.94
103.29,4.27,2.38,4.28,2.39,-2.38,-1.96,-2.11,1.89,1.89,1.89
104.32,4.22,2.38,4.23,2.39,-2.39,-1.94,-2.11,1.84,1.84,1.84
105.37,4.18,2.39,4.18,2.38,-2.38,-1.92,-2.11,1.80,1.79,1.79
106.42,4.12,2.38,4.13,2.38,-2.38,-1.90,-2.10,1.74,1.75,1.75
107.48,4.06,2.37,4.07,2.37,-2.37,-1.88,-2.10,1.69,1.70,1.70
108.56,4.01,2.37,4.01,2.36,-2.36,-1.86,-2.09,1.65,1.65,1.65
109.64,3.94,2.34,3.95,2.35,-2.34,-1.85,-2.09,1.60,1.60,1.60
110.74,3.88,2.33,3.88,2.33,-2.32,-1.83,-2.08,1.56,1.56,1.55
111.85,3.80,2.30,3.80,2.30,-2.30,-1.81,-2.08,1.51,1.51,1.50
112.97,3.72,2.27,3.73,2.27,-2.27,-1.78,-2.07,1.46,1.46,1.46
114.10,3.64,2.23,3.65,2.24,-2.23,-1.76,-2.06,1.41,1.41,1.41
115.24,3.56,2.20,3.56,2.20,-2.20,-1.74,-2.05,1.37,1.37,1.36
116.39,3.47,2.16,3.47,2.16,-2.15,-1.72,-2.04,1.32,1.32,1.32
117.55,3.37,2.11,3.38,2.11,-2.11,-1.70,-2.02,1.26,1.27,1.27
118.73,3.28,2.06,3.28,2.06,-2.06,-1.68,-2.00,1.22,1.22,1.22
119.92,3.19,2.01,3.19,2.01,-2.02,-1.65,-1.98,1.18,1.18,1.19
121.12,3.10,1.96,3.11,1.96,-1.97,-1.63,-1.96,1.14,1.14,1.14
122.33,3.02,1.92,3.02,1.92,-1.92,-1.61,-1.93,1.10,1.10,1.10
123.55,2.93,1.87,2.94,1.87,-1.87,-1.58,-1.90,1.06,1.06,1.06
124.79,2.85,1.83,2.85,1.83,-1.83,-1.56,-1.87,1.03,1.02,1.03
126.03,2.76,1.78,2.77,1.78,-1.78,-1.53,-1.84,0.98,0.98,0.98
127.29,2.68,1.74,2.69,1.74,-1.74,-1.50,-1.80,0.94,0.95,0.95
128.57,2.60,1.69,2.60,1.70,-1.70,-1.47,-1.76,0.91,0.91,0.91
129.85,2.53,1.66,2.53,1.65,-1.65,-1.45,-1.71,0.88,0.88,0.87
131.15,2.44,1.61,2.45,1.61,-1.61,-1.42,-1.66,0.84,0.84,0.84
132.46,2.37,1.57,2.37,1.57,-1.56,-1.39,-1.61,0.81,0.81,0.81
133.79,2.29,1.52,2.29,1.52,-1.52,-1.35,-1.56,0.78,0.78,0.78
135.12,2.21,1.47,2.21,1.47,-1.47,-1.32,-1.50,0.74,0.74,0.74
136.48,2.13,1.42,2.14,1.42,-1.42,-1.29,-1.44,0.71,0.71,0.71
137.84,2.06,1.37,2.06,1.37,-1.38,-1.25,-1.38,0.69,0.69,0.69
139.22,1.99,1.33,1.99,1.33,-1.33,-1.22,-1.32,0.66,0.66,0.67
140.61,1.92,1.29,1.92,1.28,-1.28,-1.18,-1.25,0.64,0.64,0.64
142.02,1.85,1.24,1.85,1.24,-1.24,-1.14,-1.18,0.62,0.62,0.62
143.44,1.78,1.18,1.78,1.19,-1.19,-1.10,-1.11,0.59,0.59,0.60
144.87,1.71,1.14,1.72,1.14,-1.14,-1.06,-1.04,0.57,0.57,0.57
146.32,1.65,1.10,1.65,1.09,-1.09,-1.02,-0.96,0.56,0.56,0.56
147.78,1.58,1.04,1.58,1.05,-1.04,-0.98,-0.89,0.54,0.54,0.54
149.26,1.51,1.00,1.51,0.99,-0.99,-0.93,-0.81,0.52,0.52,0.52
150.75,1.43,0.93,1.44,0.93,-0.93,-0.88,-0.74,0.50,0.50,0.50
152.26,1.36,0.88,1.36,0.88,-0.87,-0.83,-0.66,0.49,0.49,0.49
153.78,1.28,0.81,1.29,0.81,-0.81,-0.78,-0.58,0.47,0.47,0.47
155.32,1.21,0.75,1.21,0.75,-0.75,-0.73,-0.50,0.47,0.46,0.46
156.88,1.12,0.68,1.13,0.68,-0.68,-0.68,-0.41,0.44,0.45,0.45
158.44,1.04,0.61,1.05,0.61,-0.61,-0.62,-0.33,0.43,0.44,0.44
160.03,0.96,0.54,0.96,0.53,-0.54,-0.56,-0.25,0.43,0.42,0.42
161.63,0.87,0.46,0.88,0.46,-0.46,-0.50,-0.16,0.41,0.41,0.41
163.24,0.78,0.38,0.79,0.38,-0.38,-0.44,-0.08,0.40,0.40,0.40
164.88,0.70,0.31,0.70,0.30,-0.30,-0.37,0.00,0.40,0.39,0.39
166.53,0.60,0.22,0.61,0.22,-0.22,-0.30,0.09,0.38,0.39,0.38
168.19,0.51,0.14,0.51,0.14,-0.14,-0.23,0.18,0.38,0.38,0.38
169.87,0.41,0.05,0.41,0.05,-0.05,-0.16,0.26,0.36,0.36,0.37
171.57,0.31,-0.04,0.32,-0.04,0.04,-0.08,0.35,0.35,0.36,0.35
173.29,0.21,-0.13,0.21,-0.13,0.13,-0.01,0.44,0.34,0.34,0.34
175.02,0.11,-0.22,0.11,-0.22,0.22,0.08,0.53,0.34,0.33,0.34
176.77,0.00,-0.32,0.01,-0.32,0.32,0.16,0.61,0.32,0.32,0.32
178.54,-0.10,-0.41,-0.10,-0.41,0.41,0.25,0.70,0.31,0.31,0.31
180.32,-0.21,-0.51,-0.21,-0.51,0.50,0.34,0.79,0.30,0.30,0.30
182.13,-0.32,-0.60,-0.31,-0.60,0.60,0.43,0.88,0.28,0.28,0.28
183.95,-0.43,-0.70,-0.42,-0.69,0.69,0.53,0.97,0.27,0.27,0.27
185.79,-0.53,-0.78,-0.53,-0.79,0.79,0.63,1.06,0.26,0.26,0.26
187.65,-0.64,-0.88,-0.64,-0.88,0.88,0.74,1.16,0.24,0.24,0.24
189.52,-0.75,-0.98,-0.74,-0.97,0.97,0.85,1.25,0.23,0.23,0.23
191.42,-0.85,-1.06,-0.85,-1.07,1.07,0.96,1.34,0.22,0.22,0.22
193.33,-0.96,-1.16,-0.96,-1.16,1.16,1.08,1.43,0.20,0.20,0.20
195.27,-1.07,-1.26,-1.06,-1.25,1.25,1.20,1.52,0.18,0.19,0.19
197.22,-1.17,-1.34,-1.17,-1.34,1.34,1.33,1.62,0.17,0.17,0.17
199.19,-1.27,-1.43,-1.27,-1.43,1.43,1.45,1.71,0.16,0.16,0.16
201.18,-1.38,-1.52,-1.38,-1.52,1.52,1.59,1.80,0.14,0.14,0.14
203.19,-1.49,-1.61,-1.48,-1.61,1.61,1.72,1.89,0.12,0.12,0.13
205.23,-1.59,-1.69,-1.59,-1.70,1.70,1.86,1.98,0.11,0.11,0.11
207.28,-1.70,-1.79,-1.70,-1.79,1.79,2.00,2.07,0.10,0.09,0.10
209.35,-1.82,-1.90,-1.81,-1.89,1.89,2.15,2.16,0.07,0.08,0.08
211.44,-1.93,-1.99,-1.93,-1.99,2.00,2.29,2.25,0.07,0.07,0.06
213.56,-2.06,-2.11,-2.06,-2.10,2.11,2.44,2.34,0.05,0.05,0.05
215.69,-2.19,-2.22,-2.19,-2.22,2.23,2.58,2.42,0.04,0.04,0.03
217.85,-2.34,-2.36,-2.33,-2.35,2.36,2.73,2.50,0.02,0.03,0.02
220.03,-2.48,-2.48,-2.48,-2.49,2.49,2.88,2.58,0.02,0.01,0.01
222.23,-2.64,-2.63,-2.64,-2.64,2.64,3.02,2.66,0.01,0.00,-0.00
224.45,-2.81,-2.80,-2.80,-2.79,2.80,3.16,2.73,-0.01,-0.00,-0.01
226.70,-2.98,-2.96,-2.98,-2.96,2.97,3.29,2.80,-0.01,-0.01,-0.02
228.96,-3.16,-3.13,-3.16,-3.13,3.14,3.41,2.86,-0.02,-0.02,-0.02
231.25,-3.34,-3.31,-3.34,-3.31,3.31,3.53,2.92,-0.02,-0.03,-0.03
233.57,-3.52,-3.49,-3.52,-3.49,3.49,3.64,2.98,-0.03,-0.03,-0.03
235.90,-3.70,-3.66,-3.69,-3.66,3.66,3.73,3.02,-0.03,-0.03,-0.03
238.26,-3.86,-3.83,-3.86,-3.83,3.83,3.81,3.07,-0.02,-0.03,-0.03
240.64,-4.03,-4.00,-4.02,-3.99,4.00,3.87,3.11,-0.03,-0.03,-0.02
243.05,-4.17,-4.14,-4.17,-4.14,4.15,3.93,3.14,-0.02,-0.02,-0.03
245.48,-4.31,-4.28,-4.31,-4.28,4.28,3.96,3.16,-0.02,-0.02,-0.03
247.93,-4.43,-4.41,-4.42,-4.40,4.40,3.98,3.18,-0.03,-0.02,-0.02
250.41,-4.52,-4.50,-4.52,-4.50,4.50,3.97,3.20,-0.02,-0.02,-0.02
252.92,-4.59,-4.57,-4.59,-4.57,4.56,3.96,3.20,-0.02,-0.02,-0.02
255.45,-4.63,-4.61,-4.63,-4.61,4.60,3.92,3.20,-0.02,-0.02,-0.02
258.00,-4.64,-4.63,-4.63,-4.62,4.61,3.88,3.20,-0.03,-0.03,-0.01
260.58,-4.60,-4.58,-4.60,-4.59,4.57,3.81,3.18,-0.02,-0.03,-0.01
263.19,-4.54,-4.52,-4.53,-4.52,4.50,3.73,3.17,-0.03,-0.03,-0.02
265.82,-4.43,-4.41,-4.43,-4.41,4.39,3.64,3.14,-0.03,-0.03,-0.01
268.48,-4.29,-4.27,-4.28,-4.26,4.25,3.54,3.11,-0.04,-0.03,-0.02
271.16,-4.10,-4.08,-4.10,-4.08,4.07,3.42,3.08,-0.03,-0.03,-0.02
273.87,-3.90,-3.87,-3.89,-3.87,3.86,3.30,3.04,-0.03,-0.03,-0.02
276.61,-3.66,-3.64,-3.65,-3.63,3.63,3.17,3.00,-0.03,-0.03,-0.02
279.38,-3.40,-3.38,-3.40,-3.38,3.38,3.04,2.95,-0.02,-0.03,-0.02
282.17,-3.14,-3.11,-3.13,-3.11,3.11,2.90,2.90,-0.02,-0.02,-0.02
284.99,-2.87,-2.85,-2.86,-2.84,2.85,2.75,2.85,-0.02,-0.02,-0.02
287.84,-2.60,-2.58,-2.60,-2.58,2.59,2.60,2.79,-0.01,-0.01,-0.02
290.72,-2.34,-2.32,-2.34,-2.32,2.33,2.45,2.73,-0.00,-0.00,-0.01
293.63,-2.10,-2.08,-2.10,-2.08,2.10,2.29,2.67,0.00,0.00,-0.02
296.57,-1.88,-1.87,-1.88,-1.87,1.88,2.13,2.61,0.01,0.01,-0.01
299.53,-1.69,-1.67,-1.69,-1.68,1.69,1.97,2.55,0.00,0.00,-0.01
302.53,-1.52,-1.51,-1.52,-1.51,1.52,1.80,2.48,0.01,0.00,-0.00
305.55,-1.38,-1.38,-1.37,-1.37,1.38,1.64,2.42,0.00,0.01,0.00
308.61,-1.25,-1.26,-1.25,-1.26,1.26,1.49,2.35,0.02,0.02,0.01
311.69,-1.14,-1.15,-1.14,-1.16,1.17,1.34,2.29,0.03,0.02,0.02
314.81,-1.06,-1.08,-1.06,-1.08,1.09,1.21,2.22,0.03,0.03,0.03
317.96,-1.00,-1.03,-0.99,-1.03,1.03,1.10,2.16,0.03,0.03,0.03
321.14,-0.94,-0.98,-0.94,-0.98,0.98,1.01,2.09,0.04,0.04,0.04
324.35,-0.90,-0.95,-0.89,-0.94,0.94,0.94,2.03,0.04,0.04,0.05
327.59,-0.86,-0.91,-0.86,-0.91,0.91,0.90,1.96,0.05,0.05,0.06
330.87,-0.83,-0.88,-0.83,-0.89,0.88,0.87,1.90,0.06,0.06,0.06
334.18,-0.81,-0.87,-0.80,-0.86,0.86,0.86,1.84,0.06,0.06,0.06
337.52,-0.78,-0.84,-0.78,-0.85,0.85,0.85,1.78,0.07,0.07,0.06
340.90,-0.77,-0.84,-0.77,-0.84,0.83,0.84,1.72,0.07,0.07,0.07
344.30,-0.76,-0.83,-0.75,-0.82,0.82,0.84,1.66,0.06,0.07,0.07
347.75,-0.75,-0.81,-0.74,-0.81,0.81,0.84,1.61,0.06,0.07,0.07
351.23,-0.73,-0.79,-0.73,-0.80,0.80,0.83,1.55,0.07,0.07,0.07
354.74,-0.73,-0.79,-0.73,-0.79,0.79,0.82,1.50,0.06,0.06,0.07
358.28,-0.73,-0.78,-0.72,-0.78,0.78,0.81,1.44,0.05,0.06,0.05
361.87,-0.72,-0.77,-0.72,-0.77,0.77,0.80,1.39,0.06,0.05,0.05
365.49,-0.72,-0.77,-0.71,-0.76,0.76,0.79,1.34,0.05,0.05,0.05
369.14,-0.71,-0.76,-0.70,-0.76,0.76,0.77,1.29,0.05,0.05,0.05
372.83,-0.70,-0.75,-0.70,-0.75,0.75,0.75,1.24,0.05,0.05,0.05
376.56,-0.68,-0.73,-0.68,-0.74,0.74,0.74,1.19,0.06,0.05,0.06
380.33,-0.68,-0.73,-0.67,-0.73,0.73,0.72,1.15,0.05,0.06,0.06
384.13,-0.66,-0.71,-0.66,-0.72,0.72,0.71,1.10,0.06,0.06,0.06
387.97,-0.65,-0.71,-0.64,-0.71,0.70,0.69,1.06,0.06,0.06,0.07
391.85,-0.63,-0.69,-0.63,-0.69,0.69,0.67,1.02,0.07,0.07,0.06
395.77,-0.61,-0.68,-0.61,-0.68,0.68,0.66,0.97,0.07,0.07,0.07
399.73,-0.59,-0.67,-0.59,-0.66,0.67,0.64,0.93,0.08,0.08,0.08
403.72,-0.57,-0.65,-0.57,-0.66,0.65,0.63,0.90,0.09,0.08,0.08
407.76,-0.56,-0.65,-0.55,-0.64,0.64,0.62,0.86,0.08,0.09,0.09
411.84,-0.54,-0.64,-0.53,-0.63,0.63,0.60,0.82,0.09,0.09,0.10
415.96,-0.51,-0.62,-0.51,-0.62,0.61,0.59,0.78,0.11,0.10,0.11
420.12,-0.49,-0.59,-0.49,-0.60,0.60,0.58,0.75,0.11,0.11,0.11
424.32,-0.47,-0.58,-0.47,-0.58,0.59,0.57,0.72,0.12,0.12,0.12
428.56,-0.45,-0.57,-0.45,-0.57,0.57,0.56,0.68,0.13,0.13,0.13
432.85,-0.44,-0.57,-0.43,-0.56,0.56,0.55,0.65,0.13,0.14,0.14
437.18,-0.41,-0.55,-0.41,-0.55,0.55,0.54,0.62,0.15,0.15,0.15
441.55,-0.39,-0.54,-0.39,-0.55,0.55,0.54,0.59,0.16,0.16,0.15
445.96,-0.38,-0.54,-0.37,-0.54,0.54,0.53,0.57,0.17,0.17,0.16
450.42,-0.37,-0.54,-0.37,-0.54,0.54,0.53,0.54,0.17,0.17,0.17
454.93,-0.36,-0.54,-0.36,-0.54,0.54,0.52,0.52,0.18,0.18,0.18
459.48,-0.35,-0.54,-0.35,-0.54,0.54,0.52,0.49,0.19,0.19,0.19
464.07,-0.34,-0.54,-0.34,-0.54,0.54,0.52,0.47,0.20,0.20,0.20
468.71,-0.33,-0.54,-0.33,-0.54,0.54,0.52,0.45,0.21,0.21,0.21
473.40,-0.33,-0.55,-0.32,-0.54,0.55,0.51,0.43,0.22,0.22,0.22
478.13,-0.32,-0.55,-0.32,-0.55,0.55,0.51,0.41,0.23,0.23,0.23
482.91,-0.32,-0.57,-0.31,-0.56,0.56,0.51,0.39,0.24,0.25,0.25
487.74,-0.31,-0.57,-0.31,-0.57,0.57,0.52,0.38,0.26,0.26,0.26
492.62,-0.30,-0.58,-0.30,-0.58,0.58,0.52,0.36,0.28,0.28,0.28
497.55,-0.30,-0.59,-0.30,-0.59,0.59,0.52,0.35,0.30,0.30,0.29
502.52,-0.30,-0.60,-0.30,-0.61,0.61,0.53,0.34,0.31,0.31,0.31
507.55,-0.30,-0.62,-0.29,-0.62,0.62,0.53,0.33,0.32,0.33,0.33
512.62,-0.30,-0.64,-0.29,-0.64,0.64,0.54,0.32,0.34,0.34,0.35
517.75,-0.29,-0.64,-0.29,-0.65,0.65,0.54,0.31,0.37,0.36,0.36
522.93,-0.30,-0.67,-0.29,-0.67,0.67,0.55,0.30,0.37,0.38,0.38
528.16,-0.29,-0.68,-0.29,-0.68,0.68,0.56,0.29,0.40,0.39,0.40
