frequency,raw,error,smoothed,error_smoothed,equalization,parametric_eq,fixed_band_eq,equalized_raw,equalized_smoothed,target
20.00,0.70,-1.98,0.70,-1.98,1.97,1.91,0.78,2.67,2.67,2.67
20.20,0.70,-1.97,0.70,-1.97,1.96,1.91,0.80,2.66,2.66,2.66
20.40,0.70,-1.95,0.70,-1.96,1.96,1.90,0.83,2.66,2.66,2.65
20.61,0.70,-1.95,0.70,-1.95,1.95,1.89,0.85,2.65,2.65,2.65
20.81,0.70,-1.93,0.70,-1.94,1.95,1.89,0.88,2.65,2.65,2.63
21.02,0.70,-1.93,0.70,-1.94,1.94,1.88,0.91,2.64,2.64,2.63
21.23,0.70,-1.93,0.70,-1.93,1.94,1.87,0.93,2.63,2.63,2.63
21.44,0.70,-1.93,0.70,-1.93,1.93,1.87,0.96,2.63,2.63,2.63
21.66,0.70,-1.92,0.70,-1.93,1.93,1.86,0.99,2.62,2.62,2.62
21.87,0.70,-1.92,0.70,-1.92,1.92,1.85,1.02,2.62,2.62,2.62
22.09,0.70,-1.92,0.70,-1.92,1.92,1.84,1.05,2.62,2.62,2.62
22.31,0.71,-1.91,0.71,-1.91,1.91,1.83,1.09,2.62,2.62,2.62
22.54,0.72,-1.89,0.71,-1.90,1.89,1.83,1.12,2.61,2.61,2.61
22.76,0.73,-1.89,0.73,-1.89,1.87,1.82,1.16,2.60,2.60,2.62
22.99,0.74,-1.88,0.75,-1.87,1.85,1.81,1.19,2.59,2.60,2.62
23.22,0.78,-1.84,0.78,-1.84,1.82,1.80,1.23,2.60,2.60,2.62
23.45,0.82,-1.80,0.82,-1.80,1.80,1.79,1.26,2.62,2.62,2.61
23.69,0.86,-1.77,0.86,-1.76,1.78,1.78,1.30,2.63,2.64,2.62
23.92,0.91,-1.71,0.90,-1.73,1.76,1.78,1.34,2.67,2.65,2.62
24.16,0.92,-1.72,0.92,-1.72,1.74,1.77,1.38,2.66,2.66,2.64
24.40,0.92,-1.73,0.92,-1.73,1.73,1.76,1.41,2.65,2.65,2.65
24.65,0.92,-1.73,0.92,-1.73,1.72,1.75,1.45,2.64,2.64,2.65
24.89,0.92,-1.73,0.92,-1.73,1.72,1.74,1.49,2.64,2.64,2.65
25.14,0.92,-1.72,0.92,-1.72,1.72,1.73,1.53,2.64,2.64,2.64
25.39,0.92,-1.72,0.92,-1.72,1.72,1.72,1.57,2.64,2.64,2.64
25.65,0.92,-1.73,0.92,-1.72,1.73,1.71,1.61,2.64,2.64,2.65
25.91,0.92,-1.73,0.92,-1.73,1.73,1.70,1.65,2.64,2.64,2.65
26.16,0.92,-1.73,0.92,-1.73,1.72,1.69,1.69,2.64,2.64,2.64
26.43,0.92,-1.72,0.92,-1.73,1.72,1.68,1.73,2.64,2.64,2.64
26.69,0.92,-1.72,0.92,-1.72,1.72,1.67,1.77,2.64,2.64,2.64
26.96,0.92,-1.72,0.92,-1.72,1.72,1.65,1.81,2.64,2.64,2.64
27.23,0.92,-1.71,0.92,-1.71,1.72,1.64,1.84,2.64,2.64,2.63
27.50,0.92,-1.71,0.92,-1.71,1.71,1.63,1.88,2.63,2.63,2.63
27.77,0.92,-1.71,0.92,-1.71,1.71,1.62,1.91,2.63,2.63,2.63
28.05,0.92,-1.71,0.92,-1.71,1.70,1.61,1.94,2.62,2.62,2.63
28.33,0.92,-1.71,0.92,-1.70,1.70,1.60,1.97,2.62,2.62,2.62
28.62,0.92,-1.69,0.92,-1.70,1.70,1.58,2.00,2.61,2.61,2.61
28.90,0.92,-1.69,0.92,-1.69,1.69,1.57,2.02,2.61,2.61,2.61
29.19,0.92,-1.68,0.92,-1.68,1.69,1.56,2.04,2.60,2.60,2.60
29.48,0.92,-1.68,0.92,-1.68,1.68,1.55,2.06,2.60,2.60,2.60
29.78,0.92,-1.67,0.92,-1.67,1.67,1.53,2.07,2.59,2.59,2.59
30.08,0.92,-1.68,0.92,-1.67,1.66,1.52,2.08,2.58,2.58,2.59
30.38,0.92,-1.65,0.92,-1.65,1.65,1.51,2.09,2.57,2.57,2.57
30.68,0.92,-1.64,0.92,-1.64,1.64,1.49,2.10,2.56,2.56,2.56
30.99,0.92,-1.63,0.92,-1.63,1.64,1.48,2.10,2.55,2.55,2.55
31.30,0.92,-1.63,0.92,-1.63,1.62,1.46,2.09,2.54,2.54,2.55
31.61,0.92,-1.62,0.92,-1.62,1.61,1.45,2.09,2.53,2.53,2.54
31.93,0.92,-1.60,0.92,-1.61,1.61,1.44,2.08,2.53,2.53,2.52
32.24,0.92,-1.60,0.92,-1.60,1.60,1.42,2.06,2.52,2.52,2.52
32.57,0.92,-1.59,0.92,-1.59,1.60,1.41,2.04,2.51,2.51,2.51
32.89,0.92,-1.58,0.92,-1.58,1.59,1.39,2.02,2.51,2.51,2.50
33.22,0.92,-1.58,0.92,-1.59,1.59,1.37,2.00,2.51,2.51,2.50
33.55,0.92,-1.59,0.92,-1.59,1.59,1.36,1.97,2.50,2.50,2.51
33.89,0.92,-1.60,0.92,-1.59,1.59,1.34,1.94,2.50,2.50,2.52
34.23,0.92,-1.58,0.92,-1.59,1.59,1.33,1.90,2.50,2.50,2.50
34.57,0.92,-1.58,0.92,-1.58,1.59,1.31,1.87,2.51,2.51,2.50
34.92,0.92,-1.58,0.92,-1.58,1.59,1.29,1.83,2.51,2.51,2.50
35.27,0.92,-1.58,0.92,-1.58,1.59,1.27,1.79,2.50,2.50,2.50
35.62,0.92,-1.56,0.92,-1.57,1.58,1.26,1.74,2.49,2.49,2.48
35.97,0.92,-1.57,0.92,-1.56,1.55,1.24,1.70,2.47,2.47,2.49
36.33,0.93,-1.54,0.92,-1.55,1.52,1.22,1.65,2.45,2.45,2.47
36.70,0.94,-1.52,0.94,-1.52,1.48,1.20,1.61,2.42,2.42,2.46
37.06,0.96,-1.48,0.98,-1.46,1.44,1.18,1.56,2.40,2.41,2.44
37.43,1.04,-1.38,1.04,-1.39,1.38,1.16,1.51,2.42,2.42,2.42
37.81,1.11,-1.30,1.10,-1.31,1.33,1.15,1.46,2.44,2.43,2.40
38.19,1.15,-1.23,1.14,-1.24,1.27,1.13,1.41,2.42,2.41,2.38
38.57,1.15,-1.20,1.15,-1.20,1.22,1.11,1.36,2.37,2.37,2.35
38.95,1.15,-1.17,1.15,-1.17,1.17,1.09,1.31,2.32,2.32,2.32
39.34,1.15,-1.14,1.15,-1.14,1.13,1.06,1.25,2.28,2.28,2.29
39.74,1.15,-1.11,1.15,-1.11,1.10,1.04,1.20,2.25,2.25,2.26
40.14,1.15,-1.08,1.15,-1.08,1.07,1.02,1.15,2.22,2.22,2.23
40.54,1.15,-1.05,1.15,-1.05,1.05,1.00,1.10,2.20,2.20,2.20
40.94,1.15,-1.03,1.15,-1.03,1.03,0.98,1.05,2.18,2.18,2.17
41.35,1.15,-1.01,1.15,-1.01,1.01,0.96,1.00,2.16,2.16,2.16
41.76,1.15,-0.98,1.15,-0.99,0.98,0.93,0.95,2.13,2.13,2.13
42.18,1.15,-0.97,1.15,-0.96,0.96,0.91,0.91,2.11,2.11,2.11
42.60,1.15,-0.94,1.15,-0.94,0.94,0.89,0.86,2.08,2.08,2.09
43.03,1.15,-0.91,1.15,-0.91,0.91,0.86,0.81,2.06,2.06,2.06
43.46,1.15,-0.89,1.15,-0.89,0.89,0.84,0.76,2.04,2.04,2.03
43.90,1.15,-0.86,1.15,-0.86,0.86,0.81,0.72,2.01,2.01,2.01
44.33,1.15,-0.84,1.15,-0.84,0.84,0.79,0.67,1.99,1.99,1.99
44.78,1.15,-0.81,1.15,-0.81,0.81,0.76,0.63,1.96,1.96,1.96
45.23,1.15,-0.79,1.15,-0.79,0.79,0.74,0.58,1.93,1.93,1.94
45.68,1.15,-0.76,1.15,-0.76,0.76,0.71,0.54,1.91,1.91,1.90
46.13,1.15,-0.73,1.15,-0.73,0.73,0.69,0.49,1.88,1.88,1.87
46.60,1.15,-0.70,1.15,-0.70,0.70,0.66,0.45,1.85,1.85,1.85
47.06,1.15,-0.67,1.15,-0.67,0.66,0.63,0.41,1.81,1.81,1.82
47.53,1.15,-0.64,1.15,-0.63,0.63,0.60,0.37,1.78,1.78,1.79
48.01,1.15,-0.59,1.15,-0.59,0.59,0.58,0.32,1.74,1.74,1.74
48.49,1.15,-0.56,1.15,-0.55,0.55,0.55,0.28,1.70,1.70,1.71
48.97,1.15,-0.51,1.15,-0.51,0.51,0.52,0.24,1.66,1.66,1.65
49.46,1.15,-0.47,1.15,-0.47,0.48,0.49,0.20,1.62,1.62,1.62
49.96,1.15,-0.42,1.15,-0.43,0.44,0.46,0.16,1.59,1.59,1.57
50.46,1.15,-0.40,1.15,-0.40,0.40,0.43,0.13,1.55,1.55,1.55
50.96,1.15,-0.37,1.15,-0.37,0.37,0.40,0.09,1.52,1.52,1.52
51.47,1.15,-0.33,1.15,-0.33,0.33,0.36,0.05,1.48,1.48,1.48
51.99,1.15,-0.30,1.15,-0.30,0.29,0.33,0.01,1.44,1.44,1.45
52.51,1.15,-0.26,1.15,-0.26,0.26,0.30,-0.02,1.40,1.40,1.41
53.03,1.15,-0.23,1.15,-0.22,0.22,0.27,-0.06,1.37,1.37,1.38
53.56,1.15,-0.18,1.15,-0.18,0.18,0.23,-0.10,1.32,1.32,1.33
54.10,1.15,-0.13,1.15,-0.13,0.13,0.20,-0.13,1.28,1.28,1.28
54.64,1.15,-0.09,1.15,-0.08,0.09,0.16,-0.17,1.24,1.24,1.23
55.18,1.15,-0.04,1.15,-0.04,0.05,0.13,-0.20,1.20,1.20,1.19
55.74,1.15,-0.00,1.15,-0.01,0.01,0.09,-0.24,1.16,1.16,1.15
56.29,1.15,0.02,1.15,0.03,-0.03,0.06,-0.27,1.12,1.12,1.12
56.86,1.15,0.05,1.15,0.06,-0.06,0.02,-0.30,1.09,1.09,1.10
57.42,1.15,0.10,1.15,0.10,-0.09,-0.02,-0.33,1.06,1.06,1.05
58.00,1.15,0.13,1.15,0.13,-0.12,-0.05,-0.37,1.03,1.03,1.02
58.58,1.15,0.15,1.15,0.15,-0.15,-0.09,-0.40,1.00,1.00,1.00
59.16,1.15,0.17,1.15,0.18,-0.18,-0.13,-0.43,0.96,0.96,0.98
59.76,1.15,0.20,1.15,0.21,-0.22,-0.17,-0.46,0.93,0.93,0.95
60.35,1.15,0.25,1.15,0.25,-0.26,-0.21,-0.49,0.89,0.89,0.89
60.96,1.15,0.30,1.15,0.30,-0.30,-0.25,-0.52,0.85,0.85,0.85
61.57,1.15,0.35,1.15,0.35,-0.35,-0.29,-0.55,0.80,0.80,0.80
62.18,1.15,0.40,1.15,0.40,-0.39,-0.34,-0.58,0.76,0.76,0.74
62.80,1.15,0.45,1.15,0.45,-0.44,-0.38,-0.60,0.71,0.71,0.70
63.43,1.15,0.49,1.15,0.49,-0.49,-0.42,-0.63,0.66,0.66,0.66
64.07,1.15,0.53,1.15,0.53,-0.53,-0.46,-0.66,0.62,0.62,0.62
64.71,1.15,0.58,1.15,0.58,-0.58,-0.51,-0.69,0.57,0.57,0.57
65.35,1.15,0.62,1.15,0.62,-0.62,-0.55,-0.71,0.53,0.53,0.53
66.01,1.15,0.66,1.15,0.66,-0.67,-0.60,-0.74,0.48,0.48,0.49
66.67,1.15,0.70,1.15,0.71,-0.71,-0.64,-0.77,0.44,0.44,0.45
67.33,1.15,0.76,1.15,0.75,-0.75,-0.69,-0.79,0.40,0.40,0.39
68.01,1.15,0.80,1.15,0.80,-0.80,-0.74,-0.82,0.35,0.35,0.35
68.69,1.15,0.84,1.15,0.84,-0.84,-0.79,-0.85,0.31,0.31,0.31
69.37,1.15,0.88,1.15,0.88,-0.89,-0.83,-0.87,0.26,0.26,0.26
70.07,1.15,0.93,1.15,0.93,-0.93,-0.88,-0.90,0.22,0.22,0.22
70.77,1.15,0.97,1.15,0.97,-0.98,-0.93,-0.93,0.17,0.17,0.18
71.48,1.15,1.02,1.15,1.02,-1.02,-0.98,-0.95,0.12,0.12,0.12
72.19,1.15,1.07,1.15,1.07,-1.07,-1.03,-0.98,0.08,0.08,0.08
72.91,1.15,1.12,1.15,1.12,-1.12,-1.08,-1.01,0.03,0.03,0.03
73.64,1.15,1.16,1.15,1.16,-1.16,-1.13,-1.04,-0.01,-0.01,-0.01
74.38,1.15,1.21,1.15,1.21,-1.20,-1.18,-1.07,-0.05,-0.05,-0.06
75.12,1.15,1.25,1.15,1.25,-1.24,-1.23,-1.09,-0.09,-0.09,-0.10
75.87,1.15,1.28,1.15,1.28,-1.28,-1.28,-1.12,-0.13,-0.13,-0.13
76.63,1.15,1.31,1.15,1.31,-1.30,-1.33,-1.16,-0.16,-0.16,-0.16
77.40,1.15,1.34,1.15,1.34,-1.33,-1.37,-1.19,-0.18,-0.18,-0.19
78.17,1.15,1.38,1.15,1.37,-1.36,-1.42,-1.22,-0.21,-0.21,-0.23
78.95,1.15,1.39,1.15,1.40,-1.39,-1.47,-1.25,-0.24,-0.24,-0.25
79.74,1.15,1.43,1.14,1.42,-1.44,-1.52,-1.29,-0.29,-0.30,-0.28
80.54,1.15,1.45,1.13,1.44,-1.49,-1.57,-1.32,-0.35,-0.36,-0.30
81.35,1.15,1.49,1.17,1.51,-1.56,-1.62,-1.36,-0.41,-0.38,-0.34
82.16,1.20,1.55,1.24,1.60,-1.62,-1.67,-1.40,-0.42,-0.38,-0.35
82.98,1.38,1.78,1.32,1.71,-1.69,-1.71,-1.43,-0.31,-0.37,-0.40
83.81,1.38,1.82,1.37,1.81,-1.76,-1.76,-1.47,-0.38,-0.38,-0.44
84.65,1.38,1.85,1.40,1.87,-1.82,-1.81,-1.51,-0.44,-0.42,-0.47
85.50,1.38,1.89,1.38,1.89,-1.88,-1.85,-1.56,-0.50,-0.50,-0.51
86.35,1.38,1.92,1.38,1.92,-1.94,-1.90,-1.60,-0.56,-0.56,-0.54
87.22,1.38,1.96,1.38,1.96,-1.98,-1.94,-1.64,-0.60,-0.60,-0.58
88.09,1.38,2.00,1.38,2.00,-2.01,-1.99,-1.69,-0.64,-0.64,-0.62
88.97,1.38,2.04,1.38,2.04,-2.05,-2.03,-1.74,-0.67,-0.67,-0.66
89.86,1.38,2.08,1.38,2.08,-2.08,-2.08,-1.79,-0.70,-0.70,-0.71
90.76,1.38,2.13,1.38,2.13,-2.12,-2.12,-1.84,-0.74,-0.74,-0.75
91.66,1.38,2.17,1.38,2.17,-2.16,-2.16,-1.89,-0.79,-0.79,-0.79
92.58,1.38,2.21,1.38,2.21,-2.21,-2.20,-1.94,-0.83,-0.83,-0.83
93.51,1.38,2.25,1.38,2.25,-2.25,-2.25,-1.99,-0.87,-0.87,-0.87
94.44,1.38,2.29,1.38,2.29,-2.29,-2.29,-2.05,-0.91,-0.91,-0.91
95.39,1.38,2.33,1.38,2.33,-2.34,-2.33,-2.10,-0.96,-0.96,-0.95
96.34,1.38,2.38,1.38,2.38,-2.38,-2.37,-2.16,-1.00,-1.00,-1.00
97.30,1.38,2.42,1.38,2.42,-2.42,-2.41,-2.22,-1.05,-1.05,-1.04
98.28,1.38,2.47,1.38,2.47,-2.47,-2.45,-2.28,-1.09,-1.09,-1.09
99.26,1.38,2.52,1.38,2.52,-2.51,-2.49,-2.33,-1.13,-1.13,-1.15
100.25,1.38,2.56,1.38,2.56,-2.55,-2.53,-2.40,-1.18,-1.18,-1.18
101.25,1.38,2.59,1.38,2.60,-2.60,-2.57,-2.46,-1.22,-1.22,-1.21
102.27,1.38,2.63,1.38,2.63,-2.63,-2.61,-2.52,-1.26,-1.26,-1.25
103.29,1.38,2.68,1.38,2.67,-2.67,-2.65,-2.58,-1.29,-1.29,-1.30
104.32,1.38,2.70,1.38,2.71,-2.71,-2.68,-2.64,-1.33,-1.33,-1.33
105.37,1.38,2.74,1.38,2.74,-2.74,-2.72,-2.70,-1.36,-1.36,-1.36
106.42,1.38,2.77,1.38,2.77,-2.77,-2.76,-2.77,-1.39,-1.39,-1.39
107.48,1.38,2.81,1.38,2.80,-2.80,-2.80,-2.83,-1.42,-1.42,-1.44
108.56,1.38,2.83,1.38,2.83,-2.83,-2.83,-2.89,-1.45,-1.45,-1.45
109.64,1.38,2.86,1.38,2.86,-2.86,-2.87,-2.95,-1.48,-1.48,-1.48
110.74,1.38,2.89,1.38,2.89,-2.89,-2.90,-3.01,-1.51,-1.51,-1.51
111.85,1.38,2.92,1.38,2.92,-2.92,-2.94,-3.06,-1.54,-1.54,-1.54
112.97,1.38,2.94,1.38,2.95,-2.95,-2.97,-3.12,-1.58,-1.58,-1.56
114.10,1.38,2.98,1.38,2.98,-2.99,-3.01,-3.17,-1.61,-1.61,-1.60
115.24,1.38,3.02,1.38,3.02,-3.03,-3.04,-3.22,-1.65,-1.65,-1.64
116.39,1.38,3.08,1.38,3.07,-3.07,-3.07,-3.27,-1.69,-1.69,-1.70
117.55,1.38,3.11,1.38,3.12,-3.11,-3.10,-3.32,-1.74,-1.74,-1.73
118.73,1.38,3.16,1.38,3.15,-3.16,-3.13,-3.37,-1.78,-1.78,-1.78
119.92,1.38,3.19,1.38,3.19,-3.20,-3.16,-3.40,-1.82,-1.82,-1.81
121.12,1.38,3.21,1.38,3.22,-3.22,-3.19,-3.44,-1.84,-1.84,-1.83
122.33,1.38,3.26,1.39,3.27,-3.24,-3.22,-3.48,-1.86,-1.85,-1.89
123.55,1.38,3.30,1.38,3.29,-3.25,-3.25,-3.51,-1.87,-1.88,-1.92
124.79,1.38,3.34,1.33,3.29,-3.26,-3.27,-3.54,-1.88,-1.93,-1.96
126.03,1.23,3.24,1.26,3.27,-3.27,-3.30,-3.56,-2.04,-2.01,-2.01
127.29,1.18,3.24,1.19,3.25,-3.28,-3.33,-3.58,-2.10,-2.09,-2.06
128.57,1.15,3.25,1.15,3.24,-3.29,-3.35,-3.60,-2.15,-2.15,-2.10
129.85,1.15,3.29,1.15,3.29,-3.31,-3.38,-3.61,-2.16,-2.17,-2.14
131.15,1.15,3.33,1.15,3.33,-3.33,-3.40,-3.63,-2.18,-2.19,-2.18
132.46,1.15,3.38,1.15,3.38,-3.36,-3.42,-3.64,-2.21,-2.21,-2.23
133.79,1.15,3.42,1.15,3.42,-3.40,-3.45,-3.64,-2.25,-2.25,-2.27
135.12,1.15,3.45,1.15,3.45,-3.44,-3.47,-3.65,-2.29,-2.29,-2.30
136.48,1.15,3.48,1.15,3.48,-3.48,-3.50,-3.65,-2.33,-2.33,-2.33
137.84,1.15,3.51,1.15,3.52,-3.52,-3.52,-3.65,-2.37,-2.37,-2.36
139.22,1.15,3.56,1.15,3.55,-3.55,-3.55,-3.65,-2.41,-2.41,-2.41
140.61,1.15,3.59,1.15,3.59,-3.59,-3.57,-3.65,-2.44,-2.44,-2.44
142.02,1.15,3.62,1.15,3.62,-3.62,-3.60,-3.64,-2.47,-2.47,-2.47
143.44,1.15,3.65,1.15,3.65,-3.65,-3.63,-3.64,-2.50,-2.50,-2.50
144.87,1.15,3.68,1.15,3.68,-3.68,-3.66,-3.64,-2.53,-2.53,-2.53
146.32,1.15,3.71,1.15,3.71,-3.71,-3.69,-3.63,-2.56,-2.56,-2.56
147.78,1.15,3.74,1.15,3.74,-3.74,-3.72,-3.63,-2.59,-2.59,-2.59
149.26,1.15,3.77,1.15,3.77,-3.77,-3.75,-3.63,-2.62,-2.62,-2.62
150.75,1.15,3.81,1.15,3.80,-3.80,-3.79,-3.62,-2.65,-2.65,-2.66
152.26,1.15,3.83,1.15,3.83,-3.83,-3.82,-3.62,-2.68,-2.68,-2.68
153.78,1.15,3.87,1.15,3.87,-3.86,-3.86,-3.62,-2.72,-2.72,-2.72
155.32,1.15,3.89,1.15,3.90,-3.90,-3.90,-3.63,-2.75,-2.75,-2.74
156.88,1.15,3.93,1.15,3.93,-3.93,-3.94,-3.63,-2.78,-2.78,-2.78
158.44,1.15,3.96,1.15,3.96,-3.96,-3.98,-3.63,-2.81,-2.81,-2.81
160.03,1.15,3.99,1.15,3.99,-3.99,-4.02,-3.64,-2.85,-2.85,-2.84
161.63,1.15,4.02,1.15,4.03,-4.03,-4.06,-3.65,-2.88,-2.88,-2.87
163.24,1.15,4.06,1.15,4.06,-4.06,-4.10,-3.66,-2.91,-2.91,-2.92
164.88,1.15,4.09,1.15,4.10,-4.09,-4.14,-3.68,-2.94,-2.94,-2.95
166.53,1.15,4.13,1.15,4.13,-4.12,-4.18,-3.70,-2.98,-2.98,-2.98
168.19,1.15,4.15,1.15,4.16,-4.16,-4.22,-3.72,-3.01,-3.01,-3.00
169.87,1.15,4.19,1.15,4.19,-4.19,-4.26,-3.74,-3.04,-3.04,-3.04
171.57,1.15,4.23,1.15,4.22,-4.23,-4.30,-3.76,-3.08,-3.08,-3.08
173.29,1.15,4.26,1.15,4.26,-4.26,-4.33,-3.79,-3.12,-3.12,-3.11
175.02,1.15,4.30,1.15,4.30,-4.30,-4.37,-3.82,-3.15,-3.15,-3.15
176.77,1.15,4.34,1.15,4.34,-4.34,-4.41,-3.86,-3.19,-3.19,-3.19
178.54,1.15,4.38,1.15,4.38,-4.38,-4.44,-3.90,-3.23,-3.23,-3.23
180.32,1.15,4.43,1.15,4.42,-4.42,-4.48,-3.94,-3.27,-3.27,-3.28
182.13,1.15,4.46,1.15,4.47,-4.46,-4.51,-3.98,-3.31,-3.31,-3.31
183.95,1.15,4.50,1.15,4.50,-4.50,-4.54,-4.03,-3.35,-3.35,-3.36
185.79,1.15,4.55,1.15,4.54,-4.54,-4.57,-4.08,-3.40,-3.40,-3.40
187.65,1.15,4.58,1.15,4.58,-4.58,-4.60,-4.13,-3.43,-3.43,-3.43
189.52,1.15,4.63,1.15,4.62,-4.62,-4.63,-4.18,-3.47,-3.47,-3.48
191.42,1.15,4.66,1.15,4.66,-4.66,-4.66,-4.24,-3.51,-3.51,-3.51
193.33,1.15,4.69,1.15,4.70,-4.70,-4.68,-4.30,-3.55,-3.55,-3.55
195.27,1.15,4.73,1.15,4.73,-4.73,-4.71,-4.36,-3.58,-3.58,-3.58
197.22,1.15,4.77,1.15,4.76,-4.76,-4.73,-4.43,-3.61,-3.61,-3.62
199.19,1.15,4.79,1.15,4.79,-4.79,-4.76,-4.49,-3.64,-3.64,-3.64
201.18,1.15,4.82,1.15,4.82,-4.82,-4.78,-4.56,-3.67,-3.67,-3.68
203.19,1.15,4.85,1.15,4.85,-4.85,-4.80,-4.63,-3.70,-3.70,-3.70
205.23,1.15,4.88,1.15,4.87,-4.88,-4.82,-4.70,-3.73,-3.73,-3.73
207.28,1.15,4.89,1.15,4.90,-4.90,-4.84,-4.77,-3.76,-3.76,-3.74
209.35,1.15,4.93,1.15,4.93,-4.94,-4.85,-4.84,-3.79,-3.79,-3.78
211.44,1.15,4.96,1.15,4.96,-4.97,-4.87,-4.91,-3.82,-3.82,-3.81
213.56,1.15,4.98,1.15,4.98,-5.00,-4.89,-4.99,-3.85,-3.85,-3.83
215.69,1.15,5.01,1.15,5.01,-5.01,-4.90,-5.06,-3.86,-3.86,-3.86
217.85,1.15,5.03,1.16,5.05,-5.02,-4.91,-5.13,-3.87,-3.86,-3.88
220.03,1.15,5.07,1.15,5.07,-5.02,-4.93,-5.20,-3.87,-3.86,-3.92
222.23,1.15,5.09,1.11,5.05,-5.01,-4.94,-5.26,-3.86,-3.90,-3.95
224.45,1.04,5.01,1.04,5.01,-5.00,-4.95,-5.33,-3.96,-3.96,-3.97
226.70,0.93,4.93,0.97,4.96,-4.99,-4.96,-5.39,-4.06,-4.03,-4.00
228.96,0.92,4.93,0.92,4.93,-4.98,-4.97,-5.44,-4.06,-4.07,-4.01
231.25,0.92,4.95,0.91,4.94,-4.98,-4.98,-5.50,-4.06,-4.07,-4.03
233.57,0.92,4.98,0.92,4.97,-4.98,-4.99,-5.54,-4.06,-4.06,-4.06
235.90,0.92,5.00,0.92,5.00,-4.98,-5.00,-5.59,-4.06,-4.06,-4.08
238.26,0.92,5.02,0.92,5.01,-5.00,-5.01,-5.62,-4.08,-4.08,-4.10
240.64,0.92,5.03,0.92,5.03,-5.02,-5.01,-5.65,-4.10,-4.10,-4.11
243.05,0.92,5.04,0.92,5.05,-5.04,-5.02,-5.68,-4.12,-4.12,-4.13
245.48,0.92,5.06,0.92,5.06,-5.06,-5.02,-5.69,-4.14,-4.14,-4.14
247.93,0.92,5.08,0.92,5.07,-5.07,-5.03,-5.71,-4.15,-4.15,-4.16
250.41,0.92,5.08,0.92,5.08,-5.08,-5.03,-5.71,-4.17,-4.17,-4.16
252.92,0.92,5.09,0.92,5.09,-5.09,-5.03,-5.71,-4.18,-4.18,-4.17
255.45,0.92,5.10,0.92,5.10,-5.10,-5.04,-5.69,-4.19,-4.19,-4.19
258.00,0.92,5.11,0.92,5.11,-5.11,-5.04,-5.68,-4.20,-4.20,-4.19
260.58,0.92,5.13,0.92,5.13,-5.12,-5.04,-5.65,-4.20,-4.20,-4.21
263.19,0.92,5.13,0.92,5.13,-5.13,-5.04,-5.63,-4.21,-4.21,-4.22
265.82,0.92,5.14,0.92,5.14,-5.14,-5.04,-5.59,-4.22,-4.22,-4.22
268.48,0.92,5.15,0.92,5.15,-5.15,-5.04,-5.55,-4.23,-4.23,-4.23
271.16,0.92,5.15,0.92,5.15,-5.16,-5.04,-5.50,-4.25,-4.25,-4.23
273.87,0.92,5.16,0.92,5.16,-5.17,-5.04,-5.45,-4.26,-4.26,-4.24
276.61,0.92,5.16,0.92,5.17,-5.18,-5.04,-5.40,-4.26,-4.26,-4.25
279.38,0.92,5.18,0.92,5.17,-5.17,-5.04,-5.34,-4.25,-4.25,-4.26
282.17,0.92,5.17,0.93,5.18,-5.16,-5.03,-5.27,-4.24,-4.23,-4.26
284.99,0.92,5.17,0.93,5.18,-5.13,-5.03,-5.21,-4.21,-4.20,-4.25
287.84,0.92,5.16,0.89,5.14,-5.10,-5.03,-5.14,-4.18,-4.21,-4.25
290.72,0.85,5.10,0.83,5.07,-5.07,-5.02,-5.08,-4.22,-4.24,-4.25
293.63,0.72,4.96,0.76,5.00,-5.03,-5.02,-5.01,-4.31,-4.27,-4.24
296.57,0.70,4.94,0.70,4.95,-5.00,-5.02,-4.94,-4.30,-4.29,-4.24
299.53,0.70,4.94,0.69,4.93,-4.97,-5.01,-4.87,-4.27,-4.28,-4.24
302.53,0.70,4.93,0.70,4.94,-4.94,-5.00,-4.80,-4.24,-4.24,-4.24
305.55,0.70,4.94,0.70,4.94,-4.92,-5.00,-4.73,-4.22,-4.22,-4.24
308.61,0.70,4.93,0.70,4.93,-4.92,-4.99,-4.67,-4.22,-4.22,-4.23
311.69,0.70,4.93,0.70,4.93,-4.92,-4.98,-4.60,-4.22,-4.22,-4.23
314.81,0.70,4.92,0.70,4.92,-4.92,-4.97,-4.54,-4.22,-4.22,-4.22
317.96,0.70,4.92,0.70,4.92,-4.92,-4.96,-4.47,-4.22,-4.22,-4.22
321.14,0.70,4.92,0.70,4.92,-4.92,-4.95,-4.41,-4.22,-4.22,-4.22
324.35,0.70,4.92,0.70,4.92,-4.93,-4.94,-4.36,-4.23,-4.23,-4.22
327.59,0.70,4.91,0.70,4.92,-4.93,-4.93,-4.30,-4.23,-4.23,-4.21
330.87,0.70,4.91,0.70,4.91,-4.92,-4.92,-4.25,-4.23,-4.23,-4.22
334.18,0.70,4.92,0.70,4.91,-4.91,-4.91,-4.20,-4.21,-4.21,-4.22
337.52,0.70,4.90,0.70,4.91,-4.89,-4.89,-4.15,-4.19,-4.18,-4.20
340.90,0.70,4.89,0.71,4.90,-4.86,-4.88,-4.11,-4.16,-4.15,-4.19
344.30,0.70,4.88,0.68,4.86,-4.82,-4.86,-4.06,-4.12,-4.14,-4.19
347.75,0.64,4.81,0.61,4.79,-4.77,-4.85,-4.03,-4.14,-4.16,-4.17
351.23,0.51,4.68,0.54,4.71,-4.73,-4.83,-3.99,-4.22,-4.19,-4.17
354.74,0.47,4.62,0.48,4.64,-4.69,-4.81,-3.96,-4.22,-4.21,-4.15
358.28,0.47,4.62,0.46,4.61,-4.65,-4.79,-3.93,-4.18,-4.19,-4.16
361.87,0.47,4.62,0.46,4.61,-4.62,-4.77,-3.90,-4.15,-4.16,-4.15
365.49,0.47,4.61,0.47,4.61,-4.60,-4.75,-3.88,-4.13,-4.13,-4.14
369.14,0.47,4.60,0.47,4.60,-4.59,-4.73,-3.86,-4.12,-4.12,-4.13
372.83,0.47,4.59,0.47,4.60,-4.59,-4.70,-3.84,-4.12,-4.12,-4.12
376.56,0.47,4.60,0.47,4.60,-4.59,-4.68,-3.83,-4.12,-4.12,-4.13
380.33,0.47,4.59,0.47,4.59,-4.59,-4.65,-3.82,-4.13,-4.13,-4.13
384.13,0.47,4.59,0.47,4.59,-4.60,-4.63,-3.81,-4.13,-4.13,-4.12
387.97,0.47,4.58,0.47,4.58,-4.60,-4.60,-3.80,-4.13,-4.13,-4.11
391.85,0.47,4.58,0.47,4.58,-4.59,-4.57,-3.80,-4.13,-4.13,-4.11
395.77,0.47,4.58,0.47,4.58,-4.58,-4.54,-3.79,-4.11,-4.11,-4.11
399.73,0.47,4.58,0.48,4.59,-4.55,-4.51,-3.79,-4.08,-4.07,-4.11
403.72,0.47,4.56,0.47,4.57,-4.52,-4.48,-3.80,-4.05,-4.05,-4.10
407.76,0.47,4.56,0.42,4.51,-4.48,-4.44,-3.80,-4.01,-4.06,-4.10
411.84,0.33,4.42,0.35,4.43,-4.44,-4.41,-3.81,-4.11,-4.09,-4.09
415.96,0.25,4.32,0.28,4.36,-4.39,-4.37,-3.81,-4.15,-4.12,-4.07
420.12,0.24,4.31,0.23,4.30,-4.36,-4.34,-3.82,-4.12,-4.13,-4.07
424.32,0.24,4.30,0.23,4.29,-4.33,-4.30,-3.83,-4.09,-4.10,-4.06
428.56,0.24,4.28,0.24,4.29,-4.30,-4.27,-3.84,-4.06,-4.06,-4.04
432.85,0.24,4.27,0.24,4.28,-4.27,-4.23,-3.85,-4.04,-4.04,-4.03
437.18,0.24,4.27,0.24,4.27,-4.25,-4.19,-3.86,-4.01,-4.01,-4.03
441.55,0.24,4.25,0.26,4.27,-4.22,-4.16,-3.87,-3.98,-3.96,-4.02
445.96,0.24,4.24,0.23,4.24,-4.19,-4.12,-3.88,-3.95,-3.95,-4.01
450.42,0.24,4.23,0.18,4.17,-4.15,-4.08,-3.88,-3.91,-3.98,-3.99
454.93,0.06,4.04,0.10,4.08,-4.11,-4.04,-3.89,-4.05,-4.01,-3.98
459.48,0.01,3.98,0.03,4.00,-4.06,-4.00,-3.90,-4.05,-4.02,-3.97
464.07,0.01,3.96,-0.01,3.95,-4.00,-3.96,-3.90,-3.99,-4.00,-3.95
468.71,0.01,3.95,0.02,3.96,-3.93,-3.92,-3.90,-3.93,-3.91,-3.94
473.40,0.01,3.93,0.00,3.93,-3.87,-3.88,-3.90,-3.86,-3.87,-3.92
478.13,0.01,3.92,-0.05,3.86,-3.82,-3.84,-3.90,-3.81,-3.87,-3.91
482.91,-0.17,3.73,-0.13,3.77,-3.77,-3.80,-3.89,-3.94,-3.89,-3.90
487.74,-0.22,3.66,-0.20,3.69,-3.72,-3.76,-3.88,-3.94,-3.92,-3.88
492.62,-0.22,3.64,-0.24,3.63,-3.68,-3.72,-3.87,-3.91,-3.92,-3.86
497.55,-0.22,3.62,-0.23,3.62,-3.65,-3.68,-3.85,-3.87,-3.88,-3.84
502.52,-0.22,3.61,-0.22,3.61,-3.61,-3.64,-3.83,-3.84,-3.84,-3.84
