frequency,raw,error,smoothed,error_smoothed,equalization,parametric_eq,fixed_band_eq,equalized_raw,equalized_smoothed,target
20.00,-14.60,-15.66,-14.60,-15.66,6.00,6.69,2.98,-8.60,-8.60,1.06
20.20,-14.48,-15.55,-14.48,-15.55,6.00,6.67,3.06,-8.48,-8.48,1.07
20.40,-14.36,-15.44,-14.36,-15.44,6.00,6.66,3.15,-8.36,-8.36,1.08
20.61,-14.24,-15.32,-14.24,-15.32,6.00,6.65,3.24,-8.24,-8.24,1.08
20.81,-14.12,-15.21,-14.12,-15.21,6.00,6.64,3.33,-8.12,-8.12,1.09
21.02,-14.00,-15.09,-14.00,-15.09,6.00,6.62,3.43,-8.00,-8.00,1.09
21.23,-13.87,-14.97,-13.87,-14.97,6.00,6.61,3.52,-7.87,-7.87,1.10
21.44,-13.74,-14.84,-13.74,-14.84,6.00,6.59,3.62,-7.74,-7.74,1.10
21.66,-13.61,-14.71,-13.61,-14.71,6.00,6.58,3.73,-7.61,-7.61,1.10
21.87,-13.48,-14.57,-13.47,-14.57,6.00,6.56,3.83,-7.48,-7.47,1.10
22.09,-13.32,-14.42,-13.31,-14.41,6.00,6.55,3.94,-7.32,-7.31,1.11
22.31,-13.11,-14.21,-13.11,-14.21,6.00,6.53,4.05,-7.11,-7.11,1.11
22.54,-12.90,-14.00,-12.89,-13.99,6.00,6.52,4.17,-6.90,-6.89,1.10
22.76,-12.68,-13.76,-12.68,-13.77,6.00,6.50,4.29,-6.68,-6.68,1.09
22.99,-12.47,-13.55,-12.50,-13.58,6.00,6.49,4.41,-6.47,-6.50,1.09
23.22,-12.36,-13.44,-12.36,-13.44,6.00,6.47,4.53,-6.36,-6.36,1.09
23.45,-12.26,-13.33,-12.25,-13.33,6.00,6.45,4.66,-6.26,-6.25,1.08
23.69,-12.16,-13.23,-12.16,-13.23,6.00,6.44,4.79,-6.16,-6.16,1.07
23.92,-12.05,-13.12,-12.05,-13.12,6.00,6.42,4.92,-6.05,-6.05,1.07
24.16,-11.94,-13.01,-11.94,-13.01,6.00,6.40,5.05,-5.94,-5.94,1.07
24.40,-11.82,-12.89,-11.82,-12.89,6.00,6.38,5.19,-5.82,-5.82,1.07
24.65,-11.69,-12.76,-11.69,-12.77,6.00,6.36,5.33,-5.69,-5.69,1.07
24.89,-11.57,-12.64,-11.56,-12.63,6.00,6.34,5.47,-5.57,-5.56,1.07
25.14,-11.43,-12.50,-11.42,-12.49,6.00,6.32,5.61,-5.43,-5.42,1.07
25.39,-11.27,-12.33,-11.27,-12.34,6.00,6.30,5.75,-5.27,-5.27,1.06
25.65,-11.12,-12.18,-11.12,-12.18,6.00,6.28,5.90,-5.12,-5.12,1.06
25.91,-10.96,-12.02,-10.96,-12.02,6.00,6.26,6.04,-4.96,-4.96,1.06
26.16,-10.80,-11.85,-10.80,-11.86,6.00,6.24,6.19,-4.80,-4.80,1.06
26.43,-10.65,-11.71,-10.65,-11.71,6.00,6.22,6.33,-4.65,-4.65,1.06
26.69,-10.50,-11.56,-10.50,-11.56,6.00,6.20,6.48,-4.50,-4.50,1.06
26.96,-10.35,-11.41,-10.35,-11.41,6.00,6.17,6.62,-4.35,-4.35,1.06
27.23,-10.20,-11.26,-10.20,-11.25,6.00,6.15,6.76,-4.20,-4.20,1.06
27.50,-10.04,-11.09,-10.04,-11.09,6.00,6.13,6.89,-4.04,-4.04,1.05
27.77,-9.88,-10.93,-9.88,-10.93,6.00,6.10,7.02,-3.88,-3.88,1.05
28.05,-9.72,-10.77,-9.72,-10.77,6.00,6.08,7.15,-3.72,-3.72,1.05
28.33,-9.57,-10.62,-9.56,-10.62,6.00,6.05,7.26,-3.57,-3.56,1.05
28.62,-9.41,-10.46,-9.41,-10.46,6.00,6.03,7.38,-3.41,-3.41,1.05
28.90,-9.25,-10.31,-9.25,-10.31,6.00,6.00,7.47,-3.25,-3.25,1.06
29.19,-9.10,-10.16,-9.10,-10.16,6.00,5.97,7.57,-3.10,-3.10,1.06
29.48,-8.96,-10.01,-8.95,-10.01,6.00,5.95,7.65,-2.96,-2.95,1.06
29.78,-8.81,-9.88,-8.81,-9.87,6.00,5.92,7.72,-2.81,-2.81,1.07
30.08,-8.67,-9.74,-8.67,-9.74,6.00,5.89,7.78,-2.67,-2.67,1.07
30.38,-8.54,-9.60,-8.54,-9.60,6.00,5.86,7.82,-2.54,-2.54,1.06
30.68,-8.41,-9.47,-8.41,-9.47,6.00,5.83,7.85,-2.41,-2.41,1.06
30.99,-8.28,-9.34,-8.28,-9.34,6.00,5.80,7.87,-2.28,-2.28,1.06
31.30,-8.15,-9.21,-8.15,-9.21,6.00,5.77,7.87,-2.15,-2.15,1.06
31.61,-8.02,-9.08,-8.02,-9.08,6.00,5.74,7.86,-2.02,-2.02,1.06
31.93,-7.89,-8.95,-7.89,-8.94,6.00,5.71,7.82,-1.89,-1.89,1.06
32.24,-7.76,-8.80,-7.76,-8.81,6.00,5.68,7.79,-1.76,-1.76,1.05
32.57,-7.64,-8.68,-7.63,-8.68,6.00,5.64,7.73,-1.64,-1.63,1.04
32.89,-7.51,-8.55,-7.51,-8.55,6.00,5.61,7.66,-1.51,-1.51,1.04
33.22,-7.38,-8.41,-7.38,-8.41,6.00,5.57,7.58,-1.38,-1.38,1.03
33.55,-7.26,-8.29,-7.25,-8.28,6.00,5.54,7.49,-1.26,-1.25,1.03
33.89,-7.13,-8.15,-7.13,-8.15,6.00,5.50,7.38,-1.13,-1.13,1.02
34.23,-7.01,-8.02,-7.00,-8.02,6.00,5.46,7.27,-1.01,-1.00,1.01
34.57,-6.88,-7.89,-6.88,-7.89,6.00,5.43,7.15,-0.88,-0.88,1.01
34.92,-6.76,-7.77,-6.76,-7.77,6.00,5.39,7.02,-0.76,-0.76,1.01
35.27,-6.65,-7.66,-6.66,-7.67,6.00,5.35,6.88,-0.65,-0.66,1.01
35.62,-6.54,-7.55,-6.55,-7.55,6.00,5.31,6.75,-0.54,-0.55,1.01
35.97,-6.44,-7.44,-6.40,-7.41,6.00,5.27,6.60,-0.44,-0.40,1.00
36.33,-6.22,-7.22,-6.21,-7.21,6.00,5.23,6.45,-0.22,-0.21,1.00
36.70,-6.00,-7.00,-6.01,-7.01,6.00,5.18,6.30,-0.00,-0.01,1.00
37.06,-5.79,-6.78,-5.81,-6.81,6.01,5.14,6.15,0.22,0.19,1.00
37.43,-5.67,-6.66,-5.66,-6.66,6.01,5.10,6.00,0.35,0.35,0.99
37.81,-5.55,-6.55,-5.54,-6.54,6.02,5.05,5.84,0.47,0.48,1.00
38.19,-5.43,-6.43,-5.42,-6.42,6.02,5.00,5.69,0.59,0.60,1.00
38.57,-5.30,-6.29,-5.30,-6.30,6.01,4.96,5.54,0.71,0.71,1.00
38.95,-5.17,-6.17,-5.17,-6.17,5.99,4.91,5.38,0.82,0.81,1.00
39.34,-5.05,-6.05,-5.05,-6.05,5.94,4.86,5.23,0.89,0.89,1.00
39.74,-4.93,-5.92,-4.93,-5.92,5.87,4.81,5.08,0.94,0.94,1.00
40.14,-4.81,-5.80,-4.81,-5.80,5.78,4.76,4.94,0.97,0.97,0.99
40.54,-4.68,-5.67,-4.68,-5.67,5.67,4.71,4.79,0.99,0.99,0.99
40.94,-4.56,-5.54,-4.55,-5.53,5.54,4.65,4.65,0.99,0.99,0.98
41.35,-4.41,-5.39,-4.41,-5.38,5.40,4.60,4.51,1.00,1.00,0.98
41.76,-4.26,-5.22,-4.26,-5.23,5.25,4.54,4.37,1.00,0.99,0.97
42.18,-4.12,-5.08,-4.12,-5.08,5.10,4.49,4.23,0.98,0.98,0.96
42.60,-3.99,-4.95,-3.99,-4.94,4.94,4.43,4.10,0.96,0.96,0.96
43.03,-3.86,-4.81,-3.86,-4.81,4.80,4.37,3.97,0.94,0.94,0.95
43.46,-3.73,-4.68,-3.73,-4.67,4.66,4.31,3.84,0.93,0.93,0.95
43.90,-3.60,-4.53,-3.59,-4.53,4.53,4.25,3.71,0.93,0.94,0.93
44.33,-3.46,-4.39,-3.45,-4.38,4.41,4.19,3.59,0.95,0.95,0.93
44.78,-3.32,-4.24,-3.33,-4.26,4.29,4.12,3.47,0.97,0.96,0.92
45.23,-3.23,-4.15,-3.24,-4.16,4.18,4.06,3.35,0.95,0.94,0.92
45.68,-3.18,-4.09,-3.17,-4.08,4.07,3.99,3.24,0.89,0.90,0.91
46.13,-3.11,-4.02,-3.09,-4.00,3.97,3.93,3.13,0.86,0.87,0.92
46.60,-2.99,-3.90,-3.00,-3.91,3.87,3.86,3.02,0.88,0.87,0.91
47.06,-2.88,-3.79,-2.88,-3.79,3.79,3.79,2.91,0.91,0.91,0.91
47.53,-2.77,-3.69,-2.77,-3.68,3.71,3.72,2.81,0.94,0.94,0.92
48.01,-2.66,-3.58,-2.67,-3.59,3.64,3.65,2.71,0.98,0.97,0.92
48.49,-2.60,-3.52,-2.59,-3.52,3.57,3.57,2.61,0.97,0.97,0.92
48.97,-2.54,-3.47,-2.55,-3.48,3.49,3.50,2.51,0.95,0.94,0.93
49.46,-2.52,-3.45,-2.52,-3.46,3.42,3.42,2.41,0.90,0.90,0.93
49.96,-2.50,-3.44,-2.46,-3.40,3.35,3.34,2.32,0.86,0.89,0.94
50.46,-2.38,-3.32,-2.38,-3.32,3.29,3.26,2.23,0.91,0.91,0.94
50.96,-2.24,-3.19,-2.26,-3.21,3.22,3.18,2.14,0.98,0.96,0.96
51.47,-2.14,-3.10,-2.14,-3.09,3.13,3.10,2.05,1.00,1.00,0.96
51.99,-2.04,-3.00,-2.05,-3.02,3.04,3.02,1.97,1.00,0.99,0.96
52.51,-1.98,-2.94,-1.98,-2.94,2.93,2.93,1.89,0.96,0.95,0.96
53.03,-1.92,-2.88,-1.89,-2.85,2.82,2.84,1.80,0.90,0.93,0.96
53.56,-1.77,-2.73,-1.77,-2.74,2.71,2.76,1.72,0.94,0.93,0.96
54.10,-1.62,-2.59,-1.63,-2.60,2.59,2.67,1.65,0.97,0.96,0.97
54.64,-1.48,-2.45,-1.48,-2.45,2.47,2.58,1.57,0.99,0.99,0.97
55.18,-1.35,-2.32,-1.36,-2.33,2.35,2.48,1.49,1.00,0.99,0.97
55.74,-1.25,-2.21,-1.24,-2.20,2.21,2.39,1.42,0.96,0.97,0.96
56.29,-1.13,-2.09,-1.12,-2.08,2.07,2.30,1.35,0.94,0.95,0.96
56.86,-0.99,-1.95,-1.00,-1.95,1.93,2.20,1.28,0.94,0.93,0.96
57.42,-0.87,-1.81,-0.87,-1.82,1.80,2.10,1.21,0.93,0.92,0.94
58.00,-0.76,-1.69,-0.73,-1.66,1.67,2.00,1.14,0.91,0.94,0.93
58.58,-0.59,-1.51,-0.60,-1.52,1.55,1.90,1.07,0.96,0.95,0.92
59.16,-0.45,-1.35,-0.48,-1.38,1.42,1.80,1.01,0.97,0.95,0.90
59.76,-0.39,-1.28,-0.38,-1.27,1.29,1.70,0.94,0.90,0.91,0.89
60.35,-0.32,-1.18,-0.32,-1.18,1.15,1.59,0.88,0.83,0.84,0.87
60.96,-0.25,-1.09,-0.25,-1.09,1.02,1.49,0.81,0.77,0.77,0.84
61.57,-0.15,-0.97,-0.13,-0.94,0.89,1.38,0.75,0.74,0.76,0.82
62.18,-0.01,-0.79,0.02,-0.76,0.76,1.27,0.69,0.75,0.79,0.78
62.80,0.21,-0.53,0.15,-0.60,0.64,1.16,0.63,0.86,0.79,0.74
63.43,0.25,-0.45,0.24,-0.46,0.53,1.05,0.57,0.78,0.77,0.70
64.07,0.23,-0.43,0.29,-0.37,0.43,0.94,0.51,0.66,0.71,0.66
64.71,0.31,-0.30,0.28,-0.33,0.33,0.83,0.46,0.64,0.61,0.61
65.35,0.33,-0.24,0.31,-0.27,0.24,0.71,0.40,0.57,0.55,0.58
66.01,0.29,-0.25,0.35,-0.19,0.17,0.60,0.34,0.46,0.52,0.54
66.67,0.40,-0.10,0.38,-0.12,0.10,0.48,0.29,0.50,0.47,0.50
67.33,0.45,-0.02,0.42,-0.04,0.03,0.37,0.23,0.48,0.45,0.47
68.01,0.45,0.02,0.48,0.05,-0.05,0.25,0.17,0.40,0.43,0.43
68.69,0.53,0.13,0.53,0.13,-0.13,0.14,0.12,0.40,0.40,0.40
69.37,0.59,0.23,0.58,0.22,-0.21,0.02,0.06,0.38,0.37,0.37
70.07,0.65,0.32,0.64,0.30,-0.28,-0.10,0.01,0.37,0.35,0.33
70.77,0.66,0.36,0.69,0.39,-0.35,-0.22,-0.05,0.31,0.34,0.30
71.48,0.73,0.45,0.73,0.45,-0.43,-0.33,-0.10,0.30,0.30,0.28
72.19,0.80,0.56,0.76,0.51,-0.51,-0.45,-0.16,0.29,0.25,0.25
72.91,0.76,0.55,0.78,0.57,-0.60,-0.57,-0.21,0.16,0.18,0.21
73.64,0.80,0.62,0.82,0.64,-0.70,-0.68,-0.27,0.10,0.13,0.18
74.38,0.89,0.75,0.90,0.76,-0.81,-0.80,-0.32,0.08,0.09,0.14
75.12,1.03,0.93,1.02,0.91,-0.92,-0.91,-0.38,0.11,0.09,0.11
75.87,1.14,1.08,1.13,1.07,-1.05,-1.03,-0.44,0.09,0.08,0.06
76.63,1.23,1.21,1.23,1.21,-1.18,-1.14,-0.49,0.05,0.05,0.02
77.40,1.31,1.33,1.31,1.33,-1.32,-1.25,-0.55,-0.01,-0.01,-0.02
78.17,1.38,1.44,1.39,1.45,-1.44,-1.36,-0.61,-0.06,-0.05,-0.06
78.95,1.46,1.57,1.46,1.57,-1.56,-1.47,-0.67,-0.10,-0.10,-0.11
79.74,1.53,1.68,1.52,1.67,-1.66,-1.57,-0.73,-0.13,-0.14,-0.15
80.54,1.56,1.76,1.57,1.77,-1.75,-1.68,-0.79,-0.19,-0.18,-0.20
81.35,1.59,1.83,1.61,1.85,-1.84,-1.78,-0.85,-0.24,-0.22,-0.24
82.16,1.66,1.94,1.63,1.91,-1.92,-1.88,-0.92,-0.26,-0.30,-0.28
82.98,1.66,1.98,1.65,1.97,-2.01,-1.98,-0.98,-0.35,-0.36,-0.32
83.81,1.63,1.99,1.69,2.05,-2.09,-2.07,-1.04,-0.46,-0.40,-0.36
84.65,1.76,2.16,1.76,2.16,-2.17,-2.17,-1.11,-0.41,-0.41,-0.39
85.50,1.86,2.30,1.83,2.27,-2.24,-2.26,-1.18,-0.38,-0.41,-0.44
86.35,1.89,2.37,1.88,2.36,-2.31,-2.34,-1.25,-0.42,-0.43,-0.48
87.22,1.86,2.39,1.88,2.40,-2.38,-2.43,-1.31,-0.51,-0.50,-0.52
88.09,1.86,2.43,1.87,2.43,-2.44,-2.51,-1.39,-0.57,-0.57,-0.57
88.97,1.87,2.47,1.87,2.47,-2.49,-2.58,-1.46,-0.62,-0.62,-0.60
89.86,1.87,2.52,1.87,2.52,-2.53,-2.66,-1.53,-0.66,-0.66,-0.65
90.76,1.87,2.56,1.87,2.56,-2.57,-2.72,-1.60,-0.70,-0.70,-0.69
91.66,1.87,2.60,1.87,2.60,-2.60,-2.79,-1.68,-0.73,-0.73,-0.73
92.58,1.87,2.64,1.87,2.64,-2.64,-2.85,-1.76,-0.77,-0.77,-0.76
93.51,1.87,2.68,1.87,2.68,-2.68,-2.91,-1.83,-0.81,-0.81,-0.81
94.44,1.87,2.72,1.87,2.72,-2.72,-2.97,-1.91,-0.85,-0.85,-0.85
95.39,1.87,2.76,1.87,2.76,-2.76,-3.02,-1.99,-0.88,-0.88,-0.88
96.34,1.87,2.79,1.87,2.79,-2.79,-3.07,-2.07,-0.92,-0.92,-0.92
97.30,1.86,2.82,1.86,2.83,-2.82,-3.11,-2.15,-0.96,-0.96,-0.96
98.28,1.85,2.86,1.85,2.86,-2.85,-3.15,-2.24,-1.00,-1.00,-1.01
99.26,1.84,2.89,1.84,2.88,-2.88,-3.19,-2.32,-1.04,-1.04,-1.04
100.25,1.82,2.90,1.82,2.90,-2.91,-3.23,-2.40,-1.09,-1.09,-1.08
101.25,1.80,2.92,1.81,2.93,-2.94,-3.26,-2.49,-1.13,-1.13,-1.12
102.27,1.79,2.96,1.79,2.96,-2.97,-3.28,-2.57,-1.17,-1.17,-1.17
103.29,1.78,3.00,1.78,2.99,-3.00,-3.31,-2.65,-1.22,-1.22,-1.22
104.32,1.76,3.03,1.76,3.02,-3.03,-3.33,-2.74,-1.27,-1.27,-1.27
105.37,1.73,3.04,1.73,3.04,-3.06,-3.35,-2.82,-1.33,-1.32,-1.30
106.42,1.71,3.06,1.72,3.07,-3.08,-3.37,-2.90,-1.37,-1.36,-1.35
107.48,1.70,3.10,1.71,3.11,-3.08,-3.38,-2.98,-1.38,-1.37,-1.40
108.56,1.70,3.15,1.68,3.13,-3.08,-3.39,-3.06,-1.38,-1.40,-1.45
109.64,1.64,3.14,1.63,3.13,-3.07,-3.40,-3.13,-1.43,-1.44,-1.50
110.74,1.54,3.08,1.54,3.08,-3.07,-3.41,-3.21,-1.53,-1.53,-1.54
111.85,1.45,3.02,1.45,3.02,-3.06,-3.41,-3.28,-1.61,-1.62,-1.57
112.97,1.35,2.96,1.39,3.00,-3.06,-3.41,-3.35,-1.71,-1.68,-1.61
114.10,1.37,3.02,1.36,3.01,-3.07,-3.41,-3.41,-1.70,-1.71,-1.65
115.24,1.38,3.06,1.37,3.05,-3.07,-3.41,-3.47,-1.69,-1.71,-1.68
116.39,1.38,3.09,1.40,3.10,-3.08,-3.41,-3.53,-1.70,-1.69,-1.71
117.55,1.40,3.13,1.41,3.14,-3.09,-3.40,-3.58,-1.69,-1.68,-1.73
118.73,1.42,3.18,1.40,3.15,-3.10,-3.39,-3.62,-1.68,-1.70,-1.76
119.92,1.37,3.14,1.37,3.14,-3.10,-3.39,-3.66,-1.73,-1.73,-1.77
121.12,1.31,3.10,1.32,3.11,-3.10,-3.38,-3.70,-1.79,-1.78,-1.79
122.33,1.27,3.07,1.26,3.06,-3.10,-3.37,-3.72,-1.83,-1.84,-1.80
123.55,1.21,3.03,1.23,3.04,-3.10,-3.35,-3.75,-1.89,-1.87,-1.82
124.79,1.20,3.03,1.22,3.05,-3.10,-3.34,-3.76,-1.90,-1.88,-1.83
126.03,1.24,3.09,1.22,3.07,-3.10,-3.33,-3.78,-1.85,-1.87,-1.85
127.29,1.24,3.10,1.24,3.10,-3.09,-3.31,-3.78,-1.85,-1.85,-1.86
128.57,1.25,3.13,1.28,3.15,-3.09,-3.30,-3.78,-1.84,-1.81,-1.87
129.85,1.28,3.17,1.27,3.15,-3.09,-3.28,-3.77,-1.81,-1.82,-1.89
131.15,1.28,3.18,1.21,3.11,-3.10,-3.27,-3.76,-1.81,-1.88,-1.90
132.46,1.09,3.01,1.14,3.06,-3.09,-3.25,-3.74,-2.00,-1.95,-1.92
133.79,1.04,2.97,1.08,3.01,-3.08,-3.23,-3.71,-2.04,-2.00,-1.93
135.12,1.07,3.02,1.07,3.02,-3.06,-3.21,-3.68,-1.98,-1.99,-1.95
136.48,1.10,3.06,1.10,3.06,-3.03,-3.20,-3.65,-1.93,-1.93,-1.96
137.84,1.12,3.10,1.09,3.08,-3.00,-3.18,-3.61,-1.88,-1.91,-1.98
139.22,1.03,3.03,1.03,3.03,-2.99,-3.16,-3.57,-1.96,-1.96,-2.00
140.61,0.94,2.96,0.94,2.96,-2.99,-3.14,-3.53,-2.04,-2.04,-2.02
142.02,0.84,2.88,0.88,2.92,-2.98,-3.12,-3.48,-2.14,-2.10,-2.04
143.44,0.87,2.94,0.87,2.94,-2.98,-3.10,-3.43,-2.11,-2.11,-2.07
144.87,0.89,2.99,0.88,2.97,-2.97,-3.08,-3.38,-2.08,-2.09,-2.09
146.32,0.91,3.03,0.89,3.01,-2.97,-3.06,-3.33,-2.06,-2.09,-2.12
147.78,0.85,3.01,0.86,3.01,-2.98,-3.05,-3.28,-2.13,-2.13,-2.16
149.26,0.80,2.99,0.82,3.02,-3.01,-3.03,-3.22,-2.21,-2.19,-2.19
150.75,0.78,3.02,0.77,3.01,-3.04,-3.01,-3.17,-2.26,-2.27,-2.24
152.26,0.75,3.04,0.73,3.02,-3.07,-2.99,-3.11,-2.31,-2.34,-2.29
153.78,0.67,3.02,0.72,3.06,-3.08,-2.97,-3.06,-2.40,-2.36,-2.34
155.32,0.68,3.09,0.70,3.10,-3.08,-2.95,-3.01,-2.39,-2.38,-2.41
156.88,0.72,3.18,0.66,3.12,-3.07,-2.93,-2.95,-2.35,-2.41,-2.46
158.44,0.58,3.10,0.60,3.12,-3.05,-2.92,-2.90,-2.47,-2.45,-2.52
160.03,0.48,3.05,0.49,3.06,-3.03,-2.90,-2.85,-2.55,-2.54,-2.57
161.63,0.37,2.99,0.37,2.98,-3.01,-2.88,-2.80,-2.64,-2.64,-2.61
163.24,0.28,2.95,0.27,2.93,-2.98,-2.86,-2.75,-2.70,-2.70,-2.66
164.88,0.18,2.88,0.21,2.90,-2.95,-2.85,-2.70,-2.77,-2.74,-2.69
166.53,0.17,2.89,0.17,2.89,-2.92,-2.83,-2.65,-2.75,-2.75,-2.72
168.19,0.16,2.90,0.15,2.89,-2.90,-2.82,-2.61,-2.74,-2.75,-2.74
169.87,0.15,2.90,0.15,2.91,-2.89,-2.80,-2.57,-2.74,-2.74,-2.75
171.57,0.15,2.91,0.15,2.90,-2.89,-2.78,-2.53,-2.74,-2.74,-2.76
173.29,0.14,2.90,0.14,2.90,-2.88,-2.77,-2.49,-2.74,-2.74,-2.75
175.02,0.14,2.88,0.14,2.89,-2.87,-2.76,-2.45,-2.73,-2.73,-2.74
176.77,0.13,2.86,0.14,2.86,-2.85,-2.74,-2.41,-2.71,-2.71,-2.73
178.54,0.13,2.84,0.12,2.83,-2.82,-2.73,-2.38,-2.69,-2.70,-2.71
180.32,0.09,2.78,0.09,2.78,-2.78,-2.71,-2.35,-2.69,-2.69,-2.69
182.13,0.05,2.73,0.07,2.74,-2.75,-2.70,-2.32,-2.70,-2.67,-2.67
183.95,0.06,2.71,0.04,2.70,-2.71,-2.69,-2.29,-2.65,-2.67,-2.65
185.79,0.03,2.67,0.02,2.66,-2.68,-2.67,-2.27,-2.65,-2.66,-2.64
187.65,-0.01,2.63,0.01,2.64,-2.66,-2.66,-2.24,-2.66,-2.65,-2.64
189.52,-0.01,2.62,0.00,2.63,-2.63,-2.65,-2.22,-2.64,-2.63,-2.63
191.42,0.00,2.63,-0.01,2.62,-2.61,-2.63,-2.20,-2.61,-2.62,-2.63
193.33,0.01,2.63,-0.02,2.61,-2.60,-2.62,-2.18,-2.59,-2.61,-2.62
195.27,-0.06,2.57,-0.03,2.60,-2.59,-2.60,-2.17,-2.65,-2.62,-2.63
197.22,-0.06,2.58,-0.05,2.58,-2.58,-2.59,-2.15,-2.64,-2.64,-2.64
199.19,-0.06,2.58,-0.08,2.56,-2.57,-2.57,-2.14,-2.63,-2.66,-2.64
201.18,-0.11,2.54,-0.10,2.55,-2.56,-2.56,-2.12,-2.67,-2.66,-2.65
203.19,-0.13,2.53,-0.11,2.54,-2.55,-2.54,-2.11,-2.68,-2.66,-2.66
205.23,-0.13,2.54,-0.13,2.54,-2.53,-2.52,-2.10,-2.66,-2.66,-2.67
207.28,-0.13,2.55,-0.14,2.54,-2.51,-2.50,-2.09,-2.64,-2.65,-2.68
209.35,-0.18,2.51,-0.18,2.51,-2.50,-2.48,-2.08,-2.67,-2.67,-2.69
211.44,-0.23,2.48,-0.24,2.47,-2.47,-2.46,-2.08,-2.70,-2.71,-2.71
213.56,-0.31,2.41,-0.29,2.43,-2.45,-2.43,-2.07,-2.76,-2.74,-2.72
215.69,-0.34,2.40,-0.33,2.41,-2.42,-2.41,-2.06,-2.76,-2.75,-2.74
217.85,-0.34,2.41,-0.35,2.39,-2.39,-2.38,-2.06,-2.73,-2.74,-2.74
220.03,-0.38,2.38,-0.38,2.37,-2.36,-2.35,-2.05,-2.74,-2.74,-2.76
222.23,-0.43,2.34,-0.44,2.33,-2.33,-2.32,-2.04,-2.75,-2.76,-2.77
224.45,-0.51,2.27,-0.50,2.28,-2.29,-2.29,-2.04,-2.80,-2.79,-2.78
226.70,-0.55,2.24,-0.53,2.26,-2.26,-2.26,-2.03,-2.81,-2.78,-2.78
228.96,-0.55,2.24,-0.55,2.24,-2.22,-2.23,-2.02,-2.77,-2.77,-2.79
231.25,-0.55,2.24,-0.60,2.19,-2.19,-2.20,-2.01,-2.73,-2.78,-2.79
233.57,-0.66,2.14,-0.65,2.15,-2.15,-2.16,-2.00,-2.81,-2.79,-2.79
235.90,-0.74,2.05,-0.69,2.10,-2.12,-2.13,-1.99,-2.86,-2.80,-2.79
238.26,-0.69,2.10,-0.72,2.07,-2.09,-2.09,-1.98,-2.78,-2.81,-2.79
240.64,-0.70,2.07,-0.72,2.05,-2.06,-2.05,-1.97,-2.76,-2.79,-2.77
243.05,-0.74,2.03,-0.72,2.05,-2.04,-2.02,-1.95,-2.78,-2.76,-2.77
245.48,-0.75,2.01,-0.74,2.02,-2.02,-1.98,-1.94,-2.77,-2.76,-2.76
247.93,-0.73,2.03,-0.76,2.00,-2.00,-1.94,-1.92,-2.73,-2.76,-2.76
250.41,-0.79,1.97,-0.77,1.99,-1.98,-1.91,-1.90,-2.77,-2.75,-2.75
252.92,-0.79,1.96,-0.78,1.97,-1.97,-1.87,-1.88,-2.76,-2.75,-2.75
255.45,-0.79,1.96,-0.81,1.95,-1.95,-1.83,-1.86,-2.74,-2.76,-2.75
258.00,-0.84,1.92,-0.84,1.92,-1.93,-1.80,-1.84,-2.77,-2.77,-2.76
260.58,-0.87,1.89,-0.87,1.90,-1.91,-1.76,-1.82,-2.78,-2.77,-2.76
263.19,-0.93,1.84,-0.90,1.87,-1.87,-1.72,-1.79,-2.80,-2.77,-2.77
265.82,-0.90,1.87,-0.94,1.83,-1.83,-1.69,-1.76,-2.72,-2.76,-2.77
268.48,-0.99,1.79,-0.97,1.80,-1.76,-1.65,-1.73,-2.75,-2.74,-2.77
271.16,-1.05,1.73,-1.03,1.75,-1.69,-1.62,-1.70,-2.74,-2.72,-2.78
273.87,-1.09,1.69,-1.13,1.65,-1.62,-1.58,-1.67,-2.70,-2.75,-2.78
276.61,-1.25,1.54,-1.25,1.54,-1.53,-1.55,-1.64,-2.78,-2.78,-2.79
279.38,-1.39,1.40,-1.38,1.41,-1.45,-1.51,-1.61,-2.84,-2.82,-2.79
282.17,-1.49,1.29,-1.45,1.33,-1.37,-1.48,-1.57,-2.86,-2.83,-2.78
284.99,-1.50,1.28,-1.50,1.28,-1.32,-1.44,-1.54,-2.82,-2.81,-2.78
287.84,-1.46,1.32,-1.53,1.25,-1.27,-1.41,-1.50,-2.73,-2.80,-2.78
290.72,-1.59,1.18,-1.55,1.22,-1.24,-1.38,-1.47,-2.83,-2.80,-2.77
293.63,-1.59,1.18,-1.56,1.21,-1.22,-1.34,-1.43,-2.81,-2.78,-2.76
296.57,-1.54,1.22,-1.54,1.22,-1.21,-1.31,-1.39,-2.75,-2.75,-2.76
299.53,-1.47,1.29,-1.49,1.26,-1.20,-1.28,-1.36,-2.67,-2.69,-2.76
302.53,-1.49,1.26,-1.51,1.24,-1.19,-1.25,-1.32,-2.67,-2.70,-2.75
305.55,-1.58,1.18,-1.58,1.17,-1.17,-1.21,-1.28,-2.74,-2.75,-2.75
308.61,-1.69,1.07,-1.65,1.11,-1.14,-1.18,-1.25,-2.83,-2.79,-2.76
311.69,-1.70,1.06,-1.69,1.08,-1.11,-1.14,-1.21,-2.81,-2.79,-2.76
314.81,-1.67,1.10,-1.71,1.06,-1.08,-1.11,-1.17,-2.74,-2.78,-2.77
317.96,-1.73,1.04,-1.73,1.04,-1.04,-1.08,-1.14,-2.77,-2.77,-2.77
321.14,-1.79,1.00,-1.78,1.00,-1.00,-1.04,-1.10,-2.79,-2.78,-2.79
324.35,-1.85,0.94,-1.83,0.96,-0.96,-1.01,-1.06,-2.81,-2.80,-2.79
327.59,-1.87,0.93,-1.88,0.92,-0.92,-0.97,-1.03,-2.79,-2.80,-2.80
330.87,-1.92,0.89,-1.92,0.90,-0.87,-0.93,-0.99,-2.79,-2.78,-2.81
334.18,-1.98,0.84,-1.97,0.85,-0.81,-0.89,-0.96,-2.79,-2.78,-2.82
337.52,-2.03,0.81,-2.06,0.77,-0.76,-0.85,-0.92,-2.79,-2.82,-2.83
340.90,-2.17,0.67,-2.16,0.68,-0.70,-0.81,-0.89,-2.87,-2.86,-2.84
344.30,-2.28,0.57,-2.24,0.61,-0.65,-0.77,-0.86,-2.93,-2.89,-2.85
347.75,-2.29,0.58,-2.30,0.56,-0.60,-0.72,-0.83,-2.89,-2.90,-2.87
351.23,-2.32,0.56,-2.34,0.54,-0.55,-0.67,-0.79,-2.87,-2.89,-2.88
354.74,-2.39,0.50,-2.37,0.52,-0.50,-0.62,-0.76,-2.89,-2.88,-2.89
358.28,-2.43,0.47,-2.43,0.48,-0.46,-0.57,-0.73,-2.89,-2.89,-2.90
361.87,-2.47,0.45,-2.48,0.44,-0.43,-0.51,-0.70,-2.90,-2.91,-2.91
365.49,-2.55,0.39,-2.54,0.40,-0.39,-0.45,-0.67,-2.94,-2.93,-2.94
369.14,-2.60,0.35,-2.60,0.34,-0.35,-0.39,-0.64,-2.95,-2.96,-2.95
372.83,-2.67,0.29,-2.67,0.29,-0.30,-0.32,-0.61,-2.97,-2.97,-2.96
376.56,-2.74,0.23,-2.73,0.24,-0.24,-0.24,-0.58,-2.98,-2.97,-2.97
380.33,-2.80,0.18,-2.81,0.17,-0.16,-0.16,-0.56,-2.96,-2.97,-2.98
384.13,-2.89,0.10,-2.89,0.10,-0.08,-0.08,-0.53,-2.96,-2.97,-2.99
387.97,-3.00,0.00,-2.99,0.01,0.03,0.01,-0.50,-2.97,-2.97,-3.00
391.85,-3.12,-0.10,-3.12,-0.11,0.14,0.11,-0.48,-2.98,-2.99,-3.01
395.77,-3.26,-0.23,-3.27,-0.25,0.25,0.21,-0.45,-3.01,-3.02,-3.02
399.73,-3.43,-0.39,-3.43,-0.39,0.37,0.32,-0.43,-3.06,-3.06,-3.04
403.72,-3.59,-0.54,-3.58,-0.53,0.49,0.43,-0.40,-3.10,-3.09,-3.05
407.76,-3.71,-0.64,-3.70,-0.64,0.61,0.55,-0.38,-3.10,-3.09,-3.07
411.84,-3.80,-0.72,-3.80,-0.73,0.73,0.67,-0.36,-3.07,-3.08,-3.08
415.96,-3.90,-0.81,-3.89,-0.80,0.83,0.80,-0.34,-3.06,-3.06,-3.09
420.12,-3.98,-0.89,-4.00,-0.90,0.93,0.93,-0.32,-3.05,-3.07,-3.09
424.32,-4.10,-1.00,-4.12,-1.02,1.02,1.05,-0.30,-3.08,-3.10,-3.10
428.56,-4.24,-1.14,-4.21,-1.11,1.10,1.16,-0.28,-3.14,-3.11,-3.10
432.85,-4.30,-1.21,-4.27,-1.18,1.17,1.26,-0.26,-3.13,-3.10,-3.09
437.18,-4.28,-1.20,-4.31,-1.23,1.23,1.35,-0.25,-3.05,-3.08,-3.08
441.55,-4.31,-1.25,-4.33,-1.27,1.28,1.41,-0.23,-3.03,-3.05,-3.06
445.96,-4.38,-1.34,-4.35,-1.30,1.31,1.45,-0.22,-3.07,-3.04,-3.04
450.42,-4.35,-1.33,-4.35,-1.34,1.31,1.46,-0.21,-3.03,-3.04,-3.01
454.93,-4.30,-1.32,-4.30,-1.33,1.30,1.45,-0.20,-3.00,-3.00,-2.97
