frequency,raw,error,smoothed,error_smoothed,equalization,parametric_eq,fixed_band_eq,equalized_raw,equalized_smoothed,target
20.00,16.66,9.90,16.66,9.90,-9.90,-9.04,-4.51,6.76,6.76,6.76
20.20,16.64,9.90,16.64,9.90,-9.90,-9.04,-4.63,6.74,6.74,6.74
20.40,16.61,9.90,16.61,9.90,-9.90,-9.04,-4.75,6.71,6.71,6.71
20.61,16.59,9.90,16.59,9.90,-9.90,-9.04,-4.88,6.69,6.69,6.69
20.81,16.57,9.90,16.57,9.90,-9.90,-9.04,-5.00,6.67,6.67,6.67
21.02,16.54,9.90,16.54,9.90,-9.90,-9.04,-5.14,6.64,6.65,6.64
21.23,16.52,9.90,16.52,9.90,-9.89,-9.04,-5.27,6.62,6.62,6.62
21.44,16.49,9.89,16.49,9.89,-9.89,-9.04,-5.41,6.60,6.60,6.60
21.66,16.47,9.89,16.47,9.89,-9.89,-9.04,-5.55,6.58,6.58,6.58
21.87,16.44,9.88,16.44,9.88,-9.88,-9.04,-5.70,6.55,6.56,6.56
22.09,16.42,9.88,16.41,9.88,-9.88,-9.04,-5.85,6.54,6.53,6.54
22.31,16.39,9.87,16.39,9.87,-9.88,-9.05,-6.01,6.51,6.51,6.52
22.54,16.36,9.87,16.36,9.87,-9.87,-9.05,-6.17,6.49,6.49,6.49
22.76,16.34,9.87,16.34,9.87,-9.87,-9.05,-6.33,6.47,6.47,6.47
22.99,16.32,9.87,16.31,9.87,-9.87,-9.05,-6.50,6.45,6.45,6.45
23.22,16.29,9.86,16.29,9.86,-9.86,-9.05,-6.67,6.43,6.43,6.43
23.45,16.27,9.85,16.27,9.86,-9.86,-9.05,-6.85,6.41,6.41,6.41
23.69,16.25,9.85,16.25,9.85,-9.85,-9.05,-7.03,6.40,6.40,6.39
23.92,16.23,9.84,16.23,9.85,-9.85,-9.05,-7.21,6.38,6.38,6.38
24.16,16.22,9.85,16.21,9.84,-9.84,-9.05,-7.40,6.37,6.37,6.36
24.40,16.19,9.84,16.19,9.84,-9.84,-9.05,-7.60,6.35,6.35,6.35
24.65,16.17,9.83,16.17,9.83,-9.83,-9.05,-7.79,6.34,6.34,6.34
24.89,16.15,9.83,16.15,9.83,-9.83,-9.05,-7.99,6.32,6.32,6.32
25.14,16.14,9.83,16.13,9.82,-9.82,-9.05,-8.20,6.32,6.31,6.31
25.39,16.12,9.82,16.12,9.82,-9.82,-9.05,-8.40,6.30,6.30,6.30
25.65,16.10,9.81,16.10,9.81,-9.81,-9.05,-8.61,6.29,6.29,6.29
25.91,16.09,9.81,16.09,9.81,-9.81,-9.05,-8.82,6.28,6.28,6.28
26.16,16.07,9.80,16.07,9.80,-9.80,-9.05,-9.03,6.27,6.27,6.27
26.43,16.05,9.80,16.05,9.80,-9.80,-9.05,-9.25,6.25,6.25,6.25
26.69,16.03,9.79,16.03,9.79,-9.79,-9.05,-9.46,6.24,6.24,6.24
26.96,16.01,9.78,16.01,9.78,-9.78,-9.05,-9.67,6.23,6.23,6.23
27.23,15.99,9.77,15.99,9.77,-9.77,-9.05,-9.88,6.22,6.21,6.22
27.50,15.97,9.76,15.97,9.76,-9.76,-9.05,-10.09,6.20,6.20,6.20
27.77,15.95,9.74,15.95,9.75,-9.75,-9.05,-10.29,6.19,6.20,6.20
28.05,15.94,9.75,15.94,9.74,-9.74,-9.04,-10.49,6.20,6.19,6.19
28.33,15.92,9.74,15.92,9.73,-9.73,-9.04,-10.68,6.19,6.19,6.18
28.62,15.90,9.72,15.90,9.72,-9.72,-9.04,-10.87,6.18,6.18,6.18
28.90,15.88,9.71,15.88,9.70,-9.70,-9.04,-11.04,6.17,6.17,6.17
29.19,15.85,9.68,15.85,9.69,-9.69,-9.04,-11.20,6.16,6.17,6.17
29.48,15.84,9.68,15.83,9.67,-9.67,-9.04,-11.34,6.16,6.16,6.16
29.78,15.81,9.65,15.81,9.66,-9.66,-9.04,-11.48,6.15,6.15,6.16
30.08,15.79,9.64,15.79,9.64,-9.64,-9.04,-11.59,6.15,6.15,6.15
30.38,15.76,9.62,15.76,9.62,-9.62,-9.04,-11.69,6.14,6.14,6.14
30.68,15.73,9.60,15.73,9.60,-9.60,-9.04,-11.76,6.13,6.13,6.13
30.99,15.71,9.59,15.71,9.58,-9.58,-9.04,-11.82,6.13,6.12,6.12
31.30,15.68,9.56,15.68,9.56,-9.56,-9.04,-11.85,6.12,6.12,6.12
31.61,15.65,9.54,15.65,9.54,-9.54,-9.03,-11.87,6.11,6.11,6.11
31.93,15.62,9.52,15.62,9.52,-9.51,-9.03,-11.85,6.10,6.10,6.10
32.24,15.58,9.48,15.58,9.49,-9.49,-9.03,-11.83,6.09,6.09,6.10
32.57,15.55,9.46,15.55,9.46,-9.47,-9.03,-11.78,6.08,6.08,6.08
32.89,15.51,9.44,15.51,9.44,-9.44,-9.03,-11.72,6.06,6.07,6.07
33.22,15.48,9.42,15.48,9.42,-9.42,-9.03,-11.64,6.06,6.06,6.06
33.55,15.45,9.40,15.44,9.40,-9.39,-9.02,-11.55,6.05,6.05,6.05
33.89,15.41,9.37,15.41,9.37,-9.37,-9.02,-11.44,6.04,6.04,6.04
34.23,15.37,9.34,15.37,9.34,-9.34,-9.02,-11.32,6.03,6.03,6.02
34.57,15.33,9.31,15.33,9.31,-9.30,-9.02,-11.19,6.02,6.02,6.02
34.92,15.29,9.28,15.29,9.28,-9.27,-9.01,-11.06,6.02,6.02,6.01
35.27,15.24,9.24,15.24,9.24,-9.23,-9.01,-10.92,6.01,6.01,6.00
35.62,15.19,9.19,15.19,9.20,-9.20,-9.01,-10.77,5.99,5.99,6.00
35.97,15.14,9.15,15.14,9.15,-9.16,-9.00,-10.62,5.98,5.98,5.98
36.33,15.10,9.12,15.10,9.12,-9.13,-9.00,-10.47,5.97,5.97,5.98
36.70,15.06,9.09,15.06,9.09,-9.10,-9.00,-10.32,5.96,5.96,5.97
37.06,15.03,9.07,15.03,9.07,-9.07,-8.99,-10.17,5.96,5.96,5.96
37.43,15.00,9.04,15.00,9.05,-9.05,-8.99,-10.02,5.95,5.95,5.95
37.81,14.97,9.03,14.97,9.03,-9.03,-8.98,-9.87,5.94,5.94,5.94
38.19,14.96,9.02,14.95,9.02,-9.01,-8.98,-9.73,5.94,5.94,5.94
38.57,14.93,9.00,14.93,9.00,-9.00,-8.97,-9.59,5.93,5.93,5.93
38.95,14.91,8.99,14.91,8.99,-8.99,-8.97,-9.45,5.92,5.92,5.92
39.34,14.89,8.98,14.89,8.98,-8.98,-8.96,-9.32,5.91,5.91,5.91
39.74,14.87,8.96,14.87,8.96,-8.97,-8.96,-9.19,5.90,5.90,5.91
40.14,14.85,8.96,14.85,8.96,-8.96,-8.95,-9.06,5.89,5.89,5.89
40.54,14.83,8.94,14.83,8.94,-8.95,-8.94,-8.95,5.88,5.88,5.89
40.94,14.82,8.94,14.82,8.94,-8.94,-8.94,-8.83,5.88,5.88,5.87
41.35,14.80,8.93,14.80,8.93,-8.93,-8.93,-8.73,5.87,5.87,5.87
41.76,14.79,8.93,14.79,8.93,-8.93,-8.92,-8.62,5.86,5.86,5.86
42.18,14.77,8.92,14.77,8.92,-8.92,-8.91,-8.53,5.85,5.85,5.85
42.60,14.75,8.91,14.75,8.91,-8.91,-8.90,-8.44,5.84,5.84,5.84
43.03,14.73,8.89,14.73,8.90,-8.90,-8.90,-8.35,5.83,5.83,5.83
43.46,14.71,8.89,14.71,8.89,-8.88,-8.89,-8.27,5.82,5.83,5.82
43.90,14.69,8.87,14.69,8.87,-8.87,-8.87,-8.20,5.82,5.82,5.81
44.33,14.66,8.85,14.66,8.85,-8.85,-8.86,-8.14,5.81,5.81,5.81
44.78,14.62,8.82,14.62,8.83,-8.82,-8.85,-8.08,5.79,5.80,5.79
45.23,14.59,8.80,14.59,8.80,-8.80,-8.84,-8.02,5.79,5.79,5.79
45.68,14.55,8.77,14.55,8.77,-8.77,-8.83,-7.97,5.78,5.78,5.78
46.13,14.52,8.74,14.52,8.74,-8.74,-8.81,-7.93,5.78,5.78,5.78
46.60,14.48,8.71,14.48,8.71,-8.71,-8.80,-7.89,5.77,5.77,5.77
47.06,14.44,8.67,14.44,8.68,-8.67,-8.78,-7.86,5.77,5.77,5.76
47.53,14.40,8.64,14.40,8.64,-8.64,-8.76,-7.83,5.76,5.76,5.76
48.01,14.36,8.61,14.36,8.60,-8.60,-8.75,-7.80,5.76,5.75,5.75
48.49,14.31,8.56,14.31,8.57,-8.57,-8.73,-7.79,5.74,5.74,5.74
48.97,14.27,8.53,14.27,8.53,-8.54,-8.71,-7.77,5.73,5.73,5.74
49.46,14.23,8.50,14.23,8.50,-8.51,-8.69,-7.77,5.72,5.72,5.73
49.96,14.19,8.47,14.20,8.47,-8.47,-8.66,-7.76,5.71,5.72,5.72
50.46,14.17,8.45,14.16,8.45,-8.45,-8.64,-7.76,5.72,5.72,5.71
50.96,14.13,8.42,14.13,8.42,-8.42,-8.61,-7.76,5.71,5.71,5.71
51.47,14.09,8.39,14.09,8.39,-8.39,-8.59,-7.77,5.70,5.70,5.70
51.99,14.05,8.36,14.05,8.36,-8.36,-8.56,-7.78,5.69,5.69,5.69
52.51,14.01,8.33,14.01,8.33,-8.33,-8.53,-7.79,5.68,5.68,5.68
53.03,13.97,8.30,13.97,8.30,-8.30,-8.49,-7.80,5.67,5.67,5.67
53.56,13.93,8.27,13.93,8.27,-8.26,-8.46,-7.82,5.67,5.67,5.66
54.10,13.89,8.24,13.88,8.23,-8.22,-8.42,-7.84,5.67,5.66,5.65
54.64,13.82,8.18,13.83,8.19,-8.18,-8.38,-7.86,5.64,5.65,5.64
55.18,13.77,8.14,13.77,8.14,-8.14,-8.34,-7.87,5.63,5.63,5.63
55.74,13.71,8.09,13.70,8.09,-8.09,-8.29,-7.89,5.62,5.62,5.62
56.29,13.64,8.03,13.65,8.04,-8.04,-8.24,-7.91,5.60,5.60,5.61
56.86,13.59,7.99,13.59,7.99,-7.99,-8.19,-7.93,5.60,5.59,5.60
57.42,13.53,7.94,13.53,7.94,-7.95,-8.14,-7.94,5.58,5.58,5.58
58.00,13.48,7.90,13.48,7.90,-7.90,-8.08,-7.95,5.58,5.58,5.58
58.58,13.42,7.85,13.42,7.85,-7.85,-8.01,-7.96,5.57,5.57,5.57
59.16,13.37,7.81,13.37,7.81,-7.81,-7.95,-7.97,5.56,5.56,5.55
59.76,13.31,7.77,13.31,7.77,-7.76,-7.88,-7.97,5.54,5.55,5.54
60.35,13.26,7.72,13.26,7.72,-7.72,-7.81,-7.97,5.54,5.53,5.54
60.96,13.20,7.68,13.20,7.68,-7.68,-7.74,-7.97,5.52,5.52,5.52
61.57,13.15,7.64,13.15,7.64,-7.64,-7.67,-7.96,5.51,5.51,5.51
62.18,13.10,7.61,13.10,7.60,-7.61,-7.60,-7.94,5.49,5.49,5.49
62.80,13.05,7.57,13.05,7.57,-7.57,-7.53,-7.92,5.48,5.47,5.48
63.43,13.00,7.53,13.00,7.54,-7.54,-7.47,-7.90,5.46,5.46,5.47
64.07,12.96,7.51,12.96,7.51,-7.51,-7.41,-7.87,5.44,5.45,5.45
64.71,12.93,7.49,12.92,7.49,-7.49,-7.35,-7.84,5.44,5.43,5.43
65.35,12.89,7.47,12.89,7.47,-7.47,-7.31,-7.80,5.42,5.42,5.42
66.01,12.84,7.44,12.85,7.45,-7.45,-7.28,-7.76,5.39,5.40,5.40
66.67,12.81,7.43,12.81,7.43,-7.43,-7.25,-7.72,5.38,5.38,5.38
67.33,12.77,7.41,12.77,7.41,-7.41,-7.24,-7.67,5.36,5.36,5.36
68.01,12.73,7.39,12.73,7.39,-7.39,-7.23,-7.62,5.34,5.34,5.34
68.69,12.69,7.37,12.69,7.37,-7.37,-7.24,-7.57,5.32,5.32,5.32
69.37,12.65,7.35,12.65,7.35,-7.35,-7.25,-7.51,5.29,5.30,5.30
70.07,12.61,7.33,12.61,7.34,-7.33,-7.26,-7.46,5.28,5.28,5.27
70.77,12.57,7.32,12.57,7.32,-7.31,-7.28,-7.40,5.26,5.26,5.25
71.48,12.53,7.30,12.52,7.29,-7.29,-7.30,-7.34,5.24,5.23,5.23
72.19,12.47,7.26,12.48,7.27,-7.27,-7.32,-7.29,5.20,5.21,5.21
72.91,12.43,7.25,12.42,7.24,-7.24,-7.33,-7.23,5.19,5.18,5.18
73.64,12.37,7.22,12.37,7.21,-7.22,-7.35,-7.17,5.15,5.15,5.15
74.38,12.31,7.19,12.31,7.19,-7.19,-7.37,-7.12,5.12,5.12,5.12
75.12,12.26,7.16,12.26,7.16,-7.17,-7.38,-7.07,5.09,5.09,5.10
75.87,12.21,7.15,12.20,7.14,-7.14,-7.39,-7.02,5.06,5.06,5.06
76.63,12.15,7.11,12.15,7.12,-7.12,-7.39,-6.97,5.03,5.03,5.03
77.40,12.10,7.10,12.10,7.10,-7.10,-7.39,-6.92,4.99,5.00,5.00
78.17,12.05,7.09,12.05,7.09,-7.09,-7.39,-6.88,4.96,4.96,4.96
78.95,12.00,7.08,11.99,7.07,-7.07,-7.39,-6.84,4.93,4.92,4.92
79.74,11.94,7.06,11.94,7.06,-7.06,-7.38,-6.81,4.88,4.88,4.88
80.54,11.89,7.05,11.89,7.05,-7.05,-7.37,-6.78,4.84,4.84,4.84
81.35,11.84,7.04,11.84,7.04,-7.04,-7.36,-6.75,4.80,4.80,4.80
82.16,11.79,7.03,11.79,7.03,-7.03,-7.35,-6.73,4.76,4.76,4.76
82.98,11.74,7.02,11.74,7.02,-7.03,-7.33,-6.71,4.71,4.71,4.72
83.81,11.70,7.02,11.69,7.02,-7.02,-7.32,-6.70,4.68,4.67,4.68
84.65,11.65,7.02,11.65,7.02,-7.02,-7.30,-6.69,4.63,4.63,4.63
85.50,11.61,7.03,11.61,7.02,-7.02,-7.28,-6.68,4.59,4.59,4.58
86.35,11.57,7.02,11.56,7.02,-7.01,-7.25,-6.68,4.55,4.55,4.55
87.22,11.52,7.01,11.52,7.01,-7.01,-7.23,-6.69,4.51,4.51,4.51
88.09,11.47,7.01,11.47,7.01,-7.00,-7.21,-6.70,4.46,4.46,4.46
88.97,11.42,7.00,11.42,7.00,-7.00,-7.18,-6.71,4.42,4.42,4.42
89.86,11.37,7.00,11.37,7.00,-7.00,-7.16,-6.73,4.37,4.37,4.37
90.76,11.33,6.99,11.32,6.99,-6.99,-7.13,-6.76,4.33,4.33,4.34
91.66,11.28,6.99,11.28,6.99,-6.99,-7.10,-6.79,4.28,4.29,4.29
92.58,11.24,6.98,11.24,6.99,-6.99,-7.08,-6.82,4.24,4.25,4.26
93.51,11.21,7.00,11.21,7.00,-7.00,-7.05,-6.86,4.21,4.21,4.21
94.44,11.19,7.02,11.18,7.01,-7.00,-7.02,-6.90,4.18,4.18,4.17
95.39,11.15,7.02,11.15,7.02,-7.01,-6.99,-6.95,4.14,4.14,4.13
96.34,11.11,7.02,11.11,7.03,-7.02,-6.97,-7.00,4.09,4.09,4.09
97.30,11.08,7.04,11.08,7.03,-7.04,-6.94,-7.06,4.04,4.04,4.04
98.28,11.05,7.05,11.05,7.05,-7.06,-6.91,-7.12,3.99,3.99,4.00
99.26,11.02,7.06,11.02,7.07,-7.08,-6.89,-7.18,3.94,3.95,3.96
100.25,11.01,7.10,11.00,7.10,-7.10,-6.86,-7.25,3.91,3.90,3.91
101.25,10.99,7.13,10.99,7.13,-7.13,-6.84,-7.32,3.86,3.86,3.86
102.27,10.97,7.16,10.97,7.16,-7.16,-6.81,-7.39,3.81,3.82,3.81
103.29,10.96,7.20,10.96,7.19,-7.19,-6.79,-7.47,3.77,3.77,3.76
104.32,10.94,7.22,10.94,7.22,-7.22,-6.77,-7.54,3.72,3.72,3.71
105.37,10.92,7.25,10.92,7.25,-7.25,-6.75,-7.62,3.67,3.67,3.67
106.42,10.90,7.28,10.90,7.28,-7.28,-6.73,-7.70,3.62,3.62,3.62
107.48,10.88,7.31,10.88,7.31,-7.31,-6.71,-7.78,3.57,3.57,3.57
108.56,10.86,7.34,10.86,7.34,-7.34,-6.69,-7.85,3.52,3.52,3.52
109.64,10.84,7.37,10.84,7.37,-7.37,-6.67,-7.93,3.47,3.47,3.47
110.74,10.82,7.39,10.82,7.39,-7.39,-6.66,-8.00,3.43,3.42,3.42
111.85,10.79,7.41,10.79,7.41,-7.42,-6.65,-8.07,3.37,3.37,3.38
112.97,10.77,7.44,10.77,7.44,-7.44,-6.63,-8.14,3.33,3.33,3.33
114.10,10.74,7.46,10.74,7.46,-7.46,-6.62,-8.21,3.28,3.28,3.28
115.24,10.72,7.48,10.71,7.48,-7.48,-6.62,-8.26,3.24,3.24,3.23
116.39,10.68,7.49,10.68,7.49,-7.49,-6.61,-8.31,3.19,3.19,3.19
117.55,10.64,7.50,10.64,7.50,-7.49,-6.60,-8.36,3.15,3.15,3.14
118.73,10.60,7.50,10.60,7.50,-7.49,-6.60,-8.40,3.11,3.10,3.09
119.92,10.55,7.49,10.55,7.49,-7.49,-6.60,-8.42,3.06,3.06,3.06
121.12,10.49,7.48,10.49,7.48,-7.48,-6.60,-8.44,3.01,3.01,3.01
122.33,10.43,7.45,10.43,7.46,-7.46,-6.60,-8.45,2.97,2.97,2.98
123.55,10.38,7.45,10.38,7.44,-7.44,-6.60,-8.45,2.93,2.93,2.93
124.79,10.32,7.42,10.32,7.42,-7.42,-6.61,-8.44,2.90,2.90,2.90
126.03,10.26,7.41,10.26,7.40,-7.40,-6.62,-8.42,2.86,2.86,2.85
127.29,10.20,7.38,10.20,7.38,-7.38,-6.63,-8.39,2.82,2.82,2.82
128.57,10.13,7.34,10.14,7.35,-7.36,-6.64,-8.35,2.77,2.78,2.79
129.85,10.08,7.34,10.07,7.33,-7.33,-6.65,-8.29,2.75,2.74,2.74
131.15,10.02,7.31,10.02,7.31,-7.31,-6.67,-8.24,2.71,2.71,2.71
132.46,9.96,7.28,9.96,7.28,-7.28,-6.68,-8.17,2.68,2.68,2.68
133.79,9.91,7.26,9.91,7.26,-7.25,-6.70,-8.09,2.66,2.65,2.65
135.12,9.85,7.23,9.85,7.23,-7.23,-6.72,-8.00,2.62,2.62,2.62
136.48,9.79,7.20,9.79,7.20,-7.20,-6.74,-7.92,2.59,2.59,2.59
137.84,9.73,7.16,9.73,7.17,-7.18,-6.76,-7.82,2.55,2.56,2.57
139.22,9.69,7.15,9.69,7.15,-7.15,-6.78,-7.72,2.53,2.53,2.54
140.61,9.64,7.13,9.64,7.13,-7.13,-6.81,-7.61,2.51,2.51,2.51
142.02,9.60,7.11,9.60,7.11,-7.10,-6.83,-7.50,2.50,2.49,2.49
143.44,9.55,7.08,9.55,7.08,-7.08,-6.85,-7.39,2.47,2.47,2.47
144.87,9.51,7.06,9.51,7.06,-7.05,-6.88,-7.27,2.46,2.46,2.45
146.32,9.46,7.03,9.45,7.02,-7.02,-6.90,-7.16,2.44,2.43,2.43
147.78,9.40,6.98,9.40,6.99,-6.99,-6.93,-7.04,2.41,2.41,2.41
149.26,9.35,6.96,9.35,6.96,-6.96,-6.95,-6.92,2.39,2.39,2.39
150.75,9.30,6.92,9.30,6.92,-6.93,-6.97,-6.81,2.37,2.37,2.37
152.26,9.25,6.89,9.25,6.89,-6.89,-6.99,-6.69,2.36,2.36,2.36
153.78,9.20,6.85,9.20,6.86,-6.86,-7.01,-6.58,2.34,2.35,2.35
155.32,9.16,6.83,9.15,6.82,-6.82,-7.03,-6.47,2.34,2.33,2.33
156.88,9.11,6.79,9.11,6.79,-6.79,-7.05,-6.36,2.32,2.32,2.32
158.44,9.06,6.75,9.06,6.75,-6.75,-7.06,-6.25,2.30,2.31,2.31
160.03,9.02,6.72,9.02,6.72,-6.72,-7.07,-6.15,2.30,2.30,2.30
161.63,8.97,6.68,8.97,6.68,-6.68,-7.07,-6.05,2.29,2.29,2.29
163.24,8.93,6.65,8.93,6.65,-6.65,-7.08,-5.95,2.28,2.28,2.28
164.88,8.88,6.61,8.88,6.61,-6.61,-7.08,-5.86,2.27,2.27,2.27
166.53,8.83,6.57,8.83,6.57,-6.57,-7.08,-5.77,2.26,2.26,2.26
168.19,8.78,6.53,8.78,6.53,-6.53,-7.07,-5.68,2.24,2.25,2.25
169.87,8.73,6.49,8.73,6.49,-6.50,-7.05,-5.60,2.23,2.23,2.24
171.57,8.69,6.47,8.68,6.46,-6.46,-7.03,-5.52,2.23,2.23,2.22
173.29,8.63,6.41,8.63,6.42,-6.42,-7.01,-5.44,2.21,2.22,2.22
175.02,8.59,6.38,8.58,6.38,-6.38,-6.98,-5.37,2.21,2.21,2.21
176.77,8.53,6.34,8.53,6.33,-6.34,-6.95,-5.31,2.19,2.19,2.19
178.54,8.48,6.29,8.48,6.29,-6.29,-6.91,-5.24,2.19,2.19,2.19
180.32,8.42,6.25,8.42,6.25,-6.24,-6.87,-5.18,2.17,2.18,2.17
182.13,8.36,6.20,8.36,6.20,-6.19,-6.82,-5.13,2.17,2.17,2.16
183.95,8.29,6.15,8.29,6.14,-6.13,-6.77,-5.08,2.15,2.15,2.14
185.79,8.21,6.08,8.21,6.08,-6.07,-6.71,-5.03,2.13,2.13,2.13
187.65,8.13,6.01,8.13,6.01,-6.01,-6.65,-4.98,2.12,2.12,2.11
189.52,8.05,5.95,8.05,5.95,-5.95,-6.58,-4.95,2.10,2.10,2.10
191.42,7.98,5.89,7.98,5.89,-5.89,-6.51,-4.91,2.08,2.08,2.09
193.33,7.91,5.83,7.91,5.83,-5.84,-6.43,-4.87,2.07,2.07,2.08
195.27,7.85,5.78,7.85,5.78,-5.79,-6.35,-4.84,2.06,2.05,2.06
197.22,7.79,5.75,7.79,5.74,-5.75,-6.26,-4.82,2.04,2.04,2.04
199.19,7.74,5.71,7.74,5.71,-5.72,-6.18,-4.79,2.02,2.03,2.03
201.18,7.70,5.69,7.70,5.68,-5.69,-6.09,-4.77,2.01,2.01,2.01
203.19,7.66,5.66,7.66,5.66,-5.66,-5.99,-4.75,2.00,2.00,2.00
205.23,7.62,5.64,7.63,5.64,-5.64,-5.90,-4.73,1.98,1.99,1.98
207.28,7.60,5.63,7.59,5.62,-5.62,-5.80,-4.71,1.98,1.97,1.97
209.35,7.56,5.61,7.56,5.61,-5.60,-5.70,-4.70,1.96,1.96,1.95
211.44,7.52,5.59,7.52,5.59,-5.58,-5.60,-4.69,1.94,1.94,1.93
213.56,7.48,5.56,7.48,5.56,-5.56,-5.50,-4.68,1.91,1.92,1.92
215.69,7.45,5.54,7.44,5.54,-5.54,-5.40,-4.66,1.90,1.90,1.90
217.85,7.41,5.51,7.41,5.52,-5.52,-5.29,-4.65,1.89,1.89,1.90
220.03,7.38,5.50,7.38,5.50,-5.50,-5.19,-4.64,1.88,1.88,1.88
222.23,7.35,5.48,7.34,5.47,-5.47,-5.08,-4.63,1.88,1.87,1.87
224.45,7.31,5.45,7.31,5.45,-5.44,-4.98,-4.62,1.87,1.87,1.86
226.70,7.26,5.40,7.26,5.41,-5.40,-4.88,-4.61,1.86,1.86,1.86
228.96,7.22,5.37,7.21,5.36,-5.36,-4.77,-4.59,1.86,1.85,1.85
231.25,7.16,5.32,7.16,5.31,-5.32,-4.67,-4.58,1.84,1.84,1.84
233.57,7.10,5.25,7.10,5.26,-5.26,-4.57,-4.56,1.84,1.84,1.85
235.90,7.03,5.19,7.03,5.19,-5.20,-4.47,-4.54,1.83,1.83,1.84
238.26,6.97,5.13,6.97,5.13,-5.13,-4.37,-4.51,1.84,1.84,1.84
240.64,6.90,5.05,6.90,5.06,-5.05,-4.27,-4.49,1.85,1.85,1.85
243.05,6.83,4.99,6.81,4.97,-4.96,-4.17,-4.46,1.87,1.85,1.84
245.48,6.71,4.86,6.72,4.87,-4.86,-4.07,-4.43,1.85,1.85,1.85
247.93,6.60,4.75,6.61,4.76,-4.75,-3.98,-4.39,1.85,1.86,1.85
250.41,6.49,4.63,6.48,4.63,-4.62,-3.88,-4.35,1.87,1.86,1.86
252.92,6.35,4.50,6.34,4.49,-4.48,-3.79,-4.31,1.86,1.86,1.85
255.45,6.19,4.33,6.20,4.34,-4.33,-3.70,-4.26,1.86,1.86,1.86
258.00,6.03,4.17,6.03,4.17,-4.17,-3.61,-4.21,1.86,1.86,1.86
260.58,5.87,4.01,5.86,4.00,-3.99,-3.53,-4.15,1.87,1.87,1.86
263.19,5.68,3.83,5.68,3.82,-3.82,-3.44,-4.10,1.86,1.86,1.85
265.82,5.50,3.64,5.50,3.64,-3.64,-3.36,-4.03,1.86,1.86,1.86
268.48,5.31,3.45,5.31,3.46,-3.46,-3.27,-3.97,1.85,1.85,1.86
271.16,5.14,3.29,5.14,3.28,-3.29,-3.19,-3.90,1.85,1.85,1.85
273.87,4.97,3.12,4.97,3.12,-3.13,-3.11,-3.83,1.84,1.84,1.85
276.61,4.82,2.96,4.82,2.97,-2.98,-3.04,-3.76,1.84,1.85,1.85
279.38,4.69,2.84,4.69,2.83,-2.84,-2.96,-3.69,1.85,1.84,1.85
282.17,4.57,2.72,4.56,2.71,-2.72,-2.89,-3.61,1.85,1.84,1.85
284.99,4.46,2.60,4.46,2.61,-2.62,-2.81,-3.54,1.84,1.84,1.85
287.84,4.38,2.53,4.38,2.53,-2.54,-2.74,-3.46,1.84,1.85,1.85
290.72,4.33,2.47,4.32,2.47,-2.47,-2.68,-3.38,1.86,1.85,1.86
293.63,4.28,2.42,4.28,2.42,-2.42,-2.61,-3.30,1.86,1.86,1.86
296.57,4.24,2.38,4.24,2.38,-2.38,-2.54,-3.22,1.86,1.86,1.86
299.53,4.21,2.35,4.21,2.35,-2.36,-2.48,-3.13,1.85,1.86,1.86
302.53,4.20,2.33,4.20,2.33,-2.34,-2.42,-3.05,1.86,1.87,1.87
305.55,4.20,2.32,4.20,2.32,-2.32,-2.35,-2.97,1.88,1.88,1.88
308.61,4.20,2.32,4.20,2.31,-2.30,-2.29,-2.89,1.90,1.90,1.88
311.69,4.19,2.30,4.19,2.29,-2.28,-2.24,-2.81,1.91,1.90,1.89
314.81,4.17,2.27,4.17,2.27,-2.26,-2.18,-2.73,1.91,1.91,1.90
317.96,4.14,2.23,4.14,2.24,-2.23,-2.12,-2.66,1.91,1.91,1.91
321.14,4.12,2.20,4.11,2.20,-2.20,-2.07,-2.58,1.92,1.92,1.91
324.35,4.08,2.16,4.08,2.16,-2.16,-2.02,-2.50,1.92,1.92,1.92
327.59,4.05,2.12,4.04,2.11,-2.12,-1.96,-2.43,1.93,1.92,1.93
330.87,4.00,2.07,4.00,2.07,-2.07,-1.91,-2.35,1.93,1.93,1.93
334.18,3.95,2.01,3.96,2.02,-2.02,-1.87,-2.28,1.93,1.94,1.94
337.52,3.92,1.98,3.91,1.97,-1.97,-1.82,-2.21,1.95,1.94,1.94
340.90,3.86,1.91,3.86,1.92,-1.91,-1.77,-2.14,1.95,1.95,1.94
344.30,3.80,1.86,3.80,1.86,-1.85,-1.72,-2.07,1.95,1.95,1.94
347.75,3.73,1.79,3.73,1.79,-1.79,-1.68,-2.00,1.94,1.94,1.94
351.23,3.67,1.73,3.66,1.72,-1.73,-1.64,-1.93,1.94,1.93,1.94
354.74,3.59,1.65,3.59,1.66,-1.66,-1.59,-1.87,1.93,1.93,1.94
358.28,3.52,1.59,3.52,1.59,-1.60,-1.55,-1.81,1.92,1.93,1.93
361.87,3.46,1.53,3.45,1.53,-1.53,-1.51,-1.74,1.93,1.93,1.93
365.49,3.39,1.46,3.38,1.46,-1.45,-1.47,-1.68,1.93,1.93,1.92
369.14,3.31,1.39,3.31,1.39,-1.38,-1.43,-1.62,1.93,1.93,1.92
372.83,3.23,1.31,3.23,1.31,-1.31,-1.40,-1.57,1.92,1.93,1.92
376.56,3.16,1.23,3.16,1.23,-1.23,-1.36,-1.51,1.93,1.93,1.93
380.33,3.09,1.16,3.09,1.16,-1.16,-1.32,-1.45,1.93,1.93,1.93
384.13,3.02,1.09,3.01,1.08,-1.08,-1.29,-1.40,1.94,1.93,1.93
387.97,2.94,1.00,2.94,1.01,-1.01,-1.25,-1.35,1.93,1.93,1.94
391.85,2.87,0.93,2.87,0.93,-0.94,-1.22,-1.29,1.93,1.93,1.94
395.77,2.82,0.87,2.82,0.87,-0.88,-1.19,-1.24,1.94,1.94,1.95
399.73,2.77,0.81,2.77,0.82,-0.82,-1.16,-1.19,1.95,1.95,1.95
403.72,2.72,0.76,2.72,0.76,-0.76,-1.12,-1.14,1.96,1.96,1.95
407.76,2.67,0.71,2.67,0.71,-0.70,-1.09,-1.09,1.97,1.97,1.96
411.84,2.62,0.65,2.62,0.65,-0.65,-1.06,-1.05,1.97,1.97,1.97
415.96,2.59,0.61,2.58,0.60,-0.61,-1.03,-1.00,1.98,1.98,1.98
420.12,2.54,0.56,2.54,0.56,-0.56,-1.01,-0.96,1.98,1.98,1.98
424.32,2.51,0.52,2.51,0.52,-0.52,-0.98,-0.91,1.99,1.99,1.99
428.56,2.48,0.48,2.48,0.48,-0.48,-0.95,-0.87,2.00,2.00,2.00
432.85,2.45,0.44,2.45,0.44,-0.44,-0.92,-0.82,2.01,2.01,2.01
437.18,2.42,0.40,2.42,0.40,-0.40,-0.90,-0.78,2.02,2.02,2.02
441.55,2.40,0.37,2.40,0.37,-0.37,-0.87,-0.74,2.03,2.02,2.03
445.96,2.37,0.33,2.37,0.34,-0.34,-0.85,-0.70,2.03,2.04,2.04
450.42,2.36,0.31,2.36,0.31,-0.31,-0.82,-0.66,2.05,2.05,2.05
454.93,2.34,0.28,2.34,0.28,-0.28,-0.80,-0.62,2.06,2.06,2.06
459.48,2.32,0.25,2.32,0.25,-0.25,-0.77,-0.58,2.07,2.07,2.06
464.07,2.30,0.22,2.30,0.23,-0.23,-0.75,-0.54,2.07,2.08,2.07
468.71,2.29,0.20,2.29,0.20,-0.20,-0.72,-0.51,2.09,2.08,2.08
473.40,2.28,0.19,2.27,0.18,-0.18,-0.70,-0.47,2.10,2.09,2.09
478.13,2.26,0.16,2.26,0.16,-0.16,-0.68,-0.43,2.10,2.10,2.10
482.91,2.25,0.13,2.25,0.13,-0.13,-0.66,-0.40,2.11,2.12,2.12
487.74,2.25,0.12,2.25,0.11,-0.11,-0.63,-0.36,2.14,2.13,2.13
492.62,2.25,0.10,2.25,0.10,-0.09,-0.61,-0.33,2.16,2.15,2.15
497.55,2.25,0.09,2.25,0.08,-0.07,-0.59,-0.29,2.17,2.17,2.16
502.52,2.24,0.06,2.24,0.06,-0.06,-0.57,-0.26,2.18,2.18,2.18
507.55,2.24,0.04,2.24,0.04,-0.04,-0.55,-0.22,2.19,2.20,2.20
512.62,2.24,0.02,2.24,0.03,-0.03,-0.53,-0.19,2.21,2.21,2.22
