frequency,raw,error,smoothed,error_smoothed,equalization,parametric_eq,fixed_band_eq,equalized_raw,equalized_smoothed,target
20.00,-6.39,-7.54,-6.39,-7.54,6.00,4.96,1.88,-0.39,-0.39,1.15
20.20,-6.30,-7.45,-6.30,-7.45,6.00,5.10,1.93,-0.30,-0.30,1.15
20.40,-6.21,-7.36,-6.21,-7.36,6.00,5.23,1.99,-0.21,-0.21,1.15
20.61,-6.11,-7.27,-6.11,-7.27,6.00,5.36,2.05,-0.11,-0.11,1.16
20.81,-6.02,-7.18,-6.02,-7.18,6.00,5.48,2.11,-0.02,-0.02,1.16
21.02,-5.93,-7.09,-5.93,-7.08,6.00,5.59,2.17,0.07,0.07,1.16
21.23,-5.83,-6.99,-5.83,-6.99,6.00,5.70,2.23,0.17,0.17,1.16
21.44,-5.72,-6.89,-5.72,-6.89,6.00,5.79,2.30,0.28,0.28,1.17
21.66,-5.62,-6.79,-5.62,-6.78,6.00,5.88,2.37,0.38,0.38,1.17
21.87,-5.52,-6.68,-5.52,-6.68,6.00,5.95,2.44,0.48,0.49,1.17
22.09,-5.41,-6.58,-5.41,-6.58,6.01,6.01,2.51,0.60,0.60,1.17
22.31,-5.31,-6.48,-5.31,-6.48,6.02,6.05,2.58,0.71,0.71,1.18
22.54,-5.20,-6.37,-5.20,-6.37,6.02,6.08,2.66,0.82,0.82,1.17
22.76,-5.09,-6.27,-5.09,-6.27,6.01,6.09,2.73,0.92,0.92,1.18
22.99,-4.98,-6.16,-4.99,-6.16,6.00,6.09,2.81,1.02,1.01,1.18
23.22,-4.89,-6.07,-4.89,-6.06,5.96,6.07,2.90,1.07,1.08,1.18
23.45,-4.79,-5.97,-4.79,-5.97,5.92,6.04,2.98,1.13,1.13,1.18
23.69,-4.70,-5.88,-4.70,-5.88,5.86,5.99,3.06,1.16,1.16,1.18
23.92,-4.60,-5.78,-4.60,-5.78,5.78,5.93,3.15,1.18,1.18,1.19
24.16,-4.50,-5.68,-4.50,-5.68,5.69,5.86,3.24,1.19,1.19,1.18
24.40,-4.40,-5.57,-4.40,-5.57,5.59,5.77,3.33,1.19,1.19,1.18
24.65,-4.30,-5.48,-4.30,-5.47,5.48,5.68,3.42,1.18,1.19,1.18
24.89,-4.19,-5.35,-4.19,-5.36,5.37,5.58,3.51,1.19,1.18,1.17
25.14,-4.10,-5.27,-4.10,-5.26,5.27,5.48,3.60,1.17,1.17,1.17
25.39,-4.01,-5.16,-4.01,-5.16,5.17,5.37,3.69,1.16,1.16,1.16
25.65,-3.92,-5.08,-3.92,-5.07,5.07,5.25,3.78,1.15,1.15,1.16
25.91,-3.83,-4.98,-3.83,-4.98,4.98,5.13,3.87,1.15,1.15,1.15
26.16,-3.75,-4.89,-3.75,-4.89,4.89,5.01,3.96,1.14,1.14,1.15
26.43,-3.67,-4.81,-3.66,-4.80,4.80,4.90,4.05,1.13,1.14,1.14
26.69,-3.58,-4.72,-3.58,-4.72,4.72,4.78,4.14,1.14,1.14,1.14
26.96,-3.50,-4.64,-3.50,-4.64,4.64,4.66,4.23,1.14,1.14,1.14
27.23,-3.43,-4.57,-3.43,-4.56,4.57,4.54,4.31,1.14,1.14,1.14
27.50,-3.35,-4.48,-3.35,-4.48,4.49,4.43,4.39,1.14,1.14,1.13
27.77,-3.28,-4.41,-3.28,-4.41,4.42,4.32,4.47,1.14,1.14,1.13
28.05,-3.21,-4.35,-3.21,-4.34,4.35,4.21,4.54,1.14,1.14,1.14
28.33,-3.14,-4.28,-3.14,-4.28,4.27,4.11,4.61,1.13,1.12,1.14
28.62,-3.07,-4.21,-3.07,-4.21,4.18,4.01,4.67,1.11,1.11,1.14
28.90,-2.99,-4.13,-2.99,-4.12,4.09,3.92,4.73,1.10,1.10,1.14
29.19,-2.89,-4.03,-2.88,-4.02,3.99,3.82,4.78,1.11,1.11,1.14
29.48,-2.76,-3.90,-2.76,-3.89,3.90,3.74,4.82,1.14,1.14,1.14
29.78,-2.63,-3.77,-2.64,-3.77,3.81,3.65,4.85,1.18,1.17,1.14
30.08,-2.53,-3.66,-2.54,-3.67,3.71,3.57,4.88,1.18,1.17,1.13
30.38,-2.47,-3.60,-2.47,-3.60,3.62,3.49,4.90,1.15,1.15,1.13
30.68,-2.42,-3.55,-2.41,-3.54,3.53,3.42,4.91,1.11,1.11,1.13
30.99,-2.36,-3.48,-2.35,-3.47,3.44,3.34,4.90,1.08,1.09,1.12
31.30,-2.27,-3.39,-2.27,-3.39,3.36,3.27,4.89,1.09,1.09,1.12
31.61,-2.18,-3.29,-2.18,-3.29,3.28,3.20,4.88,1.10,1.10,1.11
31.93,-2.08,-3.19,-2.09,-3.19,3.20,3.14,4.85,1.12,1.12,1.11
32.24,-2.01,-3.11,-2.01,-3.11,3.12,3.07,4.81,1.11,1.11,1.10
32.57,-1.94,-3.03,-1.94,-3.03,3.04,3.01,4.76,1.10,1.10,1.09
32.89,-1.87,-2.96,-1.87,-2.96,2.95,2.94,4.71,1.08,1.08,1.09
33.22,-1.80,-2.89,-1.80,-2.88,2.87,2.88,4.64,1.07,1.07,1.09
33.55,-1.72,-2.80,-1.72,-2.80,2.79,2.81,4.57,1.07,1.07,1.08
33.89,-1.64,-2.71,-1.64,-2.71,2.70,2.75,4.50,1.06,1.06,1.07
34.23,-1.56,-2.63,-1.56,-2.62,2.62,2.68,4.41,1.06,1.06,1.07
34.57,-1.48,-2.54,-1.48,-2.54,2.53,2.62,4.32,1.05,1.05,1.06
34.92,-1.40,-2.46,-1.40,-2.46,2.46,2.55,4.23,1.05,1.06,1.06
35.27,-1.32,-2.38,-1.31,-2.37,2.38,2.48,4.13,1.06,1.07,1.06
35.62,-1.24,-2.30,-1.24,-2.29,2.32,2.42,4.02,1.08,1.08,1.06
35.97,-1.16,-2.21,-1.18,-2.23,2.26,2.35,3.91,1.10,1.08,1.05
36.33,-1.14,-2.19,-1.15,-2.19,2.20,2.27,3.80,1.06,1.06,1.05
36.70,-1.13,-2.18,-1.12,-2.16,2.15,2.20,3.69,1.02,1.03,1.05
37.06,-1.10,-2.15,-1.08,-2.13,2.09,2.13,3.57,0.99,1.01,1.05
37.43,-1.01,-2.06,-1.01,-2.06,2.04,2.05,3.45,1.03,1.02,1.05
37.81,-0.92,-1.98,-0.93,-1.98,1.98,1.98,3.34,1.06,1.05,1.06
38.19,-0.84,-1.90,-0.84,-1.90,1.91,1.91,3.22,1.07,1.07,1.06
38.57,-0.77,-1.83,-0.77,-1.83,1.84,1.83,3.10,1.07,1.07,1.06
38.95,-0.70,-1.76,-0.69,-1.75,1.75,1.75,2.98,1.05,1.06,1.06
39.34,-0.61,-1.67,-0.61,-1.67,1.66,1.68,2.86,1.05,1.05,1.06
39.74,-0.53,-1.59,-0.53,-1.59,1.57,1.60,2.74,1.04,1.04,1.06
40.14,-0.44,-1.50,-0.44,-1.50,1.49,1.53,2.62,1.05,1.05,1.06
40.54,-0.35,-1.41,-0.35,-1.41,1.40,1.46,2.50,1.05,1.06,1.06
40.94,-0.25,-1.31,-0.26,-1.31,1.32,1.38,2.38,1.07,1.07,1.06
41.35,-0.18,-1.23,-0.17,-1.22,1.24,1.31,2.26,1.06,1.07,1.05
41.76,-0.10,-1.14,-0.10,-1.14,1.16,1.24,2.15,1.06,1.06,1.04
42.18,-0.05,-1.08,-0.06,-1.09,1.09,1.17,2.03,1.04,1.02,1.03
42.60,-0.03,-1.05,-0.03,-1.04,1.02,1.10,1.92,0.99,0.99,1.02
43.03,0.00,-1.01,0.03,-0.97,0.95,1.04,1.80,0.95,0.98,1.01
43.46,0.10,-0.89,0.10,-0.89,0.89,0.97,1.69,0.99,0.99,0.99
43.90,0.20,-0.78,0.17,-0.81,0.83,0.91,1.58,1.03,0.99,0.98
44.33,0.22,-0.75,0.21,-0.76,0.76,0.84,1.47,0.98,0.97,0.97
44.78,0.22,-0.74,0.24,-0.71,0.71,0.78,1.36,0.93,0.95,0.96
45.23,0.27,-0.68,0.30,-0.65,0.65,0.72,1.26,0.92,0.94,0.95
45.68,0.38,-0.56,0.36,-0.58,0.59,0.66,1.15,0.97,0.95,0.94
46.13,0.45,-0.49,0.42,-0.52,0.53,0.61,1.05,0.98,0.95,0.94
46.60,0.45,-0.49,0.46,-0.48,0.47,0.55,0.94,0.92,0.93,0.94
47.06,0.46,-0.48,0.50,-0.44,0.41,0.49,0.84,0.87,0.91,0.94
47.53,0.57,-0.37,0.56,-0.38,0.35,0.44,0.74,0.92,0.91,0.94
48.01,0.67,-0.28,0.65,-0.29,0.30,0.39,0.64,0.97,0.95,0.95
48.49,0.73,-0.23,0.74,-0.22,0.24,0.34,0.54,0.97,0.98,0.96
48.97,0.80,-0.17,0.80,-0.16,0.20,0.29,0.44,1.00,1.00,0.97
49.46,0.85,-0.13,0.85,-0.13,0.15,0.24,0.35,1.00,1.00,0.98
49.96,0.90,-0.09,0.89,-0.10,0.10,0.19,0.25,1.00,0.99,0.99
50.46,0.92,-0.09,0.92,-0.08,0.06,0.14,0.16,0.98,0.98,1.01
50.96,0.95,-0.07,0.98,-0.04,0.02,0.10,0.06,0.97,1.00,1.02
51.47,1.04,0.01,1.04,0.01,-0.02,0.05,-0.03,1.02,1.02,1.03
51.99,1.13,0.10,1.09,0.06,-0.07,0.01,-0.12,1.06,1.02,1.03
52.51,1.13,0.10,1.13,0.11,-0.11,-0.04,-0.20,1.02,1.02,1.03
53.03,1.14,0.11,1.19,0.16,-0.16,-0.08,-0.29,0.98,1.03,1.03
53.56,1.26,0.23,1.25,0.23,-0.21,-0.12,-0.37,1.05,1.04,1.03
54.10,1.36,0.33,1.32,0.30,-0.27,-0.16,-0.46,1.09,1.05,1.03
54.64,1.36,0.34,1.36,0.34,-0.32,-0.20,-0.54,1.04,1.04,1.02
55.18,1.36,0.35,1.36,0.35,-0.38,-0.24,-0.61,0.98,0.98,1.01
55.74,1.36,0.36,1.39,0.39,-0.44,-0.28,-0.69,0.92,0.95,1.00
56.29,1.43,0.45,1.45,0.47,-0.50,-0.32,-0.76,0.93,0.95,0.98
56.86,1.56,0.59,1.52,0.56,-0.55,-0.36,-0.83,1.01,0.97,0.97
57.42,1.59,0.64,1.58,0.63,-0.59,-0.40,-0.90,1.00,0.99,0.95
58.00,1.59,0.66,1.60,0.67,-0.63,-0.43,-0.96,0.96,0.97,0.93
58.58,1.59,0.68,1.59,0.69,-0.66,-0.47,-1.02,0.93,0.93,0.91
59.16,1.59,0.70,1.59,0.70,-0.70,-0.51,-1.08,0.89,0.89,0.89
59.76,1.59,0.72,1.59,0.72,-0.73,-0.54,-1.13,0.86,0.86,0.87
60.35,1.59,0.74,1.59,0.74,-0.76,-0.58,-1.18,0.83,0.83,0.85
60.96,1.59,0.76,1.58,0.75,-0.80,-0.61,-1.23,0.79,0.78,0.83
61.57,1.59,0.77,1.61,0.79,-0.84,-0.64,-1.27,0.75,0.77,0.82
62.18,1.63,0.83,1.67,0.87,-0.89,-0.68,-1.31,0.74,0.77,0.80
62.80,1.77,0.99,1.74,0.96,-0.94,-0.71,-1.34,0.83,0.79,0.78
63.43,1.81,1.05,1.79,1.04,-0.99,-0.74,-1.37,0.82,0.80,0.76
64.07,1.81,1.07,1.82,1.09,-1.04,-0.78,-1.40,0.77,0.78,0.74
64.71,1.81,1.09,1.81,1.10,-1.08,-0.81,-1.42,0.73,0.73,0.72
65.35,1.81,1.11,1.81,1.11,-1.12,-0.84,-1.44,0.69,0.69,0.70
66.01,1.81,1.12,1.81,1.12,-1.14,-0.87,-1.46,0.67,0.67,0.69
66.67,1.81,1.13,1.81,1.13,-1.14,-0.90,-1.47,0.67,0.67,0.68
67.33,1.81,1.13,1.81,1.14,-1.14,-0.93,-1.48,0.67,0.67,0.68
68.01,1.81,1.14,1.81,1.14,-1.13,-0.96,-1.49,0.68,0.68,0.67
68.69,1.81,1.14,1.81,1.14,-1.12,-0.99,-1.50,0.69,0.69,0.67
69.37,1.81,1.13,1.81,1.14,-1.13,-1.02,-1.50,0.68,0.68,0.68
70.07,1.81,1.12,1.81,1.12,-1.14,-1.05,-1.50,0.67,0.67,0.69
70.77,1.81,1.11,1.80,1.10,-1.15,-1.08,-1.50,0.66,0.64,0.70
71.48,1.81,1.10,1.83,1.13,-1.17,-1.11,-1.50,0.64,0.66,0.71
72.19,1.86,1.14,1.90,1.18,-1.19,-1.14,-1.49,0.67,0.71,0.72
72.91,2.02,1.28,1.97,1.24,-1.21,-1.16,-1.49,0.81,0.76,0.74
73.64,2.04,1.29,2.03,1.28,-1.22,-1.19,-1.48,0.82,0.81,0.75
74.38,2.04,1.28,2.05,1.30,-1.24,-1.22,-1.48,0.80,0.81,0.76
75.12,2.04,1.27,2.04,1.28,-1.27,-1.24,-1.47,0.77,0.77,0.77
75.87,2.04,1.27,2.03,1.26,-1.30,-1.27,-1.46,0.74,0.74,0.77
76.63,2.04,1.26,2.04,1.26,-1.32,-1.30,-1.45,0.72,0.72,0.78
77.40,2.06,1.27,2.08,1.30,-1.34,-1.32,-1.45,0.72,0.75,0.79
78.17,2.13,1.33,2.15,1.36,-1.35,-1.34,-1.44,0.78,0.80,0.80
78.95,2.26,1.46,2.22,1.42,-1.38,-1.37,-1.43,0.88,0.84,0.80
79.74,2.27,1.46,2.27,1.46,-1.41,-1.39,-1.43,0.86,0.86,0.81
80.54,2.27,1.45,2.28,1.46,-1.45,-1.42,-1.42,0.82,0.82,0.82
81.35,2.27,1.44,2.27,1.45,-1.49,-1.44,-1.42,0.78,0.78,0.83
82.16,2.29,1.45,2.31,1.48,-1.52,-1.46,-1.41,0.77,0.79,0.84
82.98,2.37,1.52,2.38,1.53,-1.55,-1.48,-1.41,0.82,0.83,0.85
83.81,2.48,1.61,2.45,1.59,-1.56,-1.50,-1.41,0.92,0.89,0.87
84.65,2.50,1.62,2.50,1.62,-1.57,-1.52,-1.41,0.93,0.93,0.88
85.50,2.50,1.60,2.51,1.61,-1.57,-1.54,-1.41,0.93,0.94,0.90
86.35,2.50,1.58,2.50,1.59,-1.57,-1.56,-1.41,0.93,0.93,0.92
87.22,2.50,1.56,2.50,1.56,-1.57,-1.58,-1.41,0.93,0.93,0.94
88.09,2.50,1.54,2.50,1.54,-1.57,-1.60,-1.41,0.93,0.93,0.96
88.97,2.50,1.52,2.49,1.52,-1.57,-1.61,-1.42,0.93,0.92,0.98
89.86,2.50,1.51,2.51,1.52,-1.57,-1.63,-1.42,0.93,0.94,0.99
90.76,2.52,1.51,2.56,1.55,-1.58,-1.65,-1.43,0.94,0.98,1.01
91.66,2.65,1.62,2.63,1.60,-1.59,-1.66,-1.44,1.06,1.04,1.03
92.58,2.72,1.67,2.69,1.65,-1.60,-1.67,-1.45,1.12,1.09,1.05
93.51,2.72,1.65,2.73,1.66,-1.61,-1.69,-1.46,1.11,1.11,1.07
94.44,2.72,1.63,2.73,1.64,-1.62,-1.70,-1.47,1.10,1.11,1.09
95.39,2.72,1.61,2.72,1.61,-1.62,-1.71,-1.48,1.10,1.10,1.11
96.34,2.72,1.59,2.72,1.59,-1.61,-1.72,-1.49,1.11,1.11,1.13
97.30,2.72,1.57,2.72,1.57,-1.59,-1.73,-1.51,1.14,1.14,1.15
98.28,2.72,1.55,2.72,1.55,-1.56,-1.74,-1.52,1.16,1.16,1.17
99.26,2.72,1.53,2.72,1.54,-1.54,-1.75,-1.54,1.18,1.18,1.19
100.25,2.72,1.52,2.72,1.52,-1.52,-1.76,-1.56,1.20,1.20,1.20
101.25,2.72,1.50,2.72,1.51,-1.51,-1.77,-1.58,1.21,1.21,1.22
102.27,2.72,1.49,2.72,1.49,-1.49,-1.77,-1.59,1.23,1.23,1.23
103.29,2.72,1.48,2.72,1.49,-1.48,-1.78,-1.61,1.24,1.24,1.24
104.32,2.72,1.48,2.72,1.48,-1.47,-1.78,-1.63,1.25,1.25,1.24
105.37,2.72,1.48,2.72,1.48,-1.47,-1.79,-1.65,1.25,1.25,1.24
106.42,2.72,1.48,2.72,1.49,-1.48,-1.79,-1.67,1.24,1.24,1.24
107.48,2.72,1.49,2.72,1.50,-1.50,-1.79,-1.69,1.22,1.22,1.23
108.56,2.72,1.51,2.70,1.49,-1.54,-1.79,-1.71,1.18,1.16,1.21
109.64,2.72,1.52,2.73,1.53,-1.58,-1.80,-1.73,1.14,1.15,1.20
110.74,2.73,1.54,2.79,1.61,-1.63,-1.79,-1.74,1.10,1.16,1.19
111.85,2.92,1.74,2.87,1.69,-1.68,-1.79,-1.76,1.24,1.19,1.18
112.97,2.95,1.79,2.93,1.77,-1.73,-1.79,-1.78,1.22,1.20,1.16
114.10,2.95,1.80,2.97,1.82,-1.78,-1.79,-1.79,1.17,1.19,1.15
115.24,2.95,1.81,2.95,1.82,-1.82,-1.79,-1.80,1.13,1.14,1.14
116.39,2.95,1.82,2.95,1.82,-1.84,-1.78,-1.82,1.11,1.11,1.13
117.55,2.95,1.83,2.95,1.83,-1.84,-1.78,-1.83,1.11,1.11,1.12
118.73,2.95,1.83,2.96,1.85,-1.82,-1.77,-1.84,1.13,1.14,1.12
119.92,2.95,1.83,2.95,1.83,-1.79,-1.77,-1.84,1.16,1.16,1.12
121.12,2.94,1.82,2.89,1.78,-1.75,-1.76,-1.85,1.19,1.15,1.12
122.33,2.80,1.68,2.82,1.70,-1.71,-1.75,-1.85,1.09,1.11,1.12
123.55,2.72,1.59,2.75,1.63,-1.67,-1.74,-1.85,1.05,1.08,1.13
124.79,2.72,1.59,2.71,1.58,-1.63,-1.73,-1.85,1.09,1.08,1.13
126.03,2.72,1.58,2.71,1.58,-1.60,-1.72,-1.85,1.12,1.11,1.14
127.29,2.72,1.57,2.72,1.58,-1.57,-1.71,-1.84,1.15,1.15,1.15
128.57,2.72,1.57,2.72,1.57,-1.56,-1.70,-1.83,1.16,1.16,1.15
129.85,2.72,1.56,2.72,1.56,-1.55,-1.69,-1.82,1.17,1.17,1.16
131.15,2.72,1.55,2.72,1.56,-1.55,-1.68,-1.81,1.17,1.17,1.17
132.46,2.72,1.55,2.72,1.55,-1.55,-1.67,-1.80,1.17,1.17,1.17
133.79,2.72,1.55,2.72,1.55,-1.55,-1.66,-1.78,1.17,1.17,1.17
135.12,2.72,1.54,2.72,1.55,-1.55,-1.64,-1.76,1.17,1.17,1.18
136.48,2.72,1.54,2.72,1.54,-1.54,-1.63,-1.75,1.18,1.18,1.18
137.84,2.72,1.54,2.72,1.54,-1.54,-1.61,-1.73,1.18,1.18,1.18
139.22,2.72,1.53,2.72,1.54,-1.54,-1.60,-1.70,1.18,1.18,1.19
140.61,2.72,1.53,2.72,1.53,-1.53,-1.59,-1.68,1.19,1.19,1.19
142.02,2.72,1.53,2.72,1.53,-1.53,-1.57,-1.66,1.19,1.19,1.19
143.44,2.72,1.53,2.72,1.53,-1.53,-1.55,-1.63,1.19,1.19,1.19
144.87,2.72,1.53,2.72,1.54,-1.54,-1.54,-1.61,1.18,1.18,1.19
146.32,2.72,1.54,2.72,1.54,-1.54,-1.52,-1.58,1.18,1.18,1.18
147.78,2.72,1.55,2.72,1.55,-1.55,-1.51,-1.56,1.17,1.17,1.17
149.26,2.72,1.56,2.72,1.57,-1.57,-1.49,-1.53,1.15,1.15,1.16
150.75,2.72,1.58,2.72,1.58,-1.59,-1.47,-1.50,1.13,1.13,1.14
152.26,2.72,1.60,2.72,1.61,-1.61,-1.46,-1.48,1.11,1.11,1.12
153.78,2.72,1.63,2.72,1.63,-1.64,-1.44,-1.45,1.08,1.08,1.09
155.32,2.72,1.66,2.72,1.66,-1.67,-1.42,-1.43,1.05,1.05,1.06
156.88,2.72,1.69,2.72,1.69,-1.70,-1.40,-1.40,1.02,1.02,1.03
158.44,2.72,1.71,2.72,1.72,-1.73,-1.39,-1.38,1.00,1.00,1.01
160.03,2.72,1.73,2.72,1.74,-1.74,-1.37,-1.35,0.98,0.98,0.99
161.63,2.72,1.75,2.72,1.75,-1.75,-1.35,-1.33,0.97,0.98,0.97
163.24,2.72,1.76,2.73,1.77,-1.74,-1.33,-1.31,0.98,0.99,0.96
164.88,2.72,1.77,2.71,1.76,-1.71,-1.31,-1.29,1.01,1.00,0.95
166.53,2.69,1.74,2.66,1.71,-1.67,-1.30,-1.27,1.02,0.98,0.95
168.19,2.57,1.62,2.59,1.64,-1.63,-1.28,-1.25,0.94,0.96,0.95
169.87,2.50,1.54,2.53,1.57,-1.59,-1.26,-1.23,0.91,0.93,0.96
171.57,2.50,1.52,2.49,1.52,-1.56,-1.24,-1.21,0.94,0.93,0.98
173.29,2.50,1.50,2.48,1.48,-1.54,-1.22,-1.19,0.96,0.94,1.00
175.02,2.50,1.48,2.50,1.48,-1.53,-1.21,-1.17,0.97,0.98,1.02
176.77,2.50,1.45,2.56,1.51,-1.53,-1.19,-1.16,0.98,1.03,1.05
178.54,2.67,1.59,2.63,1.55,-1.53,-1.17,-1.14,1.14,1.10,1.08
180.32,2.72,1.61,2.70,1.59,-1.54,-1.15,-1.13,1.18,1.16,1.11
182.13,2.72,1.58,2.73,1.60,-1.55,-1.13,-1.12,1.17,1.18,1.14
183.95,2.72,1.56,2.73,1.57,-1.56,-1.12,-1.11,1.16,1.17,1.16
185.79,2.72,1.54,2.72,1.54,-1.56,-1.10,-1.09,1.16,1.16,1.18
187.65,2.72,1.52,2.72,1.53,-1.56,-1.08,-1.08,1.16,1.16,1.20
189.52,2.72,1.51,2.72,1.51,-1.54,-1.06,-1.07,1.18,1.18,1.21
191.42,2.72,1.50,2.72,1.51,-1.51,-1.04,-1.07,1.21,1.21,1.22
193.33,2.72,1.50,2.73,1.51,-1.48,-1.03,-1.06,1.24,1.25,1.22
195.27,2.72,1.49,2.72,1.50,-1.45,-1.01,-1.05,1.27,1.27,1.23
197.22,2.72,1.48,2.67,1.44,-1.42,-0.99,-1.05,1.30,1.25,1.24
199.19,2.59,1.35,2.60,1.37,-1.39,-0.98,-1.04,1.20,1.22,1.24
201.18,2.50,1.26,2.54,1.31,-1.34,-0.96,-1.03,1.16,1.20,1.24
203.19,2.50,1.26,2.50,1.26,-1.28,-0.94,-1.03,1.22,1.22,1.24
205.23,2.50,1.26,2.46,1.23,-1.21,-0.93,-1.03,1.29,1.25,1.24
207.28,2.42,1.19,2.42,1.19,-1.14,-0.91,-1.02,1.28,1.28,1.23
209.35,2.30,1.08,2.33,1.11,-1.07,-0.89,-1.02,1.23,1.26,1.22
211.44,2.27,1.05,2.22,1.01,-1.01,-0.88,-1.01,1.26,1.21,1.22
213.56,2.11,0.90,2.13,0.92,-0.96,-0.86,-1.01,1.15,1.17,1.21
215.69,2.04,0.83,2.07,0.86,-0.92,-0.84,-1.01,1.12,1.14,1.21
217.85,2.04,0.84,2.03,0.83,-0.89,-0.83,-1.00,1.15,1.14,1.20
220.03,2.04,0.84,2.03,0.84,-0.86,-0.81,-1.00,1.18,1.17,1.20
222.23,2.04,0.85,2.04,0.85,-0.83,-0.80,-1.00,1.21,1.21,1.19
224.45,2.04,0.85,2.06,0.87,-0.81,-0.78,-0.99,1.23,1.24,1.19
226.70,2.04,0.86,2.04,0.86,-0.80,-0.77,-0.99,1.24,1.24,1.18
228.96,2.04,0.86,1.98,0.81,-0.78,-0.75,-0.98,1.26,1.20,1.18
231.25,1.87,0.70,1.91,0.74,-0.76,-0.74,-0.97,1.11,1.15,1.17
233.57,1.81,0.64,1.84,0.67,-0.72,-0.72,-0.97,1.09,1.12,1.17
235.90,1.81,0.64,1.81,0.65,-0.66,-0.71,-0.96,1.15,1.15,1.17
238.26,1.81,0.65,1.80,0.64,-0.61,-0.69,-0.95,1.20,1.19,1.16
240.64,1.81,0.65,1.76,0.60,-0.57,-0.68,-0.94,1.24,1.19,1.16
243.05,1.66,0.50,1.69,0.53,-0.53,-0.66,-0.93,1.13,1.15,1.16
245.48,1.59,0.43,1.62,0.46,-0.51,-0.65,-0.91,1.08,1.12,1.16
247.93,1.59,0.43,1.58,0.42,-0.48,-0.64,-0.90,1.11,1.10,1.16
250.41,1.59,0.43,1.58,0.43,-0.45,-0.62,-0.88,1.14,1.14,1.16
252.92,1.59,0.43,1.60,0.45,-0.41,-0.61,-0.87,1.18,1.20,1.16
255.45,1.59,0.43,1.59,0.43,-0.37,-0.60,-0.85,1.22,1.22,1.16
258.00,1.59,0.43,1.54,0.38,-0.34,-0.58,-0.83,1.25,1.20,1.16
260.58,1.44,0.28,1.47,0.31,-0.31,-0.57,-0.81,1.13,1.16,1.16
263.19,1.37,0.22,1.40,0.25,-0.29,-0.56,-0.79,1.09,1.11,1.15
265.82,1.36,0.21,1.35,0.21,-0.26,-0.54,-0.76,1.10,1.09,1.15
268.48,1.36,0.21,1.35,0.21,-0.24,-0.53,-0.74,1.12,1.12,1.15
271.16,1.36,0.22,1.36,0.22,-0.22,-0.52,-0.71,1.14,1.14,1.14
273.87,1.36,0.22,1.36,0.22,-0.21,-0.51,-0.68,1.15,1.15,1.14
276.61,1.36,0.22,1.36,0.23,-0.21,-0.49,-0.66,1.15,1.15,1.14
279.38,1.36,0.23,1.36,0.23,-0.22,-0.48,-0.63,1.14,1.14,1.13
282.17,1.36,0.23,1.36,0.23,-0.23,-0.47,-0.60,1.13,1.13,1.13
284.99,1.36,0.23,1.36,0.23,-0.23,-0.46,-0.57,1.13,1.13,1.13
287.84,1.36,0.23,1.36,0.23,-0.23,-0.45,-0.53,1.13,1.13,1.13
290.72,1.36,0.23,1.36,0.23,-0.23,-0.43,-0.50,1.13,1.13,1.13
293.63,1.36,0.23,1.36,0.23,-0.23,-0.42,-0.47,1.13,1.13,1.13
296.57,1.36,0.23,1.36,0.23,-0.23,-0.41,-0.44,1.13,1.13,1.13
299.53,1.36,0.23,1.36,0.24,-0.24,-0.40,-0.40,1.12,1.12,1.13
302.53,1.36,0.24,1.36,0.24,-0.24,-0.39,-0.37,1.12,1.12,1.12
305.55,1.36,0.24,1.36,0.24,-0.24,-0.38,-0.33,1.12,1.12,1.12
308.61,1.36,0.24,1.36,0.25,-0.25,-0.37,-0.30,1.11,1.11,1.12
311.69,1.36,0.25,1.36,0.25,-0.27,-0.35,-0.26,1.09,1.09,1.11
314.81,1.36,0.26,1.36,0.26,-0.28,-0.34,-0.23,1.08,1.08,1.10
317.96,1.36,0.27,1.36,0.28,-0.29,-0.33,-0.19,1.07,1.07,1.09
321.14,1.36,0.29,1.36,0.29,-0.29,-0.32,-0.15,1.07,1.07,1.07
324.35,1.36,0.30,1.37,0.31,-0.28,-0.31,-0.12,1.08,1.09,1.06
327.59,1.36,0.31,1.37,0.32,-0.27,-0.30,-0.08,1.09,1.10,1.05
330.87,1.36,0.32,1.32,0.28,-0.25,-0.29,-0.04,1.11,1.07,1.04
334.18,1.25,0.22,1.25,0.22,-0.23,-0.28,-0.00,1.02,1.02,1.03
337.52,1.14,0.12,1.18,0.16,-0.21,-0.26,0.03,0.93,0.97,1.02
340.90,1.13,0.11,1.13,0.12,-0.18,-0.25,0.07,0.95,0.95,1.02
344.30,1.13,0.12,1.12,0.11,-0.15,-0.24,0.11,0.99,0.98,1.01
347.75,1.13,0.12,1.14,0.13,-0.11,-0.23,0.15,1.03,1.03,1.01
351.23,1.13,0.12,1.13,0.13,-0.07,-0.22,0.19,1.06,1.07,1.01
354.74,1.13,0.12,1.09,0.09,-0.03,-0.21,0.22,1.10,1.06,1.01
358.28,1.02,0.01,1.03,0.02,-0.00,-0.20,0.26,1.02,1.02,1.01
361.87,0.93,-0.09,0.96,-0.06,0.03,-0.18,0.30,0.96,0.98,1.02
365.49,0.90,-0.12,0.90,-0.11,0.06,-0.17,0.34,0.96,0.96,1.02
369.14,0.90,-0.12,0.89,-0.12,0.09,-0.16,0.38,0.99,0.98,1.02
372.83,0.90,-0.12,0.90,-0.12,0.12,-0.15,0.42,1.02,1.01,1.02
376.56,0.90,-0.13,0.90,-0.12,0.13,-0.14,0.46,1.03,1.03,1.03
380.33,0.90,-0.13,0.90,-0.13,0.14,-0.12,0.50,1.04,1.04,1.03
384.13,0.90,-0.13,0.90,-0.13,0.14,-0.11,0.54,1.04,1.04,1.03
387.97,0.90,-0.13,0.90,-0.13,0.13,-0.10,0.58,1.03,1.03,1.03
391.85,0.90,-0.13,0.90,-0.13,0.13,-0.09,0.62,1.03,1.03,1.03
395.77,0.90,-0.13,0.90,-0.13,0.13,-0.07,0.66,1.03,1.03,1.03
399.73,0.90,-0.14,0.90,-0.13,0.13,-0.06,0.70,1.03,1.03,1.04
403.72,0.90,-0.14,0.90,-0.14,0.13,-0.05,0.74,1.03,1.03,1.04
407.76,0.90,-0.14,0.90,-0.14,0.14,-0.03,0.78,1.04,1.04,1.04
411.84,0.90,-0.14,0.90,-0.14,0.14,-0.02,0.82,1.04,1.04,1.04
415.96,0.90,-0.14,0.90,-0.14,0.14,-0.00,0.86,1.04,1.04,1.04
420.12,0.90,-0.14,0.90,-0.14,0.14,0.01,0.89,1.04,1.04,1.04
424.32,0.90,-0.14,0.90,-0.14,0.14,0.03,0.93,1.04,1.04,1.04
428.56,0.90,-0.14,0.90,-0.14,0.13,0.04,0.97,1.03,1.03,1.04
432.85,0.90,-0.14,0.90,-0.14,0.12,0.06,1.01,1.02,1.02,1.04
437.18,0.90,-0.14,0.90,-0.13,0.12,0.08,1.04,1.02,1.02,1.04
441.55,0.90,-0.13,0.90,-0.13,0.12,0.10,1.08,1.02,1.02,1.03
445.96,0.90,-0.13,0.91,-0.12,0.13,0.12,1.11,1.03,1.04,1.03
450.42,0.90,-0.13,0.91,-0.11,0.15,0.14,1.14,1.05,1.06,1.03
454.93,0.90,-0.13,0.88,-0.14,0.18,0.16,1.17,1.08,1.06,1.03
459.48,0.85,-0.17,0.82,-0.21,0.21,0.18,1.20,1.06,1.03,1.02
464.07,0.70,-0.33,0.74,-0.28,0.26,0.20,1.23,0.96,1.00,1.03
468.71,0.67,-0.36,0.70,-0.33,0.31,0.22,1.26,0.98,1.01,1.03
473.40,0.67,-0.36,0.65,-0.37,0.37,0.25,1.28,1.04,1.02,1.03
478.13,0.67,-0.36,0.61,-0.42,0.42,0.27,1.30,1.10,1.03,1.03
482.91,0.50,-0.54,0.54,-0.49,0.49,0.30,1.32,0.99,1.03,1.04
487.74,0.45,-0.59,0.49,-0.55,0.54,0.33,1.34,0.99,1.03,1.04
492.62,0.45,-0.60,0.44,-0.60,0.60,0.36,1.35,1.05,1.04,1.05
497.55,0.45,-0.60,0.40,-0.65,0.66,0.39,1.37,1.11,1.06,1.05
502.52,0.32,-0.74,0.34,-0.72,0.73,0.43,1.38,1.05,1.06,1.06
507.55,0.23,-0.84,0.28,-0.79,0.80,0.47,1.39,1.03,1.07,1.07
512.62,0.22,-0.85,0.20,-0.87,0.87,0.50,1.39,1.09,1.07,1.07
517.75,0.18,-0.90,0.15,-0.93,0.95,0.55,1.40,1.13,1.09,1.08
522.93,0.03,-1.05,0.07,-1.01,1.02,0.59,1.40,1.05,1.09,1.08
528.16,-0.01,-1.09,-0.04,-1.11,1.10,0.64,1.40,1.09,1.06,1.08
533.44,-0.13,-1.21,-0.13,-1.21,1.17,0.69,1.40,1.04,1.04,1.08
538.77,-0.22,-1.30,-0.18,-1.26,1.24,0.74,1.40,1.02,1.06,1.08
544.16,-0.24,-1.32,-0.25,-1.32,1.32,0.80,1.39,1.08,1.07,1.08
