frequency,raw,error,smoothed,error_smoothed,equalization,parametric_eq,fixed_band_eq,equalized_raw,equalized_smoothed,target
20.00,0.91,-2.22,0.90,-2.22,2.19,2.17,0.43,3.10,3.09,3.13
20.20,0.96,-2.17,0.96,-2.17,2.16,2.14,0.44,3.12,3.12,3.13
20.40,1.00,-2.13,1.01,-2.12,2.13,2.11,0.45,3.13,3.14,3.13
20.61,1.05,-2.09,1.05,-2.08,2.10,2.08,0.47,3.15,3.16,3.14
20.81,1.10,-2.04,1.10,-2.04,2.08,2.05,0.48,3.18,3.17,3.14
21.02,1.14,-2.00,1.13,-2.01,2.05,2.02,0.49,3.19,3.18,3.14
21.23,1.14,-2.00,1.15,-2.00,2.03,1.99,0.50,3.17,3.17,3.14
21.44,1.15,-2.00,1.15,-2.00,2.00,1.96,0.52,3.15,3.15,3.15
21.66,1.15,-2.00,1.15,-2.00,1.98,1.93,0.53,3.13,3.13,3.15
21.87,1.16,-1.99,1.16,-1.99,1.97,1.90,0.55,3.13,3.13,3.15
22.09,1.18,-1.97,1.19,-1.96,1.94,1.87,0.56,3.13,3.13,3.15
22.31,1.23,-1.93,1.22,-1.93,1.92,1.84,0.58,3.15,3.14,3.16
22.54,1.27,-1.88,1.27,-1.88,1.88,1.81,0.59,3.15,3.15,3.15
22.76,1.32,-1.84,1.32,-1.84,1.84,1.77,0.61,3.16,3.16,3.16
22.99,1.37,-1.79,1.37,-1.79,1.79,1.74,0.62,3.16,3.16,3.16
23.22,1.42,-1.74,1.42,-1.73,1.74,1.71,0.64,3.16,3.16,3.16
23.45,1.48,-1.68,1.48,-1.68,1.68,1.68,0.65,3.16,3.16,3.16
23.69,1.53,-1.63,1.53,-1.63,1.63,1.65,0.67,3.16,3.16,3.16
23.92,1.58,-1.58,1.58,-1.58,1.57,1.62,0.69,3.15,3.16,3.17
24.16,1.63,-1.52,1.63,-1.53,1.52,1.59,0.71,3.15,3.15,3.15
24.40,1.68,-1.47,1.68,-1.48,1.48,1.56,0.72,3.16,3.16,3.15
24.65,1.72,-1.43,1.73,-1.42,1.44,1.53,0.74,3.16,3.17,3.15
24.89,1.77,-1.37,1.76,-1.38,1.40,1.51,0.76,3.18,3.17,3.14
25.14,1.79,-1.35,1.79,-1.35,1.37,1.48,0.78,3.16,3.16,3.14
25.39,1.80,-1.33,1.80,-1.33,1.34,1.45,0.79,3.14,3.14,3.13
25.65,1.81,-1.32,1.81,-1.32,1.30,1.42,0.81,3.11,3.11,3.13
25.91,1.82,-1.30,1.83,-1.30,1.26,1.39,0.83,3.08,3.09,3.12
26.16,1.86,-1.26,1.86,-1.25,1.22,1.36,0.85,3.08,3.09,3.12
26.43,1.92,-1.19,1.92,-1.19,1.19,1.34,0.86,3.11,3.11,3.11
26.69,1.98,-1.13,1.98,-1.13,1.16,1.31,0.88,3.14,3.14,3.11
26.96,2.04,-1.07,2.03,-1.08,1.12,1.28,0.90,3.16,3.15,3.11
27.23,2.05,-1.06,2.05,-1.06,1.09,1.26,0.91,3.14,3.14,3.11
27.50,2.05,-1.05,2.05,-1.05,1.05,1.23,0.93,3.10,3.10,3.10
27.77,2.05,-1.05,2.05,-1.05,1.01,1.20,0.94,3.06,3.07,3.10
28.05,2.06,-1.05,2.08,-1.03,0.98,1.18,0.95,3.04,3.06,3.11
28.33,2.13,-0.97,2.13,-0.98,0.95,1.15,0.96,3.08,3.08,3.11
28.62,2.19,-0.92,2.19,-0.91,0.93,1.13,0.97,3.12,3.12,3.10
28.90,2.26,-0.84,2.25,-0.86,0.90,1.10,0.98,3.16,3.14,3.10
29.19,2.28,-0.82,2.27,-0.83,0.86,1.08,0.99,3.14,3.14,3.10
29.48,2.28,-0.82,2.28,-0.82,0.83,1.06,1.00,3.11,3.11,3.10
29.78,2.28,-0.82,2.28,-0.81,0.79,1.03,1.01,3.07,3.07,3.10
30.08,2.29,-0.80,2.30,-0.79,0.76,1.01,1.01,3.05,3.06,3.09
30.38,2.34,-0.75,2.34,-0.75,0.73,0.99,1.01,3.07,3.07,3.09
30.68,2.39,-0.70,2.39,-0.70,0.69,0.96,1.01,3.08,3.08,3.09
30.99,2.44,-0.64,2.43,-0.65,0.66,0.94,1.01,3.10,3.09,3.08
31.30,2.46,-0.62,2.46,-0.61,0.63,0.92,1.01,3.09,3.09,3.08
31.61,2.48,-0.58,2.48,-0.58,0.60,0.90,1.01,3.08,3.08,3.06
31.93,2.50,-0.56,2.50,-0.56,0.57,0.88,1.00,3.07,3.07,3.06
32.24,2.51,-0.54,2.51,-0.54,0.56,0.86,0.99,3.07,3.07,3.05
32.57,2.51,-0.53,2.51,-0.53,0.55,0.84,0.98,3.06,3.06,3.04
32.89,2.51,-0.53,2.51,-0.53,0.53,0.81,0.97,3.04,3.04,3.04
33.22,2.51,-0.53,2.51,-0.53,0.51,0.79,0.96,3.02,3.02,3.04
33.55,2.51,-0.52,2.50,-0.52,0.48,0.78,0.95,2.99,2.99,3.03
33.89,2.51,-0.50,2.52,-0.49,0.45,0.76,0.94,2.96,2.97,3.01
34.23,2.56,-0.45,2.57,-0.44,0.41,0.74,0.92,2.97,2.98,3.01
34.57,2.64,-0.36,2.64,-0.36,0.37,0.72,0.91,3.01,3.01,3.00
34.92,2.72,-0.28,2.70,-0.30,0.33,0.70,0.89,3.05,3.03,3.00
35.27,2.74,-0.26,2.74,-0.26,0.30,0.68,0.87,3.04,3.03,3.00
35.62,2.74,-0.25,2.75,-0.24,0.27,0.66,0.85,3.01,3.01,2.99
35.97,2.74,-0.24,2.74,-0.24,0.24,0.65,0.84,2.98,2.99,2.98
36.33,2.74,-0.24,2.74,-0.24,0.23,0.63,0.82,2.97,2.97,2.98
36.70,2.74,-0.24,2.74,-0.24,0.23,0.61,0.80,2.97,2.97,2.98
37.06,2.74,-0.24,2.74,-0.24,0.23,0.60,0.78,2.97,2.97,2.98
37.43,2.74,-0.23,2.74,-0.24,0.24,0.58,0.76,2.98,2.98,2.97
37.81,2.74,-0.24,2.74,-0.24,0.24,0.57,0.74,2.98,2.98,2.98
38.19,2.74,-0.24,2.74,-0.24,0.24,0.55,0.72,2.98,2.98,2.98
38.57,2.74,-0.24,2.74,-0.24,0.23,0.54,0.70,2.97,2.97,2.98
38.95,2.74,-0.23,2.74,-0.23,0.21,0.52,0.68,2.95,2.95,2.97
39.34,2.75,-0.22,2.75,-0.22,0.19,0.51,0.66,2.94,2.93,2.97
39.74,2.76,-0.21,2.77,-0.20,0.16,0.50,0.64,2.92,2.93,2.97
40.14,2.80,-0.16,2.82,-0.14,0.14,0.48,0.62,2.94,2.97,2.96
40.54,2.87,-0.09,2.88,-0.08,0.13,0.47,0.60,3.00,3.01,2.96
40.94,2.95,-0.01,2.90,-0.05,0.12,0.46,0.58,3.07,3.02,2.96
41.35,2.88,-0.06,2.87,-0.07,0.12,0.45,0.56,3.00,2.99,2.94
41.76,2.79,-0.14,2.81,-0.12,0.11,0.44,0.54,2.90,2.93,2.93
42.18,2.74,-0.17,2.75,-0.16,0.11,0.43,0.53,2.85,2.87,2.91
42.60,2.74,-0.16,2.73,-0.17,0.12,0.42,0.51,2.86,2.85,2.90
43.03,2.74,-0.15,2.74,-0.15,0.13,0.41,0.49,2.87,2.86,2.89
43.46,2.74,-0.12,2.74,-0.13,0.13,0.40,0.48,2.87,2.87,2.86
43.90,2.74,-0.11,2.74,-0.11,0.12,0.40,0.46,2.86,2.86,2.85
44.33,2.74,-0.09,2.74,-0.09,0.09,0.39,0.44,2.83,2.83,2.83
44.78,2.74,-0.08,2.74,-0.08,0.07,0.39,0.43,2.81,2.81,2.82
45.23,2.74,-0.06,2.74,-0.06,0.05,0.38,0.42,2.79,2.79,2.80
45.68,2.74,-0.05,2.74,-0.05,0.05,0.38,0.40,2.79,2.79,2.79
46.13,2.74,-0.04,2.75,-0.03,0.06,0.38,0.39,2.80,2.81,2.78
46.60,2.74,-0.04,2.74,-0.03,0.07,0.39,0.37,2.81,2.81,2.78
47.06,2.73,-0.04,2.69,-0.08,0.10,0.39,0.36,2.83,2.79,2.77
47.53,2.62,-0.15,2.62,-0.15,0.14,0.40,0.35,2.76,2.76,2.76
48.01,2.51,-0.26,2.56,-0.21,0.19,0.41,0.34,2.70,2.75,2.77
48.49,2.51,-0.26,2.51,-0.26,0.25,0.43,0.32,2.76,2.76,2.77
48.97,2.51,-0.27,2.46,-0.31,0.32,0.45,0.31,2.83,2.78,2.77
49.46,2.40,-0.38,2.40,-0.38,0.39,0.47,0.30,2.79,2.80,2.78
49.96,2.29,-0.49,2.33,-0.45,0.47,0.50,0.29,2.76,2.80,2.78
50.46,2.26,-0.53,2.26,-0.53,0.53,0.54,0.28,2.79,2.79,2.79
50.96,2.23,-0.56,2.20,-0.60,0.58,0.58,0.27,2.81,2.78,2.79
51.47,2.14,-0.66,2.14,-0.66,0.63,0.62,0.25,2.77,2.77,2.80
51.99,2.05,-0.74,2.08,-0.71,0.67,0.67,0.24,2.72,2.75,2.79
52.51,2.05,-0.73,2.05,-0.73,0.71,0.72,0.23,2.76,2.76,2.78
53.03,2.05,-0.72,2.05,-0.72,0.75,0.77,0.22,2.80,2.80,2.77
53.56,2.05,-0.71,2.04,-0.72,0.78,0.81,0.21,2.83,2.82,2.76
54.10,2.03,-0.72,1.99,-0.76,0.80,0.85,0.20,2.83,2.79,2.75
54.64,1.90,-0.83,1.92,-0.81,0.81,0.86,0.19,2.71,2.73,2.73
55.18,1.82,-0.89,1.85,-0.86,0.82,0.86,0.17,2.64,2.68,2.71
55.74,1.82,-0.87,1.81,-0.88,0.83,0.84,0.16,2.65,2.64,2.69
56.29,1.82,-0.84,1.81,-0.85,0.83,0.79,0.15,2.65,2.64,2.66
56.86,1.82,-0.82,1.82,-0.81,0.82,0.73,0.14,2.64,2.64,2.64
57.42,1.82,-0.78,1.82,-0.78,0.80,0.66,0.12,2.62,2.62,2.60
58.00,1.82,-0.75,1.82,-0.75,0.77,0.58,0.11,2.59,2.59,2.57
58.58,1.82,-0.72,1.82,-0.72,0.74,0.50,0.09,2.56,2.56,2.54
59.16,1.82,-0.69,1.82,-0.69,0.70,0.42,0.08,2.52,2.52,2.51
59.76,1.82,-0.65,1.82,-0.65,0.66,0.34,0.06,2.48,2.48,2.47
60.35,1.82,-0.62,1.82,-0.62,0.61,0.27,0.04,2.43,2.43,2.44
60.96,1.82,-0.58,1.81,-0.60,0.55,0.20,0.02,2.37,2.36,2.40
61.57,1.82,-0.56,1.84,-0.54,0.49,0.14,0.01,2.31,2.33,2.38
62.18,1.86,-0.48,1.90,-0.44,0.43,0.08,-0.01,2.29,2.33,2.34
62.80,2.01,-0.30,1.97,-0.34,0.37,0.02,-0.04,2.38,2.34,2.31
63.43,2.05,-0.22,2.03,-0.24,0.30,-0.02,-0.06,2.35,2.34,2.27
64.07,2.05,-0.18,2.06,-0.17,0.23,-0.07,-0.08,2.28,2.29,2.23
64.71,2.05,-0.15,2.04,-0.16,0.14,-0.11,-0.10,2.19,2.18,2.20
65.35,2.05,-0.11,2.05,-0.11,0.06,-0.15,-0.13,2.11,2.10,2.16
66.01,2.05,-0.08,2.10,-0.03,-0.02,-0.19,-0.15,2.03,2.08,2.13
66.67,2.20,0.10,2.18,0.08,-0.10,-0.23,-0.18,2.10,2.08,2.10
67.33,2.31,0.23,2.29,0.21,-0.19,-0.26,-0.21,2.12,2.10,2.08
68.01,2.38,0.33,2.40,0.34,-0.29,-0.29,-0.24,2.09,2.11,2.05
68.69,2.47,0.44,2.45,0.41,-0.40,-0.32,-0.27,2.07,2.05,2.03
69.37,2.51,0.49,2.50,0.48,-0.51,-0.35,-0.30,2.00,1.99,2.02
70.07,2.53,0.52,2.58,0.57,-0.62,-0.38,-0.33,1.91,1.96,2.01
70.77,2.69,0.69,2.70,0.70,-0.72,-0.41,-0.36,1.97,1.98,2.00
71.48,2.85,0.87,2.83,0.84,-0.82,-0.44,-0.39,2.03,2.01,1.98
72.19,2.96,0.99,2.93,0.95,-0.91,-0.47,-0.43,2.05,2.01,1.97
72.91,2.96,1.00,2.96,1.00,-1.00,-0.50,-0.46,1.96,1.96,1.96
73.64,2.96,1.01,2.99,1.04,-1.07,-0.52,-0.50,1.89,1.92,1.95
74.38,3.02,1.09,3.05,1.12,-1.13,-0.55,-0.54,1.89,1.93,1.93
75.12,3.14,1.22,3.11,1.20,-1.16,-0.58,-0.58,1.98,1.96,1.92
75.87,3.18,1.29,3.13,1.24,-1.17,-0.61,-0.61,2.01,1.96,1.89
76.63,3.08,1.20,3.09,1.22,-1.18,-0.63,-0.65,1.90,1.91,1.87
77.40,2.99,1.13,3.02,1.16,-1.18,-0.66,-0.70,1.81,1.84,1.86
78.17,2.96,1.12,2.96,1.13,-1.18,-0.69,-0.74,1.78,1.78,1.84
78.95,2.96,1.15,2.95,1.14,-1.18,-0.71,-0.78,1.78,1.77,1.81
79.74,2.96,1.17,2.96,1.17,-1.18,-0.74,-0.82,1.78,1.77,1.79
80.54,2.96,1.19,2.96,1.19,-1.19,-0.77,-0.87,1.77,1.77,1.77
81.35,2.96,1.21,2.96,1.21,-1.20,-0.80,-0.91,1.76,1.76,1.75
82.16,2.96,1.23,2.96,1.23,-1.22,-0.82,-0.96,1.74,1.74,1.73
82.98,2.96,1.25,2.96,1.25,-1.25,-0.85,-1.01,1.71,1.71,1.71
83.81,2.96,1.27,2.96,1.27,-1.27,-0.88,-1.06,1.69,1.69,1.69
84.65,2.96,1.29,2.96,1.29,-1.29,-0.91,-1.11,1.67,1.67,1.67
85.50,2.96,1.30,2.96,1.30,-1.30,-0.94,-1.16,1.66,1.66,1.66
86.35,2.96,1.32,2.96,1.32,-1.32,-0.97,-1.21,1.64,1.64,1.64
87.22,2.96,1.33,2.96,1.33,-1.33,-1.00,-1.26,1.63,1.63,1.63
88.09,2.96,1.35,2.96,1.35,-1.35,-1.03,-1.31,1.61,1.61,1.61
88.97,2.96,1.36,2.96,1.36,-1.37,-1.06,-1.37,1.59,1.59,1.60
89.86,2.96,1.39,2.96,1.38,-1.38,-1.09,-1.43,1.58,1.58,1.57
90.76,2.96,1.40,2.96,1.40,-1.40,-1.13,-1.48,1.56,1.56,1.56
91.66,2.96,1.42,2.96,1.42,-1.42,-1.16,-1.54,1.54,1.54,1.54
92.58,2.96,1.44,2.96,1.44,-1.44,-1.19,-1.60,1.52,1.52,1.52
93.51,2.96,1.45,2.96,1.45,-1.45,-1.22,-1.66,1.51,1.51,1.51
94.44,2.96,1.47,2.96,1.47,-1.47,-1.26,-1.72,1.49,1.49,1.49
95.39,2.96,1.49,2.96,1.49,-1.49,-1.29,-1.78,1.47,1.47,1.47
96.34,2.96,1.51,2.96,1.51,-1.51,-1.33,-1.84,1.45,1.45,1.45
97.30,2.96,1.53,2.96,1.52,-1.52,-1.36,-1.91,1.44,1.44,1.43
98.28,2.96,1.54,2.96,1.54,-1.54,-1.40,-1.97,1.42,1.42,1.42
99.26,2.96,1.56,2.96,1.57,-1.57,-1.43,-2.03,1.39,1.39,1.40
100.25,2.96,1.59,2.96,1.59,-1.59,-1.47,-2.10,1.37,1.37,1.37
101.25,2.96,1.61,2.96,1.61,-1.61,-1.51,-2.16,1.35,1.35,1.35
102.27,2.96,1.64,2.96,1.64,-1.64,-1.55,-2.23,1.32,1.32,1.32
103.29,2.96,1.67,2.96,1.67,-1.67,-1.59,-2.29,1.29,1.29,1.29
104.32,2.96,1.71,2.96,1.71,-1.71,-1.62,-2.35,1.25,1.25,1.25
105.37,2.96,1.75,2.96,1.75,-1.75,-1.66,-2.42,1.21,1.21,1.21
106.42,2.96,1.79,2.96,1.79,-1.79,-1.70,-2.48,1.17,1.17,1.17
107.48,2.96,1.84,2.96,1.84,-1.84,-1.74,-2.54,1.12,1.12,1.12
108.56,2.96,1.90,2.96,1.89,-1.89,-1.78,-2.60,1.07,1.07,1.06
109.64,2.96,1.95,2.96,1.94,-1.94,-1.83,-2.65,1.02,1.02,1.01
110.74,2.96,2.00,2.96,2.00,-2.00,-1.87,-2.71,0.96,0.96,0.96
111.85,2.96,2.04,2.96,2.05,-2.05,-1.91,-2.76,0.91,0.91,0.92
112.97,2.96,2.10,2.96,2.10,-2.10,-1.95,-2.81,0.86,0.86,0.86
114.10,2.96,2.15,2.96,2.15,-2.15,-1.99,-2.86,0.81,0.81,0.81
115.24,2.96,2.20,2.96,2.20,-2.20,-2.03,-2.90,0.76,0.76,0.76
116.39,2.96,2.25,2.96,2.25,-2.25,-2.08,-2.93,0.71,0.71,0.71
117.55,2.96,2.30,2.96,2.29,-2.29,-2.12,-2.97,0.67,0.67,0.66
118.73,2.96,2.33,2.96,2.33,-2.34,-2.16,-3.00,0.62,0.62,0.63
119.92,2.96,2.37,2.96,2.37,-2.38,-2.21,-3.02,0.58,0.58,0.59
121.12,2.96,2.41,2.96,2.41,-2.42,-2.25,-3.04,0.54,0.54,0.55
122.33,2.96,2.44,2.96,2.44,-2.45,-2.29,-3.05,0.51,0.51,0.52
123.55,2.96,2.47,2.97,2.48,-2.46,-2.33,-3.06,0.50,0.51,0.49
124.79,2.96,2.50,2.97,2.51,-2.47,-2.37,-3.06,0.49,0.50,0.46
126.03,2.96,2.53,2.94,2.51,-2.46,-2.41,-3.06,0.50,0.47,0.43
127.29,2.89,2.48,2.88,2.48,-2.46,-2.45,-3.05,0.43,0.42,0.41
128.57,2.79,2.42,2.81,2.43,-2.46,-2.49,-3.04,0.33,0.35,0.37
129.85,2.74,2.39,2.75,2.41,-2.45,-2.53,-3.02,0.29,0.30,0.35
131.15,2.74,2.41,2.73,2.41,-2.45,-2.57,-3.00,0.29,0.28,0.33
132.46,2.74,2.45,2.74,2.44,-2.45,-2.61,-2.97,0.29,0.28,0.29
133.79,2.74,2.48,2.74,2.47,-2.47,-2.64,-2.93,0.27,0.27,0.26
135.12,2.74,2.50,2.74,2.50,-2.49,-2.68,-2.89,0.25,0.25,0.24
136.48,2.74,2.53,2.74,2.53,-2.52,-2.71,-2.85,0.22,0.22,0.21
137.84,2.74,2.56,2.74,2.56,-2.55,-2.74,-2.80,0.19,0.19,0.18
139.22,2.74,2.58,2.74,2.58,-2.58,-2.77,-2.75,0.16,0.16,0.16
140.61,2.74,2.61,2.74,2.61,-2.61,-2.79,-2.70,0.13,0.13,0.13
142.02,2.74,2.64,2.74,2.64,-2.64,-2.82,-2.65,0.10,0.10,0.10
143.44,2.74,2.67,2.74,2.67,-2.67,-2.84,-2.59,0.07,0.07,0.07
144.87,2.74,2.69,2.74,2.70,-2.70,-2.86,-2.53,0.04,0.04,0.05
146.32,2.74,2.73,2.74,2.73,-2.74,-2.88,-2.46,-0.00,-0.00,0.01
147.78,2.74,2.77,2.74,2.77,-2.78,-2.89,-2.40,-0.04,-0.04,-0.03
149.26,2.74,2.80,2.74,2.80,-2.83,-2.90,-2.34,-0.09,-0.09,-0.06
150.75,2.74,2.85,2.74,2.85,-2.87,-2.91,-2.27,-0.13,-0.12,-0.11
152.26,2.74,2.89,2.75,2.91,-2.91,-2.91,-2.20,-0.17,-0.15,-0.15
153.78,2.74,2.95,2.72,2.92,-2.92,-2.91,-2.14,-0.18,-0.21,-0.21
155.32,2.69,2.95,2.66,2.92,-2.91,-2.91,-2.07,-0.22,-0.25,-0.26
156.88,2.53,2.84,2.60,2.91,-2.86,-2.90,-2.00,-0.33,-0.26,-0.31
158.44,2.51,2.86,2.51,2.87,-2.77,-2.89,-1.94,-0.26,-0.26,-0.35
160.03,2.45,2.85,2.38,2.77,-2.66,-2.87,-1.87,-0.21,-0.28,-0.40
161.63,2.18,2.62,2.18,2.61,-2.55,-2.86,-1.80,-0.37,-0.37,-0.44
163.24,1.92,2.39,1.93,2.39,-2.44,-2.83,-1.74,-0.52,-0.51,-0.47
164.88,1.66,2.16,1.71,2.21,-2.35,-2.80,-1.67,-0.69,-0.64,-0.50
166.53,1.61,2.13,1.60,2.12,-2.28,-2.77,-1.61,-0.67,-0.68,-0.52
168.19,1.60,2.13,1.60,2.13,-2.24,-2.74,-1.54,-0.64,-0.63,-0.53
169.87,1.65,2.19,1.68,2.22,-2.22,-2.69,-1.48,-0.57,-0.54,-0.54
171.57,1.79,2.33,1.75,2.29,-2.23,-2.65,-1.42,-0.44,-0.48,-0.54
173.29,1.82,2.36,1.81,2.35,-2.25,-2.60,-1.36,-0.43,-0.45,-0.54
175.02,1.82,2.35,1.83,2.36,-2.29,-2.55,-1.30,-0.47,-0.46,-0.53
176.77,1.82,2.34,1.82,2.34,-2.32,-2.49,-1.24,-0.50,-0.50,-0.52
178.54,1.82,2.33,1.82,2.33,-2.34,-2.43,-1.18,-0.52,-0.52,-0.51
180.32,1.82,2.31,1.82,2.31,-2.34,-2.37,-1.13,-0.52,-0.52,-0.49
182.13,1.82,2.29,1.82,2.30,-2.33,-2.30,-1.07,-0.51,-0.51,-0.47
183.95,1.82,2.29,1.82,2.29,-2.31,-2.23,-1.02,-0.49,-0.49,-0.47
185.79,1.82,2.28,1.82,2.29,-2.29,-2.15,-0.96,-0.47,-0.46,-0.46
187.65,1.82,2.28,1.83,2.29,-2.26,-2.07,-0.91,-0.44,-0.43,-0.46
189.52,1.82,2.28,1.80,2.26,-2.24,-1.99,-0.86,-0.42,-0.43,-0.46
191.42,1.77,2.23,1.74,2.21,-2.20,-1.91,-0.81,-0.43,-0.46,-0.46
193.33,1.65,2.12,1.69,2.16,-2.16,-1.83,-0.76,-0.51,-0.47,-0.47
195.27,1.60,2.08,1.62,2.09,-2.10,-1.74,-0.71,-0.50,-0.48,-0.48
197.22,1.60,2.08,1.54,2.03,-2.04,-1.65,-0.66,-0.44,-0.49,-0.48
199.19,1.46,1.95,1.48,1.97,-1.96,-1.56,-0.61,-0.50,-0.48,-0.49
201.18,1.37,1.87,1.40,1.89,-1.88,-1.47,-0.56,-0.51,-0.48,-0.50
203.19,1.32,1.83,1.29,1.80,-1.80,-1.37,-0.52,-0.48,-0.51,-0.51
205.23,1.20,1.72,1.18,1.71,-1.72,-1.28,-0.47,-0.52,-0.53,-0.52
207.28,1.06,1.60,1.08,1.62,-1.63,-1.19,-0.43,-0.57,-0.55,-0.54
209.35,0.94,1.50,0.96,1.52,-1.54,-1.09,-0.39,-0.60,-0.57,-0.56
211.44,0.91,1.48,0.88,1.45,-1.45,-1.00,-0.35,-0.54,-0.57,-0.57
213.56,0.76,1.34,0.78,1.36,-1.35,-0.90,-0.31,-0.59,-0.58,-0.58
215.69,0.69,1.28,0.65,1.25,-1.25,-0.81,-0.27,-0.56,-0.60,-0.59
217.85,0.48,1.09,0.51,1.12,-1.13,-0.71,-0.23,-0.65,-0.62,-0.61
220.03,0.37,0.99,0.39,1.01,-0.99,-0.62,-0.19,-0.62,-0.60,-0.62
222.23,0.26,0.90,0.25,0.88,-0.84,-0.53,-0.15,-0.58,-0.59,-0.64
224.45,0.12,0.76,0.09,0.74,-0.68,-0.44,-0.12,-0.56,-0.59,-0.64
226.70,-0.12,0.54,-0.13,0.53,-0.51,-0.35,-0.09,-0.63,-0.64,-0.66
228.96,-0.38,0.29,-0.36,0.31,-0.34,-0.26,-0.05,-0.72,-0.70,-0.67
231.25,-0.61,0.07,-0.57,0.10,-0.17,-0.17,-0.02,-0.78,-0.74,-0.68
233.57,-0.71,-0.02,-0.75,-0.06,-0.00,-0.09,0.01,-0.71,-0.75,-0.69
235.90,-0.90,-0.20,-0.88,-0.18,0.17,-0.01,0.04,-0.73,-0.71,-0.70
238.26,-1.02,-0.31,-1.00,-0.29,0.33,0.07,0.07,-0.69,-0.67,-0.71
240.64,-1.12,-0.40,-1.16,-0.45,0.48,0.15,0.09,-0.64,-0.68,-0.72
243.05,-1.30,-0.58,-1.31,-0.59,0.62,0.22,0.12,-0.68,-0.69,-0.72
245.48,-1.53,-0.80,-1.48,-0.75,0.76,0.29,0.14,-0.77,-0.72,-0.73
247.93,-1.60,-0.87,-1.63,-0.90,0.89,0.36,0.16,-0.72,-0.75,-0.73
250.41,-1.78,-1.04,-1.77,-1.04,1.01,0.42,0.18,-0.77,-0.76,-0.74
252.92,-1.87,-1.13,-1.88,-1.14,1.13,0.49,0.20,-0.74,-0.75,-0.74
255.45,-2.02,-1.27,-1.99,-1.25,1.24,0.54,0.22,-0.78,-0.75,-0.75
258.00,-2.05,-1.30,-2.09,-1.34,1.34,0.60,0.24,-0.71,-0.75,-0.75
260.58,-2.19,-1.44,-2.18,-1.42,1.43,0.65,0.26,-0.76,-0.75,-0.75
263.19,-2.27,-1.50,-2.23,-1.47,1.50,0.70,0.27,-0.77,-0.73,-0.77
265.82,-2.28,-1.51,-2.30,-1.53,1.55,0.75,0.28,-0.73,-0.75,-0.77
268.48,-2.33,-1.55,-2.38,-1.60,1.58,0.79,0.30,-0.75,-0.80,-0.78
271.16,-2.46,-1.67,-2.43,-1.65,1.60,0.83,0.31,-0.86,-0.83,-0.79
273.87,-2.51,-1.72,-2.45,-1.65,1.60,0.86,0.32,-0.91,-0.84,-0.79
276.61,-2.38,-1.58,-2.41,-1.61,1.59,0.89,0.33,-0.79,-0.82,-0.80
279.38,-2.30,-1.49,-2.33,-1.53,1.56,0.92,0.34,-0.74,-0.77,-0.81
282.17,-2.28,-1.47,-2.28,-1.47,1.52,0.95,0.35,-0.76,-0.76,-0.81
284.99,-2.28,-1.47,-2.28,-1.47,1.47,0.97,0.36,-0.81,-0.81,-0.81
287.84,-2.28,-1.46,-2.25,-1.43,1.42,0.99,0.37,-0.86,-0.83,-0.82
290.72,-2.21,-1.39,-2.19,-1.37,1.36,1.00,0.37,-0.85,-0.83,-0.82
293.63,-2.07,-1.25,-2.11,-1.29,1.30,1.01,0.38,-0.77,-0.81,-0.82
296.57,-2.05,-1.22,-2.07,-1.25,1.25,1.02,0.39,-0.80,-0.82,-0.83
299.53,-2.05,-1.22,-2.03,-1.20,1.20,1.03,0.40,-0.85,-0.83,-0.83
302.53,-2.04,-1.20,-1.98,-1.14,1.14,1.03,0.40,-0.90,-0.84,-0.84
305.55,-1.85,-1.01,-1.90,-1.06,1.07,1.03,0.41,-0.78,-0.83,-0.84
308.61,-1.82,-0.98,-1.85,-1.00,1.01,1.03,0.42,-0.81,-0.84,-0.84
311.69,-1.82,-0.96,-1.80,-0.95,0.95,1.02,0.42,-0.87,-0.86,-0.86
314.81,-1.82,-0.95,-1.77,-0.90,0.88,1.01,0.43,-0.94,-0.89,-0.87
317.96,-1.68,-0.80,-1.70,-0.82,0.80,1.00,0.44,-0.88,-0.90,-0.88
321.14,-1.60,-0.70,-1.64,-0.75,0.73,0.99,0.44,-0.87,-0.92,-0.90
324.35,-1.60,-0.69,-1.58,-0.66,0.66,0.97,0.45,-0.94,-0.92,-0.91
327.59,-1.56,-0.63,-1.52,-0.59,0.59,0.96,0.46,-0.97,-0.93,-0.93
330.87,-1.42,-0.48,-1.45,-0.51,0.52,0.94,0.47,-0.90,-0.93,-0.94
334.18,-1.37,-0.42,-1.39,-0.44,0.47,0.91,0.48,-0.90,-0.92,-0.95
337.52,-1.37,-0.41,-1.36,-0.40,0.42,0.89,0.49,-0.95,-0.94,-0.96
340.90,-1.37,-0.41,-1.37,-0.40,0.39,0.86,0.50,-0.98,-0.97,-0.96
344.30,-1.37,-0.40,-1.37,-0.40,0.39,0.83,0.51,-0.98,-0.98,-0.97
347.75,-1.37,-0.40,-1.36,-0.39,0.40,0.80,0.52,-0.97,-0.96,-0.97
351.23,-1.37,-0.39,-1.37,-0.39,0.43,0.77,0.53,-0.94,-0.94,-0.98
354.74,-1.37,-0.39,-1.41,-0.43,0.46,0.74,0.54,-0.91,-0.94,-0.98
358.28,-1.48,-0.50,-1.47,-0.50,0.51,0.71,0.55,-0.97,-0.97,-0.98
361.87,-1.57,-0.60,-1.54,-0.57,0.55,0.67,0.57,-1.02,-0.99,-0.97
365.49,-1.60,-0.63,-1.60,-0.62,0.59,0.64,0.58,-1.01,-1.01,-0.97
369.14,-1.60,-0.63,-1.61,-0.64,0.62,0.61,0.59,-0.98,-0.99,-0.97
372.83,-1.60,-0.63,-1.60,-0.63,0.63,0.57,0.61,-0.97,-0.98,-0.97
376.56,-1.60,-0.64,-1.62,-0.65,0.62,0.54,0.62,-0.98,-1.00,-0.96
380.33,-1.60,-0.64,-1.60,-0.63,0.59,0.51,0.64,-1.01,-1.00,-0.96
384.13,-1.60,-0.64,-1.54,-0.58,0.56,0.48,0.65,-1.04,-0.99,-0.96
387.97,-1.44,-0.47,-1.47,-0.51,0.52,0.46,0.67,-0.92,-0.95,-0.97
391.85,-1.38,-0.41,-1.40,-0.44,0.48,0.44,0.69,-0.90,-0.92,-0.97
395.77,-1.37,-0.40,-1.36,-0.40,0.45,0.42,0.70,-0.92,-0.91,-0.97
399.73,-1.37,-0.41,-1.36,-0.40,0.41,0.42,0.72,-0.96,-0.95,-0.96
403.72,-1.37,-0.41,-1.37,-0.41,0.39,0.41,0.73,-0.98,-0.98,-0.96
407.76,-1.37,-0.41,-1.37,-0.41,0.38,0.42,0.75,-0.99,-0.99,-0.96
411.84,-1.37,-0.41,-1.37,-0.41,0.39,0.44,0.77,-0.98,-0.98,-0.96
415.96,-1.37,-0.41,-1.36,-0.40,0.41,0.47,0.78,-0.96,-0.95,-0.96
420.12,-1.37,-0.41,-1.38,-0.42,0.44,0.51,0.80,-0.93,-0.93,-0.96
424.32,-1.39,-0.43,-1.43,-0.46,0.49,0.57,0.82,-0.90,-0.93,-0.96
428.56,-1.54,-0.58,-1.51,-0.54,0.56,0.63,0.83,-0.98,-0.95,-0.96
432.85,-1.60,-0.64,-1.59,-0.63,0.64,0.71,0.85,-0.96,-0.96,-0.96
437.18,-1.70,-0.74,-1.71,-0.74,0.74,0.81,0.86,-0.96,-0.97,-0.96
441.55,-1.79,-0.82,-1.81,-0.84,0.86,0.91,0.87,-0.93,-0.95,-0.97
445.96,-1.98,-1.01,-1.94,-0.97,0.99,1.01,0.89,-0.99,-0.95,-0.97
450.42,-2.05,-1.08,-2.08,-1.10,1.12,1.12,0.90,-0.93,-0.96,-0.97
454.93,-2.23,-1.25,-2.22,-1.24,1.24,1.23,0.91,-0.99,-0.98,-0.98
459.48,-2.33,-1.34,-2.35,-1.37,1.35,1.32,0.92,-0.98,-1.00,-0.99
464.07,-2.48,-1.50,-2.45,-1.47,1.43,1.40,0.92,-1.05,-1.02,-0.98
468.71,-2.51,-1.53,-2.50,-1.52,1.50,1.46,0.93,-1.01,-1.01,-0.98
473.40,-2.51,-1.53,-2.53,-1.55,1.53,1.49,0.93,-0.98,-1.00,-0.98
478.13,-2.51,-1.53,-2.52,-1.55,1.54,1.50,0.93,-0.97,-0.98,-0.98
482.91,-2.51,-1.54,-2.49,-1.52,1.51,1.47,0.93,-1.00,-0.97,-0.97
487.74,-2.45,-1.48,-2.44,-1.47,1.46,1.42,0.93,-0.99,-0.97,-0.97
492.62,-2.32,-1.36,-2.36,-1.39,1.39,1.35,0.93,-0.93,-0.97,-0.96
497.55,-2.28,-1.32,-2.26,-1.31,1.30,1.27,0.92,-0.98,-0.97,-0.96
502.52,-2.15,-1.20,-2.15,-1.20,1.20,1.18,0.92,-0.95,-0.95,-0.95
507.55,-2.06,-1.12,-2.04,-1.09,1.09,1.08,0.91,-0.97,-0.94,-0.94
512.62,-1.88,-0.94,-1.92,-0.99,0.99,0.99,0.89,-0.89,-0.93,-0.94
