frequency,raw,error,smoothed,error_smoothed,equalization,parametric_eq,fixed_band_eq,equalized_raw,equalized_smoothed,target
20.00,4.22,-1.37,4.22,-1.37,1.37,1.46,0.25,5.59,5.59,5.59
20.20,4.24,-1.34,4.24,-1.34,1.34,1.44,0.26,5.58,5.58,5.58
20.40,4.26,-1.32,4.26,-1.31,1.31,1.41,0.27,5.58,5.58,5.58
20.61,4.28,-1.29,4.28,-1.29,1.28,1.39,0.28,5.57,5.57,5.57
20.81,4.30,-1.26,4.30,-1.26,1.26,1.37,0.29,5.56,5.56,5.56
21.02,4.32,-1.23,4.32,-1.23,1.23,1.34,0.30,5.55,5.55,5.55
21.23,4.34,-1.21,4.34,-1.21,1.21,1.32,0.31,5.55,5.55,5.55
21.44,4.36,-1.19,4.37,-1.18,1.18,1.30,0.32,5.54,5.55,5.56
21.66,4.39,-1.15,4.39,-1.16,1.16,1.27,0.33,5.55,5.55,5.55
21.87,4.41,-1.13,4.41,-1.13,1.13,1.25,0.34,5.55,5.55,5.55
22.09,4.43,-1.10,4.43,-1.10,1.11,1.23,0.35,5.55,5.55,5.54
22.31,4.45,-1.08,4.45,-1.08,1.09,1.20,0.36,5.54,5.54,5.54
22.54,4.46,-1.06,4.47,-1.07,1.06,1.18,0.38,5.53,5.53,5.53
22.76,4.48,-1.05,4.48,-1.05,1.04,1.16,0.39,5.52,5.52,5.53
22.99,4.50,-1.03,4.50,-1.02,1.01,1.13,0.40,5.51,5.52,5.53
23.22,4.53,-0.99,4.53,-1.00,0.99,1.11,0.41,5.52,5.52,5.52
23.45,4.55,-0.97,4.56,-0.96,0.97,1.08,0.43,5.52,5.53,5.52
23.69,4.58,-0.94,4.59,-0.93,0.96,1.06,0.44,5.54,5.54,5.52
23.92,4.61,-0.91,4.61,-0.92,0.94,1.04,0.45,5.56,5.55,5.52
24.16,4.62,-0.91,4.62,-0.91,0.93,1.01,0.47,5.55,5.55,5.53
24.40,4.62,-0.92,4.62,-0.91,0.91,0.99,0.48,5.53,5.53,5.54
24.65,4.62,-0.92,4.62,-0.92,0.89,0.96,0.50,5.51,5.51,5.54
24.89,4.62,-0.91,4.63,-0.90,0.87,0.94,0.51,5.49,5.50,5.54
25.14,4.65,-0.87,4.66,-0.87,0.84,0.91,0.52,5.50,5.50,5.53
25.39,4.70,-0.82,4.70,-0.82,0.82,0.89,0.54,5.52,5.52,5.53
25.65,4.75,-0.77,4.75,-0.77,0.78,0.86,0.55,5.54,5.54,5.52
25.91,4.80,-0.72,4.80,-0.73,0.75,0.84,0.56,5.56,5.55,5.52
26.16,4.82,-0.70,4.82,-0.70,0.72,0.81,0.58,5.55,5.54,5.52
26.43,4.82,-0.69,4.83,-0.69,0.70,0.79,0.59,5.52,5.53,5.51
26.69,4.82,-0.69,4.83,-0.68,0.68,0.76,0.60,5.51,5.51,5.51
26.96,4.82,-0.68,4.82,-0.67,0.67,0.74,0.61,5.50,5.50,5.50
27.23,4.82,-0.66,4.82,-0.67,0.67,0.71,0.63,5.49,5.49,5.49
27.50,4.82,-0.66,4.82,-0.66,0.66,0.69,0.64,5.48,5.48,5.49
27.77,4.82,-0.66,4.82,-0.66,0.65,0.66,0.65,5.47,5.47,5.48
28.05,4.83,-0.65,4.84,-0.65,0.63,0.64,0.66,5.47,5.47,5.48
28.33,4.85,-0.63,4.85,-0.62,0.61,0.61,0.66,5.47,5.47,5.48
28.62,4.88,-0.59,4.88,-0.59,0.59,0.59,0.67,5.47,5.47,5.47
28.90,4.91,-0.57,4.91,-0.56,0.57,0.56,0.68,5.48,5.48,5.48
29.19,4.94,-0.53,4.94,-0.53,0.54,0.54,0.68,5.48,5.48,5.48
29.48,4.97,-0.51,4.98,-0.51,0.52,0.51,0.68,5.49,5.49,5.48
29.78,5.00,-0.48,5.00,-0.48,0.49,0.48,0.68,5.50,5.49,5.48
30.08,5.02,-0.47,5.02,-0.47,0.47,0.46,0.68,5.50,5.49,5.49
30.38,5.02,-0.46,5.02,-0.46,0.46,0.43,0.68,5.48,5.49,5.48
30.68,5.02,-0.45,5.02,-0.45,0.45,0.41,0.68,5.47,5.48,5.48
30.99,5.02,-0.44,5.02,-0.45,0.44,0.38,0.67,5.47,5.47,5.47
31.30,5.02,-0.44,5.02,-0.44,0.44,0.36,0.66,5.46,5.46,5.46
31.61,5.02,-0.44,5.02,-0.43,0.43,0.33,0.66,5.45,5.45,5.46
31.93,5.02,-0.43,5.02,-0.43,0.43,0.31,0.64,5.45,5.45,5.45
32.24,5.02,-0.42,5.02,-0.42,0.42,0.28,0.63,5.45,5.45,5.45
32.57,5.02,-0.41,5.02,-0.41,0.42,0.26,0.62,5.44,5.44,5.43
32.89,5.02,-0.40,5.02,-0.40,0.41,0.23,0.60,5.43,5.43,5.42
33.22,5.02,-0.40,5.02,-0.40,0.40,0.21,0.58,5.42,5.42,5.42
33.55,5.02,-0.39,5.02,-0.39,0.38,0.18,0.57,5.40,5.40,5.42
33.89,5.02,-0.39,5.03,-0.38,0.36,0.16,0.54,5.38,5.39,5.41
34.23,5.04,-0.36,5.05,-0.35,0.34,0.13,0.52,5.38,5.39,5.40
34.57,5.08,-0.31,5.08,-0.32,0.32,0.11,0.50,5.40,5.40,5.40
34.92,5.11,-0.27,5.11,-0.28,0.30,0.08,0.47,5.41,5.40,5.38
35.27,5.12,-0.27,5.12,-0.26,0.27,0.06,0.45,5.40,5.40,5.39
35.62,5.12,-0.24,5.13,-0.24,0.25,0.03,0.42,5.38,5.38,5.37
35.97,5.12,-0.23,5.12,-0.23,0.23,0.01,0.39,5.36,5.36,5.35
36.33,5.12,-0.22,5.12,-0.21,0.22,-0.02,0.36,5.34,5.34,5.34
36.70,5.12,-0.20,5.12,-0.20,0.20,-0.04,0.33,5.32,5.32,5.33
37.06,5.12,-0.19,5.12,-0.19,0.19,-0.07,0.30,5.31,5.31,5.31
37.43,5.12,-0.17,5.12,-0.17,0.16,-0.09,0.27,5.29,5.29,5.30
37.81,5.12,-0.15,5.12,-0.15,0.14,-0.11,0.24,5.26,5.26,5.27
38.19,5.13,-0.12,5.13,-0.12,0.11,-0.14,0.21,5.24,5.24,5.25
38.57,5.14,-0.08,5.15,-0.08,0.07,-0.16,0.18,5.21,5.22,5.22
38.95,5.16,-0.03,5.16,-0.04,0.03,-0.19,0.14,5.20,5.19,5.20
39.34,5.18,0.01,5.18,0.01,-0.01,-0.21,0.11,5.18,5.18,5.17
39.74,5.20,0.05,5.20,0.06,-0.05,-0.23,0.08,5.16,5.16,5.15
40.14,5.22,0.10,5.22,0.10,-0.08,-0.26,0.04,5.14,5.13,5.12
40.54,5.22,0.13,5.22,0.13,-0.12,-0.28,0.01,5.11,5.11,5.10
40.94,5.22,0.15,5.22,0.15,-0.15,-0.31,-0.03,5.08,5.08,5.07
41.35,5.22,0.17,5.22,0.17,-0.17,-0.33,-0.06,5.05,5.05,5.06
41.76,5.22,0.19,5.22,0.19,-0.20,-0.35,-0.10,5.03,5.03,5.03
42.18,5.22,0.21,5.22,0.21,-0.22,-0.38,-0.13,5.00,5.00,5.01
42.60,5.22,0.24,5.22,0.24,-0.24,-0.40,-0.17,4.98,4.98,4.99
43.03,5.22,0.26,5.22,0.26,-0.26,-0.42,-0.21,4.96,4.96,4.96
43.46,5.22,0.28,5.22,0.28,-0.28,-0.45,-0.24,4.94,4.94,4.94
43.90,5.22,0.31,5.22,0.31,-0.31,-0.47,-0.28,4.91,4.91,4.91
44.33,5.22,0.34,5.22,0.33,-0.34,-0.49,-0.32,4.89,4.89,4.89
44.78,5.22,0.36,5.22,0.36,-0.36,-0.51,-0.35,4.86,4.86,4.86
45.23,5.22,0.38,5.22,0.39,-0.39,-0.54,-0.39,4.83,4.83,4.84
45.68,5.22,0.42,5.22,0.42,-0.43,-0.56,-0.43,4.80,4.80,4.80
46.13,5.22,0.46,5.22,0.46,-0.46,-0.58,-0.46,4.76,4.76,4.76
46.60,5.22,0.49,5.22,0.49,-0.49,-0.61,-0.50,4.73,4.73,4.73
47.06,5.22,0.52,5.23,0.52,-0.52,-0.63,-0.54,4.70,4.71,4.70
47.53,5.22,0.55,5.23,0.56,-0.55,-0.65,-0.58,4.67,4.68,4.67
48.01,5.22,0.61,5.21,0.59,-0.58,-0.67,-0.62,4.65,4.64,4.61
48.49,5.19,0.61,5.19,0.61,-0.60,-0.69,-0.65,4.59,4.59,4.58
48.97,5.15,0.61,5.16,0.63,-0.63,-0.72,-0.69,4.53,4.54,4.54
49.46,5.14,0.64,5.14,0.64,-0.65,-0.74,-0.73,4.49,4.49,4.50
49.96,5.12,0.67,5.13,0.67,-0.68,-0.76,-0.77,4.45,4.45,4.45
50.46,5.12,0.70,5.12,0.70,-0.70,-0.78,-0.81,4.42,4.42,4.43
50.96,5.12,0.73,5.12,0.73,-0.73,-0.81,-0.85,4.39,4.39,4.39
51.47,5.12,0.76,5.12,0.76,-0.76,-0.83,-0.88,4.36,4.36,4.36
51.99,5.12,0.81,5.12,0.80,-0.80,-0.85,-0.92,4.32,4.32,4.32
52.51,5.12,0.84,5.12,0.84,-0.84,-0.87,-0.96,4.28,4.28,4.28
53.03,5.12,0.87,5.12,0.88,-0.88,-0.89,-1.00,4.24,4.24,4.25
53.56,5.12,0.92,5.12,0.92,-0.92,-0.91,-1.03,4.20,4.20,4.20
54.10,5.12,0.96,5.12,0.96,-0.96,-0.94,-1.07,4.16,4.16,4.16
54.64,5.12,1.00,5.12,1.01,-1.01,-0.96,-1.11,4.12,4.12,4.12
55.18,5.12,1.05,5.12,1.05,-1.05,-0.98,-1.14,4.08,4.08,4.08
55.74,5.12,1.08,5.12,1.08,-1.08,-1.00,-1.18,4.04,4.04,4.04
56.29,5.12,1.11,5.12,1.12,-1.11,-1.02,-1.21,4.01,4.01,4.01
56.86,5.12,1.14,5.13,1.16,-1.14,-1.05,-1.24,3.99,3.99,3.98
57.42,5.12,1.20,5.12,1.19,-1.16,-1.07,-1.27,3.97,3.97,3.92
58.00,5.12,1.22,5.10,1.19,-1.17,-1.09,-1.30,3.95,3.93,3.91
58.58,5.06,1.18,5.07,1.19,-1.19,-1.11,-1.33,3.87,3.88,3.89
59.16,5.02,1.17,5.04,1.19,-1.21,-1.13,-1.36,3.81,3.83,3.85
59.76,5.02,1.20,5.02,1.20,-1.24,-1.15,-1.39,3.79,3.78,3.82
60.35,5.02,1.25,5.02,1.24,-1.27,-1.18,-1.41,3.76,3.75,3.77
60.96,5.02,1.28,5.02,1.29,-1.30,-1.20,-1.44,3.72,3.72,3.74
61.57,5.02,1.34,5.02,1.34,-1.34,-1.22,-1.46,3.69,3.69,3.69
62.18,5.02,1.39,5.02,1.39,-1.37,-1.24,-1.48,3.65,3.65,3.63
62.80,5.02,1.45,5.02,1.44,-1.42,-1.27,-1.50,3.61,3.61,3.58
63.43,5.01,1.48,5.01,1.48,-1.45,-1.29,-1.51,3.56,3.55,3.53
64.07,4.99,1.51,4.98,1.49,-1.49,-1.31,-1.53,3.50,3.49,3.49
64.71,4.94,1.49,4.95,1.51,-1.52,-1.33,-1.54,3.42,3.43,3.45
65.35,4.92,1.52,4.93,1.53,-1.54,-1.35,-1.56,3.38,3.39,3.40
66.01,4.92,1.56,4.92,1.56,-1.56,-1.38,-1.57,3.36,3.36,3.36
66.67,4.92,1.60,4.92,1.60,-1.59,-1.40,-1.58,3.34,3.33,3.33
67.33,4.90,1.64,4.90,1.62,-1.61,-1.42,-1.59,3.29,3.29,3.27
68.01,4.86,1.64,4.87,1.64,-1.64,-1.45,-1.60,3.23,3.23,3.23
68.69,4.83,1.65,4.84,1.66,-1.67,-1.47,-1.61,3.16,3.17,3.18
69.37,4.82,1.68,4.82,1.68,-1.71,-1.49,-1.61,3.12,3.12,3.14
70.07,4.82,1.73,4.82,1.73,-1.74,-1.52,-1.62,3.08,3.08,3.09
70.77,4.82,1.78,4.82,1.77,-1.78,-1.54,-1.63,3.04,3.04,3.05
71.48,4.82,1.82,4.83,1.83,-1.81,-1.56,-1.63,3.01,3.01,3.00
72.19,4.82,1.87,4.82,1.87,-1.85,-1.59,-1.64,2.97,2.97,2.96
72.91,4.82,1.92,4.80,1.90,-1.88,-1.61,-1.65,2.94,2.92,2.90
73.64,4.76,1.91,4.77,1.91,-1.91,-1.63,-1.65,2.85,2.86,2.85
74.38,4.72,1.91,4.74,1.93,-1.93,-1.66,-1.66,2.79,2.81,2.82
75.12,4.72,1.95,4.72,1.94,-1.95,-1.68,-1.66,2.78,2.77,2.78
75.87,4.72,1.98,4.71,1.96,-1.96,-1.71,-1.67,2.76,2.74,2.75
76.63,4.68,1.99,4.68,1.98,-1.97,-1.73,-1.68,2.71,2.71,2.70
77.40,4.64,1.98,4.65,1.99,-1.99,-1.76,-1.69,2.65,2.66,2.67
78.17,4.62,2.00,4.63,2.00,-2.02,-1.78,-1.70,2.61,2.61,2.62
78.95,4.62,2.02,4.62,2.02,-2.04,-1.81,-1.71,2.58,2.58,2.60
79.74,4.62,2.05,4.62,2.05,-2.07,-1.83,-1.72,2.56,2.56,2.57
80.54,4.62,2.09,4.63,2.09,-2.09,-1.86,-1.73,2.54,2.54,2.53
81.35,4.62,2.12,4.63,2.12,-2.10,-1.88,-1.75,2.52,2.53,2.50
82.16,4.62,2.15,4.62,2.15,-2.11,-1.91,-1.76,2.51,2.51,2.47
82.98,4.59,2.16,4.58,2.15,-2.12,-1.93,-1.78,2.47,2.46,2.43
83.81,4.53,2.14,4.53,2.13,-2.13,-1.96,-1.80,2.40,2.39,2.39
84.65,4.45,2.10,4.47,2.12,-2.15,-1.98,-1.81,2.31,2.32,2.35
85.50,4.42,2.11,4.43,2.12,-2.16,-2.01,-1.83,2.26,2.27,2.31
86.35,4.42,2.15,4.42,2.14,-2.18,-2.03,-1.86,2.25,2.24,2.28
87.22,4.42,2.19,4.42,2.18,-2.19,-2.06,-1.88,2.23,2.23,2.24
88.09,4.42,2.23,4.43,2.24,-2.21,-2.09,-1.90,2.21,2.22,2.20
88.97,4.42,2.27,4.43,2.27,-2.23,-2.11,-1.93,2.20,2.20,2.15
89.86,4.42,2.31,4.40,2.29,-2.25,-2.14,-1.96,2.18,2.15,2.11
90.76,4.34,2.27,4.35,2.28,-2.27,-2.16,-1.99,2.08,2.08,2.07
91.66,4.28,2.27,4.29,2.27,-2.29,-2.19,-2.02,1.99,2.00,2.02
92.58,4.24,2.27,4.24,2.27,-2.31,-2.21,-2.05,1.93,1.93,1.97
93.51,4.22,2.29,4.23,2.30,-2.34,-2.24,-2.08,1.89,1.89,1.93
94.44,4.22,2.34,4.22,2.34,-2.36,-2.27,-2.12,1.86,1.86,1.89
95.39,4.22,2.39,4.22,2.39,-2.38,-2.29,-2.15,1.84,1.84,1.83
96.34,4.22,2.45,4.22,2.44,-2.41,-2.32,-2.19,1.82,1.82,1.78
97.30,4.20,2.48,4.20,2.48,-2.43,-2.34,-2.23,1.77,1.77,1.72
98.28,4.16,2.50,4.15,2.49,-2.46,-2.37,-2.27,1.71,1.69,1.67
99.26,4.07,2.47,4.08,2.47,-2.48,-2.39,-2.31,1.59,1.60,1.60
100.25,4.00,2.46,4.01,2.46,-2.50,-2.42,-2.35,1.50,1.51,1.55
101.25,3.95,2.45,3.96,2.47,-2.51,-2.44,-2.39,1.44,1.45,1.50
102.27,3.94,2.50,3.94,2.50,-2.51,-2.47,-2.44,1.43,1.43,1.44
103.29,3.93,2.55,3.93,2.54,-2.51,-2.49,-2.48,1.42,1.42,1.39
104.32,3.91,2.57,3.90,2.57,-2.52,-2.51,-2.52,1.40,1.39,1.34
105.37,3.85,2.58,3.83,2.55,-2.52,-2.54,-2.57,1.33,1.31,1.27
106.42,3.73,2.50,3.74,2.52,-2.53,-2.56,-2.61,1.20,1.21,1.23
107.48,3.63,2.47,3.66,2.49,-2.53,-2.58,-2.65,1.10,1.13,1.16
108.56,3.61,2.50,3.61,2.50,-2.53,-2.61,-2.70,1.08,1.08,1.12
109.64,3.59,2.53,3.59,2.53,-2.52,-2.63,-2.74,1.07,1.07,1.06
110.74,3.57,2.57,3.57,2.56,-2.52,-2.65,-2.78,1.05,1.04,1.00
111.85,3.52,2.56,3.51,2.55,-2.53,-2.67,-2.82,1.00,0.99,0.96
112.97,3.44,2.53,3.44,2.53,-2.54,-2.69,-2.85,0.90,0.90,0.91
114.10,3.37,2.51,3.38,2.52,-2.56,-2.71,-2.89,0.81,0.82,0.87
115.24,3.33,2.53,3.35,2.54,-2.57,-2.73,-2.92,0.76,0.77,0.80
116.39,3.34,2.58,3.34,2.58,-2.58,-2.75,-2.95,0.76,0.76,0.76
117.55,3.34,2.63,3.34,2.63,-2.59,-2.77,-2.98,0.75,0.74,0.71
118.73,3.33,2.66,3.32,2.64,-2.61,-2.79,-3.01,0.73,0.71,0.67
119.92,3.26,2.64,3.27,2.64,-2.63,-2.81,-3.03,0.64,0.65,0.63
121.12,3.22,2.62,3.22,2.63,-2.65,-2.82,-3.05,0.58,0.58,0.60
122.33,3.18,2.62,3.19,2.62,-2.66,-2.84,-3.06,0.52,0.53,0.56
123.55,3.17,2.64,3.18,2.65,-2.67,-2.85,-3.07,0.51,0.52,0.53
124.79,3.18,2.68,3.18,2.69,-2.67,-2.87,-3.08,0.51,0.51,0.50
126.03,3.19,2.73,3.17,2.71,-2.68,-2.88,-3.09,0.52,0.49,0.46
127.29,3.13,2.71,3.13,2.71,-2.69,-2.90,-3.09,0.44,0.44,0.42
128.57,3.07,2.69,3.08,2.69,-2.71,-2.91,-3.09,0.37,0.37,0.38
129.85,3.01,2.66,3.03,2.68,-2.72,-2.92,-3.08,0.29,0.31,0.35
131.15,3.01,2.70,3.01,2.70,-2.73,-2.94,-3.08,0.28,0.28,0.31
132.46,3.01,2.74,3.01,2.74,-2.74,-2.95,-3.06,0.27,0.28,0.28
133.79,3.02,2.79,3.01,2.78,-2.74,-2.96,-3.05,0.28,0.27,0.23
135.12,2.98,2.79,2.97,2.78,-2.75,-2.97,-3.03,0.24,0.23,0.19
136.48,2.92,2.77,2.92,2.77,-2.75,-2.98,-3.02,0.17,0.17,0.16
137.84,2.84,2.72,2.87,2.75,-2.76,-2.99,-2.99,0.08,0.11,0.12
139.22,2.83,2.76,2.82,2.74,-2.77,-2.99,-2.97,0.07,0.05,0.07
140.61,2.80,2.76,2.78,2.74,-2.76,-3.00,-2.95,0.04,0.02,0.05
142.02,2.73,2.73,2.76,2.76,-2.76,-3.01,-2.92,-0.03,0.00,0.00
143.44,2.73,2.77,2.73,2.77,-2.76,-3.01,-2.89,-0.02,-0.02,-0.04
144.87,2.73,2.80,2.71,2.78,-2.76,-3.02,-2.87,-0.03,-0.05,-0.07
146.32,2.66,2.77,2.67,2.78,-2.77,-3.02,-2.84,-0.11,-0.10,-0.11
147.78,2.62,2.77,2.62,2.76,-2.78,-3.02,-2.81,-0.15,-0.16,-0.15
149.26,2.56,2.75,2.57,2.75,-2.78,-3.03,-2.78,-0.21,-0.21,-0.18
150.75,2.53,2.76,2.55,2.77,-2.78,-3.03,-2.75,-0.24,-0.23,-0.23
152.26,2.53,2.79,2.54,2.80,-2.78,-3.03,-2.72,-0.24,-0.24,-0.26
153.78,2.53,2.83,2.51,2.80,-2.78,-3.03,-2.70,-0.25,-0.27,-0.30
155.32,2.47,2.80,2.46,2.79,-2.78,-3.03,-2.67,-0.31,-0.33,-0.33
156.88,2.36,2.73,2.40,2.77,-2.79,-3.03,-2.65,-0.43,-0.39,-0.37
158.44,2.34,2.76,2.35,2.76,-2.79,-3.03,-2.62,-0.45,-0.44,-0.41
160.03,2.33,2.79,2.34,2.79,-2.79,-3.03,-2.60,-0.46,-0.46,-0.46
161.63,2.33,2.83,2.32,2.82,-2.80,-3.02,-2.58,-0.46,-0.48,-0.50
163.24,2.30,2.85,2.27,2.82,-2.80,-3.02,-2.56,-0.50,-0.53,-0.55
164.88,2.18,2.77,2.21,2.80,-2.80,-3.01,-2.54,-0.62,-0.59,-0.59
166.53,2.13,2.77,2.15,2.78,-2.80,-3.01,-2.52,-0.66,-0.65,-0.64
168.19,2.11,2.79,2.12,2.79,-2.79,-3.00,-2.51,-0.68,-0.68,-0.68
169.87,2.10,2.83,2.09,2.81,-2.79,-3.00,-2.49,-0.69,-0.71,-0.72
171.57,2.05,2.82,2.03,2.80,-2.79,-2.99,-2.48,-0.73,-0.76,-0.77
173.29,1.94,2.75,1.96,2.77,-2.79,-2.98,-2.47,-0.84,-0.82,-0.81
175.02,1.89,2.74,1.91,2.76,-2.79,-2.98,-2.46,-0.89,-0.88,-0.85
176.77,1.88,2.78,1.88,2.77,-2.79,-2.97,-2.46,-0.91,-0.91,-0.90
178.54,1.88,2.81,1.87,2.81,-2.80,-2.96,-2.45,-0.91,-0.92,-0.93
180.32,1.85,2.83,1.85,2.82,-2.80,-2.95,-2.45,-0.95,-0.95,-0.97
182.13,1.81,2.83,1.80,2.82,-2.81,-2.94,-2.45,-1.00,-1.01,-1.02
183.95,1.75,2.80,1.76,2.81,-2.82,-2.93,-2.45,-1.07,-1.06,-1.05
185.79,1.71,2.80,1.74,2.83,-2.83,-2.92,-2.46,-1.12,-1.09,-1.09
187.65,1.73,2.85,1.73,2.85,-2.84,-2.90,-2.46,-1.11,-1.11,-1.12
189.52,1.73,2.89,1.71,2.86,-2.85,-2.89,-2.47,-1.12,-1.14,-1.16
191.42,1.68,2.86,1.67,2.86,-2.86,-2.88,-2.48,-1.18,-1.19,-1.18
193.33,1.60,2.82,1.63,2.85,-2.87,-2.87,-2.49,-1.27,-1.25,-1.22
195.27,1.58,2.84,1.60,2.86,-2.88,-2.85,-2.50,-1.30,-1.28,-1.26
197.22,1.60,2.90,1.60,2.89,-2.89,-2.84,-2.52,-1.28,-1.29,-1.29
199.19,1.61,2.93,1.59,2.92,-2.89,-2.82,-2.53,-1.27,-1.29,-1.32
201.18,1.56,2.92,1.56,2.92,-2.88,-2.81,-2.55,-1.32,-1.32,-1.36
203.19,1.50,2.89,1.51,2.89,-2.88,-2.79,-2.56,-1.38,-1.37,-1.38
205.23,1.44,2.85,1.46,2.87,-2.88,-2.78,-2.58,-1.44,-1.42,-1.41
207.28,1.42,2.86,1.41,2.85,-2.88,-2.76,-2.60,-1.45,-1.47,-1.44
209.35,1.37,2.85,1.37,2.84,-2.87,-2.74,-2.62,-1.49,-1.50,-1.48
211.44,1.32,2.83,1.35,2.85,-2.85,-2.72,-2.64,-1.53,-1.51,-1.50
213.56,1.32,2.86,1.32,2.85,-2.84,-2.71,-2.66,-1.52,-1.52,-1.54
215.69,1.31,2.87,1.29,2.85,-2.83,-2.69,-2.67,-1.52,-1.54,-1.56
217.85,1.24,2.83,1.24,2.83,-2.82,-2.67,-2.69,-1.58,-1.58,-1.58
220.03,1.17,2.80,1.18,2.80,-2.81,-2.65,-2.71,-1.63,-1.63,-1.63
222.23,1.12,2.77,1.14,2.79,-2.79,-2.63,-2.73,-1.67,-1.65,-1.65
224.45,1.10,2.77,1.11,2.78,-2.77,-2.61,-2.74,-1.67,-1.66,-1.67
226.70,1.10,2.79,1.07,2.76,-2.75,-2.59,-2.76,-1.64,-1.68,-1.69
228.96,1.01,2.71,1.01,2.72,-2.73,-2.57,-2.77,-1.71,-1.71,-1.70
231.25,0.93,2.65,0.96,2.68,-2.70,-2.55,-2.78,-1.77,-1.74,-1.72
233.57,0.91,2.64,0.93,2.67,-2.68,-2.53,-2.79,-1.76,-1.75,-1.73
235.90,0.93,2.68,0.92,2.67,-2.66,-2.51,-2.79,-1.72,-1.73,-1.75
238.26,0.94,2.70,0.91,2.66,-2.64,-2.49,-2.80,-1.69,-1.73,-1.76
240.64,0.86,2.61,0.87,2.62,-2.62,-2.47,-2.79,-1.76,-1.75,-1.75
243.05,0.80,2.56,0.82,2.58,-2.61,-2.45,-2.79,-1.81,-1.78,-1.76
245.48,0.79,2.55,0.81,2.56,-2.60,-2.43,-2.79,-1.80,-1.79,-1.76
247.93,0.82,2.59,0.82,2.57,-2.58,-2.41,-2.78,-1.76,-1.76,-1.76
250.41,0.84,2.60,0.83,2.58,-2.56,-2.38,-2.76,-1.72,-1.73,-1.75
252.92,0.81,2.56,0.81,2.57,-2.54,-2.36,-2.75,-1.73,-1.73,-1.75
255.45,0.77,2.54,0.77,2.53,-2.52,-2.34,-2.73,-1.75,-1.76,-1.77
258.00,0.71,2.49,0.73,2.50,-2.50,-2.32,-2.71,-1.79,-1.77,-1.77
260.58,0.68,2.46,0.68,2.47,-2.48,-2.29,-2.68,-1.79,-1.79,-1.78
263.19,0.67,2.46,0.65,2.44,-2.44,-2.27,-2.65,-1.77,-1.79,-1.79
265.82,0.58,2.38,0.61,2.41,-2.40,-2.25,-2.62,-1.81,-1.78,-1.79
268.48,0.58,2.39,0.57,2.38,-2.36,-2.22,-2.59,-1.78,-1.79,-1.81
271.16,0.51,2.34,0.50,2.33,-2.33,-2.20,-2.55,-1.82,-1.83,-1.83
273.87,0.45,2.29,0.45,2.28,-2.30,-2.18,-2.51,-1.85,-1.86,-1.83
276.61,0.36,2.21,0.39,2.24,-2.27,-2.15,-2.47,-1.91,-1.89,-1.85
279.38,0.36,2.23,0.37,2.23,-2.24,-2.13,-2.43,-1.88,-1.87,-1.86
282.17,0.37,2.23,0.38,2.24,-2.21,-2.11,-2.38,-1.84,-1.83,-1.86
284.99,0.39,2.26,0.37,2.23,-2.19,-2.08,-2.34,-1.80,-1.82,-1.86
287.84,0.36,2.22,0.32,2.18,-2.17,-2.06,-2.29,-1.80,-1.85,-1.86
290.72,0.21,2.09,0.26,2.13,-2.15,-2.03,-2.24,-1.93,-1.89,-1.87
293.63,0.19,2.07,0.22,2.09,-2.12,-2.01,-2.19,-1.93,-1.90,-1.88
296.57,0.22,2.09,0.20,2.08,-2.09,-1.98,-2.14,-1.87,-1.89,-1.87
299.53,0.23,2.10,0.21,2.08,-2.06,-1.96,-2.09,-1.83,-1.85,-1.86
302.53,0.18,2.05,0.19,2.05,-2.03,-1.94,-2.04,-1.85,-1.85,-1.87
305.55,0.14,2.02,0.14,2.00,-2.01,-1.91,-1.99,-1.86,-1.87,-1.87
308.61,0.07,1.94,0.10,1.97,-1.98,-1.89,-1.94,-1.91,-1.88,-1.87
311.69,0.07,1.94,0.07,1.94,-1.95,-1.86,-1.89,-1.88,-1.88,-1.87
314.81,0.07,1.95,0.04,1.92,-1.92,-1.84,-1.84,-1.84,-1.87,-1.87
317.96,0.00,1.88,0.01,1.89,-1.88,-1.81,-1.79,-1.87,-1.86,-1.88
321.14,-0.05,1.83,-0.03,1.85,-1.83,-1.79,-1.74,-1.88,-1.86,-1.88
324.35,-0.08,1.81,-0.09,1.79,-1.79,-1.76,-1.69,-1.87,-1.88,-1.88
327.59,-0.12,1.76,-0.14,1.75,-1.76,-1.74,-1.65,-1.87,-1.89,-1.88
330.87,-0.20,1.68,-0.18,1.71,-1.72,-1.71,-1.60,-1.91,-1.89,-1.88
334.18,-0.23,1.66,-0.21,1.67,-1.68,-1.69,-1.55,-1.91,-1.89,-1.89
337.52,-0.23,1.66,-0.26,1.63,-1.64,-1.66,-1.51,-1.87,-1.90,-1.88
340.90,-0.28,1.60,-0.28,1.59,-1.59,-1.64,-1.47,-1.87,-1.88,-1.88
344.30,-0.36,1.51,-0.31,1.56,-1.54,-1.61,-1.42,-1.90,-1.85,-1.87
347.75,-0.32,1.55,-0.34,1.53,-1.50,-1.59,-1.38,-1.81,-1.83,-1.87
351.23,-0.36,1.52,-0.38,1.48,-1.45,-1.56,-1.34,-1.81,-1.84,-1.87
354.74,-0.44,1.42,-0.45,1.41,-1.41,-1.54,-1.30,-1.85,-1.86,-1.86
358.28,-0.56,1.30,-0.52,1.34,-1.38,-1.51,-1.26,-1.94,-1.90,-1.86
361.87,-0.57,1.28,-0.55,1.30,-1.36,-1.48,-1.22,-1.93,-1.91,-1.85
365.49,-0.53,1.31,-0.55,1.30,-1.33,-1.46,-1.19,-1.86,-1.88,-1.84
369.14,-0.51,1.33,-0.51,1.33,-1.31,-1.43,-1.15,-1.82,-1.82,-1.83
372.83,-0.50,1.33,-0.49,1.34,-1.29,-1.41,-1.11,-1.79,-1.78,-1.83
376.56,-0.49,1.35,-0.50,1.33,-1.28,-1.38,-1.08,-1.76,-1.78,-1.84
380.33,-0.55,1.28,-0.54,1.29,-1.26,-1.36,-1.05,-1.81,-1.80,-1.83
384.13,-0.59,1.24,-0.59,1.23,-1.24,-1.33,-1.02,-1.83,-1.84,-1.83
387.97,-0.66,1.17,-0.64,1.18,-1.22,-1.31,-0.98,-1.88,-1.86,-1.82
391.85,-0.67,1.16,-0.66,1.17,-1.20,-1.28,-0.95,-1.87,-1.85,-1.82
395.77,-0.67,1.17,-0.67,1.16,-1.17,-1.26,-0.92,-1.84,-1.84,-1.83
399.73,-0.67,1.18,-0.70,1.14,-1.14,-1.23,-0.90,-1.81,-1.84,-1.85
403.72,-0.75,1.09,-0.73,1.12,-1.11,-1.20,-0.87,-1.85,-1.83,-1.84
407.76,-0.80,1.05,-0.75,1.10,-1.07,-1.18,-0.84,-1.87,-1.82,-1.85
411.84,-0.74,1.12,-0.78,1.07,-1.03,-1.15,-0.82,-1.77,-1.81,-1.86
415.96,-0.82,1.04,-0.84,1.03,-1.00,-1.13,-0.79,-1.81,-1.84,-1.86
420.12,-0.92,0.96,-0.92,0.95,-0.96,-1.10,-0.76,-1.88,-1.88,-1.87
424.32,-1.04,0.83,-0.99,0.87,-0.93,-1.07,-0.74,-1.97,-1.92,-1.86
428.56,-1.00,0.85,-1.00,0.85,-0.91,-1.05,-0.72,-1.91,-1.91,-1.84
432.85,-0.96,0.87,-0.98,0.85,-0.89,-1.02,-0.69,-1.85,-1.86,-1.83
437.18,-0.93,0.88,-0.92,0.89,-0.87,-0.99,-0.67,-1.80,-1.79,-1.81
441.55,-0.89,0.89,-0.89,0.89,-0.85,-0.97,-0.65,-1.74,-1.73,-1.78
445.96,-0.85,0.89,-0.87,0.87,-0.83,-0.94,-0.63,-1.67,-1.69,-1.74
450.42,-0.87,0.82,-0.86,0.83,-0.80,-0.91,-0.61,-1.67,-1.66,-1.69
454.93,-0.87,0.77,-0.85,0.79,-0.77,-0.88,-0.59,-1.64,-1.62,-1.64
459.48,-0.87,0.72,-0.85,0.73,-0.73,-0.86,-0.57,-1.60,-1.59,-1.59
464.07,-0.81,0.72,-0.86,0.66,-0.69,-0.83,-0.55,-1.50,-1.55,-1.52
468.71,-0.88,0.59,-0.86,0.61,-0.65,-0.80,-0.53,-1.53,-1.51,-1.46
473.40,-0.88,0.54,-0.83,0.58,-0.62,-0.77,-0.51,-1.49,-1.45,-1.41
478.13,-0.76,0.60,-0.78,0.58,-0.59,-0.74,-0.50,-1.34,-1.36,-1.35
482.91,-0.70,0.61,-0.71,0.59,-0.57,-0.72,-0.48,-1.26,-1.28,-1.31
487.74,-0.66,0.60,-0.69,0.56,-0.55,-0.69,-0.46,-1.21,-1.24,-1.26
492.62,-0.72,0.50,-0.68,0.54,-0.53,-0.66,-0.45,-1.25,-1.21,-1.22
497.55,-0.73,0.46,-0.67,0.51,-0.51,-0.63,-0.43,-1.24,-1.18,-1.19
502.52,-0.60,0.56,-0.67,0.48,-0.48,-0.60,-0.41,-1.07,-1.15,-1.16
507.55,-0.68,0.45,-0.67,0.46,-0.43,-0.57,-0.40,-1.11,-1.10,-1.13
