frequency,raw,error,smoothed,error_smoothed,equalization,parametric_eq,fixed_band_eq,equalized_raw,equalized_smoothed,target
20.00,-0.33,0.76,-0.33,0.76,-0.78,-0.91,-0.51,-1.11,-1.11,-1.09
20.20,-0.31,0.79,-0.31,0.80,-0.81,-0.92,-0.53,-1.11,-1.11,-1.10
20.40,-0.29,0.83,-0.29,0.84,-0.83,-0.92,-0.54,-1.12,-1.12,-1.12
20.61,-0.27,0.86,-0.27,0.87,-0.86,-0.93,-0.56,-1.13,-1.13,-1.13
20.81,-0.25,0.91,-0.25,0.90,-0.89,-0.94,-0.57,-1.14,-1.13,-1.15
21.02,-0.23,0.93,-0.24,0.93,-0.91,-0.95,-0.59,-1.14,-1.15,-1.16
21.23,-0.23,0.94,-0.23,0.95,-0.94,-0.96,-0.61,-1.17,-1.16,-1.17
21.44,-0.23,0.96,-0.23,0.96,-0.96,-0.97,-0.63,-1.19,-1.19,-1.18
21.66,-0.22,0.98,-0.22,0.97,-0.98,-0.98,-0.64,-1.20,-1.20,-1.20
21.87,-0.22,0.99,-0.22,0.99,-1.00,-0.99,-0.66,-1.22,-1.22,-1.20
22.09,-0.21,1.01,-0.21,1.01,-1.02,-0.99,-0.68,-1.23,-1.23,-1.21
22.31,-0.19,1.04,-0.19,1.03,-1.05,-1.00,-0.70,-1.24,-1.24,-1.22
22.54,-0.17,1.06,-0.16,1.07,-1.07,-1.01,-0.72,-1.24,-1.23,-1.23
22.76,-0.14,1.10,-0.14,1.10,-1.09,-1.02,-0.74,-1.23,-1.23,-1.24
22.99,-0.12,1.12,-0.13,1.12,-1.11,-1.03,-0.76,-1.23,-1.23,-1.24
23.22,-0.12,1.13,-0.12,1.13,-1.12,-1.04,-0.79,-1.24,-1.24,-1.25
23.45,-0.12,1.13,-0.12,1.14,-1.13,-1.05,-0.81,-1.25,-1.25,-1.25
23.69,-0.12,1.13,-0.12,1.14,-1.14,-1.05,-0.83,-1.26,-1.26,-1.25
23.92,-0.12,1.13,-0.12,1.13,-1.14,-1.06,-0.85,-1.26,-1.26,-1.25
24.16,-0.12,1.13,-0.12,1.13,-1.14,-1.07,-0.88,-1.26,-1.26,-1.25
24.40,-0.12,1.13,-0.12,1.13,-1.14,-1.08,-0.90,-1.26,-1.26,-1.25
24.65,-0.12,1.13,-0.12,1.13,-1.14,-1.09,-0.92,-1.25,-1.25,-1.25
24.89,-0.12,1.13,-0.12,1.13,-1.14,-1.10,-0.95,-1.25,-1.25,-1.25
25.14,-0.12,1.13,-0.12,1.14,-1.14,-1.10,-0.97,-1.26,-1.26,-1.25
25.39,-0.12,1.13,-0.12,1.14,-1.14,-1.11,-1.00,-1.26,-1.26,-1.25
25.65,-0.12,1.14,-0.12,1.14,-1.14,-1.12,-1.02,-1.26,-1.26,-1.26
25.91,-0.12,1.14,-0.12,1.15,-1.15,-1.13,-1.05,-1.27,-1.27,-1.26
26.16,-0.12,1.15,-0.12,1.15,-1.15,-1.14,-1.07,-1.27,-1.27,-1.27
26.43,-0.12,1.15,-0.12,1.16,-1.16,-1.14,-1.10,-1.28,-1.28,-1.27
26.69,-0.12,1.16,-0.12,1.16,-1.16,-1.15,-1.12,-1.28,-1.28,-1.28
26.96,-0.12,1.17,-0.12,1.17,-1.17,-1.16,-1.14,-1.29,-1.29,-1.29
27.23,-0.12,1.17,-0.12,1.18,-1.18,-1.17,-1.17,-1.30,-1.30,-1.29
27.50,-0.12,1.18,-0.12,1.19,-1.19,-1.18,-1.19,-1.31,-1.31,-1.30
27.77,-0.12,1.19,-0.12,1.19,-1.19,-1.18,-1.21,-1.31,-1.31,-1.31
28.05,-0.12,1.20,-0.12,1.20,-1.20,-1.19,-1.23,-1.32,-1.32,-1.32
28.33,-0.12,1.20,-0.12,1.21,-1.20,-1.20,-1.25,-1.32,-1.32,-1.32
28.62,-0.12,1.20,-0.12,1.21,-1.21,-1.21,-1.27,-1.32,-1.32,-1.32
28.90,-0.12,1.21,-0.12,1.21,-1.21,-1.21,-1.29,-1.33,-1.33,-1.33
29.19,-0.12,1.20,-0.12,1.21,-1.21,-1.22,-1.31,-1.33,-1.33,-1.32
29.48,-0.12,1.20,-0.12,1.21,-1.21,-1.23,-1.32,-1.33,-1.33,-1.32
29.78,-0.12,1.20,-0.12,1.20,-1.21,-1.23,-1.34,-1.33,-1.33,-1.32
30.08,-0.12,1.20,-0.12,1.20,-1.20,-1.24,-1.35,-1.32,-1.32,-1.32
30.38,-0.12,1.20,-0.12,1.20,-1.20,-1.25,-1.36,-1.32,-1.32,-1.32
30.68,-0.12,1.20,-0.12,1.20,-1.20,-1.25,-1.37,-1.32,-1.32,-1.32
30.99,-0.12,1.20,-0.12,1.20,-1.20,-1.26,-1.38,-1.32,-1.32,-1.32
31.30,-0.12,1.20,-0.12,1.20,-1.20,-1.27,-1.39,-1.32,-1.32,-1.32
31.61,-0.12,1.20,-0.12,1.20,-1.20,-1.27,-1.40,-1.32,-1.32,-1.32
31.93,-0.12,1.20,-0.12,1.21,-1.21,-1.28,-1.40,-1.33,-1.33,-1.32
32.24,-0.12,1.21,-0.12,1.21,-1.22,-1.29,-1.40,-1.34,-1.34,-1.33
32.57,-0.11,1.22,-0.11,1.22,-1.23,-1.29,-1.40,-1.34,-1.34,-1.33
32.89,-0.10,1.23,-0.10,1.24,-1.25,-1.30,-1.40,-1.35,-1.34,-1.33
33.22,-0.08,1.25,-0.08,1.26,-1.26,-1.31,-1.40,-1.34,-1.34,-1.33
33.55,-0.06,1.28,-0.06,1.28,-1.28,-1.31,-1.40,-1.34,-1.33,-1.33
33.89,-0.03,1.31,-0.03,1.31,-1.29,-1.32,-1.40,-1.32,-1.33,-1.34
34.23,-0.02,1.32,-0.02,1.32,-1.31,-1.32,-1.39,-1.33,-1.33,-1.34
34.57,-0.02,1.32,-0.02,1.33,-1.32,-1.33,-1.39,-1.34,-1.34,-1.34
34.92,-0.02,1.32,-0.02,1.32,-1.33,-1.34,-1.38,-1.35,-1.34,-1.34
35.27,-0.02,1.32,-0.02,1.33,-1.33,-1.34,-1.37,-1.35,-1.35,-1.34
35.62,-0.02,1.32,-0.02,1.33,-1.33,-1.35,-1.37,-1.35,-1.35,-1.34
35.97,-0.02,1.33,-0.02,1.33,-1.33,-1.35,-1.36,-1.35,-1.35,-1.35
36.33,-0.02,1.33,-0.02,1.33,-1.33,-1.36,-1.35,-1.35,-1.35,-1.35
36.70,-0.02,1.33,-0.02,1.34,-1.34,-1.36,-1.34,-1.35,-1.35,-1.35
37.06,-0.02,1.33,-0.02,1.34,-1.34,-1.37,-1.33,-1.36,-1.36,-1.35
37.43,-0.02,1.34,-0.02,1.34,-1.34,-1.37,-1.32,-1.36,-1.36,-1.36
37.81,-0.02,1.34,-0.02,1.35,-1.35,-1.38,-1.32,-1.37,-1.37,-1.36
38.19,-0.02,1.35,-0.02,1.36,-1.35,-1.38,-1.31,-1.37,-1.37,-1.37
38.57,-0.02,1.36,-0.02,1.36,-1.36,-1.39,-1.30,-1.38,-1.38,-1.38
38.95,-0.02,1.37,-0.02,1.37,-1.37,-1.39,-1.29,-1.38,-1.38,-1.39
39.34,-0.02,1.37,-0.02,1.38,-1.37,-1.40,-1.29,-1.39,-1.39,-1.39
39.74,-0.02,1.38,-0.02,1.39,-1.38,-1.40,-1.28,-1.40,-1.40,-1.40
40.14,-0.02,1.39,-0.02,1.39,-1.40,-1.41,-1.28,-1.42,-1.42,-1.41
40.54,-0.02,1.40,-0.02,1.40,-1.42,-1.41,-1.27,-1.44,-1.44,-1.42
40.94,-0.02,1.40,-0.01,1.42,-1.43,-1.42,-1.27,-1.45,-1.44,-1.42
41.35,0.02,1.44,0.02,1.45,-1.45,-1.42,-1.26,-1.43,-1.43,-1.42
41.76,0.06,1.48,0.05,1.48,-1.47,-1.43,-1.26,-1.41,-1.41,-1.42
42.18,0.08,1.50,0.08,1.50,-1.48,-1.43,-1.26,-1.40,-1.40,-1.42
42.60,0.08,1.50,0.08,1.51,-1.49,-1.43,-1.26,-1.41,-1.41,-1.42
43.03,0.08,1.50,0.08,1.51,-1.50,-1.44,-1.26,-1.42,-1.42,-1.42
43.46,0.08,1.50,0.08,1.50,-1.50,-1.44,-1.26,-1.42,-1.42,-1.42
43.90,0.08,1.49,0.08,1.50,-1.50,-1.45,-1.26,-1.42,-1.42,-1.41
44.33,0.08,1.49,0.08,1.50,-1.50,-1.45,-1.27,-1.42,-1.42,-1.41
44.78,0.08,1.49,0.08,1.49,-1.50,-1.45,-1.27,-1.42,-1.42,-1.41
45.23,0.08,1.49,0.08,1.49,-1.49,-1.46,-1.28,-1.41,-1.41,-1.41
45.68,0.08,1.49,0.08,1.49,-1.49,-1.46,-1.28,-1.41,-1.41,-1.41
46.13,0.08,1.49,0.08,1.49,-1.49,-1.46,-1.29,-1.41,-1.41,-1.41
46.60,0.08,1.49,0.08,1.49,-1.50,-1.47,-1.30,-1.41,-1.41,-1.41
47.06,0.08,1.49,0.08,1.50,-1.50,-1.47,-1.31,-1.42,-1.42,-1.41
47.53,0.08,1.49,0.08,1.50,-1.50,-1.47,-1.32,-1.42,-1.42,-1.41
48.01,0.08,1.50,0.08,1.50,-1.50,-1.48,-1.33,-1.42,-1.42,-1.42
48.49,0.08,1.50,0.08,1.51,-1.51,-1.48,-1.34,-1.43,-1.43,-1.42
48.97,0.08,1.51,0.08,1.51,-1.51,-1.48,-1.35,-1.43,-1.43,-1.43
49.46,0.08,1.51,0.08,1.52,-1.51,-1.49,-1.37,-1.43,-1.43,-1.43
49.96,0.08,1.51,0.08,1.52,-1.51,-1.49,-1.38,-1.43,-1.43,-1.43
50.46,0.08,1.51,0.08,1.51,-1.51,-1.49,-1.39,-1.43,-1.43,-1.43
50.96,0.08,1.50,0.08,1.51,-1.51,-1.50,-1.41,-1.43,-1.43,-1.42
51.47,0.08,1.50,0.08,1.51,-1.51,-1.50,-1.42,-1.43,-1.43,-1.42
51.99,0.08,1.50,0.08,1.51,-1.51,-1.50,-1.44,-1.43,-1.43,-1.42
52.51,0.08,1.51,0.08,1.51,-1.51,-1.50,-1.46,-1.43,-1.43,-1.43
53.03,0.08,1.51,0.08,1.51,-1.51,-1.51,-1.47,-1.43,-1.43,-1.43
53.56,0.08,1.51,0.08,1.52,-1.51,-1.51,-1.49,-1.43,-1.43,-1.43
54.10,0.08,1.51,0.08,1.51,-1.51,-1.51,-1.50,-1.43,-1.43,-1.43
54.64,0.08,1.51,0.08,1.51,-1.51,-1.51,-1.52,-1.43,-1.43,-1.43
55.18,0.08,1.51,0.08,1.51,-1.52,-1.52,-1.54,-1.43,-1.43,-1.43
55.74,0.08,1.51,0.08,1.51,-1.52,-1.52,-1.55,-1.43,-1.43,-1.43
56.29,0.08,1.51,0.08,1.51,-1.52,-1.52,-1.57,-1.43,-1.43,-1.43
56.86,0.08,1.51,0.08,1.51,-1.52,-1.52,-1.58,-1.43,-1.43,-1.43
57.42,0.08,1.51,0.08,1.51,-1.52,-1.53,-1.59,-1.43,-1.43,-1.43
58.00,0.08,1.51,0.08,1.51,-1.51,-1.53,-1.61,-1.43,-1.43,-1.43
58.58,0.08,1.51,0.08,1.51,-1.51,-1.53,-1.62,-1.43,-1.43,-1.43
59.16,0.08,1.51,0.08,1.52,-1.51,-1.53,-1.63,-1.43,-1.43,-1.43
59.76,0.08,1.51,0.08,1.51,-1.51,-1.54,-1.64,-1.43,-1.43,-1.43
60.35,0.08,1.51,0.08,1.51,-1.51,-1.54,-1.65,-1.43,-1.43,-1.43
60.96,0.08,1.50,0.08,1.51,-1.51,-1.54,-1.65,-1.43,-1.43,-1.42
61.57,0.08,1.50,0.08,1.51,-1.51,-1.54,-1.66,-1.43,-1.43,-1.42
62.18,0.08,1.50,0.08,1.51,-1.51,-1.55,-1.66,-1.43,-1.43,-1.42
62.80,0.08,1.51,0.08,1.51,-1.51,-1.55,-1.67,-1.43,-1.43,-1.43
63.43,0.08,1.51,0.08,1.52,-1.52,-1.55,-1.67,-1.44,-1.44,-1.43
64.07,0.08,1.52,0.08,1.52,-1.52,-1.55,-1.67,-1.44,-1.44,-1.44
64.71,0.08,1.52,0.08,1.53,-1.53,-1.55,-1.67,-1.44,-1.44,-1.44
65.35,0.08,1.53,0.08,1.53,-1.53,-1.56,-1.66,-1.45,-1.45,-1.45
66.01,0.08,1.53,0.08,1.54,-1.54,-1.56,-1.66,-1.46,-1.46,-1.45
66.67,0.08,1.54,0.08,1.54,-1.54,-1.56,-1.66,-1.46,-1.46,-1.46
67.33,0.08,1.54,0.08,1.55,-1.55,-1.56,-1.65,-1.47,-1.47,-1.46
68.01,0.08,1.55,0.08,1.55,-1.55,-1.57,-1.64,-1.47,-1.47,-1.47
68.69,0.08,1.55,0.08,1.56,-1.56,-1.57,-1.64,-1.48,-1.48,-1.47
69.37,0.08,1.56,0.08,1.56,-1.56,-1.57,-1.63,-1.48,-1.48,-1.48
70.07,0.08,1.56,0.08,1.57,-1.57,-1.57,-1.62,-1.49,-1.49,-1.48
70.77,0.08,1.57,0.08,1.57,-1.57,-1.58,-1.61,-1.49,-1.49,-1.49
71.48,0.08,1.57,0.08,1.58,-1.58,-1.58,-1.60,-1.50,-1.50,-1.49
72.19,0.08,1.58,0.08,1.58,-1.58,-1.58,-1.59,-1.50,-1.50,-1.50
72.91,0.08,1.58,0.08,1.58,-1.58,-1.58,-1.58,-1.50,-1.50,-1.50
73.64,0.08,1.58,0.08,1.58,-1.59,-1.58,-1.57,-1.51,-1.51,-1.50
74.38,0.08,1.58,0.08,1.59,-1.59,-1.59,-1.56,-1.51,-1.51,-1.50
75.12,0.08,1.58,0.08,1.59,-1.59,-1.59,-1.55,-1.51,-1.51,-1.50
75.87,0.08,1.59,0.08,1.59,-1.59,-1.59,-1.54,-1.51,-1.51,-1.51
76.63,0.08,1.59,0.08,1.59,-1.59,-1.60,-1.53,-1.51,-1.51,-1.51
77.40,0.08,1.59,0.08,1.60,-1.59,-1.60,-1.52,-1.51,-1.51,-1.51
78.17,0.08,1.59,0.08,1.59,-1.59,-1.60,-1.52,-1.51,-1.51,-1.51
78.95,0.08,1.59,0.08,1.59,-1.59,-1.60,-1.51,-1.51,-1.51,-1.51
79.74,0.08,1.59,0.08,1.59,-1.60,-1.61,-1.50,-1.51,-1.51,-1.51
80.54,0.08,1.59,0.08,1.59,-1.60,-1.61,-1.50,-1.52,-1.52,-1.51
81.35,0.08,1.59,0.08,1.60,-1.60,-1.61,-1.49,-1.52,-1.52,-1.51
82.16,0.08,1.59,0.08,1.60,-1.60,-1.61,-1.49,-1.52,-1.52,-1.51
82.98,0.08,1.60,0.08,1.60,-1.60,-1.62,-1.49,-1.52,-1.52,-1.52
83.81,0.08,1.60,0.08,1.60,-1.60,-1.62,-1.48,-1.52,-1.52,-1.52
84.65,0.08,1.60,0.08,1.61,-1.61,-1.62,-1.48,-1.53,-1.53,-1.52
85.50,0.08,1.61,0.08,1.61,-1.61,-1.63,-1.48,-1.53,-1.53,-1.53
86.35,0.08,1.61,0.08,1.62,-1.62,-1.63,-1.49,-1.54,-1.54,-1.53
87.22,0.08,1.62,0.08,1.62,-1.62,-1.63,-1.49,-1.54,-1.54,-1.54
88.09,0.08,1.62,0.08,1.63,-1.63,-1.64,-1.49,-1.55,-1.55,-1.54
88.97,0.08,1.63,0.08,1.63,-1.63,-1.64,-1.50,-1.55,-1.55,-1.55
89.86,0.08,1.64,0.08,1.64,-1.64,-1.64,-1.50,-1.56,-1.56,-1.56
90.76,0.08,1.64,0.08,1.65,-1.65,-1.65,-1.51,-1.57,-1.57,-1.56
91.66,0.08,1.65,0.08,1.66,-1.66,-1.65,-1.52,-1.58,-1.58,-1.57
92.58,0.08,1.66,0.08,1.66,-1.67,-1.65,-1.53,-1.59,-1.59,-1.58
93.51,0.08,1.67,0.08,1.67,-1.68,-1.66,-1.54,-1.60,-1.60,-1.59
94.44,0.08,1.68,0.08,1.68,-1.68,-1.66,-1.55,-1.60,-1.60,-1.60
95.39,0.08,1.69,0.08,1.70,-1.69,-1.66,-1.57,-1.61,-1.61,-1.61
96.34,0.08,1.70,0.08,1.70,-1.70,-1.67,-1.58,-1.62,-1.62,-1.62
97.30,0.07,1.71,0.07,1.71,-1.71,-1.67,-1.59,-1.64,-1.64,-1.64
98.28,0.06,1.71,0.06,1.72,-1.72,-1.67,-1.61,-1.66,-1.65,-1.65
99.26,0.05,1.72,0.05,1.72,-1.72,-1.68,-1.63,-1.67,-1.68,-1.67
100.25,0.03,1.72,0.03,1.72,-1.73,-1.68,-1.64,-1.70,-1.70,-1.69
101.25,0.01,1.72,0.02,1.73,-1.73,-1.69,-1.66,-1.72,-1.72,-1.71
102.27,0.00,1.73,0.00,1.73,-1.74,-1.69,-1.68,-1.74,-1.74,-1.73
103.29,-0.01,1.74,-0.01,1.74,-1.74,-1.69,-1.70,-1.75,-1.75,-1.75
104.32,-0.03,1.74,-0.03,1.75,-1.74,-1.70,-1.72,-1.77,-1.77,-1.77
105.37,-0.05,1.75,-0.05,1.75,-1.74,-1.70,-1.74,-1.79,-1.79,-1.80
106.42,-0.08,1.74,-0.08,1.75,-1.74,-1.71,-1.76,-1.82,-1.82,-1.82
107.48,-0.10,1.74,-0.10,1.74,-1.74,-1.71,-1.77,-1.84,-1.84,-1.84
108.56,-0.13,1.73,-0.13,1.74,-1.74,-1.71,-1.79,-1.87,-1.87,-1.86
109.64,-0.15,1.73,-0.15,1.73,-1.74,-1.72,-1.81,-1.89,-1.89,-1.88
110.74,-0.17,1.72,-0.17,1.73,-1.73,-1.72,-1.83,-1.90,-1.90,-1.89
111.85,-0.18,1.73,-0.18,1.73,-1.73,-1.73,-1.85,-1.91,-1.91,-1.91
112.97,-0.19,1.73,-0.19,1.73,-1.73,-1.73,-1.86,-1.92,-1.92,-1.92
114.10,-0.20,1.73,-0.20,1.74,-1.74,-1.73,-1.88,-1.94,-1.93,-1.93
115.24,-0.20,1.74,-0.20,1.74,-1.75,-1.74,-1.90,-1.95,-1.95,-1.94
116.39,-0.20,1.75,-0.20,1.75,-1.76,-1.74,-1.91,-1.96,-1.96,-1.95
117.55,-0.20,1.75,-0.20,1.76,-1.77,-1.75,-1.92,-1.97,-1.96,-1.95
118.73,-0.19,1.77,-0.19,1.77,-1.78,-1.75,-1.93,-1.97,-1.97,-1.96
119.92,-0.18,1.78,-0.18,1.78,-1.78,-1.76,-1.94,-1.96,-1.96,-1.96
121.12,-0.18,1.79,-0.17,1.80,-1.78,-1.76,-1.95,-1.96,-1.95,-1.97
122.33,-0.17,1.80,-0.17,1.80,-1.78,-1.76,-1.96,-1.95,-1.94,-1.97
123.55,-0.16,1.80,-0.18,1.79,-1.77,-1.77,-1.96,-1.93,-1.95,-1.96
124.79,-0.21,1.75,-0.21,1.76,-1.76,-1.77,-1.96,-1.97,-1.97,-1.96
126.03,-0.25,1.72,-0.23,1.74,-1.75,-1.78,-1.96,-2.00,-1.98,-1.97
127.29,-0.24,1.72,-0.24,1.72,-1.75,-1.78,-1.96,-1.99,-1.99,-1.96
128.57,-0.23,1.73,-0.24,1.73,-1.74,-1.78,-1.96,-1.97,-1.98,-1.96
129.85,-0.23,1.73,-0.23,1.74,-1.74,-1.79,-1.95,-1.97,-1.96,-1.96
131.15,-0.22,1.74,-0.22,1.74,-1.74,-1.79,-1.95,-1.96,-1.96,-1.96
132.46,-0.22,1.74,-0.22,1.75,-1.74,-1.80,-1.94,-1.96,-1.96,-1.96
133.79,-0.21,1.76,-0.21,1.76,-1.75,-1.80,-1.93,-1.96,-1.97,-1.97
135.12,-0.21,1.76,-0.21,1.76,-1.76,-1.80,-1.92,-1.97,-1.97,-1.97
136.48,-0.21,1.76,-0.21,1.77,-1.77,-1.81,-1.91,-1.98,-1.98,-1.97
137.84,-0.20,1.78,-0.20,1.78,-1.78,-1.81,-1.89,-1.98,-1.98,-1.98
139.22,-0.20,1.78,-0.20,1.79,-1.79,-1.81,-1.88,-1.99,-1.99,-1.98
140.61,-0.20,1.79,-0.20,1.80,-1.79,-1.82,-1.86,-1.99,-1.99,-1.99
142.02,-0.20,1.80,-0.20,1.80,-1.80,-1.82,-1.85,-2.00,-2.00,-2.00
143.44,-0.20,1.81,-0.20,1.81,-1.81,-1.82,-1.83,-2.01,-2.01,-2.01
144.87,-0.20,1.81,-0.20,1.82,-1.82,-1.83,-1.81,-2.02,-2.02,-2.01
146.32,-0.20,1.82,-0.20,1.83,-1.83,-1.83,-1.80,-2.03,-2.03,-2.02
147.78,-0.20,1.84,-0.20,1.84,-1.84,-1.83,-1.78,-2.04,-2.04,-2.04
149.26,-0.20,1.85,-0.20,1.86,-1.86,-1.84,-1.76,-2.06,-2.06,-2.05
150.75,-0.20,1.86,-0.20,1.87,-1.87,-1.84,-1.75,-2.07,-2.07,-2.06
152.26,-0.20,1.87,-0.20,1.87,-1.87,-1.84,-1.73,-2.07,-2.07,-2.07
153.78,-0.20,1.87,-0.20,1.88,-1.88,-1.84,-1.72,-2.07,-2.07,-2.07
155.32,-0.20,1.88,-0.19,1.89,-1.87,-1.84,-1.70,-2.07,-2.07,-2.08
156.88,-0.20,1.89,-0.20,1.89,-1.87,-1.85,-1.69,-2.07,-2.07,-2.09
158.44,-0.21,1.88,-0.23,1.87,-1.86,-1.85,-1.67,-2.07,-2.09,-2.09
160.03,-0.28,1.82,-0.26,1.84,-1.85,-1.85,-1.66,-2.13,-2.11,-2.10
161.63,-0.30,1.81,-0.29,1.82,-1.84,-1.85,-1.65,-2.14,-2.13,-2.11
163.24,-0.30,1.82,-0.31,1.82,-1.84,-1.85,-1.64,-2.14,-2.14,-2.12
164.88,-0.31,1.82,-0.31,1.83,-1.83,-1.85,-1.63,-2.14,-2.14,-2.13
166.53,-0.31,1.83,-0.31,1.83,-1.83,-1.85,-1.62,-2.14,-2.14,-2.14
168.19,-0.32,1.83,-0.32,1.84,-1.84,-1.85,-1.61,-2.15,-2.15,-2.15
169.87,-0.32,1.84,-0.32,1.84,-1.84,-1.85,-1.61,-2.16,-2.16,-2.16
171.57,-0.33,1.84,-0.33,1.85,-1.85,-1.86,-1.60,-2.17,-2.17,-2.17
173.29,-0.34,1.84,-0.34,1.85,-1.84,-1.85,-1.60,-2.18,-2.18,-2.18
175.02,-0.34,1.85,-0.34,1.85,-1.84,-1.85,-1.60,-2.18,-2.18,-2.19
176.77,-0.35,1.84,-0.35,1.85,-1.83,-1.85,-1.59,-2.18,-2.18,-2.19
178.54,-0.35,1.85,-0.37,1.83,-1.82,-1.85,-1.59,-2.17,-2.19,-2.20
180.32,-0.41,1.79,-0.40,1.80,-1.81,-1.85,-1.59,-2.22,-2.21,-2.20
182.13,-0.44,1.76,-0.42,1.78,-1.80,-1.85,-1.60,-2.24,-2.23,-2.20
183.95,-0.43,1.77,-0.43,1.77,-1.80,-1.85,-1.60,-2.23,-2.23,-2.20
185.79,-0.42,1.79,-0.42,1.79,-1.80,-1.85,-1.60,-2.22,-2.22,-2.21
187.65,-0.40,1.80,-0.40,1.80,-1.80,-1.85,-1.61,-2.20,-2.21,-2.20
189.52,-0.39,1.81,-0.39,1.82,-1.81,-1.84,-1.62,-2.20,-2.20,-2.20
191.42,-0.38,1.82,-0.37,1.83,-1.83,-1.84,-1.62,-2.21,-2.20,-2.20
193.33,-0.36,1.84,-0.36,1.84,-1.84,-1.84,-1.63,-2.20,-2.20,-2.20
195.27,-0.34,1.85,-0.34,1.86,-1.85,-1.83,-1.64,-2.19,-2.19,-2.19
197.22,-0.33,1.86,-0.32,1.87,-1.85,-1.83,-1.65,-2.18,-2.18,-2.19
199.19,-0.32,1.87,-0.32,1.87,-1.85,-1.83,-1.67,-2.17,-2.17,-2.19
201.18,-0.32,1.87,-0.34,1.86,-1.84,-1.82,-1.68,-2.16,-2.18,-2.19
203.19,-0.37,1.82,-0.37,1.83,-1.83,-1.82,-1.69,-2.20,-2.20,-2.19
205.23,-0.41,1.78,-0.39,1.80,-1.82,-1.81,-1.70,-2.23,-2.21,-2.19
207.28,-0.41,1.78,-0.41,1.79,-1.81,-1.81,-1.72,-2.22,-2.22,-2.19
209.35,-0.41,1.79,-0.41,1.79,-1.80,-1.80,-1.73,-2.21,-2.21,-2.20
211.44,-0.41,1.79,-0.41,1.79,-1.80,-1.80,-1.75,-2.21,-2.21,-2.20
213.56,-0.41,1.79,-0.41,1.79,-1.79,-1.79,-1.76,-2.20,-2.21,-2.20
215.69,-0.42,1.79,-0.42,1.80,-1.80,-1.79,-1.78,-2.21,-2.21,-2.21
217.85,-0.42,1.79,-0.42,1.80,-1.80,-1.78,-1.79,-2.21,-2.21,-2.21
220.03,-0.42,1.80,-0.42,1.80,-1.79,-1.77,-1.80,-2.21,-2.21,-2.22
222.23,-0.43,1.79,-0.43,1.80,-1.78,-1.77,-1.82,-2.21,-2.21,-2.22
224.45,-0.43,1.79,-0.45,1.78,-1.76,-1.76,-1.83,-2.19,-2.21,-2.22
226.70,-0.49,1.73,-0.48,1.74,-1.74,-1.75,-1.84,-2.23,-2.22,-2.22
228.96,-0.52,1.70,-0.50,1.72,-1.72,-1.75,-1.85,-2.24,-2.22,-2.22
231.25,-0.52,1.69,-0.53,1.69,-1.69,-1.74,-1.86,-2.21,-2.22,-2.21
233.57,-0.52,1.69,-0.55,1.67,-1.67,-1.73,-1.87,-2.19,-2.22,-2.21
235.90,-0.59,1.61,-0.56,1.64,-1.65,-1.72,-1.87,-2.24,-2.21,-2.20
238.26,-0.58,1.62,-0.57,1.62,-1.64,-1.71,-1.88,-2.22,-2.21,-2.20
240.64,-0.56,1.62,-0.57,1.62,-1.64,-1.70,-1.88,-2.20,-2.21,-2.18
243.05,-0.55,1.62,-0.55,1.63,-1.64,-1.70,-1.88,-2.19,-2.19,-2.17
245.48,-0.53,1.63,-0.53,1.64,-1.64,-1.69,-1.88,-2.17,-2.17,-2.16
247.93,-0.50,1.65,-0.50,1.65,-1.65,-1.68,-1.88,-2.15,-2.15,-2.15
250.41,-0.48,1.66,-0.48,1.67,-1.65,-1.67,-1.87,-2.13,-2.13,-2.14
252.92,-0.46,1.67,-0.46,1.68,-1.65,-1.66,-1.86,-2.11,-2.10,-2.13
255.45,-0.45,1.67,-0.46,1.67,-1.64,-1.65,-1.85,-2.09,-2.10,-2.12
258.00,-0.47,1.65,-0.48,1.64,-1.64,-1.64,-1.84,-2.11,-2.12,-2.12
260.58,-0.53,1.59,-0.51,1.61,-1.63,-1.63,-1.83,-2.16,-2.14,-2.12
263.19,-0.54,1.58,-0.53,1.59,-1.62,-1.61,-1.81,-2.16,-2.15,-2.12
265.82,-0.54,1.59,-0.55,1.59,-1.61,-1.60,-1.80,-2.15,-2.15,-2.13
268.48,-0.54,1.59,-0.54,1.60,-1.59,-1.59,-1.78,-2.13,-2.13,-2.13
271.16,-0.55,1.59,-0.54,1.60,-1.58,-1.58,-1.76,-2.13,-2.12,-2.14
273.87,-0.55,1.60,-0.56,1.59,-1.57,-1.57,-1.74,-2.12,-2.13,-2.15
276.61,-0.58,1.57,-0.59,1.56,-1.56,-1.56,-1.72,-2.13,-2.15,-2.15
279.38,-0.64,1.51,-0.62,1.54,-1.54,-1.55,-1.69,-2.18,-2.16,-2.15
282.17,-0.65,1.51,-0.64,1.52,-1.52,-1.53,-1.67,-2.17,-2.16,-2.16
284.99,-0.64,1.52,-0.66,1.50,-1.51,-1.52,-1.64,-2.14,-2.17,-2.16
287.84,-0.68,1.48,-0.68,1.49,-1.49,-1.51,-1.61,-2.17,-2.17,-2.16
290.72,-0.72,1.45,-0.70,1.47,-1.48,-1.50,-1.59,-2.20,-2.18,-2.17
293.63,-0.71,1.46,-0.71,1.46,-1.48,-1.48,-1.56,-2.19,-2.19,-2.17
296.57,-0.70,1.47,-0.70,1.47,-1.48,-1.47,-1.53,-2.18,-2.18,-2.17
299.53,-0.69,1.47,-0.69,1.48,-1.49,-1.46,-1.50,-2.18,-2.18,-2.16
302.53,-0.68,1.48,-0.68,1.49,-1.50,-1.45,-1.48,-2.18,-2.18,-2.16
305.55,-0.67,1.50,-0.67,1.50,-1.50,-1.43,-1.45,-2.17,-2.17,-2.17
308.61,-0.66,1.51,-0.66,1.52,-1.50,-1.42,-1.42,-2.15,-2.15,-2.17
311.69,-0.65,1.52,-0.65,1.52,-1.49,-1.41,-1.39,-2.14,-2.14,-2.17
314.81,-0.67,1.51,-0.68,1.50,-1.47,-1.39,-1.37,-2.14,-2.15,-2.18
317.96,-0.72,1.46,-0.72,1.46,-1.45,-1.38,-1.34,-2.17,-2.18,-2.18
321.14,-0.79,1.39,-0.78,1.41,-1.43,-1.37,-1.31,-2.22,-2.21,-2.18
324.35,-0.83,1.36,-0.82,1.37,-1.41,-1.35,-1.29,-2.24,-2.23,-2.19
327.59,-0.85,1.35,-0.85,1.35,-1.38,-1.34,-1.26,-2.23,-2.23,-2.20
330.87,-0.85,1.35,-0.85,1.36,-1.35,-1.32,-1.24,-2.20,-2.20,-2.20
334.18,-0.85,1.35,-0.85,1.35,-1.33,-1.31,-1.22,-2.18,-2.18,-2.20
337.52,-0.85,1.35,-0.87,1.33,-1.31,-1.30,-1.19,-2.16,-2.19,-2.20
340.90,-0.92,1.29,-0.91,1.30,-1.30,-1.28,-1.17,-2.22,-2.21,-2.21
344.30,-0.95,1.26,-0.94,1.28,-1.29,-1.27,-1.15,-2.24,-2.23,-2.21
347.75,-0.95,1.26,-0.95,1.26,-1.29,-1.26,-1.13,-2.24,-2.25,-2.21
351.23,-0.95,1.27,-0.95,1.27,-1.29,-1.24,-1.11,-2.24,-2.24,-2.22
354.74,-0.95,1.27,-0.95,1.27,-1.28,-1.23,-1.09,-2.23,-2.23,-2.22
358.28,-0.95,1.27,-0.94,1.28,-1.27,-1.21,-1.07,-2.22,-2.21,-2.22
361.87,-0.94,1.28,-0.94,1.29,-1.26,-1.20,-1.06,-2.20,-2.20,-2.22
365.49,-0.93,1.29,-0.94,1.29,-1.25,-1.19,-1.04,-2.18,-2.19,-2.22
369.14,-0.96,1.26,-0.97,1.26,-1.23,-1.17,-1.03,-2.19,-2.20,-2.22
372.83,-1.01,1.21,-1.01,1.21,-1.22,-1.16,-1.01,-2.23,-2.23,-2.22
376.56,-1.08,1.14,-1.06,1.16,-1.19,-1.15,-1.00,-2.27,-2.26,-2.22
380.33,-1.10,1.13,-1.09,1.14,-1.17,-1.13,-0.99,-2.27,-2.26,-2.23
384.13,-1.10,1.13,-1.10,1.14,-1.15,-1.12,-0.97,-2.25,-2.24,-2.23
387.97,-1.09,1.15,-1.10,1.15,-1.13,-1.11,-0.96,-2.22,-2.23,-2.24
391.85,-1.10,1.15,-1.12,1.13,-1.12,-1.09,-0.95,-2.22,-2.24,-2.25
395.77,-1.17,1.09,-1.15,1.11,-1.11,-1.08,-0.94,-2.28,-2.26,-2.26
399.73,-1.19,1.08,-1.18,1.09,-1.11,-1.07,-0.93,-2.29,-2.29,-2.27
403.72,-1.19,1.09,-1.19,1.10,-1.10,-1.05,-0.92,-2.29,-2.29,-2.28
407.76,-1.20,1.10,-1.20,1.10,-1.09,-1.04,-0.92,-2.29,-2.29,-2.30
411.84,-1.20,1.11,-1.23,1.08,-1.08,-1.03,-0.91,-2.28,-2.31,-2.31
415.96,-1.28,1.04,-1.27,1.06,-1.06,-1.01,-0.90,-2.34,-2.33,-2.32
420.12,-1.32,1.01,-1.29,1.04,-1.05,-1.00,-0.89,-2.37,-2.33,-2.33
424.32,-1.29,1.04,-1.31,1.03,-1.03,-0.99,-0.89,-2.32,-2.33,-2.33
428.56,-1.29,1.04,-1.31,1.02,-1.00,-0.97,-0.88,-2.29,-2.31,-2.33
432.85,-1.34,0.98,-1.32,1.00,-0.98,-0.96,-0.88,-2.32,-2.30,-2.32
437.18,-1.34,0.96,-1.35,0.95,-0.96,-0.95,-0.87,-2.30,-2.31,-2.30
