frequency,raw,error,smoothed,error_smoothed,equalization,parametric_eq,fixed_band_eq,equalized_raw,equalized_smoothed,target
20.00,-6.32,-10.49,-6.33,-10.49,6.00,5.26,3.06,-0.32,-0.33,4.17
20.20,-6.21,-10.39,-6.21,-10.38,6.00,5.30,3.14,-0.21,-0.21,4.18
20.40,-6.09,-10.28,-6.09,-10.27,6.00,5.34,3.23,-0.09,-0.09,4.19
20.61,-5.98,-10.17,-5.98,-10.17,6.00,5.38,3.32,0.02,0.02,4.19
20.81,-5.86,-10.06,-5.86,-10.06,6.00,5.42,3.41,0.14,0.14,4.20
21.02,-5.75,-9.95,-5.76,-9.95,6.00,5.46,3.50,0.25,0.24,4.20
21.23,-5.66,-9.87,-5.66,-9.86,6.00,5.50,3.60,0.34,0.34,4.20
21.44,-5.56,-9.76,-5.56,-9.77,6.00,5.54,3.70,0.44,0.44,4.20
21.66,-5.47,-9.68,-5.47,-9.67,6.00,5.57,3.81,0.53,0.53,4.20
21.87,-5.37,-9.57,-5.37,-9.58,6.00,5.61,3.91,0.63,0.63,4.20
22.09,-5.28,-9.49,-5.28,-9.49,6.00,5.65,4.02,0.72,0.72,4.21
22.31,-5.20,-9.41,-5.20,-9.41,6.00,5.68,4.13,0.80,0.80,4.21
22.54,-5.11,-9.32,-5.12,-9.32,6.00,5.72,4.25,0.89,0.88,4.20
22.76,-5.03,-9.22,-5.03,-9.23,6.00,5.75,4.36,0.97,0.97,4.19
22.99,-4.94,-9.13,-4.94,-9.13,6.00,5.79,4.48,1.06,1.06,4.19
23.22,-4.84,-9.03,-4.84,-9.03,6.00,5.82,4.61,1.16,1.16,4.19
23.45,-4.74,-8.92,-4.74,-8.93,6.00,5.85,4.73,1.26,1.26,4.18
23.69,-4.64,-8.82,-4.64,-8.82,6.00,5.88,4.86,1.36,1.36,4.18
23.92,-4.53,-8.71,-4.53,-8.71,6.00,5.91,4.99,1.47,1.47,4.18
24.16,-4.43,-8.61,-4.43,-8.62,6.00,5.94,5.12,1.57,1.57,4.18
24.40,-4.34,-8.52,-4.34,-8.52,6.00,5.97,5.26,1.66,1.66,4.18
24.65,-4.24,-8.42,-4.24,-8.42,6.00,6.00,5.40,1.76,1.76,4.18
24.89,-4.14,-8.32,-4.14,-8.32,6.00,6.02,5.54,1.86,1.86,4.18
25.14,-4.05,-8.23,-4.05,-8.23,6.00,6.05,5.68,1.95,1.95,4.18
25.39,-3.96,-8.13,-3.96,-8.13,6.00,6.07,5.82,2.04,2.04,4.17
25.65,-3.88,-8.05,-3.88,-8.05,6.00,6.09,5.96,2.12,2.12,4.17
25.91,-3.79,-7.96,-3.79,-7.96,6.00,6.11,6.10,2.21,2.21,4.17
26.16,-3.71,-7.88,-3.71,-7.88,6.00,6.13,6.24,2.29,2.29,4.17
26.43,-3.62,-7.79,-3.62,-7.79,6.00,6.15,6.38,2.38,2.38,4.17
26.69,-3.54,-7.71,-3.54,-7.70,6.00,6.17,6.52,2.46,2.46,4.17
26.96,-3.45,-7.62,-3.45,-7.62,6.00,6.18,6.66,2.55,2.55,4.16
27.23,-3.36,-7.53,-3.36,-7.53,6.00,6.20,6.79,2.64,2.64,4.16
27.50,-3.27,-7.44,-3.27,-7.44,6.00,6.21,6.92,2.73,2.73,4.16
27.77,-3.18,-7.34,-3.18,-7.34,6.00,6.22,7.04,2.82,2.82,4.16
28.05,-3.08,-7.24,-3.08,-7.24,6.00,6.23,7.16,2.92,2.92,4.16
28.33,-2.97,-7.13,-2.97,-7.13,6.00,6.24,7.27,3.03,3.03,4.16
28.62,-2.86,-7.02,-2.86,-7.02,6.00,6.24,7.37,3.14,3.14,4.16
28.90,-2.75,-6.92,-2.75,-6.92,6.00,6.25,7.46,3.25,3.25,4.17
29.19,-2.65,-6.82,-2.66,-6.82,6.00,6.25,7.54,3.35,3.34,4.17
29.48,-2.57,-6.74,-2.57,-6.74,6.00,6.25,7.61,3.43,3.43,4.17
29.78,-2.48,-6.66,-2.48,-6.66,6.00,6.24,7.66,3.52,3.52,4.18
30.08,-2.40,-6.58,-2.40,-6.58,6.00,6.24,7.71,3.60,3.60,4.18
30.38,-2.31,-6.49,-2.31,-6.49,6.01,6.23,7.73,3.69,3.70,4.17
30.68,-2.22,-6.39,-2.22,-6.39,6.01,6.22,7.74,3.79,3.79,4.17
30.99,-2.12,-6.29,-2.13,-6.30,6.02,6.21,7.74,3.89,3.89,4.17
31.30,-2.04,-6.21,-2.04,-6.21,6.01,6.20,7.72,3.97,3.97,4.17
31.61,-1.96,-6.13,-1.96,-6.13,6.00,6.18,7.68,4.04,4.04,4.17
31.93,-1.88,-6.05,-1.88,-6.05,5.98,6.16,7.63,4.09,4.09,4.17
32.24,-1.81,-5.97,-1.82,-5.98,5.94,6.14,7.57,4.12,4.12,4.16
32.57,-1.75,-5.91,-1.75,-5.91,5.88,6.12,7.49,4.13,4.13,4.16
32.89,-1.69,-5.84,-1.68,-5.83,5.81,6.09,7.39,4.12,4.13,4.15
33.22,-1.59,-5.73,-1.59,-5.73,5.73,6.06,7.28,4.13,4.14,4.14
33.55,-1.48,-5.62,-1.48,-5.62,5.64,6.03,7.16,4.16,4.16,4.14
33.89,-1.37,-5.50,-1.38,-5.51,5.54,5.99,7.03,4.17,4.16,4.13
34.23,-1.29,-5.42,-1.30,-5.42,5.45,5.95,6.89,4.16,4.16,4.13
34.57,-1.23,-5.36,-1.22,-5.35,5.37,5.91,6.74,4.14,4.14,4.13
34.92,-1.16,-5.29,-1.16,-5.29,5.29,5.87,6.58,4.13,4.13,4.12
35.27,-1.10,-5.22,-1.10,-5.23,5.22,5.82,6.42,4.11,4.11,4.12
35.62,-1.04,-5.16,-1.04,-5.16,5.15,5.77,6.25,4.11,4.11,4.12
35.97,-0.98,-5.10,-0.98,-5.10,5.08,5.72,6.07,4.10,4.10,4.12
36.33,-0.91,-5.03,-0.91,-5.03,5.01,5.67,5.89,4.10,4.10,4.12
36.70,-0.84,-4.96,-0.84,-4.95,4.95,5.61,5.71,4.10,4.10,4.11
37.06,-0.77,-4.88,-0.77,-4.88,4.88,5.55,5.53,4.11,4.11,4.11
37.43,-0.71,-4.82,-0.70,-4.82,4.83,5.48,5.34,4.12,4.12,4.11
37.81,-0.64,-4.76,-0.65,-4.76,4.78,5.41,5.15,4.14,4.13,4.12
38.19,-0.60,-4.72,-0.61,-4.72,4.74,5.34,4.97,4.13,4.13,4.11
38.57,-0.59,-4.70,-0.59,-4.70,4.70,5.27,4.78,4.11,4.12,4.11
38.95,-0.58,-4.70,-0.58,-4.69,4.68,5.19,4.59,4.10,4.10,4.12
39.34,-0.57,-4.69,-0.57,-4.68,4.67,5.11,4.40,4.10,4.10,4.11
39.74,-0.56,-4.67,-0.56,-4.67,4.68,5.02,4.22,4.12,4.12,4.11
40.14,-0.56,-4.67,-0.56,-4.67,4.70,4.94,4.03,4.13,4.13,4.11
40.54,-0.58,-4.69,-0.58,-4.69,4.72,4.85,3.85,4.14,4.14,4.11
40.94,-0.61,-4.71,-0.62,-4.72,4.75,4.75,3.67,4.14,4.13,4.10
41.35,-0.66,-4.76,-0.67,-4.76,4.77,4.66,3.49,4.11,4.10,4.10
41.76,-0.72,-4.81,-0.71,-4.80,4.78,4.56,3.31,4.06,4.07,4.08
42.18,-0.74,-4.82,-0.74,-4.82,4.78,4.45,3.13,4.04,4.03,4.08
42.60,-0.73,-4.81,-0.74,-4.81,4.76,4.35,2.96,4.03,4.02,4.08
43.03,-0.71,-4.78,-0.69,-4.76,4.72,4.24,2.79,4.01,4.03,4.07
43.46,-0.61,-4.68,-0.62,-4.68,4.67,4.13,2.62,4.06,4.06,4.07
43.90,-0.51,-4.57,-0.52,-4.58,4.61,4.01,2.45,4.10,4.09,4.05
44.33,-0.43,-4.48,-0.42,-4.47,4.53,3.89,2.28,4.10,4.11,4.05
44.78,-0.34,-4.39,-0.35,-4.39,4.44,3.77,2.11,4.10,4.09,4.04
45.23,-0.28,-4.32,-0.30,-4.34,4.34,3.65,1.95,4.05,4.04,4.04
45.68,-0.24,-4.27,-0.23,-4.27,4.22,3.52,1.79,3.98,3.99,4.03
46.13,-0.16,-4.20,-0.13,-4.16,4.09,3.39,1.63,3.93,3.96,4.04
46.60,0.03,-4.01,0.02,-4.02,3.96,3.26,1.47,3.99,3.98,4.03
47.06,0.21,-3.83,0.20,-3.83,3.82,3.12,1.31,4.03,4.02,4.04
47.53,0.38,-3.66,0.38,-3.66,3.68,2.98,1.15,4.06,4.07,4.04
48.01,0.55,-3.50,0.53,-3.51,3.56,2.84,1.00,4.10,4.09,4.04
48.49,0.65,-3.40,0.65,-3.39,3.45,2.70,0.85,4.10,4.10,4.05
48.97,0.75,-3.30,0.75,-3.30,3.37,2.55,0.69,4.12,4.13,4.05
49.46,0.82,-3.23,0.82,-3.23,3.32,2.40,0.54,4.14,4.14,4.05
49.96,0.88,-3.19,0.85,-3.22,3.28,2.25,0.40,4.16,4.13,4.07
50.46,0.86,-3.21,0.85,-3.22,3.24,2.10,0.25,4.09,4.09,4.07
50.96,0.83,-3.25,0.86,-3.22,3.16,1.94,0.10,3.98,4.02,4.08
51.47,0.94,-3.14,0.93,-3.15,3.03,1.78,-0.04,3.97,3.96,4.08
51.99,1.07,-3.02,1.08,-3.00,2.85,1.62,-0.18,3.91,3.93,4.08
52.51,1.36,-2.73,1.35,-2.73,2.61,1.46,-0.32,3.97,3.96,4.08
53.03,1.68,-2.41,1.72,-2.36,2.32,1.30,-0.46,4.00,4.05,4.09
53.56,2.17,-1.92,2.15,-1.94,1.99,1.13,-0.60,4.16,4.14,4.09
54.10,2.62,-1.48,2.56,-1.54,1.62,0.96,-0.73,4.23,4.18,4.10
54.64,2.93,-1.17,2.94,-1.15,1.24,0.79,-0.87,4.16,4.18,4.10
55.18,3.25,-0.85,3.28,-0.81,0.85,0.61,-1.00,4.10,4.13,4.10
55.74,3.62,-0.47,3.60,-0.49,0.49,0.44,-1.13,4.10,4.09,4.09
56.29,3.94,-0.14,3.93,-0.16,0.14,0.26,-1.25,4.09,4.07,4.08
56.86,4.23,0.14,4.24,0.16,-0.17,0.08,-1.38,4.06,4.07,4.08
57.42,4.53,0.46,4.53,0.46,-0.47,-0.10,-1.50,4.07,4.07,4.07
58.00,4.83,0.77,4.81,0.76,-0.74,-0.29,-1.62,4.08,4.07,4.06
58.58,5.07,1.02,5.07,1.03,-1.01,-0.47,-1.74,4.06,4.07,4.05
59.16,5.31,1.28,5.30,1.27,-1.25,-0.66,-1.85,4.06,4.05,4.03
59.76,5.51,1.49,5.51,1.50,-1.49,-0.85,-1.96,4.02,4.03,4.02
60.35,5.70,1.71,5.71,1.71,-1.71,-1.04,-2.07,3.99,4.00,3.99
60.96,5.90,1.93,5.88,1.91,-1.92,-1.23,-2.17,3.98,3.96,3.97
61.57,6.05,2.10,6.05,2.11,-2.13,-1.42,-2.27,3.92,3.92,3.94
62.18,6.21,2.30,6.21,2.31,-2.33,-1.62,-2.37,3.88,3.88,3.91
62.80,6.38,2.51,6.38,2.51,-2.54,-1.81,-2.47,3.84,3.85,3.87
63.43,6.56,2.73,6.56,2.73,-2.73,-2.01,-2.56,3.82,3.83,3.83
64.07,6.75,2.96,6.74,2.95,-2.93,-2.21,-2.65,3.82,3.81,3.79
64.71,6.91,3.17,6.90,3.16,-3.12,-2.41,-2.74,3.78,3.78,3.74
65.35,7.05,3.34,7.04,3.34,-3.32,-2.61,-2.82,3.73,3.72,3.70
66.01,7.17,3.50,7.17,3.51,-3.51,-2.81,-2.90,3.65,3.66,3.67
66.67,7.30,3.67,7.31,3.68,-3.71,-3.01,-2.99,3.59,3.60,3.63
67.33,7.45,3.85,7.46,3.86,-3.89,-3.22,-3.06,3.56,3.56,3.60
68.01,7.63,4.07,7.62,4.06,-4.08,-3.42,-3.14,3.55,3.55,3.56
68.69,7.80,4.27,7.80,4.27,-4.26,-3.62,-3.22,3.54,3.54,3.53
69.37,7.96,4.46,7.96,4.46,-4.44,-3.83,-3.29,3.52,3.52,3.50
70.07,8.11,4.64,8.10,4.64,-4.61,-4.03,-3.37,3.49,3.49,3.46
70.77,8.23,4.80,8.24,4.80,-4.79,-4.24,-3.44,3.44,3.45,3.43
71.48,8.36,4.95,8.36,4.95,-4.96,-4.44,-3.52,3.40,3.40,3.41
72.19,8.49,5.11,8.48,5.11,-5.12,-4.65,-3.59,3.37,3.36,3.37
72.91,8.60,5.26,8.61,5.27,-5.28,-4.85,-3.66,3.32,3.33,3.34
73.64,8.75,5.44,8.74,5.44,-5.44,-5.06,-3.74,3.31,3.30,3.31
74.38,8.88,5.61,8.87,5.60,-5.60,-5.26,-3.82,3.27,3.26,3.27
75.12,8.99,5.76,9.00,5.76,-5.77,-5.46,-3.89,3.22,3.22,3.23
75.87,9.11,5.92,9.12,5.93,-5.94,-5.66,-3.97,3.17,3.18,3.19
76.63,9.26,6.11,9.25,6.10,-6.11,-5.86,-4.05,3.15,3.14,3.15
77.40,9.39,6.29,9.39,6.28,-6.27,-6.06,-4.14,3.12,3.11,3.10
78.17,9.51,6.45,9.52,6.46,-6.44,-6.25,-4.22,3.07,3.08,3.06
78.95,9.64,6.62,9.63,6.62,-6.60,-6.45,-4.31,3.04,3.04,3.02
79.74,9.75,6.77,9.73,6.76,-6.76,-6.64,-4.40,2.99,2.97,2.98
80.54,9.82,6.89,9.83,6.90,-6.92,-6.82,-4.49,2.90,2.92,2.93
81.35,9.92,7.03,9.93,7.05,-7.07,-7.01,-4.58,2.85,2.86,2.88
82.16,10.06,7.22,10.05,7.21,-7.22,-7.18,-4.68,2.84,2.83,2.84
82.98,10.17,7.37,10.18,7.37,-7.37,-7.36,-4.78,2.80,2.81,2.80
83.81,10.31,7.55,10.29,7.52,-7.51,-7.53,-4.89,2.80,2.78,2.76
84.65,10.38,7.65,10.39,7.67,-7.65,-7.69,-5.00,2.73,2.74,2.73
85.50,10.47,7.79,10.48,7.80,-7.79,-7.85,-5.11,2.68,2.69,2.68
86.35,10.58,7.94,10.56,7.92,-7.93,-8.00,-5.22,2.65,2.63,2.64
87.22,10.64,8.04,10.64,8.04,-8.05,-8.14,-5.34,2.58,2.59,2.59
88.09,10.69,8.14,10.71,8.16,-8.17,-8.28,-5.47,2.52,2.54,2.55
88.97,10.80,8.28,10.78,8.27,-8.28,-8.41,-5.60,2.52,2.50,2.51
89.86,10.85,8.38,10.86,8.39,-8.38,-8.53,-5.73,2.47,2.48,2.47
90.76,10.94,8.52,10.93,8.50,-8.48,-8.65,-5.86,2.46,2.45,2.42
91.66,10.98,8.59,10.97,8.58,-8.57,-8.75,-6.00,2.41,2.40,2.39
92.58,10.99,8.64,10.99,8.64,-8.64,-8.85,-6.15,2.34,2.34,2.35
93.51,10.99,8.69,11.01,8.70,-8.71,-8.93,-6.29,2.27,2.29,2.30
94.44,11.03,8.76,11.03,8.77,-8.78,-9.01,-6.45,2.25,2.26,2.26
95.39,11.08,8.85,11.06,8.84,-8.83,-9.08,-6.60,2.25,2.23,2.23
96.34,11.09,8.90,11.08,8.89,-8.89,-9.13,-6.76,2.20,2.19,2.19
97.30,11.08,8.93,11.08,8.93,-8.94,-9.18,-6.93,2.14,2.14,2.15
98.28,11.07,8.97,11.08,8.98,-9.00,-9.22,-7.10,2.07,2.08,2.10
99.26,11.08,9.02,11.09,9.03,-9.05,-9.25,-7.27,2.03,2.04,2.06
100.25,11.13,9.11,11.11,9.09,-9.09,-9.26,-7.44,2.04,2.02,2.02
101.25,11.12,9.13,11.12,9.14,-9.13,-9.27,-7.62,1.99,1.99,1.98
102.27,11.11,9.17,11.12,9.18,-9.16,-9.27,-7.81,1.95,1.96,1.93
103.29,11.09,9.20,11.08,9.19,-9.17,-9.26,-7.99,1.91,1.91,1.89
104.32,11.04,9.20,11.03,9.19,-9.18,-9.24,-8.17,1.86,1.85,1.84
105.37,10.96,9.16,10.97,9.18,-9.18,-9.21,-8.36,1.78,1.79,1.80
106.42,10.91,9.16,10.90,9.15,-9.17,-9.18,-8.55,1.74,1.74,1.75
107.48,10.83,9.13,10.83,9.13,-9.14,-9.13,-8.73,1.69,1.69,1.70
108.56,10.75,9.10,10.75,9.10,-9.11,-9.08,-8.92,1.64,1.64,1.65
109.64,10.67,9.07,10.67,9.07,-9.07,-9.02,-9.10,1.60,1.60,1.60
110.74,10.58,9.02,10.59,9.03,-9.03,-8.96,-9.27,1.55,1.56,1.56
111.85,10.52,9.00,10.51,8.99,-8.98,-8.89,-9.45,1.54,1.53,1.52
112.97,10.41,8.93,10.41,8.92,-8.92,-8.81,-9.61,1.49,1.49,1.48
114.10,10.31,8.86,10.31,8.86,-8.85,-8.73,-9.76,1.46,1.45,1.44
115.24,10.18,8.76,10.20,8.79,-8.78,-8.65,-9.90,1.40,1.42,1.42
116.39,10.11,8.73,10.09,8.71,-8.70,-8.56,-10.03,1.41,1.40,1.38
117.55,9.99,8.63,9.97,8.61,-8.62,-8.46,-10.14,1.37,1.35,1.36
118.73,9.84,8.51,9.85,8.52,-8.54,-8.36,-10.23,1.30,1.31,1.33
119.92,9.71,8.39,9.73,8.42,-8.45,-8.26,-10.31,1.26,1.28,1.32
121.12,9.65,8.35,9.64,8.34,-8.36,-8.16,-10.36,1.29,1.28,1.30
122.33,9.56,8.28,9.56,8.27,-8.27,-8.05,-10.38,1.29,1.29,1.28
123.55,9.47,8.20,9.47,8.20,-8.17,-7.94,-10.38,1.30,1.30,1.27
124.79,9.35,8.10,9.35,8.10,-8.07,-7.82,-10.36,1.28,1.28,1.25
126.03,9.22,7.98,9.21,7.97,-7.96,-7.71,-10.31,1.26,1.25,1.24
127.29,9.05,7.83,9.06,7.83,-7.84,-7.59,-10.23,1.21,1.22,1.22
128.57,8.90,7.69,8.91,7.70,-7.71,-7.47,-10.12,1.19,1.20,1.21
129.85,8.76,7.56,8.76,7.56,-7.57,-7.35,-9.99,1.19,1.19,1.19
131.15,8.62,7.44,8.61,7.43,-7.42,-7.23,-9.84,1.20,1.19,1.18
132.46,8.44,7.28,8.45,7.29,-7.28,-7.11,-9.67,1.16,1.17,1.16
133.79,8.29,7.14,8.28,7.13,-7.14,-6.98,-9.48,1.15,1.14,1.15
135.12,8.11,6.98,8.11,6.98,-7.01,-6.85,-9.26,1.10,1.11,1.13
136.48,7.95,6.83,7.96,6.84,-6.87,-6.73,-9.04,1.08,1.09,1.11
137.84,7.82,6.72,7.82,6.72,-6.73,-6.60,-8.80,1.09,1.08,1.09
139.22,7.68,6.60,7.69,6.62,-6.60,-6.47,-8.55,1.08,1.10,1.07
140.61,7.57,6.51,7.55,6.50,-6.46,-6.34,-8.29,1.11,1.09,1.06
142.02,7.41,6.37,7.38,6.34,-6.33,-6.21,-8.02,1.08,1.05,1.04
143.44,7.17,6.16,7.20,6.19,-6.19,-6.08,-7.74,0.98,1.01,1.01
144.87,7.00,6.02,7.02,6.04,-6.06,-5.94,-7.46,0.94,0.96,0.98
146.32,6.88,5.92,6.85,5.90,-5.92,-5.81,-7.18,0.95,0.93,0.95
147.78,6.71,5.79,6.71,5.79,-5.80,-5.67,-6.90,0.91,0.91,0.92
149.26,6.54,5.66,6.55,5.67,-5.68,-5.54,-6.61,0.86,0.87,0.88
150.75,6.38,5.54,6.37,5.53,-5.56,-5.40,-6.32,0.82,0.81,0.84
152.26,6.20,5.41,6.20,5.42,-5.44,-5.26,-6.03,0.76,0.77,0.78
153.78,6.02,5.29,6.04,5.31,-5.30,-5.13,-5.74,0.72,0.74,0.73
155.32,5.88,5.21,5.86,5.20,-5.15,-4.99,-5.45,0.73,0.72,0.67
156.88,5.67,5.06,5.67,5.06,-4.98,-4.84,-5.17,0.69,0.69,0.61
158.44,5.45,4.90,5.42,4.87,-4.80,-4.70,-4.88,0.65,0.62,0.55
160.03,5.15,4.65,5.13,4.63,-4.62,-4.56,-4.60,0.53,0.51,0.50
161.63,4.81,4.35,4.85,4.39,-4.44,-4.42,-4.32,0.37,0.41,0.46
163.24,4.59,4.18,4.59,4.18,-4.26,-4.27,-4.03,0.32,0.33,0.41
164.88,4.41,4.03,4.40,4.02,-4.10,-4.12,-3.75,0.31,0.30,0.38
166.53,4.26,3.91,4.27,3.92,-3.95,-3.97,-3.48,0.31,0.32,0.35
168.19,4.15,3.82,4.15,3.81,-3.82,-3.82,-3.20,0.33,0.33,0.33
169.87,4.05,3.72,4.04,3.72,-3.70,-3.67,-2.92,0.35,0.34,0.32
171.57,3.93,3.61,3.93,3.62,-3.59,-3.52,-2.65,0.34,0.35,0.32
173.29,3.82,3.50,3.81,3.49,-3.47,-3.36,-2.38,0.35,0.35,0.32
175.02,3.69,3.36,3.69,3.36,-3.34,-3.20,-2.11,0.35,0.35,0.33
176.77,3.55,3.20,3.55,3.21,-3.19,-3.04,-1.84,0.36,0.37,0.35
178.54,3.41,3.05,3.40,3.04,-3.02,-2.88,-1.57,0.39,0.38,0.36
180.32,3.23,2.84,3.24,2.85,-2.84,-2.72,-1.30,0.39,0.40,0.39
182.13,3.06,2.66,3.05,2.65,-2.66,-2.55,-1.03,0.40,0.39,0.40
183.95,2.87,2.44,2.86,2.44,-2.47,-2.38,-0.77,0.40,0.39,0.43
185.79,2.65,2.22,2.68,2.25,-2.28,-2.21,-0.50,0.37,0.40,0.43
187.65,2.51,2.07,2.49,2.05,-2.07,-2.04,-0.23,0.43,0.42,0.44
189.52,2.33,1.88,2.32,1.88,-1.87,-1.86,0.03,0.46,0.45,0.45
191.42,2.13,1.68,2.15,1.70,-1.66,-1.68,0.29,0.47,0.49,0.44
193.33,1.96,1.51,1.94,1.49,-1.45,-1.49,0.56,0.51,0.49,0.45
195.27,1.74,1.29,1.71,1.26,-1.25,-1.30,0.82,0.49,0.46,0.45
197.22,1.44,1.00,1.46,1.02,-1.04,-1.11,1.08,0.40,0.42,0.44
199.19,1.20,0.76,1.22,0.79,-0.84,-0.92,1.34,0.36,0.38,0.44
201.18,1.03,0.60,1.02,0.59,-0.65,-0.72,1.60,0.38,0.38,0.43
203.19,0.86,0.44,0.85,0.43,-0.45,-0.52,1.86,0.41,0.40,0.42
205.23,0.68,0.27,0.68,0.27,-0.25,-0.31,2.11,0.42,0.43,0.41
207.28,0.49,0.09,0.49,0.09,-0.06,-0.10,2.37,0.42,0.42,0.40
209.35,0.29,-0.10,0.28,-0.11,0.13,0.12,2.62,0.42,0.41,0.39
211.44,0.05,-0.32,0.06,-0.31,0.33,0.34,2.86,0.38,0.39,0.37
213.56,-0.18,-0.54,-0.17,-0.53,0.55,0.56,3.11,0.37,0.37,0.36
215.69,-0.39,-0.73,-0.43,-0.77,0.77,0.79,3.34,0.38,0.34,0.34
217.85,-0.70,-1.04,-0.68,-1.01,1.01,1.02,3.58,0.31,0.33,0.33
220.03,-0.96,-1.28,-0.94,-1.26,1.25,1.26,3.80,0.29,0.32,0.32
222.23,-1.17,-1.48,-1.21,-1.52,1.50,1.50,4.02,0.33,0.29,0.31
224.45,-1.46,-1.76,-1.46,-1.76,1.75,1.75,4.23,0.29,0.29,0.30
226.70,-1.75,-2.05,-1.71,-2.01,2.00,2.00,4.43,0.25,0.29,0.30
228.96,-1.95,-2.24,-1.95,-2.24,2.25,2.25,4.61,0.30,0.31,0.29
231.25,-2.18,-2.47,-2.21,-2.50,2.50,2.51,4.78,0.32,0.29,0.29
233.57,-2.45,-2.74,-2.51,-2.79,2.76,2.77,4.94,0.31,0.25,0.29
235.90,-2.89,-3.18,-2.82,-3.11,3.01,3.04,5.08,0.12,0.19,0.29
238.26,-3.14,-3.44,-3.14,-3.43,3.27,3.30,5.21,0.13,0.13,0.29
240.64,-3.38,-3.69,-3.40,-3.70,3.53,3.57,5.31,0.14,0.13,0.31
243.05,-3.66,-3.98,-3.64,-3.95,3.79,3.83,5.39,0.12,0.15,0.31
245.48,-3.87,-4.19,-3.93,-4.25,4.05,4.09,5.46,0.18,0.11,0.32
247.93,-4.26,-4.59,-4.26,-4.58,4.31,4.35,5.50,0.05,0.06,0.32
250.41,-4.61,-4.94,-4.56,-4.89,4.59,4.61,5.52,-0.02,0.03,0.33
252.92,-4.87,-5.21,-4.86,-5.20,4.87,4.85,5.51,-0.01,0.00,0.33
255.45,-5.10,-5.43,-5.15,-5.48,5.13,5.09,5.49,0.03,-0.03,0.33
258.00,-5.46,-5.79,-5.45,-5.78,5.36,5.31,5.44,-0.10,-0.09,0.33
260.58,-5.83,-6.15,-5.80,-6.12,5.57,5.51,5.38,-0.26,-0.23,0.32
263.19,-6.15,-6.47,-6.19,-6.51,5.74,5.70,5.29,-0.41,-0.45,0.32
265.82,-6.58,-6.90,-6.59,-6.90,5.87,5.86,5.18,-0.71,-0.71,0.31
268.48,-7.03,-7.34,-6.99,-7.30,5.96,6.00,5.06,-1.07,-1.03,0.31
271.16,-7.39,-7.70,-7.42,-7.73,6.02,6.11,4.92,-1.37,-1.40,0.31
273.87,-7.81,-8.12,-7.82,-8.12,6.05,6.19,4.77,-1.77,-1.77,0.30
276.61,-8.25,-8.55,-8.19,-8.49,6.06,6.23,4.60,-2.19,-2.13,0.30
279.38,-8.56,-8.86,-8.60,-8.90,6.06,6.25,4.42,-2.50,-2.53,0.30
282.17,-9.01,-9.32,-9.05,-9.35,6.06,6.23,4.24,-2.95,-2.99,0.30
284.99,-9.55,-9.86,-9.53,-9.84,6.04,6.17,4.04,-3.51,-3.49,0.31
287.84,-10.11,-10.42,-10.07,-10.38,6.01,6.08,3.84,-4.10,-4.06,0.31
290.72,-10.63,-10.95,-10.68,-11.00,5.95,5.97,3.63,-4.68,-4.73,0.32
293.63,-11.28,-11.60,-11.34,-11.66,5.85,5.82,3.41,-5.43,-5.49,0.32
296.57,-12.10,-12.43,-12.01,-12.34,5.71,5.66,3.19,-6.39,-6.30,0.33
299.53,-12.68,-13.01,-12.69,-13.02,5.53,5.47,2.97,-7.15,-7.16,0.33
302.53,-13.25,-13.59,-13.29,-13.63,5.32,5.26,2.74,-7.93,-7.98,0.34
305.55,-13.85,-14.19,-13.85,-14.19,5.07,5.03,2.52,-8.78,-8.78,0.33
308.61,-14.31,-14.64,-14.34,-14.68,4.81,4.80,2.28,-9.50,-9.54,0.33
311.69,-14.73,-15.06,-14.61,-14.93,4.53,4.55,2.05,-10.20,-10.08,0.33
314.81,-14.74,-15.06,-14.71,-15.03,4.25,4.29,1.82,-10.49,-10.46,0.32
317.96,-14.53,-14.85,-14.70,-15.01,3.99,4.03,1.58,-10.54,-10.71,0.32
321.14,-14.68,-14.99,-14.60,-14.91,3.73,3.77,1.35,-10.95,-10.87,0.30
324.35,-14.52,-14.82,-14.55,-14.85,3.47,3.50,1.11,-11.05,-11.08,0.30
327.59,-14.39,-14.68,-14.42,-14.71,3.22,3.23,0.88,-11.18,-11.21,0.29
330.87,-14.18,-14.46,-14.06,-14.34,2.96,2.96,0.64,-11.22,-11.11,0.28
334.18,-13.56,-13.83,-13.59,-13.86,2.70,2.70,0.41,-10.86,-10.89,0.27
337.52,-12.89,-13.15,-13.00,-13.26,2.44,2.43,0.17,-10.45,-10.56,0.26
340.90,-12.27,-12.53,-12.21,-12.46,2.18,2.16,-0.07,-10.09,-10.03,0.25
344.30,-11.48,-11.72,-11.30,-11.54,1.92,1.90,-0.31,-9.56,-9.38,0.24
347.75,-10.26,-10.48,-10.39,-10.62,1.67,1.63,-0.54,-8.60,-8.73,0.22
351.23,-9.41,-9.62,-9.58,-9.79,1.41,1.37,-0.78,-8.01,-8.17,0.21
354.74,-8.98,-9.18,-8.89,-9.09,1.15,1.11,-1.02,-7.83,-7.74,0.20
358.28,-8.44,-8.63,-8.33,-8.52,0.89,0.85,-1.26,-7.55,-7.44,0.19
361.87,-7.68,-7.86,-7.78,-7.95,0.63,0.60,-1.50,-7.05,-7.15,0.18
365.49,-7.12,-7.28,-7.13,-7.29,0.37,0.34,-1.74,-6.75,-6.76,0.16
369.14,-6.61,-6.76,-6.51,-6.65,0.11,0.09,-1.98,-6.50,-6.39,0.14
372.83,-5.89,-6.02,-5.99,-6.12,-0.14,-0.16,-2.22,-6.03,-6.13,0.13
376.56,-5.43,-5.55,-5.47,-5.59,-0.40,-0.41,-2.46,-5.83,-5.87,0.12
380.33,-5.07,-5.18,-4.96,-5.07,-0.66,-0.66,-2.71,-5.73,-5.62,0.11
384.13,-4.46,-4.56,-4.51,-4.62,-0.92,-0.91,-2.95,-5.38,-5.43,0.10
387.97,-3.98,-4.07,-4.02,-4.11,-1.18,-1.16,-3.20,-5.16,-5.20,0.09
391.85,-3.56,-3.64,-3.48,-3.56,-1.44,-1.41,-3.44,-5.00,-4.92,0.08
395.77,-2.97,-3.04,-3.00,-3.07,-1.69,-1.65,-3.69,-4.67,-4.69,0.07
399.73,-2.43,-2.49,-2.49,-2.55,-1.95,-1.90,-3.93,-4.38,-4.44,0.06
403.72,-2.01,-2.06,-1.94,-1.99,-2.21,-2.15,-4.18,-4.22,-4.15,0.05
407.76,-1.42,-1.45,-1.40,-1.43,-2.47,-2.41,-4.42,-3.89,-3.87,0.03
411.84,-0.82,-0.84,-0.86,-0.87,-2.73,-2.66,-4.66,-3.55,-3.58,0.02
415.96,-0.31,-0.32,-0.33,-0.33,-2.99,-2.91,-4.91,-3.30,-3.31,0.01
420.12,0.13,0.12,0.13,0.13,-3.24,-3.17,-5.15,-3.12,-3.11,0.00
424.32,0.52,0.52,0.53,0.53,-3.50,-3.43,-5.39,-2.98,-2.98,-0.01
428.56,0.90,0.91,0.88,0.89,-3.76,-3.69,-5.62,-2.86,-2.88,-0.01
432.85,1.22,1.22,1.22,1.22,-4.02,-3.95,-5.86,-2.80,-2.80,0.00
437.18,1.55,1.54,1.54,1.52,-4.28,-4.21,-6.08,-2.73,-2.74,0.01
441.55,1.90,1.87,1.89,1.86,-4.54,-4.48,-6.30,-2.64,-2.64,0.03
445.96,2.27,2.22,2.35,2.30,-4.79,-4.75,-6.52,-2.53,-2.44,0.05
450.42,2.86,2.78,2.84,2.76,-5.05,-5.02,-6.72,-2.19,-2.21,0.08
454.93,3.43,3.31,3.33,3.21,-5.31,-5.29,-6.92,-1.88,-1.99,0.12
459.48,3.77,3.61,3.81,3.65,-5.57,-5.56,-7.10,-1.80,-1.76,0.16
464.07,4.20,4.01,4.25,4.05,-5.83,-5.84,-7.27,-1.63,-1.58,0.19
468.71,4.77,4.54,4.74,4.51,-6.09,-6.11,-7.43,-1.32,-1.35,0.23
473.40,5.27,5.00,5.31,5.04,-6.35,-6.39,-7.57,-1.08,-1.04,0.27
478.13,5.92,5.61,5.89,5.58,-6.60,-6.66,-7.70,-0.68,-0.71,0.31
482.91,6.42,6.08,6.40,6.07,-6.86,-6.93,-7.81,-0.44,-0.46,0.34
487.74,6.91,6.54,6.88,6.51,-7.12,-7.19,-7.89,-0.22,-0.25,0.37
492.62,7.26,6.87,7.31,6.92,-7.39,-7.45,-7.96,-0.13,-0.07,0.39
497.55,7.73,7.32,7.75,7.34,-7.65,-7.70,-8.01,0.08,0.10,0.41
502.52,8.20,7.78,8.16,7.74,-7.92,-7.93,-8.03,0.28,0.24,0.42
