frequency,raw,error,smoothed,error_smoothed,equalization,parametric_eq,fixed_band_eq,equalized_raw,equalized_smoothed,target
20.00,11.27,6.31,11.27,6.31,-6.31,-6.42,-3.40,4.96,4.96,4.96
20.20,11.29,6.36,11.30,6.36,-6.36,-6.45,-3.49,4.93,4.94,4.93
20.40,11.32,6.41,11.32,6.41,-6.41,-6.48,-3.59,4.92,4.91,4.91
20.61,11.34,6.45,11.35,6.45,-6.46,-6.51,-3.69,4.89,4.89,4.89
20.81,11.37,6.50,11.37,6.50,-6.50,-6.54,-3.79,4.87,4.87,4.87
21.02,11.39,6.54,11.40,6.54,-6.55,-6.57,-3.89,4.85,4.85,4.85
21.23,11.42,6.59,11.42,6.59,-6.59,-6.60,-4.00,4.83,4.83,4.83
21.44,11.44,6.63,11.44,6.63,-6.63,-6.63,-4.11,4.81,4.81,4.81
21.66,11.46,6.67,11.47,6.67,-6.67,-6.66,-4.22,4.79,4.80,4.79
21.87,11.49,6.71,11.49,6.71,-6.71,-6.69,-4.34,4.79,4.78,4.78
22.09,11.51,6.75,11.51,6.75,-6.75,-6.72,-4.46,4.77,4.77,4.76
22.31,11.53,6.78,11.54,6.78,-6.78,-6.76,-4.58,4.75,4.75,4.75
22.54,11.55,6.81,11.56,6.82,-6.82,-6.79,-4.71,4.74,4.74,4.74
22.76,11.58,6.85,11.58,6.85,-6.85,-6.82,-4.84,4.73,4.73,4.73
22.99,11.60,6.88,11.60,6.88,-6.88,-6.84,-4.97,4.72,4.72,4.72
23.22,11.62,6.91,11.63,6.92,-6.92,-6.87,-5.11,4.71,4.71,4.71
23.45,11.65,6.95,11.65,6.95,-6.95,-6.90,-5.25,4.71,4.71,4.70
23.69,11.67,6.98,11.67,6.98,-6.98,-6.93,-5.39,4.70,4.70,4.69
23.92,11.69,7.00,11.70,7.01,-7.01,-6.96,-5.54,4.69,4.69,4.69
24.16,11.71,7.03,11.72,7.03,-7.03,-6.99,-5.69,4.68,4.68,4.68
24.40,11.74,7.06,11.74,7.06,-7.06,-7.02,-5.84,4.68,4.68,4.68
24.65,11.76,7.09,11.76,7.09,-7.09,-7.05,-5.99,4.67,4.67,4.67
24.89,11.78,7.11,11.79,7.12,-7.12,-7.08,-6.15,4.67,4.67,4.67
25.14,11.81,7.14,11.81,7.14,-7.14,-7.10,-6.30,4.66,4.66,4.66
25.39,11.84,7.17,11.83,7.17,-7.17,-7.13,-6.46,4.66,4.66,4.66
25.65,11.85,7.20,11.85,7.20,-7.20,-7.16,-6.62,4.66,4.66,4.65
25.91,11.87,7.22,11.87,7.22,-7.23,-7.19,-6.78,4.65,4.65,4.65
26.16,11.89,7.25,11.90,7.25,-7.25,-7.21,-6.95,4.64,4.64,4.64
26.43,11.91,7.27,11.92,7.28,-7.28,-7.24,-7.11,4.64,4.64,4.64
26.69,11.94,7.31,11.94,7.31,-7.30,-7.27,-7.27,4.64,4.64,4.63
26.96,11.96,7.33,11.96,7.33,-7.33,-7.29,-7.43,4.63,4.63,4.63
27.23,11.98,7.35,11.99,7.36,-7.36,-7.32,-7.59,4.63,4.63,4.63
27.50,12.00,7.38,12.00,7.38,-7.38,-7.34,-7.74,4.62,4.62,4.62
27.77,12.02,7.40,12.02,7.40,-7.41,-7.37,-7.89,4.62,4.62,4.62
28.05,12.04,7.43,12.04,7.43,-7.43,-7.40,-8.04,4.61,4.61,4.61
28.33,12.06,7.45,12.06,7.45,-7.45,-7.42,-8.18,4.61,4.61,4.61
28.62,12.08,7.47,12.08,7.48,-7.48,-7.44,-8.31,4.61,4.61,4.61
28.90,12.10,7.50,12.10,7.50,-7.50,-7.47,-8.44,4.61,4.61,4.60
29.19,12.12,7.52,12.13,7.52,-7.52,-7.49,-8.56,4.61,4.61,4.60
29.48,12.14,7.54,12.14,7.54,-7.54,-7.52,-8.67,4.61,4.61,4.60
29.78,12.16,7.56,12.16,7.56,-7.56,-7.54,-8.77,4.61,4.60,4.60
30.08,12.17,7.57,12.18,7.58,-7.58,-7.56,-8.85,4.60,4.60,4.60
30.38,12.19,7.59,12.19,7.60,-7.60,-7.59,-8.93,4.59,4.60,4.60
30.68,12.21,7.62,12.21,7.62,-7.62,-7.61,-8.99,4.59,4.59,4.59
30.99,12.23,7.64,12.23,7.64,-7.64,-7.63,-9.05,4.59,4.59,4.59
31.30,12.25,7.66,12.26,7.66,-7.66,-7.65,-9.08,4.59,4.59,4.59
31.61,12.27,7.68,12.27,7.68,-7.68,-7.67,-9.11,4.59,4.59,4.59
31.93,12.29,7.71,12.29,7.71,-7.71,-7.69,-9.12,4.59,4.59,4.58
32.24,12.30,7.72,12.31,7.73,-7.73,-7.71,-9.13,4.58,4.58,4.58
32.57,12.32,7.75,12.32,7.75,-7.74,-7.73,-9.11,4.58,4.58,4.57
32.89,12.33,7.76,12.34,7.76,-7.76,-7.75,-9.09,4.57,4.58,4.57
33.22,12.35,7.78,12.35,7.78,-7.78,-7.77,-9.06,4.58,4.57,4.57
33.55,12.36,7.79,12.36,7.79,-7.80,-7.79,-9.02,4.57,4.57,4.57
33.89,12.37,7.81,12.37,7.81,-7.81,-7.81,-8.97,4.56,4.56,4.56
34.23,12.38,7.82,12.39,7.83,-7.83,-7.83,-8.91,4.56,4.56,4.56
34.57,12.39,7.84,12.40,7.84,-7.84,-7.85,-8.85,4.55,4.55,4.55
34.92,12.41,7.86,12.41,7.86,-7.86,-7.87,-8.78,4.55,4.55,4.55
35.27,12.42,7.87,12.42,7.87,-7.87,-7.88,-8.71,4.55,4.55,4.55
35.62,12.43,7.88,12.44,7.89,-7.89,-7.90,-8.63,4.55,4.55,4.55
35.97,12.45,7.91,12.45,7.90,-7.90,-7.91,-8.56,4.55,4.55,4.54
36.33,12.46,7.92,12.46,7.92,-7.91,-7.93,-8.48,4.55,4.55,4.54
36.70,12.46,7.92,12.47,7.93,-7.92,-7.95,-8.39,4.54,4.55,4.54
37.06,12.47,7.93,12.47,7.93,-7.93,-7.96,-8.31,4.54,4.54,4.54
37.43,12.47,7.93,12.47,7.93,-7.94,-7.98,-8.23,4.54,4.54,4.54
37.81,12.47,7.94,12.48,7.94,-7.94,-7.99,-8.16,4.53,4.53,4.53
38.19,12.47,7.94,12.48,7.95,-7.95,-8.00,-8.08,4.52,4.53,4.53
38.57,12.48,7.96,12.48,7.96,-7.96,-8.02,-8.01,4.53,4.52,4.52
38.95,12.48,7.96,12.48,7.96,-7.96,-8.03,-7.94,4.52,4.52,4.52
39.34,12.48,7.97,12.49,7.97,-7.97,-8.04,-7.87,4.51,4.52,4.51
39.74,12.49,7.98,12.49,7.98,-7.98,-8.05,-7.81,4.51,4.51,4.51
40.14,12.49,7.98,12.50,7.99,-7.99,-8.06,-7.75,4.51,4.51,4.51
40.54,12.50,8.00,12.50,8.00,-8.00,-8.07,-7.69,4.51,4.51,4.50
40.94,12.50,8.00,12.51,8.01,-8.00,-8.08,-7.64,4.50,4.50,4.50
41.35,12.51,8.01,12.51,8.01,-8.01,-8.09,-7.60,4.51,4.51,4.50
41.76,12.52,8.02,12.52,8.02,-8.01,-8.10,-7.56,4.51,4.51,4.50
42.18,12.52,8.01,12.53,8.02,-8.02,-8.11,-7.52,4.51,4.51,4.51
42.60,12.53,8.02,12.53,8.02,-8.02,-8.12,-7.49,4.52,4.51,4.51
43.03,12.53,8.02,12.53,8.02,-8.02,-8.13,-7.47,4.51,4.51,4.51
43.46,12.53,8.02,12.54,8.02,-8.03,-8.14,-7.45,4.51,4.51,4.51
43.90,12.54,8.03,12.54,8.03,-8.03,-8.14,-7.44,4.51,4.51,4.51
44.33,12.55,8.03,12.56,8.04,-8.04,-8.15,-7.43,4.51,4.51,4.52
44.78,12.57,8.05,12.58,8.05,-8.06,-8.16,-7.43,4.52,4.52,4.52
45.23,12.59,8.07,12.59,8.07,-8.07,-8.16,-7.43,4.52,4.52,4.52
45.68,12.61,8.09,12.61,8.09,-8.09,-8.17,-7.44,4.53,4.52,4.52
46.13,12.62,8.10,12.63,8.11,-8.11,-8.17,-7.45,4.52,4.52,4.52
46.60,12.64,8.13,12.64,8.13,-8.13,-8.17,-7.47,4.52,4.52,4.51
47.06,12.65,8.14,12.66,8.14,-8.14,-8.18,-7.50,4.51,4.51,4.51
47.53,12.67,8.16,12.67,8.16,-8.16,-8.18,-7.53,4.51,4.51,4.51
48.01,12.68,8.17,12.69,8.18,-8.17,-8.18,-7.56,4.51,4.51,4.51
48.49,12.69,8.19,12.70,8.19,-8.19,-8.18,-7.60,4.51,4.51,4.50
48.97,12.70,8.20,12.70,8.20,-8.20,-8.19,-7.64,4.51,4.51,4.50
49.46,12.70,8.20,12.71,8.21,-8.20,-8.19,-7.69,4.50,4.50,4.50
49.96,12.71,8.21,12.71,8.21,-8.21,-8.19,-7.74,4.51,4.50,4.50
50.46,12.71,8.20,12.72,8.21,-8.21,-8.19,-7.80,4.50,4.51,4.51
50.96,12.72,8.21,12.72,8.21,-8.21,-8.19,-7.86,4.51,4.51,4.51
51.47,12.72,8.21,12.72,8.21,-8.21,-8.18,-7.92,4.51,4.51,4.51
51.99,12.72,8.21,12.72,8.21,-8.21,-8.18,-7.99,4.52,4.52,4.51
52.51,12.71,8.19,12.72,8.20,-8.20,-8.18,-8.05,4.51,4.52,4.52
53.03,12.71,8.19,12.71,8.19,-8.19,-8.18,-8.12,4.52,4.52,4.52
53.56,12.70,8.18,12.71,8.19,-8.18,-8.17,-8.19,4.52,4.52,4.52
54.10,12.70,8.18,12.70,8.18,-8.17,-8.17,-8.26,4.53,4.53,4.52
54.64,12.68,8.16,12.69,8.16,-8.16,-8.17,-8.33,4.53,4.53,4.52
55.18,12.66,8.13,12.67,8.14,-8.14,-8.16,-8.39,4.53,4.53,4.53
55.74,12.65,8.12,12.65,8.12,-8.12,-8.16,-8.46,4.54,4.53,4.53
56.29,12.63,8.10,12.64,8.10,-8.10,-8.15,-8.52,4.54,4.54,4.53
56.86,12.61,8.07,12.62,8.08,-8.07,-8.14,-8.58,4.54,4.54,4.54
57.42,12.59,8.05,12.59,8.05,-8.05,-8.14,-8.64,4.54,4.54,4.54
58.00,12.56,8.02,12.57,8.02,-8.03,-8.13,-8.69,4.54,4.54,4.54
58.58,12.54,8.00,12.55,8.00,-8.00,-8.12,-8.73,4.54,4.54,4.54
59.16,12.53,7.98,12.53,7.98,-7.98,-8.12,-8.77,4.55,4.55,4.55
59.76,12.51,7.96,12.52,7.96,-7.96,-8.11,-8.80,4.55,4.55,4.55
60.35,12.50,7.95,12.50,7.95,-7.95,-8.10,-8.82,4.56,4.56,4.55
60.96,12.49,7.93,12.49,7.93,-7.94,-8.09,-8.84,4.56,4.56,4.56
61.57,12.48,7.92,12.49,7.93,-7.93,-8.08,-8.84,4.56,4.56,4.56
62.18,12.48,7.92,12.48,7.92,-7.92,-8.07,-8.84,4.56,4.56,4.56
62.80,12.48,7.92,12.48,7.92,-7.92,-8.06,-8.83,4.56,4.56,4.56
63.43,12.48,7.92,12.48,7.92,-7.92,-8.04,-8.81,4.56,4.56,4.56
64.07,12.48,7.92,12.49,7.92,-7.93,-8.03,-8.78,4.56,4.56,4.56
64.71,12.49,7.93,12.50,7.93,-7.93,-8.02,-8.74,4.56,4.56,4.56
65.35,12.50,7.94,12.50,7.94,-7.94,-8.01,-8.69,4.57,4.57,4.56
66.01,12.51,7.95,12.51,7.95,-7.95,-7.99,-8.64,4.57,4.57,4.56
66.67,12.51,7.95,12.52,7.95,-7.95,-7.98,-8.58,4.56,4.56,4.56
67.33,12.51,7.95,12.52,7.96,-7.96,-7.97,-8.51,4.56,4.56,4.56
68.01,12.52,7.96,12.52,7.96,-7.96,-7.95,-8.44,4.56,4.56,4.56
68.69,12.52,7.96,12.53,7.96,-7.96,-7.94,-8.36,4.56,4.56,4.56
69.37,12.52,7.96,12.53,7.96,-7.96,-7.92,-8.28,4.56,4.56,4.56
70.07,12.52,7.96,12.52,7.96,-7.96,-7.90,-8.19,4.57,4.57,4.56
70.77,12.51,7.95,12.52,7.95,-7.95,-7.89,-8.10,4.57,4.57,4.56
71.48,12.50,7.94,12.51,7.94,-7.94,-7.87,-8.01,4.57,4.57,4.56
72.19,12.49,7.92,12.49,7.92,-7.92,-7.85,-7.92,4.57,4.57,4.57
72.91,12.47,7.90,12.48,7.90,-7.90,-7.83,-7.82,4.57,4.57,4.57
73.64,12.45,7.88,12.46,7.88,-7.88,-7.82,-7.73,4.57,4.58,4.57
74.38,12.43,7.85,12.44,7.86,-7.85,-7.80,-7.64,4.58,4.58,4.58
75.12,12.41,7.83,12.41,7.83,-7.83,-7.78,-7.54,4.59,4.58,4.58
75.87,12.38,7.80,12.39,7.80,-7.80,-7.76,-7.45,4.59,4.59,4.58
76.63,12.35,7.76,12.36,7.77,-7.77,-7.74,-7.37,4.59,4.59,4.59
77.40,12.33,7.74,12.33,7.74,-7.74,-7.72,-7.28,4.60,4.59,4.59
78.17,12.30,7.70,12.31,7.71,-7.71,-7.70,-7.20,4.60,4.60,4.60
78.95,12.28,7.68,12.28,7.68,-7.68,-7.68,-7.12,4.60,4.60,4.60
79.74,12.26,7.66,12.26,7.65,-7.66,-7.66,-7.04,4.61,4.60,4.60
80.54,12.23,7.62,12.24,7.63,-7.64,-7.63,-6.97,4.60,4.60,4.61
81.35,12.22,7.61,12.22,7.61,-7.62,-7.61,-6.91,4.61,4.61,4.61
82.16,12.21,7.60,12.21,7.60,-7.60,-7.59,-6.84,4.61,4.61,4.61
82.98,12.20,7.59,12.20,7.59,-7.59,-7.57,-6.78,4.61,4.61,4.61
83.81,12.19,7.58,12.20,7.58,-7.58,-7.54,-6.73,4.62,4.62,4.61
84.65,12.18,7.57,12.18,7.57,-7.56,-7.52,-6.68,4.62,4.62,4.61
85.50,12.17,7.55,12.17,7.55,-7.55,-7.49,-6.63,4.62,4.62,4.62
86.35,12.15,7.53,12.16,7.54,-7.54,-7.47,-6.59,4.62,4.62,4.62
87.22,12.14,7.52,12.14,7.52,-7.52,-7.44,-6.56,4.63,4.62,4.62
88.09,12.12,7.50,12.12,7.50,-7.50,-7.42,-6.53,4.63,4.63,4.62
88.97,12.10,7.48,12.10,7.48,-7.48,-7.39,-6.50,4.63,4.63,4.62
89.86,12.07,7.45,12.08,7.45,-7.45,-7.37,-6.48,4.62,4.62,4.62
90.76,12.05,7.43,12.05,7.43,-7.43,-7.34,-6.46,4.63,4.62,4.62
91.66,12.01,7.39,12.02,7.40,-7.40,-7.31,-6.45,4.61,4.62,4.62
92.58,11.99,7.37,11.99,7.37,-7.38,-7.29,-6.45,4.62,4.61,4.62
93.51,11.96,7.34,11.97,7.34,-7.35,-7.26,-6.44,4.62,4.62,4.62
94.44,11.94,7.32,11.95,7.32,-7.32,-7.23,-6.45,4.63,4.63,4.62
95.39,11.92,7.30,11.92,7.30,-7.29,-7.20,-6.45,4.64,4.63,4.62
96.34,11.89,7.27,11.89,7.27,-7.26,-7.17,-6.46,4.64,4.64,4.62
97.30,11.85,7.22,11.86,7.23,-7.22,-7.14,-6.48,4.63,4.63,4.63
98.28,11.82,7.19,11.82,7.19,-7.20,-7.11,-6.50,4.63,4.63,4.63
99.26,11.78,7.15,11.79,7.15,-7.17,-7.08,-6.52,4.62,4.62,4.63
100.25,11.75,7.12,11.76,7.12,-7.14,-7.05,-6.55,4.61,4.62,4.63
101.25,11.73,7.10,11.74,7.11,-7.12,-7.02,-6.57,4.62,4.62,4.63
102.27,11.72,7.09,11.72,7.09,-7.09,-6.99,-6.60,4.63,4.63,4.63
103.29,11.71,7.08,11.71,7.08,-7.07,-6.96,-6.64,4.65,4.65,4.63
104.32,11.69,7.05,11.69,7.05,-7.04,-6.93,-6.67,4.66,4.65,4.64
105.37,11.66,7.02,11.66,7.02,-7.01,-6.90,-6.71,4.66,4.66,4.64
106.42,11.62,6.98,11.63,6.98,-6.97,-6.87,-6.75,4.65,4.66,4.64
107.48,11.58,6.93,11.59,6.94,-6.93,-6.83,-6.79,4.65,4.65,4.65
108.56,11.54,6.89,11.54,6.89,-6.89,-6.80,-6.82,4.65,4.65,4.65
109.64,11.49,6.84,11.50,6.84,-6.85,-6.77,-6.86,4.64,4.65,4.65
110.74,11.45,6.80,11.45,6.80,-6.81,-6.73,-6.90,4.64,4.64,4.65
111.85,11.41,6.75,11.42,6.76,-6.78,-6.70,-6.93,4.64,4.64,4.66
112.97,11.38,6.72,11.39,6.73,-6.74,-6.67,-6.96,4.64,4.65,4.66
114.10,11.37,6.71,11.37,6.71,-6.71,-6.63,-6.99,4.67,4.66,4.66
115.24,11.34,6.68,11.35,6.69,-6.67,-6.60,-7.02,4.67,4.68,4.66
116.39,11.32,6.66,11.32,6.66,-6.63,-6.56,-7.04,4.69,4.69,4.66
117.55,11.28,6.61,11.28,6.61,-6.60,-6.53,-7.05,4.69,4.68,4.67
118.73,11.23,6.56,11.23,6.56,-6.56,-6.49,-7.06,4.68,4.68,4.67
119.92,11.17,6.50,11.18,6.50,-6.52,-6.45,-7.07,4.66,4.66,4.67
121.12,11.13,6.45,11.14,6.46,-6.48,-6.42,-7.07,4.66,4.66,4.68
122.33,11.10,6.42,11.11,6.42,-6.44,-6.38,-7.06,4.67,4.67,4.68
123.55,11.08,6.39,11.08,6.39,-6.39,-6.34,-7.04,4.69,4.69,4.69
124.79,11.05,6.36,11.05,6.36,-6.35,-6.31,-7.02,4.70,4.70,4.69
126.03,11.01,6.32,11.02,6.33,-6.32,-6.27,-6.99,4.70,4.71,4.69
127.29,10.98,6.28,10.99,6.29,-6.28,-6.23,-6.95,4.71,4.71,4.70
128.57,10.95,6.25,10.94,6.24,-6.23,-6.19,-6.91,4.72,4.71,4.70
129.85,10.89,6.18,10.90,6.19,-6.19,-6.15,-6.85,4.71,4.71,4.71
131.15,10.84,6.13,10.85,6.14,-6.14,-6.11,-6.80,4.71,4.71,4.71
132.46,10.80,6.09,10.80,6.08,-6.09,-6.07,-6.73,4.72,4.71,4.71
133.79,10.75,6.04,10.75,6.04,-6.04,-6.03,-6.66,4.72,4.71,4.71
135.12,10.68,5.97,10.70,5.98,-5.99,-5.99,-6.58,4.70,4.71,4.71
136.48,10.64,5.93,10.65,5.93,-5.94,-5.95,-6.50,4.71,4.71,4.71
137.84,10.60,5.88,10.60,5.89,-5.89,-5.91,-6.42,4.72,4.72,4.72
139.22,10.56,5.84,10.56,5.84,-5.84,-5.87,-6.33,4.73,4.73,4.72
140.61,10.52,5.80,10.52,5.79,-5.78,-5.83,-6.24,4.74,4.73,4.72
142.02,10.45,5.73,10.46,5.74,-5.73,-5.79,-6.14,4.72,4.73,4.72
143.44,10.41,5.69,10.41,5.68,-5.68,-5.75,-6.04,4.73,4.73,4.72
144.87,10.35,5.62,10.35,5.63,-5.63,-5.70,-5.95,4.72,4.72,4.73
146.32,10.30,5.57,10.30,5.57,-5.58,-5.66,-5.85,4.72,4.72,4.73
147.78,10.25,5.52,10.26,5.52,-5.53,-5.62,-5.75,4.72,4.73,4.73
149.26,10.21,5.47,10.22,5.48,-5.48,-5.57,-5.65,4.73,4.74,4.74
150.75,10.18,5.44,10.18,5.44,-5.43,-5.53,-5.55,4.75,4.75,4.74
152.26,10.14,5.40,10.14,5.40,-5.39,-5.49,-5.45,4.76,4.75,4.74
153.78,10.09,5.34,10.10,5.35,-5.34,-5.44,-5.35,4.75,4.75,4.75
155.32,10.05,5.30,10.05,5.30,-5.30,-5.40,-5.25,4.76,4.75,4.75
156.88,9.99,5.24,10.00,5.25,-5.25,-5.35,-5.16,4.74,4.75,4.75
158.44,9.96,5.20,9.96,5.20,-5.20,-5.31,-5.07,4.77,4.76,4.76
160.03,9.90,5.14,9.91,5.15,-5.15,-5.26,-4.98,4.76,4.76,4.76
161.63,9.86,5.10,9.86,5.10,-5.09,-5.21,-4.89,4.77,4.77,4.76
163.24,9.81,5.05,9.81,5.04,-5.04,-5.17,-4.81,4.77,4.76,4.76
164.88,9.74,4.98,9.75,4.98,-4.99,-5.12,-4.72,4.76,4.76,4.76
166.53,9.68,4.91,9.69,4.92,-4.93,-5.07,-4.64,4.75,4.76,4.77
168.19,9.64,4.87,9.64,4.87,-4.87,-5.03,-4.57,4.77,4.77,4.77
169.87,9.59,4.82,9.60,4.82,-4.81,-4.98,-4.49,4.78,4.78,4.77
171.57,9.54,4.76,9.54,4.76,-4.75,-4.93,-4.42,4.79,4.79,4.78
173.29,9.49,4.71,9.48,4.70,-4.69,-4.88,-4.36,4.80,4.79,4.78
175.02,9.40,4.62,9.42,4.63,-4.64,-4.83,-4.29,4.77,4.78,4.78
176.77,9.35,4.57,9.35,4.57,-4.58,-4.79,-4.23,4.78,4.77,4.78
178.54,9.29,4.50,9.30,4.51,-4.52,-4.74,-4.18,4.77,4.78,4.79
180.32,9.25,4.46,9.25,4.46,-4.46,-4.69,-4.12,4.79,4.79,4.79
182.13,9.21,4.42,9.21,4.41,-4.41,-4.64,-4.07,4.81,4.80,4.79
183.95,9.14,4.35,9.15,4.36,-4.35,-4.59,-4.02,4.79,4.80,4.79
185.79,9.09,4.31,9.09,4.30,-4.30,-4.54,-3.98,4.79,4.79,4.78
187.65,9.02,4.24,9.03,4.25,-4.25,-4.49,-3.94,4.77,4.78,4.78
189.52,8.97,4.19,8.98,4.20,-4.20,-4.43,-3.90,4.77,4.78,4.78
191.42,8.93,4.15,8.93,4.15,-4.15,-4.38,-3.86,4.78,4.78,4.78
193.33,8.89,4.10,8.89,4.10,-4.10,-4.33,-3.83,4.80,4.79,4.79
195.27,8.84,4.05,8.85,4.05,-4.04,-4.28,-3.80,4.80,4.80,4.79
197.22,8.79,4.00,8.79,4.00,-3.99,-4.23,-3.77,4.81,4.80,4.79
199.19,8.73,3.94,8.73,3.94,-3.94,-4.17,-3.74,4.80,4.80,4.79
201.18,8.67,3.87,8.68,3.88,-3.88,-4.12,-3.72,4.79,4.80,4.80
203.19,8.62,3.82,8.62,3.82,-3.83,-4.07,-3.70,4.80,4.80,4.80
205.23,8.57,3.77,8.57,3.77,-3.77,-4.01,-3.68,4.80,4.80,4.80
207.28,8.52,3.71,8.53,3.72,-3.72,-3.96,-3.66,4.80,4.81,4.81
209.35,8.48,3.67,8.48,3.67,-3.67,-3.91,-3.64,4.81,4.81,4.81
211.44,8.44,3.63,8.44,3.63,-3.63,-3.85,-3.62,4.82,4.81,4.81
213.56,8.40,3.58,8.40,3.58,-3.58,-3.80,-3.60,4.82,4.82,4.82
215.69,8.36,3.54,8.37,3.54,-3.54,-3.74,-3.59,4.82,4.82,4.82
217.85,8.32,3.50,8.33,3.51,-3.50,-3.69,-3.57,4.83,4.83,4.82
220.03,8.29,3.47,8.29,3.46,-3.46,-3.63,-3.56,4.84,4.83,4.82
222.23,8.25,3.42,8.25,3.42,-3.42,-3.57,-3.54,4.84,4.83,4.83
224.45,8.19,3.36,8.20,3.37,-3.38,-3.52,-3.52,4.82,4.82,4.83
226.70,8.15,3.32,8.16,3.32,-3.34,-3.46,-3.50,4.82,4.82,4.83
228.96,8.12,3.29,8.13,3.29,-3.30,-3.40,-3.48,4.82,4.82,4.83
231.25,8.10,3.26,8.10,3.26,-3.26,-3.35,-3.46,4.84,4.84,4.84
233.57,8.08,3.24,8.08,3.24,-3.23,-3.29,-3.44,4.86,4.85,4.84
235.90,8.05,3.20,8.05,3.20,-3.19,-3.23,-3.42,4.87,4.86,4.85
238.26,8.01,3.16,8.02,3.16,-3.15,-3.17,-3.39,4.87,4.87,4.85
240.64,7.97,3.11,7.98,3.11,-3.11,-3.12,-3.36,4.86,4.86,4.86
243.05,7.93,3.06,7.93,3.06,-3.07,-3.06,-3.32,4.86,4.86,4.87
245.48,7.89,3.02,7.89,3.02,-3.03,-3.00,-3.29,4.87,4.87,4.87
247.93,7.85,2.97,7.86,2.98,-2.99,-2.94,-3.25,4.87,4.87,4.88
250.41,7.83,2.94,7.83,2.94,-2.94,-2.88,-3.21,4.89,4.89,4.89
252.92,7.80,2.90,7.80,2.90,-2.90,-2.82,-3.16,4.90,4.90,4.90
255.45,7.77,2.87,7.77,2.87,-2.86,-2.76,-3.11,4.92,4.91,4.90
258.00,7.73,2.82,7.73,2.82,-2.81,-2.70,-3.06,4.92,4.92,4.91
260.58,7.68,2.77,7.69,2.77,-2.77,-2.64,-3.00,4.92,4.92,4.91
263.19,7.64,2.72,7.64,2.72,-2.72,-2.58,-2.95,4.93,4.92,4.92
265.82,7.58,2.66,7.59,2.67,-2.67,-2.52,-2.88,4.92,4.92,4.92
268.48,7.54,2.61,7.54,2.61,-2.62,-2.46,-2.82,4.92,4.92,4.93
271.16,7.49,2.56,7.49,2.56,-2.57,-2.40,-2.75,4.92,4.92,4.93
273.87,7.43,2.50,7.45,2.51,-2.52,-2.34,-2.68,4.92,4.93,4.93
276.61,7.40,2.46,7.41,2.47,-2.47,-2.28,-2.61,4.94,4.94,4.94
279.38,7.37,2.43,7.37,2.43,-2.41,-2.21,-2.54,4.96,4.96,4.94
282.17,7.32,2.38,7.32,2.37,-2.36,-2.15,-2.46,4.97,4.96,4.94
284.99,7.25,2.30,7.25,2.30,-2.30,-2.09,-2.39,4.96,4.96,4.95
287.84,7.17,2.22,7.18,2.23,-2.24,-2.03,-2.31,4.94,4.95,4.95
290.72,7.11,2.16,7.11,2.16,-2.17,-1.96,-2.23,4.94,4.94,4.95
293.63,7.05,2.10,7.05,2.10,-2.10,-1.90,-2.15,4.95,4.95,4.95
296.57,6.98,2.03,6.99,2.03,-2.04,-1.84,-2.06,4.95,4.95,4.95
299.53,6.92,1.97,6.92,1.97,-1.97,-1.78,-1.98,4.96,4.96,4.95
302.53,6.85,1.89,6.86,1.90,-1.90,-1.71,-1.90,4.96,4.96,4.96
305.55,6.80,1.84,6.80,1.83,-1.83,-1.65,-1.81,4.97,4.97,4.96
308.61,6.73,1.76,6.73,1.76,-1.76,-1.59,-1.73,4.97,4.97,4.97
311.69,6.66,1.69,6.67,1.69,-1.70,-1.52,-1.65,4.97,4.97,4.97
314.81,6.60,1.62,6.61,1.62,-1.63,-1.46,-1.56,4.98,4.98,4.98
317.96,6.54,1.56,6.55,1.56,-1.56,-1.39,-1.48,4.99,4.99,4.98
321.14,6.48,1.49,6.48,1.49,-1.49,-1.33,-1.40,5.00,4.99,4.99
324.35,6.41,1.42,6.41,1.42,-1.42,-1.27,-1.31,4.99,4.99,4.99
327.59,6.33,1.34,6.35,1.35,-1.35,-1.20,-1.23,4.98,4.99,4.99
330.87,6.28,1.28,6.28,1.28,-1.28,-1.14,-1.15,5.00,5.00,5.00
334.18,6.22,1.22,6.22,1.22,-1.22,-1.07,-1.07,5.01,5.01,5.00
337.52,6.16,1.15,6.17,1.15,-1.15,-1.01,-0.98,5.02,5.02,5.01
340.90,6.10,1.08,6.10,1.08,-1.08,-0.94,-0.90,5.03,5.02,5.02
344.30,6.02,1.00,6.03,1.01,-1.01,-0.88,-0.82,5.02,5.02,5.02
347.75,5.95,0.93,5.96,0.94,-0.94,-0.81,-0.74,5.02,5.02,5.02
351.23,5.89,0.87,5.89,0.87,-0.87,-0.75,-0.66,5.03,5.03,5.02
354.74,5.83,0.80,5.83,0.80,-0.79,-0.68,-0.58,5.04,5.04,5.03
358.28,5.75,0.72,5.76,0.72,-0.72,-0.62,-0.50,5.03,5.04,5.03
361.87,5.68,0.65,5.68,0.64,-0.65,-0.55,-0.43,5.04,5.03,5.03
365.49,5.59,0.56,5.61,0.57,-0.58,-0.49,-0.35,5.02,5.03,5.03
369.14,5.53,0.50,5.54,0.51,-0.51,-0.42,-0.27,5.03,5.03,5.03
372.83,5.48,0.45,5.47,0.44,-0.44,-0.35,-0.19,5.05,5.03,5.03
376.56,5.40,0.36,5.41,0.37,-0.37,-0.29,-0.12,5.04,5.04,5.04
380.33,5.33,0.29,5.34,0.30,-0.30,-0.22,-0.04,5.03,5.04,5.04
384.13,5.27,0.23,5.27,0.23,-0.23,-0.16,0.04,5.04,5.04,5.04
387.97,5.21,0.17,5.21,0.17,-0.17,-0.09,0.11,5.05,5.05,5.04
391.85,5.15,0.10,5.15,0.10,-0.10,-0.03,0.19,5.06,5.05,5.05
395.77,5.08,0.03,5.08,0.03,-0.03,0.04,0.26,5.06,5.06,5.05
399.73,5.01,-0.05,5.02,-0.04,0.04,0.10,0.33,5.06,5.06,5.06
403.72,4.94,-0.12,4.95,-0.12,0.12,0.17,0.41,5.06,5.06,5.06
407.76,4.88,-0.19,4.88,-0.19,0.19,0.24,0.48,5.08,5.07,5.07
411.84,4.81,-0.26,4.81,-0.26,0.26,0.30,0.55,5.08,5.08,5.07
415.96,4.74,-0.34,4.74,-0.34,0.34,0.37,0.63,5.08,5.08,5.08
420.12,4.66,-0.42,4.66,-0.42,0.41,0.43,0.70,5.08,5.08,5.08
424.32,4.58,-0.50,4.60,-0.49,0.49,0.50,0.77,5.07,5.08,5.08
428.56,4.53,-0.56,4.53,-0.56,0.56,0.56,0.84,5.09,5.09,5.09
432.85,4.47,-0.62,4.47,-0.63,0.63,0.63,0.91,5.10,5.09,5.09
437.18,4.39,-0.70,4.40,-0.69,0.70,0.70,0.97,5.09,5.10,5.09
441.55,4.32,-0.77,4.33,-0.76,0.76,0.76,1.04,5.09,5.09,5.09
445.96,4.26,-0.83,4.26,-0.83,0.83,0.83,1.11,5.10,5.09,5.09
450.42,4.19,-0.90,4.20,-0.90,0.90,0.89,1.17,5.09,5.09,5.09
454.93,4.13,-0.96,4.13,-0.96,0.96,0.96,1.23,5.10,5.09,5.09
459.48,4.06,-1.03,4.07,-1.03,1.03,1.02,1.29,5.09,5.09,5.09
464.07,3.99,-1.10,4.00,-1.09,1.09,1.09,1.35,5.09,5.09,5.09
468.71,3.94,-1.15,3.94,-1.16,1.16,1.15,1.41,5.10,5.09,5.09
473.40,3.87,-1.22,3.88,-1.22,1.22,1.22,1.47,5.10,5.10,5.09
478.13,3.81,-1.29,3.82,-1.28,1.29,1.28,1.52,5.10,5.10,5.10
482.91,3.75,-1.35,3.75,-1.35,1.35,1.35,1.57,5.11,5.10,5.10
487.74,3.68,-1.42,3.68,-1.42,1.42,1.41,1.62,5.10,5.10,5.10
492.62,3.61,-1.49,3.62,-1.49,1.48,1.47,1.67,5.10,5.10,5.10
497.55,3.55,-1.56,3.56,-1.55,1.55,1.54,1.72,5.11,5.11,5.11
502.52,3.50,-1.61,3.50,-1.61,1.62,1.60,1.76,5.12,5.12,5.11
507.55,3.43,-1.68,3.43,-1.68,1.69,1.67,1.81,5.12,5.12,5.11
512.62,3.36,-1.75,3.36,-1.75,1.75,1.73,1.85,5.12,5.12,5.11
