frequency,raw,error,smoothed,error_smoothed,equalization,parametric_eq,fixed_band_eq,equalized_raw,equalized_smoothed,target
20.00,10.24,3.09,10.24,3.09,-3.09,-3.23,-1.99,7.15,7.15,7.15
20.20,10.26,3.12,10.26,3.11,-3.11,-3.26,-2.04,7.15,7.15,7.14
20.40,10.28,3.14,10.28,3.14,-3.14,-3.30,-2.10,7.14,7.14,7.14
20.61,10.30,3.17,10.30,3.17,-3.16,-3.33,-2.16,7.14,7.14,7.13
20.81,10.33,3.20,10.33,3.19,-3.19,-3.36,-2.23,7.14,7.13,7.13
21.02,10.34,3.21,10.35,3.22,-3.22,-3.39,-2.29,7.12,7.12,7.13
21.23,10.37,3.26,10.37,3.25,-3.26,-3.42,-2.36,7.11,7.11,7.11
21.44,10.38,3.29,10.38,3.29,-3.29,-3.46,-2.43,7.09,7.09,7.09
21.66,10.40,3.33,10.40,3.33,-3.33,-3.49,-2.50,7.07,7.07,7.07
21.87,10.41,3.37,10.42,3.37,-3.37,-3.52,-2.57,7.04,7.05,7.04
22.09,10.44,3.42,10.44,3.42,-3.42,-3.55,-2.64,7.03,7.02,7.02
22.31,10.46,3.46,10.46,3.46,-3.46,-3.58,-2.72,7.00,6.99,7.00
22.54,10.47,3.50,10.48,3.51,-3.51,-3.61,-2.80,6.96,6.97,6.97
22.76,10.50,3.56,10.50,3.56,-3.56,-3.65,-2.88,6.94,6.94,6.94
22.99,10.52,3.61,10.52,3.61,-3.61,-3.68,-2.96,6.91,6.91,6.91
23.22,10.54,3.66,10.54,3.66,-3.66,-3.71,-3.05,6.88,6.89,6.88
23.45,10.57,3.71,10.57,3.71,-3.70,-3.74,-3.13,6.87,6.86,6.86
23.69,10.59,3.75,10.59,3.76,-3.75,-3.77,-3.22,6.84,6.84,6.84
23.92,10.62,3.80,10.62,3.80,-3.79,-3.80,-3.31,6.83,6.82,6.82
24.16,10.64,3.83,10.64,3.84,-3.84,-3.83,-3.40,6.80,6.80,6.81
24.40,10.66,3.87,10.66,3.88,-3.88,-3.86,-3.50,6.78,6.78,6.79
24.65,10.69,3.92,10.69,3.92,-3.93,-3.89,-3.59,6.76,6.76,6.77
24.89,10.71,3.97,10.71,3.97,-3.97,-3.92,-3.69,6.74,6.74,6.75
25.14,10.74,4.02,10.74,4.01,-4.01,-3.95,-3.78,6.73,6.73,6.73
25.39,10.77,4.07,10.77,4.06,-4.06,-3.98,-3.88,6.71,6.71,6.70
25.65,10.79,4.10,10.79,4.11,-4.11,-4.01,-3.98,6.69,6.69,6.69
25.91,10.82,4.16,10.82,4.15,-4.15,-4.04,-4.08,6.67,6.67,6.66
26.16,10.85,4.20,10.85,4.20,-4.19,-4.07,-4.17,6.66,6.65,6.65
26.43,10.87,4.24,10.87,4.24,-4.24,-4.10,-4.27,6.64,6.64,6.63
26.69,10.90,4.28,10.90,4.28,-4.28,-4.13,-4.37,6.62,6.62,6.62
26.96,10.92,4.32,10.92,4.32,-4.32,-4.16,-4.46,6.60,6.60,6.60
27.23,10.94,4.35,10.94,4.35,-4.36,-4.19,-4.56,6.58,6.58,6.59
27.50,10.96,4.39,10.96,4.39,-4.40,-4.22,-4.65,6.56,6.57,6.57
27.77,10.98,4.43,10.98,4.43,-4.43,-4.25,-4.74,6.55,6.55,6.55
28.05,11.01,4.47,11.00,4.47,-4.47,-4.27,-4.83,6.54,6.54,6.54
28.33,11.02,4.51,11.02,4.51,-4.50,-4.30,-4.91,6.52,6.52,6.51
28.62,11.04,4.54,11.04,4.54,-4.54,-4.33,-4.99,6.50,6.51,6.50
28.90,11.06,4.56,11.06,4.57,-4.57,-4.36,-5.06,6.49,6.49,6.50
29.19,11.07,4.60,11.07,4.59,-4.60,-4.38,-5.13,6.47,6.48,6.48
29.48,11.09,4.62,11.09,4.62,-4.63,-4.41,-5.20,6.47,6.46,6.47
29.78,11.10,4.65,11.10,4.65,-4.65,-4.44,-5.26,6.45,6.45,6.45
30.08,11.12,4.68,11.12,4.67,-4.68,-4.46,-5.31,6.44,6.44,6.44
30.38,11.12,4.70,11.12,4.70,-4.70,-4.49,-5.36,6.42,6.42,6.42
30.68,11.13,4.73,11.13,4.73,-4.72,-4.52,-5.40,6.41,6.41,6.40
30.99,11.13,4.75,11.13,4.75,-4.74,-4.54,-5.43,6.39,6.39,6.38
31.30,11.13,4.76,11.13,4.76,-4.76,-4.57,-5.46,6.37,6.37,6.37
31.61,11.13,4.77,11.13,4.78,-4.78,-4.59,-5.48,6.35,6.35,6.36
31.93,11.12,4.80,11.12,4.79,-4.80,-4.61,-5.49,6.32,6.33,6.33
32.24,11.11,4.81,11.12,4.81,-4.81,-4.64,-5.50,6.30,6.30,6.30
32.57,11.11,4.83,11.11,4.82,-4.82,-4.66,-5.50,6.29,6.28,6.28
32.89,11.10,4.83,11.10,4.83,-4.84,-4.69,-5.49,6.26,6.26,6.27
33.22,11.09,4.85,11.09,4.85,-4.85,-4.71,-5.48,6.24,6.24,6.24
33.55,11.08,4.85,11.08,4.86,-4.86,-4.73,-5.46,6.22,6.22,6.23
33.89,11.07,4.87,11.07,4.87,-4.87,-4.76,-5.44,6.20,6.20,6.20
34.23,11.05,4.87,11.06,4.88,-4.87,-4.78,-5.41,6.18,6.18,6.18
34.57,11.04,4.89,11.03,4.88,-4.87,-4.80,-5.38,6.17,6.16,6.15
34.92,11.01,4.88,11.01,4.87,-4.87,-4.82,-5.35,6.14,6.14,6.13
35.27,10.98,4.86,10.99,4.87,-4.87,-4.84,-5.32,6.11,6.12,6.12
35.62,10.96,4.86,10.96,4.86,-4.87,-4.86,-5.28,6.09,6.09,6.10
35.97,10.93,4.87,10.93,4.86,-4.86,-4.88,-5.24,6.07,6.07,6.06
36.33,10.91,4.86,10.91,4.86,-4.86,-4.90,-5.20,6.05,6.04,6.05
36.70,10.88,4.85,10.89,4.86,-4.86,-4.92,-5.15,6.02,6.02,6.03
37.06,10.87,4.87,10.87,4.86,-4.87,-4.94,-5.11,6.00,6.00,6.00
37.43,10.86,4.88,10.86,4.88,-4.88,-4.96,-5.07,5.98,5.98,5.99
37.81,10.85,4.89,10.85,4.89,-4.89,-4.98,-5.03,5.96,5.96,5.96
38.19,10.85,4.91,10.85,4.90,-4.90,-5.00,-4.99,5.95,5.94,5.94
38.57,10.84,4.91,10.84,4.92,-4.92,-5.01,-4.95,5.92,5.92,5.93
38.95,10.84,4.94,10.84,4.94,-4.94,-5.03,-4.91,5.90,5.90,5.90
39.34,10.84,4.96,10.84,4.96,-4.96,-5.05,-4.87,5.88,5.88,5.88
39.74,10.84,4.99,10.84,4.99,-4.98,-5.06,-4.84,5.86,5.86,5.85
40.14,10.84,5.01,10.84,5.01,-5.01,-5.08,-4.81,5.83,5.83,5.84
40.54,10.84,5.03,10.84,5.03,-5.03,-5.10,-4.78,5.81,5.81,5.81
40.94,10.85,5.05,10.85,5.05,-5.05,-5.11,-4.75,5.80,5.80,5.80
41.35,10.85,5.08,10.85,5.07,-5.07,-5.13,-4.73,5.78,5.78,5.77
41.76,10.86,5.10,10.85,5.09,-5.09,-5.14,-4.71,5.77,5.76,5.76
42.18,10.85,5.10,10.85,5.11,-5.11,-5.15,-4.69,5.74,5.74,5.75
42.60,10.85,5.13,10.85,5.12,-5.13,-5.17,-4.68,5.72,5.72,5.72
43.03,10.85,5.13,10.85,5.14,-5.15,-5.18,-4.67,5.70,5.70,5.72
43.46,10.85,5.16,10.85,5.16,-5.16,-5.19,-4.66,5.69,5.69,5.69
43.90,10.85,5.19,10.85,5.18,-5.18,-5.21,-4.66,5.67,5.67,5.66
44.33,10.84,5.21,10.84,5.20,-5.19,-5.22,-4.66,5.65,5.65,5.64
44.78,10.82,5.20,10.82,5.21,-5.20,-5.23,-4.66,5.62,5.62,5.62
45.23,10.81,5.22,10.81,5.21,-5.21,-5.24,-4.67,5.60,5.60,5.60
45.68,10.79,5.21,10.80,5.22,-5.22,-5.25,-4.68,5.57,5.58,5.58
46.13,10.79,5.24,10.79,5.22,-5.22,-5.26,-4.70,5.57,5.57,5.55
46.60,10.77,5.22,10.77,5.22,-5.22,-5.27,-4.71,5.55,5.55,5.55
47.06,10.75,5.22,10.75,5.22,-5.22,-5.28,-4.74,5.53,5.53,5.53
47.53,10.73,5.21,10.73,5.21,-5.22,-5.29,-4.76,5.51,5.51,5.52
48.01,10.71,5.21,10.71,5.21,-5.22,-5.30,-4.79,5.49,5.49,5.50
48.49,10.69,5.22,10.69,5.22,-5.22,-5.30,-4.82,5.47,5.47,5.47
48.97,10.67,5.22,10.67,5.22,-5.23,-5.31,-4.85,5.44,5.44,5.45
49.46,10.65,5.23,10.65,5.23,-5.23,-5.32,-4.89,5.42,5.42,5.42
49.96,10.64,5.25,10.64,5.24,-5.24,-5.32,-4.92,5.40,5.40,5.39
50.46,10.63,5.26,10.63,5.25,-5.25,-5.33,-4.96,5.38,5.38,5.38
50.96,10.61,5.25,10.61,5.26,-5.25,-5.34,-5.01,5.36,5.36,5.36
51.47,10.59,5.26,10.59,5.26,-5.26,-5.34,-5.05,5.33,5.33,5.33
51.99,10.57,5.26,10.57,5.26,-5.26,-5.35,-5.10,5.31,5.31,5.31
52.51,10.55,5.25,10.55,5.25,-5.26,-5.35,-5.14,5.29,5.29,5.30
53.03,10.53,5.25,10.53,5.25,-5.26,-5.36,-5.19,5.27,5.28,5.28
53.56,10.51,5.26,10.51,5.25,-5.25,-5.36,-5.24,5.26,5.26,5.25
54.10,10.49,5.26,10.48,5.25,-5.25,-5.36,-5.29,5.24,5.24,5.23
54.64,10.45,5.24,10.46,5.24,-5.24,-5.36,-5.34,5.21,5.22,5.21
55.18,10.42,5.23,10.42,5.23,-5.23,-5.37,-5.38,5.19,5.19,5.19
55.74,10.39,5.22,10.39,5.22,-5.22,-5.37,-5.43,5.18,5.17,5.17
56.29,10.35,5.20,10.35,5.20,-5.20,-5.37,-5.47,5.15,5.15,5.15
56.86,10.32,5.19,10.32,5.19,-5.19,-5.37,-5.51,5.13,5.13,5.13
57.42,10.28,5.17,10.28,5.17,-5.17,-5.37,-5.55,5.11,5.11,5.11
58.00,10.25,5.16,10.25,5.16,-5.16,-5.37,-5.59,5.09,5.09,5.10
58.58,10.22,5.14,10.22,5.14,-5.14,-5.37,-5.62,5.08,5.08,5.08
59.16,10.20,5.13,10.20,5.13,-5.14,-5.37,-5.65,5.07,5.06,5.07
59.76,10.17,5.13,10.17,5.13,-5.13,-5.37,-5.68,5.04,5.04,5.05
60.35,10.15,5.13,10.15,5.12,-5.12,-5.37,-5.70,5.03,5.02,5.02
60.96,10.12,5.11,10.12,5.12,-5.12,-5.37,-5.71,5.00,5.00,5.01
61.57,10.10,5.13,10.10,5.13,-5.13,-5.37,-5.72,4.97,4.97,4.97
62.18,10.08,5.13,10.08,5.13,-5.13,-5.36,-5.73,4.95,4.95,4.95
62.80,10.07,5.14,10.07,5.14,-5.14,-5.36,-5.73,4.93,4.93,4.93
63.43,10.05,5.15,10.05,5.15,-5.15,-5.36,-5.73,4.90,4.91,4.90
64.07,10.04,5.15,10.05,5.16,-5.16,-5.36,-5.72,4.89,4.89,4.89
64.71,10.04,5.17,10.03,5.17,-5.17,-5.35,-5.70,4.88,4.87,4.87
65.35,10.03,5.18,10.03,5.17,-5.18,-5.35,-5.68,4.85,4.85,4.85
66.01,10.01,5.18,10.02,5.19,-5.19,-5.34,-5.66,4.82,4.83,4.83
66.67,10.01,5.20,10.01,5.20,-5.20,-5.34,-5.63,4.81,4.81,4.81
67.33,10.01,5.22,10.01,5.21,-5.21,-5.33,-5.60,4.80,4.79,4.79
68.01,10.00,5.23,10.00,5.23,-5.22,-5.33,-5.57,4.78,4.78,4.77
68.69,9.99,5.24,9.99,5.24,-5.23,-5.32,-5.53,4.76,4.76,4.75
69.37,9.98,5.25,9.98,5.25,-5.25,-5.32,-5.49,4.73,4.73,4.73
70.07,9.97,5.26,9.97,5.26,-5.26,-5.31,-5.45,4.71,4.71,4.71
70.77,9.96,5.26,9.96,5.26,-5.27,-5.30,-5.40,4.69,4.69,4.70
71.48,9.95,5.28,9.95,5.27,-5.28,-5.30,-5.36,4.67,4.67,4.67
72.19,9.93,5.28,9.93,5.29,-5.29,-5.29,-5.31,4.64,4.65,4.65
72.91,9.92,5.30,9.92,5.30,-5.29,-5.28,-5.27,4.63,4.62,4.62
73.64,9.90,5.31,9.90,5.30,-5.30,-5.28,-5.22,4.60,4.60,4.59
74.38,9.88,5.30,9.88,5.31,-5.31,-5.27,-5.17,4.57,4.57,4.58
75.12,9.87,5.32,9.87,5.32,-5.32,-5.26,-5.13,4.55,4.55,4.55
75.87,9.85,5.33,9.85,5.32,-5.33,-5.25,-5.08,4.52,4.52,4.52
76.63,9.83,5.32,9.83,5.33,-5.33,-5.24,-5.04,4.50,4.50,4.51
77.40,9.82,5.34,9.82,5.34,-5.34,-5.24,-5.00,4.48,4.48,4.48
78.17,9.80,5.36,9.80,5.35,-5.35,-5.23,-4.96,4.45,4.45,4.44
78.95,9.78,5.36,9.78,5.36,-5.35,-5.22,-4.92,4.43,4.43,4.42
79.74,9.76,5.36,9.76,5.36,-5.36,-5.21,-4.89,4.40,4.40,4.40
80.54,9.73,5.36,9.74,5.36,-5.37,-5.20,-4.86,4.36,4.37,4.37
81.35,9.72,5.38,9.72,5.37,-5.38,-5.19,-4.83,4.34,4.34,4.34
82.16,9.69,5.38,9.69,5.38,-5.38,-5.18,-4.80,4.31,4.31,4.31
82.98,9.67,5.38,9.67,5.39,-5.39,-5.17,-4.78,4.28,4.28,4.29
83.81,9.64,5.39,9.64,5.39,-5.39,-5.16,-4.76,4.25,4.25,4.25
84.65,9.61,5.40,9.61,5.40,-5.39,-5.15,-4.75,4.22,4.22,4.21
85.50,9.58,5.39,9.58,5.39,-5.39,-5.14,-4.73,4.19,4.19,4.19
86.35,9.55,5.39,9.55,5.39,-5.39,-5.13,-4.73,4.17,4.16,4.16
87.22,9.50,5.38,9.51,5.38,-5.37,-5.12,-4.72,4.13,4.13,4.12
88.09,9.46,5.37,9.46,5.36,-5.36,-5.11,-4.72,4.10,4.10,4.09
88.97,9.40,5.34,9.40,5.34,-5.34,-5.11,-4.72,4.06,4.06,4.06
89.86,9.34,5.30,9.35,5.32,-5.32,-5.10,-4.72,4.02,4.03,4.04
90.76,9.29,5.30,9.29,5.29,-5.30,-5.09,-4.73,4.00,3.99,3.99
91.66,9.23,5.27,9.23,5.27,-5.27,-5.08,-4.75,3.96,3.96,3.96
92.58,9.17,5.25,9.17,5.25,-5.25,-5.07,-4.76,3.93,3.93,3.92
93.51,9.11,5.21,9.11,5.22,-5.22,-5.06,-4.78,3.89,3.89,3.90
94.44,9.06,5.20,9.06,5.20,-5.20,-5.05,-4.80,3.86,3.86,3.86
95.39,9.00,5.18,9.00,5.18,-5.18,-5.04,-4.83,3.82,3.82,3.82
96.34,8.94,5.17,8.94,5.16,-5.16,-5.03,-4.86,3.78,3.78,3.78
97.30,8.88,5.14,8.88,5.15,-5.15,-5.02,-4.89,3.73,3.74,3.74
98.28,8.83,5.13,8.83,5.13,-5.14,-5.01,-4.92,3.70,3.69,3.70
99.26,8.78,5.12,8.78,5.12,-5.13,-5.00,-4.96,3.65,3.65,3.66
100.25,8.74,5.12,8.74,5.12,-5.12,-4.99,-5.00,3.62,3.62,3.62
101.25,8.70,5.12,8.70,5.12,-5.12,-4.99,-5.04,3.58,3.58,3.58
102.27,8.66,5.12,8.66,5.12,-5.12,-4.98,-5.08,3.54,3.54,3.54
103.29,8.62,5.14,8.62,5.13,-5.12,-4.97,-5.13,3.50,3.50,3.48
104.32,8.58,5.13,8.58,5.13,-5.13,-4.96,-5.17,3.46,3.45,3.45
105.37,8.54,5.14,8.54,5.13,-5.13,-4.96,-5.22,3.41,3.41,3.40
106.42,8.49,5.13,8.49,5.13,-5.13,-4.95,-5.27,3.36,3.36,3.36
107.48,8.45,5.13,8.45,5.13,-5.14,-4.94,-5.31,3.31,3.32,3.32
108.56,8.41,5.15,8.41,5.14,-5.14,-4.93,-5.36,3.27,3.27,3.27
109.64,8.37,5.14,8.37,5.14,-5.15,-4.93,-5.41,3.22,3.22,3.23
110.74,8.33,5.15,8.33,5.15,-5.16,-4.92,-5.45,3.18,3.18,3.18
111.85,8.29,5.15,8.29,5.16,-5.17,-4.92,-5.50,3.13,3.12,3.14
112.97,8.25,5.18,8.25,5.17,-5.18,-4.91,-5.54,3.07,3.08,3.07
114.10,8.21,5.18,8.22,5.19,-5.19,-4.91,-5.57,3.03,3.03,3.03
115.24,8.18,5.20,8.18,5.20,-5.19,-4.90,-5.61,2.99,2.98,2.98
116.39,8.14,5.21,8.14,5.20,-5.20,-4.90,-5.64,2.94,2.94,2.93
117.55,8.09,5.20,8.09,5.21,-5.20,-4.90,-5.67,2.89,2.89,2.89
118.73,8.04,5.20,8.04,5.20,-5.19,-4.89,-5.69,2.85,2.85,2.84
119.92,7.99,5.19,7.99,5.19,-5.19,-4.89,-5.71,2.81,2.80,2.80
121.12,7.93,5.18,7.93,5.18,-5.17,-4.89,-5.72,2.76,2.76,2.76
122.33,7.87,5.16,7.87,5.16,-5.16,-4.89,-5.72,2.71,2.71,2.71
123.55,7.81,5.14,7.81,5.14,-5.14,-4.89,-5.73,2.67,2.67,2.67
124.79,7.75,5.11,7.75,5.12,-5.12,-4.88,-5.72,2.63,2.63,2.64
126.03,7.69,5.10,7.69,5.10,-5.10,-4.88,-5.71,2.59,2.59,2.59
127.29,7.63,5.08,7.63,5.08,-5.08,-4.88,-5.69,2.55,2.55,2.55
128.57,7.57,5.07,7.57,5.07,-5.07,-4.88,-5.67,2.50,2.51,2.50
129.85,7.52,5.06,7.52,5.05,-5.05,-4.89,-5.64,2.47,2.47,2.46
131.15,7.46,5.03,7.46,5.03,-5.03,-4.89,-5.61,2.43,2.43,2.43
132.46,7.41,5.02,7.41,5.02,-5.01,-4.89,-5.57,2.40,2.40,2.40
133.79,7.36,5.00,7.36,5.00,-5.00,-4.89,-5.53,2.36,2.36,2.36
135.12,7.31,4.99,7.31,4.98,-4.98,-4.89,-5.48,2.33,2.32,2.32
136.48,7.26,4.96,7.26,4.96,-4.97,-4.90,-5.43,2.29,2.29,2.30
137.84,7.22,4.95,7.22,4.95,-4.96,-4.90,-5.37,2.26,2.26,2.27
139.22,7.19,4.95,7.19,4.95,-4.95,-4.90,-5.31,2.24,2.24,2.24
140.61,7.16,4.95,7.16,4.95,-4.94,-4.90,-5.25,2.22,2.22,2.21
142.02,7.14,4.94,7.14,4.94,-4.93,-4.91,-5.19,2.21,2.20,2.20
143.44,7.11,4.94,7.11,4.93,-4.93,-4.91,-5.12,2.18,2.19,2.18
144.87,7.08,4.92,7.08,4.92,-4.92,-4.92,-5.06,2.16,2.17,2.16
146.32,7.05,4.91,7.05,4.91,-4.90,-4.92,-4.99,2.15,2.15,2.14
147.78,7.01,4.89,7.01,4.89,-4.89,-4.92,-4.92,2.12,2.12,2.13
149.26,6.98,4.87,6.97,4.87,-4.87,-4.93,-4.86,2.11,2.10,2.11
150.75,6.93,4.86,6.94,4.85,-4.86,-4.93,-4.79,2.07,2.08,2.07
152.26,6.90,4.84,6.90,4.84,-4.84,-4.93,-4.72,2.06,2.06,2.06
153.78,6.87,4.82,6.87,4.82,-4.82,-4.94,-4.66,2.05,2.04,2.05
155.32,6.83,4.81,6.83,4.81,-4.81,-4.94,-4.60,2.02,2.02,2.02
156.88,6.80,4.79,6.80,4.79,-4.79,-4.94,-4.54,2.01,2.00,2.01
158.44,6.76,4.77,6.77,4.78,-4.78,-4.94,-4.48,1.98,1.98,1.99
160.03,6.74,4.77,6.73,4.77,-4.77,-4.94,-4.42,1.97,1.97,1.97
161.63,6.70,4.76,6.70,4.76,-4.76,-4.94,-4.37,1.94,1.95,1.94
163.24,6.67,4.75,6.67,4.75,-4.75,-4.94,-4.31,1.92,1.93,1.92
164.88,6.64,4.73,6.64,4.74,-4.74,-4.94,-4.26,1.90,1.90,1.91
166.53,6.61,4.72,6.61,4.73,-4.73,-4.94,-4.22,1.88,1.88,1.89
168.19,6.58,4.72,6.58,4.72,-4.72,-4.93,-4.17,1.86,1.86,1.86
169.87,6.55,4.71,6.55,4.72,-4.72,-4.93,-4.13,1.84,1.84,1.84
171.57,6.53,4.72,6.53,4.71,-4.71,-4.92,-4.10,1.82,1.82,1.81
173.29,6.50,4.71,6.50,4.71,-4.71,-4.91,-4.06,1.80,1.79,1.80
175.02,6.47,4.70,6.47,4.70,-4.70,-4.90,-4.03,1.77,1.76,1.77
176.77,6.43,4.70,6.43,4.70,-4.70,-4.89,-4.00,1.73,1.73,1.73
178.54,6.40,4.70,6.40,4.70,-4.70,-4.87,-3.97,1.70,1.70,1.70
180.32,6.37,4.70,6.37,4.70,-4.70,-4.86,-3.95,1.67,1.67,1.67
182.13,6.34,4.69,6.34,4.70,-4.70,-4.84,-3.93,1.64,1.64,1.65
183.95,6.31,4.71,6.31,4.70,-4.70,-4.82,-3.92,1.61,1.61,1.60
185.79,6.28,4.70,6.28,4.70,-4.69,-4.79,-3.90,1.59,1.59,1.58
187.65,6.24,4.69,6.24,4.69,-4.68,-4.77,-3.89,1.56,1.56,1.55
189.52,6.19,4.67,6.20,4.67,-4.67,-4.74,-3.88,1.52,1.52,1.52
191.42,6.15,4.66,6.15,4.66,-4.66,-4.71,-3.88,1.49,1.49,1.49
193.33,6.10,4.63,6.10,4.63,-4.64,-4.68,-3.88,1.46,1.46,1.47
195.27,6.05,4.61,6.05,4.61,-4.61,-4.64,-3.88,1.44,1.44,1.44
197.22,5.99,4.57,6.00,4.59,-4.59,-4.60,-3.88,1.41,1.41,1.42
199.19,5.95,4.58,5.95,4.56,-4.56,-4.56,-3.88,1.39,1.39,1.37
201.18,5.90,4.54,5.89,4.53,-4.53,-4.52,-3.89,1.37,1.36,1.36
203.19,5.83,4.49,5.84,4.50,-4.50,-4.48,-3.90,1.33,1.34,1.34
205.23,5.78,4.47,5.78,4.46,-4.47,-4.43,-3.90,1.31,1.31,1.31
207.28,5.74,4.43,5.74,4.43,-4.44,-4.38,-3.91,1.30,1.30,1.31
209.35,5.69,4.41,5.69,4.41,-4.41,-4.33,-3.92,1.28,1.28,1.29
211.44,5.65,4.39,5.65,4.38,-4.38,-4.27,-3.93,1.27,1.27,1.26
213.56,5.60,4.35,5.60,4.35,-4.35,-4.21,-3.94,1.25,1.25,1.25
215.69,5.56,4.31,5.56,4.32,-4.32,-4.16,-3.96,1.24,1.24,1.25
217.85,5.52,4.29,5.52,4.29,-4.29,-4.09,-3.97,1.23,1.23,1.23
220.03,5.49,4.27,5.49,4.26,-4.26,-4.03,-3.97,1.23,1.23,1.22
222.23,5.45,4.23,5.45,4.23,-4.23,-3.97,-3.98,1.23,1.23,1.22
224.45,5.42,4.19,5.42,4.19,-4.19,-3.90,-3.99,1.23,1.23,1.23
226.70,5.38,4.15,5.38,4.15,-4.15,-3.83,-3.99,1.23,1.23,1.23
228.96,5.35,4.11,5.35,4.11,-4.11,-3.76,-3.99,1.24,1.23,1.24
231.25,5.31,4.06,5.31,4.07,-4.07,-3.69,-3.99,1.24,1.24,1.25
233.57,5.28,4.03,5.28,4.03,-4.03,-3.62,-3.98,1.25,1.25,1.25
235.90,5.25,3.98,5.25,3.98,-3.99,-3.55,-3.97,1.26,1.26,1.27
238.26,5.22,3.95,5.22,3.94,-3.94,-3.47,-3.96,1.28,1.28,1.27
240.64,5.18,3.88,5.18,3.89,-3.88,-3.40,-3.94,1.30,1.30,1.30
243.05,5.15,3.84,5.14,3.83,-3.82,-3.32,-3.91,1.33,1.32,1.31
245.48,5.09,3.76,5.10,3.76,-3.76,-3.25,-3.89,1.33,1.34,1.34
247.93,5.04,3.68,5.04,3.69,-3.69,-3.17,-3.85,1.35,1.36,1.36
250.41,4.99,3.62,4.98,3.61,-3.61,-3.09,-3.81,1.38,1.38,1.37
252.92,4.92,3.52,4.92,3.52,-3.52,-3.01,-3.77,1.40,1.40,1.40
255.45,4.85,3.42,4.85,3.43,-3.43,-2.93,-3.72,1.42,1.42,1.43
258.00,4.78,3.34,4.78,3.33,-3.34,-2.86,-3.66,1.44,1.44,1.44
260.58,4.71,3.24,4.71,3.24,-3.24,-2.78,-3.60,1.47,1.47,1.47
263.19,4.63,3.14,4.63,3.14,-3.14,-2.70,-3.54,1.49,1.49,1.49
265.82,4.56,3.05,4.56,3.04,-3.05,-2.62,-3.47,1.51,1.52,1.51
268.48,4.49,2.94,4.49,2.95,-2.95,-2.54,-3.39,1.54,1.54,1.55
271.16,4.42,2.85,4.42,2.85,-2.85,-2.46,-3.31,1.57,1.57,1.57
273.87,4.34,2.75,4.34,2.75,-2.75,-2.38,-3.23,1.59,1.59,1.59
276.61,4.27,2.65,4.27,2.66,-2.65,-2.30,-3.14,1.62,1.62,1.62
279.38,4.20,2.57,4.20,2.56,-2.55,-2.22,-3.05,1.65,1.64,1.63
282.17,4.12,2.46,4.12,2.46,-2.45,-2.15,-2.96,1.67,1.66,1.66
284.99,4.04,2.35,4.04,2.36,-2.36,-2.07,-2.86,1.69,1.69,1.69
287.84,3.96,2.25,3.97,2.25,-2.26,-1.99,-2.77,1.71,1.71,1.72
290.72,3.90,2.16,3.89,2.15,-2.16,-1.91,-2.67,1.74,1.74,1.74
293.63,3.82,2.05,3.82,2.05,-2.06,-1.84,-2.56,1.77,1.77,1.77
296.57,3.75,1.95,3.75,1.96,-1.96,-1.76,-2.46,1.80,1.80,1.80
299.53,3.68,1.86,3.68,1.86,-1.85,-1.68,-2.35,1.83,1.82,1.82
302.53,3.61,1.77,3.61,1.76,-1.75,-1.61,-2.25,1.86,1.86,1.84
305.55,3.54,1.65,3.54,1.66,-1.65,-1.53,-2.14,1.89,1.89,1.89
308.61,3.48,1.56,3.48,1.56,-1.55,-1.46,-2.03,1.93,1.93,1.92
311.69,3.42,1.46,3.42,1.45,-1.46,-1.38,-1.92,1.97,1.96,1.96
314.81,3.35,1.35,3.35,1.36,-1.36,-1.31,-1.81,1.99,1.99,2.00
317.96,3.28,1.26,3.28,1.26,-1.26,-1.23,-1.71,2.02,2.02,2.02
321.14,3.22,1.17,3.22,1.17,-1.17,-1.16,-1.60,2.05,2.05,2.05
324.35,3.16,1.08,3.16,1.08,-1.08,-1.08,-1.49,2.08,2.07,2.08
327.59,3.10,0.99,3.10,0.99,-1.00,-1.01,-1.38,2.10,2.10,2.11
330.87,3.05,0.92,3.05,0.92,-0.92,-0.94,-1.27,2.13,2.13,2.14
334.18,3.00,0.85,3.00,0.85,-0.85,-0.87,-1.16,2.15,2.15,2.15
337.52,2.96,0.79,2.96,0.78,-0.78,-0.79,-1.06,2.18,2.18,2.17
340.90,2.90,0.70,2.90,0.71,-0.71,-0.72,-0.95,2.20,2.20,2.20
344.30,2.85,0.63,2.85,0.63,-0.63,-0.65,-0.84,2.22,2.22,2.22
347.75,2.79,0.55,2.80,0.56,-0.55,-0.58,-0.74,2.24,2.25,2.24
351.23,2.74,0.48,2.74,0.48,-0.47,-0.51,-0.63,2.27,2.27,2.26
354.74,2.67,0.39,2.67,0.39,-0.38,-0.44,-0.52,2.29,2.29,2.28
358.28,2.58,0.29,2.59,0.29,-0.29,-0.37,-0.42,2.29,2.30,2.29
361.87,2.50,0.19,2.50,0.19,-0.19,-0.30,-0.31,2.31,2.31,2.31
365.49,2.41,0.08,2.41,0.08,-0.09,-0.23,-0.21,2.32,2.32,2.33
369.14,2.32,-0.02,2.32,-0.02,0.02,-0.16,-0.10,2.34,2.34,2.34
372.83,2.23,-0.13,2.23,-0.12,0.13,-0.09,-0.00,2.36,2.36,2.36
376.56,2.15,-0.22,2.14,-0.23,0.24,-0.02,0.10,2.39,2.38,2.37
380.33,2.05,-0.35,2.05,-0.34,0.35,0.05,0.21,2.40,2.41,2.40
384.13,1.96,-0.46,1.96,-0.46,0.46,0.12,0.31,2.43,2.42,2.42
387.97,1.86,-0.58,1.86,-0.58,0.58,0.19,0.41,2.44,2.44,2.44
391.85,1.76,-0.69,1.76,-0.69,0.69,0.26,0.51,2.45,2.45,2.45
395.77,1.67,-0.80,1.67,-0.80,0.80,0.33,0.61,2.47,2.47,2.48
399.73,1.60,-0.89,1.59,-0.90,0.90,0.40,0.71,2.50,2.49,2.49
403.72,1.52,-0.99,1.52,-0.99,0.99,0.47,0.81,2.51,2.51,2.51
407.76,1.46,-1.07,1.47,-1.07,1.06,0.53,0.91,2.52,2.53,2.53
411.84,1.42,-1.14,1.42,-1.14,1.12,0.60,1.01,2.54,2.54,2.56
415.96,1.40,-1.18,1.40,-1.19,1.17,0.67,1.11,2.57,2.57,2.58
420.12,1.38,-1.22,1.39,-1.21,1.20,0.74,1.20,2.59,2.59,2.60
424.32,1.39,-1.23,1.39,-1.23,1.23,0.81,1.29,2.62,2.62,2.62
428.56,1.40,-1.24,1.40,-1.24,1.25,0.87,1.39,2.65,2.65,2.64
432.85,1.41,-1.25,1.41,-1.25,1.26,0.94,1.48,2.67,2.67,2.66
437.18,1.43,-1.26,1.43,-1.26,1.27,1.01,1.57,2.70,2.70,2.69
441.55,1.44,-1.28,1.44,-1.28,1.28,1.08,1.65,2.72,2.72,2.72
445.96,1.44,-1.30,1.45,-1.29,1.30,1.14,1.74,2.74,2.74,2.74
450.42,1.45,-1.31,1.45,-1.32,1.32,1.21,1.82,2.77,2.77,2.76
454.93,1.45,-1.35,1.45,-1.34,1.34,1.28,1.89,2.79,2.80,2.80
459.48,1.45,-1.37,1.45,-1.37,1.38,1.35,1.97,2.83,2.83,2.82
464.07,1.44,-1.41,1.44,-1.41,1.41,1.41,2.04,2.85,2.85,2.85
468.71,1.42,-1.46,1.42,-1.45,1.46,1.48,2.11,2.88,2.88,2.88
473.40,1.40,-1.50,1.40,-1.50,1.50,1.54,2.17,2.90,2.90,2.91
478.13,1.38,-1.55,1.38,-1.56,1.55,1.61,2.23,2.93,2.93,2.94
482.91,1.35,-1.60,1.35,-1.61,1.61,1.67,2.29,2.96,2.96,2.96
487.74,1.32,-1.66,1.32,-1.66,1.66,1.74,2.34,2.98,2.99,2.98
492.62,1.30,-1.71,1.30,-1.72,1.72,1.80,2.39,3.02,3.01,3.01
497.55,1.27,-1.77,1.27,-1.77,1.77,1.86,2.43,3.04,3.04,3.04
502.52,1.24,-1.83,1.24,-1.83,1.83,1.92,2.47,3.07,3.07,3.07
507.55,1.21,-1.88,1.21,-1.88,1.88,1.99,2.51,3.09,3.09,3.09
512.62,1.18,-1.93,1.18,-1.94,1.93,2.05,2.54,3.11,3.12,3.11
517.75,1.16,-1.98,1.15,-1.99,1.99,2.10,2.56,3.15,3.14,3.14
522.93,1.12,-2.05,1.13,-2.04,2.04,2.16,2.59,3.16,3.17,3.17
528.16,1.10,-2.09,1.10,-2.09,2.10,2.22,2.60,3.20,3.19,3.19
