frequency,raw,error,smoothed,error_smoothed,equalization,parametric_eq,fixed_band_eq,equalized_raw,equalized_smoothed,target
20.00,-14.36,-10.70,-14.36,-10.70,6.00,5.47,2.62,-8.36,-8.36,-3.66
20.20,-14.21,-10.64,-14.21,-10.64,6.00,5.52,2.69,-8.21,-8.21,-3.57
20.40,-14.06,-10.58,-14.06,-10.58,6.00,5.57,2.77,-8.06,-8.06,-3.48
20.61,-13.91,-10.50,-13.91,-10.51,6.00,5.62,2.85,-7.91,-7.91,-3.41
20.81,-13.76,-10.44,-13.76,-10.44,6.00,5.67,2.93,-7.76,-7.76,-3.32
21.02,-13.62,-10.38,-13.61,-10.37,6.00,5.72,3.02,-7.62,-7.61,-3.24
21.23,-13.47,-10.29,-13.47,-10.29,6.00,5.76,3.11,-7.47,-7.47,-3.18
21.44,-13.32,-10.20,-13.32,-10.21,6.00,5.81,3.20,-7.32,-7.32,-3.12
21.66,-13.17,-10.12,-13.17,-10.11,6.00,5.85,3.29,-7.17,-7.17,-3.05
21.87,-13.02,-10.02,-13.02,-10.02,6.00,5.89,3.39,-7.02,-7.02,-3.00
22.09,-12.87,-9.92,-12.87,-9.92,6.00,5.93,3.48,-6.87,-6.87,-2.95
22.31,-12.72,-9.82,-12.72,-9.82,6.00,5.96,3.59,-6.72,-6.72,-2.90
22.54,-12.57,-9.72,-12.57,-9.72,6.00,6.00,3.69,-6.57,-6.57,-2.85
22.76,-12.42,-9.61,-12.42,-9.61,6.00,6.03,3.79,-6.42,-6.42,-2.81
22.99,-12.27,-9.50,-12.27,-9.50,6.00,6.06,3.90,-6.27,-6.27,-2.77
23.22,-12.12,-9.39,-12.12,-9.39,6.00,6.08,4.01,-6.12,-6.12,-2.73
23.45,-11.97,-9.29,-11.97,-9.28,6.00,6.11,4.13,-5.97,-5.97,-2.68
23.69,-11.82,-9.18,-11.82,-9.18,6.00,6.13,4.24,-5.82,-5.82,-2.64
23.92,-11.67,-9.06,-11.67,-9.07,6.00,6.15,4.36,-5.67,-5.67,-2.60
24.16,-11.52,-8.96,-11.52,-8.96,6.00,6.17,4.48,-5.52,-5.52,-2.55
24.40,-11.37,-8.85,-11.37,-8.85,6.00,6.18,4.61,-5.37,-5.37,-2.51
24.65,-11.22,-8.74,-11.22,-8.74,6.00,6.20,4.73,-5.22,-5.22,-2.48
24.89,-11.06,-8.62,-11.07,-8.62,6.00,6.20,4.86,-5.06,-5.07,-2.44
25.14,-10.92,-8.51,-10.92,-8.51,6.00,6.21,4.99,-4.92,-4.92,-2.40
25.39,-10.76,-8.40,-10.77,-8.40,6.00,6.22,5.11,-4.76,-4.77,-2.36
25.65,-10.62,-8.29,-10.62,-8.29,6.00,6.22,5.24,-4.62,-4.62,-2.33
25.91,-10.47,-8.17,-10.47,-8.18,6.00,6.22,5.37,-4.47,-4.47,-2.30
26.16,-10.33,-8.07,-10.33,-8.07,6.00,6.21,5.50,-4.33,-4.33,-2.26
26.43,-10.18,-7.95,-10.18,-7.96,6.00,6.20,5.63,-4.18,-4.18,-2.23
26.69,-10.04,-7.85,-10.04,-7.85,6.00,6.19,5.76,-4.04,-4.04,-2.19
26.96,-9.89,-7.74,-9.89,-7.74,6.00,6.18,5.88,-3.89,-3.89,-2.15
27.23,-9.75,-7.63,-9.75,-7.63,6.00,6.17,6.01,-3.75,-3.75,-2.12
27.50,-9.60,-7.52,-9.60,-7.52,6.00,6.15,6.13,-3.60,-3.60,-2.08
27.77,-9.46,-7.41,-9.45,-7.41,6.00,6.13,6.24,-3.46,-3.45,-2.05
28.05,-9.31,-7.30,-9.31,-7.30,6.00,6.11,6.35,-3.31,-3.31,-2.01
28.33,-9.18,-7.19,-9.17,-7.19,6.00,6.08,6.46,-3.18,-3.17,-1.99
28.62,-9.04,-7.09,-9.04,-7.08,6.00,6.05,6.56,-3.04,-3.04,-1.95
28.90,-8.90,-6.98,-8.90,-6.98,6.00,6.02,6.65,-2.90,-2.90,-1.91
29.19,-8.76,-6.87,-8.76,-6.88,6.00,5.99,6.73,-2.76,-2.76,-1.88
29.48,-8.62,-6.78,-8.62,-6.77,6.00,5.96,6.80,-2.62,-2.62,-1.84
29.78,-8.48,-6.66,-8.48,-6.67,6.00,5.92,6.87,-2.48,-2.48,-1.82
30.08,-8.35,-6.57,-8.35,-6.57,6.01,5.88,6.92,-2.34,-2.35,-1.78
30.38,-8.23,-6.48,-8.23,-6.48,6.01,5.84,6.97,-2.22,-2.22,-1.75
30.68,-8.11,-6.40,-8.11,-6.39,6.02,5.80,7.00,-2.09,-2.09,-1.71
30.99,-7.99,-6.30,-7.99,-6.30,6.02,5.76,7.02,-1.97,-1.97,-1.69
31.30,-7.86,-6.21,-7.86,-6.21,6.00,5.71,7.03,-1.85,-1.86,-1.65
31.61,-7.74,-6.11,-7.74,-6.11,5.98,5.66,7.02,-1.76,-1.76,-1.62
31.93,-7.62,-6.02,-7.62,-6.02,5.94,5.61,7.01,-1.68,-1.67,-1.59
32.24,-7.50,-5.92,-7.49,-5.92,5.89,5.56,6.98,-1.61,-1.61,-1.58
32.57,-7.37,-5.82,-7.37,-5.83,5.82,5.51,6.94,-1.55,-1.55,-1.55
32.89,-7.25,-5.74,-7.25,-5.73,5.74,5.46,6.90,-1.50,-1.50,-1.51
33.22,-7.13,-5.64,-7.13,-5.63,5.66,5.40,6.84,-1.47,-1.47,-1.49
33.55,-7.01,-5.53,-7.01,-5.54,5.56,5.35,6.77,-1.45,-1.45,-1.47
33.89,-6.90,-5.44,-6.90,-5.45,5.46,5.29,6.69,-1.44,-1.44,-1.45
34.23,-6.79,-5.36,-6.79,-5.36,5.36,5.23,6.61,-1.43,-1.43,-1.43
34.57,-6.68,-5.27,-6.68,-5.27,5.26,5.17,6.52,-1.41,-1.41,-1.41
34.92,-6.57,-5.17,-6.57,-5.18,5.17,5.11,6.42,-1.40,-1.40,-1.40
35.27,-6.46,-5.09,-6.46,-5.08,5.08,5.05,6.32,-1.38,-1.38,-1.37
35.62,-6.35,-4.99,-6.35,-4.99,4.99,4.99,6.21,-1.36,-1.36,-1.36
35.97,-6.25,-4.89,-6.25,-4.90,4.90,4.93,6.10,-1.35,-1.35,-1.35
36.33,-6.15,-4.81,-6.15,-4.80,4.81,4.87,5.99,-1.34,-1.34,-1.34
36.70,-6.05,-4.72,-6.05,-4.72,4.72,4.81,5.87,-1.33,-1.33,-1.33
37.06,-5.95,-4.63,-5.95,-4.63,4.63,4.75,5.75,-1.31,-1.32,-1.32
37.43,-5.86,-4.55,-5.85,-4.55,4.54,4.68,5.64,-1.31,-1.31,-1.30
37.81,-5.76,-4.46,-5.76,-4.46,4.46,4.62,5.52,-1.30,-1.30,-1.30
38.19,-5.67,-4.38,-5.67,-4.38,4.38,4.56,5.40,-1.29,-1.29,-1.29
38.57,-5.58,-4.30,-5.58,-4.29,4.29,4.49,5.28,-1.29,-1.29,-1.28
38.95,-5.50,-4.21,-5.50,-4.21,4.21,4.43,5.17,-1.29,-1.28,-1.28
39.34,-5.42,-4.13,-5.42,-4.13,4.13,4.37,5.05,-1.28,-1.28,-1.29
39.74,-5.34,-4.06,-5.34,-4.05,4.06,4.30,4.94,-1.28,-1.28,-1.28
40.14,-5.27,-3.98,-5.27,-3.98,3.99,4.24,4.83,-1.28,-1.28,-1.28
40.54,-5.20,-3.91,-5.20,-3.92,3.92,4.17,4.72,-1.28,-1.28,-1.29
40.94,-5.14,-3.86,-5.14,-3.85,3.85,4.11,4.61,-1.28,-1.28,-1.28
41.35,-5.08,-3.79,-5.08,-3.79,3.80,4.05,4.51,-1.28,-1.28,-1.28
41.76,-5.02,-3.74,-5.02,-3.74,3.74,3.99,4.41,-1.28,-1.28,-1.28
42.18,-4.97,-3.70,-4.97,-3.69,3.69,3.92,4.31,-1.28,-1.28,-1.27
42.60,-4.92,-3.64,-4.91,-3.64,3.64,3.86,4.21,-1.28,-1.28,-1.28
43.03,-4.87,-3.60,-4.87,-3.60,3.59,3.80,4.12,-1.27,-1.28,-1.27
43.46,-4.83,-3.55,-4.83,-3.55,3.55,3.74,4.03,-1.28,-1.28,-1.27
43.90,-4.80,-3.51,-4.80,-3.51,3.51,3.67,3.95,-1.29,-1.28,-1.29
44.33,-4.77,-3.47,-4.77,-3.47,3.47,3.61,3.86,-1.29,-1.29,-1.29
44.78,-4.74,-3.44,-4.74,-3.44,3.44,3.55,3.78,-1.30,-1.30,-1.30
45.23,-4.72,-3.41,-4.72,-3.41,3.41,3.49,3.70,-1.31,-1.30,-1.30
45.68,-4.70,-3.39,-4.69,-3.38,3.39,3.43,3.63,-1.31,-1.31,-1.31
46.13,-4.67,-3.35,-4.67,-3.36,3.37,3.37,3.56,-1.30,-1.31,-1.31
46.60,-4.66,-3.35,-4.65,-3.34,3.35,3.31,3.49,-1.31,-1.31,-1.31
47.06,-4.64,-3.33,-4.64,-3.33,3.33,3.25,3.42,-1.31,-1.31,-1.31
47.53,-4.63,-3.32,-4.63,-3.32,3.31,3.20,3.36,-1.31,-1.31,-1.31
48.01,-4.62,-3.32,-4.62,-3.31,3.30,3.14,3.30,-1.32,-1.32,-1.30
48.49,-4.61,-3.29,-4.61,-3.29,3.29,3.08,3.24,-1.32,-1.32,-1.32
48.97,-4.60,-3.28,-4.60,-3.27,3.28,3.02,3.18,-1.32,-1.32,-1.32
49.46,-4.59,-3.26,-4.59,-3.26,3.27,2.97,3.13,-1.32,-1.32,-1.33
49.96,-4.58,-3.24,-4.58,-3.25,3.26,2.91,3.07,-1.32,-1.32,-1.34
50.46,-4.57,-3.25,-4.57,-3.24,3.25,2.86,3.02,-1.32,-1.32,-1.31
50.96,-4.56,-3.25,-4.55,-3.24,3.23,2.80,2.98,-1.32,-1.32,-1.31
51.47,-4.54,-3.22,-4.54,-3.23,3.22,2.75,2.93,-1.31,-1.31,-1.32
51.99,-4.52,-3.21,-4.52,-3.21,3.21,2.69,2.88,-1.30,-1.31,-1.31
52.51,-4.50,-3.20,-4.50,-3.20,3.20,2.64,2.84,-1.30,-1.30,-1.30
53.03,-4.48,-3.19,-4.47,-3.18,3.18,2.58,2.80,-1.29,-1.29,-1.29
53.56,-4.45,-3.16,-4.45,-3.16,3.16,2.53,2.76,-1.28,-1.29,-1.29
54.10,-4.42,-3.13,-4.42,-3.14,3.14,2.48,2.72,-1.28,-1.28,-1.29
54.64,-4.39,-3.11,-4.39,-3.11,3.10,2.43,2.68,-1.28,-1.28,-1.28
55.18,-4.35,-3.07,-4.35,-3.07,3.06,2.38,2.64,-1.28,-1.28,-1.28
55.74,-4.30,-3.02,-4.30,-3.02,3.02,2.33,2.60,-1.28,-1.28,-1.28
56.29,-4.25,-2.97,-4.25,-2.97,2.96,2.28,2.56,-1.28,-1.28,-1.28
56.86,-4.19,-2.91,-4.19,-2.90,2.90,2.23,2.52,-1.28,-1.28,-1.28
57.42,-4.12,-2.83,-4.12,-2.83,2.84,2.18,2.47,-1.28,-1.28,-1.29
58.00,-4.06,-2.76,-4.06,-2.76,2.77,2.13,2.43,-1.29,-1.29,-1.29
58.58,-3.99,-2.69,-3.99,-2.69,2.69,2.08,2.39,-1.30,-1.30,-1.30
59.16,-3.92,-2.62,-3.92,-2.62,2.61,2.03,2.35,-1.31,-1.31,-1.30
59.76,-3.84,-2.53,-3.84,-2.53,2.52,1.98,2.30,-1.31,-1.31,-1.30
60.35,-3.76,-2.44,-3.76,-2.44,2.43,1.93,2.26,-1.32,-1.32,-1.32
60.96,-3.68,-2.35,-3.68,-2.34,2.34,1.89,2.21,-1.34,-1.34,-1.33
61.57,-3.60,-2.24,-3.60,-2.24,2.25,1.84,2.16,-1.35,-1.35,-1.36
62.18,-3.53,-2.14,-3.52,-2.15,2.15,1.79,2.11,-1.38,-1.37,-1.38
62.80,-3.45,-2.06,-3.45,-2.05,2.06,1.75,2.06,-1.39,-1.39,-1.39
63.43,-3.37,-1.95,-3.37,-1.96,1.96,1.70,2.01,-1.41,-1.41,-1.42
64.07,-3.29,-1.87,-3.29,-1.87,1.87,1.65,1.95,-1.42,-1.42,-1.42
64.71,-3.21,-1.78,-3.21,-1.78,1.78,1.61,1.89,-1.43,-1.43,-1.43
65.35,-3.14,-1.70,-3.13,-1.69,1.69,1.56,1.83,-1.45,-1.44,-1.44
66.01,-3.06,-1.61,-3.05,-1.61,1.60,1.52,1.77,-1.45,-1.45,-1.45
66.67,-2.97,-1.51,-2.97,-1.52,1.52,1.47,1.71,-1.45,-1.45,-1.46
67.33,-2.89,-1.43,-2.89,-1.43,1.44,1.43,1.64,-1.45,-1.45,-1.46
68.01,-2.82,-1.36,-2.81,-1.36,1.36,1.38,1.58,-1.46,-1.45,-1.46
68.69,-2.74,-1.28,-2.74,-1.28,1.29,1.34,1.51,-1.45,-1.45,-1.46
69.37,-2.67,-1.21,-2.67,-1.21,1.21,1.29,1.44,-1.46,-1.46,-1.46
70.07,-2.60,-1.14,-2.60,-1.14,1.14,1.25,1.37,-1.46,-1.46,-1.46
70.77,-2.53,-1.08,-2.53,-1.07,1.07,1.20,1.30,-1.46,-1.46,-1.45
71.48,-2.46,-1.00,-2.46,-1.00,1.00,1.16,1.22,-1.46,-1.46,-1.45
72.19,-2.39,-0.93,-2.39,-0.93,0.93,1.11,1.15,-1.46,-1.46,-1.46
72.91,-2.33,-0.86,-2.33,-0.86,0.87,1.07,1.07,-1.46,-1.46,-1.46
73.64,-2.27,-0.79,-2.27,-0.79,0.80,1.02,1.00,-1.47,-1.47,-1.48
74.38,-2.21,-0.73,-2.21,-0.73,0.73,0.98,0.92,-1.48,-1.48,-1.47
75.12,-2.15,-0.67,-2.15,-0.67,0.66,0.93,0.84,-1.48,-1.48,-1.48
75.87,-2.09,-0.61,-2.08,-0.61,0.60,0.89,0.76,-1.49,-1.49,-1.48
76.63,-2.02,-0.54,-2.02,-0.54,0.54,0.84,0.68,-1.48,-1.49,-1.48
77.40,-1.96,-0.48,-1.96,-0.47,0.48,0.79,0.60,-1.48,-1.48,-1.48
78.17,-1.90,-0.41,-1.89,-0.41,0.42,0.74,0.52,-1.48,-1.47,-1.49
78.95,-1.83,-0.35,-1.83,-0.36,0.37,0.70,0.44,-1.46,-1.47,-1.48
79.74,-1.78,-0.31,-1.78,-0.31,0.31,0.65,0.36,-1.46,-1.46,-1.47
80.54,-1.73,-0.27,-1.73,-0.27,0.27,0.60,0.28,-1.46,-1.46,-1.46
81.35,-1.68,-0.23,-1.68,-0.23,0.22,0.55,0.19,-1.45,-1.45,-1.45
82.16,-1.63,-0.19,-1.62,-0.19,0.18,0.49,0.11,-1.45,-1.44,-1.44
82.98,-1.56,-0.15,-1.57,-0.14,0.14,0.44,0.03,-1.41,-1.42,-1.41
83.81,-1.51,-0.10,-1.51,-0.11,0.10,0.39,-0.06,-1.40,-1.40,-1.40
84.65,-1.46,-0.06,-1.45,-0.07,0.07,0.33,-0.14,-1.39,-1.38,-1.40
85.50,-1.40,-0.04,-1.40,-0.03,0.03,0.28,-0.23,-1.37,-1.36,-1.36
86.35,-1.34,0.01,-1.34,0.01,-0.00,0.22,-0.31,-1.34,-1.34,-1.34
87.22,-1.29,0.04,-1.29,0.04,-0.04,0.16,-0.40,-1.32,-1.32,-1.33
88.09,-1.25,0.08,-1.25,0.07,-0.07,0.10,-0.49,-1.31,-1.31,-1.32
88.97,-1.21,0.09,-1.21,0.10,-0.09,0.04,-0.57,-1.30,-1.30,-1.30
89.86,-1.18,0.12,-1.18,0.12,-0.12,-0.02,-0.66,-1.30,-1.30,-1.29
90.76,-1.15,0.15,-1.15,0.15,-0.15,-0.09,-0.75,-1.29,-1.29,-1.30
91.66,-1.12,0.17,-1.12,0.18,-0.17,-0.16,-0.84,-1.29,-1.29,-1.29
92.58,-1.09,0.22,-1.09,0.20,-0.21,-0.22,-0.93,-1.29,-1.30,-1.30
93.51,-1.07,0.23,-1.07,0.23,-0.24,-0.29,-1.01,-1.31,-1.31,-1.30
94.44,-1.05,0.26,-1.04,0.27,-0.28,-0.36,-1.10,-1.33,-1.32,-1.31
95.39,-1.01,0.32,-1.01,0.32,-0.33,-0.43,-1.19,-1.33,-1.34,-1.33
96.34,-0.98,0.38,-0.98,0.37,-0.38,-0.50,-1.28,-1.35,-1.35,-1.35
97.30,-0.95,0.44,-0.95,0.43,-0.43,-0.56,-1.37,-1.37,-1.37,-1.38
98.28,-0.92,0.49,-0.92,0.49,-0.48,-0.63,-1.47,-1.40,-1.40,-1.41
99.26,-0.90,0.54,-0.90,0.55,-0.54,-0.69,-1.56,-1.44,-1.44,-1.44
100.25,-0.88,0.60,-0.88,0.60,-0.60,-0.76,-1.65,-1.48,-1.48,-1.48
101.25,-0.86,0.66,-0.86,0.66,-0.66,-0.81,-1.74,-1.52,-1.52,-1.52
102.27,-0.83,0.72,-0.83,0.72,-0.73,-0.87,-1.83,-1.55,-1.56,-1.55
103.29,-0.81,0.79,-0.81,0.79,-0.79,-0.92,-1.91,-1.60,-1.60,-1.60
104.32,-0.78,0.85,-0.77,0.85,-0.87,-0.97,-2.00,-1.64,-1.64,-1.63
105.37,-0.74,0.93,-0.74,0.93,-0.94,-1.02,-2.09,-1.67,-1.67,-1.67
106.42,-0.69,1.01,-0.69,1.01,-1.01,-1.06,-2.18,-1.70,-1.70,-1.70
107.48,-0.64,1.10,-0.64,1.10,-1.08,-1.10,-2.26,-1.72,-1.72,-1.73
108.56,-0.60,1.18,-0.60,1.17,-1.15,-1.13,-2.34,-1.75,-1.76,-1.77
109.64,-0.58,1.24,-0.58,1.23,-1.22,-1.17,-2.42,-1.80,-1.80,-1.81
110.74,-0.56,1.28,-0.55,1.29,-1.29,-1.21,-2.50,-1.85,-1.85,-1.84
111.85,-0.53,1.33,-0.52,1.35,-1.36,-1.24,-2.57,-1.89,-1.88,-1.86
112.97,-0.49,1.42,-0.48,1.42,-1.42,-1.28,-2.64,-1.91,-1.91,-1.91
114.10,-0.44,1.49,-0.44,1.49,-1.49,-1.32,-2.71,-1.92,-1.93,-1.93
115.24,-0.40,1.56,-0.40,1.55,-1.55,-1.36,-2.77,-1.94,-1.95,-1.96
116.39,-0.37,1.61,-0.37,1.61,-1.61,-1.41,-2.83,-1.97,-1.97,-1.97
117.55,-0.34,1.67,-0.33,1.67,-1.67,-1.45,-2.89,-2.01,-2.00,-2.00
118.73,-0.29,1.73,-0.29,1.73,-1.73,-1.50,-2.94,-2.02,-2.01,-2.02
119.92,-0.24,1.79,-0.24,1.79,-1.79,-1.55,-2.98,-2.02,-2.03,-2.03
121.12,-0.20,1.85,-0.20,1.84,-1.84,-1.61,-3.02,-2.04,-2.04,-2.04
122.33,-0.17,1.89,-0.16,1.89,-1.90,-1.67,-3.05,-2.07,-2.06,-2.06
123.55,-0.12,1.95,-0.11,1.96,-1.96,-1.73,-3.08,-2.08,-2.07,-2.07
124.79,-0.06,2.02,-0.06,2.02,-2.02,-1.80,-3.10,-2.08,-2.08,-2.08
126.03,0.00,2.10,-0.01,2.08,-2.09,-1.87,-3.12,-2.09,-2.10,-2.10
127.29,0.03,2.13,0.04,2.15,-2.15,-1.94,-3.13,-2.12,-2.11,-2.10
128.57,0.08,2.21,0.09,2.22,-2.22,-2.02,-3.13,-2.13,-2.12,-2.12
129.85,0.15,2.29,0.15,2.29,-2.28,-2.10,-3.13,-2.13,-2.13,-2.14
131.15,0.21,2.36,0.20,2.35,-2.34,-2.19,-3.13,-2.13,-2.14,-2.15
132.46,0.24,2.41,0.25,2.41,-2.40,-2.28,-3.12,-2.16,-2.15,-2.16
133.79,0.28,2.45,0.28,2.46,-2.46,-2.37,-3.10,-2.17,-2.17,-2.17
135.12,0.32,2.52,0.32,2.51,-2.51,-2.47,-3.08,-2.19,-2.19,-2.20
136.48,0.36,2.56,0.36,2.57,-2.57,-2.57,-3.06,-2.21,-2.21,-2.20
137.84,0.40,2.62,0.40,2.62,-2.63,-2.67,-3.03,-2.23,-2.23,-2.22
139.22,0.44,2.69,0.44,2.69,-2.69,-2.78,-3.00,-2.25,-2.25,-2.25
140.61,0.48,2.75,0.49,2.75,-2.76,-2.89,-2.96,-2.27,-2.26,-2.27
142.02,0.55,2.83,0.54,2.82,-2.82,-3.00,-2.92,-2.27,-2.28,-2.28
143.44,0.59,2.89,0.59,2.89,-2.89,-3.11,-2.88,-2.29,-2.29,-2.29
144.87,0.64,2.96,0.64,2.96,-2.95,-3.22,-2.84,-2.31,-2.31,-2.32
146.32,0.68,3.03,0.68,3.02,-3.02,-3.34,-2.80,-2.34,-2.34,-2.35
147.78,0.72,3.08,0.72,3.09,-3.09,-3.45,-2.75,-2.36,-2.36,-2.35
149.26,0.76,3.14,0.77,3.15,-3.15,-3.57,-2.71,-2.39,-2.39,-2.38
150.75,0.81,3.24,0.80,3.22,-3.23,-3.68,-2.66,-2.41,-2.42,-2.42
152.26,0.84,3.29,0.84,3.29,-3.30,-3.79,-2.62,-2.46,-2.45,-2.45
153.78,0.88,3.36,0.89,3.37,-3.37,-3.90,-2.57,-2.49,-2.48,-2.47
155.32,0.93,3.44,0.93,3.44,-3.45,-4.00,-2.53,-2.51,-2.51,-2.51
156.88,0.99,3.52,0.99,3.52,-3.52,-4.10,-2.48,-2.53,-2.53,-2.53
158.44,1.03,3.59,1.04,3.60,-3.59,-4.19,-2.43,-2.55,-2.55,-2.56
160.03,1.08,3.68,1.07,3.67,-3.65,-4.28,-2.39,-2.57,-2.58,-2.60
161.63,1.10,3.74,1.10,3.73,-3.72,-4.35,-2.35,-2.61,-2.62,-2.63
163.24,1.11,3.78,1.12,3.78,-3.78,-4.42,-2.30,-2.67,-2.66,-2.66
164.88,1.14,3.83,1.14,3.83,-3.84,-4.48,-2.26,-2.70,-2.70,-2.68
166.53,1.16,3.87,1.17,3.88,-3.90,-4.53,-2.22,-2.74,-2.73,-2.71
168.19,1.20,3.95,1.21,3.95,-3.96,-4.56,-2.19,-2.76,-2.75,-2.75
169.87,1.25,4.02,1.25,4.02,-4.02,-4.59,-2.15,-2.77,-2.77,-2.77
171.57,1.29,4.09,1.29,4.09,-4.08,-4.60,-2.11,-2.79,-2.79,-2.80
173.29,1.32,4.15,1.33,4.15,-4.14,-4.61,-2.08,-2.82,-2.81,-2.82
175.02,1.36,4.20,1.36,4.21,-4.20,-4.60,-2.05,-2.84,-2.84,-2.84
176.77,1.39,4.27,1.39,4.26,-4.26,-4.59,-2.02,-2.87,-2.88,-2.88
178.54,1.41,4.31,1.42,4.31,-4.32,-4.57,-1.99,-2.91,-2.91,-2.90
180.32,1.44,4.36,1.45,4.36,-4.37,-4.54,-1.96,-2.93,-2.93,-2.92
182.13,1.48,4.40,1.49,4.42,-4.42,-4.50,-1.93,-2.94,-2.94,-2.92
183.95,1.53,4.48,1.52,4.47,-4.46,-4.46,-1.91,-2.93,-2.94,-2.95
185.79,1.55,4.51,1.55,4.51,-4.50,-4.42,-1.89,-2.95,-2.95,-2.96
187.65,1.56,4.54,1.57,4.54,-4.53,-4.38,-1.86,-2.97,-2.96,-2.97
189.52,1.57,4.56,1.57,4.56,-4.55,-4.34,-1.84,-2.98,-2.98,-2.99
191.42,1.56,4.56,1.56,4.56,-4.56,-4.30,-1.83,-3.00,-3.00,-3.00
193.33,1.55,4.56,1.55,4.56,-4.56,-4.27,-1.81,-3.01,-3.01,-3.01
195.27,1.52,4.54,1.52,4.55,-4.55,-4.25,-1.79,-3.03,-3.03,-3.02
197.22,1.49,4.53,1.49,4.53,-4.53,-4.23,-1.78,-3.04,-3.04,-3.03
199.19,1.44,4.51,1.44,4.50,-4.50,-4.22,-1.77,-3.06,-3.06,-3.06
201.18,1.39,4.46,1.39,4.46,-4.47,-4.22,-1.76,-3.07,-3.07,-3.07
203.19,1.33,4.41,1.33,4.41,-4.42,-4.22,-1.75,-3.09,-3.08,-3.08
205.23,1.27,4.37,1.27,4.36,-4.36,-4.23,-1.74,-3.09,-3.09,-3.10
207.28,1.19,4.29,1.19,4.30,-4.29,-4.23,-1.73,-3.10,-3.10,-3.09
209.35,1.10,4.22,1.10,4.22,-4.21,-4.22,-1.72,-3.11,-3.11,-3.11
211.44,1.00,4.14,1.00,4.12,-4.12,-4.19,-1.72,-3.12,-3.12,-3.13
213.56,0.88,4.01,0.88,4.01,-4.02,-4.13,-1.71,-3.13,-3.14,-3.13
215.69,0.74,3.87,0.74,3.88,-3.90,-4.04,-1.71,-3.15,-3.15,-3.13
217.85,0.59,3.73,0.61,3.76,-3.76,-3.90,-1.70,-3.17,-3.14,-3.14
220.03,0.48,3.64,0.47,3.62,-3.60,-3.73,-1.70,-3.12,-3.13,-3.16
222.23,0.33,3.50,0.31,3.47,-3.43,-3.51,-1.70,-3.10,-3.12,-3.16
224.45,0.11,3.26,0.11,3.27,-3.25,-3.27,-1.69,-3.14,-3.14,-3.15
226.70,-0.11,3.05,-0.11,3.05,-3.06,-3.00,-1.69,-3.17,-3.17,-3.16
228.96,-0.36,2.81,-0.32,2.84,-2.86,-2.72,-1.69,-3.22,-3.18,-3.16
231.25,-0.52,2.64,-0.54,2.62,-2.65,-2.44,-1.69,-3.17,-3.19,-3.16
233.57,-0.73,2.44,-0.75,2.42,-2.43,-2.16,-1.69,-3.16,-3.18,-3.17
235.90,-1.00,2.17,-0.97,2.21,-2.20,-1.89,-1.68,-3.20,-3.17,-3.17
238.26,-1.18,2.01,-1.20,1.99,-1.98,-1.63,-1.68,-3.15,-3.17,-3.19
240.64,-1.44,1.75,-1.42,1.77,-1.75,-1.38,-1.68,-3.18,-3.17,-3.18
243.05,-1.64,1.55,-1.66,1.53,-1.51,-1.14,-1.67,-3.15,-3.17,-3.19
245.48,-1.90,1.29,-1.90,1.28,-1.28,-0.91,-1.67,-3.18,-3.18,-3.18
247.93,-2.18,1.01,-2.15,1.04,-1.04,-0.69,-1.67,-3.22,-3.19,-3.19
250.41,-2.38,0.82,-2.40,0.79,-0.80,-0.49,-1.66,-3.18,-3.20,-3.19
252.92,-2.64,0.54,-2.61,0.56,-0.57,-0.30,-1.66,-3.21,-3.18,-3.18
255.45,-2.82,0.35,-2.82,0.35,-0.34,-0.13,-1.65,-3.16,-3.16,-3.16
258.00,-3.00,0.16,-3.02,0.14,-0.12,0.03,-1.65,-3.12,-3.14,-3.16
260.58,-3.23,-0.08,-3.21,-0.07,0.08,0.18,-1.64,-3.15,-3.13,-3.15
263.19,-3.39,-0.26,-3.40,-0.27,0.27,0.30,-1.64,-3.12,-3.13,-3.13
265.82,-3.58,-0.46,-3.56,-0.45,0.44,0.41,-1.63,-3.14,-3.13,-3.12
268.48,-3.70,-0.59,-3.70,-0.59,0.58,0.50,-1.63,-3.12,-3.12,-3.10
271.16,-3.79,-0.70,-3.80,-0.71,0.70,0.57,-1.62,-3.09,-3.10,-3.09
273.87,-3.88,-0.81,-3.87,-0.80,0.78,0.63,-1.61,-3.09,-3.08,-3.07
276.61,-3.91,-0.85,-3.91,-0.85,0.84,0.66,-1.61,-3.07,-3.07,-3.05
279.38,-3.92,-0.87,-3.92,-0.88,0.86,0.68,-1.60,-3.05,-3.06,-3.05
282.17,-3.90,-0.86,-3.90,-0.87,0.86,0.68,-1.59,-3.04,-3.04,-3.04
284.99,-3.86,-0.85,-3.85,-0.83,0.83,0.66,-1.59,-3.03,-3.02,-3.01
287.84,-3.78,-0.77,-3.78,-0.78,0.78,0.63,-1.58,-3.00,-3.00,-3.00
290.72,-3.69,-0.70,-3.69,-0.71,0.71,0.59,-1.57,-2.98,-2.99,-2.99
293.63,-3.59,-0.62,-3.59,-0.62,0.62,0.54,-1.57,-2.97,-2.97,-2.97
296.57,-3.49,-0.55,-3.48,-0.53,0.53,0.48,-1.56,-2.96,-2.95,-2.94
299.53,-3.35,-0.41,-3.36,-0.43,0.43,0.42,-1.56,-2.92,-2.93,-2.93
302.53,-3.23,-0.31,-3.23,-0.32,0.33,0.35,-1.56,-2.90,-2.90,-2.92
305.55,-3.11,-0.23,-3.10,-0.21,0.23,0.27,-1.55,-2.88,-2.87,-2.88
308.61,-2.98,-0.12,-2.98,-0.12,0.14,0.20,-1.55,-2.84,-2.84,-2.86
311.69,-2.85,-0.01,-2.87,-0.04,0.04,0.12,-1.55,-2.81,-2.82,-2.83
314.81,-2.77,0.03,-2.76,0.04,-0.05,0.04,-1.55,-2.81,-2.81,-2.80
317.96,-2.67,0.11,-2.66,0.12,-0.13,-0.03,-1.55,-2.80,-2.79,-2.78
321.14,-2.55,0.20,-2.55,0.20,-0.21,-0.11,-1.55,-2.76,-2.76,-2.75
324.35,-2.44,0.29,-2.44,0.28,-0.28,-0.19,-1.56,-2.72,-2.73,-2.73
327.59,-2.34,0.36,-2.34,0.36,-0.35,-0.26,-1.56,-2.69,-2.70,-2.70
330.87,-2.26,0.42,-2.25,0.43,-0.42,-0.33,-1.57,-2.68,-2.67,-2.67
334.18,-2.16,0.50,-2.16,0.49,-0.49,-0.40,-1.57,-2.65,-2.65,-2.66
337.52,-2.07,0.56,-2.07,0.55,-0.55,-0.47,-1.58,-2.62,-2.62,-2.63
340.90,-1.99,0.61,-1.99,0.61,-0.61,-0.54,-1.59,-2.60,-2.60,-2.60
344.30,-1.91,0.66,-1.91,0.67,-0.67,-0.61,-1.60,-2.57,-2.57,-2.57
347.75,-1.83,0.72,-1.82,0.72,-0.72,-0.68,-1.61,-2.55,-2.55,-2.55
351.23,-1.74,0.78,-1.74,0.78,-0.78,-0.75,-1.62,-2.51,-2.52,-2.52
354.74,-1.67,0.83,-1.67,0.83,-0.83,-0.81,-1.64,-2.50,-2.50,-2.49
358.28,-1.59,0.89,-1.59,0.89,-0.89,-0.88,-1.65,-2.48,-2.48,-2.47
361.87,-1.51,0.94,-1.50,0.95,-0.95,-0.94,-1.67,-2.46,-2.45,-2.45
365.49,-1.41,1.02,-1.42,1.01,-1.01,-1.01,-1.69,-2.42,-2.43,-2.43
369.14,-1.33,1.08,-1.33,1.08,-1.08,-1.07,-1.71,-2.41,-2.41,-2.41
372.83,-1.25,1.14,-1.24,1.15,-1.15,-1.14,-1.73,-2.39,-2.38,-2.39
376.56,-1.14,1.23,-1.15,1.22,-1.22,-1.21,-1.75,-2.35,-2.37,-2.37
380.33,-1.06,1.28,-1.06,1.29,-1.29,-1.28,-1.77,-2.35,-2.35,-2.34
384.13,-0.98,1.35,-0.97,1.36,-1.36,-1.35,-1.79,-2.34,-2.33,-2.33
387.97,-0.89,1.43,-0.89,1.43,-1.43,-1.42,-1.82,-2.32,-2.32,-2.32
391.85,-0.81,1.51,-0.80,1.51,-1.50,-1.49,-1.84,-2.31,-2.31,-2.31
395.77,-0.72,1.58,-0.72,1.58,-1.57,-1.56,-1.87,-2.29,-2.29,-2.29
399.73,-0.64,1.65,-0.64,1.65,-1.64,-1.64,-1.89,-2.28,-2.28,-2.28
403.72,-0.56,1.72,-0.56,1.72,-1.71,-1.71,-1.92,-2.27,-2.27,-2.28
407.76,-0.48,1.79,-0.48,1.78,-1.78,-1.79,-1.95,-2.26,-2.26,-2.27
411.84,-0.42,1.83,-0.41,1.84,-1.85,-1.86,-1.98,-2.26,-2.26,-2.25
415.96,-0.35,1.90,-0.34,1.90,-1.91,-1.94,-2.01,-2.26,-2.26,-2.25
420.12,-0.28,1.97,-0.28,1.97,-1.98,-2.01,-2.04,-2.25,-2.25,-2.25
424.32,-0.20,2.05,-0.21,2.04,-2.04,-2.09,-2.06,-2.24,-2.25,-2.25
428.56,-0.15,2.10,-0.14,2.11,-2.10,-2.16,-2.09,-2.25,-2.25,-2.25
432.85,-0.09,2.16,-0.08,2.17,-2.17,-2.22,-2.12,-2.25,-2.25,-2.25
437.18,-0.02,2.23,-0.02,2.23,-2.23,-2.28,-2.15,-2.25,-2.25,-2.25
