frequency,raw,error,smoothed,error_smoothed,equalization,parametric_eq,fixed_band_eq,equalized_raw,equalized_smoothed,target
20.00,-6.24,-11.85,-6.24,-11.85,6.00,5.88,2.72,-0.24,-0.24,5.61
20.20,-6.21,-11.79,-6.22,-11.80,6.00,5.88,2.80,-0.21,-0.22,5.58
20.40,-6.19,-11.75,-6.19,-11.75,6.00,5.89,2.88,-0.19,-0.19,5.56
20.61,-6.16,-11.70,-6.16,-11.70,6.00,5.89,2.96,-0.16,-0.16,5.54
20.81,-6.13,-11.65,-6.13,-11.65,6.00,5.89,3.04,-0.13,-0.13,5.52
21.02,-6.09,-11.59,-6.10,-11.59,6.00,5.89,3.13,-0.09,-0.10,5.50
21.23,-6.06,-11.54,-6.06,-11.53,6.00,5.89,3.22,-0.06,-0.06,5.47
21.44,-6.02,-11.48,-6.02,-11.48,6.00,5.89,3.31,-0.02,-0.02,5.45
21.66,-5.98,-11.42,-5.98,-11.42,6.00,5.90,3.41,0.02,0.02,5.43
21.87,-5.94,-11.37,-5.94,-11.36,6.00,5.90,3.50,0.06,0.06,5.42
22.09,-5.90,-11.30,-5.90,-11.31,6.00,5.90,3.60,0.10,0.10,5.40
22.31,-5.85,-11.24,-5.85,-11.25,6.00,5.90,3.70,0.15,0.15,5.39
22.54,-5.80,-11.19,-5.80,-11.18,6.00,5.90,3.81,0.20,0.20,5.38
22.76,-5.74,-11.11,-5.74,-11.11,6.00,5.90,3.92,0.26,0.26,5.37
22.99,-5.68,-11.04,-5.69,-11.05,6.00,5.91,4.02,0.32,0.31,5.36
23.22,-5.63,-10.98,-5.63,-10.98,6.00,5.91,4.14,0.37,0.37,5.35
23.45,-5.58,-10.92,-5.58,-10.92,6.00,5.91,4.25,0.42,0.42,5.34
23.69,-5.53,-10.86,-5.53,-10.86,6.00,5.91,4.37,0.47,0.47,5.33
23.92,-5.48,-10.81,-5.48,-10.81,6.00,5.91,4.49,0.52,0.52,5.33
24.16,-5.43,-10.75,-5.43,-10.75,6.00,5.91,4.61,0.57,0.57,5.32
24.40,-5.37,-10.69,-5.37,-10.68,6.00,5.92,4.74,0.63,0.63,5.31
24.65,-5.31,-10.62,-5.31,-10.62,6.00,5.92,4.86,0.69,0.69,5.30
24.89,-5.24,-10.55,-5.25,-10.55,6.00,5.92,4.99,0.76,0.75,5.30
25.14,-5.19,-10.48,-5.19,-10.48,6.00,5.92,5.12,0.81,0.81,5.29
25.39,-5.14,-10.42,-5.14,-10.43,6.00,5.92,5.25,0.86,0.86,5.28
25.65,-5.10,-10.38,-5.11,-10.38,6.00,5.93,5.38,0.90,0.89,5.28
25.91,-5.07,-10.34,-5.07,-10.34,6.00,5.93,5.51,0.93,0.93,5.27
26.16,-5.03,-10.30,-5.03,-10.30,6.00,5.93,5.65,0.97,0.97,5.27
26.43,-4.98,-10.25,-4.99,-10.25,6.00,5.93,5.78,1.02,1.01,5.27
26.69,-4.94,-10.20,-4.94,-10.20,6.00,5.94,5.91,1.06,1.06,5.26
26.96,-4.90,-10.16,-4.90,-10.16,6.00,5.94,6.04,1.10,1.10,5.25
27.23,-4.87,-10.12,-4.87,-10.12,6.00,5.94,6.16,1.13,1.13,5.24
27.50,-4.84,-10.09,-4.85,-10.09,6.00,5.94,6.29,1.16,1.15,5.24
27.77,-4.82,-10.06,-4.82,-10.06,6.00,5.94,6.41,1.18,1.18,5.24
28.05,-4.79,-10.02,-4.79,-10.02,6.00,5.95,6.53,1.21,1.21,5.23
28.33,-4.75,-9.98,-4.76,-9.99,6.00,5.95,6.64,1.25,1.24,5.23
28.62,-4.72,-9.95,-4.72,-9.94,6.00,5.95,6.75,1.28,1.28,5.23
28.90,-4.68,-9.90,-4.68,-9.90,6.00,5.95,6.85,1.32,1.32,5.21
29.19,-4.64,-9.86,-4.64,-9.85,6.00,5.96,6.94,1.36,1.36,5.21
29.48,-4.59,-9.80,-4.59,-9.80,6.00,5.96,7.03,1.41,1.41,5.21
29.78,-4.54,-9.75,-4.54,-9.75,6.00,5.96,7.11,1.46,1.46,5.21
30.08,-4.49,-9.70,-4.49,-9.70,6.00,5.96,7.17,1.51,1.51,5.21
30.38,-4.44,-9.64,-4.45,-9.64,6.00,5.97,7.24,1.56,1.55,5.20
30.68,-4.40,-9.60,-4.41,-9.60,6.00,5.97,7.29,1.60,1.59,5.19
30.99,-4.37,-9.56,-4.37,-9.56,6.00,5.97,7.33,1.63,1.63,5.19
31.30,-4.34,-9.53,-4.34,-9.53,6.00,5.97,7.36,1.66,1.66,5.19
31.61,-4.31,-9.49,-4.32,-9.50,6.00,5.98,7.38,1.69,1.68,5.18
31.93,-4.29,-9.47,-4.29,-9.46,6.00,5.98,7.39,1.71,1.71,5.17
32.24,-4.26,-9.43,-4.26,-9.43,6.00,5.98,7.39,1.74,1.74,5.17
32.57,-4.22,-9.38,-4.22,-9.39,6.00,5.98,7.38,1.78,1.78,5.16
32.89,-4.18,-9.34,-4.19,-9.34,6.00,5.99,7.36,1.82,1.81,5.16
33.22,-4.15,-9.31,-4.15,-9.30,6.00,5.99,7.34,1.85,1.85,5.15
33.55,-4.11,-9.25,-4.12,-9.26,6.00,5.99,7.31,1.89,1.88,5.14
33.89,-4.09,-9.23,-4.09,-9.23,6.00,6.00,7.26,1.91,1.91,5.14
34.23,-4.06,-9.20,-4.06,-9.20,6.00,6.00,7.22,1.94,1.94,5.14
34.57,-4.04,-9.17,-4.04,-9.17,6.00,6.00,7.16,1.96,1.96,5.12
34.92,-4.01,-9.13,-4.02,-9.13,6.00,6.00,7.11,1.99,1.98,5.12
35.27,-3.99,-9.11,-3.99,-9.10,6.00,6.01,7.05,2.01,2.01,5.12
35.62,-3.97,-9.08,-3.97,-9.08,6.00,6.01,6.98,2.03,2.03,5.10
35.97,-3.95,-9.05,-3.96,-9.05,6.00,6.01,6.92,2.05,2.04,5.10
36.33,-3.94,-9.04,-3.94,-9.04,6.00,6.01,6.85,2.06,2.06,5.10
36.70,-3.92,-9.01,-3.92,-9.02,6.00,6.02,6.78,2.08,2.08,5.09
37.06,-3.91,-9.00,-3.91,-8.99,6.00,6.02,6.71,2.09,2.09,5.09
37.43,-3.89,-8.97,-3.90,-8.97,6.00,6.02,6.64,2.11,2.10,5.07
37.81,-3.88,-8.95,-3.88,-8.95,6.00,6.03,6.57,2.12,2.12,5.07
38.19,-3.86,-8.93,-3.86,-8.92,6.00,6.03,6.51,2.14,2.14,5.06
38.57,-3.84,-8.89,-3.84,-8.90,6.00,6.03,6.44,2.16,2.16,5.05
38.95,-3.82,-8.87,-3.82,-8.86,6.00,6.03,6.38,2.18,2.18,5.04
39.34,-3.79,-8.82,-3.79,-8.83,6.00,6.04,6.32,2.21,2.21,5.03
39.74,-3.76,-8.79,-3.77,-8.79,6.00,6.04,6.26,2.24,2.23,5.02
40.14,-3.74,-8.75,-3.74,-8.75,6.00,6.04,6.21,2.26,2.26,5.01
40.54,-3.71,-8.72,-3.72,-8.72,6.00,6.05,6.16,2.29,2.28,5.00
40.94,-3.69,-8.69,-3.69,-8.69,6.00,6.05,6.11,2.31,2.31,5.00
41.35,-3.66,-8.65,-3.66,-8.65,6.00,6.05,6.07,2.34,2.34,4.99
41.76,-3.62,-8.61,-3.63,-8.61,6.00,6.05,6.03,2.38,2.37,4.99
42.18,-3.59,-8.57,-3.59,-8.57,6.00,6.06,5.99,2.41,2.41,4.98
42.60,-3.55,-8.52,-3.55,-8.53,6.00,6.06,5.96,2.45,2.45,4.97
43.03,-3.52,-8.50,-3.52,-8.49,6.00,6.06,5.94,2.48,2.48,4.97
43.46,-3.48,-8.45,-3.49,-8.46,6.00,6.06,5.91,2.52,2.51,4.97
43.90,-3.46,-8.42,-3.46,-8.42,6.00,6.07,5.90,2.54,2.54,4.96
44.33,-3.44,-8.40,-3.44,-8.39,6.00,6.07,5.88,2.56,2.56,4.95
44.78,-3.41,-8.36,-3.42,-8.36,6.00,6.07,5.87,2.59,2.58,4.94
45.23,-3.39,-8.33,-3.39,-8.32,6.00,6.07,5.87,2.61,2.61,4.94
45.68,-3.35,-8.28,-3.36,-8.28,6.00,6.08,5.87,2.65,2.64,4.93
46.13,-3.33,-8.25,-3.33,-8.25,6.00,6.08,5.87,2.67,2.67,4.92
46.60,-3.30,-8.21,-3.31,-8.22,6.00,6.08,5.88,2.70,2.69,4.91
47.06,-3.29,-8.19,-3.29,-8.19,6.00,6.08,5.89,2.71,2.71,4.90
47.53,-3.28,-8.16,-3.28,-8.16,6.00,6.09,5.91,2.72,2.72,4.88
48.01,-3.27,-8.14,-3.27,-8.14,6.00,6.09,5.93,2.73,2.73,4.87
48.49,-3.26,-8.12,-3.26,-8.12,6.00,6.09,5.96,2.74,2.74,4.86
48.97,-3.25,-8.10,-3.25,-8.10,6.00,6.09,5.98,2.75,2.75,4.85
49.46,-3.24,-8.08,-3.24,-8.08,6.00,6.09,6.01,2.76,2.76,4.84
49.96,-3.22,-8.05,-3.23,-8.05,6.00,6.09,6.05,2.78,2.77,4.82
50.46,-3.21,-8.03,-3.21,-8.02,6.00,6.10,6.09,2.79,2.79,4.81
50.96,-3.18,-7.98,-3.18,-7.99,6.00,6.10,6.13,2.82,2.82,4.80
51.47,-3.15,-7.95,-3.16,-7.95,6.00,6.10,6.17,2.85,2.84,4.80
51.99,-3.12,-7.91,-3.12,-7.91,6.00,6.10,6.21,2.88,2.88,4.78
52.51,-3.09,-7.86,-3.09,-7.86,6.00,6.10,6.26,2.91,2.91,4.77
53.03,-3.06,-7.82,-3.06,-7.82,6.00,6.10,6.30,2.94,2.94,4.75
53.56,-3.03,-7.77,-3.03,-7.78,6.00,6.10,6.35,2.97,2.97,4.74
54.10,-3.00,-7.74,-3.00,-7.73,6.00,6.10,6.40,3.00,3.00,4.73
54.64,-2.97,-7.69,-2.98,-7.69,6.00,6.10,6.44,3.03,3.02,4.72
55.18,-2.95,-7.65,-2.95,-7.66,6.00,6.10,6.49,3.05,3.05,4.70
55.74,-2.93,-7.62,-2.93,-7.62,6.00,6.10,6.53,3.07,3.07,4.68
56.29,-2.92,-7.60,-2.92,-7.59,6.00,6.10,6.57,3.08,3.08,4.68
56.86,-2.91,-7.57,-2.91,-7.57,6.00,6.10,6.61,3.09,3.09,4.66
57.42,-2.91,-7.55,-2.92,-7.56,6.00,6.10,6.65,3.09,3.08,4.64
58.00,-2.92,-7.55,-2.92,-7.55,6.00,6.10,6.68,3.08,3.08,4.63
58.58,-2.93,-7.54,-2.93,-7.54,6.00,6.09,6.71,3.07,3.07,4.61
59.16,-2.94,-7.53,-2.94,-7.53,6.00,6.09,6.73,3.06,3.06,4.59
59.76,-2.94,-7.52,-2.94,-7.52,6.00,6.09,6.75,3.06,3.06,4.58
60.35,-2.94,-7.50,-2.95,-7.51,6.00,6.09,6.76,3.06,3.05,4.56
60.96,-2.95,-7.49,-2.95,-7.49,6.00,6.08,6.76,3.05,3.05,4.54
61.57,-2.96,-7.48,-2.96,-7.47,6.00,6.08,6.76,3.04,3.04,4.51
62.18,-2.96,-7.45,-2.96,-7.45,6.00,6.08,6.75,3.04,3.04,4.49
62.80,-2.96,-7.43,-2.96,-7.42,6.00,6.07,6.74,3.04,3.04,4.46
63.43,-2.94,-7.38,-2.95,-7.39,6.00,6.07,6.71,3.06,3.05,4.44
64.07,-2.93,-7.35,-2.93,-7.34,6.00,6.06,6.69,3.07,3.07,4.41
64.71,-2.91,-7.30,-2.91,-7.30,6.00,6.06,6.65,3.09,3.09,4.39
65.35,-2.88,-7.24,-2.89,-7.25,6.00,6.05,6.61,3.12,3.11,4.36
66.01,-2.86,-7.19,-2.86,-7.19,6.00,6.05,6.56,3.14,3.14,4.33
66.67,-2.83,-7.14,-2.83,-7.13,6.00,6.04,6.51,3.17,3.17,4.30
67.33,-2.79,-7.07,-2.80,-7.07,6.00,6.03,6.45,3.21,3.20,4.27
68.01,-2.76,-7.00,-2.76,-7.01,6.00,6.03,6.39,3.24,3.24,4.24
68.69,-2.73,-6.94,-2.73,-6.94,6.00,6.02,6.32,3.27,3.27,4.21
69.37,-2.70,-6.88,-2.70,-6.88,6.00,6.01,6.25,3.30,3.30,4.18
70.07,-2.67,-6.82,-2.68,-6.82,6.00,6.00,6.18,3.33,3.32,4.15
70.77,-2.65,-6.77,-2.65,-6.77,6.00,5.99,6.10,3.35,3.35,4.11
71.48,-2.63,-6.72,-2.63,-6.72,6.00,5.98,6.02,3.37,3.37,4.09
72.19,-2.61,-6.67,-2.62,-6.67,6.00,5.97,5.94,3.39,3.38,4.05
72.91,-2.60,-6.62,-2.60,-6.62,6.00,5.96,5.86,3.40,3.40,4.02
73.64,-2.59,-6.57,-2.60,-6.58,6.00,5.95,5.78,3.41,3.40,3.98
74.38,-2.59,-6.54,-2.60,-6.54,6.00,5.93,5.70,3.41,3.40,3.95
75.12,-2.60,-6.52,-2.60,-6.52,6.00,5.92,5.62,3.40,3.40,3.91
75.87,-2.60,-6.49,-2.61,-6.49,6.00,5.91,5.54,3.40,3.39,3.88
76.63,-2.61,-6.46,-2.61,-6.45,6.00,5.89,5.46,3.39,3.39,3.84
77.40,-2.61,-6.42,-2.61,-6.42,6.00,5.88,5.38,3.39,3.39,3.80
78.17,-2.61,-6.38,-2.61,-6.38,6.00,5.86,5.31,3.39,3.39,3.77
78.95,-2.61,-6.34,-2.61,-6.34,6.00,5.84,5.23,3.39,3.39,3.73
79.74,-2.61,-6.30,-2.61,-6.30,6.00,5.82,5.16,3.39,3.39,3.69
80.54,-2.61,-6.26,-2.61,-6.26,6.00,5.80,5.10,3.39,3.39,3.65
81.35,-2.61,-6.22,-2.61,-6.22,6.01,5.78,5.03,3.39,3.39,3.61
82.16,-2.61,-6.17,-2.61,-6.17,6.01,5.76,4.97,3.40,3.40,3.56
82.98,-2.61,-6.13,-2.61,-6.13,6.01,5.74,4.91,3.40,3.40,3.51
83.81,-2.61,-6.08,-2.62,-6.09,6.01,5.72,4.85,3.39,3.39,3.47
84.65,-2.62,-6.05,-2.62,-6.05,6.00,5.69,4.80,3.37,3.37,3.43
85.50,-2.63,-6.01,-2.63,-6.01,5.98,5.67,4.75,3.34,3.34,3.38
86.35,-2.64,-5.97,-2.64,-5.97,5.95,5.64,4.71,3.30,3.31,3.33
87.22,-2.63,-5.91,-2.64,-5.92,5.91,5.61,4.66,3.27,3.27,3.28
88.09,-2.62,-5.85,-2.63,-5.86,5.86,5.59,4.62,3.23,3.23,3.23
88.97,-2.61,-5.79,-2.61,-5.79,5.80,5.56,4.59,3.18,3.19,3.18
89.86,-2.59,-5.72,-2.59,-5.72,5.73,5.53,4.56,3.13,3.13,3.13
90.76,-2.56,-5.64,-2.57,-5.64,5.65,5.49,4.53,3.09,3.08,3.08
91.66,-2.54,-5.57,-2.54,-5.56,5.57,5.46,4.50,3.02,3.03,3.02
92.58,-2.51,-5.48,-2.51,-5.48,5.48,5.43,4.48,2.97,2.97,2.97
93.51,-2.48,-5.40,-2.48,-5.40,5.40,5.39,4.46,2.92,2.92,2.92
94.44,-2.45,-5.32,-2.45,-5.31,5.31,5.35,4.45,2.86,2.86,2.86
95.39,-2.41,-5.22,-2.42,-5.23,5.22,5.32,4.44,2.81,2.81,2.81
96.34,-2.38,-5.14,-2.38,-5.14,5.13,5.28,4.43,2.75,2.75,2.75
97.30,-2.35,-5.06,-2.35,-5.05,5.05,5.24,4.42,2.69,2.70,2.71
98.28,-2.31,-4.97,-2.31,-4.97,4.96,5.19,4.42,2.65,2.65,2.65
99.26,-2.28,-4.88,-2.29,-4.88,4.89,5.15,4.42,2.60,2.60,2.60
100.25,-2.26,-4.81,-2.27,-4.81,4.82,5.11,4.42,2.56,2.55,2.54
101.25,-2.26,-4.75,-2.26,-4.74,4.76,5.06,4.42,2.50,2.50,2.49
102.27,-2.26,-4.69,-2.27,-4.70,4.71,5.02,4.43,2.45,2.44,2.43
103.29,-2.28,-4.66,-2.28,-4.66,4.67,4.97,4.43,2.39,2.39,2.37
104.32,-2.31,-4.64,-2.31,-4.63,4.64,4.92,4.44,2.32,2.33,2.33
105.37,-2.34,-4.61,-2.35,-4.62,4.61,4.87,4.45,2.27,2.27,2.27
106.42,-2.38,-4.60,-2.38,-4.60,4.59,4.82,4.46,2.21,2.21,2.21
107.48,-2.41,-4.58,-2.41,-4.58,4.57,4.77,4.47,2.16,2.16,2.17
108.56,-2.44,-4.56,-2.44,-4.56,4.55,4.71,4.48,2.11,2.11,2.11
109.64,-2.47,-4.53,-2.47,-4.53,4.53,4.66,4.49,2.06,2.06,2.06
110.74,-2.50,-4.50,-2.50,-4.50,4.51,4.60,4.50,2.00,2.00,2.00
111.85,-2.53,-4.48,-2.53,-4.48,4.48,4.55,4.51,1.95,1.95,1.94
112.97,-2.56,-4.46,-2.56,-4.46,4.46,4.49,4.51,1.89,1.90,1.90
114.10,-2.58,-4.43,-2.58,-4.43,4.43,4.43,4.52,1.84,1.84,1.84
115.24,-2.60,-4.39,-2.60,-4.39,4.39,4.38,4.52,1.79,1.79,1.79
116.39,-2.62,-4.36,-2.62,-4.36,4.36,4.32,4.52,1.73,1.73,1.73
117.55,-2.63,-4.32,-2.64,-4.32,4.32,4.26,4.52,1.68,1.68,1.69
118.73,-2.64,-4.28,-2.64,-4.27,4.27,4.20,4.52,1.63,1.63,1.64
119.92,-2.64,-4.23,-2.64,-4.23,4.23,4.14,4.51,1.59,1.59,1.58
121.12,-2.63,-4.16,-2.64,-4.17,4.18,4.08,4.49,1.55,1.54,1.53
122.33,-2.64,-4.13,-2.64,-4.13,4.13,4.01,4.48,1.49,1.49,1.49
123.55,-2.64,-4.08,-2.64,-4.08,4.08,3.95,4.46,1.44,1.44,1.44
124.79,-2.63,-4.03,-2.64,-4.03,4.03,3.89,4.43,1.39,1.39,1.40
126.03,-2.62,-3.97,-2.62,-3.97,3.97,3.83,4.40,1.34,1.34,1.34
127.29,-2.61,-3.92,-2.61,-3.91,3.91,3.77,4.37,1.29,1.30,1.30
128.57,-2.59,-3.85,-2.59,-3.85,3.84,3.71,4.33,1.25,1.25,1.26
129.85,-2.57,-3.78,-2.57,-3.78,3.78,3.65,4.29,1.20,1.20,1.21
131.15,-2.54,-3.70,-2.54,-3.71,3.71,3.58,4.25,1.16,1.16,1.16
132.46,-2.51,-3.63,-2.51,-3.63,3.64,3.52,4.20,1.12,1.12,1.12
133.79,-2.48,-3.56,-2.48,-3.56,3.56,3.46,4.15,1.08,1.08,1.07
135.12,-2.45,-3.48,-2.46,-3.49,3.49,3.40,4.09,1.04,1.03,1.03
136.48,-2.43,-3.42,-2.43,-3.42,3.42,3.34,4.03,0.99,0.99,0.98
137.84,-2.41,-3.35,-2.41,-3.35,3.35,3.28,3.97,0.93,0.94,0.94
139.22,-2.38,-3.28,-2.38,-3.28,3.27,3.22,3.91,0.89,0.89,0.90
140.61,-2.35,-3.21,-2.35,-3.21,3.20,3.17,3.84,0.85,0.85,0.85
142.02,-2.31,-3.13,-2.32,-3.13,3.13,3.11,3.77,0.82,0.82,0.82
143.44,-2.28,-3.06,-2.28,-3.06,3.06,3.05,3.70,0.78,0.78,0.78
144.87,-2.24,-2.98,-2.25,-2.99,2.99,2.99,3.63,0.75,0.75,0.74
146.32,-2.21,-2.92,-2.21,-2.92,2.92,2.94,3.56,0.71,0.71,0.71
147.78,-2.18,-2.85,-2.18,-2.85,2.86,2.88,3.49,0.68,0.68,0.67
149.26,-2.15,-2.79,-2.16,-2.79,2.80,2.83,3.41,0.64,0.64,0.63
150.75,-2.13,-2.74,-2.13,-2.73,2.73,2.78,3.34,0.60,0.60,0.61
152.26,-2.11,-2.68,-2.11,-2.68,2.67,2.73,3.27,0.56,0.56,0.57
153.78,-2.08,-2.62,-2.08,-2.62,2.61,2.68,3.20,0.53,0.53,0.53
155.32,-2.05,-2.56,-2.05,-2.56,2.55,2.63,3.13,0.50,0.50,0.51
156.88,-2.02,-2.50,-2.02,-2.50,2.50,2.58,3.06,0.47,0.47,0.48
158.44,-2.00,-2.45,-2.00,-2.44,2.44,2.53,2.99,0.44,0.44,0.44
160.03,-1.97,-2.38,-1.98,-2.39,2.39,2.48,2.92,0.42,0.42,0.41
161.63,-1.96,-2.34,-1.96,-2.34,2.35,2.44,2.85,0.39,0.39,0.38
163.24,-1.94,-2.30,-1.95,-2.30,2.31,2.39,2.78,0.37,0.36,0.36
164.88,-1.94,-2.27,-1.94,-2.27,2.28,2.35,2.72,0.33,0.33,0.33
166.53,-1.94,-2.24,-1.95,-2.25,2.25,2.30,2.66,0.30,0.30,0.30
168.19,-1.95,-2.22,-1.95,-2.23,2.22,2.26,2.60,0.27,0.27,0.27
169.87,-1.96,-2.22,-1.96,-2.21,2.20,2.22,2.54,0.24,0.24,0.25
171.57,-1.96,-2.19,-1.96,-2.19,2.18,2.18,2.48,0.22,0.22,0.23
173.29,-1.96,-2.16,-1.96,-2.17,2.16,2.15,2.42,0.20,0.20,0.20
175.02,-1.96,-2.14,-1.96,-2.14,2.14,2.11,2.37,0.18,0.18,0.17
176.77,-1.96,-2.12,-1.96,-2.12,2.12,2.07,2.31,0.16,0.16,0.16
178.54,-1.96,-2.10,-1.96,-2.10,2.10,2.04,2.26,0.13,0.13,0.14
180.32,-1.96,-2.08,-1.96,-2.08,2.08,2.00,2.21,0.11,0.11,0.11
182.13,-1.96,-2.05,-1.96,-2.05,2.06,1.97,2.17,0.09,0.09,0.09
183.95,-1.96,-2.03,-1.96,-2.03,2.04,1.94,2.12,0.07,0.07,0.07
185.79,-1.96,-2.01,-1.97,-2.01,2.02,1.91,2.07,0.06,0.05,0.05
187.65,-1.97,-2.00,-1.97,-2.00,2.00,1.88,2.03,0.03,0.03,0.03
189.52,-1.98,-1.99,-1.98,-1.99,1.99,1.85,1.99,0.00,0.01,0.01
191.42,-1.98,-1.97,-1.99,-1.97,1.97,1.82,1.95,-0.01,-0.02,-0.01
193.33,-1.99,-1.96,-1.99,-1.96,1.95,1.80,1.91,-0.04,-0.04,-0.03
195.27,-1.98,-1.93,-1.99,-1.93,1.93,1.77,1.87,-0.05,-0.06,-0.05
197.22,-1.97,-1.90,-1.98,-1.91,1.90,1.75,1.84,-0.07,-0.07,-0.07
199.19,-1.96,-1.88,-1.96,-1.87,1.87,1.72,1.80,-0.09,-0.08,-0.09
201.18,-1.93,-1.84,-1.94,-1.84,1.84,1.70,1.77,-0.09,-0.10,-0.09
203.19,-1.91,-1.80,-1.91,-1.81,1.80,1.68,1.74,-0.11,-0.11,-0.11
205.23,-1.88,-1.77,-1.88,-1.77,1.77,1.66,1.71,-0.12,-0.12,-0.11
207.28,-1.85,-1.72,-1.85,-1.72,1.72,1.64,1.68,-0.13,-0.13,-0.13
209.35,-1.82,-1.68,-1.82,-1.68,1.68,1.62,1.65,-0.14,-0.14,-0.14
211.44,-1.79,-1.65,-1.79,-1.64,1.64,1.60,1.63,-0.15,-0.15,-0.15
213.56,-1.76,-1.60,-1.76,-1.60,1.60,1.58,1.60,-0.16,-0.16,-0.16
215.69,-1.73,-1.56,-1.73,-1.56,1.56,1.57,1.58,-0.17,-0.17,-0.17
217.85,-1.70,-1.52,-1.70,-1.52,1.52,1.55,1.55,-0.18,-0.18,-0.19
220.03,-1.68,-1.49,-1.68,-1.49,1.49,1.54,1.53,-0.20,-0.19,-0.19
222.23,-1.65,-1.45,-1.66,-1.45,1.46,1.52,1.51,-0.20,-0.20,-0.20
224.45,-1.64,-1.43,-1.64,-1.43,1.43,1.51,1.48,-0.21,-0.21,-0.21
226.70,-1.62,-1.40,-1.63,-1.41,1.41,1.50,1.46,-0.21,-0.22,-0.22
228.96,-1.62,-1.40,-1.62,-1.39,1.40,1.48,1.44,-0.22,-0.22,-0.23
231.25,-1.62,-1.39,-1.62,-1.39,1.39,1.47,1.42,-0.23,-0.23,-0.24
233.57,-1.62,-1.38,-1.63,-1.38,1.38,1.46,1.40,-0.24,-0.24,-0.25
235.90,-1.63,-1.39,-1.63,-1.38,1.38,1.45,1.38,-0.25,-0.25,-0.25
238.26,-1.64,-1.39,-1.64,-1.39,1.38,1.44,1.36,-0.26,-0.26,-0.25
240.64,-1.64,-1.39,-1.64,-1.39,1.38,1.43,1.35,-0.26,-0.26,-0.25
243.05,-1.64,-1.39,-1.64,-1.39,1.39,1.42,1.33,-0.26,-0.26,-0.25
245.48,-1.64,-1.39,-1.64,-1.39,1.39,1.42,1.31,-0.25,-0.25,-0.25
247.93,-1.64,-1.38,-1.64,-1.39,1.39,1.41,1.29,-0.25,-0.25,-0.26
250.41,-1.64,-1.39,-1.64,-1.39,1.39,1.40,1.27,-0.25,-0.25,-0.26
252.92,-1.64,-1.39,-1.64,-1.39,1.39,1.40,1.26,-0.25,-0.25,-0.25
255.45,-1.64,-1.39,-1.64,-1.39,1.39,1.39,1.24,-0.26,-0.26,-0.25
258.00,-1.64,-1.38,-1.64,-1.39,1.39,1.38,1.22,-0.26,-0.26,-0.26
260.58,-1.64,-1.39,-1.64,-1.38,1.38,1.38,1.20,-0.26,-0.26,-0.26
263.19,-1.64,-1.38,-1.64,-1.38,1.38,1.37,1.19,-0.26,-0.26,-0.26
265.82,-1.64,-1.37,-1.64,-1.38,1.38,1.37,1.17,-0.27,-0.27,-0.27
268.48,-1.64,-1.38,-1.64,-1.37,1.38,1.36,1.15,-0.27,-0.27,-0.26
271.16,-1.64,-1.37,-1.64,-1.37,1.37,1.36,1.14,-0.27,-0.27,-0.27
273.87,-1.64,-1.37,-1.64,-1.37,1.37,1.35,1.12,-0.27,-0.27,-0.28
276.61,-1.64,-1.37,-1.64,-1.37,1.38,1.35,1.11,-0.27,-0.27,-0.27
279.38,-1.64,-1.37,-1.65,-1.37,1.38,1.34,1.09,-0.27,-0.27,-0.28
282.17,-1.65,-1.38,-1.65,-1.38,1.38,1.34,1.07,-0.27,-0.27,-0.27
284.99,-1.66,-1.39,-1.66,-1.38,1.38,1.33,1.06,-0.28,-0.28,-0.28
287.84,-1.66,-1.38,-1.66,-1.38,1.38,1.33,1.04,-0.29,-0.29,-0.28
290.72,-1.66,-1.38,-1.66,-1.38,1.37,1.33,1.03,-0.29,-0.29,-0.29
293.63,-1.65,-1.36,-1.65,-1.36,1.36,1.32,1.02,-0.29,-0.29,-0.29
296.57,-1.64,-1.35,-1.64,-1.35,1.35,1.32,1.00,-0.30,-0.29,-0.29
299.53,-1.62,-1.33,-1.62,-1.33,1.33,1.31,0.99,-0.29,-0.30,-0.29
302.53,-1.60,-1.31,-1.60,-1.31,1.31,1.31,0.98,-0.30,-0.29,-0.29
305.55,-1.57,-1.28,-1.57,-1.28,1.28,1.30,0.96,-0.29,-0.29,-0.30
308.61,-1.54,-1.25,-1.54,-1.25,1.25,1.30,0.95,-0.29,-0.29,-0.29
311.69,-1.51,-1.22,-1.51,-1.22,1.22,1.29,0.94,-0.29,-0.29,-0.29
314.81,-1.48,-1.20,-1.48,-1.19,1.19,1.29,0.93,-0.29,-0.29,-0.29
317.96,-1.45,-1.16,-1.45,-1.17,1.16,1.28,0.92,-0.29,-0.29,-0.29
321.14,-1.42,-1.14,-1.42,-1.14,1.13,1.27,0.91,-0.29,-0.29,-0.28
324.35,-1.39,-1.11,-1.39,-1.11,1.11,1.27,0.90,-0.29,-0.29,-0.29
327.59,-1.36,-1.07,-1.37,-1.08,1.08,1.26,0.89,-0.28,-0.28,-0.29
330.87,-1.34,-1.06,-1.34,-1.06,1.06,1.25,0.88,-0.28,-0.28,-0.28
334.18,-1.32,-1.05,-1.32,-1.04,1.05,1.24,0.88,-0.28,-0.28,-0.28
337.52,-1.30,-1.03,-1.31,-1.03,1.03,1.24,0.87,-0.27,-0.27,-0.28
340.90,-1.29,-1.02,-1.29,-1.02,1.03,1.23,0.86,-0.27,-0.27,-0.27
344.30,-1.29,-1.02,-1.29,-1.02,1.02,1.22,0.86,-0.27,-0.27,-0.27
347.75,-1.29,-1.02,-1.30,-1.02,1.02,1.21,0.85,-0.27,-0.27,-0.28
351.23,-1.30,-1.03,-1.30,-1.03,1.03,1.20,0.85,-0.28,-0.28,-0.28
354.74,-1.31,-1.04,-1.31,-1.04,1.03,1.19,0.85,-0.28,-0.28,-0.27
358.28,-1.31,-1.04,-1.31,-1.04,1.03,1.18,0.84,-0.28,-0.28,-0.27
361.87,-1.31,-1.04,-1.31,-1.04,1.04,1.17,0.84,-0.28,-0.28,-0.27
365.49,-1.31,-1.04,-1.31,-1.04,1.04,1.16,0.84,-0.28,-0.28,-0.28
369.14,-1.31,-1.04,-1.31,-1.04,1.04,1.15,0.84,-0.28,-0.28,-0.28
372.83,-1.31,-1.03,-1.31,-1.04,1.04,1.14,0.84,-0.28,-0.28,-0.28
376.56,-1.31,-1.04,-1.31,-1.04,1.04,1.13,0.84,-0.27,-0.27,-0.27
380.33,-1.31,-1.04,-1.31,-1.04,1.04,1.11,0.84,-0.27,-0.27,-0.27
384.13,-1.31,-1.04,-1.32,-1.04,1.05,1.10,0.84,-0.27,-0.27,-0.27
387.97,-1.32,-1.05,-1.32,-1.05,1.05,1.09,0.84,-0.27,-0.27,-0.28
391.85,-1.32,-1.06,-1.33,-1.06,1.06,1.07,0.84,-0.26,-0.26,-0.27
395.77,-1.33,-1.06,-1.34,-1.07,1.07,1.06,0.84,-0.26,-0.27,-0.27
399.73,-1.34,-1.08,-1.34,-1.08,1.07,1.05,0.85,-0.27,-0.27,-0.26
403.72,-1.34,-1.08,-1.34,-1.08,1.08,1.03,0.85,-0.27,-0.27,-0.26
407.76,-1.33,-1.08,-1.33,-1.08,1.07,1.02,0.85,-0.26,-0.26,-0.25
411.84,-1.32,-1.07,-1.32,-1.07,1.07,1.00,0.86,-0.26,-0.26,-0.25
415.96,-1.30,-1.06,-1.30,-1.06,1.05,0.99,0.86,-0.25,-0.25,-0.25
420.12,-1.28,-1.04,-1.28,-1.03,1.03,0.98,0.86,-0.25,-0.25,-0.25
424.32,-1.25,-1.01,-1.25,-1.01,1.01,0.96,0.87,-0.24,-0.24,-0.25
428.56,-1.22,-0.98,-1.22,-0.98,0.98,0.95,0.87,-0.24,-0.24,-0.24
432.85,-1.19,-0.95,-1.19,-0.95,0.95,0.93,0.87,-0.24,-0.24,-0.24
437.18,-1.16,-0.92,-1.16,-0.92,0.92,0.92,0.88,-0.24,-0.24,-0.24
441.55,-1.13,-0.89,-1.13,-0.89,0.89,0.90,0.88,-0.24,-0.24,-0.24
445.96,-1.10,-0.86,-1.10,-0.86,0.86,0.88,0.88,-0.24,-0.24,-0.24
450.42,-1.07,-0.83,-1.07,-0.83,0.83,0.87,0.89,-0.24,-0.24,-0.24
454.93,-1.04,-0.80,-1.05,-0.80,0.80,0.85,0.89,-0.24,-0.24,-0.24
459.48,-1.02,-0.78,-1.02,-0.78,0.78,0.84,0.89,-0.25,-0.24,-0.25
464.07,-1.00,-0.76,-1.00,-0.75,0.76,0.82,0.89,-0.24,-0.24,-0.25
468.71,-0.98,-0.74,-0.99,-0.74,0.75,0.81,0.89,-0.24,-0.24,-0.25
473.40,-0.97,-0.73,-0.97,-0.73,0.74,0.79,0.89,-0.23,-0.24,-0.25
478.13,-0.97,-0.73,-0.97,-0.73,0.74,0.78,0.89,-0.24,-0.24,-0.24
482.91,-0.97,-0.73,-0.98,-0.74,0.74,0.76,0.89,-0.24,-0.24,-0.24
487.74,-0.98,-0.74,-0.98,-0.74,0.74,0.75,0.89,-0.24,-0.24,-0.24
