frequency,raw,error,smoothed,error_smoothed,equalization,parametric_eq,fixed_band_eq,equalized_raw,equalized_smoothed,target
20.00,-1.51,-8.09,-1.52,-8.10,6.00,6.41,2.71,4.49,4.48,6.58
20.20,-1.49,-8.08,-1.47,-8.06,6.00,6.40,2.79,4.51,4.53,6.59
20.40,-1.43,-8.03,-1.42,-8.02,6.00,6.39,2.87,4.57,4.58,6.60
20.61,-1.36,-7.97,-1.36,-7.97,6.00,6.38,2.95,4.64,4.64,6.61
20.81,-1.29,-7.90,-1.29,-7.90,6.00,6.36,3.04,4.71,4.71,6.61
21.02,-1.22,-7.84,-1.22,-7.84,6.00,6.35,3.12,4.78,4.78,6.62
21.23,-1.16,-7.78,-1.16,-7.79,6.00,6.34,3.21,4.84,4.84,6.63
21.44,-1.10,-7.74,-1.10,-7.74,6.00,6.32,3.31,4.90,4.90,6.65
21.66,-1.04,-7.68,-1.04,-7.69,6.00,6.31,3.40,4.96,4.96,6.65
21.87,-0.98,-7.63,-0.98,-7.63,6.00,6.30,3.50,5.02,5.02,6.66
22.09,-0.92,-7.57,-0.92,-7.57,6.00,6.28,3.60,5.08,5.08,6.66
22.31,-0.86,-7.52,-0.86,-7.52,6.00,6.27,3.70,5.14,5.14,6.67
22.54,-0.80,-7.46,-0.80,-7.46,6.00,6.25,3.81,5.20,5.20,6.66
22.76,-0.74,-7.41,-0.74,-7.41,6.00,6.24,3.92,5.26,5.26,6.67
22.99,-0.68,-7.35,-0.68,-7.35,6.00,6.22,4.03,5.32,5.32,6.67
23.22,-0.62,-7.29,-0.62,-7.29,6.00,6.20,4.14,5.38,5.38,6.67
23.45,-0.56,-7.24,-0.56,-7.24,6.00,6.19,4.26,5.44,5.44,6.68
23.69,-0.51,-7.19,-0.51,-7.19,6.00,6.17,4.38,5.49,5.49,6.68
23.92,-0.47,-7.15,-0.47,-7.15,6.00,6.16,4.50,5.53,5.53,6.68
24.16,-0.43,-7.12,-0.42,-7.11,6.00,6.14,4.62,5.57,5.58,6.69
24.40,-0.37,-7.06,-0.37,-7.06,6.00,6.12,4.74,5.63,5.63,6.70
24.65,-0.31,-7.01,-0.31,-7.01,6.00,6.10,4.87,5.69,5.69,6.70
24.89,-0.25,-6.94,-0.25,-6.95,6.00,6.09,5.00,5.75,5.75,6.70
25.14,-0.21,-6.90,-0.21,-6.90,6.00,6.07,5.13,5.79,5.79,6.70
25.39,-0.17,-6.86,-0.16,-6.85,6.00,6.05,5.26,5.83,5.84,6.69
25.65,-0.11,-6.80,-0.11,-6.80,6.00,6.03,5.39,5.89,5.89,6.69
25.91,-0.05,-6.74,-0.06,-6.75,6.00,6.01,5.53,5.95,5.94,6.69
26.16,-0.02,-6.72,-0.01,-6.70,6.00,5.99,5.66,5.98,5.99,6.70
26.43,0.04,-6.66,0.04,-6.66,6.00,5.97,5.79,6.04,6.04,6.70
26.69,0.09,-6.61,0.09,-6.61,6.00,5.95,5.92,6.09,6.09,6.70
26.96,0.14,-6.56,0.14,-6.56,6.00,5.93,6.05,6.14,6.14,6.70
27.23,0.17,-6.52,0.18,-6.52,6.00,5.91,6.18,6.17,6.18,6.70
27.50,0.22,-6.47,0.22,-6.48,6.00,5.89,6.30,6.22,6.22,6.70
27.77,0.27,-6.43,0.27,-6.43,6.00,5.87,6.42,6.27,6.27,6.70
28.05,0.30,-6.40,0.31,-6.39,6.00,5.85,6.53,6.30,6.31,6.70
28.33,0.35,-6.35,0.35,-6.35,6.00,5.83,6.64,6.35,6.35,6.70
28.62,0.38,-6.32,0.39,-6.31,6.00,5.80,6.75,6.38,6.39,6.70
28.90,0.44,-6.26,0.44,-6.27,6.00,5.78,6.84,6.44,6.44,6.71
29.19,0.47,-6.23,0.48,-6.23,6.00,5.76,6.93,6.48,6.48,6.71
29.48,0.52,-6.18,0.52,-6.19,6.01,5.74,7.00,6.53,6.53,6.70
29.78,0.55,-6.15,0.56,-6.15,6.01,5.71,7.07,6.56,6.56,6.70
30.08,0.59,-6.12,0.59,-6.11,6.00,5.69,7.13,6.60,6.60,6.71
30.38,0.63,-6.07,0.63,-6.07,6.00,5.66,7.18,6.63,6.63,6.70
30.68,0.66,-6.03,0.67,-6.03,5.99,5.64,7.21,6.65,6.66,6.70
30.99,0.71,-5.98,0.71,-5.99,5.97,5.61,7.23,6.68,6.67,6.69
31.30,0.74,-5.95,0.74,-5.95,5.94,5.59,7.24,6.68,6.68,6.69
31.61,0.77,-5.92,0.78,-5.91,5.91,5.56,7.24,6.68,6.69,6.69
31.93,0.81,-5.87,0.81,-5.87,5.88,5.53,7.23,6.69,6.69,6.68
32.24,0.85,-5.83,0.85,-5.83,5.84,5.51,7.20,6.69,6.69,6.69
32.57,0.88,-5.79,0.89,-5.79,5.79,5.48,7.17,6.68,6.68,6.67
32.89,0.92,-5.75,0.92,-5.75,5.75,5.45,7.12,6.68,6.68,6.67
33.22,0.96,-5.70,0.96,-5.71,5.71,5.42,7.06,6.67,6.67,6.67
33.55,0.99,-5.67,0.99,-5.67,5.67,5.39,7.00,6.67,6.67,6.67
33.89,1.02,-5.64,1.03,-5.63,5.63,5.37,6.92,6.66,6.66,6.66
34.23,1.05,-5.60,1.05,-5.60,5.60,5.34,6.84,6.65,6.65,6.65
34.57,1.09,-5.55,1.09,-5.56,5.56,5.31,6.75,6.65,6.64,6.65
34.92,1.11,-5.52,1.12,-5.52,5.52,5.28,6.65,6.63,6.64,6.63
35.27,1.15,-5.49,1.16,-5.48,5.48,5.25,6.55,6.63,6.63,6.64
35.62,1.19,-5.42,1.19,-5.43,5.43,5.21,6.44,6.63,6.62,6.62
35.97,1.22,-5.39,1.22,-5.39,5.39,5.18,6.33,6.61,6.61,6.61
36.33,1.24,-5.35,1.25,-5.35,5.35,5.15,6.22,6.59,6.60,6.60
36.70,1.28,-5.30,1.28,-5.30,5.30,5.12,6.11,6.59,6.58,6.58
37.06,1.31,-5.26,1.31,-5.26,5.26,5.08,5.99,6.57,6.57,6.57
37.43,1.34,-5.21,1.34,-5.21,5.21,5.05,5.88,6.56,6.56,6.56
37.81,1.37,-5.17,1.37,-5.17,5.17,5.02,5.76,6.54,6.54,6.54
38.19,1.40,-5.12,1.40,-5.13,5.12,4.98,5.64,6.53,6.53,6.53
38.57,1.43,-5.08,1.43,-5.08,5.08,4.95,5.53,6.51,6.51,6.51
38.95,1.46,-5.03,1.46,-5.03,5.04,4.91,5.41,6.50,6.50,6.50
39.34,1.49,-4.98,1.49,-4.99,4.99,4.88,5.30,6.48,6.48,6.47
39.74,1.50,-4.95,1.51,-4.95,4.95,4.84,5.19,6.45,6.46,6.46
40.14,1.54,-4.90,1.54,-4.90,4.90,4.80,5.08,6.44,6.44,6.44
40.54,1.56,-4.86,1.57,-4.86,4.86,4.77,4.98,6.42,6.42,6.43
40.94,1.59,-4.81,1.59,-4.81,4.81,4.73,4.87,6.40,6.40,6.40
41.35,1.62,-4.76,1.62,-4.77,4.77,4.69,4.77,6.39,6.38,6.38
41.76,1.63,-4.72,1.64,-4.72,4.72,4.65,4.67,6.35,6.36,6.36
42.18,1.67,-4.67,1.67,-4.67,4.67,4.61,4.58,6.34,6.34,6.34
42.60,1.69,-4.62,1.70,-4.62,4.62,4.57,4.49,6.31,6.31,6.32
43.03,1.72,-4.57,1.72,-4.57,4.57,4.53,4.40,6.29,6.29,6.29
43.46,1.75,-4.51,1.75,-4.51,4.52,4.49,4.31,6.27,6.27,6.26
43.90,1.76,-4.47,1.77,-4.46,4.47,4.45,4.23,6.23,6.24,6.23
44.33,1.80,-4.40,1.79,-4.41,4.41,4.41,4.15,6.22,6.21,6.21
44.78,1.80,-4.37,1.81,-4.37,4.36,4.37,4.08,6.17,6.18,6.18
45.23,1.85,-4.31,1.84,-4.31,4.31,4.33,4.00,6.16,6.15,6.16
45.68,1.85,-4.27,1.86,-4.26,4.26,4.29,3.93,6.11,6.12,6.12
46.13,1.89,-4.19,1.89,-4.20,4.20,4.24,3.87,6.10,6.09,6.08
46.60,1.89,-4.16,1.90,-4.15,4.15,4.20,3.80,6.04,6.05,6.05
47.06,1.93,-4.09,1.93,-4.10,4.09,4.16,3.74,6.03,6.02,6.02
47.53,1.93,-4.06,1.94,-4.04,4.04,4.11,3.68,5.97,5.98,5.99
48.01,1.98,-3.96,1.97,-3.98,3.98,4.07,3.63,5.96,5.95,5.94
48.49,1.98,-3.93,1.99,-3.92,3.92,4.02,3.58,5.91,5.91,5.91
48.97,2.02,-3.85,2.01,-3.86,3.86,3.98,3.53,5.89,5.88,5.87
49.46,2.02,-3.82,2.03,-3.81,3.81,3.93,3.48,5.83,5.84,5.84
49.96,2.04,-3.75,2.04,-3.75,3.75,3.88,3.44,5.79,5.79,5.79
50.46,2.06,-3.69,2.06,-3.70,3.69,3.84,3.39,5.76,5.75,5.76
50.96,2.07,-3.65,2.08,-3.64,3.64,3.79,3.35,5.71,5.72,5.72
51.47,2.11,-3.58,2.10,-3.58,3.59,3.74,3.31,5.70,5.69,5.69
51.99,2.11,-3.53,2.12,-3.53,3.53,3.70,3.28,5.64,5.65,5.65
52.51,2.15,-3.46,2.14,-3.47,3.48,3.65,3.24,5.63,5.62,5.61
53.03,2.15,-3.43,2.16,-3.42,3.42,3.60,3.21,5.57,5.58,5.59
53.56,2.17,-3.37,2.17,-3.37,3.36,3.55,3.17,5.54,5.54,5.54
54.10,2.19,-3.30,2.19,-3.31,3.31,3.50,3.14,5.50,5.49,5.50
54.64,2.19,-3.27,2.21,-3.25,3.25,3.45,3.11,5.44,5.46,5.46
55.18,2.24,-3.17,2.23,-3.19,3.20,3.40,3.08,5.44,5.42,5.42
55.74,2.24,-3.14,2.25,-3.14,3.14,3.35,3.05,5.39,5.39,5.38
56.29,2.25,-3.10,2.26,-3.09,3.09,3.30,3.02,5.34,5.35,5.35
56.86,2.28,-3.04,2.27,-3.04,3.04,3.25,2.99,5.32,5.32,5.32
57.42,2.28,-2.99,2.30,-2.99,2.99,3.20,2.96,5.28,5.29,5.27
58.00,2.32,-2.92,2.31,-2.94,2.94,3.15,2.93,5.27,5.25,5.24
58.58,2.32,-2.90,2.32,-2.90,2.90,3.09,2.89,5.22,5.22,5.22
59.16,2.32,-2.87,2.34,-2.85,2.84,3.04,2.86,5.17,5.19,5.19
59.76,2.37,-2.79,2.35,-2.81,2.79,2.99,2.83,5.16,5.14,5.16
60.35,2.37,-2.74,2.37,-2.74,2.74,2.94,2.79,5.11,5.11,5.11
60.96,2.37,-2.70,2.39,-2.68,2.68,2.88,2.76,5.05,5.07,5.07
61.57,2.41,-2.60,2.40,-2.62,2.62,2.83,2.72,5.03,5.01,5.02
62.18,2.41,-2.55,2.41,-2.55,2.56,2.78,2.68,4.97,4.97,4.96
62.80,2.41,-2.50,2.43,-2.49,2.50,2.72,2.64,4.91,4.93,4.92
63.43,2.45,-2.42,2.44,-2.44,2.44,2.67,2.60,4.89,4.87,4.87
64.07,2.45,-2.38,2.45,-2.38,2.38,2.62,2.55,4.84,4.84,4.84
64.71,2.45,-2.35,2.47,-2.32,2.33,2.56,2.51,4.78,4.80,4.80
65.35,2.50,-2.26,2.49,-2.28,2.28,2.51,2.46,4.78,4.76,4.76
66.01,2.50,-2.22,2.50,-2.23,2.23,2.45,2.41,4.73,4.72,4.72
66.67,2.50,-2.19,2.51,-2.18,2.18,2.40,2.36,4.68,4.69,4.70
67.33,2.50,-2.14,2.52,-2.13,2.13,2.34,2.31,4.63,4.64,4.65
68.01,2.54,-2.06,2.53,-2.08,2.08,2.29,2.26,4.62,4.60,4.61
68.69,2.54,-2.02,2.54,-2.02,2.03,2.23,2.20,4.57,4.57,4.56
69.37,2.54,-1.99,2.56,-1.97,1.98,2.18,2.15,4.52,4.53,4.53
70.07,2.57,-1.92,2.57,-1.92,1.92,2.12,2.09,4.50,4.49,4.49
70.77,2.58,-1.86,2.58,-1.87,1.87,2.07,2.03,4.45,4.44,4.45
71.48,2.58,-1.82,2.58,-1.82,1.81,2.01,1.97,4.40,4.40,4.40
72.19,2.58,-1.77,2.59,-1.77,1.76,1.96,1.92,4.34,4.35,4.36
72.91,2.59,-1.72,2.60,-1.71,1.71,1.90,1.86,4.30,4.31,4.31
73.64,2.63,-1.63,2.62,-1.65,1.65,1.85,1.80,4.29,4.27,4.26
74.38,2.63,-1.59,2.63,-1.60,1.60,1.79,1.74,4.23,4.23,4.23
75.12,2.63,-1.55,2.64,-1.55,1.55,1.74,1.68,4.18,4.19,4.19
75.87,2.64,-1.51,2.65,-1.50,1.50,1.68,1.62,4.15,4.15,4.16
76.63,2.67,-1.44,2.66,-1.46,1.46,1.63,1.56,4.13,4.12,4.12
77.40,2.67,-1.41,2.67,-1.41,1.41,1.57,1.50,4.09,4.08,4.09
78.17,2.67,-1.37,2.68,-1.37,1.37,1.52,1.45,4.05,4.05,4.04
78.95,2.67,-1.35,2.68,-1.34,1.33,1.46,1.39,4.01,4.02,4.02
79.74,2.70,-1.29,2.70,-1.29,1.29,1.41,1.33,3.99,3.99,3.99
80.54,2.71,-1.24,2.71,-1.25,1.25,1.35,1.27,3.96,3.96,3.95
81.35,2.71,-1.21,2.71,-1.21,1.21,1.29,1.21,3.92,3.92,3.92
82.16,2.71,-1.18,2.72,-1.17,1.16,1.24,1.16,3.88,3.88,3.89
82.98,2.72,-1.13,2.73,-1.12,1.12,1.18,1.10,3.84,3.85,3.86
83.81,2.76,-1.06,2.75,-1.07,1.08,1.13,1.05,3.84,3.83,3.82
84.65,2.76,-1.02,2.76,-1.02,1.03,1.07,0.99,3.79,3.79,3.78
85.50,2.76,-0.98,2.76,-0.98,0.99,1.02,0.94,3.75,3.75,3.74
86.35,2.76,-0.95,2.76,-0.95,0.94,0.96,0.88,3.71,3.71,3.71
87.22,2.76,-0.92,2.78,-0.91,0.90,0.91,0.83,3.66,3.68,3.69
88.09,2.80,-0.84,2.79,-0.86,0.86,0.86,0.78,3.66,3.65,3.64
88.97,2.80,-0.81,2.80,-0.81,0.82,0.80,0.73,3.62,3.62,3.61
89.86,2.80,-0.77,2.81,-0.77,0.78,0.75,0.67,3.58,3.58,3.57
90.76,2.80,-0.74,2.80,-0.73,0.73,0.69,0.62,3.54,3.54,3.54
91.66,2.80,-0.69,2.81,-0.69,0.69,0.64,0.57,3.49,3.49,3.50
92.58,2.81,-0.65,2.81,-0.65,0.64,0.58,0.52,3.46,3.46,3.46
93.51,2.82,-0.61,2.83,-0.60,0.60,0.53,0.47,3.42,3.43,3.43
94.44,2.84,-0.55,2.84,-0.56,0.56,0.48,0.42,3.40,3.40,3.40
95.39,2.84,-0.51,2.84,-0.51,0.52,0.42,0.38,3.36,3.36,3.35
96.34,2.84,-0.46,2.85,-0.47,0.47,0.37,0.33,3.31,3.32,3.31
97.30,2.84,-0.43,2.84,-0.42,0.43,0.32,0.28,3.27,3.27,3.27
98.28,2.84,-0.38,2.84,-0.38,0.38,0.27,0.23,3.23,3.22,3.23
99.26,2.84,-0.34,2.84,-0.34,0.34,0.21,0.19,3.18,3.18,3.18
100.25,2.84,-0.30,2.85,-0.30,0.30,0.16,0.14,3.14,3.14,3.15
101.25,2.86,-0.26,2.86,-0.26,0.25,0.11,0.09,3.12,3.11,3.12
102.27,2.86,-0.22,2.87,-0.21,0.21,0.06,0.05,3.08,3.08,3.08
103.29,2.89,-0.15,2.88,-0.17,0.17,0.01,0.00,3.06,3.06,3.05
104.32,2.89,-0.13,2.89,-0.13,0.13,-0.04,-0.04,3.03,3.02,3.02
105.37,2.89,-0.09,2.90,-0.09,0.09,-0.09,-0.08,2.99,2.99,2.98
106.42,2.89,-0.06,2.89,-0.06,0.06,-0.14,-0.13,2.95,2.95,2.96
107.48,2.89,-0.02,2.89,-0.02,0.02,-0.19,-0.17,2.92,2.92,2.91
108.56,2.89,0.01,2.89,0.01,-0.01,-0.24,-0.21,2.88,2.88,2.89
109.64,2.89,0.04,2.89,0.05,-0.04,-0.29,-0.25,2.85,2.85,2.85
110.74,2.89,0.08,2.89,0.08,-0.08,-0.34,-0.30,2.81,2.81,2.81
111.85,2.89,0.12,2.89,0.11,-0.11,-0.38,-0.34,2.78,2.78,2.78
112.97,2.89,0.15,2.89,0.15,-0.15,-0.43,-0.37,2.74,2.74,2.74
114.10,2.89,0.19,2.89,0.19,-0.19,-0.48,-0.41,2.70,2.70,2.71
115.24,2.89,0.23,2.89,0.23,-0.23,-0.52,-0.45,2.66,2.66,2.66
116.39,2.89,0.28,2.89,0.27,-0.27,-0.57,-0.49,2.62,2.62,2.62
117.55,2.89,0.31,2.89,0.31,-0.31,-0.61,-0.52,2.58,2.58,2.58
118.73,2.89,0.35,2.90,0.36,-0.35,-0.66,-0.56,2.54,2.55,2.54
119.92,2.91,0.41,2.91,0.40,-0.40,-0.70,-0.59,2.51,2.51,2.51
121.12,2.93,0.45,2.92,0.45,-0.44,-0.75,-0.63,2.49,2.48,2.48
122.33,2.93,0.49,2.94,0.49,-0.49,-0.79,-0.66,2.44,2.45,2.44
123.55,2.93,0.52,2.95,0.53,-0.54,-0.83,-0.69,2.39,2.41,2.41
124.79,2.97,0.59,2.96,0.58,-0.59,-0.87,-0.72,2.38,2.37,2.38
126.03,2.97,0.64,2.98,0.64,-0.64,-0.92,-0.75,2.33,2.33,2.34
127.29,2.99,0.70,3.00,0.70,-0.70,-0.96,-0.78,2.29,2.30,2.30
128.57,3.02,0.76,3.02,0.76,-0.76,-1.00,-0.81,2.27,2.26,2.26
129.85,3.03,0.81,3.04,0.82,-0.82,-1.04,-0.84,2.22,2.22,2.22
131.15,3.06,0.88,3.06,0.88,-0.88,-1.07,-0.87,2.19,2.18,2.18
132.46,3.08,0.94,3.08,0.94,-0.94,-1.11,-0.89,2.14,2.14,2.14
133.79,3.10,0.99,3.11,1.00,-1.00,-1.15,-0.92,2.10,2.11,2.11
135.12,3.14,1.07,3.13,1.06,-1.06,-1.19,-0.94,2.09,2.08,2.07
136.48,3.15,1.11,3.16,1.11,-1.11,-1.22,-0.97,2.04,2.04,2.05
137.84,3.18,1.17,3.18,1.17,-1.17,-1.26,-0.99,2.01,2.01,2.01
139.22,3.19,1.22,3.20,1.22,-1.22,-1.30,-1.02,1.97,1.98,1.97
140.61,3.22,1.28,3.21,1.27,-1.27,-1.33,-1.04,1.95,1.94,1.95
142.02,3.23,1.32,3.23,1.32,-1.32,-1.36,-1.07,1.91,1.91,1.91
143.44,3.23,1.35,3.25,1.36,-1.36,-1.40,-1.09,1.87,1.89,1.88
144.87,3.28,1.42,3.26,1.41,-1.41,-1.43,-1.12,1.87,1.85,1.86
146.32,3.28,1.45,3.28,1.45,-1.45,-1.46,-1.14,1.83,1.83,1.83
147.78,3.28,1.48,3.30,1.49,-1.49,-1.50,-1.17,1.79,1.81,1.80
149.26,3.31,1.54,3.31,1.53,-1.53,-1.53,-1.19,1.78,1.78,1.78
150.75,3.32,1.58,3.32,1.57,-1.57,-1.56,-1.22,1.76,1.75,1.74
152.26,3.32,1.60,3.33,1.61,-1.60,-1.59,-1.25,1.72,1.73,1.72
153.78,3.32,1.64,3.32,1.63,-1.63,-1.62,-1.28,1.69,1.69,1.69
155.32,3.32,1.66,3.32,1.66,-1.66,-1.65,-1.31,1.66,1.66,1.66
156.88,3.32,1.69,3.32,1.69,-1.70,-1.68,-1.33,1.63,1.63,1.63
158.44,3.32,1.73,3.32,1.72,-1.73,-1.71,-1.37,1.59,1.59,1.60
160.03,3.32,1.76,3.32,1.76,-1.77,-1.73,-1.40,1.56,1.56,1.56
161.63,3.32,1.79,3.33,1.80,-1.80,-1.76,-1.43,1.52,1.52,1.53
163.24,3.34,1.85,3.34,1.84,-1.84,-1.79,-1.46,1.50,1.49,1.49
164.88,3.34,1.88,3.35,1.89,-1.89,-1.81,-1.50,1.46,1.46,1.46
166.53,3.36,1.94,3.36,1.93,-1.93,-1.84,-1.53,1.44,1.43,1.42
168.19,3.36,1.97,3.36,1.97,-1.97,-1.87,-1.57,1.40,1.40,1.39
169.87,3.36,2.01,3.36,2.01,-2.01,-1.89,-1.61,1.36,1.36,1.36
171.57,3.36,2.04,3.36,2.04,-2.04,-1.92,-1.65,1.32,1.32,1.32
173.29,3.36,2.08,3.36,2.08,-2.08,-1.94,-1.69,1.28,1.28,1.28
175.02,3.36,2.12,3.36,2.11,-2.12,-1.97,-1.73,1.25,1.25,1.25
176.77,3.36,2.15,3.36,2.15,-2.15,-1.99,-1.78,1.21,1.21,1.21
178.54,3.36,2.18,3.36,2.19,-2.19,-2.02,-1.82,1.18,1.18,1.18
180.32,3.36,2.23,3.36,2.22,-2.22,-2.04,-1.87,1.14,1.14,1.14
182.13,3.36,2.26,3.36,2.26,-2.26,-2.06,-1.92,1.10,1.10,1.10
183.95,3.36,2.29,3.36,2.30,-2.29,-2.09,-1.97,1.07,1.07,1.07
185.79,3.36,2.33,3.36,2.33,-2.33,-2.11,-2.02,1.03,1.03,1.03
187.65,3.36,2.36,3.36,2.37,-2.37,-2.13,-2.07,1.00,1.00,1.00
189.52,3.36,2.40,3.36,2.40,-2.40,-2.16,-2.12,0.96,0.96,0.96
191.42,3.36,2.43,3.36,2.44,-2.44,-2.18,-2.18,0.92,0.92,0.93
193.33,3.36,2.47,3.36,2.47,-2.47,-2.20,-2.24,0.89,0.89,0.89
195.27,3.36,2.51,3.36,2.51,-2.51,-2.22,-2.29,0.85,0.85,0.85
197.22,3.36,2.55,3.36,2.55,-2.54,-2.24,-2.35,0.82,0.82,0.81
199.19,3.36,2.58,3.36,2.58,-2.58,-2.27,-2.41,0.79,0.79,0.79
201.18,3.36,2.61,3.36,2.61,-2.61,-2.29,-2.47,0.76,0.76,0.75
203.19,3.36,2.64,3.36,2.64,-2.64,-2.31,-2.53,0.73,0.73,0.73
205.23,3.36,2.66,3.36,2.67,-2.66,-2.33,-2.59,0.70,0.70,0.70
207.28,3.36,2.69,3.36,2.69,-2.69,-2.36,-2.65,0.67,0.67,0.67
209.35,3.36,2.72,3.36,2.72,-2.72,-2.38,-2.71,0.64,0.64,0.64
211.44,3.36,2.75,3.36,2.75,-2.75,-2.40,-2.77,0.62,0.61,0.62
213.56,3.36,2.77,3.36,2.77,-2.78,-2.42,-2.83,0.59,0.59,0.59
215.69,3.36,2.79,3.37,2.80,-2.81,-2.44,-2.90,0.55,0.56,0.57
217.85,3.38,2.84,3.38,2.83,-2.84,-2.47,-2.95,0.54,0.54,0.55
220.03,3.38,2.87,3.39,2.87,-2.87,-2.49,-3.01,0.51,0.52,0.51
222.23,3.40,2.91,3.40,2.91,-2.90,-2.51,-3.07,0.50,0.50,0.49
224.45,3.41,2.94,3.41,2.94,-2.93,-2.53,-3.13,0.48,0.48,0.47
226.70,3.41,2.96,3.41,2.96,-2.96,-2.56,-3.18,0.46,0.46,0.45
228.96,3.41,2.97,3.41,2.98,-2.98,-2.58,-3.23,0.43,0.44,0.44
231.25,3.41,3.00,3.41,3.00,-3.00,-2.60,-3.28,0.41,0.41,0.42
233.57,3.41,3.02,3.41,3.02,-3.02,-2.62,-3.33,0.40,0.40,0.40
235.90,3.41,3.03,3.41,3.03,-3.03,-2.65,-3.37,0.38,0.38,0.38
238.26,3.41,3.05,3.41,3.05,-3.05,-2.67,-3.42,0.36,0.36,0.36
240.64,3.41,3.05,3.41,3.06,-3.07,-2.69,-3.45,0.35,0.35,0.36
243.05,3.41,3.07,3.42,3.08,-3.09,-2.72,-3.49,0.33,0.33,0.34
245.48,3.42,3.10,3.42,3.10,-3.10,-2.74,-3.52,0.32,0.32,0.32
247.93,3.43,3.13,3.44,3.12,-3.12,-2.76,-3.55,0.31,0.32,0.30
250.41,3.45,3.15,3.45,3.14,-3.14,-2.79,-3.57,0.32,0.31,0.31
252.92,3.45,3.15,3.45,3.16,-3.15,-2.81,-3.60,0.30,0.30,0.30
255.45,3.45,3.17,3.45,3.17,-3.16,-2.84,-3.61,0.29,0.29,0.28
258.00,3.45,3.18,3.45,3.18,-3.18,-2.86,-3.63,0.28,0.28,0.27
260.58,3.45,3.19,3.45,3.19,-3.19,-2.89,-3.64,0.27,0.27,0.27
263.19,3.45,3.19,3.45,3.19,-3.20,-2.91,-3.65,0.25,0.25,0.26
265.82,3.45,3.20,3.45,3.20,-3.21,-2.94,-3.65,0.24,0.25,0.26
268.48,3.45,3.20,3.47,3.22,-3.22,-2.96,-3.65,0.23,0.25,0.25
271.16,3.49,3.25,3.48,3.24,-3.23,-2.99,-3.65,0.26,0.25,0.24
273.87,3.49,3.26,3.49,3.26,-3.25,-3.01,-3.65,0.25,0.25,0.24
276.61,3.49,3.26,3.49,3.27,-3.26,-3.04,-3.65,0.23,0.23,0.23
279.38,3.49,3.28,3.49,3.27,-3.27,-3.07,-3.64,0.22,0.22,0.22
282.17,3.49,3.27,3.50,3.28,-3.29,-3.09,-3.64,0.21,0.22,0.22
284.99,3.52,3.30,3.52,3.30,-3.30,-3.12,-3.63,0.23,0.22,0.23
287.84,3.54,3.31,3.53,3.31,-3.31,-3.15,-3.62,0.24,0.22,0.23
290.72,3.54,3.33,3.55,3.32,-3.32,-3.18,-3.62,0.22,0.23,0.22
293.63,3.54,3.32,3.56,3.33,-3.33,-3.20,-3.61,0.21,0.23,0.22
296.57,3.57,3.34,3.56,3.34,-3.34,-3.23,-3.60,0.23,0.22,0.23
299.53,3.58,3.36,3.58,3.35,-3.35,-3.26,-3.59,0.23,0.23,0.22
302.53,3.58,3.35,3.60,3.37,-3.37,-3.29,-3.59,0.22,0.23,0.23
305.55,3.62,3.40,3.61,3.38,-3.38,-3.32,-3.58,0.24,0.23,0.23
308.61,3.62,3.39,3.62,3.39,-3.39,-3.34,-3.58,0.23,0.23,0.23
311.69,3.62,3.39,3.64,3.41,-3.41,-3.37,-3.58,0.21,0.23,0.23
314.81,3.67,3.44,3.66,3.42,-3.43,-3.40,-3.58,0.25,0.23,0.24
317.96,3.67,3.44,3.68,3.45,-3.44,-3.43,-3.58,0.23,0.24,0.23
321.14,3.71,3.47,3.71,3.47,-3.46,-3.46,-3.58,0.25,0.24,0.24
324.35,3.71,3.48,3.72,3.48,-3.48,-3.49,-3.59,0.23,0.24,0.24
327.59,3.75,3.50,3.75,3.50,-3.50,-3.52,-3.60,0.25,0.25,0.25
330.87,3.75,3.50,3.76,3.51,-3.52,-3.55,-3.61,0.24,0.25,0.25
334.18,3.80,3.55,3.79,3.54,-3.53,-3.58,-3.62,0.27,0.26,0.25
337.52,3.80,3.55,3.81,3.56,-3.55,-3.61,-3.64,0.25,0.26,0.26
340.90,3.84,3.58,3.84,3.57,-3.57,-3.64,-3.66,0.27,0.26,0.26
344.30,3.85,3.58,3.86,3.59,-3.59,-3.67,-3.68,0.26,0.26,0.27
347.75,3.88,3.60,3.88,3.61,-3.61,-3.70,-3.71,0.27,0.27,0.28
351.23,3.91,3.64,3.91,3.63,-3.63,-3.73,-3.73,0.28,0.28,0.28
354.74,3.94,3.65,3.94,3.66,-3.65,-3.76,-3.76,0.29,0.29,0.29
358.28,3.97,3.68,3.97,3.68,-3.67,-3.79,-3.80,0.30,0.30,0.29
361.87,4.00,3.70,4.00,3.70,-3.69,-3.83,-3.83,0.31,0.30,0.30
365.49,4.01,3.71,4.03,3.72,-3.72,-3.86,-3.87,0.30,0.31,0.31
369.14,4.06,3.75,4.05,3.73,-3.74,-3.89,-3.92,0.32,0.31,0.32
372.83,4.07,3.75,4.08,3.76,-3.76,-3.92,-3.96,0.31,0.32,0.32
376.56,4.10,3.78,4.11,3.78,-3.78,-3.95,-4.01,0.32,0.33,0.32
380.33,4.14,3.81,4.13,3.80,-3.80,-3.98,-4.06,0.34,0.33,0.33
384.13,4.16,3.82,4.17,3.83,-3.83,-4.01,-4.11,0.34,0.34,0.34
387.97,4.19,3.85,4.20,3.85,-3.85,-4.04,-4.17,0.34,0.35,0.35
391.85,4.23,3.88,4.22,3.87,-3.87,-4.08,-4.23,0.36,0.35,0.36
395.77,4.25,3.90,4.26,3.90,-3.90,-4.11,-4.29,0.35,0.36,0.35
399.73,4.28,3.92,4.29,3.92,-3.92,-4.14,-4.35,0.36,0.37,0.36
403.72,4.32,3.94,4.32,3.95,-3.95,-4.17,-4.41,0.38,0.38,0.38
407.76,4.36,3.98,4.36,3.97,-3.97,-4.20,-4.47,0.39,0.38,0.38
411.84,4.39,4.00,4.39,4.00,-4.00,-4.23,-4.54,0.40,0.39,0.39
415.96,4.40,4.01,4.42,4.02,-4.02,-4.26,-4.60,0.38,0.40,0.40
420.12,4.45,4.06,4.45,4.05,-4.05,-4.29,-4.67,0.41,0.40,0.40
424.32,4.48,4.08,4.48,4.07,-4.07,-4.32,-4.74,0.41,0.41,0.41
428.56,4.51,4.09,4.52,4.10,-4.09,-4.35,-4.80,0.42,0.42,0.42
432.85,4.54,4.11,4.54,4.12,-4.12,-4.38,-4.86,0.43,0.43,0.43
437.18,4.58,4.15,4.58,4.14,-4.14,-4.41,-4.93,0.44,0.44,0.43
441.55,4.60,4.16,4.61,4.16,-4.16,-4.44,-4.99,0.44,0.44,0.44
445.96,4.64,4.19,4.64,4.19,-4.19,-4.46,-5.04,0.46,0.45,0.45
450.42,4.66,4.20,4.67,4.21,-4.21,-4.49,-5.10,0.45,0.46,0.46
454.93,4.71,4.24,4.71,4.24,-4.24,-4.52,-5.15,0.48,0.47,0.47
459.48,4.74,4.26,4.74,4.26,-4.26,-4.55,-5.19,0.48,0.48,0.48
464.07,4.77,4.28,4.78,4.28,-4.28,-4.57,-5.23,0.49,0.49,0.50
468.71,4.81,4.31,4.81,4.31,-4.31,-4.60,-5.27,0.50,0.50,0.51
473.40,4.85,4.34,4.85,4.33,-4.34,-4.62,-5.30,0.52,0.51,0.52
478.13,4.88,4.36,4.89,4.36,-4.36,-4.65,-5.32,0.52,0.52,0.53
482.91,4.93,4.40,4.93,4.39,-4.39,-4.67,-5.33,0.54,0.53,0.53
487.74,4.96,4.42,4.97,4.42,-4.42,-4.70,-5.34,0.54,0.54,0.54
492.62,5.01,4.46,5.01,4.46,-4.45,-4.72,-5.34,0.56,0.56,0.55
497.55,5.04,4.48,5.05,4.48,-4.48,-4.74,-5.33,0.56,0.56,0.56
502.52,5.09,4.52,5.09,4.52,-4.51,-4.76,-5.32,0.58,0.58,0.57
507.55,5.12,4.53,5.13,4.54,-4.54,-4.78,-5.30,0.58,0.59,0.59
512.62,5.18,4.58,5.17,4.57,-4.57,-4.80,-5.27,0.61,0.60,0.60
517.75,5.21,4.59,5.22,4.60,-4.60,-4.82,-5.23,0.61,0.61,0.62
522.93,5.26,4.63,5.26,4.63,-4.64,-4.84,-5.18,0.63,0.63,0.63
528.16,5.31,4.67,5.30,4.67,-4.67,-4.85,-5.13,0.65,0.64,0.64
533.44,5.34,4.69,5.35,4.70,-4.70,-4.87,-5.07,0.65,0.65,0.65
538.77,5.39,4.74,5.39,4.73,-4.73,-4.88,-5.01,0.66,0.67,0.66
544.16,5.44,4.77,5.44,4.76,-4.76,-4.89,-4.93,0.68,0.68,0.68
549.60,5.48,4.80,5.48,4.79,-4.79,-4.90,-4.86,0.69,0.69,0.69
555.10,5.52,4.82,5.52,4.82,-4.82,-4.91,-4.78,0.70,0.70,0.71
