frequency,raw,error,smoothed,error_smoothed,equalization,parametric_eq,fixed_band_eq,equalized_raw,equalized_smoothed,target
20.00,2.74,2.18,2.74,2.18,-2.17,-2.99,-1.63,0.57,0.57,0.56
20.20,2.78,2.18,2.78,2.17,-2.17,-3.00,-1.67,0.61,0.61,0.60
20.40,2.82,2.18,2.81,2.18,-2.17,-3.01,-1.72,0.64,0.64,0.64
20.61,2.86,2.20,2.85,2.18,-2.19,-3.02,-1.77,0.67,0.67,0.66
20.81,2.89,2.19,2.89,2.19,-2.20,-3.02,-1.82,0.68,0.69,0.70
21.02,2.94,2.20,2.94,2.21,-2.22,-3.03,-1.87,0.71,0.71,0.74
21.23,2.99,2.24,2.99,2.23,-2.25,-3.04,-1.92,0.74,0.74,0.75
21.44,3.05,2.28,3.05,2.28,-2.28,-3.05,-1.98,0.76,0.76,0.77
21.66,3.11,2.33,3.11,2.33,-2.33,-3.06,-2.04,0.78,0.78,0.78
21.87,3.17,2.39,3.17,2.38,-2.37,-3.07,-2.10,0.80,0.79,0.78
22.09,3.22,2.43,3.22,2.43,-2.42,-3.08,-2.15,0.80,0.79,0.79
22.31,3.27,2.48,3.26,2.48,-2.48,-3.09,-2.22,0.79,0.79,0.79
22.54,3.31,2.52,3.31,2.53,-2.53,-3.10,-2.28,0.78,0.78,0.79
22.76,3.36,2.58,3.36,2.58,-2.58,-3.11,-2.34,0.77,0.77,0.78
22.99,3.41,2.64,3.40,2.63,-2.63,-3.12,-2.41,0.77,0.77,0.77
23.22,3.45,2.68,3.45,2.69,-2.68,-3.13,-2.48,0.76,0.77,0.77
23.45,3.50,2.74,3.50,2.74,-2.73,-3.14,-2.55,0.76,0.76,0.76
23.69,3.55,2.79,3.54,2.79,-2.78,-3.15,-2.62,0.76,0.76,0.76
23.92,3.59,2.83,3.59,2.83,-2.83,-3.16,-2.69,0.75,0.76,0.76
24.16,3.64,2.87,3.64,2.88,-2.88,-3.17,-2.76,0.75,0.75,0.76
24.40,3.69,2.92,3.68,2.92,-2.93,-3.18,-2.84,0.76,0.76,0.76
24.65,3.73,2.97,3.73,2.97,-2.97,-3.20,-2.91,0.75,0.76,0.75
24.89,3.78,3.02,3.77,3.02,-3.01,-3.21,-2.99,0.76,0.76,0.75
25.14,3.81,3.06,3.81,3.06,-3.05,-3.22,-3.07,0.76,0.76,0.75
25.39,3.84,3.09,3.84,3.09,-3.09,-3.23,-3.14,0.75,0.75,0.75
25.65,3.87,3.13,3.86,3.12,-3.11,-3.24,-3.22,0.75,0.75,0.74
25.91,3.89,3.16,3.89,3.15,-3.14,-3.26,-3.30,0.74,0.74,0.73
26.16,3.91,3.18,3.91,3.18,-3.17,-3.27,-3.38,0.74,0.74,0.73
26.43,3.93,3.20,3.92,3.20,-3.20,-3.28,-3.46,0.72,0.72,0.73
26.69,3.95,3.22,3.94,3.22,-3.24,-3.30,-3.54,0.71,0.70,0.73
26.96,3.97,3.25,3.98,3.25,-3.28,-3.31,-3.61,0.68,0.69,0.72
27.23,4.02,3.30,4.02,3.31,-3.33,-3.32,-3.69,0.69,0.70,0.72
27.50,4.09,3.37,4.08,3.37,-3.37,-3.34,-3.76,0.71,0.71,0.72
27.77,4.15,3.44,4.14,3.44,-3.42,-3.35,-3.84,0.73,0.72,0.70
28.05,4.20,3.49,4.19,3.49,-3.47,-3.37,-3.91,0.73,0.73,0.70
28.33,4.23,3.53,4.23,3.53,-3.51,-3.38,-3.97,0.72,0.71,0.69
28.62,4.25,3.56,4.25,3.56,-3.55,-3.40,-4.04,0.69,0.70,0.69
28.90,4.27,3.58,4.27,3.58,-3.58,-3.41,-4.10,0.68,0.69,0.69
29.19,4.30,3.61,4.29,3.60,-3.61,-3.43,-4.16,0.69,0.68,0.69
29.48,4.32,3.62,4.32,3.63,-3.63,-3.44,-4.21,0.69,0.69,0.70
29.78,4.35,3.66,4.34,3.65,-3.64,-3.46,-4.27,0.70,0.70,0.69
30.08,4.37,3.67,4.36,3.67,-3.66,-3.47,-4.31,0.70,0.70,0.70
30.38,4.37,3.69,4.37,3.69,-3.69,-3.49,-4.35,0.68,0.68,0.68
30.68,4.38,3.70,4.37,3.70,-3.72,-3.51,-4.39,0.66,0.65,0.67
30.99,4.38,3.71,4.39,3.72,-3.75,-3.52,-4.42,0.62,0.64,0.66
31.30,4.43,3.77,4.43,3.77,-3.79,-3.54,-4.45,0.64,0.64,0.66
31.61,4.48,3.82,4.48,3.83,-3.82,-3.56,-4.47,0.65,0.65,0.66
31.93,4.54,3.90,4.52,3.88,-3.86,-3.58,-4.49,0.68,0.67,0.64
32.24,4.55,3.92,4.55,3.92,-3.89,-3.59,-4.50,0.66,0.66,0.63
32.57,4.56,3.93,4.56,3.94,-3.92,-3.61,-4.51,0.64,0.64,0.62
32.89,4.57,3.95,4.56,3.95,-3.95,-3.63,-4.51,0.62,0.61,0.61
33.22,4.57,3.98,4.56,3.97,-3.98,-3.65,-4.51,0.59,0.58,0.59
33.55,4.57,3.98,4.57,3.98,-4.01,-3.67,-4.51,0.56,0.56,0.59
33.89,4.57,4.00,4.57,4.00,-4.03,-3.69,-4.50,0.54,0.54,0.57
34.23,4.60,4.03,4.60,4.04,-4.05,-3.71,-4.49,0.55,0.55,0.57
34.57,4.64,4.09,4.64,4.09,-4.07,-3.73,-4.48,0.57,0.57,0.54
34.92,4.69,4.15,4.67,4.13,-4.09,-3.75,-4.47,0.59,0.58,0.53
35.27,4.68,4.15,4.67,4.15,-4.12,-3.77,-4.45,0.56,0.55,0.53
35.62,4.66,4.15,4.66,4.15,-4.15,-3.79,-4.43,0.51,0.51,0.51
35.97,4.63,4.13,4.65,4.15,-4.19,-3.81,-4.41,0.44,0.46,0.49
36.33,4.67,4.18,4.67,4.18,-4.22,-3.83,-4.39,0.44,0.44,0.49
36.70,4.72,4.24,4.71,4.23,-4.26,-3.85,-4.37,0.45,0.45,0.48
37.06,4.77,4.30,4.77,4.29,-4.30,-3.87,-4.35,0.47,0.47,0.47
37.43,4.82,4.34,4.82,4.36,-4.34,-3.89,-4.33,0.48,0.49,0.47
37.81,4.87,4.40,4.86,4.40,-4.36,-3.92,-4.31,0.50,0.50,0.46
38.19,4.89,4.44,4.88,4.43,-4.38,-3.94,-4.30,0.50,0.50,0.45
38.57,4.88,4.42,4.88,4.43,-4.39,-3.96,-4.28,0.49,0.49,0.46
38.95,4.86,4.41,4.85,4.40,-4.39,-3.99,-4.27,0.47,0.46,0.44
39.34,4.81,4.37,4.80,4.36,-4.38,-4.01,-4.25,0.43,0.42,0.44
39.74,4.75,4.32,4.76,4.33,-4.36,-4.03,-4.24,0.38,0.39,0.43
40.14,4.72,4.29,4.73,4.31,-4.35,-4.06,-4.23,0.37,0.38,0.42
40.54,4.74,4.32,4.73,4.31,-4.33,-4.08,-4.23,0.40,0.40,0.42
40.94,4.76,4.34,4.75,4.34,-4.32,-4.11,-4.22,0.43,0.42,0.42
41.35,4.76,4.36,4.76,4.36,-4.32,-4.13,-4.22,0.43,0.43,0.40
41.76,4.76,4.37,4.76,4.37,-4.34,-4.16,-4.22,0.42,0.42,0.39
42.18,4.75,4.36,4.74,4.35,-4.36,-4.18,-4.23,0.39,0.38,0.38
42.60,4.73,4.36,4.72,4.35,-4.39,-4.21,-4.24,0.34,0.34,0.37
43.03,4.71,4.34,4.74,4.38,-4.42,-4.24,-4.25,0.29,0.32,0.36
43.46,4.78,4.44,4.77,4.43,-4.45,-4.26,-4.26,0.32,0.32,0.34
43.90,4.84,4.52,4.82,4.50,-4.49,-4.29,-4.28,0.35,0.33,0.32
44.33,4.86,4.56,4.85,4.56,-4.52,-4.32,-4.30,0.33,0.33,0.30
44.78,4.86,4.58,4.86,4.58,-4.56,-4.34,-4.33,0.30,0.31,0.27
45.23,4.86,4.60,4.86,4.60,-4.58,-4.37,-4.35,0.27,0.28,0.26
45.68,4.86,4.61,4.86,4.61,-4.60,-4.40,-4.38,0.25,0.25,0.24
46.13,4.86,4.63,4.86,4.63,-4.62,-4.43,-4.42,0.24,0.24,0.23
46.60,4.86,4.63,4.86,4.64,-4.64,-4.46,-4.46,0.22,0.22,0.22
47.06,4.86,4.64,4.85,4.64,-4.65,-4.48,-4.49,0.20,0.20,0.22
47.53,4.86,4.65,4.85,4.64,-4.68,-4.51,-4.54,0.18,0.17,0.21
48.01,4.86,4.65,4.88,4.68,-4.71,-4.54,-4.58,0.14,0.16,0.20
48.49,4.92,4.73,4.91,4.73,-4.75,-4.57,-4.63,0.17,0.17,0.19
48.97,4.98,4.81,4.97,4.80,-4.78,-4.60,-4.68,0.19,0.18,0.17
49.46,5.01,4.85,5.01,4.85,-4.82,-4.63,-4.74,0.19,0.19,0.16
49.96,5.05,4.90,5.04,4.89,-4.85,-4.66,-4.79,0.19,0.18,0.14
50.46,5.05,4.89,5.05,4.90,-4.88,-4.69,-4.85,0.17,0.17,0.16
50.96,5.05,4.90,5.05,4.91,-4.89,-4.72,-4.91,0.15,0.16,0.15
51.47,5.05,4.91,5.05,4.91,-4.90,-4.75,-4.97,0.15,0.15,0.14
51.99,5.05,4.92,5.05,4.91,-4.91,-4.78,-5.04,0.14,0.14,0.13
52.51,5.05,4.92,5.05,4.91,-4.92,-4.82,-5.10,0.12,0.12,0.13
53.03,5.05,4.92,5.03,4.90,-4.95,-4.85,-5.16,0.10,0.09,0.13
53.56,5.04,4.91,5.04,4.92,-4.97,-4.88,-5.23,0.06,0.07,0.12
54.10,5.05,4.93,5.10,4.98,-5.01,-4.91,-5.29,0.04,0.09,0.11
54.64,5.19,5.07,5.17,5.06,-5.05,-4.94,-5.36,0.14,0.12,0.11
55.18,5.27,5.17,5.23,5.13,-5.09,-4.97,-5.42,0.18,0.15,0.10
55.74,5.26,5.17,5.27,5.17,-5.12,-5.01,-5.48,0.14,0.14,0.09
56.29,5.25,5.16,5.26,5.18,-5.16,-5.04,-5.54,0.09,0.10,0.09
56.86,5.25,5.18,5.25,5.18,-5.18,-5.07,-5.60,0.06,0.06,0.07
57.42,5.25,5.19,5.25,5.19,-5.20,-5.10,-5.65,0.04,0.04,0.05
58.00,5.25,5.20,5.25,5.20,-5.21,-5.14,-5.70,0.03,0.03,0.04
58.58,5.25,5.22,5.25,5.22,-5.22,-5.17,-5.75,0.02,0.02,0.03
59.16,5.25,5.23,5.25,5.23,-5.24,-5.20,-5.79,0.01,0.01,0.02
59.76,5.25,5.26,5.25,5.25,-5.26,-5.23,-5.83,-0.01,-0.01,-0.01
60.35,5.25,5.28,5.25,5.28,-5.28,-5.27,-5.86,-0.04,-0.04,-0.03
60.96,5.25,5.30,5.25,5.31,-5.31,-5.30,-5.89,-0.07,-0.07,-0.06
61.57,5.25,5.35,5.25,5.35,-5.35,-5.33,-5.91,-0.10,-0.10,-0.10
62.18,5.25,5.38,5.25,5.38,-5.38,-5.37,-5.93,-0.13,-0.13,-0.14
62.80,5.25,5.42,5.25,5.42,-5.42,-5.40,-5.94,-0.17,-0.17,-0.17
63.43,5.25,5.46,5.25,5.46,-5.45,-5.43,-5.95,-0.21,-0.21,-0.21
64.07,5.25,5.49,5.25,5.49,-5.49,-5.46,-5.95,-0.24,-0.24,-0.25
64.71,5.25,5.53,5.25,5.53,-5.53,-5.50,-5.94,-0.28,-0.28,-0.29
65.35,5.25,5.56,5.25,5.56,-5.56,-5.53,-5.93,-0.32,-0.32,-0.31
66.01,5.25,5.60,5.25,5.60,-5.60,-5.56,-5.92,-0.35,-0.35,-0.35
66.67,5.25,5.64,5.25,5.63,-5.64,-5.59,-5.90,-0.39,-0.39,-0.39
67.33,5.25,5.67,5.25,5.67,-5.68,-5.62,-5.88,-0.43,-0.43,-0.42
68.01,5.25,5.71,5.25,5.71,-5.72,-5.66,-5.85,-0.47,-0.47,-0.46
68.69,5.25,5.75,5.25,5.75,-5.76,-5.69,-5.82,-0.51,-0.51,-0.50
69.37,5.25,5.79,5.25,5.79,-5.80,-5.72,-5.79,-0.55,-0.55,-0.54
70.07,5.25,5.83,5.25,5.83,-5.83,-5.75,-5.76,-0.58,-0.58,-0.58
70.77,5.25,5.86,5.25,5.87,-5.85,-5.78,-5.72,-0.61,-0.60,-0.62
71.48,5.25,5.91,5.24,5.90,-5.87,-5.81,-5.69,-0.63,-0.63,-0.66
72.19,5.23,5.93,5.21,5.92,-5.89,-5.84,-5.65,-0.66,-0.68,-0.70
72.91,5.16,5.91,5.16,5.91,-5.91,-5.87,-5.61,-0.75,-0.75,-0.76
73.64,5.09,5.89,5.10,5.90,-5.92,-5.90,-5.57,-0.83,-0.82,-0.80
74.38,5.05,5.89,5.06,5.90,-5.94,-5.93,-5.54,-0.89,-0.88,-0.85
75.12,5.05,5.94,5.04,5.93,-5.96,-5.96,-5.50,-0.91,-0.92,-0.89
75.87,5.05,5.98,5.04,5.97,-5.98,-5.99,-5.47,-0.94,-0.94,-0.93
76.63,5.05,6.01,5.05,6.01,-6.01,-6.01,-5.43,-0.96,-0.96,-0.97
77.40,5.05,6.05,5.05,6.05,-6.04,-6.04,-5.40,-0.99,-0.99,-1.00
78.17,5.05,6.09,5.05,6.09,-6.07,-6.07,-5.37,-1.02,-1.01,-1.04
78.95,5.05,6.12,5.05,6.12,-6.09,-6.09,-5.35,-1.05,-1.05,-1.07
79.74,5.05,6.14,5.02,6.12,-6.12,-6.12,-5.32,-1.07,-1.10,-1.10
80.54,4.98,6.10,4.98,6.11,-6.13,-6.14,-5.30,-1.15,-1.15,-1.13
81.35,4.94,6.10,4.98,6.13,-6.14,-6.17,-5.28,-1.20,-1.16,-1.16
82.16,4.97,6.16,4.96,6.15,-6.15,-6.19,-5.27,-1.18,-1.18,-1.19
82.98,5.01,6.22,4.95,6.16,-6.15,-6.21,-5.26,-1.15,-1.21,-1.21
83.81,4.89,6.14,4.92,6.17,-6.16,-6.23,-5.25,-1.28,-1.25,-1.25
84.65,4.86,6.14,4.88,6.16,-6.18,-6.26,-5.25,-1.32,-1.30,-1.28
85.50,4.86,6.16,4.85,6.16,-6.19,-6.28,-5.25,-1.33,-1.34,-1.31
86.35,4.86,6.20,4.86,6.21,-6.19,-6.30,-5.25,-1.34,-1.33,-1.34
87.22,4.86,6.23,4.85,6.22,-6.20,-6.31,-5.26,-1.34,-1.35,-1.37
88.09,4.85,6.25,4.82,6.23,-6.20,-6.33,-5.27,-1.35,-1.38,-1.41
88.97,4.74,6.17,4.78,6.22,-6.21,-6.35,-5.29,-1.47,-1.43,-1.43
89.86,4.77,6.23,4.74,6.20,-6.22,-6.37,-5.31,-1.45,-1.48,-1.47
90.76,4.70,6.20,4.70,6.20,-6.23,-6.38,-5.33,-1.53,-1.53,-1.50
91.66,4.67,6.19,4.69,6.22,-6.24,-6.39,-5.36,-1.57,-1.55,-1.53
92.58,4.68,6.24,4.67,6.24,-6.24,-6.41,-5.39,-1.56,-1.57,-1.56
93.51,4.68,6.27,4.68,6.27,-6.24,-6.42,-5.43,-1.57,-1.57,-1.59
94.44,4.68,6.29,4.65,6.27,-6.25,-6.43,-5.47,-1.57,-1.59,-1.62
95.39,4.62,6.26,4.62,6.27,-6.25,-6.44,-5.51,-1.63,-1.63,-1.64
96.34,4.55,6.23,4.57,6.25,-6.25,-6.45,-5.56,-1.70,-1.67,-1.68
97.30,4.55,6.26,4.52,6.23,-6.24,-6.46,-5.61,-1.70,-1.72,-1.71
98.28,4.49,6.22,4.49,6.22,-6.24,-6.46,-5.66,-1.75,-1.75,-1.74
99.26,4.45,6.20,4.46,6.22,-6.23,-6.47,-5.72,-1.79,-1.78,-1.75
100.25,4.43,6.21,4.43,6.21,-6.23,-6.47,-5.78,-1.80,-1.80,-1.78
101.25,4.41,6.22,4.40,6.21,-6.21,-6.48,-5.84,-1.81,-1.81,-1.81
102.27,4.38,6.22,4.37,6.21,-6.19,-6.48,-5.90,-1.82,-1.83,-1.84
103.29,4.32,6.20,4.33,6.20,-6.17,-6.48,-5.97,-1.85,-1.84,-1.89
104.32,4.27,6.17,4.27,6.18,-6.14,-6.48,-6.03,-1.87,-1.87,-1.90
105.37,4.22,6.16,4.20,6.14,-6.11,-6.48,-6.10,-1.90,-1.92,-1.94
106.42,4.11,6.08,4.10,6.07,-6.10,-6.47,-6.17,-1.99,-2.00,-1.97
107.48,4.00,6.01,4.01,6.02,-6.08,-6.47,-6.23,-2.09,-2.07,-2.01
108.56,3.93,5.98,3.95,5.99,-6.07,-6.46,-6.30,-2.14,-2.12,-2.05
109.64,3.94,6.02,3.93,6.01,-6.05,-6.46,-6.36,-2.11,-2.12,-2.09
110.74,3.95,6.06,3.96,6.08,-6.04,-6.45,-6.43,-2.09,-2.07,-2.11
111.85,3.98,6.12,3.97,6.12,-6.03,-6.44,-6.49,-2.05,-2.06,-2.14
112.97,3.97,6.16,3.90,6.08,-6.03,-6.43,-6.54,-2.06,-2.13,-2.19
114.10,3.79,5.99,3.81,6.02,-6.03,-6.41,-6.60,-2.24,-2.22,-2.21
115.24,3.67,5.91,3.73,5.97,-6.02,-6.40,-6.65,-2.35,-2.29,-2.24
116.39,3.70,5.97,3.69,5.97,-6.01,-6.39,-6.69,-2.31,-2.32,-2.27
117.55,3.72,6.02,3.69,5.99,-6.00,-6.37,-6.73,-2.28,-2.31,-2.30
118.73,3.72,6.04,3.68,6.00,-5.98,-6.35,-6.76,-2.27,-2.30,-2.32
119.92,3.60,5.93,3.65,5.99,-5.97,-6.33,-6.78,-2.38,-2.32,-2.33
121.12,3.62,5.97,3.62,5.97,-5.97,-6.31,-6.81,-2.35,-2.35,-2.36
122.33,3.63,6.00,3.60,5.97,-5.96,-6.29,-6.81,-2.33,-2.36,-2.37
123.55,3.59,5.96,3.60,5.98,-5.95,-6.27,-6.82,-2.36,-2.35,-2.38
124.79,3.57,5.97,3.56,5.95,-5.94,-6.24,-6.81,-2.38,-2.39,-2.40
126.03,3.52,5.93,3.51,5.92,-5.94,-6.22,-6.80,-2.43,-2.44,-2.42
127.29,3.46,5.89,3.48,5.91,-5.95,-6.19,-6.78,-2.50,-2.47,-2.43
128.57,3.46,5.91,3.47,5.92,-5.97,-6.17,-6.75,-2.51,-2.50,-2.45
129.85,3.50,5.96,3.47,5.94,-5.97,-6.14,-6.71,-2.48,-2.50,-2.47
131.15,3.50,5.98,3.51,5.98,-5.97,-6.11,-6.67,-2.47,-2.46,-2.48
132.46,3.52,6.01,3.55,6.04,-5.97,-6.07,-6.62,-2.45,-2.41,-2.49
133.79,3.58,6.07,3.55,6.05,-5.96,-6.04,-6.57,-2.39,-2.42,-2.49
135.12,3.56,6.08,3.48,5.99,-5.96,-6.01,-6.50,-2.40,-2.48,-2.52
136.48,3.34,5.86,3.39,5.92,-5.95,-5.97,-6.43,-2.61,-2.56,-2.52
137.84,3.26,5.80,3.31,5.86,-5.93,-5.94,-6.36,-2.68,-2.63,-2.54
139.22,3.30,5.87,3.28,5.85,-5.91,-5.90,-6.28,-2.62,-2.63,-2.57
140.61,3.33,5.92,3.31,5.89,-5.89,-5.86,-6.20,-2.56,-2.58,-2.59
142.02,3.33,5.92,3.32,5.92,-5.87,-5.83,-6.12,-2.54,-2.55,-2.59
143.44,3.29,5.89,3.29,5.90,-5.86,-5.78,-6.03,-2.57,-2.57,-2.61
144.87,3.25,5.88,3.24,5.87,-5.86,-5.74,-5.94,-2.61,-2.62,-2.63
146.32,3.18,5.84,3.19,5.84,-5.86,-5.70,-5.85,-2.69,-2.68,-2.66
147.78,3.14,5.82,3.15,5.83,-5.87,-5.66,-5.77,-2.73,-2.72,-2.69
149.26,3.12,5.84,3.11,5.83,-5.86,-5.62,-5.68,-2.75,-2.76,-2.72
150.75,3.07,5.84,3.06,5.83,-5.84,-5.57,-5.59,-2.78,-2.78,-2.78
152.26,3.01,5.83,3.00,5.82,-5.81,-5.53,-5.50,-2.81,-2.81,-2.82
153.78,2.92,5.79,2.95,5.82,-5.77,-5.48,-5.41,-2.85,-2.82,-2.87
155.32,2.87,5.80,2.86,5.79,-5.72,-5.44,-5.32,-2.85,-2.86,-2.94
156.88,2.78,5.77,2.72,5.72,-5.66,-5.39,-5.24,-2.88,-2.94,-2.99
158.44,2.54,5.60,2.54,5.60,-5.60,-5.34,-5.16,-3.06,-3.05,-3.06
160.03,2.34,5.46,2.36,5.48,-5.54,-5.30,-5.08,-3.20,-3.18,-3.12
161.63,2.20,5.37,2.24,5.42,-5.49,-5.25,-5.00,-3.29,-3.25,-3.17
163.24,2.19,5.42,2.17,5.39,-5.45,-5.20,-4.92,-3.27,-3.29,-3.23
164.88,2.19,5.45,2.12,5.39,-5.43,-5.15,-4.85,-3.24,-3.31,-3.26
166.53,2.04,5.34,2.11,5.41,-5.42,-5.10,-4.78,-3.38,-3.31,-3.30
168.19,2.10,5.43,2.10,5.43,-5.42,-5.05,-4.72,-3.32,-3.32,-3.33
169.87,2.14,5.50,2.11,5.47,-5.42,-5.00,-4.65,-3.29,-3.31,-3.36
171.57,2.13,5.50,2.12,5.49,-5.43,-4.95,-4.60,-3.30,-3.31,-3.38
173.29,2.09,5.47,2.06,5.45,-5.43,-4.90,-4.54,-3.34,-3.37,-3.38
175.02,1.96,5.35,2.00,5.39,-5.41,-4.84,-4.49,-3.45,-3.41,-3.39
176.77,1.94,5.33,1.95,5.35,-5.38,-4.79,-4.44,-3.44,-3.43,-3.40
178.54,1.94,5.34,1.92,5.31,-5.33,-4.74,-4.39,-3.40,-3.41,-3.40
180.32,1.91,5.29,1.91,5.30,-5.28,-4.69,-4.35,-3.37,-3.37,-3.39
182.13,1.87,5.25,1.86,5.25,-5.22,-4.64,-4.31,-3.35,-3.35,-3.38
183.95,1.81,5.19,1.79,5.17,-5.16,-4.58,-4.27,-3.35,-3.37,-3.39
185.79,1.69,5.08,1.70,5.09,-5.10,-4.53,-4.24,-3.42,-3.40,-3.39
187.65,1.61,5.01,1.62,5.02,-5.05,-4.48,-4.21,-3.44,-3.43,-3.40
189.52,1.54,4.94,1.54,4.95,-4.99,-4.43,-4.19,-3.45,-3.45,-3.41
191.42,1.50,4.92,1.49,4.91,-4.92,-4.37,-4.16,-3.42,-3.43,-3.42
193.33,1.43,4.86,1.44,4.87,-4.85,-4.32,-4.14,-3.43,-3.41,-3.43
195.27,1.38,4.82,1.38,4.82,-4.78,-4.27,-4.12,-3.41,-3.41,-3.44
197.22,1.31,4.77,1.29,4.75,-4.72,-4.22,-4.11,-3.41,-3.44,-3.47
199.19,1.18,4.66,1.18,4.66,-4.66,-4.16,-4.09,-3.48,-3.48,-3.49
201.18,1.05,4.54,1.06,4.57,-4.60,-4.11,-4.08,-3.55,-3.53,-3.50
203.19,0.96,4.47,0.97,4.48,-4.53,-4.06,-4.07,-3.57,-3.56,-3.51
205.23,0.91,4.45,0.89,4.42,-4.45,-4.01,-4.07,-3.54,-3.55,-3.54
207.28,0.83,4.37,0.82,4.37,-4.35,-3.95,-4.06,-3.53,-3.53,-3.54
209.35,0.74,4.30,0.75,4.32,-4.25,-3.90,-4.05,-3.52,-3.51,-3.57
211.44,0.65,4.23,0.64,4.22,-4.16,-3.85,-4.05,-3.51,-3.52,-3.59
213.56,0.53,4.12,0.49,4.08,-4.07,-3.80,-4.05,-3.54,-3.58,-3.60
215.69,0.33,3.93,0.33,3.94,-3.97,-3.75,-4.04,-3.65,-3.64,-3.60
217.85,0.13,3.74,0.20,3.81,-3.88,-3.70,-4.04,-3.75,-3.68,-3.61
220.03,0.13,3.76,0.09,3.72,-3.78,-3.65,-4.04,-3.65,-3.69,-3.63
222.23,0.06,3.70,0.03,3.67,-3.68,-3.60,-4.04,-3.63,-3.65,-3.64
224.45,-0.02,3.60,0.01,3.65,-3.59,-3.55,-4.03,-3.62,-3.58,-3.63
226.70,-0.06,3.56,-0.06,3.56,-3.51,-3.50,-4.03,-3.58,-3.57,-3.62
228.96,-0.07,3.55,-0.16,3.46,-3.44,-3.45,-4.02,-3.51,-3.60,-3.62
231.25,-0.29,3.31,-0.23,3.38,-3.37,-3.40,-4.01,-3.67,-3.60,-3.61
233.57,-0.34,3.25,-0.30,3.30,-3.31,-3.35,-4.00,-3.66,-3.61,-3.59
235.90,-0.28,3.30,-0.36,3.22,-3.26,-3.30,-3.99,-3.54,-3.62,-3.58
238.26,-0.37,3.18,-0.37,3.18,-3.21,-3.25,-3.97,-3.58,-3.58,-3.56
240.64,-0.42,3.11,-0.38,3.15,-3.16,-3.20,-3.95,-3.59,-3.55,-3.53
243.05,-0.38,3.11,-0.37,3.13,-3.13,-3.16,-3.93,-3.51,-3.50,-3.50
245.48,-0.32,3.15,-0.34,3.13,-3.10,-3.11,-3.90,-3.43,-3.44,-3.47
247.93,-0.28,3.16,-0.33,3.12,-3.08,-3.06,-3.87,-3.36,-3.41,-3.45
250.41,-0.37,3.06,-0.34,3.08,-3.06,-3.01,-3.84,-3.43,-3.40,-3.43
252.92,-0.38,3.01,-0.37,3.03,-3.04,-2.97,-3.80,-3.42,-3.41,-3.40
255.45,-0.37,3.00,-0.38,3.00,-3.02,-2.92,-3.76,-3.39,-3.40,-3.37
258.00,-0.36,2.99,-0.36,2.99,-3.01,-2.88,-3.72,-3.37,-3.37,-3.36
260.58,-0.35,2.99,-0.36,2.97,-2.99,-2.83,-3.67,-3.34,-3.36,-3.34
263.19,-0.35,2.96,-0.35,2.97,-2.98,-2.79,-3.62,-3.33,-3.33,-3.32
265.82,-0.35,2.95,-0.32,2.98,-2.97,-2.74,-3.56,-3.33,-3.29,-3.30
268.48,-0.27,3.00,-0.29,2.98,-2.97,-2.70,-3.51,-3.25,-3.26,-3.27
271.16,-0.24,3.00,-0.27,2.98,-2.97,-2.65,-3.45,-3.22,-3.24,-3.25
273.87,-0.27,2.96,-0.26,2.97,-2.97,-2.61,-3.38,-3.24,-3.23,-3.23
276.61,-0.27,2.93,-0.27,2.94,-2.95,-2.57,-3.32,-3.23,-3.22,-3.20
279.38,-0.27,2.90,-0.25,2.93,-2.92,-2.52,-3.25,-3.20,-3.18,-3.18
282.17,-0.24,2.92,-0.25,2.90,-2.88,-2.48,-3.18,-3.12,-3.13,-3.16
284.99,-0.22,2.90,-0.26,2.87,-2.82,-2.44,-3.11,-3.05,-3.08,-3.12
287.84,-0.34,2.75,-0.30,2.80,-2.77,-2.40,-3.04,-3.11,-3.06,-3.10
290.72,-0.32,2.74,-0.37,2.69,-2.70,-2.36,-2.96,-3.03,-3.07,-3.06
293.63,-0.45,2.58,-0.44,2.59,-2.64,-2.32,-2.89,-3.09,-3.08,-3.03
296.57,-0.51,2.48,-0.47,2.53,-2.57,-2.28,-2.81,-3.08,-3.04,-3.00
299.53,-0.49,2.49,-0.50,2.47,-2.49,-2.24,-2.74,-2.99,-3.00,-2.98
302.53,-0.47,2.48,-0.50,2.45,-2.43,-2.20,-2.66,-2.90,-2.93,-2.95
305.55,-0.52,2.39,-0.52,2.40,-2.37,-2.16,-2.58,-2.89,-2.89,-2.91
308.61,-0.56,2.33,-0.57,2.32,-2.32,-2.12,-2.51,-2.88,-2.89,-2.90
311.69,-0.64,2.24,-0.62,2.25,-2.27,-2.08,-2.43,-2.92,-2.89,-2.88
314.81,-0.65,2.19,-0.64,2.21,-2.22,-2.04,-2.36,-2.88,-2.87,-2.84
317.96,-0.64,2.19,-0.66,2.17,-2.17,-2.00,-2.28,-2.82,-2.83,-2.83
321.14,-0.66,2.15,-0.68,2.14,-2.12,-1.97,-2.21,-2.79,-2.80,-2.81
324.35,-0.72,2.08,-0.72,2.08,-2.07,-1.93,-2.13,-2.79,-2.79,-2.81
327.59,-0.78,2.01,-0.77,2.02,-2.02,-1.89,-2.06,-2.80,-2.79,-2.79
330.87,-0.83,1.95,-0.82,1.96,-1.97,-1.85,-1.99,-2.80,-2.79,-2.78
334.18,-0.84,1.93,-0.86,1.91,-1.91,-1.82,-1.92,-2.75,-2.77,-2.77
337.52,-0.91,1.85,-0.91,1.85,-1.84,-1.78,-1.85,-2.76,-2.75,-2.76
340.90,-0.96,1.78,-0.96,1.79,-1.77,-1.74,-1.78,-2.73,-2.73,-2.75
344.30,-1.02,1.71,-1.02,1.72,-1.70,-1.71,-1.71,-2.72,-2.71,-2.74
347.75,-1.08,1.65,-1.07,1.65,-1.63,-1.67,-1.64,-2.71,-2.70,-2.73
351.23,-1.12,1.60,-1.16,1.56,-1.57,-1.64,-1.58,-2.69,-2.73,-2.72
354.74,-1.25,1.47,-1.25,1.47,-1.52,-1.60,-1.51,-2.77,-2.76,-2.72
358.28,-1.35,1.36,-1.30,1.41,-1.46,-1.56,-1.45,-2.82,-2.76,-2.71
361.87,-1.32,1.39,-1.32,1.39,-1.41,-1.53,-1.39,-2.74,-2.74,-2.71
365.49,-1.28,1.42,-1.32,1.39,-1.37,-1.49,-1.33,-2.65,-2.69,-2.71
369.14,-1.32,1.38,-1.33,1.38,-1.33,-1.46,-1.26,-2.65,-2.66,-2.71
372.83,-1.37,1.33,-1.37,1.33,-1.30,-1.42,-1.21,-2.67,-2.67,-2.71
376.56,-1.44,1.27,-1.44,1.27,-1.26,-1.39,-1.15,-2.71,-2.70,-2.71
380.33,-1.48,1.21,-1.49,1.21,-1.23,-1.36,-1.09,-2.71,-2.72,-2.69
384.13,-1.54,1.16,-1.53,1.17,-1.19,-1.32,-1.03,-2.73,-2.72,-2.70
387.97,-1.55,1.15,-1.55,1.15,-1.16,-1.29,-0.98,-2.71,-2.70,-2.70
391.85,-1.55,1.15,-1.58,1.12,-1.12,-1.25,-0.92,-2.68,-2.70,-2.70
395.77,-1.60,1.09,-1.61,1.08,-1.09,-1.22,-0.87,-2.70,-2.71,-2.69
399.73,-1.67,1.02,-1.65,1.05,-1.07,-1.18,-0.82,-2.74,-2.72,-2.69
403.72,-1.67,1.03,-1.66,1.04,-1.04,-1.15,-0.77,-2.72,-2.70,-2.71
407.76,-1.65,1.05,-1.66,1.05,-1.02,-1.11,-0.72,-2.67,-2.67,-2.71
411.84,-1.64,1.05,-1.68,1.03,-0.99,-1.08,-0.67,-2.63,-2.67,-2.70
415.96,-1.72,0.98,-1.73,0.97,-0.96,-1.04,-0.63,-2.68,-2.69,-2.71
420.12,-1.83,0.88,-1.80,0.91,-0.93,-1.01,-0.58,-2.77,-2.73,-2.71
424.32,-1.84,0.86,-1.84,0.87,-0.90,-0.97,-0.54,-2.75,-2.74,-2.70
428.56,-1.83,0.87,-1.84,0.85,-0.87,-0.94,-0.50,-2.71,-2.72,-2.70
432.85,-1.82,0.86,-1.83,0.85,-0.83,-0.91,-0.46,-2.66,-2.66,-2.68
437.18,-1.83,0.83,-1.84,0.82,-0.79,-0.87,-0.42,-2.63,-2.63,-2.66
441.55,-1.84,0.78,-1.85,0.78,-0.76,-0.84,-0.38,-2.60,-2.61,-2.62
445.96,-1.87,0.72,-1.85,0.74,-0.73,-0.80,-0.35,-2.60,-2.58,-2.59
450.42,-1.85,0.71,-1.86,0.70,-0.71,-0.77,-0.32,-2.56,-2.57,-2.56
454.93,-1.82,0.68,-1.86,0.65,-0.69,-0.73,-0.28,-2.51,-2.55,-2.50
459.48,-1.87,0.59,-1.84,0.62,-0.66,-0.70,-0.26,-2.54,-2.51,-2.46
464.07,-1.81,0.59,-1.79,0.61,-0.64,-0.66,-0.23,-2.45,-2.43,-2.40
468.71,-1.73,0.62,-1.71,0.64,-0.61,-0.63,-0.21,-2.34,-2.32,-2.36
473.40,-1.61,0.69,-1.66,0.64,-0.58,-0.60,-0.19,-2.19,-2.24,-2.31
478.13,-1.62,0.63,-1.67,0.59,-0.54,-0.57,-0.17,-2.16,-2.21,-2.26
