frequency,raw,error,smoothed,error_smoothed,equalization,parametric_eq,fixed_band_eq,equalized_raw,equalized_smoothed,target
20.00,-28.69,-27.38,-28.69,-27.38,6.00,5.43,2.68,-22.69,-22.69,-1.31
20.20,-28.51,-27.24,-28.51,-27.23,6.00,5.46,2.75,-22.51,-22.51,-1.27
20.40,-28.33,-27.09,-28.33,-27.08,6.00,5.49,2.83,-22.33,-22.33,-1.24
20.61,-28.15,-26.94,-28.15,-26.94,6.00,5.51,2.91,-22.15,-22.15,-1.21
20.81,-27.97,-26.79,-27.97,-26.79,6.00,5.54,3.00,-21.97,-21.97,-1.18
21.02,-27.80,-26.65,-27.80,-26.65,6.00,5.56,3.08,-21.80,-21.80,-1.15
21.23,-27.65,-26.52,-27.65,-26.51,6.00,5.59,3.17,-21.65,-21.65,-1.13
21.44,-27.50,-26.38,-27.50,-26.38,6.00,5.61,3.26,-21.50,-21.50,-1.12
21.66,-27.35,-26.24,-27.35,-26.24,6.00,5.63,3.36,-21.35,-21.35,-1.11
21.87,-27.20,-26.09,-27.19,-26.09,6.00,5.66,3.45,-21.20,-21.19,-1.10
22.09,-27.02,-25.92,-27.01,-25.92,6.00,5.68,3.55,-21.02,-21.01,-1.09
22.31,-26.81,-25.72,-26.82,-25.73,6.00,5.70,3.65,-20.81,-20.82,-1.08
22.54,-26.61,-25.53,-26.60,-25.52,6.00,5.72,3.76,-20.61,-20.60,-1.08
22.76,-26.40,-25.31,-26.40,-25.31,6.00,5.75,3.86,-20.40,-20.40,-1.08
22.99,-26.19,-25.11,-26.21,-25.13,6.00,5.77,3.97,-20.19,-20.21,-1.09
23.22,-26.06,-24.98,-26.06,-24.98,6.00,5.79,4.08,-20.06,-20.06,-1.08
23.45,-25.93,-24.85,-25.92,-24.85,6.00,5.81,4.20,-19.93,-19.92,-1.08
23.69,-25.80,-24.74,-25.80,-24.73,6.00,5.83,4.31,-19.80,-19.80,-1.07
23.92,-25.67,-24.60,-25.67,-24.61,6.00,5.85,4.43,-19.67,-19.67,-1.07
24.16,-25.54,-24.48,-25.54,-24.48,6.00,5.87,4.55,-19.54,-19.54,-1.06
24.40,-25.42,-24.36,-25.42,-24.36,6.00,5.89,4.68,-19.42,-19.42,-1.06
24.65,-25.29,-24.22,-25.30,-24.23,6.00,5.91,4.80,-19.29,-19.30,-1.07
24.89,-25.16,-24.09,-25.15,-24.08,6.00,5.93,4.93,-19.16,-19.15,-1.07
25.14,-24.98,-23.91,-24.97,-23.89,6.00,5.95,5.06,-18.98,-18.97,-1.07
25.39,-24.75,-23.67,-24.75,-23.67,6.00,5.96,5.19,-18.75,-18.75,-1.08
25.65,-24.53,-23.45,-24.52,-23.44,6.00,5.98,5.32,-18.53,-18.52,-1.08
25.91,-24.30,-23.21,-24.33,-23.24,6.00,6.00,5.45,-18.30,-18.33,-1.09
26.16,-24.20,-23.10,-24.22,-23.12,6.00,6.02,5.58,-18.20,-18.22,-1.10
26.43,-24.17,-23.07,-24.17,-23.06,6.00,6.03,5.71,-18.17,-18.17,-1.10
26.69,-24.14,-23.03,-24.14,-23.03,6.00,6.05,5.84,-18.14,-18.14,-1.11
26.96,-24.11,-23.00,-24.08,-22.96,6.00,6.06,5.96,-18.11,-18.08,-1.11
27.23,-23.96,-22.84,-23.96,-22.84,6.00,6.08,6.09,-17.96,-17.96,-1.12
27.50,-23.79,-22.67,-23.80,-22.67,6.00,6.10,6.21,-17.79,-17.80,-1.12
27.77,-23.62,-22.47,-23.62,-22.48,6.00,6.11,6.33,-17.62,-17.62,-1.15
28.05,-23.46,-22.31,-23.47,-22.32,6.00,6.12,6.44,-17.46,-17.47,-1.15
28.33,-23.33,-22.17,-23.33,-22.17,6.00,6.14,6.56,-17.33,-17.33,-1.16
28.62,-23.20,-22.03,-23.20,-22.03,6.00,6.15,6.66,-17.20,-17.20,-1.17
28.90,-23.06,-21.89,-23.05,-21.88,6.00,6.16,6.76,-17.06,-17.05,-1.17
29.19,-22.89,-21.71,-22.88,-21.71,6.00,6.18,6.85,-16.89,-16.88,-1.18
29.48,-22.70,-21.53,-22.69,-21.52,6.00,6.19,6.93,-16.70,-16.69,-1.17
29.78,-22.51,-21.33,-22.52,-21.33,6.00,6.20,7.01,-16.51,-16.52,-1.18
30.08,-22.35,-21.16,-22.38,-21.19,6.00,6.21,7.08,-16.35,-16.38,-1.19
30.38,-22.30,-21.10,-22.31,-21.11,6.00,6.22,7.14,-16.30,-16.31,-1.20
30.68,-22.26,-21.06,-22.26,-21.05,6.00,6.23,7.18,-16.26,-16.26,-1.20
30.99,-22.21,-20.99,-22.16,-20.94,6.00,6.24,7.22,-16.21,-16.16,-1.22
31.30,-21.97,-20.76,-21.97,-20.76,6.00,6.25,7.25,-15.97,-15.97,-1.22
31.61,-21.73,-20.51,-21.74,-20.52,6.00,6.26,7.27,-15.73,-15.74,-1.22
31.93,-21.48,-20.25,-21.50,-20.27,6.00,6.27,7.28,-15.48,-15.50,-1.23
32.24,-21.31,-20.06,-21.32,-20.08,6.00,6.28,7.28,-15.31,-15.32,-1.25
32.57,-21.17,-19.92,-21.17,-19.92,6.00,6.29,7.27,-15.17,-15.17,-1.25
32.89,-21.04,-19.79,-21.01,-19.76,6.00,6.30,7.26,-15.04,-15.01,-1.24
33.22,-20.83,-19.57,-20.82,-19.56,6.00,6.31,7.23,-14.83,-14.82,-1.26
33.55,-20.59,-19.33,-20.59,-19.34,6.00,6.31,7.20,-14.59,-14.59,-1.26
33.89,-20.36,-19.09,-20.38,-19.11,6.00,6.32,7.16,-14.36,-14.38,-1.27
34.23,-20.19,-18.92,-20.20,-18.92,6.00,6.33,7.11,-14.19,-14.20,-1.27
34.57,-20.06,-18.78,-20.05,-18.77,6.00,6.33,7.06,-14.06,-14.05,-1.28
34.92,-19.93,-18.65,-19.93,-18.65,6.00,6.34,7.01,-13.93,-13.93,-1.28
35.27,-19.82,-18.54,-19.83,-18.54,6.00,6.34,6.95,-13.82,-13.83,-1.29
35.62,-19.71,-18.41,-19.71,-18.42,6.00,6.35,6.89,-13.71,-13.71,-1.30
35.97,-19.61,-18.31,-19.59,-18.29,6.00,6.35,6.82,-13.61,-13.59,-1.30
36.33,-19.45,-18.15,-19.45,-18.14,6.00,6.36,6.76,-13.45,-13.45,-1.30
36.70,-19.28,-17.97,-19.29,-17.97,6.00,6.36,6.69,-13.28,-13.29,-1.31
37.06,-19.12,-17.79,-19.11,-17.79,6.00,6.36,6.62,-13.12,-13.11,-1.33
37.43,-18.95,-17.62,-18.94,-17.61,6.00,6.37,6.56,-12.95,-12.94,-1.33
37.81,-18.78,-17.44,-18.79,-17.45,6.00,6.37,6.49,-12.78,-12.79,-1.34
38.19,-18.65,-17.30,-18.66,-17.31,6.00,6.37,6.43,-12.65,-12.66,-1.35
38.57,-18.56,-17.20,-18.55,-17.19,6.00,6.37,6.36,-12.56,-12.55,-1.36
38.95,-18.47,-17.10,-18.47,-17.10,6.00,6.37,6.30,-12.47,-12.47,-1.37
39.34,-18.37,-16.99,-18.38,-17.00,6.00,6.37,6.25,-12.37,-12.38,-1.38
39.74,-18.27,-16.87,-18.26,-16.87,6.00,6.38,6.19,-12.27,-12.26,-1.40
40.14,-18.11,-16.72,-18.07,-16.67,6.00,6.38,6.14,-12.11,-12.07,-1.39
40.54,-17.85,-16.45,-17.85,-16.45,6.00,6.37,6.09,-11.85,-11.85,-1.40
40.94,-17.59,-16.18,-17.65,-16.24,6.00,6.37,6.05,-11.59,-11.65,-1.41
41.35,-17.49,-16.07,-17.49,-16.07,6.00,6.37,6.01,-11.49,-11.49,-1.42
41.76,-17.41,-15.99,-17.39,-15.97,6.00,6.37,5.97,-11.41,-11.39,-1.42
42.18,-17.32,-15.88,-17.32,-15.88,6.00,6.37,5.94,-11.32,-11.32,-1.44
42.60,-17.20,-15.75,-17.20,-15.76,6.00,6.37,5.91,-11.20,-11.20,-1.45
43.03,-17.08,-15.61,-17.05,-15.58,6.00,6.37,5.88,-11.08,-11.05,-1.47
43.46,-16.88,-15.39,-16.88,-15.38,6.00,6.36,5.86,-10.88,-10.88,-1.49
43.90,-16.69,-15.17,-16.75,-15.23,6.00,6.36,5.85,-10.69,-10.75,-1.52
44.33,-16.64,-15.09,-16.66,-15.11,6.00,6.36,5.84,-10.64,-10.66,-1.55
44.78,-16.64,-15.07,-16.60,-15.02,6.00,6.35,5.83,-10.64,-10.60,-1.57
45.23,-16.52,-14.92,-16.49,-14.89,6.00,6.35,5.83,-10.52,-10.49,-1.60
45.68,-16.29,-14.67,-16.30,-14.68,6.00,6.34,5.83,-10.29,-10.30,-1.62
46.13,-16.04,-14.40,-16.02,-14.38,6.00,6.34,5.84,-10.04,-10.02,-1.64
46.60,-15.78,-14.14,-15.78,-14.13,6.00,6.33,5.85,-9.78,-9.78,-1.65
47.06,-15.56,-13.90,-15.67,-14.01,6.00,6.32,5.86,-9.56,-9.67,-1.66
47.53,-15.62,-13.94,-15.62,-13.95,6.00,6.32,5.88,-9.62,-9.62,-1.68
48.01,-15.68,-14.01,-15.54,-13.86,6.00,6.31,5.90,-9.68,-9.54,-1.67
48.49,-15.42,-13.74,-15.42,-13.74,6.00,6.31,5.93,-9.42,-9.42,-1.68
48.97,-15.15,-13.45,-15.25,-13.55,6.00,6.30,5.96,-9.15,-9.25,-1.70
49.46,-15.09,-13.39,-15.09,-13.39,6.00,6.29,5.99,-9.09,-9.09,-1.70
49.96,-15.04,-13.34,-15.01,-13.31,6.00,6.28,6.03,-9.04,-9.01,-1.70
50.46,-14.92,-13.23,-14.92,-13.23,6.00,6.27,6.07,-8.92,-8.92,-1.69
50.96,-14.78,-13.09,-14.75,-13.06,6.00,6.26,6.11,-8.78,-8.75,-1.69
51.47,-14.53,-12.83,-14.53,-12.84,6.00,6.26,6.15,-8.53,-8.53,-1.70
51.99,-14.27,-12.57,-14.28,-12.58,6.00,6.25,6.20,-8.27,-8.28,-1.70
52.51,-14.08,-12.38,-14.08,-12.37,6.00,6.24,6.25,-8.08,-8.08,-1.70
53.03,-13.90,-12.18,-13.96,-12.23,6.00,6.23,6.29,-7.90,-7.96,-1.72
53.56,-13.90,-12.16,-13.89,-12.15,6.00,6.22,6.34,-7.90,-7.89,-1.74
54.10,-13.88,-12.12,-13.84,-12.07,6.00,6.21,6.39,-7.88,-7.84,-1.76
54.64,-13.76,-11.97,-13.77,-11.98,6.00,6.19,6.44,-7.76,-7.77,-1.79
55.18,-13.64,-11.82,-13.65,-11.83,6.00,6.18,6.48,-7.64,-7.65,-1.82
55.74,-13.51,-11.66,-13.48,-11.63,6.00,6.17,6.53,-7.51,-7.48,-1.85
56.29,-13.31,-11.43,-13.29,-11.41,6.00,6.16,6.57,-7.31,-7.29,-1.87
56.86,-13.06,-11.16,-13.13,-11.22,6.00,6.15,6.61,-7.06,-7.13,-1.91
57.42,-12.99,-11.04,-13.01,-11.07,6.00,6.14,6.65,-6.99,-7.01,-1.95
58.00,-12.99,-11.01,-12.93,-10.95,6.00,6.12,6.68,-6.99,-6.93,-1.98
58.58,-12.86,-10.85,-12.86,-10.85,6.00,6.11,6.71,-6.86,-6.86,-2.01
59.16,-12.72,-10.68,-12.74,-10.70,6.00,6.10,6.73,-6.72,-6.74,-2.04
59.76,-12.59,-10.52,-12.59,-10.52,6.00,6.09,6.75,-6.59,-6.59,-2.07
60.35,-12.46,-10.35,-12.46,-10.35,6.00,6.07,6.76,-6.46,-6.46,-2.11
60.96,-12.32,-10.17,-12.32,-10.17,6.00,6.06,6.76,-6.32,-6.32,-2.15
61.57,-12.18,-9.98,-12.17,-9.98,6.00,6.05,6.76,-6.18,-6.17,-2.20
62.18,-12.04,-9.80,-12.03,-9.79,6.00,6.03,6.75,-6.04,-6.03,-2.24
62.80,-11.89,-9.61,-11.91,-9.64,6.00,6.02,6.73,-5.89,-5.91,-2.27
63.43,-11.81,-9.49,-11.81,-9.50,6.00,6.00,6.71,-5.81,-5.81,-2.32
64.07,-11.74,-9.39,-11.72,-9.37,6.00,5.99,6.68,-5.74,-5.72,-2.35
64.71,-11.62,-9.24,-11.63,-9.24,6.00,5.98,6.65,-5.62,-5.63,-2.39
65.35,-11.51,-9.10,-11.52,-9.10,6.00,5.96,6.60,-5.51,-5.52,-2.41
66.01,-11.40,-8.95,-11.39,-8.94,6.00,5.95,6.56,-5.40,-5.39,-2.45
66.67,-11.25,-8.78,-11.24,-8.76,6.00,5.94,6.50,-5.25,-5.24,-2.47
67.33,-11.09,-8.59,-11.10,-8.60,6.00,5.92,6.44,-5.09,-5.10,-2.50
68.01,-10.94,-8.42,-10.98,-8.46,6.00,5.91,6.38,-4.94,-4.98,-2.52
68.69,-10.92,-8.38,-10.88,-8.34,6.00,5.90,6.31,-4.92,-4.88,-2.54
69.37,-10.83,-8.27,-10.82,-8.25,6.00,5.89,6.24,-4.83,-4.82,-2.56
70.07,-10.71,-8.13,-10.76,-8.18,6.00,5.87,6.16,-4.71,-4.76,-2.58
70.77,-10.71,-8.11,-10.66,-8.07,6.00,5.86,6.09,-4.71,-4.66,-2.60
71.48,-10.60,-7.99,-10.60,-7.99,6.00,5.85,6.01,-4.60,-4.60,-2.61
72.19,-10.48,-7.85,-10.53,-7.89,6.00,5.84,5.92,-4.48,-4.53,-2.63
72.91,-10.48,-7.82,-10.43,-7.77,6.00,5.83,5.84,-4.48,-4.43,-2.66
73.64,-10.34,-7.66,-10.35,-7.67,6.00,5.83,5.76,-4.34,-4.35,-2.68
74.38,-10.26,-7.56,-10.30,-7.60,6.00,5.82,5.68,-4.26,-4.30,-2.70
75.12,-10.25,-7.53,-10.23,-7.50,6.00,5.82,5.59,-4.25,-4.23,-2.72
75.87,-10.20,-7.45,-10.17,-7.42,6.00,5.81,5.51,-4.20,-4.17,-2.75
76.63,-10.09,-7.32,-10.11,-7.34,6.00,5.81,5.43,-4.09,-4.11,-2.77
77.40,-10.03,-7.24,-10.07,-7.28,6.00,5.81,5.35,-4.03,-4.07,-2.79
78.17,-10.03,-7.23,-10.03,-7.23,6.00,5.81,5.28,-4.03,-4.03,-2.80
78.95,-10.03,-7.23,-9.97,-7.16,6.00,5.82,5.20,-4.03,-3.97,-2.80
79.74,-9.86,-7.05,-9.87,-7.06,6.00,5.83,5.13,-3.86,-3.87,-2.81
80.54,-9.72,-6.90,-9.75,-6.93,6.00,5.84,5.06,-3.72,-3.75,-2.82
81.35,-9.63,-6.81,-9.63,-6.81,6.00,5.85,4.99,-3.63,-3.63,-2.82
82.16,-9.55,-6.73,-9.54,-6.71,6.00,5.87,4.93,-3.55,-3.54,-2.82
82.98,-9.47,-6.65,-9.46,-6.64,6.00,5.89,4.87,-3.47,-3.46,-2.82
83.81,-9.36,-6.54,-9.39,-6.58,6.00,5.91,4.81,-3.36,-3.39,-2.82
84.65,-9.34,-6.53,-9.33,-6.52,6.00,5.93,4.76,-3.34,-3.33,-2.81
85.50,-9.28,-6.49,-9.26,-6.46,6.00,5.96,4.71,-3.28,-3.26,-2.79
86.35,-9.18,-6.39,-9.20,-6.42,6.00,5.99,4.66,-3.18,-3.20,-2.79
87.22,-9.11,-6.34,-9.11,-6.33,6.00,6.01,4.61,-3.11,-3.11,-2.77
88.09,-9.05,-6.28,-9.01,-6.25,6.00,6.04,4.57,-3.05,-3.01,-2.77
88.97,-8.90,-6.15,-8.94,-6.19,6.01,6.05,4.54,-2.89,-2.94,-2.75
89.86,-8.89,-6.15,-8.89,-6.15,6.01,6.06,4.50,-2.88,-2.88,-2.74
90.76,-8.89,-6.14,-8.89,-6.15,6.01,6.07,4.47,-2.88,-2.87,-2.75
91.66,-8.89,-6.16,-8.89,-6.16,6.01,6.05,4.44,-2.88,-2.88,-2.73
92.58,-8.89,-6.15,-8.85,-6.12,6.01,6.03,4.42,-2.88,-2.85,-2.74
93.51,-8.79,-6.06,-8.79,-6.06,5.99,5.99,4.40,-2.80,-2.80,-2.73
94.44,-8.68,-5.96,-8.72,-6.00,5.95,5.94,4.38,-2.73,-2.77,-2.72
95.39,-8.66,-5.93,-8.66,-5.93,5.91,5.88,4.37,-2.75,-2.75,-2.73
96.34,-8.63,-5.89,-8.60,-5.86,5.85,5.80,4.36,-2.78,-2.75,-2.74
97.30,-8.52,-5.78,-8.54,-5.80,5.78,5.72,4.35,-2.74,-2.76,-2.74
98.28,-8.43,-5.68,-8.43,-5.69,5.71,5.63,4.34,-2.73,-2.73,-2.75
99.26,-8.37,-5.61,-8.33,-5.58,5.62,5.54,4.34,-2.75,-2.71,-2.76
100.25,-8.21,-5.45,-8.27,-5.51,5.53,5.45,4.34,-2.68,-2.74,-2.76
101.25,-8.21,-5.44,-8.20,-5.43,5.43,5.36,4.34,-2.78,-2.78,-2.77
102.27,-8.18,-5.40,-8.14,-5.35,5.33,5.27,4.34,-2.85,-2.81,-2.78
103.29,-8.06,-5.25,-8.08,-5.28,5.23,5.18,4.35,-2.83,-2.85,-2.81
104.32,-7.98,-5.15,-7.99,-5.16,5.14,5.09,4.35,-2.84,-2.85,-2.83
105.37,-7.92,-5.06,-7.89,-5.03,5.05,5.01,4.36,-2.87,-2.83,-2.86
106.42,-7.79,-4.90,-7.82,-4.92,4.96,4.93,4.37,-2.83,-2.86,-2.89
107.48,-7.75,-4.81,-7.76,-4.83,4.86,4.85,4.38,-2.89,-2.91,-2.94
108.56,-7.75,-4.76,-7.76,-4.77,4.76,4.78,4.38,-2.99,-3.00,-2.99
109.64,-7.75,-4.72,-7.74,-4.71,4.65,4.71,4.39,-3.10,-3.08,-3.03
110.74,-7.74,-4.66,-7.68,-4.60,4.56,4.64,4.40,-3.18,-3.12,-3.08
111.85,-7.55,-4.43,-7.60,-4.48,4.48,4.57,4.41,-3.07,-3.12,-3.12
112.97,-7.52,-4.33,-7.54,-4.36,4.41,4.50,4.41,-3.11,-3.13,-3.19
114.10,-7.52,-4.30,-7.50,-4.27,4.34,4.44,4.42,-3.18,-3.17,-3.22
115.24,-7.52,-4.24,-7.52,-4.24,4.26,4.37,4.42,-3.26,-3.26,-3.28
116.39,-7.52,-4.19,-7.52,-4.19,4.18,4.31,4.42,-3.34,-3.34,-3.33
117.55,-7.52,-4.14,-7.54,-4.17,4.11,4.25,4.42,-3.41,-3.43,-3.38
118.73,-7.52,-4.10,-7.51,-4.09,4.05,4.19,4.41,-3.47,-3.46,-3.42
119.92,-7.51,-4.07,-7.44,-3.99,3.98,4.13,4.40,-3.53,-3.46,-3.44
121.12,-7.29,-3.81,-7.36,-3.89,3.91,4.07,4.39,-3.38,-3.45,-3.48
122.33,-7.29,-3.78,-7.31,-3.81,3.83,4.00,4.38,-3.46,-3.48,-3.51
123.55,-7.29,-3.77,-7.27,-3.74,3.75,3.94,4.36,-3.54,-3.52,-3.52
124.79,-7.29,-3.74,-7.24,-3.69,3.67,3.88,4.34,-3.62,-3.57,-3.55
126.03,-7.14,-3.57,-7.17,-3.60,3.60,3.82,4.31,-3.54,-3.57,-3.57
127.29,-7.09,-3.50,-7.11,-3.51,3.54,3.75,4.28,-3.55,-3.56,-3.59
128.57,-7.07,-3.45,-7.06,-3.45,3.50,3.69,4.25,-3.57,-3.57,-3.62
129.85,-7.07,-3.43,-7.07,-3.42,3.45,3.62,4.21,-3.62,-3.61,-3.64
131.15,-7.07,-3.40,-7.07,-3.40,3.40,3.55,4.17,-3.67,-3.67,-3.67
132.46,-7.07,-3.38,-7.08,-3.40,3.35,3.48,4.12,-3.72,-3.74,-3.69
133.79,-7.07,-3.37,-7.06,-3.36,3.29,3.41,4.07,-3.78,-3.77,-3.70
135.12,-7.06,-3.33,-7.01,-3.28,3.24,3.34,4.02,-3.82,-3.77,-3.73
136.48,-6.90,-3.16,-6.93,-3.18,3.19,3.26,3.97,-3.71,-3.74,-3.74
137.84,-6.84,-3.07,-6.87,-3.09,3.14,3.18,3.91,-3.70,-3.72,-3.77
139.22,-6.84,-3.03,-6.83,-3.02,3.09,3.10,3.85,-3.75,-3.73,-3.81
140.61,-6.84,-3.01,-6.83,-3.01,3.05,3.02,3.79,-3.79,-3.79,-3.83
142.02,-6.84,-3.00,-6.84,-2.99,3.00,2.94,3.73,-3.84,-3.84,-3.84
143.44,-6.84,-2.97,-6.84,-2.98,2.95,2.85,3.67,-3.89,-3.90,-3.87
144.87,-6.84,-2.94,-6.85,-2.95,2.89,2.77,3.60,-3.95,-3.95,-3.90
146.32,-6.84,-2.91,-6.82,-2.90,2.84,2.69,3.54,-4.00,-3.98,-3.93
147.78,-6.79,-2.83,-6.76,-2.80,2.77,2.62,3.47,-4.01,-3.99,-3.96
149.26,-6.67,-2.68,-6.69,-2.69,2.70,2.55,3.41,-3.97,-3.99,-3.99
150.75,-6.61,-2.56,-6.63,-2.58,2.62,2.48,3.34,-3.99,-4.01,-4.05
152.26,-6.61,-2.51,-6.60,-2.50,2.54,2.43,3.28,-4.07,-4.07,-4.10
153.78,-6.61,-2.44,-6.60,-2.44,2.45,2.39,3.21,-4.16,-4.15,-4.17
155.32,-6.61,-2.38,-6.61,-2.38,2.38,2.36,3.15,-4.23,-4.23,-4.23
156.88,-6.61,-2.33,-6.61,-2.32,2.31,2.34,3.09,-4.30,-4.30,-4.28
158.44,-6.61,-2.26,-6.61,-2.26,2.25,2.32,3.02,-4.36,-4.36,-4.35
160.03,-6.61,-2.20,-6.61,-2.21,2.20,2.32,2.96,-4.41,-4.41,-4.41
161.63,-6.61,-2.16,-6.61,-2.16,2.15,2.32,2.90,-4.46,-4.46,-4.45
163.24,-6.61,-2.11,-6.61,-2.12,2.10,2.32,2.85,-4.51,-4.51,-4.50
164.88,-6.61,-2.08,-6.61,-2.08,2.06,2.33,2.79,-4.55,-4.55,-4.53
166.53,-6.61,-2.05,-6.61,-2.05,2.04,2.34,2.74,-4.57,-4.57,-4.56
168.19,-6.61,-2.02,-6.60,-2.01,2.04,2.34,2.68,-4.57,-4.56,-4.59
169.87,-6.61,-2.01,-6.61,-2.01,2.05,2.35,2.63,-4.56,-4.56,-4.60
171.57,-6.61,-2.00,-6.66,-2.05,2.08,2.35,2.58,-4.53,-4.58,-4.61
173.29,-6.75,-2.14,-6.72,-2.11,2.13,2.35,2.54,-4.62,-4.58,-4.61
175.02,-6.84,-2.23,-6.81,-2.20,2.20,2.35,2.49,-4.64,-4.61,-4.61
176.77,-6.84,-2.23,-6.91,-2.30,2.27,2.35,2.45,-4.57,-4.64,-4.61
178.54,-7.02,-2.41,-6.98,-2.37,2.36,2.35,2.41,-4.66,-4.62,-4.61
180.32,-7.07,-2.47,-7.04,-2.43,2.44,2.34,2.37,-4.63,-4.60,-4.60
182.13,-7.07,-2.47,-7.12,-2.52,2.51,2.33,2.33,-4.56,-4.61,-4.60
183.95,-7.16,-2.56,-7.18,-2.58,2.57,2.32,2.29,-4.59,-4.60,-4.60
185.79,-7.28,-2.68,-7.24,-2.64,2.62,2.30,2.26,-4.66,-4.62,-4.60
187.65,-7.29,-2.67,-7.29,-2.67,2.65,2.29,2.22,-4.64,-4.64,-4.62
189.52,-7.29,-2.66,-7.30,-2.67,2.67,2.27,2.19,-4.62,-4.63,-4.63
191.42,-7.29,-2.65,-7.29,-2.65,2.67,2.25,2.16,-4.62,-4.62,-4.64
193.33,-7.29,-2.63,-7.29,-2.64,2.65,2.23,2.14,-4.64,-4.64,-4.66
195.27,-7.29,-2.62,-7.30,-2.63,2.61,2.21,2.11,-4.68,-4.69,-4.67
197.22,-7.29,-2.61,-7.29,-2.60,2.57,2.19,2.08,-4.72,-4.72,-4.68
199.19,-7.28,-2.57,-7.24,-2.54,2.52,2.17,2.06,-4.76,-4.72,-4.71
201.18,-7.16,-2.44,-7.17,-2.45,2.47,2.15,2.04,-4.69,-4.70,-4.72
203.19,-7.07,-2.34,-7.10,-2.37,2.42,2.12,2.02,-4.65,-4.68,-4.73
205.23,-7.07,-2.32,-7.06,-2.32,2.36,2.10,2.00,-4.71,-4.70,-4.75
207.28,-7.07,-2.31,-7.08,-2.31,2.29,2.08,1.98,-4.78,-4.78,-4.76
209.35,-7.07,-2.29,-7.07,-2.28,2.23,2.05,1.96,-4.84,-4.84,-4.78
211.44,-7.07,-2.26,-7.01,-2.21,2.18,2.03,1.94,-4.89,-4.84,-4.81
213.56,-6.91,-2.09,-6.94,-2.13,2.13,2.00,1.93,-4.78,-4.81,-4.82
215.69,-6.84,-2.03,-6.87,-2.05,2.09,1.97,1.91,-4.75,-4.78,-4.81
217.85,-6.84,-2.01,-6.83,-1.99,2.05,1.95,1.89,-4.79,-4.78,-4.83
220.03,-6.84,-1.99,-6.83,-1.98,2.01,1.92,1.88,-4.83,-4.82,-4.85
222.23,-6.84,-1.97,-6.86,-1.99,1.96,1.90,1.86,-4.88,-4.89,-4.87
224.45,-6.84,-1.97,-6.84,-1.97,1.92,1.87,1.85,-4.92,-4.91,-4.87
226.70,-6.84,-1.97,-6.79,-1.92,1.89,1.84,1.83,-4.95,-4.90,-4.87
228.96,-6.68,-1.81,-6.72,-1.85,1.84,1.82,1.82,-4.84,-4.87,-4.87
231.25,-6.63,-1.76,-6.66,-1.79,1.79,1.79,1.80,-4.84,-4.87,-4.87
233.57,-6.61,-1.74,-6.61,-1.74,1.74,1.76,1.79,-4.87,-4.87,-4.87
235.90,-6.61,-1.73,-6.57,-1.69,1.69,1.74,1.77,-4.92,-4.88,-4.88
238.26,-6.50,-1.63,-6.50,-1.63,1.64,1.71,1.75,-4.86,-4.86,-4.87
240.64,-6.40,-1.53,-6.43,-1.57,1.60,1.69,1.73,-4.80,-4.83,-4.87
243.05,-6.38,-1.53,-6.38,-1.53,1.57,1.66,1.71,-4.81,-4.81,-4.85
245.48,-6.38,-1.54,-6.38,-1.53,1.54,1.63,1.69,-4.84,-4.83,-4.84
247.93,-6.38,-1.56,-6.39,-1.56,1.52,1.61,1.67,-4.86,-4.87,-4.82
250.41,-6.38,-1.56,-6.36,-1.55,1.50,1.58,1.65,-4.88,-4.86,-4.82
252.92,-6.34,-1.55,-6.30,-1.51,1.48,1.55,1.63,-4.86,-4.81,-4.79
255.45,-6.18,-1.41,-6.23,-1.45,1.47,1.53,1.61,-4.71,-4.75,-4.77
258.00,-6.15,-1.40,-6.16,-1.41,1.46,1.50,1.58,-4.69,-4.71,-4.75
260.58,-6.15,-1.40,-6.14,-1.40,1.43,1.48,1.55,-4.72,-4.71,-4.75
263.19,-6.15,-1.43,-6.16,-1.43,1.40,1.45,1.53,-4.75,-4.76,-4.72
265.82,-6.15,-1.45,-6.13,-1.43,1.37,1.42,1.50,-4.78,-4.76,-4.70
268.48,-6.10,-1.41,-6.07,-1.39,1.36,1.40,1.47,-4.74,-4.71,-4.69
271.16,-5.97,-1.31,-6.00,-1.34,1.35,1.37,1.44,-4.62,-4.65,-4.66
273.87,-5.93,-1.29,-5.94,-1.30,1.35,1.35,1.41,-4.58,-4.59,-4.64
276.61,-5.93,-1.31,-5.92,-1.30,1.35,1.32,1.38,-4.58,-4.57,-4.62
279.38,-5.93,-1.33,-5.93,-1.33,1.35,1.30,1.35,-4.58,-4.58,-4.60
282.17,-5.93,-1.36,-5.94,-1.36,1.34,1.27,1.32,-4.59,-4.60,-4.57
284.99,-5.93,-1.38,-5.94,-1.39,1.34,1.25,1.28,-4.59,-4.60,-4.55
287.84,-5.93,-1.41,-5.90,-1.38,1.34,1.22,1.25,-4.59,-4.56,-4.52
290.72,-5.85,-1.36,-5.83,-1.34,1.33,1.20,1.22,-4.52,-4.50,-4.49
293.63,-5.72,-1.25,-5.76,-1.29,1.31,1.17,1.18,-4.41,-4.45,-4.47
296.57,-5.70,-1.26,-5.72,-1.28,1.29,1.15,1.15,-4.41,-4.43,-4.44
299.53,-5.70,-1.28,-5.68,-1.26,1.26,1.13,1.12,-4.44,-4.42,-4.42
302.53,-5.69,-1.28,-5.63,-1.23,1.22,1.10,1.08,-4.47,-4.40,-4.41
305.55,-5.50,-1.13,-5.55,-1.17,1.18,1.08,1.05,-4.32,-4.37,-4.37
308.61,-5.47,-1.10,-5.50,-1.14,1.14,1.05,1.02,-4.33,-4.36,-4.37
311.69,-5.47,-1.13,-5.46,-1.12,1.11,1.03,0.98,-4.36,-4.35,-4.34
314.81,-5.47,-1.15,-5.42,-1.09,1.07,1.01,0.95,-4.40,-4.34,-4.32
317.96,-5.33,-1.02,-5.35,-1.03,1.03,0.98,0.92,-4.30,-4.31,-4.31
321.14,-5.24,-0.93,-5.28,-0.96,0.99,0.96,0.89,-4.25,-4.28,-4.31
324.35,-5.24,-0.92,-5.24,-0.93,0.96,0.94,0.86,-4.28,-4.28,-4.32
327.59,-5.24,-0.94,-5.24,-0.94,0.92,0.91,0.82,-4.32,-4.32,-4.30
330.87,-5.24,-0.95,-5.20,-0.91,0.88,0.89,0.79,-4.36,-4.32,-4.29
334.18,-5.14,-0.85,-5.13,-0.85,0.84,0.87,0.76,-4.30,-4.29,-4.29
337.52,-5.02,-0.75,-5.07,-0.80,0.81,0.84,0.73,-4.21,-4.26,-4.27
340.90,-5.01,-0.76,-5.02,-0.76,0.77,0.82,0.70,-4.24,-4.24,-4.25
344.30,-5.01,-0.78,-4.98,-0.74,0.74,0.80,0.68,-4.27,-4.23,-4.23
347.75,-4.95,-0.73,-4.93,-0.71,0.71,0.77,0.65,-4.24,-4.22,-4.22
351.23,-4.83,-0.63,-4.86,-0.66,0.67,0.75,0.62,-4.16,-4.19,-4.20
354.74,-4.79,-0.61,-4.82,-0.64,0.64,0.73,0.59,-4.15,-4.18,-4.18
358.28,-4.79,-0.64,-4.78,-0.63,0.62,0.71,0.56,-4.17,-4.16,-4.15
361.87,-4.79,-0.66,-4.73,-0.60,0.59,0.68,0.54,-4.20,-4.14,-4.13
365.49,-4.62,-0.52,-4.66,-0.55,0.55,0.66,0.51,-4.07,-4.11,-4.10
369.14,-4.57,-0.48,-4.60,-0.51,0.52,0.64,0.49,-4.05,-4.08,-4.09
372.83,-4.56,-0.49,-4.56,-0.48,0.48,0.62,0.46,-4.08,-4.08,-4.07
376.56,-4.56,-0.50,-4.52,-0.47,0.45,0.59,0.44,-4.11,-4.08,-4.06
380.33,-4.47,-0.44,-4.46,-0.43,0.42,0.57,0.41,-4.05,-4.04,-4.03
384.13,-4.36,-0.35,-4.39,-0.38,0.40,0.55,0.39,-3.96,-3.99,-4.01
387.97,-4.33,-0.32,-4.34,-0.33,0.38,0.52,0.36,-3.95,-3.95,-4.01
391.85,-4.33,-0.33,-4.32,-0.33,0.37,0.50,0.34,-3.96,-3.95,-4.00
395.77,-4.33,-0.35,-4.33,-0.34,0.35,0.48,0.32,-3.98,-3.97,-3.98
399.73,-4.33,-0.36,-4.34,-0.37,0.33,0.46,0.29,-4.00,-4.01,-3.97
