frequency,raw,error,smoothed,error_smoothed,equalization,parametric_eq,fixed_band_eq,equalized_raw,equalized_smoothed,target
20.00,-1.96,-4.46,-1.96,-4.46,4.45,4.03,1.34,2.49,2.49,2.50
20.20,-1.92,-4.40,-1.93,-4.41,4.41,4.01,1.38,2.48,2.48,2.48
20.40,-1.89,-4.36,-1.89,-4.36,4.36,3.99,1.42,2.47,2.47,2.47
20.61,-1.85,-4.32,-1.85,-4.31,4.31,3.98,1.47,2.46,2.46,2.47
20.81,-1.81,-4.26,-1.82,-4.26,4.27,3.96,1.51,2.45,2.45,2.45
21.02,-1.78,-4.22,-1.78,-4.22,4.22,3.94,1.56,2.44,2.44,2.44
21.23,-1.74,-4.17,-1.74,-4.17,4.18,3.92,1.61,2.43,2.43,2.43
21.44,-1.70,-4.14,-1.71,-4.14,4.13,3.90,1.66,2.43,2.43,2.43
21.66,-1.67,-4.10,-1.67,-4.09,4.09,3.88,1.71,2.42,2.42,2.42
21.87,-1.63,-4.05,-1.63,-4.05,4.05,3.86,1.76,2.41,2.41,2.41
22.09,-1.59,-4.00,-1.60,-4.00,4.00,3.84,1.82,2.41,2.41,2.40
22.31,-1.56,-3.97,-1.56,-3.96,3.96,3.82,1.87,2.40,2.40,2.40
22.54,-1.52,-3.92,-1.52,-3.92,3.92,3.79,1.93,2.39,2.40,2.39
22.76,-1.48,-3.88,-1.48,-3.88,3.88,3.77,1.99,2.39,2.39,2.40
22.99,-1.44,-3.83,-1.44,-3.83,3.83,3.75,2.05,2.39,2.39,2.39
23.22,-1.40,-3.78,-1.41,-3.79,3.79,3.73,2.11,2.39,2.39,2.38
23.45,-1.37,-3.75,-1.37,-3.75,3.75,3.70,2.17,2.38,2.39,2.38
23.69,-1.33,-3.71,-1.33,-3.71,3.72,3.68,2.24,2.38,2.38,2.38
23.92,-1.29,-3.67,-1.30,-3.68,3.68,3.66,2.30,2.39,2.38,2.38
24.16,-1.26,-3.64,-1.26,-3.64,3.64,3.63,2.37,2.38,2.38,2.38
24.40,-1.22,-3.61,-1.22,-3.61,3.60,3.61,2.43,2.38,2.38,2.39
24.65,-1.18,-3.57,-1.19,-3.57,3.56,3.58,2.50,2.38,2.37,2.39
24.89,-1.15,-3.53,-1.15,-3.53,3.52,3.56,2.57,2.37,2.37,2.38
25.14,-1.11,-3.48,-1.11,-3.48,3.48,3.53,2.64,2.37,2.37,2.37
25.39,-1.07,-3.44,-1.08,-3.44,3.44,3.51,2.71,2.37,2.37,2.36
25.65,-1.04,-3.40,-1.04,-3.40,3.40,3.48,2.78,2.36,2.36,2.35
25.91,-1.00,-3.36,-1.01,-3.36,3.36,3.45,2.85,2.36,2.36,2.35
26.16,-0.97,-3.33,-0.97,-3.33,3.32,3.43,2.91,2.35,2.35,2.36
26.43,-0.93,-3.29,-0.94,-3.29,3.29,3.40,2.98,2.35,2.35,2.35
26.69,-0.90,-3.25,-0.90,-3.25,3.25,3.37,3.05,2.35,2.35,2.35
26.96,-0.87,-3.22,-0.87,-3.21,3.22,3.34,3.11,2.34,2.35,2.35
27.23,-0.83,-3.17,-0.84,-3.18,3.18,3.31,3.18,2.35,2.34,2.34
27.50,-0.80,-3.14,-0.80,-3.14,3.15,3.29,3.24,2.34,2.34,2.34
27.77,-0.77,-3.12,-0.77,-3.11,3.11,3.26,3.30,2.34,2.34,2.35
28.05,-0.73,-3.08,-0.74,-3.08,3.08,3.23,3.35,2.35,2.34,2.34
28.33,-0.70,-3.05,-0.70,-3.05,3.05,3.20,3.40,2.34,2.34,2.34
28.62,-0.67,-3.02,-0.67,-3.01,3.01,3.17,3.45,2.34,2.35,2.34
28.90,-0.63,-2.98,-0.64,-2.98,2.98,3.14,3.49,2.35,2.35,2.35
29.19,-0.60,-2.95,-0.60,-2.95,2.95,3.10,3.53,2.35,2.35,2.35
29.48,-0.57,-2.92,-0.57,-2.92,2.93,3.07,3.57,2.35,2.35,2.35
29.78,-0.54,-2.89,-0.54,-2.90,2.90,3.04,3.59,2.35,2.35,2.35
30.08,-0.51,-2.88,-0.52,-2.87,2.87,3.01,3.62,2.36,2.35,2.36
30.38,-0.49,-2.85,-0.49,-2.84,2.84,2.98,3.63,2.35,2.35,2.35
30.68,-0.46,-2.81,-0.46,-2.82,2.82,2.94,3.64,2.35,2.35,2.35
30.99,-0.43,-2.78,-0.44,-2.79,2.79,2.91,3.65,2.36,2.35,2.35
31.30,-0.41,-2.76,-0.41,-2.76,2.76,2.88,3.65,2.35,2.35,2.35
31.61,-0.39,-2.74,-0.39,-2.74,2.73,2.84,3.64,2.34,2.34,2.35
31.93,-0.37,-2.71,-0.37,-2.71,2.70,2.81,3.62,2.33,2.33,2.33
32.24,-0.34,-2.67,-0.34,-2.67,2.67,2.77,3.60,2.33,2.33,2.33
32.57,-0.31,-2.63,-0.32,-2.64,2.64,2.74,3.57,2.33,2.33,2.32
32.89,-0.29,-2.61,-0.29,-2.61,2.61,2.70,3.54,2.32,2.32,2.32
33.22,-0.26,-2.58,-0.27,-2.58,2.58,2.67,3.50,2.32,2.31,2.31
33.55,-0.24,-2.55,-0.24,-2.55,2.55,2.63,3.46,2.30,2.31,2.31
33.89,-0.21,-2.51,-0.21,-2.51,2.51,2.59,3.41,2.30,2.30,2.30
34.23,-0.18,-2.47,-0.19,-2.48,2.48,2.56,3.35,2.30,2.29,2.29
34.57,-0.16,-2.45,-0.16,-2.45,2.45,2.52,3.29,2.28,2.28,2.28
34.92,-0.14,-2.41,-0.14,-2.42,2.41,2.48,3.23,2.27,2.27,2.27
35.27,-0.11,-2.39,-0.11,-2.38,2.37,2.44,3.17,2.26,2.26,2.28
35.62,-0.08,-2.33,-0.08,-2.34,2.34,2.40,3.10,2.25,2.25,2.25
35.97,-0.05,-2.29,-0.06,-2.30,2.30,2.37,3.03,2.25,2.25,2.24
36.33,-0.03,-2.26,-0.03,-2.26,2.27,2.33,2.95,2.23,2.23,2.23
36.70,-0.01,-2.23,-0.01,-2.23,2.23,2.29,2.88,2.22,2.22,2.21
37.06,0.01,-2.19,0.01,-2.20,2.19,2.25,2.80,2.20,2.20,2.20
37.43,0.03,-2.16,0.03,-2.16,2.16,2.21,2.72,2.18,2.19,2.19
37.81,0.05,-2.13,0.05,-2.12,2.12,2.17,2.64,2.17,2.17,2.17
38.19,0.07,-2.08,0.06,-2.09,2.09,2.13,2.56,2.15,2.15,2.15
38.57,0.08,-2.06,0.08,-2.05,2.05,2.09,2.48,2.13,2.13,2.13
38.95,0.10,-2.01,0.10,-2.01,2.01,2.04,2.40,2.11,2.11,2.11
39.34,0.12,-1.97,0.12,-1.97,1.98,2.00,2.32,2.09,2.09,2.09
39.74,0.14,-1.93,0.13,-1.93,1.94,1.96,2.24,2.08,2.07,2.07
40.14,0.15,-1.90,0.15,-1.90,1.90,1.92,2.16,2.05,2.05,2.05
40.54,0.17,-1.86,0.16,-1.87,1.86,1.88,2.09,2.03,2.03,2.03
40.94,0.18,-1.83,0.18,-1.83,1.83,1.83,2.01,2.00,2.01,2.01
41.35,0.20,-1.79,0.20,-1.79,1.79,1.79,1.93,1.98,1.99,1.99
41.76,0.23,-1.75,0.22,-1.75,1.75,1.75,1.85,1.97,1.97,1.97
42.18,0.25,-1.71,0.25,-1.71,1.71,1.70,1.78,1.95,1.95,1.96
42.60,0.27,-1.66,0.27,-1.66,1.67,1.66,1.70,1.93,1.93,1.93
43.03,0.29,-1.62,0.29,-1.62,1.63,1.61,1.63,1.91,1.91,1.90
43.46,0.31,-1.58,0.31,-1.58,1.58,1.57,1.56,1.89,1.89,1.89
43.90,0.33,-1.53,0.33,-1.54,1.54,1.52,1.49,1.87,1.87,1.86
44.33,0.35,-1.50,0.34,-1.50,1.50,1.48,1.42,1.84,1.84,1.84
44.78,0.36,-1.46,0.36,-1.46,1.45,1.43,1.35,1.81,1.81,1.82
45.23,0.38,-1.42,0.38,-1.41,1.41,1.39,1.28,1.78,1.78,1.80
45.68,0.40,-1.36,0.40,-1.36,1.36,1.34,1.22,1.75,1.76,1.76
46.13,0.43,-1.29,0.42,-1.30,1.30,1.30,1.15,1.73,1.73,1.72
46.60,0.45,-1.25,0.45,-1.25,1.25,1.25,1.09,1.70,1.70,1.69
47.06,0.47,-1.20,0.47,-1.19,1.19,1.20,1.02,1.66,1.66,1.66
47.53,0.49,-1.15,0.49,-1.14,1.14,1.16,0.96,1.62,1.62,1.63
48.01,0.51,-1.08,0.51,-1.08,1.08,1.11,0.90,1.59,1.59,1.58
48.49,0.53,-1.03,0.53,-1.03,1.03,1.06,0.84,1.56,1.56,1.55
48.97,0.55,-0.97,0.54,-0.97,0.98,1.02,0.78,1.53,1.52,1.51
49.46,0.55,-0.94,0.55,-0.93,0.94,0.97,0.73,1.48,1.49,1.48
49.96,0.56,-0.87,0.55,-0.89,0.89,0.92,0.67,1.45,1.45,1.43
50.46,0.56,-0.85,0.56,-0.85,0.85,0.87,0.61,1.41,1.40,1.41
50.96,0.56,-0.82,0.56,-0.81,0.81,0.83,0.56,1.36,1.37,1.38
51.47,0.57,-0.78,0.57,-0.77,0.77,0.78,0.50,1.33,1.34,1.34
51.99,0.59,-0.72,0.58,-0.73,0.72,0.73,0.45,1.31,1.31,1.31
52.51,0.61,-0.67,0.60,-0.68,0.68,0.68,0.40,1.28,1.28,1.28
53.03,0.62,-0.64,0.62,-0.63,0.63,0.63,0.35,1.24,1.25,1.25
53.56,0.64,-0.57,0.63,-0.58,0.57,0.58,0.30,1.21,1.21,1.21
54.10,0.65,-0.53,0.65,-0.52,0.52,0.53,0.25,1.17,1.17,1.17
54.64,0.67,-0.47,0.67,-0.47,0.47,0.48,0.20,1.14,1.14,1.14
55.18,0.69,-0.41,0.68,-0.41,0.42,0.44,0.15,1.11,1.10,1.09
55.74,0.70,-0.36,0.70,-0.36,0.37,0.39,0.11,1.07,1.07,1.06
56.29,0.72,-0.32,0.71,-0.32,0.33,0.34,0.06,1.04,1.04,1.04
56.86,0.73,-0.28,0.73,-0.28,0.28,0.29,0.02,1.01,1.01,1.01
57.42,0.74,-0.24,0.74,-0.24,0.24,0.24,-0.03,0.98,0.98,0.97
58.00,0.75,-0.20,0.75,-0.20,0.20,0.19,-0.07,0.95,0.95,0.94
58.58,0.77,-0.17,0.76,-0.16,0.16,0.14,-0.11,0.93,0.92,0.93
59.16,0.78,-0.13,0.78,-0.12,0.11,0.09,-0.15,0.89,0.89,0.90
59.76,0.80,-0.08,0.80,-0.07,0.06,0.04,-0.19,0.86,0.86,0.87
60.35,0.82,-0.01,0.82,-0.01,0.00,-0.01,-0.23,0.82,0.82,0.83
60.96,0.85,0.06,0.84,0.06,-0.06,-0.06,-0.27,0.79,0.79,0.79
61.57,0.87,0.13,0.87,0.13,-0.12,-0.11,-0.31,0.75,0.75,0.74
62.18,0.89,0.19,0.88,0.19,-0.18,-0.16,-0.35,0.70,0.70,0.69
62.80,0.90,0.25,0.90,0.25,-0.25,-0.21,-0.38,0.65,0.65,0.65
63.43,0.92,0.31,0.92,0.31,-0.31,-0.26,-0.42,0.61,0.61,0.60
64.07,0.94,0.37,0.93,0.37,-0.37,-0.31,-0.45,0.57,0.57,0.57
64.71,0.95,0.42,0.95,0.42,-0.42,-0.36,-0.49,0.52,0.53,0.53
65.35,0.97,0.47,0.97,0.47,-0.47,-0.41,-0.52,0.49,0.49,0.49
66.01,0.98,0.52,0.98,0.52,-0.52,-0.46,-0.56,0.46,0.46,0.46
66.67,0.99,0.56,0.99,0.57,-0.56,-0.51,-0.59,0.42,0.42,0.43
67.33,0.99,0.61,0.99,0.61,-0.60,-0.56,-0.62,0.39,0.39,0.38
68.01,0.99,0.65,0.98,0.65,-0.64,-0.61,-0.65,0.35,0.35,0.34
68.69,0.98,0.68,0.98,0.68,-0.67,-0.66,-0.69,0.31,0.31,0.29
69.37,0.97,0.70,0.97,0.70,-0.70,-0.71,-0.72,0.26,0.26,0.26
70.07,0.96,0.73,0.96,0.73,-0.74,-0.76,-0.75,0.22,0.21,0.23
70.77,0.95,0.76,0.95,0.76,-0.78,-0.80,-0.78,0.17,0.17,0.19
71.48,0.95,0.81,0.95,0.81,-0.82,-0.85,-0.81,0.13,0.13,0.14
72.19,0.96,0.86,0.96,0.86,-0.87,-0.90,-0.84,0.09,0.09,0.10
72.91,0.98,0.92,0.97,0.92,-0.91,-0.95,-0.88,0.06,0.06,0.06
73.64,0.99,0.98,0.99,0.97,-0.97,-1.00,-0.91,0.02,0.02,0.01
74.38,1.01,1.03,1.01,1.03,-1.03,-1.05,-0.94,-0.02,-0.02,-0.03
75.12,1.03,1.08,1.03,1.09,-1.08,-1.10,-0.98,-0.06,-0.06,-0.06
75.87,1.06,1.14,1.05,1.14,-1.14,-1.14,-1.01,-0.08,-0.09,-0.09
76.63,1.08,1.19,1.08,1.20,-1.20,-1.19,-1.05,-0.12,-0.12,-0.12
77.40,1.11,1.25,1.11,1.26,-1.25,-1.24,-1.08,-0.14,-0.14,-0.15
78.17,1.14,1.32,1.13,1.31,-1.31,-1.29,-1.12,-0.17,-0.17,-0.18
78.95,1.16,1.36,1.16,1.36,-1.36,-1.33,-1.15,-0.20,-0.20,-0.20
79.74,1.18,1.40,1.18,1.41,-1.42,-1.38,-1.19,-0.24,-0.23,-0.23
80.54,1.21,1.47,1.21,1.46,-1.47,-1.43,-1.23,-0.26,-0.26,-0.26
81.35,1.24,1.52,1.23,1.52,-1.53,-1.47,-1.27,-0.29,-0.29,-0.29
82.16,1.26,1.57,1.26,1.58,-1.58,-1.52,-1.31,-0.32,-0.32,-0.31
82.98,1.28,1.63,1.28,1.63,-1.63,-1.56,-1.35,-0.35,-0.35,-0.35
83.81,1.30,1.69,1.30,1.68,-1.68,-1.61,-1.40,-0.38,-0.38,-0.39
84.65,1.31,1.73,1.31,1.73,-1.72,-1.65,-1.44,-0.41,-0.41,-0.42
85.50,1.32,1.77,1.32,1.77,-1.76,-1.70,-1.48,-0.45,-0.45,-0.46
86.35,1.32,1.80,1.32,1.81,-1.80,-1.74,-1.53,-0.48,-0.48,-0.49
87.22,1.32,1.84,1.31,1.84,-1.84,-1.79,-1.58,-0.52,-0.52,-0.52
88.09,1.31,1.87,1.31,1.86,-1.87,-1.83,-1.63,-0.56,-0.56,-0.56
88.97,1.30,1.89,1.30,1.90,-1.90,-1.87,-1.68,-0.60,-0.60,-0.59
89.86,1.30,1.93,1.30,1.93,-1.93,-1.91,-1.73,-0.64,-0.64,-0.64
90.76,1.30,1.97,1.30,1.96,-1.96,-1.96,-1.78,-0.67,-0.67,-0.67
91.66,1.30,2.00,1.30,2.00,-2.00,-2.00,-1.84,-0.70,-0.70,-0.70
92.58,1.30,2.03,1.30,2.03,-2.03,-2.04,-1.89,-0.74,-0.74,-0.74
93.51,1.30,2.07,1.30,2.07,-2.07,-2.08,-1.95,-0.78,-0.78,-0.77
94.44,1.30,2.10,1.30,2.11,-2.11,-2.12,-2.00,-0.82,-0.82,-0.81
95.39,1.30,2.15,1.30,2.15,-2.15,-2.16,-2.06,-0.86,-0.86,-0.85
96.34,1.30,2.20,1.30,2.19,-2.19,-2.20,-2.12,-0.90,-0.90,-0.90
97.30,1.30,2.23,1.30,2.23,-2.23,-2.23,-2.18,-0.94,-0.94,-0.94
98.28,1.30,2.27,1.30,2.28,-2.27,-2.27,-2.24,-0.97,-0.97,-0.97
99.26,1.30,2.32,1.30,2.31,-2.31,-2.31,-2.31,-1.01,-1.01,-1.02
100.25,1.30,2.35,1.30,2.35,-2.34,-2.35,-2.37,-1.05,-1.05,-1.06
101.25,1.30,2.37,1.30,2.38,-2.38,-2.38,-2.43,-1.08,-1.08,-1.07
102.27,1.30,2.41,1.30,2.41,-2.41,-2.42,-2.50,-1.11,-1.11,-1.11
103.29,1.30,2.45,1.30,2.44,-2.44,-2.46,-2.56,-1.15,-1.15,-1.15
104.32,1.30,2.47,1.30,2.47,-2.47,-2.49,-2.63,-1.18,-1.18,-1.17
105.37,1.30,2.50,1.30,2.50,-2.50,-2.53,-2.69,-1.21,-1.21,-1.21
106.42,1.30,2.53,1.30,2.53,-2.53,-2.57,-2.76,-1.24,-1.24,-1.23
107.48,1.30,2.57,1.30,2.57,-2.56,-2.60,-2.82,-1.26,-1.26,-1.27
108.56,1.30,2.60,1.30,2.60,-2.59,-2.64,-2.89,-1.29,-1.29,-1.30
109.64,1.30,2.63,1.29,2.63,-2.62,-2.68,-2.95,-1.32,-1.32,-1.34
110.74,1.29,2.65,1.28,2.65,-2.65,-2.72,-3.01,-1.36,-1.36,-1.36
111.85,1.27,2.67,1.27,2.67,-2.68,-2.76,-3.07,-1.41,-1.41,-1.40
112.97,1.27,2.71,1.27,2.70,-2.72,-2.80,-3.13,-1.45,-1.45,-1.44
114.10,1.28,2.74,1.28,2.75,-2.76,-2.84,-3.19,-1.48,-1.48,-1.47
115.24,1.30,2.81,1.29,2.80,-2.81,-2.88,-3.24,-1.51,-1.52,-1.51
116.39,1.31,2.86,1.31,2.86,-2.86,-2.92,-3.29,-1.55,-1.55,-1.56
117.55,1.33,2.91,1.33,2.92,-2.92,-2.96,-3.34,-1.59,-1.59,-1.58
118.73,1.36,2.98,1.36,2.99,-2.98,-3.01,-3.39,-1.62,-1.62,-1.63
119.92,1.41,3.06,1.40,3.05,-3.04,-3.05,-3.43,-1.64,-1.64,-1.65
121.12,1.44,3.11,1.43,3.11,-3.11,-3.09,-3.47,-1.67,-1.68,-1.68
122.33,1.46,3.17,1.46,3.17,-3.17,-3.14,-3.51,-1.72,-1.71,-1.71
123.55,1.49,3.23,1.49,3.23,-3.24,-3.18,-3.54,-1.75,-1.75,-1.74
124.79,1.53,3.29,1.53,3.30,-3.30,-3.23,-3.57,-1.78,-1.78,-1.77
126.03,1.57,3.37,1.56,3.36,-3.37,-3.27,-3.60,-1.80,-1.81,-1.81
127.29,1.59,3.43,1.59,3.43,-3.43,-3.32,-3.63,-1.84,-1.84,-1.84
128.57,1.61,3.48,1.61,3.49,-3.48,-3.36,-3.65,-1.88,-1.87,-1.87
129.85,1.64,3.55,1.63,3.54,-3.53,-3.41,-3.66,-1.90,-1.90,-1.91
131.15,1.65,3.59,1.64,3.59,-3.58,-3.45,-3.68,-1.93,-1.93,-1.95
132.46,1.65,3.63,1.65,3.63,-3.62,-3.49,-3.69,-1.97,-1.97,-1.99
133.79,1.64,3.66,1.64,3.66,-3.65,-3.54,-3.70,-2.02,-2.02,-2.02
135.12,1.63,3.69,1.63,3.68,-3.69,-3.58,-3.71,-2.06,-2.06,-2.06
136.48,1.62,3.69,1.62,3.70,-3.72,-3.62,-3.71,-2.10,-2.10,-2.08
137.84,1.62,3.73,1.62,3.73,-3.74,-3.66,-3.72,-2.13,-2.13,-2.11
139.22,1.62,3.77,1.62,3.76,-3.77,-3.70,-3.72,-2.15,-2.15,-2.16
140.61,1.62,3.80,1.62,3.80,-3.80,-3.74,-3.72,-2.18,-2.18,-2.18
142.02,1.62,3.83,1.62,3.83,-3.82,-3.78,-3.72,-2.20,-2.20,-2.21
143.44,1.62,3.86,1.62,3.85,-3.85,-3.82,-3.72,-2.23,-2.23,-2.24
144.87,1.62,3.87,1.62,3.88,-3.88,-3.86,-3.72,-2.26,-2.26,-2.25
146.32,1.62,3.90,1.62,3.90,-3.90,-3.90,-3.72,-2.28,-2.28,-2.28
147.78,1.62,3.92,1.62,3.92,-3.93,-3.94,-3.72,-2.31,-2.31,-2.30
149.26,1.62,3.95,1.62,3.95,-3.95,-3.97,-3.72,-2.33,-2.33,-2.33
150.75,1.62,3.98,1.62,3.97,-3.97,-4.01,-3.72,-2.35,-2.35,-2.36
152.26,1.62,3.99,1.62,4.00,-3.99,-4.05,-3.72,-2.38,-2.38,-2.38
153.78,1.62,4.02,1.62,4.02,-4.02,-4.08,-3.73,-2.40,-2.40,-2.40
155.32,1.62,4.04,1.62,4.04,-4.04,-4.12,-3.73,-2.43,-2.43,-2.43
156.88,1.62,4.07,1.62,4.07,-4.07,-4.15,-3.74,-2.46,-2.46,-2.45
158.44,1.62,4.10,1.62,4.10,-4.10,-4.18,-3.75,-2.48,-2.48,-2.48
160.03,1.62,4.12,1.62,4.13,-4.13,-4.22,-3.76,-2.51,-2.51,-2.51
161.63,1.62,4.16,1.62,4.16,-4.16,-4.25,-3.78,-2.54,-2.54,-2.54
163.24,1.62,4.20,1.62,4.19,-4.19,-4.28,-3.79,-2.57,-2.57,-2.58
164.88,1.62,4.23,1.62,4.22,-4.22,-4.32,-3.81,-2.61,-2.61,-2.61
166.53,1.62,4.26,1.62,4.26,-4.25,-4.35,-3.83,-2.64,-2.64,-2.64
168.19,1.62,4.28,1.62,4.29,-4.29,-4.38,-3.86,-2.67,-2.67,-2.67
169.87,1.62,4.32,1.62,4.32,-4.32,-4.41,-3.89,-2.70,-2.70,-2.70
171.57,1.62,4.35,1.62,4.35,-4.35,-4.44,-3.92,-2.73,-2.73,-2.73
173.29,1.62,4.38,1.62,4.39,-4.38,-4.47,-3.95,-2.77,-2.77,-2.77
175.02,1.62,4.42,1.62,4.42,-4.42,-4.50,-3.99,-2.80,-2.80,-2.80
176.77,1.62,4.45,1.62,4.45,-4.45,-4.53,-4.03,-2.83,-2.83,-2.84
178.54,1.62,4.48,1.62,4.48,-4.48,-4.56,-4.07,-2.87,-2.87,-2.86
180.32,1.62,4.52,1.62,4.52,-4.52,-4.59,-4.12,-2.90,-2.90,-2.90
182.13,1.62,4.55,1.62,4.55,-4.56,-4.62,-4.17,-2.94,-2.94,-2.94
183.95,1.62,4.59,1.62,4.59,-4.59,-4.65,-4.22,-2.97,-2.97,-2.97
185.79,1.62,4.63,1.62,4.62,-4.62,-4.68,-4.27,-3.01,-3.01,-3.01
187.65,1.62,4.66,1.62,4.66,-4.65,-4.71,-4.33,-3.04,-3.04,-3.04
189.52,1.62,4.70,1.62,4.69,-4.69,-4.74,-4.39,-3.07,-3.07,-3.08
191.42,1.62,4.73,1.61,4.72,-4.72,-4.77,-4.45,-3.10,-3.10,-3.11
193.33,1.61,4.74,1.61,4.75,-4.75,-4.80,-4.52,-3.14,-3.14,-3.14
195.27,1.60,4.77,1.60,4.77,-4.78,-4.83,-4.59,-3.18,-3.18,-3.18
197.22,1.60,4.81,1.60,4.81,-4.81,-4.86,-4.66,-3.21,-3.21,-3.21
199.19,1.61,4.84,1.60,4.84,-4.84,-4.89,-4.73,-3.23,-3.24,-3.23
201.18,1.62,4.88,1.61,4.88,-4.88,-4.92,-4.81,-3.26,-3.26,-3.27
203.19,1.63,4.91,1.63,4.91,-4.92,-4.95,-4.88,-3.29,-3.29,-3.28
205.23,1.65,4.95,1.65,4.95,-4.96,-4.99,-4.96,-3.31,-3.31,-3.31
207.28,1.68,5.00,1.67,5.00,-5.01,-5.02,-5.04,-3.33,-3.33,-3.32
209.35,1.71,5.06,1.71,5.06,-5.06,-5.05,-5.12,-3.35,-3.36,-3.36
211.44,1.74,5.12,1.74,5.11,-5.12,-5.08,-5.20,-3.38,-3.37,-3.38
213.56,1.78,5.17,1.78,5.17,-5.17,-5.11,-5.28,-3.39,-3.39,-3.39
215.69,1.82,5.23,1.81,5.23,-5.23,-5.15,-5.36,-3.41,-3.41,-3.42
217.85,1.85,5.28,1.85,5.28,-5.28,-5.18,-5.44,-3.44,-3.44,-3.44
220.03,1.88,5.34,1.88,5.34,-5.33,-5.21,-5.51,-3.46,-3.46,-3.46
222.23,1.90,5.38,1.90,5.38,-5.38,-5.25,-5.59,-3.48,-3.48,-3.48
224.45,1.93,5.43,1.93,5.42,-5.42,-5.28,-5.66,-3.50,-3.50,-3.50
226.70,1.95,5.46,1.95,5.46,-5.46,-5.31,-5.72,-3.51,-3.51,-3.51
228.96,1.97,5.49,1.96,5.49,-5.48,-5.35,-5.79,-3.51,-3.52,-3.52
231.25,1.97,5.51,1.97,5.51,-5.50,-5.38,-5.85,-3.53,-3.53,-3.54
233.57,1.97,5.52,1.96,5.52,-5.52,-5.41,-5.90,-3.55,-3.55,-3.55
235.90,1.96,5.53,1.96,5.53,-5.53,-5.44,-5.95,-3.57,-3.57,-3.57
238.26,1.95,5.53,1.95,5.52,-5.53,-5.47,-5.99,-3.58,-3.58,-3.58
240.64,1.95,5.52,1.95,5.52,-5.53,-5.50,-6.03,-3.59,-3.59,-3.57
243.05,1.95,5.52,1.95,5.53,-5.54,-5.53,-6.06,-3.59,-3.59,-3.58
245.48,1.95,5.54,1.95,5.54,-5.54,-5.55,-6.09,-3.59,-3.59,-3.60
247.93,1.95,5.55,1.95,5.54,-5.54,-5.57,-6.10,-3.59,-3.59,-3.60
250.41,1.95,5.54,1.95,5.54,-5.54,-5.59,-6.11,-3.59,-3.59,-3.59
252.92,1.95,5.53,1.95,5.54,-5.54,-5.61,-6.11,-3.59,-3.59,-3.59
255.45,1.95,5.54,1.95,5.54,-5.54,-5.62,-6.11,-3.59,-3.59,-3.59
258.00,1.95,5.54,1.95,5.54,-5.54,-5.63,-6.09,-3.60,-3.60,-3.59
260.58,1.95,5.54,1.95,5.54,-5.54,-5.63,-6.07,-3.60,-3.60,-3.60
263.19,1.95,5.54,1.95,5.54,-5.54,-5.63,-6.05,-3.60,-3.60,-3.59
265.82,1.95,5.55,1.95,5.54,-5.54,-5.63,-6.01,-3.60,-3.60,-3.60
268.48,1.95,5.54,1.95,5.54,-5.55,-5.63,-5.98,-3.60,-3.60,-3.60
271.16,1.95,5.55,1.95,5.54,-5.55,-5.62,-5.93,-3.60,-3.60,-3.60
273.87,1.95,5.54,1.95,5.55,-5.55,-5.61,-5.89,-3.60,-3.60,-3.60
276.61,1.95,5.55,1.95,5.55,-5.55,-5.59,-5.83,-3.60,-3.60,-3.60
279.38,1.95,5.56,1.95,5.55,-5.55,-5.58,-5.78,-3.60,-3.60,-3.62
282.17,1.95,5.55,1.95,5.55,-5.55,-5.56,-5.72,-3.60,-3.60,-3.60
284.99,1.95,5.54,1.95,5.55,-5.55,-5.54,-5.66,-3.60,-3.60,-3.60
287.84,1.95,5.54,1.95,5.54,-5.55,-5.52,-5.60,-3.60,-3.60,-3.59
290.72,1.95,5.55,1.95,5.54,-5.55,-5.50,-5.53,-3.60,-3.60,-3.60
293.63,1.95,5.54,1.95,5.54,-5.55,-5.48,-5.47,-3.60,-3.60,-3.60
296.57,1.95,5.53,1.95,5.54,-5.55,-5.46,-5.40,-3.60,-3.59,-3.58
299.53,1.96,5.54,1.96,5.54,-5.54,-5.44,-5.34,-3.59,-3.59,-3.59
302.53,1.97,5.55,1.96,5.54,-5.54,-5.42,-5.27,-3.57,-3.58,-3.58
305.55,1.97,5.54,1.97,5.54,-5.53,-5.41,-5.21,-3.57,-3.57,-3.57
308.61,1.97,5.53,1.96,5.53,-5.52,-5.39,-5.15,-3.56,-3.56,-3.57
311.69,1.95,5.51,1.95,5.51,-5.51,-5.37,-5.09,-3.56,-3.55,-3.56
314.81,1.94,5.49,1.94,5.49,-5.48,-5.35,-5.03,-3.55,-3.55,-3.55
317.96,1.92,5.46,1.91,5.46,-5.46,-5.33,-4.97,-3.54,-3.54,-3.55
321.14,1.89,5.42,1.89,5.43,-5.42,-5.31,-4.92,-3.54,-3.54,-3.54
324.35,1.86,5.40,1.85,5.38,-5.39,-5.29,-4.87,-3.53,-3.53,-3.54
327.59,1.82,5.33,1.82,5.35,-5.35,-5.28,-4.82,-3.53,-3.53,-3.51
330.87,1.79,5.30,1.79,5.30,-5.30,-5.26,-4.77,-3.52,-3.52,-3.52
334.18,1.76,5.28,1.75,5.26,-5.26,-5.24,-4.73,-3.51,-3.51,-3.52
337.52,1.72,5.22,1.72,5.22,-5.22,-5.23,-4.69,-3.50,-3.50,-3.50
340.90,1.69,5.18,1.69,5.18,-5.18,-5.21,-4.65,-3.49,-3.49,-3.49
344.30,1.66,5.14,1.66,5.14,-5.14,-5.20,-4.62,-3.49,-3.49,-3.48
347.75,1.64,5.11,1.63,5.11,-5.11,-5.18,-4.59,-3.48,-3.48,-3.48
351.23,1.62,5.09,1.62,5.08,-5.09,-5.16,-4.57,-3.47,-3.48,-3.47
354.74,1.60,5.05,1.60,5.06,-5.07,-5.15,-4.55,-3.47,-3.47,-3.45
358.28,1.60,5.05,1.60,5.05,-5.06,-5.13,-4.53,-3.46,-3.46,-3.45
361.87,1.60,5.05,1.60,5.05,-5.05,-5.12,-4.51,-3.45,-3.44,-3.45
365.49,1.62,5.05,1.61,5.05,-5.04,-5.10,-4.50,-3.42,-3.43,-3.44
369.14,1.62,5.04,1.62,5.05,-5.04,-5.09,-4.49,-3.42,-3.42,-3.43
372.83,1.62,5.04,1.62,5.04,-5.04,-5.07,-4.49,-3.42,-3.42,-3.42
376.56,1.62,5.04,1.62,5.03,-5.04,-5.06,-4.49,-3.42,-3.42,-3.42
380.33,1.62,5.03,1.62,5.03,-5.04,-5.04,-4.49,-3.42,-3.42,-3.41
384.13,1.63,5.03,1.63,5.03,-5.03,-5.03,-4.49,-3.41,-3.41,-3.40
387.97,1.64,5.03,1.64,5.03,-5.03,-5.01,-4.50,-3.39,-3.39,-3.39
391.85,1.65,5.02,1.64,5.02,-5.02,-4.99,-4.51,-3.37,-3.38,-3.38
395.77,1.64,5.01,1.64,5.01,-5.01,-4.98,-4.52,-3.37,-3.37,-3.38
399.73,1.63,5.00,1.63,4.99,-4.99,-4.96,-4.54,-3.36,-3.36,-3.37
403.72,1.62,4.97,1.62,4.97,-4.97,-4.94,-4.56,-3.35,-3.35,-3.35
407.76,1.60,4.94,1.60,4.94,-4.94,-4.93,-4.58,-3.34,-3.34,-3.34
411.84,1.58,4.91,1.57,4.90,-4.90,-4.91,-4.60,-3.33,-3.33,-3.33
415.96,1.54,4.86,1.54,4.87,-4.87,-4.89,-4.62,-3.33,-3.32,-3.32
420.12,1.51,4.83,1.51,4.83,-4.82,-4.87,-4.64,-3.32,-3.32,-3.32
424.32,1.48,4.79,1.47,4.78,-4.78,-4.86,-4.67,-3.31,-3.31,-3.31
428.56,1.44,4.73,1.44,4.74,-4.74,-4.84,-4.69,-3.30,-3.30,-3.30
432.85,1.41,4.68,1.41,4.69,-4.70,-4.82,-4.72,-3.29,-3.29,-3.28
437.18,1.38,4.66,1.38,4.66,-4.66,-4.80,-4.74,-3.28,-3.28,-3.29
441.55,1.35,4.62,1.35,4.62,-4.62,-4.78,-4.77,-3.27,-3.27,-3.28
445.96,1.32,4.59,1.31,4.59,-4.59,-4.76,-4.79,-3.27,-3.27,-3.27
450.42,1.29,4.55,1.29,4.55,-4.56,-4.74,-4.81,-3.27,-3.27,-3.26
454.93,1.28,4.53,1.28,4.53,-4.54,-4.72,-4.83,-3.26,-3.26,-3.25
459.48,1.28,4.52,1.27,4.51,-4.52,-4.70,-4.85,-3.25,-3.25,-3.24
464.07,1.28,4.50,1.28,4.51,-4.51,-4.68,-4.87,-3.23,-3.23,-3.22
468.71,1.29,4.51,1.29,4.51,-4.50,-4.66,-4.88,-3.22,-3.22,-3.22
473.40,1.30,4.51,1.29,4.50,-4.50,-4.64,-4.89,-3.20,-3.20,-3.21
478.13,1.30,4.50,1.30,4.50,-4.49,-4.61,-4.89,-3.20,-3.20,-3.20
482.91,1.30,4.49,1.30,4.49,-4.49,-4.59,-4.89,-3.19,-3.19,-3.19
487.74,1.30,4.48,1.30,4.48,-4.48,-4.57,-4.89,-3.18,-3.18,-3.18
492.62,1.30,4.47,1.30,4.47,-4.47,-4.54,-4.88,-3.18,-3.18,-3.17
497.55,1.30,4.46,1.30,4.46,-4.46,-4.52,-4.87,-3.16,-3.16,-3.17
