frequency,raw,error,smoothed,error_smoothed,equalization,parametric_eq,fixed_band_eq,equalized_raw,equalized_smoothed,target
20.00,3.30,-1.45,3.29,-1.46,1.50,0.30,-0.10,4.80,4.79,4.75
20.20,3.34,-1.42,3.35,-1.40,1.41,0.29,-0.10,4.75,4.76,4.76
20.40,3.43,-1.34,3.44,-1.33,1.31,0.27,-0.10,4.74,4.74,4.77
20.61,3.54,-1.24,3.54,-1.24,1.21,0.25,-0.10,4.74,4.74,4.78
20.81,3.66,-1.12,3.66,-1.12,1.10,0.24,-0.10,4.76,4.76,4.78
21.02,3.79,-1.00,3.79,-1.00,1.00,0.22,-0.11,4.79,4.79,4.79
21.23,3.92,-0.88,3.91,-0.88,0.89,0.21,-0.11,4.81,4.80,4.80
21.44,4.04,-0.78,4.03,-0.78,0.78,0.19,-0.11,4.82,4.81,4.82
21.66,4.15,-0.67,4.16,-0.66,0.65,0.17,-0.11,4.80,4.81,4.82
21.87,4.28,-0.54,4.29,-0.54,0.53,0.15,-0.11,4.81,4.82,4.82
22.09,4.43,-0.39,4.42,-0.41,0.41,0.14,-0.12,4.84,4.83,4.82
22.31,4.55,-0.28,4.55,-0.28,0.29,0.12,-0.12,4.84,4.84,4.83
22.54,4.67,-0.17,4.67,-0.17,0.18,0.10,-0.12,4.85,4.85,4.83
22.76,4.78,-0.06,4.78,-0.06,0.06,0.09,-0.12,4.84,4.84,4.84
22.99,4.89,0.05,4.89,0.05,-0.05,0.07,-0.13,4.84,4.84,4.84
23.22,5.00,0.16,5.00,0.15,-0.16,0.05,-0.13,4.84,4.84,4.84
23.45,5.11,0.26,5.11,0.26,-0.27,0.03,-0.13,4.84,4.84,4.85
23.69,5.22,0.37,5.22,0.37,-0.38,0.01,-0.13,4.84,4.84,4.85
23.92,5.33,0.48,5.33,0.48,-0.48,-0.00,-0.14,4.85,4.85,4.85
24.16,5.44,0.58,5.45,0.59,-0.60,-0.02,-0.14,4.84,4.85,4.86
24.40,5.57,0.70,5.57,0.71,-0.72,-0.04,-0.14,4.85,4.85,4.87
24.65,5.70,0.83,5.69,0.83,-0.86,-0.06,-0.14,4.83,4.83,4.87
24.89,5.81,0.95,5.81,0.94,-1.00,-0.08,-0.15,4.81,4.81,4.86
25.14,5.91,1.05,5.91,1.05,-1.11,-0.10,-0.15,4.80,4.80,4.86
25.39,6.00,1.14,6.01,1.15,-1.18,-0.12,-0.15,4.82,4.83,4.86
25.65,6.11,1.25,6.14,1.28,-1.21,-0.13,-0.16,4.90,4.93,4.86
25.91,6.19,1.33,6.23,1.37,-1.19,-0.15,-0.16,5.00,5.04,4.86
26.16,6.26,1.39,6.12,1.25,-1.10,-0.17,-0.16,5.16,5.01,4.87
26.43,5.90,1.04,5.88,1.01,-0.94,-0.19,-0.17,4.96,4.94,4.87
26.69,5.29,0.42,5.42,0.55,-0.73,-0.21,-0.17,4.56,4.69,4.87
26.96,5.07,0.21,4.88,0.02,-0.50,-0.23,-0.18,4.57,4.38,4.87
27.23,4.34,-0.53,4.51,-0.36,-0.26,-0.25,-0.18,4.08,4.24,4.86
27.50,4.26,-0.60,4.33,-0.54,-0.04,-0.27,-0.19,4.22,4.29,4.86
27.77,4.36,-0.51,4.28,-0.58,0.13,-0.29,-0.19,4.49,4.42,4.87
28.05,4.44,-0.43,4.43,-0.44,0.24,-0.31,-0.20,4.68,4.67,4.87
28.33,4.53,-0.34,4.53,-0.34,0.30,-0.33,-0.21,4.83,4.82,4.87
28.62,4.61,-0.26,4.60,-0.27,0.30,-0.35,-0.21,4.91,4.90,4.87
28.90,4.67,-0.21,4.68,-0.20,0.26,-0.37,-0.22,4.93,4.94,4.88
29.19,4.74,-0.13,4.75,-0.13,0.18,-0.39,-0.23,4.92,4.93,4.87
29.48,4.84,-0.03,4.83,-0.05,0.08,-0.41,-0.24,4.92,4.91,4.87
29.78,4.90,0.03,4.91,0.03,-0.03,-0.43,-0.25,4.87,4.88,4.87
30.08,5.00,0.12,4.99,0.12,-0.13,-0.45,-0.26,4.87,4.87,4.88
30.38,5.07,0.20,5.08,0.21,-0.21,-0.47,-0.27,4.86,4.87,4.87
30.68,5.18,0.31,5.17,0.30,-0.30,-0.49,-0.28,4.88,4.87,4.86
30.99,5.26,0.40,5.26,0.39,-0.39,-0.51,-0.29,4.87,4.87,4.86
31.30,5.34,0.48,5.34,0.48,-0.47,-0.54,-0.30,4.86,4.86,4.86
31.61,5.42,0.56,5.42,0.56,-0.56,-0.56,-0.31,4.86,4.86,4.86
31.93,5.49,0.64,5.50,0.64,-0.65,-0.58,-0.33,4.84,4.85,4.85
32.24,5.59,0.74,5.58,0.73,-0.74,-0.60,-0.34,4.85,4.84,4.85
32.57,5.65,0.81,5.66,0.82,-0.84,-0.62,-0.35,4.80,4.82,4.84
32.89,5.75,0.91,5.74,0.90,-0.95,-0.64,-0.37,4.80,4.79,4.84
33.22,5.82,0.98,5.82,0.98,-1.05,-0.66,-0.39,4.77,4.77,4.84
33.55,5.88,1.05,5.90,1.06,-1.11,-0.68,-0.40,4.77,4.78,4.83
33.89,5.98,1.15,6.00,1.17,-1.13,-0.70,-0.42,4.85,4.87,4.83
34.23,6.04,1.22,6.05,1.23,-1.09,-0.73,-0.44,4.95,4.96,4.82
34.57,6.10,1.28,6.01,1.20,-0.99,-0.75,-0.46,5.11,5.02,4.81
34.92,5.81,1.01,5.84,1.04,-0.86,-0.77,-0.47,4.95,4.99,4.80
35.27,5.57,0.77,5.55,0.75,-0.70,-0.79,-0.49,4.87,4.85,4.81
35.62,5.22,0.44,5.22,0.43,-0.54,-0.81,-0.51,4.68,4.67,4.78
35.97,4.92,0.14,4.98,0.20,-0.39,-0.83,-0.54,4.53,4.59,4.78
36.33,4.83,0.06,4.84,0.08,-0.27,-0.85,-0.56,4.56,4.58,4.77
36.70,4.85,0.10,4.84,0.08,-0.18,-0.88,-0.58,4.67,4.65,4.75
37.06,4.91,0.17,4.90,0.16,-0.15,-0.90,-0.60,4.76,4.74,4.74
37.43,4.97,0.25,4.96,0.24,-0.18,-0.92,-0.63,4.79,4.78,4.72
37.81,5.02,0.31,5.02,0.31,-0.26,-0.94,-0.65,4.76,4.77,4.71
38.19,5.08,0.38,5.08,0.39,-0.35,-0.96,-0.68,4.73,4.73,4.70
38.57,5.15,0.47,5.15,0.47,-0.45,-0.98,-0.70,4.70,4.70,4.68
38.95,5.21,0.54,5.21,0.55,-0.54,-1.01,-0.73,4.67,4.67,4.67
39.34,5.27,0.63,5.27,0.62,-0.61,-1.03,-0.76,4.66,4.66,4.64
39.74,5.31,0.68,5.32,0.69,-0.68,-1.05,-0.79,4.63,4.64,4.63
40.14,5.37,0.76,5.36,0.75,-0.74,-1.07,-0.82,4.63,4.62,4.61
40.54,5.40,0.80,5.40,0.81,-0.81,-1.09,-0.85,4.59,4.59,4.59
40.94,5.45,0.88,5.44,0.87,-0.89,-1.12,-0.88,4.56,4.56,4.57
41.35,5.48,0.93,5.48,0.93,-0.97,-1.14,-0.91,4.51,4.51,4.55
41.76,5.53,1.00,5.53,1.00,-1.06,-1.16,-0.94,4.46,4.46,4.53
42.18,5.59,1.08,5.59,1.08,-1.15,-1.18,-0.97,4.44,4.44,4.51
42.60,5.65,1.17,5.68,1.19,-1.20,-1.20,-1.01,4.45,4.47,4.48
43.03,5.76,1.30,5.76,1.30,-1.23,-1.23,-1.04,4.53,4.53,4.46
43.46,5.82,1.39,5.79,1.37,-1.22,-1.25,-1.08,4.60,4.57,4.43
43.90,5.77,1.37,5.74,1.34,-1.19,-1.27,-1.11,4.58,4.55,4.40
44.33,5.59,1.21,5.59,1.22,-1.14,-1.29,-1.15,4.45,4.45,4.37
44.78,5.38,1.03,5.39,1.04,-1.08,-1.32,-1.19,4.30,4.30,4.35
45.23,5.21,0.88,5.22,0.90,-1.02,-1.34,-1.23,4.19,4.19,4.33
45.68,5.09,0.80,5.13,0.84,-0.97,-1.36,-1.27,4.12,4.16,4.29
46.13,5.13,0.88,5.11,0.86,-0.94,-1.39,-1.31,4.18,4.17,4.25
46.60,5.16,0.94,5.15,0.93,-0.95,-1.41,-1.35,4.21,4.20,4.22
47.06,5.20,1.01,5.20,1.01,-0.98,-1.43,-1.39,4.22,4.22,4.19
47.53,5.25,1.09,5.25,1.09,-1.05,-1.46,-1.44,4.20,4.20,4.16
48.01,5.28,1.17,5.28,1.16,-1.13,-1.48,-1.48,4.15,4.15,4.11
48.49,5.32,1.24,5.31,1.23,-1.20,-1.50,-1.52,4.12,4.11,4.08
48.97,5.32,1.28,5.33,1.29,-1.27,-1.53,-1.57,4.05,4.06,4.04
49.46,5.36,1.35,5.35,1.35,-1.33,-1.55,-1.61,4.02,4.01,4.01
49.96,5.36,1.40,5.35,1.39,-1.39,-1.58,-1.66,3.97,3.96,3.96
50.46,5.36,1.44,5.36,1.44,-1.45,-1.60,-1.71,3.91,3.91,3.92
50.96,5.37,1.48,5.38,1.49,-1.52,-1.63,-1.75,3.85,3.86,3.89
51.47,5.42,1.56,5.42,1.56,-1.59,-1.65,-1.80,3.83,3.82,3.86
51.99,5.48,1.66,5.47,1.65,-1.68,-1.68,-1.84,3.80,3.80,3.81
52.51,5.53,1.75,5.53,1.75,-1.76,-1.70,-1.89,3.76,3.77,3.78
53.03,5.59,1.83,5.58,1.83,-1.85,-1.73,-1.94,3.74,3.74,3.76
53.56,5.62,1.91,5.63,1.92,-1.91,-1.76,-1.98,3.71,3.72,3.71
54.10,5.67,2.00,5.67,2.00,-1.96,-1.78,-2.03,3.71,3.71,3.67
54.64,5.69,2.06,5.68,2.05,-1.98,-1.81,-2.07,3.71,3.70,3.63
55.18,5.65,2.07,5.64,2.06,-1.98,-1.84,-2.11,3.67,3.66,3.58
55.74,5.56,2.01,5.55,2.00,-1.96,-1.87,-2.15,3.60,3.59,3.55
56.29,5.43,1.91,5.43,1.92,-1.93,-1.90,-2.19,3.50,3.50,3.52
56.86,5.32,1.83,5.33,1.85,-1.90,-1.93,-2.23,3.42,3.43,3.49
57.42,5.26,1.82,5.27,1.82,-1.88,-1.96,-2.27,3.38,3.38,3.44
58.00,5.25,1.84,5.25,1.83,-1.88,-1.99,-2.30,3.37,3.37,3.41
58.58,5.27,1.88,5.26,1.87,-1.90,-2.03,-2.33,3.37,3.37,3.39
59.16,5.29,1.93,5.29,1.93,-1.94,-2.06,-2.36,3.35,3.35,3.36
59.76,5.34,2.01,5.34,2.01,-2.01,-2.09,-2.39,3.33,3.33,3.33
60.35,5.39,2.11,5.39,2.10,-2.10,-2.13,-2.42,3.29,3.28,3.28
60.96,5.44,2.20,5.44,2.20,-2.20,-2.17,-2.44,3.24,3.24,3.24
61.57,5.48,2.29,5.48,2.30,-2.30,-2.20,-2.46,3.18,3.19,3.18
62.18,5.53,2.40,5.53,2.40,-2.39,-2.24,-2.47,3.14,3.14,3.13
62.80,5.57,2.48,5.57,2.48,-2.46,-2.28,-2.49,3.11,3.11,3.09
63.43,5.60,2.56,5.60,2.55,-2.52,-2.32,-2.50,3.08,3.07,3.04
64.07,5.60,2.59,5.60,2.60,-2.57,-2.36,-2.50,3.03,3.03,3.00
64.71,5.60,2.63,5.59,2.63,-2.61,-2.40,-2.51,2.99,2.98,2.97
65.35,5.56,2.63,5.56,2.63,-2.64,-2.44,-2.51,2.92,2.92,2.93
66.01,5.53,2.64,5.53,2.63,-2.66,-2.48,-2.51,2.87,2.86,2.89
66.67,5.49,2.63,5.49,2.63,-2.67,-2.52,-2.51,2.82,2.82,2.86
67.33,5.46,2.65,5.47,2.66,-2.67,-2.56,-2.50,2.79,2.80,2.81
68.01,5.46,2.69,5.46,2.68,-2.66,-2.60,-2.49,2.80,2.80,2.77
68.69,5.45,2.72,5.43,2.70,-2.64,-2.63,-2.48,2.81,2.79,2.73
69.37,5.38,2.68,5.38,2.68,-2.62,-2.67,-2.47,2.75,2.75,2.70
70.07,5.30,2.64,5.28,2.63,-2.61,-2.70,-2.46,2.69,2.67,2.66
70.77,5.17,2.56,5.17,2.56,-2.60,-2.72,-2.45,2.57,2.58,2.61
71.48,5.08,2.51,5.10,2.53,-2.59,-2.75,-2.43,2.49,2.51,2.57
72.19,5.04,2.52,5.06,2.53,-2.59,-2.77,-2.42,2.45,2.47,2.52
72.91,5.08,2.60,5.06,2.58,-2.60,-2.78,-2.40,2.48,2.46,2.48
73.64,5.08,2.65,5.07,2.64,-2.63,-2.79,-2.39,2.45,2.44,2.43
74.38,5.08,2.69,5.08,2.69,-2.67,-2.80,-2.37,2.41,2.41,2.39
75.12,5.08,2.72,5.08,2.73,-2.72,-2.81,-2.36,2.36,2.36,2.35
75.87,5.08,2.75,5.10,2.77,-2.77,-2.81,-2.34,2.31,2.33,2.33
76.63,5.13,2.84,5.12,2.83,-2.81,-2.81,-2.32,2.32,2.31,2.29
77.40,5.13,2.87,5.12,2.87,-2.84,-2.80,-2.31,2.29,2.29,2.25
78.17,5.12,2.91,5.11,2.89,-2.85,-2.80,-2.30,2.27,2.26,2.21
78.95,5.06,2.87,5.07,2.88,-2.87,-2.79,-2.28,2.19,2.20,2.19
79.74,5.03,2.87,5.03,2.87,-2.89,-2.78,-2.27,2.14,2.14,2.16
80.54,4.99,2.87,5.00,2.87,-2.91,-2.77,-2.26,2.08,2.08,2.12
81.35,4.99,2.90,4.99,2.90,-2.95,-2.76,-2.25,2.03,2.04,2.09
82.16,5.00,2.94,5.00,2.94,-3.01,-2.76,-2.25,1.99,1.99,2.06
82.98,5.03,3.00,5.03,3.00,-3.06,-2.75,-2.24,1.97,1.97,2.03
83.81,5.06,3.07,5.07,3.08,-3.11,-2.74,-2.24,1.95,1.96,1.99
84.65,5.10,3.15,5.11,3.16,-3.12,-2.73,-2.23,1.98,1.99,1.95
85.50,5.13,3.22,5.12,3.21,-3.09,-2.73,-2.23,2.04,2.03,1.91
86.35,5.08,3.20,5.07,3.19,-3.03,-2.72,-2.23,2.05,2.04,1.88
87.22,4.94,3.09,4.91,3.06,-2.92,-2.72,-2.23,2.02,1.98,1.85
88.09,4.67,2.86,4.67,2.86,-2.80,-2.71,-2.24,1.87,1.87,1.81
88.97,4.36,2.58,4.39,2.61,-2.67,-2.71,-2.24,1.69,1.72,1.78
89.86,4.16,2.42,4.14,2.40,-2.54,-2.70,-2.25,1.62,1.60,1.74
90.76,3.93,2.22,3.98,2.28,-2.43,-2.70,-2.26,1.50,1.56,1.71
91.66,3.92,2.25,3.92,2.25,-2.34,-2.70,-2.27,1.58,1.58,1.67
92.58,3.92,2.29,3.90,2.27,-2.28,-2.70,-2.28,1.64,1.62,1.63
93.51,3.94,2.34,3.93,2.33,-2.27,-2.70,-2.29,1.67,1.66,1.60
94.44,3.92,2.35,3.92,2.36,-2.29,-2.70,-2.31,1.63,1.64,1.56
95.39,3.91,2.39,3.89,2.37,-2.33,-2.70,-2.33,1.58,1.56,1.52
96.34,3.86,2.38,3.86,2.38,-2.39,-2.70,-2.34,1.47,1.47,1.48
97.30,3.82,2.38,3.84,2.41,-2.46,-2.70,-2.36,1.36,1.39,1.44
98.28,3.86,2.46,3.85,2.46,-2.51,-2.70,-2.39,1.35,1.34,1.39
99.26,3.89,2.54,3.89,2.54,-2.56,-2.70,-2.41,1.33,1.34,1.35
100.25,3.94,2.63,3.95,2.63,-2.59,-2.70,-2.43,1.35,1.36,1.31
101.25,4.00,2.71,3.98,2.70,-2.63,-2.70,-2.46,1.37,1.35,1.29
102.27,3.99,2.74,3.98,2.73,-2.67,-2.70,-2.48,1.32,1.31,1.25
103.29,3.94,2.72,3.93,2.71,-2.71,-2.70,-2.51,1.23,1.23,1.22
104.32,3.86,2.67,3.87,2.69,-2.74,-2.70,-2.54,1.12,1.14,1.19
105.37,3.82,2.67,3.83,2.67,-2.75,-2.70,-2.56,1.07,1.07,1.15
106.42,3.82,2.69,3.83,2.71,-2.75,-2.69,-2.59,1.07,1.07,1.13
107.48,3.83,2.75,3.84,2.76,-2.74,-2.69,-2.62,1.09,1.11,1.08
108.56,3.87,2.82,3.84,2.78,-2.71,-2.69,-2.65,1.16,1.13,1.05
109.64,3.78,2.76,3.77,2.76,-2.67,-2.69,-2.67,1.11,1.11,1.02
110.74,3.67,2.69,3.67,2.68,-2.62,-2.68,-2.70,1.05,1.04,0.98
111.85,3.51,2.56,3.52,2.58,-2.58,-2.68,-2.73,0.93,0.94,0.95
112.97,3.40,2.49,3.39,2.48,-2.54,-2.68,-2.75,0.86,0.85,0.91
114.10,3.28,2.40,3.29,2.42,-2.50,-2.67,-2.78,0.78,0.78,0.88
115.24,3.22,2.39,3.24,2.40,-2.48,-2.66,-2.80,0.74,0.76,0.83
116.39,3.22,2.43,3.22,2.43,-2.47,-2.66,-2.82,0.75,0.74,0.79
117.55,3.25,2.50,3.24,2.49,-2.49,-2.65,-2.84,0.76,0.76,0.75
118.73,3.26,2.55,3.27,2.55,-2.51,-2.64,-2.86,0.75,0.75,0.71
119.92,3.29,2.61,3.27,2.59,-2.54,-2.64,-2.88,0.75,0.73,0.67
121.12,3.26,2.61,3.26,2.61,-2.57,-2.63,-2.89,0.69,0.69,0.65
122.33,3.22,2.61,3.23,2.61,-2.59,-2.62,-2.90,0.63,0.64,0.61
123.55,3.19,2.61,3.18,2.60,-2.60,-2.61,-2.91,0.59,0.58,0.58
124.79,3.14,2.59,3.14,2.60,-2.60,-2.60,-2.92,0.53,0.54,0.55
126.03,3.10,2.59,3.10,2.60,-2.61,-2.59,-2.93,0.49,0.49,0.51
127.29,3.08,2.61,3.06,2.59,-2.63,-2.58,-2.93,0.45,0.43,0.47
128.57,3.03,2.60,3.04,2.62,-2.66,-2.57,-2.93,0.37,0.39,0.43
129.85,3.03,2.64,3.05,2.66,-2.70,-2.56,-2.93,0.33,0.35,0.39
131.15,3.08,2.73,3.07,2.72,-2.74,-2.55,-2.92,0.33,0.32,0.35
132.46,3.11,2.80,3.10,2.79,-2.79,-2.55,-2.92,0.32,0.31,0.31
133.79,3.12,2.84,3.13,2.85,-2.82,-2.54,-2.91,0.30,0.31,0.28
135.12,3.12,2.88,3.13,2.88,-2.83,-2.54,-2.90,0.29,0.30,0.24
136.48,3.11,2.89,3.10,2.89,-2.81,-2.53,-2.89,0.29,0.28,0.22
137.84,3.04,2.86,3.02,2.84,-2.78,-2.53,-2.88,0.26,0.24,0.18
139.22,2.91,2.77,2.91,2.76,-2.73,-2.53,-2.87,0.18,0.17,0.14
140.61,2.75,2.63,2.77,2.65,-2.68,-2.53,-2.85,0.07,0.09,0.11
142.02,2.65,2.57,2.64,2.56,-2.62,-2.53,-2.84,0.03,0.02,0.08
143.44,2.54,2.49,2.56,2.50,-2.58,-2.53,-2.82,-0.04,-0.02,0.05
144.87,2.52,2.49,2.52,2.49,-2.55,-2.54,-2.81,-0.03,-0.03,0.03
146.32,2.52,2.52,2.51,2.51,-2.53,-2.55,-2.79,-0.01,-0.02,0.00
147.78,2.52,2.55,2.52,2.55,-2.53,-2.56,-2.78,-0.01,-0.01,-0.03
149.26,2.52,2.57,2.52,2.58,-2.54,-2.57,-2.77,-0.02,-0.01,-0.06
150.75,2.52,2.61,2.52,2.60,-2.55,-2.59,-2.75,-0.03,-0.04,-0.09
152.26,2.50,2.61,2.48,2.60,-2.57,-2.60,-2.74,-0.07,-0.09,-0.11
153.78,2.44,2.58,2.44,2.58,-2.59,-2.62,-2.73,-0.15,-0.15,-0.14
155.32,2.38,2.55,2.40,2.57,-2.60,-2.64,-2.72,-0.22,-0.20,-0.17
156.88,2.38,2.58,2.38,2.58,-2.61,-2.66,-2.71,-0.23,-0.23,-0.20
158.44,2.38,2.62,2.37,2.61,-2.61,-2.68,-2.70,-0.24,-0.24,-0.24
160.03,2.38,2.65,2.36,2.63,-2.62,-2.70,-2.69,-0.24,-0.26,-0.27
161.63,2.33,2.63,2.35,2.65,-2.63,-2.73,-2.69,-0.31,-0.29,-0.30
163.24,2.33,2.67,2.33,2.66,-2.65,-2.75,-2.68,-0.32,-0.32,-0.34
164.88,2.31,2.68,2.30,2.68,-2.67,-2.77,-2.68,-0.36,-0.36,-0.37
166.53,2.29,2.70,2.29,2.69,-2.69,-2.80,-2.68,-0.40,-0.40,-0.41
168.19,2.26,2.70,2.26,2.70,-2.71,-2.82,-2.69,-0.45,-0.45,-0.44
169.87,2.24,2.71,2.24,2.72,-2.74,-2.84,-2.69,-0.50,-0.50,-0.48
171.57,2.24,2.75,2.24,2.75,-2.77,-2.87,-2.70,-0.54,-0.54,-0.51
173.29,2.24,2.79,2.25,2.80,-2.81,-2.89,-2.71,-0.57,-0.56,-0.55
175.02,2.28,2.86,2.27,2.85,-2.85,-2.91,-2.72,-0.57,-0.58,-0.58
176.77,2.29,2.91,2.29,2.91,-2.89,-2.93,-2.73,-0.60,-0.60,-0.62
178.54,2.29,2.94,2.29,2.95,-2.92,-2.96,-2.75,-0.63,-0.63,-0.65
180.32,2.29,2.98,2.28,2.97,-2.95,-2.98,-2.76,-0.67,-0.68,-0.70
182.13,2.24,2.97,2.26,2.99,-2.98,-3.00,-2.78,-0.74,-0.72,-0.73
183.95,2.24,3.00,2.24,3.00,-3.00,-3.01,-2.80,-0.76,-0.76,-0.76
185.79,2.22,3.02,2.21,3.01,-3.02,-3.03,-2.83,-0.80,-0.81,-0.80
187.65,2.19,3.02,2.19,3.02,-3.03,-3.05,-2.85,-0.84,-0.84,-0.83
189.52,2.15,3.02,2.16,3.03,-3.03,-3.07,-2.88,-0.89,-0.87,-0.87
191.42,2.15,3.05,2.14,3.05,-3.04,-3.08,-2.91,-0.90,-0.90,-0.90
193.33,2.12,3.06,2.12,3.06,-3.06,-3.10,-2.94,-0.94,-0.94,-0.94
195.27,2.10,3.08,2.09,3.07,-3.07,-3.11,-2.97,-0.97,-0.98,-0.98
197.22,2.06,3.08,2.07,3.08,-3.09,-3.12,-3.00,-1.03,-1.02,-1.02
199.19,2.05,3.09,2.05,3.10,-3.11,-3.14,-3.04,-1.06,-1.06,-1.04
201.18,2.05,3.13,2.05,3.12,-3.13,-3.15,-3.07,-1.08,-1.09,-1.08
203.19,2.05,3.16,2.05,3.15,-3.16,-3.16,-3.11,-1.11,-1.11,-1.11
205.23,2.05,3.18,2.05,3.18,-3.18,-3.17,-3.15,-1.14,-1.14,-1.13
207.28,2.05,3.21,2.05,3.21,-3.21,-3.18,-3.19,-1.16,-1.16,-1.16
209.35,2.05,3.24,2.05,3.24,-3.23,-3.19,-3.23,-1.18,-1.18,-1.19
211.44,2.05,3.27,2.05,3.26,-3.25,-3.20,-3.27,-1.20,-1.20,-1.22
213.56,2.05,3.29,2.04,3.28,-3.26,-3.21,-3.31,-1.22,-1.23,-1.24
215.69,2.01,3.27,2.02,3.28,-3.27,-3.22,-3.34,-1.27,-1.26,-1.26
217.85,2.00,3.28,1.99,3.28,-3.28,-3.22,-3.38,-1.28,-1.29,-1.29
220.03,1.96,3.28,1.96,3.28,-3.29,-3.23,-3.42,-1.33,-1.32,-1.32
222.23,1.94,3.28,1.94,3.28,-3.29,-3.24,-3.45,-1.35,-1.35,-1.34
224.45,1.91,3.27,1.91,3.28,-3.29,-3.24,-3.49,-1.38,-1.38,-1.36
226.70,1.90,3.28,1.91,3.29,-3.29,-3.25,-3.52,-1.39,-1.38,-1.38
228.96,1.91,3.30,1.91,3.30,-3.29,-3.25,-3.55,-1.38,-1.38,-1.39
231.25,1.91,3.32,1.89,3.31,-3.29,-3.26,-3.58,-1.38,-1.40,-1.41
233.57,1.88,3.31,1.87,3.31,-3.29,-3.26,-3.60,-1.41,-1.42,-1.43
235.90,1.82,3.27,1.84,3.29,-3.30,-3.27,-3.62,-1.48,-1.46,-1.45
238.26,1.82,3.29,1.82,3.29,-3.30,-3.27,-3.64,-1.49,-1.49,-1.47
240.64,1.82,3.29,1.81,3.29,-3.31,-3.27,-3.65,-1.49,-1.50,-1.47
243.05,1.82,3.31,1.82,3.31,-3.32,-3.28,-3.67,-1.50,-1.50,-1.49
245.48,1.82,3.33,1.82,3.33,-3.32,-3.28,-3.67,-1.50,-1.50,-1.51
247.93,1.82,3.35,1.82,3.34,-3.33,-3.28,-3.67,-1.51,-1.51,-1.53
250.41,1.82,3.34,1.82,3.35,-3.34,-3.28,-3.67,-1.52,-1.51,-1.53
252.92,1.82,3.35,1.82,3.35,-3.34,-3.28,-3.67,-1.52,-1.53,-1.53
255.45,1.82,3.37,1.80,3.35,-3.35,-3.28,-3.65,-1.53,-1.55,-1.55
258.00,1.77,3.33,1.79,3.34,-3.35,-3.28,-3.64,-1.58,-1.56,-1.56
260.58,1.77,3.33,1.77,3.34,-3.35,-3.28,-3.62,-1.58,-1.58,-1.56
263.19,1.77,3.34,1.76,3.33,-3.35,-3.28,-3.60,-1.58,-1.58,-1.57
265.82,1.77,3.35,1.77,3.35,-3.34,-3.28,-3.57,-1.58,-1.57,-1.58
268.48,1.77,3.35,1.77,3.35,-3.34,-3.28,-3.55,-1.57,-1.57,-1.58
271.16,1.77,3.36,1.76,3.35,-3.33,-3.28,-3.51,-1.56,-1.58,-1.59
273.87,1.73,3.32,1.74,3.33,-3.33,-3.28,-3.48,-1.60,-1.59,-1.59
276.61,1.72,3.32,1.71,3.32,-3.33,-3.27,-3.44,-1.61,-1.61,-1.60
279.38,1.69,3.30,1.69,3.30,-3.32,-3.27,-3.40,-1.63,-1.63,-1.62
282.17,1.68,3.29,1.68,3.29,-3.31,-3.27,-3.36,-1.63,-1.62,-1.61
284.99,1.68,3.28,1.68,3.29,-3.29,-3.26,-3.31,-1.61,-1.61,-1.61
287.84,1.68,3.28,1.68,3.29,-3.27,-3.26,-3.27,-1.59,-1.59,-1.60
290.72,1.68,3.29,1.66,3.27,-3.24,-3.25,-3.22,-1.56,-1.58,-1.61
293.63,1.63,3.24,1.63,3.24,-3.22,-3.25,-3.18,-1.59,-1.59,-1.61
296.57,1.58,3.18,1.59,3.19,-3.20,-3.24,-3.13,-1.62,-1.61,-1.60
299.53,1.54,3.15,1.55,3.15,-3.18,-3.23,-3.08,-1.64,-1.63,-1.61
302.53,1.53,3.13,1.52,3.13,-3.16,-3.22,-3.04,-1.63,-1.63,-1.60
305.55,1.52,3.12,1.52,3.12,-3.14,-3.22,-2.99,-1.62,-1.62,-1.60
308.61,1.52,3.12,1.53,3.13,-3.13,-3.21,-2.94,-1.61,-1.60,-1.60
311.69,1.54,3.14,1.53,3.13,-3.12,-3.20,-2.90,-1.58,-1.59,-1.60
314.81,1.54,3.13,1.54,3.14,-3.12,-3.18,-2.85,-1.58,-1.58,-1.60
317.96,1.54,3.14,1.55,3.14,-3.13,-3.17,-2.81,-1.59,-1.58,-1.60
321.14,1.54,3.13,1.53,3.13,-3.13,-3.16,-2.77,-1.59,-1.59,-1.59
324.35,1.54,3.13,1.52,3.11,-3.13,-3.15,-2.73,-1.59,-1.60,-1.60
327.59,1.49,3.07,1.52,3.10,-3.12,-3.13,-2.69,-1.63,-1.60,-1.58
330.87,1.52,3.10,1.52,3.10,-3.10,-3.12,-2.65,-1.58,-1.58,-1.58
334.18,1.54,3.12,1.52,3.10,-3.08,-3.10,-2.62,-1.54,-1.56,-1.58
337.52,1.52,3.10,1.51,3.09,-3.06,-3.08,-2.58,-1.54,-1.55,-1.58
340.90,1.47,3.04,1.47,3.04,-3.04,-3.07,-2.55,-1.57,-1.57,-1.57
344.30,1.41,2.97,1.43,2.99,-3.01,-3.05,-2.52,-1.60,-1.59,-1.56
347.75,1.40,2.95,1.41,2.96,-2.98,-3.03,-2.49,-1.58,-1.58,-1.55
351.23,1.40,2.95,1.39,2.94,-2.95,-3.01,-2.46,-1.55,-1.56,-1.56
354.74,1.40,2.94,1.39,2.93,-2.91,-2.99,-2.44,-1.51,-1.52,-1.54
358.28,1.35,2.89,1.37,2.90,-2.88,-2.97,-2.42,-1.53,-1.51,-1.54
361.87,1.35,2.88,1.33,2.86,-2.85,-2.94,-2.39,-1.50,-1.52,-1.53
365.49,1.29,2.81,1.29,2.82,-2.83,-2.92,-2.38,-1.54,-1.54,-1.52
369.14,1.26,2.78,1.27,2.79,-2.82,-2.90,-2.36,-1.56,-1.55,-1.52
372.83,1.26,2.77,1.26,2.77,-2.81,-2.87,-2.34,-1.55,-1.55,-1.51
376.56,1.27,2.78,1.28,2.78,-2.80,-2.85,-2.33,-1.53,-1.52,-1.51
380.33,1.31,2.81,1.30,2.80,-2.78,-2.82,-2.32,-1.48,-1.49,-1.50
384.13,1.31,2.80,1.31,2.80,-2.77,-2.80,-2.31,-1.46,-1.46,-1.49
387.97,1.31,2.79,1.30,2.79,-2.75,-2.77,-2.30,-1.44,-1.45,-1.48
391.85,1.28,2.76,1.27,2.75,-2.73,-2.74,-2.29,-1.45,-1.46,-1.48
395.77,1.23,2.71,1.24,2.71,-2.71,-2.71,-2.28,-1.48,-1.46,-1.48
399.73,1.20,2.67,1.20,2.66,-2.68,-2.69,-2.28,-1.48,-1.48,-1.47
403.72,1.17,2.62,1.16,2.62,-2.64,-2.66,-2.27,-1.47,-1.48,-1.45
407.76,1.12,2.57,1.13,2.58,-2.61,-2.63,-2.27,-1.49,-1.48,-1.45
411.84,1.12,2.56,1.12,2.56,-2.58,-2.60,-2.27,-1.46,-1.46,-1.44
415.96,1.12,2.55,1.12,2.56,-2.55,-2.57,-2.27,-1.43,-1.43,-1.43
420.12,1.12,2.55,1.12,2.55,-2.53,-2.54,-2.27,-1.41,-1.41,-1.44
424.32,1.12,2.55,1.11,2.53,-2.51,-2.51,-2.27,-1.39,-1.40,-1.43
428.56,1.07,2.48,1.08,2.50,-2.49,-2.48,-2.27,-1.42,-1.40,-1.41
432.85,1.07,2.47,1.06,2.46,-2.47,-2.45,-2.27,-1.40,-1.41,-1.40
437.18,1.03,2.43,1.04,2.43,-2.45,-2.42,-2.27,-1.42,-1.41,-1.40
441.55,1.03,2.42,1.03,2.42,-2.42,-2.39,-2.27,-1.40,-1.40,-1.39
445.96,1.02,2.40,1.01,2.40,-2.40,-2.36,-2.27,-1.38,-1.39,-1.38
450.42,1.00,2.37,1.01,2.38,-2.38,-2.33,-2.27,-1.38,-1.37,-1.37
454.93,1.00,2.36,0.99,2.36,-2.35,-2.30,-2.27,-1.35,-1.36,-1.36
459.48,0.98,2.33,0.99,2.34,-2.33,-2.27,-2.27,-1.35,-1.34,-1.35
464.07,0.98,2.31,0.98,2.31,-2.30,-2.24,-2.27,-1.32,-1.33,-1.33
468.71,0.96,2.28,0.95,2.28,-2.27,-2.21,-2.26,-1.31,-1.32,-1.33
473.40,0.93,2.25,0.93,2.25,-2.24,-2.18,-2.26,-1.32,-1.31,-1.32
478.13,0.89,2.20,0.90,2.21,-2.21,-2.15,-2.25,-1.33,-1.32,-1.31
482.91,0.89,2.19,0.87,2.17,-2.18,-2.12,-2.24,-1.29,-1.31,-1.30
487.74,0.84,2.13,0.85,2.14,-2.15,-2.09,-2.23,-1.31,-1.30,-1.29
492.62,0.84,2.12,0.84,2.12,-2.12,-2.06,-2.22,-1.28,-1.28,-1.28
497.55,0.84,2.11,0.83,2.09,-2.09,-2.02,-2.20,-1.25,-1.26,-1.27
502.52,0.81,2.07,0.81,2.07,-2.05,-1.99,-2.19,-1.24,-1.25,-1.26
507.55,0.78,2.02,0.78,2.03,-2.02,-1.96,-2.17,-1.24,-1.24,-1.24
512.62,0.75,1.98,0.76,1.99,-1.99,-1.93,-2.15,-1.24,-1.24,-1.23
