frequency,raw,error,smoothed,error_smoothed,equalization,parametric_eq,fixed_band_eq,equalized_raw,equalized_smoothed,target
20.00,-3.35,-5.37,-3.35,-5.37,5.38,5.13,1.63,2.02,2.02,2.02
20.20,-3.28,-5.31,-3.28,-5.31,5.31,5.12,1.68,2.03,2.03,2.03
20.40,-3.22,-5.26,-3.22,-5.25,5.25,5.10,1.73,2.03,2.03,2.04
20.61,-3.15,-5.19,-3.15,-5.19,5.19,5.07,1.78,2.04,2.04,2.04
20.81,-3.08,-5.13,-3.08,-5.13,5.13,5.05,1.83,2.05,2.05,2.05
21.02,-3.01,-5.06,-3.02,-5.07,5.07,5.03,1.89,2.06,2.05,2.05
21.23,-2.96,-5.02,-2.96,-5.01,5.01,5.00,1.94,2.05,2.06,2.06
21.44,-2.90,-4.96,-2.90,-4.96,4.96,4.97,2.00,2.06,2.06,2.06
21.66,-2.84,-4.90,-2.84,-4.90,4.90,4.94,2.06,2.06,2.06,2.06
21.87,-2.78,-4.84,-2.78,-4.85,4.85,4.91,2.12,2.07,2.07,2.06
22.09,-2.73,-4.80,-2.73,-4.80,4.80,4.88,2.18,2.06,2.06,2.07
22.31,-2.68,-4.75,-2.68,-4.75,4.74,4.85,2.25,2.06,2.06,2.07
22.54,-2.64,-4.70,-2.64,-4.70,4.69,4.81,2.31,2.05,2.06,2.06
22.76,-2.59,-4.64,-2.59,-4.64,4.64,4.78,2.38,2.05,2.05,2.05
22.99,-2.54,-4.59,-2.55,-4.59,4.59,4.74,2.45,2.05,2.05,2.05
23.22,-2.50,-4.55,-2.50,-4.54,4.54,4.70,2.52,2.04,2.04,2.05
23.45,-2.45,-4.49,-2.45,-4.49,4.50,4.66,2.59,2.04,2.04,2.04
23.69,-2.41,-4.45,-2.41,-4.45,4.45,4.62,2.66,2.04,2.04,2.04
23.92,-2.36,-4.40,-2.36,-4.40,4.40,4.58,2.74,2.04,2.04,2.03
24.16,-2.32,-4.36,-2.32,-4.35,4.35,4.54,2.81,2.03,2.03,2.03
24.40,-2.27,-4.31,-2.27,-4.31,4.31,4.50,2.89,2.03,2.03,2.03
24.65,-2.23,-4.27,-2.23,-4.26,4.26,4.46,2.96,2.02,2.03,2.03
24.89,-2.18,-4.21,-2.18,-4.21,4.20,4.41,3.04,2.02,2.02,2.03
25.14,-2.13,-4.16,-2.13,-4.16,4.16,4.37,3.12,2.02,2.02,2.03
25.39,-2.08,-4.10,-2.08,-4.11,4.11,4.32,3.20,2.03,2.03,2.02
25.65,-2.03,-4.05,-2.03,-4.05,4.07,4.28,3.28,2.03,2.04,2.02
25.91,-1.98,-4.00,-1.98,-4.00,4.02,4.24,3.36,2.04,2.04,2.02
26.16,-1.94,-3.96,-1.95,-3.97,3.98,4.19,3.44,2.04,2.03,2.02
26.43,-1.92,-3.94,-1.92,-3.94,3.94,4.15,3.51,2.02,2.02,2.02
26.69,-1.90,-3.92,-1.90,-3.92,3.90,4.10,3.59,2.00,2.00,2.02
26.96,-1.87,-3.89,-1.87,-3.89,3.86,4.06,3.67,1.99,1.99,2.02
27.23,-1.82,-3.84,-1.82,-3.84,3.83,4.01,3.74,2.00,2.00,2.02
27.50,-1.77,-3.79,-1.77,-3.79,3.79,3.97,3.81,2.02,2.02,2.02
27.77,-1.71,-3.73,-1.72,-3.73,3.75,3.92,3.88,2.04,2.03,2.02
28.05,-1.67,-3.69,-1.67,-3.69,3.71,3.88,3.94,2.04,2.04,2.02
28.33,-1.64,-3.66,-1.64,-3.66,3.67,3.83,4.01,2.03,2.03,2.01
28.62,-1.61,-3.63,-1.62,-3.63,3.62,3.79,4.06,2.01,2.01,2.01
28.90,-1.59,-3.62,-1.58,-3.60,3.58,3.74,4.12,1.99,2.00,2.02
29.19,-1.54,-3.56,-1.54,-3.56,3.54,3.70,4.16,2.00,2.00,2.02
29.48,-1.48,-3.50,-1.48,-3.51,3.50,3.66,4.21,2.02,2.02,2.02
29.78,-1.42,-3.45,-1.43,-3.45,3.46,3.61,4.25,2.04,2.04,2.03
30.08,-1.37,-3.40,-1.38,-3.41,3.43,3.57,4.28,2.05,2.04,2.03
30.38,-1.35,-3.38,-1.35,-3.38,3.39,3.53,4.30,2.04,2.04,2.03
30.68,-1.32,-3.35,-1.32,-3.35,3.35,3.49,4.32,2.03,2.03,2.03
30.99,-1.29,-3.32,-1.29,-3.32,3.32,3.45,4.34,2.02,2.02,2.03
31.30,-1.26,-3.29,-1.26,-3.29,3.28,3.41,4.34,2.02,2.02,2.02
31.61,-1.23,-3.26,-1.24,-3.26,3.25,3.37,4.34,2.02,2.02,2.02
31.93,-1.21,-3.23,-1.21,-3.23,3.22,3.33,4.34,2.01,2.01,2.02
32.24,-1.17,-3.18,-1.17,-3.19,3.19,3.29,4.33,2.01,2.01,2.01
32.57,-1.14,-3.15,-1.14,-3.15,3.15,3.26,4.31,2.01,2.01,2.01
32.89,-1.10,-3.11,-1.10,-3.11,3.11,3.22,4.28,2.01,2.01,2.01
33.22,-1.07,-3.07,-1.07,-3.07,3.07,3.18,4.25,2.00,2.00,2.00
33.55,-1.04,-3.04,-1.04,-3.03,3.03,3.15,4.22,1.99,1.99,1.99
33.89,-1.01,-3.00,-1.01,-3.00,3.00,3.11,4.18,1.98,1.98,1.98
34.23,-0.98,-2.96,-0.98,-2.96,2.96,3.08,4.13,1.98,1.99,1.98
34.57,-0.94,-2.92,-0.94,-2.92,2.94,3.05,4.09,2.00,1.99,1.98
34.92,-0.91,-2.89,-0.92,-2.90,2.91,3.02,4.03,2.00,2.00,1.98
35.27,-0.90,-2.88,-0.91,-2.88,2.89,2.99,3.98,1.99,1.98,1.98
35.62,-0.90,-2.88,-0.90,-2.88,2.87,2.96,3.92,1.97,1.97,1.97
35.97,-0.90,-2.87,-0.89,-2.87,2.84,2.93,3.86,1.94,1.95,1.97
36.33,-0.87,-2.84,-0.87,-2.84,2.82,2.90,3.80,1.95,1.95,1.97
36.70,-0.84,-2.81,-0.84,-2.81,2.80,2.88,3.74,1.96,1.96,1.97
37.06,-0.80,-2.77,-0.80,-2.77,2.78,2.85,3.67,1.97,1.97,1.96
37.43,-0.77,-2.73,-0.77,-2.74,2.75,2.83,3.61,1.98,1.98,1.96
37.81,-0.74,-2.71,-0.74,-2.71,2.73,2.80,3.54,1.98,1.98,1.97
38.19,-0.72,-2.69,-0.73,-2.69,2.70,2.78,3.48,1.98,1.97,1.97
38.57,-0.71,-2.68,-0.72,-2.68,2.67,2.76,3.41,1.96,1.96,1.96
38.95,-0.71,-2.68,-0.70,-2.67,2.65,2.74,3.35,1.94,1.95,1.97
39.34,-0.68,-2.65,-0.68,-2.64,2.63,2.72,3.29,1.95,1.96,1.97
39.74,-0.64,-2.61,-0.65,-2.61,2.62,2.71,3.22,1.98,1.97,1.97
40.14,-0.61,-2.58,-0.62,-2.58,2.61,2.69,3.16,1.99,1.98,1.96
40.54,-0.61,-2.57,-0.61,-2.57,2.59,2.67,3.10,1.98,1.98,1.96
40.94,-0.61,-2.57,-0.61,-2.57,2.57,2.66,3.04,1.96,1.96,1.96
41.35,-0.61,-2.56,-0.61,-2.56,2.55,2.65,2.99,1.94,1.94,1.95
41.76,-0.61,-2.55,-0.61,-2.55,2.53,2.63,2.93,1.92,1.92,1.94
42.18,-0.59,-2.53,-0.59,-2.53,2.50,2.62,2.88,1.91,1.91,1.93
42.60,-0.56,-2.49,-0.56,-2.49,2.47,2.61,2.83,1.91,1.91,1.93
43.03,-0.52,-2.45,-0.52,-2.44,2.44,2.60,2.78,1.92,1.92,1.93
43.46,-0.47,-2.39,-0.47,-2.39,2.41,2.60,2.73,1.93,1.93,1.92
43.90,-0.43,-2.34,-0.44,-2.35,2.37,2.59,2.69,1.94,1.93,1.91
44.33,-0.42,-2.32,-0.42,-2.33,2.35,2.58,2.64,1.92,1.92,1.90
44.78,-0.42,-2.32,-0.42,-2.31,2.33,2.58,2.60,1.90,1.91,1.90
45.23,-0.42,-2.31,-0.42,-2.31,2.31,2.57,2.56,1.89,1.89,1.89
45.68,-0.42,-2.31,-0.42,-2.31,2.31,2.57,2.52,1.88,1.88,1.89
46.13,-0.42,-2.31,-0.42,-2.31,2.31,2.56,2.49,1.89,1.89,1.89
46.60,-0.42,-2.31,-0.42,-2.31,2.31,2.56,2.46,1.89,1.89,1.89
47.06,-0.42,-2.31,-0.42,-2.31,2.32,2.56,2.42,1.89,1.89,1.89
47.53,-0.42,-2.32,-0.42,-2.32,2.32,2.55,2.40,1.89,1.89,1.89
48.01,-0.42,-2.32,-0.43,-2.32,2.31,2.55,2.37,1.89,1.88,1.90
48.49,-0.42,-2.32,-0.42,-2.32,2.30,2.54,2.34,1.88,1.88,1.90
48.97,-0.42,-2.33,-0.40,-2.31,2.29,2.54,2.32,1.87,1.89,1.90
49.46,-0.37,-2.28,-0.37,-2.28,2.28,2.54,2.30,1.91,1.91,1.91
49.96,-0.32,-2.24,-0.34,-2.26,2.28,2.53,2.27,1.95,1.93,1.92
50.46,-0.32,-2.24,-0.32,-2.24,2.27,2.52,2.25,1.94,1.95,1.92
50.96,-0.32,-2.26,-0.32,-2.25,2.26,2.52,2.24,1.94,1.94,1.93
51.47,-0.32,-2.26,-0.32,-2.26,2.25,2.51,2.22,1.93,1.93,1.94
51.99,-0.32,-2.26,-0.32,-2.26,2.25,2.50,2.20,1.93,1.93,1.94
52.51,-0.32,-2.26,-0.32,-2.26,2.26,2.49,2.19,1.93,1.93,1.94
53.03,-0.32,-2.26,-0.32,-2.26,2.26,2.47,2.17,1.94,1.94,1.94
53.56,-0.32,-2.26,-0.32,-2.27,2.27,2.46,2.16,1.94,1.94,1.94
54.10,-0.32,-2.27,-0.32,-2.27,2.27,2.44,2.15,1.95,1.95,1.95
54.64,-0.32,-2.27,-0.32,-2.27,2.27,2.43,2.14,1.95,1.95,1.95
55.18,-0.32,-2.27,-0.32,-2.27,2.27,2.41,2.12,1.95,1.95,1.95
55.74,-0.32,-2.26,-0.32,-2.27,2.27,2.38,2.11,1.94,1.94,1.94
56.29,-0.32,-2.26,-0.32,-2.26,2.26,2.36,2.10,1.94,1.94,1.94
56.86,-0.32,-2.26,-0.32,-2.25,2.26,2.33,2.09,1.93,1.93,1.94
57.42,-0.32,-2.25,-0.32,-2.25,2.25,2.31,2.08,1.92,1.92,1.92
58.00,-0.32,-2.23,-0.32,-2.24,2.24,2.28,2.06,1.91,1.91,1.91
58.58,-0.32,-2.22,-0.32,-2.22,2.22,2.24,2.05,1.90,1.90,1.90
59.16,-0.32,-2.21,-0.32,-2.21,2.21,2.21,2.04,1.89,1.89,1.89
59.76,-0.32,-2.19,-0.32,-2.19,2.19,2.18,2.02,1.87,1.87,1.87
60.35,-0.32,-2.17,-0.32,-2.17,2.17,2.14,2.01,1.85,1.85,1.85
60.96,-0.32,-2.15,-0.32,-2.15,2.14,2.11,1.99,1.82,1.82,1.82
61.57,-0.32,-2.12,-0.32,-2.12,2.11,2.07,1.97,1.79,1.79,1.80
62.18,-0.32,-2.09,-0.32,-2.09,2.08,2.03,1.95,1.76,1.76,1.76
62.80,-0.32,-2.05,-0.32,-2.05,2.05,1.99,1.93,1.72,1.72,1.73
63.43,-0.32,-2.00,-0.32,-2.01,2.01,1.95,1.91,1.68,1.68,1.68
64.07,-0.32,-1.97,-0.32,-1.96,1.97,1.91,1.89,1.64,1.64,1.64
64.71,-0.32,-1.92,-0.32,-1.92,1.92,1.87,1.86,1.60,1.60,1.60
65.35,-0.32,-1.88,-0.32,-1.88,1.88,1.83,1.84,1.56,1.56,1.56
66.01,-0.32,-1.84,-0.32,-1.84,1.84,1.79,1.81,1.52,1.52,1.52
66.67,-0.32,-1.80,-0.32,-1.81,1.81,1.75,1.78,1.48,1.48,1.48
67.33,-0.32,-1.77,-0.32,-1.77,1.77,1.71,1.76,1.45,1.45,1.45
68.01,-0.32,-1.73,-0.32,-1.74,1.74,1.68,1.73,1.41,1.41,1.41
68.69,-0.32,-1.70,-0.32,-1.70,1.70,1.64,1.70,1.38,1.38,1.38
69.37,-0.32,-1.67,-0.32,-1.67,1.67,1.60,1.67,1.35,1.35,1.35
70.07,-0.32,-1.64,-0.32,-1.64,1.64,1.56,1.63,1.32,1.32,1.32
70.77,-0.32,-1.61,-0.32,-1.61,1.61,1.53,1.60,1.29,1.29,1.28
71.48,-0.32,-1.58,-0.32,-1.58,1.58,1.49,1.57,1.26,1.26,1.26
72.19,-0.32,-1.55,-0.32,-1.55,1.55,1.45,1.54,1.23,1.23,1.23
72.91,-0.32,-1.52,-0.32,-1.52,1.52,1.42,1.50,1.19,1.19,1.19
73.64,-0.32,-1.48,-0.32,-1.48,1.48,1.39,1.47,1.16,1.16,1.16
74.38,-0.32,-1.45,-0.32,-1.45,1.44,1.35,1.44,1.12,1.12,1.12
75.12,-0.32,-1.41,-0.32,-1.41,1.40,1.32,1.40,1.08,1.08,1.09
75.87,-0.32,-1.36,-0.32,-1.37,1.36,1.29,1.37,1.04,1.04,1.04
76.63,-0.32,-1.33,-0.32,-1.32,1.32,1.26,1.34,1.00,1.00,1.00
77.40,-0.32,-1.28,-0.32,-1.28,1.28,1.23,1.30,0.96,0.96,0.96
78.17,-0.32,-1.24,-0.32,-1.23,1.24,1.20,1.27,0.92,0.93,0.92
78.95,-0.32,-1.19,-0.32,-1.19,1.21,1.17,1.24,0.89,0.89,0.87
79.74,-0.32,-1.15,-0.34,-1.17,1.18,1.15,1.21,0.86,0.84,0.83
80.54,-0.37,-1.15,-0.38,-1.16,1.15,1.12,1.17,0.78,0.78,0.78
81.35,-0.42,-1.16,-0.40,-1.14,1.13,1.10,1.14,0.71,0.73,0.74
82.16,-0.43,-1.13,-0.42,-1.12,1.12,1.07,1.11,0.68,0.70,0.70
82.98,-0.40,-1.06,-0.44,-1.09,1.10,1.05,1.08,0.70,0.66,0.66
83.81,-0.46,-1.08,-0.46,-1.08,1.08,1.03,1.05,0.62,0.62,0.61
84.65,-0.50,-1.08,-0.49,-1.07,1.06,1.00,1.03,0.56,0.57,0.58
85.50,-0.52,-1.06,-0.52,-1.06,1.03,0.98,1.00,0.51,0.52,0.54
86.35,-0.52,-1.02,-0.53,-1.02,1.00,0.96,0.97,0.48,0.48,0.49
87.22,-0.52,-0.97,-0.52,-0.97,0.97,0.94,0.94,0.45,0.44,0.45
88.09,-0.52,-0.93,-0.52,-0.93,0.93,0.92,0.92,0.41,0.41,0.40
88.97,-0.51,-0.88,-0.52,-0.88,0.88,0.90,0.89,0.37,0.37,0.37
89.86,-0.51,-0.84,-0.51,-0.83,0.84,0.88,0.87,0.32,0.32,0.32
90.76,-0.51,-0.79,-0.51,-0.79,0.79,0.87,0.84,0.28,0.28,0.28
91.66,-0.51,-0.75,-0.51,-0.75,0.75,0.85,0.82,0.23,0.23,0.24
92.58,-0.51,-0.72,-0.51,-0.71,0.71,0.83,0.80,0.20,0.20,0.20
93.51,-0.51,-0.67,-0.51,-0.67,0.69,0.82,0.77,0.17,0.18,0.16
94.44,-0.51,-0.63,-0.53,-0.65,0.67,0.80,0.75,0.16,0.14,0.12
95.39,-0.55,-0.63,-0.56,-0.64,0.66,0.79,0.73,0.11,0.10,0.08
96.34,-0.62,-0.66,-0.60,-0.64,0.65,0.77,0.71,0.03,0.05,0.04
97.30,-0.64,-0.65,-0.66,-0.66,0.64,0.76,0.69,0.00,-0.01,0.00
98.28,-0.70,-0.66,-0.70,-0.66,0.64,0.74,0.67,-0.06,-0.06,-0.04
99.26,-0.74,-0.66,-0.73,-0.65,0.63,0.73,0.65,-0.11,-0.10,-0.08
100.25,-0.75,-0.63,-0.76,-0.63,0.61,0.72,0.63,-0.14,-0.14,-0.12
101.25,-0.77,-0.61,-0.77,-0.61,0.60,0.71,0.62,-0.18,-0.18,-0.16
102.27,-0.78,-0.57,-0.78,-0.57,0.58,0.70,0.60,-0.21,-0.21,-0.21
103.29,-0.80,-0.54,-0.80,-0.54,0.55,0.69,0.58,-0.25,-0.25,-0.26
104.32,-0.82,-0.51,-0.82,-0.51,0.53,0.67,0.57,-0.29,-0.28,-0.31
105.37,-0.84,-0.49,-0.85,-0.49,0.52,0.66,0.55,-0.33,-0.33,-0.35
106.42,-0.88,-0.48,-0.90,-0.50,0.50,0.65,0.54,-0.38,-0.40,-0.40
107.48,-0.96,-0.51,-0.96,-0.51,0.50,0.65,0.52,-0.46,-0.46,-0.45
108.56,-1.03,-0.53,-1.00,-0.50,0.49,0.64,0.51,-0.54,-0.51,-0.50
109.64,-1.03,-0.49,-1.04,-0.50,0.49,0.63,0.50,-0.54,-0.55,-0.55
110.74,-1.04,-0.46,-1.08,-0.49,0.49,0.62,0.49,-0.55,-0.59,-0.59
111.85,-1.14,-0.52,-1.12,-0.49,0.49,0.61,0.48,-0.65,-0.62,-0.62
112.97,-1.17,-0.51,-1.16,-0.50,0.49,0.60,0.47,-0.68,-0.67,-0.66
114.10,-1.18,-0.48,-1.19,-0.49,0.48,0.60,0.46,-0.70,-0.70,-0.70
115.24,-1.19,-0.46,-1.20,-0.47,0.47,0.59,0.45,-0.72,-0.73,-0.73
116.39,-1.22,-0.45,-1.23,-0.47,0.46,0.58,0.44,-0.76,-0.77,-0.77
117.55,-1.27,-0.49,-1.26,-0.47,0.46,0.58,0.43,-0.82,-0.80,-0.79
118.73,-1.28,-0.47,-1.26,-0.45,0.45,0.57,0.42,-0.84,-0.81,-0.81
119.92,-1.24,-0.41,-1.26,-0.43,0.44,0.57,0.42,-0.80,-0.83,-0.83
121.12,-1.25,-0.41,-1.27,-0.42,0.43,0.56,0.41,-0.82,-0.84,-0.85
122.33,-1.31,-0.45,-1.29,-0.43,0.44,0.56,0.41,-0.87,-0.86,-0.86
123.55,-1.33,-0.45,-1.32,-0.44,0.45,0.55,0.40,-0.89,-0.87,-0.88
124.79,-1.33,-0.44,-1.34,-0.45,0.46,0.55,0.40,-0.87,-0.88,-0.89
126.03,-1.35,-0.44,-1.36,-0.45,0.47,0.54,0.40,-0.88,-0.89,-0.91
127.29,-1.40,-0.48,-1.41,-0.48,0.48,0.54,0.39,-0.92,-0.93,-0.92
128.57,-1.46,-0.52,-1.45,-0.52,0.49,0.54,0.39,-0.97,-0.96,-0.94
129.85,-1.49,-0.54,-1.48,-0.53,0.50,0.53,0.39,-1.00,-0.99,-0.95
131.15,-1.49,-0.53,-1.49,-0.52,0.50,0.53,0.39,-0.99,-0.99,-0.96
132.46,-1.48,-0.49,-1.48,-0.50,0.51,0.53,0.39,-0.98,-0.98,-0.99
133.79,-1.48,-0.48,-1.49,-0.49,0.51,0.53,0.40,-0.97,-0.97,-1.00
135.12,-1.50,-0.48,-1.51,-0.49,0.52,0.52,0.40,-0.98,-0.99,-1.02
136.48,-1.55,-0.52,-1.55,-0.51,0.53,0.52,0.40,-1.02,-1.01,-1.03
137.84,-1.59,-0.54,-1.59,-0.54,0.55,0.52,0.41,-1.05,-1.04,-1.05
139.22,-1.63,-0.56,-1.64,-0.57,0.56,0.52,0.41,-1.07,-1.08,-1.07
140.61,-1.67,-0.58,-1.68,-0.59,0.58,0.52,0.42,-1.10,-1.10,-1.09
142.02,-1.73,-0.62,-1.72,-0.61,0.59,0.52,0.42,-1.14,-1.13,-1.11
143.44,-1.74,-0.60,-1.74,-0.61,0.59,0.52,0.43,-1.15,-1.15,-1.14
144.87,-1.75,-0.59,-1.75,-0.59,0.58,0.52,0.43,-1.17,-1.17,-1.16
146.32,-1.75,-0.56,-1.75,-0.56,0.56,0.52,0.44,-1.19,-1.19,-1.19
147.78,-1.75,-0.52,-1.76,-0.53,0.53,0.52,0.45,-1.22,-1.23,-1.23
149.26,-1.76,-0.50,-1.76,-0.49,0.49,0.52,0.46,-1.27,-1.27,-1.26
150.75,-1.76,-0.45,-1.76,-0.45,0.44,0.52,0.47,-1.32,-1.32,-1.31
152.26,-1.75,-0.39,-1.76,-0.39,0.39,0.52,0.48,-1.37,-1.37,-1.36
153.78,-1.75,-0.34,-1.75,-0.33,0.33,0.53,0.49,-1.42,-1.42,-1.42
155.32,-1.75,-0.27,-1.75,-0.27,0.27,0.53,0.50,-1.48,-1.48,-1.48
156.88,-1.75,-0.22,-1.75,-0.22,0.21,0.53,0.51,-1.54,-1.54,-1.53
158.44,-1.75,-0.16,-1.75,-0.16,0.16,0.53,0.52,-1.59,-1.59,-1.59
160.03,-1.75,-0.11,-1.75,-0.10,0.11,0.54,0.53,-1.64,-1.63,-1.65
161.63,-1.75,-0.07,-1.76,-0.07,0.08,0.54,0.55,-1.68,-1.69,-1.69
163.24,-1.78,-0.05,-1.79,-0.06,0.06,0.55,0.56,-1.73,-1.74,-1.74
164.88,-1.85,-0.09,-1.82,-0.06,0.05,0.55,0.57,-1.80,-1.77,-1.77
166.53,-1.86,-0.07,-1.86,-0.06,0.07,0.55,0.59,-1.79,-1.78,-1.80
168.19,-1.88,-0.07,-1.90,-0.09,0.12,0.56,0.60,-1.76,-1.78,-1.81
169.87,-1.96,-0.14,-1.96,-0.14,0.19,0.56,0.62,-1.77,-1.78,-1.82
171.57,-2.07,-0.24,-2.06,-0.24,0.27,0.57,0.63,-1.80,-1.79,-1.83
173.29,-2.17,-0.34,-2.19,-0.36,0.36,0.57,0.65,-1.81,-1.82,-1.83
175.02,-2.31,-0.50,-2.30,-0.48,0.46,0.58,0.67,-1.85,-1.83,-1.81
176.77,-2.41,-0.61,-2.40,-0.60,0.57,0.59,0.69,-1.85,-1.84,-1.80
178.54,-2.46,-0.68,-2.48,-0.70,0.66,0.59,0.70,-1.80,-1.82,-1.79
180.32,-2.54,-0.78,-2.52,-0.76,0.75,0.60,0.72,-1.80,-1.78,-1.76
182.13,-2.56,-0.82,-2.56,-0.81,0.81,0.61,0.74,-1.75,-1.74,-1.75
183.95,-2.55,-0.83,-2.59,-0.86,0.86,0.62,0.76,-1.69,-1.73,-1.72
185.79,-2.62,-0.91,-2.60,-0.89,0.89,0.63,0.78,-1.74,-1.72,-1.71
187.65,-2.62,-0.92,-2.62,-0.91,0.90,0.63,0.80,-1.73,-1.72,-1.71
189.52,-2.61,-0.91,-2.62,-0.92,0.90,0.64,0.82,-1.72,-1.72,-1.70
191.42,-2.60,-0.90,-2.60,-0.90,0.89,0.65,0.84,-1.71,-1.71,-1.70
193.33,-2.58,-0.89,-2.58,-0.88,0.89,0.66,0.86,-1.69,-1.69,-1.69
195.27,-2.56,-0.87,-2.56,-0.86,0.89,0.67,0.88,-1.67,-1.67,-1.70
197.22,-2.55,-0.85,-2.56,-0.86,0.90,0.68,0.91,-1.65,-1.66,-1.71
199.19,-2.58,-0.87,-2.58,-0.87,0.90,0.69,0.93,-1.68,-1.68,-1.71
201.18,-2.62,-0.90,-2.63,-0.91,0.91,0.71,0.95,-1.71,-1.72,-1.72
203.19,-2.68,-0.95,-2.68,-0.95,0.92,0.72,0.97,-1.76,-1.76,-1.73
205.23,-2.72,-0.98,-2.71,-0.97,0.94,0.73,1.00,-1.79,-1.77,-1.74
207.28,-2.72,-0.97,-2.73,-0.98,0.95,0.74,1.02,-1.77,-1.77,-1.75
209.35,-2.72,-0.96,-2.72,-0.96,0.97,0.76,1.04,-1.75,-1.75,-1.76
211.44,-2.72,-0.95,-2.72,-0.95,0.98,0.77,1.06,-1.74,-1.75,-1.78
213.56,-2.73,-0.95,-2.75,-0.96,0.99,0.78,1.09,-1.75,-1.76,-1.78
215.69,-2.79,-0.99,-2.79,-0.98,0.99,0.80,1.11,-1.80,-1.80,-1.80
217.85,-2.83,-1.02,-2.82,-1.00,0.99,0.81,1.13,-1.84,-1.83,-1.81
220.03,-2.83,-1.00,-2.84,-1.01,0.99,0.83,1.15,-1.85,-1.85,-1.83
222.23,-2.83,-1.00,-2.84,-1.00,0.98,0.84,1.17,-1.85,-1.86,-1.84
224.45,-2.84,-1.00,-2.84,-0.99,0.98,0.86,1.19,-1.86,-1.86,-1.84
226.70,-2.83,-0.98,-2.84,-0.99,0.98,0.88,1.21,-1.85,-1.85,-1.85
228.96,-2.83,-0.98,-2.83,-0.97,0.99,0.89,1.23,-1.85,-1.84,-1.86
231.25,-2.82,-0.97,-2.81,-0.95,1.00,0.91,1.24,-1.83,-1.81,-1.85
233.57,-2.81,-0.95,-2.82,-0.96,1.01,0.93,1.26,-1.80,-1.82,-1.86
235.90,-2.82,-0.97,-2.87,-1.01,1.03,0.95,1.27,-1.80,-1.84,-1.86
238.26,-2.95,-1.10,-2.92,-1.07,1.05,0.97,1.28,-1.91,-1.87,-1.85
240.64,-2.98,-1.15,-2.96,-1.12,1.07,0.99,1.29,-1.91,-1.89,-1.84
243.05,-2.95,-1.12,-2.96,-1.12,1.09,1.00,1.30,-1.86,-1.86,-1.83
245.48,-2.93,-1.10,-2.94,-1.11,1.12,1.02,1.31,-1.81,-1.82,-1.83
247.93,-2.90,-1.08,-2.95,-1.13,1.14,1.04,1.32,-1.76,-1.81,-1.82
250.41,-3.00,-1.19,-2.96,-1.15,1.16,1.06,1.32,-1.85,-1.81,-1.82
252.92,-3.00,-1.19,-2.97,-1.16,1.16,1.09,1.32,-1.84,-1.81,-1.81
255.45,-2.96,-1.15,-3.00,-1.18,1.17,1.11,1.32,-1.79,-1.82,-1.82
258.00,-2.98,-1.16,-3.01,-1.19,1.19,1.13,1.32,-1.80,-1.83,-1.82
260.58,-3.07,-1.25,-3.03,-1.21,1.21,1.15,1.32,-1.87,-1.83,-1.82
263.19,-3.07,-1.24,-3.05,-1.22,1.23,1.17,1.32,-1.84,-1.82,-1.83
265.82,-3.03,-1.20,-3.05,-1.22,1.25,1.19,1.31,-1.78,-1.81,-1.83
268.48,-3.04,-1.21,-3.08,-1.25,1.27,1.21,1.30,-1.78,-1.82,-1.84
271.16,-3.14,-1.30,-3.13,-1.29,1.28,1.23,1.30,-1.86,-1.85,-1.84
273.87,-3.22,-1.38,-3.17,-1.32,1.29,1.26,1.29,-1.93,-1.87,-1.84
276.61,-3.15,-1.31,-3.18,-1.33,1.30,1.28,1.28,-1.85,-1.88,-1.85
279.38,-3.14,-1.29,-3.16,-1.31,1.30,1.30,1.27,-1.84,-1.86,-1.85
282.17,-3.14,-1.30,-3.13,-1.29,1.30,1.32,1.26,-1.84,-1.84,-1.84
284.99,-3.13,-1.30,-3.14,-1.30,1.29,1.34,1.24,-1.84,-1.84,-1.84
287.84,-3.12,-1.28,-3.12,-1.28,1.29,1.36,1.23,-1.83,-1.83,-1.84
290.72,-3.11,-1.28,-3.08,-1.26,1.28,1.38,1.22,-1.83,-1.80,-1.83
293.63,-3.04,-1.22,-3.08,-1.25,1.28,1.40,1.21,-1.76,-1.80,-1.82
296.57,-3.07,-1.26,-3.10,-1.28,1.28,1.41,1.19,-1.79,-1.81,-1.82
299.53,-3.16,-1.34,-3.13,-1.31,1.30,1.43,1.18,-1.86,-1.83,-1.82
302.53,-3.16,-1.35,-3.13,-1.32,1.31,1.45,1.17,-1.85,-1.82,-1.81
305.55,-3.12,-1.31,-3.14,-1.33,1.33,1.46,1.15,-1.80,-1.81,-1.81
308.61,-3.09,-1.28,-3.15,-1.33,1.34,1.48,1.14,-1.75,-1.81,-1.81
311.69,-3.21,-1.40,-3.18,-1.36,1.35,1.49,1.13,-1.86,-1.83,-1.82
314.81,-3.23,-1.40,-3.22,-1.39,1.36,1.50,1.12,-1.87,-1.85,-1.83
317.96,-3.22,-1.39,-3.23,-1.39,1.37,1.52,1.10,-1.85,-1.85,-1.83
321.14,-3.21,-1.37,-3.21,-1.37,1.39,1.53,1.09,-1.83,-1.82,-1.84
324.35,-3.19,-1.35,-3.21,-1.37,1.40,1.53,1.08,-1.79,-1.81,-1.84
327.59,-3.24,-1.39,-3.24,-1.38,1.42,1.54,1.07,-1.83,-1.82,-1.86
330.87,-3.29,-1.42,-3.30,-1.43,1.43,1.55,1.06,-1.86,-1.87,-1.87
334.18,-3.35,-1.47,-3.35,-1.47,1.44,1.55,1.06,-1.91,-1.91,-1.88
337.52,-3.40,-1.51,-3.36,-1.48,1.45,1.55,1.05,-1.95,-1.92,-1.89
340.90,-3.35,-1.46,-3.37,-1.47,1.46,1.55,1.04,-1.89,-1.91,-1.89
344.30,-3.34,-1.44,-3.37,-1.47,1.47,1.55,1.04,-1.87,-1.90,-1.90
347.75,-3.40,-1.48,-3.38,-1.46,1.48,1.55,1.03,-1.92,-1.90,-1.92
351.23,-3.42,-1.49,-3.41,-1.47,1.49,1.54,1.03,-1.93,-1.92,-1.94
354.74,-3.42,-1.48,-3.43,-1.48,1.50,1.54,1.02,-1.93,-1.93,-1.95
358.28,-3.42,-1.46,-3.44,-1.48,1.50,1.53,1.02,-1.92,-1.94,-1.96
361.87,-3.47,-1.50,-3.48,-1.50,1.50,1.52,1.02,-1.97,-1.97,-1.97
365.49,-3.51,-1.52,-3.52,-1.53,1.50,1.51,1.02,-2.01,-2.01,-1.99
369.14,-3.57,-1.57,-3.54,-1.54,1.50,1.49,1.02,-2.07,-2.04,-2.00
372.83,-3.52,-1.51,-3.53,-1.51,1.49,1.48,1.02,-2.03,-2.04,-2.01
376.56,-3.48,-1.46,-3.50,-1.48,1.48,1.46,1.02,-2.00,-2.02,-2.02
380.33,-3.47,-1.44,-3.47,-1.44,1.46,1.44,1.03,-2.01,-2.01,-2.03
384.13,-3.47,-1.43,-3.47,-1.42,1.45,1.42,1.03,-2.03,-2.02,-2.05
387.97,-3.46,-1.41,-3.46,-1.41,1.43,1.40,1.03,-2.04,-2.04,-2.06
391.85,-3.46,-1.40,-3.46,-1.40,1.40,1.38,1.04,-2.06,-2.06,-2.07
395.77,-3.46,-1.38,-3.46,-1.39,1.38,1.35,1.04,-2.08,-2.08,-2.08
399.73,-3.46,-1.37,-3.47,-1.38,1.36,1.33,1.05,-2.10,-2.11,-2.09
403.72,-3.46,-1.36,-3.46,-1.36,1.33,1.30,1.05,-2.13,-2.13,-2.10
407.76,-3.45,-1.33,-3.44,-1.32,1.30,1.28,1.06,-2.15,-2.14,-2.12
411.84,-3.39,-1.26,-3.41,-1.28,1.27,1.25,1.06,-2.12,-2.14,-2.13
415.96,-3.37,-1.23,-3.36,-1.22,1.24,1.22,1.07,-2.14,-2.13,-2.14
420.12,-3.32,-1.18,-3.32,-1.17,1.20,1.19,1.07,-2.12,-2.12,-2.14
424.32,-3.28,-1.13,-3.29,-1.14,1.17,1.16,1.08,-2.12,-2.13,-2.15
428.56,-3.26,-1.11,-3.27,-1.12,1.13,1.13,1.09,-2.14,-2.14,-2.15
432.85,-3.25,-1.11,-3.25,-1.11,1.09,1.10,1.09,-2.16,-2.16,-2.14
437.18,-3.22,-1.09,-3.22,-1.08,1.05,1.06,1.09,-2.17,-2.16,-2.13
441.55,-3.17,-1.06,-3.16,-1.04,1.02,1.03,1.10,-2.15,-2.14,-2.11
445.96,-3.06,-0.97,-3.08,-0.98,0.99,1.00,1.10,-2.08,-2.09,-2.09
450.42,-2.99,-0.93,-3.00,-0.94,0.95,0.96,1.10,-2.04,-2.05,-2.07
454.93,-2.93,-0.91,-2.93,-0.90,0.92,0.93,1.10,-2.01,-2.01,-2.03
459.48,-2.87,-0.89,-2.87,-0.88,0.89,0.90,1.10,-1.98,-1.99,-1.99
464.07,-2.81,-0.86,-2.81,-0.86,0.86,0.86,1.10,-1.96,-1.96,-1.96
468.71,-2.76,-0.85,-2.76,-0.84,0.83,0.83,1.09,-1.93,-1.93,-1.92
473.40,-2.69,-0.81,-2.70,-0.82,0.81,0.79,1.09,-1.88,-1.89,-1.88
478.13,-2.64,-0.80,-2.64,-0.80,0.80,0.76,1.08,-1.84,-1.84,-1.84
