frequency,raw,error,smoothed,error_smoothed,equalization,parametric_eq,fixed_band_eq,equalized_raw,equalized_smoothed,target
20.00,-40.66,-37.31,-40.66,-37.31,6.00,5.67,2.71,-34.66,-34.66,-3.35
20.20,-40.58,-37.29,-40.58,-37.29,6.00,5.68,2.78,-34.58,-34.58,-3.29
20.40,-40.51,-37.27,-40.51,-37.27,6.00,5.69,2.86,-34.51,-34.51,-3.23
20.61,-40.43,-37.25,-40.43,-37.25,6.00,5.71,2.94,-34.43,-34.43,-3.18
20.81,-40.36,-37.23,-40.36,-37.23,6.00,5.72,3.03,-34.36,-34.36,-3.13
21.02,-40.28,-37.21,-40.28,-37.21,6.00,5.73,3.11,-34.28,-34.28,-3.07
21.23,-40.20,-37.18,-40.20,-37.18,6.00,5.74,3.20,-34.20,-34.20,-3.02
21.44,-40.12,-37.15,-40.12,-37.15,6.00,5.76,3.29,-34.12,-34.12,-2.97
21.66,-40.04,-37.12,-40.04,-37.12,6.00,5.77,3.39,-34.04,-34.04,-2.92
21.87,-39.97,-37.10,-39.96,-37.10,6.00,5.78,3.49,-33.97,-33.96,-2.87
22.09,-39.88,-37.06,-39.88,-37.06,6.00,5.79,3.58,-33.88,-33.88,-2.82
22.31,-39.80,-37.03,-39.80,-37.03,6.00,5.80,3.69,-33.80,-33.80,-2.77
22.54,-39.71,-36.98,-39.71,-36.98,6.00,5.82,3.79,-33.71,-33.71,-2.73
22.76,-39.62,-36.94,-39.62,-36.94,6.00,5.83,3.90,-33.62,-33.62,-2.68
22.99,-39.53,-36.89,-39.53,-36.89,6.00,5.84,4.01,-33.53,-33.53,-2.64
23.22,-39.44,-36.85,-39.44,-36.85,6.00,5.85,4.12,-33.44,-33.44,-2.59
23.45,-39.35,-36.80,-39.35,-36.80,6.00,5.86,4.24,-33.35,-33.35,-2.55
23.69,-39.26,-36.76,-39.26,-36.76,6.00,5.87,4.35,-33.26,-33.26,-2.50
23.92,-39.17,-36.71,-39.16,-36.71,6.00,5.88,4.47,-33.17,-33.16,-2.46
24.16,-39.07,-36.66,-39.07,-36.65,6.00,5.89,4.60,-33.07,-33.07,-2.41
24.40,-38.97,-36.60,-38.97,-36.60,6.00,5.90,4.72,-32.97,-32.97,-2.37
24.65,-38.87,-36.54,-38.87,-36.54,6.00,5.91,4.85,-32.87,-32.87,-2.33
24.89,-38.77,-36.47,-38.77,-36.48,6.00,5.92,4.98,-32.77,-32.77,-2.29
25.14,-38.67,-36.41,-38.67,-36.41,6.00,5.93,5.10,-32.67,-32.67,-2.25
25.39,-38.57,-36.35,-38.56,-36.35,6.00,5.94,5.23,-32.57,-32.56,-2.21
25.65,-38.46,-36.28,-38.46,-36.29,6.00,5.95,5.37,-32.46,-32.46,-2.17
25.91,-38.36,-36.22,-38.36,-36.22,6.00,5.96,5.50,-32.36,-32.36,-2.13
26.16,-38.25,-36.15,-38.24,-36.15,6.00,5.96,5.63,-32.25,-32.24,-2.09
26.43,-38.13,-36.06,-38.13,-36.07,6.00,5.97,5.76,-32.13,-32.13,-2.07
26.69,-38.02,-35.99,-38.02,-35.99,6.00,5.98,5.89,-32.02,-32.02,-2.03
26.96,-37.91,-35.92,-37.91,-35.91,6.00,5.99,6.02,-31.91,-31.91,-1.99
27.23,-37.79,-35.83,-37.79,-35.84,6.00,6.00,6.14,-31.79,-31.79,-1.96
27.50,-37.67,-35.75,-37.67,-35.75,6.00,6.01,6.27,-31.67,-31.67,-1.92
27.77,-37.55,-35.67,-37.55,-35.66,6.00,6.01,6.39,-31.55,-31.55,-1.88
28.05,-37.43,-35.58,-37.42,-35.58,6.00,6.02,6.50,-31.43,-31.42,-1.85
28.33,-37.30,-35.49,-37.30,-35.49,6.00,6.03,6.61,-31.30,-31.30,-1.81
28.62,-37.17,-35.40,-37.17,-35.40,6.00,6.04,6.72,-31.17,-31.17,-1.77
28.90,-37.04,-35.31,-37.04,-35.30,6.00,6.04,6.82,-31.04,-31.04,-1.73
29.19,-36.91,-35.20,-36.91,-35.21,6.00,6.05,6.91,-30.91,-30.91,-1.70
29.48,-36.78,-35.11,-36.78,-35.11,6.00,6.06,6.99,-30.78,-30.78,-1.66
29.78,-36.64,-35.01,-36.64,-35.01,6.00,6.06,7.06,-30.64,-30.64,-1.63
30.08,-36.50,-34.90,-36.50,-34.90,6.00,6.07,7.13,-30.50,-30.50,-1.60
30.38,-36.35,-34.79,-36.35,-34.79,6.00,6.08,7.18,-30.35,-30.35,-1.56
30.68,-36.20,-34.67,-36.20,-34.68,6.00,6.08,7.23,-30.20,-30.20,-1.53
30.99,-36.05,-34.56,-36.05,-34.55,6.00,6.09,7.27,-30.05,-30.05,-1.49
31.30,-35.89,-34.43,-35.89,-34.43,6.00,6.09,7.29,-29.89,-29.89,-1.46
31.61,-35.73,-34.30,-35.73,-34.30,6.00,6.10,7.31,-29.73,-29.73,-1.43
31.93,-35.58,-34.18,-35.57,-34.17,6.00,6.11,7.31,-29.58,-29.57,-1.40
32.24,-35.41,-34.03,-35.41,-34.04,6.00,6.11,7.31,-29.41,-29.41,-1.37
32.57,-35.25,-33.90,-35.25,-33.90,6.00,6.12,7.29,-29.25,-29.25,-1.35
32.89,-35.08,-33.76,-35.08,-33.76,6.00,6.12,7.27,-29.08,-29.08,-1.32
33.22,-34.92,-33.62,-34.91,-33.62,6.00,6.13,7.24,-28.92,-28.91,-1.30
33.55,-34.75,-33.48,-34.75,-33.47,6.00,6.13,7.20,-28.75,-28.75,-1.27
33.89,-34.58,-33.33,-34.58,-33.33,6.00,6.14,7.16,-28.58,-28.58,-1.25
34.23,-34.41,-33.17,-34.41,-33.18,6.00,6.14,7.11,-28.41,-28.41,-1.23
34.57,-34.23,-33.02,-34.23,-33.02,6.00,6.15,7.05,-28.23,-28.23,-1.21
34.92,-34.05,-32.86,-34.05,-32.86,6.00,6.15,6.99,-28.05,-28.05,-1.19
35.27,-33.87,-32.70,-33.87,-32.70,6.00,6.16,6.92,-27.87,-27.87,-1.17
35.62,-33.69,-32.54,-33.69,-32.54,6.00,6.16,6.85,-27.69,-27.69,-1.15
35.97,-33.51,-32.37,-33.51,-32.37,6.00,6.16,6.78,-27.51,-27.51,-1.13
36.33,-33.33,-32.20,-33.32,-32.20,6.00,6.17,6.71,-27.33,-27.32,-1.13
36.70,-33.14,-32.03,-33.14,-32.03,6.00,6.17,6.64,-27.14,-27.14,-1.11
37.06,-32.96,-31.87,-32.95,-31.86,6.00,6.18,6.57,-26.96,-26.95,-1.09
37.43,-32.77,-31.68,-32.77,-31.69,6.00,6.18,6.49,-26.77,-26.77,-1.08
37.81,-32.58,-31.51,-32.58,-31.51,6.00,6.18,6.42,-26.58,-26.58,-1.07
38.19,-32.40,-31.34,-32.39,-31.33,6.00,6.19,6.35,-26.40,-26.39,-1.06
38.57,-32.20,-31.15,-32.20,-31.15,6.00,6.19,6.28,-26.20,-26.20,-1.05
38.95,-32.01,-30.96,-32.01,-30.97,6.00,6.19,6.22,-26.01,-26.01,-1.04
39.34,-31.83,-30.79,-31.83,-30.79,6.00,6.20,6.15,-25.83,-25.83,-1.04
39.74,-31.66,-30.63,-31.65,-30.62,6.00,6.20,6.09,-25.66,-25.65,-1.03
40.14,-31.48,-30.45,-31.48,-30.45,6.00,6.20,6.03,-25.48,-25.48,-1.03
40.54,-31.29,-30.26,-31.29,-30.27,6.00,6.21,5.98,-25.29,-25.29,-1.03
40.94,-31.11,-30.09,-31.11,-30.09,6.00,6.21,5.93,-25.11,-25.11,-1.02
41.35,-30.93,-29.90,-30.92,-29.90,6.00,6.21,5.88,-24.93,-24.92,-1.02
41.76,-30.75,-29.73,-30.75,-29.73,6.00,6.21,5.84,-24.75,-24.75,-1.02
42.18,-30.57,-29.55,-30.57,-29.55,6.00,6.22,5.80,-24.57,-24.57,-1.02
42.60,-30.40,-29.38,-30.40,-29.38,6.00,6.22,5.76,-24.40,-24.40,-1.01
43.03,-30.23,-29.21,-30.23,-29.21,6.00,6.22,5.73,-24.23,-24.23,-1.02
43.46,-30.06,-29.04,-30.06,-29.04,6.00,6.22,5.71,-24.06,-24.06,-1.01
43.90,-29.89,-28.87,-29.89,-28.87,6.00,6.22,5.68,-23.89,-23.89,-1.02
44.33,-29.73,-28.71,-29.73,-28.71,6.00,6.23,5.66,-23.73,-23.73,-1.01
44.78,-29.57,-28.55,-29.57,-28.55,6.00,6.23,5.65,-23.57,-23.57,-1.02
45.23,-29.41,-28.40,-29.41,-28.39,6.00,6.23,5.64,-23.41,-23.41,-1.01
45.68,-29.25,-28.23,-29.25,-28.23,6.00,6.23,5.64,-23.25,-23.25,-1.02
46.13,-29.09,-28.06,-29.09,-28.07,6.00,6.23,5.63,-23.09,-23.09,-1.02
46.60,-28.94,-27.92,-28.94,-27.91,6.00,6.23,5.64,-22.94,-22.94,-1.02
47.06,-28.79,-27.76,-28.79,-27.76,6.00,6.24,5.64,-22.79,-22.79,-1.03
47.53,-28.64,-27.61,-28.64,-27.61,6.00,6.24,5.65,-22.64,-22.64,-1.03
48.01,-28.50,-27.47,-28.49,-27.46,6.00,6.24,5.67,-22.50,-22.49,-1.03
48.49,-28.34,-27.30,-28.34,-27.31,6.00,6.24,5.69,-22.34,-22.34,-1.03
48.97,-28.19,-27.15,-28.19,-27.15,6.00,6.24,5.71,-22.19,-22.19,-1.04
49.46,-28.04,-27.00,-28.04,-27.00,6.00,6.24,5.73,-22.04,-22.04,-1.04
49.96,-27.89,-26.84,-27.89,-26.85,6.00,6.24,5.76,-21.89,-21.89,-1.05
50.46,-27.75,-26.71,-27.75,-26.70,6.00,6.24,5.79,-21.75,-21.75,-1.04
50.96,-27.60,-26.55,-27.60,-26.55,6.00,6.24,5.83,-21.60,-21.60,-1.05
51.47,-27.45,-26.40,-27.45,-26.39,6.00,6.24,5.86,-21.45,-21.45,-1.05
51.99,-27.29,-26.23,-27.29,-26.23,6.00,6.24,5.90,-21.29,-21.29,-1.06
52.51,-27.14,-26.07,-27.14,-26.08,6.00,6.24,5.94,-21.14,-21.14,-1.07
53.03,-26.99,-25.92,-26.99,-25.92,6.00,6.24,5.98,-20.99,-20.99,-1.07
53.56,-26.85,-25.77,-26.84,-25.77,6.00,6.24,6.02,-20.85,-20.84,-1.07
54.10,-26.70,-25.61,-26.69,-25.61,6.00,6.24,6.06,-20.70,-20.69,-1.08
54.64,-26.53,-25.43,-26.53,-25.44,6.00,6.24,6.10,-20.53,-20.53,-1.09
55.18,-26.37,-25.26,-26.37,-25.26,6.00,6.24,6.14,-20.37,-20.37,-1.11
55.74,-26.21,-25.09,-26.21,-25.09,6.00,6.24,6.18,-20.21,-20.21,-1.12
56.29,-26.06,-24.92,-26.06,-24.92,6.00,6.24,6.22,-20.06,-20.06,-1.14
56.86,-25.90,-24.75,-25.90,-24.75,6.00,6.24,6.26,-19.90,-19.90,-1.15
57.42,-25.74,-24.57,-25.74,-24.56,6.00,6.24,6.29,-19.74,-19.74,-1.17
58.00,-25.57,-24.38,-25.57,-24.38,6.00,6.24,6.32,-19.57,-19.57,-1.19
58.58,-25.41,-24.19,-25.41,-24.19,6.00,6.24,6.35,-19.41,-19.41,-1.22
59.16,-25.25,-24.01,-25.25,-24.01,6.00,6.24,6.38,-19.25,-19.25,-1.24
59.76,-25.09,-23.83,-25.09,-23.82,6.00,6.24,6.40,-19.09,-19.09,-1.26
60.35,-24.93,-23.63,-24.92,-23.63,6.00,6.24,6.41,-18.93,-18.92,-1.30
60.96,-24.76,-23.44,-24.76,-23.44,6.00,6.23,6.42,-18.76,-18.76,-1.32
61.57,-24.60,-23.25,-24.60,-23.25,6.00,6.23,6.43,-18.60,-18.60,-1.35
62.18,-24.44,-23.06,-24.44,-23.06,6.00,6.23,6.43,-18.44,-18.44,-1.38
62.80,-24.28,-22.87,-24.28,-22.87,6.00,6.23,6.43,-18.28,-18.28,-1.41
63.43,-24.13,-22.69,-24.13,-22.69,6.00,6.23,6.42,-18.13,-18.13,-1.43
64.07,-23.97,-22.51,-23.97,-22.50,6.00,6.23,6.41,-17.97,-17.97,-1.46
64.71,-23.81,-22.32,-23.81,-22.32,6.00,6.22,6.39,-17.81,-17.81,-1.49
65.35,-23.64,-22.13,-23.64,-22.14,6.00,6.22,6.36,-17.64,-17.64,-1.51
66.01,-23.49,-21.96,-23.49,-21.96,6.00,6.22,6.33,-17.49,-17.49,-1.53
66.67,-23.34,-21.79,-23.34,-21.79,6.00,6.22,6.30,-17.34,-17.34,-1.54
67.33,-23.19,-21.62,-23.19,-21.63,6.00,6.22,6.27,-17.19,-17.19,-1.56
68.01,-23.04,-21.46,-23.03,-21.46,6.00,6.21,6.23,-17.04,-17.03,-1.57
68.69,-22.87,-21.28,-22.87,-21.29,6.00,6.21,6.19,-16.87,-16.87,-1.58
69.37,-22.71,-21.11,-22.71,-21.11,6.00,6.21,6.14,-16.71,-16.71,-1.60
70.07,-22.55,-20.94,-22.55,-20.94,6.00,6.20,6.10,-16.55,-16.55,-1.61
70.77,-22.39,-20.77,-22.39,-20.77,6.00,6.20,6.05,-16.39,-16.39,-1.62
71.48,-22.23,-20.61,-22.23,-20.60,6.00,6.20,6.00,-16.23,-16.23,-1.62
72.19,-22.07,-20.43,-22.07,-20.43,6.00,6.20,5.95,-16.07,-16.07,-1.64
72.91,-21.91,-20.26,-21.91,-20.26,6.00,6.19,5.90,-15.91,-15.91,-1.65
73.64,-21.75,-20.08,-21.74,-20.08,6.00,6.19,5.85,-15.75,-15.74,-1.67
74.38,-21.58,-19.90,-21.58,-19.90,6.00,6.19,5.80,-15.58,-15.58,-1.68
75.12,-21.42,-19.72,-21.42,-19.73,6.00,6.18,5.76,-15.42,-15.42,-1.70
75.87,-21.27,-19.55,-21.26,-19.55,6.00,6.18,5.71,-15.27,-15.26,-1.71
76.63,-21.11,-19.38,-21.10,-19.37,6.00,6.17,5.67,-15.11,-15.10,-1.73
77.40,-20.94,-19.18,-20.94,-19.18,6.00,6.17,5.63,-14.94,-14.94,-1.76
78.17,-20.77,-18.99,-20.77,-18.99,6.00,6.17,5.59,-14.77,-14.77,-1.78
78.95,-20.61,-18.81,-20.61,-18.81,6.00,6.16,5.55,-14.61,-14.61,-1.80
79.74,-20.45,-18.63,-20.45,-18.63,6.00,6.16,5.52,-14.45,-14.45,-1.82
80.54,-20.29,-18.45,-20.29,-18.45,6.00,6.15,5.49,-14.29,-14.29,-1.84
81.35,-20.12,-18.26,-20.12,-18.26,6.00,6.15,5.46,-14.12,-14.12,-1.86
82.16,-19.96,-18.08,-19.96,-18.08,6.00,6.14,5.44,-13.96,-13.96,-1.88
82.98,-19.79,-17.89,-19.79,-17.89,6.00,6.14,5.42,-13.79,-13.79,-1.90
83.81,-19.62,-17.71,-19.62,-17.71,6.00,6.13,5.40,-13.62,-13.62,-1.91
84.65,-19.45,-17.52,-19.45,-17.53,6.00,6.13,5.39,-13.45,-13.45,-1.92
85.50,-19.29,-17.35,-19.29,-17.35,6.00,6.12,5.38,-13.29,-13.29,-1.94
86.35,-19.13,-17.18,-19.12,-17.17,6.00,6.12,5.38,-13.13,-13.12,-1.95
87.22,-18.96,-16.99,-18.96,-16.99,6.00,6.11,5.38,-12.96,-12.96,-1.97
88.09,-18.79,-16.81,-18.79,-16.81,6.00,6.11,5.38,-12.79,-12.79,-1.98
88.97,-18.63,-16.63,-18.63,-16.63,6.00,6.10,5.39,-12.63,-12.63,-2.00
89.86,-18.47,-16.46,-18.47,-16.45,6.00,6.10,5.40,-12.47,-12.47,-2.01
90.76,-18.31,-16.28,-18.31,-16.28,6.00,6.09,5.42,-12.31,-12.31,-2.03
91.66,-18.15,-16.10,-18.15,-16.10,6.00,6.09,5.44,-12.15,-12.15,-2.04
92.58,-17.99,-15.93,-17.99,-15.92,6.00,6.08,5.46,-11.99,-11.99,-2.06
93.51,-17.83,-15.74,-17.83,-15.75,6.00,6.07,5.49,-11.83,-11.83,-2.09
94.44,-17.68,-15.57,-17.68,-15.57,6.00,6.07,5.52,-11.68,-11.68,-2.11
95.39,-17.52,-15.38,-17.52,-15.38,6.00,6.06,5.56,-11.52,-11.52,-2.13
96.34,-17.35,-15.18,-17.35,-15.18,6.00,6.05,5.59,-11.35,-11.35,-2.16
97.30,-17.18,-14.98,-17.18,-14.98,6.00,6.05,5.64,-11.18,-11.18,-2.20
98.28,-17.00,-14.77,-17.00,-14.77,6.00,6.04,5.68,-11.00,-11.00,-2.23
99.26,-16.84,-14.57,-16.83,-14.56,6.00,6.03,5.73,-10.84,-10.83,-2.27
100.25,-16.66,-14.35,-16.65,-14.34,6.00,6.02,5.78,-10.66,-10.65,-2.31
101.25,-16.48,-14.13,-16.49,-14.14,6.00,6.02,5.83,-10.48,-10.49,-2.35
102.27,-16.33,-13.94,-16.35,-13.96,6.00,6.01,5.89,-10.33,-10.35,-2.39
103.29,-16.23,-13.80,-16.22,-13.79,6.00,6.00,5.94,-10.23,-10.22,-2.43
104.32,-16.12,-13.64,-16.10,-13.63,6.00,5.99,6.00,-10.12,-10.10,-2.48
105.37,-15.96,-13.44,-15.96,-13.44,6.00,5.98,6.06,-9.96,-9.96,-2.51
106.42,-15.79,-13.22,-15.79,-13.23,6.00,5.98,6.12,-9.79,-9.79,-2.56
107.48,-15.62,-13.01,-15.62,-13.02,6.00,5.97,6.18,-9.62,-9.62,-2.60
108.56,-15.46,-12.81,-15.46,-12.81,6.00,5.96,6.24,-9.46,-9.46,-2.65
109.64,-15.31,-12.62,-15.31,-12.61,6.00,5.95,6.30,-9.31,-9.31,-2.69
110.74,-15.16,-12.42,-15.15,-12.42,6.00,5.94,6.36,-9.16,-9.15,-2.74
111.85,-15.00,-12.22,-15.00,-12.22,6.00,5.93,6.41,-9.00,-9.00,-2.78
112.97,-14.84,-12.02,-14.83,-12.01,6.00,5.92,6.47,-8.84,-8.83,-2.82
114.10,-14.67,-11.81,-14.68,-11.82,6.00,5.91,6.51,-8.67,-8.68,-2.86
115.24,-14.53,-11.63,-14.55,-11.66,6.00,5.90,6.56,-8.53,-8.55,-2.90
116.39,-14.45,-11.51,-14.43,-11.50,6.00,5.89,6.60,-8.45,-8.43,-2.93
117.55,-14.32,-11.36,-14.30,-11.33,6.00,5.88,6.64,-8.32,-8.30,-2.96
118.73,-14.14,-11.14,-14.14,-11.14,6.00,5.87,6.67,-8.14,-8.14,-3.00
119.92,-13.97,-10.94,-13.98,-10.95,6.00,5.86,6.70,-7.97,-7.98,-3.03
121.12,-13.81,-10.76,-13.83,-10.78,6.00,5.85,6.72,-7.81,-7.83,-3.05
122.33,-13.71,-10.64,-13.70,-10.62,6.00,5.84,6.73,-7.71,-7.70,-3.07
123.55,-13.58,-10.48,-13.55,-10.46,6.00,5.83,6.73,-7.58,-7.55,-3.09
124.79,-13.41,-10.29,-13.42,-10.30,6.00,5.82,6.73,-7.41,-7.42,-3.12
126.03,-13.25,-10.11,-13.28,-10.14,6.00,5.81,6.73,-7.25,-7.28,-3.13
127.29,-13.17,-10.01,-13.15,-9.99,6.00,5.80,6.71,-7.17,-7.15,-3.16
128.57,-13.05,-9.87,-13.02,-9.85,6.00,5.79,6.69,-7.05,-7.02,-3.17
129.85,-12.89,-9.69,-12.90,-9.70,6.00,5.77,6.66,-6.89,-6.90,-3.20
131.15,-12.74,-9.53,-12.76,-9.55,6.00,5.76,6.63,-6.74,-6.76,-3.21
132.46,-12.65,-9.41,-12.63,-9.39,6.00,5.75,6.59,-6.65,-6.63,-3.23
133.79,-12.52,-9.26,-12.51,-9.25,6.00,5.74,6.54,-6.52,-6.51,-3.25
135.12,-12.37,-9.09,-12.39,-9.11,6.00,5.72,6.49,-6.37,-6.39,-3.28
136.48,-12.28,-8.98,-12.27,-8.97,6.00,5.71,6.44,-6.28,-6.27,-3.30
137.84,-12.16,-8.84,-12.17,-8.85,6.00,5.70,6.38,-6.16,-6.17,-3.32
139.22,-12.07,-8.72,-12.06,-8.72,6.00,5.68,6.32,-6.07,-6.06,-3.35
140.61,-11.97,-8.60,-11.95,-8.58,6.00,5.67,6.25,-5.97,-5.95,-3.37
142.02,-11.80,-8.40,-11.82,-8.43,6.00,5.66,6.18,-5.80,-5.82,-3.39
143.44,-11.71,-8.30,-11.70,-8.28,6.00,5.64,6.11,-5.71,-5.70,-3.41
144.87,-11.58,-8.14,-11.58,-8.15,6.00,5.63,6.04,-5.58,-5.58,-3.44
146.32,-11.50,-8.03,-11.49,-8.03,6.00,5.62,5.97,-5.50,-5.49,-3.47
147.78,-11.39,-7.90,-11.39,-7.91,6.00,5.60,5.90,-5.39,-5.39,-3.48
149.26,-11.31,-7.80,-11.30,-7.79,6.00,5.59,5.83,-5.31,-5.30,-3.51
150.75,-11.20,-7.66,-11.20,-7.67,6.00,5.57,5.76,-5.20,-5.20,-3.53
152.26,-11.11,-7.55,-11.10,-7.55,6.00,5.56,5.69,-5.11,-5.10,-3.56
153.78,-10.99,-7.41,-11.00,-7.42,6.00,5.54,5.62,-4.99,-5.00,-3.58
155.32,-10.91,-7.31,-10.90,-7.30,6.00,5.53,5.55,-4.91,-4.90,-3.59
156.88,-10.79,-7.17,-10.80,-7.18,6.00,5.51,5.49,-4.79,-4.80,-3.62
158.44,-10.71,-7.07,-10.70,-7.06,6.00,5.49,5.42,-4.71,-4.70,-3.64
160.03,-10.61,-6.95,-10.62,-6.96,6.00,5.48,5.36,-4.61,-4.62,-3.66
161.63,-10.54,-6.87,-10.54,-6.86,6.00,5.46,5.31,-4.54,-4.54,-3.67
163.24,-10.47,-6.78,-10.45,-6.76,6.00,5.45,5.25,-4.47,-4.45,-3.69
164.88,-10.37,-6.66,-10.38,-6.67,6.00,5.43,5.20,-4.37,-4.38,-3.71
166.53,-10.29,-6.57,-10.29,-6.57,6.01,5.41,5.16,-4.28,-4.29,-3.72
168.19,-10.22,-6.48,-10.21,-6.46,6.01,5.40,5.11,-4.21,-4.19,-3.74
169.87,-10.12,-6.36,-10.12,-6.37,6.01,5.38,5.07,-4.10,-4.11,-3.76
171.57,-10.03,-6.26,-10.03,-6.27,6.01,5.36,5.03,-4.02,-4.02,-3.77
173.29,-9.95,-6.18,-9.93,-6.16,6.00,5.34,5.00,-3.95,-3.94,-3.77
175.02,-9.84,-6.06,-9.85,-6.06,5.97,5.33,4.97,-3.87,-3.87,-3.78
176.77,-9.76,-5.96,-9.76,-5.98,5.94,5.31,4.95,-3.82,-3.83,-3.80
178.54,-9.70,-5.91,-9.70,-5.90,5.89,5.29,4.92,-3.81,-3.81,-3.79
180.32,-9.64,-5.84,-9.63,-5.84,5.83,5.27,4.91,-3.80,-3.80,-3.80
182.13,-9.58,-5.78,-9.56,-5.77,5.77,5.25,4.89,-3.81,-3.80,-3.80
183.95,-9.48,-5.67,-9.49,-5.68,5.70,5.23,4.88,-3.78,-3.79,-3.80
185.79,-9.41,-5.61,-9.41,-5.61,5.62,5.22,4.87,-3.78,-3.79,-3.80
187.65,-9.34,-5.54,-9.34,-5.54,5.55,5.20,4.87,-3.78,-3.79,-3.80
189.52,-9.29,-5.48,-9.29,-5.48,5.49,5.18,4.87,-3.80,-3.79,-3.80
191.42,-9.24,-5.43,-9.23,-5.43,5.44,5.16,4.87,-3.80,-3.80,-3.81
193.33,-9.19,-5.38,-9.19,-5.38,5.38,5.14,4.88,-3.80,-3.81,-3.81
195.27,-9.15,-5.34,-9.15,-5.34,5.34,5.12,4.89,-3.81,-3.81,-3.81
197.22,-9.12,-5.31,-9.11,-5.30,5.29,5.10,4.90,-3.83,-3.82,-3.81
199.19,-9.07,-5.25,-9.07,-5.25,5.25,5.08,4.92,-3.82,-3.82,-3.81
201.18,-9.03,-5.20,-9.03,-5.21,5.20,5.06,4.93,-3.83,-3.83,-3.82
203.19,-8.98,-5.15,-8.98,-5.15,5.15,5.04,4.95,-3.83,-3.83,-3.82
205.23,-8.94,-5.10,-8.94,-5.10,5.10,5.02,4.98,-3.84,-3.84,-3.83
207.28,-8.89,-5.04,-8.89,-5.05,5.05,5.00,5.00,-3.84,-3.84,-3.84
209.35,-8.85,-5.01,-8.84,-4.99,5.00,4.98,5.02,-3.85,-3.85,-3.84
211.44,-8.79,-4.94,-8.79,-4.94,4.95,4.96,5.05,-3.84,-3.84,-3.85
213.56,-8.75,-4.89,-8.75,-4.89,4.90,4.94,5.08,-3.84,-3.84,-3.86
215.69,-8.71,-4.85,-8.72,-4.85,4.86,4.92,5.11,-3.85,-3.85,-3.86
217.85,-8.70,-4.83,-8.69,-4.83,4.82,4.90,5.14,-3.87,-3.87,-3.87
220.03,-8.68,-4.80,-8.67,-4.80,4.79,4.88,5.16,-3.89,-3.88,-3.87
222.23,-8.65,-4.77,-8.65,-4.77,4.76,4.86,5.19,-3.89,-3.89,-3.88
224.45,-8.63,-4.74,-8.62,-4.73,4.73,4.84,5.22,-3.89,-3.89,-3.89
226.70,-8.60,-4.70,-8.60,-4.71,4.72,4.82,5.25,-3.88,-3.89,-3.90
228.96,-8.59,-4.69,-8.59,-4.69,4.70,4.80,5.27,-3.89,-3.89,-3.90
231.25,-8.59,-4.68,-8.58,-4.67,4.68,4.78,5.29,-3.90,-3.90,-3.91
233.57,-8.59,-4.66,-8.59,-4.67,4.67,4.76,5.31,-3.92,-3.92,-3.92
235.90,-8.60,-4.67,-8.60,-4.67,4.66,4.74,5.33,-3.94,-3.94,-3.93
238.26,-8.61,-4.66,-8.60,-4.66,4.65,4.72,5.35,-3.96,-3.96,-3.95
240.64,-8.61,-4.66,-8.61,-4.65,4.64,4.70,5.36,-3.97,-3.97,-3.95
243.05,-8.61,-4.64,-8.60,-4.64,4.63,4.68,5.37,-3.98,-3.98,-3.97
245.48,-8.60,-4.62,-8.60,-4.62,4.62,4.66,5.37,-3.98,-3.98,-3.98
247.93,-8.59,-4.60,-8.59,-4.60,4.60,4.64,5.37,-3.98,-3.99,-3.99
250.41,-8.59,-4.59,-8.59,-4.59,4.59,4.62,5.37,-3.99,-3.99,-4.00
252.92,-8.59,-4.58,-8.59,-4.58,4.59,4.60,5.36,-4.00,-4.00,-4.01
255.45,-8.60,-4.58,-8.60,-4.58,4.58,4.58,5.35,-4.02,-4.01,-4.02
258.00,-8.61,-4.58,-8.61,-4.58,4.59,4.57,5.34,-4.02,-4.02,-4.03
260.58,-8.63,-4.59,-8.63,-4.59,4.60,4.55,5.32,-4.03,-4.03,-4.04
263.19,-8.65,-4.60,-8.65,-4.61,4.61,4.53,5.30,-4.04,-4.04,-4.04
265.82,-8.69,-4.64,-8.68,-4.63,4.63,4.52,5.27,-4.06,-4.05,-4.05
268.48,-8.71,-4.65,-8.71,-4.65,4.65,4.50,5.25,-4.05,-4.06,-4.06
271.16,-8.74,-4.67,-8.75,-4.68,4.68,4.49,5.22,-4.06,-4.07,-4.06
273.87,-8.79,-4.71,-8.78,-4.70,4.70,4.47,5.18,-4.09,-4.08,-4.08
276.61,-8.82,-4.73,-8.81,-4.73,4.72,4.46,5.15,-4.10,-4.10,-4.09
279.38,-8.84,-4.74,-8.84,-4.74,4.74,4.45,5.12,-4.10,-4.10,-4.09
282.17,-8.86,-4.75,-8.86,-4.75,4.75,4.43,5.08,-4.10,-4.11,-4.11
284.99,-8.88,-4.76,-8.88,-4.76,4.77,4.42,5.04,-4.11,-4.11,-4.12
287.84,-8.91,-4.77,-8.90,-4.77,4.77,4.41,5.01,-4.13,-4.13,-4.13
290.72,-8.93,-4.78,-8.93,-4.79,4.78,4.41,4.97,-4.15,-4.15,-4.15
293.63,-8.96,-4.80,-8.96,-4.80,4.78,4.40,4.93,-4.17,-4.17,-4.16
296.57,-8.98,-4.81,-8.97,-4.80,4.79,4.39,4.90,-4.19,-4.18,-4.17
299.53,-8.98,-4.79,-8.98,-4.80,4.80,4.39,4.86,-4.18,-4.19,-4.18
302.53,-8.99,-4.79,-8.99,-4.80,4.81,4.38,4.83,-4.18,-4.19,-4.20
305.55,-9.02,-4.81,-9.01,-4.81,4.82,4.38,4.80,-4.19,-4.19,-4.21
308.61,-9.05,-4.83,-9.05,-4.83,4.84,4.38,4.77,-4.20,-4.21,-4.22
311.69,-9.10,-4.87,-9.10,-4.86,4.87,4.39,4.74,-4.23,-4.22,-4.23
314.81,-9.15,-4.90,-9.15,-4.90,4.91,4.39,4.71,-4.24,-4.24,-4.24
317.96,-9.20,-4.94,-9.20,-4.95,4.95,4.40,4.69,-4.25,-4.26,-4.26
321.14,-9.26,-5.00,-9.25,-4.99,4.99,4.41,4.67,-4.27,-4.27,-4.26
324.35,-9.31,-5.04,-9.31,-5.04,5.03,4.42,4.65,-4.27,-4.27,-4.27
327.59,-9.36,-5.09,-9.36,-5.08,5.08,4.43,4.64,-4.28,-4.28,-4.27
330.87,-9.41,-5.13,-9.41,-5.13,5.12,4.45,4.63,-4.28,-4.28,-4.28
334.18,-9.45,-5.16,-9.45,-5.17,5.17,4.47,4.62,-4.28,-4.28,-4.28
337.52,-9.50,-5.21,-9.50,-5.21,5.21,4.49,4.62,-4.29,-4.29,-4.29
340.90,-9.54,-5.24,-9.54,-5.25,5.25,4.52,4.62,-4.29,-4.29,-4.30
344.30,-9.59,-5.29,-9.59,-5.29,5.29,4.55,4.62,-4.30,-4.30,-4.30
347.75,-9.63,-5.33,-9.63,-5.33,5.32,4.58,4.63,-4.30,-4.30,-4.30
351.23,-9.67,-5.37,-9.67,-5.37,5.36,4.62,4.64,-4.31,-4.31,-4.30
354.74,-9.71,-5.41,-9.71,-5.40,5.40,4.66,4.65,-4.31,-4.31,-4.30
358.28,-9.74,-5.43,-9.74,-5.44,5.44,4.71,4.67,-4.30,-4.30,-4.30
361.87,-9.78,-5.47,-9.77,-5.47,5.48,4.76,4.69,-4.30,-4.30,-4.30
365.49,-9.81,-5.50,-9.81,-5.50,5.51,4.81,4.72,-4.29,-4.30,-4.31
369.14,-9.85,-5.54,-9.85,-5.55,5.55,4.87,4.75,-4.30,-4.30,-4.31
372.83,-9.90,-5.60,-9.90,-5.59,5.59,4.94,4.78,-4.31,-4.30,-4.30
