frequency,raw,error,smoothed,error_smoothed,equalization,parametric_eq,fixed_band_eq,equalized_raw,equalized_smoothed,target
20.00,2.42,-3.84,2.42,-3.84,3.91,3.20,0.82,6.33,6.34,6.26
20.20,2.47,-3.78,2.47,-3.79,3.81,3.16,0.85,6.28,6.28,6.25
20.40,2.53,-3.72,2.52,-3.73,3.71,3.12,0.87,6.24,6.23,6.25
20.61,2.58,-3.66,2.57,-3.67,3.62,3.09,0.90,6.20,6.19,6.24
20.81,2.63,-3.60,2.63,-3.60,3.53,3.05,0.93,6.16,6.16,6.23
21.02,2.69,-3.53,2.70,-3.52,3.46,3.01,0.96,6.14,6.16,6.22
21.23,2.79,-3.43,2.79,-3.43,3.38,2.97,0.99,6.17,6.17,6.22
21.44,2.90,-3.33,2.90,-3.32,3.31,2.94,1.02,6.21,6.21,6.23
21.66,3.00,-3.22,3.01,-3.21,3.24,2.90,1.06,6.24,6.25,6.22
21.87,3.11,-3.11,3.09,-3.12,3.18,2.86,1.09,6.29,6.28,6.22
22.09,3.16,-3.05,3.14,-3.06,3.13,2.82,1.12,6.29,6.28,6.21
22.31,3.15,-3.06,3.16,-3.05,3.09,2.78,1.16,6.24,6.25,6.21
22.54,3.14,-3.06,3.13,-3.07,3.06,2.74,1.20,6.20,6.20,6.20
22.76,3.12,-3.09,3.12,-3.08,3.04,2.70,1.23,6.15,6.15,6.20
22.99,3.11,-3.10,3.13,-3.07,3.01,2.66,1.27,6.12,6.14,6.20
23.22,3.18,-3.01,3.18,-3.02,2.98,2.62,1.31,6.15,6.15,6.19
23.45,3.26,-2.93,3.25,-2.94,2.93,2.58,1.35,6.19,6.18,6.19
23.69,3.33,-2.86,3.33,-2.86,2.87,2.54,1.39,6.20,6.20,6.19
23.92,3.41,-2.78,3.41,-2.79,2.79,2.50,1.43,6.20,6.20,6.19
24.16,3.49,-2.71,3.49,-2.71,2.71,2.46,1.48,6.20,6.20,6.20
24.40,3.57,-2.64,3.57,-2.63,2.64,2.42,1.52,6.21,6.21,6.21
24.65,3.65,-2.56,3.65,-2.55,2.57,2.38,1.56,6.22,6.22,6.21
24.89,3.73,-2.48,3.72,-2.48,2.51,2.33,1.60,6.24,6.24,6.21
25.14,3.78,-2.42,3.77,-2.43,2.46,2.29,1.65,6.24,6.24,6.20
25.39,3.80,-2.40,3.80,-2.40,2.41,2.25,1.69,6.21,6.21,6.20
25.65,3.82,-2.38,3.81,-2.38,2.36,2.21,1.73,6.17,6.17,6.19
25.91,3.83,-2.36,3.84,-2.35,2.30,2.17,1.78,6.13,6.14,6.19
26.16,3.89,-2.30,3.90,-2.29,2.25,2.12,1.82,6.14,6.14,6.19
26.43,3.98,-2.20,3.98,-2.21,2.20,2.08,1.86,6.18,6.17,6.18
26.69,4.06,-2.12,4.06,-2.11,2.15,2.04,1.90,6.21,6.21,6.18
26.96,4.15,-2.02,4.13,-2.04,2.09,1.99,1.94,6.24,6.22,6.17
27.23,4.17,-1.99,4.17,-1.99,2.03,1.95,1.98,6.20,6.20,6.16
27.50,4.19,-1.97,4.18,-1.97,1.95,1.91,2.01,6.14,6.14,6.16
27.77,4.20,-1.96,4.20,-1.95,1.88,1.86,2.04,6.08,6.08,6.15
28.05,4.23,-1.92,4.25,-1.90,1.82,1.82,2.08,6.05,6.08,6.15
28.33,4.34,-1.81,4.34,-1.80,1.78,1.77,2.10,6.12,6.13,6.15
28.62,4.45,-1.69,4.45,-1.70,1.76,1.73,2.13,6.21,6.21,6.14
28.90,4.55,-1.60,4.52,-1.63,1.75,1.69,2.15,6.30,6.27,6.15
29.19,4.53,-1.62,4.51,-1.64,1.75,1.64,2.17,6.27,6.26,6.15
29.48,4.44,-1.72,4.44,-1.72,1.74,1.60,2.18,6.18,6.18,6.15
29.78,4.35,-1.80,4.36,-1.79,1.73,1.55,2.19,6.08,6.09,6.15
30.08,4.30,-1.86,4.34,-1.82,1.70,1.51,2.20,6.00,6.04,6.16
30.38,4.39,-1.76,4.37,-1.78,1.67,1.46,2.20,6.05,6.04,6.15
30.68,4.47,-1.68,4.46,-1.69,1.61,1.42,2.20,6.08,6.07,6.15
30.99,4.56,-1.58,4.57,-1.57,1.55,1.37,2.19,6.11,6.12,6.14
31.30,4.68,-1.46,4.70,-1.44,1.49,1.32,2.18,6.17,6.18,6.13
31.61,4.81,-1.32,4.82,-1.31,1.43,1.28,2.16,6.23,6.24,6.13
31.93,4.94,-1.18,4.89,-1.24,1.37,1.23,2.14,6.30,6.26,6.12
32.24,4.89,-1.23,4.87,-1.24,1.32,1.19,2.11,6.21,6.19,6.12
32.57,4.79,-1.31,4.79,-1.31,1.28,1.14,2.08,6.07,6.08,6.10
32.89,4.69,-1.40,4.73,-1.36,1.25,1.10,2.04,5.94,5.98,6.09
33.22,4.73,-1.36,4.75,-1.34,1.23,1.05,2.00,5.96,5.97,6.09
33.55,4.84,-1.25,4.83,-1.26,1.20,1.00,1.96,6.04,6.03,6.09
33.89,4.95,-1.13,4.93,-1.15,1.17,0.96,1.91,6.12,6.10,6.08
34.23,5.02,-1.05,5.01,-1.06,1.13,0.91,1.86,6.14,6.14,6.07
34.57,5.05,-1.02,5.06,-1.01,1.07,0.86,1.80,6.12,6.13,6.07
34.92,5.09,-0.97,5.09,-0.97,1.01,0.82,1.74,6.10,6.10,6.05
35.27,5.11,-0.95,5.10,-0.95,0.95,0.77,1.68,6.06,6.05,6.06
35.62,5.11,-0.93,5.11,-0.93,0.90,0.72,1.61,6.01,6.01,6.04
35.97,5.12,-0.90,5.13,-0.89,0.85,0.67,1.55,5.97,5.98,6.02
36.33,5.18,-0.83,5.18,-0.83,0.80,0.63,1.48,5.98,5.98,6.01
36.70,5.25,-0.75,5.24,-0.75,0.74,0.58,1.41,5.99,5.98,6.00
37.06,5.31,-0.67,5.31,-0.67,0.68,0.53,1.33,5.99,5.99,5.98
37.43,5.37,-0.60,5.37,-0.59,0.62,0.49,1.26,5.98,5.99,5.97
37.81,5.42,-0.52,5.42,-0.53,0.55,0.44,1.18,5.97,5.97,5.94
38.19,5.46,-0.46,5.45,-0.47,0.49,0.39,1.11,5.94,5.94,5.92
38.57,5.47,-0.42,5.47,-0.42,0.42,0.34,1.03,5.89,5.90,5.89
38.95,5.49,-0.38,5.49,-0.38,0.37,0.29,0.95,5.85,5.85,5.87
39.34,5.51,-0.33,5.51,-0.33,0.31,0.25,0.87,5.82,5.82,5.84
39.74,5.54,-0.28,5.54,-0.28,0.26,0.20,0.79,5.80,5.80,5.82
40.14,5.58,-0.22,5.58,-0.21,0.22,0.15,0.71,5.80,5.80,5.79
40.54,5.62,-0.15,5.62,-0.14,0.17,0.10,0.63,5.79,5.79,5.77
40.94,5.67,-0.07,5.65,-0.09,0.11,0.05,0.55,5.78,5.77,5.74
41.35,5.67,-0.06,5.66,-0.06,0.05,0.00,0.47,5.72,5.71,5.73
41.76,5.66,-0.04,5.67,-0.03,-0.01,-0.04,0.39,5.65,5.67,5.70
42.18,5.68,-0.00,5.70,0.02,-0.06,-0.09,0.31,5.62,5.64,5.68
42.60,5.76,0.10,5.75,0.10,-0.10,-0.14,0.23,5.66,5.65,5.66
43.03,5.83,0.20,5.81,0.18,-0.14,-0.19,0.15,5.69,5.68,5.63
43.46,5.85,0.24,5.86,0.25,-0.17,-0.24,0.07,5.68,5.68,5.61
43.90,5.87,0.28,5.85,0.27,-0.22,-0.29,-0.01,5.65,5.63,5.58
44.33,5.83,0.27,5.81,0.25,-0.28,-0.34,-0.10,5.55,5.54,5.56
44.78,5.77,0.24,5.79,0.26,-0.34,-0.39,-0.18,5.42,5.45,5.53
45.23,5.79,0.28,5.81,0.31,-0.42,-0.44,-0.26,5.37,5.39,5.51
45.68,5.90,0.43,5.89,0.42,-0.48,-0.49,-0.34,5.41,5.40,5.47
46.13,6.00,0.57,6.01,0.57,-0.54,-0.54,-0.42,5.46,5.46,5.43
46.60,6.11,0.70,6.11,0.70,-0.60,-0.59,-0.50,5.51,5.51,5.40
47.06,6.19,0.81,6.15,0.78,-0.65,-0.64,-0.58,5.53,5.49,5.37
47.53,6.13,0.78,6.14,0.80,-0.71,-0.70,-0.66,5.41,5.42,5.34
48.01,6.06,0.78,6.06,0.76,-0.78,-0.75,-0.74,5.28,5.28,5.28
48.49,6.00,0.75,5.99,0.74,-0.84,-0.80,-0.82,5.16,5.15,5.25
48.97,5.93,0.72,5.98,0.77,-0.90,-0.85,-0.90,5.02,5.07,5.21
49.46,6.04,0.87,6.03,0.86,-0.96,-0.90,-0.98,5.08,5.07,5.17
49.96,6.15,1.03,6.15,1.02,-1.02,-0.96,-1.06,5.13,5.13,5.12
50.46,6.27,1.17,6.27,1.18,-1.08,-1.01,-1.14,5.18,5.19,5.10
50.96,6.38,1.31,6.33,1.27,-1.15,-1.06,-1.22,5.23,5.18,5.06
51.47,6.33,1.30,6.33,1.30,-1.22,-1.12,-1.29,5.11,5.11,5.03
51.99,6.26,1.27,6.27,1.28,-1.28,-1.17,-1.37,4.98,5.00,4.99
52.51,6.22,1.27,6.21,1.26,-1.33,-1.23,-1.45,4.89,4.89,4.95
53.03,6.18,1.26,6.20,1.29,-1.37,-1.28,-1.53,4.81,4.84,4.92
53.56,6.23,1.35,6.23,1.35,-1.40,-1.34,-1.60,4.83,4.83,4.87
54.10,6.28,1.45,6.27,1.44,-1.44,-1.39,-1.67,4.84,4.83,4.83
54.64,6.32,1.53,6.32,1.53,-1.50,-1.45,-1.75,4.82,4.82,4.79
55.18,6.35,1.60,6.34,1.59,-1.57,-1.51,-1.82,4.78,4.77,4.75
55.74,6.35,1.64,6.35,1.63,-1.64,-1.56,-1.89,4.71,4.71,4.71
56.29,6.36,1.68,6.36,1.68,-1.70,-1.62,-1.96,4.66,4.66,4.68
56.86,6.38,1.73,6.42,1.78,-1.76,-1.68,-2.02,4.62,4.66,4.65
57.42,6.46,1.86,6.46,1.86,-1.81,-1.74,-2.09,4.65,4.66,4.59
58.00,6.56,1.98,6.46,1.88,-1.85,-1.80,-2.15,4.70,4.60,4.58
58.58,6.41,1.85,6.44,1.89,-1.90,-1.85,-2.21,4.51,4.54,4.56
59.16,6.35,1.82,6.43,1.91,-1.96,-1.91,-2.26,4.39,4.48,4.52
59.76,6.48,1.98,6.44,1.95,-2.01,-1.97,-2.32,4.47,4.44,4.49
60.35,6.54,2.10,6.51,2.06,-2.06,-2.03,-2.37,4.48,4.45,4.44
60.96,6.54,2.13,6.55,2.14,-2.11,-2.09,-2.42,4.43,4.44,4.41
61.57,6.54,2.18,6.54,2.19,-2.17,-2.15,-2.46,4.37,4.38,4.36
62.18,6.54,2.24,6.54,2.23,-2.23,-2.21,-2.51,4.31,4.31,4.30
62.80,6.54,2.29,6.54,2.29,-2.29,-2.27,-2.55,4.25,4.25,4.25
63.43,6.54,2.34,6.54,2.34,-2.34,-2.33,-2.58,4.20,4.20,4.20
64.07,6.54,2.38,6.54,2.38,-2.38,-2.39,-2.62,4.16,4.16,4.16
64.71,6.54,2.42,6.54,2.42,-2.41,-2.45,-2.65,4.13,4.13,4.12
65.35,6.54,2.47,6.54,2.47,-2.44,-2.51,-2.68,4.09,4.10,4.07
66.01,6.54,2.50,6.54,2.51,-2.48,-2.56,-2.70,4.05,4.06,4.03
66.67,6.54,2.54,6.51,2.52,-2.53,-2.62,-2.73,4.01,3.98,4.00
67.33,6.50,2.56,6.49,2.55,-2.58,-2.67,-2.75,3.92,3.91,3.94
68.01,6.43,2.53,6.50,2.61,-2.65,-2.73,-2.77,3.78,3.86,3.90
68.69,6.57,2.71,6.54,2.69,-2.72,-2.78,-2.79,3.85,3.82,3.85
69.37,6.64,2.83,6.59,2.79,-2.80,-2.84,-2.81,3.84,3.79,3.81
70.07,6.64,2.88,6.66,2.89,-2.88,-2.89,-2.83,3.75,3.77,3.76
70.77,6.67,2.95,6.71,2.99,-2.97,-2.94,-2.84,3.70,3.74,3.72
71.48,6.76,3.09,6.75,3.08,-3.04,-2.99,-2.86,3.71,3.70,3.67
72.19,6.83,3.20,6.77,3.15,-3.11,-3.03,-2.87,3.71,3.66,3.63
72.91,6.74,3.17,6.77,3.20,-3.17,-3.08,-2.89,3.57,3.60,3.57
73.64,6.73,3.21,6.74,3.22,-3.22,-3.13,-2.90,3.51,3.52,3.52
74.38,6.73,3.24,6.72,3.23,-3.26,-3.17,-2.92,3.47,3.46,3.49
75.12,6.73,3.28,6.73,3.28,-3.30,-3.21,-2.94,3.43,3.43,3.45
75.87,6.73,3.31,6.73,3.32,-3.33,-3.26,-2.95,3.40,3.40,3.42
76.63,6.73,3.36,6.73,3.36,-3.36,-3.30,-2.97,3.37,3.37,3.37
77.40,6.73,3.39,6.73,3.39,-3.39,-3.34,-2.99,3.34,3.34,3.34
78.17,6.73,3.43,6.73,3.43,-3.42,-3.38,-3.01,3.31,3.31,3.29
78.95,6.73,3.46,6.73,3.46,-3.46,-3.42,-3.04,3.27,3.27,3.27
79.74,6.73,3.49,6.73,3.49,-3.49,-3.46,-3.06,3.24,3.24,3.24
80.54,6.73,3.52,6.73,3.52,-3.52,-3.50,-3.09,3.20,3.20,3.20
81.35,6.73,3.56,6.73,3.56,-3.56,-3.54,-3.12,3.17,3.17,3.17
82.16,6.73,3.58,6.73,3.59,-3.59,-3.58,-3.15,3.14,3.14,3.14
82.98,6.73,3.63,6.73,3.63,-3.63,-3.62,-3.18,3.10,3.10,3.10
83.81,6.73,3.67,6.73,3.67,-3.66,-3.66,-3.21,3.07,3.07,3.06
84.65,6.73,3.71,6.73,3.71,-3.70,-3.70,-3.25,3.03,3.03,3.02
85.50,6.73,3.74,6.73,3.74,-3.75,-3.74,-3.29,2.98,2.98,2.98
86.35,6.73,3.78,6.73,3.78,-3.80,-3.78,-3.33,2.93,2.93,2.95
87.22,6.73,3.82,6.72,3.82,-3.85,-3.82,-3.38,2.88,2.87,2.91
88.09,6.74,3.87,6.74,3.87,-3.90,-3.87,-3.43,2.84,2.84,2.87
88.97,6.74,3.91,6.78,3.95,-3.94,-3.91,-3.48,2.80,2.84,2.82
89.86,6.82,4.04,6.80,4.02,-3.97,-3.95,-3.53,2.84,2.83,2.78
90.76,6.85,4.11,6.80,4.06,-4.01,-3.99,-3.59,2.84,2.79,2.74
91.66,6.74,4.05,6.76,4.07,-4.04,-4.03,-3.64,2.70,2.72,2.69
92.58,6.67,4.02,6.69,4.05,-4.07,-4.07,-3.71,2.60,2.63,2.64
93.51,6.65,4.05,6.65,4.05,-4.10,-4.11,-3.77,2.55,2.55,2.60
94.44,6.65,4.09,6.64,4.09,-4.12,-4.15,-3.83,2.52,2.52,2.56
95.39,6.64,4.14,6.64,4.14,-4.15,-4.19,-3.90,2.49,2.49,2.50
96.34,6.64,4.19,6.64,4.19,-4.19,-4.23,-3.97,2.45,2.45,2.45
97.30,6.64,4.25,6.64,4.24,-4.23,-4.27,-4.05,2.41,2.41,2.39
98.28,6.63,4.29,6.63,4.29,-4.27,-4.31,-4.12,2.35,2.35,2.34
99.26,6.61,4.34,6.61,4.33,-4.32,-4.35,-4.20,2.28,2.28,2.27
100.25,6.59,4.37,6.59,4.37,-4.37,-4.38,-4.28,2.22,2.22,2.22
101.25,6.57,4.40,6.57,4.41,-4.41,-4.42,-4.36,2.16,2.16,2.17
102.27,6.56,4.44,6.56,4.44,-4.45,-4.46,-4.44,2.11,2.11,2.11
103.29,6.55,4.49,6.55,4.49,-4.49,-4.50,-4.52,2.06,2.05,2.06
104.32,6.53,4.52,6.53,4.52,-4.53,-4.53,-4.60,2.00,2.00,2.01
105.37,6.51,4.56,6.51,4.56,-4.56,-4.57,-4.68,1.95,1.95,1.94
106.42,6.48,4.58,6.48,4.59,-4.59,-4.60,-4.77,1.89,1.90,1.90
107.48,6.46,4.63,6.46,4.62,-4.60,-4.63,-4.85,1.86,1.86,1.83
108.56,6.43,4.64,6.42,4.64,-4.61,-4.67,-4.93,1.81,1.81,1.79
109.64,6.39,4.66,6.38,4.65,-4.62,-4.70,-5.01,1.77,1.76,1.73
110.74,6.31,4.63,6.31,4.63,-4.63,-4.73,-5.09,1.68,1.68,1.67
111.85,6.25,4.62,6.24,4.61,-4.64,-4.76,-5.16,1.61,1.61,1.63
112.97,6.18,4.60,6.19,4.61,-4.65,-4.79,-5.23,1.53,1.54,1.58
114.10,6.17,4.63,6.17,4.64,-4.67,-4.81,-5.31,1.50,1.50,1.54
115.24,6.17,4.70,6.16,4.68,-4.70,-4.84,-5.37,1.47,1.46,1.47
116.39,6.17,4.74,6.17,4.74,-4.73,-4.86,-5.43,1.44,1.44,1.43
117.55,6.17,4.78,6.17,4.79,-4.77,-4.89,-5.49,1.40,1.40,1.38
118.73,6.18,4.84,6.18,4.84,-4.83,-4.91,-5.54,1.35,1.35,1.34
119.92,6.19,4.89,6.18,4.88,-4.89,-4.93,-5.59,1.30,1.30,1.30
121.12,6.19,4.91,6.19,4.92,-4.94,-4.95,-5.63,1.25,1.25,1.27
122.33,6.20,4.97,6.19,4.96,-4.99,-4.97,-5.66,1.21,1.21,1.23
123.55,6.21,5.01,6.22,5.01,-5.01,-4.99,-5.69,1.19,1.20,1.20
124.79,6.22,5.05,6.25,5.08,-5.03,-5.01,-5.71,1.19,1.22,1.17
126.03,6.29,5.16,6.25,5.12,-5.04,-5.03,-5.73,1.25,1.21,1.13
127.29,6.23,5.14,6.18,5.09,-5.05,-5.04,-5.74,1.18,1.13,1.09
128.57,6.08,5.03,6.10,5.04,-5.06,-5.06,-5.74,1.02,1.04,1.05
129.85,5.95,4.93,6.02,5.00,-5.08,-5.08,-5.74,0.87,0.94,1.02
131.15,6.02,5.04,6.00,5.02,-5.10,-5.09,-5.73,0.92,0.90,0.98
132.46,6.05,5.10,6.02,5.08,-5.13,-5.11,-5.72,0.92,0.90,0.95
133.79,6.06,5.16,6.06,5.16,-5.16,-5.12,-5.70,0.90,0.90,0.90
135.12,6.07,5.21,6.09,5.22,-5.20,-5.14,-5.67,0.87,0.89,0.86
136.48,6.10,5.27,6.11,5.29,-5.24,-5.16,-5.65,0.86,0.88,0.83
137.84,6.16,5.37,6.11,5.32,-5.26,-5.18,-5.62,0.89,0.85,0.79
139.22,6.08,5.34,6.09,5.34,-5.28,-5.19,-5.58,0.80,0.81,0.74
140.61,6.00,5.28,6.03,5.32,-5.29,-5.21,-5.55,0.71,0.75,0.72
142.02,5.98,5.30,5.95,5.27,-5.29,-5.23,-5.51,0.69,0.65,0.67
143.44,5.89,5.25,5.88,5.24,-5.30,-5.25,-5.47,0.59,0.57,0.63
144.87,5.80,5.20,5.84,5.24,-5.32,-5.27,-5.43,0.48,0.52,0.60
146.32,5.82,5.25,5.83,5.26,-5.34,-5.30,-5.38,0.48,0.49,0.56
147.78,5.88,5.35,5.88,5.35,-5.35,-5.32,-5.34,0.53,0.53,0.52
149.26,5.93,5.44,5.93,5.44,-5.37,-5.34,-5.30,0.56,0.56,0.49
150.75,5.97,5.53,5.92,5.48,-5.39,-5.37,-5.26,0.58,0.54,0.44
152.26,5.87,5.45,5.89,5.48,-5.41,-5.39,-5.22,0.46,0.48,0.41
153.78,5.79,5.42,5.81,5.44,-5.44,-5.41,-5.18,0.35,0.38,0.37
155.32,5.77,5.42,5.72,5.38,-5.45,-5.44,-5.15,0.31,0.26,0.34
156.88,5.65,5.35,5.68,5.38,-5.46,-5.46,-5.11,0.18,0.21,0.30
158.44,5.63,5.37,5.69,5.43,-5.47,-5.49,-5.08,0.16,0.22,0.26
160.03,5.75,5.53,5.71,5.49,-5.48,-5.51,-5.05,0.27,0.23,0.21
161.63,5.77,5.60,5.71,5.54,-5.49,-5.53,-5.03,0.27,0.22,0.17
163.24,5.66,5.54,5.69,5.56,-5.51,-5.55,-5.00,0.15,0.17,0.12
164.88,5.59,5.51,5.62,5.54,-5.53,-5.57,-4.98,0.06,0.09,0.08
166.53,5.59,5.56,5.57,5.54,-5.54,-5.59,-4.96,0.04,0.03,0.03
168.19,5.56,5.56,5.54,5.55,-5.55,-5.61,-4.95,0.01,-0.01,-0.01
169.87,5.49,5.54,5.49,5.55,-5.55,-5.63,-4.94,-0.06,-0.06,-0.05
171.57,5.43,5.53,5.44,5.53,-5.55,-5.64,-4.94,-0.12,-0.12,-0.10
173.29,5.39,5.52,5.39,5.53,-5.56,-5.66,-4.93,-0.17,-0.17,-0.14
175.02,5.37,5.55,5.37,5.55,-5.57,-5.67,-4.94,-0.20,-0.19,-0.18
176.77,5.36,5.58,5.36,5.58,-5.58,-5.69,-4.94,-0.22,-0.22,-0.23
178.54,5.36,5.62,5.35,5.61,-5.59,-5.70,-4.95,-0.23,-0.25,-0.26
180.32,5.33,5.63,5.33,5.63,-5.61,-5.71,-4.96,-0.28,-0.28,-0.30
182.13,5.29,5.63,5.30,5.64,-5.63,-5.71,-4.98,-0.34,-0.34,-0.35
183.95,5.28,5.66,5.26,5.64,-5.65,-5.72,-5.00,-0.37,-0.40,-0.38
185.79,5.21,5.63,5.23,5.65,-5.67,-5.72,-5.03,-0.46,-0.44,-0.42
187.65,5.22,5.67,5.22,5.68,-5.68,-5.73,-5.05,-0.46,-0.46,-0.45
189.52,5.23,5.72,5.22,5.70,-5.70,-5.73,-5.08,-0.47,-0.48,-0.49
191.42,5.23,5.74,5.22,5.73,-5.72,-5.73,-5.12,-0.49,-0.50,-0.51
193.33,5.19,5.74,5.18,5.74,-5.74,-5.73,-5.16,-0.55,-0.55,-0.55
195.27,5.14,5.73,5.14,5.73,-5.75,-5.73,-5.20,-0.61,-0.61,-0.59
197.22,5.11,5.73,5.12,5.74,-5.76,-5.73,-5.24,-0.65,-0.64,-0.62
199.19,5.11,5.76,5.14,5.79,-5.76,-5.72,-5.29,-0.66,-0.63,-0.65
201.18,5.15,5.84,5.13,5.81,-5.76,-5.72,-5.34,-0.61,-0.64,-0.69
203.19,5.13,5.84,5.06,5.77,-5.75,-5.71,-5.39,-0.63,-0.69,-0.71
205.23,4.94,5.68,4.98,5.72,-5.73,-5.71,-5.44,-0.80,-0.76,-0.74
207.28,4.85,5.61,4.93,5.70,-5.72,-5.70,-5.49,-0.87,-0.79,-0.77
209.35,4.92,5.73,4.90,5.70,-5.70,-5.69,-5.55,-0.78,-0.81,-0.81
211.44,4.96,5.79,4.86,5.70,-5.69,-5.68,-5.60,-0.74,-0.83,-0.83
213.56,4.78,5.65,4.81,5.67,-5.69,-5.67,-5.66,-0.91,-0.88,-0.87
215.69,4.68,5.57,4.74,5.63,-5.68,-5.66,-5.71,-1.00,-0.94,-0.89
217.85,4.72,5.63,4.71,5.64,-5.68,-5.65,-5.76,-0.96,-0.96,-0.91
220.03,4.77,5.72,4.76,5.71,-5.67,-5.63,-5.82,-0.91,-0.91,-0.96
222.23,4.79,5.77,4.77,5.75,-5.67,-5.62,-5.87,-0.88,-0.90,-0.98
224.45,4.75,5.75,4.69,5.69,-5.66,-5.60,-5.92,-0.91,-0.96,-1.00
226.70,4.57,5.59,4.61,5.63,-5.64,-5.59,-5.96,-1.07,-1.03,-1.02
228.96,4.48,5.51,4.55,5.58,-5.62,-5.57,-6.00,-1.14,-1.07,-1.03
231.25,4.58,5.63,4.52,5.56,-5.60,-5.55,-6.03,-1.02,-1.08,-1.05
233.57,4.52,5.58,4.50,5.57,-5.57,-5.53,-6.07,-1.05,-1.06,-1.06
235.90,4.46,5.54,4.48,5.55,-5.53,-5.51,-6.09,-1.07,-1.05,-1.08
238.26,4.40,5.49,4.41,5.50,-5.50,-5.49,-6.11,-1.10,-1.08,-1.09
240.64,4.40,5.48,4.38,5.47,-5.47,-5.47,-6.12,-1.07,-1.09,-1.08
243.05,4.35,5.44,4.36,5.45,-5.45,-5.45,-6.13,-1.10,-1.09,-1.09
245.48,4.34,5.43,4.34,5.43,-5.42,-5.42,-6.12,-1.08,-1.08,-1.09
247.93,4.31,5.40,4.30,5.39,-5.39,-5.40,-6.12,-1.08,-1.09,-1.09
250.41,4.28,5.36,4.27,5.36,-5.36,-5.37,-6.10,-1.08,-1.09,-1.08
252.92,4.22,5.30,4.24,5.33,-5.33,-5.34,-6.07,-1.11,-1.09,-1.08
255.45,4.22,5.32,4.21,5.31,-5.31,-5.31,-6.04,-1.09,-1.10,-1.10
258.00,4.19,5.29,4.18,5.28,-5.29,-5.28,-6.00,-1.10,-1.11,-1.10
260.58,4.15,5.26,4.13,5.24,-5.26,-5.25,-5.95,-1.11,-1.13,-1.11
263.19,4.08,5.20,4.09,5.21,-5.23,-5.21,-5.90,-1.15,-1.13,-1.12
265.82,4.04,5.16,4.08,5.21,-5.19,-5.18,-5.84,-1.15,-1.10,-1.12
268.48,4.09,5.23,4.04,5.18,-5.15,-5.14,-5.77,-1.06,-1.11,-1.14
271.16,4.04,5.19,3.98,5.13,-5.11,-5.11,-5.70,-1.08,-1.13,-1.16
273.87,3.84,5.00,3.91,5.07,-5.07,-5.07,-5.62,-1.24,-1.17,-1.16
276.61,3.81,4.99,3.82,4.99,-5.03,-5.03,-5.54,-1.22,-1.21,-1.18
279.38,3.79,4.98,3.75,4.94,-4.98,-4.99,-5.45,-1.19,-1.22,-1.19
282.17,3.73,4.92,3.75,4.94,-4.92,-4.94,-5.36,-1.20,-1.18,-1.19
284.99,3.70,4.89,3.73,4.92,-4.87,-4.90,-5.26,-1.18,-1.15,-1.19
287.84,3.72,4.91,3.66,4.86,-4.84,-4.85,-5.17,-1.12,-1.17,-1.19
290.72,3.61,4.81,3.58,4.78,-4.80,-4.81,-5.07,-1.20,-1.22,-1.20
293.63,3.46,4.66,3.53,4.73,-4.78,-4.76,-4.97,-1.32,-1.25,-1.21
296.57,3.47,4.67,3.50,4.70,-4.75,-4.71,-4.87,-1.28,-1.25,-1.20
299.53,3.56,4.75,3.51,4.71,-4.71,-4.66,-4.77,-1.15,-1.20,-1.19
302.53,3.54,4.74,3.52,4.71,-4.67,-4.62,-4.67,-1.13,-1.15,-1.20
305.55,3.46,4.66,3.48,4.68,-4.62,-4.57,-4.57,-1.16,-1.14,-1.20
308.61,3.40,4.59,3.41,4.61,-4.58,-4.52,-4.47,-1.18,-1.17,-1.20
311.69,3.36,4.56,3.33,4.53,-4.54,-4.46,-4.37,-1.18,-1.20,-1.20
314.81,3.25,4.45,3.26,4.46,-4.49,-4.41,-4.27,-1.24,-1.23,-1.20
317.96,3.18,4.38,3.18,4.38,-4.43,-4.36,-4.18,-1.25,-1.26,-1.21
321.14,3.11,4.32,3.13,4.34,-4.37,-4.31,-4.08,-1.26,-1.24,-1.21
324.35,3.10,4.31,3.11,4.32,-4.31,-4.26,-3.99,-1.21,-1.19,-1.21
327.59,3.12,4.32,3.07,4.28,-4.25,-4.21,-3.90,-1.13,-1.18,-1.21
330.87,3.03,4.24,3.02,4.23,-4.19,-4.15,-3.81,-1.17,-1.18,-1.21
334.18,2.89,4.11,2.94,4.16,-4.14,-4.10,-3.72,-1.25,-1.20,-1.22
337.52,2.88,4.09,2.86,4.07,-4.09,-4.05,-3.64,-1.21,-1.24,-1.21
340.90,2.81,4.01,2.79,4.00,-4.04,-4.00,-3.56,-1.23,-1.25,-1.21
344.30,2.74,3.94,2.77,3.97,-3.99,-3.94,-3.48,-1.25,-1.22,-1.20
347.75,2.72,3.92,2.72,3.92,-3.93,-3.89,-3.40,-1.21,-1.21,-1.20
351.23,2.72,3.92,2.69,3.88,-3.87,-3.84,-3.33,-1.15,-1.18,-1.20
354.74,2.64,3.82,2.65,3.84,-3.80,-3.78,-3.26,-1.16,-1.15,-1.19
358.28,2.58,3.77,2.59,3.78,-3.74,-3.73,-3.19,-1.16,-1.15,-1.19
361.87,2.53,3.71,2.51,3.69,-3.68,-3.68,-3.12,-1.15,-1.17,-1.18
365.49,2.45,3.62,2.44,3.61,-3.63,-3.62,-3.06,-1.18,-1.19,-1.17
369.14,2.35,3.51,2.36,3.52,-3.57,-3.57,-2.99,-1.22,-1.21,-1.16
372.83,2.29,3.44,2.29,3.46,-3.51,-3.52,-2.93,-1.22,-1.21,-1.16
376.56,2.25,3.42,2.27,3.43,-3.45,-3.46,-2.88,-1.20,-1.18,-1.17
380.33,2.27,3.43,2.26,3.42,-3.39,-3.41,-2.82,-1.12,-1.13,-1.16
384.13,2.26,3.42,2.22,3.38,-3.33,-3.36,-2.77,-1.07,-1.10,-1.16
387.97,2.15,3.30,2.16,3.31,-3.27,-3.31,-2.72,-1.12,-1.11,-1.15
391.85,2.06,3.21,2.07,3.23,-3.22,-3.25,-2.67,-1.16,-1.15,-1.15
395.77,1.97,3.13,1.97,3.14,-3.17,-3.20,-2.62,-1.20,-1.19,-1.16
399.73,1.91,3.08,1.90,3.07,-3.11,-3.15,-2.58,-1.20,-1.21,-1.18
403.72,1.84,3.01,1.85,3.02,-3.05,-3.09,-2.54,-1.21,-1.21,-1.17
407.76,1.80,2.98,1.82,3.00,-2.99,-3.04,-2.49,-1.19,-1.18,-1.18
411.84,1.79,2.98,1.77,2.96,-2.94,-2.99,-2.45,-1.15,-1.17,-1.19
415.96,1.75,2.94,1.72,2.92,-2.89,-2.93,-2.42,-1.14,-1.17,-1.19
420.12,1.63,2.83,1.66,2.86,-2.84,-2.88,-2.38,-1.21,-1.18,-1.20
424.32,1.60,2.79,1.59,2.79,-2.79,-2.83,-2.34,-1.19,-1.20,-1.19
428.56,1.55,2.72,1.54,2.72,-2.74,-2.77,-2.31,-1.19,-1.20,-1.17
432.85,1.51,2.66,1.51,2.67,-2.68,-2.72,-2.27,-1.17,-1.17,-1.16
437.18,1.48,2.62,1.48,2.62,-2.62,-2.66,-2.24,-1.14,-1.14,-1.14
441.55,1.46,2.57,1.47,2.57,-2.56,-2.61,-2.20,-1.10,-1.09,-1.11
445.96,1.46,2.53,1.44,2.51,-2.50,-2.55,-2.17,-1.04,-1.06,-1.07
450.42,1.43,2.45,1.42,2.45,-2.44,-2.50,-2.14,-1.01,-1.02,-1.02
454.93,1.38,2.35,1.41,2.38,-2.38,-2.44,-2.10,-1.01,-0.97,-0.97
459.48,1.42,2.34,1.40,2.31,-2.32,-2.39,-2.07,-0.91,-0.93,-0.92
464.07,1.41,2.26,1.40,2.25,-2.26,-2.33,-2.04,-0.85,-0.86,-0.85
468.71,1.38,2.17,1.41,2.21,-2.19,-2.28,-2.00,-0.82,-0.79,-0.79
473.40,1.41,2.15,1.40,2.14,-2.13,-2.22,-1.97,-0.72,-0.73,-0.74
478.13,1.41,2.09,1.39,2.07,-2.07,-2.17,-1.93,-0.66,-0.68,-0.68
482.91,1.35,1.98,1.37,2.01,-2.01,-2.11,-1.90,-0.66,-0.63,-0.64
487.74,1.35,1.93,1.34,1.93,-1.94,-2.05,-1.86,-0.59,-0.60,-0.59
492.62,1.32,1.86,1.32,1.87,-1.88,-1.99,-1.82,-0.56,-0.56,-0.55
497.55,1.30,1.82,1.30,1.82,-1.81,-1.94,-1.78,-0.52,-0.51,-0.52
502.52,1.28,1.77,1.27,1.76,-1.75,-1.88,-1.74,-0.47,-0.47,-0.49
507.55,1.23,1.69,1.23,1.69,-1.68,-1.82,-1.70,-0.45,-0.45,-0.46
512.62,1.19,1.64,1.17,1.62,-1.61,-1.76,-1.66,-0.43,-0.44,-0.45
517.75,1.09,1.53,1.11,1.55,-1.55,-1.70,-1.61,-0.46,-0.44,-0.44
522.93,1.02,1.47,1.03,1.48,-1.48,-1.64,-1.57,-0.46,-0.45,-0.45
