frequency,raw,error,smoothed,error_smoothed,equalization,parametric_eq,fixed_band_eq,equalized_raw,equalized_smoothed,target
20.00,0.05,-2.18,0.05,-2.18,2.19,1.83,0.36,2.24,2.24,2.23
20.20,0.10,-2.12,0.10,-2.12,2.12,1.81,0.37,2.22,2.22,2.22
20.40,0.14,-2.06,0.14,-2.06,2.06,1.79,0.38,2.20,2.20,2.21
20.61,0.19,-2.02,0.19,-2.01,2.00,1.77,0.40,2.19,2.19,2.21
20.81,0.24,-1.94,0.24,-1.95,1.94,1.75,0.41,2.18,2.18,2.19
21.02,0.28,-1.90,0.28,-1.90,1.89,1.73,0.42,2.17,2.17,2.18
21.23,0.33,-1.85,0.33,-1.85,1.84,1.71,0.44,2.17,2.17,2.18
21.44,0.38,-1.80,0.38,-1.80,1.79,1.68,0.45,2.18,2.18,2.18
21.66,0.43,-1.74,0.43,-1.74,1.75,1.66,0.47,2.18,2.18,2.17
21.87,0.48,-1.69,0.48,-1.70,1.71,1.64,0.49,2.19,2.19,2.17
22.09,0.51,-1.66,0.51,-1.66,1.68,1.61,0.50,2.19,2.19,2.17
22.31,0.53,-1.64,0.53,-1.64,1.65,1.59,0.52,2.18,2.18,2.17
22.54,0.54,-1.62,0.54,-1.63,1.63,1.57,0.54,2.17,2.17,2.16
22.76,0.55,-1.62,0.55,-1.62,1.60,1.54,0.55,2.16,2.15,2.17
22.99,0.56,-1.61,0.57,-1.60,1.58,1.52,0.57,2.14,2.15,2.17
23.22,0.60,-1.57,0.60,-1.57,1.56,1.49,0.59,2.16,2.16,2.17
23.45,0.64,-1.53,0.64,-1.53,1.53,1.47,0.61,2.17,2.16,2.17
23.69,0.68,-1.50,0.68,-1.49,1.49,1.44,0.63,2.17,2.17,2.18
23.92,0.73,-1.45,0.73,-1.45,1.45,1.42,0.65,2.18,2.18,2.18
24.16,0.78,-1.41,0.78,-1.41,1.40,1.39,0.67,2.18,2.18,2.20
24.40,0.83,-1.37,0.83,-1.37,1.36,1.37,0.69,2.19,2.20,2.20
24.65,0.88,-1.32,0.89,-1.32,1.33,1.34,0.71,2.21,2.22,2.20
24.89,0.94,-1.26,0.93,-1.27,1.30,1.31,0.73,2.24,2.23,2.20
25.14,0.96,-1.23,0.96,-1.24,1.27,1.29,0.75,2.23,2.23,2.19
25.39,0.96,-1.23,0.96,-1.23,1.25,1.26,0.77,2.21,2.21,2.19
25.65,0.96,-1.24,0.96,-1.24,1.22,1.23,0.79,2.18,2.17,2.20
25.91,0.96,-1.24,0.97,-1.23,1.18,1.20,0.81,2.14,2.15,2.20
26.16,1.00,-1.20,1.00,-1.19,1.15,1.18,0.83,2.15,2.16,2.20
26.43,1.06,-1.14,1.06,-1.14,1.12,1.15,0.85,2.18,2.18,2.20
26.69,1.12,-1.07,1.12,-1.07,1.09,1.12,0.86,2.21,2.21,2.20
26.96,1.18,-1.01,1.17,-1.02,1.06,1.09,0.88,2.24,2.23,2.19
27.23,1.19,-0.99,1.19,-1.00,1.03,1.06,0.90,2.22,2.22,2.18
27.50,1.19,-0.99,1.20,-0.99,1.01,1.03,0.91,2.20,2.21,2.18
27.77,1.19,-0.99,1.19,-0.99,1.00,1.00,0.93,2.19,2.19,2.18
28.05,1.19,-0.99,1.19,-0.99,0.98,0.97,0.94,2.17,2.17,2.18
28.33,1.19,-0.99,1.19,-0.99,0.97,0.94,0.95,2.16,2.16,2.18
28.62,1.19,-0.97,1.19,-0.98,0.95,0.91,0.96,2.14,2.14,2.17
28.90,1.19,-0.97,1.20,-0.96,0.92,0.88,0.97,2.11,2.12,2.16
29.19,1.23,-0.92,1.24,-0.91,0.89,0.85,0.97,2.12,2.13,2.15
29.48,1.30,-0.85,1.30,-0.85,0.86,0.82,0.98,2.16,2.16,2.15
29.78,1.37,-0.77,1.36,-0.78,0.82,0.79,0.98,2.19,2.18,2.14
30.08,1.42,-0.73,1.41,-0.73,0.77,0.75,0.97,2.19,2.18,2.15
30.38,1.42,-0.70,1.42,-0.71,0.72,0.72,0.97,2.14,2.14,2.13
30.68,1.42,-0.69,1.42,-0.69,0.67,0.69,0.96,2.09,2.09,2.11
30.99,1.42,-0.68,1.44,-0.66,0.62,0.66,0.96,2.04,2.06,2.10
31.30,1.49,-0.61,1.49,-0.61,0.57,0.62,0.94,2.06,2.06,2.10
31.61,1.56,-0.54,1.56,-0.53,0.53,0.59,0.93,2.09,2.09,2.10
31.93,1.63,-0.44,1.62,-0.46,0.50,0.56,0.91,2.13,2.11,2.07
32.24,1.65,-0.42,1.65,-0.42,0.47,0.52,0.89,2.12,2.11,2.07
32.57,1.65,-0.41,1.66,-0.40,0.44,0.49,0.87,2.09,2.10,2.06
32.89,1.65,-0.41,1.65,-0.40,0.42,0.46,0.84,2.07,2.07,2.06
33.22,1.65,-0.40,1.65,-0.41,0.40,0.42,0.82,2.05,2.04,2.05
33.55,1.65,-0.41,1.65,-0.41,0.38,0.39,0.79,2.03,2.03,2.06
33.89,1.65,-0.42,1.66,-0.40,0.36,0.35,0.75,2.01,2.02,2.07
34.23,1.69,-0.36,1.69,-0.36,0.34,0.32,0.72,2.03,2.03,2.06
34.57,1.74,-0.31,1.74,-0.31,0.31,0.28,0.68,2.05,2.05,2.05
34.92,1.80,-0.25,1.79,-0.26,0.27,0.25,0.65,2.07,2.06,2.05
35.27,1.83,-0.22,1.83,-0.22,0.24,0.21,0.61,2.07,2.07,2.06
35.62,1.85,-0.18,1.86,-0.18,0.20,0.17,0.56,2.05,2.06,2.03
35.97,1.88,-0.16,1.87,-0.16,0.17,0.14,0.52,2.05,2.04,2.04
36.33,1.88,-0.14,1.88,-0.14,0.15,0.10,0.48,2.03,2.03,2.02
36.70,1.88,-0.13,1.88,-0.13,0.13,0.06,0.43,2.01,2.02,2.01
37.06,1.88,-0.12,1.88,-0.11,0.12,0.03,0.38,2.00,2.00,2.00
37.43,1.88,-0.09,1.88,-0.10,0.10,-0.01,0.33,1.98,1.98,1.97
37.81,1.88,-0.08,1.88,-0.07,0.07,-0.05,0.29,1.95,1.95,1.96
38.19,1.88,-0.05,1.87,-0.06,0.03,-0.09,0.24,1.91,1.91,1.93
38.57,1.88,-0.02,1.88,-0.03,-0.02,-0.12,0.18,1.86,1.86,1.90
38.95,1.88,0.01,1.91,0.03,-0.07,-0.16,0.13,1.81,1.83,1.87
39.34,1.96,0.12,1.96,0.12,-0.14,-0.20,0.08,1.83,1.83,1.84
39.74,2.04,0.23,2.03,0.22,-0.20,-0.24,0.03,1.84,1.83,1.81
40.14,2.10,0.32,2.08,0.30,-0.26,-0.28,-0.02,1.84,1.83,1.78
40.54,2.10,0.35,2.11,0.35,-0.31,-0.32,-0.08,1.79,1.79,1.75
40.94,2.10,0.37,2.11,0.38,-0.36,-0.36,-0.13,1.74,1.75,1.73
41.35,2.10,0.39,2.10,0.39,-0.40,-0.40,-0.19,1.70,1.70,1.71
41.76,2.10,0.42,2.10,0.41,-0.43,-0.44,-0.24,1.67,1.67,1.68
42.18,2.10,0.43,2.10,0.44,-0.45,-0.48,-0.30,1.65,1.65,1.67
42.60,2.10,0.46,2.10,0.46,-0.46,-0.52,-0.35,1.64,1.64,1.64
43.03,2.10,0.49,2.10,0.49,-0.48,-0.56,-0.41,1.62,1.62,1.61
43.46,2.10,0.51,2.10,0.51,-0.50,-0.60,-0.46,1.60,1.60,1.59
43.90,2.10,0.54,2.10,0.54,-0.53,-0.64,-0.52,1.57,1.57,1.56
44.33,2.10,0.56,2.10,0.56,-0.56,-0.68,-0.58,1.54,1.53,1.54
44.78,2.10,0.59,2.10,0.59,-0.61,-0.72,-0.63,1.49,1.50,1.51
45.23,2.12,0.62,2.12,0.63,-0.66,-0.76,-0.69,1.46,1.46,1.50
45.68,2.15,0.69,2.15,0.69,-0.72,-0.81,-0.75,1.43,1.43,1.46
46.13,2.19,0.76,2.21,0.78,-0.78,-0.85,-0.81,1.41,1.43,1.43
46.60,2.27,0.87,2.26,0.87,-0.85,-0.89,-0.87,1.42,1.42,1.40
47.06,2.33,0.96,2.31,0.94,-0.91,-0.93,-0.93,1.42,1.40,1.37
47.53,2.33,0.99,2.34,1.00,-0.98,-0.98,-0.99,1.36,1.36,1.34
48.01,2.33,1.04,2.34,1.04,-1.03,-1.02,-1.04,1.30,1.30,1.29
48.49,2.33,1.07,2.33,1.08,-1.08,-1.06,-1.10,1.25,1.25,1.26
48.97,2.33,1.12,2.33,1.12,-1.13,-1.11,-1.16,1.20,1.20,1.21
49.46,2.33,1.16,2.33,1.16,-1.16,-1.15,-1.22,1.17,1.17,1.18
49.96,2.33,1.21,2.33,1.20,-1.20,-1.19,-1.29,1.13,1.13,1.12
50.46,2.33,1.23,2.33,1.23,-1.23,-1.24,-1.35,1.10,1.10,1.10
50.96,2.33,1.26,2.33,1.26,-1.26,-1.28,-1.41,1.07,1.07,1.07
51.47,2.33,1.29,2.33,1.30,-1.29,-1.33,-1.47,1.04,1.04,1.04
51.99,2.33,1.33,2.33,1.33,-1.32,-1.37,-1.53,1.01,1.01,1.00
52.51,2.33,1.37,2.33,1.37,-1.36,-1.42,-1.59,0.97,0.97,0.96
53.03,2.33,1.40,2.33,1.41,-1.40,-1.46,-1.64,0.93,0.93,0.93
53.56,2.33,1.45,2.33,1.45,-1.46,-1.51,-1.70,0.87,0.87,0.88
54.10,2.33,1.50,2.32,1.49,-1.53,-1.55,-1.76,0.80,0.79,0.83
54.64,2.33,1.54,2.34,1.56,-1.60,-1.60,-1.82,0.73,0.74,0.79
55.18,2.37,1.63,2.40,1.66,-1.67,-1.65,-1.88,0.70,0.73,0.74
55.74,2.50,1.80,2.48,1.77,-1.75,-1.69,-1.93,0.75,0.73,0.70
56.29,2.56,1.88,2.54,1.86,-1.82,-1.74,-1.98,0.74,0.72,0.68
56.86,2.56,1.91,2.57,1.93,-1.88,-1.79,-2.04,0.68,0.69,0.65
57.42,2.56,1.96,2.57,1.96,-1.94,-1.83,-2.09,0.62,0.63,0.60
58.00,2.56,1.99,2.56,1.99,-1.98,-1.88,-2.14,0.58,0.58,0.57
58.58,2.56,2.01,2.56,2.01,-2.02,-1.93,-2.19,0.54,0.54,0.55
59.16,2.56,2.03,2.56,2.03,-2.06,-1.98,-2.23,0.50,0.50,0.53
59.76,2.56,2.06,2.56,2.07,-2.09,-2.03,-2.28,0.47,0.47,0.50
60.35,2.56,2.11,2.56,2.11,-2.12,-2.07,-2.32,0.44,0.44,0.45
60.96,2.56,2.16,2.56,2.16,-2.16,-2.12,-2.36,0.40,0.40,0.41
61.57,2.56,2.21,2.56,2.21,-2.21,-2.17,-2.40,0.36,0.36,0.35
62.18,2.56,2.26,2.56,2.26,-2.25,-2.22,-2.43,0.31,0.31,0.30
62.80,2.56,2.31,2.56,2.31,-2.30,-2.27,-2.47,0.26,0.26,0.25
63.43,2.56,2.35,2.56,2.35,-2.35,-2.32,-2.50,0.21,0.21,0.21
64.07,2.56,2.39,2.56,2.39,-2.39,-2.37,-2.53,0.17,0.17,0.17
64.71,2.56,2.43,2.56,2.44,-2.44,-2.42,-2.55,0.12,0.12,0.13
65.35,2.56,2.48,2.56,2.48,-2.48,-2.47,-2.58,0.08,0.08,0.08
66.01,2.56,2.52,2.56,2.52,-2.52,-2.52,-2.60,0.04,0.04,0.04
66.67,2.56,2.56,2.56,2.57,-2.57,-2.57,-2.63,-0.01,-0.01,0.00
67.33,2.56,2.62,2.56,2.61,-2.61,-2.61,-2.65,-0.05,-0.05,-0.06
68.01,2.56,2.66,2.56,2.66,-2.65,-2.66,-2.67,-0.09,-0.09,-0.10
68.69,2.56,2.70,2.56,2.70,-2.70,-2.71,-2.69,-0.14,-0.14,-0.14
69.37,2.56,2.74,2.56,2.74,-2.74,-2.76,-2.70,-0.18,-0.18,-0.18
70.07,2.56,2.79,2.56,2.79,-2.79,-2.81,-2.72,-0.23,-0.23,-0.22
70.77,2.56,2.83,2.56,2.83,-2.84,-2.86,-2.74,-0.28,-0.28,-0.27
71.48,2.56,2.88,2.56,2.88,-2.88,-2.91,-2.75,-0.32,-0.32,-0.32
72.19,2.56,2.93,2.56,2.93,-2.93,-2.95,-2.77,-0.37,-0.37,-0.37
72.91,2.56,2.98,2.56,2.98,-2.98,-3.00,-2.79,-0.41,-0.41,-0.41
73.64,2.56,3.02,2.56,3.02,-3.01,-3.05,-2.81,-0.45,-0.45,-0.46
74.38,2.56,3.07,2.56,3.07,-3.05,-3.10,-2.82,-0.49,-0.49,-0.51
75.12,2.56,3.11,2.56,3.11,-3.09,-3.14,-2.84,-0.53,-0.53,-0.55
75.87,2.56,3.14,2.56,3.14,-3.13,-3.19,-2.86,-0.57,-0.57,-0.58
76.63,2.56,3.17,2.56,3.17,-3.17,-3.24,-2.88,-0.61,-0.61,-0.61
77.40,2.56,3.20,2.54,3.18,-3.23,-3.28,-2.91,-0.67,-0.68,-0.64
78.17,2.56,3.24,2.56,3.23,-3.29,-3.33,-2.93,-0.72,-0.72,-0.68
78.95,2.56,3.25,2.62,3.32,-3.35,-3.37,-2.95,-0.78,-0.73,-0.69
79.74,2.73,3.46,2.69,3.42,-3.41,-3.42,-2.98,-0.68,-0.71,-0.73
80.54,2.79,3.54,2.76,3.51,-3.47,-3.46,-3.01,-0.68,-0.71,-0.75
81.35,2.79,3.58,2.80,3.58,-3.53,-3.51,-3.04,-0.74,-0.73,-0.78
82.16,2.79,3.59,2.80,3.61,-3.59,-3.55,-3.08,-0.80,-0.79,-0.80
82.98,2.79,3.64,2.79,3.63,-3.64,-3.60,-3.11,-0.85,-0.85,-0.85
83.81,2.79,3.67,2.79,3.67,-3.69,-3.64,-3.15,-0.90,-0.90,-0.88
84.65,2.79,3.71,2.79,3.71,-3.72,-3.69,-3.19,-0.93,-0.93,-0.92
85.50,2.79,3.75,2.79,3.75,-3.75,-3.73,-3.23,-0.96,-0.96,-0.96
86.35,2.79,3.78,2.79,3.78,-3.79,-3.77,-3.28,-0.99,-0.99,-0.99
87.22,2.79,3.82,2.79,3.82,-3.82,-3.82,-3.32,-1.03,-1.03,-1.03
88.09,2.79,3.86,2.79,3.86,-3.86,-3.86,-3.37,-1.07,-1.07,-1.07
88.97,2.79,3.90,2.79,3.90,-3.90,-3.90,-3.43,-1.11,-1.11,-1.11
89.86,2.79,3.94,2.79,3.94,-3.94,-3.95,-3.48,-1.15,-1.15,-1.15
90.76,2.79,3.98,2.79,3.99,-3.98,-3.99,-3.54,-1.19,-1.19,-1.19
91.66,2.79,4.03,2.79,4.03,-4.02,-4.03,-3.60,-1.23,-1.23,-1.24
92.58,2.79,4.07,2.79,4.07,-4.07,-4.08,-3.66,-1.28,-1.28,-1.28
93.51,2.79,4.10,2.79,4.11,-4.11,-4.12,-3.73,-1.32,-1.32,-1.31
94.44,2.79,4.15,2.79,4.15,-4.15,-4.16,-3.79,-1.36,-1.36,-1.36
95.39,2.79,4.19,2.79,4.19,-4.20,-4.21,-3.86,-1.41,-1.41,-1.40
96.34,2.79,4.24,2.79,4.24,-4.24,-4.25,-3.94,-1.45,-1.45,-1.45
97.30,2.79,4.28,2.79,4.28,-4.28,-4.29,-4.01,-1.49,-1.49,-1.49
98.28,2.79,4.33,2.79,4.33,-4.33,-4.33,-4.09,-1.54,-1.54,-1.54
99.26,2.79,4.38,2.79,4.38,-4.37,-4.37,-4.16,-1.58,-1.58,-1.59
100.25,2.79,4.42,2.79,4.42,-4.41,-4.41,-4.24,-1.62,-1.62,-1.63
101.25,2.79,4.45,2.79,4.46,-4.45,-4.45,-4.32,-1.66,-1.66,-1.65
102.27,2.79,4.49,2.79,4.49,-4.49,-4.49,-4.41,-1.70,-1.70,-1.70
103.29,2.79,4.54,2.79,4.53,-4.53,-4.53,-4.49,-1.74,-1.74,-1.75
104.32,2.79,4.56,2.79,4.57,-4.57,-4.57,-4.57,-1.78,-1.78,-1.77
105.37,2.79,4.60,2.79,4.60,-4.60,-4.61,-4.66,-1.81,-1.81,-1.81
106.42,2.79,4.63,2.79,4.63,-4.63,-4.65,-4.74,-1.84,-1.84,-1.84
107.48,2.79,4.67,2.79,4.66,-4.66,-4.69,-4.83,-1.87,-1.87,-1.88
108.56,2.79,4.69,2.79,4.69,-4.69,-4.72,-4.91,-1.90,-1.90,-1.90
109.64,2.79,4.72,2.79,4.72,-4.72,-4.76,-4.99,-1.93,-1.93,-1.92
110.74,2.79,4.75,2.79,4.75,-4.75,-4.79,-5.07,-1.96,-1.96,-1.96
111.85,2.79,4.78,2.79,4.77,-4.78,-4.83,-5.15,-1.99,-1.99,-1.99
112.97,2.79,4.80,2.79,4.80,-4.81,-4.86,-5.22,-2.02,-2.02,-2.01
114.10,2.79,4.84,2.79,4.84,-4.85,-4.90,-5.30,-2.06,-2.06,-2.05
115.24,2.79,4.88,2.79,4.88,-4.89,-4.93,-5.36,-2.10,-2.10,-2.09
116.39,2.79,4.94,2.79,4.93,-4.92,-4.96,-5.43,-2.13,-2.13,-2.15
117.55,2.79,4.97,2.79,4.98,-4.96,-4.99,-5.49,-2.17,-2.17,-2.18
118.73,2.79,5.01,2.79,5.01,-5.00,-5.02,-5.55,-2.21,-2.21,-2.22
119.92,2.79,5.05,2.79,5.05,-5.04,-5.05,-5.60,-2.25,-2.25,-2.26
121.12,2.79,5.07,2.79,5.08,-5.08,-5.08,-5.64,-2.29,-2.29,-2.28
122.33,2.79,5.12,2.79,5.12,-5.13,-5.11,-5.68,-2.34,-2.34,-2.33
123.55,2.79,5.15,2.79,5.16,-5.17,-5.13,-5.72,-2.38,-2.38,-2.36
124.79,2.79,5.20,2.79,5.20,-5.22,-5.16,-5.75,-2.43,-2.43,-2.41
126.03,2.79,5.25,2.79,5.25,-5.25,-5.19,-5.77,-2.46,-2.46,-2.46
127.29,2.79,5.30,2.80,5.30,-5.28,-5.21,-5.79,-2.49,-2.49,-2.51
128.57,2.79,5.34,2.80,5.35,-5.30,-5.24,-5.80,-2.51,-2.50,-2.55
129.85,2.79,5.37,2.77,5.36,-5.31,-5.26,-5.80,-2.52,-2.54,-2.58
131.15,2.74,5.37,2.71,5.34,-5.32,-5.29,-5.81,-2.58,-2.61,-2.63
132.46,2.61,5.29,2.64,5.32,-5.33,-5.31,-5.80,-2.72,-2.69,-2.68
133.79,2.56,5.28,2.58,5.29,-5.34,-5.33,-5.80,-2.77,-2.76,-2.72
135.12,2.56,5.31,2.55,5.30,-5.34,-5.36,-5.78,-2.78,-2.79,-2.75
136.48,2.56,5.34,2.56,5.34,-5.35,-5.38,-5.77,-2.79,-2.80,-2.78
137.84,2.56,5.37,2.56,5.38,-5.37,-5.41,-5.75,-2.81,-2.81,-2.81
139.22,2.56,5.42,2.56,5.41,-5.40,-5.43,-5.73,-2.84,-2.84,-2.85
140.61,2.56,5.45,2.56,5.45,-5.43,-5.46,-5.70,-2.87,-2.87,-2.89
142.02,2.56,5.48,2.56,5.48,-5.47,-5.48,-5.68,-2.91,-2.91,-2.92
143.44,2.56,5.51,2.56,5.51,-5.51,-5.51,-5.65,-2.95,-2.95,-2.95
144.87,2.56,5.54,2.56,5.54,-5.54,-5.54,-5.62,-2.98,-2.98,-2.98
146.32,2.56,5.57,2.56,5.57,-5.57,-5.56,-5.59,-3.01,-3.01,-3.01
147.78,2.56,5.60,2.56,5.60,-5.60,-5.59,-5.57,-3.04,-3.04,-3.04
149.26,2.56,5.63,2.56,5.63,-5.63,-5.62,-5.54,-3.07,-3.07,-3.07
150.75,2.56,5.67,2.56,5.66,-5.66,-5.65,-5.51,-3.10,-3.10,-3.10
152.26,2.56,5.69,2.56,5.69,-5.69,-5.68,-5.49,-3.13,-3.13,-3.13
153.78,2.56,5.73,2.56,5.72,-5.72,-5.71,-5.46,-3.16,-3.16,-3.17
155.32,2.56,5.75,2.56,5.75,-5.75,-5.74,-5.45,-3.19,-3.19,-3.19
156.88,2.56,5.79,2.56,5.79,-5.79,-5.77,-5.43,-3.23,-3.23,-3.22
158.44,2.56,5.82,2.56,5.82,-5.82,-5.80,-5.41,-3.26,-3.26,-3.26
160.03,2.56,5.85,2.56,5.85,-5.85,-5.83,-5.40,-3.29,-3.29,-3.29
161.63,2.56,5.88,2.56,5.88,-5.88,-5.87,-5.39,-3.32,-3.32,-3.32
163.24,2.56,5.92,2.56,5.92,-5.92,-5.90,-5.38,-3.36,-3.36,-3.36
164.88,2.56,5.95,2.56,5.95,-5.96,-5.93,-5.38,-3.39,-3.39,-3.39
166.53,2.56,5.99,2.56,5.99,-6.00,-5.96,-5.38,-3.43,-3.43,-3.43
168.19,2.56,6.01,2.56,6.02,-6.03,-5.99,-5.39,-3.47,-3.47,-3.45
169.87,2.56,6.05,2.56,6.05,-6.06,-6.02,-5.39,-3.50,-3.50,-3.49
171.57,2.56,6.09,2.56,6.08,-6.08,-6.05,-5.41,-3.52,-3.52,-3.52
173.29,2.56,6.12,2.58,6.14,-6.10,-6.07,-5.42,-3.53,-3.52,-3.56
175.02,2.56,6.16,2.56,6.15,-6.10,-6.10,-5.44,-3.54,-3.55,-3.60
176.77,2.56,6.20,2.50,6.14,-6.11,-6.13,-5.47,-3.55,-3.61,-3.64
178.54,2.38,6.06,2.42,6.10,-6.12,-6.15,-5.50,-3.73,-3.69,-3.67
180.32,2.33,6.06,2.36,6.08,-6.12,-6.18,-5.53,-3.79,-3.77,-3.73
182.13,2.33,6.09,2.32,6.08,-6.13,-6.20,-5.57,-3.80,-3.82,-3.76
183.95,2.33,6.13,2.33,6.13,-6.15,-6.23,-5.61,-3.82,-3.82,-3.80
185.79,2.33,6.17,2.33,6.17,-6.17,-6.25,-5.66,-3.84,-3.84,-3.84
187.65,2.33,6.21,2.33,6.21,-6.20,-6.27,-5.70,-3.87,-3.87,-3.87
189.52,2.33,6.26,2.33,6.25,-6.24,-6.29,-5.76,-3.91,-3.91,-3.92
191.42,2.33,6.28,2.33,6.29,-6.28,-6.31,-5.81,-3.95,-3.95,-3.95
193.33,2.33,6.32,2.33,6.33,-6.32,-6.33,-5.88,-3.99,-3.99,-3.99
195.27,2.33,6.36,2.33,6.36,-6.36,-6.35,-5.94,-4.03,-4.03,-4.03
197.22,2.33,6.40,2.33,6.39,-6.40,-6.37,-6.01,-4.06,-4.06,-4.07
199.19,2.33,6.42,2.33,6.42,-6.43,-6.39,-6.07,-4.10,-4.10,-4.09
201.18,2.33,6.45,2.33,6.45,-6.46,-6.40,-6.15,-4.13,-4.13,-4.12
203.19,2.33,6.48,2.33,6.48,-6.49,-6.42,-6.22,-4.16,-4.16,-4.15
205.23,2.33,6.51,2.33,6.50,-6.50,-6.43,-6.30,-4.17,-4.17,-4.17
207.28,2.33,6.52,2.34,6.54,-6.51,-6.45,-6.38,-4.18,-4.16,-4.19
209.35,2.33,6.55,2.33,6.55,-6.50,-6.46,-6.46,-4.17,-4.17,-4.22
211.44,2.33,6.59,2.28,6.53,-6.50,-6.47,-6.54,-4.17,-4.22,-4.26
213.56,2.18,6.46,2.21,6.49,-6.49,-6.49,-6.62,-4.31,-4.29,-4.28
215.69,2.11,6.42,2.14,6.44,-6.49,-6.50,-6.70,-4.38,-4.35,-4.31
217.85,2.10,6.43,2.09,6.43,-6.48,-6.51,-6.78,-4.38,-4.39,-4.33
220.03,2.10,6.47,2.09,6.46,-6.48,-6.52,-6.86,-4.38,-4.39,-4.37
222.23,2.10,6.49,2.10,6.49,-6.49,-6.53,-6.93,-4.39,-4.39,-4.39
224.45,2.10,6.51,2.10,6.52,-6.50,-6.54,-7.00,-4.40,-4.40,-4.41
226.70,2.10,6.55,2.10,6.54,-6.52,-6.55,-7.07,-4.42,-4.42,-4.44
228.96,2.10,6.56,2.10,6.56,-6.55,-6.56,-7.14,-4.45,-4.45,-4.46
231.25,2.10,6.58,2.10,6.58,-6.58,-6.56,-7.20,-4.48,-4.48,-4.48
233.57,2.10,6.61,2.10,6.60,-6.61,-6.57,-7.25,-4.51,-4.51,-4.51
235.90,2.10,6.63,2.10,6.63,-6.63,-6.58,-7.30,-4.53,-4.53,-4.53
238.26,2.10,6.65,2.10,6.64,-6.65,-6.59,-7.34,-4.55,-4.55,-4.55
240.64,2.10,6.65,2.10,6.66,-6.67,-6.59,-7.37,-4.57,-4.57,-4.55
243.05,2.10,6.67,2.10,6.68,-6.68,-6.60,-7.40,-4.58,-4.58,-4.57
245.48,2.10,6.69,2.10,6.69,-6.68,-6.60,-7.41,-4.58,-4.57,-4.59
247.93,2.10,6.71,2.11,6.72,-6.67,-6.60,-7.42,-4.57,-4.55,-4.61
250.41,2.10,6.71,2.08,6.69,-6.65,-6.61,-7.42,-4.55,-4.57,-4.61
252.92,2.06,6.68,2.02,6.64,-6.63,-6.61,-7.41,-4.57,-4.61,-4.61
255.45,1.91,6.54,1.95,6.58,-6.61,-6.61,-7.39,-4.69,-4.65,-4.63
258.00,1.88,6.52,1.89,6.54,-6.58,-6.61,-7.36,-4.70,-4.69,-4.64
260.58,1.88,6.54,1.87,6.52,-6.56,-6.60,-7.32,-4.68,-4.70,-4.66
263.19,1.88,6.54,1.88,6.54,-6.55,-6.60,-7.28,-4.67,-4.67,-4.66
265.82,1.88,6.55,1.88,6.55,-6.54,-6.60,-7.23,-4.66,-4.66,-4.67
268.48,1.88,6.56,1.88,6.56,-6.54,-6.59,-7.17,-4.66,-4.66,-4.67
271.16,1.88,6.56,1.88,6.56,-6.56,-6.58,-7.11,-4.68,-4.68,-4.68
273.87,1.88,6.57,1.88,6.57,-6.57,-6.57,-7.04,-4.69,-4.69,-4.69
276.61,1.88,6.57,1.88,6.58,-6.59,-6.56,-6.96,-4.71,-4.71,-4.69
279.38,1.88,6.59,1.88,6.58,-6.59,-6.55,-6.89,-4.71,-4.71,-4.71
282.17,1.88,6.58,1.88,6.58,-6.58,-6.53,-6.80,-4.70,-4.70,-4.70
284.99,1.88,6.58,1.89,6.59,-6.56,-6.52,-6.72,-4.68,-4.67,-4.70
287.84,1.88,6.57,1.89,6.58,-6.53,-6.50,-6.63,-4.65,-4.65,-4.69
290.72,1.88,6.58,1.84,6.53,-6.50,-6.48,-6.54,-4.62,-4.66,-4.70
293.63,1.77,6.46,1.77,6.46,-6.46,-6.46,-6.45,-4.69,-4.69,-4.69
296.57,1.66,6.35,1.70,6.39,-6.42,-6.44,-6.36,-4.76,-4.72,-4.69
299.53,1.65,6.34,1.65,6.34,-6.39,-6.41,-6.27,-4.74,-4.75,-4.69
302.53,1.65,6.33,1.64,6.33,-6.37,-6.39,-6.18,-4.72,-4.73,-4.68
305.55,1.65,6.34,1.65,6.33,-6.35,-6.36,-6.09,-4.70,-4.70,-4.69
308.61,1.65,6.33,1.65,6.33,-6.33,-6.34,-6.01,-4.68,-4.68,-4.68
311.69,1.65,6.32,1.65,6.33,-6.31,-6.31,-5.92,-4.66,-4.66,-4.67
314.81,1.65,6.32,1.67,6.34,-6.28,-6.28,-5.84,-4.63,-4.62,-4.67
317.96,1.65,6.32,1.64,6.31,-6.26,-6.25,-5.76,-4.61,-4.62,-4.67
321.14,1.64,6.30,1.59,6.25,-6.23,-6.22,-5.68,-4.59,-4.64,-4.66
324.35,1.47,6.14,1.51,6.18,-6.19,-6.19,-5.61,-4.72,-4.68,-4.67
327.59,1.42,6.08,1.44,6.11,-6.16,-6.16,-5.54,-4.74,-4.71,-4.66
330.87,1.42,6.08,1.41,6.07,-6.13,-6.12,-5.47,-4.71,-4.72,-4.66
334.18,1.42,6.09,1.42,6.07,-6.10,-6.09,-5.41,-4.68,-4.69,-4.67
337.52,1.42,6.07,1.42,6.07,-6.08,-6.06,-5.35,-4.65,-4.65,-4.65
340.90,1.42,6.06,1.42,6.06,-6.05,-6.02,-5.29,-4.63,-4.63,-4.64
344.30,1.42,6.05,1.43,6.06,-6.02,-5.99,-5.24,-4.60,-4.59,-4.63
347.75,1.42,6.04,1.43,6.05,-5.99,-5.96,-5.19,-4.57,-4.57,-4.62
351.23,1.42,6.04,1.38,6.00,-5.96,-5.92,-5.15,-4.54,-4.57,-4.62
354.74,1.32,5.92,1.32,5.92,-5.92,-5.89,-5.11,-4.60,-4.60,-4.60
358.28,1.21,5.81,1.25,5.85,-5.88,-5.85,-5.07,-4.67,-4.63,-4.60
361.87,1.19,5.78,1.19,5.79,-5.85,-5.82,-5.03,-4.66,-4.65,-4.59
365.49,1.19,5.78,1.18,5.77,-5.82,-5.79,-5.01,-4.63,-4.64,-4.59
369.14,1.19,5.77,1.19,5.77,-5.79,-5.75,-4.98,-4.60,-4.60,-4.58
372.83,1.19,5.76,1.19,5.77,-5.76,-5.72,-4.96,-4.56,-4.56,-4.57
376.56,1.19,5.77,1.21,5.78,-5.73,-5.68,-4.94,-4.53,-4.52,-4.58
380.33,1.19,5.76,1.19,5.76,-5.70,-5.65,-4.92,-4.51,-4.51,-4.57
384.13,1.19,5.76,1.14,5.70,-5.67,-5.61,-4.91,-4.48,-4.53,-4.56
387.97,1.04,5.60,1.07,5.63,-5.64,-5.57,-4.90,-4.60,-4.57,-4.56
391.85,0.97,5.53,1.00,5.56,-5.61,-5.54,-4.90,-4.64,-4.61,-4.56
395.77,0.96,5.52,0.95,5.51,-5.58,-5.50,-4.90,-4.62,-4.62,-4.56
399.73,0.96,5.52,0.95,5.51,-5.54,-5.47,-4.90,-4.58,-4.59,-4.56
403.72,0.96,5.50,0.96,5.51,-5.50,-5.43,-4.90,-4.54,-4.54,-4.54
407.76,0.96,5.50,0.98,5.52,-5.46,-5.39,-4.91,-4.50,-4.48,-4.54
411.84,0.96,5.50,0.96,5.49,-5.42,-5.36,-4.91,-4.46,-4.47,-4.53
415.96,0.96,5.48,0.90,5.43,-5.39,-5.32,-4.92,-4.43,-4.49,-4.52
420.12,0.79,5.31,0.83,5.34,-5.36,-5.29,-4.93,-4.57,-4.53,-4.52
424.32,0.74,5.25,0.77,5.27,-5.33,-5.25,-4.94,-4.59,-4.56,-4.51
428.56,0.74,5.23,0.73,5.22,-5.29,-5.21,-4.96,-4.55,-4.56,-4.49
432.85,0.74,5.22,0.74,5.22,-5.25,-5.17,-4.97,-4.51,-4.51,-4.48
437.18,0.74,5.22,0.74,5.22,-5.20,-5.14,-4.98,-4.46,-4.46,-4.48
441.55,0.74,5.20,0.76,5.22,-5.16,-5.10,-4.99,-4.42,-4.40,-4.46
445.96,0.74,5.19,0.74,5.19,-5.12,-5.06,-5.01,-4.38,-4.38,-4.45
450.42,0.74,5.17,0.68,5.12,-5.08,-5.02,-5.02,-4.34,-4.40,-4.43
454.93,0.56,4.99,0.60,5.03,-5.05,-4.99,-5.02,-4.49,-4.44,-4.43
459.48,0.51,4.93,0.54,4.95,-5.01,-4.95,-5.03,-4.50,-4.47,-4.42
464.07,0.51,4.91,0.50,4.90,-4.97,-4.91,-5.04,-4.45,-4.47,-4.40
468.71,0.51,4.90,0.51,4.89,-4.92,-4.87,-5.04,-4.41,-4.41,-4.39
473.40,0.51,4.88,0.52,4.89,-4.87,-4.83,-5.04,-4.36,-4.35,-4.37
478.13,0.51,4.87,0.52,4.88,-4.82,-4.79,-5.03,-4.31,-4.30,-4.36
482.91,0.51,4.86,0.49,4.84,-4.78,-4.75,-5.03,-4.27,-4.29,-4.35
487.74,0.46,4.79,0.43,4.76,-4.74,-4.71,-5.02,-4.28,-4.31,-4.33
492.62,0.32,4.63,0.36,4.67,-4.70,-4.67,-5.00,-4.38,-4.34,-4.31
497.55,0.28,4.57,0.30,4.59,-4.65,-4.63,-4.98,-4.37,-4.36,-4.29
