frequency,raw
20.00,0.93
20.20,1.00
20.40,1.05
20.61,1.11
20.81,1.18
21.02,1.23
21.23,1.29
21.44,1.35
21.66,1.41
21.87,1.47
22.09,1.52
22.31,1.58
22.54,1.63
22.76,1.70
22.99,1.74
23.22,1.80
23.45,1.85
23.69,1.89
23.92,1.94
24.16,1.99
24.40,2.04
24.65,2.10
24.89,2.16
25.14,2.19
25.39,2.22
25.65,2.23
25.91,2.25
26.16,2.28
26.43,2.33
26.69,2.37
26.96,2.40
27.23,2.46
27.50,2.54
27.77,2.61
28.05,2.67
28.33,2.74
28.62,2.81
28.90,2.88
29.19,2.91
29.48,2.91
29.78,2.92
30.08,2.95
30.38,3.02
30.68,3.10
30.99,3.18
31.30,3.19
31.61,3.19
31.93,3.19
32.24,3.26
32.57,3.33
32.89,3.41
33.22,3.43
33.55,3.42
33.89,3.41
34.23,3.46
34.57,3.53
34.92,3.61
35.27,3.62
35.62,3.62
35.97,3.62
36.33,3.70
36.70,3.78
37.06,3.85
37.43,3.85
37.81,3.86
38.19,3.87
38.57,3.88
38.95,3.89
39.34,3.98
39.74,4.07
40.14,4.15
40.54,4.15
40.94,4.16
41.35,4.16
41.76,4.16
42.18,4.16
42.60,4.16
43.03,4.17
43.46,4.27
43.90,4.36
44.33,4.38
44.78,4.38
45.23,4.37
45.68,4.37
46.13,4.37
46.60,4.37
47.06,4.37
47.53,4.48
48.01,4.59
48.49,4.60
48.97,4.60
49.46,4.59
49.96,4.59
50.46,4.59
50.96,4.59
51.47,4.58
51.99,4.58
52.51,4.70
53.03,4.81
53.56,4.82
54.10,4.82
54.64,4.82
55.18,4.83
55.74,4.82
56.29,4.82
56.86,4.82
57.42,4.82
58.00,4.82
58.58,4.82
59.16,4.82
59.76,4.82
60.35,4.90
60.96,5.04
61.57,5.04
62.18,5.04
62.80,5.04
63.43,5.04
64.07,5.05
64.71,5.05
65.35,5.06
66.01,5.07
66.67,5.07
67.33,5.08
68.01,5.08
68.69,5.08
69.37,5.09
70.07,5.09
70.77,5.10
71.48,5.10
72.19,5.10
72.91,5.11
73.64,5.25
74.38,5.33
75.12,5.33
75.87,5.33
76.63,5.33
77.40,5.32
78.17,5.32
78.95,5.31
79.74,5.31
80.54,5.30
81.35,5.29
82.16,5.29
82.98,5.29
83.81,5.29
84.65,5.29
85.50,5.30
86.35,5.30
87.22,5.31
88.09,5.31
88.97,5.32
89.86,5.32
90.76,5.33
91.66,5.33
92.58,5.34
93.51,5.34
94.44,5.35
95.39,5.35
96.34,5.35
97.30,5.35
98.28,5.36
99.26,5.36
100.25,5.36
101.25,5.37
102.27,5.37
103.29,5.38
104.32,5.38
105.37,5.38
106.42,5.38
107.48,5.38
108.56,5.37
109.64,5.37
110.74,5.36
111.85,5.35
112.97,5.34
114.10,5.34
115.24,5.34
116.39,5.34
117.55,5.34
118.73,5.34
119.92,5.34
121.12,5.34
122.33,5.35
123.55,5.35
124.79,5.36
126.03,5.37
127.29,5.37
128.57,5.38
129.85,5.38
131.15,5.39
132.46,5.40
133.79,5.40
135.12,5.40
136.48,5.40
137.84,5.40
139.22,5.41
140.61,5.41
142.02,5.41
143.44,5.41
144.87,5.42
146.32,5.42
147.78,5.42
149.26,5.42
150.75,5.42
152.26,5.42
153.78,5.43
155.32,5.43
156.88,5.42
158.44,5.42
160.03,5.42
161.63,5.42
163.24,5.42
164.88,5.42
166.53,5.42
168.19,5.41
169.87,5.41
171.57,5.41
173.29,5.41
175.02,5.41
176.77,5.41
178.54,5.41
180.32,5.42
182.13,5.42
183.95,5.43
185.79,5.43
187.65,5.27
189.52,5.22
191.42,5.22
193.33,5.22
195.27,5.22
197.22,5.22
199.19,5.21
201.18,5.21
203.19,5.21
205.23,5.20
207.28,5.20
209.35,5.20
211.44,5.20
213.56,5.20
215.69,5.20
217.85,5.20
220.03,5.20
222.23,5.21
224.45,5.10
226.70,4.99
228.96,4.98
231.25,4.98
233.57,4.99
235.90,4.99
238.26,4.99
240.64,5.00
243.05,5.00
245.48,5.00
247.93,5.00
250.41,5.00
252.92,5.00
255.45,5.00
258.00,5.00
260.58,4.86
263.19,4.78
265.82,4.78
268.48,4.78
271.16,4.78
273.87,4.77
276.61,4.77
279.38,4.77
282.17,4.77
284.99,4.76
287.84,4.76
290.72,4.69
293.63,4.55
296.57,4.52
299.53,4.52
302.53,4.52
305.55,4.52
308.61,4.52
311.69,4.51
314.81,4.51
317.96,4.37
321.14,4.28
324.35,4.28
327.59,4.28
330.87,4.28
334.18,4.28
337.52,4.28
340.90,4.27
344.30,4.10
347.75,4.04
351.23,4.04
354.74,4.04
358.28,4.04
361.87,4.04
365.49,4.04
369.14,4.02
372.83,3.87
376.56,3.81
380.33,3.81
384.13,3.81
387.97,3.82
391.85,3.81
395.77,3.65
399.73,3.60
403.72,3.60
407.76,3.60
411.84,3.60
415.96,3.59
420.12,3.41
424.32,3.35
428.56,3.35
432.85,3.35
437.18,3.35
441.55,3.34
445.96,3.18
450.42,3.10
454.93,3.10
459.48,3.10
464.07,3.00
468.71,2.90
473.40,2.87
478.13,2.86
482.91,2.86
487.74,2.85
492.62,2.75
497.55,2.64
502.52,2.60
507.55,2.59
512.62,2.59
517.75,2.54
522.93,2.38
528.16,2.33
533.44,2.32
538.77,2.31
544.16,2.14
549.60,2.07
555.10,2.02
560.65,1.85
566.25,1.80
571.92,1.78
577.64,1.77
583.41,1.75
589.25,1.57
595.14,1.50
601.09,1.49
607.10,1.48
613.17,1.33
619.30,1.25
625.50,1.23
631.75,1.20
638.07,1.01
644.45,0.97
650.89,0.96
657.40,0.95
663.98,0.78
670.62,0.70
677.32,0.64
684.10,0.50
690.94,0.43
697.85,0.41
704.83,0.39
711.87,0.37
718.99,0.18
726.18,0.10
733.44,0.09
740.78,0.06
748.19,-0.09
755.67,-0.21
763.23,-0.24
770.86,-0.27
778.57,-0.34
786.35,-0.52
794.22,-0.58
802.16,-0.60
810.18,-0.62
818.28,-0.65
826.46,-0.70
834.73,-0.88
843.08,-0.96
851.51,-0.98
860.02,-1.01
868.62,-1.03
877.31,-1.06
886.08,-1.08
894.94,-1.09
903.89,-1.11
912.93,-1.13
922.06,-1.15
931.28,-1.16
940.59,-1.18
950.00,-1.18
959.50,-1.19
969.09,-1.20
978.78,-1.19
988.57,-1.03
998.46,-0.96
1008.44,-0.94
1018.53,-0.93
1028.71,-0.91
1039.00,-0.89
1049.39,-0.72
1059.88,-0.62
1070.48,-0.59
1081.19,-0.56
1092.00,-0.47
1102.92,-0.29
1113.95,-0.23
1125.09,-0.04
1136.34,0.07
1147.70,0.11
1159.18,0.14
1170.77,0.18
1182.48,0.30
1194.30,0.43
1206.25,0.47
1218.31,0.67
1230.49,0.75
1242.80,0.77
1255.22,0.79
1267.78,0.80
1280.45,0.94
1293.26,1.03
1306.19,1.05
1319.25,1.05
1332.45,1.05
1345.77,1.05
1359.23,1.17
1372.82,1.25
1386.55,1.27
1400.41,1.27
1414.42,1.26
1428.56,1.25
1442.85,1.24
1457.28,1.23
1471.85,1.21
1486.57,1.19
1501.43,1.18
1516.45,1.16
1531.61,1.15
1546.93,1.13
1562.40,1.10
1578.02,1.08
1593.80,1.06
1609.74,1.04
1625.84,1.02
1642.10,1.00
1658.52,0.98
1675.10,0.95
1691.85,0.93
1708.77,0.91
1725.86,0.89
1743.12,0.86
1760.55,0.83
1778.15,0.80
1795.94,0.77
1813.90,0.73
1832.03,0.70
1850.36,0.67
1868.86,0.63
1887.55,0.59
1906.42,0.56
1925.49,0.52
1944.74,0.48
1964.19,0.44
1983.83,0.41
2003.67,0.38
2023.71,0.35
2043.94,0.33
2064.38,0.31
2085.03,0.29
2105.88,0.28
2126.94,0.26
2148.20,0.25
2169.69,0.24
2191.38,0.23
2213.30,0.39
2235.43,0.43
2257.78,0.42
2280.36,0.41
2303.17,0.48
2326.20,0.57
2349.46,0.58
2372.95,0.56
2396.68,0.55
2420.65,0.59
2444.86,0.71
2469.31,0.73
2494.00,0.86
2518.94,0.93
2544.13,1.12
2569.57,1.18
2595.27,1.24
2621.22,1.37
2647.43,1.53
2673.90,1.62
2700.64,1.65
2727.65,1.68
2754.93,1.86
2782.48,1.91
2810.30,2.02
2838.40,2.15
2866.79,2.18
2895.46,2.19
2924.41,2.21
2953.65,2.23
2983.19,2.25
3013.02,2.27
3043.15,2.29
3073.58,2.32
3104.32,2.34
3135.36,2.20
3166.72,2.13
3198.38,2.03
3230.37,2.03
3262.67,2.07
3295.30,1.95
3328.25,1.93
3361.53,1.78
3395.15,1.64
3429.10,1.55
3463.39,1.37
3498.03,1.16
3533.01,1.12
3568.34,0.96
3604.02,0.76
3640.06,0.55
3676.46,0.44
3713.22,0.33
3750.36,0.30
3787.86,0.15
3825.74,-0.02
3864.00,-0.08
3902.64,-0.16
3941.66,-0.25
3981.08,-0.30
4020.89,-0.42
4061.10,-0.62
4101.71,-0.67
4142.73,-0.78
4184.15,-0.79
4226.00,-0.90
4268.26,-1.12
4310.94,-1.37
4354.05,-1.46
4397.59,-1.68
4441.56,-2.01
4485.98,-2.41
4530.84,-2.90
4576.15,-3.45
4621.91,-4.00
4668.13,-4.46
4714.81,-4.93
4761.96,-5.19
4809.58,-5.46
4857.67,-5.80
4906.25,-6.08
4955.31,-6.29
5004.87,-6.49
5054.91,-6.67
5105.46,-6.86
5156.52,-6.90
5208.08,-6.96
5260.16,-6.91
5312.77,-6.80
5365.89,-6.68
5419.55,-6.56
5473.75,-6.46
5528.49,-6.35
5583.77,-6.09
5639.61,-5.93
5696.00,-5.83
5752.96,-5.69
5810.49,-5.37
5868.60,-5.13
5927.28,-4.87
5986.56,-4.54
6046.42,-4.20
6106.89,-4.02
6167.96,-3.80
6229.64,-3.59
6291.93,-3.35
6354.85,-2.99
6418.40,-2.63
6482.58,-2.31
6547.41,-2.03
6612.88,-1.87
6679.01,-1.61
6745.80,-1.31
6813.26,-1.03
6881.39,-0.92
6950.21,-0.72
7019.71,-0.60
7089.91,-0.45
7160.81,-0.40
7232.41,-0.40
7304.74,-0.40
7377.79,-0.41
7451.56,-0.37
7526.08,-0.22
7601.34,-0.17
7677.35,-0.04
7754.13,0.08
7831.67,0.31
7909.98,0.64
7989.08,0.99
8068.98,1.32
8149.67,1.76
8231.16,2.17
8313.47,2.53
8396.61,2.87
8480.57,3.26
8565.38,3.67
8651.03,4.06
8737.54,4.39
8824.92,4.60
8913.17,4.77
9002.30,4.88
9092.32,4.91
9183.25,4.94
9275.08,4.95
9367.83,4.95
9461.51,4.82
9556.12,4.74
9651.68,4.64
9748.20,4.73
9845.68,4.88
9944.14,5.01
10043.58,4.98
10144.02,4.85
10245.46,4.70
10347.91,4.27
10451.39,3.59
10555.91,2.75
10661.46,1.98
10768.08,1.26
10875.76,0.67
10984.52,-0.11
11094.36,-0.86
11205.31,-1.56
11317.36,-2.18
11430.53,-2.70
11544.84,-3.18
11660.29,-3.88
11776.89,-4.61
11894.66,-5.31
12013.60,-5.97
12133.74,-6.49
12255.08,-6.96
12377.63,-7.48
12501.41,-7.97
12626.42,-8.59
12752.68,-9.14
12880.21,-9.64
13009.01,-10.00
13139.10,-10.28
13270.49,-10.49
13403.20,-10.84
13537.23,-11.20
13672.60,-11.57
13809.33,-11.82
13947.42,-11.97
14086.90,-11.95
14227.77,-12.01
14370.04,-12.01
14513.74,-11.98
14658.88,-11.89
14805.47,-11.78
14953.52,-11.75
15103.06,-11.79
15254.09,-11.92
15406.63,-12.15
15560.70,-12.41
15716.30,-12.63
15873.47,-13.00
16032.20,-13.44
16192.52,-13.86
16354.45,-14.24
16517.99,-14.42
16683.17,-14.46
16850.01,-14.38
17018.51,-14.34
17188.69,-14.26
17360.58,-14.11
17534.18,-13.89
17709.53,-13.82
17886.62,-13.73
18065.49,-13.70
18246.14,-13.64
18428.60,-13.32
18612.89,-12.81
18799.02,-12.08
18987.01,-11.43
19176.88,-10.97
19368.65,-10.95
19562.33,-11.81
19757.96,-13.07
19955.54,-14.17
