frequency,raw,error,smoothed,error_smoothed,equalization,parametric_eq,fixed_band_eq,equalized_raw,equalized_smoothed,target
20.00,-11.27,-16.26,-11.27,-16.26,6.00,5.72,2.81,-5.27,-5.27,4.99
20.20,-11.14,-16.17,-11.14,-16.17,6.00,5.73,2.89,-5.14,-5.14,5.03
20.40,-11.01,-16.09,-11.01,-16.08,6.00,5.74,2.98,-5.01,-5.01,5.07
20.61,-10.89,-15.98,-10.89,-15.99,6.00,5.75,3.06,-4.89,-4.89,5.09
20.81,-10.76,-15.89,-10.76,-15.89,6.00,5.76,3.15,-4.76,-4.76,5.13
21.02,-10.64,-15.81,-10.63,-15.80,6.00,5.77,3.24,-4.64,-4.63,5.17
21.23,-10.51,-15.70,-10.51,-15.70,6.00,5.78,3.33,-4.51,-4.51,5.19
21.44,-10.38,-15.59,-10.38,-15.59,6.00,5.79,3.43,-4.38,-4.38,5.21
21.66,-10.26,-15.49,-10.26,-15.48,6.00,5.80,3.52,-4.26,-4.26,5.23
21.87,-10.12,-15.36,-10.13,-15.37,6.00,5.81,3.62,-4.12,-4.13,5.24
22.09,-10.00,-15.26,-10.00,-15.26,6.00,5.82,3.73,-4.00,-4.00,5.26
22.31,-9.87,-15.14,-9.87,-15.14,6.00,5.83,3.83,-3.87,-3.87,5.27
22.54,-9.75,-15.02,-9.75,-15.02,6.00,5.84,3.94,-3.75,-3.75,5.27
22.76,-9.62,-14.89,-9.62,-14.89,6.00,5.85,4.05,-3.62,-3.62,5.28
22.99,-9.49,-14.76,-9.49,-14.77,6.00,5.86,4.17,-3.49,-3.49,5.28
23.22,-9.36,-14.64,-9.35,-14.64,6.00,5.87,4.28,-3.36,-3.35,5.29
23.45,-9.22,-14.51,-9.22,-14.51,6.00,5.88,4.40,-3.22,-3.22,5.30
23.69,-9.09,-14.39,-9.09,-14.40,6.00,5.89,4.53,-3.09,-3.09,5.31
23.92,-8.95,-14.28,-8.95,-14.28,6.00,5.90,4.65,-2.95,-2.95,5.33
24.16,-8.83,-14.17,-8.83,-14.17,6.00,5.91,4.78,-2.83,-2.83,5.34
24.40,-8.69,-14.05,-8.70,-14.05,6.00,5.92,4.91,-2.69,-2.70,5.35
24.65,-8.57,-13.92,-8.56,-13.93,6.00,5.93,5.04,-2.57,-2.56,5.35
24.89,-8.43,-13.81,-8.43,-13.80,6.00,5.95,5.17,-2.43,-2.43,5.37
25.14,-8.29,-13.68,-8.30,-13.68,6.00,5.96,5.30,-2.29,-2.30,5.38
25.39,-8.16,-13.56,-8.17,-13.56,6.00,5.97,5.44,-2.16,-2.17,5.39
25.65,-8.04,-13.44,-8.03,-13.44,6.00,5.98,5.58,-2.04,-2.03,5.40
25.91,-7.91,-13.32,-7.90,-13.31,6.00,5.99,5.71,-1.91,-1.90,5.41
26.16,-7.76,-13.18,-7.77,-13.19,6.00,6.00,5.85,-1.76,-1.77,5.42
26.43,-7.64,-13.07,-7.64,-13.07,6.00,6.01,5.99,-1.64,-1.64,5.43
26.69,-7.51,-12.95,-7.50,-12.95,6.00,6.02,6.12,-1.51,-1.50,5.45
26.96,-7.37,-12.82,-7.37,-12.83,6.00,6.03,6.26,-1.37,-1.37,5.46
27.23,-7.24,-12.70,-7.23,-12.70,6.00,6.03,6.39,-1.24,-1.23,5.47
27.50,-7.10,-12.58,-7.10,-12.58,6.00,6.04,6.51,-1.10,-1.10,5.49
27.77,-6.96,-12.45,-6.97,-12.45,6.00,6.05,6.64,-0.96,-0.97,5.49
28.05,-6.84,-12.34,-6.83,-12.33,6.00,6.06,6.76,-0.84,-0.83,5.50
28.33,-6.70,-12.20,-6.70,-12.21,6.00,6.07,6.87,-0.70,-0.70,5.50
28.62,-6.57,-12.09,-6.57,-12.09,6.00,6.08,6.98,-0.57,-0.57,5.52
28.90,-6.44,-11.97,-6.43,-11.96,6.00,6.09,7.07,-0.44,-0.43,5.53
29.19,-6.30,-11.84,-6.30,-11.84,6.00,6.09,7.17,-0.30,-0.30,5.54
29.48,-6.17,-11.72,-6.17,-11.72,6.00,6.10,7.25,-0.17,-0.17,5.56
29.78,-6.04,-11.60,-6.04,-11.60,6.00,6.11,7.32,-0.04,-0.04,5.57
30.08,-5.91,-11.48,-5.90,-11.48,6.00,6.12,7.38,0.09,0.10,5.58
30.38,-5.77,-11.35,-5.77,-11.36,6.00,6.12,7.43,0.23,0.23,5.58
30.68,-5.64,-11.23,-5.64,-11.23,6.00,6.13,7.47,0.36,0.36,5.59
30.99,-5.51,-11.11,-5.50,-11.11,6.00,6.13,7.50,0.49,0.50,5.60
31.30,-5.37,-10.98,-5.37,-10.98,6.00,6.14,7.51,0.63,0.63,5.61
31.61,-5.24,-10.87,-5.24,-10.86,6.00,6.14,7.52,0.76,0.76,5.63
31.93,-5.11,-10.74,-5.11,-10.74,6.00,6.15,7.50,0.89,0.89,5.63
32.24,-4.98,-10.62,-4.98,-10.62,6.00,6.15,7.49,1.02,1.02,5.64
32.57,-4.86,-10.50,-4.86,-10.50,6.00,6.15,7.45,1.14,1.14,5.64
32.89,-4.74,-10.40,-4.74,-10.39,6.00,6.15,7.41,1.26,1.26,5.66
33.22,-4.62,-10.28,-4.62,-10.28,6.00,6.16,7.35,1.38,1.38,5.66
33.55,-4.49,-10.17,-4.50,-10.17,6.00,6.16,7.29,1.51,1.50,5.68
33.89,-4.38,-10.05,-4.37,-10.06,6.00,6.16,7.22,1.62,1.63,5.68
34.23,-4.25,-9.94,-4.25,-9.94,6.00,6.16,7.14,1.75,1.75,5.70
34.57,-4.13,-9.82,-4.13,-9.82,6.00,6.15,7.05,1.87,1.87,5.69
34.92,-4.00,-9.70,-4.00,-9.70,6.00,6.15,6.96,2.00,2.00,5.70
35.27,-3.88,-9.59,-3.87,-9.58,6.00,6.15,6.86,2.12,2.13,5.71
35.62,-3.75,-9.45,-3.75,-9.46,6.00,6.14,6.76,2.25,2.25,5.71
35.97,-3.62,-9.33,-3.63,-9.34,6.00,6.14,6.65,2.38,2.37,5.71
36.33,-3.50,-9.23,-3.50,-9.22,6.00,6.13,6.54,2.50,2.50,5.72
36.70,-3.38,-9.10,-3.38,-9.10,6.00,6.13,6.43,2.62,2.62,5.72
37.06,-3.25,-8.96,-3.26,-8.97,6.00,6.12,6.32,2.75,2.74,5.71
37.43,-3.13,-8.85,-3.13,-8.84,6.00,6.11,6.21,2.87,2.87,5.71
37.81,-3.01,-8.72,-3.01,-8.72,6.00,6.10,6.10,2.99,2.99,5.71
38.19,-2.89,-8.60,-2.89,-8.60,6.00,6.09,5.98,3.11,3.11,5.71
38.57,-2.77,-8.48,-2.76,-8.47,6.00,6.08,5.87,3.23,3.24,5.72
38.95,-2.63,-8.34,-2.64,-8.34,6.00,6.06,5.76,3.37,3.36,5.70
39.34,-2.51,-8.21,-2.52,-8.22,6.00,6.05,5.66,3.49,3.48,5.70
39.74,-2.40,-8.08,-2.40,-8.09,6.00,6.03,5.55,3.60,3.60,5.69
40.14,-2.28,-7.97,-2.28,-7.96,6.00,6.01,5.45,3.72,3.72,5.69
40.54,-2.16,-7.84,-2.16,-7.84,6.00,5.99,5.35,3.84,3.84,5.68
40.94,-2.04,-7.72,-2.04,-7.72,6.00,5.97,5.25,3.96,3.96,5.69
41.35,-1.92,-7.60,-1.92,-7.60,6.00,5.95,5.16,4.08,4.08,5.68
41.76,-1.79,-7.47,-1.80,-7.48,6.00,5.93,5.07,4.21,4.20,5.68
42.18,-1.68,-7.36,-1.67,-7.35,6.00,5.90,4.98,4.32,4.33,5.68
42.60,-1.55,-7.23,-1.55,-7.24,6.00,5.88,4.89,4.45,4.45,5.68
43.03,-1.44,-7.12,-1.44,-7.12,6.00,5.85,4.81,4.56,4.56,5.68
43.46,-1.33,-7.01,-1.33,-7.01,6.00,5.82,4.74,4.67,4.67,5.68
43.90,-1.23,-6.90,-1.22,-6.90,6.00,5.79,4.66,4.77,4.78,5.68
44.33,-1.12,-6.79,-1.12,-6.79,6.00,5.76,4.59,4.88,4.88,5.67
44.78,-1.01,-6.67,-1.01,-6.67,6.00,5.73,4.52,4.99,4.99,5.67
45.23,-0.90,-6.57,-0.90,-6.56,6.01,5.69,4.46,5.11,5.11,5.67
45.68,-0.79,-6.45,-0.79,-6.46,6.02,5.65,4.40,5.23,5.23,5.66
46.13,-0.69,-6.35,-0.69,-6.36,6.02,5.61,4.34,5.33,5.33,5.67
46.60,-0.59,-6.27,-0.59,-6.26,6.02,5.57,4.29,5.43,5.43,5.68
47.06,-0.50,-6.17,-0.49,-6.17,6.00,5.53,4.24,5.50,5.51,5.68
47.53,-0.40,-6.08,-0.40,-6.08,5.97,5.48,4.19,5.57,5.57,5.68
48.01,-0.30,-5.99,-0.30,-5.99,5.92,5.44,4.15,5.63,5.62,5.69
48.49,-0.21,-5.89,-0.21,-5.89,5.86,5.39,4.10,5.65,5.65,5.69
48.97,-0.12,-5.78,-0.11,-5.78,5.78,5.34,4.07,5.67,5.67,5.67
49.46,-0.02,-5.68,-0.02,-5.68,5.69,5.29,4.03,5.68,5.68,5.66
49.96,0.08,-5.56,0.08,-5.57,5.59,5.23,4.00,5.68,5.68,5.64
50.46,0.18,-5.47,0.18,-5.47,5.49,5.18,3.97,5.67,5.67,5.66
50.96,0.27,-5.37,0.28,-5.36,5.38,5.12,3.94,5.65,5.65,5.65
51.47,0.37,-5.26,0.37,-5.26,5.27,5.06,3.91,5.64,5.64,5.63
51.99,0.47,-5.16,0.47,-5.16,5.16,4.99,3.89,5.63,5.63,5.63
52.51,0.56,-5.07,0.57,-5.06,5.06,4.93,3.86,5.62,5.62,5.63
53.03,0.66,-4.96,0.66,-4.96,4.95,4.86,3.84,5.62,5.62,5.62
53.56,0.76,-4.85,0.76,-4.85,4.84,4.79,3.82,5.61,5.61,5.61
54.10,0.86,-4.73,0.86,-4.73,4.74,4.72,3.80,5.60,5.60,5.59
54.64,0.96,-4.62,0.96,-4.62,4.62,4.65,3.78,5.59,5.58,5.58
55.18,1.05,-4.52,1.06,-4.51,4.51,4.57,3.77,5.57,5.57,5.57
55.74,1.15,-4.40,1.16,-4.40,4.40,4.49,3.75,5.55,5.55,5.55
56.29,1.25,-4.29,1.25,-4.29,4.29,4.41,3.73,5.54,5.54,5.55
56.86,1.35,-4.17,1.35,-4.17,4.18,4.33,3.71,5.53,5.53,5.53
57.42,1.44,-4.06,1.45,-4.06,4.07,4.25,3.69,5.51,5.52,5.50
58.00,1.54,-3.95,1.54,-3.95,3.96,4.16,3.67,5.50,5.50,5.49
58.58,1.63,-3.85,1.63,-3.85,3.85,4.07,3.65,5.49,5.48,5.48
59.16,1.71,-3.75,1.72,-3.75,3.74,3.98,3.63,5.46,5.46,5.47
59.76,1.80,-3.65,1.80,-3.65,3.64,3.89,3.61,5.44,5.44,5.45
60.35,1.88,-3.54,1.89,-3.54,3.53,3.79,3.58,5.41,5.41,5.43
60.96,1.97,-3.43,1.97,-3.43,3.42,3.70,3.56,5.39,5.39,5.40
61.57,2.05,-3.31,2.06,-3.32,3.32,3.60,3.53,5.37,5.37,5.37
62.18,2.13,-3.21,2.14,-3.21,3.22,3.50,3.50,5.35,5.35,5.34
62.80,2.21,-3.10,2.21,-3.11,3.12,3.40,3.47,5.33,5.33,5.32
63.43,2.27,-3.02,2.28,-3.01,3.03,3.30,3.44,5.30,5.30,5.29
64.07,2.33,-2.93,2.33,-2.93,2.94,3.20,3.40,5.27,5.27,5.26
64.71,2.38,-2.86,2.38,-2.86,2.86,3.10,3.36,5.24,5.24,5.25
65.35,2.43,-2.78,2.43,-2.79,2.78,3.00,3.32,5.21,5.21,5.22
66.01,2.48,-2.71,2.48,-2.71,2.70,2.90,3.28,5.19,5.19,5.20
66.67,2.53,-2.64,2.53,-2.63,2.63,2.80,3.24,5.16,5.17,5.17
67.33,2.58,-2.56,2.58,-2.56,2.56,2.70,3.20,5.14,5.14,5.14
68.01,2.63,-2.49,2.63,-2.49,2.49,2.60,3.15,5.12,5.12,5.12
68.69,2.67,-2.42,2.68,-2.41,2.41,2.51,3.10,5.09,5.09,5.09
69.37,2.72,-2.34,2.72,-2.34,2.34,2.42,3.05,5.07,5.07,5.07
70.07,2.77,-2.27,2.77,-2.28,2.27,2.33,3.01,5.05,5.04,5.05
70.77,2.81,-2.21,2.81,-2.21,2.21,2.24,2.96,5.02,5.02,5.02
71.48,2.85,-2.15,2.86,-2.15,2.14,2.16,2.91,5.00,5.00,5.00
72.19,2.89,-2.08,2.89,-2.08,2.08,2.08,2.85,4.98,4.98,4.98
72.91,2.93,-2.02,2.93,-2.02,2.03,2.01,2.80,4.96,4.96,4.95
73.64,2.96,-1.97,2.96,-1.97,1.97,1.94,2.75,4.94,4.94,4.93
74.38,2.99,-1.92,2.99,-1.92,1.93,1.88,2.70,4.92,4.92,4.91
75.12,3.01,-1.88,3.02,-1.88,1.88,1.82,2.65,4.90,4.90,4.90
75.87,3.04,-1.85,3.04,-1.85,1.85,1.77,2.60,4.89,4.89,4.89
76.63,3.06,-1.81,3.06,-1.81,1.81,1.72,2.55,4.88,4.88,4.88
77.40,3.08,-1.78,3.08,-1.78,1.78,1.68,2.50,4.87,4.87,4.87
78.17,3.09,-1.76,3.09,-1.76,1.76,1.65,2.46,4.85,4.85,4.85
78.95,3.10,-1.75,3.11,-1.74,1.74,1.62,2.41,4.84,4.84,4.85
79.74,3.11,-1.73,3.12,-1.72,1.72,1.59,2.36,4.83,4.84,4.84
80.54,3.13,-1.70,3.13,-1.70,1.70,1.57,2.32,4.84,4.83,4.83
81.35,3.13,-1.69,3.14,-1.69,1.69,1.56,2.28,4.83,4.83,4.82
82.16,3.14,-1.67,3.14,-1.67,1.68,1.55,2.23,4.83,4.82,4.81
82.98,3.13,-1.68,3.13,-1.67,1.68,1.54,2.19,4.81,4.81,4.81
83.81,3.12,-1.67,3.13,-1.67,1.67,1.54,2.15,4.79,4.79,4.79
84.65,3.11,-1.67,3.12,-1.67,1.66,1.53,2.11,4.78,4.78,4.79
85.50,3.11,-1.67,3.11,-1.67,1.66,1.54,2.08,4.77,4.77,4.78
86.35,3.11,-1.66,3.11,-1.66,1.66,1.54,2.04,4.77,4.77,4.77
87.22,3.11,-1.65,3.11,-1.65,1.65,1.55,2.01,4.76,4.76,4.77
88.09,3.11,-1.64,3.11,-1.65,1.64,1.56,1.97,4.76,4.76,4.75
88.97,3.11,-1.64,3.11,-1.64,1.64,1.57,1.94,4.75,4.75,4.76
89.86,3.11,-1.63,3.11,-1.63,1.63,1.57,1.91,4.74,4.74,4.74
90.76,3.11,-1.61,3.11,-1.62,1.62,1.58,1.89,4.74,4.74,4.73
91.66,3.11,-1.62,3.11,-1.61,1.62,1.59,1.86,4.73,4.73,4.73
92.58,3.11,-1.60,3.11,-1.61,1.61,1.60,1.83,4.72,4.72,4.72
93.51,3.11,-1.61,3.11,-1.61,1.60,1.61,1.81,4.72,4.72,4.72
94.44,3.11,-1.60,3.11,-1.60,1.59,1.62,1.78,4.71,4.71,4.71
95.39,3.11,-1.59,3.11,-1.59,1.58,1.63,1.76,4.70,4.70,4.71
96.34,3.11,-1.57,3.11,-1.57,1.57,1.64,1.74,4.69,4.69,4.68
97.30,3.11,-1.56,3.11,-1.56,1.56,1.64,1.72,4.68,4.68,4.67
98.28,3.11,-1.55,3.11,-1.55,1.55,1.65,1.70,4.66,4.66,4.66
99.26,3.11,-1.53,3.11,-1.54,1.53,1.65,1.69,4.65,4.65,4.65
100.25,3.11,-1.52,3.11,-1.52,1.52,1.65,1.67,4.63,4.63,4.64
101.25,3.11,-1.51,3.12,-1.50,1.50,1.66,1.66,4.61,4.61,4.62
102.27,3.12,-1.48,3.12,-1.48,1.48,1.65,1.64,4.60,4.60,4.60
103.29,3.12,-1.45,3.12,-1.46,1.45,1.65,1.63,4.58,4.58,4.57
104.32,3.12,-1.44,3.13,-1.43,1.43,1.65,1.62,4.56,4.56,4.57
105.37,3.13,-1.40,3.13,-1.41,1.41,1.65,1.60,4.54,4.54,4.54
106.42,3.13,-1.39,3.13,-1.39,1.39,1.64,1.59,4.52,4.52,4.52
107.48,3.12,-1.37,3.12,-1.36,1.37,1.63,1.58,4.50,4.50,4.49
108.56,3.10,-1.35,3.11,-1.35,1.36,1.63,1.57,4.46,4.47,4.45
109.64,3.08,-1.34,3.08,-1.34,1.35,1.62,1.56,4.43,4.43,4.42
110.74,3.05,-1.33,3.05,-1.34,1.34,1.61,1.56,4.39,4.39,4.39
111.85,3.01,-1.34,3.01,-1.34,1.33,1.60,1.55,4.34,4.34,4.36
112.97,2.97,-1.34,2.98,-1.34,1.32,1.58,1.54,4.30,4.30,4.31
114.10,2.94,-1.33,2.95,-1.33,1.31,1.57,1.53,4.26,4.26,4.27
115.24,2.92,-1.31,2.92,-1.31,1.30,1.56,1.52,4.23,4.23,4.24
116.39,2.90,-1.28,2.90,-1.29,1.29,1.54,1.51,4.20,4.20,4.19
117.55,2.88,-1.27,2.88,-1.27,1.28,1.53,1.50,4.17,4.16,4.15
118.73,2.84,-1.26,2.84,-1.27,1.28,1.51,1.50,4.12,4.12,4.11
119.92,2.80,-1.27,2.81,-1.26,1.27,1.49,1.49,4.07,4.07,4.07
121.12,2.76,-1.27,2.77,-1.26,1.26,1.48,1.48,4.02,4.03,4.03
122.33,2.74,-1.25,2.74,-1.26,1.25,1.46,1.47,4.00,3.99,4.00
123.55,2.71,-1.26,2.71,-1.26,1.25,1.44,1.46,3.96,3.96,3.97
124.79,2.68,-1.25,2.69,-1.25,1.24,1.42,1.45,3.93,3.93,3.94
126.03,2.65,-1.25,2.66,-1.24,1.24,1.40,1.44,3.89,3.90,3.90
127.29,2.64,-1.23,2.64,-1.23,1.23,1.39,1.43,3.88,3.87,3.87
128.57,2.61,-1.21,2.61,-1.22,1.23,1.37,1.42,3.85,3.84,3.83
129.85,2.57,-1.23,2.58,-1.22,1.23,1.35,1.40,3.81,3.81,3.80
131.15,2.54,-1.23,2.55,-1.23,1.24,1.33,1.39,3.78,3.78,3.77
132.46,2.51,-1.24,2.51,-1.24,1.24,1.31,1.38,3.76,3.75,3.75
133.79,2.47,-1.25,2.47,-1.25,1.25,1.29,1.37,3.73,3.73,3.73
135.12,2.42,-1.27,2.43,-1.27,1.27,1.27,1.35,3.69,3.70,3.70
136.48,2.39,-1.28,2.39,-1.29,1.28,1.25,1.34,3.67,3.67,3.68
137.84,2.35,-1.30,2.36,-1.29,1.29,1.24,1.33,3.64,3.64,3.66
139.22,2.32,-1.29,2.33,-1.30,1.30,1.22,1.32,3.62,3.62,3.62
140.61,2.30,-1.30,2.30,-1.30,1.30,1.20,1.30,3.61,3.60,3.60
142.02,2.27,-1.32,2.28,-1.31,1.31,1.18,1.29,3.58,3.58,3.59
143.44,2.26,-1.30,2.26,-1.31,1.31,1.16,1.28,3.57,3.56,3.56
144.87,2.22,-1.31,2.23,-1.31,1.31,1.15,1.26,3.53,3.54,3.54
146.32,2.21,-1.30,2.21,-1.31,1.31,1.13,1.25,3.53,3.52,3.51
147.78,2.18,-1.31,2.18,-1.31,1.31,1.12,1.24,3.50,3.49,3.50
149.26,2.14,-1.33,2.15,-1.32,1.32,1.10,1.23,3.46,3.47,3.47
150.75,2.11,-1.32,2.11,-1.32,1.32,1.08,1.21,3.43,3.43,3.43
152.26,2.08,-1.32,2.08,-1.32,1.32,1.07,1.20,3.40,3.40,3.40
153.78,2.05,-1.32,2.06,-1.32,1.32,1.06,1.19,3.38,3.38,3.38
155.32,2.03,-1.31,2.03,-1.32,1.32,1.04,1.18,3.35,3.35,3.34
156.88,1.99,-1.33,2.00,-1.32,1.32,1.03,1.17,3.31,3.32,3.32
158.44,1.97,-1.32,1.97,-1.32,1.31,1.02,1.16,3.29,3.28,3.29
160.03,1.93,-1.31,1.94,-1.31,1.31,1.01,1.15,3.24,3.25,3.25
161.63,1.91,-1.30,1.91,-1.30,1.30,1.00,1.15,3.22,3.22,3.22
163.24,1.89,-1.28,1.89,-1.29,1.30,0.98,1.14,3.19,3.18,3.18
164.88,1.86,-1.29,1.87,-1.28,1.29,0.97,1.13,3.15,3.16,3.16
166.53,1.84,-1.27,1.85,-1.27,1.28,0.97,1.13,3.12,3.12,3.12
168.19,1.83,-1.26,1.82,-1.27,1.26,0.96,1.12,3.10,3.09,3.09
169.87,1.79,-1.26,1.80,-1.25,1.25,0.95,1.12,3.04,3.05,3.05
171.57,1.77,-1.24,1.78,-1.23,1.23,0.94,1.11,3.00,3.01,3.01
173.29,1.76,-1.20,1.75,-1.22,1.21,0.94,1.11,2.97,2.96,2.97
175.02,1.73,-1.20,1.73,-1.19,1.19,0.93,1.11,2.92,2.92,2.93
176.77,1.70,-1.18,1.71,-1.17,1.17,0.93,1.11,2.87,2.88,2.88
178.54,1.68,-1.14,1.69,-1.14,1.15,0.92,1.11,2.83,2.83,2.83
180.32,1.67,-1.11,1.67,-1.12,1.13,0.92,1.11,2.80,2.79,2.78
182.13,1.64,-1.09,1.64,-1.10,1.11,0.92,1.11,2.75,2.75,2.74
183.95,1.59,-1.09,1.60,-1.09,1.10,0.91,1.11,2.69,2.70,2.68
185.79,1.55,-1.09,1.55,-1.08,1.08,0.91,1.11,2.64,2.64,2.64
187.65,1.51,-1.07,1.51,-1.08,1.07,0.91,1.11,2.59,2.58,2.59
189.52,1.46,-1.08,1.47,-1.07,1.06,0.91,1.12,2.53,2.53,2.54
191.42,1.43,-1.07,1.43,-1.07,1.05,0.92,1.12,2.49,2.49,2.50
193.33,1.40,-1.05,1.40,-1.06,1.04,0.92,1.13,2.45,2.45,2.46
195.27,1.37,-1.04,1.37,-1.04,1.03,0.92,1.14,2.41,2.41,2.42
197.22,1.34,-1.02,1.35,-1.02,1.03,0.93,1.14,2.37,2.37,2.36
199.19,1.31,-1.00,1.31,-1.01,1.02,0.94,1.15,2.33,2.33,2.31
201.18,1.27,-1.00,1.27,-1.00,1.02,0.94,1.16,2.29,2.29,2.27
203.19,1.22,-1.02,1.23,-1.01,1.02,0.95,1.16,2.24,2.24,2.24
205.23,1.17,-1.03,1.18,-1.03,1.03,0.96,1.17,2.20,2.20,2.20
207.28,1.12,-1.05,1.12,-1.04,1.04,0.97,1.18,2.16,2.16,2.17
209.35,1.07,-1.05,1.07,-1.05,1.05,0.99,1.19,2.12,2.12,2.12
211.44,1.01,-1.06,1.02,-1.06,1.06,1.00,1.20,2.07,2.08,2.07
213.56,0.96,-1.08,0.96,-1.08,1.07,1.02,1.21,2.04,2.04,2.04
215.69,0.91,-1.10,0.91,-1.10,1.09,1.04,1.22,2.00,2.00,2.02
217.85,0.86,-1.11,0.87,-1.10,1.10,1.06,1.23,1.97,1.98,1.98
220.03,0.83,-1.11,0.83,-1.11,1.12,1.08,1.24,1.95,1.95,1.94
222.23,0.79,-1.12,0.79,-1.13,1.14,1.10,1.25,1.94,1.93,1.91
224.45,0.73,-1.16,0.74,-1.15,1.16,1.13,1.26,1.90,1.90,1.89
226.70,0.68,-1.19,0.68,-1.19,1.19,1.16,1.27,1.87,1.87,1.88
228.96,0.62,-1.23,0.63,-1.23,1.22,1.19,1.28,1.84,1.85,1.85
231.25,0.58,-1.26,0.58,-1.26,1.25,1.23,1.29,1.83,1.83,1.84
233.57,0.54,-1.28,0.54,-1.29,1.28,1.27,1.30,1.83,1.82,1.83
235.90,0.49,-1.33,0.50,-1.32,1.32,1.31,1.30,1.81,1.82,1.82
238.26,0.45,-1.35,0.46,-1.35,1.36,1.36,1.31,1.81,1.82,1.80
240.64,0.41,-1.40,0.41,-1.39,1.40,1.41,1.32,1.82,1.82,1.81
243.05,0.37,-1.44,0.37,-1.44,1.45,1.46,1.32,1.82,1.81,1.81
245.48,0.31,-1.49,0.32,-1.49,1.50,1.52,1.33,1.81,1.81,1.81
247.93,0.25,-1.56,0.26,-1.55,1.55,1.58,1.33,1.80,1.81,1.81
250.41,0.22,-1.58,0.21,-1.60,1.60,1.64,1.34,1.83,1.82,1.81
252.92,0.16,-1.67,0.17,-1.66,1.66,1.70,1.34,1.82,1.83,1.83
255.45,0.12,-1.72,0.12,-1.72,1.72,1.76,1.34,1.84,1.84,1.85
258.00,0.08,-1.77,0.08,-1.78,1.78,1.82,1.34,1.86,1.85,1.85
260.58,0.02,-1.84,0.03,-1.83,1.83,1.88,1.34,1.86,1.86,1.86
263.19,-0.02,-1.89,-0.02,-1.89,1.89,1.93,1.34,1.87,1.87,1.87
265.82,-0.06,-1.94,-0.05,-1.94,1.94,1.96,1.34,1.88,1.89,1.88
268.48,-0.08,-1.98,-0.08,-1.99,1.99,1.99,1.34,1.91,1.91,1.91
271.16,-0.11,-2.03,-0.11,-2.03,2.03,2.01,1.34,1.92,1.92,1.92
273.87,-0.14,-2.07,-0.13,-2.06,2.06,2.02,1.34,1.93,1.93,1.93
276.61,-0.15,-2.09,-0.15,-2.09,2.09,2.01,1.34,1.94,1.94,1.95
279.38,-0.16,-2.11,-0.16,-2.11,2.10,1.99,1.34,1.95,1.95,1.95
282.17,-0.15,-2.12,-0.15,-2.12,2.11,1.96,1.33,1.96,1.96,1.97
284.99,-0.14,-2.12,-0.13,-2.11,2.10,1.93,1.33,1.96,1.97,1.99
287.84,-0.09,-2.08,-0.09,-2.08,2.08,1.89,1.33,2.00,2.00,1.99
290.72,-0.04,-2.05,-0.04,-2.05,2.06,1.85,1.33,2.02,2.01,2.01
293.63,0.00,-2.01,0.00,-2.02,2.02,1.81,1.33,2.03,2.02,2.02
296.57,0.04,-1.99,0.05,-1.98,1.98,1.77,1.32,2.02,2.03,2.03
299.53,0.10,-1.94,0.11,-1.94,1.93,1.73,1.32,2.03,2.04,2.04
302.53,0.17,-1.88,0.17,-1.88,1.88,1.69,1.32,2.05,2.05,2.05
305.55,0.24,-1.82,0.24,-1.82,1.82,1.66,1.32,2.07,2.07,2.07
308.61,0.31,-1.76,0.32,-1.76,1.77,1.63,1.32,2.08,2.09,2.07
311.69,0.39,-1.70,0.39,-1.71,1.71,1.60,1.32,2.11,2.10,2.09
314.81,0.45,-1.66,0.46,-1.65,1.65,1.57,1.33,2.11,2.11,2.11
317.96,0.52,-1.59,0.53,-1.59,1.59,1.55,1.33,2.11,2.12,2.12
321.14,0.59,-1.53,0.59,-1.53,1.53,1.54,1.33,2.12,2.12,2.13
324.35,0.66,-1.47,0.66,-1.47,1.46,1.52,1.34,2.12,2.12,2.13
327.59,0.73,-1.41,0.73,-1.41,1.40,1.51,1.34,2.13,2.13,2.14
330.87,0.80,-1.35,0.81,-1.34,1.33,1.50,1.35,2.14,2.14,2.15
334.18,0.88,-1.27,0.89,-1.27,1.27,1.49,1.35,2.16,2.16,2.16
337.52,0.96,-1.19,0.96,-1.21,1.22,1.49,1.36,2.18,2.17,2.16
340.90,1.01,-1.16,1.01,-1.16,1.17,1.49,1.37,2.19,2.18,2.18
344.30,1.04,-1.13,1.05,-1.13,1.14,1.49,1.38,2.18,2.19,2.17
347.75,1.07,-1.11,1.07,-1.10,1.11,1.49,1.39,2.18,2.19,2.18
351.23,1.09,-1.09,1.09,-1.09,1.10,1.49,1.41,2.19,2.18,2.18
354.74,1.09,-1.09,1.09,-1.09,1.09,1.49,1.42,2.18,2.18,2.18
358.28,1.08,-1.10,1.09,-1.10,1.09,1.50,1.43,2.18,2.18,2.19
361.87,1.07,-1.11,1.07,-1.11,1.10,1.51,1.45,2.18,2.18,2.19
365.49,1.05,-1.13,1.06,-1.13,1.12,1.51,1.47,2.18,2.18,2.19
369.14,1.03,-1.14,1.04,-1.14,1.15,1.52,1.49,2.18,2.18,2.17
372.83,1.01,-1.16,1.01,-1.17,1.17,1.53,1.50,2.19,2.18,2.17
376.56,0.97,-1.20,0.97,-1.20,1.21,1.54,1.52,2.18,2.18,2.17
380.33,0.93,-1.25,0.93,-1.24,1.24,1.55,1.55,2.18,2.18,2.18
384.13,0.88,-1.29,0.89,-1.28,1.28,1.56,1.57,2.16,2.17,2.17
387.97,0.84,-1.32,0.84,-1.32,1.32,1.58,1.59,2.16,2.16,2.17
391.85,0.80,-1.35,0.80,-1.36,1.35,1.59,1.61,2.16,2.16,2.16
395.77,0.76,-1.40,0.76,-1.40,1.39,1.60,1.64,2.16,2.16,2.17
399.73,0.72,-1.43,0.73,-1.43,1.43,1.62,1.66,2.15,2.16,2.16
403.72,0.70,-1.45,0.70,-1.46,1.46,1.63,1.69,2.16,2.16,2.15
407.76,0.67,-1.48,0.68,-1.48,1.49,1.65,1.71,2.16,2.16,2.15
411.84,0.65,-1.51,0.65,-1.51,1.51,1.66,1.74,2.16,2.16,2.16
415.96,0.62,-1.54,0.62,-1.54,1.53,1.68,1.77,2.16,2.16,2.16
420.12,0.59,-1.57,0.60,-1.56,1.56,1.69,1.80,2.15,2.16,2.16
424.32,0.57,-1.59,0.58,-1.58,1.58,1.71,1.82,2.15,2.16,2.16
428.56,0.56,-1.59,0.55,-1.60,1.60,1.73,1.85,2.16,2.15,2.15
432.85,0.53,-1.62,0.53,-1.62,1.62,1.74,1.88,2.15,2.15,2.15
437.18,0.50,-1.65,0.51,-1.64,1.64,1.76,1.90,2.14,2.15,2.15
441.55,0.49,-1.66,0.49,-1.66,1.66,1.78,1.93,2.16,2.15,2.16
445.96,0.47,-1.68,0.47,-1.68,1.68,1.80,1.96,2.16,2.15,2.16
450.42,0.44,-1.70,0.45,-1.71,1.71,1.81,1.98,2.15,2.16,2.15
454.93,0.42,-1.73,0.42,-1.73,1.74,1.83,2.01,2.16,2.16,2.16
459.48,0.39,-1.76,0.39,-1.76,1.77,1.85,2.03,2.16,2.16,2.16
464.07,0.36,-1.79,0.36,-1.79,1.80,1.87,2.05,2.16,2.16,2.16
468.71,0.33,-1.83,0.33,-1.83,1.83,1.89,2.07,2.17,2.16,2.17
473.40,0.29,-1.86,0.30,-1.86,1.86,1.91,2.09,2.16,2.16,2.15
478.13,0.26,-1.90,0.26,-1.90,1.90,1.92,2.11,2.16,2.16,2.16
482.91,0.23,-1.93,0.24,-1.93,1.93,1.94,2.12,2.16,2.16,2.16
487.74,0.21,-1.95,0.21,-1.95,1.95,1.96,2.14,2.16,2.16,2.16
492.62,0.19,-1.98,0.19,-1.98,1.97,1.98,2.15,2.16,2.16,2.17
497.55,0.17,-1.99,0.18,-1.99,1.98,2.00,2.16,2.15,2.16,2.16
502.52,0.17,-2.00,0.17,-1.99,1.99,2.02,2.17,2.16,2.16,2.17
507.55,0.17,-1.99,0.18,-1.99,1.99,2.04,2.17,2.16,2.16,2.16
512.62,0.18,-1.98,0.18,-1.98,1.98,2.05,2.18,2.17,2.17,2.16
517.75,0.19,-1.98,0.19,-1.98,1.98,2.07,2.18,2.17,2.17,2.17
522.93,0.19,-1.98,0.20,-1.97,1.97,2.09,2.18,2.16,2.17,2.17
528.16,0.20,-1.96,0.20,-1.96,1.96,2.11,2.18,2.16,2.16,2.16
533.44,0.21,-1.95,0.21,-1.95,1.95,2.13,2.18,2.16,2.16,2.16
538.77,0.21,-1.95,0.22,-1.94,1.95,2.15,2.17,2.16,2.16,2.16
