frequency,raw,error,smoothed,error_smoothed,equalization,parametric_eq,fixed_band_eq,equalized_raw,equalized_smoothed,target
20.00,1.27,-0.62,1.27,-0.62,0.62,-0.22,-0.36,1.88,1.89,1.89
20.20,1.34,-0.59,1.33,-0.59,0.59,-0.23,-0.37,1.93,1.92,1.92
20.40,1.40,-0.57,1.40,-0.56,0.56,-0.24,-0.38,1.96,1.96,1.96
20.61,1.47,-0.52,1.47,-0.52,0.53,-0.25,-0.39,1.99,1.99,1.98
20.81,1.54,-0.49,1.54,-0.49,0.49,-0.27,-0.40,2.03,2.03,2.02
21.02,1.61,-0.46,1.60,-0.45,0.45,-0.28,-0.41,2.06,2.06,2.06
21.23,1.67,-0.42,1.67,-0.41,0.41,-0.29,-0.42,2.08,2.08,2.08
21.44,1.74,-0.37,1.74,-0.37,0.37,-0.31,-0.43,2.10,2.10,2.10
21.66,1.81,-0.32,1.80,-0.32,0.32,-0.32,-0.44,2.12,2.12,2.12
21.87,1.87,-0.26,1.87,-0.27,0.27,-0.34,-0.45,2.13,2.14,2.13
22.09,1.94,-0.21,1.94,-0.21,0.21,-0.35,-0.46,2.15,2.15,2.15
22.31,2.00,-0.16,2.00,-0.16,0.16,-0.36,-0.47,2.15,2.15,2.16
22.54,2.07,-0.10,2.07,-0.10,0.10,-0.38,-0.49,2.16,2.16,2.16
22.76,2.13,-0.04,2.13,-0.04,0.04,-0.39,-0.50,2.17,2.17,2.17
22.99,2.20,0.03,2.20,0.02,-0.02,-0.41,-0.51,2.18,2.18,2.17
23.22,2.26,0.08,2.26,0.08,-0.07,-0.42,-0.53,2.18,2.18,2.18
23.45,2.33,0.14,2.32,0.14,-0.13,-0.44,-0.54,2.20,2.19,2.19
23.69,2.39,0.19,2.39,0.19,-0.18,-0.46,-0.55,2.20,2.21,2.20
23.92,2.46,0.24,2.46,0.24,-0.24,-0.47,-0.57,2.22,2.22,2.22
24.16,2.52,0.28,2.52,0.28,-0.29,-0.49,-0.58,2.23,2.23,2.24
24.40,2.58,0.33,2.58,0.33,-0.34,-0.50,-0.59,2.24,2.24,2.25
24.65,2.64,0.39,2.64,0.38,-0.39,-0.52,-0.61,2.25,2.25,2.25
24.89,2.70,0.43,2.70,0.44,-0.44,-0.54,-0.62,2.26,2.26,2.27
25.14,2.76,0.48,2.76,0.49,-0.49,-0.56,-0.64,2.27,2.27,2.28
25.39,2.83,0.54,2.82,0.54,-0.54,-0.57,-0.66,2.29,2.28,2.28
25.65,2.89,0.59,2.89,0.59,-0.59,-0.59,-0.67,2.30,2.30,2.29
25.91,2.95,0.64,2.95,0.64,-0.64,-0.61,-0.69,2.31,2.31,2.30
26.16,3.01,0.70,3.00,0.69,-0.69,-0.63,-0.70,2.32,2.32,2.31
26.43,3.06,0.73,3.06,0.73,-0.74,-0.65,-0.72,2.32,2.32,2.32
26.69,3.12,0.78,3.12,0.78,-0.78,-0.66,-0.74,2.33,2.34,2.34
26.96,3.18,0.83,3.17,0.82,-0.83,-0.68,-0.76,2.35,2.35,2.35
27.23,3.24,0.88,3.23,0.87,-0.87,-0.70,-0.77,2.36,2.36,2.36
27.50,3.29,0.91,3.29,0.92,-0.92,-0.72,-0.79,2.37,2.37,2.38
27.77,3.35,0.97,3.34,0.96,-0.96,-0.74,-0.81,2.39,2.38,2.38
28.05,3.40,1.00,3.40,1.00,-1.00,-0.76,-0.82,2.39,2.39,2.40
28.33,3.45,1.05,3.45,1.05,-1.04,-0.78,-0.84,2.40,2.40,2.40
28.62,3.50,1.08,3.50,1.08,-1.08,-0.80,-0.86,2.41,2.41,2.41
28.90,3.55,1.12,3.55,1.12,-1.12,-0.82,-0.88,2.42,2.42,2.42
29.19,3.60,1.16,3.60,1.16,-1.16,-0.84,-0.90,2.43,2.43,2.43
29.48,3.65,1.20,3.65,1.20,-1.20,-0.86,-0.91,2.45,2.45,2.45
29.78,3.70,1.24,3.70,1.24,-1.24,-0.88,-0.93,2.46,2.46,2.46
30.08,3.75,1.28,3.75,1.28,-1.28,-0.91,-0.95,2.47,2.47,2.47
30.38,3.80,1.32,3.80,1.32,-1.32,-0.93,-0.97,2.48,2.48,2.48
30.68,3.85,1.36,3.85,1.36,-1.36,-0.95,-0.98,2.49,2.49,2.49
30.99,3.90,1.40,3.89,1.40,-1.40,-0.97,-1.00,2.50,2.50,2.50
31.30,3.94,1.43,3.94,1.43,-1.43,-0.99,-1.02,2.50,2.51,2.50
31.61,3.99,1.46,3.98,1.47,-1.47,-1.02,-1.03,2.52,2.52,2.52
31.93,4.03,1.51,4.02,1.50,-1.50,-1.04,-1.05,2.53,2.53,2.52
32.24,4.06,1.53,4.06,1.53,-1.53,-1.06,-1.07,2.53,2.54,2.53
32.57,4.10,1.56,4.10,1.56,-1.55,-1.09,-1.09,2.54,2.54,2.54
32.89,4.13,1.57,4.13,1.58,-1.58,-1.11,-1.10,2.55,2.55,2.56
33.22,4.16,1.60,4.15,1.60,-1.60,-1.13,-1.12,2.56,2.56,2.55
33.55,4.18,1.60,4.18,1.61,-1.62,-1.16,-1.14,2.56,2.57,2.57
33.89,4.21,1.64,4.21,1.63,-1.63,-1.18,-1.16,2.57,2.57,2.57
34.23,4.24,1.65,4.23,1.65,-1.65,-1.21,-1.18,2.59,2.58,2.59
34.57,4.26,1.67,4.26,1.67,-1.67,-1.23,-1.19,2.59,2.59,2.59
34.92,4.28,1.68,4.28,1.68,-1.68,-1.26,-1.21,2.59,2.59,2.59
35.27,4.30,1.69,4.30,1.70,-1.70,-1.28,-1.23,2.60,2.60,2.60
35.62,4.32,1.72,4.32,1.72,-1.71,-1.31,-1.25,2.60,2.60,2.60
35.97,4.34,1.74,4.33,1.73,-1.73,-1.33,-1.27,2.61,2.61,2.60
36.33,4.35,1.73,4.35,1.74,-1.74,-1.36,-1.30,2.61,2.61,2.62
36.70,4.36,1.74,4.36,1.75,-1.75,-1.39,-1.32,2.61,2.61,2.61
37.06,4.37,1.77,4.37,1.76,-1.76,-1.41,-1.34,2.61,2.61,2.60
37.43,4.38,1.77,4.38,1.77,-1.77,-1.44,-1.36,2.61,2.61,2.61
37.81,4.39,1.78,4.38,1.78,-1.78,-1.47,-1.39,2.61,2.61,2.61
38.19,4.39,1.78,4.39,1.78,-1.78,-1.49,-1.41,2.60,2.60,2.60
38.57,4.39,1.78,4.39,1.78,-1.79,-1.52,-1.44,2.60,2.60,2.61
38.95,4.39,1.79,4.39,1.79,-1.80,-1.55,-1.47,2.59,2.59,2.60
39.34,4.39,1.79,4.39,1.80,-1.80,-1.58,-1.49,2.59,2.59,2.59
39.74,4.40,1.82,4.39,1.81,-1.80,-1.61,-1.52,2.59,2.59,2.58
40.14,4.40,1.81,4.39,1.81,-1.81,-1.63,-1.55,2.59,2.59,2.59
40.54,4.39,1.81,4.39,1.81,-1.81,-1.66,-1.59,2.58,2.58,2.57
40.94,4.38,1.80,4.38,1.80,-1.81,-1.69,-1.62,2.57,2.58,2.58
41.35,4.38,1.80,4.37,1.80,-1.80,-1.72,-1.65,2.57,2.57,2.57
41.76,4.37,1.80,4.37,1.79,-1.80,-1.75,-1.69,2.57,2.57,2.57
42.18,4.37,1.79,4.37,1.79,-1.79,-1.78,-1.73,2.58,2.58,2.58
42.60,4.36,1.78,4.36,1.79,-1.78,-1.81,-1.76,2.57,2.58,2.57
43.03,4.36,1.78,4.35,1.78,-1.78,-1.84,-1.80,2.58,2.58,2.58
43.46,4.35,1.77,4.34,1.77,-1.77,-1.87,-1.85,2.58,2.57,2.57
43.90,4.33,1.76,4.33,1.77,-1.77,-1.90,-1.89,2.56,2.57,2.57
44.33,4.33,1.76,4.33,1.76,-1.77,-1.93,-1.93,2.56,2.56,2.56
44.78,4.33,1.77,4.32,1.76,-1.77,-1.96,-1.98,2.56,2.56,2.56
45.23,4.33,1.76,4.33,1.77,-1.77,-1.99,-2.02,2.56,2.56,2.56
45.68,4.34,1.78,4.34,1.78,-1.77,-2.02,-2.07,2.56,2.56,2.56
46.13,4.35,1.79,4.35,1.78,-1.78,-2.05,-2.12,2.57,2.57,2.56
46.60,4.37,1.79,4.36,1.80,-1.79,-2.09,-2.17,2.58,2.58,2.58
47.06,4.38,1.81,4.38,1.80,-1.80,-2.12,-2.22,2.58,2.58,2.57
47.53,4.39,1.81,4.39,1.81,-1.81,-2.15,-2.28,2.57,2.57,2.57
48.01,4.40,1.81,4.40,1.82,-1.83,-2.18,-2.33,2.56,2.57,2.59
48.49,4.42,1.84,4.42,1.84,-1.86,-2.21,-2.39,2.56,2.56,2.58
48.97,4.45,1.89,4.45,1.88,-1.88,-2.25,-2.45,2.56,2.56,2.56
49.46,4.48,1.92,4.48,1.92,-1.92,-2.28,-2.50,2.56,2.56,2.55
49.96,4.51,1.97,4.51,1.96,-1.95,-2.31,-2.56,2.56,2.56,2.54
50.46,4.54,1.99,4.54,1.99,-1.99,-2.34,-2.62,2.55,2.55,2.55
50.96,4.57,2.03,4.57,2.03,-2.03,-2.38,-2.68,2.54,2.54,2.54
51.47,4.60,2.07,4.60,2.07,-2.07,-2.41,-2.74,2.53,2.53,2.52
51.99,4.64,2.11,4.63,2.11,-2.11,-2.44,-2.80,2.52,2.52,2.52
52.51,4.68,2.15,4.68,2.16,-2.16,-2.47,-2.86,2.51,2.51,2.52
53.03,4.72,2.20,4.72,2.21,-2.22,-2.51,-2.92,2.50,2.51,2.52
53.56,4.78,2.27,4.77,2.27,-2.27,-2.54,-2.98,2.50,2.50,2.51
54.10,4.83,2.34,4.83,2.34,-2.34,-2.58,-3.04,2.49,2.49,2.49
54.64,4.88,2.40,4.88,2.41,-2.40,-2.61,-3.10,2.47,2.48,2.48
55.18,4.94,2.47,4.94,2.48,-2.48,-2.64,-3.16,2.46,2.46,2.46
55.74,5.00,2.55,5.00,2.55,-2.55,-2.68,-3.22,2.45,2.45,2.44
56.29,5.06,2.62,5.06,2.62,-2.62,-2.71,-3.27,2.44,2.43,2.44
56.86,5.12,2.70,5.11,2.70,-2.69,-2.74,-3.32,2.42,2.42,2.42
57.42,5.17,2.77,5.17,2.77,-2.76,-2.78,-3.37,2.41,2.41,2.40
58.00,5.23,2.84,5.23,2.84,-2.83,-2.81,-3.42,2.40,2.40,2.39
58.58,5.28,2.90,5.27,2.90,-2.89,-2.85,-3.47,2.38,2.38,2.37
59.16,5.32,2.96,5.32,2.96,-2.96,-2.88,-3.51,2.36,2.36,2.36
59.76,5.36,3.01,5.36,3.02,-3.03,-2.92,-3.55,2.33,2.33,2.35
60.35,5.40,3.08,5.40,3.08,-3.09,-2.95,-3.58,2.31,2.31,2.32
60.96,5.45,3.15,5.44,3.15,-3.16,-2.99,-3.62,2.29,2.29,2.30
61.57,5.49,3.23,5.49,3.22,-3.22,-3.02,-3.64,2.26,2.26,2.26
62.18,5.53,3.29,5.53,3.30,-3.29,-3.05,-3.67,2.24,2.24,2.24
62.80,5.58,3.37,5.57,3.37,-3.36,-3.09,-3.69,2.22,2.21,2.21
63.43,5.62,3.43,5.61,3.43,-3.43,-3.12,-3.71,2.19,2.19,2.18
64.07,5.65,3.49,5.65,3.49,-3.49,-3.16,-3.72,2.15,2.16,2.16
64.71,5.69,3.55,5.69,3.55,-3.56,-3.19,-3.74,2.13,2.13,2.14
65.35,5.73,3.62,5.73,3.61,-3.62,-3.23,-3.74,2.11,2.11,2.11
66.01,5.77,3.68,5.77,3.68,-3.68,-3.26,-3.75,2.09,2.09,2.09
66.67,5.80,3.73,5.80,3.73,-3.73,-3.30,-3.75,2.06,2.06,2.06
67.33,5.83,3.79,5.83,3.79,-3.79,-3.33,-3.75,2.04,2.04,2.03
68.01,5.85,3.83,5.85,3.84,-3.84,-3.37,-3.75,2.01,2.01,2.01
68.69,5.88,3.89,5.87,3.89,-3.89,-3.40,-3.74,1.99,1.99,1.98
69.37,5.90,3.94,5.90,3.94,-3.93,-3.44,-3.73,1.96,1.96,1.96
70.07,5.92,3.98,5.92,3.98,-3.98,-3.47,-3.73,1.94,1.94,1.94
70.77,5.94,4.02,5.93,4.02,-4.02,-3.51,-3.72,1.92,1.91,1.92
71.48,5.95,4.05,5.95,4.05,-4.06,-3.54,-3.71,1.89,1.89,1.89
72.19,5.96,4.09,5.96,4.09,-4.10,-3.58,-3.69,1.86,1.86,1.87
72.91,5.98,4.13,5.97,4.13,-4.13,-3.61,-3.68,1.85,1.84,1.85
73.64,5.99,4.17,5.99,4.16,-4.16,-3.64,-3.67,1.83,1.83,1.82
74.38,6.00,4.19,6.00,4.19,-4.18,-3.68,-3.66,1.81,1.81,1.81
75.12,6.01,4.22,6.01,4.21,-4.20,-3.71,-3.65,1.80,1.80,1.79
75.87,6.01,4.22,6.01,4.23,-4.22,-3.75,-3.64,1.79,1.79,1.78
76.63,6.01,4.24,6.00,4.24,-4.23,-3.78,-3.63,1.77,1.77,1.77
77.40,6.00,4.24,6.00,4.24,-4.24,-3.82,-3.63,1.76,1.76,1.76
78.17,5.99,4.24,5.99,4.24,-4.25,-3.85,-3.62,1.74,1.74,1.74
78.95,5.99,4.24,5.99,4.25,-4.25,-3.88,-3.62,1.74,1.73,1.74
79.74,5.99,4.25,5.99,4.25,-4.26,-3.92,-3.61,1.73,1.73,1.74
80.54,5.99,4.26,5.99,4.26,-4.26,-3.95,-3.61,1.72,1.72,1.73
81.35,5.99,4.27,5.99,4.27,-4.27,-3.99,-3.62,1.72,1.72,1.72
82.16,5.99,4.28,5.99,4.28,-4.28,-4.02,-3.62,1.71,1.71,1.70
82.98,5.99,4.28,5.99,4.29,-4.29,-4.05,-3.63,1.70,1.70,1.70
83.81,5.99,4.31,5.99,4.30,-4.30,-4.08,-3.64,1.69,1.69,1.68
84.65,5.99,4.31,5.99,4.31,-4.31,-4.12,-3.65,1.68,1.68,1.68
85.50,5.99,4.31,5.99,4.31,-4.31,-4.15,-3.66,1.67,1.67,1.68
86.35,5.99,4.32,5.99,4.32,-4.32,-4.18,-3.68,1.67,1.67,1.66
87.22,5.99,4.33,5.99,4.33,-4.33,-4.22,-3.70,1.66,1.66,1.66
88.09,5.99,4.34,5.99,4.33,-4.34,-4.25,-3.72,1.65,1.65,1.65
88.97,5.99,4.34,5.99,4.34,-4.34,-4.28,-3.75,1.64,1.64,1.65
89.86,5.99,4.35,5.99,4.35,-4.35,-4.31,-3.78,1.64,1.64,1.64
90.76,5.99,4.37,5.99,4.36,-4.36,-4.34,-3.81,1.63,1.63,1.62
91.66,5.99,4.36,5.99,4.37,-4.36,-4.37,-3.85,1.62,1.62,1.63
92.58,5.99,4.38,5.99,4.37,-4.37,-4.40,-3.88,1.62,1.62,1.61
93.51,5.99,4.37,5.99,4.37,-4.38,-4.43,-3.92,1.61,1.61,1.61
94.44,5.99,4.38,5.99,4.38,-4.39,-4.46,-3.97,1.60,1.60,1.61
95.39,5.99,4.39,5.99,4.39,-4.40,-4.50,-4.01,1.59,1.59,1.60
96.34,5.99,4.41,5.99,4.41,-4.41,-4.52,-4.06,1.58,1.58,1.57
97.30,5.99,4.42,5.99,4.42,-4.42,-4.55,-4.11,1.57,1.57,1.57
98.28,5.99,4.43,5.99,4.43,-4.43,-4.58,-4.16,1.56,1.56,1.56
99.26,5.99,4.45,5.99,4.44,-4.44,-4.61,-4.21,1.54,1.54,1.54
100.25,5.99,4.46,5.99,4.46,-4.46,-4.64,-4.27,1.53,1.53,1.53
101.25,5.99,4.47,5.99,4.48,-4.48,-4.67,-4.33,1.51,1.51,1.51
102.27,5.99,4.49,5.99,4.49,-4.49,-4.69,-4.39,1.49,1.49,1.50
103.29,5.99,4.52,5.99,4.51,-4.51,-4.72,-4.45,1.48,1.48,1.47
104.32,5.99,4.53,5.99,4.53,-4.53,-4.75,-4.51,1.46,1.46,1.46
105.37,5.99,4.56,5.99,4.55,-4.56,-4.77,-4.57,1.43,1.43,1.43
106.42,5.99,4.58,5.99,4.58,-4.58,-4.80,-4.63,1.41,1.41,1.41
107.48,5.99,4.60,5.99,4.61,-4.61,-4.82,-4.69,1.38,1.38,1.38
108.56,5.99,4.64,5.99,4.64,-4.64,-4.85,-4.76,1.35,1.35,1.35
109.64,5.99,4.67,5.99,4.67,-4.67,-4.87,-4.82,1.32,1.32,1.32
110.74,5.99,4.71,5.99,4.71,-4.70,-4.89,-4.88,1.28,1.28,1.28
111.85,5.99,4.74,5.99,4.74,-4.74,-4.92,-4.93,1.25,1.25,1.25
112.97,5.99,4.78,5.99,4.78,-4.78,-4.94,-4.99,1.21,1.21,1.20
114.10,5.99,4.82,5.99,4.82,-4.83,-4.96,-5.05,1.16,1.16,1.17
115.24,5.99,4.86,5.99,4.86,-4.87,-4.98,-5.10,1.12,1.12,1.13
116.39,5.99,4.91,5.99,4.91,-4.91,-5.00,-5.14,1.07,1.08,1.08
117.55,6.00,4.95,6.00,4.96,-4.96,-5.02,-5.19,1.04,1.04,1.04
118.73,6.01,5.01,6.00,5.00,-5.00,-5.03,-5.23,1.01,1.01,1.00
119.92,6.01,5.04,6.01,5.04,-5.03,-5.05,-5.26,0.98,0.97,0.96
121.12,6.00,5.07,6.00,5.07,-5.06,-5.06,-5.30,0.94,0.94,0.93
122.33,5.99,5.10,5.99,5.09,-5.08,-5.08,-5.32,0.90,0.90,0.89
123.55,5.97,5.10,5.96,5.10,-5.10,-5.09,-5.35,0.87,0.86,0.87
124.79,5.94,5.11,5.94,5.10,-5.11,-5.10,-5.37,0.83,0.83,0.83
126.03,5.90,5.10,5.91,5.11,-5.11,-5.11,-5.38,0.78,0.79,0.80
127.29,5.88,5.11,5.87,5.11,-5.11,-5.12,-5.39,0.76,0.76,0.76
128.57,5.85,5.13,5.84,5.11,-5.11,-5.13,-5.39,0.74,0.73,0.72
129.85,5.81,5.11,5.81,5.11,-5.11,-5.13,-5.39,0.70,0.70,0.70
131.15,5.77,5.10,5.77,5.11,-5.11,-5.14,-5.39,0.66,0.67,0.67
132.46,5.75,5.10,5.74,5.10,-5.11,-5.14,-5.38,0.64,0.63,0.64
133.79,5.72,5.10,5.72,5.10,-5.11,-5.14,-5.36,0.61,0.61,0.62
135.12,5.70,5.11,5.70,5.10,-5.11,-5.14,-5.35,0.58,0.59,0.59
136.48,5.69,5.12,5.68,5.11,-5.12,-5.14,-5.33,0.57,0.56,0.57
137.84,5.67,5.12,5.67,5.13,-5.13,-5.13,-5.30,0.54,0.54,0.55
139.22,5.66,5.15,5.66,5.14,-5.13,-5.13,-5.28,0.52,0.52,0.51
140.61,5.65,5.15,5.64,5.15,-5.14,-5.13,-5.25,0.50,0.50,0.49
142.02,5.63,5.14,5.63,5.15,-5.15,-5.12,-5.23,0.48,0.48,0.48
143.44,5.62,5.16,5.61,5.16,-5.15,-5.12,-5.20,0.46,0.46,0.46
144.87,5.59,5.16,5.59,5.16,-5.15,-5.12,-5.17,0.43,0.44,0.43
146.32,5.57,5.16,5.57,5.16,-5.15,-5.12,-5.14,0.41,0.41,0.40
147.78,5.54,5.15,5.53,5.15,-5.15,-5.13,-5.11,0.39,0.38,0.39
149.26,5.50,5.13,5.50,5.14,-5.14,-5.14,-5.08,0.35,0.36,0.36
150.75,5.47,5.14,5.47,5.14,-5.14,-5.15,-5.05,0.33,0.33,0.33
152.26,5.44,5.14,5.43,5.14,-5.13,-5.17,-5.03,0.31,0.30,0.29
153.78,5.40,5.13,5.40,5.13,-5.13,-5.19,-5.00,0.27,0.27,0.27
155.32,5.38,5.14,5.37,5.13,-5.13,-5.21,-4.98,0.24,0.24,0.24
156.88,5.34,5.12,5.34,5.13,-5.14,-5.24,-4.96,0.19,0.20,0.21
158.44,5.33,5.14,5.33,5.15,-5.16,-5.27,-4.94,0.17,0.17,0.18
160.03,5.32,5.18,5.31,5.17,-5.18,-5.30,-4.93,0.14,0.13,0.14
161.63,5.31,5.20,5.31,5.20,-5.21,-5.34,-4.92,0.10,0.11,0.11
163.24,5.32,5.25,5.32,5.24,-5.24,-5.37,-4.91,0.08,0.08,0.07
164.88,5.33,5.28,5.33,5.28,-5.27,-5.41,-4.90,0.06,0.05,0.05
166.53,5.34,5.33,5.33,5.32,-5.31,-5.44,-4.90,0.02,0.02,0.01
168.19,5.34,5.35,5.34,5.35,-5.36,-5.47,-4.90,-0.02,-0.02,-0.02
169.87,5.34,5.39,5.34,5.39,-5.40,-5.50,-4.90,-0.06,-0.06,-0.06
171.57,5.34,5.43,5.34,5.44,-5.45,-5.53,-4.91,-0.11,-0.11,-0.09
173.29,5.35,5.49,5.35,5.48,-5.49,-5.56,-4.92,-0.14,-0.14,-0.14
175.02,5.36,5.53,5.35,5.53,-5.53,-5.59,-4.94,-0.18,-0.18,-0.18
176.77,5.36,5.58,5.36,5.58,-5.58,-5.62,-4.96,-0.22,-0.22,-0.22
178.54,5.35,5.63,5.35,5.62,-5.61,-5.64,-4.98,-0.27,-0.26,-0.28
180.32,5.34,5.66,5.34,5.66,-5.65,-5.66,-5.01,-0.31,-0.31,-0.32
182.13,5.32,5.69,5.31,5.68,-5.68,-5.68,-5.04,-0.36,-0.37,-0.37
183.95,5.28,5.70,5.28,5.70,-5.70,-5.70,-5.07,-0.43,-0.42,-0.42
185.79,5.25,5.71,5.25,5.72,-5.72,-5.72,-5.11,-0.48,-0.47,-0.47
187.65,5.23,5.75,5.22,5.74,-5.74,-5.74,-5.15,-0.51,-0.52,-0.52
189.52,5.20,5.76,5.19,5.76,-5.75,-5.75,-5.20,-0.56,-0.56,-0.56
191.42,5.16,5.76,5.16,5.77,-5.77,-5.77,-5.25,-0.61,-0.61,-0.61
193.33,5.13,5.78,5.13,5.78,-5.78,-5.78,-5.30,-0.65,-0.65,-0.65
195.27,5.10,5.79,5.10,5.79,-5.79,-5.80,-5.35,-0.70,-0.70,-0.69
197.22,5.07,5.81,5.07,5.81,-5.81,-5.81,-5.41,-0.74,-0.74,-0.74
199.19,5.04,5.83,5.04,5.83,-5.83,-5.82,-5.47,-0.79,-0.79,-0.79
201.18,5.02,5.85,5.02,5.85,-5.85,-5.83,-5.53,-0.83,-0.83,-0.83
203.19,5.00,5.86,5.00,5.87,-5.88,-5.84,-5.60,-0.88,-0.88,-0.87
205.23,4.99,5.89,4.99,5.89,-5.91,-5.84,-5.66,-0.92,-0.92,-0.91
207.28,4.99,5.92,4.99,5.93,-5.94,-5.85,-5.73,-0.96,-0.95,-0.94
209.35,5.00,5.98,5.00,5.98,-5.98,-5.86,-5.80,-0.98,-0.98,-0.98
211.44,5.01,6.04,5.00,6.03,-6.02,-5.86,-5.87,-1.01,-1.02,-1.03
213.56,5.01,6.07,5.01,6.07,-6.06,-5.87,-5.94,-1.05,-1.05,-1.06
215.69,5.01,6.10,5.01,6.10,-6.10,-5.87,-6.01,-1.09,-1.09,-1.09
217.85,5.01,6.14,5.01,6.14,-6.14,-5.87,-6.07,-1.13,-1.13,-1.13
220.03,5.01,6.17,5.01,6.17,-6.17,-5.88,-6.14,-1.16,-1.16,-1.17
222.23,5.01,6.20,5.01,6.20,-6.20,-5.88,-6.21,-1.19,-1.19,-1.20
224.45,5.01,6.22,5.01,6.22,-6.23,-5.88,-6.27,-1.22,-1.22,-1.21
226.70,5.01,6.24,5.01,6.24,-6.25,-5.88,-6.33,-1.25,-1.24,-1.23
228.96,5.02,6.27,5.02,6.27,-6.27,-5.88,-6.39,-1.26,-1.26,-1.26
231.25,5.03,6.29,5.03,6.29,-6.29,-5.88,-6.44,-1.27,-1.27,-1.26
233.57,5.04,6.32,5.03,6.31,-6.31,-5.88,-6.49,-1.27,-1.27,-1.28
235.90,5.03,6.31,5.03,6.32,-6.31,-5.88,-6.53,-1.29,-1.28,-1.29
238.26,5.02,6.32,5.02,6.32,-6.31,-5.88,-6.56,-1.29,-1.29,-1.30
240.64,5.01,6.31,5.01,6.31,-6.30,-5.88,-6.59,-1.30,-1.29,-1.30
243.05,5.00,6.29,4.99,6.29,-6.29,-5.87,-6.62,-1.29,-1.30,-1.29
245.48,4.97,6.27,4.97,6.27,-6.26,-5.87,-6.63,-1.29,-1.29,-1.30
247.93,4.93,6.22,4.93,6.23,-6.23,-5.87,-6.64,-1.30,-1.29,-1.29
250.41,4.91,6.21,4.90,6.19,-6.19,-5.86,-6.64,-1.28,-1.29,-1.30
252.92,4.86,6.13,4.87,6.14,-6.15,-5.86,-6.64,-1.29,-1.28,-1.27
255.45,4.84,6.10,4.83,6.10,-6.10,-5.85,-6.62,-1.26,-1.27,-1.26
258.00,4.80,6.05,4.80,6.05,-6.05,-5.85,-6.61,-1.26,-1.26,-1.25
260.58,4.77,6.02,4.77,6.01,-6.01,-5.84,-6.58,-1.24,-1.24,-1.25
263.19,4.74,5.97,4.73,5.97,-5.97,-5.84,-6.55,-1.23,-1.23,-1.23
265.82,4.71,5.93,4.71,5.93,-5.93,-5.83,-6.51,-1.22,-1.22,-1.23
268.48,4.69,5.89,4.69,5.89,-5.90,-5.82,-6.46,-1.21,-1.21,-1.20
271.16,4.68,5.86,4.67,5.86,-5.87,-5.81,-6.41,-1.20,-1.20,-1.18
273.87,4.67,5.84,4.67,5.84,-5.85,-5.81,-6.36,-1.19,-1.18,-1.18
276.61,4.67,5.83,4.67,5.83,-5.84,-5.80,-6.30,-1.17,-1.17,-1.16
279.38,4.68,5.83,4.67,5.82,-5.82,-5.79,-6.24,-1.14,-1.15,-1.15
282.17,4.68,5.82,4.68,5.82,-5.81,-5.78,-6.17,-1.13,-1.13,-1.14
284.99,4.69,5.81,4.68,5.81,-5.80,-5.77,-6.11,-1.12,-1.12,-1.12
287.84,4.69,5.80,4.69,5.80,-5.79,-5.76,-6.04,-1.11,-1.11,-1.11
290.72,4.69,5.78,4.69,5.79,-5.79,-5.75,-5.97,-1.10,-1.10,-1.10
293.63,4.69,5.78,4.69,5.77,-5.78,-5.74,-5.90,-1.09,-1.09,-1.09
296.57,4.69,5.76,4.69,5.76,-5.76,-5.73,-5.83,-1.08,-1.08,-1.07
299.53,4.69,5.75,4.69,5.75,-5.75,-5.72,-5.76,-1.07,-1.07,-1.07
302.53,4.69,5.74,4.69,5.74,-5.74,-5.71,-5.69,-1.05,-1.05,-1.06
305.55,4.69,5.73,4.69,5.73,-5.73,-5.70,-5.62,-1.04,-1.04,-1.04
308.61,4.69,5.72,4.69,5.72,-5.71,-5.69,-5.55,-1.03,-1.03,-1.03
311.69,4.69,5.70,4.69,5.70,-5.70,-5.68,-5.49,-1.02,-1.02,-1.01
314.81,4.69,5.68,4.69,5.69,-5.69,-5.67,-5.43,-1.00,-1.00,-1.00
317.96,4.69,5.68,4.69,5.68,-5.68,-5.66,-5.37,-0.99,-0.99,-0.99
321.14,4.69,5.67,4.69,5.67,-5.67,-5.65,-5.31,-0.98,-0.98,-0.98
324.35,4.69,5.66,4.69,5.66,-5.66,-5.64,-5.25,-0.97,-0.97,-0.97
327.59,4.69,5.65,4.69,5.65,-5.65,-5.62,-5.20,-0.96,-0.96,-0.97
330.87,4.69,5.64,4.69,5.65,-5.64,-5.61,-5.16,-0.96,-0.96,-0.96
334.18,4.69,5.64,4.69,5.64,-5.64,-5.60,-5.11,-0.95,-0.95,-0.95
337.52,4.69,5.64,4.69,5.63,-5.63,-5.59,-5.07,-0.94,-0.94,-0.95
340.90,4.69,5.62,4.69,5.62,-5.62,-5.58,-5.03,-0.94,-0.94,-0.93
344.30,4.69,5.62,4.69,5.62,-5.62,-5.58,-5.00,-0.93,-0.93,-0.93
347.75,4.69,5.61,4.69,5.61,-5.62,-5.57,-4.97,-0.93,-0.93,-0.93
351.23,4.69,5.61,4.69,5.61,-5.61,-5.56,-4.94,-0.93,-0.93,-0.93
354.74,4.69,5.61,4.69,5.61,-5.61,-5.55,-4.92,-0.92,-0.92,-0.93
358.28,4.69,5.61,4.69,5.61,-5.61,-5.55,-4.90,-0.92,-0.92,-0.92
361.87,4.69,5.61,4.69,5.61,-5.61,-5.55,-4.89,-0.92,-0.92,-0.92
365.49,4.69,5.61,4.69,5.61,-5.61,-5.54,-4.88,-0.93,-0.93,-0.92
369.14,4.69,5.62,4.69,5.62,-5.61,-5.54,-4.87,-0.93,-0.93,-0.93
372.83,4.69,5.62,4.69,5.62,-5.62,-5.54,-4.87,-0.93,-0.93,-0.93
376.56,4.69,5.62,4.69,5.62,-5.62,-5.55,-4.87,-0.93,-0.93,-0.94
380.33,4.69,5.61,4.69,5.62,-5.62,-5.55,-4.87,-0.93,-0.93,-0.93
384.13,4.69,5.62,4.69,5.62,-5.63,-5.56,-4.88,-0.94,-0.94,-0.94
387.97,4.69,5.63,4.69,5.62,-5.63,-5.57,-4.89,-0.94,-0.94,-0.94
391.85,4.69,5.64,4.69,5.63,-5.64,-5.58,-4.90,-0.95,-0.95,-0.95
395.77,4.69,5.63,4.69,5.64,-5.64,-5.59,-4.91,-0.95,-0.95,-0.94
399.73,4.70,5.65,4.70,5.65,-5.65,-5.61,-4.93,-0.95,-0.95,-0.95
403.72,4.71,5.66,4.70,5.65,-5.65,-5.62,-4.95,-0.94,-0.95,-0.95
407.76,4.71,5.66,4.71,5.66,-5.65,-5.63,-4.97,-0.94,-0.94,-0.95
411.84,4.71,5.65,4.71,5.65,-5.65,-5.63,-5.00,-0.94,-0.94,-0.94
415.96,4.70,5.64,4.70,5.64,-5.65,-5.63,-5.02,-0.95,-0.95,-0.94
420.12,4.69,5.63,4.69,5.63,-5.64,-5.63,-5.05,-0.95,-0.95,-0.95
424.32,4.67,5.61,4.67,5.62,-5.62,-5.61,-5.07,-0.95,-0.95,-0.95
428.56,4.65,5.60,4.65,5.60,-5.60,-5.59,-5.10,-0.95,-0.95,-0.96
432.85,4.62,5.57,4.62,5.57,-5.57,-5.55,-5.13,-0.95,-0.95,-0.96
437.18,4.59,5.55,4.58,5.54,-5.53,-5.50,-5.16,-0.95,-0.95,-0.96
441.55,4.54,5.49,4.54,5.49,-5.49,-5.44,-5.18,-0.95,-0.95,-0.95
445.96,4.49,5.44,4.49,5.44,-5.44,-5.37,-5.21,-0.95,-0.95,-0.95
450.42,4.43,5.39,4.43,5.38,-5.38,-5.30,-5.23,-0.95,-0.95,-0.96
454.93,4.36,5.31,4.36,5.31,-5.31,-5.22,-5.25,-0.95,-0.95,-0.95
459.48,4.29,5.24,4.29,5.24,-5.23,-5.13,-5.26,-0.94,-0.94,-0.95
464.07,4.21,5.16,4.20,5.15,-5.15,-5.04,-5.28,-0.94,-0.94,-0.95
468.71,4.12,5.06,4.11,5.06,-5.06,-4.95,-5.29,-0.94,-0.95,-0.94
473.40,4.00,4.95,4.01,4.95,-4.96,-4.86,-5.29,-0.96,-0.95,-0.95
478.13,3.91,4.85,3.91,4.85,-4.86,-4.77,-5.29,-0.95,-0.95,-0.94
482.91,3.81,4.75,3.81,4.75,-4.76,-4.68,-5.29,-0.95,-0.95,-0.94
487.74,3.72,4.66,3.71,4.65,-4.65,-4.59,-5.28,-0.93,-0.94,-0.94
492.62,3.60,4.53,3.60,4.54,-4.53,-4.50,-5.27,-0.94,-0.93,-0.93
497.55,3.49,4.43,3.49,4.43,-4.42,-4.41,-5.25,-0.93,-0.93,-0.94
502.52,3.38,4.31,3.37,4.31,-4.30,-4.32,-5.22,-0.93,-0.93,-0.93
507.55,3.25,4.19,3.25,4.19,-4.19,-4.23,-5.19,-0.94,-0.93,-0.95
512.62,3.13,4.07,3.13,4.07,-4.07,-4.14,-5.15,-0.94,-0.94,-0.95
517.75,3.02,3.95,3.01,3.95,-3.96,-4.05,-5.11,-0.94,-0.95,-0.94
