frequency,raw,error,smoothed,error_smoothed,equalization,parametric_eq,fixed_band_eq,equalized_raw,equalized_smoothed,target
20.00,0.32,-5.42,0.32,-5.42,5.42,4.99,1.46,5.74,5.74,5.74
20.20,0.38,-5.34,0.37,-5.35,5.35,4.95,1.50,5.73,5.72,5.72
20.40,0.43,-5.28,0.43,-5.28,5.28,4.91,1.55,5.71,5.71,5.71
20.61,0.49,-5.22,0.49,-5.21,5.21,4.87,1.59,5.70,5.70,5.71
20.81,0.55,-5.14,0.55,-5.14,5.14,4.83,1.64,5.69,5.69,5.69
21.02,0.61,-5.07,0.61,-5.07,5.08,4.79,1.69,5.68,5.68,5.68
21.23,0.67,-5.00,0.67,-5.01,5.01,4.74,1.74,5.68,5.68,5.67
21.44,0.73,-4.95,0.73,-4.94,4.94,4.70,1.80,5.67,5.67,5.68
21.66,0.79,-4.88,0.79,-4.88,4.88,4.65,1.85,5.66,5.66,5.67
21.87,0.85,-4.81,0.84,-4.81,4.81,4.60,1.91,5.66,5.66,5.66
22.09,0.90,-4.75,0.90,-4.75,4.75,4.56,1.96,5.65,5.65,5.65
22.31,0.96,-4.69,0.96,-4.68,4.69,4.51,2.02,5.64,5.64,5.64
22.54,1.02,-4.62,1.02,-4.62,4.62,4.46,2.08,5.64,5.64,5.63
22.76,1.08,-4.57,1.08,-4.56,4.56,4.41,2.14,5.63,5.63,5.64
22.99,1.14,-4.50,1.14,-4.50,4.49,4.35,2.21,5.63,5.63,5.63
23.22,1.20,-4.43,1.20,-4.43,4.43,4.30,2.27,5.63,5.63,5.62
23.45,1.26,-4.37,1.26,-4.37,4.37,4.25,2.34,5.63,5.63,5.62
23.69,1.32,-4.31,1.32,-4.30,4.31,4.20,2.41,5.63,5.63,5.62
23.92,1.38,-4.24,1.38,-4.25,4.25,4.14,2.47,5.63,5.63,5.62
24.16,1.44,-4.18,1.43,-4.19,4.19,4.09,2.54,5.63,5.62,5.62
24.40,1.49,-4.14,1.49,-4.14,4.13,4.03,2.62,5.62,5.62,5.63
24.65,1.55,-4.08,1.55,-4.08,4.07,3.98,2.69,5.62,5.62,5.63
24.89,1.61,-4.01,1.60,-4.02,4.01,3.92,2.76,5.62,5.61,5.62
25.14,1.66,-3.95,1.66,-3.95,3.95,3.87,2.83,5.61,5.61,5.61
25.39,1.72,-3.89,1.72,-3.88,3.89,3.81,2.91,5.61,5.61,5.61
25.65,1.78,-3.82,1.78,-3.82,3.83,3.75,2.98,5.60,5.60,5.60
25.91,1.84,-3.76,1.84,-3.76,3.77,3.70,3.05,5.60,5.60,5.59
26.16,1.90,-3.71,1.89,-3.70,3.70,3.64,3.12,5.60,5.60,5.60
26.43,1.95,-3.65,1.95,-3.65,3.64,3.59,3.20,5.59,5.59,5.59
26.69,2.01,-3.59,2.01,-3.59,3.58,3.53,3.27,5.59,5.59,5.59
26.96,2.07,-3.53,2.06,-3.52,3.52,3.47,3.33,5.59,5.59,5.59
27.23,2.13,-3.45,2.12,-3.46,3.46,3.42,3.40,5.59,5.59,5.58
27.50,2.18,-3.40,2.18,-3.40,3.41,3.36,3.47,5.58,5.59,5.58
27.77,2.24,-3.35,2.23,-3.35,3.35,3.31,3.53,5.59,5.58,5.59
28.05,2.29,-3.30,2.29,-3.30,3.30,3.25,3.58,5.58,5.58,5.59
28.33,2.34,-3.25,2.34,-3.25,3.24,3.19,3.64,5.58,5.59,5.58
28.62,2.40,-3.19,2.39,-3.19,3.19,3.14,3.69,5.59,5.59,5.58
28.90,2.45,-3.15,2.45,-3.14,3.15,3.09,3.73,5.59,5.59,5.59
29.19,2.50,-3.09,2.50,-3.09,3.10,3.03,3.77,5.59,5.59,5.59
29.48,2.55,-3.04,2.55,-3.05,3.04,2.98,3.81,5.59,5.59,5.59
29.78,2.60,-2.99,2.60,-3.00,2.99,2.92,3.83,5.59,5.59,5.59
30.08,2.65,-2.96,2.65,-2.95,2.94,2.87,3.85,5.58,5.59,5.61
30.38,2.71,-2.89,2.71,-2.89,2.89,2.82,3.87,5.59,5.59,5.59
30.68,2.77,-2.83,2.76,-2.83,2.83,2.76,3.88,5.60,5.60,5.59
30.99,2.83,-2.77,2.82,-2.77,2.78,2.71,3.88,5.60,5.60,5.59
31.30,2.87,-2.72,2.87,-2.72,2.72,2.66,3.87,5.59,5.59,5.59
31.61,2.92,-2.67,2.92,-2.67,2.67,2.61,3.85,5.58,5.59,5.59
31.93,2.97,-2.61,2.96,-2.62,2.62,2.56,3.83,5.58,5.58,5.58
32.24,3.01,-2.57,3.01,-2.56,2.57,2.51,3.80,5.57,5.57,5.57
32.57,3.05,-2.52,3.05,-2.52,2.52,2.46,3.77,5.56,5.57,5.56
32.89,3.09,-2.47,3.09,-2.47,2.47,2.41,3.72,5.56,5.56,5.56
33.22,3.13,-2.43,3.13,-2.43,2.43,2.36,3.67,5.55,5.55,5.56
33.55,3.17,-2.39,3.17,-2.38,2.38,2.31,3.62,5.55,5.55,5.55
33.89,3.21,-2.33,3.21,-2.34,2.34,2.27,3.56,5.54,5.54,5.54
34.23,3.25,-2.28,3.24,-2.29,2.29,2.22,3.49,5.54,5.53,5.53
34.57,3.28,-2.25,3.28,-2.24,2.24,2.17,3.42,5.52,5.52,5.53
34.92,3.32,-2.20,3.32,-2.20,2.20,2.13,3.34,5.51,5.51,5.51
35.27,3.36,-2.16,3.35,-2.15,2.15,2.08,3.26,5.51,5.51,5.52
35.62,3.39,-2.10,3.39,-2.11,2.11,2.04,3.18,5.50,5.50,5.49
35.97,3.43,-2.06,3.42,-2.06,2.07,1.99,3.09,5.49,5.49,5.48
36.33,3.45,-2.02,3.45,-2.02,2.02,1.95,3.00,5.47,5.47,5.47
36.70,3.48,-1.98,3.48,-1.98,1.98,1.90,2.91,5.46,5.46,5.46
37.06,3.51,-1.94,3.50,-1.94,1.94,1.86,2.81,5.44,5.44,5.44
37.43,3.54,-1.89,3.53,-1.89,1.89,1.81,2.72,5.43,5.42,5.43
37.81,3.56,-1.86,3.56,-1.85,1.84,1.77,2.62,5.40,5.40,5.41
38.19,3.60,-1.79,3.59,-1.80,1.79,1.73,2.52,5.39,5.39,5.39
38.57,3.63,-1.75,3.63,-1.74,1.74,1.68,2.42,5.37,5.37,5.38
38.95,3.67,-1.69,3.66,-1.69,1.69,1.64,2.32,5.36,5.35,5.35
39.34,3.70,-1.63,3.70,-1.63,1.64,1.59,2.23,5.34,5.33,5.33
39.74,3.73,-1.59,3.73,-1.58,1.59,1.55,2.13,5.31,5.31,5.31
40.14,3.76,-1.53,3.76,-1.53,1.54,1.50,2.03,5.29,5.29,5.29
40.54,3.79,-1.49,3.79,-1.48,1.49,1.45,1.93,5.27,5.27,5.27
40.94,3.82,-1.43,3.81,-1.44,1.44,1.41,1.83,5.26,5.25,5.25
41.35,3.84,-1.39,3.84,-1.39,1.39,1.36,1.73,5.23,5.23,5.23
41.76,3.87,-1.35,3.86,-1.35,1.35,1.31,1.64,5.21,5.21,5.22
42.18,3.89,-1.31,3.89,-1.30,1.30,1.26,1.54,5.18,5.19,5.20
42.60,3.93,-1.25,3.92,-1.25,1.25,1.21,1.45,5.17,5.17,5.17
43.03,3.96,-1.19,3.95,-1.20,1.20,1.16,1.35,5.15,5.15,5.15
43.46,3.99,-1.14,3.99,-1.14,1.14,1.10,1.26,5.13,5.13,5.13
43.90,4.02,-1.09,4.02,-1.09,1.09,1.05,1.17,5.10,5.11,5.10
44.33,4.06,-1.03,4.05,-1.03,1.03,1.00,1.08,5.09,5.08,5.08
44.78,4.09,-0.97,4.09,-0.97,0.97,0.94,0.99,5.05,5.06,5.06
45.23,4.13,-0.91,4.12,-0.91,0.90,0.89,0.90,5.03,5.03,5.04
45.68,4.16,-0.85,4.16,-0.84,0.84,0.83,0.81,5.00,5.00,5.00
46.13,4.20,-0.77,4.20,-0.77,0.77,0.78,0.72,4.97,4.97,4.96
46.60,4.24,-0.70,4.23,-0.70,0.71,0.72,0.64,4.94,4.94,4.93
47.06,4.27,-0.64,4.27,-0.63,0.64,0.66,0.55,4.90,4.91,4.90
47.53,4.31,-0.57,4.30,-0.57,0.56,0.61,0.47,4.87,4.87,4.88
48.01,4.34,-0.49,4.34,-0.50,0.49,0.55,0.38,4.83,4.83,4.83
48.49,4.37,-0.43,4.37,-0.43,0.42,0.49,0.30,4.79,4.79,4.80
48.97,4.41,-0.35,4.40,-0.35,0.35,0.44,0.22,4.75,4.75,4.75
49.46,4.44,-0.29,4.44,-0.28,0.28,0.38,0.14,4.72,4.72,4.72
49.96,4.48,-0.20,4.48,-0.21,0.21,0.32,0.06,4.69,4.69,4.67
50.46,4.51,-0.14,4.51,-0.14,0.15,0.27,-0.02,4.66,4.66,4.65
50.96,4.54,-0.08,4.53,-0.09,0.09,0.21,-0.10,4.63,4.63,4.62
51.47,4.55,-0.04,4.55,-0.03,0.04,0.15,-0.18,4.59,4.59,4.59
51.99,4.57,0.01,4.57,0.01,-0.02,0.10,-0.25,4.55,4.55,4.55
52.51,4.59,0.07,4.58,0.06,-0.07,0.04,-0.33,4.52,4.51,4.52
53.03,4.60,0.10,4.60,0.11,-0.12,-0.01,-0.40,4.47,4.48,4.50
53.56,4.62,0.17,4.62,0.16,-0.17,-0.07,-0.47,4.44,4.44,4.45
54.10,4.64,0.22,4.64,0.22,-0.23,-0.12,-0.54,4.41,4.41,4.42
54.64,4.67,0.29,4.66,0.29,-0.28,-0.18,-0.61,4.38,4.38,4.38
55.18,4.69,0.35,4.68,0.35,-0.33,-0.23,-0.68,4.35,4.35,4.33
55.74,4.70,0.40,4.70,0.40,-0.39,-0.28,-0.74,4.31,4.31,4.30
56.29,4.72,0.44,4.71,0.44,-0.44,-0.34,-0.81,4.28,4.28,4.28
56.86,4.73,0.47,4.73,0.48,-0.48,-0.39,-0.87,4.24,4.25,4.25
57.42,4.75,0.53,4.75,0.53,-0.53,-0.44,-0.93,4.22,4.22,4.21
58.00,4.77,0.58,4.77,0.57,-0.57,-0.49,-0.99,4.19,4.19,4.18
58.58,4.79,0.61,4.79,0.62,-0.62,-0.54,-1.04,4.17,4.17,4.18
59.16,4.81,0.66,4.81,0.66,-0.67,-0.60,-1.10,4.14,4.14,4.14
59.76,4.83,0.71,4.83,0.71,-0.72,-0.65,-1.15,4.11,4.11,4.11
60.35,4.85,0.77,4.84,0.77,-0.77,-0.70,-1.20,4.07,4.07,4.07
60.96,4.86,0.83,4.86,0.83,-0.83,-0.75,-1.24,4.02,4.02,4.03
61.57,4.87,0.89,4.87,0.89,-0.89,-0.80,-1.29,3.97,3.98,3.98
62.18,4.89,0.95,4.89,0.95,-0.95,-0.85,-1.33,3.93,3.93,3.93
62.80,4.91,1.02,4.91,1.02,-1.01,-0.90,-1.37,3.89,3.89,3.89
63.43,4.93,1.08,4.93,1.08,-1.08,-0.95,-1.41,3.85,3.85,3.84
64.07,4.95,1.14,4.95,1.14,-1.14,-1.00,-1.44,3.81,3.81,3.81
64.71,4.97,1.19,4.97,1.20,-1.19,-1.04,-1.47,3.77,3.77,3.77
65.35,4.99,1.25,4.98,1.25,-1.25,-1.09,-1.50,3.74,3.74,3.73
66.01,5.00,1.30,5.00,1.30,-1.30,-1.14,-1.53,3.70,3.70,3.70
66.67,5.01,1.34,5.01,1.35,-1.35,-1.19,-1.56,3.66,3.66,3.67
67.33,5.02,1.40,5.01,1.39,-1.39,-1.24,-1.59,3.63,3.62,3.62
68.01,5.02,1.44,5.02,1.44,-1.43,-1.28,-1.61,3.59,3.59,3.58
68.69,5.02,1.48,5.02,1.48,-1.47,-1.33,-1.63,3.55,3.55,3.54
69.37,5.02,1.51,5.02,1.51,-1.51,-1.38,-1.65,3.50,3.50,3.50
70.07,5.02,1.55,5.02,1.55,-1.55,-1.43,-1.67,3.46,3.46,3.47
70.77,5.02,1.59,5.01,1.59,-1.60,-1.47,-1.69,3.42,3.42,3.43
71.48,5.02,1.63,5.02,1.63,-1.65,-1.52,-1.71,3.37,3.37,3.38
72.19,5.03,1.69,5.03,1.69,-1.70,-1.57,-1.73,3.33,3.33,3.34
72.91,5.05,1.75,5.04,1.75,-1.75,-1.61,-1.75,3.30,3.30,3.30
73.64,5.07,1.81,5.06,1.81,-1.80,-1.66,-1.77,3.26,3.26,3.25
74.38,5.09,1.87,5.09,1.87,-1.86,-1.71,-1.79,3.22,3.22,3.21
75.12,5.11,1.92,5.11,1.93,-1.92,-1.75,-1.80,3.18,3.19,3.19
75.87,5.14,1.98,5.14,1.98,-1.98,-1.80,-1.82,3.15,3.15,3.16
76.63,5.17,2.04,5.16,2.04,-2.04,-1.84,-1.84,3.13,3.12,3.13
77.40,5.19,2.09,5.19,2.10,-2.10,-1.89,-1.86,3.09,3.09,3.09
78.17,5.22,2.15,5.22,2.15,-2.15,-1.93,-1.88,3.07,3.07,3.06
78.95,5.25,2.21,5.24,2.21,-2.20,-1.98,-1.91,3.04,3.04,3.04
79.74,5.27,2.25,5.27,2.26,-2.26,-2.02,-1.93,3.01,3.01,3.01
80.54,5.30,2.32,5.29,2.31,-2.31,-2.07,-1.95,2.99,2.98,2.98
81.35,5.32,2.36,5.31,2.36,-2.36,-2.11,-1.98,2.95,2.95,2.95
82.16,5.33,2.40,5.33,2.41,-2.41,-2.16,-2.01,2.92,2.92,2.93
82.98,5.35,2.46,5.34,2.45,-2.46,-2.20,-2.04,2.89,2.89,2.89
83.81,5.36,2.50,5.36,2.50,-2.50,-2.25,-2.07,2.86,2.86,2.85
84.65,5.37,2.54,5.37,2.55,-2.54,-2.29,-2.10,2.83,2.83,2.82
85.50,5.37,2.58,5.37,2.58,-2.57,-2.34,-2.13,2.79,2.79,2.78
86.35,5.37,2.61,5.36,2.61,-2.61,-2.38,-2.17,2.76,2.76,2.75
87.22,5.36,2.63,5.36,2.64,-2.64,-2.42,-2.20,2.71,2.71,2.72
88.09,5.35,2.67,5.35,2.67,-2.67,-2.47,-2.24,2.67,2.68,2.68
88.97,5.35,2.70,5.35,2.70,-2.71,-2.51,-2.28,2.64,2.64,2.65
89.86,5.35,2.74,5.35,2.74,-2.74,-2.55,-2.32,2.61,2.61,2.61
90.76,5.35,2.77,5.35,2.77,-2.77,-2.60,-2.37,2.58,2.58,2.57
91.66,5.35,2.81,5.35,2.81,-2.81,-2.64,-2.41,2.54,2.54,2.54
92.58,5.35,2.84,5.35,2.84,-2.84,-2.68,-2.46,2.50,2.50,2.50
93.51,5.35,2.88,5.35,2.88,-2.88,-2.72,-2.51,2.47,2.47,2.47
94.44,5.35,2.91,5.35,2.92,-2.92,-2.77,-2.56,2.43,2.43,2.43
95.39,5.35,2.96,5.35,2.96,-2.96,-2.81,-2.61,2.39,2.39,2.39
96.34,5.35,3.00,5.35,3.00,-3.00,-2.85,-2.66,2.35,2.35,2.34
97.30,5.35,3.04,5.35,3.04,-3.04,-2.89,-2.72,2.31,2.31,2.31
98.28,5.35,3.08,5.35,3.08,-3.08,-2.93,-2.77,2.27,2.27,2.27
99.26,5.35,3.12,5.35,3.12,-3.12,-2.97,-2.83,2.23,2.23,2.22
100.25,5.35,3.16,5.35,3.15,-3.15,-3.01,-2.89,2.19,2.19,2.18
101.25,5.35,3.18,5.35,3.19,-3.19,-3.05,-2.95,2.16,2.16,2.17
102.27,5.35,3.22,5.35,3.22,-3.22,-3.09,-3.01,2.13,2.13,2.13
103.29,5.35,3.26,5.35,3.25,-3.25,-3.13,-3.07,2.10,2.10,2.09
104.32,5.35,3.27,5.35,3.28,-3.28,-3.17,-3.13,2.07,2.07,2.07
105.37,5.35,3.31,5.35,3.31,-3.31,-3.21,-3.20,2.04,2.04,2.04
106.42,5.35,3.34,5.35,3.34,-3.34,-3.25,-3.26,2.00,2.00,2.01
107.48,5.35,3.38,5.35,3.37,-3.37,-3.29,-3.32,1.97,1.97,1.97
108.56,5.35,3.40,5.35,3.41,-3.41,-3.33,-3.38,1.94,1.94,1.94
109.64,5.35,3.44,5.35,3.44,-3.44,-3.37,-3.44,1.91,1.91,1.90
110.74,5.35,3.47,5.35,3.47,-3.47,-3.40,-3.50,1.87,1.87,1.88
111.85,5.35,3.51,5.35,3.51,-3.51,-3.44,-3.56,1.84,1.84,1.84
112.97,5.35,3.54,5.35,3.54,-3.54,-3.48,-3.61,1.80,1.80,1.80
114.10,5.35,3.57,5.35,3.58,-3.58,-3.51,-3.67,1.76,1.76,1.78
115.24,5.35,3.62,5.35,3.61,-3.62,-3.55,-3.72,1.73,1.72,1.73
116.39,5.35,3.66,5.35,3.66,-3.66,-3.58,-3.77,1.69,1.69,1.68
117.55,5.35,3.69,5.35,3.70,-3.70,-3.62,-3.82,1.65,1.65,1.66
118.73,5.36,3.74,5.36,3.74,-3.73,-3.65,-3.86,1.62,1.62,1.61
119.92,5.37,3.78,5.36,3.77,-3.77,-3.68,-3.90,1.60,1.60,1.59
121.12,5.37,3.80,5.36,3.81,-3.80,-3.72,-3.94,1.57,1.57,1.56
122.33,5.36,3.83,5.36,3.83,-3.82,-3.75,-3.98,1.53,1.54,1.53
123.55,5.35,3.85,5.34,3.84,-3.84,-3.78,-4.01,1.50,1.50,1.50
124.79,5.33,3.85,5.33,3.86,-3.86,-3.81,-4.03,1.47,1.47,1.48
126.03,5.31,3.87,5.31,3.87,-3.87,-3.84,-4.06,1.44,1.44,1.43
127.29,5.29,3.88,5.28,3.88,-3.88,-3.86,-4.08,1.41,1.41,1.40
128.57,5.26,3.88,5.25,3.88,-3.88,-3.89,-4.09,1.37,1.37,1.37
129.85,5.22,3.88,5.22,3.89,-3.89,-3.92,-4.11,1.33,1.33,1.33
131.15,5.18,3.88,5.18,3.89,-3.89,-3.94,-4.12,1.29,1.30,1.29
132.46,5.16,3.90,5.15,3.89,-3.89,-3.97,-4.12,1.27,1.26,1.26
133.79,5.12,3.90,5.12,3.90,-3.89,-3.99,-4.13,1.23,1.23,1.22
135.12,5.08,3.89,5.09,3.90,-3.90,-4.01,-4.13,1.18,1.19,1.18
136.48,5.07,3.90,5.05,3.90,-3.90,-4.03,-4.13,1.16,1.15,1.17
137.84,5.03,3.90,5.03,3.91,-3.92,-4.05,-4.12,1.11,1.11,1.13
139.22,5.02,3.93,5.02,3.92,-3.94,-4.06,-4.12,1.08,1.08,1.09
140.61,5.01,3.94,5.01,3.95,-3.96,-4.08,-4.12,1.05,1.05,1.06
142.02,5.01,3.98,5.01,3.98,-3.98,-4.09,-4.11,1.02,1.03,1.03
143.44,5.02,4.02,5.02,4.01,-4.01,-4.10,-4.10,1.01,1.01,1.00
144.87,5.03,4.04,5.03,4.04,-4.04,-4.11,-4.10,0.99,0.99,0.99
146.32,5.04,4.08,5.03,4.07,-4.06,-4.12,-4.09,0.98,0.97,0.96
147.78,5.02,4.08,5.02,4.09,-4.08,-4.13,-4.08,0.94,0.95,0.94
149.26,5.01,4.10,5.01,4.10,-4.09,-4.13,-4.08,0.92,0.92,0.91
150.75,4.99,4.10,4.98,4.10,-4.09,-4.13,-4.07,0.89,0.89,0.88
152.26,4.96,4.09,4.96,4.10,-4.09,-4.13,-4.07,0.86,0.87,0.87
153.78,4.93,4.09,4.93,4.09,-4.09,-4.13,-4.07,0.84,0.84,0.84
155.32,4.90,4.08,4.89,4.08,-4.08,-4.12,-4.07,0.82,0.81,0.81
156.88,4.86,4.07,4.86,4.07,-4.07,-4.12,-4.07,0.78,0.78,0.79
158.44,4.83,4.07,4.82,4.06,-4.07,-4.11,-4.07,0.76,0.76,0.76
160.03,4.79,4.05,4.79,4.06,-4.06,-4.10,-4.08,0.72,0.73,0.73
161.63,4.77,4.06,4.76,4.06,-4.06,-4.10,-4.09,0.70,0.70,0.70
163.24,4.74,4.07,4.73,4.07,-4.07,-4.10,-4.10,0.67,0.67,0.66
164.88,4.71,4.07,4.71,4.07,-4.08,-4.10,-4.12,0.63,0.63,0.63
166.53,4.69,4.08,4.69,4.09,-4.09,-4.10,-4.13,0.59,0.59,0.60
168.19,4.68,4.10,4.68,4.10,-4.12,-4.11,-4.15,0.56,0.56,0.57
169.87,4.68,4.14,4.68,4.13,-4.14,-4.12,-4.18,0.53,0.53,0.54
171.57,4.68,4.17,4.68,4.17,-4.17,-4.14,-4.20,0.50,0.51,0.51
173.29,4.69,4.21,4.68,4.21,-4.20,-4.16,-4.23,0.48,0.48,0.47
175.02,4.69,4.25,4.69,4.25,-4.23,-4.19,-4.27,0.45,0.45,0.44
176.77,4.70,4.29,4.69,4.28,-4.27,-4.23,-4.30,0.43,0.42,0.40
178.54,4.69,4.31,4.68,4.31,-4.30,-4.27,-4.34,0.38,0.38,0.38
180.32,4.68,4.34,4.68,4.34,-4.34,-4.32,-4.39,0.34,0.34,0.34
182.13,4.67,4.36,4.67,4.36,-4.38,-4.38,-4.43,0.29,0.29,0.31
183.95,4.68,4.40,4.67,4.40,-4.41,-4.43,-4.48,0.26,0.26,0.27
185.79,4.69,4.45,4.69,4.45,-4.45,-4.49,-4.54,0.23,0.23,0.23
187.65,4.71,4.50,4.71,4.51,-4.50,-4.55,-4.59,0.21,0.21,0.20
189.52,4.73,4.56,4.72,4.55,-4.55,-4.61,-4.65,0.18,0.17,0.16
191.42,4.74,4.60,4.74,4.61,-4.61,-4.67,-4.71,0.13,0.13,0.13
193.33,4.76,4.65,4.76,4.66,-4.67,-4.73,-4.78,0.09,0.09,0.10
195.27,4.80,4.73,4.79,4.72,-4.73,-4.79,-4.85,0.06,0.06,0.07
197.22,4.83,4.80,4.83,4.80,-4.80,-4.85,-4.92,0.02,0.03,0.03
199.19,4.88,4.86,4.88,4.87,-4.87,-4.91,-4.99,0.00,0.00,0.01
201.18,4.94,4.96,4.93,4.95,-4.95,-4.97,-5.06,-0.01,-0.02,-0.02
203.19,4.99,5.03,4.99,5.03,-5.02,-5.02,-5.14,-0.04,-0.03,-0.04
205.23,5.05,5.11,5.04,5.11,-5.10,-5.08,-5.22,-0.06,-0.06,-0.06
207.28,5.10,5.18,5.09,5.18,-5.18,-5.14,-5.29,-0.08,-0.08,-0.08
209.35,5.14,5.25,5.14,5.25,-5.25,-5.19,-5.37,-0.11,-0.11,-0.11
211.44,5.19,5.32,5.19,5.32,-5.32,-5.25,-5.45,-0.13,-0.13,-0.14
213.56,5.24,5.39,5.23,5.39,-5.39,-5.31,-5.53,-0.15,-0.15,-0.15
215.69,5.28,5.45,5.28,5.45,-5.46,-5.37,-5.61,-0.18,-0.18,-0.17
217.85,5.33,5.52,5.32,5.51,-5.52,-5.43,-5.69,-0.19,-0.20,-0.20
220.03,5.36,5.57,5.36,5.58,-5.58,-5.49,-5.76,-0.23,-0.22,-0.22
222.23,5.40,5.64,5.40,5.64,-5.65,-5.55,-5.83,-0.25,-0.24,-0.24
224.45,5.46,5.72,5.45,5.71,-5.70,-5.62,-5.90,-0.25,-0.25,-0.26
226.70,5.50,5.77,5.50,5.77,-5.76,-5.69,-5.97,-0.26,-0.26,-0.27
228.96,5.54,5.82,5.53,5.82,-5.81,-5.76,-6.03,-0.27,-0.28,-0.28
231.25,5.56,5.86,5.56,5.86,-5.86,-5.83,-6.08,-0.30,-0.30,-0.30
233.57,5.59,5.90,5.59,5.90,-5.91,-5.90,-6.13,-0.32,-0.32,-0.31
235.90,5.62,5.95,5.61,5.94,-5.95,-5.97,-6.18,-0.33,-0.34,-0.33
238.26,5.64,5.98,5.64,5.97,-5.98,-6.03,-6.21,-0.35,-0.34,-0.34
240.64,5.67,5.99,5.67,6.01,-6.01,-6.08,-6.24,-0.34,-0.34,-0.33
243.05,5.70,6.03,5.69,6.04,-6.03,-6.12,-6.26,-0.33,-0.33,-0.34
245.48,5.72,6.07,5.71,6.06,-6.04,-6.14,-6.28,-0.32,-0.33,-0.35
247.93,5.71,6.07,5.70,6.06,-6.04,-6.15,-6.28,-0.33,-0.33,-0.36
250.41,5.69,6.04,5.68,6.04,-6.03,-6.14,-6.28,-0.35,-0.35,-0.35
252.92,5.65,5.99,5.66,6.01,-6.02,-6.11,-6.27,-0.37,-0.36,-0.35
255.45,5.63,5.98,5.63,5.98,-6.00,-6.07,-6.25,-0.37,-0.37,-0.35
258.00,5.62,5.97,5.61,5.96,-5.97,-6.02,-6.22,-0.35,-0.36,-0.35
260.58,5.59,5.94,5.59,5.94,-5.93,-5.96,-6.18,-0.35,-0.35,-0.36
263.19,5.56,5.91,5.55,5.91,-5.90,-5.89,-6.14,-0.34,-0.34,-0.35
265.82,5.51,5.86,5.51,5.87,-5.86,-5.83,-6.09,-0.35,-0.35,-0.36
268.48,5.47,5.82,5.46,5.82,-5.82,-5.76,-6.03,-0.35,-0.36,-0.35
271.16,5.42,5.78,5.41,5.77,-5.78,-5.70,-5.97,-0.36,-0.37,-0.36
273.87,5.36,5.71,5.36,5.72,-5.73,-5.64,-5.90,-0.37,-0.37,-0.35
276.61,5.32,5.68,5.32,5.68,-5.68,-5.58,-5.82,-0.37,-0.37,-0.36
279.38,5.28,5.65,5.27,5.64,-5.63,-5.52,-5.74,-0.36,-0.36,-0.37
282.17,5.23,5.59,5.23,5.59,-5.58,-5.47,-5.66,-0.36,-0.35,-0.36
284.99,5.19,5.54,5.18,5.54,-5.54,-5.41,-5.58,-0.35,-0.36,-0.35
287.84,5.13,5.47,5.13,5.48,-5.49,-5.37,-5.49,-0.36,-0.36,-0.35
290.72,5.08,5.44,5.08,5.44,-5.44,-5.32,-5.40,-0.37,-0.36,-0.36
293.63,5.04,5.39,5.04,5.39,-5.39,-5.28,-5.31,-0.36,-0.36,-0.36
296.57,5.01,5.35,5.00,5.35,-5.35,-5.23,-5.21,-0.34,-0.34,-0.34
299.53,4.97,5.31,4.96,5.30,-5.30,-5.19,-5.12,-0.33,-0.34,-0.34
302.53,4.92,5.25,4.92,5.25,-5.25,-5.16,-5.03,-0.33,-0.33,-0.34
305.55,4.87,5.20,4.87,5.20,-5.20,-5.12,-4.94,-0.34,-0.34,-0.33
308.61,4.83,5.15,4.82,5.15,-5.16,-5.08,-4.84,-0.33,-0.33,-0.32
311.69,4.78,5.09,4.78,5.10,-5.11,-5.04,-4.75,-0.33,-0.32,-0.32
314.81,4.75,5.06,4.74,5.05,-5.05,-5.01,-4.67,-0.31,-0.31,-0.31
317.96,4.71,5.01,4.70,5.01,-5.00,-4.97,-4.58,-0.29,-0.29,-0.30
321.14,4.66,4.95,4.65,4.95,-4.94,-4.94,-4.49,-0.28,-0.29,-0.30
324.35,4.60,4.90,4.60,4.89,-4.88,-4.90,-4.41,-0.29,-0.29,-0.30
327.59,4.54,4.81,4.54,4.82,-4.83,-4.87,-4.33,-0.29,-0.29,-0.27
330.87,4.49,4.76,4.48,4.76,-4.77,-4.83,-4.25,-0.28,-0.29,-0.27
334.18,4.43,4.70,4.43,4.70,-4.71,-4.80,-4.18,-0.28,-0.28,-0.28
337.52,4.39,4.65,4.38,4.65,-4.65,-4.76,-4.10,-0.26,-0.26,-0.26
340.90,4.34,4.59,4.34,4.59,-4.58,-4.72,-4.04,-0.25,-0.25,-0.25
344.30,4.29,4.53,4.29,4.53,-4.52,-4.69,-3.97,-0.24,-0.23,-0.24
347.75,4.25,4.48,4.24,4.47,-4.47,-4.65,-3.90,-0.22,-0.23,-0.24
351.23,4.19,4.41,4.18,4.41,-4.41,-4.61,-3.84,-0.22,-0.23,-0.23
354.74,4.13,4.34,4.13,4.35,-4.35,-4.58,-3.79,-0.23,-0.23,-0.21
358.28,4.07,4.28,4.08,4.29,-4.30,-4.54,-3.73,-0.23,-0.22,-0.21
361.87,4.04,4.25,4.03,4.24,-4.24,-4.50,-3.68,-0.21,-0.21,-0.21
365.49,4.00,4.19,4.00,4.19,-4.19,-4.46,-3.63,-0.19,-0.19,-0.19
369.14,3.96,4.14,3.95,4.14,-4.13,-4.42,-3.58,-0.18,-0.18,-0.19
372.83,3.91,4.08,3.90,4.08,-4.08,-4.38,-3.54,-0.17,-0.17,-0.18
376.56,3.85,4.03,3.85,4.03,-4.02,-4.34,-3.50,-0.18,-0.17,-0.18
380.33,3.80,3.97,3.80,3.97,-3.97,-4.30,-3.46,-0.17,-0.17,-0.17
384.13,3.75,3.91,3.74,3.91,-3.91,-4.26,-3.42,-0.16,-0.16,-0.16
387.97,3.70,3.85,3.70,3.85,-3.85,-4.22,-3.39,-0.15,-0.15,-0.15
391.85,3.65,3.78,3.65,3.79,-3.79,-4.18,-3.36,-0.15,-0.15,-0.13
395.77,3.61,3.74,3.60,3.74,-3.74,-4.14,-3.33,-0.13,-0.14,-0.14
399.73,3.56,3.68,3.56,3.68,-3.69,-4.09,-3.30,-0.13,-0.13,-0.13
403.72,3.53,3.63,3.52,3.64,-3.64,-4.05,-3.28,-0.11,-0.11,-0.11
407.76,3.49,3.59,3.49,3.59,-3.59,-4.00,-3.26,-0.10,-0.10,-0.10
411.84,3.46,3.55,3.45,3.54,-3.54,-3.96,-3.23,-0.08,-0.08,-0.09
415.96,3.42,3.50,3.42,3.50,-3.49,-3.91,-3.21,-0.07,-0.07,-0.08
420.12,3.38,3.46,3.37,3.45,-3.44,-3.86,-3.20,-0.07,-0.07,-0.08
424.32,3.33,3.40,3.33,3.40,-3.40,-3.82,-3.18,-0.07,-0.07,-0.07
428.56,3.29,3.34,3.29,3.34,-3.36,-3.77,-3.16,-0.07,-0.07,-0.05
432.85,3.26,3.29,3.25,3.30,-3.32,-3.72,-3.14,-0.07,-0.07,-0.04
437.18,3.23,3.27,3.23,3.27,-3.28,-3.67,-3.13,-0.06,-0.05,-0.05
441.55,3.22,3.25,3.22,3.25,-3.24,-3.62,-3.11,-0.03,-0.03,-0.04
445.96,3.21,3.23,3.20,3.22,-3.21,-3.57,-3.10,0.00,-0.01,-0.03
450.42,3.17,3.18,3.17,3.19,-3.17,-3.52,-3.08,0.00,0.00,-0.02
454.93,3.13,3.13,3.13,3.14,-3.12,-3.46,-3.06,0.00,0.00,-0.01
459.48,3.09,3.09,3.09,3.08,-3.08,-3.41,-3.04,0.00,0.00,0.00
464.07,3.05,3.03,3.04,3.03,-3.04,-3.36,-3.02,0.00,0.00,0.02
468.71,3.01,2.99,3.01,2.98,-3.00,-3.30,-3.00,0.01,0.00,0.02
473.40,2.97,2.94,2.97,2.94,-2.96,-3.25,-2.98,0.01,0.01,0.03
478.13,2.95,2.91,2.95,2.91,-2.92,-3.19,-2.96,0.03,0.03,0.04
482.91,2.93,2.88,2.93,2.88,-2.88,-3.13,-2.93,0.05,0.05,0.05
487.74,2.92,2.86,2.91,2.85,-2.84,-3.07,-2.90,0.08,0.07,0.06
492.62,2.88,2.81,2.88,2.81,-2.79,-3.02,-2.87,0.08,0.09,0.07
497.55,2.84,2.76,2.84,2.76,-2.75,-2.96,-2.84,0.09,0.09,0.08
502.52,2.79,2.70,2.79,2.70,-2.70,-2.90,-2.80,0.09,0.09,0.09
507.55,2.74,2.63,2.74,2.64,-2.65,-2.84,-2.77,0.09,0.09,0.11
512.62,2.70,2.58,2.70,2.58,-2.59,-2.77,-2.73,0.10,0.10,0.11
517.75,2.66,2.52,2.66,2.53,-2.54,-2.71,-2.68,0.12,0.12,0.13
522.93,2.63,2.48,2.62,2.48,-2.49,-2.65,-2.64,0.14,0.14,0.14
528.16,2.59,2.43,2.59,2.43,-2.43,-2.58,-2.59,0.15,0.15,0.15
533.44,2.55,2.38,2.55,2.39,-2.38,-2.52,-2.54,0.17,0.17,0.16
