frequency,raw,error,smoothed,error_smoothed,equalization,parametric_eq,fixed_band_eq,equalized_raw,equalized_smoothed,target
20.00,-13.68,-17.56,-13.67,-17.56,6.00,5.04,2.94,-7.68,-7.67,3.88
20.20,-13.54,-17.46,-13.55,-17.47,6.00,5.09,3.02,-7.54,-7.55,3.92
20.40,-13.40,-17.35,-13.41,-17.36,6.00,5.14,3.11,-7.40,-7.41,3.95
20.61,-13.26,-17.25,-13.27,-17.25,6.00,5.19,3.20,-7.26,-7.27,3.98
20.81,-13.12,-17.13,-13.12,-17.13,6.00,5.24,3.29,-7.12,-7.12,4.01
21.02,-12.97,-17.01,-12.96,-17.00,6.00,5.28,3.38,-6.97,-6.96,4.04
21.23,-12.77,-16.83,-12.77,-16.83,6.00,5.33,3.48,-6.77,-6.77,4.06
21.44,-12.57,-16.64,-12.57,-16.65,6.00,5.38,3.58,-6.57,-6.57,4.07
21.66,-12.37,-16.46,-12.37,-16.45,6.00,5.42,3.69,-6.37,-6.37,4.08
21.87,-12.18,-16.27,-12.18,-16.27,6.00,5.47,3.79,-6.18,-6.18,4.09
22.09,-11.99,-16.09,-12.00,-16.10,6.00,5.52,3.90,-5.99,-6.00,4.10
22.31,-11.83,-15.94,-11.83,-15.94,6.00,5.56,4.01,-5.83,-5.83,4.11
22.54,-11.68,-15.79,-11.67,-15.78,6.00,5.61,4.13,-5.68,-5.67,4.11
22.76,-11.52,-15.63,-11.52,-15.63,6.00,5.65,4.25,-5.52,-5.52,4.11
22.99,-11.36,-15.47,-11.36,-15.48,6.00,5.70,4.37,-5.36,-5.36,4.11
23.22,-11.21,-15.33,-11.21,-15.33,6.00,5.74,4.49,-5.21,-5.21,4.12
23.45,-11.06,-15.18,-11.06,-15.18,6.00,5.78,4.62,-5.06,-5.06,4.12
23.69,-10.91,-15.04,-10.91,-15.04,6.00,5.82,4.75,-4.91,-4.91,4.13
23.92,-10.76,-14.89,-10.76,-14.89,6.00,5.86,4.88,-4.76,-4.76,4.13
24.16,-10.60,-14.74,-10.60,-14.74,6.00,5.90,5.02,-4.60,-4.60,4.14
24.40,-10.44,-14.58,-10.44,-14.58,6.00,5.94,5.16,-4.44,-4.44,4.14
24.65,-10.29,-14.42,-10.29,-14.42,6.00,5.98,5.30,-4.29,-4.29,4.13
24.89,-10.13,-14.26,-10.13,-14.26,6.00,6.02,5.44,-4.13,-4.13,4.13
25.14,-9.98,-14.11,-9.98,-14.10,6.00,6.06,5.58,-3.98,-3.98,4.13
25.39,-9.83,-13.94,-9.83,-13.95,6.00,6.09,5.73,-3.83,-3.83,4.12
25.65,-9.69,-13.81,-9.69,-13.80,6.00,6.13,5.87,-3.69,-3.69,4.12
25.91,-9.54,-13.65,-9.54,-13.65,6.00,6.16,6.02,-3.54,-3.54,4.11
26.16,-9.40,-13.49,-9.40,-13.50,6.00,6.19,6.17,-3.40,-3.40,4.10
26.43,-9.26,-13.36,-9.26,-13.36,6.00,6.22,6.31,-3.26,-3.26,4.09
26.69,-9.12,-13.20,-9.12,-13.21,6.00,6.25,6.46,-3.12,-3.12,4.08
26.96,-8.97,-13.05,-8.96,-13.04,6.00,6.28,6.60,-2.97,-2.96,4.08
27.23,-8.78,-12.86,-8.78,-12.85,6.00,6.30,6.74,-2.78,-2.78,4.07
27.50,-8.58,-12.65,-8.58,-12.65,6.00,6.33,6.88,-2.58,-2.58,4.07
27.77,-8.38,-12.43,-8.38,-12.44,6.00,6.35,7.01,-2.38,-2.38,4.05
28.05,-8.20,-12.25,-8.21,-12.26,6.00,6.37,7.14,-2.20,-2.21,4.05
28.33,-8.06,-12.10,-8.06,-12.10,6.00,6.39,7.26,-2.06,-2.06,4.04
28.62,-7.93,-11.96,-7.93,-11.96,6.00,6.41,7.37,-1.93,-1.93,4.03
28.90,-7.80,-11.83,-7.78,-11.81,6.00,6.42,7.47,-1.80,-1.78,4.03
29.19,-7.62,-11.64,-7.62,-11.64,6.00,6.43,7.56,-1.62,-1.62,4.02
29.48,-7.43,-11.45,-7.43,-11.45,6.00,6.44,7.64,-1.43,-1.43,4.03
29.78,-7.24,-11.26,-7.24,-11.25,6.00,6.45,7.71,-1.24,-1.24,4.02
30.08,-7.06,-11.07,-7.08,-11.08,6.00,6.46,7.77,-1.06,-1.08,4.00
30.38,-6.93,-10.92,-6.94,-10.94,6.00,6.46,7.81,-0.93,-0.94,3.99
30.68,-6.81,-10.80,-6.81,-10.80,6.00,6.46,7.84,-0.81,-0.81,3.99
30.99,-6.69,-10.67,-6.66,-10.64,6.00,6.46,7.85,-0.69,-0.66,3.98
31.30,-6.46,-10.44,-6.46,-10.44,6.00,6.45,7.84,-0.46,-0.46,3.98
31.61,-6.22,-10.20,-6.23,-10.20,6.00,6.45,7.82,-0.22,-0.23,3.98
31.93,-5.99,-9.96,-6.01,-9.97,6.00,6.43,7.79,0.01,-0.01,3.97
32.24,-5.82,-9.76,-5.83,-9.78,6.00,6.42,7.74,0.18,0.17,3.95
32.57,-5.68,-9.63,-5.67,-9.62,6.00,6.40,7.68,0.32,0.33,3.94
32.89,-5.54,-9.49,-5.53,-9.48,6.00,6.38,7.60,0.46,0.47,3.95
33.22,-5.38,-9.32,-5.38,-9.32,6.00,6.36,7.51,0.62,0.62,3.94
33.55,-5.22,-9.16,-5.22,-9.16,6.00,6.34,7.40,0.78,0.78,3.94
33.89,-5.06,-8.99,-5.07,-9.00,6.00,6.31,7.29,0.94,0.93,3.93
34.23,-4.92,-8.85,-4.93,-8.85,6.00,6.27,7.16,1.08,1.07,3.93
34.57,-4.79,-8.70,-4.79,-8.71,6.00,6.24,7.03,1.21,1.21,3.91
34.92,-4.65,-8.56,-4.64,-8.56,6.00,6.20,6.89,1.35,1.36,3.91
35.27,-4.48,-8.39,-4.47,-8.38,6.00,6.16,6.74,1.52,1.53,3.91
35.62,-4.30,-8.20,-4.30,-8.20,6.00,6.11,6.59,1.70,1.70,3.90
35.97,-4.12,-8.02,-4.15,-8.04,6.00,6.06,6.43,1.88,1.85,3.90
36.33,-4.02,-7.91,-4.03,-7.92,6.00,6.01,6.27,1.98,1.97,3.89
36.70,-3.93,-7.81,-3.92,-7.80,6.00,5.95,6.11,2.07,2.08,3.88
37.06,-3.80,-7.67,-3.76,-7.63,6.00,5.89,5.94,2.20,2.24,3.87
37.43,-3.54,-7.40,-3.54,-7.40,6.00,5.82,5.77,2.46,2.46,3.87
37.81,-3.27,-7.13,-3.30,-7.15,6.00,5.76,5.61,2.73,2.70,3.85
38.19,-3.06,-6.90,-3.07,-6.92,6.00,5.68,5.44,2.94,2.93,3.84
38.57,-2.91,-6.75,-2.90,-6.73,6.01,5.61,5.27,3.10,3.11,3.84
38.95,-2.76,-6.58,-2.76,-6.59,6.02,5.53,5.10,3.26,3.25,3.83
39.34,-2.65,-6.46,-2.65,-6.46,6.03,5.45,4.94,3.38,3.38,3.81
39.74,-2.55,-6.35,-2.54,-6.35,6.03,5.36,4.77,3.48,3.49,3.80
40.14,-2.45,-6.26,-2.46,-6.26,6.02,5.28,4.61,3.57,3.56,3.81
40.54,-2.37,-6.16,-2.37,-6.17,5.99,5.18,4.45,3.62,3.62,3.79
40.94,-2.29,-6.08,-2.27,-6.06,5.93,5.09,4.29,3.64,3.67,3.79
41.35,-2.14,-5.92,-2.14,-5.92,5.84,4.99,4.13,3.70,3.70,3.78
41.76,-1.97,-5.74,-1.98,-5.75,5.71,4.89,3.98,3.74,3.73,3.77
42.18,-1.81,-5.57,-1.81,-5.57,5.55,4.79,3.82,3.74,3.73,3.76
42.60,-1.64,-5.38,-1.64,-5.39,5.35,4.68,3.67,3.72,3.71,3.74
43.03,-1.46,-5.19,-1.43,-5.16,5.15,4.57,3.52,3.69,3.72,3.73
43.46,-1.22,-4.93,-1.21,-4.92,4.95,4.46,3.38,3.73,3.74,3.71
43.90,-0.97,-4.64,-1.00,-4.68,4.76,4.34,3.24,3.78,3.75,3.67
44.33,-0.83,-4.48,-0.83,-4.48,4.58,4.22,3.09,3.75,3.75,3.65
44.78,-0.73,-4.35,-0.73,-4.35,4.42,4.11,2.96,3.69,3.69,3.62
45.23,-0.67,-4.27,-0.68,-4.28,4.28,3.98,2.82,3.61,3.59,3.60
45.68,-0.64,-4.21,-0.63,-4.20,4.15,3.86,2.69,3.51,3.52,3.57
46.13,-0.57,-4.12,-0.53,-4.09,4.02,3.73,2.55,3.45,3.49,3.56
46.60,-0.39,-3.94,-0.40,-3.94,3.90,3.61,2.42,3.51,3.50,3.55
47.06,-0.21,-3.74,-0.24,-3.78,3.77,3.48,2.30,3.56,3.53,3.53
47.53,-0.09,-3.61,-0.09,-3.61,3.63,3.35,2.17,3.54,3.54,3.52
48.01,0.04,-3.48,0.05,-3.46,3.47,3.21,2.05,3.51,3.53,3.52
48.49,0.20,-3.32,0.19,-3.32,3.31,3.08,1.93,3.51,3.51,3.52
48.97,0.35,-3.15,0.35,-3.15,3.16,2.95,1.81,3.51,3.51,3.50
49.46,0.51,-2.98,0.51,-2.98,3.00,2.81,1.69,3.51,3.51,3.49
49.96,0.67,-2.83,0.66,-2.83,2.85,2.67,1.58,3.52,3.51,3.49
50.46,0.81,-2.70,0.81,-2.69,2.70,2.54,1.46,3.51,3.51,3.51
50.96,0.95,-2.56,0.95,-2.56,2.54,2.40,1.35,3.49,3.49,3.51
51.47,1.09,-2.41,1.09,-2.41,2.38,2.26,1.24,3.47,3.47,3.50
51.99,1.24,-2.25,1.25,-2.24,2.23,2.13,1.14,3.47,3.48,3.49
52.51,1.42,-2.07,1.42,-2.06,2.08,1.99,1.03,3.50,3.50,3.49
53.03,1.61,-1.86,1.58,-1.89,1.92,1.85,0.93,3.53,3.51,3.47
53.56,1.72,-1.73,1.73,-1.73,1.77,1.71,0.83,3.49,3.49,3.45
54.10,1.84,-1.60,1.85,-1.58,1.60,1.58,0.74,3.44,3.45,3.44
54.64,1.97,-1.44,1.96,-1.45,1.42,1.44,0.64,3.39,3.38,3.41
55.18,2.09,-1.28,2.08,-1.29,1.23,1.31,0.55,3.32,3.32,3.37
55.74,2.22,-1.12,2.25,-1.10,1.04,1.18,0.46,3.26,3.29,3.34
56.29,2.42,-0.90,2.44,-0.88,0.85,1.04,0.37,3.27,3.29,3.32
56.86,2.67,-0.62,2.64,-0.65,0.67,0.91,0.29,3.34,3.30,3.29
57.42,2.83,-0.42,2.82,-0.43,0.49,0.78,0.21,3.32,3.32,3.25
58.00,2.96,-0.26,2.98,-0.24,0.32,0.66,0.13,3.28,3.30,3.22
58.58,3.09,-0.09,3.08,-0.11,0.16,0.53,0.06,3.25,3.24,3.18
59.16,3.19,0.03,3.15,-0.00,0.01,0.41,-0.01,3.20,3.16,3.16
59.76,3.19,0.06,3.22,0.09,-0.14,0.29,-0.08,3.05,3.08,3.13
60.35,3.27,0.19,3.29,0.21,-0.28,0.17,-0.14,2.99,3.01,3.08
60.96,3.41,0.36,3.40,0.36,-0.43,0.05,-0.20,2.98,2.97,3.05
61.57,3.55,0.56,3.55,0.55,-0.56,-0.06,-0.26,2.98,2.98,2.99
62.18,3.69,0.73,3.69,0.74,-0.71,-0.17,-0.31,2.98,2.99,2.96
62.80,3.83,0.91,3.81,0.90,-0.85,-0.28,-0.36,2.98,2.96,2.92
63.43,3.91,1.03,3.91,1.03,-0.99,-0.38,-0.41,2.92,2.92,2.88
64.07,3.98,1.13,3.99,1.15,-1.12,-0.48,-0.45,2.86,2.87,2.85
64.71,4.06,1.25,4.04,1.23,-1.24,-0.58,-0.49,2.82,2.79,2.81
65.35,4.10,1.32,4.09,1.31,-1.34,-0.67,-0.52,2.76,2.75,2.78
66.01,4.10,1.36,4.16,1.41,-1.42,-0.77,-0.56,2.68,2.74,2.74
66.67,4.25,1.52,4.23,1.51,-1.49,-0.85,-0.59,2.76,2.74,2.73
67.33,4.33,1.63,4.30,1.60,-1.56,-0.94,-0.62,2.77,2.74,2.70
68.01,4.33,1.65,4.34,1.66,-1.63,-1.02,-0.64,2.70,2.71,2.68
68.69,4.33,1.67,4.32,1.67,-1.70,-1.10,-0.67,2.63,2.62,2.66
69.37,4.33,1.70,4.34,1.71,-1.77,-1.17,-0.69,2.56,2.57,2.63
70.07,4.35,1.74,4.40,1.78,-1.83,-1.24,-0.71,2.52,2.57,2.61
70.77,4.51,1.91,4.47,1.87,-1.89,-1.31,-0.72,2.62,2.58,2.60
71.48,4.56,1.97,4.54,1.95,-1.94,-1.37,-0.74,2.62,2.60,2.59
72.19,4.56,2.00,4.58,2.02,-1.97,-1.43,-0.75,2.59,2.61,2.56
72.91,4.56,2.02,4.57,2.03,-2.00,-1.48,-0.77,2.56,2.58,2.54
73.64,4.56,2.05,4.54,2.02,-2.00,-1.53,-0.78,2.56,2.54,2.51
74.38,4.50,2.00,4.49,2.00,-1.98,-1.58,-0.79,2.52,2.51,2.50
75.12,4.38,1.91,4.41,1.94,-1.93,-1.63,-0.80,2.45,2.49,2.47
75.87,4.34,1.89,4.32,1.87,-1.85,-1.67,-0.81,2.49,2.46,2.45
76.63,4.22,1.79,4.22,1.79,-1.77,-1.71,-0.82,2.45,2.45,2.43
77.40,4.11,1.70,4.11,1.70,-1.69,-1.74,-0.83,2.42,2.42,2.41
78.17,4.01,1.62,3.99,1.59,-1.61,-1.77,-0.85,2.40,2.38,2.39
78.95,3.88,1.49,3.91,1.52,-1.56,-1.80,-0.86,2.32,2.35,2.39
79.74,3.87,1.49,3.87,1.48,-1.54,-1.83,-0.87,2.33,2.33,2.38
80.54,3.87,1.50,3.85,1.47,-1.55,-1.85,-0.88,2.32,2.29,2.37
81.35,3.88,1.51,3.90,1.52,-1.59,-1.87,-0.89,2.29,2.30,2.37
82.16,3.92,1.55,3.95,1.58,-1.64,-1.88,-0.90,2.28,2.31,2.37
82.98,4.10,1.72,4.05,1.67,-1.69,-1.90,-0.92,2.41,2.36,2.38
83.81,4.10,1.72,4.16,1.78,-1.70,-1.91,-0.93,2.40,2.46,2.38
84.65,4.25,1.86,4.23,1.84,-1.68,-1.92,-0.95,2.57,2.55,2.39
85.50,4.24,1.84,4.19,1.79,-1.62,-1.93,-0.96,2.62,2.57,2.40
86.35,4.05,1.64,4.06,1.65,-1.53,-1.93,-0.98,2.52,2.53,2.41
87.22,3.83,1.41,3.82,1.40,-1.41,-1.93,-1.00,2.42,2.41,2.42
88.09,3.58,1.15,3.61,1.17,-1.28,-1.93,-1.02,2.30,2.32,2.43
88.97,3.43,0.99,3.47,1.03,-1.16,-1.93,-1.03,2.27,2.31,2.44
89.86,3.42,0.96,3.41,0.96,-1.06,-1.93,-1.06,2.36,2.35,2.46
90.76,3.42,0.97,3.40,0.94,-0.99,-1.92,-1.08,2.43,2.40,2.45
91.66,3.42,0.96,3.41,0.95,-0.97,-1.92,-1.10,2.45,2.45,2.46
92.58,3.42,0.96,3.46,0.99,-0.98,-1.91,-1.12,2.44,2.48,2.46
93.51,3.52,1.05,3.52,1.06,-1.02,-1.90,-1.15,2.50,2.51,2.47
94.44,3.63,1.16,3.60,1.13,-1.08,-1.89,-1.17,2.55,2.52,2.47
95.39,3.65,1.19,3.64,1.18,-1.14,-1.88,-1.20,2.51,2.50,2.46
96.34,3.65,1.19,3.65,1.19,-1.20,-1.86,-1.22,2.45,2.45,2.46
97.30,3.65,1.19,3.67,1.22,-1.26,-1.85,-1.25,2.39,2.42,2.46
98.28,3.70,1.25,3.73,1.28,-1.31,-1.83,-1.28,2.39,2.43,2.45
99.26,3.84,1.40,3.80,1.36,-1.35,-1.82,-1.31,2.49,2.45,2.44
100.25,3.87,1.44,3.86,1.42,-1.39,-1.80,-1.34,2.48,2.47,2.43
101.25,3.87,1.45,3.88,1.46,-1.43,-1.78,-1.37,2.44,2.46,2.42
102.27,3.87,1.46,3.87,1.46,-1.47,-1.76,-1.40,2.40,2.41,2.41
103.29,3.87,1.49,3.87,1.48,-1.51,-1.74,-1.43,2.36,2.36,2.38
104.32,3.87,1.51,3.87,1.50,-1.53,-1.72,-1.46,2.34,2.34,2.36
105.37,3.87,1.53,3.87,1.53,-1.55,-1.70,-1.49,2.32,2.32,2.34
106.42,3.87,1.56,3.88,1.58,-1.56,-1.68,-1.52,2.31,2.33,2.31
107.48,3.87,1.61,3.87,1.61,-1.57,-1.66,-1.55,2.30,2.30,2.26
108.56,3.87,1.66,3.82,1.61,-1.58,-1.64,-1.57,2.29,2.24,2.21
109.64,3.73,1.56,3.75,1.58,-1.60,-1.62,-1.60,2.13,2.15,2.17
110.74,3.65,1.53,3.68,1.56,-1.61,-1.60,-1.63,2.04,2.07,2.12
111.85,3.65,1.57,3.64,1.57,-1.62,-1.57,-1.65,2.03,2.02,2.08
112.97,3.65,1.64,3.65,1.63,-1.63,-1.55,-1.67,2.02,2.02,2.01
114.10,3.65,1.68,3.64,1.67,-1.64,-1.53,-1.69,2.01,2.00,1.97
115.24,3.62,1.71,3.58,1.67,-1.65,-1.51,-1.71,1.97,1.94,1.91
116.39,3.49,1.62,3.51,1.65,-1.64,-1.48,-1.73,1.85,1.87,1.87
117.55,3.42,1.60,3.47,1.65,-1.63,-1.46,-1.75,1.79,1.83,1.82
118.73,3.42,1.64,3.40,1.61,-1.61,-1.44,-1.76,1.81,1.79,1.78
119.92,3.41,1.66,3.34,1.59,-1.57,-1.42,-1.77,1.84,1.77,1.75
121.12,3.19,1.47,3.27,1.55,-1.53,-1.40,-1.77,1.66,1.74,1.72
122.33,3.19,1.50,3.16,1.47,-1.48,-1.38,-1.78,1.71,1.68,1.69
123.55,3.09,1.41,3.06,1.39,-1.43,-1.36,-1.78,1.66,1.63,1.68
124.79,2.97,1.32,3.02,1.37,-1.39,-1.34,-1.77,1.58,1.63,1.65
126.03,2.96,1.34,2.97,1.34,-1.34,-1.32,-1.77,1.62,1.63,1.62
127.29,2.96,1.35,2.93,1.32,-1.30,-1.30,-1.76,1.66,1.63,1.61
128.57,2.91,1.33,2.87,1.30,-1.28,-1.28,-1.75,1.63,1.60,1.58
129.85,2.76,1.21,2.81,1.25,-1.26,-1.26,-1.73,1.50,1.54,1.55
131.15,2.74,1.21,2.75,1.22,-1.26,-1.24,-1.72,1.48,1.49,1.53
132.46,2.74,1.23,2.73,1.22,-1.26,-1.23,-1.69,1.48,1.47,1.51
133.79,2.74,1.24,2.74,1.25,-1.25,-1.21,-1.67,1.49,1.48,1.50
135.12,2.74,1.28,2.75,1.28,-1.24,-1.20,-1.65,1.50,1.51,1.46
136.48,2.74,1.29,2.74,1.30,-1.24,-1.19,-1.62,1.50,1.51,1.45
137.84,2.74,1.32,2.70,1.28,-1.23,-1.18,-1.59,1.51,1.46,1.42
139.22,2.62,1.24,2.63,1.23,-1.23,-1.17,-1.55,1.39,1.39,1.38
140.61,2.52,1.16,2.56,1.19,-1.23,-1.17,-1.52,1.29,1.33,1.36
142.02,2.51,1.15,2.51,1.16,-1.22,-1.17,-1.48,1.29,1.29,1.36
143.44,2.51,1.18,2.51,1.18,-1.20,-1.17,-1.45,1.31,1.31,1.33
144.87,2.51,1.21,2.52,1.22,-1.19,-1.17,-1.41,1.32,1.33,1.30
146.32,2.51,1.25,2.49,1.22,-1.18,-1.18,-1.37,1.33,1.31,1.26
147.78,2.46,1.22,2.43,1.20,-1.18,-1.18,-1.33,1.28,1.25,1.24
149.26,2.34,1.14,2.36,1.17,-1.19,-1.19,-1.29,1.15,1.17,1.20
150.75,2.28,1.13,2.31,1.16,-1.19,-1.20,-1.24,1.09,1.11,1.15
152.26,2.28,1.19,2.28,1.19,-1.20,-1.21,-1.20,1.08,1.08,1.09
153.78,2.28,1.25,2.25,1.22,-1.21,-1.22,-1.16,1.07,1.04,1.03
155.32,2.23,1.26,2.19,1.22,-1.22,-1.23,-1.12,1.01,0.97,0.97
156.88,2.07,1.16,2.12,1.21,-1.23,-1.22,-1.07,0.84,0.88,0.91
158.44,2.05,1.20,2.07,1.22,-1.24,-1.21,-1.03,0.81,0.83,0.85
160.03,2.05,1.26,2.04,1.24,-1.23,-1.19,-0.99,0.82,0.80,0.79
161.63,2.05,1.30,2.01,1.27,-1.21,-1.16,-0.95,0.84,0.80,0.75
163.24,1.91,1.21,1.92,1.22,-1.17,-1.12,-0.90,0.74,0.75,0.70
164.88,1.82,1.15,1.80,1.14,-1.12,-1.07,-0.86,0.70,0.68,0.67
166.53,1.65,1.01,1.69,1.06,-1.07,-1.02,-0.82,0.58,0.62,0.64
168.19,1.60,0.99,1.59,0.98,-1.01,-0.96,-0.78,0.59,0.58,0.61
169.87,1.54,0.95,1.50,0.90,-0.95,-0.91,-0.74,0.59,0.55,0.59
171.57,1.40,0.82,1.43,0.85,-0.88,-0.85,-0.70,0.52,0.56,0.58
173.29,1.37,0.78,1.40,0.81,-0.81,-0.79,-0.66,0.56,0.59,0.59
175.02,1.37,0.78,1.35,0.77,-0.75,-0.73,-0.62,0.62,0.61,0.59
176.77,1.37,0.79,1.30,0.72,-0.69,-0.68,-0.58,0.68,0.62,0.58
178.54,1.19,0.60,1.24,0.65,-0.62,-0.63,-0.55,0.57,0.62,0.59
180.32,1.14,0.55,1.17,0.58,-0.56,-0.58,-0.51,0.58,0.61,0.59
182.13,1.14,0.54,1.09,0.49,-0.50,-0.54,-0.47,0.64,0.59,0.60
183.95,1.05,0.46,1.03,0.43,-0.45,-0.49,-0.43,0.60,0.58,0.59
185.79,0.92,0.32,0.96,0.37,-0.40,-0.45,-0.40,0.52,0.56,0.60
187.65,0.91,0.33,0.91,0.33,-0.37,-0.41,-0.36,0.54,0.54,0.58
189.52,0.91,0.35,0.90,0.33,-0.36,-0.38,-0.33,0.55,0.54,0.56
191.42,0.91,0.36,0.91,0.36,-0.36,-0.34,-0.29,0.55,0.55,0.55
193.33,0.91,0.37,0.91,0.37,-0.37,-0.31,-0.26,0.54,0.54,0.54
195.27,0.91,0.38,0.91,0.38,-0.38,-0.27,-0.23,0.53,0.53,0.53
197.22,0.91,0.39,0.91,0.40,-0.38,-0.24,-0.19,0.53,0.53,0.52
199.19,0.91,0.42,0.92,0.43,-0.38,-0.21,-0.16,0.53,0.54,0.49
201.18,0.91,0.43,0.90,0.42,-0.37,-0.18,-0.13,0.54,0.52,0.48
203.19,0.87,0.40,0.84,0.38,-0.37,-0.15,-0.10,0.50,0.47,0.47
205.23,0.74,0.29,0.77,0.31,-0.36,-0.12,-0.07,0.38,0.41,0.45
207.28,0.68,0.24,0.70,0.27,-0.34,-0.10,-0.04,0.34,0.36,0.44
209.35,0.68,0.26,0.67,0.26,-0.31,-0.07,-0.01,0.37,0.36,0.42
211.44,0.68,0.29,0.69,0.30,-0.27,-0.04,0.02,0.41,0.42,0.39
213.56,0.68,0.30,0.68,0.30,-0.23,-0.02,0.05,0.45,0.45,0.38
215.69,0.68,0.30,0.62,0.25,-0.19,0.01,0.08,0.49,0.43,0.38
217.85,0.48,0.12,0.51,0.15,-0.14,0.04,0.11,0.34,0.37,0.36
220.03,0.37,0.02,0.38,0.03,-0.07,0.06,0.14,0.30,0.31,0.35
222.23,0.26,-0.07,0.29,-0.05,0.02,0.09,0.17,0.28,0.30,0.33
224.45,0.23,-0.10,0.25,-0.08,0.12,0.11,0.19,0.35,0.37,0.33
226.70,0.23,-0.09,0.16,-0.16,0.22,0.14,0.22,0.45,0.38,0.32
228.96,0.07,-0.26,0.04,-0.29,0.31,0.16,0.25,0.38,0.35,0.33
231.25,-0.16,-0.49,-0.10,-0.43,0.40,0.18,0.27,0.24,0.30,0.33
233.57,-0.23,-0.55,-0.21,-0.54,0.47,0.21,0.30,0.24,0.26,0.32
235.90,-0.23,-0.55,-0.25,-0.57,0.52,0.23,0.32,0.29,0.27,0.32
238.26,-0.23,-0.55,-0.24,-0.56,0.56,0.26,0.35,0.33,0.33,0.32
240.64,-0.23,-0.56,-0.23,-0.56,0.58,0.28,0.37,0.35,0.35,0.33
243.05,-0.23,-0.57,-0.25,-0.59,0.57,0.30,0.40,0.34,0.32,0.34
245.48,-0.23,-0.59,-0.22,-0.58,0.55,0.33,0.42,0.32,0.32,0.36
247.93,-0.23,-0.60,-0.16,-0.53,0.52,0.35,0.44,0.29,0.35,0.37
250.41,-0.04,-0.42,-0.09,-0.47,0.49,0.37,0.46,0.45,0.40,0.38
252.92,-0.00,-0.40,-0.02,-0.43,0.47,0.40,0.49,0.47,0.45,0.40
255.45,0.00,-0.43,0.02,-0.41,0.46,0.42,0.51,0.46,0.47,0.43
258.00,0.00,-0.44,0.00,-0.44,0.45,0.44,0.53,0.45,0.45,0.44
260.58,0.00,-0.45,0.00,-0.46,0.45,0.46,0.55,0.45,0.45,0.45
263.19,0.00,-0.48,-0.00,-0.47,0.46,0.49,0.57,0.46,0.46,0.48
265.82,0.00,-0.49,-0.00,-0.49,0.48,0.51,0.59,0.48,0.48,0.49
268.48,0.00,-0.51,-0.00,-0.51,0.50,0.53,0.61,0.50,0.50,0.51
271.16,0.00,-0.54,-0.00,-0.53,0.53,0.56,0.63,0.53,0.53,0.54
273.87,0.00,-0.55,-0.00,-0.55,0.55,0.58,0.65,0.55,0.55,0.55
276.61,0.00,-0.58,-0.00,-0.58,0.58,0.60,0.67,0.58,0.58,0.58
279.38,0.00,-0.60,-0.00,-0.60,0.60,0.63,0.69,0.60,0.60,0.60
282.17,0.00,-0.62,-0.00,-0.62,0.62,0.65,0.71,0.62,0.62,0.62
284.99,0.00,-0.65,-0.00,-0.65,0.64,0.67,0.73,0.64,0.64,0.65
287.84,0.00,-0.68,-0.00,-0.68,0.66,0.69,0.75,0.66,0.66,0.68
290.72,0.00,-0.70,0.00,-0.70,0.69,0.72,0.77,0.69,0.69,0.70
293.63,0.00,-0.72,0.00,-0.73,0.73,0.74,0.79,0.73,0.73,0.72
296.57,0.00,-0.76,0.02,-0.73,0.78,0.76,0.81,0.78,0.80,0.76
299.53,-0.00,-0.78,-0.01,-0.78,0.83,0.79,0.84,0.83,0.82,0.78
302.53,-0.01,-0.79,-0.07,-0.87,0.88,0.81,0.86,0.87,0.81,0.78
305.55,-0.20,-1.02,-0.15,-0.96,0.93,0.83,0.88,0.73,0.79,0.82
308.61,-0.23,-1.06,-0.21,-1.05,0.99,0.86,0.90,0.76,0.78,0.83
311.69,-0.23,-1.09,-0.25,-1.10,1.05,0.88,0.93,0.82,0.81,0.86
314.81,-0.23,-1.11,-0.22,-1.09,1.11,0.90,0.95,0.88,0.90,0.88
317.96,-0.23,-1.11,-0.24,-1.12,1.17,0.93,0.98,0.94,0.93,0.88
321.14,-0.24,-1.12,-0.30,-1.18,1.21,0.95,1.00,0.97,0.91,0.88
324.35,-0.41,-1.29,-0.37,-1.26,1.25,0.97,1.03,0.84,0.88,0.88
327.59,-0.46,-1.36,-0.44,-1.33,1.28,1.00,1.06,0.82,0.85,0.90
330.87,-0.46,-1.37,-0.47,-1.38,1.33,1.02,1.09,0.87,0.86,0.91
334.18,-0.46,-1.37,-0.45,-1.36,1.39,1.04,1.12,0.93,0.94,0.91
337.52,-0.46,-1.38,-0.46,-1.39,1.45,1.07,1.15,0.99,0.98,0.92
340.90,-0.46,-1.40,-0.52,-1.46,1.50,1.09,1.18,1.04,0.98,0.94
344.30,-0.63,-1.59,-0.59,-1.55,1.55,1.11,1.21,0.92,0.96,0.96
347.75,-0.68,-1.66,-0.66,-1.63,1.60,1.14,1.25,0.92,0.94,0.98
351.23,-0.68,-1.68,-0.69,-1.69,1.64,1.16,1.28,0.96,0.95,1.00
354.74,-0.68,-1.70,-0.68,-1.70,1.69,1.19,1.32,1.01,1.00,1.02
358.28,-0.68,-1.73,-0.68,-1.72,1.73,1.21,1.35,1.05,1.05,1.05
361.87,-0.68,-1.75,-0.68,-1.75,1.76,1.23,1.39,1.08,1.08,1.07
365.49,-0.68,-1.77,-0.68,-1.77,1.78,1.26,1.43,1.10,1.10,1.09
369.14,-0.68,-1.78,-0.68,-1.79,1.80,1.28,1.47,1.12,1.12,1.10
372.83,-0.68,-1.80,-0.68,-1.80,1.81,1.30,1.51,1.13,1.13,1.12
376.56,-0.68,-1.82,-0.68,-1.83,1.82,1.33,1.55,1.14,1.14,1.14
380.33,-0.68,-1.85,-0.68,-1.85,1.84,1.35,1.60,1.16,1.16,1.17
384.13,-0.68,-1.87,-0.68,-1.86,1.86,1.38,1.64,1.18,1.18,1.19
387.97,-0.68,-1.87,-0.68,-1.87,1.87,1.40,1.68,1.19,1.19,1.19
391.85,-0.68,-1.88,-0.68,-1.88,1.88,1.42,1.73,1.20,1.20,1.20
395.77,-0.68,-1.90,-0.68,-1.89,1.90,1.45,1.77,1.22,1.22,1.22
399.73,-0.68,-1.91,-0.68,-1.91,1.91,1.47,1.82,1.23,1.23,1.23
403.72,-0.68,-1.92,-0.68,-1.92,1.92,1.50,1.87,1.24,1.24,1.24
407.76,-0.68,-1.92,-0.68,-1.92,1.93,1.52,1.91,1.25,1.25,1.24
411.84,-0.68,-1.93,-0.68,-1.94,1.93,1.55,1.96,1.25,1.25,1.25
415.96,-0.68,-1.94,-0.68,-1.94,1.94,1.57,2.01,1.26,1.26,1.26
420.12,-0.68,-1.95,-0.68,-1.95,1.95,1.59,2.06,1.27,1.27,1.27
424.32,-0.68,-1.95,-0.68,-1.96,1.95,1.62,2.10,1.27,1.27,1.27
428.56,-0.68,-1.96,-0.68,-1.96,1.96,1.64,2.15,1.28,1.28,1.28
432.85,-0.68,-1.96,-0.68,-1.96,1.97,1.67,2.19,1.29,1.29,1.28
437.18,-0.68,-1.97,-0.68,-1.97,1.97,1.69,2.24,1.29,1.29,1.29
441.55,-0.68,-1.98,-0.68,-1.98,1.98,1.71,2.28,1.30,1.30,1.30
445.96,-0.68,-1.99,-0.68,-1.99,1.99,1.74,2.32,1.31,1.31,1.31
450.42,-0.68,-1.99,-0.68,-1.99,2.00,1.76,2.36,1.32,1.32,1.31
454.93,-0.68,-2.01,-0.68,-2.00,2.00,1.78,2.40,1.32,1.32,1.33
459.48,-0.68,-2.01,-0.68,-2.02,2.01,1.81,2.44,1.33,1.33,1.33
464.07,-0.68,-2.03,-0.68,-2.03,2.03,1.83,2.47,1.35,1.35,1.35
468.71,-0.68,-2.05,-0.68,-2.04,2.04,1.86,2.51,1.36,1.36,1.37
473.40,-0.68,-2.05,-0.68,-2.05,2.05,1.88,2.54,1.37,1.37,1.37
478.13,-0.68,-2.07,-0.68,-2.06,2.07,1.90,2.56,1.39,1.39,1.39
482.91,-0.68,-2.08,-0.68,-2.08,2.09,1.93,2.59,1.41,1.41,1.40
487.74,-0.68,-2.11,-0.68,-2.11,2.11,1.95,2.61,1.43,1.43,1.43
492.62,-0.68,-2.14,-0.68,-2.13,2.13,1.97,2.63,1.45,1.45,1.46
497.55,-0.68,-2.16,-0.68,-2.16,2.15,2.00,2.64,1.47,1.47,1.48
502.52,-0.68,-2.18,-0.68,-2.18,2.18,2.02,2.65,1.50,1.50,1.50
507.55,-0.68,-2.20,-0.68,-2.20,2.20,2.04,2.66,1.52,1.52,1.52
512.62,-0.68,-2.22,-0.68,-2.22,2.23,2.06,2.66,1.55,1.55,1.54
517.75,-0.68,-2.25,-0.68,-2.25,2.25,2.09,2.67,1.57,1.57,1.57
