frequency,raw,error,smoothed,error_smoothed,equalization,parametric_eq,fixed_band_eq,equalized_raw,equalized_smoothed,target
20.00,12.20,5.06,12.20,5.06,-5.06,-4.92,-1.45,7.14,7.13,7.14
20.20,12.15,5.01,12.15,5.02,-5.02,-4.92,-1.50,7.13,7.13,7.14
20.40,12.10,4.97,12.10,4.97,-4.97,-4.91,-1.54,7.13,7.13,7.13
20.61,12.06,4.93,12.06,4.93,-4.93,-4.90,-1.58,7.13,7.13,7.13
20.81,12.01,4.89,12.01,4.89,-4.88,-4.89,-1.62,7.12,7.12,7.12
21.02,11.96,4.84,11.96,4.84,-4.84,-4.87,-1.67,7.12,7.12,7.12
21.23,11.90,4.79,11.90,4.79,-4.79,-4.84,-1.72,7.10,7.11,7.11
21.44,11.85,4.74,11.85,4.74,-4.75,-4.82,-1.77,7.10,7.10,7.10
21.66,11.80,4.70,11.80,4.70,-4.71,-4.78,-1.82,7.09,7.09,7.09
21.87,11.75,4.65,11.75,4.66,-4.66,-4.75,-1.87,7.09,7.09,7.09
22.09,11.71,4.62,11.70,4.62,-4.62,-4.71,-1.92,7.09,7.09,7.08
22.31,11.66,4.57,11.66,4.57,-4.57,-4.67,-1.97,7.09,7.09,7.08
22.54,11.61,4.53,11.61,4.53,-4.53,-4.63,-2.03,7.08,7.08,7.08
22.76,11.56,4.49,11.56,4.48,-4.48,-4.58,-2.09,7.07,7.07,7.07
22.99,11.51,4.44,11.51,4.44,-4.44,-4.53,-2.14,7.07,7.07,7.07
23.22,11.46,4.40,11.46,4.39,-4.40,-4.48,-2.20,7.06,7.06,7.06
23.45,11.41,4.35,11.41,4.35,-4.35,-4.43,-2.26,7.06,7.06,7.06
23.69,11.36,4.30,11.36,4.31,-4.30,-4.37,-2.33,7.05,7.06,7.06
23.92,11.32,4.27,11.31,4.26,-4.26,-4.32,-2.39,7.06,7.06,7.05
24.16,11.27,4.22,11.26,4.21,-4.21,-4.26,-2.45,7.06,7.05,7.05
24.40,11.21,4.16,11.21,4.17,-4.17,-4.20,-2.52,7.04,7.05,7.05
24.65,11.16,4.11,11.16,4.11,-4.12,-4.14,-2.58,7.04,7.04,7.05
24.89,11.11,4.07,11.11,4.07,-4.07,-4.08,-2.65,7.04,7.04,7.04
25.14,11.06,4.02,11.06,4.02,-4.02,-4.02,-2.72,7.04,7.04,7.04
25.39,11.01,3.97,11.01,3.97,-3.97,-3.96,-2.78,7.04,7.04,7.03
25.65,10.96,3.92,10.96,3.92,-3.92,-3.90,-2.85,7.03,7.03,7.03
25.91,10.91,3.88,10.91,3.87,-3.88,-3.84,-2.92,7.03,7.03,7.03
26.16,10.86,3.83,10.86,3.83,-3.83,-3.79,-2.98,7.03,7.03,7.03
26.43,10.81,3.78,10.81,3.78,-3.78,-3.73,-3.05,7.03,7.03,7.03
26.69,10.76,3.74,10.76,3.74,-3.73,-3.67,-3.12,7.02,7.03,7.02
26.96,10.71,3.69,10.71,3.69,-3.69,-3.61,-3.18,7.02,7.02,7.02
27.23,10.67,3.65,10.66,3.64,-3.64,-3.56,-3.24,7.03,7.02,7.02
27.50,10.61,3.59,10.61,3.60,-3.60,-3.50,-3.31,7.01,7.02,7.02
27.77,10.56,3.54,10.56,3.55,-3.55,-3.45,-3.36,7.01,7.01,7.02
28.05,10.52,3.51,10.51,3.50,-3.51,-3.39,-3.42,7.01,7.01,7.00
28.33,10.47,3.46,10.47,3.46,-3.46,-3.34,-3.48,7.00,7.00,7.00
28.62,10.42,3.42,10.42,3.42,-3.42,-3.29,-3.53,7.00,7.00,7.00
28.90,10.37,3.38,10.37,3.38,-3.38,-3.24,-3.57,6.99,6.99,6.99
29.19,10.33,3.34,10.32,3.34,-3.34,-3.19,-3.62,6.99,6.99,6.99
29.48,10.28,3.29,10.28,3.29,-3.29,-3.14,-3.66,6.99,6.98,6.99
29.78,10.23,3.25,10.23,3.25,-3.25,-3.10,-3.69,6.98,6.98,6.98
30.08,10.18,3.20,10.18,3.21,-3.21,-3.05,-3.72,6.97,6.98,6.97
30.38,10.14,3.17,10.13,3.16,-3.16,-3.01,-3.75,6.98,6.97,6.97
30.68,10.09,3.12,10.09,3.12,-3.12,-2.97,-3.77,6.97,6.97,6.97
30.99,10.04,3.07,10.04,3.07,-3.07,-2.93,-3.78,6.97,6.97,6.97
31.30,10.00,3.03,9.99,3.02,-3.03,-2.89,-3.80,6.97,6.97,6.97
31.61,9.95,2.97,9.95,2.98,-2.98,-2.85,-3.80,6.97,6.97,6.98
31.93,9.91,2.94,9.91,2.94,-2.94,-2.81,-3.80,6.97,6.97,6.97
32.24,9.87,2.90,9.87,2.89,-2.89,-2.78,-3.80,6.97,6.97,6.97
32.57,9.83,2.86,9.83,2.86,-2.85,-2.74,-3.79,6.98,6.97,6.97
32.89,9.78,2.81,9.78,2.81,-2.81,-2.71,-3.78,6.97,6.97,6.97
33.22,9.74,2.77,9.74,2.77,-2.77,-2.68,-3.76,6.96,6.96,6.96
33.55,9.69,2.73,9.69,2.73,-2.74,-2.65,-3.74,6.95,6.96,6.96
33.89,9.66,2.70,9.66,2.70,-2.70,-2.62,-3.71,6.96,6.95,6.96
34.23,9.62,2.67,9.62,2.67,-2.67,-2.60,-3.68,6.95,6.95,6.95
34.57,9.58,2.63,9.58,2.64,-2.63,-2.57,-3.65,6.94,6.94,6.94
34.92,9.54,2.61,9.54,2.61,-2.60,-2.55,-3.62,6.94,6.94,6.93
35.27,9.50,2.58,9.50,2.58,-2.57,-2.52,-3.58,6.93,6.92,6.92
35.62,9.46,2.55,9.45,2.54,-2.55,-2.50,-3.54,6.91,6.91,6.91
35.97,9.41,2.51,9.41,2.51,-2.52,-2.48,-3.50,6.89,6.89,6.90
36.33,9.37,2.48,9.37,2.49,-2.49,-2.46,-3.46,6.88,6.88,6.89
36.70,9.34,2.47,9.33,2.46,-2.47,-2.44,-3.42,6.87,6.87,6.86
37.06,9.30,2.45,9.30,2.45,-2.44,-2.43,-3.38,6.85,6.85,6.85
37.43,9.26,2.42,9.26,2.43,-2.42,-2.41,-3.33,6.84,6.84,6.84
37.81,9.23,2.41,9.22,2.40,-2.40,-2.40,-3.29,6.83,6.82,6.82
38.19,9.19,2.38,9.19,2.38,-2.38,-2.39,-3.25,6.81,6.81,6.81
38.57,9.16,2.35,9.16,2.36,-2.36,-2.37,-3.21,6.80,6.80,6.80
38.95,9.13,2.34,9.13,2.34,-2.34,-2.36,-3.17,6.79,6.79,6.79
39.34,9.10,2.32,9.10,2.32,-2.32,-2.36,-3.13,6.78,6.78,6.78
39.74,9.07,2.30,9.07,2.30,-2.30,-2.35,-3.09,6.77,6.77,6.77
40.14,9.04,2.28,9.04,2.28,-2.27,-2.34,-3.05,6.76,6.76,6.76
40.54,9.00,2.25,9.00,2.25,-2.25,-2.33,-3.02,6.74,6.75,6.75
40.94,8.98,2.23,8.98,2.23,-2.23,-2.33,-2.98,6.75,6.74,6.75
41.35,8.95,2.21,8.95,2.21,-2.21,-2.33,-2.95,6.74,6.74,6.74
41.76,8.93,2.19,8.92,2.19,-2.19,-2.32,-2.92,6.74,6.73,6.73
42.18,8.90,2.17,8.90,2.17,-2.17,-2.32,-2.90,6.73,6.73,6.73
42.60,8.87,2.15,8.87,2.15,-2.15,-2.32,-2.87,6.72,6.72,6.72
43.03,8.85,2.13,8.85,2.13,-2.13,-2.32,-2.85,6.72,6.72,6.71
43.46,8.83,2.12,8.83,2.12,-2.11,-2.32,-2.83,6.71,6.71,6.71
43.90,8.81,2.11,8.80,2.10,-2.10,-2.33,-2.81,6.71,6.71,6.70
44.33,8.78,2.07,8.78,2.08,-2.08,-2.33,-2.79,6.70,6.70,6.70
44.78,8.76,2.06,8.76,2.07,-2.07,-2.33,-2.78,6.69,6.69,6.70
45.23,8.75,2.06,8.74,2.05,-2.05,-2.34,-2.76,6.69,6.69,6.69
45.68,8.73,2.04,8.73,2.04,-2.04,-2.35,-2.75,6.68,6.69,6.69
46.13,8.72,2.04,8.72,2.04,-2.04,-2.35,-2.74,6.68,6.68,6.68
46.60,8.70,2.03,8.70,2.03,-2.03,-2.36,-2.74,6.67,6.67,6.67
47.06,8.70,2.03,8.69,2.03,-2.03,-2.37,-2.73,6.67,6.66,6.66
47.53,8.68,2.02,8.68,2.03,-2.03,-2.38,-2.73,6.65,6.65,6.65
48.01,8.67,2.02,8.67,2.03,-2.03,-2.39,-2.73,6.64,6.64,6.64
48.49,8.67,2.04,8.66,2.04,-2.04,-2.40,-2.73,6.63,6.63,6.62
48.97,8.66,2.05,8.66,2.05,-2.05,-2.42,-2.74,6.61,6.62,6.61
49.46,8.66,2.06,8.66,2.06,-2.06,-2.43,-2.74,6.60,6.60,6.60
49.96,8.66,2.08,8.65,2.07,-2.07,-2.44,-2.75,6.59,6.58,6.58
50.46,8.65,2.08,8.65,2.08,-2.09,-2.46,-2.76,6.56,6.56,6.57
50.96,8.65,2.10,8.65,2.10,-2.11,-2.47,-2.77,6.54,6.55,6.55
51.47,8.66,2.12,8.66,2.13,-2.13,-2.49,-2.78,6.53,6.53,6.53
51.99,8.67,2.16,8.67,2.15,-2.15,-2.51,-2.79,6.52,6.52,6.51
52.51,8.68,2.18,8.67,2.18,-2.18,-2.52,-2.80,6.50,6.50,6.50
53.03,8.68,2.19,8.68,2.20,-2.20,-2.54,-2.81,6.48,6.48,6.48
53.56,8.69,2.23,8.69,2.23,-2.23,-2.56,-2.83,6.46,6.46,6.46
54.10,8.71,2.26,8.70,2.26,-2.26,-2.58,-2.84,6.45,6.45,6.44
54.64,8.72,2.29,8.72,2.29,-2.29,-2.60,-2.85,6.43,6.43,6.43
55.18,8.74,2.33,8.74,2.32,-2.32,-2.62,-2.86,6.42,6.42,6.41
55.74,8.75,2.34,8.75,2.35,-2.35,-2.64,-2.88,6.40,6.40,6.41
56.29,8.77,2.38,8.77,2.38,-2.38,-2.66,-2.89,6.38,6.38,6.39
56.86,8.79,2.42,8.79,2.42,-2.42,-2.68,-2.90,6.37,6.37,6.37
57.42,8.81,2.46,8.81,2.46,-2.46,-2.70,-2.91,6.35,6.35,6.35
58.00,8.84,2.50,8.83,2.50,-2.50,-2.72,-2.91,6.34,6.33,6.33
58.58,8.86,2.54,8.86,2.54,-2.54,-2.74,-2.92,6.32,6.32,6.31
59.16,8.88,2.58,8.88,2.59,-2.59,-2.76,-2.92,6.29,6.29,6.29
59.76,8.91,2.64,8.91,2.63,-2.63,-2.78,-2.93,6.27,6.27,6.27
60.35,8.93,2.68,8.93,2.68,-2.68,-2.80,-2.93,6.25,6.25,6.25
60.96,8.96,2.74,8.95,2.73,-2.73,-2.82,-2.92,6.23,6.22,6.22
61.57,8.98,2.78,8.98,2.78,-2.78,-2.84,-2.92,6.20,6.20,6.20
62.18,9.00,2.83,9.00,2.83,-2.83,-2.86,-2.91,6.16,6.17,6.17
62.80,9.03,2.89,9.02,2.88,-2.89,-2.88,-2.90,6.14,6.14,6.14
63.43,9.05,2.94,9.05,2.94,-2.94,-2.90,-2.89,6.11,6.11,6.11
64.07,9.07,2.99,9.07,2.99,-2.99,-2.92,-2.88,6.08,6.08,6.08
64.71,9.10,3.05,9.09,3.04,-3.04,-2.94,-2.86,6.06,6.05,6.05
65.35,9.11,3.09,9.11,3.09,-3.09,-2.96,-2.84,6.02,6.03,6.02
66.01,9.14,3.14,9.13,3.14,-3.14,-2.98,-2.82,6.00,6.00,6.00
66.67,9.15,3.18,9.15,3.18,-3.18,-2.99,-2.79,5.97,5.96,5.97
67.33,9.16,3.22,9.16,3.23,-3.23,-3.01,-2.77,5.93,5.94,5.94
68.01,9.17,3.26,9.17,3.27,-3.27,-3.02,-2.74,5.90,5.90,5.91
68.69,9.19,3.31,9.18,3.30,-3.31,-3.04,-2.71,5.88,5.87,5.87
69.37,9.18,3.34,9.18,3.34,-3.34,-3.05,-2.68,5.84,5.84,5.84
70.07,9.18,3.37,9.18,3.37,-3.37,-3.06,-2.65,5.80,5.81,5.81
70.77,9.18,3.40,9.17,3.40,-3.40,-3.07,-2.61,5.78,5.77,5.78
71.48,9.17,3.44,9.16,3.43,-3.43,-3.08,-2.58,5.74,5.74,5.73
72.19,9.14,3.44,9.14,3.45,-3.44,-3.09,-2.55,5.70,5.70,5.70
72.91,9.12,3.46,9.12,3.46,-3.45,-3.10,-2.51,5.66,5.66,5.66
73.64,9.09,3.47,9.09,3.46,-3.46,-3.10,-2.48,5.63,5.63,5.62
74.38,9.05,3.45,9.05,3.46,-3.46,-3.10,-2.44,5.59,5.59,5.59
75.12,9.01,3.45,9.01,3.45,-3.46,-3.11,-2.41,5.55,5.55,5.55
75.87,8.96,3.44,8.96,3.44,-3.45,-3.11,-2.37,5.51,5.51,5.51
76.63,8.91,3.43,8.91,3.43,-3.43,-3.10,-2.34,5.47,5.47,5.47
77.40,8.85,3.42,8.85,3.42,-3.41,-3.10,-2.31,5.43,5.43,5.43
78.17,8.79,3.40,8.78,3.39,-3.39,-3.10,-2.28,5.40,5.39,5.39
78.95,8.71,3.36,8.71,3.37,-3.36,-3.09,-2.25,5.34,5.35,5.35
79.74,8.64,3.34,8.63,3.33,-3.33,-3.08,-2.22,5.31,5.30,5.30
80.54,8.55,3.29,8.55,3.29,-3.29,-3.07,-2.19,5.26,5.26,5.26
81.35,8.47,3.25,8.47,3.25,-3.25,-3.05,-2.16,5.22,5.22,5.22
82.16,8.38,3.20,8.38,3.20,-3.20,-3.04,-2.13,5.18,5.18,5.18
82.98,8.28,3.15,8.28,3.15,-3.15,-3.02,-2.11,5.13,5.13,5.13
83.81,8.19,3.10,8.18,3.10,-3.10,-3.00,-2.08,5.09,5.09,5.09
84.65,8.08,3.04,8.08,3.04,-3.04,-2.98,-2.06,5.04,5.04,5.04
85.50,7.97,2.98,7.97,2.98,-2.98,-2.95,-2.04,4.99,4.99,4.99
86.35,7.87,2.92,7.87,2.92,-2.92,-2.92,-2.02,4.95,4.95,4.95
87.22,7.76,2.86,7.76,2.86,-2.86,-2.89,-2.00,4.90,4.90,4.90
88.09,7.65,2.80,7.65,2.79,-2.79,-2.86,-1.99,4.86,4.85,4.85
88.97,7.53,2.72,7.53,2.73,-2.73,-2.82,-1.97,4.80,4.81,4.81
89.86,7.43,2.67,7.42,2.67,-2.67,-2.79,-1.96,4.76,4.76,4.75
90.76,7.31,2.60,7.31,2.60,-2.60,-2.75,-1.95,4.71,4.71,4.71
91.66,7.20,2.54,7.20,2.54,-2.54,-2.70,-1.94,4.66,4.66,4.66
92.58,7.08,2.48,7.08,2.47,-2.48,-2.66,-1.93,4.60,4.60,4.60
93.51,6.97,2.41,6.97,2.42,-2.42,-2.61,-1.92,4.55,4.55,4.56
94.44,6.86,2.36,6.86,2.36,-2.36,-2.55,-1.92,4.50,4.50,4.50
95.39,6.75,2.30,6.74,2.30,-2.30,-2.50,-1.91,4.45,4.45,4.45
96.34,6.63,2.24,6.63,2.24,-2.24,-2.44,-1.91,4.39,4.39,4.39
97.30,6.52,2.18,6.52,2.19,-2.19,-2.38,-1.91,4.33,4.33,4.33
98.28,6.42,2.14,6.41,2.14,-2.14,-2.32,-1.91,4.28,4.28,4.28
99.26,6.30,2.09,6.30,2.09,-2.09,-2.26,-1.91,4.21,4.22,4.21
100.25,6.20,2.05,6.19,2.04,-2.04,-2.20,-1.91,4.16,4.15,4.15
101.25,6.08,1.98,6.08,1.99,-1.99,-2.13,-1.91,4.08,4.09,4.09
102.27,5.98,1.95,5.98,1.95,-1.95,-2.06,-1.91,4.03,4.03,4.03
103.29,5.88,1.91,5.88,1.91,-1.91,-1.99,-1.92,3.97,3.97,3.97
104.32,5.78,1.88,5.78,1.87,-1.87,-1.93,-1.92,3.91,3.91,3.90
105.37,5.68,1.83,5.68,1.83,-1.83,-1.86,-1.92,3.85,3.85,3.84
106.42,5.58,1.79,5.58,1.80,-1.80,-1.79,-1.93,3.78,3.79,3.79
107.48,5.49,1.76,5.48,1.76,-1.76,-1.73,-1.93,3.73,3.72,3.73
108.56,5.39,1.73,5.39,1.72,-1.73,-1.67,-1.94,3.66,3.66,3.66
109.64,5.30,1.70,5.30,1.70,-1.70,-1.62,-1.94,3.60,3.60,3.60
110.74,5.21,1.66,5.21,1.67,-1.67,-1.56,-1.95,3.54,3.54,3.55
111.85,5.13,1.65,5.12,1.64,-1.64,-1.52,-1.95,3.49,3.49,3.48
112.97,5.03,1.61,5.03,1.61,-1.61,-1.48,-1.96,3.42,3.43,3.42
114.10,4.95,1.59,4.94,1.59,-1.58,-1.44,-1.96,3.37,3.36,3.35
115.24,4.85,1.55,4.85,1.56,-1.56,-1.41,-1.96,3.29,3.29,3.30
116.39,4.76,1.54,4.76,1.54,-1.54,-1.39,-1.96,3.22,3.23,3.22
117.55,4.68,1.52,4.68,1.52,-1.52,-1.37,-1.96,3.16,3.16,3.16
118.73,4.60,1.51,4.59,1.50,-1.51,-1.36,-1.96,3.09,3.09,3.09
119.92,4.51,1.49,4.51,1.49,-1.50,-1.36,-1.95,3.01,3.01,3.02
121.12,4.43,1.49,4.43,1.49,-1.49,-1.35,-1.95,2.94,2.94,2.94
122.33,4.36,1.49,4.36,1.49,-1.49,-1.35,-1.94,2.87,2.87,2.87
123.55,4.29,1.49,4.29,1.49,-1.49,-1.36,-1.93,2.79,2.79,2.80
124.79,4.22,1.49,4.22,1.50,-1.50,-1.36,-1.92,2.72,2.72,2.72
126.03,4.15,1.51,4.15,1.51,-1.50,-1.37,-1.91,2.64,2.65,2.64
127.29,4.09,1.52,4.08,1.51,-1.51,-1.38,-1.90,2.58,2.58,2.57
128.57,4.02,1.52,4.02,1.52,-1.51,-1.39,-1.88,2.51,2.51,2.50
129.85,3.95,1.52,3.95,1.52,-1.51,-1.39,-1.86,2.44,2.44,2.43
131.15,3.89,1.52,3.88,1.51,-1.51,-1.40,-1.84,2.38,2.37,2.37
132.46,3.81,1.49,3.81,1.50,-1.50,-1.41,-1.82,2.31,2.31,2.31
133.79,3.75,1.49,3.74,1.49,-1.49,-1.41,-1.80,2.25,2.25,2.26
135.12,3.68,1.48,3.68,1.48,-1.48,-1.41,-1.77,2.19,2.20,2.20
136.48,3.62,1.46,3.62,1.47,-1.47,-1.42,-1.74,2.15,2.15,2.15
137.84,3.57,1.47,3.56,1.46,-1.46,-1.42,-1.72,2.11,2.10,2.10
139.22,3.51,1.45,3.50,1.45,-1.45,-1.41,-1.69,2.06,2.06,2.05
140.61,3.44,1.43,3.45,1.44,-1.44,-1.41,-1.66,2.00,2.01,2.01
142.02,3.39,1.42,3.39,1.42,-1.42,-1.41,-1.63,1.97,1.97,1.97
143.44,3.34,1.41,3.33,1.41,-1.41,-1.40,-1.60,1.93,1.93,1.93
144.87,3.28,1.39,3.28,1.40,-1.39,-1.39,-1.57,1.88,1.89,1.89
146.32,3.23,1.38,3.23,1.38,-1.38,-1.38,-1.53,1.85,1.85,1.85
147.78,3.18,1.36,3.18,1.36,-1.36,-1.37,-1.50,1.81,1.81,1.82
149.26,3.13,1.35,3.13,1.35,-1.35,-1.36,-1.47,1.78,1.78,1.78
150.75,3.07,1.33,3.07,1.33,-1.34,-1.35,-1.44,1.73,1.74,1.74
152.26,3.03,1.32,3.03,1.32,-1.32,-1.33,-1.40,1.71,1.70,1.70
153.78,2.98,1.31,2.98,1.31,-1.31,-1.32,-1.37,1.67,1.67,1.67
155.32,2.94,1.31,2.93,1.30,-1.30,-1.30,-1.34,1.64,1.63,1.63
156.88,2.88,1.28,2.88,1.29,-1.29,-1.29,-1.31,1.59,1.60,1.60
158.44,2.84,1.27,2.84,1.27,-1.27,-1.27,-1.28,1.56,1.56,1.57
160.03,2.80,1.27,2.79,1.26,-1.26,-1.25,-1.24,1.54,1.53,1.53
161.63,2.75,1.25,2.75,1.25,-1.25,-1.23,-1.21,1.50,1.50,1.50
163.24,2.71,1.24,2.71,1.24,-1.24,-1.21,-1.18,1.47,1.47,1.47
164.88,2.67,1.23,2.67,1.23,-1.22,-1.19,-1.15,1.44,1.45,1.44
166.53,2.64,1.22,2.63,1.21,-1.21,-1.17,-1.13,1.43,1.42,1.42
168.19,2.59,1.20,2.59,1.20,-1.20,-1.15,-1.10,1.39,1.39,1.39
169.87,2.55,1.18,2.55,1.18,-1.18,-1.13,-1.07,1.37,1.37,1.37
171.57,2.51,1.16,2.51,1.17,-1.17,-1.11,-1.04,1.34,1.34,1.35
173.29,2.48,1.16,2.47,1.15,-1.15,-1.09,-1.02,1.33,1.32,1.32
175.02,2.44,1.14,2.44,1.14,-1.13,-1.07,-0.99,1.30,1.30,1.30
176.77,2.40,1.12,2.40,1.12,-1.12,-1.05,-0.97,1.28,1.28,1.28
178.54,2.36,1.10,2.36,1.10,-1.10,-1.02,-0.94,1.26,1.26,1.26
180.32,2.33,1.08,2.32,1.08,-1.08,-1.00,-0.92,1.24,1.24,1.25
182.13,2.29,1.06,2.29,1.07,-1.07,-0.98,-0.90,1.22,1.22,1.22
183.95,2.25,1.05,2.26,1.05,-1.05,-0.96,-0.88,1.20,1.21,1.20
185.79,2.23,1.04,2.22,1.03,-1.03,-0.94,-0.86,1.20,1.19,1.19
187.65,2.19,1.02,2.19,1.02,-1.02,-0.92,-0.84,1.17,1.17,1.17
189.52,2.15,1.00,2.15,1.00,-1.00,-0.89,-0.82,1.15,1.15,1.15
191.42,2.12,0.98,2.12,0.98,-0.98,-0.87,-0.80,1.14,1.13,1.14
193.33,2.09,0.97,2.09,0.97,-0.97,-0.85,-0.78,1.12,1.12,1.12
195.27,2.06,0.95,2.06,0.95,-0.95,-0.83,-0.76,1.11,1.11,1.10
197.22,2.03,0.94,2.03,0.93,-0.93,-0.81,-0.75,1.10,1.09,1.09
199.19,1.99,0.91,1.99,0.92,-0.91,-0.79,-0.73,1.07,1.08,1.08
201.18,1.96,0.89,1.96,0.89,-0.90,-0.77,-0.71,1.06,1.06,1.06
203.19,1.93,0.88,1.92,0.88,-0.88,-0.75,-0.70,1.05,1.05,1.05
205.23,1.89,0.85,1.89,0.86,-0.86,-0.73,-0.68,1.03,1.04,1.03
207.28,1.86,0.84,1.85,0.84,-0.84,-0.71,-0.67,1.02,1.02,1.02
209.35,1.82,0.81,1.82,0.81,-0.81,-0.68,-0.66,1.00,1.00,1.00
211.44,1.78,0.79,1.78,0.79,-0.79,-0.66,-0.64,0.99,0.99,0.99
213.56,1.75,0.77,1.75,0.77,-0.77,-0.64,-0.63,0.98,0.98,0.98
215.69,1.71,0.74,1.71,0.75,-0.74,-0.63,-0.61,0.96,0.97,0.96
217.85,1.68,0.73,1.68,0.72,-0.72,-0.61,-0.60,0.96,0.96,0.95
220.03,1.64,0.70,1.64,0.70,-0.69,-0.59,-0.59,0.94,0.94,0.94
222.23,1.60,0.67,1.60,0.67,-0.67,-0.57,-0.58,0.93,0.93,0.93
224.45,1.56,0.64,1.56,0.64,-0.64,-0.55,-0.56,0.91,0.91,0.92
226.70,1.52,0.61,1.52,0.61,-0.62,-0.53,-0.55,0.90,0.90,0.91
228.96,1.49,0.59,1.49,0.59,-0.59,-0.51,-0.54,0.90,0.89,0.90
231.25,1.46,0.57,1.45,0.57,-0.57,-0.49,-0.53,0.89,0.88,0.89
233.57,1.41,0.54,1.42,0.54,-0.54,-0.47,-0.51,0.87,0.87,0.87
235.90,1.38,0.52,1.38,0.52,-0.52,-0.46,-0.50,0.86,0.86,0.86
238.26,1.34,0.49,1.34,0.49,-0.49,-0.44,-0.49,0.85,0.85,0.85
240.64,1.30,0.47,1.30,0.47,-0.47,-0.42,-0.48,0.83,0.84,0.83
243.05,1.27,0.45,1.26,0.44,-0.44,-0.40,-0.46,0.83,0.82,0.82
245.48,1.23,0.41,1.23,0.41,-0.42,-0.38,-0.45,0.81,0.81,0.81
247.93,1.19,0.38,1.20,0.39,-0.39,-0.37,-0.44,0.80,0.81,0.81
250.41,1.17,0.37,1.16,0.36,-0.36,-0.35,-0.42,0.80,0.80,0.80
252.92,1.13,0.35,1.13,0.34,-0.34,-0.33,-0.41,0.79,0.79,0.78
255.45,1.09,0.31,1.09,0.32,-0.32,-0.31,-0.39,0.77,0.78,0.78
258.00,1.06,0.29,1.05,0.29,-0.29,-0.30,-0.38,0.77,0.76,0.77
260.58,1.02,0.27,1.02,0.27,-0.27,-0.28,-0.36,0.75,0.75,0.75
263.19,0.99,0.24,0.99,0.24,-0.25,-0.26,-0.35,0.74,0.74,0.75
265.82,0.96,0.23,0.96,0.23,-0.22,-0.25,-0.33,0.74,0.74,0.73
268.48,0.93,0.20,0.93,0.21,-0.20,-0.23,-0.32,0.73,0.73,0.72
271.16,0.90,0.19,0.89,0.18,-0.18,-0.21,-0.30,0.72,0.71,0.71
273.87,0.86,0.15,0.86,0.16,-0.16,-0.20,-0.28,0.70,0.70,0.70
276.61,0.83,0.14,0.83,0.14,-0.14,-0.18,-0.27,0.69,0.69,0.69
279.38,0.80,0.11,0.80,0.12,-0.12,-0.17,-0.25,0.67,0.68,0.68
282.17,0.78,0.11,0.77,0.11,-0.11,-0.15,-0.23,0.67,0.67,0.67
284.99,0.75,0.09,0.75,0.09,-0.09,-0.13,-0.22,0.66,0.66,0.65
287.84,0.72,0.08,0.72,0.08,-0.08,-0.12,-0.20,0.64,0.64,0.64
290.72,0.70,0.07,0.70,0.07,-0.06,-0.10,-0.18,0.63,0.63,0.63
293.63,0.67,0.05,0.67,0.05,-0.05,-0.09,-0.16,0.62,0.62,0.62
296.57,0.65,0.04,0.65,0.04,-0.04,-0.07,-0.14,0.61,0.61,0.61
299.53,0.62,0.02,0.62,0.02,-0.02,-0.06,-0.13,0.59,0.60,0.59
302.53,0.60,0.01,0.60,0.01,-0.01,-0.04,-0.11,0.59,0.59,0.59
305.55,0.58,0.00,0.57,-0.01,0.01,-0.02,-0.09,0.58,0.58,0.58
308.61,0.55,-0.03,0.55,-0.02,0.02,-0.01,-0.07,0.57,0.57,0.57
311.69,0.53,-0.04,0.53,-0.03,0.04,0.01,-0.05,0.56,0.57,0.57
314.81,0.52,-0.04,0.51,-0.05,0.05,0.02,-0.03,0.57,0.56,0.56
317.96,0.49,-0.07,0.49,-0.06,0.06,0.04,-0.01,0.55,0.56,0.55
321.14,0.47,-0.08,0.47,-0.08,0.08,0.05,0.01,0.55,0.55,0.55
324.35,0.45,-0.09,0.45,-0.10,0.09,0.07,0.03,0.54,0.54,0.54
327.59,0.43,-0.11,0.43,-0.11,0.11,0.08,0.05,0.54,0.54,0.54
330.87,0.40,-0.13,0.40,-0.12,0.13,0.10,0.07,0.52,0.53,0.52
334.18,0.39,-0.13,0.38,-0.14,0.14,0.11,0.09,0.53,0.52,0.52
337.52,0.36,-0.16,0.36,-0.16,0.16,0.13,0.11,0.51,0.52,0.52
340.90,0.34,-0.17,0.34,-0.17,0.17,0.15,0.13,0.51,0.51,0.51
344.30,0.31,-0.20,0.31,-0.19,0.19,0.16,0.15,0.49,0.50,0.51
347.75,0.29,-0.20,0.29,-0.20,0.20,0.18,0.17,0.49,0.49,0.49
351.23,0.27,-0.21,0.27,-0.22,0.22,0.19,0.19,0.48,0.48,0.48
354.74,0.25,-0.22,0.25,-0.23,0.23,0.21,0.21,0.48,0.48,0.47
358.28,0.22,-0.25,0.22,-0.24,0.24,0.22,0.23,0.46,0.47,0.47
361.87,0.20,-0.26,0.19,-0.26,0.26,0.24,0.25,0.46,0.45,0.46
365.49,0.17,-0.28,0.17,-0.28,0.27,0.25,0.27,0.44,0.44,0.44
369.14,0.14,-0.29,0.14,-0.29,0.29,0.27,0.30,0.43,0.43,0.43
372.83,0.12,-0.30,0.11,-0.31,0.31,0.29,0.32,0.42,0.42,0.42
376.56,0.09,-0.32,0.09,-0.32,0.32,0.30,0.34,0.41,0.41,0.41
380.33,0.06,-0.34,0.06,-0.34,0.34,0.32,0.36,0.40,0.40,0.40
384.13,0.03,-0.36,0.03,-0.36,0.36,0.33,0.38,0.38,0.38,0.39
387.97,-0.00,-0.38,-0.00,-0.38,0.37,0.35,0.41,0.37,0.37,0.38
391.85,-0.03,-0.40,-0.03,-0.39,0.39,0.37,0.43,0.36,0.36,0.36
395.77,-0.05,-0.40,-0.06,-0.41,0.41,0.38,0.45,0.36,0.36,0.35
399.73,-0.08,-0.42,-0.08,-0.43,0.43,0.40,0.47,0.35,0.35,0.34
403.72,-0.11,-0.45,-0.11,-0.45,0.45,0.42,0.50,0.34,0.34,0.34
407.76,-0.14,-0.47,-0.14,-0.47,0.47,0.43,0.52,0.33,0.33,0.33
411.84,-0.17,-0.49,-0.17,-0.49,0.49,0.45,0.54,0.32,0.32,0.32
415.96,-0.20,-0.51,-0.20,-0.51,0.51,0.47,0.57,0.31,0.31,0.31
420.12,-0.23,-0.53,-0.23,-0.53,0.53,0.48,0.59,0.30,0.30,0.30
424.32,-0.26,-0.55,-0.26,-0.55,0.55,0.50,0.61,0.29,0.29,0.29
428.56,-0.29,-0.57,-0.29,-0.57,0.57,0.52,0.63,0.28,0.28,0.27
432.85,-0.32,-0.59,-0.32,-0.59,0.58,0.54,0.66,0.26,0.26,0.26
437.18,-0.35,-0.60,-0.35,-0.60,0.60,0.55,0.68,0.25,0.25,0.25
441.55,-0.38,-0.62,-0.38,-0.62,0.62,0.57,0.70,0.24,0.24,0.24
445.96,-0.41,-0.63,-0.41,-0.64,0.64,0.59,0.72,0.22,0.22,0.22
450.42,-0.44,-0.65,-0.44,-0.65,0.65,0.61,0.74,0.21,0.21,0.21
454.93,-0.47,-0.67,-0.47,-0.67,0.67,0.62,0.77,0.20,0.20,0.20
459.48,-0.50,-0.68,-0.50,-0.68,0.69,0.64,0.79,0.18,0.18,0.18
464.07,-0.53,-0.70,-0.53,-0.70,0.70,0.66,0.81,0.17,0.17,0.17
468.71,-0.56,-0.72,-0.56,-0.72,0.72,0.68,0.82,0.15,0.15,0.16
473.40,-0.59,-0.74,-0.59,-0.74,0.73,0.70,0.84,0.14,0.14,0.15
478.13,-0.62,-0.75,-0.62,-0.75,0.75,0.72,0.86,0.13,0.13,0.13
482.91,-0.64,-0.76,-0.65,-0.76,0.77,0.74,0.88,0.12,0.12,0.12
487.74,-0.67,-0.78,-0.68,-0.78,0.78,0.75,0.90,0.11,0.11,0.11
492.62,-0.71,-0.81,-0.70,-0.80,0.80,0.77,0.91,0.09,0.09,0.10
497.55,-0.73,-0.82,-0.73,-0.82,0.81,0.79,0.93,0.08,0.08,0.08
502.52,-0.76,-0.84,-0.76,-0.83,0.83,0.81,0.94,0.07,0.07,0.07
507.55,-0.79,-0.85,-0.79,-0.85,0.85,0.83,0.95,0.06,0.06,0.05
512.62,-0.82,-0.87,-0.82,-0.86,0.86,0.85,0.97,0.04,0.04,0.04
517.75,-0.84,-0.87,-0.85,-0.88,0.88,0.87,0.98,0.04,0.03,0.03
522.93,-0.88,-0.90,-0.88,-0.90,0.90,0.89,0.99,0.02,0.02,0.02
528.16,-0.90,-0.91,-0.90,-0.92,0.92,0.91,1.00,0.02,0.01,0.01
533.44,-0.93,-0.93,-0.93,-0.93,0.94,0.93,1.02,0.00,0.00,0.00
538.77,-0.96,-0.95,-0.96,-0.95,0.96,0.95,1.03,-0.01,-0.01,-0.01
