frequency,raw,error,smoothed,error_smoothed,equalization,parametric_eq,fixed_band_eq,equalized_raw,equalized_smoothed,target
20.00,-7.94,-5.64,-7.94,-5.64,5.64,5.48,0.51,-2.29,-2.29,-2.30
20.20,-7.80,-5.51,-7.80,-5.51,5.50,5.39,0.52,-2.29,-2.29,-2.29
20.40,-7.65,-5.38,-7.65,-5.37,5.37,5.30,0.54,-2.29,-2.29,-2.28
20.61,-7.52,-5.24,-7.52,-5.24,5.23,5.20,0.56,-2.28,-2.28,-2.28
20.81,-7.37,-5.11,-7.37,-5.10,5.10,5.11,0.58,-2.27,-2.27,-2.27
21.02,-7.24,-4.97,-7.24,-4.97,4.97,5.00,0.60,-2.26,-2.27,-2.27
21.23,-7.11,-4.85,-7.11,-4.85,4.85,4.90,0.62,-2.26,-2.26,-2.26
21.44,-6.98,-4.72,-6.98,-4.72,4.72,4.79,0.65,-2.26,-2.26,-2.26
21.66,-6.86,-4.60,-6.85,-4.59,4.60,4.68,0.67,-2.26,-2.25,-2.26
21.87,-6.72,-4.46,-6.73,-4.47,4.48,4.56,0.69,-2.24,-2.25,-2.26
22.09,-6.61,-4.36,-6.61,-4.36,4.36,4.44,0.72,-2.24,-2.25,-2.25
22.31,-6.50,-4.25,-6.50,-4.25,4.25,4.33,0.74,-2.26,-2.25,-2.25
22.54,-6.40,-4.14,-6.40,-4.14,4.13,4.20,0.77,-2.26,-2.26,-2.26
22.76,-6.29,-4.02,-6.29,-4.02,4.02,4.08,0.79,-2.27,-2.27,-2.27
22.99,-6.18,-3.91,-6.17,-3.90,3.90,3.96,0.82,-2.28,-2.27,-2.27
23.22,-6.06,-3.79,-6.05,-3.78,3.78,3.83,0.85,-2.28,-2.28,-2.27
23.45,-5.93,-3.65,-5.93,-3.66,3.65,3.70,0.87,-2.27,-2.28,-2.28
23.69,-5.81,-3.53,-5.81,-3.53,3.52,3.58,0.90,-2.29,-2.29,-2.28
23.92,-5.67,-3.39,-5.67,-3.39,3.38,3.45,0.93,-2.29,-2.29,-2.28
24.16,-5.53,-3.26,-5.53,-3.25,3.24,3.32,0.96,-2.29,-2.29,-2.28
24.40,-5.38,-3.10,-5.39,-3.11,3.11,3.19,0.99,-2.28,-2.28,-2.28
24.65,-5.25,-2.97,-5.24,-2.96,2.97,3.06,1.01,-2.27,-2.27,-2.28
24.89,-5.09,-2.81,-5.10,-2.82,2.85,2.93,1.04,-2.25,-2.26,-2.28
25.14,-4.97,-2.70,-4.98,-2.70,2.72,2.80,1.07,-2.25,-2.26,-2.28
25.39,-4.87,-2.58,-4.88,-2.59,2.60,2.66,1.10,-2.27,-2.27,-2.29
25.65,-4.79,-2.50,-4.78,-2.49,2.49,2.53,1.13,-2.30,-2.29,-2.29
25.91,-4.69,-2.40,-4.68,-2.39,2.38,2.40,1.15,-2.31,-2.31,-2.29
26.16,-4.56,-2.27,-4.57,-2.28,2.26,2.27,1.18,-2.30,-2.31,-2.29
26.43,-4.45,-2.16,-4.45,-2.16,2.15,2.14,1.20,-2.30,-2.30,-2.29
26.69,-4.32,-2.03,-4.32,-2.03,2.02,2.01,1.23,-2.29,-2.30,-2.29
26.96,-4.20,-1.91,-4.20,-1.91,1.90,1.88,1.25,-2.30,-2.30,-2.29
27.23,-4.07,-1.78,-4.06,-1.77,1.77,1.76,1.27,-2.30,-2.29,-2.29
27.50,-3.93,-1.64,-3.92,-1.63,1.64,1.63,1.28,-2.29,-2.29,-2.29
27.77,-3.78,-1.49,-3.79,-1.50,1.51,1.50,1.30,-2.27,-2.28,-2.29
28.05,-3.66,-1.37,-3.66,-1.37,1.39,1.38,1.31,-2.26,-2.27,-2.29
28.33,-3.56,-1.27,-3.55,-1.26,1.28,1.25,1.32,-2.28,-2.27,-2.29
28.62,-3.45,-1.16,-3.45,-1.16,1.17,1.13,1.33,-2.28,-2.28,-2.29
28.90,-3.35,-1.07,-3.34,-1.06,1.06,1.00,1.33,-2.28,-2.28,-2.28
29.19,-3.24,-0.96,-3.24,-0.96,0.96,0.88,1.33,-2.28,-2.28,-2.28
29.48,-3.14,-0.86,-3.14,-0.86,0.85,0.76,1.33,-2.28,-2.29,-2.28
29.78,-3.04,-0.77,-3.03,-0.76,0.74,0.64,1.32,-2.29,-2.29,-2.27
30.08,-2.93,-0.66,-2.92,-0.65,0.63,0.52,1.31,-2.29,-2.29,-2.27
30.38,-2.80,-0.53,-2.80,-0.53,0.52,0.40,1.29,-2.28,-2.28,-2.27
30.68,-2.67,-0.40,-2.67,-0.40,0.41,0.28,1.27,-2.26,-2.26,-2.27
30.99,-2.54,-0.27,-2.54,-0.27,0.29,0.16,1.24,-2.25,-2.25,-2.27
31.30,-2.43,-0.16,-2.43,-0.16,0.18,0.05,1.21,-2.25,-2.25,-2.27
31.61,-2.33,-0.06,-2.32,-0.05,0.06,-0.07,1.17,-2.27,-2.27,-2.27
31.93,-2.22,0.05,-2.22,0.06,-0.07,-0.18,1.13,-2.28,-2.28,-2.27
32.24,-2.10,0.18,-2.11,0.17,-0.19,-0.30,1.09,-2.29,-2.29,-2.28
32.57,-1.99,0.29,-1.99,0.29,-0.31,-0.41,1.04,-2.30,-2.30,-2.28
32.89,-1.87,0.41,-1.86,0.42,-0.43,-0.52,0.98,-2.29,-2.29,-2.28
33.22,-1.74,0.55,-1.74,0.55,-0.54,-0.63,0.92,-2.28,-2.28,-2.29
33.55,-1.61,0.68,-1.61,0.68,-0.66,-0.73,0.86,-2.27,-2.27,-2.29
33.89,-1.49,0.81,-1.50,0.80,-0.77,-0.84,0.79,-2.26,-2.27,-2.30
34.23,-1.40,0.90,-1.40,0.90,-0.89,-0.95,0.72,-2.29,-2.29,-2.30
34.57,-1.32,0.98,-1.32,0.98,-1.01,-1.05,0.64,-2.32,-2.32,-2.30
34.92,-1.24,1.06,-1.22,1.08,-1.12,-1.16,0.57,-2.36,-2.34,-2.30
35.27,-1.11,1.19,-1.10,1.20,-1.23,-1.26,0.48,-2.34,-2.33,-2.30
35.62,-0.96,1.34,-0.96,1.34,-1.34,-1.36,0.40,-2.29,-2.30,-2.30
35.97,-0.81,1.49,-0.83,1.47,-1.44,-1.46,0.31,-2.25,-2.27,-2.30
36.33,-0.73,1.57,-0.72,1.58,-1.54,-1.56,0.22,-2.27,-2.27,-2.30
36.70,-0.65,1.65,-0.64,1.66,-1.64,-1.66,0.12,-2.29,-2.28,-2.30
37.06,-0.57,1.73,-0.56,1.74,-1.74,-1.75,0.03,-2.31,-2.30,-2.30
37.43,-0.48,1.82,-0.48,1.82,-1.83,-1.85,-0.07,-2.31,-2.31,-2.30
37.81,-0.39,1.90,-0.39,1.91,-1.92,-1.94,-0.17,-2.31,-2.31,-2.29
38.19,-0.30,1.99,-0.29,2.00,-2.00,-2.03,-0.27,-2.30,-2.30,-2.29
38.57,-0.20,2.09,-0.20,2.09,-2.09,-2.13,-0.38,-2.29,-2.29,-2.29
38.95,-0.10,2.18,-0.10,2.18,-2.18,-2.22,-0.48,-2.27,-2.28,-2.28
39.34,-0.01,2.27,-0.01,2.27,-2.27,-2.30,-0.59,-2.28,-2.28,-2.28
39.74,0.08,2.36,0.08,2.36,-2.36,-2.39,-0.70,-2.28,-2.28,-2.28
40.14,0.17,2.45,0.18,2.46,-2.46,-2.48,-0.81,-2.29,-2.28,-2.28
40.54,0.27,2.55,0.28,2.55,-2.56,-2.56,-0.92,-2.29,-2.29,-2.28
40.94,0.38,2.66,0.37,2.65,-2.66,-2.65,-1.04,-2.28,-2.29,-2.28
41.35,0.46,2.74,0.47,2.75,-2.76,-2.73,-1.15,-2.30,-2.30,-2.28
41.76,0.55,2.84,0.56,2.85,-2.85,-2.81,-1.27,-2.30,-2.29,-2.29
42.18,0.65,2.94,0.67,2.96,-2.94,-2.89,-1.39,-2.29,-2.27,-2.29
42.60,0.77,3.06,0.77,3.06,-3.03,-2.97,-1.51,-2.25,-2.25,-2.29
43.03,0.88,3.17,0.84,3.13,-3.11,-3.05,-1.63,-2.22,-2.26,-2.29
43.46,0.88,3.17,0.89,3.18,-3.18,-3.13,-1.75,-2.30,-2.29,-2.29
43.90,0.89,3.19,0.93,3.23,-3.25,-3.20,-1.88,-2.35,-2.32,-2.30
44.33,0.98,3.28,0.99,3.29,-3.31,-3.28,-2.00,-2.33,-2.32,-2.30
44.78,1.10,3.40,1.08,3.38,-3.38,-3.35,-2.13,-2.27,-2.30,-2.30
45.23,1.17,3.47,1.15,3.45,-3.45,-3.42,-2.26,-2.27,-2.29,-2.30
45.68,1.20,3.50,1.22,3.51,-3.53,-3.49,-2.39,-2.32,-2.31,-2.30
46.13,1.26,3.55,1.28,3.58,-3.61,-3.56,-2.52,-2.35,-2.33,-2.29
46.60,1.38,3.67,1.38,3.67,-3.70,-3.63,-2.65,-2.32,-2.32,-2.29
47.06,1.50,3.78,1.51,3.79,-3.79,-3.70,-2.78,-2.28,-2.28,-2.28
47.53,1.62,3.89,1.63,3.90,-3.86,-3.76,-2.92,-2.24,-2.23,-2.27
48.01,1.74,4.00,1.72,3.98,-3.93,-3.82,-3.05,-2.19,-2.22,-2.26
48.49,1.77,4.02,1.78,4.03,-4.00,-3.89,-3.19,-2.22,-2.22,-2.25
48.97,1.80,4.04,1.82,4.06,-4.05,-3.95,-3.33,-2.25,-2.23,-2.24
49.46,1.85,4.08,1.85,4.08,-4.10,-4.01,-3.47,-2.24,-2.25,-2.23
49.96,1.90,4.11,1.90,4.11,-4.13,-4.07,-3.61,-2.23,-2.23,-2.21
50.46,1.95,4.15,1.95,4.15,-4.16,-4.12,-3.75,-2.21,-2.21,-2.20
50.96,2.00,4.18,2.01,4.19,-4.19,-4.18,-3.88,-2.19,-2.18,-2.18
51.47,2.05,4.22,2.05,4.22,-4.22,-4.23,-4.02,-2.17,-2.17,-2.17
51.99,2.10,4.26,2.09,4.25,-4.25,-4.29,-4.16,-2.15,-2.16,-2.16
52.51,2.13,4.28,2.13,4.28,-4.29,-4.34,-4.30,-2.16,-2.16,-2.15
53.03,2.16,4.30,2.18,4.32,-4.32,-4.39,-4.44,-2.16,-2.14,-2.14
53.56,2.23,4.36,2.23,4.36,-4.35,-4.44,-4.57,-2.12,-2.12,-2.13
54.10,2.29,4.40,2.27,4.38,-4.38,-4.48,-4.70,-2.08,-2.11,-2.11
54.64,2.30,4.40,2.32,4.42,-4.40,-4.53,-4.83,-2.10,-2.08,-2.10
55.18,2.33,4.42,2.36,4.46,-4.44,-4.57,-4.96,-2.10,-2.07,-2.09
55.74,2.42,4.51,2.38,4.46,-4.48,-4.62,-5.08,-2.06,-2.10,-2.09
56.29,2.42,4.50,2.39,4.47,-4.52,-4.66,-5.19,-2.10,-2.13,-2.08
56.86,2.36,4.43,2.44,4.52,-4.55,-4.70,-5.31,-2.19,-2.11,-2.07
57.42,2.49,4.55,2.51,4.58,-4.58,-4.74,-5.41,-2.10,-2.08,-2.07
58.00,2.66,4.73,2.59,4.66,-4.61,-4.78,-5.51,-1.94,-2.02,-2.07
58.58,2.64,4.71,2.65,4.72,-4.63,-4.81,-5.60,-1.99,-1.98,-2.07
59.16,2.63,4.70,2.65,4.72,-4.67,-4.85,-5.69,-2.03,-2.02,-2.07
59.76,2.61,4.68,2.59,4.66,-4.71,-4.88,-5.76,-2.09,-2.12,-2.07
60.35,2.58,4.66,2.58,4.65,-4.75,-4.91,-5.83,-2.16,-2.17,-2.08
60.96,2.54,4.63,2.63,4.71,-4.79,-4.94,-5.89,-2.24,-2.16,-2.09
61.57,2.72,4.82,2.70,4.81,-4.82,-4.97,-5.94,-2.10,-2.12,-2.10
62.18,2.85,4.97,2.78,4.90,-4.86,-5.00,-5.98,-2.01,-2.08,-2.12
62.80,2.81,4.95,2.83,4.98,-4.91,-5.03,-6.01,-2.09,-2.07,-2.14
63.43,2.80,4.97,2.82,4.99,-4.96,-5.05,-6.03,-2.15,-2.14,-2.17
64.07,2.80,4.99,2.80,4.99,-5.00,-5.08,-6.04,-2.20,-2.20,-2.19
64.71,2.80,5.02,2.80,5.02,-5.03,-5.10,-6.04,-2.22,-2.22,-2.22
65.35,2.80,5.04,2.80,5.04,-5.04,-5.12,-6.04,-2.24,-2.24,-2.24
66.01,2.80,5.06,2.80,5.06,-5.05,-5.14,-6.02,-2.25,-2.25,-2.26
66.67,2.80,5.08,2.81,5.08,-5.07,-5.16,-6.00,-2.27,-2.27,-2.28
67.33,2.80,5.09,2.79,5.09,-5.11,-5.18,-5.97,-2.30,-2.32,-2.29
68.01,2.80,5.11,2.78,5.08,-5.15,-5.19,-5.93,-2.35,-2.37,-2.31
68.69,2.76,5.08,2.83,5.14,-5.19,-5.21,-5.89,-2.43,-2.37,-2.32
69.37,2.87,5.20,2.90,5.23,-5.24,-5.22,-5.84,-2.37,-2.33,-2.33
70.07,3.07,5.41,2.98,5.32,-5.28,-5.23,-5.79,-2.20,-2.30,-2.34
70.77,3.02,5.37,3.04,5.38,-5.32,-5.25,-5.74,-2.29,-2.28,-2.35
71.48,3.01,5.36,3.04,5.39,-5.35,-5.26,-5.68,-2.33,-2.31,-2.35
72.19,3.01,5.37,3.01,5.37,-5.38,-5.26,-5.61,-2.37,-2.37,-2.36
72.91,3.01,5.38,3.01,5.38,-5.40,-5.27,-5.55,-2.39,-2.39,-2.37
73.64,3.01,5.39,3.01,5.39,-5.42,-5.28,-5.49,-2.40,-2.40,-2.38
74.38,3.01,5.40,3.01,5.40,-5.43,-5.28,-5.42,-2.41,-2.41,-2.39
75.12,3.01,5.41,3.01,5.41,-5.43,-5.29,-5.36,-2.42,-2.42,-2.40
75.87,3.01,5.43,3.02,5.44,-5.43,-5.29,-5.29,-2.42,-2.41,-2.42
76.63,3.02,5.45,3.04,5.47,-5.44,-5.29,-5.23,-2.41,-2.40,-2.43
77.40,3.04,5.49,3.03,5.48,-5.44,-5.29,-5.16,-2.40,-2.41,-2.45
78.17,3.03,5.49,3.00,5.46,-5.44,-5.29,-5.10,-2.41,-2.44,-2.46
78.95,2.91,5.39,2.95,5.43,-5.44,-5.29,-5.04,-2.53,-2.49,-2.48
79.74,2.90,5.39,2.91,5.40,-5.44,-5.29,-4.98,-2.53,-2.53,-2.49
80.54,2.90,5.41,2.89,5.40,-5.44,-5.29,-4.93,-2.54,-2.55,-2.51
81.35,2.90,5.42,2.90,5.42,-5.44,-5.28,-4.88,-2.53,-2.54,-2.52
82.16,2.90,5.43,2.90,5.44,-5.43,-5.28,-4.83,-2.53,-2.53,-2.53
82.98,2.90,5.44,2.91,5.45,-5.43,-5.27,-4.78,-2.53,-2.52,-2.54
83.81,2.90,5.45,2.91,5.45,-5.42,-5.26,-4.73,-2.52,-2.52,-2.55
84.65,2.90,5.45,2.89,5.45,-5.41,-5.26,-4.69,-2.51,-2.52,-2.55
85.50,2.86,5.42,2.86,5.42,-5.40,-5.25,-4.66,-2.53,-2.54,-2.56
86.35,2.80,5.37,2.81,5.38,-5.38,-5.24,-4.62,-2.57,-2.57,-2.57
87.22,2.75,5.33,2.75,5.33,-5.36,-5.23,-4.59,-2.60,-2.60,-2.58
88.09,2.70,5.29,2.72,5.31,-5.34,-5.22,-4.56,-2.63,-2.62,-2.59
88.97,2.71,5.30,2.71,5.30,-5.33,-5.21,-4.54,-2.61,-2.62,-2.59
89.86,2.71,5.31,2.71,5.31,-5.32,-5.19,-4.52,-2.61,-2.61,-2.60
90.76,2.71,5.32,2.71,5.32,-5.33,-5.18,-4.50,-2.61,-2.61,-2.61
91.66,2.71,5.32,2.71,5.32,-5.33,-5.17,-4.49,-2.62,-2.62,-2.61
92.58,2.71,5.32,2.72,5.34,-5.33,-5.15,-4.48,-2.62,-2.61,-2.61
93.51,2.72,5.34,2.73,5.35,-5.33,-5.14,-4.47,-2.60,-2.59,-2.62
94.44,2.74,5.36,2.72,5.34,-5.31,-5.12,-4.47,-2.57,-2.59,-2.62
95.39,2.70,5.32,2.69,5.31,-5.28,-5.11,-4.47,-2.58,-2.59,-2.62
96.34,2.60,5.22,2.62,5.24,-5.23,-5.09,-4.47,-2.63,-2.61,-2.62
97.30,2.54,5.16,2.54,5.17,-5.17,-5.07,-4.48,-2.63,-2.63,-2.62
98.28,2.47,5.10,2.48,5.10,-5.10,-5.05,-4.49,-2.63,-2.62,-2.63
99.26,2.40,5.03,2.41,5.04,-5.03,-5.04,-4.50,-2.63,-2.62,-2.63
100.25,2.35,4.98,2.32,4.95,-4.96,-5.02,-4.51,-2.61,-2.65,-2.63
101.25,2.21,4.84,2.22,4.86,-4.90,-5.00,-4.53,-2.68,-2.67,-2.63
102.27,2.11,4.75,2.15,4.79,-4.84,-4.98,-4.55,-2.72,-2.68,-2.64
103.29,2.11,4.76,2.11,4.76,-4.78,-4.96,-4.57,-2.66,-2.67,-2.65
104.32,2.11,4.77,2.10,4.75,-4.72,-4.94,-4.59,-2.61,-2.62,-2.66
105.37,2.07,4.73,2.06,4.73,-4.67,-4.92,-4.61,-2.59,-2.61,-2.66
106.42,1.99,4.66,1.99,4.66,-4.62,-4.90,-4.63,-2.63,-2.64,-2.67
107.48,1.88,4.56,1.89,4.57,-4.58,-4.87,-4.66,-2.70,-2.69,-2.68
108.56,1.80,4.49,1.82,4.51,-4.55,-4.85,-4.68,-2.74,-2.73,-2.69
109.64,1.76,4.46,1.77,4.46,-4.51,-4.83,-4.70,-2.74,-2.74,-2.70
110.74,1.75,4.45,1.75,4.45,-4.46,-4.81,-4.72,-2.71,-2.71,-2.70
111.85,1.74,4.44,1.75,4.45,-4.43,-4.79,-4.75,-2.68,-2.68,-2.70
112.97,1.73,4.43,1.73,4.43,-4.39,-4.76,-4.77,-2.66,-2.67,-2.70
114.10,1.71,4.41,1.69,4.39,-4.37,-4.74,-4.79,-2.66,-2.68,-2.70
115.24,1.63,4.32,1.66,4.35,-4.35,-4.72,-4.80,-2.72,-2.70,-2.69
116.39,1.62,4.31,1.63,4.31,-4.33,-4.69,-4.82,-2.71,-2.71,-2.69
117.55,1.62,4.29,1.62,4.29,-4.31,-4.67,-4.83,-2.69,-2.69,-2.67
118.73,1.63,4.29,1.63,4.29,-4.29,-4.65,-4.84,-2.66,-2.66,-2.66
119.92,1.64,4.28,1.64,4.28,-4.28,-4.62,-4.84,-2.63,-2.63,-2.64
121.12,1.65,4.27,1.65,4.27,-4.26,-4.60,-4.84,-2.61,-2.61,-2.62
122.33,1.65,4.25,1.66,4.26,-4.25,-4.57,-4.84,-2.60,-2.60,-2.60
123.55,1.66,4.24,1.67,4.25,-4.24,-4.55,-4.83,-2.58,-2.58,-2.58
124.79,1.67,4.23,1.67,4.23,-4.23,-4.53,-4.82,-2.56,-2.56,-2.56
126.03,1.68,4.22,1.68,4.22,-4.22,-4.50,-4.81,-2.54,-2.54,-2.54
127.29,1.68,4.20,1.69,4.21,-4.20,-4.48,-4.79,-2.52,-2.52,-2.52
128.57,1.69,4.19,1.69,4.19,-4.19,-4.45,-4.77,-2.50,-2.50,-2.50
129.85,1.69,4.17,1.70,4.18,-4.18,-4.43,-4.74,-2.48,-2.48,-2.48
131.15,1.70,4.16,1.70,4.16,-4.16,-4.40,-4.71,-2.46,-2.46,-2.46
132.46,1.70,4.15,1.71,4.15,-4.15,-4.38,-4.68,-2.44,-2.44,-2.45
133.79,1.71,4.14,1.71,4.14,-4.13,-4.35,-4.64,-2.42,-2.42,-2.43
135.12,1.71,4.13,1.72,4.13,-4.13,-4.33,-4.60,-2.42,-2.41,-2.42
136.48,1.72,4.12,1.72,4.12,-4.13,-4.31,-4.55,-2.41,-2.41,-2.40
137.84,1.72,4.11,1.71,4.10,-4.13,-4.28,-4.51,-2.41,-2.42,-2.39
139.22,1.72,4.10,1.74,4.12,-4.14,-4.26,-4.46,-2.42,-2.40,-2.38
140.61,1.74,4.11,1.78,4.15,-4.15,-4.23,-4.41,-2.40,-2.37,-2.37
142.02,1.86,4.22,1.82,4.18,-4.16,-4.21,-4.36,-2.29,-2.34,-2.36
143.44,1.85,4.21,1.84,4.20,-4.17,-4.18,-4.31,-2.31,-2.32,-2.36
144.87,1.82,4.18,1.85,4.20,-4.18,-4.16,-4.25,-2.36,-2.33,-2.36
146.32,1.82,4.18,1.82,4.19,-4.19,-4.14,-4.20,-2.37,-2.37,-2.36
147.78,1.82,4.19,1.82,4.19,-4.21,-4.11,-4.15,-2.38,-2.39,-2.37
149.26,1.82,4.20,1.82,4.21,-4.22,-4.09,-4.09,-2.40,-2.40,-2.38
150.75,1.82,4.22,1.82,4.23,-4.25,-4.06,-4.04,-2.42,-2.42,-2.40
152.26,1.82,4.25,1.82,4.25,-4.28,-4.04,-3.99,-2.45,-2.45,-2.43
153.78,1.82,4.28,1.82,4.29,-4.31,-4.02,-3.94,-2.48,-2.48,-2.46
155.32,1.82,4.32,1.83,4.32,-4.33,-3.99,-3.89,-2.51,-2.51,-2.50
156.88,1.82,4.35,1.83,4.36,-4.35,-3.97,-3.84,-2.53,-2.52,-2.53
158.44,1.82,4.39,1.83,4.39,-4.35,-3.95,-3.80,-2.53,-2.53,-2.57
160.03,1.80,4.40,1.79,4.39,-4.33,-3.92,-3.75,-2.53,-2.54,-2.60
161.63,1.73,4.35,1.72,4.35,-4.29,-3.90,-3.71,-2.56,-2.57,-2.62
163.24,1.61,4.26,1.61,4.25,-4.24,-3.88,-3.67,-2.63,-2.63,-2.65
164.88,1.48,4.14,1.50,4.17,-4.18,-3.86,-3.63,-2.70,-2.68,-2.66
166.53,1.39,4.06,1.42,4.09,-4.12,-3.83,-3.60,-2.72,-2.70,-2.67
168.19,1.38,4.05,1.34,4.01,-4.05,-3.81,-3.56,-2.67,-2.72,-2.67
169.87,1.29,3.95,1.29,3.95,-4.00,-3.79,-3.53,-2.71,-2.71,-2.66
171.57,1.21,3.86,1.28,3.93,-3.95,-3.77,-3.50,-2.74,-2.67,-2.65
173.29,1.30,3.93,1.29,3.92,-3.92,-3.75,-3.48,-2.61,-2.63,-2.63
175.02,1.36,3.96,1.30,3.91,-3.88,-3.72,-3.45,-2.52,-2.58,-2.60
176.77,1.30,3.87,1.33,3.90,-3.85,-3.70,-3.43,-2.55,-2.52,-2.57
178.54,1.27,3.81,1.32,3.86,-3.82,-3.68,-3.42,-2.54,-2.49,-2.54
180.32,1.33,3.83,1.29,3.79,-3.78,-3.66,-3.40,-2.45,-2.49,-2.50
182.13,1.30,3.77,1.27,3.74,-3.75,-3.64,-3.39,-2.44,-2.48,-2.47
183.95,1.19,3.62,1.24,3.68,-3.71,-3.62,-3.38,-2.51,-2.47,-2.43
185.79,1.21,3.62,1.21,3.62,-3.67,-3.60,-3.37,-2.45,-2.45,-2.41
187.65,1.22,3.61,1.23,3.62,-3.63,-3.58,-3.37,-2.41,-2.40,-2.39
189.52,1.27,3.64,1.26,3.63,-3.61,-3.56,-3.36,-2.33,-2.35,-2.37
191.42,1.28,3.64,1.25,3.61,-3.59,-3.54,-3.36,-2.30,-2.33,-2.36
193.33,1.21,3.55,1.24,3.58,-3.57,-3.52,-3.36,-2.36,-2.33,-2.34
195.27,1.20,3.53,1.22,3.55,-3.56,-3.50,-3.37,-2.36,-2.34,-2.33
197.22,1.22,3.55,1.22,3.55,-3.55,-3.48,-3.37,-2.33,-2.33,-2.33
199.19,1.24,3.56,1.23,3.55,-3.55,-3.46,-3.38,-2.31,-2.32,-2.32
201.18,1.24,3.56,1.22,3.54,-3.54,-3.44,-3.39,-2.30,-2.33,-2.32
203.19,1.17,3.49,1.21,3.53,-3.54,-3.42,-3.40,-2.36,-2.33,-2.32
205.23,1.19,3.51,1.21,3.53,-3.54,-3.41,-3.41,-2.34,-2.32,-2.32
207.28,1.26,3.58,1.22,3.54,-3.54,-3.39,-3.43,-2.28,-2.32,-2.32
209.35,1.23,3.55,1.24,3.56,-3.54,-3.37,-3.44,-2.31,-2.31,-2.32
211.44,1.21,3.54,1.23,3.55,-3.54,-3.35,-3.45,-2.33,-2.32,-2.33
213.56,1.21,3.54,1.21,3.54,-3.55,-3.33,-3.47,-2.34,-2.34,-2.33
215.69,1.20,3.54,1.21,3.54,-3.56,-3.31,-3.48,-2.35,-2.35,-2.34
217.85,1.20,3.54,1.20,3.55,-3.56,-3.30,-3.50,-2.35,-2.35,-2.34
220.03,1.20,3.55,1.20,3.55,-3.55,-3.28,-3.51,-2.35,-2.35,-2.35
222.23,1.19,3.54,1.20,3.55,-3.54,-3.26,-3.53,-2.35,-2.34,-2.35
224.45,1.19,3.54,1.21,3.56,-3.53,-3.25,-3.54,-2.34,-2.32,-2.35
226.70,1.20,3.55,1.20,3.55,-3.52,-3.23,-3.55,-2.31,-2.32,-2.35
228.96,1.20,3.55,1.15,3.50,-3.50,-3.21,-3.56,-2.29,-2.35,-2.35
231.25,1.08,3.42,1.11,3.45,-3.47,-3.20,-3.57,-2.38,-2.36,-2.34
233.57,1.02,3.36,1.09,3.43,-3.44,-3.18,-3.58,-2.42,-2.35,-2.34
235.90,1.12,3.45,1.09,3.42,-3.42,-3.16,-3.58,-2.30,-2.33,-2.33
238.26,1.14,3.46,1.09,3.41,-3.41,-3.15,-3.59,-2.27,-2.32,-2.32
240.64,1.07,3.37,1.08,3.38,-3.41,-3.13,-3.59,-2.33,-2.33,-2.30
243.05,1.00,3.29,1.05,3.34,-3.40,-3.12,-3.58,-2.40,-2.35,-2.29
245.48,1.06,3.34,1.08,3.36,-3.39,-3.10,-3.58,-2.33,-2.31,-2.28
247.93,1.15,3.42,1.15,3.42,-3.38,-3.09,-3.57,-2.22,-2.23,-2.27
250.41,1.24,3.50,1.19,3.45,-3.36,-3.07,-3.55,-2.11,-2.17,-2.26
252.92,1.15,3.40,1.15,3.40,-3.33,-3.06,-3.54,-2.18,-2.19,-2.25
255.45,1.04,3.29,1.05,3.29,-3.30,-3.04,-3.52,-2.26,-2.26,-2.25
258.00,0.91,3.16,0.95,3.20,-3.27,-3.03,-3.49,-2.35,-2.31,-2.25
260.58,0.91,3.16,0.95,3.20,-3.23,-3.01,-3.47,-2.32,-2.29,-2.25
263.19,0.96,3.21,0.93,3.18,-3.19,-3.00,-3.44,-2.23,-2.26,-2.25
265.82,0.98,3.23,0.90,3.15,-3.16,-2.98,-3.41,-2.17,-2.26,-2.25
268.48,0.78,3.03,0.87,3.12,-3.12,-2.97,-3.37,-2.34,-2.26,-2.25
271.16,0.78,3.03,0.83,3.08,-3.10,-2.96,-3.34,-2.31,-2.27,-2.25
273.87,0.87,3.12,0.80,3.06,-3.06,-2.94,-3.30,-2.18,-2.25,-2.25
276.61,0.80,3.05,0.82,3.07,-3.00,-2.93,-3.26,-2.20,-2.19,-2.25
279.38,0.75,3.00,0.77,3.01,-2.93,-2.92,-3.22,-2.18,-2.16,-2.25
282.17,0.69,2.93,0.67,2.91,-2.87,-2.90,-3.17,-2.17,-2.20,-2.24
284.99,0.56,2.79,0.56,2.79,-2.81,-2.89,-3.13,-2.24,-2.25,-2.23
287.84,0.43,2.66,0.44,2.67,-2.75,-2.88,-3.08,-2.31,-2.30,-2.23
290.72,0.34,2.56,0.36,2.58,-2.68,-2.86,-3.04,-2.34,-2.32,-2.22
293.63,0.33,2.54,0.35,2.56,-2.61,-2.85,-2.99,-2.28,-2.26,-2.21
296.57,0.37,2.57,0.37,2.58,-2.54,-2.84,-2.94,-2.17,-2.17,-2.20
299.53,0.41,2.61,0.40,2.60,-2.49,-2.83,-2.89,-2.07,-2.09,-2.20
302.53,0.37,2.56,0.34,2.54,-2.45,-2.81,-2.85,-2.07,-2.10,-2.19
305.55,0.27,2.46,0.22,2.41,-2.42,-2.80,-2.80,-2.15,-2.20,-2.19
308.61,0.03,2.22,0.13,2.32,-2.39,-2.79,-2.76,-2.36,-2.27,-2.19
311.69,0.03,2.22,0.09,2.28,-2.36,-2.78,-2.71,-2.33,-2.27,-2.19
314.81,0.18,2.38,0.10,2.29,-2.32,-2.76,-2.67,-2.14,-2.22,-2.20
317.96,0.14,2.34,0.13,2.33,-2.28,-2.75,-2.62,-2.14,-2.15,-2.20
321.14,0.08,2.29,0.12,2.33,-2.25,-2.74,-2.58,-2.16,-2.13,-2.21
324.35,0.07,2.28,0.08,2.29,-2.24,-2.73,-2.54,-2.16,-2.16,-2.21
327.59,0.07,2.29,0.03,2.25,-2.25,-2.72,-2.50,-2.17,-2.22,-2.22
330.87,0.00,2.23,-0.00,2.23,-2.27,-2.71,-2.46,-2.27,-2.27,-2.23
334.18,-0.07,2.17,0.00,2.24,-2.32,-2.69,-2.43,-2.39,-2.32,-2.24
337.52,0.07,2.32,0.05,2.29,-2.39,-2.68,-2.39,-2.31,-2.34,-2.25
340.90,0.17,2.42,0.14,2.39,-2.47,-2.67,-2.36,-2.29,-2.33,-2.25
344.30,0.25,2.51,0.28,2.54,-2.56,-2.66,-2.33,-2.30,-2.28,-2.26
347.75,0.37,2.65,0.42,2.70,-2.65,-2.65,-2.30,-2.27,-2.22,-2.28
351.23,0.58,2.87,0.53,2.82,-2.73,-2.64,-2.27,-2.14,-2.19,-2.29
354.74,0.63,2.93,0.58,2.88,-2.78,-2.62,-2.24,-2.15,-2.20,-2.30
358.28,0.51,2.82,0.55,2.86,-2.80,-2.61,-2.22,-2.29,-2.26,-2.31
361.87,0.43,2.75,0.48,2.80,-2.79,-2.60,-2.20,-2.36,-2.32,-2.32
365.49,0.41,2.75,0.41,2.75,-2.75,-2.59,-2.17,-2.34,-2.34,-2.34
369.14,0.38,2.73,0.33,2.68,-2.69,-2.58,-2.15,-2.31,-2.36,-2.35
372.83,0.25,2.61,0.24,2.60,-2.63,-2.57,-2.14,-2.37,-2.38,-2.36
376.56,0.09,2.46,0.17,2.54,-2.57,-2.56,-2.12,-2.47,-2.40,-2.37
380.33,0.11,2.49,0.10,2.48,-2.53,-2.55,-2.11,-2.41,-2.43,-2.38
384.13,0.12,2.51,0.07,2.46,-2.50,-2.53,-2.09,-2.38,-2.43,-2.39
387.97,0.03,2.43,0.09,2.49,-2.50,-2.52,-2.08,-2.46,-2.41,-2.40
391.85,0.09,2.50,0.09,2.50,-2.50,-2.51,-2.07,-2.41,-2.41,-2.41
395.77,0.13,2.55,0.11,2.53,-2.51,-2.50,-2.06,-2.38,-2.40,-2.42
399.73,0.13,2.56,0.14,2.57,-2.54,-2.49,-2.05,-2.40,-2.40,-2.43
403.72,0.13,2.57,0.13,2.58,-2.56,-2.48,-2.05,-2.43,-2.43,-2.44
407.76,0.12,2.58,0.13,2.58,-2.59,-2.47,-2.04,-2.46,-2.46,-2.46
411.84,0.12,2.59,0.12,2.59,-2.60,-2.45,-2.04,-2.48,-2.48,-2.47
415.96,0.12,2.60,0.13,2.60,-2.61,-2.44,-2.03,-2.48,-2.48,-2.48
420.12,0.12,2.60,0.14,2.62,-2.61,-2.43,-2.03,-2.49,-2.47,-2.48
424.32,0.15,2.64,0.14,2.63,-2.61,-2.42,-2.03,-2.45,-2.47,-2.49
428.56,0.14,2.63,0.12,2.61,-2.60,-2.41,-2.03,-2.46,-2.48,-2.49
432.85,0.08,2.56,0.10,2.59,-2.59,-2.40,-2.03,-2.51,-2.49,-2.48
437.18,0.08,2.55,0.10,2.57,-2.58,-2.38,-2.03,-2.50,-2.48,-2.47
441.55,0.12,2.57,0.12,2.57,-2.58,-2.37,-2.03,-2.45,-2.46,-2.45
445.96,0.17,2.60,0.14,2.57,-2.57,-2.36,-2.03,-2.40,-2.43,-2.43
450.42,0.14,2.54,0.16,2.56,-2.57,-2.34,-2.03,-2.42,-2.41,-2.40
454.93,0.17,2.53,0.19,2.55,-2.57,-2.33,-2.03,-2.40,-2.38,-2.36
459.48,0.23,2.55,0.23,2.55,-2.57,-2.32,-2.03,-2.34,-2.34,-2.32
